创建为新数据集,样品 109 用户 Administrator 日期 星期日, 十一月 05 2017
cm-1,%T
10000.00,1.76
9999.00,1.75
9998.00,1.75
9997.00,1.75
9996.00,1.75
9995.00,1.74
9994.00,1.74
9993.00,1.74
9992.00,1.74
9991.00,1.74
9990.00,1.74
9989.00,1.73
9988.00,1.73
9987.00,1.73
9986.00,1.73
9985.00,1.73
9984.00,1.73
9983.00,1.73
9982.00,1.73
9981.00,1.73
9980.00,1.73
9979.00,1.73
9978.00,1.73
9977.00,1.73
9976.00,1.73
9975.00,1.73
9974.00,1.73
9973.00,1.73
9972.00,1.73
9971.00,1.73
9970.00,1.73
9969.00,1.73
9968.00,1.73
9967.00,1.73
9966.00,1.73
9965.00,1.73
9964.00,1.73
9963.00,1.73
9962.00,1.73
9961.00,1.73
9960.00,1.73
9959.00,1.73
9958.00,1.73
9957.00,1.73
9956.00,1.73
9955.00,1.73
9954.00,1.73
9953.00,1.73
9952.00,1.73
9951.00,1.72
9950.00,1.72
9949.00,1.72
9948.00,1.72
9947.00,1.71
9946.00,1.71
9945.00,1.71
9944.00,1.71
9943.00,1.70
9942.00,1.70
9941.00,1.70
9940.00,1.69
9939.00,1.69
9938.00,1.69
9937.00,1.69
9936.00,1.69
9935.00,1.68
9934.00,1.68
9933.00,1.68
9932.00,1.68
9931.00,1.68
9930.00,1.68
9929.00,1.68
9928.00,1.68
9927.00,1.68
9926.00,1.68
9925.00,1.68
9924.00,1.68
9923.00,1.68
9922.00,1.68
9921.00,1.68
9920.00,1.68
9919.00,1.68
9918.00,1.68
9917.00,1.68
9916.00,1.68
9915.00,1.68
9914.00,1.68
9913.00,1.69
9912.00,1.69
9911.00,1.69
9910.00,1.70
9909.00,1.70
9908.00,1.70
9907.00,1.71
9906.00,1.71
9905.00,1.72
9904.00,1.72
9903.00,1.73
9902.00,1.73
9901.00,1.74
9900.00,1.74
9899.00,1.74
9898.00,1.74
9897.00,1.74
9896.00,1.74
9895.00,1.74
9894.00,1.74
9893.00,1.74
9892.00,1.74
9891.00,1.73
9890.00,1.73
9889.00,1.73
9888.00,1.72
9887.00,1.72
9886.00,1.72
9885.00,1.71
9884.00,1.71
9883.00,1.71
9882.00,1.70
9881.00,1.70
9880.00,1.70
9879.00,1.70
9878.00,1.70
9877.00,1.70
9876.00,1.70
9875.00,1.70
9874.00,1.70
9873.00,1.70
9872.00,1.70
9871.00,1.70
9870.00,1.71
9869.00,1.71
9868.00,1.71
9867.00,1.71
9866.00,1.71
9865.00,1.71
9864.00,1.71
9863.00,1.71
9862.00,1.71
9861.00,1.71
9860.00,1.71
9859.00,1.71
9858.00,1.70
9857.00,1.70
9856.00,1.70
9855.00,1.70
9854.00,1.69
9853.00,1.69
9852.00,1.69
9851.00,1.68
9850.00,1.68
9849.00,1.68
9848.00,1.68
9847.00,1.68
9846.00,1.68
9845.00,1.67
9844.00,1.67
9843.00,1.67
9842.00,1.67
9841.00,1.67
9840.00,1.68
9839.00,1.68
9838.00,1.68
9837.00,1.68
9836.00,1.68
9835.00,1.69
9834.00,1.69
9833.00,1.69
9832.00,1.70
9831.00,1.70
9830.00,1.70
9829.00,1.71
9828.00,1.71
9827.00,1.72
9826.00,1.72
9825.00,1.73
9824.00,1.73
9823.00,1.73
9822.00,1.74
9821.00,1.74
9820.00,1.74
9819.00,1.75
9818.00,1.75
9817.00,1.75
9816.00,1.75
9815.00,1.75
9814.00,1.75
9813.00,1.75
9812.00,1.75
9811.00,1.75
9810.00,1.75
9809.00,1.75
9808.00,1.74
9807.00,1.74
9806.00,1.74
9805.00,1.74
9804.00,1.74
9803.00,1.73
9802.00,1.73
9801.00,1.73
9800.00,1.73
9799.00,1.72
9798.00,1.72
9797.00,1.72
9796.00,1.72
9795.00,1.72
9794.00,1.71
9793.00,1.71
9792.00,1.71
9791.00,1.71
9790.00,1.71
9789.00,1.71
9788.00,1.71
9787.00,1.71
9786.00,1.71
9785.00,1.71
9784.00,1.71
9783.00,1.71
9782.00,1.71
9781.00,1.71
9780.00,1.71
9779.00,1.71
9778.00,1.71
9777.00,1.70
9776.00,1.70
9775.00,1.70
9774.00,1.70
9773.00,1.69
9772.00,1.69
9771.00,1.69
9770.00,1.69
9769.00,1.68
9768.00,1.68
9767.00,1.68
9766.00,1.68
9765.00,1.68
9764.00,1.68
9763.00,1.68
9762.00,1.68
9761.00,1.68
9760.00,1.68
9759.00,1.68
9758.00,1.68
9757.00,1.68
9756.00,1.68
9755.00,1.69
9754.00,1.69
9753.00,1.69
9752.00,1.69
9751.00,1.69
9750.00,1.69
9749.00,1.69
9748.00,1.69
9747.00,1.69
9746.00,1.70
9745.00,1.70
9744.00,1.70
9743.00,1.70
9742.00,1.70
9741.00,1.70
9740.00,1.70
9739.00,1.70
9738.00,1.71
9737.00,1.71
9736.00,1.71
9735.00,1.71
9734.00,1.71
9733.00,1.71
9732.00,1.71
9731.00,1.72
9730.00,1.72
9729.00,1.72
9728.00,1.72
9727.00,1.72
9726.00,1.71
9725.00,1.71
9724.00,1.71
9723.00,1.71
9722.00,1.71
9721.00,1.71
9720.00,1.71
9719.00,1.71
9718.00,1.71
9717.00,1.71
9716.00,1.71
9715.00,1.71
9714.00,1.71
9713.00,1.71
9712.00,1.71
9711.00,1.71
9710.00,1.72
9709.00,1.72
9708.00,1.72
9707.00,1.72
9706.00,1.72
9705.00,1.72
9704.00,1.73
9703.00,1.73
9702.00,1.73
9701.00,1.72
9700.00,1.72
9699.00,1.72
9698.00,1.72
9697.00,1.72
9696.00,1.72
9695.00,1.72
9694.00,1.72
9693.00,1.71
9692.00,1.71
9691.00,1.71
9690.00,1.71
9689.00,1.71
9688.00,1.71
9687.00,1.71
9686.00,1.71
9685.00,1.71
9684.00,1.71
9683.00,1.71
9682.00,1.70
9681.00,1.70
9680.00,1.70
9679.00,1.70
9678.00,1.70
9677.00,1.70
9676.00,1.69
9675.00,1.69
9674.00,1.69
9673.00,1.68
9672.00,1.68
9671.00,1.68
9670.00,1.67
9669.00,1.67
9668.00,1.67
9667.00,1.67
9666.00,1.67
9665.00,1.66
9664.00,1.66
9663.00,1.66
9662.00,1.66
9661.00,1.66
9660.00,1.67
9659.00,1.67
9658.00,1.67
9657.00,1.67
9656.00,1.67
9655.00,1.68
9654.00,1.68
9653.00,1.68
9652.00,1.68
9651.00,1.69
9650.00,1.69
9649.00,1.69
9648.00,1.69
9647.00,1.70
9646.00,1.70
9645.00,1.70
9644.00,1.70
9643.00,1.70
9642.00,1.70
9641.00,1.70
9640.00,1.70
9639.00,1.70
9638.00,1.70
9637.00,1.70
9636.00,1.70
9635.00,1.70
9634.00,1.70
9633.00,1.70
9632.00,1.70
9631.00,1.70
9630.00,1.70
9629.00,1.70
9628.00,1.70
9627.00,1.70
9626.00,1.70
9625.00,1.70
9624.00,1.70
9623.00,1.70
9622.00,1.70
9621.00,1.69
9620.00,1.69
9619.00,1.69
9618.00,1.69
9617.00,1.69
9616.00,1.69
9615.00,1.69
9614.00,1.69
9613.00,1.68
9612.00,1.68
9611.00,1.68
9610.00,1.68
9609.00,1.68
9608.00,1.68
9607.00,1.68
9606.00,1.68
9605.00,1.68
9604.00,1.68
9603.00,1.68
9602.00,1.69
9601.00,1.69
9600.00,1.69
9599.00,1.69
9598.00,1.69
9597.00,1.70
9596.00,1.70
9595.00,1.70
9594.00,1.70
9593.00,1.70
9592.00,1.70
9591.00,1.71
9590.00,1.71
9589.00,1.71
9588.00,1.71
9587.00,1.71
9586.00,1.71
9585.00,1.71
9584.00,1.71
9583.00,1.71
9582.00,1.71
9581.00,1.71
9580.00,1.71
9579.00,1.71
9578.00,1.71
9577.00,1.71
9576.00,1.71
9575.00,1.72
9574.00,1.72
9573.00,1.72
9572.00,1.72
9571.00,1.73
9570.00,1.73
9569.00,1.73
9568.00,1.73
9567.00,1.73
9566.00,1.73
9565.00,1.73
9564.00,1.73
9563.00,1.73
9562.00,1.73
9561.00,1.73
9560.00,1.73
9559.00,1.72
9558.00,1.72
9557.00,1.72
9556.00,1.72
9555.00,1.71
9554.00,1.71
9553.00,1.71
9552.00,1.71
9551.00,1.71
9550.00,1.71
9549.00,1.71
9548.00,1.71
9547.00,1.71
9546.00,1.71
9545.00,1.71
9544.00,1.71
9543.00,1.72
9542.00,1.72
9541.00,1.72
9540.00,1.72
9539.00,1.72
9538.00,1.72
9537.00,1.72
9536.00,1.73
9535.00,1.73
9534.00,1.73
9533.00,1.73
9532.00,1.72
9531.00,1.72
9530.00,1.72
9529.00,1.72
9528.00,1.72
9527.00,1.72
9526.00,1.71
9525.00,1.71
9524.00,1.71
9523.00,1.70
9522.00,1.70
9521.00,1.70
9520.00,1.69
9519.00,1.69
9518.00,1.69
9517.00,1.69
9516.00,1.69
9515.00,1.69
9514.00,1.69
9513.00,1.69
9512.00,1.69
9511.00,1.69
9510.00,1.69
9509.00,1.69
9508.00,1.69
9507.00,1.70
9506.00,1.70
9505.00,1.70
9504.00,1.70
9503.00,1.70
9502.00,1.70
9501.00,1.70
9500.00,1.69
9499.00,1.69
9498.00,1.69
9497.00,1.69
9496.00,1.69
9495.00,1.68
9494.00,1.68
9493.00,1.68
9492.00,1.68
9491.00,1.68
9490.00,1.68
9489.00,1.68
9488.00,1.68
9487.00,1.68
9486.00,1.68
9485.00,1.68
9484.00,1.68
9483.00,1.68
9482.00,1.69
9481.00,1.69
9480.00,1.69
9479.00,1.69
9478.00,1.70
9477.00,1.70
9476.00,1.70
9475.00,1.70
9474.00,1.71
9473.00,1.71
9472.00,1.71
9471.00,1.72
9470.00,1.72
9469.00,1.72
9468.00,1.73
9467.00,1.73
9466.00,1.73
9465.00,1.73
9464.00,1.73
9463.00,1.74
9462.00,1.74
9461.00,1.74
9460.00,1.74
9459.00,1.74
9458.00,1.74
9457.00,1.74
9456.00,1.74
9455.00,1.74
9454.00,1.74
9453.00,1.74
9452.00,1.74
9451.00,1.74
9450.00,1.75
9449.00,1.75
9448.00,1.75
9447.00,1.75
9446.00,1.75
9445.00,1.75
9444.00,1.75
9443.00,1.75
9442.00,1.75
9441.00,1.74
9440.00,1.74
9439.00,1.74
9438.00,1.73
9437.00,1.73
9436.00,1.72
9435.00,1.71
9434.00,1.70
9433.00,1.70
9432.00,1.69
9431.00,1.68
9430.00,1.68
9429.00,1.67
9428.00,1.66
9427.00,1.66
9426.00,1.66
9425.00,1.65
9424.00,1.65
9423.00,1.65
9422.00,1.65
9421.00,1.65
9420.00,1.66
9419.00,1.66
9418.00,1.66
9417.00,1.67
9416.00,1.67
9415.00,1.68
9414.00,1.68
9413.00,1.69
9412.00,1.69
9411.00,1.70
9410.00,1.70
9409.00,1.71
9408.00,1.71
9407.00,1.71
9406.00,1.71
9405.00,1.71
9404.00,1.71
9403.00,1.71
9402.00,1.71
9401.00,1.71
9400.00,1.71
9399.00,1.71
9398.00,1.71
9397.00,1.71
9396.00,1.70
9395.00,1.70
9394.00,1.70
9393.00,1.70
9392.00,1.70
9391.00,1.70
9390.00,1.70
9389.00,1.70
9388.00,1.71
9387.00,1.71
9386.00,1.71
9385.00,1.71
9384.00,1.71
9383.00,1.71
9382.00,1.72
9381.00,1.72
9380.00,1.72
9379.00,1.72
9378.00,1.72
9377.00,1.72
9376.00,1.72
9375.00,1.72
9374.00,1.72
9373.00,1.72
9372.00,1.71
9371.00,1.71
9370.00,1.71
9369.00,1.71
9368.00,1.71
9367.00,1.71
9366.00,1.71
9365.00,1.71
9364.00,1.71
9363.00,1.71
9362.00,1.71
9361.00,1.70
9360.00,1.70
9359.00,1.70
9358.00,1.70
9357.00,1.70
9356.00,1.70
9355.00,1.70
9354.00,1.69
9353.00,1.69
9352.00,1.69
9351.00,1.69
9350.00,1.69
9349.00,1.69
9348.00,1.68
9347.00,1.68
9346.00,1.68
9345.00,1.68
9344.00,1.69
9343.00,1.69
9342.00,1.69
9341.00,1.69
9340.00,1.69
9339.00,1.70
9338.00,1.70
9337.00,1.70
9336.00,1.70
9335.00,1.71
9334.00,1.71
9333.00,1.71
9332.00,1.71
9331.00,1.71
9330.00,1.71
9329.00,1.71
9328.00,1.71
9327.00,1.71
9326.00,1.71
9325.00,1.71
9324.00,1.71
9323.00,1.71
9322.00,1.71
9321.00,1.70
9320.00,1.70
9319.00,1.70
9318.00,1.70
9317.00,1.70
9316.00,1.70
9315.00,1.70
9314.00,1.69
9313.00,1.69
9312.00,1.69
9311.00,1.69
9310.00,1.69
9309.00,1.70
9308.00,1.70
9307.00,1.70
9306.00,1.70
9305.00,1.70
9304.00,1.70
9303.00,1.70
9302.00,1.71
9301.00,1.71
9300.00,1.71
9299.00,1.71
9298.00,1.71
9297.00,1.72
9296.00,1.72
9295.00,1.72
9294.00,1.72
9293.00,1.72
9292.00,1.73
9291.00,1.73
9290.00,1.73
9289.00,1.73
9288.00,1.73
9287.00,1.73
9286.00,1.73
9285.00,1.73
9284.00,1.73
9283.00,1.73
9282.00,1.73
9281.00,1.73
9280.00,1.73
9279.00,1.72
9278.00,1.72
9277.00,1.72
9276.00,1.72
9275.00,1.71
9274.00,1.71
9273.00,1.71
9272.00,1.70
9271.00,1.70
9270.00,1.70
9269.00,1.70
9268.00,1.70
9267.00,1.70
9266.00,1.70
9265.00,1.70
9264.00,1.70
9263.00,1.70
9262.00,1.70
9261.00,1.70
9260.00,1.70
9259.00,1.70
9258.00,1.70
9257.00,1.70
9256.00,1.70
9255.00,1.70
9254.00,1.70
9253.00,1.70
9252.00,1.70
9251.00,1.70
9250.00,1.70
9249.00,1.70
9248.00,1.70
9247.00,1.70
9246.00,1.70
9245.00,1.70
9244.00,1.70
9243.00,1.70
9242.00,1.70
9241.00,1.70
9240.00,1.70
9239.00,1.71
9238.00,1.71
9237.00,1.71
9236.00,1.71
9235.00,1.72
9234.00,1.72
9233.00,1.72
9232.00,1.72
9231.00,1.72
9230.00,1.72
9229.00,1.72
9228.00,1.72
9227.00,1.72
9226.00,1.72
9225.00,1.72
9224.00,1.72
9223.00,1.72
9222.00,1.72
9221.00,1.72
9220.00,1.72
9219.00,1.72
9218.00,1.72
9217.00,1.72
9216.00,1.72
9215.00,1.72
9214.00,1.72
9213.00,1.72
9212.00,1.72
9211.00,1.73
9210.00,1.73
9209.00,1.73
9208.00,1.73
9207.00,1.73
9206.00,1.73
9205.00,1.73
9204.00,1.73
9203.00,1.73
9202.00,1.73
9201.00,1.73
9200.00,1.72
9199.00,1.72
9198.00,1.72
9197.00,1.72
9196.00,1.71
9195.00,1.71
9194.00,1.71
9193.00,1.70
9192.00,1.70
9191.00,1.70
9190.00,1.70
9189.00,1.70
9188.00,1.69
9187.00,1.69
9186.00,1.69
9185.00,1.69
9184.00,1.69
9183.00,1.69
9182.00,1.69
9181.00,1.70
9180.00,1.70
9179.00,1.70
9178.00,1.70
9177.00,1.70
9176.00,1.70
9175.00,1.70
9174.00,1.70
9173.00,1.70
9172.00,1.70
9171.00,1.70
9170.00,1.70
9169.00,1.70
9168.00,1.70
9167.00,1.70
9166.00,1.70
9165.00,1.70
9164.00,1.69
9163.00,1.69
9162.00,1.69
9161.00,1.69
9160.00,1.69
9159.00,1.69
9158.00,1.69
9157.00,1.69
9156.00,1.68
9155.00,1.68
9154.00,1.68
9153.00,1.68
9152.00,1.68
9151.00,1.68
9150.00,1.68
9149.00,1.68
9148.00,1.68
9147.00,1.68
9146.00,1.68
9145.00,1.68
9144.00,1.68
9143.00,1.68
9142.00,1.68
9141.00,1.68
9140.00,1.68
9139.00,1.68
9138.00,1.68
9137.00,1.69
9136.00,1.69
9135.00,1.69
9134.00,1.69
9133.00,1.69
9132.00,1.70
9131.00,1.70
9130.00,1.70
9129.00,1.71
9128.00,1.71
9127.00,1.71
9126.00,1.71
9125.00,1.71
9124.00,1.72
9123.00,1.72
9122.00,1.72
9121.00,1.72
9120.00,1.72
9119.00,1.72
9118.00,1.72
9117.00,1.72
9116.00,1.73
9115.00,1.72
9114.00,1.72
9113.00,1.72
9112.00,1.72
9111.00,1.72
9110.00,1.72
9109.00,1.72
9108.00,1.72
9107.00,1.72
9106.00,1.71
9105.00,1.71
9104.00,1.71
9103.00,1.71
9102.00,1.71
9101.00,1.71
9100.00,1.71
9099.00,1.71
9098.00,1.71
9097.00,1.71
9096.00,1.71
9095.00,1.71
9094.00,1.71
9093.00,1.71
9092.00,1.71
9091.00,1.71
9090.00,1.71
9089.00,1.71
9088.00,1.71
9087.00,1.71
9086.00,1.71
9085.00,1.71
9084.00,1.72
9083.00,1.72
9082.00,1.72
9081.00,1.71
9080.00,1.71
9079.00,1.71
9078.00,1.71
9077.00,1.71
9076.00,1.71
9075.00,1.71
9074.00,1.71
9073.00,1.71
9072.00,1.71
9071.00,1.71
9070.00,1.71
9069.00,1.71
9068.00,1.71
9067.00,1.71
9066.00,1.71
9065.00,1.71
9064.00,1.71
9063.00,1.71
9062.00,1.71
9061.00,1.71
9060.00,1.71
9059.00,1.71
9058.00,1.71
9057.00,1.71
9056.00,1.71
9055.00,1.71
9054.00,1.71
9053.00,1.71
9052.00,1.71
9051.00,1.71
9050.00,1.71
9049.00,1.71
9048.00,1.71
9047.00,1.71
9046.00,1.71
9045.00,1.72
9044.00,1.72
9043.00,1.72
9042.00,1.72
9041.00,1.72
9040.00,1.72
9039.00,1.72
9038.00,1.72
9037.00,1.72
9036.00,1.72
9035.00,1.72
9034.00,1.72
9033.00,1.72
9032.00,1.72
9031.00,1.72
9030.00,1.71
9029.00,1.71
9028.00,1.71
9027.00,1.71
9026.00,1.71
9025.00,1.71
9024.00,1.70
9023.00,1.70
9022.00,1.70
9021.00,1.70
9020.00,1.70
9019.00,1.70
9018.00,1.70
9017.00,1.70
9016.00,1.70
9015.00,1.70
9014.00,1.70
9013.00,1.71
9012.00,1.71
9011.00,1.71
9010.00,1.72
9009.00,1.72
9008.00,1.72
9007.00,1.72
9006.00,1.72
9005.00,1.73
9004.00,1.73
9003.00,1.73
9002.00,1.73
9001.00,1.73
9000.00,1.73
8999.00,1.73
8998.00,1.73
8997.00,1.73
8996.00,1.73
8995.00,1.73
8994.00,1.72
8993.00,1.72
8992.00,1.72
8991.00,1.72
8990.00,1.72
8989.00,1.72
8988.00,1.72
8987.00,1.72
8986.00,1.72
8985.00,1.72
8984.00,1.72
8983.00,1.72
8982.00,1.72
8981.00,1.73
8980.00,1.73
8979.00,1.73
8978.00,1.73
8977.00,1.73
8976.00,1.73
8975.00,1.73
8974.00,1.73
8973.00,1.73
8972.00,1.73
8971.00,1.73
8970.00,1.73
8969.00,1.73
8968.00,1.73
8967.00,1.73
8966.00,1.73
8965.00,1.72
8964.00,1.72
8963.00,1.72
8962.00,1.71
8961.00,1.71
8960.00,1.71
8959.00,1.71
8958.00,1.71
8957.00,1.71
8956.00,1.71
8955.00,1.71
8954.00,1.71
8953.00,1.71
8952.00,1.71
8951.00,1.71
8950.00,1.71
8949.00,1.72
8948.00,1.72
8947.00,1.72
8946.00,1.72
8945.00,1.73
8944.00,1.73
8943.00,1.73
8942.00,1.73
8941.00,1.73
8940.00,1.73
8939.00,1.73
8938.00,1.73
8937.00,1.73
8936.00,1.73
8935.00,1.73
8934.00,1.73
8933.00,1.72
8932.00,1.72
8931.00,1.72
8930.00,1.72
8929.00,1.72
8928.00,1.72
8927.00,1.72
8926.00,1.72
8925.00,1.72
8924.00,1.73
8923.00,1.73
8922.00,1.73
8921.00,1.73
8920.00,1.73
8919.00,1.74
8918.00,1.74
8917.00,1.74
8916.00,1.74
8915.00,1.74
8914.00,1.74
8913.00,1.74
8912.00,1.74
8911.00,1.74
8910.00,1.74
8909.00,1.74
8908.00,1.74
8907.00,1.74
8906.00,1.73
8905.00,1.73
8904.00,1.73
8903.00,1.73
8902.00,1.72
8901.00,1.72
8900.00,1.72
8899.00,1.72
8898.00,1.72
8897.00,1.72
8896.00,1.71
8895.00,1.71
8894.00,1.71
8893.00,1.71
8892.00,1.71
8891.00,1.72
8890.00,1.72
8889.00,1.72
8888.00,1.72
8887.00,1.72
8886.00,1.72
8885.00,1.72
8884.00,1.72
8883.00,1.72
8882.00,1.72
8881.00,1.72
8880.00,1.72
8879.00,1.72
8878.00,1.72
8877.00,1.72
8876.00,1.71
8875.00,1.71
8874.00,1.71
8873.00,1.71
8872.00,1.71
8871.00,1.71
8870.00,1.71
8869.00,1.71
8868.00,1.71
8867.00,1.71
8866.00,1.71
8865.00,1.71
8864.00,1.71
8863.00,1.71
8862.00,1.71
8861.00,1.72
8860.00,1.72
8859.00,1.72
8858.00,1.72
8857.00,1.72
8856.00,1.72
8855.00,1.73
8854.00,1.73
8853.00,1.73
8852.00,1.73
8851.00,1.73
8850.00,1.73
8849.00,1.73
8848.00,1.73
8847.00,1.72
8846.00,1.72
8845.00,1.72
8844.00,1.72
8843.00,1.72
8842.00,1.72
8841.00,1.72
8840.00,1.72
8839.00,1.72
8838.00,1.72
8837.00,1.72
8836.00,1.72
8835.00,1.72
8834.00,1.72
8833.00,1.72
8832.00,1.72
8831.00,1.72
8830.00,1.72
8829.00,1.72
8828.00,1.72
8827.00,1.72
8826.00,1.72
8825.00,1.72
8824.00,1.72
8823.00,1.72
8822.00,1.72
8821.00,1.72
8820.00,1.72
8819.00,1.72
8818.00,1.72
8817.00,1.72
8816.00,1.72
8815.00,1.72
8814.00,1.72
8813.00,1.72
8812.00,1.72
8811.00,1.71
8810.00,1.71
8809.00,1.71
8808.00,1.71
8807.00,1.71
8806.00,1.71
8805.00,1.71
8804.00,1.71
8803.00,1.70
8802.00,1.70
8801.00,1.70
8800.00,1.70
8799.00,1.70
8798.00,1.70
8797.00,1.70
8796.00,1.70
8795.00,1.70
8794.00,1.70
8793.00,1.70
8792.00,1.70
8791.00,1.70
8790.00,1.70
8789.00,1.70
8788.00,1.70
8787.00,1.70
8786.00,1.70
8785.00,1.70
8784.00,1.70
8783.00,1.70
8782.00,1.70
8781.00,1.70
8780.00,1.70
8779.00,1.70
8778.00,1.70
8777.00,1.70
8776.00,1.70
8775.00,1.70
8774.00,1.70
8773.00,1.70
8772.00,1.70
8771.00,1.70
8770.00,1.70
8769.00,1.70
8768.00,1.70
8767.00,1.70
8766.00,1.70
8765.00,1.70
8764.00,1.70
8763.00,1.70
8762.00,1.70
8761.00,1.70
8760.00,1.70
8759.00,1.70
8758.00,1.70
8757.00,1.69
8756.00,1.69
8755.00,1.69
8754.00,1.69
8753.00,1.69
8752.00,1.69
8751.00,1.69
8750.00,1.69
8749.00,1.69
8748.00,1.69
8747.00,1.69
8746.00,1.68
8745.00,1.68
8744.00,1.68
8743.00,1.68
8742.00,1.68
8741.00,1.68
8740.00,1.68
8739.00,1.68
8738.00,1.68
8737.00,1.68
8736.00,1.68
8735.00,1.68
8734.00,1.68
8733.00,1.69
8732.00,1.69
8731.00,1.69
8730.00,1.69
8729.00,1.69
8728.00,1.69
8727.00,1.69
8726.00,1.70
8725.00,1.70
8724.00,1.70
8723.00,1.70
8722.00,1.70
8721.00,1.70
8720.00,1.70
8719.00,1.70
8718.00,1.70
8717.00,1.70
8716.00,1.69
8715.00,1.69
8714.00,1.69
8713.00,1.69
8712.00,1.69
8711.00,1.69
8710.00,1.69
8709.00,1.69
8708.00,1.69
8707.00,1.69
8706.00,1.69
8705.00,1.69
8704.00,1.69
8703.00,1.69
8702.00,1.69
8701.00,1.69
8700.00,1.69
8699.00,1.69
8698.00,1.68
8697.00,1.68
8696.00,1.68
8695.00,1.68
8694.00,1.68
8693.00,1.68
8692.00,1.67
8691.00,1.67
8690.00,1.67
8689.00,1.67
8688.00,1.67
8687.00,1.67
8686.00,1.67
8685.00,1.67
8684.00,1.67
8683.00,1.67
8682.00,1.67
8681.00,1.67
8680.00,1.68
8679.00,1.68
8678.00,1.68
8677.00,1.68
8676.00,1.69
8675.00,1.69
8674.00,1.69
8673.00,1.69
8672.00,1.70
8671.00,1.70
8670.00,1.70
8669.00,1.70
8668.00,1.70
8667.00,1.70
8666.00,1.70
8665.00,1.70
8664.00,1.70
8663.00,1.69
8662.00,1.69
8661.00,1.69
8660.00,1.69
8659.00,1.69
8658.00,1.68
8657.00,1.68
8656.00,1.68
8655.00,1.68
8654.00,1.68
8653.00,1.68
8652.00,1.68
8651.00,1.68
8650.00,1.68
8649.00,1.68
8648.00,1.69
8647.00,1.69
8646.00,1.69
8645.00,1.69
8644.00,1.69
8643.00,1.69
8642.00,1.69
8641.00,1.69
8640.00,1.69
8639.00,1.69
8638.00,1.68
8637.00,1.68
8636.00,1.68
8635.00,1.68
8634.00,1.68
8633.00,1.68
8632.00,1.67
8631.00,1.67
8630.00,1.67
8629.00,1.67
8628.00,1.67
8627.00,1.66
8626.00,1.66
8625.00,1.66
8624.00,1.66
8623.00,1.66
8622.00,1.66
8621.00,1.65
8620.00,1.65
8619.00,1.65
8618.00,1.65
8617.00,1.65
8616.00,1.65
8615.00,1.65
8614.00,1.65
8613.00,1.65
8612.00,1.65
8611.00,1.64
8610.00,1.64
8609.00,1.64
8608.00,1.64
8607.00,1.64
8606.00,1.64
8605.00,1.65
8604.00,1.65
8603.00,1.65
8602.00,1.65
8601.00,1.65
8600.00,1.65
8599.00,1.65
8598.00,1.65
8597.00,1.66
8596.00,1.66
8595.00,1.66
8594.00,1.66
8593.00,1.67
8592.00,1.67
8591.00,1.67
8590.00,1.68
8589.00,1.68
8588.00,1.68
8587.00,1.68
8586.00,1.68
8585.00,1.69
8584.00,1.69
8583.00,1.69
8582.00,1.69
8581.00,1.69
8580.00,1.69
8579.00,1.69
8578.00,1.68
8577.00,1.68
8576.00,1.68
8575.00,1.67
8574.00,1.67
8573.00,1.67
8572.00,1.66
8571.00,1.66
8570.00,1.66
8569.00,1.65
8568.00,1.65
8567.00,1.65
8566.00,1.64
8565.00,1.64
8564.00,1.64
8563.00,1.64
8562.00,1.63
8561.00,1.63
8560.00,1.63
8559.00,1.63
8558.00,1.63
8557.00,1.63
8556.00,1.63
8555.00,1.63
8554.00,1.63
8553.00,1.63
8552.00,1.63
8551.00,1.63
8550.00,1.63
8549.00,1.63
8548.00,1.63
8547.00,1.63
8546.00,1.64
8545.00,1.64
8544.00,1.64
8543.00,1.64
8542.00,1.64
8541.00,1.64
8540.00,1.64
8539.00,1.64
8538.00,1.64
8537.00,1.64
8536.00,1.65
8535.00,1.65
8534.00,1.65
8533.00,1.65
8532.00,1.65
8531.00,1.65
8530.00,1.66
8529.00,1.66
8528.00,1.66
8527.00,1.66
8526.00,1.66
8525.00,1.66
8524.00,1.66
8523.00,1.66
8522.00,1.65
8521.00,1.65
8520.00,1.65
8519.00,1.65
8518.00,1.64
8517.00,1.64
8516.00,1.63
8515.00,1.63
8514.00,1.63
8513.00,1.62
8512.00,1.62
8511.00,1.62
8510.00,1.61
8509.00,1.61
8508.00,1.61
8507.00,1.61
8506.00,1.61
8505.00,1.61
8504.00,1.61
8503.00,1.61
8502.00,1.61
8501.00,1.61
8500.00,1.61
8499.00,1.61
8498.00,1.61
8497.00,1.61
8496.00,1.61
8495.00,1.61
8494.00,1.61
8493.00,1.61
8492.00,1.61
8491.00,1.61
8490.00,1.61
8489.00,1.61
8488.00,1.61
8487.00,1.61
8486.00,1.61
8485.00,1.62
8484.00,1.62
8483.00,1.62
8482.00,1.62
8481.00,1.62
8480.00,1.62
8479.00,1.62
8478.00,1.62
8477.00,1.62
8476.00,1.61
8475.00,1.61
8474.00,1.61
8473.00,1.61
8472.00,1.61
8471.00,1.61
8470.00,1.61
8469.00,1.61
8468.00,1.61
8467.00,1.60
8466.00,1.60
8465.00,1.60
8464.00,1.60
8463.00,1.60
8462.00,1.60
8461.00,1.60
8460.00,1.59
8459.00,1.59
8458.00,1.59
8457.00,1.59
8456.00,1.59
8455.00,1.59
8454.00,1.59
8453.00,1.59
8452.00,1.58
8451.00,1.58
8450.00,1.58
8449.00,1.58
8448.00,1.58
8447.00,1.58
8446.00,1.58
8445.00,1.58
8444.00,1.58
8443.00,1.58
8442.00,1.58
8441.00,1.58
8440.00,1.58
8439.00,1.58
8438.00,1.58
8437.00,1.58
8436.00,1.58
8435.00,1.58
8434.00,1.58
8433.00,1.58
8432.00,1.58
8431.00,1.58
8430.00,1.58
8429.00,1.58
8428.00,1.58
8427.00,1.58
8426.00,1.58
8425.00,1.59
8424.00,1.59
8423.00,1.59
8422.00,1.59
8421.00,1.59
8420.00,1.59
8419.00,1.59
8418.00,1.59
8417.00,1.59
8416.00,1.60
8415.00,1.60
8414.00,1.60
8413.00,1.60
8412.00,1.60
8411.00,1.60
8410.00,1.60
8409.00,1.60
8408.00,1.60
8407.00,1.60
8406.00,1.60
8405.00,1.60
8404.00,1.60
8403.00,1.60
8402.00,1.60
8401.00,1.61
8400.00,1.61
8399.00,1.61
8398.00,1.61
8397.00,1.61
8396.00,1.61
8395.00,1.61
8394.00,1.61
8393.00,1.61
8392.00,1.61
8391.00,1.61
8390.00,1.61
8389.00,1.61
8388.00,1.61
8387.00,1.61
8386.00,1.61
8385.00,1.62
8384.00,1.62
8383.00,1.62
8382.00,1.62
8381.00,1.62
8380.00,1.62
8379.00,1.62
8378.00,1.62
8377.00,1.62
8376.00,1.61
8375.00,1.61
8374.00,1.61
8373.00,1.61
8372.00,1.61
8371.00,1.61
8370.00,1.61
8369.00,1.61
8368.00,1.61
8367.00,1.61
8366.00,1.61
8365.00,1.61
8364.00,1.61
8363.00,1.61
8362.00,1.61
8361.00,1.61
8360.00,1.61
8359.00,1.61
8358.00,1.62
8357.00,1.62
8356.00,1.62
8355.00,1.62
8354.00,1.62
8353.00,1.63
8352.00,1.63
8351.00,1.63
8350.00,1.63
8349.00,1.63
8348.00,1.64
8347.00,1.64
8346.00,1.64
8345.00,1.64
8344.00,1.64
8343.00,1.64
8342.00,1.65
8341.00,1.65
8340.00,1.65
8339.00,1.65
8338.00,1.65
8337.00,1.65
8336.00,1.65
8335.00,1.65
8334.00,1.65
8333.00,1.65
8332.00,1.65
8331.00,1.65
8330.00,1.65
8329.00,1.65
8328.00,1.65
8327.00,1.65
8326.00,1.65
8325.00,1.65
8324.00,1.65
8323.00,1.65
8322.00,1.65
8321.00,1.65
8320.00,1.65
8319.00,1.65
8318.00,1.65
8317.00,1.65
8316.00,1.65
8315.00,1.64
8314.00,1.64
8313.00,1.64
8312.00,1.64
8311.00,1.64
8310.00,1.64
8309.00,1.64
8308.00,1.64
8307.00,1.64
8306.00,1.64
8305.00,1.64
8304.00,1.64
8303.00,1.64
8302.00,1.64
8301.00,1.64
8300.00,1.64
8299.00,1.64
8298.00,1.64
8297.00,1.64
8296.00,1.64
8295.00,1.64
8294.00,1.65
8293.00,1.65
8292.00,1.65
8291.00,1.65
8290.00,1.65
8289.00,1.65
8288.00,1.65
8287.00,1.65
8286.00,1.65
8285.00,1.65
8284.00,1.65
8283.00,1.65
8282.00,1.65
8281.00,1.65
8280.00,1.64
8279.00,1.64
8278.00,1.64
8277.00,1.64
8276.00,1.64
8275.00,1.63
8274.00,1.63
8273.00,1.63
8272.00,1.63
8271.00,1.63
8270.00,1.63
8269.00,1.63
8268.00,1.63
8267.00,1.63
8266.00,1.63
8265.00,1.63
8264.00,1.63
8263.00,1.63
8262.00,1.63
8261.00,1.63
8260.00,1.64
8259.00,1.64
8258.00,1.64
8257.00,1.64
8256.00,1.64
8255.00,1.64
8254.00,1.64
8253.00,1.64
8252.00,1.64
8251.00,1.64
8250.00,1.64
8249.00,1.64
8248.00,1.64
8247.00,1.64
8246.00,1.65
8245.00,1.65
8244.00,1.65
8243.00,1.65
8242.00,1.65
8241.00,1.65
8240.00,1.65
8239.00,1.65
8238.00,1.66
8237.00,1.66
8236.00,1.66
8235.00,1.66
8234.00,1.66
8233.00,1.67
8232.00,1.67
8231.00,1.67
8230.00,1.67
8229.00,1.67
8228.00,1.68
8227.00,1.68
8226.00,1.68
8225.00,1.68
8224.00,1.68
8223.00,1.68
8222.00,1.68
8221.00,1.68
8220.00,1.68
8219.00,1.67
8218.00,1.67
8217.00,1.67
8216.00,1.67
8215.00,1.67
8214.00,1.67
8213.00,1.67
8212.00,1.67
8211.00,1.67
8210.00,1.67
8209.00,1.67
8208.00,1.66
8207.00,1.66
8206.00,1.66
8205.00,1.66
8204.00,1.66
8203.00,1.66
8202.00,1.66
8201.00,1.66
8200.00,1.66
8199.00,1.66
8198.00,1.66
8197.00,1.66
8196.00,1.66
8195.00,1.66
8194.00,1.66
8193.00,1.66
8192.00,1.66
8191.00,1.66
8190.00,1.66
8189.00,1.66
8188.00,1.66
8187.00,1.66
8186.00,1.66
8185.00,1.66
8184.00,1.66
8183.00,1.66
8182.00,1.66
8181.00,1.66
8180.00,1.66
8179.00,1.66
8178.00,1.66
8177.00,1.66
8176.00,1.66
8175.00,1.66
8174.00,1.66
8173.00,1.66
8172.00,1.67
8171.00,1.67
8170.00,1.67
8169.00,1.67
8168.00,1.67
8167.00,1.67
8166.00,1.67
8165.00,1.67
8164.00,1.67
8163.00,1.67
8162.00,1.67
8161.00,1.67
8160.00,1.67
8159.00,1.67
8158.00,1.67
8157.00,1.67
8156.00,1.67
8155.00,1.67
8154.00,1.67
8153.00,1.67
8152.00,1.67
8151.00,1.67
8150.00,1.67
8149.00,1.68
8148.00,1.68
8147.00,1.68
8146.00,1.68
8145.00,1.68
8144.00,1.69
8143.00,1.69
8142.00,1.69
8141.00,1.69
8140.00,1.69
8139.00,1.69
8138.00,1.69
8137.00,1.70
8136.00,1.70
8135.00,1.70
8134.00,1.70
8133.00,1.70
8132.00,1.70
8131.00,1.70
8130.00,1.70
8129.00,1.70
8128.00,1.70
8127.00,1.70
8126.00,1.70
8125.00,1.70
8124.00,1.70
8123.00,1.70
8122.00,1.70
8121.00,1.69
8120.00,1.69
8119.00,1.69
8118.00,1.69
8117.00,1.69
8116.00,1.68
8115.00,1.68
8114.00,1.68
8113.00,1.68
8112.00,1.68
8111.00,1.68
8110.00,1.68
8109.00,1.68
8108.00,1.68
8107.00,1.68
8106.00,1.68
8105.00,1.68
8104.00,1.69
8103.00,1.69
8102.00,1.69
8101.00,1.69
8100.00,1.70
8099.00,1.70
8098.00,1.70
8097.00,1.70
8096.00,1.71
8095.00,1.71
8094.00,1.71
8093.00,1.71
8092.00,1.71
8091.00,1.71
8090.00,1.71
8089.00,1.71
8088.00,1.71
8087.00,1.71
8086.00,1.71
8085.00,1.71
8084.00,1.70
8083.00,1.70
8082.00,1.70
8081.00,1.70
8080.00,1.70
8079.00,1.70
8078.00,1.70
8077.00,1.70
8076.00,1.70
8075.00,1.70
8074.00,1.70
8073.00,1.70
8072.00,1.70
8071.00,1.70
8070.00,1.70
8069.00,1.70
8068.00,1.70
8067.00,1.70
8066.00,1.70
8065.00,1.70
8064.00,1.70
8063.00,1.70
8062.00,1.70
8061.00,1.70
8060.00,1.70
8059.00,1.70
8058.00,1.70
8057.00,1.70
8056.00,1.70
8055.00,1.70
8054.00,1.70
8053.00,1.70
8052.00,1.70
8051.00,1.70
8050.00,1.70
8049.00,1.70
8048.00,1.70
8047.00,1.70
8046.00,1.70
8045.00,1.70
8044.00,1.70
8043.00,1.70
8042.00,1.70
8041.00,1.69
8040.00,1.69
8039.00,1.69
8038.00,1.69
8037.00,1.69
8036.00,1.69
8035.00,1.69
8034.00,1.69
8033.00,1.69
8032.00,1.69
8031.00,1.70
8030.00,1.70
8029.00,1.70
8028.00,1.70
8027.00,1.70
8026.00,1.70
8025.00,1.70
8024.00,1.70
8023.00,1.70
8022.00,1.70
8021.00,1.71
8020.00,1.71
8019.00,1.71
8018.00,1.71
8017.00,1.71
8016.00,1.71
8015.00,1.71
8014.00,1.71
8013.00,1.71
8012.00,1.71
8011.00,1.71
8010.00,1.71
8009.00,1.71
8008.00,1.71
8007.00,1.72
8006.00,1.72
8005.00,1.72
8004.00,1.72
8003.00,1.72
8002.00,1.71
8001.00,1.71
8000.00,1.71
7999.00,1.71
7998.00,1.71
7997.00,1.71
7996.00,1.71
7995.00,1.71
7994.00,1.71
7993.00,1.70
7992.00,1.70
7991.00,1.70
7990.00,1.70
7989.00,1.70
7988.00,1.70
7987.00,1.70
7986.00,1.70
7985.00,1.70
7984.00,1.70
7983.00,1.70
7982.00,1.70
7981.00,1.70
7980.00,1.69
7979.00,1.69
7978.00,1.69
7977.00,1.69
7976.00,1.69
7975.00,1.69
7974.00,1.69
7973.00,1.69
7972.00,1.69
7971.00,1.70
7970.00,1.70
7969.00,1.70
7968.00,1.70
7967.00,1.70
7966.00,1.70
7965.00,1.70
7964.00,1.70
7963.00,1.70
7962.00,1.70
7961.00,1.71
7960.00,1.71
7959.00,1.71
7958.00,1.71
7957.00,1.71
7956.00,1.71
7955.00,1.71
7954.00,1.71
7953.00,1.71
7952.00,1.72
7951.00,1.72
7950.00,1.72
7949.00,1.72
7948.00,1.71
7947.00,1.71
7946.00,1.71
7945.00,1.71
7944.00,1.71
7943.00,1.71
7942.00,1.71
7941.00,1.71
7940.00,1.71
7939.00,1.71
7938.00,1.71
7937.00,1.71
7936.00,1.71
7935.00,1.71
7934.00,1.71
7933.00,1.71
7932.00,1.71
7931.00,1.71
7930.00,1.71
7929.00,1.71
7928.00,1.71
7927.00,1.72
7926.00,1.72
7925.00,1.72
7924.00,1.72
7923.00,1.72
7922.00,1.72
7921.00,1.72
7920.00,1.72
7919.00,1.72
7918.00,1.72
7917.00,1.72
7916.00,1.72
7915.00,1.72
7914.00,1.72
7913.00,1.72
7912.00,1.72
7911.00,1.72
7910.00,1.72
7909.00,1.72
7908.00,1.72
7907.00,1.72
7906.00,1.72
7905.00,1.72
7904.00,1.72
7903.00,1.72
7902.00,1.72
7901.00,1.72
7900.00,1.72
7899.00,1.72
7898.00,1.72
7897.00,1.72
7896.00,1.72
7895.00,1.72
7894.00,1.72
7893.00,1.72
7892.00,1.72
7891.00,1.72
7890.00,1.72
7889.00,1.72
7888.00,1.72
7887.00,1.72
7886.00,1.72
7885.00,1.72
7884.00,1.72
7883.00,1.72
7882.00,1.72
7881.00,1.72
7880.00,1.72
7879.00,1.72
7878.00,1.72
7877.00,1.72
7876.00,1.72
7875.00,1.72
7874.00,1.72
7873.00,1.72
7872.00,1.72
7871.00,1.72
7870.00,1.72
7869.00,1.72
7868.00,1.72
7867.00,1.72
7866.00,1.72
7865.00,1.72
7864.00,1.72
7863.00,1.72
7862.00,1.72
7861.00,1.72
7860.00,1.72
7859.00,1.72
7858.00,1.72
7857.00,1.72
7856.00,1.72
7855.00,1.72
7854.00,1.72
7853.00,1.72
7852.00,1.72
7851.00,1.72
7850.00,1.72
7849.00,1.72
7848.00,1.72
7847.00,1.72
7846.00,1.72
7845.00,1.72
7844.00,1.72
7843.00,1.72
7842.00,1.72
7841.00,1.72
7840.00,1.72
7839.00,1.72
7838.00,1.72
7837.00,1.72
7836.00,1.72
7835.00,1.72
7834.00,1.72
7833.00,1.72
7832.00,1.72
7831.00,1.72
7830.00,1.72
7829.00,1.72
7828.00,1.72
7827.00,1.72
7826.00,1.73
7825.00,1.73
7824.00,1.73
7823.00,1.73
7822.00,1.73
7821.00,1.73
7820.00,1.73
7819.00,1.73
7818.00,1.74
7817.00,1.74
7816.00,1.74
7815.00,1.74
7814.00,1.74
7813.00,1.74
7812.00,1.74
7811.00,1.74
7810.00,1.74
7809.00,1.74
7808.00,1.74
7807.00,1.74
7806.00,1.74
7805.00,1.74
7804.00,1.74
7803.00,1.74
7802.00,1.74
7801.00,1.74
7800.00,1.74
7799.00,1.74
7798.00,1.74
7797.00,1.74
7796.00,1.74
7795.00,1.74
7794.00,1.74
7793.00,1.74
7792.00,1.74
7791.00,1.74
7790.00,1.74
7789.00,1.74
7788.00,1.74
7787.00,1.74
7786.00,1.74
7785.00,1.74
7784.00,1.74
7783.00,1.74
7782.00,1.74
7781.00,1.74
7780.00,1.74
7779.00,1.74
7778.00,1.74
7777.00,1.74
7776.00,1.74
7775.00,1.74
7774.00,1.74
7773.00,1.74
7772.00,1.74
7771.00,1.74
7770.00,1.74
7769.00,1.74
7768.00,1.74
7767.00,1.75
7766.00,1.75
7765.00,1.75
7764.00,1.75
7763.00,1.75
7762.00,1.75
7761.00,1.75
7760.00,1.75
7759.00,1.75
7758.00,1.75
7757.00,1.75
7756.00,1.75
7755.00,1.75
7754.00,1.75
7753.00,1.75
7752.00,1.75
7751.00,1.75
7750.00,1.75
7749.00,1.74
7748.00,1.74
7747.00,1.74
7746.00,1.74
7745.00,1.74
7744.00,1.74
7743.00,1.74
7742.00,1.74
7741.00,1.74
7740.00,1.74
7739.00,1.74
7738.00,1.74
7737.00,1.74
7736.00,1.74
7735.00,1.74
7734.00,1.74
7733.00,1.74
7732.00,1.74
7731.00,1.74
7730.00,1.74
7729.00,1.75
7728.00,1.75
7727.00,1.75
7726.00,1.75
7725.00,1.75
7724.00,1.75
7723.00,1.75
7722.00,1.75
7721.00,1.75
7720.00,1.75
7719.00,1.75
7718.00,1.75
7717.00,1.75
7716.00,1.75
7715.00,1.74
7714.00,1.74
7713.00,1.74
7712.00,1.74
7711.00,1.74
7710.00,1.74
7709.00,1.74
7708.00,1.74
7707.00,1.74
7706.00,1.74
7705.00,1.74
7704.00,1.74
7703.00,1.74
7702.00,1.74
7701.00,1.74
7700.00,1.74
7699.00,1.74
7698.00,1.74
7697.00,1.74
7696.00,1.74
7695.00,1.74
7694.00,1.74
7693.00,1.75
7692.00,1.75
7691.00,1.75
7690.00,1.75
7689.00,1.75
7688.00,1.75
7687.00,1.75
7686.00,1.75
7685.00,1.75
7684.00,1.75
7683.00,1.75
7682.00,1.75
7681.00,1.75
7680.00,1.75
7679.00,1.75
7678.00,1.75
7677.00,1.75
7676.00,1.75
7675.00,1.75
7674.00,1.75
7673.00,1.75
7672.00,1.75
7671.00,1.75
7670.00,1.75
7669.00,1.75
7668.00,1.75
7667.00,1.75
7666.00,1.75
7665.00,1.75
7664.00,1.75
7663.00,1.75
7662.00,1.75
7661.00,1.75
7660.00,1.75
7659.00,1.75
7658.00,1.75
7657.00,1.75
7656.00,1.75
7655.00,1.75
7654.00,1.75
7653.00,1.75
7652.00,1.75
7651.00,1.75
7650.00,1.75
7649.00,1.75
7648.00,1.75
7647.00,1.75
7646.00,1.75
7645.00,1.75
7644.00,1.75
7643.00,1.75
7642.00,1.75
7641.00,1.75
7640.00,1.75
7639.00,1.75
7638.00,1.74
7637.00,1.74
7636.00,1.74
7635.00,1.74
7634.00,1.74
7633.00,1.74
7632.00,1.74
7631.00,1.74
7630.00,1.74
7629.00,1.74
7628.00,1.74
7627.00,1.74
7626.00,1.75
7625.00,1.75
7624.00,1.75
7623.00,1.75
7622.00,1.75
7621.00,1.75
7620.00,1.75
7619.00,1.75
7618.00,1.75
7617.00,1.75
7616.00,1.75
7615.00,1.75
7614.00,1.75
7613.00,1.75
7612.00,1.75
7611.00,1.75
7610.00,1.75
7609.00,1.75
7608.00,1.75
7607.00,1.75
7606.00,1.75
7605.00,1.75
7604.00,1.75
7603.00,1.74
7602.00,1.74
7601.00,1.74
7600.00,1.74
7599.00,1.74
7598.00,1.74
7597.00,1.74
7596.00,1.74
7595.00,1.74
7594.00,1.74
7593.00,1.74
7592.00,1.74
7591.00,1.74
7590.00,1.74
7589.00,1.74
7588.00,1.74
7587.00,1.73
7586.00,1.73
7585.00,1.73
7584.00,1.73
7583.00,1.73
7582.00,1.73
7581.00,1.73
7580.00,1.73
7579.00,1.73
7578.00,1.72
7577.00,1.72
7576.00,1.72
7575.00,1.72
7574.00,1.72
7573.00,1.73
7572.00,1.73
7571.00,1.73
7570.00,1.73
7569.00,1.73
7568.00,1.74
7567.00,1.74
7566.00,1.74
7565.00,1.74
7564.00,1.74
7563.00,1.75
7562.00,1.75
7561.00,1.75
7560.00,1.75
7559.00,1.75
7558.00,1.75
7557.00,1.75
7556.00,1.75
7555.00,1.75
7554.00,1.75
7553.00,1.75
7552.00,1.75
7551.00,1.75
7550.00,1.75
7549.00,1.74
7548.00,1.74
7547.00,1.74
7546.00,1.74
7545.00,1.74
7544.00,1.74
7543.00,1.74
7542.00,1.74
7541.00,1.74
7540.00,1.74
7539.00,1.74
7538.00,1.74
7537.00,1.74
7536.00,1.74
7535.00,1.74
7534.00,1.74
7533.00,1.74
7532.00,1.74
7531.00,1.74
7530.00,1.74
7529.00,1.74
7528.00,1.74
7527.00,1.74
7526.00,1.74
7525.00,1.74
7524.00,1.74
7523.00,1.74
7522.00,1.74
7521.00,1.74
7520.00,1.74
7519.00,1.74
7518.00,1.74
7517.00,1.74
7516.00,1.74
7515.00,1.74
7514.00,1.74
7513.00,1.74
7512.00,1.74
7511.00,1.74
7510.00,1.74
7509.00,1.74
7508.00,1.74
7507.00,1.74
7506.00,1.74
7505.00,1.74
7504.00,1.74
7503.00,1.74
7502.00,1.74
7501.00,1.74
7500.00,1.74
7499.00,1.73
7498.00,1.73
7497.00,1.73
7496.00,1.73
7495.00,1.73
7494.00,1.73
7493.00,1.73
7492.00,1.73
7491.00,1.73
7490.00,1.73
7489.00,1.73
7488.00,1.73
7487.00,1.73
7486.00,1.73
7485.00,1.73
7484.00,1.73
7483.00,1.73
7482.00,1.72
7481.00,1.72
7480.00,1.72
7479.00,1.72
7478.00,1.72
7477.00,1.72
7476.00,1.72
7475.00,1.72
7474.00,1.72
7473.00,1.72
7472.00,1.72
7471.00,1.72
7470.00,1.72
7469.00,1.72
7468.00,1.72
7467.00,1.72
7466.00,1.72
7465.00,1.72
7464.00,1.72
7463.00,1.72
7462.00,1.72
7461.00,1.72
7460.00,1.72
7459.00,1.72
7458.00,1.72
7457.00,1.72
7456.00,1.72
7455.00,1.71
7454.00,1.71
7453.00,1.71
7452.00,1.71
7451.00,1.71
7450.00,1.71
7449.00,1.71
7448.00,1.71
7447.00,1.71
7446.00,1.71
7445.00,1.71
7444.00,1.71
7443.00,1.71
7442.00,1.71
7441.00,1.71
7440.00,1.71
7439.00,1.71
7438.00,1.71
7437.00,1.71
7436.00,1.71
7435.00,1.71
7434.00,1.71
7433.00,1.71
7432.00,1.71
7431.00,1.71
7430.00,1.71
7429.00,1.71
7428.00,1.70
7427.00,1.70
7426.00,1.70
7425.00,1.70
7424.00,1.70
7423.00,1.70
7422.00,1.70
7421.00,1.70
7420.00,1.70
7419.00,1.70
7418.00,1.69
7417.00,1.69
7416.00,1.69
7415.00,1.69
7414.00,1.69
7413.00,1.69
7412.00,1.69
7411.00,1.69
7410.00,1.69
7409.00,1.69
7408.00,1.69
7407.00,1.69
7406.00,1.69
7405.00,1.69
7404.00,1.68
7403.00,1.68
7402.00,1.68
7401.00,1.68
7400.00,1.68
7399.00,1.68
7398.00,1.68
7397.00,1.68
7396.00,1.68
7395.00,1.68
7394.00,1.68
7393.00,1.68
7392.00,1.68
7391.00,1.68
7390.00,1.68
7389.00,1.68
7388.00,1.68
7387.00,1.67
7386.00,1.67
7385.00,1.67
7384.00,1.67
7383.00,1.67
7382.00,1.67
7381.00,1.67
7380.00,1.67
7379.00,1.67
7378.00,1.67
7377.00,1.66
7376.00,1.66
7375.00,1.66
7374.00,1.66
7373.00,1.66
7372.00,1.66
7371.00,1.66
7370.00,1.66
7369.00,1.66
7368.00,1.66
7367.00,1.66
7366.00,1.66
7365.00,1.66
7364.00,1.66
7363.00,1.67
7362.00,1.67
7361.00,1.67
7360.00,1.67
7359.00,1.67
7358.00,1.67
7357.00,1.67
7356.00,1.67
7355.00,1.67
7354.00,1.67
7353.00,1.67
7352.00,1.67
7351.00,1.67
7350.00,1.67
7349.00,1.67
7348.00,1.67
7347.00,1.67
7346.00,1.67
7345.00,1.67
7344.00,1.67
7343.00,1.67
7342.00,1.67
7341.00,1.67
7340.00,1.66
7339.00,1.66
7338.00,1.66
7337.00,1.66
7336.00,1.66
7335.00,1.66
7334.00,1.66
7333.00,1.66
7332.00,1.66
7331.00,1.66
7330.00,1.66
7329.00,1.66
7328.00,1.66
7327.00,1.66
7326.00,1.66
7325.00,1.66
7324.00,1.66
7323.00,1.66
7322.00,1.66
7321.00,1.66
7320.00,1.66
7319.00,1.66
7318.00,1.66
7317.00,1.66
7316.00,1.66
7315.00,1.66
7314.00,1.66
7313.00,1.66
7312.00,1.66
7311.00,1.66
7310.00,1.66
7309.00,1.66
7308.00,1.65
7307.00,1.65
7306.00,1.65
7305.00,1.65
7304.00,1.65
7303.00,1.65
7302.00,1.65
7301.00,1.64
7300.00,1.64
7299.00,1.64
7298.00,1.64
7297.00,1.64
7296.00,1.64
7295.00,1.64
7294.00,1.63
7293.00,1.63
7292.00,1.63
7291.00,1.63
7290.00,1.63
7289.00,1.63
7288.00,1.63
7287.00,1.62
7286.00,1.62
7285.00,1.62
7284.00,1.62
7283.00,1.62
7282.00,1.62
7281.00,1.62
7280.00,1.61
7279.00,1.61
7278.00,1.61
7277.00,1.61
7276.00,1.61
7275.00,1.61
7274.00,1.61
7273.00,1.61
7272.00,1.61
7271.00,1.61
7270.00,1.61
7269.00,1.61
7268.00,1.61
7267.00,1.61
7266.00,1.61
7265.00,1.61
7264.00,1.61
7263.00,1.61
7262.00,1.61
7261.00,1.60
7260.00,1.60
7259.00,1.60
7258.00,1.60
7257.00,1.60
7256.00,1.60
7255.00,1.60
7254.00,1.60
7253.00,1.60
7252.00,1.59
7251.00,1.59
7250.00,1.59
7249.00,1.59
7248.00,1.59
7247.00,1.59
7246.00,1.58
7245.00,1.58
7244.00,1.58
7243.00,1.58
7242.00,1.58
7241.00,1.57
7240.00,1.57
7239.00,1.57
7238.00,1.57
7237.00,1.57
7236.00,1.56
7235.00,1.56
7234.00,1.56
7233.00,1.56
7232.00,1.55
7231.00,1.55
7230.00,1.55
7229.00,1.54
7228.00,1.54
7227.00,1.54
7226.00,1.53
7225.00,1.53
7224.00,1.53
7223.00,1.52
7222.00,1.52
7221.00,1.51
7220.00,1.51
7219.00,1.51
7218.00,1.50
7217.00,1.50
7216.00,1.50
7215.00,1.49
7214.00,1.49
7213.00,1.49
7212.00,1.48
7211.00,1.48
7210.00,1.48
7209.00,1.48
7208.00,1.47
7207.00,1.47
7206.00,1.47
7205.00,1.47
7204.00,1.47
7203.00,1.46
7202.00,1.46
7201.00,1.46
7200.00,1.46
7199.00,1.46
7198.00,1.45
7197.00,1.45
7196.00,1.45
7195.00,1.45
7194.00,1.44
7193.00,1.44
7192.00,1.44
7191.00,1.44
7190.00,1.43
7189.00,1.43
7188.00,1.43
7187.00,1.42
7186.00,1.42
7185.00,1.41
7184.00,1.41
7183.00,1.41
7182.00,1.40
7181.00,1.40
7180.00,1.39
7179.00,1.39
7178.00,1.39
7177.00,1.38
7176.00,1.38
7175.00,1.38
7174.00,1.37
7173.00,1.37
7172.00,1.37
7171.00,1.36
7170.00,1.36
7169.00,1.36
7168.00,1.36
7167.00,1.36
7166.00,1.35
7165.00,1.35
7164.00,1.35
7163.00,1.35
7162.00,1.34
7161.00,1.34
7160.00,1.34
7159.00,1.34
7158.00,1.33
7157.00,1.33
7156.00,1.33
7155.00,1.33
7154.00,1.32
7153.00,1.32
7152.00,1.32
7151.00,1.32
7150.00,1.31
7149.00,1.31
7148.00,1.31
7147.00,1.31
7146.00,1.30
7145.00,1.30
7144.00,1.30
7143.00,1.30
7142.00,1.29
7141.00,1.29
7140.00,1.29
7139.00,1.29
7138.00,1.28
7137.00,1.28
7136.00,1.28
7135.00,1.28
7134.00,1.27
7133.00,1.27
7132.00,1.27
7131.00,1.26
7130.00,1.26
7129.00,1.26
7128.00,1.25
7127.00,1.25
7126.00,1.25
7125.00,1.24
7124.00,1.24
7123.00,1.24
7122.00,1.23
7121.00,1.23
7120.00,1.23
7119.00,1.22
7118.00,1.22
7117.00,1.22
7116.00,1.21
7115.00,1.21
7114.00,1.21
7113.00,1.20
7112.00,1.20
7111.00,1.19
7110.00,1.19
7109.00,1.19
7108.00,1.18
7107.00,1.18
7106.00,1.17
7105.00,1.17
7104.00,1.17
7103.00,1.16
7102.00,1.16
7101.00,1.16
7100.00,1.15
7099.00,1.15
7098.00,1.15
7097.00,1.15
7096.00,1.14
7095.00,1.14
7094.00,1.14
7093.00,1.14
7092.00,1.14
7091.00,1.14
7090.00,1.13
7089.00,1.13
7088.00,1.13
7087.00,1.13
7086.00,1.13
7085.00,1.12
7084.00,1.12
7083.00,1.12
7082.00,1.12
7081.00,1.11
7080.00,1.11
7079.00,1.11
7078.00,1.11
7077.00,1.10
7076.00,1.10
7075.00,1.10
7074.00,1.10
7073.00,1.10
7072.00,1.09
7071.00,1.09
7070.00,1.09
7069.00,1.09
7068.00,1.09
7067.00,1.09
7066.00,1.08
7065.00,1.08
7064.00,1.08
7063.00,1.08
7062.00,1.08
7061.00,1.08
7060.00,1.08
7059.00,1.08
7058.00,1.07
7057.00,1.07
7056.00,1.07
7055.00,1.07
7054.00,1.07
7053.00,1.07
7052.00,1.06
7051.00,1.06
7050.00,1.06
7049.00,1.06
7048.00,1.06
7047.00,1.05
7046.00,1.05
7045.00,1.05
7044.00,1.05
7043.00,1.05
7042.00,1.04
7041.00,1.04
7040.00,1.04
7039.00,1.04
7038.00,1.04
7037.00,1.03
7036.00,1.03
7035.00,1.03
7034.00,1.03
7033.00,1.03
7032.00,1.02
7031.00,1.02
7030.00,1.02
7029.00,1.02
7028.00,1.02
7027.00,1.02
7026.00,1.01
7025.00,1.01
7024.00,1.01
7023.00,1.01
7022.00,1.01
7021.00,1.01
7020.00,1.00
7019.00,1.00
7018.00,1.00
7017.00,1.00
7016.00,1.00
7015.00,1.00
7014.00,0.99
7013.00,0.99
7012.00,0.99
7011.00,0.99
7010.00,0.99
7009.00,0.99
7008.00,0.99
7007.00,0.98
7006.00,0.98
7005.00,0.98
7004.00,0.98
7003.00,0.98
7002.00,0.98
7001.00,0.98
7000.00,0.98
6999.00,0.98
6998.00,0.97
6997.00,0.97
6996.00,0.97
6995.00,0.97
6994.00,0.97
6993.00,0.97
6992.00,0.97
6991.00,0.97
6990.00,0.97
6989.00,0.97
6988.00,0.96
6987.00,0.96
6986.00,0.96
6985.00,0.96
6984.00,0.96
6983.00,0.96
6982.00,0.96
6981.00,0.96
6980.00,0.96
6979.00,0.95
6978.00,0.95
6977.00,0.95
6976.00,0.95
6975.00,0.95
6974.00,0.95
6973.00,0.95
6972.00,0.95
6971.00,0.95
6970.00,0.95
6969.00,0.95
6968.00,0.95
6967.00,0.95
6966.00,0.95
6965.00,0.95
6964.00,0.95
6963.00,0.95
6962.00,0.95
6961.00,0.95
6960.00,0.95
6959.00,0.95
6958.00,0.95
6957.00,0.95
6956.00,0.95
6955.00,0.95
6954.00,0.95
6953.00,0.95
6952.00,0.94
6951.00,0.94
6950.00,0.94
6949.00,0.94
6948.00,0.94
6947.00,0.94
6946.00,0.94
6945.00,0.94
6944.00,0.94
6943.00,0.94
6942.00,0.94
6941.00,0.94
6940.00,0.94
6939.00,0.94
6938.00,0.94
6937.00,0.94
6936.00,0.94
6935.00,0.94
6934.00,0.94
6933.00,0.94
6932.00,0.94
6931.00,0.94
6930.00,0.94
6929.00,0.94
6928.00,0.94
6927.00,0.94
6926.00,0.94
6925.00,0.94
6924.00,0.94
6923.00,0.94
6922.00,0.94
6921.00,0.94
6920.00,0.93
6919.00,0.93
6918.00,0.93
6917.00,0.93
6916.00,0.93
6915.00,0.93
6914.00,0.93
6913.00,0.93
6912.00,0.93
6911.00,0.93
6910.00,0.92
6909.00,0.92
6908.00,0.92
6907.00,0.92
6906.00,0.92
6905.00,0.92
6904.00,0.92
6903.00,0.91
6902.00,0.91
6901.00,0.91
6900.00,0.91
6899.00,0.91
6898.00,0.91
6897.00,0.91
6896.00,0.91
6895.00,0.91
6894.00,0.90
6893.00,0.90
6892.00,0.90
6891.00,0.90
6890.00,0.90
6889.00,0.90
6888.00,0.90
6887.00,0.90
6886.00,0.90
6885.00,0.90
6884.00,0.90
6883.00,0.90
6882.00,0.90
6881.00,0.90
6880.00,0.90
6879.00,0.90
6878.00,0.90
6877.00,0.90
6876.00,0.90
6875.00,0.90
6874.00,0.91
6873.00,0.91
6872.00,0.91
6871.00,0.91
6870.00,0.91
6869.00,0.90
6868.00,0.90
6867.00,0.90
6866.00,0.90
6865.00,0.90
6864.00,0.90
6863.00,0.90
6862.00,0.90
6861.00,0.90
6860.00,0.90
6859.00,0.90
6858.00,0.90
6857.00,0.90
6856.00,0.90
6855.00,0.89
6854.00,0.90
6853.00,0.90
6852.00,0.90
6851.00,0.90
6850.00,0.90
6849.00,0.90
6848.00,0.90
6847.00,0.90
6846.00,0.90
6845.00,0.90
6844.00,0.90
6843.00,0.90
6842.00,0.90
6841.00,0.90
6840.00,0.90
6839.00,0.90
6838.00,0.90
6837.00,0.90
6836.00,0.90
6835.00,0.90
6834.00,0.90
6833.00,0.90
6832.00,0.90
6831.00,0.91
6830.00,0.91
6829.00,0.91
6828.00,0.91
6827.00,0.91
6826.00,0.91
6825.00,0.91
6824.00,0.91
6823.00,0.91
6822.00,0.91
6821.00,0.91
6820.00,0.91
6819.00,0.91
6818.00,0.91
6817.00,0.91
6816.00,0.91
6815.00,0.91
6814.00,0.91
6813.00,0.91
6812.00,0.91
6811.00,0.92
6810.00,0.92
6809.00,0.92
6808.00,0.92
6807.00,0.92
6806.00,0.92
6805.00,0.92
6804.00,0.92
6803.00,0.92
6802.00,0.92
6801.00,0.92
6800.00,0.93
6799.00,0.93
6798.00,0.93
6797.00,0.93
6796.00,0.93
6795.00,0.93
6794.00,0.93
6793.00,0.93
6792.00,0.93
6791.00,0.93
6790.00,0.93
6789.00,0.93
6788.00,0.93
6787.00,0.94
6786.00,0.94
6785.00,0.94
6784.00,0.94
6783.00,0.94
6782.00,0.94
6781.00,0.94
6780.00,0.94
6779.00,0.94
6778.00,0.94
6777.00,0.94
6776.00,0.95
6775.00,0.95
6774.00,0.95
6773.00,0.95
6772.00,0.95
6771.00,0.95
6770.00,0.95
6769.00,0.95
6768.00,0.95
6767.00,0.95
6766.00,0.95
6765.00,0.95
6764.00,0.96
6763.00,0.96
6762.00,0.96
6761.00,0.96
6760.00,0.96
6759.00,0.96
6758.00,0.96
6757.00,0.96
6756.00,0.96
6755.00,0.97
6754.00,0.97
6753.00,0.97
6752.00,0.97
6751.00,0.97
6750.00,0.97
6749.00,0.97
6748.00,0.97
6747.00,0.98
6746.00,0.98
6745.00,0.98
6744.00,0.98
6743.00,0.98
6742.00,0.98
6741.00,0.98
6740.00,0.98
6739.00,0.98
6738.00,0.98
6737.00,0.99
6736.00,0.99
6735.00,0.99
6734.00,0.99
6733.00,0.99
6732.00,0.99
6731.00,0.99
6730.00,0.99
6729.00,0.99
6728.00,0.99
6727.00,0.99
6726.00,1.00
6725.00,1.00
6724.00,1.00
6723.00,1.00
6722.00,1.00
6721.00,1.00
6720.00,1.00
6719.00,1.01
6718.00,1.01
6717.00,1.01
6716.00,1.01
6715.00,1.01
6714.00,1.01
6713.00,1.01
6712.00,1.01
6711.00,1.01
6710.00,1.02
6709.00,1.02
6708.00,1.02
6707.00,1.02
6706.00,1.02
6705.00,1.02
6704.00,1.02
6703.00,1.02
6702.00,1.03
6701.00,1.03
6700.00,1.03
6699.00,1.03
6698.00,1.03
6697.00,1.03
6696.00,1.03
6695.00,1.03
6694.00,1.03
6693.00,1.04
6692.00,1.04
6691.00,1.04
6690.00,1.04
6689.00,1.04
6688.00,1.04
6687.00,1.04
6686.00,1.04
6685.00,1.05
6684.00,1.05
6683.00,1.05
6682.00,1.05
6681.00,1.05
6680.00,1.05
6679.00,1.05
6678.00,1.05
6677.00,1.05
6676.00,1.05
6675.00,1.05
6674.00,1.05
6673.00,1.05
6672.00,1.05
6671.00,1.05
6670.00,1.06
6669.00,1.06
6668.00,1.06
6667.00,1.06
6666.00,1.06
6665.00,1.06
6664.00,1.06
6663.00,1.06
6662.00,1.06
6661.00,1.07
6660.00,1.07
6659.00,1.07
6658.00,1.07
6657.00,1.07
6656.00,1.08
6655.00,1.08
6654.00,1.08
6653.00,1.08
6652.00,1.08
6651.00,1.09
6650.00,1.09
6649.00,1.09
6648.00,1.09
6647.00,1.09
6646.00,1.09
6645.00,1.09
6644.00,1.10
6643.00,1.10
6642.00,1.10
6641.00,1.10
6640.00,1.10
6639.00,1.10
6638.00,1.10
6637.00,1.10
6636.00,1.10
6635.00,1.10
6634.00,1.11
6633.00,1.11
6632.00,1.11
6631.00,1.11
6630.00,1.11
6629.00,1.11
6628.00,1.11
6627.00,1.12
6626.00,1.12
6625.00,1.12
6624.00,1.12
6623.00,1.12
6622.00,1.12
6621.00,1.12
6620.00,1.12
6619.00,1.13
6618.00,1.13
6617.00,1.13
6616.00,1.13
6615.00,1.13
6614.00,1.13
6613.00,1.13
6612.00,1.13
6611.00,1.13
6610.00,1.13
6609.00,1.13
6608.00,1.13
6607.00,1.14
6606.00,1.14
6605.00,1.14
6604.00,1.14
6603.00,1.14
6602.00,1.14
6601.00,1.14
6600.00,1.14
6599.00,1.15
6598.00,1.15
6597.00,1.15
6596.00,1.15
6595.00,1.15
6594.00,1.15
6593.00,1.16
6592.00,1.16
6591.00,1.16
6590.00,1.16
6589.00,1.16
6588.00,1.17
6587.00,1.17
6586.00,1.17
6585.00,1.17
6584.00,1.17
6583.00,1.17
6582.00,1.17
6581.00,1.18
6580.00,1.18
6579.00,1.18
6578.00,1.18
6577.00,1.18
6576.00,1.18
6575.00,1.18
6574.00,1.18
6573.00,1.18
6572.00,1.18
6571.00,1.19
6570.00,1.19
6569.00,1.19
6568.00,1.19
6567.00,1.19
6566.00,1.19
6565.00,1.19
6564.00,1.19
6563.00,1.19
6562.00,1.19
6561.00,1.19
6560.00,1.20
6559.00,1.20
6558.00,1.20
6557.00,1.20
6556.00,1.20
6555.00,1.20
6554.00,1.20
6553.00,1.20
6552.00,1.20
6551.00,1.20
6550.00,1.20
6549.00,1.20
6548.00,1.21
6547.00,1.21
6546.00,1.21
6545.00,1.21
6544.00,1.21
6543.00,1.21
6542.00,1.21
6541.00,1.21
6540.00,1.21
6539.00,1.21
6538.00,1.21
6537.00,1.21
6536.00,1.21
6535.00,1.21
6534.00,1.21
6533.00,1.21
6532.00,1.21
6531.00,1.22
6530.00,1.22
6529.00,1.22
6528.00,1.22
6527.00,1.22
6526.00,1.22
6525.00,1.22
6524.00,1.22
6523.00,1.22
6522.00,1.23
6521.00,1.23
6520.00,1.23
6519.00,1.23
6518.00,1.23
6517.00,1.23
6516.00,1.23
6515.00,1.23
6514.00,1.23
6513.00,1.23
6512.00,1.24
6511.00,1.24
6510.00,1.24
6509.00,1.24
6508.00,1.24
6507.00,1.24
6506.00,1.24
6505.00,1.24
6504.00,1.24
6503.00,1.24
6502.00,1.24
6501.00,1.24
6500.00,1.24
6499.00,1.24
6498.00,1.24
6497.00,1.24
6496.00,1.24
6495.00,1.24
6494.00,1.25
6493.00,1.25
6492.00,1.25
6491.00,1.25
6490.00,1.25
6489.00,1.25
6488.00,1.25
6487.00,1.25
6486.00,1.25
6485.00,1.25
6484.00,1.25
6483.00,1.25
6482.00,1.25
6481.00,1.26
6480.00,1.26
6479.00,1.26
6478.00,1.26
6477.00,1.26
6476.00,1.26
6475.00,1.26
6474.00,1.27
6473.00,1.27
6472.00,1.27
6471.00,1.27
6470.00,1.27
6469.00,1.27
6468.00,1.27
6467.00,1.27
6466.00,1.27
6465.00,1.27
6464.00,1.27
6463.00,1.27
6462.00,1.27
6461.00,1.27
6460.00,1.27
6459.00,1.27
6458.00,1.27
6457.00,1.27
6456.00,1.27
6455.00,1.27
6454.00,1.27
6453.00,1.27
6452.00,1.27
6451.00,1.27
6450.00,1.27
6449.00,1.28
6448.00,1.28
6447.00,1.28
6446.00,1.28
6445.00,1.28
6444.00,1.28
6443.00,1.28
6442.00,1.28
6441.00,1.28
6440.00,1.28
6439.00,1.28
6438.00,1.29
6437.00,1.29
6436.00,1.29
6435.00,1.29
6434.00,1.29
6433.00,1.29
6432.00,1.29
6431.00,1.29
6430.00,1.29
6429.00,1.29
6428.00,1.29
6427.00,1.29
6426.00,1.29
6425.00,1.29
6424.00,1.29
6423.00,1.29
6422.00,1.29
6421.00,1.29
6420.00,1.29
6419.00,1.29
6418.00,1.29
6417.00,1.30
6416.00,1.30
6415.00,1.30
6414.00,1.30
6413.00,1.30
6412.00,1.30
6411.00,1.30
6410.00,1.30
6409.00,1.30
6408.00,1.30
6407.00,1.30
6406.00,1.30
6405.00,1.30
6404.00,1.30
6403.00,1.30
6402.00,1.30
6401.00,1.30
6400.00,1.31
6399.00,1.31
6398.00,1.31
6397.00,1.31
6396.00,1.31
6395.00,1.31
6394.00,1.31
6393.00,1.31
6392.00,1.31
6391.00,1.31
6390.00,1.31
6389.00,1.31
6388.00,1.31
6387.00,1.32
6386.00,1.32
6385.00,1.32
6384.00,1.32
6383.00,1.32
6382.00,1.32
6381.00,1.32
6380.00,1.32
6379.00,1.32
6378.00,1.32
6377.00,1.32
6376.00,1.32
6375.00,1.32
6374.00,1.32
6373.00,1.32
6372.00,1.32
6371.00,1.32
6370.00,1.33
6369.00,1.33
6368.00,1.33
6367.00,1.33
6366.00,1.33
6365.00,1.33
6364.00,1.33
6363.00,1.33
6362.00,1.33
6361.00,1.33
6360.00,1.33
6359.00,1.33
6358.00,1.33
6357.00,1.33
6356.00,1.33
6355.00,1.33
6354.00,1.34
6353.00,1.34
6352.00,1.34
6351.00,1.34
6350.00,1.34
6349.00,1.34
6348.00,1.34
6347.00,1.34
6346.00,1.34
6345.00,1.34
6344.00,1.35
6343.00,1.35
6342.00,1.35
6341.00,1.35
6340.00,1.35
6339.00,1.35
6338.00,1.35
6337.00,1.35
6336.00,1.35
6335.00,1.35
6334.00,1.36
6333.00,1.36
6332.00,1.36
6331.00,1.36
6330.00,1.36
6329.00,1.36
6328.00,1.36
6327.00,1.36
6326.00,1.36
6325.00,1.36
6324.00,1.36
6323.00,1.36
6322.00,1.36
6321.00,1.36
6320.00,1.36
6319.00,1.37
6318.00,1.37
6317.00,1.37
6316.00,1.37
6315.00,1.37
6314.00,1.37
6313.00,1.37
6312.00,1.37
6311.00,1.37
6310.00,1.37
6309.00,1.37
6308.00,1.37
6307.00,1.38
6306.00,1.38
6305.00,1.38
6304.00,1.38
6303.00,1.38
6302.00,1.38
6301.00,1.38
6300.00,1.39
6299.00,1.39
6298.00,1.39
6297.00,1.39
6296.00,1.39
6295.00,1.39
6294.00,1.39
6293.00,1.39
6292.00,1.39
6291.00,1.40
6290.00,1.40
6289.00,1.40
6288.00,1.40
6287.00,1.40
6286.00,1.40
6285.00,1.40
6284.00,1.40
6283.00,1.40
6282.00,1.41
6281.00,1.41
6280.00,1.41
6279.00,1.41
6278.00,1.41
6277.00,1.41
6276.00,1.41
6275.00,1.41
6274.00,1.41
6273.00,1.41
6272.00,1.41
6271.00,1.42
6270.00,1.42
6269.00,1.42
6268.00,1.42
6267.00,1.42
6266.00,1.42
6265.00,1.42
6264.00,1.42
6263.00,1.42
6262.00,1.42
6261.00,1.42
6260.00,1.42
6259.00,1.43
6258.00,1.43
6257.00,1.43
6256.00,1.43
6255.00,1.43
6254.00,1.43
6253.00,1.44
6252.00,1.44
6251.00,1.44
6250.00,1.44
6249.00,1.44
6248.00,1.44
6247.00,1.44
6246.00,1.45
6245.00,1.45
6244.00,1.45
6243.00,1.45
6242.00,1.45
6241.00,1.45
6240.00,1.45
6239.00,1.45
6238.00,1.45
6237.00,1.45
6236.00,1.45
6235.00,1.45
6234.00,1.46
6233.00,1.46
6232.00,1.46
6231.00,1.46
6230.00,1.46
6229.00,1.46
6228.00,1.46
6227.00,1.46
6226.00,1.47
6225.00,1.47
6224.00,1.47
6223.00,1.47
6222.00,1.47
6221.00,1.47
6220.00,1.48
6219.00,1.48
6218.00,1.48
6217.00,1.48
6216.00,1.48
6215.00,1.48
6214.00,1.48
6213.00,1.49
6212.00,1.49
6211.00,1.49
6210.00,1.49
6209.00,1.49
6208.00,1.49
6207.00,1.49
6206.00,1.50
6205.00,1.50
6204.00,1.50
6203.00,1.50
6202.00,1.50
6201.00,1.50
6200.00,1.50
6199.00,1.50
6198.00,1.50
6197.00,1.51
6196.00,1.51
6195.00,1.51
6194.00,1.51
6193.00,1.51
6192.00,1.51
6191.00,1.51
6190.00,1.51
6189.00,1.51
6188.00,1.51
6187.00,1.51
6186.00,1.52
6185.00,1.52
6184.00,1.52
6183.00,1.52
6182.00,1.52
6181.00,1.52
6180.00,1.52
6179.00,1.52
6178.00,1.53
6177.00,1.53
6176.00,1.53
6175.00,1.53
6174.00,1.53
6173.00,1.53
6172.00,1.53
6171.00,1.54
6170.00,1.54
6169.00,1.54
6168.00,1.54
6167.00,1.54
6166.00,1.54
6165.00,1.54
6164.00,1.55
6163.00,1.55
6162.00,1.55
6161.00,1.55
6160.00,1.55
6159.00,1.56
6158.00,1.56
6157.00,1.56
6156.00,1.56
6155.00,1.56
6154.00,1.57
6153.00,1.57
6152.00,1.57
6151.00,1.57
6150.00,1.57
6149.00,1.57
6148.00,1.57
6147.00,1.58
6146.00,1.58
6145.00,1.58
6144.00,1.58
6143.00,1.58
6142.00,1.58
6141.00,1.58
6140.00,1.58
6139.00,1.58
6138.00,1.58
6137.00,1.59
6136.00,1.59
6135.00,1.59
6134.00,1.59
6133.00,1.59
6132.00,1.59
6131.00,1.59
6130.00,1.59
6129.00,1.60
6128.00,1.60
6127.00,1.60
6126.00,1.60
6125.00,1.60
6124.00,1.60
6123.00,1.61
6122.00,1.61
6121.00,1.61
6120.00,1.61
6119.00,1.61
6118.00,1.61
6117.00,1.62
6116.00,1.62
6115.00,1.62
6114.00,1.62
6113.00,1.62
6112.00,1.62
6111.00,1.63
6110.00,1.63
6109.00,1.63
6108.00,1.63
6107.00,1.63
6106.00,1.63
6105.00,1.63
6104.00,1.63
6103.00,1.64
6102.00,1.64
6101.00,1.64
6100.00,1.64
6099.00,1.64
6098.00,1.64
6097.00,1.64
6096.00,1.64
6095.00,1.64
6094.00,1.64
6093.00,1.64
6092.00,1.64
6091.00,1.64
6090.00,1.64
6089.00,1.64
6088.00,1.64
6087.00,1.64
6086.00,1.65
6085.00,1.65
6084.00,1.65
6083.00,1.65
6082.00,1.65
6081.00,1.65
6080.00,1.65
6079.00,1.66
6078.00,1.66
6077.00,1.66
6076.00,1.66
6075.00,1.66
6074.00,1.66
6073.00,1.66
6072.00,1.66
6071.00,1.66
6070.00,1.67
6069.00,1.67
6068.00,1.67
6067.00,1.67
6066.00,1.67
6065.00,1.67
6064.00,1.67
6063.00,1.67
6062.00,1.67
6061.00,1.67
6060.00,1.67
6059.00,1.67
6058.00,1.67
6057.00,1.67
6056.00,1.68
6055.00,1.68
6054.00,1.68
6053.00,1.68
6052.00,1.68
6051.00,1.68
6050.00,1.68
6049.00,1.68
6048.00,1.68
6047.00,1.68
6046.00,1.68
6045.00,1.69
6044.00,1.69
6043.00,1.69
6042.00,1.69
6041.00,1.69
6040.00,1.69
6039.00,1.69
6038.00,1.69
6037.00,1.69
6036.00,1.69
6035.00,1.69
6034.00,1.69
6033.00,1.69
6032.00,1.69
6031.00,1.69
6030.00,1.69
6029.00,1.69
6028.00,1.69
6027.00,1.69
6026.00,1.69
6025.00,1.69
6024.00,1.69
6023.00,1.69
6022.00,1.69
6021.00,1.69
6020.00,1.69
6019.00,1.69
6018.00,1.69
6017.00,1.69
6016.00,1.69
6015.00,1.69
6014.00,1.69
6013.00,1.69
6012.00,1.69
6011.00,1.69
6010.00,1.69
6009.00,1.69
6008.00,1.69
6007.00,1.69
6006.00,1.69
6005.00,1.69
6004.00,1.69
6003.00,1.69
6002.00,1.68
6001.00,1.68
6000.00,1.68
5999.00,1.68
5998.00,1.68
5997.00,1.68
5996.00,1.68
5995.00,1.68
5994.00,1.68
5993.00,1.67
5992.00,1.67
5991.00,1.67
5990.00,1.67
5989.00,1.67
5988.00,1.67
5987.00,1.66
5986.00,1.66
5985.00,1.66
5984.00,1.66
5983.00,1.65
5982.00,1.65
5981.00,1.65
5980.00,1.65
5979.00,1.64
5978.00,1.64
5977.00,1.64
5976.00,1.63
5975.00,1.63
5974.00,1.62
5973.00,1.62
5972.00,1.61
5971.00,1.61
5970.00,1.60
5969.00,1.60
5968.00,1.59
5967.00,1.58
5966.00,1.58
5965.00,1.57
5964.00,1.56
5963.00,1.56
5962.00,1.55
5961.00,1.54
5960.00,1.53
5959.00,1.53
5958.00,1.52
5957.00,1.51
5956.00,1.51
5955.00,1.50
5954.00,1.49
5953.00,1.48
5952.00,1.48
5951.00,1.47
5950.00,1.46
5949.00,1.46
5948.00,1.45
5947.00,1.45
5946.00,1.44
5945.00,1.44
5944.00,1.44
5943.00,1.43
5942.00,1.43
5941.00,1.43
5940.00,1.42
5939.00,1.42
5938.00,1.42
5937.00,1.42
5936.00,1.42
5935.00,1.42
5934.00,1.42
5933.00,1.42
5932.00,1.42
5931.00,1.41
5930.00,1.41
5929.00,1.41
5928.00,1.41
5927.00,1.41
5926.00,1.41
5925.00,1.41
5924.00,1.40
5923.00,1.40
5922.00,1.40
5921.00,1.40
5920.00,1.39
5919.00,1.39
5918.00,1.39
5917.00,1.38
5916.00,1.38
5915.00,1.38
5914.00,1.38
5913.00,1.37
5912.00,1.37
5911.00,1.37
5910.00,1.37
5909.00,1.36
5908.00,1.36
5907.00,1.36
5906.00,1.36
5905.00,1.36
5904.00,1.36
5903.00,1.36
5902.00,1.36
5901.00,1.36
5900.00,1.36
5899.00,1.36
5898.00,1.36
5897.00,1.36
5896.00,1.36
5895.00,1.36
5894.00,1.36
5893.00,1.36
5892.00,1.36
5891.00,1.37
5890.00,1.37
5889.00,1.37
5888.00,1.37
5887.00,1.38
5886.00,1.38
5885.00,1.38
5884.00,1.39
5883.00,1.39
5882.00,1.39
5881.00,1.40
5880.00,1.40
5879.00,1.40
5878.00,1.41
5877.00,1.41
5876.00,1.41
5875.00,1.42
5874.00,1.42
5873.00,1.42
5872.00,1.42
5871.00,1.43
5870.00,1.43
5869.00,1.43
5868.00,1.43
5867.00,1.43
5866.00,1.44
5865.00,1.44
5864.00,1.44
5863.00,1.44
5862.00,1.44
5861.00,1.44
5860.00,1.44
5859.00,1.44
5858.00,1.45
5857.00,1.45
5856.00,1.45
5855.00,1.45
5854.00,1.45
5853.00,1.45
5852.00,1.45
5851.00,1.45
5850.00,1.45
5849.00,1.45
5848.00,1.45
5847.00,1.45
5846.00,1.45
5845.00,1.45
5844.00,1.45
5843.00,1.45
5842.00,1.45
5841.00,1.45
5840.00,1.45
5839.00,1.45
5838.00,1.45
5837.00,1.45
5836.00,1.45
5835.00,1.45
5834.00,1.45
5833.00,1.45
5832.00,1.45
5831.00,1.45
5830.00,1.45
5829.00,1.45
5828.00,1.45
5827.00,1.45
5826.00,1.45
5825.00,1.45
5824.00,1.45
5823.00,1.45
5822.00,1.46
5821.00,1.46
5820.00,1.46
5819.00,1.46
5818.00,1.46
5817.00,1.46
5816.00,1.46
5815.00,1.46
5814.00,1.46
5813.00,1.46
5812.00,1.46
5811.00,1.46
5810.00,1.46
5809.00,1.46
5808.00,1.46
5807.00,1.46
5806.00,1.46
5805.00,1.46
5804.00,1.46
5803.00,1.46
5802.00,1.46
5801.00,1.45
5800.00,1.45
5799.00,1.45
5798.00,1.45
5797.00,1.45
5796.00,1.45
5795.00,1.44
5794.00,1.44
5793.00,1.44
5792.00,1.44
5791.00,1.43
5790.00,1.43
5789.00,1.43
5788.00,1.43
5787.00,1.42
5786.00,1.42
5785.00,1.42
5784.00,1.41
5783.00,1.41
5782.00,1.41
5781.00,1.41
5780.00,1.40
5779.00,1.40
5778.00,1.40
5777.00,1.40
5776.00,1.40
5775.00,1.39
5774.00,1.39
5773.00,1.39
5772.00,1.39
5771.00,1.39
5770.00,1.39
5769.00,1.39
5768.00,1.39
5767.00,1.39
5766.00,1.39
5765.00,1.40
5764.00,1.40
5763.00,1.40
5762.00,1.40
5761.00,1.40
5760.00,1.41
5759.00,1.41
5758.00,1.41
5757.00,1.42
5756.00,1.42
5755.00,1.43
5754.00,1.43
5753.00,1.43
5752.00,1.44
5751.00,1.44
5750.00,1.45
5749.00,1.45
5748.00,1.46
5747.00,1.46
5746.00,1.46
5745.00,1.47
5744.00,1.47
5743.00,1.48
5742.00,1.48
5741.00,1.48
5740.00,1.49
5739.00,1.49
5738.00,1.49
5737.00,1.49
5736.00,1.50
5735.00,1.50
5734.00,1.50
5733.00,1.50
5732.00,1.50
5731.00,1.50
5730.00,1.51
5729.00,1.51
5728.00,1.51
5727.00,1.51
5726.00,1.51
5725.00,1.51
5724.00,1.51
5723.00,1.52
5722.00,1.52
5721.00,1.52
5720.00,1.52
5719.00,1.52
5718.00,1.52
5717.00,1.52
5716.00,1.52
5715.00,1.52
5714.00,1.52
5713.00,1.52
5712.00,1.52
5711.00,1.52
5710.00,1.52
5709.00,1.52
5708.00,1.52
5707.00,1.52
5706.00,1.51
5705.00,1.51
5704.00,1.51
5703.00,1.51
5702.00,1.51
5701.00,1.51
5700.00,1.50
5699.00,1.50
5698.00,1.50
5697.00,1.50
5696.00,1.50
5695.00,1.50
5694.00,1.50
5693.00,1.49
5692.00,1.49
5691.00,1.49
5690.00,1.49
5689.00,1.49
5688.00,1.49
5687.00,1.49
5686.00,1.48
5685.00,1.48
5684.00,1.48
5683.00,1.48
5682.00,1.48
5681.00,1.48
5680.00,1.48
5679.00,1.48
5678.00,1.48
5677.00,1.48
5676.00,1.48
5675.00,1.48
5674.00,1.48
5673.00,1.48
5672.00,1.48
5671.00,1.48
5670.00,1.48
5669.00,1.48
5668.00,1.48
5667.00,1.48
5666.00,1.48
5665.00,1.48
5664.00,1.48
5663.00,1.49
5662.00,1.49
5661.00,1.49
5660.00,1.49
5659.00,1.49
5658.00,1.49
5657.00,1.50
5656.00,1.50
5655.00,1.50
5654.00,1.50
5653.00,1.50
5652.00,1.50
5651.00,1.51
5650.00,1.51
5649.00,1.51
5648.00,1.51
5647.00,1.51
5646.00,1.51
5645.00,1.52
5644.00,1.52
5643.00,1.52
5642.00,1.52
5641.00,1.52
5640.00,1.53
5639.00,1.53
5638.00,1.53
5637.00,1.53
5636.00,1.53
5635.00,1.54
5634.00,1.54
5633.00,1.54
5632.00,1.54
5631.00,1.55
5630.00,1.55
5629.00,1.55
5628.00,1.55
5627.00,1.55
5626.00,1.56
5625.00,1.56
5624.00,1.56
5623.00,1.56
5622.00,1.56
5621.00,1.56
5620.00,1.57
5619.00,1.57
5618.00,1.57
5617.00,1.57
5616.00,1.57
5615.00,1.57
5614.00,1.57
5613.00,1.58
5612.00,1.58
5611.00,1.58
5610.00,1.58
5609.00,1.58
5608.00,1.59
5607.00,1.59
5606.00,1.59
5605.00,1.59
5604.00,1.59
5603.00,1.59
5602.00,1.60
5601.00,1.60
5600.00,1.60
5599.00,1.60
5598.00,1.60
5597.00,1.60
5596.00,1.60
5595.00,1.60
5594.00,1.60
5593.00,1.61
5592.00,1.61
5591.00,1.61
5590.00,1.61
5589.00,1.61
5588.00,1.61
5587.00,1.61
5586.00,1.61
5585.00,1.61
5584.00,1.62
5583.00,1.62
5582.00,1.62
5581.00,1.62
5580.00,1.62
5579.00,1.62
5578.00,1.62
5577.00,1.63
5576.00,1.63
5575.00,1.63
5574.00,1.63
5573.00,1.63
5572.00,1.63
5571.00,1.63
5570.00,1.63
5569.00,1.64
5568.00,1.64
5567.00,1.64
5566.00,1.64
5565.00,1.64
5564.00,1.64
5563.00,1.64
5562.00,1.64
5561.00,1.65
5560.00,1.65
5559.00,1.65
5558.00,1.65
5557.00,1.65
5556.00,1.65
5555.00,1.65
5554.00,1.66
5553.00,1.66
5552.00,1.66
5551.00,1.66
5550.00,1.66
5549.00,1.66
5548.00,1.66
5547.00,1.66
5546.00,1.66
5545.00,1.66
5544.00,1.67
5543.00,1.67
5542.00,1.67
5541.00,1.67
5540.00,1.67
5539.00,1.67
5538.00,1.67
5537.00,1.67
5536.00,1.67
5535.00,1.67
5534.00,1.68
5533.00,1.68
5532.00,1.68
5531.00,1.68
5530.00,1.68
5529.00,1.68
5528.00,1.68
5527.00,1.68
5526.00,1.68
5525.00,1.68
5524.00,1.68
5523.00,1.68
5522.00,1.68
5521.00,1.68
5520.00,1.68
5519.00,1.68
5518.00,1.68
5517.00,1.68
5516.00,1.69
5515.00,1.69
5514.00,1.69
5513.00,1.69
5512.00,1.69
5511.00,1.69
5510.00,1.69
5509.00,1.69
5508.00,1.69
5507.00,1.69
5506.00,1.69
5505.00,1.69
5504.00,1.69
5503.00,1.70
5502.00,1.70
5501.00,1.70
5500.00,1.70
5499.00,1.70
5498.00,1.70
5497.00,1.70
5496.00,1.70
5495.00,1.70
5494.00,1.70
5493.00,1.70
5492.00,1.71
5491.00,1.71
5490.00,1.71
5489.00,1.71
5488.00,1.71
5487.00,1.71
5486.00,1.71
5485.00,1.71
5484.00,1.71
5483.00,1.71
5482.00,1.71
5481.00,1.71
5480.00,1.72
5479.00,1.72
5478.00,1.72
5477.00,1.72
5476.00,1.72
5475.00,1.72
5474.00,1.72
5473.00,1.72
5472.00,1.73
5471.00,1.73
5470.00,1.73
5469.00,1.73
5468.00,1.73
5467.00,1.73
5466.00,1.73
5465.00,1.74
5464.00,1.74
5463.00,1.74
5462.00,1.74
5461.00,1.74
5460.00,1.74
5459.00,1.74
5458.00,1.74
5457.00,1.74
5456.00,1.74
5455.00,1.74
5454.00,1.74
5453.00,1.74
5452.00,1.74
5451.00,1.74
5450.00,1.74
5449.00,1.74
5448.00,1.74
5447.00,1.74
5446.00,1.74
5445.00,1.74
5444.00,1.74
5443.00,1.74
5442.00,1.74
5441.00,1.75
5440.00,1.75
5439.00,1.75
5438.00,1.75
5437.00,1.75
5436.00,1.75
5435.00,1.75
5434.00,1.75
5433.00,1.75
5432.00,1.75
5431.00,1.75
5430.00,1.75
5429.00,1.75
5428.00,1.75
5427.00,1.75
5426.00,1.75
5425.00,1.75
5424.00,1.75
5423.00,1.75
5422.00,1.75
5421.00,1.75
5420.00,1.75
5419.00,1.75
5418.00,1.75
5417.00,1.75
5416.00,1.75
5415.00,1.75
5414.00,1.75
5413.00,1.75
5412.00,1.75
5411.00,1.75
5410.00,1.75
5409.00,1.75
5408.00,1.75
5407.00,1.75
5406.00,1.75
5405.00,1.75
5404.00,1.75
5403.00,1.75
5402.00,1.75
5401.00,1.75
5400.00,1.75
5399.00,1.75
5398.00,1.75
5397.00,1.75
5396.00,1.75
5395.00,1.75
5394.00,1.75
5393.00,1.75
5392.00,1.75
5391.00,1.75
5390.00,1.74
5389.00,1.74
5388.00,1.74
5387.00,1.74
5386.00,1.74
5385.00,1.74
5384.00,1.74
5383.00,1.74
5382.00,1.73
5381.00,1.73
5380.00,1.73
5379.00,1.73
5378.00,1.73
5377.00,1.72
5376.00,1.72
5375.00,1.72
5374.00,1.72
5373.00,1.72
5372.00,1.71
5371.00,1.71
5370.00,1.71
5369.00,1.70
5368.00,1.70
5367.00,1.69
5366.00,1.69
5365.00,1.69
5364.00,1.68
5363.00,1.68
5362.00,1.67
5361.00,1.67
5360.00,1.66
5359.00,1.66
5358.00,1.65
5357.00,1.64
5356.00,1.64
5355.00,1.63
5354.00,1.62
5353.00,1.62
5352.00,1.61
5351.00,1.60
5350.00,1.59
5349.00,1.59
5348.00,1.58
5347.00,1.57
5346.00,1.56
5345.00,1.55
5344.00,1.54
5343.00,1.53
5342.00,1.52
5341.00,1.51
5340.00,1.50
5339.00,1.48
5338.00,1.47
5337.00,1.46
5336.00,1.45
5335.00,1.44
5334.00,1.42
5333.00,1.41
5332.00,1.40
5331.00,1.38
5330.00,1.37
5329.00,1.35
5328.00,1.34
5327.00,1.33
5326.00,1.31
5325.00,1.30
5324.00,1.28
5323.00,1.27
5322.00,1.25
5321.00,1.24
5320.00,1.22
5319.00,1.21
5318.00,1.19
5317.00,1.18
5316.00,1.16
5315.00,1.15
5314.00,1.13
5313.00,1.12
5312.00,1.10
5311.00,1.09
5310.00,1.07
5309.00,1.06
5308.00,1.04
5307.00,1.03
5306.00,1.01
5305.00,1.00
5304.00,0.99
5303.00,0.97
5302.00,0.96
5301.00,0.95
5300.00,0.94
5299.00,0.93
5298.00,0.92
5297.00,0.91
5296.00,0.90
5295.00,0.89
5294.00,0.88
5293.00,0.87
5292.00,0.86
5291.00,0.85
5290.00,0.84
5289.00,0.83
5288.00,0.82
5287.00,0.82
5286.00,0.81
5285.00,0.80
5284.00,0.80
5283.00,0.79
5282.00,0.78
5281.00,0.78
5280.00,0.77
5279.00,0.77
5278.00,0.76
5277.00,0.76
5276.00,0.75
5275.00,0.75
5274.00,0.74
5273.00,0.74
5272.00,0.74
5271.00,0.73
5270.00,0.73
5269.00,0.72
5268.00,0.72
5267.00,0.72
5266.00,0.71
5265.00,0.71
5264.00,0.71
5263.00,0.70
5262.00,0.70
5261.00,0.69
5260.00,0.69
5259.00,0.69
5258.00,0.68
5257.00,0.68
5256.00,0.68
5255.00,0.68
5254.00,0.67
5253.00,0.67
5252.00,0.67
5251.00,0.67
5250.00,0.66
5249.00,0.66
5248.00,0.66
5247.00,0.66
5246.00,0.65
5245.00,0.65
5244.00,0.65
5243.00,0.65
5242.00,0.64
5241.00,0.64
5240.00,0.64
5239.00,0.64
5238.00,0.64
5237.00,0.63
5236.00,0.63
5235.00,0.63
5234.00,0.63
5233.00,0.63
5232.00,0.63
5231.00,0.62
5230.00,0.62
5229.00,0.62
5228.00,0.62
5227.00,0.62
5226.00,0.62
5225.00,0.62
5224.00,0.62
5223.00,0.62
5222.00,0.62
5221.00,0.62
5220.00,0.61
5219.00,0.61
5218.00,0.61
5217.00,0.61
5216.00,0.61
5215.00,0.61
5214.00,0.61
5213.00,0.61
5212.00,0.61
5211.00,0.61
5210.00,0.61
5209.00,0.61
5208.00,0.61
5207.00,0.61
5206.00,0.61
5205.00,0.61
5204.00,0.61
5203.00,0.61
5202.00,0.61
5201.00,0.61
5200.00,0.61
5199.00,0.61
5198.00,0.61
5197.00,0.61
5196.00,0.61
5195.00,0.61
5194.00,0.60
5193.00,0.60
5192.00,0.60
5191.00,0.60
5190.00,0.60
5189.00,0.60
5188.00,0.60
5187.00,0.61
5186.00,0.61
5185.00,0.61
5184.00,0.61
5183.00,0.61
5182.00,0.61
5181.00,0.61
5180.00,0.61
5179.00,0.61
5178.00,0.61
5177.00,0.61
5176.00,0.61
5175.00,0.61
5174.00,0.61
5173.00,0.61
5172.00,0.61
5171.00,0.61
5170.00,0.61
5169.00,0.61
5168.00,0.61
5167.00,0.61
5166.00,0.61
5165.00,0.61
5164.00,0.61
5163.00,0.61
5162.00,0.61
5161.00,0.61
5160.00,0.61
5159.00,0.61
5158.00,0.61
5157.00,0.61
5156.00,0.62
5155.00,0.62
5154.00,0.62
5153.00,0.62
5152.00,0.62
5151.00,0.62
5150.00,0.62
5149.00,0.62
5148.00,0.62
5147.00,0.62
5146.00,0.62
5145.00,0.62
5144.00,0.62
5143.00,0.62
5142.00,0.63
5141.00,0.63
5140.00,0.63
5139.00,0.63
5138.00,0.63
5137.00,0.63
5136.00,0.63
5135.00,0.63
5134.00,0.63
5133.00,0.63
5132.00,0.63
5131.00,0.64
5130.00,0.64
5129.00,0.64
5128.00,0.64
5127.00,0.64
5126.00,0.64
5125.00,0.64
5124.00,0.64
5123.00,0.64
5122.00,0.65
5121.00,0.65
5120.00,0.65
5119.00,0.65
5118.00,0.65
5117.00,0.65
5116.00,0.65
5115.00,0.65
5114.00,0.66
5113.00,0.66
5112.00,0.66
5111.00,0.66
5110.00,0.66
5109.00,0.66
5108.00,0.66
5107.00,0.66
5106.00,0.67
5105.00,0.67
5104.00,0.67
5103.00,0.67
5102.00,0.67
5101.00,0.67
5100.00,0.67
5099.00,0.67
5098.00,0.67
5097.00,0.67
5096.00,0.68
5095.00,0.68
5094.00,0.68
5093.00,0.68
5092.00,0.68
5091.00,0.68
5090.00,0.69
5089.00,0.69
5088.00,0.69
5087.00,0.69
5086.00,0.69
5085.00,0.70
5084.00,0.70
5083.00,0.70
5082.00,0.70
5081.00,0.70
5080.00,0.70
5079.00,0.70
5078.00,0.70
5077.00,0.71
5076.00,0.71
5075.00,0.71
5074.00,0.71
5073.00,0.71
5072.00,0.71
5071.00,0.71
5070.00,0.72
5069.00,0.72
5068.00,0.72
5067.00,0.72
5066.00,0.72
5065.00,0.73
5064.00,0.73
5063.00,0.73
5062.00,0.73
5061.00,0.73
5060.00,0.74
5059.00,0.74
5058.00,0.74
5057.00,0.74
5056.00,0.75
5055.00,0.75
5054.00,0.75
5053.00,0.75
5052.00,0.75
5051.00,0.76
5050.00,0.76
5049.00,0.76
5048.00,0.76
5047.00,0.76
5046.00,0.77
5045.00,0.77
5044.00,0.77
5043.00,0.77
5042.00,0.77
5041.00,0.78
5040.00,0.78
5039.00,0.78
5038.00,0.78
5037.00,0.79
5036.00,0.79
5035.00,0.79
5034.00,0.80
5033.00,0.80
5032.00,0.80
5031.00,0.81
5030.00,0.81
5029.00,0.81
5028.00,0.81
5027.00,0.82
5026.00,0.82
5025.00,0.82
5024.00,0.82
5023.00,0.82
5022.00,0.83
5021.00,0.83
5020.00,0.83
5019.00,0.83
5018.00,0.83
5017.00,0.83
5016.00,0.84
5015.00,0.84
5014.00,0.84
5013.00,0.84
5012.00,0.84
5011.00,0.84
5010.00,0.85
5009.00,0.85
5008.00,0.85
5007.00,0.85
5006.00,0.86
5005.00,0.86
5004.00,0.86
5003.00,0.86
5002.00,0.87
5001.00,0.87
5000.00,0.87
4999.00,0.87
4998.00,0.88
4997.00,0.88
4996.00,0.88
4995.00,0.89
4994.00,0.89
4993.00,0.89
4992.00,0.89
4991.00,0.90
4990.00,0.90
4989.00,0.90
4988.00,0.90
4987.00,0.90
4986.00,0.91
4985.00,0.91
4984.00,0.91
4983.00,0.91
4982.00,0.92
4981.00,0.92
4980.00,0.92
4979.00,0.92
4978.00,0.92
4977.00,0.93
4976.00,0.93
4975.00,0.93
4974.00,0.93
4973.00,0.93
4972.00,0.94
4971.00,0.94
4970.00,0.94
4969.00,0.94
4968.00,0.94
4967.00,0.94
4966.00,0.95
4965.00,0.95
4964.00,0.95
4963.00,0.95
4962.00,0.96
4961.00,0.96
4960.00,0.96
4959.00,0.96
4958.00,0.97
4957.00,0.97
4956.00,0.97
4955.00,0.98
4954.00,0.98
4953.00,0.98
4952.00,0.98
4951.00,0.98
4950.00,0.99
4949.00,0.99
4948.00,0.99
4947.00,0.99
4946.00,0.99
4945.00,1.00
4944.00,1.00
4943.00,1.00
4942.00,1.00
4941.00,1.00
4940.00,1.00
4939.00,1.00
4938.00,1.00
4937.00,1.01
4936.00,1.01
4935.00,1.01
4934.00,1.01
4933.00,1.01
4932.00,1.01
4931.00,1.01
4930.00,1.01
4929.00,1.01
4928.00,1.02
4927.00,1.02
4926.00,1.02
4925.00,1.02
4924.00,1.02
4923.00,1.02
4922.00,1.02
4921.00,1.03
4920.00,1.03
4919.00,1.03
4918.00,1.03
4917.00,1.03
4916.00,1.03
4915.00,1.03
4914.00,1.03
4913.00,1.04
4912.00,1.04
4911.00,1.04
4910.00,1.04
4909.00,1.04
4908.00,1.04
4907.00,1.04
4906.00,1.04
4905.00,1.04
4904.00,1.04
4903.00,1.04
4902.00,1.04
4901.00,1.04
4900.00,1.04
4899.00,1.04
4898.00,1.04
4897.00,1.04
4896.00,1.04
4895.00,1.04
4894.00,1.04
4893.00,1.04
4892.00,1.04
4891.00,1.04
4890.00,1.04
4889.00,1.04
4888.00,1.04
4887.00,1.04
4886.00,1.04
4885.00,1.04
4884.00,1.04
4883.00,1.04
4882.00,1.04
4881.00,1.04
4880.00,1.04
4879.00,1.04
4878.00,1.04
4877.00,1.05
4876.00,1.05
4875.00,1.05
4874.00,1.05
4873.00,1.05
4872.00,1.05
4871.00,1.05
4870.00,1.05
4869.00,1.05
4868.00,1.05
4867.00,1.06
4866.00,1.06
4865.00,1.06
4864.00,1.06
4863.00,1.06
4862.00,1.06
4861.00,1.06
4860.00,1.06
4859.00,1.06
4858.00,1.06
4857.00,1.06
4856.00,1.06
4855.00,1.06
4854.00,1.07
4853.00,1.07
4852.00,1.07
4851.00,1.07
4850.00,1.07
4849.00,1.07
4848.00,1.07
4847.00,1.07
4846.00,1.07
4845.00,1.07
4844.00,1.07
4843.00,1.07
4842.00,1.07
4841.00,1.08
4840.00,1.08
4839.00,1.08
4838.00,1.08
4837.00,1.08
4836.00,1.08
4835.00,1.08
4834.00,1.08
4833.00,1.09
4832.00,1.09
4831.00,1.09
4830.00,1.09
4829.00,1.09
4828.00,1.09
4827.00,1.10
4826.00,1.10
4825.00,1.10
4824.00,1.10
4823.00,1.10
4822.00,1.10
4821.00,1.11
4820.00,1.11
4819.00,1.11
4818.00,1.11
4817.00,1.11
4816.00,1.12
4815.00,1.12
4814.00,1.12
4813.00,1.12
4812.00,1.13
4811.00,1.13
4810.00,1.13
4809.00,1.13
4808.00,1.14
4807.00,1.14
4806.00,1.14
4805.00,1.14
4804.00,1.15
4803.00,1.15
4802.00,1.15
4801.00,1.15
4800.00,1.16
4799.00,1.16
4798.00,1.16
4797.00,1.16
4796.00,1.16
4795.00,1.17
4794.00,1.17
4793.00,1.17
4792.00,1.17
4791.00,1.17
4790.00,1.18
4789.00,1.18
4788.00,1.18
4787.00,1.18
4786.00,1.19
4785.00,1.19
4784.00,1.19
4783.00,1.20
4782.00,1.20
4781.00,1.20
4780.00,1.21
4779.00,1.21
4778.00,1.22
4777.00,1.22
4776.00,1.22
4775.00,1.23
4774.00,1.23
4773.00,1.24
4772.00,1.24
4771.00,1.24
4770.00,1.25
4769.00,1.25
4768.00,1.25
4767.00,1.25
4766.00,1.26
4765.00,1.26
4764.00,1.26
4763.00,1.26
4762.00,1.27
4761.00,1.27
4760.00,1.27
4759.00,1.27
4758.00,1.28
4757.00,1.28
4756.00,1.28
4755.00,1.29
4754.00,1.29
4753.00,1.29
4752.00,1.29
4751.00,1.30
4750.00,1.30
4749.00,1.30
4748.00,1.30
4747.00,1.31
4746.00,1.31
4745.00,1.31
4744.00,1.31
4743.00,1.32
4742.00,1.32
4741.00,1.32
4740.00,1.32
4739.00,1.33
4738.00,1.33
4737.00,1.33
4736.00,1.34
4735.00,1.34
4734.00,1.34
4733.00,1.35
4732.00,1.35
4731.00,1.35
4730.00,1.36
4729.00,1.36
4728.00,1.37
4727.00,1.37
4726.00,1.37
4725.00,1.38
4724.00,1.38
4723.00,1.38
4722.00,1.39
4721.00,1.39
4720.00,1.40
4719.00,1.40
4718.00,1.40
4717.00,1.41
4716.00,1.41
4715.00,1.41
4714.00,1.42
4713.00,1.42
4712.00,1.42
4711.00,1.43
4710.00,1.43
4709.00,1.43
4708.00,1.44
4707.00,1.44
4706.00,1.44
4705.00,1.45
4704.00,1.45
4703.00,1.45
4702.00,1.46
4701.00,1.46
4700.00,1.46
4699.00,1.46
4698.00,1.47
4697.00,1.47
4696.00,1.47
4695.00,1.47
4694.00,1.48
4693.00,1.48
4692.00,1.48
4691.00,1.48
4690.00,1.49
4689.00,1.49
4688.00,1.49
4687.00,1.50
4686.00,1.50
4685.00,1.50
4684.00,1.51
4683.00,1.51
4682.00,1.51
4681.00,1.52
4680.00,1.52
4679.00,1.52
4678.00,1.53
4677.00,1.53
4676.00,1.54
4675.00,1.54
4674.00,1.54
4673.00,1.55
4672.00,1.55
4671.00,1.55
4670.00,1.55
4669.00,1.56
4668.00,1.56
4667.00,1.56
4666.00,1.56
4665.00,1.57
4664.00,1.57
4663.00,1.57
4662.00,1.57
4661.00,1.57
4660.00,1.58
4659.00,1.58
4658.00,1.58
4657.00,1.58
4656.00,1.58
4655.00,1.58
4654.00,1.59
4653.00,1.59
4652.00,1.59
4651.00,1.59
4650.00,1.59
4649.00,1.60
4648.00,1.60
4647.00,1.60
4646.00,1.60
4645.00,1.61
4644.00,1.61
4643.00,1.61
4642.00,1.61
4641.00,1.61
4640.00,1.62
4639.00,1.62
4638.00,1.62
4637.00,1.62
4636.00,1.62
4635.00,1.63
4634.00,1.63
4633.00,1.63
4632.00,1.63
4631.00,1.63
4630.00,1.63
4629.00,1.63
4628.00,1.63
4627.00,1.64
4626.00,1.64
4625.00,1.64
4624.00,1.64
4623.00,1.64
4622.00,1.64
4621.00,1.64
4620.00,1.64
4619.00,1.64
4618.00,1.64
4617.00,1.65
4616.00,1.65
4615.00,1.65
4614.00,1.65
4613.00,1.65
4612.00,1.65
4611.00,1.65
4610.00,1.65
4609.00,1.65
4608.00,1.65
4607.00,1.65
4606.00,1.66
4605.00,1.66
4604.00,1.66
4603.00,1.66
4602.00,1.66
4601.00,1.66
4600.00,1.66
4599.00,1.66
4598.00,1.66
4597.00,1.67
4596.00,1.67
4595.00,1.67
4594.00,1.67
4593.00,1.67
4592.00,1.67
4591.00,1.67
4590.00,1.68
4589.00,1.68
4588.00,1.68
4587.00,1.68
4586.00,1.68
4585.00,1.68
4584.00,1.69
4583.00,1.69
4582.00,1.69
4581.00,1.69
4580.00,1.69
4579.00,1.69
4578.00,1.70
4577.00,1.70
4576.00,1.70
4575.00,1.70
4574.00,1.70
4573.00,1.70
4572.00,1.70
4571.00,1.71
4570.00,1.71
4569.00,1.71
4568.00,1.71
4567.00,1.71
4566.00,1.71
4565.00,1.71
4564.00,1.71
4563.00,1.71
4562.00,1.72
4561.00,1.72
4560.00,1.72
4559.00,1.72
4558.00,1.72
4557.00,1.72
4556.00,1.72
4555.00,1.72
4554.00,1.72
4553.00,1.73
4552.00,1.73
4551.00,1.73
4550.00,1.73
4549.00,1.73
4548.00,1.73
4547.00,1.73
4546.00,1.74
4545.00,1.74
4544.00,1.74
4543.00,1.74
4542.00,1.74
4541.00,1.74
4540.00,1.74
4539.00,1.74
4538.00,1.75
4537.00,1.75
4536.00,1.75
4535.00,1.75
4534.00,1.75
4533.00,1.75
4532.00,1.75
4531.00,1.75
4530.00,1.75
4529.00,1.75
4528.00,1.75
4527.00,1.75
4526.00,1.75
4525.00,1.75
4524.00,1.75
4523.00,1.75
4522.00,1.75
4521.00,1.75
4520.00,1.75
4519.00,1.75
4518.00,1.75
4517.00,1.75
4516.00,1.75
4515.00,1.75
4514.00,1.75
4513.00,1.75
4512.00,1.75
4511.00,1.75
4510.00,1.75
4509.00,1.75
4508.00,1.75
4507.00,1.75
4506.00,1.75
4505.00,1.75
4504.00,1.75
4503.00,1.75
4502.00,1.75
4501.00,1.75
4500.00,1.75
4499.00,1.75
4498.00,1.74
4497.00,1.74
4496.00,1.74
4495.00,1.74
4494.00,1.74
4493.00,1.74
4492.00,1.74
4491.00,1.74
4490.00,1.74
4489.00,1.74
4488.00,1.74
4487.00,1.74
4486.00,1.73
4485.00,1.73
4484.00,1.73
4483.00,1.73
4482.00,1.73
4481.00,1.72
4480.00,1.72
4479.00,1.72
4478.00,1.72
4477.00,1.71
4476.00,1.71
4475.00,1.71
4474.00,1.70
4473.00,1.70
4472.00,1.70
4471.00,1.69
4470.00,1.69
4469.00,1.68
4468.00,1.68
4467.00,1.67
4466.00,1.67
4465.00,1.66
4464.00,1.65
4463.00,1.65
4462.00,1.64
4461.00,1.63
4460.00,1.63
4459.00,1.62
4458.00,1.61
4457.00,1.60
4456.00,1.60
4455.00,1.59
4454.00,1.58
4453.00,1.57
4452.00,1.56
4451.00,1.55
4450.00,1.54
4449.00,1.53
4448.00,1.52
4447.00,1.50
4446.00,1.49
4445.00,1.48
4444.00,1.47
4443.00,1.45
4442.00,1.44
4441.00,1.43
4440.00,1.41
4439.00,1.40
4438.00,1.38
4437.00,1.37
4436.00,1.35
4435.00,1.34
4434.00,1.32
4433.00,1.31
4432.00,1.30
4431.00,1.28
4430.00,1.27
4429.00,1.26
4428.00,1.24
4427.00,1.23
4426.00,1.22
4425.00,1.21
4424.00,1.20
4423.00,1.19
4422.00,1.18
4421.00,1.17
4420.00,1.17
4419.00,1.16
4418.00,1.16
4417.00,1.15
4416.00,1.15
4415.00,1.14
4414.00,1.14
4413.00,1.14
4412.00,1.14
4411.00,1.14
4410.00,1.14
4409.00,1.14
4408.00,1.14
4407.00,1.14
4406.00,1.14
4405.00,1.14
4404.00,1.14
4403.00,1.14
4402.00,1.14
4401.00,1.14
4400.00,1.15
4399.00,1.15
4398.00,1.15
4397.00,1.16
4396.00,1.16
4395.00,1.16
4394.00,1.17
4393.00,1.17
4392.00,1.18
4391.00,1.18
4390.00,1.19
4389.00,1.19
4388.00,1.20
4387.00,1.20
4386.00,1.21
4385.00,1.22
4384.00,1.22
4383.00,1.23
4382.00,1.23
4381.00,1.24
4380.00,1.24
4379.00,1.25
4378.00,1.25
4377.00,1.26
4376.00,1.26
4375.00,1.26
4374.00,1.27
4373.00,1.27
4372.00,1.27
4371.00,1.28
4370.00,1.28
4369.00,1.28
4368.00,1.28
4367.00,1.28
4366.00,1.28
4365.00,1.28
4364.00,1.28
4363.00,1.27
4362.00,1.27
4361.00,1.27
4360.00,1.27
4359.00,1.26
4358.00,1.26
4357.00,1.26
4356.00,1.25
4355.00,1.25
4354.00,1.24
4353.00,1.24
4352.00,1.23
4351.00,1.23
4350.00,1.23
4349.00,1.22
4348.00,1.22
4347.00,1.21
4346.00,1.21
4345.00,1.21
4344.00,1.21
4343.00,1.20
4342.00,1.20
4341.00,1.20
4340.00,1.20
4339.00,1.20
4338.00,1.20
4337.00,1.20
4336.00,1.20
4335.00,1.21
4334.00,1.21
4333.00,1.21
4332.00,1.22
4331.00,1.22
4330.00,1.23
4329.00,1.23
4328.00,1.24
4327.00,1.25
4326.00,1.25
4325.00,1.26
4324.00,1.27
4323.00,1.27
4322.00,1.28
4321.00,1.29
4320.00,1.29
4319.00,1.30
4318.00,1.31
4317.00,1.32
4316.00,1.33
4315.00,1.33
4314.00,1.34
4313.00,1.35
4312.00,1.36
4311.00,1.37
4310.00,1.37
4309.00,1.38
4308.00,1.39
4307.00,1.40
4306.00,1.41
4305.00,1.41
4304.00,1.42
4303.00,1.43
4302.00,1.44
4301.00,1.44
4300.00,1.45
4299.00,1.46
4298.00,1.46
4297.00,1.47
4296.00,1.48
4295.00,1.48
4294.00,1.49
4293.00,1.49
4292.00,1.50
4291.00,1.50
4290.00,1.51
4289.00,1.51
4288.00,1.51
4287.00,1.52
4286.00,1.52
4285.00,1.52
4284.00,1.53
4283.00,1.53
4282.00,1.53
4281.00,1.53
4280.00,1.53
4279.00,1.53
4278.00,1.53
4277.00,1.53
4276.00,1.53
4275.00,1.53
4274.00,1.53
4273.00,1.53
4272.00,1.53
4271.00,1.53
4270.00,1.52
4269.00,1.52
4268.00,1.52
4267.00,1.51
4266.00,1.51
4265.00,1.51
4264.00,1.50
4263.00,1.50
4262.00,1.50
4261.00,1.49
4260.00,1.49
4259.00,1.49
4258.00,1.48
4257.00,1.48
4256.00,1.48
4255.00,1.48
4254.00,1.47
4253.00,1.47
4252.00,1.47
4251.00,1.47
4250.00,1.47
4249.00,1.48
4248.00,1.48
4247.00,1.48
4246.00,1.49
4245.00,1.49
4244.00,1.50
4243.00,1.50
4242.00,1.51
4241.00,1.52
4240.00,1.52
4239.00,1.53
4238.00,1.54
4237.00,1.55
4236.00,1.56
4235.00,1.57
4234.00,1.58
4233.00,1.59
4232.00,1.60
4231.00,1.60
4230.00,1.61
4229.00,1.62
4228.00,1.62
4227.00,1.63
4226.00,1.63
4225.00,1.64
4224.00,1.64
4223.00,1.64
4222.00,1.65
4221.00,1.65
4220.00,1.65
4219.00,1.65
4218.00,1.65
4217.00,1.65
4216.00,1.65
4215.00,1.65
4214.00,1.65
4213.00,1.65
4212.00,1.65
4211.00,1.65
4210.00,1.65
4209.00,1.65
4208.00,1.66
4207.00,1.66
4206.00,1.66
4205.00,1.66
4204.00,1.66
4203.00,1.67
4202.00,1.67
4201.00,1.67
4200.00,1.67
4199.00,1.68
4198.00,1.68
4197.00,1.68
4196.00,1.68
4195.00,1.68
4194.00,1.68
4193.00,1.68
4192.00,1.68
4191.00,1.68
4190.00,1.68
4189.00,1.68
4188.00,1.68
4187.00,1.68
4186.00,1.67
4185.00,1.67
4184.00,1.67
4183.00,1.67
4182.00,1.66
4181.00,1.66
4180.00,1.66
4179.00,1.66
4178.00,1.66
4177.00,1.66
4176.00,1.66
4175.00,1.66
4174.00,1.65
4173.00,1.65
4172.00,1.65
4171.00,1.65
4170.00,1.65
4169.00,1.65
4168.00,1.65
4167.00,1.65
4166.00,1.65
4165.00,1.65
4164.00,1.65
4163.00,1.65
4162.00,1.65
4161.00,1.65
4160.00,1.65
4159.00,1.65
4158.00,1.65
4157.00,1.65
4156.00,1.65
4155.00,1.65
4154.00,1.65
4153.00,1.65
4152.00,1.65
4151.00,1.65
4150.00,1.65
4149.00,1.65
4148.00,1.65
4147.00,1.65
4146.00,1.65
4145.00,1.65
4144.00,1.65
4143.00,1.65
4142.00,1.65
4141.00,1.65
4140.00,1.65
4139.00,1.65
4138.00,1.65
4137.00,1.65
4136.00,1.65
4135.00,1.65
4134.00,1.65
4133.00,1.65
4132.00,1.65
4131.00,1.66
4130.00,1.66
4129.00,1.66
4128.00,1.66
4127.00,1.66
4126.00,1.66
4125.00,1.66
4124.00,1.66
4123.00,1.67
4122.00,1.67
4121.00,1.67
4120.00,1.67
4119.00,1.67
4118.00,1.67
4117.00,1.67
4116.00,1.67
4115.00,1.67
4114.00,1.67
4113.00,1.66
4112.00,1.66
4111.00,1.66
4110.00,1.66
4109.00,1.66
4108.00,1.66
4107.00,1.66
4106.00,1.66
4105.00,1.66
4104.00,1.65
4103.00,1.65
4102.00,1.65
4101.00,1.65
4100.00,1.65
4099.00,1.65
4098.00,1.65
4097.00,1.65
4096.00,1.64
4095.00,1.64
4094.00,1.64
4093.00,1.64
4092.00,1.64
4091.00,1.64
4090.00,1.64
4089.00,1.64
4088.00,1.64
4087.00,1.64
4086.00,1.64
4085.00,1.64
4084.00,1.64
4083.00,1.64
4082.00,1.64
4081.00,1.64
4080.00,1.64
4079.00,1.64
4078.00,1.63
4077.00,1.63
4076.00,1.63
4075.00,1.63
4074.00,1.63
4073.00,1.62
4072.00,1.62
4071.00,1.62
4070.00,1.61
4069.00,1.61
4068.00,1.61
4067.00,1.61
4066.00,1.61
4065.00,1.61
4064.00,1.61
4063.00,1.61
4062.00,1.62
4061.00,1.62
4060.00,1.62
4059.00,1.63
4058.00,1.63
4057.00,1.64
4056.00,1.65
4055.00,1.65
4054.00,1.66
4053.00,1.66
4052.00,1.66
4051.00,1.67
4050.00,1.67
4049.00,1.67
4048.00,1.68
4047.00,1.68
4046.00,1.68
4045.00,1.68
4044.00,1.68
4043.00,1.68
4042.00,1.68
4041.00,1.68
4040.00,1.68
4039.00,1.67
4038.00,1.67
4037.00,1.67
4036.00,1.67
4035.00,1.67
4034.00,1.67
4033.00,1.66
4032.00,1.66
4031.00,1.66
4030.00,1.66
4029.00,1.66
4028.00,1.66
4027.00,1.66
4026.00,1.66
4025.00,1.66
4024.00,1.66
4023.00,1.66
4022.00,1.66
4021.00,1.66
4020.00,1.66
4019.00,1.67
4018.00,1.67
4017.00,1.67
4016.00,1.67
4015.00,1.68
4014.00,1.68
4013.00,1.68
4012.00,1.69
4011.00,1.69
4010.00,1.70
4009.00,1.70
4008.00,1.71
4007.00,1.71
4006.00,1.72
4005.00,1.72
4004.00,1.73
4003.00,1.74
4002.00,1.75
4001.00,1.75
4000.00,1.76
