创建为新数据集,样品 079 用户 Administrator 日期 星期日, 十一月 05 2017
cm-1,%T
10000.00,1.81
9999.00,1.81
9998.00,1.80
9997.00,1.80
9996.00,1.80
9995.00,1.80
9994.00,1.80
9993.00,1.79
9992.00,1.79
9991.00,1.79
9990.00,1.79
9989.00,1.79
9988.00,1.79
9987.00,1.79
9986.00,1.79
9985.00,1.79
9984.00,1.79
9983.00,1.79
9982.00,1.79
9981.00,1.79
9980.00,1.79
9979.00,1.79
9978.00,1.79
9977.00,1.79
9976.00,1.80
9975.00,1.80
9974.00,1.80
9973.00,1.80
9972.00,1.80
9971.00,1.80
9970.00,1.80
9969.00,1.81
9968.00,1.81
9967.00,1.81
9966.00,1.81
9965.00,1.81
9964.00,1.81
9963.00,1.81
9962.00,1.81
9961.00,1.80
9960.00,1.80
9959.00,1.80
9958.00,1.80
9957.00,1.80
9956.00,1.80
9955.00,1.80
9954.00,1.80
9953.00,1.80
9952.00,1.80
9951.00,1.80
9950.00,1.80
9949.00,1.80
9948.00,1.80
9947.00,1.80
9946.00,1.80
9945.00,1.80
9944.00,1.80
9943.00,1.80
9942.00,1.80
9941.00,1.80
9940.00,1.80
9939.00,1.80
9938.00,1.80
9937.00,1.80
9936.00,1.80
9935.00,1.80
9934.00,1.80
9933.00,1.79
9932.00,1.79
9931.00,1.79
9930.00,1.79
9929.00,1.79
9928.00,1.79
9927.00,1.79
9926.00,1.79
9925.00,1.79
9924.00,1.79
9923.00,1.79
9922.00,1.79
9921.00,1.79
9920.00,1.79
9919.00,1.79
9918.00,1.79
9917.00,1.79
9916.00,1.79
9915.00,1.79
9914.00,1.79
9913.00,1.80
9912.00,1.80
9911.00,1.80
9910.00,1.80
9909.00,1.80
9908.00,1.80
9907.00,1.80
9906.00,1.80
9905.00,1.80
9904.00,1.80
9903.00,1.80
9902.00,1.79
9901.00,1.79
9900.00,1.79
9899.00,1.79
9898.00,1.79
9897.00,1.79
9896.00,1.79
9895.00,1.79
9894.00,1.79
9893.00,1.79
9892.00,1.79
9891.00,1.79
9890.00,1.79
9889.00,1.79
9888.00,1.79
9887.00,1.79
9886.00,1.79
9885.00,1.79
9884.00,1.79
9883.00,1.79
9882.00,1.79
9881.00,1.79
9880.00,1.79
9879.00,1.79
9878.00,1.79
9877.00,1.79
9876.00,1.79
9875.00,1.79
9874.00,1.79
9873.00,1.79
9872.00,1.79
9871.00,1.79
9870.00,1.79
9869.00,1.79
9868.00,1.79
9867.00,1.79
9866.00,1.78
9865.00,1.78
9864.00,1.78
9863.00,1.78
9862.00,1.78
9861.00,1.78
9860.00,1.78
9859.00,1.78
9858.00,1.78
9857.00,1.78
9856.00,1.78
9855.00,1.77
9854.00,1.77
9853.00,1.77
9852.00,1.77
9851.00,1.77
9850.00,1.77
9849.00,1.77
9848.00,1.76
9847.00,1.76
9846.00,1.76
9845.00,1.76
9844.00,1.76
9843.00,1.76
9842.00,1.76
9841.00,1.76
9840.00,1.76
9839.00,1.76
9838.00,1.76
9837.00,1.76
9836.00,1.76
9835.00,1.76
9834.00,1.76
9833.00,1.76
9832.00,1.76
9831.00,1.76
9830.00,1.76
9829.00,1.77
9828.00,1.77
9827.00,1.77
9826.00,1.77
9825.00,1.77
9824.00,1.77
9823.00,1.78
9822.00,1.78
9821.00,1.78
9820.00,1.78
9819.00,1.78
9818.00,1.78
9817.00,1.78
9816.00,1.79
9815.00,1.79
9814.00,1.79
9813.00,1.79
9812.00,1.79
9811.00,1.80
9810.00,1.80
9809.00,1.80
9808.00,1.80
9807.00,1.80
9806.00,1.80
9805.00,1.80
9804.00,1.80
9803.00,1.81
9802.00,1.81
9801.00,1.81
9800.00,1.81
9799.00,1.81
9798.00,1.81
9797.00,1.80
9796.00,1.80
9795.00,1.80
9794.00,1.80
9793.00,1.80
9792.00,1.80
9791.00,1.80
9790.00,1.80
9789.00,1.80
9788.00,1.80
9787.00,1.80
9786.00,1.80
9785.00,1.80
9784.00,1.80
9783.00,1.80
9782.00,1.81
9781.00,1.81
9780.00,1.81
9779.00,1.81
9778.00,1.81
9777.00,1.80
9776.00,1.80
9775.00,1.80
9774.00,1.80
9773.00,1.80
9772.00,1.80
9771.00,1.79
9770.00,1.79
9769.00,1.79
9768.00,1.78
9767.00,1.78
9766.00,1.78
9765.00,1.78
9764.00,1.77
9763.00,1.77
9762.00,1.77
9761.00,1.77
9760.00,1.76
9759.00,1.76
9758.00,1.76
9757.00,1.76
9756.00,1.76
9755.00,1.76
9754.00,1.75
9753.00,1.75
9752.00,1.75
9751.00,1.75
9750.00,1.75
9749.00,1.75
9748.00,1.75
9747.00,1.75
9746.00,1.76
9745.00,1.76
9744.00,1.76
9743.00,1.76
9742.00,1.76
9741.00,1.76
9740.00,1.76
9739.00,1.77
9738.00,1.77
9737.00,1.77
9736.00,1.77
9735.00,1.77
9734.00,1.77
9733.00,1.77
9732.00,1.77
9731.00,1.77
9730.00,1.77
9729.00,1.76
9728.00,1.76
9727.00,1.76
9726.00,1.76
9725.00,1.76
9724.00,1.76
9723.00,1.76
9722.00,1.76
9721.00,1.76
9720.00,1.76
9719.00,1.76
9718.00,1.76
9717.00,1.76
9716.00,1.76
9715.00,1.76
9714.00,1.76
9713.00,1.75
9712.00,1.75
9711.00,1.75
9710.00,1.75
9709.00,1.75
9708.00,1.75
9707.00,1.75
9706.00,1.75
9705.00,1.75
9704.00,1.75
9703.00,1.74
9702.00,1.74
9701.00,1.74
9700.00,1.74
9699.00,1.74
9698.00,1.74
9697.00,1.74
9696.00,1.74
9695.00,1.74
9694.00,1.74
9693.00,1.74
9692.00,1.74
9691.00,1.73
9690.00,1.73
9689.00,1.74
9688.00,1.74
9687.00,1.74
9686.00,1.74
9685.00,1.74
9684.00,1.74
9683.00,1.75
9682.00,1.75
9681.00,1.75
9680.00,1.76
9679.00,1.76
9678.00,1.77
9677.00,1.77
9676.00,1.77
9675.00,1.78
9674.00,1.78
9673.00,1.78
9672.00,1.79
9671.00,1.79
9670.00,1.79
9669.00,1.79
9668.00,1.79
9667.00,1.79
9666.00,1.79
9665.00,1.79
9664.00,1.79
9663.00,1.79
9662.00,1.79
9661.00,1.79
9660.00,1.79
9659.00,1.79
9658.00,1.78
9657.00,1.78
9656.00,1.78
9655.00,1.78
9654.00,1.78
9653.00,1.78
9652.00,1.78
9651.00,1.78
9650.00,1.78
9649.00,1.79
9648.00,1.79
9647.00,1.79
9646.00,1.79
9645.00,1.79
9644.00,1.79
9643.00,1.80
9642.00,1.80
9641.00,1.80
9640.00,1.80
9639.00,1.80
9638.00,1.79
9637.00,1.79
9636.00,1.79
9635.00,1.79
9634.00,1.79
9633.00,1.78
9632.00,1.78
9631.00,1.78
9630.00,1.78
9629.00,1.77
9628.00,1.77
9627.00,1.77
9626.00,1.77
9625.00,1.77
9624.00,1.77
9623.00,1.76
9622.00,1.76
9621.00,1.76
9620.00,1.76
9619.00,1.76
9618.00,1.76
9617.00,1.76
9616.00,1.76
9615.00,1.76
9614.00,1.75
9613.00,1.75
9612.00,1.75
9611.00,1.75
9610.00,1.75
9609.00,1.75
9608.00,1.75
9607.00,1.75
9606.00,1.75
9605.00,1.75
9604.00,1.76
9603.00,1.76
9602.00,1.76
9601.00,1.76
9600.00,1.76
9599.00,1.77
9598.00,1.77
9597.00,1.77
9596.00,1.77
9595.00,1.78
9594.00,1.78
9593.00,1.78
9592.00,1.78
9591.00,1.79
9590.00,1.79
9589.00,1.79
9588.00,1.79
9587.00,1.80
9586.00,1.80
9585.00,1.80
9584.00,1.80
9583.00,1.80
9582.00,1.80
9581.00,1.80
9580.00,1.81
9579.00,1.81
9578.00,1.81
9577.00,1.80
9576.00,1.80
9575.00,1.80
9574.00,1.80
9573.00,1.80
9572.00,1.80
9571.00,1.79
9570.00,1.79
9569.00,1.79
9568.00,1.79
9567.00,1.78
9566.00,1.78
9565.00,1.78
9564.00,1.78
9563.00,1.78
9562.00,1.78
9561.00,1.77
9560.00,1.77
9559.00,1.77
9558.00,1.77
9557.00,1.77
9556.00,1.77
9555.00,1.77
9554.00,1.78
9553.00,1.78
9552.00,1.78
9551.00,1.78
9550.00,1.78
9549.00,1.78
9548.00,1.78
9547.00,1.78
9546.00,1.78
9545.00,1.78
9544.00,1.78
9543.00,1.78
9542.00,1.78
9541.00,1.78
9540.00,1.78
9539.00,1.78
9538.00,1.78
9537.00,1.78
9536.00,1.78
9535.00,1.78
9534.00,1.78
9533.00,1.78
9532.00,1.78
9531.00,1.78
9530.00,1.79
9529.00,1.79
9528.00,1.79
9527.00,1.79
9526.00,1.79
9525.00,1.79
9524.00,1.79
9523.00,1.79
9522.00,1.79
9521.00,1.79
9520.00,1.79
9519.00,1.79
9518.00,1.79
9517.00,1.79
9516.00,1.79
9515.00,1.80
9514.00,1.80
9513.00,1.80
9512.00,1.80
9511.00,1.80
9510.00,1.80
9509.00,1.80
9508.00,1.80
9507.00,1.80
9506.00,1.80
9505.00,1.80
9504.00,1.80
9503.00,1.80
9502.00,1.80
9501.00,1.80
9500.00,1.80
9499.00,1.80
9498.00,1.80
9497.00,1.80
9496.00,1.80
9495.00,1.80
9494.00,1.80
9493.00,1.80
9492.00,1.80
9491.00,1.80
9490.00,1.80
9489.00,1.80
9488.00,1.80
9487.00,1.80
9486.00,1.80
9485.00,1.80
9484.00,1.80
9483.00,1.80
9482.00,1.80
9481.00,1.80
9480.00,1.80
9479.00,1.80
9478.00,1.80
9477.00,1.80
9476.00,1.80
9475.00,1.80
9474.00,1.80
9473.00,1.80
9472.00,1.80
9471.00,1.79
9470.00,1.79
9469.00,1.79
9468.00,1.79
9467.00,1.79
9466.00,1.79
9465.00,1.79
9464.00,1.78
9463.00,1.78
9462.00,1.78
9461.00,1.78
9460.00,1.78
9459.00,1.78
9458.00,1.78
9457.00,1.78
9456.00,1.78
9455.00,1.78
9454.00,1.78
9453.00,1.78
9452.00,1.78
9451.00,1.78
9450.00,1.78
9449.00,1.78
9448.00,1.78
9447.00,1.78
9446.00,1.78
9445.00,1.78
9444.00,1.78
9443.00,1.78
9442.00,1.78
9441.00,1.78
9440.00,1.78
9439.00,1.78
9438.00,1.78
9437.00,1.78
9436.00,1.78
9435.00,1.78
9434.00,1.78
9433.00,1.78
9432.00,1.78
9431.00,1.78
9430.00,1.78
9429.00,1.78
9428.00,1.78
9427.00,1.78
9426.00,1.78
9425.00,1.78
9424.00,1.78
9423.00,1.77
9422.00,1.77
9421.00,1.77
9420.00,1.77
9419.00,1.77
9418.00,1.76
9417.00,1.76
9416.00,1.76
9415.00,1.76
9414.00,1.76
9413.00,1.76
9412.00,1.76
9411.00,1.76
9410.00,1.76
9409.00,1.76
9408.00,1.76
9407.00,1.76
9406.00,1.76
9405.00,1.75
9404.00,1.75
9403.00,1.75
9402.00,1.75
9401.00,1.75
9400.00,1.75
9399.00,1.75
9398.00,1.75
9397.00,1.75
9396.00,1.75
9395.00,1.75
9394.00,1.75
9393.00,1.75
9392.00,1.75
9391.00,1.75
9390.00,1.75
9389.00,1.75
9388.00,1.75
9387.00,1.75
9386.00,1.76
9385.00,1.75
9384.00,1.75
9383.00,1.75
9382.00,1.75
9381.00,1.75
9380.00,1.75
9379.00,1.75
9378.00,1.75
9377.00,1.74
9376.00,1.74
9375.00,1.74
9374.00,1.74
9373.00,1.74
9372.00,1.74
9371.00,1.74
9370.00,1.74
9369.00,1.74
9368.00,1.74
9367.00,1.74
9366.00,1.75
9365.00,1.75
9364.00,1.75
9363.00,1.76
9362.00,1.76
9361.00,1.76
9360.00,1.76
9359.00,1.77
9358.00,1.77
9357.00,1.77
9356.00,1.77
9355.00,1.78
9354.00,1.78
9353.00,1.78
9352.00,1.78
9351.00,1.78
9350.00,1.78
9349.00,1.78
9348.00,1.78
9347.00,1.77
9346.00,1.77
9345.00,1.77
9344.00,1.77
9343.00,1.77
9342.00,1.77
9341.00,1.77
9340.00,1.77
9339.00,1.77
9338.00,1.77
9337.00,1.77
9336.00,1.77
9335.00,1.77
9334.00,1.77
9333.00,1.77
9332.00,1.77
9331.00,1.77
9330.00,1.77
9329.00,1.77
9328.00,1.77
9327.00,1.77
9326.00,1.77
9325.00,1.77
9324.00,1.77
9323.00,1.77
9322.00,1.77
9321.00,1.77
9320.00,1.77
9319.00,1.77
9318.00,1.77
9317.00,1.77
9316.00,1.77
9315.00,1.77
9314.00,1.77
9313.00,1.77
9312.00,1.77
9311.00,1.77
9310.00,1.77
9309.00,1.77
9308.00,1.77
9307.00,1.77
9306.00,1.77
9305.00,1.77
9304.00,1.77
9303.00,1.77
9302.00,1.77
9301.00,1.77
9300.00,1.77
9299.00,1.77
9298.00,1.77
9297.00,1.77
9296.00,1.77
9295.00,1.77
9294.00,1.77
9293.00,1.77
9292.00,1.77
9291.00,1.77
9290.00,1.77
9289.00,1.77
9288.00,1.77
9287.00,1.77
9286.00,1.77
9285.00,1.77
9284.00,1.77
9283.00,1.77
9282.00,1.77
9281.00,1.77
9280.00,1.77
9279.00,1.77
9278.00,1.76
9277.00,1.76
9276.00,1.76
9275.00,1.77
9274.00,1.77
9273.00,1.77
9272.00,1.77
9271.00,1.77
9270.00,1.77
9269.00,1.77
9268.00,1.77
9267.00,1.77
9266.00,1.77
9265.00,1.77
9264.00,1.77
9263.00,1.77
9262.00,1.76
9261.00,1.76
9260.00,1.76
9259.00,1.76
9258.00,1.76
9257.00,1.77
9256.00,1.77
9255.00,1.77
9254.00,1.77
9253.00,1.77
9252.00,1.77
9251.00,1.77
9250.00,1.77
9249.00,1.77
9248.00,1.77
9247.00,1.77
9246.00,1.77
9245.00,1.77
9244.00,1.77
9243.00,1.77
9242.00,1.77
9241.00,1.77
9240.00,1.77
9239.00,1.77
9238.00,1.77
9237.00,1.77
9236.00,1.76
9235.00,1.76
9234.00,1.76
9233.00,1.76
9232.00,1.76
9231.00,1.76
9230.00,1.76
9229.00,1.76
9228.00,1.77
9227.00,1.77
9226.00,1.77
9225.00,1.77
9224.00,1.77
9223.00,1.77
9222.00,1.77
9221.00,1.77
9220.00,1.77
9219.00,1.77
9218.00,1.78
9217.00,1.78
9216.00,1.77
9215.00,1.77
9214.00,1.77
9213.00,1.77
9212.00,1.77
9211.00,1.77
9210.00,1.77
9209.00,1.77
9208.00,1.76
9207.00,1.76
9206.00,1.76
9205.00,1.76
9204.00,1.76
9203.00,1.76
9202.00,1.76
9201.00,1.76
9200.00,1.76
9199.00,1.76
9198.00,1.75
9197.00,1.75
9196.00,1.75
9195.00,1.75
9194.00,1.75
9193.00,1.75
9192.00,1.75
9191.00,1.75
9190.00,1.75
9189.00,1.75
9188.00,1.75
9187.00,1.75
9186.00,1.74
9185.00,1.74
9184.00,1.74
9183.00,1.75
9182.00,1.75
9181.00,1.75
9180.00,1.75
9179.00,1.75
9178.00,1.75
9177.00,1.75
9176.00,1.76
9175.00,1.76
9174.00,1.76
9173.00,1.76
9172.00,1.76
9171.00,1.76
9170.00,1.77
9169.00,1.77
9168.00,1.77
9167.00,1.77
9166.00,1.77
9165.00,1.77
9164.00,1.77
9163.00,1.77
9162.00,1.77
9161.00,1.77
9160.00,1.77
9159.00,1.77
9158.00,1.77
9157.00,1.77
9156.00,1.77
9155.00,1.77
9154.00,1.77
9153.00,1.77
9152.00,1.77
9151.00,1.77
9150.00,1.77
9149.00,1.77
9148.00,1.77
9147.00,1.77
9146.00,1.78
9145.00,1.78
9144.00,1.78
9143.00,1.78
9142.00,1.79
9141.00,1.79
9140.00,1.79
9139.00,1.80
9138.00,1.80
9137.00,1.80
9136.00,1.80
9135.00,1.80
9134.00,1.80
9133.00,1.80
9132.00,1.80
9131.00,1.80
9130.00,1.80
9129.00,1.80
9128.00,1.80
9127.00,1.79
9126.00,1.79
9125.00,1.79
9124.00,1.78
9123.00,1.78
9122.00,1.78
9121.00,1.77
9120.00,1.77
9119.00,1.77
9118.00,1.77
9117.00,1.77
9116.00,1.77
9115.00,1.77
9114.00,1.77
9113.00,1.77
9112.00,1.77
9111.00,1.77
9110.00,1.77
9109.00,1.77
9108.00,1.77
9107.00,1.77
9106.00,1.77
9105.00,1.77
9104.00,1.77
9103.00,1.77
9102.00,1.77
9101.00,1.77
9100.00,1.77
9099.00,1.77
9098.00,1.77
9097.00,1.77
9096.00,1.76
9095.00,1.76
9094.00,1.76
9093.00,1.76
9092.00,1.76
9091.00,1.76
9090.00,1.76
9089.00,1.75
9088.00,1.75
9087.00,1.75
9086.00,1.75
9085.00,1.75
9084.00,1.75
9083.00,1.75
9082.00,1.75
9081.00,1.75
9080.00,1.75
9079.00,1.75
9078.00,1.74
9077.00,1.74
9076.00,1.74
9075.00,1.74
9074.00,1.74
9073.00,1.74
9072.00,1.74
9071.00,1.74
9070.00,1.74
9069.00,1.74
9068.00,1.74
9067.00,1.74
9066.00,1.74
9065.00,1.74
9064.00,1.74
9063.00,1.74
9062.00,1.74
9061.00,1.74
9060.00,1.74
9059.00,1.75
9058.00,1.75
9057.00,1.75
9056.00,1.75
9055.00,1.75
9054.00,1.75
9053.00,1.75
9052.00,1.75
9051.00,1.76
9050.00,1.76
9049.00,1.76
9048.00,1.76
9047.00,1.76
9046.00,1.76
9045.00,1.76
9044.00,1.76
9043.00,1.76
9042.00,1.76
9041.00,1.76
9040.00,1.76
9039.00,1.76
9038.00,1.76
9037.00,1.76
9036.00,1.76
9035.00,1.75
9034.00,1.75
9033.00,1.75
9032.00,1.75
9031.00,1.75
9030.00,1.75
9029.00,1.75
9028.00,1.75
9027.00,1.76
9026.00,1.76
9025.00,1.76
9024.00,1.76
9023.00,1.76
9022.00,1.76
9021.00,1.76
9020.00,1.76
9019.00,1.76
9018.00,1.76
9017.00,1.76
9016.00,1.76
9015.00,1.76
9014.00,1.76
9013.00,1.76
9012.00,1.76
9011.00,1.76
9010.00,1.76
9009.00,1.76
9008.00,1.76
9007.00,1.76
9006.00,1.76
9005.00,1.76
9004.00,1.76
9003.00,1.76
9002.00,1.76
9001.00,1.76
9000.00,1.76
8999.00,1.76
8998.00,1.76
8997.00,1.76
8996.00,1.76
8995.00,1.76
8994.00,1.76
8993.00,1.76
8992.00,1.76
8991.00,1.76
8990.00,1.76
8989.00,1.76
8988.00,1.76
8987.00,1.76
8986.00,1.76
8985.00,1.76
8984.00,1.76
8983.00,1.76
8982.00,1.76
8981.00,1.75
8980.00,1.75
8979.00,1.75
8978.00,1.75
8977.00,1.75
8976.00,1.75
8975.00,1.75
8974.00,1.75
8973.00,1.75
8972.00,1.75
8971.00,1.75
8970.00,1.75
8969.00,1.75
8968.00,1.75
8967.00,1.75
8966.00,1.75
8965.00,1.75
8964.00,1.75
8963.00,1.75
8962.00,1.75
8961.00,1.76
8960.00,1.76
8959.00,1.76
8958.00,1.76
8957.00,1.76
8956.00,1.76
8955.00,1.76
8954.00,1.76
8953.00,1.76
8952.00,1.76
8951.00,1.76
8950.00,1.76
8949.00,1.76
8948.00,1.76
8947.00,1.77
8946.00,1.77
8945.00,1.77
8944.00,1.77
8943.00,1.77
8942.00,1.77
8941.00,1.78
8940.00,1.78
8939.00,1.78
8938.00,1.78
8937.00,1.78
8936.00,1.79
8935.00,1.79
8934.00,1.79
8933.00,1.79
8932.00,1.79
8931.00,1.79
8930.00,1.79
8929.00,1.79
8928.00,1.79
8927.00,1.79
8926.00,1.78
8925.00,1.78
8924.00,1.78
8923.00,1.78
8922.00,1.77
8921.00,1.77
8920.00,1.77
8919.00,1.77
8918.00,1.76
8917.00,1.76
8916.00,1.76
8915.00,1.76
8914.00,1.76
8913.00,1.75
8912.00,1.75
8911.00,1.75
8910.00,1.75
8909.00,1.75
8908.00,1.75
8907.00,1.75
8906.00,1.75
8905.00,1.75
8904.00,1.75
8903.00,1.75
8902.00,1.76
8901.00,1.76
8900.00,1.76
8899.00,1.76
8898.00,1.76
8897.00,1.76
8896.00,1.76
8895.00,1.76
8894.00,1.76
8893.00,1.76
8892.00,1.76
8891.00,1.76
8890.00,1.76
8889.00,1.76
8888.00,1.76
8887.00,1.76
8886.00,1.76
8885.00,1.76
8884.00,1.76
8883.00,1.76
8882.00,1.77
8881.00,1.77
8880.00,1.77
8879.00,1.77
8878.00,1.77
8877.00,1.77
8876.00,1.77
8875.00,1.77
8874.00,1.76
8873.00,1.76
8872.00,1.76
8871.00,1.76
8870.00,1.76
8869.00,1.76
8868.00,1.76
8867.00,1.76
8866.00,1.76
8865.00,1.76
8864.00,1.76
8863.00,1.77
8862.00,1.77
8861.00,1.77
8860.00,1.77
8859.00,1.77
8858.00,1.77
8857.00,1.77
8856.00,1.77
8855.00,1.77
8854.00,1.77
8853.00,1.77
8852.00,1.77
8851.00,1.77
8850.00,1.77
8849.00,1.77
8848.00,1.77
8847.00,1.77
8846.00,1.77
8845.00,1.77
8844.00,1.77
8843.00,1.77
8842.00,1.77
8841.00,1.77
8840.00,1.77
8839.00,1.77
8838.00,1.77
8837.00,1.77
8836.00,1.77
8835.00,1.77
8834.00,1.77
8833.00,1.77
8832.00,1.77
8831.00,1.77
8830.00,1.77
8829.00,1.77
8828.00,1.77
8827.00,1.77
8826.00,1.77
8825.00,1.77
8824.00,1.77
8823.00,1.77
8822.00,1.77
8821.00,1.77
8820.00,1.76
8819.00,1.76
8818.00,1.76
8817.00,1.76
8816.00,1.75
8815.00,1.75
8814.00,1.75
8813.00,1.75
8812.00,1.75
8811.00,1.75
8810.00,1.74
8809.00,1.74
8808.00,1.74
8807.00,1.74
8806.00,1.74
8805.00,1.74
8804.00,1.74
8803.00,1.74
8802.00,1.74
8801.00,1.75
8800.00,1.75
8799.00,1.75
8798.00,1.75
8797.00,1.75
8796.00,1.75
8795.00,1.75
8794.00,1.75
8793.00,1.75
8792.00,1.75
8791.00,1.75
8790.00,1.74
8789.00,1.74
8788.00,1.74
8787.00,1.74
8786.00,1.74
8785.00,1.74
8784.00,1.74
8783.00,1.74
8782.00,1.74
8781.00,1.74
8780.00,1.74
8779.00,1.74
8778.00,1.74
8777.00,1.74
8776.00,1.74
8775.00,1.74
8774.00,1.74
8773.00,1.74
8772.00,1.74
8771.00,1.73
8770.00,1.73
8769.00,1.73
8768.00,1.73
8767.00,1.73
8766.00,1.73
8765.00,1.73
8764.00,1.73
8763.00,1.72
8762.00,1.72
8761.00,1.72
8760.00,1.72
8759.00,1.72
8758.00,1.72
8757.00,1.72
8756.00,1.72
8755.00,1.72
8754.00,1.72
8753.00,1.72
8752.00,1.72
8751.00,1.72
8750.00,1.72
8749.00,1.72
8748.00,1.72
8747.00,1.72
8746.00,1.72
8745.00,1.72
8744.00,1.72
8743.00,1.72
8742.00,1.72
8741.00,1.72
8740.00,1.72
8739.00,1.72
8738.00,1.72
8737.00,1.72
8736.00,1.72
8735.00,1.72
8734.00,1.72
8733.00,1.72
8732.00,1.72
8731.00,1.71
8730.00,1.71
8729.00,1.71
8728.00,1.71
8727.00,1.70
8726.00,1.70
8725.00,1.70
8724.00,1.69
8723.00,1.69
8722.00,1.68
8721.00,1.68
8720.00,1.68
8719.00,1.67
8718.00,1.67
8717.00,1.67
8716.00,1.67
8715.00,1.66
8714.00,1.66
8713.00,1.66
8712.00,1.66
8711.00,1.67
8710.00,1.67
8709.00,1.67
8708.00,1.67
8707.00,1.67
8706.00,1.68
8705.00,1.68
8704.00,1.68
8703.00,1.68
8702.00,1.69
8701.00,1.69
8700.00,1.69
8699.00,1.69
8698.00,1.69
8697.00,1.70
8696.00,1.70
8695.00,1.70
8694.00,1.70
8693.00,1.70
8692.00,1.70
8691.00,1.70
8690.00,1.70
8689.00,1.70
8688.00,1.69
8687.00,1.69
8686.00,1.69
8685.00,1.69
8684.00,1.69
8683.00,1.69
8682.00,1.69
8681.00,1.69
8680.00,1.69
8679.00,1.69
8678.00,1.69
8677.00,1.69
8676.00,1.69
8675.00,1.69
8674.00,1.68
8673.00,1.68
8672.00,1.68
8671.00,1.68
8670.00,1.68
8669.00,1.68
8668.00,1.68
8667.00,1.67
8666.00,1.67
8665.00,1.67
8664.00,1.67
8663.00,1.67
8662.00,1.67
8661.00,1.67
8660.00,1.67
8659.00,1.67
8658.00,1.67
8657.00,1.67
8656.00,1.67
8655.00,1.68
8654.00,1.68
8653.00,1.68
8652.00,1.68
8651.00,1.68
8650.00,1.68
8649.00,1.68
8648.00,1.68
8647.00,1.68
8646.00,1.68
8645.00,1.68
8644.00,1.68
8643.00,1.68
8642.00,1.68
8641.00,1.68
8640.00,1.68
8639.00,1.68
8638.00,1.68
8637.00,1.68
8636.00,1.68
8635.00,1.68
8634.00,1.68
8633.00,1.68
8632.00,1.68
8631.00,1.67
8630.00,1.67
8629.00,1.67
8628.00,1.67
8627.00,1.67
8626.00,1.67
8625.00,1.67
8624.00,1.67
8623.00,1.67
8622.00,1.66
8621.00,1.66
8620.00,1.66
8619.00,1.66
8618.00,1.66
8617.00,1.66
8616.00,1.66
8615.00,1.66
8614.00,1.66
8613.00,1.66
8612.00,1.66
8611.00,1.65
8610.00,1.65
8609.00,1.65
8608.00,1.65
8607.00,1.65
8606.00,1.65
8605.00,1.66
8604.00,1.66
8603.00,1.66
8602.00,1.66
8601.00,1.66
8600.00,1.66
8599.00,1.66
8598.00,1.65
8597.00,1.65
8596.00,1.65
8595.00,1.65
8594.00,1.65
8593.00,1.65
8592.00,1.65
8591.00,1.65
8590.00,1.64
8589.00,1.64
8588.00,1.64
8587.00,1.64
8586.00,1.64
8585.00,1.64
8584.00,1.64
8583.00,1.64
8582.00,1.63
8581.00,1.63
8580.00,1.63
8579.00,1.63
8578.00,1.63
8577.00,1.63
8576.00,1.63
8575.00,1.63
8574.00,1.63
8573.00,1.63
8572.00,1.63
8571.00,1.63
8570.00,1.63
8569.00,1.63
8568.00,1.63
8567.00,1.63
8566.00,1.63
8565.00,1.63
8564.00,1.63
8563.00,1.63
8562.00,1.62
8561.00,1.62
8560.00,1.62
8559.00,1.62
8558.00,1.62
8557.00,1.62
8556.00,1.62
8555.00,1.62
8554.00,1.62
8553.00,1.62
8552.00,1.62
8551.00,1.62
8550.00,1.62
8549.00,1.62
8548.00,1.62
8547.00,1.62
8546.00,1.62
8545.00,1.62
8544.00,1.62
8543.00,1.62
8542.00,1.62
8541.00,1.62
8540.00,1.62
8539.00,1.61
8538.00,1.61
8537.00,1.61
8536.00,1.61
8535.00,1.61
8534.00,1.61
8533.00,1.60
8532.00,1.60
8531.00,1.60
8530.00,1.60
8529.00,1.60
8528.00,1.60
8527.00,1.60
8526.00,1.60
8525.00,1.60
8524.00,1.60
8523.00,1.60
8522.00,1.60
8521.00,1.60
8520.00,1.60
8519.00,1.60
8518.00,1.60
8517.00,1.60
8516.00,1.60
8515.00,1.59
8514.00,1.59
8513.00,1.59
8512.00,1.59
8511.00,1.59
8510.00,1.59
8509.00,1.59
8508.00,1.59
8507.00,1.59
8506.00,1.59
8505.00,1.58
8504.00,1.58
8503.00,1.58
8502.00,1.58
8501.00,1.58
8500.00,1.58
8499.00,1.58
8498.00,1.58
8497.00,1.58
8496.00,1.58
8495.00,1.58
8494.00,1.58
8493.00,1.58
8492.00,1.58
8491.00,1.58
8490.00,1.58
8489.00,1.58
8488.00,1.58
8487.00,1.58
8486.00,1.58
8485.00,1.58
8484.00,1.58
8483.00,1.58
8482.00,1.58
8481.00,1.58
8480.00,1.58
8479.00,1.58
8478.00,1.58
8477.00,1.58
8476.00,1.58
8475.00,1.58
8474.00,1.58
8473.00,1.57
8472.00,1.57
8471.00,1.57
8470.00,1.57
8469.00,1.57
8468.00,1.57
8467.00,1.57
8466.00,1.56
8465.00,1.56
8464.00,1.56
8463.00,1.56
8462.00,1.56
8461.00,1.56
8460.00,1.56
8459.00,1.56
8458.00,1.56
8457.00,1.56
8456.00,1.56
8455.00,1.56
8454.00,1.56
8453.00,1.56
8452.00,1.56
8451.00,1.56
8450.00,1.56
8449.00,1.56
8448.00,1.56
8447.00,1.55
8446.00,1.55
8445.00,1.55
8444.00,1.55
8443.00,1.55
8442.00,1.55
8441.00,1.55
8440.00,1.55
8439.00,1.55
8438.00,1.55
8437.00,1.54
8436.00,1.54
8435.00,1.54
8434.00,1.54
8433.00,1.54
8432.00,1.54
8431.00,1.54
8430.00,1.54
8429.00,1.53
8428.00,1.53
8427.00,1.53
8426.00,1.53
8425.00,1.53
8424.00,1.54
8423.00,1.54
8422.00,1.54
8421.00,1.54
8420.00,1.54
8419.00,1.54
8418.00,1.55
8417.00,1.55
8416.00,1.55
8415.00,1.55
8414.00,1.56
8413.00,1.56
8412.00,1.56
8411.00,1.56
8410.00,1.57
8409.00,1.57
8408.00,1.57
8407.00,1.57
8406.00,1.57
8405.00,1.57
8404.00,1.57
8403.00,1.57
8402.00,1.57
8401.00,1.57
8400.00,1.58
8399.00,1.58
8398.00,1.58
8397.00,1.58
8396.00,1.58
8395.00,1.58
8394.00,1.58
8393.00,1.58
8392.00,1.58
8391.00,1.58
8390.00,1.58
8389.00,1.58
8388.00,1.58
8387.00,1.58
8386.00,1.58
8385.00,1.58
8384.00,1.58
8383.00,1.59
8382.00,1.59
8381.00,1.59
8380.00,1.58
8379.00,1.58
8378.00,1.58
8377.00,1.58
8376.00,1.58
8375.00,1.58
8374.00,1.59
8373.00,1.59
8372.00,1.59
8371.00,1.59
8370.00,1.59
8369.00,1.59
8368.00,1.59
8367.00,1.59
8366.00,1.59
8365.00,1.59
8364.00,1.59
8363.00,1.59
8362.00,1.59
8361.00,1.60
8360.00,1.60
8359.00,1.60
8358.00,1.60
8357.00,1.60
8356.00,1.60
8355.00,1.60
8354.00,1.60
8353.00,1.60
8352.00,1.60
8351.00,1.60
8350.00,1.60
8349.00,1.60
8348.00,1.60
8347.00,1.60
8346.00,1.60
8345.00,1.60
8344.00,1.60
8343.00,1.60
8342.00,1.60
8341.00,1.60
8340.00,1.60
8339.00,1.60
8338.00,1.60
8337.00,1.60
8336.00,1.60
8335.00,1.61
8334.00,1.61
8333.00,1.61
8332.00,1.61
8331.00,1.61
8330.00,1.60
8329.00,1.60
8328.00,1.60
8327.00,1.60
8326.00,1.60
8325.00,1.60
8324.00,1.60
8323.00,1.60
8322.00,1.60
8321.00,1.60
8320.00,1.60
8319.00,1.60
8318.00,1.60
8317.00,1.60
8316.00,1.60
8315.00,1.60
8314.00,1.61
8313.00,1.61
8312.00,1.61
8311.00,1.61
8310.00,1.61
8309.00,1.61
8308.00,1.61
8307.00,1.61
8306.00,1.62
8305.00,1.62
8304.00,1.62
8303.00,1.62
8302.00,1.62
8301.00,1.62
8300.00,1.62
8299.00,1.62
8298.00,1.62
8297.00,1.63
8296.00,1.63
8295.00,1.63
8294.00,1.63
8293.00,1.63
8292.00,1.63
8291.00,1.63
8290.00,1.63
8289.00,1.63
8288.00,1.63
8287.00,1.63
8286.00,1.63
8285.00,1.63
8284.00,1.63
8283.00,1.63
8282.00,1.63
8281.00,1.63
8280.00,1.63
8279.00,1.63
8278.00,1.63
8277.00,1.63
8276.00,1.63
8275.00,1.63
8274.00,1.63
8273.00,1.63
8272.00,1.63
8271.00,1.63
8270.00,1.63
8269.00,1.63
8268.00,1.63
8267.00,1.63
8266.00,1.63
8265.00,1.63
8264.00,1.63
8263.00,1.63
8262.00,1.63
8261.00,1.63
8260.00,1.63
8259.00,1.63
8258.00,1.63
8257.00,1.63
8256.00,1.63
8255.00,1.63
8254.00,1.63
8253.00,1.63
8252.00,1.64
8251.00,1.64
8250.00,1.64
8249.00,1.64
8248.00,1.64
8247.00,1.64
8246.00,1.64
8245.00,1.64
8244.00,1.64
8243.00,1.64
8242.00,1.64
8241.00,1.64
8240.00,1.64
8239.00,1.64
8238.00,1.64
8237.00,1.64
8236.00,1.64
8235.00,1.64
8234.00,1.64
8233.00,1.64
8232.00,1.65
8231.00,1.65
8230.00,1.65
8229.00,1.65
8228.00,1.65
8227.00,1.65
8226.00,1.65
8225.00,1.65
8224.00,1.65
8223.00,1.65
8222.00,1.65
8221.00,1.65
8220.00,1.65
8219.00,1.65
8218.00,1.65
8217.00,1.65
8216.00,1.65
8215.00,1.65
8214.00,1.65
8213.00,1.65
8212.00,1.65
8211.00,1.65
8210.00,1.65
8209.00,1.65
8208.00,1.65
8207.00,1.65
8206.00,1.65
8205.00,1.65
8204.00,1.65
8203.00,1.65
8202.00,1.65
8201.00,1.65
8200.00,1.65
8199.00,1.65
8198.00,1.65
8197.00,1.65
8196.00,1.65
8195.00,1.65
8194.00,1.65
8193.00,1.65
8192.00,1.66
8191.00,1.66
8190.00,1.66
8189.00,1.66
8188.00,1.66
8187.00,1.66
8186.00,1.66
8185.00,1.67
8184.00,1.67
8183.00,1.67
8182.00,1.67
8181.00,1.67
8180.00,1.67
8179.00,1.67
8178.00,1.67
8177.00,1.67
8176.00,1.67
8175.00,1.68
8174.00,1.68
8173.00,1.68
8172.00,1.68
8171.00,1.68
8170.00,1.68
8169.00,1.68
8168.00,1.68
8167.00,1.68
8166.00,1.69
8165.00,1.69
8164.00,1.69
8163.00,1.69
8162.00,1.69
8161.00,1.69
8160.00,1.69
8159.00,1.69
8158.00,1.69
8157.00,1.69
8156.00,1.69
8155.00,1.69
8154.00,1.69
8153.00,1.69
8152.00,1.69
8151.00,1.69
8150.00,1.69
8149.00,1.69
8148.00,1.69
8147.00,1.68
8146.00,1.68
8145.00,1.68
8144.00,1.68
8143.00,1.68
8142.00,1.68
8141.00,1.68
8140.00,1.68
8139.00,1.68
8138.00,1.68
8137.00,1.68
8136.00,1.68
8135.00,1.68
8134.00,1.68
8133.00,1.68
8132.00,1.68
8131.00,1.68
8130.00,1.69
8129.00,1.69
8128.00,1.69
8127.00,1.69
8126.00,1.69
8125.00,1.69
8124.00,1.69
8123.00,1.69
8122.00,1.70
8121.00,1.70
8120.00,1.70
8119.00,1.70
8118.00,1.70
8117.00,1.70
8116.00,1.70
8115.00,1.70
8114.00,1.70
8113.00,1.70
8112.00,1.70
8111.00,1.71
8110.00,1.71
8109.00,1.71
8108.00,1.71
8107.00,1.71
8106.00,1.71
8105.00,1.71
8104.00,1.71
8103.00,1.71
8102.00,1.71
8101.00,1.71
8100.00,1.71
8099.00,1.72
8098.00,1.72
8097.00,1.72
8096.00,1.72
8095.00,1.72
8094.00,1.72
8093.00,1.72
8092.00,1.72
8091.00,1.72
8090.00,1.72
8089.00,1.72
8088.00,1.72
8087.00,1.72
8086.00,1.72
8085.00,1.72
8084.00,1.72
8083.00,1.72
8082.00,1.72
8081.00,1.72
8080.00,1.72
8079.00,1.72
8078.00,1.72
8077.00,1.72
8076.00,1.72
8075.00,1.72
8074.00,1.72
8073.00,1.72
8072.00,1.72
8071.00,1.72
8070.00,1.72
8069.00,1.72
8068.00,1.72
8067.00,1.72
8066.00,1.72
8065.00,1.72
8064.00,1.72
8063.00,1.72
8062.00,1.72
8061.00,1.72
8060.00,1.72
8059.00,1.72
8058.00,1.72
8057.00,1.72
8056.00,1.72
8055.00,1.72
8054.00,1.72
8053.00,1.72
8052.00,1.72
8051.00,1.72
8050.00,1.72
8049.00,1.72
8048.00,1.72
8047.00,1.72
8046.00,1.73
8045.00,1.73
8044.00,1.73
8043.00,1.73
8042.00,1.73
8041.00,1.73
8040.00,1.73
8039.00,1.74
8038.00,1.74
8037.00,1.74
8036.00,1.74
8035.00,1.74
8034.00,1.74
8033.00,1.75
8032.00,1.75
8031.00,1.75
8030.00,1.75
8029.00,1.75
8028.00,1.75
8027.00,1.75
8026.00,1.75
8025.00,1.75
8024.00,1.75
8023.00,1.75
8022.00,1.75
8021.00,1.75
8020.00,1.75
8019.00,1.75
8018.00,1.75
8017.00,1.75
8016.00,1.76
8015.00,1.76
8014.00,1.76
8013.00,1.76
8012.00,1.76
8011.00,1.76
8010.00,1.76
8009.00,1.76
8008.00,1.76
8007.00,1.76
8006.00,1.76
8005.00,1.76
8004.00,1.76
8003.00,1.76
8002.00,1.76
8001.00,1.76
8000.00,1.76
7999.00,1.76
7998.00,1.76
7997.00,1.76
7996.00,1.75
7995.00,1.75
7994.00,1.75
7993.00,1.75
7992.00,1.75
7991.00,1.75
7990.00,1.75
7989.00,1.75
7988.00,1.75
7987.00,1.75
7986.00,1.75
7985.00,1.75
7984.00,1.75
7983.00,1.75
7982.00,1.75
7981.00,1.75
7980.00,1.75
7979.00,1.75
7978.00,1.75
7977.00,1.75
7976.00,1.75
7975.00,1.75
7974.00,1.75
7973.00,1.75
7972.00,1.75
7971.00,1.75
7970.00,1.75
7969.00,1.75
7968.00,1.76
7967.00,1.76
7966.00,1.76
7965.00,1.76
7964.00,1.76
7963.00,1.76
7962.00,1.76
7961.00,1.76
7960.00,1.76
7959.00,1.75
7958.00,1.75
7957.00,1.75
7956.00,1.75
7955.00,1.75
7954.00,1.75
7953.00,1.75
7952.00,1.75
7951.00,1.75
7950.00,1.75
7949.00,1.75
7948.00,1.75
7947.00,1.75
7946.00,1.75
7945.00,1.75
7944.00,1.75
7943.00,1.75
7942.00,1.75
7941.00,1.76
7940.00,1.76
7939.00,1.76
7938.00,1.76
7937.00,1.76
7936.00,1.76
7935.00,1.76
7934.00,1.76
7933.00,1.76
7932.00,1.76
7931.00,1.76
7930.00,1.76
7929.00,1.76
7928.00,1.76
7927.00,1.76
7926.00,1.76
7925.00,1.76
7924.00,1.76
7923.00,1.76
7922.00,1.76
7921.00,1.76
7920.00,1.76
7919.00,1.76
7918.00,1.76
7917.00,1.76
7916.00,1.76
7915.00,1.76
7914.00,1.76
7913.00,1.76
7912.00,1.76
7911.00,1.76
7910.00,1.76
7909.00,1.76
7908.00,1.76
7907.00,1.76
7906.00,1.76
7905.00,1.76
7904.00,1.76
7903.00,1.76
7902.00,1.76
7901.00,1.76
7900.00,1.76
7899.00,1.76
7898.00,1.76
7897.00,1.76
7896.00,1.76
7895.00,1.76
7894.00,1.76
7893.00,1.76
7892.00,1.77
7891.00,1.77
7890.00,1.77
7889.00,1.77
7888.00,1.77
7887.00,1.77
7886.00,1.77
7885.00,1.77
7884.00,1.77
7883.00,1.77
7882.00,1.77
7881.00,1.77
7880.00,1.77
7879.00,1.77
7878.00,1.77
7877.00,1.77
7876.00,1.78
7875.00,1.78
7874.00,1.78
7873.00,1.78
7872.00,1.77
7871.00,1.77
7870.00,1.77
7869.00,1.77
7868.00,1.77
7867.00,1.77
7866.00,1.77
7865.00,1.77
7864.00,1.77
7863.00,1.77
7862.00,1.77
7861.00,1.77
7860.00,1.77
7859.00,1.77
7858.00,1.77
7857.00,1.77
7856.00,1.77
7855.00,1.77
7854.00,1.77
7853.00,1.77
7852.00,1.77
7851.00,1.77
7850.00,1.77
7849.00,1.77
7848.00,1.78
7847.00,1.78
7846.00,1.78
7845.00,1.78
7844.00,1.78
7843.00,1.78
7842.00,1.78
7841.00,1.78
7840.00,1.78
7839.00,1.78
7838.00,1.78
7837.00,1.78
7836.00,1.78
7835.00,1.78
7834.00,1.78
7833.00,1.78
7832.00,1.78
7831.00,1.78
7830.00,1.78
7829.00,1.78
7828.00,1.78
7827.00,1.78
7826.00,1.78
7825.00,1.78
7824.00,1.78
7823.00,1.78
7822.00,1.78
7821.00,1.78
7820.00,1.78
7819.00,1.78
7818.00,1.78
7817.00,1.78
7816.00,1.78
7815.00,1.78
7814.00,1.78
7813.00,1.78
7812.00,1.78
7811.00,1.78
7810.00,1.78
7809.00,1.78
7808.00,1.78
7807.00,1.78
7806.00,1.78
7805.00,1.78
7804.00,1.78
7803.00,1.78
7802.00,1.78
7801.00,1.78
7800.00,1.78
7799.00,1.78
7798.00,1.78
7797.00,1.78
7796.00,1.78
7795.00,1.78
7794.00,1.78
7793.00,1.78
7792.00,1.78
7791.00,1.78
7790.00,1.78
7789.00,1.78
7788.00,1.78
7787.00,1.78
7786.00,1.78
7785.00,1.77
7784.00,1.77
7783.00,1.77
7782.00,1.78
7781.00,1.78
7780.00,1.78
7779.00,1.78
7778.00,1.78
7777.00,1.78
7776.00,1.78
7775.00,1.78
7774.00,1.78
7773.00,1.78
7772.00,1.79
7771.00,1.79
7770.00,1.79
7769.00,1.79
7768.00,1.79
7767.00,1.79
7766.00,1.79
7765.00,1.79
7764.00,1.79
7763.00,1.79
7762.00,1.79
7761.00,1.79
7760.00,1.79
7759.00,1.79
7758.00,1.79
7757.00,1.79
7756.00,1.79
7755.00,1.79
7754.00,1.79
7753.00,1.79
7752.00,1.79
7751.00,1.80
7750.00,1.80
7749.00,1.80
7748.00,1.80
7747.00,1.80
7746.00,1.80
7745.00,1.80
7744.00,1.80
7743.00,1.80
7742.00,1.80
7741.00,1.80
7740.00,1.80
7739.00,1.80
7738.00,1.80
7737.00,1.80
7736.00,1.80
7735.00,1.81
7734.00,1.81
7733.00,1.81
7732.00,1.81
7731.00,1.81
7730.00,1.81
7729.00,1.81
7728.00,1.80
7727.00,1.80
7726.00,1.80
7725.00,1.80
7724.00,1.80
7723.00,1.80
7722.00,1.80
7721.00,1.80
7720.00,1.80
7719.00,1.80
7718.00,1.80
7717.00,1.80
7716.00,1.80
7715.00,1.80
7714.00,1.80
7713.00,1.80
7712.00,1.80
7711.00,1.80
7710.00,1.80
7709.00,1.80
7708.00,1.80
7707.00,1.80
7706.00,1.80
7705.00,1.79
7704.00,1.79
7703.00,1.79
7702.00,1.79
7701.00,1.79
7700.00,1.79
7699.00,1.79
7698.00,1.79
7697.00,1.79
7696.00,1.80
7695.00,1.80
7694.00,1.80
7693.00,1.80
7692.00,1.80
7691.00,1.80
7690.00,1.80
7689.00,1.80
7688.00,1.80
7687.00,1.80
7686.00,1.80
7685.00,1.80
7684.00,1.80
7683.00,1.80
7682.00,1.80
7681.00,1.80
7680.00,1.80
7679.00,1.80
7678.00,1.80
7677.00,1.80
7676.00,1.80
7675.00,1.80
7674.00,1.79
7673.00,1.79
7672.00,1.79
7671.00,1.79
7670.00,1.79
7669.00,1.79
7668.00,1.79
7667.00,1.79
7666.00,1.79
7665.00,1.79
7664.00,1.79
7663.00,1.79
7662.00,1.79
7661.00,1.79
7660.00,1.80
7659.00,1.80
7658.00,1.80
7657.00,1.80
7656.00,1.80
7655.00,1.80
7654.00,1.80
7653.00,1.80
7652.00,1.80
7651.00,1.80
7650.00,1.81
7649.00,1.81
7648.00,1.81
7647.00,1.81
7646.00,1.81
7645.00,1.81
7644.00,1.81
7643.00,1.81
7642.00,1.81
7641.00,1.81
7640.00,1.81
7639.00,1.80
7638.00,1.80
7637.00,1.80
7636.00,1.80
7635.00,1.80
7634.00,1.80
7633.00,1.80
7632.00,1.80
7631.00,1.80
7630.00,1.80
7629.00,1.80
7628.00,1.80
7627.00,1.80
7626.00,1.80
7625.00,1.80
7624.00,1.80
7623.00,1.80
7622.00,1.79
7621.00,1.79
7620.00,1.79
7619.00,1.79
7618.00,1.79
7617.00,1.79
7616.00,1.79
7615.00,1.79
7614.00,1.79
7613.00,1.79
7612.00,1.79
7611.00,1.79
7610.00,1.79
7609.00,1.79
7608.00,1.79
7607.00,1.79
7606.00,1.79
7605.00,1.79
7604.00,1.79
7603.00,1.79
7602.00,1.79
7601.00,1.79
7600.00,1.79
7599.00,1.79
7598.00,1.79
7597.00,1.79
7596.00,1.79
7595.00,1.79
7594.00,1.79
7593.00,1.80
7592.00,1.80
7591.00,1.80
7590.00,1.80
7589.00,1.80
7588.00,1.80
7587.00,1.80
7586.00,1.80
7585.00,1.80
7584.00,1.80
7583.00,1.80
7582.00,1.80
7581.00,1.80
7580.00,1.80
7579.00,1.80
7578.00,1.80
7577.00,1.80
7576.00,1.80
7575.00,1.80
7574.00,1.80
7573.00,1.80
7572.00,1.80
7571.00,1.80
7570.00,1.80
7569.00,1.80
7568.00,1.80
7567.00,1.80
7566.00,1.80
7565.00,1.80
7564.00,1.80
7563.00,1.80
7562.00,1.80
7561.00,1.80
7560.00,1.80
7559.00,1.80
7558.00,1.80
7557.00,1.80
7556.00,1.80
7555.00,1.80
7554.00,1.80
7553.00,1.80
7552.00,1.80
7551.00,1.80
7550.00,1.80
7549.00,1.80
7548.00,1.79
7547.00,1.79
7546.00,1.79
7545.00,1.79
7544.00,1.79
7543.00,1.79
7542.00,1.79
7541.00,1.79
7540.00,1.79
7539.00,1.79
7538.00,1.79
7537.00,1.79
7536.00,1.79
7535.00,1.79
7534.00,1.79
7533.00,1.79
7532.00,1.79
7531.00,1.79
7530.00,1.79
7529.00,1.79
7528.00,1.79
7527.00,1.79
7526.00,1.79
7525.00,1.79
7524.00,1.79
7523.00,1.78
7522.00,1.78
7521.00,1.78
7520.00,1.78
7519.00,1.78
7518.00,1.78
7517.00,1.78
7516.00,1.77
7515.00,1.77
7514.00,1.77
7513.00,1.77
7512.00,1.77
7511.00,1.77
7510.00,1.77
7509.00,1.76
7508.00,1.76
7507.00,1.76
7506.00,1.76
7505.00,1.76
7504.00,1.76
7503.00,1.76
7502.00,1.76
7501.00,1.76
7500.00,1.76
7499.00,1.76
7498.00,1.76
7497.00,1.76
7496.00,1.76
7495.00,1.76
7494.00,1.76
7493.00,1.76
7492.00,1.76
7491.00,1.76
7490.00,1.76
7489.00,1.76
7488.00,1.76
7487.00,1.76
7486.00,1.76
7485.00,1.76
7484.00,1.76
7483.00,1.76
7482.00,1.76
7481.00,1.76
7480.00,1.76
7479.00,1.76
7478.00,1.76
7477.00,1.76
7476.00,1.76
7475.00,1.76
7474.00,1.76
7473.00,1.76
7472.00,1.76
7471.00,1.76
7470.00,1.76
7469.00,1.76
7468.00,1.76
7467.00,1.76
7466.00,1.76
7465.00,1.76
7464.00,1.75
7463.00,1.75
7462.00,1.75
7461.00,1.75
7460.00,1.75
7459.00,1.75
7458.00,1.75
7457.00,1.75
7456.00,1.75
7455.00,1.75
7454.00,1.75
7453.00,1.74
7452.00,1.74
7451.00,1.74
7450.00,1.74
7449.00,1.74
7448.00,1.74
7447.00,1.74
7446.00,1.74
7445.00,1.74
7444.00,1.74
7443.00,1.74
7442.00,1.74
7441.00,1.74
7440.00,1.74
7439.00,1.74
7438.00,1.74
7437.00,1.74
7436.00,1.74
7435.00,1.74
7434.00,1.74
7433.00,1.73
7432.00,1.73
7431.00,1.73
7430.00,1.73
7429.00,1.73
7428.00,1.73
7427.00,1.73
7426.00,1.73
7425.00,1.73
7424.00,1.73
7423.00,1.72
7422.00,1.72
7421.00,1.72
7420.00,1.72
7419.00,1.72
7418.00,1.72
7417.00,1.72
7416.00,1.72
7415.00,1.72
7414.00,1.72
7413.00,1.72
7412.00,1.71
7411.00,1.71
7410.00,1.71
7409.00,1.71
7408.00,1.71
7407.00,1.71
7406.00,1.71
7405.00,1.71
7404.00,1.71
7403.00,1.71
7402.00,1.71
7401.00,1.71
7400.00,1.71
7399.00,1.70
7398.00,1.70
7397.00,1.70
7396.00,1.70
7395.00,1.70
7394.00,1.70
7393.00,1.70
7392.00,1.69
7391.00,1.69
7390.00,1.69
7389.00,1.69
7388.00,1.69
7387.00,1.68
7386.00,1.68
7385.00,1.68
7384.00,1.68
7383.00,1.68
7382.00,1.68
7381.00,1.67
7380.00,1.67
7379.00,1.67
7378.00,1.67
7377.00,1.67
7376.00,1.67
7375.00,1.67
7374.00,1.67
7373.00,1.67
7372.00,1.67
7371.00,1.66
7370.00,1.66
7369.00,1.66
7368.00,1.66
7367.00,1.66
7366.00,1.66
7365.00,1.66
7364.00,1.66
7363.00,1.66
7362.00,1.66
7361.00,1.66
7360.00,1.66
7359.00,1.66
7358.00,1.66
7357.00,1.66
7356.00,1.66
7355.00,1.66
7354.00,1.66
7353.00,1.66
7352.00,1.66
7351.00,1.66
7350.00,1.66
7349.00,1.66
7348.00,1.67
7347.00,1.67
7346.00,1.67
7345.00,1.67
7344.00,1.67
7343.00,1.66
7342.00,1.66
7341.00,1.66
7340.00,1.66
7339.00,1.66
7338.00,1.66
7337.00,1.66
7336.00,1.66
7335.00,1.66
7334.00,1.66
7333.00,1.65
7332.00,1.65
7331.00,1.65
7330.00,1.65
7329.00,1.65
7328.00,1.64
7327.00,1.64
7326.00,1.64
7325.00,1.64
7324.00,1.64
7323.00,1.64
7322.00,1.64
7321.00,1.63
7320.00,1.63
7319.00,1.63
7318.00,1.63
7317.00,1.63
7316.00,1.63
7315.00,1.63
7314.00,1.63
7313.00,1.63
7312.00,1.62
7311.00,1.62
7310.00,1.62
7309.00,1.62
7308.00,1.62
7307.00,1.62
7306.00,1.62
7305.00,1.61
7304.00,1.61
7303.00,1.61
7302.00,1.61
7301.00,1.61
7300.00,1.60
7299.00,1.60
7298.00,1.60
7297.00,1.60
7296.00,1.60
7295.00,1.59
7294.00,1.59
7293.00,1.59
7292.00,1.59
7291.00,1.59
7290.00,1.58
7289.00,1.58
7288.00,1.58
7287.00,1.58
7286.00,1.58
7285.00,1.58
7284.00,1.58
7283.00,1.58
7282.00,1.58
7281.00,1.57
7280.00,1.57
7279.00,1.57
7278.00,1.57
7277.00,1.57
7276.00,1.57
7275.00,1.57
7274.00,1.57
7273.00,1.57
7272.00,1.56
7271.00,1.56
7270.00,1.56
7269.00,1.56
7268.00,1.56
7267.00,1.56
7266.00,1.56
7265.00,1.55
7264.00,1.55
7263.00,1.55
7262.00,1.55
7261.00,1.55
7260.00,1.55
7259.00,1.54
7258.00,1.54
7257.00,1.54
7256.00,1.54
7255.00,1.54
7254.00,1.54
7253.00,1.53
7252.00,1.53
7251.00,1.53
7250.00,1.53
7249.00,1.52
7248.00,1.52
7247.00,1.52
7246.00,1.52
7245.00,1.51
7244.00,1.51
7243.00,1.51
7242.00,1.50
7241.00,1.50
7240.00,1.50
7239.00,1.49
7238.00,1.49
7237.00,1.48
7236.00,1.48
7235.00,1.48
7234.00,1.47
7233.00,1.47
7232.00,1.46
7231.00,1.46
7230.00,1.45
7229.00,1.45
7228.00,1.44
7227.00,1.44
7226.00,1.43
7225.00,1.43
7224.00,1.42
7223.00,1.42
7222.00,1.41
7221.00,1.41
7220.00,1.40
7219.00,1.39
7218.00,1.39
7217.00,1.38
7216.00,1.38
7215.00,1.37
7214.00,1.36
7213.00,1.36
7212.00,1.35
7211.00,1.35
7210.00,1.34
7209.00,1.34
7208.00,1.33
7207.00,1.32
7206.00,1.32
7205.00,1.31
7204.00,1.31
7203.00,1.30
7202.00,1.30
7201.00,1.29
7200.00,1.29
7199.00,1.28
7198.00,1.28
7197.00,1.28
7196.00,1.27
7195.00,1.27
7194.00,1.26
7193.00,1.26
7192.00,1.26
7191.00,1.25
7190.00,1.25
7189.00,1.25
7188.00,1.25
7187.00,1.24
7186.00,1.24
7185.00,1.24
7184.00,1.23
7183.00,1.23
7182.00,1.23
7181.00,1.22
7180.00,1.22
7179.00,1.22
7178.00,1.21
7177.00,1.21
7176.00,1.20
7175.00,1.20
7174.00,1.19
7173.00,1.19
7172.00,1.19
7171.00,1.18
7170.00,1.18
7169.00,1.17
7168.00,1.17
7167.00,1.16
7166.00,1.16
7165.00,1.15
7164.00,1.15
7163.00,1.15
7162.00,1.14
7161.00,1.14
7160.00,1.13
7159.00,1.13
7158.00,1.13
7157.00,1.12
7156.00,1.12
7155.00,1.12
7154.00,1.11
7153.00,1.11
7152.00,1.10
7151.00,1.10
7150.00,1.10
7149.00,1.09
7148.00,1.09
7147.00,1.08
7146.00,1.08
7145.00,1.08
7144.00,1.07
7143.00,1.07
7142.00,1.06
7141.00,1.06
7140.00,1.06
7139.00,1.05
7138.00,1.05
7137.00,1.04
7136.00,1.04
7135.00,1.04
7134.00,1.03
7133.00,1.03
7132.00,1.03
7131.00,1.02
7130.00,1.02
7129.00,1.01
7128.00,1.01
7127.00,1.00
7126.00,1.00
7125.00,1.00
7124.00,0.99
7123.00,0.99
7122.00,0.98
7121.00,0.98
7120.00,0.98
7119.00,0.97
7118.00,0.97
7117.00,0.96
7116.00,0.96
7115.00,0.96
7114.00,0.95
7113.00,0.95
7112.00,0.95
7111.00,0.94
7110.00,0.94
7109.00,0.94
7108.00,0.93
7107.00,0.93
7106.00,0.93
7105.00,0.92
7104.00,0.92
7103.00,0.92
7102.00,0.91
7101.00,0.91
7100.00,0.91
7099.00,0.90
7098.00,0.90
7097.00,0.90
7096.00,0.89
7095.00,0.89
7094.00,0.89
7093.00,0.88
7092.00,0.88
7091.00,0.88
7090.00,0.88
7089.00,0.87
7088.00,0.87
7087.00,0.87
7086.00,0.86
7085.00,0.86
7084.00,0.86
7083.00,0.86
7082.00,0.85
7081.00,0.85
7080.00,0.85
7079.00,0.85
7078.00,0.84
7077.00,0.84
7076.00,0.84
7075.00,0.84
7074.00,0.83
7073.00,0.83
7072.00,0.83
7071.00,0.83
7070.00,0.82
7069.00,0.82
7068.00,0.82
7067.00,0.82
7066.00,0.81
7065.00,0.81
7064.00,0.81
7063.00,0.81
7062.00,0.81
7061.00,0.80
7060.00,0.80
7059.00,0.80
7058.00,0.80
7057.00,0.80
7056.00,0.79
7055.00,0.79
7054.00,0.79
7053.00,0.79
7052.00,0.79
7051.00,0.78
7050.00,0.78
7049.00,0.78
7048.00,0.78
7047.00,0.78
7046.00,0.78
7045.00,0.77
7044.00,0.77
7043.00,0.77
7042.00,0.77
7041.00,0.77
7040.00,0.76
7039.00,0.76
7038.00,0.76
7037.00,0.76
7036.00,0.75
7035.00,0.75
7034.00,0.75
7033.00,0.75
7032.00,0.74
7031.00,0.74
7030.00,0.74
7029.00,0.74
7028.00,0.73
7027.00,0.73
7026.00,0.73
7025.00,0.73
7024.00,0.73
7023.00,0.72
7022.00,0.72
7021.00,0.72
7020.00,0.72
7019.00,0.72
7018.00,0.72
7017.00,0.72
7016.00,0.72
7015.00,0.72
7014.00,0.71
7013.00,0.71
7012.00,0.71
7011.00,0.71
7010.00,0.71
7009.00,0.71
7008.00,0.71
7007.00,0.71
7006.00,0.71
7005.00,0.71
7004.00,0.71
7003.00,0.71
7002.00,0.71
7001.00,0.70
7000.00,0.70
6999.00,0.70
6998.00,0.70
6997.00,0.70
6996.00,0.70
6995.00,0.70
6994.00,0.70
6993.00,0.70
6992.00,0.69
6991.00,0.69
6990.00,0.69
6989.00,0.69
6988.00,0.69
6987.00,0.69
6986.00,0.69
6985.00,0.69
6984.00,0.69
6983.00,0.69
6982.00,0.69
6981.00,0.69
6980.00,0.69
6979.00,0.68
6978.00,0.68
6977.00,0.68
6976.00,0.68
6975.00,0.68
6974.00,0.68
6973.00,0.68
6972.00,0.68
6971.00,0.68
6970.00,0.68
6969.00,0.67
6968.00,0.67
6967.00,0.67
6966.00,0.67
6965.00,0.67
6964.00,0.67
6963.00,0.67
6962.00,0.67
6961.00,0.67
6960.00,0.66
6959.00,0.66
6958.00,0.66
6957.00,0.66
6956.00,0.66
6955.00,0.66
6954.00,0.66
6953.00,0.66
6952.00,0.66
6951.00,0.66
6950.00,0.66
6949.00,0.66
6948.00,0.66
6947.00,0.66
6946.00,0.66
6945.00,0.66
6944.00,0.66
6943.00,0.66
6942.00,0.66
6941.00,0.66
6940.00,0.66
6939.00,0.66
6938.00,0.66
6937.00,0.66
6936.00,0.66
6935.00,0.66
6934.00,0.65
6933.00,0.65
6932.00,0.65
6931.00,0.65
6930.00,0.65
6929.00,0.65
6928.00,0.65
6927.00,0.65
6926.00,0.65
6925.00,0.65
6924.00,0.65
6923.00,0.65
6922.00,0.65
6921.00,0.65
6920.00,0.65
6919.00,0.65
6918.00,0.65
6917.00,0.65
6916.00,0.65
6915.00,0.64
6914.00,0.64
6913.00,0.64
6912.00,0.64
6911.00,0.64
6910.00,0.64
6909.00,0.64
6908.00,0.64
6907.00,0.64
6906.00,0.64
6905.00,0.64
6904.00,0.64
6903.00,0.64
6902.00,0.64
6901.00,0.63
6900.00,0.63
6899.00,0.63
6898.00,0.63
6897.00,0.63
6896.00,0.63
6895.00,0.63
6894.00,0.63
6893.00,0.63
6892.00,0.63
6891.00,0.63
6890.00,0.63
6889.00,0.63
6888.00,0.63
6887.00,0.63
6886.00,0.63
6885.00,0.63
6884.00,0.63
6883.00,0.63
6882.00,0.63
6881.00,0.63
6880.00,0.63
6879.00,0.63
6878.00,0.63
6877.00,0.63
6876.00,0.63
6875.00,0.63
6874.00,0.63
6873.00,0.63
6872.00,0.63
6871.00,0.63
6870.00,0.63
6869.00,0.63
6868.00,0.63
6867.00,0.63
6866.00,0.63
6865.00,0.63
6864.00,0.63
6863.00,0.63
6862.00,0.63
6861.00,0.63
6860.00,0.63
6859.00,0.63
6858.00,0.63
6857.00,0.63
6856.00,0.63
6855.00,0.64
6854.00,0.64
6853.00,0.64
6852.00,0.64
6851.00,0.64
6850.00,0.64
6849.00,0.64
6848.00,0.64
6847.00,0.64
6846.00,0.64
6845.00,0.63
6844.00,0.63
6843.00,0.63
6842.00,0.63
6841.00,0.63
6840.00,0.63
6839.00,0.63
6838.00,0.63
6837.00,0.63
6836.00,0.64
6835.00,0.64
6834.00,0.64
6833.00,0.64
6832.00,0.64
6831.00,0.64
6830.00,0.64
6829.00,0.64
6828.00,0.64
6827.00,0.64
6826.00,0.64
6825.00,0.64
6824.00,0.65
6823.00,0.65
6822.00,0.65
6821.00,0.65
6820.00,0.65
6819.00,0.65
6818.00,0.65
6817.00,0.65
6816.00,0.65
6815.00,0.65
6814.00,0.65
6813.00,0.65
6812.00,0.65
6811.00,0.65
6810.00,0.65
6809.00,0.65
6808.00,0.65
6807.00,0.65
6806.00,0.65
6805.00,0.65
6804.00,0.65
6803.00,0.65
6802.00,0.65
6801.00,0.65
6800.00,0.65
6799.00,0.65
6798.00,0.65
6797.00,0.65
6796.00,0.65
6795.00,0.65
6794.00,0.65
6793.00,0.65
6792.00,0.65
6791.00,0.66
6790.00,0.66
6789.00,0.66
6788.00,0.66
6787.00,0.66
6786.00,0.66
6785.00,0.67
6784.00,0.67
6783.00,0.67
6782.00,0.67
6781.00,0.67
6780.00,0.67
6779.00,0.67
6778.00,0.67
6777.00,0.67
6776.00,0.67
6775.00,0.67
6774.00,0.68
6773.00,0.68
6772.00,0.68
6771.00,0.68
6770.00,0.68
6769.00,0.68
6768.00,0.68
6767.00,0.68
6766.00,0.68
6765.00,0.68
6764.00,0.68
6763.00,0.68
6762.00,0.68
6761.00,0.68
6760.00,0.68
6759.00,0.68
6758.00,0.69
6757.00,0.69
6756.00,0.69
6755.00,0.69
6754.00,0.69
6753.00,0.69
6752.00,0.69
6751.00,0.69
6750.00,0.69
6749.00,0.69
6748.00,0.69
6747.00,0.70
6746.00,0.70
6745.00,0.70
6744.00,0.70
6743.00,0.70
6742.00,0.70
6741.00,0.70
6740.00,0.70
6739.00,0.70
6738.00,0.70
6737.00,0.71
6736.00,0.71
6735.00,0.71
6734.00,0.71
6733.00,0.71
6732.00,0.71
6731.00,0.71
6730.00,0.71
6729.00,0.71
6728.00,0.71
6727.00,0.71
6726.00,0.71
6725.00,0.71
6724.00,0.71
6723.00,0.72
6722.00,0.72
6721.00,0.72
6720.00,0.72
6719.00,0.72
6718.00,0.72
6717.00,0.72
6716.00,0.72
6715.00,0.73
6714.00,0.73
6713.00,0.73
6712.00,0.73
6711.00,0.73
6710.00,0.73
6709.00,0.73
6708.00,0.74
6707.00,0.74
6706.00,0.74
6705.00,0.74
6704.00,0.74
6703.00,0.74
6702.00,0.74
6701.00,0.75
6700.00,0.75
6699.00,0.75
6698.00,0.75
6697.00,0.75
6696.00,0.75
6695.00,0.75
6694.00,0.75
6693.00,0.76
6692.00,0.76
6691.00,0.76
6690.00,0.76
6689.00,0.76
6688.00,0.76
6687.00,0.76
6686.00,0.77
6685.00,0.77
6684.00,0.77
6683.00,0.77
6682.00,0.77
6681.00,0.77
6680.00,0.78
6679.00,0.78
6678.00,0.78
6677.00,0.78
6676.00,0.78
6675.00,0.78
6674.00,0.78
6673.00,0.78
6672.00,0.79
6671.00,0.79
6670.00,0.79
6669.00,0.79
6668.00,0.79
6667.00,0.79
6666.00,0.79
6665.00,0.79
6664.00,0.79
6663.00,0.80
6662.00,0.80
6661.00,0.80
6660.00,0.80
6659.00,0.80
6658.00,0.80
6657.00,0.80
6656.00,0.80
6655.00,0.80
6654.00,0.81
6653.00,0.81
6652.00,0.81
6651.00,0.81
6650.00,0.81
6649.00,0.81
6648.00,0.81
6647.00,0.82
6646.00,0.82
6645.00,0.82
6644.00,0.82
6643.00,0.82
6642.00,0.82
6641.00,0.83
6640.00,0.83
6639.00,0.83
6638.00,0.83
6637.00,0.83
6636.00,0.83
6635.00,0.84
6634.00,0.84
6633.00,0.84
6632.00,0.84
6631.00,0.84
6630.00,0.84
6629.00,0.84
6628.00,0.84
6627.00,0.85
6626.00,0.85
6625.00,0.85
6624.00,0.85
6623.00,0.85
6622.00,0.85
6621.00,0.85
6620.00,0.85
6619.00,0.85
6618.00,0.85
6617.00,0.86
6616.00,0.86
6615.00,0.86
6614.00,0.86
6613.00,0.86
6612.00,0.86
6611.00,0.86
6610.00,0.86
6609.00,0.87
6608.00,0.87
6607.00,0.87
6606.00,0.87
6605.00,0.87
6604.00,0.87
6603.00,0.87
6602.00,0.87
6601.00,0.88
6600.00,0.88
6599.00,0.88
6598.00,0.88
6597.00,0.88
6596.00,0.88
6595.00,0.88
6594.00,0.88
6593.00,0.88
6592.00,0.88
6591.00,0.88
6590.00,0.88
6589.00,0.88
6588.00,0.88
6587.00,0.88
6586.00,0.88
6585.00,0.89
6584.00,0.89
6583.00,0.89
6582.00,0.89
6581.00,0.89
6580.00,0.89
6579.00,0.90
6578.00,0.90
6577.00,0.90
6576.00,0.90
6575.00,0.90
6574.00,0.91
6573.00,0.91
6572.00,0.91
6571.00,0.91
6570.00,0.92
6569.00,0.92
6568.00,0.92
6567.00,0.92
6566.00,0.93
6565.00,0.93
6564.00,0.93
6563.00,0.93
6562.00,0.93
6561.00,0.93
6560.00,0.93
6559.00,0.93
6558.00,0.94
6557.00,0.94
6556.00,0.94
6555.00,0.94
6554.00,0.94
6553.00,0.94
6552.00,0.94
6551.00,0.94
6550.00,0.94
6549.00,0.94
6548.00,0.94
6547.00,0.94
6546.00,0.94
6545.00,0.94
6544.00,0.94
6543.00,0.95
6542.00,0.95
6541.00,0.95
6540.00,0.95
6539.00,0.95
6538.00,0.95
6537.00,0.95
6536.00,0.95
6535.00,0.95
6534.00,0.96
6533.00,0.96
6532.00,0.96
6531.00,0.96
6530.00,0.96
6529.00,0.96
6528.00,0.97
6527.00,0.97
6526.00,0.97
6525.00,0.97
6524.00,0.97
6523.00,0.97
6522.00,0.97
6521.00,0.97
6520.00,0.98
6519.00,0.98
6518.00,0.98
6517.00,0.98
6516.00,0.98
6515.00,0.98
6514.00,0.98
6513.00,0.99
6512.00,0.99
6511.00,0.99
6510.00,0.99
6509.00,0.99
6508.00,0.99
6507.00,0.99
6506.00,1.00
6505.00,1.00
6504.00,1.00
6503.00,1.00
6502.00,1.00
6501.00,1.00
6500.00,1.00
6499.00,1.00
6498.00,1.00
6497.00,1.00
6496.00,1.00
6495.00,1.00
6494.00,1.00
6493.00,1.00
6492.00,1.00
6491.00,1.00
6490.00,1.00
6489.00,1.00
6488.00,1.00
6487.00,1.00
6486.00,1.00
6485.00,1.00
6484.00,1.00
6483.00,1.00
6482.00,1.00
6481.00,1.01
6480.00,1.01
6479.00,1.01
6478.00,1.01
6477.00,1.01
6476.00,1.01
6475.00,1.01
6474.00,1.01
6473.00,1.01
6472.00,1.01
6471.00,1.01
6470.00,1.01
6469.00,1.02
6468.00,1.02
6467.00,1.02
6466.00,1.02
6465.00,1.02
6464.00,1.02
6463.00,1.02
6462.00,1.03
6461.00,1.03
6460.00,1.03
6459.00,1.03
6458.00,1.03
6457.00,1.03
6456.00,1.03
6455.00,1.03
6454.00,1.03
6453.00,1.03
6452.00,1.03
6451.00,1.03
6450.00,1.03
6449.00,1.03
6448.00,1.04
6447.00,1.04
6446.00,1.04
6445.00,1.04
6444.00,1.04
6443.00,1.04
6442.00,1.04
6441.00,1.04
6440.00,1.04
6439.00,1.04
6438.00,1.04
6437.00,1.04
6436.00,1.04
6435.00,1.04
6434.00,1.05
6433.00,1.05
6432.00,1.05
6431.00,1.05
6430.00,1.05
6429.00,1.05
6428.00,1.05
6427.00,1.05
6426.00,1.05
6425.00,1.05
6424.00,1.06
6423.00,1.06
6422.00,1.06
6421.00,1.06
6420.00,1.06
6419.00,1.06
6418.00,1.06
6417.00,1.06
6416.00,1.06
6415.00,1.07
6414.00,1.07
6413.00,1.07
6412.00,1.07
6411.00,1.07
6410.00,1.07
6409.00,1.07
6408.00,1.07
6407.00,1.07
6406.00,1.07
6405.00,1.07
6404.00,1.07
6403.00,1.08
6402.00,1.08
6401.00,1.08
6400.00,1.08
6399.00,1.08
6398.00,1.08
6397.00,1.08
6396.00,1.08
6395.00,1.08
6394.00,1.09
6393.00,1.09
6392.00,1.09
6391.00,1.09
6390.00,1.09
6389.00,1.09
6388.00,1.09
6387.00,1.09
6386.00,1.10
6385.00,1.10
6384.00,1.10
6383.00,1.10
6382.00,1.10
6381.00,1.10
6380.00,1.10
6379.00,1.10
6378.00,1.10
6377.00,1.10
6376.00,1.11
6375.00,1.11
6374.00,1.11
6373.00,1.11
6372.00,1.11
6371.00,1.11
6370.00,1.11
6369.00,1.11
6368.00,1.11
6367.00,1.12
6366.00,1.12
6365.00,1.12
6364.00,1.12
6363.00,1.12
6362.00,1.12
6361.00,1.12
6360.00,1.12
6359.00,1.13
6358.00,1.13
6357.00,1.13
6356.00,1.13
6355.00,1.13
6354.00,1.13
6353.00,1.13
6352.00,1.13
6351.00,1.14
6350.00,1.14
6349.00,1.14
6348.00,1.14
6347.00,1.14
6346.00,1.14
6345.00,1.14
6344.00,1.14
6343.00,1.14
6342.00,1.14
6341.00,1.14
6340.00,1.14
6339.00,1.14
6338.00,1.15
6337.00,1.15
6336.00,1.15
6335.00,1.15
6334.00,1.15
6333.00,1.15
6332.00,1.15
6331.00,1.15
6330.00,1.15
6329.00,1.15
6328.00,1.16
6327.00,1.16
6326.00,1.16
6325.00,1.16
6324.00,1.16
6323.00,1.16
6322.00,1.17
6321.00,1.17
6320.00,1.17
6319.00,1.17
6318.00,1.17
6317.00,1.17
6316.00,1.18
6315.00,1.18
6314.00,1.18
6313.00,1.18
6312.00,1.18
6311.00,1.18
6310.00,1.19
6309.00,1.19
6308.00,1.19
6307.00,1.19
6306.00,1.19
6305.00,1.19
6304.00,1.20
6303.00,1.20
6302.00,1.20
6301.00,1.20
6300.00,1.20
6299.00,1.20
6298.00,1.20
6297.00,1.21
6296.00,1.21
6295.00,1.21
6294.00,1.21
6293.00,1.21
6292.00,1.21
6291.00,1.21
6290.00,1.21
6289.00,1.22
6288.00,1.22
6287.00,1.22
6286.00,1.22
6285.00,1.22
6284.00,1.22
6283.00,1.22
6282.00,1.23
6281.00,1.23
6280.00,1.23
6279.00,1.23
6278.00,1.23
6277.00,1.23
6276.00,1.23
6275.00,1.23
6274.00,1.23
6273.00,1.24
6272.00,1.24
6271.00,1.24
6270.00,1.24
6269.00,1.24
6268.00,1.24
6267.00,1.24
6266.00,1.24
6265.00,1.24
6264.00,1.25
6263.00,1.25
6262.00,1.25
6261.00,1.25
6260.00,1.25
6259.00,1.25
6258.00,1.26
6257.00,1.26
6256.00,1.26
6255.00,1.26
6254.00,1.27
6253.00,1.27
6252.00,1.27
6251.00,1.27
6250.00,1.28
6249.00,1.28
6248.00,1.28
6247.00,1.28
6246.00,1.29
6245.00,1.29
6244.00,1.29
6243.00,1.29
6242.00,1.29
6241.00,1.30
6240.00,1.30
6239.00,1.30
6238.00,1.30
6237.00,1.30
6236.00,1.30
6235.00,1.30
6234.00,1.31
6233.00,1.31
6232.00,1.31
6231.00,1.31
6230.00,1.31
6229.00,1.31
6228.00,1.31
6227.00,1.31
6226.00,1.32
6225.00,1.32
6224.00,1.32
6223.00,1.32
6222.00,1.32
6221.00,1.33
6220.00,1.33
6219.00,1.33
6218.00,1.33
6217.00,1.34
6216.00,1.34
6215.00,1.34
6214.00,1.34
6213.00,1.35
6212.00,1.35
6211.00,1.35
6210.00,1.35
6209.00,1.36
6208.00,1.36
6207.00,1.36
6206.00,1.36
6205.00,1.37
6204.00,1.37
6203.00,1.37
6202.00,1.37
6201.00,1.38
6200.00,1.38
6199.00,1.38
6198.00,1.38
6197.00,1.38
6196.00,1.39
6195.00,1.39
6194.00,1.39
6193.00,1.39
6192.00,1.39
6191.00,1.39
6190.00,1.40
6189.00,1.40
6188.00,1.40
6187.00,1.40
6186.00,1.40
6185.00,1.40
6184.00,1.40
6183.00,1.40
6182.00,1.41
6181.00,1.41
6180.00,1.41
6179.00,1.41
6178.00,1.41
6177.00,1.41
6176.00,1.42
6175.00,1.42
6174.00,1.42
6173.00,1.42
6172.00,1.42
6171.00,1.43
6170.00,1.43
6169.00,1.43
6168.00,1.43
6167.00,1.44
6166.00,1.44
6165.00,1.44
6164.00,1.44
6163.00,1.45
6162.00,1.45
6161.00,1.45
6160.00,1.46
6159.00,1.46
6158.00,1.46
6157.00,1.46
6156.00,1.46
6155.00,1.47
6154.00,1.47
6153.00,1.47
6152.00,1.47
6151.00,1.48
6150.00,1.48
6149.00,1.48
6148.00,1.48
6147.00,1.48
6146.00,1.49
6145.00,1.49
6144.00,1.49
6143.00,1.49
6142.00,1.49
6141.00,1.50
6140.00,1.50
6139.00,1.50
6138.00,1.50
6137.00,1.51
6136.00,1.51
6135.00,1.51
6134.00,1.51
6133.00,1.51
6132.00,1.52
6131.00,1.52
6130.00,1.52
6129.00,1.52
6128.00,1.53
6127.00,1.53
6126.00,1.53
6125.00,1.53
6124.00,1.54
6123.00,1.54
6122.00,1.54
6121.00,1.54
6120.00,1.55
6119.00,1.55
6118.00,1.55
6117.00,1.55
6116.00,1.55
6115.00,1.55
6114.00,1.56
6113.00,1.56
6112.00,1.56
6111.00,1.56
6110.00,1.56
6109.00,1.56
6108.00,1.56
6107.00,1.57
6106.00,1.57
6105.00,1.57
6104.00,1.57
6103.00,1.57
6102.00,1.57
6101.00,1.58
6100.00,1.58
6099.00,1.58
6098.00,1.58
6097.00,1.58
6096.00,1.59
6095.00,1.59
6094.00,1.59
6093.00,1.59
6092.00,1.59
6091.00,1.60
6090.00,1.60
6089.00,1.60
6088.00,1.60
6087.00,1.60
6086.00,1.60
6085.00,1.61
6084.00,1.61
6083.00,1.61
6082.00,1.61
6081.00,1.61
6080.00,1.61
6079.00,1.62
6078.00,1.62
6077.00,1.62
6076.00,1.62
6075.00,1.62
6074.00,1.62
6073.00,1.62
6072.00,1.63
6071.00,1.63
6070.00,1.63
6069.00,1.63
6068.00,1.63
6067.00,1.63
6066.00,1.64
6065.00,1.64
6064.00,1.64
6063.00,1.64
6062.00,1.64
6061.00,1.64
6060.00,1.65
6059.00,1.65
6058.00,1.65
6057.00,1.65
6056.00,1.65
6055.00,1.65
6054.00,1.65
6053.00,1.65
6052.00,1.65
6051.00,1.66
6050.00,1.66
6049.00,1.66
6048.00,1.66
6047.00,1.66
6046.00,1.66
6045.00,1.66
6044.00,1.66
6043.00,1.66
6042.00,1.66
6041.00,1.66
6040.00,1.66
6039.00,1.66
6038.00,1.66
6037.00,1.66
6036.00,1.66
6035.00,1.67
6034.00,1.67
6033.00,1.67
6032.00,1.67
6031.00,1.67
6030.00,1.67
6029.00,1.67
6028.00,1.67
6027.00,1.67
6026.00,1.68
6025.00,1.68
6024.00,1.68
6023.00,1.68
6022.00,1.68
6021.00,1.68
6020.00,1.68
6019.00,1.68
6018.00,1.68
6017.00,1.68
6016.00,1.68
6015.00,1.68
6014.00,1.68
6013.00,1.68
6012.00,1.68
6011.00,1.68
6010.00,1.68
6009.00,1.68
6008.00,1.68
6007.00,1.68
6006.00,1.68
6005.00,1.68
6004.00,1.68
6003.00,1.67
6002.00,1.67
6001.00,1.67
6000.00,1.67
5999.00,1.67
5998.00,1.67
5997.00,1.67
5996.00,1.67
5995.00,1.66
5994.00,1.66
5993.00,1.66
5992.00,1.66
5991.00,1.65
5990.00,1.65
5989.00,1.65
5988.00,1.64
5987.00,1.64
5986.00,1.64
5985.00,1.63
5984.00,1.63
5983.00,1.63
5982.00,1.62
5981.00,1.62
5980.00,1.61
5979.00,1.61
5978.00,1.60
5977.00,1.59
5976.00,1.59
5975.00,1.58
5974.00,1.57
5973.00,1.57
5972.00,1.56
5971.00,1.55
5970.00,1.54
5969.00,1.53
5968.00,1.53
5967.00,1.52
5966.00,1.51
5965.00,1.50
5964.00,1.49
5963.00,1.48
5962.00,1.47
5961.00,1.45
5960.00,1.44
5959.00,1.43
5958.00,1.42
5957.00,1.41
5956.00,1.40
5955.00,1.39
5954.00,1.38
5953.00,1.37
5952.00,1.37
5951.00,1.36
5950.00,1.35
5949.00,1.34
5948.00,1.33
5947.00,1.33
5946.00,1.32
5945.00,1.32
5944.00,1.31
5943.00,1.31
5942.00,1.30
5941.00,1.30
5940.00,1.29
5939.00,1.29
5938.00,1.29
5937.00,1.29
5936.00,1.28
5935.00,1.28
5934.00,1.28
5933.00,1.28
5932.00,1.28
5931.00,1.28
5930.00,1.28
5929.00,1.27
5928.00,1.27
5927.00,1.27
5926.00,1.27
5925.00,1.27
5924.00,1.26
5923.00,1.26
5922.00,1.26
5921.00,1.26
5920.00,1.25
5919.00,1.25
5918.00,1.25
5917.00,1.24
5916.00,1.24
5915.00,1.23
5914.00,1.23
5913.00,1.23
5912.00,1.22
5911.00,1.22
5910.00,1.22
5909.00,1.21
5908.00,1.21
5907.00,1.21
5906.00,1.20
5905.00,1.20
5904.00,1.20
5903.00,1.20
5902.00,1.20
5901.00,1.20
5900.00,1.20
5899.00,1.20
5898.00,1.20
5897.00,1.20
5896.00,1.20
5895.00,1.21
5894.00,1.21
5893.00,1.21
5892.00,1.21
5891.00,1.22
5890.00,1.22
5889.00,1.22
5888.00,1.23
5887.00,1.23
5886.00,1.23
5885.00,1.24
5884.00,1.24
5883.00,1.24
5882.00,1.25
5881.00,1.25
5880.00,1.25
5879.00,1.26
5878.00,1.26
5877.00,1.27
5876.00,1.27
5875.00,1.27
5874.00,1.28
5873.00,1.28
5872.00,1.29
5871.00,1.29
5870.00,1.29
5869.00,1.30
5868.00,1.30
5867.00,1.30
5866.00,1.31
5865.00,1.31
5864.00,1.31
5863.00,1.32
5862.00,1.32
5861.00,1.32
5860.00,1.33
5859.00,1.33
5858.00,1.33
5857.00,1.33
5856.00,1.33
5855.00,1.34
5854.00,1.34
5853.00,1.34
5852.00,1.34
5851.00,1.34
5850.00,1.34
5849.00,1.34
5848.00,1.34
5847.00,1.34
5846.00,1.34
5845.00,1.34
5844.00,1.34
5843.00,1.34
5842.00,1.34
5841.00,1.34
5840.00,1.34
5839.00,1.34
5838.00,1.34
5837.00,1.34
5836.00,1.34
5835.00,1.34
5834.00,1.34
5833.00,1.34
5832.00,1.34
5831.00,1.34
5830.00,1.34
5829.00,1.34
5828.00,1.34
5827.00,1.34
5826.00,1.34
5825.00,1.34
5824.00,1.34
5823.00,1.34
5822.00,1.34
5821.00,1.34
5820.00,1.34
5819.00,1.34
5818.00,1.34
5817.00,1.34
5816.00,1.34
5815.00,1.34
5814.00,1.34
5813.00,1.34
5812.00,1.34
5811.00,1.34
5810.00,1.34
5809.00,1.34
5808.00,1.34
5807.00,1.34
5806.00,1.34
5805.00,1.34
5804.00,1.34
5803.00,1.34
5802.00,1.34
5801.00,1.33
5800.00,1.33
5799.00,1.33
5798.00,1.33
5797.00,1.33
5796.00,1.32
5795.00,1.32
5794.00,1.32
5793.00,1.32
5792.00,1.31
5791.00,1.31
5790.00,1.31
5789.00,1.30
5788.00,1.30
5787.00,1.30
5786.00,1.29
5785.00,1.29
5784.00,1.29
5783.00,1.28
5782.00,1.28
5781.00,1.28
5780.00,1.27
5779.00,1.27
5778.00,1.27
5777.00,1.27
5776.00,1.27
5775.00,1.26
5774.00,1.26
5773.00,1.26
5772.00,1.26
5771.00,1.26
5770.00,1.26
5769.00,1.26
5768.00,1.26
5767.00,1.26
5766.00,1.26
5765.00,1.27
5764.00,1.27
5763.00,1.27
5762.00,1.27
5761.00,1.28
5760.00,1.28
5759.00,1.28
5758.00,1.29
5757.00,1.29
5756.00,1.30
5755.00,1.30
5754.00,1.31
5753.00,1.31
5752.00,1.32
5751.00,1.32
5750.00,1.33
5749.00,1.33
5748.00,1.34
5747.00,1.34
5746.00,1.35
5745.00,1.35
5744.00,1.36
5743.00,1.36
5742.00,1.37
5741.00,1.37
5740.00,1.38
5739.00,1.38
5738.00,1.39
5737.00,1.39
5736.00,1.39
5735.00,1.40
5734.00,1.40
5733.00,1.40
5732.00,1.41
5731.00,1.41
5730.00,1.41
5729.00,1.42
5728.00,1.42
5727.00,1.42
5726.00,1.42
5725.00,1.42
5724.00,1.42
5723.00,1.42
5722.00,1.43
5721.00,1.43
5720.00,1.43
5719.00,1.43
5718.00,1.43
5717.00,1.43
5716.00,1.43
5715.00,1.43
5714.00,1.43
5713.00,1.43
5712.00,1.42
5711.00,1.42
5710.00,1.42
5709.00,1.42
5708.00,1.42
5707.00,1.42
5706.00,1.42
5705.00,1.42
5704.00,1.42
5703.00,1.41
5702.00,1.41
5701.00,1.41
5700.00,1.41
5699.00,1.41
5698.00,1.40
5697.00,1.40
5696.00,1.40
5695.00,1.40
5694.00,1.40
5693.00,1.39
5692.00,1.39
5691.00,1.39
5690.00,1.39
5689.00,1.38
5688.00,1.38
5687.00,1.38
5686.00,1.38
5685.00,1.38
5684.00,1.38
5683.00,1.38
5682.00,1.37
5681.00,1.37
5680.00,1.37
5679.00,1.37
5678.00,1.37
5677.00,1.37
5676.00,1.37
5675.00,1.37
5674.00,1.37
5673.00,1.37
5672.00,1.37
5671.00,1.37
5670.00,1.37
5669.00,1.37
5668.00,1.37
5667.00,1.37
5666.00,1.37
5665.00,1.37
5664.00,1.37
5663.00,1.37
5662.00,1.38
5661.00,1.38
5660.00,1.38
5659.00,1.38
5658.00,1.38
5657.00,1.38
5656.00,1.39
5655.00,1.39
5654.00,1.39
5653.00,1.39
5652.00,1.40
5651.00,1.40
5650.00,1.40
5649.00,1.41
5648.00,1.41
5647.00,1.41
5646.00,1.42
5645.00,1.42
5644.00,1.42
5643.00,1.42
5642.00,1.43
5641.00,1.43
5640.00,1.43
5639.00,1.44
5638.00,1.44
5637.00,1.44
5636.00,1.44
5635.00,1.45
5634.00,1.45
5633.00,1.45
5632.00,1.46
5631.00,1.46
5630.00,1.46
5629.00,1.46
5628.00,1.47
5627.00,1.47
5626.00,1.47
5625.00,1.47
5624.00,1.48
5623.00,1.48
5622.00,1.48
5621.00,1.48
5620.00,1.48
5619.00,1.49
5618.00,1.49
5617.00,1.49
5616.00,1.49
5615.00,1.50
5614.00,1.50
5613.00,1.50
5612.00,1.50
5611.00,1.51
5610.00,1.51
5609.00,1.51
5608.00,1.51
5607.00,1.52
5606.00,1.52
5605.00,1.52
5604.00,1.53
5603.00,1.53
5602.00,1.53
5601.00,1.53
5600.00,1.54
5599.00,1.54
5598.00,1.54
5597.00,1.54
5596.00,1.55
5595.00,1.55
5594.00,1.55
5593.00,1.55
5592.00,1.55
5591.00,1.56
5590.00,1.56
5589.00,1.56
5588.00,1.56
5587.00,1.57
5586.00,1.57
5585.00,1.57
5584.00,1.57
5583.00,1.58
5582.00,1.58
5581.00,1.58
5580.00,1.58
5579.00,1.58
5578.00,1.59
5577.00,1.59
5576.00,1.59
5575.00,1.59
5574.00,1.59
5573.00,1.59
5572.00,1.60
5571.00,1.60
5570.00,1.60
5569.00,1.60
5568.00,1.60
5567.00,1.60
5566.00,1.60
5565.00,1.61
5564.00,1.61
5563.00,1.61
5562.00,1.61
5561.00,1.61
5560.00,1.62
5559.00,1.62
5558.00,1.62
5557.00,1.62
5556.00,1.63
5555.00,1.63
5554.00,1.63
5553.00,1.63
5552.00,1.63
5551.00,1.64
5550.00,1.64
5549.00,1.64
5548.00,1.64
5547.00,1.64
5546.00,1.64
5545.00,1.65
5544.00,1.65
5543.00,1.65
5542.00,1.65
5541.00,1.65
5540.00,1.65
5539.00,1.66
5538.00,1.66
5537.00,1.66
5536.00,1.66
5535.00,1.66
5534.00,1.67
5533.00,1.67
5532.00,1.67
5531.00,1.67
5530.00,1.67
5529.00,1.68
5528.00,1.68
5527.00,1.68
5526.00,1.68
5525.00,1.68
5524.00,1.68
5523.00,1.69
5522.00,1.69
5521.00,1.69
5520.00,1.69
5519.00,1.69
5518.00,1.69
5517.00,1.69
5516.00,1.69
5515.00,1.70
5514.00,1.70
5513.00,1.70
5512.00,1.70
5511.00,1.70
5510.00,1.70
5509.00,1.70
5508.00,1.70
5507.00,1.71
5506.00,1.71
5505.00,1.71
5504.00,1.71
5503.00,1.71
5502.00,1.71
5501.00,1.71
5500.00,1.71
5499.00,1.72
5498.00,1.72
5497.00,1.72
5496.00,1.72
5495.00,1.72
5494.00,1.72
5493.00,1.73
5492.00,1.73
5491.00,1.73
5490.00,1.73
5489.00,1.73
5488.00,1.73
5487.00,1.74
5486.00,1.74
5485.00,1.74
5484.00,1.74
5483.00,1.74
5482.00,1.74
5481.00,1.75
5480.00,1.75
5479.00,1.75
5478.00,1.75
5477.00,1.75
5476.00,1.75
5475.00,1.75
5474.00,1.76
5473.00,1.76
5472.00,1.76
5471.00,1.76
5470.00,1.76
5469.00,1.77
5468.00,1.77
5467.00,1.77
5466.00,1.77
5465.00,1.77
5464.00,1.78
5463.00,1.78
5462.00,1.78
5461.00,1.78
5460.00,1.79
5459.00,1.79
5458.00,1.79
5457.00,1.79
5456.00,1.79
5455.00,1.79
5454.00,1.79
5453.00,1.80
5452.00,1.80
5451.00,1.80
5450.00,1.80
5449.00,1.80
5448.00,1.80
5447.00,1.80
5446.00,1.80
5445.00,1.80
5444.00,1.80
5443.00,1.80
5442.00,1.80
5441.00,1.80
5440.00,1.80
5439.00,1.80
5438.00,1.80
5437.00,1.80
5436.00,1.80
5435.00,1.80
5434.00,1.80
5433.00,1.80
5432.00,1.80
5431.00,1.81
5430.00,1.81
5429.00,1.81
5428.00,1.81
5427.00,1.81
5426.00,1.81
5425.00,1.81
5424.00,1.81
5423.00,1.81
5422.00,1.81
5421.00,1.81
5420.00,1.81
5419.00,1.81
5418.00,1.81
5417.00,1.81
5416.00,1.81
5415.00,1.81
5414.00,1.81
5413.00,1.81
5412.00,1.81
5411.00,1.81
5410.00,1.81
5409.00,1.81
5408.00,1.81
5407.00,1.81
5406.00,1.81
5405.00,1.81
5404.00,1.81
5403.00,1.80
5402.00,1.80
5401.00,1.80
5400.00,1.80
5399.00,1.80
5398.00,1.80
5397.00,1.80
5396.00,1.80
5395.00,1.79
5394.00,1.79
5393.00,1.79
5392.00,1.79
5391.00,1.79
5390.00,1.78
5389.00,1.78
5388.00,1.78
5387.00,1.78
5386.00,1.77
5385.00,1.77
5384.00,1.77
5383.00,1.76
5382.00,1.76
5381.00,1.75
5380.00,1.75
5379.00,1.75
5378.00,1.74
5377.00,1.74
5376.00,1.73
5375.00,1.73
5374.00,1.72
5373.00,1.72
5372.00,1.71
5371.00,1.71
5370.00,1.70
5369.00,1.69
5368.00,1.69
5367.00,1.68
5366.00,1.67
5365.00,1.67
5364.00,1.66
5363.00,1.65
5362.00,1.64
5361.00,1.63
5360.00,1.63
5359.00,1.62
5358.00,1.61
5357.00,1.60
5356.00,1.59
5355.00,1.57
5354.00,1.56
5353.00,1.55
5352.00,1.54
5351.00,1.53
5350.00,1.51
5349.00,1.50
5348.00,1.49
5347.00,1.47
5346.00,1.46
5345.00,1.45
5344.00,1.43
5343.00,1.42
5342.00,1.40
5341.00,1.39
5340.00,1.37
5339.00,1.35
5338.00,1.34
5337.00,1.32
5336.00,1.31
5335.00,1.29
5334.00,1.27
5333.00,1.26
5332.00,1.24
5331.00,1.23
5330.00,1.21
5329.00,1.19
5328.00,1.18
5327.00,1.16
5326.00,1.14
5325.00,1.13
5324.00,1.11
5323.00,1.10
5322.00,1.08
5321.00,1.06
5320.00,1.05
5319.00,1.03
5318.00,1.02
5317.00,1.00
5316.00,0.99
5315.00,0.97
5314.00,0.96
5313.00,0.94
5312.00,0.93
5311.00,0.91
5310.00,0.90
5309.00,0.88
5308.00,0.87
5307.00,0.86
5306.00,0.85
5305.00,0.84
5304.00,0.82
5303.00,0.81
5302.00,0.80
5301.00,0.79
5300.00,0.78
5299.00,0.78
5298.00,0.77
5297.00,0.76
5296.00,0.75
5295.00,0.75
5294.00,0.74
5293.00,0.73
5292.00,0.73
5291.00,0.72
5290.00,0.72
5289.00,0.72
5288.00,0.71
5287.00,0.71
5286.00,0.70
5285.00,0.70
5284.00,0.70
5283.00,0.70
5282.00,0.69
5281.00,0.69
5280.00,0.69
5279.00,0.69
5278.00,0.68
5277.00,0.68
5276.00,0.68
5275.00,0.68
5274.00,0.67
5273.00,0.67
5272.00,0.67
5271.00,0.67
5270.00,0.67
5269.00,0.66
5268.00,0.66
5267.00,0.66
5266.00,0.66
5265.00,0.66
5264.00,0.66
5263.00,0.65
5262.00,0.65
5261.00,0.65
5260.00,0.65
5259.00,0.65
5258.00,0.65
5257.00,0.65
5256.00,0.65
5255.00,0.65
5254.00,0.65
5253.00,0.65
5252.00,0.65
5251.00,0.65
5250.00,0.65
5249.00,0.65
5248.00,0.65
5247.00,0.65
5246.00,0.65
5245.00,0.65
5244.00,0.65
5243.00,0.65
5242.00,0.65
5241.00,0.65
5240.00,0.65
5239.00,0.65
5238.00,0.65
5237.00,0.65
5236.00,0.65
5235.00,0.65
5234.00,0.65
5233.00,0.65
5232.00,0.65
5231.00,0.65
5230.00,0.65
5229.00,0.65
5228.00,0.65
5227.00,0.65
5226.00,0.65
5225.00,0.65
5224.00,0.65
5223.00,0.65
5222.00,0.65
5221.00,0.65
5220.00,0.65
5219.00,0.65
5218.00,0.65
5217.00,0.65
5216.00,0.65
5215.00,0.65
5214.00,0.65
5213.00,0.65
5212.00,0.65
5211.00,0.65
5210.00,0.65
5209.00,0.65
5208.00,0.65
5207.00,0.65
5206.00,0.65
5205.00,0.65
5204.00,0.65
5203.00,0.65
5202.00,0.65
5201.00,0.65
5200.00,0.65
5199.00,0.65
5198.00,0.65
5197.00,0.65
5196.00,0.65
5195.00,0.65
5194.00,0.65
5193.00,0.65
5192.00,0.66
5191.00,0.66
5190.00,0.66
5189.00,0.66
5188.00,0.66
5187.00,0.66
5186.00,0.66
5185.00,0.66
5184.00,0.66
5183.00,0.66
5182.00,0.66
5181.00,0.66
5180.00,0.67
5179.00,0.67
5178.00,0.67
5177.00,0.67
5176.00,0.67
5175.00,0.67
5174.00,0.67
5173.00,0.67
5172.00,0.67
5171.00,0.67
5170.00,0.67
5169.00,0.67
5168.00,0.67
5167.00,0.67
5166.00,0.67
5165.00,0.67
5164.00,0.67
5163.00,0.67
5162.00,0.68
5161.00,0.68
5160.00,0.68
5159.00,0.68
5158.00,0.68
5157.00,0.68
5156.00,0.68
5155.00,0.68
5154.00,0.69
5153.00,0.69
5152.00,0.69
5151.00,0.69
5150.00,0.69
5149.00,0.69
5148.00,0.69
5147.00,0.70
5146.00,0.70
5145.00,0.70
5144.00,0.70
5143.00,0.70
5142.00,0.70
5141.00,0.70
5140.00,0.71
5139.00,0.71
5138.00,0.71
5137.00,0.71
5136.00,0.71
5135.00,0.71
5134.00,0.71
5133.00,0.71
5132.00,0.71
5131.00,0.71
5130.00,0.71
5129.00,0.71
5128.00,0.71
5127.00,0.71
5126.00,0.71
5125.00,0.71
5124.00,0.71
5123.00,0.71
5122.00,0.71
5121.00,0.71
5120.00,0.71
5119.00,0.71
5118.00,0.71
5117.00,0.71
5116.00,0.71
5115.00,0.71
5114.00,0.71
5113.00,0.71
5112.00,0.71
5111.00,0.71
5110.00,0.71
5109.00,0.72
5108.00,0.72
5107.00,0.72
5106.00,0.72
5105.00,0.72
5104.00,0.72
5103.00,0.72
5102.00,0.72
5101.00,0.72
5100.00,0.72
5099.00,0.72
5098.00,0.72
5097.00,0.72
5096.00,0.72
5095.00,0.72
5094.00,0.72
5093.00,0.73
5092.00,0.73
5091.00,0.73
5090.00,0.73
5089.00,0.73
5088.00,0.73
5087.00,0.73
5086.00,0.73
5085.00,0.74
5084.00,0.74
5083.00,0.74
5082.00,0.74
5081.00,0.74
5080.00,0.74
5079.00,0.74
5078.00,0.74
5077.00,0.74
5076.00,0.74
5075.00,0.74
5074.00,0.74
5073.00,0.75
5072.00,0.75
5071.00,0.75
5070.00,0.75
5069.00,0.75
5068.00,0.75
5067.00,0.75
5066.00,0.75
5065.00,0.75
5064.00,0.76
5063.00,0.76
5062.00,0.76
5061.00,0.76
5060.00,0.76
5059.00,0.76
5058.00,0.76
5057.00,0.76
5056.00,0.77
5055.00,0.77
5054.00,0.77
5053.00,0.77
5052.00,0.77
5051.00,0.77
5050.00,0.77
5049.00,0.77
5048.00,0.77
5047.00,0.77
5046.00,0.77
5045.00,0.78
5044.00,0.78
5043.00,0.78
5042.00,0.78
5041.00,0.78
5040.00,0.78
5039.00,0.78
5038.00,0.78
5037.00,0.79
5036.00,0.79
5035.00,0.79
5034.00,0.79
5033.00,0.79
5032.00,0.79
5031.00,0.79
5030.00,0.79
5029.00,0.79
5028.00,0.79
5027.00,0.79
5026.00,0.80
5025.00,0.80
5024.00,0.80
5023.00,0.80
5022.00,0.80
5021.00,0.80
5020.00,0.80
5019.00,0.80
5018.00,0.80
5017.00,0.81
5016.00,0.81
5015.00,0.81
5014.00,0.81
5013.00,0.81
5012.00,0.82
5011.00,0.82
5010.00,0.82
5009.00,0.82
5008.00,0.82
5007.00,0.82
5006.00,0.83
5005.00,0.83
5004.00,0.83
5003.00,0.83
5002.00,0.83
5001.00,0.83
5000.00,0.84
4999.00,0.84
4998.00,0.84
4997.00,0.84
4996.00,0.84
4995.00,0.84
4994.00,0.84
4993.00,0.84
4992.00,0.85
4991.00,0.85
4990.00,0.85
4989.00,0.85
4988.00,0.85
4987.00,0.85
4986.00,0.85
4985.00,0.85
4984.00,0.86
4983.00,0.86
4982.00,0.86
4981.00,0.86
4980.00,0.86
4979.00,0.86
4978.00,0.86
4977.00,0.86
4976.00,0.87
4975.00,0.87
4974.00,0.87
4973.00,0.87
4972.00,0.87
4971.00,0.87
4970.00,0.88
4969.00,0.88
4968.00,0.88
4967.00,0.88
4966.00,0.89
4965.00,0.89
4964.00,0.89
4963.00,0.89
4962.00,0.90
4961.00,0.90
4960.00,0.90
4959.00,0.90
4958.00,0.90
4957.00,0.90
4956.00,0.90
4955.00,0.91
4954.00,0.91
4953.00,0.91
4952.00,0.91
4951.00,0.91
4950.00,0.91
4949.00,0.91
4948.00,0.91
4947.00,0.91
4946.00,0.91
4945.00,0.91
4944.00,0.91
4943.00,0.91
4942.00,0.92
4941.00,0.92
4940.00,0.92
4939.00,0.92
4938.00,0.92
4937.00,0.92
4936.00,0.92
4935.00,0.92
4934.00,0.92
4933.00,0.93
4932.00,0.93
4931.00,0.93
4930.00,0.93
4929.00,0.93
4928.00,0.93
4927.00,0.94
4926.00,0.94
4925.00,0.94
4924.00,0.94
4923.00,0.94
4922.00,0.95
4921.00,0.95
4920.00,0.95
4919.00,0.95
4918.00,0.95
4917.00,0.95
4916.00,0.96
4915.00,0.96
4914.00,0.96
4913.00,0.96
4912.00,0.96
4911.00,0.96
4910.00,0.96
4909.00,0.96
4908.00,0.97
4907.00,0.97
4906.00,0.97
4905.00,0.97
4904.00,0.97
4903.00,0.97
4902.00,0.97
4901.00,0.97
4900.00,0.97
4899.00,0.97
4898.00,0.97
4897.00,0.97
4896.00,0.97
4895.00,0.97
4894.00,0.97
4893.00,0.97
4892.00,0.97
4891.00,0.97
4890.00,0.97
4889.00,0.98
4888.00,0.98
4887.00,0.98
4886.00,0.98
4885.00,0.98
4884.00,0.98
4883.00,0.98
4882.00,0.98
4881.00,0.98
4880.00,0.98
4879.00,0.98
4878.00,0.98
4877.00,0.99
4876.00,0.99
4875.00,0.99
4874.00,0.99
4873.00,0.99
4872.00,0.99
4871.00,0.99
4870.00,0.99
4869.00,0.99
4868.00,0.99
4867.00,0.99
4866.00,1.00
4865.00,1.00
4864.00,1.00
4863.00,1.00
4862.00,1.00
4861.00,1.00
4860.00,1.00
4859.00,1.00
4858.00,1.00
4857.00,1.00
4856.00,1.00
4855.00,1.01
4854.00,1.01
4853.00,1.01
4852.00,1.01
4851.00,1.01
4850.00,1.01
4849.00,1.01
4848.00,1.01
4847.00,1.01
4846.00,1.02
4845.00,1.02
4844.00,1.02
4843.00,1.02
4842.00,1.02
4841.00,1.02
4840.00,1.02
4839.00,1.02
4838.00,1.02
4837.00,1.02
4836.00,1.02
4835.00,1.02
4834.00,1.02
4833.00,1.02
4832.00,1.02
4831.00,1.03
4830.00,1.03
4829.00,1.03
4828.00,1.03
4827.00,1.03
4826.00,1.03
4825.00,1.03
4824.00,1.03
4823.00,1.03
4822.00,1.04
4821.00,1.04
4820.00,1.04
4819.00,1.04
4818.00,1.04
4817.00,1.04
4816.00,1.05
4815.00,1.05
4814.00,1.05
4813.00,1.05
4812.00,1.05
4811.00,1.06
4810.00,1.06
4809.00,1.06
4808.00,1.06
4807.00,1.06
4806.00,1.07
4805.00,1.07
4804.00,1.07
4803.00,1.07
4802.00,1.08
4801.00,1.08
4800.00,1.08
4799.00,1.08
4798.00,1.09
4797.00,1.09
4796.00,1.09
4795.00,1.09
4794.00,1.10
4793.00,1.10
4792.00,1.10
4791.00,1.11
4790.00,1.11
4789.00,1.11
4788.00,1.11
4787.00,1.12
4786.00,1.12
4785.00,1.12
4784.00,1.12
4783.00,1.13
4782.00,1.13
4781.00,1.13
4780.00,1.13
4779.00,1.13
4778.00,1.14
4777.00,1.14
4776.00,1.14
4775.00,1.14
4774.00,1.15
4773.00,1.15
4772.00,1.15
4771.00,1.15
4770.00,1.15
4769.00,1.16
4768.00,1.16
4767.00,1.16
4766.00,1.16
4765.00,1.17
4764.00,1.17
4763.00,1.17
4762.00,1.18
4761.00,1.18
4760.00,1.18
4759.00,1.18
4758.00,1.19
4757.00,1.19
4756.00,1.19
4755.00,1.20
4754.00,1.20
4753.00,1.20
4752.00,1.21
4751.00,1.21
4750.00,1.21
4749.00,1.22
4748.00,1.22
4747.00,1.22
4746.00,1.22
4745.00,1.23
4744.00,1.23
4743.00,1.23
4742.00,1.23
4741.00,1.24
4740.00,1.24
4739.00,1.24
4738.00,1.24
4737.00,1.24
4736.00,1.25
4735.00,1.25
4734.00,1.25
4733.00,1.25
4732.00,1.25
4731.00,1.26
4730.00,1.26
4729.00,1.26
4728.00,1.27
4727.00,1.27
4726.00,1.27
4725.00,1.28
4724.00,1.28
4723.00,1.29
4722.00,1.29
4721.00,1.30
4720.00,1.30
4719.00,1.30
4718.00,1.31
4717.00,1.31
4716.00,1.32
4715.00,1.32
4714.00,1.32
4713.00,1.33
4712.00,1.33
4711.00,1.33
4710.00,1.34
4709.00,1.34
4708.00,1.34
4707.00,1.35
4706.00,1.35
4705.00,1.35
4704.00,1.35
4703.00,1.36
4702.00,1.36
4701.00,1.36
4700.00,1.36
4699.00,1.37
4698.00,1.37
4697.00,1.37
4696.00,1.38
4695.00,1.38
4694.00,1.38
4693.00,1.39
4692.00,1.39
4691.00,1.39
4690.00,1.39
4689.00,1.40
4688.00,1.40
4687.00,1.40
4686.00,1.41
4685.00,1.41
4684.00,1.41
4683.00,1.42
4682.00,1.42
4681.00,1.43
4680.00,1.43
4679.00,1.43
4678.00,1.43
4677.00,1.44
4676.00,1.44
4675.00,1.44
4674.00,1.45
4673.00,1.45
4672.00,1.45
4671.00,1.45
4670.00,1.46
4669.00,1.46
4668.00,1.46
4667.00,1.46
4666.00,1.47
4665.00,1.47
4664.00,1.47
4663.00,1.47
4662.00,1.47
4661.00,1.48
4660.00,1.48
4659.00,1.48
4658.00,1.48
4657.00,1.48
4656.00,1.48
4655.00,1.49
4654.00,1.49
4653.00,1.49
4652.00,1.49
4651.00,1.50
4650.00,1.50
4649.00,1.50
4648.00,1.50
4647.00,1.51
4646.00,1.51
4645.00,1.51
4644.00,1.51
4643.00,1.52
4642.00,1.52
4641.00,1.52
4640.00,1.52
4639.00,1.52
4638.00,1.52
4637.00,1.52
4636.00,1.53
4635.00,1.53
4634.00,1.53
4633.00,1.53
4632.00,1.53
4631.00,1.53
4630.00,1.53
4629.00,1.53
4628.00,1.53
4627.00,1.53
4626.00,1.54
4625.00,1.54
4624.00,1.54
4623.00,1.54
4622.00,1.54
4621.00,1.55
4620.00,1.55
4619.00,1.55
4618.00,1.55
4617.00,1.56
4616.00,1.56
4615.00,1.56
4614.00,1.56
4613.00,1.56
4612.00,1.57
4611.00,1.57
4610.00,1.57
4609.00,1.57
4608.00,1.58
4607.00,1.58
4606.00,1.58
4605.00,1.58
4604.00,1.59
4603.00,1.59
4602.00,1.59
4601.00,1.59
4600.00,1.60
4599.00,1.60
4598.00,1.60
4597.00,1.60
4596.00,1.60
4595.00,1.61
4594.00,1.61
4593.00,1.61
4592.00,1.61
4591.00,1.61
4590.00,1.61
4589.00,1.61
4588.00,1.62
4587.00,1.62
4586.00,1.62
4585.00,1.62
4584.00,1.62
4583.00,1.62
4582.00,1.62
4581.00,1.62
4580.00,1.62
4579.00,1.62
4578.00,1.62
4577.00,1.62
4576.00,1.63
4575.00,1.63
4574.00,1.63
4573.00,1.63
4572.00,1.63
4571.00,1.64
4570.00,1.64
4569.00,1.64
4568.00,1.65
4567.00,1.65
4566.00,1.65
4565.00,1.66
4564.00,1.66
4563.00,1.66
4562.00,1.66
4561.00,1.67
4560.00,1.67
4559.00,1.67
4558.00,1.67
4557.00,1.68
4556.00,1.68
4555.00,1.68
4554.00,1.68
4553.00,1.68
4552.00,1.68
4551.00,1.69
4550.00,1.69
4549.00,1.69
4548.00,1.69
4547.00,1.69
4546.00,1.69
4545.00,1.69
4544.00,1.69
4543.00,1.69
4542.00,1.69
4541.00,1.69
4540.00,1.70
4539.00,1.70
4538.00,1.70
4537.00,1.70
4536.00,1.70
4535.00,1.70
4534.00,1.70
4533.00,1.70
4532.00,1.70
4531.00,1.70
4530.00,1.70
4529.00,1.70
4528.00,1.70
4527.00,1.70
4526.00,1.70
4525.00,1.70
4524.00,1.70
4523.00,1.71
4522.00,1.71
4521.00,1.71
4520.00,1.71
4519.00,1.71
4518.00,1.71
4517.00,1.71
4516.00,1.71
4515.00,1.71
4514.00,1.72
4513.00,1.72
4512.00,1.72
4511.00,1.72
4510.00,1.72
4509.00,1.72
4508.00,1.72
4507.00,1.72
4506.00,1.72
4505.00,1.72
4504.00,1.72
4503.00,1.72
4502.00,1.72
4501.00,1.72
4500.00,1.72
4499.00,1.72
4498.00,1.71
4497.00,1.71
4496.00,1.71
4495.00,1.71
4494.00,1.71
4493.00,1.71
4492.00,1.70
4491.00,1.70
4490.00,1.70
4489.00,1.70
4488.00,1.69
4487.00,1.69
4486.00,1.69
4485.00,1.69
4484.00,1.68
4483.00,1.68
4482.00,1.68
4481.00,1.67
4480.00,1.67
4479.00,1.67
4478.00,1.66
4477.00,1.66
4476.00,1.65
4475.00,1.65
4474.00,1.64
4473.00,1.64
4472.00,1.63
4471.00,1.63
4470.00,1.62
4469.00,1.62
4468.00,1.61
4467.00,1.61
4466.00,1.60
4465.00,1.60
4464.00,1.59
4463.00,1.59
4462.00,1.58
4461.00,1.58
4460.00,1.57
4459.00,1.57
4458.00,1.56
4457.00,1.56
4456.00,1.55
4455.00,1.54
4454.00,1.54
4453.00,1.53
4452.00,1.52
4451.00,1.52
4450.00,1.51
4449.00,1.50
4448.00,1.49
4447.00,1.48
4446.00,1.48
4445.00,1.47
4444.00,1.46
4443.00,1.45
4442.00,1.44
4441.00,1.43
4440.00,1.42
4439.00,1.42
4438.00,1.41
4437.00,1.40
4436.00,1.39
4435.00,1.38
4434.00,1.38
4433.00,1.37
4432.00,1.36
4431.00,1.35
4430.00,1.34
4429.00,1.34
4428.00,1.33
4427.00,1.32
4426.00,1.32
4425.00,1.31
4424.00,1.31
4423.00,1.30
4422.00,1.30
4421.00,1.29
4420.00,1.29
4419.00,1.29
4418.00,1.29
4417.00,1.29
4416.00,1.29
4415.00,1.29
4414.00,1.29
4413.00,1.29
4412.00,1.29
4411.00,1.29
4410.00,1.29
4409.00,1.29
4408.00,1.30
4407.00,1.30
4406.00,1.30
4405.00,1.30
4404.00,1.30
4403.00,1.30
4402.00,1.31
4401.00,1.31
4400.00,1.31
4399.00,1.31
4398.00,1.31
4397.00,1.31
4396.00,1.31
4395.00,1.32
4394.00,1.32
4393.00,1.32
4392.00,1.32
4391.00,1.32
4390.00,1.32
4389.00,1.33
4388.00,1.33
4387.00,1.33
4386.00,1.33
4385.00,1.34
4384.00,1.34
4383.00,1.34
4382.00,1.34
4381.00,1.34
4380.00,1.35
4379.00,1.35
4378.00,1.35
4377.00,1.35
4376.00,1.36
4375.00,1.36
4374.00,1.36
4373.00,1.36
4372.00,1.36
4371.00,1.36
4370.00,1.36
4369.00,1.36
4368.00,1.37
4367.00,1.37
4366.00,1.37
4365.00,1.37
4364.00,1.37
4363.00,1.36
4362.00,1.36
4361.00,1.36
4360.00,1.36
4359.00,1.36
4358.00,1.36
4357.00,1.36
4356.00,1.36
4355.00,1.36
4354.00,1.35
4353.00,1.35
4352.00,1.35
4351.00,1.35
4350.00,1.35
4349.00,1.36
4348.00,1.36
4347.00,1.36
4346.00,1.36
4345.00,1.36
4344.00,1.36
4343.00,1.37
4342.00,1.37
4341.00,1.37
4340.00,1.37
4339.00,1.37
4338.00,1.38
4337.00,1.38
4336.00,1.38
4335.00,1.38
4334.00,1.38
4333.00,1.38
4332.00,1.38
4331.00,1.39
4330.00,1.39
4329.00,1.39
4328.00,1.39
4327.00,1.39
4326.00,1.39
4325.00,1.39
4324.00,1.40
4323.00,1.40
4322.00,1.40
4321.00,1.40
4320.00,1.41
4319.00,1.41
4318.00,1.41
4317.00,1.41
4316.00,1.42
4315.00,1.42
4314.00,1.42
4313.00,1.43
4312.00,1.43
4311.00,1.43
4310.00,1.44
4309.00,1.44
4308.00,1.44
4307.00,1.45
4306.00,1.45
4305.00,1.46
4304.00,1.46
4303.00,1.46
4302.00,1.47
4301.00,1.47
4300.00,1.48
4299.00,1.48
4298.00,1.48
4297.00,1.49
4296.00,1.49
4295.00,1.49
4294.00,1.50
4293.00,1.50
4292.00,1.50
4291.00,1.51
4290.00,1.51
4289.00,1.51
4288.00,1.52
4287.00,1.52
4286.00,1.52
4285.00,1.53
4284.00,1.53
4283.00,1.53
4282.00,1.53
4281.00,1.53
4280.00,1.53
4279.00,1.53
4278.00,1.53
4277.00,1.53
4276.00,1.53
4275.00,1.53
4274.00,1.53
4273.00,1.53
4272.00,1.53
4271.00,1.53
4270.00,1.53
4269.00,1.53
4268.00,1.53
4267.00,1.52
4266.00,1.52
4265.00,1.52
4264.00,1.52
4263.00,1.52
4262.00,1.52
4261.00,1.52
4260.00,1.52
4259.00,1.52
4258.00,1.52
4257.00,1.52
4256.00,1.52
4255.00,1.52
4254.00,1.52
4253.00,1.52
4252.00,1.53
4251.00,1.53
4250.00,1.53
4249.00,1.53
4248.00,1.53
4247.00,1.53
4246.00,1.53
4245.00,1.54
4244.00,1.54
4243.00,1.54
4242.00,1.54
4241.00,1.54
4240.00,1.55
4239.00,1.55
4238.00,1.55
4237.00,1.55
4236.00,1.56
4235.00,1.56
4234.00,1.56
4233.00,1.56
4232.00,1.57
4231.00,1.57
4230.00,1.57
4229.00,1.57
4228.00,1.58
4227.00,1.58
4226.00,1.58
4225.00,1.58
4224.00,1.59
4223.00,1.59
4222.00,1.59
4221.00,1.59
4220.00,1.60
4219.00,1.60
4218.00,1.60
4217.00,1.60
4216.00,1.61
4215.00,1.61
4214.00,1.61
4213.00,1.61
4212.00,1.62
4211.00,1.62
4210.00,1.62
4209.00,1.62
4208.00,1.62
4207.00,1.62
4206.00,1.63
4205.00,1.63
4204.00,1.63
4203.00,1.63
4202.00,1.63
4201.00,1.63
4200.00,1.63
4199.00,1.63
4198.00,1.63
4197.00,1.63
4196.00,1.63
4195.00,1.63
4194.00,1.63
4193.00,1.62
4192.00,1.62
4191.00,1.62
4190.00,1.62
4189.00,1.62
4188.00,1.61
4187.00,1.61
4186.00,1.61
4185.00,1.61
4184.00,1.60
4183.00,1.60
4182.00,1.60
4181.00,1.60
4180.00,1.60
4179.00,1.60
4178.00,1.59
4177.00,1.59
4176.00,1.59
4175.00,1.59
4174.00,1.60
4173.00,1.60
4172.00,1.60
4171.00,1.60
4170.00,1.60
4169.00,1.60
4168.00,1.61
4167.00,1.61
4166.00,1.61
4165.00,1.61
4164.00,1.62
4163.00,1.62
4162.00,1.62
4161.00,1.62
4160.00,1.62
4159.00,1.63
4158.00,1.63
4157.00,1.63
4156.00,1.63
4155.00,1.63
4154.00,1.63
4153.00,1.63
4152.00,1.63
4151.00,1.63
4150.00,1.63
4149.00,1.62
4148.00,1.62
4147.00,1.62
4146.00,1.62
4145.00,1.62
4144.00,1.62
4143.00,1.62
4142.00,1.62
4141.00,1.62
4140.00,1.62
4139.00,1.63
4138.00,1.63
4137.00,1.63
4136.00,1.63
4135.00,1.63
4134.00,1.63
4133.00,1.63
4132.00,1.63
4131.00,1.64
4130.00,1.64
4129.00,1.64
4128.00,1.64
4127.00,1.64
4126.00,1.64
4125.00,1.65
4124.00,1.65
4123.00,1.65
4122.00,1.65
4121.00,1.66
4120.00,1.66
4119.00,1.66
4118.00,1.66
4117.00,1.67
4116.00,1.67
4115.00,1.67
4114.00,1.67
4113.00,1.68
4112.00,1.68
4111.00,1.68
4110.00,1.68
4109.00,1.68
4108.00,1.68
4107.00,1.68
4106.00,1.68
4105.00,1.68
4104.00,1.68
4103.00,1.68
4102.00,1.68
4101.00,1.68
4100.00,1.68
4099.00,1.68
4098.00,1.68
4097.00,1.68
4096.00,1.68
4095.00,1.68
4094.00,1.67
4093.00,1.67
4092.00,1.67
4091.00,1.67
4090.00,1.67
4089.00,1.67
4088.00,1.67
4087.00,1.67
4086.00,1.67
4085.00,1.67
4084.00,1.67
4083.00,1.67
4082.00,1.68
4081.00,1.68
4080.00,1.68
4079.00,1.69
4078.00,1.69
4077.00,1.70
4076.00,1.70
4075.00,1.70
4074.00,1.71
4073.00,1.71
4072.00,1.71
4071.00,1.72
4070.00,1.72
4069.00,1.72
4068.00,1.72
4067.00,1.72
4066.00,1.73
4065.00,1.73
4064.00,1.73
4063.00,1.73
4062.00,1.73
4061.00,1.73
4060.00,1.73
4059.00,1.73
4058.00,1.73
4057.00,1.73
4056.00,1.74
4055.00,1.74
4054.00,1.74
4053.00,1.74
4052.00,1.74
4051.00,1.74
4050.00,1.75
4049.00,1.75
4048.00,1.75
4047.00,1.75
4046.00,1.75
4045.00,1.75
4044.00,1.76
4043.00,1.76
4042.00,1.76
4041.00,1.76
4040.00,1.77
4039.00,1.77
4038.00,1.77
4037.00,1.77
4036.00,1.78
4035.00,1.78
4034.00,1.78
4033.00,1.78
4032.00,1.79
4031.00,1.79
4030.00,1.79
4029.00,1.80
4028.00,1.80
4027.00,1.80
4026.00,1.80
4025.00,1.80
4024.00,1.81
4023.00,1.81
4022.00,1.81
4021.00,1.81
4020.00,1.81
4019.00,1.81
4018.00,1.80
4017.00,1.80
4016.00,1.80
4015.00,1.80
4014.00,1.80
4013.00,1.80
4012.00,1.80
4011.00,1.79
4010.00,1.79
4009.00,1.79
4008.00,1.79
4007.00,1.79
4006.00,1.79
4005.00,1.80
4004.00,1.80
4003.00,1.80
4002.00,1.80
4001.00,1.81
4000.00,1.81
