创建为新数据集,样品 088 用户 Administrator 日期 星期日, 十一月 05 2017
cm-1,%T
10000.00,1.63
9999.00,1.63
9998.00,1.62
9997.00,1.62
9996.00,1.61
9995.00,1.61
9994.00,1.61
9993.00,1.60
9992.00,1.60
9991.00,1.60
9990.00,1.60
9989.00,1.60
9988.00,1.60
9987.00,1.60
9986.00,1.59
9985.00,1.59
9984.00,1.60
9983.00,1.60
9982.00,1.60
9981.00,1.60
9980.00,1.60
9979.00,1.60
9978.00,1.60
9977.00,1.60
9976.00,1.60
9975.00,1.60
9974.00,1.60
9973.00,1.61
9972.00,1.61
9971.00,1.60
9970.00,1.60
9969.00,1.60
9968.00,1.60
9967.00,1.60
9966.00,1.60
9965.00,1.60
9964.00,1.60
9963.00,1.59
9962.00,1.59
9961.00,1.59
9960.00,1.59
9959.00,1.59
9958.00,1.59
9957.00,1.59
9956.00,1.59
9955.00,1.59
9954.00,1.59
9953.00,1.60
9952.00,1.60
9951.00,1.60
9950.00,1.60
9949.00,1.60
9948.00,1.60
9947.00,1.60
9946.00,1.60
9945.00,1.60
9944.00,1.60
9943.00,1.60
9942.00,1.60
9941.00,1.60
9940.00,1.60
9939.00,1.60
9938.00,1.60
9937.00,1.60
9936.00,1.60
9935.00,1.60
9934.00,1.61
9933.00,1.61
9932.00,1.61
9931.00,1.61
9930.00,1.61
9929.00,1.61
9928.00,1.62
9927.00,1.62
9926.00,1.62
9925.00,1.62
9924.00,1.62
9923.00,1.62
9922.00,1.62
9921.00,1.62
9920.00,1.62
9919.00,1.62
9918.00,1.62
9917.00,1.62
9916.00,1.61
9915.00,1.61
9914.00,1.61
9913.00,1.60
9912.00,1.60
9911.00,1.59
9910.00,1.59
9909.00,1.59
9908.00,1.58
9907.00,1.58
9906.00,1.58
9905.00,1.57
9904.00,1.57
9903.00,1.57
9902.00,1.57
9901.00,1.57
9900.00,1.56
9899.00,1.56
9898.00,1.56
9897.00,1.56
9896.00,1.56
9895.00,1.56
9894.00,1.56
9893.00,1.56
9892.00,1.57
9891.00,1.57
9890.00,1.57
9889.00,1.57
9888.00,1.57
9887.00,1.57
9886.00,1.57
9885.00,1.57
9884.00,1.57
9883.00,1.57
9882.00,1.57
9881.00,1.57
9880.00,1.56
9879.00,1.56
9878.00,1.56
9877.00,1.56
9876.00,1.56
9875.00,1.56
9874.00,1.56
9873.00,1.56
9872.00,1.56
9871.00,1.57
9870.00,1.57
9869.00,1.57
9868.00,1.58
9867.00,1.58
9866.00,1.58
9865.00,1.59
9864.00,1.59
9863.00,1.60
9862.00,1.60
9861.00,1.60
9860.00,1.61
9859.00,1.61
9858.00,1.61
9857.00,1.61
9856.00,1.61
9855.00,1.61
9854.00,1.62
9853.00,1.62
9852.00,1.61
9851.00,1.61
9850.00,1.61
9849.00,1.61
9848.00,1.61
9847.00,1.61
9846.00,1.61
9845.00,1.61
9844.00,1.61
9843.00,1.61
9842.00,1.60
9841.00,1.60
9840.00,1.60
9839.00,1.60
9838.00,1.60
9837.00,1.60
9836.00,1.60
9835.00,1.61
9834.00,1.61
9833.00,1.61
9832.00,1.61
9831.00,1.61
9830.00,1.61
9829.00,1.62
9828.00,1.62
9827.00,1.62
9826.00,1.62
9825.00,1.62
9824.00,1.62
9823.00,1.62
9822.00,1.62
9821.00,1.62
9820.00,1.62
9819.00,1.62
9818.00,1.62
9817.00,1.62
9816.00,1.62
9815.00,1.61
9814.00,1.61
9813.00,1.61
9812.00,1.61
9811.00,1.60
9810.00,1.60
9809.00,1.60
9808.00,1.59
9807.00,1.59
9806.00,1.59
9805.00,1.59
9804.00,1.59
9803.00,1.58
9802.00,1.58
9801.00,1.58
9800.00,1.58
9799.00,1.58
9798.00,1.58
9797.00,1.58
9796.00,1.58
9795.00,1.58
9794.00,1.58
9793.00,1.58
9792.00,1.58
9791.00,1.58
9790.00,1.58
9789.00,1.58
9788.00,1.58
9787.00,1.58
9786.00,1.58
9785.00,1.58
9784.00,1.58
9783.00,1.58
9782.00,1.58
9781.00,1.58
9780.00,1.58
9779.00,1.57
9778.00,1.57
9777.00,1.57
9776.00,1.57
9775.00,1.57
9774.00,1.57
9773.00,1.57
9772.00,1.57
9771.00,1.56
9770.00,1.56
9769.00,1.56
9768.00,1.56
9767.00,1.56
9766.00,1.56
9765.00,1.56
9764.00,1.56
9763.00,1.56
9762.00,1.56
9761.00,1.56
9760.00,1.56
9759.00,1.56
9758.00,1.56
9757.00,1.56
9756.00,1.56
9755.00,1.56
9754.00,1.56
9753.00,1.56
9752.00,1.57
9751.00,1.57
9750.00,1.57
9749.00,1.57
9748.00,1.57
9747.00,1.57
9746.00,1.58
9745.00,1.58
9744.00,1.58
9743.00,1.58
9742.00,1.59
9741.00,1.59
9740.00,1.59
9739.00,1.59
9738.00,1.59
9737.00,1.60
9736.00,1.60
9735.00,1.60
9734.00,1.60
9733.00,1.60
9732.00,1.60
9731.00,1.60
9730.00,1.60
9729.00,1.60
9728.00,1.59
9727.00,1.59
9726.00,1.59
9725.00,1.59
9724.00,1.59
9723.00,1.59
9722.00,1.58
9721.00,1.58
9720.00,1.58
9719.00,1.58
9718.00,1.58
9717.00,1.57
9716.00,1.57
9715.00,1.57
9714.00,1.57
9713.00,1.57
9712.00,1.57
9711.00,1.57
9710.00,1.56
9709.00,1.56
9708.00,1.56
9707.00,1.57
9706.00,1.57
9705.00,1.57
9704.00,1.57
9703.00,1.57
9702.00,1.57
9701.00,1.57
9700.00,1.57
9699.00,1.57
9698.00,1.58
9697.00,1.58
9696.00,1.58
9695.00,1.58
9694.00,1.58
9693.00,1.58
9692.00,1.58
9691.00,1.58
9690.00,1.58
9689.00,1.58
9688.00,1.58
9687.00,1.58
9686.00,1.58
9685.00,1.57
9684.00,1.57
9683.00,1.57
9682.00,1.57
9681.00,1.57
9680.00,1.57
9679.00,1.57
9678.00,1.57
9677.00,1.57
9676.00,1.57
9675.00,1.58
9674.00,1.58
9673.00,1.58
9672.00,1.58
9671.00,1.58
9670.00,1.58
9669.00,1.58
9668.00,1.58
9667.00,1.58
9666.00,1.57
9665.00,1.57
9664.00,1.57
9663.00,1.57
9662.00,1.57
9661.00,1.57
9660.00,1.57
9659.00,1.57
9658.00,1.57
9657.00,1.57
9656.00,1.56
9655.00,1.56
9654.00,1.56
9653.00,1.56
9652.00,1.56
9651.00,1.56
9650.00,1.56
9649.00,1.56
9648.00,1.56
9647.00,1.56
9646.00,1.56
9645.00,1.56
9644.00,1.56
9643.00,1.56
9642.00,1.56
9641.00,1.57
9640.00,1.57
9639.00,1.57
9638.00,1.57
9637.00,1.58
9636.00,1.58
9635.00,1.58
9634.00,1.58
9633.00,1.59
9632.00,1.59
9631.00,1.59
9630.00,1.59
9629.00,1.60
9628.00,1.60
9627.00,1.60
9626.00,1.60
9625.00,1.60
9624.00,1.60
9623.00,1.60
9622.00,1.59
9621.00,1.59
9620.00,1.59
9619.00,1.59
9618.00,1.58
9617.00,1.58
9616.00,1.58
9615.00,1.58
9614.00,1.57
9613.00,1.57
9612.00,1.57
9611.00,1.57
9610.00,1.57
9609.00,1.57
9608.00,1.57
9607.00,1.57
9606.00,1.57
9605.00,1.57
9604.00,1.57
9603.00,1.57
9602.00,1.57
9601.00,1.57
9600.00,1.57
9599.00,1.57
9598.00,1.57
9597.00,1.57
9596.00,1.57
9595.00,1.57
9594.00,1.57
9593.00,1.57
9592.00,1.57
9591.00,1.56
9590.00,1.56
9589.00,1.56
9588.00,1.56
9587.00,1.56
9586.00,1.56
9585.00,1.56
9584.00,1.56
9583.00,1.56
9582.00,1.56
9581.00,1.56
9580.00,1.56
9579.00,1.57
9578.00,1.57
9577.00,1.57
9576.00,1.57
9575.00,1.57
9574.00,1.57
9573.00,1.57
9572.00,1.58
9571.00,1.58
9570.00,1.58
9569.00,1.58
9568.00,1.58
9567.00,1.58
9566.00,1.58
9565.00,1.58
9564.00,1.58
9563.00,1.58
9562.00,1.57
9561.00,1.57
9560.00,1.57
9559.00,1.57
9558.00,1.57
9557.00,1.57
9556.00,1.57
9555.00,1.57
9554.00,1.57
9553.00,1.57
9552.00,1.57
9551.00,1.57
9550.00,1.57
9549.00,1.57
9548.00,1.57
9547.00,1.57
9546.00,1.58
9545.00,1.58
9544.00,1.58
9543.00,1.58
9542.00,1.58
9541.00,1.58
9540.00,1.58
9539.00,1.58
9538.00,1.58
9537.00,1.58
9536.00,1.59
9535.00,1.59
9534.00,1.59
9533.00,1.59
9532.00,1.59
9531.00,1.59
9530.00,1.59
9529.00,1.59
9528.00,1.59
9527.00,1.59
9526.00,1.60
9525.00,1.60
9524.00,1.60
9523.00,1.60
9522.00,1.60
9521.00,1.60
9520.00,1.60
9519.00,1.60
9518.00,1.60
9517.00,1.61
9516.00,1.61
9515.00,1.61
9514.00,1.61
9513.00,1.61
9512.00,1.61
9511.00,1.60
9510.00,1.60
9509.00,1.60
9508.00,1.60
9507.00,1.60
9506.00,1.59
9505.00,1.59
9504.00,1.59
9503.00,1.58
9502.00,1.58
9501.00,1.57
9500.00,1.57
9499.00,1.57
9498.00,1.57
9497.00,1.56
9496.00,1.56
9495.00,1.56
9494.00,1.56
9493.00,1.56
9492.00,1.56
9491.00,1.56
9490.00,1.56
9489.00,1.56
9488.00,1.56
9487.00,1.56
9486.00,1.56
9485.00,1.56
9484.00,1.56
9483.00,1.56
9482.00,1.57
9481.00,1.57
9480.00,1.57
9479.00,1.57
9478.00,1.57
9477.00,1.57
9476.00,1.57
9475.00,1.58
9474.00,1.58
9473.00,1.58
9472.00,1.58
9471.00,1.58
9470.00,1.58
9469.00,1.58
9468.00,1.58
9467.00,1.57
9466.00,1.57
9465.00,1.57
9464.00,1.57
9463.00,1.57
9462.00,1.57
9461.00,1.57
9460.00,1.56
9459.00,1.56
9458.00,1.56
9457.00,1.56
9456.00,1.56
9455.00,1.56
9454.00,1.56
9453.00,1.56
9452.00,1.56
9451.00,1.56
9450.00,1.57
9449.00,1.57
9448.00,1.57
9447.00,1.57
9446.00,1.57
9445.00,1.57
9444.00,1.57
9443.00,1.57
9442.00,1.57
9441.00,1.57
9440.00,1.57
9439.00,1.58
9438.00,1.58
9437.00,1.58
9436.00,1.58
9435.00,1.58
9434.00,1.58
9433.00,1.58
9432.00,1.58
9431.00,1.58
9430.00,1.58
9429.00,1.58
9428.00,1.58
9427.00,1.58
9426.00,1.59
9425.00,1.59
9424.00,1.59
9423.00,1.59
9422.00,1.59
9421.00,1.59
9420.00,1.59
9419.00,1.59
9418.00,1.59
9417.00,1.58
9416.00,1.58
9415.00,1.58
9414.00,1.58
9413.00,1.58
9412.00,1.58
9411.00,1.58
9410.00,1.58
9409.00,1.58
9408.00,1.57
9407.00,1.57
9406.00,1.57
9405.00,1.57
9404.00,1.57
9403.00,1.57
9402.00,1.57
9401.00,1.57
9400.00,1.57
9399.00,1.57
9398.00,1.57
9397.00,1.57
9396.00,1.57
9395.00,1.58
9394.00,1.58
9393.00,1.58
9392.00,1.58
9391.00,1.58
9390.00,1.58
9389.00,1.58
9388.00,1.59
9387.00,1.59
9386.00,1.59
9385.00,1.59
9384.00,1.59
9383.00,1.59
9382.00,1.59
9381.00,1.59
9380.00,1.59
9379.00,1.59
9378.00,1.59
9377.00,1.59
9376.00,1.58
9375.00,1.58
9374.00,1.58
9373.00,1.58
9372.00,1.59
9371.00,1.59
9370.00,1.59
9369.00,1.59
9368.00,1.59
9367.00,1.59
9366.00,1.59
9365.00,1.59
9364.00,1.59
9363.00,1.59
9362.00,1.59
9361.00,1.58
9360.00,1.58
9359.00,1.58
9358.00,1.58
9357.00,1.58
9356.00,1.58
9355.00,1.58
9354.00,1.57
9353.00,1.57
9352.00,1.57
9351.00,1.57
9350.00,1.57
9349.00,1.57
9348.00,1.57
9347.00,1.58
9346.00,1.58
9345.00,1.58
9344.00,1.58
9343.00,1.58
9342.00,1.59
9341.00,1.59
9340.00,1.59
9339.00,1.59
9338.00,1.60
9337.00,1.60
9336.00,1.60
9335.00,1.60
9334.00,1.60
9333.00,1.60
9332.00,1.60
9331.00,1.60
9330.00,1.59
9329.00,1.59
9328.00,1.59
9327.00,1.59
9326.00,1.58
9325.00,1.58
9324.00,1.58
9323.00,1.58
9322.00,1.57
9321.00,1.57
9320.00,1.57
9319.00,1.57
9318.00,1.56
9317.00,1.56
9316.00,1.56
9315.00,1.56
9314.00,1.56
9313.00,1.56
9312.00,1.56
9311.00,1.56
9310.00,1.56
9309.00,1.55
9308.00,1.55
9307.00,1.55
9306.00,1.55
9305.00,1.55
9304.00,1.55
9303.00,1.55
9302.00,1.55
9301.00,1.55
9300.00,1.55
9299.00,1.55
9298.00,1.56
9297.00,1.56
9296.00,1.56
9295.00,1.56
9294.00,1.56
9293.00,1.56
9292.00,1.56
9291.00,1.56
9290.00,1.56
9289.00,1.57
9288.00,1.57
9287.00,1.57
9286.00,1.57
9285.00,1.57
9284.00,1.58
9283.00,1.58
9282.00,1.58
9281.00,1.59
9280.00,1.59
9279.00,1.59
9278.00,1.60
9277.00,1.60
9276.00,1.60
9275.00,1.61
9274.00,1.61
9273.00,1.61
9272.00,1.62
9271.00,1.62
9270.00,1.62
9269.00,1.62
9268.00,1.62
9267.00,1.62
9266.00,1.62
9265.00,1.62
9264.00,1.62
9263.00,1.62
9262.00,1.62
9261.00,1.62
9260.00,1.62
9259.00,1.62
9258.00,1.62
9257.00,1.62
9256.00,1.62
9255.00,1.61
9254.00,1.61
9253.00,1.61
9252.00,1.61
9251.00,1.61
9250.00,1.61
9249.00,1.61
9248.00,1.60
9247.00,1.60
9246.00,1.60
9245.00,1.60
9244.00,1.60
9243.00,1.60
9242.00,1.59
9241.00,1.59
9240.00,1.59
9239.00,1.59
9238.00,1.59
9237.00,1.59
9236.00,1.59
9235.00,1.58
9234.00,1.58
9233.00,1.58
9232.00,1.58
9231.00,1.58
9230.00,1.58
9229.00,1.58
9228.00,1.58
9227.00,1.58
9226.00,1.58
9225.00,1.59
9224.00,1.59
9223.00,1.59
9222.00,1.59
9221.00,1.59
9220.00,1.59
9219.00,1.59
9218.00,1.59
9217.00,1.59
9216.00,1.59
9215.00,1.59
9214.00,1.59
9213.00,1.59
9212.00,1.59
9211.00,1.59
9210.00,1.59
9209.00,1.58
9208.00,1.58
9207.00,1.58
9206.00,1.58
9205.00,1.58
9204.00,1.57
9203.00,1.57
9202.00,1.57
9201.00,1.57
9200.00,1.57
9199.00,1.57
9198.00,1.57
9197.00,1.57
9196.00,1.57
9195.00,1.57
9194.00,1.58
9193.00,1.58
9192.00,1.58
9191.00,1.58
9190.00,1.58
9189.00,1.59
9188.00,1.59
9187.00,1.59
9186.00,1.59
9185.00,1.59
9184.00,1.59
9183.00,1.59
9182.00,1.59
9181.00,1.59
9180.00,1.59
9179.00,1.59
9178.00,1.59
9177.00,1.59
9176.00,1.59
9175.00,1.59
9174.00,1.59
9173.00,1.59
9172.00,1.59
9171.00,1.59
9170.00,1.60
9169.00,1.60
9168.00,1.60
9167.00,1.60
9166.00,1.60
9165.00,1.60
9164.00,1.60
9163.00,1.60
9162.00,1.60
9161.00,1.60
9160.00,1.60
9159.00,1.60
9158.00,1.60
9157.00,1.59
9156.00,1.59
9155.00,1.59
9154.00,1.58
9153.00,1.58
9152.00,1.57
9151.00,1.57
9150.00,1.57
9149.00,1.56
9148.00,1.56
9147.00,1.56
9146.00,1.56
9145.00,1.55
9144.00,1.55
9143.00,1.56
9142.00,1.56
9141.00,1.56
9140.00,1.56
9139.00,1.56
9138.00,1.57
9137.00,1.57
9136.00,1.57
9135.00,1.58
9134.00,1.58
9133.00,1.59
9132.00,1.59
9131.00,1.59
9130.00,1.60
9129.00,1.60
9128.00,1.60
9127.00,1.60
9126.00,1.60
9125.00,1.61
9124.00,1.61
9123.00,1.61
9122.00,1.60
9121.00,1.60
9120.00,1.60
9119.00,1.60
9118.00,1.60
9117.00,1.60
9116.00,1.59
9115.00,1.59
9114.00,1.59
9113.00,1.59
9112.00,1.59
9111.00,1.58
9110.00,1.58
9109.00,1.58
9108.00,1.58
9107.00,1.58
9106.00,1.58
9105.00,1.58
9104.00,1.58
9103.00,1.58
9102.00,1.58
9101.00,1.58
9100.00,1.58
9099.00,1.58
9098.00,1.58
9097.00,1.58
9096.00,1.58
9095.00,1.58
9094.00,1.58
9093.00,1.58
9092.00,1.58
9091.00,1.58
9090.00,1.59
9089.00,1.59
9088.00,1.59
9087.00,1.59
9086.00,1.59
9085.00,1.60
9084.00,1.60
9083.00,1.60
9082.00,1.60
9081.00,1.60
9080.00,1.60
9079.00,1.61
9078.00,1.61
9077.00,1.61
9076.00,1.61
9075.00,1.61
9074.00,1.61
9073.00,1.61
9072.00,1.61
9071.00,1.61
9070.00,1.61
9069.00,1.61
9068.00,1.61
9067.00,1.61
9066.00,1.60
9065.00,1.60
9064.00,1.60
9063.00,1.60
9062.00,1.60
9061.00,1.60
9060.00,1.59
9059.00,1.59
9058.00,1.59
9057.00,1.59
9056.00,1.59
9055.00,1.59
9054.00,1.58
9053.00,1.58
9052.00,1.58
9051.00,1.58
9050.00,1.58
9049.00,1.58
9048.00,1.58
9047.00,1.58
9046.00,1.58
9045.00,1.58
9044.00,1.58
9043.00,1.58
9042.00,1.58
9041.00,1.58
9040.00,1.58
9039.00,1.58
9038.00,1.58
9037.00,1.58
9036.00,1.58
9035.00,1.58
9034.00,1.58
9033.00,1.58
9032.00,1.58
9031.00,1.58
9030.00,1.58
9029.00,1.58
9028.00,1.58
9027.00,1.58
9026.00,1.58
9025.00,1.58
9024.00,1.58
9023.00,1.58
9022.00,1.58
9021.00,1.58
9020.00,1.59
9019.00,1.59
9018.00,1.59
9017.00,1.59
9016.00,1.59
9015.00,1.59
9014.00,1.59
9013.00,1.59
9012.00,1.59
9011.00,1.59
9010.00,1.59
9009.00,1.59
9008.00,1.60
9007.00,1.60
9006.00,1.60
9005.00,1.60
9004.00,1.60
9003.00,1.60
9002.00,1.59
9001.00,1.59
9000.00,1.59
8999.00,1.59
8998.00,1.59
8997.00,1.59
8996.00,1.59
8995.00,1.59
8994.00,1.59
8993.00,1.59
8992.00,1.59
8991.00,1.59
8990.00,1.59
8989.00,1.59
8988.00,1.59
8987.00,1.59
8986.00,1.59
8985.00,1.59
8984.00,1.59
8983.00,1.59
8982.00,1.59
8981.00,1.59
8980.00,1.59
8979.00,1.59
8978.00,1.59
8977.00,1.60
8976.00,1.60
8975.00,1.60
8974.00,1.60
8973.00,1.60
8972.00,1.60
8971.00,1.60
8970.00,1.60
8969.00,1.60
8968.00,1.60
8967.00,1.60
8966.00,1.60
8965.00,1.60
8964.00,1.60
8963.00,1.59
8962.00,1.59
8961.00,1.59
8960.00,1.59
8959.00,1.59
8958.00,1.59
8957.00,1.58
8956.00,1.58
8955.00,1.58
8954.00,1.58
8953.00,1.58
8952.00,1.58
8951.00,1.58
8950.00,1.58
8949.00,1.58
8948.00,1.58
8947.00,1.58
8946.00,1.58
8945.00,1.58
8944.00,1.59
8943.00,1.59
8942.00,1.59
8941.00,1.59
8940.00,1.59
8939.00,1.59
8938.00,1.59
8937.00,1.59
8936.00,1.59
8935.00,1.59
8934.00,1.59
8933.00,1.59
8932.00,1.59
8931.00,1.59
8930.00,1.58
8929.00,1.58
8928.00,1.58
8927.00,1.59
8926.00,1.59
8925.00,1.59
8924.00,1.59
8923.00,1.59
8922.00,1.59
8921.00,1.59
8920.00,1.59
8919.00,1.60
8918.00,1.60
8917.00,1.60
8916.00,1.60
8915.00,1.60
8914.00,1.60
8913.00,1.60
8912.00,1.60
8911.00,1.60
8910.00,1.60
8909.00,1.60
8908.00,1.60
8907.00,1.60
8906.00,1.60
8905.00,1.59
8904.00,1.59
8903.00,1.59
8902.00,1.59
8901.00,1.59
8900.00,1.58
8899.00,1.58
8898.00,1.58
8897.00,1.58
8896.00,1.58
8895.00,1.58
8894.00,1.58
8893.00,1.58
8892.00,1.58
8891.00,1.58
8890.00,1.57
8889.00,1.57
8888.00,1.57
8887.00,1.57
8886.00,1.57
8885.00,1.57
8884.00,1.57
8883.00,1.57
8882.00,1.57
8881.00,1.57
8880.00,1.57
8879.00,1.57
8878.00,1.57
8877.00,1.57
8876.00,1.57
8875.00,1.57
8874.00,1.57
8873.00,1.57
8872.00,1.57
8871.00,1.57
8870.00,1.58
8869.00,1.58
8868.00,1.58
8867.00,1.58
8866.00,1.58
8865.00,1.58
8864.00,1.58
8863.00,1.58
8862.00,1.58
8861.00,1.58
8860.00,1.58
8859.00,1.58
8858.00,1.58
8857.00,1.58
8856.00,1.58
8855.00,1.58
8854.00,1.58
8853.00,1.58
8852.00,1.58
8851.00,1.58
8850.00,1.58
8849.00,1.58
8848.00,1.58
8847.00,1.58
8846.00,1.58
8845.00,1.58
8844.00,1.58
8843.00,1.58
8842.00,1.58
8841.00,1.58
8840.00,1.58
8839.00,1.58
8838.00,1.58
8837.00,1.58
8836.00,1.58
8835.00,1.58
8834.00,1.57
8833.00,1.57
8832.00,1.57
8831.00,1.57
8830.00,1.57
8829.00,1.57
8828.00,1.57
8827.00,1.57
8826.00,1.57
8825.00,1.57
8824.00,1.57
8823.00,1.57
8822.00,1.57
8821.00,1.57
8820.00,1.56
8819.00,1.56
8818.00,1.56
8817.00,1.56
8816.00,1.56
8815.00,1.56
8814.00,1.56
8813.00,1.56
8812.00,1.56
8811.00,1.56
8810.00,1.56
8809.00,1.55
8808.00,1.55
8807.00,1.55
8806.00,1.55
8805.00,1.55
8804.00,1.55
8803.00,1.55
8802.00,1.55
8801.00,1.55
8800.00,1.55
8799.00,1.54
8798.00,1.54
8797.00,1.54
8796.00,1.54
8795.00,1.54
8794.00,1.54
8793.00,1.54
8792.00,1.54
8791.00,1.54
8790.00,1.54
8789.00,1.54
8788.00,1.54
8787.00,1.54
8786.00,1.54
8785.00,1.54
8784.00,1.54
8783.00,1.54
8782.00,1.55
8781.00,1.55
8780.00,1.55
8779.00,1.55
8778.00,1.55
8777.00,1.55
8776.00,1.55
8775.00,1.55
8774.00,1.55
8773.00,1.55
8772.00,1.55
8771.00,1.55
8770.00,1.55
8769.00,1.55
8768.00,1.55
8767.00,1.55
8766.00,1.55
8765.00,1.55
8764.00,1.55
8763.00,1.55
8762.00,1.55
8761.00,1.55
8760.00,1.55
8759.00,1.55
8758.00,1.55
8757.00,1.54
8756.00,1.54
8755.00,1.54
8754.00,1.54
8753.00,1.54
8752.00,1.54
8751.00,1.54
8750.00,1.54
8749.00,1.54
8748.00,1.54
8747.00,1.54
8746.00,1.54
8745.00,1.54
8744.00,1.54
8743.00,1.54
8742.00,1.54
8741.00,1.54
8740.00,1.53
8739.00,1.53
8738.00,1.53
8737.00,1.53
8736.00,1.53
8735.00,1.53
8734.00,1.53
8733.00,1.53
8732.00,1.53
8731.00,1.53
8730.00,1.53
8729.00,1.52
8728.00,1.52
8727.00,1.52
8726.00,1.52
8725.00,1.52
8724.00,1.52
8723.00,1.52
8722.00,1.52
8721.00,1.52
8720.00,1.52
8719.00,1.52
8718.00,1.52
8717.00,1.52
8716.00,1.52
8715.00,1.52
8714.00,1.52
8713.00,1.52
8712.00,1.52
8711.00,1.52
8710.00,1.52
8709.00,1.52
8708.00,1.52
8707.00,1.52
8706.00,1.52
8705.00,1.52
8704.00,1.52
8703.00,1.52
8702.00,1.53
8701.00,1.53
8700.00,1.53
8699.00,1.53
8698.00,1.53
8697.00,1.53
8696.00,1.53
8695.00,1.53
8694.00,1.53
8693.00,1.53
8692.00,1.53
8691.00,1.53
8690.00,1.53
8689.00,1.53
8688.00,1.53
8687.00,1.53
8686.00,1.53
8685.00,1.53
8684.00,1.53
8683.00,1.53
8682.00,1.53
8681.00,1.53
8680.00,1.53
8679.00,1.53
8678.00,1.53
8677.00,1.53
8676.00,1.53
8675.00,1.53
8674.00,1.53
8673.00,1.53
8672.00,1.53
8671.00,1.53
8670.00,1.53
8669.00,1.53
8668.00,1.53
8667.00,1.53
8666.00,1.53
8665.00,1.53
8664.00,1.53
8663.00,1.53
8662.00,1.53
8661.00,1.53
8660.00,1.53
8659.00,1.53
8658.00,1.53
8657.00,1.53
8656.00,1.53
8655.00,1.53
8654.00,1.53
8653.00,1.53
8652.00,1.53
8651.00,1.53
8650.00,1.53
8649.00,1.53
8648.00,1.53
8647.00,1.53
8646.00,1.53
8645.00,1.53
8644.00,1.53
8643.00,1.53
8642.00,1.53
8641.00,1.53
8640.00,1.53
8639.00,1.53
8638.00,1.53
8637.00,1.53
8636.00,1.53
8635.00,1.53
8634.00,1.53
8633.00,1.53
8632.00,1.53
8631.00,1.53
8630.00,1.53
8629.00,1.53
8628.00,1.53
8627.00,1.53
8626.00,1.53
8625.00,1.53
8624.00,1.53
8623.00,1.52
8622.00,1.52
8621.00,1.52
8620.00,1.52
8619.00,1.52
8618.00,1.51
8617.00,1.51
8616.00,1.51
8615.00,1.51
8614.00,1.50
8613.00,1.50
8612.00,1.50
8611.00,1.50
8610.00,1.50
8609.00,1.50
8608.00,1.50
8607.00,1.50
8606.00,1.50
8605.00,1.50
8604.00,1.50
8603.00,1.50
8602.00,1.50
8601.00,1.50
8600.00,1.50
8599.00,1.50
8598.00,1.50
8597.00,1.51
8596.00,1.51
8595.00,1.51
8594.00,1.51
8593.00,1.51
8592.00,1.51
8591.00,1.51
8590.00,1.51
8589.00,1.51
8588.00,1.51
8587.00,1.51
8586.00,1.51
8585.00,1.51
8584.00,1.51
8583.00,1.51
8582.00,1.51
8581.00,1.51
8580.00,1.51
8579.00,1.51
8578.00,1.51
8577.00,1.51
8576.00,1.51
8575.00,1.50
8574.00,1.50
8573.00,1.50
8572.00,1.50
8571.00,1.50
8570.00,1.50
8569.00,1.50
8568.00,1.50
8567.00,1.49
8566.00,1.49
8565.00,1.49
8564.00,1.49
8563.00,1.49
8562.00,1.49
8561.00,1.49
8560.00,1.49
8559.00,1.49
8558.00,1.48
8557.00,1.48
8556.00,1.48
8555.00,1.49
8554.00,1.49
8553.00,1.49
8552.00,1.49
8551.00,1.49
8550.00,1.49
8549.00,1.49
8548.00,1.49
8547.00,1.49
8546.00,1.50
8545.00,1.50
8544.00,1.50
8543.00,1.50
8542.00,1.50
8541.00,1.50
8540.00,1.50
8539.00,1.50
8538.00,1.50
8537.00,1.50
8536.00,1.50
8535.00,1.50
8534.00,1.50
8533.00,1.49
8532.00,1.49
8531.00,1.49
8530.00,1.49
8529.00,1.49
8528.00,1.49
8527.00,1.49
8526.00,1.49
8525.00,1.49
8524.00,1.49
8523.00,1.49
8522.00,1.49
8521.00,1.48
8520.00,1.48
8519.00,1.48
8518.00,1.48
8517.00,1.48
8516.00,1.48
8515.00,1.48
8514.00,1.48
8513.00,1.48
8512.00,1.48
8511.00,1.48
8510.00,1.48
8509.00,1.48
8508.00,1.48
8507.00,1.48
8506.00,1.48
8505.00,1.48
8504.00,1.48
8503.00,1.48
8502.00,1.48
8501.00,1.47
8500.00,1.47
8499.00,1.47
8498.00,1.47
8497.00,1.47
8496.00,1.47
8495.00,1.47
8494.00,1.47
8493.00,1.47
8492.00,1.47
8491.00,1.47
8490.00,1.46
8489.00,1.46
8488.00,1.46
8487.00,1.46
8486.00,1.46
8485.00,1.46
8484.00,1.46
8483.00,1.46
8482.00,1.46
8481.00,1.46
8480.00,1.46
8479.00,1.46
8478.00,1.45
8477.00,1.45
8476.00,1.45
8475.00,1.45
8474.00,1.45
8473.00,1.45
8472.00,1.45
8471.00,1.45
8470.00,1.44
8469.00,1.44
8468.00,1.44
8467.00,1.44
8466.00,1.45
8465.00,1.45
8464.00,1.45
8463.00,1.45
8462.00,1.45
8461.00,1.45
8460.00,1.45
8459.00,1.45
8458.00,1.45
8457.00,1.45
8456.00,1.46
8455.00,1.46
8454.00,1.46
8453.00,1.45
8452.00,1.45
8451.00,1.45
8450.00,1.45
8449.00,1.45
8448.00,1.45
8447.00,1.45
8446.00,1.45
8445.00,1.44
8444.00,1.44
8443.00,1.44
8442.00,1.44
8441.00,1.44
8440.00,1.44
8439.00,1.44
8438.00,1.44
8437.00,1.44
8436.00,1.44
8435.00,1.44
8434.00,1.44
8433.00,1.44
8432.00,1.45
8431.00,1.45
8430.00,1.45
8429.00,1.45
8428.00,1.45
8427.00,1.45
8426.00,1.45
8425.00,1.45
8424.00,1.45
8423.00,1.45
8422.00,1.45
8421.00,1.45
8420.00,1.45
8419.00,1.45
8418.00,1.45
8417.00,1.45
8416.00,1.45
8415.00,1.45
8414.00,1.45
8413.00,1.45
8412.00,1.45
8411.00,1.46
8410.00,1.46
8409.00,1.46
8408.00,1.46
8407.00,1.46
8406.00,1.46
8405.00,1.46
8404.00,1.46
8403.00,1.46
8402.00,1.46
8401.00,1.46
8400.00,1.46
8399.00,1.46
8398.00,1.46
8397.00,1.46
8396.00,1.46
8395.00,1.46
8394.00,1.46
8393.00,1.46
8392.00,1.46
8391.00,1.46
8390.00,1.46
8389.00,1.46
8388.00,1.46
8387.00,1.46
8386.00,1.46
8385.00,1.47
8384.00,1.47
8383.00,1.47
8382.00,1.47
8381.00,1.47
8380.00,1.47
8379.00,1.47
8378.00,1.48
8377.00,1.48
8376.00,1.48
8375.00,1.48
8374.00,1.48
8373.00,1.48
8372.00,1.48
8371.00,1.49
8370.00,1.49
8369.00,1.49
8368.00,1.49
8367.00,1.49
8366.00,1.49
8365.00,1.49
8364.00,1.49
8363.00,1.49
8362.00,1.49
8361.00,1.48
8360.00,1.48
8359.00,1.48
8358.00,1.48
8357.00,1.48
8356.00,1.48
8355.00,1.48
8354.00,1.48
8353.00,1.48
8352.00,1.48
8351.00,1.48
8350.00,1.48
8349.00,1.48
8348.00,1.47
8347.00,1.47
8346.00,1.47
8345.00,1.47
8344.00,1.47
8343.00,1.47
8342.00,1.47
8341.00,1.47
8340.00,1.47
8339.00,1.47
8338.00,1.47
8337.00,1.47
8336.00,1.47
8335.00,1.48
8334.00,1.48
8333.00,1.48
8332.00,1.48
8331.00,1.48
8330.00,1.48
8329.00,1.48
8328.00,1.48
8327.00,1.48
8326.00,1.48
8325.00,1.48
8324.00,1.48
8323.00,1.48
8322.00,1.48
8321.00,1.48
8320.00,1.48
8319.00,1.48
8318.00,1.48
8317.00,1.48
8316.00,1.48
8315.00,1.48
8314.00,1.48
8313.00,1.48
8312.00,1.48
8311.00,1.48
8310.00,1.49
8309.00,1.49
8308.00,1.49
8307.00,1.49
8306.00,1.49
8305.00,1.49
8304.00,1.49
8303.00,1.49
8302.00,1.49
8301.00,1.49
8300.00,1.49
8299.00,1.49
8298.00,1.50
8297.00,1.50
8296.00,1.50
8295.00,1.50
8294.00,1.50
8293.00,1.50
8292.00,1.50
8291.00,1.50
8290.00,1.50
8289.00,1.50
8288.00,1.50
8287.00,1.50
8286.00,1.51
8285.00,1.51
8284.00,1.51
8283.00,1.51
8282.00,1.51
8281.00,1.51
8280.00,1.51
8279.00,1.51
8278.00,1.52
8277.00,1.52
8276.00,1.52
8275.00,1.52
8274.00,1.52
8273.00,1.52
8272.00,1.52
8271.00,1.52
8270.00,1.52
8269.00,1.52
8268.00,1.52
8267.00,1.52
8266.00,1.52
8265.00,1.52
8264.00,1.51
8263.00,1.51
8262.00,1.51
8261.00,1.51
8260.00,1.51
8259.00,1.51
8258.00,1.51
8257.00,1.51
8256.00,1.51
8255.00,1.51
8254.00,1.51
8253.00,1.51
8252.00,1.51
8251.00,1.51
8250.00,1.51
8249.00,1.51
8248.00,1.51
8247.00,1.51
8246.00,1.51
8245.00,1.51
8244.00,1.51
8243.00,1.51
8242.00,1.51
8241.00,1.51
8240.00,1.51
8239.00,1.51
8238.00,1.51
8237.00,1.51
8236.00,1.51
8235.00,1.51
8234.00,1.51
8233.00,1.51
8232.00,1.51
8231.00,1.51
8230.00,1.51
8229.00,1.51
8228.00,1.51
8227.00,1.51
8226.00,1.51
8225.00,1.51
8224.00,1.51
8223.00,1.52
8222.00,1.52
8221.00,1.52
8220.00,1.52
8219.00,1.52
8218.00,1.52
8217.00,1.51
8216.00,1.51
8215.00,1.51
8214.00,1.51
8213.00,1.51
8212.00,1.51
8211.00,1.51
8210.00,1.51
8209.00,1.51
8208.00,1.51
8207.00,1.51
8206.00,1.51
8205.00,1.51
8204.00,1.51
8203.00,1.52
8202.00,1.52
8201.00,1.52
8200.00,1.52
8199.00,1.52
8198.00,1.52
8197.00,1.52
8196.00,1.52
8195.00,1.52
8194.00,1.52
8193.00,1.52
8192.00,1.53
8191.00,1.53
8190.00,1.53
8189.00,1.52
8188.00,1.52
8187.00,1.52
8186.00,1.52
8185.00,1.52
8184.00,1.52
8183.00,1.52
8182.00,1.52
8181.00,1.52
8180.00,1.52
8179.00,1.52
8178.00,1.52
8177.00,1.52
8176.00,1.52
8175.00,1.52
8174.00,1.52
8173.00,1.52
8172.00,1.52
8171.00,1.52
8170.00,1.52
8169.00,1.53
8168.00,1.53
8167.00,1.53
8166.00,1.53
8165.00,1.53
8164.00,1.53
8163.00,1.53
8162.00,1.53
8161.00,1.53
8160.00,1.53
8159.00,1.53
8158.00,1.53
8157.00,1.53
8156.00,1.53
8155.00,1.53
8154.00,1.53
8153.00,1.53
8152.00,1.53
8151.00,1.53
8150.00,1.53
8149.00,1.53
8148.00,1.53
8147.00,1.53
8146.00,1.53
8145.00,1.53
8144.00,1.53
8143.00,1.53
8142.00,1.53
8141.00,1.53
8140.00,1.53
8139.00,1.53
8138.00,1.53
8137.00,1.54
8136.00,1.54
8135.00,1.54
8134.00,1.54
8133.00,1.54
8132.00,1.54
8131.00,1.54
8130.00,1.54
8129.00,1.54
8128.00,1.54
8127.00,1.54
8126.00,1.54
8125.00,1.54
8124.00,1.54
8123.00,1.54
8122.00,1.54
8121.00,1.54
8120.00,1.54
8119.00,1.54
8118.00,1.54
8117.00,1.54
8116.00,1.54
8115.00,1.54
8114.00,1.54
8113.00,1.55
8112.00,1.55
8111.00,1.55
8110.00,1.55
8109.00,1.55
8108.00,1.55
8107.00,1.55
8106.00,1.55
8105.00,1.55
8104.00,1.56
8103.00,1.56
8102.00,1.56
8101.00,1.56
8100.00,1.56
8099.00,1.55
8098.00,1.55
8097.00,1.55
8096.00,1.55
8095.00,1.55
8094.00,1.55
8093.00,1.55
8092.00,1.55
8091.00,1.55
8090.00,1.55
8089.00,1.55
8088.00,1.55
8087.00,1.55
8086.00,1.55
8085.00,1.55
8084.00,1.55
8083.00,1.55
8082.00,1.55
8081.00,1.55
8080.00,1.55
8079.00,1.55
8078.00,1.55
8077.00,1.55
8076.00,1.55
8075.00,1.55
8074.00,1.55
8073.00,1.56
8072.00,1.56
8071.00,1.56
8070.00,1.56
8069.00,1.56
8068.00,1.56
8067.00,1.56
8066.00,1.56
8065.00,1.56
8064.00,1.56
8063.00,1.56
8062.00,1.56
8061.00,1.56
8060.00,1.56
8059.00,1.56
8058.00,1.56
8057.00,1.56
8056.00,1.56
8055.00,1.56
8054.00,1.56
8053.00,1.57
8052.00,1.57
8051.00,1.57
8050.00,1.57
8049.00,1.57
8048.00,1.57
8047.00,1.57
8046.00,1.57
8045.00,1.57
8044.00,1.57
8043.00,1.57
8042.00,1.57
8041.00,1.57
8040.00,1.57
8039.00,1.57
8038.00,1.57
8037.00,1.58
8036.00,1.58
8035.00,1.58
8034.00,1.58
8033.00,1.58
8032.00,1.58
8031.00,1.58
8030.00,1.58
8029.00,1.58
8028.00,1.57
8027.00,1.57
8026.00,1.57
8025.00,1.57
8024.00,1.57
8023.00,1.57
8022.00,1.57
8021.00,1.57
8020.00,1.57
8019.00,1.57
8018.00,1.56
8017.00,1.56
8016.00,1.56
8015.00,1.56
8014.00,1.56
8013.00,1.56
8012.00,1.56
8011.00,1.56
8010.00,1.56
8009.00,1.56
8008.00,1.56
8007.00,1.57
8006.00,1.57
8005.00,1.57
8004.00,1.57
8003.00,1.57
8002.00,1.57
8001.00,1.57
8000.00,1.57
7999.00,1.57
7998.00,1.58
7997.00,1.58
7996.00,1.58
7995.00,1.58
7994.00,1.58
7993.00,1.58
7992.00,1.58
7991.00,1.58
7990.00,1.58
7989.00,1.58
7988.00,1.58
7987.00,1.58
7986.00,1.58
7985.00,1.58
7984.00,1.58
7983.00,1.58
7982.00,1.58
7981.00,1.58
7980.00,1.58
7979.00,1.58
7978.00,1.58
7977.00,1.58
7976.00,1.58
7975.00,1.59
7974.00,1.59
7973.00,1.59
7972.00,1.59
7971.00,1.59
7970.00,1.59
7969.00,1.59
7968.00,1.59
7967.00,1.59
7966.00,1.59
7965.00,1.59
7964.00,1.59
7963.00,1.59
7962.00,1.59
7961.00,1.59
7960.00,1.59
7959.00,1.59
7958.00,1.59
7957.00,1.59
7956.00,1.59
7955.00,1.59
7954.00,1.59
7953.00,1.59
7952.00,1.59
7951.00,1.59
7950.00,1.59
7949.00,1.59
7948.00,1.59
7947.00,1.59
7946.00,1.59
7945.00,1.59
7944.00,1.59
7943.00,1.59
7942.00,1.59
7941.00,1.59
7940.00,1.59
7939.00,1.59
7938.00,1.59
7937.00,1.59
7936.00,1.59
7935.00,1.59
7934.00,1.59
7933.00,1.59
7932.00,1.59
7931.00,1.59
7930.00,1.59
7929.00,1.59
7928.00,1.59
7927.00,1.59
7926.00,1.59
7925.00,1.59
7924.00,1.59
7923.00,1.59
7922.00,1.59
7921.00,1.59
7920.00,1.59
7919.00,1.59
7918.00,1.59
7917.00,1.59
7916.00,1.59
7915.00,1.59
7914.00,1.59
7913.00,1.59
7912.00,1.59
7911.00,1.59
7910.00,1.60
7909.00,1.60
7908.00,1.60
7907.00,1.60
7906.00,1.60
7905.00,1.60
7904.00,1.60
7903.00,1.60
7902.00,1.60
7901.00,1.60
7900.00,1.60
7899.00,1.60
7898.00,1.60
7897.00,1.60
7896.00,1.60
7895.00,1.60
7894.00,1.60
7893.00,1.60
7892.00,1.60
7891.00,1.60
7890.00,1.60
7889.00,1.60
7888.00,1.60
7887.00,1.60
7886.00,1.60
7885.00,1.60
7884.00,1.60
7883.00,1.60
7882.00,1.60
7881.00,1.60
7880.00,1.60
7879.00,1.60
7878.00,1.60
7877.00,1.60
7876.00,1.60
7875.00,1.60
7874.00,1.61
7873.00,1.61
7872.00,1.61
7871.00,1.61
7870.00,1.61
7869.00,1.61
7868.00,1.61
7867.00,1.61
7866.00,1.61
7865.00,1.61
7864.00,1.61
7863.00,1.61
7862.00,1.61
7861.00,1.61
7860.00,1.61
7859.00,1.61
7858.00,1.61
7857.00,1.61
7856.00,1.61
7855.00,1.61
7854.00,1.61
7853.00,1.61
7852.00,1.61
7851.00,1.61
7850.00,1.61
7849.00,1.61
7848.00,1.61
7847.00,1.61
7846.00,1.61
7845.00,1.61
7844.00,1.61
7843.00,1.61
7842.00,1.61
7841.00,1.61
7840.00,1.61
7839.00,1.61
7838.00,1.61
7837.00,1.61
7836.00,1.61
7835.00,1.61
7834.00,1.61
7833.00,1.61
7832.00,1.61
7831.00,1.61
7830.00,1.61
7829.00,1.61
7828.00,1.61
7827.00,1.61
7826.00,1.61
7825.00,1.61
7824.00,1.61
7823.00,1.61
7822.00,1.61
7821.00,1.61
7820.00,1.61
7819.00,1.61
7818.00,1.61
7817.00,1.61
7816.00,1.61
7815.00,1.61
7814.00,1.61
7813.00,1.61
7812.00,1.61
7811.00,1.61
7810.00,1.61
7809.00,1.61
7808.00,1.61
7807.00,1.61
7806.00,1.61
7805.00,1.61
7804.00,1.60
7803.00,1.60
7802.00,1.60
7801.00,1.60
7800.00,1.60
7799.00,1.60
7798.00,1.60
7797.00,1.60
7796.00,1.60
7795.00,1.60
7794.00,1.60
7793.00,1.60
7792.00,1.60
7791.00,1.60
7790.00,1.60
7789.00,1.60
7788.00,1.60
7787.00,1.59
7786.00,1.59
7785.00,1.59
7784.00,1.59
7783.00,1.59
7782.00,1.59
7781.00,1.59
7780.00,1.59
7779.00,1.59
7778.00,1.59
7777.00,1.59
7776.00,1.60
7775.00,1.60
7774.00,1.60
7773.00,1.60
7772.00,1.60
7771.00,1.60
7770.00,1.60
7769.00,1.60
7768.00,1.60
7767.00,1.60
7766.00,1.60
7765.00,1.61
7764.00,1.61
7763.00,1.61
7762.00,1.61
7761.00,1.61
7760.00,1.61
7759.00,1.61
7758.00,1.61
7757.00,1.61
7756.00,1.61
7755.00,1.61
7754.00,1.61
7753.00,1.61
7752.00,1.61
7751.00,1.62
7750.00,1.62
7749.00,1.62
7748.00,1.62
7747.00,1.62
7746.00,1.62
7745.00,1.62
7744.00,1.62
7743.00,1.62
7742.00,1.62
7741.00,1.62
7740.00,1.62
7739.00,1.63
7738.00,1.63
7737.00,1.63
7736.00,1.63
7735.00,1.63
7734.00,1.62
7733.00,1.62
7732.00,1.62
7731.00,1.62
7730.00,1.62
7729.00,1.62
7728.00,1.62
7727.00,1.62
7726.00,1.62
7725.00,1.62
7724.00,1.62
7723.00,1.62
7722.00,1.62
7721.00,1.62
7720.00,1.62
7719.00,1.62
7718.00,1.62
7717.00,1.62
7716.00,1.62
7715.00,1.62
7714.00,1.62
7713.00,1.62
7712.00,1.62
7711.00,1.62
7710.00,1.62
7709.00,1.62
7708.00,1.62
7707.00,1.62
7706.00,1.62
7705.00,1.62
7704.00,1.62
7703.00,1.62
7702.00,1.62
7701.00,1.62
7700.00,1.62
7699.00,1.62
7698.00,1.62
7697.00,1.62
7696.00,1.62
7695.00,1.62
7694.00,1.62
7693.00,1.62
7692.00,1.62
7691.00,1.62
7690.00,1.62
7689.00,1.62
7688.00,1.62
7687.00,1.62
7686.00,1.62
7685.00,1.61
7684.00,1.61
7683.00,1.61
7682.00,1.61
7681.00,1.61
7680.00,1.61
7679.00,1.61
7678.00,1.61
7677.00,1.61
7676.00,1.61
7675.00,1.61
7674.00,1.61
7673.00,1.61
7672.00,1.61
7671.00,1.61
7670.00,1.61
7669.00,1.61
7668.00,1.61
7667.00,1.61
7666.00,1.61
7665.00,1.61
7664.00,1.61
7663.00,1.61
7662.00,1.61
7661.00,1.61
7660.00,1.61
7659.00,1.61
7658.00,1.61
7657.00,1.61
7656.00,1.61
7655.00,1.61
7654.00,1.61
7653.00,1.61
7652.00,1.61
7651.00,1.61
7650.00,1.61
7649.00,1.61
7648.00,1.61
7647.00,1.61
7646.00,1.61
7645.00,1.61
7644.00,1.61
7643.00,1.61
7642.00,1.61
7641.00,1.62
7640.00,1.62
7639.00,1.62
7638.00,1.62
7637.00,1.62
7636.00,1.62
7635.00,1.62
7634.00,1.62
7633.00,1.62
7632.00,1.62
7631.00,1.62
7630.00,1.62
7629.00,1.62
7628.00,1.62
7627.00,1.62
7626.00,1.62
7625.00,1.62
7624.00,1.62
7623.00,1.62
7622.00,1.62
7621.00,1.62
7620.00,1.62
7619.00,1.62
7618.00,1.62
7617.00,1.62
7616.00,1.62
7615.00,1.62
7614.00,1.62
7613.00,1.62
7612.00,1.62
7611.00,1.62
7610.00,1.62
7609.00,1.62
7608.00,1.62
7607.00,1.62
7606.00,1.62
7605.00,1.62
7604.00,1.61
7603.00,1.61
7602.00,1.61
7601.00,1.61
7600.00,1.61
7599.00,1.61
7598.00,1.61
7597.00,1.61
7596.00,1.61
7595.00,1.61
7594.00,1.61
7593.00,1.61
7592.00,1.61
7591.00,1.62
7590.00,1.62
7589.00,1.62
7588.00,1.62
7587.00,1.62
7586.00,1.62
7585.00,1.62
7584.00,1.62
7583.00,1.62
7582.00,1.62
7581.00,1.62
7580.00,1.62
7579.00,1.62
7578.00,1.62
7577.00,1.62
7576.00,1.61
7575.00,1.61
7574.00,1.61
7573.00,1.61
7572.00,1.61
7571.00,1.61
7570.00,1.61
7569.00,1.61
7568.00,1.61
7567.00,1.61
7566.00,1.61
7565.00,1.61
7564.00,1.61
7563.00,1.61
7562.00,1.61
7561.00,1.61
7560.00,1.61
7559.00,1.61
7558.00,1.61
7557.00,1.61
7556.00,1.61
7555.00,1.61
7554.00,1.61
7553.00,1.61
7552.00,1.61
7551.00,1.61
7550.00,1.61
7549.00,1.61
7548.00,1.61
7547.00,1.61
7546.00,1.61
7545.00,1.61
7544.00,1.61
7543.00,1.61
7542.00,1.61
7541.00,1.61
7540.00,1.61
7539.00,1.61
7538.00,1.61
7537.00,1.61
7536.00,1.61
7535.00,1.61
7534.00,1.61
7533.00,1.61
7532.00,1.61
7531.00,1.61
7530.00,1.61
7529.00,1.61
7528.00,1.61
7527.00,1.61
7526.00,1.61
7525.00,1.61
7524.00,1.61
7523.00,1.61
7522.00,1.61
7521.00,1.61
7520.00,1.61
7519.00,1.61
7518.00,1.61
7517.00,1.61
7516.00,1.61
7515.00,1.61
7514.00,1.61
7513.00,1.61
7512.00,1.61
7511.00,1.60
7510.00,1.60
7509.00,1.60
7508.00,1.60
7507.00,1.60
7506.00,1.60
7505.00,1.60
7504.00,1.60
7503.00,1.60
7502.00,1.60
7501.00,1.60
7500.00,1.60
7499.00,1.60
7498.00,1.59
7497.00,1.59
7496.00,1.59
7495.00,1.59
7494.00,1.59
7493.00,1.59
7492.00,1.59
7491.00,1.59
7490.00,1.59
7489.00,1.59
7488.00,1.59
7487.00,1.59
7486.00,1.59
7485.00,1.59
7484.00,1.59
7483.00,1.59
7482.00,1.59
7481.00,1.59
7480.00,1.59
7479.00,1.59
7478.00,1.59
7477.00,1.59
7476.00,1.59
7475.00,1.59
7474.00,1.59
7473.00,1.59
7472.00,1.59
7471.00,1.59
7470.00,1.59
7469.00,1.59
7468.00,1.59
7467.00,1.59
7466.00,1.59
7465.00,1.59
7464.00,1.59
7463.00,1.59
7462.00,1.59
7461.00,1.59
7460.00,1.59
7459.00,1.59
7458.00,1.58
7457.00,1.58
7456.00,1.58
7455.00,1.58
7454.00,1.58
7453.00,1.58
7452.00,1.58
7451.00,1.58
7450.00,1.58
7449.00,1.58
7448.00,1.58
7447.00,1.57
7446.00,1.57
7445.00,1.57
7444.00,1.57
7443.00,1.57
7442.00,1.57
7441.00,1.57
7440.00,1.57
7439.00,1.57
7438.00,1.57
7437.00,1.57
7436.00,1.57
7435.00,1.57
7434.00,1.57
7433.00,1.57
7432.00,1.57
7431.00,1.57
7430.00,1.57
7429.00,1.57
7428.00,1.57
7427.00,1.57
7426.00,1.57
7425.00,1.57
7424.00,1.57
7423.00,1.57
7422.00,1.57
7421.00,1.57
7420.00,1.57
7419.00,1.57
7418.00,1.57
7417.00,1.57
7416.00,1.57
7415.00,1.57
7414.00,1.57
7413.00,1.57
7412.00,1.57
7411.00,1.57
7410.00,1.57
7409.00,1.57
7408.00,1.57
7407.00,1.57
7406.00,1.56
7405.00,1.56
7404.00,1.56
7403.00,1.56
7402.00,1.56
7401.00,1.55
7400.00,1.55
7399.00,1.55
7398.00,1.55
7397.00,1.55
7396.00,1.54
7395.00,1.54
7394.00,1.54
7393.00,1.54
7392.00,1.54
7391.00,1.54
7390.00,1.54
7389.00,1.53
7388.00,1.53
7387.00,1.53
7386.00,1.53
7385.00,1.53
7384.00,1.53
7383.00,1.53
7382.00,1.53
7381.00,1.53
7380.00,1.53
7379.00,1.53
7378.00,1.53
7377.00,1.53
7376.00,1.53
7375.00,1.53
7374.00,1.53
7373.00,1.53
7372.00,1.53
7371.00,1.53
7370.00,1.53
7369.00,1.53
7368.00,1.53
7367.00,1.53
7366.00,1.53
7365.00,1.53
7364.00,1.53
7363.00,1.53
7362.00,1.53
7361.00,1.53
7360.00,1.53
7359.00,1.53
7358.00,1.53
7357.00,1.53
7356.00,1.53
7355.00,1.53
7354.00,1.53
7353.00,1.53
7352.00,1.53
7351.00,1.53
7350.00,1.53
7349.00,1.52
7348.00,1.52
7347.00,1.52
7346.00,1.52
7345.00,1.52
7344.00,1.52
7343.00,1.52
7342.00,1.52
7341.00,1.52
7340.00,1.52
7339.00,1.52
7338.00,1.52
7337.00,1.52
7336.00,1.52
7335.00,1.52
7334.00,1.52
7333.00,1.52
7332.00,1.52
7331.00,1.52
7330.00,1.52
7329.00,1.52
7328.00,1.52
7327.00,1.52
7326.00,1.52
7325.00,1.52
7324.00,1.52
7323.00,1.52
7322.00,1.51
7321.00,1.51
7320.00,1.51
7319.00,1.51
7318.00,1.51
7317.00,1.51
7316.00,1.51
7315.00,1.51
7314.00,1.51
7313.00,1.51
7312.00,1.51
7311.00,1.50
7310.00,1.50
7309.00,1.50
7308.00,1.50
7307.00,1.50
7306.00,1.50
7305.00,1.50
7304.00,1.50
7303.00,1.50
7302.00,1.49
7301.00,1.49
7300.00,1.49
7299.00,1.49
7298.00,1.49
7297.00,1.49
7296.00,1.48
7295.00,1.48
7294.00,1.48
7293.00,1.48
7292.00,1.48
7291.00,1.48
7290.00,1.48
7289.00,1.47
7288.00,1.47
7287.00,1.47
7286.00,1.47
7285.00,1.47
7284.00,1.47
7283.00,1.47
7282.00,1.47
7281.00,1.47
7280.00,1.47
7279.00,1.47
7278.00,1.47
7277.00,1.47
7276.00,1.47
7275.00,1.47
7274.00,1.47
7273.00,1.47
7272.00,1.47
7271.00,1.47
7270.00,1.47
7269.00,1.47
7268.00,1.47
7267.00,1.47
7266.00,1.47
7265.00,1.47
7264.00,1.47
7263.00,1.46
7262.00,1.46
7261.00,1.46
7260.00,1.46
7259.00,1.46
7258.00,1.46
7257.00,1.46
7256.00,1.46
7255.00,1.46
7254.00,1.45
7253.00,1.45
7252.00,1.45
7251.00,1.45
7250.00,1.45
7249.00,1.44
7248.00,1.44
7247.00,1.44
7246.00,1.44
7245.00,1.43
7244.00,1.43
7243.00,1.43
7242.00,1.42
7241.00,1.42
7240.00,1.41
7239.00,1.41
7238.00,1.41
7237.00,1.40
7236.00,1.40
7235.00,1.40
7234.00,1.39
7233.00,1.39
7232.00,1.39
7231.00,1.38
7230.00,1.38
7229.00,1.38
7228.00,1.37
7227.00,1.37
7226.00,1.37
7225.00,1.36
7224.00,1.36
7223.00,1.36
7222.00,1.35
7221.00,1.35
7220.00,1.35
7219.00,1.34
7218.00,1.34
7217.00,1.33
7216.00,1.33
7215.00,1.33
7214.00,1.32
7213.00,1.32
7212.00,1.31
7211.00,1.31
7210.00,1.30
7209.00,1.30
7208.00,1.29
7207.00,1.29
7206.00,1.29
7205.00,1.28
7204.00,1.28
7203.00,1.27
7202.00,1.27
7201.00,1.27
7200.00,1.26
7199.00,1.26
7198.00,1.26
7197.00,1.25
7196.00,1.25
7195.00,1.25
7194.00,1.25
7193.00,1.24
7192.00,1.24
7191.00,1.24
7190.00,1.23
7189.00,1.23
7188.00,1.23
7187.00,1.22
7186.00,1.22
7185.00,1.22
7184.00,1.21
7183.00,1.21
7182.00,1.21
7181.00,1.20
7180.00,1.20
7179.00,1.20
7178.00,1.19
7177.00,1.19
7176.00,1.19
7175.00,1.18
7174.00,1.18
7173.00,1.18
7172.00,1.18
7171.00,1.17
7170.00,1.17
7169.00,1.17
7168.00,1.17
7167.00,1.16
7166.00,1.16
7165.00,1.16
7164.00,1.16
7163.00,1.15
7162.00,1.15
7161.00,1.15
7160.00,1.15
7159.00,1.14
7158.00,1.14
7157.00,1.14
7156.00,1.14
7155.00,1.14
7154.00,1.13
7153.00,1.13
7152.00,1.13
7151.00,1.12
7150.00,1.12
7149.00,1.12
7148.00,1.11
7147.00,1.11
7146.00,1.11
7145.00,1.10
7144.00,1.10
7143.00,1.09
7142.00,1.09
7141.00,1.08
7140.00,1.08
7139.00,1.08
7138.00,1.07
7137.00,1.07
7136.00,1.06
7135.00,1.06
7134.00,1.05
7133.00,1.05
7132.00,1.04
7131.00,1.04
7130.00,1.04
7129.00,1.03
7128.00,1.03
7127.00,1.02
7126.00,1.02
7125.00,1.02
7124.00,1.01
7123.00,1.01
7122.00,1.01
7121.00,1.01
7120.00,1.00
7119.00,1.00
7118.00,1.00
7117.00,1.00
7116.00,1.00
7115.00,0.99
7114.00,0.99
7113.00,0.99
7112.00,0.99
7111.00,0.99
7110.00,0.99
7109.00,0.98
7108.00,0.98
7107.00,0.98
7106.00,0.98
7105.00,0.98
7104.00,0.97
7103.00,0.97
7102.00,0.97
7101.00,0.97
7100.00,0.96
7099.00,0.96
7098.00,0.96
7097.00,0.96
7096.00,0.95
7095.00,0.95
7094.00,0.95
7093.00,0.94
7092.00,0.94
7091.00,0.94
7090.00,0.93
7089.00,0.93
7088.00,0.93
7087.00,0.93
7086.00,0.92
7085.00,0.92
7084.00,0.92
7083.00,0.92
7082.00,0.91
7081.00,0.91
7080.00,0.91
7079.00,0.91
7078.00,0.90
7077.00,0.90
7076.00,0.90
7075.00,0.89
7074.00,0.89
7073.00,0.89
7072.00,0.89
7071.00,0.88
7070.00,0.88
7069.00,0.88
7068.00,0.88
7067.00,0.87
7066.00,0.87
7065.00,0.87
7064.00,0.87
7063.00,0.87
7062.00,0.87
7061.00,0.86
7060.00,0.86
7059.00,0.86
7058.00,0.86
7057.00,0.86
7056.00,0.86
7055.00,0.86
7054.00,0.85
7053.00,0.85
7052.00,0.85
7051.00,0.85
7050.00,0.85
7049.00,0.85
7048.00,0.84
7047.00,0.84
7046.00,0.84
7045.00,0.84
7044.00,0.84
7043.00,0.84
7042.00,0.84
7041.00,0.84
7040.00,0.84
7039.00,0.84
7038.00,0.83
7037.00,0.83
7036.00,0.83
7035.00,0.83
7034.00,0.83
7033.00,0.83
7032.00,0.83
7031.00,0.83
7030.00,0.83
7029.00,0.83
7028.00,0.82
7027.00,0.82
7026.00,0.82
7025.00,0.82
7024.00,0.82
7023.00,0.81
7022.00,0.81
7021.00,0.81
7020.00,0.81
7019.00,0.80
7018.00,0.80
7017.00,0.80
7016.00,0.80
7015.00,0.79
7014.00,0.79
7013.00,0.79
7012.00,0.79
7011.00,0.79
7010.00,0.79
7009.00,0.78
7008.00,0.78
7007.00,0.78
7006.00,0.78
7005.00,0.78
7004.00,0.78
7003.00,0.78
7002.00,0.77
7001.00,0.77
7000.00,0.77
6999.00,0.77
6998.00,0.77
6997.00,0.77
6996.00,0.77
6995.00,0.77
6994.00,0.77
6993.00,0.77
6992.00,0.77
6991.00,0.77
6990.00,0.77
6989.00,0.77
6988.00,0.76
6987.00,0.76
6986.00,0.76
6985.00,0.76
6984.00,0.76
6983.00,0.76
6982.00,0.76
6981.00,0.76
6980.00,0.76
6979.00,0.76
6978.00,0.75
6977.00,0.75
6976.00,0.75
6975.00,0.75
6974.00,0.75
6973.00,0.75
6972.00,0.75
6971.00,0.75
6970.00,0.75
6969.00,0.75
6968.00,0.75
6967.00,0.75
6966.00,0.75
6965.00,0.75
6964.00,0.75
6963.00,0.75
6962.00,0.75
6961.00,0.75
6960.00,0.75
6959.00,0.75
6958.00,0.75
6957.00,0.75
6956.00,0.75
6955.00,0.74
6954.00,0.74
6953.00,0.74
6952.00,0.74
6951.00,0.74
6950.00,0.74
6949.00,0.74
6948.00,0.74
6947.00,0.74
6946.00,0.74
6945.00,0.74
6944.00,0.74
6943.00,0.74
6942.00,0.74
6941.00,0.74
6940.00,0.74
6939.00,0.74
6938.00,0.74
6937.00,0.74
6936.00,0.74
6935.00,0.74
6934.00,0.74
6933.00,0.74
6932.00,0.74
6931.00,0.74
6930.00,0.74
6929.00,0.73
6928.00,0.73
6927.00,0.73
6926.00,0.73
6925.00,0.73
6924.00,0.73
6923.00,0.73
6922.00,0.72
6921.00,0.72
6920.00,0.72
6919.00,0.72
6918.00,0.72
6917.00,0.72
6916.00,0.72
6915.00,0.72
6914.00,0.72
6913.00,0.72
6912.00,0.71
6911.00,0.71
6910.00,0.71
6909.00,0.71
6908.00,0.71
6907.00,0.71
6906.00,0.71
6905.00,0.71
6904.00,0.71
6903.00,0.71
6902.00,0.71
6901.00,0.71
6900.00,0.71
6899.00,0.71
6898.00,0.71
6897.00,0.71
6896.00,0.71
6895.00,0.71
6894.00,0.71
6893.00,0.71
6892.00,0.71
6891.00,0.71
6890.00,0.71
6889.00,0.71
6888.00,0.71
6887.00,0.71
6886.00,0.71
6885.00,0.71
6884.00,0.71
6883.00,0.71
6882.00,0.71
6881.00,0.71
6880.00,0.71
6879.00,0.71
6878.00,0.71
6877.00,0.71
6876.00,0.71
6875.00,0.71
6874.00,0.71
6873.00,0.71
6872.00,0.71
6871.00,0.71
6870.00,0.71
6869.00,0.71
6868.00,0.71
6867.00,0.71
6866.00,0.71
6865.00,0.71
6864.00,0.71
6863.00,0.71
6862.00,0.71
6861.00,0.71
6860.00,0.71
6859.00,0.71
6858.00,0.71
6857.00,0.71
6856.00,0.71
6855.00,0.71
6854.00,0.71
6853.00,0.71
6852.00,0.71
6851.00,0.71
6850.00,0.71
6849.00,0.71
6848.00,0.71
6847.00,0.71
6846.00,0.71
6845.00,0.71
6844.00,0.71
6843.00,0.71
6842.00,0.71
6841.00,0.71
6840.00,0.71
6839.00,0.71
6838.00,0.71
6837.00,0.71
6836.00,0.71
6835.00,0.71
6834.00,0.71
6833.00,0.71
6832.00,0.71
6831.00,0.72
6830.00,0.72
6829.00,0.72
6828.00,0.72
6827.00,0.72
6826.00,0.72
6825.00,0.72
6824.00,0.72
6823.00,0.73
6822.00,0.73
6821.00,0.73
6820.00,0.73
6819.00,0.73
6818.00,0.73
6817.00,0.73
6816.00,0.73
6815.00,0.73
6814.00,0.73
6813.00,0.73
6812.00,0.73
6811.00,0.73
6810.00,0.73
6809.00,0.73
6808.00,0.73
6807.00,0.73
6806.00,0.73
6805.00,0.73
6804.00,0.73
6803.00,0.73
6802.00,0.73
6801.00,0.73
6800.00,0.73
6799.00,0.73
6798.00,0.74
6797.00,0.74
6796.00,0.74
6795.00,0.74
6794.00,0.74
6793.00,0.74
6792.00,0.74
6791.00,0.74
6790.00,0.74
6789.00,0.74
6788.00,0.75
6787.00,0.75
6786.00,0.75
6785.00,0.75
6784.00,0.75
6783.00,0.75
6782.00,0.75
6781.00,0.75
6780.00,0.75
6779.00,0.75
6778.00,0.76
6777.00,0.76
6776.00,0.76
6775.00,0.76
6774.00,0.76
6773.00,0.76
6772.00,0.76
6771.00,0.76
6770.00,0.76
6769.00,0.76
6768.00,0.76
6767.00,0.76
6766.00,0.76
6765.00,0.76
6764.00,0.76
6763.00,0.77
6762.00,0.77
6761.00,0.77
6760.00,0.77
6759.00,0.77
6758.00,0.77
6757.00,0.77
6756.00,0.77
6755.00,0.77
6754.00,0.77
6753.00,0.77
6752.00,0.77
6751.00,0.77
6750.00,0.77
6749.00,0.77
6748.00,0.77
6747.00,0.77
6746.00,0.77
6745.00,0.77
6744.00,0.77
6743.00,0.78
6742.00,0.78
6741.00,0.78
6740.00,0.78
6739.00,0.78
6738.00,0.78
6737.00,0.78
6736.00,0.78
6735.00,0.78
6734.00,0.78
6733.00,0.78
6732.00,0.79
6731.00,0.79
6730.00,0.79
6729.00,0.79
6728.00,0.79
6727.00,0.79
6726.00,0.80
6725.00,0.80
6724.00,0.80
6723.00,0.80
6722.00,0.80
6721.00,0.80
6720.00,0.80
6719.00,0.81
6718.00,0.81
6717.00,0.81
6716.00,0.81
6715.00,0.81
6714.00,0.81
6713.00,0.82
6712.00,0.82
6711.00,0.82
6710.00,0.82
6709.00,0.82
6708.00,0.82
6707.00,0.82
6706.00,0.82
6705.00,0.82
6704.00,0.83
6703.00,0.83
6702.00,0.83
6701.00,0.83
6700.00,0.83
6699.00,0.83
6698.00,0.83
6697.00,0.83
6696.00,0.83
6695.00,0.84
6694.00,0.84
6693.00,0.84
6692.00,0.84
6691.00,0.84
6690.00,0.84
6689.00,0.85
6688.00,0.85
6687.00,0.85
6686.00,0.85
6685.00,0.85
6684.00,0.85
6683.00,0.85
6682.00,0.85
6681.00,0.85
6680.00,0.85
6679.00,0.85
6678.00,0.86
6677.00,0.86
6676.00,0.86
6675.00,0.86
6674.00,0.86
6673.00,0.86
6672.00,0.86
6671.00,0.86
6670.00,0.86
6669.00,0.86
6668.00,0.86
6667.00,0.87
6666.00,0.87
6665.00,0.87
6664.00,0.87
6663.00,0.87
6662.00,0.87
6661.00,0.87
6660.00,0.87
6659.00,0.87
6658.00,0.88
6657.00,0.88
6656.00,0.88
6655.00,0.88
6654.00,0.88
6653.00,0.88
6652.00,0.88
6651.00,0.89
6650.00,0.89
6649.00,0.89
6648.00,0.89
6647.00,0.90
6646.00,0.90
6645.00,0.90
6644.00,0.90
6643.00,0.90
6642.00,0.91
6641.00,0.91
6640.00,0.91
6639.00,0.91
6638.00,0.91
6637.00,0.91
6636.00,0.92
6635.00,0.92
6634.00,0.92
6633.00,0.92
6632.00,0.92
6631.00,0.92
6630.00,0.92
6629.00,0.93
6628.00,0.93
6627.00,0.93
6626.00,0.93
6625.00,0.93
6624.00,0.93
6623.00,0.93
6622.00,0.93
6621.00,0.93
6620.00,0.93
6619.00,0.94
6618.00,0.94
6617.00,0.94
6616.00,0.94
6615.00,0.94
6614.00,0.94
6613.00,0.94
6612.00,0.94
6611.00,0.94
6610.00,0.95
6609.00,0.95
6608.00,0.95
6607.00,0.95
6606.00,0.95
6605.00,0.95
6604.00,0.96
6603.00,0.96
6602.00,0.96
6601.00,0.96
6600.00,0.96
6599.00,0.97
6598.00,0.97
6597.00,0.97
6596.00,0.97
6595.00,0.97
6594.00,0.97
6593.00,0.97
6592.00,0.97
6591.00,0.98
6590.00,0.98
6589.00,0.98
6588.00,0.98
6587.00,0.98
6586.00,0.98
6585.00,0.98
6584.00,0.98
6583.00,0.98
6582.00,0.98
6581.00,0.98
6580.00,0.98
6579.00,0.98
6578.00,0.99
6577.00,0.99
6576.00,0.99
6575.00,0.99
6574.00,0.99
6573.00,0.99
6572.00,0.99
6571.00,0.99
6570.00,0.99
6569.00,1.00
6568.00,1.00
6567.00,1.00
6566.00,1.00
6565.00,1.00
6564.00,1.00
6563.00,1.00
6562.00,1.00
6561.00,1.01
6560.00,1.01
6559.00,1.01
6558.00,1.01
6557.00,1.01
6556.00,1.01
6555.00,1.01
6554.00,1.02
6553.00,1.02
6552.00,1.02
6551.00,1.02
6550.00,1.02
6549.00,1.02
6548.00,1.02
6547.00,1.02
6546.00,1.02
6545.00,1.02
6544.00,1.03
6543.00,1.03
6542.00,1.03
6541.00,1.03
6540.00,1.03
6539.00,1.03
6538.00,1.03
6537.00,1.03
6536.00,1.03
6535.00,1.04
6534.00,1.04
6533.00,1.04
6532.00,1.04
6531.00,1.04
6530.00,1.04
6529.00,1.05
6528.00,1.05
6527.00,1.05
6526.00,1.05
6525.00,1.05
6524.00,1.05
6523.00,1.05
6522.00,1.06
6521.00,1.06
6520.00,1.06
6519.00,1.06
6518.00,1.06
6517.00,1.06
6516.00,1.06
6515.00,1.06
6514.00,1.06
6513.00,1.06
6512.00,1.06
6511.00,1.06
6510.00,1.06
6509.00,1.06
6508.00,1.06
6507.00,1.06
6506.00,1.06
6505.00,1.07
6504.00,1.07
6503.00,1.07
6502.00,1.07
6501.00,1.07
6500.00,1.07
6499.00,1.07
6498.00,1.07
6497.00,1.07
6496.00,1.07
6495.00,1.07
6494.00,1.08
6493.00,1.08
6492.00,1.08
6491.00,1.08
6490.00,1.08
6489.00,1.08
6488.00,1.08
6487.00,1.08
6486.00,1.08
6485.00,1.08
6484.00,1.08
6483.00,1.08
6482.00,1.08
6481.00,1.08
6480.00,1.08
6479.00,1.08
6478.00,1.08
6477.00,1.08
6476.00,1.08
6475.00,1.09
6474.00,1.09
6473.00,1.09
6472.00,1.09
6471.00,1.09
6470.00,1.09
6469.00,1.09
6468.00,1.09
6467.00,1.09
6466.00,1.10
6465.00,1.10
6464.00,1.10
6463.00,1.10
6462.00,1.10
6461.00,1.10
6460.00,1.10
6459.00,1.10
6458.00,1.10
6457.00,1.10
6456.00,1.10
6455.00,1.10
6454.00,1.10
6453.00,1.10
6452.00,1.10
6451.00,1.10
6450.00,1.10
6449.00,1.10
6448.00,1.10
6447.00,1.10
6446.00,1.10
6445.00,1.10
6444.00,1.10
6443.00,1.10
6442.00,1.11
6441.00,1.11
6440.00,1.11
6439.00,1.11
6438.00,1.11
6437.00,1.11
6436.00,1.11
6435.00,1.11
6434.00,1.11
6433.00,1.11
6432.00,1.12
6431.00,1.12
6430.00,1.12
6429.00,1.12
6428.00,1.12
6427.00,1.12
6426.00,1.12
6425.00,1.12
6424.00,1.12
6423.00,1.12
6422.00,1.13
6421.00,1.13
6420.00,1.13
6419.00,1.13
6418.00,1.13
6417.00,1.13
6416.00,1.13
6415.00,1.13
6414.00,1.13
6413.00,1.13
6412.00,1.13
6411.00,1.13
6410.00,1.13
6409.00,1.13
6408.00,1.13
6407.00,1.13
6406.00,1.13
6405.00,1.13
6404.00,1.13
6403.00,1.13
6402.00,1.13
6401.00,1.14
6400.00,1.14
6399.00,1.14
6398.00,1.14
6397.00,1.14
6396.00,1.14
6395.00,1.14
6394.00,1.14
6393.00,1.15
6392.00,1.15
6391.00,1.15
6390.00,1.15
6389.00,1.15
6388.00,1.15
6387.00,1.15
6386.00,1.15
6385.00,1.15
6384.00,1.15
6383.00,1.15
6382.00,1.15
6381.00,1.15
6380.00,1.15
6379.00,1.15
6378.00,1.15
6377.00,1.15
6376.00,1.15
6375.00,1.15
6374.00,1.15
6373.00,1.16
6372.00,1.16
6371.00,1.16
6370.00,1.16
6369.00,1.16
6368.00,1.16
6367.00,1.16
6366.00,1.16
6365.00,1.16
6364.00,1.16
6363.00,1.17
6362.00,1.17
6361.00,1.17
6360.00,1.17
6359.00,1.17
6358.00,1.17
6357.00,1.17
6356.00,1.17
6355.00,1.17
6354.00,1.17
6353.00,1.17
6352.00,1.18
6351.00,1.18
6350.00,1.18
6349.00,1.18
6348.00,1.18
6347.00,1.18
6346.00,1.18
6345.00,1.18
6344.00,1.18
6343.00,1.18
6342.00,1.19
6341.00,1.19
6340.00,1.19
6339.00,1.19
6338.00,1.19
6337.00,1.19
6336.00,1.19
6335.00,1.19
6334.00,1.20
6333.00,1.20
6332.00,1.20
6331.00,1.20
6330.00,1.20
6329.00,1.20
6328.00,1.20
6327.00,1.21
6326.00,1.21
6325.00,1.21
6324.00,1.21
6323.00,1.21
6322.00,1.21
6321.00,1.21
6320.00,1.21
6319.00,1.21
6318.00,1.21
6317.00,1.22
6316.00,1.22
6315.00,1.22
6314.00,1.22
6313.00,1.22
6312.00,1.22
6311.00,1.22
6310.00,1.22
6309.00,1.22
6308.00,1.22
6307.00,1.22
6306.00,1.22
6305.00,1.23
6304.00,1.23
6303.00,1.23
6302.00,1.23
6301.00,1.23
6300.00,1.23
6299.00,1.23
6298.00,1.23
6297.00,1.23
6296.00,1.24
6295.00,1.24
6294.00,1.24
6293.00,1.24
6292.00,1.24
6291.00,1.24
6290.00,1.24
6289.00,1.24
6288.00,1.24
6287.00,1.24
6286.00,1.24
6285.00,1.24
6284.00,1.24
6283.00,1.24
6282.00,1.25
6281.00,1.25
6280.00,1.25
6279.00,1.25
6278.00,1.25
6277.00,1.25
6276.00,1.26
6275.00,1.26
6274.00,1.26
6273.00,1.26
6272.00,1.26
6271.00,1.27
6270.00,1.27
6269.00,1.27
6268.00,1.27
6267.00,1.27
6266.00,1.27
6265.00,1.27
6264.00,1.28
6263.00,1.28
6262.00,1.28
6261.00,1.28
6260.00,1.28
6259.00,1.28
6258.00,1.28
6257.00,1.29
6256.00,1.29
6255.00,1.29
6254.00,1.29
6253.00,1.29
6252.00,1.29
6251.00,1.30
6250.00,1.30
6249.00,1.30
6248.00,1.30
6247.00,1.30
6246.00,1.30
6245.00,1.31
6244.00,1.31
6243.00,1.31
6242.00,1.31
6241.00,1.31
6240.00,1.31
6239.00,1.31
6238.00,1.31
6237.00,1.31
6236.00,1.32
6235.00,1.32
6234.00,1.32
6233.00,1.32
6232.00,1.32
6231.00,1.32
6230.00,1.32
6229.00,1.32
6228.00,1.32
6227.00,1.32
6226.00,1.32
6225.00,1.32
6224.00,1.32
6223.00,1.33
6222.00,1.33
6221.00,1.33
6220.00,1.33
6219.00,1.33
6218.00,1.33
6217.00,1.34
6216.00,1.34
6215.00,1.34
6214.00,1.34
6213.00,1.34
6212.00,1.34
6211.00,1.35
6210.00,1.35
6209.00,1.35
6208.00,1.35
6207.00,1.35
6206.00,1.35
6205.00,1.35
6204.00,1.36
6203.00,1.36
6202.00,1.36
6201.00,1.36
6200.00,1.36
6199.00,1.36
6198.00,1.36
6197.00,1.37
6196.00,1.37
6195.00,1.37
6194.00,1.37
6193.00,1.37
6192.00,1.37
6191.00,1.37
6190.00,1.38
6189.00,1.38
6188.00,1.38
6187.00,1.38
6186.00,1.38
6185.00,1.38
6184.00,1.38
6183.00,1.38
6182.00,1.39
6181.00,1.39
6180.00,1.39
6179.00,1.39
6178.00,1.39
6177.00,1.39
6176.00,1.40
6175.00,1.40
6174.00,1.40
6173.00,1.40
6172.00,1.40
6171.00,1.40
6170.00,1.40
6169.00,1.41
6168.00,1.41
6167.00,1.41
6166.00,1.41
6165.00,1.41
6164.00,1.41
6163.00,1.41
6162.00,1.41
6161.00,1.42
6160.00,1.42
6159.00,1.42
6158.00,1.42
6157.00,1.42
6156.00,1.42
6155.00,1.43
6154.00,1.43
6153.00,1.43
6152.00,1.43
6151.00,1.43
6150.00,1.43
6149.00,1.44
6148.00,1.44
6147.00,1.44
6146.00,1.44
6145.00,1.44
6144.00,1.44
6143.00,1.44
6142.00,1.45
6141.00,1.45
6140.00,1.45
6139.00,1.45
6138.00,1.45
6137.00,1.45
6136.00,1.45
6135.00,1.45
6134.00,1.45
6133.00,1.45
6132.00,1.46
6131.00,1.46
6130.00,1.46
6129.00,1.46
6128.00,1.46
6127.00,1.46
6126.00,1.46
6125.00,1.47
6124.00,1.47
6123.00,1.47
6122.00,1.47
6121.00,1.47
6120.00,1.47
6119.00,1.48
6118.00,1.48
6117.00,1.48
6116.00,1.48
6115.00,1.48
6114.00,1.48
6113.00,1.48
6112.00,1.48
6111.00,1.49
6110.00,1.49
6109.00,1.49
6108.00,1.49
6107.00,1.49
6106.00,1.49
6105.00,1.49
6104.00,1.50
6103.00,1.50
6102.00,1.50
6101.00,1.50
6100.00,1.50
6099.00,1.50
6098.00,1.50
6097.00,1.50
6096.00,1.50
6095.00,1.51
6094.00,1.51
6093.00,1.51
6092.00,1.51
6091.00,1.51
6090.00,1.51
6089.00,1.51
6088.00,1.51
6087.00,1.51
6086.00,1.52
6085.00,1.52
6084.00,1.52
6083.00,1.52
6082.00,1.52
6081.00,1.52
6080.00,1.52
6079.00,1.53
6078.00,1.53
6077.00,1.53
6076.00,1.53
6075.00,1.53
6074.00,1.53
6073.00,1.53
6072.00,1.53
6071.00,1.54
6070.00,1.54
6069.00,1.54
6068.00,1.54
6067.00,1.54
6066.00,1.54
6065.00,1.54
6064.00,1.54
6063.00,1.54
6062.00,1.54
6061.00,1.55
6060.00,1.55
6059.00,1.55
6058.00,1.55
6057.00,1.55
6056.00,1.55
6055.00,1.55
6054.00,1.55
6053.00,1.55
6052.00,1.55
6051.00,1.55
6050.00,1.55
6049.00,1.56
6048.00,1.56
6047.00,1.56
6046.00,1.56
6045.00,1.56
6044.00,1.56
6043.00,1.56
6042.00,1.56
6041.00,1.56
6040.00,1.56
6039.00,1.56
6038.00,1.57
6037.00,1.57
6036.00,1.57
6035.00,1.57
6034.00,1.57
6033.00,1.57
6032.00,1.57
6031.00,1.57
6030.00,1.57
6029.00,1.57
6028.00,1.57
6027.00,1.57
6026.00,1.57
6025.00,1.57
6024.00,1.57
6023.00,1.57
6022.00,1.57
6021.00,1.57
6020.00,1.57
6019.00,1.57
6018.00,1.57
6017.00,1.57
6016.00,1.57
6015.00,1.57
6014.00,1.57
6013.00,1.57
6012.00,1.57
6011.00,1.57
6010.00,1.57
6009.00,1.57
6008.00,1.57
6007.00,1.57
6006.00,1.57
6005.00,1.57
6004.00,1.57
6003.00,1.57
6002.00,1.57
6001.00,1.57
6000.00,1.57
5999.00,1.56
5998.00,1.56
5997.00,1.56
5996.00,1.56
5995.00,1.56
5994.00,1.56
5993.00,1.56
5992.00,1.55
5991.00,1.55
5990.00,1.55
5989.00,1.55
5988.00,1.55
5987.00,1.55
5986.00,1.54
5985.00,1.54
5984.00,1.54
5983.00,1.54
5982.00,1.53
5981.00,1.53
5980.00,1.53
5979.00,1.52
5978.00,1.52
5977.00,1.52
5976.00,1.51
5975.00,1.51
5974.00,1.50
5973.00,1.50
5972.00,1.49
5971.00,1.49
5970.00,1.48
5969.00,1.48
5968.00,1.47
5967.00,1.47
5966.00,1.46
5965.00,1.45
5964.00,1.45
5963.00,1.44
5962.00,1.43
5961.00,1.42
5960.00,1.42
5959.00,1.41
5958.00,1.40
5957.00,1.39
5956.00,1.39
5955.00,1.38
5954.00,1.37
5953.00,1.37
5952.00,1.36
5951.00,1.35
5950.00,1.35
5949.00,1.34
5948.00,1.34
5947.00,1.33
5946.00,1.33
5945.00,1.32
5944.00,1.32
5943.00,1.32
5942.00,1.31
5941.00,1.31
5940.00,1.31
5939.00,1.31
5938.00,1.31
5937.00,1.31
5936.00,1.30
5935.00,1.30
5934.00,1.30
5933.00,1.30
5932.00,1.30
5931.00,1.30
5930.00,1.30
5929.00,1.30
5928.00,1.30
5927.00,1.29
5926.00,1.29
5925.00,1.29
5924.00,1.29
5923.00,1.28
5922.00,1.28
5921.00,1.28
5920.00,1.28
5919.00,1.27
5918.00,1.27
5917.00,1.27
5916.00,1.27
5915.00,1.26
5914.00,1.26
5913.00,1.26
5912.00,1.25
5911.00,1.25
5910.00,1.25
5909.00,1.25
5908.00,1.25
5907.00,1.24
5906.00,1.24
5905.00,1.24
5904.00,1.24
5903.00,1.24
5902.00,1.24
5901.00,1.24
5900.00,1.24
5899.00,1.24
5898.00,1.24
5897.00,1.24
5896.00,1.24
5895.00,1.24
5894.00,1.24
5893.00,1.24
5892.00,1.24
5891.00,1.24
5890.00,1.25
5889.00,1.25
5888.00,1.25
5887.00,1.25
5886.00,1.26
5885.00,1.26
5884.00,1.26
5883.00,1.27
5882.00,1.27
5881.00,1.27
5880.00,1.28
5879.00,1.28
5878.00,1.28
5877.00,1.28
5876.00,1.29
5875.00,1.29
5874.00,1.29
5873.00,1.30
5872.00,1.30
5871.00,1.30
5870.00,1.30
5869.00,1.31
5868.00,1.31
5867.00,1.31
5866.00,1.31
5865.00,1.32
5864.00,1.32
5863.00,1.32
5862.00,1.32
5861.00,1.32
5860.00,1.32
5859.00,1.33
5858.00,1.33
5857.00,1.33
5856.00,1.33
5855.00,1.33
5854.00,1.33
5853.00,1.34
5852.00,1.34
5851.00,1.34
5850.00,1.34
5849.00,1.34
5848.00,1.34
5847.00,1.34
5846.00,1.34
5845.00,1.34
5844.00,1.34
5843.00,1.34
5842.00,1.34
5841.00,1.34
5840.00,1.34
5839.00,1.34
5838.00,1.34
5837.00,1.34
5836.00,1.34
5835.00,1.34
5834.00,1.34
5833.00,1.34
5832.00,1.34
5831.00,1.33
5830.00,1.33
5829.00,1.33
5828.00,1.33
5827.00,1.33
5826.00,1.33
5825.00,1.33
5824.00,1.33
5823.00,1.33
5822.00,1.33
5821.00,1.33
5820.00,1.33
5819.00,1.33
5818.00,1.33
5817.00,1.33
5816.00,1.33
5815.00,1.33
5814.00,1.34
5813.00,1.34
5812.00,1.34
5811.00,1.34
5810.00,1.34
5809.00,1.34
5808.00,1.34
5807.00,1.34
5806.00,1.34
5805.00,1.34
5804.00,1.33
5803.00,1.33
5802.00,1.33
5801.00,1.33
5800.00,1.33
5799.00,1.33
5798.00,1.32
5797.00,1.32
5796.00,1.32
5795.00,1.32
5794.00,1.32
5793.00,1.31
5792.00,1.31
5791.00,1.31
5790.00,1.30
5789.00,1.30
5788.00,1.30
5787.00,1.30
5786.00,1.29
5785.00,1.29
5784.00,1.29
5783.00,1.29
5782.00,1.28
5781.00,1.28
5780.00,1.28
5779.00,1.28
5778.00,1.28
5777.00,1.28
5776.00,1.28
5775.00,1.27
5774.00,1.27
5773.00,1.27
5772.00,1.27
5771.00,1.27
5770.00,1.28
5769.00,1.28
5768.00,1.28
5767.00,1.28
5766.00,1.28
5765.00,1.28
5764.00,1.28
5763.00,1.29
5762.00,1.29
5761.00,1.29
5760.00,1.30
5759.00,1.30
5758.00,1.30
5757.00,1.31
5756.00,1.31
5755.00,1.31
5754.00,1.32
5753.00,1.32
5752.00,1.33
5751.00,1.33
5750.00,1.33
5749.00,1.34
5748.00,1.34
5747.00,1.34
5746.00,1.35
5745.00,1.35
5744.00,1.35
5743.00,1.36
5742.00,1.36
5741.00,1.36
5740.00,1.36
5739.00,1.37
5738.00,1.37
5737.00,1.37
5736.00,1.37
5735.00,1.37
5734.00,1.38
5733.00,1.38
5732.00,1.38
5731.00,1.38
5730.00,1.38
5729.00,1.38
5728.00,1.38
5727.00,1.38
5726.00,1.39
5725.00,1.39
5724.00,1.39
5723.00,1.39
5722.00,1.39
5721.00,1.39
5720.00,1.39
5719.00,1.39
5718.00,1.39
5717.00,1.39
5716.00,1.39
5715.00,1.39
5714.00,1.39
5713.00,1.39
5712.00,1.39
5711.00,1.39
5710.00,1.38
5709.00,1.38
5708.00,1.38
5707.00,1.38
5706.00,1.38
5705.00,1.38
5704.00,1.38
5703.00,1.38
5702.00,1.38
5701.00,1.37
5700.00,1.37
5699.00,1.37
5698.00,1.37
5697.00,1.37
5696.00,1.37
5695.00,1.37
5694.00,1.36
5693.00,1.36
5692.00,1.36
5691.00,1.36
5690.00,1.36
5689.00,1.36
5688.00,1.36
5687.00,1.36
5686.00,1.35
5685.00,1.35
5684.00,1.35
5683.00,1.35
5682.00,1.35
5681.00,1.35
5680.00,1.35
5679.00,1.35
5678.00,1.35
5677.00,1.35
5676.00,1.34
5675.00,1.34
5674.00,1.34
5673.00,1.34
5672.00,1.34
5671.00,1.34
5670.00,1.34
5669.00,1.34
5668.00,1.34
5667.00,1.34
5666.00,1.34
5665.00,1.35
5664.00,1.35
5663.00,1.35
5662.00,1.35
5661.00,1.35
5660.00,1.35
5659.00,1.35
5658.00,1.36
5657.00,1.36
5656.00,1.36
5655.00,1.36
5654.00,1.36
5653.00,1.37
5652.00,1.37
5651.00,1.37
5650.00,1.37
5649.00,1.37
5648.00,1.38
5647.00,1.38
5646.00,1.38
5645.00,1.38
5644.00,1.38
5643.00,1.39
5642.00,1.39
5641.00,1.39
5640.00,1.39
5639.00,1.40
5638.00,1.40
5637.00,1.40
5636.00,1.40
5635.00,1.40
5634.00,1.41
5633.00,1.41
5632.00,1.41
5631.00,1.41
5630.00,1.41
5629.00,1.41
5628.00,1.41
5627.00,1.41
5626.00,1.42
5625.00,1.42
5624.00,1.42
5623.00,1.42
5622.00,1.42
5621.00,1.42
5620.00,1.42
5619.00,1.42
5618.00,1.42
5617.00,1.42
5616.00,1.43
5615.00,1.43
5614.00,1.43
5613.00,1.43
5612.00,1.43
5611.00,1.43
5610.00,1.43
5609.00,1.44
5608.00,1.44
5607.00,1.44
5606.00,1.44
5605.00,1.45
5604.00,1.45
5603.00,1.45
5602.00,1.45
5601.00,1.45
5600.00,1.46
5599.00,1.46
5598.00,1.46
5597.00,1.46
5596.00,1.46
5595.00,1.47
5594.00,1.47
5593.00,1.47
5592.00,1.47
5591.00,1.47
5590.00,1.47
5589.00,1.48
5588.00,1.48
5587.00,1.48
5586.00,1.48
5585.00,1.48
5584.00,1.48
5583.00,1.48
5582.00,1.48
5581.00,1.48
5580.00,1.48
5579.00,1.49
5578.00,1.49
5577.00,1.49
5576.00,1.49
5575.00,1.49
5574.00,1.49
5573.00,1.49
5572.00,1.49
5571.00,1.50
5570.00,1.50
5569.00,1.50
5568.00,1.50
5567.00,1.50
5566.00,1.50
5565.00,1.50
5564.00,1.51
5563.00,1.51
5562.00,1.51
5561.00,1.51
5560.00,1.51
5559.00,1.51
5558.00,1.51
5557.00,1.52
5556.00,1.52
5555.00,1.52
5554.00,1.52
5553.00,1.52
5552.00,1.52
5551.00,1.52
5550.00,1.52
5549.00,1.52
5548.00,1.53
5547.00,1.53
5546.00,1.53
5545.00,1.53
5544.00,1.53
5543.00,1.53
5542.00,1.53
5541.00,1.54
5540.00,1.54
5539.00,1.54
5538.00,1.54
5537.00,1.54
5536.00,1.54
5535.00,1.54
5534.00,1.55
5533.00,1.55
5532.00,1.55
5531.00,1.55
5530.00,1.55
5529.00,1.55
5528.00,1.55
5527.00,1.55
5526.00,1.55
5525.00,1.55
5524.00,1.55
5523.00,1.55
5522.00,1.56
5521.00,1.56
5520.00,1.56
5519.00,1.56
5518.00,1.56
5517.00,1.56
5516.00,1.56
5515.00,1.56
5514.00,1.56
5513.00,1.56
5512.00,1.56
5511.00,1.56
5510.00,1.56
5509.00,1.56
5508.00,1.57
5507.00,1.57
5506.00,1.57
5505.00,1.57
5504.00,1.57
5503.00,1.57
5502.00,1.57
5501.00,1.57
5500.00,1.57
5499.00,1.57
5498.00,1.57
5497.00,1.57
5496.00,1.57
5495.00,1.58
5494.00,1.58
5493.00,1.58
5492.00,1.58
5491.00,1.58
5490.00,1.58
5489.00,1.58
5488.00,1.58
5487.00,1.58
5486.00,1.59
5485.00,1.59
5484.00,1.59
5483.00,1.59
5482.00,1.59
5481.00,1.59
5480.00,1.59
5479.00,1.59
5478.00,1.59
5477.00,1.59
5476.00,1.59
5475.00,1.60
5474.00,1.60
5473.00,1.60
5472.00,1.60
5471.00,1.60
5470.00,1.60
5469.00,1.60
5468.00,1.60
5467.00,1.60
5466.00,1.60
5465.00,1.61
5464.00,1.61
5463.00,1.61
5462.00,1.61
5461.00,1.61
5460.00,1.61
5459.00,1.61
5458.00,1.61
5457.00,1.61
5456.00,1.61
5455.00,1.61
5454.00,1.61
5453.00,1.61
5452.00,1.62
5451.00,1.62
5450.00,1.62
5449.00,1.62
5448.00,1.62
5447.00,1.62
5446.00,1.62
5445.00,1.62
5444.00,1.62
5443.00,1.62
5442.00,1.62
5441.00,1.62
5440.00,1.62
5439.00,1.62
5438.00,1.62
5437.00,1.62
5436.00,1.62
5435.00,1.62
5434.00,1.62
5433.00,1.62
5432.00,1.62
5431.00,1.63
5430.00,1.63
5429.00,1.63
5428.00,1.63
5427.00,1.63
5426.00,1.63
5425.00,1.63
5424.00,1.63
5423.00,1.63
5422.00,1.63
5421.00,1.63
5420.00,1.63
5419.00,1.63
5418.00,1.63
5417.00,1.63
5416.00,1.63
5415.00,1.63
5414.00,1.63
5413.00,1.63
5412.00,1.63
5411.00,1.63
5410.00,1.63
5409.00,1.63
5408.00,1.63
5407.00,1.63
5406.00,1.63
5405.00,1.63
5404.00,1.63
5403.00,1.63
5402.00,1.63
5401.00,1.62
5400.00,1.62
5399.00,1.62
5398.00,1.62
5397.00,1.62
5396.00,1.62
5395.00,1.62
5394.00,1.62
5393.00,1.62
5392.00,1.62
5391.00,1.62
5390.00,1.61
5389.00,1.61
5388.00,1.61
5387.00,1.61
5386.00,1.61
5385.00,1.61
5384.00,1.60
5383.00,1.60
5382.00,1.60
5381.00,1.60
5380.00,1.59
5379.00,1.59
5378.00,1.59
5377.00,1.59
5376.00,1.58
5375.00,1.58
5374.00,1.57
5373.00,1.57
5372.00,1.57
5371.00,1.56
5370.00,1.56
5369.00,1.55
5368.00,1.55
5367.00,1.54
5366.00,1.54
5365.00,1.53
5364.00,1.53
5363.00,1.52
5362.00,1.51
5361.00,1.51
5360.00,1.50
5359.00,1.49
5358.00,1.48
5357.00,1.48
5356.00,1.47
5355.00,1.46
5354.00,1.45
5353.00,1.44
5352.00,1.44
5351.00,1.43
5350.00,1.42
5349.00,1.41
5348.00,1.40
5347.00,1.39
5346.00,1.38
5345.00,1.37
5344.00,1.35
5343.00,1.34
5342.00,1.33
5341.00,1.32
5340.00,1.31
5339.00,1.30
5338.00,1.29
5337.00,1.27
5336.00,1.26
5335.00,1.25
5334.00,1.24
5333.00,1.22
5332.00,1.21
5331.00,1.20
5330.00,1.18
5329.00,1.17
5328.00,1.16
5327.00,1.14
5326.00,1.13
5325.00,1.12
5324.00,1.10
5323.00,1.09
5322.00,1.07
5321.00,1.06
5320.00,1.05
5319.00,1.03
5318.00,1.02
5317.00,1.01
5316.00,0.99
5315.00,0.98
5314.00,0.97
5313.00,0.95
5312.00,0.94
5311.00,0.93
5310.00,0.91
5309.00,0.90
5308.00,0.89
5307.00,0.88
5306.00,0.86
5305.00,0.85
5304.00,0.84
5303.00,0.83
5302.00,0.82
5301.00,0.81
5300.00,0.80
5299.00,0.79
5298.00,0.78
5297.00,0.77
5296.00,0.76
5295.00,0.75
5294.00,0.74
5293.00,0.74
5292.00,0.73
5291.00,0.72
5290.00,0.72
5289.00,0.71
5288.00,0.70
5287.00,0.70
5286.00,0.69
5285.00,0.69
5284.00,0.68
5283.00,0.68
5282.00,0.67
5281.00,0.67
5280.00,0.66
5279.00,0.66
5278.00,0.66
5277.00,0.65
5276.00,0.65
5275.00,0.65
5274.00,0.65
5273.00,0.64
5272.00,0.64
5271.00,0.64
5270.00,0.64
5269.00,0.63
5268.00,0.63
5267.00,0.63
5266.00,0.63
5265.00,0.62
5264.00,0.62
5263.00,0.62
5262.00,0.62
5261.00,0.62
5260.00,0.61
5259.00,0.61
5258.00,0.61
5257.00,0.61
5256.00,0.60
5255.00,0.60
5254.00,0.60
5253.00,0.60
5252.00,0.60
5251.00,0.60
5250.00,0.59
5249.00,0.59
5248.00,0.59
5247.00,0.59
5246.00,0.59
5245.00,0.59
5244.00,0.59
5243.00,0.59
5242.00,0.58
5241.00,0.58
5240.00,0.58
5239.00,0.58
5238.00,0.58
5237.00,0.58
5236.00,0.58
5235.00,0.58
5234.00,0.58
5233.00,0.58
5232.00,0.58
5231.00,0.58
5230.00,0.58
5229.00,0.58
5228.00,0.58
5227.00,0.58
5226.00,0.58
5225.00,0.58
5224.00,0.58
5223.00,0.58
5222.00,0.58
5221.00,0.58
5220.00,0.58
5219.00,0.58
5218.00,0.58
5217.00,0.58
5216.00,0.58
5215.00,0.58
5214.00,0.58
5213.00,0.58
5212.00,0.58
5211.00,0.58
5210.00,0.58
5209.00,0.58
5208.00,0.58
5207.00,0.58
5206.00,0.58
5205.00,0.58
5204.00,0.58
5203.00,0.58
5202.00,0.58
5201.00,0.58
5200.00,0.58
5199.00,0.58
5198.00,0.58
5197.00,0.58
5196.00,0.58
5195.00,0.58
5194.00,0.58
5193.00,0.58
5192.00,0.58
5191.00,0.58
5190.00,0.58
5189.00,0.58
5188.00,0.58
5187.00,0.58
5186.00,0.58
5185.00,0.58
5184.00,0.58
5183.00,0.58
5182.00,0.58
5181.00,0.58
5180.00,0.58
5179.00,0.58
5178.00,0.58
5177.00,0.58
5176.00,0.58
5175.00,0.58
5174.00,0.58
5173.00,0.58
5172.00,0.58
5171.00,0.58
5170.00,0.58
5169.00,0.58
5168.00,0.58
5167.00,0.58
5166.00,0.58
5165.00,0.58
5164.00,0.59
5163.00,0.59
5162.00,0.59
5161.00,0.59
5160.00,0.59
5159.00,0.59
5158.00,0.59
5157.00,0.59
5156.00,0.59
5155.00,0.59
5154.00,0.59
5153.00,0.59
5152.00,0.59
5151.00,0.59
5150.00,0.60
5149.00,0.60
5148.00,0.60
5147.00,0.60
5146.00,0.60
5145.00,0.60
5144.00,0.60
5143.00,0.60
5142.00,0.60
5141.00,0.60
5140.00,0.60
5139.00,0.61
5138.00,0.61
5137.00,0.61
5136.00,0.61
5135.00,0.61
5134.00,0.61
5133.00,0.61
5132.00,0.61
5131.00,0.61
5130.00,0.61
5129.00,0.62
5128.00,0.62
5127.00,0.62
5126.00,0.62
5125.00,0.62
5124.00,0.62
5123.00,0.62
5122.00,0.62
5121.00,0.62
5120.00,0.62
5119.00,0.62
5118.00,0.62
5117.00,0.62
5116.00,0.62
5115.00,0.62
5114.00,0.62
5113.00,0.62
5112.00,0.62
5111.00,0.62
5110.00,0.63
5109.00,0.63
5108.00,0.63
5107.00,0.63
5106.00,0.63
5105.00,0.63
5104.00,0.63
5103.00,0.63
5102.00,0.63
5101.00,0.63
5100.00,0.63
5099.00,0.64
5098.00,0.64
5097.00,0.64
5096.00,0.64
5095.00,0.64
5094.00,0.64
5093.00,0.64
5092.00,0.64
5091.00,0.64
5090.00,0.65
5089.00,0.65
5088.00,0.65
5087.00,0.65
5086.00,0.65
5085.00,0.65
5084.00,0.65
5083.00,0.65
5082.00,0.65
5081.00,0.65
5080.00,0.65
5079.00,0.65
5078.00,0.66
5077.00,0.66
5076.00,0.66
5075.00,0.66
5074.00,0.66
5073.00,0.66
5072.00,0.66
5071.00,0.66
5070.00,0.66
5069.00,0.67
5068.00,0.67
5067.00,0.67
5066.00,0.67
5065.00,0.67
5064.00,0.67
5063.00,0.68
5062.00,0.68
5061.00,0.68
5060.00,0.68
5059.00,0.68
5058.00,0.68
5057.00,0.69
5056.00,0.69
5055.00,0.69
5054.00,0.69
5053.00,0.69
5052.00,0.69
5051.00,0.70
5050.00,0.70
5049.00,0.70
5048.00,0.70
5047.00,0.70
5046.00,0.71
5045.00,0.71
5044.00,0.71
5043.00,0.71
5042.00,0.71
5041.00,0.72
5040.00,0.72
5039.00,0.72
5038.00,0.72
5037.00,0.72
5036.00,0.72
5035.00,0.72
5034.00,0.73
5033.00,0.73
5032.00,0.73
5031.00,0.73
5030.00,0.73
5029.00,0.73
5028.00,0.73
5027.00,0.73
5026.00,0.73
5025.00,0.73
5024.00,0.73
5023.00,0.73
5022.00,0.74
5021.00,0.74
5020.00,0.74
5019.00,0.74
5018.00,0.74
5017.00,0.74
5016.00,0.75
5015.00,0.75
5014.00,0.75
5013.00,0.75
5012.00,0.75
5011.00,0.76
5010.00,0.76
5009.00,0.76
5008.00,0.76
5007.00,0.76
5006.00,0.77
5005.00,0.77
5004.00,0.77
5003.00,0.77
5002.00,0.77
5001.00,0.77
5000.00,0.77
4999.00,0.78
4998.00,0.78
4997.00,0.78
4996.00,0.78
4995.00,0.78
4994.00,0.78
4993.00,0.78
4992.00,0.79
4991.00,0.79
4990.00,0.79
4989.00,0.79
4988.00,0.79
4987.00,0.80
4986.00,0.80
4985.00,0.80
4984.00,0.80
4983.00,0.81
4982.00,0.81
4981.00,0.81
4980.00,0.81
4979.00,0.81
4978.00,0.81
4977.00,0.82
4976.00,0.82
4975.00,0.82
4974.00,0.82
4973.00,0.82
4972.00,0.83
4971.00,0.83
4970.00,0.83
4969.00,0.83
4968.00,0.83
4967.00,0.84
4966.00,0.84
4965.00,0.84
4964.00,0.84
4963.00,0.84
4962.00,0.85
4961.00,0.85
4960.00,0.85
4959.00,0.85
4958.00,0.86
4957.00,0.86
4956.00,0.86
4955.00,0.86
4954.00,0.87
4953.00,0.87
4952.00,0.87
4951.00,0.87
4950.00,0.87
4949.00,0.87
4948.00,0.88
4947.00,0.88
4946.00,0.88
4945.00,0.88
4944.00,0.88
4943.00,0.88
4942.00,0.89
4941.00,0.89
4940.00,0.89
4939.00,0.89
4938.00,0.89
4937.00,0.89
4936.00,0.89
4935.00,0.89
4934.00,0.89
4933.00,0.90
4932.00,0.90
4931.00,0.90
4930.00,0.90
4929.00,0.90
4928.00,0.90
4927.00,0.90
4926.00,0.90
4925.00,0.90
4924.00,0.90
4923.00,0.91
4922.00,0.91
4921.00,0.91
4920.00,0.91
4919.00,0.91
4918.00,0.91
4917.00,0.91
4916.00,0.91
4915.00,0.91
4914.00,0.91
4913.00,0.92
4912.00,0.92
4911.00,0.92
4910.00,0.92
4909.00,0.92
4908.00,0.92
4907.00,0.92
4906.00,0.92
4905.00,0.92
4904.00,0.92
4903.00,0.93
4902.00,0.93
4901.00,0.93
4900.00,0.93
4899.00,0.93
4898.00,0.93
4897.00,0.93
4896.00,0.93
4895.00,0.93
4894.00,0.93
4893.00,0.93
4892.00,0.93
4891.00,0.93
4890.00,0.93
4889.00,0.93
4888.00,0.93
4887.00,0.93
4886.00,0.93
4885.00,0.93
4884.00,0.93
4883.00,0.94
4882.00,0.94
4881.00,0.94
4880.00,0.94
4879.00,0.94
4878.00,0.94
4877.00,0.94
4876.00,0.95
4875.00,0.95
4874.00,0.95
4873.00,0.95
4872.00,0.95
4871.00,0.95
4870.00,0.95
4869.00,0.96
4868.00,0.96
4867.00,0.96
4866.00,0.96
4865.00,0.96
4864.00,0.96
4863.00,0.96
4862.00,0.96
4861.00,0.96
4860.00,0.96
4859.00,0.96
4858.00,0.96
4857.00,0.96
4856.00,0.96
4855.00,0.96
4854.00,0.96
4853.00,0.97
4852.00,0.97
4851.00,0.97
4850.00,0.97
4849.00,0.97
4848.00,0.97
4847.00,0.97
4846.00,0.97
4845.00,0.98
4844.00,0.98
4843.00,0.98
4842.00,0.98
4841.00,0.98
4840.00,0.98
4839.00,0.99
4838.00,0.99
4837.00,0.99
4836.00,0.99
4835.00,0.99
4834.00,0.99
4833.00,1.00
4832.00,1.00
4831.00,1.00
4830.00,1.00
4829.00,1.00
4828.00,1.00
4827.00,1.00
4826.00,1.00
4825.00,1.00
4824.00,1.01
4823.00,1.01
4822.00,1.01
4821.00,1.01
4820.00,1.01
4819.00,1.01
4818.00,1.01
4817.00,1.01
4816.00,1.02
4815.00,1.02
4814.00,1.02
4813.00,1.02
4812.00,1.02
4811.00,1.02
4810.00,1.03
4809.00,1.03
4808.00,1.03
4807.00,1.03
4806.00,1.03
4805.00,1.03
4804.00,1.04
4803.00,1.04
4802.00,1.04
4801.00,1.04
4800.00,1.04
4799.00,1.05
4798.00,1.05
4797.00,1.05
4796.00,1.05
4795.00,1.06
4794.00,1.06
4793.00,1.06
4792.00,1.06
4791.00,1.07
4790.00,1.07
4789.00,1.07
4788.00,1.07
4787.00,1.08
4786.00,1.08
4785.00,1.08
4784.00,1.08
4783.00,1.09
4782.00,1.09
4781.00,1.09
4780.00,1.09
4779.00,1.10
4778.00,1.10
4777.00,1.10
4776.00,1.10
4775.00,1.11
4774.00,1.11
4773.00,1.11
4772.00,1.12
4771.00,1.12
4770.00,1.12
4769.00,1.13
4768.00,1.13
4767.00,1.13
4766.00,1.14
4765.00,1.14
4764.00,1.14
4763.00,1.15
4762.00,1.15
4761.00,1.15
4760.00,1.16
4759.00,1.16
4758.00,1.16
4757.00,1.16
4756.00,1.17
4755.00,1.17
4754.00,1.17
4753.00,1.17
4752.00,1.18
4751.00,1.18
4750.00,1.18
4749.00,1.18
4748.00,1.19
4747.00,1.19
4746.00,1.19
4745.00,1.19
4744.00,1.20
4743.00,1.20
4742.00,1.20
4741.00,1.20
4740.00,1.20
4739.00,1.21
4738.00,1.21
4737.00,1.21
4736.00,1.21
4735.00,1.22
4734.00,1.22
4733.00,1.22
4732.00,1.22
4731.00,1.23
4730.00,1.23
4729.00,1.23
4728.00,1.23
4727.00,1.24
4726.00,1.24
4725.00,1.24
4724.00,1.24
4723.00,1.25
4722.00,1.25
4721.00,1.25
4720.00,1.26
4719.00,1.26
4718.00,1.26
4717.00,1.27
4716.00,1.27
4715.00,1.27
4714.00,1.28
4713.00,1.28
4712.00,1.28
4711.00,1.29
4710.00,1.29
4709.00,1.29
4708.00,1.30
4707.00,1.30
4706.00,1.31
4705.00,1.31
4704.00,1.31
4703.00,1.32
4702.00,1.32
4701.00,1.32
4700.00,1.32
4699.00,1.33
4698.00,1.33
4697.00,1.33
4696.00,1.33
4695.00,1.34
4694.00,1.34
4693.00,1.34
4692.00,1.34
4691.00,1.34
4690.00,1.35
4689.00,1.35
4688.00,1.35
4687.00,1.35
4686.00,1.35
4685.00,1.36
4684.00,1.36
4683.00,1.36
4682.00,1.37
4681.00,1.37
4680.00,1.37
4679.00,1.38
4678.00,1.38
4677.00,1.38
4676.00,1.39
4675.00,1.39
4674.00,1.39
4673.00,1.39
4672.00,1.40
4671.00,1.40
4670.00,1.40
4669.00,1.40
4668.00,1.41
4667.00,1.41
4666.00,1.41
4665.00,1.41
4664.00,1.41
4663.00,1.42
4662.00,1.42
4661.00,1.42
4660.00,1.42
4659.00,1.43
4658.00,1.43
4657.00,1.43
4656.00,1.43
4655.00,1.43
4654.00,1.44
4653.00,1.44
4652.00,1.44
4651.00,1.44
4650.00,1.44
4649.00,1.44
4648.00,1.45
4647.00,1.45
4646.00,1.45
4645.00,1.45
4644.00,1.45
4643.00,1.45
4642.00,1.46
4641.00,1.46
4640.00,1.46
4639.00,1.46
4638.00,1.46
4637.00,1.47
4636.00,1.47
4635.00,1.47
4634.00,1.47
4633.00,1.48
4632.00,1.48
4631.00,1.48
4630.00,1.48
4629.00,1.49
4628.00,1.49
4627.00,1.49
4626.00,1.49
4625.00,1.49
4624.00,1.49
4623.00,1.50
4622.00,1.50
4621.00,1.50
4620.00,1.50
4619.00,1.50
4618.00,1.50
4617.00,1.50
4616.00,1.50
4615.00,1.51
4614.00,1.51
4613.00,1.51
4612.00,1.51
4611.00,1.51
4610.00,1.51
4609.00,1.51
4608.00,1.51
4607.00,1.51
4606.00,1.52
4605.00,1.52
4604.00,1.52
4603.00,1.52
4602.00,1.52
4601.00,1.52
4600.00,1.52
4599.00,1.52
4598.00,1.52
4597.00,1.52
4596.00,1.52
4595.00,1.52
4594.00,1.52
4593.00,1.53
4592.00,1.53
4591.00,1.53
4590.00,1.53
4589.00,1.53
4588.00,1.53
4587.00,1.54
4586.00,1.54
4585.00,1.54
4584.00,1.54
4583.00,1.55
4582.00,1.55
4581.00,1.55
4580.00,1.55
4579.00,1.56
4578.00,1.56
4577.00,1.56
4576.00,1.56
4575.00,1.57
4574.00,1.57
4573.00,1.57
4572.00,1.57
4571.00,1.57
4570.00,1.57
4569.00,1.58
4568.00,1.58
4567.00,1.58
4566.00,1.58
4565.00,1.58
4564.00,1.58
4563.00,1.58
4562.00,1.58
4561.00,1.58
4560.00,1.59
4559.00,1.59
4558.00,1.59
4557.00,1.59
4556.00,1.59
4555.00,1.59
4554.00,1.59
4553.00,1.59
4552.00,1.59
4551.00,1.59
4550.00,1.59
4549.00,1.60
4548.00,1.60
4547.00,1.60
4546.00,1.60
4545.00,1.60
4544.00,1.60
4543.00,1.60
4542.00,1.60
4541.00,1.61
4540.00,1.61
4539.00,1.61
4538.00,1.61
4537.00,1.61
4536.00,1.61
4535.00,1.61
4534.00,1.61
4533.00,1.61
4532.00,1.61
4531.00,1.61
4530.00,1.61
4529.00,1.61
4528.00,1.61
4527.00,1.62
4526.00,1.62
4525.00,1.62
4524.00,1.62
4523.00,1.62
4522.00,1.62
4521.00,1.62
4520.00,1.62
4519.00,1.62
4518.00,1.62
4517.00,1.62
4516.00,1.62
4515.00,1.62
4514.00,1.62
4513.00,1.62
4512.00,1.63
4511.00,1.63
4510.00,1.63
4509.00,1.63
4508.00,1.63
4507.00,1.63
4506.00,1.63
4505.00,1.63
4504.00,1.63
4503.00,1.63
4502.00,1.63
4501.00,1.63
4500.00,1.63
4499.00,1.63
4498.00,1.63
4497.00,1.63
4496.00,1.63
4495.00,1.63
4494.00,1.62
4493.00,1.62
4492.00,1.62
4491.00,1.62
4490.00,1.62
4489.00,1.62
4488.00,1.62
4487.00,1.62
4486.00,1.61
4485.00,1.61
4484.00,1.61
4483.00,1.60
4482.00,1.60
4481.00,1.60
4480.00,1.59
4479.00,1.59
4478.00,1.59
4477.00,1.58
4476.00,1.58
4475.00,1.57
4474.00,1.57
4473.00,1.57
4472.00,1.56
4471.00,1.56
4470.00,1.55
4469.00,1.55
4468.00,1.54
4467.00,1.54
4466.00,1.53
4465.00,1.52
4464.00,1.52
4463.00,1.51
4462.00,1.51
4461.00,1.50
4460.00,1.49
4459.00,1.49
4458.00,1.48
4457.00,1.47
4456.00,1.47
4455.00,1.46
4454.00,1.45
4453.00,1.44
4452.00,1.44
4451.00,1.43
4450.00,1.42
4449.00,1.41
4448.00,1.41
4447.00,1.40
4446.00,1.39
4445.00,1.38
4444.00,1.37
4443.00,1.36
4442.00,1.35
4441.00,1.34
4440.00,1.33
4439.00,1.32
4438.00,1.31
4437.00,1.30
4436.00,1.29
4435.00,1.28
4434.00,1.27
4433.00,1.26
4432.00,1.25
4431.00,1.24
4430.00,1.23
4429.00,1.22
4428.00,1.20
4427.00,1.20
4426.00,1.19
4425.00,1.18
4424.00,1.17
4423.00,1.16
4422.00,1.15
4421.00,1.15
4420.00,1.14
4419.00,1.13
4418.00,1.13
4417.00,1.12
4416.00,1.12
4415.00,1.12
4414.00,1.12
4413.00,1.11
4412.00,1.11
4411.00,1.11
4410.00,1.11
4409.00,1.11
4408.00,1.12
4407.00,1.12
4406.00,1.12
4405.00,1.12
4404.00,1.12
4403.00,1.13
4402.00,1.13
4401.00,1.13
4400.00,1.14
4399.00,1.14
4398.00,1.14
4397.00,1.15
4396.00,1.15
4395.00,1.15
4394.00,1.16
4393.00,1.16
4392.00,1.16
4391.00,1.17
4390.00,1.17
4389.00,1.17
4388.00,1.18
4387.00,1.18
4386.00,1.18
4385.00,1.19
4384.00,1.19
4383.00,1.19
4382.00,1.20
4381.00,1.20
4380.00,1.21
4379.00,1.21
4378.00,1.21
4377.00,1.22
4376.00,1.22
4375.00,1.22
4374.00,1.22
4373.00,1.23
4372.00,1.23
4371.00,1.23
4370.00,1.23
4369.00,1.23
4368.00,1.23
4367.00,1.23
4366.00,1.23
4365.00,1.23
4364.00,1.23
4363.00,1.23
4362.00,1.23
4361.00,1.22
4360.00,1.22
4359.00,1.22
4358.00,1.22
4357.00,1.21
4356.00,1.21
4355.00,1.21
4354.00,1.21
4353.00,1.21
4352.00,1.20
4351.00,1.20
4350.00,1.20
4349.00,1.20
4348.00,1.19
4347.00,1.19
4346.00,1.19
4345.00,1.19
4344.00,1.19
4343.00,1.19
4342.00,1.19
4341.00,1.19
4340.00,1.19
4339.00,1.19
4338.00,1.19
4337.00,1.19
4336.00,1.19
4335.00,1.19
4334.00,1.20
4333.00,1.20
4332.00,1.20
4331.00,1.21
4330.00,1.21
4329.00,1.21
4328.00,1.22
4327.00,1.22
4326.00,1.22
4325.00,1.23
4324.00,1.23
4323.00,1.23
4322.00,1.24
4321.00,1.24
4320.00,1.25
4319.00,1.25
4318.00,1.26
4317.00,1.26
4316.00,1.27
4315.00,1.27
4314.00,1.28
4313.00,1.28
4312.00,1.29
4311.00,1.29
4310.00,1.30
4309.00,1.30
4308.00,1.31
4307.00,1.31
4306.00,1.32
4305.00,1.33
4304.00,1.33
4303.00,1.34
4302.00,1.34
4301.00,1.35
4300.00,1.35
4299.00,1.36
4298.00,1.36
4297.00,1.37
4296.00,1.37
4295.00,1.38
4294.00,1.38
4293.00,1.39
4292.00,1.39
4291.00,1.40
4290.00,1.40
4289.00,1.40
4288.00,1.41
4287.00,1.41
4286.00,1.41
4285.00,1.41
4284.00,1.42
4283.00,1.42
4282.00,1.42
4281.00,1.42
4280.00,1.42
4279.00,1.41
4278.00,1.41
4277.00,1.41
4276.00,1.41
4275.00,1.40
4274.00,1.40
4273.00,1.40
4272.00,1.39
4271.00,1.39
4270.00,1.38
4269.00,1.38
4268.00,1.38
4267.00,1.37
4266.00,1.37
4265.00,1.36
4264.00,1.36
4263.00,1.36
4262.00,1.36
4261.00,1.35
4260.00,1.35
4259.00,1.35
4258.00,1.35
4257.00,1.35
4256.00,1.36
4255.00,1.36
4254.00,1.36
4253.00,1.36
4252.00,1.37
4251.00,1.37
4250.00,1.37
4249.00,1.38
4248.00,1.38
4247.00,1.39
4246.00,1.39
4245.00,1.39
4244.00,1.40
4243.00,1.40
4242.00,1.40
4241.00,1.41
4240.00,1.41
4239.00,1.41
4238.00,1.42
4237.00,1.42
4236.00,1.42
4235.00,1.42
4234.00,1.43
4233.00,1.43
4232.00,1.43
4231.00,1.43
4230.00,1.43
4229.00,1.44
4228.00,1.44
4227.00,1.44
4226.00,1.44
4225.00,1.44
4224.00,1.45
4223.00,1.45
4222.00,1.45
4221.00,1.45
4220.00,1.46
4219.00,1.46
4218.00,1.46
4217.00,1.46
4216.00,1.47
4215.00,1.47
4214.00,1.47
4213.00,1.47
4212.00,1.47
4211.00,1.47
4210.00,1.47
4209.00,1.48
4208.00,1.48
4207.00,1.48
4206.00,1.48
4205.00,1.48
4204.00,1.48
4203.00,1.48
4202.00,1.48
4201.00,1.48
4200.00,1.48
4199.00,1.49
4198.00,1.49
4197.00,1.49
4196.00,1.49
4195.00,1.49
4194.00,1.49
4193.00,1.49
4192.00,1.49
4191.00,1.49
4190.00,1.49
4189.00,1.48
4188.00,1.48
4187.00,1.48
4186.00,1.48
4185.00,1.48
4184.00,1.48
4183.00,1.47
4182.00,1.47
4181.00,1.47
4180.00,1.47
4179.00,1.46
4178.00,1.46
4177.00,1.46
4176.00,1.46
4175.00,1.46
4174.00,1.45
4173.00,1.45
4172.00,1.45
4171.00,1.45
4170.00,1.45
4169.00,1.45
4168.00,1.45
4167.00,1.45
4166.00,1.45
4165.00,1.46
4164.00,1.46
4163.00,1.46
4162.00,1.46
4161.00,1.47
4160.00,1.47
4159.00,1.47
4158.00,1.48
4157.00,1.48
4156.00,1.48
4155.00,1.49
4154.00,1.49
4153.00,1.49
4152.00,1.49
4151.00,1.49
4150.00,1.50
4149.00,1.50
4148.00,1.50
4147.00,1.50
4146.00,1.50
4145.00,1.50
4144.00,1.50
4143.00,1.50
4142.00,1.50
4141.00,1.50
4140.00,1.50
4139.00,1.50
4138.00,1.50
4137.00,1.51
4136.00,1.51
4135.00,1.51
4134.00,1.51
4133.00,1.51
4132.00,1.51
4131.00,1.51
4130.00,1.51
4129.00,1.51
4128.00,1.51
4127.00,1.51
4126.00,1.52
4125.00,1.52
4124.00,1.52
4123.00,1.52
4122.00,1.52
4121.00,1.52
4120.00,1.52
4119.00,1.52
4118.00,1.52
4117.00,1.53
4116.00,1.53
4115.00,1.52
4114.00,1.52
4113.00,1.52
4112.00,1.52
4111.00,1.52
4110.00,1.52
4109.00,1.52
4108.00,1.52
4107.00,1.52
4106.00,1.52
4105.00,1.52
4104.00,1.52
4103.00,1.52
4102.00,1.52
4101.00,1.52
4100.00,1.52
4099.00,1.52
4098.00,1.52
4097.00,1.52
4096.00,1.52
4095.00,1.52
4094.00,1.52
4093.00,1.52
4092.00,1.52
4091.00,1.53
4090.00,1.53
4089.00,1.53
4088.00,1.53
4087.00,1.53
4086.00,1.53
4085.00,1.53
4084.00,1.53
4083.00,1.53
4082.00,1.53
4081.00,1.53
4080.00,1.53
4079.00,1.53
4078.00,1.53
4077.00,1.53
4076.00,1.53
4075.00,1.53
4074.00,1.53
4073.00,1.53
4072.00,1.53
4071.00,1.53
4070.00,1.53
4069.00,1.53
4068.00,1.53
4067.00,1.53
4066.00,1.53
4065.00,1.53
4064.00,1.53
4063.00,1.53
4062.00,1.53
4061.00,1.53
4060.00,1.53
4059.00,1.53
4058.00,1.54
4057.00,1.54
4056.00,1.54
4055.00,1.54
4054.00,1.54
4053.00,1.54
4052.00,1.54
4051.00,1.54
4050.00,1.55
4049.00,1.55
4048.00,1.55
4047.00,1.55
4046.00,1.55
4045.00,1.55
4044.00,1.55
4043.00,1.55
4042.00,1.56
4041.00,1.56
4040.00,1.56
4039.00,1.56
4038.00,1.56
4037.00,1.56
4036.00,1.56
4035.00,1.56
4034.00,1.56
4033.00,1.56
4032.00,1.56
4031.00,1.56
4030.00,1.56
4029.00,1.56
4028.00,1.56
4027.00,1.57
4026.00,1.57
4025.00,1.57
4024.00,1.57
4023.00,1.57
4022.00,1.58
4021.00,1.58
4020.00,1.58
4019.00,1.58
4018.00,1.59
4017.00,1.59
4016.00,1.59
4015.00,1.60
4014.00,1.60
4013.00,1.60
4012.00,1.60
4011.00,1.61
4010.00,1.61
4009.00,1.61
4008.00,1.61
4007.00,1.61
4006.00,1.62
4005.00,1.62
4004.00,1.62
4003.00,1.62
4002.00,1.62
4001.00,1.62
4000.00,1.62
