创建为新数据集,样品 104 用户 Administrator 日期 星期日, 十一月 05 2017
cm-1,%T
10000.00,1.59
9999.00,1.59
9998.00,1.59
9997.00,1.59
9996.00,1.59
9995.00,1.59
9994.00,1.59
9993.00,1.59
9992.00,1.59
9991.00,1.59
9990.00,1.59
9989.00,1.59
9988.00,1.59
9987.00,1.59
9986.00,1.58
9985.00,1.58
9984.00,1.58
9983.00,1.58
9982.00,1.58
9981.00,1.57
9980.00,1.57
9979.00,1.57
9978.00,1.57
9977.00,1.57
9976.00,1.56
9975.00,1.56
9974.00,1.56
9973.00,1.56
9972.00,1.56
9971.00,1.56
9970.00,1.56
9969.00,1.57
9968.00,1.57
9967.00,1.57
9966.00,1.57
9965.00,1.58
9964.00,1.58
9963.00,1.58
9962.00,1.58
9961.00,1.59
9960.00,1.59
9959.00,1.59
9958.00,1.59
9957.00,1.59
9956.00,1.59
9955.00,1.59
9954.00,1.59
9953.00,1.59
9952.00,1.59
9951.00,1.59
9950.00,1.58
9949.00,1.58
9948.00,1.58
9947.00,1.58
9946.00,1.57
9945.00,1.57
9944.00,1.57
9943.00,1.57
9942.00,1.57
9941.00,1.56
9940.00,1.56
9939.00,1.56
9938.00,1.56
9937.00,1.56
9936.00,1.56
9935.00,1.55
9934.00,1.55
9933.00,1.55
9932.00,1.55
9931.00,1.54
9930.00,1.54
9929.00,1.54
9928.00,1.53
9927.00,1.53
9926.00,1.53
9925.00,1.53
9924.00,1.52
9923.00,1.52
9922.00,1.52
9921.00,1.52
9920.00,1.52
9919.00,1.51
9918.00,1.51
9917.00,1.51
9916.00,1.51
9915.00,1.51
9914.00,1.51
9913.00,1.51
9912.00,1.51
9911.00,1.51
9910.00,1.51
9909.00,1.51
9908.00,1.51
9907.00,1.51
9906.00,1.51
9905.00,1.51
9904.00,1.51
9903.00,1.51
9902.00,1.51
9901.00,1.52
9900.00,1.52
9899.00,1.52
9898.00,1.52
9897.00,1.52
9896.00,1.52
9895.00,1.52
9894.00,1.52
9893.00,1.52
9892.00,1.51
9891.00,1.51
9890.00,1.51
9889.00,1.51
9888.00,1.51
9887.00,1.51
9886.00,1.51
9885.00,1.51
9884.00,1.51
9883.00,1.50
9882.00,1.50
9881.00,1.50
9880.00,1.50
9879.00,1.50
9878.00,1.50
9877.00,1.50
9876.00,1.50
9875.00,1.50
9874.00,1.50
9873.00,1.50
9872.00,1.50
9871.00,1.50
9870.00,1.50
9869.00,1.50
9868.00,1.50
9867.00,1.50
9866.00,1.50
9865.00,1.50
9864.00,1.50
9863.00,1.50
9862.00,1.49
9861.00,1.49
9860.00,1.49
9859.00,1.49
9858.00,1.49
9857.00,1.49
9856.00,1.49
9855.00,1.49
9854.00,1.49
9853.00,1.49
9852.00,1.49
9851.00,1.49
9850.00,1.49
9849.00,1.49
9848.00,1.49
9847.00,1.49
9846.00,1.50
9845.00,1.50
9844.00,1.50
9843.00,1.51
9842.00,1.51
9841.00,1.51
9840.00,1.51
9839.00,1.52
9838.00,1.52
9837.00,1.52
9836.00,1.52
9835.00,1.53
9834.00,1.53
9833.00,1.53
9832.00,1.53
9831.00,1.53
9830.00,1.54
9829.00,1.54
9828.00,1.54
9827.00,1.54
9826.00,1.54
9825.00,1.54
9824.00,1.54
9823.00,1.54
9822.00,1.54
9821.00,1.54
9820.00,1.54
9819.00,1.53
9818.00,1.53
9817.00,1.53
9816.00,1.53
9815.00,1.53
9814.00,1.52
9813.00,1.52
9812.00,1.52
9811.00,1.52
9810.00,1.52
9809.00,1.52
9808.00,1.52
9807.00,1.52
9806.00,1.52
9805.00,1.52
9804.00,1.52
9803.00,1.52
9802.00,1.52
9801.00,1.52
9800.00,1.52
9799.00,1.52
9798.00,1.52
9797.00,1.52
9796.00,1.52
9795.00,1.52
9794.00,1.52
9793.00,1.52
9792.00,1.52
9791.00,1.52
9790.00,1.52
9789.00,1.53
9788.00,1.53
9787.00,1.53
9786.00,1.53
9785.00,1.53
9784.00,1.53
9783.00,1.54
9782.00,1.54
9781.00,1.54
9780.00,1.55
9779.00,1.55
9778.00,1.55
9777.00,1.56
9776.00,1.56
9775.00,1.56
9774.00,1.57
9773.00,1.57
9772.00,1.57
9771.00,1.57
9770.00,1.57
9769.00,1.57
9768.00,1.57
9767.00,1.57
9766.00,1.57
9765.00,1.57
9764.00,1.57
9763.00,1.57
9762.00,1.56
9761.00,1.56
9760.00,1.56
9759.00,1.55
9758.00,1.55
9757.00,1.55
9756.00,1.55
9755.00,1.54
9754.00,1.54
9753.00,1.54
9752.00,1.54
9751.00,1.54
9750.00,1.53
9749.00,1.53
9748.00,1.53
9747.00,1.53
9746.00,1.53
9745.00,1.53
9744.00,1.53
9743.00,1.52
9742.00,1.52
9741.00,1.52
9740.00,1.52
9739.00,1.52
9738.00,1.52
9737.00,1.52
9736.00,1.52
9735.00,1.52
9734.00,1.52
9733.00,1.52
9732.00,1.52
9731.00,1.53
9730.00,1.53
9729.00,1.53
9728.00,1.53
9727.00,1.53
9726.00,1.54
9725.00,1.54
9724.00,1.54
9723.00,1.54
9722.00,1.54
9721.00,1.54
9720.00,1.54
9719.00,1.54
9718.00,1.54
9717.00,1.54
9716.00,1.54
9715.00,1.54
9714.00,1.53
9713.00,1.53
9712.00,1.53
9711.00,1.53
9710.00,1.52
9709.00,1.52
9708.00,1.52
9707.00,1.52
9706.00,1.52
9705.00,1.52
9704.00,1.52
9703.00,1.52
9702.00,1.52
9701.00,1.52
9700.00,1.52
9699.00,1.52
9698.00,1.52
9697.00,1.52
9696.00,1.52
9695.00,1.52
9694.00,1.52
9693.00,1.53
9692.00,1.53
9691.00,1.53
9690.00,1.53
9689.00,1.54
9688.00,1.54
9687.00,1.54
9686.00,1.54
9685.00,1.55
9684.00,1.55
9683.00,1.55
9682.00,1.55
9681.00,1.55
9680.00,1.56
9679.00,1.56
9678.00,1.56
9677.00,1.56
9676.00,1.56
9675.00,1.56
9674.00,1.55
9673.00,1.55
9672.00,1.55
9671.00,1.55
9670.00,1.55
9669.00,1.55
9668.00,1.55
9667.00,1.54
9666.00,1.54
9665.00,1.54
9664.00,1.54
9663.00,1.54
9662.00,1.54
9661.00,1.54
9660.00,1.54
9659.00,1.53
9658.00,1.53
9657.00,1.53
9656.00,1.53
9655.00,1.53
9654.00,1.53
9653.00,1.53
9652.00,1.53
9651.00,1.54
9650.00,1.54
9649.00,1.54
9648.00,1.54
9647.00,1.54
9646.00,1.55
9645.00,1.55
9644.00,1.55
9643.00,1.55
9642.00,1.56
9641.00,1.56
9640.00,1.56
9639.00,1.56
9638.00,1.56
9637.00,1.56
9636.00,1.56
9635.00,1.56
9634.00,1.56
9633.00,1.56
9632.00,1.56
9631.00,1.55
9630.00,1.55
9629.00,1.55
9628.00,1.55
9627.00,1.55
9626.00,1.54
9625.00,1.54
9624.00,1.54
9623.00,1.54
9622.00,1.54
9621.00,1.54
9620.00,1.54
9619.00,1.54
9618.00,1.54
9617.00,1.54
9616.00,1.54
9615.00,1.54
9614.00,1.54
9613.00,1.54
9612.00,1.54
9611.00,1.54
9610.00,1.54
9609.00,1.54
9608.00,1.53
9607.00,1.53
9606.00,1.53
9605.00,1.53
9604.00,1.52
9603.00,1.52
9602.00,1.52
9601.00,1.52
9600.00,1.52
9599.00,1.52
9598.00,1.51
9597.00,1.51
9596.00,1.51
9595.00,1.51
9594.00,1.51
9593.00,1.51
9592.00,1.51
9591.00,1.51
9590.00,1.51
9589.00,1.52
9588.00,1.52
9587.00,1.52
9586.00,1.52
9585.00,1.52
9584.00,1.52
9583.00,1.52
9582.00,1.52
9581.00,1.53
9580.00,1.53
9579.00,1.53
9578.00,1.53
9577.00,1.53
9576.00,1.53
9575.00,1.54
9574.00,1.54
9573.00,1.54
9572.00,1.54
9571.00,1.54
9570.00,1.54
9569.00,1.54
9568.00,1.54
9567.00,1.54
9566.00,1.54
9565.00,1.55
9564.00,1.55
9563.00,1.55
9562.00,1.55
9561.00,1.55
9560.00,1.55
9559.00,1.55
9558.00,1.56
9557.00,1.56
9556.00,1.56
9555.00,1.56
9554.00,1.56
9553.00,1.56
9552.00,1.57
9551.00,1.57
9550.00,1.57
9549.00,1.57
9548.00,1.57
9547.00,1.57
9546.00,1.57
9545.00,1.57
9544.00,1.57
9543.00,1.57
9542.00,1.57
9541.00,1.56
9540.00,1.56
9539.00,1.56
9538.00,1.56
9537.00,1.56
9536.00,1.55
9535.00,1.55
9534.00,1.55
9533.00,1.55
9532.00,1.54
9531.00,1.54
9530.00,1.54
9529.00,1.53
9528.00,1.53
9527.00,1.53
9526.00,1.53
9525.00,1.52
9524.00,1.52
9523.00,1.52
9522.00,1.52
9521.00,1.52
9520.00,1.52
9519.00,1.52
9518.00,1.52
9517.00,1.52
9516.00,1.53
9515.00,1.53
9514.00,1.53
9513.00,1.53
9512.00,1.54
9511.00,1.54
9510.00,1.54
9509.00,1.54
9508.00,1.54
9507.00,1.55
9506.00,1.55
9505.00,1.55
9504.00,1.55
9503.00,1.55
9502.00,1.55
9501.00,1.55
9500.00,1.55
9499.00,1.55
9498.00,1.55
9497.00,1.55
9496.00,1.55
9495.00,1.55
9494.00,1.55
9493.00,1.55
9492.00,1.55
9491.00,1.55
9490.00,1.55
9489.00,1.55
9488.00,1.55
9487.00,1.55
9486.00,1.55
9485.00,1.55
9484.00,1.55
9483.00,1.55
9482.00,1.55
9481.00,1.55
9480.00,1.55
9479.00,1.55
9478.00,1.55
9477.00,1.55
9476.00,1.54
9475.00,1.54
9474.00,1.54
9473.00,1.54
9472.00,1.54
9471.00,1.55
9470.00,1.55
9469.00,1.55
9468.00,1.55
9467.00,1.55
9466.00,1.55
9465.00,1.55
9464.00,1.55
9463.00,1.55
9462.00,1.55
9461.00,1.55
9460.00,1.55
9459.00,1.56
9458.00,1.56
9457.00,1.56
9456.00,1.56
9455.00,1.56
9454.00,1.56
9453.00,1.56
9452.00,1.56
9451.00,1.56
9450.00,1.56
9449.00,1.56
9448.00,1.56
9447.00,1.56
9446.00,1.56
9445.00,1.56
9444.00,1.56
9443.00,1.56
9442.00,1.56
9441.00,1.56
9440.00,1.56
9439.00,1.56
9438.00,1.56
9437.00,1.56
9436.00,1.56
9435.00,1.56
9434.00,1.56
9433.00,1.56
9432.00,1.56
9431.00,1.56
9430.00,1.56
9429.00,1.56
9428.00,1.56
9427.00,1.56
9426.00,1.56
9425.00,1.56
9424.00,1.56
9423.00,1.55
9422.00,1.55
9421.00,1.55
9420.00,1.55
9419.00,1.55
9418.00,1.54
9417.00,1.54
9416.00,1.54
9415.00,1.54
9414.00,1.54
9413.00,1.54
9412.00,1.54
9411.00,1.54
9410.00,1.54
9409.00,1.54
9408.00,1.55
9407.00,1.55
9406.00,1.55
9405.00,1.55
9404.00,1.55
9403.00,1.56
9402.00,1.56
9401.00,1.56
9400.00,1.56
9399.00,1.56
9398.00,1.56
9397.00,1.56
9396.00,1.56
9395.00,1.56
9394.00,1.57
9393.00,1.57
9392.00,1.57
9391.00,1.57
9390.00,1.57
9389.00,1.57
9388.00,1.57
9387.00,1.57
9386.00,1.57
9385.00,1.57
9384.00,1.58
9383.00,1.58
9382.00,1.58
9381.00,1.58
9380.00,1.58
9379.00,1.58
9378.00,1.58
9377.00,1.59
9376.00,1.59
9375.00,1.59
9374.00,1.59
9373.00,1.59
9372.00,1.59
9371.00,1.59
9370.00,1.59
9369.00,1.59
9368.00,1.59
9367.00,1.59
9366.00,1.59
9365.00,1.59
9364.00,1.59
9363.00,1.58
9362.00,1.58
9361.00,1.58
9360.00,1.58
9359.00,1.57
9358.00,1.57
9357.00,1.57
9356.00,1.57
9355.00,1.57
9354.00,1.56
9353.00,1.56
9352.00,1.56
9351.00,1.56
9350.00,1.56
9349.00,1.56
9348.00,1.56
9347.00,1.56
9346.00,1.56
9345.00,1.56
9344.00,1.56
9343.00,1.56
9342.00,1.56
9341.00,1.56
9340.00,1.56
9339.00,1.56
9338.00,1.56
9337.00,1.56
9336.00,1.57
9335.00,1.57
9334.00,1.57
9333.00,1.57
9332.00,1.57
9331.00,1.57
9330.00,1.57
9329.00,1.57
9328.00,1.57
9327.00,1.57
9326.00,1.57
9325.00,1.57
9324.00,1.57
9323.00,1.56
9322.00,1.56
9321.00,1.56
9320.00,1.56
9319.00,1.55
9318.00,1.55
9317.00,1.55
9316.00,1.55
9315.00,1.54
9314.00,1.54
9313.00,1.54
9312.00,1.54
9311.00,1.53
9310.00,1.53
9309.00,1.53
9308.00,1.53
9307.00,1.53
9306.00,1.53
9305.00,1.53
9304.00,1.53
9303.00,1.53
9302.00,1.53
9301.00,1.53
9300.00,1.53
9299.00,1.53
9298.00,1.53
9297.00,1.53
9296.00,1.53
9295.00,1.53
9294.00,1.53
9293.00,1.53
9292.00,1.53
9291.00,1.53
9290.00,1.53
9289.00,1.53
9288.00,1.53
9287.00,1.54
9286.00,1.53
9285.00,1.53
9284.00,1.53
9283.00,1.53
9282.00,1.53
9281.00,1.53
9280.00,1.53
9279.00,1.53
9278.00,1.53
9277.00,1.53
9276.00,1.53
9275.00,1.53
9274.00,1.53
9273.00,1.53
9272.00,1.53
9271.00,1.53
9270.00,1.54
9269.00,1.54
9268.00,1.54
9267.00,1.54
9266.00,1.54
9265.00,1.54
9264.00,1.54
9263.00,1.54
9262.00,1.54
9261.00,1.55
9260.00,1.55
9259.00,1.55
9258.00,1.55
9257.00,1.55
9256.00,1.56
9255.00,1.56
9254.00,1.56
9253.00,1.56
9252.00,1.56
9251.00,1.56
9250.00,1.56
9249.00,1.56
9248.00,1.57
9247.00,1.57
9246.00,1.57
9245.00,1.57
9244.00,1.57
9243.00,1.57
9242.00,1.57
9241.00,1.57
9240.00,1.57
9239.00,1.57
9238.00,1.57
9237.00,1.57
9236.00,1.57
9235.00,1.57
9234.00,1.57
9233.00,1.57
9232.00,1.57
9231.00,1.57
9230.00,1.57
9229.00,1.57
9228.00,1.57
9227.00,1.57
9226.00,1.57
9225.00,1.57
9224.00,1.57
9223.00,1.57
9222.00,1.57
9221.00,1.57
9220.00,1.57
9219.00,1.57
9218.00,1.57
9217.00,1.57
9216.00,1.57
9215.00,1.57
9214.00,1.57
9213.00,1.57
9212.00,1.57
9211.00,1.57
9210.00,1.57
9209.00,1.58
9208.00,1.58
9207.00,1.58
9206.00,1.58
9205.00,1.58
9204.00,1.58
9203.00,1.58
9202.00,1.58
9201.00,1.58
9200.00,1.58
9199.00,1.58
9198.00,1.58
9197.00,1.58
9196.00,1.58
9195.00,1.58
9194.00,1.58
9193.00,1.58
9192.00,1.58
9191.00,1.58
9190.00,1.58
9189.00,1.58
9188.00,1.58
9187.00,1.58
9186.00,1.58
9185.00,1.58
9184.00,1.57
9183.00,1.57
9182.00,1.57
9181.00,1.57
9180.00,1.57
9179.00,1.57
9178.00,1.56
9177.00,1.56
9176.00,1.56
9175.00,1.56
9174.00,1.56
9173.00,1.56
9172.00,1.56
9171.00,1.56
9170.00,1.56
9169.00,1.56
9168.00,1.56
9167.00,1.56
9166.00,1.57
9165.00,1.57
9164.00,1.57
9163.00,1.57
9162.00,1.57
9161.00,1.57
9160.00,1.58
9159.00,1.58
9158.00,1.58
9157.00,1.58
9156.00,1.58
9155.00,1.58
9154.00,1.58
9153.00,1.58
9152.00,1.58
9151.00,1.58
9150.00,1.58
9149.00,1.58
9148.00,1.58
9147.00,1.58
9146.00,1.58
9145.00,1.58
9144.00,1.58
9143.00,1.58
9142.00,1.58
9141.00,1.57
9140.00,1.57
9139.00,1.57
9138.00,1.57
9137.00,1.57
9136.00,1.57
9135.00,1.56
9134.00,1.56
9133.00,1.56
9132.00,1.56
9131.00,1.56
9130.00,1.55
9129.00,1.55
9128.00,1.55
9127.00,1.55
9126.00,1.55
9125.00,1.55
9124.00,1.55
9123.00,1.55
9122.00,1.55
9121.00,1.55
9120.00,1.55
9119.00,1.55
9118.00,1.55
9117.00,1.56
9116.00,1.56
9115.00,1.56
9114.00,1.56
9113.00,1.57
9112.00,1.57
9111.00,1.57
9110.00,1.57
9109.00,1.57
9108.00,1.58
9107.00,1.58
9106.00,1.58
9105.00,1.58
9104.00,1.58
9103.00,1.58
9102.00,1.58
9101.00,1.58
9100.00,1.58
9099.00,1.58
9098.00,1.58
9097.00,1.58
9096.00,1.58
9095.00,1.58
9094.00,1.58
9093.00,1.58
9092.00,1.58
9091.00,1.58
9090.00,1.58
9089.00,1.58
9088.00,1.58
9087.00,1.58
9086.00,1.58
9085.00,1.58
9084.00,1.58
9083.00,1.58
9082.00,1.58
9081.00,1.58
9080.00,1.58
9079.00,1.58
9078.00,1.58
9077.00,1.58
9076.00,1.58
9075.00,1.58
9074.00,1.58
9073.00,1.58
9072.00,1.58
9071.00,1.57
9070.00,1.57
9069.00,1.57
9068.00,1.57
9067.00,1.57
9066.00,1.56
9065.00,1.56
9064.00,1.56
9063.00,1.56
9062.00,1.56
9061.00,1.55
9060.00,1.55
9059.00,1.55
9058.00,1.55
9057.00,1.55
9056.00,1.55
9055.00,1.55
9054.00,1.55
9053.00,1.55
9052.00,1.55
9051.00,1.55
9050.00,1.55
9049.00,1.56
9048.00,1.56
9047.00,1.56
9046.00,1.56
9045.00,1.56
9044.00,1.56
9043.00,1.56
9042.00,1.56
9041.00,1.56
9040.00,1.57
9039.00,1.57
9038.00,1.57
9037.00,1.57
9036.00,1.57
9035.00,1.57
9034.00,1.57
9033.00,1.57
9032.00,1.57
9031.00,1.57
9030.00,1.57
9029.00,1.57
9028.00,1.57
9027.00,1.57
9026.00,1.57
9025.00,1.57
9024.00,1.57
9023.00,1.57
9022.00,1.57
9021.00,1.57
9020.00,1.56
9019.00,1.56
9018.00,1.56
9017.00,1.56
9016.00,1.56
9015.00,1.56
9014.00,1.56
9013.00,1.56
9012.00,1.55
9011.00,1.55
9010.00,1.55
9009.00,1.55
9008.00,1.55
9007.00,1.55
9006.00,1.55
9005.00,1.55
9004.00,1.55
9003.00,1.55
9002.00,1.55
9001.00,1.56
9000.00,1.56
8999.00,1.56
8998.00,1.56
8997.00,1.56
8996.00,1.56
8995.00,1.57
8994.00,1.57
8993.00,1.57
8992.00,1.57
8991.00,1.57
8990.00,1.57
8989.00,1.58
8988.00,1.58
8987.00,1.58
8986.00,1.58
8985.00,1.58
8984.00,1.58
8983.00,1.58
8982.00,1.59
8981.00,1.59
8980.00,1.59
8979.00,1.59
8978.00,1.59
8977.00,1.59
8976.00,1.59
8975.00,1.59
8974.00,1.59
8973.00,1.59
8972.00,1.59
8971.00,1.59
8970.00,1.59
8969.00,1.59
8968.00,1.58
8967.00,1.58
8966.00,1.58
8965.00,1.58
8964.00,1.58
8963.00,1.58
8962.00,1.57
8961.00,1.57
8960.00,1.57
8959.00,1.57
8958.00,1.57
8957.00,1.57
8956.00,1.57
8955.00,1.57
8954.00,1.56
8953.00,1.56
8952.00,1.56
8951.00,1.56
8950.00,1.56
8949.00,1.56
8948.00,1.56
8947.00,1.56
8946.00,1.56
8945.00,1.56
8944.00,1.56
8943.00,1.56
8942.00,1.56
8941.00,1.56
8940.00,1.57
8939.00,1.57
8938.00,1.57
8937.00,1.57
8936.00,1.57
8935.00,1.57
8934.00,1.57
8933.00,1.58
8932.00,1.58
8931.00,1.58
8930.00,1.58
8929.00,1.58
8928.00,1.58
8927.00,1.58
8926.00,1.58
8925.00,1.58
8924.00,1.58
8923.00,1.58
8922.00,1.57
8921.00,1.57
8920.00,1.57
8919.00,1.57
8918.00,1.57
8917.00,1.57
8916.00,1.57
8915.00,1.57
8914.00,1.57
8913.00,1.57
8912.00,1.57
8911.00,1.57
8910.00,1.57
8909.00,1.57
8908.00,1.57
8907.00,1.57
8906.00,1.57
8905.00,1.57
8904.00,1.57
8903.00,1.57
8902.00,1.57
8901.00,1.57
8900.00,1.57
8899.00,1.56
8898.00,1.56
8897.00,1.56
8896.00,1.56
8895.00,1.55
8894.00,1.55
8893.00,1.55
8892.00,1.55
8891.00,1.55
8890.00,1.54
8889.00,1.54
8888.00,1.54
8887.00,1.54
8886.00,1.54
8885.00,1.54
8884.00,1.54
8883.00,1.54
8882.00,1.54
8881.00,1.54
8880.00,1.54
8879.00,1.54
8878.00,1.54
8877.00,1.54
8876.00,1.54
8875.00,1.54
8874.00,1.54
8873.00,1.53
8872.00,1.53
8871.00,1.53
8870.00,1.53
8869.00,1.53
8868.00,1.53
8867.00,1.53
8866.00,1.53
8865.00,1.53
8864.00,1.53
8863.00,1.53
8862.00,1.53
8861.00,1.54
8860.00,1.54
8859.00,1.54
8858.00,1.54
8857.00,1.54
8856.00,1.54
8855.00,1.55
8854.00,1.55
8853.00,1.55
8852.00,1.55
8851.00,1.55
8850.00,1.55
8849.00,1.55
8848.00,1.55
8847.00,1.56
8846.00,1.56
8845.00,1.56
8844.00,1.56
8843.00,1.56
8842.00,1.56
8841.00,1.56
8840.00,1.56
8839.00,1.55
8838.00,1.55
8837.00,1.55
8836.00,1.55
8835.00,1.55
8834.00,1.55
8833.00,1.55
8832.00,1.55
8831.00,1.55
8830.00,1.55
8829.00,1.55
8828.00,1.55
8827.00,1.55
8826.00,1.56
8825.00,1.56
8824.00,1.56
8823.00,1.56
8822.00,1.56
8821.00,1.56
8820.00,1.56
8819.00,1.56
8818.00,1.56
8817.00,1.56
8816.00,1.56
8815.00,1.55
8814.00,1.55
8813.00,1.55
8812.00,1.55
8811.00,1.55
8810.00,1.55
8809.00,1.55
8808.00,1.55
8807.00,1.55
8806.00,1.55
8805.00,1.55
8804.00,1.55
8803.00,1.55
8802.00,1.55
8801.00,1.55
8800.00,1.55
8799.00,1.55
8798.00,1.55
8797.00,1.55
8796.00,1.55
8795.00,1.55
8794.00,1.55
8793.00,1.55
8792.00,1.55
8791.00,1.55
8790.00,1.55
8789.00,1.55
8788.00,1.54
8787.00,1.54
8786.00,1.54
8785.00,1.54
8784.00,1.54
8783.00,1.54
8782.00,1.54
8781.00,1.53
8780.00,1.53
8779.00,1.53
8778.00,1.53
8777.00,1.53
8776.00,1.52
8775.00,1.52
8774.00,1.52
8773.00,1.52
8772.00,1.52
8771.00,1.52
8770.00,1.52
8769.00,1.52
8768.00,1.52
8767.00,1.52
8766.00,1.52
8765.00,1.52
8764.00,1.52
8763.00,1.52
8762.00,1.52
8761.00,1.52
8760.00,1.52
8759.00,1.52
8758.00,1.52
8757.00,1.53
8756.00,1.53
8755.00,1.53
8754.00,1.53
8753.00,1.53
8752.00,1.53
8751.00,1.53
8750.00,1.53
8749.00,1.53
8748.00,1.53
8747.00,1.53
8746.00,1.53
8745.00,1.53
8744.00,1.53
8743.00,1.53
8742.00,1.52
8741.00,1.52
8740.00,1.52
8739.00,1.52
8738.00,1.52
8737.00,1.52
8736.00,1.52
8735.00,1.51
8734.00,1.51
8733.00,1.51
8732.00,1.51
8731.00,1.51
8730.00,1.51
8729.00,1.51
8728.00,1.51
8727.00,1.51
8726.00,1.51
8725.00,1.51
8724.00,1.51
8723.00,1.51
8722.00,1.51
8721.00,1.50
8720.00,1.50
8719.00,1.50
8718.00,1.50
8717.00,1.50
8716.00,1.50
8715.00,1.50
8714.00,1.50
8713.00,1.50
8712.00,1.50
8711.00,1.50
8710.00,1.50
8709.00,1.50
8708.00,1.50
8707.00,1.50
8706.00,1.50
8705.00,1.50
8704.00,1.50
8703.00,1.50
8702.00,1.50
8701.00,1.50
8700.00,1.50
8699.00,1.50
8698.00,1.50
8697.00,1.50
8696.00,1.50
8695.00,1.50
8694.00,1.50
8693.00,1.50
8692.00,1.50
8691.00,1.50
8690.00,1.50
8689.00,1.50
8688.00,1.50
8687.00,1.50
8686.00,1.50
8685.00,1.50
8684.00,1.50
8683.00,1.50
8682.00,1.50
8681.00,1.50
8680.00,1.49
8679.00,1.49
8678.00,1.49
8677.00,1.49
8676.00,1.49
8675.00,1.49
8674.00,1.49
8673.00,1.49
8672.00,1.49
8671.00,1.48
8670.00,1.48
8669.00,1.48
8668.00,1.48
8667.00,1.48
8666.00,1.48
8665.00,1.48
8664.00,1.48
8663.00,1.48
8662.00,1.48
8661.00,1.48
8660.00,1.48
8659.00,1.48
8658.00,1.48
8657.00,1.48
8656.00,1.48
8655.00,1.48
8654.00,1.49
8653.00,1.49
8652.00,1.49
8651.00,1.49
8650.00,1.49
8649.00,1.49
8648.00,1.49
8647.00,1.49
8646.00,1.49
8645.00,1.49
8644.00,1.49
8643.00,1.49
8642.00,1.49
8641.00,1.49
8640.00,1.49
8639.00,1.48
8638.00,1.48
8637.00,1.48
8636.00,1.48
8635.00,1.47
8634.00,1.47
8633.00,1.47
8632.00,1.47
8631.00,1.46
8630.00,1.46
8629.00,1.46
8628.00,1.46
8627.00,1.46
8626.00,1.46
8625.00,1.46
8624.00,1.45
8623.00,1.45
8622.00,1.46
8621.00,1.46
8620.00,1.46
8619.00,1.46
8618.00,1.46
8617.00,1.46
8616.00,1.46
8615.00,1.46
8614.00,1.47
8613.00,1.47
8612.00,1.47
8611.00,1.47
8610.00,1.47
8609.00,1.47
8608.00,1.47
8607.00,1.47
8606.00,1.47
8605.00,1.47
8604.00,1.47
8603.00,1.47
8602.00,1.46
8601.00,1.46
8600.00,1.46
8599.00,1.46
8598.00,1.46
8597.00,1.46
8596.00,1.45
8595.00,1.45
8594.00,1.45
8593.00,1.45
8592.00,1.45
8591.00,1.45
8590.00,1.45
8589.00,1.45
8588.00,1.45
8587.00,1.45
8586.00,1.45
8585.00,1.45
8584.00,1.45
8583.00,1.45
8582.00,1.45
8581.00,1.45
8580.00,1.45
8579.00,1.45
8578.00,1.45
8577.00,1.45
8576.00,1.45
8575.00,1.45
8574.00,1.45
8573.00,1.45
8572.00,1.45
8571.00,1.45
8570.00,1.45
8569.00,1.45
8568.00,1.45
8567.00,1.45
8566.00,1.45
8565.00,1.45
8564.00,1.45
8563.00,1.44
8562.00,1.44
8561.00,1.44
8560.00,1.44
8559.00,1.44
8558.00,1.44
8557.00,1.44
8556.00,1.44
8555.00,1.44
8554.00,1.44
8553.00,1.44
8552.00,1.44
8551.00,1.44
8550.00,1.44
8549.00,1.44
8548.00,1.44
8547.00,1.44
8546.00,1.44
8545.00,1.44
8544.00,1.44
8543.00,1.44
8542.00,1.44
8541.00,1.44
8540.00,1.44
8539.00,1.44
8538.00,1.44
8537.00,1.44
8536.00,1.44
8535.00,1.44
8534.00,1.44
8533.00,1.44
8532.00,1.44
8531.00,1.43
8530.00,1.43
8529.00,1.43
8528.00,1.43
8527.00,1.43
8526.00,1.43
8525.00,1.43
8524.00,1.43
8523.00,1.43
8522.00,1.43
8521.00,1.43
8520.00,1.43
8519.00,1.43
8518.00,1.43
8517.00,1.43
8516.00,1.43
8515.00,1.43
8514.00,1.43
8513.00,1.43
8512.00,1.43
8511.00,1.43
8510.00,1.43
8509.00,1.43
8508.00,1.42
8507.00,1.42
8506.00,1.42
8505.00,1.42
8504.00,1.42
8503.00,1.41
8502.00,1.41
8501.00,1.41
8500.00,1.41
8499.00,1.41
8498.00,1.40
8497.00,1.40
8496.00,1.40
8495.00,1.40
8494.00,1.40
8493.00,1.40
8492.00,1.40
8491.00,1.40
8490.00,1.40
8489.00,1.40
8488.00,1.40
8487.00,1.40
8486.00,1.40
8485.00,1.40
8484.00,1.40
8483.00,1.40
8482.00,1.40
8481.00,1.40
8480.00,1.40
8479.00,1.40
8478.00,1.40
8477.00,1.40
8476.00,1.40
8475.00,1.40
8474.00,1.40
8473.00,1.40
8472.00,1.40
8471.00,1.40
8470.00,1.40
8469.00,1.40
8468.00,1.39
8467.00,1.39
8466.00,1.39
8465.00,1.39
8464.00,1.39
8463.00,1.39
8462.00,1.39
8461.00,1.38
8460.00,1.38
8459.00,1.38
8458.00,1.38
8457.00,1.38
8456.00,1.38
8455.00,1.38
8454.00,1.37
8453.00,1.37
8452.00,1.37
8451.00,1.37
8450.00,1.37
8449.00,1.37
8448.00,1.37
8447.00,1.37
8446.00,1.37
8445.00,1.37
8444.00,1.36
8443.00,1.36
8442.00,1.36
8441.00,1.36
8440.00,1.36
8439.00,1.36
8438.00,1.36
8437.00,1.36
8436.00,1.36
8435.00,1.36
8434.00,1.36
8433.00,1.36
8432.00,1.36
8431.00,1.36
8430.00,1.36
8429.00,1.36
8428.00,1.36
8427.00,1.37
8426.00,1.37
8425.00,1.37
8424.00,1.37
8423.00,1.38
8422.00,1.38
8421.00,1.38
8420.00,1.38
8419.00,1.38
8418.00,1.38
8417.00,1.38
8416.00,1.39
8415.00,1.39
8414.00,1.39
8413.00,1.39
8412.00,1.39
8411.00,1.39
8410.00,1.39
8409.00,1.39
8408.00,1.39
8407.00,1.39
8406.00,1.39
8405.00,1.39
8404.00,1.39
8403.00,1.39
8402.00,1.39
8401.00,1.39
8400.00,1.39
8399.00,1.39
8398.00,1.40
8397.00,1.40
8396.00,1.40
8395.00,1.40
8394.00,1.40
8393.00,1.40
8392.00,1.40
8391.00,1.40
8390.00,1.40
8389.00,1.40
8388.00,1.40
8387.00,1.40
8386.00,1.40
8385.00,1.40
8384.00,1.40
8383.00,1.40
8382.00,1.40
8381.00,1.41
8380.00,1.41
8379.00,1.41
8378.00,1.41
8377.00,1.41
8376.00,1.42
8375.00,1.42
8374.00,1.42
8373.00,1.42
8372.00,1.42
8371.00,1.43
8370.00,1.43
8369.00,1.43
8368.00,1.43
8367.00,1.43
8366.00,1.43
8365.00,1.43
8364.00,1.43
8363.00,1.43
8362.00,1.43
8361.00,1.43
8360.00,1.43
8359.00,1.44
8358.00,1.44
8357.00,1.44
8356.00,1.44
8355.00,1.44
8354.00,1.44
8353.00,1.44
8352.00,1.44
8351.00,1.44
8350.00,1.44
8349.00,1.44
8348.00,1.45
8347.00,1.45
8346.00,1.45
8345.00,1.45
8344.00,1.45
8343.00,1.45
8342.00,1.44
8341.00,1.44
8340.00,1.44
8339.00,1.44
8338.00,1.44
8337.00,1.44
8336.00,1.44
8335.00,1.44
8334.00,1.44
8333.00,1.44
8332.00,1.44
8331.00,1.43
8330.00,1.43
8329.00,1.43
8328.00,1.43
8327.00,1.43
8326.00,1.43
8325.00,1.43
8324.00,1.43
8323.00,1.43
8322.00,1.43
8321.00,1.43
8320.00,1.43
8319.00,1.43
8318.00,1.43
8317.00,1.43
8316.00,1.43
8315.00,1.43
8314.00,1.43
8313.00,1.43
8312.00,1.43
8311.00,1.43
8310.00,1.43
8309.00,1.43
8308.00,1.43
8307.00,1.43
8306.00,1.43
8305.00,1.43
8304.00,1.43
8303.00,1.43
8302.00,1.43
8301.00,1.43
8300.00,1.43
8299.00,1.43
8298.00,1.43
8297.00,1.43
8296.00,1.43
8295.00,1.43
8294.00,1.43
8293.00,1.43
8292.00,1.43
8291.00,1.44
8290.00,1.44
8289.00,1.44
8288.00,1.44
8287.00,1.44
8286.00,1.44
8285.00,1.44
8284.00,1.44
8283.00,1.44
8282.00,1.44
8281.00,1.44
8280.00,1.44
8279.00,1.44
8278.00,1.44
8277.00,1.44
8276.00,1.44
8275.00,1.44
8274.00,1.43
8273.00,1.43
8272.00,1.43
8271.00,1.43
8270.00,1.43
8269.00,1.43
8268.00,1.43
8267.00,1.43
8266.00,1.43
8265.00,1.44
8264.00,1.44
8263.00,1.44
8262.00,1.44
8261.00,1.44
8260.00,1.44
8259.00,1.44
8258.00,1.45
8257.00,1.45
8256.00,1.45
8255.00,1.45
8254.00,1.45
8253.00,1.45
8252.00,1.46
8251.00,1.46
8250.00,1.46
8249.00,1.46
8248.00,1.46
8247.00,1.46
8246.00,1.46
8245.00,1.46
8244.00,1.47
8243.00,1.47
8242.00,1.47
8241.00,1.47
8240.00,1.47
8239.00,1.47
8238.00,1.47
8237.00,1.47
8236.00,1.47
8235.00,1.47
8234.00,1.46
8233.00,1.46
8232.00,1.46
8231.00,1.46
8230.00,1.46
8229.00,1.46
8228.00,1.46
8227.00,1.46
8226.00,1.46
8225.00,1.46
8224.00,1.46
8223.00,1.46
8222.00,1.46
8221.00,1.46
8220.00,1.46
8219.00,1.46
8218.00,1.46
8217.00,1.46
8216.00,1.46
8215.00,1.47
8214.00,1.47
8213.00,1.47
8212.00,1.47
8211.00,1.47
8210.00,1.47
8209.00,1.47
8208.00,1.48
8207.00,1.48
8206.00,1.48
8205.00,1.48
8204.00,1.48
8203.00,1.48
8202.00,1.48
8201.00,1.48
8200.00,1.48
8199.00,1.48
8198.00,1.48
8197.00,1.48
8196.00,1.48
8195.00,1.48
8194.00,1.48
8193.00,1.48
8192.00,1.48
8191.00,1.48
8190.00,1.48
8189.00,1.48
8188.00,1.48
8187.00,1.48
8186.00,1.48
8185.00,1.48
8184.00,1.48
8183.00,1.48
8182.00,1.48
8181.00,1.48
8180.00,1.48
8179.00,1.48
8178.00,1.48
8177.00,1.48
8176.00,1.48
8175.00,1.48
8174.00,1.48
8173.00,1.48
8172.00,1.48
8171.00,1.48
8170.00,1.48
8169.00,1.48
8168.00,1.48
8167.00,1.47
8166.00,1.47
8165.00,1.47
8164.00,1.47
8163.00,1.47
8162.00,1.47
8161.00,1.47
8160.00,1.47
8159.00,1.47
8158.00,1.47
8157.00,1.47
8156.00,1.47
8155.00,1.47
8154.00,1.47
8153.00,1.47
8152.00,1.47
8151.00,1.47
8150.00,1.47
8149.00,1.48
8148.00,1.48
8147.00,1.48
8146.00,1.48
8145.00,1.48
8144.00,1.48
8143.00,1.48
8142.00,1.48
8141.00,1.49
8140.00,1.49
8139.00,1.49
8138.00,1.49
8137.00,1.49
8136.00,1.49
8135.00,1.49
8134.00,1.49
8133.00,1.50
8132.00,1.50
8131.00,1.50
8130.00,1.50
8129.00,1.50
8128.00,1.50
8127.00,1.50
8126.00,1.50
8125.00,1.50
8124.00,1.50
8123.00,1.50
8122.00,1.50
8121.00,1.50
8120.00,1.50
8119.00,1.50
8118.00,1.50
8117.00,1.50
8116.00,1.50
8115.00,1.50
8114.00,1.50
8113.00,1.50
8112.00,1.50
8111.00,1.50
8110.00,1.50
8109.00,1.50
8108.00,1.50
8107.00,1.50
8106.00,1.50
8105.00,1.50
8104.00,1.50
8103.00,1.50
8102.00,1.50
8101.00,1.50
8100.00,1.50
8099.00,1.50
8098.00,1.50
8097.00,1.50
8096.00,1.50
8095.00,1.50
8094.00,1.50
8093.00,1.50
8092.00,1.50
8091.00,1.50
8090.00,1.50
8089.00,1.50
8088.00,1.50
8087.00,1.50
8086.00,1.51
8085.00,1.51
8084.00,1.51
8083.00,1.51
8082.00,1.51
8081.00,1.51
8080.00,1.51
8079.00,1.51
8078.00,1.52
8077.00,1.52
8076.00,1.52
8075.00,1.52
8074.00,1.52
8073.00,1.52
8072.00,1.52
8071.00,1.52
8070.00,1.52
8069.00,1.52
8068.00,1.52
8067.00,1.52
8066.00,1.52
8065.00,1.52
8064.00,1.52
8063.00,1.52
8062.00,1.52
8061.00,1.52
8060.00,1.52
8059.00,1.52
8058.00,1.52
8057.00,1.52
8056.00,1.52
8055.00,1.52
8054.00,1.52
8053.00,1.53
8052.00,1.53
8051.00,1.53
8050.00,1.53
8049.00,1.53
8048.00,1.53
8047.00,1.53
8046.00,1.53
8045.00,1.53
8044.00,1.53
8043.00,1.53
8042.00,1.53
8041.00,1.53
8040.00,1.54
8039.00,1.54
8038.00,1.54
8037.00,1.54
8036.00,1.54
8035.00,1.54
8034.00,1.54
8033.00,1.54
8032.00,1.54
8031.00,1.54
8030.00,1.54
8029.00,1.54
8028.00,1.54
8027.00,1.54
8026.00,1.54
8025.00,1.54
8024.00,1.54
8023.00,1.54
8022.00,1.54
8021.00,1.54
8020.00,1.54
8019.00,1.54
8018.00,1.54
8017.00,1.54
8016.00,1.53
8015.00,1.53
8014.00,1.53
8013.00,1.53
8012.00,1.53
8011.00,1.52
8010.00,1.52
8009.00,1.52
8008.00,1.52
8007.00,1.52
8006.00,1.52
8005.00,1.52
8004.00,1.52
8003.00,1.52
8002.00,1.52
8001.00,1.52
8000.00,1.52
7999.00,1.52
7998.00,1.52
7997.00,1.52
7996.00,1.52
7995.00,1.52
7994.00,1.53
7993.00,1.53
7992.00,1.53
7991.00,1.53
7990.00,1.53
7989.00,1.53
7988.00,1.53
7987.00,1.53
7986.00,1.54
7985.00,1.54
7984.00,1.54
7983.00,1.54
7982.00,1.54
7981.00,1.54
7980.00,1.54
7979.00,1.54
7978.00,1.54
7977.00,1.54
7976.00,1.54
7975.00,1.54
7974.00,1.54
7973.00,1.54
7972.00,1.54
7971.00,1.54
7970.00,1.54
7969.00,1.54
7968.00,1.54
7967.00,1.54
7966.00,1.54
7965.00,1.54
7964.00,1.54
7963.00,1.54
7962.00,1.54
7961.00,1.55
7960.00,1.55
7959.00,1.55
7958.00,1.55
7957.00,1.55
7956.00,1.55
7955.00,1.55
7954.00,1.55
7953.00,1.55
7952.00,1.55
7951.00,1.55
7950.00,1.55
7949.00,1.55
7948.00,1.55
7947.00,1.55
7946.00,1.55
7945.00,1.55
7944.00,1.55
7943.00,1.55
7942.00,1.55
7941.00,1.54
7940.00,1.54
7939.00,1.54
7938.00,1.54
7937.00,1.54
7936.00,1.54
7935.00,1.54
7934.00,1.54
7933.00,1.54
7932.00,1.54
7931.00,1.54
7930.00,1.54
7929.00,1.54
7928.00,1.54
7927.00,1.55
7926.00,1.55
7925.00,1.55
7924.00,1.55
7923.00,1.55
7922.00,1.55
7921.00,1.55
7920.00,1.55
7919.00,1.55
7918.00,1.55
7917.00,1.55
7916.00,1.55
7915.00,1.56
7914.00,1.56
7913.00,1.56
7912.00,1.56
7911.00,1.56
7910.00,1.56
7909.00,1.56
7908.00,1.56
7907.00,1.56
7906.00,1.56
7905.00,1.56
7904.00,1.56
7903.00,1.56
7902.00,1.56
7901.00,1.56
7900.00,1.56
7899.00,1.55
7898.00,1.55
7897.00,1.55
7896.00,1.55
7895.00,1.56
7894.00,1.56
7893.00,1.56
7892.00,1.56
7891.00,1.56
7890.00,1.56
7889.00,1.56
7888.00,1.56
7887.00,1.56
7886.00,1.56
7885.00,1.56
7884.00,1.56
7883.00,1.56
7882.00,1.56
7881.00,1.56
7880.00,1.56
7879.00,1.56
7878.00,1.56
7877.00,1.56
7876.00,1.56
7875.00,1.56
7874.00,1.56
7873.00,1.56
7872.00,1.56
7871.00,1.56
7870.00,1.55
7869.00,1.55
7868.00,1.55
7867.00,1.55
7866.00,1.55
7865.00,1.55
7864.00,1.55
7863.00,1.56
7862.00,1.56
7861.00,1.56
7860.00,1.56
7859.00,1.56
7858.00,1.56
7857.00,1.56
7856.00,1.56
7855.00,1.56
7854.00,1.56
7853.00,1.56
7852.00,1.57
7851.00,1.57
7850.00,1.57
7849.00,1.57
7848.00,1.57
7847.00,1.57
7846.00,1.57
7845.00,1.57
7844.00,1.57
7843.00,1.57
7842.00,1.57
7841.00,1.57
7840.00,1.57
7839.00,1.57
7838.00,1.57
7837.00,1.57
7836.00,1.57
7835.00,1.57
7834.00,1.57
7833.00,1.57
7832.00,1.57
7831.00,1.57
7830.00,1.57
7829.00,1.57
7828.00,1.57
7827.00,1.57
7826.00,1.57
7825.00,1.56
7824.00,1.56
7823.00,1.56
7822.00,1.56
7821.00,1.56
7820.00,1.56
7819.00,1.56
7818.00,1.56
7817.00,1.56
7816.00,1.56
7815.00,1.57
7814.00,1.57
7813.00,1.57
7812.00,1.57
7811.00,1.57
7810.00,1.57
7809.00,1.57
7808.00,1.57
7807.00,1.57
7806.00,1.57
7805.00,1.57
7804.00,1.57
7803.00,1.57
7802.00,1.57
7801.00,1.57
7800.00,1.57
7799.00,1.56
7798.00,1.56
7797.00,1.56
7796.00,1.56
7795.00,1.56
7794.00,1.56
7793.00,1.56
7792.00,1.56
7791.00,1.56
7790.00,1.56
7789.00,1.57
7788.00,1.57
7787.00,1.57
7786.00,1.57
7785.00,1.57
7784.00,1.57
7783.00,1.57
7782.00,1.57
7781.00,1.56
7780.00,1.56
7779.00,1.56
7778.00,1.56
7777.00,1.56
7776.00,1.56
7775.00,1.56
7774.00,1.56
7773.00,1.56
7772.00,1.56
7771.00,1.56
7770.00,1.56
7769.00,1.56
7768.00,1.56
7767.00,1.56
7766.00,1.57
7765.00,1.57
7764.00,1.57
7763.00,1.57
7762.00,1.57
7761.00,1.57
7760.00,1.57
7759.00,1.57
7758.00,1.57
7757.00,1.57
7756.00,1.57
7755.00,1.57
7754.00,1.57
7753.00,1.57
7752.00,1.58
7751.00,1.58
7750.00,1.58
7749.00,1.58
7748.00,1.58
7747.00,1.58
7746.00,1.58
7745.00,1.58
7744.00,1.58
7743.00,1.58
7742.00,1.58
7741.00,1.58
7740.00,1.58
7739.00,1.58
7738.00,1.58
7737.00,1.58
7736.00,1.58
7735.00,1.58
7734.00,1.57
7733.00,1.57
7732.00,1.57
7731.00,1.57
7730.00,1.57
7729.00,1.57
7728.00,1.57
7727.00,1.57
7726.00,1.57
7725.00,1.57
7724.00,1.57
7723.00,1.57
7722.00,1.57
7721.00,1.57
7720.00,1.57
7719.00,1.57
7718.00,1.57
7717.00,1.57
7716.00,1.57
7715.00,1.57
7714.00,1.57
7713.00,1.57
7712.00,1.57
7711.00,1.57
7710.00,1.57
7709.00,1.57
7708.00,1.57
7707.00,1.57
7706.00,1.57
7705.00,1.57
7704.00,1.57
7703.00,1.57
7702.00,1.57
7701.00,1.57
7700.00,1.58
7699.00,1.58
7698.00,1.58
7697.00,1.58
7696.00,1.58
7695.00,1.58
7694.00,1.58
7693.00,1.58
7692.00,1.59
7691.00,1.59
7690.00,1.59
7689.00,1.59
7688.00,1.59
7687.00,1.59
7686.00,1.59
7685.00,1.59
7684.00,1.59
7683.00,1.59
7682.00,1.59
7681.00,1.59
7680.00,1.59
7679.00,1.59
7678.00,1.59
7677.00,1.59
7676.00,1.58
7675.00,1.58
7674.00,1.58
7673.00,1.58
7672.00,1.58
7671.00,1.58
7670.00,1.58
7669.00,1.58
7668.00,1.57
7667.00,1.57
7666.00,1.57
7665.00,1.57
7664.00,1.58
7663.00,1.58
7662.00,1.58
7661.00,1.58
7660.00,1.58
7659.00,1.58
7658.00,1.58
7657.00,1.58
7656.00,1.58
7655.00,1.58
7654.00,1.58
7653.00,1.58
7652.00,1.58
7651.00,1.58
7650.00,1.58
7649.00,1.58
7648.00,1.58
7647.00,1.58
7646.00,1.58
7645.00,1.58
7644.00,1.57
7643.00,1.57
7642.00,1.57
7641.00,1.57
7640.00,1.57
7639.00,1.57
7638.00,1.57
7637.00,1.56
7636.00,1.56
7635.00,1.56
7634.00,1.56
7633.00,1.56
7632.00,1.56
7631.00,1.56
7630.00,1.56
7629.00,1.56
7628.00,1.56
7627.00,1.56
7626.00,1.56
7625.00,1.57
7624.00,1.57
7623.00,1.57
7622.00,1.57
7621.00,1.57
7620.00,1.57
7619.00,1.57
7618.00,1.57
7617.00,1.57
7616.00,1.57
7615.00,1.58
7614.00,1.58
7613.00,1.58
7612.00,1.58
7611.00,1.58
7610.00,1.58
7609.00,1.58
7608.00,1.58
7607.00,1.58
7606.00,1.58
7605.00,1.57
7604.00,1.57
7603.00,1.57
7602.00,1.57
7601.00,1.57
7600.00,1.57
7599.00,1.57
7598.00,1.57
7597.00,1.57
7596.00,1.57
7595.00,1.57
7594.00,1.57
7593.00,1.57
7592.00,1.57
7591.00,1.57
7590.00,1.57
7589.00,1.57
7588.00,1.57
7587.00,1.57
7586.00,1.57
7585.00,1.57
7584.00,1.57
7583.00,1.57
7582.00,1.57
7581.00,1.57
7580.00,1.57
7579.00,1.57
7578.00,1.57
7577.00,1.57
7576.00,1.57
7575.00,1.57
7574.00,1.57
7573.00,1.57
7572.00,1.57
7571.00,1.57
7570.00,1.57
7569.00,1.57
7568.00,1.57
7567.00,1.57
7566.00,1.57
7565.00,1.57
7564.00,1.57
7563.00,1.57
7562.00,1.57
7561.00,1.57
7560.00,1.57
7559.00,1.57
7558.00,1.57
7557.00,1.57
7556.00,1.57
7555.00,1.57
7554.00,1.57
7553.00,1.57
7552.00,1.57
7551.00,1.56
7550.00,1.56
7549.00,1.56
7548.00,1.56
7547.00,1.56
7546.00,1.56
7545.00,1.56
7544.00,1.56
7543.00,1.56
7542.00,1.56
7541.00,1.56
7540.00,1.56
7539.00,1.57
7538.00,1.57
7537.00,1.57
7536.00,1.57
7535.00,1.57
7534.00,1.57
7533.00,1.57
7532.00,1.57
7531.00,1.57
7530.00,1.57
7529.00,1.57
7528.00,1.57
7527.00,1.57
7526.00,1.57
7525.00,1.57
7524.00,1.57
7523.00,1.57
7522.00,1.57
7521.00,1.56
7520.00,1.56
7519.00,1.56
7518.00,1.56
7517.00,1.56
7516.00,1.56
7515.00,1.56
7514.00,1.56
7513.00,1.57
7512.00,1.57
7511.00,1.57
7510.00,1.57
7509.00,1.57
7508.00,1.57
7507.00,1.57
7506.00,1.57
7505.00,1.57
7504.00,1.57
7503.00,1.56
7502.00,1.56
7501.00,1.56
7500.00,1.56
7499.00,1.56
7498.00,1.56
7497.00,1.56
7496.00,1.56
7495.00,1.55
7494.00,1.55
7493.00,1.55
7492.00,1.55
7491.00,1.55
7490.00,1.55
7489.00,1.55
7488.00,1.55
7487.00,1.54
7486.00,1.54
7485.00,1.54
7484.00,1.54
7483.00,1.54
7482.00,1.54
7481.00,1.54
7480.00,1.54
7479.00,1.54
7478.00,1.54
7477.00,1.54
7476.00,1.54
7475.00,1.54
7474.00,1.54
7473.00,1.54
7472.00,1.54
7471.00,1.54
7470.00,1.54
7469.00,1.54
7468.00,1.54
7467.00,1.54
7466.00,1.54
7465.00,1.54
7464.00,1.54
7463.00,1.54
7462.00,1.54
7461.00,1.54
7460.00,1.54
7459.00,1.54
7458.00,1.54
7457.00,1.54
7456.00,1.54
7455.00,1.54
7454.00,1.53
7453.00,1.53
7452.00,1.53
7451.00,1.53
7450.00,1.53
7449.00,1.53
7448.00,1.53
7447.00,1.53
7446.00,1.53
7445.00,1.53
7444.00,1.53
7443.00,1.53
7442.00,1.53
7441.00,1.53
7440.00,1.53
7439.00,1.53
7438.00,1.53
7437.00,1.53
7436.00,1.53
7435.00,1.52
7434.00,1.52
7433.00,1.52
7432.00,1.52
7431.00,1.52
7430.00,1.52
7429.00,1.52
7428.00,1.52
7427.00,1.52
7426.00,1.51
7425.00,1.51
7424.00,1.51
7423.00,1.51
7422.00,1.51
7421.00,1.51
7420.00,1.51
7419.00,1.51
7418.00,1.51
7417.00,1.51
7416.00,1.51
7415.00,1.51
7414.00,1.51
7413.00,1.51
7412.00,1.51
7411.00,1.51
7410.00,1.51
7409.00,1.51
7408.00,1.50
7407.00,1.50
7406.00,1.50
7405.00,1.50
7404.00,1.50
7403.00,1.50
7402.00,1.50
7401.00,1.49
7400.00,1.49
7399.00,1.49
7398.00,1.49
7397.00,1.49
7396.00,1.49
7395.00,1.48
7394.00,1.48
7393.00,1.48
7392.00,1.48
7391.00,1.48
7390.00,1.48
7389.00,1.48
7388.00,1.48
7387.00,1.47
7386.00,1.47
7385.00,1.47
7384.00,1.47
7383.00,1.47
7382.00,1.47
7381.00,1.47
7380.00,1.47
7379.00,1.47
7378.00,1.47
7377.00,1.47
7376.00,1.46
7375.00,1.46
7374.00,1.46
7373.00,1.46
7372.00,1.46
7371.00,1.46
7370.00,1.46
7369.00,1.46
7368.00,1.46
7367.00,1.47
7366.00,1.47
7365.00,1.47
7364.00,1.47
7363.00,1.47
7362.00,1.47
7361.00,1.47
7360.00,1.47
7359.00,1.47
7358.00,1.47
7357.00,1.47
7356.00,1.47
7355.00,1.47
7354.00,1.47
7353.00,1.46
7352.00,1.46
7351.00,1.46
7350.00,1.46
7349.00,1.46
7348.00,1.46
7347.00,1.46
7346.00,1.46
7345.00,1.46
7344.00,1.46
7343.00,1.45
7342.00,1.45
7341.00,1.45
7340.00,1.45
7339.00,1.45
7338.00,1.46
7337.00,1.46
7336.00,1.46
7335.00,1.46
7334.00,1.46
7333.00,1.46
7332.00,1.46
7331.00,1.46
7330.00,1.46
7329.00,1.46
7328.00,1.46
7327.00,1.46
7326.00,1.46
7325.00,1.46
7324.00,1.46
7323.00,1.46
7322.00,1.46
7321.00,1.46
7320.00,1.46
7319.00,1.46
7318.00,1.46
7317.00,1.46
7316.00,1.46
7315.00,1.46
7314.00,1.46
7313.00,1.46
7312.00,1.45
7311.00,1.45
7310.00,1.45
7309.00,1.45
7308.00,1.45
7307.00,1.44
7306.00,1.44
7305.00,1.44
7304.00,1.44
7303.00,1.44
7302.00,1.44
7301.00,1.43
7300.00,1.43
7299.00,1.43
7298.00,1.43
7297.00,1.43
7296.00,1.43
7295.00,1.43
7294.00,1.43
7293.00,1.42
7292.00,1.42
7291.00,1.42
7290.00,1.42
7289.00,1.42
7288.00,1.42
7287.00,1.42
7286.00,1.42
7285.00,1.42
7284.00,1.41
7283.00,1.41
7282.00,1.41
7281.00,1.41
7280.00,1.41
7279.00,1.41
7278.00,1.41
7277.00,1.41
7276.00,1.40
7275.00,1.40
7274.00,1.40
7273.00,1.40
7272.00,1.40
7271.00,1.40
7270.00,1.40
7269.00,1.40
7268.00,1.39
7267.00,1.39
7266.00,1.39
7265.00,1.39
7264.00,1.39
7263.00,1.39
7262.00,1.39
7261.00,1.38
7260.00,1.38
7259.00,1.38
7258.00,1.38
7257.00,1.38
7256.00,1.38
7255.00,1.38
7254.00,1.38
7253.00,1.37
7252.00,1.37
7251.00,1.37
7250.00,1.37
7249.00,1.37
7248.00,1.37
7247.00,1.37
7246.00,1.36
7245.00,1.36
7244.00,1.36
7243.00,1.36
7242.00,1.35
7241.00,1.35
7240.00,1.35
7239.00,1.34
7238.00,1.34
7237.00,1.34
7236.00,1.33
7235.00,1.33
7234.00,1.33
7233.00,1.32
7232.00,1.32
7231.00,1.32
7230.00,1.31
7229.00,1.31
7228.00,1.31
7227.00,1.30
7226.00,1.30
7225.00,1.30
7224.00,1.29
7223.00,1.29
7222.00,1.29
7221.00,1.28
7220.00,1.28
7219.00,1.28
7218.00,1.27
7217.00,1.27
7216.00,1.27
7215.00,1.26
7214.00,1.26
7213.00,1.26
7212.00,1.25
7211.00,1.25
7210.00,1.24
7209.00,1.24
7208.00,1.24
7207.00,1.23
7206.00,1.23
7205.00,1.22
7204.00,1.22
7203.00,1.22
7202.00,1.21
7201.00,1.21
7200.00,1.20
7199.00,1.20
7198.00,1.20
7197.00,1.19
7196.00,1.19
7195.00,1.18
7194.00,1.18
7193.00,1.18
7192.00,1.17
7191.00,1.17
7190.00,1.17
7189.00,1.16
7188.00,1.16
7187.00,1.16
7186.00,1.15
7185.00,1.15
7184.00,1.15
7183.00,1.14
7182.00,1.14
7181.00,1.14
7180.00,1.13
7179.00,1.13
7178.00,1.13
7177.00,1.12
7176.00,1.12
7175.00,1.12
7174.00,1.11
7173.00,1.11
7172.00,1.11
7171.00,1.10
7170.00,1.10
7169.00,1.10
7168.00,1.10
7167.00,1.09
7166.00,1.09
7165.00,1.09
7164.00,1.09
7163.00,1.09
7162.00,1.08
7161.00,1.08
7160.00,1.08
7159.00,1.08
7158.00,1.08
7157.00,1.07
7156.00,1.07
7155.00,1.07
7154.00,1.07
7153.00,1.06
7152.00,1.06
7151.00,1.06
7150.00,1.06
7149.00,1.05
7148.00,1.05
7147.00,1.05
7146.00,1.04
7145.00,1.04
7144.00,1.04
7143.00,1.04
7142.00,1.03
7141.00,1.03
7140.00,1.02
7139.00,1.02
7138.00,1.02
7137.00,1.01
7136.00,1.01
7135.00,1.01
7134.00,1.00
7133.00,1.00
7132.00,0.99
7131.00,0.99
7130.00,0.99
7129.00,0.98
7128.00,0.98
7127.00,0.98
7126.00,0.97
7125.00,0.97
7124.00,0.97
7123.00,0.97
7122.00,0.96
7121.00,0.96
7120.00,0.96
7119.00,0.96
7118.00,0.95
7117.00,0.95
7116.00,0.95
7115.00,0.95
7114.00,0.94
7113.00,0.94
7112.00,0.94
7111.00,0.93
7110.00,0.93
7109.00,0.93
7108.00,0.92
7107.00,0.92
7106.00,0.92
7105.00,0.92
7104.00,0.91
7103.00,0.91
7102.00,0.91
7101.00,0.90
7100.00,0.90
7099.00,0.90
7098.00,0.89
7097.00,0.89
7096.00,0.89
7095.00,0.88
7094.00,0.88
7093.00,0.88
7092.00,0.87
7091.00,0.87
7090.00,0.87
7089.00,0.86
7088.00,0.86
7087.00,0.86
7086.00,0.86
7085.00,0.85
7084.00,0.85
7083.00,0.85
7082.00,0.85
7081.00,0.85
7080.00,0.84
7079.00,0.84
7078.00,0.84
7077.00,0.84
7076.00,0.84
7075.00,0.84
7074.00,0.84
7073.00,0.83
7072.00,0.83
7071.00,0.83
7070.00,0.83
7069.00,0.83
7068.00,0.83
7067.00,0.82
7066.00,0.82
7065.00,0.82
7064.00,0.82
7063.00,0.82
7062.00,0.81
7061.00,0.81
7060.00,0.81
7059.00,0.81
7058.00,0.80
7057.00,0.80
7056.00,0.80
7055.00,0.80
7054.00,0.80
7053.00,0.80
7052.00,0.79
7051.00,0.79
7050.00,0.79
7049.00,0.79
7048.00,0.79
7047.00,0.79
7046.00,0.79
7045.00,0.79
7044.00,0.79
7043.00,0.78
7042.00,0.78
7041.00,0.78
7040.00,0.78
7039.00,0.78
7038.00,0.78
7037.00,0.78
7036.00,0.78
7035.00,0.78
7034.00,0.78
7033.00,0.78
7032.00,0.78
7031.00,0.78
7030.00,0.77
7029.00,0.77
7028.00,0.77
7027.00,0.77
7026.00,0.77
7025.00,0.76
7024.00,0.76
7023.00,0.76
7022.00,0.76
7021.00,0.76
7020.00,0.75
7019.00,0.75
7018.00,0.75
7017.00,0.75
7016.00,0.75
7015.00,0.75
7014.00,0.75
7013.00,0.75
7012.00,0.75
7011.00,0.75
7010.00,0.74
7009.00,0.74
7008.00,0.74
7007.00,0.74
7006.00,0.74
7005.00,0.74
7004.00,0.74
7003.00,0.74
7002.00,0.74
7001.00,0.74
7000.00,0.74
6999.00,0.74
6998.00,0.74
6997.00,0.73
6996.00,0.73
6995.00,0.73
6994.00,0.73
6993.00,0.73
6992.00,0.73
6991.00,0.73
6990.00,0.72
6989.00,0.72
6988.00,0.72
6987.00,0.72
6986.00,0.72
6985.00,0.72
6984.00,0.72
6983.00,0.72
6982.00,0.72
6981.00,0.72
6980.00,0.71
6979.00,0.71
6978.00,0.71
6977.00,0.71
6976.00,0.71
6975.00,0.71
6974.00,0.71
6973.00,0.71
6972.00,0.71
6971.00,0.71
6970.00,0.70
6969.00,0.70
6968.00,0.70
6967.00,0.70
6966.00,0.70
6965.00,0.70
6964.00,0.70
6963.00,0.70
6962.00,0.70
6961.00,0.70
6960.00,0.70
6959.00,0.70
6958.00,0.70
6957.00,0.70
6956.00,0.70
6955.00,0.70
6954.00,0.70
6953.00,0.70
6952.00,0.70
6951.00,0.70
6950.00,0.70
6949.00,0.70
6948.00,0.70
6947.00,0.70
6946.00,0.69
6945.00,0.69
6944.00,0.69
6943.00,0.69
6942.00,0.69
6941.00,0.69
6940.00,0.69
6939.00,0.69
6938.00,0.69
6937.00,0.69
6936.00,0.69
6935.00,0.69
6934.00,0.69
6933.00,0.69
6932.00,0.69
6931.00,0.69
6930.00,0.69
6929.00,0.69
6928.00,0.69
6927.00,0.69
6926.00,0.69
6925.00,0.69
6924.00,0.69
6923.00,0.69
6922.00,0.69
6921.00,0.68
6920.00,0.68
6919.00,0.68
6918.00,0.68
6917.00,0.68
6916.00,0.68
6915.00,0.68
6914.00,0.68
6913.00,0.68
6912.00,0.68
6911.00,0.68
6910.00,0.68
6909.00,0.68
6908.00,0.68
6907.00,0.68
6906.00,0.68
6905.00,0.68
6904.00,0.68
6903.00,0.68
6902.00,0.68
6901.00,0.68
6900.00,0.68
6899.00,0.68
6898.00,0.68
6897.00,0.68
6896.00,0.68
6895.00,0.68
6894.00,0.68
6893.00,0.68
6892.00,0.68
6891.00,0.68
6890.00,0.68
6889.00,0.68
6888.00,0.68
6887.00,0.68
6886.00,0.68
6885.00,0.68
6884.00,0.68
6883.00,0.68
6882.00,0.68
6881.00,0.68
6880.00,0.68
6879.00,0.68
6878.00,0.68
6877.00,0.68
6876.00,0.68
6875.00,0.68
6874.00,0.68
6873.00,0.68
6872.00,0.68
6871.00,0.68
6870.00,0.68
6869.00,0.67
6868.00,0.67
6867.00,0.67
6866.00,0.67
6865.00,0.67
6864.00,0.67
6863.00,0.67
6862.00,0.67
6861.00,0.67
6860.00,0.67
6859.00,0.67
6858.00,0.67
6857.00,0.67
6856.00,0.67
6855.00,0.67
6854.00,0.67
6853.00,0.67
6852.00,0.68
6851.00,0.68
6850.00,0.68
6849.00,0.68
6848.00,0.68
6847.00,0.68
6846.00,0.68
6845.00,0.68
6844.00,0.68
6843.00,0.68
6842.00,0.68
6841.00,0.68
6840.00,0.68
6839.00,0.68
6838.00,0.68
6837.00,0.68
6836.00,0.68
6835.00,0.68
6834.00,0.69
6833.00,0.69
6832.00,0.69
6831.00,0.69
6830.00,0.69
6829.00,0.69
6828.00,0.69
6827.00,0.69
6826.00,0.69
6825.00,0.69
6824.00,0.69
6823.00,0.69
6822.00,0.69
6821.00,0.69
6820.00,0.69
6819.00,0.69
6818.00,0.69
6817.00,0.69
6816.00,0.69
6815.00,0.69
6814.00,0.69
6813.00,0.69
6812.00,0.69
6811.00,0.69
6810.00,0.69
6809.00,0.69
6808.00,0.69
6807.00,0.69
6806.00,0.69
6805.00,0.69
6804.00,0.69
6803.00,0.69
6802.00,0.69
6801.00,0.69
6800.00,0.69
6799.00,0.69
6798.00,0.69
6797.00,0.69
6796.00,0.69
6795.00,0.69
6794.00,0.69
6793.00,0.69
6792.00,0.69
6791.00,0.69
6790.00,0.69
6789.00,0.69
6788.00,0.69
6787.00,0.69
6786.00,0.69
6785.00,0.69
6784.00,0.69
6783.00,0.69
6782.00,0.70
6781.00,0.70
6780.00,0.70
6779.00,0.70
6778.00,0.70
6777.00,0.70
6776.00,0.70
6775.00,0.70
6774.00,0.71
6773.00,0.71
6772.00,0.71
6771.00,0.71
6770.00,0.71
6769.00,0.71
6768.00,0.71
6767.00,0.71
6766.00,0.71
6765.00,0.72
6764.00,0.72
6763.00,0.72
6762.00,0.72
6761.00,0.72
6760.00,0.72
6759.00,0.72
6758.00,0.72
6757.00,0.72
6756.00,0.72
6755.00,0.72
6754.00,0.73
6753.00,0.73
6752.00,0.73
6751.00,0.73
6750.00,0.73
6749.00,0.73
6748.00,0.73
6747.00,0.73
6746.00,0.74
6745.00,0.74
6744.00,0.74
6743.00,0.74
6742.00,0.74
6741.00,0.74
6740.00,0.74
6739.00,0.74
6738.00,0.74
6737.00,0.74
6736.00,0.74
6735.00,0.75
6734.00,0.75
6733.00,0.75
6732.00,0.75
6731.00,0.75
6730.00,0.75
6729.00,0.75
6728.00,0.75
6727.00,0.75
6726.00,0.75
6725.00,0.75
6724.00,0.75
6723.00,0.76
6722.00,0.76
6721.00,0.76
6720.00,0.76
6719.00,0.76
6718.00,0.76
6717.00,0.76
6716.00,0.76
6715.00,0.76
6714.00,0.76
6713.00,0.76
6712.00,0.76
6711.00,0.76
6710.00,0.76
6709.00,0.76
6708.00,0.76
6707.00,0.76
6706.00,0.76
6705.00,0.76
6704.00,0.76
6703.00,0.77
6702.00,0.77
6701.00,0.77
6700.00,0.77
6699.00,0.77
6698.00,0.77
6697.00,0.77
6696.00,0.77
6695.00,0.77
6694.00,0.78
6693.00,0.78
6692.00,0.78
6691.00,0.78
6690.00,0.78
6689.00,0.78
6688.00,0.79
6687.00,0.79
6686.00,0.79
6685.00,0.79
6684.00,0.79
6683.00,0.79
6682.00,0.79
6681.00,0.80
6680.00,0.80
6679.00,0.80
6678.00,0.80
6677.00,0.80
6676.00,0.80
6675.00,0.80
6674.00,0.81
6673.00,0.81
6672.00,0.81
6671.00,0.81
6670.00,0.81
6669.00,0.81
6668.00,0.82
6667.00,0.82
6666.00,0.82
6665.00,0.82
6664.00,0.82
6663.00,0.82
6662.00,0.82
6661.00,0.83
6660.00,0.83
6659.00,0.83
6658.00,0.83
6657.00,0.83
6656.00,0.83
6655.00,0.83
6654.00,0.83
6653.00,0.83
6652.00,0.83
6651.00,0.83
6650.00,0.83
6649.00,0.83
6648.00,0.84
6647.00,0.84
6646.00,0.84
6645.00,0.84
6644.00,0.84
6643.00,0.84
6642.00,0.84
6641.00,0.84
6640.00,0.84
6639.00,0.84
6638.00,0.85
6637.00,0.85
6636.00,0.85
6635.00,0.85
6634.00,0.85
6633.00,0.85
6632.00,0.85
6631.00,0.86
6630.00,0.86
6629.00,0.86
6628.00,0.86
6627.00,0.86
6626.00,0.86
6625.00,0.86
6624.00,0.87
6623.00,0.87
6622.00,0.87
6621.00,0.87
6620.00,0.87
6619.00,0.87
6618.00,0.87
6617.00,0.88
6616.00,0.88
6615.00,0.88
6614.00,0.88
6613.00,0.88
6612.00,0.88
6611.00,0.88
6610.00,0.88
6609.00,0.88
6608.00,0.88
6607.00,0.88
6606.00,0.88
6605.00,0.88
6604.00,0.88
6603.00,0.88
6602.00,0.88
6601.00,0.88
6600.00,0.88
6599.00,0.88
6598.00,0.88
6597.00,0.88
6596.00,0.88
6595.00,0.88
6594.00,0.88
6593.00,0.88
6592.00,0.88
6591.00,0.89
6590.00,0.89
6589.00,0.89
6588.00,0.89
6587.00,0.89
6586.00,0.90
6585.00,0.90
6584.00,0.90
6583.00,0.90
6582.00,0.90
6581.00,0.91
6580.00,0.91
6579.00,0.91
6578.00,0.91
6577.00,0.91
6576.00,0.92
6575.00,0.92
6574.00,0.92
6573.00,0.92
6572.00,0.92
6571.00,0.92
6570.00,0.92
6569.00,0.92
6568.00,0.92
6567.00,0.92
6566.00,0.92
6565.00,0.92
6564.00,0.92
6563.00,0.92
6562.00,0.93
6561.00,0.93
6560.00,0.93
6559.00,0.93
6558.00,0.93
6557.00,0.93
6556.00,0.93
6555.00,0.93
6554.00,0.93
6553.00,0.93
6552.00,0.93
6551.00,0.93
6550.00,0.93
6549.00,0.93
6548.00,0.94
6547.00,0.94
6546.00,0.94
6545.00,0.94
6544.00,0.94
6543.00,0.94
6542.00,0.94
6541.00,0.94
6540.00,0.95
6539.00,0.95
6538.00,0.95
6537.00,0.95
6536.00,0.95
6535.00,0.95
6534.00,0.95
6533.00,0.95
6532.00,0.95
6531.00,0.95
6530.00,0.95
6529.00,0.95
6528.00,0.95
6527.00,0.95
6526.00,0.95
6525.00,0.95
6524.00,0.95
6523.00,0.95
6522.00,0.95
6521.00,0.95
6520.00,0.95
6519.00,0.96
6518.00,0.96
6517.00,0.96
6516.00,0.96
6515.00,0.96
6514.00,0.96
6513.00,0.96
6512.00,0.97
6511.00,0.97
6510.00,0.97
6509.00,0.97
6508.00,0.97
6507.00,0.97
6506.00,0.97
6505.00,0.98
6504.00,0.98
6503.00,0.98
6502.00,0.98
6501.00,0.98
6500.00,0.98
6499.00,0.98
6498.00,0.98
6497.00,0.98
6496.00,0.98
6495.00,0.99
6494.00,0.99
6493.00,0.99
6492.00,0.99
6491.00,0.99
6490.00,0.99
6489.00,0.99
6488.00,0.99
6487.00,0.99
6486.00,0.99
6485.00,0.99
6484.00,0.99
6483.00,0.99
6482.00,0.99
6481.00,0.99
6480.00,1.00
6479.00,1.00
6478.00,1.00
6477.00,1.00
6476.00,1.00
6475.00,1.00
6474.00,1.00
6473.00,1.00
6472.00,1.00
6471.00,1.00
6470.00,1.00
6469.00,1.00
6468.00,1.00
6467.00,1.01
6466.00,1.01
6465.00,1.01
6464.00,1.01
6463.00,1.01
6462.00,1.01
6461.00,1.01
6460.00,1.01
6459.00,1.01
6458.00,1.01
6457.00,1.01
6456.00,1.01
6455.00,1.01
6454.00,1.01
6453.00,1.01
6452.00,1.01
6451.00,1.01
6450.00,1.01
6449.00,1.01
6448.00,1.01
6447.00,1.01
6446.00,1.01
6445.00,1.01
6444.00,1.02
6443.00,1.02
6442.00,1.02
6441.00,1.02
6440.00,1.02
6439.00,1.02
6438.00,1.02
6437.00,1.02
6436.00,1.02
6435.00,1.02
6434.00,1.02
6433.00,1.02
6432.00,1.02
6431.00,1.02
6430.00,1.03
6429.00,1.03
6428.00,1.03
6427.00,1.03
6426.00,1.03
6425.00,1.03
6424.00,1.03
6423.00,1.03
6422.00,1.03
6421.00,1.03
6420.00,1.03
6419.00,1.03
6418.00,1.03
6417.00,1.03
6416.00,1.03
6415.00,1.03
6414.00,1.03
6413.00,1.03
6412.00,1.03
6411.00,1.04
6410.00,1.04
6409.00,1.04
6408.00,1.04
6407.00,1.04
6406.00,1.04
6405.00,1.04
6404.00,1.04
6403.00,1.04
6402.00,1.04
6401.00,1.04
6400.00,1.04
6399.00,1.04
6398.00,1.04
6397.00,1.05
6396.00,1.05
6395.00,1.05
6394.00,1.05
6393.00,1.05
6392.00,1.05
6391.00,1.05
6390.00,1.05
6389.00,1.05
6388.00,1.05
6387.00,1.05
6386.00,1.05
6385.00,1.05
6384.00,1.05
6383.00,1.05
6382.00,1.05
6381.00,1.05
6380.00,1.05
6379.00,1.05
6378.00,1.05
6377.00,1.05
6376.00,1.05
6375.00,1.05
6374.00,1.05
6373.00,1.06
6372.00,1.06
6371.00,1.06
6370.00,1.06
6369.00,1.06
6368.00,1.06
6367.00,1.06
6366.00,1.06
6365.00,1.06
6364.00,1.07
6363.00,1.07
6362.00,1.07
6361.00,1.07
6360.00,1.07
6359.00,1.07
6358.00,1.07
6357.00,1.07
6356.00,1.07
6355.00,1.08
6354.00,1.08
6353.00,1.08
6352.00,1.08
6351.00,1.08
6350.00,1.08
6349.00,1.08
6348.00,1.08
6347.00,1.08
6346.00,1.08
6345.00,1.09
6344.00,1.09
6343.00,1.09
6342.00,1.09
6341.00,1.09
6340.00,1.09
6339.00,1.09
6338.00,1.09
6337.00,1.09
6336.00,1.10
6335.00,1.10
6334.00,1.10
6333.00,1.10
6332.00,1.10
6331.00,1.10
6330.00,1.10
6329.00,1.10
6328.00,1.10
6327.00,1.10
6326.00,1.10
6325.00,1.11
6324.00,1.11
6323.00,1.11
6322.00,1.11
6321.00,1.11
6320.00,1.11
6319.00,1.11
6318.00,1.11
6317.00,1.11
6316.00,1.11
6315.00,1.11
6314.00,1.11
6313.00,1.11
6312.00,1.11
6311.00,1.11
6310.00,1.11
6309.00,1.12
6308.00,1.12
6307.00,1.12
6306.00,1.12
6305.00,1.12
6304.00,1.12
6303.00,1.12
6302.00,1.12
6301.00,1.13
6300.00,1.13
6299.00,1.13
6298.00,1.13
6297.00,1.13
6296.00,1.13
6295.00,1.13
6294.00,1.13
6293.00,1.13
6292.00,1.13
6291.00,1.13
6290.00,1.13
6289.00,1.13
6288.00,1.13
6287.00,1.14
6286.00,1.14
6285.00,1.14
6284.00,1.14
6283.00,1.14
6282.00,1.14
6281.00,1.14
6280.00,1.14
6279.00,1.15
6278.00,1.15
6277.00,1.15
6276.00,1.15
6275.00,1.15
6274.00,1.15
6273.00,1.16
6272.00,1.16
6271.00,1.16
6270.00,1.16
6269.00,1.16
6268.00,1.16
6267.00,1.17
6266.00,1.17
6265.00,1.17
6264.00,1.17
6263.00,1.17
6262.00,1.17
6261.00,1.17
6260.00,1.17
6259.00,1.17
6258.00,1.17
6257.00,1.17
6256.00,1.18
6255.00,1.18
6254.00,1.18
6253.00,1.18
6252.00,1.18
6251.00,1.18
6250.00,1.18
6249.00,1.18
6248.00,1.18
6247.00,1.19
6246.00,1.19
6245.00,1.19
6244.00,1.19
6243.00,1.19
6242.00,1.19
6241.00,1.20
6240.00,1.20
6239.00,1.20
6238.00,1.20
6237.00,1.20
6236.00,1.20
6235.00,1.20
6234.00,1.21
6233.00,1.21
6232.00,1.21
6231.00,1.21
6230.00,1.21
6229.00,1.21
6228.00,1.21
6227.00,1.22
6226.00,1.22
6225.00,1.22
6224.00,1.22
6223.00,1.22
6222.00,1.22
6221.00,1.22
6220.00,1.23
6219.00,1.23
6218.00,1.23
6217.00,1.23
6216.00,1.23
6215.00,1.23
6214.00,1.23
6213.00,1.23
6212.00,1.24
6211.00,1.24
6210.00,1.24
6209.00,1.24
6208.00,1.24
6207.00,1.24
6206.00,1.24
6205.00,1.24
6204.00,1.24
6203.00,1.25
6202.00,1.25
6201.00,1.25
6200.00,1.25
6199.00,1.25
6198.00,1.25
6197.00,1.25
6196.00,1.25
6195.00,1.26
6194.00,1.26
6193.00,1.26
6192.00,1.26
6191.00,1.26
6190.00,1.26
6189.00,1.26
6188.00,1.26
6187.00,1.27
6186.00,1.27
6185.00,1.27
6184.00,1.27
6183.00,1.27
6182.00,1.28
6181.00,1.28
6180.00,1.28
6179.00,1.28
6178.00,1.28
6177.00,1.29
6176.00,1.29
6175.00,1.29
6174.00,1.29
6173.00,1.29
6172.00,1.29
6171.00,1.29
6170.00,1.30
6169.00,1.30
6168.00,1.30
6167.00,1.30
6166.00,1.30
6165.00,1.30
6164.00,1.30
6163.00,1.30
6162.00,1.31
6161.00,1.31
6160.00,1.31
6159.00,1.31
6158.00,1.31
6157.00,1.31
6156.00,1.31
6155.00,1.32
6154.00,1.32
6153.00,1.32
6152.00,1.32
6151.00,1.32
6150.00,1.32
6149.00,1.33
6148.00,1.33
6147.00,1.33
6146.00,1.33
6145.00,1.33
6144.00,1.33
6143.00,1.34
6142.00,1.34
6141.00,1.34
6140.00,1.34
6139.00,1.34
6138.00,1.34
6137.00,1.35
6136.00,1.35
6135.00,1.35
6134.00,1.35
6133.00,1.35
6132.00,1.36
6131.00,1.36
6130.00,1.36
6129.00,1.36
6128.00,1.36
6127.00,1.37
6126.00,1.37
6125.00,1.37
6124.00,1.37
6123.00,1.37
6122.00,1.38
6121.00,1.38
6120.00,1.38
6119.00,1.38
6118.00,1.38
6117.00,1.38
6116.00,1.38
6115.00,1.39
6114.00,1.39
6113.00,1.39
6112.00,1.39
6111.00,1.39
6110.00,1.39
6109.00,1.39
6108.00,1.40
6107.00,1.40
6106.00,1.40
6105.00,1.40
6104.00,1.40
6103.00,1.40
6102.00,1.40
6101.00,1.41
6100.00,1.41
6099.00,1.41
6098.00,1.41
6097.00,1.41
6096.00,1.41
6095.00,1.41
6094.00,1.42
6093.00,1.42
6092.00,1.42
6091.00,1.42
6090.00,1.42
6089.00,1.42
6088.00,1.42
6087.00,1.42
6086.00,1.42
6085.00,1.43
6084.00,1.43
6083.00,1.43
6082.00,1.43
6081.00,1.43
6080.00,1.43
6079.00,1.43
6078.00,1.44
6077.00,1.44
6076.00,1.44
6075.00,1.44
6074.00,1.44
6073.00,1.44
6072.00,1.45
6071.00,1.45
6070.00,1.45
6069.00,1.45
6068.00,1.45
6067.00,1.45
6066.00,1.45
6065.00,1.45
6064.00,1.45
6063.00,1.46
6062.00,1.46
6061.00,1.46
6060.00,1.46
6059.00,1.46
6058.00,1.46
6057.00,1.46
6056.00,1.46
6055.00,1.46
6054.00,1.46
6053.00,1.46
6052.00,1.46
6051.00,1.46
6050.00,1.46
6049.00,1.47
6048.00,1.47
6047.00,1.47
6046.00,1.47
6045.00,1.47
6044.00,1.47
6043.00,1.47
6042.00,1.47
6041.00,1.47
6040.00,1.47
6039.00,1.47
6038.00,1.47
6037.00,1.47
6036.00,1.47
6035.00,1.47
6034.00,1.47
6033.00,1.48
6032.00,1.48
6031.00,1.48
6030.00,1.48
6029.00,1.48
6028.00,1.48
6027.00,1.48
6026.00,1.48
6025.00,1.49
6024.00,1.49
6023.00,1.49
6022.00,1.49
6021.00,1.49
6020.00,1.49
6019.00,1.49
6018.00,1.49
6017.00,1.49
6016.00,1.49
6015.00,1.49
6014.00,1.49
6013.00,1.49
6012.00,1.49
6011.00,1.49
6010.00,1.49
6009.00,1.49
6008.00,1.49
6007.00,1.48
6006.00,1.48
6005.00,1.48
6004.00,1.48
6003.00,1.48
6002.00,1.48
6001.00,1.48
6000.00,1.48
5999.00,1.48
5998.00,1.48
5997.00,1.48
5996.00,1.47
5995.00,1.47
5994.00,1.47
5993.00,1.47
5992.00,1.47
5991.00,1.47
5990.00,1.46
5989.00,1.46
5988.00,1.46
5987.00,1.46
5986.00,1.45
5985.00,1.45
5984.00,1.45
5983.00,1.44
5982.00,1.44
5981.00,1.43
5980.00,1.43
5979.00,1.43
5978.00,1.42
5977.00,1.41
5976.00,1.41
5975.00,1.40
5974.00,1.40
5973.00,1.39
5972.00,1.38
5971.00,1.38
5970.00,1.37
5969.00,1.36
5968.00,1.36
5967.00,1.35
5966.00,1.34
5965.00,1.33
5964.00,1.32
5963.00,1.32
5962.00,1.31
5961.00,1.30
5960.00,1.29
5959.00,1.28
5958.00,1.27
5957.00,1.27
5956.00,1.26
5955.00,1.25
5954.00,1.24
5953.00,1.23
5952.00,1.23
5951.00,1.22
5950.00,1.21
5949.00,1.21
5948.00,1.20
5947.00,1.20
5946.00,1.19
5945.00,1.19
5944.00,1.18
5943.00,1.18
5942.00,1.18
5941.00,1.17
5940.00,1.17
5939.00,1.17
5938.00,1.17
5937.00,1.17
5936.00,1.17
5935.00,1.17
5934.00,1.17
5933.00,1.17
5932.00,1.17
5931.00,1.17
5930.00,1.17
5929.00,1.17
5928.00,1.17
5927.00,1.16
5926.00,1.16
5925.00,1.16
5924.00,1.16
5923.00,1.16
5922.00,1.16
5921.00,1.15
5920.00,1.15
5919.00,1.15
5918.00,1.15
5917.00,1.14
5916.00,1.14
5915.00,1.14
5914.00,1.13
5913.00,1.13
5912.00,1.13
5911.00,1.13
5910.00,1.12
5909.00,1.12
5908.00,1.12
5907.00,1.12
5906.00,1.12
5905.00,1.11
5904.00,1.11
5903.00,1.11
5902.00,1.11
5901.00,1.11
5900.00,1.11
5899.00,1.11
5898.00,1.11
5897.00,1.11
5896.00,1.11
5895.00,1.11
5894.00,1.11
5893.00,1.11
5892.00,1.12
5891.00,1.12
5890.00,1.12
5889.00,1.12
5888.00,1.13
5887.00,1.13
5886.00,1.13
5885.00,1.13
5884.00,1.14
5883.00,1.14
5882.00,1.15
5881.00,1.15
5880.00,1.15
5879.00,1.16
5878.00,1.16
5877.00,1.16
5876.00,1.17
5875.00,1.17
5874.00,1.17
5873.00,1.18
5872.00,1.18
5871.00,1.18
5870.00,1.18
5869.00,1.19
5868.00,1.19
5867.00,1.19
5866.00,1.20
5865.00,1.20
5864.00,1.20
5863.00,1.20
5862.00,1.21
5861.00,1.21
5860.00,1.21
5859.00,1.21
5858.00,1.21
5857.00,1.22
5856.00,1.22
5855.00,1.22
5854.00,1.22
5853.00,1.22
5852.00,1.22
5851.00,1.22
5850.00,1.22
5849.00,1.22
5848.00,1.22
5847.00,1.22
5846.00,1.22
5845.00,1.22
5844.00,1.22
5843.00,1.22
5842.00,1.22
5841.00,1.22
5840.00,1.22
5839.00,1.22
5838.00,1.22
5837.00,1.22
5836.00,1.22
5835.00,1.22
5834.00,1.22
5833.00,1.22
5832.00,1.22
5831.00,1.22
5830.00,1.22
5829.00,1.22
5828.00,1.22
5827.00,1.22
5826.00,1.22
5825.00,1.22
5824.00,1.22
5823.00,1.22
5822.00,1.22
5821.00,1.22
5820.00,1.22
5819.00,1.22
5818.00,1.22
5817.00,1.22
5816.00,1.22
5815.00,1.22
5814.00,1.22
5813.00,1.22
5812.00,1.22
5811.00,1.22
5810.00,1.22
5809.00,1.22
5808.00,1.23
5807.00,1.22
5806.00,1.22
5805.00,1.22
5804.00,1.22
5803.00,1.22
5802.00,1.22
5801.00,1.22
5800.00,1.22
5799.00,1.22
5798.00,1.22
5797.00,1.21
5796.00,1.21
5795.00,1.21
5794.00,1.20
5793.00,1.20
5792.00,1.20
5791.00,1.19
5790.00,1.19
5789.00,1.19
5788.00,1.18
5787.00,1.18
5786.00,1.18
5785.00,1.17
5784.00,1.17
5783.00,1.17
5782.00,1.17
5781.00,1.16
5780.00,1.16
5779.00,1.16
5778.00,1.16
5777.00,1.16
5776.00,1.15
5775.00,1.15
5774.00,1.15
5773.00,1.15
5772.00,1.15
5771.00,1.15
5770.00,1.15
5769.00,1.15
5768.00,1.16
5767.00,1.16
5766.00,1.16
5765.00,1.16
5764.00,1.16
5763.00,1.17
5762.00,1.17
5761.00,1.17
5760.00,1.18
5759.00,1.18
5758.00,1.18
5757.00,1.19
5756.00,1.19
5755.00,1.19
5754.00,1.20
5753.00,1.20
5752.00,1.21
5751.00,1.21
5750.00,1.21
5749.00,1.22
5748.00,1.22
5747.00,1.23
5746.00,1.23
5745.00,1.24
5744.00,1.24
5743.00,1.24
5742.00,1.25
5741.00,1.25
5740.00,1.26
5739.00,1.26
5738.00,1.26
5737.00,1.27
5736.00,1.27
5735.00,1.27
5734.00,1.28
5733.00,1.28
5732.00,1.28
5731.00,1.28
5730.00,1.29
5729.00,1.29
5728.00,1.29
5727.00,1.29
5726.00,1.29
5725.00,1.29
5724.00,1.29
5723.00,1.29
5722.00,1.30
5721.00,1.30
5720.00,1.30
5719.00,1.30
5718.00,1.30
5717.00,1.30
5716.00,1.30
5715.00,1.30
5714.00,1.30
5713.00,1.30
5712.00,1.30
5711.00,1.30
5710.00,1.29
5709.00,1.29
5708.00,1.29
5707.00,1.29
5706.00,1.29
5705.00,1.29
5704.00,1.29
5703.00,1.29
5702.00,1.29
5701.00,1.29
5700.00,1.29
5699.00,1.29
5698.00,1.29
5697.00,1.28
5696.00,1.28
5695.00,1.28
5694.00,1.28
5693.00,1.28
5692.00,1.28
5691.00,1.27
5690.00,1.27
5689.00,1.27
5688.00,1.27
5687.00,1.27
5686.00,1.27
5685.00,1.26
5684.00,1.26
5683.00,1.26
5682.00,1.26
5681.00,1.26
5680.00,1.26
5679.00,1.26
5678.00,1.26
5677.00,1.25
5676.00,1.25
5675.00,1.25
5674.00,1.25
5673.00,1.25
5672.00,1.25
5671.00,1.25
5670.00,1.26
5669.00,1.26
5668.00,1.26
5667.00,1.26
5666.00,1.26
5665.00,1.26
5664.00,1.26
5663.00,1.26
5662.00,1.27
5661.00,1.27
5660.00,1.27
5659.00,1.27
5658.00,1.28
5657.00,1.28
5656.00,1.28
5655.00,1.28
5654.00,1.28
5653.00,1.29
5652.00,1.29
5651.00,1.29
5650.00,1.29
5649.00,1.30
5648.00,1.30
5647.00,1.30
5646.00,1.30
5645.00,1.31
5644.00,1.31
5643.00,1.31
5642.00,1.31
5641.00,1.31
5640.00,1.32
5639.00,1.32
5638.00,1.32
5637.00,1.32
5636.00,1.32
5635.00,1.32
5634.00,1.33
5633.00,1.33
5632.00,1.33
5631.00,1.33
5630.00,1.33
5629.00,1.33
5628.00,1.34
5627.00,1.34
5626.00,1.34
5625.00,1.34
5624.00,1.34
5623.00,1.34
5622.00,1.35
5621.00,1.35
5620.00,1.35
5619.00,1.35
5618.00,1.35
5617.00,1.36
5616.00,1.36
5615.00,1.36
5614.00,1.36
5613.00,1.36
5612.00,1.37
5611.00,1.37
5610.00,1.37
5609.00,1.37
5608.00,1.37
5607.00,1.38
5606.00,1.38
5605.00,1.38
5604.00,1.38
5603.00,1.38
5602.00,1.39
5601.00,1.39
5600.00,1.39
5599.00,1.39
5598.00,1.39
5597.00,1.39
5596.00,1.40
5595.00,1.40
5594.00,1.40
5593.00,1.40
5592.00,1.40
5591.00,1.41
5590.00,1.41
5589.00,1.41
5588.00,1.41
5587.00,1.42
5586.00,1.42
5585.00,1.42
5584.00,1.42
5583.00,1.42
5582.00,1.43
5581.00,1.43
5580.00,1.43
5579.00,1.43
5578.00,1.43
5577.00,1.43
5576.00,1.44
5575.00,1.44
5574.00,1.44
5573.00,1.44
5572.00,1.44
5571.00,1.44
5570.00,1.44
5569.00,1.45
5568.00,1.45
5567.00,1.45
5566.00,1.45
5565.00,1.45
5564.00,1.45
5563.00,1.45
5562.00,1.45
5561.00,1.45
5560.00,1.45
5559.00,1.46
5558.00,1.46
5557.00,1.46
5556.00,1.46
5555.00,1.46
5554.00,1.46
5553.00,1.46
5552.00,1.47
5551.00,1.47
5550.00,1.47
5549.00,1.47
5548.00,1.47
5547.00,1.47
5546.00,1.47
5545.00,1.48
5544.00,1.48
5543.00,1.48
5542.00,1.48
5541.00,1.48
5540.00,1.48
5539.00,1.48
5538.00,1.48
5537.00,1.49
5536.00,1.49
5535.00,1.49
5534.00,1.49
5533.00,1.49
5532.00,1.49
5531.00,1.49
5530.00,1.49
5529.00,1.49
5528.00,1.50
5527.00,1.50
5526.00,1.50
5525.00,1.50
5524.00,1.50
5523.00,1.50
5522.00,1.50
5521.00,1.50
5520.00,1.50
5519.00,1.50
5518.00,1.51
5517.00,1.51
5516.00,1.51
5515.00,1.51
5514.00,1.51
5513.00,1.51
5512.00,1.51
5511.00,1.51
5510.00,1.51
5509.00,1.51
5508.00,1.51
5507.00,1.51
5506.00,1.51
5505.00,1.52
5504.00,1.52
5503.00,1.52
5502.00,1.52
5501.00,1.52
5500.00,1.52
5499.00,1.52
5498.00,1.52
5497.00,1.52
5496.00,1.52
5495.00,1.53
5494.00,1.53
5493.00,1.53
5492.00,1.53
5491.00,1.53
5490.00,1.53
5489.00,1.53
5488.00,1.54
5487.00,1.54
5486.00,1.54
5485.00,1.54
5484.00,1.54
5483.00,1.54
5482.00,1.54
5481.00,1.54
5480.00,1.54
5479.00,1.55
5478.00,1.55
5477.00,1.55
5476.00,1.55
5475.00,1.55
5474.00,1.55
5473.00,1.55
5472.00,1.55
5471.00,1.56
5470.00,1.56
5469.00,1.56
5468.00,1.56
5467.00,1.56
5466.00,1.56
5465.00,1.57
5464.00,1.57
5463.00,1.57
5462.00,1.57
5461.00,1.57
5460.00,1.57
5459.00,1.57
5458.00,1.58
5457.00,1.58
5456.00,1.58
5455.00,1.58
5454.00,1.58
5453.00,1.58
5452.00,1.58
5451.00,1.58
5450.00,1.58
5449.00,1.59
5448.00,1.59
5447.00,1.59
5446.00,1.59
5445.00,1.59
5444.00,1.59
5443.00,1.59
5442.00,1.59
5441.00,1.59
5440.00,1.59
5439.00,1.59
5438.00,1.59
5437.00,1.59
5436.00,1.59
5435.00,1.59
5434.00,1.59
5433.00,1.59
5432.00,1.59
5431.00,1.59
5430.00,1.59
5429.00,1.59
5428.00,1.59
5427.00,1.59
5426.00,1.59
5425.00,1.59
5424.00,1.59
5423.00,1.59
5422.00,1.59
5421.00,1.59
5420.00,1.59
5419.00,1.59
5418.00,1.59
5417.00,1.59
5416.00,1.59
5415.00,1.59
5414.00,1.59
5413.00,1.59
5412.00,1.59
5411.00,1.59
5410.00,1.59
5409.00,1.59
5408.00,1.59
5407.00,1.59
5406.00,1.59
5405.00,1.59
5404.00,1.59
5403.00,1.59
5402.00,1.59
5401.00,1.59
5400.00,1.59
5399.00,1.59
5398.00,1.59
5397.00,1.59
5396.00,1.59
5395.00,1.59
5394.00,1.59
5393.00,1.59
5392.00,1.59
5391.00,1.59
5390.00,1.59
5389.00,1.58
5388.00,1.58
5387.00,1.58
5386.00,1.58
5385.00,1.58
5384.00,1.57
5383.00,1.57
5382.00,1.57
5381.00,1.57
5380.00,1.56
5379.00,1.56
5378.00,1.56
5377.00,1.55
5376.00,1.55
5375.00,1.55
5374.00,1.54
5373.00,1.54
5372.00,1.53
5371.00,1.53
5370.00,1.52
5369.00,1.52
5368.00,1.51
5367.00,1.51
5366.00,1.50
5365.00,1.50
5364.00,1.49
5363.00,1.48
5362.00,1.48
5361.00,1.47
5360.00,1.47
5359.00,1.46
5358.00,1.45
5357.00,1.44
5356.00,1.44
5355.00,1.43
5354.00,1.42
5353.00,1.41
5352.00,1.40
5351.00,1.39
5350.00,1.39
5349.00,1.38
5348.00,1.37
5347.00,1.36
5346.00,1.34
5345.00,1.33
5344.00,1.32
5343.00,1.31
5342.00,1.30
5341.00,1.29
5340.00,1.28
5339.00,1.26
5338.00,1.25
5337.00,1.24
5336.00,1.23
5335.00,1.21
5334.00,1.20
5333.00,1.19
5332.00,1.17
5331.00,1.16
5330.00,1.15
5329.00,1.13
5328.00,1.12
5327.00,1.10
5326.00,1.09
5325.00,1.08
5324.00,1.06
5323.00,1.05
5322.00,1.04
5321.00,1.02
5320.00,1.01
5319.00,1.00
5318.00,0.98
5317.00,0.97
5316.00,0.96
5315.00,0.95
5314.00,0.93
5313.00,0.92
5312.00,0.91
5311.00,0.90
5310.00,0.89
5309.00,0.88
5308.00,0.87
5307.00,0.86
5306.00,0.85
5305.00,0.84
5304.00,0.83
5303.00,0.82
5302.00,0.81
5301.00,0.80
5300.00,0.80
5299.00,0.79
5298.00,0.78
5297.00,0.78
5296.00,0.77
5295.00,0.76
5294.00,0.76
5293.00,0.75
5292.00,0.75
5291.00,0.74
5290.00,0.74
5289.00,0.74
5288.00,0.73
5287.00,0.73
5286.00,0.73
5285.00,0.72
5284.00,0.72
5283.00,0.72
5282.00,0.71
5281.00,0.71
5280.00,0.71
5279.00,0.71
5278.00,0.71
5277.00,0.71
5276.00,0.70
5275.00,0.70
5274.00,0.70
5273.00,0.70
5272.00,0.70
5271.00,0.70
5270.00,0.69
5269.00,0.69
5268.00,0.69
5267.00,0.69
5266.00,0.69
5265.00,0.69
5264.00,0.69
5263.00,0.69
5262.00,0.68
5261.00,0.68
5260.00,0.68
5259.00,0.68
5258.00,0.68
5257.00,0.68
5256.00,0.68
5255.00,0.68
5254.00,0.68
5253.00,0.68
5252.00,0.68
5251.00,0.68
5250.00,0.68
5249.00,0.68
5248.00,0.68
5247.00,0.68
5246.00,0.68
5245.00,0.68
5244.00,0.68
5243.00,0.68
5242.00,0.68
5241.00,0.68
5240.00,0.68
5239.00,0.68
5238.00,0.68
5237.00,0.68
5236.00,0.68
5235.00,0.67
5234.00,0.67
5233.00,0.67
5232.00,0.67
5231.00,0.67
5230.00,0.67
5229.00,0.67
5228.00,0.67
5227.00,0.67
5226.00,0.67
5225.00,0.67
5224.00,0.67
5223.00,0.67
5222.00,0.67
5221.00,0.67
5220.00,0.67
5219.00,0.68
5218.00,0.68
5217.00,0.68
5216.00,0.68
5215.00,0.68
5214.00,0.68
5213.00,0.68
5212.00,0.68
5211.00,0.68
5210.00,0.69
5209.00,0.69
5208.00,0.69
5207.00,0.69
5206.00,0.69
5205.00,0.69
5204.00,0.69
5203.00,0.69
5202.00,0.69
5201.00,0.69
5200.00,0.69
5199.00,0.69
5198.00,0.69
5197.00,0.69
5196.00,0.69
5195.00,0.69
5194.00,0.69
5193.00,0.69
5192.00,0.69
5191.00,0.69
5190.00,0.69
5189.00,0.69
5188.00,0.69
5187.00,0.69
5186.00,0.69
5185.00,0.69
5184.00,0.69
5183.00,0.69
5182.00,0.70
5181.00,0.70
5180.00,0.70
5179.00,0.70
5178.00,0.70
5177.00,0.70
5176.00,0.70
5175.00,0.70
5174.00,0.70
5173.00,0.70
5172.00,0.70
5171.00,0.71
5170.00,0.71
5169.00,0.71
5168.00,0.71
5167.00,0.71
5166.00,0.71
5165.00,0.71
5164.00,0.71
5163.00,0.71
5162.00,0.71
5161.00,0.71
5160.00,0.71
5159.00,0.71
5158.00,0.71
5157.00,0.71
5156.00,0.71
5155.00,0.71
5154.00,0.71
5153.00,0.71
5152.00,0.71
5151.00,0.71
5150.00,0.71
5149.00,0.71
5148.00,0.71
5147.00,0.71
5146.00,0.72
5145.00,0.72
5144.00,0.72
5143.00,0.72
5142.00,0.72
5141.00,0.72
5140.00,0.72
5139.00,0.72
5138.00,0.72
5137.00,0.72
5136.00,0.72
5135.00,0.72
5134.00,0.72
5133.00,0.72
5132.00,0.72
5131.00,0.72
5130.00,0.72
5129.00,0.72
5128.00,0.73
5127.00,0.73
5126.00,0.73
5125.00,0.73
5124.00,0.73
5123.00,0.73
5122.00,0.73
5121.00,0.73
5120.00,0.73
5119.00,0.73
5118.00,0.73
5117.00,0.73
5116.00,0.73
5115.00,0.73
5114.00,0.73
5113.00,0.74
5112.00,0.74
5111.00,0.74
5110.00,0.74
5109.00,0.74
5108.00,0.74
5107.00,0.74
5106.00,0.74
5105.00,0.74
5104.00,0.74
5103.00,0.74
5102.00,0.74
5101.00,0.74
5100.00,0.74
5099.00,0.74
5098.00,0.74
5097.00,0.74
5096.00,0.74
5095.00,0.75
5094.00,0.75
5093.00,0.75
5092.00,0.75
5091.00,0.75
5090.00,0.75
5089.00,0.75
5088.00,0.75
5087.00,0.75
5086.00,0.76
5085.00,0.76
5084.00,0.76
5083.00,0.76
5082.00,0.76
5081.00,0.76
5080.00,0.76
5079.00,0.76
5078.00,0.76
5077.00,0.76
5076.00,0.76
5075.00,0.76
5074.00,0.76
5073.00,0.76
5072.00,0.76
5071.00,0.76
5070.00,0.76
5069.00,0.77
5068.00,0.77
5067.00,0.77
5066.00,0.77
5065.00,0.77
5064.00,0.77
5063.00,0.77
5062.00,0.77
5061.00,0.78
5060.00,0.78
5059.00,0.78
5058.00,0.78
5057.00,0.78
5056.00,0.78
5055.00,0.78
5054.00,0.78
5053.00,0.78
5052.00,0.78
5051.00,0.78
5050.00,0.79
5049.00,0.79
5048.00,0.79
5047.00,0.79
5046.00,0.79
5045.00,0.79
5044.00,0.79
5043.00,0.79
5042.00,0.79
5041.00,0.79
5040.00,0.79
5039.00,0.80
5038.00,0.80
5037.00,0.80
5036.00,0.80
5035.00,0.80
5034.00,0.80
5033.00,0.80
5032.00,0.80
5031.00,0.81
5030.00,0.81
5029.00,0.81
5028.00,0.81
5027.00,0.81
5026.00,0.81
5025.00,0.82
5024.00,0.82
5023.00,0.82
5022.00,0.82
5021.00,0.82
5020.00,0.82
5019.00,0.83
5018.00,0.83
5017.00,0.83
5016.00,0.83
5015.00,0.83
5014.00,0.83
5013.00,0.83
5012.00,0.83
5011.00,0.83
5010.00,0.83
5009.00,0.83
5008.00,0.83
5007.00,0.84
5006.00,0.84
5005.00,0.84
5004.00,0.84
5003.00,0.84
5002.00,0.84
5001.00,0.84
5000.00,0.84
4999.00,0.84
4998.00,0.84
4997.00,0.85
4996.00,0.85
4995.00,0.85
4994.00,0.85
4993.00,0.85
4992.00,0.85
4991.00,0.86
4990.00,0.86
4989.00,0.86
4988.00,0.86
4987.00,0.86
4986.00,0.87
4985.00,0.87
4984.00,0.87
4983.00,0.87
4982.00,0.87
4981.00,0.87
4980.00,0.88
4979.00,0.88
4978.00,0.88
4977.00,0.88
4976.00,0.88
4975.00,0.88
4974.00,0.88
4973.00,0.88
4972.00,0.88
4971.00,0.88
4970.00,0.89
4969.00,0.89
4968.00,0.89
4967.00,0.89
4966.00,0.89
4965.00,0.89
4964.00,0.89
4963.00,0.89
4962.00,0.89
4961.00,0.89
4960.00,0.90
4959.00,0.90
4958.00,0.90
4957.00,0.90
4956.00,0.90
4955.00,0.90
4954.00,0.90
4953.00,0.91
4952.00,0.91
4951.00,0.91
4950.00,0.91
4949.00,0.91
4948.00,0.91
4947.00,0.91
4946.00,0.91
4945.00,0.91
4944.00,0.91
4943.00,0.91
4942.00,0.92
4941.00,0.92
4940.00,0.92
4939.00,0.92
4938.00,0.92
4937.00,0.92
4936.00,0.92
4935.00,0.92
4934.00,0.92
4933.00,0.92
4932.00,0.92
4931.00,0.92
4930.00,0.92
4929.00,0.92
4928.00,0.92
4927.00,0.92
4926.00,0.92
4925.00,0.92
4924.00,0.93
4923.00,0.93
4922.00,0.93
4921.00,0.93
4920.00,0.93
4919.00,0.93
4918.00,0.93
4917.00,0.94
4916.00,0.94
4915.00,0.94
4914.00,0.94
4913.00,0.94
4912.00,0.94
4911.00,0.94
4910.00,0.94
4909.00,0.95
4908.00,0.95
4907.00,0.95
4906.00,0.95
4905.00,0.95
4904.00,0.95
4903.00,0.95
4902.00,0.95
4901.00,0.95
4900.00,0.95
4899.00,0.95
4898.00,0.95
4897.00,0.96
4896.00,0.96
4895.00,0.96
4894.00,0.96
4893.00,0.96
4892.00,0.96
4891.00,0.96
4890.00,0.96
4889.00,0.97
4888.00,0.97
4887.00,0.97
4886.00,0.97
4885.00,0.97
4884.00,0.97
4883.00,0.97
4882.00,0.97
4881.00,0.98
4880.00,0.98
4879.00,0.98
4878.00,0.98
4877.00,0.98
4876.00,0.98
4875.00,0.98
4874.00,0.98
4873.00,0.98
4872.00,0.98
4871.00,0.98
4870.00,0.98
4869.00,0.98
4868.00,0.98
4867.00,0.98
4866.00,0.98
4865.00,0.98
4864.00,0.98
4863.00,0.98
4862.00,0.98
4861.00,0.98
4860.00,0.98
4859.00,0.98
4858.00,0.98
4857.00,0.98
4856.00,0.98
4855.00,0.98
4854.00,0.98
4853.00,0.98
4852.00,0.99
4851.00,0.99
4850.00,0.99
4849.00,0.99
4848.00,0.99
4847.00,0.99
4846.00,0.99
4845.00,0.99
4844.00,0.99
4843.00,0.99
4842.00,0.99
4841.00,0.99
4840.00,0.99
4839.00,0.99
4838.00,0.99
4837.00,1.00
4836.00,1.00
4835.00,1.00
4834.00,1.00
4833.00,1.00
4832.00,1.00
4831.00,1.00
4830.00,1.00
4829.00,1.00
4828.00,1.01
4827.00,1.01
4826.00,1.01
4825.00,1.01
4824.00,1.01
4823.00,1.01
4822.00,1.02
4821.00,1.02
4820.00,1.02
4819.00,1.02
4818.00,1.02
4817.00,1.02
4816.00,1.02
4815.00,1.03
4814.00,1.03
4813.00,1.03
4812.00,1.03
4811.00,1.03
4810.00,1.03
4809.00,1.04
4808.00,1.04
4807.00,1.04
4806.00,1.04
4805.00,1.04
4804.00,1.05
4803.00,1.05
4802.00,1.05
4801.00,1.05
4800.00,1.05
4799.00,1.06
4798.00,1.06
4797.00,1.06
4796.00,1.06
4795.00,1.06
4794.00,1.06
4793.00,1.07
4792.00,1.07
4791.00,1.07
4790.00,1.07
4789.00,1.07
4788.00,1.07
4787.00,1.07
4786.00,1.07
4785.00,1.07
4784.00,1.07
4783.00,1.07
4782.00,1.08
4781.00,1.08
4780.00,1.08
4779.00,1.08
4778.00,1.08
4777.00,1.09
4776.00,1.09
4775.00,1.09
4774.00,1.09
4773.00,1.10
4772.00,1.10
4771.00,1.10
4770.00,1.11
4769.00,1.11
4768.00,1.11
4767.00,1.12
4766.00,1.12
4765.00,1.12
4764.00,1.12
4763.00,1.13
4762.00,1.13
4761.00,1.13
4760.00,1.13
4759.00,1.14
4758.00,1.14
4757.00,1.14
4756.00,1.14
4755.00,1.14
4754.00,1.15
4753.00,1.15
4752.00,1.15
4751.00,1.15
4750.00,1.15
4749.00,1.15
4748.00,1.15
4747.00,1.15
4746.00,1.16
4745.00,1.16
4744.00,1.16
4743.00,1.16
4742.00,1.16
4741.00,1.16
4740.00,1.16
4739.00,1.16
4738.00,1.16
4737.00,1.17
4736.00,1.17
4735.00,1.17
4734.00,1.17
4733.00,1.18
4732.00,1.18
4731.00,1.18
4730.00,1.19
4729.00,1.19
4728.00,1.19
4727.00,1.20
4726.00,1.20
4725.00,1.20
4724.00,1.21
4723.00,1.21
4722.00,1.21
4721.00,1.22
4720.00,1.22
4719.00,1.22
4718.00,1.23
4717.00,1.23
4716.00,1.23
4715.00,1.23
4714.00,1.24
4713.00,1.24
4712.00,1.24
4711.00,1.24
4710.00,1.24
4709.00,1.25
4708.00,1.25
4707.00,1.25
4706.00,1.25
4705.00,1.25
4704.00,1.25
4703.00,1.26
4702.00,1.26
4701.00,1.26
4700.00,1.26
4699.00,1.27
4698.00,1.27
4697.00,1.27
4696.00,1.28
4695.00,1.28
4694.00,1.28
4693.00,1.29
4692.00,1.29
4691.00,1.29
4690.00,1.30
4689.00,1.30
4688.00,1.30
4687.00,1.31
4686.00,1.31
4685.00,1.31
4684.00,1.32
4683.00,1.32
4682.00,1.32
4681.00,1.32
4680.00,1.33
4679.00,1.33
4678.00,1.33
4677.00,1.33
4676.00,1.33
4675.00,1.33
4674.00,1.33
4673.00,1.33
4672.00,1.34
4671.00,1.34
4670.00,1.34
4669.00,1.34
4668.00,1.34
4667.00,1.34
4666.00,1.34
4665.00,1.34
4664.00,1.35
4663.00,1.35
4662.00,1.35
4661.00,1.35
4660.00,1.35
4659.00,1.36
4658.00,1.36
4657.00,1.36
4656.00,1.37
4655.00,1.37
4654.00,1.37
4653.00,1.37
4652.00,1.38
4651.00,1.38
4650.00,1.38
4649.00,1.39
4648.00,1.39
4647.00,1.39
4646.00,1.40
4645.00,1.40
4644.00,1.40
4643.00,1.41
4642.00,1.41
4641.00,1.41
4640.00,1.42
4639.00,1.42
4638.00,1.42
4637.00,1.42
4636.00,1.42
4635.00,1.42
4634.00,1.42
4633.00,1.43
4632.00,1.43
4631.00,1.43
4630.00,1.43
4629.00,1.43
4628.00,1.43
4627.00,1.43
4626.00,1.42
4625.00,1.42
4624.00,1.42
4623.00,1.42
4622.00,1.42
4621.00,1.42
4620.00,1.42
4619.00,1.43
4618.00,1.43
4617.00,1.43
4616.00,1.43
4615.00,1.43
4614.00,1.43
4613.00,1.43
4612.00,1.44
4611.00,1.44
4610.00,1.44
4609.00,1.44
4608.00,1.45
4607.00,1.45
4606.00,1.45
4605.00,1.45
4604.00,1.46
4603.00,1.46
4602.00,1.46
4601.00,1.47
4600.00,1.47
4599.00,1.47
4598.00,1.47
4597.00,1.48
4596.00,1.48
4595.00,1.48
4594.00,1.48
4593.00,1.48
4592.00,1.48
4591.00,1.49
4590.00,1.49
4589.00,1.49
4588.00,1.49
4587.00,1.49
4586.00,1.49
4585.00,1.49
4584.00,1.49
4583.00,1.50
4582.00,1.50
4581.00,1.50
4580.00,1.50
4579.00,1.50
4578.00,1.50
4577.00,1.50
4576.00,1.50
4575.00,1.51
4574.00,1.51
4573.00,1.51
4572.00,1.51
4571.00,1.51
4570.00,1.52
4569.00,1.52
4568.00,1.52
4567.00,1.52
4566.00,1.52
4565.00,1.53
4564.00,1.53
4563.00,1.53
4562.00,1.53
4561.00,1.53
4560.00,1.53
4559.00,1.54
4558.00,1.54
4557.00,1.54
4556.00,1.54
4555.00,1.54
4554.00,1.54
4553.00,1.54
4552.00,1.54
4551.00,1.55
4550.00,1.55
4549.00,1.55
4548.00,1.55
4547.00,1.55
4546.00,1.55
4545.00,1.55
4544.00,1.55
4543.00,1.55
4542.00,1.55
4541.00,1.55
4540.00,1.55
4539.00,1.55
4538.00,1.55
4537.00,1.56
4536.00,1.56
4535.00,1.56
4534.00,1.56
4533.00,1.56
4532.00,1.56
4531.00,1.56
4530.00,1.56
4529.00,1.57
4528.00,1.57
4527.00,1.57
4526.00,1.57
4525.00,1.57
4524.00,1.57
4523.00,1.57
4522.00,1.57
4521.00,1.57
4520.00,1.57
4519.00,1.57
4518.00,1.57
4517.00,1.57
4516.00,1.57
4515.00,1.57
4514.00,1.57
4513.00,1.57
4512.00,1.57
4511.00,1.56
4510.00,1.56
4509.00,1.56
4508.00,1.56
4507.00,1.56
4506.00,1.56
4505.00,1.56
4504.00,1.56
4503.00,1.55
4502.00,1.55
4501.00,1.55
4500.00,1.55
4499.00,1.55
4498.00,1.55
4497.00,1.55
4496.00,1.55
4495.00,1.55
4494.00,1.55
4493.00,1.55
4492.00,1.55
4491.00,1.55
4490.00,1.54
4489.00,1.54
4488.00,1.54
4487.00,1.54
4486.00,1.54
4485.00,1.54
4484.00,1.54
4483.00,1.53
4482.00,1.53
4481.00,1.53
4480.00,1.52
4479.00,1.52
4478.00,1.52
4477.00,1.51
4476.00,1.51
4475.00,1.50
4474.00,1.50
4473.00,1.49
4472.00,1.49
4471.00,1.48
4470.00,1.48
4469.00,1.47
4468.00,1.47
4467.00,1.46
4466.00,1.46
4465.00,1.45
4464.00,1.45
4463.00,1.44
4462.00,1.44
4461.00,1.43
4460.00,1.43
4459.00,1.42
4458.00,1.42
4457.00,1.41
4456.00,1.41
4455.00,1.40
4454.00,1.40
4453.00,1.39
4452.00,1.39
4451.00,1.38
4450.00,1.38
4449.00,1.37
4448.00,1.36
4447.00,1.36
4446.00,1.35
4445.00,1.35
4444.00,1.34
4443.00,1.33
4442.00,1.33
4441.00,1.32
4440.00,1.31
4439.00,1.31
4438.00,1.30
4437.00,1.30
4436.00,1.29
4435.00,1.28
4434.00,1.28
4433.00,1.27
4432.00,1.26
4431.00,1.26
4430.00,1.25
4429.00,1.25
4428.00,1.24
4427.00,1.24
4426.00,1.23
4425.00,1.23
4424.00,1.23
4423.00,1.22
4422.00,1.22
4421.00,1.22
4420.00,1.21
4419.00,1.21
4418.00,1.21
4417.00,1.21
4416.00,1.21
4415.00,1.21
4414.00,1.21
4413.00,1.21
4412.00,1.21
4411.00,1.21
4410.00,1.21
4409.00,1.21
4408.00,1.21
4407.00,1.21
4406.00,1.21
4405.00,1.21
4404.00,1.21
4403.00,1.21
4402.00,1.21
4401.00,1.21
4400.00,1.21
4399.00,1.21
4398.00,1.21
4397.00,1.21
4396.00,1.21
4395.00,1.21
4394.00,1.22
4393.00,1.22
4392.00,1.22
4391.00,1.22
4390.00,1.22
4389.00,1.23
4388.00,1.23
4387.00,1.23
4386.00,1.24
4385.00,1.24
4384.00,1.24
4383.00,1.25
4382.00,1.25
4381.00,1.25
4380.00,1.26
4379.00,1.26
4378.00,1.26
4377.00,1.26
4376.00,1.26
4375.00,1.26
4374.00,1.26
4373.00,1.26
4372.00,1.27
4371.00,1.26
4370.00,1.26
4369.00,1.26
4368.00,1.26
4367.00,1.26
4366.00,1.26
4365.00,1.26
4364.00,1.26
4363.00,1.26
4362.00,1.26
4361.00,1.26
4360.00,1.26
4359.00,1.26
4358.00,1.26
4357.00,1.26
4356.00,1.26
4355.00,1.26
4354.00,1.26
4353.00,1.26
4352.00,1.26
4351.00,1.26
4350.00,1.26
4349.00,1.26
4348.00,1.26
4347.00,1.26
4346.00,1.26
4345.00,1.27
4344.00,1.27
4343.00,1.27
4342.00,1.27
4341.00,1.27
4340.00,1.27
4339.00,1.27
4338.00,1.27
4337.00,1.28
4336.00,1.28
4335.00,1.28
4334.00,1.28
4333.00,1.28
4332.00,1.28
4331.00,1.28
4330.00,1.29
4329.00,1.29
4328.00,1.29
4327.00,1.29
4326.00,1.29
4325.00,1.29
4324.00,1.30
4323.00,1.30
4322.00,1.30
4321.00,1.30
4320.00,1.31
4319.00,1.31
4318.00,1.31
4317.00,1.32
4316.00,1.32
4315.00,1.32
4314.00,1.33
4313.00,1.33
4312.00,1.33
4311.00,1.34
4310.00,1.34
4309.00,1.34
4308.00,1.35
4307.00,1.35
4306.00,1.35
4305.00,1.36
4304.00,1.36
4303.00,1.36
4302.00,1.36
4301.00,1.37
4300.00,1.37
4299.00,1.37
4298.00,1.37
4297.00,1.38
4296.00,1.38
4295.00,1.38
4294.00,1.38
4293.00,1.39
4292.00,1.39
4291.00,1.39
4290.00,1.39
4289.00,1.40
4288.00,1.40
4287.00,1.40
4286.00,1.40
4285.00,1.41
4284.00,1.41
4283.00,1.41
4282.00,1.41
4281.00,1.41
4280.00,1.41
4279.00,1.41
4278.00,1.41
4277.00,1.41
4276.00,1.41
4275.00,1.41
4274.00,1.40
4273.00,1.40
4272.00,1.40
4271.00,1.40
4270.00,1.40
4269.00,1.39
4268.00,1.39
4267.00,1.39
4266.00,1.39
4265.00,1.39
4264.00,1.39
4263.00,1.39
4262.00,1.39
4261.00,1.39
4260.00,1.39
4259.00,1.39
4258.00,1.39
4257.00,1.39
4256.00,1.39
4255.00,1.39
4254.00,1.39
4253.00,1.39
4252.00,1.38
4251.00,1.38
4250.00,1.38
4249.00,1.38
4248.00,1.38
4247.00,1.38
4246.00,1.39
4245.00,1.39
4244.00,1.39
4243.00,1.39
4242.00,1.39
4241.00,1.39
4240.00,1.40
4239.00,1.40
4238.00,1.40
4237.00,1.41
4236.00,1.41
4235.00,1.41
4234.00,1.41
4233.00,1.42
4232.00,1.42
4231.00,1.42
4230.00,1.43
4229.00,1.43
4228.00,1.43
4227.00,1.43
4226.00,1.44
4225.00,1.44
4224.00,1.44
4223.00,1.44
4222.00,1.44
4221.00,1.44
4220.00,1.45
4219.00,1.45
4218.00,1.45
4217.00,1.45
4216.00,1.45
4215.00,1.45
4214.00,1.45
4213.00,1.45
4212.00,1.45
4211.00,1.46
4210.00,1.46
4209.00,1.46
4208.00,1.46
4207.00,1.46
4206.00,1.46
4205.00,1.46
4204.00,1.46
4203.00,1.46
4202.00,1.46
4201.00,1.46
4200.00,1.46
4199.00,1.46
4198.00,1.46
4197.00,1.46
4196.00,1.46
4195.00,1.46
4194.00,1.46
4193.00,1.46
4192.00,1.46
4191.00,1.46
4190.00,1.45
4189.00,1.45
4188.00,1.45
4187.00,1.45
4186.00,1.45
4185.00,1.45
4184.00,1.45
4183.00,1.45
4182.00,1.44
4181.00,1.44
4180.00,1.44
4179.00,1.44
4178.00,1.44
4177.00,1.44
4176.00,1.44
4175.00,1.44
4174.00,1.44
4173.00,1.45
4172.00,1.45
4171.00,1.45
4170.00,1.45
4169.00,1.45
4168.00,1.46
4167.00,1.46
4166.00,1.46
4165.00,1.47
4164.00,1.47
4163.00,1.47
4162.00,1.48
4161.00,1.48
4160.00,1.48
4159.00,1.48
4158.00,1.49
4157.00,1.49
4156.00,1.49
4155.00,1.49
4154.00,1.49
4153.00,1.49
4152.00,1.50
4151.00,1.50
4150.00,1.50
4149.00,1.50
4148.00,1.50
4147.00,1.50
4146.00,1.50
4145.00,1.50
4144.00,1.49
4143.00,1.49
4142.00,1.49
4141.00,1.49
4140.00,1.49
4139.00,1.49
4138.00,1.49
4137.00,1.49
4136.00,1.49
4135.00,1.50
4134.00,1.50
4133.00,1.50
4132.00,1.50
4131.00,1.50
4130.00,1.50
4129.00,1.50
4128.00,1.50
4127.00,1.50
4126.00,1.50
4125.00,1.50
4124.00,1.50
4123.00,1.50
4122.00,1.50
4121.00,1.50
4120.00,1.50
4119.00,1.50
4118.00,1.50
4117.00,1.50
4116.00,1.49
4115.00,1.49
4114.00,1.49
4113.00,1.49
4112.00,1.49
4111.00,1.49
4110.00,1.49
4109.00,1.49
4108.00,1.49
4107.00,1.49
4106.00,1.49
4105.00,1.49
4104.00,1.49
4103.00,1.49
4102.00,1.49
4101.00,1.50
4100.00,1.50
4099.00,1.50
4098.00,1.50
4097.00,1.51
4096.00,1.51
4095.00,1.51
4094.00,1.51
4093.00,1.51
4092.00,1.51
4091.00,1.51
4090.00,1.51
4089.00,1.51
4088.00,1.51
4087.00,1.51
4086.00,1.51
4085.00,1.51
4084.00,1.51
4083.00,1.51
4082.00,1.51
4081.00,1.51
4080.00,1.50
4079.00,1.50
4078.00,1.50
4077.00,1.50
4076.00,1.50
4075.00,1.50
4074.00,1.50
4073.00,1.50
4072.00,1.51
4071.00,1.51
4070.00,1.51
4069.00,1.51
4068.00,1.51
4067.00,1.52
4066.00,1.52
4065.00,1.52
4064.00,1.53
4063.00,1.53
4062.00,1.53
4061.00,1.54
4060.00,1.54
4059.00,1.54
4058.00,1.54
4057.00,1.54
4056.00,1.54
4055.00,1.54
4054.00,1.54
4053.00,1.54
4052.00,1.54
4051.00,1.54
4050.00,1.54
4049.00,1.54
4048.00,1.54
4047.00,1.53
4046.00,1.53
4045.00,1.53
4044.00,1.53
4043.00,1.53
4042.00,1.54
4041.00,1.54
4040.00,1.54
4039.00,1.54
4038.00,1.55
4037.00,1.55
4036.00,1.55
4035.00,1.56
4034.00,1.56
4033.00,1.56
4032.00,1.57
4031.00,1.57
4030.00,1.57
4029.00,1.57
4028.00,1.57
4027.00,1.58
4026.00,1.58
4025.00,1.58
4024.00,1.58
4023.00,1.58
4022.00,1.58
4021.00,1.58
4020.00,1.58
4019.00,1.58
4018.00,1.58
4017.00,1.58
4016.00,1.59
4015.00,1.59
4014.00,1.59
4013.00,1.59
4012.00,1.59
4011.00,1.59
4010.00,1.59
4009.00,1.59
4008.00,1.59
4007.00,1.59
4006.00,1.59
4005.00,1.59
4004.00,1.59
4003.00,1.59
4002.00,1.59
4001.00,1.59
4000.00,1.59
