创建为新数据集,样品 105 用户 Administrator 日期 星期日, 十一月 05 2017
cm-1,%T
10000.00,1.76
9999.00,1.75
9998.00,1.75
9997.00,1.74
9996.00,1.74
9995.00,1.73
9994.00,1.73
9993.00,1.73
9992.00,1.72
9991.00,1.72
9990.00,1.71
9989.00,1.71
9988.00,1.71
9987.00,1.71
9986.00,1.70
9985.00,1.70
9984.00,1.70
9983.00,1.70
9982.00,1.70
9981.00,1.70
9980.00,1.70
9979.00,1.70
9978.00,1.70
9977.00,1.70
9976.00,1.70
9975.00,1.70
9974.00,1.70
9973.00,1.70
9972.00,1.70
9971.00,1.70
9970.00,1.71
9969.00,1.71
9968.00,1.71
9967.00,1.71
9966.00,1.71
9965.00,1.71
9964.00,1.71
9963.00,1.71
9962.00,1.71
9961.00,1.71
9960.00,1.71
9959.00,1.71
9958.00,1.71
9957.00,1.71
9956.00,1.70
9955.00,1.70
9954.00,1.70
9953.00,1.70
9952.00,1.70
9951.00,1.70
9950.00,1.70
9949.00,1.70
9948.00,1.70
9947.00,1.70
9946.00,1.70
9945.00,1.70
9944.00,1.70
9943.00,1.70
9942.00,1.70
9941.00,1.70
9940.00,1.70
9939.00,1.70
9938.00,1.71
9937.00,1.71
9936.00,1.71
9935.00,1.71
9934.00,1.71
9933.00,1.71
9932.00,1.71
9931.00,1.71
9930.00,1.71
9929.00,1.71
9928.00,1.71
9927.00,1.70
9926.00,1.70
9925.00,1.70
9924.00,1.70
9923.00,1.70
9922.00,1.69
9921.00,1.69
9920.00,1.69
9919.00,1.69
9918.00,1.68
9917.00,1.68
9916.00,1.68
9915.00,1.68
9914.00,1.67
9913.00,1.67
9912.00,1.67
9911.00,1.67
9910.00,1.67
9909.00,1.67
9908.00,1.67
9907.00,1.67
9906.00,1.67
9905.00,1.67
9904.00,1.67
9903.00,1.67
9902.00,1.67
9901.00,1.68
9900.00,1.68
9899.00,1.68
9898.00,1.68
9897.00,1.68
9896.00,1.68
9895.00,1.68
9894.00,1.68
9893.00,1.68
9892.00,1.68
9891.00,1.68
9890.00,1.69
9889.00,1.69
9888.00,1.69
9887.00,1.69
9886.00,1.69
9885.00,1.69
9884.00,1.69
9883.00,1.69
9882.00,1.70
9881.00,1.69
9880.00,1.69
9879.00,1.69
9878.00,1.69
9877.00,1.69
9876.00,1.69
9875.00,1.68
9874.00,1.68
9873.00,1.68
9872.00,1.68
9871.00,1.67
9870.00,1.67
9869.00,1.67
9868.00,1.67
9867.00,1.67
9866.00,1.66
9865.00,1.66
9864.00,1.66
9863.00,1.66
9862.00,1.66
9861.00,1.67
9860.00,1.67
9859.00,1.67
9858.00,1.67
9857.00,1.67
9856.00,1.67
9855.00,1.67
9854.00,1.67
9853.00,1.67
9852.00,1.67
9851.00,1.67
9850.00,1.67
9849.00,1.67
9848.00,1.67
9847.00,1.67
9846.00,1.67
9845.00,1.67
9844.00,1.67
9843.00,1.67
9842.00,1.67
9841.00,1.66
9840.00,1.66
9839.00,1.66
9838.00,1.66
9837.00,1.66
9836.00,1.66
9835.00,1.66
9834.00,1.66
9833.00,1.66
9832.00,1.66
9831.00,1.66
9830.00,1.67
9829.00,1.67
9828.00,1.67
9827.00,1.67
9826.00,1.68
9825.00,1.68
9824.00,1.68
9823.00,1.68
9822.00,1.69
9821.00,1.69
9820.00,1.69
9819.00,1.69
9818.00,1.70
9817.00,1.70
9816.00,1.70
9815.00,1.70
9814.00,1.70
9813.00,1.70
9812.00,1.70
9811.00,1.70
9810.00,1.70
9809.00,1.70
9808.00,1.69
9807.00,1.69
9806.00,1.69
9805.00,1.69
9804.00,1.69
9803.00,1.69
9802.00,1.69
9801.00,1.69
9800.00,1.68
9799.00,1.68
9798.00,1.68
9797.00,1.68
9796.00,1.68
9795.00,1.67
9794.00,1.67
9793.00,1.67
9792.00,1.67
9791.00,1.67
9790.00,1.67
9789.00,1.67
9788.00,1.67
9787.00,1.67
9786.00,1.67
9785.00,1.67
9784.00,1.67
9783.00,1.67
9782.00,1.67
9781.00,1.67
9780.00,1.67
9779.00,1.67
9778.00,1.67
9777.00,1.67
9776.00,1.67
9775.00,1.67
9774.00,1.66
9773.00,1.66
9772.00,1.66
9771.00,1.66
9770.00,1.66
9769.00,1.66
9768.00,1.66
9767.00,1.66
9766.00,1.66
9765.00,1.67
9764.00,1.67
9763.00,1.67
9762.00,1.67
9761.00,1.67
9760.00,1.67
9759.00,1.68
9758.00,1.68
9757.00,1.68
9756.00,1.68
9755.00,1.68
9754.00,1.68
9753.00,1.68
9752.00,1.67
9751.00,1.67
9750.00,1.67
9749.00,1.67
9748.00,1.67
9747.00,1.66
9746.00,1.66
9745.00,1.66
9744.00,1.66
9743.00,1.66
9742.00,1.66
9741.00,1.66
9740.00,1.66
9739.00,1.67
9738.00,1.67
9737.00,1.67
9736.00,1.67
9735.00,1.67
9734.00,1.67
9733.00,1.68
9732.00,1.68
9731.00,1.68
9730.00,1.68
9729.00,1.68
9728.00,1.67
9727.00,1.67
9726.00,1.67
9725.00,1.67
9724.00,1.66
9723.00,1.66
9722.00,1.66
9721.00,1.65
9720.00,1.65
9719.00,1.64
9718.00,1.64
9717.00,1.64
9716.00,1.64
9715.00,1.63
9714.00,1.63
9713.00,1.63
9712.00,1.63
9711.00,1.63
9710.00,1.63
9709.00,1.63
9708.00,1.63
9707.00,1.63
9706.00,1.63
9705.00,1.63
9704.00,1.63
9703.00,1.63
9702.00,1.63
9701.00,1.63
9700.00,1.63
9699.00,1.63
9698.00,1.63
9697.00,1.63
9696.00,1.63
9695.00,1.63
9694.00,1.64
9693.00,1.64
9692.00,1.64
9691.00,1.64
9690.00,1.64
9689.00,1.64
9688.00,1.65
9687.00,1.65
9686.00,1.65
9685.00,1.65
9684.00,1.66
9683.00,1.66
9682.00,1.66
9681.00,1.66
9680.00,1.67
9679.00,1.67
9678.00,1.67
9677.00,1.68
9676.00,1.68
9675.00,1.68
9674.00,1.68
9673.00,1.68
9672.00,1.69
9671.00,1.69
9670.00,1.69
9669.00,1.69
9668.00,1.69
9667.00,1.69
9666.00,1.69
9665.00,1.69
9664.00,1.68
9663.00,1.68
9662.00,1.68
9661.00,1.68
9660.00,1.68
9659.00,1.68
9658.00,1.68
9657.00,1.68
9656.00,1.68
9655.00,1.68
9654.00,1.68
9653.00,1.68
9652.00,1.68
9651.00,1.69
9650.00,1.69
9649.00,1.69
9648.00,1.69
9647.00,1.69
9646.00,1.69
9645.00,1.69
9644.00,1.70
9643.00,1.70
9642.00,1.70
9641.00,1.70
9640.00,1.70
9639.00,1.70
9638.00,1.71
9637.00,1.71
9636.00,1.71
9635.00,1.71
9634.00,1.71
9633.00,1.71
9632.00,1.71
9631.00,1.70
9630.00,1.70
9629.00,1.70
9628.00,1.70
9627.00,1.69
9626.00,1.69
9625.00,1.68
9624.00,1.68
9623.00,1.68
9622.00,1.67
9621.00,1.67
9620.00,1.66
9619.00,1.66
9618.00,1.65
9617.00,1.65
9616.00,1.65
9615.00,1.65
9614.00,1.65
9613.00,1.65
9612.00,1.65
9611.00,1.65
9610.00,1.65
9609.00,1.65
9608.00,1.65
9607.00,1.66
9606.00,1.66
9605.00,1.66
9604.00,1.66
9603.00,1.67
9602.00,1.67
9601.00,1.67
9600.00,1.68
9599.00,1.68
9598.00,1.68
9597.00,1.68
9596.00,1.69
9595.00,1.69
9594.00,1.69
9593.00,1.69
9592.00,1.69
9591.00,1.69
9590.00,1.69
9589.00,1.69
9588.00,1.69
9587.00,1.69
9586.00,1.69
9585.00,1.69
9584.00,1.69
9583.00,1.69
9582.00,1.69
9581.00,1.69
9580.00,1.69
9579.00,1.69
9578.00,1.69
9577.00,1.69
9576.00,1.69
9575.00,1.68
9574.00,1.68
9573.00,1.68
9572.00,1.68
9571.00,1.68
9570.00,1.68
9569.00,1.68
9568.00,1.68
9567.00,1.68
9566.00,1.67
9565.00,1.67
9564.00,1.67
9563.00,1.67
9562.00,1.66
9561.00,1.66
9560.00,1.66
9559.00,1.66
9558.00,1.65
9557.00,1.65
9556.00,1.65
9555.00,1.65
9554.00,1.65
9553.00,1.65
9552.00,1.65
9551.00,1.65
9550.00,1.65
9549.00,1.65
9548.00,1.65
9547.00,1.65
9546.00,1.65
9545.00,1.65
9544.00,1.65
9543.00,1.65
9542.00,1.65
9541.00,1.65
9540.00,1.65
9539.00,1.66
9538.00,1.66
9537.00,1.66
9536.00,1.66
9535.00,1.66
9534.00,1.66
9533.00,1.67
9532.00,1.67
9531.00,1.67
9530.00,1.67
9529.00,1.67
9528.00,1.67
9527.00,1.67
9526.00,1.67
9525.00,1.67
9524.00,1.67
9523.00,1.67
9522.00,1.67
9521.00,1.67
9520.00,1.67
9519.00,1.67
9518.00,1.66
9517.00,1.66
9516.00,1.66
9515.00,1.66
9514.00,1.66
9513.00,1.66
9512.00,1.66
9511.00,1.66
9510.00,1.66
9509.00,1.66
9508.00,1.66
9507.00,1.66
9506.00,1.66
9505.00,1.66
9504.00,1.66
9503.00,1.66
9502.00,1.66
9501.00,1.66
9500.00,1.66
9499.00,1.66
9498.00,1.66
9497.00,1.66
9496.00,1.66
9495.00,1.66
9494.00,1.66
9493.00,1.66
9492.00,1.66
9491.00,1.66
9490.00,1.66
9489.00,1.66
9488.00,1.66
9487.00,1.67
9486.00,1.67
9485.00,1.67
9484.00,1.67
9483.00,1.68
9482.00,1.68
9481.00,1.68
9480.00,1.68
9479.00,1.68
9478.00,1.68
9477.00,1.68
9476.00,1.68
9475.00,1.68
9474.00,1.68
9473.00,1.68
9472.00,1.68
9471.00,1.68
9470.00,1.67
9469.00,1.67
9468.00,1.67
9467.00,1.67
9466.00,1.66
9465.00,1.66
9464.00,1.66
9463.00,1.66
9462.00,1.66
9461.00,1.66
9460.00,1.66
9459.00,1.66
9458.00,1.66
9457.00,1.66
9456.00,1.66
9455.00,1.66
9454.00,1.66
9453.00,1.66
9452.00,1.66
9451.00,1.66
9450.00,1.66
9449.00,1.66
9448.00,1.65
9447.00,1.65
9446.00,1.65
9445.00,1.65
9444.00,1.65
9443.00,1.65
9442.00,1.65
9441.00,1.65
9440.00,1.65
9439.00,1.65
9438.00,1.65
9437.00,1.65
9436.00,1.65
9435.00,1.65
9434.00,1.65
9433.00,1.65
9432.00,1.65
9431.00,1.65
9430.00,1.65
9429.00,1.65
9428.00,1.65
9427.00,1.65
9426.00,1.65
9425.00,1.65
9424.00,1.65
9423.00,1.65
9422.00,1.65
9421.00,1.65
9420.00,1.65
9419.00,1.65
9418.00,1.65
9417.00,1.65
9416.00,1.65
9415.00,1.65
9414.00,1.65
9413.00,1.65
9412.00,1.65
9411.00,1.65
9410.00,1.65
9409.00,1.65
9408.00,1.65
9407.00,1.65
9406.00,1.66
9405.00,1.66
9404.00,1.66
9403.00,1.66
9402.00,1.66
9401.00,1.66
9400.00,1.66
9399.00,1.66
9398.00,1.66
9397.00,1.66
9396.00,1.67
9395.00,1.67
9394.00,1.67
9393.00,1.67
9392.00,1.67
9391.00,1.67
9390.00,1.67
9389.00,1.67
9388.00,1.67
9387.00,1.67
9386.00,1.67
9385.00,1.67
9384.00,1.67
9383.00,1.67
9382.00,1.67
9381.00,1.67
9380.00,1.67
9379.00,1.67
9378.00,1.67
9377.00,1.67
9376.00,1.67
9375.00,1.67
9374.00,1.67
9373.00,1.67
9372.00,1.67
9371.00,1.67
9370.00,1.67
9369.00,1.67
9368.00,1.67
9367.00,1.68
9366.00,1.68
9365.00,1.68
9364.00,1.68
9363.00,1.68
9362.00,1.68
9361.00,1.68
9360.00,1.68
9359.00,1.68
9358.00,1.68
9357.00,1.67
9356.00,1.67
9355.00,1.67
9354.00,1.67
9353.00,1.66
9352.00,1.66
9351.00,1.66
9350.00,1.66
9349.00,1.66
9348.00,1.66
9347.00,1.66
9346.00,1.66
9345.00,1.66
9344.00,1.66
9343.00,1.66
9342.00,1.66
9341.00,1.66
9340.00,1.66
9339.00,1.67
9338.00,1.67
9337.00,1.67
9336.00,1.67
9335.00,1.67
9334.00,1.68
9333.00,1.68
9332.00,1.68
9331.00,1.68
9330.00,1.68
9329.00,1.68
9328.00,1.68
9327.00,1.68
9326.00,1.68
9325.00,1.68
9324.00,1.68
9323.00,1.68
9322.00,1.68
9321.00,1.68
9320.00,1.67
9319.00,1.67
9318.00,1.67
9317.00,1.67
9316.00,1.67
9315.00,1.67
9314.00,1.66
9313.00,1.66
9312.00,1.66
9311.00,1.66
9310.00,1.66
9309.00,1.66
9308.00,1.66
9307.00,1.67
9306.00,1.67
9305.00,1.67
9304.00,1.67
9303.00,1.67
9302.00,1.67
9301.00,1.67
9300.00,1.68
9299.00,1.68
9298.00,1.68
9297.00,1.68
9296.00,1.68
9295.00,1.68
9294.00,1.68
9293.00,1.69
9292.00,1.69
9291.00,1.69
9290.00,1.69
9289.00,1.69
9288.00,1.69
9287.00,1.70
9286.00,1.70
9285.00,1.70
9284.00,1.70
9283.00,1.70
9282.00,1.70
9281.00,1.71
9280.00,1.71
9279.00,1.71
9278.00,1.71
9277.00,1.71
9276.00,1.71
9275.00,1.71
9274.00,1.71
9273.00,1.71
9272.00,1.71
9271.00,1.70
9270.00,1.70
9269.00,1.70
9268.00,1.70
9267.00,1.70
9266.00,1.70
9265.00,1.70
9264.00,1.69
9263.00,1.69
9262.00,1.69
9261.00,1.69
9260.00,1.69
9259.00,1.69
9258.00,1.69
9257.00,1.68
9256.00,1.68
9255.00,1.68
9254.00,1.68
9253.00,1.68
9252.00,1.68
9251.00,1.67
9250.00,1.67
9249.00,1.67
9248.00,1.67
9247.00,1.66
9246.00,1.66
9245.00,1.66
9244.00,1.66
9243.00,1.66
9242.00,1.66
9241.00,1.65
9240.00,1.65
9239.00,1.65
9238.00,1.65
9237.00,1.65
9236.00,1.65
9235.00,1.65
9234.00,1.65
9233.00,1.65
9232.00,1.65
9231.00,1.65
9230.00,1.65
9229.00,1.65
9228.00,1.65
9227.00,1.65
9226.00,1.66
9225.00,1.66
9224.00,1.66
9223.00,1.66
9222.00,1.66
9221.00,1.66
9220.00,1.67
9219.00,1.67
9218.00,1.67
9217.00,1.67
9216.00,1.67
9215.00,1.67
9214.00,1.67
9213.00,1.67
9212.00,1.67
9211.00,1.67
9210.00,1.67
9209.00,1.67
9208.00,1.67
9207.00,1.67
9206.00,1.67
9205.00,1.67
9204.00,1.66
9203.00,1.66
9202.00,1.66
9201.00,1.66
9200.00,1.66
9199.00,1.66
9198.00,1.66
9197.00,1.66
9196.00,1.66
9195.00,1.66
9194.00,1.67
9193.00,1.67
9192.00,1.67
9191.00,1.67
9190.00,1.67
9189.00,1.68
9188.00,1.68
9187.00,1.68
9186.00,1.68
9185.00,1.68
9184.00,1.69
9183.00,1.69
9182.00,1.69
9181.00,1.69
9180.00,1.69
9179.00,1.69
9178.00,1.69
9177.00,1.69
9176.00,1.69
9175.00,1.69
9174.00,1.69
9173.00,1.69
9172.00,1.69
9171.00,1.69
9170.00,1.68
9169.00,1.68
9168.00,1.68
9167.00,1.68
9166.00,1.68
9165.00,1.68
9164.00,1.68
9163.00,1.68
9162.00,1.68
9161.00,1.68
9160.00,1.68
9159.00,1.68
9158.00,1.68
9157.00,1.68
9156.00,1.68
9155.00,1.68
9154.00,1.68
9153.00,1.68
9152.00,1.68
9151.00,1.68
9150.00,1.68
9149.00,1.68
9148.00,1.68
9147.00,1.68
9146.00,1.68
9145.00,1.68
9144.00,1.68
9143.00,1.68
9142.00,1.68
9141.00,1.68
9140.00,1.68
9139.00,1.68
9138.00,1.68
9137.00,1.68
9136.00,1.68
9135.00,1.68
9134.00,1.68
9133.00,1.68
9132.00,1.68
9131.00,1.69
9130.00,1.69
9129.00,1.69
9128.00,1.69
9127.00,1.69
9126.00,1.69
9125.00,1.68
9124.00,1.68
9123.00,1.68
9122.00,1.68
9121.00,1.67
9120.00,1.67
9119.00,1.67
9118.00,1.66
9117.00,1.66
9116.00,1.66
9115.00,1.65
9114.00,1.65
9113.00,1.65
9112.00,1.65
9111.00,1.65
9110.00,1.64
9109.00,1.64
9108.00,1.64
9107.00,1.64
9106.00,1.64
9105.00,1.64
9104.00,1.64
9103.00,1.64
9102.00,1.64
9101.00,1.64
9100.00,1.65
9099.00,1.65
9098.00,1.65
9097.00,1.65
9096.00,1.65
9095.00,1.65
9094.00,1.66
9093.00,1.66
9092.00,1.66
9091.00,1.66
9090.00,1.66
9089.00,1.67
9088.00,1.67
9087.00,1.67
9086.00,1.67
9085.00,1.68
9084.00,1.68
9083.00,1.68
9082.00,1.68
9081.00,1.68
9080.00,1.68
9079.00,1.69
9078.00,1.69
9077.00,1.69
9076.00,1.69
9075.00,1.69
9074.00,1.69
9073.00,1.70
9072.00,1.70
9071.00,1.70
9070.00,1.70
9069.00,1.70
9068.00,1.70
9067.00,1.70
9066.00,1.70
9065.00,1.70
9064.00,1.70
9063.00,1.70
9062.00,1.70
9061.00,1.70
9060.00,1.70
9059.00,1.70
9058.00,1.70
9057.00,1.70
9056.00,1.70
9055.00,1.70
9054.00,1.69
9053.00,1.69
9052.00,1.69
9051.00,1.69
9050.00,1.69
9049.00,1.68
9048.00,1.68
9047.00,1.68
9046.00,1.68
9045.00,1.68
9044.00,1.68
9043.00,1.68
9042.00,1.68
9041.00,1.68
9040.00,1.68
9039.00,1.68
9038.00,1.68
9037.00,1.68
9036.00,1.68
9035.00,1.68
9034.00,1.68
9033.00,1.68
9032.00,1.68
9031.00,1.68
9030.00,1.68
9029.00,1.69
9028.00,1.69
9027.00,1.69
9026.00,1.69
9025.00,1.69
9024.00,1.69
9023.00,1.69
9022.00,1.69
9021.00,1.68
9020.00,1.68
9019.00,1.68
9018.00,1.68
9017.00,1.68
9016.00,1.68
9015.00,1.68
9014.00,1.68
9013.00,1.68
9012.00,1.68
9011.00,1.68
9010.00,1.68
9009.00,1.68
9008.00,1.68
9007.00,1.68
9006.00,1.68
9005.00,1.67
9004.00,1.67
9003.00,1.67
9002.00,1.67
9001.00,1.67
9000.00,1.67
8999.00,1.67
8998.00,1.66
8997.00,1.66
8996.00,1.66
8995.00,1.66
8994.00,1.66
8993.00,1.66
8992.00,1.66
8991.00,1.66
8990.00,1.66
8989.00,1.66
8988.00,1.67
8987.00,1.67
8986.00,1.67
8985.00,1.67
8984.00,1.67
8983.00,1.67
8982.00,1.67
8981.00,1.68
8980.00,1.68
8979.00,1.68
8978.00,1.68
8977.00,1.68
8976.00,1.68
8975.00,1.68
8974.00,1.68
8973.00,1.68
8972.00,1.68
8971.00,1.68
8970.00,1.68
8969.00,1.68
8968.00,1.68
8967.00,1.68
8966.00,1.68
8965.00,1.68
8964.00,1.68
8963.00,1.68
8962.00,1.68
8961.00,1.68
8960.00,1.68
8959.00,1.68
8958.00,1.68
8957.00,1.67
8956.00,1.67
8955.00,1.67
8954.00,1.67
8953.00,1.67
8952.00,1.67
8951.00,1.67
8950.00,1.67
8949.00,1.67
8948.00,1.67
8947.00,1.67
8946.00,1.67
8945.00,1.67
8944.00,1.68
8943.00,1.68
8942.00,1.68
8941.00,1.68
8940.00,1.68
8939.00,1.69
8938.00,1.69
8937.00,1.69
8936.00,1.69
8935.00,1.69
8934.00,1.70
8933.00,1.70
8932.00,1.70
8931.00,1.70
8930.00,1.70
8929.00,1.70
8928.00,1.70
8927.00,1.70
8926.00,1.70
8925.00,1.70
8924.00,1.70
8923.00,1.70
8922.00,1.70
8921.00,1.70
8920.00,1.69
8919.00,1.69
8918.00,1.69
8917.00,1.69
8916.00,1.69
8915.00,1.69
8914.00,1.68
8913.00,1.68
8912.00,1.68
8911.00,1.68
8910.00,1.68
8909.00,1.68
8908.00,1.68
8907.00,1.68
8906.00,1.67
8905.00,1.67
8904.00,1.67
8903.00,1.67
8902.00,1.68
8901.00,1.68
8900.00,1.68
8899.00,1.68
8898.00,1.68
8897.00,1.68
8896.00,1.69
8895.00,1.69
8894.00,1.69
8893.00,1.69
8892.00,1.70
8891.00,1.70
8890.00,1.70
8889.00,1.70
8888.00,1.70
8887.00,1.71
8886.00,1.71
8885.00,1.71
8884.00,1.71
8883.00,1.71
8882.00,1.70
8881.00,1.70
8880.00,1.70
8879.00,1.70
8878.00,1.69
8877.00,1.69
8876.00,1.69
8875.00,1.68
8874.00,1.68
8873.00,1.68
8872.00,1.68
8871.00,1.67
8870.00,1.67
8869.00,1.67
8868.00,1.67
8867.00,1.67
8866.00,1.67
8865.00,1.67
8864.00,1.67
8863.00,1.67
8862.00,1.67
8861.00,1.67
8860.00,1.67
8859.00,1.67
8858.00,1.67
8857.00,1.67
8856.00,1.67
8855.00,1.67
8854.00,1.67
8853.00,1.67
8852.00,1.67
8851.00,1.67
8850.00,1.67
8849.00,1.66
8848.00,1.66
8847.00,1.66
8846.00,1.66
8845.00,1.65
8844.00,1.65
8843.00,1.65
8842.00,1.65
8841.00,1.64
8840.00,1.64
8839.00,1.64
8838.00,1.64
8837.00,1.64
8836.00,1.64
8835.00,1.64
8834.00,1.64
8833.00,1.64
8832.00,1.64
8831.00,1.64
8830.00,1.64
8829.00,1.64
8828.00,1.64
8827.00,1.64
8826.00,1.64
8825.00,1.64
8824.00,1.65
8823.00,1.65
8822.00,1.65
8821.00,1.65
8820.00,1.65
8819.00,1.65
8818.00,1.65
8817.00,1.65
8816.00,1.65
8815.00,1.65
8814.00,1.65
8813.00,1.65
8812.00,1.65
8811.00,1.65
8810.00,1.65
8809.00,1.65
8808.00,1.65
8807.00,1.65
8806.00,1.65
8805.00,1.65
8804.00,1.64
8803.00,1.64
8802.00,1.64
8801.00,1.64
8800.00,1.64
8799.00,1.64
8798.00,1.64
8797.00,1.64
8796.00,1.63
8795.00,1.63
8794.00,1.63
8793.00,1.63
8792.00,1.63
8791.00,1.64
8790.00,1.64
8789.00,1.64
8788.00,1.64
8787.00,1.64
8786.00,1.64
8785.00,1.64
8784.00,1.64
8783.00,1.64
8782.00,1.63
8781.00,1.63
8780.00,1.63
8779.00,1.63
8778.00,1.63
8777.00,1.63
8776.00,1.63
8775.00,1.63
8774.00,1.63
8773.00,1.62
8772.00,1.62
8771.00,1.62
8770.00,1.62
8769.00,1.62
8768.00,1.62
8767.00,1.62
8766.00,1.62
8765.00,1.62
8764.00,1.62
8763.00,1.62
8762.00,1.62
8761.00,1.62
8760.00,1.62
8759.00,1.62
8758.00,1.62
8757.00,1.62
8756.00,1.62
8755.00,1.62
8754.00,1.62
8753.00,1.62
8752.00,1.62
8751.00,1.63
8750.00,1.63
8749.00,1.63
8748.00,1.63
8747.00,1.63
8746.00,1.63
8745.00,1.63
8744.00,1.63
8743.00,1.63
8742.00,1.63
8741.00,1.63
8740.00,1.63
8739.00,1.63
8738.00,1.62
8737.00,1.62
8736.00,1.62
8735.00,1.62
8734.00,1.62
8733.00,1.62
8732.00,1.62
8731.00,1.62
8730.00,1.62
8729.00,1.62
8728.00,1.61
8727.00,1.61
8726.00,1.61
8725.00,1.61
8724.00,1.61
8723.00,1.61
8722.00,1.61
8721.00,1.61
8720.00,1.61
8719.00,1.62
8718.00,1.62
8717.00,1.62
8716.00,1.62
8715.00,1.62
8714.00,1.62
8713.00,1.61
8712.00,1.61
8711.00,1.61
8710.00,1.61
8709.00,1.61
8708.00,1.61
8707.00,1.61
8706.00,1.61
8705.00,1.61
8704.00,1.61
8703.00,1.61
8702.00,1.61
8701.00,1.61
8700.00,1.61
8699.00,1.61
8698.00,1.60
8697.00,1.60
8696.00,1.60
8695.00,1.60
8694.00,1.60
8693.00,1.60
8692.00,1.60
8691.00,1.60
8690.00,1.60
8689.00,1.60
8688.00,1.60
8687.00,1.60
8686.00,1.60
8685.00,1.60
8684.00,1.60
8683.00,1.60
8682.00,1.60
8681.00,1.60
8680.00,1.60
8679.00,1.60
8678.00,1.60
8677.00,1.60
8676.00,1.60
8675.00,1.60
8674.00,1.60
8673.00,1.60
8672.00,1.60
8671.00,1.60
8670.00,1.60
8669.00,1.60
8668.00,1.60
8667.00,1.59
8666.00,1.59
8665.00,1.59
8664.00,1.59
8663.00,1.59
8662.00,1.58
8661.00,1.58
8660.00,1.58
8659.00,1.58
8658.00,1.58
8657.00,1.58
8656.00,1.58
8655.00,1.58
8654.00,1.58
8653.00,1.58
8652.00,1.58
8651.00,1.58
8650.00,1.58
8649.00,1.58
8648.00,1.58
8647.00,1.58
8646.00,1.58
8645.00,1.58
8644.00,1.58
8643.00,1.58
8642.00,1.58
8641.00,1.58
8640.00,1.58
8639.00,1.58
8638.00,1.58
8637.00,1.58
8636.00,1.58
8635.00,1.58
8634.00,1.58
8633.00,1.58
8632.00,1.58
8631.00,1.57
8630.00,1.57
8629.00,1.57
8628.00,1.57
8627.00,1.57
8626.00,1.57
8625.00,1.56
8624.00,1.56
8623.00,1.56
8622.00,1.56
8621.00,1.56
8620.00,1.56
8619.00,1.56
8618.00,1.56
8617.00,1.56
8616.00,1.56
8615.00,1.56
8614.00,1.56
8613.00,1.56
8612.00,1.56
8611.00,1.56
8610.00,1.56
8609.00,1.56
8608.00,1.56
8607.00,1.56
8606.00,1.56
8605.00,1.56
8604.00,1.56
8603.00,1.56
8602.00,1.56
8601.00,1.56
8600.00,1.56
8599.00,1.56
8598.00,1.56
8597.00,1.56
8596.00,1.56
8595.00,1.56
8594.00,1.56
8593.00,1.56
8592.00,1.56
8591.00,1.56
8590.00,1.56
8589.00,1.56
8588.00,1.56
8587.00,1.56
8586.00,1.56
8585.00,1.56
8584.00,1.56
8583.00,1.56
8582.00,1.56
8581.00,1.56
8580.00,1.56
8579.00,1.55
8578.00,1.55
8577.00,1.55
8576.00,1.55
8575.00,1.55
8574.00,1.55
8573.00,1.55
8572.00,1.54
8571.00,1.54
8570.00,1.54
8569.00,1.54
8568.00,1.54
8567.00,1.54
8566.00,1.54
8565.00,1.54
8564.00,1.54
8563.00,1.54
8562.00,1.54
8561.00,1.54
8560.00,1.54
8559.00,1.54
8558.00,1.54
8557.00,1.54
8556.00,1.54
8555.00,1.54
8554.00,1.54
8553.00,1.54
8552.00,1.54
8551.00,1.54
8550.00,1.54
8549.00,1.54
8548.00,1.54
8547.00,1.54
8546.00,1.54
8545.00,1.54
8544.00,1.54
8543.00,1.54
8542.00,1.54
8541.00,1.54
8540.00,1.53
8539.00,1.53
8538.00,1.53
8537.00,1.53
8536.00,1.53
8535.00,1.53
8534.00,1.53
8533.00,1.53
8532.00,1.53
8531.00,1.53
8530.00,1.52
8529.00,1.52
8528.00,1.52
8527.00,1.52
8526.00,1.52
8525.00,1.52
8524.00,1.52
8523.00,1.52
8522.00,1.52
8521.00,1.51
8520.00,1.51
8519.00,1.51
8518.00,1.51
8517.00,1.50
8516.00,1.50
8515.00,1.50
8514.00,1.50
8513.00,1.49
8512.00,1.49
8511.00,1.49
8510.00,1.49
8509.00,1.49
8508.00,1.49
8507.00,1.49
8506.00,1.48
8505.00,1.48
8504.00,1.48
8503.00,1.48
8502.00,1.48
8501.00,1.48
8500.00,1.48
8499.00,1.48
8498.00,1.48
8497.00,1.48
8496.00,1.48
8495.00,1.48
8494.00,1.48
8493.00,1.48
8492.00,1.48
8491.00,1.48
8490.00,1.48
8489.00,1.48
8488.00,1.48
8487.00,1.48
8486.00,1.48
8485.00,1.48
8484.00,1.48
8483.00,1.48
8482.00,1.48
8481.00,1.48
8480.00,1.48
8479.00,1.48
8478.00,1.48
8477.00,1.48
8476.00,1.48
8475.00,1.48
8474.00,1.48
8473.00,1.48
8472.00,1.48
8471.00,1.48
8470.00,1.48
8469.00,1.48
8468.00,1.48
8467.00,1.48
8466.00,1.48
8465.00,1.48
8464.00,1.48
8463.00,1.48
8462.00,1.48
8461.00,1.48
8460.00,1.48
8459.00,1.48
8458.00,1.47
8457.00,1.47
8456.00,1.47
8455.00,1.47
8454.00,1.47
8453.00,1.46
8452.00,1.46
8451.00,1.46
8450.00,1.46
8449.00,1.45
8448.00,1.45
8447.00,1.45
8446.00,1.45
8445.00,1.45
8444.00,1.45
8443.00,1.45
8442.00,1.45
8441.00,1.45
8440.00,1.45
8439.00,1.45
8438.00,1.45
8437.00,1.45
8436.00,1.45
8435.00,1.45
8434.00,1.45
8433.00,1.45
8432.00,1.45
8431.00,1.45
8430.00,1.45
8429.00,1.45
8428.00,1.45
8427.00,1.45
8426.00,1.45
8425.00,1.45
8424.00,1.45
8423.00,1.45
8422.00,1.45
8421.00,1.45
8420.00,1.45
8419.00,1.45
8418.00,1.45
8417.00,1.45
8416.00,1.45
8415.00,1.45
8414.00,1.45
8413.00,1.45
8412.00,1.46
8411.00,1.46
8410.00,1.46
8409.00,1.46
8408.00,1.46
8407.00,1.46
8406.00,1.47
8405.00,1.47
8404.00,1.47
8403.00,1.47
8402.00,1.47
8401.00,1.47
8400.00,1.48
8399.00,1.48
8398.00,1.48
8397.00,1.48
8396.00,1.48
8395.00,1.48
8394.00,1.48
8393.00,1.49
8392.00,1.49
8391.00,1.49
8390.00,1.49
8389.00,1.49
8388.00,1.49
8387.00,1.49
8386.00,1.49
8385.00,1.49
8384.00,1.50
8383.00,1.50
8382.00,1.50
8381.00,1.50
8380.00,1.50
8379.00,1.50
8378.00,1.50
8377.00,1.50
8376.00,1.50
8375.00,1.50
8374.00,1.50
8373.00,1.50
8372.00,1.50
8371.00,1.50
8370.00,1.50
8369.00,1.51
8368.00,1.51
8367.00,1.51
8366.00,1.51
8365.00,1.51
8364.00,1.51
8363.00,1.51
8362.00,1.51
8361.00,1.51
8360.00,1.51
8359.00,1.51
8358.00,1.51
8357.00,1.51
8356.00,1.51
8355.00,1.52
8354.00,1.52
8353.00,1.52
8352.00,1.52
8351.00,1.52
8350.00,1.52
8349.00,1.53
8348.00,1.53
8347.00,1.53
8346.00,1.53
8345.00,1.53
8344.00,1.53
8343.00,1.54
8342.00,1.54
8341.00,1.54
8340.00,1.54
8339.00,1.54
8338.00,1.54
8337.00,1.54
8336.00,1.54
8335.00,1.54
8334.00,1.54
8333.00,1.54
8332.00,1.54
8331.00,1.53
8330.00,1.53
8329.00,1.53
8328.00,1.53
8327.00,1.53
8326.00,1.53
8325.00,1.53
8324.00,1.53
8323.00,1.53
8322.00,1.52
8321.00,1.52
8320.00,1.52
8319.00,1.52
8318.00,1.52
8317.00,1.52
8316.00,1.52
8315.00,1.51
8314.00,1.51
8313.00,1.51
8312.00,1.51
8311.00,1.51
8310.00,1.51
8309.00,1.51
8308.00,1.51
8307.00,1.51
8306.00,1.52
8305.00,1.52
8304.00,1.52
8303.00,1.52
8302.00,1.52
8301.00,1.52
8300.00,1.53
8299.00,1.53
8298.00,1.53
8297.00,1.53
8296.00,1.53
8295.00,1.53
8294.00,1.53
8293.00,1.54
8292.00,1.54
8291.00,1.54
8290.00,1.54
8289.00,1.54
8288.00,1.53
8287.00,1.53
8286.00,1.53
8285.00,1.53
8284.00,1.53
8283.00,1.53
8282.00,1.53
8281.00,1.53
8280.00,1.53
8279.00,1.53
8278.00,1.53
8277.00,1.53
8276.00,1.53
8275.00,1.53
8274.00,1.53
8273.00,1.53
8272.00,1.53
8271.00,1.53
8270.00,1.53
8269.00,1.53
8268.00,1.53
8267.00,1.53
8266.00,1.54
8265.00,1.54
8264.00,1.54
8263.00,1.54
8262.00,1.54
8261.00,1.54
8260.00,1.54
8259.00,1.54
8258.00,1.54
8257.00,1.54
8256.00,1.54
8255.00,1.54
8254.00,1.54
8253.00,1.54
8252.00,1.54
8251.00,1.54
8250.00,1.54
8249.00,1.54
8248.00,1.54
8247.00,1.54
8246.00,1.54
8245.00,1.54
8244.00,1.54
8243.00,1.54
8242.00,1.54
8241.00,1.54
8240.00,1.53
8239.00,1.53
8238.00,1.53
8237.00,1.53
8236.00,1.53
8235.00,1.53
8234.00,1.53
8233.00,1.53
8232.00,1.53
8231.00,1.53
8230.00,1.53
8229.00,1.53
8228.00,1.53
8227.00,1.53
8226.00,1.54
8225.00,1.54
8224.00,1.54
8223.00,1.54
8222.00,1.54
8221.00,1.55
8220.00,1.55
8219.00,1.55
8218.00,1.55
8217.00,1.55
8216.00,1.56
8215.00,1.56
8214.00,1.56
8213.00,1.56
8212.00,1.56
8211.00,1.56
8210.00,1.56
8209.00,1.56
8208.00,1.56
8207.00,1.56
8206.00,1.56
8205.00,1.56
8204.00,1.56
8203.00,1.56
8202.00,1.56
8201.00,1.56
8200.00,1.56
8199.00,1.56
8198.00,1.56
8197.00,1.56
8196.00,1.56
8195.00,1.56
8194.00,1.56
8193.00,1.56
8192.00,1.56
8191.00,1.56
8190.00,1.56
8189.00,1.56
8188.00,1.56
8187.00,1.56
8186.00,1.56
8185.00,1.57
8184.00,1.57
8183.00,1.57
8182.00,1.57
8181.00,1.57
8180.00,1.58
8179.00,1.58
8178.00,1.58
8177.00,1.58
8176.00,1.58
8175.00,1.58
8174.00,1.58
8173.00,1.59
8172.00,1.59
8171.00,1.59
8170.00,1.59
8169.00,1.59
8168.00,1.59
8167.00,1.59
8166.00,1.59
8165.00,1.59
8164.00,1.59
8163.00,1.59
8162.00,1.59
8161.00,1.59
8160.00,1.58
8159.00,1.58
8158.00,1.58
8157.00,1.58
8156.00,1.58
8155.00,1.58
8154.00,1.58
8153.00,1.58
8152.00,1.58
8151.00,1.58
8150.00,1.58
8149.00,1.58
8148.00,1.58
8147.00,1.58
8146.00,1.59
8145.00,1.59
8144.00,1.59
8143.00,1.59
8142.00,1.59
8141.00,1.59
8140.00,1.59
8139.00,1.60
8138.00,1.60
8137.00,1.60
8136.00,1.60
8135.00,1.60
8134.00,1.60
8133.00,1.61
8132.00,1.61
8131.00,1.61
8130.00,1.61
8129.00,1.61
8128.00,1.61
8127.00,1.61
8126.00,1.61
8125.00,1.61
8124.00,1.61
8123.00,1.61
8122.00,1.61
8121.00,1.61
8120.00,1.62
8119.00,1.62
8118.00,1.62
8117.00,1.62
8116.00,1.62
8115.00,1.62
8114.00,1.62
8113.00,1.61
8112.00,1.61
8111.00,1.61
8110.00,1.61
8109.00,1.62
8108.00,1.62
8107.00,1.62
8106.00,1.62
8105.00,1.62
8104.00,1.62
8103.00,1.62
8102.00,1.62
8101.00,1.62
8100.00,1.62
8099.00,1.62
8098.00,1.62
8097.00,1.62
8096.00,1.62
8095.00,1.62
8094.00,1.62
8093.00,1.62
8092.00,1.62
8091.00,1.62
8090.00,1.62
8089.00,1.62
8088.00,1.62
8087.00,1.62
8086.00,1.62
8085.00,1.62
8084.00,1.62
8083.00,1.62
8082.00,1.62
8081.00,1.63
8080.00,1.63
8079.00,1.63
8078.00,1.63
8077.00,1.63
8076.00,1.63
8075.00,1.63
8074.00,1.64
8073.00,1.64
8072.00,1.64
8071.00,1.64
8070.00,1.64
8069.00,1.64
8068.00,1.63
8067.00,1.63
8066.00,1.63
8065.00,1.63
8064.00,1.63
8063.00,1.63
8062.00,1.63
8061.00,1.63
8060.00,1.63
8059.00,1.63
8058.00,1.62
8057.00,1.62
8056.00,1.62
8055.00,1.62
8054.00,1.62
8053.00,1.62
8052.00,1.62
8051.00,1.62
8050.00,1.62
8049.00,1.62
8048.00,1.62
8047.00,1.62
8046.00,1.62
8045.00,1.62
8044.00,1.62
8043.00,1.62
8042.00,1.62
8041.00,1.62
8040.00,1.62
8039.00,1.62
8038.00,1.62
8037.00,1.62
8036.00,1.62
8035.00,1.62
8034.00,1.62
8033.00,1.63
8032.00,1.63
8031.00,1.63
8030.00,1.63
8029.00,1.63
8028.00,1.63
8027.00,1.63
8026.00,1.63
8025.00,1.64
8024.00,1.64
8023.00,1.64
8022.00,1.64
8021.00,1.64
8020.00,1.64
8019.00,1.65
8018.00,1.65
8017.00,1.65
8016.00,1.65
8015.00,1.65
8014.00,1.65
8013.00,1.65
8012.00,1.65
8011.00,1.65
8010.00,1.65
8009.00,1.65
8008.00,1.65
8007.00,1.65
8006.00,1.66
8005.00,1.66
8004.00,1.66
8003.00,1.66
8002.00,1.66
8001.00,1.66
8000.00,1.66
7999.00,1.66
7998.00,1.66
7997.00,1.66
7996.00,1.66
7995.00,1.66
7994.00,1.66
7993.00,1.66
7992.00,1.66
7991.00,1.66
7990.00,1.66
7989.00,1.66
7988.00,1.66
7987.00,1.66
7986.00,1.66
7985.00,1.66
7984.00,1.66
7983.00,1.66
7982.00,1.66
7981.00,1.66
7980.00,1.66
7979.00,1.66
7978.00,1.66
7977.00,1.66
7976.00,1.66
7975.00,1.66
7974.00,1.66
7973.00,1.66
7972.00,1.66
7971.00,1.66
7970.00,1.66
7969.00,1.66
7968.00,1.66
7967.00,1.66
7966.00,1.66
7965.00,1.66
7964.00,1.66
7963.00,1.66
7962.00,1.66
7961.00,1.66
7960.00,1.66
7959.00,1.66
7958.00,1.66
7957.00,1.66
7956.00,1.66
7955.00,1.66
7954.00,1.66
7953.00,1.66
7952.00,1.66
7951.00,1.66
7950.00,1.66
7949.00,1.65
7948.00,1.65
7947.00,1.65
7946.00,1.65
7945.00,1.65
7944.00,1.65
7943.00,1.65
7942.00,1.66
7941.00,1.66
7940.00,1.66
7939.00,1.66
7938.00,1.66
7937.00,1.66
7936.00,1.66
7935.00,1.66
7934.00,1.66
7933.00,1.66
7932.00,1.66
7931.00,1.66
7930.00,1.66
7929.00,1.66
7928.00,1.66
7927.00,1.66
7926.00,1.66
7925.00,1.66
7924.00,1.66
7923.00,1.66
7922.00,1.66
7921.00,1.66
7920.00,1.65
7919.00,1.65
7918.00,1.65
7917.00,1.66
7916.00,1.66
7915.00,1.66
7914.00,1.66
7913.00,1.66
7912.00,1.66
7911.00,1.66
7910.00,1.66
7909.00,1.67
7908.00,1.67
7907.00,1.67
7906.00,1.67
7905.00,1.67
7904.00,1.67
7903.00,1.68
7902.00,1.68
7901.00,1.68
7900.00,1.68
7899.00,1.68
7898.00,1.68
7897.00,1.68
7896.00,1.68
7895.00,1.68
7894.00,1.68
7893.00,1.68
7892.00,1.68
7891.00,1.68
7890.00,1.68
7889.00,1.68
7888.00,1.68
7887.00,1.68
7886.00,1.68
7885.00,1.68
7884.00,1.68
7883.00,1.68
7882.00,1.67
7881.00,1.67
7880.00,1.67
7879.00,1.67
7878.00,1.67
7877.00,1.67
7876.00,1.67
7875.00,1.67
7874.00,1.67
7873.00,1.67
7872.00,1.67
7871.00,1.67
7870.00,1.67
7869.00,1.67
7868.00,1.67
7867.00,1.67
7866.00,1.67
7865.00,1.67
7864.00,1.66
7863.00,1.66
7862.00,1.66
7861.00,1.66
7860.00,1.66
7859.00,1.66
7858.00,1.66
7857.00,1.66
7856.00,1.66
7855.00,1.66
7854.00,1.66
7853.00,1.66
7852.00,1.66
7851.00,1.66
7850.00,1.66
7849.00,1.66
7848.00,1.67
7847.00,1.67
7846.00,1.67
7845.00,1.67
7844.00,1.67
7843.00,1.67
7842.00,1.67
7841.00,1.68
7840.00,1.68
7839.00,1.68
7838.00,1.68
7837.00,1.68
7836.00,1.68
7835.00,1.68
7834.00,1.68
7833.00,1.68
7832.00,1.68
7831.00,1.68
7830.00,1.68
7829.00,1.68
7828.00,1.68
7827.00,1.68
7826.00,1.68
7825.00,1.68
7824.00,1.68
7823.00,1.68
7822.00,1.68
7821.00,1.68
7820.00,1.68
7819.00,1.68
7818.00,1.68
7817.00,1.68
7816.00,1.68
7815.00,1.68
7814.00,1.68
7813.00,1.68
7812.00,1.68
7811.00,1.68
7810.00,1.68
7809.00,1.68
7808.00,1.69
7807.00,1.69
7806.00,1.69
7805.00,1.69
7804.00,1.69
7803.00,1.69
7802.00,1.69
7801.00,1.69
7800.00,1.69
7799.00,1.69
7798.00,1.69
7797.00,1.70
7796.00,1.70
7795.00,1.70
7794.00,1.70
7793.00,1.70
7792.00,1.70
7791.00,1.70
7790.00,1.69
7789.00,1.69
7788.00,1.69
7787.00,1.69
7786.00,1.69
7785.00,1.69
7784.00,1.69
7783.00,1.69
7782.00,1.69
7781.00,1.68
7780.00,1.68
7779.00,1.68
7778.00,1.68
7777.00,1.68
7776.00,1.68
7775.00,1.68
7774.00,1.68
7773.00,1.68
7772.00,1.68
7771.00,1.68
7770.00,1.68
7769.00,1.68
7768.00,1.68
7767.00,1.68
7766.00,1.68
7765.00,1.68
7764.00,1.68
7763.00,1.68
7762.00,1.68
7761.00,1.68
7760.00,1.68
7759.00,1.68
7758.00,1.68
7757.00,1.68
7756.00,1.69
7755.00,1.69
7754.00,1.69
7753.00,1.69
7752.00,1.69
7751.00,1.69
7750.00,1.69
7749.00,1.69
7748.00,1.69
7747.00,1.69
7746.00,1.69
7745.00,1.69
7744.00,1.69
7743.00,1.69
7742.00,1.69
7741.00,1.69
7740.00,1.69
7739.00,1.69
7738.00,1.69
7737.00,1.69
7736.00,1.69
7735.00,1.68
7734.00,1.68
7733.00,1.68
7732.00,1.68
7731.00,1.68
7730.00,1.68
7729.00,1.68
7728.00,1.68
7727.00,1.68
7726.00,1.68
7725.00,1.68
7724.00,1.68
7723.00,1.68
7722.00,1.68
7721.00,1.69
7720.00,1.69
7719.00,1.69
7718.00,1.69
7717.00,1.69
7716.00,1.69
7715.00,1.69
7714.00,1.70
7713.00,1.70
7712.00,1.70
7711.00,1.70
7710.00,1.70
7709.00,1.70
7708.00,1.70
7707.00,1.70
7706.00,1.70
7705.00,1.70
7704.00,1.70
7703.00,1.70
7702.00,1.70
7701.00,1.70
7700.00,1.70
7699.00,1.70
7698.00,1.70
7697.00,1.70
7696.00,1.70
7695.00,1.70
7694.00,1.70
7693.00,1.70
7692.00,1.70
7691.00,1.70
7690.00,1.70
7689.00,1.70
7688.00,1.70
7687.00,1.70
7686.00,1.70
7685.00,1.70
7684.00,1.69
7683.00,1.69
7682.00,1.69
7681.00,1.69
7680.00,1.69
7679.00,1.69
7678.00,1.69
7677.00,1.69
7676.00,1.69
7675.00,1.69
7674.00,1.70
7673.00,1.70
7672.00,1.70
7671.00,1.70
7670.00,1.70
7669.00,1.70
7668.00,1.70
7667.00,1.70
7666.00,1.71
7665.00,1.71
7664.00,1.71
7663.00,1.71
7662.00,1.71
7661.00,1.71
7660.00,1.71
7659.00,1.71
7658.00,1.71
7657.00,1.71
7656.00,1.71
7655.00,1.70
7654.00,1.70
7653.00,1.70
7652.00,1.70
7651.00,1.70
7650.00,1.70
7649.00,1.70
7648.00,1.70
7647.00,1.69
7646.00,1.69
7645.00,1.69
7644.00,1.69
7643.00,1.69
7642.00,1.69
7641.00,1.69
7640.00,1.69
7639.00,1.69
7638.00,1.69
7637.00,1.69
7636.00,1.69
7635.00,1.69
7634.00,1.69
7633.00,1.69
7632.00,1.69
7631.00,1.69
7630.00,1.70
7629.00,1.70
7628.00,1.70
7627.00,1.70
7626.00,1.70
7625.00,1.70
7624.00,1.70
7623.00,1.70
7622.00,1.70
7621.00,1.70
7620.00,1.70
7619.00,1.70
7618.00,1.70
7617.00,1.70
7616.00,1.70
7615.00,1.70
7614.00,1.70
7613.00,1.70
7612.00,1.70
7611.00,1.70
7610.00,1.70
7609.00,1.70
7608.00,1.70
7607.00,1.70
7606.00,1.70
7605.00,1.70
7604.00,1.70
7603.00,1.70
7602.00,1.70
7601.00,1.70
7600.00,1.70
7599.00,1.70
7598.00,1.70
7597.00,1.70
7596.00,1.70
7595.00,1.70
7594.00,1.70
7593.00,1.69
7592.00,1.69
7591.00,1.69
7590.00,1.69
7589.00,1.69
7588.00,1.69
7587.00,1.69
7586.00,1.69
7585.00,1.69
7584.00,1.69
7583.00,1.69
7582.00,1.69
7581.00,1.69
7580.00,1.69
7579.00,1.69
7578.00,1.69
7577.00,1.69
7576.00,1.69
7575.00,1.69
7574.00,1.69
7573.00,1.69
7572.00,1.69
7571.00,1.69
7570.00,1.69
7569.00,1.69
7568.00,1.69
7567.00,1.69
7566.00,1.69
7565.00,1.69
7564.00,1.69
7563.00,1.69
7562.00,1.69
7561.00,1.69
7560.00,1.69
7559.00,1.69
7558.00,1.69
7557.00,1.69
7556.00,1.69
7555.00,1.70
7554.00,1.70
7553.00,1.70
7552.00,1.70
7551.00,1.70
7550.00,1.70
7549.00,1.71
7548.00,1.71
7547.00,1.71
7546.00,1.71
7545.00,1.71
7544.00,1.71
7543.00,1.71
7542.00,1.71
7541.00,1.71
7540.00,1.71
7539.00,1.71
7538.00,1.71
7537.00,1.71
7536.00,1.70
7535.00,1.70
7534.00,1.70
7533.00,1.70
7532.00,1.70
7531.00,1.70
7530.00,1.70
7529.00,1.70
7528.00,1.70
7527.00,1.70
7526.00,1.69
7525.00,1.69
7524.00,1.69
7523.00,1.69
7522.00,1.69
7521.00,1.69
7520.00,1.69
7519.00,1.68
7518.00,1.68
7517.00,1.68
7516.00,1.68
7515.00,1.68
7514.00,1.68
7513.00,1.68
7512.00,1.68
7511.00,1.68
7510.00,1.68
7509.00,1.68
7508.00,1.68
7507.00,1.68
7506.00,1.68
7505.00,1.68
7504.00,1.68
7503.00,1.68
7502.00,1.68
7501.00,1.68
7500.00,1.68
7499.00,1.68
7498.00,1.68
7497.00,1.68
7496.00,1.68
7495.00,1.68
7494.00,1.67
7493.00,1.67
7492.00,1.67
7491.00,1.67
7490.00,1.67
7489.00,1.67
7488.00,1.67
7487.00,1.67
7486.00,1.67
7485.00,1.67
7484.00,1.67
7483.00,1.67
7482.00,1.67
7481.00,1.67
7480.00,1.67
7479.00,1.67
7478.00,1.67
7477.00,1.67
7476.00,1.67
7475.00,1.67
7474.00,1.67
7473.00,1.67
7472.00,1.66
7471.00,1.66
7470.00,1.66
7469.00,1.66
7468.00,1.66
7467.00,1.66
7466.00,1.66
7465.00,1.66
7464.00,1.66
7463.00,1.65
7462.00,1.65
7461.00,1.65
7460.00,1.65
7459.00,1.65
7458.00,1.65
7457.00,1.65
7456.00,1.65
7455.00,1.65
7454.00,1.65
7453.00,1.65
7452.00,1.65
7451.00,1.65
7450.00,1.65
7449.00,1.65
7448.00,1.65
7447.00,1.65
7446.00,1.65
7445.00,1.65
7444.00,1.65
7443.00,1.65
7442.00,1.65
7441.00,1.65
7440.00,1.64
7439.00,1.64
7438.00,1.64
7437.00,1.64
7436.00,1.64
7435.00,1.64
7434.00,1.64
7433.00,1.64
7432.00,1.64
7431.00,1.64
7430.00,1.64
7429.00,1.64
7428.00,1.64
7427.00,1.64
7426.00,1.64
7425.00,1.64
7424.00,1.64
7423.00,1.63
7422.00,1.63
7421.00,1.63
7420.00,1.63
7419.00,1.63
7418.00,1.63
7417.00,1.63
7416.00,1.62
7415.00,1.62
7414.00,1.62
7413.00,1.62
7412.00,1.62
7411.00,1.62
7410.00,1.62
7409.00,1.62
7408.00,1.62
7407.00,1.62
7406.00,1.62
7405.00,1.62
7404.00,1.62
7403.00,1.62
7402.00,1.61
7401.00,1.61
7400.00,1.61
7399.00,1.61
7398.00,1.61
7397.00,1.61
7396.00,1.61
7395.00,1.61
7394.00,1.61
7393.00,1.61
7392.00,1.61
7391.00,1.61
7390.00,1.60
7389.00,1.60
7388.00,1.60
7387.00,1.60
7386.00,1.60
7385.00,1.59
7384.00,1.59
7383.00,1.59
7382.00,1.59
7381.00,1.59
7380.00,1.59
7379.00,1.58
7378.00,1.58
7377.00,1.58
7376.00,1.58
7375.00,1.58
7374.00,1.58
7373.00,1.58
7372.00,1.58
7371.00,1.58
7370.00,1.58
7369.00,1.58
7368.00,1.58
7367.00,1.58
7366.00,1.58
7365.00,1.58
7364.00,1.58
7363.00,1.58
7362.00,1.58
7361.00,1.58
7360.00,1.58
7359.00,1.58
7358.00,1.58
7357.00,1.58
7356.00,1.58
7355.00,1.58
7354.00,1.58
7353.00,1.57
7352.00,1.57
7351.00,1.57
7350.00,1.57
7349.00,1.57
7348.00,1.57
7347.00,1.57
7346.00,1.56
7345.00,1.56
7344.00,1.56
7343.00,1.56
7342.00,1.56
7341.00,1.56
7340.00,1.56
7339.00,1.56
7338.00,1.56
7337.00,1.56
7336.00,1.56
7335.00,1.56
7334.00,1.56
7333.00,1.56
7332.00,1.56
7331.00,1.56
7330.00,1.56
7329.00,1.56
7328.00,1.56
7327.00,1.56
7326.00,1.56
7325.00,1.56
7324.00,1.56
7323.00,1.56
7322.00,1.56
7321.00,1.56
7320.00,1.56
7319.00,1.55
7318.00,1.55
7317.00,1.55
7316.00,1.55
7315.00,1.55
7314.00,1.54
7313.00,1.54
7312.00,1.54
7311.00,1.54
7310.00,1.54
7309.00,1.54
7308.00,1.53
7307.00,1.53
7306.00,1.53
7305.00,1.53
7304.00,1.53
7303.00,1.53
7302.00,1.53
7301.00,1.53
7300.00,1.53
7299.00,1.53
7298.00,1.52
7297.00,1.52
7296.00,1.52
7295.00,1.52
7294.00,1.52
7293.00,1.52
7292.00,1.52
7291.00,1.52
7290.00,1.52
7289.00,1.52
7288.00,1.52
7287.00,1.51
7286.00,1.51
7285.00,1.51
7284.00,1.51
7283.00,1.51
7282.00,1.51
7281.00,1.50
7280.00,1.50
7279.00,1.50
7278.00,1.50
7277.00,1.50
7276.00,1.49
7275.00,1.49
7274.00,1.49
7273.00,1.49
7272.00,1.49
7271.00,1.49
7270.00,1.48
7269.00,1.48
7268.00,1.48
7267.00,1.48
7266.00,1.48
7265.00,1.48
7264.00,1.47
7263.00,1.47
7262.00,1.47
7261.00,1.47
7260.00,1.47
7259.00,1.47
7258.00,1.46
7257.00,1.46
7256.00,1.46
7255.00,1.46
7254.00,1.46
7253.00,1.45
7252.00,1.45
7251.00,1.45
7250.00,1.45
7249.00,1.45
7248.00,1.44
7247.00,1.44
7246.00,1.44
7245.00,1.44
7244.00,1.44
7243.00,1.43
7242.00,1.43
7241.00,1.43
7240.00,1.43
7239.00,1.42
7238.00,1.42
7237.00,1.42
7236.00,1.42
7235.00,1.41
7234.00,1.41
7233.00,1.41
7232.00,1.40
7231.00,1.40
7230.00,1.40
7229.00,1.39
7228.00,1.39
7227.00,1.38
7226.00,1.38
7225.00,1.38
7224.00,1.37
7223.00,1.37
7222.00,1.36
7221.00,1.36
7220.00,1.35
7219.00,1.35
7218.00,1.34
7217.00,1.34
7216.00,1.33
7215.00,1.33
7214.00,1.32
7213.00,1.32
7212.00,1.31
7211.00,1.31
7210.00,1.30
7209.00,1.30
7208.00,1.29
7207.00,1.29
7206.00,1.28
7205.00,1.28
7204.00,1.28
7203.00,1.27
7202.00,1.27
7201.00,1.26
7200.00,1.26
7199.00,1.26
7198.00,1.25
7197.00,1.25
7196.00,1.25
7195.00,1.24
7194.00,1.24
7193.00,1.24
7192.00,1.23
7191.00,1.23
7190.00,1.23
7189.00,1.22
7188.00,1.22
7187.00,1.22
7186.00,1.21
7185.00,1.21
7184.00,1.21
7183.00,1.20
7182.00,1.20
7181.00,1.20
7180.00,1.19
7179.00,1.19
7178.00,1.19
7177.00,1.18
7176.00,1.18
7175.00,1.18
7174.00,1.18
7173.00,1.17
7172.00,1.17
7171.00,1.17
7170.00,1.16
7169.00,1.16
7168.00,1.16
7167.00,1.15
7166.00,1.15
7165.00,1.15
7164.00,1.15
7163.00,1.14
7162.00,1.14
7161.00,1.14
7160.00,1.13
7159.00,1.13
7158.00,1.13
7157.00,1.12
7156.00,1.12
7155.00,1.12
7154.00,1.11
7153.00,1.11
7152.00,1.10
7151.00,1.10
7150.00,1.09
7149.00,1.09
7148.00,1.09
7147.00,1.08
7146.00,1.08
7145.00,1.07
7144.00,1.07
7143.00,1.06
7142.00,1.06
7141.00,1.06
7140.00,1.05
7139.00,1.05
7138.00,1.04
7137.00,1.04
7136.00,1.04
7135.00,1.03
7134.00,1.03
7133.00,1.03
7132.00,1.03
7131.00,1.02
7130.00,1.02
7129.00,1.02
7128.00,1.01
7127.00,1.01
7126.00,1.01
7125.00,1.00
7124.00,1.00
7123.00,1.00
7122.00,0.99
7121.00,0.99
7120.00,0.99
7119.00,0.98
7118.00,0.98
7117.00,0.98
7116.00,0.97
7115.00,0.97
7114.00,0.97
7113.00,0.96
7112.00,0.96
7111.00,0.95
7110.00,0.95
7109.00,0.95
7108.00,0.95
7107.00,0.94
7106.00,0.94
7105.00,0.94
7104.00,0.93
7103.00,0.93
7102.00,0.93
7101.00,0.92
7100.00,0.92
7099.00,0.92
7098.00,0.92
7097.00,0.91
7096.00,0.91
7095.00,0.91
7094.00,0.90
7093.00,0.90
7092.00,0.90
7091.00,0.89
7090.00,0.89
7089.00,0.89
7088.00,0.89
7087.00,0.88
7086.00,0.88
7085.00,0.88
7084.00,0.87
7083.00,0.87
7082.00,0.87
7081.00,0.86
7080.00,0.86
7079.00,0.86
7078.00,0.85
7077.00,0.85
7076.00,0.85
7075.00,0.85
7074.00,0.85
7073.00,0.84
7072.00,0.84
7071.00,0.84
7070.00,0.84
7069.00,0.84
7068.00,0.83
7067.00,0.83
7066.00,0.83
7065.00,0.83
7064.00,0.83
7063.00,0.83
7062.00,0.83
7061.00,0.82
7060.00,0.82
7059.00,0.82
7058.00,0.82
7057.00,0.82
7056.00,0.82
7055.00,0.81
7054.00,0.81
7053.00,0.81
7052.00,0.81
7051.00,0.81
7050.00,0.81
7049.00,0.80
7048.00,0.80
7047.00,0.80
7046.00,0.80
7045.00,0.80
7044.00,0.80
7043.00,0.80
7042.00,0.80
7041.00,0.79
7040.00,0.79
7039.00,0.79
7038.00,0.79
7037.00,0.79
7036.00,0.79
7035.00,0.79
7034.00,0.78
7033.00,0.78
7032.00,0.78
7031.00,0.78
7030.00,0.78
7029.00,0.78
7028.00,0.77
7027.00,0.77
7026.00,0.77
7025.00,0.77
7024.00,0.77
7023.00,0.76
7022.00,0.76
7021.00,0.76
7020.00,0.76
7019.00,0.76
7018.00,0.75
7017.00,0.75
7016.00,0.75
7015.00,0.75
7014.00,0.75
7013.00,0.74
7012.00,0.74
7011.00,0.74
7010.00,0.74
7009.00,0.74
7008.00,0.74
7007.00,0.74
7006.00,0.73
7005.00,0.73
7004.00,0.73
7003.00,0.73
7002.00,0.73
7001.00,0.73
7000.00,0.73
6999.00,0.73
6998.00,0.73
6997.00,0.73
6996.00,0.72
6995.00,0.72
6994.00,0.72
6993.00,0.72
6992.00,0.72
6991.00,0.72
6990.00,0.72
6989.00,0.72
6988.00,0.72
6987.00,0.72
6986.00,0.72
6985.00,0.72
6984.00,0.72
6983.00,0.72
6982.00,0.72
6981.00,0.72
6980.00,0.71
6979.00,0.71
6978.00,0.71
6977.00,0.71
6976.00,0.71
6975.00,0.71
6974.00,0.71
6973.00,0.71
6972.00,0.71
6971.00,0.71
6970.00,0.71
6969.00,0.71
6968.00,0.71
6967.00,0.71
6966.00,0.71
6965.00,0.71
6964.00,0.71
6963.00,0.71
6962.00,0.71
6961.00,0.71
6960.00,0.71
6959.00,0.71
6958.00,0.71
6957.00,0.70
6956.00,0.70
6955.00,0.70
6954.00,0.70
6953.00,0.70
6952.00,0.70
6951.00,0.70
6950.00,0.70
6949.00,0.70
6948.00,0.70
6947.00,0.69
6946.00,0.69
6945.00,0.69
6944.00,0.69
6943.00,0.69
6942.00,0.69
6941.00,0.69
6940.00,0.69
6939.00,0.69
6938.00,0.69
6937.00,0.69
6936.00,0.69
6935.00,0.68
6934.00,0.68
6933.00,0.68
6932.00,0.68
6931.00,0.68
6930.00,0.68
6929.00,0.68
6928.00,0.68
6927.00,0.68
6926.00,0.68
6925.00,0.68
6924.00,0.68
6923.00,0.68
6922.00,0.67
6921.00,0.67
6920.00,0.67
6919.00,0.67
6918.00,0.67
6917.00,0.67
6916.00,0.67
6915.00,0.67
6914.00,0.68
6913.00,0.68
6912.00,0.68
6911.00,0.68
6910.00,0.68
6909.00,0.68
6908.00,0.68
6907.00,0.68
6906.00,0.68
6905.00,0.68
6904.00,0.68
6903.00,0.68
6902.00,0.68
6901.00,0.68
6900.00,0.68
6899.00,0.68
6898.00,0.67
6897.00,0.67
6896.00,0.67
6895.00,0.67
6894.00,0.67
6893.00,0.67
6892.00,0.67
6891.00,0.67
6890.00,0.67
6889.00,0.67
6888.00,0.67
6887.00,0.67
6886.00,0.67
6885.00,0.67
6884.00,0.67
6883.00,0.67
6882.00,0.67
6881.00,0.67
6880.00,0.67
6879.00,0.67
6878.00,0.67
6877.00,0.67
6876.00,0.67
6875.00,0.67
6874.00,0.66
6873.00,0.66
6872.00,0.66
6871.00,0.66
6870.00,0.66
6869.00,0.66
6868.00,0.66
6867.00,0.66
6866.00,0.66
6865.00,0.66
6864.00,0.66
6863.00,0.66
6862.00,0.66
6861.00,0.66
6860.00,0.66
6859.00,0.66
6858.00,0.66
6857.00,0.66
6856.00,0.66
6855.00,0.66
6854.00,0.66
6853.00,0.66
6852.00,0.66
6851.00,0.66
6850.00,0.66
6849.00,0.66
6848.00,0.66
6847.00,0.66
6846.00,0.66
6845.00,0.66
6844.00,0.66
6843.00,0.66
6842.00,0.66
6841.00,0.66
6840.00,0.66
6839.00,0.65
6838.00,0.65
6837.00,0.65
6836.00,0.65
6835.00,0.65
6834.00,0.66
6833.00,0.66
6832.00,0.66
6831.00,0.66
6830.00,0.66
6829.00,0.66
6828.00,0.66
6827.00,0.66
6826.00,0.67
6825.00,0.67
6824.00,0.67
6823.00,0.67
6822.00,0.67
6821.00,0.67
6820.00,0.67
6819.00,0.68
6818.00,0.68
6817.00,0.68
6816.00,0.68
6815.00,0.68
6814.00,0.68
6813.00,0.68
6812.00,0.68
6811.00,0.68
6810.00,0.68
6809.00,0.68
6808.00,0.68
6807.00,0.68
6806.00,0.68
6805.00,0.68
6804.00,0.68
6803.00,0.68
6802.00,0.68
6801.00,0.68
6800.00,0.68
6799.00,0.68
6798.00,0.68
6797.00,0.68
6796.00,0.68
6795.00,0.68
6794.00,0.68
6793.00,0.68
6792.00,0.69
6791.00,0.69
6790.00,0.69
6789.00,0.69
6788.00,0.69
6787.00,0.69
6786.00,0.69
6785.00,0.69
6784.00,0.69
6783.00,0.69
6782.00,0.69
6781.00,0.69
6780.00,0.69
6779.00,0.69
6778.00,0.69
6777.00,0.69
6776.00,0.69
6775.00,0.69
6774.00,0.69
6773.00,0.69
6772.00,0.70
6771.00,0.70
6770.00,0.70
6769.00,0.70
6768.00,0.70
6767.00,0.70
6766.00,0.70
6765.00,0.70
6764.00,0.70
6763.00,0.71
6762.00,0.71
6761.00,0.71
6760.00,0.71
6759.00,0.71
6758.00,0.71
6757.00,0.72
6756.00,0.72
6755.00,0.72
6754.00,0.72
6753.00,0.72
6752.00,0.72
6751.00,0.72
6750.00,0.72
6749.00,0.73
6748.00,0.73
6747.00,0.73
6746.00,0.73
6745.00,0.73
6744.00,0.73
6743.00,0.73
6742.00,0.73
6741.00,0.73
6740.00,0.73
6739.00,0.73
6738.00,0.73
6737.00,0.73
6736.00,0.74
6735.00,0.74
6734.00,0.74
6733.00,0.74
6732.00,0.74
6731.00,0.74
6730.00,0.74
6729.00,0.74
6728.00,0.74
6727.00,0.74
6726.00,0.74
6725.00,0.74
6724.00,0.75
6723.00,0.75
6722.00,0.75
6721.00,0.75
6720.00,0.75
6719.00,0.75
6718.00,0.75
6717.00,0.75
6716.00,0.75
6715.00,0.76
6714.00,0.76
6713.00,0.76
6712.00,0.76
6711.00,0.76
6710.00,0.76
6709.00,0.76
6708.00,0.76
6707.00,0.76
6706.00,0.76
6705.00,0.76
6704.00,0.76
6703.00,0.76
6702.00,0.77
6701.00,0.77
6700.00,0.77
6699.00,0.77
6698.00,0.77
6697.00,0.77
6696.00,0.77
6695.00,0.77
6694.00,0.77
6693.00,0.77
6692.00,0.77
6691.00,0.78
6690.00,0.78
6689.00,0.78
6688.00,0.78
6687.00,0.78
6686.00,0.78
6685.00,0.79
6684.00,0.79
6683.00,0.79
6682.00,0.79
6681.00,0.79
6680.00,0.79
6679.00,0.80
6678.00,0.80
6677.00,0.80
6676.00,0.80
6675.00,0.80
6674.00,0.80
6673.00,0.80
6672.00,0.81
6671.00,0.81
6670.00,0.81
6669.00,0.81
6668.00,0.81
6667.00,0.81
6666.00,0.82
6665.00,0.82
6664.00,0.82
6663.00,0.82
6662.00,0.82
6661.00,0.83
6660.00,0.83
6659.00,0.83
6658.00,0.83
6657.00,0.83
6656.00,0.83
6655.00,0.84
6654.00,0.84
6653.00,0.84
6652.00,0.84
6651.00,0.84
6650.00,0.84
6649.00,0.84
6648.00,0.84
6647.00,0.85
6646.00,0.85
6645.00,0.85
6644.00,0.85
6643.00,0.85
6642.00,0.85
6641.00,0.85
6640.00,0.85
6639.00,0.85
6638.00,0.85
6637.00,0.85
6636.00,0.85
6635.00,0.86
6634.00,0.86
6633.00,0.86
6632.00,0.86
6631.00,0.86
6630.00,0.86
6629.00,0.86
6628.00,0.86
6627.00,0.86
6626.00,0.86
6625.00,0.86
6624.00,0.86
6623.00,0.86
6622.00,0.86
6621.00,0.86
6620.00,0.86
6619.00,0.87
6618.00,0.87
6617.00,0.87
6616.00,0.87
6615.00,0.87
6614.00,0.87
6613.00,0.87
6612.00,0.87
6611.00,0.87
6610.00,0.87
6609.00,0.88
6608.00,0.88
6607.00,0.88
6606.00,0.88
6605.00,0.88
6604.00,0.88
6603.00,0.89
6602.00,0.89
6601.00,0.89
6600.00,0.89
6599.00,0.89
6598.00,0.89
6597.00,0.90
6596.00,0.90
6595.00,0.90
6594.00,0.90
6593.00,0.90
6592.00,0.90
6591.00,0.90
6590.00,0.90
6589.00,0.91
6588.00,0.91
6587.00,0.91
6586.00,0.91
6585.00,0.91
6584.00,0.91
6583.00,0.91
6582.00,0.91
6581.00,0.91
6580.00,0.91
6579.00,0.91
6578.00,0.92
6577.00,0.92
6576.00,0.92
6575.00,0.92
6574.00,0.92
6573.00,0.92
6572.00,0.92
6571.00,0.92
6570.00,0.93
6569.00,0.93
6568.00,0.93
6567.00,0.93
6566.00,0.93
6565.00,0.93
6564.00,0.94
6563.00,0.94
6562.00,0.94
6561.00,0.94
6560.00,0.94
6559.00,0.94
6558.00,0.94
6557.00,0.95
6556.00,0.95
6555.00,0.95
6554.00,0.95
6553.00,0.95
6552.00,0.95
6551.00,0.95
6550.00,0.95
6549.00,0.96
6548.00,0.96
6547.00,0.96
6546.00,0.96
6545.00,0.96
6544.00,0.96
6543.00,0.96
6542.00,0.96
6541.00,0.96
6540.00,0.97
6539.00,0.97
6538.00,0.97
6537.00,0.97
6536.00,0.97
6535.00,0.97
6534.00,0.97
6533.00,0.97
6532.00,0.97
6531.00,0.97
6530.00,0.97
6529.00,0.97
6528.00,0.97
6527.00,0.98
6526.00,0.98
6525.00,0.98
6524.00,0.98
6523.00,0.98
6522.00,0.98
6521.00,0.98
6520.00,0.98
6519.00,0.98
6518.00,0.98
6517.00,0.98
6516.00,0.98
6515.00,0.98
6514.00,0.98
6513.00,0.98
6512.00,0.98
6511.00,0.98
6510.00,0.98
6509.00,0.98
6508.00,0.99
6507.00,0.99
6506.00,0.99
6505.00,0.99
6504.00,0.99
6503.00,0.99
6502.00,1.00
6501.00,1.00
6500.00,1.00
6499.00,1.00
6498.00,1.00
6497.00,1.00
6496.00,1.01
6495.00,1.01
6494.00,1.01
6493.00,1.01
6492.00,1.01
6491.00,1.01
6490.00,1.01
6489.00,1.01
6488.00,1.01
6487.00,1.01
6486.00,1.02
6485.00,1.02
6484.00,1.02
6483.00,1.02
6482.00,1.02
6481.00,1.02
6480.00,1.02
6479.00,1.02
6478.00,1.02
6477.00,1.02
6476.00,1.02
6475.00,1.02
6474.00,1.02
6473.00,1.02
6472.00,1.02
6471.00,1.02
6470.00,1.02
6469.00,1.02
6468.00,1.02
6467.00,1.02
6466.00,1.03
6465.00,1.03
6464.00,1.03
6463.00,1.03
6462.00,1.03
6461.00,1.03
6460.00,1.03
6459.00,1.03
6458.00,1.03
6457.00,1.03
6456.00,1.03
6455.00,1.03
6454.00,1.03
6453.00,1.03
6452.00,1.03
6451.00,1.03
6450.00,1.03
6449.00,1.03
6448.00,1.03
6447.00,1.03
6446.00,1.04
6445.00,1.04
6444.00,1.04
6443.00,1.04
6442.00,1.04
6441.00,1.04
6440.00,1.04
6439.00,1.04
6438.00,1.04
6437.00,1.05
6436.00,1.05
6435.00,1.05
6434.00,1.05
6433.00,1.05
6432.00,1.05
6431.00,1.05
6430.00,1.05
6429.00,1.05
6428.00,1.05
6427.00,1.05
6426.00,1.05
6425.00,1.05
6424.00,1.05
6423.00,1.05
6422.00,1.05
6421.00,1.05
6420.00,1.05
6419.00,1.05
6418.00,1.05
6417.00,1.05
6416.00,1.05
6415.00,1.05
6414.00,1.05
6413.00,1.05
6412.00,1.05
6411.00,1.05
6410.00,1.05
6409.00,1.05
6408.00,1.05
6407.00,1.05
6406.00,1.05
6405.00,1.05
6404.00,1.06
6403.00,1.06
6402.00,1.06
6401.00,1.06
6400.00,1.06
6399.00,1.06
6398.00,1.06
6397.00,1.07
6396.00,1.07
6395.00,1.07
6394.00,1.07
6393.00,1.07
6392.00,1.07
6391.00,1.07
6390.00,1.07
6389.00,1.08
6388.00,1.08
6387.00,1.08
6386.00,1.08
6385.00,1.08
6384.00,1.08
6383.00,1.08
6382.00,1.08
6381.00,1.08
6380.00,1.08
6379.00,1.08
6378.00,1.08
6377.00,1.08
6376.00,1.08
6375.00,1.08
6374.00,1.08
6373.00,1.08
6372.00,1.08
6371.00,1.08
6370.00,1.08
6369.00,1.09
6368.00,1.09
6367.00,1.09
6366.00,1.09
6365.00,1.09
6364.00,1.09
6363.00,1.09
6362.00,1.09
6361.00,1.09
6360.00,1.09
6359.00,1.09
6358.00,1.09
6357.00,1.09
6356.00,1.10
6355.00,1.10
6354.00,1.10
6353.00,1.10
6352.00,1.10
6351.00,1.10
6350.00,1.10
6349.00,1.10
6348.00,1.10
6347.00,1.10
6346.00,1.10
6345.00,1.10
6344.00,1.10
6343.00,1.10
6342.00,1.10
6341.00,1.11
6340.00,1.11
6339.00,1.11
6338.00,1.11
6337.00,1.11
6336.00,1.11
6335.00,1.12
6334.00,1.12
6333.00,1.12
6332.00,1.12
6331.00,1.12
6330.00,1.13
6329.00,1.13
6328.00,1.13
6327.00,1.13
6326.00,1.13
6325.00,1.13
6324.00,1.13
6323.00,1.13
6322.00,1.13
6321.00,1.13
6320.00,1.13
6319.00,1.13
6318.00,1.13
6317.00,1.13
6316.00,1.13
6315.00,1.13
6314.00,1.14
6313.00,1.14
6312.00,1.14
6311.00,1.14
6310.00,1.14
6309.00,1.14
6308.00,1.14
6307.00,1.14
6306.00,1.14
6305.00,1.14
6304.00,1.15
6303.00,1.15
6302.00,1.15
6301.00,1.15
6300.00,1.15
6299.00,1.15
6298.00,1.15
6297.00,1.16
6296.00,1.16
6295.00,1.16
6294.00,1.16
6293.00,1.16
6292.00,1.16
6291.00,1.17
6290.00,1.17
6289.00,1.17
6288.00,1.17
6287.00,1.17
6286.00,1.18
6285.00,1.18
6284.00,1.18
6283.00,1.18
6282.00,1.18
6281.00,1.19
6280.00,1.19
6279.00,1.19
6278.00,1.19
6277.00,1.19
6276.00,1.20
6275.00,1.20
6274.00,1.20
6273.00,1.20
6272.00,1.20
6271.00,1.20
6270.00,1.20
6269.00,1.20
6268.00,1.21
6267.00,1.21
6266.00,1.21
6265.00,1.21
6264.00,1.21
6263.00,1.21
6262.00,1.21
6261.00,1.21
6260.00,1.21
6259.00,1.22
6258.00,1.22
6257.00,1.22
6256.00,1.22
6255.00,1.22
6254.00,1.22
6253.00,1.22
6252.00,1.22
6251.00,1.22
6250.00,1.22
6249.00,1.23
6248.00,1.23
6247.00,1.23
6246.00,1.23
6245.00,1.23
6244.00,1.23
6243.00,1.24
6242.00,1.24
6241.00,1.24
6240.00,1.24
6239.00,1.24
6238.00,1.25
6237.00,1.25
6236.00,1.25
6235.00,1.25
6234.00,1.26
6233.00,1.26
6232.00,1.26
6231.00,1.26
6230.00,1.26
6229.00,1.27
6228.00,1.27
6227.00,1.27
6226.00,1.27
6225.00,1.27
6224.00,1.27
6223.00,1.28
6222.00,1.28
6221.00,1.28
6220.00,1.28
6219.00,1.28
6218.00,1.28
6217.00,1.28
6216.00,1.28
6215.00,1.28
6214.00,1.29
6213.00,1.29
6212.00,1.29
6211.00,1.29
6210.00,1.29
6209.00,1.29
6208.00,1.29
6207.00,1.29
6206.00,1.30
6205.00,1.30
6204.00,1.30
6203.00,1.30
6202.00,1.30
6201.00,1.30
6200.00,1.31
6199.00,1.31
6198.00,1.31
6197.00,1.31
6196.00,1.31
6195.00,1.32
6194.00,1.32
6193.00,1.32
6192.00,1.32
6191.00,1.32
6190.00,1.33
6189.00,1.33
6188.00,1.33
6187.00,1.33
6186.00,1.33
6185.00,1.34
6184.00,1.34
6183.00,1.34
6182.00,1.34
6181.00,1.34
6180.00,1.35
6179.00,1.35
6178.00,1.35
6177.00,1.35
6176.00,1.35
6175.00,1.35
6174.00,1.35
6173.00,1.35
6172.00,1.35
6171.00,1.35
6170.00,1.35
6169.00,1.35
6168.00,1.36
6167.00,1.36
6166.00,1.36
6165.00,1.36
6164.00,1.36
6163.00,1.36
6162.00,1.36
6161.00,1.37
6160.00,1.37
6159.00,1.37
6158.00,1.37
6157.00,1.38
6156.00,1.38
6155.00,1.38
6154.00,1.38
6153.00,1.39
6152.00,1.39
6151.00,1.39
6150.00,1.39
6149.00,1.40
6148.00,1.40
6147.00,1.40
6146.00,1.40
6145.00,1.41
6144.00,1.41
6143.00,1.41
6142.00,1.41
6141.00,1.41
6140.00,1.42
6139.00,1.42
6138.00,1.42
6137.00,1.42
6136.00,1.42
6135.00,1.43
6134.00,1.43
6133.00,1.43
6132.00,1.43
6131.00,1.43
6130.00,1.44
6129.00,1.44
6128.00,1.44
6127.00,1.44
6126.00,1.44
6125.00,1.45
6124.00,1.45
6123.00,1.45
6122.00,1.45
6121.00,1.45
6120.00,1.46
6119.00,1.46
6118.00,1.46
6117.00,1.46
6116.00,1.46
6115.00,1.47
6114.00,1.47
6113.00,1.47
6112.00,1.47
6111.00,1.47
6110.00,1.47
6109.00,1.47
6108.00,1.48
6107.00,1.48
6106.00,1.48
6105.00,1.48
6104.00,1.48
6103.00,1.48
6102.00,1.48
6101.00,1.48
6100.00,1.49
6099.00,1.49
6098.00,1.49
6097.00,1.49
6096.00,1.49
6095.00,1.49
6094.00,1.50
6093.00,1.50
6092.00,1.50
6091.00,1.50
6090.00,1.50
6089.00,1.51
6088.00,1.51
6087.00,1.51
6086.00,1.51
6085.00,1.51
6084.00,1.51
6083.00,1.52
6082.00,1.52
6081.00,1.52
6080.00,1.52
6079.00,1.52
6078.00,1.52
6077.00,1.52
6076.00,1.53
6075.00,1.53
6074.00,1.53
6073.00,1.53
6072.00,1.53
6071.00,1.53
6070.00,1.54
6069.00,1.54
6068.00,1.54
6067.00,1.54
6066.00,1.54
6065.00,1.54
6064.00,1.55
6063.00,1.55
6062.00,1.55
6061.00,1.55
6060.00,1.55
6059.00,1.55
6058.00,1.55
6057.00,1.56
6056.00,1.56
6055.00,1.56
6054.00,1.56
6053.00,1.56
6052.00,1.56
6051.00,1.56
6050.00,1.56
6049.00,1.56
6048.00,1.56
6047.00,1.57
6046.00,1.57
6045.00,1.57
6044.00,1.57
6043.00,1.57
6042.00,1.57
6041.00,1.57
6040.00,1.57
6039.00,1.57
6038.00,1.57
6037.00,1.57
6036.00,1.57
6035.00,1.57
6034.00,1.57
6033.00,1.57
6032.00,1.57
6031.00,1.58
6030.00,1.58
6029.00,1.58
6028.00,1.58
6027.00,1.58
6026.00,1.58
6025.00,1.58
6024.00,1.58
6023.00,1.58
6022.00,1.58
6021.00,1.58
6020.00,1.58
6019.00,1.58
6018.00,1.58
6017.00,1.58
6016.00,1.58
6015.00,1.58
6014.00,1.58
6013.00,1.58
6012.00,1.58
6011.00,1.58
6010.00,1.58
6009.00,1.58
6008.00,1.58
6007.00,1.58
6006.00,1.58
6005.00,1.58
6004.00,1.58
6003.00,1.57
6002.00,1.57
6001.00,1.57
6000.00,1.57
5999.00,1.57
5998.00,1.57
5997.00,1.57
5996.00,1.57
5995.00,1.56
5994.00,1.56
5993.00,1.56
5992.00,1.56
5991.00,1.56
5990.00,1.55
5989.00,1.55
5988.00,1.55
5987.00,1.55
5986.00,1.54
5985.00,1.54
5984.00,1.54
5983.00,1.53
5982.00,1.53
5981.00,1.52
5980.00,1.52
5979.00,1.51
5978.00,1.51
5977.00,1.50
5976.00,1.50
5975.00,1.49
5974.00,1.48
5973.00,1.47
5972.00,1.47
5971.00,1.46
5970.00,1.45
5969.00,1.44
5968.00,1.43
5967.00,1.43
5966.00,1.42
5965.00,1.41
5964.00,1.40
5963.00,1.39
5962.00,1.38
5961.00,1.37
5960.00,1.36
5959.00,1.35
5958.00,1.34
5957.00,1.33
5956.00,1.31
5955.00,1.30
5954.00,1.29
5953.00,1.28
5952.00,1.28
5951.00,1.27
5950.00,1.26
5949.00,1.25
5948.00,1.24
5947.00,1.23
5946.00,1.23
5945.00,1.22
5944.00,1.22
5943.00,1.21
5942.00,1.21
5941.00,1.20
5940.00,1.20
5939.00,1.20
5938.00,1.20
5937.00,1.19
5936.00,1.19
5935.00,1.19
5934.00,1.19
5933.00,1.19
5932.00,1.19
5931.00,1.19
5930.00,1.19
5929.00,1.18
5928.00,1.18
5927.00,1.18
5926.00,1.18
5925.00,1.18
5924.00,1.18
5923.00,1.18
5922.00,1.17
5921.00,1.17
5920.00,1.17
5919.00,1.17
5918.00,1.16
5917.00,1.16
5916.00,1.16
5915.00,1.15
5914.00,1.15
5913.00,1.14
5912.00,1.14
5911.00,1.14
5910.00,1.13
5909.00,1.13
5908.00,1.13
5907.00,1.12
5906.00,1.12
5905.00,1.12
5904.00,1.12
5903.00,1.12
5902.00,1.11
5901.00,1.11
5900.00,1.11
5899.00,1.11
5898.00,1.11
5897.00,1.12
5896.00,1.12
5895.00,1.12
5894.00,1.12
5893.00,1.12
5892.00,1.13
5891.00,1.13
5890.00,1.13
5889.00,1.14
5888.00,1.14
5887.00,1.14
5886.00,1.15
5885.00,1.15
5884.00,1.16
5883.00,1.16
5882.00,1.16
5881.00,1.17
5880.00,1.17
5879.00,1.17
5878.00,1.18
5877.00,1.18
5876.00,1.18
5875.00,1.19
5874.00,1.19
5873.00,1.19
5872.00,1.20
5871.00,1.20
5870.00,1.20
5869.00,1.20
5868.00,1.21
5867.00,1.21
5866.00,1.21
5865.00,1.21
5864.00,1.22
5863.00,1.22
5862.00,1.22
5861.00,1.22
5860.00,1.23
5859.00,1.23
5858.00,1.23
5857.00,1.23
5856.00,1.24
5855.00,1.24
5854.00,1.24
5853.00,1.24
5852.00,1.24
5851.00,1.24
5850.00,1.24
5849.00,1.24
5848.00,1.25
5847.00,1.25
5846.00,1.25
5845.00,1.25
5844.00,1.25
5843.00,1.25
5842.00,1.25
5841.00,1.25
5840.00,1.25
5839.00,1.25
5838.00,1.25
5837.00,1.25
5836.00,1.25
5835.00,1.25
5834.00,1.25
5833.00,1.25
5832.00,1.24
5831.00,1.24
5830.00,1.24
5829.00,1.24
5828.00,1.24
5827.00,1.24
5826.00,1.24
5825.00,1.24
5824.00,1.24
5823.00,1.24
5822.00,1.24
5821.00,1.24
5820.00,1.24
5819.00,1.24
5818.00,1.24
5817.00,1.24
5816.00,1.24
5815.00,1.24
5814.00,1.24
5813.00,1.25
5812.00,1.25
5811.00,1.25
5810.00,1.25
5809.00,1.25
5808.00,1.25
5807.00,1.25
5806.00,1.25
5805.00,1.25
5804.00,1.25
5803.00,1.25
5802.00,1.25
5801.00,1.24
5800.00,1.24
5799.00,1.24
5798.00,1.24
5797.00,1.24
5796.00,1.24
5795.00,1.23
5794.00,1.23
5793.00,1.23
5792.00,1.22
5791.00,1.22
5790.00,1.22
5789.00,1.21
5788.00,1.21
5787.00,1.20
5786.00,1.20
5785.00,1.20
5784.00,1.19
5783.00,1.19
5782.00,1.18
5781.00,1.18
5780.00,1.18
5779.00,1.18
5778.00,1.17
5777.00,1.17
5776.00,1.17
5775.00,1.17
5774.00,1.17
5773.00,1.17
5772.00,1.17
5771.00,1.17
5770.00,1.17
5769.00,1.17
5768.00,1.17
5767.00,1.17
5766.00,1.18
5765.00,1.18
5764.00,1.18
5763.00,1.18
5762.00,1.19
5761.00,1.19
5760.00,1.19
5759.00,1.20
5758.00,1.20
5757.00,1.21
5756.00,1.21
5755.00,1.22
5754.00,1.22
5753.00,1.22
5752.00,1.23
5751.00,1.23
5750.00,1.24
5749.00,1.25
5748.00,1.25
5747.00,1.26
5746.00,1.26
5745.00,1.27
5744.00,1.27
5743.00,1.28
5742.00,1.28
5741.00,1.28
5740.00,1.29
5739.00,1.29
5738.00,1.30
5737.00,1.30
5736.00,1.30
5735.00,1.31
5734.00,1.31
5733.00,1.31
5732.00,1.32
5731.00,1.32
5730.00,1.32
5729.00,1.33
5728.00,1.33
5727.00,1.33
5726.00,1.33
5725.00,1.33
5724.00,1.34
5723.00,1.34
5722.00,1.34
5721.00,1.34
5720.00,1.34
5719.00,1.34
5718.00,1.34
5717.00,1.34
5716.00,1.34
5715.00,1.34
5714.00,1.34
5713.00,1.34
5712.00,1.34
5711.00,1.34
5710.00,1.34
5709.00,1.34
5708.00,1.34
5707.00,1.34
5706.00,1.34
5705.00,1.34
5704.00,1.34
5703.00,1.34
5702.00,1.33
5701.00,1.33
5700.00,1.33
5699.00,1.33
5698.00,1.33
5697.00,1.33
5696.00,1.32
5695.00,1.32
5694.00,1.32
5693.00,1.32
5692.00,1.32
5691.00,1.31
5690.00,1.31
5689.00,1.31
5688.00,1.31
5687.00,1.30
5686.00,1.30
5685.00,1.30
5684.00,1.30
5683.00,1.30
5682.00,1.29
5681.00,1.29
5680.00,1.29
5679.00,1.29
5678.00,1.29
5677.00,1.29
5676.00,1.29
5675.00,1.28
5674.00,1.28
5673.00,1.28
5672.00,1.28
5671.00,1.28
5670.00,1.29
5669.00,1.29
5668.00,1.29
5667.00,1.29
5666.00,1.29
5665.00,1.29
5664.00,1.29
5663.00,1.30
5662.00,1.30
5661.00,1.30
5660.00,1.30
5659.00,1.30
5658.00,1.31
5657.00,1.31
5656.00,1.31
5655.00,1.32
5654.00,1.32
5653.00,1.32
5652.00,1.32
5651.00,1.33
5650.00,1.33
5649.00,1.33
5648.00,1.33
5647.00,1.34
5646.00,1.34
5645.00,1.34
5644.00,1.35
5643.00,1.35
5642.00,1.35
5641.00,1.36
5640.00,1.36
5639.00,1.36
5638.00,1.37
5637.00,1.37
5636.00,1.37
5635.00,1.38
5634.00,1.38
5633.00,1.38
5632.00,1.38
5631.00,1.39
5630.00,1.39
5629.00,1.39
5628.00,1.40
5627.00,1.40
5626.00,1.40
5625.00,1.40
5624.00,1.40
5623.00,1.41
5622.00,1.41
5621.00,1.41
5620.00,1.41
5619.00,1.42
5618.00,1.42
5617.00,1.42
5616.00,1.42
5615.00,1.42
5614.00,1.43
5613.00,1.43
5612.00,1.43
5611.00,1.43
5610.00,1.44
5609.00,1.44
5608.00,1.44
5607.00,1.44
5606.00,1.45
5605.00,1.45
5604.00,1.45
5603.00,1.45
5602.00,1.45
5601.00,1.46
5600.00,1.46
5599.00,1.46
5598.00,1.46
5597.00,1.46
5596.00,1.47
5595.00,1.47
5594.00,1.47
5593.00,1.47
5592.00,1.47
5591.00,1.48
5590.00,1.48
5589.00,1.48
5588.00,1.48
5587.00,1.48
5586.00,1.49
5585.00,1.49
5584.00,1.49
5583.00,1.49
5582.00,1.49
5581.00,1.50
5580.00,1.50
5579.00,1.50
5578.00,1.50
5577.00,1.50
5576.00,1.51
5575.00,1.51
5574.00,1.51
5573.00,1.51
5572.00,1.52
5571.00,1.52
5570.00,1.52
5569.00,1.52
5568.00,1.52
5567.00,1.53
5566.00,1.53
5565.00,1.53
5564.00,1.53
5563.00,1.53
5562.00,1.53
5561.00,1.54
5560.00,1.54
5559.00,1.54
5558.00,1.54
5557.00,1.54
5556.00,1.54
5555.00,1.54
5554.00,1.55
5553.00,1.55
5552.00,1.55
5551.00,1.55
5550.00,1.55
5549.00,1.55
5548.00,1.56
5547.00,1.56
5546.00,1.56
5545.00,1.56
5544.00,1.56
5543.00,1.56
5542.00,1.57
5541.00,1.57
5540.00,1.57
5539.00,1.57
5538.00,1.57
5537.00,1.57
5536.00,1.58
5535.00,1.58
5534.00,1.58
5533.00,1.58
5532.00,1.58
5531.00,1.58
5530.00,1.59
5529.00,1.59
5528.00,1.59
5527.00,1.59
5526.00,1.59
5525.00,1.59
5524.00,1.59
5523.00,1.60
5522.00,1.60
5521.00,1.60
5520.00,1.60
5519.00,1.60
5518.00,1.60
5517.00,1.60
5516.00,1.60
5515.00,1.60
5514.00,1.60
5513.00,1.61
5512.00,1.61
5511.00,1.61
5510.00,1.61
5509.00,1.61
5508.00,1.61
5507.00,1.61
5506.00,1.61
5505.00,1.61
5504.00,1.61
5503.00,1.61
5502.00,1.61
5501.00,1.61
5500.00,1.62
5499.00,1.62
5498.00,1.62
5497.00,1.62
5496.00,1.62
5495.00,1.62
5494.00,1.62
5493.00,1.62
5492.00,1.63
5491.00,1.63
5490.00,1.63
5489.00,1.63
5488.00,1.63
5487.00,1.64
5486.00,1.64
5485.00,1.64
5484.00,1.64
5483.00,1.64
5482.00,1.65
5481.00,1.65
5480.00,1.65
5479.00,1.65
5478.00,1.65
5477.00,1.66
5476.00,1.66
5475.00,1.66
5474.00,1.66
5473.00,1.66
5472.00,1.66
5471.00,1.67
5470.00,1.67
5469.00,1.67
5468.00,1.67
5467.00,1.67
5466.00,1.67
5465.00,1.68
5464.00,1.68
5463.00,1.68
5462.00,1.68
5461.00,1.68
5460.00,1.68
5459.00,1.68
5458.00,1.68
5457.00,1.68
5456.00,1.68
5455.00,1.69
5454.00,1.69
5453.00,1.69
5452.00,1.69
5451.00,1.69
5450.00,1.69
5449.00,1.69
5448.00,1.69
5447.00,1.69
5446.00,1.69
5445.00,1.70
5444.00,1.70
5443.00,1.70
5442.00,1.70
5441.00,1.70
5440.00,1.70
5439.00,1.70
5438.00,1.70
5437.00,1.71
5436.00,1.71
5435.00,1.71
5434.00,1.71
5433.00,1.71
5432.00,1.71
5431.00,1.71
5430.00,1.71
5429.00,1.71
5428.00,1.71
5427.00,1.71
5426.00,1.71
5425.00,1.71
5424.00,1.71
5423.00,1.71
5422.00,1.71
5421.00,1.71
5420.00,1.70
5419.00,1.70
5418.00,1.70
5417.00,1.70
5416.00,1.70
5415.00,1.70
5414.00,1.70
5413.00,1.71
5412.00,1.71
5411.00,1.71
5410.00,1.71
5409.00,1.71
5408.00,1.71
5407.00,1.71
5406.00,1.71
5405.00,1.71
5404.00,1.71
5403.00,1.71
5402.00,1.71
5401.00,1.71
5400.00,1.71
5399.00,1.71
5398.00,1.71
5397.00,1.71
5396.00,1.71
5395.00,1.71
5394.00,1.71
5393.00,1.71
5392.00,1.70
5391.00,1.70
5390.00,1.70
5389.00,1.70
5388.00,1.70
5387.00,1.70
5386.00,1.69
5385.00,1.69
5384.00,1.69
5383.00,1.69
5382.00,1.68
5381.00,1.68
5380.00,1.68
5379.00,1.67
5378.00,1.67
5377.00,1.67
5376.00,1.66
5375.00,1.66
5374.00,1.66
5373.00,1.65
5372.00,1.65
5371.00,1.64
5370.00,1.64
5369.00,1.63
5368.00,1.63
5367.00,1.62
5366.00,1.62
5365.00,1.61
5364.00,1.60
5363.00,1.60
5362.00,1.59
5361.00,1.58
5360.00,1.58
5359.00,1.57
5358.00,1.56
5357.00,1.55
5356.00,1.54
5355.00,1.54
5354.00,1.53
5353.00,1.52
5352.00,1.51
5351.00,1.50
5350.00,1.49
5349.00,1.48
5348.00,1.47
5347.00,1.45
5346.00,1.44
5345.00,1.43
5344.00,1.42
5343.00,1.41
5342.00,1.39
5341.00,1.38
5340.00,1.37
5339.00,1.35
5338.00,1.34
5337.00,1.32
5336.00,1.31
5335.00,1.29
5334.00,1.28
5333.00,1.26
5332.00,1.24
5331.00,1.23
5330.00,1.21
5329.00,1.20
5328.00,1.18
5327.00,1.17
5326.00,1.15
5325.00,1.13
5324.00,1.12
5323.00,1.10
5322.00,1.09
5321.00,1.07
5320.00,1.05
5319.00,1.04
5318.00,1.02
5317.00,1.01
5316.00,0.99
5315.00,0.98
5314.00,0.96
5313.00,0.95
5312.00,0.93
5311.00,0.92
5310.00,0.90
5309.00,0.89
5308.00,0.88
5307.00,0.86
5306.00,0.85
5305.00,0.84
5304.00,0.83
5303.00,0.82
5302.00,0.81
5301.00,0.80
5300.00,0.79
5299.00,0.78
5298.00,0.77
5297.00,0.76
5296.00,0.75
5295.00,0.75
5294.00,0.74
5293.00,0.73
5292.00,0.73
5291.00,0.72
5290.00,0.72
5289.00,0.71
5288.00,0.71
5287.00,0.70
5286.00,0.70
5285.00,0.70
5284.00,0.69
5283.00,0.69
5282.00,0.69
5281.00,0.68
5280.00,0.68
5279.00,0.68
5278.00,0.68
5277.00,0.67
5276.00,0.67
5275.00,0.67
5274.00,0.67
5273.00,0.66
5272.00,0.66
5271.00,0.66
5270.00,0.66
5269.00,0.66
5268.00,0.65
5267.00,0.65
5266.00,0.65
5265.00,0.65
5264.00,0.65
5263.00,0.65
5262.00,0.64
5261.00,0.64
5260.00,0.64
5259.00,0.64
5258.00,0.64
5257.00,0.64
5256.00,0.64
5255.00,0.64
5254.00,0.64
5253.00,0.64
5252.00,0.64
5251.00,0.64
5250.00,0.64
5249.00,0.63
5248.00,0.63
5247.00,0.63
5246.00,0.63
5245.00,0.63
5244.00,0.63
5243.00,0.63
5242.00,0.63
5241.00,0.63
5240.00,0.63
5239.00,0.63
5238.00,0.63
5237.00,0.63
5236.00,0.63
5235.00,0.63
5234.00,0.63
5233.00,0.62
5232.00,0.62
5231.00,0.62
5230.00,0.62
5229.00,0.62
5228.00,0.62
5227.00,0.62
5226.00,0.62
5225.00,0.62
5224.00,0.62
5223.00,0.62
5222.00,0.62
5221.00,0.62
5220.00,0.62
5219.00,0.62
5218.00,0.62
5217.00,0.62
5216.00,0.62
5215.00,0.62
5214.00,0.62
5213.00,0.62
5212.00,0.62
5211.00,0.63
5210.00,0.63
5209.00,0.63
5208.00,0.63
5207.00,0.63
5206.00,0.63
5205.00,0.63
5204.00,0.63
5203.00,0.63
5202.00,0.63
5201.00,0.63
5200.00,0.63
5199.00,0.63
5198.00,0.63
5197.00,0.63
5196.00,0.64
5195.00,0.64
5194.00,0.64
5193.00,0.64
5192.00,0.64
5191.00,0.64
5190.00,0.64
5189.00,0.64
5188.00,0.64
5187.00,0.64
5186.00,0.64
5185.00,0.65
5184.00,0.65
5183.00,0.65
5182.00,0.65
5181.00,0.65
5180.00,0.65
5179.00,0.65
5178.00,0.65
5177.00,0.65
5176.00,0.65
5175.00,0.65
5174.00,0.65
5173.00,0.65
5172.00,0.65
5171.00,0.65
5170.00,0.65
5169.00,0.65
5168.00,0.65
5167.00,0.65
5166.00,0.65
5165.00,0.65
5164.00,0.65
5163.00,0.65
5162.00,0.65
5161.00,0.65
5160.00,0.65
5159.00,0.65
5158.00,0.65
5157.00,0.65
5156.00,0.65
5155.00,0.65
5154.00,0.65
5153.00,0.65
5152.00,0.65
5151.00,0.65
5150.00,0.65
5149.00,0.65
5148.00,0.65
5147.00,0.65
5146.00,0.65
5145.00,0.65
5144.00,0.65
5143.00,0.66
5142.00,0.66
5141.00,0.66
5140.00,0.66
5139.00,0.66
5138.00,0.66
5137.00,0.66
5136.00,0.66
5135.00,0.66
5134.00,0.66
5133.00,0.66
5132.00,0.67
5131.00,0.67
5130.00,0.67
5129.00,0.67
5128.00,0.67
5127.00,0.67
5126.00,0.67
5125.00,0.67
5124.00,0.67
5123.00,0.67
5122.00,0.67
5121.00,0.67
5120.00,0.67
5119.00,0.67
5118.00,0.68
5117.00,0.68
5116.00,0.68
5115.00,0.68
5114.00,0.68
5113.00,0.68
5112.00,0.68
5111.00,0.69
5110.00,0.69
5109.00,0.69
5108.00,0.69
5107.00,0.69
5106.00,0.69
5105.00,0.69
5104.00,0.69
5103.00,0.69
5102.00,0.69
5101.00,0.69
5100.00,0.69
5099.00,0.69
5098.00,0.69
5097.00,0.70
5096.00,0.70
5095.00,0.70
5094.00,0.70
5093.00,0.70
5092.00,0.70
5091.00,0.70
5090.00,0.70
5089.00,0.70
5088.00,0.70
5087.00,0.70
5086.00,0.70
5085.00,0.70
5084.00,0.70
5083.00,0.71
5082.00,0.71
5081.00,0.71
5080.00,0.71
5079.00,0.71
5078.00,0.71
5077.00,0.72
5076.00,0.72
5075.00,0.72
5074.00,0.72
5073.00,0.72
5072.00,0.72
5071.00,0.72
5070.00,0.72
5069.00,0.73
5068.00,0.73
5067.00,0.73
5066.00,0.73
5065.00,0.73
5064.00,0.73
5063.00,0.73
5062.00,0.73
5061.00,0.73
5060.00,0.73
5059.00,0.74
5058.00,0.74
5057.00,0.74
5056.00,0.74
5055.00,0.74
5054.00,0.74
5053.00,0.74
5052.00,0.74
5051.00,0.74
5050.00,0.75
5049.00,0.75
5048.00,0.75
5047.00,0.75
5046.00,0.75
5045.00,0.75
5044.00,0.75
5043.00,0.75
5042.00,0.75
5041.00,0.76
5040.00,0.76
5039.00,0.76
5038.00,0.76
5037.00,0.76
5036.00,0.76
5035.00,0.76
5034.00,0.76
5033.00,0.76
5032.00,0.76
5031.00,0.77
5030.00,0.77
5029.00,0.77
5028.00,0.77
5027.00,0.77
5026.00,0.77
5025.00,0.77
5024.00,0.77
5023.00,0.78
5022.00,0.78
5021.00,0.78
5020.00,0.78
5019.00,0.78
5018.00,0.78
5017.00,0.78
5016.00,0.79
5015.00,0.79
5014.00,0.79
5013.00,0.79
5012.00,0.79
5011.00,0.79
5010.00,0.80
5009.00,0.80
5008.00,0.80
5007.00,0.80
5006.00,0.81
5005.00,0.81
5004.00,0.81
5003.00,0.81
5002.00,0.82
5001.00,0.82
5000.00,0.82
4999.00,0.82
4998.00,0.83
4997.00,0.83
4996.00,0.83
4995.00,0.83
4994.00,0.83
4993.00,0.84
4992.00,0.84
4991.00,0.84
4990.00,0.84
4989.00,0.84
4988.00,0.85
4987.00,0.85
4986.00,0.85
4985.00,0.85
4984.00,0.85
4983.00,0.85
4982.00,0.85
4981.00,0.86
4980.00,0.86
4979.00,0.86
4978.00,0.86
4977.00,0.86
4976.00,0.86
4975.00,0.86
4974.00,0.87
4973.00,0.87
4972.00,0.87
4971.00,0.87
4970.00,0.87
4969.00,0.87
4968.00,0.88
4967.00,0.88
4966.00,0.88
4965.00,0.88
4964.00,0.88
4963.00,0.88
4962.00,0.89
4961.00,0.89
4960.00,0.89
4959.00,0.89
4958.00,0.89
4957.00,0.89
4956.00,0.89
4955.00,0.89
4954.00,0.89
4953.00,0.90
4952.00,0.90
4951.00,0.90
4950.00,0.90
4949.00,0.90
4948.00,0.90
4947.00,0.90
4946.00,0.90
4945.00,0.90
4944.00,0.91
4943.00,0.91
4942.00,0.91
4941.00,0.91
4940.00,0.91
4939.00,0.91
4938.00,0.91
4937.00,0.91
4936.00,0.91
4935.00,0.91
4934.00,0.92
4933.00,0.92
4932.00,0.92
4931.00,0.92
4930.00,0.92
4929.00,0.92
4928.00,0.92
4927.00,0.92
4926.00,0.92
4925.00,0.92
4924.00,0.93
4923.00,0.93
4922.00,0.93
4921.00,0.93
4920.00,0.93
4919.00,0.93
4918.00,0.93
4917.00,0.93
4916.00,0.93
4915.00,0.93
4914.00,0.93
4913.00,0.93
4912.00,0.93
4911.00,0.93
4910.00,0.94
4909.00,0.94
4908.00,0.94
4907.00,0.94
4906.00,0.94
4905.00,0.94
4904.00,0.94
4903.00,0.94
4902.00,0.94
4901.00,0.94
4900.00,0.95
4899.00,0.95
4898.00,0.95
4897.00,0.95
4896.00,0.95
4895.00,0.95
4894.00,0.95
4893.00,0.95
4892.00,0.95
4891.00,0.96
4890.00,0.96
4889.00,0.96
4888.00,0.96
4887.00,0.96
4886.00,0.96
4885.00,0.96
4884.00,0.96
4883.00,0.96
4882.00,0.96
4881.00,0.97
4880.00,0.97
4879.00,0.97
4878.00,0.97
4877.00,0.97
4876.00,0.97
4875.00,0.96
4874.00,0.96
4873.00,0.96
4872.00,0.96
4871.00,0.96
4870.00,0.96
4869.00,0.96
4868.00,0.96
4867.00,0.97
4866.00,0.97
4865.00,0.97
4864.00,0.97
4863.00,0.97
4862.00,0.97
4861.00,0.97
4860.00,0.98
4859.00,0.98
4858.00,0.98
4857.00,0.98
4856.00,0.98
4855.00,0.98
4854.00,0.99
4853.00,0.99
4852.00,0.99
4851.00,0.99
4850.00,0.99
4849.00,0.99
4848.00,0.99
4847.00,0.99
4846.00,1.00
4845.00,1.00
4844.00,1.00
4843.00,1.00
4842.00,1.00
4841.00,1.00
4840.00,1.01
4839.00,1.01
4838.00,1.01
4837.00,1.01
4836.00,1.01
4835.00,1.01
4834.00,1.01
4833.00,1.01
4832.00,1.01
4831.00,1.01
4830.00,1.01
4829.00,1.02
4828.00,1.02
4827.00,1.02
4826.00,1.02
4825.00,1.02
4824.00,1.02
4823.00,1.02
4822.00,1.02
4821.00,1.02
4820.00,1.02
4819.00,1.02
4818.00,1.02
4817.00,1.02
4816.00,1.02
4815.00,1.02
4814.00,1.02
4813.00,1.03
4812.00,1.03
4811.00,1.03
4810.00,1.03
4809.00,1.03
4808.00,1.03
4807.00,1.03
4806.00,1.03
4805.00,1.03
4804.00,1.03
4803.00,1.03
4802.00,1.04
4801.00,1.04
4800.00,1.04
4799.00,1.04
4798.00,1.04
4797.00,1.04
4796.00,1.04
4795.00,1.05
4794.00,1.05
4793.00,1.05
4792.00,1.06
4791.00,1.06
4790.00,1.06
4789.00,1.07
4788.00,1.07
4787.00,1.07
4786.00,1.08
4785.00,1.08
4784.00,1.08
4783.00,1.09
4782.00,1.09
4781.00,1.09
4780.00,1.10
4779.00,1.10
4778.00,1.10
4777.00,1.10
4776.00,1.11
4775.00,1.11
4774.00,1.11
4773.00,1.11
4772.00,1.11
4771.00,1.12
4770.00,1.12
4769.00,1.12
4768.00,1.12
4767.00,1.12
4766.00,1.13
4765.00,1.13
4764.00,1.13
4763.00,1.13
4762.00,1.13
4761.00,1.14
4760.00,1.14
4759.00,1.14
4758.00,1.14
4757.00,1.15
4756.00,1.15
4755.00,1.15
4754.00,1.16
4753.00,1.16
4752.00,1.17
4751.00,1.17
4750.00,1.17
4749.00,1.18
4748.00,1.18
4747.00,1.18
4746.00,1.19
4745.00,1.19
4744.00,1.19
4743.00,1.20
4742.00,1.20
4741.00,1.20
4740.00,1.20
4739.00,1.21
4738.00,1.21
4737.00,1.21
4736.00,1.21
4735.00,1.22
4734.00,1.22
4733.00,1.22
4732.00,1.22
4731.00,1.23
4730.00,1.23
4729.00,1.23
4728.00,1.24
4727.00,1.24
4726.00,1.24
4725.00,1.24
4724.00,1.25
4723.00,1.25
4722.00,1.25
4721.00,1.25
4720.00,1.26
4719.00,1.26
4718.00,1.26
4717.00,1.26
4716.00,1.27
4715.00,1.27
4714.00,1.27
4713.00,1.27
4712.00,1.28
4711.00,1.28
4710.00,1.28
4709.00,1.28
4708.00,1.28
4707.00,1.29
4706.00,1.29
4705.00,1.29
4704.00,1.29
4703.00,1.29
4702.00,1.30
4701.00,1.30
4700.00,1.30
4699.00,1.31
4698.00,1.31
4697.00,1.31
4696.00,1.31
4695.00,1.32
4694.00,1.32
4693.00,1.32
4692.00,1.33
4691.00,1.33
4690.00,1.33
4689.00,1.34
4688.00,1.34
4687.00,1.34
4686.00,1.35
4685.00,1.35
4684.00,1.35
4683.00,1.36
4682.00,1.36
4681.00,1.36
4680.00,1.37
4679.00,1.37
4678.00,1.37
4677.00,1.37
4676.00,1.38
4675.00,1.38
4674.00,1.38
4673.00,1.39
4672.00,1.39
4671.00,1.39
4670.00,1.40
4669.00,1.40
4668.00,1.40
4667.00,1.40
4666.00,1.41
4665.00,1.41
4664.00,1.41
4663.00,1.42
4662.00,1.42
4661.00,1.42
4660.00,1.43
4659.00,1.43
4658.00,1.43
4657.00,1.43
4656.00,1.44
4655.00,1.44
4654.00,1.44
4653.00,1.44
4652.00,1.45
4651.00,1.45
4650.00,1.45
4649.00,1.45
4648.00,1.45
4647.00,1.46
4646.00,1.46
4645.00,1.46
4644.00,1.46
4643.00,1.47
4642.00,1.47
4641.00,1.47
4640.00,1.47
4639.00,1.48
4638.00,1.48
4637.00,1.48
4636.00,1.49
4635.00,1.49
4634.00,1.49
4633.00,1.49
4632.00,1.49
4631.00,1.50
4630.00,1.50
4629.00,1.50
4628.00,1.50
4627.00,1.50
4626.00,1.50
4625.00,1.51
4624.00,1.51
4623.00,1.51
4622.00,1.51
4621.00,1.51
4620.00,1.52
4619.00,1.52
4618.00,1.52
4617.00,1.52
4616.00,1.52
4615.00,1.53
4614.00,1.53
4613.00,1.53
4612.00,1.53
4611.00,1.53
4610.00,1.53
4609.00,1.53
4608.00,1.53
4607.00,1.53
4606.00,1.53
4605.00,1.53
4604.00,1.53
4603.00,1.54
4602.00,1.54
4601.00,1.54
4600.00,1.54
4599.00,1.54
4598.00,1.54
4597.00,1.55
4596.00,1.55
4595.00,1.55
4594.00,1.55
4593.00,1.55
4592.00,1.55
4591.00,1.56
4590.00,1.56
4589.00,1.56
4588.00,1.56
4587.00,1.56
4586.00,1.56
4585.00,1.57
4584.00,1.57
4583.00,1.57
4582.00,1.57
4581.00,1.57
4580.00,1.57
4579.00,1.58
4578.00,1.58
4577.00,1.58
4576.00,1.58
4575.00,1.58
4574.00,1.58
4573.00,1.59
4572.00,1.59
4571.00,1.59
4570.00,1.59
4569.00,1.59
4568.00,1.59
4567.00,1.60
4566.00,1.60
4565.00,1.60
4564.00,1.60
4563.00,1.60
4562.00,1.60
4561.00,1.61
4560.00,1.61
4559.00,1.61
4558.00,1.61
4557.00,1.61
4556.00,1.61
4555.00,1.62
4554.00,1.62
4553.00,1.62
4552.00,1.62
4551.00,1.62
4550.00,1.62
4549.00,1.63
4548.00,1.63
4547.00,1.63
4546.00,1.63
4545.00,1.63
4544.00,1.63
4543.00,1.63
4542.00,1.63
4541.00,1.63
4540.00,1.63
4539.00,1.63
4538.00,1.63
4537.00,1.63
4536.00,1.63
4535.00,1.63
4534.00,1.63
4533.00,1.63
4532.00,1.63
4531.00,1.64
4530.00,1.64
4529.00,1.64
4528.00,1.64
4527.00,1.64
4526.00,1.64
4525.00,1.64
4524.00,1.64
4523.00,1.64
4522.00,1.64
4521.00,1.64
4520.00,1.64
4519.00,1.64
4518.00,1.64
4517.00,1.64
4516.00,1.64
4515.00,1.65
4514.00,1.65
4513.00,1.65
4512.00,1.65
4511.00,1.65
4510.00,1.65
4509.00,1.65
4508.00,1.65
4507.00,1.65
4506.00,1.65
4505.00,1.65
4504.00,1.65
4503.00,1.65
4502.00,1.65
4501.00,1.64
4500.00,1.64
4499.00,1.64
4498.00,1.64
4497.00,1.63
4496.00,1.63
4495.00,1.63
4494.00,1.63
4493.00,1.62
4492.00,1.62
4491.00,1.62
4490.00,1.62
4489.00,1.61
4488.00,1.61
4487.00,1.61
4486.00,1.60
4485.00,1.60
4484.00,1.60
4483.00,1.60
4482.00,1.59
4481.00,1.59
4480.00,1.59
4479.00,1.58
4478.00,1.58
4477.00,1.58
4476.00,1.57
4475.00,1.57
4474.00,1.56
4473.00,1.56
4472.00,1.55
4471.00,1.55
4470.00,1.54
4469.00,1.54
4468.00,1.53
4467.00,1.52
4466.00,1.52
4465.00,1.51
4464.00,1.51
4463.00,1.50
4462.00,1.50
4461.00,1.49
4460.00,1.49
4459.00,1.48
4458.00,1.47
4457.00,1.47
4456.00,1.46
4455.00,1.45
4454.00,1.45
4453.00,1.44
4452.00,1.43
4451.00,1.42
4450.00,1.42
4449.00,1.41
4448.00,1.40
4447.00,1.39
4446.00,1.38
4445.00,1.37
4444.00,1.36
4443.00,1.35
4442.00,1.34
4441.00,1.34
4440.00,1.33
4439.00,1.32
4438.00,1.31
4437.00,1.30
4436.00,1.29
4435.00,1.28
4434.00,1.28
4433.00,1.27
4432.00,1.26
4431.00,1.26
4430.00,1.25
4429.00,1.25
4428.00,1.24
4427.00,1.24
4426.00,1.24
4425.00,1.23
4424.00,1.23
4423.00,1.23
4422.00,1.23
4421.00,1.23
4420.00,1.23
4419.00,1.23
4418.00,1.23
4417.00,1.23
4416.00,1.23
4415.00,1.23
4414.00,1.23
4413.00,1.23
4412.00,1.23
4411.00,1.23
4410.00,1.23
4409.00,1.23
4408.00,1.23
4407.00,1.23
4406.00,1.23
4405.00,1.23
4404.00,1.23
4403.00,1.23
4402.00,1.23
4401.00,1.23
4400.00,1.23
4399.00,1.23
4398.00,1.24
4397.00,1.24
4396.00,1.24
4395.00,1.24
4394.00,1.24
4393.00,1.25
4392.00,1.25
4391.00,1.25
4390.00,1.25
4389.00,1.26
4388.00,1.26
4387.00,1.26
4386.00,1.26
4385.00,1.26
4384.00,1.26
4383.00,1.27
4382.00,1.27
4381.00,1.27
4380.00,1.27
4379.00,1.27
4378.00,1.27
4377.00,1.27
4376.00,1.27
4375.00,1.28
4374.00,1.28
4373.00,1.28
4372.00,1.28
4371.00,1.28
4370.00,1.28
4369.00,1.28
4368.00,1.28
4367.00,1.28
4366.00,1.28
4365.00,1.28
4364.00,1.28
4363.00,1.28
4362.00,1.28
4361.00,1.28
4360.00,1.28
4359.00,1.28
4358.00,1.28
4357.00,1.28
4356.00,1.28
4355.00,1.28
4354.00,1.28
4353.00,1.28
4352.00,1.28
4351.00,1.28
4350.00,1.28
4349.00,1.28
4348.00,1.28
4347.00,1.28
4346.00,1.28
4345.00,1.28
4344.00,1.28
4343.00,1.28
4342.00,1.28
4341.00,1.28
4340.00,1.28
4339.00,1.28
4338.00,1.28
4337.00,1.28
4336.00,1.28
4335.00,1.28
4334.00,1.29
4333.00,1.29
4332.00,1.29
4331.00,1.29
4330.00,1.29
4329.00,1.30
4328.00,1.30
4327.00,1.30
4326.00,1.31
4325.00,1.31
4324.00,1.31
4323.00,1.31
4322.00,1.31
4321.00,1.32
4320.00,1.32
4319.00,1.32
4318.00,1.32
4317.00,1.32
4316.00,1.33
4315.00,1.33
4314.00,1.33
4313.00,1.33
4312.00,1.33
4311.00,1.34
4310.00,1.34
4309.00,1.34
4308.00,1.35
4307.00,1.35
4306.00,1.35
4305.00,1.36
4304.00,1.36
4303.00,1.36
4302.00,1.37
4301.00,1.37
4300.00,1.38
4299.00,1.38
4298.00,1.39
4297.00,1.39
4296.00,1.39
4295.00,1.40
4294.00,1.40
4293.00,1.40
4292.00,1.40
4291.00,1.41
4290.00,1.41
4289.00,1.41
4288.00,1.41
4287.00,1.41
4286.00,1.42
4285.00,1.42
4284.00,1.42
4283.00,1.42
4282.00,1.42
4281.00,1.42
4280.00,1.42
4279.00,1.42
4278.00,1.43
4277.00,1.43
4276.00,1.43
4275.00,1.43
4274.00,1.43
4273.00,1.43
4272.00,1.43
4271.00,1.43
4270.00,1.43
4269.00,1.43
4268.00,1.42
4267.00,1.42
4266.00,1.42
4265.00,1.42
4264.00,1.42
4263.00,1.42
4262.00,1.42
4261.00,1.42
4260.00,1.42
4259.00,1.41
4258.00,1.41
4257.00,1.41
4256.00,1.41
4255.00,1.41
4254.00,1.41
4253.00,1.41
4252.00,1.41
4251.00,1.41
4250.00,1.41
4249.00,1.41
4248.00,1.41
4247.00,1.42
4246.00,1.42
4245.00,1.42
4244.00,1.42
4243.00,1.43
4242.00,1.43
4241.00,1.43
4240.00,1.44
4239.00,1.44
4238.00,1.45
4237.00,1.45
4236.00,1.46
4235.00,1.46
4234.00,1.47
4233.00,1.47
4232.00,1.48
4231.00,1.48
4230.00,1.48
4229.00,1.49
4228.00,1.49
4227.00,1.50
4226.00,1.50
4225.00,1.50
4224.00,1.50
4223.00,1.51
4222.00,1.51
4221.00,1.51
4220.00,1.51
4219.00,1.51
4218.00,1.51
4217.00,1.51
4216.00,1.51
4215.00,1.51
4214.00,1.51
4213.00,1.51
4212.00,1.51
4211.00,1.51
4210.00,1.51
4209.00,1.51
4208.00,1.51
4207.00,1.51
4206.00,1.51
4205.00,1.51
4204.00,1.51
4203.00,1.51
4202.00,1.51
4201.00,1.51
4200.00,1.51
4199.00,1.52
4198.00,1.52
4197.00,1.52
4196.00,1.52
4195.00,1.52
4194.00,1.52
4193.00,1.52
4192.00,1.53
4191.00,1.53
4190.00,1.53
4189.00,1.53
4188.00,1.53
4187.00,1.53
4186.00,1.53
4185.00,1.53
4184.00,1.53
4183.00,1.53
4182.00,1.53
4181.00,1.53
4180.00,1.53
4179.00,1.53
4178.00,1.53
4177.00,1.52
4176.00,1.52
4175.00,1.52
4174.00,1.52
4173.00,1.52
4172.00,1.51
4171.00,1.51
4170.00,1.51
4169.00,1.51
4168.00,1.51
4167.00,1.51
4166.00,1.51
4165.00,1.51
4164.00,1.51
4163.00,1.51
4162.00,1.52
4161.00,1.52
4160.00,1.52
4159.00,1.52
4158.00,1.53
4157.00,1.53
4156.00,1.53
4155.00,1.54
4154.00,1.54
4153.00,1.54
4152.00,1.54
4151.00,1.54
4150.00,1.54
4149.00,1.55
4148.00,1.55
4147.00,1.55
4146.00,1.55
4145.00,1.55
4144.00,1.55
4143.00,1.55
4142.00,1.55
4141.00,1.55
4140.00,1.55
4139.00,1.55
4138.00,1.55
4137.00,1.55
4136.00,1.55
4135.00,1.55
4134.00,1.55
4133.00,1.56
4132.00,1.56
4131.00,1.56
4130.00,1.56
4129.00,1.56
4128.00,1.56
4127.00,1.57
4126.00,1.57
4125.00,1.57
4124.00,1.57
4123.00,1.57
4122.00,1.57
4121.00,1.57
4120.00,1.58
4119.00,1.58
4118.00,1.58
4117.00,1.58
4116.00,1.58
4115.00,1.58
4114.00,1.58
4113.00,1.58
4112.00,1.59
4111.00,1.59
4110.00,1.59
4109.00,1.59
4108.00,1.59
4107.00,1.59
4106.00,1.59
4105.00,1.59
4104.00,1.58
4103.00,1.58
4102.00,1.58
4101.00,1.58
4100.00,1.58
4099.00,1.58
4098.00,1.58
4097.00,1.58
4096.00,1.58
4095.00,1.58
4094.00,1.58
4093.00,1.58
4092.00,1.58
4091.00,1.58
4090.00,1.58
4089.00,1.58
4088.00,1.58
4087.00,1.58
4086.00,1.58
4085.00,1.58
4084.00,1.58
4083.00,1.58
4082.00,1.58
4081.00,1.58
4080.00,1.58
4079.00,1.59
4078.00,1.59
4077.00,1.59
4076.00,1.59
4075.00,1.59
4074.00,1.59
4073.00,1.60
4072.00,1.60
4071.00,1.60
4070.00,1.60
4069.00,1.60
4068.00,1.61
4067.00,1.61
4066.00,1.61
4065.00,1.61
4064.00,1.61
4063.00,1.61
4062.00,1.62
4061.00,1.62
4060.00,1.62
4059.00,1.62
4058.00,1.62
4057.00,1.62
4056.00,1.62
4055.00,1.62
4054.00,1.61
4053.00,1.61
4052.00,1.61
4051.00,1.61
4050.00,1.61
4049.00,1.62
4048.00,1.62
4047.00,1.62
4046.00,1.62
4045.00,1.62
4044.00,1.62
4043.00,1.63
4042.00,1.63
4041.00,1.63
4040.00,1.64
4039.00,1.64
4038.00,1.64
4037.00,1.64
4036.00,1.65
4035.00,1.65
4034.00,1.65
4033.00,1.65
4032.00,1.65
4031.00,1.65
4030.00,1.66
4029.00,1.66
4028.00,1.66
4027.00,1.66
4026.00,1.66
4025.00,1.66
4024.00,1.66
4023.00,1.66
4022.00,1.66
4021.00,1.66
4020.00,1.66
4019.00,1.66
4018.00,1.66
4017.00,1.66
4016.00,1.66
4015.00,1.67
4014.00,1.67
4013.00,1.67
4012.00,1.68
4011.00,1.68
4010.00,1.69
4009.00,1.69
4008.00,1.69
4007.00,1.70
4006.00,1.70
4005.00,1.70
4004.00,1.70
4003.00,1.70
4002.00,1.71
4001.00,1.71
4000.00,1.71
