创建为新数据集,样品 134 用户 Administrator 日期 星期三, 十一月 08 2017
cm-1,%T
10000.00,1.55
9999.00,1.55
9998.00,1.55
9997.00,1.55
9996.00,1.55
9995.00,1.55
9994.00,1.55
9993.00,1.55
9992.00,1.55
9991.00,1.55
9990.00,1.55
9989.00,1.55
9988.00,1.55
9987.00,1.55
9986.00,1.55
9985.00,1.55
9984.00,1.55
9983.00,1.55
9982.00,1.55
9981.00,1.55
9980.00,1.55
9979.00,1.55
9978.00,1.55
9977.00,1.55
9976.00,1.55
9975.00,1.55
9974.00,1.55
9973.00,1.55
9972.00,1.54
9971.00,1.54
9970.00,1.54
9969.00,1.54
9968.00,1.54
9967.00,1.54
9966.00,1.54
9965.00,1.54
9964.00,1.54
9963.00,1.54
9962.00,1.54
9961.00,1.54
9960.00,1.53
9959.00,1.53
9958.00,1.53
9957.00,1.53
9956.00,1.53
9955.00,1.53
9954.00,1.53
9953.00,1.53
9952.00,1.53
9951.00,1.53
9950.00,1.53
9949.00,1.53
9948.00,1.53
9947.00,1.53
9946.00,1.53
9945.00,1.53
9944.00,1.53
9943.00,1.53
9942.00,1.53
9941.00,1.53
9940.00,1.53
9939.00,1.53
9938.00,1.52
9937.00,1.52
9936.00,1.52
9935.00,1.52
9934.00,1.52
9933.00,1.51
9932.00,1.51
9931.00,1.51
9930.00,1.51
9929.00,1.50
9928.00,1.50
9927.00,1.50
9926.00,1.50
9925.00,1.50
9924.00,1.50
9923.00,1.50
9922.00,1.50
9921.00,1.50
9920.00,1.50
9919.00,1.50
9918.00,1.50
9917.00,1.50
9916.00,1.50
9915.00,1.50
9914.00,1.50
9913.00,1.50
9912.00,1.50
9911.00,1.50
9910.00,1.50
9909.00,1.50
9908.00,1.50
9907.00,1.50
9906.00,1.51
9905.00,1.51
9904.00,1.51
9903.00,1.51
9902.00,1.51
9901.00,1.51
9900.00,1.51
9899.00,1.52
9898.00,1.52
9897.00,1.52
9896.00,1.52
9895.00,1.52
9894.00,1.52
9893.00,1.52
9892.00,1.52
9891.00,1.51
9890.00,1.51
9889.00,1.51
9888.00,1.51
9887.00,1.51
9886.00,1.51
9885.00,1.51
9884.00,1.51
9883.00,1.50
9882.00,1.50
9881.00,1.50
9880.00,1.50
9879.00,1.50
9878.00,1.50
9877.00,1.50
9876.00,1.50
9875.00,1.50
9874.00,1.50
9873.00,1.50
9872.00,1.50
9871.00,1.50
9870.00,1.50
9869.00,1.50
9868.00,1.50
9867.00,1.51
9866.00,1.51
9865.00,1.51
9864.00,1.51
9863.00,1.51
9862.00,1.51
9861.00,1.51
9860.00,1.51
9859.00,1.51
9858.00,1.51
9857.00,1.51
9856.00,1.51
9855.00,1.51
9854.00,1.51
9853.00,1.51
9852.00,1.51
9851.00,1.51
9850.00,1.51
9849.00,1.51
9848.00,1.51
9847.00,1.51
9846.00,1.51
9845.00,1.51
9844.00,1.51
9843.00,1.51
9842.00,1.51
9841.00,1.51
9840.00,1.51
9839.00,1.51
9838.00,1.51
9837.00,1.51
9836.00,1.51
9835.00,1.51
9834.00,1.51
9833.00,1.51
9832.00,1.51
9831.00,1.51
9830.00,1.51
9829.00,1.51
9828.00,1.50
9827.00,1.50
9826.00,1.50
9825.00,1.50
9824.00,1.50
9823.00,1.50
9822.00,1.50
9821.00,1.50
9820.00,1.50
9819.00,1.50
9818.00,1.50
9817.00,1.50
9816.00,1.50
9815.00,1.51
9814.00,1.51
9813.00,1.51
9812.00,1.51
9811.00,1.51
9810.00,1.51
9809.00,1.51
9808.00,1.51
9807.00,1.51
9806.00,1.51
9805.00,1.51
9804.00,1.51
9803.00,1.51
9802.00,1.51
9801.00,1.51
9800.00,1.52
9799.00,1.52
9798.00,1.52
9797.00,1.52
9796.00,1.52
9795.00,1.52
9794.00,1.52
9793.00,1.53
9792.00,1.53
9791.00,1.53
9790.00,1.53
9789.00,1.53
9788.00,1.54
9787.00,1.54
9786.00,1.54
9785.00,1.54
9784.00,1.54
9783.00,1.54
9782.00,1.54
9781.00,1.54
9780.00,1.54
9779.00,1.54
9778.00,1.54
9777.00,1.53
9776.00,1.53
9775.00,1.53
9774.00,1.53
9773.00,1.53
9772.00,1.53
9771.00,1.52
9770.00,1.52
9769.00,1.52
9768.00,1.52
9767.00,1.52
9766.00,1.52
9765.00,1.52
9764.00,1.53
9763.00,1.53
9762.00,1.53
9761.00,1.53
9760.00,1.53
9759.00,1.54
9758.00,1.54
9757.00,1.54
9756.00,1.54
9755.00,1.54
9754.00,1.54
9753.00,1.54
9752.00,1.54
9751.00,1.55
9750.00,1.54
9749.00,1.54
9748.00,1.54
9747.00,1.54
9746.00,1.54
9745.00,1.54
9744.00,1.54
9743.00,1.54
9742.00,1.54
9741.00,1.54
9740.00,1.54
9739.00,1.53
9738.00,1.53
9737.00,1.53
9736.00,1.53
9735.00,1.53
9734.00,1.53
9733.00,1.53
9732.00,1.53
9731.00,1.53
9730.00,1.53
9729.00,1.53
9728.00,1.52
9727.00,1.52
9726.00,1.52
9725.00,1.52
9724.00,1.52
9723.00,1.52
9722.00,1.52
9721.00,1.52
9720.00,1.51
9719.00,1.51
9718.00,1.51
9717.00,1.51
9716.00,1.51
9715.00,1.51
9714.00,1.51
9713.00,1.51
9712.00,1.51
9711.00,1.50
9710.00,1.50
9709.00,1.50
9708.00,1.50
9707.00,1.50
9706.00,1.50
9705.00,1.50
9704.00,1.50
9703.00,1.50
9702.00,1.50
9701.00,1.50
9700.00,1.50
9699.00,1.50
9698.00,1.50
9697.00,1.50
9696.00,1.50
9695.00,1.51
9694.00,1.51
9693.00,1.51
9692.00,1.51
9691.00,1.51
9690.00,1.51
9689.00,1.51
9688.00,1.52
9687.00,1.52
9686.00,1.52
9685.00,1.52
9684.00,1.52
9683.00,1.52
9682.00,1.52
9681.00,1.52
9680.00,1.52
9679.00,1.52
9678.00,1.52
9677.00,1.52
9676.00,1.52
9675.00,1.52
9674.00,1.52
9673.00,1.52
9672.00,1.52
9671.00,1.52
9670.00,1.52
9669.00,1.52
9668.00,1.52
9667.00,1.52
9666.00,1.52
9665.00,1.52
9664.00,1.52
9663.00,1.53
9662.00,1.53
9661.00,1.53
9660.00,1.53
9659.00,1.53
9658.00,1.54
9657.00,1.54
9656.00,1.54
9655.00,1.54
9654.00,1.54
9653.00,1.54
9652.00,1.54
9651.00,1.54
9650.00,1.54
9649.00,1.54
9648.00,1.54
9647.00,1.53
9646.00,1.53
9645.00,1.53
9644.00,1.53
9643.00,1.52
9642.00,1.52
9641.00,1.52
9640.00,1.51
9639.00,1.51
9638.00,1.51
9637.00,1.51
9636.00,1.51
9635.00,1.51
9634.00,1.50
9633.00,1.50
9632.00,1.50
9631.00,1.50
9630.00,1.50
9629.00,1.51
9628.00,1.51
9627.00,1.51
9626.00,1.51
9625.00,1.51
9624.00,1.51
9623.00,1.51
9622.00,1.51
9621.00,1.51
9620.00,1.51
9619.00,1.51
9618.00,1.51
9617.00,1.50
9616.00,1.50
9615.00,1.50
9614.00,1.50
9613.00,1.50
9612.00,1.50
9611.00,1.50
9610.00,1.50
9609.00,1.50
9608.00,1.50
9607.00,1.50
9606.00,1.50
9605.00,1.50
9604.00,1.50
9603.00,1.50
9602.00,1.50
9601.00,1.50
9600.00,1.50
9599.00,1.50
9598.00,1.50
9597.00,1.50
9596.00,1.50
9595.00,1.51
9594.00,1.51
9593.00,1.51
9592.00,1.51
9591.00,1.51
9590.00,1.51
9589.00,1.51
9588.00,1.51
9587.00,1.51
9586.00,1.51
9585.00,1.52
9584.00,1.52
9583.00,1.52
9582.00,1.52
9581.00,1.52
9580.00,1.52
9579.00,1.52
9578.00,1.52
9577.00,1.52
9576.00,1.52
9575.00,1.52
9574.00,1.52
9573.00,1.52
9572.00,1.52
9571.00,1.52
9570.00,1.52
9569.00,1.52
9568.00,1.52
9567.00,1.52
9566.00,1.52
9565.00,1.52
9564.00,1.52
9563.00,1.52
9562.00,1.52
9561.00,1.52
9560.00,1.52
9559.00,1.52
9558.00,1.52
9557.00,1.52
9556.00,1.52
9555.00,1.52
9554.00,1.52
9553.00,1.52
9552.00,1.53
9551.00,1.53
9550.00,1.53
9549.00,1.53
9548.00,1.53
9547.00,1.53
9546.00,1.53
9545.00,1.53
9544.00,1.53
9543.00,1.53
9542.00,1.53
9541.00,1.53
9540.00,1.53
9539.00,1.53
9538.00,1.52
9537.00,1.52
9536.00,1.52
9535.00,1.52
9534.00,1.52
9533.00,1.52
9532.00,1.51
9531.00,1.51
9530.00,1.51
9529.00,1.51
9528.00,1.51
9527.00,1.51
9526.00,1.51
9525.00,1.51
9524.00,1.51
9523.00,1.51
9522.00,1.51
9521.00,1.51
9520.00,1.51
9519.00,1.52
9518.00,1.52
9517.00,1.52
9516.00,1.52
9515.00,1.52
9514.00,1.52
9513.00,1.52
9512.00,1.53
9511.00,1.53
9510.00,1.53
9509.00,1.53
9508.00,1.53
9507.00,1.53
9506.00,1.53
9505.00,1.53
9504.00,1.53
9503.00,1.53
9502.00,1.53
9501.00,1.53
9500.00,1.53
9499.00,1.53
9498.00,1.53
9497.00,1.53
9496.00,1.53
9495.00,1.53
9494.00,1.53
9493.00,1.53
9492.00,1.53
9491.00,1.53
9490.00,1.52
9489.00,1.52
9488.00,1.52
9487.00,1.52
9486.00,1.52
9485.00,1.52
9484.00,1.52
9483.00,1.52
9482.00,1.52
9481.00,1.52
9480.00,1.52
9479.00,1.52
9478.00,1.52
9477.00,1.52
9476.00,1.52
9475.00,1.52
9474.00,1.52
9473.00,1.52
9472.00,1.52
9471.00,1.52
9470.00,1.52
9469.00,1.52
9468.00,1.52
9467.00,1.52
9466.00,1.52
9465.00,1.52
9464.00,1.52
9463.00,1.52
9462.00,1.52
9461.00,1.53
9460.00,1.53
9459.00,1.53
9458.00,1.53
9457.00,1.53
9456.00,1.53
9455.00,1.53
9454.00,1.53
9453.00,1.52
9452.00,1.52
9451.00,1.52
9450.00,1.52
9449.00,1.52
9448.00,1.52
9447.00,1.52
9446.00,1.52
9445.00,1.52
9444.00,1.52
9443.00,1.52
9442.00,1.52
9441.00,1.52
9440.00,1.52
9439.00,1.52
9438.00,1.52
9437.00,1.52
9436.00,1.52
9435.00,1.52
9434.00,1.52
9433.00,1.52
9432.00,1.52
9431.00,1.52
9430.00,1.52
9429.00,1.52
9428.00,1.52
9427.00,1.52
9426.00,1.52
9425.00,1.52
9424.00,1.52
9423.00,1.52
9422.00,1.52
9421.00,1.52
9420.00,1.52
9419.00,1.52
9418.00,1.52
9417.00,1.52
9416.00,1.52
9415.00,1.52
9414.00,1.52
9413.00,1.52
9412.00,1.52
9411.00,1.52
9410.00,1.52
9409.00,1.52
9408.00,1.52
9407.00,1.52
9406.00,1.53
9405.00,1.53
9404.00,1.53
9403.00,1.53
9402.00,1.53
9401.00,1.53
9400.00,1.53
9399.00,1.53
9398.00,1.53
9397.00,1.53
9396.00,1.53
9395.00,1.53
9394.00,1.53
9393.00,1.53
9392.00,1.53
9391.00,1.53
9390.00,1.53
9389.00,1.53
9388.00,1.53
9387.00,1.53
9386.00,1.53
9385.00,1.53
9384.00,1.53
9383.00,1.53
9382.00,1.53
9381.00,1.53
9380.00,1.53
9379.00,1.53
9378.00,1.53
9377.00,1.53
9376.00,1.53
9375.00,1.53
9374.00,1.53
9373.00,1.53
9372.00,1.53
9371.00,1.54
9370.00,1.54
9369.00,1.54
9368.00,1.54
9367.00,1.54
9366.00,1.54
9365.00,1.54
9364.00,1.54
9363.00,1.54
9362.00,1.54
9361.00,1.54
9360.00,1.54
9359.00,1.54
9358.00,1.54
9357.00,1.54
9356.00,1.54
9355.00,1.54
9354.00,1.54
9353.00,1.54
9352.00,1.54
9351.00,1.53
9350.00,1.53
9349.00,1.53
9348.00,1.53
9347.00,1.53
9346.00,1.53
9345.00,1.53
9344.00,1.53
9343.00,1.53
9342.00,1.53
9341.00,1.53
9340.00,1.53
9339.00,1.54
9338.00,1.54
9337.00,1.54
9336.00,1.54
9335.00,1.54
9334.00,1.54
9333.00,1.54
9332.00,1.54
9331.00,1.54
9330.00,1.54
9329.00,1.55
9328.00,1.55
9327.00,1.55
9326.00,1.55
9325.00,1.55
9324.00,1.54
9323.00,1.54
9322.00,1.54
9321.00,1.54
9320.00,1.54
9319.00,1.54
9318.00,1.54
9317.00,1.53
9316.00,1.53
9315.00,1.53
9314.00,1.52
9313.00,1.52
9312.00,1.52
9311.00,1.52
9310.00,1.51
9309.00,1.51
9308.00,1.51
9307.00,1.51
9306.00,1.51
9305.00,1.51
9304.00,1.51
9303.00,1.51
9302.00,1.51
9301.00,1.51
9300.00,1.51
9299.00,1.51
9298.00,1.51
9297.00,1.51
9296.00,1.51
9295.00,1.52
9294.00,1.52
9293.00,1.52
9292.00,1.52
9291.00,1.52
9290.00,1.53
9289.00,1.53
9288.00,1.53
9287.00,1.53
9286.00,1.53
9285.00,1.53
9284.00,1.53
9283.00,1.53
9282.00,1.53
9281.00,1.53
9280.00,1.53
9279.00,1.53
9278.00,1.53
9277.00,1.53
9276.00,1.53
9275.00,1.53
9274.00,1.53
9273.00,1.53
9272.00,1.53
9271.00,1.53
9270.00,1.53
9269.00,1.53
9268.00,1.53
9267.00,1.53
9266.00,1.53
9265.00,1.53
9264.00,1.53
9263.00,1.52
9262.00,1.52
9261.00,1.52
9260.00,1.52
9259.00,1.52
9258.00,1.52
9257.00,1.52
9256.00,1.52
9255.00,1.52
9254.00,1.52
9253.00,1.52
9252.00,1.51
9251.00,1.51
9250.00,1.51
9249.00,1.51
9248.00,1.51
9247.00,1.51
9246.00,1.51
9245.00,1.51
9244.00,1.51
9243.00,1.51
9242.00,1.51
9241.00,1.51
9240.00,1.51
9239.00,1.51
9238.00,1.51
9237.00,1.51
9236.00,1.51
9235.00,1.51
9234.00,1.51
9233.00,1.51
9232.00,1.51
9231.00,1.51
9230.00,1.51
9229.00,1.51
9228.00,1.51
9227.00,1.51
9226.00,1.51
9225.00,1.52
9224.00,1.52
9223.00,1.52
9222.00,1.52
9221.00,1.52
9220.00,1.52
9219.00,1.52
9218.00,1.52
9217.00,1.52
9216.00,1.52
9215.00,1.52
9214.00,1.52
9213.00,1.52
9212.00,1.52
9211.00,1.52
9210.00,1.52
9209.00,1.52
9208.00,1.52
9207.00,1.52
9206.00,1.52
9205.00,1.52
9204.00,1.52
9203.00,1.52
9202.00,1.52
9201.00,1.52
9200.00,1.52
9199.00,1.52
9198.00,1.52
9197.00,1.52
9196.00,1.52
9195.00,1.52
9194.00,1.52
9193.00,1.52
9192.00,1.52
9191.00,1.52
9190.00,1.52
9189.00,1.52
9188.00,1.52
9187.00,1.52
9186.00,1.52
9185.00,1.52
9184.00,1.52
9183.00,1.52
9182.00,1.52
9181.00,1.52
9180.00,1.52
9179.00,1.52
9178.00,1.52
9177.00,1.52
9176.00,1.52
9175.00,1.52
9174.00,1.52
9173.00,1.52
9172.00,1.52
9171.00,1.52
9170.00,1.52
9169.00,1.52
9168.00,1.52
9167.00,1.52
9166.00,1.52
9165.00,1.52
9164.00,1.52
9163.00,1.52
9162.00,1.52
9161.00,1.52
9160.00,1.52
9159.00,1.52
9158.00,1.52
9157.00,1.52
9156.00,1.52
9155.00,1.52
9154.00,1.52
9153.00,1.52
9152.00,1.52
9151.00,1.52
9150.00,1.52
9149.00,1.52
9148.00,1.52
9147.00,1.52
9146.00,1.52
9145.00,1.53
9144.00,1.53
9143.00,1.53
9142.00,1.53
9141.00,1.53
9140.00,1.53
9139.00,1.53
9138.00,1.54
9137.00,1.54
9136.00,1.54
9135.00,1.54
9134.00,1.54
9133.00,1.54
9132.00,1.54
9131.00,1.54
9130.00,1.54
9129.00,1.54
9128.00,1.54
9127.00,1.54
9126.00,1.54
9125.00,1.54
9124.00,1.54
9123.00,1.54
9122.00,1.54
9121.00,1.53
9120.00,1.53
9119.00,1.53
9118.00,1.53
9117.00,1.52
9116.00,1.52
9115.00,1.52
9114.00,1.52
9113.00,1.52
9112.00,1.51
9111.00,1.51
9110.00,1.51
9109.00,1.51
9108.00,1.51
9107.00,1.51
9106.00,1.51
9105.00,1.51
9104.00,1.51
9103.00,1.51
9102.00,1.51
9101.00,1.51
9100.00,1.51
9099.00,1.51
9098.00,1.51
9097.00,1.51
9096.00,1.52
9095.00,1.52
9094.00,1.52
9093.00,1.52
9092.00,1.52
9091.00,1.52
9090.00,1.52
9089.00,1.52
9088.00,1.52
9087.00,1.53
9086.00,1.53
9085.00,1.53
9084.00,1.53
9083.00,1.53
9082.00,1.53
9081.00,1.53
9080.00,1.53
9079.00,1.54
9078.00,1.54
9077.00,1.54
9076.00,1.54
9075.00,1.54
9074.00,1.54
9073.00,1.54
9072.00,1.54
9071.00,1.54
9070.00,1.55
9069.00,1.55
9068.00,1.55
9067.00,1.55
9066.00,1.55
9065.00,1.54
9064.00,1.54
9063.00,1.54
9062.00,1.54
9061.00,1.54
9060.00,1.54
9059.00,1.54
9058.00,1.54
9057.00,1.54
9056.00,1.54
9055.00,1.53
9054.00,1.53
9053.00,1.53
9052.00,1.53
9051.00,1.53
9050.00,1.53
9049.00,1.53
9048.00,1.53
9047.00,1.53
9046.00,1.53
9045.00,1.53
9044.00,1.53
9043.00,1.53
9042.00,1.53
9041.00,1.53
9040.00,1.53
9039.00,1.53
9038.00,1.53
9037.00,1.53
9036.00,1.53
9035.00,1.53
9034.00,1.53
9033.00,1.53
9032.00,1.53
9031.00,1.53
9030.00,1.53
9029.00,1.53
9028.00,1.54
9027.00,1.54
9026.00,1.54
9025.00,1.54
9024.00,1.54
9023.00,1.54
9022.00,1.54
9021.00,1.54
9020.00,1.54
9019.00,1.54
9018.00,1.54
9017.00,1.54
9016.00,1.54
9015.00,1.54
9014.00,1.54
9013.00,1.53
9012.00,1.53
9011.00,1.53
9010.00,1.53
9009.00,1.53
9008.00,1.53
9007.00,1.53
9006.00,1.53
9005.00,1.53
9004.00,1.53
9003.00,1.53
9002.00,1.53
9001.00,1.53
9000.00,1.53
8999.00,1.53
8998.00,1.53
8997.00,1.52
8996.00,1.52
8995.00,1.52
8994.00,1.52
8993.00,1.52
8992.00,1.52
8991.00,1.52
8990.00,1.52
8989.00,1.52
8988.00,1.52
8987.00,1.52
8986.00,1.52
8985.00,1.52
8984.00,1.52
8983.00,1.52
8982.00,1.52
8981.00,1.52
8980.00,1.52
8979.00,1.53
8978.00,1.53
8977.00,1.53
8976.00,1.53
8975.00,1.53
8974.00,1.53
8973.00,1.53
8972.00,1.53
8971.00,1.53
8970.00,1.53
8969.00,1.53
8968.00,1.53
8967.00,1.53
8966.00,1.53
8965.00,1.53
8964.00,1.53
8963.00,1.53
8962.00,1.53
8961.00,1.53
8960.00,1.53
8959.00,1.53
8958.00,1.53
8957.00,1.53
8956.00,1.53
8955.00,1.53
8954.00,1.53
8953.00,1.53
8952.00,1.53
8951.00,1.53
8950.00,1.53
8949.00,1.53
8948.00,1.53
8947.00,1.53
8946.00,1.53
8945.00,1.53
8944.00,1.54
8943.00,1.54
8942.00,1.54
8941.00,1.54
8940.00,1.54
8939.00,1.54
8938.00,1.54
8937.00,1.54
8936.00,1.54
8935.00,1.54
8934.00,1.54
8933.00,1.54
8932.00,1.54
8931.00,1.54
8930.00,1.54
8929.00,1.54
8928.00,1.55
8927.00,1.55
8926.00,1.55
8925.00,1.55
8924.00,1.55
8923.00,1.55
8922.00,1.55
8921.00,1.55
8920.00,1.55
8919.00,1.55
8918.00,1.55
8917.00,1.55
8916.00,1.55
8915.00,1.55
8914.00,1.55
8913.00,1.54
8912.00,1.54
8911.00,1.54
8910.00,1.54
8909.00,1.54
8908.00,1.54
8907.00,1.54
8906.00,1.54
8905.00,1.54
8904.00,1.54
8903.00,1.54
8902.00,1.54
8901.00,1.54
8900.00,1.53
8899.00,1.53
8898.00,1.53
8897.00,1.53
8896.00,1.53
8895.00,1.53
8894.00,1.53
8893.00,1.53
8892.00,1.53
8891.00,1.53
8890.00,1.53
8889.00,1.53
8888.00,1.53
8887.00,1.53
8886.00,1.53
8885.00,1.52
8884.00,1.52
8883.00,1.52
8882.00,1.52
8881.00,1.52
8880.00,1.52
8879.00,1.52
8878.00,1.51
8877.00,1.51
8876.00,1.51
8875.00,1.51
8874.00,1.51
8873.00,1.51
8872.00,1.51
8871.00,1.51
8870.00,1.51
8869.00,1.51
8868.00,1.51
8867.00,1.51
8866.00,1.51
8865.00,1.51
8864.00,1.51
8863.00,1.51
8862.00,1.51
8861.00,1.51
8860.00,1.51
8859.00,1.51
8858.00,1.51
8857.00,1.51
8856.00,1.51
8855.00,1.51
8854.00,1.51
8853.00,1.51
8852.00,1.51
8851.00,1.51
8850.00,1.51
8849.00,1.51
8848.00,1.51
8847.00,1.51
8846.00,1.51
8845.00,1.51
8844.00,1.51
8843.00,1.51
8842.00,1.51
8841.00,1.51
8840.00,1.51
8839.00,1.51
8838.00,1.51
8837.00,1.51
8836.00,1.51
8835.00,1.51
8834.00,1.51
8833.00,1.51
8832.00,1.51
8831.00,1.51
8830.00,1.51
8829.00,1.51
8828.00,1.51
8827.00,1.51
8826.00,1.51
8825.00,1.51
8824.00,1.51
8823.00,1.51
8822.00,1.51
8821.00,1.51
8820.00,1.51
8819.00,1.51
8818.00,1.51
8817.00,1.51
8816.00,1.51
8815.00,1.50
8814.00,1.50
8813.00,1.50
8812.00,1.50
8811.00,1.50
8810.00,1.50
8809.00,1.50
8808.00,1.50
8807.00,1.50
8806.00,1.50
8805.00,1.50
8804.00,1.50
8803.00,1.50
8802.00,1.49
8801.00,1.49
8800.00,1.49
8799.00,1.49
8798.00,1.49
8797.00,1.49
8796.00,1.49
8795.00,1.49
8794.00,1.49
8793.00,1.49
8792.00,1.48
8791.00,1.48
8790.00,1.48
8789.00,1.48
8788.00,1.48
8787.00,1.48
8786.00,1.48
8785.00,1.48
8784.00,1.48
8783.00,1.48
8782.00,1.49
8781.00,1.49
8780.00,1.49
8779.00,1.49
8778.00,1.49
8777.00,1.49
8776.00,1.49
8775.00,1.49
8774.00,1.49
8773.00,1.49
8772.00,1.49
8771.00,1.49
8770.00,1.49
8769.00,1.49
8768.00,1.49
8767.00,1.49
8766.00,1.49
8765.00,1.49
8764.00,1.49
8763.00,1.49
8762.00,1.49
8761.00,1.49
8760.00,1.49
8759.00,1.49
8758.00,1.49
8757.00,1.49
8756.00,1.49
8755.00,1.48
8754.00,1.48
8753.00,1.48
8752.00,1.48
8751.00,1.48
8750.00,1.48
8749.00,1.48
8748.00,1.48
8747.00,1.48
8746.00,1.48
8745.00,1.48
8744.00,1.48
8743.00,1.48
8742.00,1.48
8741.00,1.48
8740.00,1.48
8739.00,1.48
8738.00,1.48
8737.00,1.48
8736.00,1.48
8735.00,1.48
8734.00,1.48
8733.00,1.48
8732.00,1.48
8731.00,1.48
8730.00,1.48
8729.00,1.48
8728.00,1.48
8727.00,1.48
8726.00,1.48
8725.00,1.48
8724.00,1.48
8723.00,1.47
8722.00,1.47
8721.00,1.47
8720.00,1.47
8719.00,1.47
8718.00,1.47
8717.00,1.47
8716.00,1.47
8715.00,1.47
8714.00,1.47
8713.00,1.47
8712.00,1.47
8711.00,1.47
8710.00,1.47
8709.00,1.47
8708.00,1.47
8707.00,1.47
8706.00,1.47
8705.00,1.46
8704.00,1.46
8703.00,1.46
8702.00,1.46
8701.00,1.46
8700.00,1.46
8699.00,1.46
8698.00,1.46
8697.00,1.46
8696.00,1.46
8695.00,1.46
8694.00,1.46
8693.00,1.46
8692.00,1.46
8691.00,1.46
8690.00,1.46
8689.00,1.46
8688.00,1.46
8687.00,1.46
8686.00,1.46
8685.00,1.46
8684.00,1.46
8683.00,1.46
8682.00,1.46
8681.00,1.46
8680.00,1.46
8679.00,1.46
8678.00,1.46
8677.00,1.46
8676.00,1.46
8675.00,1.46
8674.00,1.46
8673.00,1.46
8672.00,1.46
8671.00,1.46
8670.00,1.46
8669.00,1.46
8668.00,1.46
8667.00,1.46
8666.00,1.46
8665.00,1.46
8664.00,1.46
8663.00,1.46
8662.00,1.46
8661.00,1.46
8660.00,1.45
8659.00,1.45
8658.00,1.45
8657.00,1.45
8656.00,1.45
8655.00,1.45
8654.00,1.45
8653.00,1.45
8652.00,1.45
8651.00,1.45
8650.00,1.45
8649.00,1.45
8648.00,1.45
8647.00,1.45
8646.00,1.45
8645.00,1.45
8644.00,1.45
8643.00,1.45
8642.00,1.45
8641.00,1.45
8640.00,1.45
8639.00,1.45
8638.00,1.45
8637.00,1.45
8636.00,1.45
8635.00,1.45
8634.00,1.45
8633.00,1.45
8632.00,1.45
8631.00,1.45
8630.00,1.45
8629.00,1.45
8628.00,1.45
8627.00,1.45
8626.00,1.45
8625.00,1.45
8624.00,1.44
8623.00,1.44
8622.00,1.44
8621.00,1.44
8620.00,1.44
8619.00,1.44
8618.00,1.44
8617.00,1.44
8616.00,1.44
8615.00,1.44
8614.00,1.44
8613.00,1.43
8612.00,1.43
8611.00,1.43
8610.00,1.43
8609.00,1.43
8608.00,1.43
8607.00,1.44
8606.00,1.44
8605.00,1.44
8604.00,1.44
8603.00,1.44
8602.00,1.44
8601.00,1.44
8600.00,1.44
8599.00,1.44
8598.00,1.44
8597.00,1.44
8596.00,1.43
8595.00,1.43
8594.00,1.43
8593.00,1.43
8592.00,1.43
8591.00,1.43
8590.00,1.43
8589.00,1.43
8588.00,1.43
8587.00,1.42
8586.00,1.42
8585.00,1.42
8584.00,1.42
8583.00,1.42
8582.00,1.42
8581.00,1.42
8580.00,1.42
8579.00,1.42
8578.00,1.42
8577.00,1.42
8576.00,1.42
8575.00,1.42
8574.00,1.42
8573.00,1.42
8572.00,1.41
8571.00,1.41
8570.00,1.41
8569.00,1.41
8568.00,1.41
8567.00,1.41
8566.00,1.41
8565.00,1.41
8564.00,1.41
8563.00,1.41
8562.00,1.41
8561.00,1.41
8560.00,1.41
8559.00,1.41
8558.00,1.41
8557.00,1.41
8556.00,1.41
8555.00,1.41
8554.00,1.41
8553.00,1.41
8552.00,1.41
8551.00,1.41
8550.00,1.41
8549.00,1.41
8548.00,1.41
8547.00,1.41
8546.00,1.41
8545.00,1.41
8544.00,1.41
8543.00,1.41
8542.00,1.41
8541.00,1.41
8540.00,1.41
8539.00,1.41
8538.00,1.41
8537.00,1.41
8536.00,1.41
8535.00,1.41
8534.00,1.41
8533.00,1.41
8532.00,1.41
8531.00,1.41
8530.00,1.41
8529.00,1.41
8528.00,1.41
8527.00,1.41
8526.00,1.41
8525.00,1.41
8524.00,1.41
8523.00,1.41
8522.00,1.41
8521.00,1.41
8520.00,1.41
8519.00,1.40
8518.00,1.40
8517.00,1.40
8516.00,1.40
8515.00,1.40
8514.00,1.40
8513.00,1.40
8512.00,1.40
8511.00,1.40
8510.00,1.40
8509.00,1.40
8508.00,1.40
8507.00,1.39
8506.00,1.39
8505.00,1.39
8504.00,1.39
8503.00,1.39
8502.00,1.39
8501.00,1.39
8500.00,1.39
8499.00,1.38
8498.00,1.38
8497.00,1.38
8496.00,1.38
8495.00,1.38
8494.00,1.38
8493.00,1.39
8492.00,1.39
8491.00,1.39
8490.00,1.39
8489.00,1.39
8488.00,1.39
8487.00,1.39
8486.00,1.39
8485.00,1.39
8484.00,1.39
8483.00,1.39
8482.00,1.39
8481.00,1.39
8480.00,1.39
8479.00,1.38
8478.00,1.38
8477.00,1.38
8476.00,1.38
8475.00,1.38
8474.00,1.38
8473.00,1.37
8472.00,1.37
8471.00,1.37
8470.00,1.37
8469.00,1.37
8468.00,1.37
8467.00,1.37
8466.00,1.37
8465.00,1.37
8464.00,1.36
8463.00,1.36
8462.00,1.36
8461.00,1.36
8460.00,1.36
8459.00,1.36
8458.00,1.36
8457.00,1.36
8456.00,1.36
8455.00,1.36
8454.00,1.36
8453.00,1.36
8452.00,1.36
8451.00,1.36
8450.00,1.36
8449.00,1.36
8448.00,1.36
8447.00,1.35
8446.00,1.35
8445.00,1.35
8444.00,1.35
8443.00,1.35
8442.00,1.35
8441.00,1.35
8440.00,1.35
8439.00,1.35
8438.00,1.35
8437.00,1.35
8436.00,1.35
8435.00,1.35
8434.00,1.35
8433.00,1.35
8432.00,1.35
8431.00,1.35
8430.00,1.35
8429.00,1.35
8428.00,1.35
8427.00,1.35
8426.00,1.35
8425.00,1.35
8424.00,1.35
8423.00,1.35
8422.00,1.35
8421.00,1.35
8420.00,1.35
8419.00,1.35
8418.00,1.35
8417.00,1.36
8416.00,1.36
8415.00,1.36
8414.00,1.36
8413.00,1.36
8412.00,1.36
8411.00,1.37
8410.00,1.37
8409.00,1.37
8408.00,1.37
8407.00,1.37
8406.00,1.37
8405.00,1.37
8404.00,1.37
8403.00,1.37
8402.00,1.37
8401.00,1.37
8400.00,1.37
8399.00,1.38
8398.00,1.38
8397.00,1.38
8396.00,1.38
8395.00,1.38
8394.00,1.38
8393.00,1.38
8392.00,1.38
8391.00,1.38
8390.00,1.38
8389.00,1.38
8388.00,1.38
8387.00,1.38
8386.00,1.38
8385.00,1.38
8384.00,1.38
8383.00,1.38
8382.00,1.39
8381.00,1.39
8380.00,1.39
8379.00,1.39
8378.00,1.39
8377.00,1.39
8376.00,1.39
8375.00,1.39
8374.00,1.39
8373.00,1.39
8372.00,1.39
8371.00,1.39
8370.00,1.39
8369.00,1.39
8368.00,1.39
8367.00,1.39
8366.00,1.39
8365.00,1.39
8364.00,1.39
8363.00,1.39
8362.00,1.39
8361.00,1.39
8360.00,1.39
8359.00,1.39
8358.00,1.39
8357.00,1.39
8356.00,1.39
8355.00,1.39
8354.00,1.39
8353.00,1.39
8352.00,1.39
8351.00,1.39
8350.00,1.39
8349.00,1.39
8348.00,1.39
8347.00,1.39
8346.00,1.39
8345.00,1.39
8344.00,1.39
8343.00,1.39
8342.00,1.39
8341.00,1.39
8340.00,1.39
8339.00,1.39
8338.00,1.39
8337.00,1.39
8336.00,1.40
8335.00,1.40
8334.00,1.40
8333.00,1.40
8332.00,1.40
8331.00,1.40
8330.00,1.40
8329.00,1.40
8328.00,1.40
8327.00,1.40
8326.00,1.40
8325.00,1.40
8324.00,1.40
8323.00,1.41
8322.00,1.41
8321.00,1.41
8320.00,1.40
8319.00,1.40
8318.00,1.40
8317.00,1.40
8316.00,1.40
8315.00,1.40
8314.00,1.40
8313.00,1.40
8312.00,1.40
8311.00,1.40
8310.00,1.40
8309.00,1.40
8308.00,1.40
8307.00,1.40
8306.00,1.40
8305.00,1.40
8304.00,1.40
8303.00,1.40
8302.00,1.40
8301.00,1.40
8300.00,1.40
8299.00,1.40
8298.00,1.40
8297.00,1.40
8296.00,1.40
8295.00,1.40
8294.00,1.40
8293.00,1.40
8292.00,1.40
8291.00,1.40
8290.00,1.40
8289.00,1.40
8288.00,1.40
8287.00,1.40
8286.00,1.40
8285.00,1.40
8284.00,1.40
8283.00,1.40
8282.00,1.40
8281.00,1.40
8280.00,1.40
8279.00,1.40
8278.00,1.40
8277.00,1.40
8276.00,1.40
8275.00,1.40
8274.00,1.40
8273.00,1.40
8272.00,1.40
8271.00,1.40
8270.00,1.40
8269.00,1.41
8268.00,1.41
8267.00,1.41
8266.00,1.41
8265.00,1.41
8264.00,1.41
8263.00,1.41
8262.00,1.41
8261.00,1.41
8260.00,1.41
8259.00,1.42
8258.00,1.42
8257.00,1.42
8256.00,1.42
8255.00,1.42
8254.00,1.42
8253.00,1.42
8252.00,1.42
8251.00,1.42
8250.00,1.42
8249.00,1.42
8248.00,1.42
8247.00,1.42
8246.00,1.42
8245.00,1.42
8244.00,1.42
8243.00,1.42
8242.00,1.42
8241.00,1.42
8240.00,1.42
8239.00,1.42
8238.00,1.42
8237.00,1.42
8236.00,1.42
8235.00,1.43
8234.00,1.43
8233.00,1.43
8232.00,1.43
8231.00,1.43
8230.00,1.43
8229.00,1.43
8228.00,1.43
8227.00,1.43
8226.00,1.43
8225.00,1.43
8224.00,1.43
8223.00,1.43
8222.00,1.43
8221.00,1.43
8220.00,1.43
8219.00,1.43
8218.00,1.43
8217.00,1.43
8216.00,1.43
8215.00,1.43
8214.00,1.43
8213.00,1.43
8212.00,1.43
8211.00,1.44
8210.00,1.44
8209.00,1.44
8208.00,1.44
8207.00,1.44
8206.00,1.44
8205.00,1.44
8204.00,1.44
8203.00,1.44
8202.00,1.44
8201.00,1.44
8200.00,1.44
8199.00,1.44
8198.00,1.44
8197.00,1.44
8196.00,1.44
8195.00,1.44
8194.00,1.45
8193.00,1.45
8192.00,1.45
8191.00,1.45
8190.00,1.45
8189.00,1.45
8188.00,1.45
8187.00,1.45
8186.00,1.45
8185.00,1.45
8184.00,1.45
8183.00,1.45
8182.00,1.45
8181.00,1.45
8180.00,1.44
8179.00,1.44
8178.00,1.44
8177.00,1.44
8176.00,1.44
8175.00,1.44
8174.00,1.44
8173.00,1.44
8172.00,1.44
8171.00,1.44
8170.00,1.44
8169.00,1.44
8168.00,1.44
8167.00,1.44
8166.00,1.44
8165.00,1.44
8164.00,1.44
8163.00,1.44
8162.00,1.44
8161.00,1.44
8160.00,1.44
8159.00,1.44
8158.00,1.44
8157.00,1.45
8156.00,1.45
8155.00,1.45
8154.00,1.45
8153.00,1.45
8152.00,1.45
8151.00,1.45
8150.00,1.45
8149.00,1.45
8148.00,1.45
8147.00,1.46
8146.00,1.46
8145.00,1.46
8144.00,1.46
8143.00,1.46
8142.00,1.46
8141.00,1.46
8140.00,1.46
8139.00,1.46
8138.00,1.46
8137.00,1.46
8136.00,1.46
8135.00,1.46
8134.00,1.46
8133.00,1.46
8132.00,1.46
8131.00,1.47
8130.00,1.47
8129.00,1.47
8128.00,1.47
8127.00,1.47
8126.00,1.47
8125.00,1.47
8124.00,1.47
8123.00,1.47
8122.00,1.47
8121.00,1.47
8120.00,1.47
8119.00,1.47
8118.00,1.47
8117.00,1.47
8116.00,1.47
8115.00,1.47
8114.00,1.47
8113.00,1.47
8112.00,1.47
8111.00,1.47
8110.00,1.47
8109.00,1.47
8108.00,1.47
8107.00,1.47
8106.00,1.47
8105.00,1.47
8104.00,1.47
8103.00,1.47
8102.00,1.47
8101.00,1.47
8100.00,1.47
8099.00,1.47
8098.00,1.47
8097.00,1.47
8096.00,1.47
8095.00,1.47
8094.00,1.47
8093.00,1.47
8092.00,1.47
8091.00,1.47
8090.00,1.47
8089.00,1.47
8088.00,1.47
8087.00,1.47
8086.00,1.47
8085.00,1.47
8084.00,1.47
8083.00,1.47
8082.00,1.47
8081.00,1.47
8080.00,1.47
8079.00,1.47
8078.00,1.47
8077.00,1.47
8076.00,1.47
8075.00,1.47
8074.00,1.48
8073.00,1.48
8072.00,1.48
8071.00,1.48
8070.00,1.48
8069.00,1.48
8068.00,1.48
8067.00,1.48
8066.00,1.48
8065.00,1.48
8064.00,1.48
8063.00,1.48
8062.00,1.48
8061.00,1.48
8060.00,1.48
8059.00,1.49
8058.00,1.49
8057.00,1.49
8056.00,1.49
8055.00,1.49
8054.00,1.49
8053.00,1.49
8052.00,1.49
8051.00,1.49
8050.00,1.49
8049.00,1.49
8048.00,1.49
8047.00,1.49
8046.00,1.50
8045.00,1.50
8044.00,1.50
8043.00,1.50
8042.00,1.50
8041.00,1.50
8040.00,1.50
8039.00,1.50
8038.00,1.50
8037.00,1.50
8036.00,1.50
8035.00,1.50
8034.00,1.50
8033.00,1.50
8032.00,1.50
8031.00,1.50
8030.00,1.50
8029.00,1.50
8028.00,1.50
8027.00,1.50
8026.00,1.50
8025.00,1.50
8024.00,1.50
8023.00,1.50
8022.00,1.50
8021.00,1.50
8020.00,1.50
8019.00,1.50
8018.00,1.50
8017.00,1.50
8016.00,1.50
8015.00,1.49
8014.00,1.49
8013.00,1.49
8012.00,1.49
8011.00,1.49
8010.00,1.49
8009.00,1.49
8008.00,1.49
8007.00,1.49
8006.00,1.49
8005.00,1.49
8004.00,1.49
8003.00,1.49
8002.00,1.49
8001.00,1.50
8000.00,1.50
7999.00,1.50
7998.00,1.50
7997.00,1.50
7996.00,1.50
7995.00,1.50
7994.00,1.50
7993.00,1.50
7992.00,1.50
7991.00,1.50
7990.00,1.50
7989.00,1.50
7988.00,1.50
7987.00,1.50
7986.00,1.50
7985.00,1.50
7984.00,1.50
7983.00,1.50
7982.00,1.50
7981.00,1.50
7980.00,1.50
7979.00,1.50
7978.00,1.50
7977.00,1.50
7976.00,1.50
7975.00,1.50
7974.00,1.50
7973.00,1.50
7972.00,1.50
7971.00,1.50
7970.00,1.50
7969.00,1.50
7968.00,1.50
7967.00,1.50
7966.00,1.51
7965.00,1.51
7964.00,1.51
7963.00,1.51
7962.00,1.51
7961.00,1.51
7960.00,1.51
7959.00,1.51
7958.00,1.51
7957.00,1.51
7956.00,1.51
7955.00,1.51
7954.00,1.51
7953.00,1.51
7952.00,1.51
7951.00,1.51
7950.00,1.51
7949.00,1.51
7948.00,1.51
7947.00,1.51
7946.00,1.51
7945.00,1.51
7944.00,1.51
7943.00,1.51
7942.00,1.51
7941.00,1.51
7940.00,1.51
7939.00,1.51
7938.00,1.51
7937.00,1.51
7936.00,1.51
7935.00,1.51
7934.00,1.51
7933.00,1.52
7932.00,1.52
7931.00,1.52
7930.00,1.52
7929.00,1.52
7928.00,1.52
7927.00,1.52
7926.00,1.52
7925.00,1.52
7924.00,1.52
7923.00,1.52
7922.00,1.52
7921.00,1.52
7920.00,1.52
7919.00,1.52
7918.00,1.52
7917.00,1.52
7916.00,1.52
7915.00,1.52
7914.00,1.52
7913.00,1.52
7912.00,1.52
7911.00,1.52
7910.00,1.52
7909.00,1.52
7908.00,1.52
7907.00,1.52
7906.00,1.52
7905.00,1.52
7904.00,1.52
7903.00,1.52
7902.00,1.52
7901.00,1.52
7900.00,1.52
7899.00,1.52
7898.00,1.52
7897.00,1.52
7896.00,1.52
7895.00,1.52
7894.00,1.52
7893.00,1.52
7892.00,1.52
7891.00,1.52
7890.00,1.52
7889.00,1.52
7888.00,1.52
7887.00,1.52
7886.00,1.52
7885.00,1.52
7884.00,1.52
7883.00,1.52
7882.00,1.52
7881.00,1.52
7880.00,1.52
7879.00,1.52
7878.00,1.52
7877.00,1.52
7876.00,1.52
7875.00,1.52
7874.00,1.52
7873.00,1.52
7872.00,1.51
7871.00,1.51
7870.00,1.51
7869.00,1.51
7868.00,1.51
7867.00,1.51
7866.00,1.51
7865.00,1.51
7864.00,1.51
7863.00,1.52
7862.00,1.52
7861.00,1.52
7860.00,1.52
7859.00,1.52
7858.00,1.52
7857.00,1.52
7856.00,1.52
7855.00,1.52
7854.00,1.52
7853.00,1.52
7852.00,1.52
7851.00,1.52
7850.00,1.52
7849.00,1.52
7848.00,1.52
7847.00,1.52
7846.00,1.52
7845.00,1.52
7844.00,1.52
7843.00,1.52
7842.00,1.52
7841.00,1.52
7840.00,1.52
7839.00,1.52
7838.00,1.52
7837.00,1.52
7836.00,1.52
7835.00,1.52
7834.00,1.52
7833.00,1.52
7832.00,1.52
7831.00,1.52
7830.00,1.52
7829.00,1.52
7828.00,1.52
7827.00,1.52
7826.00,1.52
7825.00,1.52
7824.00,1.52
7823.00,1.52
7822.00,1.52
7821.00,1.52
7820.00,1.52
7819.00,1.52
7818.00,1.52
7817.00,1.52
7816.00,1.52
7815.00,1.52
7814.00,1.53
7813.00,1.53
7812.00,1.53
7811.00,1.53
7810.00,1.53
7809.00,1.53
7808.00,1.53
7807.00,1.53
7806.00,1.53
7805.00,1.53
7804.00,1.53
7803.00,1.53
7802.00,1.53
7801.00,1.53
7800.00,1.53
7799.00,1.53
7798.00,1.53
7797.00,1.53
7796.00,1.53
7795.00,1.53
7794.00,1.53
7793.00,1.53
7792.00,1.53
7791.00,1.54
7790.00,1.54
7789.00,1.54
7788.00,1.54
7787.00,1.54
7786.00,1.54
7785.00,1.54
7784.00,1.54
7783.00,1.54
7782.00,1.54
7781.00,1.54
7780.00,1.54
7779.00,1.54
7778.00,1.54
7777.00,1.54
7776.00,1.54
7775.00,1.53
7774.00,1.53
7773.00,1.53
7772.00,1.53
7771.00,1.53
7770.00,1.53
7769.00,1.53
7768.00,1.53
7767.00,1.53
7766.00,1.53
7765.00,1.53
7764.00,1.53
7763.00,1.53
7762.00,1.53
7761.00,1.53
7760.00,1.53
7759.00,1.53
7758.00,1.53
7757.00,1.53
7756.00,1.53
7755.00,1.54
7754.00,1.54
7753.00,1.54
7752.00,1.54
7751.00,1.54
7750.00,1.54
7749.00,1.54
7748.00,1.54
7747.00,1.54
7746.00,1.54
7745.00,1.54
7744.00,1.54
7743.00,1.54
7742.00,1.54
7741.00,1.54
7740.00,1.54
7739.00,1.54
7738.00,1.54
7737.00,1.54
7736.00,1.54
7735.00,1.54
7734.00,1.54
7733.00,1.54
7732.00,1.54
7731.00,1.54
7730.00,1.54
7729.00,1.54
7728.00,1.54
7727.00,1.54
7726.00,1.54
7725.00,1.54
7724.00,1.54
7723.00,1.54
7722.00,1.54
7721.00,1.54
7720.00,1.54
7719.00,1.54
7718.00,1.54
7717.00,1.54
7716.00,1.55
7715.00,1.55
7714.00,1.55
7713.00,1.55
7712.00,1.55
7711.00,1.55
7710.00,1.55
7709.00,1.55
7708.00,1.55
7707.00,1.55
7706.00,1.55
7705.00,1.55
7704.00,1.55
7703.00,1.55
7702.00,1.55
7701.00,1.54
7700.00,1.54
7699.00,1.54
7698.00,1.54
7697.00,1.54
7696.00,1.54
7695.00,1.54
7694.00,1.54
7693.00,1.54
7692.00,1.54
7691.00,1.54
7690.00,1.55
7689.00,1.55
7688.00,1.55
7687.00,1.55
7686.00,1.55
7685.00,1.55
7684.00,1.55
7683.00,1.55
7682.00,1.55
7681.00,1.55
7680.00,1.55
7679.00,1.55
7678.00,1.54
7677.00,1.54
7676.00,1.54
7675.00,1.54
7674.00,1.54
7673.00,1.54
7672.00,1.54
7671.00,1.54
7670.00,1.54
7669.00,1.54
7668.00,1.54
7667.00,1.54
7666.00,1.54
7665.00,1.54
7664.00,1.54
7663.00,1.54
7662.00,1.54
7661.00,1.54
7660.00,1.54
7659.00,1.54
7658.00,1.54
7657.00,1.54
7656.00,1.54
7655.00,1.54
7654.00,1.54
7653.00,1.54
7652.00,1.54
7651.00,1.54
7650.00,1.54
7649.00,1.54
7648.00,1.54
7647.00,1.54
7646.00,1.54
7645.00,1.54
7644.00,1.54
7643.00,1.54
7642.00,1.54
7641.00,1.54
7640.00,1.54
7639.00,1.54
7638.00,1.54
7637.00,1.54
7636.00,1.54
7635.00,1.54
7634.00,1.54
7633.00,1.54
7632.00,1.54
7631.00,1.54
7630.00,1.54
7629.00,1.54
7628.00,1.54
7627.00,1.54
7626.00,1.54
7625.00,1.54
7624.00,1.54
7623.00,1.54
7622.00,1.54
7621.00,1.54
7620.00,1.54
7619.00,1.54
7618.00,1.54
7617.00,1.54
7616.00,1.54
7615.00,1.54
7614.00,1.54
7613.00,1.54
7612.00,1.54
7611.00,1.54
7610.00,1.54
7609.00,1.54
7608.00,1.54
7607.00,1.54
7606.00,1.54
7605.00,1.54
7604.00,1.54
7603.00,1.54
7602.00,1.54
7601.00,1.54
7600.00,1.54
7599.00,1.54
7598.00,1.54
7597.00,1.54
7596.00,1.54
7595.00,1.54
7594.00,1.54
7593.00,1.54
7592.00,1.54
7591.00,1.54
7590.00,1.54
7589.00,1.54
7588.00,1.54
7587.00,1.54
7586.00,1.54
7585.00,1.54
7584.00,1.54
7583.00,1.54
7582.00,1.54
7581.00,1.54
7580.00,1.54
7579.00,1.54
7578.00,1.54
7577.00,1.54
7576.00,1.54
7575.00,1.55
7574.00,1.55
7573.00,1.55
7572.00,1.55
7571.00,1.55
7570.00,1.55
7569.00,1.54
7568.00,1.54
7567.00,1.54
7566.00,1.54
7565.00,1.54
7564.00,1.54
7563.00,1.54
7562.00,1.54
7561.00,1.54
7560.00,1.54
7559.00,1.54
7558.00,1.54
7557.00,1.54
7556.00,1.54
7555.00,1.54
7554.00,1.54
7553.00,1.54
7552.00,1.54
7551.00,1.54
7550.00,1.54
7549.00,1.54
7548.00,1.54
7547.00,1.54
7546.00,1.54
7545.00,1.54
7544.00,1.54
7543.00,1.54
7542.00,1.54
7541.00,1.54
7540.00,1.54
7539.00,1.54
7538.00,1.54
7537.00,1.54
7536.00,1.54
7535.00,1.54
7534.00,1.54
7533.00,1.53
7532.00,1.53
7531.00,1.53
7530.00,1.53
7529.00,1.53
7528.00,1.53
7527.00,1.53
7526.00,1.53
7525.00,1.53
7524.00,1.53
7523.00,1.53
7522.00,1.53
7521.00,1.53
7520.00,1.53
7519.00,1.53
7518.00,1.53
7517.00,1.53
7516.00,1.53
7515.00,1.53
7514.00,1.53
7513.00,1.53
7512.00,1.53
7511.00,1.53
7510.00,1.53
7509.00,1.52
7508.00,1.52
7507.00,1.52
7506.00,1.52
7505.00,1.52
7504.00,1.52
7503.00,1.52
7502.00,1.52
7501.00,1.52
7500.00,1.52
7499.00,1.52
7498.00,1.52
7497.00,1.52
7496.00,1.52
7495.00,1.51
7494.00,1.51
7493.00,1.51
7492.00,1.51
7491.00,1.51
7490.00,1.51
7489.00,1.51
7488.00,1.51
7487.00,1.51
7486.00,1.51
7485.00,1.51
7484.00,1.51
7483.00,1.51
7482.00,1.52
7481.00,1.52
7480.00,1.52
7479.00,1.52
7478.00,1.52
7477.00,1.52
7476.00,1.52
7475.00,1.52
7474.00,1.52
7473.00,1.52
7472.00,1.52
7471.00,1.52
7470.00,1.52
7469.00,1.52
7468.00,1.52
7467.00,1.52
7466.00,1.52
7465.00,1.52
7464.00,1.52
7463.00,1.52
7462.00,1.52
7461.00,1.51
7460.00,1.51
7459.00,1.51
7458.00,1.51
7457.00,1.51
7456.00,1.51
7455.00,1.51
7454.00,1.51
7453.00,1.51
7452.00,1.51
7451.00,1.51
7450.00,1.51
7449.00,1.50
7448.00,1.50
7447.00,1.50
7446.00,1.50
7445.00,1.50
7444.00,1.50
7443.00,1.50
7442.00,1.50
7441.00,1.50
7440.00,1.50
7439.00,1.50
7438.00,1.50
7437.00,1.50
7436.00,1.50
7435.00,1.50
7434.00,1.50
7433.00,1.50
7432.00,1.50
7431.00,1.50
7430.00,1.50
7429.00,1.50
7428.00,1.50
7427.00,1.50
7426.00,1.50
7425.00,1.50
7424.00,1.49
7423.00,1.49
7422.00,1.49
7421.00,1.49
7420.00,1.49
7419.00,1.49
7418.00,1.49
7417.00,1.49
7416.00,1.48
7415.00,1.48
7414.00,1.48
7413.00,1.48
7412.00,1.48
7411.00,1.48
7410.00,1.47
7409.00,1.47
7408.00,1.47
7407.00,1.47
7406.00,1.47
7405.00,1.47
7404.00,1.47
7403.00,1.47
7402.00,1.47
7401.00,1.46
7400.00,1.46
7399.00,1.46
7398.00,1.46
7397.00,1.46
7396.00,1.46
7395.00,1.46
7394.00,1.46
7393.00,1.46
7392.00,1.46
7391.00,1.46
7390.00,1.46
7389.00,1.45
7388.00,1.45
7387.00,1.45
7386.00,1.45
7385.00,1.45
7384.00,1.45
7383.00,1.45
7382.00,1.45
7381.00,1.45
7380.00,1.45
7379.00,1.45
7378.00,1.44
7377.00,1.44
7376.00,1.44
7375.00,1.44
7374.00,1.44
7373.00,1.44
7372.00,1.44
7371.00,1.44
7370.00,1.44
7369.00,1.44
7368.00,1.44
7367.00,1.44
7366.00,1.44
7365.00,1.44
7364.00,1.44
7363.00,1.44
7362.00,1.44
7361.00,1.44
7360.00,1.44
7359.00,1.44
7358.00,1.44
7357.00,1.44
7356.00,1.44
7355.00,1.44
7354.00,1.44
7353.00,1.44
7352.00,1.44
7351.00,1.44
7350.00,1.44
7349.00,1.44
7348.00,1.44
7347.00,1.44
7346.00,1.44
7345.00,1.44
7344.00,1.44
7343.00,1.44
7342.00,1.44
7341.00,1.44
7340.00,1.44
7339.00,1.44
7338.00,1.44
7337.00,1.44
7336.00,1.44
7335.00,1.44
7334.00,1.44
7333.00,1.44
7332.00,1.44
7331.00,1.43
7330.00,1.43
7329.00,1.43
7328.00,1.43
7327.00,1.43
7326.00,1.43
7325.00,1.43
7324.00,1.43
7323.00,1.43
7322.00,1.43
7321.00,1.42
7320.00,1.42
7319.00,1.42
7318.00,1.42
7317.00,1.42
7316.00,1.42
7315.00,1.42
7314.00,1.42
7313.00,1.41
7312.00,1.41
7311.00,1.41
7310.00,1.41
7309.00,1.41
7308.00,1.41
7307.00,1.41
7306.00,1.41
7305.00,1.41
7304.00,1.41
7303.00,1.41
7302.00,1.41
7301.00,1.41
7300.00,1.41
7299.00,1.41
7298.00,1.40
7297.00,1.40
7296.00,1.40
7295.00,1.40
7294.00,1.40
7293.00,1.40
7292.00,1.39
7291.00,1.39
7290.00,1.39
7289.00,1.39
7288.00,1.39
7287.00,1.39
7286.00,1.39
7285.00,1.39
7284.00,1.38
7283.00,1.38
7282.00,1.38
7281.00,1.38
7280.00,1.38
7279.00,1.38
7278.00,1.38
7277.00,1.38
7276.00,1.38
7275.00,1.38
7274.00,1.38
7273.00,1.38
7272.00,1.38
7271.00,1.38
7270.00,1.38
7269.00,1.37
7268.00,1.37
7267.00,1.37
7266.00,1.37
7265.00,1.37
7264.00,1.37
7263.00,1.37
7262.00,1.36
7261.00,1.36
7260.00,1.36
7259.00,1.36
7258.00,1.36
7257.00,1.36
7256.00,1.36
7255.00,1.35
7254.00,1.35
7253.00,1.35
7252.00,1.35
7251.00,1.35
7250.00,1.35
7249.00,1.35
7248.00,1.34
7247.00,1.34
7246.00,1.34
7245.00,1.34
7244.00,1.34
7243.00,1.33
7242.00,1.33
7241.00,1.33
7240.00,1.32
7239.00,1.32
7238.00,1.32
7237.00,1.31
7236.00,1.31
7235.00,1.31
7234.00,1.30
7233.00,1.30
7232.00,1.30
7231.00,1.29
7230.00,1.29
7229.00,1.29
7228.00,1.28
7227.00,1.28
7226.00,1.28
7225.00,1.27
7224.00,1.27
7223.00,1.27
7222.00,1.26
7221.00,1.26
7220.00,1.26
7219.00,1.26
7218.00,1.25
7217.00,1.25
7216.00,1.25
7215.00,1.24
7214.00,1.24
7213.00,1.24
7212.00,1.23
7211.00,1.23
7210.00,1.23
7209.00,1.22
7208.00,1.22
7207.00,1.22
7206.00,1.21
7205.00,1.21
7204.00,1.20
7203.00,1.20
7202.00,1.20
7201.00,1.19
7200.00,1.19
7199.00,1.19
7198.00,1.18
7197.00,1.18
7196.00,1.17
7195.00,1.17
7194.00,1.17
7193.00,1.16
7192.00,1.16
7191.00,1.16
7190.00,1.15
7189.00,1.15
7188.00,1.15
7187.00,1.14
7186.00,1.14
7185.00,1.14
7184.00,1.14
7183.00,1.13
7182.00,1.13
7181.00,1.13
7180.00,1.13
7179.00,1.12
7178.00,1.12
7177.00,1.12
7176.00,1.12
7175.00,1.12
7174.00,1.11
7173.00,1.11
7172.00,1.11
7171.00,1.11
7170.00,1.10
7169.00,1.10
7168.00,1.10
7167.00,1.10
7166.00,1.09
7165.00,1.09
7164.00,1.09
7163.00,1.09
7162.00,1.08
7161.00,1.08
7160.00,1.08
7159.00,1.08
7158.00,1.07
7157.00,1.07
7156.00,1.07
7155.00,1.07
7154.00,1.06
7153.00,1.06
7152.00,1.06
7151.00,1.06
7150.00,1.05
7149.00,1.05
7148.00,1.05
7147.00,1.04
7146.00,1.04
7145.00,1.04
7144.00,1.04
7143.00,1.03
7142.00,1.03
7141.00,1.03
7140.00,1.03
7139.00,1.02
7138.00,1.02
7137.00,1.02
7136.00,1.01
7135.00,1.01
7134.00,1.01
7133.00,1.01
7132.00,1.00
7131.00,1.00
7130.00,1.00
7129.00,0.99
7128.00,0.99
7127.00,0.99
7126.00,0.98
7125.00,0.98
7124.00,0.98
7123.00,0.97
7122.00,0.97
7121.00,0.97
7120.00,0.96
7119.00,0.96
7118.00,0.96
7117.00,0.96
7116.00,0.95
7115.00,0.95
7114.00,0.95
7113.00,0.95
7112.00,0.94
7111.00,0.94
7110.00,0.94
7109.00,0.94
7108.00,0.93
7107.00,0.93
7106.00,0.93
7105.00,0.93
7104.00,0.92
7103.00,0.92
7102.00,0.92
7101.00,0.91
7100.00,0.91
7099.00,0.91
7098.00,0.91
7097.00,0.90
7096.00,0.90
7095.00,0.90
7094.00,0.89
7093.00,0.89
7092.00,0.89
7091.00,0.89
7090.00,0.88
7089.00,0.88
7088.00,0.88
7087.00,0.87
7086.00,0.87
7085.00,0.87
7084.00,0.87
7083.00,0.86
7082.00,0.86
7081.00,0.86
7080.00,0.86
7079.00,0.85
7078.00,0.85
7077.00,0.85
7076.00,0.85
7075.00,0.85
7074.00,0.84
7073.00,0.84
7072.00,0.84
7071.00,0.84
7070.00,0.83
7069.00,0.83
7068.00,0.83
7067.00,0.83
7066.00,0.83
7065.00,0.82
7064.00,0.82
7063.00,0.82
7062.00,0.82
7061.00,0.82
7060.00,0.82
7059.00,0.81
7058.00,0.81
7057.00,0.81
7056.00,0.81
7055.00,0.81
7054.00,0.81
7053.00,0.81
7052.00,0.81
7051.00,0.81
7050.00,0.81
7049.00,0.81
7048.00,0.81
7047.00,0.81
7046.00,0.81
7045.00,0.81
7044.00,0.80
7043.00,0.80
7042.00,0.80
7041.00,0.80
7040.00,0.80
7039.00,0.80
7038.00,0.80
7037.00,0.80
7036.00,0.80
7035.00,0.79
7034.00,0.79
7033.00,0.79
7032.00,0.79
7031.00,0.79
7030.00,0.79
7029.00,0.79
7028.00,0.78
7027.00,0.78
7026.00,0.78
7025.00,0.78
7024.00,0.78
7023.00,0.78
7022.00,0.78
7021.00,0.78
7020.00,0.77
7019.00,0.77
7018.00,0.77
7017.00,0.77
7016.00,0.77
7015.00,0.77
7014.00,0.77
7013.00,0.77
7012.00,0.77
7011.00,0.76
7010.00,0.76
7009.00,0.76
7008.00,0.76
7007.00,0.76
7006.00,0.76
7005.00,0.76
7004.00,0.76
7003.00,0.76
7002.00,0.76
7001.00,0.76
7000.00,0.76
6999.00,0.75
6998.00,0.75
6997.00,0.75
6996.00,0.75
6995.00,0.75
6994.00,0.75
6993.00,0.75
6992.00,0.75
6991.00,0.75
6990.00,0.75
6989.00,0.75
6988.00,0.74
6987.00,0.74
6986.00,0.74
6985.00,0.74
6984.00,0.74
6983.00,0.74
6982.00,0.74
6981.00,0.74
6980.00,0.73
6979.00,0.73
6978.00,0.73
6977.00,0.73
6976.00,0.73
6975.00,0.73
6974.00,0.73
6973.00,0.73
6972.00,0.73
6971.00,0.73
6970.00,0.73
6969.00,0.73
6968.00,0.73
6967.00,0.73
6966.00,0.73
6965.00,0.73
6964.00,0.73
6963.00,0.73
6962.00,0.73
6961.00,0.73
6960.00,0.72
6959.00,0.72
6958.00,0.72
6957.00,0.72
6956.00,0.72
6955.00,0.72
6954.00,0.72
6953.00,0.72
6952.00,0.72
6951.00,0.72
6950.00,0.72
6949.00,0.72
6948.00,0.72
6947.00,0.72
6946.00,0.72
6945.00,0.72
6944.00,0.72
6943.00,0.72
6942.00,0.72
6941.00,0.72
6940.00,0.72
6939.00,0.72
6938.00,0.71
6937.00,0.71
6936.00,0.71
6935.00,0.71
6934.00,0.71
6933.00,0.71
6932.00,0.71
6931.00,0.71
6930.00,0.70
6929.00,0.70
6928.00,0.70
6927.00,0.70
6926.00,0.70
6925.00,0.70
6924.00,0.70
6923.00,0.70
6922.00,0.70
6921.00,0.69
6920.00,0.69
6919.00,0.69
6918.00,0.69
6917.00,0.69
6916.00,0.69
6915.00,0.69
6914.00,0.69
6913.00,0.69
6912.00,0.69
6911.00,0.69
6910.00,0.69
6909.00,0.69
6908.00,0.69
6907.00,0.69
6906.00,0.69
6905.00,0.69
6904.00,0.69
6903.00,0.69
6902.00,0.69
6901.00,0.69
6900.00,0.69
6899.00,0.69
6898.00,0.69
6897.00,0.69
6896.00,0.69
6895.00,0.69
6894.00,0.69
6893.00,0.69
6892.00,0.69
6891.00,0.69
6890.00,0.69
6889.00,0.69
6888.00,0.69
6887.00,0.69
6886.00,0.69
6885.00,0.69
6884.00,0.69
6883.00,0.69
6882.00,0.69
6881.00,0.69
6880.00,0.69
6879.00,0.69
6878.00,0.69
6877.00,0.69
6876.00,0.69
6875.00,0.69
6874.00,0.69
6873.00,0.69
6872.00,0.69
6871.00,0.69
6870.00,0.69
6869.00,0.69
6868.00,0.69
6867.00,0.69
6866.00,0.69
6865.00,0.69
6864.00,0.69
6863.00,0.69
6862.00,0.69
6861.00,0.69
6860.00,0.69
6859.00,0.69
6858.00,0.69
6857.00,0.69
6856.00,0.69
6855.00,0.69
6854.00,0.69
6853.00,0.69
6852.00,0.69
6851.00,0.69
6850.00,0.69
6849.00,0.69
6848.00,0.69
6847.00,0.69
6846.00,0.69
6845.00,0.69
6844.00,0.69
6843.00,0.69
6842.00,0.69
6841.00,0.69
6840.00,0.69
6839.00,0.69
6838.00,0.69
6837.00,0.69
6836.00,0.69
6835.00,0.69
6834.00,0.69
6833.00,0.69
6832.00,0.69
6831.00,0.69
6830.00,0.69
6829.00,0.69
6828.00,0.69
6827.00,0.69
6826.00,0.69
6825.00,0.69
6824.00,0.69
6823.00,0.69
6822.00,0.69
6821.00,0.70
6820.00,0.70
6819.00,0.70
6818.00,0.70
6817.00,0.70
6816.00,0.70
6815.00,0.70
6814.00,0.70
6813.00,0.70
6812.00,0.70
6811.00,0.71
6810.00,0.71
6809.00,0.71
6808.00,0.71
6807.00,0.71
6806.00,0.71
6805.00,0.71
6804.00,0.71
6803.00,0.71
6802.00,0.71
6801.00,0.71
6800.00,0.71
6799.00,0.71
6798.00,0.71
6797.00,0.71
6796.00,0.71
6795.00,0.71
6794.00,0.71
6793.00,0.72
6792.00,0.72
6791.00,0.72
6790.00,0.72
6789.00,0.72
6788.00,0.72
6787.00,0.72
6786.00,0.72
6785.00,0.72
6784.00,0.72
6783.00,0.72
6782.00,0.72
6781.00,0.72
6780.00,0.72
6779.00,0.72
6778.00,0.72
6777.00,0.72
6776.00,0.72
6775.00,0.72
6774.00,0.72
6773.00,0.72
6772.00,0.72
6771.00,0.72
6770.00,0.72
6769.00,0.72
6768.00,0.73
6767.00,0.73
6766.00,0.73
6765.00,0.73
6764.00,0.73
6763.00,0.73
6762.00,0.73
6761.00,0.73
6760.00,0.73
6759.00,0.73
6758.00,0.73
6757.00,0.73
6756.00,0.73
6755.00,0.73
6754.00,0.73
6753.00,0.73
6752.00,0.73
6751.00,0.74
6750.00,0.74
6749.00,0.74
6748.00,0.74
6747.00,0.74
6746.00,0.74
6745.00,0.74
6744.00,0.74
6743.00,0.74
6742.00,0.74
6741.00,0.74
6740.00,0.74
6739.00,0.75
6738.00,0.75
6737.00,0.75
6736.00,0.75
6735.00,0.75
6734.00,0.75
6733.00,0.76
6732.00,0.76
6731.00,0.76
6730.00,0.76
6729.00,0.76
6728.00,0.76
6727.00,0.76
6726.00,0.76
6725.00,0.76
6724.00,0.77
6723.00,0.77
6722.00,0.77
6721.00,0.77
6720.00,0.77
6719.00,0.77
6718.00,0.77
6717.00,0.77
6716.00,0.77
6715.00,0.77
6714.00,0.77
6713.00,0.77
6712.00,0.77
6711.00,0.77
6710.00,0.77
6709.00,0.77
6708.00,0.78
6707.00,0.78
6706.00,0.78
6705.00,0.78
6704.00,0.78
6703.00,0.78
6702.00,0.78
6701.00,0.78
6700.00,0.78
6699.00,0.78
6698.00,0.78
6697.00,0.78
6696.00,0.79
6695.00,0.79
6694.00,0.79
6693.00,0.79
6692.00,0.79
6691.00,0.79
6690.00,0.79
6689.00,0.79
6688.00,0.79
6687.00,0.80
6686.00,0.80
6685.00,0.80
6684.00,0.80
6683.00,0.80
6682.00,0.80
6681.00,0.80
6680.00,0.80
6679.00,0.80
6678.00,0.80
6677.00,0.81
6676.00,0.81
6675.00,0.81
6674.00,0.81
6673.00,0.81
6672.00,0.81
6671.00,0.81
6670.00,0.81
6669.00,0.81
6668.00,0.81
6667.00,0.81
6666.00,0.82
6665.00,0.82
6664.00,0.82
6663.00,0.82
6662.00,0.82
6661.00,0.82
6660.00,0.82
6659.00,0.82
6658.00,0.82
6657.00,0.83
6656.00,0.83
6655.00,0.83
6654.00,0.83
6653.00,0.83
6652.00,0.83
6651.00,0.83
6650.00,0.83
6649.00,0.83
6648.00,0.83
6647.00,0.83
6646.00,0.83
6645.00,0.84
6644.00,0.84
6643.00,0.84
6642.00,0.84
6641.00,0.84
6640.00,0.84
6639.00,0.84
6638.00,0.84
6637.00,0.84
6636.00,0.85
6635.00,0.85
6634.00,0.85
6633.00,0.85
6632.00,0.85
6631.00,0.85
6630.00,0.85
6629.00,0.85
6628.00,0.85
6627.00,0.85
6626.00,0.86
6625.00,0.86
6624.00,0.86
6623.00,0.86
6622.00,0.86
6621.00,0.86
6620.00,0.86
6619.00,0.86
6618.00,0.87
6617.00,0.87
6616.00,0.87
6615.00,0.87
6614.00,0.87
6613.00,0.87
6612.00,0.88
6611.00,0.88
6610.00,0.88
6609.00,0.88
6608.00,0.88
6607.00,0.88
6606.00,0.88
6605.00,0.88
6604.00,0.88
6603.00,0.88
6602.00,0.88
6601.00,0.88
6600.00,0.88
6599.00,0.88
6598.00,0.88
6597.00,0.88
6596.00,0.88
6595.00,0.88
6594.00,0.88
6593.00,0.89
6592.00,0.89
6591.00,0.89
6590.00,0.89
6589.00,0.89
6588.00,0.89
6587.00,0.89
6586.00,0.89
6585.00,0.89
6584.00,0.90
6583.00,0.90
6582.00,0.90
6581.00,0.90
6580.00,0.90
6579.00,0.91
6578.00,0.91
6577.00,0.91
6576.00,0.91
6575.00,0.91
6574.00,0.92
6573.00,0.92
6572.00,0.92
6571.00,0.92
6570.00,0.92
6569.00,0.92
6568.00,0.92
6567.00,0.92
6566.00,0.92
6565.00,0.93
6564.00,0.93
6563.00,0.93
6562.00,0.93
6561.00,0.93
6560.00,0.93
6559.00,0.93
6558.00,0.93
6557.00,0.93
6556.00,0.93
6555.00,0.93
6554.00,0.93
6553.00,0.93
6552.00,0.93
6551.00,0.93
6550.00,0.93
6549.00,0.93
6548.00,0.93
6547.00,0.93
6546.00,0.93
6545.00,0.93
6544.00,0.93
6543.00,0.94
6542.00,0.94
6541.00,0.94
6540.00,0.94
6539.00,0.94
6538.00,0.94
6537.00,0.94
6536.00,0.94
6535.00,0.94
6534.00,0.94
6533.00,0.94
6532.00,0.95
6531.00,0.95
6530.00,0.95
6529.00,0.95
6528.00,0.95
6527.00,0.95
6526.00,0.95
6525.00,0.95
6524.00,0.95
6523.00,0.95
6522.00,0.96
6521.00,0.96
6520.00,0.96
6519.00,0.96
6518.00,0.96
6517.00,0.96
6516.00,0.96
6515.00,0.96
6514.00,0.96
6513.00,0.96
6512.00,0.96
6511.00,0.96
6510.00,0.96
6509.00,0.96
6508.00,0.96
6507.00,0.97
6506.00,0.97
6505.00,0.97
6504.00,0.97
6503.00,0.97
6502.00,0.97
6501.00,0.97
6500.00,0.97
6499.00,0.97
6498.00,0.97
6497.00,0.97
6496.00,0.97
6495.00,0.97
6494.00,0.98
6493.00,0.98
6492.00,0.98
6491.00,0.98
6490.00,0.98
6489.00,0.98
6488.00,0.98
6487.00,0.98
6486.00,0.98
6485.00,0.98
6484.00,0.98
6483.00,0.98
6482.00,0.98
6481.00,0.98
6480.00,0.98
6479.00,0.98
6478.00,0.98
6477.00,0.98
6476.00,0.99
6475.00,0.99
6474.00,0.99
6473.00,0.99
6472.00,0.99
6471.00,0.99
6470.00,0.99
6469.00,0.99
6468.00,0.99
6467.00,0.99
6466.00,0.99
6465.00,0.99
6464.00,0.99
6463.00,0.99
6462.00,0.99
6461.00,0.99
6460.00,0.99
6459.00,0.99
6458.00,0.99
6457.00,0.99
6456.00,0.99
6455.00,0.99
6454.00,1.00
6453.00,1.00
6452.00,1.00
6451.00,1.00
6450.00,1.00
6449.00,1.00
6448.00,1.00
6447.00,1.00
6446.00,1.00
6445.00,1.00
6444.00,1.00
6443.00,1.00
6442.00,1.00
6441.00,1.00
6440.00,1.00
6439.00,1.00
6438.00,1.00
6437.00,1.00
6436.00,1.00
6435.00,1.00
6434.00,1.00
6433.00,1.00
6432.00,1.00
6431.00,1.00
6430.00,1.01
6429.00,1.01
6428.00,1.01
6427.00,1.01
6426.00,1.01
6425.00,1.01
6424.00,1.01
6423.00,1.01
6422.00,1.01
6421.00,1.01
6420.00,1.01
6419.00,1.01
6418.00,1.01
6417.00,1.01
6416.00,1.01
6415.00,1.02
6414.00,1.02
6413.00,1.02
6412.00,1.02
6411.00,1.02
6410.00,1.02
6409.00,1.02
6408.00,1.02
6407.00,1.02
6406.00,1.02
6405.00,1.03
6404.00,1.03
6403.00,1.03
6402.00,1.03
6401.00,1.03
6400.00,1.03
6399.00,1.03
6398.00,1.03
6397.00,1.03
6396.00,1.03
6395.00,1.03
6394.00,1.03
6393.00,1.03
6392.00,1.03
6391.00,1.03
6390.00,1.03
6389.00,1.03
6388.00,1.03
6387.00,1.03
6386.00,1.03
6385.00,1.03
6384.00,1.03
6383.00,1.03
6382.00,1.03
6381.00,1.03
6380.00,1.03
6379.00,1.03
6378.00,1.04
6377.00,1.04
6376.00,1.04
6375.00,1.04
6374.00,1.04
6373.00,1.04
6372.00,1.04
6371.00,1.04
6370.00,1.04
6369.00,1.04
6368.00,1.04
6367.00,1.04
6366.00,1.04
6365.00,1.04
6364.00,1.04
6363.00,1.05
6362.00,1.05
6361.00,1.05
6360.00,1.05
6359.00,1.05
6358.00,1.05
6357.00,1.05
6356.00,1.05
6355.00,1.05
6354.00,1.05
6353.00,1.05
6352.00,1.05
6351.00,1.05
6350.00,1.06
6349.00,1.06
6348.00,1.06
6347.00,1.06
6346.00,1.06
6345.00,1.06
6344.00,1.06
6343.00,1.06
6342.00,1.06
6341.00,1.06
6340.00,1.06
6339.00,1.06
6338.00,1.06
6337.00,1.07
6336.00,1.07
6335.00,1.07
6334.00,1.07
6333.00,1.07
6332.00,1.07
6331.00,1.07
6330.00,1.07
6329.00,1.07
6328.00,1.07
6327.00,1.07
6326.00,1.08
6325.00,1.08
6324.00,1.08
6323.00,1.08
6322.00,1.08
6321.00,1.08
6320.00,1.08
6319.00,1.08
6318.00,1.08
6317.00,1.08
6316.00,1.08
6315.00,1.08
6314.00,1.09
6313.00,1.09
6312.00,1.09
6311.00,1.09
6310.00,1.09
6309.00,1.09
6308.00,1.09
6307.00,1.09
6306.00,1.09
6305.00,1.09
6304.00,1.10
6303.00,1.10
6302.00,1.10
6301.00,1.10
6300.00,1.10
6299.00,1.10
6298.00,1.10
6297.00,1.10
6296.00,1.10
6295.00,1.11
6294.00,1.11
6293.00,1.11
6292.00,1.11
6291.00,1.11
6290.00,1.11
6289.00,1.11
6288.00,1.11
6287.00,1.11
6286.00,1.11
6285.00,1.12
6284.00,1.12
6283.00,1.12
6282.00,1.12
6281.00,1.12
6280.00,1.12
6279.00,1.12
6278.00,1.12
6277.00,1.12
6276.00,1.12
6275.00,1.12
6274.00,1.12
6273.00,1.13
6272.00,1.13
6271.00,1.13
6270.00,1.13
6269.00,1.13
6268.00,1.13
6267.00,1.13
6266.00,1.13
6265.00,1.14
6264.00,1.14
6263.00,1.14
6262.00,1.14
6261.00,1.14
6260.00,1.14
6259.00,1.14
6258.00,1.15
6257.00,1.15
6256.00,1.15
6255.00,1.15
6254.00,1.15
6253.00,1.15
6252.00,1.15
6251.00,1.15
6250.00,1.16
6249.00,1.16
6248.00,1.16
6247.00,1.16
6246.00,1.16
6245.00,1.16
6244.00,1.16
6243.00,1.16
6242.00,1.17
6241.00,1.17
6240.00,1.17
6239.00,1.17
6238.00,1.17
6237.00,1.17
6236.00,1.17
6235.00,1.17
6234.00,1.18
6233.00,1.18
6232.00,1.18
6231.00,1.18
6230.00,1.18
6229.00,1.18
6228.00,1.18
6227.00,1.18
6226.00,1.19
6225.00,1.19
6224.00,1.19
6223.00,1.19
6222.00,1.19
6221.00,1.19
6220.00,1.19
6219.00,1.19
6218.00,1.20
6217.00,1.20
6216.00,1.20
6215.00,1.20
6214.00,1.20
6213.00,1.20
6212.00,1.20
6211.00,1.21
6210.00,1.21
6209.00,1.21
6208.00,1.21
6207.00,1.21
6206.00,1.21
6205.00,1.22
6204.00,1.22
6203.00,1.22
6202.00,1.22
6201.00,1.22
6200.00,1.22
6199.00,1.23
6198.00,1.23
6197.00,1.23
6196.00,1.23
6195.00,1.23
6194.00,1.23
6193.00,1.23
6192.00,1.23
6191.00,1.24
6190.00,1.24
6189.00,1.24
6188.00,1.24
6187.00,1.24
6186.00,1.24
6185.00,1.24
6184.00,1.24
6183.00,1.24
6182.00,1.25
6181.00,1.25
6180.00,1.25
6179.00,1.25
6178.00,1.25
6177.00,1.25
6176.00,1.25
6175.00,1.25
6174.00,1.25
6173.00,1.26
6172.00,1.26
6171.00,1.26
6170.00,1.26
6169.00,1.26
6168.00,1.26
6167.00,1.26
6166.00,1.27
6165.00,1.27
6164.00,1.27
6163.00,1.27
6162.00,1.27
6161.00,1.28
6160.00,1.28
6159.00,1.28
6158.00,1.28
6157.00,1.28
6156.00,1.28
6155.00,1.29
6154.00,1.29
6153.00,1.29
6152.00,1.29
6151.00,1.29
6150.00,1.30
6149.00,1.30
6148.00,1.30
6147.00,1.30
6146.00,1.30
6145.00,1.30
6144.00,1.30
6143.00,1.31
6142.00,1.31
6141.00,1.31
6140.00,1.31
6139.00,1.31
6138.00,1.31
6137.00,1.32
6136.00,1.32
6135.00,1.32
6134.00,1.32
6133.00,1.32
6132.00,1.32
6131.00,1.33
6130.00,1.33
6129.00,1.33
6128.00,1.33
6127.00,1.33
6126.00,1.33
6125.00,1.33
6124.00,1.33
6123.00,1.34
6122.00,1.34
6121.00,1.34
6120.00,1.34
6119.00,1.34
6118.00,1.34
6117.00,1.35
6116.00,1.35
6115.00,1.35
6114.00,1.35
6113.00,1.35
6112.00,1.35
6111.00,1.36
6110.00,1.36
6109.00,1.36
6108.00,1.36
6107.00,1.36
6106.00,1.37
6105.00,1.37
6104.00,1.37
6103.00,1.37
6102.00,1.37
6101.00,1.37
6100.00,1.38
6099.00,1.38
6098.00,1.38
6097.00,1.38
6096.00,1.38
6095.00,1.38
6094.00,1.38
6093.00,1.38
6092.00,1.38
6091.00,1.38
6090.00,1.39
6089.00,1.39
6088.00,1.39
6087.00,1.39
6086.00,1.39
6085.00,1.39
6084.00,1.39
6083.00,1.39
6082.00,1.39
6081.00,1.39
6080.00,1.39
6079.00,1.39
6078.00,1.39
6077.00,1.39
6076.00,1.39
6075.00,1.40
6074.00,1.40
6073.00,1.40
6072.00,1.40
6071.00,1.40
6070.00,1.40
6069.00,1.40
6068.00,1.40
6067.00,1.41
6066.00,1.41
6065.00,1.41
6064.00,1.41
6063.00,1.41
6062.00,1.41
6061.00,1.41
6060.00,1.42
6059.00,1.42
6058.00,1.42
6057.00,1.42
6056.00,1.42
6055.00,1.42
6054.00,1.42
6053.00,1.42
6052.00,1.42
6051.00,1.42
6050.00,1.43
6049.00,1.43
6048.00,1.43
6047.00,1.43
6046.00,1.43
6045.00,1.43
6044.00,1.43
6043.00,1.43
6042.00,1.43
6041.00,1.43
6040.00,1.43
6039.00,1.43
6038.00,1.43
6037.00,1.43
6036.00,1.43
6035.00,1.43
6034.00,1.43
6033.00,1.43
6032.00,1.43
6031.00,1.43
6030.00,1.43
6029.00,1.43
6028.00,1.44
6027.00,1.44
6026.00,1.44
6025.00,1.44
6024.00,1.44
6023.00,1.44
6022.00,1.44
6021.00,1.44
6020.00,1.44
6019.00,1.44
6018.00,1.44
6017.00,1.44
6016.00,1.44
6015.00,1.44
6014.00,1.44
6013.00,1.44
6012.00,1.44
6011.00,1.44
6010.00,1.44
6009.00,1.44
6008.00,1.44
6007.00,1.44
6006.00,1.44
6005.00,1.44
6004.00,1.44
6003.00,1.44
6002.00,1.44
6001.00,1.44
6000.00,1.43
5999.00,1.43
5998.00,1.43
5997.00,1.43
5996.00,1.43
5995.00,1.43
5994.00,1.43
5993.00,1.43
5992.00,1.42
5991.00,1.42
5990.00,1.42
5989.00,1.42
5988.00,1.42
5987.00,1.41
5986.00,1.41
5985.00,1.41
5984.00,1.41
5983.00,1.40
5982.00,1.40
5981.00,1.40
5980.00,1.39
5979.00,1.39
5978.00,1.39
5977.00,1.38
5976.00,1.38
5975.00,1.37
5974.00,1.36
5973.00,1.36
5972.00,1.35
5971.00,1.35
5970.00,1.34
5969.00,1.33
5968.00,1.33
5967.00,1.32
5966.00,1.31
5965.00,1.30
5964.00,1.29
5963.00,1.28
5962.00,1.28
5961.00,1.27
5960.00,1.26
5959.00,1.25
5958.00,1.24
5957.00,1.23
5956.00,1.22
5955.00,1.22
5954.00,1.21
5953.00,1.20
5952.00,1.19
5951.00,1.19
5950.00,1.18
5949.00,1.17
5948.00,1.17
5947.00,1.16
5946.00,1.16
5945.00,1.15
5944.00,1.15
5943.00,1.14
5942.00,1.14
5941.00,1.14
5940.00,1.13
5939.00,1.13
5938.00,1.13
5937.00,1.13
5936.00,1.13
5935.00,1.12
5934.00,1.12
5933.00,1.12
5932.00,1.12
5931.00,1.12
5930.00,1.12
5929.00,1.12
5928.00,1.11
5927.00,1.11
5926.00,1.11
5925.00,1.11
5924.00,1.11
5923.00,1.11
5922.00,1.11
5921.00,1.10
5920.00,1.10
5919.00,1.10
5918.00,1.10
5917.00,1.09
5916.00,1.09
5915.00,1.09
5914.00,1.09
5913.00,1.08
5912.00,1.08
5911.00,1.08
5910.00,1.08
5909.00,1.07
5908.00,1.07
5907.00,1.07
5906.00,1.07
5905.00,1.06
5904.00,1.06
5903.00,1.06
5902.00,1.06
5901.00,1.06
5900.00,1.06
5899.00,1.06
5898.00,1.06
5897.00,1.06
5896.00,1.06
5895.00,1.07
5894.00,1.07
5893.00,1.07
5892.00,1.07
5891.00,1.08
5890.00,1.08
5889.00,1.08
5888.00,1.09
5887.00,1.09
5886.00,1.09
5885.00,1.10
5884.00,1.10
5883.00,1.10
5882.00,1.10
5881.00,1.11
5880.00,1.11
5879.00,1.11
5878.00,1.12
5877.00,1.12
5876.00,1.12
5875.00,1.12
5874.00,1.13
5873.00,1.13
5872.00,1.13
5871.00,1.13
5870.00,1.14
5869.00,1.14
5868.00,1.14
5867.00,1.14
5866.00,1.14
5865.00,1.15
5864.00,1.15
5863.00,1.15
5862.00,1.15
5861.00,1.15
5860.00,1.16
5859.00,1.16
5858.00,1.16
5857.00,1.16
5856.00,1.16
5855.00,1.16
5854.00,1.16
5853.00,1.17
5852.00,1.17
5851.00,1.17
5850.00,1.17
5849.00,1.17
5848.00,1.17
5847.00,1.17
5846.00,1.17
5845.00,1.17
5844.00,1.17
5843.00,1.17
5842.00,1.17
5841.00,1.17
5840.00,1.17
5839.00,1.17
5838.00,1.17
5837.00,1.17
5836.00,1.17
5835.00,1.17
5834.00,1.17
5833.00,1.17
5832.00,1.17
5831.00,1.17
5830.00,1.17
5829.00,1.17
5828.00,1.17
5827.00,1.17
5826.00,1.17
5825.00,1.17
5824.00,1.17
5823.00,1.17
5822.00,1.17
5821.00,1.17
5820.00,1.17
5819.00,1.17
5818.00,1.18
5817.00,1.18
5816.00,1.18
5815.00,1.18
5814.00,1.18
5813.00,1.18
5812.00,1.18
5811.00,1.18
5810.00,1.18
5809.00,1.18
5808.00,1.18
5807.00,1.18
5806.00,1.18
5805.00,1.18
5804.00,1.17
5803.00,1.17
5802.00,1.17
5801.00,1.17
5800.00,1.17
5799.00,1.17
5798.00,1.17
5797.00,1.16
5796.00,1.16
5795.00,1.16
5794.00,1.16
5793.00,1.15
5792.00,1.15
5791.00,1.15
5790.00,1.15
5789.00,1.14
5788.00,1.14
5787.00,1.14
5786.00,1.14
5785.00,1.13
5784.00,1.13
5783.00,1.13
5782.00,1.13
5781.00,1.12
5780.00,1.12
5779.00,1.12
5778.00,1.12
5777.00,1.12
5776.00,1.12
5775.00,1.12
5774.00,1.11
5773.00,1.11
5772.00,1.11
5771.00,1.11
5770.00,1.11
5769.00,1.12
5768.00,1.12
5767.00,1.12
5766.00,1.12
5765.00,1.12
5764.00,1.12
5763.00,1.13
5762.00,1.13
5761.00,1.13
5760.00,1.14
5759.00,1.14
5758.00,1.14
5757.00,1.15
5756.00,1.15
5755.00,1.15
5754.00,1.16
5753.00,1.16
5752.00,1.17
5751.00,1.17
5750.00,1.17
5749.00,1.18
5748.00,1.18
5747.00,1.18
5746.00,1.19
5745.00,1.19
5744.00,1.20
5743.00,1.20
5742.00,1.20
5741.00,1.21
5740.00,1.21
5739.00,1.21
5738.00,1.22
5737.00,1.22
5736.00,1.22
5735.00,1.22
5734.00,1.23
5733.00,1.23
5732.00,1.23
5731.00,1.23
5730.00,1.24
5729.00,1.24
5728.00,1.24
5727.00,1.24
5726.00,1.24
5725.00,1.24
5724.00,1.24
5723.00,1.25
5722.00,1.25
5721.00,1.25
5720.00,1.25
5719.00,1.25
5718.00,1.25
5717.00,1.25
5716.00,1.25
5715.00,1.25
5714.00,1.25
5713.00,1.25
5712.00,1.25
5711.00,1.25
5710.00,1.25
5709.00,1.25
5708.00,1.24
5707.00,1.24
5706.00,1.24
5705.00,1.24
5704.00,1.24
5703.00,1.24
5702.00,1.24
5701.00,1.24
5700.00,1.24
5699.00,1.24
5698.00,1.24
5697.00,1.24
5696.00,1.24
5695.00,1.23
5694.00,1.23
5693.00,1.23
5692.00,1.23
5691.00,1.23
5690.00,1.23
5689.00,1.23
5688.00,1.22
5687.00,1.22
5686.00,1.22
5685.00,1.22
5684.00,1.22
5683.00,1.22
5682.00,1.22
5681.00,1.22
5680.00,1.21
5679.00,1.21
5678.00,1.21
5677.00,1.21
5676.00,1.21
5675.00,1.21
5674.00,1.21
5673.00,1.21
5672.00,1.21
5671.00,1.21
5670.00,1.21
5669.00,1.22
5668.00,1.22
5667.00,1.22
5666.00,1.22
5665.00,1.22
5664.00,1.22
5663.00,1.22
5662.00,1.22
5661.00,1.22
5660.00,1.23
5659.00,1.23
5658.00,1.23
5657.00,1.23
5656.00,1.23
5655.00,1.23
5654.00,1.24
5653.00,1.24
5652.00,1.24
5651.00,1.24
5650.00,1.25
5649.00,1.25
5648.00,1.25
5647.00,1.25
5646.00,1.26
5645.00,1.26
5644.00,1.26
5643.00,1.26
5642.00,1.27
5641.00,1.27
5640.00,1.27
5639.00,1.27
5638.00,1.28
5637.00,1.28
5636.00,1.28
5635.00,1.28
5634.00,1.29
5633.00,1.29
5632.00,1.29
5631.00,1.29
5630.00,1.29
5629.00,1.30
5628.00,1.30
5627.00,1.30
5626.00,1.30
5625.00,1.30
5624.00,1.30
5623.00,1.31
5622.00,1.31
5621.00,1.31
5620.00,1.31
5619.00,1.31
5618.00,1.32
5617.00,1.32
5616.00,1.32
5615.00,1.32
5614.00,1.32
5613.00,1.32
5612.00,1.33
5611.00,1.33
5610.00,1.33
5609.00,1.33
5608.00,1.33
5607.00,1.34
5606.00,1.34
5605.00,1.34
5604.00,1.34
5603.00,1.34
5602.00,1.34
5601.00,1.35
5600.00,1.35
5599.00,1.35
5598.00,1.35
5597.00,1.35
5596.00,1.35
5595.00,1.36
5594.00,1.36
5593.00,1.36
5592.00,1.36
5591.00,1.36
5590.00,1.36
5589.00,1.37
5588.00,1.37
5587.00,1.37
5586.00,1.37
5585.00,1.37
5584.00,1.37
5583.00,1.37
5582.00,1.38
5581.00,1.38
5580.00,1.38
5579.00,1.38
5578.00,1.38
5577.00,1.38
5576.00,1.38
5575.00,1.39
5574.00,1.39
5573.00,1.39
5572.00,1.39
5571.00,1.39
5570.00,1.40
5569.00,1.40
5568.00,1.40
5567.00,1.40
5566.00,1.40
5565.00,1.40
5564.00,1.41
5563.00,1.41
5562.00,1.41
5561.00,1.41
5560.00,1.41
5559.00,1.41
5558.00,1.41
5557.00,1.42
5556.00,1.42
5555.00,1.42
5554.00,1.42
5553.00,1.42
5552.00,1.42
5551.00,1.42
5550.00,1.43
5549.00,1.43
5548.00,1.43
5547.00,1.43
5546.00,1.43
5545.00,1.43
5544.00,1.43
5543.00,1.43
5542.00,1.44
5541.00,1.44
5540.00,1.44
5539.00,1.44
5538.00,1.44
5537.00,1.44
5536.00,1.44
5535.00,1.44
5534.00,1.45
5533.00,1.45
5532.00,1.45
5531.00,1.45
5530.00,1.45
5529.00,1.45
5528.00,1.45
5527.00,1.45
5526.00,1.45
5525.00,1.45
5524.00,1.46
5523.00,1.46
5522.00,1.46
5521.00,1.46
5520.00,1.46
5519.00,1.46
5518.00,1.46
5517.00,1.46
5516.00,1.46
5515.00,1.46
5514.00,1.46
5513.00,1.46
5512.00,1.46
5511.00,1.46
5510.00,1.46
5509.00,1.46
5508.00,1.47
5507.00,1.47
5506.00,1.47
5505.00,1.47
5504.00,1.47
5503.00,1.47
5502.00,1.47
5501.00,1.47
5500.00,1.47
5499.00,1.47
5498.00,1.47
5497.00,1.47
5496.00,1.47
5495.00,1.48
5494.00,1.48
5493.00,1.48
5492.00,1.48
5491.00,1.48
5490.00,1.48
5489.00,1.48
5488.00,1.48
5487.00,1.48
5486.00,1.49
5485.00,1.49
5484.00,1.49
5483.00,1.49
5482.00,1.49
5481.00,1.49
5480.00,1.49
5479.00,1.50
5478.00,1.50
5477.00,1.50
5476.00,1.50
5475.00,1.50
5474.00,1.50
5473.00,1.50
5472.00,1.51
5471.00,1.51
5470.00,1.51
5469.00,1.51
5468.00,1.51
5467.00,1.51
5466.00,1.51
5465.00,1.51
5464.00,1.52
5463.00,1.52
5462.00,1.52
5461.00,1.52
5460.00,1.52
5459.00,1.52
5458.00,1.52
5457.00,1.52
5456.00,1.53
5455.00,1.53
5454.00,1.53
5453.00,1.53
5452.00,1.53
5451.00,1.53
5450.00,1.53
5449.00,1.53
5448.00,1.54
5447.00,1.54
5446.00,1.54
5445.00,1.54
5444.00,1.54
5443.00,1.54
5442.00,1.54
5441.00,1.54
5440.00,1.54
5439.00,1.54
5438.00,1.54
5437.00,1.54
5436.00,1.54
5435.00,1.54
5434.00,1.54
5433.00,1.54
5432.00,1.54
5431.00,1.54
5430.00,1.54
5429.00,1.54
5428.00,1.54
5427.00,1.54
5426.00,1.54
5425.00,1.54
5424.00,1.54
5423.00,1.54
5422.00,1.54
5421.00,1.54
5420.00,1.54
5419.00,1.54
5418.00,1.54
5417.00,1.54
5416.00,1.54
5415.00,1.54
5414.00,1.54
5413.00,1.55
5412.00,1.55
5411.00,1.55
5410.00,1.55
5409.00,1.55
5408.00,1.55
5407.00,1.55
5406.00,1.55
5405.00,1.55
5404.00,1.55
5403.00,1.55
5402.00,1.55
5401.00,1.55
5400.00,1.55
5399.00,1.55
5398.00,1.54
5397.00,1.54
5396.00,1.54
5395.00,1.54
5394.00,1.54
5393.00,1.54
5392.00,1.54
5391.00,1.54
5390.00,1.54
5389.00,1.54
5388.00,1.54
5387.00,1.53
5386.00,1.53
5385.00,1.53
5384.00,1.53
5383.00,1.53
5382.00,1.53
5381.00,1.52
5380.00,1.52
5379.00,1.52
5378.00,1.52
5377.00,1.51
5376.00,1.51
5375.00,1.51
5374.00,1.50
5373.00,1.50
5372.00,1.49
5371.00,1.49
5370.00,1.49
5369.00,1.48
5368.00,1.48
5367.00,1.47
5366.00,1.47
5365.00,1.46
5364.00,1.46
5363.00,1.45
5362.00,1.45
5361.00,1.44
5360.00,1.44
5359.00,1.43
5358.00,1.42
5357.00,1.42
5356.00,1.41
5355.00,1.40
5354.00,1.39
5353.00,1.39
5352.00,1.38
5351.00,1.37
5350.00,1.36
5349.00,1.35
5348.00,1.34
5347.00,1.33
5346.00,1.32
5345.00,1.31
5344.00,1.30
5343.00,1.29
5342.00,1.28
5341.00,1.27
5340.00,1.26
5339.00,1.25
5338.00,1.24
5337.00,1.23
5336.00,1.22
5335.00,1.20
5334.00,1.19
5333.00,1.18
5332.00,1.17
5331.00,1.16
5330.00,1.14
5329.00,1.13
5328.00,1.12
5327.00,1.10
5326.00,1.09
5325.00,1.08
5324.00,1.07
5323.00,1.05
5322.00,1.04
5321.00,1.03
5320.00,1.01
5319.00,1.00
5318.00,0.99
5317.00,0.98
5316.00,0.96
5315.00,0.95
5314.00,0.94
5313.00,0.93
5312.00,0.92
5311.00,0.90
5310.00,0.89
5309.00,0.88
5308.00,0.87
5307.00,0.86
5306.00,0.85
5305.00,0.84
5304.00,0.83
5303.00,0.82
5302.00,0.81
5301.00,0.81
5300.00,0.80
5299.00,0.79
5298.00,0.78
5297.00,0.78
5296.00,0.77
5295.00,0.77
5294.00,0.76
5293.00,0.75
5292.00,0.75
5291.00,0.74
5290.00,0.74
5289.00,0.74
5288.00,0.73
5287.00,0.73
5286.00,0.72
5285.00,0.72
5284.00,0.72
5283.00,0.71
5282.00,0.71
5281.00,0.71
5280.00,0.71
5279.00,0.70
5278.00,0.70
5277.00,0.70
5276.00,0.70
5275.00,0.70
5274.00,0.70
5273.00,0.69
5272.00,0.69
5271.00,0.69
5270.00,0.69
5269.00,0.69
5268.00,0.69
5267.00,0.68
5266.00,0.68
5265.00,0.68
5264.00,0.68
5263.00,0.68
5262.00,0.68
5261.00,0.68
5260.00,0.67
5259.00,0.67
5258.00,0.67
5257.00,0.67
5256.00,0.67
5255.00,0.67
5254.00,0.67
5253.00,0.67
5252.00,0.67
5251.00,0.67
5250.00,0.67
5249.00,0.67
5248.00,0.67
5247.00,0.66
5246.00,0.66
5245.00,0.66
5244.00,0.66
5243.00,0.66
5242.00,0.66
5241.00,0.66
5240.00,0.66
5239.00,0.66
5238.00,0.66
5237.00,0.66
5236.00,0.66
5235.00,0.66
5234.00,0.66
5233.00,0.66
5232.00,0.66
5231.00,0.66
5230.00,0.66
5229.00,0.66
5228.00,0.66
5227.00,0.66
5226.00,0.66
5225.00,0.66
5224.00,0.66
5223.00,0.66
5222.00,0.66
5221.00,0.66
5220.00,0.66
5219.00,0.66
5218.00,0.66
5217.00,0.66
5216.00,0.66
5215.00,0.66
5214.00,0.66
5213.00,0.66
5212.00,0.66
5211.00,0.66
5210.00,0.66
5209.00,0.66
5208.00,0.66
5207.00,0.66
5206.00,0.66
5205.00,0.66
5204.00,0.66
5203.00,0.66
5202.00,0.66
5201.00,0.66
5200.00,0.66
5199.00,0.67
5198.00,0.67
5197.00,0.67
5196.00,0.67
5195.00,0.67
5194.00,0.67
5193.00,0.67
5192.00,0.67
5191.00,0.67
5190.00,0.67
5189.00,0.67
5188.00,0.67
5187.00,0.67
5186.00,0.67
5185.00,0.67
5184.00,0.67
5183.00,0.67
5182.00,0.67
5181.00,0.67
5180.00,0.67
5179.00,0.67
5178.00,0.67
5177.00,0.67
5176.00,0.68
5175.00,0.68
5174.00,0.68
5173.00,0.68
5172.00,0.68
5171.00,0.68
5170.00,0.68
5169.00,0.68
5168.00,0.68
5167.00,0.68
5166.00,0.68
5165.00,0.68
5164.00,0.68
5163.00,0.68
5162.00,0.68
5161.00,0.68
5160.00,0.68
5159.00,0.68
5158.00,0.68
5157.00,0.68
5156.00,0.69
5155.00,0.69
5154.00,0.69
5153.00,0.69
5152.00,0.69
5151.00,0.69
5150.00,0.69
5149.00,0.69
5148.00,0.69
5147.00,0.69
5146.00,0.69
5145.00,0.69
5144.00,0.69
5143.00,0.69
5142.00,0.69
5141.00,0.69
5140.00,0.69
5139.00,0.69
5138.00,0.69
5137.00,0.69
5136.00,0.69
5135.00,0.69
5134.00,0.69
5133.00,0.69
5132.00,0.70
5131.00,0.70
5130.00,0.70
5129.00,0.70
5128.00,0.70
5127.00,0.70
5126.00,0.70
5125.00,0.70
5124.00,0.70
5123.00,0.70
5122.00,0.70
5121.00,0.70
5120.00,0.70
5119.00,0.70
5118.00,0.71
5117.00,0.71
5116.00,0.71
5115.00,0.71
5114.00,0.71
5113.00,0.71
5112.00,0.71
5111.00,0.71
5110.00,0.71
5109.00,0.72
5108.00,0.72
5107.00,0.72
5106.00,0.72
5105.00,0.72
5104.00,0.72
5103.00,0.72
5102.00,0.72
5101.00,0.72
5100.00,0.72
5099.00,0.72
5098.00,0.72
5097.00,0.72
5096.00,0.72
5095.00,0.72
5094.00,0.73
5093.00,0.73
5092.00,0.73
5091.00,0.73
5090.00,0.73
5089.00,0.73
5088.00,0.73
5087.00,0.73
5086.00,0.73
5085.00,0.73
5084.00,0.73
5083.00,0.73
5082.00,0.73
5081.00,0.73
5080.00,0.74
5079.00,0.74
5078.00,0.74
5077.00,0.74
5076.00,0.74
5075.00,0.74
5074.00,0.74
5073.00,0.74
5072.00,0.74
5071.00,0.75
5070.00,0.75
5069.00,0.75
5068.00,0.75
5067.00,0.75
5066.00,0.75
5065.00,0.75
5064.00,0.76
5063.00,0.76
5062.00,0.76
5061.00,0.76
5060.00,0.76
5059.00,0.76
5058.00,0.76
5057.00,0.76
5056.00,0.76
5055.00,0.77
5054.00,0.77
5053.00,0.77
5052.00,0.77
5051.00,0.77
5050.00,0.77
5049.00,0.77
5048.00,0.77
5047.00,0.78
5046.00,0.78
5045.00,0.78
5044.00,0.78
5043.00,0.78
5042.00,0.78
5041.00,0.79
5040.00,0.79
5039.00,0.79
5038.00,0.79
5037.00,0.79
5036.00,0.79
5035.00,0.80
5034.00,0.80
5033.00,0.80
5032.00,0.80
5031.00,0.80
5030.00,0.80
5029.00,0.80
5028.00,0.81
5027.00,0.81
5026.00,0.81
5025.00,0.81
5024.00,0.81
5023.00,0.81
5022.00,0.81
5021.00,0.81
5020.00,0.81
5019.00,0.81
5018.00,0.81
5017.00,0.82
5016.00,0.82
5015.00,0.82
5014.00,0.82
5013.00,0.82
5012.00,0.82
5011.00,0.82
5010.00,0.82
5009.00,0.82
5008.00,0.82
5007.00,0.83
5006.00,0.83
5005.00,0.83
5004.00,0.83
5003.00,0.83
5002.00,0.83
5001.00,0.83
5000.00,0.83
4999.00,0.84
4998.00,0.84
4997.00,0.84
4996.00,0.84
4995.00,0.84
4994.00,0.84
4993.00,0.84
4992.00,0.85
4991.00,0.85
4990.00,0.85
4989.00,0.85
4988.00,0.85
4987.00,0.85
4986.00,0.86
4985.00,0.86
4984.00,0.86
4983.00,0.86
4982.00,0.87
4981.00,0.87
4980.00,0.87
4979.00,0.87
4978.00,0.87
4977.00,0.88
4976.00,0.88
4975.00,0.88
4974.00,0.88
4973.00,0.88
4972.00,0.89
4971.00,0.89
4970.00,0.89
4969.00,0.89
4968.00,0.89
4967.00,0.89
4966.00,0.89
4965.00,0.89
4964.00,0.89
4963.00,0.90
4962.00,0.90
4961.00,0.90
4960.00,0.90
4959.00,0.90
4958.00,0.90
4957.00,0.90
4956.00,0.90
4955.00,0.91
4954.00,0.91
4953.00,0.91
4952.00,0.91
4951.00,0.91
4950.00,0.91
4949.00,0.91
4948.00,0.91
4947.00,0.91
4946.00,0.91
4945.00,0.92
4944.00,0.92
4943.00,0.92
4942.00,0.92
4941.00,0.92
4940.00,0.92
4939.00,0.92
4938.00,0.92
4937.00,0.92
4936.00,0.92
4935.00,0.93
4934.00,0.93
4933.00,0.93
4932.00,0.93
4931.00,0.93
4930.00,0.93
4929.00,0.93
4928.00,0.93
4927.00,0.93
4926.00,0.93
4925.00,0.93
4924.00,0.93
4923.00,0.94
4922.00,0.94
4921.00,0.94
4920.00,0.94
4919.00,0.94
4918.00,0.94
4917.00,0.94
4916.00,0.94
4915.00,0.94
4914.00,0.94
4913.00,0.94
4912.00,0.94
4911.00,0.94
4910.00,0.94
4909.00,0.94
4908.00,0.95
4907.00,0.95
4906.00,0.95
4905.00,0.95
4904.00,0.95
4903.00,0.95
4902.00,0.95
4901.00,0.95
4900.00,0.95
4899.00,0.95
4898.00,0.95
4897.00,0.95
4896.00,0.95
4895.00,0.95
4894.00,0.95
4893.00,0.95
4892.00,0.95
4891.00,0.95
4890.00,0.95
4889.00,0.96
4888.00,0.96
4887.00,0.96
4886.00,0.96
4885.00,0.96
4884.00,0.96
4883.00,0.96
4882.00,0.96
4881.00,0.96
4880.00,0.96
4879.00,0.96
4878.00,0.96
4877.00,0.96
4876.00,0.96
4875.00,0.96
4874.00,0.96
4873.00,0.96
4872.00,0.96
4871.00,0.96
4870.00,0.96
4869.00,0.96
4868.00,0.96
4867.00,0.96
4866.00,0.96
4865.00,0.96
4864.00,0.96
4863.00,0.96
4862.00,0.97
4861.00,0.97
4860.00,0.97
4859.00,0.97
4858.00,0.97
4857.00,0.97
4856.00,0.97
4855.00,0.97
4854.00,0.97
4853.00,0.98
4852.00,0.98
4851.00,0.98
4850.00,0.98
4849.00,0.98
4848.00,0.98
4847.00,0.98
4846.00,0.98
4845.00,0.98
4844.00,0.98
4843.00,0.98
4842.00,0.98
4841.00,0.98
4840.00,0.99
4839.00,0.99
4838.00,0.99
4837.00,0.99
4836.00,0.99
4835.00,0.99
4834.00,0.99
4833.00,0.99
4832.00,0.99
4831.00,0.99
4830.00,0.99
4829.00,0.99
4828.00,0.99
4827.00,0.99
4826.00,0.99
4825.00,1.00
4824.00,1.00
4823.00,1.00
4822.00,1.00
4821.00,1.00
4820.00,1.00
4819.00,1.01
4818.00,1.01
4817.00,1.01
4816.00,1.01
4815.00,1.01
4814.00,1.01
4813.00,1.01
4812.00,1.02
4811.00,1.02
4810.00,1.02
4809.00,1.02
4808.00,1.02
4807.00,1.02
4806.00,1.02
4805.00,1.03
4804.00,1.03
4803.00,1.03
4802.00,1.03
4801.00,1.03
4800.00,1.03
4799.00,1.04
4798.00,1.04
4797.00,1.04
4796.00,1.04
4795.00,1.04
4794.00,1.05
4793.00,1.05
4792.00,1.05
4791.00,1.05
4790.00,1.06
4789.00,1.06
4788.00,1.06
4787.00,1.06
4786.00,1.06
4785.00,1.07
4784.00,1.07
4783.00,1.07
4782.00,1.07
4781.00,1.07
4780.00,1.08
4779.00,1.08
4778.00,1.08
4777.00,1.08
4776.00,1.08
4775.00,1.08
4774.00,1.09
4773.00,1.09
4772.00,1.09
4771.00,1.09
4770.00,1.09
4769.00,1.10
4768.00,1.10
4767.00,1.10
4766.00,1.10
4765.00,1.10
4764.00,1.11
4763.00,1.11
4762.00,1.11
4761.00,1.11
4760.00,1.12
4759.00,1.12
4758.00,1.12
4757.00,1.12
4756.00,1.12
4755.00,1.13
4754.00,1.13
4753.00,1.13
4752.00,1.13
4751.00,1.13
4750.00,1.14
4749.00,1.14
4748.00,1.14
4747.00,1.14
4746.00,1.14
4745.00,1.15
4744.00,1.15
4743.00,1.15
4742.00,1.15
4741.00,1.15
4740.00,1.16
4739.00,1.16
4738.00,1.16
4737.00,1.16
4736.00,1.17
4735.00,1.17
4734.00,1.17
4733.00,1.17
4732.00,1.18
4731.00,1.18
4730.00,1.18
4729.00,1.18
4728.00,1.19
4727.00,1.19
4726.00,1.19
4725.00,1.19
4724.00,1.20
4723.00,1.20
4722.00,1.20
4721.00,1.21
4720.00,1.21
4719.00,1.21
4718.00,1.22
4717.00,1.22
4716.00,1.22
4715.00,1.23
4714.00,1.23
4713.00,1.23
4712.00,1.24
4711.00,1.24
4710.00,1.24
4709.00,1.24
4708.00,1.25
4707.00,1.25
4706.00,1.25
4705.00,1.25
4704.00,1.26
4703.00,1.26
4702.00,1.26
4701.00,1.26
4700.00,1.26
4699.00,1.26
4698.00,1.27
4697.00,1.27
4696.00,1.27
4695.00,1.27
4694.00,1.27
4693.00,1.28
4692.00,1.28
4691.00,1.28
4690.00,1.28
4689.00,1.29
4688.00,1.29
4687.00,1.29
4686.00,1.29
4685.00,1.30
4684.00,1.30
4683.00,1.30
4682.00,1.31
4681.00,1.31
4680.00,1.31
4679.00,1.31
4678.00,1.32
4677.00,1.32
4676.00,1.32
4675.00,1.32
4674.00,1.32
4673.00,1.32
4672.00,1.33
4671.00,1.33
4670.00,1.33
4669.00,1.33
4668.00,1.33
4667.00,1.33
4666.00,1.33
4665.00,1.34
4664.00,1.34
4663.00,1.34
4662.00,1.34
4661.00,1.34
4660.00,1.34
4659.00,1.35
4658.00,1.35
4657.00,1.35
4656.00,1.35
4655.00,1.36
4654.00,1.36
4653.00,1.36
4652.00,1.36
4651.00,1.37
4650.00,1.37
4649.00,1.37
4648.00,1.38
4647.00,1.38
4646.00,1.38
4645.00,1.38
4644.00,1.39
4643.00,1.39
4642.00,1.39
4641.00,1.39
4640.00,1.39
4639.00,1.40
4638.00,1.40
4637.00,1.40
4636.00,1.40
4635.00,1.40
4634.00,1.41
4633.00,1.41
4632.00,1.41
4631.00,1.41
4630.00,1.41
4629.00,1.41
4628.00,1.41
4627.00,1.42
4626.00,1.42
4625.00,1.42
4624.00,1.42
4623.00,1.42
4622.00,1.42
4621.00,1.42
4620.00,1.42
4619.00,1.42
4618.00,1.43
4617.00,1.43
4616.00,1.43
4615.00,1.43
4614.00,1.43
4613.00,1.43
4612.00,1.43
4611.00,1.43
4610.00,1.43
4609.00,1.43
4608.00,1.44
4607.00,1.44
4606.00,1.44
4605.00,1.44
4604.00,1.44
4603.00,1.44
4602.00,1.44
4601.00,1.44
4600.00,1.45
4599.00,1.45
4598.00,1.45
4597.00,1.45
4596.00,1.45
4595.00,1.45
4594.00,1.45
4593.00,1.45
4592.00,1.45
4591.00,1.46
4590.00,1.46
4589.00,1.46
4588.00,1.46
4587.00,1.46
4586.00,1.46
4585.00,1.46
4584.00,1.46
4583.00,1.46
4582.00,1.47
4581.00,1.47
4580.00,1.47
4579.00,1.47
4578.00,1.47
4577.00,1.48
4576.00,1.48
4575.00,1.48
4574.00,1.48
4573.00,1.49
4572.00,1.49
4571.00,1.49
4570.00,1.49
4569.00,1.49
4568.00,1.50
4567.00,1.50
4566.00,1.50
4565.00,1.50
4564.00,1.50
4563.00,1.50
4562.00,1.51
4561.00,1.51
4560.00,1.51
4559.00,1.51
4558.00,1.51
4557.00,1.51
4556.00,1.51
4555.00,1.51
4554.00,1.51
4553.00,1.51
4552.00,1.51
4551.00,1.51
4550.00,1.51
4549.00,1.52
4548.00,1.52
4547.00,1.52
4546.00,1.52
4545.00,1.52
4544.00,1.52
4543.00,1.52
4542.00,1.52
4541.00,1.52
4540.00,1.52
4539.00,1.52
4538.00,1.52
4537.00,1.52
4536.00,1.52
4535.00,1.52
4534.00,1.52
4533.00,1.52
4532.00,1.52
4531.00,1.53
4530.00,1.53
4529.00,1.53
4528.00,1.53
4527.00,1.53
4526.00,1.53
4525.00,1.53
4524.00,1.54
4523.00,1.54
4522.00,1.54
4521.00,1.54
4520.00,1.54
4519.00,1.54
4518.00,1.54
4517.00,1.54
4516.00,1.54
4515.00,1.54
4514.00,1.54
4513.00,1.54
4512.00,1.54
4511.00,1.54
4510.00,1.54
4509.00,1.54
4508.00,1.54
4507.00,1.54
4506.00,1.54
4505.00,1.54
4504.00,1.54
4503.00,1.54
4502.00,1.54
4501.00,1.53
4500.00,1.53
4499.00,1.53
4498.00,1.53
4497.00,1.53
4496.00,1.53
4495.00,1.52
4494.00,1.52
4493.00,1.52
4492.00,1.52
4491.00,1.52
4490.00,1.51
4489.00,1.51
4488.00,1.51
4487.00,1.51
4486.00,1.50
4485.00,1.50
4484.00,1.50
4483.00,1.49
4482.00,1.49
4481.00,1.49
4480.00,1.48
4479.00,1.48
4478.00,1.48
4477.00,1.47
4476.00,1.47
4475.00,1.46
4474.00,1.46
4473.00,1.46
4472.00,1.45
4471.00,1.45
4470.00,1.45
4469.00,1.44
4468.00,1.44
4467.00,1.43
4466.00,1.43
4465.00,1.42
4464.00,1.42
4463.00,1.41
4462.00,1.41
4461.00,1.40
4460.00,1.40
4459.00,1.39
4458.00,1.39
4457.00,1.38
4456.00,1.38
4455.00,1.37
4454.00,1.37
4453.00,1.36
4452.00,1.36
4451.00,1.35
4450.00,1.34
4449.00,1.34
4448.00,1.33
4447.00,1.32
4446.00,1.32
4445.00,1.31
4444.00,1.30
4443.00,1.30
4442.00,1.29
4441.00,1.28
4440.00,1.28
4439.00,1.27
4438.00,1.26
4437.00,1.26
4436.00,1.25
4435.00,1.24
4434.00,1.24
4433.00,1.23
4432.00,1.23
4431.00,1.22
4430.00,1.21
4429.00,1.21
4428.00,1.20
4427.00,1.20
4426.00,1.20
4425.00,1.19
4424.00,1.19
4423.00,1.19
4422.00,1.18
4421.00,1.18
4420.00,1.18
4419.00,1.18
4418.00,1.17
4417.00,1.17
4416.00,1.17
4415.00,1.17
4414.00,1.17
4413.00,1.17
4412.00,1.17
4411.00,1.17
4410.00,1.17
4409.00,1.17
4408.00,1.17
4407.00,1.17
4406.00,1.17
4405.00,1.17
4404.00,1.17
4403.00,1.17
4402.00,1.18
4401.00,1.18
4400.00,1.18
4399.00,1.18
4398.00,1.18
4397.00,1.18
4396.00,1.18
4395.00,1.18
4394.00,1.19
4393.00,1.19
4392.00,1.19
4391.00,1.19
4390.00,1.19
4389.00,1.19
4388.00,1.20
4387.00,1.20
4386.00,1.20
4385.00,1.20
4384.00,1.20
4383.00,1.21
4382.00,1.21
4381.00,1.21
4380.00,1.21
4379.00,1.21
4378.00,1.22
4377.00,1.22
4376.00,1.22
4375.00,1.22
4374.00,1.22
4373.00,1.23
4372.00,1.23
4371.00,1.23
4370.00,1.23
4369.00,1.23
4368.00,1.23
4367.00,1.23
4366.00,1.23
4365.00,1.23
4364.00,1.23
4363.00,1.23
4362.00,1.23
4361.00,1.23
4360.00,1.23
4359.00,1.23
4358.00,1.23
4357.00,1.23
4356.00,1.23
4355.00,1.23
4354.00,1.23
4353.00,1.23
4352.00,1.23
4351.00,1.22
4350.00,1.22
4349.00,1.22
4348.00,1.22
4347.00,1.22
4346.00,1.22
4345.00,1.22
4344.00,1.22
4343.00,1.22
4342.00,1.22
4341.00,1.21
4340.00,1.21
4339.00,1.21
4338.00,1.21
4337.00,1.22
4336.00,1.22
4335.00,1.22
4334.00,1.22
4333.00,1.22
4332.00,1.22
4331.00,1.22
4330.00,1.23
4329.00,1.23
4328.00,1.23
4327.00,1.23
4326.00,1.24
4325.00,1.24
4324.00,1.24
4323.00,1.25
4322.00,1.25
4321.00,1.25
4320.00,1.25
4319.00,1.26
4318.00,1.26
4317.00,1.26
4316.00,1.27
4315.00,1.27
4314.00,1.27
4313.00,1.28
4312.00,1.28
4311.00,1.28
4310.00,1.28
4309.00,1.29
4308.00,1.29
4307.00,1.29
4306.00,1.30
4305.00,1.30
4304.00,1.30
4303.00,1.30
4302.00,1.31
4301.00,1.31
4300.00,1.31
4299.00,1.31
4298.00,1.32
4297.00,1.32
4296.00,1.32
4295.00,1.32
4294.00,1.33
4293.00,1.33
4292.00,1.33
4291.00,1.33
4290.00,1.33
4289.00,1.33
4288.00,1.34
4287.00,1.34
4286.00,1.34
4285.00,1.34
4284.00,1.34
4283.00,1.34
4282.00,1.34
4281.00,1.34
4280.00,1.34
4279.00,1.34
4278.00,1.34
4277.00,1.34
4276.00,1.34
4275.00,1.34
4274.00,1.34
4273.00,1.34
4272.00,1.34
4271.00,1.34
4270.00,1.34
4269.00,1.34
4268.00,1.34
4267.00,1.34
4266.00,1.34
4265.00,1.33
4264.00,1.33
4263.00,1.33
4262.00,1.33
4261.00,1.33
4260.00,1.33
4259.00,1.33
4258.00,1.33
4257.00,1.33
4256.00,1.33
4255.00,1.34
4254.00,1.34
4253.00,1.34
4252.00,1.34
4251.00,1.34
4250.00,1.34
4249.00,1.34
4248.00,1.34
4247.00,1.34
4246.00,1.35
4245.00,1.35
4244.00,1.35
4243.00,1.35
4242.00,1.35
4241.00,1.36
4240.00,1.36
4239.00,1.36
4238.00,1.36
4237.00,1.36
4236.00,1.36
4235.00,1.37
4234.00,1.37
4233.00,1.37
4232.00,1.37
4231.00,1.37
4230.00,1.37
4229.00,1.38
4228.00,1.38
4227.00,1.38
4226.00,1.38
4225.00,1.38
4224.00,1.39
4223.00,1.39
4222.00,1.39
4221.00,1.39
4220.00,1.40
4219.00,1.40
4218.00,1.40
4217.00,1.40
4216.00,1.41
4215.00,1.41
4214.00,1.41
4213.00,1.41
4212.00,1.42
4211.00,1.42
4210.00,1.42
4209.00,1.42
4208.00,1.43
4207.00,1.43
4206.00,1.43
4205.00,1.43
4204.00,1.43
4203.00,1.43
4202.00,1.43
4201.00,1.44
4200.00,1.44
4199.00,1.44
4198.00,1.44
4197.00,1.44
4196.00,1.44
4195.00,1.44
4194.00,1.44
4193.00,1.43
4192.00,1.43
4191.00,1.43
4190.00,1.43
4189.00,1.43
4188.00,1.43
4187.00,1.43
4186.00,1.43
4185.00,1.43
4184.00,1.42
4183.00,1.42
4182.00,1.42
4181.00,1.42
4180.00,1.42
4179.00,1.42
4178.00,1.42
4177.00,1.42
4176.00,1.42
4175.00,1.43
4174.00,1.43
4173.00,1.43
4172.00,1.43
4171.00,1.43
4170.00,1.43
4169.00,1.43
4168.00,1.44
4167.00,1.44
4166.00,1.44
4165.00,1.44
4164.00,1.44
4163.00,1.44
4162.00,1.44
4161.00,1.44
4160.00,1.44
4159.00,1.44
4158.00,1.44
4157.00,1.44
4156.00,1.44
4155.00,1.44
4154.00,1.44
4153.00,1.44
4152.00,1.44
4151.00,1.44
4150.00,1.44
4149.00,1.44
4148.00,1.44
4147.00,1.44
4146.00,1.44
4145.00,1.44
4144.00,1.44
4143.00,1.44
4142.00,1.44
4141.00,1.44
4140.00,1.44
4139.00,1.44
4138.00,1.44
4137.00,1.44
4136.00,1.44
4135.00,1.44
4134.00,1.44
4133.00,1.45
4132.00,1.45
4131.00,1.45
4130.00,1.45
4129.00,1.45
4128.00,1.45
4127.00,1.45
4126.00,1.45
4125.00,1.45
4124.00,1.45
4123.00,1.45
4122.00,1.45
4121.00,1.45
4120.00,1.45
4119.00,1.45
4118.00,1.45
4117.00,1.45
4116.00,1.46
4115.00,1.46
4114.00,1.46
4113.00,1.46
4112.00,1.46
4111.00,1.47
4110.00,1.47
4109.00,1.47
4108.00,1.47
4107.00,1.47
4106.00,1.47
4105.00,1.47
4104.00,1.47
4103.00,1.47
4102.00,1.47
4101.00,1.47
4100.00,1.47
4099.00,1.47
4098.00,1.47
4097.00,1.47
4096.00,1.47
4095.00,1.47
4094.00,1.47
4093.00,1.47
4092.00,1.47
4091.00,1.47
4090.00,1.47
4089.00,1.47
4088.00,1.47
4087.00,1.47
4086.00,1.47
4085.00,1.47
4084.00,1.47
4083.00,1.48
4082.00,1.48
4081.00,1.48
4080.00,1.48
4079.00,1.48
4078.00,1.48
4077.00,1.48
4076.00,1.48
4075.00,1.48
4074.00,1.48
4073.00,1.48
4072.00,1.48
4071.00,1.48
4070.00,1.48
4069.00,1.48
4068.00,1.48
4067.00,1.48
4066.00,1.48
4065.00,1.48
4064.00,1.48
4063.00,1.48
4062.00,1.48
4061.00,1.48
4060.00,1.48
4059.00,1.48
4058.00,1.48
4057.00,1.48
4056.00,1.49
4055.00,1.49
4054.00,1.49
4053.00,1.49
4052.00,1.49
4051.00,1.49
4050.00,1.49
4049.00,1.50
4048.00,1.50
4047.00,1.50
4046.00,1.50
4045.00,1.51
4044.00,1.51
4043.00,1.51
4042.00,1.51
4041.00,1.51
4040.00,1.52
4039.00,1.52
4038.00,1.52
4037.00,1.52
4036.00,1.52
4035.00,1.52
4034.00,1.52
4033.00,1.52
4032.00,1.52
4031.00,1.52
4030.00,1.52
4029.00,1.53
4028.00,1.53
4027.00,1.53
4026.00,1.53
4025.00,1.53
4024.00,1.53
4023.00,1.53
4022.00,1.53
4021.00,1.54
4020.00,1.54
4019.00,1.54
4018.00,1.54
4017.00,1.54
4016.00,1.54
4015.00,1.54
4014.00,1.54
4013.00,1.54
4012.00,1.55
4011.00,1.55
4010.00,1.55
4009.00,1.55
4008.00,1.55
4007.00,1.55
4006.00,1.55
4005.00,1.55
4004.00,1.55
4003.00,1.55
4002.00,1.54
4001.00,1.54
4000.00,1.54
