创建为新数据集,样品 135 用户 Administrator 日期 星期三, 十一月 08 2017
cm-1,%T
10000.00,1.52
9999.00,1.52
9998.00,1.52
9997.00,1.52
9996.00,1.52
9995.00,1.52
9994.00,1.52
9993.00,1.52
9992.00,1.52
9991.00,1.52
9990.00,1.52
9989.00,1.52
9988.00,1.51
9987.00,1.51
9986.00,1.51
9985.00,1.51
9984.00,1.51
9983.00,1.50
9982.00,1.50
9981.00,1.50
9980.00,1.50
9979.00,1.49
9978.00,1.49
9977.00,1.49
9976.00,1.49
9975.00,1.49
9974.00,1.49
9973.00,1.48
9972.00,1.48
9971.00,1.48
9970.00,1.48
9969.00,1.48
9968.00,1.48
9967.00,1.48
9966.00,1.48
9965.00,1.49
9964.00,1.49
9963.00,1.49
9962.00,1.49
9961.00,1.49
9960.00,1.49
9959.00,1.49
9958.00,1.49
9957.00,1.49
9956.00,1.49
9955.00,1.49
9954.00,1.49
9953.00,1.49
9952.00,1.49
9951.00,1.49
9950.00,1.49
9949.00,1.49
9948.00,1.49
9947.00,1.49
9946.00,1.49
9945.00,1.49
9944.00,1.49
9943.00,1.49
9942.00,1.49
9941.00,1.49
9940.00,1.49
9939.00,1.49
9938.00,1.49
9937.00,1.49
9936.00,1.49
9935.00,1.48
9934.00,1.48
9933.00,1.48
9932.00,1.48
9931.00,1.48
9930.00,1.49
9929.00,1.49
9928.00,1.49
9927.00,1.49
9926.00,1.49
9925.00,1.49
9924.00,1.49
9923.00,1.49
9922.00,1.49
9921.00,1.49
9920.00,1.49
9919.00,1.49
9918.00,1.50
9917.00,1.50
9916.00,1.50
9915.00,1.50
9914.00,1.50
9913.00,1.50
9912.00,1.50
9911.00,1.51
9910.00,1.51
9909.00,1.51
9908.00,1.51
9907.00,1.51
9906.00,1.51
9905.00,1.51
9904.00,1.52
9903.00,1.52
9902.00,1.52
9901.00,1.52
9900.00,1.52
9899.00,1.52
9898.00,1.52
9897.00,1.52
9896.00,1.52
9895.00,1.52
9894.00,1.52
9893.00,1.52
9892.00,1.52
9891.00,1.52
9890.00,1.52
9889.00,1.52
9888.00,1.52
9887.00,1.51
9886.00,1.51
9885.00,1.51
9884.00,1.51
9883.00,1.51
9882.00,1.51
9881.00,1.51
9880.00,1.51
9879.00,1.51
9878.00,1.52
9877.00,1.52
9876.00,1.52
9875.00,1.52
9874.00,1.51
9873.00,1.51
9872.00,1.51
9871.00,1.51
9870.00,1.51
9869.00,1.51
9868.00,1.51
9867.00,1.50
9866.00,1.50
9865.00,1.50
9864.00,1.50
9863.00,1.49
9862.00,1.49
9861.00,1.49
9860.00,1.48
9859.00,1.48
9858.00,1.48
9857.00,1.48
9856.00,1.48
9855.00,1.47
9854.00,1.47
9853.00,1.47
9852.00,1.47
9851.00,1.47
9850.00,1.47
9849.00,1.48
9848.00,1.48
9847.00,1.48
9846.00,1.48
9845.00,1.48
9844.00,1.48
9843.00,1.49
9842.00,1.49
9841.00,1.49
9840.00,1.49
9839.00,1.49
9838.00,1.49
9837.00,1.49
9836.00,1.49
9835.00,1.49
9834.00,1.49
9833.00,1.49
9832.00,1.49
9831.00,1.49
9830.00,1.49
9829.00,1.49
9828.00,1.49
9827.00,1.49
9826.00,1.49
9825.00,1.49
9824.00,1.49
9823.00,1.49
9822.00,1.50
9821.00,1.50
9820.00,1.50
9819.00,1.50
9818.00,1.50
9817.00,1.50
9816.00,1.50
9815.00,1.50
9814.00,1.50
9813.00,1.50
9812.00,1.50
9811.00,1.50
9810.00,1.50
9809.00,1.50
9808.00,1.50
9807.00,1.50
9806.00,1.50
9805.00,1.50
9804.00,1.50
9803.00,1.50
9802.00,1.50
9801.00,1.50
9800.00,1.50
9799.00,1.50
9798.00,1.50
9797.00,1.50
9796.00,1.50
9795.00,1.50
9794.00,1.50
9793.00,1.50
9792.00,1.50
9791.00,1.50
9790.00,1.50
9789.00,1.50
9788.00,1.50
9787.00,1.50
9786.00,1.50
9785.00,1.50
9784.00,1.50
9783.00,1.50
9782.00,1.50
9781.00,1.50
9780.00,1.50
9779.00,1.50
9778.00,1.50
9777.00,1.50
9776.00,1.50
9775.00,1.49
9774.00,1.49
9773.00,1.49
9772.00,1.49
9771.00,1.49
9770.00,1.49
9769.00,1.49
9768.00,1.49
9767.00,1.49
9766.00,1.49
9765.00,1.49
9764.00,1.48
9763.00,1.48
9762.00,1.48
9761.00,1.48
9760.00,1.48
9759.00,1.48
9758.00,1.48
9757.00,1.48
9756.00,1.48
9755.00,1.49
9754.00,1.49
9753.00,1.49
9752.00,1.49
9751.00,1.49
9750.00,1.50
9749.00,1.50
9748.00,1.50
9747.00,1.50
9746.00,1.51
9745.00,1.51
9744.00,1.51
9743.00,1.51
9742.00,1.51
9741.00,1.51
9740.00,1.51
9739.00,1.51
9738.00,1.51
9737.00,1.51
9736.00,1.51
9735.00,1.51
9734.00,1.51
9733.00,1.51
9732.00,1.51
9731.00,1.51
9730.00,1.51
9729.00,1.51
9728.00,1.51
9727.00,1.51
9726.00,1.51
9725.00,1.51
9724.00,1.51
9723.00,1.51
9722.00,1.51
9721.00,1.50
9720.00,1.50
9719.00,1.50
9718.00,1.50
9717.00,1.50
9716.00,1.49
9715.00,1.49
9714.00,1.49
9713.00,1.49
9712.00,1.49
9711.00,1.49
9710.00,1.48
9709.00,1.48
9708.00,1.48
9707.00,1.48
9706.00,1.48
9705.00,1.48
9704.00,1.49
9703.00,1.49
9702.00,1.49
9701.00,1.49
9700.00,1.49
9699.00,1.49
9698.00,1.49
9697.00,1.49
9696.00,1.50
9695.00,1.50
9694.00,1.50
9693.00,1.50
9692.00,1.50
9691.00,1.50
9690.00,1.50
9689.00,1.50
9688.00,1.50
9687.00,1.50
9686.00,1.50
9685.00,1.50
9684.00,1.50
9683.00,1.50
9682.00,1.50
9681.00,1.50
9680.00,1.50
9679.00,1.50
9678.00,1.50
9677.00,1.50
9676.00,1.50
9675.00,1.50
9674.00,1.50
9673.00,1.51
9672.00,1.51
9671.00,1.51
9670.00,1.51
9669.00,1.51
9668.00,1.51
9667.00,1.51
9666.00,1.51
9665.00,1.51
9664.00,1.52
9663.00,1.52
9662.00,1.52
9661.00,1.52
9660.00,1.52
9659.00,1.52
9658.00,1.52
9657.00,1.52
9656.00,1.52
9655.00,1.52
9654.00,1.51
9653.00,1.51
9652.00,1.51
9651.00,1.51
9650.00,1.51
9649.00,1.50
9648.00,1.50
9647.00,1.50
9646.00,1.50
9645.00,1.49
9644.00,1.49
9643.00,1.49
9642.00,1.49
9641.00,1.48
9640.00,1.48
9639.00,1.48
9638.00,1.48
9637.00,1.48
9636.00,1.47
9635.00,1.47
9634.00,1.47
9633.00,1.47
9632.00,1.47
9631.00,1.47
9630.00,1.47
9629.00,1.47
9628.00,1.47
9627.00,1.47
9626.00,1.47
9625.00,1.47
9624.00,1.47
9623.00,1.47
9622.00,1.47
9621.00,1.47
9620.00,1.47
9619.00,1.47
9618.00,1.47
9617.00,1.48
9616.00,1.48
9615.00,1.48
9614.00,1.48
9613.00,1.48
9612.00,1.48
9611.00,1.48
9610.00,1.48
9609.00,1.48
9608.00,1.49
9607.00,1.49
9606.00,1.49
9605.00,1.49
9604.00,1.49
9603.00,1.49
9602.00,1.49
9601.00,1.49
9600.00,1.49
9599.00,1.49
9598.00,1.49
9597.00,1.49
9596.00,1.49
9595.00,1.49
9594.00,1.49
9593.00,1.49
9592.00,1.50
9591.00,1.50
9590.00,1.50
9589.00,1.50
9588.00,1.50
9587.00,1.51
9586.00,1.51
9585.00,1.51
9584.00,1.51
9583.00,1.51
9582.00,1.52
9581.00,1.52
9580.00,1.52
9579.00,1.52
9578.00,1.52
9577.00,1.52
9576.00,1.51
9575.00,1.51
9574.00,1.51
9573.00,1.51
9572.00,1.50
9571.00,1.50
9570.00,1.50
9569.00,1.49
9568.00,1.49
9567.00,1.49
9566.00,1.48
9565.00,1.48
9564.00,1.48
9563.00,1.48
9562.00,1.48
9561.00,1.47
9560.00,1.47
9559.00,1.47
9558.00,1.47
9557.00,1.47
9556.00,1.47
9555.00,1.47
9554.00,1.47
9553.00,1.47
9552.00,1.47
9551.00,1.47
9550.00,1.47
9549.00,1.47
9548.00,1.47
9547.00,1.47
9546.00,1.47
9545.00,1.47
9544.00,1.48
9543.00,1.48
9542.00,1.48
9541.00,1.48
9540.00,1.48
9539.00,1.48
9538.00,1.48
9537.00,1.48
9536.00,1.49
9535.00,1.49
9534.00,1.49
9533.00,1.49
9532.00,1.49
9531.00,1.49
9530.00,1.49
9529.00,1.49
9528.00,1.49
9527.00,1.49
9526.00,1.49
9525.00,1.49
9524.00,1.49
9523.00,1.49
9522.00,1.49
9521.00,1.49
9520.00,1.49
9519.00,1.49
9518.00,1.49
9517.00,1.49
9516.00,1.49
9515.00,1.49
9514.00,1.49
9513.00,1.49
9512.00,1.49
9511.00,1.49
9510.00,1.49
9509.00,1.48
9508.00,1.48
9507.00,1.48
9506.00,1.48
9505.00,1.48
9504.00,1.48
9503.00,1.48
9502.00,1.48
9501.00,1.48
9500.00,1.48
9499.00,1.48
9498.00,1.48
9497.00,1.48
9496.00,1.48
9495.00,1.48
9494.00,1.48
9493.00,1.49
9492.00,1.49
9491.00,1.49
9490.00,1.49
9489.00,1.49
9488.00,1.49
9487.00,1.49
9486.00,1.49
9485.00,1.49
9484.00,1.49
9483.00,1.49
9482.00,1.49
9481.00,1.49
9480.00,1.49
9479.00,1.49
9478.00,1.49
9477.00,1.49
9476.00,1.49
9475.00,1.49
9474.00,1.49
9473.00,1.49
9472.00,1.49
9471.00,1.49
9470.00,1.49
9469.00,1.50
9468.00,1.50
9467.00,1.50
9466.00,1.50
9465.00,1.50
9464.00,1.50
9463.00,1.50
9462.00,1.50
9461.00,1.50
9460.00,1.50
9459.00,1.50
9458.00,1.50
9457.00,1.50
9456.00,1.50
9455.00,1.50
9454.00,1.50
9453.00,1.49
9452.00,1.49
9451.00,1.49
9450.00,1.49
9449.00,1.49
9448.00,1.49
9447.00,1.49
9446.00,1.49
9445.00,1.49
9444.00,1.49
9443.00,1.49
9442.00,1.49
9441.00,1.49
9440.00,1.49
9439.00,1.49
9438.00,1.49
9437.00,1.49
9436.00,1.49
9435.00,1.49
9434.00,1.49
9433.00,1.49
9432.00,1.49
9431.00,1.49
9430.00,1.50
9429.00,1.50
9428.00,1.50
9427.00,1.50
9426.00,1.50
9425.00,1.50
9424.00,1.50
9423.00,1.50
9422.00,1.50
9421.00,1.50
9420.00,1.50
9419.00,1.50
9418.00,1.51
9417.00,1.51
9416.00,1.51
9415.00,1.51
9414.00,1.51
9413.00,1.51
9412.00,1.51
9411.00,1.51
9410.00,1.51
9409.00,1.51
9408.00,1.51
9407.00,1.51
9406.00,1.50
9405.00,1.50
9404.00,1.50
9403.00,1.50
9402.00,1.50
9401.00,1.50
9400.00,1.50
9399.00,1.50
9398.00,1.50
9397.00,1.50
9396.00,1.49
9395.00,1.49
9394.00,1.49
9393.00,1.49
9392.00,1.49
9391.00,1.49
9390.00,1.49
9389.00,1.49
9388.00,1.49
9387.00,1.50
9386.00,1.50
9385.00,1.50
9384.00,1.50
9383.00,1.50
9382.00,1.50
9381.00,1.50
9380.00,1.50
9379.00,1.50
9378.00,1.51
9377.00,1.51
9376.00,1.51
9375.00,1.51
9374.00,1.51
9373.00,1.51
9372.00,1.51
9371.00,1.51
9370.00,1.51
9369.00,1.51
9368.00,1.51
9367.00,1.51
9366.00,1.51
9365.00,1.51
9364.00,1.51
9363.00,1.51
9362.00,1.51
9361.00,1.51
9360.00,1.51
9359.00,1.51
9358.00,1.51
9357.00,1.51
9356.00,1.51
9355.00,1.51
9354.00,1.50
9353.00,1.50
9352.00,1.50
9351.00,1.50
9350.00,1.50
9349.00,1.50
9348.00,1.50
9347.00,1.50
9346.00,1.50
9345.00,1.50
9344.00,1.50
9343.00,1.50
9342.00,1.50
9341.00,1.50
9340.00,1.50
9339.00,1.50
9338.00,1.50
9337.00,1.50
9336.00,1.50
9335.00,1.50
9334.00,1.50
9333.00,1.50
9332.00,1.50
9331.00,1.50
9330.00,1.50
9329.00,1.50
9328.00,1.50
9327.00,1.50
9326.00,1.50
9325.00,1.50
9324.00,1.51
9323.00,1.51
9322.00,1.51
9321.00,1.51
9320.00,1.51
9319.00,1.50
9318.00,1.50
9317.00,1.50
9316.00,1.50
9315.00,1.50
9314.00,1.50
9313.00,1.51
9312.00,1.51
9311.00,1.51
9310.00,1.51
9309.00,1.51
9308.00,1.51
9307.00,1.51
9306.00,1.51
9305.00,1.51
9304.00,1.51
9303.00,1.51
9302.00,1.51
9301.00,1.51
9300.00,1.51
9299.00,1.51
9298.00,1.51
9297.00,1.51
9296.00,1.51
9295.00,1.51
9294.00,1.51
9293.00,1.51
9292.00,1.51
9291.00,1.51
9290.00,1.51
9289.00,1.51
9288.00,1.51
9287.00,1.51
9286.00,1.51
9285.00,1.52
9284.00,1.52
9283.00,1.52
9282.00,1.52
9281.00,1.52
9280.00,1.52
9279.00,1.52
9278.00,1.52
9277.00,1.52
9276.00,1.52
9275.00,1.52
9274.00,1.52
9273.00,1.52
9272.00,1.51
9271.00,1.51
9270.00,1.51
9269.00,1.51
9268.00,1.51
9267.00,1.51
9266.00,1.50
9265.00,1.50
9264.00,1.50
9263.00,1.50
9262.00,1.50
9261.00,1.49
9260.00,1.49
9259.00,1.49
9258.00,1.49
9257.00,1.49
9256.00,1.49
9255.00,1.49
9254.00,1.49
9253.00,1.49
9252.00,1.49
9251.00,1.49
9250.00,1.49
9249.00,1.49
9248.00,1.49
9247.00,1.49
9246.00,1.49
9245.00,1.49
9244.00,1.49
9243.00,1.49
9242.00,1.49
9241.00,1.49
9240.00,1.49
9239.00,1.49
9238.00,1.49
9237.00,1.49
9236.00,1.49
9235.00,1.50
9234.00,1.50
9233.00,1.50
9232.00,1.50
9231.00,1.50
9230.00,1.50
9229.00,1.50
9228.00,1.50
9227.00,1.50
9226.00,1.50
9225.00,1.50
9224.00,1.50
9223.00,1.50
9222.00,1.50
9221.00,1.50
9220.00,1.50
9219.00,1.50
9218.00,1.51
9217.00,1.51
9216.00,1.51
9215.00,1.51
9214.00,1.51
9213.00,1.51
9212.00,1.51
9211.00,1.51
9210.00,1.51
9209.00,1.51
9208.00,1.51
9207.00,1.51
9206.00,1.51
9205.00,1.51
9204.00,1.51
9203.00,1.51
9202.00,1.51
9201.00,1.51
9200.00,1.51
9199.00,1.51
9198.00,1.51
9197.00,1.51
9196.00,1.50
9195.00,1.50
9194.00,1.50
9193.00,1.50
9192.00,1.50
9191.00,1.50
9190.00,1.50
9189.00,1.50
9188.00,1.50
9187.00,1.50
9186.00,1.50
9185.00,1.50
9184.00,1.50
9183.00,1.50
9182.00,1.50
9181.00,1.50
9180.00,1.50
9179.00,1.50
9178.00,1.50
9177.00,1.50
9176.00,1.50
9175.00,1.50
9174.00,1.50
9173.00,1.50
9172.00,1.50
9171.00,1.51
9170.00,1.51
9169.00,1.51
9168.00,1.51
9167.00,1.51
9166.00,1.51
9165.00,1.51
9164.00,1.51
9163.00,1.51
9162.00,1.51
9161.00,1.51
9160.00,1.51
9159.00,1.51
9158.00,1.51
9157.00,1.51
9156.00,1.51
9155.00,1.51
9154.00,1.51
9153.00,1.51
9152.00,1.51
9151.00,1.50
9150.00,1.50
9149.00,1.50
9148.00,1.50
9147.00,1.50
9146.00,1.50
9145.00,1.49
9144.00,1.49
9143.00,1.49
9142.00,1.49
9141.00,1.49
9140.00,1.49
9139.00,1.49
9138.00,1.49
9137.00,1.49
9136.00,1.49
9135.00,1.49
9134.00,1.49
9133.00,1.49
9132.00,1.49
9131.00,1.49
9130.00,1.49
9129.00,1.49
9128.00,1.49
9127.00,1.49
9126.00,1.49
9125.00,1.49
9124.00,1.49
9123.00,1.49
9122.00,1.49
9121.00,1.49
9120.00,1.49
9119.00,1.49
9118.00,1.49
9117.00,1.50
9116.00,1.50
9115.00,1.50
9114.00,1.50
9113.00,1.50
9112.00,1.50
9111.00,1.51
9110.00,1.51
9109.00,1.51
9108.00,1.51
9107.00,1.51
9106.00,1.51
9105.00,1.51
9104.00,1.51
9103.00,1.51
9102.00,1.51
9101.00,1.51
9100.00,1.51
9099.00,1.51
9098.00,1.51
9097.00,1.51
9096.00,1.51
9095.00,1.51
9094.00,1.50
9093.00,1.50
9092.00,1.50
9091.00,1.50
9090.00,1.50
9089.00,1.50
9088.00,1.50
9087.00,1.50
9086.00,1.50
9085.00,1.50
9084.00,1.50
9083.00,1.50
9082.00,1.50
9081.00,1.50
9080.00,1.50
9079.00,1.50
9078.00,1.51
9077.00,1.51
9076.00,1.51
9075.00,1.51
9074.00,1.51
9073.00,1.51
9072.00,1.51
9071.00,1.51
9070.00,1.51
9069.00,1.51
9068.00,1.51
9067.00,1.51
9066.00,1.51
9065.00,1.50
9064.00,1.50
9063.00,1.50
9062.00,1.50
9061.00,1.50
9060.00,1.50
9059.00,1.50
9058.00,1.50
9057.00,1.50
9056.00,1.50
9055.00,1.50
9054.00,1.50
9053.00,1.50
9052.00,1.50
9051.00,1.50
9050.00,1.50
9049.00,1.50
9048.00,1.50
9047.00,1.50
9046.00,1.50
9045.00,1.50
9044.00,1.50
9043.00,1.50
9042.00,1.50
9041.00,1.50
9040.00,1.50
9039.00,1.50
9038.00,1.50
9037.00,1.50
9036.00,1.50
9035.00,1.50
9034.00,1.50
9033.00,1.50
9032.00,1.50
9031.00,1.50
9030.00,1.50
9029.00,1.50
9028.00,1.50
9027.00,1.50
9026.00,1.50
9025.00,1.50
9024.00,1.50
9023.00,1.50
9022.00,1.51
9021.00,1.51
9020.00,1.51
9019.00,1.51
9018.00,1.51
9017.00,1.51
9016.00,1.51
9015.00,1.51
9014.00,1.51
9013.00,1.51
9012.00,1.50
9011.00,1.50
9010.00,1.50
9009.00,1.50
9008.00,1.50
9007.00,1.50
9006.00,1.50
9005.00,1.50
9004.00,1.50
9003.00,1.50
9002.00,1.50
9001.00,1.50
9000.00,1.50
8999.00,1.50
8998.00,1.50
8997.00,1.50
8996.00,1.50
8995.00,1.50
8994.00,1.50
8993.00,1.50
8992.00,1.50
8991.00,1.50
8990.00,1.50
8989.00,1.50
8988.00,1.50
8987.00,1.50
8986.00,1.50
8985.00,1.50
8984.00,1.50
8983.00,1.50
8982.00,1.50
8981.00,1.50
8980.00,1.50
8979.00,1.50
8978.00,1.50
8977.00,1.50
8976.00,1.51
8975.00,1.51
8974.00,1.51
8973.00,1.51
8972.00,1.51
8971.00,1.51
8970.00,1.51
8969.00,1.51
8968.00,1.52
8967.00,1.52
8966.00,1.52
8965.00,1.52
8964.00,1.52
8963.00,1.52
8962.00,1.52
8961.00,1.52
8960.00,1.52
8959.00,1.52
8958.00,1.51
8957.00,1.51
8956.00,1.51
8955.00,1.51
8954.00,1.51
8953.00,1.50
8952.00,1.50
8951.00,1.50
8950.00,1.50
8949.00,1.49
8948.00,1.49
8947.00,1.49
8946.00,1.49
8945.00,1.49
8944.00,1.49
8943.00,1.49
8942.00,1.49
8941.00,1.49
8940.00,1.49
8939.00,1.50
8938.00,1.50
8937.00,1.50
8936.00,1.50
8935.00,1.50
8934.00,1.51
8933.00,1.51
8932.00,1.51
8931.00,1.51
8930.00,1.51
8929.00,1.51
8928.00,1.51
8927.00,1.52
8926.00,1.52
8925.00,1.52
8924.00,1.52
8923.00,1.52
8922.00,1.52
8921.00,1.52
8920.00,1.51
8919.00,1.51
8918.00,1.51
8917.00,1.51
8916.00,1.51
8915.00,1.51
8914.00,1.51
8913.00,1.51
8912.00,1.50
8911.00,1.50
8910.00,1.50
8909.00,1.50
8908.00,1.50
8907.00,1.50
8906.00,1.50
8905.00,1.50
8904.00,1.50
8903.00,1.49
8902.00,1.49
8901.00,1.49
8900.00,1.49
8899.00,1.49
8898.00,1.49
8897.00,1.49
8896.00,1.49
8895.00,1.49
8894.00,1.49
8893.00,1.49
8892.00,1.49
8891.00,1.49
8890.00,1.49
8889.00,1.49
8888.00,1.49
8887.00,1.49
8886.00,1.49
8885.00,1.49
8884.00,1.49
8883.00,1.49
8882.00,1.49
8881.00,1.49
8880.00,1.49
8879.00,1.49
8878.00,1.49
8877.00,1.49
8876.00,1.49
8875.00,1.49
8874.00,1.49
8873.00,1.49
8872.00,1.49
8871.00,1.49
8870.00,1.49
8869.00,1.49
8868.00,1.49
8867.00,1.49
8866.00,1.49
8865.00,1.49
8864.00,1.49
8863.00,1.49
8862.00,1.49
8861.00,1.49
8860.00,1.49
8859.00,1.49
8858.00,1.49
8857.00,1.48
8856.00,1.48
8855.00,1.48
8854.00,1.48
8853.00,1.48
8852.00,1.48
8851.00,1.48
8850.00,1.48
8849.00,1.48
8848.00,1.48
8847.00,1.49
8846.00,1.49
8845.00,1.49
8844.00,1.49
8843.00,1.49
8842.00,1.49
8841.00,1.49
8840.00,1.49
8839.00,1.49
8838.00,1.49
8837.00,1.49
8836.00,1.49
8835.00,1.49
8834.00,1.49
8833.00,1.49
8832.00,1.49
8831.00,1.49
8830.00,1.49
8829.00,1.49
8828.00,1.49
8827.00,1.49
8826.00,1.49
8825.00,1.49
8824.00,1.49
8823.00,1.49
8822.00,1.49
8821.00,1.49
8820.00,1.49
8819.00,1.49
8818.00,1.49
8817.00,1.49
8816.00,1.49
8815.00,1.49
8814.00,1.49
8813.00,1.49
8812.00,1.49
8811.00,1.48
8810.00,1.48
8809.00,1.48
8808.00,1.48
8807.00,1.48
8806.00,1.48
8805.00,1.48
8804.00,1.48
8803.00,1.48
8802.00,1.47
8801.00,1.47
8800.00,1.47
8799.00,1.47
8798.00,1.47
8797.00,1.47
8796.00,1.47
8795.00,1.47
8794.00,1.47
8793.00,1.47
8792.00,1.47
8791.00,1.47
8790.00,1.47
8789.00,1.47
8788.00,1.47
8787.00,1.47
8786.00,1.47
8785.00,1.47
8784.00,1.47
8783.00,1.47
8782.00,1.47
8781.00,1.47
8780.00,1.47
8779.00,1.47
8778.00,1.47
8777.00,1.47
8776.00,1.47
8775.00,1.47
8774.00,1.47
8773.00,1.47
8772.00,1.47
8771.00,1.47
8770.00,1.47
8769.00,1.47
8768.00,1.47
8767.00,1.47
8766.00,1.47
8765.00,1.47
8764.00,1.47
8763.00,1.47
8762.00,1.47
8761.00,1.46
8760.00,1.46
8759.00,1.46
8758.00,1.46
8757.00,1.46
8756.00,1.46
8755.00,1.46
8754.00,1.46
8753.00,1.45
8752.00,1.45
8751.00,1.45
8750.00,1.45
8749.00,1.45
8748.00,1.45
8747.00,1.44
8746.00,1.44
8745.00,1.44
8744.00,1.44
8743.00,1.44
8742.00,1.44
8741.00,1.44
8740.00,1.44
8739.00,1.44
8738.00,1.44
8737.00,1.44
8736.00,1.44
8735.00,1.44
8734.00,1.44
8733.00,1.43
8732.00,1.43
8731.00,1.43
8730.00,1.43
8729.00,1.43
8728.00,1.43
8727.00,1.43
8726.00,1.43
8725.00,1.43
8724.00,1.43
8723.00,1.43
8722.00,1.43
8721.00,1.43
8720.00,1.44
8719.00,1.44
8718.00,1.44
8717.00,1.44
8716.00,1.44
8715.00,1.44
8714.00,1.44
8713.00,1.44
8712.00,1.44
8711.00,1.44
8710.00,1.44
8709.00,1.44
8708.00,1.44
8707.00,1.44
8706.00,1.45
8705.00,1.45
8704.00,1.45
8703.00,1.45
8702.00,1.45
8701.00,1.45
8700.00,1.45
8699.00,1.44
8698.00,1.44
8697.00,1.44
8696.00,1.44
8695.00,1.44
8694.00,1.44
8693.00,1.44
8692.00,1.44
8691.00,1.44
8690.00,1.44
8689.00,1.44
8688.00,1.44
8687.00,1.44
8686.00,1.44
8685.00,1.44
8684.00,1.44
8683.00,1.44
8682.00,1.44
8681.00,1.44
8680.00,1.44
8679.00,1.44
8678.00,1.44
8677.00,1.44
8676.00,1.44
8675.00,1.44
8674.00,1.44
8673.00,1.44
8672.00,1.44
8671.00,1.44
8670.00,1.44
8669.00,1.44
8668.00,1.44
8667.00,1.44
8666.00,1.44
8665.00,1.44
8664.00,1.44
8663.00,1.44
8662.00,1.44
8661.00,1.45
8660.00,1.45
8659.00,1.45
8658.00,1.45
8657.00,1.45
8656.00,1.44
8655.00,1.44
8654.00,1.44
8653.00,1.44
8652.00,1.44
8651.00,1.44
8650.00,1.44
8649.00,1.44
8648.00,1.44
8647.00,1.43
8646.00,1.43
8645.00,1.43
8644.00,1.43
8643.00,1.43
8642.00,1.43
8641.00,1.43
8640.00,1.43
8639.00,1.43
8638.00,1.43
8637.00,1.43
8636.00,1.43
8635.00,1.43
8634.00,1.43
8633.00,1.42
8632.00,1.42
8631.00,1.42
8630.00,1.42
8629.00,1.42
8628.00,1.42
8627.00,1.42
8626.00,1.42
8625.00,1.42
8624.00,1.42
8623.00,1.42
8622.00,1.42
8621.00,1.42
8620.00,1.42
8619.00,1.42
8618.00,1.42
8617.00,1.42
8616.00,1.42
8615.00,1.42
8614.00,1.42
8613.00,1.42
8612.00,1.42
8611.00,1.42
8610.00,1.42
8609.00,1.42
8608.00,1.42
8607.00,1.42
8606.00,1.42
8605.00,1.42
8604.00,1.42
8603.00,1.42
8602.00,1.42
8601.00,1.41
8600.00,1.41
8599.00,1.41
8598.00,1.41
8597.00,1.41
8596.00,1.41
8595.00,1.41
8594.00,1.41
8593.00,1.40
8592.00,1.40
8591.00,1.40
8590.00,1.40
8589.00,1.40
8588.00,1.40
8587.00,1.40
8586.00,1.40
8585.00,1.40
8584.00,1.40
8583.00,1.40
8582.00,1.40
8581.00,1.40
8580.00,1.40
8579.00,1.40
8578.00,1.40
8577.00,1.40
8576.00,1.40
8575.00,1.40
8574.00,1.40
8573.00,1.40
8572.00,1.40
8571.00,1.40
8570.00,1.40
8569.00,1.40
8568.00,1.40
8567.00,1.40
8566.00,1.40
8565.00,1.40
8564.00,1.40
8563.00,1.40
8562.00,1.40
8561.00,1.40
8560.00,1.40
8559.00,1.40
8558.00,1.40
8557.00,1.40
8556.00,1.40
8555.00,1.40
8554.00,1.40
8553.00,1.39
8552.00,1.39
8551.00,1.39
8550.00,1.39
8549.00,1.39
8548.00,1.39
8547.00,1.39
8546.00,1.39
8545.00,1.39
8544.00,1.39
8543.00,1.39
8542.00,1.39
8541.00,1.39
8540.00,1.38
8539.00,1.38
8538.00,1.38
8537.00,1.38
8536.00,1.38
8535.00,1.38
8534.00,1.38
8533.00,1.38
8532.00,1.38
8531.00,1.38
8530.00,1.38
8529.00,1.38
8528.00,1.38
8527.00,1.38
8526.00,1.38
8525.00,1.38
8524.00,1.38
8523.00,1.38
8522.00,1.38
8521.00,1.38
8520.00,1.38
8519.00,1.38
8518.00,1.38
8517.00,1.37
8516.00,1.37
8515.00,1.37
8514.00,1.37
8513.00,1.37
8512.00,1.37
8511.00,1.37
8510.00,1.36
8509.00,1.36
8508.00,1.36
8507.00,1.36
8506.00,1.36
8505.00,1.36
8504.00,1.36
8503.00,1.36
8502.00,1.36
8501.00,1.36
8500.00,1.36
8499.00,1.36
8498.00,1.36
8497.00,1.36
8496.00,1.36
8495.00,1.36
8494.00,1.36
8493.00,1.36
8492.00,1.36
8491.00,1.36
8490.00,1.36
8489.00,1.36
8488.00,1.36
8487.00,1.36
8486.00,1.35
8485.00,1.35
8484.00,1.35
8483.00,1.35
8482.00,1.35
8481.00,1.35
8480.00,1.35
8479.00,1.35
8478.00,1.35
8477.00,1.35
8476.00,1.35
8475.00,1.35
8474.00,1.35
8473.00,1.35
8472.00,1.35
8471.00,1.35
8470.00,1.35
8469.00,1.35
8468.00,1.35
8467.00,1.34
8466.00,1.34
8465.00,1.34
8464.00,1.34
8463.00,1.34
8462.00,1.33
8461.00,1.33
8460.00,1.33
8459.00,1.33
8458.00,1.33
8457.00,1.33
8456.00,1.33
8455.00,1.32
8454.00,1.32
8453.00,1.32
8452.00,1.32
8451.00,1.32
8450.00,1.32
8449.00,1.32
8448.00,1.32
8447.00,1.32
8446.00,1.32
8445.00,1.32
8444.00,1.32
8443.00,1.32
8442.00,1.32
8441.00,1.31
8440.00,1.31
8439.00,1.31
8438.00,1.31
8437.00,1.31
8436.00,1.31
8435.00,1.31
8434.00,1.31
8433.00,1.31
8432.00,1.31
8431.00,1.31
8430.00,1.31
8429.00,1.30
8428.00,1.30
8427.00,1.31
8426.00,1.31
8425.00,1.31
8424.00,1.31
8423.00,1.31
8422.00,1.31
8421.00,1.31
8420.00,1.31
8419.00,1.31
8418.00,1.31
8417.00,1.31
8416.00,1.31
8415.00,1.31
8414.00,1.31
8413.00,1.31
8412.00,1.32
8411.00,1.32
8410.00,1.32
8409.00,1.32
8408.00,1.32
8407.00,1.32
8406.00,1.32
8405.00,1.32
8404.00,1.33
8403.00,1.33
8402.00,1.33
8401.00,1.33
8400.00,1.33
8399.00,1.33
8398.00,1.33
8397.00,1.34
8396.00,1.34
8395.00,1.34
8394.00,1.34
8393.00,1.34
8392.00,1.34
8391.00,1.34
8390.00,1.34
8389.00,1.34
8388.00,1.34
8387.00,1.34
8386.00,1.35
8385.00,1.35
8384.00,1.35
8383.00,1.35
8382.00,1.35
8381.00,1.35
8380.00,1.35
8379.00,1.35
8378.00,1.35
8377.00,1.36
8376.00,1.36
8375.00,1.36
8374.00,1.36
8373.00,1.36
8372.00,1.36
8371.00,1.36
8370.00,1.36
8369.00,1.36
8368.00,1.36
8367.00,1.36
8366.00,1.36
8365.00,1.36
8364.00,1.36
8363.00,1.36
8362.00,1.36
8361.00,1.36
8360.00,1.36
8359.00,1.36
8358.00,1.36
8357.00,1.36
8356.00,1.36
8355.00,1.36
8354.00,1.36
8353.00,1.36
8352.00,1.36
8351.00,1.36
8350.00,1.36
8349.00,1.36
8348.00,1.36
8347.00,1.36
8346.00,1.36
8345.00,1.36
8344.00,1.36
8343.00,1.37
8342.00,1.37
8341.00,1.37
8340.00,1.37
8339.00,1.37
8338.00,1.37
8337.00,1.37
8336.00,1.37
8335.00,1.36
8334.00,1.36
8333.00,1.36
8332.00,1.36
8331.00,1.36
8330.00,1.36
8329.00,1.36
8328.00,1.36
8327.00,1.36
8326.00,1.36
8325.00,1.36
8324.00,1.36
8323.00,1.36
8322.00,1.36
8321.00,1.36
8320.00,1.36
8319.00,1.36
8318.00,1.36
8317.00,1.35
8316.00,1.35
8315.00,1.35
8314.00,1.35
8313.00,1.35
8312.00,1.35
8311.00,1.35
8310.00,1.35
8309.00,1.36
8308.00,1.36
8307.00,1.36
8306.00,1.36
8305.00,1.36
8304.00,1.36
8303.00,1.36
8302.00,1.36
8301.00,1.36
8300.00,1.36
8299.00,1.36
8298.00,1.36
8297.00,1.37
8296.00,1.37
8295.00,1.37
8294.00,1.37
8293.00,1.37
8292.00,1.37
8291.00,1.37
8290.00,1.37
8289.00,1.37
8288.00,1.38
8287.00,1.38
8286.00,1.38
8285.00,1.38
8284.00,1.38
8283.00,1.38
8282.00,1.38
8281.00,1.39
8280.00,1.39
8279.00,1.39
8278.00,1.39
8277.00,1.39
8276.00,1.39
8275.00,1.39
8274.00,1.39
8273.00,1.39
8272.00,1.39
8271.00,1.39
8270.00,1.39
8269.00,1.39
8268.00,1.38
8267.00,1.38
8266.00,1.38
8265.00,1.38
8264.00,1.38
8263.00,1.38
8262.00,1.38
8261.00,1.38
8260.00,1.38
8259.00,1.38
8258.00,1.38
8257.00,1.39
8256.00,1.39
8255.00,1.39
8254.00,1.39
8253.00,1.39
8252.00,1.39
8251.00,1.39
8250.00,1.39
8249.00,1.39
8248.00,1.39
8247.00,1.39
8246.00,1.39
8245.00,1.39
8244.00,1.39
8243.00,1.39
8242.00,1.39
8241.00,1.39
8240.00,1.39
8239.00,1.39
8238.00,1.39
8237.00,1.39
8236.00,1.39
8235.00,1.39
8234.00,1.39
8233.00,1.39
8232.00,1.39
8231.00,1.39
8230.00,1.39
8229.00,1.39
8228.00,1.39
8227.00,1.39
8226.00,1.39
8225.00,1.39
8224.00,1.39
8223.00,1.39
8222.00,1.39
8221.00,1.39
8220.00,1.39
8219.00,1.39
8218.00,1.39
8217.00,1.39
8216.00,1.39
8215.00,1.40
8214.00,1.40
8213.00,1.40
8212.00,1.40
8211.00,1.40
8210.00,1.40
8209.00,1.40
8208.00,1.40
8207.00,1.40
8206.00,1.41
8205.00,1.41
8204.00,1.41
8203.00,1.41
8202.00,1.41
8201.00,1.41
8200.00,1.41
8199.00,1.41
8198.00,1.41
8197.00,1.41
8196.00,1.41
8195.00,1.41
8194.00,1.41
8193.00,1.42
8192.00,1.42
8191.00,1.42
8190.00,1.42
8189.00,1.42
8188.00,1.42
8187.00,1.42
8186.00,1.42
8185.00,1.42
8184.00,1.42
8183.00,1.42
8182.00,1.42
8181.00,1.43
8180.00,1.43
8179.00,1.43
8178.00,1.43
8177.00,1.43
8176.00,1.43
8175.00,1.43
8174.00,1.43
8173.00,1.43
8172.00,1.43
8171.00,1.43
8170.00,1.43
8169.00,1.43
8168.00,1.43
8167.00,1.43
8166.00,1.43
8165.00,1.43
8164.00,1.43
8163.00,1.43
8162.00,1.43
8161.00,1.43
8160.00,1.43
8159.00,1.43
8158.00,1.43
8157.00,1.43
8156.00,1.43
8155.00,1.43
8154.00,1.43
8153.00,1.43
8152.00,1.43
8151.00,1.43
8150.00,1.43
8149.00,1.43
8148.00,1.43
8147.00,1.43
8146.00,1.43
8145.00,1.43
8144.00,1.43
8143.00,1.43
8142.00,1.43
8141.00,1.43
8140.00,1.43
8139.00,1.43
8138.00,1.43
8137.00,1.43
8136.00,1.43
8135.00,1.43
8134.00,1.43
8133.00,1.43
8132.00,1.43
8131.00,1.43
8130.00,1.43
8129.00,1.43
8128.00,1.43
8127.00,1.43
8126.00,1.43
8125.00,1.43
8124.00,1.44
8123.00,1.44
8122.00,1.44
8121.00,1.44
8120.00,1.44
8119.00,1.44
8118.00,1.44
8117.00,1.44
8116.00,1.44
8115.00,1.45
8114.00,1.45
8113.00,1.45
8112.00,1.45
8111.00,1.45
8110.00,1.45
8109.00,1.45
8108.00,1.45
8107.00,1.45
8106.00,1.45
8105.00,1.45
8104.00,1.45
8103.00,1.45
8102.00,1.45
8101.00,1.45
8100.00,1.45
8099.00,1.45
8098.00,1.45
8097.00,1.45
8096.00,1.45
8095.00,1.45
8094.00,1.45
8093.00,1.45
8092.00,1.45
8091.00,1.45
8090.00,1.45
8089.00,1.45
8088.00,1.45
8087.00,1.45
8086.00,1.45
8085.00,1.45
8084.00,1.45
8083.00,1.45
8082.00,1.45
8081.00,1.45
8080.00,1.46
8079.00,1.46
8078.00,1.46
8077.00,1.46
8076.00,1.46
8075.00,1.46
8074.00,1.46
8073.00,1.46
8072.00,1.46
8071.00,1.46
8070.00,1.46
8069.00,1.46
8068.00,1.46
8067.00,1.46
8066.00,1.46
8065.00,1.46
8064.00,1.46
8063.00,1.46
8062.00,1.46
8061.00,1.46
8060.00,1.46
8059.00,1.46
8058.00,1.47
8057.00,1.47
8056.00,1.47
8055.00,1.47
8054.00,1.47
8053.00,1.47
8052.00,1.47
8051.00,1.47
8050.00,1.47
8049.00,1.47
8048.00,1.46
8047.00,1.46
8046.00,1.46
8045.00,1.46
8044.00,1.46
8043.00,1.46
8042.00,1.46
8041.00,1.46
8040.00,1.46
8039.00,1.46
8038.00,1.46
8037.00,1.46
8036.00,1.46
8035.00,1.46
8034.00,1.46
8033.00,1.46
8032.00,1.46
8031.00,1.46
8030.00,1.46
8029.00,1.46
8028.00,1.46
8027.00,1.47
8026.00,1.47
8025.00,1.47
8024.00,1.47
8023.00,1.47
8022.00,1.47
8021.00,1.47
8020.00,1.47
8019.00,1.47
8018.00,1.47
8017.00,1.47
8016.00,1.47
8015.00,1.47
8014.00,1.47
8013.00,1.47
8012.00,1.47
8011.00,1.47
8010.00,1.47
8009.00,1.47
8008.00,1.47
8007.00,1.47
8006.00,1.47
8005.00,1.47
8004.00,1.47
8003.00,1.47
8002.00,1.47
8001.00,1.47
8000.00,1.47
7999.00,1.47
7998.00,1.47
7997.00,1.47
7996.00,1.47
7995.00,1.47
7994.00,1.47
7993.00,1.47
7992.00,1.48
7991.00,1.48
7990.00,1.48
7989.00,1.48
7988.00,1.48
7987.00,1.48
7986.00,1.48
7985.00,1.48
7984.00,1.48
7983.00,1.48
7982.00,1.48
7981.00,1.48
7980.00,1.47
7979.00,1.47
7978.00,1.47
7977.00,1.47
7976.00,1.47
7975.00,1.47
7974.00,1.47
7973.00,1.47
7972.00,1.47
7971.00,1.47
7970.00,1.47
7969.00,1.47
7968.00,1.47
7967.00,1.47
7966.00,1.47
7965.00,1.47
7964.00,1.47
7963.00,1.47
7962.00,1.47
7961.00,1.47
7960.00,1.47
7959.00,1.47
7958.00,1.47
7957.00,1.47
7956.00,1.47
7955.00,1.48
7954.00,1.48
7953.00,1.48
7952.00,1.48
7951.00,1.48
7950.00,1.48
7949.00,1.48
7948.00,1.48
7947.00,1.48
7946.00,1.48
7945.00,1.48
7944.00,1.48
7943.00,1.48
7942.00,1.48
7941.00,1.48
7940.00,1.48
7939.00,1.48
7938.00,1.48
7937.00,1.48
7936.00,1.48
7935.00,1.48
7934.00,1.48
7933.00,1.48
7932.00,1.48
7931.00,1.48
7930.00,1.48
7929.00,1.48
7928.00,1.48
7927.00,1.48
7926.00,1.48
7925.00,1.48
7924.00,1.48
7923.00,1.48
7922.00,1.48
7921.00,1.48
7920.00,1.48
7919.00,1.48
7918.00,1.48
7917.00,1.48
7916.00,1.48
7915.00,1.48
7914.00,1.48
7913.00,1.48
7912.00,1.48
7911.00,1.48
7910.00,1.48
7909.00,1.48
7908.00,1.48
7907.00,1.48
7906.00,1.48
7905.00,1.48
7904.00,1.48
7903.00,1.48
7902.00,1.48
7901.00,1.48
7900.00,1.48
7899.00,1.48
7898.00,1.48
7897.00,1.48
7896.00,1.48
7895.00,1.48
7894.00,1.48
7893.00,1.48
7892.00,1.48
7891.00,1.48
7890.00,1.48
7889.00,1.48
7888.00,1.48
7887.00,1.48
7886.00,1.48
7885.00,1.48
7884.00,1.49
7883.00,1.49
7882.00,1.49
7881.00,1.49
7880.00,1.49
7879.00,1.49
7878.00,1.49
7877.00,1.49
7876.00,1.49
7875.00,1.49
7874.00,1.49
7873.00,1.49
7872.00,1.49
7871.00,1.49
7870.00,1.49
7869.00,1.49
7868.00,1.49
7867.00,1.49
7866.00,1.49
7865.00,1.50
7864.00,1.50
7863.00,1.50
7862.00,1.50
7861.00,1.50
7860.00,1.50
7859.00,1.50
7858.00,1.50
7857.00,1.50
7856.00,1.50
7855.00,1.50
7854.00,1.50
7853.00,1.51
7852.00,1.51
7851.00,1.51
7850.00,1.51
7849.00,1.51
7848.00,1.51
7847.00,1.51
7846.00,1.51
7845.00,1.51
7844.00,1.50
7843.00,1.50
7842.00,1.50
7841.00,1.50
7840.00,1.50
7839.00,1.50
7838.00,1.50
7837.00,1.50
7836.00,1.50
7835.00,1.50
7834.00,1.50
7833.00,1.50
7832.00,1.50
7831.00,1.50
7830.00,1.50
7829.00,1.50
7828.00,1.50
7827.00,1.50
7826.00,1.50
7825.00,1.50
7824.00,1.50
7823.00,1.50
7822.00,1.50
7821.00,1.50
7820.00,1.50
7819.00,1.50
7818.00,1.50
7817.00,1.50
7816.00,1.51
7815.00,1.51
7814.00,1.51
7813.00,1.51
7812.00,1.51
7811.00,1.51
7810.00,1.51
7809.00,1.51
7808.00,1.51
7807.00,1.51
7806.00,1.51
7805.00,1.51
7804.00,1.51
7803.00,1.51
7802.00,1.51
7801.00,1.51
7800.00,1.51
7799.00,1.51
7798.00,1.51
7797.00,1.51
7796.00,1.51
7795.00,1.51
7794.00,1.51
7793.00,1.51
7792.00,1.51
7791.00,1.51
7790.00,1.51
7789.00,1.51
7788.00,1.51
7787.00,1.51
7786.00,1.51
7785.00,1.51
7784.00,1.51
7783.00,1.51
7782.00,1.51
7781.00,1.51
7780.00,1.51
7779.00,1.51
7778.00,1.51
7777.00,1.51
7776.00,1.51
7775.00,1.51
7774.00,1.51
7773.00,1.51
7772.00,1.51
7771.00,1.51
7770.00,1.51
7769.00,1.51
7768.00,1.51
7767.00,1.51
7766.00,1.51
7765.00,1.52
7764.00,1.52
7763.00,1.52
7762.00,1.52
7761.00,1.52
7760.00,1.52
7759.00,1.52
7758.00,1.52
7757.00,1.52
7756.00,1.52
7755.00,1.52
7754.00,1.52
7753.00,1.52
7752.00,1.52
7751.00,1.52
7750.00,1.52
7749.00,1.52
7748.00,1.52
7747.00,1.52
7746.00,1.52
7745.00,1.52
7744.00,1.52
7743.00,1.52
7742.00,1.52
7741.00,1.52
7740.00,1.52
7739.00,1.52
7738.00,1.52
7737.00,1.52
7736.00,1.52
7735.00,1.52
7734.00,1.52
7733.00,1.52
7732.00,1.52
7731.00,1.52
7730.00,1.52
7729.00,1.52
7728.00,1.52
7727.00,1.52
7726.00,1.52
7725.00,1.52
7724.00,1.52
7723.00,1.51
7722.00,1.51
7721.00,1.51
7720.00,1.51
7719.00,1.51
7718.00,1.51
7717.00,1.51
7716.00,1.51
7715.00,1.51
7714.00,1.51
7713.00,1.51
7712.00,1.51
7711.00,1.51
7710.00,1.51
7709.00,1.51
7708.00,1.51
7707.00,1.51
7706.00,1.51
7705.00,1.51
7704.00,1.51
7703.00,1.51
7702.00,1.51
7701.00,1.51
7700.00,1.51
7699.00,1.51
7698.00,1.51
7697.00,1.51
7696.00,1.51
7695.00,1.51
7694.00,1.51
7693.00,1.51
7692.00,1.51
7691.00,1.51
7690.00,1.51
7689.00,1.51
7688.00,1.51
7687.00,1.51
7686.00,1.51
7685.00,1.51
7684.00,1.51
7683.00,1.51
7682.00,1.51
7681.00,1.51
7680.00,1.51
7679.00,1.51
7678.00,1.51
7677.00,1.51
7676.00,1.51
7675.00,1.51
7674.00,1.51
7673.00,1.51
7672.00,1.51
7671.00,1.51
7670.00,1.51
7669.00,1.51
7668.00,1.51
7667.00,1.51
7666.00,1.51
7665.00,1.51
7664.00,1.51
7663.00,1.52
7662.00,1.52
7661.00,1.52
7660.00,1.52
7659.00,1.52
7658.00,1.52
7657.00,1.52
7656.00,1.52
7655.00,1.52
7654.00,1.52
7653.00,1.52
7652.00,1.52
7651.00,1.52
7650.00,1.52
7649.00,1.52
7648.00,1.52
7647.00,1.52
7646.00,1.52
7645.00,1.52
7644.00,1.52
7643.00,1.52
7642.00,1.52
7641.00,1.52
7640.00,1.52
7639.00,1.52
7638.00,1.52
7637.00,1.52
7636.00,1.52
7635.00,1.52
7634.00,1.52
7633.00,1.52
7632.00,1.52
7631.00,1.52
7630.00,1.52
7629.00,1.52
7628.00,1.52
7627.00,1.52
7626.00,1.52
7625.00,1.52
7624.00,1.52
7623.00,1.52
7622.00,1.52
7621.00,1.52
7620.00,1.52
7619.00,1.52
7618.00,1.52
7617.00,1.52
7616.00,1.51
7615.00,1.51
7614.00,1.51
7613.00,1.51
7612.00,1.51
7611.00,1.51
7610.00,1.51
7609.00,1.51
7608.00,1.51
7607.00,1.52
7606.00,1.52
7605.00,1.52
7604.00,1.52
7603.00,1.52
7602.00,1.52
7601.00,1.52
7600.00,1.52
7599.00,1.52
7598.00,1.52
7597.00,1.52
7596.00,1.52
7595.00,1.52
7594.00,1.52
7593.00,1.52
7592.00,1.52
7591.00,1.52
7590.00,1.52
7589.00,1.52
7588.00,1.52
7587.00,1.52
7586.00,1.51
7585.00,1.51
7584.00,1.51
7583.00,1.51
7582.00,1.51
7581.00,1.51
7580.00,1.51
7579.00,1.51
7578.00,1.51
7577.00,1.51
7576.00,1.51
7575.00,1.51
7574.00,1.51
7573.00,1.51
7572.00,1.51
7571.00,1.51
7570.00,1.51
7569.00,1.51
7568.00,1.51
7567.00,1.51
7566.00,1.51
7565.00,1.51
7564.00,1.51
7563.00,1.51
7562.00,1.51
7561.00,1.51
7560.00,1.51
7559.00,1.51
7558.00,1.51
7557.00,1.51
7556.00,1.51
7555.00,1.51
7554.00,1.51
7553.00,1.51
7552.00,1.51
7551.00,1.51
7550.00,1.51
7549.00,1.51
7548.00,1.51
7547.00,1.51
7546.00,1.51
7545.00,1.51
7544.00,1.51
7543.00,1.51
7542.00,1.51
7541.00,1.51
7540.00,1.51
7539.00,1.51
7538.00,1.50
7537.00,1.50
7536.00,1.50
7535.00,1.50
7534.00,1.50
7533.00,1.50
7532.00,1.50
7531.00,1.50
7530.00,1.50
7529.00,1.50
7528.00,1.50
7527.00,1.50
7526.00,1.50
7525.00,1.50
7524.00,1.50
7523.00,1.50
7522.00,1.50
7521.00,1.50
7520.00,1.50
7519.00,1.49
7518.00,1.49
7517.00,1.49
7516.00,1.49
7515.00,1.49
7514.00,1.49
7513.00,1.49
7512.00,1.49
7511.00,1.49
7510.00,1.49
7509.00,1.49
7508.00,1.49
7507.00,1.49
7506.00,1.49
7505.00,1.49
7504.00,1.49
7503.00,1.50
7502.00,1.50
7501.00,1.50
7500.00,1.50
7499.00,1.50
7498.00,1.50
7497.00,1.50
7496.00,1.50
7495.00,1.50
7494.00,1.50
7493.00,1.50
7492.00,1.50
7491.00,1.50
7490.00,1.50
7489.00,1.49
7488.00,1.49
7487.00,1.49
7486.00,1.49
7485.00,1.49
7484.00,1.49
7483.00,1.49
7482.00,1.49
7481.00,1.48
7480.00,1.48
7479.00,1.48
7478.00,1.48
7477.00,1.48
7476.00,1.48
7475.00,1.48
7474.00,1.47
7473.00,1.47
7472.00,1.47
7471.00,1.47
7470.00,1.47
7469.00,1.47
7468.00,1.47
7467.00,1.47
7466.00,1.47
7465.00,1.47
7464.00,1.47
7463.00,1.47
7462.00,1.47
7461.00,1.47
7460.00,1.47
7459.00,1.47
7458.00,1.47
7457.00,1.47
7456.00,1.47
7455.00,1.47
7454.00,1.47
7453.00,1.46
7452.00,1.46
7451.00,1.46
7450.00,1.46
7449.00,1.46
7448.00,1.46
7447.00,1.46
7446.00,1.46
7445.00,1.46
7444.00,1.46
7443.00,1.46
7442.00,1.46
7441.00,1.46
7440.00,1.46
7439.00,1.46
7438.00,1.46
7437.00,1.46
7436.00,1.46
7435.00,1.46
7434.00,1.46
7433.00,1.46
7432.00,1.45
7431.00,1.45
7430.00,1.45
7429.00,1.45
7428.00,1.45
7427.00,1.45
7426.00,1.45
7425.00,1.45
7424.00,1.45
7423.00,1.45
7422.00,1.45
7421.00,1.45
7420.00,1.45
7419.00,1.45
7418.00,1.45
7417.00,1.44
7416.00,1.44
7415.00,1.44
7414.00,1.44
7413.00,1.44
7412.00,1.44
7411.00,1.44
7410.00,1.44
7409.00,1.44
7408.00,1.44
7407.00,1.44
7406.00,1.43
7405.00,1.43
7404.00,1.43
7403.00,1.43
7402.00,1.43
7401.00,1.43
7400.00,1.43
7399.00,1.43
7398.00,1.43
7397.00,1.43
7396.00,1.42
7395.00,1.42
7394.00,1.42
7393.00,1.42
7392.00,1.42
7391.00,1.42
7390.00,1.42
7389.00,1.42
7388.00,1.41
7387.00,1.41
7386.00,1.41
7385.00,1.41
7384.00,1.41
7383.00,1.41
7382.00,1.41
7381.00,1.40
7380.00,1.40
7379.00,1.40
7378.00,1.40
7377.00,1.40
7376.00,1.40
7375.00,1.40
7374.00,1.40
7373.00,1.39
7372.00,1.39
7371.00,1.39
7370.00,1.39
7369.00,1.39
7368.00,1.39
7367.00,1.39
7366.00,1.39
7365.00,1.39
7364.00,1.39
7363.00,1.39
7362.00,1.39
7361.00,1.39
7360.00,1.39
7359.00,1.39
7358.00,1.39
7357.00,1.39
7356.00,1.39
7355.00,1.39
7354.00,1.39
7353.00,1.39
7352.00,1.39
7351.00,1.39
7350.00,1.39
7349.00,1.39
7348.00,1.39
7347.00,1.39
7346.00,1.39
7345.00,1.39
7344.00,1.39
7343.00,1.39
7342.00,1.39
7341.00,1.39
7340.00,1.39
7339.00,1.39
7338.00,1.39
7337.00,1.39
7336.00,1.39
7335.00,1.39
7334.00,1.39
7333.00,1.39
7332.00,1.39
7331.00,1.38
7330.00,1.38
7329.00,1.38
7328.00,1.38
7327.00,1.38
7326.00,1.38
7325.00,1.38
7324.00,1.38
7323.00,1.38
7322.00,1.38
7321.00,1.38
7320.00,1.38
7319.00,1.38
7318.00,1.38
7317.00,1.38
7316.00,1.37
7315.00,1.37
7314.00,1.37
7313.00,1.37
7312.00,1.37
7311.00,1.37
7310.00,1.37
7309.00,1.37
7308.00,1.37
7307.00,1.37
7306.00,1.37
7305.00,1.36
7304.00,1.36
7303.00,1.36
7302.00,1.36
7301.00,1.36
7300.00,1.36
7299.00,1.36
7298.00,1.36
7297.00,1.36
7296.00,1.36
7295.00,1.35
7294.00,1.35
7293.00,1.35
7292.00,1.35
7291.00,1.35
7290.00,1.35
7289.00,1.35
7288.00,1.34
7287.00,1.34
7286.00,1.34
7285.00,1.34
7284.00,1.34
7283.00,1.34
7282.00,1.33
7281.00,1.33
7280.00,1.33
7279.00,1.33
7278.00,1.33
7277.00,1.32
7276.00,1.32
7275.00,1.32
7274.00,1.32
7273.00,1.32
7272.00,1.32
7271.00,1.31
7270.00,1.31
7269.00,1.31
7268.00,1.31
7267.00,1.31
7266.00,1.31
7265.00,1.30
7264.00,1.30
7263.00,1.30
7262.00,1.30
7261.00,1.30
7260.00,1.30
7259.00,1.30
7258.00,1.30
7257.00,1.29
7256.00,1.29
7255.00,1.29
7254.00,1.29
7253.00,1.29
7252.00,1.29
7251.00,1.29
7250.00,1.29
7249.00,1.28
7248.00,1.28
7247.00,1.28
7246.00,1.28
7245.00,1.28
7244.00,1.28
7243.00,1.27
7242.00,1.27
7241.00,1.27
7240.00,1.27
7239.00,1.26
7238.00,1.26
7237.00,1.26
7236.00,1.26
7235.00,1.25
7234.00,1.25
7233.00,1.25
7232.00,1.25
7231.00,1.24
7230.00,1.24
7229.00,1.24
7228.00,1.24
7227.00,1.23
7226.00,1.23
7225.00,1.23
7224.00,1.22
7223.00,1.22
7222.00,1.21
7221.00,1.21
7220.00,1.21
7219.00,1.20
7218.00,1.20
7217.00,1.20
7216.00,1.19
7215.00,1.19
7214.00,1.18
7213.00,1.18
7212.00,1.18
7211.00,1.17
7210.00,1.17
7209.00,1.17
7208.00,1.16
7207.00,1.16
7206.00,1.16
7205.00,1.15
7204.00,1.15
7203.00,1.15
7202.00,1.15
7201.00,1.14
7200.00,1.14
7199.00,1.14
7198.00,1.13
7197.00,1.13
7196.00,1.13
7195.00,1.13
7194.00,1.12
7193.00,1.12
7192.00,1.12
7191.00,1.12
7190.00,1.11
7189.00,1.11
7188.00,1.11
7187.00,1.10
7186.00,1.10
7185.00,1.10
7184.00,1.09
7183.00,1.09
7182.00,1.09
7181.00,1.08
7180.00,1.08
7179.00,1.08
7178.00,1.07
7177.00,1.07
7176.00,1.06
7175.00,1.06
7174.00,1.06
7173.00,1.06
7172.00,1.05
7171.00,1.05
7170.00,1.05
7169.00,1.04
7168.00,1.04
7167.00,1.04
7166.00,1.03
7165.00,1.03
7164.00,1.03
7163.00,1.02
7162.00,1.02
7161.00,1.02
7160.00,1.01
7159.00,1.01
7158.00,1.01
7157.00,1.01
7156.00,1.00
7155.00,1.00
7154.00,1.00
7153.00,1.00
7152.00,0.99
7151.00,0.99
7150.00,0.99
7149.00,0.99
7148.00,0.98
7147.00,0.98
7146.00,0.98
7145.00,0.97
7144.00,0.97
7143.00,0.97
7142.00,0.96
7141.00,0.96
7140.00,0.96
7139.00,0.95
7138.00,0.95
7137.00,0.95
7136.00,0.94
7135.00,0.94
7134.00,0.94
7133.00,0.93
7132.00,0.93
7131.00,0.93
7130.00,0.92
7129.00,0.92
7128.00,0.92
7127.00,0.92
7126.00,0.91
7125.00,0.91
7124.00,0.91
7123.00,0.90
7122.00,0.90
7121.00,0.90
7120.00,0.90
7119.00,0.89
7118.00,0.89
7117.00,0.89
7116.00,0.89
7115.00,0.88
7114.00,0.88
7113.00,0.88
7112.00,0.87
7111.00,0.87
7110.00,0.87
7109.00,0.87
7108.00,0.86
7107.00,0.86
7106.00,0.86
7105.00,0.85
7104.00,0.85
7103.00,0.85
7102.00,0.84
7101.00,0.84
7100.00,0.84
7099.00,0.84
7098.00,0.83
7097.00,0.83
7096.00,0.83
7095.00,0.82
7094.00,0.82
7093.00,0.82
7092.00,0.82
7091.00,0.81
7090.00,0.81
7089.00,0.81
7088.00,0.81
7087.00,0.81
7086.00,0.80
7085.00,0.80
7084.00,0.80
7083.00,0.80
7082.00,0.80
7081.00,0.79
7080.00,0.79
7079.00,0.79
7078.00,0.79
7077.00,0.79
7076.00,0.78
7075.00,0.78
7074.00,0.78
7073.00,0.78
7072.00,0.78
7071.00,0.77
7070.00,0.77
7069.00,0.77
7068.00,0.77
7067.00,0.77
7066.00,0.77
7065.00,0.76
7064.00,0.76
7063.00,0.76
7062.00,0.76
7061.00,0.76
7060.00,0.76
7059.00,0.76
7058.00,0.75
7057.00,0.75
7056.00,0.75
7055.00,0.75
7054.00,0.75
7053.00,0.75
7052.00,0.75
7051.00,0.75
7050.00,0.74
7049.00,0.74
7048.00,0.74
7047.00,0.74
7046.00,0.74
7045.00,0.74
7044.00,0.73
7043.00,0.73
7042.00,0.73
7041.00,0.73
7040.00,0.73
7039.00,0.73
7038.00,0.72
7037.00,0.72
7036.00,0.72
7035.00,0.72
7034.00,0.72
7033.00,0.72
7032.00,0.72
7031.00,0.71
7030.00,0.71
7029.00,0.71
7028.00,0.71
7027.00,0.71
7026.00,0.71
7025.00,0.71
7024.00,0.71
7023.00,0.70
7022.00,0.70
7021.00,0.70
7020.00,0.70
7019.00,0.70
7018.00,0.70
7017.00,0.70
7016.00,0.70
7015.00,0.70
7014.00,0.69
7013.00,0.69
7012.00,0.69
7011.00,0.69
7010.00,0.69
7009.00,0.69
7008.00,0.69
7007.00,0.69
7006.00,0.69
7005.00,0.69
7004.00,0.69
7003.00,0.69
7002.00,0.69
7001.00,0.69
7000.00,0.69
6999.00,0.69
6998.00,0.68
6997.00,0.68
6996.00,0.68
6995.00,0.68
6994.00,0.68
6993.00,0.68
6992.00,0.68
6991.00,0.68
6990.00,0.68
6989.00,0.68
6988.00,0.68
6987.00,0.67
6986.00,0.67
6985.00,0.67
6984.00,0.67
6983.00,0.67
6982.00,0.67
6981.00,0.67
6980.00,0.67
6979.00,0.67
6978.00,0.67
6977.00,0.67
6976.00,0.67
6975.00,0.67
6974.00,0.67
6973.00,0.67
6972.00,0.66
6971.00,0.66
6970.00,0.66
6969.00,0.66
6968.00,0.66
6967.00,0.66
6966.00,0.66
6965.00,0.66
6964.00,0.66
6963.00,0.66
6962.00,0.66
6961.00,0.65
6960.00,0.65
6959.00,0.65
6958.00,0.65
6957.00,0.65
6956.00,0.65
6955.00,0.65
6954.00,0.65
6953.00,0.65
6952.00,0.65
6951.00,0.65
6950.00,0.65
6949.00,0.65
6948.00,0.65
6947.00,0.65
6946.00,0.65
6945.00,0.65
6944.00,0.65
6943.00,0.65
6942.00,0.65
6941.00,0.65
6940.00,0.64
6939.00,0.64
6938.00,0.64
6937.00,0.64
6936.00,0.64
6935.00,0.64
6934.00,0.64
6933.00,0.64
6932.00,0.64
6931.00,0.64
6930.00,0.64
6929.00,0.63
6928.00,0.63
6927.00,0.63
6926.00,0.63
6925.00,0.63
6924.00,0.63
6923.00,0.63
6922.00,0.63
6921.00,0.63
6920.00,0.63
6919.00,0.63
6918.00,0.63
6917.00,0.64
6916.00,0.64
6915.00,0.64
6914.00,0.64
6913.00,0.64
6912.00,0.64
6911.00,0.64
6910.00,0.64
6909.00,0.64
6908.00,0.63
6907.00,0.63
6906.00,0.63
6905.00,0.63
6904.00,0.63
6903.00,0.63
6902.00,0.63
6901.00,0.63
6900.00,0.63
6899.00,0.63
6898.00,0.63
6897.00,0.63
6896.00,0.63
6895.00,0.63
6894.00,0.63
6893.00,0.63
6892.00,0.63
6891.00,0.63
6890.00,0.63
6889.00,0.63
6888.00,0.63
6887.00,0.63
6886.00,0.63
6885.00,0.63
6884.00,0.63
6883.00,0.63
6882.00,0.63
6881.00,0.63
6880.00,0.63
6879.00,0.63
6878.00,0.63
6877.00,0.62
6876.00,0.62
6875.00,0.62
6874.00,0.62
6873.00,0.62
6872.00,0.62
6871.00,0.62
6870.00,0.62
6869.00,0.63
6868.00,0.63
6867.00,0.63
6866.00,0.63
6865.00,0.63
6864.00,0.63
6863.00,0.63
6862.00,0.63
6861.00,0.63
6860.00,0.63
6859.00,0.63
6858.00,0.63
6857.00,0.63
6856.00,0.63
6855.00,0.63
6854.00,0.63
6853.00,0.63
6852.00,0.63
6851.00,0.62
6850.00,0.62
6849.00,0.62
6848.00,0.62
6847.00,0.62
6846.00,0.62
6845.00,0.62
6844.00,0.62
6843.00,0.62
6842.00,0.62
6841.00,0.62
6840.00,0.62
6839.00,0.62
6838.00,0.62
6837.00,0.62
6836.00,0.62
6835.00,0.63
6834.00,0.63
6833.00,0.63
6832.00,0.63
6831.00,0.63
6830.00,0.63
6829.00,0.63
6828.00,0.63
6827.00,0.63
6826.00,0.63
6825.00,0.63
6824.00,0.63
6823.00,0.63
6822.00,0.63
6821.00,0.63
6820.00,0.64
6819.00,0.64
6818.00,0.64
6817.00,0.64
6816.00,0.64
6815.00,0.64
6814.00,0.64
6813.00,0.64
6812.00,0.64
6811.00,0.64
6810.00,0.64
6809.00,0.64
6808.00,0.64
6807.00,0.64
6806.00,0.64
6805.00,0.64
6804.00,0.64
6803.00,0.64
6802.00,0.64
6801.00,0.64
6800.00,0.64
6799.00,0.65
6798.00,0.65
6797.00,0.65
6796.00,0.65
6795.00,0.65
6794.00,0.65
6793.00,0.65
6792.00,0.65
6791.00,0.65
6790.00,0.65
6789.00,0.65
6788.00,0.65
6787.00,0.65
6786.00,0.65
6785.00,0.65
6784.00,0.65
6783.00,0.65
6782.00,0.65
6781.00,0.65
6780.00,0.65
6779.00,0.66
6778.00,0.66
6777.00,0.66
6776.00,0.66
6775.00,0.66
6774.00,0.66
6773.00,0.66
6772.00,0.66
6771.00,0.66
6770.00,0.66
6769.00,0.66
6768.00,0.66
6767.00,0.67
6766.00,0.67
6765.00,0.67
6764.00,0.67
6763.00,0.67
6762.00,0.67
6761.00,0.67
6760.00,0.67
6759.00,0.67
6758.00,0.67
6757.00,0.67
6756.00,0.67
6755.00,0.67
6754.00,0.67
6753.00,0.67
6752.00,0.67
6751.00,0.68
6750.00,0.68
6749.00,0.68
6748.00,0.68
6747.00,0.68
6746.00,0.68
6745.00,0.68
6744.00,0.68
6743.00,0.68
6742.00,0.69
6741.00,0.69
6740.00,0.69
6739.00,0.69
6738.00,0.69
6737.00,0.69
6736.00,0.69
6735.00,0.69
6734.00,0.69
6733.00,0.69
6732.00,0.69
6731.00,0.69
6730.00,0.69
6729.00,0.69
6728.00,0.69
6727.00,0.69
6726.00,0.69
6725.00,0.69
6724.00,0.70
6723.00,0.70
6722.00,0.70
6721.00,0.70
6720.00,0.70
6719.00,0.70
6718.00,0.70
6717.00,0.70
6716.00,0.70
6715.00,0.70
6714.00,0.70
6713.00,0.70
6712.00,0.70
6711.00,0.70
6710.00,0.70
6709.00,0.71
6708.00,0.71
6707.00,0.71
6706.00,0.71
6705.00,0.71
6704.00,0.71
6703.00,0.71
6702.00,0.71
6701.00,0.71
6700.00,0.71
6699.00,0.71
6698.00,0.72
6697.00,0.72
6696.00,0.72
6695.00,0.72
6694.00,0.72
6693.00,0.72
6692.00,0.72
6691.00,0.72
6690.00,0.72
6689.00,0.73
6688.00,0.73
6687.00,0.73
6686.00,0.73
6685.00,0.73
6684.00,0.73
6683.00,0.73
6682.00,0.73
6681.00,0.73
6680.00,0.74
6679.00,0.74
6678.00,0.74
6677.00,0.74
6676.00,0.74
6675.00,0.74
6674.00,0.74
6673.00,0.74
6672.00,0.74
6671.00,0.74
6670.00,0.75
6669.00,0.75
6668.00,0.75
6667.00,0.75
6666.00,0.75
6665.00,0.75
6664.00,0.75
6663.00,0.75
6662.00,0.75
6661.00,0.75
6660.00,0.76
6659.00,0.76
6658.00,0.76
6657.00,0.76
6656.00,0.76
6655.00,0.76
6654.00,0.76
6653.00,0.76
6652.00,0.76
6651.00,0.77
6650.00,0.77
6649.00,0.77
6648.00,0.77
6647.00,0.77
6646.00,0.77
6645.00,0.77
6644.00,0.77
6643.00,0.77
6642.00,0.77
6641.00,0.78
6640.00,0.78
6639.00,0.78
6638.00,0.78
6637.00,0.78
6636.00,0.78
6635.00,0.78
6634.00,0.78
6633.00,0.78
6632.00,0.78
6631.00,0.79
6630.00,0.79
6629.00,0.79
6628.00,0.79
6627.00,0.79
6626.00,0.79
6625.00,0.79
6624.00,0.79
6623.00,0.79
6622.00,0.79
6621.00,0.80
6620.00,0.80
6619.00,0.80
6618.00,0.80
6617.00,0.80
6616.00,0.80
6615.00,0.80
6614.00,0.80
6613.00,0.81
6612.00,0.81
6611.00,0.81
6610.00,0.81
6609.00,0.81
6608.00,0.81
6607.00,0.81
6606.00,0.81
6605.00,0.81
6604.00,0.81
6603.00,0.81
6602.00,0.82
6601.00,0.82
6600.00,0.82
6599.00,0.82
6598.00,0.82
6597.00,0.82
6596.00,0.82
6595.00,0.82
6594.00,0.82
6593.00,0.82
6592.00,0.82
6591.00,0.82
6590.00,0.82
6589.00,0.82
6588.00,0.83
6587.00,0.83
6586.00,0.83
6585.00,0.83
6584.00,0.83
6583.00,0.83
6582.00,0.83
6581.00,0.83
6580.00,0.84
6579.00,0.84
6578.00,0.84
6577.00,0.84
6576.00,0.84
6575.00,0.84
6574.00,0.84
6573.00,0.84
6572.00,0.85
6571.00,0.85
6570.00,0.85
6569.00,0.85
6568.00,0.85
6567.00,0.85
6566.00,0.85
6565.00,0.85
6564.00,0.85
6563.00,0.85
6562.00,0.85
6561.00,0.86
6560.00,0.86
6559.00,0.86
6558.00,0.86
6557.00,0.86
6556.00,0.86
6555.00,0.86
6554.00,0.86
6553.00,0.86
6552.00,0.86
6551.00,0.86
6550.00,0.87
6549.00,0.87
6548.00,0.87
6547.00,0.87
6546.00,0.87
6545.00,0.87
6544.00,0.87
6543.00,0.87
6542.00,0.87
6541.00,0.87
6540.00,0.87
6539.00,0.87
6538.00,0.87
6537.00,0.87
6536.00,0.88
6535.00,0.88
6534.00,0.88
6533.00,0.88
6532.00,0.88
6531.00,0.88
6530.00,0.88
6529.00,0.88
6528.00,0.88
6527.00,0.88
6526.00,0.88
6525.00,0.88
6524.00,0.88
6523.00,0.89
6522.00,0.89
6521.00,0.89
6520.00,0.89
6519.00,0.89
6518.00,0.89
6517.00,0.89
6516.00,0.89
6515.00,0.89
6514.00,0.90
6513.00,0.90
6512.00,0.90
6511.00,0.90
6510.00,0.90
6509.00,0.90
6508.00,0.90
6507.00,0.90
6506.00,0.90
6505.00,0.90
6504.00,0.90
6503.00,0.90
6502.00,0.90
6501.00,0.90
6500.00,0.90
6499.00,0.90
6498.00,0.90
6497.00,0.90
6496.00,0.90
6495.00,0.90
6494.00,0.90
6493.00,0.90
6492.00,0.90
6491.00,0.90
6490.00,0.90
6489.00,0.90
6488.00,0.91
6487.00,0.91
6486.00,0.91
6485.00,0.91
6484.00,0.91
6483.00,0.91
6482.00,0.91
6481.00,0.91
6480.00,0.91
6479.00,0.91
6478.00,0.91
6477.00,0.92
6476.00,0.92
6475.00,0.92
6474.00,0.92
6473.00,0.92
6472.00,0.92
6471.00,0.92
6470.00,0.92
6469.00,0.92
6468.00,0.92
6467.00,0.92
6466.00,0.93
6465.00,0.93
6464.00,0.93
6463.00,0.93
6462.00,0.93
6461.00,0.93
6460.00,0.93
6459.00,0.93
6458.00,0.93
6457.00,0.93
6456.00,0.93
6455.00,0.93
6454.00,0.93
6453.00,0.93
6452.00,0.93
6451.00,0.93
6450.00,0.93
6449.00,0.93
6448.00,0.93
6447.00,0.93
6446.00,0.93
6445.00,0.93
6444.00,0.93
6443.00,0.93
6442.00,0.93
6441.00,0.93
6440.00,0.93
6439.00,0.93
6438.00,0.93
6437.00,0.93
6436.00,0.93
6435.00,0.93
6434.00,0.93
6433.00,0.94
6432.00,0.94
6431.00,0.94
6430.00,0.94
6429.00,0.94
6428.00,0.94
6427.00,0.94
6426.00,0.94
6425.00,0.94
6424.00,0.94
6423.00,0.94
6422.00,0.95
6421.00,0.95
6420.00,0.95
6419.00,0.95
6418.00,0.95
6417.00,0.95
6416.00,0.95
6415.00,0.95
6414.00,0.95
6413.00,0.95
6412.00,0.95
6411.00,0.95
6410.00,0.95
6409.00,0.95
6408.00,0.95
6407.00,0.95
6406.00,0.95
6405.00,0.95
6404.00,0.95
6403.00,0.95
6402.00,0.95
6401.00,0.95
6400.00,0.95
6399.00,0.95
6398.00,0.95
6397.00,0.95
6396.00,0.96
6395.00,0.96
6394.00,0.96
6393.00,0.96
6392.00,0.96
6391.00,0.96
6390.00,0.96
6389.00,0.96
6388.00,0.96
6387.00,0.96
6386.00,0.96
6385.00,0.96
6384.00,0.96
6383.00,0.96
6382.00,0.96
6381.00,0.96
6380.00,0.96
6379.00,0.96
6378.00,0.96
6377.00,0.96
6376.00,0.96
6375.00,0.97
6374.00,0.97
6373.00,0.97
6372.00,0.97
6371.00,0.97
6370.00,0.97
6369.00,0.97
6368.00,0.97
6367.00,0.97
6366.00,0.97
6365.00,0.97
6364.00,0.97
6363.00,0.97
6362.00,0.97
6361.00,0.97
6360.00,0.98
6359.00,0.98
6358.00,0.98
6357.00,0.98
6356.00,0.98
6355.00,0.98
6354.00,0.98
6353.00,0.98
6352.00,0.98
6351.00,0.98
6350.00,0.98
6349.00,0.98
6348.00,0.98
6347.00,0.99
6346.00,0.99
6345.00,0.99
6344.00,0.99
6343.00,0.99
6342.00,0.99
6341.00,0.99
6340.00,0.99
6339.00,0.99
6338.00,0.99
6337.00,1.00
6336.00,1.00
6335.00,1.00
6334.00,1.00
6333.00,1.00
6332.00,1.00
6331.00,1.00
6330.00,1.00
6329.00,1.01
6328.00,1.01
6327.00,1.01
6326.00,1.01
6325.00,1.01
6324.00,1.01
6323.00,1.01
6322.00,1.01
6321.00,1.01
6320.00,1.01
6319.00,1.02
6318.00,1.02
6317.00,1.02
6316.00,1.02
6315.00,1.02
6314.00,1.02
6313.00,1.02
6312.00,1.02
6311.00,1.02
6310.00,1.02
6309.00,1.02
6308.00,1.02
6307.00,1.02
6306.00,1.02
6305.00,1.02
6304.00,1.03
6303.00,1.03
6302.00,1.03
6301.00,1.03
6300.00,1.03
6299.00,1.03
6298.00,1.03
6297.00,1.03
6296.00,1.03
6295.00,1.04
6294.00,1.04
6293.00,1.04
6292.00,1.04
6291.00,1.04
6290.00,1.04
6289.00,1.04
6288.00,1.05
6287.00,1.05
6286.00,1.05
6285.00,1.05
6284.00,1.05
6283.00,1.05
6282.00,1.05
6281.00,1.05
6280.00,1.05
6279.00,1.05
6278.00,1.06
6277.00,1.06
6276.00,1.06
6275.00,1.06
6274.00,1.06
6273.00,1.06
6272.00,1.06
6271.00,1.06
6270.00,1.06
6269.00,1.06
6268.00,1.07
6267.00,1.07
6266.00,1.07
6265.00,1.07
6264.00,1.07
6263.00,1.07
6262.00,1.07
6261.00,1.08
6260.00,1.08
6259.00,1.08
6258.00,1.08
6257.00,1.08
6256.00,1.08
6255.00,1.08
6254.00,1.09
6253.00,1.09
6252.00,1.09
6251.00,1.09
6250.00,1.09
6249.00,1.09
6248.00,1.10
6247.00,1.10
6246.00,1.10
6245.00,1.10
6244.00,1.10
6243.00,1.10
6242.00,1.10
6241.00,1.10
6240.00,1.11
6239.00,1.11
6238.00,1.11
6237.00,1.11
6236.00,1.11
6235.00,1.11
6234.00,1.11
6233.00,1.11
6232.00,1.12
6231.00,1.12
6230.00,1.12
6229.00,1.12
6228.00,1.12
6227.00,1.12
6226.00,1.12
6225.00,1.13
6224.00,1.13
6223.00,1.13
6222.00,1.13
6221.00,1.13
6220.00,1.13
6219.00,1.14
6218.00,1.14
6217.00,1.14
6216.00,1.14
6215.00,1.14
6214.00,1.14
6213.00,1.14
6212.00,1.14
6211.00,1.15
6210.00,1.15
6209.00,1.15
6208.00,1.15
6207.00,1.15
6206.00,1.15
6205.00,1.15
6204.00,1.15
6203.00,1.15
6202.00,1.16
6201.00,1.16
6200.00,1.16
6199.00,1.16
6198.00,1.16
6197.00,1.16
6196.00,1.17
6195.00,1.17
6194.00,1.17
6193.00,1.17
6192.00,1.17
6191.00,1.17
6190.00,1.18
6189.00,1.18
6188.00,1.18
6187.00,1.18
6186.00,1.18
6185.00,1.18
6184.00,1.18
6183.00,1.19
6182.00,1.19
6181.00,1.19
6180.00,1.19
6179.00,1.19
6178.00,1.19
6177.00,1.19
6176.00,1.19
6175.00,1.20
6174.00,1.20
6173.00,1.20
6172.00,1.20
6171.00,1.20
6170.00,1.20
6169.00,1.20
6168.00,1.21
6167.00,1.21
6166.00,1.21
6165.00,1.21
6164.00,1.21
6163.00,1.21
6162.00,1.22
6161.00,1.22
6160.00,1.22
6159.00,1.22
6158.00,1.22
6157.00,1.22
6156.00,1.23
6155.00,1.23
6154.00,1.23
6153.00,1.23
6152.00,1.23
6151.00,1.23
6150.00,1.24
6149.00,1.24
6148.00,1.24
6147.00,1.24
6146.00,1.24
6145.00,1.24
6144.00,1.25
6143.00,1.25
6142.00,1.25
6141.00,1.25
6140.00,1.25
6139.00,1.25
6138.00,1.26
6137.00,1.26
6136.00,1.26
6135.00,1.26
6134.00,1.26
6133.00,1.27
6132.00,1.27
6131.00,1.27
6130.00,1.27
6129.00,1.27
6128.00,1.27
6127.00,1.28
6126.00,1.28
6125.00,1.28
6124.00,1.28
6123.00,1.28
6122.00,1.28
6121.00,1.29
6120.00,1.29
6119.00,1.29
6118.00,1.29
6117.00,1.29
6116.00,1.29
6115.00,1.29
6114.00,1.30
6113.00,1.30
6112.00,1.30
6111.00,1.30
6110.00,1.30
6109.00,1.30
6108.00,1.30
6107.00,1.30
6106.00,1.31
6105.00,1.31
6104.00,1.31
6103.00,1.31
6102.00,1.31
6101.00,1.31
6100.00,1.31
6099.00,1.31
6098.00,1.32
6097.00,1.32
6096.00,1.32
6095.00,1.32
6094.00,1.32
6093.00,1.32
6092.00,1.33
6091.00,1.33
6090.00,1.33
6089.00,1.33
6088.00,1.33
6087.00,1.33
6086.00,1.33
6085.00,1.33
6084.00,1.34
6083.00,1.34
6082.00,1.34
6081.00,1.34
6080.00,1.34
6079.00,1.34
6078.00,1.34
6077.00,1.34
6076.00,1.34
6075.00,1.34
6074.00,1.34
6073.00,1.35
6072.00,1.35
6071.00,1.35
6070.00,1.35
6069.00,1.35
6068.00,1.35
6067.00,1.35
6066.00,1.35
6065.00,1.35
6064.00,1.35
6063.00,1.35
6062.00,1.35
6061.00,1.36
6060.00,1.36
6059.00,1.36
6058.00,1.36
6057.00,1.36
6056.00,1.36
6055.00,1.36
6054.00,1.36
6053.00,1.37
6052.00,1.37
6051.00,1.37
6050.00,1.37
6049.00,1.37
6048.00,1.37
6047.00,1.37
6046.00,1.37
6045.00,1.38
6044.00,1.38
6043.00,1.38
6042.00,1.38
6041.00,1.38
6040.00,1.38
6039.00,1.38
6038.00,1.38
6037.00,1.38
6036.00,1.38
6035.00,1.38
6034.00,1.39
6033.00,1.39
6032.00,1.39
6031.00,1.39
6030.00,1.39
6029.00,1.39
6028.00,1.39
6027.00,1.39
6026.00,1.39
6025.00,1.39
6024.00,1.39
6023.00,1.39
6022.00,1.39
6021.00,1.39
6020.00,1.39
6019.00,1.39
6018.00,1.39
6017.00,1.39
6016.00,1.39
6015.00,1.39
6014.00,1.39
6013.00,1.39
6012.00,1.39
6011.00,1.39
6010.00,1.39
6009.00,1.39
6008.00,1.39
6007.00,1.39
6006.00,1.39
6005.00,1.39
6004.00,1.39
6003.00,1.39
6002.00,1.39
6001.00,1.39
6000.00,1.39
5999.00,1.39
5998.00,1.38
5997.00,1.38
5996.00,1.38
5995.00,1.38
5994.00,1.38
5993.00,1.38
5992.00,1.38
5991.00,1.37
5990.00,1.37
5989.00,1.37
5988.00,1.37
5987.00,1.36
5986.00,1.36
5985.00,1.36
5984.00,1.35
5983.00,1.35
5982.00,1.35
5981.00,1.34
5980.00,1.34
5979.00,1.33
5978.00,1.33
5977.00,1.32
5976.00,1.32
5975.00,1.31
5974.00,1.31
5973.00,1.30
5972.00,1.29
5971.00,1.29
5970.00,1.28
5969.00,1.27
5968.00,1.27
5967.00,1.26
5966.00,1.25
5965.00,1.24
5964.00,1.23
5963.00,1.23
5962.00,1.22
5961.00,1.21
5960.00,1.20
5959.00,1.19
5958.00,1.18
5957.00,1.17
5956.00,1.16
5955.00,1.16
5954.00,1.15
5953.00,1.14
5952.00,1.13
5951.00,1.12
5950.00,1.12
5949.00,1.11
5948.00,1.10
5947.00,1.10
5946.00,1.09
5945.00,1.09
5944.00,1.08
5943.00,1.08
5942.00,1.08
5941.00,1.07
5940.00,1.07
5939.00,1.07
5938.00,1.07
5937.00,1.07
5936.00,1.07
5935.00,1.06
5934.00,1.06
5933.00,1.06
5932.00,1.06
5931.00,1.06
5930.00,1.06
5929.00,1.06
5928.00,1.06
5927.00,1.06
5926.00,1.06
5925.00,1.05
5924.00,1.05
5923.00,1.05
5922.00,1.05
5921.00,1.05
5920.00,1.04
5919.00,1.04
5918.00,1.04
5917.00,1.03
5916.00,1.03
5915.00,1.03
5914.00,1.02
5913.00,1.02
5912.00,1.02
5911.00,1.01
5910.00,1.01
5909.00,1.01
5908.00,1.00
5907.00,1.00
5906.00,1.00
5905.00,1.00
5904.00,1.00
5903.00,1.00
5902.00,1.00
5901.00,1.00
5900.00,0.99
5899.00,1.00
5898.00,1.00
5897.00,1.00
5896.00,1.00
5895.00,1.00
5894.00,1.00
5893.00,1.00
5892.00,1.00
5891.00,1.01
5890.00,1.01
5889.00,1.01
5888.00,1.02
5887.00,1.02
5886.00,1.02
5885.00,1.03
5884.00,1.03
5883.00,1.03
5882.00,1.04
5881.00,1.04
5880.00,1.04
5879.00,1.05
5878.00,1.05
5877.00,1.05
5876.00,1.06
5875.00,1.06
5874.00,1.06
5873.00,1.07
5872.00,1.07
5871.00,1.07
5870.00,1.08
5869.00,1.08
5868.00,1.08
5867.00,1.08
5866.00,1.08
5865.00,1.09
5864.00,1.09
5863.00,1.09
5862.00,1.09
5861.00,1.10
5860.00,1.10
5859.00,1.10
5858.00,1.10
5857.00,1.10
5856.00,1.10
5855.00,1.11
5854.00,1.11
5853.00,1.11
5852.00,1.11
5851.00,1.11
5850.00,1.11
5849.00,1.11
5848.00,1.11
5847.00,1.11
5846.00,1.11
5845.00,1.11
5844.00,1.11
5843.00,1.11
5842.00,1.11
5841.00,1.11
5840.00,1.11
5839.00,1.11
5838.00,1.11
5837.00,1.11
5836.00,1.11
5835.00,1.11
5834.00,1.11
5833.00,1.11
5832.00,1.11
5831.00,1.11
5830.00,1.11
5829.00,1.11
5828.00,1.11
5827.00,1.11
5826.00,1.11
5825.00,1.11
5824.00,1.11
5823.00,1.11
5822.00,1.11
5821.00,1.11
5820.00,1.11
5819.00,1.11
5818.00,1.11
5817.00,1.11
5816.00,1.11
5815.00,1.11
5814.00,1.12
5813.00,1.12
5812.00,1.12
5811.00,1.12
5810.00,1.11
5809.00,1.11
5808.00,1.11
5807.00,1.11
5806.00,1.11
5805.00,1.11
5804.00,1.11
5803.00,1.11
5802.00,1.11
5801.00,1.11
5800.00,1.10
5799.00,1.10
5798.00,1.10
5797.00,1.10
5796.00,1.10
5795.00,1.09
5794.00,1.09
5793.00,1.09
5792.00,1.09
5791.00,1.08
5790.00,1.08
5789.00,1.08
5788.00,1.08
5787.00,1.07
5786.00,1.07
5785.00,1.07
5784.00,1.07
5783.00,1.06
5782.00,1.06
5781.00,1.06
5780.00,1.06
5779.00,1.06
5778.00,1.06
5777.00,1.06
5776.00,1.05
5775.00,1.05
5774.00,1.05
5773.00,1.05
5772.00,1.05
5771.00,1.05
5770.00,1.05
5769.00,1.05
5768.00,1.05
5767.00,1.05
5766.00,1.06
5765.00,1.06
5764.00,1.06
5763.00,1.06
5762.00,1.06
5761.00,1.07
5760.00,1.07
5759.00,1.07
5758.00,1.08
5757.00,1.08
5756.00,1.08
5755.00,1.09
5754.00,1.09
5753.00,1.09
5752.00,1.10
5751.00,1.10
5750.00,1.11
5749.00,1.11
5748.00,1.12
5747.00,1.12
5746.00,1.13
5745.00,1.13
5744.00,1.13
5743.00,1.14
5742.00,1.14
5741.00,1.15
5740.00,1.15
5739.00,1.15
5738.00,1.16
5737.00,1.16
5736.00,1.16
5735.00,1.17
5734.00,1.17
5733.00,1.17
5732.00,1.18
5731.00,1.18
5730.00,1.18
5729.00,1.18
5728.00,1.18
5727.00,1.18
5726.00,1.19
5725.00,1.19
5724.00,1.19
5723.00,1.19
5722.00,1.19
5721.00,1.19
5720.00,1.19
5719.00,1.19
5718.00,1.19
5717.00,1.19
5716.00,1.19
5715.00,1.19
5714.00,1.19
5713.00,1.19
5712.00,1.19
5711.00,1.19
5710.00,1.19
5709.00,1.19
5708.00,1.19
5707.00,1.19
5706.00,1.19
5705.00,1.19
5704.00,1.19
5703.00,1.19
5702.00,1.19
5701.00,1.19
5700.00,1.19
5699.00,1.18
5698.00,1.18
5697.00,1.18
5696.00,1.18
5695.00,1.18
5694.00,1.18
5693.00,1.17
5692.00,1.17
5691.00,1.17
5690.00,1.17
5689.00,1.17
5688.00,1.16
5687.00,1.16
5686.00,1.16
5685.00,1.16
5684.00,1.16
5683.00,1.16
5682.00,1.16
5681.00,1.15
5680.00,1.15
5679.00,1.15
5678.00,1.15
5677.00,1.15
5676.00,1.15
5675.00,1.15
5674.00,1.15
5673.00,1.15
5672.00,1.15
5671.00,1.15
5670.00,1.15
5669.00,1.15
5668.00,1.15
5667.00,1.15
5666.00,1.16
5665.00,1.16
5664.00,1.16
5663.00,1.16
5662.00,1.16
5661.00,1.16
5660.00,1.17
5659.00,1.17
5658.00,1.17
5657.00,1.17
5656.00,1.18
5655.00,1.18
5654.00,1.18
5653.00,1.18
5652.00,1.19
5651.00,1.19
5650.00,1.19
5649.00,1.19
5648.00,1.19
5647.00,1.20
5646.00,1.20
5645.00,1.20
5644.00,1.20
5643.00,1.21
5642.00,1.21
5641.00,1.21
5640.00,1.21
5639.00,1.22
5638.00,1.22
5637.00,1.22
5636.00,1.22
5635.00,1.23
5634.00,1.23
5633.00,1.23
5632.00,1.23
5631.00,1.24
5630.00,1.24
5629.00,1.24
5628.00,1.24
5627.00,1.24
5626.00,1.25
5625.00,1.25
5624.00,1.25
5623.00,1.25
5622.00,1.25
5621.00,1.26
5620.00,1.26
5619.00,1.26
5618.00,1.26
5617.00,1.26
5616.00,1.27
5615.00,1.27
5614.00,1.27
5613.00,1.27
5612.00,1.27
5611.00,1.27
5610.00,1.28
5609.00,1.28
5608.00,1.28
5607.00,1.28
5606.00,1.28
5605.00,1.29
5604.00,1.29
5603.00,1.29
5602.00,1.29
5601.00,1.29
5600.00,1.30
5599.00,1.30
5598.00,1.30
5597.00,1.30
5596.00,1.30
5595.00,1.31
5594.00,1.31
5593.00,1.31
5592.00,1.31
5591.00,1.31
5590.00,1.31
5589.00,1.32
5588.00,1.32
5587.00,1.32
5586.00,1.32
5585.00,1.32
5584.00,1.33
5583.00,1.33
5582.00,1.33
5581.00,1.33
5580.00,1.33
5579.00,1.33
5578.00,1.34
5577.00,1.34
5576.00,1.34
5575.00,1.34
5574.00,1.34
5573.00,1.35
5572.00,1.35
5571.00,1.35
5570.00,1.35
5569.00,1.35
5568.00,1.35
5567.00,1.35
5566.00,1.36
5565.00,1.36
5564.00,1.36
5563.00,1.36
5562.00,1.36
5561.00,1.36
5560.00,1.36
5559.00,1.37
5558.00,1.37
5557.00,1.37
5556.00,1.37
5555.00,1.37
5554.00,1.37
5553.00,1.38
5552.00,1.38
5551.00,1.38
5550.00,1.38
5549.00,1.38
5548.00,1.38
5547.00,1.39
5546.00,1.39
5545.00,1.39
5544.00,1.39
5543.00,1.39
5542.00,1.39
5541.00,1.40
5540.00,1.40
5539.00,1.40
5538.00,1.40
5537.00,1.40
5536.00,1.40
5535.00,1.40
5534.00,1.41
5533.00,1.41
5532.00,1.41
5531.00,1.41
5530.00,1.41
5529.00,1.41
5528.00,1.41
5527.00,1.41
5526.00,1.42
5525.00,1.42
5524.00,1.42
5523.00,1.42
5522.00,1.42
5521.00,1.42
5520.00,1.42
5519.00,1.42
5518.00,1.42
5517.00,1.42
5516.00,1.42
5515.00,1.42
5514.00,1.42
5513.00,1.42
5512.00,1.43
5511.00,1.43
5510.00,1.43
5509.00,1.43
5508.00,1.43
5507.00,1.43
5506.00,1.43
5505.00,1.43
5504.00,1.43
5503.00,1.43
5502.00,1.43
5501.00,1.43
5500.00,1.43
5499.00,1.44
5498.00,1.44
5497.00,1.44
5496.00,1.44
5495.00,1.44
5494.00,1.44
5493.00,1.44
5492.00,1.44
5491.00,1.45
5490.00,1.45
5489.00,1.45
5488.00,1.45
5487.00,1.45
5486.00,1.45
5485.00,1.45
5484.00,1.45
5483.00,1.46
5482.00,1.46
5481.00,1.46
5480.00,1.46
5479.00,1.46
5478.00,1.46
5477.00,1.46
5476.00,1.47
5475.00,1.47
5474.00,1.47
5473.00,1.47
5472.00,1.47
5471.00,1.47
5470.00,1.47
5469.00,1.48
5468.00,1.48
5467.00,1.48
5466.00,1.48
5465.00,1.48
5464.00,1.48
5463.00,1.48
5462.00,1.49
5461.00,1.49
5460.00,1.49
5459.00,1.49
5458.00,1.49
5457.00,1.49
5456.00,1.49
5455.00,1.50
5454.00,1.50
5453.00,1.50
5452.00,1.50
5451.00,1.50
5450.00,1.50
5449.00,1.50
5448.00,1.50
5447.00,1.50
5446.00,1.50
5445.00,1.51
5444.00,1.51
5443.00,1.51
5442.00,1.51
5441.00,1.51
5440.00,1.51
5439.00,1.51
5438.00,1.51
5437.00,1.51
5436.00,1.51
5435.00,1.51
5434.00,1.51
5433.00,1.51
5432.00,1.51
5431.00,1.51
5430.00,1.51
5429.00,1.51
5428.00,1.51
5427.00,1.51
5426.00,1.51
5425.00,1.51
5424.00,1.51
5423.00,1.51
5422.00,1.51
5421.00,1.51
5420.00,1.51
5419.00,1.51
5418.00,1.52
5417.00,1.52
5416.00,1.52
5415.00,1.52
5414.00,1.52
5413.00,1.52
5412.00,1.52
5411.00,1.52
5410.00,1.52
5409.00,1.52
5408.00,1.52
5407.00,1.52
5406.00,1.52
5405.00,1.52
5404.00,1.52
5403.00,1.52
5402.00,1.52
5401.00,1.52
5400.00,1.52
5399.00,1.52
5398.00,1.52
5397.00,1.52
5396.00,1.52
5395.00,1.52
5394.00,1.52
5393.00,1.52
5392.00,1.51
5391.00,1.51
5390.00,1.51
5389.00,1.51
5388.00,1.51
5387.00,1.51
5386.00,1.51
5385.00,1.50
5384.00,1.50
5383.00,1.50
5382.00,1.50
5381.00,1.49
5380.00,1.49
5379.00,1.49
5378.00,1.48
5377.00,1.48
5376.00,1.48
5375.00,1.47
5374.00,1.47
5373.00,1.46
5372.00,1.46
5371.00,1.46
5370.00,1.45
5369.00,1.45
5368.00,1.44
5367.00,1.44
5366.00,1.43
5365.00,1.42
5364.00,1.42
5363.00,1.41
5362.00,1.41
5361.00,1.40
5360.00,1.39
5359.00,1.39
5358.00,1.38
5357.00,1.37
5356.00,1.37
5355.00,1.36
5354.00,1.35
5353.00,1.34
5352.00,1.34
5351.00,1.33
5350.00,1.32
5349.00,1.31
5348.00,1.30
5347.00,1.29
5346.00,1.28
5345.00,1.27
5344.00,1.26
5343.00,1.25
5342.00,1.24
5341.00,1.23
5340.00,1.22
5339.00,1.20
5338.00,1.19
5337.00,1.18
5336.00,1.17
5335.00,1.15
5334.00,1.14
5333.00,1.13
5332.00,1.11
5331.00,1.10
5330.00,1.09
5329.00,1.07
5328.00,1.06
5327.00,1.05
5326.00,1.03
5325.00,1.02
5324.00,1.01
5323.00,0.99
5322.00,0.98
5321.00,0.97
5320.00,0.96
5319.00,0.94
5318.00,0.93
5317.00,0.92
5316.00,0.90
5315.00,0.89
5314.00,0.88
5313.00,0.87
5312.00,0.86
5311.00,0.85
5310.00,0.84
5309.00,0.82
5308.00,0.81
5307.00,0.80
5306.00,0.79
5305.00,0.79
5304.00,0.78
5303.00,0.77
5302.00,0.76
5301.00,0.75
5300.00,0.75
5299.00,0.74
5298.00,0.73
5297.00,0.73
5296.00,0.72
5295.00,0.71
5294.00,0.71
5293.00,0.70
5292.00,0.70
5291.00,0.70
5290.00,0.69
5289.00,0.69
5288.00,0.68
5287.00,0.68
5286.00,0.68
5285.00,0.67
5284.00,0.67
5283.00,0.67
5282.00,0.67
5281.00,0.66
5280.00,0.66
5279.00,0.66
5278.00,0.66
5277.00,0.66
5276.00,0.66
5275.00,0.65
5274.00,0.65
5273.00,0.65
5272.00,0.65
5271.00,0.65
5270.00,0.65
5269.00,0.65
5268.00,0.64
5267.00,0.64
5266.00,0.64
5265.00,0.64
5264.00,0.64
5263.00,0.64
5262.00,0.64
5261.00,0.64
5260.00,0.64
5259.00,0.64
5258.00,0.64
5257.00,0.64
5256.00,0.64
5255.00,0.64
5254.00,0.64
5253.00,0.64
5252.00,0.64
5251.00,0.63
5250.00,0.63
5249.00,0.63
5248.00,0.63
5247.00,0.63
5246.00,0.63
5245.00,0.63
5244.00,0.63
5243.00,0.63
5242.00,0.63
5241.00,0.63
5240.00,0.63
5239.00,0.63
5238.00,0.63
5237.00,0.63
5236.00,0.63
5235.00,0.63
5234.00,0.63
5233.00,0.63
5232.00,0.63
5231.00,0.63
5230.00,0.63
5229.00,0.63
5228.00,0.63
5227.00,0.63
5226.00,0.63
5225.00,0.63
5224.00,0.63
5223.00,0.63
5222.00,0.63
5221.00,0.63
5220.00,0.63
5219.00,0.63
5218.00,0.63
5217.00,0.63
5216.00,0.63
5215.00,0.63
5214.00,0.63
5213.00,0.63
5212.00,0.63
5211.00,0.63
5210.00,0.63
5209.00,0.63
5208.00,0.63
5207.00,0.63
5206.00,0.63
5205.00,0.63
5204.00,0.64
5203.00,0.64
5202.00,0.64
5201.00,0.64
5200.00,0.64
5199.00,0.64
5198.00,0.64
5197.00,0.64
5196.00,0.64
5195.00,0.64
5194.00,0.64
5193.00,0.64
5192.00,0.64
5191.00,0.65
5190.00,0.65
5189.00,0.65
5188.00,0.65
5187.00,0.65
5186.00,0.65
5185.00,0.65
5184.00,0.65
5183.00,0.65
5182.00,0.65
5181.00,0.65
5180.00,0.65
5179.00,0.65
5178.00,0.65
5177.00,0.65
5176.00,0.65
5175.00,0.65
5174.00,0.65
5173.00,0.65
5172.00,0.65
5171.00,0.65
5170.00,0.65
5169.00,0.65
5168.00,0.66
5167.00,0.66
5166.00,0.66
5165.00,0.66
5164.00,0.66
5163.00,0.66
5162.00,0.66
5161.00,0.66
5160.00,0.66
5159.00,0.66
5158.00,0.66
5157.00,0.66
5156.00,0.66
5155.00,0.66
5154.00,0.66
5153.00,0.66
5152.00,0.66
5151.00,0.66
5150.00,0.67
5149.00,0.67
5148.00,0.67
5147.00,0.67
5146.00,0.67
5145.00,0.67
5144.00,0.67
5143.00,0.67
5142.00,0.67
5141.00,0.67
5140.00,0.67
5139.00,0.67
5138.00,0.67
5137.00,0.67
5136.00,0.67
5135.00,0.67
5134.00,0.67
5133.00,0.67
5132.00,0.67
5131.00,0.67
5130.00,0.68
5129.00,0.68
5128.00,0.68
5127.00,0.68
5126.00,0.68
5125.00,0.68
5124.00,0.68
5123.00,0.68
5122.00,0.68
5121.00,0.68
5120.00,0.68
5119.00,0.68
5118.00,0.69
5117.00,0.69
5116.00,0.69
5115.00,0.69
5114.00,0.69
5113.00,0.69
5112.00,0.69
5111.00,0.69
5110.00,0.69
5109.00,0.69
5108.00,0.69
5107.00,0.69
5106.00,0.69
5105.00,0.69
5104.00,0.70
5103.00,0.70
5102.00,0.70
5101.00,0.70
5100.00,0.70
5099.00,0.70
5098.00,0.70
5097.00,0.70
5096.00,0.70
5095.00,0.70
5094.00,0.70
5093.00,0.70
5092.00,0.70
5091.00,0.70
5090.00,0.70
5089.00,0.70
5088.00,0.70
5087.00,0.70
5086.00,0.71
5085.00,0.71
5084.00,0.71
5083.00,0.71
5082.00,0.71
5081.00,0.71
5080.00,0.71
5079.00,0.71
5078.00,0.71
5077.00,0.71
5076.00,0.71
5075.00,0.71
5074.00,0.71
5073.00,0.71
5072.00,0.71
5071.00,0.72
5070.00,0.72
5069.00,0.72
5068.00,0.72
5067.00,0.72
5066.00,0.72
5065.00,0.72
5064.00,0.72
5063.00,0.72
5062.00,0.72
5061.00,0.72
5060.00,0.72
5059.00,0.73
5058.00,0.73
5057.00,0.73
5056.00,0.73
5055.00,0.73
5054.00,0.73
5053.00,0.73
5052.00,0.73
5051.00,0.73
5050.00,0.73
5049.00,0.73
5048.00,0.73
5047.00,0.74
5046.00,0.74
5045.00,0.74
5044.00,0.74
5043.00,0.74
5042.00,0.74
5041.00,0.74
5040.00,0.74
5039.00,0.74
5038.00,0.74
5037.00,0.74
5036.00,0.74
5035.00,0.75
5034.00,0.75
5033.00,0.75
5032.00,0.75
5031.00,0.75
5030.00,0.75
5029.00,0.76
5028.00,0.76
5027.00,0.76
5026.00,0.76
5025.00,0.76
5024.00,0.76
5023.00,0.77
5022.00,0.77
5021.00,0.77
5020.00,0.77
5019.00,0.77
5018.00,0.77
5017.00,0.77
5016.00,0.77
5015.00,0.77
5014.00,0.78
5013.00,0.78
5012.00,0.78
5011.00,0.78
5010.00,0.78
5009.00,0.78
5008.00,0.78
5007.00,0.78
5006.00,0.79
5005.00,0.79
5004.00,0.79
5003.00,0.79
5002.00,0.79
5001.00,0.79
5000.00,0.80
4999.00,0.80
4998.00,0.80
4997.00,0.80
4996.00,0.80
4995.00,0.80
4994.00,0.81
4993.00,0.81
4992.00,0.81
4991.00,0.81
4990.00,0.81
4989.00,0.81
4988.00,0.82
4987.00,0.82
4986.00,0.82
4985.00,0.82
4984.00,0.82
4983.00,0.82
4982.00,0.82
4981.00,0.83
4980.00,0.83
4979.00,0.83
4978.00,0.83
4977.00,0.83
4976.00,0.83
4975.00,0.83
4974.00,0.83
4973.00,0.83
4972.00,0.83
4971.00,0.83
4970.00,0.84
4969.00,0.84
4968.00,0.84
4967.00,0.84
4966.00,0.84
4965.00,0.84
4964.00,0.84
4963.00,0.84
4962.00,0.84
4961.00,0.84
4960.00,0.85
4959.00,0.85
4958.00,0.85
4957.00,0.85
4956.00,0.85
4955.00,0.85
4954.00,0.85
4953.00,0.85
4952.00,0.86
4951.00,0.86
4950.00,0.86
4949.00,0.86
4948.00,0.86
4947.00,0.86
4946.00,0.86
4945.00,0.86
4944.00,0.86
4943.00,0.86
4942.00,0.86
4941.00,0.87
4940.00,0.87
4939.00,0.87
4938.00,0.87
4937.00,0.87
4936.00,0.87
4935.00,0.87
4934.00,0.87
4933.00,0.87
4932.00,0.87
4931.00,0.88
4930.00,0.88
4929.00,0.88
4928.00,0.88
4927.00,0.88
4926.00,0.88
4925.00,0.88
4924.00,0.88
4923.00,0.88
4922.00,0.88
4921.00,0.88
4920.00,0.89
4919.00,0.89
4918.00,0.89
4917.00,0.89
4916.00,0.89
4915.00,0.89
4914.00,0.89
4913.00,0.89
4912.00,0.89
4911.00,0.89
4910.00,0.89
4909.00,0.89
4908.00,0.89
4907.00,0.90
4906.00,0.90
4905.00,0.90
4904.00,0.90
4903.00,0.90
4902.00,0.90
4901.00,0.90
4900.00,0.90
4899.00,0.90
4898.00,0.90
4897.00,0.90
4896.00,0.90
4895.00,0.90
4894.00,0.90
4893.00,0.90
4892.00,0.90
4891.00,0.90
4890.00,0.90
4889.00,0.91
4888.00,0.91
4887.00,0.91
4886.00,0.91
4885.00,0.91
4884.00,0.91
4883.00,0.91
4882.00,0.91
4881.00,0.91
4880.00,0.91
4879.00,0.91
4878.00,0.91
4877.00,0.91
4876.00,0.91
4875.00,0.91
4874.00,0.91
4873.00,0.91
4872.00,0.91
4871.00,0.91
4870.00,0.91
4869.00,0.91
4868.00,0.91
4867.00,0.92
4866.00,0.92
4865.00,0.92
4864.00,0.92
4863.00,0.92
4862.00,0.92
4861.00,0.92
4860.00,0.92
4859.00,0.92
4858.00,0.92
4857.00,0.92
4856.00,0.92
4855.00,0.92
4854.00,0.92
4853.00,0.92
4852.00,0.93
4851.00,0.93
4850.00,0.93
4849.00,0.93
4848.00,0.93
4847.00,0.93
4846.00,0.93
4845.00,0.93
4844.00,0.93
4843.00,0.93
4842.00,0.93
4841.00,0.93
4840.00,0.93
4839.00,0.93
4838.00,0.93
4837.00,0.93
4836.00,0.94
4835.00,0.94
4834.00,0.94
4833.00,0.94
4832.00,0.94
4831.00,0.94
4830.00,0.94
4829.00,0.95
4828.00,0.95
4827.00,0.95
4826.00,0.95
4825.00,0.95
4824.00,0.95
4823.00,0.96
4822.00,0.96
4821.00,0.96
4820.00,0.96
4819.00,0.96
4818.00,0.96
4817.00,0.97
4816.00,0.97
4815.00,0.97
4814.00,0.97
4813.00,0.97
4812.00,0.97
4811.00,0.97
4810.00,0.97
4809.00,0.97
4808.00,0.97
4807.00,0.98
4806.00,0.98
4805.00,0.98
4804.00,0.98
4803.00,0.98
4802.00,0.98
4801.00,0.98
4800.00,0.98
4799.00,0.98
4798.00,0.98
4797.00,0.98
4796.00,0.99
4795.00,0.99
4794.00,0.99
4793.00,0.99
4792.00,0.99
4791.00,0.99
4790.00,0.99
4789.00,1.00
4788.00,1.00
4787.00,1.00
4786.00,1.00
4785.00,1.00
4784.00,1.00
4783.00,1.01
4782.00,1.01
4781.00,1.01
4780.00,1.01
4779.00,1.02
4778.00,1.02
4777.00,1.02
4776.00,1.02
4775.00,1.03
4774.00,1.03
4773.00,1.03
4772.00,1.03
4771.00,1.04
4770.00,1.04
4769.00,1.04
4768.00,1.04
4767.00,1.05
4766.00,1.05
4765.00,1.05
4764.00,1.05
4763.00,1.06
4762.00,1.06
4761.00,1.06
4760.00,1.06
4759.00,1.06
4758.00,1.07
4757.00,1.07
4756.00,1.07
4755.00,1.07
4754.00,1.07
4753.00,1.07
4752.00,1.08
4751.00,1.08
4750.00,1.08
4749.00,1.08
4748.00,1.08
4747.00,1.08
4746.00,1.09
4745.00,1.09
4744.00,1.09
4743.00,1.09
4742.00,1.09
4741.00,1.10
4740.00,1.10
4739.00,1.10
4738.00,1.10
4737.00,1.10
4736.00,1.11
4735.00,1.11
4734.00,1.11
4733.00,1.11
4732.00,1.12
4731.00,1.12
4730.00,1.12
4729.00,1.12
4728.00,1.13
4727.00,1.13
4726.00,1.13
4725.00,1.13
4724.00,1.13
4723.00,1.14
4722.00,1.14
4721.00,1.14
4720.00,1.14
4719.00,1.14
4718.00,1.15
4717.00,1.15
4716.00,1.15
4715.00,1.15
4714.00,1.16
4713.00,1.16
4712.00,1.16
4711.00,1.17
4710.00,1.17
4709.00,1.17
4708.00,1.17
4707.00,1.18
4706.00,1.18
4705.00,1.18
4704.00,1.18
4703.00,1.19
4702.00,1.19
4701.00,1.19
4700.00,1.19
4699.00,1.19
4698.00,1.20
4697.00,1.20
4696.00,1.20
4695.00,1.20
4694.00,1.21
4693.00,1.21
4692.00,1.21
4691.00,1.21
4690.00,1.22
4689.00,1.22
4688.00,1.22
4687.00,1.23
4686.00,1.23
4685.00,1.23
4684.00,1.24
4683.00,1.24
4682.00,1.24
4681.00,1.24
4680.00,1.25
4679.00,1.25
4678.00,1.25
4677.00,1.26
4676.00,1.26
4675.00,1.26
4674.00,1.26
4673.00,1.27
4672.00,1.27
4671.00,1.27
4670.00,1.27
4669.00,1.28
4668.00,1.28
4667.00,1.28
4666.00,1.28
4665.00,1.28
4664.00,1.29
4663.00,1.29
4662.00,1.29
4661.00,1.29
4660.00,1.29
4659.00,1.29
4658.00,1.30
4657.00,1.30
4656.00,1.30
4655.00,1.30
4654.00,1.30
4653.00,1.30
4652.00,1.30
4651.00,1.31
4650.00,1.31
4649.00,1.31
4648.00,1.31
4647.00,1.31
4646.00,1.31
4645.00,1.32
4644.00,1.32
4643.00,1.32
4642.00,1.32
4641.00,1.32
4640.00,1.33
4639.00,1.33
4638.00,1.33
4637.00,1.33
4636.00,1.33
4635.00,1.34
4634.00,1.34
4633.00,1.34
4632.00,1.34
4631.00,1.34
4630.00,1.35
4629.00,1.35
4628.00,1.35
4627.00,1.35
4626.00,1.35
4625.00,1.35
4624.00,1.36
4623.00,1.36
4622.00,1.36
4621.00,1.36
4620.00,1.36
4619.00,1.36
4618.00,1.36
4617.00,1.36
4616.00,1.37
4615.00,1.37
4614.00,1.37
4613.00,1.37
4612.00,1.37
4611.00,1.37
4610.00,1.37
4609.00,1.37
4608.00,1.38
4607.00,1.38
4606.00,1.38
4605.00,1.38
4604.00,1.38
4603.00,1.38
4602.00,1.38
4601.00,1.38
4600.00,1.39
4599.00,1.39
4598.00,1.39
4597.00,1.39
4596.00,1.39
4595.00,1.39
4594.00,1.39
4593.00,1.40
4592.00,1.40
4591.00,1.40
4590.00,1.40
4589.00,1.40
4588.00,1.40
4587.00,1.40
4586.00,1.40
4585.00,1.41
4584.00,1.41
4583.00,1.41
4582.00,1.41
4581.00,1.41
4580.00,1.41
4579.00,1.41
4578.00,1.41
4577.00,1.41
4576.00,1.42
4575.00,1.42
4574.00,1.42
4573.00,1.42
4572.00,1.42
4571.00,1.42
4570.00,1.42
4569.00,1.43
4568.00,1.43
4567.00,1.43
4566.00,1.43
4565.00,1.43
4564.00,1.43
4563.00,1.43
4562.00,1.43
4561.00,1.44
4560.00,1.44
4559.00,1.44
4558.00,1.44
4557.00,1.44
4556.00,1.44
4555.00,1.44
4554.00,1.44
4553.00,1.44
4552.00,1.44
4551.00,1.45
4550.00,1.45
4549.00,1.45
4548.00,1.45
4547.00,1.45
4546.00,1.45
4545.00,1.45
4544.00,1.46
4543.00,1.46
4542.00,1.46
4541.00,1.46
4540.00,1.46
4539.00,1.46
4538.00,1.46
4537.00,1.46
4536.00,1.47
4535.00,1.47
4534.00,1.47
4533.00,1.47
4532.00,1.47
4531.00,1.47
4530.00,1.47
4529.00,1.47
4528.00,1.47
4527.00,1.47
4526.00,1.47
4525.00,1.47
4524.00,1.47
4523.00,1.47
4522.00,1.47
4521.00,1.47
4520.00,1.47
4519.00,1.47
4518.00,1.47
4517.00,1.47
4516.00,1.47
4515.00,1.47
4514.00,1.47
4513.00,1.47
4512.00,1.47
4511.00,1.47
4510.00,1.47
4509.00,1.47
4508.00,1.47
4507.00,1.47
4506.00,1.47
4505.00,1.47
4504.00,1.47
4503.00,1.47
4502.00,1.47
4501.00,1.47
4500.00,1.46
4499.00,1.46
4498.00,1.46
4497.00,1.46
4496.00,1.46
4495.00,1.46
4494.00,1.46
4493.00,1.45
4492.00,1.45
4491.00,1.45
4490.00,1.45
4489.00,1.45
4488.00,1.44
4487.00,1.44
4486.00,1.44
4485.00,1.44
4484.00,1.43
4483.00,1.43
4482.00,1.43
4481.00,1.43
4480.00,1.42
4479.00,1.42
4478.00,1.42
4477.00,1.41
4476.00,1.41
4475.00,1.41
4474.00,1.40
4473.00,1.40
4472.00,1.40
4471.00,1.39
4470.00,1.39
4469.00,1.38
4468.00,1.38
4467.00,1.38
4466.00,1.37
4465.00,1.37
4464.00,1.36
4463.00,1.36
4462.00,1.35
4461.00,1.35
4460.00,1.34
4459.00,1.34
4458.00,1.33
4457.00,1.33
4456.00,1.32
4455.00,1.32
4454.00,1.31
4453.00,1.30
4452.00,1.30
4451.00,1.29
4450.00,1.28
4449.00,1.28
4448.00,1.27
4447.00,1.26
4446.00,1.26
4445.00,1.25
4444.00,1.24
4443.00,1.24
4442.00,1.23
4441.00,1.22
4440.00,1.22
4439.00,1.21
4438.00,1.21
4437.00,1.20
4436.00,1.19
4435.00,1.19
4434.00,1.18
4433.00,1.18
4432.00,1.17
4431.00,1.17
4430.00,1.16
4429.00,1.16
4428.00,1.16
4427.00,1.15
4426.00,1.15
4425.00,1.15
4424.00,1.14
4423.00,1.14
4422.00,1.14
4421.00,1.14
4420.00,1.14
4419.00,1.14
4418.00,1.13
4417.00,1.13
4416.00,1.13
4415.00,1.13
4414.00,1.13
4413.00,1.13
4412.00,1.13
4411.00,1.14
4410.00,1.14
4409.00,1.14
4408.00,1.14
4407.00,1.14
4406.00,1.14
4405.00,1.14
4404.00,1.15
4403.00,1.15
4402.00,1.15
4401.00,1.15
4400.00,1.15
4399.00,1.15
4398.00,1.15
4397.00,1.15
4396.00,1.16
4395.00,1.16
4394.00,1.16
4393.00,1.16
4392.00,1.16
4391.00,1.16
4390.00,1.16
4389.00,1.16
4388.00,1.16
4387.00,1.16
4386.00,1.16
4385.00,1.17
4384.00,1.17
4383.00,1.17
4382.00,1.17
4381.00,1.17
4380.00,1.18
4379.00,1.18
4378.00,1.18
4377.00,1.18
4376.00,1.18
4375.00,1.19
4374.00,1.19
4373.00,1.19
4372.00,1.19
4371.00,1.19
4370.00,1.19
4369.00,1.19
4368.00,1.19
4367.00,1.19
4366.00,1.19
4365.00,1.19
4364.00,1.19
4363.00,1.19
4362.00,1.19
4361.00,1.19
4360.00,1.19
4359.00,1.19
4358.00,1.19
4357.00,1.19
4356.00,1.19
4355.00,1.19
4354.00,1.19
4353.00,1.19
4352.00,1.19
4351.00,1.19
4350.00,1.19
4349.00,1.19
4348.00,1.19
4347.00,1.19
4346.00,1.19
4345.00,1.19
4344.00,1.19
4343.00,1.19
4342.00,1.20
4341.00,1.20
4340.00,1.20
4339.00,1.20
4338.00,1.20
4337.00,1.20
4336.00,1.20
4335.00,1.20
4334.00,1.20
4333.00,1.20
4332.00,1.20
4331.00,1.20
4330.00,1.20
4329.00,1.21
4328.00,1.21
4327.00,1.21
4326.00,1.21
4325.00,1.21
4324.00,1.21
4323.00,1.22
4322.00,1.22
4321.00,1.22
4320.00,1.22
4319.00,1.22
4318.00,1.23
4317.00,1.23
4316.00,1.23
4315.00,1.23
4314.00,1.24
4313.00,1.24
4312.00,1.24
4311.00,1.25
4310.00,1.25
4309.00,1.25
4308.00,1.26
4307.00,1.26
4306.00,1.26
4305.00,1.27
4304.00,1.27
4303.00,1.27
4302.00,1.27
4301.00,1.28
4300.00,1.28
4299.00,1.28
4298.00,1.28
4297.00,1.28
4296.00,1.29
4295.00,1.29
4294.00,1.29
4293.00,1.29
4292.00,1.29
4291.00,1.29
4290.00,1.30
4289.00,1.30
4288.00,1.30
4287.00,1.30
4286.00,1.30
4285.00,1.30
4284.00,1.30
4283.00,1.31
4282.00,1.31
4281.00,1.31
4280.00,1.31
4279.00,1.31
4278.00,1.31
4277.00,1.31
4276.00,1.31
4275.00,1.31
4274.00,1.31
4273.00,1.31
4272.00,1.31
4271.00,1.31
4270.00,1.31
4269.00,1.31
4268.00,1.31
4267.00,1.30
4266.00,1.30
4265.00,1.30
4264.00,1.30
4263.00,1.30
4262.00,1.30
4261.00,1.30
4260.00,1.30
4259.00,1.30
4258.00,1.30
4257.00,1.30
4256.00,1.30
4255.00,1.30
4254.00,1.30
4253.00,1.30
4252.00,1.30
4251.00,1.30
4250.00,1.30
4249.00,1.30
4248.00,1.31
4247.00,1.31
4246.00,1.31
4245.00,1.31
4244.00,1.31
4243.00,1.31
4242.00,1.32
4241.00,1.32
4240.00,1.32
4239.00,1.32
4238.00,1.33
4237.00,1.33
4236.00,1.33
4235.00,1.33
4234.00,1.34
4233.00,1.34
4232.00,1.34
4231.00,1.34
4230.00,1.35
4229.00,1.35
4228.00,1.35
4227.00,1.35
4226.00,1.35
4225.00,1.35
4224.00,1.36
4223.00,1.36
4222.00,1.36
4221.00,1.36
4220.00,1.36
4219.00,1.36
4218.00,1.36
4217.00,1.37
4216.00,1.37
4215.00,1.37
4214.00,1.37
4213.00,1.37
4212.00,1.37
4211.00,1.37
4210.00,1.37
4209.00,1.38
4208.00,1.38
4207.00,1.38
4206.00,1.38
4205.00,1.38
4204.00,1.38
4203.00,1.38
4202.00,1.38
4201.00,1.39
4200.00,1.39
4199.00,1.39
4198.00,1.39
4197.00,1.39
4196.00,1.39
4195.00,1.39
4194.00,1.39
4193.00,1.39
4192.00,1.39
4191.00,1.39
4190.00,1.39
4189.00,1.39
4188.00,1.39
4187.00,1.39
4186.00,1.39
4185.00,1.39
4184.00,1.39
4183.00,1.39
4182.00,1.39
4181.00,1.39
4180.00,1.39
4179.00,1.39
4178.00,1.39
4177.00,1.39
4176.00,1.40
4175.00,1.40
4174.00,1.40
4173.00,1.40
4172.00,1.40
4171.00,1.40
4170.00,1.40
4169.00,1.40
4168.00,1.41
4167.00,1.41
4166.00,1.41
4165.00,1.41
4164.00,1.41
4163.00,1.41
4162.00,1.41
4161.00,1.41
4160.00,1.41
4159.00,1.41
4158.00,1.41
4157.00,1.41
4156.00,1.41
4155.00,1.41
4154.00,1.41
4153.00,1.40
4152.00,1.40
4151.00,1.40
4150.00,1.40
4149.00,1.40
4148.00,1.40
4147.00,1.40
4146.00,1.40
4145.00,1.40
4144.00,1.40
4143.00,1.40
4142.00,1.40
4141.00,1.40
4140.00,1.40
4139.00,1.40
4138.00,1.40
4137.00,1.40
4136.00,1.40
4135.00,1.40
4134.00,1.40
4133.00,1.40
4132.00,1.40
4131.00,1.41
4130.00,1.41
4129.00,1.41
4128.00,1.41
4127.00,1.41
4126.00,1.41
4125.00,1.41
4124.00,1.41
4123.00,1.41
4122.00,1.41
4121.00,1.41
4120.00,1.41
4119.00,1.41
4118.00,1.41
4117.00,1.41
4116.00,1.41
4115.00,1.41
4114.00,1.41
4113.00,1.41
4112.00,1.41
4111.00,1.41
4110.00,1.41
4109.00,1.41
4108.00,1.41
4107.00,1.42
4106.00,1.42
4105.00,1.42
4104.00,1.42
4103.00,1.42
4102.00,1.42
4101.00,1.43
4100.00,1.43
4099.00,1.43
4098.00,1.43
4097.00,1.43
4096.00,1.43
4095.00,1.44
4094.00,1.44
4093.00,1.44
4092.00,1.44
4091.00,1.44
4090.00,1.44
4089.00,1.44
4088.00,1.44
4087.00,1.44
4086.00,1.44
4085.00,1.44
4084.00,1.44
4083.00,1.44
4082.00,1.44
4081.00,1.44
4080.00,1.44
4079.00,1.44
4078.00,1.44
4077.00,1.44
4076.00,1.44
4075.00,1.44
4074.00,1.44
4073.00,1.44
4072.00,1.45
4071.00,1.45
4070.00,1.45
4069.00,1.45
4068.00,1.45
4067.00,1.45
4066.00,1.45
4065.00,1.45
4064.00,1.46
4063.00,1.46
4062.00,1.46
4061.00,1.46
4060.00,1.46
4059.00,1.47
4058.00,1.47
4057.00,1.47
4056.00,1.47
4055.00,1.47
4054.00,1.48
4053.00,1.48
4052.00,1.48
4051.00,1.48
4050.00,1.48
4049.00,1.49
4048.00,1.49
4047.00,1.49
4046.00,1.49
4045.00,1.49
4044.00,1.49
4043.00,1.49
4042.00,1.50
4041.00,1.50
4040.00,1.50
4039.00,1.50
4038.00,1.50
4037.00,1.50
4036.00,1.50
4035.00,1.49
4034.00,1.49
4033.00,1.49
4032.00,1.49
4031.00,1.49
4030.00,1.49
4029.00,1.49
4028.00,1.49
4027.00,1.48
4026.00,1.48
4025.00,1.48
4024.00,1.48
4023.00,1.48
4022.00,1.48
4021.00,1.48
4020.00,1.48
4019.00,1.48
4018.00,1.48
4017.00,1.48
4016.00,1.49
4015.00,1.49
4014.00,1.49
4013.00,1.49
4012.00,1.50
4011.00,1.50
4010.00,1.50
4009.00,1.50
4008.00,1.51
4007.00,1.51
4006.00,1.51
4005.00,1.51
4004.00,1.51
4003.00,1.52
4002.00,1.52
4001.00,1.52
4000.00,1.52
