创建为新数据集,样品 136 用户 Administrator 日期 星期三, 十一月 08 2017
cm-1,%T
10000.00,1.72
9999.00,1.72
9998.00,1.72
9997.00,1.72
9996.00,1.72
9995.00,1.72
9994.00,1.72
9993.00,1.71
9992.00,1.71
9991.00,1.71
9990.00,1.71
9989.00,1.71
9988.00,1.71
9987.00,1.71
9986.00,1.71
9985.00,1.71
9984.00,1.72
9983.00,1.72
9982.00,1.72
9981.00,1.72
9980.00,1.72
9979.00,1.72
9978.00,1.72
9977.00,1.72
9976.00,1.72
9975.00,1.72
9974.00,1.72
9973.00,1.72
9972.00,1.72
9971.00,1.72
9970.00,1.72
9969.00,1.72
9968.00,1.72
9967.00,1.71
9966.00,1.71
9965.00,1.71
9964.00,1.71
9963.00,1.71
9962.00,1.71
9961.00,1.71
9960.00,1.71
9959.00,1.71
9958.00,1.71
9957.00,1.71
9956.00,1.72
9955.00,1.72
9954.00,1.72
9953.00,1.72
9952.00,1.72
9951.00,1.72
9950.00,1.71
9949.00,1.71
9948.00,1.71
9947.00,1.71
9946.00,1.71
9945.00,1.71
9944.00,1.71
9943.00,1.71
9942.00,1.70
9941.00,1.70
9940.00,1.70
9939.00,1.70
9938.00,1.70
9937.00,1.70
9936.00,1.70
9935.00,1.70
9934.00,1.70
9933.00,1.70
9932.00,1.70
9931.00,1.70
9930.00,1.70
9929.00,1.70
9928.00,1.70
9927.00,1.70
9926.00,1.70
9925.00,1.70
9924.00,1.70
9923.00,1.70
9922.00,1.70
9921.00,1.71
9920.00,1.71
9919.00,1.71
9918.00,1.71
9917.00,1.71
9916.00,1.71
9915.00,1.71
9914.00,1.71
9913.00,1.71
9912.00,1.71
9911.00,1.71
9910.00,1.71
9909.00,1.71
9908.00,1.71
9907.00,1.71
9906.00,1.71
9905.00,1.71
9904.00,1.71
9903.00,1.70
9902.00,1.70
9901.00,1.70
9900.00,1.70
9899.00,1.70
9898.00,1.70
9897.00,1.70
9896.00,1.70
9895.00,1.70
9894.00,1.70
9893.00,1.70
9892.00,1.70
9891.00,1.70
9890.00,1.70
9889.00,1.69
9888.00,1.69
9887.00,1.69
9886.00,1.69
9885.00,1.69
9884.00,1.69
9883.00,1.68
9882.00,1.68
9881.00,1.68
9880.00,1.68
9879.00,1.68
9878.00,1.68
9877.00,1.68
9876.00,1.68
9875.00,1.68
9874.00,1.68
9873.00,1.68
9872.00,1.68
9871.00,1.68
9870.00,1.68
9869.00,1.68
9868.00,1.68
9867.00,1.68
9866.00,1.68
9865.00,1.68
9864.00,1.68
9863.00,1.68
9862.00,1.68
9861.00,1.69
9860.00,1.69
9859.00,1.69
9858.00,1.69
9857.00,1.69
9856.00,1.69
9855.00,1.70
9854.00,1.70
9853.00,1.70
9852.00,1.70
9851.00,1.70
9850.00,1.70
9849.00,1.71
9848.00,1.71
9847.00,1.71
9846.00,1.71
9845.00,1.71
9844.00,1.71
9843.00,1.71
9842.00,1.71
9841.00,1.71
9840.00,1.71
9839.00,1.71
9838.00,1.71
9837.00,1.71
9836.00,1.71
9835.00,1.71
9834.00,1.71
9833.00,1.71
9832.00,1.71
9831.00,1.71
9830.00,1.71
9829.00,1.71
9828.00,1.71
9827.00,1.71
9826.00,1.71
9825.00,1.71
9824.00,1.71
9823.00,1.71
9822.00,1.71
9821.00,1.71
9820.00,1.71
9819.00,1.71
9818.00,1.71
9817.00,1.72
9816.00,1.72
9815.00,1.72
9814.00,1.72
9813.00,1.72
9812.00,1.71
9811.00,1.71
9810.00,1.71
9809.00,1.71
9808.00,1.71
9807.00,1.71
9806.00,1.71
9805.00,1.71
9804.00,1.71
9803.00,1.71
9802.00,1.71
9801.00,1.71
9800.00,1.71
9799.00,1.71
9798.00,1.71
9797.00,1.71
9796.00,1.71
9795.00,1.71
9794.00,1.71
9793.00,1.71
9792.00,1.70
9791.00,1.70
9790.00,1.70
9789.00,1.70
9788.00,1.70
9787.00,1.70
9786.00,1.69
9785.00,1.69
9784.00,1.69
9783.00,1.69
9782.00,1.68
9781.00,1.68
9780.00,1.68
9779.00,1.68
9778.00,1.68
9777.00,1.68
9776.00,1.67
9775.00,1.67
9774.00,1.67
9773.00,1.67
9772.00,1.67
9771.00,1.67
9770.00,1.67
9769.00,1.67
9768.00,1.67
9767.00,1.67
9766.00,1.67
9765.00,1.67
9764.00,1.67
9763.00,1.67
9762.00,1.67
9761.00,1.67
9760.00,1.67
9759.00,1.67
9758.00,1.67
9757.00,1.67
9756.00,1.67
9755.00,1.67
9754.00,1.67
9753.00,1.67
9752.00,1.68
9751.00,1.68
9750.00,1.68
9749.00,1.68
9748.00,1.68
9747.00,1.68
9746.00,1.68
9745.00,1.68
9744.00,1.68
9743.00,1.68
9742.00,1.68
9741.00,1.68
9740.00,1.68
9739.00,1.68
9738.00,1.68
9737.00,1.68
9736.00,1.68
9735.00,1.68
9734.00,1.68
9733.00,1.68
9732.00,1.68
9731.00,1.68
9730.00,1.68
9729.00,1.69
9728.00,1.69
9727.00,1.69
9726.00,1.69
9725.00,1.69
9724.00,1.69
9723.00,1.69
9722.00,1.69
9721.00,1.70
9720.00,1.70
9719.00,1.70
9718.00,1.70
9717.00,1.70
9716.00,1.70
9715.00,1.70
9714.00,1.70
9713.00,1.70
9712.00,1.70
9711.00,1.70
9710.00,1.70
9709.00,1.70
9708.00,1.70
9707.00,1.70
9706.00,1.70
9705.00,1.70
9704.00,1.70
9703.00,1.70
9702.00,1.70
9701.00,1.70
9700.00,1.70
9699.00,1.70
9698.00,1.70
9697.00,1.70
9696.00,1.70
9695.00,1.70
9694.00,1.70
9693.00,1.70
9692.00,1.70
9691.00,1.70
9690.00,1.70
9689.00,1.70
9688.00,1.70
9687.00,1.70
9686.00,1.70
9685.00,1.70
9684.00,1.70
9683.00,1.70
9682.00,1.70
9681.00,1.70
9680.00,1.70
9679.00,1.70
9678.00,1.70
9677.00,1.69
9676.00,1.69
9675.00,1.69
9674.00,1.69
9673.00,1.69
9672.00,1.69
9671.00,1.69
9670.00,1.69
9669.00,1.69
9668.00,1.69
9667.00,1.69
9666.00,1.69
9665.00,1.69
9664.00,1.69
9663.00,1.70
9662.00,1.70
9661.00,1.70
9660.00,1.70
9659.00,1.70
9658.00,1.70
9657.00,1.71
9656.00,1.71
9655.00,1.71
9654.00,1.71
9653.00,1.71
9652.00,1.71
9651.00,1.70
9650.00,1.70
9649.00,1.70
9648.00,1.70
9647.00,1.70
9646.00,1.69
9645.00,1.69
9644.00,1.69
9643.00,1.69
9642.00,1.68
9641.00,1.68
9640.00,1.68
9639.00,1.68
9638.00,1.68
9637.00,1.68
9636.00,1.68
9635.00,1.68
9634.00,1.68
9633.00,1.68
9632.00,1.68
9631.00,1.68
9630.00,1.68
9629.00,1.68
9628.00,1.68
9627.00,1.68
9626.00,1.68
9625.00,1.69
9624.00,1.69
9623.00,1.69
9622.00,1.69
9621.00,1.69
9620.00,1.69
9619.00,1.69
9618.00,1.69
9617.00,1.69
9616.00,1.70
9615.00,1.70
9614.00,1.70
9613.00,1.70
9612.00,1.70
9611.00,1.70
9610.00,1.70
9609.00,1.70
9608.00,1.70
9607.00,1.70
9606.00,1.70
9605.00,1.70
9604.00,1.70
9603.00,1.70
9602.00,1.70
9601.00,1.70
9600.00,1.70
9599.00,1.70
9598.00,1.69
9597.00,1.69
9596.00,1.69
9595.00,1.69
9594.00,1.69
9593.00,1.68
9592.00,1.68
9591.00,1.68
9590.00,1.68
9589.00,1.68
9588.00,1.68
9587.00,1.68
9586.00,1.68
9585.00,1.68
9584.00,1.68
9583.00,1.68
9582.00,1.69
9581.00,1.69
9580.00,1.69
9579.00,1.69
9578.00,1.69
9577.00,1.70
9576.00,1.70
9575.00,1.70
9574.00,1.70
9573.00,1.70
9572.00,1.70
9571.00,1.70
9570.00,1.70
9569.00,1.70
9568.00,1.70
9567.00,1.70
9566.00,1.70
9565.00,1.70
9564.00,1.70
9563.00,1.70
9562.00,1.70
9561.00,1.70
9560.00,1.69
9559.00,1.69
9558.00,1.69
9557.00,1.69
9556.00,1.69
9555.00,1.69
9554.00,1.69
9553.00,1.69
9552.00,1.68
9551.00,1.68
9550.00,1.68
9549.00,1.68
9548.00,1.68
9547.00,1.68
9546.00,1.69
9545.00,1.69
9544.00,1.69
9543.00,1.69
9542.00,1.69
9541.00,1.69
9540.00,1.69
9539.00,1.69
9538.00,1.69
9537.00,1.69
9536.00,1.69
9535.00,1.69
9534.00,1.69
9533.00,1.69
9532.00,1.70
9531.00,1.70
9530.00,1.70
9529.00,1.70
9528.00,1.70
9527.00,1.70
9526.00,1.70
9525.00,1.70
9524.00,1.70
9523.00,1.69
9522.00,1.69
9521.00,1.69
9520.00,1.69
9519.00,1.69
9518.00,1.69
9517.00,1.69
9516.00,1.69
9515.00,1.69
9514.00,1.69
9513.00,1.69
9512.00,1.69
9511.00,1.69
9510.00,1.69
9509.00,1.70
9508.00,1.70
9507.00,1.70
9506.00,1.70
9505.00,1.70
9504.00,1.70
9503.00,1.70
9502.00,1.70
9501.00,1.70
9500.00,1.70
9499.00,1.70
9498.00,1.70
9497.00,1.70
9496.00,1.70
9495.00,1.70
9494.00,1.70
9493.00,1.70
9492.00,1.70
9491.00,1.70
9490.00,1.70
9489.00,1.70
9488.00,1.70
9487.00,1.70
9486.00,1.70
9485.00,1.70
9484.00,1.70
9483.00,1.70
9482.00,1.71
9481.00,1.71
9480.00,1.71
9479.00,1.71
9478.00,1.71
9477.00,1.71
9476.00,1.72
9475.00,1.72
9474.00,1.72
9473.00,1.72
9472.00,1.72
9471.00,1.72
9470.00,1.72
9469.00,1.72
9468.00,1.72
9467.00,1.72
9466.00,1.72
9465.00,1.72
9464.00,1.72
9463.00,1.72
9462.00,1.72
9461.00,1.72
9460.00,1.72
9459.00,1.72
9458.00,1.71
9457.00,1.71
9456.00,1.71
9455.00,1.71
9454.00,1.71
9453.00,1.71
9452.00,1.71
9451.00,1.70
9450.00,1.70
9449.00,1.70
9448.00,1.70
9447.00,1.70
9446.00,1.70
9445.00,1.70
9444.00,1.70
9443.00,1.70
9442.00,1.70
9441.00,1.70
9440.00,1.70
9439.00,1.70
9438.00,1.70
9437.00,1.70
9436.00,1.70
9435.00,1.70
9434.00,1.70
9433.00,1.70
9432.00,1.70
9431.00,1.70
9430.00,1.70
9429.00,1.71
9428.00,1.71
9427.00,1.71
9426.00,1.71
9425.00,1.71
9424.00,1.71
9423.00,1.71
9422.00,1.71
9421.00,1.71
9420.00,1.71
9419.00,1.71
9418.00,1.71
9417.00,1.71
9416.00,1.71
9415.00,1.71
9414.00,1.71
9413.00,1.71
9412.00,1.71
9411.00,1.71
9410.00,1.71
9409.00,1.71
9408.00,1.70
9407.00,1.70
9406.00,1.70
9405.00,1.70
9404.00,1.70
9403.00,1.70
9402.00,1.70
9401.00,1.70
9400.00,1.70
9399.00,1.70
9398.00,1.70
9397.00,1.70
9396.00,1.70
9395.00,1.70
9394.00,1.70
9393.00,1.70
9392.00,1.70
9391.00,1.70
9390.00,1.70
9389.00,1.70
9388.00,1.70
9387.00,1.71
9386.00,1.71
9385.00,1.71
9384.00,1.71
9383.00,1.71
9382.00,1.71
9381.00,1.71
9380.00,1.71
9379.00,1.71
9378.00,1.71
9377.00,1.71
9376.00,1.71
9375.00,1.71
9374.00,1.71
9373.00,1.71
9372.00,1.71
9371.00,1.71
9370.00,1.71
9369.00,1.71
9368.00,1.71
9367.00,1.71
9366.00,1.71
9365.00,1.71
9364.00,1.71
9363.00,1.71
9362.00,1.71
9361.00,1.71
9360.00,1.71
9359.00,1.71
9358.00,1.71
9357.00,1.71
9356.00,1.71
9355.00,1.71
9354.00,1.71
9353.00,1.71
9352.00,1.71
9351.00,1.71
9350.00,1.71
9349.00,1.71
9348.00,1.71
9347.00,1.71
9346.00,1.71
9345.00,1.71
9344.00,1.71
9343.00,1.71
9342.00,1.71
9341.00,1.71
9340.00,1.71
9339.00,1.71
9338.00,1.71
9337.00,1.71
9336.00,1.71
9335.00,1.71
9334.00,1.71
9333.00,1.71
9332.00,1.71
9331.00,1.72
9330.00,1.72
9329.00,1.72
9328.00,1.72
9327.00,1.72
9326.00,1.72
9325.00,1.72
9324.00,1.72
9323.00,1.72
9322.00,1.72
9321.00,1.72
9320.00,1.72
9319.00,1.72
9318.00,1.72
9317.00,1.72
9316.00,1.72
9315.00,1.72
9314.00,1.72
9313.00,1.72
9312.00,1.72
9311.00,1.72
9310.00,1.72
9309.00,1.72
9308.00,1.72
9307.00,1.72
9306.00,1.72
9305.00,1.72
9304.00,1.72
9303.00,1.72
9302.00,1.72
9301.00,1.72
9300.00,1.72
9299.00,1.72
9298.00,1.72
9297.00,1.72
9296.00,1.71
9295.00,1.71
9294.00,1.71
9293.00,1.71
9292.00,1.71
9291.00,1.71
9290.00,1.71
9289.00,1.71
9288.00,1.71
9287.00,1.71
9286.00,1.71
9285.00,1.72
9284.00,1.72
9283.00,1.72
9282.00,1.72
9281.00,1.72
9280.00,1.72
9279.00,1.72
9278.00,1.72
9277.00,1.72
9276.00,1.72
9275.00,1.72
9274.00,1.72
9273.00,1.72
9272.00,1.72
9271.00,1.72
9270.00,1.72
9269.00,1.72
9268.00,1.71
9267.00,1.71
9266.00,1.71
9265.00,1.71
9264.00,1.71
9263.00,1.71
9262.00,1.71
9261.00,1.71
9260.00,1.71
9259.00,1.71
9258.00,1.71
9257.00,1.71
9256.00,1.71
9255.00,1.71
9254.00,1.71
9253.00,1.71
9252.00,1.72
9251.00,1.72
9250.00,1.72
9249.00,1.72
9248.00,1.72
9247.00,1.72
9246.00,1.72
9245.00,1.71
9244.00,1.71
9243.00,1.71
9242.00,1.71
9241.00,1.71
9240.00,1.71
9239.00,1.71
9238.00,1.71
9237.00,1.71
9236.00,1.70
9235.00,1.70
9234.00,1.70
9233.00,1.70
9232.00,1.70
9231.00,1.70
9230.00,1.70
9229.00,1.70
9228.00,1.70
9227.00,1.70
9226.00,1.70
9225.00,1.70
9224.00,1.70
9223.00,1.70
9222.00,1.70
9221.00,1.70
9220.00,1.70
9219.00,1.71
9218.00,1.71
9217.00,1.71
9216.00,1.71
9215.00,1.71
9214.00,1.71
9213.00,1.71
9212.00,1.71
9211.00,1.71
9210.00,1.71
9209.00,1.71
9208.00,1.71
9207.00,1.71
9206.00,1.71
9205.00,1.70
9204.00,1.70
9203.00,1.70
9202.00,1.70
9201.00,1.70
9200.00,1.70
9199.00,1.70
9198.00,1.70
9197.00,1.70
9196.00,1.70
9195.00,1.70
9194.00,1.70
9193.00,1.70
9192.00,1.70
9191.00,1.71
9190.00,1.71
9189.00,1.71
9188.00,1.71
9187.00,1.71
9186.00,1.71
9185.00,1.71
9184.00,1.71
9183.00,1.71
9182.00,1.71
9181.00,1.71
9180.00,1.71
9179.00,1.71
9178.00,1.71
9177.00,1.72
9176.00,1.72
9175.00,1.71
9174.00,1.71
9173.00,1.71
9172.00,1.71
9171.00,1.71
9170.00,1.71
9169.00,1.71
9168.00,1.71
9167.00,1.71
9166.00,1.71
9165.00,1.71
9164.00,1.71
9163.00,1.71
9162.00,1.70
9161.00,1.70
9160.00,1.70
9159.00,1.70
9158.00,1.70
9157.00,1.70
9156.00,1.70
9155.00,1.71
9154.00,1.71
9153.00,1.71
9152.00,1.71
9151.00,1.71
9150.00,1.71
9149.00,1.71
9148.00,1.71
9147.00,1.71
9146.00,1.71
9145.00,1.71
9144.00,1.71
9143.00,1.71
9142.00,1.71
9141.00,1.71
9140.00,1.71
9139.00,1.71
9138.00,1.71
9137.00,1.71
9136.00,1.71
9135.00,1.71
9134.00,1.71
9133.00,1.71
9132.00,1.71
9131.00,1.70
9130.00,1.70
9129.00,1.70
9128.00,1.70
9127.00,1.70
9126.00,1.70
9125.00,1.70
9124.00,1.70
9123.00,1.70
9122.00,1.70
9121.00,1.70
9120.00,1.70
9119.00,1.70
9118.00,1.70
9117.00,1.70
9116.00,1.70
9115.00,1.70
9114.00,1.70
9113.00,1.70
9112.00,1.70
9111.00,1.70
9110.00,1.70
9109.00,1.71
9108.00,1.71
9107.00,1.71
9106.00,1.71
9105.00,1.71
9104.00,1.71
9103.00,1.71
9102.00,1.71
9101.00,1.71
9100.00,1.71
9099.00,1.71
9098.00,1.71
9097.00,1.71
9096.00,1.71
9095.00,1.70
9094.00,1.70
9093.00,1.70
9092.00,1.70
9091.00,1.70
9090.00,1.70
9089.00,1.70
9088.00,1.70
9087.00,1.70
9086.00,1.70
9085.00,1.70
9084.00,1.70
9083.00,1.70
9082.00,1.70
9081.00,1.70
9080.00,1.70
9079.00,1.70
9078.00,1.70
9077.00,1.70
9076.00,1.70
9075.00,1.70
9074.00,1.70
9073.00,1.70
9072.00,1.70
9071.00,1.70
9070.00,1.70
9069.00,1.70
9068.00,1.70
9067.00,1.70
9066.00,1.69
9065.00,1.69
9064.00,1.70
9063.00,1.70
9062.00,1.70
9061.00,1.70
9060.00,1.70
9059.00,1.70
9058.00,1.70
9057.00,1.70
9056.00,1.70
9055.00,1.70
9054.00,1.70
9053.00,1.70
9052.00,1.70
9051.00,1.70
9050.00,1.70
9049.00,1.70
9048.00,1.70
9047.00,1.69
9046.00,1.69
9045.00,1.69
9044.00,1.69
9043.00,1.69
9042.00,1.69
9041.00,1.69
9040.00,1.69
9039.00,1.69
9038.00,1.69
9037.00,1.69
9036.00,1.69
9035.00,1.69
9034.00,1.69
9033.00,1.69
9032.00,1.69
9031.00,1.69
9030.00,1.69
9029.00,1.69
9028.00,1.69
9027.00,1.69
9026.00,1.69
9025.00,1.69
9024.00,1.69
9023.00,1.70
9022.00,1.70
9021.00,1.70
9020.00,1.70
9019.00,1.70
9018.00,1.70
9017.00,1.70
9016.00,1.70
9015.00,1.70
9014.00,1.70
9013.00,1.70
9012.00,1.70
9011.00,1.70
9010.00,1.71
9009.00,1.71
9008.00,1.71
9007.00,1.71
9006.00,1.71
9005.00,1.71
9004.00,1.71
9003.00,1.71
9002.00,1.71
9001.00,1.71
9000.00,1.71
8999.00,1.71
8998.00,1.71
8997.00,1.71
8996.00,1.71
8995.00,1.71
8994.00,1.71
8993.00,1.71
8992.00,1.71
8991.00,1.71
8990.00,1.71
8989.00,1.71
8988.00,1.71
8987.00,1.71
8986.00,1.71
8985.00,1.71
8984.00,1.71
8983.00,1.70
8982.00,1.70
8981.00,1.70
8980.00,1.70
8979.00,1.70
8978.00,1.70
8977.00,1.70
8976.00,1.69
8975.00,1.69
8974.00,1.69
8973.00,1.69
8972.00,1.69
8971.00,1.69
8970.00,1.69
8969.00,1.69
8968.00,1.69
8967.00,1.69
8966.00,1.69
8965.00,1.69
8964.00,1.69
8963.00,1.69
8962.00,1.69
8961.00,1.69
8960.00,1.68
8959.00,1.68
8958.00,1.68
8957.00,1.68
8956.00,1.68
8955.00,1.68
8954.00,1.69
8953.00,1.69
8952.00,1.69
8951.00,1.69
8950.00,1.69
8949.00,1.69
8948.00,1.69
8947.00,1.69
8946.00,1.69
8945.00,1.70
8944.00,1.70
8943.00,1.70
8942.00,1.70
8941.00,1.70
8940.00,1.70
8939.00,1.70
8938.00,1.70
8937.00,1.70
8936.00,1.70
8935.00,1.70
8934.00,1.70
8933.00,1.70
8932.00,1.70
8931.00,1.70
8930.00,1.70
8929.00,1.70
8928.00,1.70
8927.00,1.70
8926.00,1.70
8925.00,1.70
8924.00,1.70
8923.00,1.70
8922.00,1.70
8921.00,1.70
8920.00,1.71
8919.00,1.71
8918.00,1.71
8917.00,1.71
8916.00,1.71
8915.00,1.71
8914.00,1.71
8913.00,1.71
8912.00,1.71
8911.00,1.71
8910.00,1.71
8909.00,1.71
8908.00,1.71
8907.00,1.71
8906.00,1.71
8905.00,1.71
8904.00,1.71
8903.00,1.71
8902.00,1.71
8901.00,1.71
8900.00,1.71
8899.00,1.71
8898.00,1.71
8897.00,1.71
8896.00,1.71
8895.00,1.71
8894.00,1.70
8893.00,1.70
8892.00,1.70
8891.00,1.70
8890.00,1.70
8889.00,1.70
8888.00,1.70
8887.00,1.70
8886.00,1.70
8885.00,1.70
8884.00,1.70
8883.00,1.70
8882.00,1.70
8881.00,1.70
8880.00,1.70
8879.00,1.70
8878.00,1.70
8877.00,1.70
8876.00,1.69
8875.00,1.69
8874.00,1.69
8873.00,1.69
8872.00,1.69
8871.00,1.69
8870.00,1.69
8869.00,1.70
8868.00,1.70
8867.00,1.70
8866.00,1.70
8865.00,1.70
8864.00,1.70
8863.00,1.70
8862.00,1.70
8861.00,1.70
8860.00,1.70
8859.00,1.70
8858.00,1.70
8857.00,1.70
8856.00,1.71
8855.00,1.71
8854.00,1.71
8853.00,1.71
8852.00,1.71
8851.00,1.71
8850.00,1.71
8849.00,1.71
8848.00,1.71
8847.00,1.71
8846.00,1.71
8845.00,1.71
8844.00,1.71
8843.00,1.71
8842.00,1.71
8841.00,1.71
8840.00,1.71
8839.00,1.71
8838.00,1.71
8837.00,1.71
8836.00,1.71
8835.00,1.71
8834.00,1.71
8833.00,1.71
8832.00,1.71
8831.00,1.71
8830.00,1.71
8829.00,1.71
8828.00,1.71
8827.00,1.70
8826.00,1.70
8825.00,1.70
8824.00,1.70
8823.00,1.70
8822.00,1.70
8821.00,1.70
8820.00,1.70
8819.00,1.70
8818.00,1.70
8817.00,1.70
8816.00,1.70
8815.00,1.70
8814.00,1.70
8813.00,1.70
8812.00,1.70
8811.00,1.70
8810.00,1.70
8809.00,1.69
8808.00,1.69
8807.00,1.69
8806.00,1.69
8805.00,1.69
8804.00,1.69
8803.00,1.69
8802.00,1.69
8801.00,1.69
8800.00,1.69
8799.00,1.69
8798.00,1.69
8797.00,1.69
8796.00,1.69
8795.00,1.69
8794.00,1.68
8793.00,1.68
8792.00,1.68
8791.00,1.68
8790.00,1.68
8789.00,1.68
8788.00,1.68
8787.00,1.68
8786.00,1.68
8785.00,1.68
8784.00,1.68
8783.00,1.68
8782.00,1.68
8781.00,1.68
8780.00,1.68
8779.00,1.68
8778.00,1.68
8777.00,1.68
8776.00,1.68
8775.00,1.68
8774.00,1.68
8773.00,1.68
8772.00,1.68
8771.00,1.68
8770.00,1.67
8769.00,1.67
8768.00,1.67
8767.00,1.67
8766.00,1.67
8765.00,1.67
8764.00,1.67
8763.00,1.66
8762.00,1.66
8761.00,1.66
8760.00,1.66
8759.00,1.66
8758.00,1.66
8757.00,1.66
8756.00,1.65
8755.00,1.65
8754.00,1.65
8753.00,1.65
8752.00,1.65
8751.00,1.65
8750.00,1.65
8749.00,1.65
8748.00,1.65
8747.00,1.66
8746.00,1.66
8745.00,1.66
8744.00,1.66
8743.00,1.66
8742.00,1.66
8741.00,1.66
8740.00,1.66
8739.00,1.66
8738.00,1.66
8737.00,1.66
8736.00,1.65
8735.00,1.65
8734.00,1.65
8733.00,1.65
8732.00,1.65
8731.00,1.65
8730.00,1.65
8729.00,1.65
8728.00,1.65
8727.00,1.65
8726.00,1.64
8725.00,1.64
8724.00,1.64
8723.00,1.64
8722.00,1.64
8721.00,1.64
8720.00,1.64
8719.00,1.64
8718.00,1.64
8717.00,1.64
8716.00,1.64
8715.00,1.64
8714.00,1.64
8713.00,1.64
8712.00,1.64
8711.00,1.64
8710.00,1.64
8709.00,1.64
8708.00,1.65
8707.00,1.65
8706.00,1.65
8705.00,1.65
8704.00,1.65
8703.00,1.65
8702.00,1.65
8701.00,1.65
8700.00,1.65
8699.00,1.65
8698.00,1.65
8697.00,1.65
8696.00,1.65
8695.00,1.65
8694.00,1.65
8693.00,1.65
8692.00,1.65
8691.00,1.65
8690.00,1.65
8689.00,1.64
8688.00,1.64
8687.00,1.64
8686.00,1.64
8685.00,1.64
8684.00,1.64
8683.00,1.64
8682.00,1.64
8681.00,1.64
8680.00,1.64
8679.00,1.64
8678.00,1.64
8677.00,1.64
8676.00,1.64
8675.00,1.64
8674.00,1.64
8673.00,1.64
8672.00,1.64
8671.00,1.64
8670.00,1.64
8669.00,1.64
8668.00,1.64
8667.00,1.64
8666.00,1.64
8665.00,1.64
8664.00,1.64
8663.00,1.64
8662.00,1.64
8661.00,1.64
8660.00,1.64
8659.00,1.64
8658.00,1.64
8657.00,1.64
8656.00,1.64
8655.00,1.64
8654.00,1.64
8653.00,1.64
8652.00,1.64
8651.00,1.64
8650.00,1.64
8649.00,1.64
8648.00,1.64
8647.00,1.64
8646.00,1.64
8645.00,1.64
8644.00,1.64
8643.00,1.64
8642.00,1.64
8641.00,1.64
8640.00,1.64
8639.00,1.64
8638.00,1.63
8637.00,1.63
8636.00,1.63
8635.00,1.63
8634.00,1.63
8633.00,1.62
8632.00,1.62
8631.00,1.62
8630.00,1.62
8629.00,1.62
8628.00,1.62
8627.00,1.62
8626.00,1.62
8625.00,1.62
8624.00,1.62
8623.00,1.62
8622.00,1.62
8621.00,1.62
8620.00,1.62
8619.00,1.62
8618.00,1.62
8617.00,1.62
8616.00,1.62
8615.00,1.62
8614.00,1.62
8613.00,1.62
8612.00,1.62
8611.00,1.62
8610.00,1.62
8609.00,1.62
8608.00,1.62
8607.00,1.62
8606.00,1.62
8605.00,1.62
8604.00,1.62
8603.00,1.62
8602.00,1.62
8601.00,1.62
8600.00,1.62
8599.00,1.62
8598.00,1.62
8597.00,1.62
8596.00,1.62
8595.00,1.62
8594.00,1.62
8593.00,1.61
8592.00,1.61
8591.00,1.61
8590.00,1.61
8589.00,1.61
8588.00,1.61
8587.00,1.61
8586.00,1.61
8585.00,1.61
8584.00,1.61
8583.00,1.61
8582.00,1.61
8581.00,1.61
8580.00,1.61
8579.00,1.61
8578.00,1.61
8577.00,1.60
8576.00,1.60
8575.00,1.60
8574.00,1.60
8573.00,1.60
8572.00,1.60
8571.00,1.60
8570.00,1.60
8569.00,1.60
8568.00,1.60
8567.00,1.60
8566.00,1.60
8565.00,1.60
8564.00,1.59
8563.00,1.59
8562.00,1.59
8561.00,1.59
8560.00,1.59
8559.00,1.59
8558.00,1.59
8557.00,1.59
8556.00,1.59
8555.00,1.59
8554.00,1.58
8553.00,1.58
8552.00,1.58
8551.00,1.58
8550.00,1.58
8549.00,1.58
8548.00,1.58
8547.00,1.57
8546.00,1.57
8545.00,1.57
8544.00,1.57
8543.00,1.57
8542.00,1.57
8541.00,1.57
8540.00,1.57
8539.00,1.56
8538.00,1.56
8537.00,1.56
8536.00,1.56
8535.00,1.56
8534.00,1.56
8533.00,1.56
8532.00,1.56
8531.00,1.56
8530.00,1.56
8529.00,1.56
8528.00,1.56
8527.00,1.55
8526.00,1.55
8525.00,1.55
8524.00,1.55
8523.00,1.55
8522.00,1.55
8521.00,1.55
8520.00,1.55
8519.00,1.54
8518.00,1.54
8517.00,1.54
8516.00,1.54
8515.00,1.54
8514.00,1.54
8513.00,1.54
8512.00,1.54
8511.00,1.54
8510.00,1.54
8509.00,1.54
8508.00,1.54
8507.00,1.54
8506.00,1.54
8505.00,1.54
8504.00,1.54
8503.00,1.54
8502.00,1.54
8501.00,1.54
8500.00,1.54
8499.00,1.54
8498.00,1.54
8497.00,1.54
8496.00,1.54
8495.00,1.53
8494.00,1.53
8493.00,1.53
8492.00,1.53
8491.00,1.53
8490.00,1.52
8489.00,1.52
8488.00,1.52
8487.00,1.52
8486.00,1.51
8485.00,1.51
8484.00,1.51
8483.00,1.51
8482.00,1.51
8481.00,1.51
8480.00,1.51
8479.00,1.51
8478.00,1.50
8477.00,1.50
8476.00,1.50
8475.00,1.50
8474.00,1.50
8473.00,1.50
8472.00,1.50
8471.00,1.50
8470.00,1.50
8469.00,1.50
8468.00,1.50
8467.00,1.49
8466.00,1.49
8465.00,1.49
8464.00,1.49
8463.00,1.49
8462.00,1.49
8461.00,1.49
8460.00,1.48
8459.00,1.48
8458.00,1.48
8457.00,1.48
8456.00,1.48
8455.00,1.48
8454.00,1.48
8453.00,1.48
8452.00,1.48
8451.00,1.48
8450.00,1.48
8449.00,1.48
8448.00,1.48
8447.00,1.48
8446.00,1.48
8445.00,1.48
8444.00,1.48
8443.00,1.48
8442.00,1.48
8441.00,1.48
8440.00,1.48
8439.00,1.48
8438.00,1.48
8437.00,1.48
8436.00,1.48
8435.00,1.48
8434.00,1.48
8433.00,1.48
8432.00,1.47
8431.00,1.47
8430.00,1.47
8429.00,1.47
8428.00,1.47
8427.00,1.47
8426.00,1.47
8425.00,1.47
8424.00,1.47
8423.00,1.47
8422.00,1.47
8421.00,1.48
8420.00,1.48
8419.00,1.48
8418.00,1.48
8417.00,1.48
8416.00,1.48
8415.00,1.48
8414.00,1.48
8413.00,1.48
8412.00,1.48
8411.00,1.48
8410.00,1.48
8409.00,1.49
8408.00,1.49
8407.00,1.49
8406.00,1.49
8405.00,1.49
8404.00,1.49
8403.00,1.49
8402.00,1.49
8401.00,1.50
8400.00,1.50
8399.00,1.50
8398.00,1.50
8397.00,1.50
8396.00,1.51
8395.00,1.51
8394.00,1.51
8393.00,1.51
8392.00,1.52
8391.00,1.52
8390.00,1.52
8389.00,1.52
8388.00,1.53
8387.00,1.53
8386.00,1.53
8385.00,1.53
8384.00,1.53
8383.00,1.53
8382.00,1.53
8381.00,1.54
8380.00,1.54
8379.00,1.54
8378.00,1.54
8377.00,1.54
8376.00,1.54
8375.00,1.54
8374.00,1.54
8373.00,1.54
8372.00,1.54
8371.00,1.54
8370.00,1.54
8369.00,1.54
8368.00,1.54
8367.00,1.54
8366.00,1.54
8365.00,1.54
8364.00,1.54
8363.00,1.54
8362.00,1.54
8361.00,1.54
8360.00,1.54
8359.00,1.53
8358.00,1.53
8357.00,1.53
8356.00,1.53
8355.00,1.53
8354.00,1.53
8353.00,1.53
8352.00,1.53
8351.00,1.53
8350.00,1.53
8349.00,1.53
8348.00,1.54
8347.00,1.54
8346.00,1.54
8345.00,1.54
8344.00,1.54
8343.00,1.54
8342.00,1.54
8341.00,1.54
8340.00,1.54
8339.00,1.54
8338.00,1.54
8337.00,1.54
8336.00,1.54
8335.00,1.54
8334.00,1.54
8333.00,1.54
8332.00,1.54
8331.00,1.54
8330.00,1.54
8329.00,1.54
8328.00,1.54
8327.00,1.54
8326.00,1.54
8325.00,1.54
8324.00,1.54
8323.00,1.54
8322.00,1.54
8321.00,1.54
8320.00,1.54
8319.00,1.54
8318.00,1.54
8317.00,1.54
8316.00,1.54
8315.00,1.54
8314.00,1.54
8313.00,1.54
8312.00,1.54
8311.00,1.54
8310.00,1.54
8309.00,1.54
8308.00,1.54
8307.00,1.54
8306.00,1.54
8305.00,1.54
8304.00,1.54
8303.00,1.54
8302.00,1.54
8301.00,1.54
8300.00,1.54
8299.00,1.54
8298.00,1.54
8297.00,1.54
8296.00,1.55
8295.00,1.55
8294.00,1.55
8293.00,1.55
8292.00,1.55
8291.00,1.55
8290.00,1.55
8289.00,1.55
8288.00,1.55
8287.00,1.55
8286.00,1.55
8285.00,1.55
8284.00,1.55
8283.00,1.55
8282.00,1.55
8281.00,1.55
8280.00,1.55
8279.00,1.55
8278.00,1.55
8277.00,1.55
8276.00,1.55
8275.00,1.55
8274.00,1.55
8273.00,1.55
8272.00,1.56
8271.00,1.56
8270.00,1.56
8269.00,1.56
8268.00,1.56
8267.00,1.56
8266.00,1.56
8265.00,1.56
8264.00,1.56
8263.00,1.56
8262.00,1.57
8261.00,1.57
8260.00,1.57
8259.00,1.57
8258.00,1.57
8257.00,1.57
8256.00,1.57
8255.00,1.57
8254.00,1.57
8253.00,1.57
8252.00,1.57
8251.00,1.57
8250.00,1.57
8249.00,1.57
8248.00,1.57
8247.00,1.57
8246.00,1.57
8245.00,1.57
8244.00,1.57
8243.00,1.57
8242.00,1.57
8241.00,1.57
8240.00,1.57
8239.00,1.57
8238.00,1.57
8237.00,1.57
8236.00,1.57
8235.00,1.57
8234.00,1.58
8233.00,1.58
8232.00,1.58
8231.00,1.58
8230.00,1.58
8229.00,1.58
8228.00,1.58
8227.00,1.58
8226.00,1.58
8225.00,1.58
8224.00,1.58
8223.00,1.58
8222.00,1.58
8221.00,1.58
8220.00,1.58
8219.00,1.58
8218.00,1.58
8217.00,1.58
8216.00,1.58
8215.00,1.58
8214.00,1.58
8213.00,1.58
8212.00,1.58
8211.00,1.58
8210.00,1.58
8209.00,1.58
8208.00,1.58
8207.00,1.58
8206.00,1.58
8205.00,1.58
8204.00,1.58
8203.00,1.58
8202.00,1.58
8201.00,1.58
8200.00,1.58
8199.00,1.58
8198.00,1.58
8197.00,1.58
8196.00,1.58
8195.00,1.58
8194.00,1.58
8193.00,1.58
8192.00,1.58
8191.00,1.58
8190.00,1.58
8189.00,1.58
8188.00,1.59
8187.00,1.59
8186.00,1.59
8185.00,1.59
8184.00,1.59
8183.00,1.59
8182.00,1.59
8181.00,1.60
8180.00,1.60
8179.00,1.60
8178.00,1.60
8177.00,1.60
8176.00,1.60
8175.00,1.61
8174.00,1.61
8173.00,1.61
8172.00,1.61
8171.00,1.61
8170.00,1.61
8169.00,1.62
8168.00,1.62
8167.00,1.62
8166.00,1.62
8165.00,1.62
8164.00,1.62
8163.00,1.62
8162.00,1.63
8161.00,1.63
8160.00,1.63
8159.00,1.63
8158.00,1.63
8157.00,1.63
8156.00,1.63
8155.00,1.63
8154.00,1.64
8153.00,1.64
8152.00,1.64
8151.00,1.64
8150.00,1.64
8149.00,1.64
8148.00,1.64
8147.00,1.64
8146.00,1.64
8145.00,1.64
8144.00,1.64
8143.00,1.64
8142.00,1.64
8141.00,1.64
8140.00,1.64
8139.00,1.64
8138.00,1.65
8137.00,1.65
8136.00,1.65
8135.00,1.65
8134.00,1.65
8133.00,1.65
8132.00,1.65
8131.00,1.65
8130.00,1.65
8129.00,1.65
8128.00,1.65
8127.00,1.65
8126.00,1.65
8125.00,1.65
8124.00,1.65
8123.00,1.65
8122.00,1.65
8121.00,1.65
8120.00,1.65
8119.00,1.65
8118.00,1.65
8117.00,1.65
8116.00,1.65
8115.00,1.65
8114.00,1.65
8113.00,1.65
8112.00,1.65
8111.00,1.65
8110.00,1.65
8109.00,1.65
8108.00,1.65
8107.00,1.65
8106.00,1.65
8105.00,1.65
8104.00,1.65
8103.00,1.65
8102.00,1.65
8101.00,1.65
8100.00,1.65
8099.00,1.65
8098.00,1.66
8097.00,1.66
8096.00,1.66
8095.00,1.66
8094.00,1.66
8093.00,1.66
8092.00,1.66
8091.00,1.66
8090.00,1.66
8089.00,1.66
8088.00,1.66
8087.00,1.67
8086.00,1.67
8085.00,1.67
8084.00,1.67
8083.00,1.67
8082.00,1.67
8081.00,1.67
8080.00,1.67
8079.00,1.67
8078.00,1.67
8077.00,1.67
8076.00,1.67
8075.00,1.68
8074.00,1.68
8073.00,1.68
8072.00,1.68
8071.00,1.68
8070.00,1.68
8069.00,1.68
8068.00,1.68
8067.00,1.67
8066.00,1.67
8065.00,1.67
8064.00,1.67
8063.00,1.67
8062.00,1.67
8061.00,1.67
8060.00,1.67
8059.00,1.67
8058.00,1.67
8057.00,1.67
8056.00,1.67
8055.00,1.67
8054.00,1.67
8053.00,1.67
8052.00,1.67
8051.00,1.67
8050.00,1.67
8049.00,1.67
8048.00,1.67
8047.00,1.67
8046.00,1.67
8045.00,1.67
8044.00,1.67
8043.00,1.67
8042.00,1.67
8041.00,1.67
8040.00,1.68
8039.00,1.68
8038.00,1.68
8037.00,1.68
8036.00,1.68
8035.00,1.68
8034.00,1.68
8033.00,1.68
8032.00,1.68
8031.00,1.68
8030.00,1.68
8029.00,1.68
8028.00,1.68
8027.00,1.68
8026.00,1.68
8025.00,1.68
8024.00,1.68
8023.00,1.68
8022.00,1.68
8021.00,1.68
8020.00,1.68
8019.00,1.68
8018.00,1.68
8017.00,1.68
8016.00,1.69
8015.00,1.69
8014.00,1.69
8013.00,1.69
8012.00,1.69
8011.00,1.69
8010.00,1.69
8009.00,1.69
8008.00,1.69
8007.00,1.69
8006.00,1.69
8005.00,1.69
8004.00,1.69
8003.00,1.69
8002.00,1.69
8001.00,1.69
8000.00,1.69
7999.00,1.69
7998.00,1.68
7997.00,1.68
7996.00,1.68
7995.00,1.68
7994.00,1.68
7993.00,1.69
7992.00,1.69
7991.00,1.69
7990.00,1.69
7989.00,1.69
7988.00,1.69
7987.00,1.69
7986.00,1.69
7985.00,1.69
7984.00,1.69
7983.00,1.69
7982.00,1.69
7981.00,1.69
7980.00,1.69
7979.00,1.69
7978.00,1.69
7977.00,1.69
7976.00,1.69
7975.00,1.69
7974.00,1.69
7973.00,1.70
7972.00,1.70
7971.00,1.70
7970.00,1.70
7969.00,1.70
7968.00,1.69
7967.00,1.69
7966.00,1.69
7965.00,1.69
7964.00,1.69
7963.00,1.69
7962.00,1.69
7961.00,1.69
7960.00,1.69
7959.00,1.69
7958.00,1.70
7957.00,1.70
7956.00,1.70
7955.00,1.70
7954.00,1.70
7953.00,1.70
7952.00,1.70
7951.00,1.70
7950.00,1.70
7949.00,1.70
7948.00,1.70
7947.00,1.69
7946.00,1.69
7945.00,1.69
7944.00,1.69
7943.00,1.69
7942.00,1.69
7941.00,1.69
7940.00,1.69
7939.00,1.69
7938.00,1.69
7937.00,1.69
7936.00,1.69
7935.00,1.69
7934.00,1.69
7933.00,1.69
7932.00,1.69
7931.00,1.69
7930.00,1.69
7929.00,1.69
7928.00,1.69
7927.00,1.69
7926.00,1.69
7925.00,1.69
7924.00,1.69
7923.00,1.69
7922.00,1.69
7921.00,1.70
7920.00,1.70
7919.00,1.70
7918.00,1.70
7917.00,1.70
7916.00,1.70
7915.00,1.70
7914.00,1.70
7913.00,1.70
7912.00,1.70
7911.00,1.70
7910.00,1.70
7909.00,1.70
7908.00,1.70
7907.00,1.70
7906.00,1.70
7905.00,1.70
7904.00,1.70
7903.00,1.70
7902.00,1.70
7901.00,1.70
7900.00,1.70
7899.00,1.70
7898.00,1.70
7897.00,1.70
7896.00,1.70
7895.00,1.70
7894.00,1.70
7893.00,1.70
7892.00,1.70
7891.00,1.70
7890.00,1.70
7889.00,1.70
7888.00,1.70
7887.00,1.70
7886.00,1.70
7885.00,1.70
7884.00,1.70
7883.00,1.70
7882.00,1.70
7881.00,1.70
7880.00,1.70
7879.00,1.70
7878.00,1.70
7877.00,1.70
7876.00,1.70
7875.00,1.70
7874.00,1.70
7873.00,1.71
7872.00,1.71
7871.00,1.71
7870.00,1.71
7869.00,1.71
7868.00,1.71
7867.00,1.71
7866.00,1.71
7865.00,1.71
7864.00,1.71
7863.00,1.71
7862.00,1.71
7861.00,1.71
7860.00,1.71
7859.00,1.71
7858.00,1.71
7857.00,1.71
7856.00,1.71
7855.00,1.71
7854.00,1.71
7853.00,1.71
7852.00,1.71
7851.00,1.70
7850.00,1.70
7849.00,1.70
7848.00,1.70
7847.00,1.70
7846.00,1.70
7845.00,1.70
7844.00,1.70
7843.00,1.70
7842.00,1.70
7841.00,1.70
7840.00,1.70
7839.00,1.70
7838.00,1.70
7837.00,1.70
7836.00,1.70
7835.00,1.70
7834.00,1.70
7833.00,1.70
7832.00,1.70
7831.00,1.70
7830.00,1.70
7829.00,1.70
7828.00,1.70
7827.00,1.71
7826.00,1.71
7825.00,1.71
7824.00,1.71
7823.00,1.71
7822.00,1.71
7821.00,1.71
7820.00,1.71
7819.00,1.71
7818.00,1.71
7817.00,1.71
7816.00,1.71
7815.00,1.71
7814.00,1.71
7813.00,1.71
7812.00,1.71
7811.00,1.71
7810.00,1.71
7809.00,1.71
7808.00,1.71
7807.00,1.71
7806.00,1.71
7805.00,1.71
7804.00,1.71
7803.00,1.71
7802.00,1.71
7801.00,1.71
7800.00,1.70
7799.00,1.70
7798.00,1.70
7797.00,1.70
7796.00,1.70
7795.00,1.70
7794.00,1.70
7793.00,1.70
7792.00,1.70
7791.00,1.70
7790.00,1.70
7789.00,1.70
7788.00,1.70
7787.00,1.70
7786.00,1.70
7785.00,1.70
7784.00,1.70
7783.00,1.70
7782.00,1.70
7781.00,1.70
7780.00,1.70
7779.00,1.70
7778.00,1.70
7777.00,1.70
7776.00,1.70
7775.00,1.70
7774.00,1.70
7773.00,1.70
7772.00,1.70
7771.00,1.70
7770.00,1.70
7769.00,1.70
7768.00,1.70
7767.00,1.70
7766.00,1.70
7765.00,1.70
7764.00,1.70
7763.00,1.70
7762.00,1.70
7761.00,1.70
7760.00,1.71
7759.00,1.71
7758.00,1.71
7757.00,1.71
7756.00,1.71
7755.00,1.71
7754.00,1.71
7753.00,1.71
7752.00,1.71
7751.00,1.71
7750.00,1.71
7749.00,1.71
7748.00,1.71
7747.00,1.71
7746.00,1.71
7745.00,1.71
7744.00,1.71
7743.00,1.71
7742.00,1.71
7741.00,1.71
7740.00,1.71
7739.00,1.71
7738.00,1.71
7737.00,1.71
7736.00,1.71
7735.00,1.71
7734.00,1.71
7733.00,1.71
7732.00,1.71
7731.00,1.71
7730.00,1.71
7729.00,1.71
7728.00,1.71
7727.00,1.71
7726.00,1.71
7725.00,1.72
7724.00,1.72
7723.00,1.72
7722.00,1.72
7721.00,1.72
7720.00,1.72
7719.00,1.72
7718.00,1.72
7717.00,1.72
7716.00,1.72
7715.00,1.72
7714.00,1.72
7713.00,1.71
7712.00,1.71
7711.00,1.71
7710.00,1.71
7709.00,1.71
7708.00,1.71
7707.00,1.71
7706.00,1.71
7705.00,1.71
7704.00,1.71
7703.00,1.71
7702.00,1.71
7701.00,1.71
7700.00,1.71
7699.00,1.71
7698.00,1.71
7697.00,1.71
7696.00,1.71
7695.00,1.71
7694.00,1.71
7693.00,1.71
7692.00,1.71
7691.00,1.71
7690.00,1.71
7689.00,1.71
7688.00,1.72
7687.00,1.72
7686.00,1.72
7685.00,1.72
7684.00,1.72
7683.00,1.72
7682.00,1.72
7681.00,1.72
7680.00,1.72
7679.00,1.72
7678.00,1.72
7677.00,1.72
7676.00,1.72
7675.00,1.72
7674.00,1.72
7673.00,1.72
7672.00,1.72
7671.00,1.72
7670.00,1.72
7669.00,1.72
7668.00,1.72
7667.00,1.72
7666.00,1.72
7665.00,1.72
7664.00,1.72
7663.00,1.72
7662.00,1.72
7661.00,1.72
7660.00,1.72
7659.00,1.72
7658.00,1.72
7657.00,1.71
7656.00,1.71
7655.00,1.71
7654.00,1.71
7653.00,1.71
7652.00,1.71
7651.00,1.71
7650.00,1.71
7649.00,1.71
7648.00,1.71
7647.00,1.71
7646.00,1.71
7645.00,1.71
7644.00,1.71
7643.00,1.71
7642.00,1.71
7641.00,1.71
7640.00,1.71
7639.00,1.71
7638.00,1.71
7637.00,1.71
7636.00,1.71
7635.00,1.71
7634.00,1.71
7633.00,1.71
7632.00,1.71
7631.00,1.71
7630.00,1.71
7629.00,1.71
7628.00,1.72
7627.00,1.72
7626.00,1.72
7625.00,1.72
7624.00,1.72
7623.00,1.72
7622.00,1.72
7621.00,1.72
7620.00,1.72
7619.00,1.72
7618.00,1.72
7617.00,1.72
7616.00,1.72
7615.00,1.72
7614.00,1.72
7613.00,1.72
7612.00,1.72
7611.00,1.72
7610.00,1.72
7609.00,1.72
7608.00,1.72
7607.00,1.72
7606.00,1.72
7605.00,1.72
7604.00,1.72
7603.00,1.72
7602.00,1.72
7601.00,1.72
7600.00,1.72
7599.00,1.72
7598.00,1.72
7597.00,1.72
7596.00,1.72
7595.00,1.72
7594.00,1.72
7593.00,1.72
7592.00,1.72
7591.00,1.72
7590.00,1.72
7589.00,1.72
7588.00,1.72
7587.00,1.72
7586.00,1.72
7585.00,1.72
7584.00,1.72
7583.00,1.72
7582.00,1.72
7581.00,1.72
7580.00,1.72
7579.00,1.72
7578.00,1.72
7577.00,1.71
7576.00,1.71
7575.00,1.71
7574.00,1.71
7573.00,1.71
7572.00,1.71
7571.00,1.71
7570.00,1.71
7569.00,1.71
7568.00,1.71
7567.00,1.71
7566.00,1.71
7565.00,1.72
7564.00,1.72
7563.00,1.72
7562.00,1.72
7561.00,1.72
7560.00,1.72
7559.00,1.72
7558.00,1.72
7557.00,1.72
7556.00,1.72
7555.00,1.72
7554.00,1.72
7553.00,1.72
7552.00,1.72
7551.00,1.72
7550.00,1.72
7549.00,1.72
7548.00,1.72
7547.00,1.72
7546.00,1.72
7545.00,1.72
7544.00,1.72
7543.00,1.72
7542.00,1.72
7541.00,1.72
7540.00,1.72
7539.00,1.72
7538.00,1.72
7537.00,1.72
7536.00,1.72
7535.00,1.72
7534.00,1.72
7533.00,1.72
7532.00,1.72
7531.00,1.72
7530.00,1.72
7529.00,1.72
7528.00,1.72
7527.00,1.72
7526.00,1.72
7525.00,1.72
7524.00,1.72
7523.00,1.72
7522.00,1.72
7521.00,1.72
7520.00,1.71
7519.00,1.71
7518.00,1.71
7517.00,1.71
7516.00,1.71
7515.00,1.71
7514.00,1.71
7513.00,1.71
7512.00,1.71
7511.00,1.72
7510.00,1.72
7509.00,1.72
7508.00,1.72
7507.00,1.72
7506.00,1.72
7505.00,1.72
7504.00,1.72
7503.00,1.72
7502.00,1.72
7501.00,1.72
7500.00,1.72
7499.00,1.72
7498.00,1.72
7497.00,1.72
7496.00,1.72
7495.00,1.72
7494.00,1.72
7493.00,1.72
7492.00,1.71
7491.00,1.71
7490.00,1.71
7489.00,1.71
7488.00,1.71
7487.00,1.71
7486.00,1.71
7485.00,1.71
7484.00,1.71
7483.00,1.71
7482.00,1.71
7481.00,1.71
7480.00,1.71
7479.00,1.71
7478.00,1.71
7477.00,1.71
7476.00,1.71
7475.00,1.70
7474.00,1.70
7473.00,1.70
7472.00,1.70
7471.00,1.70
7470.00,1.70
7469.00,1.70
7468.00,1.70
7467.00,1.70
7466.00,1.70
7465.00,1.70
7464.00,1.70
7463.00,1.70
7462.00,1.69
7461.00,1.69
7460.00,1.69
7459.00,1.69
7458.00,1.69
7457.00,1.69
7456.00,1.69
7455.00,1.69
7454.00,1.69
7453.00,1.69
7452.00,1.69
7451.00,1.69
7450.00,1.69
7449.00,1.69
7448.00,1.69
7447.00,1.69
7446.00,1.69
7445.00,1.69
7444.00,1.69
7443.00,1.69
7442.00,1.69
7441.00,1.69
7440.00,1.69
7439.00,1.69
7438.00,1.68
7437.00,1.68
7436.00,1.68
7435.00,1.68
7434.00,1.68
7433.00,1.68
7432.00,1.68
7431.00,1.68
7430.00,1.68
7429.00,1.68
7428.00,1.68
7427.00,1.68
7426.00,1.67
7425.00,1.67
7424.00,1.67
7423.00,1.67
7422.00,1.67
7421.00,1.67
7420.00,1.67
7419.00,1.67
7418.00,1.67
7417.00,1.66
7416.00,1.66
7415.00,1.66
7414.00,1.66
7413.00,1.66
7412.00,1.66
7411.00,1.66
7410.00,1.66
7409.00,1.66
7408.00,1.66
7407.00,1.65
7406.00,1.65
7405.00,1.65
7404.00,1.65
7403.00,1.65
7402.00,1.65
7401.00,1.64
7400.00,1.64
7399.00,1.64
7398.00,1.64
7397.00,1.64
7396.00,1.64
7395.00,1.63
7394.00,1.63
7393.00,1.63
7392.00,1.63
7391.00,1.63
7390.00,1.63
7389.00,1.63
7388.00,1.63
7387.00,1.63
7386.00,1.63
7385.00,1.62
7384.00,1.62
7383.00,1.62
7382.00,1.62
7381.00,1.62
7380.00,1.62
7379.00,1.62
7378.00,1.62
7377.00,1.62
7376.00,1.62
7375.00,1.62
7374.00,1.61
7373.00,1.61
7372.00,1.61
7371.00,1.61
7370.00,1.61
7369.00,1.61
7368.00,1.61
7367.00,1.61
7366.00,1.61
7365.00,1.61
7364.00,1.61
7363.00,1.61
7362.00,1.61
7361.00,1.61
7360.00,1.60
7359.00,1.60
7358.00,1.60
7357.00,1.60
7356.00,1.60
7355.00,1.60
7354.00,1.60
7353.00,1.60
7352.00,1.60
7351.00,1.60
7350.00,1.60
7349.00,1.60
7348.00,1.60
7347.00,1.60
7346.00,1.60
7345.00,1.60
7344.00,1.60
7343.00,1.60
7342.00,1.60
7341.00,1.60
7340.00,1.60
7339.00,1.60
7338.00,1.60
7337.00,1.60
7336.00,1.60
7335.00,1.60
7334.00,1.60
7333.00,1.60
7332.00,1.59
7331.00,1.59
7330.00,1.59
7329.00,1.59
7328.00,1.59
7327.00,1.59
7326.00,1.59
7325.00,1.59
7324.00,1.58
7323.00,1.58
7322.00,1.58
7321.00,1.58
7320.00,1.58
7319.00,1.58
7318.00,1.58
7317.00,1.58
7316.00,1.58
7315.00,1.58
7314.00,1.58
7313.00,1.57
7312.00,1.57
7311.00,1.57
7310.00,1.57
7309.00,1.57
7308.00,1.57
7307.00,1.57
7306.00,1.57
7305.00,1.56
7304.00,1.56
7303.00,1.56
7302.00,1.56
7301.00,1.56
7300.00,1.56
7299.00,1.55
7298.00,1.55
7297.00,1.55
7296.00,1.55
7295.00,1.55
7294.00,1.55
7293.00,1.54
7292.00,1.54
7291.00,1.54
7290.00,1.54
7289.00,1.54
7288.00,1.54
7287.00,1.53
7286.00,1.53
7285.00,1.53
7284.00,1.53
7283.00,1.53
7282.00,1.53
7281.00,1.53
7280.00,1.52
7279.00,1.52
7278.00,1.52
7277.00,1.52
7276.00,1.52
7275.00,1.52
7274.00,1.51
7273.00,1.51
7272.00,1.51
7271.00,1.51
7270.00,1.51
7269.00,1.51
7268.00,1.51
7267.00,1.50
7266.00,1.50
7265.00,1.50
7264.00,1.50
7263.00,1.50
7262.00,1.50
7261.00,1.50
7260.00,1.49
7259.00,1.49
7258.00,1.49
7257.00,1.49
7256.00,1.49
7255.00,1.49
7254.00,1.48
7253.00,1.48
7252.00,1.48
7251.00,1.48
7250.00,1.48
7249.00,1.47
7248.00,1.47
7247.00,1.47
7246.00,1.46
7245.00,1.46
7244.00,1.46
7243.00,1.46
7242.00,1.45
7241.00,1.45
7240.00,1.45
7239.00,1.44
7238.00,1.44
7237.00,1.44
7236.00,1.43
7235.00,1.43
7234.00,1.43
7233.00,1.42
7232.00,1.42
7231.00,1.42
7230.00,1.41
7229.00,1.41
7228.00,1.40
7227.00,1.40
7226.00,1.40
7225.00,1.39
7224.00,1.39
7223.00,1.38
7222.00,1.38
7221.00,1.37
7220.00,1.37
7219.00,1.36
7218.00,1.36
7217.00,1.35
7216.00,1.35
7215.00,1.35
7214.00,1.34
7213.00,1.34
7212.00,1.33
7211.00,1.33
7210.00,1.32
7209.00,1.32
7208.00,1.31
7207.00,1.31
7206.00,1.30
7205.00,1.30
7204.00,1.30
7203.00,1.29
7202.00,1.29
7201.00,1.29
7200.00,1.28
7199.00,1.28
7198.00,1.27
7197.00,1.27
7196.00,1.27
7195.00,1.26
7194.00,1.26
7193.00,1.26
7192.00,1.26
7191.00,1.25
7190.00,1.25
7189.00,1.25
7188.00,1.24
7187.00,1.24
7186.00,1.24
7185.00,1.24
7184.00,1.23
7183.00,1.23
7182.00,1.23
7181.00,1.23
7180.00,1.22
7179.00,1.22
7178.00,1.22
7177.00,1.21
7176.00,1.21
7175.00,1.21
7174.00,1.21
7173.00,1.20
7172.00,1.20
7171.00,1.20
7170.00,1.19
7169.00,1.19
7168.00,1.19
7167.00,1.18
7166.00,1.18
7165.00,1.18
7164.00,1.17
7163.00,1.17
7162.00,1.16
7161.00,1.16
7160.00,1.16
7159.00,1.15
7158.00,1.15
7157.00,1.15
7156.00,1.14
7155.00,1.14
7154.00,1.14
7153.00,1.13
7152.00,1.13
7151.00,1.12
7150.00,1.12
7149.00,1.12
7148.00,1.12
7147.00,1.11
7146.00,1.11
7145.00,1.11
7144.00,1.10
7143.00,1.10
7142.00,1.10
7141.00,1.10
7140.00,1.09
7139.00,1.09
7138.00,1.09
7137.00,1.08
7136.00,1.08
7135.00,1.08
7134.00,1.08
7133.00,1.07
7132.00,1.07
7131.00,1.07
7130.00,1.06
7129.00,1.06
7128.00,1.06
7127.00,1.05
7126.00,1.05
7125.00,1.04
7124.00,1.04
7123.00,1.04
7122.00,1.03
7121.00,1.03
7120.00,1.03
7119.00,1.02
7118.00,1.02
7117.00,1.02
7116.00,1.01
7115.00,1.01
7114.00,1.01
7113.00,1.00
7112.00,1.00
7111.00,1.00
7110.00,0.99
7109.00,0.99
7108.00,0.99
7107.00,0.98
7106.00,0.98
7105.00,0.98
7104.00,0.97
7103.00,0.97
7102.00,0.97
7101.00,0.96
7100.00,0.96
7099.00,0.96
7098.00,0.95
7097.00,0.95
7096.00,0.95
7095.00,0.95
7094.00,0.94
7093.00,0.94
7092.00,0.94
7091.00,0.93
7090.00,0.93
7089.00,0.93
7088.00,0.93
7087.00,0.92
7086.00,0.92
7085.00,0.92
7084.00,0.91
7083.00,0.91
7082.00,0.91
7081.00,0.91
7080.00,0.90
7079.00,0.90
7078.00,0.90
7077.00,0.90
7076.00,0.90
7075.00,0.89
7074.00,0.89
7073.00,0.89
7072.00,0.89
7071.00,0.89
7070.00,0.88
7069.00,0.88
7068.00,0.88
7067.00,0.88
7066.00,0.88
7065.00,0.88
7064.00,0.87
7063.00,0.87
7062.00,0.87
7061.00,0.87
7060.00,0.87
7059.00,0.86
7058.00,0.86
7057.00,0.86
7056.00,0.86
7055.00,0.86
7054.00,0.86
7053.00,0.85
7052.00,0.85
7051.00,0.85
7050.00,0.85
7049.00,0.85
7048.00,0.85
7047.00,0.85
7046.00,0.85
7045.00,0.85
7044.00,0.85
7043.00,0.85
7042.00,0.84
7041.00,0.84
7040.00,0.84
7039.00,0.84
7038.00,0.84
7037.00,0.84
7036.00,0.83
7035.00,0.83
7034.00,0.83
7033.00,0.83
7032.00,0.83
7031.00,0.82
7030.00,0.82
7029.00,0.82
7028.00,0.82
7027.00,0.82
7026.00,0.82
7025.00,0.82
7024.00,0.81
7023.00,0.81
7022.00,0.81
7021.00,0.81
7020.00,0.81
7019.00,0.81
7018.00,0.80
7017.00,0.80
7016.00,0.80
7015.00,0.80
7014.00,0.80
7013.00,0.80
7012.00,0.79
7011.00,0.79
7010.00,0.79
7009.00,0.79
7008.00,0.79
7007.00,0.79
7006.00,0.79
7005.00,0.79
7004.00,0.79
7003.00,0.79
7002.00,0.79
7001.00,0.79
7000.00,0.79
6999.00,0.79
6998.00,0.79
6997.00,0.79
6996.00,0.79
6995.00,0.79
6994.00,0.78
6993.00,0.78
6992.00,0.78
6991.00,0.78
6990.00,0.78
6989.00,0.78
6988.00,0.78
6987.00,0.78
6986.00,0.78
6985.00,0.78
6984.00,0.78
6983.00,0.78
6982.00,0.78
6981.00,0.77
6980.00,0.77
6979.00,0.77
6978.00,0.77
6977.00,0.77
6976.00,0.77
6975.00,0.77
6974.00,0.77
6973.00,0.77
6972.00,0.77
6971.00,0.76
6970.00,0.76
6969.00,0.76
6968.00,0.76
6967.00,0.76
6966.00,0.76
6965.00,0.76
6964.00,0.76
6963.00,0.76
6962.00,0.76
6961.00,0.76
6960.00,0.76
6959.00,0.76
6958.00,0.76
6957.00,0.76
6956.00,0.76
6955.00,0.76
6954.00,0.76
6953.00,0.75
6952.00,0.75
6951.00,0.75
6950.00,0.75
6949.00,0.75
6948.00,0.75
6947.00,0.75
6946.00,0.75
6945.00,0.75
6944.00,0.75
6943.00,0.75
6942.00,0.75
6941.00,0.75
6940.00,0.75
6939.00,0.75
6938.00,0.75
6937.00,0.75
6936.00,0.75
6935.00,0.75
6934.00,0.75
6933.00,0.75
6932.00,0.74
6931.00,0.74
6930.00,0.74
6929.00,0.74
6928.00,0.74
6927.00,0.74
6926.00,0.74
6925.00,0.74
6924.00,0.74
6923.00,0.74
6922.00,0.74
6921.00,0.74
6920.00,0.74
6919.00,0.73
6918.00,0.73
6917.00,0.73
6916.00,0.73
6915.00,0.73
6914.00,0.73
6913.00,0.73
6912.00,0.73
6911.00,0.73
6910.00,0.73
6909.00,0.73
6908.00,0.73
6907.00,0.73
6906.00,0.73
6905.00,0.73
6904.00,0.73
6903.00,0.73
6902.00,0.73
6901.00,0.73
6900.00,0.73
6899.00,0.73
6898.00,0.73
6897.00,0.73
6896.00,0.73
6895.00,0.73
6894.00,0.73
6893.00,0.73
6892.00,0.73
6891.00,0.73
6890.00,0.73
6889.00,0.73
6888.00,0.73
6887.00,0.73
6886.00,0.73
6885.00,0.73
6884.00,0.73
6883.00,0.73
6882.00,0.73
6881.00,0.73
6880.00,0.73
6879.00,0.73
6878.00,0.72
6877.00,0.72
6876.00,0.72
6875.00,0.72
6874.00,0.72
6873.00,0.72
6872.00,0.72
6871.00,0.72
6870.00,0.72
6869.00,0.72
6868.00,0.72
6867.00,0.72
6866.00,0.72
6865.00,0.72
6864.00,0.72
6863.00,0.72
6862.00,0.72
6861.00,0.72
6860.00,0.72
6859.00,0.72
6858.00,0.72
6857.00,0.72
6856.00,0.72
6855.00,0.72
6854.00,0.72
6853.00,0.72
6852.00,0.72
6851.00,0.72
6850.00,0.72
6849.00,0.72
6848.00,0.72
6847.00,0.72
6846.00,0.72
6845.00,0.72
6844.00,0.72
6843.00,0.72
6842.00,0.72
6841.00,0.72
6840.00,0.72
6839.00,0.72
6838.00,0.72
6837.00,0.72
6836.00,0.72
6835.00,0.72
6834.00,0.73
6833.00,0.73
6832.00,0.73
6831.00,0.73
6830.00,0.73
6829.00,0.73
6828.00,0.73
6827.00,0.73
6826.00,0.73
6825.00,0.73
6824.00,0.74
6823.00,0.74
6822.00,0.74
6821.00,0.74
6820.00,0.74
6819.00,0.74
6818.00,0.74
6817.00,0.74
6816.00,0.74
6815.00,0.74
6814.00,0.74
6813.00,0.74
6812.00,0.75
6811.00,0.75
6810.00,0.75
6809.00,0.75
6808.00,0.75
6807.00,0.75
6806.00,0.75
6805.00,0.75
6804.00,0.75
6803.00,0.75
6802.00,0.75
6801.00,0.75
6800.00,0.75
6799.00,0.75
6798.00,0.75
6797.00,0.75
6796.00,0.75
6795.00,0.75
6794.00,0.75
6793.00,0.75
6792.00,0.75
6791.00,0.75
6790.00,0.75
6789.00,0.75
6788.00,0.75
6787.00,0.75
6786.00,0.75
6785.00,0.75
6784.00,0.76
6783.00,0.76
6782.00,0.76
6781.00,0.76
6780.00,0.76
6779.00,0.76
6778.00,0.76
6777.00,0.76
6776.00,0.76
6775.00,0.76
6774.00,0.76
6773.00,0.77
6772.00,0.77
6771.00,0.77
6770.00,0.77
6769.00,0.77
6768.00,0.77
6767.00,0.77
6766.00,0.77
6765.00,0.77
6764.00,0.77
6763.00,0.77
6762.00,0.77
6761.00,0.77
6760.00,0.77
6759.00,0.77
6758.00,0.78
6757.00,0.78
6756.00,0.78
6755.00,0.78
6754.00,0.78
6753.00,0.78
6752.00,0.78
6751.00,0.78
6750.00,0.78
6749.00,0.78
6748.00,0.78
6747.00,0.78
6746.00,0.78
6745.00,0.78
6744.00,0.78
6743.00,0.78
6742.00,0.79
6741.00,0.79
6740.00,0.79
6739.00,0.79
6738.00,0.79
6737.00,0.79
6736.00,0.79
6735.00,0.80
6734.00,0.80
6733.00,0.80
6732.00,0.80
6731.00,0.80
6730.00,0.80
6729.00,0.80
6728.00,0.80
6727.00,0.81
6726.00,0.81
6725.00,0.81
6724.00,0.81
6723.00,0.81
6722.00,0.81
6721.00,0.81
6720.00,0.81
6719.00,0.81
6718.00,0.81
6717.00,0.81
6716.00,0.81
6715.00,0.82
6714.00,0.82
6713.00,0.82
6712.00,0.82
6711.00,0.82
6710.00,0.82
6709.00,0.82
6708.00,0.82
6707.00,0.82
6706.00,0.82
6705.00,0.82
6704.00,0.82
6703.00,0.82
6702.00,0.83
6701.00,0.83
6700.00,0.83
6699.00,0.83
6698.00,0.83
6697.00,0.83
6696.00,0.83
6695.00,0.83
6694.00,0.84
6693.00,0.84
6692.00,0.84
6691.00,0.84
6690.00,0.84
6689.00,0.84
6688.00,0.84
6687.00,0.84
6686.00,0.85
6685.00,0.85
6684.00,0.85
6683.00,0.85
6682.00,0.85
6681.00,0.85
6680.00,0.85
6679.00,0.85
6678.00,0.85
6677.00,0.85
6676.00,0.86
6675.00,0.86
6674.00,0.86
6673.00,0.86
6672.00,0.86
6671.00,0.86
6670.00,0.86
6669.00,0.86
6668.00,0.86
6667.00,0.87
6666.00,0.87
6665.00,0.87
6664.00,0.87
6663.00,0.87
6662.00,0.87
6661.00,0.87
6660.00,0.88
6659.00,0.88
6658.00,0.88
6657.00,0.88
6656.00,0.88
6655.00,0.88
6654.00,0.88
6653.00,0.89
6652.00,0.89
6651.00,0.89
6650.00,0.89
6649.00,0.89
6648.00,0.89
6647.00,0.89
6646.00,0.89
6645.00,0.89
6644.00,0.89
6643.00,0.89
6642.00,0.89
6641.00,0.90
6640.00,0.90
6639.00,0.90
6638.00,0.90
6637.00,0.90
6636.00,0.90
6635.00,0.90
6634.00,0.90
6633.00,0.90
6632.00,0.90
6631.00,0.90
6630.00,0.90
6629.00,0.91
6628.00,0.91
6627.00,0.91
6626.00,0.91
6625.00,0.91
6624.00,0.91
6623.00,0.91
6622.00,0.91
6621.00,0.92
6620.00,0.92
6619.00,0.92
6618.00,0.92
6617.00,0.92
6616.00,0.92
6615.00,0.92
6614.00,0.92
6613.00,0.92
6612.00,0.92
6611.00,0.93
6610.00,0.93
6609.00,0.93
6608.00,0.93
6607.00,0.93
6606.00,0.93
6605.00,0.93
6604.00,0.93
6603.00,0.93
6602.00,0.94
6601.00,0.94
6600.00,0.94
6599.00,0.94
6598.00,0.94
6597.00,0.94
6596.00,0.94
6595.00,0.94
6594.00,0.94
6593.00,0.95
6592.00,0.95
6591.00,0.95
6590.00,0.95
6589.00,0.95
6588.00,0.95
6587.00,0.95
6586.00,0.96
6585.00,0.96
6584.00,0.96
6583.00,0.96
6582.00,0.96
6581.00,0.96
6580.00,0.96
6579.00,0.97
6578.00,0.97
6577.00,0.97
6576.00,0.97
6575.00,0.97
6574.00,0.97
6573.00,0.97
6572.00,0.98
6571.00,0.98
6570.00,0.98
6569.00,0.98
6568.00,0.98
6567.00,0.98
6566.00,0.98
6565.00,0.98
6564.00,0.98
6563.00,0.98
6562.00,0.98
6561.00,0.98
6560.00,0.98
6559.00,0.98
6558.00,0.98
6557.00,0.98
6556.00,0.98
6555.00,0.99
6554.00,0.99
6553.00,0.99
6552.00,0.99
6551.00,0.99
6550.00,0.99
6549.00,0.99
6548.00,0.99
6547.00,0.99
6546.00,0.99
6545.00,0.99
6544.00,0.99
6543.00,1.00
6542.00,1.00
6541.00,1.00
6540.00,1.00
6539.00,1.00
6538.00,1.00
6537.00,1.01
6536.00,1.01
6535.00,1.01
6534.00,1.01
6533.00,1.01
6532.00,1.01
6531.00,1.01
6530.00,1.01
6529.00,1.02
6528.00,1.02
6527.00,1.02
6526.00,1.02
6525.00,1.02
6524.00,1.02
6523.00,1.02
6522.00,1.02
6521.00,1.02
6520.00,1.02
6519.00,1.02
6518.00,1.02
6517.00,1.02
6516.00,1.02
6515.00,1.03
6514.00,1.03
6513.00,1.03
6512.00,1.03
6511.00,1.03
6510.00,1.03
6509.00,1.03
6508.00,1.03
6507.00,1.03
6506.00,1.03
6505.00,1.03
6504.00,1.03
6503.00,1.04
6502.00,1.04
6501.00,1.04
6500.00,1.04
6499.00,1.04
6498.00,1.04
6497.00,1.04
6496.00,1.04
6495.00,1.04
6494.00,1.04
6493.00,1.04
6492.00,1.04
6491.00,1.04
6490.00,1.04
6489.00,1.04
6488.00,1.04
6487.00,1.04
6486.00,1.04
6485.00,1.04
6484.00,1.04
6483.00,1.04
6482.00,1.05
6481.00,1.05
6480.00,1.05
6479.00,1.05
6478.00,1.05
6477.00,1.05
6476.00,1.05
6475.00,1.05
6474.00,1.05
6473.00,1.05
6472.00,1.05
6471.00,1.05
6470.00,1.06
6469.00,1.06
6468.00,1.06
6467.00,1.06
6466.00,1.06
6465.00,1.06
6464.00,1.06
6463.00,1.06
6462.00,1.06
6461.00,1.06
6460.00,1.06
6459.00,1.06
6458.00,1.06
6457.00,1.06
6456.00,1.06
6455.00,1.07
6454.00,1.07
6453.00,1.07
6452.00,1.07
6451.00,1.07
6450.00,1.07
6449.00,1.07
6448.00,1.07
6447.00,1.07
6446.00,1.07
6445.00,1.07
6444.00,1.07
6443.00,1.07
6442.00,1.07
6441.00,1.07
6440.00,1.07
6439.00,1.08
6438.00,1.08
6437.00,1.08
6436.00,1.08
6435.00,1.08
6434.00,1.08
6433.00,1.08
6432.00,1.08
6431.00,1.08
6430.00,1.08
6429.00,1.08
6428.00,1.08
6427.00,1.08
6426.00,1.08
6425.00,1.08
6424.00,1.08
6423.00,1.08
6422.00,1.08
6421.00,1.08
6420.00,1.08
6419.00,1.08
6418.00,1.09
6417.00,1.09
6416.00,1.09
6415.00,1.09
6414.00,1.09
6413.00,1.09
6412.00,1.09
6411.00,1.09
6410.00,1.09
6409.00,1.09
6408.00,1.09
6407.00,1.09
6406.00,1.09
6405.00,1.10
6404.00,1.10
6403.00,1.10
6402.00,1.10
6401.00,1.10
6400.00,1.10
6399.00,1.10
6398.00,1.10
6397.00,1.10
6396.00,1.10
6395.00,1.10
6394.00,1.10
6393.00,1.10
6392.00,1.10
6391.00,1.10
6390.00,1.10
6389.00,1.11
6388.00,1.11
6387.00,1.11
6386.00,1.11
6385.00,1.11
6384.00,1.11
6383.00,1.11
6382.00,1.11
6381.00,1.11
6380.00,1.11
6379.00,1.11
6378.00,1.11
6377.00,1.11
6376.00,1.11
6375.00,1.12
6374.00,1.12
6373.00,1.12
6372.00,1.12
6371.00,1.12
6370.00,1.12
6369.00,1.12
6368.00,1.12
6367.00,1.12
6366.00,1.12
6365.00,1.12
6364.00,1.12
6363.00,1.12
6362.00,1.12
6361.00,1.12
6360.00,1.12
6359.00,1.12
6358.00,1.12
6357.00,1.13
6356.00,1.13
6355.00,1.13
6354.00,1.13
6353.00,1.13
6352.00,1.13
6351.00,1.13
6350.00,1.13
6349.00,1.13
6348.00,1.13
6347.00,1.13
6346.00,1.13
6345.00,1.14
6344.00,1.14
6343.00,1.14
6342.00,1.14
6341.00,1.14
6340.00,1.14
6339.00,1.14
6338.00,1.14
6337.00,1.15
6336.00,1.15
6335.00,1.15
6334.00,1.15
6333.00,1.15
6332.00,1.16
6331.00,1.16
6330.00,1.16
6329.00,1.16
6328.00,1.16
6327.00,1.17
6326.00,1.17
6325.00,1.17
6324.00,1.17
6323.00,1.17
6322.00,1.17
6321.00,1.17
6320.00,1.18
6319.00,1.18
6318.00,1.18
6317.00,1.18
6316.00,1.18
6315.00,1.18
6314.00,1.18
6313.00,1.18
6312.00,1.18
6311.00,1.18
6310.00,1.18
6309.00,1.18
6308.00,1.18
6307.00,1.18
6306.00,1.19
6305.00,1.19
6304.00,1.19
6303.00,1.19
6302.00,1.19
6301.00,1.19
6300.00,1.19
6299.00,1.19
6298.00,1.19
6297.00,1.19
6296.00,1.20
6295.00,1.20
6294.00,1.20
6293.00,1.20
6292.00,1.20
6291.00,1.20
6290.00,1.21
6289.00,1.21
6288.00,1.21
6287.00,1.21
6286.00,1.21
6285.00,1.21
6284.00,1.22
6283.00,1.22
6282.00,1.22
6281.00,1.22
6280.00,1.22
6279.00,1.23
6278.00,1.23
6277.00,1.23
6276.00,1.23
6275.00,1.23
6274.00,1.23
6273.00,1.23
6272.00,1.24
6271.00,1.24
6270.00,1.24
6269.00,1.24
6268.00,1.24
6267.00,1.24
6266.00,1.24
6265.00,1.25
6264.00,1.25
6263.00,1.25
6262.00,1.25
6261.00,1.25
6260.00,1.25
6259.00,1.25
6258.00,1.25
6257.00,1.26
6256.00,1.26
6255.00,1.26
6254.00,1.26
6253.00,1.26
6252.00,1.26
6251.00,1.27
6250.00,1.27
6249.00,1.27
6248.00,1.27
6247.00,1.27
6246.00,1.27
6245.00,1.28
6244.00,1.28
6243.00,1.28
6242.00,1.28
6241.00,1.28
6240.00,1.28
6239.00,1.29
6238.00,1.29
6237.00,1.29
6236.00,1.29
6235.00,1.29
6234.00,1.29
6233.00,1.30
6232.00,1.30
6231.00,1.30
6230.00,1.30
6229.00,1.30
6228.00,1.30
6227.00,1.30
6226.00,1.31
6225.00,1.31
6224.00,1.31
6223.00,1.31
6222.00,1.31
6221.00,1.31
6220.00,1.31
6219.00,1.31
6218.00,1.32
6217.00,1.32
6216.00,1.32
6215.00,1.32
6214.00,1.32
6213.00,1.32
6212.00,1.32
6211.00,1.33
6210.00,1.33
6209.00,1.33
6208.00,1.33
6207.00,1.33
6206.00,1.33
6205.00,1.34
6204.00,1.34
6203.00,1.34
6202.00,1.34
6201.00,1.34
6200.00,1.34
6199.00,1.34
6198.00,1.35
6197.00,1.35
6196.00,1.35
6195.00,1.35
6194.00,1.35
6193.00,1.35
6192.00,1.36
6191.00,1.36
6190.00,1.36
6189.00,1.36
6188.00,1.37
6187.00,1.37
6186.00,1.37
6185.00,1.37
6184.00,1.37
6183.00,1.38
6182.00,1.38
6181.00,1.38
6180.00,1.38
6179.00,1.39
6178.00,1.39
6177.00,1.39
6176.00,1.39
6175.00,1.40
6174.00,1.40
6173.00,1.40
6172.00,1.40
6171.00,1.40
6170.00,1.41
6169.00,1.41
6168.00,1.41
6167.00,1.41
6166.00,1.41
6165.00,1.42
6164.00,1.42
6163.00,1.42
6162.00,1.42
6161.00,1.42
6160.00,1.42
6159.00,1.43
6158.00,1.43
6157.00,1.43
6156.00,1.43
6155.00,1.43
6154.00,1.43
6153.00,1.43
6152.00,1.43
6151.00,1.44
6150.00,1.44
6149.00,1.44
6148.00,1.44
6147.00,1.44
6146.00,1.44
6145.00,1.44
6144.00,1.45
6143.00,1.45
6142.00,1.45
6141.00,1.45
6140.00,1.45
6139.00,1.46
6138.00,1.46
6137.00,1.46
6136.00,1.46
6135.00,1.46
6134.00,1.47
6133.00,1.47
6132.00,1.47
6131.00,1.47
6130.00,1.47
6129.00,1.47
6128.00,1.48
6127.00,1.48
6126.00,1.48
6125.00,1.48
6124.00,1.48
6123.00,1.48
6122.00,1.49
6121.00,1.49
6120.00,1.49
6119.00,1.49
6118.00,1.49
6117.00,1.49
6116.00,1.49
6115.00,1.50
6114.00,1.50
6113.00,1.50
6112.00,1.50
6111.00,1.50
6110.00,1.50
6109.00,1.51
6108.00,1.51
6107.00,1.51
6106.00,1.51
6105.00,1.51
6104.00,1.51
6103.00,1.52
6102.00,1.52
6101.00,1.52
6100.00,1.52
6099.00,1.53
6098.00,1.53
6097.00,1.53
6096.00,1.53
6095.00,1.53
6094.00,1.53
6093.00,1.54
6092.00,1.54
6091.00,1.54
6090.00,1.54
6089.00,1.54
6088.00,1.54
6087.00,1.54
6086.00,1.54
6085.00,1.55
6084.00,1.55
6083.00,1.55
6082.00,1.55
6081.00,1.55
6080.00,1.55
6079.00,1.55
6078.00,1.55
6077.00,1.55
6076.00,1.55
6075.00,1.56
6074.00,1.56
6073.00,1.56
6072.00,1.56
6071.00,1.56
6070.00,1.56
6069.00,1.56
6068.00,1.56
6067.00,1.56
6066.00,1.57
6065.00,1.57
6064.00,1.57
6063.00,1.57
6062.00,1.57
6061.00,1.57
6060.00,1.57
6059.00,1.57
6058.00,1.57
6057.00,1.58
6056.00,1.58
6055.00,1.58
6054.00,1.58
6053.00,1.58
6052.00,1.58
6051.00,1.58
6050.00,1.58
6049.00,1.58
6048.00,1.58
6047.00,1.58
6046.00,1.58
6045.00,1.58
6044.00,1.58
6043.00,1.59
6042.00,1.59
6041.00,1.59
6040.00,1.59
6039.00,1.59
6038.00,1.59
6037.00,1.59
6036.00,1.59
6035.00,1.59
6034.00,1.59
6033.00,1.59
6032.00,1.59
6031.00,1.59
6030.00,1.59
6029.00,1.59
6028.00,1.59
6027.00,1.59
6026.00,1.59
6025.00,1.59
6024.00,1.60
6023.00,1.60
6022.00,1.60
6021.00,1.60
6020.00,1.60
6019.00,1.60
6018.00,1.60
6017.00,1.60
6016.00,1.60
6015.00,1.59
6014.00,1.59
6013.00,1.59
6012.00,1.59
6011.00,1.59
6010.00,1.59
6009.00,1.59
6008.00,1.59
6007.00,1.59
6006.00,1.59
6005.00,1.59
6004.00,1.59
6003.00,1.59
6002.00,1.59
6001.00,1.59
6000.00,1.58
5999.00,1.58
5998.00,1.58
5997.00,1.58
5996.00,1.58
5995.00,1.58
5994.00,1.58
5993.00,1.57
5992.00,1.57
5991.00,1.57
5990.00,1.57
5989.00,1.56
5988.00,1.56
5987.00,1.56
5986.00,1.55
5985.00,1.55
5984.00,1.55
5983.00,1.54
5982.00,1.54
5981.00,1.53
5980.00,1.53
5979.00,1.52
5978.00,1.52
5977.00,1.51
5976.00,1.51
5975.00,1.50
5974.00,1.49
5973.00,1.49
5972.00,1.48
5971.00,1.47
5970.00,1.46
5969.00,1.45
5968.00,1.45
5967.00,1.44
5966.00,1.43
5965.00,1.42
5964.00,1.41
5963.00,1.40
5962.00,1.39
5961.00,1.38
5960.00,1.37
5959.00,1.36
5958.00,1.34
5957.00,1.33
5956.00,1.32
5955.00,1.31
5954.00,1.30
5953.00,1.29
5952.00,1.28
5951.00,1.27
5950.00,1.27
5949.00,1.26
5948.00,1.25
5947.00,1.24
5946.00,1.24
5945.00,1.23
5944.00,1.23
5943.00,1.22
5942.00,1.22
5941.00,1.21
5940.00,1.21
5939.00,1.21
5938.00,1.21
5937.00,1.21
5936.00,1.20
5935.00,1.20
5934.00,1.20
5933.00,1.20
5932.00,1.20
5931.00,1.20
5930.00,1.20
5929.00,1.19
5928.00,1.19
5927.00,1.19
5926.00,1.19
5925.00,1.19
5924.00,1.18
5923.00,1.18
5922.00,1.18
5921.00,1.18
5920.00,1.17
5919.00,1.17
5918.00,1.17
5917.00,1.16
5916.00,1.16
5915.00,1.16
5914.00,1.15
5913.00,1.15
5912.00,1.15
5911.00,1.14
5910.00,1.14
5909.00,1.14
5908.00,1.13
5907.00,1.13
5906.00,1.13
5905.00,1.13
5904.00,1.12
5903.00,1.12
5902.00,1.12
5901.00,1.12
5900.00,1.12
5899.00,1.12
5898.00,1.12
5897.00,1.12
5896.00,1.12
5895.00,1.13
5894.00,1.13
5893.00,1.13
5892.00,1.13
5891.00,1.13
5890.00,1.14
5889.00,1.14
5888.00,1.14
5887.00,1.15
5886.00,1.15
5885.00,1.15
5884.00,1.16
5883.00,1.16
5882.00,1.16
5881.00,1.17
5880.00,1.17
5879.00,1.17
5878.00,1.18
5877.00,1.18
5876.00,1.18
5875.00,1.19
5874.00,1.19
5873.00,1.19
5872.00,1.20
5871.00,1.20
5870.00,1.20
5869.00,1.20
5868.00,1.21
5867.00,1.21
5866.00,1.21
5865.00,1.22
5864.00,1.22
5863.00,1.22
5862.00,1.22
5861.00,1.23
5860.00,1.23
5859.00,1.23
5858.00,1.23
5857.00,1.23
5856.00,1.24
5855.00,1.24
5854.00,1.24
5853.00,1.24
5852.00,1.24
5851.00,1.24
5850.00,1.24
5849.00,1.24
5848.00,1.24
5847.00,1.24
5846.00,1.24
5845.00,1.24
5844.00,1.25
5843.00,1.25
5842.00,1.25
5841.00,1.25
5840.00,1.25
5839.00,1.25
5838.00,1.25
5837.00,1.25
5836.00,1.25
5835.00,1.25
5834.00,1.25
5833.00,1.25
5832.00,1.25
5831.00,1.25
5830.00,1.25
5829.00,1.25
5828.00,1.25
5827.00,1.25
5826.00,1.25
5825.00,1.25
5824.00,1.25
5823.00,1.25
5822.00,1.25
5821.00,1.25
5820.00,1.25
5819.00,1.25
5818.00,1.25
5817.00,1.25
5816.00,1.25
5815.00,1.25
5814.00,1.25
5813.00,1.25
5812.00,1.25
5811.00,1.25
5810.00,1.25
5809.00,1.25
5808.00,1.25
5807.00,1.25
5806.00,1.25
5805.00,1.25
5804.00,1.25
5803.00,1.25
5802.00,1.24
5801.00,1.24
5800.00,1.24
5799.00,1.24
5798.00,1.24
5797.00,1.23
5796.00,1.23
5795.00,1.23
5794.00,1.23
5793.00,1.22
5792.00,1.22
5791.00,1.22
5790.00,1.22
5789.00,1.21
5788.00,1.21
5787.00,1.21
5786.00,1.20
5785.00,1.20
5784.00,1.20
5783.00,1.20
5782.00,1.20
5781.00,1.19
5780.00,1.19
5779.00,1.19
5778.00,1.19
5777.00,1.19
5776.00,1.19
5775.00,1.19
5774.00,1.19
5773.00,1.19
5772.00,1.19
5771.00,1.19
5770.00,1.19
5769.00,1.19
5768.00,1.19
5767.00,1.19
5766.00,1.19
5765.00,1.20
5764.00,1.20
5763.00,1.20
5762.00,1.20
5761.00,1.21
5760.00,1.21
5759.00,1.21
5758.00,1.22
5757.00,1.22
5756.00,1.22
5755.00,1.23
5754.00,1.23
5753.00,1.24
5752.00,1.24
5751.00,1.25
5750.00,1.25
5749.00,1.26
5748.00,1.26
5747.00,1.27
5746.00,1.27
5745.00,1.28
5744.00,1.28
5743.00,1.29
5742.00,1.29
5741.00,1.30
5740.00,1.30
5739.00,1.31
5738.00,1.31
5737.00,1.31
5736.00,1.32
5735.00,1.32
5734.00,1.32
5733.00,1.33
5732.00,1.33
5731.00,1.33
5730.00,1.33
5729.00,1.34
5728.00,1.34
5727.00,1.34
5726.00,1.34
5725.00,1.34
5724.00,1.34
5723.00,1.35
5722.00,1.35
5721.00,1.35
5720.00,1.35
5719.00,1.35
5718.00,1.35
5717.00,1.35
5716.00,1.35
5715.00,1.35
5714.00,1.35
5713.00,1.36
5712.00,1.36
5711.00,1.36
5710.00,1.36
5709.00,1.35
5708.00,1.35
5707.00,1.35
5706.00,1.35
5705.00,1.35
5704.00,1.35
5703.00,1.35
5702.00,1.35
5701.00,1.35
5700.00,1.35
5699.00,1.35
5698.00,1.34
5697.00,1.34
5696.00,1.34
5695.00,1.34
5694.00,1.34
5693.00,1.34
5692.00,1.34
5691.00,1.33
5690.00,1.33
5689.00,1.33
5688.00,1.33
5687.00,1.33
5686.00,1.33
5685.00,1.32
5684.00,1.32
5683.00,1.32
5682.00,1.32
5681.00,1.32
5680.00,1.32
5679.00,1.32
5678.00,1.31
5677.00,1.31
5676.00,1.31
5675.00,1.31
5674.00,1.31
5673.00,1.31
5672.00,1.31
5671.00,1.31
5670.00,1.32
5669.00,1.32
5668.00,1.32
5667.00,1.32
5666.00,1.32
5665.00,1.32
5664.00,1.32
5663.00,1.33
5662.00,1.33
5661.00,1.33
5660.00,1.33
5659.00,1.34
5658.00,1.34
5657.00,1.34
5656.00,1.34
5655.00,1.35
5654.00,1.35
5653.00,1.35
5652.00,1.35
5651.00,1.36
5650.00,1.36
5649.00,1.36
5648.00,1.37
5647.00,1.37
5646.00,1.37
5645.00,1.38
5644.00,1.38
5643.00,1.38
5642.00,1.38
5641.00,1.39
5640.00,1.39
5639.00,1.39
5638.00,1.40
5637.00,1.40
5636.00,1.40
5635.00,1.40
5634.00,1.41
5633.00,1.41
5632.00,1.41
5631.00,1.42
5630.00,1.42
5629.00,1.42
5628.00,1.42
5627.00,1.43
5626.00,1.43
5625.00,1.43
5624.00,1.43
5623.00,1.43
5622.00,1.44
5621.00,1.44
5620.00,1.44
5619.00,1.44
5618.00,1.45
5617.00,1.45
5616.00,1.45
5615.00,1.45
5614.00,1.45
5613.00,1.46
5612.00,1.46
5611.00,1.46
5610.00,1.46
5609.00,1.47
5608.00,1.47
5607.00,1.47
5606.00,1.47
5605.00,1.48
5604.00,1.48
5603.00,1.48
5602.00,1.48
5601.00,1.49
5600.00,1.49
5599.00,1.49
5598.00,1.49
5597.00,1.49
5596.00,1.50
5595.00,1.50
5594.00,1.50
5593.00,1.50
5592.00,1.51
5591.00,1.51
5590.00,1.51
5589.00,1.51
5588.00,1.52
5587.00,1.52
5586.00,1.52
5585.00,1.52
5584.00,1.52
5583.00,1.53
5582.00,1.53
5581.00,1.53
5580.00,1.53
5579.00,1.53
5578.00,1.54
5577.00,1.54
5576.00,1.54
5575.00,1.54
5574.00,1.54
5573.00,1.55
5572.00,1.55
5571.00,1.55
5570.00,1.55
5569.00,1.56
5568.00,1.56
5567.00,1.56
5566.00,1.56
5565.00,1.56
5564.00,1.57
5563.00,1.57
5562.00,1.57
5561.00,1.57
5560.00,1.57
5559.00,1.57
5558.00,1.57
5557.00,1.58
5556.00,1.58
5555.00,1.58
5554.00,1.58
5553.00,1.58
5552.00,1.58
5551.00,1.58
5550.00,1.59
5549.00,1.59
5548.00,1.59
5547.00,1.59
5546.00,1.59
5545.00,1.59
5544.00,1.60
5543.00,1.60
5542.00,1.60
5541.00,1.60
5540.00,1.60
5539.00,1.60
5538.00,1.60
5537.00,1.61
5536.00,1.61
5535.00,1.61
5534.00,1.61
5533.00,1.61
5532.00,1.61
5531.00,1.62
5530.00,1.62
5529.00,1.62
5528.00,1.62
5527.00,1.62
5526.00,1.62
5525.00,1.63
5524.00,1.63
5523.00,1.63
5522.00,1.63
5521.00,1.63
5520.00,1.63
5519.00,1.63
5518.00,1.63
5517.00,1.63
5516.00,1.63
5515.00,1.63
5514.00,1.63
5513.00,1.63
5512.00,1.63
5511.00,1.64
5510.00,1.64
5509.00,1.64
5508.00,1.64
5507.00,1.64
5506.00,1.64
5505.00,1.64
5504.00,1.64
5503.00,1.64
5502.00,1.64
5501.00,1.64
5500.00,1.64
5499.00,1.64
5498.00,1.64
5497.00,1.64
5496.00,1.64
5495.00,1.65
5494.00,1.65
5493.00,1.65
5492.00,1.65
5491.00,1.65
5490.00,1.65
5489.00,1.66
5488.00,1.66
5487.00,1.66
5486.00,1.66
5485.00,1.66
5484.00,1.66
5483.00,1.66
5482.00,1.67
5481.00,1.67
5480.00,1.67
5479.00,1.67
5478.00,1.67
5477.00,1.67
5476.00,1.67
5475.00,1.68
5474.00,1.68
5473.00,1.68
5472.00,1.68
5471.00,1.68
5470.00,1.68
5469.00,1.68
5468.00,1.69
5467.00,1.69
5466.00,1.69
5465.00,1.69
5464.00,1.69
5463.00,1.69
5462.00,1.69
5461.00,1.69
5460.00,1.70
5459.00,1.70
5458.00,1.70
5457.00,1.70
5456.00,1.70
5455.00,1.70
5454.00,1.70
5453.00,1.71
5452.00,1.71
5451.00,1.71
5450.00,1.71
5449.00,1.71
5448.00,1.71
5447.00,1.71
5446.00,1.71
5445.00,1.72
5444.00,1.72
5443.00,1.72
5442.00,1.72
5441.00,1.72
5440.00,1.72
5439.00,1.72
5438.00,1.72
5437.00,1.72
5436.00,1.72
5435.00,1.72
5434.00,1.72
5433.00,1.72
5432.00,1.72
5431.00,1.72
5430.00,1.72
5429.00,1.72
5428.00,1.72
5427.00,1.72
5426.00,1.72
5425.00,1.72
5424.00,1.72
5423.00,1.72
5422.00,1.72
5421.00,1.72
5420.00,1.72
5419.00,1.72
5418.00,1.72
5417.00,1.72
5416.00,1.72
5415.00,1.72
5414.00,1.72
5413.00,1.72
5412.00,1.72
5411.00,1.72
5410.00,1.72
5409.00,1.72
5408.00,1.72
5407.00,1.72
5406.00,1.72
5405.00,1.72
5404.00,1.72
5403.00,1.72
5402.00,1.72
5401.00,1.72
5400.00,1.72
5399.00,1.72
5398.00,1.72
5397.00,1.72
5396.00,1.72
5395.00,1.72
5394.00,1.72
5393.00,1.72
5392.00,1.72
5391.00,1.72
5390.00,1.72
5389.00,1.71
5388.00,1.71
5387.00,1.71
5386.00,1.71
5385.00,1.71
5384.00,1.71
5383.00,1.70
5382.00,1.70
5381.00,1.70
5380.00,1.69
5379.00,1.69
5378.00,1.69
5377.00,1.68
5376.00,1.68
5375.00,1.68
5374.00,1.67
5373.00,1.67
5372.00,1.66
5371.00,1.66
5370.00,1.65
5369.00,1.65
5368.00,1.64
5367.00,1.64
5366.00,1.63
5365.00,1.62
5364.00,1.62
5363.00,1.61
5362.00,1.60
5361.00,1.60
5360.00,1.59
5359.00,1.58
5358.00,1.57
5357.00,1.57
5356.00,1.56
5355.00,1.55
5354.00,1.54
5353.00,1.53
5352.00,1.52
5351.00,1.51
5350.00,1.50
5349.00,1.49
5348.00,1.48
5347.00,1.47
5346.00,1.46
5345.00,1.45
5344.00,1.43
5343.00,1.42
5342.00,1.41
5341.00,1.40
5340.00,1.39
5339.00,1.37
5338.00,1.36
5337.00,1.35
5336.00,1.33
5335.00,1.32
5334.00,1.30
5333.00,1.29
5332.00,1.28
5331.00,1.26
5330.00,1.25
5329.00,1.23
5328.00,1.22
5327.00,1.20
5326.00,1.18
5325.00,1.17
5324.00,1.15
5323.00,1.14
5322.00,1.12
5321.00,1.11
5320.00,1.09
5319.00,1.08
5318.00,1.06
5317.00,1.05
5316.00,1.03
5315.00,1.02
5314.00,1.00
5313.00,0.99
5312.00,0.98
5311.00,0.96
5310.00,0.95
5309.00,0.94
5308.00,0.93
5307.00,0.91
5306.00,0.90
5305.00,0.89
5304.00,0.88
5303.00,0.87
5302.00,0.86
5301.00,0.85
5300.00,0.85
5299.00,0.84
5298.00,0.83
5297.00,0.82
5296.00,0.82
5295.00,0.81
5294.00,0.80
5293.00,0.80
5292.00,0.79
5291.00,0.79
5290.00,0.78
5289.00,0.78
5288.00,0.77
5287.00,0.77
5286.00,0.76
5285.00,0.76
5284.00,0.76
5283.00,0.75
5282.00,0.75
5281.00,0.75
5280.00,0.74
5279.00,0.74
5278.00,0.74
5277.00,0.74
5276.00,0.73
5275.00,0.73
5274.00,0.73
5273.00,0.73
5272.00,0.72
5271.00,0.72
5270.00,0.72
5269.00,0.72
5268.00,0.72
5267.00,0.71
5266.00,0.71
5265.00,0.71
5264.00,0.71
5263.00,0.71
5262.00,0.71
5261.00,0.71
5260.00,0.71
5259.00,0.70
5258.00,0.70
5257.00,0.70
5256.00,0.70
5255.00,0.70
5254.00,0.70
5253.00,0.70
5252.00,0.70
5251.00,0.70
5250.00,0.70
5249.00,0.70
5248.00,0.70
5247.00,0.70
5246.00,0.70
5245.00,0.69
5244.00,0.69
5243.00,0.69
5242.00,0.69
5241.00,0.69
5240.00,0.69
5239.00,0.69
5238.00,0.69
5237.00,0.69
5236.00,0.69
5235.00,0.69
5234.00,0.69
5233.00,0.69
5232.00,0.69
5231.00,0.69
5230.00,0.69
5229.00,0.69
5228.00,0.69
5227.00,0.69
5226.00,0.69
5225.00,0.69
5224.00,0.69
5223.00,0.69
5222.00,0.69
5221.00,0.69
5220.00,0.69
5219.00,0.69
5218.00,0.69
5217.00,0.69
5216.00,0.69
5215.00,0.69
5214.00,0.69
5213.00,0.69
5212.00,0.69
5211.00,0.69
5210.00,0.69
5209.00,0.69
5208.00,0.69
5207.00,0.70
5206.00,0.70
5205.00,0.70
5204.00,0.70
5203.00,0.70
5202.00,0.70
5201.00,0.70
5200.00,0.70
5199.00,0.70
5198.00,0.70
5197.00,0.70
5196.00,0.70
5195.00,0.70
5194.00,0.70
5193.00,0.70
5192.00,0.70
5191.00,0.71
5190.00,0.71
5189.00,0.71
5188.00,0.71
5187.00,0.71
5186.00,0.71
5185.00,0.71
5184.00,0.71
5183.00,0.71
5182.00,0.71
5181.00,0.71
5180.00,0.71
5179.00,0.71
5178.00,0.71
5177.00,0.71
5176.00,0.71
5175.00,0.71
5174.00,0.71
5173.00,0.71
5172.00,0.71
5171.00,0.71
5170.00,0.71
5169.00,0.72
5168.00,0.72
5167.00,0.72
5166.00,0.72
5165.00,0.72
5164.00,0.72
5163.00,0.72
5162.00,0.72
5161.00,0.72
5160.00,0.72
5159.00,0.72
5158.00,0.72
5157.00,0.72
5156.00,0.72
5155.00,0.72
5154.00,0.73
5153.00,0.73
5152.00,0.73
5151.00,0.73
5150.00,0.73
5149.00,0.73
5148.00,0.73
5147.00,0.73
5146.00,0.73
5145.00,0.73
5144.00,0.73
5143.00,0.73
5142.00,0.73
5141.00,0.73
5140.00,0.74
5139.00,0.74
5138.00,0.74
5137.00,0.74
5136.00,0.74
5135.00,0.74
5134.00,0.74
5133.00,0.74
5132.00,0.74
5131.00,0.74
5130.00,0.74
5129.00,0.75
5128.00,0.75
5127.00,0.75
5126.00,0.75
5125.00,0.75
5124.00,0.75
5123.00,0.75
5122.00,0.75
5121.00,0.75
5120.00,0.76
5119.00,0.76
5118.00,0.76
5117.00,0.76
5116.00,0.76
5115.00,0.76
5114.00,0.76
5113.00,0.76
5112.00,0.76
5111.00,0.76
5110.00,0.76
5109.00,0.76
5108.00,0.76
5107.00,0.76
5106.00,0.76
5105.00,0.76
5104.00,0.76
5103.00,0.77
5102.00,0.77
5101.00,0.77
5100.00,0.77
5099.00,0.77
5098.00,0.77
5097.00,0.77
5096.00,0.77
5095.00,0.77
5094.00,0.77
5093.00,0.77
5092.00,0.77
5091.00,0.78
5090.00,0.78
5089.00,0.78
5088.00,0.78
5087.00,0.78
5086.00,0.78
5085.00,0.78
5084.00,0.78
5083.00,0.78
5082.00,0.78
5081.00,0.79
5080.00,0.79
5079.00,0.79
5078.00,0.79
5077.00,0.79
5076.00,0.79
5075.00,0.79
5074.00,0.79
5073.00,0.80
5072.00,0.80
5071.00,0.80
5070.00,0.80
5069.00,0.80
5068.00,0.80
5067.00,0.80
5066.00,0.80
5065.00,0.81
5064.00,0.81
5063.00,0.81
5062.00,0.81
5061.00,0.81
5060.00,0.81
5059.00,0.81
5058.00,0.81
5057.00,0.81
5056.00,0.82
5055.00,0.82
5054.00,0.82
5053.00,0.82
5052.00,0.82
5051.00,0.82
5050.00,0.82
5049.00,0.82
5048.00,0.82
5047.00,0.82
5046.00,0.83
5045.00,0.83
5044.00,0.83
5043.00,0.83
5042.00,0.83
5041.00,0.83
5040.00,0.84
5039.00,0.84
5038.00,0.84
5037.00,0.84
5036.00,0.84
5035.00,0.84
5034.00,0.85
5033.00,0.85
5032.00,0.85
5031.00,0.85
5030.00,0.85
5029.00,0.85
5028.00,0.85
5027.00,0.86
5026.00,0.86
5025.00,0.86
5024.00,0.86
5023.00,0.86
5022.00,0.86
5021.00,0.86
5020.00,0.86
5019.00,0.87
5018.00,0.87
5017.00,0.87
5016.00,0.87
5015.00,0.87
5014.00,0.87
5013.00,0.88
5012.00,0.88
5011.00,0.88
5010.00,0.88
5009.00,0.88
5008.00,0.88
5007.00,0.89
5006.00,0.89
5005.00,0.89
5004.00,0.89
5003.00,0.89
5002.00,0.90
5001.00,0.90
5000.00,0.90
4999.00,0.90
4998.00,0.90
4997.00,0.90
4996.00,0.91
4995.00,0.91
4994.00,0.91
4993.00,0.91
4992.00,0.91
4991.00,0.91
4990.00,0.91
4989.00,0.91
4988.00,0.92
4987.00,0.92
4986.00,0.92
4985.00,0.92
4984.00,0.92
4983.00,0.92
4982.00,0.93
4981.00,0.93
4980.00,0.93
4979.00,0.93
4978.00,0.93
4977.00,0.93
4976.00,0.94
4975.00,0.94
4974.00,0.94
4973.00,0.94
4972.00,0.95
4971.00,0.95
4970.00,0.95
4969.00,0.95
4968.00,0.95
4967.00,0.96
4966.00,0.96
4965.00,0.96
4964.00,0.96
4963.00,0.96
4962.00,0.97
4961.00,0.97
4960.00,0.97
4959.00,0.97
4958.00,0.97
4957.00,0.97
4956.00,0.97
4955.00,0.98
4954.00,0.98
4953.00,0.98
4952.00,0.98
4951.00,0.98
4950.00,0.98
4949.00,0.98
4948.00,0.98
4947.00,0.98
4946.00,0.99
4945.00,0.99
4944.00,0.99
4943.00,0.99
4942.00,0.99
4941.00,0.99
4940.00,0.99
4939.00,0.99
4938.00,0.99
4937.00,0.99
4936.00,0.99
4935.00,1.00
4934.00,1.00
4933.00,1.00
4932.00,1.00
4931.00,1.00
4930.00,1.00
4929.00,1.00
4928.00,1.00
4927.00,1.00
4926.00,1.01
4925.00,1.01
4924.00,1.01
4923.00,1.01
4922.00,1.01
4921.00,1.01
4920.00,1.01
4919.00,1.01
4918.00,1.01
4917.00,1.01
4916.00,1.01
4915.00,1.01
4914.00,1.02
4913.00,1.02
4912.00,1.02
4911.00,1.02
4910.00,1.02
4909.00,1.02
4908.00,1.02
4907.00,1.02
4906.00,1.02
4905.00,1.02
4904.00,1.02
4903.00,1.02
4902.00,1.02
4901.00,1.02
4900.00,1.02
4899.00,1.03
4898.00,1.03
4897.00,1.03
4896.00,1.03
4895.00,1.03
4894.00,1.03
4893.00,1.03
4892.00,1.03
4891.00,1.03
4890.00,1.03
4889.00,1.03
4888.00,1.03
4887.00,1.03
4886.00,1.03
4885.00,1.03
4884.00,1.03
4883.00,1.03
4882.00,1.03
4881.00,1.03
4880.00,1.03
4879.00,1.03
4878.00,1.03
4877.00,1.04
4876.00,1.04
4875.00,1.04
4874.00,1.04
4873.00,1.04
4872.00,1.04
4871.00,1.04
4870.00,1.04
4869.00,1.04
4868.00,1.04
4867.00,1.04
4866.00,1.04
4865.00,1.04
4864.00,1.04
4863.00,1.04
4862.00,1.04
4861.00,1.04
4860.00,1.05
4859.00,1.05
4858.00,1.05
4857.00,1.05
4856.00,1.05
4855.00,1.05
4854.00,1.05
4853.00,1.05
4852.00,1.05
4851.00,1.05
4850.00,1.05
4849.00,1.05
4848.00,1.06
4847.00,1.06
4846.00,1.06
4845.00,1.06
4844.00,1.06
4843.00,1.06
4842.00,1.06
4841.00,1.06
4840.00,1.06
4839.00,1.06
4838.00,1.06
4837.00,1.06
4836.00,1.06
4835.00,1.06
4834.00,1.07
4833.00,1.07
4832.00,1.07
4831.00,1.07
4830.00,1.07
4829.00,1.07
4828.00,1.08
4827.00,1.08
4826.00,1.08
4825.00,1.08
4824.00,1.08
4823.00,1.09
4822.00,1.09
4821.00,1.09
4820.00,1.09
4819.00,1.09
4818.00,1.09
4817.00,1.10
4816.00,1.10
4815.00,1.10
4814.00,1.10
4813.00,1.10
4812.00,1.10
4811.00,1.10
4810.00,1.10
4809.00,1.11
4808.00,1.11
4807.00,1.11
4806.00,1.11
4805.00,1.11
4804.00,1.11
4803.00,1.11
4802.00,1.12
4801.00,1.12
4800.00,1.12
4799.00,1.12
4798.00,1.12
4797.00,1.12
4796.00,1.12
4795.00,1.13
4794.00,1.13
4793.00,1.13
4792.00,1.13
4791.00,1.13
4790.00,1.14
4789.00,1.14
4788.00,1.14
4787.00,1.14
4786.00,1.14
4785.00,1.14
4784.00,1.15
4783.00,1.15
4782.00,1.15
4781.00,1.15
4780.00,1.15
4779.00,1.15
4778.00,1.16
4777.00,1.16
4776.00,1.16
4775.00,1.16
4774.00,1.16
4773.00,1.17
4772.00,1.17
4771.00,1.17
4770.00,1.17
4769.00,1.17
4768.00,1.18
4767.00,1.18
4766.00,1.18
4765.00,1.18
4764.00,1.18
4763.00,1.19
4762.00,1.19
4761.00,1.19
4760.00,1.19
4759.00,1.20
4758.00,1.20
4757.00,1.20
4756.00,1.21
4755.00,1.21
4754.00,1.21
4753.00,1.21
4752.00,1.22
4751.00,1.22
4750.00,1.22
4749.00,1.22
4748.00,1.23
4747.00,1.23
4746.00,1.23
4745.00,1.24
4744.00,1.24
4743.00,1.24
4742.00,1.24
4741.00,1.25
4740.00,1.25
4739.00,1.25
4738.00,1.26
4737.00,1.26
4736.00,1.26
4735.00,1.26
4734.00,1.27
4733.00,1.27
4732.00,1.27
4731.00,1.28
4730.00,1.28
4729.00,1.28
4728.00,1.29
4727.00,1.29
4726.00,1.29
4725.00,1.30
4724.00,1.30
4723.00,1.30
4722.00,1.31
4721.00,1.31
4720.00,1.31
4719.00,1.32
4718.00,1.32
4717.00,1.32
4716.00,1.32
4715.00,1.32
4714.00,1.33
4713.00,1.33
4712.00,1.33
4711.00,1.33
4710.00,1.33
4709.00,1.34
4708.00,1.34
4707.00,1.34
4706.00,1.34
4705.00,1.35
4704.00,1.35
4703.00,1.35
4702.00,1.36
4701.00,1.36
4700.00,1.36
4699.00,1.37
4698.00,1.37
4697.00,1.37
4696.00,1.38
4695.00,1.38
4694.00,1.38
4693.00,1.39
4692.00,1.39
4691.00,1.39
4690.00,1.39
4689.00,1.40
4688.00,1.40
4687.00,1.40
4686.00,1.40
4685.00,1.41
4684.00,1.41
4683.00,1.41
4682.00,1.41
4681.00,1.42
4680.00,1.42
4679.00,1.42
4678.00,1.42
4677.00,1.43
4676.00,1.43
4675.00,1.43
4674.00,1.44
4673.00,1.44
4672.00,1.44
4671.00,1.45
4670.00,1.45
4669.00,1.45
4668.00,1.45
4667.00,1.46
4666.00,1.46
4665.00,1.46
4664.00,1.47
4663.00,1.47
4662.00,1.47
4661.00,1.48
4660.00,1.48
4659.00,1.48
4658.00,1.48
4657.00,1.48
4656.00,1.49
4655.00,1.49
4654.00,1.49
4653.00,1.49
4652.00,1.49
4651.00,1.50
4650.00,1.50
4649.00,1.50
4648.00,1.50
4647.00,1.50
4646.00,1.50
4645.00,1.50
4644.00,1.51
4643.00,1.51
4642.00,1.51
4641.00,1.51
4640.00,1.51
4639.00,1.52
4638.00,1.52
4637.00,1.52
4636.00,1.52
4635.00,1.53
4634.00,1.53
4633.00,1.53
4632.00,1.53
4631.00,1.53
4630.00,1.54
4629.00,1.54
4628.00,1.54
4627.00,1.54
4626.00,1.54
4625.00,1.55
4624.00,1.55
4623.00,1.55
4622.00,1.55
4621.00,1.55
4620.00,1.55
4619.00,1.55
4618.00,1.55
4617.00,1.56
4616.00,1.56
4615.00,1.56
4614.00,1.56
4613.00,1.56
4612.00,1.56
4611.00,1.57
4610.00,1.57
4609.00,1.57
4608.00,1.57
4607.00,1.57
4606.00,1.57
4605.00,1.58
4604.00,1.58
4603.00,1.58
4602.00,1.58
4601.00,1.58
4600.00,1.58
4599.00,1.58
4598.00,1.58
4597.00,1.59
4596.00,1.59
4595.00,1.59
4594.00,1.59
4593.00,1.59
4592.00,1.59
4591.00,1.59
4590.00,1.60
4589.00,1.60
4588.00,1.60
4587.00,1.60
4586.00,1.60
4585.00,1.60
4584.00,1.61
4583.00,1.61
4582.00,1.61
4581.00,1.61
4580.00,1.61
4579.00,1.61
4578.00,1.62
4577.00,1.62
4576.00,1.62
4575.00,1.62
4574.00,1.62
4573.00,1.62
4572.00,1.63
4571.00,1.63
4570.00,1.63
4569.00,1.63
4568.00,1.63
4567.00,1.63
4566.00,1.64
4565.00,1.64
4564.00,1.64
4563.00,1.64
4562.00,1.64
4561.00,1.64
4560.00,1.65
4559.00,1.65
4558.00,1.65
4557.00,1.65
4556.00,1.65
4555.00,1.65
4554.00,1.66
4553.00,1.66
4552.00,1.66
4551.00,1.66
4550.00,1.66
4549.00,1.66
4548.00,1.66
4547.00,1.66
4546.00,1.67
4545.00,1.67
4544.00,1.67
4543.00,1.67
4542.00,1.67
4541.00,1.67
4540.00,1.67
4539.00,1.67
4538.00,1.67
4537.00,1.68
4536.00,1.68
4535.00,1.68
4534.00,1.68
4533.00,1.68
4532.00,1.68
4531.00,1.68
4530.00,1.68
4529.00,1.68
4528.00,1.68
4527.00,1.68
4526.00,1.68
4525.00,1.68
4524.00,1.68
4523.00,1.68
4522.00,1.68
4521.00,1.68
4520.00,1.68
4519.00,1.68
4518.00,1.69
4517.00,1.69
4516.00,1.69
4515.00,1.69
4514.00,1.69
4513.00,1.69
4512.00,1.69
4511.00,1.69
4510.00,1.69
4509.00,1.69
4508.00,1.69
4507.00,1.69
4506.00,1.69
4505.00,1.69
4504.00,1.69
4503.00,1.69
4502.00,1.68
4501.00,1.68
4500.00,1.68
4499.00,1.68
4498.00,1.68
4497.00,1.68
4496.00,1.67
4495.00,1.67
4494.00,1.67
4493.00,1.67
4492.00,1.66
4491.00,1.66
4490.00,1.66
4489.00,1.66
4488.00,1.65
4487.00,1.65
4486.00,1.65
4485.00,1.65
4484.00,1.64
4483.00,1.64
4482.00,1.64
4481.00,1.64
4480.00,1.63
4479.00,1.63
4478.00,1.63
4477.00,1.62
4476.00,1.62
4475.00,1.62
4474.00,1.61
4473.00,1.61
4472.00,1.60
4471.00,1.60
4470.00,1.59
4469.00,1.59
4468.00,1.58
4467.00,1.58
4466.00,1.57
4465.00,1.56
4464.00,1.56
4463.00,1.55
4462.00,1.55
4461.00,1.54
4460.00,1.53
4459.00,1.52
4458.00,1.52
4457.00,1.51
4456.00,1.50
4455.00,1.50
4454.00,1.49
4453.00,1.48
4452.00,1.47
4451.00,1.47
4450.00,1.46
4449.00,1.45
4448.00,1.44
4447.00,1.44
4446.00,1.43
4445.00,1.42
4444.00,1.41
4443.00,1.40
4442.00,1.40
4441.00,1.39
4440.00,1.38
4439.00,1.38
4438.00,1.37
4437.00,1.36
4436.00,1.35
4435.00,1.35
4434.00,1.34
4433.00,1.34
4432.00,1.33
4431.00,1.32
4430.00,1.32
4429.00,1.31
4428.00,1.31
4427.00,1.31
4426.00,1.30
4425.00,1.30
4424.00,1.30
4423.00,1.29
4422.00,1.29
4421.00,1.29
4420.00,1.29
4419.00,1.29
4418.00,1.29
4417.00,1.29
4416.00,1.28
4415.00,1.28
4414.00,1.28
4413.00,1.28
4412.00,1.28
4411.00,1.28
4410.00,1.28
4409.00,1.28
4408.00,1.28
4407.00,1.28
4406.00,1.28
4405.00,1.28
4404.00,1.28
4403.00,1.29
4402.00,1.29
4401.00,1.29
4400.00,1.29
4399.00,1.29
4398.00,1.29
4397.00,1.29
4396.00,1.30
4395.00,1.30
4394.00,1.30
4393.00,1.30
4392.00,1.30
4391.00,1.30
4390.00,1.31
4389.00,1.31
4388.00,1.31
4387.00,1.31
4386.00,1.31
4385.00,1.32
4384.00,1.32
4383.00,1.32
4382.00,1.32
4381.00,1.33
4380.00,1.33
4379.00,1.33
4378.00,1.33
4377.00,1.33
4376.00,1.33
4375.00,1.34
4374.00,1.34
4373.00,1.34
4372.00,1.34
4371.00,1.34
4370.00,1.34
4369.00,1.34
4368.00,1.34
4367.00,1.35
4366.00,1.35
4365.00,1.35
4364.00,1.35
4363.00,1.35
4362.00,1.35
4361.00,1.35
4360.00,1.35
4359.00,1.35
4358.00,1.35
4357.00,1.35
4356.00,1.35
4355.00,1.34
4354.00,1.34
4353.00,1.34
4352.00,1.34
4351.00,1.34
4350.00,1.34
4349.00,1.34
4348.00,1.34
4347.00,1.34
4346.00,1.34
4345.00,1.34
4344.00,1.34
4343.00,1.34
4342.00,1.35
4341.00,1.35
4340.00,1.35
4339.00,1.35
4338.00,1.35
4337.00,1.35
4336.00,1.35
4335.00,1.35
4334.00,1.35
4333.00,1.36
4332.00,1.36
4331.00,1.36
4330.00,1.36
4329.00,1.36
4328.00,1.36
4327.00,1.37
4326.00,1.37
4325.00,1.37
4324.00,1.37
4323.00,1.38
4322.00,1.38
4321.00,1.38
4320.00,1.39
4319.00,1.39
4318.00,1.40
4317.00,1.40
4316.00,1.40
4315.00,1.41
4314.00,1.41
4313.00,1.41
4312.00,1.42
4311.00,1.42
4310.00,1.43
4309.00,1.43
4308.00,1.43
4307.00,1.44
4306.00,1.44
4305.00,1.44
4304.00,1.45
4303.00,1.45
4302.00,1.45
4301.00,1.46
4300.00,1.46
4299.00,1.47
4298.00,1.47
4297.00,1.47
4296.00,1.48
4295.00,1.48
4294.00,1.48
4293.00,1.48
4292.00,1.49
4291.00,1.49
4290.00,1.49
4289.00,1.49
4288.00,1.50
4287.00,1.50
4286.00,1.50
4285.00,1.50
4284.00,1.50
4283.00,1.50
4282.00,1.50
4281.00,1.50
4280.00,1.50
4279.00,1.50
4278.00,1.50
4277.00,1.50
4276.00,1.50
4275.00,1.50
4274.00,1.50
4273.00,1.50
4272.00,1.49
4271.00,1.49
4270.00,1.49
4269.00,1.49
4268.00,1.49
4267.00,1.49
4266.00,1.49
4265.00,1.48
4264.00,1.48
4263.00,1.48
4262.00,1.48
4261.00,1.48
4260.00,1.48
4259.00,1.48
4258.00,1.48
4257.00,1.48
4256.00,1.48
4255.00,1.48
4254.00,1.48
4253.00,1.48
4252.00,1.48
4251.00,1.48
4250.00,1.49
4249.00,1.49
4248.00,1.49
4247.00,1.49
4246.00,1.49
4245.00,1.50
4244.00,1.50
4243.00,1.50
4242.00,1.50
4241.00,1.51
4240.00,1.51
4239.00,1.51
4238.00,1.51
4237.00,1.52
4236.00,1.52
4235.00,1.52
4234.00,1.52
4233.00,1.53
4232.00,1.53
4231.00,1.53
4230.00,1.53
4229.00,1.54
4228.00,1.54
4227.00,1.54
4226.00,1.54
4225.00,1.54
4224.00,1.55
4223.00,1.55
4222.00,1.55
4221.00,1.55
4220.00,1.55
4219.00,1.55
4218.00,1.55
4217.00,1.56
4216.00,1.56
4215.00,1.56
4214.00,1.56
4213.00,1.56
4212.00,1.56
4211.00,1.56
4210.00,1.57
4209.00,1.57
4208.00,1.57
4207.00,1.57
4206.00,1.57
4205.00,1.57
4204.00,1.57
4203.00,1.57
4202.00,1.58
4201.00,1.58
4200.00,1.58
4199.00,1.58
4198.00,1.58
4197.00,1.58
4196.00,1.58
4195.00,1.58
4194.00,1.58
4193.00,1.58
4192.00,1.58
4191.00,1.58
4190.00,1.58
4189.00,1.58
4188.00,1.58
4187.00,1.58
4186.00,1.58
4185.00,1.58
4184.00,1.58
4183.00,1.58
4182.00,1.58
4181.00,1.58
4180.00,1.58
4179.00,1.58
4178.00,1.58
4177.00,1.58
4176.00,1.58
4175.00,1.58
4174.00,1.58
4173.00,1.58
4172.00,1.58
4171.00,1.58
4170.00,1.58
4169.00,1.59
4168.00,1.59
4167.00,1.59
4166.00,1.59
4165.00,1.59
4164.00,1.59
4163.00,1.59
4162.00,1.59
4161.00,1.59
4160.00,1.59
4159.00,1.60
4158.00,1.60
4157.00,1.60
4156.00,1.60
4155.00,1.60
4154.00,1.60
4153.00,1.60
4152.00,1.60
4151.00,1.60
4150.00,1.60
4149.00,1.60
4148.00,1.60
4147.00,1.60
4146.00,1.60
4145.00,1.60
4144.00,1.60
4143.00,1.60
4142.00,1.60
4141.00,1.60
4140.00,1.60
4139.00,1.61
4138.00,1.61
4137.00,1.61
4136.00,1.61
4135.00,1.61
4134.00,1.61
4133.00,1.61
4132.00,1.61
4131.00,1.61
4130.00,1.61
4129.00,1.61
4128.00,1.61
4127.00,1.61
4126.00,1.62
4125.00,1.62
4124.00,1.62
4123.00,1.62
4122.00,1.62
4121.00,1.62
4120.00,1.62
4119.00,1.63
4118.00,1.63
4117.00,1.63
4116.00,1.63
4115.00,1.63
4114.00,1.63
4113.00,1.63
4112.00,1.63
4111.00,1.63
4110.00,1.63
4109.00,1.63
4108.00,1.63
4107.00,1.63
4106.00,1.63
4105.00,1.63
4104.00,1.63
4103.00,1.63
4102.00,1.63
4101.00,1.63
4100.00,1.63
4099.00,1.63
4098.00,1.64
4097.00,1.64
4096.00,1.64
4095.00,1.64
4094.00,1.64
4093.00,1.64
4092.00,1.64
4091.00,1.64
4090.00,1.64
4089.00,1.64
4088.00,1.64
4087.00,1.64
4086.00,1.64
4085.00,1.64
4084.00,1.64
4083.00,1.65
4082.00,1.65
4081.00,1.65
4080.00,1.65
4079.00,1.65
4078.00,1.65
4077.00,1.65
4076.00,1.65
4075.00,1.66
4074.00,1.66
4073.00,1.66
4072.00,1.66
4071.00,1.66
4070.00,1.66
4069.00,1.66
4068.00,1.66
4067.00,1.66
4066.00,1.66
4065.00,1.66
4064.00,1.66
4063.00,1.66
4062.00,1.66
4061.00,1.66
4060.00,1.66
4059.00,1.66
4058.00,1.66
4057.00,1.66
4056.00,1.66
4055.00,1.66
4054.00,1.67
4053.00,1.67
4052.00,1.67
4051.00,1.67
4050.00,1.67
4049.00,1.67
4048.00,1.68
4047.00,1.68
4046.00,1.68
4045.00,1.69
4044.00,1.69
4043.00,1.69
4042.00,1.70
4041.00,1.70
4040.00,1.70
4039.00,1.70
4038.00,1.71
4037.00,1.71
4036.00,1.71
4035.00,1.71
4034.00,1.71
4033.00,1.71
4032.00,1.71
4031.00,1.71
4030.00,1.71
4029.00,1.71
4028.00,1.71
4027.00,1.70
4026.00,1.70
4025.00,1.70
4024.00,1.70
4023.00,1.70
4022.00,1.70
4021.00,1.70
4020.00,1.70
4019.00,1.70
4018.00,1.70
4017.00,1.70
4016.00,1.70
4015.00,1.70
4014.00,1.70
4013.00,1.70
4012.00,1.70
4011.00,1.70
4010.00,1.71
4009.00,1.71
4008.00,1.71
4007.00,1.71
4006.00,1.71
4005.00,1.71
4004.00,1.72
4003.00,1.72
4002.00,1.72
4001.00,1.72
4000.00,1.72
