创建为新数据集,样品 139 用户 Administrator 日期 星期三, 十一月 08 2017
cm-1,%T
10000.00,1.24
9999.00,1.24
9998.00,1.24
9997.00,1.24
9996.00,1.24
9995.00,1.23
9994.00,1.23
9993.00,1.23
9992.00,1.23
9991.00,1.23
9990.00,1.23
9989.00,1.23
9988.00,1.23
9987.00,1.23
9986.00,1.23
9985.00,1.23
9984.00,1.23
9983.00,1.23
9982.00,1.23
9981.00,1.23
9980.00,1.23
9979.00,1.23
9978.00,1.23
9977.00,1.23
9976.00,1.23
9975.00,1.23
9974.00,1.23
9973.00,1.23
9972.00,1.23
9971.00,1.23
9970.00,1.23
9969.00,1.23
9968.00,1.23
9967.00,1.23
9966.00,1.23
9965.00,1.23
9964.00,1.23
9963.00,1.24
9962.00,1.24
9961.00,1.24
9960.00,1.24
9959.00,1.24
9958.00,1.24
9957.00,1.24
9956.00,1.24
9955.00,1.24
9954.00,1.24
9953.00,1.24
9952.00,1.23
9951.00,1.23
9950.00,1.23
9949.00,1.23
9948.00,1.23
9947.00,1.23
9946.00,1.23
9945.00,1.23
9944.00,1.24
9943.00,1.24
9942.00,1.24
9941.00,1.24
9940.00,1.24
9939.00,1.24
9938.00,1.24
9937.00,1.24
9936.00,1.24
9935.00,1.24
9934.00,1.24
9933.00,1.24
9932.00,1.24
9931.00,1.24
9930.00,1.24
9929.00,1.24
9928.00,1.24
9927.00,1.23
9926.00,1.23
9925.00,1.23
9924.00,1.23
9923.00,1.23
9922.00,1.22
9921.00,1.22
9920.00,1.22
9919.00,1.22
9918.00,1.22
9917.00,1.21
9916.00,1.21
9915.00,1.21
9914.00,1.21
9913.00,1.21
9912.00,1.21
9911.00,1.20
9910.00,1.20
9909.00,1.20
9908.00,1.20
9907.00,1.20
9906.00,1.20
9905.00,1.20
9904.00,1.20
9903.00,1.20
9902.00,1.20
9901.00,1.20
9900.00,1.20
9899.00,1.20
9898.00,1.20
9897.00,1.20
9896.00,1.20
9895.00,1.20
9894.00,1.20
9893.00,1.20
9892.00,1.20
9891.00,1.20
9890.00,1.21
9889.00,1.21
9888.00,1.21
9887.00,1.21
9886.00,1.21
9885.00,1.22
9884.00,1.22
9883.00,1.22
9882.00,1.22
9881.00,1.23
9880.00,1.23
9879.00,1.23
9878.00,1.23
9877.00,1.23
9876.00,1.24
9875.00,1.24
9874.00,1.24
9873.00,1.24
9872.00,1.24
9871.00,1.24
9870.00,1.24
9869.00,1.24
9868.00,1.24
9867.00,1.24
9866.00,1.24
9865.00,1.24
9864.00,1.24
9863.00,1.24
9862.00,1.24
9861.00,1.24
9860.00,1.24
9859.00,1.24
9858.00,1.24
9857.00,1.24
9856.00,1.24
9855.00,1.24
9854.00,1.24
9853.00,1.24
9852.00,1.24
9851.00,1.24
9850.00,1.24
9849.00,1.23
9848.00,1.23
9847.00,1.23
9846.00,1.23
9845.00,1.23
9844.00,1.23
9843.00,1.23
9842.00,1.22
9841.00,1.22
9840.00,1.22
9839.00,1.22
9838.00,1.22
9837.00,1.21
9836.00,1.21
9835.00,1.21
9834.00,1.21
9833.00,1.21
9832.00,1.21
9831.00,1.20
9830.00,1.20
9829.00,1.20
9828.00,1.20
9827.00,1.20
9826.00,1.20
9825.00,1.20
9824.00,1.20
9823.00,1.20
9822.00,1.20
9821.00,1.20
9820.00,1.20
9819.00,1.20
9818.00,1.20
9817.00,1.20
9816.00,1.20
9815.00,1.20
9814.00,1.20
9813.00,1.20
9812.00,1.20
9811.00,1.20
9810.00,1.20
9809.00,1.20
9808.00,1.20
9807.00,1.20
9806.00,1.20
9805.00,1.20
9804.00,1.20
9803.00,1.20
9802.00,1.20
9801.00,1.20
9800.00,1.20
9799.00,1.20
9798.00,1.20
9797.00,1.21
9796.00,1.21
9795.00,1.21
9794.00,1.21
9793.00,1.21
9792.00,1.21
9791.00,1.21
9790.00,1.21
9789.00,1.21
9788.00,1.21
9787.00,1.22
9786.00,1.22
9785.00,1.22
9784.00,1.22
9783.00,1.22
9782.00,1.22
9781.00,1.22
9780.00,1.22
9779.00,1.23
9778.00,1.23
9777.00,1.23
9776.00,1.23
9775.00,1.23
9774.00,1.22
9773.00,1.22
9772.00,1.22
9771.00,1.22
9770.00,1.22
9769.00,1.22
9768.00,1.21
9767.00,1.21
9766.00,1.21
9765.00,1.21
9764.00,1.21
9763.00,1.21
9762.00,1.20
9761.00,1.20
9760.00,1.20
9759.00,1.20
9758.00,1.20
9757.00,1.20
9756.00,1.20
9755.00,1.21
9754.00,1.21
9753.00,1.21
9752.00,1.21
9751.00,1.21
9750.00,1.21
9749.00,1.20
9748.00,1.20
9747.00,1.20
9746.00,1.20
9745.00,1.20
9744.00,1.20
9743.00,1.20
9742.00,1.20
9741.00,1.20
9740.00,1.20
9739.00,1.20
9738.00,1.20
9737.00,1.20
9736.00,1.20
9735.00,1.20
9734.00,1.20
9733.00,1.20
9732.00,1.20
9731.00,1.21
9730.00,1.21
9729.00,1.21
9728.00,1.21
9727.00,1.21
9726.00,1.21
9725.00,1.21
9724.00,1.21
9723.00,1.22
9722.00,1.22
9721.00,1.22
9720.00,1.22
9719.00,1.22
9718.00,1.22
9717.00,1.22
9716.00,1.22
9715.00,1.22
9714.00,1.22
9713.00,1.22
9712.00,1.22
9711.00,1.22
9710.00,1.23
9709.00,1.23
9708.00,1.23
9707.00,1.23
9706.00,1.23
9705.00,1.23
9704.00,1.23
9703.00,1.23
9702.00,1.23
9701.00,1.23
9700.00,1.23
9699.00,1.23
9698.00,1.23
9697.00,1.23
9696.00,1.23
9695.00,1.23
9694.00,1.23
9693.00,1.23
9692.00,1.22
9691.00,1.22
9690.00,1.22
9689.00,1.22
9688.00,1.21
9687.00,1.21
9686.00,1.21
9685.00,1.21
9684.00,1.20
9683.00,1.20
9682.00,1.20
9681.00,1.20
9680.00,1.20
9679.00,1.19
9678.00,1.19
9677.00,1.19
9676.00,1.19
9675.00,1.19
9674.00,1.19
9673.00,1.19
9672.00,1.19
9671.00,1.20
9670.00,1.20
9669.00,1.20
9668.00,1.20
9667.00,1.20
9666.00,1.20
9665.00,1.20
9664.00,1.20
9663.00,1.20
9662.00,1.21
9661.00,1.21
9660.00,1.21
9659.00,1.21
9658.00,1.21
9657.00,1.21
9656.00,1.21
9655.00,1.21
9654.00,1.21
9653.00,1.21
9652.00,1.21
9651.00,1.21
9650.00,1.21
9649.00,1.21
9648.00,1.21
9647.00,1.21
9646.00,1.21
9645.00,1.21
9644.00,1.21
9643.00,1.21
9642.00,1.21
9641.00,1.21
9640.00,1.21
9639.00,1.21
9638.00,1.21
9637.00,1.21
9636.00,1.21
9635.00,1.21
9634.00,1.22
9633.00,1.22
9632.00,1.22
9631.00,1.22
9630.00,1.22
9629.00,1.22
9628.00,1.22
9627.00,1.22
9626.00,1.22
9625.00,1.22
9624.00,1.22
9623.00,1.22
9622.00,1.22
9621.00,1.22
9620.00,1.22
9619.00,1.22
9618.00,1.22
9617.00,1.22
9616.00,1.22
9615.00,1.22
9614.00,1.22
9613.00,1.22
9612.00,1.22
9611.00,1.22
9610.00,1.22
9609.00,1.21
9608.00,1.21
9607.00,1.21
9606.00,1.21
9605.00,1.21
9604.00,1.21
9603.00,1.21
9602.00,1.21
9601.00,1.21
9600.00,1.20
9599.00,1.20
9598.00,1.20
9597.00,1.20
9596.00,1.20
9595.00,1.20
9594.00,1.20
9593.00,1.20
9592.00,1.20
9591.00,1.20
9590.00,1.20
9589.00,1.21
9588.00,1.21
9587.00,1.21
9586.00,1.21
9585.00,1.21
9584.00,1.21
9583.00,1.22
9582.00,1.22
9581.00,1.22
9580.00,1.22
9579.00,1.22
9578.00,1.22
9577.00,1.22
9576.00,1.22
9575.00,1.22
9574.00,1.22
9573.00,1.22
9572.00,1.22
9571.00,1.22
9570.00,1.22
9569.00,1.22
9568.00,1.21
9567.00,1.21
9566.00,1.21
9565.00,1.21
9564.00,1.21
9563.00,1.21
9562.00,1.21
9561.00,1.21
9560.00,1.21
9559.00,1.21
9558.00,1.21
9557.00,1.21
9556.00,1.21
9555.00,1.21
9554.00,1.21
9553.00,1.21
9552.00,1.21
9551.00,1.20
9550.00,1.20
9549.00,1.20
9548.00,1.20
9547.00,1.20
9546.00,1.20
9545.00,1.20
9544.00,1.20
9543.00,1.20
9542.00,1.20
9541.00,1.20
9540.00,1.20
9539.00,1.20
9538.00,1.20
9537.00,1.20
9536.00,1.20
9535.00,1.20
9534.00,1.20
9533.00,1.20
9532.00,1.21
9531.00,1.21
9530.00,1.21
9529.00,1.22
9528.00,1.22
9527.00,1.22
9526.00,1.23
9525.00,1.23
9524.00,1.23
9523.00,1.23
9522.00,1.24
9521.00,1.24
9520.00,1.24
9519.00,1.24
9518.00,1.24
9517.00,1.24
9516.00,1.24
9515.00,1.24
9514.00,1.24
9513.00,1.24
9512.00,1.24
9511.00,1.24
9510.00,1.24
9509.00,1.23
9508.00,1.23
9507.00,1.23
9506.00,1.23
9505.00,1.23
9504.00,1.23
9503.00,1.23
9502.00,1.23
9501.00,1.23
9500.00,1.23
9499.00,1.23
9498.00,1.23
9497.00,1.23
9496.00,1.23
9495.00,1.23
9494.00,1.23
9493.00,1.23
9492.00,1.22
9491.00,1.22
9490.00,1.22
9489.00,1.22
9488.00,1.22
9487.00,1.22
9486.00,1.22
9485.00,1.22
9484.00,1.22
9483.00,1.22
9482.00,1.22
9481.00,1.22
9480.00,1.22
9479.00,1.22
9478.00,1.22
9477.00,1.22
9476.00,1.22
9475.00,1.22
9474.00,1.22
9473.00,1.22
9472.00,1.22
9471.00,1.22
9470.00,1.22
9469.00,1.22
9468.00,1.22
9467.00,1.22
9466.00,1.22
9465.00,1.22
9464.00,1.22
9463.00,1.22
9462.00,1.22
9461.00,1.21
9460.00,1.21
9459.00,1.21
9458.00,1.22
9457.00,1.22
9456.00,1.22
9455.00,1.22
9454.00,1.22
9453.00,1.22
9452.00,1.22
9451.00,1.22
9450.00,1.22
9449.00,1.22
9448.00,1.22
9447.00,1.22
9446.00,1.22
9445.00,1.22
9444.00,1.22
9443.00,1.22
9442.00,1.22
9441.00,1.21
9440.00,1.21
9439.00,1.21
9438.00,1.21
9437.00,1.21
9436.00,1.21
9435.00,1.21
9434.00,1.21
9433.00,1.21
9432.00,1.21
9431.00,1.21
9430.00,1.21
9429.00,1.21
9428.00,1.21
9427.00,1.21
9426.00,1.21
9425.00,1.22
9424.00,1.22
9423.00,1.22
9422.00,1.22
9421.00,1.22
9420.00,1.22
9419.00,1.22
9418.00,1.22
9417.00,1.22
9416.00,1.22
9415.00,1.22
9414.00,1.22
9413.00,1.22
9412.00,1.22
9411.00,1.22
9410.00,1.22
9409.00,1.22
9408.00,1.22
9407.00,1.22
9406.00,1.22
9405.00,1.22
9404.00,1.22
9403.00,1.22
9402.00,1.22
9401.00,1.22
9400.00,1.22
9399.00,1.21
9398.00,1.21
9397.00,1.21
9396.00,1.21
9395.00,1.21
9394.00,1.21
9393.00,1.21
9392.00,1.21
9391.00,1.22
9390.00,1.22
9389.00,1.22
9388.00,1.22
9387.00,1.22
9386.00,1.22
9385.00,1.22
9384.00,1.22
9383.00,1.22
9382.00,1.22
9381.00,1.22
9380.00,1.22
9379.00,1.22
9378.00,1.22
9377.00,1.22
9376.00,1.22
9375.00,1.22
9374.00,1.22
9373.00,1.22
9372.00,1.22
9371.00,1.22
9370.00,1.21
9369.00,1.21
9368.00,1.21
9367.00,1.21
9366.00,1.21
9365.00,1.21
9364.00,1.21
9363.00,1.21
9362.00,1.21
9361.00,1.21
9360.00,1.21
9359.00,1.21
9358.00,1.21
9357.00,1.21
9356.00,1.21
9355.00,1.21
9354.00,1.21
9353.00,1.22
9352.00,1.22
9351.00,1.22
9350.00,1.22
9349.00,1.22
9348.00,1.22
9347.00,1.22
9346.00,1.22
9345.00,1.22
9344.00,1.22
9343.00,1.22
9342.00,1.22
9341.00,1.23
9340.00,1.23
9339.00,1.23
9338.00,1.23
9337.00,1.23
9336.00,1.23
9335.00,1.23
9334.00,1.23
9333.00,1.23
9332.00,1.23
9331.00,1.23
9330.00,1.23
9329.00,1.23
9328.00,1.23
9327.00,1.23
9326.00,1.23
9325.00,1.23
9324.00,1.23
9323.00,1.23
9322.00,1.22
9321.00,1.22
9320.00,1.22
9319.00,1.22
9318.00,1.22
9317.00,1.22
9316.00,1.22
9315.00,1.22
9314.00,1.22
9313.00,1.22
9312.00,1.22
9311.00,1.22
9310.00,1.22
9309.00,1.22
9308.00,1.22
9307.00,1.22
9306.00,1.22
9305.00,1.22
9304.00,1.22
9303.00,1.22
9302.00,1.22
9301.00,1.22
9300.00,1.22
9299.00,1.22
9298.00,1.22
9297.00,1.22
9296.00,1.22
9295.00,1.22
9294.00,1.22
9293.00,1.22
9292.00,1.22
9291.00,1.22
9290.00,1.22
9289.00,1.21
9288.00,1.21
9287.00,1.21
9286.00,1.21
9285.00,1.21
9284.00,1.21
9283.00,1.21
9282.00,1.21
9281.00,1.21
9280.00,1.22
9279.00,1.22
9278.00,1.22
9277.00,1.22
9276.00,1.22
9275.00,1.22
9274.00,1.22
9273.00,1.22
9272.00,1.22
9271.00,1.22
9270.00,1.22
9269.00,1.22
9268.00,1.22
9267.00,1.22
9266.00,1.22
9265.00,1.22
9264.00,1.22
9263.00,1.22
9262.00,1.22
9261.00,1.22
9260.00,1.22
9259.00,1.22
9258.00,1.22
9257.00,1.22
9256.00,1.23
9255.00,1.23
9254.00,1.23
9253.00,1.23
9252.00,1.23
9251.00,1.23
9250.00,1.23
9249.00,1.23
9248.00,1.23
9247.00,1.23
9246.00,1.23
9245.00,1.23
9244.00,1.23
9243.00,1.23
9242.00,1.23
9241.00,1.22
9240.00,1.22
9239.00,1.22
9238.00,1.22
9237.00,1.22
9236.00,1.22
9235.00,1.23
9234.00,1.23
9233.00,1.23
9232.00,1.23
9231.00,1.23
9230.00,1.23
9229.00,1.23
9228.00,1.23
9227.00,1.23
9226.00,1.23
9225.00,1.24
9224.00,1.24
9223.00,1.24
9222.00,1.24
9221.00,1.23
9220.00,1.23
9219.00,1.23
9218.00,1.23
9217.00,1.23
9216.00,1.23
9215.00,1.23
9214.00,1.23
9213.00,1.23
9212.00,1.23
9211.00,1.23
9210.00,1.23
9209.00,1.23
9208.00,1.23
9207.00,1.23
9206.00,1.23
9205.00,1.23
9204.00,1.23
9203.00,1.23
9202.00,1.23
9201.00,1.23
9200.00,1.23
9199.00,1.23
9198.00,1.23
9197.00,1.23
9196.00,1.23
9195.00,1.23
9194.00,1.23
9193.00,1.23
9192.00,1.24
9191.00,1.24
9190.00,1.24
9189.00,1.24
9188.00,1.24
9187.00,1.24
9186.00,1.24
9185.00,1.24
9184.00,1.24
9183.00,1.24
9182.00,1.24
9181.00,1.24
9180.00,1.24
9179.00,1.24
9178.00,1.24
9177.00,1.23
9176.00,1.23
9175.00,1.23
9174.00,1.23
9173.00,1.23
9172.00,1.23
9171.00,1.23
9170.00,1.23
9169.00,1.23
9168.00,1.23
9167.00,1.23
9166.00,1.23
9165.00,1.23
9164.00,1.23
9163.00,1.23
9162.00,1.23
9161.00,1.23
9160.00,1.23
9159.00,1.23
9158.00,1.23
9157.00,1.23
9156.00,1.23
9155.00,1.23
9154.00,1.23
9153.00,1.23
9152.00,1.23
9151.00,1.23
9150.00,1.23
9149.00,1.23
9148.00,1.23
9147.00,1.23
9146.00,1.23
9145.00,1.23
9144.00,1.23
9143.00,1.22
9142.00,1.22
9141.00,1.22
9140.00,1.22
9139.00,1.22
9138.00,1.22
9137.00,1.22
9136.00,1.22
9135.00,1.22
9134.00,1.22
9133.00,1.21
9132.00,1.21
9131.00,1.21
9130.00,1.22
9129.00,1.22
9128.00,1.22
9127.00,1.22
9126.00,1.22
9125.00,1.22
9124.00,1.22
9123.00,1.22
9122.00,1.22
9121.00,1.22
9120.00,1.22
9119.00,1.23
9118.00,1.23
9117.00,1.23
9116.00,1.23
9115.00,1.23
9114.00,1.23
9113.00,1.23
9112.00,1.23
9111.00,1.23
9110.00,1.23
9109.00,1.23
9108.00,1.23
9107.00,1.23
9106.00,1.23
9105.00,1.23
9104.00,1.23
9103.00,1.23
9102.00,1.23
9101.00,1.23
9100.00,1.22
9099.00,1.22
9098.00,1.22
9097.00,1.22
9096.00,1.22
9095.00,1.22
9094.00,1.22
9093.00,1.22
9092.00,1.22
9091.00,1.22
9090.00,1.22
9089.00,1.22
9088.00,1.22
9087.00,1.22
9086.00,1.22
9085.00,1.22
9084.00,1.22
9083.00,1.22
9082.00,1.22
9081.00,1.22
9080.00,1.22
9079.00,1.22
9078.00,1.22
9077.00,1.21
9076.00,1.21
9075.00,1.21
9074.00,1.21
9073.00,1.21
9072.00,1.21
9071.00,1.21
9070.00,1.21
9069.00,1.21
9068.00,1.21
9067.00,1.21
9066.00,1.21
9065.00,1.21
9064.00,1.21
9063.00,1.21
9062.00,1.21
9061.00,1.22
9060.00,1.22
9059.00,1.22
9058.00,1.22
9057.00,1.22
9056.00,1.22
9055.00,1.22
9054.00,1.23
9053.00,1.23
9052.00,1.23
9051.00,1.23
9050.00,1.23
9049.00,1.23
9048.00,1.23
9047.00,1.23
9046.00,1.23
9045.00,1.23
9044.00,1.23
9043.00,1.23
9042.00,1.23
9041.00,1.23
9040.00,1.23
9039.00,1.23
9038.00,1.23
9037.00,1.23
9036.00,1.23
9035.00,1.23
9034.00,1.23
9033.00,1.23
9032.00,1.23
9031.00,1.23
9030.00,1.23
9029.00,1.23
9028.00,1.23
9027.00,1.23
9026.00,1.23
9025.00,1.23
9024.00,1.23
9023.00,1.22
9022.00,1.22
9021.00,1.22
9020.00,1.22
9019.00,1.22
9018.00,1.22
9017.00,1.22
9016.00,1.22
9015.00,1.22
9014.00,1.22
9013.00,1.22
9012.00,1.22
9011.00,1.22
9010.00,1.22
9009.00,1.22
9008.00,1.22
9007.00,1.22
9006.00,1.22
9005.00,1.22
9004.00,1.22
9003.00,1.22
9002.00,1.22
9001.00,1.22
9000.00,1.22
8999.00,1.22
8998.00,1.22
8997.00,1.22
8996.00,1.22
8995.00,1.22
8994.00,1.22
8993.00,1.22
8992.00,1.22
8991.00,1.22
8990.00,1.21
8989.00,1.21
8988.00,1.21
8987.00,1.21
8986.00,1.21
8985.00,1.21
8984.00,1.21
8983.00,1.22
8982.00,1.22
8981.00,1.22
8980.00,1.22
8979.00,1.22
8978.00,1.22
8977.00,1.22
8976.00,1.23
8975.00,1.23
8974.00,1.23
8973.00,1.23
8972.00,1.23
8971.00,1.23
8970.00,1.23
8969.00,1.23
8968.00,1.23
8967.00,1.23
8966.00,1.23
8965.00,1.23
8964.00,1.23
8963.00,1.23
8962.00,1.23
8961.00,1.23
8960.00,1.23
8959.00,1.23
8958.00,1.23
8957.00,1.23
8956.00,1.23
8955.00,1.24
8954.00,1.24
8953.00,1.24
8952.00,1.24
8951.00,1.24
8950.00,1.24
8949.00,1.24
8948.00,1.24
8947.00,1.24
8946.00,1.24
8945.00,1.24
8944.00,1.24
8943.00,1.24
8942.00,1.24
8941.00,1.24
8940.00,1.24
8939.00,1.24
8938.00,1.24
8937.00,1.23
8936.00,1.23
8935.00,1.23
8934.00,1.23
8933.00,1.23
8932.00,1.23
8931.00,1.22
8930.00,1.22
8929.00,1.22
8928.00,1.22
8927.00,1.22
8926.00,1.22
8925.00,1.22
8924.00,1.22
8923.00,1.22
8922.00,1.21
8921.00,1.21
8920.00,1.21
8919.00,1.21
8918.00,1.21
8917.00,1.21
8916.00,1.22
8915.00,1.22
8914.00,1.22
8913.00,1.22
8912.00,1.22
8911.00,1.22
8910.00,1.22
8909.00,1.22
8908.00,1.22
8907.00,1.23
8906.00,1.23
8905.00,1.23
8904.00,1.23
8903.00,1.23
8902.00,1.23
8901.00,1.23
8900.00,1.24
8899.00,1.24
8898.00,1.24
8897.00,1.24
8896.00,1.24
8895.00,1.24
8894.00,1.24
8893.00,1.24
8892.00,1.24
8891.00,1.24
8890.00,1.24
8889.00,1.24
8888.00,1.24
8887.00,1.24
8886.00,1.24
8885.00,1.24
8884.00,1.24
8883.00,1.24
8882.00,1.24
8881.00,1.24
8880.00,1.24
8879.00,1.24
8878.00,1.24
8877.00,1.24
8876.00,1.24
8875.00,1.24
8874.00,1.24
8873.00,1.24
8872.00,1.24
8871.00,1.24
8870.00,1.24
8869.00,1.24
8868.00,1.24
8867.00,1.24
8866.00,1.24
8865.00,1.24
8864.00,1.23
8863.00,1.23
8862.00,1.23
8861.00,1.23
8860.00,1.23
8859.00,1.23
8858.00,1.23
8857.00,1.23
8856.00,1.23
8855.00,1.23
8854.00,1.23
8853.00,1.23
8852.00,1.23
8851.00,1.23
8850.00,1.23
8849.00,1.23
8848.00,1.23
8847.00,1.23
8846.00,1.23
8845.00,1.23
8844.00,1.23
8843.00,1.23
8842.00,1.23
8841.00,1.23
8840.00,1.23
8839.00,1.23
8838.00,1.23
8837.00,1.23
8836.00,1.23
8835.00,1.23
8834.00,1.23
8833.00,1.23
8832.00,1.23
8831.00,1.22
8830.00,1.22
8829.00,1.22
8828.00,1.22
8827.00,1.22
8826.00,1.22
8825.00,1.22
8824.00,1.22
8823.00,1.22
8822.00,1.22
8821.00,1.22
8820.00,1.22
8819.00,1.22
8818.00,1.22
8817.00,1.22
8816.00,1.22
8815.00,1.22
8814.00,1.22
8813.00,1.22
8812.00,1.21
8811.00,1.21
8810.00,1.21
8809.00,1.21
8808.00,1.21
8807.00,1.21
8806.00,1.20
8805.00,1.20
8804.00,1.20
8803.00,1.20
8802.00,1.20
8801.00,1.20
8800.00,1.20
8799.00,1.19
8798.00,1.19
8797.00,1.19
8796.00,1.19
8795.00,1.19
8794.00,1.19
8793.00,1.19
8792.00,1.19
8791.00,1.19
8790.00,1.19
8789.00,1.19
8788.00,1.19
8787.00,1.19
8786.00,1.20
8785.00,1.20
8784.00,1.20
8783.00,1.20
8782.00,1.20
8781.00,1.20
8780.00,1.20
8779.00,1.20
8778.00,1.20
8777.00,1.20
8776.00,1.21
8775.00,1.21
8774.00,1.21
8773.00,1.21
8772.00,1.21
8771.00,1.21
8770.00,1.21
8769.00,1.22
8768.00,1.22
8767.00,1.22
8766.00,1.22
8765.00,1.22
8764.00,1.22
8763.00,1.22
8762.00,1.22
8761.00,1.21
8760.00,1.21
8759.00,1.21
8758.00,1.21
8757.00,1.21
8756.00,1.20
8755.00,1.20
8754.00,1.20
8753.00,1.20
8752.00,1.19
8751.00,1.19
8750.00,1.19
8749.00,1.19
8748.00,1.19
8747.00,1.18
8746.00,1.18
8745.00,1.18
8744.00,1.18
8743.00,1.18
8742.00,1.18
8741.00,1.18
8740.00,1.18
8739.00,1.18
8738.00,1.18
8737.00,1.19
8736.00,1.19
8735.00,1.19
8734.00,1.19
8733.00,1.19
8732.00,1.19
8731.00,1.19
8730.00,1.19
8729.00,1.19
8728.00,1.19
8727.00,1.19
8726.00,1.19
8725.00,1.19
8724.00,1.19
8723.00,1.19
8722.00,1.19
8721.00,1.19
8720.00,1.20
8719.00,1.20
8718.00,1.20
8717.00,1.20
8716.00,1.20
8715.00,1.20
8714.00,1.20
8713.00,1.20
8712.00,1.20
8711.00,1.20
8710.00,1.20
8709.00,1.20
8708.00,1.20
8707.00,1.19
8706.00,1.19
8705.00,1.19
8704.00,1.19
8703.00,1.19
8702.00,1.18
8701.00,1.18
8700.00,1.18
8699.00,1.18
8698.00,1.18
8697.00,1.18
8696.00,1.17
8695.00,1.17
8694.00,1.17
8693.00,1.17
8692.00,1.17
8691.00,1.17
8690.00,1.17
8689.00,1.17
8688.00,1.17
8687.00,1.17
8686.00,1.17
8685.00,1.18
8684.00,1.18
8683.00,1.18
8682.00,1.18
8681.00,1.18
8680.00,1.18
8679.00,1.18
8678.00,1.18
8677.00,1.18
8676.00,1.18
8675.00,1.18
8674.00,1.18
8673.00,1.18
8672.00,1.18
8671.00,1.18
8670.00,1.18
8669.00,1.18
8668.00,1.18
8667.00,1.18
8666.00,1.18
8665.00,1.18
8664.00,1.18
8663.00,1.18
8662.00,1.18
8661.00,1.18
8660.00,1.18
8659.00,1.18
8658.00,1.18
8657.00,1.18
8656.00,1.18
8655.00,1.18
8654.00,1.18
8653.00,1.18
8652.00,1.18
8651.00,1.18
8650.00,1.18
8649.00,1.18
8648.00,1.18
8647.00,1.18
8646.00,1.18
8645.00,1.18
8644.00,1.18
8643.00,1.18
8642.00,1.18
8641.00,1.18
8640.00,1.18
8639.00,1.18
8638.00,1.18
8637.00,1.18
8636.00,1.18
8635.00,1.19
8634.00,1.19
8633.00,1.19
8632.00,1.19
8631.00,1.18
8630.00,1.18
8629.00,1.18
8628.00,1.18
8627.00,1.18
8626.00,1.18
8625.00,1.18
8624.00,1.18
8623.00,1.18
8622.00,1.18
8621.00,1.17
8620.00,1.17
8619.00,1.17
8618.00,1.17
8617.00,1.17
8616.00,1.17
8615.00,1.17
8614.00,1.17
8613.00,1.17
8612.00,1.17
8611.00,1.17
8610.00,1.17
8609.00,1.17
8608.00,1.18
8607.00,1.18
8606.00,1.18
8605.00,1.18
8604.00,1.18
8603.00,1.18
8602.00,1.18
8601.00,1.18
8600.00,1.18
8599.00,1.18
8598.00,1.18
8597.00,1.18
8596.00,1.18
8595.00,1.18
8594.00,1.18
8593.00,1.18
8592.00,1.17
8591.00,1.17
8590.00,1.17
8589.00,1.17
8588.00,1.17
8587.00,1.17
8586.00,1.16
8585.00,1.16
8584.00,1.16
8583.00,1.16
8582.00,1.16
8581.00,1.16
8580.00,1.16
8579.00,1.16
8578.00,1.15
8577.00,1.15
8576.00,1.15
8575.00,1.15
8574.00,1.15
8573.00,1.15
8572.00,1.15
8571.00,1.15
8570.00,1.15
8569.00,1.15
8568.00,1.15
8567.00,1.15
8566.00,1.15
8565.00,1.15
8564.00,1.15
8563.00,1.15
8562.00,1.15
8561.00,1.15
8560.00,1.15
8559.00,1.15
8558.00,1.14
8557.00,1.14
8556.00,1.14
8555.00,1.14
8554.00,1.14
8553.00,1.14
8552.00,1.14
8551.00,1.14
8550.00,1.14
8549.00,1.14
8548.00,1.14
8547.00,1.14
8546.00,1.14
8545.00,1.14
8544.00,1.14
8543.00,1.14
8542.00,1.14
8541.00,1.14
8540.00,1.14
8539.00,1.14
8538.00,1.14
8537.00,1.14
8536.00,1.14
8535.00,1.14
8534.00,1.14
8533.00,1.14
8532.00,1.14
8531.00,1.14
8530.00,1.14
8529.00,1.14
8528.00,1.14
8527.00,1.14
8526.00,1.14
8525.00,1.14
8524.00,1.14
8523.00,1.14
8522.00,1.14
8521.00,1.14
8520.00,1.14
8519.00,1.14
8518.00,1.14
8517.00,1.14
8516.00,1.14
8515.00,1.14
8514.00,1.14
8513.00,1.14
8512.00,1.14
8511.00,1.14
8510.00,1.14
8509.00,1.13
8508.00,1.13
8507.00,1.13
8506.00,1.13
8505.00,1.13
8504.00,1.13
8503.00,1.13
8502.00,1.13
8501.00,1.13
8500.00,1.13
8499.00,1.13
8498.00,1.12
8497.00,1.12
8496.00,1.12
8495.00,1.12
8494.00,1.12
8493.00,1.12
8492.00,1.12
8491.00,1.12
8490.00,1.12
8489.00,1.12
8488.00,1.12
8487.00,1.12
8486.00,1.12
8485.00,1.12
8484.00,1.12
8483.00,1.12
8482.00,1.12
8481.00,1.12
8480.00,1.12
8479.00,1.12
8478.00,1.12
8477.00,1.12
8476.00,1.12
8475.00,1.12
8474.00,1.12
8473.00,1.11
8472.00,1.11
8471.00,1.11
8470.00,1.11
8469.00,1.11
8468.00,1.11
8467.00,1.11
8466.00,1.11
8465.00,1.11
8464.00,1.11
8463.00,1.11
8462.00,1.11
8461.00,1.11
8460.00,1.11
8459.00,1.11
8458.00,1.11
8457.00,1.11
8456.00,1.11
8455.00,1.11
8454.00,1.11
8453.00,1.11
8452.00,1.11
8451.00,1.10
8450.00,1.10
8449.00,1.10
8448.00,1.10
8447.00,1.10
8446.00,1.10
8445.00,1.10
8444.00,1.10
8443.00,1.09
8442.00,1.09
8441.00,1.09
8440.00,1.09
8439.00,1.09
8438.00,1.09
8437.00,1.09
8436.00,1.09
8435.00,1.09
8434.00,1.09
8433.00,1.09
8432.00,1.09
8431.00,1.10
8430.00,1.10
8429.00,1.10
8428.00,1.10
8427.00,1.10
8426.00,1.10
8425.00,1.10
8424.00,1.10
8423.00,1.10
8422.00,1.10
8421.00,1.10
8420.00,1.10
8419.00,1.10
8418.00,1.10
8417.00,1.10
8416.00,1.10
8415.00,1.10
8414.00,1.10
8413.00,1.10
8412.00,1.11
8411.00,1.11
8410.00,1.11
8409.00,1.11
8408.00,1.11
8407.00,1.11
8406.00,1.11
8405.00,1.11
8404.00,1.11
8403.00,1.11
8402.00,1.11
8401.00,1.11
8400.00,1.11
8399.00,1.11
8398.00,1.12
8397.00,1.12
8396.00,1.12
8395.00,1.12
8394.00,1.12
8393.00,1.12
8392.00,1.12
8391.00,1.12
8390.00,1.12
8389.00,1.12
8388.00,1.12
8387.00,1.12
8386.00,1.13
8385.00,1.13
8384.00,1.13
8383.00,1.13
8382.00,1.13
8381.00,1.13
8380.00,1.13
8379.00,1.13
8378.00,1.13
8377.00,1.14
8376.00,1.14
8375.00,1.14
8374.00,1.14
8373.00,1.14
8372.00,1.14
8371.00,1.14
8370.00,1.14
8369.00,1.14
8368.00,1.14
8367.00,1.14
8366.00,1.14
8365.00,1.14
8364.00,1.14
8363.00,1.14
8362.00,1.14
8361.00,1.14
8360.00,1.14
8359.00,1.14
8358.00,1.14
8357.00,1.14
8356.00,1.14
8355.00,1.14
8354.00,1.14
8353.00,1.14
8352.00,1.14
8351.00,1.13
8350.00,1.13
8349.00,1.13
8348.00,1.13
8347.00,1.13
8346.00,1.13
8345.00,1.13
8344.00,1.13
8343.00,1.13
8342.00,1.13
8341.00,1.13
8340.00,1.13
8339.00,1.13
8338.00,1.13
8337.00,1.13
8336.00,1.13
8335.00,1.13
8334.00,1.13
8333.00,1.13
8332.00,1.13
8331.00,1.13
8330.00,1.13
8329.00,1.13
8328.00,1.13
8327.00,1.13
8326.00,1.14
8325.00,1.14
8324.00,1.14
8323.00,1.14
8322.00,1.14
8321.00,1.14
8320.00,1.14
8319.00,1.14
8318.00,1.14
8317.00,1.14
8316.00,1.14
8315.00,1.14
8314.00,1.14
8313.00,1.14
8312.00,1.14
8311.00,1.14
8310.00,1.14
8309.00,1.14
8308.00,1.14
8307.00,1.14
8306.00,1.14
8305.00,1.14
8304.00,1.14
8303.00,1.14
8302.00,1.14
8301.00,1.14
8300.00,1.14
8299.00,1.14
8298.00,1.14
8297.00,1.14
8296.00,1.14
8295.00,1.14
8294.00,1.14
8293.00,1.14
8292.00,1.14
8291.00,1.14
8290.00,1.14
8289.00,1.14
8288.00,1.14
8287.00,1.14
8286.00,1.14
8285.00,1.14
8284.00,1.14
8283.00,1.14
8282.00,1.14
8281.00,1.14
8280.00,1.14
8279.00,1.14
8278.00,1.14
8277.00,1.14
8276.00,1.14
8275.00,1.14
8274.00,1.14
8273.00,1.14
8272.00,1.14
8271.00,1.14
8270.00,1.14
8269.00,1.14
8268.00,1.14
8267.00,1.14
8266.00,1.14
8265.00,1.14
8264.00,1.14
8263.00,1.14
8262.00,1.14
8261.00,1.14
8260.00,1.14
8259.00,1.14
8258.00,1.15
8257.00,1.15
8256.00,1.15
8255.00,1.15
8254.00,1.15
8253.00,1.15
8252.00,1.15
8251.00,1.15
8250.00,1.15
8249.00,1.15
8248.00,1.15
8247.00,1.15
8246.00,1.15
8245.00,1.15
8244.00,1.15
8243.00,1.15
8242.00,1.15
8241.00,1.15
8240.00,1.15
8239.00,1.15
8238.00,1.15
8237.00,1.15
8236.00,1.15
8235.00,1.15
8234.00,1.15
8233.00,1.15
8232.00,1.15
8231.00,1.15
8230.00,1.15
8229.00,1.15
8228.00,1.15
8227.00,1.15
8226.00,1.15
8225.00,1.15
8224.00,1.16
8223.00,1.16
8222.00,1.16
8221.00,1.16
8220.00,1.16
8219.00,1.16
8218.00,1.16
8217.00,1.16
8216.00,1.16
8215.00,1.16
8214.00,1.16
8213.00,1.16
8212.00,1.16
8211.00,1.17
8210.00,1.17
8209.00,1.17
8208.00,1.17
8207.00,1.17
8206.00,1.17
8205.00,1.17
8204.00,1.17
8203.00,1.17
8202.00,1.17
8201.00,1.17
8200.00,1.17
8199.00,1.17
8198.00,1.17
8197.00,1.17
8196.00,1.17
8195.00,1.17
8194.00,1.16
8193.00,1.16
8192.00,1.16
8191.00,1.16
8190.00,1.16
8189.00,1.17
8188.00,1.17
8187.00,1.17
8186.00,1.17
8185.00,1.17
8184.00,1.17
8183.00,1.17
8182.00,1.17
8181.00,1.17
8180.00,1.17
8179.00,1.17
8178.00,1.18
8177.00,1.18
8176.00,1.18
8175.00,1.18
8174.00,1.18
8173.00,1.18
8172.00,1.18
8171.00,1.18
8170.00,1.18
8169.00,1.18
8168.00,1.18
8167.00,1.18
8166.00,1.18
8165.00,1.18
8164.00,1.18
8163.00,1.18
8162.00,1.18
8161.00,1.18
8160.00,1.18
8159.00,1.18
8158.00,1.18
8157.00,1.18
8156.00,1.18
8155.00,1.18
8154.00,1.18
8153.00,1.18
8152.00,1.18
8151.00,1.18
8150.00,1.18
8149.00,1.18
8148.00,1.18
8147.00,1.18
8146.00,1.19
8145.00,1.19
8144.00,1.19
8143.00,1.19
8142.00,1.19
8141.00,1.19
8140.00,1.19
8139.00,1.19
8138.00,1.19
8137.00,1.19
8136.00,1.19
8135.00,1.19
8134.00,1.19
8133.00,1.19
8132.00,1.19
8131.00,1.19
8130.00,1.19
8129.00,1.19
8128.00,1.19
8127.00,1.19
8126.00,1.19
8125.00,1.18
8124.00,1.18
8123.00,1.18
8122.00,1.18
8121.00,1.18
8120.00,1.18
8119.00,1.18
8118.00,1.18
8117.00,1.18
8116.00,1.18
8115.00,1.18
8114.00,1.18
8113.00,1.18
8112.00,1.18
8111.00,1.18
8110.00,1.18
8109.00,1.18
8108.00,1.18
8107.00,1.18
8106.00,1.18
8105.00,1.18
8104.00,1.18
8103.00,1.18
8102.00,1.18
8101.00,1.18
8100.00,1.19
8099.00,1.19
8098.00,1.19
8097.00,1.19
8096.00,1.19
8095.00,1.19
8094.00,1.20
8093.00,1.20
8092.00,1.20
8091.00,1.20
8090.00,1.20
8089.00,1.20
8088.00,1.20
8087.00,1.21
8086.00,1.21
8085.00,1.21
8084.00,1.21
8083.00,1.21
8082.00,1.21
8081.00,1.21
8080.00,1.21
8079.00,1.21
8078.00,1.21
8077.00,1.21
8076.00,1.21
8075.00,1.20
8074.00,1.20
8073.00,1.20
8072.00,1.20
8071.00,1.20
8070.00,1.20
8069.00,1.20
8068.00,1.20
8067.00,1.20
8066.00,1.20
8065.00,1.20
8064.00,1.20
8063.00,1.20
8062.00,1.20
8061.00,1.20
8060.00,1.20
8059.00,1.20
8058.00,1.20
8057.00,1.20
8056.00,1.20
8055.00,1.20
8054.00,1.20
8053.00,1.20
8052.00,1.20
8051.00,1.20
8050.00,1.20
8049.00,1.20
8048.00,1.20
8047.00,1.20
8046.00,1.20
8045.00,1.20
8044.00,1.20
8043.00,1.20
8042.00,1.20
8041.00,1.20
8040.00,1.20
8039.00,1.20
8038.00,1.20
8037.00,1.21
8036.00,1.21
8035.00,1.21
8034.00,1.21
8033.00,1.21
8032.00,1.20
8031.00,1.20
8030.00,1.20
8029.00,1.20
8028.00,1.20
8027.00,1.20
8026.00,1.20
8025.00,1.20
8024.00,1.20
8023.00,1.20
8022.00,1.20
8021.00,1.20
8020.00,1.20
8019.00,1.20
8018.00,1.20
8017.00,1.20
8016.00,1.20
8015.00,1.20
8014.00,1.21
8013.00,1.21
8012.00,1.21
8011.00,1.21
8010.00,1.21
8009.00,1.21
8008.00,1.21
8007.00,1.21
8006.00,1.21
8005.00,1.21
8004.00,1.21
8003.00,1.21
8002.00,1.21
8001.00,1.21
8000.00,1.21
7999.00,1.21
7998.00,1.21
7997.00,1.21
7996.00,1.21
7995.00,1.21
7994.00,1.21
7993.00,1.21
7992.00,1.21
7991.00,1.22
7990.00,1.22
7989.00,1.22
7988.00,1.22
7987.00,1.22
7986.00,1.22
7985.00,1.22
7984.00,1.21
7983.00,1.21
7982.00,1.21
7981.00,1.21
7980.00,1.21
7979.00,1.21
7978.00,1.21
7977.00,1.21
7976.00,1.21
7975.00,1.21
7974.00,1.22
7973.00,1.22
7972.00,1.22
7971.00,1.22
7970.00,1.22
7969.00,1.22
7968.00,1.22
7967.00,1.22
7966.00,1.22
7965.00,1.22
7964.00,1.22
7963.00,1.22
7962.00,1.22
7961.00,1.21
7960.00,1.21
7959.00,1.21
7958.00,1.21
7957.00,1.21
7956.00,1.21
7955.00,1.21
7954.00,1.21
7953.00,1.21
7952.00,1.21
7951.00,1.21
7950.00,1.21
7949.00,1.21
7948.00,1.22
7947.00,1.22
7946.00,1.22
7945.00,1.22
7944.00,1.22
7943.00,1.22
7942.00,1.22
7941.00,1.22
7940.00,1.22
7939.00,1.22
7938.00,1.22
7937.00,1.22
7936.00,1.22
7935.00,1.23
7934.00,1.23
7933.00,1.23
7932.00,1.23
7931.00,1.23
7930.00,1.23
7929.00,1.23
7928.00,1.23
7927.00,1.23
7926.00,1.23
7925.00,1.23
7924.00,1.23
7923.00,1.23
7922.00,1.23
7921.00,1.23
7920.00,1.23
7919.00,1.23
7918.00,1.23
7917.00,1.22
7916.00,1.22
7915.00,1.22
7914.00,1.22
7913.00,1.22
7912.00,1.22
7911.00,1.22
7910.00,1.22
7909.00,1.22
7908.00,1.22
7907.00,1.22
7906.00,1.22
7905.00,1.22
7904.00,1.22
7903.00,1.22
7902.00,1.22
7901.00,1.22
7900.00,1.22
7899.00,1.22
7898.00,1.23
7897.00,1.23
7896.00,1.23
7895.00,1.23
7894.00,1.23
7893.00,1.23
7892.00,1.23
7891.00,1.23
7890.00,1.23
7889.00,1.23
7888.00,1.23
7887.00,1.23
7886.00,1.23
7885.00,1.23
7884.00,1.23
7883.00,1.23
7882.00,1.23
7881.00,1.23
7880.00,1.23
7879.00,1.23
7878.00,1.23
7877.00,1.23
7876.00,1.23
7875.00,1.23
7874.00,1.23
7873.00,1.23
7872.00,1.23
7871.00,1.23
7870.00,1.23
7869.00,1.23
7868.00,1.23
7867.00,1.23
7866.00,1.23
7865.00,1.23
7864.00,1.23
7863.00,1.23
7862.00,1.23
7861.00,1.23
7860.00,1.23
7859.00,1.23
7858.00,1.23
7857.00,1.23
7856.00,1.23
7855.00,1.23
7854.00,1.23
7853.00,1.23
7852.00,1.23
7851.00,1.23
7850.00,1.23
7849.00,1.23
7848.00,1.23
7847.00,1.23
7846.00,1.23
7845.00,1.23
7844.00,1.23
7843.00,1.23
7842.00,1.23
7841.00,1.23
7840.00,1.23
7839.00,1.23
7838.00,1.23
7837.00,1.23
7836.00,1.23
7835.00,1.23
7834.00,1.23
7833.00,1.23
7832.00,1.23
7831.00,1.23
7830.00,1.23
7829.00,1.23
7828.00,1.23
7827.00,1.23
7826.00,1.23
7825.00,1.23
7824.00,1.23
7823.00,1.23
7822.00,1.23
7821.00,1.23
7820.00,1.23
7819.00,1.23
7818.00,1.23
7817.00,1.23
7816.00,1.23
7815.00,1.23
7814.00,1.23
7813.00,1.23
7812.00,1.23
7811.00,1.23
7810.00,1.23
7809.00,1.23
7808.00,1.23
7807.00,1.23
7806.00,1.23
7805.00,1.24
7804.00,1.24
7803.00,1.24
7802.00,1.24
7801.00,1.24
7800.00,1.24
7799.00,1.24
7798.00,1.24
7797.00,1.24
7796.00,1.23
7795.00,1.23
7794.00,1.23
7793.00,1.23
7792.00,1.23
7791.00,1.23
7790.00,1.23
7789.00,1.23
7788.00,1.23
7787.00,1.23
7786.00,1.23
7785.00,1.23
7784.00,1.23
7783.00,1.23
7782.00,1.23
7781.00,1.23
7780.00,1.23
7779.00,1.23
7778.00,1.23
7777.00,1.23
7776.00,1.23
7775.00,1.23
7774.00,1.23
7773.00,1.23
7772.00,1.23
7771.00,1.23
7770.00,1.23
7769.00,1.24
7768.00,1.24
7767.00,1.24
7766.00,1.24
7765.00,1.24
7764.00,1.24
7763.00,1.24
7762.00,1.24
7761.00,1.24
7760.00,1.24
7759.00,1.24
7758.00,1.24
7757.00,1.24
7756.00,1.23
7755.00,1.23
7754.00,1.23
7753.00,1.23
7752.00,1.23
7751.00,1.23
7750.00,1.23
7749.00,1.23
7748.00,1.23
7747.00,1.23
7746.00,1.23
7745.00,1.23
7744.00,1.23
7743.00,1.23
7742.00,1.23
7741.00,1.23
7740.00,1.23
7739.00,1.23
7738.00,1.23
7737.00,1.23
7736.00,1.23
7735.00,1.23
7734.00,1.23
7733.00,1.23
7732.00,1.23
7731.00,1.23
7730.00,1.23
7729.00,1.23
7728.00,1.23
7727.00,1.23
7726.00,1.23
7725.00,1.23
7724.00,1.23
7723.00,1.24
7722.00,1.24
7721.00,1.24
7720.00,1.24
7719.00,1.24
7718.00,1.24
7717.00,1.24
7716.00,1.24
7715.00,1.24
7714.00,1.24
7713.00,1.24
7712.00,1.24
7711.00,1.24
7710.00,1.24
7709.00,1.24
7708.00,1.24
7707.00,1.24
7706.00,1.24
7705.00,1.24
7704.00,1.24
7703.00,1.24
7702.00,1.24
7701.00,1.24
7700.00,1.24
7699.00,1.24
7698.00,1.24
7697.00,1.24
7696.00,1.24
7695.00,1.24
7694.00,1.24
7693.00,1.24
7692.00,1.24
7691.00,1.24
7690.00,1.24
7689.00,1.24
7688.00,1.24
7687.00,1.24
7686.00,1.24
7685.00,1.24
7684.00,1.24
7683.00,1.24
7682.00,1.24
7681.00,1.24
7680.00,1.24
7679.00,1.24
7678.00,1.24
7677.00,1.24
7676.00,1.24
7675.00,1.24
7674.00,1.24
7673.00,1.24
7672.00,1.24
7671.00,1.24
7670.00,1.24
7669.00,1.24
7668.00,1.24
7667.00,1.24
7666.00,1.24
7665.00,1.24
7664.00,1.24
7663.00,1.24
7662.00,1.24
7661.00,1.24
7660.00,1.24
7659.00,1.24
7658.00,1.24
7657.00,1.24
7656.00,1.24
7655.00,1.24
7654.00,1.24
7653.00,1.24
7652.00,1.24
7651.00,1.24
7650.00,1.23
7649.00,1.23
7648.00,1.23
7647.00,1.23
7646.00,1.23
7645.00,1.23
7644.00,1.23
7643.00,1.23
7642.00,1.23
7641.00,1.23
7640.00,1.23
7639.00,1.23
7638.00,1.23
7637.00,1.23
7636.00,1.23
7635.00,1.23
7634.00,1.23
7633.00,1.23
7632.00,1.23
7631.00,1.24
7630.00,1.24
7629.00,1.24
7628.00,1.24
7627.00,1.24
7626.00,1.24
7625.00,1.24
7624.00,1.24
7623.00,1.24
7622.00,1.24
7621.00,1.24
7620.00,1.24
7619.00,1.24
7618.00,1.24
7617.00,1.24
7616.00,1.24
7615.00,1.24
7614.00,1.24
7613.00,1.24
7612.00,1.24
7611.00,1.24
7610.00,1.24
7609.00,1.24
7608.00,1.24
7607.00,1.24
7606.00,1.24
7605.00,1.24
7604.00,1.24
7603.00,1.24
7602.00,1.24
7601.00,1.24
7600.00,1.24
7599.00,1.24
7598.00,1.24
7597.00,1.24
7596.00,1.24
7595.00,1.24
7594.00,1.24
7593.00,1.24
7592.00,1.24
7591.00,1.24
7590.00,1.24
7589.00,1.24
7588.00,1.24
7587.00,1.24
7586.00,1.23
7585.00,1.23
7584.00,1.23
7583.00,1.23
7582.00,1.23
7581.00,1.23
7580.00,1.23
7579.00,1.24
7578.00,1.24
7577.00,1.24
7576.00,1.24
7575.00,1.24
7574.00,1.24
7573.00,1.24
7572.00,1.24
7571.00,1.24
7570.00,1.24
7569.00,1.24
7568.00,1.24
7567.00,1.24
7566.00,1.24
7565.00,1.24
7564.00,1.24
7563.00,1.24
7562.00,1.24
7561.00,1.24
7560.00,1.24
7559.00,1.24
7558.00,1.24
7557.00,1.24
7556.00,1.24
7555.00,1.24
7554.00,1.24
7553.00,1.24
7552.00,1.24
7551.00,1.23
7550.00,1.23
7549.00,1.23
7548.00,1.23
7547.00,1.23
7546.00,1.23
7545.00,1.23
7544.00,1.23
7543.00,1.23
7542.00,1.23
7541.00,1.23
7540.00,1.23
7539.00,1.23
7538.00,1.23
7537.00,1.23
7536.00,1.23
7535.00,1.23
7534.00,1.23
7533.00,1.23
7532.00,1.23
7531.00,1.23
7530.00,1.23
7529.00,1.23
7528.00,1.23
7527.00,1.23
7526.00,1.23
7525.00,1.23
7524.00,1.23
7523.00,1.22
7522.00,1.22
7521.00,1.22
7520.00,1.22
7519.00,1.22
7518.00,1.22
7517.00,1.22
7516.00,1.22
7515.00,1.22
7514.00,1.22
7513.00,1.22
7512.00,1.22
7511.00,1.22
7510.00,1.23
7509.00,1.23
7508.00,1.23
7507.00,1.23
7506.00,1.23
7505.00,1.22
7504.00,1.22
7503.00,1.22
7502.00,1.22
7501.00,1.22
7500.00,1.22
7499.00,1.22
7498.00,1.22
7497.00,1.22
7496.00,1.22
7495.00,1.22
7494.00,1.22
7493.00,1.21
7492.00,1.21
7491.00,1.21
7490.00,1.21
7489.00,1.21
7488.00,1.21
7487.00,1.21
7486.00,1.21
7485.00,1.21
7484.00,1.21
7483.00,1.21
7482.00,1.21
7481.00,1.21
7480.00,1.21
7479.00,1.21
7478.00,1.21
7477.00,1.21
7476.00,1.21
7475.00,1.21
7474.00,1.21
7473.00,1.21
7472.00,1.21
7471.00,1.21
7470.00,1.21
7469.00,1.21
7468.00,1.21
7467.00,1.21
7466.00,1.21
7465.00,1.21
7464.00,1.21
7463.00,1.21
7462.00,1.21
7461.00,1.21
7460.00,1.21
7459.00,1.21
7458.00,1.21
7457.00,1.21
7456.00,1.20
7455.00,1.20
7454.00,1.20
7453.00,1.20
7452.00,1.20
7451.00,1.20
7450.00,1.20
7449.00,1.20
7448.00,1.20
7447.00,1.20
7446.00,1.20
7445.00,1.19
7444.00,1.19
7443.00,1.19
7442.00,1.19
7441.00,1.19
7440.00,1.19
7439.00,1.19
7438.00,1.19
7437.00,1.19
7436.00,1.19
7435.00,1.19
7434.00,1.19
7433.00,1.19
7432.00,1.19
7431.00,1.19
7430.00,1.19
7429.00,1.19
7428.00,1.19
7427.00,1.19
7426.00,1.19
7425.00,1.19
7424.00,1.18
7423.00,1.18
7422.00,1.18
7421.00,1.18
7420.00,1.18
7419.00,1.18
7418.00,1.18
7417.00,1.18
7416.00,1.18
7415.00,1.18
7414.00,1.18
7413.00,1.18
7412.00,1.18
7411.00,1.18
7410.00,1.18
7409.00,1.18
7408.00,1.17
7407.00,1.17
7406.00,1.17
7405.00,1.17
7404.00,1.17
7403.00,1.17
7402.00,1.17
7401.00,1.17
7400.00,1.17
7399.00,1.17
7398.00,1.17
7397.00,1.17
7396.00,1.17
7395.00,1.17
7394.00,1.17
7393.00,1.16
7392.00,1.16
7391.00,1.16
7390.00,1.16
7389.00,1.16
7388.00,1.16
7387.00,1.16
7386.00,1.16
7385.00,1.16
7384.00,1.16
7383.00,1.16
7382.00,1.16
7381.00,1.16
7380.00,1.16
7379.00,1.16
7378.00,1.15
7377.00,1.15
7376.00,1.15
7375.00,1.15
7374.00,1.15
7373.00,1.15
7372.00,1.15
7371.00,1.15
7370.00,1.15
7369.00,1.15
7368.00,1.15
7367.00,1.15
7366.00,1.15
7365.00,1.15
7364.00,1.15
7363.00,1.15
7362.00,1.15
7361.00,1.15
7360.00,1.15
7359.00,1.15
7358.00,1.15
7357.00,1.15
7356.00,1.15
7355.00,1.15
7354.00,1.15
7353.00,1.15
7352.00,1.15
7351.00,1.15
7350.00,1.14
7349.00,1.14
7348.00,1.14
7347.00,1.14
7346.00,1.14
7345.00,1.14
7344.00,1.14
7343.00,1.14
7342.00,1.14
7341.00,1.14
7340.00,1.14
7339.00,1.14
7338.00,1.14
7337.00,1.14
7336.00,1.14
7335.00,1.14
7334.00,1.14
7333.00,1.14
7332.00,1.14
7331.00,1.14
7330.00,1.14
7329.00,1.14
7328.00,1.14
7327.00,1.14
7326.00,1.14
7325.00,1.14
7324.00,1.13
7323.00,1.13
7322.00,1.13
7321.00,1.13
7320.00,1.13
7319.00,1.13
7318.00,1.13
7317.00,1.13
7316.00,1.13
7315.00,1.13
7314.00,1.13
7313.00,1.13
7312.00,1.13
7311.00,1.13
7310.00,1.12
7309.00,1.12
7308.00,1.12
7307.00,1.12
7306.00,1.12
7305.00,1.12
7304.00,1.12
7303.00,1.12
7302.00,1.12
7301.00,1.12
7300.00,1.12
7299.00,1.12
7298.00,1.12
7297.00,1.12
7296.00,1.12
7295.00,1.12
7294.00,1.12
7293.00,1.12
7292.00,1.12
7291.00,1.11
7290.00,1.11
7289.00,1.11
7288.00,1.11
7287.00,1.11
7286.00,1.11
7285.00,1.11
7284.00,1.11
7283.00,1.11
7282.00,1.10
7281.00,1.10
7280.00,1.10
7279.00,1.10
7278.00,1.10
7277.00,1.10
7276.00,1.10
7275.00,1.10
7274.00,1.09
7273.00,1.09
7272.00,1.09
7271.00,1.09
7270.00,1.09
7269.00,1.09
7268.00,1.09
7267.00,1.09
7266.00,1.08
7265.00,1.08
7264.00,1.08
7263.00,1.08
7262.00,1.08
7261.00,1.08
7260.00,1.08
7259.00,1.08
7258.00,1.08
7257.00,1.08
7256.00,1.08
7255.00,1.07
7254.00,1.07
7253.00,1.07
7252.00,1.07
7251.00,1.07
7250.00,1.07
7249.00,1.07
7248.00,1.06
7247.00,1.06
7246.00,1.06
7245.00,1.06
7244.00,1.06
7243.00,1.06
7242.00,1.05
7241.00,1.05
7240.00,1.05
7239.00,1.05
7238.00,1.05
7237.00,1.04
7236.00,1.04
7235.00,1.04
7234.00,1.04
7233.00,1.03
7232.00,1.03
7231.00,1.03
7230.00,1.03
7229.00,1.02
7228.00,1.02
7227.00,1.02
7226.00,1.01
7225.00,1.01
7224.00,1.01
7223.00,1.01
7222.00,1.00
7221.00,1.00
7220.00,1.00
7219.00,0.99
7218.00,0.99
7217.00,0.99
7216.00,0.99
7215.00,0.98
7214.00,0.98
7213.00,0.98
7212.00,0.98
7211.00,0.97
7210.00,0.97
7209.00,0.97
7208.00,0.96
7207.00,0.96
7206.00,0.96
7205.00,0.95
7204.00,0.95
7203.00,0.95
7202.00,0.94
7201.00,0.94
7200.00,0.94
7199.00,0.94
7198.00,0.93
7197.00,0.93
7196.00,0.93
7195.00,0.93
7194.00,0.93
7193.00,0.92
7192.00,0.92
7191.00,0.92
7190.00,0.92
7189.00,0.92
7188.00,0.91
7187.00,0.91
7186.00,0.91
7185.00,0.91
7184.00,0.90
7183.00,0.90
7182.00,0.90
7181.00,0.90
7180.00,0.90
7179.00,0.89
7178.00,0.89
7177.00,0.89
7176.00,0.89
7175.00,0.88
7174.00,0.88
7173.00,0.88
7172.00,0.88
7171.00,0.88
7170.00,0.88
7169.00,0.87
7168.00,0.87
7167.00,0.87
7166.00,0.87
7165.00,0.87
7164.00,0.86
7163.00,0.86
7162.00,0.86
7161.00,0.86
7160.00,0.86
7159.00,0.86
7158.00,0.85
7157.00,0.85
7156.00,0.85
7155.00,0.85
7154.00,0.85
7153.00,0.84
7152.00,0.84
7151.00,0.84
7150.00,0.84
7149.00,0.84
7148.00,0.83
7147.00,0.83
7146.00,0.83
7145.00,0.82
7144.00,0.82
7143.00,0.82
7142.00,0.82
7141.00,0.81
7140.00,0.81
7139.00,0.81
7138.00,0.81
7137.00,0.80
7136.00,0.80
7135.00,0.80
7134.00,0.80
7133.00,0.79
7132.00,0.79
7131.00,0.79
7130.00,0.78
7129.00,0.78
7128.00,0.78
7127.00,0.78
7126.00,0.77
7125.00,0.77
7124.00,0.77
7123.00,0.77
7122.00,0.76
7121.00,0.76
7120.00,0.76
7119.00,0.76
7118.00,0.76
7117.00,0.75
7116.00,0.75
7115.00,0.75
7114.00,0.75
7113.00,0.75
7112.00,0.74
7111.00,0.74
7110.00,0.74
7109.00,0.74
7108.00,0.74
7107.00,0.73
7106.00,0.73
7105.00,0.73
7104.00,0.73
7103.00,0.73
7102.00,0.72
7101.00,0.72
7100.00,0.72
7099.00,0.72
7098.00,0.72
7097.00,0.72
7096.00,0.71
7095.00,0.71
7094.00,0.71
7093.00,0.71
7092.00,0.71
7091.00,0.71
7090.00,0.71
7089.00,0.70
7088.00,0.70
7087.00,0.70
7086.00,0.70
7085.00,0.70
7084.00,0.70
7083.00,0.70
7082.00,0.69
7081.00,0.69
7080.00,0.69
7079.00,0.69
7078.00,0.69
7077.00,0.69
7076.00,0.68
7075.00,0.68
7074.00,0.68
7073.00,0.68
7072.00,0.68
7071.00,0.68
7070.00,0.68
7069.00,0.68
7068.00,0.68
7067.00,0.68
7066.00,0.67
7065.00,0.67
7064.00,0.67
7063.00,0.67
7062.00,0.67
7061.00,0.67
7060.00,0.67
7059.00,0.66
7058.00,0.66
7057.00,0.66
7056.00,0.66
7055.00,0.66
7054.00,0.66
7053.00,0.65
7052.00,0.65
7051.00,0.65
7050.00,0.65
7049.00,0.65
7048.00,0.65
7047.00,0.65
7046.00,0.65
7045.00,0.65
7044.00,0.65
7043.00,0.65
7042.00,0.65
7041.00,0.65
7040.00,0.65
7039.00,0.65
7038.00,0.64
7037.00,0.64
7036.00,0.64
7035.00,0.64
7034.00,0.64
7033.00,0.64
7032.00,0.64
7031.00,0.64
7030.00,0.64
7029.00,0.64
7028.00,0.64
7027.00,0.63
7026.00,0.63
7025.00,0.63
7024.00,0.63
7023.00,0.63
7022.00,0.63
7021.00,0.63
7020.00,0.63
7019.00,0.62
7018.00,0.62
7017.00,0.62
7016.00,0.62
7015.00,0.62
7014.00,0.62
7013.00,0.62
7012.00,0.62
7011.00,0.62
7010.00,0.62
7009.00,0.62
7008.00,0.62
7007.00,0.61
7006.00,0.61
7005.00,0.61
7004.00,0.61
7003.00,0.61
7002.00,0.61
7001.00,0.61
7000.00,0.61
6999.00,0.61
6998.00,0.61
6997.00,0.61
6996.00,0.61
6995.00,0.61
6994.00,0.61
6993.00,0.60
6992.00,0.60
6991.00,0.60
6990.00,0.60
6989.00,0.60
6988.00,0.60
6987.00,0.60
6986.00,0.60
6985.00,0.60
6984.00,0.60
6983.00,0.60
6982.00,0.60
6981.00,0.60
6980.00,0.60
6979.00,0.60
6978.00,0.60
6977.00,0.60
6976.00,0.60
6975.00,0.60
6974.00,0.60
6973.00,0.60
6972.00,0.60
6971.00,0.60
6970.00,0.60
6969.00,0.60
6968.00,0.60
6967.00,0.60
6966.00,0.60
6965.00,0.60
6964.00,0.59
6963.00,0.59
6962.00,0.59
6961.00,0.59
6960.00,0.59
6959.00,0.59
6958.00,0.59
6957.00,0.59
6956.00,0.59
6955.00,0.59
6954.00,0.59
6953.00,0.59
6952.00,0.59
6951.00,0.59
6950.00,0.59
6949.00,0.59
6948.00,0.59
6947.00,0.59
6946.00,0.59
6945.00,0.59
6944.00,0.59
6943.00,0.59
6942.00,0.59
6941.00,0.59
6940.00,0.58
6939.00,0.58
6938.00,0.58
6937.00,0.58
6936.00,0.58
6935.00,0.58
6934.00,0.58
6933.00,0.58
6932.00,0.58
6931.00,0.57
6930.00,0.57
6929.00,0.57
6928.00,0.57
6927.00,0.57
6926.00,0.57
6925.00,0.57
6924.00,0.57
6923.00,0.57
6922.00,0.57
6921.00,0.57
6920.00,0.57
6919.00,0.57
6918.00,0.58
6917.00,0.58
6916.00,0.58
6915.00,0.58
6914.00,0.58
6913.00,0.58
6912.00,0.58
6911.00,0.58
6910.00,0.58
6909.00,0.58
6908.00,0.58
6907.00,0.58
6906.00,0.58
6905.00,0.58
6904.00,0.58
6903.00,0.58
6902.00,0.58
6901.00,0.58
6900.00,0.58
6899.00,0.58
6898.00,0.58
6897.00,0.58
6896.00,0.58
6895.00,0.58
6894.00,0.58
6893.00,0.58
6892.00,0.58
6891.00,0.58
6890.00,0.58
6889.00,0.58
6888.00,0.58
6887.00,0.58
6886.00,0.58
6885.00,0.58
6884.00,0.58
6883.00,0.58
6882.00,0.58
6881.00,0.58
6880.00,0.58
6879.00,0.58
6878.00,0.58
6877.00,0.58
6876.00,0.58
6875.00,0.58
6874.00,0.58
6873.00,0.58
6872.00,0.58
6871.00,0.58
6870.00,0.58
6869.00,0.58
6868.00,0.58
6867.00,0.58
6866.00,0.58
6865.00,0.58
6864.00,0.58
6863.00,0.58
6862.00,0.58
6861.00,0.58
6860.00,0.58
6859.00,0.58
6858.00,0.58
6857.00,0.58
6856.00,0.58
6855.00,0.58
6854.00,0.58
6853.00,0.58
6852.00,0.58
6851.00,0.58
6850.00,0.58
6849.00,0.58
6848.00,0.58
6847.00,0.58
6846.00,0.58
6845.00,0.58
6844.00,0.58
6843.00,0.58
6842.00,0.58
6841.00,0.58
6840.00,0.58
6839.00,0.58
6838.00,0.58
6837.00,0.58
6836.00,0.58
6835.00,0.58
6834.00,0.58
6833.00,0.58
6832.00,0.58
6831.00,0.58
6830.00,0.58
6829.00,0.58
6828.00,0.58
6827.00,0.59
6826.00,0.59
6825.00,0.59
6824.00,0.59
6823.00,0.59
6822.00,0.59
6821.00,0.59
6820.00,0.59
6819.00,0.59
6818.00,0.59
6817.00,0.59
6816.00,0.59
6815.00,0.59
6814.00,0.59
6813.00,0.59
6812.00,0.59
6811.00,0.59
6810.00,0.59
6809.00,0.59
6808.00,0.59
6807.00,0.59
6806.00,0.59
6805.00,0.59
6804.00,0.59
6803.00,0.59
6802.00,0.59
6801.00,0.59
6800.00,0.59
6799.00,0.59
6798.00,0.59
6797.00,0.59
6796.00,0.59
6795.00,0.59
6794.00,0.59
6793.00,0.59
6792.00,0.59
6791.00,0.59
6790.00,0.59
6789.00,0.59
6788.00,0.59
6787.00,0.60
6786.00,0.60
6785.00,0.60
6784.00,0.60
6783.00,0.60
6782.00,0.60
6781.00,0.60
6780.00,0.60
6779.00,0.60
6778.00,0.60
6777.00,0.60
6776.00,0.61
6775.00,0.61
6774.00,0.61
6773.00,0.61
6772.00,0.61
6771.00,0.61
6770.00,0.61
6769.00,0.61
6768.00,0.61
6767.00,0.61
6766.00,0.61
6765.00,0.61
6764.00,0.61
6763.00,0.61
6762.00,0.61
6761.00,0.61
6760.00,0.61
6759.00,0.61
6758.00,0.61
6757.00,0.61
6756.00,0.61
6755.00,0.61
6754.00,0.61
6753.00,0.61
6752.00,0.62
6751.00,0.62
6750.00,0.62
6749.00,0.62
6748.00,0.62
6747.00,0.62
6746.00,0.62
6745.00,0.62
6744.00,0.62
6743.00,0.62
6742.00,0.62
6741.00,0.62
6740.00,0.62
6739.00,0.62
6738.00,0.62
6737.00,0.62
6736.00,0.62
6735.00,0.62
6734.00,0.62
6733.00,0.62
6732.00,0.62
6731.00,0.62
6730.00,0.62
6729.00,0.62
6728.00,0.62
6727.00,0.63
6726.00,0.63
6725.00,0.63
6724.00,0.63
6723.00,0.63
6722.00,0.63
6721.00,0.63
6720.00,0.63
6719.00,0.64
6718.00,0.64
6717.00,0.64
6716.00,0.64
6715.00,0.64
6714.00,0.64
6713.00,0.64
6712.00,0.64
6711.00,0.64
6710.00,0.65
6709.00,0.65
6708.00,0.65
6707.00,0.65
6706.00,0.65
6705.00,0.65
6704.00,0.65
6703.00,0.65
6702.00,0.65
6701.00,0.65
6700.00,0.65
6699.00,0.65
6698.00,0.65
6697.00,0.65
6696.00,0.65
6695.00,0.65
6694.00,0.65
6693.00,0.65
6692.00,0.65
6691.00,0.65
6690.00,0.65
6689.00,0.66
6688.00,0.66
6687.00,0.66
6686.00,0.66
6685.00,0.66
6684.00,0.66
6683.00,0.66
6682.00,0.66
6681.00,0.66
6680.00,0.66
6679.00,0.66
6678.00,0.66
6677.00,0.66
6676.00,0.66
6675.00,0.66
6674.00,0.67
6673.00,0.67
6672.00,0.67
6671.00,0.67
6670.00,0.67
6669.00,0.67
6668.00,0.67
6667.00,0.67
6666.00,0.67
6665.00,0.67
6664.00,0.68
6663.00,0.68
6662.00,0.68
6661.00,0.68
6660.00,0.68
6659.00,0.68
6658.00,0.68
6657.00,0.68
6656.00,0.68
6655.00,0.68
6654.00,0.68
6653.00,0.68
6652.00,0.68
6651.00,0.68
6650.00,0.69
6649.00,0.69
6648.00,0.69
6647.00,0.69
6646.00,0.69
6645.00,0.69
6644.00,0.69
6643.00,0.69
6642.00,0.69
6641.00,0.69
6640.00,0.69
6639.00,0.70
6638.00,0.70
6637.00,0.70
6636.00,0.70
6635.00,0.70
6634.00,0.70
6633.00,0.70
6632.00,0.70
6631.00,0.70
6630.00,0.71
6629.00,0.71
6628.00,0.71
6627.00,0.71
6626.00,0.71
6625.00,0.71
6624.00,0.71
6623.00,0.71
6622.00,0.71
6621.00,0.71
6620.00,0.71
6619.00,0.71
6618.00,0.72
6617.00,0.72
6616.00,0.72
6615.00,0.72
6614.00,0.72
6613.00,0.72
6612.00,0.72
6611.00,0.72
6610.00,0.72
6609.00,0.72
6608.00,0.72
6607.00,0.73
6606.00,0.73
6605.00,0.73
6604.00,0.73
6603.00,0.73
6602.00,0.73
6601.00,0.73
6600.00,0.73
6599.00,0.73
6598.00,0.73
6597.00,0.73
6596.00,0.73
6595.00,0.73
6594.00,0.73
6593.00,0.73
6592.00,0.73
6591.00,0.73
6590.00,0.73
6589.00,0.74
6588.00,0.74
6587.00,0.74
6586.00,0.74
6585.00,0.74
6584.00,0.74
6583.00,0.74
6582.00,0.74
6581.00,0.74
6580.00,0.74
6579.00,0.74
6578.00,0.75
6577.00,0.75
6576.00,0.75
6575.00,0.75
6574.00,0.75
6573.00,0.75
6572.00,0.75
6571.00,0.75
6570.00,0.75
6569.00,0.75
6568.00,0.76
6567.00,0.76
6566.00,0.76
6565.00,0.76
6564.00,0.76
6563.00,0.76
6562.00,0.76
6561.00,0.76
6560.00,0.76
6559.00,0.76
6558.00,0.76
6557.00,0.76
6556.00,0.76
6555.00,0.77
6554.00,0.77
6553.00,0.77
6552.00,0.77
6551.00,0.77
6550.00,0.77
6549.00,0.77
6548.00,0.77
6547.00,0.77
6546.00,0.77
6545.00,0.77
6544.00,0.77
6543.00,0.77
6542.00,0.77
6541.00,0.77
6540.00,0.77
6539.00,0.77
6538.00,0.77
6537.00,0.77
6536.00,0.78
6535.00,0.78
6534.00,0.78
6533.00,0.78
6532.00,0.78
6531.00,0.78
6530.00,0.78
6529.00,0.78
6528.00,0.78
6527.00,0.78
6526.00,0.78
6525.00,0.78
6524.00,0.78
6523.00,0.78
6522.00,0.78
6521.00,0.78
6520.00,0.78
6519.00,0.79
6518.00,0.79
6517.00,0.79
6516.00,0.79
6515.00,0.79
6514.00,0.79
6513.00,0.79
6512.00,0.79
6511.00,0.79
6510.00,0.79
6509.00,0.79
6508.00,0.79
6507.00,0.79
6506.00,0.79
6505.00,0.79
6504.00,0.79
6503.00,0.79
6502.00,0.79
6501.00,0.80
6500.00,0.80
6499.00,0.80
6498.00,0.80
6497.00,0.80
6496.00,0.80
6495.00,0.80
6494.00,0.80
6493.00,0.80
6492.00,0.80
6491.00,0.80
6490.00,0.80
6489.00,0.80
6488.00,0.81
6487.00,0.81
6486.00,0.81
6485.00,0.81
6484.00,0.81
6483.00,0.81
6482.00,0.81
6481.00,0.81
6480.00,0.81
6479.00,0.81
6478.00,0.81
6477.00,0.81
6476.00,0.81
6475.00,0.81
6474.00,0.81
6473.00,0.81
6472.00,0.81
6471.00,0.82
6470.00,0.82
6469.00,0.82
6468.00,0.82
6467.00,0.82
6466.00,0.82
6465.00,0.82
6464.00,0.82
6463.00,0.82
6462.00,0.82
6461.00,0.82
6460.00,0.82
6459.00,0.82
6458.00,0.82
6457.00,0.82
6456.00,0.82
6455.00,0.82
6454.00,0.82
6453.00,0.82
6452.00,0.82
6451.00,0.82
6450.00,0.82
6449.00,0.82
6448.00,0.82
6447.00,0.82
6446.00,0.82
6445.00,0.82
6444.00,0.82
6443.00,0.82
6442.00,0.82
6441.00,0.82
6440.00,0.82
6439.00,0.82
6438.00,0.83
6437.00,0.83
6436.00,0.83
6435.00,0.83
6434.00,0.83
6433.00,0.83
6432.00,0.83
6431.00,0.83
6430.00,0.83
6429.00,0.83
6428.00,0.83
6427.00,0.83
6426.00,0.83
6425.00,0.83
6424.00,0.84
6423.00,0.84
6422.00,0.84
6421.00,0.84
6420.00,0.84
6419.00,0.84
6418.00,0.84
6417.00,0.84
6416.00,0.84
6415.00,0.84
6414.00,0.84
6413.00,0.84
6412.00,0.84
6411.00,0.84
6410.00,0.84
6409.00,0.84
6408.00,0.84
6407.00,0.84
6406.00,0.85
6405.00,0.85
6404.00,0.85
6403.00,0.85
6402.00,0.85
6401.00,0.85
6400.00,0.85
6399.00,0.85
6398.00,0.85
6397.00,0.85
6396.00,0.85
6395.00,0.85
6394.00,0.85
6393.00,0.85
6392.00,0.85
6391.00,0.85
6390.00,0.85
6389.00,0.85
6388.00,0.85
6387.00,0.85
6386.00,0.85
6385.00,0.85
6384.00,0.85
6383.00,0.85
6382.00,0.85
6381.00,0.85
6380.00,0.85
6379.00,0.85
6378.00,0.86
6377.00,0.86
6376.00,0.86
6375.00,0.86
6374.00,0.86
6373.00,0.86
6372.00,0.86
6371.00,0.86
6370.00,0.86
6369.00,0.86
6368.00,0.86
6367.00,0.86
6366.00,0.86
6365.00,0.86
6364.00,0.86
6363.00,0.86
6362.00,0.86
6361.00,0.86
6360.00,0.86
6359.00,0.86
6358.00,0.87
6357.00,0.87
6356.00,0.87
6355.00,0.87
6354.00,0.87
6353.00,0.87
6352.00,0.87
6351.00,0.87
6350.00,0.87
6349.00,0.87
6348.00,0.87
6347.00,0.88
6346.00,0.88
6345.00,0.88
6344.00,0.88
6343.00,0.88
6342.00,0.88
6341.00,0.88
6340.00,0.88
6339.00,0.88
6338.00,0.89
6337.00,0.89
6336.00,0.89
6335.00,0.89
6334.00,0.89
6333.00,0.89
6332.00,0.89
6331.00,0.89
6330.00,0.89
6329.00,0.89
6328.00,0.89
6327.00,0.89
6326.00,0.89
6325.00,0.89
6324.00,0.90
6323.00,0.90
6322.00,0.90
6321.00,0.90
6320.00,0.90
6319.00,0.90
6318.00,0.90
6317.00,0.90
6316.00,0.90
6315.00,0.90
6314.00,0.90
6313.00,0.90
6312.00,0.90
6311.00,0.90
6310.00,0.91
6309.00,0.91
6308.00,0.91
6307.00,0.91
6306.00,0.91
6305.00,0.91
6304.00,0.91
6303.00,0.91
6302.00,0.91
6301.00,0.91
6300.00,0.91
6299.00,0.91
6298.00,0.91
6297.00,0.91
6296.00,0.92
6295.00,0.92
6294.00,0.92
6293.00,0.92
6292.00,0.92
6291.00,0.92
6290.00,0.92
6289.00,0.92
6288.00,0.92
6287.00,0.92
6286.00,0.92
6285.00,0.93
6284.00,0.93
6283.00,0.93
6282.00,0.93
6281.00,0.93
6280.00,0.93
6279.00,0.93
6278.00,0.93
6277.00,0.93
6276.00,0.93
6275.00,0.93
6274.00,0.93
6273.00,0.94
6272.00,0.94
6271.00,0.94
6270.00,0.94
6269.00,0.94
6268.00,0.94
6267.00,0.94
6266.00,0.94
6265.00,0.94
6264.00,0.94
6263.00,0.94
6262.00,0.95
6261.00,0.95
6260.00,0.95
6259.00,0.95
6258.00,0.95
6257.00,0.95
6256.00,0.95
6255.00,0.95
6254.00,0.95
6253.00,0.95
6252.00,0.96
6251.00,0.96
6250.00,0.96
6249.00,0.96
6248.00,0.96
6247.00,0.96
6246.00,0.96
6245.00,0.96
6244.00,0.96
6243.00,0.97
6242.00,0.97
6241.00,0.97
6240.00,0.97
6239.00,0.97
6238.00,0.97
6237.00,0.97
6236.00,0.98
6235.00,0.98
6234.00,0.98
6233.00,0.98
6232.00,0.98
6231.00,0.98
6230.00,0.99
6229.00,0.99
6228.00,0.99
6227.00,0.99
6226.00,0.99
6225.00,0.99
6224.00,0.99
6223.00,0.99
6222.00,0.99
6221.00,1.00
6220.00,1.00
6219.00,1.00
6218.00,1.00
6217.00,1.00
6216.00,1.00
6215.00,1.00
6214.00,1.00
6213.00,1.00
6212.00,1.00
6211.00,1.00
6210.00,1.00
6209.00,1.00
6208.00,1.00
6207.00,1.00
6206.00,1.00
6205.00,1.00
6204.00,1.00
6203.00,1.00
6202.00,1.00
6201.00,1.01
6200.00,1.01
6199.00,1.01
6198.00,1.01
6197.00,1.01
6196.00,1.01
6195.00,1.01
6194.00,1.01
6193.00,1.01
6192.00,1.01
6191.00,1.01
6190.00,1.02
6189.00,1.02
6188.00,1.02
6187.00,1.02
6186.00,1.02
6185.00,1.02
6184.00,1.02
6183.00,1.02
6182.00,1.02
6181.00,1.02
6180.00,1.03
6179.00,1.03
6178.00,1.03
6177.00,1.03
6176.00,1.03
6175.00,1.03
6174.00,1.03
6173.00,1.03
6172.00,1.03
6171.00,1.04
6170.00,1.04
6169.00,1.04
6168.00,1.04
6167.00,1.04
6166.00,1.04
6165.00,1.04
6164.00,1.04
6163.00,1.04
6162.00,1.04
6161.00,1.05
6160.00,1.05
6159.00,1.05
6158.00,1.05
6157.00,1.05
6156.00,1.05
6155.00,1.05
6154.00,1.05
6153.00,1.05
6152.00,1.06
6151.00,1.06
6150.00,1.06
6149.00,1.06
6148.00,1.06
6147.00,1.06
6146.00,1.06
6145.00,1.06
6144.00,1.07
6143.00,1.07
6142.00,1.07
6141.00,1.07
6140.00,1.07
6139.00,1.07
6138.00,1.07
6137.00,1.07
6136.00,1.07
6135.00,1.07
6134.00,1.08
6133.00,1.08
6132.00,1.08
6131.00,1.08
6130.00,1.08
6129.00,1.08
6128.00,1.08
6127.00,1.08
6126.00,1.09
6125.00,1.09
6124.00,1.09
6123.00,1.09
6122.00,1.09
6121.00,1.09
6120.00,1.09
6119.00,1.10
6118.00,1.10
6117.00,1.10
6116.00,1.10
6115.00,1.10
6114.00,1.10
6113.00,1.10
6112.00,1.11
6111.00,1.11
6110.00,1.11
6109.00,1.11
6108.00,1.11
6107.00,1.11
6106.00,1.11
6105.00,1.11
6104.00,1.11
6103.00,1.11
6102.00,1.11
6101.00,1.11
6100.00,1.11
6099.00,1.11
6098.00,1.11
6097.00,1.12
6096.00,1.12
6095.00,1.12
6094.00,1.12
6093.00,1.12
6092.00,1.12
6091.00,1.12
6090.00,1.12
6089.00,1.12
6088.00,1.12
6087.00,1.12
6086.00,1.12
6085.00,1.13
6084.00,1.13
6083.00,1.13
6082.00,1.13
6081.00,1.13
6080.00,1.13
6079.00,1.13
6078.00,1.14
6077.00,1.14
6076.00,1.14
6075.00,1.14
6074.00,1.14
6073.00,1.14
6072.00,1.14
6071.00,1.15
6070.00,1.15
6069.00,1.15
6068.00,1.15
6067.00,1.15
6066.00,1.15
6065.00,1.15
6064.00,1.15
6063.00,1.15
6062.00,1.15
6061.00,1.16
6060.00,1.16
6059.00,1.16
6058.00,1.16
6057.00,1.16
6056.00,1.16
6055.00,1.16
6054.00,1.16
6053.00,1.16
6052.00,1.16
6051.00,1.16
6050.00,1.16
6049.00,1.16
6048.00,1.16
6047.00,1.16
6046.00,1.16
6045.00,1.16
6044.00,1.16
6043.00,1.16
6042.00,1.16
6041.00,1.16
6040.00,1.16
6039.00,1.16
6038.00,1.16
6037.00,1.16
6036.00,1.16
6035.00,1.17
6034.00,1.17
6033.00,1.17
6032.00,1.17
6031.00,1.17
6030.00,1.17
6029.00,1.17
6028.00,1.17
6027.00,1.17
6026.00,1.17
6025.00,1.17
6024.00,1.17
6023.00,1.17
6022.00,1.17
6021.00,1.17
6020.00,1.17
6019.00,1.17
6018.00,1.17
6017.00,1.17
6016.00,1.17
6015.00,1.17
6014.00,1.17
6013.00,1.17
6012.00,1.17
6011.00,1.17
6010.00,1.17
6009.00,1.17
6008.00,1.17
6007.00,1.17
6006.00,1.17
6005.00,1.17
6004.00,1.17
6003.00,1.16
6002.00,1.16
6001.00,1.16
6000.00,1.16
5999.00,1.16
5998.00,1.16
5997.00,1.16
5996.00,1.16
5995.00,1.16
5994.00,1.16
5993.00,1.16
5992.00,1.16
5991.00,1.16
5990.00,1.15
5989.00,1.15
5988.00,1.15
5987.00,1.15
5986.00,1.15
5985.00,1.15
5984.00,1.14
5983.00,1.14
5982.00,1.14
5981.00,1.14
5980.00,1.13
5979.00,1.13
5978.00,1.13
5977.00,1.13
5976.00,1.12
5975.00,1.12
5974.00,1.12
5973.00,1.11
5972.00,1.11
5971.00,1.11
5970.00,1.10
5969.00,1.10
5968.00,1.09
5967.00,1.09
5966.00,1.08
5965.00,1.08
5964.00,1.07
5963.00,1.07
5962.00,1.06
5961.00,1.06
5960.00,1.05
5959.00,1.04
5958.00,1.04
5957.00,1.03
5956.00,1.03
5955.00,1.02
5954.00,1.02
5953.00,1.01
5952.00,1.01
5951.00,1.00
5950.00,1.00
5949.00,0.99
5948.00,0.99
5947.00,0.99
5946.00,0.98
5945.00,0.98
5944.00,0.98
5943.00,0.98
5942.00,0.97
5941.00,0.97
5940.00,0.97
5939.00,0.97
5938.00,0.97
5937.00,0.97
5936.00,0.97
5935.00,0.96
5934.00,0.96
5933.00,0.96
5932.00,0.96
5931.00,0.96
5930.00,0.96
5929.00,0.96
5928.00,0.96
5927.00,0.96
5926.00,0.96
5925.00,0.95
5924.00,0.95
5923.00,0.95
5922.00,0.95
5921.00,0.95
5920.00,0.95
5919.00,0.95
5918.00,0.94
5917.00,0.94
5916.00,0.94
5915.00,0.94
5914.00,0.94
5913.00,0.93
5912.00,0.93
5911.00,0.93
5910.00,0.93
5909.00,0.93
5908.00,0.93
5907.00,0.92
5906.00,0.92
5905.00,0.92
5904.00,0.92
5903.00,0.92
5902.00,0.92
5901.00,0.92
5900.00,0.92
5899.00,0.92
5898.00,0.92
5897.00,0.92
5896.00,0.93
5895.00,0.93
5894.00,0.93
5893.00,0.93
5892.00,0.93
5891.00,0.93
5890.00,0.94
5889.00,0.94
5888.00,0.94
5887.00,0.94
5886.00,0.94
5885.00,0.95
5884.00,0.95
5883.00,0.95
5882.00,0.95
5881.00,0.95
5880.00,0.96
5879.00,0.96
5878.00,0.96
5877.00,0.96
5876.00,0.96
5875.00,0.96
5874.00,0.97
5873.00,0.97
5872.00,0.97
5871.00,0.97
5870.00,0.97
5869.00,0.98
5868.00,0.98
5867.00,0.98
5866.00,0.98
5865.00,0.98
5864.00,0.98
5863.00,0.99
5862.00,0.99
5861.00,0.99
5860.00,0.99
5859.00,0.99
5858.00,0.99
5857.00,0.99
5856.00,0.99
5855.00,1.00
5854.00,1.00
5853.00,1.00
5852.00,1.00
5851.00,1.00
5850.00,1.00
5849.00,1.00
5848.00,1.00
5847.00,1.00
5846.00,1.00
5845.00,1.00
5844.00,1.00
5843.00,1.00
5842.00,1.00
5841.00,1.00
5840.00,1.00
5839.00,1.00
5838.00,1.00
5837.00,1.00
5836.00,1.00
5835.00,1.00
5834.00,1.00
5833.00,1.00
5832.00,1.00
5831.00,1.00
5830.00,1.00
5829.00,1.00
5828.00,1.00
5827.00,1.00
5826.00,1.00
5825.00,1.00
5824.00,1.00
5823.00,1.00
5822.00,1.00
5821.00,1.00
5820.00,1.00
5819.00,1.00
5818.00,1.00
5817.00,1.00
5816.00,1.00
5815.00,1.00
5814.00,1.00
5813.00,1.00
5812.00,1.00
5811.00,1.00
5810.00,1.00
5809.00,1.00
5808.00,1.00
5807.00,1.00
5806.00,1.00
5805.00,1.00
5804.00,1.00
5803.00,1.00
5802.00,1.00
5801.00,1.00
5800.00,1.00
5799.00,0.99
5798.00,0.99
5797.00,0.99
5796.00,0.99
5795.00,0.99
5794.00,0.99
5793.00,0.98
5792.00,0.98
5791.00,0.98
5790.00,0.98
5789.00,0.98
5788.00,0.98
5787.00,0.97
5786.00,0.97
5785.00,0.97
5784.00,0.97
5783.00,0.97
5782.00,0.97
5781.00,0.96
5780.00,0.96
5779.00,0.96
5778.00,0.96
5777.00,0.96
5776.00,0.96
5775.00,0.96
5774.00,0.96
5773.00,0.96
5772.00,0.96
5771.00,0.96
5770.00,0.96
5769.00,0.96
5768.00,0.96
5767.00,0.96
5766.00,0.96
5765.00,0.96
5764.00,0.97
5763.00,0.97
5762.00,0.97
5761.00,0.97
5760.00,0.97
5759.00,0.98
5758.00,0.98
5757.00,0.98
5756.00,0.98
5755.00,0.99
5754.00,0.99
5753.00,0.99
5752.00,0.99
5751.00,1.00
5750.00,1.00
5749.00,1.00
5748.00,1.01
5747.00,1.01
5746.00,1.01
5745.00,1.01
5744.00,1.02
5743.00,1.02
5742.00,1.02
5741.00,1.02
5740.00,1.03
5739.00,1.03
5738.00,1.03
5737.00,1.03
5736.00,1.03
5735.00,1.04
5734.00,1.04
5733.00,1.04
5732.00,1.04
5731.00,1.04
5730.00,1.04
5729.00,1.04
5728.00,1.04
5727.00,1.04
5726.00,1.04
5725.00,1.05
5724.00,1.05
5723.00,1.05
5722.00,1.05
5721.00,1.05
5720.00,1.05
5719.00,1.05
5718.00,1.05
5717.00,1.05
5716.00,1.05
5715.00,1.05
5714.00,1.05
5713.00,1.05
5712.00,1.05
5711.00,1.05
5710.00,1.05
5709.00,1.05
5708.00,1.05
5707.00,1.05
5706.00,1.05
5705.00,1.05
5704.00,1.05
5703.00,1.05
5702.00,1.05
5701.00,1.05
5700.00,1.04
5699.00,1.04
5698.00,1.04
5697.00,1.04
5696.00,1.04
5695.00,1.04
5694.00,1.04
5693.00,1.04
5692.00,1.04
5691.00,1.04
5690.00,1.03
5689.00,1.03
5688.00,1.03
5687.00,1.03
5686.00,1.03
5685.00,1.03
5684.00,1.03
5683.00,1.03
5682.00,1.03
5681.00,1.02
5680.00,1.02
5679.00,1.02
5678.00,1.02
5677.00,1.02
5676.00,1.02
5675.00,1.02
5674.00,1.02
5673.00,1.02
5672.00,1.02
5671.00,1.02
5670.00,1.02
5669.00,1.02
5668.00,1.02
5667.00,1.02
5666.00,1.02
5665.00,1.03
5664.00,1.03
5663.00,1.03
5662.00,1.03
5661.00,1.03
5660.00,1.03
5659.00,1.03
5658.00,1.03
5657.00,1.04
5656.00,1.04
5655.00,1.04
5654.00,1.04
5653.00,1.04
5652.00,1.04
5651.00,1.04
5650.00,1.05
5649.00,1.05
5648.00,1.05
5647.00,1.05
5646.00,1.05
5645.00,1.05
5644.00,1.05
5643.00,1.05
5642.00,1.05
5641.00,1.05
5640.00,1.05
5639.00,1.06
5638.00,1.06
5637.00,1.06
5636.00,1.06
5635.00,1.06
5634.00,1.06
5633.00,1.06
5632.00,1.06
5631.00,1.06
5630.00,1.07
5629.00,1.07
5628.00,1.07
5627.00,1.07
5626.00,1.07
5625.00,1.07
5624.00,1.07
5623.00,1.08
5622.00,1.08
5621.00,1.08
5620.00,1.08
5619.00,1.08
5618.00,1.08
5617.00,1.09
5616.00,1.09
5615.00,1.09
5614.00,1.09
5613.00,1.09
5612.00,1.09
5611.00,1.09
5610.00,1.10
5609.00,1.10
5608.00,1.10
5607.00,1.10
5606.00,1.10
5605.00,1.10
5604.00,1.10
5603.00,1.10
5602.00,1.11
5601.00,1.11
5600.00,1.11
5599.00,1.11
5598.00,1.11
5597.00,1.11
5596.00,1.11
5595.00,1.11
5594.00,1.11
5593.00,1.12
5592.00,1.12
5591.00,1.12
5590.00,1.12
5589.00,1.12
5588.00,1.12
5587.00,1.12
5586.00,1.12
5585.00,1.13
5584.00,1.13
5583.00,1.13
5582.00,1.13
5581.00,1.13
5580.00,1.13
5579.00,1.14
5578.00,1.14
5577.00,1.14
5576.00,1.14
5575.00,1.14
5574.00,1.14
5573.00,1.14
5572.00,1.14
5571.00,1.14
5570.00,1.14
5569.00,1.14
5568.00,1.15
5567.00,1.15
5566.00,1.15
5565.00,1.15
5564.00,1.15
5563.00,1.15
5562.00,1.15
5561.00,1.15
5560.00,1.15
5559.00,1.15
5558.00,1.15
5557.00,1.16
5556.00,1.16
5555.00,1.16
5554.00,1.16
5553.00,1.16
5552.00,1.16
5551.00,1.16
5550.00,1.16
5549.00,1.16
5548.00,1.17
5547.00,1.17
5546.00,1.17
5545.00,1.17
5544.00,1.17
5543.00,1.17
5542.00,1.17
5541.00,1.17
5540.00,1.17
5539.00,1.17
5538.00,1.18
5537.00,1.18
5536.00,1.18
5535.00,1.18
5534.00,1.18
5533.00,1.18
5532.00,1.18
5531.00,1.18
5530.00,1.18
5529.00,1.18
5528.00,1.18
5527.00,1.18
5526.00,1.19
5525.00,1.19
5524.00,1.19
5523.00,1.19
5522.00,1.19
5521.00,1.19
5520.00,1.19
5519.00,1.19
5518.00,1.19
5517.00,1.19
5516.00,1.19
5515.00,1.19
5514.00,1.19
5513.00,1.19
5512.00,1.19
5511.00,1.19
5510.00,1.19
5509.00,1.19
5508.00,1.19
5507.00,1.19
5506.00,1.19
5505.00,1.19
5504.00,1.20
5503.00,1.20
5502.00,1.20
5501.00,1.20
5500.00,1.20
5499.00,1.20
5498.00,1.20
5497.00,1.20
5496.00,1.20
5495.00,1.20
5494.00,1.20
5493.00,1.20
5492.00,1.20
5491.00,1.20
5490.00,1.20
5489.00,1.20
5488.00,1.20
5487.00,1.20
5486.00,1.21
5485.00,1.21
5484.00,1.21
5483.00,1.21
5482.00,1.21
5481.00,1.21
5480.00,1.21
5479.00,1.21
5478.00,1.21
5477.00,1.21
5476.00,1.21
5475.00,1.22
5474.00,1.22
5473.00,1.22
5472.00,1.22
5471.00,1.22
5470.00,1.22
5469.00,1.22
5468.00,1.22
5467.00,1.23
5466.00,1.23
5465.00,1.23
5464.00,1.23
5463.00,1.23
5462.00,1.23
5461.00,1.23
5460.00,1.23
5459.00,1.23
5458.00,1.23
5457.00,1.24
5456.00,1.24
5455.00,1.24
5454.00,1.24
5453.00,1.24
5452.00,1.24
5451.00,1.24
5450.00,1.24
5449.00,1.24
5448.00,1.24
5447.00,1.24
5446.00,1.24
5445.00,1.24
5444.00,1.24
5443.00,1.24
5442.00,1.24
5441.00,1.24
5440.00,1.24
5439.00,1.24
5438.00,1.24
5437.00,1.24
5436.00,1.24
5435.00,1.24
5434.00,1.24
5433.00,1.24
5432.00,1.24
5431.00,1.24
5430.00,1.24
5429.00,1.24
5428.00,1.24
5427.00,1.24
5426.00,1.24
5425.00,1.24
5424.00,1.24
5423.00,1.24
5422.00,1.24
5421.00,1.24
5420.00,1.24
5419.00,1.24
5418.00,1.24
5417.00,1.24
5416.00,1.24
5415.00,1.24
5414.00,1.24
5413.00,1.24
5412.00,1.24
5411.00,1.24
5410.00,1.24
5409.00,1.24
5408.00,1.24
5407.00,1.24
5406.00,1.24
5405.00,1.24
5404.00,1.24
5403.00,1.24
5402.00,1.24
5401.00,1.24
5400.00,1.24
5399.00,1.24
5398.00,1.24
5397.00,1.24
5396.00,1.24
5395.00,1.24
5394.00,1.23
5393.00,1.23
5392.00,1.23
5391.00,1.23
5390.00,1.23
5389.00,1.23
5388.00,1.23
5387.00,1.22
5386.00,1.22
5385.00,1.22
5384.00,1.22
5383.00,1.22
5382.00,1.21
5381.00,1.21
5380.00,1.21
5379.00,1.21
5378.00,1.20
5377.00,1.20
5376.00,1.20
5375.00,1.19
5374.00,1.19
5373.00,1.19
5372.00,1.18
5371.00,1.18
5370.00,1.18
5369.00,1.17
5368.00,1.17
5367.00,1.17
5366.00,1.16
5365.00,1.16
5364.00,1.15
5363.00,1.15
5362.00,1.14
5361.00,1.14
5360.00,1.13
5359.00,1.13
5358.00,1.12
5357.00,1.12
5356.00,1.11
5355.00,1.10
5354.00,1.10
5353.00,1.09
5352.00,1.09
5351.00,1.08
5350.00,1.07
5349.00,1.06
5348.00,1.06
5347.00,1.05
5346.00,1.04
5345.00,1.03
5344.00,1.03
5343.00,1.02
5342.00,1.01
5341.00,1.00
5340.00,0.99
5339.00,0.99
5338.00,0.98
5337.00,0.97
5336.00,0.96
5335.00,0.95
5334.00,0.94
5333.00,0.94
5332.00,0.93
5331.00,0.92
5330.00,0.91
5329.00,0.90
5328.00,0.89
5327.00,0.89
5326.00,0.88
5325.00,0.87
5324.00,0.86
5323.00,0.85
5322.00,0.85
5321.00,0.84
5320.00,0.83
5319.00,0.82
5318.00,0.82
5317.00,0.81
5316.00,0.80
5315.00,0.79
5314.00,0.79
5313.00,0.78
5312.00,0.77
5311.00,0.76
5310.00,0.76
5309.00,0.75
5308.00,0.74
5307.00,0.74
5306.00,0.73
5305.00,0.73
5304.00,0.72
5303.00,0.71
5302.00,0.71
5301.00,0.70
5300.00,0.70
5299.00,0.69
5298.00,0.69
5297.00,0.69
5296.00,0.68
5295.00,0.68
5294.00,0.68
5293.00,0.67
5292.00,0.67
5291.00,0.67
5290.00,0.67
5289.00,0.66
5288.00,0.66
5287.00,0.66
5286.00,0.66
5285.00,0.65
5284.00,0.65
5283.00,0.65
5282.00,0.65
5281.00,0.65
5280.00,0.65
5279.00,0.65
5278.00,0.65
5277.00,0.64
5276.00,0.64
5275.00,0.64
5274.00,0.64
5273.00,0.64
5272.00,0.64
5271.00,0.64
5270.00,0.64
5269.00,0.64
5268.00,0.64
5267.00,0.64
5266.00,0.64
5265.00,0.64
5264.00,0.64
5263.00,0.64
5262.00,0.64
5261.00,0.64
5260.00,0.64
5259.00,0.64
5258.00,0.64
5257.00,0.64
5256.00,0.64
5255.00,0.64
5254.00,0.64
5253.00,0.64
5252.00,0.64
5251.00,0.64
5250.00,0.64
5249.00,0.64
5248.00,0.64
5247.00,0.64
5246.00,0.64
5245.00,0.64
5244.00,0.64
5243.00,0.64
5242.00,0.64
5241.00,0.64
5240.00,0.64
5239.00,0.63
5238.00,0.63
5237.00,0.63
5236.00,0.63
5235.00,0.63
5234.00,0.63
5233.00,0.63
5232.00,0.63
5231.00,0.63
5230.00,0.63
5229.00,0.63
5228.00,0.64
5227.00,0.64
5226.00,0.64
5225.00,0.64
5224.00,0.64
5223.00,0.64
5222.00,0.64
5221.00,0.64
5220.00,0.64
5219.00,0.64
5218.00,0.64
5217.00,0.64
5216.00,0.64
5215.00,0.64
5214.00,0.64
5213.00,0.64
5212.00,0.64
5211.00,0.64
5210.00,0.64
5209.00,0.64
5208.00,0.64
5207.00,0.64
5206.00,0.64
5205.00,0.64
5204.00,0.64
5203.00,0.64
5202.00,0.64
5201.00,0.65
5200.00,0.65
5199.00,0.65
5198.00,0.65
5197.00,0.65
5196.00,0.65
5195.00,0.65
5194.00,0.65
5193.00,0.65
5192.00,0.65
5191.00,0.65
5190.00,0.65
5189.00,0.65
5188.00,0.65
5187.00,0.65
5186.00,0.65
5185.00,0.65
5184.00,0.65
5183.00,0.65
5182.00,0.65
5181.00,0.65
5180.00,0.65
5179.00,0.65
5178.00,0.65
5177.00,0.65
5176.00,0.65
5175.00,0.65
5174.00,0.65
5173.00,0.65
5172.00,0.66
5171.00,0.66
5170.00,0.66
5169.00,0.66
5168.00,0.66
5167.00,0.66
5166.00,0.66
5165.00,0.66
5164.00,0.66
5163.00,0.66
5162.00,0.66
5161.00,0.66
5160.00,0.66
5159.00,0.66
5158.00,0.66
5157.00,0.66
5156.00,0.66
5155.00,0.66
5154.00,0.66
5153.00,0.66
5152.00,0.66
5151.00,0.66
5150.00,0.66
5149.00,0.66
5148.00,0.66
5147.00,0.66
5146.00,0.66
5145.00,0.66
5144.00,0.66
5143.00,0.66
5142.00,0.66
5141.00,0.66
5140.00,0.66
5139.00,0.66
5138.00,0.66
5137.00,0.66
5136.00,0.66
5135.00,0.66
5134.00,0.66
5133.00,0.66
5132.00,0.66
5131.00,0.66
5130.00,0.67
5129.00,0.67
5128.00,0.67
5127.00,0.67
5126.00,0.67
5125.00,0.67
5124.00,0.67
5123.00,0.67
5122.00,0.67
5121.00,0.67
5120.00,0.67
5119.00,0.68
5118.00,0.68
5117.00,0.68
5116.00,0.68
5115.00,0.68
5114.00,0.68
5113.00,0.68
5112.00,0.68
5111.00,0.68
5110.00,0.68
5109.00,0.68
5108.00,0.68
5107.00,0.68
5106.00,0.68
5105.00,0.68
5104.00,0.68
5103.00,0.68
5102.00,0.68
5101.00,0.68
5100.00,0.68
5099.00,0.68
5098.00,0.68
5097.00,0.68
5096.00,0.68
5095.00,0.68
5094.00,0.68
5093.00,0.68
5092.00,0.69
5091.00,0.69
5090.00,0.69
5089.00,0.69
5088.00,0.69
5087.00,0.69
5086.00,0.69
5085.00,0.69
5084.00,0.69
5083.00,0.69
5082.00,0.69
5081.00,0.69
5080.00,0.69
5079.00,0.69
5078.00,0.69
5077.00,0.69
5076.00,0.69
5075.00,0.69
5074.00,0.69
5073.00,0.69
5072.00,0.69
5071.00,0.70
5070.00,0.70
5069.00,0.70
5068.00,0.70
5067.00,0.70
5066.00,0.70
5065.00,0.70
5064.00,0.70
5063.00,0.70
5062.00,0.70
5061.00,0.71
5060.00,0.71
5059.00,0.71
5058.00,0.71
5057.00,0.71
5056.00,0.71
5055.00,0.71
5054.00,0.71
5053.00,0.71
5052.00,0.71
5051.00,0.71
5050.00,0.71
5049.00,0.71
5048.00,0.72
5047.00,0.72
5046.00,0.72
5045.00,0.72
5044.00,0.72
5043.00,0.72
5042.00,0.72
5041.00,0.72
5040.00,0.72
5039.00,0.72
5038.00,0.72
5037.00,0.72
5036.00,0.72
5035.00,0.72
5034.00,0.72
5033.00,0.72
5032.00,0.72
5031.00,0.72
5030.00,0.72
5029.00,0.72
5028.00,0.72
5027.00,0.72
5026.00,0.72
5025.00,0.72
5024.00,0.72
5023.00,0.73
5022.00,0.73
5021.00,0.73
5020.00,0.73
5019.00,0.73
5018.00,0.73
5017.00,0.73
5016.00,0.73
5015.00,0.73
5014.00,0.73
5013.00,0.73
5012.00,0.73
5011.00,0.73
5010.00,0.74
5009.00,0.74
5008.00,0.74
5007.00,0.74
5006.00,0.74
5005.00,0.74
5004.00,0.74
5003.00,0.74
5002.00,0.74
5001.00,0.74
5000.00,0.74
4999.00,0.74
4998.00,0.74
4997.00,0.74
4996.00,0.74
4995.00,0.75
4994.00,0.75
4993.00,0.75
4992.00,0.75
4991.00,0.75
4990.00,0.75
4989.00,0.75
4988.00,0.75
4987.00,0.75
4986.00,0.75
4985.00,0.75
4984.00,0.75
4983.00,0.75
4982.00,0.76
4981.00,0.76
4980.00,0.76
4979.00,0.76
4978.00,0.76
4977.00,0.76
4976.00,0.76
4975.00,0.76
4974.00,0.76
4973.00,0.76
4972.00,0.76
4971.00,0.76
4970.00,0.77
4969.00,0.77
4968.00,0.77
4967.00,0.77
4966.00,0.77
4965.00,0.77
4964.00,0.77
4963.00,0.77
4962.00,0.77
4961.00,0.77
4960.00,0.77
4959.00,0.77
4958.00,0.78
4957.00,0.78
4956.00,0.78
4955.00,0.78
4954.00,0.78
4953.00,0.78
4952.00,0.78
4951.00,0.78
4950.00,0.78
4949.00,0.78
4948.00,0.78
4947.00,0.78
4946.00,0.78
4945.00,0.79
4944.00,0.79
4943.00,0.79
4942.00,0.79
4941.00,0.79
4940.00,0.79
4939.00,0.79
4938.00,0.80
4937.00,0.80
4936.00,0.80
4935.00,0.80
4934.00,0.80
4933.00,0.80
4932.00,0.80
4931.00,0.80
4930.00,0.80
4929.00,0.80
4928.00,0.80
4927.00,0.80
4926.00,0.80
4925.00,0.80
4924.00,0.80
4923.00,0.80
4922.00,0.80
4921.00,0.80
4920.00,0.80
4919.00,0.80
4918.00,0.80
4917.00,0.80
4916.00,0.80
4915.00,0.81
4914.00,0.81
4913.00,0.81
4912.00,0.81
4911.00,0.81
4910.00,0.81
4909.00,0.81
4908.00,0.81
4907.00,0.81
4906.00,0.81
4905.00,0.82
4904.00,0.82
4903.00,0.82
4902.00,0.82
4901.00,0.82
4900.00,0.82
4899.00,0.82
4898.00,0.82
4897.00,0.82
4896.00,0.82
4895.00,0.82
4894.00,0.83
4893.00,0.83
4892.00,0.83
4891.00,0.83
4890.00,0.83
4889.00,0.83
4888.00,0.83
4887.00,0.83
4886.00,0.83
4885.00,0.82
4884.00,0.82
4883.00,0.82
4882.00,0.82
4881.00,0.82
4880.00,0.82
4879.00,0.82
4878.00,0.83
4877.00,0.83
4876.00,0.83
4875.00,0.83
4874.00,0.83
4873.00,0.83
4872.00,0.83
4871.00,0.83
4870.00,0.83
4869.00,0.83
4868.00,0.83
4867.00,0.83
4866.00,0.83
4865.00,0.83
4864.00,0.83
4863.00,0.83
4862.00,0.84
4861.00,0.84
4860.00,0.84
4859.00,0.84
4858.00,0.84
4857.00,0.84
4856.00,0.84
4855.00,0.84
4854.00,0.84
4853.00,0.84
4852.00,0.85
4851.00,0.85
4850.00,0.85
4849.00,0.85
4848.00,0.85
4847.00,0.85
4846.00,0.85
4845.00,0.85
4844.00,0.85
4843.00,0.85
4842.00,0.85
4841.00,0.85
4840.00,0.85
4839.00,0.85
4838.00,0.85
4837.00,0.86
4836.00,0.86
4835.00,0.86
4834.00,0.86
4833.00,0.86
4832.00,0.86
4831.00,0.86
4830.00,0.86
4829.00,0.86
4828.00,0.86
4827.00,0.86
4826.00,0.86
4825.00,0.86
4824.00,0.86
4823.00,0.86
4822.00,0.86
4821.00,0.87
4820.00,0.87
4819.00,0.87
4818.00,0.87
4817.00,0.87
4816.00,0.87
4815.00,0.87
4814.00,0.87
4813.00,0.87
4812.00,0.87
4811.00,0.87
4810.00,0.87
4809.00,0.87
4808.00,0.88
4807.00,0.88
4806.00,0.88
4805.00,0.88
4804.00,0.88
4803.00,0.88
4802.00,0.88
4801.00,0.88
4800.00,0.88
4799.00,0.88
4798.00,0.88
4797.00,0.88
4796.00,0.89
4795.00,0.89
4794.00,0.89
4793.00,0.89
4792.00,0.89
4791.00,0.89
4790.00,0.89
4789.00,0.89
4788.00,0.89
4787.00,0.89
4786.00,0.90
4785.00,0.90
4784.00,0.90
4783.00,0.90
4782.00,0.90
4781.00,0.90
4780.00,0.90
4779.00,0.90
4778.00,0.91
4777.00,0.91
4776.00,0.91
4775.00,0.91
4774.00,0.91
4773.00,0.91
4772.00,0.91
4771.00,0.92
4770.00,0.92
4769.00,0.92
4768.00,0.92
4767.00,0.92
4766.00,0.92
4765.00,0.92
4764.00,0.93
4763.00,0.93
4762.00,0.93
4761.00,0.93
4760.00,0.93
4759.00,0.93
4758.00,0.93
4757.00,0.93
4756.00,0.94
4755.00,0.94
4754.00,0.94
4753.00,0.94
4752.00,0.94
4751.00,0.94
4750.00,0.94
4749.00,0.95
4748.00,0.95
4747.00,0.95
4746.00,0.95
4745.00,0.95
4744.00,0.95
4743.00,0.95
4742.00,0.96
4741.00,0.96
4740.00,0.96
4739.00,0.96
4738.00,0.96
4737.00,0.96
4736.00,0.96
4735.00,0.96
4734.00,0.96
4733.00,0.97
4732.00,0.97
4731.00,0.97
4730.00,0.97
4729.00,0.97
4728.00,0.97
4727.00,0.97
4726.00,0.97
4725.00,0.98
4724.00,0.98
4723.00,0.98
4722.00,0.98
4721.00,0.98
4720.00,0.98
4719.00,0.98
4718.00,0.99
4717.00,0.99
4716.00,0.99
4715.00,0.99
4714.00,0.99
4713.00,0.99
4712.00,1.00
4711.00,1.00
4710.00,1.00
4709.00,1.00
4708.00,1.00
4707.00,1.00
4706.00,1.00
4705.00,1.00
4704.00,1.00
4703.00,1.01
4702.00,1.01
4701.00,1.01
4700.00,1.01
4699.00,1.01
4698.00,1.01
4697.00,1.01
4696.00,1.01
4695.00,1.01
4694.00,1.01
4693.00,1.01
4692.00,1.02
4691.00,1.02
4690.00,1.02
4689.00,1.02
4688.00,1.02
4687.00,1.02
4686.00,1.02
4685.00,1.03
4684.00,1.03
4683.00,1.03
4682.00,1.03
4681.00,1.03
4680.00,1.03
4679.00,1.04
4678.00,1.04
4677.00,1.04
4676.00,1.04
4675.00,1.04
4674.00,1.04
4673.00,1.05
4672.00,1.05
4671.00,1.05
4670.00,1.05
4669.00,1.05
4668.00,1.05
4667.00,1.05
4666.00,1.05
4665.00,1.06
4664.00,1.06
4663.00,1.06
4662.00,1.06
4661.00,1.06
4660.00,1.06
4659.00,1.06
4658.00,1.06
4657.00,1.07
4656.00,1.07
4655.00,1.07
4654.00,1.07
4653.00,1.07
4652.00,1.08
4651.00,1.08
4650.00,1.08
4649.00,1.08
4648.00,1.08
4647.00,1.08
4646.00,1.09
4645.00,1.09
4644.00,1.09
4643.00,1.09
4642.00,1.09
4641.00,1.09
4640.00,1.09
4639.00,1.09
4638.00,1.10
4637.00,1.10
4636.00,1.10
4635.00,1.10
4634.00,1.10
4633.00,1.10
4632.00,1.10
4631.00,1.10
4630.00,1.10
4629.00,1.10
4628.00,1.10
4627.00,1.10
4626.00,1.10
4625.00,1.11
4624.00,1.11
4623.00,1.11
4622.00,1.11
4621.00,1.11
4620.00,1.11
4619.00,1.11
4618.00,1.11
4617.00,1.11
4616.00,1.11
4615.00,1.11
4614.00,1.11
4613.00,1.11
4612.00,1.11
4611.00,1.11
4610.00,1.12
4609.00,1.12
4608.00,1.12
4607.00,1.12
4606.00,1.12
4605.00,1.12
4604.00,1.12
4603.00,1.12
4602.00,1.12
4601.00,1.12
4600.00,1.12
4599.00,1.12
4598.00,1.13
4597.00,1.13
4596.00,1.13
4595.00,1.13
4594.00,1.13
4593.00,1.13
4592.00,1.13
4591.00,1.13
4590.00,1.13
4589.00,1.14
4588.00,1.14
4587.00,1.14
4586.00,1.14
4585.00,1.14
4584.00,1.14
4583.00,1.14
4582.00,1.14
4581.00,1.15
4580.00,1.15
4579.00,1.15
4578.00,1.15
4577.00,1.15
4576.00,1.15
4575.00,1.15
4574.00,1.15
4573.00,1.15
4572.00,1.16
4571.00,1.16
4570.00,1.16
4569.00,1.16
4568.00,1.16
4567.00,1.16
4566.00,1.16
4565.00,1.16
4564.00,1.16
4563.00,1.16
4562.00,1.16
4561.00,1.17
4560.00,1.17
4559.00,1.17
4558.00,1.17
4557.00,1.17
4556.00,1.17
4555.00,1.17
4554.00,1.17
4553.00,1.17
4552.00,1.17
4551.00,1.17
4550.00,1.17
4549.00,1.17
4548.00,1.17
4547.00,1.17
4546.00,1.17
4545.00,1.17
4544.00,1.18
4543.00,1.18
4542.00,1.18
4541.00,1.18
4540.00,1.18
4539.00,1.18
4538.00,1.18
4537.00,1.18
4536.00,1.18
4535.00,1.18
4534.00,1.18
4533.00,1.18
4532.00,1.18
4531.00,1.19
4530.00,1.19
4529.00,1.19
4528.00,1.19
4527.00,1.19
4526.00,1.19
4525.00,1.19
4524.00,1.19
4523.00,1.19
4522.00,1.19
4521.00,1.20
4520.00,1.20
4519.00,1.20
4518.00,1.20
4517.00,1.20
4516.00,1.20
4515.00,1.20
4514.00,1.20
4513.00,1.19
4512.00,1.19
4511.00,1.19
4510.00,1.19
4509.00,1.19
4508.00,1.19
4507.00,1.19
4506.00,1.19
4505.00,1.19
4504.00,1.19
4503.00,1.19
4502.00,1.19
4501.00,1.19
4500.00,1.19
4499.00,1.19
4498.00,1.19
4497.00,1.19
4496.00,1.18
4495.00,1.18
4494.00,1.18
4493.00,1.18
4492.00,1.18
4491.00,1.18
4490.00,1.18
4489.00,1.18
4488.00,1.18
4487.00,1.17
4486.00,1.17
4485.00,1.17
4484.00,1.17
4483.00,1.17
4482.00,1.17
4481.00,1.17
4480.00,1.16
4479.00,1.16
4478.00,1.16
4477.00,1.16
4476.00,1.16
4475.00,1.16
4474.00,1.15
4473.00,1.15
4472.00,1.15
4471.00,1.15
4470.00,1.14
4469.00,1.14
4468.00,1.14
4467.00,1.14
4466.00,1.13
4465.00,1.13
4464.00,1.13
4463.00,1.13
4462.00,1.12
4461.00,1.12
4460.00,1.12
4459.00,1.11
4458.00,1.11
4457.00,1.11
4456.00,1.11
4455.00,1.10
4454.00,1.10
4453.00,1.10
4452.00,1.09
4451.00,1.09
4450.00,1.09
4449.00,1.08
4448.00,1.08
4447.00,1.08
4446.00,1.07
4445.00,1.07
4444.00,1.07
4443.00,1.06
4442.00,1.06
4441.00,1.05
4440.00,1.05
4439.00,1.05
4438.00,1.04
4437.00,1.04
4436.00,1.04
4435.00,1.03
4434.00,1.03
4433.00,1.03
4432.00,1.03
4431.00,1.02
4430.00,1.02
4429.00,1.02
4428.00,1.01
4427.00,1.01
4426.00,1.01
4425.00,1.01
4424.00,1.01
4423.00,1.00
4422.00,1.00
4421.00,1.00
4420.00,1.00
4419.00,1.00
4418.00,1.00
4417.00,1.00
4416.00,0.99
4415.00,0.99
4414.00,0.99
4413.00,0.99
4412.00,0.99
4411.00,0.99
4410.00,0.99
4409.00,0.99
4408.00,0.99
4407.00,0.99
4406.00,0.99
4405.00,0.99
4404.00,0.99
4403.00,0.99
4402.00,0.99
4401.00,1.00
4400.00,1.00
4399.00,1.00
4398.00,1.00
4397.00,1.00
4396.00,1.00
4395.00,1.00
4394.00,1.00
4393.00,1.01
4392.00,1.01
4391.00,1.01
4390.00,1.01
4389.00,1.01
4388.00,1.01
4387.00,1.01
4386.00,1.01
4385.00,1.02
4384.00,1.02
4383.00,1.02
4382.00,1.02
4381.00,1.02
4380.00,1.02
4379.00,1.02
4378.00,1.02
4377.00,1.02
4376.00,1.03
4375.00,1.03
4374.00,1.03
4373.00,1.03
4372.00,1.03
4371.00,1.03
4370.00,1.03
4369.00,1.03
4368.00,1.03
4367.00,1.03
4366.00,1.03
4365.00,1.03
4364.00,1.03
4363.00,1.03
4362.00,1.03
4361.00,1.03
4360.00,1.04
4359.00,1.04
4358.00,1.04
4357.00,1.04
4356.00,1.04
4355.00,1.04
4354.00,1.04
4353.00,1.04
4352.00,1.04
4351.00,1.04
4350.00,1.04
4349.00,1.04
4348.00,1.04
4347.00,1.04
4346.00,1.04
4345.00,1.04
4344.00,1.04
4343.00,1.04
4342.00,1.04
4341.00,1.04
4340.00,1.04
4339.00,1.04
4338.00,1.04
4337.00,1.04
4336.00,1.04
4335.00,1.04
4334.00,1.04
4333.00,1.04
4332.00,1.04
4331.00,1.04
4330.00,1.05
4329.00,1.05
4328.00,1.05
4327.00,1.05
4326.00,1.05
4325.00,1.05
4324.00,1.05
4323.00,1.05
4322.00,1.05
4321.00,1.06
4320.00,1.06
4319.00,1.06
4318.00,1.06
4317.00,1.06
4316.00,1.06
4315.00,1.06
4314.00,1.06
4313.00,1.06
4312.00,1.06
4311.00,1.07
4310.00,1.07
4309.00,1.07
4308.00,1.07
4307.00,1.07
4306.00,1.07
4305.00,1.08
4304.00,1.08
4303.00,1.08
4302.00,1.08
4301.00,1.08
4300.00,1.08
4299.00,1.09
4298.00,1.09
4297.00,1.09
4296.00,1.09
4295.00,1.09
4294.00,1.10
4293.00,1.10
4292.00,1.10
4291.00,1.10
4290.00,1.10
4289.00,1.10
4288.00,1.10
4287.00,1.10
4286.00,1.11
4285.00,1.11
4284.00,1.11
4283.00,1.11
4282.00,1.11
4281.00,1.11
4280.00,1.11
4279.00,1.11
4278.00,1.11
4277.00,1.11
4276.00,1.11
4275.00,1.11
4274.00,1.11
4273.00,1.11
4272.00,1.11
4271.00,1.11
4270.00,1.11
4269.00,1.11
4268.00,1.11
4267.00,1.11
4266.00,1.10
4265.00,1.10
4264.00,1.10
4263.00,1.10
4262.00,1.10
4261.00,1.10
4260.00,1.10
4259.00,1.10
4258.00,1.10
4257.00,1.10
4256.00,1.10
4255.00,1.10
4254.00,1.10
4253.00,1.10
4252.00,1.10
4251.00,1.10
4250.00,1.10
4249.00,1.10
4248.00,1.10
4247.00,1.10
4246.00,1.10
4245.00,1.11
4244.00,1.11
4243.00,1.11
4242.00,1.11
4241.00,1.11
4240.00,1.11
4239.00,1.12
4238.00,1.12
4237.00,1.12
4236.00,1.12
4235.00,1.12
4234.00,1.12
4233.00,1.12
4232.00,1.12
4231.00,1.12
4230.00,1.12
4229.00,1.12
4228.00,1.12
4227.00,1.12
4226.00,1.12
4225.00,1.12
4224.00,1.13
4223.00,1.13
4222.00,1.13
4221.00,1.13
4220.00,1.13
4219.00,1.13
4218.00,1.13
4217.00,1.14
4216.00,1.14
4215.00,1.14
4214.00,1.14
4213.00,1.14
4212.00,1.14
4211.00,1.15
4210.00,1.15
4209.00,1.15
4208.00,1.15
4207.00,1.15
4206.00,1.15
4205.00,1.15
4204.00,1.15
4203.00,1.15
4202.00,1.15
4201.00,1.15
4200.00,1.15
4199.00,1.15
4198.00,1.15
4197.00,1.15
4196.00,1.15
4195.00,1.15
4194.00,1.15
4193.00,1.15
4192.00,1.15
4191.00,1.15
4190.00,1.15
4189.00,1.15
4188.00,1.15
4187.00,1.15
4186.00,1.15
4185.00,1.15
4184.00,1.15
4183.00,1.15
4182.00,1.15
4181.00,1.15
4180.00,1.15
4179.00,1.15
4178.00,1.15
4177.00,1.15
4176.00,1.15
4175.00,1.15
4174.00,1.15
4173.00,1.15
4172.00,1.15
4171.00,1.15
4170.00,1.15
4169.00,1.15
4168.00,1.15
4167.00,1.15
4166.00,1.15
4165.00,1.15
4164.00,1.15
4163.00,1.16
4162.00,1.16
4161.00,1.16
4160.00,1.16
4159.00,1.16
4158.00,1.16
4157.00,1.16
4156.00,1.16
4155.00,1.17
4154.00,1.17
4153.00,1.17
4152.00,1.17
4151.00,1.17
4150.00,1.17
4149.00,1.17
4148.00,1.17
4147.00,1.17
4146.00,1.17
4145.00,1.17
4144.00,1.17
4143.00,1.17
4142.00,1.17
4141.00,1.17
4140.00,1.17
4139.00,1.17
4138.00,1.17
4137.00,1.17
4136.00,1.17
4135.00,1.17
4134.00,1.17
4133.00,1.17
4132.00,1.17
4131.00,1.17
4130.00,1.17
4129.00,1.17
4128.00,1.17
4127.00,1.17
4126.00,1.17
4125.00,1.17
4124.00,1.17
4123.00,1.17
4122.00,1.17
4121.00,1.17
4120.00,1.17
4119.00,1.17
4118.00,1.17
4117.00,1.17
4116.00,1.18
4115.00,1.18
4114.00,1.18
4113.00,1.18
4112.00,1.18
4111.00,1.18
4110.00,1.18
4109.00,1.18
4108.00,1.18
4107.00,1.18
4106.00,1.18
4105.00,1.18
4104.00,1.18
4103.00,1.18
4102.00,1.18
4101.00,1.18
4100.00,1.18
4099.00,1.18
4098.00,1.18
4097.00,1.18
4096.00,1.18
4095.00,1.18
4094.00,1.18
4093.00,1.18
4092.00,1.18
4091.00,1.18
4090.00,1.18
4089.00,1.18
4088.00,1.18
4087.00,1.18
4086.00,1.18
4085.00,1.18
4084.00,1.18
4083.00,1.18
4082.00,1.18
4081.00,1.18
4080.00,1.19
4079.00,1.19
4078.00,1.19
4077.00,1.19
4076.00,1.19
4075.00,1.19
4074.00,1.19
4073.00,1.19
4072.00,1.19
4071.00,1.19
4070.00,1.19
4069.00,1.19
4068.00,1.19
4067.00,1.19
4066.00,1.19
4065.00,1.19
4064.00,1.19
4063.00,1.19
4062.00,1.19
4061.00,1.19
4060.00,1.19
4059.00,1.19
4058.00,1.19
4057.00,1.19
4056.00,1.19
4055.00,1.19
4054.00,1.19
4053.00,1.19
4052.00,1.19
4051.00,1.19
4050.00,1.19
4049.00,1.19
4048.00,1.19
4047.00,1.19
4046.00,1.19
4045.00,1.19
4044.00,1.20
4043.00,1.20
4042.00,1.20
4041.00,1.20
4040.00,1.20
4039.00,1.20
4038.00,1.21
4037.00,1.21
4036.00,1.21
4035.00,1.21
4034.00,1.21
4033.00,1.21
4032.00,1.21
4031.00,1.21
4030.00,1.22
4029.00,1.22
4028.00,1.22
4027.00,1.22
4026.00,1.22
4025.00,1.22
4024.00,1.22
4023.00,1.22
4022.00,1.22
4021.00,1.23
4020.00,1.23
4019.00,1.23
4018.00,1.23
4017.00,1.23
4016.00,1.23
4015.00,1.23
4014.00,1.23
4013.00,1.23
4012.00,1.23
4011.00,1.23
4010.00,1.23
4009.00,1.23
4008.00,1.23
4007.00,1.23
4006.00,1.23
4005.00,1.23
4004.00,1.23
4003.00,1.24
4002.00,1.24
4001.00,1.24
4000.00,1.24
