创建为新数据集,样品 094 用户 Administrator 日期 星期日, 十一月 05 2017
cm-1,%T
10000.00,1.71
9999.00,1.71
9998.00,1.70
9997.00,1.70
9996.00,1.70
9995.00,1.70
9994.00,1.69
9993.00,1.69
9992.00,1.69
9991.00,1.68
9990.00,1.68
9989.00,1.68
9988.00,1.67
9987.00,1.67
9986.00,1.67
9985.00,1.66
9984.00,1.66
9983.00,1.66
9982.00,1.66
9981.00,1.66
9980.00,1.65
9979.00,1.65
9978.00,1.65
9977.00,1.65
9976.00,1.65
9975.00,1.65
9974.00,1.65
9973.00,1.65
9972.00,1.65
9971.00,1.66
9970.00,1.66
9969.00,1.66
9968.00,1.66
9967.00,1.66
9966.00,1.66
9965.00,1.67
9964.00,1.67
9963.00,1.67
9962.00,1.67
9961.00,1.67
9960.00,1.68
9959.00,1.68
9958.00,1.68
9957.00,1.68
9956.00,1.68
9955.00,1.69
9954.00,1.69
9953.00,1.69
9952.00,1.69
9951.00,1.70
9950.00,1.70
9949.00,1.70
9948.00,1.70
9947.00,1.70
9946.00,1.70
9945.00,1.70
9944.00,1.70
9943.00,1.71
9942.00,1.71
9941.00,1.71
9940.00,1.70
9939.00,1.70
9938.00,1.70
9937.00,1.70
9936.00,1.70
9935.00,1.70
9934.00,1.70
9933.00,1.69
9932.00,1.69
9931.00,1.69
9930.00,1.69
9929.00,1.69
9928.00,1.69
9927.00,1.68
9926.00,1.68
9925.00,1.68
9924.00,1.68
9923.00,1.69
9922.00,1.69
9921.00,1.69
9920.00,1.69
9919.00,1.69
9918.00,1.69
9917.00,1.70
9916.00,1.70
9915.00,1.70
9914.00,1.70
9913.00,1.70
9912.00,1.70
9911.00,1.71
9910.00,1.71
9909.00,1.71
9908.00,1.71
9907.00,1.71
9906.00,1.71
9905.00,1.70
9904.00,1.70
9903.00,1.70
9902.00,1.70
9901.00,1.70
9900.00,1.70
9899.00,1.70
9898.00,1.70
9897.00,1.70
9896.00,1.69
9895.00,1.69
9894.00,1.69
9893.00,1.69
9892.00,1.69
9891.00,1.69
9890.00,1.69
9889.00,1.69
9888.00,1.69
9887.00,1.69
9886.00,1.69
9885.00,1.68
9884.00,1.68
9883.00,1.68
9882.00,1.68
9881.00,1.68
9880.00,1.69
9879.00,1.69
9878.00,1.69
9877.00,1.69
9876.00,1.69
9875.00,1.69
9874.00,1.69
9873.00,1.69
9872.00,1.69
9871.00,1.68
9870.00,1.68
9869.00,1.68
9868.00,1.68
9867.00,1.68
9866.00,1.67
9865.00,1.67
9864.00,1.67
9863.00,1.66
9862.00,1.66
9861.00,1.66
9860.00,1.65
9859.00,1.65
9858.00,1.64
9857.00,1.64
9856.00,1.64
9855.00,1.64
9854.00,1.64
9853.00,1.64
9852.00,1.64
9851.00,1.64
9850.00,1.64
9849.00,1.65
9848.00,1.65
9847.00,1.65
9846.00,1.65
9845.00,1.66
9844.00,1.66
9843.00,1.66
9842.00,1.67
9841.00,1.67
9840.00,1.67
9839.00,1.67
9838.00,1.68
9837.00,1.68
9836.00,1.68
9835.00,1.68
9834.00,1.68
9833.00,1.68
9832.00,1.68
9831.00,1.68
9830.00,1.68
9829.00,1.68
9828.00,1.68
9827.00,1.68
9826.00,1.68
9825.00,1.68
9824.00,1.68
9823.00,1.68
9822.00,1.68
9821.00,1.69
9820.00,1.69
9819.00,1.69
9818.00,1.69
9817.00,1.69
9816.00,1.69
9815.00,1.69
9814.00,1.70
9813.00,1.70
9812.00,1.70
9811.00,1.70
9810.00,1.70
9809.00,1.70
9808.00,1.70
9807.00,1.70
9806.00,1.70
9805.00,1.70
9804.00,1.70
9803.00,1.70
9802.00,1.70
9801.00,1.70
9800.00,1.70
9799.00,1.70
9798.00,1.70
9797.00,1.70
9796.00,1.70
9795.00,1.70
9794.00,1.70
9793.00,1.70
9792.00,1.70
9791.00,1.70
9790.00,1.70
9789.00,1.70
9788.00,1.70
9787.00,1.70
9786.00,1.70
9785.00,1.70
9784.00,1.69
9783.00,1.69
9782.00,1.69
9781.00,1.69
9780.00,1.68
9779.00,1.68
9778.00,1.68
9777.00,1.67
9776.00,1.67
9775.00,1.67
9774.00,1.66
9773.00,1.66
9772.00,1.66
9771.00,1.65
9770.00,1.65
9769.00,1.65
9768.00,1.65
9767.00,1.65
9766.00,1.65
9765.00,1.64
9764.00,1.64
9763.00,1.64
9762.00,1.64
9761.00,1.64
9760.00,1.64
9759.00,1.64
9758.00,1.64
9757.00,1.64
9756.00,1.63
9755.00,1.63
9754.00,1.63
9753.00,1.63
9752.00,1.63
9751.00,1.63
9750.00,1.63
9749.00,1.63
9748.00,1.63
9747.00,1.63
9746.00,1.63
9745.00,1.63
9744.00,1.63
9743.00,1.63
9742.00,1.64
9741.00,1.64
9740.00,1.64
9739.00,1.64
9738.00,1.65
9737.00,1.65
9736.00,1.65
9735.00,1.66
9734.00,1.66
9733.00,1.66
9732.00,1.66
9731.00,1.66
9730.00,1.66
9729.00,1.67
9728.00,1.66
9727.00,1.66
9726.00,1.66
9725.00,1.66
9724.00,1.66
9723.00,1.66
9722.00,1.66
9721.00,1.66
9720.00,1.67
9719.00,1.67
9718.00,1.67
9717.00,1.67
9716.00,1.67
9715.00,1.68
9714.00,1.68
9713.00,1.68
9712.00,1.69
9711.00,1.69
9710.00,1.69
9709.00,1.69
9708.00,1.70
9707.00,1.70
9706.00,1.70
9705.00,1.70
9704.00,1.70
9703.00,1.70
9702.00,1.71
9701.00,1.71
9700.00,1.71
9699.00,1.71
9698.00,1.70
9697.00,1.70
9696.00,1.70
9695.00,1.70
9694.00,1.70
9693.00,1.70
9692.00,1.70
9691.00,1.69
9690.00,1.69
9689.00,1.69
9688.00,1.69
9687.00,1.68
9686.00,1.68
9685.00,1.68
9684.00,1.68
9683.00,1.67
9682.00,1.67
9681.00,1.67
9680.00,1.67
9679.00,1.67
9678.00,1.66
9677.00,1.66
9676.00,1.66
9675.00,1.66
9674.00,1.66
9673.00,1.66
9672.00,1.66
9671.00,1.66
9670.00,1.66
9669.00,1.66
9668.00,1.66
9667.00,1.66
9666.00,1.66
9665.00,1.66
9664.00,1.66
9663.00,1.66
9662.00,1.66
9661.00,1.66
9660.00,1.66
9659.00,1.65
9658.00,1.65
9657.00,1.65
9656.00,1.65
9655.00,1.65
9654.00,1.65
9653.00,1.65
9652.00,1.65
9651.00,1.65
9650.00,1.65
9649.00,1.65
9648.00,1.65
9647.00,1.66
9646.00,1.66
9645.00,1.66
9644.00,1.66
9643.00,1.66
9642.00,1.67
9641.00,1.67
9640.00,1.67
9639.00,1.67
9638.00,1.67
9637.00,1.67
9636.00,1.67
9635.00,1.67
9634.00,1.67
9633.00,1.66
9632.00,1.66
9631.00,1.66
9630.00,1.66
9629.00,1.66
9628.00,1.66
9627.00,1.66
9626.00,1.65
9625.00,1.65
9624.00,1.65
9623.00,1.65
9622.00,1.65
9621.00,1.65
9620.00,1.65
9619.00,1.65
9618.00,1.65
9617.00,1.65
9616.00,1.65
9615.00,1.65
9614.00,1.65
9613.00,1.65
9612.00,1.65
9611.00,1.65
9610.00,1.65
9609.00,1.65
9608.00,1.65
9607.00,1.65
9606.00,1.65
9605.00,1.65
9604.00,1.65
9603.00,1.65
9602.00,1.65
9601.00,1.65
9600.00,1.66
9599.00,1.66
9598.00,1.66
9597.00,1.67
9596.00,1.67
9595.00,1.67
9594.00,1.67
9593.00,1.68
9592.00,1.68
9591.00,1.68
9590.00,1.68
9589.00,1.69
9588.00,1.69
9587.00,1.69
9586.00,1.69
9585.00,1.69
9584.00,1.69
9583.00,1.69
9582.00,1.69
9581.00,1.69
9580.00,1.69
9579.00,1.68
9578.00,1.68
9577.00,1.68
9576.00,1.68
9575.00,1.68
9574.00,1.67
9573.00,1.67
9572.00,1.67
9571.00,1.67
9570.00,1.67
9569.00,1.66
9568.00,1.66
9567.00,1.66
9566.00,1.66
9565.00,1.66
9564.00,1.66
9563.00,1.66
9562.00,1.66
9561.00,1.66
9560.00,1.66
9559.00,1.66
9558.00,1.67
9557.00,1.67
9556.00,1.67
9555.00,1.67
9554.00,1.67
9553.00,1.67
9552.00,1.67
9551.00,1.67
9550.00,1.68
9549.00,1.68
9548.00,1.68
9547.00,1.68
9546.00,1.68
9545.00,1.68
9544.00,1.68
9543.00,1.68
9542.00,1.68
9541.00,1.68
9540.00,1.68
9539.00,1.68
9538.00,1.67
9537.00,1.67
9536.00,1.67
9535.00,1.67
9534.00,1.67
9533.00,1.67
9532.00,1.67
9531.00,1.67
9530.00,1.66
9529.00,1.66
9528.00,1.66
9527.00,1.66
9526.00,1.66
9525.00,1.66
9524.00,1.66
9523.00,1.66
9522.00,1.66
9521.00,1.66
9520.00,1.67
9519.00,1.67
9518.00,1.67
9517.00,1.67
9516.00,1.67
9515.00,1.67
9514.00,1.67
9513.00,1.67
9512.00,1.67
9511.00,1.67
9510.00,1.67
9509.00,1.67
9508.00,1.67
9507.00,1.67
9506.00,1.67
9505.00,1.67
9504.00,1.67
9503.00,1.67
9502.00,1.67
9501.00,1.67
9500.00,1.67
9499.00,1.67
9498.00,1.67
9497.00,1.67
9496.00,1.67
9495.00,1.67
9494.00,1.67
9493.00,1.67
9492.00,1.67
9491.00,1.67
9490.00,1.67
9489.00,1.67
9488.00,1.66
9487.00,1.66
9486.00,1.66
9485.00,1.66
9484.00,1.66
9483.00,1.66
9482.00,1.66
9481.00,1.66
9480.00,1.66
9479.00,1.66
9478.00,1.66
9477.00,1.66
9476.00,1.66
9475.00,1.67
9474.00,1.67
9473.00,1.67
9472.00,1.67
9471.00,1.68
9470.00,1.68
9469.00,1.68
9468.00,1.69
9467.00,1.69
9466.00,1.69
9465.00,1.69
9464.00,1.70
9463.00,1.70
9462.00,1.70
9461.00,1.70
9460.00,1.70
9459.00,1.69
9458.00,1.69
9457.00,1.69
9456.00,1.69
9455.00,1.69
9454.00,1.68
9453.00,1.68
9452.00,1.68
9451.00,1.67
9450.00,1.67
9449.00,1.67
9448.00,1.67
9447.00,1.66
9446.00,1.66
9445.00,1.66
9444.00,1.66
9443.00,1.66
9442.00,1.65
9441.00,1.65
9440.00,1.65
9439.00,1.65
9438.00,1.65
9437.00,1.65
9436.00,1.65
9435.00,1.66
9434.00,1.66
9433.00,1.66
9432.00,1.66
9431.00,1.66
9430.00,1.66
9429.00,1.66
9428.00,1.66
9427.00,1.67
9426.00,1.67
9425.00,1.67
9424.00,1.67
9423.00,1.67
9422.00,1.67
9421.00,1.67
9420.00,1.66
9419.00,1.66
9418.00,1.66
9417.00,1.66
9416.00,1.66
9415.00,1.66
9414.00,1.65
9413.00,1.65
9412.00,1.65
9411.00,1.65
9410.00,1.65
9409.00,1.65
9408.00,1.65
9407.00,1.64
9406.00,1.64
9405.00,1.64
9404.00,1.64
9403.00,1.64
9402.00,1.65
9401.00,1.65
9400.00,1.65
9399.00,1.65
9398.00,1.65
9397.00,1.65
9396.00,1.66
9395.00,1.66
9394.00,1.66
9393.00,1.67
9392.00,1.67
9391.00,1.67
9390.00,1.68
9389.00,1.68
9388.00,1.68
9387.00,1.68
9386.00,1.69
9385.00,1.69
9384.00,1.69
9383.00,1.69
9382.00,1.69
9381.00,1.69
9380.00,1.69
9379.00,1.69
9378.00,1.69
9377.00,1.69
9376.00,1.68
9375.00,1.68
9374.00,1.68
9373.00,1.67
9372.00,1.67
9371.00,1.66
9370.00,1.66
9369.00,1.66
9368.00,1.65
9367.00,1.65
9366.00,1.65
9365.00,1.64
9364.00,1.64
9363.00,1.64
9362.00,1.64
9361.00,1.64
9360.00,1.64
9359.00,1.64
9358.00,1.64
9357.00,1.64
9356.00,1.64
9355.00,1.64
9354.00,1.65
9353.00,1.65
9352.00,1.65
9351.00,1.65
9350.00,1.65
9349.00,1.65
9348.00,1.66
9347.00,1.66
9346.00,1.66
9345.00,1.66
9344.00,1.66
9343.00,1.66
9342.00,1.66
9341.00,1.66
9340.00,1.66
9339.00,1.66
9338.00,1.66
9337.00,1.66
9336.00,1.66
9335.00,1.66
9334.00,1.66
9333.00,1.66
9332.00,1.66
9331.00,1.67
9330.00,1.67
9329.00,1.67
9328.00,1.67
9327.00,1.67
9326.00,1.68
9325.00,1.68
9324.00,1.68
9323.00,1.68
9322.00,1.68
9321.00,1.68
9320.00,1.68
9319.00,1.68
9318.00,1.68
9317.00,1.68
9316.00,1.68
9315.00,1.68
9314.00,1.67
9313.00,1.67
9312.00,1.67
9311.00,1.67
9310.00,1.66
9309.00,1.66
9308.00,1.66
9307.00,1.66
9306.00,1.66
9305.00,1.66
9304.00,1.66
9303.00,1.66
9302.00,1.66
9301.00,1.66
9300.00,1.66
9299.00,1.66
9298.00,1.67
9297.00,1.67
9296.00,1.67
9295.00,1.67
9294.00,1.67
9293.00,1.68
9292.00,1.68
9291.00,1.68
9290.00,1.68
9289.00,1.68
9288.00,1.68
9287.00,1.68
9286.00,1.68
9285.00,1.67
9284.00,1.67
9283.00,1.67
9282.00,1.67
9281.00,1.67
9280.00,1.67
9279.00,1.67
9278.00,1.67
9277.00,1.67
9276.00,1.67
9275.00,1.67
9274.00,1.67
9273.00,1.67
9272.00,1.68
9271.00,1.68
9270.00,1.68
9269.00,1.68
9268.00,1.69
9267.00,1.69
9266.00,1.69
9265.00,1.70
9264.00,1.70
9263.00,1.70
9262.00,1.70
9261.00,1.70
9260.00,1.70
9259.00,1.70
9258.00,1.70
9257.00,1.70
9256.00,1.70
9255.00,1.70
9254.00,1.69
9253.00,1.69
9252.00,1.69
9251.00,1.69
9250.00,1.68
9249.00,1.68
9248.00,1.68
9247.00,1.67
9246.00,1.67
9245.00,1.67
9244.00,1.66
9243.00,1.66
9242.00,1.66
9241.00,1.66
9240.00,1.66
9239.00,1.66
9238.00,1.66
9237.00,1.66
9236.00,1.66
9235.00,1.66
9234.00,1.66
9233.00,1.66
9232.00,1.66
9231.00,1.66
9230.00,1.66
9229.00,1.66
9228.00,1.66
9227.00,1.67
9226.00,1.67
9225.00,1.67
9224.00,1.67
9223.00,1.68
9222.00,1.68
9221.00,1.68
9220.00,1.68
9219.00,1.68
9218.00,1.69
9217.00,1.69
9216.00,1.69
9215.00,1.69
9214.00,1.69
9213.00,1.69
9212.00,1.69
9211.00,1.69
9210.00,1.68
9209.00,1.68
9208.00,1.68
9207.00,1.68
9206.00,1.68
9205.00,1.67
9204.00,1.67
9203.00,1.67
9202.00,1.67
9201.00,1.67
9200.00,1.67
9199.00,1.67
9198.00,1.67
9197.00,1.67
9196.00,1.67
9195.00,1.67
9194.00,1.67
9193.00,1.67
9192.00,1.67
9191.00,1.67
9190.00,1.66
9189.00,1.66
9188.00,1.66
9187.00,1.66
9186.00,1.66
9185.00,1.66
9184.00,1.66
9183.00,1.66
9182.00,1.66
9181.00,1.66
9180.00,1.66
9179.00,1.66
9178.00,1.66
9177.00,1.66
9176.00,1.66
9175.00,1.66
9174.00,1.66
9173.00,1.66
9172.00,1.66
9171.00,1.66
9170.00,1.66
9169.00,1.66
9168.00,1.67
9167.00,1.67
9166.00,1.66
9165.00,1.66
9164.00,1.66
9163.00,1.66
9162.00,1.66
9161.00,1.66
9160.00,1.66
9159.00,1.66
9158.00,1.66
9157.00,1.66
9156.00,1.66
9155.00,1.66
9154.00,1.66
9153.00,1.65
9152.00,1.65
9151.00,1.65
9150.00,1.65
9149.00,1.65
9148.00,1.65
9147.00,1.65
9146.00,1.65
9145.00,1.65
9144.00,1.65
9143.00,1.65
9142.00,1.65
9141.00,1.65
9140.00,1.65
9139.00,1.65
9138.00,1.65
9137.00,1.65
9136.00,1.65
9135.00,1.65
9134.00,1.66
9133.00,1.66
9132.00,1.66
9131.00,1.66
9130.00,1.66
9129.00,1.67
9128.00,1.67
9127.00,1.67
9126.00,1.67
9125.00,1.67
9124.00,1.67
9123.00,1.67
9122.00,1.67
9121.00,1.67
9120.00,1.67
9119.00,1.67
9118.00,1.67
9117.00,1.67
9116.00,1.67
9115.00,1.67
9114.00,1.67
9113.00,1.67
9112.00,1.68
9111.00,1.68
9110.00,1.68
9109.00,1.68
9108.00,1.68
9107.00,1.69
9106.00,1.69
9105.00,1.69
9104.00,1.69
9103.00,1.69
9102.00,1.70
9101.00,1.70
9100.00,1.70
9099.00,1.70
9098.00,1.70
9097.00,1.70
9096.00,1.70
9095.00,1.70
9094.00,1.70
9093.00,1.70
9092.00,1.70
9091.00,1.69
9090.00,1.69
9089.00,1.69
9088.00,1.69
9087.00,1.69
9086.00,1.69
9085.00,1.69
9084.00,1.69
9083.00,1.69
9082.00,1.69
9081.00,1.68
9080.00,1.68
9079.00,1.68
9078.00,1.68
9077.00,1.68
9076.00,1.68
9075.00,1.68
9074.00,1.68
9073.00,1.68
9072.00,1.68
9071.00,1.68
9070.00,1.68
9069.00,1.68
9068.00,1.68
9067.00,1.68
9066.00,1.68
9065.00,1.68
9064.00,1.69
9063.00,1.69
9062.00,1.69
9061.00,1.69
9060.00,1.69
9059.00,1.69
9058.00,1.69
9057.00,1.69
9056.00,1.69
9055.00,1.68
9054.00,1.68
9053.00,1.68
9052.00,1.68
9051.00,1.68
9050.00,1.68
9049.00,1.68
9048.00,1.68
9047.00,1.68
9046.00,1.68
9045.00,1.68
9044.00,1.68
9043.00,1.68
9042.00,1.68
9041.00,1.68
9040.00,1.68
9039.00,1.69
9038.00,1.69
9037.00,1.69
9036.00,1.69
9035.00,1.69
9034.00,1.69
9033.00,1.69
9032.00,1.68
9031.00,1.68
9030.00,1.68
9029.00,1.68
9028.00,1.68
9027.00,1.67
9026.00,1.67
9025.00,1.67
9024.00,1.67
9023.00,1.67
9022.00,1.66
9021.00,1.66
9020.00,1.66
9019.00,1.66
9018.00,1.66
9017.00,1.67
9016.00,1.67
9015.00,1.67
9014.00,1.67
9013.00,1.67
9012.00,1.67
9011.00,1.67
9010.00,1.68
9009.00,1.68
9008.00,1.68
9007.00,1.68
9006.00,1.68
9005.00,1.68
9004.00,1.68
9003.00,1.68
9002.00,1.68
9001.00,1.68
9000.00,1.68
8999.00,1.68
8998.00,1.68
8997.00,1.68
8996.00,1.68
8995.00,1.68
8994.00,1.68
8993.00,1.68
8992.00,1.68
8991.00,1.68
8990.00,1.68
8989.00,1.68
8988.00,1.68
8987.00,1.68
8986.00,1.68
8985.00,1.68
8984.00,1.68
8983.00,1.68
8982.00,1.68
8981.00,1.68
8980.00,1.68
8979.00,1.68
8978.00,1.68
8977.00,1.68
8976.00,1.69
8975.00,1.69
8974.00,1.69
8973.00,1.69
8972.00,1.69
8971.00,1.69
8970.00,1.69
8969.00,1.69
8968.00,1.69
8967.00,1.69
8966.00,1.69
8965.00,1.69
8964.00,1.69
8963.00,1.69
8962.00,1.69
8961.00,1.69
8960.00,1.69
8959.00,1.69
8958.00,1.69
8957.00,1.69
8956.00,1.69
8955.00,1.68
8954.00,1.68
8953.00,1.68
8952.00,1.68
8951.00,1.68
8950.00,1.68
8949.00,1.68
8948.00,1.68
8947.00,1.68
8946.00,1.68
8945.00,1.68
8944.00,1.68
8943.00,1.68
8942.00,1.68
8941.00,1.68
8940.00,1.68
8939.00,1.68
8938.00,1.68
8937.00,1.68
8936.00,1.68
8935.00,1.67
8934.00,1.67
8933.00,1.67
8932.00,1.67
8931.00,1.67
8930.00,1.67
8929.00,1.67
8928.00,1.67
8927.00,1.67
8926.00,1.67
8925.00,1.67
8924.00,1.67
8923.00,1.67
8922.00,1.67
8921.00,1.67
8920.00,1.67
8919.00,1.67
8918.00,1.67
8917.00,1.67
8916.00,1.67
8915.00,1.67
8914.00,1.67
8913.00,1.67
8912.00,1.67
8911.00,1.67
8910.00,1.67
8909.00,1.67
8908.00,1.67
8907.00,1.67
8906.00,1.67
8905.00,1.66
8904.00,1.66
8903.00,1.66
8902.00,1.66
8901.00,1.66
8900.00,1.66
8899.00,1.66
8898.00,1.66
8897.00,1.66
8896.00,1.66
8895.00,1.65
8894.00,1.65
8893.00,1.65
8892.00,1.65
8891.00,1.65
8890.00,1.65
8889.00,1.65
8888.00,1.65
8887.00,1.65
8886.00,1.65
8885.00,1.65
8884.00,1.65
8883.00,1.65
8882.00,1.65
8881.00,1.65
8880.00,1.65
8879.00,1.65
8878.00,1.65
8877.00,1.65
8876.00,1.65
8875.00,1.65
8874.00,1.65
8873.00,1.65
8872.00,1.65
8871.00,1.65
8870.00,1.65
8869.00,1.65
8868.00,1.65
8867.00,1.65
8866.00,1.65
8865.00,1.65
8864.00,1.65
8863.00,1.65
8862.00,1.65
8861.00,1.65
8860.00,1.65
8859.00,1.65
8858.00,1.65
8857.00,1.65
8856.00,1.65
8855.00,1.65
8854.00,1.65
8853.00,1.65
8852.00,1.65
8851.00,1.65
8850.00,1.65
8849.00,1.65
8848.00,1.66
8847.00,1.66
8846.00,1.66
8845.00,1.66
8844.00,1.66
8843.00,1.66
8842.00,1.66
8841.00,1.66
8840.00,1.66
8839.00,1.66
8838.00,1.66
8837.00,1.66
8836.00,1.66
8835.00,1.67
8834.00,1.67
8833.00,1.67
8832.00,1.67
8831.00,1.67
8830.00,1.67
8829.00,1.67
8828.00,1.67
8827.00,1.67
8826.00,1.67
8825.00,1.67
8824.00,1.67
8823.00,1.67
8822.00,1.67
8821.00,1.67
8820.00,1.67
8819.00,1.67
8818.00,1.67
8817.00,1.67
8816.00,1.67
8815.00,1.67
8814.00,1.66
8813.00,1.66
8812.00,1.66
8811.00,1.66
8810.00,1.66
8809.00,1.65
8808.00,1.65
8807.00,1.65
8806.00,1.65
8805.00,1.65
8804.00,1.65
8803.00,1.64
8802.00,1.64
8801.00,1.64
8800.00,1.64
8799.00,1.64
8798.00,1.64
8797.00,1.64
8796.00,1.64
8795.00,1.64
8794.00,1.64
8793.00,1.64
8792.00,1.64
8791.00,1.64
8790.00,1.64
8789.00,1.64
8788.00,1.64
8787.00,1.64
8786.00,1.64
8785.00,1.64
8784.00,1.64
8783.00,1.64
8782.00,1.64
8781.00,1.64
8780.00,1.63
8779.00,1.63
8778.00,1.63
8777.00,1.63
8776.00,1.63
8775.00,1.63
8774.00,1.63
8773.00,1.63
8772.00,1.63
8771.00,1.63
8770.00,1.62
8769.00,1.62
8768.00,1.62
8767.00,1.62
8766.00,1.62
8765.00,1.62
8764.00,1.62
8763.00,1.62
8762.00,1.61
8761.00,1.61
8760.00,1.61
8759.00,1.62
8758.00,1.62
8757.00,1.62
8756.00,1.62
8755.00,1.62
8754.00,1.62
8753.00,1.62
8752.00,1.62
8751.00,1.63
8750.00,1.63
8749.00,1.63
8748.00,1.63
8747.00,1.63
8746.00,1.63
8745.00,1.63
8744.00,1.63
8743.00,1.62
8742.00,1.62
8741.00,1.62
8740.00,1.62
8739.00,1.61
8738.00,1.61
8737.00,1.61
8736.00,1.60
8735.00,1.60
8734.00,1.60
8733.00,1.60
8732.00,1.59
8731.00,1.59
8730.00,1.59
8729.00,1.59
8728.00,1.59
8727.00,1.59
8726.00,1.59
8725.00,1.59
8724.00,1.59
8723.00,1.59
8722.00,1.59
8721.00,1.59
8720.00,1.60
8719.00,1.60
8718.00,1.60
8717.00,1.60
8716.00,1.60
8715.00,1.60
8714.00,1.60
8713.00,1.60
8712.00,1.60
8711.00,1.60
8710.00,1.60
8709.00,1.60
8708.00,1.60
8707.00,1.60
8706.00,1.60
8705.00,1.60
8704.00,1.60
8703.00,1.60
8702.00,1.60
8701.00,1.60
8700.00,1.60
8699.00,1.60
8698.00,1.60
8697.00,1.60
8696.00,1.60
8695.00,1.60
8694.00,1.59
8693.00,1.59
8692.00,1.59
8691.00,1.59
8690.00,1.59
8689.00,1.59
8688.00,1.59
8687.00,1.59
8686.00,1.58
8685.00,1.58
8684.00,1.58
8683.00,1.58
8682.00,1.58
8681.00,1.58
8680.00,1.58
8679.00,1.58
8678.00,1.59
8677.00,1.59
8676.00,1.59
8675.00,1.59
8674.00,1.59
8673.00,1.59
8672.00,1.59
8671.00,1.60
8670.00,1.60
8669.00,1.60
8668.00,1.60
8667.00,1.60
8666.00,1.60
8665.00,1.60
8664.00,1.60
8663.00,1.60
8662.00,1.60
8661.00,1.60
8660.00,1.60
8659.00,1.60
8658.00,1.60
8657.00,1.60
8656.00,1.60
8655.00,1.60
8654.00,1.59
8653.00,1.59
8652.00,1.59
8651.00,1.59
8650.00,1.58
8649.00,1.58
8648.00,1.58
8647.00,1.57
8646.00,1.57
8645.00,1.57
8644.00,1.57
8643.00,1.56
8642.00,1.56
8641.00,1.56
8640.00,1.56
8639.00,1.56
8638.00,1.56
8637.00,1.56
8636.00,1.56
8635.00,1.56
8634.00,1.56
8633.00,1.56
8632.00,1.56
8631.00,1.56
8630.00,1.56
8629.00,1.57
8628.00,1.57
8627.00,1.57
8626.00,1.57
8625.00,1.57
8624.00,1.57
8623.00,1.57
8622.00,1.57
8621.00,1.57
8620.00,1.57
8619.00,1.57
8618.00,1.57
8617.00,1.57
8616.00,1.57
8615.00,1.57
8614.00,1.57
8613.00,1.57
8612.00,1.57
8611.00,1.57
8610.00,1.57
8609.00,1.57
8608.00,1.57
8607.00,1.57
8606.00,1.57
8605.00,1.56
8604.00,1.56
8603.00,1.56
8602.00,1.56
8601.00,1.56
8600.00,1.56
8599.00,1.56
8598.00,1.56
8597.00,1.56
8596.00,1.56
8595.00,1.56
8594.00,1.57
8593.00,1.57
8592.00,1.57
8591.00,1.57
8590.00,1.57
8589.00,1.58
8588.00,1.58
8587.00,1.58
8586.00,1.58
8585.00,1.58
8584.00,1.58
8583.00,1.58
8582.00,1.58
8581.00,1.58
8580.00,1.58
8579.00,1.58
8578.00,1.58
8577.00,1.58
8576.00,1.57
8575.00,1.57
8574.00,1.57
8573.00,1.57
8572.00,1.56
8571.00,1.56
8570.00,1.56
8569.00,1.56
8568.00,1.56
8567.00,1.56
8566.00,1.55
8565.00,1.55
8564.00,1.55
8563.00,1.55
8562.00,1.55
8561.00,1.55
8560.00,1.55
8559.00,1.55
8558.00,1.55
8557.00,1.55
8556.00,1.55
8555.00,1.55
8554.00,1.55
8553.00,1.55
8552.00,1.55
8551.00,1.55
8550.00,1.55
8549.00,1.55
8548.00,1.55
8547.00,1.55
8546.00,1.55
8545.00,1.54
8544.00,1.54
8543.00,1.54
8542.00,1.54
8541.00,1.54
8540.00,1.54
8539.00,1.54
8538.00,1.54
8537.00,1.54
8536.00,1.54
8535.00,1.54
8534.00,1.54
8533.00,1.54
8532.00,1.54
8531.00,1.54
8530.00,1.54
8529.00,1.54
8528.00,1.53
8527.00,1.53
8526.00,1.53
8525.00,1.53
8524.00,1.52
8523.00,1.52
8522.00,1.52
8521.00,1.52
8520.00,1.51
8519.00,1.51
8518.00,1.51
8517.00,1.51
8516.00,1.51
8515.00,1.51
8514.00,1.51
8513.00,1.51
8512.00,1.51
8511.00,1.51
8510.00,1.51
8509.00,1.51
8508.00,1.51
8507.00,1.51
8506.00,1.51
8505.00,1.52
8504.00,1.52
8503.00,1.52
8502.00,1.52
8501.00,1.52
8500.00,1.52
8499.00,1.52
8498.00,1.52
8497.00,1.51
8496.00,1.51
8495.00,1.51
8494.00,1.51
8493.00,1.51
8492.00,1.50
8491.00,1.50
8490.00,1.50
8489.00,1.49
8488.00,1.49
8487.00,1.49
8486.00,1.48
8485.00,1.48
8484.00,1.48
8483.00,1.47
8482.00,1.47
8481.00,1.47
8480.00,1.47
8479.00,1.47
8478.00,1.47
8477.00,1.47
8476.00,1.47
8475.00,1.47
8474.00,1.47
8473.00,1.47
8472.00,1.47
8471.00,1.47
8470.00,1.47
8469.00,1.47
8468.00,1.47
8467.00,1.48
8466.00,1.48
8465.00,1.48
8464.00,1.48
8463.00,1.48
8462.00,1.48
8461.00,1.48
8460.00,1.48
8459.00,1.48
8458.00,1.48
8457.00,1.48
8456.00,1.48
8455.00,1.48
8454.00,1.48
8453.00,1.48
8452.00,1.48
8451.00,1.47
8450.00,1.47
8449.00,1.47
8448.00,1.47
8447.00,1.47
8446.00,1.46
8445.00,1.46
8444.00,1.46
8443.00,1.46
8442.00,1.45
8441.00,1.45
8440.00,1.45
8439.00,1.45
8438.00,1.44
8437.00,1.44
8436.00,1.44
8435.00,1.44
8434.00,1.44
8433.00,1.44
8432.00,1.43
8431.00,1.43
8430.00,1.43
8429.00,1.43
8428.00,1.43
8427.00,1.43
8426.00,1.43
8425.00,1.44
8424.00,1.44
8423.00,1.44
8422.00,1.44
8421.00,1.44
8420.00,1.44
8419.00,1.45
8418.00,1.45
8417.00,1.45
8416.00,1.45
8415.00,1.46
8414.00,1.46
8413.00,1.46
8412.00,1.46
8411.00,1.47
8410.00,1.47
8409.00,1.47
8408.00,1.48
8407.00,1.48
8406.00,1.48
8405.00,1.49
8404.00,1.49
8403.00,1.49
8402.00,1.49
8401.00,1.50
8400.00,1.50
8399.00,1.50
8398.00,1.50
8397.00,1.50
8396.00,1.50
8395.00,1.51
8394.00,1.51
8393.00,1.51
8392.00,1.51
8391.00,1.51
8390.00,1.51
8389.00,1.51
8388.00,1.51
8387.00,1.51
8386.00,1.51
8385.00,1.51
8384.00,1.51
8383.00,1.51
8382.00,1.51
8381.00,1.51
8380.00,1.51
8379.00,1.51
8378.00,1.51
8377.00,1.51
8376.00,1.51
8375.00,1.51
8374.00,1.51
8373.00,1.51
8372.00,1.51
8371.00,1.51
8370.00,1.51
8369.00,1.51
8368.00,1.51
8367.00,1.51
8366.00,1.51
8365.00,1.51
8364.00,1.51
8363.00,1.51
8362.00,1.51
8361.00,1.51
8360.00,1.51
8359.00,1.51
8358.00,1.51
8357.00,1.51
8356.00,1.52
8355.00,1.52
8354.00,1.52
8353.00,1.52
8352.00,1.52
8351.00,1.52
8350.00,1.52
8349.00,1.52
8348.00,1.52
8347.00,1.53
8346.00,1.53
8345.00,1.53
8344.00,1.53
8343.00,1.53
8342.00,1.53
8341.00,1.53
8340.00,1.53
8339.00,1.53
8338.00,1.53
8337.00,1.53
8336.00,1.53
8335.00,1.53
8334.00,1.54
8333.00,1.54
8332.00,1.54
8331.00,1.54
8330.00,1.54
8329.00,1.54
8328.00,1.54
8327.00,1.54
8326.00,1.54
8325.00,1.54
8324.00,1.54
8323.00,1.54
8322.00,1.54
8321.00,1.54
8320.00,1.54
8319.00,1.53
8318.00,1.53
8317.00,1.53
8316.00,1.53
8315.00,1.53
8314.00,1.53
8313.00,1.53
8312.00,1.53
8311.00,1.53
8310.00,1.53
8309.00,1.53
8308.00,1.53
8307.00,1.53
8306.00,1.53
8305.00,1.53
8304.00,1.53
8303.00,1.53
8302.00,1.53
8301.00,1.53
8300.00,1.53
8299.00,1.53
8298.00,1.53
8297.00,1.53
8296.00,1.53
8295.00,1.52
8294.00,1.52
8293.00,1.52
8292.00,1.52
8291.00,1.52
8290.00,1.52
8289.00,1.52
8288.00,1.52
8287.00,1.52
8286.00,1.52
8285.00,1.52
8284.00,1.52
8283.00,1.52
8282.00,1.52
8281.00,1.53
8280.00,1.53
8279.00,1.53
8278.00,1.53
8277.00,1.53
8276.00,1.54
8275.00,1.54
8274.00,1.54
8273.00,1.54
8272.00,1.54
8271.00,1.54
8270.00,1.54
8269.00,1.54
8268.00,1.54
8267.00,1.54
8266.00,1.54
8265.00,1.54
8264.00,1.54
8263.00,1.54
8262.00,1.54
8261.00,1.53
8260.00,1.53
8259.00,1.53
8258.00,1.53
8257.00,1.53
8256.00,1.53
8255.00,1.53
8254.00,1.53
8253.00,1.53
8252.00,1.53
8251.00,1.53
8250.00,1.53
8249.00,1.53
8248.00,1.53
8247.00,1.53
8246.00,1.53
8245.00,1.53
8244.00,1.54
8243.00,1.54
8242.00,1.54
8241.00,1.54
8240.00,1.54
8239.00,1.54
8238.00,1.54
8237.00,1.54
8236.00,1.54
8235.00,1.54
8234.00,1.54
8233.00,1.54
8232.00,1.54
8231.00,1.54
8230.00,1.54
8229.00,1.54
8228.00,1.54
8227.00,1.54
8226.00,1.54
8225.00,1.55
8224.00,1.55
8223.00,1.55
8222.00,1.55
8221.00,1.55
8220.00,1.56
8219.00,1.56
8218.00,1.56
8217.00,1.56
8216.00,1.56
8215.00,1.57
8214.00,1.57
8213.00,1.57
8212.00,1.57
8211.00,1.57
8210.00,1.57
8209.00,1.57
8208.00,1.57
8207.00,1.58
8206.00,1.58
8205.00,1.58
8204.00,1.58
8203.00,1.58
8202.00,1.58
8201.00,1.58
8200.00,1.58
8199.00,1.58
8198.00,1.58
8197.00,1.58
8196.00,1.58
8195.00,1.58
8194.00,1.58
8193.00,1.58
8192.00,1.58
8191.00,1.58
8190.00,1.58
8189.00,1.58
8188.00,1.58
8187.00,1.58
8186.00,1.58
8185.00,1.58
8184.00,1.57
8183.00,1.57
8182.00,1.57
8181.00,1.57
8180.00,1.57
8179.00,1.57
8178.00,1.57
8177.00,1.57
8176.00,1.57
8175.00,1.57
8174.00,1.57
8173.00,1.57
8172.00,1.57
8171.00,1.56
8170.00,1.56
8169.00,1.56
8168.00,1.56
8167.00,1.56
8166.00,1.56
8165.00,1.56
8164.00,1.56
8163.00,1.56
8162.00,1.56
8161.00,1.56
8160.00,1.56
8159.00,1.56
8158.00,1.56
8157.00,1.56
8156.00,1.56
8155.00,1.56
8154.00,1.56
8153.00,1.56
8152.00,1.56
8151.00,1.57
8150.00,1.57
8149.00,1.57
8148.00,1.57
8147.00,1.57
8146.00,1.58
8145.00,1.58
8144.00,1.58
8143.00,1.58
8142.00,1.59
8141.00,1.59
8140.00,1.59
8139.00,1.59
8138.00,1.60
8137.00,1.60
8136.00,1.60
8135.00,1.60
8134.00,1.60
8133.00,1.60
8132.00,1.60
8131.00,1.60
8130.00,1.60
8129.00,1.60
8128.00,1.60
8127.00,1.60
8126.00,1.60
8125.00,1.60
8124.00,1.60
8123.00,1.60
8122.00,1.60
8121.00,1.59
8120.00,1.59
8119.00,1.59
8118.00,1.59
8117.00,1.59
8116.00,1.59
8115.00,1.59
8114.00,1.59
8113.00,1.59
8112.00,1.59
8111.00,1.59
8110.00,1.59
8109.00,1.59
8108.00,1.59
8107.00,1.59
8106.00,1.59
8105.00,1.59
8104.00,1.59
8103.00,1.60
8102.00,1.60
8101.00,1.60
8100.00,1.60
8099.00,1.60
8098.00,1.61
8097.00,1.61
8096.00,1.61
8095.00,1.61
8094.00,1.61
8093.00,1.61
8092.00,1.61
8091.00,1.61
8090.00,1.61
8089.00,1.61
8088.00,1.61
8087.00,1.61
8086.00,1.61
8085.00,1.61
8084.00,1.62
8083.00,1.62
8082.00,1.62
8081.00,1.62
8080.00,1.62
8079.00,1.62
8078.00,1.62
8077.00,1.62
8076.00,1.62
8075.00,1.62
8074.00,1.62
8073.00,1.62
8072.00,1.62
8071.00,1.62
8070.00,1.62
8069.00,1.62
8068.00,1.62
8067.00,1.62
8066.00,1.62
8065.00,1.62
8064.00,1.62
8063.00,1.62
8062.00,1.62
8061.00,1.62
8060.00,1.62
8059.00,1.63
8058.00,1.63
8057.00,1.63
8056.00,1.63
8055.00,1.63
8054.00,1.63
8053.00,1.63
8052.00,1.63
8051.00,1.63
8050.00,1.63
8049.00,1.63
8048.00,1.63
8047.00,1.64
8046.00,1.64
8045.00,1.64
8044.00,1.64
8043.00,1.64
8042.00,1.64
8041.00,1.64
8040.00,1.64
8039.00,1.64
8038.00,1.64
8037.00,1.64
8036.00,1.64
8035.00,1.64
8034.00,1.64
8033.00,1.64
8032.00,1.64
8031.00,1.64
8030.00,1.64
8029.00,1.64
8028.00,1.65
8027.00,1.65
8026.00,1.65
8025.00,1.65
8024.00,1.65
8023.00,1.65
8022.00,1.65
8021.00,1.65
8020.00,1.65
8019.00,1.65
8018.00,1.65
8017.00,1.65
8016.00,1.65
8015.00,1.64
8014.00,1.64
8013.00,1.64
8012.00,1.64
8011.00,1.64
8010.00,1.64
8009.00,1.64
8008.00,1.64
8007.00,1.64
8006.00,1.64
8005.00,1.64
8004.00,1.64
8003.00,1.64
8002.00,1.64
8001.00,1.64
8000.00,1.64
7999.00,1.64
7998.00,1.64
7997.00,1.64
7996.00,1.64
7995.00,1.64
7994.00,1.64
7993.00,1.64
7992.00,1.64
7991.00,1.64
7990.00,1.64
7989.00,1.64
7988.00,1.64
7987.00,1.64
7986.00,1.64
7985.00,1.64
7984.00,1.64
7983.00,1.64
7982.00,1.64
7981.00,1.64
7980.00,1.64
7979.00,1.64
7978.00,1.65
7977.00,1.65
7976.00,1.65
7975.00,1.65
7974.00,1.65
7973.00,1.65
7972.00,1.66
7971.00,1.66
7970.00,1.66
7969.00,1.66
7968.00,1.66
7967.00,1.67
7966.00,1.67
7965.00,1.67
7964.00,1.67
7963.00,1.67
7962.00,1.67
7961.00,1.67
7960.00,1.67
7959.00,1.67
7958.00,1.67
7957.00,1.67
7956.00,1.67
7955.00,1.67
7954.00,1.67
7953.00,1.67
7952.00,1.67
7951.00,1.67
7950.00,1.67
7949.00,1.67
7948.00,1.67
7947.00,1.67
7946.00,1.67
7945.00,1.67
7944.00,1.67
7943.00,1.67
7942.00,1.67
7941.00,1.67
7940.00,1.68
7939.00,1.68
7938.00,1.68
7937.00,1.68
7936.00,1.68
7935.00,1.68
7934.00,1.68
7933.00,1.68
7932.00,1.68
7931.00,1.68
7930.00,1.68
7929.00,1.68
7928.00,1.68
7927.00,1.68
7926.00,1.68
7925.00,1.68
7924.00,1.68
7923.00,1.68
7922.00,1.68
7921.00,1.68
7920.00,1.68
7919.00,1.68
7918.00,1.67
7917.00,1.67
7916.00,1.67
7915.00,1.67
7914.00,1.67
7913.00,1.67
7912.00,1.67
7911.00,1.67
7910.00,1.67
7909.00,1.66
7908.00,1.66
7907.00,1.66
7906.00,1.66
7905.00,1.66
7904.00,1.66
7903.00,1.66
7902.00,1.66
7901.00,1.67
7900.00,1.67
7899.00,1.67
7898.00,1.67
7897.00,1.67
7896.00,1.67
7895.00,1.67
7894.00,1.67
7893.00,1.68
7892.00,1.68
7891.00,1.68
7890.00,1.68
7889.00,1.68
7888.00,1.68
7887.00,1.68
7886.00,1.68
7885.00,1.69
7884.00,1.69
7883.00,1.69
7882.00,1.69
7881.00,1.69
7880.00,1.69
7879.00,1.69
7878.00,1.69
7877.00,1.69
7876.00,1.68
7875.00,1.68
7874.00,1.68
7873.00,1.68
7872.00,1.68
7871.00,1.68
7870.00,1.68
7869.00,1.68
7868.00,1.68
7867.00,1.68
7866.00,1.68
7865.00,1.68
7864.00,1.68
7863.00,1.68
7862.00,1.68
7861.00,1.68
7860.00,1.68
7859.00,1.68
7858.00,1.69
7857.00,1.69
7856.00,1.69
7855.00,1.69
7854.00,1.69
7853.00,1.69
7852.00,1.69
7851.00,1.69
7850.00,1.69
7849.00,1.69
7848.00,1.69
7847.00,1.69
7846.00,1.69
7845.00,1.69
7844.00,1.69
7843.00,1.69
7842.00,1.69
7841.00,1.69
7840.00,1.69
7839.00,1.69
7838.00,1.69
7837.00,1.69
7836.00,1.69
7835.00,1.69
7834.00,1.69
7833.00,1.68
7832.00,1.68
7831.00,1.68
7830.00,1.68
7829.00,1.68
7828.00,1.68
7827.00,1.68
7826.00,1.68
7825.00,1.68
7824.00,1.69
7823.00,1.69
7822.00,1.69
7821.00,1.69
7820.00,1.69
7819.00,1.69
7818.00,1.69
7817.00,1.69
7816.00,1.69
7815.00,1.69
7814.00,1.69
7813.00,1.69
7812.00,1.69
7811.00,1.69
7810.00,1.69
7809.00,1.69
7808.00,1.69
7807.00,1.69
7806.00,1.69
7805.00,1.69
7804.00,1.69
7803.00,1.69
7802.00,1.69
7801.00,1.69
7800.00,1.69
7799.00,1.69
7798.00,1.70
7797.00,1.70
7796.00,1.70
7795.00,1.70
7794.00,1.70
7793.00,1.70
7792.00,1.70
7791.00,1.70
7790.00,1.70
7789.00,1.70
7788.00,1.70
7787.00,1.70
7786.00,1.70
7785.00,1.70
7784.00,1.70
7783.00,1.70
7782.00,1.70
7781.00,1.70
7780.00,1.70
7779.00,1.70
7778.00,1.70
7777.00,1.70
7776.00,1.70
7775.00,1.70
7774.00,1.70
7773.00,1.70
7772.00,1.70
7771.00,1.70
7770.00,1.70
7769.00,1.70
7768.00,1.70
7767.00,1.70
7766.00,1.70
7765.00,1.70
7764.00,1.70
7763.00,1.70
7762.00,1.70
7761.00,1.70
7760.00,1.70
7759.00,1.70
7758.00,1.70
7757.00,1.70
7756.00,1.70
7755.00,1.70
7754.00,1.70
7753.00,1.70
7752.00,1.70
7751.00,1.70
7750.00,1.70
7749.00,1.70
7748.00,1.70
7747.00,1.70
7746.00,1.70
7745.00,1.70
7744.00,1.70
7743.00,1.69
7742.00,1.69
7741.00,1.69
7740.00,1.69
7739.00,1.69
7738.00,1.69
7737.00,1.69
7736.00,1.69
7735.00,1.69
7734.00,1.69
7733.00,1.69
7732.00,1.69
7731.00,1.69
7730.00,1.69
7729.00,1.69
7728.00,1.69
7727.00,1.70
7726.00,1.70
7725.00,1.70
7724.00,1.70
7723.00,1.70
7722.00,1.70
7721.00,1.70
7720.00,1.70
7719.00,1.70
7718.00,1.70
7717.00,1.70
7716.00,1.70
7715.00,1.70
7714.00,1.70
7713.00,1.70
7712.00,1.70
7711.00,1.70
7710.00,1.70
7709.00,1.70
7708.00,1.70
7707.00,1.70
7706.00,1.70
7705.00,1.70
7704.00,1.70
7703.00,1.70
7702.00,1.70
7701.00,1.70
7700.00,1.70
7699.00,1.70
7698.00,1.70
7697.00,1.70
7696.00,1.70
7695.00,1.70
7694.00,1.70
7693.00,1.70
7692.00,1.70
7691.00,1.70
7690.00,1.71
7689.00,1.71
7688.00,1.71
7687.00,1.71
7686.00,1.71
7685.00,1.71
7684.00,1.71
7683.00,1.71
7682.00,1.71
7681.00,1.70
7680.00,1.70
7679.00,1.70
7678.00,1.70
7677.00,1.70
7676.00,1.70
7675.00,1.70
7674.00,1.70
7673.00,1.70
7672.00,1.70
7671.00,1.70
7670.00,1.70
7669.00,1.70
7668.00,1.70
7667.00,1.70
7666.00,1.70
7665.00,1.70
7664.00,1.70
7663.00,1.70
7662.00,1.69
7661.00,1.69
7660.00,1.69
7659.00,1.69
7658.00,1.69
7657.00,1.69
7656.00,1.69
7655.00,1.69
7654.00,1.69
7653.00,1.69
7652.00,1.69
7651.00,1.69
7650.00,1.69
7649.00,1.69
7648.00,1.69
7647.00,1.69
7646.00,1.69
7645.00,1.69
7644.00,1.69
7643.00,1.69
7642.00,1.69
7641.00,1.69
7640.00,1.69
7639.00,1.69
7638.00,1.69
7637.00,1.70
7636.00,1.70
7635.00,1.70
7634.00,1.70
7633.00,1.70
7632.00,1.70
7631.00,1.70
7630.00,1.70
7629.00,1.70
7628.00,1.70
7627.00,1.70
7626.00,1.70
7625.00,1.70
7624.00,1.70
7623.00,1.70
7622.00,1.70
7621.00,1.70
7620.00,1.70
7619.00,1.70
7618.00,1.70
7617.00,1.70
7616.00,1.70
7615.00,1.70
7614.00,1.70
7613.00,1.70
7612.00,1.70
7611.00,1.70
7610.00,1.70
7609.00,1.70
7608.00,1.70
7607.00,1.70
7606.00,1.70
7605.00,1.70
7604.00,1.70
7603.00,1.70
7602.00,1.70
7601.00,1.70
7600.00,1.70
7599.00,1.70
7598.00,1.70
7597.00,1.70
7596.00,1.70
7595.00,1.70
7594.00,1.70
7593.00,1.71
7592.00,1.71
7591.00,1.71
7590.00,1.71
7589.00,1.71
7588.00,1.71
7587.00,1.70
7586.00,1.70
7585.00,1.70
7584.00,1.70
7583.00,1.70
7582.00,1.70
7581.00,1.70
7580.00,1.70
7579.00,1.70
7578.00,1.70
7577.00,1.70
7576.00,1.70
7575.00,1.69
7574.00,1.69
7573.00,1.69
7572.00,1.69
7571.00,1.69
7570.00,1.69
7569.00,1.69
7568.00,1.69
7567.00,1.69
7566.00,1.69
7565.00,1.69
7564.00,1.69
7563.00,1.69
7562.00,1.69
7561.00,1.68
7560.00,1.68
7559.00,1.68
7558.00,1.68
7557.00,1.68
7556.00,1.68
7555.00,1.68
7554.00,1.68
7553.00,1.68
7552.00,1.68
7551.00,1.68
7550.00,1.68
7549.00,1.68
7548.00,1.68
7547.00,1.68
7546.00,1.68
7545.00,1.68
7544.00,1.68
7543.00,1.68
7542.00,1.68
7541.00,1.68
7540.00,1.68
7539.00,1.68
7538.00,1.68
7537.00,1.68
7536.00,1.68
7535.00,1.68
7534.00,1.68
7533.00,1.68
7532.00,1.68
7531.00,1.68
7530.00,1.68
7529.00,1.68
7528.00,1.68
7527.00,1.67
7526.00,1.67
7525.00,1.67
7524.00,1.67
7523.00,1.67
7522.00,1.67
7521.00,1.67
7520.00,1.67
7519.00,1.67
7518.00,1.67
7517.00,1.67
7516.00,1.67
7515.00,1.68
7514.00,1.68
7513.00,1.68
7512.00,1.68
7511.00,1.68
7510.00,1.68
7509.00,1.68
7508.00,1.68
7507.00,1.68
7506.00,1.69
7505.00,1.69
7504.00,1.69
7503.00,1.69
7502.00,1.69
7501.00,1.69
7500.00,1.69
7499.00,1.69
7498.00,1.68
7497.00,1.68
7496.00,1.68
7495.00,1.68
7494.00,1.68
7493.00,1.68
7492.00,1.68
7491.00,1.68
7490.00,1.68
7489.00,1.67
7488.00,1.67
7487.00,1.67
7486.00,1.67
7485.00,1.67
7484.00,1.67
7483.00,1.67
7482.00,1.67
7481.00,1.67
7480.00,1.67
7479.00,1.67
7478.00,1.67
7477.00,1.67
7476.00,1.67
7475.00,1.67
7474.00,1.67
7473.00,1.67
7472.00,1.66
7471.00,1.66
7470.00,1.66
7469.00,1.66
7468.00,1.66
7467.00,1.65
7466.00,1.65
7465.00,1.65
7464.00,1.65
7463.00,1.65
7462.00,1.64
7461.00,1.64
7460.00,1.64
7459.00,1.64
7458.00,1.64
7457.00,1.64
7456.00,1.64
7455.00,1.64
7454.00,1.64
7453.00,1.64
7452.00,1.64
7451.00,1.64
7450.00,1.64
7449.00,1.64
7448.00,1.64
7447.00,1.64
7446.00,1.64
7445.00,1.64
7444.00,1.64
7443.00,1.64
7442.00,1.64
7441.00,1.64
7440.00,1.64
7439.00,1.64
7438.00,1.63
7437.00,1.63
7436.00,1.63
7435.00,1.63
7434.00,1.63
7433.00,1.63
7432.00,1.63
7431.00,1.63
7430.00,1.63
7429.00,1.63
7428.00,1.63
7427.00,1.63
7426.00,1.63
7425.00,1.63
7424.00,1.62
7423.00,1.62
7422.00,1.62
7421.00,1.62
7420.00,1.62
7419.00,1.62
7418.00,1.62
7417.00,1.62
7416.00,1.62
7415.00,1.62
7414.00,1.62
7413.00,1.61
7412.00,1.61
7411.00,1.61
7410.00,1.61
7409.00,1.61
7408.00,1.61
7407.00,1.61
7406.00,1.60
7405.00,1.60
7404.00,1.60
7403.00,1.60
7402.00,1.60
7401.00,1.60
7400.00,1.60
7399.00,1.59
7398.00,1.59
7397.00,1.59
7396.00,1.59
7395.00,1.59
7394.00,1.58
7393.00,1.58
7392.00,1.58
7391.00,1.58
7390.00,1.58
7389.00,1.57
7388.00,1.57
7387.00,1.57
7386.00,1.57
7385.00,1.57
7384.00,1.57
7383.00,1.57
7382.00,1.56
7381.00,1.56
7380.00,1.56
7379.00,1.57
7378.00,1.57
7377.00,1.57
7376.00,1.57
7375.00,1.57
7374.00,1.57
7373.00,1.57
7372.00,1.57
7371.00,1.57
7370.00,1.57
7369.00,1.57
7368.00,1.57
7367.00,1.57
7366.00,1.57
7365.00,1.57
7364.00,1.57
7363.00,1.57
7362.00,1.57
7361.00,1.57
7360.00,1.57
7359.00,1.57
7358.00,1.56
7357.00,1.56
7356.00,1.56
7355.00,1.56
7354.00,1.56
7353.00,1.56
7352.00,1.56
7351.00,1.56
7350.00,1.56
7349.00,1.56
7348.00,1.56
7347.00,1.56
7346.00,1.56
7345.00,1.56
7344.00,1.56
7343.00,1.56
7342.00,1.56
7341.00,1.56
7340.00,1.56
7339.00,1.56
7338.00,1.56
7337.00,1.56
7336.00,1.56
7335.00,1.56
7334.00,1.56
7333.00,1.56
7332.00,1.55
7331.00,1.55
7330.00,1.55
7329.00,1.55
7328.00,1.55
7327.00,1.55
7326.00,1.55
7325.00,1.55
7324.00,1.55
7323.00,1.55
7322.00,1.55
7321.00,1.55
7320.00,1.55
7319.00,1.54
7318.00,1.54
7317.00,1.54
7316.00,1.54
7315.00,1.54
7314.00,1.54
7313.00,1.54
7312.00,1.54
7311.00,1.54
7310.00,1.54
7309.00,1.54
7308.00,1.54
7307.00,1.54
7306.00,1.54
7305.00,1.54
7304.00,1.54
7303.00,1.54
7302.00,1.54
7301.00,1.53
7300.00,1.53
7299.00,1.53
7298.00,1.53
7297.00,1.53
7296.00,1.53
7295.00,1.53
7294.00,1.53
7293.00,1.53
7292.00,1.52
7291.00,1.52
7290.00,1.52
7289.00,1.52
7288.00,1.52
7287.00,1.52
7286.00,1.52
7285.00,1.51
7284.00,1.51
7283.00,1.51
7282.00,1.51
7281.00,1.51
7280.00,1.51
7279.00,1.51
7278.00,1.50
7277.00,1.50
7276.00,1.50
7275.00,1.50
7274.00,1.50
7273.00,1.50
7272.00,1.50
7271.00,1.49
7270.00,1.49
7269.00,1.49
7268.00,1.49
7267.00,1.49
7266.00,1.49
7265.00,1.48
7264.00,1.48
7263.00,1.48
7262.00,1.48
7261.00,1.47
7260.00,1.47
7259.00,1.47
7258.00,1.47
7257.00,1.46
7256.00,1.46
7255.00,1.46
7254.00,1.46
7253.00,1.45
7252.00,1.45
7251.00,1.45
7250.00,1.44
7249.00,1.44
7248.00,1.44
7247.00,1.44
7246.00,1.44
7245.00,1.43
7244.00,1.43
7243.00,1.43
7242.00,1.43
7241.00,1.42
7240.00,1.42
7239.00,1.42
7238.00,1.41
7237.00,1.41
7236.00,1.41
7235.00,1.40
7234.00,1.40
7233.00,1.40
7232.00,1.39
7231.00,1.39
7230.00,1.38
7229.00,1.38
7228.00,1.37
7227.00,1.37
7226.00,1.37
7225.00,1.36
7224.00,1.36
7223.00,1.35
7222.00,1.35
7221.00,1.34
7220.00,1.34
7219.00,1.34
7218.00,1.33
7217.00,1.33
7216.00,1.32
7215.00,1.32
7214.00,1.31
7213.00,1.31
7212.00,1.31
7211.00,1.30
7210.00,1.30
7209.00,1.29
7208.00,1.29
7207.00,1.29
7206.00,1.28
7205.00,1.28
7204.00,1.27
7203.00,1.27
7202.00,1.27
7201.00,1.27
7200.00,1.26
7199.00,1.26
7198.00,1.26
7197.00,1.25
7196.00,1.25
7195.00,1.25
7194.00,1.25
7193.00,1.24
7192.00,1.24
7191.00,1.23
7190.00,1.23
7189.00,1.23
7188.00,1.22
7187.00,1.22
7186.00,1.21
7185.00,1.21
7184.00,1.20
7183.00,1.20
7182.00,1.19
7181.00,1.19
7180.00,1.18
7179.00,1.18
7178.00,1.17
7177.00,1.17
7176.00,1.17
7175.00,1.16
7174.00,1.16
7173.00,1.16
7172.00,1.15
7171.00,1.15
7170.00,1.15
7169.00,1.14
7168.00,1.14
7167.00,1.14
7166.00,1.14
7165.00,1.13
7164.00,1.13
7163.00,1.13
7162.00,1.13
7161.00,1.12
7160.00,1.12
7159.00,1.12
7158.00,1.12
7157.00,1.11
7156.00,1.11
7155.00,1.11
7154.00,1.10
7153.00,1.10
7152.00,1.10
7151.00,1.09
7150.00,1.09
7149.00,1.09
7148.00,1.08
7147.00,1.08
7146.00,1.07
7145.00,1.07
7144.00,1.07
7143.00,1.06
7142.00,1.06
7141.00,1.05
7140.00,1.05
7139.00,1.05
7138.00,1.04
7137.00,1.04
7136.00,1.04
7135.00,1.03
7134.00,1.03
7133.00,1.03
7132.00,1.02
7131.00,1.02
7130.00,1.02
7129.00,1.02
7128.00,1.01
7127.00,1.01
7126.00,1.01
7125.00,1.01
7124.00,1.00
7123.00,1.00
7122.00,1.00
7121.00,1.00
7120.00,0.99
7119.00,0.99
7118.00,0.99
7117.00,0.99
7116.00,0.98
7115.00,0.98
7114.00,0.98
7113.00,0.97
7112.00,0.97
7111.00,0.97
7110.00,0.96
7109.00,0.96
7108.00,0.95
7107.00,0.95
7106.00,0.95
7105.00,0.94
7104.00,0.94
7103.00,0.94
7102.00,0.93
7101.00,0.93
7100.00,0.93
7099.00,0.93
7098.00,0.92
7097.00,0.92
7096.00,0.92
7095.00,0.91
7094.00,0.91
7093.00,0.91
7092.00,0.90
7091.00,0.90
7090.00,0.90
7089.00,0.89
7088.00,0.89
7087.00,0.89
7086.00,0.88
7085.00,0.88
7084.00,0.88
7083.00,0.87
7082.00,0.87
7081.00,0.87
7080.00,0.87
7079.00,0.86
7078.00,0.86
7077.00,0.86
7076.00,0.86
7075.00,0.85
7074.00,0.85
7073.00,0.85
7072.00,0.85
7071.00,0.85
7070.00,0.85
7069.00,0.85
7068.00,0.84
7067.00,0.84
7066.00,0.84
7065.00,0.84
7064.00,0.84
7063.00,0.84
7062.00,0.84
7061.00,0.84
7060.00,0.84
7059.00,0.84
7058.00,0.84
7057.00,0.84
7056.00,0.83
7055.00,0.83
7054.00,0.83
7053.00,0.83
7052.00,0.83
7051.00,0.83
7050.00,0.82
7049.00,0.82
7048.00,0.82
7047.00,0.82
7046.00,0.82
7045.00,0.81
7044.00,0.81
7043.00,0.81
7042.00,0.81
7041.00,0.80
7040.00,0.80
7039.00,0.80
7038.00,0.80
7037.00,0.79
7036.00,0.79
7035.00,0.79
7034.00,0.78
7033.00,0.78
7032.00,0.78
7031.00,0.78
7030.00,0.77
7029.00,0.77
7028.00,0.77
7027.00,0.77
7026.00,0.77
7025.00,0.76
7024.00,0.76
7023.00,0.76
7022.00,0.76
7021.00,0.76
7020.00,0.76
7019.00,0.76
7018.00,0.75
7017.00,0.75
7016.00,0.75
7015.00,0.75
7014.00,0.75
7013.00,0.75
7012.00,0.74
7011.00,0.74
7010.00,0.74
7009.00,0.74
7008.00,0.74
7007.00,0.74
7006.00,0.73
7005.00,0.73
7004.00,0.73
7003.00,0.73
7002.00,0.73
7001.00,0.73
7000.00,0.73
6999.00,0.73
6998.00,0.73
6997.00,0.73
6996.00,0.73
6995.00,0.73
6994.00,0.73
6993.00,0.73
6992.00,0.73
6991.00,0.73
6990.00,0.73
6989.00,0.73
6988.00,0.73
6987.00,0.73
6986.00,0.73
6985.00,0.73
6984.00,0.73
6983.00,0.73
6982.00,0.73
6981.00,0.73
6980.00,0.73
6979.00,0.73
6978.00,0.73
6977.00,0.73
6976.00,0.73
6975.00,0.73
6974.00,0.73
6973.00,0.73
6972.00,0.73
6971.00,0.73
6970.00,0.73
6969.00,0.73
6968.00,0.73
6967.00,0.73
6966.00,0.73
6965.00,0.73
6964.00,0.73
6963.00,0.73
6962.00,0.73
6961.00,0.73
6960.00,0.73
6959.00,0.72
6958.00,0.72
6957.00,0.72
6956.00,0.72
6955.00,0.72
6954.00,0.72
6953.00,0.72
6952.00,0.71
6951.00,0.71
6950.00,0.71
6949.00,0.71
6948.00,0.71
6947.00,0.71
6946.00,0.71
6945.00,0.71
6944.00,0.71
6943.00,0.71
6942.00,0.71
6941.00,0.70
6940.00,0.70
6939.00,0.70
6938.00,0.70
6937.00,0.70
6936.00,0.70
6935.00,0.70
6934.00,0.70
6933.00,0.70
6932.00,0.70
6931.00,0.70
6930.00,0.70
6929.00,0.70
6928.00,0.70
6927.00,0.69
6926.00,0.69
6925.00,0.69
6924.00,0.69
6923.00,0.69
6922.00,0.69
6921.00,0.69
6920.00,0.69
6919.00,0.69
6918.00,0.69
6917.00,0.68
6916.00,0.68
6915.00,0.68
6914.00,0.68
6913.00,0.68
6912.00,0.68
6911.00,0.68
6910.00,0.68
6909.00,0.69
6908.00,0.69
6907.00,0.69
6906.00,0.69
6905.00,0.69
6904.00,0.69
6903.00,0.69
6902.00,0.69
6901.00,0.69
6900.00,0.69
6899.00,0.69
6898.00,0.69
6897.00,0.69
6896.00,0.69
6895.00,0.69
6894.00,0.69
6893.00,0.69
6892.00,0.69
6891.00,0.68
6890.00,0.68
6889.00,0.68
6888.00,0.68
6887.00,0.68
6886.00,0.68
6885.00,0.68
6884.00,0.68
6883.00,0.68
6882.00,0.68
6881.00,0.68
6880.00,0.68
6879.00,0.68
6878.00,0.68
6877.00,0.68
6876.00,0.68
6875.00,0.68
6874.00,0.68
6873.00,0.68
6872.00,0.68
6871.00,0.68
6870.00,0.68
6869.00,0.68
6868.00,0.68
6867.00,0.67
6866.00,0.67
6865.00,0.67
6864.00,0.67
6863.00,0.67
6862.00,0.67
6861.00,0.67
6860.00,0.67
6859.00,0.67
6858.00,0.67
6857.00,0.67
6856.00,0.67
6855.00,0.67
6854.00,0.67
6853.00,0.67
6852.00,0.67
6851.00,0.67
6850.00,0.67
6849.00,0.67
6848.00,0.67
6847.00,0.67
6846.00,0.67
6845.00,0.67
6844.00,0.67
6843.00,0.67
6842.00,0.67
6841.00,0.67
6840.00,0.67
6839.00,0.68
6838.00,0.68
6837.00,0.68
6836.00,0.68
6835.00,0.68
6834.00,0.68
6833.00,0.68
6832.00,0.68
6831.00,0.68
6830.00,0.68
6829.00,0.68
6828.00,0.68
6827.00,0.69
6826.00,0.69
6825.00,0.69
6824.00,0.69
6823.00,0.69
6822.00,0.69
6821.00,0.69
6820.00,0.69
6819.00,0.69
6818.00,0.70
6817.00,0.70
6816.00,0.70
6815.00,0.70
6814.00,0.70
6813.00,0.70
6812.00,0.70
6811.00,0.71
6810.00,0.71
6809.00,0.71
6808.00,0.71
6807.00,0.71
6806.00,0.71
6805.00,0.71
6804.00,0.71
6803.00,0.71
6802.00,0.71
6801.00,0.71
6800.00,0.71
6799.00,0.71
6798.00,0.71
6797.00,0.71
6796.00,0.71
6795.00,0.71
6794.00,0.71
6793.00,0.71
6792.00,0.71
6791.00,0.71
6790.00,0.71
6789.00,0.71
6788.00,0.71
6787.00,0.71
6786.00,0.71
6785.00,0.71
6784.00,0.71
6783.00,0.71
6782.00,0.71
6781.00,0.72
6780.00,0.72
6779.00,0.72
6778.00,0.72
6777.00,0.72
6776.00,0.72
6775.00,0.72
6774.00,0.72
6773.00,0.72
6772.00,0.72
6771.00,0.72
6770.00,0.72
6769.00,0.73
6768.00,0.73
6767.00,0.73
6766.00,0.73
6765.00,0.73
6764.00,0.73
6763.00,0.73
6762.00,0.73
6761.00,0.74
6760.00,0.74
6759.00,0.74
6758.00,0.74
6757.00,0.74
6756.00,0.74
6755.00,0.74
6754.00,0.75
6753.00,0.75
6752.00,0.75
6751.00,0.75
6750.00,0.75
6749.00,0.75
6748.00,0.75
6747.00,0.75
6746.00,0.75
6745.00,0.75
6744.00,0.75
6743.00,0.75
6742.00,0.75
6741.00,0.75
6740.00,0.75
6739.00,0.75
6738.00,0.75
6737.00,0.75
6736.00,0.75
6735.00,0.75
6734.00,0.75
6733.00,0.75
6732.00,0.75
6731.00,0.75
6730.00,0.76
6729.00,0.76
6728.00,0.76
6727.00,0.76
6726.00,0.76
6725.00,0.76
6724.00,0.76
6723.00,0.76
6722.00,0.76
6721.00,0.76
6720.00,0.77
6719.00,0.77
6718.00,0.77
6717.00,0.77
6716.00,0.77
6715.00,0.78
6714.00,0.78
6713.00,0.78
6712.00,0.78
6711.00,0.78
6710.00,0.78
6709.00,0.79
6708.00,0.79
6707.00,0.79
6706.00,0.79
6705.00,0.79
6704.00,0.79
6703.00,0.80
6702.00,0.80
6701.00,0.80
6700.00,0.80
6699.00,0.80
6698.00,0.80
6697.00,0.80
6696.00,0.80
6695.00,0.80
6694.00,0.80
6693.00,0.81
6692.00,0.81
6691.00,0.81
6690.00,0.81
6689.00,0.81
6688.00,0.81
6687.00,0.81
6686.00,0.81
6685.00,0.81
6684.00,0.81
6683.00,0.81
6682.00,0.81
6681.00,0.81
6680.00,0.81
6679.00,0.81
6678.00,0.81
6677.00,0.81
6676.00,0.82
6675.00,0.82
6674.00,0.82
6673.00,0.82
6672.00,0.82
6671.00,0.82
6670.00,0.82
6669.00,0.82
6668.00,0.82
6667.00,0.82
6666.00,0.83
6665.00,0.83
6664.00,0.83
6663.00,0.83
6662.00,0.83
6661.00,0.83
6660.00,0.83
6659.00,0.83
6658.00,0.84
6657.00,0.84
6656.00,0.84
6655.00,0.84
6654.00,0.84
6653.00,0.84
6652.00,0.84
6651.00,0.85
6650.00,0.85
6649.00,0.85
6648.00,0.85
6647.00,0.85
6646.00,0.85
6645.00,0.85
6644.00,0.86
6643.00,0.86
6642.00,0.86
6641.00,0.86
6640.00,0.86
6639.00,0.86
6638.00,0.86
6637.00,0.86
6636.00,0.86
6635.00,0.87
6634.00,0.87
6633.00,0.87
6632.00,0.87
6631.00,0.87
6630.00,0.87
6629.00,0.87
6628.00,0.87
6627.00,0.87
6626.00,0.87
6625.00,0.87
6624.00,0.87
6623.00,0.87
6622.00,0.88
6621.00,0.88
6620.00,0.88
6619.00,0.88
6618.00,0.88
6617.00,0.88
6616.00,0.88
6615.00,0.89
6614.00,0.89
6613.00,0.89
6612.00,0.89
6611.00,0.89
6610.00,0.89
6609.00,0.89
6608.00,0.89
6607.00,0.89
6606.00,0.90
6605.00,0.90
6604.00,0.90
6603.00,0.90
6602.00,0.90
6601.00,0.90
6600.00,0.90
6599.00,0.90
6598.00,0.90
6597.00,0.91
6596.00,0.91
6595.00,0.91
6594.00,0.91
6593.00,0.91
6592.00,0.92
6591.00,0.92
6590.00,0.92
6589.00,0.92
6588.00,0.92
6587.00,0.93
6586.00,0.93
6585.00,0.93
6584.00,0.93
6583.00,0.93
6582.00,0.93
6581.00,0.93
6580.00,0.93
6579.00,0.93
6578.00,0.93
6577.00,0.93
6576.00,0.93
6575.00,0.93
6574.00,0.93
6573.00,0.93
6572.00,0.93
6571.00,0.94
6570.00,0.94
6569.00,0.94
6568.00,0.94
6567.00,0.94
6566.00,0.94
6565.00,0.94
6564.00,0.95
6563.00,0.95
6562.00,0.95
6561.00,0.95
6560.00,0.95
6559.00,0.96
6558.00,0.96
6557.00,0.96
6556.00,0.96
6555.00,0.96
6554.00,0.96
6553.00,0.96
6552.00,0.97
6551.00,0.97
6550.00,0.97
6549.00,0.97
6548.00,0.97
6547.00,0.97
6546.00,0.97
6545.00,0.98
6544.00,0.98
6543.00,0.98
6542.00,0.98
6541.00,0.98
6540.00,0.98
6539.00,0.98
6538.00,0.99
6537.00,0.99
6536.00,0.99
6535.00,0.99
6534.00,0.99
6533.00,0.99
6532.00,0.99
6531.00,0.99
6530.00,0.99
6529.00,0.99
6528.00,0.99
6527.00,0.99
6526.00,0.99
6525.00,0.99
6524.00,0.99
6523.00,0.99
6522.00,0.99
6521.00,0.99
6520.00,0.99
6519.00,0.99
6518.00,0.99
6517.00,0.99
6516.00,0.99
6515.00,0.99
6514.00,0.99
6513.00,0.99
6512.00,0.99
6511.00,1.00
6510.00,1.00
6509.00,1.00
6508.00,1.00
6507.00,1.00
6506.00,1.00
6505.00,1.00
6504.00,1.00
6503.00,1.00
6502.00,1.00
6501.00,1.00
6500.00,1.00
6499.00,1.01
6498.00,1.01
6497.00,1.01
6496.00,1.01
6495.00,1.01
6494.00,1.01
6493.00,1.02
6492.00,1.02
6491.00,1.02
6490.00,1.02
6489.00,1.02
6488.00,1.03
6487.00,1.03
6486.00,1.03
6485.00,1.03
6484.00,1.03
6483.00,1.03
6482.00,1.03
6481.00,1.03
6480.00,1.04
6479.00,1.04
6478.00,1.04
6477.00,1.04
6476.00,1.04
6475.00,1.04
6474.00,1.04
6473.00,1.03
6472.00,1.03
6471.00,1.03
6470.00,1.03
6469.00,1.03
6468.00,1.03
6467.00,1.04
6466.00,1.04
6465.00,1.04
6464.00,1.04
6463.00,1.04
6462.00,1.04
6461.00,1.04
6460.00,1.04
6459.00,1.04
6458.00,1.04
6457.00,1.04
6456.00,1.04
6455.00,1.04
6454.00,1.04
6453.00,1.04
6452.00,1.04
6451.00,1.04
6450.00,1.04
6449.00,1.05
6448.00,1.05
6447.00,1.05
6446.00,1.05
6445.00,1.05
6444.00,1.05
6443.00,1.05
6442.00,1.05
6441.00,1.06
6440.00,1.06
6439.00,1.06
6438.00,1.06
6437.00,1.06
6436.00,1.06
6435.00,1.06
6434.00,1.06
6433.00,1.07
6432.00,1.07
6431.00,1.07
6430.00,1.07
6429.00,1.07
6428.00,1.07
6427.00,1.07
6426.00,1.07
6425.00,1.07
6424.00,1.07
6423.00,1.07
6422.00,1.07
6421.00,1.07
6420.00,1.07
6419.00,1.07
6418.00,1.07
6417.00,1.07
6416.00,1.07
6415.00,1.07
6414.00,1.07
6413.00,1.07
6412.00,1.07
6411.00,1.07
6410.00,1.07
6409.00,1.07
6408.00,1.07
6407.00,1.07
6406.00,1.07
6405.00,1.07
6404.00,1.07
6403.00,1.07
6402.00,1.07
6401.00,1.07
6400.00,1.07
6399.00,1.07
6398.00,1.07
6397.00,1.07
6396.00,1.07
6395.00,1.07
6394.00,1.07
6393.00,1.07
6392.00,1.07
6391.00,1.07
6390.00,1.08
6389.00,1.08
6388.00,1.08
6387.00,1.08
6386.00,1.08
6385.00,1.08
6384.00,1.08
6383.00,1.08
6382.00,1.08
6381.00,1.08
6380.00,1.09
6379.00,1.09
6378.00,1.09
6377.00,1.09
6376.00,1.09
6375.00,1.09
6374.00,1.09
6373.00,1.09
6372.00,1.09
6371.00,1.09
6370.00,1.09
6369.00,1.10
6368.00,1.10
6367.00,1.10
6366.00,1.10
6365.00,1.10
6364.00,1.10
6363.00,1.10
6362.00,1.10
6361.00,1.10
6360.00,1.10
6359.00,1.10
6358.00,1.10
6357.00,1.10
6356.00,1.10
6355.00,1.10
6354.00,1.10
6353.00,1.11
6352.00,1.11
6351.00,1.11
6350.00,1.11
6349.00,1.11
6348.00,1.11
6347.00,1.11
6346.00,1.11
6345.00,1.11
6344.00,1.12
6343.00,1.12
6342.00,1.12
6341.00,1.12
6340.00,1.12
6339.00,1.12
6338.00,1.12
6337.00,1.12
6336.00,1.13
6335.00,1.13
6334.00,1.13
6333.00,1.13
6332.00,1.13
6331.00,1.13
6330.00,1.13
6329.00,1.13
6328.00,1.13
6327.00,1.13
6326.00,1.13
6325.00,1.14
6324.00,1.14
6323.00,1.14
6322.00,1.14
6321.00,1.14
6320.00,1.14
6319.00,1.14
6318.00,1.14
6317.00,1.14
6316.00,1.15
6315.00,1.15
6314.00,1.15
6313.00,1.15
6312.00,1.15
6311.00,1.15
6310.00,1.15
6309.00,1.15
6308.00,1.15
6307.00,1.16
6306.00,1.16
6305.00,1.16
6304.00,1.16
6303.00,1.16
6302.00,1.16
6301.00,1.16
6300.00,1.16
6299.00,1.16
6298.00,1.17
6297.00,1.17
6296.00,1.17
6295.00,1.17
6294.00,1.17
6293.00,1.17
6292.00,1.18
6291.00,1.18
6290.00,1.18
6289.00,1.18
6288.00,1.18
6287.00,1.19
6286.00,1.19
6285.00,1.19
6284.00,1.19
6283.00,1.19
6282.00,1.20
6281.00,1.20
6280.00,1.20
6279.00,1.20
6278.00,1.20
6277.00,1.20
6276.00,1.20
6275.00,1.21
6274.00,1.21
6273.00,1.21
6272.00,1.21
6271.00,1.21
6270.00,1.21
6269.00,1.21
6268.00,1.22
6267.00,1.22
6266.00,1.22
6265.00,1.22
6264.00,1.22
6263.00,1.22
6262.00,1.23
6261.00,1.23
6260.00,1.23
6259.00,1.23
6258.00,1.23
6257.00,1.24
6256.00,1.24
6255.00,1.24
6254.00,1.24
6253.00,1.24
6252.00,1.24
6251.00,1.25
6250.00,1.25
6249.00,1.25
6248.00,1.25
6247.00,1.25
6246.00,1.25
6245.00,1.25
6244.00,1.25
6243.00,1.25
6242.00,1.25
6241.00,1.25
6240.00,1.25
6239.00,1.26
6238.00,1.26
6237.00,1.26
6236.00,1.26
6235.00,1.26
6234.00,1.26
6233.00,1.26
6232.00,1.26
6231.00,1.26
6230.00,1.26
6229.00,1.27
6228.00,1.27
6227.00,1.27
6226.00,1.27
6225.00,1.27
6224.00,1.28
6223.00,1.28
6222.00,1.28
6221.00,1.28
6220.00,1.28
6219.00,1.29
6218.00,1.29
6217.00,1.29
6216.00,1.29
6215.00,1.29
6214.00,1.29
6213.00,1.30
6212.00,1.30
6211.00,1.30
6210.00,1.30
6209.00,1.30
6208.00,1.30
6207.00,1.30
6206.00,1.31
6205.00,1.31
6204.00,1.31
6203.00,1.31
6202.00,1.31
6201.00,1.31
6200.00,1.32
6199.00,1.32
6198.00,1.32
6197.00,1.32
6196.00,1.32
6195.00,1.32
6194.00,1.32
6193.00,1.33
6192.00,1.33
6191.00,1.33
6190.00,1.33
6189.00,1.33
6188.00,1.33
6187.00,1.33
6186.00,1.34
6185.00,1.34
6184.00,1.34
6183.00,1.34
6182.00,1.34
6181.00,1.34
6180.00,1.35
6179.00,1.35
6178.00,1.35
6177.00,1.35
6176.00,1.35
6175.00,1.36
6174.00,1.36
6173.00,1.36
6172.00,1.36
6171.00,1.36
6170.00,1.37
6169.00,1.37
6168.00,1.37
6167.00,1.37
6166.00,1.37
6165.00,1.37
6164.00,1.38
6163.00,1.38
6162.00,1.38
6161.00,1.38
6160.00,1.39
6159.00,1.39
6158.00,1.39
6157.00,1.39
6156.00,1.39
6155.00,1.40
6154.00,1.40
6153.00,1.40
6152.00,1.40
6151.00,1.40
6150.00,1.41
6149.00,1.41
6148.00,1.41
6147.00,1.41
6146.00,1.42
6145.00,1.42
6144.00,1.42
6143.00,1.42
6142.00,1.42
6141.00,1.43
6140.00,1.43
6139.00,1.43
6138.00,1.43
6137.00,1.43
6136.00,1.43
6135.00,1.43
6134.00,1.44
6133.00,1.44
6132.00,1.44
6131.00,1.44
6130.00,1.44
6129.00,1.44
6128.00,1.44
6127.00,1.45
6126.00,1.45
6125.00,1.45
6124.00,1.45
6123.00,1.45
6122.00,1.45
6121.00,1.46
6120.00,1.46
6119.00,1.46
6118.00,1.46
6117.00,1.46
6116.00,1.47
6115.00,1.47
6114.00,1.47
6113.00,1.47
6112.00,1.47
6111.00,1.47
6110.00,1.48
6109.00,1.48
6108.00,1.48
6107.00,1.48
6106.00,1.48
6105.00,1.48
6104.00,1.49
6103.00,1.49
6102.00,1.49
6101.00,1.49
6100.00,1.49
6099.00,1.49
6098.00,1.50
6097.00,1.50
6096.00,1.50
6095.00,1.50
6094.00,1.50
6093.00,1.51
6092.00,1.51
6091.00,1.51
6090.00,1.51
6089.00,1.51
6088.00,1.52
6087.00,1.52
6086.00,1.52
6085.00,1.52
6084.00,1.52
6083.00,1.53
6082.00,1.53
6081.00,1.53
6080.00,1.53
6079.00,1.53
6078.00,1.53
6077.00,1.53
6076.00,1.53
6075.00,1.53
6074.00,1.54
6073.00,1.54
6072.00,1.54
6071.00,1.54
6070.00,1.54
6069.00,1.54
6068.00,1.54
6067.00,1.54
6066.00,1.54
6065.00,1.54
6064.00,1.54
6063.00,1.54
6062.00,1.54
6061.00,1.54
6060.00,1.55
6059.00,1.55
6058.00,1.55
6057.00,1.55
6056.00,1.55
6055.00,1.55
6054.00,1.55
6053.00,1.55
6052.00,1.55
6051.00,1.55
6050.00,1.55
6049.00,1.55
6048.00,1.56
6047.00,1.56
6046.00,1.56
6045.00,1.56
6044.00,1.56
6043.00,1.56
6042.00,1.56
6041.00,1.56
6040.00,1.56
6039.00,1.57
6038.00,1.57
6037.00,1.57
6036.00,1.57
6035.00,1.57
6034.00,1.57
6033.00,1.57
6032.00,1.57
6031.00,1.57
6030.00,1.58
6029.00,1.58
6028.00,1.58
6027.00,1.58
6026.00,1.58
6025.00,1.58
6024.00,1.58
6023.00,1.58
6022.00,1.58
6021.00,1.58
6020.00,1.58
6019.00,1.58
6018.00,1.58
6017.00,1.58
6016.00,1.58
6015.00,1.58
6014.00,1.58
6013.00,1.58
6012.00,1.58
6011.00,1.58
6010.00,1.58
6009.00,1.58
6008.00,1.58
6007.00,1.58
6006.00,1.58
6005.00,1.58
6004.00,1.58
6003.00,1.58
6002.00,1.58
6001.00,1.58
6000.00,1.58
5999.00,1.57
5998.00,1.57
5997.00,1.57
5996.00,1.57
5995.00,1.57
5994.00,1.57
5993.00,1.56
5992.00,1.56
5991.00,1.56
5990.00,1.56
5989.00,1.55
5988.00,1.55
5987.00,1.55
5986.00,1.54
5985.00,1.54
5984.00,1.54
5983.00,1.53
5982.00,1.53
5981.00,1.52
5980.00,1.52
5979.00,1.52
5978.00,1.51
5977.00,1.51
5976.00,1.50
5975.00,1.50
5974.00,1.49
5973.00,1.49
5972.00,1.48
5971.00,1.47
5970.00,1.47
5969.00,1.46
5968.00,1.45
5967.00,1.44
5966.00,1.44
5965.00,1.43
5964.00,1.42
5963.00,1.41
5962.00,1.40
5961.00,1.39
5960.00,1.38
5959.00,1.37
5958.00,1.36
5957.00,1.35
5956.00,1.34
5955.00,1.33
5954.00,1.32
5953.00,1.31
5952.00,1.30
5951.00,1.29
5950.00,1.28
5949.00,1.28
5948.00,1.27
5947.00,1.26
5946.00,1.26
5945.00,1.25
5944.00,1.24
5943.00,1.24
5942.00,1.23
5941.00,1.23
5940.00,1.23
5939.00,1.22
5938.00,1.22
5937.00,1.22
5936.00,1.22
5935.00,1.21
5934.00,1.21
5933.00,1.21
5932.00,1.21
5931.00,1.21
5930.00,1.21
5929.00,1.21
5928.00,1.21
5927.00,1.21
5926.00,1.20
5925.00,1.20
5924.00,1.20
5923.00,1.20
5922.00,1.20
5921.00,1.20
5920.00,1.19
5919.00,1.19
5918.00,1.19
5917.00,1.19
5916.00,1.18
5915.00,1.18
5914.00,1.18
5913.00,1.17
5912.00,1.17
5911.00,1.16
5910.00,1.16
5909.00,1.16
5908.00,1.15
5907.00,1.15
5906.00,1.15
5905.00,1.15
5904.00,1.14
5903.00,1.14
5902.00,1.14
5901.00,1.14
5900.00,1.14
5899.00,1.14
5898.00,1.14
5897.00,1.14
5896.00,1.15
5895.00,1.15
5894.00,1.15
5893.00,1.15
5892.00,1.15
5891.00,1.16
5890.00,1.16
5889.00,1.17
5888.00,1.17
5887.00,1.17
5886.00,1.18
5885.00,1.18
5884.00,1.19
5883.00,1.19
5882.00,1.19
5881.00,1.20
5880.00,1.20
5879.00,1.21
5878.00,1.21
5877.00,1.21
5876.00,1.22
5875.00,1.22
5874.00,1.22
5873.00,1.23
5872.00,1.23
5871.00,1.23
5870.00,1.24
5869.00,1.24
5868.00,1.24
5867.00,1.24
5866.00,1.25
5865.00,1.25
5864.00,1.25
5863.00,1.25
5862.00,1.26
5861.00,1.26
5860.00,1.26
5859.00,1.26
5858.00,1.27
5857.00,1.27
5856.00,1.27
5855.00,1.27
5854.00,1.27
5853.00,1.27
5852.00,1.27
5851.00,1.27
5850.00,1.27
5849.00,1.27
5848.00,1.28
5847.00,1.28
5846.00,1.28
5845.00,1.28
5844.00,1.27
5843.00,1.27
5842.00,1.27
5841.00,1.27
5840.00,1.27
5839.00,1.27
5838.00,1.27
5837.00,1.27
5836.00,1.27
5835.00,1.27
5834.00,1.27
5833.00,1.27
5832.00,1.27
5831.00,1.27
5830.00,1.27
5829.00,1.27
5828.00,1.27
5827.00,1.27
5826.00,1.27
5825.00,1.27
5824.00,1.27
5823.00,1.27
5822.00,1.27
5821.00,1.27
5820.00,1.27
5819.00,1.27
5818.00,1.27
5817.00,1.27
5816.00,1.27
5815.00,1.27
5814.00,1.27
5813.00,1.27
5812.00,1.28
5811.00,1.28
5810.00,1.28
5809.00,1.28
5808.00,1.28
5807.00,1.28
5806.00,1.28
5805.00,1.27
5804.00,1.27
5803.00,1.27
5802.00,1.27
5801.00,1.27
5800.00,1.27
5799.00,1.27
5798.00,1.27
5797.00,1.26
5796.00,1.26
5795.00,1.26
5794.00,1.26
5793.00,1.25
5792.00,1.25
5791.00,1.25
5790.00,1.24
5789.00,1.24
5788.00,1.24
5787.00,1.23
5786.00,1.23
5785.00,1.23
5784.00,1.22
5783.00,1.22
5782.00,1.22
5781.00,1.21
5780.00,1.21
5779.00,1.21
5778.00,1.21
5777.00,1.20
5776.00,1.20
5775.00,1.20
5774.00,1.20
5773.00,1.20
5772.00,1.20
5771.00,1.20
5770.00,1.20
5769.00,1.20
5768.00,1.20
5767.00,1.20
5766.00,1.20
5765.00,1.20
5764.00,1.21
5763.00,1.21
5762.00,1.21
5761.00,1.22
5760.00,1.22
5759.00,1.22
5758.00,1.23
5757.00,1.23
5756.00,1.24
5755.00,1.24
5754.00,1.25
5753.00,1.25
5752.00,1.26
5751.00,1.26
5750.00,1.27
5749.00,1.27
5748.00,1.28
5747.00,1.28
5746.00,1.29
5745.00,1.29
5744.00,1.30
5743.00,1.30
5742.00,1.31
5741.00,1.31
5740.00,1.31
5739.00,1.32
5738.00,1.32
5737.00,1.32
5736.00,1.33
5735.00,1.33
5734.00,1.33
5733.00,1.34
5732.00,1.34
5731.00,1.34
5730.00,1.34
5729.00,1.34
5728.00,1.35
5727.00,1.35
5726.00,1.35
5725.00,1.35
5724.00,1.35
5723.00,1.35
5722.00,1.35
5721.00,1.35
5720.00,1.35
5719.00,1.36
5718.00,1.36
5717.00,1.36
5716.00,1.36
5715.00,1.36
5714.00,1.36
5713.00,1.36
5712.00,1.36
5711.00,1.36
5710.00,1.36
5709.00,1.36
5708.00,1.36
5707.00,1.36
5706.00,1.36
5705.00,1.36
5704.00,1.36
5703.00,1.36
5702.00,1.36
5701.00,1.36
5700.00,1.36
5699.00,1.35
5698.00,1.35
5697.00,1.35
5696.00,1.35
5695.00,1.35
5694.00,1.35
5693.00,1.34
5692.00,1.34
5691.00,1.34
5690.00,1.34
5689.00,1.33
5688.00,1.33
5687.00,1.33
5686.00,1.33
5685.00,1.32
5684.00,1.32
5683.00,1.32
5682.00,1.32
5681.00,1.32
5680.00,1.32
5679.00,1.31
5678.00,1.31
5677.00,1.31
5676.00,1.31
5675.00,1.31
5674.00,1.31
5673.00,1.31
5672.00,1.31
5671.00,1.31
5670.00,1.31
5669.00,1.31
5668.00,1.31
5667.00,1.31
5666.00,1.31
5665.00,1.31
5664.00,1.32
5663.00,1.32
5662.00,1.32
5661.00,1.32
5660.00,1.32
5659.00,1.33
5658.00,1.33
5657.00,1.33
5656.00,1.33
5655.00,1.34
5654.00,1.34
5653.00,1.34
5652.00,1.34
5651.00,1.35
5650.00,1.35
5649.00,1.35
5648.00,1.35
5647.00,1.36
5646.00,1.36
5645.00,1.36
5644.00,1.36
5643.00,1.37
5642.00,1.37
5641.00,1.37
5640.00,1.38
5639.00,1.38
5638.00,1.38
5637.00,1.38
5636.00,1.39
5635.00,1.39
5634.00,1.39
5633.00,1.39
5632.00,1.40
5631.00,1.40
5630.00,1.40
5629.00,1.40
5628.00,1.41
5627.00,1.41
5626.00,1.41
5625.00,1.41
5624.00,1.42
5623.00,1.42
5622.00,1.42
5621.00,1.42
5620.00,1.42
5619.00,1.43
5618.00,1.43
5617.00,1.43
5616.00,1.43
5615.00,1.43
5614.00,1.44
5613.00,1.44
5612.00,1.44
5611.00,1.44
5610.00,1.45
5609.00,1.45
5608.00,1.45
5607.00,1.45
5606.00,1.46
5605.00,1.46
5604.00,1.46
5603.00,1.46
5602.00,1.47
5601.00,1.47
5600.00,1.47
5599.00,1.47
5598.00,1.47
5597.00,1.48
5596.00,1.48
5595.00,1.48
5594.00,1.48
5593.00,1.48
5592.00,1.49
5591.00,1.49
5590.00,1.49
5589.00,1.49
5588.00,1.49
5587.00,1.49
5586.00,1.50
5585.00,1.50
5584.00,1.50
5583.00,1.50
5582.00,1.50
5581.00,1.50
5580.00,1.51
5579.00,1.51
5578.00,1.51
5577.00,1.51
5576.00,1.51
5575.00,1.51
5574.00,1.51
5573.00,1.52
5572.00,1.52
5571.00,1.52
5570.00,1.52
5569.00,1.52
5568.00,1.52
5567.00,1.53
5566.00,1.53
5565.00,1.53
5564.00,1.53
5563.00,1.53
5562.00,1.53
5561.00,1.54
5560.00,1.54
5559.00,1.54
5558.00,1.54
5557.00,1.54
5556.00,1.54
5555.00,1.54
5554.00,1.54
5553.00,1.55
5552.00,1.55
5551.00,1.55
5550.00,1.55
5549.00,1.55
5548.00,1.55
5547.00,1.56
5546.00,1.56
5545.00,1.56
5544.00,1.56
5543.00,1.57
5542.00,1.57
5541.00,1.57
5540.00,1.57
5539.00,1.57
5538.00,1.58
5537.00,1.58
5536.00,1.58
5535.00,1.58
5534.00,1.58
5533.00,1.58
5532.00,1.59
5531.00,1.59
5530.00,1.59
5529.00,1.59
5528.00,1.59
5527.00,1.59
5526.00,1.60
5525.00,1.60
5524.00,1.60
5523.00,1.60
5522.00,1.60
5521.00,1.60
5520.00,1.60
5519.00,1.61
5518.00,1.61
5517.00,1.61
5516.00,1.61
5515.00,1.61
5514.00,1.61
5513.00,1.61
5512.00,1.61
5511.00,1.61
5510.00,1.61
5509.00,1.61
5508.00,1.61
5507.00,1.61
5506.00,1.61
5505.00,1.61
5504.00,1.61
5503.00,1.61
5502.00,1.62
5501.00,1.62
5500.00,1.62
5499.00,1.62
5498.00,1.62
5497.00,1.62
5496.00,1.62
5495.00,1.62
5494.00,1.62
5493.00,1.62
5492.00,1.62
5491.00,1.63
5490.00,1.63
5489.00,1.63
5488.00,1.63
5487.00,1.63
5486.00,1.63
5485.00,1.64
5484.00,1.64
5483.00,1.64
5482.00,1.64
5481.00,1.64
5480.00,1.64
5479.00,1.65
5478.00,1.65
5477.00,1.65
5476.00,1.65
5475.00,1.65
5474.00,1.65
5473.00,1.66
5472.00,1.66
5471.00,1.66
5470.00,1.66
5469.00,1.66
5468.00,1.66
5467.00,1.67
5466.00,1.67
5465.00,1.67
5464.00,1.67
5463.00,1.67
5462.00,1.67
5461.00,1.68
5460.00,1.68
5459.00,1.68
5458.00,1.68
5457.00,1.68
5456.00,1.69
5455.00,1.69
5454.00,1.69
5453.00,1.69
5452.00,1.69
5451.00,1.69
5450.00,1.70
5449.00,1.70
5448.00,1.70
5447.00,1.70
5446.00,1.70
5445.00,1.70
5444.00,1.70
5443.00,1.70
5442.00,1.70
5441.00,1.70
5440.00,1.70
5439.00,1.70
5438.00,1.70
5437.00,1.70
5436.00,1.70
5435.00,1.70
5434.00,1.70
5433.00,1.70
5432.00,1.70
5431.00,1.70
5430.00,1.70
5429.00,1.70
5428.00,1.70
5427.00,1.70
5426.00,1.71
5425.00,1.71
5424.00,1.71
5423.00,1.71
5422.00,1.71
5421.00,1.71
5420.00,1.71
5419.00,1.71
5418.00,1.71
5417.00,1.71
5416.00,1.71
5415.00,1.71
5414.00,1.71
5413.00,1.71
5412.00,1.71
5411.00,1.70
5410.00,1.70
5409.00,1.70
5408.00,1.70
5407.00,1.70
5406.00,1.70
5405.00,1.70
5404.00,1.70
5403.00,1.71
5402.00,1.71
5401.00,1.71
5400.00,1.71
5399.00,1.71
5398.00,1.71
5397.00,1.71
5396.00,1.71
5395.00,1.71
5394.00,1.71
5393.00,1.71
5392.00,1.70
5391.00,1.70
5390.00,1.70
5389.00,1.70
5388.00,1.70
5387.00,1.70
5386.00,1.69
5385.00,1.69
5384.00,1.69
5383.00,1.69
5382.00,1.68
5381.00,1.68
5380.00,1.67
5379.00,1.67
5378.00,1.67
5377.00,1.66
5376.00,1.66
5375.00,1.65
5374.00,1.65
5373.00,1.64
5372.00,1.64
5371.00,1.63
5370.00,1.62
5369.00,1.62
5368.00,1.61
5367.00,1.61
5366.00,1.60
5365.00,1.60
5364.00,1.59
5363.00,1.58
5362.00,1.58
5361.00,1.57
5360.00,1.56
5359.00,1.55
5358.00,1.55
5357.00,1.54
5356.00,1.53
5355.00,1.52
5354.00,1.51
5353.00,1.50
5352.00,1.49
5351.00,1.48
5350.00,1.47
5349.00,1.46
5348.00,1.45
5347.00,1.44
5346.00,1.42
5345.00,1.41
5344.00,1.40
5343.00,1.39
5342.00,1.37
5341.00,1.36
5340.00,1.35
5339.00,1.33
5338.00,1.32
5337.00,1.31
5336.00,1.29
5335.00,1.28
5334.00,1.26
5333.00,1.25
5332.00,1.24
5331.00,1.22
5330.00,1.21
5329.00,1.19
5328.00,1.18
5327.00,1.16
5326.00,1.15
5325.00,1.13
5324.00,1.12
5323.00,1.10
5322.00,1.09
5321.00,1.07
5320.00,1.06
5319.00,1.04
5318.00,1.03
5317.00,1.02
5316.00,1.00
5315.00,0.99
5314.00,0.98
5313.00,0.96
5312.00,0.95
5311.00,0.94
5310.00,0.93
5309.00,0.91
5308.00,0.90
5307.00,0.89
5306.00,0.88
5305.00,0.87
5304.00,0.86
5303.00,0.85
5302.00,0.85
5301.00,0.84
5300.00,0.83
5299.00,0.82
5298.00,0.81
5297.00,0.81
5296.00,0.80
5295.00,0.79
5294.00,0.79
5293.00,0.78
5292.00,0.78
5291.00,0.77
5290.00,0.77
5289.00,0.76
5288.00,0.76
5287.00,0.76
5286.00,0.75
5285.00,0.75
5284.00,0.75
5283.00,0.74
5282.00,0.74
5281.00,0.74
5280.00,0.73
5279.00,0.73
5278.00,0.73
5277.00,0.73
5276.00,0.73
5275.00,0.72
5274.00,0.72
5273.00,0.72
5272.00,0.72
5271.00,0.72
5270.00,0.72
5269.00,0.71
5268.00,0.71
5267.00,0.71
5266.00,0.71
5265.00,0.71
5264.00,0.71
5263.00,0.71
5262.00,0.71
5261.00,0.70
5260.00,0.70
5259.00,0.70
5258.00,0.70
5257.00,0.70
5256.00,0.70
5255.00,0.70
5254.00,0.70
5253.00,0.70
5252.00,0.70
5251.00,0.70
5250.00,0.70
5249.00,0.70
5248.00,0.70
5247.00,0.70
5246.00,0.70
5245.00,0.70
5244.00,0.70
5243.00,0.70
5242.00,0.70
5241.00,0.70
5240.00,0.70
5239.00,0.70
5238.00,0.70
5237.00,0.70
5236.00,0.70
5235.00,0.70
5234.00,0.70
5233.00,0.70
5232.00,0.70
5231.00,0.71
5230.00,0.71
5229.00,0.71
5228.00,0.71
5227.00,0.71
5226.00,0.71
5225.00,0.71
5224.00,0.71
5223.00,0.71
5222.00,0.71
5221.00,0.71
5220.00,0.71
5219.00,0.71
5218.00,0.71
5217.00,0.71
5216.00,0.71
5215.00,0.71
5214.00,0.70
5213.00,0.70
5212.00,0.70
5211.00,0.70
5210.00,0.70
5209.00,0.70
5208.00,0.70
5207.00,0.70
5206.00,0.70
5205.00,0.70
5204.00,0.70
5203.00,0.70
5202.00,0.70
5201.00,0.71
5200.00,0.71
5199.00,0.71
5198.00,0.71
5197.00,0.71
5196.00,0.71
5195.00,0.71
5194.00,0.71
5193.00,0.71
5192.00,0.71
5191.00,0.71
5190.00,0.71
5189.00,0.71
5188.00,0.71
5187.00,0.71
5186.00,0.71
5185.00,0.72
5184.00,0.72
5183.00,0.72
5182.00,0.72
5181.00,0.72
5180.00,0.72
5179.00,0.72
5178.00,0.72
5177.00,0.72
5176.00,0.72
5175.00,0.72
5174.00,0.72
5173.00,0.72
5172.00,0.72
5171.00,0.72
5170.00,0.72
5169.00,0.73
5168.00,0.73
5167.00,0.73
5166.00,0.73
5165.00,0.73
5164.00,0.73
5163.00,0.73
5162.00,0.73
5161.00,0.73
5160.00,0.73
5159.00,0.73
5158.00,0.73
5157.00,0.73
5156.00,0.73
5155.00,0.73
5154.00,0.74
5153.00,0.74
5152.00,0.74
5151.00,0.74
5150.00,0.74
5149.00,0.74
5148.00,0.74
5147.00,0.74
5146.00,0.74
5145.00,0.74
5144.00,0.74
5143.00,0.74
5142.00,0.74
5141.00,0.74
5140.00,0.74
5139.00,0.74
5138.00,0.74
5137.00,0.75
5136.00,0.75
5135.00,0.75
5134.00,0.75
5133.00,0.75
5132.00,0.75
5131.00,0.75
5130.00,0.75
5129.00,0.75
5128.00,0.75
5127.00,0.75
5126.00,0.75
5125.00,0.75
5124.00,0.75
5123.00,0.75
5122.00,0.75
5121.00,0.75
5120.00,0.75
5119.00,0.75
5118.00,0.75
5117.00,0.76
5116.00,0.76
5115.00,0.76
5114.00,0.76
5113.00,0.76
5112.00,0.76
5111.00,0.76
5110.00,0.76
5109.00,0.76
5108.00,0.77
5107.00,0.77
5106.00,0.77
5105.00,0.77
5104.00,0.77
5103.00,0.77
5102.00,0.77
5101.00,0.77
5100.00,0.77
5099.00,0.77
5098.00,0.77
5097.00,0.77
5096.00,0.77
5095.00,0.77
5094.00,0.77
5093.00,0.77
5092.00,0.77
5091.00,0.77
5090.00,0.77
5089.00,0.77
5088.00,0.77
5087.00,0.77
5086.00,0.77
5085.00,0.78
5084.00,0.78
5083.00,0.78
5082.00,0.78
5081.00,0.78
5080.00,0.78
5079.00,0.78
5078.00,0.78
5077.00,0.78
5076.00,0.78
5075.00,0.78
5074.00,0.79
5073.00,0.79
5072.00,0.79
5071.00,0.79
5070.00,0.79
5069.00,0.79
5068.00,0.79
5067.00,0.79
5066.00,0.80
5065.00,0.80
5064.00,0.80
5063.00,0.80
5062.00,0.80
5061.00,0.80
5060.00,0.81
5059.00,0.81
5058.00,0.81
5057.00,0.81
5056.00,0.81
5055.00,0.81
5054.00,0.81
5053.00,0.81
5052.00,0.82
5051.00,0.82
5050.00,0.82
5049.00,0.82
5048.00,0.82
5047.00,0.82
5046.00,0.82
5045.00,0.82
5044.00,0.82
5043.00,0.82
5042.00,0.82
5041.00,0.82
5040.00,0.82
5039.00,0.82
5038.00,0.82
5037.00,0.83
5036.00,0.83
5035.00,0.83
5034.00,0.83
5033.00,0.83
5032.00,0.83
5031.00,0.83
5030.00,0.83
5029.00,0.83
5028.00,0.83
5027.00,0.83
5026.00,0.83
5025.00,0.83
5024.00,0.84
5023.00,0.84
5022.00,0.84
5021.00,0.84
5020.00,0.84
5019.00,0.84
5018.00,0.84
5017.00,0.84
5016.00,0.85
5015.00,0.85
5014.00,0.85
5013.00,0.85
5012.00,0.85
5011.00,0.85
5010.00,0.86
5009.00,0.86
5008.00,0.86
5007.00,0.86
5006.00,0.86
5005.00,0.87
5004.00,0.87
5003.00,0.87
5002.00,0.87
5001.00,0.87
5000.00,0.88
4999.00,0.88
4998.00,0.88
4997.00,0.88
4996.00,0.88
4995.00,0.88
4994.00,0.88
4993.00,0.89
4992.00,0.89
4991.00,0.89
4990.00,0.89
4989.00,0.89
4988.00,0.89
4987.00,0.89
4986.00,0.89
4985.00,0.89
4984.00,0.89
4983.00,0.89
4982.00,0.89
4981.00,0.89
4980.00,0.89
4979.00,0.90
4978.00,0.90
4977.00,0.90
4976.00,0.90
4975.00,0.90
4974.00,0.90
4973.00,0.91
4972.00,0.91
4971.00,0.91
4970.00,0.91
4969.00,0.91
4968.00,0.91
4967.00,0.92
4966.00,0.92
4965.00,0.92
4964.00,0.92
4963.00,0.92
4962.00,0.93
4961.00,0.93
4960.00,0.93
4959.00,0.93
4958.00,0.93
4957.00,0.94
4956.00,0.94
4955.00,0.94
4954.00,0.94
4953.00,0.95
4952.00,0.95
4951.00,0.95
4950.00,0.95
4949.00,0.95
4948.00,0.95
4947.00,0.95
4946.00,0.96
4945.00,0.96
4944.00,0.96
4943.00,0.96
4942.00,0.96
4941.00,0.96
4940.00,0.96
4939.00,0.96
4938.00,0.96
4937.00,0.97
4936.00,0.97
4935.00,0.97
4934.00,0.97
4933.00,0.97
4932.00,0.97
4931.00,0.97
4930.00,0.97
4929.00,0.97
4928.00,0.97
4927.00,0.98
4926.00,0.98
4925.00,0.98
4924.00,0.98
4923.00,0.98
4922.00,0.98
4921.00,0.98
4920.00,0.98
4919.00,0.98
4918.00,0.98
4917.00,0.98
4916.00,0.99
4915.00,0.99
4914.00,0.99
4913.00,0.99
4912.00,0.99
4911.00,0.99
4910.00,0.99
4909.00,0.99
4908.00,0.99
4907.00,0.99
4906.00,0.99
4905.00,0.99
4904.00,0.99
4903.00,0.99
4902.00,0.99
4901.00,0.99
4900.00,0.99
4899.00,0.99
4898.00,0.99
4897.00,0.99
4896.00,0.99
4895.00,0.99
4894.00,0.99
4893.00,0.99
4892.00,0.99
4891.00,0.99
4890.00,0.99
4889.00,0.99
4888.00,0.99
4887.00,0.99
4886.00,1.00
4885.00,1.00
4884.00,1.00
4883.00,1.00
4882.00,1.00
4881.00,1.00
4880.00,1.00
4879.00,1.00
4878.00,1.00
4877.00,1.00
4876.00,1.00
4875.00,1.00
4874.00,1.01
4873.00,1.01
4872.00,1.01
4871.00,1.01
4870.00,1.01
4869.00,1.01
4868.00,1.01
4867.00,1.01
4866.00,1.01
4865.00,1.01
4864.00,1.01
4863.00,1.01
4862.00,1.01
4861.00,1.01
4860.00,1.01
4859.00,1.01
4858.00,1.01
4857.00,1.01
4856.00,1.02
4855.00,1.02
4854.00,1.02
4853.00,1.02
4852.00,1.02
4851.00,1.02
4850.00,1.02
4849.00,1.03
4848.00,1.03
4847.00,1.03
4846.00,1.03
4845.00,1.03
4844.00,1.03
4843.00,1.03
4842.00,1.03
4841.00,1.03
4840.00,1.03
4839.00,1.03
4838.00,1.03
4837.00,1.03
4836.00,1.03
4835.00,1.03
4834.00,1.03
4833.00,1.03
4832.00,1.03
4831.00,1.03
4830.00,1.03
4829.00,1.03
4828.00,1.03
4827.00,1.03
4826.00,1.03
4825.00,1.03
4824.00,1.04
4823.00,1.04
4822.00,1.04
4821.00,1.04
4820.00,1.04
4819.00,1.04
4818.00,1.04
4817.00,1.04
4816.00,1.05
4815.00,1.05
4814.00,1.05
4813.00,1.05
4812.00,1.05
4811.00,1.06
4810.00,1.06
4809.00,1.06
4808.00,1.06
4807.00,1.07
4806.00,1.07
4805.00,1.07
4804.00,1.07
4803.00,1.07
4802.00,1.08
4801.00,1.08
4800.00,1.08
4799.00,1.08
4798.00,1.08
4797.00,1.08
4796.00,1.08
4795.00,1.08
4794.00,1.09
4793.00,1.09
4792.00,1.09
4791.00,1.09
4790.00,1.09
4789.00,1.09
4788.00,1.09
4787.00,1.10
4786.00,1.10
4785.00,1.10
4784.00,1.10
4783.00,1.10
4782.00,1.11
4781.00,1.11
4780.00,1.11
4779.00,1.11
4778.00,1.11
4777.00,1.12
4776.00,1.12
4775.00,1.12
4774.00,1.12
4773.00,1.12
4772.00,1.12
4771.00,1.12
4770.00,1.13
4769.00,1.13
4768.00,1.13
4767.00,1.13
4766.00,1.13
4765.00,1.14
4764.00,1.14
4763.00,1.14
4762.00,1.14
4761.00,1.15
4760.00,1.15
4759.00,1.15
4758.00,1.16
4757.00,1.16
4756.00,1.16
4755.00,1.17
4754.00,1.17
4753.00,1.17
4752.00,1.18
4751.00,1.18
4750.00,1.18
4749.00,1.18
4748.00,1.19
4747.00,1.19
4746.00,1.19
4745.00,1.19
4744.00,1.19
4743.00,1.19
4742.00,1.20
4741.00,1.20
4740.00,1.20
4739.00,1.20
4738.00,1.20
4737.00,1.20
4736.00,1.21
4735.00,1.21
4734.00,1.21
4733.00,1.21
4732.00,1.22
4731.00,1.22
4730.00,1.22
4729.00,1.22
4728.00,1.22
4727.00,1.23
4726.00,1.23
4725.00,1.23
4724.00,1.24
4723.00,1.24
4722.00,1.24
4721.00,1.25
4720.00,1.25
4719.00,1.25
4718.00,1.26
4717.00,1.26
4716.00,1.26
4715.00,1.27
4714.00,1.27
4713.00,1.27
4712.00,1.28
4711.00,1.28
4710.00,1.28
4709.00,1.29
4708.00,1.29
4707.00,1.29
4706.00,1.30
4705.00,1.30
4704.00,1.30
4703.00,1.30
4702.00,1.30
4701.00,1.31
4700.00,1.31
4699.00,1.31
4698.00,1.31
4697.00,1.31
4696.00,1.32
4695.00,1.32
4694.00,1.32
4693.00,1.32
4692.00,1.32
4691.00,1.33
4690.00,1.33
4689.00,1.33
4688.00,1.33
4687.00,1.34
4686.00,1.34
4685.00,1.34
4684.00,1.35
4683.00,1.35
4682.00,1.35
4681.00,1.35
4680.00,1.36
4679.00,1.36
4678.00,1.36
4677.00,1.37
4676.00,1.37
4675.00,1.37
4674.00,1.37
4673.00,1.37
4672.00,1.38
4671.00,1.38
4670.00,1.38
4669.00,1.38
4668.00,1.39
4667.00,1.39
4666.00,1.39
4665.00,1.39
4664.00,1.39
4663.00,1.39
4662.00,1.40
4661.00,1.40
4660.00,1.40
4659.00,1.40
4658.00,1.40
4657.00,1.41
4656.00,1.41
4655.00,1.41
4654.00,1.41
4653.00,1.42
4652.00,1.42
4651.00,1.42
4650.00,1.42
4649.00,1.43
4648.00,1.43
4647.00,1.43
4646.00,1.43
4645.00,1.44
4644.00,1.44
4643.00,1.44
4642.00,1.45
4641.00,1.45
4640.00,1.45
4639.00,1.45
4638.00,1.46
4637.00,1.46
4636.00,1.46
4635.00,1.46
4634.00,1.46
4633.00,1.46
4632.00,1.47
4631.00,1.47
4630.00,1.47
4629.00,1.47
4628.00,1.47
4627.00,1.47
4626.00,1.47
4625.00,1.47
4624.00,1.47
4623.00,1.48
4622.00,1.48
4621.00,1.48
4620.00,1.48
4619.00,1.48
4618.00,1.48
4617.00,1.48
4616.00,1.48
4615.00,1.49
4614.00,1.49
4613.00,1.49
4612.00,1.49
4611.00,1.49
4610.00,1.49
4609.00,1.50
4608.00,1.50
4607.00,1.50
4606.00,1.50
4605.00,1.50
4604.00,1.50
4603.00,1.50
4602.00,1.51
4601.00,1.51
4600.00,1.51
4599.00,1.51
4598.00,1.51
4597.00,1.51
4596.00,1.51
4595.00,1.51
4594.00,1.51
4593.00,1.51
4592.00,1.52
4591.00,1.52
4590.00,1.52
4589.00,1.52
4588.00,1.52
4587.00,1.52
4586.00,1.52
4585.00,1.53
4584.00,1.53
4583.00,1.53
4582.00,1.53
4581.00,1.54
4580.00,1.54
4579.00,1.54
4578.00,1.54
4577.00,1.55
4576.00,1.55
4575.00,1.55
4574.00,1.55
4573.00,1.56
4572.00,1.56
4571.00,1.56
4570.00,1.56
4569.00,1.56
4568.00,1.56
4567.00,1.57
4566.00,1.57
4565.00,1.57
4564.00,1.57
4563.00,1.57
4562.00,1.57
4561.00,1.57
4560.00,1.57
4559.00,1.57
4558.00,1.57
4557.00,1.57
4556.00,1.57
4555.00,1.57
4554.00,1.57
4553.00,1.57
4552.00,1.57
4551.00,1.57
4550.00,1.57
4549.00,1.58
4548.00,1.58
4547.00,1.58
4546.00,1.58
4545.00,1.58
4544.00,1.58
4543.00,1.58
4542.00,1.58
4541.00,1.58
4540.00,1.58
4539.00,1.58
4538.00,1.58
4537.00,1.58
4536.00,1.58
4535.00,1.58
4534.00,1.59
4533.00,1.59
4532.00,1.59
4531.00,1.59
4530.00,1.59
4529.00,1.59
4528.00,1.60
4527.00,1.60
4526.00,1.60
4525.00,1.60
4524.00,1.60
4523.00,1.60
4522.00,1.60
4521.00,1.60
4520.00,1.60
4519.00,1.60
4518.00,1.60
4517.00,1.60
4516.00,1.60
4515.00,1.60
4514.00,1.60
4513.00,1.60
4512.00,1.60
4511.00,1.60
4510.00,1.60
4509.00,1.60
4508.00,1.60
4507.00,1.60
4506.00,1.60
4505.00,1.60
4504.00,1.60
4503.00,1.60
4502.00,1.60
4501.00,1.60
4500.00,1.60
4499.00,1.60
4498.00,1.60
4497.00,1.60
4496.00,1.60
4495.00,1.59
4494.00,1.59
4493.00,1.59
4492.00,1.59
4491.00,1.59
4490.00,1.59
4489.00,1.59
4488.00,1.59
4487.00,1.58
4486.00,1.58
4485.00,1.58
4484.00,1.58
4483.00,1.57
4482.00,1.57
4481.00,1.57
4480.00,1.56
4479.00,1.56
4478.00,1.56
4477.00,1.55
4476.00,1.55
4475.00,1.54
4474.00,1.54
4473.00,1.53
4472.00,1.53
4471.00,1.52
4470.00,1.52
4469.00,1.51
4468.00,1.51
4467.00,1.50
4466.00,1.50
4465.00,1.49
4464.00,1.48
4463.00,1.48
4462.00,1.47
4461.00,1.46
4460.00,1.46
4459.00,1.45
4458.00,1.44
4457.00,1.44
4456.00,1.43
4455.00,1.42
4454.00,1.42
4453.00,1.41
4452.00,1.41
4451.00,1.40
4450.00,1.39
4449.00,1.39
4448.00,1.38
4447.00,1.38
4446.00,1.37
4445.00,1.37
4444.00,1.36
4443.00,1.36
4442.00,1.35
4441.00,1.35
4440.00,1.34
4439.00,1.34
4438.00,1.33
4437.00,1.33
4436.00,1.32
4435.00,1.32
4434.00,1.31
4433.00,1.31
4432.00,1.30
4431.00,1.29
4430.00,1.29
4429.00,1.28
4428.00,1.28
4427.00,1.27
4426.00,1.27
4425.00,1.27
4424.00,1.26
4423.00,1.26
4422.00,1.26
4421.00,1.25
4420.00,1.25
4419.00,1.25
4418.00,1.25
4417.00,1.25
4416.00,1.25
4415.00,1.25
4414.00,1.25
4413.00,1.25
4412.00,1.25
4411.00,1.25
4410.00,1.25
4409.00,1.25
4408.00,1.25
4407.00,1.25
4406.00,1.25
4405.00,1.25
4404.00,1.25
4403.00,1.26
4402.00,1.26
4401.00,1.26
4400.00,1.26
4399.00,1.26
4398.00,1.26
4397.00,1.26
4396.00,1.26
4395.00,1.26
4394.00,1.27
4393.00,1.27
4392.00,1.27
4391.00,1.27
4390.00,1.27
4389.00,1.27
4388.00,1.28
4387.00,1.28
4386.00,1.28
4385.00,1.28
4384.00,1.28
4383.00,1.29
4382.00,1.29
4381.00,1.29
4380.00,1.29
4379.00,1.29
4378.00,1.29
4377.00,1.30
4376.00,1.30
4375.00,1.30
4374.00,1.30
4373.00,1.30
4372.00,1.30
4371.00,1.30
4370.00,1.30
4369.00,1.30
4368.00,1.30
4367.00,1.30
4366.00,1.30
4365.00,1.30
4364.00,1.30
4363.00,1.30
4362.00,1.30
4361.00,1.30
4360.00,1.30
4359.00,1.30
4358.00,1.30
4357.00,1.30
4356.00,1.30
4355.00,1.30
4354.00,1.30
4353.00,1.30
4352.00,1.30
4351.00,1.30
4350.00,1.30
4349.00,1.30
4348.00,1.31
4347.00,1.31
4346.00,1.31
4345.00,1.31
4344.00,1.31
4343.00,1.31
4342.00,1.31
4341.00,1.31
4340.00,1.31
4339.00,1.31
4338.00,1.31
4337.00,1.32
4336.00,1.32
4335.00,1.32
4334.00,1.32
4333.00,1.32
4332.00,1.32
4331.00,1.32
4330.00,1.32
4329.00,1.32
4328.00,1.32
4327.00,1.33
4326.00,1.33
4325.00,1.33
4324.00,1.33
4323.00,1.33
4322.00,1.33
4321.00,1.33
4320.00,1.34
4319.00,1.34
4318.00,1.34
4317.00,1.34
4316.00,1.34
4315.00,1.34
4314.00,1.34
4313.00,1.35
4312.00,1.35
4311.00,1.35
4310.00,1.35
4309.00,1.35
4308.00,1.35
4307.00,1.36
4306.00,1.36
4305.00,1.36
4304.00,1.37
4303.00,1.37
4302.00,1.37
4301.00,1.38
4300.00,1.38
4299.00,1.39
4298.00,1.39
4297.00,1.39
4296.00,1.40
4295.00,1.40
4294.00,1.41
4293.00,1.41
4292.00,1.42
4291.00,1.42
4290.00,1.42
4289.00,1.43
4288.00,1.43
4287.00,1.43
4286.00,1.43
4285.00,1.43
4284.00,1.44
4283.00,1.44
4282.00,1.44
4281.00,1.44
4280.00,1.44
4279.00,1.43
4278.00,1.43
4277.00,1.43
4276.00,1.43
4275.00,1.43
4274.00,1.43
4273.00,1.43
4272.00,1.42
4271.00,1.42
4270.00,1.42
4269.00,1.42
4268.00,1.42
4267.00,1.42
4266.00,1.42
4265.00,1.41
4264.00,1.41
4263.00,1.41
4262.00,1.41
4261.00,1.41
4260.00,1.41
4259.00,1.41
4258.00,1.41
4257.00,1.41
4256.00,1.41
4255.00,1.41
4254.00,1.41
4253.00,1.41
4252.00,1.41
4251.00,1.41
4250.00,1.42
4249.00,1.42
4248.00,1.42
4247.00,1.42
4246.00,1.42
4245.00,1.43
4244.00,1.43
4243.00,1.43
4242.00,1.44
4241.00,1.44
4240.00,1.44
4239.00,1.44
4238.00,1.45
4237.00,1.45
4236.00,1.45
4235.00,1.46
4234.00,1.46
4233.00,1.46
4232.00,1.47
4231.00,1.47
4230.00,1.47
4229.00,1.47
4228.00,1.48
4227.00,1.48
4226.00,1.48
4225.00,1.49
4224.00,1.49
4223.00,1.49
4222.00,1.50
4221.00,1.50
4220.00,1.50
4219.00,1.50
4218.00,1.51
4217.00,1.51
4216.00,1.51
4215.00,1.51
4214.00,1.51
4213.00,1.51
4212.00,1.51
4211.00,1.51
4210.00,1.51
4209.00,1.51
4208.00,1.51
4207.00,1.51
4206.00,1.51
4205.00,1.50
4204.00,1.50
4203.00,1.50
4202.00,1.50
4201.00,1.50
4200.00,1.50
4199.00,1.50
4198.00,1.49
4197.00,1.49
4196.00,1.49
4195.00,1.49
4194.00,1.49
4193.00,1.49
4192.00,1.48
4191.00,1.48
4190.00,1.48
4189.00,1.48
4188.00,1.48
4187.00,1.48
4186.00,1.48
4185.00,1.48
4184.00,1.48
4183.00,1.49
4182.00,1.49
4181.00,1.49
4180.00,1.49
4179.00,1.50
4178.00,1.50
4177.00,1.50
4176.00,1.51
4175.00,1.51
4174.00,1.51
4173.00,1.52
4172.00,1.52
4171.00,1.52
4170.00,1.53
4169.00,1.53
4168.00,1.53
4167.00,1.53
4166.00,1.53
4165.00,1.54
4164.00,1.54
4163.00,1.54
4162.00,1.54
4161.00,1.54
4160.00,1.54
4159.00,1.53
4158.00,1.53
4157.00,1.53
4156.00,1.53
4155.00,1.53
4154.00,1.53
4153.00,1.52
4152.00,1.52
4151.00,1.52
4150.00,1.52
4149.00,1.52
4148.00,1.52
4147.00,1.52
4146.00,1.52
4145.00,1.52
4144.00,1.52
4143.00,1.52
4142.00,1.52
4141.00,1.52
4140.00,1.52
4139.00,1.52
4138.00,1.52
4137.00,1.53
4136.00,1.53
4135.00,1.53
4134.00,1.53
4133.00,1.54
4132.00,1.54
4131.00,1.54
4130.00,1.55
4129.00,1.55
4128.00,1.56
4127.00,1.56
4126.00,1.56
4125.00,1.57
4124.00,1.57
4123.00,1.57
4122.00,1.58
4121.00,1.58
4120.00,1.58
4119.00,1.58
4118.00,1.58
4117.00,1.58
4116.00,1.58
4115.00,1.58
4114.00,1.58
4113.00,1.58
4112.00,1.58
4111.00,1.58
4110.00,1.58
4109.00,1.58
4108.00,1.58
4107.00,1.58
4106.00,1.58
4105.00,1.58
4104.00,1.58
4103.00,1.58
4102.00,1.58
4101.00,1.58
4100.00,1.58
4099.00,1.58
4098.00,1.58
4097.00,1.59
4096.00,1.59
4095.00,1.59
4094.00,1.59
4093.00,1.58
4092.00,1.58
4091.00,1.58
4090.00,1.58
4089.00,1.58
4088.00,1.58
4087.00,1.58
4086.00,1.58
4085.00,1.58
4084.00,1.58
4083.00,1.58
4082.00,1.59
4081.00,1.59
4080.00,1.59
4079.00,1.59
4078.00,1.59
4077.00,1.60
4076.00,1.60
4075.00,1.60
4074.00,1.60
4073.00,1.61
4072.00,1.61
4071.00,1.61
4070.00,1.61
4069.00,1.62
4068.00,1.62
4067.00,1.62
4066.00,1.62
4065.00,1.62
4064.00,1.62
4063.00,1.62
4062.00,1.62
4061.00,1.62
4060.00,1.62
4059.00,1.62
4058.00,1.62
4057.00,1.62
4056.00,1.62
4055.00,1.62
4054.00,1.62
4053.00,1.62
4052.00,1.62
4051.00,1.61
4050.00,1.61
4049.00,1.61
4048.00,1.61
4047.00,1.61
4046.00,1.60
4045.00,1.60
4044.00,1.60
4043.00,1.60
4042.00,1.60
4041.00,1.60
4040.00,1.60
4039.00,1.60
4038.00,1.61
4037.00,1.61
4036.00,1.61
4035.00,1.61
4034.00,1.61
4033.00,1.62
4032.00,1.62
4031.00,1.62
4030.00,1.62
4029.00,1.63
4028.00,1.63
4027.00,1.63
4026.00,1.63
4025.00,1.63
4024.00,1.63
4023.00,1.63
4022.00,1.63
4021.00,1.64
4020.00,1.64
4019.00,1.64
4018.00,1.64
4017.00,1.65
4016.00,1.65
4015.00,1.65
4014.00,1.66
4013.00,1.66
4012.00,1.67
4011.00,1.67
4010.00,1.68
4009.00,1.68
4008.00,1.69
4007.00,1.69
4006.00,1.70
4005.00,1.70
4004.00,1.70
4003.00,1.70
4002.00,1.70
4001.00,1.70
4000.00,1.70
