创建为新数据集,样品 099 用户 Administrator 日期 星期日, 十一月 05 2017
cm-1,%T
10000.00,1.79
9999.00,1.79
9998.00,1.79
9997.00,1.79
9996.00,1.79
9995.00,1.79
9994.00,1.79
9993.00,1.79
9992.00,1.79
9991.00,1.79
9990.00,1.79
9989.00,1.79
9988.00,1.79
9987.00,1.79
9986.00,1.79
9985.00,1.79
9984.00,1.78
9983.00,1.78
9982.00,1.78
9981.00,1.77
9980.00,1.77
9979.00,1.77
9978.00,1.77
9977.00,1.77
9976.00,1.76
9975.00,1.76
9974.00,1.76
9973.00,1.76
9972.00,1.77
9971.00,1.77
9970.00,1.77
9969.00,1.77
9968.00,1.78
9967.00,1.78
9966.00,1.78
9965.00,1.78
9964.00,1.79
9963.00,1.79
9962.00,1.79
9961.00,1.79
9960.00,1.79
9959.00,1.79
9958.00,1.79
9957.00,1.79
9956.00,1.79
9955.00,1.79
9954.00,1.79
9953.00,1.78
9952.00,1.78
9951.00,1.78
9950.00,1.78
9949.00,1.77
9948.00,1.77
9947.00,1.77
9946.00,1.77
9945.00,1.76
9944.00,1.76
9943.00,1.76
9942.00,1.76
9941.00,1.76
9940.00,1.75
9939.00,1.75
9938.00,1.75
9937.00,1.75
9936.00,1.75
9935.00,1.75
9934.00,1.75
9933.00,1.75
9932.00,1.74
9931.00,1.74
9930.00,1.74
9929.00,1.74
9928.00,1.74
9927.00,1.74
9926.00,1.74
9925.00,1.74
9924.00,1.74
9923.00,1.74
9922.00,1.74
9921.00,1.74
9920.00,1.74
9919.00,1.74
9918.00,1.74
9917.00,1.74
9916.00,1.74
9915.00,1.75
9914.00,1.75
9913.00,1.75
9912.00,1.75
9911.00,1.76
9910.00,1.76
9909.00,1.76
9908.00,1.77
9907.00,1.77
9906.00,1.77
9905.00,1.78
9904.00,1.78
9903.00,1.78
9902.00,1.78
9901.00,1.79
9900.00,1.79
9899.00,1.79
9898.00,1.79
9897.00,1.79
9896.00,1.79
9895.00,1.79
9894.00,1.79
9893.00,1.79
9892.00,1.79
9891.00,1.79
9890.00,1.79
9889.00,1.78
9888.00,1.78
9887.00,1.78
9886.00,1.78
9885.00,1.77
9884.00,1.77
9883.00,1.77
9882.00,1.77
9881.00,1.76
9880.00,1.76
9879.00,1.76
9878.00,1.75
9877.00,1.75
9876.00,1.75
9875.00,1.75
9874.00,1.74
9873.00,1.74
9872.00,1.74
9871.00,1.74
9870.00,1.74
9869.00,1.74
9868.00,1.74
9867.00,1.74
9866.00,1.74
9865.00,1.74
9864.00,1.74
9863.00,1.74
9862.00,1.74
9861.00,1.74
9860.00,1.74
9859.00,1.75
9858.00,1.75
9857.00,1.75
9856.00,1.75
9855.00,1.75
9854.00,1.75
9853.00,1.75
9852.00,1.75
9851.00,1.75
9850.00,1.75
9849.00,1.75
9848.00,1.75
9847.00,1.75
9846.00,1.75
9845.00,1.75
9844.00,1.75
9843.00,1.75
9842.00,1.75
9841.00,1.75
9840.00,1.75
9839.00,1.74
9838.00,1.74
9837.00,1.74
9836.00,1.74
9835.00,1.74
9834.00,1.74
9833.00,1.74
9832.00,1.73
9831.00,1.73
9830.00,1.73
9829.00,1.73
9828.00,1.73
9827.00,1.73
9826.00,1.73
9825.00,1.73
9824.00,1.73
9823.00,1.73
9822.00,1.73
9821.00,1.73
9820.00,1.73
9819.00,1.73
9818.00,1.73
9817.00,1.73
9816.00,1.74
9815.00,1.74
9814.00,1.74
9813.00,1.74
9812.00,1.75
9811.00,1.75
9810.00,1.75
9809.00,1.75
9808.00,1.76
9807.00,1.76
9806.00,1.76
9805.00,1.76
9804.00,1.76
9803.00,1.76
9802.00,1.76
9801.00,1.76
9800.00,1.76
9799.00,1.76
9798.00,1.76
9797.00,1.76
9796.00,1.76
9795.00,1.76
9794.00,1.76
9793.00,1.76
9792.00,1.76
9791.00,1.76
9790.00,1.76
9789.00,1.75
9788.00,1.75
9787.00,1.75
9786.00,1.75
9785.00,1.75
9784.00,1.75
9783.00,1.74
9782.00,1.74
9781.00,1.74
9780.00,1.74
9779.00,1.74
9778.00,1.74
9777.00,1.74
9776.00,1.74
9775.00,1.74
9774.00,1.75
9773.00,1.75
9772.00,1.75
9771.00,1.76
9770.00,1.76
9769.00,1.77
9768.00,1.77
9767.00,1.77
9766.00,1.78
9765.00,1.78
9764.00,1.78
9763.00,1.79
9762.00,1.79
9761.00,1.79
9760.00,1.79
9759.00,1.79
9758.00,1.79
9757.00,1.79
9756.00,1.79
9755.00,1.79
9754.00,1.79
9753.00,1.79
9752.00,1.78
9751.00,1.78
9750.00,1.78
9749.00,1.78
9748.00,1.78
9747.00,1.77
9746.00,1.77
9745.00,1.77
9744.00,1.77
9743.00,1.77
9742.00,1.77
9741.00,1.77
9740.00,1.77
9739.00,1.77
9738.00,1.76
9737.00,1.76
9736.00,1.76
9735.00,1.76
9734.00,1.76
9733.00,1.76
9732.00,1.76
9731.00,1.76
9730.00,1.76
9729.00,1.76
9728.00,1.75
9727.00,1.75
9726.00,1.75
9725.00,1.75
9724.00,1.75
9723.00,1.75
9722.00,1.75
9721.00,1.75
9720.00,1.75
9719.00,1.75
9718.00,1.75
9717.00,1.76
9716.00,1.76
9715.00,1.76
9714.00,1.76
9713.00,1.77
9712.00,1.77
9711.00,1.77
9710.00,1.77
9709.00,1.78
9708.00,1.78
9707.00,1.78
9706.00,1.78
9705.00,1.79
9704.00,1.79
9703.00,1.79
9702.00,1.79
9701.00,1.79
9700.00,1.79
9699.00,1.79
9698.00,1.78
9697.00,1.78
9696.00,1.78
9695.00,1.78
9694.00,1.78
9693.00,1.77
9692.00,1.77
9691.00,1.77
9690.00,1.76
9689.00,1.76
9688.00,1.76
9687.00,1.76
9686.00,1.75
9685.00,1.75
9684.00,1.75
9683.00,1.75
9682.00,1.74
9681.00,1.74
9680.00,1.74
9679.00,1.74
9678.00,1.74
9677.00,1.73
9676.00,1.73
9675.00,1.73
9674.00,1.73
9673.00,1.73
9672.00,1.73
9671.00,1.74
9670.00,1.74
9669.00,1.74
9668.00,1.74
9667.00,1.74
9666.00,1.74
9665.00,1.74
9664.00,1.75
9663.00,1.75
9662.00,1.75
9661.00,1.75
9660.00,1.75
9659.00,1.75
9658.00,1.75
9657.00,1.75
9656.00,1.76
9655.00,1.76
9654.00,1.76
9653.00,1.76
9652.00,1.76
9651.00,1.76
9650.00,1.76
9649.00,1.76
9648.00,1.76
9647.00,1.76
9646.00,1.77
9645.00,1.77
9644.00,1.77
9643.00,1.77
9642.00,1.77
9641.00,1.77
9640.00,1.77
9639.00,1.77
9638.00,1.77
9637.00,1.77
9636.00,1.77
9635.00,1.77
9634.00,1.77
9633.00,1.77
9632.00,1.77
9631.00,1.77
9630.00,1.77
9629.00,1.77
9628.00,1.77
9627.00,1.77
9626.00,1.77
9625.00,1.77
9624.00,1.77
9623.00,1.76
9622.00,1.76
9621.00,1.76
9620.00,1.76
9619.00,1.76
9618.00,1.76
9617.00,1.76
9616.00,1.76
9615.00,1.76
9614.00,1.76
9613.00,1.76
9612.00,1.76
9611.00,1.76
9610.00,1.77
9609.00,1.77
9608.00,1.77
9607.00,1.77
9606.00,1.77
9605.00,1.77
9604.00,1.77
9603.00,1.76
9602.00,1.76
9601.00,1.76
9600.00,1.76
9599.00,1.76
9598.00,1.76
9597.00,1.76
9596.00,1.76
9595.00,1.76
9594.00,1.75
9593.00,1.75
9592.00,1.75
9591.00,1.75
9590.00,1.75
9589.00,1.75
9588.00,1.75
9587.00,1.75
9586.00,1.75
9585.00,1.75
9584.00,1.75
9583.00,1.75
9582.00,1.75
9581.00,1.75
9580.00,1.75
9579.00,1.76
9578.00,1.76
9577.00,1.76
9576.00,1.76
9575.00,1.76
9574.00,1.76
9573.00,1.77
9572.00,1.77
9571.00,1.77
9570.00,1.77
9569.00,1.77
9568.00,1.77
9567.00,1.77
9566.00,1.78
9565.00,1.78
9564.00,1.78
9563.00,1.78
9562.00,1.78
9561.00,1.78
9560.00,1.78
9559.00,1.78
9558.00,1.78
9557.00,1.78
9556.00,1.78
9555.00,1.78
9554.00,1.78
9553.00,1.78
9552.00,1.78
9551.00,1.78
9550.00,1.78
9549.00,1.79
9548.00,1.79
9547.00,1.79
9546.00,1.79
9545.00,1.79
9544.00,1.79
9543.00,1.79
9542.00,1.79
9541.00,1.79
9540.00,1.79
9539.00,1.79
9538.00,1.79
9537.00,1.78
9536.00,1.78
9535.00,1.78
9534.00,1.78
9533.00,1.77
9532.00,1.77
9531.00,1.77
9530.00,1.77
9529.00,1.76
9528.00,1.76
9527.00,1.76
9526.00,1.76
9525.00,1.76
9524.00,1.76
9523.00,1.76
9522.00,1.76
9521.00,1.77
9520.00,1.77
9519.00,1.77
9518.00,1.77
9517.00,1.77
9516.00,1.77
9515.00,1.77
9514.00,1.77
9513.00,1.78
9512.00,1.78
9511.00,1.78
9510.00,1.77
9509.00,1.77
9508.00,1.77
9507.00,1.77
9506.00,1.77
9505.00,1.77
9504.00,1.77
9503.00,1.77
9502.00,1.76
9501.00,1.76
9500.00,1.76
9499.00,1.76
9498.00,1.76
9497.00,1.76
9496.00,1.76
9495.00,1.75
9494.00,1.75
9493.00,1.75
9492.00,1.75
9491.00,1.75
9490.00,1.75
9489.00,1.75
9488.00,1.75
9487.00,1.75
9486.00,1.75
9485.00,1.75
9484.00,1.75
9483.00,1.75
9482.00,1.75
9481.00,1.75
9480.00,1.75
9479.00,1.75
9478.00,1.75
9477.00,1.75
9476.00,1.75
9475.00,1.75
9474.00,1.75
9473.00,1.75
9472.00,1.75
9471.00,1.76
9470.00,1.76
9469.00,1.76
9468.00,1.76
9467.00,1.76
9466.00,1.76
9465.00,1.76
9464.00,1.76
9463.00,1.76
9462.00,1.76
9461.00,1.76
9460.00,1.76
9459.00,1.76
9458.00,1.76
9457.00,1.76
9456.00,1.77
9455.00,1.77
9454.00,1.77
9453.00,1.77
9452.00,1.77
9451.00,1.77
9450.00,1.77
9449.00,1.77
9448.00,1.77
9447.00,1.77
9446.00,1.77
9445.00,1.77
9444.00,1.77
9443.00,1.77
9442.00,1.77
9441.00,1.77
9440.00,1.77
9439.00,1.77
9438.00,1.77
9437.00,1.77
9436.00,1.77
9435.00,1.77
9434.00,1.77
9433.00,1.77
9432.00,1.77
9431.00,1.77
9430.00,1.77
9429.00,1.77
9428.00,1.77
9427.00,1.77
9426.00,1.76
9425.00,1.76
9424.00,1.76
9423.00,1.76
9422.00,1.76
9421.00,1.76
9420.00,1.76
9419.00,1.76
9418.00,1.76
9417.00,1.77
9416.00,1.77
9415.00,1.77
9414.00,1.77
9413.00,1.77
9412.00,1.77
9411.00,1.77
9410.00,1.77
9409.00,1.77
9408.00,1.78
9407.00,1.78
9406.00,1.78
9405.00,1.78
9404.00,1.78
9403.00,1.78
9402.00,1.78
9401.00,1.78
9400.00,1.78
9399.00,1.78
9398.00,1.77
9397.00,1.77
9396.00,1.77
9395.00,1.77
9394.00,1.77
9393.00,1.77
9392.00,1.77
9391.00,1.77
9390.00,1.77
9389.00,1.77
9388.00,1.77
9387.00,1.77
9386.00,1.77
9385.00,1.76
9384.00,1.76
9383.00,1.76
9382.00,1.76
9381.00,1.76
9380.00,1.76
9379.00,1.77
9378.00,1.77
9377.00,1.77
9376.00,1.77
9375.00,1.77
9374.00,1.77
9373.00,1.77
9372.00,1.77
9371.00,1.77
9370.00,1.77
9369.00,1.78
9368.00,1.78
9367.00,1.78
9366.00,1.78
9365.00,1.78
9364.00,1.78
9363.00,1.78
9362.00,1.78
9361.00,1.78
9360.00,1.78
9359.00,1.78
9358.00,1.77
9357.00,1.77
9356.00,1.77
9355.00,1.77
9354.00,1.76
9353.00,1.76
9352.00,1.76
9351.00,1.76
9350.00,1.75
9349.00,1.75
9348.00,1.75
9347.00,1.75
9346.00,1.75
9345.00,1.75
9344.00,1.75
9343.00,1.75
9342.00,1.75
9341.00,1.75
9340.00,1.75
9339.00,1.75
9338.00,1.76
9337.00,1.76
9336.00,1.76
9335.00,1.76
9334.00,1.76
9333.00,1.77
9332.00,1.77
9331.00,1.77
9330.00,1.77
9329.00,1.77
9328.00,1.77
9327.00,1.77
9326.00,1.77
9325.00,1.77
9324.00,1.77
9323.00,1.77
9322.00,1.77
9321.00,1.77
9320.00,1.77
9319.00,1.77
9318.00,1.77
9317.00,1.77
9316.00,1.77
9315.00,1.77
9314.00,1.77
9313.00,1.77
9312.00,1.77
9311.00,1.77
9310.00,1.77
9309.00,1.77
9308.00,1.77
9307.00,1.78
9306.00,1.78
9305.00,1.78
9304.00,1.78
9303.00,1.78
9302.00,1.79
9301.00,1.79
9300.00,1.79
9299.00,1.79
9298.00,1.79
9297.00,1.79
9296.00,1.79
9295.00,1.79
9294.00,1.79
9293.00,1.79
9292.00,1.78
9291.00,1.78
9290.00,1.78
9289.00,1.78
9288.00,1.77
9287.00,1.77
9286.00,1.77
9285.00,1.76
9284.00,1.76
9283.00,1.76
9282.00,1.76
9281.00,1.76
9280.00,1.75
9279.00,1.75
9278.00,1.75
9277.00,1.75
9276.00,1.75
9275.00,1.75
9274.00,1.75
9273.00,1.75
9272.00,1.75
9271.00,1.75
9270.00,1.75
9269.00,1.75
9268.00,1.75
9267.00,1.76
9266.00,1.76
9265.00,1.76
9264.00,1.76
9263.00,1.76
9262.00,1.76
9261.00,1.76
9260.00,1.76
9259.00,1.76
9258.00,1.77
9257.00,1.77
9256.00,1.77
9255.00,1.77
9254.00,1.77
9253.00,1.77
9252.00,1.78
9251.00,1.78
9250.00,1.78
9249.00,1.78
9248.00,1.78
9247.00,1.78
9246.00,1.78
9245.00,1.78
9244.00,1.78
9243.00,1.78
9242.00,1.78
9241.00,1.78
9240.00,1.77
9239.00,1.77
9238.00,1.77
9237.00,1.77
9236.00,1.76
9235.00,1.76
9234.00,1.76
9233.00,1.76
9232.00,1.75
9231.00,1.75
9230.00,1.75
9229.00,1.75
9228.00,1.75
9227.00,1.75
9226.00,1.75
9225.00,1.75
9224.00,1.75
9223.00,1.75
9222.00,1.75
9221.00,1.75
9220.00,1.75
9219.00,1.74
9218.00,1.74
9217.00,1.74
9216.00,1.74
9215.00,1.74
9214.00,1.74
9213.00,1.74
9212.00,1.74
9211.00,1.74
9210.00,1.74
9209.00,1.74
9208.00,1.74
9207.00,1.74
9206.00,1.74
9205.00,1.74
9204.00,1.74
9203.00,1.74
9202.00,1.74
9201.00,1.74
9200.00,1.74
9199.00,1.74
9198.00,1.74
9197.00,1.74
9196.00,1.74
9195.00,1.74
9194.00,1.74
9193.00,1.74
9192.00,1.74
9191.00,1.74
9190.00,1.74
9189.00,1.74
9188.00,1.74
9187.00,1.74
9186.00,1.74
9185.00,1.74
9184.00,1.74
9183.00,1.74
9182.00,1.74
9181.00,1.74
9180.00,1.74
9179.00,1.74
9178.00,1.74
9177.00,1.75
9176.00,1.75
9175.00,1.75
9174.00,1.75
9173.00,1.75
9172.00,1.76
9171.00,1.76
9170.00,1.76
9169.00,1.77
9168.00,1.77
9167.00,1.77
9166.00,1.77
9165.00,1.78
9164.00,1.78
9163.00,1.78
9162.00,1.78
9161.00,1.78
9160.00,1.78
9159.00,1.78
9158.00,1.78
9157.00,1.78
9156.00,1.78
9155.00,1.78
9154.00,1.78
9153.00,1.78
9152.00,1.78
9151.00,1.78
9150.00,1.78
9149.00,1.78
9148.00,1.78
9147.00,1.78
9146.00,1.77
9145.00,1.77
9144.00,1.77
9143.00,1.77
9142.00,1.77
9141.00,1.77
9140.00,1.77
9139.00,1.77
9138.00,1.77
9137.00,1.77
9136.00,1.77
9135.00,1.77
9134.00,1.77
9133.00,1.77
9132.00,1.77
9131.00,1.77
9130.00,1.77
9129.00,1.77
9128.00,1.77
9127.00,1.77
9126.00,1.77
9125.00,1.77
9124.00,1.77
9123.00,1.77
9122.00,1.77
9121.00,1.77
9120.00,1.77
9119.00,1.76
9118.00,1.76
9117.00,1.76
9116.00,1.76
9115.00,1.76
9114.00,1.76
9113.00,1.76
9112.00,1.76
9111.00,1.76
9110.00,1.76
9109.00,1.76
9108.00,1.76
9107.00,1.76
9106.00,1.76
9105.00,1.76
9104.00,1.75
9103.00,1.75
9102.00,1.75
9101.00,1.75
9100.00,1.75
9099.00,1.75
9098.00,1.75
9097.00,1.75
9096.00,1.75
9095.00,1.75
9094.00,1.75
9093.00,1.75
9092.00,1.76
9091.00,1.76
9090.00,1.76
9089.00,1.76
9088.00,1.76
9087.00,1.76
9086.00,1.76
9085.00,1.76
9084.00,1.76
9083.00,1.77
9082.00,1.77
9081.00,1.77
9080.00,1.77
9079.00,1.77
9078.00,1.76
9077.00,1.76
9076.00,1.76
9075.00,1.76
9074.00,1.76
9073.00,1.76
9072.00,1.76
9071.00,1.76
9070.00,1.76
9069.00,1.76
9068.00,1.76
9067.00,1.76
9066.00,1.77
9065.00,1.77
9064.00,1.77
9063.00,1.77
9062.00,1.77
9061.00,1.77
9060.00,1.77
9059.00,1.77
9058.00,1.77
9057.00,1.77
9056.00,1.77
9055.00,1.77
9054.00,1.78
9053.00,1.78
9052.00,1.78
9051.00,1.78
9050.00,1.78
9049.00,1.78
9048.00,1.78
9047.00,1.78
9046.00,1.78
9045.00,1.78
9044.00,1.78
9043.00,1.78
9042.00,1.78
9041.00,1.78
9040.00,1.78
9039.00,1.78
9038.00,1.78
9037.00,1.78
9036.00,1.78
9035.00,1.78
9034.00,1.78
9033.00,1.78
9032.00,1.78
9031.00,1.78
9030.00,1.78
9029.00,1.78
9028.00,1.77
9027.00,1.77
9026.00,1.77
9025.00,1.77
9024.00,1.77
9023.00,1.77
9022.00,1.77
9021.00,1.77
9020.00,1.77
9019.00,1.77
9018.00,1.77
9017.00,1.77
9016.00,1.76
9015.00,1.76
9014.00,1.76
9013.00,1.76
9012.00,1.76
9011.00,1.76
9010.00,1.76
9009.00,1.76
9008.00,1.76
9007.00,1.76
9006.00,1.76
9005.00,1.76
9004.00,1.76
9003.00,1.77
9002.00,1.77
9001.00,1.77
9000.00,1.77
8999.00,1.77
8998.00,1.77
8997.00,1.77
8996.00,1.77
8995.00,1.77
8994.00,1.77
8993.00,1.77
8992.00,1.77
8991.00,1.77
8990.00,1.77
8989.00,1.77
8988.00,1.77
8987.00,1.77
8986.00,1.77
8985.00,1.77
8984.00,1.77
8983.00,1.77
8982.00,1.77
8981.00,1.77
8980.00,1.77
8979.00,1.77
8978.00,1.77
8977.00,1.78
8976.00,1.78
8975.00,1.78
8974.00,1.78
8973.00,1.78
8972.00,1.78
8971.00,1.78
8970.00,1.78
8969.00,1.78
8968.00,1.78
8967.00,1.79
8966.00,1.79
8965.00,1.79
8964.00,1.79
8963.00,1.79
8962.00,1.79
8961.00,1.78
8960.00,1.78
8959.00,1.78
8958.00,1.78
8957.00,1.78
8956.00,1.78
8955.00,1.78
8954.00,1.78
8953.00,1.77
8952.00,1.77
8951.00,1.77
8950.00,1.77
8949.00,1.77
8948.00,1.77
8947.00,1.77
8946.00,1.77
8945.00,1.77
8944.00,1.77
8943.00,1.77
8942.00,1.77
8941.00,1.77
8940.00,1.77
8939.00,1.77
8938.00,1.77
8937.00,1.77
8936.00,1.77
8935.00,1.77
8934.00,1.77
8933.00,1.77
8932.00,1.77
8931.00,1.77
8930.00,1.77
8929.00,1.76
8928.00,1.76
8927.00,1.76
8926.00,1.76
8925.00,1.76
8924.00,1.76
8923.00,1.75
8922.00,1.75
8921.00,1.75
8920.00,1.75
8919.00,1.75
8918.00,1.75
8917.00,1.75
8916.00,1.75
8915.00,1.75
8914.00,1.75
8913.00,1.75
8912.00,1.75
8911.00,1.75
8910.00,1.75
8909.00,1.75
8908.00,1.76
8907.00,1.76
8906.00,1.76
8905.00,1.76
8904.00,1.76
8903.00,1.76
8902.00,1.76
8901.00,1.77
8900.00,1.77
8899.00,1.77
8898.00,1.77
8897.00,1.77
8896.00,1.77
8895.00,1.77
8894.00,1.77
8893.00,1.76
8892.00,1.76
8891.00,1.76
8890.00,1.76
8889.00,1.76
8888.00,1.76
8887.00,1.76
8886.00,1.76
8885.00,1.75
8884.00,1.75
8883.00,1.75
8882.00,1.75
8881.00,1.75
8880.00,1.75
8879.00,1.75
8878.00,1.75
8877.00,1.75
8876.00,1.75
8875.00,1.75
8874.00,1.75
8873.00,1.75
8872.00,1.76
8871.00,1.76
8870.00,1.76
8869.00,1.76
8868.00,1.76
8867.00,1.76
8866.00,1.76
8865.00,1.76
8864.00,1.76
8863.00,1.76
8862.00,1.76
8861.00,1.76
8860.00,1.76
8859.00,1.76
8858.00,1.76
8857.00,1.76
8856.00,1.76
8855.00,1.76
8854.00,1.76
8853.00,1.77
8852.00,1.77
8851.00,1.77
8850.00,1.77
8849.00,1.77
8848.00,1.77
8847.00,1.77
8846.00,1.77
8845.00,1.77
8844.00,1.77
8843.00,1.77
8842.00,1.77
8841.00,1.77
8840.00,1.77
8839.00,1.77
8838.00,1.77
8837.00,1.77
8836.00,1.77
8835.00,1.77
8834.00,1.77
8833.00,1.77
8832.00,1.77
8831.00,1.77
8830.00,1.77
8829.00,1.77
8828.00,1.77
8827.00,1.77
8826.00,1.76
8825.00,1.76
8824.00,1.76
8823.00,1.76
8822.00,1.76
8821.00,1.76
8820.00,1.76
8819.00,1.75
8818.00,1.75
8817.00,1.75
8816.00,1.75
8815.00,1.75
8814.00,1.74
8813.00,1.74
8812.00,1.74
8811.00,1.74
8810.00,1.74
8809.00,1.73
8808.00,1.73
8807.00,1.73
8806.00,1.73
8805.00,1.73
8804.00,1.73
8803.00,1.73
8802.00,1.73
8801.00,1.73
8800.00,1.73
8799.00,1.73
8798.00,1.73
8797.00,1.73
8796.00,1.73
8795.00,1.73
8794.00,1.73
8793.00,1.73
8792.00,1.73
8791.00,1.73
8790.00,1.73
8789.00,1.73
8788.00,1.73
8787.00,1.73
8786.00,1.73
8785.00,1.74
8784.00,1.74
8783.00,1.74
8782.00,1.74
8781.00,1.74
8780.00,1.74
8779.00,1.74
8778.00,1.74
8777.00,1.74
8776.00,1.74
8775.00,1.74
8774.00,1.74
8773.00,1.74
8772.00,1.74
8771.00,1.74
8770.00,1.74
8769.00,1.74
8768.00,1.74
8767.00,1.74
8766.00,1.74
8765.00,1.74
8764.00,1.74
8763.00,1.74
8762.00,1.74
8761.00,1.73
8760.00,1.73
8759.00,1.73
8758.00,1.73
8757.00,1.72
8756.00,1.72
8755.00,1.72
8754.00,1.71
8753.00,1.71
8752.00,1.71
8751.00,1.70
8750.00,1.70
8749.00,1.70
8748.00,1.70
8747.00,1.69
8746.00,1.69
8745.00,1.69
8744.00,1.69
8743.00,1.69
8742.00,1.69
8741.00,1.69
8740.00,1.69
8739.00,1.69
8738.00,1.70
8737.00,1.70
8736.00,1.70
8735.00,1.70
8734.00,1.70
8733.00,1.70
8732.00,1.71
8731.00,1.71
8730.00,1.71
8729.00,1.71
8728.00,1.71
8727.00,1.71
8726.00,1.71
8725.00,1.71
8724.00,1.71
8723.00,1.71
8722.00,1.70
8721.00,1.70
8720.00,1.70
8719.00,1.70
8718.00,1.70
8717.00,1.69
8716.00,1.69
8715.00,1.69
8714.00,1.69
8713.00,1.68
8712.00,1.68
8711.00,1.68
8710.00,1.68
8709.00,1.68
8708.00,1.67
8707.00,1.67
8706.00,1.67
8705.00,1.67
8704.00,1.67
8703.00,1.67
8702.00,1.67
8701.00,1.67
8700.00,1.67
8699.00,1.67
8698.00,1.67
8697.00,1.67
8696.00,1.67
8695.00,1.67
8694.00,1.68
8693.00,1.68
8692.00,1.68
8691.00,1.69
8690.00,1.69
8689.00,1.69
8688.00,1.70
8687.00,1.70
8686.00,1.70
8685.00,1.70
8684.00,1.71
8683.00,1.71
8682.00,1.71
8681.00,1.71
8680.00,1.71
8679.00,1.71
8678.00,1.70
8677.00,1.70
8676.00,1.70
8675.00,1.70
8674.00,1.70
8673.00,1.70
8672.00,1.69
8671.00,1.69
8670.00,1.69
8669.00,1.69
8668.00,1.69
8667.00,1.69
8666.00,1.69
8665.00,1.69
8664.00,1.69
8663.00,1.69
8662.00,1.69
8661.00,1.69
8660.00,1.69
8659.00,1.69
8658.00,1.69
8657.00,1.69
8656.00,1.69
8655.00,1.69
8654.00,1.69
8653.00,1.69
8652.00,1.69
8651.00,1.68
8650.00,1.68
8649.00,1.68
8648.00,1.68
8647.00,1.68
8646.00,1.68
8645.00,1.68
8644.00,1.68
8643.00,1.68
8642.00,1.68
8641.00,1.68
8640.00,1.68
8639.00,1.68
8638.00,1.68
8637.00,1.68
8636.00,1.69
8635.00,1.69
8634.00,1.69
8633.00,1.69
8632.00,1.69
8631.00,1.69
8630.00,1.69
8629.00,1.69
8628.00,1.69
8627.00,1.69
8626.00,1.69
8625.00,1.69
8624.00,1.69
8623.00,1.69
8622.00,1.69
8621.00,1.69
8620.00,1.68
8619.00,1.68
8618.00,1.68
8617.00,1.68
8616.00,1.68
8615.00,1.68
8614.00,1.68
8613.00,1.68
8612.00,1.68
8611.00,1.67
8610.00,1.67
8609.00,1.67
8608.00,1.67
8607.00,1.67
8606.00,1.67
8605.00,1.67
8604.00,1.67
8603.00,1.67
8602.00,1.67
8601.00,1.67
8600.00,1.67
8599.00,1.67
8598.00,1.67
8597.00,1.67
8596.00,1.67
8595.00,1.67
8594.00,1.67
8593.00,1.67
8592.00,1.67
8591.00,1.67
8590.00,1.67
8589.00,1.67
8588.00,1.67
8587.00,1.67
8586.00,1.67
8585.00,1.66
8584.00,1.66
8583.00,1.66
8582.00,1.66
8581.00,1.66
8580.00,1.66
8579.00,1.66
8578.00,1.66
8577.00,1.66
8576.00,1.66
8575.00,1.66
8574.00,1.66
8573.00,1.66
8572.00,1.66
8571.00,1.65
8570.00,1.65
8569.00,1.65
8568.00,1.65
8567.00,1.65
8566.00,1.65
8565.00,1.65
8564.00,1.65
8563.00,1.65
8562.00,1.65
8561.00,1.65
8560.00,1.65
8559.00,1.65
8558.00,1.65
8557.00,1.65
8556.00,1.65
8555.00,1.65
8554.00,1.65
8553.00,1.65
8552.00,1.65
8551.00,1.65
8550.00,1.65
8549.00,1.65
8548.00,1.64
8547.00,1.64
8546.00,1.64
8545.00,1.64
8544.00,1.64
8543.00,1.64
8542.00,1.64
8541.00,1.64
8540.00,1.64
8539.00,1.64
8538.00,1.64
8537.00,1.64
8536.00,1.64
8535.00,1.64
8534.00,1.64
8533.00,1.64
8532.00,1.64
8531.00,1.64
8530.00,1.64
8529.00,1.64
8528.00,1.64
8527.00,1.64
8526.00,1.64
8525.00,1.64
8524.00,1.64
8523.00,1.64
8522.00,1.64
8521.00,1.64
8520.00,1.64
8519.00,1.64
8518.00,1.64
8517.00,1.64
8516.00,1.63
8515.00,1.63
8514.00,1.63
8513.00,1.63
8512.00,1.63
8511.00,1.63
8510.00,1.63
8509.00,1.63
8508.00,1.63
8507.00,1.62
8506.00,1.62
8505.00,1.62
8504.00,1.62
8503.00,1.62
8502.00,1.62
8501.00,1.62
8500.00,1.62
8499.00,1.62
8498.00,1.62
8497.00,1.62
8496.00,1.62
8495.00,1.62
8494.00,1.62
8493.00,1.62
8492.00,1.62
8491.00,1.61
8490.00,1.61
8489.00,1.61
8488.00,1.61
8487.00,1.61
8486.00,1.61
8485.00,1.61
8484.00,1.60
8483.00,1.60
8482.00,1.60
8481.00,1.60
8480.00,1.60
8479.00,1.60
8478.00,1.60
8477.00,1.60
8476.00,1.60
8475.00,1.60
8474.00,1.60
8473.00,1.60
8472.00,1.60
8471.00,1.59
8470.00,1.59
8469.00,1.59
8468.00,1.59
8467.00,1.59
8466.00,1.59
8465.00,1.59
8464.00,1.59
8463.00,1.58
8462.00,1.58
8461.00,1.58
8460.00,1.58
8459.00,1.58
8458.00,1.58
8457.00,1.58
8456.00,1.57
8455.00,1.57
8454.00,1.57
8453.00,1.57
8452.00,1.57
8451.00,1.57
8450.00,1.57
8449.00,1.57
8448.00,1.57
8447.00,1.57
8446.00,1.57
8445.00,1.57
8444.00,1.57
8443.00,1.57
8442.00,1.57
8441.00,1.57
8440.00,1.57
8439.00,1.57
8438.00,1.57
8437.00,1.57
8436.00,1.57
8435.00,1.57
8434.00,1.58
8433.00,1.58
8432.00,1.58
8431.00,1.58
8430.00,1.58
8429.00,1.58
8428.00,1.58
8427.00,1.58
8426.00,1.58
8425.00,1.58
8424.00,1.58
8423.00,1.58
8422.00,1.58
8421.00,1.58
8420.00,1.58
8419.00,1.58
8418.00,1.58
8417.00,1.58
8416.00,1.58
8415.00,1.58
8414.00,1.58
8413.00,1.58
8412.00,1.58
8411.00,1.58
8410.00,1.58
8409.00,1.59
8408.00,1.59
8407.00,1.59
8406.00,1.59
8405.00,1.59
8404.00,1.59
8403.00,1.59
8402.00,1.59
8401.00,1.59
8400.00,1.59
8399.00,1.59
8398.00,1.59
8397.00,1.59
8396.00,1.59
8395.00,1.59
8394.00,1.59
8393.00,1.59
8392.00,1.59
8391.00,1.59
8390.00,1.59
8389.00,1.59
8388.00,1.60
8387.00,1.60
8386.00,1.60
8385.00,1.60
8384.00,1.60
8383.00,1.60
8382.00,1.60
8381.00,1.60
8380.00,1.60
8379.00,1.60
8378.00,1.61
8377.00,1.61
8376.00,1.61
8375.00,1.61
8374.00,1.61
8373.00,1.61
8372.00,1.61
8371.00,1.61
8370.00,1.61
8369.00,1.61
8368.00,1.60
8367.00,1.60
8366.00,1.60
8365.00,1.60
8364.00,1.60
8363.00,1.60
8362.00,1.60
8361.00,1.60
8360.00,1.60
8359.00,1.60
8358.00,1.60
8357.00,1.60
8356.00,1.61
8355.00,1.61
8354.00,1.61
8353.00,1.61
8352.00,1.61
8351.00,1.61
8350.00,1.61
8349.00,1.61
8348.00,1.62
8347.00,1.62
8346.00,1.62
8345.00,1.62
8344.00,1.62
8343.00,1.62
8342.00,1.62
8341.00,1.62
8340.00,1.62
8339.00,1.63
8338.00,1.63
8337.00,1.63
8336.00,1.63
8335.00,1.63
8334.00,1.63
8333.00,1.63
8332.00,1.63
8331.00,1.63
8330.00,1.63
8329.00,1.62
8328.00,1.62
8327.00,1.62
8326.00,1.62
8325.00,1.62
8324.00,1.62
8323.00,1.62
8322.00,1.62
8321.00,1.62
8320.00,1.62
8319.00,1.62
8318.00,1.62
8317.00,1.62
8316.00,1.62
8315.00,1.62
8314.00,1.62
8313.00,1.62
8312.00,1.62
8311.00,1.62
8310.00,1.62
8309.00,1.62
8308.00,1.62
8307.00,1.62
8306.00,1.62
8305.00,1.62
8304.00,1.62
8303.00,1.63
8302.00,1.63
8301.00,1.63
8300.00,1.63
8299.00,1.63
8298.00,1.63
8297.00,1.63
8296.00,1.63
8295.00,1.63
8294.00,1.63
8293.00,1.63
8292.00,1.63
8291.00,1.63
8290.00,1.63
8289.00,1.63
8288.00,1.63
8287.00,1.63
8286.00,1.63
8285.00,1.63
8284.00,1.63
8283.00,1.63
8282.00,1.63
8281.00,1.63
8280.00,1.63
8279.00,1.63
8278.00,1.63
8277.00,1.63
8276.00,1.63
8275.00,1.63
8274.00,1.63
8273.00,1.63
8272.00,1.64
8271.00,1.64
8270.00,1.64
8269.00,1.64
8268.00,1.64
8267.00,1.64
8266.00,1.64
8265.00,1.64
8264.00,1.64
8263.00,1.64
8262.00,1.64
8261.00,1.64
8260.00,1.64
8259.00,1.64
8258.00,1.64
8257.00,1.64
8256.00,1.64
8255.00,1.65
8254.00,1.65
8253.00,1.65
8252.00,1.65
8251.00,1.65
8250.00,1.65
8249.00,1.65
8248.00,1.65
8247.00,1.65
8246.00,1.65
8245.00,1.65
8244.00,1.65
8243.00,1.65
8242.00,1.65
8241.00,1.65
8240.00,1.65
8239.00,1.65
8238.00,1.65
8237.00,1.65
8236.00,1.65
8235.00,1.65
8234.00,1.65
8233.00,1.65
8232.00,1.65
8231.00,1.66
8230.00,1.66
8229.00,1.66
8228.00,1.66
8227.00,1.66
8226.00,1.66
8225.00,1.66
8224.00,1.66
8223.00,1.66
8222.00,1.66
8221.00,1.66
8220.00,1.66
8219.00,1.66
8218.00,1.66
8217.00,1.66
8216.00,1.66
8215.00,1.66
8214.00,1.66
8213.00,1.66
8212.00,1.66
8211.00,1.66
8210.00,1.66
8209.00,1.66
8208.00,1.66
8207.00,1.66
8206.00,1.66
8205.00,1.67
8204.00,1.67
8203.00,1.67
8202.00,1.67
8201.00,1.67
8200.00,1.67
8199.00,1.67
8198.00,1.67
8197.00,1.67
8196.00,1.68
8195.00,1.68
8194.00,1.68
8193.00,1.68
8192.00,1.68
8191.00,1.68
8190.00,1.68
8189.00,1.68
8188.00,1.68
8187.00,1.68
8186.00,1.68
8185.00,1.68
8184.00,1.68
8183.00,1.68
8182.00,1.68
8181.00,1.68
8180.00,1.68
8179.00,1.68
8178.00,1.68
8177.00,1.68
8176.00,1.68
8175.00,1.68
8174.00,1.68
8173.00,1.67
8172.00,1.67
8171.00,1.67
8170.00,1.67
8169.00,1.67
8168.00,1.67
8167.00,1.68
8166.00,1.68
8165.00,1.68
8164.00,1.68
8163.00,1.68
8162.00,1.68
8161.00,1.68
8160.00,1.68
8159.00,1.69
8158.00,1.69
8157.00,1.69
8156.00,1.69
8155.00,1.69
8154.00,1.69
8153.00,1.69
8152.00,1.69
8151.00,1.70
8150.00,1.70
8149.00,1.70
8148.00,1.70
8147.00,1.70
8146.00,1.70
8145.00,1.70
8144.00,1.70
8143.00,1.70
8142.00,1.70
8141.00,1.70
8140.00,1.70
8139.00,1.70
8138.00,1.70
8137.00,1.70
8136.00,1.70
8135.00,1.70
8134.00,1.70
8133.00,1.70
8132.00,1.70
8131.00,1.70
8130.00,1.70
8129.00,1.70
8128.00,1.70
8127.00,1.70
8126.00,1.70
8125.00,1.71
8124.00,1.71
8123.00,1.71
8122.00,1.71
8121.00,1.71
8120.00,1.71
8119.00,1.71
8118.00,1.71
8117.00,1.71
8116.00,1.71
8115.00,1.71
8114.00,1.71
8113.00,1.71
8112.00,1.71
8111.00,1.71
8110.00,1.71
8109.00,1.71
8108.00,1.71
8107.00,1.71
8106.00,1.71
8105.00,1.71
8104.00,1.71
8103.00,1.71
8102.00,1.71
8101.00,1.71
8100.00,1.71
8099.00,1.71
8098.00,1.71
8097.00,1.71
8096.00,1.71
8095.00,1.71
8094.00,1.71
8093.00,1.71
8092.00,1.71
8091.00,1.71
8090.00,1.71
8089.00,1.71
8088.00,1.71
8087.00,1.71
8086.00,1.71
8085.00,1.71
8084.00,1.71
8083.00,1.71
8082.00,1.71
8081.00,1.71
8080.00,1.71
8079.00,1.71
8078.00,1.71
8077.00,1.71
8076.00,1.71
8075.00,1.71
8074.00,1.71
8073.00,1.71
8072.00,1.71
8071.00,1.71
8070.00,1.71
8069.00,1.71
8068.00,1.71
8067.00,1.71
8066.00,1.71
8065.00,1.71
8064.00,1.71
8063.00,1.71
8062.00,1.71
8061.00,1.72
8060.00,1.72
8059.00,1.72
8058.00,1.72
8057.00,1.72
8056.00,1.72
8055.00,1.72
8054.00,1.73
8053.00,1.73
8052.00,1.73
8051.00,1.73
8050.00,1.74
8049.00,1.74
8048.00,1.74
8047.00,1.74
8046.00,1.75
8045.00,1.75
8044.00,1.75
8043.00,1.75
8042.00,1.75
8041.00,1.75
8040.00,1.75
8039.00,1.75
8038.00,1.75
8037.00,1.75
8036.00,1.75
8035.00,1.75
8034.00,1.74
8033.00,1.74
8032.00,1.74
8031.00,1.74
8030.00,1.74
8029.00,1.74
8028.00,1.74
8027.00,1.74
8026.00,1.73
8025.00,1.73
8024.00,1.73
8023.00,1.73
8022.00,1.73
8021.00,1.73
8020.00,1.73
8019.00,1.73
8018.00,1.73
8017.00,1.73
8016.00,1.73
8015.00,1.73
8014.00,1.73
8013.00,1.73
8012.00,1.73
8011.00,1.73
8010.00,1.73
8009.00,1.73
8008.00,1.73
8007.00,1.73
8006.00,1.73
8005.00,1.74
8004.00,1.74
8003.00,1.74
8002.00,1.74
8001.00,1.74
8000.00,1.74
7999.00,1.74
7998.00,1.74
7997.00,1.74
7996.00,1.74
7995.00,1.74
7994.00,1.74
7993.00,1.74
7992.00,1.75
7991.00,1.75
7990.00,1.75
7989.00,1.75
7988.00,1.75
7987.00,1.75
7986.00,1.75
7985.00,1.75
7984.00,1.75
7983.00,1.75
7982.00,1.75
7981.00,1.75
7980.00,1.75
7979.00,1.75
7978.00,1.75
7977.00,1.75
7976.00,1.75
7975.00,1.75
7974.00,1.75
7973.00,1.75
7972.00,1.75
7971.00,1.75
7970.00,1.75
7969.00,1.75
7968.00,1.75
7967.00,1.75
7966.00,1.75
7965.00,1.75
7964.00,1.75
7963.00,1.75
7962.00,1.75
7961.00,1.75
7960.00,1.75
7959.00,1.75
7958.00,1.75
7957.00,1.75
7956.00,1.75
7955.00,1.75
7954.00,1.76
7953.00,1.76
7952.00,1.76
7951.00,1.76
7950.00,1.76
7949.00,1.76
7948.00,1.76
7947.00,1.76
7946.00,1.76
7945.00,1.76
7944.00,1.76
7943.00,1.76
7942.00,1.76
7941.00,1.76
7940.00,1.76
7939.00,1.76
7938.00,1.76
7937.00,1.75
7936.00,1.75
7935.00,1.75
7934.00,1.75
7933.00,1.75
7932.00,1.75
7931.00,1.75
7930.00,1.75
7929.00,1.75
7928.00,1.75
7927.00,1.75
7926.00,1.75
7925.00,1.75
7924.00,1.75
7923.00,1.75
7922.00,1.75
7921.00,1.75
7920.00,1.75
7919.00,1.75
7918.00,1.75
7917.00,1.75
7916.00,1.75
7915.00,1.75
7914.00,1.75
7913.00,1.75
7912.00,1.75
7911.00,1.75
7910.00,1.75
7909.00,1.74
7908.00,1.74
7907.00,1.74
7906.00,1.74
7905.00,1.74
7904.00,1.74
7903.00,1.74
7902.00,1.74
7901.00,1.74
7900.00,1.74
7899.00,1.74
7898.00,1.74
7897.00,1.74
7896.00,1.74
7895.00,1.74
7894.00,1.74
7893.00,1.75
7892.00,1.75
7891.00,1.75
7890.00,1.75
7889.00,1.75
7888.00,1.75
7887.00,1.75
7886.00,1.75
7885.00,1.75
7884.00,1.75
7883.00,1.75
7882.00,1.75
7881.00,1.75
7880.00,1.75
7879.00,1.75
7878.00,1.75
7877.00,1.75
7876.00,1.75
7875.00,1.75
7874.00,1.75
7873.00,1.75
7872.00,1.75
7871.00,1.75
7870.00,1.76
7869.00,1.76
7868.00,1.76
7867.00,1.76
7866.00,1.76
7865.00,1.76
7864.00,1.76
7863.00,1.76
7862.00,1.76
7861.00,1.77
7860.00,1.77
7859.00,1.77
7858.00,1.77
7857.00,1.77
7856.00,1.77
7855.00,1.77
7854.00,1.77
7853.00,1.77
7852.00,1.77
7851.00,1.77
7850.00,1.77
7849.00,1.77
7848.00,1.77
7847.00,1.77
7846.00,1.77
7845.00,1.77
7844.00,1.77
7843.00,1.77
7842.00,1.77
7841.00,1.77
7840.00,1.77
7839.00,1.77
7838.00,1.77
7837.00,1.77
7836.00,1.77
7835.00,1.77
7834.00,1.77
7833.00,1.77
7832.00,1.77
7831.00,1.77
7830.00,1.78
7829.00,1.78
7828.00,1.78
7827.00,1.78
7826.00,1.78
7825.00,1.78
7824.00,1.78
7823.00,1.78
7822.00,1.78
7821.00,1.78
7820.00,1.78
7819.00,1.78
7818.00,1.79
7817.00,1.79
7816.00,1.79
7815.00,1.79
7814.00,1.79
7813.00,1.79
7812.00,1.79
7811.00,1.79
7810.00,1.79
7809.00,1.79
7808.00,1.79
7807.00,1.79
7806.00,1.79
7805.00,1.79
7804.00,1.79
7803.00,1.79
7802.00,1.79
7801.00,1.79
7800.00,1.79
7799.00,1.79
7798.00,1.79
7797.00,1.79
7796.00,1.78
7795.00,1.78
7794.00,1.78
7793.00,1.78
7792.00,1.78
7791.00,1.78
7790.00,1.78
7789.00,1.78
7788.00,1.78
7787.00,1.78
7786.00,1.78
7785.00,1.78
7784.00,1.78
7783.00,1.78
7782.00,1.78
7781.00,1.78
7780.00,1.78
7779.00,1.78
7778.00,1.78
7777.00,1.78
7776.00,1.78
7775.00,1.78
7774.00,1.77
7773.00,1.77
7772.00,1.77
7771.00,1.77
7770.00,1.77
7769.00,1.77
7768.00,1.77
7767.00,1.77
7766.00,1.77
7765.00,1.77
7764.00,1.77
7763.00,1.77
7762.00,1.77
7761.00,1.77
7760.00,1.77
7759.00,1.77
7758.00,1.77
7757.00,1.77
7756.00,1.77
7755.00,1.77
7754.00,1.78
7753.00,1.78
7752.00,1.78
7751.00,1.78
7750.00,1.78
7749.00,1.78
7748.00,1.78
7747.00,1.78
7746.00,1.78
7745.00,1.78
7744.00,1.78
7743.00,1.78
7742.00,1.78
7741.00,1.78
7740.00,1.79
7739.00,1.79
7738.00,1.79
7737.00,1.79
7736.00,1.79
7735.00,1.79
7734.00,1.79
7733.00,1.79
7732.00,1.79
7731.00,1.79
7730.00,1.79
7729.00,1.79
7728.00,1.79
7727.00,1.79
7726.00,1.79
7725.00,1.79
7724.00,1.79
7723.00,1.79
7722.00,1.79
7721.00,1.79
7720.00,1.79
7719.00,1.79
7718.00,1.79
7717.00,1.79
7716.00,1.79
7715.00,1.79
7714.00,1.79
7713.00,1.79
7712.00,1.79
7711.00,1.79
7710.00,1.79
7709.00,1.79
7708.00,1.79
7707.00,1.79
7706.00,1.79
7705.00,1.78
7704.00,1.78
7703.00,1.78
7702.00,1.78
7701.00,1.78
7700.00,1.78
7699.00,1.77
7698.00,1.77
7697.00,1.77
7696.00,1.77
7695.00,1.77
7694.00,1.77
7693.00,1.77
7692.00,1.77
7691.00,1.77
7690.00,1.77
7689.00,1.77
7688.00,1.77
7687.00,1.78
7686.00,1.78
7685.00,1.78
7684.00,1.78
7683.00,1.78
7682.00,1.78
7681.00,1.78
7680.00,1.79
7679.00,1.79
7678.00,1.79
7677.00,1.79
7676.00,1.79
7675.00,1.79
7674.00,1.79
7673.00,1.79
7672.00,1.79
7671.00,1.79
7670.00,1.79
7669.00,1.79
7668.00,1.79
7667.00,1.78
7666.00,1.78
7665.00,1.78
7664.00,1.78
7663.00,1.78
7662.00,1.78
7661.00,1.78
7660.00,1.78
7659.00,1.78
7658.00,1.78
7657.00,1.78
7656.00,1.78
7655.00,1.78
7654.00,1.78
7653.00,1.79
7652.00,1.79
7651.00,1.79
7650.00,1.79
7649.00,1.79
7648.00,1.79
7647.00,1.79
7646.00,1.79
7645.00,1.79
7644.00,1.79
7643.00,1.79
7642.00,1.79
7641.00,1.79
7640.00,1.79
7639.00,1.79
7638.00,1.79
7637.00,1.79
7636.00,1.79
7635.00,1.79
7634.00,1.79
7633.00,1.79
7632.00,1.79
7631.00,1.79
7630.00,1.78
7629.00,1.78
7628.00,1.78
7627.00,1.78
7626.00,1.78
7625.00,1.78
7624.00,1.78
7623.00,1.78
7622.00,1.78
7621.00,1.78
7620.00,1.78
7619.00,1.78
7618.00,1.78
7617.00,1.78
7616.00,1.78
7615.00,1.78
7614.00,1.78
7613.00,1.78
7612.00,1.78
7611.00,1.79
7610.00,1.79
7609.00,1.79
7608.00,1.79
7607.00,1.79
7606.00,1.79
7605.00,1.79
7604.00,1.79
7603.00,1.79
7602.00,1.79
7601.00,1.79
7600.00,1.79
7599.00,1.79
7598.00,1.79
7597.00,1.79
7596.00,1.79
7595.00,1.79
7594.00,1.79
7593.00,1.79
7592.00,1.79
7591.00,1.79
7590.00,1.78
7589.00,1.78
7588.00,1.78
7587.00,1.78
7586.00,1.78
7585.00,1.78
7584.00,1.78
7583.00,1.78
7582.00,1.78
7581.00,1.78
7580.00,1.78
7579.00,1.78
7578.00,1.78
7577.00,1.78
7576.00,1.78
7575.00,1.78
7574.00,1.78
7573.00,1.78
7572.00,1.78
7571.00,1.78
7570.00,1.78
7569.00,1.77
7568.00,1.77
7567.00,1.77
7566.00,1.77
7565.00,1.77
7564.00,1.77
7563.00,1.77
7562.00,1.77
7561.00,1.77
7560.00,1.77
7559.00,1.77
7558.00,1.77
7557.00,1.77
7556.00,1.77
7555.00,1.77
7554.00,1.77
7553.00,1.77
7552.00,1.77
7551.00,1.77
7550.00,1.77
7549.00,1.77
7548.00,1.77
7547.00,1.77
7546.00,1.77
7545.00,1.77
7544.00,1.77
7543.00,1.77
7542.00,1.77
7541.00,1.77
7540.00,1.76
7539.00,1.76
7538.00,1.76
7537.00,1.76
7536.00,1.76
7535.00,1.76
7534.00,1.76
7533.00,1.76
7532.00,1.76
7531.00,1.76
7530.00,1.76
7529.00,1.76
7528.00,1.76
7527.00,1.76
7526.00,1.76
7525.00,1.76
7524.00,1.76
7523.00,1.76
7522.00,1.76
7521.00,1.76
7520.00,1.76
7519.00,1.76
7518.00,1.76
7517.00,1.77
7516.00,1.77
7515.00,1.77
7514.00,1.77
7513.00,1.77
7512.00,1.77
7511.00,1.77
7510.00,1.77
7509.00,1.77
7508.00,1.77
7507.00,1.77
7506.00,1.77
7505.00,1.77
7504.00,1.77
7503.00,1.76
7502.00,1.76
7501.00,1.76
7500.00,1.76
7499.00,1.76
7498.00,1.76
7497.00,1.76
7496.00,1.76
7495.00,1.76
7494.00,1.76
7493.00,1.76
7492.00,1.76
7491.00,1.75
7490.00,1.75
7489.00,1.75
7488.00,1.75
7487.00,1.75
7486.00,1.76
7485.00,1.76
7484.00,1.76
7483.00,1.76
7482.00,1.76
7481.00,1.76
7480.00,1.76
7479.00,1.76
7478.00,1.76
7477.00,1.76
7476.00,1.76
7475.00,1.76
7474.00,1.76
7473.00,1.76
7472.00,1.76
7471.00,1.76
7470.00,1.76
7469.00,1.76
7468.00,1.75
7467.00,1.75
7466.00,1.75
7465.00,1.75
7464.00,1.75
7463.00,1.75
7462.00,1.75
7461.00,1.75
7460.00,1.75
7459.00,1.74
7458.00,1.74
7457.00,1.74
7456.00,1.74
7455.00,1.74
7454.00,1.74
7453.00,1.74
7452.00,1.74
7451.00,1.74
7450.00,1.74
7449.00,1.74
7448.00,1.74
7447.00,1.73
7446.00,1.73
7445.00,1.73
7444.00,1.73
7443.00,1.73
7442.00,1.73
7441.00,1.73
7440.00,1.73
7439.00,1.73
7438.00,1.73
7437.00,1.73
7436.00,1.73
7435.00,1.73
7434.00,1.72
7433.00,1.72
7432.00,1.72
7431.00,1.72
7430.00,1.72
7429.00,1.72
7428.00,1.72
7427.00,1.72
7426.00,1.72
7425.00,1.72
7424.00,1.72
7423.00,1.72
7422.00,1.72
7421.00,1.72
7420.00,1.72
7419.00,1.72
7418.00,1.72
7417.00,1.72
7416.00,1.72
7415.00,1.72
7414.00,1.72
7413.00,1.72
7412.00,1.72
7411.00,1.72
7410.00,1.72
7409.00,1.72
7408.00,1.72
7407.00,1.72
7406.00,1.72
7405.00,1.71
7404.00,1.71
7403.00,1.71
7402.00,1.71
7401.00,1.70
7400.00,1.70
7399.00,1.70
7398.00,1.70
7397.00,1.70
7396.00,1.70
7395.00,1.69
7394.00,1.69
7393.00,1.69
7392.00,1.69
7391.00,1.69
7390.00,1.69
7389.00,1.69
7388.00,1.69
7387.00,1.69
7386.00,1.68
7385.00,1.68
7384.00,1.68
7383.00,1.68
7382.00,1.68
7381.00,1.68
7380.00,1.68
7379.00,1.68
7378.00,1.68
7377.00,1.68
7376.00,1.68
7375.00,1.68
7374.00,1.68
7373.00,1.68
7372.00,1.68
7371.00,1.68
7370.00,1.68
7369.00,1.68
7368.00,1.68
7367.00,1.68
7366.00,1.68
7365.00,1.67
7364.00,1.67
7363.00,1.67
7362.00,1.67
7361.00,1.67
7360.00,1.67
7359.00,1.67
7358.00,1.67
7357.00,1.67
7356.00,1.67
7355.00,1.67
7354.00,1.66
7353.00,1.66
7352.00,1.66
7351.00,1.66
7350.00,1.66
7349.00,1.66
7348.00,1.66
7347.00,1.66
7346.00,1.66
7345.00,1.66
7344.00,1.66
7343.00,1.66
7342.00,1.66
7341.00,1.66
7340.00,1.66
7339.00,1.66
7338.00,1.66
7337.00,1.65
7336.00,1.65
7335.00,1.65
7334.00,1.65
7333.00,1.65
7332.00,1.65
7331.00,1.65
7330.00,1.65
7329.00,1.65
7328.00,1.65
7327.00,1.64
7326.00,1.64
7325.00,1.64
7324.00,1.64
7323.00,1.64
7322.00,1.64
7321.00,1.64
7320.00,1.64
7319.00,1.64
7318.00,1.64
7317.00,1.64
7316.00,1.64
7315.00,1.64
7314.00,1.64
7313.00,1.64
7312.00,1.64
7311.00,1.64
7310.00,1.64
7309.00,1.64
7308.00,1.64
7307.00,1.64
7306.00,1.64
7305.00,1.64
7304.00,1.64
7303.00,1.64
7302.00,1.64
7301.00,1.64
7300.00,1.63
7299.00,1.63
7298.00,1.63
7297.00,1.63
7296.00,1.63
7295.00,1.63
7294.00,1.63
7293.00,1.63
7292.00,1.63
7291.00,1.62
7290.00,1.62
7289.00,1.62
7288.00,1.62
7287.00,1.61
7286.00,1.61
7285.00,1.61
7284.00,1.61
7283.00,1.61
7282.00,1.60
7281.00,1.60
7280.00,1.60
7279.00,1.60
7278.00,1.60
7277.00,1.59
7276.00,1.59
7275.00,1.59
7274.00,1.59
7273.00,1.59
7272.00,1.59
7271.00,1.59
7270.00,1.59
7269.00,1.59
7268.00,1.58
7267.00,1.58
7266.00,1.58
7265.00,1.58
7264.00,1.58
7263.00,1.58
7262.00,1.58
7261.00,1.58
7260.00,1.58
7259.00,1.58
7258.00,1.58
7257.00,1.58
7256.00,1.57
7255.00,1.57
7254.00,1.57
7253.00,1.57
7252.00,1.57
7251.00,1.56
7250.00,1.56
7249.00,1.56
7248.00,1.56
7247.00,1.55
7246.00,1.55
7245.00,1.55
7244.00,1.55
7243.00,1.54
7242.00,1.54
7241.00,1.54
7240.00,1.53
7239.00,1.53
7238.00,1.53
7237.00,1.52
7236.00,1.52
7235.00,1.52
7234.00,1.51
7233.00,1.51
7232.00,1.51
7231.00,1.50
7230.00,1.50
7229.00,1.50
7228.00,1.49
7227.00,1.49
7226.00,1.48
7225.00,1.48
7224.00,1.48
7223.00,1.47
7222.00,1.47
7221.00,1.47
7220.00,1.46
7219.00,1.46
7218.00,1.45
7217.00,1.45
7216.00,1.44
7215.00,1.44
7214.00,1.44
7213.00,1.43
7212.00,1.43
7211.00,1.42
7210.00,1.42
7209.00,1.41
7208.00,1.41
7207.00,1.40
7206.00,1.40
7205.00,1.39
7204.00,1.39
7203.00,1.39
7202.00,1.38
7201.00,1.38
7200.00,1.37
7199.00,1.37
7198.00,1.36
7197.00,1.36
7196.00,1.36
7195.00,1.35
7194.00,1.35
7193.00,1.35
7192.00,1.34
7191.00,1.34
7190.00,1.34
7189.00,1.33
7188.00,1.33
7187.00,1.33
7186.00,1.32
7185.00,1.32
7184.00,1.32
7183.00,1.32
7182.00,1.31
7181.00,1.31
7180.00,1.31
7179.00,1.30
7178.00,1.30
7177.00,1.30
7176.00,1.29
7175.00,1.29
7174.00,1.29
7173.00,1.28
7172.00,1.28
7171.00,1.28
7170.00,1.27
7169.00,1.27
7168.00,1.27
7167.00,1.26
7166.00,1.26
7165.00,1.26
7164.00,1.25
7163.00,1.25
7162.00,1.25
7161.00,1.24
7160.00,1.24
7159.00,1.24
7158.00,1.23
7157.00,1.23
7156.00,1.23
7155.00,1.23
7154.00,1.22
7153.00,1.22
7152.00,1.22
7151.00,1.21
7150.00,1.21
7149.00,1.20
7148.00,1.20
7147.00,1.20
7146.00,1.19
7145.00,1.19
7144.00,1.18
7143.00,1.18
7142.00,1.17
7141.00,1.17
7140.00,1.16
7139.00,1.16
7138.00,1.15
7137.00,1.15
7136.00,1.14
7135.00,1.14
7134.00,1.13
7133.00,1.13
7132.00,1.12
7131.00,1.12
7130.00,1.12
7129.00,1.11
7128.00,1.11
7127.00,1.10
7126.00,1.10
7125.00,1.10
7124.00,1.09
7123.00,1.09
7122.00,1.09
7121.00,1.08
7120.00,1.08
7119.00,1.07
7118.00,1.07
7117.00,1.07
7116.00,1.06
7115.00,1.06
7114.00,1.06
7113.00,1.05
7112.00,1.05
7111.00,1.05
7110.00,1.04
7109.00,1.04
7108.00,1.04
7107.00,1.04
7106.00,1.03
7105.00,1.03
7104.00,1.03
7103.00,1.03
7102.00,1.02
7101.00,1.02
7100.00,1.02
7099.00,1.02
7098.00,1.01
7097.00,1.01
7096.00,1.01
7095.00,1.01
7094.00,1.00
7093.00,1.00
7092.00,1.00
7091.00,1.00
7090.00,0.99
7089.00,0.99
7088.00,0.99
7087.00,0.98
7086.00,0.98
7085.00,0.98
7084.00,0.98
7083.00,0.97
7082.00,0.97
7081.00,0.97
7080.00,0.96
7079.00,0.96
7078.00,0.96
7077.00,0.96
7076.00,0.95
7075.00,0.95
7074.00,0.95
7073.00,0.95
7072.00,0.94
7071.00,0.94
7070.00,0.94
7069.00,0.94
7068.00,0.93
7067.00,0.93
7066.00,0.93
7065.00,0.93
7064.00,0.92
7063.00,0.92
7062.00,0.92
7061.00,0.92
7060.00,0.92
7059.00,0.91
7058.00,0.91
7057.00,0.91
7056.00,0.91
7055.00,0.91
7054.00,0.91
7053.00,0.90
7052.00,0.90
7051.00,0.90
7050.00,0.90
7049.00,0.90
7048.00,0.89
7047.00,0.89
7046.00,0.89
7045.00,0.89
7044.00,0.89
7043.00,0.89
7042.00,0.88
7041.00,0.88
7040.00,0.88
7039.00,0.88
7038.00,0.88
7037.00,0.88
7036.00,0.87
7035.00,0.87
7034.00,0.87
7033.00,0.87
7032.00,0.87
7031.00,0.86
7030.00,0.86
7029.00,0.86
7028.00,0.86
7027.00,0.85
7026.00,0.85
7025.00,0.85
7024.00,0.85
7023.00,0.85
7022.00,0.84
7021.00,0.84
7020.00,0.84
7019.00,0.84
7018.00,0.84
7017.00,0.84
7016.00,0.84
7015.00,0.84
7014.00,0.84
7013.00,0.83
7012.00,0.83
7011.00,0.83
7010.00,0.83
7009.00,0.83
7008.00,0.83
7007.00,0.83
7006.00,0.83
7005.00,0.83
7004.00,0.82
7003.00,0.82
7002.00,0.82
7001.00,0.82
7000.00,0.82
6999.00,0.82
6998.00,0.82
6997.00,0.82
6996.00,0.81
6995.00,0.81
6994.00,0.81
6993.00,0.81
6992.00,0.81
6991.00,0.81
6990.00,0.81
6989.00,0.81
6988.00,0.81
6987.00,0.81
6986.00,0.81
6985.00,0.81
6984.00,0.81
6983.00,0.80
6982.00,0.80
6981.00,0.80
6980.00,0.80
6979.00,0.80
6978.00,0.80
6977.00,0.80
6976.00,0.80
6975.00,0.80
6974.00,0.80
6973.00,0.80
6972.00,0.80
6971.00,0.79
6970.00,0.79
6969.00,0.79
6968.00,0.79
6967.00,0.79
6966.00,0.79
6965.00,0.78
6964.00,0.78
6963.00,0.78
6962.00,0.78
6961.00,0.78
6960.00,0.77
6959.00,0.77
6958.00,0.77
6957.00,0.77
6956.00,0.77
6955.00,0.77
6954.00,0.77
6953.00,0.77
6952.00,0.76
6951.00,0.76
6950.00,0.76
6949.00,0.76
6948.00,0.76
6947.00,0.76
6946.00,0.76
6945.00,0.76
6944.00,0.76
6943.00,0.76
6942.00,0.76
6941.00,0.76
6940.00,0.76
6939.00,0.76
6938.00,0.76
6937.00,0.76
6936.00,0.76
6935.00,0.76
6934.00,0.76
6933.00,0.76
6932.00,0.76
6931.00,0.76
6930.00,0.76
6929.00,0.76
6928.00,0.76
6927.00,0.76
6926.00,0.75
6925.00,0.75
6924.00,0.75
6923.00,0.75
6922.00,0.75
6921.00,0.75
6920.00,0.75
6919.00,0.75
6918.00,0.75
6917.00,0.75
6916.00,0.75
6915.00,0.75
6914.00,0.75
6913.00,0.75
6912.00,0.75
6911.00,0.75
6910.00,0.75
6909.00,0.75
6908.00,0.75
6907.00,0.75
6906.00,0.75
6905.00,0.75
6904.00,0.75
6903.00,0.75
6902.00,0.75
6901.00,0.75
6900.00,0.75
6899.00,0.75
6898.00,0.75
6897.00,0.75
6896.00,0.75
6895.00,0.75
6894.00,0.75
6893.00,0.75
6892.00,0.75
6891.00,0.75
6890.00,0.75
6889.00,0.75
6888.00,0.75
6887.00,0.75
6886.00,0.74
6885.00,0.74
6884.00,0.74
6883.00,0.74
6882.00,0.74
6881.00,0.74
6880.00,0.74
6879.00,0.74
6878.00,0.74
6877.00,0.73
6876.00,0.73
6875.00,0.73
6874.00,0.73
6873.00,0.73
6872.00,0.73
6871.00,0.73
6870.00,0.73
6869.00,0.73
6868.00,0.73
6867.00,0.73
6866.00,0.73
6865.00,0.73
6864.00,0.73
6863.00,0.73
6862.00,0.73
6861.00,0.73
6860.00,0.73
6859.00,0.73
6858.00,0.73
6857.00,0.73
6856.00,0.74
6855.00,0.74
6854.00,0.74
6853.00,0.74
6852.00,0.74
6851.00,0.74
6850.00,0.74
6849.00,0.74
6848.00,0.74
6847.00,0.74
6846.00,0.74
6845.00,0.74
6844.00,0.74
6843.00,0.74
6842.00,0.74
6841.00,0.74
6840.00,0.74
6839.00,0.74
6838.00,0.74
6837.00,0.74
6836.00,0.74
6835.00,0.74
6834.00,0.74
6833.00,0.74
6832.00,0.74
6831.00,0.74
6830.00,0.74
6829.00,0.74
6828.00,0.74
6827.00,0.74
6826.00,0.74
6825.00,0.74
6824.00,0.74
6823.00,0.74
6822.00,0.74
6821.00,0.74
6820.00,0.74
6819.00,0.74
6818.00,0.74
6817.00,0.74
6816.00,0.75
6815.00,0.75
6814.00,0.75
6813.00,0.75
6812.00,0.75
6811.00,0.75
6810.00,0.75
6809.00,0.75
6808.00,0.75
6807.00,0.75
6806.00,0.75
6805.00,0.75
6804.00,0.75
6803.00,0.75
6802.00,0.75
6801.00,0.75
6800.00,0.75
6799.00,0.75
6798.00,0.75
6797.00,0.75
6796.00,0.75
6795.00,0.76
6794.00,0.76
6793.00,0.76
6792.00,0.76
6791.00,0.76
6790.00,0.76
6789.00,0.76
6788.00,0.76
6787.00,0.76
6786.00,0.76
6785.00,0.77
6784.00,0.77
6783.00,0.77
6782.00,0.77
6781.00,0.77
6780.00,0.77
6779.00,0.77
6778.00,0.78
6777.00,0.78
6776.00,0.78
6775.00,0.78
6774.00,0.78
6773.00,0.78
6772.00,0.78
6771.00,0.79
6770.00,0.79
6769.00,0.79
6768.00,0.79
6767.00,0.79
6766.00,0.79
6765.00,0.79
6764.00,0.79
6763.00,0.79
6762.00,0.79
6761.00,0.79
6760.00,0.79
6759.00,0.79
6758.00,0.80
6757.00,0.80
6756.00,0.80
6755.00,0.80
6754.00,0.80
6753.00,0.80
6752.00,0.80
6751.00,0.80
6750.00,0.80
6749.00,0.80
6748.00,0.80
6747.00,0.80
6746.00,0.80
6745.00,0.80
6744.00,0.80
6743.00,0.80
6742.00,0.80
6741.00,0.80
6740.00,0.80
6739.00,0.80
6738.00,0.80
6737.00,0.80
6736.00,0.80
6735.00,0.80
6734.00,0.81
6733.00,0.81
6732.00,0.81
6731.00,0.81
6730.00,0.81
6729.00,0.81
6728.00,0.81
6727.00,0.82
6726.00,0.82
6725.00,0.82
6724.00,0.82
6723.00,0.82
6722.00,0.83
6721.00,0.83
6720.00,0.83
6719.00,0.83
6718.00,0.84
6717.00,0.84
6716.00,0.84
6715.00,0.84
6714.00,0.84
6713.00,0.84
6712.00,0.85
6711.00,0.85
6710.00,0.85
6709.00,0.85
6708.00,0.85
6707.00,0.85
6706.00,0.85
6705.00,0.85
6704.00,0.86
6703.00,0.86
6702.00,0.86
6701.00,0.86
6700.00,0.86
6699.00,0.86
6698.00,0.86
6697.00,0.86
6696.00,0.86
6695.00,0.86
6694.00,0.86
6693.00,0.87
6692.00,0.87
6691.00,0.87
6690.00,0.87
6689.00,0.87
6688.00,0.87
6687.00,0.88
6686.00,0.88
6685.00,0.88
6684.00,0.88
6683.00,0.88
6682.00,0.88
6681.00,0.89
6680.00,0.89
6679.00,0.89
6678.00,0.89
6677.00,0.89
6676.00,0.89
6675.00,0.89
6674.00,0.89
6673.00,0.90
6672.00,0.90
6671.00,0.90
6670.00,0.90
6669.00,0.90
6668.00,0.90
6667.00,0.90
6666.00,0.90
6665.00,0.90
6664.00,0.90
6663.00,0.90
6662.00,0.90
6661.00,0.90
6660.00,0.91
6659.00,0.91
6658.00,0.91
6657.00,0.91
6656.00,0.91
6655.00,0.91
6654.00,0.91
6653.00,0.91
6652.00,0.92
6651.00,0.92
6650.00,0.92
6649.00,0.92
6648.00,0.92
6647.00,0.92
6646.00,0.92
6645.00,0.93
6644.00,0.93
6643.00,0.93
6642.00,0.93
6641.00,0.93
6640.00,0.93
6639.00,0.93
6638.00,0.93
6637.00,0.93
6636.00,0.94
6635.00,0.94
6634.00,0.94
6633.00,0.94
6632.00,0.94
6631.00,0.94
6630.00,0.94
6629.00,0.95
6628.00,0.95
6627.00,0.95
6626.00,0.95
6625.00,0.95
6624.00,0.95
6623.00,0.96
6622.00,0.96
6621.00,0.96
6620.00,0.96
6619.00,0.96
6618.00,0.97
6617.00,0.97
6616.00,0.97
6615.00,0.97
6614.00,0.97
6613.00,0.97
6612.00,0.97
6611.00,0.97
6610.00,0.98
6609.00,0.98
6608.00,0.98
6607.00,0.98
6606.00,0.98
6605.00,0.98
6604.00,0.98
6603.00,0.98
6602.00,0.98
6601.00,0.98
6600.00,0.98
6599.00,0.98
6598.00,0.98
6597.00,0.98
6596.00,0.98
6595.00,0.98
6594.00,0.98
6593.00,0.98
6592.00,0.98
6591.00,0.98
6590.00,0.99
6589.00,0.99
6588.00,0.99
6587.00,0.99
6586.00,0.99
6585.00,0.99
6584.00,1.00
6583.00,1.00
6582.00,1.00
6581.00,1.00
6580.00,1.01
6579.00,1.01
6578.00,1.01
6577.00,1.01
6576.00,1.02
6575.00,1.02
6574.00,1.02
6573.00,1.02
6572.00,1.02
6571.00,1.02
6570.00,1.03
6569.00,1.03
6568.00,1.03
6567.00,1.03
6566.00,1.03
6565.00,1.03
6564.00,1.03
6563.00,1.03
6562.00,1.03
6561.00,1.04
6560.00,1.04
6559.00,1.04
6558.00,1.04
6557.00,1.04
6556.00,1.04
6555.00,1.04
6554.00,1.04
6553.00,1.04
6552.00,1.04
6551.00,1.04
6550.00,1.05
6549.00,1.05
6548.00,1.05
6547.00,1.05
6546.00,1.05
6545.00,1.05
6544.00,1.05
6543.00,1.05
6542.00,1.06
6541.00,1.06
6540.00,1.06
6539.00,1.06
6538.00,1.07
6537.00,1.07
6536.00,1.07
6535.00,1.07
6534.00,1.07
6533.00,1.08
6532.00,1.08
6531.00,1.08
6530.00,1.08
6529.00,1.08
6528.00,1.08
6527.00,1.08
6526.00,1.08
6525.00,1.08
6524.00,1.08
6523.00,1.08
6522.00,1.08
6521.00,1.08
6520.00,1.08
6519.00,1.08
6518.00,1.08
6517.00,1.08
6516.00,1.08
6515.00,1.08
6514.00,1.08
6513.00,1.08
6512.00,1.08
6511.00,1.08
6510.00,1.08
6509.00,1.09
6508.00,1.09
6507.00,1.09
6506.00,1.09
6505.00,1.09
6504.00,1.09
6503.00,1.09
6502.00,1.09
6501.00,1.10
6500.00,1.10
6499.00,1.10
6498.00,1.10
6497.00,1.10
6496.00,1.10
6495.00,1.10
6494.00,1.10
6493.00,1.11
6492.00,1.11
6491.00,1.11
6490.00,1.11
6489.00,1.11
6488.00,1.11
6487.00,1.11
6486.00,1.11
6485.00,1.11
6484.00,1.11
6483.00,1.12
6482.00,1.12
6481.00,1.12
6480.00,1.12
6479.00,1.12
6478.00,1.12
6477.00,1.12
6476.00,1.12
6475.00,1.12
6474.00,1.12
6473.00,1.12
6472.00,1.12
6471.00,1.12
6470.00,1.12
6469.00,1.12
6468.00,1.12
6467.00,1.12
6466.00,1.12
6465.00,1.12
6464.00,1.12
6463.00,1.12
6462.00,1.12
6461.00,1.12
6460.00,1.12
6459.00,1.12
6458.00,1.12
6457.00,1.13
6456.00,1.13
6455.00,1.13
6454.00,1.13
6453.00,1.13
6452.00,1.13
6451.00,1.13
6450.00,1.13
6449.00,1.13
6448.00,1.13
6447.00,1.13
6446.00,1.13
6445.00,1.13
6444.00,1.13
6443.00,1.14
6442.00,1.14
6441.00,1.14
6440.00,1.14
6439.00,1.14
6438.00,1.14
6437.00,1.14
6436.00,1.14
6435.00,1.14
6434.00,1.15
6433.00,1.15
6432.00,1.15
6431.00,1.15
6430.00,1.15
6429.00,1.15
6428.00,1.15
6427.00,1.15
6426.00,1.16
6425.00,1.16
6424.00,1.16
6423.00,1.16
6422.00,1.16
6421.00,1.16
6420.00,1.16
6419.00,1.16
6418.00,1.16
6417.00,1.16
6416.00,1.16
6415.00,1.16
6414.00,1.16
6413.00,1.16
6412.00,1.16
6411.00,1.16
6410.00,1.16
6409.00,1.17
6408.00,1.17
6407.00,1.17
6406.00,1.17
6405.00,1.17
6404.00,1.17
6403.00,1.17
6402.00,1.17
6401.00,1.17
6400.00,1.17
6399.00,1.17
6398.00,1.17
6397.00,1.17
6396.00,1.17
6395.00,1.17
6394.00,1.17
6393.00,1.17
6392.00,1.17
6391.00,1.17
6390.00,1.17
6389.00,1.17
6388.00,1.17
6387.00,1.18
6386.00,1.18
6385.00,1.18
6384.00,1.18
6383.00,1.18
6382.00,1.18
6381.00,1.18
6380.00,1.18
6379.00,1.18
6378.00,1.18
6377.00,1.18
6376.00,1.19
6375.00,1.19
6374.00,1.19
6373.00,1.19
6372.00,1.19
6371.00,1.19
6370.00,1.19
6369.00,1.19
6368.00,1.19
6367.00,1.19
6366.00,1.19
6365.00,1.20
6364.00,1.20
6363.00,1.20
6362.00,1.20
6361.00,1.20
6360.00,1.20
6359.00,1.20
6358.00,1.20
6357.00,1.20
6356.00,1.21
6355.00,1.21
6354.00,1.21
6353.00,1.21
6352.00,1.21
6351.00,1.21
6350.00,1.21
6349.00,1.21
6348.00,1.21
6347.00,1.21
6346.00,1.22
6345.00,1.22
6344.00,1.22
6343.00,1.22
6342.00,1.22
6341.00,1.22
6340.00,1.22
6339.00,1.22
6338.00,1.22
6337.00,1.22
6336.00,1.22
6335.00,1.23
6334.00,1.23
6333.00,1.23
6332.00,1.23
6331.00,1.23
6330.00,1.23
6329.00,1.23
6328.00,1.23
6327.00,1.24
6326.00,1.24
6325.00,1.24
6324.00,1.24
6323.00,1.24
6322.00,1.24
6321.00,1.24
6320.00,1.25
6319.00,1.25
6318.00,1.25
6317.00,1.25
6316.00,1.25
6315.00,1.25
6314.00,1.25
6313.00,1.26
6312.00,1.26
6311.00,1.26
6310.00,1.26
6309.00,1.26
6308.00,1.26
6307.00,1.26
6306.00,1.27
6305.00,1.27
6304.00,1.27
6303.00,1.27
6302.00,1.27
6301.00,1.27
6300.00,1.27
6299.00,1.27
6298.00,1.27
6297.00,1.28
6296.00,1.28
6295.00,1.28
6294.00,1.28
6293.00,1.28
6292.00,1.28
6291.00,1.28
6290.00,1.28
6289.00,1.28
6288.00,1.28
6287.00,1.28
6286.00,1.29
6285.00,1.29
6284.00,1.29
6283.00,1.29
6282.00,1.29
6281.00,1.29
6280.00,1.29
6279.00,1.29
6278.00,1.30
6277.00,1.30
6276.00,1.30
6275.00,1.30
6274.00,1.30
6273.00,1.30
6272.00,1.31
6271.00,1.31
6270.00,1.31
6269.00,1.31
6268.00,1.31
6267.00,1.32
6266.00,1.32
6265.00,1.32
6264.00,1.32
6263.00,1.32
6262.00,1.32
6261.00,1.33
6260.00,1.33
6259.00,1.33
6258.00,1.33
6257.00,1.33
6256.00,1.34
6255.00,1.34
6254.00,1.34
6253.00,1.34
6252.00,1.34
6251.00,1.34
6250.00,1.34
6249.00,1.35
6248.00,1.35
6247.00,1.35
6246.00,1.35
6245.00,1.35
6244.00,1.35
6243.00,1.35
6242.00,1.35
6241.00,1.35
6240.00,1.36
6239.00,1.36
6238.00,1.36
6237.00,1.36
6236.00,1.36
6235.00,1.36
6234.00,1.36
6233.00,1.36
6232.00,1.37
6231.00,1.37
6230.00,1.37
6229.00,1.37
6228.00,1.37
6227.00,1.37
6226.00,1.38
6225.00,1.38
6224.00,1.38
6223.00,1.38
6222.00,1.38
6221.00,1.38
6220.00,1.39
6219.00,1.39
6218.00,1.39
6217.00,1.39
6216.00,1.39
6215.00,1.40
6214.00,1.40
6213.00,1.40
6212.00,1.40
6211.00,1.40
6210.00,1.40
6209.00,1.41
6208.00,1.41
6207.00,1.41
6206.00,1.41
6205.00,1.41
6204.00,1.41
6203.00,1.42
6202.00,1.42
6201.00,1.42
6200.00,1.42
6199.00,1.42
6198.00,1.42
6197.00,1.42
6196.00,1.43
6195.00,1.43
6194.00,1.43
6193.00,1.43
6192.00,1.43
6191.00,1.43
6190.00,1.43
6189.00,1.44
6188.00,1.44
6187.00,1.44
6186.00,1.44
6185.00,1.44
6184.00,1.44
6183.00,1.45
6182.00,1.45
6181.00,1.45
6180.00,1.45
6179.00,1.45
6178.00,1.45
6177.00,1.45
6176.00,1.45
6175.00,1.45
6174.00,1.46
6173.00,1.46
6172.00,1.46
6171.00,1.46
6170.00,1.46
6169.00,1.46
6168.00,1.47
6167.00,1.47
6166.00,1.47
6165.00,1.47
6164.00,1.47
6163.00,1.48
6162.00,1.48
6161.00,1.48
6160.00,1.48
6159.00,1.48
6158.00,1.49
6157.00,1.49
6156.00,1.49
6155.00,1.49
6154.00,1.49
6153.00,1.50
6152.00,1.50
6151.00,1.50
6150.00,1.50
6149.00,1.51
6148.00,1.51
6147.00,1.51
6146.00,1.51
6145.00,1.51
6144.00,1.52
6143.00,1.52
6142.00,1.52
6141.00,1.52
6140.00,1.53
6139.00,1.53
6138.00,1.53
6137.00,1.53
6136.00,1.54
6135.00,1.54
6134.00,1.54
6133.00,1.54
6132.00,1.54
6131.00,1.54
6130.00,1.55
6129.00,1.55
6128.00,1.55
6127.00,1.55
6126.00,1.55
6125.00,1.55
6124.00,1.56
6123.00,1.56
6122.00,1.56
6121.00,1.56
6120.00,1.56
6119.00,1.56
6118.00,1.56
6117.00,1.56
6116.00,1.56
6115.00,1.56
6114.00,1.57
6113.00,1.57
6112.00,1.57
6111.00,1.57
6110.00,1.57
6109.00,1.57
6108.00,1.57
6107.00,1.57
6106.00,1.58
6105.00,1.58
6104.00,1.58
6103.00,1.58
6102.00,1.58
6101.00,1.58
6100.00,1.59
6099.00,1.59
6098.00,1.59
6097.00,1.59
6096.00,1.59
6095.00,1.60
6094.00,1.60
6093.00,1.60
6092.00,1.60
6091.00,1.60
6090.00,1.60
6089.00,1.61
6088.00,1.61
6087.00,1.61
6086.00,1.61
6085.00,1.61
6084.00,1.62
6083.00,1.62
6082.00,1.62
6081.00,1.62
6080.00,1.62
6079.00,1.62
6078.00,1.63
6077.00,1.63
6076.00,1.63
6075.00,1.63
6074.00,1.63
6073.00,1.63
6072.00,1.63
6071.00,1.64
6070.00,1.64
6069.00,1.64
6068.00,1.64
6067.00,1.64
6066.00,1.64
6065.00,1.64
6064.00,1.64
6063.00,1.64
6062.00,1.64
6061.00,1.65
6060.00,1.65
6059.00,1.65
6058.00,1.65
6057.00,1.65
6056.00,1.65
6055.00,1.65
6054.00,1.65
6053.00,1.65
6052.00,1.65
6051.00,1.65
6050.00,1.65
6049.00,1.66
6048.00,1.66
6047.00,1.66
6046.00,1.66
6045.00,1.66
6044.00,1.66
6043.00,1.66
6042.00,1.66
6041.00,1.66
6040.00,1.66
6039.00,1.67
6038.00,1.67
6037.00,1.67
6036.00,1.67
6035.00,1.67
6034.00,1.67
6033.00,1.67
6032.00,1.67
6031.00,1.67
6030.00,1.67
6029.00,1.67
6028.00,1.67
6027.00,1.67
6026.00,1.67
6025.00,1.68
6024.00,1.68
6023.00,1.68
6022.00,1.68
6021.00,1.68
6020.00,1.68
6019.00,1.68
6018.00,1.68
6017.00,1.68
6016.00,1.68
6015.00,1.68
6014.00,1.68
6013.00,1.68
6012.00,1.68
6011.00,1.68
6010.00,1.68
6009.00,1.68
6008.00,1.68
6007.00,1.68
6006.00,1.68
6005.00,1.68
6004.00,1.68
6003.00,1.68
6002.00,1.67
6001.00,1.67
6000.00,1.67
5999.00,1.67
5998.00,1.67
5997.00,1.67
5996.00,1.67
5995.00,1.66
5994.00,1.66
5993.00,1.66
5992.00,1.66
5991.00,1.66
5990.00,1.65
5989.00,1.65
5988.00,1.65
5987.00,1.65
5986.00,1.64
5985.00,1.64
5984.00,1.64
5983.00,1.63
5982.00,1.63
5981.00,1.63
5980.00,1.62
5979.00,1.62
5978.00,1.61
5977.00,1.61
5976.00,1.61
5975.00,1.60
5974.00,1.59
5973.00,1.59
5972.00,1.58
5971.00,1.58
5970.00,1.57
5969.00,1.56
5968.00,1.55
5967.00,1.55
5966.00,1.54
5965.00,1.53
5964.00,1.52
5963.00,1.51
5962.00,1.50
5961.00,1.49
5960.00,1.48
5959.00,1.47
5958.00,1.46
5957.00,1.45
5956.00,1.44
5955.00,1.43
5954.00,1.42
5953.00,1.41
5952.00,1.40
5951.00,1.39
5950.00,1.39
5949.00,1.38
5948.00,1.37
5947.00,1.36
5946.00,1.36
5945.00,1.35
5944.00,1.35
5943.00,1.34
5942.00,1.34
5941.00,1.34
5940.00,1.33
5939.00,1.33
5938.00,1.33
5937.00,1.33
5936.00,1.33
5935.00,1.33
5934.00,1.33
5933.00,1.33
5932.00,1.32
5931.00,1.32
5930.00,1.32
5929.00,1.32
5928.00,1.32
5927.00,1.32
5926.00,1.31
5925.00,1.31
5924.00,1.31
5923.00,1.31
5922.00,1.30
5921.00,1.30
5920.00,1.30
5919.00,1.29
5918.00,1.29
5917.00,1.28
5916.00,1.28
5915.00,1.28
5914.00,1.27
5913.00,1.27
5912.00,1.27
5911.00,1.26
5910.00,1.26
5909.00,1.26
5908.00,1.26
5907.00,1.25
5906.00,1.25
5905.00,1.25
5904.00,1.25
5903.00,1.25
5902.00,1.25
5901.00,1.25
5900.00,1.25
5899.00,1.25
5898.00,1.25
5897.00,1.25
5896.00,1.25
5895.00,1.25
5894.00,1.26
5893.00,1.26
5892.00,1.26
5891.00,1.26
5890.00,1.27
5889.00,1.27
5888.00,1.27
5887.00,1.28
5886.00,1.28
5885.00,1.29
5884.00,1.29
5883.00,1.29
5882.00,1.30
5881.00,1.30
5880.00,1.31
5879.00,1.31
5878.00,1.31
5877.00,1.32
5876.00,1.32
5875.00,1.33
5874.00,1.33
5873.00,1.33
5872.00,1.34
5871.00,1.34
5870.00,1.35
5869.00,1.35
5868.00,1.35
5867.00,1.35
5866.00,1.36
5865.00,1.36
5864.00,1.36
5863.00,1.37
5862.00,1.37
5861.00,1.37
5860.00,1.37
5859.00,1.37
5858.00,1.38
5857.00,1.38
5856.00,1.38
5855.00,1.38
5854.00,1.38
5853.00,1.38
5852.00,1.38
5851.00,1.38
5850.00,1.38
5849.00,1.39
5848.00,1.39
5847.00,1.39
5846.00,1.39
5845.00,1.39
5844.00,1.39
5843.00,1.39
5842.00,1.39
5841.00,1.39
5840.00,1.39
5839.00,1.39
5838.00,1.39
5837.00,1.39
5836.00,1.39
5835.00,1.39
5834.00,1.39
5833.00,1.39
5832.00,1.39
5831.00,1.39
5830.00,1.39
5829.00,1.39
5828.00,1.39
5827.00,1.39
5826.00,1.39
5825.00,1.39
5824.00,1.39
5823.00,1.39
5822.00,1.39
5821.00,1.39
5820.00,1.39
5819.00,1.39
5818.00,1.39
5817.00,1.39
5816.00,1.39
5815.00,1.39
5814.00,1.39
5813.00,1.39
5812.00,1.39
5811.00,1.39
5810.00,1.39
5809.00,1.39
5808.00,1.39
5807.00,1.39
5806.00,1.39
5805.00,1.39
5804.00,1.39
5803.00,1.39
5802.00,1.39
5801.00,1.38
5800.00,1.38
5799.00,1.38
5798.00,1.38
5797.00,1.37
5796.00,1.37
5795.00,1.37
5794.00,1.37
5793.00,1.36
5792.00,1.36
5791.00,1.36
5790.00,1.35
5789.00,1.35
5788.00,1.35
5787.00,1.34
5786.00,1.34
5785.00,1.33
5784.00,1.33
5783.00,1.33
5782.00,1.32
5781.00,1.32
5780.00,1.32
5779.00,1.32
5778.00,1.31
5777.00,1.31
5776.00,1.31
5775.00,1.31
5774.00,1.31
5773.00,1.31
5772.00,1.31
5771.00,1.31
5770.00,1.31
5769.00,1.31
5768.00,1.31
5767.00,1.31
5766.00,1.31
5765.00,1.31
5764.00,1.31
5763.00,1.31
5762.00,1.32
5761.00,1.32
5760.00,1.32
5759.00,1.33
5758.00,1.33
5757.00,1.33
5756.00,1.34
5755.00,1.34
5754.00,1.35
5753.00,1.35
5752.00,1.36
5751.00,1.36
5750.00,1.37
5749.00,1.37
5748.00,1.38
5747.00,1.39
5746.00,1.39
5745.00,1.40
5744.00,1.40
5743.00,1.41
5742.00,1.41
5741.00,1.42
5740.00,1.42
5739.00,1.42
5738.00,1.43
5737.00,1.43
5736.00,1.44
5735.00,1.44
5734.00,1.44
5733.00,1.44
5732.00,1.45
5731.00,1.45
5730.00,1.45
5729.00,1.45
5728.00,1.46
5727.00,1.46
5726.00,1.46
5725.00,1.46
5724.00,1.46
5723.00,1.46
5722.00,1.46
5721.00,1.46
5720.00,1.47
5719.00,1.47
5718.00,1.47
5717.00,1.47
5716.00,1.47
5715.00,1.47
5714.00,1.47
5713.00,1.47
5712.00,1.47
5711.00,1.47
5710.00,1.47
5709.00,1.47
5708.00,1.47
5707.00,1.47
5706.00,1.47
5705.00,1.47
5704.00,1.47
5703.00,1.47
5702.00,1.46
5701.00,1.46
5700.00,1.46
5699.00,1.46
5698.00,1.46
5697.00,1.45
5696.00,1.45
5695.00,1.45
5694.00,1.45
5693.00,1.44
5692.00,1.44
5691.00,1.44
5690.00,1.44
5689.00,1.43
5688.00,1.43
5687.00,1.43
5686.00,1.43
5685.00,1.43
5684.00,1.42
5683.00,1.42
5682.00,1.42
5681.00,1.42
5680.00,1.42
5679.00,1.42
5678.00,1.42
5677.00,1.41
5676.00,1.41
5675.00,1.41
5674.00,1.41
5673.00,1.41
5672.00,1.41
5671.00,1.41
5670.00,1.41
5669.00,1.42
5668.00,1.42
5667.00,1.42
5666.00,1.42
5665.00,1.42
5664.00,1.42
5663.00,1.42
5662.00,1.43
5661.00,1.43
5660.00,1.43
5659.00,1.43
5658.00,1.43
5657.00,1.44
5656.00,1.44
5655.00,1.44
5654.00,1.44
5653.00,1.44
5652.00,1.45
5651.00,1.45
5650.00,1.45
5649.00,1.45
5648.00,1.45
5647.00,1.46
5646.00,1.46
5645.00,1.46
5644.00,1.46
5643.00,1.46
5642.00,1.47
5641.00,1.47
5640.00,1.47
5639.00,1.47
5638.00,1.47
5637.00,1.48
5636.00,1.48
5635.00,1.48
5634.00,1.48
5633.00,1.49
5632.00,1.49
5631.00,1.49
5630.00,1.49
5629.00,1.50
5628.00,1.50
5627.00,1.50
5626.00,1.50
5625.00,1.51
5624.00,1.51
5623.00,1.51
5622.00,1.51
5621.00,1.51
5620.00,1.52
5619.00,1.52
5618.00,1.52
5617.00,1.52
5616.00,1.53
5615.00,1.53
5614.00,1.53
5613.00,1.53
5612.00,1.53
5611.00,1.54
5610.00,1.54
5609.00,1.54
5608.00,1.54
5607.00,1.55
5606.00,1.55
5605.00,1.55
5604.00,1.55
5603.00,1.55
5602.00,1.56
5601.00,1.56
5600.00,1.56
5599.00,1.56
5598.00,1.57
5597.00,1.57
5596.00,1.57
5595.00,1.57
5594.00,1.58
5593.00,1.58
5592.00,1.58
5591.00,1.58
5590.00,1.59
5589.00,1.59
5588.00,1.59
5587.00,1.59
5586.00,1.59
5585.00,1.60
5584.00,1.60
5583.00,1.60
5582.00,1.60
5581.00,1.60
5580.00,1.60
5579.00,1.61
5578.00,1.61
5577.00,1.61
5576.00,1.61
5575.00,1.61
5574.00,1.62
5573.00,1.62
5572.00,1.62
5571.00,1.62
5570.00,1.62
5569.00,1.62
5568.00,1.63
5567.00,1.63
5566.00,1.63
5565.00,1.63
5564.00,1.63
5563.00,1.64
5562.00,1.64
5561.00,1.64
5560.00,1.64
5559.00,1.64
5558.00,1.64
5557.00,1.64
5556.00,1.65
5555.00,1.65
5554.00,1.65
5553.00,1.65
5552.00,1.65
5551.00,1.65
5550.00,1.65
5549.00,1.66
5548.00,1.66
5547.00,1.66
5546.00,1.66
5545.00,1.66
5544.00,1.66
5543.00,1.67
5542.00,1.67
5541.00,1.67
5540.00,1.67
5539.00,1.67
5538.00,1.67
5537.00,1.67
5536.00,1.67
5535.00,1.68
5534.00,1.68
5533.00,1.68
5532.00,1.68
5531.00,1.68
5530.00,1.68
5529.00,1.68
5528.00,1.68
5527.00,1.68
5526.00,1.69
5525.00,1.69
5524.00,1.69
5523.00,1.69
5522.00,1.69
5521.00,1.69
5520.00,1.69
5519.00,1.69
5518.00,1.69
5517.00,1.69
5516.00,1.69
5515.00,1.70
5514.00,1.70
5513.00,1.70
5512.00,1.70
5511.00,1.70
5510.00,1.70
5509.00,1.70
5508.00,1.70
5507.00,1.70
5506.00,1.70
5505.00,1.70
5504.00,1.70
5503.00,1.70
5502.00,1.70
5501.00,1.71
5500.00,1.71
5499.00,1.71
5498.00,1.71
5497.00,1.71
5496.00,1.71
5495.00,1.71
5494.00,1.71
5493.00,1.71
5492.00,1.72
5491.00,1.72
5490.00,1.72
5489.00,1.72
5488.00,1.72
5487.00,1.72
5486.00,1.72
5485.00,1.73
5484.00,1.73
5483.00,1.73
5482.00,1.73
5481.00,1.73
5480.00,1.73
5479.00,1.73
5478.00,1.74
5477.00,1.74
5476.00,1.74
5475.00,1.74
5474.00,1.74
5473.00,1.74
5472.00,1.75
5471.00,1.75
5470.00,1.75
5469.00,1.75
5468.00,1.75
5467.00,1.75
5466.00,1.75
5465.00,1.76
5464.00,1.76
5463.00,1.76
5462.00,1.76
5461.00,1.76
5460.00,1.77
5459.00,1.77
5458.00,1.77
5457.00,1.77
5456.00,1.77
5455.00,1.77
5454.00,1.77
5453.00,1.78
5452.00,1.78
5451.00,1.78
5450.00,1.78
5449.00,1.78
5448.00,1.78
5447.00,1.78
5446.00,1.78
5445.00,1.79
5444.00,1.79
5443.00,1.79
5442.00,1.79
5441.00,1.79
5440.00,1.79
5439.00,1.79
5438.00,1.79
5437.00,1.79
5436.00,1.79
5435.00,1.79
5434.00,1.79
5433.00,1.79
5432.00,1.79
5431.00,1.79
5430.00,1.79
5429.00,1.79
5428.00,1.79
5427.00,1.79
5426.00,1.79
5425.00,1.79
5424.00,1.79
5423.00,1.79
5422.00,1.79
5421.00,1.79
5420.00,1.79
5419.00,1.79
5418.00,1.79
5417.00,1.79
5416.00,1.79
5415.00,1.79
5414.00,1.79
5413.00,1.79
5412.00,1.79
5411.00,1.79
5410.00,1.79
5409.00,1.79
5408.00,1.79
5407.00,1.79
5406.00,1.79
5405.00,1.79
5404.00,1.79
5403.00,1.79
5402.00,1.79
5401.00,1.79
5400.00,1.79
5399.00,1.79
5398.00,1.79
5397.00,1.79
5396.00,1.79
5395.00,1.79
5394.00,1.79
5393.00,1.79
5392.00,1.79
5391.00,1.78
5390.00,1.78
5389.00,1.78
5388.00,1.78
5387.00,1.78
5386.00,1.77
5385.00,1.77
5384.00,1.77
5383.00,1.77
5382.00,1.77
5381.00,1.76
5380.00,1.76
5379.00,1.76
5378.00,1.75
5377.00,1.75
5376.00,1.75
5375.00,1.74
5374.00,1.74
5373.00,1.73
5372.00,1.73
5371.00,1.72
5370.00,1.72
5369.00,1.71
5368.00,1.71
5367.00,1.70
5366.00,1.69
5365.00,1.69
5364.00,1.68
5363.00,1.67
5362.00,1.67
5361.00,1.66
5360.00,1.65
5359.00,1.64
5358.00,1.63
5357.00,1.63
5356.00,1.62
5355.00,1.61
5354.00,1.60
5353.00,1.59
5352.00,1.58
5351.00,1.57
5350.00,1.56
5349.00,1.55
5348.00,1.54
5347.00,1.53
5346.00,1.51
5345.00,1.50
5344.00,1.49
5343.00,1.48
5342.00,1.46
5341.00,1.45
5340.00,1.44
5339.00,1.42
5338.00,1.41
5337.00,1.39
5336.00,1.38
5335.00,1.36
5334.00,1.35
5333.00,1.33
5332.00,1.32
5331.00,1.30
5330.00,1.28
5329.00,1.27
5328.00,1.25
5327.00,1.24
5326.00,1.22
5325.00,1.21
5324.00,1.19
5323.00,1.17
5322.00,1.16
5321.00,1.14
5320.00,1.13
5319.00,1.11
5318.00,1.09
5317.00,1.08
5316.00,1.06
5315.00,1.05
5314.00,1.03
5313.00,1.02
5312.00,1.00
5311.00,0.99
5310.00,0.97
5309.00,0.96
5308.00,0.95
5307.00,0.93
5306.00,0.92
5305.00,0.91
5304.00,0.89
5303.00,0.88
5302.00,0.87
5301.00,0.86
5300.00,0.85
5299.00,0.84
5298.00,0.83
5297.00,0.82
5296.00,0.81
5295.00,0.81
5294.00,0.80
5293.00,0.79
5292.00,0.78
5291.00,0.78
5290.00,0.77
5289.00,0.76
5288.00,0.76
5287.00,0.75
5286.00,0.75
5285.00,0.74
5284.00,0.74
5283.00,0.73
5282.00,0.73
5281.00,0.72
5280.00,0.72
5279.00,0.72
5278.00,0.71
5277.00,0.71
5276.00,0.71
5275.00,0.70
5274.00,0.70
5273.00,0.70
5272.00,0.70
5271.00,0.69
5270.00,0.69
5269.00,0.69
5268.00,0.69
5267.00,0.68
5266.00,0.68
5265.00,0.68
5264.00,0.68
5263.00,0.68
5262.00,0.67
5261.00,0.67
5260.00,0.67
5259.00,0.67
5258.00,0.67
5257.00,0.67
5256.00,0.67
5255.00,0.67
5254.00,0.66
5253.00,0.66
5252.00,0.66
5251.00,0.66
5250.00,0.66
5249.00,0.66
5248.00,0.66
5247.00,0.66
5246.00,0.66
5245.00,0.66
5244.00,0.66
5243.00,0.66
5242.00,0.66
5241.00,0.66
5240.00,0.66
5239.00,0.66
5238.00,0.66
5237.00,0.66
5236.00,0.66
5235.00,0.66
5234.00,0.66
5233.00,0.66
5232.00,0.66
5231.00,0.66
5230.00,0.66
5229.00,0.66
5228.00,0.66
5227.00,0.66
5226.00,0.66
5225.00,0.66
5224.00,0.66
5223.00,0.66
5222.00,0.66
5221.00,0.66
5220.00,0.66
5219.00,0.66
5218.00,0.66
5217.00,0.66
5216.00,0.66
5215.00,0.66
5214.00,0.66
5213.00,0.66
5212.00,0.66
5211.00,0.66
5210.00,0.66
5209.00,0.66
5208.00,0.66
5207.00,0.66
5206.00,0.66
5205.00,0.66
5204.00,0.66
5203.00,0.66
5202.00,0.66
5201.00,0.66
5200.00,0.66
5199.00,0.66
5198.00,0.66
5197.00,0.66
5196.00,0.66
5195.00,0.66
5194.00,0.66
5193.00,0.66
5192.00,0.66
5191.00,0.66
5190.00,0.67
5189.00,0.67
5188.00,0.67
5187.00,0.67
5186.00,0.67
5185.00,0.67
5184.00,0.67
5183.00,0.67
5182.00,0.67
5181.00,0.67
5180.00,0.67
5179.00,0.67
5178.00,0.67
5177.00,0.67
5176.00,0.67
5175.00,0.67
5174.00,0.67
5173.00,0.67
5172.00,0.67
5171.00,0.67
5170.00,0.67
5169.00,0.67
5168.00,0.67
5167.00,0.67
5166.00,0.67
5165.00,0.68
5164.00,0.68
5163.00,0.68
5162.00,0.68
5161.00,0.68
5160.00,0.68
5159.00,0.68
5158.00,0.68
5157.00,0.68
5156.00,0.68
5155.00,0.68
5154.00,0.68
5153.00,0.68
5152.00,0.68
5151.00,0.68
5150.00,0.68
5149.00,0.68
5148.00,0.69
5147.00,0.69
5146.00,0.69
5145.00,0.69
5144.00,0.69
5143.00,0.69
5142.00,0.69
5141.00,0.69
5140.00,0.69
5139.00,0.69
5138.00,0.69
5137.00,0.69
5136.00,0.69
5135.00,0.69
5134.00,0.69
5133.00,0.69
5132.00,0.69
5131.00,0.69
5130.00,0.69
5129.00,0.69
5128.00,0.70
5127.00,0.70
5126.00,0.70
5125.00,0.70
5124.00,0.70
5123.00,0.70
5122.00,0.70
5121.00,0.70
5120.00,0.70
5119.00,0.70
5118.00,0.70
5117.00,0.71
5116.00,0.71
5115.00,0.71
5114.00,0.71
5113.00,0.71
5112.00,0.71
5111.00,0.71
5110.00,0.71
5109.00,0.71
5108.00,0.71
5107.00,0.72
5106.00,0.72
5105.00,0.72
5104.00,0.72
5103.00,0.72
5102.00,0.72
5101.00,0.72
5100.00,0.72
5099.00,0.72
5098.00,0.72
5097.00,0.72
5096.00,0.72
5095.00,0.72
5094.00,0.72
5093.00,0.72
5092.00,0.72
5091.00,0.72
5090.00,0.72
5089.00,0.72
5088.00,0.73
5087.00,0.73
5086.00,0.73
5085.00,0.73
5084.00,0.73
5083.00,0.73
5082.00,0.73
5081.00,0.73
5080.00,0.73
5079.00,0.74
5078.00,0.74
5077.00,0.74
5076.00,0.74
5075.00,0.74
5074.00,0.74
5073.00,0.74
5072.00,0.75
5071.00,0.75
5070.00,0.75
5069.00,0.75
5068.00,0.75
5067.00,0.75
5066.00,0.75
5065.00,0.75
5064.00,0.76
5063.00,0.76
5062.00,0.76
5061.00,0.76
5060.00,0.76
5059.00,0.76
5058.00,0.76
5057.00,0.77
5056.00,0.77
5055.00,0.77
5054.00,0.77
5053.00,0.77
5052.00,0.77
5051.00,0.77
5050.00,0.78
5049.00,0.78
5048.00,0.78
5047.00,0.78
5046.00,0.78
5045.00,0.78
5044.00,0.78
5043.00,0.79
5042.00,0.79
5041.00,0.79
5040.00,0.79
5039.00,0.79
5038.00,0.79
5037.00,0.80
5036.00,0.80
5035.00,0.80
5034.00,0.80
5033.00,0.80
5032.00,0.80
5031.00,0.80
5030.00,0.81
5029.00,0.81
5028.00,0.81
5027.00,0.81
5026.00,0.81
5025.00,0.81
5024.00,0.81
5023.00,0.81
5022.00,0.81
5021.00,0.82
5020.00,0.82
5019.00,0.82
5018.00,0.82
5017.00,0.82
5016.00,0.82
5015.00,0.82
5014.00,0.83
5013.00,0.83
5012.00,0.83
5011.00,0.83
5010.00,0.83
5009.00,0.84
5008.00,0.84
5007.00,0.84
5006.00,0.84
5005.00,0.85
5004.00,0.85
5003.00,0.85
5002.00,0.85
5001.00,0.85
5000.00,0.86
4999.00,0.86
4998.00,0.86
4997.00,0.86
4996.00,0.87
4995.00,0.87
4994.00,0.87
4993.00,0.87
4992.00,0.87
4991.00,0.88
4990.00,0.88
4989.00,0.88
4988.00,0.88
4987.00,0.88
4986.00,0.89
4985.00,0.89
4984.00,0.89
4983.00,0.89
4982.00,0.90
4981.00,0.90
4980.00,0.90
4979.00,0.90
4978.00,0.90
4977.00,0.91
4976.00,0.91
4975.00,0.91
4974.00,0.91
4973.00,0.91
4972.00,0.91
4971.00,0.92
4970.00,0.92
4969.00,0.92
4968.00,0.92
4967.00,0.92
4966.00,0.92
4965.00,0.92
4964.00,0.92
4963.00,0.93
4962.00,0.93
4961.00,0.93
4960.00,0.93
4959.00,0.93
4958.00,0.93
4957.00,0.93
4956.00,0.93
4955.00,0.93
4954.00,0.94
4953.00,0.94
4952.00,0.94
4951.00,0.94
4950.00,0.94
4949.00,0.94
4948.00,0.95
4947.00,0.95
4946.00,0.95
4945.00,0.95
4944.00,0.96
4943.00,0.96
4942.00,0.96
4941.00,0.96
4940.00,0.97
4939.00,0.97
4938.00,0.97
4937.00,0.97
4936.00,0.97
4935.00,0.98
4934.00,0.98
4933.00,0.98
4932.00,0.98
4931.00,0.98
4930.00,0.98
4929.00,0.98
4928.00,0.98
4927.00,0.98
4926.00,0.98
4925.00,0.98
4924.00,0.98
4923.00,0.99
4922.00,0.99
4921.00,0.99
4920.00,0.99
4919.00,0.99
4918.00,0.99
4917.00,0.99
4916.00,0.99
4915.00,0.99
4914.00,0.99
4913.00,1.00
4912.00,1.00
4911.00,1.00
4910.00,1.00
4909.00,1.00
4908.00,1.00
4907.00,1.00
4906.00,1.00
4905.00,1.00
4904.00,1.01
4903.00,1.01
4902.00,1.01
4901.00,1.01
4900.00,1.01
4899.00,1.01
4898.00,1.01
4897.00,1.01
4896.00,1.01
4895.00,1.01
4894.00,1.01
4893.00,1.01
4892.00,1.01
4891.00,1.01
4890.00,1.01
4889.00,1.01
4888.00,1.01
4887.00,1.01
4886.00,1.01
4885.00,1.01
4884.00,1.02
4883.00,1.02
4882.00,1.02
4881.00,1.02
4880.00,1.02
4879.00,1.02
4878.00,1.02
4877.00,1.02
4876.00,1.02
4875.00,1.03
4874.00,1.03
4873.00,1.03
4872.00,1.03
4871.00,1.03
4870.00,1.03
4869.00,1.03
4868.00,1.04
4867.00,1.04
4866.00,1.04
4865.00,1.04
4864.00,1.04
4863.00,1.04
4862.00,1.04
4861.00,1.04
4860.00,1.05
4859.00,1.05
4858.00,1.05
4857.00,1.05
4856.00,1.05
4855.00,1.05
4854.00,1.05
4853.00,1.05
4852.00,1.06
4851.00,1.06
4850.00,1.06
4849.00,1.06
4848.00,1.06
4847.00,1.06
4846.00,1.06
4845.00,1.06
4844.00,1.06
4843.00,1.06
4842.00,1.07
4841.00,1.07
4840.00,1.07
4839.00,1.07
4838.00,1.07
4837.00,1.07
4836.00,1.07
4835.00,1.07
4834.00,1.07
4833.00,1.07
4832.00,1.07
4831.00,1.07
4830.00,1.08
4829.00,1.08
4828.00,1.08
4827.00,1.08
4826.00,1.08
4825.00,1.08
4824.00,1.09
4823.00,1.09
4822.00,1.09
4821.00,1.09
4820.00,1.09
4819.00,1.10
4818.00,1.10
4817.00,1.10
4816.00,1.10
4815.00,1.10
4814.00,1.10
4813.00,1.11
4812.00,1.11
4811.00,1.11
4810.00,1.11
4809.00,1.11
4808.00,1.11
4807.00,1.12
4806.00,1.12
4805.00,1.12
4804.00,1.12
4803.00,1.12
4802.00,1.13
4801.00,1.13
4800.00,1.13
4799.00,1.13
4798.00,1.14
4797.00,1.14
4796.00,1.14
4795.00,1.14
4794.00,1.14
4793.00,1.15
4792.00,1.15
4791.00,1.15
4790.00,1.15
4789.00,1.15
4788.00,1.16
4787.00,1.16
4786.00,1.16
4785.00,1.16
4784.00,1.16
4783.00,1.17
4782.00,1.17
4781.00,1.17
4780.00,1.18
4779.00,1.18
4778.00,1.18
4777.00,1.19
4776.00,1.19
4775.00,1.19
4774.00,1.20
4773.00,1.20
4772.00,1.21
4771.00,1.21
4770.00,1.21
4769.00,1.22
4768.00,1.22
4767.00,1.22
4766.00,1.23
4765.00,1.23
4764.00,1.23
4763.00,1.24
4762.00,1.24
4761.00,1.24
4760.00,1.24
4759.00,1.25
4758.00,1.25
4757.00,1.25
4756.00,1.26
4755.00,1.26
4754.00,1.26
4753.00,1.26
4752.00,1.27
4751.00,1.27
4750.00,1.27
4749.00,1.28
4748.00,1.28
4747.00,1.28
4746.00,1.29
4745.00,1.29
4744.00,1.29
4743.00,1.30
4742.00,1.30
4741.00,1.30
4740.00,1.31
4739.00,1.31
4738.00,1.31
4737.00,1.32
4736.00,1.32
4735.00,1.32
4734.00,1.33
4733.00,1.33
4732.00,1.33
4731.00,1.34
4730.00,1.34
4729.00,1.34
4728.00,1.35
4727.00,1.35
4726.00,1.35
4725.00,1.36
4724.00,1.36
4723.00,1.36
4722.00,1.36
4721.00,1.37
4720.00,1.37
4719.00,1.37
4718.00,1.37
4717.00,1.38
4716.00,1.38
4715.00,1.38
4714.00,1.39
4713.00,1.39
4712.00,1.39
4711.00,1.40
4710.00,1.40
4709.00,1.40
4708.00,1.41
4707.00,1.41
4706.00,1.42
4705.00,1.42
4704.00,1.42
4703.00,1.43
4702.00,1.43
4701.00,1.44
4700.00,1.44
4699.00,1.45
4698.00,1.45
4697.00,1.46
4696.00,1.46
4695.00,1.47
4694.00,1.47
4693.00,1.47
4692.00,1.48
4691.00,1.48
4690.00,1.48
4689.00,1.49
4688.00,1.49
4687.00,1.49
4686.00,1.50
4685.00,1.50
4684.00,1.50
4683.00,1.50
4682.00,1.51
4681.00,1.51
4680.00,1.51
4679.00,1.51
4678.00,1.51
4677.00,1.51
4676.00,1.52
4675.00,1.52
4674.00,1.52
4673.00,1.52
4672.00,1.52
4671.00,1.53
4670.00,1.53
4669.00,1.53
4668.00,1.53
4667.00,1.54
4666.00,1.54
4665.00,1.54
4664.00,1.54
4663.00,1.55
4662.00,1.55
4661.00,1.55
4660.00,1.56
4659.00,1.56
4658.00,1.56
4657.00,1.56
4656.00,1.57
4655.00,1.57
4654.00,1.57
4653.00,1.57
4652.00,1.58
4651.00,1.58
4650.00,1.58
4649.00,1.59
4648.00,1.59
4647.00,1.59
4646.00,1.59
4645.00,1.60
4644.00,1.60
4643.00,1.60
4642.00,1.60
4641.00,1.60
4640.00,1.61
4639.00,1.61
4638.00,1.61
4637.00,1.61
4636.00,1.61
4635.00,1.62
4634.00,1.62
4633.00,1.62
4632.00,1.62
4631.00,1.62
4630.00,1.62
4629.00,1.63
4628.00,1.63
4627.00,1.63
4626.00,1.63
4625.00,1.63
4624.00,1.64
4623.00,1.64
4622.00,1.64
4621.00,1.64
4620.00,1.65
4619.00,1.65
4618.00,1.65
4617.00,1.65
4616.00,1.65
4615.00,1.66
4614.00,1.66
4613.00,1.66
4612.00,1.66
4611.00,1.66
4610.00,1.67
4609.00,1.67
4608.00,1.67
4607.00,1.67
4606.00,1.67
4605.00,1.67
4604.00,1.68
4603.00,1.68
4602.00,1.68
4601.00,1.68
4600.00,1.68
4599.00,1.68
4598.00,1.68
4597.00,1.68
4596.00,1.68
4595.00,1.68
4594.00,1.69
4593.00,1.69
4592.00,1.69
4591.00,1.69
4590.00,1.69
4589.00,1.69
4588.00,1.69
4587.00,1.70
4586.00,1.70
4585.00,1.70
4584.00,1.70
4583.00,1.70
4582.00,1.71
4581.00,1.71
4580.00,1.71
4579.00,1.71
4578.00,1.71
4577.00,1.71
4576.00,1.72
4575.00,1.72
4574.00,1.72
4573.00,1.72
4572.00,1.72
4571.00,1.72
4570.00,1.72
4569.00,1.73
4568.00,1.73
4567.00,1.73
4566.00,1.73
4565.00,1.74
4564.00,1.74
4563.00,1.74
4562.00,1.74
4561.00,1.75
4560.00,1.75
4559.00,1.75
4558.00,1.75
4557.00,1.75
4556.00,1.75
4555.00,1.76
4554.00,1.76
4553.00,1.76
4552.00,1.76
4551.00,1.76
4550.00,1.76
4549.00,1.76
4548.00,1.76
4547.00,1.77
4546.00,1.77
4545.00,1.77
4544.00,1.77
4543.00,1.77
4542.00,1.77
4541.00,1.77
4540.00,1.78
4539.00,1.78
4538.00,1.78
4537.00,1.78
4536.00,1.78
4535.00,1.78
4534.00,1.78
4533.00,1.78
4532.00,1.79
4531.00,1.79
4530.00,1.79
4529.00,1.79
4528.00,1.79
4527.00,1.79
4526.00,1.79
4525.00,1.79
4524.00,1.79
4523.00,1.79
4522.00,1.79
4521.00,1.79
4520.00,1.79
4519.00,1.79
4518.00,1.79
4517.00,1.79
4516.00,1.79
4515.00,1.79
4514.00,1.79
4513.00,1.79
4512.00,1.79
4511.00,1.79
4510.00,1.79
4509.00,1.79
4508.00,1.79
4507.00,1.79
4506.00,1.79
4505.00,1.79
4504.00,1.79
4503.00,1.79
4502.00,1.79
4501.00,1.79
4500.00,1.78
4499.00,1.78
4498.00,1.78
4497.00,1.78
4496.00,1.78
4495.00,1.77
4494.00,1.77
4493.00,1.77
4492.00,1.77
4491.00,1.76
4490.00,1.76
4489.00,1.76
4488.00,1.76
4487.00,1.75
4486.00,1.75
4485.00,1.75
4484.00,1.75
4483.00,1.74
4482.00,1.74
4481.00,1.74
4480.00,1.73
4479.00,1.73
4478.00,1.72
4477.00,1.72
4476.00,1.71
4475.00,1.71
4474.00,1.70
4473.00,1.70
4472.00,1.69
4471.00,1.69
4470.00,1.68
4469.00,1.67
4468.00,1.67
4467.00,1.66
4466.00,1.66
4465.00,1.65
4464.00,1.64
4463.00,1.64
4462.00,1.63
4461.00,1.63
4460.00,1.62
4459.00,1.61
4458.00,1.61
4457.00,1.60
4456.00,1.59
4455.00,1.59
4454.00,1.58
4453.00,1.57
4452.00,1.57
4451.00,1.56
4450.00,1.55
4449.00,1.54
4448.00,1.53
4447.00,1.52
4446.00,1.51
4445.00,1.50
4444.00,1.49
4443.00,1.48
4442.00,1.47
4441.00,1.46
4440.00,1.45
4439.00,1.44
4438.00,1.43
4437.00,1.42
4436.00,1.41
4435.00,1.39
4434.00,1.38
4433.00,1.37
4432.00,1.36
4431.00,1.35
4430.00,1.34
4429.00,1.33
4428.00,1.32
4427.00,1.32
4426.00,1.31
4425.00,1.30
4424.00,1.30
4423.00,1.29
4422.00,1.29
4421.00,1.28
4420.00,1.28
4419.00,1.27
4418.00,1.27
4417.00,1.27
4416.00,1.27
4415.00,1.27
4414.00,1.26
4413.00,1.26
4412.00,1.26
4411.00,1.26
4410.00,1.26
4409.00,1.26
4408.00,1.26
4407.00,1.26
4406.00,1.26
4405.00,1.26
4404.00,1.26
4403.00,1.26
4402.00,1.27
4401.00,1.27
4400.00,1.27
4399.00,1.27
4398.00,1.27
4397.00,1.28
4396.00,1.28
4395.00,1.28
4394.00,1.29
4393.00,1.29
4392.00,1.29
4391.00,1.30
4390.00,1.30
4389.00,1.31
4388.00,1.31
4387.00,1.31
4386.00,1.32
4385.00,1.32
4384.00,1.33
4383.00,1.33
4382.00,1.33
4381.00,1.33
4380.00,1.34
4379.00,1.34
4378.00,1.34
4377.00,1.34
4376.00,1.35
4375.00,1.35
4374.00,1.35
4373.00,1.35
4372.00,1.35
4371.00,1.35
4370.00,1.35
4369.00,1.35
4368.00,1.35
4367.00,1.35
4366.00,1.35
4365.00,1.35
4364.00,1.35
4363.00,1.35
4362.00,1.35
4361.00,1.35
4360.00,1.35
4359.00,1.35
4358.00,1.35
4357.00,1.35
4356.00,1.35
4355.00,1.35
4354.00,1.34
4353.00,1.34
4352.00,1.34
4351.00,1.34
4350.00,1.34
4349.00,1.34
4348.00,1.34
4347.00,1.34
4346.00,1.34
4345.00,1.34
4344.00,1.34
4343.00,1.34
4342.00,1.34
4341.00,1.34
4340.00,1.35
4339.00,1.35
4338.00,1.35
4337.00,1.35
4336.00,1.35
4335.00,1.35
4334.00,1.35
4333.00,1.35
4332.00,1.36
4331.00,1.36
4330.00,1.36
4329.00,1.36
4328.00,1.36
4327.00,1.37
4326.00,1.37
4325.00,1.37
4324.00,1.38
4323.00,1.38
4322.00,1.39
4321.00,1.39
4320.00,1.39
4319.00,1.40
4318.00,1.40
4317.00,1.41
4316.00,1.41
4315.00,1.42
4314.00,1.42
4313.00,1.43
4312.00,1.43
4311.00,1.43
4310.00,1.44
4309.00,1.44
4308.00,1.45
4307.00,1.45
4306.00,1.45
4305.00,1.46
4304.00,1.46
4303.00,1.47
4302.00,1.47
4301.00,1.47
4300.00,1.48
4299.00,1.48
4298.00,1.48
4297.00,1.49
4296.00,1.49
4295.00,1.50
4294.00,1.50
4293.00,1.51
4292.00,1.51
4291.00,1.51
4290.00,1.52
4289.00,1.52
4288.00,1.53
4287.00,1.53
4286.00,1.53
4285.00,1.54
4284.00,1.54
4283.00,1.54
4282.00,1.55
4281.00,1.55
4280.00,1.55
4279.00,1.55
4278.00,1.55
4277.00,1.55
4276.00,1.55
4275.00,1.55
4274.00,1.55
4273.00,1.55
4272.00,1.55
4271.00,1.55
4270.00,1.54
4269.00,1.54
4268.00,1.54
4267.00,1.54
4266.00,1.53
4265.00,1.53
4264.00,1.53
4263.00,1.52
4262.00,1.52
4261.00,1.52
4260.00,1.52
4259.00,1.52
4258.00,1.52
4257.00,1.52
4256.00,1.52
4255.00,1.52
4254.00,1.52
4253.00,1.52
4252.00,1.52
4251.00,1.52
4250.00,1.52
4249.00,1.52
4248.00,1.52
4247.00,1.53
4246.00,1.53
4245.00,1.53
4244.00,1.53
4243.00,1.54
4242.00,1.54
4241.00,1.54
4240.00,1.54
4239.00,1.55
4238.00,1.55
4237.00,1.55
4236.00,1.56
4235.00,1.56
4234.00,1.56
4233.00,1.57
4232.00,1.57
4231.00,1.57
4230.00,1.58
4229.00,1.58
4228.00,1.58
4227.00,1.59
4226.00,1.59
4225.00,1.59
4224.00,1.60
4223.00,1.60
4222.00,1.60
4221.00,1.61
4220.00,1.61
4219.00,1.61
4218.00,1.61
4217.00,1.61
4216.00,1.62
4215.00,1.62
4214.00,1.62
4213.00,1.62
4212.00,1.62
4211.00,1.63
4210.00,1.63
4209.00,1.63
4208.00,1.63
4207.00,1.63
4206.00,1.63
4205.00,1.64
4204.00,1.64
4203.00,1.64
4202.00,1.64
4201.00,1.64
4200.00,1.64
4199.00,1.64
4198.00,1.64
4197.00,1.64
4196.00,1.64
4195.00,1.64
4194.00,1.64
4193.00,1.64
4192.00,1.64
4191.00,1.64
4190.00,1.63
4189.00,1.63
4188.00,1.63
4187.00,1.63
4186.00,1.63
4185.00,1.63
4184.00,1.63
4183.00,1.63
4182.00,1.63
4181.00,1.63
4180.00,1.63
4179.00,1.63
4178.00,1.63
4177.00,1.63
4176.00,1.63
4175.00,1.63
4174.00,1.63
4173.00,1.64
4172.00,1.64
4171.00,1.64
4170.00,1.64
4169.00,1.64
4168.00,1.64
4167.00,1.64
4166.00,1.64
4165.00,1.64
4164.00,1.64
4163.00,1.64
4162.00,1.64
4161.00,1.64
4160.00,1.63
4159.00,1.63
4158.00,1.63
4157.00,1.63
4156.00,1.63
4155.00,1.63
4154.00,1.63
4153.00,1.63
4152.00,1.63
4151.00,1.63
4150.00,1.63
4149.00,1.63
4148.00,1.63
4147.00,1.63
4146.00,1.63
4145.00,1.63
4144.00,1.63
4143.00,1.63
4142.00,1.64
4141.00,1.64
4140.00,1.64
4139.00,1.64
4138.00,1.64
4137.00,1.64
4136.00,1.65
4135.00,1.65
4134.00,1.65
4133.00,1.65
4132.00,1.65
4131.00,1.65
4130.00,1.65
4129.00,1.65
4128.00,1.65
4127.00,1.65
4126.00,1.65
4125.00,1.66
4124.00,1.66
4123.00,1.66
4122.00,1.66
4121.00,1.66
4120.00,1.66
4119.00,1.67
4118.00,1.67
4117.00,1.67
4116.00,1.67
4115.00,1.67
4114.00,1.67
4113.00,1.67
4112.00,1.67
4111.00,1.67
4110.00,1.67
4109.00,1.67
4108.00,1.67
4107.00,1.67
4106.00,1.67
4105.00,1.66
4104.00,1.66
4103.00,1.66
4102.00,1.66
4101.00,1.66
4100.00,1.66
4099.00,1.66
4098.00,1.66
4097.00,1.66
4096.00,1.66
4095.00,1.66
4094.00,1.66
4093.00,1.66
4092.00,1.66
4091.00,1.66
4090.00,1.67
4089.00,1.67
4088.00,1.67
4087.00,1.67
4086.00,1.67
4085.00,1.67
4084.00,1.68
4083.00,1.68
4082.00,1.68
4081.00,1.68
4080.00,1.68
4079.00,1.68
4078.00,1.68
4077.00,1.68
4076.00,1.68
4075.00,1.68
4074.00,1.68
4073.00,1.68
4072.00,1.68
4071.00,1.69
4070.00,1.69
4069.00,1.69
4068.00,1.69
4067.00,1.69
4066.00,1.69
4065.00,1.69
4064.00,1.70
4063.00,1.70
4062.00,1.70
4061.00,1.70
4060.00,1.71
4059.00,1.71
4058.00,1.71
4057.00,1.71
4056.00,1.72
4055.00,1.72
4054.00,1.72
4053.00,1.73
4052.00,1.73
4051.00,1.73
4050.00,1.73
4049.00,1.73
4048.00,1.74
4047.00,1.74
4046.00,1.74
4045.00,1.74
4044.00,1.74
4043.00,1.74
4042.00,1.74
4041.00,1.74
4040.00,1.74
4039.00,1.74
4038.00,1.74
4037.00,1.74
4036.00,1.75
4035.00,1.75
4034.00,1.75
4033.00,1.75
4032.00,1.75
4031.00,1.75
4030.00,1.75
4029.00,1.75
4028.00,1.75
4027.00,1.76
4026.00,1.76
4025.00,1.76
4024.00,1.76
4023.00,1.76
4022.00,1.76
4021.00,1.76
4020.00,1.76
4019.00,1.76
4018.00,1.76
4017.00,1.76
4016.00,1.76
4015.00,1.76
4014.00,1.76
4013.00,1.76
4012.00,1.76
4011.00,1.76
4010.00,1.76
4009.00,1.77
4008.00,1.77
4007.00,1.77
4006.00,1.77
4005.00,1.78
4004.00,1.78
4003.00,1.78
4002.00,1.79
4001.00,1.79
4000.00,1.80
