创建为新数据集,样品 100 用户 Administrator 日期 星期日, 十一月 05 2017
cm-1,%T
10000.00,1.53
9999.00,1.53
9998.00,1.53
9997.00,1.53
9996.00,1.53
9995.00,1.53
9994.00,1.53
9993.00,1.53
9992.00,1.53
9991.00,1.53
9990.00,1.52
9989.00,1.52
9988.00,1.52
9987.00,1.52
9986.00,1.51
9985.00,1.51
9984.00,1.51
9983.00,1.50
9982.00,1.50
9981.00,1.50
9980.00,1.49
9979.00,1.49
9978.00,1.49
9977.00,1.49
9976.00,1.48
9975.00,1.48
9974.00,1.48
9973.00,1.48
9972.00,1.48
9971.00,1.49
9970.00,1.49
9969.00,1.49
9968.00,1.49
9967.00,1.50
9966.00,1.50
9965.00,1.50
9964.00,1.51
9963.00,1.51
9962.00,1.51
9961.00,1.52
9960.00,1.52
9959.00,1.52
9958.00,1.52
9957.00,1.52
9956.00,1.52
9955.00,1.53
9954.00,1.53
9953.00,1.53
9952.00,1.53
9951.00,1.53
9950.00,1.53
9949.00,1.52
9948.00,1.52
9947.00,1.52
9946.00,1.52
9945.00,1.52
9944.00,1.52
9943.00,1.52
9942.00,1.51
9941.00,1.51
9940.00,1.51
9939.00,1.51
9938.00,1.51
9937.00,1.51
9936.00,1.51
9935.00,1.51
9934.00,1.51
9933.00,1.51
9932.00,1.51
9931.00,1.51
9930.00,1.51
9929.00,1.51
9928.00,1.51
9927.00,1.51
9926.00,1.51
9925.00,1.51
9924.00,1.51
9923.00,1.51
9922.00,1.51
9921.00,1.51
9920.00,1.51
9919.00,1.51
9918.00,1.51
9917.00,1.51
9916.00,1.51
9915.00,1.51
9914.00,1.51
9913.00,1.51
9912.00,1.51
9911.00,1.51
9910.00,1.51
9909.00,1.51
9908.00,1.51
9907.00,1.51
9906.00,1.51
9905.00,1.51
9904.00,1.51
9903.00,1.51
9902.00,1.51
9901.00,1.52
9900.00,1.52
9899.00,1.52
9898.00,1.52
9897.00,1.52
9896.00,1.52
9895.00,1.52
9894.00,1.52
9893.00,1.52
9892.00,1.52
9891.00,1.52
9890.00,1.51
9889.00,1.51
9888.00,1.51
9887.00,1.51
9886.00,1.51
9885.00,1.50
9884.00,1.50
9883.00,1.50
9882.00,1.50
9881.00,1.49
9880.00,1.49
9879.00,1.49
9878.00,1.49
9877.00,1.49
9876.00,1.49
9875.00,1.49
9874.00,1.49
9873.00,1.49
9872.00,1.49
9871.00,1.49
9870.00,1.49
9869.00,1.49
9868.00,1.49
9867.00,1.49
9866.00,1.49
9865.00,1.49
9864.00,1.49
9863.00,1.49
9862.00,1.49
9861.00,1.49
9860.00,1.49
9859.00,1.50
9858.00,1.50
9857.00,1.50
9856.00,1.50
9855.00,1.50
9854.00,1.50
9853.00,1.50
9852.00,1.50
9851.00,1.50
9850.00,1.50
9849.00,1.50
9848.00,1.50
9847.00,1.50
9846.00,1.50
9845.00,1.50
9844.00,1.50
9843.00,1.50
9842.00,1.50
9841.00,1.50
9840.00,1.50
9839.00,1.50
9838.00,1.50
9837.00,1.50
9836.00,1.50
9835.00,1.50
9834.00,1.50
9833.00,1.50
9832.00,1.50
9831.00,1.50
9830.00,1.50
9829.00,1.50
9828.00,1.50
9827.00,1.49
9826.00,1.49
9825.00,1.49
9824.00,1.49
9823.00,1.49
9822.00,1.49
9821.00,1.49
9820.00,1.49
9819.00,1.49
9818.00,1.49
9817.00,1.49
9816.00,1.49
9815.00,1.49
9814.00,1.49
9813.00,1.48
9812.00,1.48
9811.00,1.48
9810.00,1.48
9809.00,1.48
9808.00,1.48
9807.00,1.48
9806.00,1.48
9805.00,1.48
9804.00,1.48
9803.00,1.48
9802.00,1.48
9801.00,1.48
9800.00,1.48
9799.00,1.48
9798.00,1.48
9797.00,1.48
9796.00,1.48
9795.00,1.48
9794.00,1.48
9793.00,1.48
9792.00,1.48
9791.00,1.48
9790.00,1.49
9789.00,1.49
9788.00,1.49
9787.00,1.49
9786.00,1.49
9785.00,1.50
9784.00,1.50
9783.00,1.50
9782.00,1.50
9781.00,1.50
9780.00,1.50
9779.00,1.50
9778.00,1.51
9777.00,1.51
9776.00,1.51
9775.00,1.50
9774.00,1.50
9773.00,1.50
9772.00,1.50
9771.00,1.50
9770.00,1.50
9769.00,1.50
9768.00,1.49
9767.00,1.49
9766.00,1.49
9765.00,1.49
9764.00,1.49
9763.00,1.49
9762.00,1.49
9761.00,1.49
9760.00,1.49
9759.00,1.49
9758.00,1.49
9757.00,1.49
9756.00,1.49
9755.00,1.49
9754.00,1.49
9753.00,1.49
9752.00,1.50
9751.00,1.50
9750.00,1.50
9749.00,1.50
9748.00,1.50
9747.00,1.50
9746.00,1.50
9745.00,1.50
9744.00,1.50
9743.00,1.50
9742.00,1.50
9741.00,1.50
9740.00,1.50
9739.00,1.50
9738.00,1.50
9737.00,1.50
9736.00,1.50
9735.00,1.50
9734.00,1.51
9733.00,1.51
9732.00,1.51
9731.00,1.51
9730.00,1.51
9729.00,1.51
9728.00,1.51
9727.00,1.51
9726.00,1.51
9725.00,1.50
9724.00,1.50
9723.00,1.50
9722.00,1.50
9721.00,1.50
9720.00,1.50
9719.00,1.50
9718.00,1.50
9717.00,1.50
9716.00,1.50
9715.00,1.50
9714.00,1.50
9713.00,1.50
9712.00,1.50
9711.00,1.50
9710.00,1.50
9709.00,1.50
9708.00,1.51
9707.00,1.51
9706.00,1.51
9705.00,1.51
9704.00,1.51
9703.00,1.51
9702.00,1.51
9701.00,1.51
9700.00,1.51
9699.00,1.50
9698.00,1.50
9697.00,1.50
9696.00,1.50
9695.00,1.50
9694.00,1.50
9693.00,1.50
9692.00,1.50
9691.00,1.50
9690.00,1.50
9689.00,1.50
9688.00,1.50
9687.00,1.50
9686.00,1.50
9685.00,1.50
9684.00,1.50
9683.00,1.50
9682.00,1.50
9681.00,1.50
9680.00,1.50
9679.00,1.51
9678.00,1.51
9677.00,1.51
9676.00,1.51
9675.00,1.51
9674.00,1.51
9673.00,1.50
9672.00,1.50
9671.00,1.50
9670.00,1.50
9669.00,1.50
9668.00,1.50
9667.00,1.50
9666.00,1.50
9665.00,1.50
9664.00,1.49
9663.00,1.49
9662.00,1.49
9661.00,1.49
9660.00,1.49
9659.00,1.49
9658.00,1.49
9657.00,1.49
9656.00,1.50
9655.00,1.50
9654.00,1.50
9653.00,1.50
9652.00,1.50
9651.00,1.50
9650.00,1.50
9649.00,1.50
9648.00,1.50
9647.00,1.50
9646.00,1.51
9645.00,1.51
9644.00,1.51
9643.00,1.51
9642.00,1.51
9641.00,1.52
9640.00,1.52
9639.00,1.52
9638.00,1.52
9637.00,1.52
9636.00,1.52
9635.00,1.52
9634.00,1.52
9633.00,1.52
9632.00,1.52
9631.00,1.52
9630.00,1.52
9629.00,1.52
9628.00,1.51
9627.00,1.51
9626.00,1.51
9625.00,1.50
9624.00,1.50
9623.00,1.50
9622.00,1.50
9621.00,1.49
9620.00,1.49
9619.00,1.49
9618.00,1.48
9617.00,1.48
9616.00,1.48
9615.00,1.48
9614.00,1.48
9613.00,1.48
9612.00,1.48
9611.00,1.48
9610.00,1.48
9609.00,1.48
9608.00,1.48
9607.00,1.48
9606.00,1.48
9605.00,1.48
9604.00,1.48
9603.00,1.48
9602.00,1.48
9601.00,1.48
9600.00,1.48
9599.00,1.47
9598.00,1.47
9597.00,1.47
9596.00,1.47
9595.00,1.47
9594.00,1.47
9593.00,1.47
9592.00,1.47
9591.00,1.47
9590.00,1.47
9589.00,1.48
9588.00,1.48
9587.00,1.48
9586.00,1.49
9585.00,1.49
9584.00,1.49
9583.00,1.50
9582.00,1.50
9581.00,1.50
9580.00,1.51
9579.00,1.51
9578.00,1.51
9577.00,1.52
9576.00,1.52
9575.00,1.52
9574.00,1.52
9573.00,1.52
9572.00,1.52
9571.00,1.52
9570.00,1.52
9569.00,1.51
9568.00,1.51
9567.00,1.51
9566.00,1.51
9565.00,1.50
9564.00,1.50
9563.00,1.49
9562.00,1.49
9561.00,1.49
9560.00,1.48
9559.00,1.48
9558.00,1.48
9557.00,1.47
9556.00,1.47
9555.00,1.47
9554.00,1.47
9553.00,1.47
9552.00,1.47
9551.00,1.47
9550.00,1.47
9549.00,1.47
9548.00,1.47
9547.00,1.47
9546.00,1.47
9545.00,1.47
9544.00,1.47
9543.00,1.47
9542.00,1.47
9541.00,1.47
9540.00,1.47
9539.00,1.47
9538.00,1.47
9537.00,1.47
9536.00,1.48
9535.00,1.48
9534.00,1.48
9533.00,1.48
9532.00,1.48
9531.00,1.48
9530.00,1.48
9529.00,1.48
9528.00,1.48
9527.00,1.48
9526.00,1.48
9525.00,1.48
9524.00,1.48
9523.00,1.48
9522.00,1.48
9521.00,1.48
9520.00,1.48
9519.00,1.48
9518.00,1.48
9517.00,1.48
9516.00,1.48
9515.00,1.48
9514.00,1.48
9513.00,1.48
9512.00,1.48
9511.00,1.48
9510.00,1.48
9509.00,1.48
9508.00,1.48
9507.00,1.48
9506.00,1.48
9505.00,1.48
9504.00,1.48
9503.00,1.48
9502.00,1.48
9501.00,1.48
9500.00,1.47
9499.00,1.47
9498.00,1.47
9497.00,1.47
9496.00,1.47
9495.00,1.47
9494.00,1.47
9493.00,1.47
9492.00,1.47
9491.00,1.47
9490.00,1.47
9489.00,1.47
9488.00,1.47
9487.00,1.47
9486.00,1.47
9485.00,1.47
9484.00,1.46
9483.00,1.46
9482.00,1.46
9481.00,1.46
9480.00,1.46
9479.00,1.46
9478.00,1.46
9477.00,1.46
9476.00,1.46
9475.00,1.47
9474.00,1.47
9473.00,1.47
9472.00,1.47
9471.00,1.47
9470.00,1.47
9469.00,1.48
9468.00,1.48
9467.00,1.48
9466.00,1.48
9465.00,1.49
9464.00,1.49
9463.00,1.49
9462.00,1.50
9461.00,1.50
9460.00,1.50
9459.00,1.50
9458.00,1.51
9457.00,1.51
9456.00,1.51
9455.00,1.51
9454.00,1.51
9453.00,1.51
9452.00,1.51
9451.00,1.51
9450.00,1.51
9449.00,1.51
9448.00,1.51
9447.00,1.51
9446.00,1.51
9445.00,1.51
9444.00,1.51
9443.00,1.51
9442.00,1.51
9441.00,1.51
9440.00,1.51
9439.00,1.52
9438.00,1.52
9437.00,1.52
9436.00,1.52
9435.00,1.52
9434.00,1.52
9433.00,1.52
9432.00,1.52
9431.00,1.51
9430.00,1.51
9429.00,1.51
9428.00,1.51
9427.00,1.51
9426.00,1.51
9425.00,1.51
9424.00,1.50
9423.00,1.50
9422.00,1.50
9421.00,1.50
9420.00,1.50
9419.00,1.50
9418.00,1.49
9417.00,1.49
9416.00,1.49
9415.00,1.49
9414.00,1.49
9413.00,1.49
9412.00,1.49
9411.00,1.49
9410.00,1.49
9409.00,1.49
9408.00,1.49
9407.00,1.49
9406.00,1.49
9405.00,1.49
9404.00,1.49
9403.00,1.49
9402.00,1.49
9401.00,1.49
9400.00,1.49
9399.00,1.49
9398.00,1.50
9397.00,1.50
9396.00,1.50
9395.00,1.50
9394.00,1.50
9393.00,1.50
9392.00,1.50
9391.00,1.50
9390.00,1.50
9389.00,1.50
9388.00,1.50
9387.00,1.50
9386.00,1.50
9385.00,1.50
9384.00,1.50
9383.00,1.50
9382.00,1.50
9381.00,1.49
9380.00,1.49
9379.00,1.49
9378.00,1.49
9377.00,1.49
9376.00,1.49
9375.00,1.49
9374.00,1.49
9373.00,1.49
9372.00,1.49
9371.00,1.49
9370.00,1.49
9369.00,1.49
9368.00,1.49
9367.00,1.49
9366.00,1.49
9365.00,1.50
9364.00,1.50
9363.00,1.50
9362.00,1.50
9361.00,1.50
9360.00,1.51
9359.00,1.51
9358.00,1.51
9357.00,1.51
9356.00,1.51
9355.00,1.51
9354.00,1.51
9353.00,1.51
9352.00,1.51
9351.00,1.51
9350.00,1.51
9349.00,1.51
9348.00,1.51
9347.00,1.51
9346.00,1.51
9345.00,1.51
9344.00,1.51
9343.00,1.51
9342.00,1.51
9341.00,1.51
9340.00,1.51
9339.00,1.52
9338.00,1.52
9337.00,1.52
9336.00,1.52
9335.00,1.52
9334.00,1.52
9333.00,1.52
9332.00,1.53
9331.00,1.53
9330.00,1.53
9329.00,1.52
9328.00,1.52
9327.00,1.52
9326.00,1.52
9325.00,1.52
9324.00,1.52
9323.00,1.52
9322.00,1.52
9321.00,1.52
9320.00,1.52
9319.00,1.51
9318.00,1.51
9317.00,1.51
9316.00,1.52
9315.00,1.52
9314.00,1.52
9313.00,1.52
9312.00,1.52
9311.00,1.52
9310.00,1.52
9309.00,1.52
9308.00,1.52
9307.00,1.52
9306.00,1.52
9305.00,1.52
9304.00,1.52
9303.00,1.52
9302.00,1.52
9301.00,1.52
9300.00,1.52
9299.00,1.52
9298.00,1.52
9297.00,1.52
9296.00,1.51
9295.00,1.51
9294.00,1.51
9293.00,1.51
9292.00,1.51
9291.00,1.51
9290.00,1.51
9289.00,1.51
9288.00,1.50
9287.00,1.50
9286.00,1.50
9285.00,1.50
9284.00,1.50
9283.00,1.50
9282.00,1.50
9281.00,1.49
9280.00,1.49
9279.00,1.49
9278.00,1.49
9277.00,1.49
9276.00,1.48
9275.00,1.48
9274.00,1.48
9273.00,1.48
9272.00,1.47
9271.00,1.47
9270.00,1.47
9269.00,1.47
9268.00,1.47
9267.00,1.47
9266.00,1.47
9265.00,1.47
9264.00,1.47
9263.00,1.47
9262.00,1.47
9261.00,1.47
9260.00,1.47
9259.00,1.47
9258.00,1.47
9257.00,1.48
9256.00,1.48
9255.00,1.48
9254.00,1.48
9253.00,1.48
9252.00,1.49
9251.00,1.49
9250.00,1.49
9249.00,1.49
9248.00,1.49
9247.00,1.50
9246.00,1.50
9245.00,1.50
9244.00,1.50
9243.00,1.50
9242.00,1.50
9241.00,1.50
9240.00,1.50
9239.00,1.50
9238.00,1.50
9237.00,1.50
9236.00,1.49
9235.00,1.49
9234.00,1.49
9233.00,1.49
9232.00,1.49
9231.00,1.49
9230.00,1.49
9229.00,1.49
9228.00,1.48
9227.00,1.48
9226.00,1.48
9225.00,1.48
9224.00,1.48
9223.00,1.48
9222.00,1.48
9221.00,1.48
9220.00,1.49
9219.00,1.49
9218.00,1.49
9217.00,1.49
9216.00,1.49
9215.00,1.49
9214.00,1.49
9213.00,1.49
9212.00,1.50
9211.00,1.50
9210.00,1.50
9209.00,1.50
9208.00,1.50
9207.00,1.50
9206.00,1.50
9205.00,1.50
9204.00,1.50
9203.00,1.50
9202.00,1.50
9201.00,1.49
9200.00,1.49
9199.00,1.49
9198.00,1.49
9197.00,1.49
9196.00,1.49
9195.00,1.49
9194.00,1.49
9193.00,1.49
9192.00,1.48
9191.00,1.48
9190.00,1.48
9189.00,1.48
9188.00,1.48
9187.00,1.48
9186.00,1.48
9185.00,1.48
9184.00,1.48
9183.00,1.48
9182.00,1.48
9181.00,1.48
9180.00,1.48
9179.00,1.48
9178.00,1.48
9177.00,1.48
9176.00,1.48
9175.00,1.48
9174.00,1.49
9173.00,1.49
9172.00,1.49
9171.00,1.49
9170.00,1.49
9169.00,1.50
9168.00,1.50
9167.00,1.50
9166.00,1.50
9165.00,1.50
9164.00,1.50
9163.00,1.50
9162.00,1.50
9161.00,1.50
9160.00,1.50
9159.00,1.50
9158.00,1.50
9157.00,1.50
9156.00,1.50
9155.00,1.50
9154.00,1.50
9153.00,1.50
9152.00,1.50
9151.00,1.50
9150.00,1.51
9149.00,1.51
9148.00,1.51
9147.00,1.51
9146.00,1.51
9145.00,1.51
9144.00,1.50
9143.00,1.50
9142.00,1.50
9141.00,1.50
9140.00,1.50
9139.00,1.50
9138.00,1.50
9137.00,1.49
9136.00,1.49
9135.00,1.49
9134.00,1.49
9133.00,1.49
9132.00,1.48
9131.00,1.48
9130.00,1.48
9129.00,1.48
9128.00,1.48
9127.00,1.47
9126.00,1.47
9125.00,1.47
9124.00,1.47
9123.00,1.47
9122.00,1.47
9121.00,1.46
9120.00,1.46
9119.00,1.46
9118.00,1.46
9117.00,1.46
9116.00,1.46
9115.00,1.46
9114.00,1.46
9113.00,1.46
9112.00,1.46
9111.00,1.46
9110.00,1.47
9109.00,1.47
9108.00,1.47
9107.00,1.47
9106.00,1.48
9105.00,1.48
9104.00,1.48
9103.00,1.49
9102.00,1.49
9101.00,1.49
9100.00,1.50
9099.00,1.50
9098.00,1.50
9097.00,1.50
9096.00,1.51
9095.00,1.51
9094.00,1.51
9093.00,1.51
9092.00,1.51
9091.00,1.50
9090.00,1.50
9089.00,1.50
9088.00,1.50
9087.00,1.50
9086.00,1.49
9085.00,1.49
9084.00,1.49
9083.00,1.49
9082.00,1.49
9081.00,1.49
9080.00,1.49
9079.00,1.49
9078.00,1.49
9077.00,1.49
9076.00,1.49
9075.00,1.49
9074.00,1.49
9073.00,1.49
9072.00,1.49
9071.00,1.49
9070.00,1.49
9069.00,1.49
9068.00,1.49
9067.00,1.49
9066.00,1.49
9065.00,1.49
9064.00,1.49
9063.00,1.49
9062.00,1.49
9061.00,1.49
9060.00,1.49
9059.00,1.49
9058.00,1.49
9057.00,1.49
9056.00,1.49
9055.00,1.49
9054.00,1.49
9053.00,1.49
9052.00,1.49
9051.00,1.49
9050.00,1.49
9049.00,1.49
9048.00,1.49
9047.00,1.49
9046.00,1.50
9045.00,1.50
9044.00,1.50
9043.00,1.50
9042.00,1.50
9041.00,1.50
9040.00,1.50
9039.00,1.50
9038.00,1.50
9037.00,1.50
9036.00,1.50
9035.00,1.50
9034.00,1.50
9033.00,1.50
9032.00,1.50
9031.00,1.50
9030.00,1.50
9029.00,1.50
9028.00,1.50
9027.00,1.50
9026.00,1.50
9025.00,1.50
9024.00,1.50
9023.00,1.50
9022.00,1.49
9021.00,1.49
9020.00,1.49
9019.00,1.49
9018.00,1.49
9017.00,1.49
9016.00,1.49
9015.00,1.49
9014.00,1.49
9013.00,1.49
9012.00,1.49
9011.00,1.49
9010.00,1.49
9009.00,1.49
9008.00,1.49
9007.00,1.49
9006.00,1.49
9005.00,1.49
9004.00,1.49
9003.00,1.49
9002.00,1.49
9001.00,1.49
9000.00,1.49
8999.00,1.49
8998.00,1.49
8997.00,1.49
8996.00,1.49
8995.00,1.49
8994.00,1.49
8993.00,1.49
8992.00,1.50
8991.00,1.50
8990.00,1.50
8989.00,1.50
8988.00,1.50
8987.00,1.50
8986.00,1.50
8985.00,1.50
8984.00,1.50
8983.00,1.50
8982.00,1.50
8981.00,1.51
8980.00,1.51
8979.00,1.51
8978.00,1.51
8977.00,1.51
8976.00,1.51
8975.00,1.51
8974.00,1.52
8973.00,1.52
8972.00,1.52
8971.00,1.52
8970.00,1.52
8969.00,1.52
8968.00,1.52
8967.00,1.52
8966.00,1.52
8965.00,1.52
8964.00,1.52
8963.00,1.52
8962.00,1.51
8961.00,1.51
8960.00,1.51
8959.00,1.51
8958.00,1.51
8957.00,1.51
8956.00,1.51
8955.00,1.51
8954.00,1.51
8953.00,1.51
8952.00,1.51
8951.00,1.51
8950.00,1.51
8949.00,1.51
8948.00,1.51
8947.00,1.50
8946.00,1.50
8945.00,1.50
8944.00,1.50
8943.00,1.50
8942.00,1.50
8941.00,1.50
8940.00,1.50
8939.00,1.49
8938.00,1.49
8937.00,1.49
8936.00,1.49
8935.00,1.49
8934.00,1.49
8933.00,1.48
8932.00,1.48
8931.00,1.48
8930.00,1.48
8929.00,1.48
8928.00,1.48
8927.00,1.48
8926.00,1.48
8925.00,1.48
8924.00,1.48
8923.00,1.48
8922.00,1.48
8921.00,1.48
8920.00,1.48
8919.00,1.49
8918.00,1.49
8917.00,1.49
8916.00,1.49
8915.00,1.49
8914.00,1.50
8913.00,1.50
8912.00,1.50
8911.00,1.50
8910.00,1.50
8909.00,1.51
8908.00,1.51
8907.00,1.51
8906.00,1.51
8905.00,1.51
8904.00,1.51
8903.00,1.52
8902.00,1.52
8901.00,1.52
8900.00,1.52
8899.00,1.52
8898.00,1.52
8897.00,1.52
8896.00,1.52
8895.00,1.52
8894.00,1.52
8893.00,1.51
8892.00,1.51
8891.00,1.51
8890.00,1.51
8889.00,1.51
8888.00,1.50
8887.00,1.50
8886.00,1.50
8885.00,1.50
8884.00,1.49
8883.00,1.49
8882.00,1.49
8881.00,1.49
8880.00,1.48
8879.00,1.48
8878.00,1.48
8877.00,1.48
8876.00,1.48
8875.00,1.48
8874.00,1.48
8873.00,1.48
8872.00,1.48
8871.00,1.48
8870.00,1.48
8869.00,1.48
8868.00,1.48
8867.00,1.48
8866.00,1.48
8865.00,1.48
8864.00,1.48
8863.00,1.48
8862.00,1.48
8861.00,1.48
8860.00,1.48
8859.00,1.48
8858.00,1.48
8857.00,1.48
8856.00,1.48
8855.00,1.48
8854.00,1.48
8853.00,1.48
8852.00,1.48
8851.00,1.48
8850.00,1.48
8849.00,1.48
8848.00,1.48
8847.00,1.49
8846.00,1.49
8845.00,1.49
8844.00,1.49
8843.00,1.49
8842.00,1.49
8841.00,1.49
8840.00,1.49
8839.00,1.49
8838.00,1.49
8837.00,1.49
8836.00,1.49
8835.00,1.49
8834.00,1.49
8833.00,1.49
8832.00,1.49
8831.00,1.49
8830.00,1.49
8829.00,1.49
8828.00,1.49
8827.00,1.49
8826.00,1.49
8825.00,1.49
8824.00,1.49
8823.00,1.49
8822.00,1.49
8821.00,1.49
8820.00,1.49
8819.00,1.49
8818.00,1.49
8817.00,1.49
8816.00,1.49
8815.00,1.49
8814.00,1.49
8813.00,1.49
8812.00,1.48
8811.00,1.48
8810.00,1.48
8809.00,1.48
8808.00,1.48
8807.00,1.48
8806.00,1.48
8805.00,1.48
8804.00,1.48
8803.00,1.48
8802.00,1.48
8801.00,1.47
8800.00,1.47
8799.00,1.47
8798.00,1.47
8797.00,1.47
8796.00,1.47
8795.00,1.47
8794.00,1.47
8793.00,1.47
8792.00,1.47
8791.00,1.47
8790.00,1.47
8789.00,1.47
8788.00,1.47
8787.00,1.47
8786.00,1.47
8785.00,1.47
8784.00,1.47
8783.00,1.47
8782.00,1.47
8781.00,1.47
8780.00,1.47
8779.00,1.47
8778.00,1.47
8777.00,1.47
8776.00,1.47
8775.00,1.48
8774.00,1.48
8773.00,1.48
8772.00,1.48
8771.00,1.47
8770.00,1.47
8769.00,1.47
8768.00,1.47
8767.00,1.47
8766.00,1.47
8765.00,1.47
8764.00,1.47
8763.00,1.46
8762.00,1.46
8761.00,1.46
8760.00,1.46
8759.00,1.46
8758.00,1.46
8757.00,1.46
8756.00,1.46
8755.00,1.46
8754.00,1.46
8753.00,1.46
8752.00,1.46
8751.00,1.46
8750.00,1.46
8749.00,1.46
8748.00,1.46
8747.00,1.46
8746.00,1.46
8745.00,1.46
8744.00,1.46
8743.00,1.46
8742.00,1.46
8741.00,1.46
8740.00,1.45
8739.00,1.45
8738.00,1.45
8737.00,1.45
8736.00,1.45
8735.00,1.44
8734.00,1.44
8733.00,1.44
8732.00,1.44
8731.00,1.44
8730.00,1.44
8729.00,1.44
8728.00,1.44
8727.00,1.44
8726.00,1.44
8725.00,1.44
8724.00,1.44
8723.00,1.44
8722.00,1.44
8721.00,1.44
8720.00,1.44
8719.00,1.44
8718.00,1.44
8717.00,1.45
8716.00,1.45
8715.00,1.45
8714.00,1.45
8713.00,1.45
8712.00,1.45
8711.00,1.45
8710.00,1.45
8709.00,1.45
8708.00,1.45
8707.00,1.45
8706.00,1.45
8705.00,1.45
8704.00,1.45
8703.00,1.45
8702.00,1.45
8701.00,1.45
8700.00,1.45
8699.00,1.45
8698.00,1.45
8697.00,1.45
8696.00,1.45
8695.00,1.45
8694.00,1.45
8693.00,1.45
8692.00,1.45
8691.00,1.45
8690.00,1.45
8689.00,1.45
8688.00,1.45
8687.00,1.45
8686.00,1.45
8685.00,1.45
8684.00,1.45
8683.00,1.45
8682.00,1.46
8681.00,1.46
8680.00,1.46
8679.00,1.46
8678.00,1.46
8677.00,1.46
8676.00,1.46
8675.00,1.46
8674.00,1.46
8673.00,1.46
8672.00,1.46
8671.00,1.46
8670.00,1.46
8669.00,1.46
8668.00,1.46
8667.00,1.45
8666.00,1.45
8665.00,1.45
8664.00,1.45
8663.00,1.45
8662.00,1.44
8661.00,1.44
8660.00,1.44
8659.00,1.44
8658.00,1.44
8657.00,1.44
8656.00,1.43
8655.00,1.43
8654.00,1.43
8653.00,1.43
8652.00,1.43
8651.00,1.43
8650.00,1.43
8649.00,1.43
8648.00,1.43
8647.00,1.43
8646.00,1.43
8645.00,1.43
8644.00,1.43
8643.00,1.43
8642.00,1.43
8641.00,1.43
8640.00,1.43
8639.00,1.43
8638.00,1.43
8637.00,1.43
8636.00,1.43
8635.00,1.43
8634.00,1.43
8633.00,1.42
8632.00,1.42
8631.00,1.42
8630.00,1.42
8629.00,1.42
8628.00,1.42
8627.00,1.42
8626.00,1.42
8625.00,1.42
8624.00,1.42
8623.00,1.42
8622.00,1.42
8621.00,1.41
8620.00,1.41
8619.00,1.41
8618.00,1.41
8617.00,1.41
8616.00,1.41
8615.00,1.41
8614.00,1.41
8613.00,1.41
8612.00,1.41
8611.00,1.40
8610.00,1.40
8609.00,1.40
8608.00,1.40
8607.00,1.40
8606.00,1.40
8605.00,1.40
8604.00,1.39
8603.00,1.39
8602.00,1.39
8601.00,1.39
8600.00,1.39
8599.00,1.39
8598.00,1.39
8597.00,1.40
8596.00,1.40
8595.00,1.40
8594.00,1.40
8593.00,1.40
8592.00,1.40
8591.00,1.40
8590.00,1.40
8589.00,1.41
8588.00,1.41
8587.00,1.41
8586.00,1.41
8585.00,1.41
8584.00,1.41
8583.00,1.41
8582.00,1.41
8581.00,1.41
8580.00,1.41
8579.00,1.41
8578.00,1.41
8577.00,1.41
8576.00,1.41
8575.00,1.41
8574.00,1.41
8573.00,1.41
8572.00,1.41
8571.00,1.41
8570.00,1.41
8569.00,1.41
8568.00,1.41
8567.00,1.41
8566.00,1.41
8565.00,1.41
8564.00,1.41
8563.00,1.41
8562.00,1.41
8561.00,1.41
8560.00,1.41
8559.00,1.41
8558.00,1.41
8557.00,1.40
8556.00,1.40
8555.00,1.40
8554.00,1.40
8553.00,1.40
8552.00,1.40
8551.00,1.40
8550.00,1.40
8549.00,1.40
8548.00,1.40
8547.00,1.40
8546.00,1.40
8545.00,1.40
8544.00,1.40
8543.00,1.40
8542.00,1.40
8541.00,1.40
8540.00,1.40
8539.00,1.40
8538.00,1.40
8537.00,1.40
8536.00,1.40
8535.00,1.40
8534.00,1.40
8533.00,1.39
8532.00,1.39
8531.00,1.39
8530.00,1.39
8529.00,1.39
8528.00,1.38
8527.00,1.38
8526.00,1.38
8525.00,1.38
8524.00,1.37
8523.00,1.37
8522.00,1.37
8521.00,1.37
8520.00,1.37
8519.00,1.37
8518.00,1.37
8517.00,1.37
8516.00,1.37
8515.00,1.37
8514.00,1.37
8513.00,1.37
8512.00,1.37
8511.00,1.37
8510.00,1.37
8509.00,1.37
8508.00,1.37
8507.00,1.38
8506.00,1.38
8505.00,1.38
8504.00,1.38
8503.00,1.38
8502.00,1.38
8501.00,1.38
8500.00,1.38
8499.00,1.38
8498.00,1.38
8497.00,1.38
8496.00,1.37
8495.00,1.37
8494.00,1.37
8493.00,1.37
8492.00,1.37
8491.00,1.37
8490.00,1.37
8489.00,1.37
8488.00,1.37
8487.00,1.36
8486.00,1.36
8485.00,1.36
8484.00,1.36
8483.00,1.36
8482.00,1.36
8481.00,1.36
8480.00,1.36
8479.00,1.36
8478.00,1.36
8477.00,1.36
8476.00,1.36
8475.00,1.36
8474.00,1.36
8473.00,1.36
8472.00,1.36
8471.00,1.36
8470.00,1.36
8469.00,1.36
8468.00,1.35
8467.00,1.35
8466.00,1.35
8465.00,1.35
8464.00,1.35
8463.00,1.34
8462.00,1.34
8461.00,1.34
8460.00,1.34
8459.00,1.34
8458.00,1.33
8457.00,1.33
8456.00,1.33
8455.00,1.33
8454.00,1.33
8453.00,1.33
8452.00,1.33
8451.00,1.33
8450.00,1.33
8449.00,1.33
8448.00,1.33
8447.00,1.33
8446.00,1.33
8445.00,1.33
8444.00,1.33
8443.00,1.33
8442.00,1.33
8441.00,1.33
8440.00,1.33
8439.00,1.33
8438.00,1.33
8437.00,1.33
8436.00,1.33
8435.00,1.33
8434.00,1.33
8433.00,1.33
8432.00,1.33
8431.00,1.33
8430.00,1.33
8429.00,1.33
8428.00,1.33
8427.00,1.33
8426.00,1.33
8425.00,1.33
8424.00,1.33
8423.00,1.34
8422.00,1.34
8421.00,1.34
8420.00,1.34
8419.00,1.34
8418.00,1.34
8417.00,1.34
8416.00,1.34
8415.00,1.34
8414.00,1.34
8413.00,1.34
8412.00,1.34
8411.00,1.34
8410.00,1.34
8409.00,1.34
8408.00,1.34
8407.00,1.34
8406.00,1.34
8405.00,1.34
8404.00,1.34
8403.00,1.34
8402.00,1.34
8401.00,1.34
8400.00,1.34
8399.00,1.34
8398.00,1.34
8397.00,1.34
8396.00,1.34
8395.00,1.34
8394.00,1.34
8393.00,1.35
8392.00,1.35
8391.00,1.35
8390.00,1.35
8389.00,1.35
8388.00,1.35
8387.00,1.36
8386.00,1.36
8385.00,1.36
8384.00,1.36
8383.00,1.36
8382.00,1.36
8381.00,1.36
8380.00,1.36
8379.00,1.36
8378.00,1.36
8377.00,1.37
8376.00,1.37
8375.00,1.37
8374.00,1.37
8373.00,1.37
8372.00,1.37
8371.00,1.37
8370.00,1.37
8369.00,1.37
8368.00,1.37
8367.00,1.37
8366.00,1.37
8365.00,1.37
8364.00,1.37
8363.00,1.37
8362.00,1.37
8361.00,1.37
8360.00,1.38
8359.00,1.38
8358.00,1.38
8357.00,1.38
8356.00,1.38
8355.00,1.39
8354.00,1.39
8353.00,1.39
8352.00,1.39
8351.00,1.39
8350.00,1.39
8349.00,1.39
8348.00,1.39
8347.00,1.39
8346.00,1.39
8345.00,1.39
8344.00,1.39
8343.00,1.39
8342.00,1.39
8341.00,1.39
8340.00,1.39
8339.00,1.39
8338.00,1.39
8337.00,1.39
8336.00,1.38
8335.00,1.38
8334.00,1.38
8333.00,1.38
8332.00,1.38
8331.00,1.38
8330.00,1.38
8329.00,1.38
8328.00,1.38
8327.00,1.38
8326.00,1.38
8325.00,1.38
8324.00,1.38
8323.00,1.38
8322.00,1.38
8321.00,1.38
8320.00,1.38
8319.00,1.38
8318.00,1.39
8317.00,1.39
8316.00,1.39
8315.00,1.39
8314.00,1.39
8313.00,1.39
8312.00,1.39
8311.00,1.39
8310.00,1.39
8309.00,1.39
8308.00,1.39
8307.00,1.40
8306.00,1.40
8305.00,1.40
8304.00,1.40
8303.00,1.40
8302.00,1.40
8301.00,1.40
8300.00,1.40
8299.00,1.39
8298.00,1.39
8297.00,1.39
8296.00,1.39
8295.00,1.39
8294.00,1.39
8293.00,1.39
8292.00,1.39
8291.00,1.39
8290.00,1.39
8289.00,1.39
8288.00,1.39
8287.00,1.39
8286.00,1.39
8285.00,1.39
8284.00,1.39
8283.00,1.39
8282.00,1.39
8281.00,1.39
8280.00,1.39
8279.00,1.39
8278.00,1.39
8277.00,1.39
8276.00,1.39
8275.00,1.40
8274.00,1.40
8273.00,1.40
8272.00,1.40
8271.00,1.40
8270.00,1.40
8269.00,1.40
8268.00,1.40
8267.00,1.40
8266.00,1.40
8265.00,1.40
8264.00,1.40
8263.00,1.40
8262.00,1.40
8261.00,1.40
8260.00,1.40
8259.00,1.40
8258.00,1.40
8257.00,1.40
8256.00,1.40
8255.00,1.40
8254.00,1.40
8253.00,1.40
8252.00,1.40
8251.00,1.40
8250.00,1.40
8249.00,1.40
8248.00,1.40
8247.00,1.40
8246.00,1.40
8245.00,1.40
8244.00,1.40
8243.00,1.40
8242.00,1.40
8241.00,1.40
8240.00,1.40
8239.00,1.40
8238.00,1.40
8237.00,1.40
8236.00,1.40
8235.00,1.40
8234.00,1.40
8233.00,1.40
8232.00,1.40
8231.00,1.40
8230.00,1.40
8229.00,1.40
8228.00,1.40
8227.00,1.40
8226.00,1.40
8225.00,1.40
8224.00,1.40
8223.00,1.40
8222.00,1.40
8221.00,1.40
8220.00,1.40
8219.00,1.40
8218.00,1.40
8217.00,1.40
8216.00,1.40
8215.00,1.40
8214.00,1.39
8213.00,1.39
8212.00,1.39
8211.00,1.39
8210.00,1.39
8209.00,1.39
8208.00,1.39
8207.00,1.39
8206.00,1.39
8205.00,1.39
8204.00,1.39
8203.00,1.39
8202.00,1.39
8201.00,1.39
8200.00,1.40
8199.00,1.40
8198.00,1.40
8197.00,1.40
8196.00,1.40
8195.00,1.41
8194.00,1.41
8193.00,1.41
8192.00,1.41
8191.00,1.41
8190.00,1.42
8189.00,1.42
8188.00,1.42
8187.00,1.42
8186.00,1.42
8185.00,1.42
8184.00,1.43
8183.00,1.43
8182.00,1.43
8181.00,1.43
8180.00,1.43
8179.00,1.43
8178.00,1.43
8177.00,1.43
8176.00,1.43
8175.00,1.43
8174.00,1.43
8173.00,1.43
8172.00,1.43
8171.00,1.43
8170.00,1.43
8169.00,1.43
8168.00,1.43
8167.00,1.43
8166.00,1.43
8165.00,1.43
8164.00,1.43
8163.00,1.43
8162.00,1.43
8161.00,1.43
8160.00,1.43
8159.00,1.43
8158.00,1.43
8157.00,1.43
8156.00,1.43
8155.00,1.43
8154.00,1.43
8153.00,1.43
8152.00,1.43
8151.00,1.43
8150.00,1.44
8149.00,1.44
8148.00,1.44
8147.00,1.44
8146.00,1.44
8145.00,1.44
8144.00,1.44
8143.00,1.44
8142.00,1.44
8141.00,1.45
8140.00,1.45
8139.00,1.45
8138.00,1.45
8137.00,1.45
8136.00,1.45
8135.00,1.45
8134.00,1.45
8133.00,1.45
8132.00,1.45
8131.00,1.45
8130.00,1.45
8129.00,1.46
8128.00,1.45
8127.00,1.45
8126.00,1.45
8125.00,1.45
8124.00,1.45
8123.00,1.45
8122.00,1.45
8121.00,1.45
8120.00,1.45
8119.00,1.45
8118.00,1.45
8117.00,1.45
8116.00,1.45
8115.00,1.45
8114.00,1.45
8113.00,1.45
8112.00,1.46
8111.00,1.46
8110.00,1.46
8109.00,1.46
8108.00,1.46
8107.00,1.46
8106.00,1.46
8105.00,1.46
8104.00,1.47
8103.00,1.47
8102.00,1.47
8101.00,1.46
8100.00,1.46
8099.00,1.46
8098.00,1.46
8097.00,1.46
8096.00,1.46
8095.00,1.46
8094.00,1.46
8093.00,1.46
8092.00,1.46
8091.00,1.46
8090.00,1.46
8089.00,1.46
8088.00,1.46
8087.00,1.46
8086.00,1.46
8085.00,1.46
8084.00,1.46
8083.00,1.46
8082.00,1.46
8081.00,1.46
8080.00,1.46
8079.00,1.46
8078.00,1.46
8077.00,1.45
8076.00,1.45
8075.00,1.45
8074.00,1.45
8073.00,1.45
8072.00,1.45
8071.00,1.45
8070.00,1.45
8069.00,1.45
8068.00,1.45
8067.00,1.45
8066.00,1.45
8065.00,1.45
8064.00,1.45
8063.00,1.46
8062.00,1.46
8061.00,1.46
8060.00,1.46
8059.00,1.46
8058.00,1.46
8057.00,1.46
8056.00,1.46
8055.00,1.46
8054.00,1.47
8053.00,1.47
8052.00,1.47
8051.00,1.47
8050.00,1.47
8049.00,1.47
8048.00,1.47
8047.00,1.47
8046.00,1.48
8045.00,1.48
8044.00,1.48
8043.00,1.48
8042.00,1.48
8041.00,1.48
8040.00,1.48
8039.00,1.48
8038.00,1.48
8037.00,1.48
8036.00,1.48
8035.00,1.48
8034.00,1.48
8033.00,1.48
8032.00,1.48
8031.00,1.48
8030.00,1.48
8029.00,1.48
8028.00,1.48
8027.00,1.48
8026.00,1.48
8025.00,1.48
8024.00,1.48
8023.00,1.48
8022.00,1.48
8021.00,1.47
8020.00,1.47
8019.00,1.47
8018.00,1.47
8017.00,1.47
8016.00,1.47
8015.00,1.47
8014.00,1.47
8013.00,1.47
8012.00,1.47
8011.00,1.47
8010.00,1.47
8009.00,1.47
8008.00,1.47
8007.00,1.47
8006.00,1.47
8005.00,1.47
8004.00,1.47
8003.00,1.47
8002.00,1.47
8001.00,1.47
8000.00,1.47
7999.00,1.47
7998.00,1.47
7997.00,1.47
7996.00,1.47
7995.00,1.47
7994.00,1.47
7993.00,1.47
7992.00,1.47
7991.00,1.47
7990.00,1.46
7989.00,1.46
7988.00,1.46
7987.00,1.46
7986.00,1.46
7985.00,1.46
7984.00,1.46
7983.00,1.46
7982.00,1.46
7981.00,1.46
7980.00,1.46
7979.00,1.46
7978.00,1.46
7977.00,1.46
7976.00,1.46
7975.00,1.46
7974.00,1.46
7973.00,1.46
7972.00,1.46
7971.00,1.46
7970.00,1.47
7969.00,1.47
7968.00,1.47
7967.00,1.47
7966.00,1.47
7965.00,1.47
7964.00,1.47
7963.00,1.47
7962.00,1.47
7961.00,1.47
7960.00,1.48
7959.00,1.48
7958.00,1.48
7957.00,1.48
7956.00,1.48
7955.00,1.48
7954.00,1.48
7953.00,1.48
7952.00,1.48
7951.00,1.48
7950.00,1.48
7949.00,1.48
7948.00,1.48
7947.00,1.48
7946.00,1.48
7945.00,1.48
7944.00,1.48
7943.00,1.48
7942.00,1.48
7941.00,1.48
7940.00,1.48
7939.00,1.48
7938.00,1.48
7937.00,1.48
7936.00,1.49
7935.00,1.49
7934.00,1.49
7933.00,1.49
7932.00,1.49
7931.00,1.49
7930.00,1.49
7929.00,1.49
7928.00,1.49
7927.00,1.49
7926.00,1.49
7925.00,1.50
7924.00,1.50
7923.00,1.50
7922.00,1.50
7921.00,1.50
7920.00,1.50
7919.00,1.50
7918.00,1.50
7917.00,1.50
7916.00,1.51
7915.00,1.51
7914.00,1.51
7913.00,1.51
7912.00,1.51
7911.00,1.51
7910.00,1.51
7909.00,1.51
7908.00,1.51
7907.00,1.50
7906.00,1.50
7905.00,1.50
7904.00,1.50
7903.00,1.50
7902.00,1.50
7901.00,1.50
7900.00,1.50
7899.00,1.50
7898.00,1.50
7897.00,1.50
7896.00,1.50
7895.00,1.50
7894.00,1.50
7893.00,1.50
7892.00,1.50
7891.00,1.50
7890.00,1.50
7889.00,1.50
7888.00,1.50
7887.00,1.50
7886.00,1.50
7885.00,1.50
7884.00,1.50
7883.00,1.50
7882.00,1.50
7881.00,1.50
7880.00,1.50
7879.00,1.50
7878.00,1.50
7877.00,1.50
7876.00,1.50
7875.00,1.50
7874.00,1.50
7873.00,1.50
7872.00,1.50
7871.00,1.50
7870.00,1.50
7869.00,1.50
7868.00,1.50
7867.00,1.50
7866.00,1.50
7865.00,1.50
7864.00,1.49
7863.00,1.49
7862.00,1.49
7861.00,1.49
7860.00,1.49
7859.00,1.49
7858.00,1.49
7857.00,1.49
7856.00,1.49
7855.00,1.49
7854.00,1.50
7853.00,1.50
7852.00,1.50
7851.00,1.50
7850.00,1.50
7849.00,1.50
7848.00,1.50
7847.00,1.50
7846.00,1.50
7845.00,1.50
7844.00,1.50
7843.00,1.50
7842.00,1.50
7841.00,1.50
7840.00,1.50
7839.00,1.50
7838.00,1.50
7837.00,1.50
7836.00,1.50
7835.00,1.51
7834.00,1.51
7833.00,1.51
7832.00,1.51
7831.00,1.51
7830.00,1.51
7829.00,1.51
7828.00,1.51
7827.00,1.51
7826.00,1.51
7825.00,1.51
7824.00,1.52
7823.00,1.52
7822.00,1.52
7821.00,1.52
7820.00,1.52
7819.00,1.52
7818.00,1.52
7817.00,1.52
7816.00,1.52
7815.00,1.53
7814.00,1.53
7813.00,1.53
7812.00,1.53
7811.00,1.53
7810.00,1.53
7809.00,1.53
7808.00,1.52
7807.00,1.52
7806.00,1.52
7805.00,1.52
7804.00,1.52
7803.00,1.52
7802.00,1.52
7801.00,1.52
7800.00,1.52
7799.00,1.51
7798.00,1.51
7797.00,1.51
7796.00,1.51
7795.00,1.51
7794.00,1.51
7793.00,1.51
7792.00,1.51
7791.00,1.51
7790.00,1.51
7789.00,1.51
7788.00,1.51
7787.00,1.51
7786.00,1.51
7785.00,1.51
7784.00,1.51
7783.00,1.51
7782.00,1.51
7781.00,1.51
7780.00,1.51
7779.00,1.50
7778.00,1.50
7777.00,1.50
7776.00,1.50
7775.00,1.50
7774.00,1.50
7773.00,1.50
7772.00,1.50
7771.00,1.50
7770.00,1.50
7769.00,1.50
7768.00,1.50
7767.00,1.51
7766.00,1.51
7765.00,1.51
7764.00,1.51
7763.00,1.51
7762.00,1.51
7761.00,1.51
7760.00,1.51
7759.00,1.51
7758.00,1.51
7757.00,1.51
7756.00,1.52
7755.00,1.52
7754.00,1.52
7753.00,1.52
7752.00,1.52
7751.00,1.52
7750.00,1.52
7749.00,1.52
7748.00,1.52
7747.00,1.52
7746.00,1.52
7745.00,1.52
7744.00,1.52
7743.00,1.52
7742.00,1.52
7741.00,1.52
7740.00,1.52
7739.00,1.52
7738.00,1.52
7737.00,1.52
7736.00,1.52
7735.00,1.52
7734.00,1.52
7733.00,1.52
7732.00,1.52
7731.00,1.52
7730.00,1.52
7729.00,1.52
7728.00,1.52
7727.00,1.52
7726.00,1.52
7725.00,1.52
7724.00,1.52
7723.00,1.52
7722.00,1.52
7721.00,1.52
7720.00,1.52
7719.00,1.52
7718.00,1.52
7717.00,1.52
7716.00,1.52
7715.00,1.52
7714.00,1.52
7713.00,1.52
7712.00,1.52
7711.00,1.52
7710.00,1.52
7709.00,1.52
7708.00,1.52
7707.00,1.52
7706.00,1.52
7705.00,1.52
7704.00,1.52
7703.00,1.52
7702.00,1.52
7701.00,1.52
7700.00,1.52
7699.00,1.52
7698.00,1.52
7697.00,1.52
7696.00,1.52
7695.00,1.52
7694.00,1.52
7693.00,1.52
7692.00,1.52
7691.00,1.52
7690.00,1.52
7689.00,1.52
7688.00,1.52
7687.00,1.52
7686.00,1.52
7685.00,1.52
7684.00,1.52
7683.00,1.52
7682.00,1.53
7681.00,1.53
7680.00,1.53
7679.00,1.53
7678.00,1.53
7677.00,1.53
7676.00,1.53
7675.00,1.53
7674.00,1.53
7673.00,1.53
7672.00,1.53
7671.00,1.53
7670.00,1.53
7669.00,1.53
7668.00,1.53
7667.00,1.53
7666.00,1.53
7665.00,1.53
7664.00,1.53
7663.00,1.53
7662.00,1.53
7661.00,1.53
7660.00,1.53
7659.00,1.53
7658.00,1.52
7657.00,1.52
7656.00,1.52
7655.00,1.53
7654.00,1.53
7653.00,1.53
7652.00,1.53
7651.00,1.53
7650.00,1.53
7649.00,1.53
7648.00,1.53
7647.00,1.53
7646.00,1.53
7645.00,1.53
7644.00,1.53
7643.00,1.53
7642.00,1.52
7641.00,1.52
7640.00,1.52
7639.00,1.52
7638.00,1.52
7637.00,1.52
7636.00,1.52
7635.00,1.52
7634.00,1.52
7633.00,1.52
7632.00,1.52
7631.00,1.52
7630.00,1.52
7629.00,1.52
7628.00,1.52
7627.00,1.52
7626.00,1.52
7625.00,1.52
7624.00,1.52
7623.00,1.52
7622.00,1.52
7621.00,1.52
7620.00,1.52
7619.00,1.53
7618.00,1.53
7617.00,1.53
7616.00,1.53
7615.00,1.53
7614.00,1.53
7613.00,1.53
7612.00,1.53
7611.00,1.53
7610.00,1.52
7609.00,1.52
7608.00,1.52
7607.00,1.52
7606.00,1.52
7605.00,1.52
7604.00,1.52
7603.00,1.53
7602.00,1.53
7601.00,1.53
7600.00,1.53
7599.00,1.53
7598.00,1.53
7597.00,1.53
7596.00,1.53
7595.00,1.53
7594.00,1.53
7593.00,1.53
7592.00,1.53
7591.00,1.53
7590.00,1.53
7589.00,1.52
7588.00,1.52
7587.00,1.52
7586.00,1.52
7585.00,1.52
7584.00,1.52
7583.00,1.52
7582.00,1.52
7581.00,1.52
7580.00,1.52
7579.00,1.52
7578.00,1.52
7577.00,1.52
7576.00,1.52
7575.00,1.52
7574.00,1.52
7573.00,1.52
7572.00,1.52
7571.00,1.52
7570.00,1.52
7569.00,1.52
7568.00,1.52
7567.00,1.52
7566.00,1.52
7565.00,1.52
7564.00,1.52
7563.00,1.52
7562.00,1.52
7561.00,1.52
7560.00,1.52
7559.00,1.52
7558.00,1.52
7557.00,1.52
7556.00,1.52
7555.00,1.52
7554.00,1.52
7553.00,1.51
7552.00,1.51
7551.00,1.51
7550.00,1.51
7549.00,1.51
7548.00,1.51
7547.00,1.51
7546.00,1.51
7545.00,1.51
7544.00,1.51
7543.00,1.51
7542.00,1.51
7541.00,1.50
7540.00,1.50
7539.00,1.50
7538.00,1.50
7537.00,1.50
7536.00,1.50
7535.00,1.50
7534.00,1.50
7533.00,1.50
7532.00,1.51
7531.00,1.51
7530.00,1.51
7529.00,1.51
7528.00,1.51
7527.00,1.51
7526.00,1.51
7525.00,1.51
7524.00,1.51
7523.00,1.51
7522.00,1.51
7521.00,1.51
7520.00,1.51
7519.00,1.51
7518.00,1.51
7517.00,1.51
7516.00,1.51
7515.00,1.51
7514.00,1.51
7513.00,1.51
7512.00,1.51
7511.00,1.51
7510.00,1.51
7509.00,1.51
7508.00,1.51
7507.00,1.51
7506.00,1.51
7505.00,1.51
7504.00,1.51
7503.00,1.50
7502.00,1.50
7501.00,1.50
7500.00,1.50
7499.00,1.50
7498.00,1.50
7497.00,1.50
7496.00,1.50
7495.00,1.50
7494.00,1.50
7493.00,1.50
7492.00,1.50
7491.00,1.50
7490.00,1.49
7489.00,1.49
7488.00,1.49
7487.00,1.49
7486.00,1.49
7485.00,1.49
7484.00,1.49
7483.00,1.49
7482.00,1.49
7481.00,1.49
7480.00,1.49
7479.00,1.49
7478.00,1.49
7477.00,1.49
7476.00,1.49
7475.00,1.48
7474.00,1.48
7473.00,1.48
7472.00,1.48
7471.00,1.48
7470.00,1.48
7469.00,1.48
7468.00,1.48
7467.00,1.49
7466.00,1.49
7465.00,1.49
7464.00,1.49
7463.00,1.49
7462.00,1.49
7461.00,1.49
7460.00,1.49
7459.00,1.49
7458.00,1.49
7457.00,1.49
7456.00,1.49
7455.00,1.49
7454.00,1.49
7453.00,1.49
7452.00,1.48
7451.00,1.48
7450.00,1.48
7449.00,1.48
7448.00,1.48
7447.00,1.48
7446.00,1.48
7445.00,1.48
7444.00,1.47
7443.00,1.47
7442.00,1.47
7441.00,1.47
7440.00,1.47
7439.00,1.47
7438.00,1.47
7437.00,1.46
7436.00,1.46
7435.00,1.46
7434.00,1.46
7433.00,1.46
7432.00,1.46
7431.00,1.46
7430.00,1.46
7429.00,1.46
7428.00,1.46
7427.00,1.46
7426.00,1.46
7425.00,1.46
7424.00,1.46
7423.00,1.47
7422.00,1.47
7421.00,1.47
7420.00,1.47
7419.00,1.47
7418.00,1.47
7417.00,1.47
7416.00,1.47
7415.00,1.47
7414.00,1.47
7413.00,1.47
7412.00,1.47
7411.00,1.47
7410.00,1.47
7409.00,1.47
7408.00,1.46
7407.00,1.46
7406.00,1.46
7405.00,1.46
7404.00,1.46
7403.00,1.46
7402.00,1.46
7401.00,1.45
7400.00,1.45
7399.00,1.45
7398.00,1.45
7397.00,1.45
7396.00,1.45
7395.00,1.44
7394.00,1.44
7393.00,1.44
7392.00,1.44
7391.00,1.43
7390.00,1.43
7389.00,1.43
7388.00,1.43
7387.00,1.43
7386.00,1.42
7385.00,1.42
7384.00,1.42
7383.00,1.42
7382.00,1.42
7381.00,1.42
7380.00,1.41
7379.00,1.41
7378.00,1.41
7377.00,1.41
7376.00,1.41
7375.00,1.41
7374.00,1.41
7373.00,1.41
7372.00,1.41
7371.00,1.42
7370.00,1.42
7369.00,1.42
7368.00,1.42
7367.00,1.42
7366.00,1.42
7365.00,1.42
7364.00,1.42
7363.00,1.42
7362.00,1.42
7361.00,1.42
7360.00,1.42
7359.00,1.42
7358.00,1.42
7357.00,1.42
7356.00,1.42
7355.00,1.42
7354.00,1.42
7353.00,1.42
7352.00,1.42
7351.00,1.42
7350.00,1.42
7349.00,1.42
7348.00,1.42
7347.00,1.42
7346.00,1.42
7345.00,1.42
7344.00,1.42
7343.00,1.42
7342.00,1.42
7341.00,1.42
7340.00,1.42
7339.00,1.42
7338.00,1.42
7337.00,1.42
7336.00,1.42
7335.00,1.42
7334.00,1.42
7333.00,1.42
7332.00,1.42
7331.00,1.42
7330.00,1.42
7329.00,1.42
7328.00,1.42
7327.00,1.42
7326.00,1.42
7325.00,1.42
7324.00,1.42
7323.00,1.42
7322.00,1.41
7321.00,1.41
7320.00,1.41
7319.00,1.41
7318.00,1.41
7317.00,1.40
7316.00,1.40
7315.00,1.40
7314.00,1.40
7313.00,1.40
7312.00,1.39
7311.00,1.39
7310.00,1.39
7309.00,1.39
7308.00,1.39
7307.00,1.38
7306.00,1.38
7305.00,1.38
7304.00,1.38
7303.00,1.38
7302.00,1.38
7301.00,1.38
7300.00,1.38
7299.00,1.38
7298.00,1.38
7297.00,1.38
7296.00,1.38
7295.00,1.38
7294.00,1.38
7293.00,1.38
7292.00,1.38
7291.00,1.38
7290.00,1.38
7289.00,1.38
7288.00,1.38
7287.00,1.38
7286.00,1.37
7285.00,1.37
7284.00,1.37
7283.00,1.37
7282.00,1.37
7281.00,1.37
7280.00,1.37
7279.00,1.37
7278.00,1.37
7277.00,1.36
7276.00,1.36
7275.00,1.36
7274.00,1.36
7273.00,1.36
7272.00,1.36
7271.00,1.35
7270.00,1.35
7269.00,1.35
7268.00,1.35
7267.00,1.35
7266.00,1.35
7265.00,1.35
7264.00,1.35
7263.00,1.34
7262.00,1.34
7261.00,1.34
7260.00,1.34
7259.00,1.34
7258.00,1.34
7257.00,1.33
7256.00,1.33
7255.00,1.33
7254.00,1.33
7253.00,1.32
7252.00,1.32
7251.00,1.32
7250.00,1.31
7249.00,1.31
7248.00,1.31
7247.00,1.31
7246.00,1.30
7245.00,1.30
7244.00,1.30
7243.00,1.30
7242.00,1.29
7241.00,1.29
7240.00,1.29
7239.00,1.29
7238.00,1.28
7237.00,1.28
7236.00,1.28
7235.00,1.28
7234.00,1.27
7233.00,1.27
7232.00,1.27
7231.00,1.26
7230.00,1.26
7229.00,1.26
7228.00,1.25
7227.00,1.25
7226.00,1.25
7225.00,1.24
7224.00,1.24
7223.00,1.23
7222.00,1.23
7221.00,1.23
7220.00,1.22
7219.00,1.22
7218.00,1.22
7217.00,1.21
7216.00,1.21
7215.00,1.21
7214.00,1.21
7213.00,1.20
7212.00,1.20
7211.00,1.20
7210.00,1.19
7209.00,1.19
7208.00,1.19
7207.00,1.19
7206.00,1.18
7205.00,1.18
7204.00,1.18
7203.00,1.17
7202.00,1.17
7201.00,1.17
7200.00,1.16
7199.00,1.16
7198.00,1.15
7197.00,1.15
7196.00,1.15
7195.00,1.14
7194.00,1.14
7193.00,1.14
7192.00,1.13
7191.00,1.13
7190.00,1.12
7189.00,1.12
7188.00,1.12
7187.00,1.11
7186.00,1.11
7185.00,1.10
7184.00,1.10
7183.00,1.10
7182.00,1.09
7181.00,1.09
7180.00,1.09
7179.00,1.08
7178.00,1.08
7177.00,1.08
7176.00,1.07
7175.00,1.07
7174.00,1.07
7173.00,1.07
7172.00,1.06
7171.00,1.06
7170.00,1.06
7169.00,1.06
7168.00,1.05
7167.00,1.05
7166.00,1.05
7165.00,1.05
7164.00,1.04
7163.00,1.04
7162.00,1.04
7161.00,1.03
7160.00,1.03
7159.00,1.03
7158.00,1.02
7157.00,1.02
7156.00,1.02
7155.00,1.02
7154.00,1.01
7153.00,1.01
7152.00,1.01
7151.00,1.01
7150.00,1.00
7149.00,1.00
7148.00,1.00
7147.00,1.00
7146.00,0.99
7145.00,0.99
7144.00,0.99
7143.00,0.98
7142.00,0.98
7141.00,0.98
7140.00,0.98
7139.00,0.97
7138.00,0.97
7137.00,0.97
7136.00,0.96
7135.00,0.96
7134.00,0.96
7133.00,0.95
7132.00,0.95
7131.00,0.95
7130.00,0.94
7129.00,0.94
7128.00,0.94
7127.00,0.93
7126.00,0.93
7125.00,0.92
7124.00,0.92
7123.00,0.92
7122.00,0.91
7121.00,0.91
7120.00,0.91
7119.00,0.90
7118.00,0.90
7117.00,0.90
7116.00,0.89
7115.00,0.89
7114.00,0.89
7113.00,0.88
7112.00,0.88
7111.00,0.88
7110.00,0.87
7109.00,0.87
7108.00,0.87
7107.00,0.86
7106.00,0.86
7105.00,0.86
7104.00,0.85
7103.00,0.85
7102.00,0.85
7101.00,0.85
7100.00,0.84
7099.00,0.84
7098.00,0.84
7097.00,0.84
7096.00,0.84
7095.00,0.84
7094.00,0.83
7093.00,0.83
7092.00,0.83
7091.00,0.83
7090.00,0.83
7089.00,0.82
7088.00,0.82
7087.00,0.82
7086.00,0.82
7085.00,0.82
7084.00,0.82
7083.00,0.81
7082.00,0.81
7081.00,0.81
7080.00,0.81
7079.00,0.81
7078.00,0.81
7077.00,0.81
7076.00,0.80
7075.00,0.80
7074.00,0.80
7073.00,0.80
7072.00,0.80
7071.00,0.80
7070.00,0.79
7069.00,0.79
7068.00,0.79
7067.00,0.79
7066.00,0.79
7065.00,0.79
7064.00,0.78
7063.00,0.78
7062.00,0.78
7061.00,0.78
7060.00,0.78
7059.00,0.77
7058.00,0.77
7057.00,0.77
7056.00,0.77
7055.00,0.76
7054.00,0.76
7053.00,0.76
7052.00,0.76
7051.00,0.76
7050.00,0.75
7049.00,0.75
7048.00,0.75
7047.00,0.75
7046.00,0.75
7045.00,0.75
7044.00,0.74
7043.00,0.74
7042.00,0.74
7041.00,0.74
7040.00,0.74
7039.00,0.74
7038.00,0.74
7037.00,0.73
7036.00,0.73
7035.00,0.73
7034.00,0.73
7033.00,0.73
7032.00,0.72
7031.00,0.72
7030.00,0.72
7029.00,0.72
7028.00,0.72
7027.00,0.71
7026.00,0.71
7025.00,0.71
7024.00,0.71
7023.00,0.70
7022.00,0.70
7021.00,0.70
7020.00,0.70
7019.00,0.70
7018.00,0.69
7017.00,0.69
7016.00,0.69
7015.00,0.69
7014.00,0.69
7013.00,0.69
7012.00,0.68
7011.00,0.68
7010.00,0.68
7009.00,0.68
7008.00,0.68
7007.00,0.68
7006.00,0.68
7005.00,0.68
7004.00,0.68
7003.00,0.68
7002.00,0.68
7001.00,0.68
7000.00,0.68
6999.00,0.68
6998.00,0.68
6997.00,0.68
6996.00,0.69
6995.00,0.69
6994.00,0.69
6993.00,0.69
6992.00,0.69
6991.00,0.69
6990.00,0.68
6989.00,0.68
6988.00,0.68
6987.00,0.68
6986.00,0.68
6985.00,0.68
6984.00,0.68
6983.00,0.68
6982.00,0.68
6981.00,0.68
6980.00,0.68
6979.00,0.68
6978.00,0.68
6977.00,0.68
6976.00,0.68
6975.00,0.68
6974.00,0.68
6973.00,0.67
6972.00,0.67
6971.00,0.67
6970.00,0.67
6969.00,0.67
6968.00,0.67
6967.00,0.67
6966.00,0.67
6965.00,0.67
6964.00,0.67
6963.00,0.67
6962.00,0.67
6961.00,0.67
6960.00,0.66
6959.00,0.66
6958.00,0.66
6957.00,0.66
6956.00,0.66
6955.00,0.66
6954.00,0.66
6953.00,0.66
6952.00,0.66
6951.00,0.66
6950.00,0.66
6949.00,0.66
6948.00,0.65
6947.00,0.65
6946.00,0.65
6945.00,0.65
6944.00,0.65
6943.00,0.65
6942.00,0.65
6941.00,0.65
6940.00,0.65
6939.00,0.65
6938.00,0.65
6937.00,0.65
6936.00,0.65
6935.00,0.65
6934.00,0.65
6933.00,0.65
6932.00,0.64
6931.00,0.64
6930.00,0.64
6929.00,0.64
6928.00,0.64
6927.00,0.64
6926.00,0.64
6925.00,0.64
6924.00,0.64
6923.00,0.64
6922.00,0.64
6921.00,0.64
6920.00,0.64
6919.00,0.64
6918.00,0.64
6917.00,0.64
6916.00,0.64
6915.00,0.64
6914.00,0.64
6913.00,0.64
6912.00,0.64
6911.00,0.64
6910.00,0.64
6909.00,0.64
6908.00,0.64
6907.00,0.64
6906.00,0.64
6905.00,0.64
6904.00,0.64
6903.00,0.64
6902.00,0.64
6901.00,0.64
6900.00,0.64
6899.00,0.64
6898.00,0.64
6897.00,0.64
6896.00,0.64
6895.00,0.64
6894.00,0.64
6893.00,0.64
6892.00,0.64
6891.00,0.64
6890.00,0.63
6889.00,0.63
6888.00,0.63
6887.00,0.63
6886.00,0.63
6885.00,0.63
6884.00,0.63
6883.00,0.63
6882.00,0.63
6881.00,0.63
6880.00,0.63
6879.00,0.63
6878.00,0.63
6877.00,0.63
6876.00,0.63
6875.00,0.63
6874.00,0.63
6873.00,0.63
6872.00,0.63
6871.00,0.64
6870.00,0.64
6869.00,0.64
6868.00,0.64
6867.00,0.64
6866.00,0.64
6865.00,0.64
6864.00,0.64
6863.00,0.64
6862.00,0.64
6861.00,0.63
6860.00,0.63
6859.00,0.63
6858.00,0.63
6857.00,0.63
6856.00,0.63
6855.00,0.63
6854.00,0.63
6853.00,0.63
6852.00,0.63
6851.00,0.63
6850.00,0.63
6849.00,0.63
6848.00,0.62
6847.00,0.62
6846.00,0.62
6845.00,0.62
6844.00,0.62
6843.00,0.62
6842.00,0.62
6841.00,0.62
6840.00,0.62
6839.00,0.62
6838.00,0.62
6837.00,0.62
6836.00,0.62
6835.00,0.62
6834.00,0.62
6833.00,0.63
6832.00,0.63
6831.00,0.63
6830.00,0.63
6829.00,0.63
6828.00,0.63
6827.00,0.63
6826.00,0.63
6825.00,0.64
6824.00,0.64
6823.00,0.64
6822.00,0.64
6821.00,0.64
6820.00,0.64
6819.00,0.64
6818.00,0.64
6817.00,0.65
6816.00,0.65
6815.00,0.65
6814.00,0.65
6813.00,0.65
6812.00,0.65
6811.00,0.65
6810.00,0.65
6809.00,0.65
6808.00,0.65
6807.00,0.65
6806.00,0.65
6805.00,0.65
6804.00,0.65
6803.00,0.65
6802.00,0.65
6801.00,0.65
6800.00,0.65
6799.00,0.65
6798.00,0.65
6797.00,0.65
6796.00,0.65
6795.00,0.66
6794.00,0.66
6793.00,0.66
6792.00,0.66
6791.00,0.66
6790.00,0.66
6789.00,0.66
6788.00,0.66
6787.00,0.66
6786.00,0.67
6785.00,0.67
6784.00,0.67
6783.00,0.67
6782.00,0.67
6781.00,0.67
6780.00,0.67
6779.00,0.67
6778.00,0.67
6777.00,0.67
6776.00,0.67
6775.00,0.67
6774.00,0.67
6773.00,0.67
6772.00,0.67
6771.00,0.67
6770.00,0.67
6769.00,0.67
6768.00,0.67
6767.00,0.68
6766.00,0.68
6765.00,0.68
6764.00,0.68
6763.00,0.68
6762.00,0.68
6761.00,0.68
6760.00,0.68
6759.00,0.68
6758.00,0.68
6757.00,0.68
6756.00,0.68
6755.00,0.68
6754.00,0.68
6753.00,0.68
6752.00,0.68
6751.00,0.68
6750.00,0.68
6749.00,0.68
6748.00,0.68
6747.00,0.68
6746.00,0.68
6745.00,0.68
6744.00,0.68
6743.00,0.68
6742.00,0.68
6741.00,0.68
6740.00,0.68
6739.00,0.68
6738.00,0.69
6737.00,0.69
6736.00,0.69
6735.00,0.69
6734.00,0.69
6733.00,0.69
6732.00,0.69
6731.00,0.69
6730.00,0.69
6729.00,0.69
6728.00,0.70
6727.00,0.70
6726.00,0.70
6725.00,0.70
6724.00,0.70
6723.00,0.70
6722.00,0.70
6721.00,0.70
6720.00,0.70
6719.00,0.70
6718.00,0.70
6717.00,0.71
6716.00,0.71
6715.00,0.71
6714.00,0.71
6713.00,0.71
6712.00,0.71
6711.00,0.71
6710.00,0.71
6709.00,0.72
6708.00,0.72
6707.00,0.72
6706.00,0.72
6705.00,0.72
6704.00,0.72
6703.00,0.72
6702.00,0.73
6701.00,0.73
6700.00,0.73
6699.00,0.73
6698.00,0.73
6697.00,0.73
6696.00,0.73
6695.00,0.73
6694.00,0.73
6693.00,0.73
6692.00,0.74
6691.00,0.74
6690.00,0.74
6689.00,0.74
6688.00,0.74
6687.00,0.74
6686.00,0.74
6685.00,0.74
6684.00,0.74
6683.00,0.75
6682.00,0.75
6681.00,0.75
6680.00,0.75
6679.00,0.75
6678.00,0.75
6677.00,0.75
6676.00,0.75
6675.00,0.75
6674.00,0.76
6673.00,0.76
6672.00,0.76
6671.00,0.76
6670.00,0.76
6669.00,0.76
6668.00,0.76
6667.00,0.76
6666.00,0.76
6665.00,0.76
6664.00,0.76
6663.00,0.76
6662.00,0.77
6661.00,0.77
6660.00,0.77
6659.00,0.77
6658.00,0.77
6657.00,0.77
6656.00,0.77
6655.00,0.77
6654.00,0.77
6653.00,0.77
6652.00,0.77
6651.00,0.78
6650.00,0.78
6649.00,0.78
6648.00,0.78
6647.00,0.78
6646.00,0.78
6645.00,0.78
6644.00,0.78
6643.00,0.78
6642.00,0.78
6641.00,0.79
6640.00,0.79
6639.00,0.79
6638.00,0.79
6637.00,0.79
6636.00,0.79
6635.00,0.79
6634.00,0.79
6633.00,0.79
6632.00,0.79
6631.00,0.79
6630.00,0.79
6629.00,0.80
6628.00,0.80
6627.00,0.80
6626.00,0.80
6625.00,0.80
6624.00,0.80
6623.00,0.80
6622.00,0.80
6621.00,0.80
6620.00,0.81
6619.00,0.81
6618.00,0.81
6617.00,0.81
6616.00,0.81
6615.00,0.81
6614.00,0.81
6613.00,0.82
6612.00,0.82
6611.00,0.82
6610.00,0.82
6609.00,0.82
6608.00,0.82
6607.00,0.83
6606.00,0.83
6605.00,0.83
6604.00,0.83
6603.00,0.83
6602.00,0.84
6601.00,0.84
6600.00,0.84
6599.00,0.84
6598.00,0.84
6597.00,0.84
6596.00,0.84
6595.00,0.84
6594.00,0.85
6593.00,0.85
6592.00,0.85
6591.00,0.85
6590.00,0.85
6589.00,0.85
6588.00,0.85
6587.00,0.85
6586.00,0.85
6585.00,0.85
6584.00,0.85
6583.00,0.85
6582.00,0.85
6581.00,0.85
6580.00,0.85
6579.00,0.85
6578.00,0.85
6577.00,0.85
6576.00,0.85
6575.00,0.85
6574.00,0.86
6573.00,0.86
6572.00,0.86
6571.00,0.86
6570.00,0.86
6569.00,0.86
6568.00,0.86
6567.00,0.86
6566.00,0.86
6565.00,0.87
6564.00,0.87
6563.00,0.87
6562.00,0.87
6561.00,0.87
6560.00,0.87
6559.00,0.87
6558.00,0.88
6557.00,0.88
6556.00,0.88
6555.00,0.88
6554.00,0.88
6553.00,0.88
6552.00,0.88
6551.00,0.88
6550.00,0.88
6549.00,0.88
6548.00,0.88
6547.00,0.88
6546.00,0.89
6545.00,0.89
6544.00,0.89
6543.00,0.89
6542.00,0.89
6541.00,0.89
6540.00,0.89
6539.00,0.89
6538.00,0.89
6537.00,0.89
6536.00,0.89
6535.00,0.89
6534.00,0.89
6533.00,0.89
6532.00,0.89
6531.00,0.90
6530.00,0.90
6529.00,0.90
6528.00,0.90
6527.00,0.90
6526.00,0.90
6525.00,0.90
6524.00,0.90
6523.00,0.91
6522.00,0.91
6521.00,0.91
6520.00,0.91
6519.00,0.91
6518.00,0.91
6517.00,0.91
6516.00,0.91
6515.00,0.91
6514.00,0.91
6513.00,0.92
6512.00,0.92
6511.00,0.92
6510.00,0.92
6509.00,0.92
6508.00,0.92
6507.00,0.92
6506.00,0.92
6505.00,0.92
6504.00,0.92
6503.00,0.92
6502.00,0.93
6501.00,0.93
6500.00,0.93
6499.00,0.93
6498.00,0.93
6497.00,0.93
6496.00,0.93
6495.00,0.93
6494.00,0.93
6493.00,0.93
6492.00,0.93
6491.00,0.94
6490.00,0.94
6489.00,0.94
6488.00,0.94
6487.00,0.94
6486.00,0.94
6485.00,0.94
6484.00,0.94
6483.00,0.94
6482.00,0.94
6481.00,0.94
6480.00,0.94
6479.00,0.94
6478.00,0.94
6477.00,0.94
6476.00,0.94
6475.00,0.94
6474.00,0.94
6473.00,0.94
6472.00,0.94
6471.00,0.94
6470.00,0.94
6469.00,0.95
6468.00,0.95
6467.00,0.95
6466.00,0.95
6465.00,0.95
6464.00,0.95
6463.00,0.95
6462.00,0.95
6461.00,0.95
6460.00,0.95
6459.00,0.95
6458.00,0.95
6457.00,0.95
6456.00,0.95
6455.00,0.96
6454.00,0.96
6453.00,0.96
6452.00,0.96
6451.00,0.96
6450.00,0.96
6449.00,0.96
6448.00,0.96
6447.00,0.96
6446.00,0.96
6445.00,0.96
6444.00,0.97
6443.00,0.97
6442.00,0.97
6441.00,0.97
6440.00,0.97
6439.00,0.97
6438.00,0.97
6437.00,0.97
6436.00,0.97
6435.00,0.97
6434.00,0.97
6433.00,0.97
6432.00,0.97
6431.00,0.97
6430.00,0.98
6429.00,0.98
6428.00,0.98
6427.00,0.98
6426.00,0.98
6425.00,0.98
6424.00,0.98
6423.00,0.98
6422.00,0.98
6421.00,0.98
6420.00,0.99
6419.00,0.99
6418.00,0.99
6417.00,0.99
6416.00,0.99
6415.00,0.99
6414.00,0.99
6413.00,0.99
6412.00,0.99
6411.00,0.99
6410.00,0.99
6409.00,0.99
6408.00,0.99
6407.00,0.99
6406.00,0.99
6405.00,0.99
6404.00,0.99
6403.00,0.99
6402.00,0.99
6401.00,0.99
6400.00,0.99
6399.00,0.99
6398.00,0.99
6397.00,0.99
6396.00,0.99
6395.00,0.99
6394.00,0.99
6393.00,0.99
6392.00,0.99
6391.00,0.99
6390.00,1.00
6389.00,1.00
6388.00,1.00
6387.00,1.00
6386.00,1.00
6385.00,1.00
6384.00,1.00
6383.00,1.00
6382.00,1.01
6381.00,1.01
6380.00,1.01
6379.00,1.01
6378.00,1.01
6377.00,1.01
6376.00,1.01
6375.00,1.01
6374.00,1.01
6373.00,1.01
6372.00,1.01
6371.00,1.01
6370.00,1.01
6369.00,1.01
6368.00,1.01
6367.00,1.01
6366.00,1.01
6365.00,1.01
6364.00,1.01
6363.00,1.01
6362.00,1.01
6361.00,1.01
6360.00,1.01
6359.00,1.01
6358.00,1.01
6357.00,1.02
6356.00,1.02
6355.00,1.02
6354.00,1.02
6353.00,1.02
6352.00,1.02
6351.00,1.02
6350.00,1.02
6349.00,1.03
6348.00,1.03
6347.00,1.03
6346.00,1.03
6345.00,1.03
6344.00,1.03
6343.00,1.03
6342.00,1.04
6341.00,1.04
6340.00,1.04
6339.00,1.04
6338.00,1.04
6337.00,1.04
6336.00,1.04
6335.00,1.04
6334.00,1.04
6333.00,1.04
6332.00,1.05
6331.00,1.05
6330.00,1.05
6329.00,1.05
6328.00,1.05
6327.00,1.05
6326.00,1.05
6325.00,1.05
6324.00,1.05
6323.00,1.05
6322.00,1.05
6321.00,1.05
6320.00,1.06
6319.00,1.06
6318.00,1.06
6317.00,1.06
6316.00,1.06
6315.00,1.06
6314.00,1.06
6313.00,1.06
6312.00,1.06
6311.00,1.06
6310.00,1.06
6309.00,1.06
6308.00,1.07
6307.00,1.07
6306.00,1.07
6305.00,1.07
6304.00,1.07
6303.00,1.07
6302.00,1.07
6301.00,1.07
6300.00,1.07
6299.00,1.08
6298.00,1.08
6297.00,1.08
6296.00,1.08
6295.00,1.08
6294.00,1.08
6293.00,1.09
6292.00,1.09
6291.00,1.09
6290.00,1.09
6289.00,1.09
6288.00,1.10
6287.00,1.10
6286.00,1.10
6285.00,1.10
6284.00,1.10
6283.00,1.11
6282.00,1.11
6281.00,1.11
6280.00,1.11
6279.00,1.11
6278.00,1.11
6277.00,1.12
6276.00,1.12
6275.00,1.12
6274.00,1.12
6273.00,1.12
6272.00,1.12
6271.00,1.12
6270.00,1.13
6269.00,1.13
6268.00,1.13
6267.00,1.13
6266.00,1.13
6265.00,1.13
6264.00,1.13
6263.00,1.13
6262.00,1.13
6261.00,1.13
6260.00,1.13
6259.00,1.13
6258.00,1.13
6257.00,1.13
6256.00,1.14
6255.00,1.14
6254.00,1.14
6253.00,1.14
6252.00,1.14
6251.00,1.14
6250.00,1.14
6249.00,1.14
6248.00,1.14
6247.00,1.14
6246.00,1.14
6245.00,1.14
6244.00,1.14
6243.00,1.15
6242.00,1.15
6241.00,1.15
6240.00,1.15
6239.00,1.15
6238.00,1.15
6237.00,1.16
6236.00,1.16
6235.00,1.16
6234.00,1.16
6233.00,1.16
6232.00,1.17
6231.00,1.17
6230.00,1.17
6229.00,1.17
6228.00,1.17
6227.00,1.17
6226.00,1.18
6225.00,1.18
6224.00,1.18
6223.00,1.18
6222.00,1.18
6221.00,1.18
6220.00,1.19
6219.00,1.19
6218.00,1.19
6217.00,1.19
6216.00,1.19
6215.00,1.19
6214.00,1.19
6213.00,1.19
6212.00,1.20
6211.00,1.20
6210.00,1.20
6209.00,1.20
6208.00,1.20
6207.00,1.20
6206.00,1.20
6205.00,1.21
6204.00,1.21
6203.00,1.21
6202.00,1.21
6201.00,1.21
6200.00,1.21
6199.00,1.22
6198.00,1.22
6197.00,1.22
6196.00,1.22
6195.00,1.22
6194.00,1.23
6193.00,1.23
6192.00,1.23
6191.00,1.23
6190.00,1.23
6189.00,1.23
6188.00,1.24
6187.00,1.24
6186.00,1.24
6185.00,1.24
6184.00,1.24
6183.00,1.24
6182.00,1.24
6181.00,1.24
6180.00,1.24
6179.00,1.24
6178.00,1.25
6177.00,1.25
6176.00,1.25
6175.00,1.25
6174.00,1.25
6173.00,1.25
6172.00,1.25
6171.00,1.25
6170.00,1.26
6169.00,1.26
6168.00,1.26
6167.00,1.26
6166.00,1.26
6165.00,1.26
6164.00,1.26
6163.00,1.27
6162.00,1.27
6161.00,1.27
6160.00,1.27
6159.00,1.27
6158.00,1.27
6157.00,1.27
6156.00,1.27
6155.00,1.27
6154.00,1.27
6153.00,1.27
6152.00,1.28
6151.00,1.28
6150.00,1.28
6149.00,1.28
6148.00,1.28
6147.00,1.28
6146.00,1.28
6145.00,1.28
6144.00,1.29
6143.00,1.29
6142.00,1.29
6141.00,1.29
6140.00,1.29
6139.00,1.30
6138.00,1.30
6137.00,1.30
6136.00,1.30
6135.00,1.30
6134.00,1.31
6133.00,1.31
6132.00,1.31
6131.00,1.31
6130.00,1.31
6129.00,1.31
6128.00,1.32
6127.00,1.32
6126.00,1.32
6125.00,1.32
6124.00,1.32
6123.00,1.32
6122.00,1.32
6121.00,1.33
6120.00,1.33
6119.00,1.33
6118.00,1.33
6117.00,1.33
6116.00,1.33
6115.00,1.33
6114.00,1.33
6113.00,1.33
6112.00,1.34
6111.00,1.34
6110.00,1.34
6109.00,1.34
6108.00,1.34
6107.00,1.34
6106.00,1.35
6105.00,1.35
6104.00,1.35
6103.00,1.35
6102.00,1.35
6101.00,1.36
6100.00,1.36
6099.00,1.36
6098.00,1.36
6097.00,1.36
6096.00,1.37
6095.00,1.37
6094.00,1.37
6093.00,1.37
6092.00,1.37
6091.00,1.37
6090.00,1.38
6089.00,1.38
6088.00,1.38
6087.00,1.38
6086.00,1.38
6085.00,1.38
6084.00,1.38
6083.00,1.38
6082.00,1.38
6081.00,1.38
6080.00,1.38
6079.00,1.38
6078.00,1.38
6077.00,1.38
6076.00,1.38
6075.00,1.38
6074.00,1.38
6073.00,1.38
6072.00,1.39
6071.00,1.39
6070.00,1.39
6069.00,1.39
6068.00,1.39
6067.00,1.39
6066.00,1.39
6065.00,1.39
6064.00,1.39
6063.00,1.39
6062.00,1.39
6061.00,1.39
6060.00,1.40
6059.00,1.40
6058.00,1.40
6057.00,1.40
6056.00,1.40
6055.00,1.40
6054.00,1.40
6053.00,1.40
6052.00,1.40
6051.00,1.41
6050.00,1.41
6049.00,1.41
6048.00,1.41
6047.00,1.41
6046.00,1.41
6045.00,1.41
6044.00,1.41
6043.00,1.41
6042.00,1.42
6041.00,1.42
6040.00,1.42
6039.00,1.42
6038.00,1.42
6037.00,1.42
6036.00,1.42
6035.00,1.42
6034.00,1.42
6033.00,1.42
6032.00,1.42
6031.00,1.42
6030.00,1.42
6029.00,1.43
6028.00,1.43
6027.00,1.43
6026.00,1.43
6025.00,1.43
6024.00,1.43
6023.00,1.43
6022.00,1.43
6021.00,1.43
6020.00,1.43
6019.00,1.43
6018.00,1.43
6017.00,1.43
6016.00,1.43
6015.00,1.43
6014.00,1.43
6013.00,1.43
6012.00,1.43
6011.00,1.43
6010.00,1.43
6009.00,1.43
6008.00,1.43
6007.00,1.43
6006.00,1.43
6005.00,1.43
6004.00,1.43
6003.00,1.43
6002.00,1.43
6001.00,1.43
6000.00,1.43
5999.00,1.43
5998.00,1.43
5997.00,1.43
5996.00,1.42
5995.00,1.42
5994.00,1.42
5993.00,1.42
5992.00,1.42
5991.00,1.42
5990.00,1.41
5989.00,1.41
5988.00,1.41
5987.00,1.41
5986.00,1.40
5985.00,1.40
5984.00,1.40
5983.00,1.40
5982.00,1.39
5981.00,1.39
5980.00,1.39
5979.00,1.38
5978.00,1.38
5977.00,1.37
5976.00,1.37
5975.00,1.37
5974.00,1.36
5973.00,1.36
5972.00,1.35
5971.00,1.35
5970.00,1.34
5969.00,1.33
5968.00,1.33
5967.00,1.32
5966.00,1.31
5965.00,1.31
5964.00,1.30
5963.00,1.29
5962.00,1.28
5961.00,1.27
5960.00,1.27
5959.00,1.26
5958.00,1.25
5957.00,1.24
5956.00,1.23
5955.00,1.23
5954.00,1.22
5953.00,1.21
5952.00,1.20
5951.00,1.20
5950.00,1.19
5949.00,1.18
5948.00,1.18
5947.00,1.17
5946.00,1.17
5945.00,1.16
5944.00,1.16
5943.00,1.15
5942.00,1.15
5941.00,1.15
5940.00,1.14
5939.00,1.14
5938.00,1.14
5937.00,1.14
5936.00,1.14
5935.00,1.14
5934.00,1.14
5933.00,1.14
5932.00,1.14
5931.00,1.14
5930.00,1.14
5929.00,1.14
5928.00,1.14
5927.00,1.14
5926.00,1.14
5925.00,1.14
5924.00,1.13
5923.00,1.13
5922.00,1.13
5921.00,1.13
5920.00,1.13
5919.00,1.13
5918.00,1.12
5917.00,1.12
5916.00,1.12
5915.00,1.12
5914.00,1.11
5913.00,1.11
5912.00,1.11
5911.00,1.10
5910.00,1.10
5909.00,1.10
5908.00,1.10
5907.00,1.09
5906.00,1.09
5905.00,1.09
5904.00,1.09
5903.00,1.09
5902.00,1.09
5901.00,1.09
5900.00,1.09
5899.00,1.09
5898.00,1.09
5897.00,1.09
5896.00,1.09
5895.00,1.09
5894.00,1.09
5893.00,1.10
5892.00,1.10
5891.00,1.10
5890.00,1.10
5889.00,1.11
5888.00,1.11
5887.00,1.11
5886.00,1.12
5885.00,1.12
5884.00,1.12
5883.00,1.13
5882.00,1.13
5881.00,1.13
5880.00,1.14
5879.00,1.14
5878.00,1.14
5877.00,1.14
5876.00,1.15
5875.00,1.15
5874.00,1.15
5873.00,1.16
5872.00,1.16
5871.00,1.16
5870.00,1.16
5869.00,1.17
5868.00,1.17
5867.00,1.17
5866.00,1.17
5865.00,1.17
5864.00,1.18
5863.00,1.18
5862.00,1.18
5861.00,1.18
5860.00,1.18
5859.00,1.18
5858.00,1.18
5857.00,1.18
5856.00,1.18
5855.00,1.18
5854.00,1.18
5853.00,1.18
5852.00,1.19
5851.00,1.19
5850.00,1.19
5849.00,1.19
5848.00,1.19
5847.00,1.19
5846.00,1.19
5845.00,1.19
5844.00,1.19
5843.00,1.19
5842.00,1.19
5841.00,1.19
5840.00,1.19
5839.00,1.19
5838.00,1.19
5837.00,1.19
5836.00,1.19
5835.00,1.19
5834.00,1.19
5833.00,1.19
5832.00,1.19
5831.00,1.19
5830.00,1.19
5829.00,1.19
5828.00,1.19
5827.00,1.19
5826.00,1.19
5825.00,1.19
5824.00,1.19
5823.00,1.19
5822.00,1.19
5821.00,1.19
5820.00,1.19
5819.00,1.20
5818.00,1.20
5817.00,1.20
5816.00,1.20
5815.00,1.20
5814.00,1.20
5813.00,1.20
5812.00,1.20
5811.00,1.20
5810.00,1.20
5809.00,1.20
5808.00,1.20
5807.00,1.20
5806.00,1.20
5805.00,1.20
5804.00,1.20
5803.00,1.20
5802.00,1.19
5801.00,1.19
5800.00,1.19
5799.00,1.19
5798.00,1.19
5797.00,1.18
5796.00,1.18
5795.00,1.18
5794.00,1.17
5793.00,1.17
5792.00,1.17
5791.00,1.17
5790.00,1.16
5789.00,1.16
5788.00,1.16
5787.00,1.15
5786.00,1.15
5785.00,1.15
5784.00,1.15
5783.00,1.14
5782.00,1.14
5781.00,1.14
5780.00,1.14
5779.00,1.14
5778.00,1.13
5777.00,1.13
5776.00,1.13
5775.00,1.13
5774.00,1.13
5773.00,1.13
5772.00,1.13
5771.00,1.13
5770.00,1.13
5769.00,1.13
5768.00,1.13
5767.00,1.13
5766.00,1.14
5765.00,1.14
5764.00,1.14
5763.00,1.14
5762.00,1.14
5761.00,1.15
5760.00,1.15
5759.00,1.15
5758.00,1.16
5757.00,1.16
5756.00,1.16
5755.00,1.17
5754.00,1.17
5753.00,1.18
5752.00,1.18
5751.00,1.18
5750.00,1.19
5749.00,1.19
5748.00,1.20
5747.00,1.20
5746.00,1.20
5745.00,1.21
5744.00,1.21
5743.00,1.21
5742.00,1.22
5741.00,1.22
5740.00,1.22
5739.00,1.23
5738.00,1.23
5737.00,1.23
5736.00,1.23
5735.00,1.23
5734.00,1.24
5733.00,1.24
5732.00,1.24
5731.00,1.24
5730.00,1.24
5729.00,1.25
5728.00,1.25
5727.00,1.25
5726.00,1.25
5725.00,1.25
5724.00,1.25
5723.00,1.25
5722.00,1.25
5721.00,1.26
5720.00,1.26
5719.00,1.26
5718.00,1.26
5717.00,1.26
5716.00,1.26
5715.00,1.26
5714.00,1.25
5713.00,1.25
5712.00,1.25
5711.00,1.25
5710.00,1.25
5709.00,1.25
5708.00,1.25
5707.00,1.25
5706.00,1.25
5705.00,1.24
5704.00,1.24
5703.00,1.24
5702.00,1.24
5701.00,1.24
5700.00,1.24
5699.00,1.24
5698.00,1.24
5697.00,1.24
5696.00,1.24
5695.00,1.24
5694.00,1.24
5693.00,1.23
5692.00,1.23
5691.00,1.23
5690.00,1.23
5689.00,1.23
5688.00,1.23
5687.00,1.23
5686.00,1.23
5685.00,1.23
5684.00,1.22
5683.00,1.22
5682.00,1.22
5681.00,1.22
5680.00,1.22
5679.00,1.22
5678.00,1.22
5677.00,1.22
5676.00,1.22
5675.00,1.22
5674.00,1.22
5673.00,1.21
5672.00,1.21
5671.00,1.21
5670.00,1.21
5669.00,1.21
5668.00,1.21
5667.00,1.21
5666.00,1.21
5665.00,1.22
5664.00,1.22
5663.00,1.22
5662.00,1.22
5661.00,1.22
5660.00,1.22
5659.00,1.22
5658.00,1.22
5657.00,1.23
5656.00,1.23
5655.00,1.23
5654.00,1.23
5653.00,1.23
5652.00,1.24
5651.00,1.24
5650.00,1.24
5649.00,1.24
5648.00,1.24
5647.00,1.25
5646.00,1.25
5645.00,1.25
5644.00,1.25
5643.00,1.26
5642.00,1.26
5641.00,1.26
5640.00,1.26
5639.00,1.27
5638.00,1.27
5637.00,1.27
5636.00,1.27
5635.00,1.27
5634.00,1.28
5633.00,1.28
5632.00,1.28
5631.00,1.28
5630.00,1.28
5629.00,1.28
5628.00,1.29
5627.00,1.29
5626.00,1.29
5625.00,1.29
5624.00,1.29
5623.00,1.29
5622.00,1.29
5621.00,1.30
5620.00,1.30
5619.00,1.30
5618.00,1.30
5617.00,1.30
5616.00,1.30
5615.00,1.31
5614.00,1.31
5613.00,1.31
5612.00,1.31
5611.00,1.31
5610.00,1.32
5609.00,1.32
5608.00,1.32
5607.00,1.32
5606.00,1.32
5605.00,1.33
5604.00,1.33
5603.00,1.33
5602.00,1.33
5601.00,1.33
5600.00,1.33
5599.00,1.34
5598.00,1.34
5597.00,1.34
5596.00,1.34
5595.00,1.34
5594.00,1.34
5593.00,1.35
5592.00,1.35
5591.00,1.35
5590.00,1.35
5589.00,1.35
5588.00,1.35
5587.00,1.35
5586.00,1.36
5585.00,1.36
5584.00,1.36
5583.00,1.36
5582.00,1.36
5581.00,1.36
5580.00,1.36
5579.00,1.36
5578.00,1.36
5577.00,1.37
5576.00,1.37
5575.00,1.37
5574.00,1.37
5573.00,1.37
5572.00,1.37
5571.00,1.37
5570.00,1.38
5569.00,1.38
5568.00,1.38
5567.00,1.38
5566.00,1.38
5565.00,1.38
5564.00,1.39
5563.00,1.39
5562.00,1.39
5561.00,1.39
5560.00,1.39
5559.00,1.40
5558.00,1.40
5557.00,1.40
5556.00,1.40
5555.00,1.40
5554.00,1.41
5553.00,1.41
5552.00,1.41
5551.00,1.41
5550.00,1.41
5549.00,1.41
5548.00,1.42
5547.00,1.42
5546.00,1.42
5545.00,1.42
5544.00,1.42
5543.00,1.42
5542.00,1.42
5541.00,1.43
5540.00,1.43
5539.00,1.43
5538.00,1.43
5537.00,1.43
5536.00,1.43
5535.00,1.43
5534.00,1.43
5533.00,1.43
5532.00,1.43
5531.00,1.44
5530.00,1.44
5529.00,1.44
5528.00,1.44
5527.00,1.44
5526.00,1.44
5525.00,1.44
5524.00,1.44
5523.00,1.45
5522.00,1.45
5521.00,1.45
5520.00,1.45
5519.00,1.45
5518.00,1.45
5517.00,1.45
5516.00,1.45
5515.00,1.45
5514.00,1.45
5513.00,1.45
5512.00,1.45
5511.00,1.46
5510.00,1.46
5509.00,1.46
5508.00,1.46
5507.00,1.46
5506.00,1.46
5505.00,1.46
5504.00,1.46
5503.00,1.46
5502.00,1.46
5501.00,1.46
5500.00,1.46
5499.00,1.46
5498.00,1.46
5497.00,1.46
5496.00,1.46
5495.00,1.46
5494.00,1.46
5493.00,1.46
5492.00,1.46
5491.00,1.47
5490.00,1.47
5489.00,1.47
5488.00,1.47
5487.00,1.47
5486.00,1.47
5485.00,1.47
5484.00,1.47
5483.00,1.48
5482.00,1.48
5481.00,1.48
5480.00,1.48
5479.00,1.48
5478.00,1.48
5477.00,1.49
5476.00,1.49
5475.00,1.49
5474.00,1.49
5473.00,1.49
5472.00,1.49
5471.00,1.50
5470.00,1.50
5469.00,1.50
5468.00,1.50
5467.00,1.50
5466.00,1.51
5465.00,1.51
5464.00,1.51
5463.00,1.51
5462.00,1.51
5461.00,1.51
5460.00,1.51
5459.00,1.51
5458.00,1.51
5457.00,1.52
5456.00,1.52
5455.00,1.52
5454.00,1.52
5453.00,1.52
5452.00,1.52
5451.00,1.52
5450.00,1.52
5449.00,1.52
5448.00,1.52
5447.00,1.52
5446.00,1.52
5445.00,1.52
5444.00,1.52
5443.00,1.52
5442.00,1.52
5441.00,1.52
5440.00,1.52
5439.00,1.52
5438.00,1.52
5437.00,1.52
5436.00,1.52
5435.00,1.52
5434.00,1.52
5433.00,1.52
5432.00,1.52
5431.00,1.52
5430.00,1.52
5429.00,1.52
5428.00,1.53
5427.00,1.53
5426.00,1.53
5425.00,1.53
5424.00,1.53
5423.00,1.53
5422.00,1.53
5421.00,1.53
5420.00,1.53
5419.00,1.53
5418.00,1.53
5417.00,1.53
5416.00,1.53
5415.00,1.53
5414.00,1.53
5413.00,1.53
5412.00,1.52
5411.00,1.52
5410.00,1.52
5409.00,1.52
5408.00,1.52
5407.00,1.52
5406.00,1.52
5405.00,1.52
5404.00,1.52
5403.00,1.52
5402.00,1.52
5401.00,1.52
5400.00,1.52
5399.00,1.52
5398.00,1.52
5397.00,1.52
5396.00,1.52
5395.00,1.52
5394.00,1.52
5393.00,1.52
5392.00,1.52
5391.00,1.52
5390.00,1.52
5389.00,1.52
5388.00,1.52
5387.00,1.52
5386.00,1.52
5385.00,1.51
5384.00,1.51
5383.00,1.51
5382.00,1.50
5381.00,1.50
5380.00,1.50
5379.00,1.49
5378.00,1.49
5377.00,1.48
5376.00,1.48
5375.00,1.48
5374.00,1.47
5373.00,1.47
5372.00,1.46
5371.00,1.46
5370.00,1.45
5369.00,1.45
5368.00,1.44
5367.00,1.44
5366.00,1.43
5365.00,1.43
5364.00,1.42
5363.00,1.42
5362.00,1.41
5361.00,1.40
5360.00,1.40
5359.00,1.39
5358.00,1.38
5357.00,1.38
5356.00,1.37
5355.00,1.36
5354.00,1.35
5353.00,1.34
5352.00,1.33
5351.00,1.32
5350.00,1.31
5349.00,1.30
5348.00,1.29
5347.00,1.28
5346.00,1.27
5345.00,1.26
5344.00,1.25
5343.00,1.24
5342.00,1.23
5341.00,1.22
5340.00,1.21
5339.00,1.19
5338.00,1.18
5337.00,1.17
5336.00,1.16
5335.00,1.15
5334.00,1.13
5333.00,1.12
5332.00,1.11
5331.00,1.10
5330.00,1.08
5329.00,1.07
5328.00,1.06
5327.00,1.05
5326.00,1.03
5325.00,1.02
5324.00,1.01
5323.00,1.00
5322.00,0.98
5321.00,0.97
5320.00,0.96
5319.00,0.95
5318.00,0.93
5317.00,0.92
5316.00,0.91
5315.00,0.90
5314.00,0.89
5313.00,0.88
5312.00,0.87
5311.00,0.85
5310.00,0.84
5309.00,0.83
5308.00,0.82
5307.00,0.82
5306.00,0.81
5305.00,0.80
5304.00,0.79
5303.00,0.78
5302.00,0.77
5301.00,0.77
5300.00,0.76
5299.00,0.75
5298.00,0.75
5297.00,0.74
5296.00,0.74
5295.00,0.73
5294.00,0.73
5293.00,0.72
5292.00,0.72
5291.00,0.71
5290.00,0.71
5289.00,0.71
5288.00,0.70
5287.00,0.70
5286.00,0.70
5285.00,0.69
5284.00,0.69
5283.00,0.69
5282.00,0.69
5281.00,0.69
5280.00,0.68
5279.00,0.68
5278.00,0.68
5277.00,0.68
5276.00,0.68
5275.00,0.67
5274.00,0.67
5273.00,0.67
5272.00,0.67
5271.00,0.67
5270.00,0.67
5269.00,0.67
5268.00,0.66
5267.00,0.66
5266.00,0.66
5265.00,0.66
5264.00,0.66
5263.00,0.66
5262.00,0.66
5261.00,0.66
5260.00,0.66
5259.00,0.66
5258.00,0.66
5257.00,0.66
5256.00,0.66
5255.00,0.66
5254.00,0.66
5253.00,0.66
5252.00,0.66
5251.00,0.66
5250.00,0.66
5249.00,0.66
5248.00,0.66
5247.00,0.66
5246.00,0.66
5245.00,0.66
5244.00,0.66
5243.00,0.66
5242.00,0.66
5241.00,0.66
5240.00,0.66
5239.00,0.66
5238.00,0.66
5237.00,0.66
5236.00,0.66
5235.00,0.66
5234.00,0.66
5233.00,0.66
5232.00,0.66
5231.00,0.66
5230.00,0.66
5229.00,0.66
5228.00,0.66
5227.00,0.66
5226.00,0.66
5225.00,0.66
5224.00,0.66
5223.00,0.66
5222.00,0.66
5221.00,0.66
5220.00,0.66
5219.00,0.66
5218.00,0.66
5217.00,0.66
5216.00,0.66
5215.00,0.66
5214.00,0.66
5213.00,0.66
5212.00,0.66
5211.00,0.66
5210.00,0.66
5209.00,0.66
5208.00,0.66
5207.00,0.67
5206.00,0.67
5205.00,0.67
5204.00,0.67
5203.00,0.67
5202.00,0.67
5201.00,0.67
5200.00,0.67
5199.00,0.67
5198.00,0.67
5197.00,0.67
5196.00,0.67
5195.00,0.67
5194.00,0.67
5193.00,0.67
5192.00,0.67
5191.00,0.67
5190.00,0.67
5189.00,0.67
5188.00,0.67
5187.00,0.67
5186.00,0.67
5185.00,0.67
5184.00,0.67
5183.00,0.67
5182.00,0.67
5181.00,0.67
5180.00,0.67
5179.00,0.68
5178.00,0.68
5177.00,0.68
5176.00,0.68
5175.00,0.68
5174.00,0.68
5173.00,0.68
5172.00,0.68
5171.00,0.68
5170.00,0.68
5169.00,0.68
5168.00,0.68
5167.00,0.68
5166.00,0.68
5165.00,0.68
5164.00,0.68
5163.00,0.68
5162.00,0.68
5161.00,0.68
5160.00,0.68
5159.00,0.68
5158.00,0.68
5157.00,0.68
5156.00,0.68
5155.00,0.69
5154.00,0.69
5153.00,0.69
5152.00,0.69
5151.00,0.69
5150.00,0.69
5149.00,0.69
5148.00,0.69
5147.00,0.70
5146.00,0.70
5145.00,0.70
5144.00,0.70
5143.00,0.70
5142.00,0.70
5141.00,0.70
5140.00,0.70
5139.00,0.70
5138.00,0.70
5137.00,0.70
5136.00,0.70
5135.00,0.70
5134.00,0.70
5133.00,0.70
5132.00,0.70
5131.00,0.70
5130.00,0.70
5129.00,0.70
5128.00,0.70
5127.00,0.70
5126.00,0.70
5125.00,0.70
5124.00,0.71
5123.00,0.71
5122.00,0.71
5121.00,0.71
5120.00,0.71
5119.00,0.71
5118.00,0.71
5117.00,0.71
5116.00,0.71
5115.00,0.71
5114.00,0.71
5113.00,0.72
5112.00,0.72
5111.00,0.72
5110.00,0.72
5109.00,0.72
5108.00,0.72
5107.00,0.72
5106.00,0.72
5105.00,0.72
5104.00,0.72
5103.00,0.72
5102.00,0.72
5101.00,0.72
5100.00,0.72
5099.00,0.72
5098.00,0.72
5097.00,0.72
5096.00,0.72
5095.00,0.72
5094.00,0.72
5093.00,0.72
5092.00,0.72
5091.00,0.72
5090.00,0.72
5089.00,0.72
5088.00,0.72
5087.00,0.72
5086.00,0.72
5085.00,0.72
5084.00,0.73
5083.00,0.73
5082.00,0.73
5081.00,0.73
5080.00,0.73
5079.00,0.73
5078.00,0.73
5077.00,0.73
5076.00,0.73
5075.00,0.73
5074.00,0.73
5073.00,0.74
5072.00,0.74
5071.00,0.74
5070.00,0.74
5069.00,0.74
5068.00,0.74
5067.00,0.74
5066.00,0.74
5065.00,0.74
5064.00,0.74
5063.00,0.74
5062.00,0.74
5061.00,0.74
5060.00,0.74
5059.00,0.74
5058.00,0.74
5057.00,0.74
5056.00,0.74
5055.00,0.74
5054.00,0.74
5053.00,0.75
5052.00,0.75
5051.00,0.75
5050.00,0.75
5049.00,0.75
5048.00,0.75
5047.00,0.75
5046.00,0.75
5045.00,0.75
5044.00,0.76
5043.00,0.76
5042.00,0.76
5041.00,0.76
5040.00,0.76
5039.00,0.76
5038.00,0.77
5037.00,0.77
5036.00,0.77
5035.00,0.77
5034.00,0.77
5033.00,0.77
5032.00,0.77
5031.00,0.77
5030.00,0.77
5029.00,0.77
5028.00,0.78
5027.00,0.78
5026.00,0.78
5025.00,0.78
5024.00,0.78
5023.00,0.78
5022.00,0.78
5021.00,0.78
5020.00,0.78
5019.00,0.78
5018.00,0.78
5017.00,0.78
5016.00,0.78
5015.00,0.78
5014.00,0.78
5013.00,0.79
5012.00,0.79
5011.00,0.79
5010.00,0.79
5009.00,0.79
5008.00,0.79
5007.00,0.79
5006.00,0.79
5005.00,0.80
5004.00,0.80
5003.00,0.80
5002.00,0.80
5001.00,0.80
5000.00,0.80
4999.00,0.80
4998.00,0.80
4997.00,0.80
4996.00,0.80
4995.00,0.80
4994.00,0.80
4993.00,0.80
4992.00,0.81
4991.00,0.81
4990.00,0.81
4989.00,0.81
4988.00,0.81
4987.00,0.81
4986.00,0.81
4985.00,0.82
4984.00,0.82
4983.00,0.82
4982.00,0.82
4981.00,0.82
4980.00,0.83
4979.00,0.83
4978.00,0.83
4977.00,0.83
4976.00,0.84
4975.00,0.84
4974.00,0.84
4973.00,0.84
4972.00,0.84
4971.00,0.84
4970.00,0.85
4969.00,0.85
4968.00,0.85
4967.00,0.85
4966.00,0.85
4965.00,0.85
4964.00,0.85
4963.00,0.85
4962.00,0.85
4961.00,0.85
4960.00,0.85
4959.00,0.85
4958.00,0.85
4957.00,0.85
4956.00,0.85
4955.00,0.85
4954.00,0.85
4953.00,0.85
4952.00,0.85
4951.00,0.85
4950.00,0.86
4949.00,0.86
4948.00,0.86
4947.00,0.86
4946.00,0.86
4945.00,0.86
4944.00,0.86
4943.00,0.86
4942.00,0.86
4941.00,0.86
4940.00,0.86
4939.00,0.86
4938.00,0.87
4937.00,0.87
4936.00,0.87
4935.00,0.87
4934.00,0.87
4933.00,0.87
4932.00,0.87
4931.00,0.87
4930.00,0.88
4929.00,0.88
4928.00,0.88
4927.00,0.88
4926.00,0.88
4925.00,0.88
4924.00,0.88
4923.00,0.88
4922.00,0.88
4921.00,0.89
4920.00,0.89
4919.00,0.89
4918.00,0.89
4917.00,0.89
4916.00,0.89
4915.00,0.89
4914.00,0.89
4913.00,0.89
4912.00,0.90
4911.00,0.90
4910.00,0.90
4909.00,0.90
4908.00,0.90
4907.00,0.90
4906.00,0.90
4905.00,0.90
4904.00,0.90
4903.00,0.90
4902.00,0.90
4901.00,0.90
4900.00,0.90
4899.00,0.90
4898.00,0.90
4897.00,0.91
4896.00,0.91
4895.00,0.91
4894.00,0.91
4893.00,0.91
4892.00,0.91
4891.00,0.91
4890.00,0.91
4889.00,0.91
4888.00,0.91
4887.00,0.91
4886.00,0.91
4885.00,0.91
4884.00,0.92
4883.00,0.92
4882.00,0.92
4881.00,0.92
4880.00,0.92
4879.00,0.92
4878.00,0.92
4877.00,0.92
4876.00,0.92
4875.00,0.93
4874.00,0.93
4873.00,0.93
4872.00,0.93
4871.00,0.93
4870.00,0.93
4869.00,0.93
4868.00,0.93
4867.00,0.93
4866.00,0.93
4865.00,0.93
4864.00,0.93
4863.00,0.93
4862.00,0.93
4861.00,0.93
4860.00,0.93
4859.00,0.93
4858.00,0.93
4857.00,0.94
4856.00,0.94
4855.00,0.94
4854.00,0.94
4853.00,0.94
4852.00,0.94
4851.00,0.94
4850.00,0.95
4849.00,0.95
4848.00,0.95
4847.00,0.95
4846.00,0.95
4845.00,0.95
4844.00,0.95
4843.00,0.95
4842.00,0.95
4841.00,0.95
4840.00,0.96
4839.00,0.96
4838.00,0.96
4837.00,0.96
4836.00,0.96
4835.00,0.96
4834.00,0.96
4833.00,0.96
4832.00,0.96
4831.00,0.96
4830.00,0.96
4829.00,0.97
4828.00,0.97
4827.00,0.97
4826.00,0.97
4825.00,0.97
4824.00,0.97
4823.00,0.97
4822.00,0.97
4821.00,0.98
4820.00,0.98
4819.00,0.98
4818.00,0.98
4817.00,0.98
4816.00,0.98
4815.00,0.98
4814.00,0.98
4813.00,0.98
4812.00,0.99
4811.00,0.99
4810.00,0.99
4809.00,0.99
4808.00,0.99
4807.00,0.99
4806.00,0.99
4805.00,0.99
4804.00,0.99
4803.00,0.99
4802.00,0.99
4801.00,0.99
4800.00,1.00
4799.00,1.00
4798.00,1.00
4797.00,1.00
4796.00,1.00
4795.00,1.00
4794.00,1.00
4793.00,1.01
4792.00,1.01
4791.00,1.01
4790.00,1.01
4789.00,1.02
4788.00,1.02
4787.00,1.02
4786.00,1.02
4785.00,1.03
4784.00,1.03
4783.00,1.03
4782.00,1.03
4781.00,1.04
4780.00,1.04
4779.00,1.04
4778.00,1.04
4777.00,1.05
4776.00,1.05
4775.00,1.05
4774.00,1.05
4773.00,1.06
4772.00,1.06
4771.00,1.06
4770.00,1.06
4769.00,1.06
4768.00,1.07
4767.00,1.07
4766.00,1.07
4765.00,1.07
4764.00,1.07
4763.00,1.07
4762.00,1.08
4761.00,1.08
4760.00,1.08
4759.00,1.08
4758.00,1.08
4757.00,1.08
4756.00,1.09
4755.00,1.09
4754.00,1.09
4753.00,1.09
4752.00,1.09
4751.00,1.09
4750.00,1.10
4749.00,1.10
4748.00,1.10
4747.00,1.10
4746.00,1.10
4745.00,1.10
4744.00,1.11
4743.00,1.11
4742.00,1.11
4741.00,1.11
4740.00,1.11
4739.00,1.11
4738.00,1.12
4737.00,1.12
4736.00,1.12
4735.00,1.12
4734.00,1.12
4733.00,1.12
4732.00,1.13
4731.00,1.13
4730.00,1.13
4729.00,1.13
4728.00,1.13
4727.00,1.13
4726.00,1.13
4725.00,1.14
4724.00,1.14
4723.00,1.14
4722.00,1.14
4721.00,1.15
4720.00,1.15
4719.00,1.15
4718.00,1.15
4717.00,1.16
4716.00,1.16
4715.00,1.16
4714.00,1.17
4713.00,1.17
4712.00,1.17
4711.00,1.18
4710.00,1.18
4709.00,1.18
4708.00,1.19
4707.00,1.19
4706.00,1.19
4705.00,1.19
4704.00,1.20
4703.00,1.20
4702.00,1.20
4701.00,1.21
4700.00,1.21
4699.00,1.21
4698.00,1.21
4697.00,1.22
4696.00,1.22
4695.00,1.22
4694.00,1.23
4693.00,1.23
4692.00,1.23
4691.00,1.23
4690.00,1.23
4689.00,1.24
4688.00,1.24
4687.00,1.24
4686.00,1.24
4685.00,1.24
4684.00,1.25
4683.00,1.25
4682.00,1.25
4681.00,1.25
4680.00,1.25
4679.00,1.26
4678.00,1.26
4677.00,1.26
4676.00,1.26
4675.00,1.26
4674.00,1.27
4673.00,1.27
4672.00,1.27
4671.00,1.28
4670.00,1.28
4669.00,1.28
4668.00,1.28
4667.00,1.29
4666.00,1.29
4665.00,1.29
4664.00,1.29
4663.00,1.30
4662.00,1.30
4661.00,1.30
4660.00,1.30
4659.00,1.30
4658.00,1.31
4657.00,1.31
4656.00,1.31
4655.00,1.31
4654.00,1.31
4653.00,1.31
4652.00,1.32
4651.00,1.32
4650.00,1.32
4649.00,1.32
4648.00,1.32
4647.00,1.32
4646.00,1.32
4645.00,1.32
4644.00,1.32
4643.00,1.33
4642.00,1.33
4641.00,1.33
4640.00,1.33
4639.00,1.33
4638.00,1.33
4637.00,1.33
4636.00,1.33
4635.00,1.33
4634.00,1.34
4633.00,1.34
4632.00,1.34
4631.00,1.34
4630.00,1.34
4629.00,1.34
4628.00,1.35
4627.00,1.35
4626.00,1.35
4625.00,1.35
4624.00,1.35
4623.00,1.36
4622.00,1.36
4621.00,1.36
4620.00,1.36
4619.00,1.36
4618.00,1.36
4617.00,1.36
4616.00,1.36
4615.00,1.36
4614.00,1.36
4613.00,1.36
4612.00,1.36
4611.00,1.36
4610.00,1.36
4609.00,1.36
4608.00,1.36
4607.00,1.36
4606.00,1.37
4605.00,1.37
4604.00,1.37
4603.00,1.37
4602.00,1.37
4601.00,1.37
4600.00,1.38
4599.00,1.38
4598.00,1.38
4597.00,1.38
4596.00,1.39
4595.00,1.39
4594.00,1.39
4593.00,1.39
4592.00,1.40
4591.00,1.40
4590.00,1.40
4589.00,1.40
4588.00,1.40
4587.00,1.40
4586.00,1.41
4585.00,1.41
4584.00,1.41
4583.00,1.41
4582.00,1.41
4581.00,1.41
4580.00,1.41
4579.00,1.41
4578.00,1.42
4577.00,1.42
4576.00,1.42
4575.00,1.42
4574.00,1.42
4573.00,1.42
4572.00,1.43
4571.00,1.43
4570.00,1.43
4569.00,1.43
4568.00,1.43
4567.00,1.43
4566.00,1.44
4565.00,1.44
4564.00,1.44
4563.00,1.44
4562.00,1.44
4561.00,1.44
4560.00,1.44
4559.00,1.45
4558.00,1.45
4557.00,1.45
4556.00,1.45
4555.00,1.45
4554.00,1.45
4553.00,1.45
4552.00,1.45
4551.00,1.45
4550.00,1.45
4549.00,1.45
4548.00,1.45
4547.00,1.45
4546.00,1.45
4545.00,1.45
4544.00,1.45
4543.00,1.45
4542.00,1.45
4541.00,1.46
4540.00,1.46
4539.00,1.46
4538.00,1.46
4537.00,1.46
4536.00,1.46
4535.00,1.46
4534.00,1.46
4533.00,1.46
4532.00,1.46
4531.00,1.46
4530.00,1.47
4529.00,1.47
4528.00,1.47
4527.00,1.47
4526.00,1.47
4525.00,1.47
4524.00,1.47
4523.00,1.47
4522.00,1.47
4521.00,1.47
4520.00,1.47
4519.00,1.48
4518.00,1.48
4517.00,1.48
4516.00,1.48
4515.00,1.48
4514.00,1.48
4513.00,1.48
4512.00,1.47
4511.00,1.47
4510.00,1.47
4509.00,1.47
4508.00,1.47
4507.00,1.47
4506.00,1.47
4505.00,1.47
4504.00,1.47
4503.00,1.47
4502.00,1.47
4501.00,1.47
4500.00,1.46
4499.00,1.46
4498.00,1.46
4497.00,1.46
4496.00,1.46
4495.00,1.46
4494.00,1.46
4493.00,1.46
4492.00,1.46
4491.00,1.45
4490.00,1.45
4489.00,1.45
4488.00,1.45
4487.00,1.45
4486.00,1.45
4485.00,1.45
4484.00,1.44
4483.00,1.44
4482.00,1.44
4481.00,1.44
4480.00,1.44
4479.00,1.44
4478.00,1.43
4477.00,1.43
4476.00,1.43
4475.00,1.43
4474.00,1.42
4473.00,1.42
4472.00,1.42
4471.00,1.42
4470.00,1.41
4469.00,1.41
4468.00,1.41
4467.00,1.40
4466.00,1.40
4465.00,1.40
4464.00,1.39
4463.00,1.39
4462.00,1.38
4461.00,1.38
4460.00,1.37
4459.00,1.37
4458.00,1.36
4457.00,1.36
4456.00,1.35
4455.00,1.35
4454.00,1.34
4453.00,1.33
4452.00,1.32
4451.00,1.32
4450.00,1.31
4449.00,1.30
4448.00,1.30
4447.00,1.29
4446.00,1.28
4445.00,1.28
4444.00,1.27
4443.00,1.26
4442.00,1.26
4441.00,1.25
4440.00,1.24
4439.00,1.24
4438.00,1.23
4437.00,1.22
4436.00,1.22
4435.00,1.21
4434.00,1.21
4433.00,1.20
4432.00,1.20
4431.00,1.19
4430.00,1.19
4429.00,1.18
4428.00,1.18
4427.00,1.18
4426.00,1.17
4425.00,1.17
4424.00,1.17
4423.00,1.17
4422.00,1.17
4421.00,1.16
4420.00,1.16
4419.00,1.16
4418.00,1.16
4417.00,1.16
4416.00,1.16
4415.00,1.16
4414.00,1.17
4413.00,1.17
4412.00,1.17
4411.00,1.17
4410.00,1.17
4409.00,1.17
4408.00,1.17
4407.00,1.17
4406.00,1.17
4405.00,1.18
4404.00,1.18
4403.00,1.18
4402.00,1.18
4401.00,1.18
4400.00,1.18
4399.00,1.18
4398.00,1.18
4397.00,1.18
4396.00,1.18
4395.00,1.18
4394.00,1.18
4393.00,1.18
4392.00,1.18
4391.00,1.19
4390.00,1.19
4389.00,1.19
4388.00,1.19
4387.00,1.19
4386.00,1.19
4385.00,1.19
4384.00,1.19
4383.00,1.20
4382.00,1.20
4381.00,1.20
4380.00,1.20
4379.00,1.20
4378.00,1.21
4377.00,1.21
4376.00,1.21
4375.00,1.21
4374.00,1.22
4373.00,1.22
4372.00,1.22
4371.00,1.22
4370.00,1.22
4369.00,1.23
4368.00,1.23
4367.00,1.23
4366.00,1.23
4365.00,1.23
4364.00,1.23
4363.00,1.23
4362.00,1.23
4361.00,1.23
4360.00,1.23
4359.00,1.22
4358.00,1.22
4357.00,1.22
4356.00,1.22
4355.00,1.22
4354.00,1.21
4353.00,1.21
4352.00,1.21
4351.00,1.21
4350.00,1.20
4349.00,1.20
4348.00,1.20
4347.00,1.20
4346.00,1.20
4345.00,1.20
4344.00,1.20
4343.00,1.20
4342.00,1.20
4341.00,1.20
4340.00,1.21
4339.00,1.21
4338.00,1.21
4337.00,1.21
4336.00,1.21
4335.00,1.22
4334.00,1.22
4333.00,1.22
4332.00,1.22
4331.00,1.23
4330.00,1.23
4329.00,1.23
4328.00,1.23
4327.00,1.24
4326.00,1.24
4325.00,1.24
4324.00,1.25
4323.00,1.25
4322.00,1.25
4321.00,1.26
4320.00,1.26
4319.00,1.26
4318.00,1.27
4317.00,1.27
4316.00,1.27
4315.00,1.27
4314.00,1.28
4313.00,1.28
4312.00,1.28
4311.00,1.28
4310.00,1.28
4309.00,1.29
4308.00,1.29
4307.00,1.29
4306.00,1.29
4305.00,1.29
4304.00,1.29
4303.00,1.30
4302.00,1.30
4301.00,1.30
4300.00,1.30
4299.00,1.30
4298.00,1.30
4297.00,1.31
4296.00,1.31
4295.00,1.31
4294.00,1.31
4293.00,1.32
4292.00,1.32
4291.00,1.32
4290.00,1.33
4289.00,1.33
4288.00,1.33
4287.00,1.33
4286.00,1.33
4285.00,1.33
4284.00,1.33
4283.00,1.34
4282.00,1.34
4281.00,1.34
4280.00,1.34
4279.00,1.34
4278.00,1.34
4277.00,1.33
4276.00,1.33
4275.00,1.33
4274.00,1.33
4273.00,1.33
4272.00,1.33
4271.00,1.33
4270.00,1.33
4269.00,1.33
4268.00,1.33
4267.00,1.33
4266.00,1.33
4265.00,1.32
4264.00,1.32
4263.00,1.32
4262.00,1.32
4261.00,1.32
4260.00,1.32
4259.00,1.32
4258.00,1.32
4257.00,1.32
4256.00,1.32
4255.00,1.32
4254.00,1.32
4253.00,1.32
4252.00,1.32
4251.00,1.33
4250.00,1.33
4249.00,1.33
4248.00,1.33
4247.00,1.33
4246.00,1.34
4245.00,1.34
4244.00,1.34
4243.00,1.34
4242.00,1.35
4241.00,1.35
4240.00,1.35
4239.00,1.35
4238.00,1.35
4237.00,1.36
4236.00,1.36
4235.00,1.36
4234.00,1.36
4233.00,1.36
4232.00,1.37
4231.00,1.37
4230.00,1.37
4229.00,1.37
4228.00,1.37
4227.00,1.38
4226.00,1.38
4225.00,1.38
4224.00,1.38
4223.00,1.38
4222.00,1.38
4221.00,1.38
4220.00,1.38
4219.00,1.38
4218.00,1.38
4217.00,1.38
4216.00,1.38
4215.00,1.38
4214.00,1.38
4213.00,1.38
4212.00,1.38
4211.00,1.38
4210.00,1.38
4209.00,1.38
4208.00,1.38
4207.00,1.38
4206.00,1.38
4205.00,1.38
4204.00,1.38
4203.00,1.39
4202.00,1.39
4201.00,1.39
4200.00,1.39
4199.00,1.39
4198.00,1.39
4197.00,1.39
4196.00,1.40
4195.00,1.40
4194.00,1.40
4193.00,1.40
4192.00,1.40
4191.00,1.40
4190.00,1.40
4189.00,1.40
4188.00,1.40
4187.00,1.40
4186.00,1.40
4185.00,1.40
4184.00,1.40
4183.00,1.40
4182.00,1.40
4181.00,1.40
4180.00,1.40
4179.00,1.40
4178.00,1.40
4177.00,1.41
4176.00,1.41
4175.00,1.41
4174.00,1.41
4173.00,1.41
4172.00,1.41
4171.00,1.41
4170.00,1.41
4169.00,1.41
4168.00,1.42
4167.00,1.42
4166.00,1.42
4165.00,1.42
4164.00,1.42
4163.00,1.43
4162.00,1.43
4161.00,1.43
4160.00,1.43
4159.00,1.43
4158.00,1.43
4157.00,1.43
4156.00,1.43
4155.00,1.43
4154.00,1.43
4153.00,1.43
4152.00,1.43
4151.00,1.43
4150.00,1.43
4149.00,1.43
4148.00,1.43
4147.00,1.43
4146.00,1.43
4145.00,1.43
4144.00,1.43
4143.00,1.43
4142.00,1.43
4141.00,1.43
4140.00,1.43
4139.00,1.43
4138.00,1.44
4137.00,1.44
4136.00,1.44
4135.00,1.44
4134.00,1.44
4133.00,1.44
4132.00,1.44
4131.00,1.44
4130.00,1.44
4129.00,1.44
4128.00,1.44
4127.00,1.44
4126.00,1.44
4125.00,1.44
4124.00,1.44
4123.00,1.44
4122.00,1.44
4121.00,1.44
4120.00,1.44
4119.00,1.44
4118.00,1.44
4117.00,1.44
4116.00,1.43
4115.00,1.43
4114.00,1.43
4113.00,1.43
4112.00,1.43
4111.00,1.43
4110.00,1.42
4109.00,1.42
4108.00,1.42
4107.00,1.42
4106.00,1.42
4105.00,1.42
4104.00,1.42
4103.00,1.42
4102.00,1.42
4101.00,1.42
4100.00,1.42
4099.00,1.42
4098.00,1.42
4097.00,1.42
4096.00,1.42
4095.00,1.42
4094.00,1.42
4093.00,1.42
4092.00,1.42
4091.00,1.42
4090.00,1.42
4089.00,1.42
4088.00,1.43
4087.00,1.43
4086.00,1.43
4085.00,1.43
4084.00,1.43
4083.00,1.43
4082.00,1.43
4081.00,1.43
4080.00,1.44
4079.00,1.44
4078.00,1.44
4077.00,1.44
4076.00,1.44
4075.00,1.45
4074.00,1.45
4073.00,1.45
4072.00,1.45
4071.00,1.45
4070.00,1.45
4069.00,1.45
4068.00,1.45
4067.00,1.45
4066.00,1.45
4065.00,1.45
4064.00,1.46
4063.00,1.46
4062.00,1.46
4061.00,1.46
4060.00,1.46
4059.00,1.46
4058.00,1.46
4057.00,1.46
4056.00,1.47
4055.00,1.47
4054.00,1.47
4053.00,1.47
4052.00,1.47
4051.00,1.48
4050.00,1.48
4049.00,1.48
4048.00,1.48
4047.00,1.48
4046.00,1.48
4045.00,1.49
4044.00,1.49
4043.00,1.49
4042.00,1.49
4041.00,1.49
4040.00,1.49
4039.00,1.49
4038.00,1.49
4037.00,1.49
4036.00,1.49
4035.00,1.49
4034.00,1.49
4033.00,1.49
4032.00,1.49
4031.00,1.49
4030.00,1.49
4029.00,1.50
4028.00,1.50
4027.00,1.50
4026.00,1.50
4025.00,1.50
4024.00,1.51
4023.00,1.51
4022.00,1.51
4021.00,1.52
4020.00,1.52
4019.00,1.52
4018.00,1.52
4017.00,1.52
4016.00,1.53
4015.00,1.53
4014.00,1.53
4013.00,1.53
4012.00,1.53
4011.00,1.53
4010.00,1.52
4009.00,1.52
4008.00,1.52
4007.00,1.52
4006.00,1.52
4005.00,1.52
4004.00,1.52
4003.00,1.52
4002.00,1.52
4001.00,1.53
4000.00,1.53
