创建为新数据集,样品 140 用户 Administrator 日期 星期三, 十一月 08 2017
cm-1,%T
10000.00,1.30
9999.00,1.29
9998.00,1.29
9997.00,1.29
9996.00,1.29
9995.00,1.29
9994.00,1.29
9993.00,1.29
9992.00,1.29
9991.00,1.29
9990.00,1.29
9989.00,1.29
9988.00,1.29
9987.00,1.29
9986.00,1.29
9985.00,1.29
9984.00,1.29
9983.00,1.29
9982.00,1.29
9981.00,1.29
9980.00,1.29
9979.00,1.29
9978.00,1.29
9977.00,1.29
9976.00,1.29
9975.00,1.29
9974.00,1.29
9973.00,1.28
9972.00,1.28
9971.00,1.28
9970.00,1.28
9969.00,1.27
9968.00,1.27
9967.00,1.27
9966.00,1.27
9965.00,1.27
9964.00,1.26
9963.00,1.26
9962.00,1.26
9961.00,1.26
9960.00,1.26
9959.00,1.26
9958.00,1.26
9957.00,1.26
9956.00,1.26
9955.00,1.26
9954.00,1.26
9953.00,1.26
9952.00,1.27
9951.00,1.27
9950.00,1.27
9949.00,1.27
9948.00,1.27
9947.00,1.27
9946.00,1.27
9945.00,1.27
9944.00,1.27
9943.00,1.27
9942.00,1.27
9941.00,1.28
9940.00,1.28
9939.00,1.28
9938.00,1.28
9937.00,1.28
9936.00,1.28
9935.00,1.28
9934.00,1.28
9933.00,1.28
9932.00,1.28
9931.00,1.28
9930.00,1.28
9929.00,1.28
9928.00,1.28
9927.00,1.27
9926.00,1.27
9925.00,1.27
9924.00,1.27
9923.00,1.27
9922.00,1.27
9921.00,1.27
9920.00,1.27
9919.00,1.27
9918.00,1.27
9917.00,1.27
9916.00,1.27
9915.00,1.27
9914.00,1.27
9913.00,1.27
9912.00,1.27
9911.00,1.27
9910.00,1.27
9909.00,1.27
9908.00,1.27
9907.00,1.27
9906.00,1.27
9905.00,1.27
9904.00,1.27
9903.00,1.27
9902.00,1.27
9901.00,1.27
9900.00,1.27
9899.00,1.27
9898.00,1.27
9897.00,1.27
9896.00,1.27
9895.00,1.27
9894.00,1.27
9893.00,1.27
9892.00,1.27
9891.00,1.27
9890.00,1.27
9889.00,1.27
9888.00,1.27
9887.00,1.28
9886.00,1.28
9885.00,1.28
9884.00,1.28
9883.00,1.27
9882.00,1.27
9881.00,1.27
9880.00,1.27
9879.00,1.27
9878.00,1.27
9877.00,1.27
9876.00,1.27
9875.00,1.27
9874.00,1.27
9873.00,1.27
9872.00,1.27
9871.00,1.27
9870.00,1.27
9869.00,1.27
9868.00,1.27
9867.00,1.27
9866.00,1.27
9865.00,1.27
9864.00,1.27
9863.00,1.27
9862.00,1.27
9861.00,1.28
9860.00,1.28
9859.00,1.28
9858.00,1.28
9857.00,1.28
9856.00,1.29
9855.00,1.29
9854.00,1.29
9853.00,1.29
9852.00,1.29
9851.00,1.29
9850.00,1.29
9849.00,1.29
9848.00,1.29
9847.00,1.29
9846.00,1.29
9845.00,1.29
9844.00,1.29
9843.00,1.29
9842.00,1.29
9841.00,1.28
9840.00,1.28
9839.00,1.28
9838.00,1.28
9837.00,1.28
9836.00,1.28
9835.00,1.27
9834.00,1.27
9833.00,1.27
9832.00,1.27
9831.00,1.27
9830.00,1.27
9829.00,1.27
9828.00,1.27
9827.00,1.27
9826.00,1.27
9825.00,1.27
9824.00,1.27
9823.00,1.27
9822.00,1.27
9821.00,1.27
9820.00,1.27
9819.00,1.27
9818.00,1.27
9817.00,1.27
9816.00,1.27
9815.00,1.27
9814.00,1.27
9813.00,1.28
9812.00,1.28
9811.00,1.28
9810.00,1.28
9809.00,1.28
9808.00,1.28
9807.00,1.28
9806.00,1.28
9805.00,1.28
9804.00,1.28
9803.00,1.28
9802.00,1.28
9801.00,1.28
9800.00,1.28
9799.00,1.28
9798.00,1.28
9797.00,1.28
9796.00,1.28
9795.00,1.28
9794.00,1.28
9793.00,1.28
9792.00,1.27
9791.00,1.27
9790.00,1.27
9789.00,1.27
9788.00,1.27
9787.00,1.27
9786.00,1.27
9785.00,1.27
9784.00,1.27
9783.00,1.27
9782.00,1.27
9781.00,1.27
9780.00,1.27
9779.00,1.27
9778.00,1.27
9777.00,1.27
9776.00,1.27
9775.00,1.27
9774.00,1.26
9773.00,1.26
9772.00,1.26
9771.00,1.26
9770.00,1.26
9769.00,1.26
9768.00,1.26
9767.00,1.25
9766.00,1.25
9765.00,1.25
9764.00,1.25
9763.00,1.25
9762.00,1.25
9761.00,1.25
9760.00,1.25
9759.00,1.25
9758.00,1.25
9757.00,1.25
9756.00,1.25
9755.00,1.25
9754.00,1.25
9753.00,1.25
9752.00,1.25
9751.00,1.25
9750.00,1.25
9749.00,1.25
9748.00,1.25
9747.00,1.25
9746.00,1.25
9745.00,1.25
9744.00,1.25
9743.00,1.26
9742.00,1.26
9741.00,1.26
9740.00,1.26
9739.00,1.26
9738.00,1.26
9737.00,1.26
9736.00,1.26
9735.00,1.26
9734.00,1.26
9733.00,1.26
9732.00,1.26
9731.00,1.26
9730.00,1.26
9729.00,1.26
9728.00,1.27
9727.00,1.27
9726.00,1.27
9725.00,1.27
9724.00,1.27
9723.00,1.27
9722.00,1.28
9721.00,1.28
9720.00,1.28
9719.00,1.28
9718.00,1.28
9717.00,1.28
9716.00,1.28
9715.00,1.28
9714.00,1.28
9713.00,1.28
9712.00,1.28
9711.00,1.28
9710.00,1.28
9709.00,1.28
9708.00,1.28
9707.00,1.28
9706.00,1.28
9705.00,1.28
9704.00,1.28
9703.00,1.28
9702.00,1.28
9701.00,1.28
9700.00,1.28
9699.00,1.28
9698.00,1.28
9697.00,1.28
9696.00,1.28
9695.00,1.28
9694.00,1.28
9693.00,1.28
9692.00,1.28
9691.00,1.28
9690.00,1.28
9689.00,1.28
9688.00,1.28
9687.00,1.28
9686.00,1.28
9685.00,1.28
9684.00,1.28
9683.00,1.28
9682.00,1.28
9681.00,1.28
9680.00,1.28
9679.00,1.28
9678.00,1.28
9677.00,1.28
9676.00,1.29
9675.00,1.29
9674.00,1.29
9673.00,1.29
9672.00,1.29
9671.00,1.29
9670.00,1.29
9669.00,1.29
9668.00,1.29
9667.00,1.29
9666.00,1.29
9665.00,1.29
9664.00,1.29
9663.00,1.28
9662.00,1.28
9661.00,1.28
9660.00,1.28
9659.00,1.28
9658.00,1.28
9657.00,1.27
9656.00,1.27
9655.00,1.27
9654.00,1.27
9653.00,1.27
9652.00,1.26
9651.00,1.26
9650.00,1.26
9649.00,1.26
9648.00,1.26
9647.00,1.26
9646.00,1.26
9645.00,1.26
9644.00,1.26
9643.00,1.26
9642.00,1.26
9641.00,1.26
9640.00,1.26
9639.00,1.26
9638.00,1.26
9637.00,1.26
9636.00,1.26
9635.00,1.26
9634.00,1.26
9633.00,1.27
9632.00,1.27
9631.00,1.27
9630.00,1.27
9629.00,1.27
9628.00,1.27
9627.00,1.27
9626.00,1.27
9625.00,1.27
9624.00,1.27
9623.00,1.27
9622.00,1.27
9621.00,1.27
9620.00,1.28
9619.00,1.28
9618.00,1.28
9617.00,1.28
9616.00,1.28
9615.00,1.28
9614.00,1.28
9613.00,1.28
9612.00,1.28
9611.00,1.29
9610.00,1.29
9609.00,1.28
9608.00,1.28
9607.00,1.28
9606.00,1.28
9605.00,1.28
9604.00,1.28
9603.00,1.28
9602.00,1.28
9601.00,1.27
9600.00,1.27
9599.00,1.27
9598.00,1.27
9597.00,1.26
9596.00,1.26
9595.00,1.26
9594.00,1.26
9593.00,1.26
9592.00,1.26
9591.00,1.26
9590.00,1.26
9589.00,1.26
9588.00,1.26
9587.00,1.26
9586.00,1.26
9585.00,1.26
9584.00,1.26
9583.00,1.26
9582.00,1.27
9581.00,1.27
9580.00,1.27
9579.00,1.27
9578.00,1.27
9577.00,1.27
9576.00,1.27
9575.00,1.27
9574.00,1.27
9573.00,1.27
9572.00,1.27
9571.00,1.27
9570.00,1.27
9569.00,1.27
9568.00,1.27
9567.00,1.27
9566.00,1.27
9565.00,1.27
9564.00,1.27
9563.00,1.27
9562.00,1.27
9561.00,1.27
9560.00,1.27
9559.00,1.27
9558.00,1.27
9557.00,1.27
9556.00,1.27
9555.00,1.27
9554.00,1.27
9553.00,1.26
9552.00,1.26
9551.00,1.26
9550.00,1.26
9549.00,1.26
9548.00,1.25
9547.00,1.25
9546.00,1.25
9545.00,1.25
9544.00,1.25
9543.00,1.25
9542.00,1.25
9541.00,1.25
9540.00,1.24
9539.00,1.24
9538.00,1.24
9537.00,1.25
9536.00,1.25
9535.00,1.25
9534.00,1.25
9533.00,1.25
9532.00,1.25
9531.00,1.25
9530.00,1.25
9529.00,1.25
9528.00,1.25
9527.00,1.26
9526.00,1.26
9525.00,1.26
9524.00,1.26
9523.00,1.26
9522.00,1.27
9521.00,1.27
9520.00,1.27
9519.00,1.27
9518.00,1.27
9517.00,1.27
9516.00,1.27
9515.00,1.28
9514.00,1.28
9513.00,1.28
9512.00,1.28
9511.00,1.28
9510.00,1.28
9509.00,1.28
9508.00,1.28
9507.00,1.28
9506.00,1.28
9505.00,1.28
9504.00,1.28
9503.00,1.28
9502.00,1.28
9501.00,1.28
9500.00,1.28
9499.00,1.28
9498.00,1.28
9497.00,1.28
9496.00,1.28
9495.00,1.29
9494.00,1.29
9493.00,1.29
9492.00,1.29
9491.00,1.29
9490.00,1.29
9489.00,1.29
9488.00,1.29
9487.00,1.29
9486.00,1.29
9485.00,1.29
9484.00,1.29
9483.00,1.29
9482.00,1.29
9481.00,1.28
9480.00,1.28
9479.00,1.28
9478.00,1.28
9477.00,1.28
9476.00,1.27
9475.00,1.27
9474.00,1.27
9473.00,1.27
9472.00,1.27
9471.00,1.26
9470.00,1.26
9469.00,1.26
9468.00,1.26
9467.00,1.26
9466.00,1.26
9465.00,1.26
9464.00,1.25
9463.00,1.25
9462.00,1.25
9461.00,1.25
9460.00,1.25
9459.00,1.25
9458.00,1.25
9457.00,1.26
9456.00,1.26
9455.00,1.26
9454.00,1.26
9453.00,1.26
9452.00,1.26
9451.00,1.26
9450.00,1.26
9449.00,1.26
9448.00,1.26
9447.00,1.26
9446.00,1.26
9445.00,1.26
9444.00,1.26
9443.00,1.26
9442.00,1.26
9441.00,1.26
9440.00,1.26
9439.00,1.26
9438.00,1.26
9437.00,1.26
9436.00,1.26
9435.00,1.26
9434.00,1.26
9433.00,1.26
9432.00,1.26
9431.00,1.26
9430.00,1.26
9429.00,1.26
9428.00,1.26
9427.00,1.26
9426.00,1.26
9425.00,1.26
9424.00,1.26
9423.00,1.26
9422.00,1.26
9421.00,1.26
9420.00,1.26
9419.00,1.27
9418.00,1.27
9417.00,1.27
9416.00,1.27
9415.00,1.27
9414.00,1.27
9413.00,1.27
9412.00,1.27
9411.00,1.27
9410.00,1.27
9409.00,1.27
9408.00,1.27
9407.00,1.27
9406.00,1.27
9405.00,1.27
9404.00,1.27
9403.00,1.27
9402.00,1.27
9401.00,1.27
9400.00,1.27
9399.00,1.26
9398.00,1.26
9397.00,1.26
9396.00,1.26
9395.00,1.26
9394.00,1.26
9393.00,1.26
9392.00,1.25
9391.00,1.25
9390.00,1.25
9389.00,1.25
9388.00,1.25
9387.00,1.25
9386.00,1.25
9385.00,1.26
9384.00,1.26
9383.00,1.26
9382.00,1.26
9381.00,1.26
9380.00,1.26
9379.00,1.26
9378.00,1.26
9377.00,1.26
9376.00,1.26
9375.00,1.26
9374.00,1.26
9373.00,1.26
9372.00,1.26
9371.00,1.26
9370.00,1.26
9369.00,1.26
9368.00,1.26
9367.00,1.26
9366.00,1.26
9365.00,1.26
9364.00,1.26
9363.00,1.26
9362.00,1.26
9361.00,1.26
9360.00,1.26
9359.00,1.26
9358.00,1.27
9357.00,1.27
9356.00,1.27
9355.00,1.27
9354.00,1.27
9353.00,1.27
9352.00,1.27
9351.00,1.27
9350.00,1.28
9349.00,1.28
9348.00,1.28
9347.00,1.28
9346.00,1.28
9345.00,1.28
9344.00,1.28
9343.00,1.28
9342.00,1.28
9341.00,1.28
9340.00,1.29
9339.00,1.29
9338.00,1.29
9337.00,1.29
9336.00,1.29
9335.00,1.28
9334.00,1.28
9333.00,1.28
9332.00,1.28
9331.00,1.28
9330.00,1.28
9329.00,1.28
9328.00,1.28
9327.00,1.28
9326.00,1.28
9325.00,1.28
9324.00,1.28
9323.00,1.28
9322.00,1.28
9321.00,1.28
9320.00,1.28
9319.00,1.28
9318.00,1.28
9317.00,1.27
9316.00,1.27
9315.00,1.27
9314.00,1.27
9313.00,1.27
9312.00,1.27
9311.00,1.26
9310.00,1.26
9309.00,1.26
9308.00,1.26
9307.00,1.26
9306.00,1.26
9305.00,1.26
9304.00,1.26
9303.00,1.26
9302.00,1.26
9301.00,1.26
9300.00,1.26
9299.00,1.26
9298.00,1.26
9297.00,1.26
9296.00,1.26
9295.00,1.26
9294.00,1.26
9293.00,1.26
9292.00,1.26
9291.00,1.26
9290.00,1.26
9289.00,1.26
9288.00,1.26
9287.00,1.26
9286.00,1.26
9285.00,1.26
9284.00,1.26
9283.00,1.26
9282.00,1.26
9281.00,1.26
9280.00,1.26
9279.00,1.26
9278.00,1.26
9277.00,1.26
9276.00,1.26
9275.00,1.26
9274.00,1.26
9273.00,1.26
9272.00,1.26
9271.00,1.26
9270.00,1.26
9269.00,1.26
9268.00,1.27
9267.00,1.27
9266.00,1.27
9265.00,1.27
9264.00,1.27
9263.00,1.27
9262.00,1.27
9261.00,1.27
9260.00,1.27
9259.00,1.27
9258.00,1.27
9257.00,1.27
9256.00,1.27
9255.00,1.27
9254.00,1.27
9253.00,1.27
9252.00,1.27
9251.00,1.27
9250.00,1.27
9249.00,1.27
9248.00,1.27
9247.00,1.27
9246.00,1.27
9245.00,1.28
9244.00,1.28
9243.00,1.28
9242.00,1.28
9241.00,1.28
9240.00,1.28
9239.00,1.28
9238.00,1.28
9237.00,1.28
9236.00,1.28
9235.00,1.28
9234.00,1.28
9233.00,1.28
9232.00,1.28
9231.00,1.27
9230.00,1.27
9229.00,1.27
9228.00,1.27
9227.00,1.27
9226.00,1.27
9225.00,1.26
9224.00,1.26
9223.00,1.26
9222.00,1.26
9221.00,1.26
9220.00,1.26
9219.00,1.26
9218.00,1.26
9217.00,1.26
9216.00,1.27
9215.00,1.27
9214.00,1.27
9213.00,1.27
9212.00,1.28
9211.00,1.28
9210.00,1.28
9209.00,1.28
9208.00,1.29
9207.00,1.29
9206.00,1.29
9205.00,1.29
9204.00,1.29
9203.00,1.29
9202.00,1.29
9201.00,1.29
9200.00,1.29
9199.00,1.29
9198.00,1.29
9197.00,1.29
9196.00,1.29
9195.00,1.29
9194.00,1.28
9193.00,1.28
9192.00,1.28
9191.00,1.28
9190.00,1.28
9189.00,1.28
9188.00,1.27
9187.00,1.27
9186.00,1.27
9185.00,1.27
9184.00,1.27
9183.00,1.27
9182.00,1.26
9181.00,1.26
9180.00,1.26
9179.00,1.26
9178.00,1.26
9177.00,1.26
9176.00,1.26
9175.00,1.26
9174.00,1.26
9173.00,1.26
9172.00,1.26
9171.00,1.26
9170.00,1.26
9169.00,1.26
9168.00,1.26
9167.00,1.26
9166.00,1.26
9165.00,1.26
9164.00,1.26
9163.00,1.26
9162.00,1.26
9161.00,1.26
9160.00,1.26
9159.00,1.26
9158.00,1.26
9157.00,1.26
9156.00,1.26
9155.00,1.26
9154.00,1.26
9153.00,1.26
9152.00,1.26
9151.00,1.26
9150.00,1.26
9149.00,1.26
9148.00,1.26
9147.00,1.26
9146.00,1.26
9145.00,1.26
9144.00,1.26
9143.00,1.26
9142.00,1.26
9141.00,1.26
9140.00,1.26
9139.00,1.26
9138.00,1.26
9137.00,1.26
9136.00,1.26
9135.00,1.26
9134.00,1.26
9133.00,1.26
9132.00,1.26
9131.00,1.26
9130.00,1.26
9129.00,1.26
9128.00,1.26
9127.00,1.26
9126.00,1.26
9125.00,1.26
9124.00,1.26
9123.00,1.26
9122.00,1.27
9121.00,1.27
9120.00,1.27
9119.00,1.27
9118.00,1.27
9117.00,1.27
9116.00,1.27
9115.00,1.27
9114.00,1.27
9113.00,1.27
9112.00,1.27
9111.00,1.27
9110.00,1.27
9109.00,1.27
9108.00,1.27
9107.00,1.27
9106.00,1.27
9105.00,1.27
9104.00,1.27
9103.00,1.27
9102.00,1.27
9101.00,1.26
9100.00,1.26
9099.00,1.26
9098.00,1.26
9097.00,1.26
9096.00,1.26
9095.00,1.26
9094.00,1.26
9093.00,1.26
9092.00,1.26
9091.00,1.26
9090.00,1.26
9089.00,1.26
9088.00,1.26
9087.00,1.27
9086.00,1.27
9085.00,1.27
9084.00,1.27
9083.00,1.27
9082.00,1.27
9081.00,1.27
9080.00,1.28
9079.00,1.28
9078.00,1.28
9077.00,1.28
9076.00,1.28
9075.00,1.28
9074.00,1.28
9073.00,1.28
9072.00,1.28
9071.00,1.28
9070.00,1.28
9069.00,1.28
9068.00,1.28
9067.00,1.28
9066.00,1.28
9065.00,1.28
9064.00,1.28
9063.00,1.28
9062.00,1.28
9061.00,1.28
9060.00,1.28
9059.00,1.28
9058.00,1.28
9057.00,1.28
9056.00,1.28
9055.00,1.28
9054.00,1.28
9053.00,1.28
9052.00,1.28
9051.00,1.28
9050.00,1.27
9049.00,1.27
9048.00,1.27
9047.00,1.27
9046.00,1.27
9045.00,1.27
9044.00,1.27
9043.00,1.27
9042.00,1.27
9041.00,1.27
9040.00,1.27
9039.00,1.27
9038.00,1.27
9037.00,1.27
9036.00,1.27
9035.00,1.27
9034.00,1.27
9033.00,1.27
9032.00,1.27
9031.00,1.27
9030.00,1.27
9029.00,1.27
9028.00,1.27
9027.00,1.27
9026.00,1.27
9025.00,1.27
9024.00,1.27
9023.00,1.27
9022.00,1.27
9021.00,1.27
9020.00,1.27
9019.00,1.27
9018.00,1.27
9017.00,1.27
9016.00,1.27
9015.00,1.27
9014.00,1.27
9013.00,1.27
9012.00,1.27
9011.00,1.27
9010.00,1.27
9009.00,1.28
9008.00,1.28
9007.00,1.28
9006.00,1.28
9005.00,1.28
9004.00,1.28
9003.00,1.28
9002.00,1.28
9001.00,1.28
9000.00,1.28
8999.00,1.28
8998.00,1.28
8997.00,1.28
8996.00,1.28
8995.00,1.27
8994.00,1.27
8993.00,1.27
8992.00,1.27
8991.00,1.27
8990.00,1.27
8989.00,1.27
8988.00,1.27
8987.00,1.27
8986.00,1.27
8985.00,1.27
8984.00,1.27
8983.00,1.27
8982.00,1.27
8981.00,1.27
8980.00,1.27
8979.00,1.27
8978.00,1.27
8977.00,1.27
8976.00,1.28
8975.00,1.28
8974.00,1.28
8973.00,1.28
8972.00,1.28
8971.00,1.28
8970.00,1.28
8969.00,1.28
8968.00,1.28
8967.00,1.28
8966.00,1.28
8965.00,1.28
8964.00,1.28
8963.00,1.28
8962.00,1.28
8961.00,1.28
8960.00,1.28
8959.00,1.28
8958.00,1.28
8957.00,1.28
8956.00,1.28
8955.00,1.28
8954.00,1.28
8953.00,1.28
8952.00,1.28
8951.00,1.28
8950.00,1.28
8949.00,1.28
8948.00,1.28
8947.00,1.28
8946.00,1.28
8945.00,1.28
8944.00,1.28
8943.00,1.28
8942.00,1.28
8941.00,1.28
8940.00,1.28
8939.00,1.28
8938.00,1.28
8937.00,1.28
8936.00,1.28
8935.00,1.28
8934.00,1.28
8933.00,1.28
8932.00,1.28
8931.00,1.28
8930.00,1.28
8929.00,1.28
8928.00,1.28
8927.00,1.28
8926.00,1.28
8925.00,1.28
8924.00,1.28
8923.00,1.28
8922.00,1.28
8921.00,1.28
8920.00,1.28
8919.00,1.28
8918.00,1.28
8917.00,1.28
8916.00,1.27
8915.00,1.27
8914.00,1.27
8913.00,1.28
8912.00,1.28
8911.00,1.28
8910.00,1.28
8909.00,1.28
8908.00,1.28
8907.00,1.28
8906.00,1.28
8905.00,1.28
8904.00,1.28
8903.00,1.29
8902.00,1.29
8901.00,1.29
8900.00,1.29
8899.00,1.29
8898.00,1.29
8897.00,1.29
8896.00,1.29
8895.00,1.29
8894.00,1.28
8893.00,1.28
8892.00,1.28
8891.00,1.28
8890.00,1.28
8889.00,1.28
8888.00,1.28
8887.00,1.28
8886.00,1.27
8885.00,1.27
8884.00,1.27
8883.00,1.27
8882.00,1.27
8881.00,1.27
8880.00,1.27
8879.00,1.27
8878.00,1.27
8877.00,1.27
8876.00,1.27
8875.00,1.27
8874.00,1.27
8873.00,1.27
8872.00,1.27
8871.00,1.27
8870.00,1.27
8869.00,1.27
8868.00,1.27
8867.00,1.27
8866.00,1.27
8865.00,1.27
8864.00,1.27
8863.00,1.27
8862.00,1.27
8861.00,1.27
8860.00,1.27
8859.00,1.27
8858.00,1.27
8857.00,1.27
8856.00,1.27
8855.00,1.27
8854.00,1.27
8853.00,1.27
8852.00,1.27
8851.00,1.27
8850.00,1.27
8849.00,1.27
8848.00,1.27
8847.00,1.27
8846.00,1.27
8845.00,1.27
8844.00,1.27
8843.00,1.27
8842.00,1.27
8841.00,1.27
8840.00,1.27
8839.00,1.27
8838.00,1.27
8837.00,1.27
8836.00,1.27
8835.00,1.27
8834.00,1.27
8833.00,1.27
8832.00,1.26
8831.00,1.26
8830.00,1.26
8829.00,1.26
8828.00,1.26
8827.00,1.26
8826.00,1.26
8825.00,1.26
8824.00,1.26
8823.00,1.26
8822.00,1.26
8821.00,1.26
8820.00,1.26
8819.00,1.26
8818.00,1.25
8817.00,1.25
8816.00,1.25
8815.00,1.25
8814.00,1.25
8813.00,1.25
8812.00,1.25
8811.00,1.25
8810.00,1.25
8809.00,1.25
8808.00,1.25
8807.00,1.25
8806.00,1.25
8805.00,1.25
8804.00,1.25
8803.00,1.25
8802.00,1.25
8801.00,1.25
8800.00,1.25
8799.00,1.25
8798.00,1.25
8797.00,1.25
8796.00,1.25
8795.00,1.25
8794.00,1.25
8793.00,1.25
8792.00,1.25
8791.00,1.25
8790.00,1.24
8789.00,1.24
8788.00,1.24
8787.00,1.24
8786.00,1.24
8785.00,1.24
8784.00,1.24
8783.00,1.24
8782.00,1.24
8781.00,1.24
8780.00,1.24
8779.00,1.23
8778.00,1.23
8777.00,1.23
8776.00,1.23
8775.00,1.23
8774.00,1.23
8773.00,1.23
8772.00,1.23
8771.00,1.23
8770.00,1.23
8769.00,1.23
8768.00,1.23
8767.00,1.23
8766.00,1.23
8765.00,1.23
8764.00,1.23
8763.00,1.23
8762.00,1.23
8761.00,1.23
8760.00,1.23
8759.00,1.23
8758.00,1.24
8757.00,1.24
8756.00,1.24
8755.00,1.24
8754.00,1.24
8753.00,1.24
8752.00,1.24
8751.00,1.24
8750.00,1.24
8749.00,1.24
8748.00,1.24
8747.00,1.24
8746.00,1.24
8745.00,1.24
8744.00,1.24
8743.00,1.23
8742.00,1.23
8741.00,1.23
8740.00,1.23
8739.00,1.23
8738.00,1.22
8737.00,1.22
8736.00,1.22
8735.00,1.22
8734.00,1.22
8733.00,1.22
8732.00,1.22
8731.00,1.22
8730.00,1.21
8729.00,1.21
8728.00,1.21
8727.00,1.21
8726.00,1.21
8725.00,1.21
8724.00,1.21
8723.00,1.22
8722.00,1.22
8721.00,1.22
8720.00,1.22
8719.00,1.22
8718.00,1.22
8717.00,1.22
8716.00,1.23
8715.00,1.23
8714.00,1.23
8713.00,1.23
8712.00,1.23
8711.00,1.23
8710.00,1.24
8709.00,1.24
8708.00,1.24
8707.00,1.24
8706.00,1.24
8705.00,1.24
8704.00,1.24
8703.00,1.24
8702.00,1.24
8701.00,1.24
8700.00,1.24
8699.00,1.24
8698.00,1.24
8697.00,1.24
8696.00,1.23
8695.00,1.23
8694.00,1.23
8693.00,1.23
8692.00,1.23
8691.00,1.23
8690.00,1.23
8689.00,1.23
8688.00,1.22
8687.00,1.22
8686.00,1.22
8685.00,1.22
8684.00,1.22
8683.00,1.22
8682.00,1.22
8681.00,1.22
8680.00,1.22
8679.00,1.22
8678.00,1.22
8677.00,1.22
8676.00,1.22
8675.00,1.22
8674.00,1.22
8673.00,1.22
8672.00,1.22
8671.00,1.22
8670.00,1.22
8669.00,1.22
8668.00,1.22
8667.00,1.22
8666.00,1.22
8665.00,1.22
8664.00,1.22
8663.00,1.22
8662.00,1.22
8661.00,1.22
8660.00,1.22
8659.00,1.22
8658.00,1.22
8657.00,1.22
8656.00,1.22
8655.00,1.22
8654.00,1.22
8653.00,1.23
8652.00,1.23
8651.00,1.23
8650.00,1.23
8649.00,1.23
8648.00,1.23
8647.00,1.23
8646.00,1.23
8645.00,1.22
8644.00,1.22
8643.00,1.22
8642.00,1.22
8641.00,1.22
8640.00,1.22
8639.00,1.22
8638.00,1.22
8637.00,1.21
8636.00,1.21
8635.00,1.21
8634.00,1.21
8633.00,1.21
8632.00,1.20
8631.00,1.20
8630.00,1.20
8629.00,1.20
8628.00,1.20
8627.00,1.20
8626.00,1.20
8625.00,1.20
8624.00,1.20
8623.00,1.20
8622.00,1.20
8621.00,1.20
8620.00,1.20
8619.00,1.20
8618.00,1.20
8617.00,1.20
8616.00,1.20
8615.00,1.20
8614.00,1.20
8613.00,1.20
8612.00,1.20
8611.00,1.20
8610.00,1.20
8609.00,1.20
8608.00,1.20
8607.00,1.20
8606.00,1.20
8605.00,1.20
8604.00,1.20
8603.00,1.20
8602.00,1.20
8601.00,1.20
8600.00,1.20
8599.00,1.20
8598.00,1.20
8597.00,1.20
8596.00,1.20
8595.00,1.20
8594.00,1.20
8593.00,1.20
8592.00,1.20
8591.00,1.20
8590.00,1.20
8589.00,1.19
8588.00,1.19
8587.00,1.19
8586.00,1.19
8585.00,1.19
8584.00,1.19
8583.00,1.19
8582.00,1.19
8581.00,1.19
8580.00,1.19
8579.00,1.19
8578.00,1.19
8577.00,1.19
8576.00,1.19
8575.00,1.19
8574.00,1.19
8573.00,1.19
8572.00,1.19
8571.00,1.19
8570.00,1.18
8569.00,1.18
8568.00,1.18
8567.00,1.18
8566.00,1.18
8565.00,1.18
8564.00,1.18
8563.00,1.18
8562.00,1.18
8561.00,1.18
8560.00,1.18
8559.00,1.18
8558.00,1.18
8557.00,1.18
8556.00,1.18
8555.00,1.18
8554.00,1.18
8553.00,1.18
8552.00,1.18
8551.00,1.18
8550.00,1.18
8549.00,1.18
8548.00,1.18
8547.00,1.18
8546.00,1.18
8545.00,1.18
8544.00,1.18
8543.00,1.18
8542.00,1.17
8541.00,1.17
8540.00,1.17
8539.00,1.17
8538.00,1.17
8537.00,1.17
8536.00,1.17
8535.00,1.16
8534.00,1.16
8533.00,1.16
8532.00,1.16
8531.00,1.16
8530.00,1.16
8529.00,1.16
8528.00,1.16
8527.00,1.16
8526.00,1.16
8525.00,1.16
8524.00,1.16
8523.00,1.16
8522.00,1.16
8521.00,1.16
8520.00,1.16
8519.00,1.16
8518.00,1.16
8517.00,1.16
8516.00,1.16
8515.00,1.16
8514.00,1.16
8513.00,1.16
8512.00,1.16
8511.00,1.16
8510.00,1.16
8509.00,1.16
8508.00,1.16
8507.00,1.16
8506.00,1.16
8505.00,1.15
8504.00,1.15
8503.00,1.15
8502.00,1.15
8501.00,1.15
8500.00,1.15
8499.00,1.15
8498.00,1.15
8497.00,1.15
8496.00,1.15
8495.00,1.15
8494.00,1.15
8493.00,1.15
8492.00,1.15
8491.00,1.15
8490.00,1.15
8489.00,1.15
8488.00,1.15
8487.00,1.14
8486.00,1.14
8485.00,1.14
8484.00,1.14
8483.00,1.14
8482.00,1.13
8481.00,1.13
8480.00,1.13
8479.00,1.13
8478.00,1.13
8477.00,1.13
8476.00,1.12
8475.00,1.12
8474.00,1.12
8473.00,1.12
8472.00,1.12
8471.00,1.12
8470.00,1.12
8469.00,1.12
8468.00,1.12
8467.00,1.12
8466.00,1.12
8465.00,1.12
8464.00,1.12
8463.00,1.12
8462.00,1.12
8461.00,1.12
8460.00,1.12
8459.00,1.12
8458.00,1.12
8457.00,1.12
8456.00,1.12
8455.00,1.12
8454.00,1.12
8453.00,1.11
8452.00,1.11
8451.00,1.11
8450.00,1.11
8449.00,1.11
8448.00,1.11
8447.00,1.11
8446.00,1.11
8445.00,1.11
8444.00,1.11
8443.00,1.11
8442.00,1.11
8441.00,1.11
8440.00,1.11
8439.00,1.11
8438.00,1.11
8437.00,1.11
8436.00,1.11
8435.00,1.11
8434.00,1.11
8433.00,1.11
8432.00,1.11
8431.00,1.12
8430.00,1.12
8429.00,1.12
8428.00,1.12
8427.00,1.12
8426.00,1.12
8425.00,1.12
8424.00,1.12
8423.00,1.12
8422.00,1.12
8421.00,1.12
8420.00,1.12
8419.00,1.12
8418.00,1.12
8417.00,1.12
8416.00,1.12
8415.00,1.12
8414.00,1.12
8413.00,1.12
8412.00,1.12
8411.00,1.13
8410.00,1.13
8409.00,1.13
8408.00,1.13
8407.00,1.13
8406.00,1.13
8405.00,1.13
8404.00,1.13
8403.00,1.14
8402.00,1.14
8401.00,1.14
8400.00,1.14
8399.00,1.14
8398.00,1.14
8397.00,1.15
8396.00,1.15
8395.00,1.15
8394.00,1.15
8393.00,1.15
8392.00,1.15
8391.00,1.15
8390.00,1.15
8389.00,1.15
8388.00,1.15
8387.00,1.15
8386.00,1.15
8385.00,1.15
8384.00,1.15
8383.00,1.15
8382.00,1.15
8381.00,1.14
8380.00,1.14
8379.00,1.14
8378.00,1.14
8377.00,1.14
8376.00,1.14
8375.00,1.14
8374.00,1.14
8373.00,1.14
8372.00,1.14
8371.00,1.14
8370.00,1.14
8369.00,1.14
8368.00,1.14
8367.00,1.14
8366.00,1.15
8365.00,1.15
8364.00,1.15
8363.00,1.15
8362.00,1.15
8361.00,1.16
8360.00,1.16
8359.00,1.16
8358.00,1.16
8357.00,1.16
8356.00,1.16
8355.00,1.16
8354.00,1.16
8353.00,1.16
8352.00,1.17
8351.00,1.16
8350.00,1.16
8349.00,1.16
8348.00,1.16
8347.00,1.16
8346.00,1.16
8345.00,1.16
8344.00,1.16
8343.00,1.16
8342.00,1.15
8341.00,1.15
8340.00,1.15
8339.00,1.15
8338.00,1.15
8337.00,1.15
8336.00,1.15
8335.00,1.15
8334.00,1.15
8333.00,1.15
8332.00,1.15
8331.00,1.15
8330.00,1.15
8329.00,1.15
8328.00,1.15
8327.00,1.15
8326.00,1.15
8325.00,1.15
8324.00,1.15
8323.00,1.15
8322.00,1.15
8321.00,1.15
8320.00,1.15
8319.00,1.15
8318.00,1.15
8317.00,1.15
8316.00,1.16
8315.00,1.16
8314.00,1.16
8313.00,1.16
8312.00,1.16
8311.00,1.16
8310.00,1.16
8309.00,1.16
8308.00,1.16
8307.00,1.16
8306.00,1.16
8305.00,1.16
8304.00,1.16
8303.00,1.16
8302.00,1.16
8301.00,1.16
8300.00,1.16
8299.00,1.16
8298.00,1.16
8297.00,1.16
8296.00,1.16
8295.00,1.16
8294.00,1.16
8293.00,1.16
8292.00,1.16
8291.00,1.16
8290.00,1.16
8289.00,1.16
8288.00,1.16
8287.00,1.16
8286.00,1.16
8285.00,1.16
8284.00,1.16
8283.00,1.16
8282.00,1.16
8281.00,1.16
8280.00,1.16
8279.00,1.16
8278.00,1.16
8277.00,1.16
8276.00,1.16
8275.00,1.16
8274.00,1.17
8273.00,1.17
8272.00,1.17
8271.00,1.17
8270.00,1.17
8269.00,1.17
8268.00,1.17
8267.00,1.17
8266.00,1.17
8265.00,1.17
8264.00,1.17
8263.00,1.18
8262.00,1.18
8261.00,1.18
8260.00,1.18
8259.00,1.18
8258.00,1.18
8257.00,1.18
8256.00,1.18
8255.00,1.18
8254.00,1.18
8253.00,1.18
8252.00,1.18
8251.00,1.18
8250.00,1.18
8249.00,1.18
8248.00,1.17
8247.00,1.17
8246.00,1.17
8245.00,1.17
8244.00,1.17
8243.00,1.17
8242.00,1.17
8241.00,1.17
8240.00,1.17
8239.00,1.17
8238.00,1.17
8237.00,1.17
8236.00,1.17
8235.00,1.17
8234.00,1.17
8233.00,1.17
8232.00,1.18
8231.00,1.18
8230.00,1.18
8229.00,1.18
8228.00,1.18
8227.00,1.18
8226.00,1.18
8225.00,1.18
8224.00,1.18
8223.00,1.18
8222.00,1.18
8221.00,1.18
8220.00,1.18
8219.00,1.18
8218.00,1.18
8217.00,1.18
8216.00,1.18
8215.00,1.18
8214.00,1.18
8213.00,1.18
8212.00,1.18
8211.00,1.18
8210.00,1.18
8209.00,1.18
8208.00,1.18
8207.00,1.18
8206.00,1.19
8205.00,1.19
8204.00,1.19
8203.00,1.19
8202.00,1.19
8201.00,1.19
8200.00,1.19
8199.00,1.19
8198.00,1.19
8197.00,1.19
8196.00,1.19
8195.00,1.19
8194.00,1.19
8193.00,1.19
8192.00,1.19
8191.00,1.19
8190.00,1.19
8189.00,1.19
8188.00,1.19
8187.00,1.19
8186.00,1.20
8185.00,1.20
8184.00,1.20
8183.00,1.20
8182.00,1.20
8181.00,1.20
8180.00,1.20
8179.00,1.20
8178.00,1.20
8177.00,1.20
8176.00,1.20
8175.00,1.20
8174.00,1.20
8173.00,1.20
8172.00,1.20
8171.00,1.20
8170.00,1.21
8169.00,1.21
8168.00,1.21
8167.00,1.21
8166.00,1.21
8165.00,1.21
8164.00,1.21
8163.00,1.21
8162.00,1.21
8161.00,1.21
8160.00,1.21
8159.00,1.21
8158.00,1.21
8157.00,1.21
8156.00,1.21
8155.00,1.21
8154.00,1.21
8153.00,1.21
8152.00,1.21
8151.00,1.21
8150.00,1.21
8149.00,1.21
8148.00,1.21
8147.00,1.21
8146.00,1.21
8145.00,1.22
8144.00,1.22
8143.00,1.22
8142.00,1.22
8141.00,1.22
8140.00,1.22
8139.00,1.22
8138.00,1.22
8137.00,1.22
8136.00,1.22
8135.00,1.22
8134.00,1.22
8133.00,1.22
8132.00,1.22
8131.00,1.22
8130.00,1.22
8129.00,1.22
8128.00,1.22
8127.00,1.22
8126.00,1.22
8125.00,1.23
8124.00,1.23
8123.00,1.23
8122.00,1.23
8121.00,1.23
8120.00,1.23
8119.00,1.23
8118.00,1.23
8117.00,1.23
8116.00,1.23
8115.00,1.23
8114.00,1.23
8113.00,1.22
8112.00,1.22
8111.00,1.22
8110.00,1.22
8109.00,1.22
8108.00,1.22
8107.00,1.22
8106.00,1.22
8105.00,1.22
8104.00,1.22
8103.00,1.22
8102.00,1.22
8101.00,1.22
8100.00,1.22
8099.00,1.22
8098.00,1.22
8097.00,1.22
8096.00,1.22
8095.00,1.22
8094.00,1.23
8093.00,1.23
8092.00,1.23
8091.00,1.23
8090.00,1.23
8089.00,1.23
8088.00,1.23
8087.00,1.23
8086.00,1.23
8085.00,1.23
8084.00,1.23
8083.00,1.24
8082.00,1.24
8081.00,1.24
8080.00,1.24
8079.00,1.24
8078.00,1.24
8077.00,1.24
8076.00,1.24
8075.00,1.24
8074.00,1.24
8073.00,1.24
8072.00,1.24
8071.00,1.25
8070.00,1.25
8069.00,1.25
8068.00,1.25
8067.00,1.25
8066.00,1.25
8065.00,1.25
8064.00,1.25
8063.00,1.25
8062.00,1.24
8061.00,1.24
8060.00,1.24
8059.00,1.24
8058.00,1.24
8057.00,1.24
8056.00,1.24
8055.00,1.24
8054.00,1.24
8053.00,1.24
8052.00,1.24
8051.00,1.24
8050.00,1.24
8049.00,1.24
8048.00,1.24
8047.00,1.25
8046.00,1.25
8045.00,1.25
8044.00,1.25
8043.00,1.25
8042.00,1.25
8041.00,1.25
8040.00,1.25
8039.00,1.25
8038.00,1.25
8037.00,1.25
8036.00,1.25
8035.00,1.25
8034.00,1.25
8033.00,1.25
8032.00,1.25
8031.00,1.25
8030.00,1.25
8029.00,1.25
8028.00,1.25
8027.00,1.25
8026.00,1.25
8025.00,1.25
8024.00,1.25
8023.00,1.25
8022.00,1.25
8021.00,1.25
8020.00,1.25
8019.00,1.25
8018.00,1.25
8017.00,1.25
8016.00,1.25
8015.00,1.25
8014.00,1.25
8013.00,1.25
8012.00,1.25
8011.00,1.25
8010.00,1.25
8009.00,1.26
8008.00,1.26
8007.00,1.26
8006.00,1.26
8005.00,1.26
8004.00,1.26
8003.00,1.26
8002.00,1.26
8001.00,1.26
8000.00,1.26
7999.00,1.26
7998.00,1.26
7997.00,1.26
7996.00,1.26
7995.00,1.26
7994.00,1.26
7993.00,1.26
7992.00,1.26
7991.00,1.26
7990.00,1.26
7989.00,1.26
7988.00,1.25
7987.00,1.25
7986.00,1.25
7985.00,1.25
7984.00,1.25
7983.00,1.25
7982.00,1.25
7981.00,1.25
7980.00,1.25
7979.00,1.26
7978.00,1.26
7977.00,1.26
7976.00,1.26
7975.00,1.26
7974.00,1.26
7973.00,1.26
7972.00,1.26
7971.00,1.26
7970.00,1.26
7969.00,1.26
7968.00,1.26
7967.00,1.26
7966.00,1.26
7965.00,1.26
7964.00,1.26
7963.00,1.26
7962.00,1.26
7961.00,1.26
7960.00,1.26
7959.00,1.26
7958.00,1.26
7957.00,1.26
7956.00,1.26
7955.00,1.26
7954.00,1.26
7953.00,1.26
7952.00,1.26
7951.00,1.26
7950.00,1.26
7949.00,1.26
7948.00,1.26
7947.00,1.26
7946.00,1.26
7945.00,1.26
7944.00,1.26
7943.00,1.26
7942.00,1.26
7941.00,1.26
7940.00,1.26
7939.00,1.26
7938.00,1.26
7937.00,1.26
7936.00,1.26
7935.00,1.26
7934.00,1.26
7933.00,1.26
7932.00,1.26
7931.00,1.26
7930.00,1.26
7929.00,1.26
7928.00,1.26
7927.00,1.26
7926.00,1.26
7925.00,1.26
7924.00,1.26
7923.00,1.26
7922.00,1.26
7921.00,1.26
7920.00,1.26
7919.00,1.26
7918.00,1.26
7917.00,1.26
7916.00,1.26
7915.00,1.26
7914.00,1.26
7913.00,1.26
7912.00,1.26
7911.00,1.26
7910.00,1.26
7909.00,1.26
7908.00,1.26
7907.00,1.26
7906.00,1.26
7905.00,1.26
7904.00,1.26
7903.00,1.25
7902.00,1.25
7901.00,1.25
7900.00,1.25
7899.00,1.25
7898.00,1.25
7897.00,1.25
7896.00,1.25
7895.00,1.25
7894.00,1.25
7893.00,1.26
7892.00,1.26
7891.00,1.26
7890.00,1.26
7889.00,1.26
7888.00,1.26
7887.00,1.26
7886.00,1.26
7885.00,1.26
7884.00,1.26
7883.00,1.26
7882.00,1.27
7881.00,1.27
7880.00,1.27
7879.00,1.27
7878.00,1.27
7877.00,1.27
7876.00,1.27
7875.00,1.27
7874.00,1.27
7873.00,1.28
7872.00,1.28
7871.00,1.28
7870.00,1.28
7869.00,1.28
7868.00,1.27
7867.00,1.27
7866.00,1.27
7865.00,1.27
7864.00,1.27
7863.00,1.27
7862.00,1.27
7861.00,1.27
7860.00,1.27
7859.00,1.27
7858.00,1.27
7857.00,1.27
7856.00,1.27
7855.00,1.27
7854.00,1.27
7853.00,1.27
7852.00,1.27
7851.00,1.27
7850.00,1.27
7849.00,1.27
7848.00,1.27
7847.00,1.27
7846.00,1.27
7845.00,1.27
7844.00,1.28
7843.00,1.28
7842.00,1.28
7841.00,1.28
7840.00,1.28
7839.00,1.28
7838.00,1.28
7837.00,1.28
7836.00,1.28
7835.00,1.28
7834.00,1.28
7833.00,1.28
7832.00,1.28
7831.00,1.28
7830.00,1.28
7829.00,1.28
7828.00,1.28
7827.00,1.28
7826.00,1.28
7825.00,1.28
7824.00,1.28
7823.00,1.28
7822.00,1.28
7821.00,1.28
7820.00,1.28
7819.00,1.28
7818.00,1.28
7817.00,1.28
7816.00,1.28
7815.00,1.28
7814.00,1.28
7813.00,1.28
7812.00,1.28
7811.00,1.28
7810.00,1.28
7809.00,1.28
7808.00,1.28
7807.00,1.28
7806.00,1.28
7805.00,1.28
7804.00,1.28
7803.00,1.28
7802.00,1.29
7801.00,1.29
7800.00,1.29
7799.00,1.29
7798.00,1.29
7797.00,1.29
7796.00,1.29
7795.00,1.29
7794.00,1.29
7793.00,1.29
7792.00,1.29
7791.00,1.29
7790.00,1.29
7789.00,1.29
7788.00,1.29
7787.00,1.29
7786.00,1.29
7785.00,1.29
7784.00,1.29
7783.00,1.29
7782.00,1.29
7781.00,1.29
7780.00,1.29
7779.00,1.29
7778.00,1.29
7777.00,1.29
7776.00,1.29
7775.00,1.29
7774.00,1.29
7773.00,1.29
7772.00,1.29
7771.00,1.29
7770.00,1.29
7769.00,1.29
7768.00,1.29
7767.00,1.29
7766.00,1.29
7765.00,1.28
7764.00,1.28
7763.00,1.28
7762.00,1.28
7761.00,1.28
7760.00,1.28
7759.00,1.28
7758.00,1.28
7757.00,1.28
7756.00,1.28
7755.00,1.28
7754.00,1.28
7753.00,1.28
7752.00,1.28
7751.00,1.28
7750.00,1.28
7749.00,1.28
7748.00,1.28
7747.00,1.28
7746.00,1.28
7745.00,1.28
7744.00,1.28
7743.00,1.29
7742.00,1.29
7741.00,1.29
7740.00,1.29
7739.00,1.29
7738.00,1.29
7737.00,1.29
7736.00,1.29
7735.00,1.29
7734.00,1.29
7733.00,1.29
7732.00,1.29
7731.00,1.29
7730.00,1.29
7729.00,1.29
7728.00,1.29
7727.00,1.29
7726.00,1.29
7725.00,1.29
7724.00,1.29
7723.00,1.29
7722.00,1.29
7721.00,1.29
7720.00,1.29
7719.00,1.29
7718.00,1.29
7717.00,1.29
7716.00,1.29
7715.00,1.29
7714.00,1.29
7713.00,1.29
7712.00,1.29
7711.00,1.29
7710.00,1.29
7709.00,1.29
7708.00,1.29
7707.00,1.29
7706.00,1.29
7705.00,1.29
7704.00,1.29
7703.00,1.29
7702.00,1.29
7701.00,1.29
7700.00,1.29
7699.00,1.29
7698.00,1.29
7697.00,1.29
7696.00,1.29
7695.00,1.29
7694.00,1.29
7693.00,1.29
7692.00,1.29
7691.00,1.29
7690.00,1.29
7689.00,1.29
7688.00,1.29
7687.00,1.29
7686.00,1.29
7685.00,1.29
7684.00,1.29
7683.00,1.29
7682.00,1.29
7681.00,1.29
7680.00,1.29
7679.00,1.29
7678.00,1.29
7677.00,1.29
7676.00,1.29
7675.00,1.29
7674.00,1.29
7673.00,1.29
7672.00,1.29
7671.00,1.29
7670.00,1.29
7669.00,1.29
7668.00,1.29
7667.00,1.29
7666.00,1.29
7665.00,1.29
7664.00,1.29
7663.00,1.29
7662.00,1.29
7661.00,1.29
7660.00,1.29
7659.00,1.29
7658.00,1.29
7657.00,1.29
7656.00,1.29
7655.00,1.29
7654.00,1.29
7653.00,1.29
7652.00,1.29
7651.00,1.29
7650.00,1.29
7649.00,1.29
7648.00,1.29
7647.00,1.28
7646.00,1.28
7645.00,1.28
7644.00,1.28
7643.00,1.28
7642.00,1.28
7641.00,1.28
7640.00,1.28
7639.00,1.28
7638.00,1.28
7637.00,1.28
7636.00,1.28
7635.00,1.28
7634.00,1.28
7633.00,1.28
7632.00,1.28
7631.00,1.28
7630.00,1.28
7629.00,1.28
7628.00,1.28
7627.00,1.28
7626.00,1.28
7625.00,1.28
7624.00,1.28
7623.00,1.28
7622.00,1.28
7621.00,1.28
7620.00,1.28
7619.00,1.28
7618.00,1.28
7617.00,1.28
7616.00,1.28
7615.00,1.28
7614.00,1.28
7613.00,1.28
7612.00,1.28
7611.00,1.28
7610.00,1.28
7609.00,1.28
7608.00,1.28
7607.00,1.28
7606.00,1.28
7605.00,1.28
7604.00,1.28
7603.00,1.28
7602.00,1.29
7601.00,1.29
7600.00,1.29
7599.00,1.29
7598.00,1.29
7597.00,1.29
7596.00,1.29
7595.00,1.29
7594.00,1.29
7593.00,1.29
7592.00,1.29
7591.00,1.29
7590.00,1.29
7589.00,1.29
7588.00,1.29
7587.00,1.29
7586.00,1.29
7585.00,1.29
7584.00,1.29
7583.00,1.29
7582.00,1.29
7581.00,1.29
7580.00,1.29
7579.00,1.29
7578.00,1.29
7577.00,1.29
7576.00,1.29
7575.00,1.29
7574.00,1.29
7573.00,1.29
7572.00,1.29
7571.00,1.29
7570.00,1.29
7569.00,1.29
7568.00,1.29
7567.00,1.29
7566.00,1.29
7565.00,1.29
7564.00,1.29
7563.00,1.29
7562.00,1.29
7561.00,1.29
7560.00,1.29
7559.00,1.29
7558.00,1.29
7557.00,1.29
7556.00,1.29
7555.00,1.28
7554.00,1.28
7553.00,1.28
7552.00,1.28
7551.00,1.28
7550.00,1.28
7549.00,1.28
7548.00,1.28
7547.00,1.28
7546.00,1.28
7545.00,1.28
7544.00,1.28
7543.00,1.28
7542.00,1.28
7541.00,1.28
7540.00,1.28
7539.00,1.28
7538.00,1.28
7537.00,1.28
7536.00,1.28
7535.00,1.27
7534.00,1.27
7533.00,1.27
7532.00,1.27
7531.00,1.27
7530.00,1.27
7529.00,1.27
7528.00,1.27
7527.00,1.27
7526.00,1.27
7525.00,1.27
7524.00,1.27
7523.00,1.27
7522.00,1.27
7521.00,1.27
7520.00,1.27
7519.00,1.27
7518.00,1.27
7517.00,1.27
7516.00,1.27
7515.00,1.27
7514.00,1.27
7513.00,1.27
7512.00,1.27
7511.00,1.27
7510.00,1.27
7509.00,1.27
7508.00,1.27
7507.00,1.27
7506.00,1.27
7505.00,1.27
7504.00,1.27
7503.00,1.27
7502.00,1.27
7501.00,1.27
7500.00,1.27
7499.00,1.27
7498.00,1.27
7497.00,1.27
7496.00,1.27
7495.00,1.27
7494.00,1.27
7493.00,1.27
7492.00,1.26
7491.00,1.26
7490.00,1.26
7489.00,1.26
7488.00,1.26
7487.00,1.26
7486.00,1.26
7485.00,1.26
7484.00,1.26
7483.00,1.26
7482.00,1.26
7481.00,1.26
7480.00,1.26
7479.00,1.26
7478.00,1.26
7477.00,1.26
7476.00,1.26
7475.00,1.26
7474.00,1.26
7473.00,1.26
7472.00,1.26
7471.00,1.26
7470.00,1.26
7469.00,1.26
7468.00,1.26
7467.00,1.26
7466.00,1.26
7465.00,1.26
7464.00,1.26
7463.00,1.26
7462.00,1.26
7461.00,1.26
7460.00,1.26
7459.00,1.26
7458.00,1.25
7457.00,1.25
7456.00,1.25
7455.00,1.25
7454.00,1.25
7453.00,1.25
7452.00,1.25
7451.00,1.25
7450.00,1.25
7449.00,1.25
7448.00,1.25
7447.00,1.24
7446.00,1.24
7445.00,1.24
7444.00,1.24
7443.00,1.24
7442.00,1.24
7441.00,1.24
7440.00,1.24
7439.00,1.24
7438.00,1.24
7437.00,1.24
7436.00,1.24
7435.00,1.24
7434.00,1.23
7433.00,1.23
7432.00,1.23
7431.00,1.23
7430.00,1.23
7429.00,1.23
7428.00,1.23
7427.00,1.23
7426.00,1.23
7425.00,1.23
7424.00,1.23
7423.00,1.23
7422.00,1.23
7421.00,1.23
7420.00,1.23
7419.00,1.23
7418.00,1.23
7417.00,1.23
7416.00,1.23
7415.00,1.23
7414.00,1.23
7413.00,1.22
7412.00,1.22
7411.00,1.22
7410.00,1.22
7409.00,1.22
7408.00,1.22
7407.00,1.22
7406.00,1.22
7405.00,1.22
7404.00,1.22
7403.00,1.22
7402.00,1.21
7401.00,1.21
7400.00,1.21
7399.00,1.21
7398.00,1.21
7397.00,1.21
7396.00,1.21
7395.00,1.21
7394.00,1.21
7393.00,1.21
7392.00,1.21
7391.00,1.21
7390.00,1.20
7389.00,1.20
7388.00,1.20
7387.00,1.20
7386.00,1.20
7385.00,1.20
7384.00,1.20
7383.00,1.20
7382.00,1.19
7381.00,1.19
7380.00,1.19
7379.00,1.19
7378.00,1.19
7377.00,1.19
7376.00,1.19
7375.00,1.19
7374.00,1.19
7373.00,1.19
7372.00,1.19
7371.00,1.19
7370.00,1.19
7369.00,1.19
7368.00,1.18
7367.00,1.18
7366.00,1.18
7365.00,1.18
7364.00,1.18
7363.00,1.18
7362.00,1.18
7361.00,1.18
7360.00,1.18
7359.00,1.18
7358.00,1.18
7357.00,1.18
7356.00,1.18
7355.00,1.18
7354.00,1.18
7353.00,1.18
7352.00,1.18
7351.00,1.18
7350.00,1.18
7349.00,1.18
7348.00,1.18
7347.00,1.18
7346.00,1.18
7345.00,1.18
7344.00,1.18
7343.00,1.18
7342.00,1.17
7341.00,1.17
7340.00,1.17
7339.00,1.17
7338.00,1.17
7337.00,1.17
7336.00,1.17
7335.00,1.17
7334.00,1.17
7333.00,1.16
7332.00,1.16
7331.00,1.16
7330.00,1.16
7329.00,1.16
7328.00,1.16
7327.00,1.16
7326.00,1.16
7325.00,1.16
7324.00,1.16
7323.00,1.16
7322.00,1.16
7321.00,1.16
7320.00,1.16
7319.00,1.16
7318.00,1.16
7317.00,1.16
7316.00,1.16
7315.00,1.16
7314.00,1.16
7313.00,1.16
7312.00,1.16
7311.00,1.16
7310.00,1.16
7309.00,1.16
7308.00,1.16
7307.00,1.16
7306.00,1.15
7305.00,1.15
7304.00,1.15
7303.00,1.15
7302.00,1.15
7301.00,1.15
7300.00,1.15
7299.00,1.15
7298.00,1.15
7297.00,1.15
7296.00,1.15
7295.00,1.15
7294.00,1.14
7293.00,1.14
7292.00,1.14
7291.00,1.14
7290.00,1.14
7289.00,1.14
7288.00,1.14
7287.00,1.14
7286.00,1.14
7285.00,1.14
7284.00,1.14
7283.00,1.13
7282.00,1.13
7281.00,1.13
7280.00,1.13
7279.00,1.13
7278.00,1.13
7277.00,1.13
7276.00,1.13
7275.00,1.13
7274.00,1.12
7273.00,1.12
7272.00,1.12
7271.00,1.12
7270.00,1.12
7269.00,1.12
7268.00,1.12
7267.00,1.12
7266.00,1.12
7265.00,1.12
7264.00,1.12
7263.00,1.11
7262.00,1.11
7261.00,1.11
7260.00,1.11
7259.00,1.11
7258.00,1.11
7257.00,1.10
7256.00,1.10
7255.00,1.10
7254.00,1.10
7253.00,1.10
7252.00,1.10
7251.00,1.10
7250.00,1.09
7249.00,1.09
7248.00,1.09
7247.00,1.09
7246.00,1.09
7245.00,1.09
7244.00,1.08
7243.00,1.08
7242.00,1.08
7241.00,1.08
7240.00,1.08
7239.00,1.07
7238.00,1.07
7237.00,1.07
7236.00,1.07
7235.00,1.06
7234.00,1.06
7233.00,1.06
7232.00,1.06
7231.00,1.05
7230.00,1.05
7229.00,1.05
7228.00,1.05
7227.00,1.04
7226.00,1.04
7225.00,1.04
7224.00,1.03
7223.00,1.03
7222.00,1.03
7221.00,1.02
7220.00,1.02
7219.00,1.02
7218.00,1.02
7217.00,1.01
7216.00,1.01
7215.00,1.01
7214.00,1.01
7213.00,1.00
7212.00,1.00
7211.00,1.00
7210.00,0.99
7209.00,0.99
7208.00,0.99
7207.00,0.99
7206.00,0.98
7205.00,0.98
7204.00,0.98
7203.00,0.98
7202.00,0.97
7201.00,0.97
7200.00,0.97
7199.00,0.96
7198.00,0.96
7197.00,0.96
7196.00,0.95
7195.00,0.95
7194.00,0.95
7193.00,0.94
7192.00,0.94
7191.00,0.94
7190.00,0.93
7189.00,0.93
7188.00,0.93
7187.00,0.92
7186.00,0.92
7185.00,0.92
7184.00,0.91
7183.00,0.91
7182.00,0.91
7181.00,0.90
7180.00,0.90
7179.00,0.90
7178.00,0.90
7177.00,0.89
7176.00,0.89
7175.00,0.89
7174.00,0.89
7173.00,0.89
7172.00,0.88
7171.00,0.88
7170.00,0.88
7169.00,0.88
7168.00,0.88
7167.00,0.88
7166.00,0.88
7165.00,0.87
7164.00,0.87
7163.00,0.87
7162.00,0.87
7161.00,0.87
7160.00,0.87
7159.00,0.86
7158.00,0.86
7157.00,0.86
7156.00,0.86
7155.00,0.85
7154.00,0.85
7153.00,0.85
7152.00,0.85
7151.00,0.84
7150.00,0.84
7149.00,0.84
7148.00,0.84
7147.00,0.83
7146.00,0.83
7145.00,0.83
7144.00,0.83
7143.00,0.82
7142.00,0.82
7141.00,0.82
7140.00,0.82
7139.00,0.82
7138.00,0.81
7137.00,0.81
7136.00,0.81
7135.00,0.81
7134.00,0.81
7133.00,0.80
7132.00,0.80
7131.00,0.80
7130.00,0.80
7129.00,0.80
7128.00,0.79
7127.00,0.79
7126.00,0.79
7125.00,0.79
7124.00,0.78
7123.00,0.78
7122.00,0.78
7121.00,0.77
7120.00,0.77
7119.00,0.77
7118.00,0.77
7117.00,0.76
7116.00,0.76
7115.00,0.76
7114.00,0.76
7113.00,0.75
7112.00,0.75
7111.00,0.75
7110.00,0.74
7109.00,0.74
7108.00,0.74
7107.00,0.74
7106.00,0.73
7105.00,0.73
7104.00,0.73
7103.00,0.73
7102.00,0.73
7101.00,0.72
7100.00,0.72
7099.00,0.72
7098.00,0.72
7097.00,0.72
7096.00,0.72
7095.00,0.72
7094.00,0.72
7093.00,0.71
7092.00,0.71
7091.00,0.71
7090.00,0.71
7089.00,0.71
7088.00,0.71
7087.00,0.71
7086.00,0.70
7085.00,0.70
7084.00,0.70
7083.00,0.70
7082.00,0.70
7081.00,0.70
7080.00,0.69
7079.00,0.69
7078.00,0.69
7077.00,0.69
7076.00,0.69
7075.00,0.68
7074.00,0.68
7073.00,0.68
7072.00,0.68
7071.00,0.68
7070.00,0.68
7069.00,0.68
7068.00,0.68
7067.00,0.68
7066.00,0.67
7065.00,0.67
7064.00,0.67
7063.00,0.67
7062.00,0.67
7061.00,0.67
7060.00,0.67
7059.00,0.67
7058.00,0.67
7057.00,0.67
7056.00,0.67
7055.00,0.67
7054.00,0.67
7053.00,0.67
7052.00,0.66
7051.00,0.66
7050.00,0.66
7049.00,0.66
7048.00,0.66
7047.00,0.66
7046.00,0.66
7045.00,0.66
7044.00,0.66
7043.00,0.65
7042.00,0.65
7041.00,0.65
7040.00,0.65
7039.00,0.65
7038.00,0.65
7037.00,0.65
7036.00,0.65
7035.00,0.65
7034.00,0.64
7033.00,0.64
7032.00,0.64
7031.00,0.64
7030.00,0.64
7029.00,0.64
7028.00,0.64
7027.00,0.64
7026.00,0.64
7025.00,0.64
7024.00,0.63
7023.00,0.63
7022.00,0.63
7021.00,0.63
7020.00,0.63
7019.00,0.63
7018.00,0.63
7017.00,0.63
7016.00,0.63
7015.00,0.63
7014.00,0.63
7013.00,0.63
7012.00,0.63
7011.00,0.63
7010.00,0.62
7009.00,0.62
7008.00,0.62
7007.00,0.62
7006.00,0.62
7005.00,0.62
7004.00,0.62
7003.00,0.62
7002.00,0.62
7001.00,0.62
7000.00,0.61
6999.00,0.61
6998.00,0.61
6997.00,0.61
6996.00,0.61
6995.00,0.61
6994.00,0.61
6993.00,0.61
6992.00,0.60
6991.00,0.60
6990.00,0.60
6989.00,0.60
6988.00,0.60
6987.00,0.60
6986.00,0.60
6985.00,0.60
6984.00,0.60
6983.00,0.60
6982.00,0.60
6981.00,0.60
6980.00,0.60
6979.00,0.60
6978.00,0.60
6977.00,0.60
6976.00,0.60
6975.00,0.60
6974.00,0.60
6973.00,0.60
6972.00,0.60
6971.00,0.60
6970.00,0.60
6969.00,0.60
6968.00,0.60
6967.00,0.60
6966.00,0.60
6965.00,0.60
6964.00,0.60
6963.00,0.60
6962.00,0.60
6961.00,0.60
6960.00,0.60
6959.00,0.59
6958.00,0.59
6957.00,0.59
6956.00,0.59
6955.00,0.59
6954.00,0.59
6953.00,0.59
6952.00,0.59
6951.00,0.59
6950.00,0.59
6949.00,0.59
6948.00,0.59
6947.00,0.59
6946.00,0.59
6945.00,0.59
6944.00,0.59
6943.00,0.59
6942.00,0.59
6941.00,0.59
6940.00,0.59
6939.00,0.59
6938.00,0.59
6937.00,0.59
6936.00,0.59
6935.00,0.59
6934.00,0.59
6933.00,0.59
6932.00,0.59
6931.00,0.59
6930.00,0.59
6929.00,0.59
6928.00,0.59
6927.00,0.59
6926.00,0.59
6925.00,0.58
6924.00,0.58
6923.00,0.58
6922.00,0.58
6921.00,0.58
6920.00,0.58
6919.00,0.58
6918.00,0.58
6917.00,0.58
6916.00,0.58
6915.00,0.58
6914.00,0.58
6913.00,0.58
6912.00,0.58
6911.00,0.58
6910.00,0.58
6909.00,0.58
6908.00,0.58
6907.00,0.58
6906.00,0.58
6905.00,0.58
6904.00,0.58
6903.00,0.58
6902.00,0.58
6901.00,0.58
6900.00,0.58
6899.00,0.58
6898.00,0.58
6897.00,0.58
6896.00,0.58
6895.00,0.58
6894.00,0.58
6893.00,0.58
6892.00,0.58
6891.00,0.58
6890.00,0.58
6889.00,0.58
6888.00,0.58
6887.00,0.58
6886.00,0.58
6885.00,0.58
6884.00,0.58
6883.00,0.58
6882.00,0.58
6881.00,0.58
6880.00,0.58
6879.00,0.58
6878.00,0.58
6877.00,0.58
6876.00,0.58
6875.00,0.58
6874.00,0.58
6873.00,0.58
6872.00,0.57
6871.00,0.57
6870.00,0.57
6869.00,0.57
6868.00,0.57
6867.00,0.57
6866.00,0.57
6865.00,0.57
6864.00,0.57
6863.00,0.57
6862.00,0.57
6861.00,0.57
6860.00,0.57
6859.00,0.57
6858.00,0.57
6857.00,0.57
6856.00,0.58
6855.00,0.58
6854.00,0.58
6853.00,0.58
6852.00,0.58
6851.00,0.58
6850.00,0.58
6849.00,0.58
6848.00,0.58
6847.00,0.58
6846.00,0.58
6845.00,0.58
6844.00,0.58
6843.00,0.58
6842.00,0.58
6841.00,0.58
6840.00,0.58
6839.00,0.58
6838.00,0.58
6837.00,0.58
6836.00,0.58
6835.00,0.58
6834.00,0.58
6833.00,0.58
6832.00,0.58
6831.00,0.58
6830.00,0.58
6829.00,0.58
6828.00,0.58
6827.00,0.58
6826.00,0.58
6825.00,0.58
6824.00,0.58
6823.00,0.58
6822.00,0.58
6821.00,0.58
6820.00,0.58
6819.00,0.58
6818.00,0.58
6817.00,0.58
6816.00,0.58
6815.00,0.58
6814.00,0.58
6813.00,0.58
6812.00,0.58
6811.00,0.58
6810.00,0.58
6809.00,0.58
6808.00,0.59
6807.00,0.59
6806.00,0.59
6805.00,0.59
6804.00,0.59
6803.00,0.59
6802.00,0.59
6801.00,0.59
6800.00,0.59
6799.00,0.60
6798.00,0.60
6797.00,0.60
6796.00,0.60
6795.00,0.60
6794.00,0.60
6793.00,0.60
6792.00,0.60
6791.00,0.60
6790.00,0.60
6789.00,0.60
6788.00,0.60
6787.00,0.60
6786.00,0.60
6785.00,0.60
6784.00,0.60
6783.00,0.60
6782.00,0.60
6781.00,0.60
6780.00,0.60
6779.00,0.60
6778.00,0.60
6777.00,0.60
6776.00,0.60
6775.00,0.60
6774.00,0.60
6773.00,0.60
6772.00,0.60
6771.00,0.61
6770.00,0.61
6769.00,0.61
6768.00,0.61
6767.00,0.61
6766.00,0.61
6765.00,0.61
6764.00,0.61
6763.00,0.61
6762.00,0.61
6761.00,0.61
6760.00,0.61
6759.00,0.61
6758.00,0.61
6757.00,0.62
6756.00,0.62
6755.00,0.62
6754.00,0.62
6753.00,0.62
6752.00,0.62
6751.00,0.62
6750.00,0.62
6749.00,0.62
6748.00,0.62
6747.00,0.62
6746.00,0.62
6745.00,0.62
6744.00,0.62
6743.00,0.62
6742.00,0.62
6741.00,0.62
6740.00,0.62
6739.00,0.62
6738.00,0.62
6737.00,0.62
6736.00,0.62
6735.00,0.63
6734.00,0.63
6733.00,0.63
6732.00,0.63
6731.00,0.63
6730.00,0.63
6729.00,0.63
6728.00,0.63
6727.00,0.63
6726.00,0.63
6725.00,0.63
6724.00,0.63
6723.00,0.63
6722.00,0.63
6721.00,0.63
6720.00,0.64
6719.00,0.64
6718.00,0.64
6717.00,0.64
6716.00,0.64
6715.00,0.64
6714.00,0.64
6713.00,0.64
6712.00,0.64
6711.00,0.64
6710.00,0.64
6709.00,0.64
6708.00,0.64
6707.00,0.64
6706.00,0.64
6705.00,0.64
6704.00,0.64
6703.00,0.64
6702.00,0.64
6701.00,0.64
6700.00,0.65
6699.00,0.65
6698.00,0.65
6697.00,0.65
6696.00,0.65
6695.00,0.65
6694.00,0.65
6693.00,0.65
6692.00,0.65
6691.00,0.66
6690.00,0.66
6689.00,0.66
6688.00,0.66
6687.00,0.66
6686.00,0.66
6685.00,0.66
6684.00,0.66
6683.00,0.66
6682.00,0.66
6681.00,0.66
6680.00,0.66
6679.00,0.67
6678.00,0.67
6677.00,0.67
6676.00,0.67
6675.00,0.67
6674.00,0.67
6673.00,0.67
6672.00,0.67
6671.00,0.67
6670.00,0.67
6669.00,0.67
6668.00,0.67
6667.00,0.67
6666.00,0.68
6665.00,0.68
6664.00,0.68
6663.00,0.68
6662.00,0.68
6661.00,0.68
6660.00,0.68
6659.00,0.68
6658.00,0.68
6657.00,0.68
6656.00,0.68
6655.00,0.68
6654.00,0.68
6653.00,0.68
6652.00,0.69
6651.00,0.69
6650.00,0.69
6649.00,0.69
6648.00,0.69
6647.00,0.69
6646.00,0.69
6645.00,0.69
6644.00,0.69
6643.00,0.69
6642.00,0.69
6641.00,0.69
6640.00,0.69
6639.00,0.69
6638.00,0.69
6637.00,0.69
6636.00,0.69
6635.00,0.69
6634.00,0.70
6633.00,0.70
6632.00,0.70
6631.00,0.70
6630.00,0.70
6629.00,0.70
6628.00,0.70
6627.00,0.70
6626.00,0.70
6625.00,0.70
6624.00,0.70
6623.00,0.71
6622.00,0.71
6621.00,0.71
6620.00,0.71
6619.00,0.71
6618.00,0.71
6617.00,0.71
6616.00,0.71
6615.00,0.71
6614.00,0.71
6613.00,0.72
6612.00,0.72
6611.00,0.72
6610.00,0.72
6609.00,0.72
6608.00,0.72
6607.00,0.72
6606.00,0.72
6605.00,0.72
6604.00,0.72
6603.00,0.72
6602.00,0.72
6601.00,0.72
6600.00,0.73
6599.00,0.73
6598.00,0.73
6597.00,0.73
6596.00,0.73
6595.00,0.73
6594.00,0.73
6593.00,0.73
6592.00,0.73
6591.00,0.73
6590.00,0.73
6589.00,0.74
6588.00,0.74
6587.00,0.74
6586.00,0.74
6585.00,0.74
6584.00,0.74
6583.00,0.74
6582.00,0.74
6581.00,0.74
6580.00,0.74
6579.00,0.74
6578.00,0.74
6577.00,0.74
6576.00,0.74
6575.00,0.74
6574.00,0.74
6573.00,0.74
6572.00,0.74
6571.00,0.74
6570.00,0.75
6569.00,0.75
6568.00,0.75
6567.00,0.75
6566.00,0.75
6565.00,0.75
6564.00,0.75
6563.00,0.75
6562.00,0.75
6561.00,0.75
6560.00,0.76
6559.00,0.76
6558.00,0.76
6557.00,0.76
6556.00,0.76
6555.00,0.76
6554.00,0.76
6553.00,0.76
6552.00,0.76
6551.00,0.76
6550.00,0.76
6549.00,0.76
6548.00,0.76
6547.00,0.76
6546.00,0.76
6545.00,0.76
6544.00,0.76
6543.00,0.76
6542.00,0.76
6541.00,0.76
6540.00,0.76
6539.00,0.76
6538.00,0.76
6537.00,0.76
6536.00,0.77
6535.00,0.77
6534.00,0.77
6533.00,0.77
6532.00,0.77
6531.00,0.77
6530.00,0.77
6529.00,0.78
6528.00,0.78
6527.00,0.78
6526.00,0.78
6525.00,0.78
6524.00,0.78
6523.00,0.78
6522.00,0.78
6521.00,0.78
6520.00,0.78
6519.00,0.79
6518.00,0.79
6517.00,0.79
6516.00,0.79
6515.00,0.79
6514.00,0.79
6513.00,0.79
6512.00,0.79
6511.00,0.79
6510.00,0.79
6509.00,0.79
6508.00,0.79
6507.00,0.79
6506.00,0.79
6505.00,0.79
6504.00,0.79
6503.00,0.79
6502.00,0.79
6501.00,0.79
6500.00,0.79
6499.00,0.79
6498.00,0.79
6497.00,0.79
6496.00,0.79
6495.00,0.79
6494.00,0.79
6493.00,0.79
6492.00,0.79
6491.00,0.79
6490.00,0.79
6489.00,0.79
6488.00,0.79
6487.00,0.80
6486.00,0.80
6485.00,0.80
6484.00,0.80
6483.00,0.80
6482.00,0.80
6481.00,0.80
6480.00,0.80
6479.00,0.80
6478.00,0.80
6477.00,0.80
6476.00,0.80
6475.00,0.80
6474.00,0.80
6473.00,0.80
6472.00,0.81
6471.00,0.81
6470.00,0.81
6469.00,0.81
6468.00,0.81
6467.00,0.81
6466.00,0.81
6465.00,0.81
6464.00,0.81
6463.00,0.81
6462.00,0.81
6461.00,0.81
6460.00,0.81
6459.00,0.81
6458.00,0.81
6457.00,0.81
6456.00,0.81
6455.00,0.81
6454.00,0.81
6453.00,0.81
6452.00,0.81
6451.00,0.81
6450.00,0.81
6449.00,0.81
6448.00,0.82
6447.00,0.82
6446.00,0.82
6445.00,0.82
6444.00,0.82
6443.00,0.82
6442.00,0.82
6441.00,0.82
6440.00,0.82
6439.00,0.82
6438.00,0.82
6437.00,0.82
6436.00,0.82
6435.00,0.82
6434.00,0.82
6433.00,0.82
6432.00,0.82
6431.00,0.82
6430.00,0.82
6429.00,0.82
6428.00,0.82
6427.00,0.82
6426.00,0.82
6425.00,0.82
6424.00,0.82
6423.00,0.83
6422.00,0.83
6421.00,0.83
6420.00,0.83
6419.00,0.83
6418.00,0.83
6417.00,0.83
6416.00,0.83
6415.00,0.83
6414.00,0.83
6413.00,0.84
6412.00,0.84
6411.00,0.84
6410.00,0.84
6409.00,0.84
6408.00,0.84
6407.00,0.84
6406.00,0.84
6405.00,0.84
6404.00,0.84
6403.00,0.84
6402.00,0.84
6401.00,0.84
6400.00,0.84
6399.00,0.84
6398.00,0.84
6397.00,0.84
6396.00,0.84
6395.00,0.84
6394.00,0.84
6393.00,0.84
6392.00,0.84
6391.00,0.84
6390.00,0.84
6389.00,0.84
6388.00,0.84
6387.00,0.84
6386.00,0.84
6385.00,0.84
6384.00,0.84
6383.00,0.84
6382.00,0.84
6381.00,0.84
6380.00,0.84
6379.00,0.84
6378.00,0.84
6377.00,0.84
6376.00,0.84
6375.00,0.84
6374.00,0.84
6373.00,0.85
6372.00,0.85
6371.00,0.85
6370.00,0.85
6369.00,0.85
6368.00,0.85
6367.00,0.85
6366.00,0.85
6365.00,0.85
6364.00,0.85
6363.00,0.85
6362.00,0.85
6361.00,0.85
6360.00,0.85
6359.00,0.86
6358.00,0.86
6357.00,0.86
6356.00,0.86
6355.00,0.86
6354.00,0.86
6353.00,0.86
6352.00,0.86
6351.00,0.86
6350.00,0.86
6349.00,0.86
6348.00,0.87
6347.00,0.87
6346.00,0.87
6345.00,0.87
6344.00,0.87
6343.00,0.87
6342.00,0.87
6341.00,0.87
6340.00,0.87
6339.00,0.87
6338.00,0.87
6337.00,0.87
6336.00,0.87
6335.00,0.87
6334.00,0.87
6333.00,0.87
6332.00,0.87
6331.00,0.87
6330.00,0.87
6329.00,0.87
6328.00,0.88
6327.00,0.88
6326.00,0.88
6325.00,0.88
6324.00,0.88
6323.00,0.88
6322.00,0.88
6321.00,0.88
6320.00,0.88
6319.00,0.88
6318.00,0.88
6317.00,0.88
6316.00,0.89
6315.00,0.89
6314.00,0.89
6313.00,0.89
6312.00,0.89
6311.00,0.89
6310.00,0.89
6309.00,0.89
6308.00,0.89
6307.00,0.90
6306.00,0.90
6305.00,0.90
6304.00,0.90
6303.00,0.90
6302.00,0.90
6301.00,0.90
6300.00,0.90
6299.00,0.90
6298.00,0.90
6297.00,0.90
6296.00,0.90
6295.00,0.90
6294.00,0.90
6293.00,0.91
6292.00,0.91
6291.00,0.91
6290.00,0.91
6289.00,0.91
6288.00,0.91
6287.00,0.91
6286.00,0.91
6285.00,0.91
6284.00,0.91
6283.00,0.92
6282.00,0.92
6281.00,0.92
6280.00,0.92
6279.00,0.92
6278.00,0.92
6277.00,0.92
6276.00,0.93
6275.00,0.93
6274.00,0.93
6273.00,0.93
6272.00,0.93
6271.00,0.93
6270.00,0.93
6269.00,0.93
6268.00,0.93
6267.00,0.93
6266.00,0.93
6265.00,0.94
6264.00,0.94
6263.00,0.94
6262.00,0.94
6261.00,0.94
6260.00,0.94
6259.00,0.94
6258.00,0.94
6257.00,0.94
6256.00,0.94
6255.00,0.94
6254.00,0.95
6253.00,0.95
6252.00,0.95
6251.00,0.95
6250.00,0.95
6249.00,0.95
6248.00,0.95
6247.00,0.95
6246.00,0.95
6245.00,0.95
6244.00,0.96
6243.00,0.96
6242.00,0.96
6241.00,0.96
6240.00,0.96
6239.00,0.96
6238.00,0.96
6237.00,0.96
6236.00,0.96
6235.00,0.96
6234.00,0.97
6233.00,0.97
6232.00,0.97
6231.00,0.97
6230.00,0.97
6229.00,0.97
6228.00,0.97
6227.00,0.97
6226.00,0.97
6225.00,0.97
6224.00,0.98
6223.00,0.98
6222.00,0.98
6221.00,0.98
6220.00,0.98
6219.00,0.98
6218.00,0.98
6217.00,0.98
6216.00,0.99
6215.00,0.99
6214.00,0.99
6213.00,0.99
6212.00,0.99
6211.00,0.99
6210.00,0.99
6209.00,0.99
6208.00,0.99
6207.00,1.00
6206.00,1.00
6205.00,1.00
6204.00,1.00
6203.00,1.00
6202.00,1.00
6201.00,1.00
6200.00,1.00
6199.00,1.00
6198.00,1.01
6197.00,1.01
6196.00,1.01
6195.00,1.01
6194.00,1.01
6193.00,1.01
6192.00,1.01
6191.00,1.01
6190.00,1.01
6189.00,1.02
6188.00,1.02
6187.00,1.02
6186.00,1.02
6185.00,1.02
6184.00,1.02
6183.00,1.02
6182.00,1.03
6181.00,1.03
6180.00,1.03
6179.00,1.03
6178.00,1.03
6177.00,1.03
6176.00,1.04
6175.00,1.04
6174.00,1.04
6173.00,1.04
6172.00,1.04
6171.00,1.04
6170.00,1.04
6169.00,1.05
6168.00,1.05
6167.00,1.05
6166.00,1.05
6165.00,1.05
6164.00,1.05
6163.00,1.05
6162.00,1.05
6161.00,1.06
6160.00,1.06
6159.00,1.06
6158.00,1.06
6157.00,1.06
6156.00,1.06
6155.00,1.06
6154.00,1.06
6153.00,1.06
6152.00,1.06
6151.00,1.07
6150.00,1.07
6149.00,1.07
6148.00,1.07
6147.00,1.07
6146.00,1.07
6145.00,1.07
6144.00,1.07
6143.00,1.08
6142.00,1.08
6141.00,1.08
6140.00,1.08
6139.00,1.08
6138.00,1.08
6137.00,1.08
6136.00,1.09
6135.00,1.09
6134.00,1.09
6133.00,1.09
6132.00,1.09
6131.00,1.09
6130.00,1.09
6129.00,1.09
6128.00,1.09
6127.00,1.10
6126.00,1.10
6125.00,1.10
6124.00,1.10
6123.00,1.10
6122.00,1.10
6121.00,1.10
6120.00,1.10
6119.00,1.11
6118.00,1.11
6117.00,1.11
6116.00,1.11
6115.00,1.11
6114.00,1.11
6113.00,1.11
6112.00,1.11
6111.00,1.12
6110.00,1.12
6109.00,1.12
6108.00,1.12
6107.00,1.12
6106.00,1.12
6105.00,1.12
6104.00,1.12
6103.00,1.12
6102.00,1.13
6101.00,1.13
6100.00,1.13
6099.00,1.13
6098.00,1.13
6097.00,1.13
6096.00,1.13
6095.00,1.13
6094.00,1.14
6093.00,1.14
6092.00,1.14
6091.00,1.14
6090.00,1.14
6089.00,1.14
6088.00,1.14
6087.00,1.14
6086.00,1.15
6085.00,1.15
6084.00,1.15
6083.00,1.15
6082.00,1.15
6081.00,1.15
6080.00,1.15
6079.00,1.15
6078.00,1.15
6077.00,1.15
6076.00,1.16
6075.00,1.16
6074.00,1.16
6073.00,1.16
6072.00,1.16
6071.00,1.16
6070.00,1.16
6069.00,1.16
6068.00,1.16
6067.00,1.17
6066.00,1.17
6065.00,1.17
6064.00,1.17
6063.00,1.17
6062.00,1.17
6061.00,1.17
6060.00,1.17
6059.00,1.17
6058.00,1.17
6057.00,1.17
6056.00,1.17
6055.00,1.17
6054.00,1.18
6053.00,1.18
6052.00,1.18
6051.00,1.18
6050.00,1.18
6049.00,1.18
6048.00,1.18
6047.00,1.18
6046.00,1.18
6045.00,1.18
6044.00,1.18
6043.00,1.18
6042.00,1.18
6041.00,1.18
6040.00,1.18
6039.00,1.18
6038.00,1.18
6037.00,1.18
6036.00,1.18
6035.00,1.18
6034.00,1.19
6033.00,1.19
6032.00,1.19
6031.00,1.19
6030.00,1.19
6029.00,1.19
6028.00,1.19
6027.00,1.19
6026.00,1.19
6025.00,1.19
6024.00,1.19
6023.00,1.19
6022.00,1.20
6021.00,1.20
6020.00,1.20
6019.00,1.20
6018.00,1.20
6017.00,1.20
6016.00,1.20
6015.00,1.20
6014.00,1.20
6013.00,1.20
6012.00,1.20
6011.00,1.20
6010.00,1.20
6009.00,1.19
6008.00,1.19
6007.00,1.19
6006.00,1.19
6005.00,1.19
6004.00,1.19
6003.00,1.19
6002.00,1.19
6001.00,1.19
6000.00,1.19
5999.00,1.19
5998.00,1.19
5997.00,1.18
5996.00,1.18
5995.00,1.18
5994.00,1.18
5993.00,1.18
5992.00,1.18
5991.00,1.18
5990.00,1.17
5989.00,1.17
5988.00,1.17
5987.00,1.17
5986.00,1.17
5985.00,1.16
5984.00,1.16
5983.00,1.16
5982.00,1.16
5981.00,1.15
5980.00,1.15
5979.00,1.15
5978.00,1.14
5977.00,1.14
5976.00,1.14
5975.00,1.13
5974.00,1.13
5973.00,1.12
5972.00,1.12
5971.00,1.11
5970.00,1.11
5969.00,1.10
5968.00,1.10
5967.00,1.09
5966.00,1.08
5965.00,1.08
5964.00,1.07
5963.00,1.06
5962.00,1.06
5961.00,1.05
5960.00,1.04
5959.00,1.03
5958.00,1.03
5957.00,1.02
5956.00,1.01
5955.00,1.01
5954.00,1.00
5953.00,0.99
5952.00,0.99
5951.00,0.98
5950.00,0.97
5949.00,0.97
5948.00,0.96
5947.00,0.96
5946.00,0.96
5945.00,0.95
5944.00,0.95
5943.00,0.95
5942.00,0.94
5941.00,0.94
5940.00,0.94
5939.00,0.94
5938.00,0.94
5937.00,0.94
5936.00,0.93
5935.00,0.93
5934.00,0.93
5933.00,0.93
5932.00,0.93
5931.00,0.93
5930.00,0.93
5929.00,0.93
5928.00,0.93
5927.00,0.93
5926.00,0.93
5925.00,0.93
5924.00,0.92
5923.00,0.92
5922.00,0.92
5921.00,0.92
5920.00,0.92
5919.00,0.91
5918.00,0.91
5917.00,0.91
5916.00,0.91
5915.00,0.90
5914.00,0.90
5913.00,0.90
5912.00,0.89
5911.00,0.89
5910.00,0.89
5909.00,0.89
5908.00,0.88
5907.00,0.88
5906.00,0.88
5905.00,0.88
5904.00,0.88
5903.00,0.88
5902.00,0.87
5901.00,0.87
5900.00,0.87
5899.00,0.87
5898.00,0.87
5897.00,0.87
5896.00,0.88
5895.00,0.88
5894.00,0.88
5893.00,0.88
5892.00,0.88
5891.00,0.88
5890.00,0.89
5889.00,0.89
5888.00,0.89
5887.00,0.90
5886.00,0.90
5885.00,0.90
5884.00,0.91
5883.00,0.91
5882.00,0.91
5881.00,0.92
5880.00,0.92
5879.00,0.92
5878.00,0.92
5877.00,0.93
5876.00,0.93
5875.00,0.93
5874.00,0.94
5873.00,0.94
5872.00,0.94
5871.00,0.94
5870.00,0.94
5869.00,0.95
5868.00,0.95
5867.00,0.95
5866.00,0.95
5865.00,0.95
5864.00,0.95
5863.00,0.96
5862.00,0.96
5861.00,0.96
5860.00,0.96
5859.00,0.96
5858.00,0.96
5857.00,0.96
5856.00,0.96
5855.00,0.97
5854.00,0.97
5853.00,0.97
5852.00,0.97
5851.00,0.97
5850.00,0.97
5849.00,0.97
5848.00,0.97
5847.00,0.97
5846.00,0.97
5845.00,0.97
5844.00,0.97
5843.00,0.97
5842.00,0.97
5841.00,0.97
5840.00,0.97
5839.00,0.97
5838.00,0.97
5837.00,0.97
5836.00,0.97
5835.00,0.97
5834.00,0.97
5833.00,0.97
5832.00,0.97
5831.00,0.97
5830.00,0.97
5829.00,0.97
5828.00,0.97
5827.00,0.97
5826.00,0.97
5825.00,0.97
5824.00,0.97
5823.00,0.97
5822.00,0.97
5821.00,0.97
5820.00,0.97
5819.00,0.97
5818.00,0.97
5817.00,0.97
5816.00,0.97
5815.00,0.97
5814.00,0.97
5813.00,0.97
5812.00,0.97
5811.00,0.97
5810.00,0.97
5809.00,0.97
5808.00,0.97
5807.00,0.97
5806.00,0.97
5805.00,0.97
5804.00,0.97
5803.00,0.97
5802.00,0.96
5801.00,0.96
5800.00,0.96
5799.00,0.96
5798.00,0.96
5797.00,0.96
5796.00,0.96
5795.00,0.96
5794.00,0.96
5793.00,0.95
5792.00,0.95
5791.00,0.95
5790.00,0.95
5789.00,0.95
5788.00,0.95
5787.00,0.94
5786.00,0.94
5785.00,0.94
5784.00,0.94
5783.00,0.94
5782.00,0.93
5781.00,0.93
5780.00,0.93
5779.00,0.93
5778.00,0.93
5777.00,0.93
5776.00,0.92
5775.00,0.92
5774.00,0.92
5773.00,0.92
5772.00,0.92
5771.00,0.92
5770.00,0.92
5769.00,0.92
5768.00,0.92
5767.00,0.92
5766.00,0.93
5765.00,0.93
5764.00,0.93
5763.00,0.93
5762.00,0.93
5761.00,0.93
5760.00,0.94
5759.00,0.94
5758.00,0.94
5757.00,0.94
5756.00,0.95
5755.00,0.95
5754.00,0.95
5753.00,0.96
5752.00,0.96
5751.00,0.96
5750.00,0.97
5749.00,0.97
5748.00,0.97
5747.00,0.98
5746.00,0.98
5745.00,0.98
5744.00,0.99
5743.00,0.99
5742.00,0.99
5741.00,1.00
5740.00,1.00
5739.00,1.00
5738.00,1.01
5737.00,1.01
5736.00,1.01
5735.00,1.02
5734.00,1.02
5733.00,1.02
5732.00,1.02
5731.00,1.03
5730.00,1.03
5729.00,1.03
5728.00,1.03
5727.00,1.03
5726.00,1.03
5725.00,1.04
5724.00,1.04
5723.00,1.04
5722.00,1.04
5721.00,1.04
5720.00,1.04
5719.00,1.04
5718.00,1.04
5717.00,1.04
5716.00,1.04
5715.00,1.04
5714.00,1.04
5713.00,1.04
5712.00,1.04
5711.00,1.04
5710.00,1.04
5709.00,1.04
5708.00,1.04
5707.00,1.04
5706.00,1.04
5705.00,1.03
5704.00,1.03
5703.00,1.03
5702.00,1.03
5701.00,1.03
5700.00,1.03
5699.00,1.03
5698.00,1.03
5697.00,1.03
5696.00,1.03
5695.00,1.03
5694.00,1.02
5693.00,1.02
5692.00,1.02
5691.00,1.02
5690.00,1.02
5689.00,1.02
5688.00,1.02
5687.00,1.02
5686.00,1.02
5685.00,1.02
5684.00,1.01
5683.00,1.01
5682.00,1.01
5681.00,1.01
5680.00,1.01
5679.00,1.01
5678.00,1.01
5677.00,1.01
5676.00,1.01
5675.00,1.01
5674.00,1.01
5673.00,1.01
5672.00,1.01
5671.00,1.01
5670.00,1.01
5669.00,1.01
5668.00,1.01
5667.00,1.01
5666.00,1.01
5665.00,1.01
5664.00,1.01
5663.00,1.01
5662.00,1.01
5661.00,1.02
5660.00,1.02
5659.00,1.02
5658.00,1.02
5657.00,1.02
5656.00,1.02
5655.00,1.03
5654.00,1.03
5653.00,1.03
5652.00,1.03
5651.00,1.03
5650.00,1.04
5649.00,1.04
5648.00,1.04
5647.00,1.04
5646.00,1.04
5645.00,1.05
5644.00,1.05
5643.00,1.05
5642.00,1.05
5641.00,1.06
5640.00,1.06
5639.00,1.06
5638.00,1.06
5637.00,1.06
5636.00,1.07
5635.00,1.07
5634.00,1.07
5633.00,1.07
5632.00,1.07
5631.00,1.07
5630.00,1.08
5629.00,1.08
5628.00,1.08
5627.00,1.08
5626.00,1.08
5625.00,1.08
5624.00,1.08
5623.00,1.09
5622.00,1.09
5621.00,1.09
5620.00,1.09
5619.00,1.09
5618.00,1.10
5617.00,1.10
5616.00,1.10
5615.00,1.10
5614.00,1.10
5613.00,1.10
5612.00,1.11
5611.00,1.11
5610.00,1.11
5609.00,1.11
5608.00,1.11
5607.00,1.12
5606.00,1.12
5605.00,1.12
5604.00,1.12
5603.00,1.12
5602.00,1.12
5601.00,1.13
5600.00,1.13
5599.00,1.13
5598.00,1.13
5597.00,1.13
5596.00,1.13
5595.00,1.14
5594.00,1.14
5593.00,1.14
5592.00,1.14
5591.00,1.14
5590.00,1.14
5589.00,1.14
5588.00,1.15
5587.00,1.15
5586.00,1.15
5585.00,1.15
5584.00,1.15
5583.00,1.15
5582.00,1.15
5581.00,1.15
5580.00,1.15
5579.00,1.15
5578.00,1.16
5577.00,1.16
5576.00,1.16
5575.00,1.16
5574.00,1.16
5573.00,1.16
5572.00,1.16
5571.00,1.16
5570.00,1.16
5569.00,1.17
5568.00,1.17
5567.00,1.17
5566.00,1.17
5565.00,1.17
5564.00,1.17
5563.00,1.17
5562.00,1.18
5561.00,1.18
5560.00,1.18
5559.00,1.18
5558.00,1.18
5557.00,1.18
5556.00,1.18
5555.00,1.19
5554.00,1.19
5553.00,1.19
5552.00,1.19
5551.00,1.19
5550.00,1.19
5549.00,1.19
5548.00,1.20
5547.00,1.20
5546.00,1.20
5545.00,1.20
5544.00,1.20
5543.00,1.20
5542.00,1.20
5541.00,1.20
5540.00,1.21
5539.00,1.21
5538.00,1.21
5537.00,1.21
5536.00,1.21
5535.00,1.21
5534.00,1.21
5533.00,1.21
5532.00,1.21
5531.00,1.21
5530.00,1.21
5529.00,1.22
5528.00,1.22
5527.00,1.22
5526.00,1.22
5525.00,1.22
5524.00,1.22
5523.00,1.22
5522.00,1.22
5521.00,1.22
5520.00,1.22
5519.00,1.22
5518.00,1.22
5517.00,1.22
5516.00,1.22
5515.00,1.22
5514.00,1.22
5513.00,1.22
5512.00,1.23
5511.00,1.23
5510.00,1.23
5509.00,1.23
5508.00,1.23
5507.00,1.23
5506.00,1.23
5505.00,1.23
5504.00,1.23
5503.00,1.23
5502.00,1.23
5501.00,1.23
5500.00,1.23
5499.00,1.23
5498.00,1.23
5497.00,1.23
5496.00,1.23
5495.00,1.23
5494.00,1.24
5493.00,1.24
5492.00,1.24
5491.00,1.24
5490.00,1.24
5489.00,1.24
5488.00,1.24
5487.00,1.24
5486.00,1.24
5485.00,1.24
5484.00,1.24
5483.00,1.24
5482.00,1.25
5481.00,1.25
5480.00,1.25
5479.00,1.25
5478.00,1.25
5477.00,1.25
5476.00,1.25
5475.00,1.26
5474.00,1.26
5473.00,1.26
5472.00,1.26
5471.00,1.26
5470.00,1.26
5469.00,1.27
5468.00,1.27
5467.00,1.27
5466.00,1.27
5465.00,1.27
5464.00,1.27
5463.00,1.28
5462.00,1.28
5461.00,1.28
5460.00,1.28
5459.00,1.28
5458.00,1.28
5457.00,1.28
5456.00,1.28
5455.00,1.28
5454.00,1.28
5453.00,1.28
5452.00,1.28
5451.00,1.28
5450.00,1.28
5449.00,1.28
5448.00,1.28
5447.00,1.28
5446.00,1.28
5445.00,1.28
5444.00,1.28
5443.00,1.28
5442.00,1.28
5441.00,1.28
5440.00,1.28
5439.00,1.28
5438.00,1.29
5437.00,1.29
5436.00,1.29
5435.00,1.29
5434.00,1.29
5433.00,1.29
5432.00,1.29
5431.00,1.29
5430.00,1.29
5429.00,1.29
5428.00,1.29
5427.00,1.29
5426.00,1.29
5425.00,1.29
5424.00,1.29
5423.00,1.29
5422.00,1.29
5421.00,1.29
5420.00,1.29
5419.00,1.29
5418.00,1.29
5417.00,1.29
5416.00,1.29
5415.00,1.29
5414.00,1.29
5413.00,1.29
5412.00,1.29
5411.00,1.29
5410.00,1.29
5409.00,1.29
5408.00,1.29
5407.00,1.29
5406.00,1.29
5405.00,1.29
5404.00,1.29
5403.00,1.29
5402.00,1.29
5401.00,1.29
5400.00,1.29
5399.00,1.29
5398.00,1.29
5397.00,1.29
5396.00,1.29
5395.00,1.29
5394.00,1.29
5393.00,1.29
5392.00,1.29
5391.00,1.29
5390.00,1.29
5389.00,1.29
5388.00,1.28
5387.00,1.28
5386.00,1.28
5385.00,1.28
5384.00,1.28
5383.00,1.27
5382.00,1.27
5381.00,1.27
5380.00,1.27
5379.00,1.27
5378.00,1.26
5377.00,1.26
5376.00,1.26
5375.00,1.25
5374.00,1.25
5373.00,1.25
5372.00,1.24
5371.00,1.24
5370.00,1.24
5369.00,1.23
5368.00,1.23
5367.00,1.22
5366.00,1.22
5365.00,1.22
5364.00,1.21
5363.00,1.21
5362.00,1.20
5361.00,1.20
5360.00,1.19
5359.00,1.18
5358.00,1.18
5357.00,1.17
5356.00,1.17
5355.00,1.16
5354.00,1.16
5353.00,1.15
5352.00,1.14
5351.00,1.14
5350.00,1.13
5349.00,1.12
5348.00,1.11
5347.00,1.11
5346.00,1.10
5345.00,1.09
5344.00,1.08
5343.00,1.07
5342.00,1.07
5341.00,1.06
5340.00,1.05
5339.00,1.04
5338.00,1.03
5337.00,1.02
5336.00,1.01
5335.00,1.00
5334.00,0.99
5333.00,0.98
5332.00,0.97
5331.00,0.96
5330.00,0.95
5329.00,0.94
5328.00,0.93
5327.00,0.92
5326.00,0.91
5325.00,0.90
5324.00,0.89
5323.00,0.88
5322.00,0.87
5321.00,0.86
5320.00,0.85
5319.00,0.84
5318.00,0.84
5317.00,0.83
5316.00,0.82
5315.00,0.81
5314.00,0.80
5313.00,0.79
5312.00,0.78
5311.00,0.78
5310.00,0.77
5309.00,0.76
5308.00,0.75
5307.00,0.75
5306.00,0.74
5305.00,0.73
5304.00,0.73
5303.00,0.72
5302.00,0.71
5301.00,0.71
5300.00,0.70
5299.00,0.70
5298.00,0.69
5297.00,0.69
5296.00,0.68
5295.00,0.68
5294.00,0.68
5293.00,0.67
5292.00,0.67
5291.00,0.67
5290.00,0.66
5289.00,0.66
5288.00,0.66
5287.00,0.65
5286.00,0.65
5285.00,0.65
5284.00,0.65
5283.00,0.65
5282.00,0.65
5281.00,0.64
5280.00,0.64
5279.00,0.64
5278.00,0.64
5277.00,0.64
5276.00,0.64
5275.00,0.64
5274.00,0.64
5273.00,0.64
5272.00,0.64
5271.00,0.64
5270.00,0.64
5269.00,0.63
5268.00,0.63
5267.00,0.63
5266.00,0.63
5265.00,0.63
5264.00,0.63
5263.00,0.63
5262.00,0.63
5261.00,0.63
5260.00,0.63
5259.00,0.63
5258.00,0.63
5257.00,0.63
5256.00,0.63
5255.00,0.63
5254.00,0.63
5253.00,0.63
5252.00,0.63
5251.00,0.63
5250.00,0.63
5249.00,0.63
5248.00,0.63
5247.00,0.63
5246.00,0.63
5245.00,0.63
5244.00,0.63
5243.00,0.63
5242.00,0.63
5241.00,0.63
5240.00,0.63
5239.00,0.63
5238.00,0.63
5237.00,0.63
5236.00,0.63
5235.00,0.63
5234.00,0.63
5233.00,0.63
5232.00,0.63
5231.00,0.63
5230.00,0.63
5229.00,0.63
5228.00,0.63
5227.00,0.63
5226.00,0.63
5225.00,0.63
5224.00,0.63
5223.00,0.63
5222.00,0.63
5221.00,0.63
5220.00,0.63
5219.00,0.63
5218.00,0.63
5217.00,0.63
5216.00,0.63
5215.00,0.63
5214.00,0.63
5213.00,0.63
5212.00,0.63
5211.00,0.63
5210.00,0.63
5209.00,0.63
5208.00,0.63
5207.00,0.63
5206.00,0.63
5205.00,0.63
5204.00,0.63
5203.00,0.63
5202.00,0.63
5201.00,0.63
5200.00,0.63
5199.00,0.63
5198.00,0.63
5197.00,0.63
5196.00,0.63
5195.00,0.63
5194.00,0.64
5193.00,0.64
5192.00,0.64
5191.00,0.64
5190.00,0.64
5189.00,0.64
5188.00,0.64
5187.00,0.64
5186.00,0.64
5185.00,0.64
5184.00,0.64
5183.00,0.64
5182.00,0.64
5181.00,0.64
5180.00,0.64
5179.00,0.65
5178.00,0.65
5177.00,0.65
5176.00,0.65
5175.00,0.65
5174.00,0.65
5173.00,0.65
5172.00,0.65
5171.00,0.65
5170.00,0.65
5169.00,0.65
5168.00,0.65
5167.00,0.65
5166.00,0.65
5165.00,0.65
5164.00,0.65
5163.00,0.65
5162.00,0.65
5161.00,0.65
5160.00,0.65
5159.00,0.65
5158.00,0.65
5157.00,0.65
5156.00,0.65
5155.00,0.65
5154.00,0.65
5153.00,0.65
5152.00,0.65
5151.00,0.65
5150.00,0.65
5149.00,0.66
5148.00,0.66
5147.00,0.66
5146.00,0.66
5145.00,0.66
5144.00,0.66
5143.00,0.66
5142.00,0.66
5141.00,0.66
5140.00,0.66
5139.00,0.66
5138.00,0.66
5137.00,0.66
5136.00,0.66
5135.00,0.66
5134.00,0.66
5133.00,0.66
5132.00,0.67
5131.00,0.67
5130.00,0.67
5129.00,0.67
5128.00,0.67
5127.00,0.67
5126.00,0.67
5125.00,0.67
5124.00,0.67
5123.00,0.67
5122.00,0.67
5121.00,0.67
5120.00,0.67
5119.00,0.67
5118.00,0.67
5117.00,0.67
5116.00,0.67
5115.00,0.67
5114.00,0.67
5113.00,0.67
5112.00,0.68
5111.00,0.68
5110.00,0.68
5109.00,0.68
5108.00,0.68
5107.00,0.68
5106.00,0.68
5105.00,0.68
5104.00,0.68
5103.00,0.68
5102.00,0.68
5101.00,0.68
5100.00,0.68
5099.00,0.68
5098.00,0.68
5097.00,0.68
5096.00,0.68
5095.00,0.68
5094.00,0.68
5093.00,0.68
5092.00,0.68
5091.00,0.69
5090.00,0.69
5089.00,0.69
5088.00,0.69
5087.00,0.69
5086.00,0.69
5085.00,0.69
5084.00,0.69
5083.00,0.69
5082.00,0.69
5081.00,0.69
5080.00,0.69
5079.00,0.69
5078.00,0.69
5077.00,0.69
5076.00,0.69
5075.00,0.70
5074.00,0.70
5073.00,0.70
5072.00,0.70
5071.00,0.70
5070.00,0.70
5069.00,0.70
5068.00,0.70
5067.00,0.70
5066.00,0.70
5065.00,0.70
5064.00,0.70
5063.00,0.70
5062.00,0.70
5061.00,0.70
5060.00,0.70
5059.00,0.70
5058.00,0.71
5057.00,0.71
5056.00,0.71
5055.00,0.71
5054.00,0.71
5053.00,0.71
5052.00,0.71
5051.00,0.71
5050.00,0.71
5049.00,0.71
5048.00,0.71
5047.00,0.71
5046.00,0.71
5045.00,0.72
5044.00,0.72
5043.00,0.72
5042.00,0.72
5041.00,0.72
5040.00,0.72
5039.00,0.72
5038.00,0.72
5037.00,0.72
5036.00,0.72
5035.00,0.73
5034.00,0.73
5033.00,0.73
5032.00,0.73
5031.00,0.73
5030.00,0.73
5029.00,0.73
5028.00,0.73
5027.00,0.73
5026.00,0.73
5025.00,0.73
5024.00,0.74
5023.00,0.74
5022.00,0.74
5021.00,0.74
5020.00,0.74
5019.00,0.74
5018.00,0.74
5017.00,0.74
5016.00,0.74
5015.00,0.74
5014.00,0.74
5013.00,0.74
5012.00,0.74
5011.00,0.75
5010.00,0.75
5009.00,0.75
5008.00,0.75
5007.00,0.75
5006.00,0.75
5005.00,0.75
5004.00,0.75
5003.00,0.75
5002.00,0.75
5001.00,0.76
5000.00,0.76
4999.00,0.76
4998.00,0.76
4997.00,0.76
4996.00,0.76
4995.00,0.76
4994.00,0.76
4993.00,0.76
4992.00,0.76
4991.00,0.76
4990.00,0.76
4989.00,0.76
4988.00,0.77
4987.00,0.77
4986.00,0.77
4985.00,0.77
4984.00,0.77
4983.00,0.77
4982.00,0.77
4981.00,0.77
4980.00,0.77
4979.00,0.77
4978.00,0.77
4977.00,0.77
4976.00,0.77
4975.00,0.77
4974.00,0.77
4973.00,0.78
4972.00,0.78
4971.00,0.78
4970.00,0.78
4969.00,0.78
4968.00,0.78
4967.00,0.78
4966.00,0.78
4965.00,0.78
4964.00,0.79
4963.00,0.79
4962.00,0.79
4961.00,0.79
4960.00,0.79
4959.00,0.79
4958.00,0.79
4957.00,0.79
4956.00,0.79
4955.00,0.80
4954.00,0.80
4953.00,0.80
4952.00,0.80
4951.00,0.80
4950.00,0.80
4949.00,0.80
4948.00,0.80
4947.00,0.80
4946.00,0.80
4945.00,0.80
4944.00,0.80
4943.00,0.80
4942.00,0.80
4941.00,0.80
4940.00,0.81
4939.00,0.81
4938.00,0.81
4937.00,0.81
4936.00,0.81
4935.00,0.81
4934.00,0.81
4933.00,0.81
4932.00,0.81
4931.00,0.81
4930.00,0.81
4929.00,0.81
4928.00,0.81
4927.00,0.81
4926.00,0.81
4925.00,0.81
4924.00,0.82
4923.00,0.82
4922.00,0.82
4921.00,0.82
4920.00,0.82
4919.00,0.82
4918.00,0.82
4917.00,0.82
4916.00,0.82
4915.00,0.82
4914.00,0.82
4913.00,0.82
4912.00,0.83
4911.00,0.83
4910.00,0.83
4909.00,0.83
4908.00,0.83
4907.00,0.83
4906.00,0.83
4905.00,0.83
4904.00,0.83
4903.00,0.83
4902.00,0.83
4901.00,0.83
4900.00,0.83
4899.00,0.83
4898.00,0.83
4897.00,0.83
4896.00,0.83
4895.00,0.83
4894.00,0.83
4893.00,0.83
4892.00,0.83
4891.00,0.83
4890.00,0.83
4889.00,0.83
4888.00,0.83
4887.00,0.83
4886.00,0.83
4885.00,0.83
4884.00,0.83
4883.00,0.83
4882.00,0.83
4881.00,0.83
4880.00,0.83
4879.00,0.84
4878.00,0.84
4877.00,0.84
4876.00,0.84
4875.00,0.84
4874.00,0.84
4873.00,0.84
4872.00,0.84
4871.00,0.84
4870.00,0.84
4869.00,0.84
4868.00,0.84
4867.00,0.84
4866.00,0.84
4865.00,0.84
4864.00,0.84
4863.00,0.85
4862.00,0.85
4861.00,0.85
4860.00,0.85
4859.00,0.85
4858.00,0.85
4857.00,0.85
4856.00,0.85
4855.00,0.85
4854.00,0.85
4853.00,0.85
4852.00,0.85
4851.00,0.85
4850.00,0.85
4849.00,0.85
4848.00,0.85
4847.00,0.85
4846.00,0.85
4845.00,0.85
4844.00,0.85
4843.00,0.85
4842.00,0.85
4841.00,0.85
4840.00,0.85
4839.00,0.86
4838.00,0.86
4837.00,0.86
4836.00,0.86
4835.00,0.86
4834.00,0.86
4833.00,0.86
4832.00,0.86
4831.00,0.86
4830.00,0.86
4829.00,0.86
4828.00,0.86
4827.00,0.86
4826.00,0.86
4825.00,0.86
4824.00,0.87
4823.00,0.87
4822.00,0.87
4821.00,0.87
4820.00,0.87
4819.00,0.87
4818.00,0.87
4817.00,0.87
4816.00,0.87
4815.00,0.87
4814.00,0.87
4813.00,0.88
4812.00,0.88
4811.00,0.88
4810.00,0.88
4809.00,0.88
4808.00,0.88
4807.00,0.88
4806.00,0.88
4805.00,0.88
4804.00,0.88
4803.00,0.88
4802.00,0.88
4801.00,0.89
4800.00,0.89
4799.00,0.89
4798.00,0.89
4797.00,0.89
4796.00,0.89
4795.00,0.89
4794.00,0.89
4793.00,0.89
4792.00,0.89
4791.00,0.89
4790.00,0.89
4789.00,0.89
4788.00,0.90
4787.00,0.90
4786.00,0.90
4785.00,0.90
4784.00,0.90
4783.00,0.90
4782.00,0.90
4781.00,0.91
4780.00,0.91
4779.00,0.91
4778.00,0.91
4777.00,0.91
4776.00,0.91
4775.00,0.91
4774.00,0.91
4773.00,0.92
4772.00,0.92
4771.00,0.92
4770.00,0.92
4769.00,0.92
4768.00,0.92
4767.00,0.92
4766.00,0.92
4765.00,0.92
4764.00,0.92
4763.00,0.92
4762.00,0.92
4761.00,0.92
4760.00,0.93
4759.00,0.93
4758.00,0.93
4757.00,0.93
4756.00,0.93
4755.00,0.93
4754.00,0.93
4753.00,0.94
4752.00,0.94
4751.00,0.94
4750.00,0.94
4749.00,0.94
4748.00,0.95
4747.00,0.95
4746.00,0.95
4745.00,0.95
4744.00,0.95
4743.00,0.96
4742.00,0.96
4741.00,0.96
4740.00,0.96
4739.00,0.96
4738.00,0.96
4737.00,0.97
4736.00,0.97
4735.00,0.97
4734.00,0.97
4733.00,0.97
4732.00,0.97
4731.00,0.97
4730.00,0.97
4729.00,0.98
4728.00,0.98
4727.00,0.98
4726.00,0.98
4725.00,0.98
4724.00,0.98
4723.00,0.98
4722.00,0.98
4721.00,0.99
4720.00,0.99
4719.00,0.99
4718.00,0.99
4717.00,0.99
4716.00,0.99
4715.00,1.00
4714.00,1.00
4713.00,1.00
4712.00,1.00
4711.00,1.00
4710.00,1.00
4709.00,1.01
4708.00,1.01
4707.00,1.01
4706.00,1.01
4705.00,1.01
4704.00,1.01
4703.00,1.01
4702.00,1.01
4701.00,1.01
4700.00,1.01
4699.00,1.01
4698.00,1.01
4697.00,1.01
4696.00,1.02
4695.00,1.02
4694.00,1.02
4693.00,1.02
4692.00,1.02
4691.00,1.02
4690.00,1.02
4689.00,1.02
4688.00,1.03
4687.00,1.03
4686.00,1.03
4685.00,1.03
4684.00,1.03
4683.00,1.03
4682.00,1.03
4681.00,1.04
4680.00,1.04
4679.00,1.04
4678.00,1.04
4677.00,1.04
4676.00,1.04
4675.00,1.04
4674.00,1.05
4673.00,1.05
4672.00,1.05
4671.00,1.05
4670.00,1.05
4669.00,1.05
4668.00,1.05
4667.00,1.05
4666.00,1.06
4665.00,1.06
4664.00,1.06
4663.00,1.06
4662.00,1.06
4661.00,1.06
4660.00,1.07
4659.00,1.07
4658.00,1.07
4657.00,1.07
4656.00,1.07
4655.00,1.07
4654.00,1.08
4653.00,1.08
4652.00,1.08
4651.00,1.08
4650.00,1.08
4649.00,1.09
4648.00,1.09
4647.00,1.09
4646.00,1.09
4645.00,1.09
4644.00,1.09
4643.00,1.09
4642.00,1.10
4641.00,1.10
4640.00,1.10
4639.00,1.10
4638.00,1.10
4637.00,1.10
4636.00,1.10
4635.00,1.11
4634.00,1.11
4633.00,1.11
4632.00,1.11
4631.00,1.11
4630.00,1.11
4629.00,1.11
4628.00,1.11
4627.00,1.12
4626.00,1.12
4625.00,1.12
4624.00,1.12
4623.00,1.12
4622.00,1.12
4621.00,1.12
4620.00,1.12
4619.00,1.12
4618.00,1.12
4617.00,1.12
4616.00,1.12
4615.00,1.12
4614.00,1.12
4613.00,1.12
4612.00,1.12
4611.00,1.13
4610.00,1.13
4609.00,1.13
4608.00,1.13
4607.00,1.13
4606.00,1.13
4605.00,1.13
4604.00,1.13
4603.00,1.13
4602.00,1.13
4601.00,1.13
4600.00,1.13
4599.00,1.13
4598.00,1.13
4597.00,1.13
4596.00,1.13
4595.00,1.13
4594.00,1.14
4593.00,1.14
4592.00,1.14
4591.00,1.14
4590.00,1.14
4589.00,1.14
4588.00,1.15
4587.00,1.15
4586.00,1.15
4585.00,1.15
4584.00,1.15
4583.00,1.16
4582.00,1.16
4581.00,1.16
4580.00,1.16
4579.00,1.16
4578.00,1.16
4577.00,1.16
4576.00,1.16
4575.00,1.16
4574.00,1.17
4573.00,1.17
4572.00,1.17
4571.00,1.17
4570.00,1.17
4569.00,1.17
4568.00,1.17
4567.00,1.17
4566.00,1.17
4565.00,1.17
4564.00,1.17
4563.00,1.17
4562.00,1.17
4561.00,1.17
4560.00,1.17
4559.00,1.17
4558.00,1.17
4557.00,1.17
4556.00,1.17
4555.00,1.17
4554.00,1.17
4553.00,1.17
4552.00,1.17
4551.00,1.17
4550.00,1.17
4549.00,1.18
4548.00,1.18
4547.00,1.18
4546.00,1.18
4545.00,1.18
4544.00,1.18
4543.00,1.18
4542.00,1.18
4541.00,1.18
4540.00,1.18
4539.00,1.18
4538.00,1.19
4537.00,1.19
4536.00,1.19
4535.00,1.19
4534.00,1.19
4533.00,1.19
4532.00,1.19
4531.00,1.19
4530.00,1.19
4529.00,1.19
4528.00,1.19
4527.00,1.19
4526.00,1.19
4525.00,1.19
4524.00,1.19
4523.00,1.19
4522.00,1.19
4521.00,1.19
4520.00,1.19
4519.00,1.19
4518.00,1.19
4517.00,1.19
4516.00,1.19
4515.00,1.19
4514.00,1.19
4513.00,1.19
4512.00,1.19
4511.00,1.19
4510.00,1.19
4509.00,1.19
4508.00,1.19
4507.00,1.19
4506.00,1.19
4505.00,1.19
4504.00,1.19
4503.00,1.19
4502.00,1.19
4501.00,1.20
4500.00,1.19
4499.00,1.19
4498.00,1.19
4497.00,1.19
4496.00,1.19
4495.00,1.19
4494.00,1.19
4493.00,1.19
4492.00,1.19
4491.00,1.19
4490.00,1.19
4489.00,1.18
4488.00,1.18
4487.00,1.18
4486.00,1.18
4485.00,1.18
4484.00,1.18
4483.00,1.17
4482.00,1.17
4481.00,1.17
4480.00,1.17
4479.00,1.17
4478.00,1.17
4477.00,1.17
4476.00,1.16
4475.00,1.16
4474.00,1.16
4473.00,1.16
4472.00,1.16
4471.00,1.16
4470.00,1.15
4469.00,1.15
4468.00,1.15
4467.00,1.15
4466.00,1.15
4465.00,1.14
4464.00,1.14
4463.00,1.14
4462.00,1.13
4461.00,1.13
4460.00,1.13
4459.00,1.12
4458.00,1.12
4457.00,1.12
4456.00,1.11
4455.00,1.11
4454.00,1.10
4453.00,1.10
4452.00,1.09
4451.00,1.09
4450.00,1.09
4449.00,1.08
4448.00,1.08
4447.00,1.08
4446.00,1.07
4445.00,1.07
4444.00,1.06
4443.00,1.06
4442.00,1.06
4441.00,1.05
4440.00,1.05
4439.00,1.05
4438.00,1.04
4437.00,1.04
4436.00,1.04
4435.00,1.03
4434.00,1.03
4433.00,1.03
4432.00,1.03
4431.00,1.02
4430.00,1.02
4429.00,1.02
4428.00,1.02
4427.00,1.02
4426.00,1.02
4425.00,1.01
4424.00,1.01
4423.00,1.01
4422.00,1.01
4421.00,1.02
4420.00,1.02
4419.00,1.02
4418.00,1.02
4417.00,1.02
4416.00,1.02
4415.00,1.02
4414.00,1.02
4413.00,1.02
4412.00,1.02
4411.00,1.02
4410.00,1.02
4409.00,1.02
4408.00,1.02
4407.00,1.02
4406.00,1.02
4405.00,1.02
4404.00,1.02
4403.00,1.02
4402.00,1.02
4401.00,1.02
4400.00,1.02
4399.00,1.02
4398.00,1.03
4397.00,1.03
4396.00,1.03
4395.00,1.03
4394.00,1.03
4393.00,1.03
4392.00,1.03
4391.00,1.03
4390.00,1.03
4389.00,1.03
4388.00,1.03
4387.00,1.03
4386.00,1.04
4385.00,1.04
4384.00,1.04
4383.00,1.04
4382.00,1.04
4381.00,1.04
4380.00,1.04
4379.00,1.04
4378.00,1.05
4377.00,1.05
4376.00,1.05
4375.00,1.05
4374.00,1.05
4373.00,1.05
4372.00,1.05
4371.00,1.05
4370.00,1.06
4369.00,1.06
4368.00,1.06
4367.00,1.06
4366.00,1.06
4365.00,1.06
4364.00,1.06
4363.00,1.06
4362.00,1.06
4361.00,1.06
4360.00,1.06
4359.00,1.06
4358.00,1.06
4357.00,1.06
4356.00,1.06
4355.00,1.06
4354.00,1.06
4353.00,1.06
4352.00,1.06
4351.00,1.06
4350.00,1.06
4349.00,1.06
4348.00,1.06
4347.00,1.06
4346.00,1.06
4345.00,1.06
4344.00,1.06
4343.00,1.06
4342.00,1.06
4341.00,1.06
4340.00,1.06
4339.00,1.06
4338.00,1.06
4337.00,1.07
4336.00,1.07
4335.00,1.07
4334.00,1.07
4333.00,1.07
4332.00,1.07
4331.00,1.07
4330.00,1.07
4329.00,1.07
4328.00,1.07
4327.00,1.07
4326.00,1.07
4325.00,1.07
4324.00,1.08
4323.00,1.08
4322.00,1.08
4321.00,1.08
4320.00,1.08
4319.00,1.08
4318.00,1.08
4317.00,1.09
4316.00,1.09
4315.00,1.09
4314.00,1.09
4313.00,1.09
4312.00,1.09
4311.00,1.10
4310.00,1.10
4309.00,1.10
4308.00,1.10
4307.00,1.10
4306.00,1.10
4305.00,1.11
4304.00,1.11
4303.00,1.11
4302.00,1.11
4301.00,1.11
4300.00,1.11
4299.00,1.12
4298.00,1.12
4297.00,1.12
4296.00,1.12
4295.00,1.12
4294.00,1.12
4293.00,1.12
4292.00,1.12
4291.00,1.12
4290.00,1.13
4289.00,1.13
4288.00,1.13
4287.00,1.13
4286.00,1.13
4285.00,1.13
4284.00,1.13
4283.00,1.13
4282.00,1.13
4281.00,1.13
4280.00,1.13
4279.00,1.13
4278.00,1.14
4277.00,1.14
4276.00,1.14
4275.00,1.14
4274.00,1.14
4273.00,1.14
4272.00,1.14
4271.00,1.14
4270.00,1.14
4269.00,1.14
4268.00,1.14
4267.00,1.14
4266.00,1.14
4265.00,1.14
4264.00,1.14
4263.00,1.14
4262.00,1.14
4261.00,1.13
4260.00,1.13
4259.00,1.13
4258.00,1.13
4257.00,1.13
4256.00,1.13
4255.00,1.13
4254.00,1.13
4253.00,1.13
4252.00,1.13
4251.00,1.13
4250.00,1.14
4249.00,1.14
4248.00,1.14
4247.00,1.14
4246.00,1.14
4245.00,1.14
4244.00,1.14
4243.00,1.14
4242.00,1.14
4241.00,1.15
4240.00,1.15
4239.00,1.15
4238.00,1.15
4237.00,1.15
4236.00,1.15
4235.00,1.15
4234.00,1.15
4233.00,1.16
4232.00,1.16
4231.00,1.16
4230.00,1.16
4229.00,1.16
4228.00,1.16
4227.00,1.16
4226.00,1.17
4225.00,1.17
4224.00,1.17
4223.00,1.17
4222.00,1.17
4221.00,1.18
4220.00,1.18
4219.00,1.18
4218.00,1.18
4217.00,1.18
4216.00,1.18
4215.00,1.18
4214.00,1.18
4213.00,1.19
4212.00,1.19
4211.00,1.19
4210.00,1.19
4209.00,1.19
4208.00,1.19
4207.00,1.19
4206.00,1.19
4205.00,1.19
4204.00,1.19
4203.00,1.19
4202.00,1.19
4201.00,1.19
4200.00,1.19
4199.00,1.19
4198.00,1.19
4197.00,1.19
4196.00,1.19
4195.00,1.19
4194.00,1.19
4193.00,1.19
4192.00,1.19
4191.00,1.19
4190.00,1.19
4189.00,1.19
4188.00,1.19
4187.00,1.19
4186.00,1.19
4185.00,1.19
4184.00,1.19
4183.00,1.19
4182.00,1.19
4181.00,1.19
4180.00,1.19
4179.00,1.19
4178.00,1.19
4177.00,1.19
4176.00,1.19
4175.00,1.19
4174.00,1.19
4173.00,1.19
4172.00,1.19
4171.00,1.19
4170.00,1.19
4169.00,1.19
4168.00,1.19
4167.00,1.19
4166.00,1.20
4165.00,1.20
4164.00,1.20
4163.00,1.20
4162.00,1.20
4161.00,1.20
4160.00,1.20
4159.00,1.20
4158.00,1.20
4157.00,1.21
4156.00,1.21
4155.00,1.21
4154.00,1.21
4153.00,1.21
4152.00,1.21
4151.00,1.21
4150.00,1.21
4149.00,1.21
4148.00,1.21
4147.00,1.21
4146.00,1.21
4145.00,1.21
4144.00,1.21
4143.00,1.21
4142.00,1.21
4141.00,1.21
4140.00,1.21
4139.00,1.21
4138.00,1.22
4137.00,1.22
4136.00,1.22
4135.00,1.22
4134.00,1.22
4133.00,1.22
4132.00,1.22
4131.00,1.22
4130.00,1.22
4129.00,1.22
4128.00,1.22
4127.00,1.22
4126.00,1.22
4125.00,1.21
4124.00,1.21
4123.00,1.21
4122.00,1.21
4121.00,1.21
4120.00,1.21
4119.00,1.21
4118.00,1.21
4117.00,1.21
4116.00,1.21
4115.00,1.21
4114.00,1.21
4113.00,1.21
4112.00,1.21
4111.00,1.21
4110.00,1.21
4109.00,1.21
4108.00,1.21
4107.00,1.21
4106.00,1.21
4105.00,1.21
4104.00,1.21
4103.00,1.21
4102.00,1.22
4101.00,1.22
4100.00,1.22
4099.00,1.22
4098.00,1.22
4097.00,1.22
4096.00,1.22
4095.00,1.22
4094.00,1.23
4093.00,1.23
4092.00,1.23
4091.00,1.23
4090.00,1.23
4089.00,1.24
4088.00,1.24
4087.00,1.24
4086.00,1.24
4085.00,1.24
4084.00,1.24
4083.00,1.24
4082.00,1.24
4081.00,1.24
4080.00,1.24
4079.00,1.24
4078.00,1.24
4077.00,1.24
4076.00,1.24
4075.00,1.24
4074.00,1.24
4073.00,1.24
4072.00,1.24
4071.00,1.24
4070.00,1.24
4069.00,1.24
4068.00,1.24
4067.00,1.24
4066.00,1.24
4065.00,1.24
4064.00,1.25
4063.00,1.25
4062.00,1.25
4061.00,1.25
4060.00,1.25
4059.00,1.25
4058.00,1.25
4057.00,1.25
4056.00,1.25
4055.00,1.25
4054.00,1.25
4053.00,1.25
4052.00,1.26
4051.00,1.26
4050.00,1.26
4049.00,1.26
4048.00,1.26
4047.00,1.26
4046.00,1.26
4045.00,1.26
4044.00,1.26
4043.00,1.27
4042.00,1.27
4041.00,1.27
4040.00,1.27
4039.00,1.27
4038.00,1.27
4037.00,1.27
4036.00,1.27
4035.00,1.27
4034.00,1.27
4033.00,1.27
4032.00,1.27
4031.00,1.27
4030.00,1.27
4029.00,1.27
4028.00,1.27
4027.00,1.27
4026.00,1.27
4025.00,1.27
4024.00,1.27
4023.00,1.27
4022.00,1.27
4021.00,1.27
4020.00,1.27
4019.00,1.27
4018.00,1.27
4017.00,1.27
4016.00,1.26
4015.00,1.26
4014.00,1.26
4013.00,1.27
4012.00,1.27
4011.00,1.27
4010.00,1.27
4009.00,1.27
4008.00,1.27
4007.00,1.28
4006.00,1.28
4005.00,1.28
4004.00,1.28
4003.00,1.29
4002.00,1.29
4001.00,1.29
4000.00,1.30
