创建为新数据集,样品 143 用户 Administrator 日期 星期三, 十一月 08 2017
cm-1,%T
10000.00,1.48
9999.00,1.48
9998.00,1.48
9997.00,1.48
9996.00,1.48
9995.00,1.48
9994.00,1.48
9993.00,1.47
9992.00,1.47
9991.00,1.47
9990.00,1.47
9989.00,1.47
9988.00,1.47
9987.00,1.47
9986.00,1.47
9985.00,1.47
9984.00,1.47
9983.00,1.47
9982.00,1.47
9981.00,1.47
9980.00,1.47
9979.00,1.46
9978.00,1.46
9977.00,1.46
9976.00,1.46
9975.00,1.46
9974.00,1.46
9973.00,1.46
9972.00,1.46
9971.00,1.46
9970.00,1.46
9969.00,1.46
9968.00,1.46
9967.00,1.46
9966.00,1.46
9965.00,1.45
9964.00,1.45
9963.00,1.45
9962.00,1.45
9961.00,1.45
9960.00,1.45
9959.00,1.45
9958.00,1.45
9957.00,1.45
9956.00,1.45
9955.00,1.45
9954.00,1.45
9953.00,1.45
9952.00,1.45
9951.00,1.45
9950.00,1.45
9949.00,1.45
9948.00,1.45
9947.00,1.46
9946.00,1.46
9945.00,1.46
9944.00,1.46
9943.00,1.46
9942.00,1.47
9941.00,1.47
9940.00,1.47
9939.00,1.47
9938.00,1.47
9937.00,1.47
9936.00,1.47
9935.00,1.47
9934.00,1.47
9933.00,1.47
9932.00,1.47
9931.00,1.47
9930.00,1.46
9929.00,1.46
9928.00,1.46
9927.00,1.46
9926.00,1.46
9925.00,1.46
9924.00,1.46
9923.00,1.46
9922.00,1.46
9921.00,1.46
9920.00,1.46
9919.00,1.46
9918.00,1.46
9917.00,1.46
9916.00,1.46
9915.00,1.46
9914.00,1.46
9913.00,1.46
9912.00,1.46
9911.00,1.46
9910.00,1.46
9909.00,1.46
9908.00,1.46
9907.00,1.46
9906.00,1.46
9905.00,1.46
9904.00,1.46
9903.00,1.46
9902.00,1.46
9901.00,1.45
9900.00,1.45
9899.00,1.45
9898.00,1.45
9897.00,1.45
9896.00,1.45
9895.00,1.45
9894.00,1.45
9893.00,1.45
9892.00,1.46
9891.00,1.46
9890.00,1.46
9889.00,1.46
9888.00,1.46
9887.00,1.47
9886.00,1.47
9885.00,1.47
9884.00,1.47
9883.00,1.47
9882.00,1.48
9881.00,1.48
9880.00,1.48
9879.00,1.48
9878.00,1.48
9877.00,1.48
9876.00,1.48
9875.00,1.48
9874.00,1.48
9873.00,1.48
9872.00,1.48
9871.00,1.48
9870.00,1.47
9869.00,1.47
9868.00,1.47
9867.00,1.47
9866.00,1.47
9865.00,1.47
9864.00,1.47
9863.00,1.47
9862.00,1.47
9861.00,1.47
9860.00,1.47
9859.00,1.47
9858.00,1.47
9857.00,1.47
9856.00,1.47
9855.00,1.47
9854.00,1.47
9853.00,1.47
9852.00,1.47
9851.00,1.47
9850.00,1.46
9849.00,1.46
9848.00,1.46
9847.00,1.46
9846.00,1.46
9845.00,1.46
9844.00,1.46
9843.00,1.45
9842.00,1.45
9841.00,1.45
9840.00,1.45
9839.00,1.45
9838.00,1.45
9837.00,1.45
9836.00,1.45
9835.00,1.45
9834.00,1.46
9833.00,1.46
9832.00,1.46
9831.00,1.46
9830.00,1.46
9829.00,1.46
9828.00,1.46
9827.00,1.46
9826.00,1.46
9825.00,1.46
9824.00,1.46
9823.00,1.46
9822.00,1.46
9821.00,1.46
9820.00,1.46
9819.00,1.46
9818.00,1.46
9817.00,1.46
9816.00,1.45
9815.00,1.45
9814.00,1.45
9813.00,1.45
9812.00,1.45
9811.00,1.45
9810.00,1.45
9809.00,1.45
9808.00,1.45
9807.00,1.45
9806.00,1.45
9805.00,1.45
9804.00,1.46
9803.00,1.46
9802.00,1.46
9801.00,1.46
9800.00,1.46
9799.00,1.46
9798.00,1.46
9797.00,1.47
9796.00,1.47
9795.00,1.47
9794.00,1.47
9793.00,1.47
9792.00,1.47
9791.00,1.47
9790.00,1.47
9789.00,1.47
9788.00,1.47
9787.00,1.47
9786.00,1.47
9785.00,1.47
9784.00,1.48
9783.00,1.48
9782.00,1.48
9781.00,1.48
9780.00,1.48
9779.00,1.48
9778.00,1.48
9777.00,1.48
9776.00,1.48
9775.00,1.48
9774.00,1.48
9773.00,1.48
9772.00,1.48
9771.00,1.48
9770.00,1.48
9769.00,1.48
9768.00,1.48
9767.00,1.48
9766.00,1.47
9765.00,1.47
9764.00,1.47
9763.00,1.47
9762.00,1.47
9761.00,1.46
9760.00,1.46
9759.00,1.46
9758.00,1.46
9757.00,1.45
9756.00,1.45
9755.00,1.45
9754.00,1.45
9753.00,1.44
9752.00,1.44
9751.00,1.44
9750.00,1.44
9749.00,1.44
9748.00,1.44
9747.00,1.44
9746.00,1.44
9745.00,1.44
9744.00,1.44
9743.00,1.44
9742.00,1.44
9741.00,1.45
9740.00,1.45
9739.00,1.45
9738.00,1.45
9737.00,1.45
9736.00,1.45
9735.00,1.45
9734.00,1.45
9733.00,1.45
9732.00,1.45
9731.00,1.44
9730.00,1.44
9729.00,1.44
9728.00,1.44
9727.00,1.44
9726.00,1.43
9725.00,1.43
9724.00,1.43
9723.00,1.43
9722.00,1.43
9721.00,1.43
9720.00,1.43
9719.00,1.43
9718.00,1.43
9717.00,1.43
9716.00,1.43
9715.00,1.43
9714.00,1.43
9713.00,1.44
9712.00,1.44
9711.00,1.44
9710.00,1.44
9709.00,1.44
9708.00,1.44
9707.00,1.45
9706.00,1.45
9705.00,1.45
9704.00,1.45
9703.00,1.45
9702.00,1.45
9701.00,1.45
9700.00,1.45
9699.00,1.45
9698.00,1.45
9697.00,1.45
9696.00,1.45
9695.00,1.45
9694.00,1.45
9693.00,1.45
9692.00,1.45
9691.00,1.45
9690.00,1.45
9689.00,1.45
9688.00,1.45
9687.00,1.45
9686.00,1.45
9685.00,1.45
9684.00,1.45
9683.00,1.45
9682.00,1.45
9681.00,1.45
9680.00,1.45
9679.00,1.45
9678.00,1.45
9677.00,1.45
9676.00,1.45
9675.00,1.45
9674.00,1.45
9673.00,1.45
9672.00,1.45
9671.00,1.45
9670.00,1.45
9669.00,1.45
9668.00,1.46
9667.00,1.46
9666.00,1.46
9665.00,1.46
9664.00,1.45
9663.00,1.45
9662.00,1.45
9661.00,1.45
9660.00,1.45
9659.00,1.45
9658.00,1.45
9657.00,1.45
9656.00,1.45
9655.00,1.44
9654.00,1.44
9653.00,1.44
9652.00,1.44
9651.00,1.44
9650.00,1.44
9649.00,1.44
9648.00,1.44
9647.00,1.44
9646.00,1.44
9645.00,1.45
9644.00,1.45
9643.00,1.45
9642.00,1.45
9641.00,1.45
9640.00,1.45
9639.00,1.45
9638.00,1.45
9637.00,1.45
9636.00,1.45
9635.00,1.45
9634.00,1.45
9633.00,1.45
9632.00,1.45
9631.00,1.45
9630.00,1.45
9629.00,1.45
9628.00,1.45
9627.00,1.45
9626.00,1.45
9625.00,1.45
9624.00,1.45
9623.00,1.45
9622.00,1.45
9621.00,1.45
9620.00,1.45
9619.00,1.45
9618.00,1.45
9617.00,1.45
9616.00,1.45
9615.00,1.45
9614.00,1.45
9613.00,1.45
9612.00,1.45
9611.00,1.45
9610.00,1.45
9609.00,1.45
9608.00,1.45
9607.00,1.45
9606.00,1.45
9605.00,1.45
9604.00,1.45
9603.00,1.45
9602.00,1.45
9601.00,1.45
9600.00,1.46
9599.00,1.46
9598.00,1.46
9597.00,1.46
9596.00,1.46
9595.00,1.46
9594.00,1.46
9593.00,1.46
9592.00,1.46
9591.00,1.46
9590.00,1.46
9589.00,1.46
9588.00,1.46
9587.00,1.46
9586.00,1.46
9585.00,1.46
9584.00,1.46
9583.00,1.45
9582.00,1.45
9581.00,1.45
9580.00,1.45
9579.00,1.45
9578.00,1.45
9577.00,1.45
9576.00,1.45
9575.00,1.45
9574.00,1.45
9573.00,1.45
9572.00,1.45
9571.00,1.45
9570.00,1.45
9569.00,1.45
9568.00,1.45
9567.00,1.45
9566.00,1.45
9565.00,1.45
9564.00,1.45
9563.00,1.45
9562.00,1.45
9561.00,1.46
9560.00,1.46
9559.00,1.46
9558.00,1.46
9557.00,1.46
9556.00,1.46
9555.00,1.46
9554.00,1.46
9553.00,1.46
9552.00,1.46
9551.00,1.46
9550.00,1.46
9549.00,1.47
9548.00,1.47
9547.00,1.47
9546.00,1.47
9545.00,1.47
9544.00,1.47
9543.00,1.47
9542.00,1.47
9541.00,1.47
9540.00,1.47
9539.00,1.47
9538.00,1.47
9537.00,1.47
9536.00,1.47
9535.00,1.47
9534.00,1.47
9533.00,1.47
9532.00,1.47
9531.00,1.47
9530.00,1.47
9529.00,1.47
9528.00,1.47
9527.00,1.47
9526.00,1.47
9525.00,1.47
9524.00,1.47
9523.00,1.47
9522.00,1.47
9521.00,1.47
9520.00,1.47
9519.00,1.47
9518.00,1.47
9517.00,1.47
9516.00,1.47
9515.00,1.47
9514.00,1.47
9513.00,1.47
9512.00,1.47
9511.00,1.46
9510.00,1.46
9509.00,1.46
9508.00,1.46
9507.00,1.46
9506.00,1.46
9505.00,1.46
9504.00,1.46
9503.00,1.45
9502.00,1.45
9501.00,1.45
9500.00,1.45
9499.00,1.45
9498.00,1.46
9497.00,1.46
9496.00,1.46
9495.00,1.46
9494.00,1.46
9493.00,1.46
9492.00,1.46
9491.00,1.46
9490.00,1.46
9489.00,1.46
9488.00,1.46
9487.00,1.45
9486.00,1.45
9485.00,1.45
9484.00,1.45
9483.00,1.45
9482.00,1.45
9481.00,1.44
9480.00,1.44
9479.00,1.44
9478.00,1.44
9477.00,1.44
9476.00,1.44
9475.00,1.44
9474.00,1.44
9473.00,1.45
9472.00,1.45
9471.00,1.45
9470.00,1.45
9469.00,1.46
9468.00,1.46
9467.00,1.46
9466.00,1.46
9465.00,1.47
9464.00,1.47
9463.00,1.47
9462.00,1.47
9461.00,1.48
9460.00,1.48
9459.00,1.48
9458.00,1.48
9457.00,1.48
9456.00,1.48
9455.00,1.48
9454.00,1.48
9453.00,1.48
9452.00,1.47
9451.00,1.47
9450.00,1.47
9449.00,1.47
9448.00,1.47
9447.00,1.47
9446.00,1.46
9445.00,1.46
9444.00,1.46
9443.00,1.46
9442.00,1.46
9441.00,1.46
9440.00,1.46
9439.00,1.46
9438.00,1.46
9437.00,1.46
9436.00,1.46
9435.00,1.46
9434.00,1.46
9433.00,1.46
9432.00,1.46
9431.00,1.46
9430.00,1.46
9429.00,1.46
9428.00,1.46
9427.00,1.46
9426.00,1.46
9425.00,1.46
9424.00,1.46
9423.00,1.46
9422.00,1.45
9421.00,1.45
9420.00,1.45
9419.00,1.45
9418.00,1.45
9417.00,1.45
9416.00,1.45
9415.00,1.45
9414.00,1.45
9413.00,1.44
9412.00,1.44
9411.00,1.44
9410.00,1.44
9409.00,1.44
9408.00,1.44
9407.00,1.45
9406.00,1.45
9405.00,1.45
9404.00,1.45
9403.00,1.45
9402.00,1.45
9401.00,1.45
9400.00,1.45
9399.00,1.45
9398.00,1.45
9397.00,1.45
9396.00,1.45
9395.00,1.45
9394.00,1.45
9393.00,1.45
9392.00,1.45
9391.00,1.45
9390.00,1.45
9389.00,1.45
9388.00,1.45
9387.00,1.46
9386.00,1.46
9385.00,1.46
9384.00,1.46
9383.00,1.46
9382.00,1.46
9381.00,1.46
9380.00,1.46
9379.00,1.46
9378.00,1.46
9377.00,1.46
9376.00,1.46
9375.00,1.46
9374.00,1.45
9373.00,1.45
9372.00,1.45
9371.00,1.45
9370.00,1.45
9369.00,1.45
9368.00,1.45
9367.00,1.45
9366.00,1.44
9365.00,1.44
9364.00,1.44
9363.00,1.44
9362.00,1.44
9361.00,1.44
9360.00,1.43
9359.00,1.43
9358.00,1.43
9357.00,1.43
9356.00,1.43
9355.00,1.43
9354.00,1.43
9353.00,1.43
9352.00,1.43
9351.00,1.43
9350.00,1.43
9349.00,1.43
9348.00,1.43
9347.00,1.43
9346.00,1.43
9345.00,1.43
9344.00,1.44
9343.00,1.44
9342.00,1.44
9341.00,1.44
9340.00,1.44
9339.00,1.44
9338.00,1.44
9337.00,1.44
9336.00,1.45
9335.00,1.45
9334.00,1.45
9333.00,1.45
9332.00,1.45
9331.00,1.45
9330.00,1.45
9329.00,1.45
9328.00,1.45
9327.00,1.45
9326.00,1.45
9325.00,1.46
9324.00,1.46
9323.00,1.46
9322.00,1.46
9321.00,1.46
9320.00,1.46
9319.00,1.46
9318.00,1.46
9317.00,1.46
9316.00,1.46
9315.00,1.46
9314.00,1.46
9313.00,1.46
9312.00,1.46
9311.00,1.46
9310.00,1.46
9309.00,1.46
9308.00,1.46
9307.00,1.46
9306.00,1.46
9305.00,1.46
9304.00,1.46
9303.00,1.46
9302.00,1.46
9301.00,1.46
9300.00,1.46
9299.00,1.46
9298.00,1.46
9297.00,1.46
9296.00,1.46
9295.00,1.46
9294.00,1.46
9293.00,1.46
9292.00,1.46
9291.00,1.46
9290.00,1.46
9289.00,1.46
9288.00,1.46
9287.00,1.46
9286.00,1.46
9285.00,1.46
9284.00,1.47
9283.00,1.47
9282.00,1.47
9281.00,1.47
9280.00,1.47
9279.00,1.47
9278.00,1.47
9277.00,1.47
9276.00,1.47
9275.00,1.47
9274.00,1.47
9273.00,1.47
9272.00,1.47
9271.00,1.47
9270.00,1.47
9269.00,1.47
9268.00,1.47
9267.00,1.46
9266.00,1.46
9265.00,1.46
9264.00,1.46
9263.00,1.46
9262.00,1.46
9261.00,1.46
9260.00,1.46
9259.00,1.46
9258.00,1.45
9257.00,1.45
9256.00,1.45
9255.00,1.45
9254.00,1.45
9253.00,1.46
9252.00,1.46
9251.00,1.46
9250.00,1.46
9249.00,1.46
9248.00,1.46
9247.00,1.46
9246.00,1.46
9245.00,1.46
9244.00,1.46
9243.00,1.46
9242.00,1.46
9241.00,1.46
9240.00,1.46
9239.00,1.45
9238.00,1.45
9237.00,1.45
9236.00,1.45
9235.00,1.45
9234.00,1.45
9233.00,1.45
9232.00,1.44
9231.00,1.44
9230.00,1.44
9229.00,1.44
9228.00,1.44
9227.00,1.44
9226.00,1.44
9225.00,1.44
9224.00,1.44
9223.00,1.43
9222.00,1.43
9221.00,1.43
9220.00,1.43
9219.00,1.43
9218.00,1.43
9217.00,1.43
9216.00,1.43
9215.00,1.43
9214.00,1.43
9213.00,1.43
9212.00,1.43
9211.00,1.43
9210.00,1.43
9209.00,1.43
9208.00,1.43
9207.00,1.43
9206.00,1.43
9205.00,1.44
9204.00,1.44
9203.00,1.44
9202.00,1.44
9201.00,1.45
9200.00,1.45
9199.00,1.45
9198.00,1.46
9197.00,1.46
9196.00,1.46
9195.00,1.46
9194.00,1.46
9193.00,1.46
9192.00,1.47
9191.00,1.47
9190.00,1.47
9189.00,1.47
9188.00,1.47
9187.00,1.47
9186.00,1.47
9185.00,1.46
9184.00,1.46
9183.00,1.46
9182.00,1.46
9181.00,1.46
9180.00,1.46
9179.00,1.46
9178.00,1.46
9177.00,1.46
9176.00,1.46
9175.00,1.46
9174.00,1.46
9173.00,1.46
9172.00,1.46
9171.00,1.46
9170.00,1.46
9169.00,1.46
9168.00,1.46
9167.00,1.46
9166.00,1.46
9165.00,1.46
9164.00,1.46
9163.00,1.46
9162.00,1.46
9161.00,1.46
9160.00,1.46
9159.00,1.46
9158.00,1.46
9157.00,1.47
9156.00,1.47
9155.00,1.47
9154.00,1.47
9153.00,1.47
9152.00,1.47
9151.00,1.47
9150.00,1.47
9149.00,1.47
9148.00,1.47
9147.00,1.47
9146.00,1.47
9145.00,1.47
9144.00,1.47
9143.00,1.47
9142.00,1.47
9141.00,1.46
9140.00,1.46
9139.00,1.46
9138.00,1.46
9137.00,1.45
9136.00,1.45
9135.00,1.45
9134.00,1.45
9133.00,1.45
9132.00,1.44
9131.00,1.44
9130.00,1.44
9129.00,1.44
9128.00,1.44
9127.00,1.44
9126.00,1.45
9125.00,1.45
9124.00,1.45
9123.00,1.45
9122.00,1.45
9121.00,1.45
9120.00,1.45
9119.00,1.46
9118.00,1.46
9117.00,1.46
9116.00,1.46
9115.00,1.46
9114.00,1.46
9113.00,1.46
9112.00,1.46
9111.00,1.46
9110.00,1.46
9109.00,1.46
9108.00,1.46
9107.00,1.46
9106.00,1.46
9105.00,1.46
9104.00,1.46
9103.00,1.46
9102.00,1.46
9101.00,1.46
9100.00,1.46
9099.00,1.46
9098.00,1.46
9097.00,1.46
9096.00,1.46
9095.00,1.46
9094.00,1.46
9093.00,1.46
9092.00,1.46
9091.00,1.46
9090.00,1.46
9089.00,1.46
9088.00,1.46
9087.00,1.46
9086.00,1.46
9085.00,1.46
9084.00,1.46
9083.00,1.46
9082.00,1.46
9081.00,1.46
9080.00,1.46
9079.00,1.46
9078.00,1.46
9077.00,1.46
9076.00,1.46
9075.00,1.46
9074.00,1.46
9073.00,1.46
9072.00,1.46
9071.00,1.46
9070.00,1.46
9069.00,1.46
9068.00,1.46
9067.00,1.46
9066.00,1.46
9065.00,1.46
9064.00,1.46
9063.00,1.46
9062.00,1.46
9061.00,1.46
9060.00,1.46
9059.00,1.46
9058.00,1.46
9057.00,1.46
9056.00,1.46
9055.00,1.46
9054.00,1.46
9053.00,1.46
9052.00,1.46
9051.00,1.46
9050.00,1.46
9049.00,1.46
9048.00,1.46
9047.00,1.46
9046.00,1.46
9045.00,1.46
9044.00,1.46
9043.00,1.46
9042.00,1.46
9041.00,1.46
9040.00,1.46
9039.00,1.46
9038.00,1.47
9037.00,1.47
9036.00,1.47
9035.00,1.47
9034.00,1.47
9033.00,1.47
9032.00,1.47
9031.00,1.47
9030.00,1.47
9029.00,1.47
9028.00,1.47
9027.00,1.47
9026.00,1.47
9025.00,1.47
9024.00,1.47
9023.00,1.47
9022.00,1.46
9021.00,1.46
9020.00,1.46
9019.00,1.46
9018.00,1.46
9017.00,1.46
9016.00,1.46
9015.00,1.46
9014.00,1.46
9013.00,1.45
9012.00,1.45
9011.00,1.45
9010.00,1.45
9009.00,1.45
9008.00,1.45
9007.00,1.45
9006.00,1.45
9005.00,1.45
9004.00,1.45
9003.00,1.45
9002.00,1.45
9001.00,1.45
9000.00,1.45
8999.00,1.45
8998.00,1.45
8997.00,1.45
8996.00,1.45
8995.00,1.45
8994.00,1.45
8993.00,1.45
8992.00,1.46
8991.00,1.46
8990.00,1.46
8989.00,1.46
8988.00,1.46
8987.00,1.46
8986.00,1.46
8985.00,1.46
8984.00,1.46
8983.00,1.46
8982.00,1.47
8981.00,1.47
8980.00,1.47
8979.00,1.47
8978.00,1.47
8977.00,1.47
8976.00,1.47
8975.00,1.47
8974.00,1.47
8973.00,1.47
8972.00,1.47
8971.00,1.47
8970.00,1.47
8969.00,1.47
8968.00,1.47
8967.00,1.47
8966.00,1.47
8965.00,1.47
8964.00,1.47
8963.00,1.47
8962.00,1.46
8961.00,1.46
8960.00,1.46
8959.00,1.46
8958.00,1.46
8957.00,1.46
8956.00,1.46
8955.00,1.46
8954.00,1.46
8953.00,1.46
8952.00,1.46
8951.00,1.46
8950.00,1.46
8949.00,1.46
8948.00,1.46
8947.00,1.46
8946.00,1.46
8945.00,1.46
8944.00,1.46
8943.00,1.46
8942.00,1.46
8941.00,1.46
8940.00,1.46
8939.00,1.46
8938.00,1.46
8937.00,1.46
8936.00,1.46
8935.00,1.46
8934.00,1.46
8933.00,1.46
8932.00,1.46
8931.00,1.46
8930.00,1.46
8929.00,1.46
8928.00,1.46
8927.00,1.46
8926.00,1.46
8925.00,1.46
8924.00,1.47
8923.00,1.47
8922.00,1.47
8921.00,1.47
8920.00,1.47
8919.00,1.47
8918.00,1.47
8917.00,1.48
8916.00,1.48
8915.00,1.48
8914.00,1.48
8913.00,1.48
8912.00,1.48
8911.00,1.48
8910.00,1.48
8909.00,1.48
8908.00,1.47
8907.00,1.47
8906.00,1.47
8905.00,1.47
8904.00,1.47
8903.00,1.47
8902.00,1.46
8901.00,1.46
8900.00,1.46
8899.00,1.46
8898.00,1.45
8897.00,1.45
8896.00,1.45
8895.00,1.45
8894.00,1.45
8893.00,1.45
8892.00,1.44
8891.00,1.44
8890.00,1.44
8889.00,1.44
8888.00,1.44
8887.00,1.44
8886.00,1.44
8885.00,1.44
8884.00,1.45
8883.00,1.45
8882.00,1.45
8881.00,1.45
8880.00,1.45
8879.00,1.45
8878.00,1.46
8877.00,1.46
8876.00,1.46
8875.00,1.46
8874.00,1.46
8873.00,1.46
8872.00,1.46
8871.00,1.46
8870.00,1.46
8869.00,1.46
8868.00,1.46
8867.00,1.46
8866.00,1.46
8865.00,1.46
8864.00,1.46
8863.00,1.46
8862.00,1.46
8861.00,1.46
8860.00,1.46
8859.00,1.45
8858.00,1.45
8857.00,1.45
8856.00,1.45
8855.00,1.45
8854.00,1.45
8853.00,1.45
8852.00,1.45
8851.00,1.45
8850.00,1.46
8849.00,1.46
8848.00,1.46
8847.00,1.46
8846.00,1.46
8845.00,1.45
8844.00,1.45
8843.00,1.45
8842.00,1.45
8841.00,1.45
8840.00,1.45
8839.00,1.45
8838.00,1.45
8837.00,1.44
8836.00,1.44
8835.00,1.44
8834.00,1.44
8833.00,1.44
8832.00,1.44
8831.00,1.44
8830.00,1.43
8829.00,1.43
8828.00,1.43
8827.00,1.43
8826.00,1.43
8825.00,1.44
8824.00,1.44
8823.00,1.44
8822.00,1.44
8821.00,1.44
8820.00,1.44
8819.00,1.44
8818.00,1.45
8817.00,1.45
8816.00,1.45
8815.00,1.45
8814.00,1.45
8813.00,1.45
8812.00,1.45
8811.00,1.45
8810.00,1.45
8809.00,1.45
8808.00,1.45
8807.00,1.45
8806.00,1.45
8805.00,1.45
8804.00,1.44
8803.00,1.44
8802.00,1.44
8801.00,1.44
8800.00,1.44
8799.00,1.44
8798.00,1.43
8797.00,1.43
8796.00,1.43
8795.00,1.43
8794.00,1.43
8793.00,1.43
8792.00,1.43
8791.00,1.43
8790.00,1.43
8789.00,1.43
8788.00,1.43
8787.00,1.42
8786.00,1.42
8785.00,1.42
8784.00,1.42
8783.00,1.42
8782.00,1.42
8781.00,1.43
8780.00,1.43
8779.00,1.43
8778.00,1.43
8777.00,1.43
8776.00,1.43
8775.00,1.43
8774.00,1.43
8773.00,1.43
8772.00,1.43
8771.00,1.43
8770.00,1.43
8769.00,1.43
8768.00,1.42
8767.00,1.42
8766.00,1.42
8765.00,1.42
8764.00,1.42
8763.00,1.42
8762.00,1.42
8761.00,1.42
8760.00,1.41
8759.00,1.41
8758.00,1.41
8757.00,1.41
8756.00,1.41
8755.00,1.41
8754.00,1.41
8753.00,1.41
8752.00,1.41
8751.00,1.41
8750.00,1.41
8749.00,1.41
8748.00,1.41
8747.00,1.41
8746.00,1.41
8745.00,1.41
8744.00,1.41
8743.00,1.41
8742.00,1.41
8741.00,1.41
8740.00,1.41
8739.00,1.41
8738.00,1.41
8737.00,1.41
8736.00,1.41
8735.00,1.41
8734.00,1.41
8733.00,1.41
8732.00,1.41
8731.00,1.41
8730.00,1.41
8729.00,1.41
8728.00,1.41
8727.00,1.41
8726.00,1.41
8725.00,1.41
8724.00,1.41
8723.00,1.41
8722.00,1.41
8721.00,1.41
8720.00,1.41
8719.00,1.40
8718.00,1.40
8717.00,1.40
8716.00,1.40
8715.00,1.40
8714.00,1.40
8713.00,1.40
8712.00,1.40
8711.00,1.40
8710.00,1.40
8709.00,1.40
8708.00,1.40
8707.00,1.40
8706.00,1.40
8705.00,1.40
8704.00,1.40
8703.00,1.40
8702.00,1.40
8701.00,1.40
8700.00,1.40
8699.00,1.40
8698.00,1.40
8697.00,1.40
8696.00,1.40
8695.00,1.40
8694.00,1.41
8693.00,1.41
8692.00,1.41
8691.00,1.41
8690.00,1.41
8689.00,1.41
8688.00,1.41
8687.00,1.41
8686.00,1.41
8685.00,1.41
8684.00,1.41
8683.00,1.41
8682.00,1.41
8681.00,1.41
8680.00,1.41
8679.00,1.41
8678.00,1.41
8677.00,1.41
8676.00,1.41
8675.00,1.41
8674.00,1.41
8673.00,1.41
8672.00,1.41
8671.00,1.42
8670.00,1.42
8669.00,1.42
8668.00,1.42
8667.00,1.42
8666.00,1.42
8665.00,1.42
8664.00,1.42
8663.00,1.42
8662.00,1.42
8661.00,1.42
8660.00,1.42
8659.00,1.42
8658.00,1.41
8657.00,1.41
8656.00,1.41
8655.00,1.41
8654.00,1.41
8653.00,1.41
8652.00,1.40
8651.00,1.40
8650.00,1.40
8649.00,1.40
8648.00,1.40
8647.00,1.40
8646.00,1.40
8645.00,1.40
8644.00,1.40
8643.00,1.40
8642.00,1.40
8641.00,1.40
8640.00,1.40
8639.00,1.40
8638.00,1.40
8637.00,1.40
8636.00,1.40
8635.00,1.40
8634.00,1.40
8633.00,1.40
8632.00,1.40
8631.00,1.40
8630.00,1.40
8629.00,1.40
8628.00,1.40
8627.00,1.40
8626.00,1.40
8625.00,1.40
8624.00,1.40
8623.00,1.40
8622.00,1.39
8621.00,1.39
8620.00,1.39
8619.00,1.39
8618.00,1.39
8617.00,1.39
8616.00,1.39
8615.00,1.39
8614.00,1.39
8613.00,1.39
8612.00,1.39
8611.00,1.39
8610.00,1.38
8609.00,1.38
8608.00,1.38
8607.00,1.38
8606.00,1.38
8605.00,1.38
8604.00,1.38
8603.00,1.38
8602.00,1.38
8601.00,1.38
8600.00,1.38
8599.00,1.38
8598.00,1.38
8597.00,1.38
8596.00,1.38
8595.00,1.38
8594.00,1.38
8593.00,1.38
8592.00,1.38
8591.00,1.38
8590.00,1.38
8589.00,1.38
8588.00,1.38
8587.00,1.38
8586.00,1.38
8585.00,1.38
8584.00,1.38
8583.00,1.38
8582.00,1.38
8581.00,1.38
8580.00,1.38
8579.00,1.38
8578.00,1.38
8577.00,1.38
8576.00,1.38
8575.00,1.38
8574.00,1.38
8573.00,1.38
8572.00,1.38
8571.00,1.39
8570.00,1.39
8569.00,1.39
8568.00,1.39
8567.00,1.39
8566.00,1.39
8565.00,1.39
8564.00,1.39
8563.00,1.39
8562.00,1.38
8561.00,1.38
8560.00,1.38
8559.00,1.38
8558.00,1.38
8557.00,1.38
8556.00,1.38
8555.00,1.38
8554.00,1.38
8553.00,1.38
8552.00,1.38
8551.00,1.37
8550.00,1.37
8549.00,1.37
8548.00,1.37
8547.00,1.37
8546.00,1.37
8545.00,1.37
8544.00,1.37
8543.00,1.37
8542.00,1.37
8541.00,1.36
8540.00,1.36
8539.00,1.36
8538.00,1.36
8537.00,1.36
8536.00,1.36
8535.00,1.36
8534.00,1.36
8533.00,1.36
8532.00,1.36
8531.00,1.36
8530.00,1.36
8529.00,1.36
8528.00,1.36
8527.00,1.36
8526.00,1.36
8525.00,1.36
8524.00,1.36
8523.00,1.36
8522.00,1.36
8521.00,1.36
8520.00,1.36
8519.00,1.36
8518.00,1.36
8517.00,1.36
8516.00,1.36
8515.00,1.36
8514.00,1.36
8513.00,1.36
8512.00,1.36
8511.00,1.36
8510.00,1.36
8509.00,1.36
8508.00,1.36
8507.00,1.36
8506.00,1.36
8505.00,1.36
8504.00,1.36
8503.00,1.36
8502.00,1.36
8501.00,1.36
8500.00,1.36
8499.00,1.36
8498.00,1.36
8497.00,1.36
8496.00,1.36
8495.00,1.36
8494.00,1.36
8493.00,1.36
8492.00,1.36
8491.00,1.36
8490.00,1.35
8489.00,1.35
8488.00,1.35
8487.00,1.35
8486.00,1.35
8485.00,1.35
8484.00,1.34
8483.00,1.34
8482.00,1.34
8481.00,1.34
8480.00,1.34
8479.00,1.34
8478.00,1.34
8477.00,1.33
8476.00,1.33
8475.00,1.33
8474.00,1.33
8473.00,1.33
8472.00,1.33
8471.00,1.33
8470.00,1.33
8469.00,1.33
8468.00,1.32
8467.00,1.32
8466.00,1.32
8465.00,1.32
8464.00,1.32
8463.00,1.32
8462.00,1.32
8461.00,1.32
8460.00,1.31
8459.00,1.31
8458.00,1.31
8457.00,1.31
8456.00,1.31
8455.00,1.31
8454.00,1.31
8453.00,1.31
8452.00,1.31
8451.00,1.31
8450.00,1.31
8449.00,1.31
8448.00,1.31
8447.00,1.31
8446.00,1.31
8445.00,1.31
8444.00,1.31
8443.00,1.31
8442.00,1.31
8441.00,1.31
8440.00,1.31
8439.00,1.31
8438.00,1.31
8437.00,1.31
8436.00,1.31
8435.00,1.31
8434.00,1.31
8433.00,1.31
8432.00,1.31
8431.00,1.31
8430.00,1.31
8429.00,1.31
8428.00,1.31
8427.00,1.31
8426.00,1.31
8425.00,1.31
8424.00,1.31
8423.00,1.31
8422.00,1.31
8421.00,1.32
8420.00,1.32
8419.00,1.32
8418.00,1.32
8417.00,1.32
8416.00,1.32
8415.00,1.32
8414.00,1.32
8413.00,1.32
8412.00,1.33
8411.00,1.33
8410.00,1.33
8409.00,1.33
8408.00,1.33
8407.00,1.33
8406.00,1.33
8405.00,1.33
8404.00,1.33
8403.00,1.33
8402.00,1.33
8401.00,1.33
8400.00,1.33
8399.00,1.33
8398.00,1.33
8397.00,1.33
8396.00,1.33
8395.00,1.33
8394.00,1.33
8393.00,1.33
8392.00,1.33
8391.00,1.33
8390.00,1.33
8389.00,1.33
8388.00,1.33
8387.00,1.33
8386.00,1.33
8385.00,1.33
8384.00,1.33
8383.00,1.33
8382.00,1.33
8381.00,1.33
8380.00,1.33
8379.00,1.33
8378.00,1.33
8377.00,1.33
8376.00,1.33
8375.00,1.34
8374.00,1.34
8373.00,1.34
8372.00,1.34
8371.00,1.34
8370.00,1.34
8369.00,1.34
8368.00,1.34
8367.00,1.34
8366.00,1.34
8365.00,1.34
8364.00,1.34
8363.00,1.34
8362.00,1.34
8361.00,1.34
8360.00,1.34
8359.00,1.34
8358.00,1.34
8357.00,1.34
8356.00,1.34
8355.00,1.34
8354.00,1.34
8353.00,1.34
8352.00,1.34
8351.00,1.34
8350.00,1.34
8349.00,1.34
8348.00,1.34
8347.00,1.34
8346.00,1.34
8345.00,1.34
8344.00,1.34
8343.00,1.34
8342.00,1.34
8341.00,1.34
8340.00,1.34
8339.00,1.34
8338.00,1.34
8337.00,1.34
8336.00,1.34
8335.00,1.34
8334.00,1.34
8333.00,1.34
8332.00,1.34
8331.00,1.34
8330.00,1.34
8329.00,1.34
8328.00,1.34
8327.00,1.34
8326.00,1.35
8325.00,1.35
8324.00,1.35
8323.00,1.35
8322.00,1.35
8321.00,1.35
8320.00,1.35
8319.00,1.35
8318.00,1.35
8317.00,1.35
8316.00,1.35
8315.00,1.35
8314.00,1.35
8313.00,1.35
8312.00,1.35
8311.00,1.35
8310.00,1.35
8309.00,1.35
8308.00,1.35
8307.00,1.35
8306.00,1.35
8305.00,1.35
8304.00,1.35
8303.00,1.35
8302.00,1.35
8301.00,1.35
8300.00,1.35
8299.00,1.35
8298.00,1.35
8297.00,1.35
8296.00,1.35
8295.00,1.35
8294.00,1.35
8293.00,1.35
8292.00,1.35
8291.00,1.35
8290.00,1.35
8289.00,1.35
8288.00,1.35
8287.00,1.35
8286.00,1.35
8285.00,1.35
8284.00,1.35
8283.00,1.36
8282.00,1.36
8281.00,1.36
8280.00,1.36
8279.00,1.36
8278.00,1.36
8277.00,1.36
8276.00,1.36
8275.00,1.36
8274.00,1.36
8273.00,1.36
8272.00,1.36
8271.00,1.36
8270.00,1.36
8269.00,1.36
8268.00,1.36
8267.00,1.36
8266.00,1.36
8265.00,1.36
8264.00,1.36
8263.00,1.36
8262.00,1.36
8261.00,1.36
8260.00,1.36
8259.00,1.36
8258.00,1.36
8257.00,1.36
8256.00,1.36
8255.00,1.36
8254.00,1.36
8253.00,1.36
8252.00,1.36
8251.00,1.36
8250.00,1.36
8249.00,1.36
8248.00,1.37
8247.00,1.37
8246.00,1.37
8245.00,1.37
8244.00,1.37
8243.00,1.37
8242.00,1.37
8241.00,1.38
8240.00,1.38
8239.00,1.38
8238.00,1.38
8237.00,1.38
8236.00,1.38
8235.00,1.38
8234.00,1.38
8233.00,1.38
8232.00,1.38
8231.00,1.38
8230.00,1.38
8229.00,1.38
8228.00,1.38
8227.00,1.38
8226.00,1.38
8225.00,1.38
8224.00,1.38
8223.00,1.38
8222.00,1.38
8221.00,1.38
8220.00,1.38
8219.00,1.38
8218.00,1.38
8217.00,1.38
8216.00,1.38
8215.00,1.38
8214.00,1.39
8213.00,1.39
8212.00,1.39
8211.00,1.39
8210.00,1.39
8209.00,1.39
8208.00,1.39
8207.00,1.39
8206.00,1.39
8205.00,1.39
8204.00,1.39
8203.00,1.39
8202.00,1.39
8201.00,1.39
8200.00,1.39
8199.00,1.39
8198.00,1.39
8197.00,1.39
8196.00,1.39
8195.00,1.39
8194.00,1.39
8193.00,1.39
8192.00,1.39
8191.00,1.39
8190.00,1.39
8189.00,1.39
8188.00,1.39
8187.00,1.39
8186.00,1.39
8185.00,1.39
8184.00,1.40
8183.00,1.40
8182.00,1.40
8181.00,1.40
8180.00,1.40
8179.00,1.40
8178.00,1.40
8177.00,1.40
8176.00,1.40
8175.00,1.40
8174.00,1.40
8173.00,1.40
8172.00,1.40
8171.00,1.40
8170.00,1.40
8169.00,1.40
8168.00,1.40
8167.00,1.40
8166.00,1.40
8165.00,1.40
8164.00,1.40
8163.00,1.40
8162.00,1.40
8161.00,1.40
8160.00,1.40
8159.00,1.40
8158.00,1.39
8157.00,1.39
8156.00,1.39
8155.00,1.39
8154.00,1.39
8153.00,1.39
8152.00,1.39
8151.00,1.40
8150.00,1.40
8149.00,1.40
8148.00,1.40
8147.00,1.40
8146.00,1.40
8145.00,1.40
8144.00,1.40
8143.00,1.40
8142.00,1.40
8141.00,1.40
8140.00,1.41
8139.00,1.41
8138.00,1.41
8137.00,1.41
8136.00,1.41
8135.00,1.41
8134.00,1.41
8133.00,1.41
8132.00,1.41
8131.00,1.41
8130.00,1.41
8129.00,1.41
8128.00,1.41
8127.00,1.41
8126.00,1.41
8125.00,1.41
8124.00,1.41
8123.00,1.41
8122.00,1.41
8121.00,1.41
8120.00,1.41
8119.00,1.41
8118.00,1.41
8117.00,1.41
8116.00,1.41
8115.00,1.41
8114.00,1.41
8113.00,1.41
8112.00,1.41
8111.00,1.41
8110.00,1.41
8109.00,1.41
8108.00,1.42
8107.00,1.42
8106.00,1.42
8105.00,1.42
8104.00,1.42
8103.00,1.42
8102.00,1.42
8101.00,1.42
8100.00,1.42
8099.00,1.42
8098.00,1.42
8097.00,1.42
8096.00,1.42
8095.00,1.42
8094.00,1.42
8093.00,1.42
8092.00,1.42
8091.00,1.42
8090.00,1.42
8089.00,1.42
8088.00,1.42
8087.00,1.42
8086.00,1.42
8085.00,1.42
8084.00,1.42
8083.00,1.42
8082.00,1.42
8081.00,1.42
8080.00,1.42
8079.00,1.43
8078.00,1.43
8077.00,1.43
8076.00,1.43
8075.00,1.43
8074.00,1.43
8073.00,1.43
8072.00,1.43
8071.00,1.43
8070.00,1.43
8069.00,1.43
8068.00,1.43
8067.00,1.43
8066.00,1.43
8065.00,1.43
8064.00,1.43
8063.00,1.44
8062.00,1.44
8061.00,1.44
8060.00,1.44
8059.00,1.44
8058.00,1.44
8057.00,1.44
8056.00,1.44
8055.00,1.44
8054.00,1.44
8053.00,1.44
8052.00,1.44
8051.00,1.44
8050.00,1.44
8049.00,1.44
8048.00,1.44
8047.00,1.44
8046.00,1.44
8045.00,1.44
8044.00,1.44
8043.00,1.44
8042.00,1.44
8041.00,1.44
8040.00,1.44
8039.00,1.44
8038.00,1.44
8037.00,1.44
8036.00,1.44
8035.00,1.44
8034.00,1.44
8033.00,1.44
8032.00,1.44
8031.00,1.44
8030.00,1.44
8029.00,1.44
8028.00,1.44
8027.00,1.44
8026.00,1.44
8025.00,1.44
8024.00,1.44
8023.00,1.44
8022.00,1.44
8021.00,1.44
8020.00,1.44
8019.00,1.44
8018.00,1.44
8017.00,1.44
8016.00,1.43
8015.00,1.43
8014.00,1.43
8013.00,1.43
8012.00,1.43
8011.00,1.43
8010.00,1.43
8009.00,1.43
8008.00,1.43
8007.00,1.43
8006.00,1.43
8005.00,1.43
8004.00,1.43
8003.00,1.43
8002.00,1.43
8001.00,1.43
8000.00,1.43
7999.00,1.43
7998.00,1.43
7997.00,1.43
7996.00,1.44
7995.00,1.44
7994.00,1.44
7993.00,1.44
7992.00,1.44
7991.00,1.44
7990.00,1.44
7989.00,1.44
7988.00,1.44
7987.00,1.44
7986.00,1.44
7985.00,1.43
7984.00,1.43
7983.00,1.43
7982.00,1.43
7981.00,1.43
7980.00,1.43
7979.00,1.43
7978.00,1.43
7977.00,1.43
7976.00,1.43
7975.00,1.43
7974.00,1.43
7973.00,1.43
7972.00,1.44
7971.00,1.44
7970.00,1.44
7969.00,1.44
7968.00,1.44
7967.00,1.44
7966.00,1.44
7965.00,1.45
7964.00,1.45
7963.00,1.45
7962.00,1.45
7961.00,1.45
7960.00,1.45
7959.00,1.45
7958.00,1.45
7957.00,1.46
7956.00,1.46
7955.00,1.46
7954.00,1.46
7953.00,1.46
7952.00,1.46
7951.00,1.46
7950.00,1.46
7949.00,1.46
7948.00,1.46
7947.00,1.46
7946.00,1.46
7945.00,1.46
7944.00,1.46
7943.00,1.46
7942.00,1.46
7941.00,1.46
7940.00,1.46
7939.00,1.46
7938.00,1.46
7937.00,1.46
7936.00,1.46
7935.00,1.46
7934.00,1.46
7933.00,1.46
7932.00,1.46
7931.00,1.46
7930.00,1.46
7929.00,1.46
7928.00,1.46
7927.00,1.46
7926.00,1.46
7925.00,1.46
7924.00,1.46
7923.00,1.46
7922.00,1.46
7921.00,1.46
7920.00,1.46
7919.00,1.46
7918.00,1.46
7917.00,1.46
7916.00,1.46
7915.00,1.46
7914.00,1.46
7913.00,1.46
7912.00,1.46
7911.00,1.46
7910.00,1.46
7909.00,1.46
7908.00,1.46
7907.00,1.46
7906.00,1.46
7905.00,1.46
7904.00,1.46
7903.00,1.46
7902.00,1.46
7901.00,1.46
7900.00,1.46
7899.00,1.46
7898.00,1.45
7897.00,1.45
7896.00,1.45
7895.00,1.45
7894.00,1.45
7893.00,1.45
7892.00,1.45
7891.00,1.45
7890.00,1.45
7889.00,1.45
7888.00,1.45
7887.00,1.45
7886.00,1.45
7885.00,1.45
7884.00,1.45
7883.00,1.45
7882.00,1.45
7881.00,1.46
7880.00,1.46
7879.00,1.46
7878.00,1.46
7877.00,1.46
7876.00,1.46
7875.00,1.46
7874.00,1.46
7873.00,1.46
7872.00,1.46
7871.00,1.46
7870.00,1.46
7869.00,1.46
7868.00,1.46
7867.00,1.46
7866.00,1.46
7865.00,1.46
7864.00,1.46
7863.00,1.46
7862.00,1.46
7861.00,1.46
7860.00,1.46
7859.00,1.46
7858.00,1.46
7857.00,1.46
7856.00,1.46
7855.00,1.46
7854.00,1.46
7853.00,1.46
7852.00,1.46
7851.00,1.46
7850.00,1.46
7849.00,1.46
7848.00,1.46
7847.00,1.46
7846.00,1.46
7845.00,1.46
7844.00,1.46
7843.00,1.46
7842.00,1.47
7841.00,1.47
7840.00,1.47
7839.00,1.47
7838.00,1.47
7837.00,1.47
7836.00,1.47
7835.00,1.47
7834.00,1.47
7833.00,1.47
7832.00,1.47
7831.00,1.47
7830.00,1.47
7829.00,1.47
7828.00,1.47
7827.00,1.47
7826.00,1.46
7825.00,1.46
7824.00,1.46
7823.00,1.46
7822.00,1.46
7821.00,1.46
7820.00,1.46
7819.00,1.46
7818.00,1.46
7817.00,1.46
7816.00,1.46
7815.00,1.46
7814.00,1.46
7813.00,1.46
7812.00,1.46
7811.00,1.46
7810.00,1.46
7809.00,1.46
7808.00,1.46
7807.00,1.46
7806.00,1.46
7805.00,1.46
7804.00,1.46
7803.00,1.46
7802.00,1.46
7801.00,1.47
7800.00,1.47
7799.00,1.47
7798.00,1.47
7797.00,1.47
7796.00,1.47
7795.00,1.47
7794.00,1.47
7793.00,1.47
7792.00,1.47
7791.00,1.47
7790.00,1.47
7789.00,1.47
7788.00,1.47
7787.00,1.47
7786.00,1.47
7785.00,1.47
7784.00,1.47
7783.00,1.47
7782.00,1.47
7781.00,1.47
7780.00,1.47
7779.00,1.47
7778.00,1.47
7777.00,1.47
7776.00,1.47
7775.00,1.47
7774.00,1.47
7773.00,1.47
7772.00,1.47
7771.00,1.47
7770.00,1.47
7769.00,1.47
7768.00,1.47
7767.00,1.47
7766.00,1.47
7765.00,1.47
7764.00,1.47
7763.00,1.47
7762.00,1.47
7761.00,1.47
7760.00,1.47
7759.00,1.47
7758.00,1.47
7757.00,1.47
7756.00,1.47
7755.00,1.47
7754.00,1.47
7753.00,1.47
7752.00,1.47
7751.00,1.47
7750.00,1.47
7749.00,1.47
7748.00,1.47
7747.00,1.47
7746.00,1.47
7745.00,1.47
7744.00,1.47
7743.00,1.47
7742.00,1.47
7741.00,1.47
7740.00,1.47
7739.00,1.47
7738.00,1.47
7737.00,1.47
7736.00,1.47
7735.00,1.47
7734.00,1.47
7733.00,1.47
7732.00,1.47
7731.00,1.47
7730.00,1.47
7729.00,1.48
7728.00,1.48
7727.00,1.48
7726.00,1.48
7725.00,1.48
7724.00,1.48
7723.00,1.48
7722.00,1.48
7721.00,1.48
7720.00,1.48
7719.00,1.48
7718.00,1.48
7717.00,1.48
7716.00,1.48
7715.00,1.48
7714.00,1.48
7713.00,1.48
7712.00,1.48
7711.00,1.48
7710.00,1.48
7709.00,1.48
7708.00,1.48
7707.00,1.48
7706.00,1.47
7705.00,1.47
7704.00,1.47
7703.00,1.47
7702.00,1.47
7701.00,1.47
7700.00,1.47
7699.00,1.47
7698.00,1.47
7697.00,1.47
7696.00,1.47
7695.00,1.47
7694.00,1.47
7693.00,1.47
7692.00,1.47
7691.00,1.47
7690.00,1.47
7689.00,1.47
7688.00,1.47
7687.00,1.47
7686.00,1.47
7685.00,1.48
7684.00,1.48
7683.00,1.48
7682.00,1.48
7681.00,1.48
7680.00,1.48
7679.00,1.48
7678.00,1.48
7677.00,1.48
7676.00,1.48
7675.00,1.48
7674.00,1.48
7673.00,1.48
7672.00,1.48
7671.00,1.48
7670.00,1.48
7669.00,1.48
7668.00,1.48
7667.00,1.48
7666.00,1.48
7665.00,1.48
7664.00,1.48
7663.00,1.48
7662.00,1.48
7661.00,1.48
7660.00,1.48
7659.00,1.48
7658.00,1.48
7657.00,1.48
7656.00,1.48
7655.00,1.48
7654.00,1.48
7653.00,1.48
7652.00,1.48
7651.00,1.48
7650.00,1.48
7649.00,1.48
7648.00,1.48
7647.00,1.48
7646.00,1.48
7645.00,1.48
7644.00,1.48
7643.00,1.48
7642.00,1.48
7641.00,1.48
7640.00,1.48
7639.00,1.48
7638.00,1.48
7637.00,1.48
7636.00,1.48
7635.00,1.48
7634.00,1.48
7633.00,1.48
7632.00,1.48
7631.00,1.48
7630.00,1.48
7629.00,1.48
7628.00,1.48
7627.00,1.48
7626.00,1.48
7625.00,1.48
7624.00,1.48
7623.00,1.48
7622.00,1.48
7621.00,1.48
7620.00,1.48
7619.00,1.48
7618.00,1.48
7617.00,1.48
7616.00,1.48
7615.00,1.48
7614.00,1.48
7613.00,1.48
7612.00,1.48
7611.00,1.48
7610.00,1.48
7609.00,1.48
7608.00,1.48
7607.00,1.48
7606.00,1.48
7605.00,1.47
7604.00,1.47
7603.00,1.47
7602.00,1.47
7601.00,1.47
7600.00,1.47
7599.00,1.47
7598.00,1.47
7597.00,1.47
7596.00,1.47
7595.00,1.47
7594.00,1.47
7593.00,1.47
7592.00,1.47
7591.00,1.47
7590.00,1.47
7589.00,1.47
7588.00,1.47
7587.00,1.47
7586.00,1.47
7585.00,1.47
7584.00,1.47
7583.00,1.47
7582.00,1.47
7581.00,1.47
7580.00,1.47
7579.00,1.47
7578.00,1.47
7577.00,1.47
7576.00,1.47
7575.00,1.47
7574.00,1.47
7573.00,1.47
7572.00,1.47
7571.00,1.47
7570.00,1.47
7569.00,1.47
7568.00,1.47
7567.00,1.47
7566.00,1.47
7565.00,1.47
7564.00,1.47
7563.00,1.47
7562.00,1.47
7561.00,1.47
7560.00,1.47
7559.00,1.47
7558.00,1.47
7557.00,1.48
7556.00,1.48
7555.00,1.48
7554.00,1.48
7553.00,1.48
7552.00,1.48
7551.00,1.48
7550.00,1.48
7549.00,1.48
7548.00,1.48
7547.00,1.48
7546.00,1.48
7545.00,1.48
7544.00,1.48
7543.00,1.48
7542.00,1.48
7541.00,1.48
7540.00,1.48
7539.00,1.48
7538.00,1.48
7537.00,1.48
7536.00,1.48
7535.00,1.48
7534.00,1.48
7533.00,1.48
7532.00,1.47
7531.00,1.47
7530.00,1.47
7529.00,1.47
7528.00,1.47
7527.00,1.47
7526.00,1.47
7525.00,1.47
7524.00,1.47
7523.00,1.47
7522.00,1.47
7521.00,1.47
7520.00,1.47
7519.00,1.47
7518.00,1.47
7517.00,1.47
7516.00,1.47
7515.00,1.47
7514.00,1.47
7513.00,1.46
7512.00,1.46
7511.00,1.46
7510.00,1.46
7509.00,1.46
7508.00,1.46
7507.00,1.46
7506.00,1.46
7505.00,1.46
7504.00,1.46
7503.00,1.46
7502.00,1.46
7501.00,1.46
7500.00,1.46
7499.00,1.46
7498.00,1.46
7497.00,1.46
7496.00,1.46
7495.00,1.46
7494.00,1.46
7493.00,1.46
7492.00,1.46
7491.00,1.46
7490.00,1.46
7489.00,1.46
7488.00,1.46
7487.00,1.46
7486.00,1.45
7485.00,1.45
7484.00,1.45
7483.00,1.45
7482.00,1.45
7481.00,1.45
7480.00,1.44
7479.00,1.44
7478.00,1.44
7477.00,1.44
7476.00,1.44
7475.00,1.44
7474.00,1.44
7473.00,1.44
7472.00,1.44
7471.00,1.44
7470.00,1.44
7469.00,1.44
7468.00,1.44
7467.00,1.44
7466.00,1.44
7465.00,1.44
7464.00,1.44
7463.00,1.44
7462.00,1.44
7461.00,1.44
7460.00,1.44
7459.00,1.44
7458.00,1.44
7457.00,1.44
7456.00,1.44
7455.00,1.44
7454.00,1.44
7453.00,1.44
7452.00,1.44
7451.00,1.44
7450.00,1.44
7449.00,1.44
7448.00,1.43
7447.00,1.43
7446.00,1.43
7445.00,1.43
7444.00,1.43
7443.00,1.43
7442.00,1.43
7441.00,1.43
7440.00,1.43
7439.00,1.43
7438.00,1.43
7437.00,1.43
7436.00,1.43
7435.00,1.43
7434.00,1.43
7433.00,1.43
7432.00,1.43
7431.00,1.43
7430.00,1.43
7429.00,1.43
7428.00,1.43
7427.00,1.43
7426.00,1.43
7425.00,1.43
7424.00,1.43
7423.00,1.43
7422.00,1.42
7421.00,1.42
7420.00,1.42
7419.00,1.42
7418.00,1.42
7417.00,1.42
7416.00,1.42
7415.00,1.42
7414.00,1.42
7413.00,1.42
7412.00,1.42
7411.00,1.42
7410.00,1.42
7409.00,1.42
7408.00,1.42
7407.00,1.42
7406.00,1.42
7405.00,1.41
7404.00,1.41
7403.00,1.41
7402.00,1.41
7401.00,1.41
7400.00,1.41
7399.00,1.41
7398.00,1.41
7397.00,1.40
7396.00,1.40
7395.00,1.40
7394.00,1.40
7393.00,1.40
7392.00,1.40
7391.00,1.40
7390.00,1.39
7389.00,1.39
7388.00,1.39
7387.00,1.39
7386.00,1.39
7385.00,1.39
7384.00,1.39
7383.00,1.39
7382.00,1.39
7381.00,1.39
7380.00,1.38
7379.00,1.38
7378.00,1.38
7377.00,1.38
7376.00,1.38
7375.00,1.38
7374.00,1.38
7373.00,1.38
7372.00,1.38
7371.00,1.38
7370.00,1.38
7369.00,1.38
7368.00,1.38
7367.00,1.38
7366.00,1.38
7365.00,1.38
7364.00,1.38
7363.00,1.38
7362.00,1.38
7361.00,1.38
7360.00,1.38
7359.00,1.38
7358.00,1.39
7357.00,1.39
7356.00,1.39
7355.00,1.39
7354.00,1.39
7353.00,1.39
7352.00,1.39
7351.00,1.39
7350.00,1.39
7349.00,1.38
7348.00,1.38
7347.00,1.38
7346.00,1.38
7345.00,1.38
7344.00,1.38
7343.00,1.38
7342.00,1.38
7341.00,1.38
7340.00,1.38
7339.00,1.38
7338.00,1.38
7337.00,1.38
7336.00,1.38
7335.00,1.38
7334.00,1.38
7333.00,1.38
7332.00,1.38
7331.00,1.38
7330.00,1.38
7329.00,1.38
7328.00,1.38
7327.00,1.38
7326.00,1.38
7325.00,1.38
7324.00,1.38
7323.00,1.38
7322.00,1.38
7321.00,1.38
7320.00,1.38
7319.00,1.38
7318.00,1.37
7317.00,1.37
7316.00,1.37
7315.00,1.37
7314.00,1.37
7313.00,1.37
7312.00,1.37
7311.00,1.37
7310.00,1.36
7309.00,1.36
7308.00,1.36
7307.00,1.36
7306.00,1.36
7305.00,1.36
7304.00,1.36
7303.00,1.36
7302.00,1.36
7301.00,1.35
7300.00,1.35
7299.00,1.35
7298.00,1.35
7297.00,1.35
7296.00,1.35
7295.00,1.35
7294.00,1.35
7293.00,1.35
7292.00,1.35
7291.00,1.35
7290.00,1.35
7289.00,1.35
7288.00,1.35
7287.00,1.34
7286.00,1.34
7285.00,1.34
7284.00,1.34
7283.00,1.34
7282.00,1.34
7281.00,1.34
7280.00,1.34
7279.00,1.34
7278.00,1.34
7277.00,1.33
7276.00,1.33
7275.00,1.33
7274.00,1.33
7273.00,1.33
7272.00,1.32
7271.00,1.32
7270.00,1.32
7269.00,1.32
7268.00,1.32
7267.00,1.31
7266.00,1.31
7265.00,1.31
7264.00,1.31
7263.00,1.31
7262.00,1.31
7261.00,1.30
7260.00,1.30
7259.00,1.30
7258.00,1.30
7257.00,1.30
7256.00,1.30
7255.00,1.30
7254.00,1.30
7253.00,1.30
7252.00,1.30
7251.00,1.29
7250.00,1.29
7249.00,1.29
7248.00,1.29
7247.00,1.29
7246.00,1.29
7245.00,1.29
7244.00,1.28
7243.00,1.28
7242.00,1.28
7241.00,1.28
7240.00,1.28
7239.00,1.27
7238.00,1.27
7237.00,1.27
7236.00,1.27
7235.00,1.26
7234.00,1.26
7233.00,1.26
7232.00,1.26
7231.00,1.25
7230.00,1.25
7229.00,1.25
7228.00,1.24
7227.00,1.24
7226.00,1.24
7225.00,1.24
7224.00,1.23
7223.00,1.23
7222.00,1.23
7221.00,1.22
7220.00,1.22
7219.00,1.22
7218.00,1.21
7217.00,1.21
7216.00,1.21
7215.00,1.20
7214.00,1.20
7213.00,1.20
7212.00,1.20
7211.00,1.19
7210.00,1.19
7209.00,1.19
7208.00,1.18
7207.00,1.18
7206.00,1.18
7205.00,1.18
7204.00,1.17
7203.00,1.17
7202.00,1.17
7201.00,1.16
7200.00,1.16
7199.00,1.16
7198.00,1.16
7197.00,1.15
7196.00,1.15
7195.00,1.15
7194.00,1.14
7193.00,1.14
7192.00,1.14
7191.00,1.13
7190.00,1.13
7189.00,1.13
7188.00,1.12
7187.00,1.12
7186.00,1.12
7185.00,1.12
7184.00,1.11
7183.00,1.11
7182.00,1.11
7181.00,1.10
7180.00,1.10
7179.00,1.10
7178.00,1.10
7177.00,1.09
7176.00,1.09
7175.00,1.09
7174.00,1.09
7173.00,1.09
7172.00,1.08
7171.00,1.08
7170.00,1.08
7169.00,1.08
7168.00,1.08
7167.00,1.07
7166.00,1.07
7165.00,1.07
7164.00,1.07
7163.00,1.06
7162.00,1.06
7161.00,1.06
7160.00,1.06
7159.00,1.05
7158.00,1.05
7157.00,1.05
7156.00,1.05
7155.00,1.05
7154.00,1.04
7153.00,1.04
7152.00,1.04
7151.00,1.04
7150.00,1.03
7149.00,1.03
7148.00,1.03
7147.00,1.03
7146.00,1.03
7145.00,1.02
7144.00,1.02
7143.00,1.02
7142.00,1.02
7141.00,1.02
7140.00,1.01
7139.00,1.01
7138.00,1.01
7137.00,1.00
7136.00,1.00
7135.00,1.00
7134.00,1.00
7133.00,0.99
7132.00,0.99
7131.00,0.99
7130.00,0.99
7129.00,0.98
7128.00,0.98
7127.00,0.98
7126.00,0.98
7125.00,0.97
7124.00,0.97
7123.00,0.97
7122.00,0.96
7121.00,0.96
7120.00,0.96
7119.00,0.95
7118.00,0.95
7117.00,0.95
7116.00,0.94
7115.00,0.94
7114.00,0.94
7113.00,0.93
7112.00,0.93
7111.00,0.93
7110.00,0.92
7109.00,0.92
7108.00,0.92
7107.00,0.92
7106.00,0.91
7105.00,0.91
7104.00,0.91
7103.00,0.90
7102.00,0.90
7101.00,0.90
7100.00,0.90
7099.00,0.89
7098.00,0.89
7097.00,0.89
7096.00,0.89
7095.00,0.88
7094.00,0.88
7093.00,0.88
7092.00,0.88
7091.00,0.88
7090.00,0.87
7089.00,0.87
7088.00,0.87
7087.00,0.87
7086.00,0.87
7085.00,0.86
7084.00,0.86
7083.00,0.86
7082.00,0.86
7081.00,0.86
7080.00,0.86
7079.00,0.85
7078.00,0.85
7077.00,0.85
7076.00,0.85
7075.00,0.85
7074.00,0.85
7073.00,0.84
7072.00,0.84
7071.00,0.84
7070.00,0.84
7069.00,0.84
7068.00,0.84
7067.00,0.84
7066.00,0.83
7065.00,0.83
7064.00,0.83
7063.00,0.83
7062.00,0.83
7061.00,0.83
7060.00,0.83
7059.00,0.83
7058.00,0.82
7057.00,0.82
7056.00,0.82
7055.00,0.82
7054.00,0.82
7053.00,0.82
7052.00,0.81
7051.00,0.81
7050.00,0.81
7049.00,0.81
7048.00,0.81
7047.00,0.81
7046.00,0.81
7045.00,0.81
7044.00,0.80
7043.00,0.80
7042.00,0.80
7041.00,0.80
7040.00,0.80
7039.00,0.80
7038.00,0.80
7037.00,0.79
7036.00,0.79
7035.00,0.79
7034.00,0.79
7033.00,0.79
7032.00,0.79
7031.00,0.79
7030.00,0.78
7029.00,0.78
7028.00,0.78
7027.00,0.78
7026.00,0.78
7025.00,0.78
7024.00,0.78
7023.00,0.78
7022.00,0.78
7021.00,0.77
7020.00,0.77
7019.00,0.77
7018.00,0.77
7017.00,0.77
7016.00,0.77
7015.00,0.77
7014.00,0.77
7013.00,0.77
7012.00,0.77
7011.00,0.77
7010.00,0.77
7009.00,0.77
7008.00,0.77
7007.00,0.77
7006.00,0.77
7005.00,0.77
7004.00,0.76
7003.00,0.76
7002.00,0.76
7001.00,0.76
7000.00,0.76
6999.00,0.76
6998.00,0.76
6997.00,0.76
6996.00,0.76
6995.00,0.76
6994.00,0.76
6993.00,0.76
6992.00,0.76
6991.00,0.76
6990.00,0.75
6989.00,0.75
6988.00,0.75
6987.00,0.75
6986.00,0.75
6985.00,0.75
6984.00,0.75
6983.00,0.75
6982.00,0.75
6981.00,0.75
6980.00,0.75
6979.00,0.74
6978.00,0.74
6977.00,0.74
6976.00,0.74
6975.00,0.74
6974.00,0.74
6973.00,0.74
6972.00,0.74
6971.00,0.74
6970.00,0.74
6969.00,0.74
6968.00,0.73
6967.00,0.73
6966.00,0.73
6965.00,0.73
6964.00,0.73
6963.00,0.73
6962.00,0.73
6961.00,0.73
6960.00,0.73
6959.00,0.73
6958.00,0.73
6957.00,0.73
6956.00,0.73
6955.00,0.73
6954.00,0.73
6953.00,0.73
6952.00,0.73
6951.00,0.73
6950.00,0.73
6949.00,0.73
6948.00,0.73
6947.00,0.73
6946.00,0.73
6945.00,0.73
6944.00,0.73
6943.00,0.72
6942.00,0.72
6941.00,0.72
6940.00,0.72
6939.00,0.72
6938.00,0.72
6937.00,0.72
6936.00,0.72
6935.00,0.72
6934.00,0.72
6933.00,0.72
6932.00,0.72
6931.00,0.72
6930.00,0.72
6929.00,0.72
6928.00,0.72
6927.00,0.72
6926.00,0.72
6925.00,0.72
6924.00,0.72
6923.00,0.71
6922.00,0.71
6921.00,0.71
6920.00,0.71
6919.00,0.71
6918.00,0.71
6917.00,0.71
6916.00,0.71
6915.00,0.71
6914.00,0.71
6913.00,0.71
6912.00,0.71
6911.00,0.71
6910.00,0.71
6909.00,0.71
6908.00,0.71
6907.00,0.71
6906.00,0.71
6905.00,0.71
6904.00,0.71
6903.00,0.71
6902.00,0.71
6901.00,0.71
6900.00,0.71
6899.00,0.71
6898.00,0.71
6897.00,0.71
6896.00,0.71
6895.00,0.71
6894.00,0.71
6893.00,0.71
6892.00,0.71
6891.00,0.70
6890.00,0.70
6889.00,0.70
6888.00,0.70
6887.00,0.70
6886.00,0.70
6885.00,0.70
6884.00,0.70
6883.00,0.70
6882.00,0.70
6881.00,0.70
6880.00,0.70
6879.00,0.70
6878.00,0.70
6877.00,0.70
6876.00,0.70
6875.00,0.70
6874.00,0.70
6873.00,0.70
6872.00,0.70
6871.00,0.70
6870.00,0.70
6869.00,0.70
6868.00,0.70
6867.00,0.70
6866.00,0.70
6865.00,0.70
6864.00,0.70
6863.00,0.70
6862.00,0.70
6861.00,0.70
6860.00,0.70
6859.00,0.70
6858.00,0.70
6857.00,0.70
6856.00,0.70
6855.00,0.70
6854.00,0.70
6853.00,0.70
6852.00,0.70
6851.00,0.70
6850.00,0.70
6849.00,0.70
6848.00,0.70
6847.00,0.70
6846.00,0.70
6845.00,0.70
6844.00,0.70
6843.00,0.70
6842.00,0.70
6841.00,0.70
6840.00,0.70
6839.00,0.70
6838.00,0.70
6837.00,0.70
6836.00,0.70
6835.00,0.70
6834.00,0.70
6833.00,0.70
6832.00,0.70
6831.00,0.71
6830.00,0.71
6829.00,0.71
6828.00,0.71
6827.00,0.71
6826.00,0.71
6825.00,0.71
6824.00,0.71
6823.00,0.71
6822.00,0.71
6821.00,0.71
6820.00,0.71
6819.00,0.71
6818.00,0.71
6817.00,0.71
6816.00,0.71
6815.00,0.71
6814.00,0.71
6813.00,0.71
6812.00,0.71
6811.00,0.71
6810.00,0.71
6809.00,0.71
6808.00,0.71
6807.00,0.71
6806.00,0.71
6805.00,0.71
6804.00,0.71
6803.00,0.71
6802.00,0.71
6801.00,0.71
6800.00,0.72
6799.00,0.72
6798.00,0.72
6797.00,0.72
6796.00,0.72
6795.00,0.72
6794.00,0.72
6793.00,0.72
6792.00,0.72
6791.00,0.73
6790.00,0.73
6789.00,0.73
6788.00,0.73
6787.00,0.73
6786.00,0.73
6785.00,0.73
6784.00,0.73
6783.00,0.73
6782.00,0.73
6781.00,0.73
6780.00,0.73
6779.00,0.73
6778.00,0.74
6777.00,0.74
6776.00,0.74
6775.00,0.74
6774.00,0.74
6773.00,0.74
6772.00,0.74
6771.00,0.74
6770.00,0.74
6769.00,0.74
6768.00,0.74
6767.00,0.74
6766.00,0.74
6765.00,0.74
6764.00,0.74
6763.00,0.74
6762.00,0.75
6761.00,0.75
6760.00,0.75
6759.00,0.75
6758.00,0.75
6757.00,0.75
6756.00,0.75
6755.00,0.75
6754.00,0.75
6753.00,0.75
6752.00,0.75
6751.00,0.75
6750.00,0.75
6749.00,0.76
6748.00,0.76
6747.00,0.76
6746.00,0.76
6745.00,0.76
6744.00,0.76
6743.00,0.76
6742.00,0.76
6741.00,0.76
6740.00,0.76
6739.00,0.76
6738.00,0.76
6737.00,0.76
6736.00,0.76
6735.00,0.76
6734.00,0.76
6733.00,0.76
6732.00,0.76
6731.00,0.76
6730.00,0.76
6729.00,0.76
6728.00,0.76
6727.00,0.77
6726.00,0.77
6725.00,0.77
6724.00,0.77
6723.00,0.77
6722.00,0.77
6721.00,0.77
6720.00,0.78
6719.00,0.78
6718.00,0.78
6717.00,0.78
6716.00,0.78
6715.00,0.78
6714.00,0.78
6713.00,0.78
6712.00,0.78
6711.00,0.78
6710.00,0.79
6709.00,0.79
6708.00,0.79
6707.00,0.79
6706.00,0.79
6705.00,0.79
6704.00,0.79
6703.00,0.79
6702.00,0.79
6701.00,0.79
6700.00,0.79
6699.00,0.79
6698.00,0.79
6697.00,0.80
6696.00,0.80
6695.00,0.80
6694.00,0.80
6693.00,0.80
6692.00,0.80
6691.00,0.80
6690.00,0.80
6689.00,0.80
6688.00,0.80
6687.00,0.80
6686.00,0.80
6685.00,0.80
6684.00,0.80
6683.00,0.80
6682.00,0.81
6681.00,0.81
6680.00,0.81
6679.00,0.81
6678.00,0.81
6677.00,0.81
6676.00,0.81
6675.00,0.81
6674.00,0.82
6673.00,0.82
6672.00,0.82
6671.00,0.82
6670.00,0.82
6669.00,0.82
6668.00,0.82
6667.00,0.82
6666.00,0.83
6665.00,0.83
6664.00,0.83
6663.00,0.83
6662.00,0.83
6661.00,0.83
6660.00,0.83
6659.00,0.83
6658.00,0.84
6657.00,0.84
6656.00,0.84
6655.00,0.84
6654.00,0.84
6653.00,0.84
6652.00,0.84
6651.00,0.84
6650.00,0.84
6649.00,0.85
6648.00,0.85
6647.00,0.85
6646.00,0.85
6645.00,0.85
6644.00,0.85
6643.00,0.85
6642.00,0.85
6641.00,0.85
6640.00,0.85
6639.00,0.86
6638.00,0.86
6637.00,0.86
6636.00,0.86
6635.00,0.86
6634.00,0.86
6633.00,0.86
6632.00,0.86
6631.00,0.86
6630.00,0.86
6629.00,0.86
6628.00,0.86
6627.00,0.86
6626.00,0.86
6625.00,0.87
6624.00,0.87
6623.00,0.87
6622.00,0.87
6621.00,0.87
6620.00,0.87
6619.00,0.87
6618.00,0.87
6617.00,0.87
6616.00,0.87
6615.00,0.87
6614.00,0.87
6613.00,0.87
6612.00,0.87
6611.00,0.88
6610.00,0.88
6609.00,0.88
6608.00,0.88
6607.00,0.88
6606.00,0.89
6605.00,0.89
6604.00,0.89
6603.00,0.89
6602.00,0.89
6601.00,0.89
6600.00,0.89
6599.00,0.89
6598.00,0.90
6597.00,0.90
6596.00,0.90
6595.00,0.90
6594.00,0.90
6593.00,0.90
6592.00,0.90
6591.00,0.90
6590.00,0.90
6589.00,0.90
6588.00,0.90
6587.00,0.90
6586.00,0.90
6585.00,0.91
6584.00,0.91
6583.00,0.91
6582.00,0.91
6581.00,0.91
6580.00,0.91
6579.00,0.91
6578.00,0.91
6577.00,0.91
6576.00,0.91
6575.00,0.91
6574.00,0.92
6573.00,0.92
6572.00,0.92
6571.00,0.92
6570.00,0.92
6569.00,0.92
6568.00,0.92
6567.00,0.93
6566.00,0.93
6565.00,0.93
6564.00,0.93
6563.00,0.93
6562.00,0.93
6561.00,0.93
6560.00,0.93
6559.00,0.93
6558.00,0.93
6557.00,0.93
6556.00,0.93
6555.00,0.94
6554.00,0.94
6553.00,0.94
6552.00,0.94
6551.00,0.94
6550.00,0.94
6549.00,0.94
6548.00,0.94
6547.00,0.94
6546.00,0.94
6545.00,0.94
6544.00,0.94
6543.00,0.94
6542.00,0.94
6541.00,0.94
6540.00,0.94
6539.00,0.94
6538.00,0.94
6537.00,0.94
6536.00,0.94
6535.00,0.95
6534.00,0.95
6533.00,0.95
6532.00,0.95
6531.00,0.95
6530.00,0.95
6529.00,0.95
6528.00,0.95
6527.00,0.95
6526.00,0.95
6525.00,0.95
6524.00,0.96
6523.00,0.96
6522.00,0.96
6521.00,0.96
6520.00,0.96
6519.00,0.96
6518.00,0.96
6517.00,0.96
6516.00,0.97
6515.00,0.97
6514.00,0.97
6513.00,0.97
6512.00,0.97
6511.00,0.97
6510.00,0.97
6509.00,0.97
6508.00,0.97
6507.00,0.97
6506.00,0.97
6505.00,0.97
6504.00,0.97
6503.00,0.97
6502.00,0.97
6501.00,0.97
6500.00,0.97
6499.00,0.97
6498.00,0.97
6497.00,0.97
6496.00,0.97
6495.00,0.97
6494.00,0.97
6493.00,0.97
6492.00,0.97
6491.00,0.98
6490.00,0.98
6489.00,0.98
6488.00,0.98
6487.00,0.98
6486.00,0.98
6485.00,0.98
6484.00,0.98
6483.00,0.98
6482.00,0.98
6481.00,0.98
6480.00,0.98
6479.00,0.98
6478.00,0.98
6477.00,0.98
6476.00,0.98
6475.00,0.98
6474.00,0.98
6473.00,0.98
6472.00,0.99
6471.00,0.99
6470.00,0.99
6469.00,0.99
6468.00,0.99
6467.00,0.99
6466.00,0.99
6465.00,0.99
6464.00,0.99
6463.00,0.99
6462.00,0.99
6461.00,0.99
6460.00,0.99
6459.00,0.99
6458.00,0.99
6457.00,0.99
6456.00,0.99
6455.00,1.00
6454.00,1.00
6453.00,1.00
6452.00,1.00
6451.00,1.00
6450.00,1.00
6449.00,1.00
6448.00,1.00
6447.00,1.00
6446.00,1.00
6445.00,1.00
6444.00,1.00
6443.00,1.00
6442.00,1.00
6441.00,1.00
6440.00,1.00
6439.00,1.00
6438.00,1.00
6437.00,1.00
6436.00,1.00
6435.00,1.00
6434.00,1.00
6433.00,1.00
6432.00,1.00
6431.00,1.00
6430.00,1.00
6429.00,1.00
6428.00,1.00
6427.00,1.00
6426.00,1.00
6425.00,1.00
6424.00,1.01
6423.00,1.01
6422.00,1.01
6421.00,1.01
6420.00,1.01
6419.00,1.01
6418.00,1.01
6417.00,1.01
6416.00,1.01
6415.00,1.01
6414.00,1.01
6413.00,1.01
6412.00,1.02
6411.00,1.02
6410.00,1.02
6409.00,1.02
6408.00,1.02
6407.00,1.02
6406.00,1.02
6405.00,1.02
6404.00,1.02
6403.00,1.02
6402.00,1.02
6401.00,1.02
6400.00,1.02
6399.00,1.02
6398.00,1.02
6397.00,1.02
6396.00,1.02
6395.00,1.02
6394.00,1.02
6393.00,1.02
6392.00,1.02
6391.00,1.03
6390.00,1.03
6389.00,1.03
6388.00,1.03
6387.00,1.03
6386.00,1.03
6385.00,1.03
6384.00,1.03
6383.00,1.03
6382.00,1.03
6381.00,1.03
6380.00,1.03
6379.00,1.03
6378.00,1.03
6377.00,1.03
6376.00,1.03
6375.00,1.03
6374.00,1.03
6373.00,1.03
6372.00,1.03
6371.00,1.04
6370.00,1.04
6369.00,1.04
6368.00,1.04
6367.00,1.04
6366.00,1.04
6365.00,1.04
6364.00,1.04
6363.00,1.04
6362.00,1.04
6361.00,1.04
6360.00,1.04
6359.00,1.04
6358.00,1.04
6357.00,1.04
6356.00,1.04
6355.00,1.04
6354.00,1.04
6353.00,1.04
6352.00,1.04
6351.00,1.05
6350.00,1.05
6349.00,1.05
6348.00,1.05
6347.00,1.05
6346.00,1.05
6345.00,1.05
6344.00,1.05
6343.00,1.06
6342.00,1.06
6341.00,1.06
6340.00,1.06
6339.00,1.06
6338.00,1.06
6337.00,1.06
6336.00,1.06
6335.00,1.06
6334.00,1.06
6333.00,1.07
6332.00,1.07
6331.00,1.07
6330.00,1.07
6329.00,1.07
6328.00,1.07
6327.00,1.07
6326.00,1.07
6325.00,1.07
6324.00,1.07
6323.00,1.07
6322.00,1.07
6321.00,1.07
6320.00,1.07
6319.00,1.08
6318.00,1.08
6317.00,1.08
6316.00,1.08
6315.00,1.08
6314.00,1.08
6313.00,1.08
6312.00,1.08
6311.00,1.08
6310.00,1.08
6309.00,1.08
6308.00,1.08
6307.00,1.09
6306.00,1.09
6305.00,1.09
6304.00,1.09
6303.00,1.09
6302.00,1.09
6301.00,1.09
6300.00,1.10
6299.00,1.10
6298.00,1.10
6297.00,1.10
6296.00,1.10
6295.00,1.10
6294.00,1.10
6293.00,1.11
6292.00,1.11
6291.00,1.11
6290.00,1.11
6289.00,1.11
6288.00,1.11
6287.00,1.11
6286.00,1.11
6285.00,1.11
6284.00,1.11
6283.00,1.11
6282.00,1.11
6281.00,1.11
6280.00,1.12
6279.00,1.12
6278.00,1.12
6277.00,1.12
6276.00,1.12
6275.00,1.12
6274.00,1.12
6273.00,1.12
6272.00,1.12
6271.00,1.12
6270.00,1.13
6269.00,1.13
6268.00,1.13
6267.00,1.13
6266.00,1.13
6265.00,1.13
6264.00,1.13
6263.00,1.14
6262.00,1.14
6261.00,1.14
6260.00,1.14
6259.00,1.14
6258.00,1.14
6257.00,1.14
6256.00,1.14
6255.00,1.15
6254.00,1.15
6253.00,1.15
6252.00,1.15
6251.00,1.15
6250.00,1.15
6249.00,1.15
6248.00,1.15
6247.00,1.15
6246.00,1.15
6245.00,1.15
6244.00,1.15
6243.00,1.16
6242.00,1.16
6241.00,1.16
6240.00,1.16
6239.00,1.16
6238.00,1.16
6237.00,1.16
6236.00,1.16
6235.00,1.17
6234.00,1.17
6233.00,1.17
6232.00,1.17
6231.00,1.17
6230.00,1.17
6229.00,1.17
6228.00,1.18
6227.00,1.18
6226.00,1.18
6225.00,1.18
6224.00,1.18
6223.00,1.18
6222.00,1.18
6221.00,1.18
6220.00,1.19
6219.00,1.19
6218.00,1.19
6217.00,1.19
6216.00,1.19
6215.00,1.19
6214.00,1.19
6213.00,1.19
6212.00,1.19
6211.00,1.19
6210.00,1.20
6209.00,1.20
6208.00,1.20
6207.00,1.20
6206.00,1.20
6205.00,1.20
6204.00,1.20
6203.00,1.20
6202.00,1.21
6201.00,1.21
6200.00,1.21
6199.00,1.21
6198.00,1.21
6197.00,1.21
6196.00,1.21
6195.00,1.21
6194.00,1.22
6193.00,1.22
6192.00,1.22
6191.00,1.22
6190.00,1.22
6189.00,1.22
6188.00,1.22
6187.00,1.22
6186.00,1.22
6185.00,1.22
6184.00,1.23
6183.00,1.23
6182.00,1.23
6181.00,1.23
6180.00,1.23
6179.00,1.23
6178.00,1.23
6177.00,1.24
6176.00,1.24
6175.00,1.24
6174.00,1.24
6173.00,1.24
6172.00,1.24
6171.00,1.24
6170.00,1.24
6169.00,1.25
6168.00,1.25
6167.00,1.25
6166.00,1.25
6165.00,1.25
6164.00,1.25
6163.00,1.25
6162.00,1.25
6161.00,1.25
6160.00,1.25
6159.00,1.26
6158.00,1.26
6157.00,1.26
6156.00,1.26
6155.00,1.26
6154.00,1.26
6153.00,1.26
6152.00,1.26
6151.00,1.27
6150.00,1.27
6149.00,1.27
6148.00,1.27
6147.00,1.27
6146.00,1.27
6145.00,1.28
6144.00,1.28
6143.00,1.28
6142.00,1.28
6141.00,1.28
6140.00,1.28
6139.00,1.28
6138.00,1.29
6137.00,1.29
6136.00,1.29
6135.00,1.29
6134.00,1.29
6133.00,1.29
6132.00,1.29
6131.00,1.29
6130.00,1.29
6129.00,1.30
6128.00,1.30
6127.00,1.30
6126.00,1.30
6125.00,1.30
6124.00,1.30
6123.00,1.31
6122.00,1.31
6121.00,1.31
6120.00,1.31
6119.00,1.31
6118.00,1.31
6117.00,1.31
6116.00,1.32
6115.00,1.32
6114.00,1.32
6113.00,1.32
6112.00,1.32
6111.00,1.32
6110.00,1.32
6109.00,1.33
6108.00,1.33
6107.00,1.33
6106.00,1.33
6105.00,1.33
6104.00,1.33
6103.00,1.33
6102.00,1.33
6101.00,1.34
6100.00,1.34
6099.00,1.34
6098.00,1.34
6097.00,1.34
6096.00,1.34
6095.00,1.34
6094.00,1.34
6093.00,1.35
6092.00,1.35
6091.00,1.35
6090.00,1.35
6089.00,1.35
6088.00,1.35
6087.00,1.35
6086.00,1.35
6085.00,1.35
6084.00,1.35
6083.00,1.35
6082.00,1.36
6081.00,1.36
6080.00,1.36
6079.00,1.36
6078.00,1.36
6077.00,1.36
6076.00,1.36
6075.00,1.36
6074.00,1.36
6073.00,1.37
6072.00,1.37
6071.00,1.37
6070.00,1.37
6069.00,1.37
6068.00,1.37
6067.00,1.37
6066.00,1.37
6065.00,1.38
6064.00,1.38
6063.00,1.38
6062.00,1.38
6061.00,1.38
6060.00,1.38
6059.00,1.38
6058.00,1.38
6057.00,1.38
6056.00,1.38
6055.00,1.38
6054.00,1.38
6053.00,1.39
6052.00,1.39
6051.00,1.39
6050.00,1.39
6049.00,1.39
6048.00,1.39
6047.00,1.39
6046.00,1.39
6045.00,1.39
6044.00,1.39
6043.00,1.39
6042.00,1.39
6041.00,1.39
6040.00,1.39
6039.00,1.40
6038.00,1.40
6037.00,1.40
6036.00,1.40
6035.00,1.40
6034.00,1.40
6033.00,1.40
6032.00,1.40
6031.00,1.40
6030.00,1.40
6029.00,1.40
6028.00,1.40
6027.00,1.40
6026.00,1.40
6025.00,1.40
6024.00,1.40
6023.00,1.40
6022.00,1.40
6021.00,1.40
6020.00,1.40
6019.00,1.40
6018.00,1.40
6017.00,1.40
6016.00,1.40
6015.00,1.40
6014.00,1.40
6013.00,1.40
6012.00,1.39
6011.00,1.39
6010.00,1.39
6009.00,1.39
6008.00,1.39
6007.00,1.39
6006.00,1.39
6005.00,1.39
6004.00,1.39
6003.00,1.39
6002.00,1.39
6001.00,1.39
6000.00,1.39
5999.00,1.39
5998.00,1.39
5997.00,1.39
5996.00,1.39
5995.00,1.39
5994.00,1.38
5993.00,1.38
5992.00,1.38
5991.00,1.38
5990.00,1.38
5989.00,1.38
5988.00,1.37
5987.00,1.37
5986.00,1.37
5985.00,1.37
5984.00,1.37
5983.00,1.36
5982.00,1.36
5981.00,1.36
5980.00,1.35
5979.00,1.35
5978.00,1.35
5977.00,1.34
5976.00,1.34
5975.00,1.33
5974.00,1.33
5973.00,1.32
5972.00,1.32
5971.00,1.31
5970.00,1.31
5969.00,1.30
5968.00,1.30
5967.00,1.29
5966.00,1.28
5965.00,1.28
5964.00,1.27
5963.00,1.26
5962.00,1.26
5961.00,1.25
5960.00,1.24
5959.00,1.24
5958.00,1.23
5957.00,1.22
5956.00,1.21
5955.00,1.21
5954.00,1.20
5953.00,1.19
5952.00,1.19
5951.00,1.18
5950.00,1.17
5949.00,1.17
5948.00,1.16
5947.00,1.16
5946.00,1.15
5945.00,1.15
5944.00,1.14
5943.00,1.14
5942.00,1.14
5941.00,1.13
5940.00,1.13
5939.00,1.13
5938.00,1.13
5937.00,1.13
5936.00,1.13
5935.00,1.12
5934.00,1.12
5933.00,1.12
5932.00,1.12
5931.00,1.12
5930.00,1.12
5929.00,1.12
5928.00,1.12
5927.00,1.12
5926.00,1.12
5925.00,1.11
5924.00,1.11
5923.00,1.11
5922.00,1.11
5921.00,1.11
5920.00,1.10
5919.00,1.10
5918.00,1.10
5917.00,1.10
5916.00,1.09
5915.00,1.09
5914.00,1.09
5913.00,1.08
5912.00,1.08
5911.00,1.08
5910.00,1.08
5909.00,1.07
5908.00,1.07
5907.00,1.07
5906.00,1.07
5905.00,1.07
5904.00,1.07
5903.00,1.06
5902.00,1.06
5901.00,1.06
5900.00,1.06
5899.00,1.06
5898.00,1.06
5897.00,1.06
5896.00,1.07
5895.00,1.07
5894.00,1.07
5893.00,1.07
5892.00,1.07
5891.00,1.08
5890.00,1.08
5889.00,1.08
5888.00,1.09
5887.00,1.09
5886.00,1.09
5885.00,1.10
5884.00,1.10
5883.00,1.10
5882.00,1.11
5881.00,1.11
5880.00,1.11
5879.00,1.12
5878.00,1.12
5877.00,1.12
5876.00,1.12
5875.00,1.13
5874.00,1.13
5873.00,1.13
5872.00,1.13
5871.00,1.14
5870.00,1.14
5869.00,1.14
5868.00,1.14
5867.00,1.15
5866.00,1.15
5865.00,1.15
5864.00,1.15
5863.00,1.15
5862.00,1.15
5861.00,1.15
5860.00,1.16
5859.00,1.16
5858.00,1.16
5857.00,1.16
5856.00,1.16
5855.00,1.16
5854.00,1.16
5853.00,1.16
5852.00,1.16
5851.00,1.16
5850.00,1.16
5849.00,1.16
5848.00,1.16
5847.00,1.16
5846.00,1.16
5845.00,1.16
5844.00,1.16
5843.00,1.16
5842.00,1.16
5841.00,1.16
5840.00,1.16
5839.00,1.16
5838.00,1.16
5837.00,1.16
5836.00,1.16
5835.00,1.16
5834.00,1.16
5833.00,1.16
5832.00,1.16
5831.00,1.16
5830.00,1.16
5829.00,1.16
5828.00,1.16
5827.00,1.16
5826.00,1.16
5825.00,1.16
5824.00,1.16
5823.00,1.16
5822.00,1.16
5821.00,1.16
5820.00,1.16
5819.00,1.16
5818.00,1.16
5817.00,1.16
5816.00,1.16
5815.00,1.16
5814.00,1.16
5813.00,1.16
5812.00,1.16
5811.00,1.16
5810.00,1.16
5809.00,1.16
5808.00,1.16
5807.00,1.16
5806.00,1.16
5805.00,1.16
5804.00,1.16
5803.00,1.16
5802.00,1.16
5801.00,1.16
5800.00,1.16
5799.00,1.16
5798.00,1.15
5797.00,1.15
5796.00,1.15
5795.00,1.15
5794.00,1.15
5793.00,1.14
5792.00,1.14
5791.00,1.14
5790.00,1.14
5789.00,1.14
5788.00,1.13
5787.00,1.13
5786.00,1.13
5785.00,1.13
5784.00,1.13
5783.00,1.12
5782.00,1.12
5781.00,1.12
5780.00,1.12
5779.00,1.12
5778.00,1.12
5777.00,1.12
5776.00,1.12
5775.00,1.12
5774.00,1.11
5773.00,1.11
5772.00,1.11
5771.00,1.11
5770.00,1.12
5769.00,1.12
5768.00,1.12
5767.00,1.12
5766.00,1.12
5765.00,1.12
5764.00,1.12
5763.00,1.12
5762.00,1.13
5761.00,1.13
5760.00,1.13
5759.00,1.13
5758.00,1.14
5757.00,1.14
5756.00,1.14
5755.00,1.15
5754.00,1.15
5753.00,1.15
5752.00,1.16
5751.00,1.16
5750.00,1.16
5749.00,1.17
5748.00,1.17
5747.00,1.17
5746.00,1.17
5745.00,1.18
5744.00,1.18
5743.00,1.18
5742.00,1.19
5741.00,1.19
5740.00,1.19
5739.00,1.20
5738.00,1.20
5737.00,1.20
5736.00,1.20
5735.00,1.21
5734.00,1.21
5733.00,1.21
5732.00,1.21
5731.00,1.21
5730.00,1.22
5729.00,1.22
5728.00,1.22
5727.00,1.22
5726.00,1.22
5725.00,1.22
5724.00,1.23
5723.00,1.23
5722.00,1.23
5721.00,1.23
5720.00,1.23
5719.00,1.23
5718.00,1.23
5717.00,1.23
5716.00,1.23
5715.00,1.23
5714.00,1.23
5713.00,1.23
5712.00,1.23
5711.00,1.23
5710.00,1.23
5709.00,1.23
5708.00,1.23
5707.00,1.23
5706.00,1.23
5705.00,1.23
5704.00,1.23
5703.00,1.23
5702.00,1.22
5701.00,1.22
5700.00,1.22
5699.00,1.22
5698.00,1.22
5697.00,1.22
5696.00,1.22
5695.00,1.22
5694.00,1.22
5693.00,1.22
5692.00,1.21
5691.00,1.21
5690.00,1.21
5689.00,1.21
5688.00,1.21
5687.00,1.21
5686.00,1.21
5685.00,1.20
5684.00,1.20
5683.00,1.20
5682.00,1.20
5681.00,1.20
5680.00,1.20
5679.00,1.20
5678.00,1.19
5677.00,1.19
5676.00,1.19
5675.00,1.19
5674.00,1.19
5673.00,1.19
5672.00,1.19
5671.00,1.19
5670.00,1.19
5669.00,1.19
5668.00,1.19
5667.00,1.20
5666.00,1.20
5665.00,1.20
5664.00,1.20
5663.00,1.20
5662.00,1.20
5661.00,1.20
5660.00,1.21
5659.00,1.21
5658.00,1.21
5657.00,1.21
5656.00,1.21
5655.00,1.21
5654.00,1.22
5653.00,1.22
5652.00,1.22
5651.00,1.22
5650.00,1.22
5649.00,1.23
5648.00,1.23
5647.00,1.23
5646.00,1.23
5645.00,1.23
5644.00,1.24
5643.00,1.24
5642.00,1.24
5641.00,1.24
5640.00,1.24
5639.00,1.25
5638.00,1.25
5637.00,1.25
5636.00,1.25
5635.00,1.25
5634.00,1.26
5633.00,1.26
5632.00,1.26
5631.00,1.26
5630.00,1.26
5629.00,1.27
5628.00,1.27
5627.00,1.27
5626.00,1.27
5625.00,1.27
5624.00,1.27
5623.00,1.27
5622.00,1.28
5621.00,1.28
5620.00,1.28
5619.00,1.28
5618.00,1.28
5617.00,1.28
5616.00,1.28
5615.00,1.28
5614.00,1.29
5613.00,1.29
5612.00,1.29
5611.00,1.29
5610.00,1.29
5609.00,1.29
5608.00,1.30
5607.00,1.30
5606.00,1.30
5605.00,1.30
5604.00,1.30
5603.00,1.31
5602.00,1.31
5601.00,1.31
5600.00,1.31
5599.00,1.31
5598.00,1.32
5597.00,1.32
5596.00,1.32
5595.00,1.32
5594.00,1.32
5593.00,1.33
5592.00,1.33
5591.00,1.33
5590.00,1.33
5589.00,1.33
5588.00,1.33
5587.00,1.34
5586.00,1.34
5585.00,1.34
5584.00,1.34
5583.00,1.34
5582.00,1.34
5581.00,1.34
5580.00,1.35
5579.00,1.35
5578.00,1.35
5577.00,1.35
5576.00,1.35
5575.00,1.35
5574.00,1.35
5573.00,1.35
5572.00,1.35
5571.00,1.35
5570.00,1.36
5569.00,1.36
5568.00,1.36
5567.00,1.36
5566.00,1.36
5565.00,1.36
5564.00,1.36
5563.00,1.36
5562.00,1.37
5561.00,1.37
5560.00,1.37
5559.00,1.37
5558.00,1.37
5557.00,1.37
5556.00,1.38
5555.00,1.38
5554.00,1.38
5553.00,1.38
5552.00,1.38
5551.00,1.38
5550.00,1.38
5549.00,1.38
5548.00,1.39
5547.00,1.39
5546.00,1.39
5545.00,1.39
5544.00,1.39
5543.00,1.39
5542.00,1.39
5541.00,1.39
5540.00,1.39
5539.00,1.39
5538.00,1.39
5537.00,1.39
5536.00,1.40
5535.00,1.40
5534.00,1.40
5533.00,1.40
5532.00,1.40
5531.00,1.40
5530.00,1.40
5529.00,1.40
5528.00,1.40
5527.00,1.40
5526.00,1.40
5525.00,1.40
5524.00,1.40
5523.00,1.41
5522.00,1.41
5521.00,1.41
5520.00,1.41
5519.00,1.41
5518.00,1.41
5517.00,1.41
5516.00,1.41
5515.00,1.41
5514.00,1.41
5513.00,1.41
5512.00,1.41
5511.00,1.41
5510.00,1.41
5509.00,1.41
5508.00,1.41
5507.00,1.41
5506.00,1.42
5505.00,1.42
5504.00,1.42
5503.00,1.42
5502.00,1.42
5501.00,1.42
5500.00,1.42
5499.00,1.42
5498.00,1.42
5497.00,1.42
5496.00,1.42
5495.00,1.42
5494.00,1.42
5493.00,1.43
5492.00,1.43
5491.00,1.43
5490.00,1.43
5489.00,1.43
5488.00,1.43
5487.00,1.43
5486.00,1.43
5485.00,1.43
5484.00,1.43
5483.00,1.44
5482.00,1.44
5481.00,1.44
5480.00,1.44
5479.00,1.44
5478.00,1.44
5477.00,1.44
5476.00,1.44
5475.00,1.45
5474.00,1.45
5473.00,1.45
5472.00,1.45
5471.00,1.45
5470.00,1.45
5469.00,1.45
5468.00,1.46
5467.00,1.46
5466.00,1.46
5465.00,1.46
5464.00,1.46
5463.00,1.46
5462.00,1.46
5461.00,1.47
5460.00,1.47
5459.00,1.47
5458.00,1.47
5457.00,1.47
5456.00,1.47
5455.00,1.47
5454.00,1.47
5453.00,1.47
5452.00,1.47
5451.00,1.47
5450.00,1.47
5449.00,1.47
5448.00,1.47
5447.00,1.47
5446.00,1.47
5445.00,1.47
5444.00,1.47
5443.00,1.47
5442.00,1.47
5441.00,1.47
5440.00,1.47
5439.00,1.47
5438.00,1.47
5437.00,1.47
5436.00,1.47
5435.00,1.47
5434.00,1.47
5433.00,1.47
5432.00,1.47
5431.00,1.47
5430.00,1.48
5429.00,1.48
5428.00,1.48
5427.00,1.48
5426.00,1.48
5425.00,1.48
5424.00,1.48
5423.00,1.48
5422.00,1.48
5421.00,1.48
5420.00,1.48
5419.00,1.48
5418.00,1.48
5417.00,1.48
5416.00,1.48
5415.00,1.48
5414.00,1.48
5413.00,1.48
5412.00,1.48
5411.00,1.48
5410.00,1.48
5409.00,1.48
5408.00,1.48
5407.00,1.48
5406.00,1.48
5405.00,1.48
5404.00,1.48
5403.00,1.48
5402.00,1.48
5401.00,1.48
5400.00,1.48
5399.00,1.48
5398.00,1.48
5397.00,1.48
5396.00,1.48
5395.00,1.48
5394.00,1.48
5393.00,1.48
5392.00,1.47
5391.00,1.47
5390.00,1.47
5389.00,1.47
5388.00,1.47
5387.00,1.47
5386.00,1.47
5385.00,1.47
5384.00,1.46
5383.00,1.46
5382.00,1.46
5381.00,1.46
5380.00,1.46
5379.00,1.46
5378.00,1.45
5377.00,1.45
5376.00,1.45
5375.00,1.45
5374.00,1.44
5373.00,1.44
5372.00,1.44
5371.00,1.43
5370.00,1.43
5369.00,1.43
5368.00,1.42
5367.00,1.42
5366.00,1.42
5365.00,1.41
5364.00,1.41
5363.00,1.40
5362.00,1.40
5361.00,1.39
5360.00,1.39
5359.00,1.38
5358.00,1.38
5357.00,1.37
5356.00,1.36
5355.00,1.36
5354.00,1.35
5353.00,1.34
5352.00,1.34
5351.00,1.33
5350.00,1.32
5349.00,1.31
5348.00,1.30
5347.00,1.30
5346.00,1.29
5345.00,1.28
5344.00,1.27
5343.00,1.26
5342.00,1.25
5341.00,1.24
5340.00,1.23
5339.00,1.22
5338.00,1.21
5337.00,1.20
5336.00,1.19
5335.00,1.18
5334.00,1.16
5333.00,1.15
5332.00,1.14
5331.00,1.13
5330.00,1.12
5329.00,1.11
5328.00,1.10
5327.00,1.08
5326.00,1.07
5325.00,1.06
5324.00,1.05
5323.00,1.04
5322.00,1.02
5321.00,1.01
5320.00,1.00
5319.00,0.99
5318.00,0.98
5317.00,0.97
5316.00,0.95
5315.00,0.94
5314.00,0.93
5313.00,0.92
5312.00,0.91
5311.00,0.90
5310.00,0.89
5309.00,0.88
5308.00,0.87
5307.00,0.86
5306.00,0.85
5305.00,0.84
5304.00,0.83
5303.00,0.82
5302.00,0.81
5301.00,0.80
5300.00,0.80
5299.00,0.79
5298.00,0.78
5297.00,0.78
5296.00,0.77
5295.00,0.76
5294.00,0.76
5293.00,0.75
5292.00,0.75
5291.00,0.74
5290.00,0.74
5289.00,0.73
5288.00,0.73
5287.00,0.73
5286.00,0.72
5285.00,0.72
5284.00,0.71
5283.00,0.71
5282.00,0.71
5281.00,0.70
5280.00,0.70
5279.00,0.70
5278.00,0.70
5277.00,0.69
5276.00,0.69
5275.00,0.69
5274.00,0.69
5273.00,0.69
5272.00,0.68
5271.00,0.68
5270.00,0.68
5269.00,0.68
5268.00,0.68
5267.00,0.67
5266.00,0.67
5265.00,0.67
5264.00,0.67
5263.00,0.67
5262.00,0.67
5261.00,0.67
5260.00,0.67
5259.00,0.66
5258.00,0.66
5257.00,0.66
5256.00,0.66
5255.00,0.66
5254.00,0.66
5253.00,0.66
5252.00,0.66
5251.00,0.66
5250.00,0.66
5249.00,0.66
5248.00,0.66
5247.00,0.66
5246.00,0.66
5245.00,0.66
5244.00,0.66
5243.00,0.66
5242.00,0.66
5241.00,0.65
5240.00,0.65
5239.00,0.65
5238.00,0.65
5237.00,0.65
5236.00,0.65
5235.00,0.65
5234.00,0.65
5233.00,0.65
5232.00,0.65
5231.00,0.65
5230.00,0.65
5229.00,0.65
5228.00,0.65
5227.00,0.65
5226.00,0.65
5225.00,0.65
5224.00,0.65
5223.00,0.65
5222.00,0.65
5221.00,0.65
5220.00,0.65
5219.00,0.64
5218.00,0.64
5217.00,0.64
5216.00,0.64
5215.00,0.64
5214.00,0.64
5213.00,0.65
5212.00,0.65
5211.00,0.65
5210.00,0.65
5209.00,0.65
5208.00,0.65
5207.00,0.65
5206.00,0.65
5205.00,0.65
5204.00,0.65
5203.00,0.65
5202.00,0.65
5201.00,0.65
5200.00,0.65
5199.00,0.65
5198.00,0.65
5197.00,0.65
5196.00,0.65
5195.00,0.65
5194.00,0.65
5193.00,0.65
5192.00,0.65
5191.00,0.65
5190.00,0.65
5189.00,0.65
5188.00,0.65
5187.00,0.65
5186.00,0.65
5185.00,0.66
5184.00,0.66
5183.00,0.66
5182.00,0.66
5181.00,0.66
5180.00,0.66
5179.00,0.66
5178.00,0.66
5177.00,0.66
5176.00,0.66
5175.00,0.66
5174.00,0.66
5173.00,0.66
5172.00,0.66
5171.00,0.66
5170.00,0.66
5169.00,0.66
5168.00,0.66
5167.00,0.66
5166.00,0.66
5165.00,0.66
5164.00,0.66
5163.00,0.66
5162.00,0.66
5161.00,0.66
5160.00,0.66
5159.00,0.66
5158.00,0.67
5157.00,0.67
5156.00,0.67
5155.00,0.67
5154.00,0.67
5153.00,0.67
5152.00,0.67
5151.00,0.67
5150.00,0.67
5149.00,0.67
5148.00,0.67
5147.00,0.67
5146.00,0.67
5145.00,0.68
5144.00,0.68
5143.00,0.68
5142.00,0.68
5141.00,0.68
5140.00,0.68
5139.00,0.68
5138.00,0.68
5137.00,0.68
5136.00,0.68
5135.00,0.68
5134.00,0.68
5133.00,0.68
5132.00,0.68
5131.00,0.68
5130.00,0.69
5129.00,0.69
5128.00,0.69
5127.00,0.69
5126.00,0.69
5125.00,0.69
5124.00,0.69
5123.00,0.69
5122.00,0.69
5121.00,0.70
5120.00,0.70
5119.00,0.70
5118.00,0.70
5117.00,0.70
5116.00,0.70
5115.00,0.70
5114.00,0.70
5113.00,0.70
5112.00,0.70
5111.00,0.70
5110.00,0.70
5109.00,0.70
5108.00,0.70
5107.00,0.70
5106.00,0.70
5105.00,0.71
5104.00,0.71
5103.00,0.71
5102.00,0.71
5101.00,0.71
5100.00,0.71
5099.00,0.71
5098.00,0.71
5097.00,0.71
5096.00,0.71
5095.00,0.71
5094.00,0.71
5093.00,0.71
5092.00,0.71
5091.00,0.71
5090.00,0.71
5089.00,0.71
5088.00,0.72
5087.00,0.72
5086.00,0.72
5085.00,0.72
5084.00,0.72
5083.00,0.72
5082.00,0.72
5081.00,0.72
5080.00,0.72
5079.00,0.73
5078.00,0.73
5077.00,0.73
5076.00,0.73
5075.00,0.73
5074.00,0.73
5073.00,0.73
5072.00,0.73
5071.00,0.74
5070.00,0.74
5069.00,0.74
5068.00,0.74
5067.00,0.74
5066.00,0.74
5065.00,0.74
5064.00,0.74
5063.00,0.74
5062.00,0.75
5061.00,0.75
5060.00,0.75
5059.00,0.75
5058.00,0.75
5057.00,0.75
5056.00,0.75
5055.00,0.75
5054.00,0.75
5053.00,0.75
5052.00,0.75
5051.00,0.75
5050.00,0.75
5049.00,0.76
5048.00,0.76
5047.00,0.76
5046.00,0.76
5045.00,0.76
5044.00,0.76
5043.00,0.76
5042.00,0.76
5041.00,0.77
5040.00,0.77
5039.00,0.77
5038.00,0.77
5037.00,0.77
5036.00,0.77
5035.00,0.77
5034.00,0.78
5033.00,0.78
5032.00,0.78
5031.00,0.78
5030.00,0.78
5029.00,0.78
5028.00,0.78
5027.00,0.78
5026.00,0.79
5025.00,0.79
5024.00,0.79
5023.00,0.79
5022.00,0.79
5021.00,0.79
5020.00,0.79
5019.00,0.80
5018.00,0.80
5017.00,0.80
5016.00,0.80
5015.00,0.80
5014.00,0.80
5013.00,0.81
5012.00,0.81
5011.00,0.81
5010.00,0.81
5009.00,0.81
5008.00,0.82
5007.00,0.82
5006.00,0.82
5005.00,0.82
5004.00,0.82
5003.00,0.82
5002.00,0.82
5001.00,0.83
5000.00,0.83
4999.00,0.83
4998.00,0.83
4997.00,0.83
4996.00,0.83
4995.00,0.83
4994.00,0.83
4993.00,0.83
4992.00,0.84
4991.00,0.84
4990.00,0.84
4989.00,0.84
4988.00,0.84
4987.00,0.84
4986.00,0.85
4985.00,0.85
4984.00,0.85
4983.00,0.85
4982.00,0.85
4981.00,0.85
4980.00,0.85
4979.00,0.86
4978.00,0.86
4977.00,0.86
4976.00,0.86
4975.00,0.86
4974.00,0.86
4973.00,0.86
4972.00,0.87
4971.00,0.87
4970.00,0.87
4969.00,0.87
4968.00,0.87
4967.00,0.87
4966.00,0.87
4965.00,0.88
4964.00,0.88
4963.00,0.88
4962.00,0.88
4961.00,0.88
4960.00,0.88
4959.00,0.88
4958.00,0.89
4957.00,0.89
4956.00,0.89
4955.00,0.89
4954.00,0.89
4953.00,0.89
4952.00,0.89
4951.00,0.90
4950.00,0.90
4949.00,0.90
4948.00,0.90
4947.00,0.90
4946.00,0.90
4945.00,0.90
4944.00,0.90
4943.00,0.90
4942.00,0.90
4941.00,0.91
4940.00,0.91
4939.00,0.91
4938.00,0.91
4937.00,0.91
4936.00,0.91
4935.00,0.91
4934.00,0.91
4933.00,0.91
4932.00,0.91
4931.00,0.91
4930.00,0.91
4929.00,0.91
4928.00,0.92
4927.00,0.92
4926.00,0.92
4925.00,0.92
4924.00,0.92
4923.00,0.92
4922.00,0.92
4921.00,0.92
4920.00,0.92
4919.00,0.92
4918.00,0.92
4917.00,0.92
4916.00,0.92
4915.00,0.92
4914.00,0.92
4913.00,0.92
4912.00,0.92
4911.00,0.92
4910.00,0.92
4909.00,0.92
4908.00,0.93
4907.00,0.93
4906.00,0.93
4905.00,0.93
4904.00,0.93
4903.00,0.93
4902.00,0.93
4901.00,0.93
4900.00,0.93
4899.00,0.94
4898.00,0.94
4897.00,0.94
4896.00,0.94
4895.00,0.94
4894.00,0.94
4893.00,0.94
4892.00,0.94
4891.00,0.94
4890.00,0.94
4889.00,0.94
4888.00,0.94
4887.00,0.94
4886.00,0.94
4885.00,0.94
4884.00,0.94
4883.00,0.94
4882.00,0.94
4881.00,0.94
4880.00,0.94
4879.00,0.94
4878.00,0.94
4877.00,0.95
4876.00,0.95
4875.00,0.95
4874.00,0.95
4873.00,0.95
4872.00,0.95
4871.00,0.95
4870.00,0.95
4869.00,0.95
4868.00,0.95
4867.00,0.95
4866.00,0.95
4865.00,0.95
4864.00,0.96
4863.00,0.96
4862.00,0.96
4861.00,0.96
4860.00,0.96
4859.00,0.96
4858.00,0.96
4857.00,0.96
4856.00,0.96
4855.00,0.96
4854.00,0.96
4853.00,0.96
4852.00,0.96
4851.00,0.96
4850.00,0.96
4849.00,0.96
4848.00,0.96
4847.00,0.96
4846.00,0.96
4845.00,0.96
4844.00,0.96
4843.00,0.96
4842.00,0.96
4841.00,0.97
4840.00,0.97
4839.00,0.97
4838.00,0.97
4837.00,0.97
4836.00,0.97
4835.00,0.97
4834.00,0.97
4833.00,0.97
4832.00,0.97
4831.00,0.98
4830.00,0.98
4829.00,0.98
4828.00,0.98
4827.00,0.98
4826.00,0.98
4825.00,0.98
4824.00,0.98
4823.00,0.98
4822.00,0.98
4821.00,0.98
4820.00,0.99
4819.00,0.99
4818.00,0.99
4817.00,0.99
4816.00,0.99
4815.00,0.99
4814.00,0.99
4813.00,0.99
4812.00,1.00
4811.00,1.00
4810.00,1.00
4809.00,1.00
4808.00,1.00
4807.00,1.00
4806.00,1.01
4805.00,1.01
4804.00,1.01
4803.00,1.01
4802.00,1.01
4801.00,1.01
4800.00,1.01
4799.00,1.02
4798.00,1.02
4797.00,1.02
4796.00,1.02
4795.00,1.02
4794.00,1.02
4793.00,1.02
4792.00,1.03
4791.00,1.03
4790.00,1.03
4789.00,1.03
4788.00,1.03
4787.00,1.03
4786.00,1.03
4785.00,1.04
4784.00,1.04
4783.00,1.04
4782.00,1.04
4781.00,1.04
4780.00,1.04
4779.00,1.04
4778.00,1.05
4777.00,1.05
4776.00,1.05
4775.00,1.05
4774.00,1.05
4773.00,1.06
4772.00,1.06
4771.00,1.06
4770.00,1.06
4769.00,1.06
4768.00,1.07
4767.00,1.07
4766.00,1.07
4765.00,1.07
4764.00,1.07
4763.00,1.08
4762.00,1.08
4761.00,1.08
4760.00,1.08
4759.00,1.09
4758.00,1.09
4757.00,1.09
4756.00,1.09
4755.00,1.10
4754.00,1.10
4753.00,1.10
4752.00,1.10
4751.00,1.11
4750.00,1.11
4749.00,1.11
4748.00,1.11
4747.00,1.12
4746.00,1.12
4745.00,1.12
4744.00,1.12
4743.00,1.12
4742.00,1.13
4741.00,1.13
4740.00,1.13
4739.00,1.13
4738.00,1.13
4737.00,1.13
4736.00,1.14
4735.00,1.14
4734.00,1.14
4733.00,1.14
4732.00,1.14
4731.00,1.15
4730.00,1.15
4729.00,1.15
4728.00,1.15
4727.00,1.16
4726.00,1.16
4725.00,1.16
4724.00,1.16
4723.00,1.17
4722.00,1.17
4721.00,1.17
4720.00,1.17
4719.00,1.18
4718.00,1.18
4717.00,1.18
4716.00,1.18
4715.00,1.19
4714.00,1.19
4713.00,1.19
4712.00,1.19
4711.00,1.20
4710.00,1.20
4709.00,1.20
4708.00,1.21
4707.00,1.21
4706.00,1.21
4705.00,1.21
4704.00,1.22
4703.00,1.22
4702.00,1.22
4701.00,1.23
4700.00,1.23
4699.00,1.23
4698.00,1.23
4697.00,1.23
4696.00,1.24
4695.00,1.24
4694.00,1.24
4693.00,1.24
4692.00,1.24
4691.00,1.24
4690.00,1.25
4689.00,1.25
4688.00,1.25
4687.00,1.25
4686.00,1.25
4685.00,1.25
4684.00,1.26
4683.00,1.26
4682.00,1.26
4681.00,1.26
4680.00,1.26
4679.00,1.26
4678.00,1.27
4677.00,1.27
4676.00,1.27
4675.00,1.27
4674.00,1.27
4673.00,1.27
4672.00,1.28
4671.00,1.28
4670.00,1.28
4669.00,1.28
4668.00,1.28
4667.00,1.29
4666.00,1.29
4665.00,1.29
4664.00,1.29
4663.00,1.30
4662.00,1.30
4661.00,1.30
4660.00,1.30
4659.00,1.31
4658.00,1.31
4657.00,1.31
4656.00,1.31
4655.00,1.32
4654.00,1.32
4653.00,1.32
4652.00,1.32
4651.00,1.32
4650.00,1.33
4649.00,1.33
4648.00,1.33
4647.00,1.33
4646.00,1.33
4645.00,1.33
4644.00,1.34
4643.00,1.34
4642.00,1.34
4641.00,1.34
4640.00,1.34
4639.00,1.34
4638.00,1.35
4637.00,1.35
4636.00,1.35
4635.00,1.35
4634.00,1.35
4633.00,1.35
4632.00,1.35
4631.00,1.36
4630.00,1.36
4629.00,1.36
4628.00,1.36
4627.00,1.36
4626.00,1.36
4625.00,1.36
4624.00,1.36
4623.00,1.37
4622.00,1.37
4621.00,1.37
4620.00,1.37
4619.00,1.37
4618.00,1.37
4617.00,1.37
4616.00,1.37
4615.00,1.37
4614.00,1.37
4613.00,1.38
4612.00,1.38
4611.00,1.38
4610.00,1.38
4609.00,1.38
4608.00,1.38
4607.00,1.38
4606.00,1.38
4605.00,1.39
4604.00,1.39
4603.00,1.39
4602.00,1.39
4601.00,1.39
4600.00,1.39
4599.00,1.39
4598.00,1.40
4597.00,1.40
4596.00,1.40
4595.00,1.40
4594.00,1.40
4593.00,1.40
4592.00,1.40
4591.00,1.41
4590.00,1.41
4589.00,1.41
4588.00,1.41
4587.00,1.41
4586.00,1.41
4585.00,1.42
4584.00,1.42
4583.00,1.42
4582.00,1.42
4581.00,1.42
4580.00,1.42
4579.00,1.42
4578.00,1.43
4577.00,1.43
4576.00,1.43
4575.00,1.43
4574.00,1.43
4573.00,1.43
4572.00,1.43
4571.00,1.43
4570.00,1.43
4569.00,1.43
4568.00,1.43
4567.00,1.43
4566.00,1.43
4565.00,1.43
4564.00,1.44
4563.00,1.44
4562.00,1.44
4561.00,1.44
4560.00,1.44
4559.00,1.44
4558.00,1.44
4557.00,1.44
4556.00,1.44
4555.00,1.45
4554.00,1.45
4553.00,1.45
4552.00,1.45
4551.00,1.45
4550.00,1.45
4549.00,1.46
4548.00,1.46
4547.00,1.46
4546.00,1.46
4545.00,1.46
4544.00,1.46
4543.00,1.46
4542.00,1.47
4541.00,1.47
4540.00,1.47
4539.00,1.47
4538.00,1.47
4537.00,1.47
4536.00,1.47
4535.00,1.47
4534.00,1.47
4533.00,1.48
4532.00,1.48
4531.00,1.48
4530.00,1.48
4529.00,1.48
4528.00,1.48
4527.00,1.48
4526.00,1.48
4525.00,1.48
4524.00,1.48
4523.00,1.48
4522.00,1.48
4521.00,1.48
4520.00,1.48
4519.00,1.48
4518.00,1.48
4517.00,1.48
4516.00,1.48
4515.00,1.48
4514.00,1.48
4513.00,1.48
4512.00,1.48
4511.00,1.48
4510.00,1.48
4509.00,1.48
4508.00,1.48
4507.00,1.48
4506.00,1.48
4505.00,1.48
4504.00,1.48
4503.00,1.48
4502.00,1.48
4501.00,1.48
4500.00,1.48
4499.00,1.48
4498.00,1.48
4497.00,1.47
4496.00,1.47
4495.00,1.47
4494.00,1.47
4493.00,1.47
4492.00,1.47
4491.00,1.47
4490.00,1.47
4489.00,1.46
4488.00,1.46
4487.00,1.46
4486.00,1.46
4485.00,1.45
4484.00,1.45
4483.00,1.45
4482.00,1.45
4481.00,1.44
4480.00,1.44
4479.00,1.44
4478.00,1.44
4477.00,1.43
4476.00,1.43
4475.00,1.43
4474.00,1.43
4473.00,1.42
4472.00,1.42
4471.00,1.42
4470.00,1.41
4469.00,1.41
4468.00,1.41
4467.00,1.40
4466.00,1.40
4465.00,1.39
4464.00,1.39
4463.00,1.39
4462.00,1.38
4461.00,1.38
4460.00,1.37
4459.00,1.37
4458.00,1.36
4457.00,1.36
4456.00,1.35
4455.00,1.34
4454.00,1.34
4453.00,1.33
4452.00,1.32
4451.00,1.32
4450.00,1.31
4449.00,1.30
4448.00,1.30
4447.00,1.29
4446.00,1.28
4445.00,1.27
4444.00,1.27
4443.00,1.26
4442.00,1.25
4441.00,1.25
4440.00,1.24
4439.00,1.23
4438.00,1.22
4437.00,1.22
4436.00,1.21
4435.00,1.20
4434.00,1.20
4433.00,1.19
4432.00,1.18
4431.00,1.18
4430.00,1.17
4429.00,1.17
4428.00,1.16
4427.00,1.16
4426.00,1.15
4425.00,1.15
4424.00,1.15
4423.00,1.14
4422.00,1.14
4421.00,1.14
4420.00,1.14
4419.00,1.13
4418.00,1.13
4417.00,1.13
4416.00,1.13
4415.00,1.13
4414.00,1.13
4413.00,1.13
4412.00,1.13
4411.00,1.13
4410.00,1.13
4409.00,1.13
4408.00,1.13
4407.00,1.13
4406.00,1.13
4405.00,1.13
4404.00,1.13
4403.00,1.13
4402.00,1.13
4401.00,1.13
4400.00,1.13
4399.00,1.14
4398.00,1.14
4397.00,1.14
4396.00,1.14
4395.00,1.14
4394.00,1.14
4393.00,1.15
4392.00,1.15
4391.00,1.15
4390.00,1.15
4389.00,1.15
4388.00,1.16
4387.00,1.16
4386.00,1.16
4385.00,1.16
4384.00,1.17
4383.00,1.17
4382.00,1.17
4381.00,1.17
4380.00,1.17
4379.00,1.18
4378.00,1.18
4377.00,1.18
4376.00,1.18
4375.00,1.18
4374.00,1.19
4373.00,1.19
4372.00,1.19
4371.00,1.19
4370.00,1.19
4369.00,1.19
4368.00,1.19
4367.00,1.19
4366.00,1.19
4365.00,1.19
4364.00,1.19
4363.00,1.19
4362.00,1.19
4361.00,1.19
4360.00,1.19
4359.00,1.19
4358.00,1.19
4357.00,1.19
4356.00,1.19
4355.00,1.19
4354.00,1.18
4353.00,1.18
4352.00,1.18
4351.00,1.18
4350.00,1.18
4349.00,1.18
4348.00,1.18
4347.00,1.18
4346.00,1.18
4345.00,1.18
4344.00,1.17
4343.00,1.17
4342.00,1.17
4341.00,1.17
4340.00,1.17
4339.00,1.17
4338.00,1.17
4337.00,1.17
4336.00,1.17
4335.00,1.17
4334.00,1.17
4333.00,1.18
4332.00,1.18
4331.00,1.18
4330.00,1.18
4329.00,1.18
4328.00,1.18
4327.00,1.18
4326.00,1.19
4325.00,1.19
4324.00,1.19
4323.00,1.20
4322.00,1.20
4321.00,1.20
4320.00,1.21
4319.00,1.21
4318.00,1.21
4317.00,1.22
4316.00,1.22
4315.00,1.23
4314.00,1.23
4313.00,1.23
4312.00,1.24
4311.00,1.24
4310.00,1.25
4309.00,1.25
4308.00,1.26
4307.00,1.26
4306.00,1.26
4305.00,1.27
4304.00,1.27
4303.00,1.27
4302.00,1.28
4301.00,1.28
4300.00,1.28
4299.00,1.29
4298.00,1.29
4297.00,1.29
4296.00,1.29
4295.00,1.30
4294.00,1.30
4293.00,1.30
4292.00,1.30
4291.00,1.31
4290.00,1.31
4289.00,1.31
4288.00,1.31
4287.00,1.31
4286.00,1.32
4285.00,1.32
4284.00,1.32
4283.00,1.32
4282.00,1.32
4281.00,1.32
4280.00,1.32
4279.00,1.32
4278.00,1.32
4277.00,1.32
4276.00,1.32
4275.00,1.32
4274.00,1.32
4273.00,1.32
4272.00,1.32
4271.00,1.32
4270.00,1.32
4269.00,1.31
4268.00,1.31
4267.00,1.31
4266.00,1.31
4265.00,1.31
4264.00,1.31
4263.00,1.30
4262.00,1.30
4261.00,1.30
4260.00,1.30
4259.00,1.30
4258.00,1.30
4257.00,1.30
4256.00,1.30
4255.00,1.30
4254.00,1.30
4253.00,1.30
4252.00,1.30
4251.00,1.30
4250.00,1.31
4249.00,1.31
4248.00,1.31
4247.00,1.31
4246.00,1.31
4245.00,1.31
4244.00,1.32
4243.00,1.32
4242.00,1.32
4241.00,1.32
4240.00,1.33
4239.00,1.33
4238.00,1.33
4237.00,1.34
4236.00,1.34
4235.00,1.34
4234.00,1.35
4233.00,1.35
4232.00,1.35
4231.00,1.36
4230.00,1.36
4229.00,1.36
4228.00,1.37
4227.00,1.37
4226.00,1.37
4225.00,1.37
4224.00,1.38
4223.00,1.38
4222.00,1.38
4221.00,1.38
4220.00,1.38
4219.00,1.38
4218.00,1.38
4217.00,1.39
4216.00,1.39
4215.00,1.39
4214.00,1.39
4213.00,1.39
4212.00,1.39
4211.00,1.39
4210.00,1.39
4209.00,1.39
4208.00,1.39
4207.00,1.38
4206.00,1.38
4205.00,1.38
4204.00,1.38
4203.00,1.39
4202.00,1.39
4201.00,1.39
4200.00,1.39
4199.00,1.39
4198.00,1.39
4197.00,1.39
4196.00,1.39
4195.00,1.39
4194.00,1.39
4193.00,1.39
4192.00,1.39
4191.00,1.39
4190.00,1.40
4189.00,1.40
4188.00,1.40
4187.00,1.40
4186.00,1.40
4185.00,1.40
4184.00,1.40
4183.00,1.40
4182.00,1.40
4181.00,1.40
4180.00,1.40
4179.00,1.40
4178.00,1.39
4177.00,1.39
4176.00,1.39
4175.00,1.39
4174.00,1.39
4173.00,1.39
4172.00,1.39
4171.00,1.39
4170.00,1.39
4169.00,1.39
4168.00,1.39
4167.00,1.39
4166.00,1.39
4165.00,1.39
4164.00,1.39
4163.00,1.39
4162.00,1.39
4161.00,1.39
4160.00,1.39
4159.00,1.39
4158.00,1.39
4157.00,1.39
4156.00,1.40
4155.00,1.40
4154.00,1.40
4153.00,1.40
4152.00,1.40
4151.00,1.40
4150.00,1.40
4149.00,1.40
4148.00,1.40
4147.00,1.40
4146.00,1.40
4145.00,1.40
4144.00,1.40
4143.00,1.40
4142.00,1.40
4141.00,1.40
4140.00,1.41
4139.00,1.41
4138.00,1.41
4137.00,1.41
4136.00,1.41
4135.00,1.41
4134.00,1.41
4133.00,1.41
4132.00,1.41
4131.00,1.42
4130.00,1.42
4129.00,1.42
4128.00,1.42
4127.00,1.42
4126.00,1.42
4125.00,1.42
4124.00,1.42
4123.00,1.42
4122.00,1.42
4121.00,1.42
4120.00,1.42
4119.00,1.42
4118.00,1.42
4117.00,1.42
4116.00,1.43
4115.00,1.43
4114.00,1.43
4113.00,1.43
4112.00,1.43
4111.00,1.43
4110.00,1.43
4109.00,1.43
4108.00,1.43
4107.00,1.43
4106.00,1.43
4105.00,1.43
4104.00,1.43
4103.00,1.43
4102.00,1.43
4101.00,1.43
4100.00,1.43
4099.00,1.43
4098.00,1.43
4097.00,1.43
4096.00,1.43
4095.00,1.43
4094.00,1.43
4093.00,1.43
4092.00,1.43
4091.00,1.43
4090.00,1.43
4089.00,1.43
4088.00,1.43
4087.00,1.43
4086.00,1.43
4085.00,1.43
4084.00,1.43
4083.00,1.43
4082.00,1.44
4081.00,1.44
4080.00,1.44
4079.00,1.44
4078.00,1.44
4077.00,1.44
4076.00,1.44
4075.00,1.44
4074.00,1.44
4073.00,1.44
4072.00,1.44
4071.00,1.44
4070.00,1.44
4069.00,1.44
4068.00,1.44
4067.00,1.44
4066.00,1.44
4065.00,1.44
4064.00,1.44
4063.00,1.44
4062.00,1.44
4061.00,1.45
4060.00,1.45
4059.00,1.45
4058.00,1.45
4057.00,1.45
4056.00,1.45
4055.00,1.45
4054.00,1.45
4053.00,1.45
4052.00,1.45
4051.00,1.45
4050.00,1.45
4049.00,1.45
4048.00,1.45
4047.00,1.45
4046.00,1.46
4045.00,1.46
4044.00,1.46
4043.00,1.46
4042.00,1.46
4041.00,1.46
4040.00,1.47
4039.00,1.47
4038.00,1.47
4037.00,1.47
4036.00,1.47
4035.00,1.47
4034.00,1.48
4033.00,1.48
4032.00,1.48
4031.00,1.48
4030.00,1.48
4029.00,1.48
4028.00,1.48
4027.00,1.48
4026.00,1.48
4025.00,1.48
4024.00,1.48
4023.00,1.48
4022.00,1.48
4021.00,1.48
4020.00,1.48
4019.00,1.48
4018.00,1.48
4017.00,1.48
4016.00,1.48
4015.00,1.48
4014.00,1.48
4013.00,1.48
4012.00,1.48
4011.00,1.48
4010.00,1.48
4009.00,1.48
4008.00,1.48
4007.00,1.48
4006.00,1.48
4005.00,1.48
4004.00,1.48
4003.00,1.48
4002.00,1.48
4001.00,1.48
4000.00,1.48
