创建为新数据集,样品 156 用户 Administrator 日期 星期三, 十一月 08 2017
cm-1,%T
10000.00,1.74
9999.00,1.74
9998.00,1.74
9997.00,1.74
9996.00,1.74
9995.00,1.74
9994.00,1.74
9993.00,1.74
9992.00,1.74
9991.00,1.74
9990.00,1.74
9989.00,1.74
9988.00,1.74
9987.00,1.74
9986.00,1.74
9985.00,1.74
9984.00,1.74
9983.00,1.74
9982.00,1.74
9981.00,1.73
9980.00,1.73
9979.00,1.73
9978.00,1.73
9977.00,1.73
9976.00,1.73
9975.00,1.73
9974.00,1.73
9973.00,1.73
9972.00,1.73
9971.00,1.73
9970.00,1.73
9969.00,1.73
9968.00,1.73
9967.00,1.73
9966.00,1.72
9965.00,1.72
9964.00,1.72
9963.00,1.72
9962.00,1.72
9961.00,1.71
9960.00,1.71
9959.00,1.71
9958.00,1.71
9957.00,1.70
9956.00,1.70
9955.00,1.70
9954.00,1.69
9953.00,1.69
9952.00,1.69
9951.00,1.68
9950.00,1.68
9949.00,1.68
9948.00,1.68
9947.00,1.68
9946.00,1.67
9945.00,1.67
9944.00,1.67
9943.00,1.67
9942.00,1.67
9941.00,1.67
9940.00,1.68
9939.00,1.68
9938.00,1.68
9937.00,1.68
9936.00,1.68
9935.00,1.69
9934.00,1.69
9933.00,1.69
9932.00,1.70
9931.00,1.70
9930.00,1.70
9929.00,1.70
9928.00,1.71
9927.00,1.71
9926.00,1.71
9925.00,1.71
9924.00,1.71
9923.00,1.71
9922.00,1.71
9921.00,1.71
9920.00,1.71
9919.00,1.70
9918.00,1.70
9917.00,1.70
9916.00,1.70
9915.00,1.70
9914.00,1.69
9913.00,1.69
9912.00,1.69
9911.00,1.69
9910.00,1.69
9909.00,1.69
9908.00,1.69
9907.00,1.69
9906.00,1.69
9905.00,1.69
9904.00,1.69
9903.00,1.69
9902.00,1.69
9901.00,1.69
9900.00,1.69
9899.00,1.69
9898.00,1.69
9897.00,1.69
9896.00,1.69
9895.00,1.69
9894.00,1.69
9893.00,1.69
9892.00,1.69
9891.00,1.69
9890.00,1.69
9889.00,1.69
9888.00,1.69
9887.00,1.69
9886.00,1.69
9885.00,1.69
9884.00,1.69
9883.00,1.70
9882.00,1.70
9881.00,1.70
9880.00,1.70
9879.00,1.71
9878.00,1.71
9877.00,1.71
9876.00,1.71
9875.00,1.72
9874.00,1.72
9873.00,1.72
9872.00,1.72
9871.00,1.72
9870.00,1.71
9869.00,1.71
9868.00,1.71
9867.00,1.70
9866.00,1.70
9865.00,1.70
9864.00,1.69
9863.00,1.69
9862.00,1.69
9861.00,1.68
9860.00,1.68
9859.00,1.68
9858.00,1.68
9857.00,1.68
9856.00,1.68
9855.00,1.68
9854.00,1.68
9853.00,1.68
9852.00,1.68
9851.00,1.68
9850.00,1.68
9849.00,1.68
9848.00,1.69
9847.00,1.69
9846.00,1.69
9845.00,1.69
9844.00,1.69
9843.00,1.69
9842.00,1.69
9841.00,1.70
9840.00,1.70
9839.00,1.70
9838.00,1.70
9837.00,1.70
9836.00,1.71
9835.00,1.71
9834.00,1.71
9833.00,1.71
9832.00,1.71
9831.00,1.71
9830.00,1.71
9829.00,1.71
9828.00,1.71
9827.00,1.71
9826.00,1.71
9825.00,1.71
9824.00,1.71
9823.00,1.70
9822.00,1.70
9821.00,1.70
9820.00,1.70
9819.00,1.70
9818.00,1.69
9817.00,1.69
9816.00,1.69
9815.00,1.69
9814.00,1.69
9813.00,1.69
9812.00,1.69
9811.00,1.69
9810.00,1.69
9809.00,1.69
9808.00,1.69
9807.00,1.69
9806.00,1.69
9805.00,1.69
9804.00,1.69
9803.00,1.69
9802.00,1.69
9801.00,1.70
9800.00,1.70
9799.00,1.70
9798.00,1.70
9797.00,1.70
9796.00,1.70
9795.00,1.70
9794.00,1.70
9793.00,1.71
9792.00,1.71
9791.00,1.71
9790.00,1.71
9789.00,1.71
9788.00,1.71
9787.00,1.71
9786.00,1.71
9785.00,1.71
9784.00,1.71
9783.00,1.71
9782.00,1.71
9781.00,1.72
9780.00,1.72
9779.00,1.72
9778.00,1.72
9777.00,1.72
9776.00,1.72
9775.00,1.72
9774.00,1.72
9773.00,1.72
9772.00,1.72
9771.00,1.72
9770.00,1.72
9769.00,1.72
9768.00,1.72
9767.00,1.72
9766.00,1.71
9765.00,1.71
9764.00,1.71
9763.00,1.71
9762.00,1.71
9761.00,1.71
9760.00,1.71
9759.00,1.71
9758.00,1.71
9757.00,1.72
9756.00,1.72
9755.00,1.72
9754.00,1.72
9753.00,1.72
9752.00,1.72
9751.00,1.73
9750.00,1.73
9749.00,1.73
9748.00,1.73
9747.00,1.73
9746.00,1.73
9745.00,1.74
9744.00,1.74
9743.00,1.74
9742.00,1.74
9741.00,1.74
9740.00,1.74
9739.00,1.74
9738.00,1.74
9737.00,1.74
9736.00,1.74
9735.00,1.73
9734.00,1.73
9733.00,1.73
9732.00,1.73
9731.00,1.73
9730.00,1.73
9729.00,1.73
9728.00,1.73
9727.00,1.73
9726.00,1.73
9725.00,1.73
9724.00,1.73
9723.00,1.73
9722.00,1.73
9721.00,1.72
9720.00,1.72
9719.00,1.72
9718.00,1.72
9717.00,1.72
9716.00,1.72
9715.00,1.72
9714.00,1.72
9713.00,1.72
9712.00,1.72
9711.00,1.71
9710.00,1.71
9709.00,1.71
9708.00,1.71
9707.00,1.71
9706.00,1.71
9705.00,1.70
9704.00,1.70
9703.00,1.70
9702.00,1.70
9701.00,1.70
9700.00,1.69
9699.00,1.69
9698.00,1.69
9697.00,1.69
9696.00,1.69
9695.00,1.69
9694.00,1.69
9693.00,1.69
9692.00,1.69
9691.00,1.69
9690.00,1.69
9689.00,1.69
9688.00,1.69
9687.00,1.69
9686.00,1.69
9685.00,1.69
9684.00,1.69
9683.00,1.69
9682.00,1.69
9681.00,1.69
9680.00,1.69
9679.00,1.69
9678.00,1.69
9677.00,1.69
9676.00,1.69
9675.00,1.69
9674.00,1.69
9673.00,1.69
9672.00,1.69
9671.00,1.69
9670.00,1.69
9669.00,1.69
9668.00,1.69
9667.00,1.69
9666.00,1.69
9665.00,1.69
9664.00,1.69
9663.00,1.68
9662.00,1.68
9661.00,1.68
9660.00,1.68
9659.00,1.68
9658.00,1.68
9657.00,1.68
9656.00,1.68
9655.00,1.68
9654.00,1.68
9653.00,1.68
9652.00,1.68
9651.00,1.68
9650.00,1.68
9649.00,1.68
9648.00,1.68
9647.00,1.68
9646.00,1.69
9645.00,1.69
9644.00,1.69
9643.00,1.69
9642.00,1.69
9641.00,1.69
9640.00,1.69
9639.00,1.69
9638.00,1.69
9637.00,1.69
9636.00,1.69
9635.00,1.69
9634.00,1.69
9633.00,1.69
9632.00,1.69
9631.00,1.69
9630.00,1.69
9629.00,1.69
9628.00,1.69
9627.00,1.69
9626.00,1.69
9625.00,1.69
9624.00,1.69
9623.00,1.69
9622.00,1.69
9621.00,1.69
9620.00,1.68
9619.00,1.68
9618.00,1.68
9617.00,1.68
9616.00,1.68
9615.00,1.68
9614.00,1.68
9613.00,1.68
9612.00,1.69
9611.00,1.69
9610.00,1.69
9609.00,1.69
9608.00,1.69
9607.00,1.69
9606.00,1.69
9605.00,1.70
9604.00,1.70
9603.00,1.70
9602.00,1.70
9601.00,1.70
9600.00,1.70
9599.00,1.70
9598.00,1.70
9597.00,1.70
9596.00,1.70
9595.00,1.70
9594.00,1.70
9593.00,1.70
9592.00,1.70
9591.00,1.70
9590.00,1.70
9589.00,1.70
9588.00,1.70
9587.00,1.70
9586.00,1.70
9585.00,1.70
9584.00,1.70
9583.00,1.70
9582.00,1.69
9581.00,1.69
9580.00,1.69
9579.00,1.69
9578.00,1.68
9577.00,1.68
9576.00,1.68
9575.00,1.67
9574.00,1.67
9573.00,1.67
9572.00,1.67
9571.00,1.67
9570.00,1.66
9569.00,1.66
9568.00,1.66
9567.00,1.66
9566.00,1.66
9565.00,1.66
9564.00,1.66
9563.00,1.66
9562.00,1.66
9561.00,1.66
9560.00,1.66
9559.00,1.66
9558.00,1.66
9557.00,1.66
9556.00,1.66
9555.00,1.66
9554.00,1.66
9553.00,1.66
9552.00,1.66
9551.00,1.66
9550.00,1.66
9549.00,1.66
9548.00,1.66
9547.00,1.66
9546.00,1.66
9545.00,1.66
9544.00,1.66
9543.00,1.66
9542.00,1.67
9541.00,1.67
9540.00,1.67
9539.00,1.67
9538.00,1.68
9537.00,1.68
9536.00,1.68
9535.00,1.68
9534.00,1.68
9533.00,1.69
9532.00,1.69
9531.00,1.69
9530.00,1.69
9529.00,1.69
9528.00,1.69
9527.00,1.69
9526.00,1.69
9525.00,1.69
9524.00,1.69
9523.00,1.68
9522.00,1.68
9521.00,1.68
9520.00,1.68
9519.00,1.68
9518.00,1.68
9517.00,1.68
9516.00,1.68
9515.00,1.68
9514.00,1.68
9513.00,1.68
9512.00,1.68
9511.00,1.68
9510.00,1.68
9509.00,1.69
9508.00,1.69
9507.00,1.69
9506.00,1.69
9505.00,1.69
9504.00,1.69
9503.00,1.69
9502.00,1.69
9501.00,1.69
9500.00,1.69
9499.00,1.70
9498.00,1.70
9497.00,1.70
9496.00,1.70
9495.00,1.69
9494.00,1.69
9493.00,1.69
9492.00,1.69
9491.00,1.69
9490.00,1.69
9489.00,1.69
9488.00,1.69
9487.00,1.69
9486.00,1.69
9485.00,1.69
9484.00,1.69
9483.00,1.69
9482.00,1.69
9481.00,1.69
9480.00,1.69
9479.00,1.69
9478.00,1.69
9477.00,1.69
9476.00,1.69
9475.00,1.69
9474.00,1.69
9473.00,1.69
9472.00,1.69
9471.00,1.69
9470.00,1.69
9469.00,1.69
9468.00,1.69
9467.00,1.69
9466.00,1.68
9465.00,1.68
9464.00,1.68
9463.00,1.68
9462.00,1.68
9461.00,1.69
9460.00,1.69
9459.00,1.69
9458.00,1.69
9457.00,1.69
9456.00,1.69
9455.00,1.69
9454.00,1.69
9453.00,1.69
9452.00,1.69
9451.00,1.70
9450.00,1.70
9449.00,1.70
9448.00,1.70
9447.00,1.70
9446.00,1.70
9445.00,1.70
9444.00,1.70
9443.00,1.70
9442.00,1.70
9441.00,1.70
9440.00,1.70
9439.00,1.70
9438.00,1.70
9437.00,1.70
9436.00,1.70
9435.00,1.70
9434.00,1.70
9433.00,1.70
9432.00,1.70
9431.00,1.69
9430.00,1.69
9429.00,1.69
9428.00,1.69
9427.00,1.69
9426.00,1.69
9425.00,1.69
9424.00,1.69
9423.00,1.69
9422.00,1.70
9421.00,1.70
9420.00,1.70
9419.00,1.70
9418.00,1.70
9417.00,1.70
9416.00,1.70
9415.00,1.70
9414.00,1.70
9413.00,1.70
9412.00,1.70
9411.00,1.70
9410.00,1.70
9409.00,1.70
9408.00,1.70
9407.00,1.70
9406.00,1.70
9405.00,1.70
9404.00,1.70
9403.00,1.70
9402.00,1.70
9401.00,1.70
9400.00,1.70
9399.00,1.70
9398.00,1.71
9397.00,1.71
9396.00,1.71
9395.00,1.71
9394.00,1.72
9393.00,1.72
9392.00,1.72
9391.00,1.72
9390.00,1.73
9389.00,1.73
9388.00,1.73
9387.00,1.73
9386.00,1.73
9385.00,1.73
9384.00,1.73
9383.00,1.73
9382.00,1.73
9381.00,1.73
9380.00,1.73
9379.00,1.73
9378.00,1.73
9377.00,1.73
9376.00,1.72
9375.00,1.72
9374.00,1.72
9373.00,1.72
9372.00,1.72
9371.00,1.72
9370.00,1.72
9369.00,1.72
9368.00,1.72
9367.00,1.72
9366.00,1.72
9365.00,1.72
9364.00,1.71
9363.00,1.71
9362.00,1.71
9361.00,1.71
9360.00,1.71
9359.00,1.71
9358.00,1.71
9357.00,1.71
9356.00,1.71
9355.00,1.71
9354.00,1.71
9353.00,1.71
9352.00,1.71
9351.00,1.71
9350.00,1.71
9349.00,1.71
9348.00,1.71
9347.00,1.72
9346.00,1.72
9345.00,1.72
9344.00,1.72
9343.00,1.72
9342.00,1.72
9341.00,1.72
9340.00,1.73
9339.00,1.73
9338.00,1.73
9337.00,1.73
9336.00,1.73
9335.00,1.73
9334.00,1.74
9333.00,1.74
9332.00,1.74
9331.00,1.74
9330.00,1.74
9329.00,1.74
9328.00,1.74
9327.00,1.74
9326.00,1.74
9325.00,1.74
9324.00,1.74
9323.00,1.73
9322.00,1.73
9321.00,1.73
9320.00,1.73
9319.00,1.73
9318.00,1.73
9317.00,1.73
9316.00,1.73
9315.00,1.73
9314.00,1.73
9313.00,1.73
9312.00,1.73
9311.00,1.73
9310.00,1.73
9309.00,1.73
9308.00,1.73
9307.00,1.73
9306.00,1.73
9305.00,1.73
9304.00,1.73
9303.00,1.74
9302.00,1.74
9301.00,1.74
9300.00,1.74
9299.00,1.74
9298.00,1.74
9297.00,1.74
9296.00,1.73
9295.00,1.73
9294.00,1.73
9293.00,1.73
9292.00,1.73
9291.00,1.73
9290.00,1.73
9289.00,1.73
9288.00,1.73
9287.00,1.73
9286.00,1.73
9285.00,1.73
9284.00,1.73
9283.00,1.73
9282.00,1.73
9281.00,1.73
9280.00,1.73
9279.00,1.73
9278.00,1.73
9277.00,1.73
9276.00,1.73
9275.00,1.72
9274.00,1.72
9273.00,1.72
9272.00,1.72
9271.00,1.72
9270.00,1.72
9269.00,1.72
9268.00,1.72
9267.00,1.72
9266.00,1.72
9265.00,1.73
9264.00,1.73
9263.00,1.73
9262.00,1.73
9261.00,1.73
9260.00,1.73
9259.00,1.73
9258.00,1.73
9257.00,1.73
9256.00,1.73
9255.00,1.73
9254.00,1.73
9253.00,1.73
9252.00,1.73
9251.00,1.73
9250.00,1.73
9249.00,1.73
9248.00,1.73
9247.00,1.73
9246.00,1.73
9245.00,1.73
9244.00,1.73
9243.00,1.73
9242.00,1.73
9241.00,1.73
9240.00,1.73
9239.00,1.73
9238.00,1.73
9237.00,1.73
9236.00,1.73
9235.00,1.73
9234.00,1.73
9233.00,1.73
9232.00,1.73
9231.00,1.73
9230.00,1.73
9229.00,1.73
9228.00,1.73
9227.00,1.73
9226.00,1.73
9225.00,1.73
9224.00,1.73
9223.00,1.73
9222.00,1.73
9221.00,1.72
9220.00,1.72
9219.00,1.72
9218.00,1.72
9217.00,1.72
9216.00,1.72
9215.00,1.72
9214.00,1.72
9213.00,1.72
9212.00,1.71
9211.00,1.71
9210.00,1.71
9209.00,1.71
9208.00,1.71
9207.00,1.71
9206.00,1.71
9205.00,1.71
9204.00,1.71
9203.00,1.71
9202.00,1.71
9201.00,1.71
9200.00,1.71
9199.00,1.71
9198.00,1.71
9197.00,1.71
9196.00,1.71
9195.00,1.71
9194.00,1.71
9193.00,1.71
9192.00,1.71
9191.00,1.71
9190.00,1.71
9189.00,1.71
9188.00,1.71
9187.00,1.71
9186.00,1.71
9185.00,1.71
9184.00,1.71
9183.00,1.71
9182.00,1.71
9181.00,1.72
9180.00,1.72
9179.00,1.72
9178.00,1.72
9177.00,1.72
9176.00,1.72
9175.00,1.72
9174.00,1.72
9173.00,1.72
9172.00,1.72
9171.00,1.72
9170.00,1.72
9169.00,1.71
9168.00,1.71
9167.00,1.71
9166.00,1.71
9165.00,1.71
9164.00,1.71
9163.00,1.71
9162.00,1.71
9161.00,1.71
9160.00,1.70
9159.00,1.70
9158.00,1.70
9157.00,1.70
9156.00,1.70
9155.00,1.70
9154.00,1.70
9153.00,1.70
9152.00,1.70
9151.00,1.71
9150.00,1.71
9149.00,1.71
9148.00,1.71
9147.00,1.71
9146.00,1.71
9145.00,1.71
9144.00,1.72
9143.00,1.72
9142.00,1.72
9141.00,1.72
9140.00,1.72
9139.00,1.72
9138.00,1.72
9137.00,1.72
9136.00,1.72
9135.00,1.72
9134.00,1.72
9133.00,1.72
9132.00,1.72
9131.00,1.72
9130.00,1.72
9129.00,1.72
9128.00,1.72
9127.00,1.72
9126.00,1.72
9125.00,1.72
9124.00,1.72
9123.00,1.72
9122.00,1.71
9121.00,1.71
9120.00,1.71
9119.00,1.71
9118.00,1.71
9117.00,1.71
9116.00,1.71
9115.00,1.70
9114.00,1.70
9113.00,1.70
9112.00,1.70
9111.00,1.70
9110.00,1.70
9109.00,1.71
9108.00,1.71
9107.00,1.71
9106.00,1.71
9105.00,1.71
9104.00,1.71
9103.00,1.71
9102.00,1.71
9101.00,1.71
9100.00,1.71
9099.00,1.71
9098.00,1.71
9097.00,1.71
9096.00,1.71
9095.00,1.70
9094.00,1.70
9093.00,1.70
9092.00,1.70
9091.00,1.70
9090.00,1.70
9089.00,1.70
9088.00,1.70
9087.00,1.70
9086.00,1.70
9085.00,1.71
9084.00,1.71
9083.00,1.71
9082.00,1.71
9081.00,1.71
9080.00,1.71
9079.00,1.72
9078.00,1.72
9077.00,1.72
9076.00,1.72
9075.00,1.72
9074.00,1.72
9073.00,1.72
9072.00,1.72
9071.00,1.72
9070.00,1.72
9069.00,1.72
9068.00,1.72
9067.00,1.72
9066.00,1.72
9065.00,1.71
9064.00,1.71
9063.00,1.71
9062.00,1.71
9061.00,1.71
9060.00,1.71
9059.00,1.71
9058.00,1.71
9057.00,1.71
9056.00,1.71
9055.00,1.71
9054.00,1.71
9053.00,1.71
9052.00,1.71
9051.00,1.71
9050.00,1.71
9049.00,1.71
9048.00,1.71
9047.00,1.71
9046.00,1.71
9045.00,1.71
9044.00,1.71
9043.00,1.71
9042.00,1.71
9041.00,1.71
9040.00,1.71
9039.00,1.71
9038.00,1.71
9037.00,1.71
9036.00,1.71
9035.00,1.71
9034.00,1.71
9033.00,1.71
9032.00,1.71
9031.00,1.71
9030.00,1.71
9029.00,1.71
9028.00,1.71
9027.00,1.71
9026.00,1.71
9025.00,1.71
9024.00,1.71
9023.00,1.71
9022.00,1.71
9021.00,1.71
9020.00,1.70
9019.00,1.70
9018.00,1.70
9017.00,1.70
9016.00,1.70
9015.00,1.70
9014.00,1.70
9013.00,1.70
9012.00,1.70
9011.00,1.70
9010.00,1.70
9009.00,1.70
9008.00,1.70
9007.00,1.70
9006.00,1.70
9005.00,1.70
9004.00,1.70
9003.00,1.70
9002.00,1.70
9001.00,1.70
9000.00,1.70
8999.00,1.70
8998.00,1.70
8997.00,1.70
8996.00,1.70
8995.00,1.71
8994.00,1.71
8993.00,1.71
8992.00,1.71
8991.00,1.71
8990.00,1.72
8989.00,1.72
8988.00,1.72
8987.00,1.72
8986.00,1.72
8985.00,1.73
8984.00,1.73
8983.00,1.73
8982.00,1.73
8981.00,1.73
8980.00,1.73
8979.00,1.72
8978.00,1.72
8977.00,1.72
8976.00,1.72
8975.00,1.72
8974.00,1.72
8973.00,1.72
8972.00,1.72
8971.00,1.72
8970.00,1.71
8969.00,1.71
8968.00,1.72
8967.00,1.72
8966.00,1.72
8965.00,1.72
8964.00,1.72
8963.00,1.72
8962.00,1.72
8961.00,1.73
8960.00,1.73
8959.00,1.73
8958.00,1.73
8957.00,1.73
8956.00,1.73
8955.00,1.74
8954.00,1.74
8953.00,1.74
8952.00,1.74
8951.00,1.74
8950.00,1.74
8949.00,1.74
8948.00,1.74
8947.00,1.73
8946.00,1.73
8945.00,1.73
8944.00,1.73
8943.00,1.73
8942.00,1.73
8941.00,1.73
8940.00,1.73
8939.00,1.72
8938.00,1.72
8937.00,1.72
8936.00,1.72
8935.00,1.72
8934.00,1.72
8933.00,1.72
8932.00,1.72
8931.00,1.72
8930.00,1.72
8929.00,1.72
8928.00,1.72
8927.00,1.72
8926.00,1.72
8925.00,1.72
8924.00,1.72
8923.00,1.72
8922.00,1.72
8921.00,1.72
8920.00,1.72
8919.00,1.72
8918.00,1.72
8917.00,1.72
8916.00,1.72
8915.00,1.72
8914.00,1.73
8913.00,1.73
8912.00,1.73
8911.00,1.73
8910.00,1.73
8909.00,1.73
8908.00,1.73
8907.00,1.73
8906.00,1.72
8905.00,1.72
8904.00,1.72
8903.00,1.72
8902.00,1.72
8901.00,1.72
8900.00,1.72
8899.00,1.72
8898.00,1.72
8897.00,1.72
8896.00,1.72
8895.00,1.72
8894.00,1.72
8893.00,1.72
8892.00,1.72
8891.00,1.72
8890.00,1.72
8889.00,1.72
8888.00,1.72
8887.00,1.72
8886.00,1.72
8885.00,1.72
8884.00,1.72
8883.00,1.73
8882.00,1.73
8881.00,1.73
8880.00,1.73
8879.00,1.73
8878.00,1.73
8877.00,1.73
8876.00,1.73
8875.00,1.73
8874.00,1.73
8873.00,1.73
8872.00,1.73
8871.00,1.73
8870.00,1.73
8869.00,1.73
8868.00,1.73
8867.00,1.73
8866.00,1.73
8865.00,1.73
8864.00,1.73
8863.00,1.73
8862.00,1.73
8861.00,1.73
8860.00,1.73
8859.00,1.73
8858.00,1.73
8857.00,1.73
8856.00,1.73
8855.00,1.73
8854.00,1.73
8853.00,1.73
8852.00,1.73
8851.00,1.73
8850.00,1.73
8849.00,1.73
8848.00,1.73
8847.00,1.72
8846.00,1.72
8845.00,1.72
8844.00,1.72
8843.00,1.72
8842.00,1.72
8841.00,1.71
8840.00,1.71
8839.00,1.71
8838.00,1.71
8837.00,1.71
8836.00,1.71
8835.00,1.71
8834.00,1.71
8833.00,1.71
8832.00,1.71
8831.00,1.71
8830.00,1.71
8829.00,1.71
8828.00,1.71
8827.00,1.72
8826.00,1.72
8825.00,1.72
8824.00,1.72
8823.00,1.72
8822.00,1.72
8821.00,1.72
8820.00,1.72
8819.00,1.73
8818.00,1.73
8817.00,1.73
8816.00,1.73
8815.00,1.73
8814.00,1.73
8813.00,1.72
8812.00,1.72
8811.00,1.72
8810.00,1.72
8809.00,1.72
8808.00,1.72
8807.00,1.72
8806.00,1.72
8805.00,1.72
8804.00,1.71
8803.00,1.71
8802.00,1.71
8801.00,1.71
8800.00,1.71
8799.00,1.71
8798.00,1.71
8797.00,1.70
8796.00,1.70
8795.00,1.70
8794.00,1.70
8793.00,1.70
8792.00,1.70
8791.00,1.70
8790.00,1.69
8789.00,1.69
8788.00,1.69
8787.00,1.69
8786.00,1.69
8785.00,1.69
8784.00,1.69
8783.00,1.69
8782.00,1.69
8781.00,1.69
8780.00,1.69
8779.00,1.68
8778.00,1.68
8777.00,1.68
8776.00,1.68
8775.00,1.68
8774.00,1.68
8773.00,1.68
8772.00,1.68
8771.00,1.68
8770.00,1.68
8769.00,1.68
8768.00,1.68
8767.00,1.68
8766.00,1.67
8765.00,1.67
8764.00,1.67
8763.00,1.67
8762.00,1.67
8761.00,1.67
8760.00,1.67
8759.00,1.67
8758.00,1.66
8757.00,1.66
8756.00,1.66
8755.00,1.66
8754.00,1.66
8753.00,1.66
8752.00,1.65
8751.00,1.65
8750.00,1.65
8749.00,1.65
8748.00,1.65
8747.00,1.65
8746.00,1.65
8745.00,1.65
8744.00,1.65
8743.00,1.65
8742.00,1.65
8741.00,1.65
8740.00,1.65
8739.00,1.65
8738.00,1.65
8737.00,1.65
8736.00,1.65
8735.00,1.65
8734.00,1.65
8733.00,1.65
8732.00,1.65
8731.00,1.65
8730.00,1.65
8729.00,1.65
8728.00,1.65
8727.00,1.65
8726.00,1.64
8725.00,1.64
8724.00,1.64
8723.00,1.64
8722.00,1.64
8721.00,1.64
8720.00,1.64
8719.00,1.64
8718.00,1.64
8717.00,1.64
8716.00,1.64
8715.00,1.64
8714.00,1.64
8713.00,1.64
8712.00,1.64
8711.00,1.64
8710.00,1.64
8709.00,1.64
8708.00,1.64
8707.00,1.64
8706.00,1.64
8705.00,1.64
8704.00,1.64
8703.00,1.64
8702.00,1.63
8701.00,1.63
8700.00,1.63
8699.00,1.63
8698.00,1.63
8697.00,1.63
8696.00,1.64
8695.00,1.64
8694.00,1.64
8693.00,1.64
8692.00,1.64
8691.00,1.64
8690.00,1.64
8689.00,1.64
8688.00,1.64
8687.00,1.64
8686.00,1.64
8685.00,1.64
8684.00,1.64
8683.00,1.64
8682.00,1.64
8681.00,1.64
8680.00,1.64
8679.00,1.63
8678.00,1.63
8677.00,1.63
8676.00,1.63
8675.00,1.63
8674.00,1.63
8673.00,1.62
8672.00,1.62
8671.00,1.62
8670.00,1.62
8669.00,1.62
8668.00,1.63
8667.00,1.63
8666.00,1.63
8665.00,1.63
8664.00,1.63
8663.00,1.63
8662.00,1.64
8661.00,1.64
8660.00,1.64
8659.00,1.64
8658.00,1.64
8657.00,1.64
8656.00,1.64
8655.00,1.64
8654.00,1.64
8653.00,1.64
8652.00,1.64
8651.00,1.64
8650.00,1.63
8649.00,1.63
8648.00,1.63
8647.00,1.63
8646.00,1.62
8645.00,1.62
8644.00,1.62
8643.00,1.62
8642.00,1.61
8641.00,1.61
8640.00,1.61
8639.00,1.61
8638.00,1.61
8637.00,1.61
8636.00,1.60
8635.00,1.60
8634.00,1.60
8633.00,1.60
8632.00,1.60
8631.00,1.60
8630.00,1.60
8629.00,1.60
8628.00,1.60
8627.00,1.61
8626.00,1.61
8625.00,1.61
8624.00,1.61
8623.00,1.61
8622.00,1.61
8621.00,1.61
8620.00,1.61
8619.00,1.61
8618.00,1.61
8617.00,1.61
8616.00,1.61
8615.00,1.61
8614.00,1.61
8613.00,1.60
8612.00,1.60
8611.00,1.60
8610.00,1.60
8609.00,1.60
8608.00,1.60
8607.00,1.59
8606.00,1.59
8605.00,1.59
8604.00,1.59
8603.00,1.59
8602.00,1.59
8601.00,1.58
8600.00,1.58
8599.00,1.58
8598.00,1.58
8597.00,1.58
8596.00,1.58
8595.00,1.58
8594.00,1.58
8593.00,1.58
8592.00,1.58
8591.00,1.58
8590.00,1.58
8589.00,1.58
8588.00,1.58
8587.00,1.58
8586.00,1.58
8585.00,1.58
8584.00,1.58
8583.00,1.58
8582.00,1.58
8581.00,1.58
8580.00,1.58
8579.00,1.58
8578.00,1.58
8577.00,1.58
8576.00,1.58
8575.00,1.58
8574.00,1.58
8573.00,1.58
8572.00,1.58
8571.00,1.58
8570.00,1.58
8569.00,1.58
8568.00,1.58
8567.00,1.58
8566.00,1.58
8565.00,1.58
8564.00,1.58
8563.00,1.58
8562.00,1.59
8561.00,1.59
8560.00,1.59
8559.00,1.59
8558.00,1.59
8557.00,1.59
8556.00,1.59
8555.00,1.59
8554.00,1.59
8553.00,1.59
8552.00,1.59
8551.00,1.59
8550.00,1.59
8549.00,1.59
8548.00,1.59
8547.00,1.59
8546.00,1.59
8545.00,1.59
8544.00,1.59
8543.00,1.58
8542.00,1.58
8541.00,1.58
8540.00,1.58
8539.00,1.58
8538.00,1.58
8537.00,1.58
8536.00,1.58
8535.00,1.58
8534.00,1.58
8533.00,1.58
8532.00,1.58
8531.00,1.58
8530.00,1.57
8529.00,1.57
8528.00,1.57
8527.00,1.57
8526.00,1.57
8525.00,1.57
8524.00,1.57
8523.00,1.57
8522.00,1.57
8521.00,1.57
8520.00,1.57
8519.00,1.57
8518.00,1.57
8517.00,1.57
8516.00,1.57
8515.00,1.57
8514.00,1.57
8513.00,1.57
8512.00,1.57
8511.00,1.57
8510.00,1.57
8509.00,1.56
8508.00,1.56
8507.00,1.56
8506.00,1.56
8505.00,1.56
8504.00,1.56
8503.00,1.56
8502.00,1.56
8501.00,1.56
8500.00,1.55
8499.00,1.55
8498.00,1.55
8497.00,1.55
8496.00,1.55
8495.00,1.55
8494.00,1.55
8493.00,1.55
8492.00,1.55
8491.00,1.55
8490.00,1.54
8489.00,1.54
8488.00,1.54
8487.00,1.54
8486.00,1.54
8485.00,1.54
8484.00,1.54
8483.00,1.54
8482.00,1.54
8481.00,1.54
8480.00,1.54
8479.00,1.54
8478.00,1.54
8477.00,1.54
8476.00,1.54
8475.00,1.54
8474.00,1.54
8473.00,1.54
8472.00,1.54
8471.00,1.54
8470.00,1.54
8469.00,1.54
8468.00,1.54
8467.00,1.54
8466.00,1.54
8465.00,1.53
8464.00,1.53
8463.00,1.53
8462.00,1.53
8461.00,1.53
8460.00,1.53
8459.00,1.53
8458.00,1.53
8457.00,1.53
8456.00,1.53
8455.00,1.52
8454.00,1.52
8453.00,1.52
8452.00,1.52
8451.00,1.52
8450.00,1.52
8449.00,1.52
8448.00,1.52
8447.00,1.52
8446.00,1.52
8445.00,1.52
8444.00,1.52
8443.00,1.52
8442.00,1.52
8441.00,1.52
8440.00,1.52
8439.00,1.52
8438.00,1.52
8437.00,1.52
8436.00,1.52
8435.00,1.52
8434.00,1.52
8433.00,1.52
8432.00,1.52
8431.00,1.52
8430.00,1.52
8429.00,1.52
8428.00,1.52
8427.00,1.53
8426.00,1.53
8425.00,1.53
8424.00,1.53
8423.00,1.53
8422.00,1.53
8421.00,1.53
8420.00,1.53
8419.00,1.53
8418.00,1.53
8417.00,1.53
8416.00,1.53
8415.00,1.53
8414.00,1.53
8413.00,1.53
8412.00,1.53
8411.00,1.53
8410.00,1.53
8409.00,1.53
8408.00,1.53
8407.00,1.53
8406.00,1.53
8405.00,1.54
8404.00,1.54
8403.00,1.54
8402.00,1.54
8401.00,1.54
8400.00,1.54
8399.00,1.54
8398.00,1.55
8397.00,1.55
8396.00,1.55
8395.00,1.55
8394.00,1.55
8393.00,1.56
8392.00,1.56
8391.00,1.56
8390.00,1.56
8389.00,1.56
8388.00,1.57
8387.00,1.57
8386.00,1.57
8385.00,1.57
8384.00,1.57
8383.00,1.57
8382.00,1.57
8381.00,1.57
8380.00,1.58
8379.00,1.58
8378.00,1.58
8377.00,1.58
8376.00,1.57
8375.00,1.57
8374.00,1.57
8373.00,1.57
8372.00,1.57
8371.00,1.57
8370.00,1.57
8369.00,1.57
8368.00,1.57
8367.00,1.57
8366.00,1.57
8365.00,1.57
8364.00,1.57
8363.00,1.57
8362.00,1.57
8361.00,1.58
8360.00,1.58
8359.00,1.58
8358.00,1.58
8357.00,1.58
8356.00,1.58
8355.00,1.58
8354.00,1.58
8353.00,1.59
8352.00,1.59
8351.00,1.59
8350.00,1.59
8349.00,1.59
8348.00,1.59
8347.00,1.59
8346.00,1.59
8345.00,1.59
8344.00,1.59
8343.00,1.59
8342.00,1.59
8341.00,1.58
8340.00,1.58
8339.00,1.58
8338.00,1.58
8337.00,1.58
8336.00,1.58
8335.00,1.58
8334.00,1.58
8333.00,1.58
8332.00,1.58
8331.00,1.57
8330.00,1.57
8329.00,1.57
8328.00,1.57
8327.00,1.57
8326.00,1.57
8325.00,1.57
8324.00,1.57
8323.00,1.57
8322.00,1.57
8321.00,1.57
8320.00,1.57
8319.00,1.57
8318.00,1.57
8317.00,1.57
8316.00,1.57
8315.00,1.57
8314.00,1.57
8313.00,1.57
8312.00,1.57
8311.00,1.57
8310.00,1.57
8309.00,1.57
8308.00,1.57
8307.00,1.57
8306.00,1.57
8305.00,1.57
8304.00,1.57
8303.00,1.57
8302.00,1.57
8301.00,1.57
8300.00,1.57
8299.00,1.58
8298.00,1.58
8297.00,1.58
8296.00,1.58
8295.00,1.58
8294.00,1.58
8293.00,1.58
8292.00,1.58
8291.00,1.58
8290.00,1.58
8289.00,1.58
8288.00,1.58
8287.00,1.58
8286.00,1.58
8285.00,1.58
8284.00,1.58
8283.00,1.58
8282.00,1.58
8281.00,1.58
8280.00,1.58
8279.00,1.58
8278.00,1.58
8277.00,1.58
8276.00,1.58
8275.00,1.58
8274.00,1.58
8273.00,1.58
8272.00,1.58
8271.00,1.58
8270.00,1.58
8269.00,1.58
8268.00,1.58
8267.00,1.58
8266.00,1.58
8265.00,1.58
8264.00,1.58
8263.00,1.58
8262.00,1.58
8261.00,1.58
8260.00,1.58
8259.00,1.58
8258.00,1.58
8257.00,1.58
8256.00,1.58
8255.00,1.58
8254.00,1.58
8253.00,1.58
8252.00,1.58
8251.00,1.59
8250.00,1.59
8249.00,1.59
8248.00,1.59
8247.00,1.59
8246.00,1.59
8245.00,1.59
8244.00,1.59
8243.00,1.59
8242.00,1.59
8241.00,1.59
8240.00,1.59
8239.00,1.59
8238.00,1.60
8237.00,1.60
8236.00,1.60
8235.00,1.60
8234.00,1.60
8233.00,1.60
8232.00,1.60
8231.00,1.60
8230.00,1.60
8229.00,1.60
8228.00,1.60
8227.00,1.60
8226.00,1.60
8225.00,1.60
8224.00,1.60
8223.00,1.60
8222.00,1.60
8221.00,1.60
8220.00,1.60
8219.00,1.60
8218.00,1.60
8217.00,1.60
8216.00,1.60
8215.00,1.60
8214.00,1.60
8213.00,1.60
8212.00,1.60
8211.00,1.60
8210.00,1.60
8209.00,1.61
8208.00,1.61
8207.00,1.61
8206.00,1.61
8205.00,1.61
8204.00,1.61
8203.00,1.61
8202.00,1.61
8201.00,1.61
8200.00,1.61
8199.00,1.61
8198.00,1.61
8197.00,1.61
8196.00,1.61
8195.00,1.61
8194.00,1.61
8193.00,1.61
8192.00,1.61
8191.00,1.61
8190.00,1.61
8189.00,1.61
8188.00,1.61
8187.00,1.61
8186.00,1.61
8185.00,1.61
8184.00,1.62
8183.00,1.62
8182.00,1.62
8181.00,1.62
8180.00,1.62
8179.00,1.62
8178.00,1.62
8177.00,1.62
8176.00,1.62
8175.00,1.62
8174.00,1.62
8173.00,1.62
8172.00,1.62
8171.00,1.62
8170.00,1.62
8169.00,1.62
8168.00,1.62
8167.00,1.62
8166.00,1.62
8165.00,1.62
8164.00,1.62
8163.00,1.62
8162.00,1.62
8161.00,1.62
8160.00,1.62
8159.00,1.62
8158.00,1.62
8157.00,1.62
8156.00,1.62
8155.00,1.62
8154.00,1.62
8153.00,1.62
8152.00,1.62
8151.00,1.62
8150.00,1.62
8149.00,1.62
8148.00,1.62
8147.00,1.62
8146.00,1.62
8145.00,1.62
8144.00,1.62
8143.00,1.62
8142.00,1.62
8141.00,1.62
8140.00,1.62
8139.00,1.62
8138.00,1.63
8137.00,1.63
8136.00,1.63
8135.00,1.63
8134.00,1.63
8133.00,1.63
8132.00,1.63
8131.00,1.63
8130.00,1.63
8129.00,1.63
8128.00,1.63
8127.00,1.63
8126.00,1.63
8125.00,1.63
8124.00,1.63
8123.00,1.63
8122.00,1.64
8121.00,1.64
8120.00,1.64
8119.00,1.64
8118.00,1.64
8117.00,1.64
8116.00,1.64
8115.00,1.64
8114.00,1.64
8113.00,1.64
8112.00,1.64
8111.00,1.64
8110.00,1.64
8109.00,1.65
8108.00,1.65
8107.00,1.65
8106.00,1.65
8105.00,1.65
8104.00,1.65
8103.00,1.66
8102.00,1.66
8101.00,1.66
8100.00,1.66
8099.00,1.66
8098.00,1.66
8097.00,1.66
8096.00,1.66
8095.00,1.66
8094.00,1.66
8093.00,1.66
8092.00,1.66
8091.00,1.66
8090.00,1.66
8089.00,1.66
8088.00,1.66
8087.00,1.66
8086.00,1.66
8085.00,1.66
8084.00,1.66
8083.00,1.66
8082.00,1.66
8081.00,1.66
8080.00,1.66
8079.00,1.66
8078.00,1.66
8077.00,1.66
8076.00,1.67
8075.00,1.67
8074.00,1.67
8073.00,1.67
8072.00,1.67
8071.00,1.67
8070.00,1.67
8069.00,1.67
8068.00,1.67
8067.00,1.67
8066.00,1.67
8065.00,1.67
8064.00,1.67
8063.00,1.67
8062.00,1.67
8061.00,1.67
8060.00,1.67
8059.00,1.67
8058.00,1.67
8057.00,1.67
8056.00,1.67
8055.00,1.68
8054.00,1.68
8053.00,1.68
8052.00,1.68
8051.00,1.68
8050.00,1.68
8049.00,1.68
8048.00,1.68
8047.00,1.68
8046.00,1.68
8045.00,1.68
8044.00,1.69
8043.00,1.69
8042.00,1.69
8041.00,1.69
8040.00,1.69
8039.00,1.69
8038.00,1.69
8037.00,1.69
8036.00,1.69
8035.00,1.69
8034.00,1.69
8033.00,1.69
8032.00,1.69
8031.00,1.69
8030.00,1.69
8029.00,1.69
8028.00,1.69
8027.00,1.69
8026.00,1.69
8025.00,1.69
8024.00,1.69
8023.00,1.69
8022.00,1.70
8021.00,1.70
8020.00,1.70
8019.00,1.70
8018.00,1.70
8017.00,1.70
8016.00,1.70
8015.00,1.70
8014.00,1.70
8013.00,1.70
8012.00,1.70
8011.00,1.70
8010.00,1.70
8009.00,1.70
8008.00,1.70
8007.00,1.70
8006.00,1.70
8005.00,1.70
8004.00,1.70
8003.00,1.70
8002.00,1.70
8001.00,1.70
8000.00,1.70
7999.00,1.70
7998.00,1.70
7997.00,1.70
7996.00,1.70
7995.00,1.70
7994.00,1.70
7993.00,1.70
7992.00,1.71
7991.00,1.71
7990.00,1.71
7989.00,1.71
7988.00,1.71
7987.00,1.71
7986.00,1.71
7985.00,1.71
7984.00,1.71
7983.00,1.71
7982.00,1.71
7981.00,1.71
7980.00,1.71
7979.00,1.71
7978.00,1.71
7977.00,1.72
7976.00,1.72
7975.00,1.72
7974.00,1.72
7973.00,1.72
7972.00,1.72
7971.00,1.72
7970.00,1.72
7969.00,1.72
7968.00,1.72
7967.00,1.72
7966.00,1.72
7965.00,1.72
7964.00,1.72
7963.00,1.72
7962.00,1.72
7961.00,1.72
7960.00,1.72
7959.00,1.72
7958.00,1.72
7957.00,1.72
7956.00,1.72
7955.00,1.72
7954.00,1.72
7953.00,1.72
7952.00,1.72
7951.00,1.72
7950.00,1.72
7949.00,1.72
7948.00,1.72
7947.00,1.72
7946.00,1.72
7945.00,1.73
7944.00,1.73
7943.00,1.73
7942.00,1.73
7941.00,1.73
7940.00,1.73
7939.00,1.73
7938.00,1.73
7937.00,1.73
7936.00,1.73
7935.00,1.73
7934.00,1.73
7933.00,1.73
7932.00,1.73
7931.00,1.73
7930.00,1.73
7929.00,1.73
7928.00,1.73
7927.00,1.73
7926.00,1.73
7925.00,1.73
7924.00,1.73
7923.00,1.73
7922.00,1.73
7921.00,1.73
7920.00,1.73
7919.00,1.73
7918.00,1.73
7917.00,1.73
7916.00,1.73
7915.00,1.72
7914.00,1.72
7913.00,1.72
7912.00,1.72
7911.00,1.72
7910.00,1.72
7909.00,1.72
7908.00,1.72
7907.00,1.72
7906.00,1.72
7905.00,1.72
7904.00,1.72
7903.00,1.72
7902.00,1.72
7901.00,1.72
7900.00,1.72
7899.00,1.73
7898.00,1.73
7897.00,1.73
7896.00,1.73
7895.00,1.73
7894.00,1.73
7893.00,1.73
7892.00,1.73
7891.00,1.73
7890.00,1.73
7889.00,1.73
7888.00,1.73
7887.00,1.73
7886.00,1.73
7885.00,1.73
7884.00,1.73
7883.00,1.73
7882.00,1.73
7881.00,1.73
7880.00,1.73
7879.00,1.73
7878.00,1.73
7877.00,1.73
7876.00,1.73
7875.00,1.73
7874.00,1.73
7873.00,1.73
7872.00,1.73
7871.00,1.73
7870.00,1.73
7869.00,1.73
7868.00,1.73
7867.00,1.73
7866.00,1.73
7865.00,1.73
7864.00,1.74
7863.00,1.74
7862.00,1.74
7861.00,1.74
7860.00,1.74
7859.00,1.74
7858.00,1.74
7857.00,1.74
7856.00,1.74
7855.00,1.74
7854.00,1.74
7853.00,1.74
7852.00,1.74
7851.00,1.74
7850.00,1.74
7849.00,1.73
7848.00,1.73
7847.00,1.73
7846.00,1.73
7845.00,1.73
7844.00,1.73
7843.00,1.73
7842.00,1.73
7841.00,1.73
7840.00,1.73
7839.00,1.73
7838.00,1.73
7837.00,1.73
7836.00,1.73
7835.00,1.73
7834.00,1.73
7833.00,1.73
7832.00,1.73
7831.00,1.73
7830.00,1.73
7829.00,1.73
7828.00,1.73
7827.00,1.73
7826.00,1.73
7825.00,1.73
7824.00,1.73
7823.00,1.73
7822.00,1.73
7821.00,1.73
7820.00,1.72
7819.00,1.72
7818.00,1.72
7817.00,1.72
7816.00,1.72
7815.00,1.72
7814.00,1.72
7813.00,1.72
7812.00,1.72
7811.00,1.72
7810.00,1.72
7809.00,1.72
7808.00,1.72
7807.00,1.72
7806.00,1.73
7805.00,1.73
7804.00,1.73
7803.00,1.73
7802.00,1.73
7801.00,1.73
7800.00,1.73
7799.00,1.73
7798.00,1.74
7797.00,1.74
7796.00,1.74
7795.00,1.74
7794.00,1.74
7793.00,1.74
7792.00,1.74
7791.00,1.74
7790.00,1.74
7789.00,1.74
7788.00,1.74
7787.00,1.74
7786.00,1.74
7785.00,1.74
7784.00,1.74
7783.00,1.74
7782.00,1.73
7781.00,1.73
7780.00,1.73
7779.00,1.73
7778.00,1.73
7777.00,1.73
7776.00,1.73
7775.00,1.73
7774.00,1.73
7773.00,1.73
7772.00,1.73
7771.00,1.73
7770.00,1.73
7769.00,1.73
7768.00,1.73
7767.00,1.73
7766.00,1.73
7765.00,1.73
7764.00,1.73
7763.00,1.73
7762.00,1.73
7761.00,1.73
7760.00,1.73
7759.00,1.73
7758.00,1.73
7757.00,1.73
7756.00,1.73
7755.00,1.73
7754.00,1.72
7753.00,1.72
7752.00,1.72
7751.00,1.72
7750.00,1.72
7749.00,1.72
7748.00,1.72
7747.00,1.72
7746.00,1.72
7745.00,1.72
7744.00,1.72
7743.00,1.72
7742.00,1.72
7741.00,1.72
7740.00,1.72
7739.00,1.72
7738.00,1.72
7737.00,1.72
7736.00,1.72
7735.00,1.72
7734.00,1.72
7733.00,1.72
7732.00,1.72
7731.00,1.72
7730.00,1.72
7729.00,1.72
7728.00,1.72
7727.00,1.72
7726.00,1.73
7725.00,1.73
7724.00,1.73
7723.00,1.73
7722.00,1.73
7721.00,1.73
7720.00,1.73
7719.00,1.73
7718.00,1.73
7717.00,1.73
7716.00,1.73
7715.00,1.72
7714.00,1.72
7713.00,1.72
7712.00,1.72
7711.00,1.72
7710.00,1.72
7709.00,1.72
7708.00,1.72
7707.00,1.72
7706.00,1.72
7705.00,1.72
7704.00,1.72
7703.00,1.72
7702.00,1.72
7701.00,1.72
7700.00,1.72
7699.00,1.72
7698.00,1.73
7697.00,1.73
7696.00,1.73
7695.00,1.73
7694.00,1.73
7693.00,1.73
7692.00,1.73
7691.00,1.73
7690.00,1.73
7689.00,1.73
7688.00,1.73
7687.00,1.73
7686.00,1.73
7685.00,1.73
7684.00,1.73
7683.00,1.73
7682.00,1.73
7681.00,1.73
7680.00,1.73
7679.00,1.73
7678.00,1.73
7677.00,1.73
7676.00,1.73
7675.00,1.73
7674.00,1.73
7673.00,1.73
7672.00,1.73
7671.00,1.73
7670.00,1.73
7669.00,1.73
7668.00,1.73
7667.00,1.73
7666.00,1.73
7665.00,1.73
7664.00,1.73
7663.00,1.73
7662.00,1.73
7661.00,1.73
7660.00,1.73
7659.00,1.73
7658.00,1.73
7657.00,1.73
7656.00,1.73
7655.00,1.73
7654.00,1.73
7653.00,1.73
7652.00,1.73
7651.00,1.73
7650.00,1.73
7649.00,1.72
7648.00,1.72
7647.00,1.72
7646.00,1.72
7645.00,1.72
7644.00,1.73
7643.00,1.73
7642.00,1.73
7641.00,1.73
7640.00,1.73
7639.00,1.73
7638.00,1.73
7637.00,1.73
7636.00,1.73
7635.00,1.73
7634.00,1.74
7633.00,1.74
7632.00,1.74
7631.00,1.74
7630.00,1.74
7629.00,1.74
7628.00,1.74
7627.00,1.74
7626.00,1.74
7625.00,1.74
7624.00,1.74
7623.00,1.74
7622.00,1.74
7621.00,1.74
7620.00,1.74
7619.00,1.74
7618.00,1.74
7617.00,1.74
7616.00,1.74
7615.00,1.74
7614.00,1.74
7613.00,1.74
7612.00,1.74
7611.00,1.74
7610.00,1.74
7609.00,1.74
7608.00,1.74
7607.00,1.74
7606.00,1.74
7605.00,1.74
7604.00,1.74
7603.00,1.74
7602.00,1.74
7601.00,1.74
7600.00,1.74
7599.00,1.74
7598.00,1.74
7597.00,1.74
7596.00,1.74
7595.00,1.74
7594.00,1.74
7593.00,1.74
7592.00,1.74
7591.00,1.74
7590.00,1.74
7589.00,1.74
7588.00,1.74
7587.00,1.74
7586.00,1.74
7585.00,1.74
7584.00,1.74
7583.00,1.74
7582.00,1.74
7581.00,1.74
7580.00,1.74
7579.00,1.74
7578.00,1.74
7577.00,1.74
7576.00,1.74
7575.00,1.74
7574.00,1.74
7573.00,1.74
7572.00,1.74
7571.00,1.74
7570.00,1.74
7569.00,1.74
7568.00,1.74
7567.00,1.74
7566.00,1.74
7565.00,1.74
7564.00,1.74
7563.00,1.74
7562.00,1.73
7561.00,1.73
7560.00,1.73
7559.00,1.73
7558.00,1.73
7557.00,1.73
7556.00,1.73
7555.00,1.73
7554.00,1.73
7553.00,1.73
7552.00,1.73
7551.00,1.73
7550.00,1.73
7549.00,1.73
7548.00,1.73
7547.00,1.73
7546.00,1.73
7545.00,1.73
7544.00,1.72
7543.00,1.72
7542.00,1.72
7541.00,1.72
7540.00,1.72
7539.00,1.72
7538.00,1.72
7537.00,1.72
7536.00,1.72
7535.00,1.72
7534.00,1.72
7533.00,1.72
7532.00,1.72
7531.00,1.72
7530.00,1.72
7529.00,1.72
7528.00,1.72
7527.00,1.72
7526.00,1.72
7525.00,1.72
7524.00,1.72
7523.00,1.72
7522.00,1.72
7521.00,1.72
7520.00,1.71
7519.00,1.71
7518.00,1.71
7517.00,1.71
7516.00,1.71
7515.00,1.71
7514.00,1.71
7513.00,1.71
7512.00,1.71
7511.00,1.71
7510.00,1.71
7509.00,1.71
7508.00,1.71
7507.00,1.71
7506.00,1.70
7505.00,1.70
7504.00,1.70
7503.00,1.70
7502.00,1.70
7501.00,1.70
7500.00,1.70
7499.00,1.70
7498.00,1.70
7497.00,1.70
7496.00,1.70
7495.00,1.70
7494.00,1.70
7493.00,1.70
7492.00,1.70
7491.00,1.70
7490.00,1.70
7489.00,1.70
7488.00,1.70
7487.00,1.70
7486.00,1.70
7485.00,1.70
7484.00,1.70
7483.00,1.70
7482.00,1.70
7481.00,1.70
7480.00,1.70
7479.00,1.70
7478.00,1.70
7477.00,1.70
7476.00,1.70
7475.00,1.70
7474.00,1.70
7473.00,1.70
7472.00,1.70
7471.00,1.70
7470.00,1.70
7469.00,1.70
7468.00,1.70
7467.00,1.69
7466.00,1.69
7465.00,1.69
7464.00,1.69
7463.00,1.69
7462.00,1.69
7461.00,1.69
7460.00,1.68
7459.00,1.68
7458.00,1.68
7457.00,1.68
7456.00,1.68
7455.00,1.67
7454.00,1.67
7453.00,1.67
7452.00,1.67
7451.00,1.67
7450.00,1.66
7449.00,1.66
7448.00,1.66
7447.00,1.66
7446.00,1.66
7445.00,1.66
7444.00,1.66
7443.00,1.66
7442.00,1.66
7441.00,1.66
7440.00,1.65
7439.00,1.65
7438.00,1.65
7437.00,1.65
7436.00,1.65
7435.00,1.65
7434.00,1.65
7433.00,1.65
7432.00,1.65
7431.00,1.65
7430.00,1.65
7429.00,1.65
7428.00,1.65
7427.00,1.64
7426.00,1.64
7425.00,1.64
7424.00,1.64
7423.00,1.64
7422.00,1.64
7421.00,1.64
7420.00,1.64
7419.00,1.64
7418.00,1.64
7417.00,1.64
7416.00,1.64
7415.00,1.64
7414.00,1.64
7413.00,1.63
7412.00,1.63
7411.00,1.63
7410.00,1.63
7409.00,1.63
7408.00,1.63
7407.00,1.63
7406.00,1.63
7405.00,1.63
7404.00,1.63
7403.00,1.63
7402.00,1.62
7401.00,1.62
7400.00,1.62
7399.00,1.62
7398.00,1.62
7397.00,1.62
7396.00,1.61
7395.00,1.61
7394.00,1.61
7393.00,1.61
7392.00,1.61
7391.00,1.60
7390.00,1.60
7389.00,1.60
7388.00,1.60
7387.00,1.60
7386.00,1.60
7385.00,1.59
7384.00,1.59
7383.00,1.59
7382.00,1.59
7381.00,1.59
7380.00,1.59
7379.00,1.59
7378.00,1.59
7377.00,1.59
7376.00,1.59
7375.00,1.59
7374.00,1.59
7373.00,1.58
7372.00,1.58
7371.00,1.58
7370.00,1.58
7369.00,1.58
7368.00,1.58
7367.00,1.58
7366.00,1.59
7365.00,1.59
7364.00,1.59
7363.00,1.59
7362.00,1.59
7361.00,1.59
7360.00,1.59
7359.00,1.59
7358.00,1.59
7357.00,1.59
7356.00,1.59
7355.00,1.59
7354.00,1.59
7353.00,1.59
7352.00,1.59
7351.00,1.59
7350.00,1.59
7349.00,1.59
7348.00,1.59
7347.00,1.59
7346.00,1.59
7345.00,1.59
7344.00,1.59
7343.00,1.59
7342.00,1.59
7341.00,1.59
7340.00,1.59
7339.00,1.59
7338.00,1.58
7337.00,1.58
7336.00,1.58
7335.00,1.58
7334.00,1.58
7333.00,1.58
7332.00,1.58
7331.00,1.57
7330.00,1.57
7329.00,1.57
7328.00,1.57
7327.00,1.57
7326.00,1.57
7325.00,1.56
7324.00,1.56
7323.00,1.56
7322.00,1.56
7321.00,1.56
7320.00,1.56
7319.00,1.55
7318.00,1.55
7317.00,1.55
7316.00,1.55
7315.00,1.55
7314.00,1.55
7313.00,1.55
7312.00,1.55
7311.00,1.55
7310.00,1.55
7309.00,1.55
7308.00,1.55
7307.00,1.54
7306.00,1.54
7305.00,1.54
7304.00,1.54
7303.00,1.54
7302.00,1.54
7301.00,1.54
7300.00,1.54
7299.00,1.53
7298.00,1.53
7297.00,1.53
7296.00,1.53
7295.00,1.53
7294.00,1.53
7293.00,1.52
7292.00,1.52
7291.00,1.52
7290.00,1.52
7289.00,1.52
7288.00,1.52
7287.00,1.52
7286.00,1.51
7285.00,1.51
7284.00,1.51
7283.00,1.51
7282.00,1.51
7281.00,1.51
7280.00,1.50
7279.00,1.50
7278.00,1.50
7277.00,1.50
7276.00,1.50
7275.00,1.49
7274.00,1.49
7273.00,1.49
7272.00,1.49
7271.00,1.49
7270.00,1.48
7269.00,1.48
7268.00,1.48
7267.00,1.48
7266.00,1.48
7265.00,1.48
7264.00,1.47
7263.00,1.47
7262.00,1.47
7261.00,1.47
7260.00,1.47
7259.00,1.46
7258.00,1.46
7257.00,1.46
7256.00,1.46
7255.00,1.46
7254.00,1.45
7253.00,1.45
7252.00,1.45
7251.00,1.45
7250.00,1.44
7249.00,1.44
7248.00,1.44
7247.00,1.44
7246.00,1.43
7245.00,1.43
7244.00,1.43
7243.00,1.43
7242.00,1.42
7241.00,1.42
7240.00,1.41
7239.00,1.41
7238.00,1.41
7237.00,1.40
7236.00,1.40
7235.00,1.39
7234.00,1.39
7233.00,1.38
7232.00,1.38
7231.00,1.38
7230.00,1.37
7229.00,1.37
7228.00,1.36
7227.00,1.36
7226.00,1.35
7225.00,1.35
7224.00,1.34
7223.00,1.34
7222.00,1.34
7221.00,1.33
7220.00,1.33
7219.00,1.32
7218.00,1.32
7217.00,1.32
7216.00,1.31
7215.00,1.31
7214.00,1.30
7213.00,1.30
7212.00,1.29
7211.00,1.29
7210.00,1.28
7209.00,1.28
7208.00,1.27
7207.00,1.27
7206.00,1.26
7205.00,1.26
7204.00,1.26
7203.00,1.25
7202.00,1.25
7201.00,1.24
7200.00,1.24
7199.00,1.23
7198.00,1.23
7197.00,1.22
7196.00,1.22
7195.00,1.21
7194.00,1.21
7193.00,1.20
7192.00,1.20
7191.00,1.20
7190.00,1.19
7189.00,1.19
7188.00,1.19
7187.00,1.18
7186.00,1.18
7185.00,1.17
7184.00,1.17
7183.00,1.17
7182.00,1.16
7181.00,1.16
7180.00,1.16
7179.00,1.15
7178.00,1.15
7177.00,1.15
7176.00,1.14
7175.00,1.14
7174.00,1.14
7173.00,1.13
7172.00,1.13
7171.00,1.13
7170.00,1.12
7169.00,1.12
7168.00,1.11
7167.00,1.11
7166.00,1.10
7165.00,1.10
7164.00,1.09
7163.00,1.09
7162.00,1.09
7161.00,1.08
7160.00,1.08
7159.00,1.07
7158.00,1.07
7157.00,1.07
7156.00,1.06
7155.00,1.06
7154.00,1.06
7153.00,1.05
7152.00,1.05
7151.00,1.05
7150.00,1.05
7149.00,1.04
7148.00,1.04
7147.00,1.04
7146.00,1.03
7145.00,1.03
7144.00,1.03
7143.00,1.03
7142.00,1.02
7141.00,1.02
7140.00,1.02
7139.00,1.01
7138.00,1.01
7137.00,1.01
7136.00,1.00
7135.00,1.00
7134.00,1.00
7133.00,0.99
7132.00,0.99
7131.00,0.98
7130.00,0.98
7129.00,0.98
7128.00,0.97
7127.00,0.97
7126.00,0.97
7125.00,0.96
7124.00,0.96
7123.00,0.96
7122.00,0.95
7121.00,0.95
7120.00,0.94
7119.00,0.94
7118.00,0.94
7117.00,0.93
7116.00,0.93
7115.00,0.93
7114.00,0.92
7113.00,0.92
7112.00,0.92
7111.00,0.91
7110.00,0.91
7109.00,0.91
7108.00,0.91
7107.00,0.90
7106.00,0.90
7105.00,0.90
7104.00,0.89
7103.00,0.89
7102.00,0.89
7101.00,0.88
7100.00,0.88
7099.00,0.88
7098.00,0.87
7097.00,0.87
7096.00,0.87
7095.00,0.87
7094.00,0.86
7093.00,0.86
7092.00,0.86
7091.00,0.86
7090.00,0.85
7089.00,0.85
7088.00,0.85
7087.00,0.85
7086.00,0.84
7085.00,0.84
7084.00,0.84
7083.00,0.84
7082.00,0.83
7081.00,0.83
7080.00,0.83
7079.00,0.83
7078.00,0.82
7077.00,0.82
7076.00,0.82
7075.00,0.82
7074.00,0.81
7073.00,0.81
7072.00,0.81
7071.00,0.81
7070.00,0.81
7069.00,0.80
7068.00,0.80
7067.00,0.80
7066.00,0.80
7065.00,0.80
7064.00,0.79
7063.00,0.79
7062.00,0.79
7061.00,0.79
7060.00,0.79
7059.00,0.79
7058.00,0.79
7057.00,0.78
7056.00,0.78
7055.00,0.78
7054.00,0.78
7053.00,0.78
7052.00,0.78
7051.00,0.78
7050.00,0.78
7049.00,0.77
7048.00,0.77
7047.00,0.77
7046.00,0.77
7045.00,0.77
7044.00,0.77
7043.00,0.77
7042.00,0.76
7041.00,0.76
7040.00,0.76
7039.00,0.76
7038.00,0.76
7037.00,0.76
7036.00,0.75
7035.00,0.75
7034.00,0.75
7033.00,0.75
7032.00,0.75
7031.00,0.75
7030.00,0.75
7029.00,0.75
7028.00,0.74
7027.00,0.74
7026.00,0.74
7025.00,0.74
7024.00,0.74
7023.00,0.74
7022.00,0.74
7021.00,0.74
7020.00,0.73
7019.00,0.73
7018.00,0.73
7017.00,0.73
7016.00,0.73
7015.00,0.73
7014.00,0.73
7013.00,0.73
7012.00,0.72
7011.00,0.72
7010.00,0.72
7009.00,0.72
7008.00,0.72
7007.00,0.72
7006.00,0.72
7005.00,0.72
7004.00,0.72
7003.00,0.72
7002.00,0.71
7001.00,0.71
7000.00,0.71
6999.00,0.71
6998.00,0.71
6997.00,0.71
6996.00,0.71
6995.00,0.71
6994.00,0.71
6993.00,0.71
6992.00,0.71
6991.00,0.71
6990.00,0.71
6989.00,0.71
6988.00,0.71
6987.00,0.70
6986.00,0.70
6985.00,0.70
6984.00,0.70
6983.00,0.70
6982.00,0.70
6981.00,0.70
6980.00,0.70
6979.00,0.70
6978.00,0.70
6977.00,0.70
6976.00,0.70
6975.00,0.70
6974.00,0.69
6973.00,0.69
6972.00,0.69
6971.00,0.69
6970.00,0.69
6969.00,0.69
6968.00,0.69
6967.00,0.69
6966.00,0.69
6965.00,0.69
6964.00,0.69
6963.00,0.69
6962.00,0.69
6961.00,0.69
6960.00,0.69
6959.00,0.69
6958.00,0.69
6957.00,0.69
6956.00,0.69
6955.00,0.69
6954.00,0.68
6953.00,0.68
6952.00,0.68
6951.00,0.68
6950.00,0.68
6949.00,0.68
6948.00,0.68
6947.00,0.68
6946.00,0.68
6945.00,0.68
6944.00,0.68
6943.00,0.68
6942.00,0.68
6941.00,0.68
6940.00,0.68
6939.00,0.68
6938.00,0.68
6937.00,0.68
6936.00,0.68
6935.00,0.68
6934.00,0.68
6933.00,0.68
6932.00,0.67
6931.00,0.67
6930.00,0.67
6929.00,0.67
6928.00,0.67
6927.00,0.67
6926.00,0.67
6925.00,0.67
6924.00,0.67
6923.00,0.67
6922.00,0.67
6921.00,0.67
6920.00,0.67
6919.00,0.67
6918.00,0.67
6917.00,0.67
6916.00,0.67
6915.00,0.67
6914.00,0.67
6913.00,0.67
6912.00,0.67
6911.00,0.67
6910.00,0.67
6909.00,0.67
6908.00,0.67
6907.00,0.67
6906.00,0.67
6905.00,0.67
6904.00,0.67
6903.00,0.67
6902.00,0.67
6901.00,0.67
6900.00,0.67
6899.00,0.67
6898.00,0.67
6897.00,0.67
6896.00,0.67
6895.00,0.67
6894.00,0.67
6893.00,0.67
6892.00,0.67
6891.00,0.67
6890.00,0.67
6889.00,0.67
6888.00,0.67
6887.00,0.67
6886.00,0.67
6885.00,0.67
6884.00,0.66
6883.00,0.66
6882.00,0.66
6881.00,0.66
6880.00,0.66
6879.00,0.66
6878.00,0.66
6877.00,0.66
6876.00,0.66
6875.00,0.66
6874.00,0.66
6873.00,0.66
6872.00,0.66
6871.00,0.66
6870.00,0.66
6869.00,0.66
6868.00,0.66
6867.00,0.66
6866.00,0.66
6865.00,0.66
6864.00,0.66
6863.00,0.66
6862.00,0.66
6861.00,0.66
6860.00,0.66
6859.00,0.66
6858.00,0.66
6857.00,0.66
6856.00,0.66
6855.00,0.66
6854.00,0.67
6853.00,0.67
6852.00,0.67
6851.00,0.67
6850.00,0.67
6849.00,0.67
6848.00,0.67
6847.00,0.67
6846.00,0.67
6845.00,0.67
6844.00,0.67
6843.00,0.67
6842.00,0.67
6841.00,0.67
6840.00,0.67
6839.00,0.67
6838.00,0.67
6837.00,0.67
6836.00,0.67
6835.00,0.67
6834.00,0.67
6833.00,0.67
6832.00,0.67
6831.00,0.67
6830.00,0.67
6829.00,0.67
6828.00,0.67
6827.00,0.67
6826.00,0.67
6825.00,0.67
6824.00,0.67
6823.00,0.67
6822.00,0.67
6821.00,0.67
6820.00,0.67
6819.00,0.68
6818.00,0.68
6817.00,0.68
6816.00,0.68
6815.00,0.68
6814.00,0.68
6813.00,0.68
6812.00,0.68
6811.00,0.68
6810.00,0.68
6809.00,0.68
6808.00,0.68
6807.00,0.68
6806.00,0.69
6805.00,0.69
6804.00,0.69
6803.00,0.69
6802.00,0.69
6801.00,0.69
6800.00,0.69
6799.00,0.69
6798.00,0.69
6797.00,0.69
6796.00,0.69
6795.00,0.69
6794.00,0.69
6793.00,0.69
6792.00,0.69
6791.00,0.69
6790.00,0.69
6789.00,0.69
6788.00,0.70
6787.00,0.70
6786.00,0.70
6785.00,0.70
6784.00,0.70
6783.00,0.70
6782.00,0.70
6781.00,0.70
6780.00,0.70
6779.00,0.70
6778.00,0.70
6777.00,0.70
6776.00,0.70
6775.00,0.70
6774.00,0.70
6773.00,0.71
6772.00,0.71
6771.00,0.71
6770.00,0.71
6769.00,0.71
6768.00,0.71
6767.00,0.71
6766.00,0.71
6765.00,0.71
6764.00,0.71
6763.00,0.71
6762.00,0.71
6761.00,0.72
6760.00,0.72
6759.00,0.72
6758.00,0.72
6757.00,0.72
6756.00,0.72
6755.00,0.72
6754.00,0.72
6753.00,0.72
6752.00,0.72
6751.00,0.73
6750.00,0.73
6749.00,0.73
6748.00,0.73
6747.00,0.73
6746.00,0.73
6745.00,0.73
6744.00,0.73
6743.00,0.74
6742.00,0.74
6741.00,0.74
6740.00,0.74
6739.00,0.74
6738.00,0.74
6737.00,0.74
6736.00,0.75
6735.00,0.75
6734.00,0.75
6733.00,0.75
6732.00,0.75
6731.00,0.75
6730.00,0.75
6729.00,0.75
6728.00,0.75
6727.00,0.75
6726.00,0.75
6725.00,0.75
6724.00,0.75
6723.00,0.75
6722.00,0.76
6721.00,0.76
6720.00,0.76
6719.00,0.76
6718.00,0.76
6717.00,0.76
6716.00,0.76
6715.00,0.76
6714.00,0.76
6713.00,0.76
6712.00,0.76
6711.00,0.76
6710.00,0.76
6709.00,0.77
6708.00,0.77
6707.00,0.77
6706.00,0.77
6705.00,0.77
6704.00,0.77
6703.00,0.77
6702.00,0.78
6701.00,0.78
6700.00,0.78
6699.00,0.78
6698.00,0.78
6697.00,0.78
6696.00,0.78
6695.00,0.79
6694.00,0.79
6693.00,0.79
6692.00,0.79
6691.00,0.79
6690.00,0.79
6689.00,0.79
6688.00,0.79
6687.00,0.79
6686.00,0.80
6685.00,0.80
6684.00,0.80
6683.00,0.80
6682.00,0.80
6681.00,0.80
6680.00,0.80
6679.00,0.80
6678.00,0.80
6677.00,0.80
6676.00,0.80
6675.00,0.81
6674.00,0.81
6673.00,0.81
6672.00,0.81
6671.00,0.81
6670.00,0.81
6669.00,0.81
6668.00,0.81
6667.00,0.82
6666.00,0.82
6665.00,0.82
6664.00,0.82
6663.00,0.82
6662.00,0.82
6661.00,0.82
6660.00,0.82
6659.00,0.83
6658.00,0.83
6657.00,0.83
6656.00,0.83
6655.00,0.83
6654.00,0.83
6653.00,0.83
6652.00,0.84
6651.00,0.84
6650.00,0.84
6649.00,0.84
6648.00,0.84
6647.00,0.84
6646.00,0.84
6645.00,0.85
6644.00,0.85
6643.00,0.85
6642.00,0.85
6641.00,0.85
6640.00,0.85
6639.00,0.86
6638.00,0.86
6637.00,0.86
6636.00,0.86
6635.00,0.86
6634.00,0.86
6633.00,0.87
6632.00,0.87
6631.00,0.87
6630.00,0.87
6629.00,0.87
6628.00,0.87
6627.00,0.87
6626.00,0.88
6625.00,0.88
6624.00,0.88
6623.00,0.88
6622.00,0.88
6621.00,0.88
6620.00,0.89
6619.00,0.89
6618.00,0.89
6617.00,0.89
6616.00,0.89
6615.00,0.89
6614.00,0.89
6613.00,0.89
6612.00,0.89
6611.00,0.90
6610.00,0.90
6609.00,0.90
6608.00,0.90
6607.00,0.90
6606.00,0.90
6605.00,0.90
6604.00,0.90
6603.00,0.90
6602.00,0.90
6601.00,0.91
6600.00,0.91
6599.00,0.91
6598.00,0.91
6597.00,0.91
6596.00,0.91
6595.00,0.91
6594.00,0.91
6593.00,0.92
6592.00,0.92
6591.00,0.92
6590.00,0.92
6589.00,0.92
6588.00,0.92
6587.00,0.93
6586.00,0.93
6585.00,0.93
6584.00,0.93
6583.00,0.93
6582.00,0.93
6581.00,0.94
6580.00,0.94
6579.00,0.94
6578.00,0.94
6577.00,0.94
6576.00,0.94
6575.00,0.94
6574.00,0.94
6573.00,0.94
6572.00,0.94
6571.00,0.94
6570.00,0.94
6569.00,0.95
6568.00,0.95
6567.00,0.95
6566.00,0.95
6565.00,0.95
6564.00,0.95
6563.00,0.95
6562.00,0.95
6561.00,0.95
6560.00,0.95
6559.00,0.95
6558.00,0.96
6557.00,0.96
6556.00,0.96
6555.00,0.96
6554.00,0.96
6553.00,0.96
6552.00,0.96
6551.00,0.96
6550.00,0.97
6549.00,0.97
6548.00,0.97
6547.00,0.97
6546.00,0.97
6545.00,0.97
6544.00,0.97
6543.00,0.98
6542.00,0.98
6541.00,0.98
6540.00,0.98
6539.00,0.98
6538.00,0.98
6537.00,0.98
6536.00,0.99
6535.00,0.99
6534.00,0.99
6533.00,0.99
6532.00,0.99
6531.00,0.99
6530.00,0.99
6529.00,0.99
6528.00,0.99
6527.00,1.00
6526.00,1.00
6525.00,1.00
6524.00,1.00
6523.00,1.00
6522.00,1.00
6521.00,1.00
6520.00,1.00
6519.00,1.00
6518.00,1.00
6517.00,1.00
6516.00,1.00
6515.00,1.00
6514.00,1.01
6513.00,1.01
6512.00,1.01
6511.00,1.01
6510.00,1.01
6509.00,1.01
6508.00,1.01
6507.00,1.01
6506.00,1.01
6505.00,1.01
6504.00,1.01
6503.00,1.02
6502.00,1.02
6501.00,1.02
6500.00,1.02
6499.00,1.02
6498.00,1.02
6497.00,1.02
6496.00,1.02
6495.00,1.02
6494.00,1.02
6493.00,1.03
6492.00,1.03
6491.00,1.03
6490.00,1.03
6489.00,1.03
6488.00,1.03
6487.00,1.03
6486.00,1.03
6485.00,1.03
6484.00,1.03
6483.00,1.03
6482.00,1.03
6481.00,1.03
6480.00,1.03
6479.00,1.04
6478.00,1.04
6477.00,1.04
6476.00,1.04
6475.00,1.04
6474.00,1.04
6473.00,1.04
6472.00,1.04
6471.00,1.04
6470.00,1.04
6469.00,1.05
6468.00,1.05
6467.00,1.05
6466.00,1.05
6465.00,1.05
6464.00,1.05
6463.00,1.05
6462.00,1.05
6461.00,1.06
6460.00,1.06
6459.00,1.06
6458.00,1.06
6457.00,1.06
6456.00,1.06
6455.00,1.06
6454.00,1.06
6453.00,1.06
6452.00,1.06
6451.00,1.06
6450.00,1.06
6449.00,1.06
6448.00,1.06
6447.00,1.06
6446.00,1.06
6445.00,1.06
6444.00,1.06
6443.00,1.07
6442.00,1.07
6441.00,1.07
6440.00,1.07
6439.00,1.07
6438.00,1.07
6437.00,1.07
6436.00,1.07
6435.00,1.07
6434.00,1.07
6433.00,1.07
6432.00,1.07
6431.00,1.07
6430.00,1.07
6429.00,1.07
6428.00,1.08
6427.00,1.08
6426.00,1.08
6425.00,1.08
6424.00,1.08
6423.00,1.08
6422.00,1.08
6421.00,1.08
6420.00,1.08
6419.00,1.08
6418.00,1.08
6417.00,1.08
6416.00,1.09
6415.00,1.09
6414.00,1.09
6413.00,1.09
6412.00,1.09
6411.00,1.09
6410.00,1.09
6409.00,1.09
6408.00,1.09
6407.00,1.10
6406.00,1.10
6405.00,1.10
6404.00,1.10
6403.00,1.10
6402.00,1.10
6401.00,1.10
6400.00,1.10
6399.00,1.10
6398.00,1.10
6397.00,1.10
6396.00,1.11
6395.00,1.11
6394.00,1.11
6393.00,1.11
6392.00,1.11
6391.00,1.11
6390.00,1.11
6389.00,1.11
6388.00,1.11
6387.00,1.11
6386.00,1.11
6385.00,1.11
6384.00,1.11
6383.00,1.11
6382.00,1.11
6381.00,1.12
6380.00,1.12
6379.00,1.12
6378.00,1.12
6377.00,1.12
6376.00,1.12
6375.00,1.12
6374.00,1.12
6373.00,1.12
6372.00,1.12
6371.00,1.13
6370.00,1.13
6369.00,1.13
6368.00,1.13
6367.00,1.13
6366.00,1.13
6365.00,1.13
6364.00,1.13
6363.00,1.13
6362.00,1.13
6361.00,1.14
6360.00,1.14
6359.00,1.14
6358.00,1.14
6357.00,1.14
6356.00,1.14
6355.00,1.14
6354.00,1.14
6353.00,1.15
6352.00,1.15
6351.00,1.15
6350.00,1.15
6349.00,1.15
6348.00,1.15
6347.00,1.15
6346.00,1.16
6345.00,1.16
6344.00,1.16
6343.00,1.16
6342.00,1.16
6341.00,1.16
6340.00,1.16
6339.00,1.17
6338.00,1.17
6337.00,1.17
6336.00,1.17
6335.00,1.17
6334.00,1.17
6333.00,1.18
6332.00,1.18
6331.00,1.18
6330.00,1.18
6329.00,1.18
6328.00,1.18
6327.00,1.18
6326.00,1.19
6325.00,1.19
6324.00,1.19
6323.00,1.19
6322.00,1.19
6321.00,1.19
6320.00,1.19
6319.00,1.19
6318.00,1.20
6317.00,1.20
6316.00,1.20
6315.00,1.20
6314.00,1.20
6313.00,1.20
6312.00,1.20
6311.00,1.20
6310.00,1.21
6309.00,1.21
6308.00,1.21
6307.00,1.21
6306.00,1.21
6305.00,1.21
6304.00,1.21
6303.00,1.21
6302.00,1.22
6301.00,1.22
6300.00,1.22
6299.00,1.22
6298.00,1.22
6297.00,1.22
6296.00,1.22
6295.00,1.23
6294.00,1.23
6293.00,1.23
6292.00,1.23
6291.00,1.23
6290.00,1.23
6289.00,1.24
6288.00,1.24
6287.00,1.24
6286.00,1.24
6285.00,1.24
6284.00,1.24
6283.00,1.25
6282.00,1.25
6281.00,1.25
6280.00,1.25
6279.00,1.25
6278.00,1.25
6277.00,1.26
6276.00,1.26
6275.00,1.26
6274.00,1.26
6273.00,1.26
6272.00,1.27
6271.00,1.27
6270.00,1.27
6269.00,1.27
6268.00,1.27
6267.00,1.27
6266.00,1.28
6265.00,1.28
6264.00,1.28
6263.00,1.28
6262.00,1.28
6261.00,1.29
6260.00,1.29
6259.00,1.29
6258.00,1.29
6257.00,1.29
6256.00,1.29
6255.00,1.30
6254.00,1.30
6253.00,1.30
6252.00,1.30
6251.00,1.30
6250.00,1.30
6249.00,1.31
6248.00,1.31
6247.00,1.31
6246.00,1.31
6245.00,1.31
6244.00,1.31
6243.00,1.32
6242.00,1.32
6241.00,1.32
6240.00,1.32
6239.00,1.32
6238.00,1.33
6237.00,1.33
6236.00,1.33
6235.00,1.33
6234.00,1.33
6233.00,1.34
6232.00,1.34
6231.00,1.34
6230.00,1.34
6229.00,1.34
6228.00,1.35
6227.00,1.35
6226.00,1.35
6225.00,1.35
6224.00,1.35
6223.00,1.35
6222.00,1.36
6221.00,1.36
6220.00,1.36
6219.00,1.36
6218.00,1.36
6217.00,1.36
6216.00,1.37
6215.00,1.37
6214.00,1.37
6213.00,1.37
6212.00,1.37
6211.00,1.37
6210.00,1.38
6209.00,1.38
6208.00,1.38
6207.00,1.38
6206.00,1.38
6205.00,1.39
6204.00,1.39
6203.00,1.39
6202.00,1.39
6201.00,1.39
6200.00,1.39
6199.00,1.40
6198.00,1.40
6197.00,1.40
6196.00,1.40
6195.00,1.40
6194.00,1.41
6193.00,1.41
6192.00,1.41
6191.00,1.41
6190.00,1.41
6189.00,1.41
6188.00,1.42
6187.00,1.42
6186.00,1.42
6185.00,1.42
6184.00,1.42
6183.00,1.42
6182.00,1.42
6181.00,1.43
6180.00,1.43
6179.00,1.43
6178.00,1.43
6177.00,1.43
6176.00,1.43
6175.00,1.43
6174.00,1.44
6173.00,1.44
6172.00,1.44
6171.00,1.44
6170.00,1.44
6169.00,1.44
6168.00,1.45
6167.00,1.45
6166.00,1.45
6165.00,1.45
6164.00,1.45
6163.00,1.46
6162.00,1.46
6161.00,1.46
6160.00,1.46
6159.00,1.46
6158.00,1.47
6157.00,1.47
6156.00,1.47
6155.00,1.47
6154.00,1.47
6153.00,1.48
6152.00,1.48
6151.00,1.48
6150.00,1.48
6149.00,1.48
6148.00,1.48
6147.00,1.49
6146.00,1.49
6145.00,1.49
6144.00,1.49
6143.00,1.49
6142.00,1.50
6141.00,1.50
6140.00,1.50
6139.00,1.50
6138.00,1.50
6137.00,1.50
6136.00,1.51
6135.00,1.51
6134.00,1.51
6133.00,1.51
6132.00,1.51
6131.00,1.52
6130.00,1.52
6129.00,1.52
6128.00,1.52
6127.00,1.52
6126.00,1.52
6125.00,1.53
6124.00,1.53
6123.00,1.53
6122.00,1.53
6121.00,1.53
6120.00,1.53
6119.00,1.53
6118.00,1.54
6117.00,1.54
6116.00,1.54
6115.00,1.54
6114.00,1.54
6113.00,1.54
6112.00,1.54
6111.00,1.55
6110.00,1.55
6109.00,1.55
6108.00,1.55
6107.00,1.55
6106.00,1.55
6105.00,1.56
6104.00,1.56
6103.00,1.56
6102.00,1.56
6101.00,1.56
6100.00,1.56
6099.00,1.56
6098.00,1.57
6097.00,1.57
6096.00,1.57
6095.00,1.57
6094.00,1.57
6093.00,1.57
6092.00,1.58
6091.00,1.58
6090.00,1.58
6089.00,1.58
6088.00,1.58
6087.00,1.59
6086.00,1.59
6085.00,1.59
6084.00,1.59
6083.00,1.59
6082.00,1.59
6081.00,1.59
6080.00,1.60
6079.00,1.60
6078.00,1.60
6077.00,1.60
6076.00,1.60
6075.00,1.60
6074.00,1.60
6073.00,1.61
6072.00,1.61
6071.00,1.61
6070.00,1.61
6069.00,1.61
6068.00,1.61
6067.00,1.61
6066.00,1.61
6065.00,1.62
6064.00,1.62
6063.00,1.62
6062.00,1.62
6061.00,1.62
6060.00,1.62
6059.00,1.62
6058.00,1.62
6057.00,1.63
6056.00,1.63
6055.00,1.63
6054.00,1.63
6053.00,1.63
6052.00,1.63
6051.00,1.63
6050.00,1.63
6049.00,1.63
6048.00,1.64
6047.00,1.64
6046.00,1.64
6045.00,1.64
6044.00,1.64
6043.00,1.64
6042.00,1.64
6041.00,1.64
6040.00,1.64
6039.00,1.64
6038.00,1.64
6037.00,1.64
6036.00,1.64
6035.00,1.64
6034.00,1.64
6033.00,1.64
6032.00,1.64
6031.00,1.64
6030.00,1.64
6029.00,1.64
6028.00,1.64
6027.00,1.64
6026.00,1.64
6025.00,1.64
6024.00,1.64
6023.00,1.64
6022.00,1.64
6021.00,1.64
6020.00,1.64
6019.00,1.64
6018.00,1.64
6017.00,1.64
6016.00,1.64
6015.00,1.64
6014.00,1.64
6013.00,1.64
6012.00,1.64
6011.00,1.64
6010.00,1.64
6009.00,1.64
6008.00,1.64
6007.00,1.64
6006.00,1.64
6005.00,1.64
6004.00,1.64
6003.00,1.64
6002.00,1.64
6001.00,1.64
6000.00,1.64
5999.00,1.64
5998.00,1.64
5997.00,1.63
5996.00,1.63
5995.00,1.63
5994.00,1.63
5993.00,1.63
5992.00,1.63
5991.00,1.63
5990.00,1.62
5989.00,1.62
5988.00,1.62
5987.00,1.62
5986.00,1.61
5985.00,1.61
5984.00,1.61
5983.00,1.60
5982.00,1.60
5981.00,1.59
5980.00,1.59
5979.00,1.58
5978.00,1.58
5977.00,1.57
5976.00,1.57
5975.00,1.56
5974.00,1.55
5973.00,1.55
5972.00,1.54
5971.00,1.53
5970.00,1.53
5969.00,1.52
5968.00,1.51
5967.00,1.50
5966.00,1.49
5965.00,1.49
5964.00,1.48
5963.00,1.47
5962.00,1.46
5961.00,1.45
5960.00,1.44
5959.00,1.43
5958.00,1.43
5957.00,1.42
5956.00,1.41
5955.00,1.40
5954.00,1.39
5953.00,1.39
5952.00,1.38
5951.00,1.37
5950.00,1.36
5949.00,1.36
5948.00,1.35
5947.00,1.35
5946.00,1.34
5945.00,1.34
5944.00,1.33
5943.00,1.33
5942.00,1.33
5941.00,1.33
5940.00,1.32
5939.00,1.32
5938.00,1.32
5937.00,1.32
5936.00,1.32
5935.00,1.31
5934.00,1.31
5933.00,1.31
5932.00,1.31
5931.00,1.31
5930.00,1.31
5929.00,1.31
5928.00,1.30
5927.00,1.30
5926.00,1.30
5925.00,1.30
5924.00,1.29
5923.00,1.29
5922.00,1.29
5921.00,1.29
5920.00,1.28
5919.00,1.28
5918.00,1.28
5917.00,1.27
5916.00,1.27
5915.00,1.27
5914.00,1.26
5913.00,1.26
5912.00,1.26
5911.00,1.26
5910.00,1.25
5909.00,1.25
5908.00,1.25
5907.00,1.25
5906.00,1.25
5905.00,1.24
5904.00,1.24
5903.00,1.24
5902.00,1.24
5901.00,1.24
5900.00,1.24
5899.00,1.24
5898.00,1.24
5897.00,1.24
5896.00,1.24
5895.00,1.25
5894.00,1.25
5893.00,1.25
5892.00,1.25
5891.00,1.26
5890.00,1.26
5889.00,1.27
5888.00,1.27
5887.00,1.27
5886.00,1.28
5885.00,1.28
5884.00,1.29
5883.00,1.29
5882.00,1.29
5881.00,1.30
5880.00,1.30
5879.00,1.31
5878.00,1.31
5877.00,1.31
5876.00,1.32
5875.00,1.32
5874.00,1.32
5873.00,1.33
5872.00,1.33
5871.00,1.33
5870.00,1.33
5869.00,1.34
5868.00,1.34
5867.00,1.34
5866.00,1.34
5865.00,1.35
5864.00,1.35
5863.00,1.35
5862.00,1.35
5861.00,1.36
5860.00,1.36
5859.00,1.36
5858.00,1.36
5857.00,1.36
5856.00,1.36
5855.00,1.37
5854.00,1.37
5853.00,1.37
5852.00,1.37
5851.00,1.37
5850.00,1.37
5849.00,1.37
5848.00,1.37
5847.00,1.37
5846.00,1.37
5845.00,1.37
5844.00,1.37
5843.00,1.37
5842.00,1.38
5841.00,1.38
5840.00,1.38
5839.00,1.38
5838.00,1.38
5837.00,1.38
5836.00,1.38
5835.00,1.38
5834.00,1.38
5833.00,1.38
5832.00,1.38
5831.00,1.38
5830.00,1.38
5829.00,1.38
5828.00,1.38
5827.00,1.38
5826.00,1.38
5825.00,1.38
5824.00,1.38
5823.00,1.38
5822.00,1.38
5821.00,1.38
5820.00,1.38
5819.00,1.38
5818.00,1.38
5817.00,1.38
5816.00,1.38
5815.00,1.38
5814.00,1.38
5813.00,1.38
5812.00,1.38
5811.00,1.38
5810.00,1.38
5809.00,1.38
5808.00,1.38
5807.00,1.38
5806.00,1.38
5805.00,1.38
5804.00,1.38
5803.00,1.37
5802.00,1.37
5801.00,1.37
5800.00,1.37
5799.00,1.37
5798.00,1.37
5797.00,1.36
5796.00,1.36
5795.00,1.36
5794.00,1.35
5793.00,1.35
5792.00,1.35
5791.00,1.35
5790.00,1.34
5789.00,1.34
5788.00,1.34
5787.00,1.33
5786.00,1.33
5785.00,1.33
5784.00,1.32
5783.00,1.32
5782.00,1.32
5781.00,1.32
5780.00,1.32
5779.00,1.31
5778.00,1.31
5777.00,1.31
5776.00,1.31
5775.00,1.31
5774.00,1.31
5773.00,1.31
5772.00,1.31
5771.00,1.31
5770.00,1.31
5769.00,1.32
5768.00,1.32
5767.00,1.32
5766.00,1.32
5765.00,1.32
5764.00,1.33
5763.00,1.33
5762.00,1.33
5761.00,1.34
5760.00,1.34
5759.00,1.35
5758.00,1.35
5757.00,1.35
5756.00,1.36
5755.00,1.36
5754.00,1.37
5753.00,1.37
5752.00,1.38
5751.00,1.38
5750.00,1.38
5749.00,1.39
5748.00,1.39
5747.00,1.40
5746.00,1.40
5745.00,1.41
5744.00,1.41
5743.00,1.41
5742.00,1.42
5741.00,1.42
5740.00,1.42
5739.00,1.43
5738.00,1.43
5737.00,1.43
5736.00,1.43
5735.00,1.44
5734.00,1.44
5733.00,1.44
5732.00,1.44
5731.00,1.44
5730.00,1.44
5729.00,1.45
5728.00,1.45
5727.00,1.45
5726.00,1.45
5725.00,1.45
5724.00,1.45
5723.00,1.45
5722.00,1.45
5721.00,1.45
5720.00,1.45
5719.00,1.45
5718.00,1.45
5717.00,1.45
5716.00,1.45
5715.00,1.45
5714.00,1.45
5713.00,1.45
5712.00,1.45
5711.00,1.45
5710.00,1.45
5709.00,1.45
5708.00,1.44
5707.00,1.44
5706.00,1.44
5705.00,1.44
5704.00,1.44
5703.00,1.44
5702.00,1.43
5701.00,1.43
5700.00,1.43
5699.00,1.43
5698.00,1.43
5697.00,1.42
5696.00,1.42
5695.00,1.42
5694.00,1.42
5693.00,1.42
5692.00,1.41
5691.00,1.41
5690.00,1.41
5689.00,1.41
5688.00,1.41
5687.00,1.40
5686.00,1.40
5685.00,1.40
5684.00,1.40
5683.00,1.40
5682.00,1.39
5681.00,1.39
5680.00,1.39
5679.00,1.39
5678.00,1.39
5677.00,1.39
5676.00,1.39
5675.00,1.39
5674.00,1.39
5673.00,1.39
5672.00,1.39
5671.00,1.39
5670.00,1.39
5669.00,1.39
5668.00,1.39
5667.00,1.39
5666.00,1.39
5665.00,1.39
5664.00,1.39
5663.00,1.39
5662.00,1.40
5661.00,1.40
5660.00,1.40
5659.00,1.40
5658.00,1.40
5657.00,1.41
5656.00,1.41
5655.00,1.41
5654.00,1.41
5653.00,1.42
5652.00,1.42
5651.00,1.42
5650.00,1.42
5649.00,1.43
5648.00,1.43
5647.00,1.43
5646.00,1.43
5645.00,1.43
5644.00,1.44
5643.00,1.44
5642.00,1.44
5641.00,1.44
5640.00,1.45
5639.00,1.45
5638.00,1.45
5637.00,1.45
5636.00,1.46
5635.00,1.46
5634.00,1.46
5633.00,1.46
5632.00,1.46
5631.00,1.46
5630.00,1.47
5629.00,1.47
5628.00,1.47
5627.00,1.47
5626.00,1.47
5625.00,1.47
5624.00,1.47
5623.00,1.48
5622.00,1.48
5621.00,1.48
5620.00,1.48
5619.00,1.48
5618.00,1.48
5617.00,1.48
5616.00,1.49
5615.00,1.49
5614.00,1.49
5613.00,1.49
5612.00,1.49
5611.00,1.49
5610.00,1.50
5609.00,1.50
5608.00,1.50
5607.00,1.50
5606.00,1.50
5605.00,1.51
5604.00,1.51
5603.00,1.51
5602.00,1.51
5601.00,1.51
5600.00,1.52
5599.00,1.52
5598.00,1.52
5597.00,1.52
5596.00,1.52
5595.00,1.53
5594.00,1.53
5593.00,1.53
5592.00,1.53
5591.00,1.53
5590.00,1.53
5589.00,1.54
5588.00,1.54
5587.00,1.54
5586.00,1.54
5585.00,1.54
5584.00,1.54
5583.00,1.55
5582.00,1.55
5581.00,1.55
5580.00,1.55
5579.00,1.55
5578.00,1.55
5577.00,1.56
5576.00,1.56
5575.00,1.56
5574.00,1.56
5573.00,1.56
5572.00,1.57
5571.00,1.57
5570.00,1.57
5569.00,1.57
5568.00,1.57
5567.00,1.58
5566.00,1.58
5565.00,1.58
5564.00,1.58
5563.00,1.58
5562.00,1.58
5561.00,1.59
5560.00,1.59
5559.00,1.59
5558.00,1.59
5557.00,1.59
5556.00,1.59
5555.00,1.59
5554.00,1.60
5553.00,1.60
5552.00,1.60
5551.00,1.60
5550.00,1.60
5549.00,1.60
5548.00,1.61
5547.00,1.61
5546.00,1.61
5545.00,1.61
5544.00,1.61
5543.00,1.61
5542.00,1.61
5541.00,1.62
5540.00,1.62
5539.00,1.62
5538.00,1.62
5537.00,1.62
5536.00,1.62
5535.00,1.62
5534.00,1.63
5533.00,1.63
5532.00,1.63
5531.00,1.63
5530.00,1.63
5529.00,1.63
5528.00,1.63
5527.00,1.63
5526.00,1.63
5525.00,1.63
5524.00,1.63
5523.00,1.63
5522.00,1.64
5521.00,1.64
5520.00,1.64
5519.00,1.64
5518.00,1.64
5517.00,1.64
5516.00,1.64
5515.00,1.64
5514.00,1.64
5513.00,1.64
5512.00,1.64
5511.00,1.65
5510.00,1.65
5509.00,1.65
5508.00,1.65
5507.00,1.65
5506.00,1.65
5505.00,1.65
5504.00,1.65
5503.00,1.65
5502.00,1.65
5501.00,1.66
5500.00,1.66
5499.00,1.66
5498.00,1.66
5497.00,1.66
5496.00,1.66
5495.00,1.66
5494.00,1.66
5493.00,1.67
5492.00,1.67
5491.00,1.67
5490.00,1.67
5489.00,1.67
5488.00,1.67
5487.00,1.67
5486.00,1.68
5485.00,1.68
5484.00,1.68
5483.00,1.68
5482.00,1.68
5481.00,1.68
5480.00,1.69
5479.00,1.69
5478.00,1.69
5477.00,1.69
5476.00,1.69
5475.00,1.69
5474.00,1.70
5473.00,1.70
5472.00,1.70
5471.00,1.70
5470.00,1.70
5469.00,1.70
5468.00,1.70
5467.00,1.71
5466.00,1.71
5465.00,1.71
5464.00,1.71
5463.00,1.71
5462.00,1.72
5461.00,1.72
5460.00,1.72
5459.00,1.72
5458.00,1.72
5457.00,1.72
5456.00,1.72
5455.00,1.72
5454.00,1.73
5453.00,1.73
5452.00,1.73
5451.00,1.73
5450.00,1.73
5449.00,1.73
5448.00,1.73
5447.00,1.73
5446.00,1.73
5445.00,1.73
5444.00,1.73
5443.00,1.73
5442.00,1.73
5441.00,1.73
5440.00,1.73
5439.00,1.74
5438.00,1.74
5437.00,1.74
5436.00,1.74
5435.00,1.74
5434.00,1.74
5433.00,1.74
5432.00,1.74
5431.00,1.74
5430.00,1.74
5429.00,1.74
5428.00,1.74
5427.00,1.74
5426.00,1.74
5425.00,1.74
5424.00,1.74
5423.00,1.74
5422.00,1.74
5421.00,1.74
5420.00,1.74
5419.00,1.74
5418.00,1.74
5417.00,1.74
5416.00,1.74
5415.00,1.74
5414.00,1.74
5413.00,1.74
5412.00,1.74
5411.00,1.74
5410.00,1.74
5409.00,1.74
5408.00,1.74
5407.00,1.74
5406.00,1.74
5405.00,1.74
5404.00,1.74
5403.00,1.74
5402.00,1.74
5401.00,1.73
5400.00,1.73
5399.00,1.73
5398.00,1.73
5397.00,1.73
5396.00,1.73
5395.00,1.73
5394.00,1.72
5393.00,1.72
5392.00,1.72
5391.00,1.72
5390.00,1.72
5389.00,1.71
5388.00,1.71
5387.00,1.71
5386.00,1.70
5385.00,1.70
5384.00,1.70
5383.00,1.69
5382.00,1.69
5381.00,1.69
5380.00,1.68
5379.00,1.68
5378.00,1.67
5377.00,1.67
5376.00,1.66
5375.00,1.66
5374.00,1.65
5373.00,1.65
5372.00,1.64
5371.00,1.64
5370.00,1.63
5369.00,1.62
5368.00,1.62
5367.00,1.61
5366.00,1.60
5365.00,1.59
5364.00,1.59
5363.00,1.58
5362.00,1.57
5361.00,1.56
5360.00,1.55
5359.00,1.54
5358.00,1.53
5357.00,1.53
5356.00,1.52
5355.00,1.51
5354.00,1.49
5353.00,1.48
5352.00,1.47
5351.00,1.46
5350.00,1.45
5349.00,1.44
5348.00,1.42
5347.00,1.41
5346.00,1.40
5345.00,1.39
5344.00,1.37
5343.00,1.36
5342.00,1.35
5341.00,1.33
5340.00,1.32
5339.00,1.31
5338.00,1.29
5337.00,1.28
5336.00,1.27
5335.00,1.25
5334.00,1.24
5333.00,1.23
5332.00,1.21
5331.00,1.20
5330.00,1.18
5329.00,1.17
5328.00,1.16
5327.00,1.14
5326.00,1.13
5325.00,1.11
5324.00,1.10
5323.00,1.09
5322.00,1.07
5321.00,1.06
5320.00,1.05
5319.00,1.03
5318.00,1.02
5317.00,1.01
5316.00,0.99
5315.00,0.98
5314.00,0.97
5313.00,0.96
5312.00,0.95
5311.00,0.93
5310.00,0.92
5309.00,0.91
5308.00,0.90
5307.00,0.89
5306.00,0.88
5305.00,0.88
5304.00,0.87
5303.00,0.86
5302.00,0.85
5301.00,0.85
5300.00,0.84
5299.00,0.83
5298.00,0.83
5297.00,0.82
5296.00,0.82
5295.00,0.81
5294.00,0.81
5293.00,0.80
5292.00,0.80
5291.00,0.80
5290.00,0.79
5289.00,0.79
5288.00,0.79
5287.00,0.79
5286.00,0.78
5285.00,0.78
5284.00,0.78
5283.00,0.78
5282.00,0.77
5281.00,0.77
5280.00,0.77
5279.00,0.77
5278.00,0.77
5277.00,0.77
5276.00,0.77
5275.00,0.77
5274.00,0.76
5273.00,0.76
5272.00,0.76
5271.00,0.76
5270.00,0.76
5269.00,0.76
5268.00,0.76
5267.00,0.76
5266.00,0.76
5265.00,0.75
5264.00,0.75
5263.00,0.75
5262.00,0.75
5261.00,0.75
5260.00,0.75
5259.00,0.75
5258.00,0.75
5257.00,0.75
5256.00,0.75
5255.00,0.75
5254.00,0.74
5253.00,0.74
5252.00,0.74
5251.00,0.74
5250.00,0.74
5249.00,0.74
5248.00,0.75
5247.00,0.75
5246.00,0.75
5245.00,0.75
5244.00,0.75
5243.00,0.75
5242.00,0.75
5241.00,0.75
5240.00,0.75
5239.00,0.75
5238.00,0.75
5237.00,0.75
5236.00,0.75
5235.00,0.75
5234.00,0.75
5233.00,0.75
5232.00,0.75
5231.00,0.75
5230.00,0.75
5229.00,0.76
5228.00,0.76
5227.00,0.76
5226.00,0.76
5225.00,0.76
5224.00,0.76
5223.00,0.76
5222.00,0.76
5221.00,0.76
5220.00,0.76
5219.00,0.76
5218.00,0.76
5217.00,0.76
5216.00,0.76
5215.00,0.76
5214.00,0.76
5213.00,0.76
5212.00,0.76
5211.00,0.76
5210.00,0.76
5209.00,0.76
5208.00,0.76
5207.00,0.76
5206.00,0.76
5205.00,0.76
5204.00,0.76
5203.00,0.76
5202.00,0.76
5201.00,0.76
5200.00,0.76
5199.00,0.76
5198.00,0.76
5197.00,0.76
5196.00,0.76
5195.00,0.77
5194.00,0.77
5193.00,0.77
5192.00,0.77
5191.00,0.77
5190.00,0.77
5189.00,0.77
5188.00,0.77
5187.00,0.77
5186.00,0.77
5185.00,0.77
5184.00,0.77
5183.00,0.77
5182.00,0.77
5181.00,0.77
5180.00,0.77
5179.00,0.77
5178.00,0.77
5177.00,0.77
5176.00,0.78
5175.00,0.78
5174.00,0.78
5173.00,0.78
5172.00,0.78
5171.00,0.78
5170.00,0.78
5169.00,0.78
5168.00,0.78
5167.00,0.78
5166.00,0.78
5165.00,0.78
5164.00,0.78
5163.00,0.78
5162.00,0.78
5161.00,0.78
5160.00,0.78
5159.00,0.78
5158.00,0.78
5157.00,0.78
5156.00,0.78
5155.00,0.79
5154.00,0.79
5153.00,0.79
5152.00,0.79
5151.00,0.79
5150.00,0.79
5149.00,0.79
5148.00,0.79
5147.00,0.79
5146.00,0.79
5145.00,0.79
5144.00,0.79
5143.00,0.79
5142.00,0.80
5141.00,0.80
5140.00,0.80
5139.00,0.80
5138.00,0.80
5137.00,0.80
5136.00,0.80
5135.00,0.80
5134.00,0.80
5133.00,0.80
5132.00,0.81
5131.00,0.81
5130.00,0.81
5129.00,0.81
5128.00,0.81
5127.00,0.81
5126.00,0.81
5125.00,0.81
5124.00,0.81
5123.00,0.81
5122.00,0.81
5121.00,0.81
5120.00,0.81
5119.00,0.81
5118.00,0.81
5117.00,0.81
5116.00,0.81
5115.00,0.81
5114.00,0.81
5113.00,0.81
5112.00,0.81
5111.00,0.81
5110.00,0.81
5109.00,0.81
5108.00,0.82
5107.00,0.82
5106.00,0.82
5105.00,0.82
5104.00,0.82
5103.00,0.82
5102.00,0.82
5101.00,0.82
5100.00,0.82
5099.00,0.82
5098.00,0.82
5097.00,0.82
5096.00,0.82
5095.00,0.83
5094.00,0.83
5093.00,0.83
5092.00,0.83
5091.00,0.83
5090.00,0.83
5089.00,0.83
5088.00,0.83
5087.00,0.83
5086.00,0.83
5085.00,0.83
5084.00,0.83
5083.00,0.83
5082.00,0.83
5081.00,0.84
5080.00,0.84
5079.00,0.84
5078.00,0.84
5077.00,0.84
5076.00,0.84
5075.00,0.84
5074.00,0.84
5073.00,0.84
5072.00,0.84
5071.00,0.84
5070.00,0.84
5069.00,0.85
5068.00,0.85
5067.00,0.85
5066.00,0.85
5065.00,0.85
5064.00,0.85
5063.00,0.85
5062.00,0.85
5061.00,0.85
5060.00,0.85
5059.00,0.85
5058.00,0.86
5057.00,0.86
5056.00,0.86
5055.00,0.86
5054.00,0.86
5053.00,0.86
5052.00,0.86
5051.00,0.86
5050.00,0.86
5049.00,0.86
5048.00,0.87
5047.00,0.87
5046.00,0.87
5045.00,0.87
5044.00,0.87
5043.00,0.87
5042.00,0.87
5041.00,0.87
5040.00,0.87
5039.00,0.87
5038.00,0.87
5037.00,0.87
5036.00,0.88
5035.00,0.88
5034.00,0.88
5033.00,0.88
5032.00,0.88
5031.00,0.88
5030.00,0.88
5029.00,0.88
5028.00,0.88
5027.00,0.88
5026.00,0.88
5025.00,0.88
5024.00,0.88
5023.00,0.89
5022.00,0.89
5021.00,0.89
5020.00,0.89
5019.00,0.89
5018.00,0.89
5017.00,0.89
5016.00,0.90
5015.00,0.90
5014.00,0.90
5013.00,0.90
5012.00,0.90
5011.00,0.90
5010.00,0.90
5009.00,0.91
5008.00,0.91
5007.00,0.91
5006.00,0.91
5005.00,0.91
5004.00,0.91
5003.00,0.91
5002.00,0.91
5001.00,0.92
5000.00,0.92
4999.00,0.92
4998.00,0.92
4997.00,0.92
4996.00,0.92
4995.00,0.92
4994.00,0.92
4993.00,0.92
4992.00,0.93
4991.00,0.93
4990.00,0.93
4989.00,0.93
4988.00,0.93
4987.00,0.93
4986.00,0.93
4985.00,0.93
4984.00,0.94
4983.00,0.94
4982.00,0.94
4981.00,0.94
4980.00,0.94
4979.00,0.94
4978.00,0.94
4977.00,0.94
4976.00,0.94
4975.00,0.95
4974.00,0.95
4973.00,0.95
4972.00,0.95
4971.00,0.95
4970.00,0.95
4969.00,0.95
4968.00,0.95
4967.00,0.95
4966.00,0.95
4965.00,0.96
4964.00,0.96
4963.00,0.96
4962.00,0.96
4961.00,0.96
4960.00,0.96
4959.00,0.97
4958.00,0.97
4957.00,0.97
4956.00,0.97
4955.00,0.97
4954.00,0.97
4953.00,0.97
4952.00,0.97
4951.00,0.98
4950.00,0.98
4949.00,0.98
4948.00,0.98
4947.00,0.98
4946.00,0.98
4945.00,0.98
4944.00,0.98
4943.00,0.98
4942.00,0.99
4941.00,0.99
4940.00,0.99
4939.00,0.99
4938.00,0.99
4937.00,0.99
4936.00,0.99
4935.00,1.00
4934.00,1.00
4933.00,1.00
4932.00,1.00
4931.00,1.00
4930.00,1.00
4929.00,1.01
4928.00,1.01
4927.00,1.01
4926.00,1.01
4925.00,1.01
4924.00,1.01
4923.00,1.01
4922.00,1.01
4921.00,1.02
4920.00,1.02
4919.00,1.02
4918.00,1.02
4917.00,1.02
4916.00,1.02
4915.00,1.02
4914.00,1.02
4913.00,1.02
4912.00,1.02
4911.00,1.02
4910.00,1.02
4909.00,1.02
4908.00,1.02
4907.00,1.02
4906.00,1.02
4905.00,1.02
4904.00,1.03
4903.00,1.03
4902.00,1.03
4901.00,1.03
4900.00,1.03
4899.00,1.03
4898.00,1.03
4897.00,1.03
4896.00,1.03
4895.00,1.03
4894.00,1.04
4893.00,1.04
4892.00,1.04
4891.00,1.04
4890.00,1.04
4889.00,1.04
4888.00,1.04
4887.00,1.04
4886.00,1.04
4885.00,1.04
4884.00,1.04
4883.00,1.05
4882.00,1.05
4881.00,1.05
4880.00,1.05
4879.00,1.05
4878.00,1.05
4877.00,1.05
4876.00,1.05
4875.00,1.05
4874.00,1.05
4873.00,1.05
4872.00,1.06
4871.00,1.06
4870.00,1.06
4869.00,1.06
4868.00,1.06
4867.00,1.06
4866.00,1.07
4865.00,1.07
4864.00,1.07
4863.00,1.07
4862.00,1.07
4861.00,1.07
4860.00,1.07
4859.00,1.07
4858.00,1.07
4857.00,1.07
4856.00,1.07
4855.00,1.07
4854.00,1.07
4853.00,1.07
4852.00,1.07
4851.00,1.07
4850.00,1.08
4849.00,1.08
4848.00,1.08
4847.00,1.08
4846.00,1.08
4845.00,1.08
4844.00,1.08
4843.00,1.08
4842.00,1.08
4841.00,1.08
4840.00,1.08
4839.00,1.08
4838.00,1.09
4837.00,1.09
4836.00,1.09
4835.00,1.09
4834.00,1.09
4833.00,1.09
4832.00,1.09
4831.00,1.09
4830.00,1.10
4829.00,1.10
4828.00,1.10
4827.00,1.10
4826.00,1.10
4825.00,1.10
4824.00,1.10
4823.00,1.10
4822.00,1.11
4821.00,1.11
4820.00,1.11
4819.00,1.11
4818.00,1.11
4817.00,1.11
4816.00,1.12
4815.00,1.12
4814.00,1.12
4813.00,1.12
4812.00,1.12
4811.00,1.12
4810.00,1.13
4809.00,1.13
4808.00,1.13
4807.00,1.13
4806.00,1.13
4805.00,1.14
4804.00,1.14
4803.00,1.14
4802.00,1.14
4801.00,1.14
4800.00,1.14
4799.00,1.14
4798.00,1.15
4797.00,1.15
4796.00,1.15
4795.00,1.15
4794.00,1.15
4793.00,1.15
4792.00,1.15
4791.00,1.16
4790.00,1.16
4789.00,1.16
4788.00,1.16
4787.00,1.16
4786.00,1.16
4785.00,1.17
4784.00,1.17
4783.00,1.17
4782.00,1.17
4781.00,1.17
4780.00,1.18
4779.00,1.18
4778.00,1.18
4777.00,1.18
4776.00,1.18
4775.00,1.18
4774.00,1.19
4773.00,1.19
4772.00,1.19
4771.00,1.19
4770.00,1.19
4769.00,1.20
4768.00,1.20
4767.00,1.20
4766.00,1.20
4765.00,1.20
4764.00,1.20
4763.00,1.21
4762.00,1.21
4761.00,1.21
4760.00,1.21
4759.00,1.21
4758.00,1.22
4757.00,1.22
4756.00,1.22
4755.00,1.22
4754.00,1.22
4753.00,1.22
4752.00,1.23
4751.00,1.23
4750.00,1.23
4749.00,1.23
4748.00,1.23
4747.00,1.23
4746.00,1.24
4745.00,1.24
4744.00,1.24
4743.00,1.24
4742.00,1.25
4741.00,1.25
4740.00,1.25
4739.00,1.26
4738.00,1.26
4737.00,1.26
4736.00,1.26
4735.00,1.27
4734.00,1.27
4733.00,1.27
4732.00,1.28
4731.00,1.28
4730.00,1.28
4729.00,1.28
4728.00,1.29
4727.00,1.29
4726.00,1.29
4725.00,1.29
4724.00,1.30
4723.00,1.30
4722.00,1.30
4721.00,1.30
4720.00,1.31
4719.00,1.31
4718.00,1.31
4717.00,1.31
4716.00,1.32
4715.00,1.32
4714.00,1.32
4713.00,1.33
4712.00,1.33
4711.00,1.33
4710.00,1.33
4709.00,1.34
4708.00,1.34
4707.00,1.34
4706.00,1.34
4705.00,1.34
4704.00,1.35
4703.00,1.35
4702.00,1.35
4701.00,1.35
4700.00,1.35
4699.00,1.36
4698.00,1.36
4697.00,1.36
4696.00,1.36
4695.00,1.36
4694.00,1.37
4693.00,1.37
4692.00,1.37
4691.00,1.37
4690.00,1.38
4689.00,1.38
4688.00,1.38
4687.00,1.38
4686.00,1.38
4685.00,1.39
4684.00,1.39
4683.00,1.39
4682.00,1.39
4681.00,1.40
4680.00,1.40
4679.00,1.40
4678.00,1.40
4677.00,1.41
4676.00,1.41
4675.00,1.41
4674.00,1.41
4673.00,1.42
4672.00,1.42
4671.00,1.42
4670.00,1.42
4669.00,1.42
4668.00,1.42
4667.00,1.42
4666.00,1.43
4665.00,1.43
4664.00,1.43
4663.00,1.43
4662.00,1.43
4661.00,1.43
4660.00,1.44
4659.00,1.44
4658.00,1.44
4657.00,1.44
4656.00,1.45
4655.00,1.45
4654.00,1.45
4653.00,1.45
4652.00,1.46
4651.00,1.46
4650.00,1.46
4649.00,1.47
4648.00,1.47
4647.00,1.47
4646.00,1.47
4645.00,1.48
4644.00,1.48
4643.00,1.48
4642.00,1.48
4641.00,1.48
4640.00,1.48
4639.00,1.49
4638.00,1.49
4637.00,1.49
4636.00,1.49
4635.00,1.49
4634.00,1.49
4633.00,1.49
4632.00,1.50
4631.00,1.50
4630.00,1.50
4629.00,1.50
4628.00,1.50
4627.00,1.50
4626.00,1.50
4625.00,1.50
4624.00,1.50
4623.00,1.50
4622.00,1.51
4621.00,1.51
4620.00,1.51
4619.00,1.51
4618.00,1.51
4617.00,1.51
4616.00,1.51
4615.00,1.51
4614.00,1.52
4613.00,1.52
4612.00,1.52
4611.00,1.52
4610.00,1.52
4609.00,1.52
4608.00,1.52
4607.00,1.53
4606.00,1.53
4605.00,1.53
4604.00,1.53
4603.00,1.53
4602.00,1.53
4601.00,1.53
4600.00,1.53
4599.00,1.53
4598.00,1.53
4597.00,1.53
4596.00,1.53
4595.00,1.53
4594.00,1.54
4593.00,1.54
4592.00,1.54
4591.00,1.54
4590.00,1.54
4589.00,1.54
4588.00,1.55
4587.00,1.55
4586.00,1.55
4585.00,1.55
4584.00,1.55
4583.00,1.56
4582.00,1.56
4581.00,1.56
4580.00,1.56
4579.00,1.57
4578.00,1.57
4577.00,1.57
4576.00,1.57
4575.00,1.57
4574.00,1.57
4573.00,1.57
4572.00,1.58
4571.00,1.58
4570.00,1.58
4569.00,1.58
4568.00,1.58
4567.00,1.58
4566.00,1.58
4565.00,1.58
4564.00,1.58
4563.00,1.58
4562.00,1.58
4561.00,1.59
4560.00,1.59
4559.00,1.59
4558.00,1.59
4557.00,1.59
4556.00,1.59
4555.00,1.59
4554.00,1.59
4553.00,1.59
4552.00,1.59
4551.00,1.59
4550.00,1.59
4549.00,1.59
4548.00,1.59
4547.00,1.60
4546.00,1.60
4545.00,1.60
4544.00,1.60
4543.00,1.60
4542.00,1.60
4541.00,1.60
4540.00,1.61
4539.00,1.61
4538.00,1.61
4537.00,1.61
4536.00,1.61
4535.00,1.61
4534.00,1.61
4533.00,1.61
4532.00,1.61
4531.00,1.62
4530.00,1.62
4529.00,1.62
4528.00,1.62
4527.00,1.62
4526.00,1.62
4525.00,1.62
4524.00,1.62
4523.00,1.62
4522.00,1.62
4521.00,1.62
4520.00,1.62
4519.00,1.62
4518.00,1.62
4517.00,1.62
4516.00,1.62
4515.00,1.62
4514.00,1.62
4513.00,1.62
4512.00,1.62
4511.00,1.62
4510.00,1.62
4509.00,1.62
4508.00,1.63
4507.00,1.63
4506.00,1.63
4505.00,1.63
4504.00,1.63
4503.00,1.63
4502.00,1.63
4501.00,1.63
4500.00,1.63
4499.00,1.63
4498.00,1.63
4497.00,1.63
4496.00,1.63
4495.00,1.62
4494.00,1.62
4493.00,1.62
4492.00,1.62
4491.00,1.62
4490.00,1.62
4489.00,1.62
4488.00,1.62
4487.00,1.61
4486.00,1.61
4485.00,1.61
4484.00,1.61
4483.00,1.60
4482.00,1.60
4481.00,1.60
4480.00,1.60
4479.00,1.59
4478.00,1.59
4477.00,1.59
4476.00,1.58
4475.00,1.58
4474.00,1.58
4473.00,1.58
4472.00,1.57
4471.00,1.57
4470.00,1.57
4469.00,1.56
4468.00,1.56
4467.00,1.56
4466.00,1.55
4465.00,1.55
4464.00,1.55
4463.00,1.54
4462.00,1.54
4461.00,1.53
4460.00,1.53
4459.00,1.53
4458.00,1.52
4457.00,1.52
4456.00,1.51
4455.00,1.51
4454.00,1.50
4453.00,1.50
4452.00,1.49
4451.00,1.48
4450.00,1.48
4449.00,1.47
4448.00,1.46
4447.00,1.46
4446.00,1.45
4445.00,1.44
4444.00,1.44
4443.00,1.43
4442.00,1.42
4441.00,1.42
4440.00,1.41
4439.00,1.40
4438.00,1.40
4437.00,1.39
4436.00,1.39
4435.00,1.38
4434.00,1.37
4433.00,1.37
4432.00,1.36
4431.00,1.36
4430.00,1.35
4429.00,1.35
4428.00,1.35
4427.00,1.34
4426.00,1.34
4425.00,1.33
4424.00,1.33
4423.00,1.33
4422.00,1.33
4421.00,1.32
4420.00,1.32
4419.00,1.32
4418.00,1.32
4417.00,1.32
4416.00,1.31
4415.00,1.31
4414.00,1.31
4413.00,1.31
4412.00,1.31
4411.00,1.31
4410.00,1.31
4409.00,1.31
4408.00,1.31
4407.00,1.31
4406.00,1.32
4405.00,1.32
4404.00,1.32
4403.00,1.32
4402.00,1.32
4401.00,1.32
4400.00,1.32
4399.00,1.33
4398.00,1.33
4397.00,1.33
4396.00,1.33
4395.00,1.33
4394.00,1.34
4393.00,1.34
4392.00,1.34
4391.00,1.34
4390.00,1.35
4389.00,1.35
4388.00,1.35
4387.00,1.35
4386.00,1.36
4385.00,1.36
4384.00,1.36
4383.00,1.36
4382.00,1.37
4381.00,1.37
4380.00,1.37
4379.00,1.37
4378.00,1.38
4377.00,1.38
4376.00,1.38
4375.00,1.38
4374.00,1.38
4373.00,1.38
4372.00,1.38
4371.00,1.38
4370.00,1.38
4369.00,1.38
4368.00,1.38
4367.00,1.38
4366.00,1.38
4365.00,1.38
4364.00,1.38
4363.00,1.38
4362.00,1.38
4361.00,1.38
4360.00,1.38
4359.00,1.38
4358.00,1.38
4357.00,1.38
4356.00,1.38
4355.00,1.38
4354.00,1.37
4353.00,1.37
4352.00,1.37
4351.00,1.37
4350.00,1.37
4349.00,1.37
4348.00,1.37
4347.00,1.37
4346.00,1.37
4345.00,1.37
4344.00,1.37
4343.00,1.38
4342.00,1.38
4341.00,1.38
4340.00,1.38
4339.00,1.38
4338.00,1.38
4337.00,1.38
4336.00,1.38
4335.00,1.38
4334.00,1.38
4333.00,1.39
4332.00,1.39
4331.00,1.39
4330.00,1.39
4329.00,1.39
4328.00,1.39
4327.00,1.40
4326.00,1.40
4325.00,1.40
4324.00,1.40
4323.00,1.40
4322.00,1.41
4321.00,1.41
4320.00,1.41
4319.00,1.41
4318.00,1.42
4317.00,1.42
4316.00,1.42
4315.00,1.43
4314.00,1.43
4313.00,1.43
4312.00,1.43
4311.00,1.44
4310.00,1.44
4309.00,1.44
4308.00,1.45
4307.00,1.45
4306.00,1.45
4305.00,1.45
4304.00,1.46
4303.00,1.46
4302.00,1.46
4301.00,1.46
4300.00,1.46
4299.00,1.46
4298.00,1.46
4297.00,1.46
4296.00,1.46
4295.00,1.46
4294.00,1.46
4293.00,1.47
4292.00,1.47
4291.00,1.47
4290.00,1.47
4289.00,1.47
4288.00,1.47
4287.00,1.47
4286.00,1.48
4285.00,1.48
4284.00,1.48
4283.00,1.48
4282.00,1.49
4281.00,1.49
4280.00,1.49
4279.00,1.49
4278.00,1.49
4277.00,1.49
4276.00,1.49
4275.00,1.49
4274.00,1.49
4273.00,1.49
4272.00,1.49
4271.00,1.49
4270.00,1.49
4269.00,1.49
4268.00,1.49
4267.00,1.49
4266.00,1.49
4265.00,1.48
4264.00,1.48
4263.00,1.48
4262.00,1.48
4261.00,1.48
4260.00,1.48
4259.00,1.48
4258.00,1.48
4257.00,1.48
4256.00,1.48
4255.00,1.48
4254.00,1.48
4253.00,1.48
4252.00,1.48
4251.00,1.48
4250.00,1.49
4249.00,1.49
4248.00,1.49
4247.00,1.49
4246.00,1.49
4245.00,1.49
4244.00,1.50
4243.00,1.50
4242.00,1.50
4241.00,1.50
4240.00,1.51
4239.00,1.51
4238.00,1.51
4237.00,1.52
4236.00,1.52
4235.00,1.52
4234.00,1.53
4233.00,1.53
4232.00,1.53
4231.00,1.54
4230.00,1.54
4229.00,1.54
4228.00,1.55
4227.00,1.55
4226.00,1.55
4225.00,1.55
4224.00,1.55
4223.00,1.55
4222.00,1.55
4221.00,1.55
4220.00,1.55
4219.00,1.55
4218.00,1.55
4217.00,1.55
4216.00,1.55
4215.00,1.55
4214.00,1.55
4213.00,1.55
4212.00,1.55
4211.00,1.55
4210.00,1.55
4209.00,1.55
4208.00,1.55
4207.00,1.55
4206.00,1.55
4205.00,1.55
4204.00,1.55
4203.00,1.56
4202.00,1.56
4201.00,1.56
4200.00,1.56
4199.00,1.56
4198.00,1.56
4197.00,1.56
4196.00,1.57
4195.00,1.57
4194.00,1.57
4193.00,1.57
4192.00,1.57
4191.00,1.57
4190.00,1.57
4189.00,1.57
4188.00,1.57
4187.00,1.57
4186.00,1.57
4185.00,1.57
4184.00,1.57
4183.00,1.57
4182.00,1.57
4181.00,1.57
4180.00,1.57
4179.00,1.57
4178.00,1.57
4177.00,1.57
4176.00,1.57
4175.00,1.57
4174.00,1.57
4173.00,1.57
4172.00,1.57
4171.00,1.57
4170.00,1.57
4169.00,1.57
4168.00,1.57
4167.00,1.57
4166.00,1.57
4165.00,1.57
4164.00,1.57
4163.00,1.57
4162.00,1.57
4161.00,1.57
4160.00,1.57
4159.00,1.57
4158.00,1.57
4157.00,1.58
4156.00,1.58
4155.00,1.58
4154.00,1.58
4153.00,1.58
4152.00,1.58
4151.00,1.58
4150.00,1.58
4149.00,1.58
4148.00,1.58
4147.00,1.58
4146.00,1.58
4145.00,1.58
4144.00,1.58
4143.00,1.58
4142.00,1.58
4141.00,1.58
4140.00,1.58
4139.00,1.58
4138.00,1.58
4137.00,1.58
4136.00,1.58
4135.00,1.58
4134.00,1.58
4133.00,1.58
4132.00,1.58
4131.00,1.58
4130.00,1.58
4129.00,1.58
4128.00,1.58
4127.00,1.59
4126.00,1.59
4125.00,1.59
4124.00,1.59
4123.00,1.59
4122.00,1.59
4121.00,1.59
4120.00,1.59
4119.00,1.60
4118.00,1.60
4117.00,1.60
4116.00,1.60
4115.00,1.60
4114.00,1.60
4113.00,1.60
4112.00,1.61
4111.00,1.61
4110.00,1.61
4109.00,1.61
4108.00,1.61
4107.00,1.61
4106.00,1.61
4105.00,1.61
4104.00,1.61
4103.00,1.61
4102.00,1.62
4101.00,1.62
4100.00,1.62
4099.00,1.62
4098.00,1.62
4097.00,1.62
4096.00,1.62
4095.00,1.62
4094.00,1.62
4093.00,1.62
4092.00,1.62
4091.00,1.62
4090.00,1.62
4089.00,1.62
4088.00,1.63
4087.00,1.63
4086.00,1.63
4085.00,1.63
4084.00,1.63
4083.00,1.63
4082.00,1.63
4081.00,1.63
4080.00,1.63
4079.00,1.64
4078.00,1.64
4077.00,1.64
4076.00,1.64
4075.00,1.64
4074.00,1.64
4073.00,1.64
4072.00,1.64
4071.00,1.64
4070.00,1.64
4069.00,1.64
4068.00,1.64
4067.00,1.64
4066.00,1.65
4065.00,1.65
4064.00,1.65
4063.00,1.65
4062.00,1.65
4061.00,1.65
4060.00,1.64
4059.00,1.64
4058.00,1.64
4057.00,1.64
4056.00,1.64
4055.00,1.64
4054.00,1.64
4053.00,1.64
4052.00,1.64
4051.00,1.65
4050.00,1.65
4049.00,1.65
4048.00,1.65
4047.00,1.65
4046.00,1.65
4045.00,1.65
4044.00,1.65
4043.00,1.65
4042.00,1.66
4041.00,1.66
4040.00,1.66
4039.00,1.66
4038.00,1.66
4037.00,1.66
4036.00,1.67
4035.00,1.67
4034.00,1.67
4033.00,1.67
4032.00,1.67
4031.00,1.68
4030.00,1.68
4029.00,1.68
4028.00,1.68
4027.00,1.68
4026.00,1.69
4025.00,1.69
4024.00,1.69
4023.00,1.69
4022.00,1.70
4021.00,1.70
4020.00,1.70
4019.00,1.71
4018.00,1.71
4017.00,1.71
4016.00,1.72
4015.00,1.72
4014.00,1.73
4013.00,1.73
4012.00,1.73
4011.00,1.73
4010.00,1.74
4009.00,1.74
4008.00,1.74
4007.00,1.74
4006.00,1.74
4005.00,1.74
4004.00,1.74
4003.00,1.74
4002.00,1.74
4001.00,1.74
4000.00,1.73
