创建为新数据集,样品 159 用户 Administrator 日期 星期三, 十一月 08 2017
cm-1,%T
10000.00,1.41
9999.00,1.41
9998.00,1.41
9997.00,1.41
9996.00,1.41
9995.00,1.41
9994.00,1.41
9993.00,1.41
9992.00,1.41
9991.00,1.41
9990.00,1.41
9989.00,1.41
9988.00,1.41
9987.00,1.41
9986.00,1.41
9985.00,1.41
9984.00,1.41
9983.00,1.41
9982.00,1.41
9981.00,1.41
9980.00,1.41
9979.00,1.41
9978.00,1.41
9977.00,1.41
9976.00,1.41
9975.00,1.41
9974.00,1.41
9973.00,1.41
9972.00,1.41
9971.00,1.41
9970.00,1.40
9969.00,1.40
9968.00,1.40
9967.00,1.40
9966.00,1.40
9965.00,1.40
9964.00,1.40
9963.00,1.39
9962.00,1.39
9961.00,1.39
9960.00,1.39
9959.00,1.39
9958.00,1.39
9957.00,1.39
9956.00,1.39
9955.00,1.39
9954.00,1.39
9953.00,1.39
9952.00,1.39
9951.00,1.39
9950.00,1.39
9949.00,1.39
9948.00,1.39
9947.00,1.39
9946.00,1.39
9945.00,1.39
9944.00,1.39
9943.00,1.39
9942.00,1.39
9941.00,1.39
9940.00,1.40
9939.00,1.40
9938.00,1.40
9937.00,1.40
9936.00,1.40
9935.00,1.40
9934.00,1.40
9933.00,1.40
9932.00,1.40
9931.00,1.40
9930.00,1.40
9929.00,1.40
9928.00,1.40
9927.00,1.40
9926.00,1.40
9925.00,1.40
9924.00,1.40
9923.00,1.41
9922.00,1.41
9921.00,1.41
9920.00,1.41
9919.00,1.41
9918.00,1.41
9917.00,1.41
9916.00,1.41
9915.00,1.40
9914.00,1.40
9913.00,1.40
9912.00,1.40
9911.00,1.40
9910.00,1.40
9909.00,1.39
9908.00,1.39
9907.00,1.39
9906.00,1.39
9905.00,1.39
9904.00,1.38
9903.00,1.38
9902.00,1.38
9901.00,1.38
9900.00,1.38
9899.00,1.38
9898.00,1.37
9897.00,1.37
9896.00,1.37
9895.00,1.37
9894.00,1.37
9893.00,1.37
9892.00,1.37
9891.00,1.37
9890.00,1.37
9889.00,1.36
9888.00,1.36
9887.00,1.36
9886.00,1.36
9885.00,1.36
9884.00,1.36
9883.00,1.36
9882.00,1.36
9881.00,1.36
9880.00,1.36
9879.00,1.36
9878.00,1.36
9877.00,1.36
9876.00,1.36
9875.00,1.36
9874.00,1.36
9873.00,1.36
9872.00,1.36
9871.00,1.36
9870.00,1.36
9869.00,1.36
9868.00,1.36
9867.00,1.36
9866.00,1.36
9865.00,1.36
9864.00,1.36
9863.00,1.36
9862.00,1.37
9861.00,1.37
9860.00,1.37
9859.00,1.37
9858.00,1.37
9857.00,1.37
9856.00,1.37
9855.00,1.37
9854.00,1.38
9853.00,1.38
9852.00,1.38
9851.00,1.38
9850.00,1.38
9849.00,1.38
9848.00,1.39
9847.00,1.39
9846.00,1.39
9845.00,1.39
9844.00,1.39
9843.00,1.39
9842.00,1.39
9841.00,1.39
9840.00,1.39
9839.00,1.39
9838.00,1.39
9837.00,1.39
9836.00,1.39
9835.00,1.39
9834.00,1.39
9833.00,1.39
9832.00,1.39
9831.00,1.39
9830.00,1.39
9829.00,1.39
9828.00,1.39
9827.00,1.39
9826.00,1.39
9825.00,1.39
9824.00,1.39
9823.00,1.39
9822.00,1.39
9821.00,1.39
9820.00,1.39
9819.00,1.39
9818.00,1.39
9817.00,1.39
9816.00,1.39
9815.00,1.39
9814.00,1.39
9813.00,1.39
9812.00,1.39
9811.00,1.39
9810.00,1.39
9809.00,1.39
9808.00,1.40
9807.00,1.40
9806.00,1.40
9805.00,1.40
9804.00,1.40
9803.00,1.40
9802.00,1.40
9801.00,1.40
9800.00,1.40
9799.00,1.40
9798.00,1.40
9797.00,1.40
9796.00,1.40
9795.00,1.40
9794.00,1.40
9793.00,1.39
9792.00,1.39
9791.00,1.39
9790.00,1.39
9789.00,1.39
9788.00,1.39
9787.00,1.39
9786.00,1.39
9785.00,1.38
9784.00,1.38
9783.00,1.38
9782.00,1.38
9781.00,1.39
9780.00,1.39
9779.00,1.39
9778.00,1.39
9777.00,1.39
9776.00,1.39
9775.00,1.39
9774.00,1.40
9773.00,1.40
9772.00,1.40
9771.00,1.40
9770.00,1.40
9769.00,1.40
9768.00,1.41
9767.00,1.41
9766.00,1.41
9765.00,1.41
9764.00,1.41
9763.00,1.41
9762.00,1.41
9761.00,1.41
9760.00,1.41
9759.00,1.41
9758.00,1.40
9757.00,1.40
9756.00,1.40
9755.00,1.40
9754.00,1.40
9753.00,1.40
9752.00,1.40
9751.00,1.40
9750.00,1.40
9749.00,1.40
9748.00,1.40
9747.00,1.40
9746.00,1.40
9745.00,1.39
9744.00,1.39
9743.00,1.39
9742.00,1.39
9741.00,1.39
9740.00,1.39
9739.00,1.39
9738.00,1.39
9737.00,1.39
9736.00,1.39
9735.00,1.39
9734.00,1.39
9733.00,1.39
9732.00,1.39
9731.00,1.39
9730.00,1.39
9729.00,1.39
9728.00,1.39
9727.00,1.39
9726.00,1.39
9725.00,1.39
9724.00,1.39
9723.00,1.39
9722.00,1.38
9721.00,1.38
9720.00,1.38
9719.00,1.38
9718.00,1.38
9717.00,1.38
9716.00,1.38
9715.00,1.37
9714.00,1.37
9713.00,1.37
9712.00,1.37
9711.00,1.37
9710.00,1.37
9709.00,1.37
9708.00,1.37
9707.00,1.37
9706.00,1.37
9705.00,1.37
9704.00,1.37
9703.00,1.37
9702.00,1.37
9701.00,1.37
9700.00,1.37
9699.00,1.37
9698.00,1.37
9697.00,1.38
9696.00,1.38
9695.00,1.38
9694.00,1.38
9693.00,1.38
9692.00,1.38
9691.00,1.38
9690.00,1.38
9689.00,1.38
9688.00,1.38
9687.00,1.38
9686.00,1.38
9685.00,1.39
9684.00,1.39
9683.00,1.39
9682.00,1.39
9681.00,1.39
9680.00,1.39
9679.00,1.39
9678.00,1.39
9677.00,1.39
9676.00,1.39
9675.00,1.39
9674.00,1.39
9673.00,1.38
9672.00,1.38
9671.00,1.38
9670.00,1.38
9669.00,1.38
9668.00,1.38
9667.00,1.38
9666.00,1.38
9665.00,1.38
9664.00,1.38
9663.00,1.38
9662.00,1.38
9661.00,1.38
9660.00,1.38
9659.00,1.38
9658.00,1.38
9657.00,1.38
9656.00,1.38
9655.00,1.37
9654.00,1.37
9653.00,1.37
9652.00,1.37
9651.00,1.37
9650.00,1.37
9649.00,1.37
9648.00,1.37
9647.00,1.37
9646.00,1.37
9645.00,1.37
9644.00,1.37
9643.00,1.37
9642.00,1.38
9641.00,1.38
9640.00,1.38
9639.00,1.38
9638.00,1.38
9637.00,1.38
9636.00,1.38
9635.00,1.38
9634.00,1.38
9633.00,1.38
9632.00,1.38
9631.00,1.38
9630.00,1.38
9629.00,1.39
9628.00,1.39
9627.00,1.39
9626.00,1.39
9625.00,1.39
9624.00,1.39
9623.00,1.39
9622.00,1.39
9621.00,1.39
9620.00,1.40
9619.00,1.40
9618.00,1.40
9617.00,1.40
9616.00,1.40
9615.00,1.40
9614.00,1.40
9613.00,1.39
9612.00,1.39
9611.00,1.39
9610.00,1.39
9609.00,1.39
9608.00,1.39
9607.00,1.39
9606.00,1.38
9605.00,1.38
9604.00,1.38
9603.00,1.38
9602.00,1.38
9601.00,1.38
9600.00,1.38
9599.00,1.37
9598.00,1.37
9597.00,1.37
9596.00,1.37
9595.00,1.37
9594.00,1.37
9593.00,1.37
9592.00,1.37
9591.00,1.38
9590.00,1.38
9589.00,1.38
9588.00,1.38
9587.00,1.38
9586.00,1.38
9585.00,1.39
9584.00,1.39
9583.00,1.39
9582.00,1.39
9581.00,1.39
9580.00,1.39
9579.00,1.39
9578.00,1.39
9577.00,1.39
9576.00,1.39
9575.00,1.39
9574.00,1.39
9573.00,1.39
9572.00,1.39
9571.00,1.39
9570.00,1.38
9569.00,1.38
9568.00,1.38
9567.00,1.37
9566.00,1.37
9565.00,1.37
9564.00,1.37
9563.00,1.37
9562.00,1.36
9561.00,1.36
9560.00,1.36
9559.00,1.36
9558.00,1.36
9557.00,1.36
9556.00,1.36
9555.00,1.36
9554.00,1.37
9553.00,1.37
9552.00,1.37
9551.00,1.37
9550.00,1.37
9549.00,1.38
9548.00,1.38
9547.00,1.38
9546.00,1.38
9545.00,1.38
9544.00,1.39
9543.00,1.39
9542.00,1.39
9541.00,1.39
9540.00,1.39
9539.00,1.40
9538.00,1.40
9537.00,1.40
9536.00,1.40
9535.00,1.40
9534.00,1.40
9533.00,1.40
9532.00,1.40
9531.00,1.40
9530.00,1.40
9529.00,1.40
9528.00,1.40
9527.00,1.40
9526.00,1.40
9525.00,1.40
9524.00,1.40
9523.00,1.40
9522.00,1.40
9521.00,1.40
9520.00,1.40
9519.00,1.40
9518.00,1.40
9517.00,1.40
9516.00,1.40
9515.00,1.40
9514.00,1.40
9513.00,1.40
9512.00,1.40
9511.00,1.40
9510.00,1.40
9509.00,1.40
9508.00,1.40
9507.00,1.40
9506.00,1.40
9505.00,1.39
9504.00,1.39
9503.00,1.39
9502.00,1.39
9501.00,1.39
9500.00,1.39
9499.00,1.39
9498.00,1.39
9497.00,1.39
9496.00,1.39
9495.00,1.39
9494.00,1.39
9493.00,1.39
9492.00,1.39
9491.00,1.39
9490.00,1.39
9489.00,1.40
9488.00,1.40
9487.00,1.40
9486.00,1.40
9485.00,1.40
9484.00,1.40
9483.00,1.41
9482.00,1.41
9481.00,1.41
9480.00,1.41
9479.00,1.41
9478.00,1.41
9477.00,1.41
9476.00,1.41
9475.00,1.40
9474.00,1.40
9473.00,1.40
9472.00,1.40
9471.00,1.40
9470.00,1.40
9469.00,1.40
9468.00,1.40
9467.00,1.40
9466.00,1.39
9465.00,1.39
9464.00,1.39
9463.00,1.39
9462.00,1.39
9461.00,1.39
9460.00,1.39
9459.00,1.39
9458.00,1.39
9457.00,1.38
9456.00,1.38
9455.00,1.38
9454.00,1.38
9453.00,1.38
9452.00,1.38
9451.00,1.37
9450.00,1.37
9449.00,1.37
9448.00,1.37
9447.00,1.37
9446.00,1.37
9445.00,1.37
9444.00,1.37
9443.00,1.37
9442.00,1.37
9441.00,1.37
9440.00,1.37
9439.00,1.37
9438.00,1.37
9437.00,1.37
9436.00,1.37
9435.00,1.37
9434.00,1.37
9433.00,1.37
9432.00,1.37
9431.00,1.37
9430.00,1.37
9429.00,1.37
9428.00,1.37
9427.00,1.38
9426.00,1.38
9425.00,1.38
9424.00,1.38
9423.00,1.38
9422.00,1.38
9421.00,1.38
9420.00,1.38
9419.00,1.38
9418.00,1.38
9417.00,1.38
9416.00,1.38
9415.00,1.37
9414.00,1.37
9413.00,1.37
9412.00,1.37
9411.00,1.37
9410.00,1.37
9409.00,1.37
9408.00,1.37
9407.00,1.37
9406.00,1.36
9405.00,1.36
9404.00,1.36
9403.00,1.36
9402.00,1.36
9401.00,1.36
9400.00,1.36
9399.00,1.36
9398.00,1.36
9397.00,1.36
9396.00,1.37
9395.00,1.37
9394.00,1.37
9393.00,1.37
9392.00,1.37
9391.00,1.37
9390.00,1.37
9389.00,1.37
9388.00,1.38
9387.00,1.38
9386.00,1.38
9385.00,1.38
9384.00,1.38
9383.00,1.38
9382.00,1.38
9381.00,1.38
9380.00,1.38
9379.00,1.38
9378.00,1.38
9377.00,1.39
9376.00,1.39
9375.00,1.39
9374.00,1.39
9373.00,1.39
9372.00,1.39
9371.00,1.38
9370.00,1.38
9369.00,1.38
9368.00,1.38
9367.00,1.38
9366.00,1.38
9365.00,1.38
9364.00,1.38
9363.00,1.38
9362.00,1.38
9361.00,1.38
9360.00,1.38
9359.00,1.37
9358.00,1.37
9357.00,1.37
9356.00,1.37
9355.00,1.37
9354.00,1.37
9353.00,1.37
9352.00,1.37
9351.00,1.37
9350.00,1.37
9349.00,1.37
9348.00,1.37
9347.00,1.37
9346.00,1.37
9345.00,1.38
9344.00,1.38
9343.00,1.38
9342.00,1.38
9341.00,1.38
9340.00,1.39
9339.00,1.39
9338.00,1.39
9337.00,1.39
9336.00,1.39
9335.00,1.39
9334.00,1.40
9333.00,1.40
9332.00,1.40
9331.00,1.40
9330.00,1.40
9329.00,1.40
9328.00,1.40
9327.00,1.40
9326.00,1.40
9325.00,1.40
9324.00,1.40
9323.00,1.40
9322.00,1.40
9321.00,1.40
9320.00,1.40
9319.00,1.40
9318.00,1.40
9317.00,1.40
9316.00,1.40
9315.00,1.40
9314.00,1.40
9313.00,1.40
9312.00,1.40
9311.00,1.40
9310.00,1.40
9309.00,1.40
9308.00,1.40
9307.00,1.40
9306.00,1.40
9305.00,1.40
9304.00,1.40
9303.00,1.40
9302.00,1.40
9301.00,1.39
9300.00,1.39
9299.00,1.39
9298.00,1.39
9297.00,1.39
9296.00,1.39
9295.00,1.39
9294.00,1.39
9293.00,1.39
9292.00,1.38
9291.00,1.38
9290.00,1.38
9289.00,1.38
9288.00,1.38
9287.00,1.38
9286.00,1.38
9285.00,1.38
9284.00,1.38
9283.00,1.38
9282.00,1.38
9281.00,1.38
9280.00,1.38
9279.00,1.38
9278.00,1.38
9277.00,1.38
9276.00,1.38
9275.00,1.38
9274.00,1.38
9273.00,1.38
9272.00,1.38
9271.00,1.38
9270.00,1.38
9269.00,1.38
9268.00,1.38
9267.00,1.38
9266.00,1.38
9265.00,1.38
9264.00,1.38
9263.00,1.38
9262.00,1.38
9261.00,1.38
9260.00,1.38
9259.00,1.38
9258.00,1.38
9257.00,1.38
9256.00,1.38
9255.00,1.37
9254.00,1.37
9253.00,1.37
9252.00,1.37
9251.00,1.37
9250.00,1.37
9249.00,1.37
9248.00,1.37
9247.00,1.37
9246.00,1.37
9245.00,1.37
9244.00,1.37
9243.00,1.37
9242.00,1.37
9241.00,1.37
9240.00,1.37
9239.00,1.37
9238.00,1.38
9237.00,1.38
9236.00,1.38
9235.00,1.38
9234.00,1.38
9233.00,1.38
9232.00,1.38
9231.00,1.39
9230.00,1.39
9229.00,1.39
9228.00,1.39
9227.00,1.39
9226.00,1.39
9225.00,1.39
9224.00,1.39
9223.00,1.39
9222.00,1.39
9221.00,1.39
9220.00,1.39
9219.00,1.39
9218.00,1.39
9217.00,1.39
9216.00,1.39
9215.00,1.39
9214.00,1.39
9213.00,1.39
9212.00,1.39
9211.00,1.39
9210.00,1.39
9209.00,1.39
9208.00,1.39
9207.00,1.39
9206.00,1.38
9205.00,1.38
9204.00,1.38
9203.00,1.38
9202.00,1.38
9201.00,1.38
9200.00,1.38
9199.00,1.38
9198.00,1.39
9197.00,1.39
9196.00,1.39
9195.00,1.39
9194.00,1.39
9193.00,1.39
9192.00,1.39
9191.00,1.39
9190.00,1.40
9189.00,1.40
9188.00,1.40
9187.00,1.40
9186.00,1.40
9185.00,1.40
9184.00,1.40
9183.00,1.40
9182.00,1.40
9181.00,1.40
9180.00,1.40
9179.00,1.40
9178.00,1.40
9177.00,1.40
9176.00,1.40
9175.00,1.40
9174.00,1.40
9173.00,1.40
9172.00,1.40
9171.00,1.40
9170.00,1.40
9169.00,1.40
9168.00,1.40
9167.00,1.40
9166.00,1.40
9165.00,1.40
9164.00,1.40
9163.00,1.40
9162.00,1.40
9161.00,1.40
9160.00,1.40
9159.00,1.40
9158.00,1.40
9157.00,1.40
9156.00,1.40
9155.00,1.40
9154.00,1.40
9153.00,1.40
9152.00,1.40
9151.00,1.40
9150.00,1.40
9149.00,1.40
9148.00,1.40
9147.00,1.40
9146.00,1.40
9145.00,1.40
9144.00,1.40
9143.00,1.40
9142.00,1.40
9141.00,1.40
9140.00,1.40
9139.00,1.39
9138.00,1.39
9137.00,1.39
9136.00,1.39
9135.00,1.39
9134.00,1.39
9133.00,1.39
9132.00,1.39
9131.00,1.39
9130.00,1.40
9129.00,1.40
9128.00,1.40
9127.00,1.40
9126.00,1.40
9125.00,1.40
9124.00,1.40
9123.00,1.41
9122.00,1.41
9121.00,1.41
9120.00,1.41
9119.00,1.41
9118.00,1.41
9117.00,1.41
9116.00,1.41
9115.00,1.40
9114.00,1.40
9113.00,1.40
9112.00,1.40
9111.00,1.40
9110.00,1.40
9109.00,1.39
9108.00,1.39
9107.00,1.39
9106.00,1.39
9105.00,1.39
9104.00,1.39
9103.00,1.38
9102.00,1.38
9101.00,1.38
9100.00,1.38
9099.00,1.38
9098.00,1.38
9097.00,1.37
9096.00,1.37
9095.00,1.37
9094.00,1.37
9093.00,1.37
9092.00,1.37
9091.00,1.37
9090.00,1.37
9089.00,1.37
9088.00,1.37
9087.00,1.37
9086.00,1.37
9085.00,1.38
9084.00,1.38
9083.00,1.38
9082.00,1.38
9081.00,1.38
9080.00,1.38
9079.00,1.39
9078.00,1.39
9077.00,1.39
9076.00,1.39
9075.00,1.39
9074.00,1.39
9073.00,1.39
9072.00,1.39
9071.00,1.39
9070.00,1.39
9069.00,1.39
9068.00,1.39
9067.00,1.39
9066.00,1.39
9065.00,1.39
9064.00,1.39
9063.00,1.39
9062.00,1.39
9061.00,1.39
9060.00,1.39
9059.00,1.39
9058.00,1.39
9057.00,1.39
9056.00,1.39
9055.00,1.39
9054.00,1.39
9053.00,1.40
9052.00,1.40
9051.00,1.40
9050.00,1.40
9049.00,1.40
9048.00,1.40
9047.00,1.40
9046.00,1.40
9045.00,1.40
9044.00,1.40
9043.00,1.40
9042.00,1.40
9041.00,1.40
9040.00,1.40
9039.00,1.40
9038.00,1.40
9037.00,1.40
9036.00,1.40
9035.00,1.40
9034.00,1.40
9033.00,1.40
9032.00,1.39
9031.00,1.39
9030.00,1.39
9029.00,1.39
9028.00,1.39
9027.00,1.39
9026.00,1.39
9025.00,1.39
9024.00,1.39
9023.00,1.39
9022.00,1.39
9021.00,1.39
9020.00,1.39
9019.00,1.39
9018.00,1.39
9017.00,1.39
9016.00,1.39
9015.00,1.39
9014.00,1.39
9013.00,1.39
9012.00,1.39
9011.00,1.39
9010.00,1.39
9009.00,1.39
9008.00,1.39
9007.00,1.39
9006.00,1.40
9005.00,1.40
9004.00,1.40
9003.00,1.40
9002.00,1.39
9001.00,1.39
9000.00,1.39
8999.00,1.39
8998.00,1.39
8997.00,1.39
8996.00,1.39
8995.00,1.39
8994.00,1.38
8993.00,1.38
8992.00,1.38
8991.00,1.38
8990.00,1.38
8989.00,1.38
8988.00,1.37
8987.00,1.37
8986.00,1.37
8985.00,1.37
8984.00,1.37
8983.00,1.37
8982.00,1.37
8981.00,1.37
8980.00,1.37
8979.00,1.37
8978.00,1.38
8977.00,1.38
8976.00,1.38
8975.00,1.38
8974.00,1.38
8973.00,1.38
8972.00,1.38
8971.00,1.39
8970.00,1.39
8969.00,1.39
8968.00,1.39
8967.00,1.39
8966.00,1.39
8965.00,1.39
8964.00,1.39
8963.00,1.39
8962.00,1.39
8961.00,1.39
8960.00,1.39
8959.00,1.39
8958.00,1.40
8957.00,1.40
8956.00,1.40
8955.00,1.40
8954.00,1.40
8953.00,1.40
8952.00,1.40
8951.00,1.40
8950.00,1.40
8949.00,1.40
8948.00,1.40
8947.00,1.40
8946.00,1.40
8945.00,1.40
8944.00,1.40
8943.00,1.40
8942.00,1.40
8941.00,1.40
8940.00,1.40
8939.00,1.40
8938.00,1.40
8937.00,1.40
8936.00,1.40
8935.00,1.40
8934.00,1.40
8933.00,1.40
8932.00,1.40
8931.00,1.39
8930.00,1.39
8929.00,1.39
8928.00,1.39
8927.00,1.39
8926.00,1.39
8925.00,1.39
8924.00,1.40
8923.00,1.40
8922.00,1.40
8921.00,1.40
8920.00,1.40
8919.00,1.40
8918.00,1.40
8917.00,1.40
8916.00,1.40
8915.00,1.40
8914.00,1.40
8913.00,1.39
8912.00,1.39
8911.00,1.39
8910.00,1.39
8909.00,1.39
8908.00,1.39
8907.00,1.39
8906.00,1.39
8905.00,1.39
8904.00,1.39
8903.00,1.39
8902.00,1.39
8901.00,1.39
8900.00,1.39
8899.00,1.39
8898.00,1.39
8897.00,1.38
8896.00,1.38
8895.00,1.38
8894.00,1.38
8893.00,1.38
8892.00,1.38
8891.00,1.38
8890.00,1.38
8889.00,1.38
8888.00,1.38
8887.00,1.38
8886.00,1.38
8885.00,1.38
8884.00,1.38
8883.00,1.38
8882.00,1.38
8881.00,1.38
8880.00,1.38
8879.00,1.38
8878.00,1.38
8877.00,1.38
8876.00,1.38
8875.00,1.38
8874.00,1.38
8873.00,1.39
8872.00,1.39
8871.00,1.39
8870.00,1.39
8869.00,1.39
8868.00,1.39
8867.00,1.39
8866.00,1.39
8865.00,1.39
8864.00,1.39
8863.00,1.39
8862.00,1.39
8861.00,1.39
8860.00,1.39
8859.00,1.39
8858.00,1.39
8857.00,1.39
8856.00,1.39
8855.00,1.39
8854.00,1.39
8853.00,1.39
8852.00,1.39
8851.00,1.39
8850.00,1.39
8849.00,1.39
8848.00,1.39
8847.00,1.39
8846.00,1.39
8845.00,1.39
8844.00,1.39
8843.00,1.39
8842.00,1.39
8841.00,1.39
8840.00,1.39
8839.00,1.39
8838.00,1.39
8837.00,1.40
8836.00,1.40
8835.00,1.40
8834.00,1.40
8833.00,1.40
8832.00,1.39
8831.00,1.39
8830.00,1.39
8829.00,1.39
8828.00,1.39
8827.00,1.39
8826.00,1.39
8825.00,1.39
8824.00,1.39
8823.00,1.39
8822.00,1.38
8821.00,1.38
8820.00,1.38
8819.00,1.38
8818.00,1.38
8817.00,1.38
8816.00,1.37
8815.00,1.37
8814.00,1.37
8813.00,1.37
8812.00,1.37
8811.00,1.37
8810.00,1.37
8809.00,1.36
8808.00,1.36
8807.00,1.36
8806.00,1.36
8805.00,1.36
8804.00,1.36
8803.00,1.36
8802.00,1.36
8801.00,1.36
8800.00,1.36
8799.00,1.36
8798.00,1.36
8797.00,1.36
8796.00,1.36
8795.00,1.36
8794.00,1.37
8793.00,1.37
8792.00,1.37
8791.00,1.36
8790.00,1.36
8789.00,1.36
8788.00,1.36
8787.00,1.36
8786.00,1.36
8785.00,1.36
8784.00,1.36
8783.00,1.36
8782.00,1.36
8781.00,1.36
8780.00,1.35
8779.00,1.35
8778.00,1.35
8777.00,1.35
8776.00,1.35
8775.00,1.35
8774.00,1.35
8773.00,1.35
8772.00,1.35
8771.00,1.35
8770.00,1.35
8769.00,1.35
8768.00,1.36
8767.00,1.36
8766.00,1.36
8765.00,1.36
8764.00,1.36
8763.00,1.36
8762.00,1.36
8761.00,1.36
8760.00,1.36
8759.00,1.36
8758.00,1.35
8757.00,1.35
8756.00,1.35
8755.00,1.35
8754.00,1.35
8753.00,1.35
8752.00,1.35
8751.00,1.35
8750.00,1.35
8749.00,1.35
8748.00,1.35
8747.00,1.35
8746.00,1.35
8745.00,1.35
8744.00,1.35
8743.00,1.35
8742.00,1.35
8741.00,1.35
8740.00,1.35
8739.00,1.35
8738.00,1.35
8737.00,1.34
8736.00,1.34
8735.00,1.34
8734.00,1.34
8733.00,1.34
8732.00,1.34
8731.00,1.34
8730.00,1.34
8729.00,1.35
8728.00,1.35
8727.00,1.35
8726.00,1.35
8725.00,1.35
8724.00,1.35
8723.00,1.35
8722.00,1.35
8721.00,1.35
8720.00,1.35
8719.00,1.35
8718.00,1.35
8717.00,1.35
8716.00,1.36
8715.00,1.36
8714.00,1.36
8713.00,1.36
8712.00,1.36
8711.00,1.36
8710.00,1.36
8709.00,1.36
8708.00,1.36
8707.00,1.36
8706.00,1.36
8705.00,1.36
8704.00,1.36
8703.00,1.36
8702.00,1.36
8701.00,1.36
8700.00,1.36
8699.00,1.36
8698.00,1.36
8697.00,1.36
8696.00,1.36
8695.00,1.36
8694.00,1.36
8693.00,1.35
8692.00,1.35
8691.00,1.35
8690.00,1.35
8689.00,1.35
8688.00,1.35
8687.00,1.35
8686.00,1.35
8685.00,1.35
8684.00,1.35
8683.00,1.35
8682.00,1.35
8681.00,1.35
8680.00,1.35
8679.00,1.35
8678.00,1.35
8677.00,1.35
8676.00,1.35
8675.00,1.34
8674.00,1.34
8673.00,1.34
8672.00,1.34
8671.00,1.34
8670.00,1.34
8669.00,1.35
8668.00,1.35
8667.00,1.35
8666.00,1.35
8665.00,1.35
8664.00,1.35
8663.00,1.35
8662.00,1.35
8661.00,1.35
8660.00,1.35
8659.00,1.35
8658.00,1.35
8657.00,1.35
8656.00,1.35
8655.00,1.35
8654.00,1.35
8653.00,1.35
8652.00,1.35
8651.00,1.36
8650.00,1.36
8649.00,1.36
8648.00,1.36
8647.00,1.36
8646.00,1.36
8645.00,1.36
8644.00,1.36
8643.00,1.36
8642.00,1.36
8641.00,1.36
8640.00,1.36
8639.00,1.36
8638.00,1.36
8637.00,1.36
8636.00,1.36
8635.00,1.36
8634.00,1.36
8633.00,1.36
8632.00,1.36
8631.00,1.36
8630.00,1.36
8629.00,1.35
8628.00,1.35
8627.00,1.35
8626.00,1.35
8625.00,1.35
8624.00,1.35
8623.00,1.35
8622.00,1.34
8621.00,1.34
8620.00,1.34
8619.00,1.34
8618.00,1.34
8617.00,1.34
8616.00,1.34
8615.00,1.33
8614.00,1.33
8613.00,1.33
8612.00,1.33
8611.00,1.33
8610.00,1.33
8609.00,1.33
8608.00,1.33
8607.00,1.33
8606.00,1.33
8605.00,1.33
8604.00,1.33
8603.00,1.33
8602.00,1.33
8601.00,1.33
8600.00,1.33
8599.00,1.33
8598.00,1.33
8597.00,1.33
8596.00,1.33
8595.00,1.33
8594.00,1.33
8593.00,1.33
8592.00,1.33
8591.00,1.33
8590.00,1.33
8589.00,1.33
8588.00,1.33
8587.00,1.33
8586.00,1.33
8585.00,1.33
8584.00,1.33
8583.00,1.33
8582.00,1.33
8581.00,1.33
8580.00,1.34
8579.00,1.34
8578.00,1.34
8577.00,1.34
8576.00,1.34
8575.00,1.34
8574.00,1.34
8573.00,1.34
8572.00,1.34
8571.00,1.34
8570.00,1.34
8569.00,1.34
8568.00,1.34
8567.00,1.34
8566.00,1.34
8565.00,1.34
8564.00,1.34
8563.00,1.34
8562.00,1.34
8561.00,1.34
8560.00,1.34
8559.00,1.33
8558.00,1.33
8557.00,1.33
8556.00,1.33
8555.00,1.33
8554.00,1.32
8553.00,1.32
8552.00,1.32
8551.00,1.32
8550.00,1.32
8549.00,1.32
8548.00,1.31
8547.00,1.31
8546.00,1.31
8545.00,1.31
8544.00,1.31
8543.00,1.31
8542.00,1.31
8541.00,1.31
8540.00,1.30
8539.00,1.30
8538.00,1.30
8537.00,1.30
8536.00,1.30
8535.00,1.30
8534.00,1.30
8533.00,1.30
8532.00,1.31
8531.00,1.31
8530.00,1.31
8529.00,1.31
8528.00,1.31
8527.00,1.31
8526.00,1.31
8525.00,1.31
8524.00,1.31
8523.00,1.32
8522.00,1.32
8521.00,1.32
8520.00,1.32
8519.00,1.32
8518.00,1.32
8517.00,1.32
8516.00,1.32
8515.00,1.32
8514.00,1.32
8513.00,1.32
8512.00,1.31
8511.00,1.31
8510.00,1.31
8509.00,1.31
8508.00,1.31
8507.00,1.31
8506.00,1.31
8505.00,1.31
8504.00,1.30
8503.00,1.30
8502.00,1.30
8501.00,1.30
8500.00,1.30
8499.00,1.30
8498.00,1.30
8497.00,1.30
8496.00,1.30
8495.00,1.30
8494.00,1.30
8493.00,1.31
8492.00,1.31
8491.00,1.31
8490.00,1.31
8489.00,1.31
8488.00,1.31
8487.00,1.31
8486.00,1.31
8485.00,1.31
8484.00,1.31
8483.00,1.30
8482.00,1.30
8481.00,1.30
8480.00,1.30
8479.00,1.30
8478.00,1.30
8477.00,1.30
8476.00,1.29
8475.00,1.29
8474.00,1.29
8473.00,1.29
8472.00,1.29
8471.00,1.29
8470.00,1.28
8469.00,1.28
8468.00,1.28
8467.00,1.28
8466.00,1.28
8465.00,1.28
8464.00,1.28
8463.00,1.28
8462.00,1.28
8461.00,1.28
8460.00,1.28
8459.00,1.28
8458.00,1.28
8457.00,1.29
8456.00,1.29
8455.00,1.29
8454.00,1.29
8453.00,1.29
8452.00,1.29
8451.00,1.29
8450.00,1.29
8449.00,1.29
8448.00,1.29
8447.00,1.29
8446.00,1.29
8445.00,1.29
8444.00,1.29
8443.00,1.29
8442.00,1.29
8441.00,1.29
8440.00,1.29
8439.00,1.29
8438.00,1.29
8437.00,1.29
8436.00,1.29
8435.00,1.29
8434.00,1.29
8433.00,1.29
8432.00,1.29
8431.00,1.29
8430.00,1.29
8429.00,1.29
8428.00,1.29
8427.00,1.29
8426.00,1.29
8425.00,1.30
8424.00,1.30
8423.00,1.30
8422.00,1.30
8421.00,1.30
8420.00,1.30
8419.00,1.30
8418.00,1.30
8417.00,1.30
8416.00,1.30
8415.00,1.30
8414.00,1.30
8413.00,1.30
8412.00,1.30
8411.00,1.30
8410.00,1.30
8409.00,1.30
8408.00,1.30
8407.00,1.30
8406.00,1.30
8405.00,1.30
8404.00,1.30
8403.00,1.30
8402.00,1.30
8401.00,1.30
8400.00,1.30
8399.00,1.30
8398.00,1.30
8397.00,1.30
8396.00,1.30
8395.00,1.30
8394.00,1.30
8393.00,1.30
8392.00,1.30
8391.00,1.30
8390.00,1.30
8389.00,1.30
8388.00,1.30
8387.00,1.30
8386.00,1.30
8385.00,1.30
8384.00,1.30
8383.00,1.30
8382.00,1.30
8381.00,1.30
8380.00,1.30
8379.00,1.31
8378.00,1.31
8377.00,1.31
8376.00,1.31
8375.00,1.31
8374.00,1.31
8373.00,1.31
8372.00,1.32
8371.00,1.32
8370.00,1.32
8369.00,1.32
8368.00,1.32
8367.00,1.32
8366.00,1.32
8365.00,1.32
8364.00,1.32
8363.00,1.32
8362.00,1.32
8361.00,1.32
8360.00,1.32
8359.00,1.32
8358.00,1.32
8357.00,1.32
8356.00,1.32
8355.00,1.32
8354.00,1.32
8353.00,1.32
8352.00,1.32
8351.00,1.32
8350.00,1.32
8349.00,1.32
8348.00,1.32
8347.00,1.32
8346.00,1.32
8345.00,1.32
8344.00,1.32
8343.00,1.32
8342.00,1.31
8341.00,1.31
8340.00,1.31
8339.00,1.31
8338.00,1.31
8337.00,1.31
8336.00,1.31
8335.00,1.31
8334.00,1.31
8333.00,1.31
8332.00,1.31
8331.00,1.31
8330.00,1.31
8329.00,1.31
8328.00,1.31
8327.00,1.31
8326.00,1.31
8325.00,1.31
8324.00,1.31
8323.00,1.31
8322.00,1.31
8321.00,1.31
8320.00,1.31
8319.00,1.32
8318.00,1.32
8317.00,1.32
8316.00,1.32
8315.00,1.32
8314.00,1.32
8313.00,1.32
8312.00,1.32
8311.00,1.32
8310.00,1.32
8309.00,1.32
8308.00,1.33
8307.00,1.33
8306.00,1.33
8305.00,1.33
8304.00,1.33
8303.00,1.33
8302.00,1.33
8301.00,1.33
8300.00,1.33
8299.00,1.33
8298.00,1.33
8297.00,1.33
8296.00,1.32
8295.00,1.32
8294.00,1.32
8293.00,1.32
8292.00,1.32
8291.00,1.32
8290.00,1.32
8289.00,1.32
8288.00,1.32
8287.00,1.32
8286.00,1.32
8285.00,1.32
8284.00,1.32
8283.00,1.32
8282.00,1.32
8281.00,1.32
8280.00,1.32
8279.00,1.32
8278.00,1.32
8277.00,1.32
8276.00,1.32
8275.00,1.32
8274.00,1.32
8273.00,1.32
8272.00,1.32
8271.00,1.32
8270.00,1.32
8269.00,1.32
8268.00,1.32
8267.00,1.32
8266.00,1.32
8265.00,1.32
8264.00,1.32
8263.00,1.32
8262.00,1.32
8261.00,1.32
8260.00,1.32
8259.00,1.32
8258.00,1.32
8257.00,1.32
8256.00,1.32
8255.00,1.32
8254.00,1.32
8253.00,1.32
8252.00,1.32
8251.00,1.32
8250.00,1.32
8249.00,1.32
8248.00,1.32
8247.00,1.32
8246.00,1.32
8245.00,1.32
8244.00,1.32
8243.00,1.32
8242.00,1.32
8241.00,1.32
8240.00,1.32
8239.00,1.32
8238.00,1.32
8237.00,1.32
8236.00,1.32
8235.00,1.32
8234.00,1.32
8233.00,1.32
8232.00,1.33
8231.00,1.33
8230.00,1.33
8229.00,1.33
8228.00,1.33
8227.00,1.33
8226.00,1.33
8225.00,1.33
8224.00,1.33
8223.00,1.33
8222.00,1.33
8221.00,1.33
8220.00,1.33
8219.00,1.34
8218.00,1.34
8217.00,1.34
8216.00,1.34
8215.00,1.34
8214.00,1.34
8213.00,1.34
8212.00,1.34
8211.00,1.34
8210.00,1.34
8209.00,1.34
8208.00,1.34
8207.00,1.34
8206.00,1.34
8205.00,1.34
8204.00,1.34
8203.00,1.34
8202.00,1.34
8201.00,1.34
8200.00,1.34
8199.00,1.34
8198.00,1.34
8197.00,1.34
8196.00,1.34
8195.00,1.34
8194.00,1.34
8193.00,1.34
8192.00,1.34
8191.00,1.34
8190.00,1.34
8189.00,1.34
8188.00,1.34
8187.00,1.34
8186.00,1.34
8185.00,1.34
8184.00,1.34
8183.00,1.34
8182.00,1.34
8181.00,1.34
8180.00,1.34
8179.00,1.34
8178.00,1.34
8177.00,1.34
8176.00,1.34
8175.00,1.34
8174.00,1.34
8173.00,1.34
8172.00,1.34
8171.00,1.34
8170.00,1.34
8169.00,1.34
8168.00,1.34
8167.00,1.34
8166.00,1.34
8165.00,1.34
8164.00,1.34
8163.00,1.34
8162.00,1.34
8161.00,1.34
8160.00,1.34
8159.00,1.34
8158.00,1.34
8157.00,1.34
8156.00,1.34
8155.00,1.34
8154.00,1.34
8153.00,1.34
8152.00,1.34
8151.00,1.34
8150.00,1.34
8149.00,1.34
8148.00,1.34
8147.00,1.34
8146.00,1.34
8145.00,1.34
8144.00,1.34
8143.00,1.34
8142.00,1.34
8141.00,1.34
8140.00,1.34
8139.00,1.34
8138.00,1.34
8137.00,1.34
8136.00,1.34
8135.00,1.34
8134.00,1.34
8133.00,1.34
8132.00,1.34
8131.00,1.34
8130.00,1.35
8129.00,1.35
8128.00,1.35
8127.00,1.35
8126.00,1.35
8125.00,1.35
8124.00,1.35
8123.00,1.35
8122.00,1.35
8121.00,1.35
8120.00,1.35
8119.00,1.35
8118.00,1.35
8117.00,1.35
8116.00,1.35
8115.00,1.35
8114.00,1.35
8113.00,1.35
8112.00,1.35
8111.00,1.35
8110.00,1.35
8109.00,1.35
8108.00,1.36
8107.00,1.36
8106.00,1.36
8105.00,1.36
8104.00,1.36
8103.00,1.36
8102.00,1.36
8101.00,1.36
8100.00,1.36
8099.00,1.36
8098.00,1.36
8097.00,1.36
8096.00,1.36
8095.00,1.36
8094.00,1.36
8093.00,1.36
8092.00,1.36
8091.00,1.36
8090.00,1.36
8089.00,1.36
8088.00,1.36
8087.00,1.36
8086.00,1.36
8085.00,1.36
8084.00,1.36
8083.00,1.36
8082.00,1.36
8081.00,1.36
8080.00,1.36
8079.00,1.37
8078.00,1.37
8077.00,1.37
8076.00,1.37
8075.00,1.37
8074.00,1.37
8073.00,1.37
8072.00,1.37
8071.00,1.37
8070.00,1.37
8069.00,1.37
8068.00,1.37
8067.00,1.37
8066.00,1.37
8065.00,1.37
8064.00,1.37
8063.00,1.37
8062.00,1.37
8061.00,1.37
8060.00,1.37
8059.00,1.37
8058.00,1.37
8057.00,1.37
8056.00,1.37
8055.00,1.37
8054.00,1.37
8053.00,1.37
8052.00,1.37
8051.00,1.37
8050.00,1.37
8049.00,1.37
8048.00,1.37
8047.00,1.37
8046.00,1.37
8045.00,1.37
8044.00,1.37
8043.00,1.37
8042.00,1.38
8041.00,1.38
8040.00,1.38
8039.00,1.38
8038.00,1.38
8037.00,1.38
8036.00,1.38
8035.00,1.38
8034.00,1.38
8033.00,1.38
8032.00,1.38
8031.00,1.38
8030.00,1.38
8029.00,1.37
8028.00,1.37
8027.00,1.37
8026.00,1.37
8025.00,1.37
8024.00,1.37
8023.00,1.37
8022.00,1.37
8021.00,1.37
8020.00,1.37
8019.00,1.37
8018.00,1.37
8017.00,1.37
8016.00,1.37
8015.00,1.37
8014.00,1.37
8013.00,1.37
8012.00,1.37
8011.00,1.37
8010.00,1.37
8009.00,1.37
8008.00,1.37
8007.00,1.37
8006.00,1.37
8005.00,1.37
8004.00,1.37
8003.00,1.37
8002.00,1.37
8001.00,1.37
8000.00,1.37
7999.00,1.37
7998.00,1.38
7997.00,1.38
7996.00,1.38
7995.00,1.38
7994.00,1.38
7993.00,1.38
7992.00,1.38
7991.00,1.38
7990.00,1.38
7989.00,1.38
7988.00,1.38
7987.00,1.38
7986.00,1.38
7985.00,1.38
7984.00,1.38
7983.00,1.38
7982.00,1.38
7981.00,1.38
7980.00,1.38
7979.00,1.38
7978.00,1.38
7977.00,1.38
7976.00,1.38
7975.00,1.38
7974.00,1.38
7973.00,1.38
7972.00,1.38
7971.00,1.38
7970.00,1.38
7969.00,1.38
7968.00,1.38
7967.00,1.38
7966.00,1.37
7965.00,1.37
7964.00,1.37
7963.00,1.37
7962.00,1.37
7961.00,1.37
7960.00,1.38
7959.00,1.38
7958.00,1.38
7957.00,1.38
7956.00,1.38
7955.00,1.38
7954.00,1.38
7953.00,1.38
7952.00,1.38
7951.00,1.38
7950.00,1.38
7949.00,1.38
7948.00,1.38
7947.00,1.38
7946.00,1.38
7945.00,1.38
7944.00,1.38
7943.00,1.38
7942.00,1.38
7941.00,1.38
7940.00,1.38
7939.00,1.39
7938.00,1.39
7937.00,1.39
7936.00,1.39
7935.00,1.39
7934.00,1.39
7933.00,1.39
7932.00,1.39
7931.00,1.39
7930.00,1.39
7929.00,1.39
7928.00,1.39
7927.00,1.39
7926.00,1.39
7925.00,1.39
7924.00,1.39
7923.00,1.39
7922.00,1.39
7921.00,1.39
7920.00,1.39
7919.00,1.39
7918.00,1.39
7917.00,1.39
7916.00,1.39
7915.00,1.39
7914.00,1.39
7913.00,1.39
7912.00,1.39
7911.00,1.38
7910.00,1.38
7909.00,1.38
7908.00,1.38
7907.00,1.38
7906.00,1.38
7905.00,1.38
7904.00,1.38
7903.00,1.38
7902.00,1.38
7901.00,1.38
7900.00,1.38
7899.00,1.38
7898.00,1.38
7897.00,1.38
7896.00,1.38
7895.00,1.38
7894.00,1.38
7893.00,1.38
7892.00,1.38
7891.00,1.38
7890.00,1.38
7889.00,1.38
7888.00,1.38
7887.00,1.38
7886.00,1.38
7885.00,1.38
7884.00,1.38
7883.00,1.38
7882.00,1.38
7881.00,1.38
7880.00,1.39
7879.00,1.39
7878.00,1.39
7877.00,1.39
7876.00,1.39
7875.00,1.39
7874.00,1.39
7873.00,1.39
7872.00,1.39
7871.00,1.39
7870.00,1.39
7869.00,1.39
7868.00,1.39
7867.00,1.39
7866.00,1.39
7865.00,1.39
7864.00,1.39
7863.00,1.39
7862.00,1.39
7861.00,1.39
7860.00,1.39
7859.00,1.39
7858.00,1.39
7857.00,1.39
7856.00,1.39
7855.00,1.39
7854.00,1.39
7853.00,1.39
7852.00,1.39
7851.00,1.39
7850.00,1.39
7849.00,1.39
7848.00,1.39
7847.00,1.39
7846.00,1.39
7845.00,1.39
7844.00,1.39
7843.00,1.39
7842.00,1.39
7841.00,1.39
7840.00,1.39
7839.00,1.39
7838.00,1.39
7837.00,1.39
7836.00,1.39
7835.00,1.39
7834.00,1.39
7833.00,1.39
7832.00,1.39
7831.00,1.39
7830.00,1.39
7829.00,1.38
7828.00,1.38
7827.00,1.38
7826.00,1.38
7825.00,1.38
7824.00,1.38
7823.00,1.38
7822.00,1.38
7821.00,1.38
7820.00,1.38
7819.00,1.38
7818.00,1.38
7817.00,1.38
7816.00,1.38
7815.00,1.38
7814.00,1.38
7813.00,1.38
7812.00,1.39
7811.00,1.39
7810.00,1.39
7809.00,1.39
7808.00,1.39
7807.00,1.39
7806.00,1.39
7805.00,1.39
7804.00,1.39
7803.00,1.39
7802.00,1.39
7801.00,1.39
7800.00,1.39
7799.00,1.39
7798.00,1.39
7797.00,1.39
7796.00,1.39
7795.00,1.39
7794.00,1.39
7793.00,1.39
7792.00,1.39
7791.00,1.39
7790.00,1.39
7789.00,1.39
7788.00,1.39
7787.00,1.39
7786.00,1.39
7785.00,1.39
7784.00,1.39
7783.00,1.39
7782.00,1.39
7781.00,1.39
7780.00,1.39
7779.00,1.39
7778.00,1.39
7777.00,1.40
7776.00,1.40
7775.00,1.40
7774.00,1.40
7773.00,1.40
7772.00,1.40
7771.00,1.40
7770.00,1.40
7769.00,1.40
7768.00,1.40
7767.00,1.40
7766.00,1.40
7765.00,1.40
7764.00,1.40
7763.00,1.40
7762.00,1.40
7761.00,1.40
7760.00,1.40
7759.00,1.40
7758.00,1.40
7757.00,1.40
7756.00,1.40
7755.00,1.40
7754.00,1.40
7753.00,1.40
7752.00,1.40
7751.00,1.40
7750.00,1.39
7749.00,1.39
7748.00,1.39
7747.00,1.39
7746.00,1.39
7745.00,1.39
7744.00,1.39
7743.00,1.39
7742.00,1.39
7741.00,1.39
7740.00,1.39
7739.00,1.39
7738.00,1.39
7737.00,1.39
7736.00,1.39
7735.00,1.38
7734.00,1.39
7733.00,1.39
7732.00,1.39
7731.00,1.39
7730.00,1.39
7729.00,1.39
7728.00,1.39
7727.00,1.39
7726.00,1.39
7725.00,1.39
7724.00,1.40
7723.00,1.40
7722.00,1.40
7721.00,1.40
7720.00,1.40
7719.00,1.40
7718.00,1.40
7717.00,1.40
7716.00,1.41
7715.00,1.41
7714.00,1.41
7713.00,1.41
7712.00,1.41
7711.00,1.41
7710.00,1.41
7709.00,1.41
7708.00,1.41
7707.00,1.41
7706.00,1.41
7705.00,1.41
7704.00,1.41
7703.00,1.40
7702.00,1.40
7701.00,1.40
7700.00,1.40
7699.00,1.40
7698.00,1.40
7697.00,1.40
7696.00,1.40
7695.00,1.40
7694.00,1.40
7693.00,1.40
7692.00,1.40
7691.00,1.40
7690.00,1.40
7689.00,1.40
7688.00,1.40
7687.00,1.40
7686.00,1.40
7685.00,1.40
7684.00,1.40
7683.00,1.40
7682.00,1.40
7681.00,1.40
7680.00,1.40
7679.00,1.40
7678.00,1.40
7677.00,1.40
7676.00,1.40
7675.00,1.40
7674.00,1.40
7673.00,1.40
7672.00,1.40
7671.00,1.40
7670.00,1.40
7669.00,1.40
7668.00,1.40
7667.00,1.40
7666.00,1.40
7665.00,1.40
7664.00,1.40
7663.00,1.40
7662.00,1.40
7661.00,1.40
7660.00,1.40
7659.00,1.41
7658.00,1.41
7657.00,1.41
7656.00,1.41
7655.00,1.41
7654.00,1.41
7653.00,1.41
7652.00,1.41
7651.00,1.41
7650.00,1.41
7649.00,1.41
7648.00,1.41
7647.00,1.41
7646.00,1.40
7645.00,1.40
7644.00,1.40
7643.00,1.40
7642.00,1.40
7641.00,1.40
7640.00,1.40
7639.00,1.40
7638.00,1.39
7637.00,1.39
7636.00,1.39
7635.00,1.39
7634.00,1.39
7633.00,1.39
7632.00,1.39
7631.00,1.39
7630.00,1.39
7629.00,1.39
7628.00,1.39
7627.00,1.39
7626.00,1.39
7625.00,1.39
7624.00,1.40
7623.00,1.40
7622.00,1.40
7621.00,1.40
7620.00,1.40
7619.00,1.40
7618.00,1.40
7617.00,1.40
7616.00,1.40
7615.00,1.40
7614.00,1.40
7613.00,1.40
7612.00,1.40
7611.00,1.40
7610.00,1.40
7609.00,1.40
7608.00,1.40
7607.00,1.40
7606.00,1.40
7605.00,1.40
7604.00,1.40
7603.00,1.40
7602.00,1.40
7601.00,1.40
7600.00,1.40
7599.00,1.40
7598.00,1.40
7597.00,1.40
7596.00,1.40
7595.00,1.40
7594.00,1.40
7593.00,1.40
7592.00,1.40
7591.00,1.40
7590.00,1.40
7589.00,1.40
7588.00,1.40
7587.00,1.40
7586.00,1.40
7585.00,1.40
7584.00,1.40
7583.00,1.40
7582.00,1.40
7581.00,1.40
7580.00,1.40
7579.00,1.40
7578.00,1.40
7577.00,1.40
7576.00,1.40
7575.00,1.40
7574.00,1.40
7573.00,1.40
7572.00,1.40
7571.00,1.40
7570.00,1.40
7569.00,1.40
7568.00,1.40
7567.00,1.40
7566.00,1.40
7565.00,1.40
7564.00,1.40
7563.00,1.40
7562.00,1.40
7561.00,1.39
7560.00,1.39
7559.00,1.39
7558.00,1.39
7557.00,1.39
7556.00,1.39
7555.00,1.39
7554.00,1.39
7553.00,1.39
7552.00,1.39
7551.00,1.39
7550.00,1.39
7549.00,1.39
7548.00,1.39
7547.00,1.39
7546.00,1.39
7545.00,1.39
7544.00,1.39
7543.00,1.39
7542.00,1.39
7541.00,1.39
7540.00,1.39
7539.00,1.39
7538.00,1.39
7537.00,1.39
7536.00,1.39
7535.00,1.39
7534.00,1.39
7533.00,1.39
7532.00,1.39
7531.00,1.39
7530.00,1.39
7529.00,1.39
7528.00,1.39
7527.00,1.39
7526.00,1.39
7525.00,1.39
7524.00,1.39
7523.00,1.39
7522.00,1.39
7521.00,1.39
7520.00,1.39
7519.00,1.39
7518.00,1.39
7517.00,1.39
7516.00,1.39
7515.00,1.39
7514.00,1.39
7513.00,1.39
7512.00,1.39
7511.00,1.39
7510.00,1.39
7509.00,1.39
7508.00,1.39
7507.00,1.39
7506.00,1.39
7505.00,1.39
7504.00,1.39
7503.00,1.39
7502.00,1.39
7501.00,1.39
7500.00,1.39
7499.00,1.39
7498.00,1.38
7497.00,1.38
7496.00,1.38
7495.00,1.38
7494.00,1.38
7493.00,1.38
7492.00,1.38
7491.00,1.37
7490.00,1.37
7489.00,1.37
7488.00,1.37
7487.00,1.37
7486.00,1.37
7485.00,1.37
7484.00,1.37
7483.00,1.37
7482.00,1.37
7481.00,1.37
7480.00,1.37
7479.00,1.37
7478.00,1.37
7477.00,1.37
7476.00,1.38
7475.00,1.38
7474.00,1.38
7473.00,1.38
7472.00,1.38
7471.00,1.38
7470.00,1.38
7469.00,1.38
7468.00,1.38
7467.00,1.38
7466.00,1.38
7465.00,1.38
7464.00,1.38
7463.00,1.38
7462.00,1.38
7461.00,1.38
7460.00,1.38
7459.00,1.38
7458.00,1.38
7457.00,1.38
7456.00,1.38
7455.00,1.37
7454.00,1.37
7453.00,1.37
7452.00,1.37
7451.00,1.37
7450.00,1.37
7449.00,1.37
7448.00,1.37
7447.00,1.37
7446.00,1.37
7445.00,1.37
7444.00,1.36
7443.00,1.36
7442.00,1.36
7441.00,1.36
7440.00,1.36
7439.00,1.36
7438.00,1.36
7437.00,1.36
7436.00,1.36
7435.00,1.36
7434.00,1.36
7433.00,1.36
7432.00,1.36
7431.00,1.36
7430.00,1.36
7429.00,1.36
7428.00,1.36
7427.00,1.36
7426.00,1.35
7425.00,1.35
7424.00,1.35
7423.00,1.35
7422.00,1.35
7421.00,1.35
7420.00,1.35
7419.00,1.35
7418.00,1.35
7417.00,1.35
7416.00,1.35
7415.00,1.35
7414.00,1.35
7413.00,1.35
7412.00,1.35
7411.00,1.35
7410.00,1.35
7409.00,1.35
7408.00,1.35
7407.00,1.35
7406.00,1.35
7405.00,1.35
7404.00,1.35
7403.00,1.35
7402.00,1.35
7401.00,1.35
7400.00,1.35
7399.00,1.34
7398.00,1.34
7397.00,1.34
7396.00,1.34
7395.00,1.34
7394.00,1.34
7393.00,1.34
7392.00,1.34
7391.00,1.34
7390.00,1.34
7389.00,1.34
7388.00,1.34
7387.00,1.34
7386.00,1.34
7385.00,1.34
7384.00,1.34
7383.00,1.34
7382.00,1.33
7381.00,1.33
7380.00,1.33
7379.00,1.33
7378.00,1.33
7377.00,1.33
7376.00,1.33
7375.00,1.33
7374.00,1.33
7373.00,1.32
7372.00,1.32
7371.00,1.32
7370.00,1.32
7369.00,1.32
7368.00,1.32
7367.00,1.32
7366.00,1.32
7365.00,1.32
7364.00,1.32
7363.00,1.32
7362.00,1.32
7361.00,1.32
7360.00,1.32
7359.00,1.32
7358.00,1.31
7357.00,1.31
7356.00,1.31
7355.00,1.31
7354.00,1.31
7353.00,1.31
7352.00,1.31
7351.00,1.31
7350.00,1.31
7349.00,1.31
7348.00,1.31
7347.00,1.31
7346.00,1.31
7345.00,1.31
7344.00,1.31
7343.00,1.31
7342.00,1.31
7341.00,1.31
7340.00,1.31
7339.00,1.31
7338.00,1.31
7337.00,1.31
7336.00,1.31
7335.00,1.31
7334.00,1.31
7333.00,1.31
7332.00,1.31
7331.00,1.31
7330.00,1.31
7329.00,1.31
7328.00,1.31
7327.00,1.31
7326.00,1.31
7325.00,1.31
7324.00,1.31
7323.00,1.31
7322.00,1.31
7321.00,1.31
7320.00,1.31
7319.00,1.31
7318.00,1.31
7317.00,1.31
7316.00,1.31
7315.00,1.31
7314.00,1.31
7313.00,1.31
7312.00,1.31
7311.00,1.31
7310.00,1.31
7309.00,1.31
7308.00,1.31
7307.00,1.31
7306.00,1.31
7305.00,1.30
7304.00,1.30
7303.00,1.30
7302.00,1.30
7301.00,1.30
7300.00,1.30
7299.00,1.30
7298.00,1.30
7297.00,1.30
7296.00,1.30
7295.00,1.30
7294.00,1.29
7293.00,1.29
7292.00,1.29
7291.00,1.29
7290.00,1.29
7289.00,1.29
7288.00,1.29
7287.00,1.29
7286.00,1.29
7285.00,1.29
7284.00,1.29
7283.00,1.29
7282.00,1.29
7281.00,1.29
7280.00,1.28
7279.00,1.28
7278.00,1.28
7277.00,1.28
7276.00,1.28
7275.00,1.28
7274.00,1.28
7273.00,1.28
7272.00,1.28
7271.00,1.28
7270.00,1.28
7269.00,1.28
7268.00,1.28
7267.00,1.28
7266.00,1.28
7265.00,1.28
7264.00,1.27
7263.00,1.27
7262.00,1.27
7261.00,1.27
7260.00,1.27
7259.00,1.27
7258.00,1.27
7257.00,1.27
7256.00,1.27
7255.00,1.27
7254.00,1.27
7253.00,1.27
7252.00,1.26
7251.00,1.26
7250.00,1.26
7249.00,1.26
7248.00,1.26
7247.00,1.26
7246.00,1.26
7245.00,1.26
7244.00,1.26
7243.00,1.25
7242.00,1.25
7241.00,1.25
7240.00,1.25
7239.00,1.25
7238.00,1.24
7237.00,1.24
7236.00,1.24
7235.00,1.24
7234.00,1.23
7233.00,1.23
7232.00,1.23
7231.00,1.22
7230.00,1.22
7229.00,1.22
7228.00,1.21
7227.00,1.21
7226.00,1.21
7225.00,1.21
7224.00,1.20
7223.00,1.20
7222.00,1.20
7221.00,1.19
7220.00,1.19
7219.00,1.19
7218.00,1.19
7217.00,1.18
7216.00,1.18
7215.00,1.18
7214.00,1.18
7213.00,1.17
7212.00,1.17
7211.00,1.17
7210.00,1.17
7209.00,1.17
7208.00,1.16
7207.00,1.16
7206.00,1.16
7205.00,1.16
7204.00,1.15
7203.00,1.15
7202.00,1.15
7201.00,1.15
7200.00,1.15
7199.00,1.14
7198.00,1.14
7197.00,1.14
7196.00,1.14
7195.00,1.14
7194.00,1.13
7193.00,1.13
7192.00,1.13
7191.00,1.13
7190.00,1.13
7189.00,1.12
7188.00,1.12
7187.00,1.12
7186.00,1.12
7185.00,1.11
7184.00,1.11
7183.00,1.11
7182.00,1.11
7181.00,1.10
7180.00,1.10
7179.00,1.10
7178.00,1.10
7177.00,1.09
7176.00,1.09
7175.00,1.09
7174.00,1.09
7173.00,1.08
7172.00,1.08
7171.00,1.08
7170.00,1.08
7169.00,1.07
7168.00,1.07
7167.00,1.07
7166.00,1.07
7165.00,1.06
7164.00,1.06
7163.00,1.06
7162.00,1.06
7161.00,1.05
7160.00,1.05
7159.00,1.05
7158.00,1.05
7157.00,1.05
7156.00,1.04
7155.00,1.04
7154.00,1.04
7153.00,1.04
7152.00,1.04
7151.00,1.04
7150.00,1.03
7149.00,1.03
7148.00,1.03
7147.00,1.03
7146.00,1.03
7145.00,1.02
7144.00,1.02
7143.00,1.02
7142.00,1.02
7141.00,1.01
7140.00,1.01
7139.00,1.01
7138.00,1.01
7137.00,1.01
7136.00,1.01
7135.00,1.00
7134.00,1.00
7133.00,1.00
7132.00,1.00
7131.00,1.00
7130.00,1.00
7129.00,0.99
7128.00,0.99
7127.00,0.99
7126.00,0.99
7125.00,0.98
7124.00,0.98
7123.00,0.98
7122.00,0.98
7121.00,0.98
7120.00,0.97
7119.00,0.97
7118.00,0.97
7117.00,0.97
7116.00,0.96
7115.00,0.96
7114.00,0.96
7113.00,0.96
7112.00,0.95
7111.00,0.95
7110.00,0.95
7109.00,0.95
7108.00,0.95
7107.00,0.95
7106.00,0.94
7105.00,0.94
7104.00,0.94
7103.00,0.94
7102.00,0.94
7101.00,0.93
7100.00,0.93
7099.00,0.93
7098.00,0.93
7097.00,0.93
7096.00,0.93
7095.00,0.93
7094.00,0.92
7093.00,0.92
7092.00,0.92
7091.00,0.92
7090.00,0.92
7089.00,0.92
7088.00,0.91
7087.00,0.91
7086.00,0.91
7085.00,0.91
7084.00,0.91
7083.00,0.90
7082.00,0.90
7081.00,0.90
7080.00,0.90
7079.00,0.90
7078.00,0.90
7077.00,0.89
7076.00,0.89
7075.00,0.89
7074.00,0.89
7073.00,0.89
7072.00,0.89
7071.00,0.88
7070.00,0.88
7069.00,0.88
7068.00,0.88
7067.00,0.88
7066.00,0.88
7065.00,0.88
7064.00,0.88
7063.00,0.87
7062.00,0.87
7061.00,0.87
7060.00,0.87
7059.00,0.87
7058.00,0.87
7057.00,0.87
7056.00,0.86
7055.00,0.86
7054.00,0.86
7053.00,0.86
7052.00,0.86
7051.00,0.86
7050.00,0.86
7049.00,0.85
7048.00,0.85
7047.00,0.85
7046.00,0.85
7045.00,0.85
7044.00,0.85
7043.00,0.84
7042.00,0.84
7041.00,0.84
7040.00,0.84
7039.00,0.84
7038.00,0.84
7037.00,0.84
7036.00,0.84
7035.00,0.84
7034.00,0.84
7033.00,0.83
7032.00,0.83
7031.00,0.83
7030.00,0.83
7029.00,0.83
7028.00,0.83
7027.00,0.83
7026.00,0.83
7025.00,0.83
7024.00,0.83
7023.00,0.83
7022.00,0.83
7021.00,0.83
7020.00,0.83
7019.00,0.83
7018.00,0.83
7017.00,0.83
7016.00,0.83
7015.00,0.83
7014.00,0.83
7013.00,0.83
7012.00,0.83
7011.00,0.83
7010.00,0.83
7009.00,0.83
7008.00,0.83
7007.00,0.83
7006.00,0.83
7005.00,0.83
7004.00,0.82
7003.00,0.82
7002.00,0.82
7001.00,0.82
7000.00,0.82
6999.00,0.82
6998.00,0.82
6997.00,0.82
6996.00,0.82
6995.00,0.82
6994.00,0.82
6993.00,0.82
6992.00,0.82
6991.00,0.82
6990.00,0.81
6989.00,0.81
6988.00,0.81
6987.00,0.81
6986.00,0.81
6985.00,0.81
6984.00,0.81
6983.00,0.81
6982.00,0.81
6981.00,0.81
6980.00,0.81
6979.00,0.81
6978.00,0.81
6977.00,0.81
6976.00,0.81
6975.00,0.81
6974.00,0.81
6973.00,0.81
6972.00,0.81
6971.00,0.80
6970.00,0.80
6969.00,0.80
6968.00,0.80
6967.00,0.80
6966.00,0.80
6965.00,0.80
6964.00,0.80
6963.00,0.80
6962.00,0.80
6961.00,0.80
6960.00,0.80
6959.00,0.80
6958.00,0.80
6957.00,0.80
6956.00,0.80
6955.00,0.80
6954.00,0.80
6953.00,0.80
6952.00,0.80
6951.00,0.80
6950.00,0.79
6949.00,0.79
6948.00,0.79
6947.00,0.79
6946.00,0.79
6945.00,0.79
6944.00,0.79
6943.00,0.79
6942.00,0.79
6941.00,0.79
6940.00,0.79
6939.00,0.78
6938.00,0.78
6937.00,0.78
6936.00,0.78
6935.00,0.78
6934.00,0.78
6933.00,0.78
6932.00,0.78
6931.00,0.78
6930.00,0.78
6929.00,0.78
6928.00,0.78
6927.00,0.78
6926.00,0.78
6925.00,0.78
6924.00,0.78
6923.00,0.78
6922.00,0.78
6921.00,0.78
6920.00,0.78
6919.00,0.78
6918.00,0.78
6917.00,0.78
6916.00,0.78
6915.00,0.78
6914.00,0.78
6913.00,0.78
6912.00,0.78
6911.00,0.78
6910.00,0.78
6909.00,0.78
6908.00,0.78
6907.00,0.78
6906.00,0.78
6905.00,0.78
6904.00,0.78
6903.00,0.78
6902.00,0.78
6901.00,0.78
6900.00,0.78
6899.00,0.78
6898.00,0.78
6897.00,0.78
6896.00,0.78
6895.00,0.78
6894.00,0.78
6893.00,0.78
6892.00,0.78
6891.00,0.78
6890.00,0.78
6889.00,0.78
6888.00,0.78
6887.00,0.78
6886.00,0.78
6885.00,0.78
6884.00,0.78
6883.00,0.78
6882.00,0.78
6881.00,0.78
6880.00,0.78
6879.00,0.78
6878.00,0.78
6877.00,0.78
6876.00,0.78
6875.00,0.78
6874.00,0.78
6873.00,0.78
6872.00,0.78
6871.00,0.78
6870.00,0.78
6869.00,0.78
6868.00,0.78
6867.00,0.78
6866.00,0.78
6865.00,0.78
6864.00,0.78
6863.00,0.78
6862.00,0.78
6861.00,0.78
6860.00,0.78
6859.00,0.78
6858.00,0.78
6857.00,0.78
6856.00,0.78
6855.00,0.78
6854.00,0.78
6853.00,0.78
6852.00,0.78
6851.00,0.78
6850.00,0.78
6849.00,0.78
6848.00,0.78
6847.00,0.78
6846.00,0.78
6845.00,0.78
6844.00,0.78
6843.00,0.78
6842.00,0.78
6841.00,0.78
6840.00,0.78
6839.00,0.78
6838.00,0.78
6837.00,0.78
6836.00,0.78
6835.00,0.78
6834.00,0.78
6833.00,0.78
6832.00,0.78
6831.00,0.78
6830.00,0.78
6829.00,0.78
6828.00,0.78
6827.00,0.78
6826.00,0.78
6825.00,0.78
6824.00,0.78
6823.00,0.78
6822.00,0.78
6821.00,0.78
6820.00,0.78
6819.00,0.78
6818.00,0.78
6817.00,0.78
6816.00,0.79
6815.00,0.79
6814.00,0.79
6813.00,0.79
6812.00,0.79
6811.00,0.79
6810.00,0.79
6809.00,0.79
6808.00,0.79
6807.00,0.79
6806.00,0.79
6805.00,0.79
6804.00,0.79
6803.00,0.79
6802.00,0.79
6801.00,0.79
6800.00,0.79
6799.00,0.79
6798.00,0.79
6797.00,0.79
6796.00,0.79
6795.00,0.79
6794.00,0.80
6793.00,0.80
6792.00,0.80
6791.00,0.80
6790.00,0.80
6789.00,0.80
6788.00,0.80
6787.00,0.80
6786.00,0.80
6785.00,0.80
6784.00,0.80
6783.00,0.80
6782.00,0.80
6781.00,0.80
6780.00,0.80
6779.00,0.80
6778.00,0.80
6777.00,0.80
6776.00,0.80
6775.00,0.80
6774.00,0.80
6773.00,0.80
6772.00,0.80
6771.00,0.80
6770.00,0.80
6769.00,0.80
6768.00,0.81
6767.00,0.81
6766.00,0.81
6765.00,0.81
6764.00,0.81
6763.00,0.81
6762.00,0.81
6761.00,0.81
6760.00,0.81
6759.00,0.81
6758.00,0.81
6757.00,0.81
6756.00,0.81
6755.00,0.82
6754.00,0.82
6753.00,0.82
6752.00,0.82
6751.00,0.82
6750.00,0.82
6749.00,0.82
6748.00,0.82
6747.00,0.82
6746.00,0.82
6745.00,0.82
6744.00,0.82
6743.00,0.82
6742.00,0.82
6741.00,0.82
6740.00,0.82
6739.00,0.82
6738.00,0.82
6737.00,0.82
6736.00,0.82
6735.00,0.82
6734.00,0.83
6733.00,0.83
6732.00,0.83
6731.00,0.83
6730.00,0.83
6729.00,0.83
6728.00,0.83
6727.00,0.83
6726.00,0.83
6725.00,0.83
6724.00,0.83
6723.00,0.83
6722.00,0.83
6721.00,0.84
6720.00,0.84
6719.00,0.84
6718.00,0.84
6717.00,0.84
6716.00,0.84
6715.00,0.84
6714.00,0.84
6713.00,0.84
6712.00,0.84
6711.00,0.84
6710.00,0.84
6709.00,0.84
6708.00,0.85
6707.00,0.85
6706.00,0.85
6705.00,0.85
6704.00,0.85
6703.00,0.85
6702.00,0.85
6701.00,0.85
6700.00,0.85
6699.00,0.85
6698.00,0.85
6697.00,0.85
6696.00,0.86
6695.00,0.86
6694.00,0.86
6693.00,0.86
6692.00,0.86
6691.00,0.86
6690.00,0.86
6689.00,0.86
6688.00,0.86
6687.00,0.86
6686.00,0.86
6685.00,0.86
6684.00,0.86
6683.00,0.87
6682.00,0.87
6681.00,0.87
6680.00,0.87
6679.00,0.87
6678.00,0.87
6677.00,0.87
6676.00,0.87
6675.00,0.87
6674.00,0.87
6673.00,0.87
6672.00,0.88
6671.00,0.88
6670.00,0.88
6669.00,0.88
6668.00,0.88
6667.00,0.88
6666.00,0.88
6665.00,0.88
6664.00,0.88
6663.00,0.89
6662.00,0.89
6661.00,0.89
6660.00,0.89
6659.00,0.89
6658.00,0.89
6657.00,0.89
6656.00,0.90
6655.00,0.90
6654.00,0.90
6653.00,0.90
6652.00,0.90
6651.00,0.90
6650.00,0.90
6649.00,0.90
6648.00,0.91
6647.00,0.91
6646.00,0.91
6645.00,0.91
6644.00,0.91
6643.00,0.91
6642.00,0.91
6641.00,0.91
6640.00,0.91
6639.00,0.91
6638.00,0.91
6637.00,0.92
6636.00,0.92
6635.00,0.92
6634.00,0.92
6633.00,0.92
6632.00,0.92
6631.00,0.92
6630.00,0.92
6629.00,0.92
6628.00,0.92
6627.00,0.92
6626.00,0.92
6625.00,0.92
6624.00,0.92
6623.00,0.92
6622.00,0.92
6621.00,0.93
6620.00,0.93
6619.00,0.93
6618.00,0.93
6617.00,0.93
6616.00,0.93
6615.00,0.93
6614.00,0.93
6613.00,0.93
6612.00,0.93
6611.00,0.93
6610.00,0.93
6609.00,0.93
6608.00,0.93
6607.00,0.93
6606.00,0.93
6605.00,0.93
6604.00,0.94
6603.00,0.94
6602.00,0.94
6601.00,0.94
6600.00,0.94
6599.00,0.94
6598.00,0.94
6597.00,0.94
6596.00,0.94
6595.00,0.95
6594.00,0.95
6593.00,0.95
6592.00,0.95
6591.00,0.95
6590.00,0.95
6589.00,0.95
6588.00,0.95
6587.00,0.95
6586.00,0.95
6585.00,0.95
6584.00,0.96
6583.00,0.96
6582.00,0.96
6581.00,0.96
6580.00,0.96
6579.00,0.96
6578.00,0.96
6577.00,0.96
6576.00,0.96
6575.00,0.96
6574.00,0.96
6573.00,0.96
6572.00,0.96
6571.00,0.97
6570.00,0.97
6569.00,0.97
6568.00,0.97
6567.00,0.97
6566.00,0.97
6565.00,0.97
6564.00,0.97
6563.00,0.97
6562.00,0.97
6561.00,0.98
6560.00,0.98
6559.00,0.98
6558.00,0.98
6557.00,0.98
6556.00,0.98
6555.00,0.98
6554.00,0.98
6553.00,0.98
6552.00,0.98
6551.00,0.98
6550.00,0.98
6549.00,0.98
6548.00,0.98
6547.00,0.98
6546.00,0.98
6545.00,0.98
6544.00,0.98
6543.00,0.98
6542.00,0.99
6541.00,0.99
6540.00,0.99
6539.00,0.99
6538.00,0.99
6537.00,0.99
6536.00,0.99
6535.00,0.99
6534.00,0.99
6533.00,0.99
6532.00,0.99
6531.00,0.99
6530.00,0.99
6529.00,0.99
6528.00,1.00
6527.00,1.00
6526.00,1.00
6525.00,1.00
6524.00,1.00
6523.00,1.00
6522.00,1.00
6521.00,1.00
6520.00,1.00
6519.00,1.00
6518.00,1.00
6517.00,1.00
6516.00,1.00
6515.00,1.00
6514.00,1.01
6513.00,1.01
6512.00,1.01
6511.00,1.01
6510.00,1.01
6509.00,1.01
6508.00,1.01
6507.00,1.01
6506.00,1.01
6505.00,1.01
6504.00,1.01
6503.00,1.01
6502.00,1.01
6501.00,1.01
6500.00,1.01
6499.00,1.01
6498.00,1.02
6497.00,1.02
6496.00,1.02
6495.00,1.02
6494.00,1.02
6493.00,1.02
6492.00,1.02
6491.00,1.02
6490.00,1.02
6489.00,1.02
6488.00,1.02
6487.00,1.02
6486.00,1.02
6485.00,1.02
6484.00,1.02
6483.00,1.02
6482.00,1.02
6481.00,1.02
6480.00,1.02
6479.00,1.02
6478.00,1.02
6477.00,1.02
6476.00,1.02
6475.00,1.03
6474.00,1.03
6473.00,1.03
6472.00,1.03
6471.00,1.03
6470.00,1.03
6469.00,1.03
6468.00,1.03
6467.00,1.03
6466.00,1.03
6465.00,1.03
6464.00,1.03
6463.00,1.03
6462.00,1.03
6461.00,1.03
6460.00,1.04
6459.00,1.04
6458.00,1.04
6457.00,1.04
6456.00,1.04
6455.00,1.04
6454.00,1.04
6453.00,1.04
6452.00,1.04
6451.00,1.04
6450.00,1.04
6449.00,1.04
6448.00,1.04
6447.00,1.04
6446.00,1.04
6445.00,1.04
6444.00,1.04
6443.00,1.04
6442.00,1.04
6441.00,1.04
6440.00,1.04
6439.00,1.04
6438.00,1.04
6437.00,1.05
6436.00,1.05
6435.00,1.05
6434.00,1.05
6433.00,1.05
6432.00,1.05
6431.00,1.05
6430.00,1.05
6429.00,1.05
6428.00,1.05
6427.00,1.05
6426.00,1.05
6425.00,1.05
6424.00,1.05
6423.00,1.05
6422.00,1.05
6421.00,1.05
6420.00,1.05
6419.00,1.05
6418.00,1.05
6417.00,1.06
6416.00,1.06
6415.00,1.06
6414.00,1.06
6413.00,1.06
6412.00,1.06
6411.00,1.06
6410.00,1.06
6409.00,1.06
6408.00,1.06
6407.00,1.06
6406.00,1.06
6405.00,1.06
6404.00,1.06
6403.00,1.06
6402.00,1.06
6401.00,1.06
6400.00,1.06
6399.00,1.06
6398.00,1.07
6397.00,1.07
6396.00,1.07
6395.00,1.07
6394.00,1.07
6393.00,1.07
6392.00,1.07
6391.00,1.07
6390.00,1.07
6389.00,1.07
6388.00,1.07
6387.00,1.07
6386.00,1.07
6385.00,1.07
6384.00,1.07
6383.00,1.07
6382.00,1.07
6381.00,1.07
6380.00,1.07
6379.00,1.07
6378.00,1.08
6377.00,1.08
6376.00,1.08
6375.00,1.08
6374.00,1.08
6373.00,1.08
6372.00,1.08
6371.00,1.08
6370.00,1.08
6369.00,1.08
6368.00,1.08
6367.00,1.08
6366.00,1.08
6365.00,1.08
6364.00,1.08
6363.00,1.09
6362.00,1.09
6361.00,1.09
6360.00,1.09
6359.00,1.09
6358.00,1.09
6357.00,1.09
6356.00,1.09
6355.00,1.09
6354.00,1.09
6353.00,1.09
6352.00,1.09
6351.00,1.09
6350.00,1.09
6349.00,1.09
6348.00,1.09
6347.00,1.09
6346.00,1.09
6345.00,1.09
6344.00,1.09
6343.00,1.09
6342.00,1.09
6341.00,1.09
6340.00,1.10
6339.00,1.10
6338.00,1.10
6337.00,1.10
6336.00,1.10
6335.00,1.10
6334.00,1.10
6333.00,1.10
6332.00,1.10
6331.00,1.10
6330.00,1.10
6329.00,1.10
6328.00,1.10
6327.00,1.10
6326.00,1.10
6325.00,1.11
6324.00,1.11
6323.00,1.11
6322.00,1.11
6321.00,1.11
6320.00,1.11
6319.00,1.11
6318.00,1.11
6317.00,1.11
6316.00,1.11
6315.00,1.11
6314.00,1.11
6313.00,1.12
6312.00,1.12
6311.00,1.12
6310.00,1.12
6309.00,1.12
6308.00,1.12
6307.00,1.12
6306.00,1.12
6305.00,1.12
6304.00,1.12
6303.00,1.12
6302.00,1.12
6301.00,1.12
6300.00,1.12
6299.00,1.13
6298.00,1.13
6297.00,1.13
6296.00,1.13
6295.00,1.13
6294.00,1.13
6293.00,1.13
6292.00,1.14
6291.00,1.14
6290.00,1.14
6289.00,1.14
6288.00,1.14
6287.00,1.14
6286.00,1.14
6285.00,1.14
6284.00,1.14
6283.00,1.14
6282.00,1.15
6281.00,1.15
6280.00,1.15
6279.00,1.15
6278.00,1.15
6277.00,1.15
6276.00,1.15
6275.00,1.15
6274.00,1.15
6273.00,1.15
6272.00,1.15
6271.00,1.15
6270.00,1.15
6269.00,1.15
6268.00,1.15
6267.00,1.15
6266.00,1.15
6265.00,1.15
6264.00,1.15
6263.00,1.15
6262.00,1.16
6261.00,1.16
6260.00,1.16
6259.00,1.16
6258.00,1.16
6257.00,1.16
6256.00,1.16
6255.00,1.16
6254.00,1.16
6253.00,1.16
6252.00,1.16
6251.00,1.16
6250.00,1.16
6249.00,1.17
6248.00,1.17
6247.00,1.17
6246.00,1.17
6245.00,1.17
6244.00,1.17
6243.00,1.17
6242.00,1.17
6241.00,1.17
6240.00,1.18
6239.00,1.18
6238.00,1.18
6237.00,1.18
6236.00,1.18
6235.00,1.18
6234.00,1.18
6233.00,1.19
6232.00,1.19
6231.00,1.19
6230.00,1.19
6229.00,1.19
6228.00,1.19
6227.00,1.19
6226.00,1.19
6225.00,1.19
6224.00,1.19
6223.00,1.19
6222.00,1.20
6221.00,1.20
6220.00,1.20
6219.00,1.20
6218.00,1.20
6217.00,1.20
6216.00,1.20
6215.00,1.20
6214.00,1.20
6213.00,1.20
6212.00,1.20
6211.00,1.21
6210.00,1.21
6209.00,1.21
6208.00,1.21
6207.00,1.21
6206.00,1.21
6205.00,1.21
6204.00,1.22
6203.00,1.22
6202.00,1.22
6201.00,1.22
6200.00,1.22
6199.00,1.22
6198.00,1.22
6197.00,1.22
6196.00,1.22
6195.00,1.22
6194.00,1.22
6193.00,1.22
6192.00,1.23
6191.00,1.23
6190.00,1.23
6189.00,1.23
6188.00,1.23
6187.00,1.23
6186.00,1.23
6185.00,1.23
6184.00,1.23
6183.00,1.23
6182.00,1.23
6181.00,1.24
6180.00,1.24
6179.00,1.24
6178.00,1.24
6177.00,1.24
6176.00,1.24
6175.00,1.24
6174.00,1.24
6173.00,1.24
6172.00,1.24
6171.00,1.24
6170.00,1.24
6169.00,1.24
6168.00,1.24
6167.00,1.24
6166.00,1.24
6165.00,1.25
6164.00,1.25
6163.00,1.25
6162.00,1.25
6161.00,1.25
6160.00,1.25
6159.00,1.25
6158.00,1.25
6157.00,1.25
6156.00,1.26
6155.00,1.26
6154.00,1.26
6153.00,1.26
6152.00,1.26
6151.00,1.26
6150.00,1.26
6149.00,1.26
6148.00,1.26
6147.00,1.27
6146.00,1.27
6145.00,1.27
6144.00,1.27
6143.00,1.27
6142.00,1.27
6141.00,1.27
6140.00,1.27
6139.00,1.27
6138.00,1.27
6137.00,1.27
6136.00,1.27
6135.00,1.28
6134.00,1.28
6133.00,1.28
6132.00,1.28
6131.00,1.28
6130.00,1.28
6129.00,1.28
6128.00,1.28
6127.00,1.28
6126.00,1.29
6125.00,1.29
6124.00,1.29
6123.00,1.29
6122.00,1.29
6121.00,1.29
6120.00,1.29
6119.00,1.29
6118.00,1.30
6117.00,1.30
6116.00,1.30
6115.00,1.30
6114.00,1.30
6113.00,1.30
6112.00,1.30
6111.00,1.30
6110.00,1.31
6109.00,1.31
6108.00,1.31
6107.00,1.31
6106.00,1.31
6105.00,1.31
6104.00,1.31
6103.00,1.31
6102.00,1.31
6101.00,1.31
6100.00,1.32
6099.00,1.32
6098.00,1.32
6097.00,1.32
6096.00,1.32
6095.00,1.32
6094.00,1.32
6093.00,1.32
6092.00,1.32
6091.00,1.32
6090.00,1.32
6089.00,1.32
6088.00,1.32
6087.00,1.32
6086.00,1.32
6085.00,1.33
6084.00,1.33
6083.00,1.33
6082.00,1.33
6081.00,1.33
6080.00,1.33
6079.00,1.33
6078.00,1.33
6077.00,1.33
6076.00,1.33
6075.00,1.33
6074.00,1.33
6073.00,1.33
6072.00,1.34
6071.00,1.34
6070.00,1.34
6069.00,1.34
6068.00,1.34
6067.00,1.34
6066.00,1.34
6065.00,1.34
6064.00,1.34
6063.00,1.34
6062.00,1.34
6061.00,1.34
6060.00,1.34
6059.00,1.34
6058.00,1.34
6057.00,1.35
6056.00,1.35
6055.00,1.35
6054.00,1.35
6053.00,1.35
6052.00,1.35
6051.00,1.35
6050.00,1.35
6049.00,1.35
6048.00,1.35
6047.00,1.35
6046.00,1.35
6045.00,1.35
6044.00,1.35
6043.00,1.35
6042.00,1.35
6041.00,1.35
6040.00,1.35
6039.00,1.36
6038.00,1.36
6037.00,1.36
6036.00,1.36
6035.00,1.36
6034.00,1.36
6033.00,1.36
6032.00,1.36
6031.00,1.36
6030.00,1.36
6029.00,1.36
6028.00,1.36
6027.00,1.36
6026.00,1.36
6025.00,1.36
6024.00,1.36
6023.00,1.36
6022.00,1.36
6021.00,1.36
6020.00,1.36
6019.00,1.36
6018.00,1.36
6017.00,1.36
6016.00,1.36
6015.00,1.36
6014.00,1.36
6013.00,1.36
6012.00,1.36
6011.00,1.36
6010.00,1.36
6009.00,1.36
6008.00,1.36
6007.00,1.36
6006.00,1.36
6005.00,1.36
6004.00,1.36
6003.00,1.36
6002.00,1.36
6001.00,1.36
6000.00,1.36
5999.00,1.36
5998.00,1.36
5997.00,1.36
5996.00,1.36
5995.00,1.35
5994.00,1.35
5993.00,1.35
5992.00,1.35
5991.00,1.35
5990.00,1.35
5989.00,1.35
5988.00,1.35
5987.00,1.34
5986.00,1.34
5985.00,1.34
5984.00,1.34
5983.00,1.33
5982.00,1.33
5981.00,1.33
5980.00,1.33
5979.00,1.33
5978.00,1.32
5977.00,1.32
5976.00,1.32
5975.00,1.31
5974.00,1.31
5973.00,1.31
5972.00,1.30
5971.00,1.30
5970.00,1.30
5969.00,1.29
5968.00,1.29
5967.00,1.29
5966.00,1.28
5965.00,1.28
5964.00,1.27
5963.00,1.27
5962.00,1.26
5961.00,1.26
5960.00,1.25
5959.00,1.25
5958.00,1.24
5957.00,1.24
5956.00,1.23
5955.00,1.23
5954.00,1.22
5953.00,1.22
5952.00,1.21
5951.00,1.21
5950.00,1.21
5949.00,1.20
5948.00,1.20
5947.00,1.20
5946.00,1.19
5945.00,1.19
5944.00,1.19
5943.00,1.19
5942.00,1.18
5941.00,1.18
5940.00,1.18
5939.00,1.18
5938.00,1.18
5937.00,1.18
5936.00,1.18
5935.00,1.18
5934.00,1.18
5933.00,1.18
5932.00,1.17
5931.00,1.17
5930.00,1.17
5929.00,1.17
5928.00,1.17
5927.00,1.17
5926.00,1.17
5925.00,1.17
5924.00,1.17
5923.00,1.16
5922.00,1.16
5921.00,1.16
5920.00,1.16
5919.00,1.16
5918.00,1.16
5917.00,1.15
5916.00,1.15
5915.00,1.15
5914.00,1.15
5913.00,1.15
5912.00,1.14
5911.00,1.14
5910.00,1.14
5909.00,1.14
5908.00,1.14
5907.00,1.14
5906.00,1.14
5905.00,1.14
5904.00,1.14
5903.00,1.14
5902.00,1.14
5901.00,1.14
5900.00,1.14
5899.00,1.14
5898.00,1.14
5897.00,1.14
5896.00,1.14
5895.00,1.14
5894.00,1.14
5893.00,1.14
5892.00,1.15
5891.00,1.15
5890.00,1.15
5889.00,1.15
5888.00,1.15
5887.00,1.16
5886.00,1.16
5885.00,1.16
5884.00,1.16
5883.00,1.17
5882.00,1.17
5881.00,1.17
5880.00,1.17
5879.00,1.17
5878.00,1.18
5877.00,1.18
5876.00,1.18
5875.00,1.18
5874.00,1.19
5873.00,1.19
5872.00,1.19
5871.00,1.19
5870.00,1.19
5869.00,1.19
5868.00,1.20
5867.00,1.20
5866.00,1.20
5865.00,1.20
5864.00,1.20
5863.00,1.20
5862.00,1.20
5861.00,1.20
5860.00,1.21
5859.00,1.21
5858.00,1.21
5857.00,1.21
5856.00,1.21
5855.00,1.21
5854.00,1.21
5853.00,1.21
5852.00,1.21
5851.00,1.21
5850.00,1.21
5849.00,1.21
5848.00,1.21
5847.00,1.21
5846.00,1.21
5845.00,1.21
5844.00,1.21
5843.00,1.21
5842.00,1.21
5841.00,1.21
5840.00,1.21
5839.00,1.21
5838.00,1.21
5837.00,1.21
5836.00,1.21
5835.00,1.21
5834.00,1.21
5833.00,1.21
5832.00,1.21
5831.00,1.21
5830.00,1.21
5829.00,1.21
5828.00,1.21
5827.00,1.21
5826.00,1.21
5825.00,1.21
5824.00,1.21
5823.00,1.21
5822.00,1.21
5821.00,1.21
5820.00,1.21
5819.00,1.21
5818.00,1.21
5817.00,1.21
5816.00,1.21
5815.00,1.21
5814.00,1.21
5813.00,1.21
5812.00,1.21
5811.00,1.21
5810.00,1.21
5809.00,1.21
5808.00,1.21
5807.00,1.21
5806.00,1.21
5805.00,1.21
5804.00,1.21
5803.00,1.21
5802.00,1.21
5801.00,1.21
5800.00,1.21
5799.00,1.21
5798.00,1.21
5797.00,1.21
5796.00,1.21
5795.00,1.20
5794.00,1.20
5793.00,1.20
5792.00,1.20
5791.00,1.20
5790.00,1.20
5789.00,1.19
5788.00,1.19
5787.00,1.19
5786.00,1.19
5785.00,1.19
5784.00,1.18
5783.00,1.18
5782.00,1.18
5781.00,1.18
5780.00,1.18
5779.00,1.17
5778.00,1.17
5777.00,1.17
5776.00,1.17
5775.00,1.17
5774.00,1.17
5773.00,1.17
5772.00,1.17
5771.00,1.17
5770.00,1.17
5769.00,1.17
5768.00,1.17
5767.00,1.17
5766.00,1.17
5765.00,1.17
5764.00,1.18
5763.00,1.18
5762.00,1.18
5761.00,1.18
5760.00,1.19
5759.00,1.19
5758.00,1.19
5757.00,1.19
5756.00,1.20
5755.00,1.20
5754.00,1.20
5753.00,1.20
5752.00,1.21
5751.00,1.21
5750.00,1.21
5749.00,1.21
5748.00,1.22
5747.00,1.22
5746.00,1.22
5745.00,1.22
5744.00,1.23
5743.00,1.23
5742.00,1.23
5741.00,1.23
5740.00,1.23
5739.00,1.24
5738.00,1.24
5737.00,1.24
5736.00,1.24
5735.00,1.24
5734.00,1.24
5733.00,1.24
5732.00,1.25
5731.00,1.25
5730.00,1.25
5729.00,1.25
5728.00,1.25
5727.00,1.25
5726.00,1.25
5725.00,1.25
5724.00,1.25
5723.00,1.25
5722.00,1.25
5721.00,1.25
5720.00,1.25
5719.00,1.25
5718.00,1.25
5717.00,1.25
5716.00,1.25
5715.00,1.25
5714.00,1.25
5713.00,1.25
5712.00,1.25
5711.00,1.25
5710.00,1.25
5709.00,1.25
5708.00,1.25
5707.00,1.25
5706.00,1.25
5705.00,1.25
5704.00,1.25
5703.00,1.25
5702.00,1.25
5701.00,1.24
5700.00,1.24
5699.00,1.24
5698.00,1.24
5697.00,1.24
5696.00,1.24
5695.00,1.24
5694.00,1.24
5693.00,1.24
5692.00,1.23
5691.00,1.23
5690.00,1.23
5689.00,1.23
5688.00,1.23
5687.00,1.23
5686.00,1.23
5685.00,1.23
5684.00,1.23
5683.00,1.23
5682.00,1.22
5681.00,1.22
5680.00,1.22
5679.00,1.22
5678.00,1.22
5677.00,1.22
5676.00,1.22
5675.00,1.22
5674.00,1.22
5673.00,1.22
5672.00,1.22
5671.00,1.22
5670.00,1.22
5669.00,1.22
5668.00,1.22
5667.00,1.22
5666.00,1.22
5665.00,1.22
5664.00,1.23
5663.00,1.23
5662.00,1.23
5661.00,1.23
5660.00,1.23
5659.00,1.23
5658.00,1.23
5657.00,1.23
5656.00,1.23
5655.00,1.24
5654.00,1.24
5653.00,1.24
5652.00,1.24
5651.00,1.24
5650.00,1.24
5649.00,1.24
5648.00,1.24
5647.00,1.25
5646.00,1.25
5645.00,1.25
5644.00,1.25
5643.00,1.25
5642.00,1.25
5641.00,1.25
5640.00,1.26
5639.00,1.26
5638.00,1.26
5637.00,1.26
5636.00,1.26
5635.00,1.26
5634.00,1.26
5633.00,1.27
5632.00,1.27
5631.00,1.27
5630.00,1.27
5629.00,1.27
5628.00,1.27
5627.00,1.27
5626.00,1.27
5625.00,1.28
5624.00,1.28
5623.00,1.28
5622.00,1.28
5621.00,1.28
5620.00,1.28
5619.00,1.28
5618.00,1.28
5617.00,1.28
5616.00,1.28
5615.00,1.28
5614.00,1.29
5613.00,1.29
5612.00,1.29
5611.00,1.29
5610.00,1.29
5609.00,1.29
5608.00,1.29
5607.00,1.29
5606.00,1.29
5605.00,1.29
5604.00,1.29
5603.00,1.29
5602.00,1.29
5601.00,1.30
5600.00,1.30
5599.00,1.30
5598.00,1.30
5597.00,1.30
5596.00,1.30
5595.00,1.30
5594.00,1.30
5593.00,1.30
5592.00,1.31
5591.00,1.31
5590.00,1.31
5589.00,1.31
5588.00,1.31
5587.00,1.31
5586.00,1.31
5585.00,1.32
5584.00,1.32
5583.00,1.32
5582.00,1.32
5581.00,1.32
5580.00,1.32
5579.00,1.32
5578.00,1.32
5577.00,1.32
5576.00,1.32
5575.00,1.33
5574.00,1.33
5573.00,1.33
5572.00,1.33
5571.00,1.33
5570.00,1.33
5569.00,1.33
5568.00,1.33
5567.00,1.33
5566.00,1.34
5565.00,1.34
5564.00,1.34
5563.00,1.34
5562.00,1.34
5561.00,1.34
5560.00,1.34
5559.00,1.34
5558.00,1.34
5557.00,1.34
5556.00,1.35
5555.00,1.35
5554.00,1.35
5553.00,1.35
5552.00,1.35
5551.00,1.35
5550.00,1.35
5549.00,1.35
5548.00,1.35
5547.00,1.35
5546.00,1.36
5545.00,1.36
5544.00,1.36
5543.00,1.36
5542.00,1.36
5541.00,1.36
5540.00,1.36
5539.00,1.36
5538.00,1.36
5537.00,1.36
5536.00,1.36
5535.00,1.36
5534.00,1.36
5533.00,1.36
5532.00,1.36
5531.00,1.36
5530.00,1.37
5529.00,1.37
5528.00,1.37
5527.00,1.37
5526.00,1.37
5525.00,1.37
5524.00,1.37
5523.00,1.37
5522.00,1.37
5521.00,1.37
5520.00,1.37
5519.00,1.37
5518.00,1.37
5517.00,1.37
5516.00,1.37
5515.00,1.37
5514.00,1.37
5513.00,1.37
5512.00,1.37
5511.00,1.37
5510.00,1.37
5509.00,1.37
5508.00,1.37
5507.00,1.37
5506.00,1.37
5505.00,1.37
5504.00,1.37
5503.00,1.38
5502.00,1.38
5501.00,1.38
5500.00,1.38
5499.00,1.38
5498.00,1.38
5497.00,1.38
5496.00,1.38
5495.00,1.38
5494.00,1.38
5493.00,1.38
5492.00,1.38
5491.00,1.38
5490.00,1.38
5489.00,1.38
5488.00,1.38
5487.00,1.38
5486.00,1.39
5485.00,1.39
5484.00,1.39
5483.00,1.39
5482.00,1.39
5481.00,1.39
5480.00,1.39
5479.00,1.39
5478.00,1.39
5477.00,1.39
5476.00,1.39
5475.00,1.39
5474.00,1.39
5473.00,1.40
5472.00,1.40
5471.00,1.40
5470.00,1.40
5469.00,1.40
5468.00,1.40
5467.00,1.40
5466.00,1.40
5465.00,1.40
5464.00,1.40
5463.00,1.40
5462.00,1.40
5461.00,1.40
5460.00,1.40
5459.00,1.40
5458.00,1.40
5457.00,1.40
5456.00,1.40
5455.00,1.40
5454.00,1.41
5453.00,1.41
5452.00,1.41
5451.00,1.41
5450.00,1.41
5449.00,1.41
5448.00,1.41
5447.00,1.41
5446.00,1.41
5445.00,1.41
5444.00,1.41
5443.00,1.41
5442.00,1.41
5441.00,1.41
5440.00,1.41
5439.00,1.41
5438.00,1.41
5437.00,1.41
5436.00,1.41
5435.00,1.41
5434.00,1.41
5433.00,1.41
5432.00,1.41
5431.00,1.41
5430.00,1.41
5429.00,1.41
5428.00,1.41
5427.00,1.41
5426.00,1.41
5425.00,1.41
5424.00,1.41
5423.00,1.41
5422.00,1.41
5421.00,1.41
5420.00,1.41
5419.00,1.41
5418.00,1.41
5417.00,1.41
5416.00,1.41
5415.00,1.41
5414.00,1.41
5413.00,1.41
5412.00,1.41
5411.00,1.41
5410.00,1.41
5409.00,1.41
5408.00,1.41
5407.00,1.41
5406.00,1.41
5405.00,1.41
5404.00,1.41
5403.00,1.41
5402.00,1.41
5401.00,1.41
5400.00,1.41
5399.00,1.41
5398.00,1.41
5397.00,1.41
5396.00,1.41
5395.00,1.41
5394.00,1.40
5393.00,1.40
5392.00,1.40
5391.00,1.40
5390.00,1.40
5389.00,1.40
5388.00,1.40
5387.00,1.40
5386.00,1.40
5385.00,1.39
5384.00,1.39
5383.00,1.39
5382.00,1.39
5381.00,1.39
5380.00,1.38
5379.00,1.38
5378.00,1.38
5377.00,1.38
5376.00,1.38
5375.00,1.37
5374.00,1.37
5373.00,1.37
5372.00,1.36
5371.00,1.36
5370.00,1.36
5369.00,1.36
5368.00,1.35
5367.00,1.35
5366.00,1.34
5365.00,1.34
5364.00,1.34
5363.00,1.33
5362.00,1.33
5361.00,1.32
5360.00,1.32
5359.00,1.32
5358.00,1.31
5357.00,1.31
5356.00,1.30
5355.00,1.29
5354.00,1.29
5353.00,1.28
5352.00,1.28
5351.00,1.27
5350.00,1.26
5349.00,1.26
5348.00,1.25
5347.00,1.24
5346.00,1.23
5345.00,1.23
5344.00,1.22
5343.00,1.21
5342.00,1.20
5341.00,1.19
5340.00,1.18
5339.00,1.18
5338.00,1.17
5337.00,1.16
5336.00,1.15
5335.00,1.14
5334.00,1.13
5333.00,1.13
5332.00,1.12
5331.00,1.11
5330.00,1.10
5329.00,1.09
5328.00,1.08
5327.00,1.07
5326.00,1.06
5325.00,1.06
5324.00,1.05
5323.00,1.04
5322.00,1.03
5321.00,1.02
5320.00,1.01
5319.00,1.00
5318.00,0.99
5317.00,0.99
5316.00,0.98
5315.00,0.97
5314.00,0.96
5313.00,0.95
5312.00,0.94
5311.00,0.94
5310.00,0.93
5309.00,0.92
5308.00,0.91
5307.00,0.91
5306.00,0.90
5305.00,0.89
5304.00,0.89
5303.00,0.88
5302.00,0.87
5301.00,0.87
5300.00,0.86
5299.00,0.86
5298.00,0.85
5297.00,0.85
5296.00,0.84
5295.00,0.84
5294.00,0.83
5293.00,0.83
5292.00,0.82
5291.00,0.82
5290.00,0.82
5289.00,0.81
5288.00,0.81
5287.00,0.80
5286.00,0.80
5285.00,0.80
5284.00,0.80
5283.00,0.79
5282.00,0.79
5281.00,0.79
5280.00,0.79
5279.00,0.78
5278.00,0.78
5277.00,0.78
5276.00,0.78
5275.00,0.78
5274.00,0.78
5273.00,0.78
5272.00,0.78
5271.00,0.77
5270.00,0.77
5269.00,0.77
5268.00,0.77
5267.00,0.77
5266.00,0.77
5265.00,0.77
5264.00,0.77
5263.00,0.77
5262.00,0.77
5261.00,0.77
5260.00,0.77
5259.00,0.77
5258.00,0.77
5257.00,0.76
5256.00,0.76
5255.00,0.76
5254.00,0.76
5253.00,0.76
5252.00,0.76
5251.00,0.76
5250.00,0.76
5249.00,0.76
5248.00,0.76
5247.00,0.76
5246.00,0.76
5245.00,0.76
5244.00,0.76
5243.00,0.76
5242.00,0.75
5241.00,0.75
5240.00,0.75
5239.00,0.75
5238.00,0.75
5237.00,0.75
5236.00,0.75
5235.00,0.75
5234.00,0.75
5233.00,0.75
5232.00,0.75
5231.00,0.75
5230.00,0.75
5229.00,0.75
5228.00,0.75
5227.00,0.75
5226.00,0.75
5225.00,0.75
5224.00,0.75
5223.00,0.75
5222.00,0.75
5221.00,0.75
5220.00,0.76
5219.00,0.76
5218.00,0.76
5217.00,0.76
5216.00,0.76
5215.00,0.76
5214.00,0.76
5213.00,0.76
5212.00,0.76
5211.00,0.76
5210.00,0.76
5209.00,0.76
5208.00,0.76
5207.00,0.76
5206.00,0.76
5205.00,0.76
5204.00,0.76
5203.00,0.76
5202.00,0.76
5201.00,0.76
5200.00,0.76
5199.00,0.76
5198.00,0.76
5197.00,0.76
5196.00,0.76
5195.00,0.76
5194.00,0.76
5193.00,0.76
5192.00,0.76
5191.00,0.76
5190.00,0.76
5189.00,0.77
5188.00,0.77
5187.00,0.77
5186.00,0.77
5185.00,0.77
5184.00,0.77
5183.00,0.77
5182.00,0.77
5181.00,0.77
5180.00,0.77
5179.00,0.77
5178.00,0.77
5177.00,0.77
5176.00,0.77
5175.00,0.77
5174.00,0.77
5173.00,0.77
5172.00,0.77
5171.00,0.77
5170.00,0.77
5169.00,0.77
5168.00,0.77
5167.00,0.77
5166.00,0.78
5165.00,0.78
5164.00,0.78
5163.00,0.78
5162.00,0.78
5161.00,0.78
5160.00,0.78
5159.00,0.78
5158.00,0.78
5157.00,0.78
5156.00,0.78
5155.00,0.78
5154.00,0.78
5153.00,0.78
5152.00,0.78
5151.00,0.78
5150.00,0.78
5149.00,0.78
5148.00,0.78
5147.00,0.78
5146.00,0.78
5145.00,0.78
5144.00,0.78
5143.00,0.78
5142.00,0.78
5141.00,0.79
5140.00,0.79
5139.00,0.79
5138.00,0.79
5137.00,0.79
5136.00,0.79
5135.00,0.79
5134.00,0.79
5133.00,0.79
5132.00,0.79
5131.00,0.79
5130.00,0.79
5129.00,0.79
5128.00,0.79
5127.00,0.79
5126.00,0.79
5125.00,0.79
5124.00,0.79
5123.00,0.79
5122.00,0.79
5121.00,0.79
5120.00,0.80
5119.00,0.80
5118.00,0.80
5117.00,0.80
5116.00,0.80
5115.00,0.80
5114.00,0.80
5113.00,0.80
5112.00,0.80
5111.00,0.80
5110.00,0.80
5109.00,0.80
5108.00,0.80
5107.00,0.81
5106.00,0.81
5105.00,0.81
5104.00,0.81
5103.00,0.81
5102.00,0.81
5101.00,0.81
5100.00,0.81
5099.00,0.81
5098.00,0.81
5097.00,0.81
5096.00,0.81
5095.00,0.81
5094.00,0.81
5093.00,0.82
5092.00,0.82
5091.00,0.82
5090.00,0.82
5089.00,0.82
5088.00,0.82
5087.00,0.82
5086.00,0.82
5085.00,0.82
5084.00,0.82
5083.00,0.82
5082.00,0.82
5081.00,0.82
5080.00,0.82
5079.00,0.82
5078.00,0.82
5077.00,0.82
5076.00,0.82
5075.00,0.82
5074.00,0.82
5073.00,0.82
5072.00,0.82
5071.00,0.82
5070.00,0.82
5069.00,0.82
5068.00,0.83
5067.00,0.83
5066.00,0.83
5065.00,0.83
5064.00,0.83
5063.00,0.83
5062.00,0.83
5061.00,0.83
5060.00,0.83
5059.00,0.83
5058.00,0.84
5057.00,0.84
5056.00,0.84
5055.00,0.84
5054.00,0.84
5053.00,0.84
5052.00,0.84
5051.00,0.84
5050.00,0.84
5049.00,0.84
5048.00,0.84
5047.00,0.85
5046.00,0.85
5045.00,0.85
5044.00,0.85
5043.00,0.85
5042.00,0.85
5041.00,0.85
5040.00,0.85
5039.00,0.85
5038.00,0.86
5037.00,0.86
5036.00,0.86
5035.00,0.86
5034.00,0.86
5033.00,0.86
5032.00,0.86
5031.00,0.86
5030.00,0.86
5029.00,0.86
5028.00,0.86
5027.00,0.86
5026.00,0.86
5025.00,0.87
5024.00,0.87
5023.00,0.87
5022.00,0.87
5021.00,0.87
5020.00,0.87
5019.00,0.87
5018.00,0.87
5017.00,0.87
5016.00,0.87
5015.00,0.87
5014.00,0.87
5013.00,0.87
5012.00,0.87
5011.00,0.87
5010.00,0.88
5009.00,0.88
5008.00,0.88
5007.00,0.88
5006.00,0.88
5005.00,0.88
5004.00,0.88
5003.00,0.88
5002.00,0.89
5001.00,0.89
5000.00,0.89
4999.00,0.89
4998.00,0.89
4997.00,0.89
4996.00,0.89
4995.00,0.89
4994.00,0.90
4993.00,0.90
4992.00,0.90
4991.00,0.90
4990.00,0.90
4989.00,0.90
4988.00,0.90
4987.00,0.90
4986.00,0.90
4985.00,0.90
4984.00,0.91
4983.00,0.91
4982.00,0.91
4981.00,0.91
4980.00,0.91
4979.00,0.91
4978.00,0.91
4977.00,0.91
4976.00,0.91
4975.00,0.91
4974.00,0.91
4973.00,0.91
4972.00,0.92
4971.00,0.92
4970.00,0.92
4969.00,0.92
4968.00,0.92
4967.00,0.92
4966.00,0.92
4965.00,0.92
4964.00,0.93
4963.00,0.93
4962.00,0.93
4961.00,0.93
4960.00,0.93
4959.00,0.93
4958.00,0.93
4957.00,0.93
4956.00,0.93
4955.00,0.93
4954.00,0.93
4953.00,0.93
4952.00,0.94
4951.00,0.94
4950.00,0.94
4949.00,0.94
4948.00,0.94
4947.00,0.94
4946.00,0.94
4945.00,0.94
4944.00,0.94
4943.00,0.94
4942.00,0.94
4941.00,0.94
4940.00,0.94
4939.00,0.94
4938.00,0.95
4937.00,0.95
4936.00,0.95
4935.00,0.95
4934.00,0.95
4933.00,0.95
4932.00,0.95
4931.00,0.95
4930.00,0.96
4929.00,0.96
4928.00,0.96
4927.00,0.96
4926.00,0.96
4925.00,0.96
4924.00,0.96
4923.00,0.96
4922.00,0.96
4921.00,0.96
4920.00,0.96
4919.00,0.96
4918.00,0.96
4917.00,0.97
4916.00,0.97
4915.00,0.97
4914.00,0.97
4913.00,0.97
4912.00,0.97
4911.00,0.97
4910.00,0.97
4909.00,0.97
4908.00,0.97
4907.00,0.97
4906.00,0.97
4905.00,0.97
4904.00,0.97
4903.00,0.97
4902.00,0.97
4901.00,0.97
4900.00,0.97
4899.00,0.97
4898.00,0.97
4897.00,0.97
4896.00,0.97
4895.00,0.97
4894.00,0.98
4893.00,0.98
4892.00,0.98
4891.00,0.98
4890.00,0.98
4889.00,0.98
4888.00,0.98
4887.00,0.98
4886.00,0.98
4885.00,0.99
4884.00,0.99
4883.00,0.99
4882.00,0.99
4881.00,0.99
4880.00,0.99
4879.00,0.99
4878.00,0.99
4877.00,0.99
4876.00,0.99
4875.00,0.99
4874.00,0.99
4873.00,0.99
4872.00,1.00
4871.00,1.00
4870.00,1.00
4869.00,1.00
4868.00,1.00
4867.00,1.00
4866.00,1.00
4865.00,1.00
4864.00,1.00
4863.00,1.00
4862.00,1.00
4861.00,1.00
4860.00,1.00
4859.00,1.00
4858.00,1.00
4857.00,1.00
4856.00,1.01
4855.00,1.01
4854.00,1.01
4853.00,1.01
4852.00,1.01
4851.00,1.01
4850.00,1.01
4849.00,1.01
4848.00,1.01
4847.00,1.01
4846.00,1.01
4845.00,1.02
4844.00,1.02
4843.00,1.02
4842.00,1.02
4841.00,1.02
4840.00,1.02
4839.00,1.02
4838.00,1.02
4837.00,1.02
4836.00,1.02
4835.00,1.02
4834.00,1.02
4833.00,1.02
4832.00,1.02
4831.00,1.03
4830.00,1.03
4829.00,1.03
4828.00,1.03
4827.00,1.03
4826.00,1.03
4825.00,1.03
4824.00,1.03
4823.00,1.03
4822.00,1.03
4821.00,1.03
4820.00,1.03
4819.00,1.04
4818.00,1.04
4817.00,1.04
4816.00,1.04
4815.00,1.04
4814.00,1.04
4813.00,1.04
4812.00,1.04
4811.00,1.05
4810.00,1.05
4809.00,1.05
4808.00,1.05
4807.00,1.05
4806.00,1.05
4805.00,1.05
4804.00,1.05
4803.00,1.05
4802.00,1.06
4801.00,1.06
4800.00,1.06
4799.00,1.06
4798.00,1.06
4797.00,1.06
4796.00,1.06
4795.00,1.06
4794.00,1.06
4793.00,1.06
4792.00,1.06
4791.00,1.06
4790.00,1.06
4789.00,1.07
4788.00,1.07
4787.00,1.07
4786.00,1.07
4785.00,1.07
4784.00,1.07
4783.00,1.08
4782.00,1.08
4781.00,1.08
4780.00,1.08
4779.00,1.08
4778.00,1.09
4777.00,1.09
4776.00,1.09
4775.00,1.09
4774.00,1.09
4773.00,1.09
4772.00,1.09
4771.00,1.10
4770.00,1.10
4769.00,1.10
4768.00,1.10
4767.00,1.10
4766.00,1.10
4765.00,1.11
4764.00,1.11
4763.00,1.11
4762.00,1.11
4761.00,1.11
4760.00,1.11
4759.00,1.12
4758.00,1.12
4757.00,1.12
4756.00,1.12
4755.00,1.12
4754.00,1.12
4753.00,1.13
4752.00,1.13
4751.00,1.13
4750.00,1.13
4749.00,1.13
4748.00,1.14
4747.00,1.14
4746.00,1.14
4745.00,1.14
4744.00,1.14
4743.00,1.14
4742.00,1.15
4741.00,1.15
4740.00,1.15
4739.00,1.15
4738.00,1.15
4737.00,1.16
4736.00,1.16
4735.00,1.16
4734.00,1.16
4733.00,1.16
4732.00,1.17
4731.00,1.17
4730.00,1.17
4729.00,1.17
4728.00,1.17
4727.00,1.17
4726.00,1.18
4725.00,1.18
4724.00,1.18
4723.00,1.18
4722.00,1.18
4721.00,1.18
4720.00,1.19
4719.00,1.19
4718.00,1.19
4717.00,1.19
4716.00,1.19
4715.00,1.19
4714.00,1.19
4713.00,1.19
4712.00,1.20
4711.00,1.20
4710.00,1.20
4709.00,1.20
4708.00,1.20
4707.00,1.20
4706.00,1.20
4705.00,1.20
4704.00,1.20
4703.00,1.21
4702.00,1.21
4701.00,1.21
4700.00,1.21
4699.00,1.21
4698.00,1.21
4697.00,1.22
4696.00,1.22
4695.00,1.22
4694.00,1.22
4693.00,1.22
4692.00,1.22
4691.00,1.23
4690.00,1.23
4689.00,1.23
4688.00,1.23
4687.00,1.23
4686.00,1.23
4685.00,1.24
4684.00,1.24
4683.00,1.24
4682.00,1.24
4681.00,1.24
4680.00,1.24
4679.00,1.25
4678.00,1.25
4677.00,1.25
4676.00,1.25
4675.00,1.25
4674.00,1.25
4673.00,1.26
4672.00,1.26
4671.00,1.26
4670.00,1.26
4669.00,1.26
4668.00,1.26
4667.00,1.26
4666.00,1.27
4665.00,1.27
4664.00,1.27
4663.00,1.27
4662.00,1.27
4661.00,1.27
4660.00,1.28
4659.00,1.28
4658.00,1.28
4657.00,1.28
4656.00,1.28
4655.00,1.28
4654.00,1.29
4653.00,1.29
4652.00,1.29
4651.00,1.29
4650.00,1.29
4649.00,1.29
4648.00,1.29
4647.00,1.29
4646.00,1.30
4645.00,1.30
4644.00,1.30
4643.00,1.30
4642.00,1.30
4641.00,1.30
4640.00,1.30
4639.00,1.30
4638.00,1.31
4637.00,1.31
4636.00,1.31
4635.00,1.31
4634.00,1.31
4633.00,1.31
4632.00,1.31
4631.00,1.31
4630.00,1.31
4629.00,1.31
4628.00,1.31
4627.00,1.31
4626.00,1.31
4625.00,1.31
4624.00,1.32
4623.00,1.32
4622.00,1.32
4621.00,1.32
4620.00,1.32
4619.00,1.32
4618.00,1.32
4617.00,1.32
4616.00,1.32
4615.00,1.32
4614.00,1.33
4613.00,1.33
4612.00,1.33
4611.00,1.33
4610.00,1.33
4609.00,1.33
4608.00,1.34
4607.00,1.34
4606.00,1.34
4605.00,1.34
4604.00,1.34
4603.00,1.34
4602.00,1.34
4601.00,1.34
4600.00,1.35
4599.00,1.35
4598.00,1.35
4597.00,1.35
4596.00,1.35
4595.00,1.35
4594.00,1.35
4593.00,1.35
4592.00,1.35
4591.00,1.35
4590.00,1.35
4589.00,1.35
4588.00,1.35
4587.00,1.35
4586.00,1.35
4585.00,1.36
4584.00,1.36
4583.00,1.36
4582.00,1.36
4581.00,1.36
4580.00,1.36
4579.00,1.36
4578.00,1.37
4577.00,1.37
4576.00,1.37
4575.00,1.37
4574.00,1.37
4573.00,1.37
4572.00,1.38
4571.00,1.38
4570.00,1.38
4569.00,1.38
4568.00,1.38
4567.00,1.38
4566.00,1.38
4565.00,1.38
4564.00,1.38
4563.00,1.38
4562.00,1.38
4561.00,1.38
4560.00,1.38
4559.00,1.38
4558.00,1.38
4557.00,1.38
4556.00,1.38
4555.00,1.38
4554.00,1.38
4553.00,1.38
4552.00,1.38
4551.00,1.38
4550.00,1.38
4549.00,1.38
4548.00,1.39
4547.00,1.39
4546.00,1.39
4545.00,1.39
4544.00,1.39
4543.00,1.39
4542.00,1.39
4541.00,1.39
4540.00,1.39
4539.00,1.40
4538.00,1.40
4537.00,1.40
4536.00,1.40
4535.00,1.40
4534.00,1.40
4533.00,1.40
4532.00,1.40
4531.00,1.40
4530.00,1.40
4529.00,1.41
4528.00,1.41
4527.00,1.41
4526.00,1.41
4525.00,1.41
4524.00,1.41
4523.00,1.41
4522.00,1.41
4521.00,1.41
4520.00,1.41
4519.00,1.41
4518.00,1.41
4517.00,1.41
4516.00,1.41
4515.00,1.41
4514.00,1.41
4513.00,1.41
4512.00,1.41
4511.00,1.41
4510.00,1.41
4509.00,1.41
4508.00,1.41
4507.00,1.41
4506.00,1.41
4505.00,1.41
4504.00,1.41
4503.00,1.41
4502.00,1.41
4501.00,1.41
4500.00,1.41
4499.00,1.41
4498.00,1.41
4497.00,1.41
4496.00,1.41
4495.00,1.41
4494.00,1.40
4493.00,1.40
4492.00,1.40
4491.00,1.40
4490.00,1.40
4489.00,1.40
4488.00,1.40
4487.00,1.39
4486.00,1.39
4485.00,1.39
4484.00,1.39
4483.00,1.39
4482.00,1.38
4481.00,1.38
4480.00,1.38
4479.00,1.38
4478.00,1.38
4477.00,1.37
4476.00,1.37
4475.00,1.37
4474.00,1.37
4473.00,1.37
4472.00,1.36
4471.00,1.36
4470.00,1.36
4469.00,1.36
4468.00,1.36
4467.00,1.35
4466.00,1.35
4465.00,1.35
4464.00,1.35
4463.00,1.34
4462.00,1.34
4461.00,1.34
4460.00,1.33
4459.00,1.33
4458.00,1.33
4457.00,1.32
4456.00,1.32
4455.00,1.32
4454.00,1.31
4453.00,1.31
4452.00,1.30
4451.00,1.30
4450.00,1.29
4449.00,1.29
4448.00,1.28
4447.00,1.28
4446.00,1.27
4445.00,1.27
4444.00,1.26
4443.00,1.26
4442.00,1.25
4441.00,1.25
4440.00,1.24
4439.00,1.23
4438.00,1.23
4437.00,1.22
4436.00,1.22
4435.00,1.21
4434.00,1.21
4433.00,1.20
4432.00,1.20
4431.00,1.19
4430.00,1.19
4429.00,1.18
4428.00,1.18
4427.00,1.18
4426.00,1.17
4425.00,1.17
4424.00,1.17
4423.00,1.16
4422.00,1.16
4421.00,1.16
4420.00,1.15
4419.00,1.15
4418.00,1.15
4417.00,1.15
4416.00,1.15
4415.00,1.14
4414.00,1.14
4413.00,1.14
4412.00,1.14
4411.00,1.14
4410.00,1.14
4409.00,1.14
4408.00,1.14
4407.00,1.14
4406.00,1.15
4405.00,1.15
4404.00,1.15
4403.00,1.15
4402.00,1.15
4401.00,1.15
4400.00,1.15
4399.00,1.16
4398.00,1.16
4397.00,1.16
4396.00,1.16
4395.00,1.16
4394.00,1.16
4393.00,1.17
4392.00,1.17
4391.00,1.17
4390.00,1.17
4389.00,1.17
4388.00,1.17
4387.00,1.18
4386.00,1.18
4385.00,1.18
4384.00,1.18
4383.00,1.18
4382.00,1.18
4381.00,1.18
4380.00,1.18
4379.00,1.18
4378.00,1.19
4377.00,1.19
4376.00,1.19
4375.00,1.19
4374.00,1.19
4373.00,1.19
4372.00,1.19
4371.00,1.19
4370.00,1.19
4369.00,1.19
4368.00,1.19
4367.00,1.20
4366.00,1.20
4365.00,1.20
4364.00,1.20
4363.00,1.19
4362.00,1.19
4361.00,1.19
4360.00,1.19
4359.00,1.19
4358.00,1.19
4357.00,1.19
4356.00,1.19
4355.00,1.19
4354.00,1.19
4353.00,1.19
4352.00,1.18
4351.00,1.18
4350.00,1.18
4349.00,1.18
4348.00,1.18
4347.00,1.18
4346.00,1.18
4345.00,1.18
4344.00,1.18
4343.00,1.18
4342.00,1.18
4341.00,1.18
4340.00,1.18
4339.00,1.19
4338.00,1.19
4337.00,1.19
4336.00,1.19
4335.00,1.19
4334.00,1.19
4333.00,1.20
4332.00,1.20
4331.00,1.20
4330.00,1.20
4329.00,1.20
4328.00,1.21
4327.00,1.21
4326.00,1.21
4325.00,1.21
4324.00,1.21
4323.00,1.21
4322.00,1.21
4321.00,1.22
4320.00,1.22
4319.00,1.22
4318.00,1.22
4317.00,1.22
4316.00,1.23
4315.00,1.23
4314.00,1.23
4313.00,1.24
4312.00,1.24
4311.00,1.24
4310.00,1.24
4309.00,1.25
4308.00,1.25
4307.00,1.25
4306.00,1.25
4305.00,1.26
4304.00,1.26
4303.00,1.26
4302.00,1.26
4301.00,1.27
4300.00,1.27
4299.00,1.27
4298.00,1.27
4297.00,1.27
4296.00,1.28
4295.00,1.28
4294.00,1.28
4293.00,1.28
4292.00,1.29
4291.00,1.29
4290.00,1.29
4289.00,1.29
4288.00,1.29
4287.00,1.29
4286.00,1.30
4285.00,1.30
4284.00,1.30
4283.00,1.30
4282.00,1.30
4281.00,1.30
4280.00,1.30
4279.00,1.30
4278.00,1.30
4277.00,1.30
4276.00,1.30
4275.00,1.29
4274.00,1.29
4273.00,1.29
4272.00,1.29
4271.00,1.29
4270.00,1.29
4269.00,1.29
4268.00,1.28
4267.00,1.28
4266.00,1.28
4265.00,1.28
4264.00,1.28
4263.00,1.28
4262.00,1.28
4261.00,1.28
4260.00,1.28
4259.00,1.28
4258.00,1.27
4257.00,1.27
4256.00,1.27
4255.00,1.27
4254.00,1.27
4253.00,1.27
4252.00,1.27
4251.00,1.27
4250.00,1.27
4249.00,1.27
4248.00,1.28
4247.00,1.28
4246.00,1.28
4245.00,1.28
4244.00,1.28
4243.00,1.28
4242.00,1.28
4241.00,1.29
4240.00,1.29
4239.00,1.29
4238.00,1.29
4237.00,1.30
4236.00,1.30
4235.00,1.30
4234.00,1.30
4233.00,1.31
4232.00,1.31
4231.00,1.31
4230.00,1.31
4229.00,1.32
4228.00,1.32
4227.00,1.32
4226.00,1.32
4225.00,1.32
4224.00,1.32
4223.00,1.32
4222.00,1.32
4221.00,1.32
4220.00,1.32
4219.00,1.33
4218.00,1.33
4217.00,1.33
4216.00,1.33
4215.00,1.33
4214.00,1.33
4213.00,1.33
4212.00,1.33
4211.00,1.33
4210.00,1.33
4209.00,1.33
4208.00,1.33
4207.00,1.33
4206.00,1.33
4205.00,1.33
4204.00,1.33
4203.00,1.33
4202.00,1.34
4201.00,1.34
4200.00,1.34
4199.00,1.34
4198.00,1.34
4197.00,1.34
4196.00,1.34
4195.00,1.34
4194.00,1.34
4193.00,1.34
4192.00,1.34
4191.00,1.34
4190.00,1.34
4189.00,1.34
4188.00,1.34
4187.00,1.34
4186.00,1.34
4185.00,1.34
4184.00,1.34
4183.00,1.34
4182.00,1.34
4181.00,1.34
4180.00,1.34
4179.00,1.34
4178.00,1.34
4177.00,1.34
4176.00,1.34
4175.00,1.34
4174.00,1.34
4173.00,1.34
4172.00,1.34
4171.00,1.34
4170.00,1.34
4169.00,1.34
4168.00,1.34
4167.00,1.34
4166.00,1.34
4165.00,1.34
4164.00,1.34
4163.00,1.34
4162.00,1.34
4161.00,1.33
4160.00,1.33
4159.00,1.33
4158.00,1.33
4157.00,1.33
4156.00,1.33
4155.00,1.33
4154.00,1.33
4153.00,1.33
4152.00,1.33
4151.00,1.33
4150.00,1.33
4149.00,1.33
4148.00,1.33
4147.00,1.33
4146.00,1.33
4145.00,1.33
4144.00,1.33
4143.00,1.34
4142.00,1.34
4141.00,1.34
4140.00,1.34
4139.00,1.34
4138.00,1.34
4137.00,1.34
4136.00,1.34
4135.00,1.34
4134.00,1.35
4133.00,1.35
4132.00,1.35
4131.00,1.35
4130.00,1.35
4129.00,1.35
4128.00,1.35
4127.00,1.35
4126.00,1.35
4125.00,1.35
4124.00,1.35
4123.00,1.35
4122.00,1.35
4121.00,1.35
4120.00,1.35
4119.00,1.35
4118.00,1.35
4117.00,1.35
4116.00,1.35
4115.00,1.35
4114.00,1.35
4113.00,1.35
4112.00,1.35
4111.00,1.35
4110.00,1.35
4109.00,1.35
4108.00,1.35
4107.00,1.35
4106.00,1.35
4105.00,1.35
4104.00,1.35
4103.00,1.35
4102.00,1.35
4101.00,1.35
4100.00,1.35
4099.00,1.35
4098.00,1.35
4097.00,1.35
4096.00,1.35
4095.00,1.35
4094.00,1.35
4093.00,1.35
4092.00,1.35
4091.00,1.35
4090.00,1.36
4089.00,1.36
4088.00,1.36
4087.00,1.36
4086.00,1.36
4085.00,1.36
4084.00,1.36
4083.00,1.36
4082.00,1.36
4081.00,1.36
4080.00,1.36
4079.00,1.36
4078.00,1.36
4077.00,1.36
4076.00,1.36
4075.00,1.36
4074.00,1.36
4073.00,1.36
4072.00,1.36
4071.00,1.36
4070.00,1.36
4069.00,1.36
4068.00,1.36
4067.00,1.36
4066.00,1.36
4065.00,1.37
4064.00,1.37
4063.00,1.37
4062.00,1.37
4061.00,1.37
4060.00,1.38
4059.00,1.38
4058.00,1.38
4057.00,1.38
4056.00,1.38
4055.00,1.38
4054.00,1.38
4053.00,1.38
4052.00,1.38
4051.00,1.38
4050.00,1.38
4049.00,1.38
4048.00,1.38
4047.00,1.38
4046.00,1.38
4045.00,1.38
4044.00,1.38
4043.00,1.38
4042.00,1.38
4041.00,1.38
4040.00,1.38
4039.00,1.38
4038.00,1.38
4037.00,1.38
4036.00,1.39
4035.00,1.39
4034.00,1.39
4033.00,1.39
4032.00,1.39
4031.00,1.39
4030.00,1.39
4029.00,1.39
4028.00,1.40
4027.00,1.40
4026.00,1.40
4025.00,1.40
4024.00,1.40
4023.00,1.40
4022.00,1.40
4021.00,1.40
4020.00,1.40
4019.00,1.40
4018.00,1.41
4017.00,1.41
4016.00,1.41
4015.00,1.41
4014.00,1.41
4013.00,1.41
4012.00,1.41
4011.00,1.41
4010.00,1.41
4009.00,1.41
4008.00,1.41
4007.00,1.41
4006.00,1.41
4005.00,1.41
4004.00,1.41
4003.00,1.41
4002.00,1.41
4001.00,1.41
4000.00,1.41
