创建为新数据集,样品 073 用户 Administrator 日期 星期日, 十一月 05 2017
cm-1,%T
10000.00,1.23
9999.00,1.23
9998.00,1.23
9997.00,1.23
9996.00,1.23
9995.00,1.23
9994.00,1.23
9993.00,1.22
9992.00,1.22
9991.00,1.22
9990.00,1.22
9989.00,1.22
9988.00,1.22
9987.00,1.21
9986.00,1.21
9985.00,1.21
9984.00,1.21
9983.00,1.21
9982.00,1.21
9981.00,1.21
9980.00,1.21
9979.00,1.21
9978.00,1.21
9977.00,1.21
9976.00,1.21
9975.00,1.21
9974.00,1.21
9973.00,1.21
9972.00,1.21
9971.00,1.21
9970.00,1.21
9969.00,1.21
9968.00,1.22
9967.00,1.22
9966.00,1.22
9965.00,1.22
9964.00,1.22
9963.00,1.22
9962.00,1.22
9961.00,1.22
9960.00,1.23
9959.00,1.23
9958.00,1.23
9957.00,1.23
9956.00,1.23
9955.00,1.23
9954.00,1.23
9953.00,1.23
9952.00,1.23
9951.00,1.23
9950.00,1.23
9949.00,1.23
9948.00,1.23
9947.00,1.23
9946.00,1.22
9945.00,1.22
9944.00,1.22
9943.00,1.22
9942.00,1.22
9941.00,1.22
9940.00,1.21
9939.00,1.21
9938.00,1.21
9937.00,1.21
9936.00,1.21
9935.00,1.21
9934.00,1.21
9933.00,1.21
9932.00,1.21
9931.00,1.22
9930.00,1.22
9929.00,1.22
9928.00,1.22
9927.00,1.22
9926.00,1.22
9925.00,1.22
9924.00,1.22
9923.00,1.22
9922.00,1.22
9921.00,1.22
9920.00,1.21
9919.00,1.21
9918.00,1.21
9917.00,1.21
9916.00,1.20
9915.00,1.20
9914.00,1.20
9913.00,1.19
9912.00,1.19
9911.00,1.18
9910.00,1.18
9909.00,1.18
9908.00,1.17
9907.00,1.17
9906.00,1.17
9905.00,1.17
9904.00,1.16
9903.00,1.16
9902.00,1.16
9901.00,1.16
9900.00,1.16
9899.00,1.16
9898.00,1.17
9897.00,1.17
9896.00,1.17
9895.00,1.17
9894.00,1.17
9893.00,1.18
9892.00,1.18
9891.00,1.18
9890.00,1.18
9889.00,1.19
9888.00,1.19
9887.00,1.19
9886.00,1.19
9885.00,1.19
9884.00,1.20
9883.00,1.20
9882.00,1.20
9881.00,1.20
9880.00,1.20
9879.00,1.20
9878.00,1.20
9877.00,1.20
9876.00,1.20
9875.00,1.20
9874.00,1.20
9873.00,1.20
9872.00,1.20
9871.00,1.20
9870.00,1.20
9869.00,1.20
9868.00,1.19
9867.00,1.19
9866.00,1.19
9865.00,1.19
9864.00,1.19
9863.00,1.19
9862.00,1.19
9861.00,1.19
9860.00,1.19
9859.00,1.19
9858.00,1.19
9857.00,1.19
9856.00,1.19
9855.00,1.19
9854.00,1.19
9853.00,1.19
9852.00,1.19
9851.00,1.19
9850.00,1.19
9849.00,1.19
9848.00,1.18
9847.00,1.18
9846.00,1.18
9845.00,1.18
9844.00,1.18
9843.00,1.18
9842.00,1.17
9841.00,1.17
9840.00,1.17
9839.00,1.17
9838.00,1.17
9837.00,1.17
9836.00,1.17
9835.00,1.17
9834.00,1.17
9833.00,1.17
9832.00,1.17
9831.00,1.17
9830.00,1.17
9829.00,1.17
9828.00,1.18
9827.00,1.18
9826.00,1.18
9825.00,1.19
9824.00,1.19
9823.00,1.19
9822.00,1.20
9821.00,1.20
9820.00,1.20
9819.00,1.21
9818.00,1.21
9817.00,1.22
9816.00,1.22
9815.00,1.22
9814.00,1.22
9813.00,1.22
9812.00,1.22
9811.00,1.22
9810.00,1.22
9809.00,1.22
9808.00,1.22
9807.00,1.22
9806.00,1.22
9805.00,1.22
9804.00,1.22
9803.00,1.22
9802.00,1.22
9801.00,1.22
9800.00,1.21
9799.00,1.21
9798.00,1.21
9797.00,1.21
9796.00,1.21
9795.00,1.21
9794.00,1.22
9793.00,1.22
9792.00,1.22
9791.00,1.22
9790.00,1.22
9789.00,1.22
9788.00,1.22
9787.00,1.22
9786.00,1.22
9785.00,1.22
9784.00,1.22
9783.00,1.22
9782.00,1.22
9781.00,1.22
9780.00,1.21
9779.00,1.21
9778.00,1.21
9777.00,1.21
9776.00,1.21
9775.00,1.21
9774.00,1.21
9773.00,1.21
9772.00,1.21
9771.00,1.21
9770.00,1.21
9769.00,1.21
9768.00,1.21
9767.00,1.21
9766.00,1.21
9765.00,1.20
9764.00,1.20
9763.00,1.20
9762.00,1.20
9761.00,1.20
9760.00,1.20
9759.00,1.20
9758.00,1.19
9757.00,1.19
9756.00,1.19
9755.00,1.19
9754.00,1.19
9753.00,1.19
9752.00,1.19
9751.00,1.19
9750.00,1.19
9749.00,1.19
9748.00,1.19
9747.00,1.19
9746.00,1.19
9745.00,1.19
9744.00,1.19
9743.00,1.19
9742.00,1.19
9741.00,1.19
9740.00,1.19
9739.00,1.19
9738.00,1.19
9737.00,1.18
9736.00,1.18
9735.00,1.18
9734.00,1.17
9733.00,1.17
9732.00,1.17
9731.00,1.17
9730.00,1.16
9729.00,1.16
9728.00,1.16
9727.00,1.16
9726.00,1.16
9725.00,1.16
9724.00,1.17
9723.00,1.17
9722.00,1.17
9721.00,1.17
9720.00,1.17
9719.00,1.18
9718.00,1.18
9717.00,1.18
9716.00,1.19
9715.00,1.19
9714.00,1.19
9713.00,1.19
9712.00,1.20
9711.00,1.20
9710.00,1.20
9709.00,1.20
9708.00,1.20
9707.00,1.21
9706.00,1.21
9705.00,1.21
9704.00,1.21
9703.00,1.21
9702.00,1.21
9701.00,1.21
9700.00,1.21
9699.00,1.21
9698.00,1.21
9697.00,1.20
9696.00,1.20
9695.00,1.20
9694.00,1.20
9693.00,1.20
9692.00,1.20
9691.00,1.20
9690.00,1.20
9689.00,1.21
9688.00,1.21
9687.00,1.21
9686.00,1.21
9685.00,1.21
9684.00,1.21
9683.00,1.21
9682.00,1.21
9681.00,1.21
9680.00,1.21
9679.00,1.21
9678.00,1.22
9677.00,1.22
9676.00,1.22
9675.00,1.22
9674.00,1.22
9673.00,1.22
9672.00,1.22
9671.00,1.21
9670.00,1.21
9669.00,1.21
9668.00,1.21
9667.00,1.21
9666.00,1.21
9665.00,1.21
9664.00,1.20
9663.00,1.20
9662.00,1.20
9661.00,1.20
9660.00,1.20
9659.00,1.19
9658.00,1.19
9657.00,1.19
9656.00,1.19
9655.00,1.19
9654.00,1.19
9653.00,1.19
9652.00,1.19
9651.00,1.19
9650.00,1.19
9649.00,1.19
9648.00,1.19
9647.00,1.19
9646.00,1.20
9645.00,1.20
9644.00,1.20
9643.00,1.20
9642.00,1.21
9641.00,1.21
9640.00,1.21
9639.00,1.22
9638.00,1.22
9637.00,1.22
9636.00,1.22
9635.00,1.22
9634.00,1.23
9633.00,1.23
9632.00,1.23
9631.00,1.23
9630.00,1.23
9629.00,1.23
9628.00,1.23
9627.00,1.23
9626.00,1.23
9625.00,1.23
9624.00,1.23
9623.00,1.23
9622.00,1.22
9621.00,1.22
9620.00,1.22
9619.00,1.22
9618.00,1.22
9617.00,1.22
9616.00,1.21
9615.00,1.21
9614.00,1.21
9613.00,1.21
9612.00,1.21
9611.00,1.21
9610.00,1.21
9609.00,1.21
9608.00,1.21
9607.00,1.21
9606.00,1.21
9605.00,1.21
9604.00,1.21
9603.00,1.21
9602.00,1.21
9601.00,1.21
9600.00,1.21
9599.00,1.21
9598.00,1.21
9597.00,1.21
9596.00,1.21
9595.00,1.20
9594.00,1.20
9593.00,1.20
9592.00,1.20
9591.00,1.20
9590.00,1.20
9589.00,1.20
9588.00,1.20
9587.00,1.20
9586.00,1.20
9585.00,1.19
9584.00,1.19
9583.00,1.19
9582.00,1.19
9581.00,1.19
9580.00,1.19
9579.00,1.19
9578.00,1.19
9577.00,1.19
9576.00,1.19
9575.00,1.19
9574.00,1.19
9573.00,1.19
9572.00,1.19
9571.00,1.19
9570.00,1.19
9569.00,1.19
9568.00,1.19
9567.00,1.19
9566.00,1.19
9565.00,1.19
9564.00,1.20
9563.00,1.20
9562.00,1.20
9561.00,1.20
9560.00,1.20
9559.00,1.20
9558.00,1.20
9557.00,1.21
9556.00,1.21
9555.00,1.21
9554.00,1.21
9553.00,1.21
9552.00,1.21
9551.00,1.21
9550.00,1.21
9549.00,1.21
9548.00,1.21
9547.00,1.21
9546.00,1.21
9545.00,1.21
9544.00,1.21
9543.00,1.21
9542.00,1.21
9541.00,1.21
9540.00,1.21
9539.00,1.21
9538.00,1.20
9537.00,1.20
9536.00,1.20
9535.00,1.20
9534.00,1.20
9533.00,1.20
9532.00,1.20
9531.00,1.20
9530.00,1.20
9529.00,1.20
9528.00,1.19
9527.00,1.19
9526.00,1.19
9525.00,1.19
9524.00,1.19
9523.00,1.19
9522.00,1.19
9521.00,1.19
9520.00,1.18
9519.00,1.18
9518.00,1.18
9517.00,1.18
9516.00,1.18
9515.00,1.18
9514.00,1.18
9513.00,1.18
9512.00,1.18
9511.00,1.17
9510.00,1.17
9509.00,1.17
9508.00,1.17
9507.00,1.17
9506.00,1.17
9505.00,1.17
9504.00,1.17
9503.00,1.17
9502.00,1.18
9501.00,1.18
9500.00,1.18
9499.00,1.18
9498.00,1.18
9497.00,1.19
9496.00,1.19
9495.00,1.19
9494.00,1.19
9493.00,1.20
9492.00,1.20
9491.00,1.20
9490.00,1.20
9489.00,1.21
9488.00,1.21
9487.00,1.21
9486.00,1.21
9485.00,1.21
9484.00,1.22
9483.00,1.22
9482.00,1.22
9481.00,1.22
9480.00,1.22
9479.00,1.22
9478.00,1.22
9477.00,1.22
9476.00,1.22
9475.00,1.22
9474.00,1.22
9473.00,1.22
9472.00,1.22
9471.00,1.22
9470.00,1.22
9469.00,1.22
9468.00,1.22
9467.00,1.22
9466.00,1.22
9465.00,1.22
9464.00,1.22
9463.00,1.22
9462.00,1.22
9461.00,1.22
9460.00,1.22
9459.00,1.22
9458.00,1.22
9457.00,1.22
9456.00,1.22
9455.00,1.21
9454.00,1.21
9453.00,1.21
9452.00,1.21
9451.00,1.21
9450.00,1.21
9449.00,1.21
9448.00,1.21
9447.00,1.21
9446.00,1.21
9445.00,1.21
9444.00,1.21
9443.00,1.21
9442.00,1.21
9441.00,1.21
9440.00,1.21
9439.00,1.21
9438.00,1.21
9437.00,1.22
9436.00,1.22
9435.00,1.22
9434.00,1.22
9433.00,1.22
9432.00,1.23
9431.00,1.23
9430.00,1.23
9429.00,1.23
9428.00,1.23
9427.00,1.23
9426.00,1.23
9425.00,1.23
9424.00,1.23
9423.00,1.22
9422.00,1.22
9421.00,1.22
9420.00,1.22
9419.00,1.21
9418.00,1.21
9417.00,1.21
9416.00,1.20
9415.00,1.20
9414.00,1.20
9413.00,1.19
9412.00,1.19
9411.00,1.19
9410.00,1.19
9409.00,1.19
9408.00,1.19
9407.00,1.19
9406.00,1.19
9405.00,1.19
9404.00,1.19
9403.00,1.19
9402.00,1.19
9401.00,1.19
9400.00,1.19
9399.00,1.19
9398.00,1.19
9397.00,1.19
9396.00,1.19
9395.00,1.19
9394.00,1.19
9393.00,1.19
9392.00,1.19
9391.00,1.19
9390.00,1.19
9389.00,1.19
9388.00,1.19
9387.00,1.19
9386.00,1.19
9385.00,1.19
9384.00,1.19
9383.00,1.19
9382.00,1.19
9381.00,1.19
9380.00,1.19
9379.00,1.18
9378.00,1.18
9377.00,1.19
9376.00,1.19
9375.00,1.19
9374.00,1.19
9373.00,1.19
9372.00,1.19
9371.00,1.19
9370.00,1.19
9369.00,1.19
9368.00,1.19
9367.00,1.19
9366.00,1.19
9365.00,1.19
9364.00,1.19
9363.00,1.19
9362.00,1.19
9361.00,1.19
9360.00,1.19
9359.00,1.19
9358.00,1.18
9357.00,1.18
9356.00,1.18
9355.00,1.18
9354.00,1.18
9353.00,1.18
9352.00,1.18
9351.00,1.18
9350.00,1.18
9349.00,1.17
9348.00,1.17
9347.00,1.17
9346.00,1.17
9345.00,1.17
9344.00,1.17
9343.00,1.17
9342.00,1.17
9341.00,1.17
9340.00,1.18
9339.00,1.18
9338.00,1.18
9337.00,1.18
9336.00,1.18
9335.00,1.18
9334.00,1.19
9333.00,1.19
9332.00,1.19
9331.00,1.19
9330.00,1.19
9329.00,1.19
9328.00,1.19
9327.00,1.19
9326.00,1.19
9325.00,1.19
9324.00,1.19
9323.00,1.19
9322.00,1.19
9321.00,1.19
9320.00,1.19
9319.00,1.19
9318.00,1.19
9317.00,1.19
9316.00,1.19
9315.00,1.19
9314.00,1.19
9313.00,1.19
9312.00,1.19
9311.00,1.19
9310.00,1.19
9309.00,1.19
9308.00,1.19
9307.00,1.19
9306.00,1.19
9305.00,1.19
9304.00,1.20
9303.00,1.20
9302.00,1.20
9301.00,1.20
9300.00,1.21
9299.00,1.21
9298.00,1.21
9297.00,1.21
9296.00,1.21
9295.00,1.22
9294.00,1.22
9293.00,1.22
9292.00,1.22
9291.00,1.22
9290.00,1.22
9289.00,1.22
9288.00,1.22
9287.00,1.22
9286.00,1.22
9285.00,1.22
9284.00,1.21
9283.00,1.21
9282.00,1.21
9281.00,1.21
9280.00,1.20
9279.00,1.20
9278.00,1.20
9277.00,1.20
9276.00,1.19
9275.00,1.19
9274.00,1.19
9273.00,1.19
9272.00,1.19
9271.00,1.19
9270.00,1.19
9269.00,1.19
9268.00,1.19
9267.00,1.20
9266.00,1.20
9265.00,1.20
9264.00,1.20
9263.00,1.21
9262.00,1.21
9261.00,1.21
9260.00,1.21
9259.00,1.22
9258.00,1.22
9257.00,1.22
9256.00,1.22
9255.00,1.22
9254.00,1.23
9253.00,1.23
9252.00,1.23
9251.00,1.23
9250.00,1.23
9249.00,1.23
9248.00,1.23
9247.00,1.23
9246.00,1.23
9245.00,1.22
9244.00,1.22
9243.00,1.22
9242.00,1.22
9241.00,1.22
9240.00,1.22
9239.00,1.22
9238.00,1.22
9237.00,1.21
9236.00,1.21
9235.00,1.21
9234.00,1.21
9233.00,1.21
9232.00,1.21
9231.00,1.21
9230.00,1.21
9229.00,1.21
9228.00,1.21
9227.00,1.21
9226.00,1.21
9225.00,1.21
9224.00,1.22
9223.00,1.22
9222.00,1.22
9221.00,1.22
9220.00,1.22
9219.00,1.22
9218.00,1.22
9217.00,1.23
9216.00,1.23
9215.00,1.23
9214.00,1.22
9213.00,1.22
9212.00,1.22
9211.00,1.22
9210.00,1.22
9209.00,1.21
9208.00,1.21
9207.00,1.21
9206.00,1.21
9205.00,1.20
9204.00,1.20
9203.00,1.20
9202.00,1.19
9201.00,1.19
9200.00,1.19
9199.00,1.19
9198.00,1.18
9197.00,1.18
9196.00,1.18
9195.00,1.18
9194.00,1.18
9193.00,1.18
9192.00,1.18
9191.00,1.18
9190.00,1.18
9189.00,1.18
9188.00,1.18
9187.00,1.18
9186.00,1.18
9185.00,1.18
9184.00,1.18
9183.00,1.19
9182.00,1.19
9181.00,1.19
9180.00,1.19
9179.00,1.20
9178.00,1.20
9177.00,1.20
9176.00,1.21
9175.00,1.21
9174.00,1.21
9173.00,1.21
9172.00,1.22
9171.00,1.22
9170.00,1.22
9169.00,1.22
9168.00,1.22
9167.00,1.22
9166.00,1.22
9165.00,1.22
9164.00,1.22
9163.00,1.21
9162.00,1.21
9161.00,1.21
9160.00,1.20
9159.00,1.20
9158.00,1.20
9157.00,1.19
9156.00,1.19
9155.00,1.19
9154.00,1.18
9153.00,1.18
9152.00,1.18
9151.00,1.18
9150.00,1.18
9149.00,1.18
9148.00,1.18
9147.00,1.18
9146.00,1.19
9145.00,1.19
9144.00,1.19
9143.00,1.19
9142.00,1.20
9141.00,1.20
9140.00,1.20
9139.00,1.20
9138.00,1.21
9137.00,1.21
9136.00,1.21
9135.00,1.21
9134.00,1.21
9133.00,1.21
9132.00,1.21
9131.00,1.21
9130.00,1.21
9129.00,1.21
9128.00,1.21
9127.00,1.21
9126.00,1.21
9125.00,1.21
9124.00,1.20
9123.00,1.20
9122.00,1.20
9121.00,1.20
9120.00,1.20
9119.00,1.21
9118.00,1.21
9117.00,1.21
9116.00,1.21
9115.00,1.21
9114.00,1.21
9113.00,1.21
9112.00,1.21
9111.00,1.21
9110.00,1.21
9109.00,1.21
9108.00,1.22
9107.00,1.22
9106.00,1.22
9105.00,1.22
9104.00,1.22
9103.00,1.22
9102.00,1.22
9101.00,1.22
9100.00,1.22
9099.00,1.22
9098.00,1.23
9097.00,1.23
9096.00,1.23
9095.00,1.23
9094.00,1.23
9093.00,1.23
9092.00,1.23
9091.00,1.23
9090.00,1.23
9089.00,1.23
9088.00,1.23
9087.00,1.23
9086.00,1.23
9085.00,1.23
9084.00,1.23
9083.00,1.23
9082.00,1.22
9081.00,1.22
9080.00,1.22
9079.00,1.22
9078.00,1.22
9077.00,1.22
9076.00,1.22
9075.00,1.22
9074.00,1.21
9073.00,1.21
9072.00,1.21
9071.00,1.21
9070.00,1.21
9069.00,1.21
9068.00,1.21
9067.00,1.21
9066.00,1.20
9065.00,1.20
9064.00,1.20
9063.00,1.20
9062.00,1.20
9061.00,1.20
9060.00,1.20
9059.00,1.20
9058.00,1.20
9057.00,1.20
9056.00,1.20
9055.00,1.20
9054.00,1.20
9053.00,1.20
9052.00,1.20
9051.00,1.20
9050.00,1.20
9049.00,1.20
9048.00,1.20
9047.00,1.20
9046.00,1.20
9045.00,1.20
9044.00,1.20
9043.00,1.19
9042.00,1.19
9041.00,1.19
9040.00,1.19
9039.00,1.19
9038.00,1.19
9037.00,1.18
9036.00,1.18
9035.00,1.18
9034.00,1.18
9033.00,1.18
9032.00,1.18
9031.00,1.18
9030.00,1.18
9029.00,1.18
9028.00,1.18
9027.00,1.18
9026.00,1.18
9025.00,1.18
9024.00,1.18
9023.00,1.18
9022.00,1.18
9021.00,1.18
9020.00,1.18
9019.00,1.18
9018.00,1.18
9017.00,1.18
9016.00,1.18
9015.00,1.18
9014.00,1.18
9013.00,1.18
9012.00,1.18
9011.00,1.18
9010.00,1.18
9009.00,1.18
9008.00,1.18
9007.00,1.18
9006.00,1.18
9005.00,1.18
9004.00,1.18
9003.00,1.18
9002.00,1.19
9001.00,1.19
9000.00,1.19
8999.00,1.19
8998.00,1.19
8997.00,1.20
8996.00,1.20
8995.00,1.20
8994.00,1.20
8993.00,1.20
8992.00,1.21
8991.00,1.21
8990.00,1.21
8989.00,1.21
8988.00,1.21
8987.00,1.21
8986.00,1.21
8985.00,1.21
8984.00,1.21
8983.00,1.20
8982.00,1.20
8981.00,1.20
8980.00,1.20
8979.00,1.20
8978.00,1.20
8977.00,1.20
8976.00,1.20
8975.00,1.20
8974.00,1.20
8973.00,1.20
8972.00,1.20
8971.00,1.20
8970.00,1.20
8969.00,1.20
8968.00,1.20
8967.00,1.20
8966.00,1.20
8965.00,1.20
8964.00,1.20
8963.00,1.20
8962.00,1.20
8961.00,1.21
8960.00,1.21
8959.00,1.20
8958.00,1.20
8957.00,1.20
8956.00,1.20
8955.00,1.20
8954.00,1.20
8953.00,1.20
8952.00,1.20
8951.00,1.19
8950.00,1.19
8949.00,1.19
8948.00,1.19
8947.00,1.19
8946.00,1.19
8945.00,1.19
8944.00,1.19
8943.00,1.19
8942.00,1.19
8941.00,1.19
8940.00,1.19
8939.00,1.19
8938.00,1.20
8937.00,1.20
8936.00,1.20
8935.00,1.20
8934.00,1.20
8933.00,1.20
8932.00,1.20
8931.00,1.20
8930.00,1.20
8929.00,1.20
8928.00,1.20
8927.00,1.20
8926.00,1.20
8925.00,1.20
8924.00,1.20
8923.00,1.20
8922.00,1.20
8921.00,1.20
8920.00,1.20
8919.00,1.20
8918.00,1.20
8917.00,1.20
8916.00,1.20
8915.00,1.20
8914.00,1.20
8913.00,1.20
8912.00,1.21
8911.00,1.21
8910.00,1.21
8909.00,1.21
8908.00,1.21
8907.00,1.21
8906.00,1.21
8905.00,1.22
8904.00,1.22
8903.00,1.22
8902.00,1.22
8901.00,1.22
8900.00,1.22
8899.00,1.22
8898.00,1.22
8897.00,1.22
8896.00,1.22
8895.00,1.22
8894.00,1.21
8893.00,1.21
8892.00,1.21
8891.00,1.21
8890.00,1.21
8889.00,1.21
8888.00,1.21
8887.00,1.21
8886.00,1.21
8885.00,1.21
8884.00,1.21
8883.00,1.20
8882.00,1.20
8881.00,1.20
8880.00,1.20
8879.00,1.20
8878.00,1.20
8877.00,1.20
8876.00,1.20
8875.00,1.20
8874.00,1.21
8873.00,1.21
8872.00,1.21
8871.00,1.21
8870.00,1.21
8869.00,1.21
8868.00,1.21
8867.00,1.21
8866.00,1.21
8865.00,1.21
8864.00,1.21
8863.00,1.21
8862.00,1.21
8861.00,1.21
8860.00,1.21
8859.00,1.21
8858.00,1.21
8857.00,1.21
8856.00,1.21
8855.00,1.21
8854.00,1.21
8853.00,1.21
8852.00,1.21
8851.00,1.21
8850.00,1.21
8849.00,1.21
8848.00,1.21
8847.00,1.21
8846.00,1.21
8845.00,1.21
8844.00,1.21
8843.00,1.21
8842.00,1.21
8841.00,1.21
8840.00,1.21
8839.00,1.21
8838.00,1.21
8837.00,1.21
8836.00,1.21
8835.00,1.20
8834.00,1.20
8833.00,1.20
8832.00,1.20
8831.00,1.20
8830.00,1.20
8829.00,1.21
8828.00,1.21
8827.00,1.21
8826.00,1.21
8825.00,1.21
8824.00,1.21
8823.00,1.21
8822.00,1.21
8821.00,1.21
8820.00,1.21
8819.00,1.21
8818.00,1.21
8817.00,1.21
8816.00,1.21
8815.00,1.21
8814.00,1.21
8813.00,1.21
8812.00,1.21
8811.00,1.21
8810.00,1.21
8809.00,1.21
8808.00,1.21
8807.00,1.21
8806.00,1.21
8805.00,1.21
8804.00,1.21
8803.00,1.21
8802.00,1.21
8801.00,1.21
8800.00,1.21
8799.00,1.21
8798.00,1.21
8797.00,1.21
8796.00,1.21
8795.00,1.21
8794.00,1.21
8793.00,1.21
8792.00,1.21
8791.00,1.21
8790.00,1.21
8789.00,1.20
8788.00,1.20
8787.00,1.20
8786.00,1.20
8785.00,1.20
8784.00,1.20
8783.00,1.20
8782.00,1.19
8781.00,1.19
8780.00,1.19
8779.00,1.19
8778.00,1.19
8777.00,1.19
8776.00,1.19
8775.00,1.18
8774.00,1.18
8773.00,1.18
8772.00,1.18
8771.00,1.18
8770.00,1.18
8769.00,1.18
8768.00,1.17
8767.00,1.17
8766.00,1.17
8765.00,1.17
8764.00,1.17
8763.00,1.17
8762.00,1.17
8761.00,1.17
8760.00,1.17
8759.00,1.17
8758.00,1.18
8757.00,1.18
8756.00,1.18
8755.00,1.18
8754.00,1.18
8753.00,1.18
8752.00,1.18
8751.00,1.18
8750.00,1.18
8749.00,1.18
8748.00,1.18
8747.00,1.18
8746.00,1.19
8745.00,1.19
8744.00,1.19
8743.00,1.19
8742.00,1.19
8741.00,1.19
8740.00,1.19
8739.00,1.19
8738.00,1.19
8737.00,1.19
8736.00,1.19
8735.00,1.19
8734.00,1.19
8733.00,1.19
8732.00,1.20
8731.00,1.20
8730.00,1.20
8729.00,1.20
8728.00,1.20
8727.00,1.19
8726.00,1.19
8725.00,1.19
8724.00,1.19
8723.00,1.19
8722.00,1.19
8721.00,1.19
8720.00,1.19
8719.00,1.19
8718.00,1.19
8717.00,1.19
8716.00,1.19
8715.00,1.19
8714.00,1.19
8713.00,1.19
8712.00,1.19
8711.00,1.19
8710.00,1.19
8709.00,1.19
8708.00,1.19
8707.00,1.19
8706.00,1.19
8705.00,1.19
8704.00,1.19
8703.00,1.19
8702.00,1.19
8701.00,1.20
8700.00,1.20
8699.00,1.20
8698.00,1.20
8697.00,1.20
8696.00,1.20
8695.00,1.20
8694.00,1.20
8693.00,1.21
8692.00,1.21
8691.00,1.21
8690.00,1.21
8689.00,1.21
8688.00,1.21
8687.00,1.21
8686.00,1.21
8685.00,1.21
8684.00,1.21
8683.00,1.21
8682.00,1.21
8681.00,1.21
8680.00,1.21
8679.00,1.21
8678.00,1.21
8677.00,1.21
8676.00,1.21
8675.00,1.21
8674.00,1.20
8673.00,1.20
8672.00,1.20
8671.00,1.20
8670.00,1.20
8669.00,1.20
8668.00,1.20
8667.00,1.20
8666.00,1.19
8665.00,1.19
8664.00,1.19
8663.00,1.19
8662.00,1.19
8661.00,1.19
8660.00,1.19
8659.00,1.18
8658.00,1.18
8657.00,1.18
8656.00,1.18
8655.00,1.18
8654.00,1.18
8653.00,1.18
8652.00,1.18
8651.00,1.18
8650.00,1.18
8649.00,1.18
8648.00,1.18
8647.00,1.18
8646.00,1.18
8645.00,1.18
8644.00,1.18
8643.00,1.19
8642.00,1.19
8641.00,1.19
8640.00,1.19
8639.00,1.19
8638.00,1.18
8637.00,1.18
8636.00,1.18
8635.00,1.18
8634.00,1.18
8633.00,1.18
8632.00,1.18
8631.00,1.18
8630.00,1.18
8629.00,1.18
8628.00,1.18
8627.00,1.18
8626.00,1.18
8625.00,1.18
8624.00,1.18
8623.00,1.18
8622.00,1.18
8621.00,1.18
8620.00,1.18
8619.00,1.18
8618.00,1.18
8617.00,1.18
8616.00,1.18
8615.00,1.18
8614.00,1.18
8613.00,1.18
8612.00,1.17
8611.00,1.17
8610.00,1.17
8609.00,1.17
8608.00,1.17
8607.00,1.17
8606.00,1.17
8605.00,1.17
8604.00,1.17
8603.00,1.17
8602.00,1.17
8601.00,1.17
8600.00,1.17
8599.00,1.17
8598.00,1.17
8597.00,1.17
8596.00,1.17
8595.00,1.17
8594.00,1.17
8593.00,1.17
8592.00,1.17
8591.00,1.17
8590.00,1.17
8589.00,1.17
8588.00,1.17
8587.00,1.17
8586.00,1.17
8585.00,1.17
8584.00,1.16
8583.00,1.16
8582.00,1.16
8581.00,1.16
8580.00,1.16
8579.00,1.16
8578.00,1.15
8577.00,1.15
8576.00,1.15
8575.00,1.15
8574.00,1.15
8573.00,1.15
8572.00,1.15
8571.00,1.15
8570.00,1.15
8569.00,1.15
8568.00,1.14
8567.00,1.15
8566.00,1.15
8565.00,1.15
8564.00,1.15
8563.00,1.15
8562.00,1.15
8561.00,1.15
8560.00,1.15
8559.00,1.15
8558.00,1.15
8557.00,1.15
8556.00,1.15
8555.00,1.15
8554.00,1.15
8553.00,1.15
8552.00,1.15
8551.00,1.15
8550.00,1.15
8549.00,1.15
8548.00,1.16
8547.00,1.15
8546.00,1.15
8545.00,1.15
8544.00,1.15
8543.00,1.15
8542.00,1.15
8541.00,1.15
8540.00,1.15
8539.00,1.15
8538.00,1.15
8537.00,1.14
8536.00,1.14
8535.00,1.14
8534.00,1.14
8533.00,1.14
8532.00,1.14
8531.00,1.14
8530.00,1.14
8529.00,1.14
8528.00,1.14
8527.00,1.14
8526.00,1.14
8525.00,1.14
8524.00,1.14
8523.00,1.14
8522.00,1.14
8521.00,1.14
8520.00,1.14
8519.00,1.14
8518.00,1.15
8517.00,1.15
8516.00,1.15
8515.00,1.15
8514.00,1.15
8513.00,1.15
8512.00,1.15
8511.00,1.15
8510.00,1.15
8509.00,1.15
8508.00,1.14
8507.00,1.14
8506.00,1.14
8505.00,1.14
8504.00,1.14
8503.00,1.14
8502.00,1.14
8501.00,1.14
8500.00,1.14
8499.00,1.14
8498.00,1.14
8497.00,1.14
8496.00,1.14
8495.00,1.13
8494.00,1.13
8493.00,1.13
8492.00,1.13
8491.00,1.13
8490.00,1.13
8489.00,1.13
8488.00,1.13
8487.00,1.13
8486.00,1.13
8485.00,1.13
8484.00,1.13
8483.00,1.13
8482.00,1.13
8481.00,1.13
8480.00,1.13
8479.00,1.13
8478.00,1.13
8477.00,1.13
8476.00,1.13
8475.00,1.13
8474.00,1.13
8473.00,1.13
8472.00,1.13
8471.00,1.13
8470.00,1.13
8469.00,1.13
8468.00,1.13
8467.00,1.13
8466.00,1.13
8465.00,1.13
8464.00,1.13
8463.00,1.13
8462.00,1.13
8461.00,1.13
8460.00,1.13
8459.00,1.13
8458.00,1.13
8457.00,1.13
8456.00,1.13
8455.00,1.13
8454.00,1.13
8453.00,1.13
8452.00,1.13
8451.00,1.13
8450.00,1.13
8449.00,1.13
8448.00,1.13
8447.00,1.13
8446.00,1.13
8445.00,1.13
8444.00,1.13
8443.00,1.13
8442.00,1.13
8441.00,1.13
8440.00,1.13
8439.00,1.12
8438.00,1.12
8437.00,1.12
8436.00,1.12
8435.00,1.12
8434.00,1.12
8433.00,1.12
8432.00,1.12
8431.00,1.12
8430.00,1.12
8429.00,1.12
8428.00,1.12
8427.00,1.12
8426.00,1.13
8425.00,1.13
8424.00,1.13
8423.00,1.13
8422.00,1.13
8421.00,1.13
8420.00,1.13
8419.00,1.13
8418.00,1.13
8417.00,1.13
8416.00,1.13
8415.00,1.13
8414.00,1.13
8413.00,1.13
8412.00,1.13
8411.00,1.13
8410.00,1.13
8409.00,1.14
8408.00,1.14
8407.00,1.14
8406.00,1.14
8405.00,1.14
8404.00,1.14
8403.00,1.14
8402.00,1.14
8401.00,1.14
8400.00,1.14
8399.00,1.14
8398.00,1.14
8397.00,1.14
8396.00,1.14
8395.00,1.14
8394.00,1.14
8393.00,1.14
8392.00,1.14
8391.00,1.14
8390.00,1.13
8389.00,1.13
8388.00,1.13
8387.00,1.13
8386.00,1.13
8385.00,1.13
8384.00,1.13
8383.00,1.13
8382.00,1.13
8381.00,1.13
8380.00,1.13
8379.00,1.13
8378.00,1.13
8377.00,1.13
8376.00,1.13
8375.00,1.13
8374.00,1.13
8373.00,1.13
8372.00,1.13
8371.00,1.13
8370.00,1.13
8369.00,1.13
8368.00,1.13
8367.00,1.13
8366.00,1.13
8365.00,1.13
8364.00,1.13
8363.00,1.14
8362.00,1.14
8361.00,1.14
8360.00,1.14
8359.00,1.14
8358.00,1.14
8357.00,1.14
8356.00,1.14
8355.00,1.14
8354.00,1.14
8353.00,1.14
8352.00,1.14
8351.00,1.14
8350.00,1.14
8349.00,1.14
8348.00,1.14
8347.00,1.14
8346.00,1.14
8345.00,1.14
8344.00,1.14
8343.00,1.14
8342.00,1.14
8341.00,1.14
8340.00,1.14
8339.00,1.14
8338.00,1.14
8337.00,1.14
8336.00,1.14
8335.00,1.14
8334.00,1.14
8333.00,1.14
8332.00,1.14
8331.00,1.14
8330.00,1.14
8329.00,1.14
8328.00,1.14
8327.00,1.14
8326.00,1.14
8325.00,1.14
8324.00,1.14
8323.00,1.14
8322.00,1.14
8321.00,1.14
8320.00,1.14
8319.00,1.14
8318.00,1.14
8317.00,1.15
8316.00,1.15
8315.00,1.15
8314.00,1.15
8313.00,1.15
8312.00,1.15
8311.00,1.15
8310.00,1.15
8309.00,1.15
8308.00,1.15
8307.00,1.15
8306.00,1.15
8305.00,1.15
8304.00,1.15
8303.00,1.14
8302.00,1.14
8301.00,1.14
8300.00,1.14
8299.00,1.14
8298.00,1.14
8297.00,1.14
8296.00,1.14
8295.00,1.14
8294.00,1.14
8293.00,1.14
8292.00,1.14
8291.00,1.14
8290.00,1.15
8289.00,1.15
8288.00,1.15
8287.00,1.15
8286.00,1.15
8285.00,1.16
8284.00,1.16
8283.00,1.16
8282.00,1.16
8281.00,1.16
8280.00,1.16
8279.00,1.17
8278.00,1.17
8277.00,1.17
8276.00,1.17
8275.00,1.17
8274.00,1.17
8273.00,1.17
8272.00,1.17
8271.00,1.17
8270.00,1.17
8269.00,1.17
8268.00,1.17
8267.00,1.17
8266.00,1.17
8265.00,1.17
8264.00,1.17
8263.00,1.17
8262.00,1.17
8261.00,1.17
8260.00,1.17
8259.00,1.17
8258.00,1.17
8257.00,1.17
8256.00,1.17
8255.00,1.17
8254.00,1.17
8253.00,1.17
8252.00,1.17
8251.00,1.17
8250.00,1.17
8249.00,1.17
8248.00,1.17
8247.00,1.17
8246.00,1.16
8245.00,1.16
8244.00,1.16
8243.00,1.16
8242.00,1.16
8241.00,1.16
8240.00,1.16
8239.00,1.16
8238.00,1.16
8237.00,1.16
8236.00,1.16
8235.00,1.16
8234.00,1.16
8233.00,1.15
8232.00,1.15
8231.00,1.15
8230.00,1.15
8229.00,1.15
8228.00,1.15
8227.00,1.15
8226.00,1.15
8225.00,1.15
8224.00,1.15
8223.00,1.15
8222.00,1.15
8221.00,1.15
8220.00,1.15
8219.00,1.16
8218.00,1.16
8217.00,1.16
8216.00,1.16
8215.00,1.16
8214.00,1.16
8213.00,1.16
8212.00,1.16
8211.00,1.16
8210.00,1.16
8209.00,1.17
8208.00,1.17
8207.00,1.17
8206.00,1.17
8205.00,1.17
8204.00,1.17
8203.00,1.17
8202.00,1.17
8201.00,1.16
8200.00,1.16
8199.00,1.16
8198.00,1.16
8197.00,1.16
8196.00,1.16
8195.00,1.16
8194.00,1.16
8193.00,1.16
8192.00,1.16
8191.00,1.16
8190.00,1.16
8189.00,1.16
8188.00,1.16
8187.00,1.16
8186.00,1.16
8185.00,1.16
8184.00,1.16
8183.00,1.16
8182.00,1.16
8181.00,1.16
8180.00,1.16
8179.00,1.16
8178.00,1.16
8177.00,1.16
8176.00,1.17
8175.00,1.17
8174.00,1.17
8173.00,1.17
8172.00,1.17
8171.00,1.17
8170.00,1.17
8169.00,1.17
8168.00,1.17
8167.00,1.17
8166.00,1.18
8165.00,1.18
8164.00,1.18
8163.00,1.18
8162.00,1.18
8161.00,1.18
8160.00,1.18
8159.00,1.18
8158.00,1.18
8157.00,1.18
8156.00,1.18
8155.00,1.18
8154.00,1.18
8153.00,1.17
8152.00,1.17
8151.00,1.17
8150.00,1.17
8149.00,1.17
8148.00,1.17
8147.00,1.17
8146.00,1.17
8145.00,1.17
8144.00,1.17
8143.00,1.17
8142.00,1.17
8141.00,1.17
8140.00,1.17
8139.00,1.17
8138.00,1.17
8137.00,1.17
8136.00,1.17
8135.00,1.17
8134.00,1.17
8133.00,1.17
8132.00,1.17
8131.00,1.17
8130.00,1.17
8129.00,1.17
8128.00,1.17
8127.00,1.17
8126.00,1.18
8125.00,1.18
8124.00,1.18
8123.00,1.18
8122.00,1.18
8121.00,1.18
8120.00,1.18
8119.00,1.18
8118.00,1.18
8117.00,1.18
8116.00,1.18
8115.00,1.18
8114.00,1.18
8113.00,1.19
8112.00,1.19
8111.00,1.19
8110.00,1.19
8109.00,1.19
8108.00,1.19
8107.00,1.19
8106.00,1.19
8105.00,1.19
8104.00,1.19
8103.00,1.19
8102.00,1.19
8101.00,1.19
8100.00,1.19
8099.00,1.19
8098.00,1.19
8097.00,1.19
8096.00,1.19
8095.00,1.19
8094.00,1.18
8093.00,1.18
8092.00,1.18
8091.00,1.18
8090.00,1.18
8089.00,1.18
8088.00,1.18
8087.00,1.18
8086.00,1.18
8085.00,1.18
8084.00,1.18
8083.00,1.18
8082.00,1.18
8081.00,1.18
8080.00,1.19
8079.00,1.19
8078.00,1.19
8077.00,1.19
8076.00,1.19
8075.00,1.19
8074.00,1.19
8073.00,1.19
8072.00,1.19
8071.00,1.19
8070.00,1.19
8069.00,1.19
8068.00,1.19
8067.00,1.19
8066.00,1.19
8065.00,1.19
8064.00,1.19
8063.00,1.19
8062.00,1.19
8061.00,1.19
8060.00,1.19
8059.00,1.19
8058.00,1.19
8057.00,1.19
8056.00,1.19
8055.00,1.19
8054.00,1.19
8053.00,1.19
8052.00,1.19
8051.00,1.19
8050.00,1.20
8049.00,1.20
8048.00,1.20
8047.00,1.20
8046.00,1.20
8045.00,1.20
8044.00,1.20
8043.00,1.20
8042.00,1.20
8041.00,1.20
8040.00,1.20
8039.00,1.20
8038.00,1.20
8037.00,1.20
8036.00,1.20
8035.00,1.20
8034.00,1.20
8033.00,1.20
8032.00,1.20
8031.00,1.20
8030.00,1.20
8029.00,1.20
8028.00,1.20
8027.00,1.20
8026.00,1.20
8025.00,1.20
8024.00,1.20
8023.00,1.20
8022.00,1.20
8021.00,1.19
8020.00,1.19
8019.00,1.19
8018.00,1.19
8017.00,1.19
8016.00,1.19
8015.00,1.19
8014.00,1.19
8013.00,1.19
8012.00,1.19
8011.00,1.19
8010.00,1.19
8009.00,1.19
8008.00,1.19
8007.00,1.19
8006.00,1.19
8005.00,1.19
8004.00,1.19
8003.00,1.19
8002.00,1.19
8001.00,1.19
8000.00,1.19
7999.00,1.19
7998.00,1.19
7997.00,1.19
7996.00,1.19
7995.00,1.19
7994.00,1.19
7993.00,1.19
7992.00,1.20
7991.00,1.20
7990.00,1.20
7989.00,1.20
7988.00,1.20
7987.00,1.20
7986.00,1.20
7985.00,1.20
7984.00,1.20
7983.00,1.20
7982.00,1.20
7981.00,1.20
7980.00,1.20
7979.00,1.21
7978.00,1.21
7977.00,1.20
7976.00,1.20
7975.00,1.20
7974.00,1.20
7973.00,1.20
7972.00,1.20
7971.00,1.20
7970.00,1.20
7969.00,1.20
7968.00,1.20
7967.00,1.20
7966.00,1.20
7965.00,1.20
7964.00,1.20
7963.00,1.20
7962.00,1.20
7961.00,1.20
7960.00,1.20
7959.00,1.20
7958.00,1.20
7957.00,1.20
7956.00,1.20
7955.00,1.20
7954.00,1.20
7953.00,1.20
7952.00,1.20
7951.00,1.20
7950.00,1.20
7949.00,1.20
7948.00,1.20
7947.00,1.20
7946.00,1.20
7945.00,1.20
7944.00,1.20
7943.00,1.20
7942.00,1.20
7941.00,1.20
7940.00,1.20
7939.00,1.20
7938.00,1.20
7937.00,1.20
7936.00,1.20
7935.00,1.20
7934.00,1.20
7933.00,1.20
7932.00,1.21
7931.00,1.21
7930.00,1.21
7929.00,1.21
7928.00,1.21
7927.00,1.21
7926.00,1.21
7925.00,1.21
7924.00,1.21
7923.00,1.22
7922.00,1.22
7921.00,1.22
7920.00,1.22
7919.00,1.22
7918.00,1.22
7917.00,1.22
7916.00,1.22
7915.00,1.22
7914.00,1.22
7913.00,1.22
7912.00,1.22
7911.00,1.22
7910.00,1.22
7909.00,1.22
7908.00,1.22
7907.00,1.22
7906.00,1.22
7905.00,1.22
7904.00,1.22
7903.00,1.22
7902.00,1.22
7901.00,1.22
7900.00,1.22
7899.00,1.22
7898.00,1.21
7897.00,1.21
7896.00,1.21
7895.00,1.21
7894.00,1.21
7893.00,1.21
7892.00,1.21
7891.00,1.21
7890.00,1.22
7889.00,1.22
7888.00,1.22
7887.00,1.22
7886.00,1.22
7885.00,1.22
7884.00,1.22
7883.00,1.22
7882.00,1.22
7881.00,1.22
7880.00,1.22
7879.00,1.22
7878.00,1.22
7877.00,1.22
7876.00,1.22
7875.00,1.22
7874.00,1.22
7873.00,1.22
7872.00,1.22
7871.00,1.22
7870.00,1.22
7869.00,1.22
7868.00,1.22
7867.00,1.22
7866.00,1.22
7865.00,1.22
7864.00,1.22
7863.00,1.22
7862.00,1.22
7861.00,1.22
7860.00,1.22
7859.00,1.22
7858.00,1.22
7857.00,1.22
7856.00,1.22
7855.00,1.22
7854.00,1.22
7853.00,1.22
7852.00,1.22
7851.00,1.22
7850.00,1.22
7849.00,1.22
7848.00,1.22
7847.00,1.22
7846.00,1.22
7845.00,1.22
7844.00,1.22
7843.00,1.22
7842.00,1.22
7841.00,1.21
7840.00,1.21
7839.00,1.21
7838.00,1.21
7837.00,1.21
7836.00,1.21
7835.00,1.21
7834.00,1.21
7833.00,1.21
7832.00,1.21
7831.00,1.21
7830.00,1.21
7829.00,1.21
7828.00,1.21
7827.00,1.21
7826.00,1.21
7825.00,1.21
7824.00,1.21
7823.00,1.21
7822.00,1.21
7821.00,1.21
7820.00,1.21
7819.00,1.21
7818.00,1.22
7817.00,1.22
7816.00,1.22
7815.00,1.22
7814.00,1.22
7813.00,1.22
7812.00,1.22
7811.00,1.22
7810.00,1.22
7809.00,1.22
7808.00,1.22
7807.00,1.22
7806.00,1.22
7805.00,1.22
7804.00,1.22
7803.00,1.22
7802.00,1.22
7801.00,1.22
7800.00,1.22
7799.00,1.22
7798.00,1.22
7797.00,1.22
7796.00,1.22
7795.00,1.22
7794.00,1.22
7793.00,1.22
7792.00,1.22
7791.00,1.22
7790.00,1.22
7789.00,1.22
7788.00,1.22
7787.00,1.22
7786.00,1.22
7785.00,1.22
7784.00,1.22
7783.00,1.22
7782.00,1.22
7781.00,1.22
7780.00,1.22
7779.00,1.22
7778.00,1.21
7777.00,1.21
7776.00,1.21
7775.00,1.21
7774.00,1.21
7773.00,1.21
7772.00,1.21
7771.00,1.21
7770.00,1.21
7769.00,1.21
7768.00,1.21
7767.00,1.21
7766.00,1.21
7765.00,1.21
7764.00,1.21
7763.00,1.21
7762.00,1.21
7761.00,1.21
7760.00,1.21
7759.00,1.21
7758.00,1.21
7757.00,1.22
7756.00,1.22
7755.00,1.22
7754.00,1.22
7753.00,1.22
7752.00,1.22
7751.00,1.22
7750.00,1.22
7749.00,1.22
7748.00,1.22
7747.00,1.22
7746.00,1.22
7745.00,1.22
7744.00,1.22
7743.00,1.22
7742.00,1.22
7741.00,1.22
7740.00,1.22
7739.00,1.22
7738.00,1.22
7737.00,1.22
7736.00,1.22
7735.00,1.22
7734.00,1.22
7733.00,1.23
7732.00,1.23
7731.00,1.23
7730.00,1.23
7729.00,1.23
7728.00,1.23
7727.00,1.23
7726.00,1.23
7725.00,1.23
7724.00,1.23
7723.00,1.23
7722.00,1.23
7721.00,1.23
7720.00,1.23
7719.00,1.23
7718.00,1.23
7717.00,1.23
7716.00,1.23
7715.00,1.23
7714.00,1.23
7713.00,1.23
7712.00,1.23
7711.00,1.23
7710.00,1.23
7709.00,1.23
7708.00,1.23
7707.00,1.23
7706.00,1.23
7705.00,1.23
7704.00,1.23
7703.00,1.22
7702.00,1.22
7701.00,1.22
7700.00,1.22
7699.00,1.22
7698.00,1.22
7697.00,1.22
7696.00,1.22
7695.00,1.22
7694.00,1.22
7693.00,1.22
7692.00,1.22
7691.00,1.22
7690.00,1.22
7689.00,1.22
7688.00,1.22
7687.00,1.22
7686.00,1.22
7685.00,1.22
7684.00,1.22
7683.00,1.22
7682.00,1.22
7681.00,1.22
7680.00,1.22
7679.00,1.22
7678.00,1.22
7677.00,1.22
7676.00,1.22
7675.00,1.22
7674.00,1.22
7673.00,1.22
7672.00,1.22
7671.00,1.22
7670.00,1.22
7669.00,1.22
7668.00,1.22
7667.00,1.22
7666.00,1.22
7665.00,1.22
7664.00,1.22
7663.00,1.22
7662.00,1.22
7661.00,1.22
7660.00,1.22
7659.00,1.22
7658.00,1.22
7657.00,1.22
7656.00,1.22
7655.00,1.22
7654.00,1.22
7653.00,1.22
7652.00,1.22
7651.00,1.22
7650.00,1.22
7649.00,1.22
7648.00,1.22
7647.00,1.22
7646.00,1.22
7645.00,1.22
7644.00,1.22
7643.00,1.22
7642.00,1.22
7641.00,1.22
7640.00,1.22
7639.00,1.23
7638.00,1.23
7637.00,1.23
7636.00,1.23
7635.00,1.23
7634.00,1.23
7633.00,1.23
7632.00,1.23
7631.00,1.23
7630.00,1.22
7629.00,1.22
7628.00,1.22
7627.00,1.22
7626.00,1.22
7625.00,1.22
7624.00,1.22
7623.00,1.22
7622.00,1.22
7621.00,1.22
7620.00,1.22
7619.00,1.22
7618.00,1.22
7617.00,1.22
7616.00,1.22
7615.00,1.22
7614.00,1.22
7613.00,1.22
7612.00,1.22
7611.00,1.22
7610.00,1.22
7609.00,1.22
7608.00,1.22
7607.00,1.22
7606.00,1.22
7605.00,1.22
7604.00,1.23
7603.00,1.23
7602.00,1.23
7601.00,1.23
7600.00,1.23
7599.00,1.23
7598.00,1.23
7597.00,1.23
7596.00,1.23
7595.00,1.23
7594.00,1.23
7593.00,1.23
7592.00,1.23
7591.00,1.23
7590.00,1.23
7589.00,1.23
7588.00,1.23
7587.00,1.23
7586.00,1.23
7585.00,1.23
7584.00,1.23
7583.00,1.23
7582.00,1.23
7581.00,1.23
7580.00,1.23
7579.00,1.23
7578.00,1.23
7577.00,1.23
7576.00,1.23
7575.00,1.23
7574.00,1.23
7573.00,1.23
7572.00,1.23
7571.00,1.23
7570.00,1.23
7569.00,1.23
7568.00,1.23
7567.00,1.23
7566.00,1.22
7565.00,1.22
7564.00,1.22
7563.00,1.22
7562.00,1.22
7561.00,1.22
7560.00,1.22
7559.00,1.22
7558.00,1.22
7557.00,1.22
7556.00,1.22
7555.00,1.22
7554.00,1.22
7553.00,1.22
7552.00,1.22
7551.00,1.22
7550.00,1.22
7549.00,1.22
7548.00,1.22
7547.00,1.22
7546.00,1.22
7545.00,1.22
7544.00,1.22
7543.00,1.22
7542.00,1.22
7541.00,1.22
7540.00,1.22
7539.00,1.21
7538.00,1.21
7537.00,1.21
7536.00,1.21
7535.00,1.22
7534.00,1.22
7533.00,1.22
7532.00,1.22
7531.00,1.22
7530.00,1.22
7529.00,1.22
7528.00,1.22
7527.00,1.22
7526.00,1.22
7525.00,1.22
7524.00,1.22
7523.00,1.22
7522.00,1.22
7521.00,1.22
7520.00,1.22
7519.00,1.22
7518.00,1.21
7517.00,1.21
7516.00,1.21
7515.00,1.21
7514.00,1.21
7513.00,1.21
7512.00,1.21
7511.00,1.21
7510.00,1.21
7509.00,1.22
7508.00,1.22
7507.00,1.22
7506.00,1.22
7505.00,1.22
7504.00,1.22
7503.00,1.22
7502.00,1.22
7501.00,1.22
7500.00,1.22
7499.00,1.22
7498.00,1.22
7497.00,1.22
7496.00,1.22
7495.00,1.22
7494.00,1.22
7493.00,1.22
7492.00,1.22
7491.00,1.22
7490.00,1.21
7489.00,1.21
7488.00,1.21
7487.00,1.21
7486.00,1.21
7485.00,1.21
7484.00,1.21
7483.00,1.21
7482.00,1.21
7481.00,1.21
7480.00,1.21
7479.00,1.21
7478.00,1.21
7477.00,1.21
7476.00,1.20
7475.00,1.20
7474.00,1.20
7473.00,1.20
7472.00,1.20
7471.00,1.20
7470.00,1.20
7469.00,1.20
7468.00,1.20
7467.00,1.20
7466.00,1.20
7465.00,1.20
7464.00,1.20
7463.00,1.20
7462.00,1.20
7461.00,1.20
7460.00,1.19
7459.00,1.19
7458.00,1.19
7457.00,1.19
7456.00,1.19
7455.00,1.19
7454.00,1.19
7453.00,1.19
7452.00,1.19
7451.00,1.19
7450.00,1.19
7449.00,1.19
7448.00,1.19
7447.00,1.19
7446.00,1.19
7445.00,1.19
7444.00,1.19
7443.00,1.19
7442.00,1.19
7441.00,1.19
7440.00,1.19
7439.00,1.19
7438.00,1.19
7437.00,1.19
7436.00,1.19
7435.00,1.19
7434.00,1.19
7433.00,1.19
7432.00,1.19
7431.00,1.19
7430.00,1.19
7429.00,1.19
7428.00,1.19
7427.00,1.19
7426.00,1.19
7425.00,1.19
7424.00,1.19
7423.00,1.19
7422.00,1.19
7421.00,1.19
7420.00,1.19
7419.00,1.19
7418.00,1.19
7417.00,1.19
7416.00,1.19
7415.00,1.19
7414.00,1.19
7413.00,1.19
7412.00,1.19
7411.00,1.19
7410.00,1.19
7409.00,1.19
7408.00,1.19
7407.00,1.18
7406.00,1.18
7405.00,1.18
7404.00,1.18
7403.00,1.18
7402.00,1.18
7401.00,1.18
7400.00,1.18
7399.00,1.18
7398.00,1.18
7397.00,1.18
7396.00,1.18
7395.00,1.18
7394.00,1.18
7393.00,1.18
7392.00,1.18
7391.00,1.18
7390.00,1.18
7389.00,1.18
7388.00,1.18
7387.00,1.18
7386.00,1.18
7385.00,1.18
7384.00,1.18
7383.00,1.18
7382.00,1.18
7381.00,1.18
7380.00,1.18
7379.00,1.17
7378.00,1.17
7377.00,1.17
7376.00,1.17
7375.00,1.17
7374.00,1.17
7373.00,1.17
7372.00,1.17
7371.00,1.17
7370.00,1.17
7369.00,1.17
7368.00,1.17
7367.00,1.17
7366.00,1.17
7365.00,1.17
7364.00,1.17
7363.00,1.17
7362.00,1.17
7361.00,1.17
7360.00,1.17
7359.00,1.17
7358.00,1.17
7357.00,1.16
7356.00,1.16
7355.00,1.16
7354.00,1.16
7353.00,1.16
7352.00,1.16
7351.00,1.16
7350.00,1.16
7349.00,1.16
7348.00,1.16
7347.00,1.16
7346.00,1.16
7345.00,1.16
7344.00,1.16
7343.00,1.16
7342.00,1.15
7341.00,1.15
7340.00,1.15
7339.00,1.15
7338.00,1.15
7337.00,1.15
7336.00,1.15
7335.00,1.15
7334.00,1.15
7333.00,1.15
7332.00,1.15
7331.00,1.15
7330.00,1.15
7329.00,1.15
7328.00,1.15
7327.00,1.15
7326.00,1.15
7325.00,1.15
7324.00,1.15
7323.00,1.15
7322.00,1.15
7321.00,1.15
7320.00,1.15
7319.00,1.15
7318.00,1.15
7317.00,1.15
7316.00,1.15
7315.00,1.15
7314.00,1.15
7313.00,1.15
7312.00,1.15
7311.00,1.15
7310.00,1.15
7309.00,1.15
7308.00,1.15
7307.00,1.15
7306.00,1.15
7305.00,1.14
7304.00,1.14
7303.00,1.14
7302.00,1.14
7301.00,1.14
7300.00,1.14
7299.00,1.14
7298.00,1.14
7297.00,1.14
7296.00,1.14
7295.00,1.14
7294.00,1.14
7293.00,1.14
7292.00,1.14
7291.00,1.13
7290.00,1.13
7289.00,1.13
7288.00,1.13
7287.00,1.13
7286.00,1.13
7285.00,1.13
7284.00,1.13
7283.00,1.13
7282.00,1.13
7281.00,1.12
7280.00,1.12
7279.00,1.12
7278.00,1.12
7277.00,1.12
7276.00,1.12
7275.00,1.12
7274.00,1.12
7273.00,1.12
7272.00,1.12
7271.00,1.12
7270.00,1.12
7269.00,1.12
7268.00,1.12
7267.00,1.12
7266.00,1.12
7265.00,1.12
7264.00,1.11
7263.00,1.11
7262.00,1.11
7261.00,1.11
7260.00,1.11
7259.00,1.11
7258.00,1.11
7257.00,1.11
7256.00,1.10
7255.00,1.10
7254.00,1.10
7253.00,1.10
7252.00,1.10
7251.00,1.10
7250.00,1.09
7249.00,1.09
7248.00,1.09
7247.00,1.09
7246.00,1.09
7245.00,1.09
7244.00,1.09
7243.00,1.08
7242.00,1.08
7241.00,1.08
7240.00,1.08
7239.00,1.08
7238.00,1.08
7237.00,1.08
7236.00,1.08
7235.00,1.08
7234.00,1.08
7233.00,1.08
7232.00,1.08
7231.00,1.08
7230.00,1.08
7229.00,1.08
7228.00,1.07
7227.00,1.07
7226.00,1.07
7225.00,1.07
7224.00,1.07
7223.00,1.07
7222.00,1.06
7221.00,1.06
7220.00,1.06
7219.00,1.06
7218.00,1.06
7217.00,1.05
7216.00,1.05
7215.00,1.05
7214.00,1.05
7213.00,1.05
7212.00,1.04
7211.00,1.04
7210.00,1.04
7209.00,1.04
7208.00,1.04
7207.00,1.03
7206.00,1.03
7205.00,1.03
7204.00,1.03
7203.00,1.02
7202.00,1.02
7201.00,1.02
7200.00,1.02
7199.00,1.01
7198.00,1.01
7197.00,1.01
7196.00,1.01
7195.00,1.00
7194.00,1.00
7193.00,1.00
7192.00,1.00
7191.00,1.00
7190.00,0.99
7189.00,0.99
7188.00,0.99
7187.00,0.99
7186.00,0.99
7185.00,0.98
7184.00,0.98
7183.00,0.98
7182.00,0.98
7181.00,0.98
7180.00,0.97
7179.00,0.97
7178.00,0.97
7177.00,0.96
7176.00,0.96
7175.00,0.96
7174.00,0.96
7173.00,0.95
7172.00,0.95
7171.00,0.95
7170.00,0.95
7169.00,0.94
7168.00,0.94
7167.00,0.94
7166.00,0.94
7165.00,0.94
7164.00,0.94
7163.00,0.94
7162.00,0.94
7161.00,0.94
7160.00,0.94
7159.00,0.93
7158.00,0.93
7157.00,0.93
7156.00,0.93
7155.00,0.93
7154.00,0.93
7153.00,0.93
7152.00,0.93
7151.00,0.92
7150.00,0.92
7149.00,0.92
7148.00,0.92
7147.00,0.92
7146.00,0.91
7145.00,0.91
7144.00,0.91
7143.00,0.91
7142.00,0.90
7141.00,0.90
7140.00,0.90
7139.00,0.90
7138.00,0.89
7137.00,0.89
7136.00,0.89
7135.00,0.89
7134.00,0.89
7133.00,0.88
7132.00,0.88
7131.00,0.88
7130.00,0.88
7129.00,0.88
7128.00,0.87
7127.00,0.87
7126.00,0.87
7125.00,0.87
7124.00,0.87
7123.00,0.87
7122.00,0.86
7121.00,0.86
7120.00,0.86
7119.00,0.86
7118.00,0.86
7117.00,0.86
7116.00,0.86
7115.00,0.85
7114.00,0.85
7113.00,0.85
7112.00,0.85
7111.00,0.85
7110.00,0.85
7109.00,0.85
7108.00,0.84
7107.00,0.84
7106.00,0.84
7105.00,0.84
7104.00,0.84
7103.00,0.83
7102.00,0.83
7101.00,0.83
7100.00,0.83
7099.00,0.82
7098.00,0.82
7097.00,0.82
7096.00,0.82
7095.00,0.81
7094.00,0.81
7093.00,0.81
7092.00,0.81
7091.00,0.80
7090.00,0.80
7089.00,0.80
7088.00,0.80
7087.00,0.80
7086.00,0.80
7085.00,0.80
7084.00,0.79
7083.00,0.79
7082.00,0.79
7081.00,0.79
7080.00,0.79
7079.00,0.79
7078.00,0.79
7077.00,0.78
7076.00,0.78
7075.00,0.78
7074.00,0.78
7073.00,0.78
7072.00,0.78
7071.00,0.77
7070.00,0.77
7069.00,0.77
7068.00,0.77
7067.00,0.77
7066.00,0.77
7065.00,0.76
7064.00,0.76
7063.00,0.76
7062.00,0.76
7061.00,0.76
7060.00,0.76
7059.00,0.76
7058.00,0.76
7057.00,0.76
7056.00,0.76
7055.00,0.75
7054.00,0.75
7053.00,0.75
7052.00,0.75
7051.00,0.75
7050.00,0.75
7049.00,0.75
7048.00,0.74
7047.00,0.74
7046.00,0.74
7045.00,0.74
7044.00,0.74
7043.00,0.74
7042.00,0.73
7041.00,0.73
7040.00,0.73
7039.00,0.73
7038.00,0.73
7037.00,0.73
7036.00,0.73
7035.00,0.73
7034.00,0.72
7033.00,0.72
7032.00,0.72
7031.00,0.72
7030.00,0.72
7029.00,0.72
7028.00,0.72
7027.00,0.72
7026.00,0.71
7025.00,0.71
7024.00,0.71
7023.00,0.71
7022.00,0.71
7021.00,0.71
7020.00,0.71
7019.00,0.71
7018.00,0.71
7017.00,0.71
7016.00,0.71
7015.00,0.71
7014.00,0.71
7013.00,0.71
7012.00,0.71
7011.00,0.71
7010.00,0.71
7009.00,0.71
7008.00,0.70
7007.00,0.70
7006.00,0.70
7005.00,0.70
7004.00,0.70
7003.00,0.70
7002.00,0.70
7001.00,0.70
7000.00,0.70
6999.00,0.70
6998.00,0.70
6997.00,0.70
6996.00,0.69
6995.00,0.69
6994.00,0.69
6993.00,0.69
6992.00,0.69
6991.00,0.69
6990.00,0.69
6989.00,0.69
6988.00,0.69
6987.00,0.68
6986.00,0.68
6985.00,0.68
6984.00,0.68
6983.00,0.68
6982.00,0.68
6981.00,0.68
6980.00,0.68
6979.00,0.68
6978.00,0.68
6977.00,0.68
6976.00,0.68
6975.00,0.68
6974.00,0.68
6973.00,0.68
6972.00,0.68
6971.00,0.68
6970.00,0.68
6969.00,0.68
6968.00,0.68
6967.00,0.68
6966.00,0.68
6965.00,0.68
6964.00,0.68
6963.00,0.68
6962.00,0.68
6961.00,0.68
6960.00,0.68
6959.00,0.68
6958.00,0.68
6957.00,0.68
6956.00,0.68
6955.00,0.68
6954.00,0.68
6953.00,0.68
6952.00,0.68
6951.00,0.68
6950.00,0.67
6949.00,0.67
6948.00,0.67
6947.00,0.67
6946.00,0.67
6945.00,0.67
6944.00,0.66
6943.00,0.66
6942.00,0.66
6941.00,0.66
6940.00,0.66
6939.00,0.66
6938.00,0.66
6937.00,0.66
6936.00,0.66
6935.00,0.66
6934.00,0.66
6933.00,0.66
6932.00,0.66
6931.00,0.66
6930.00,0.66
6929.00,0.66
6928.00,0.66
6927.00,0.66
6926.00,0.66
6925.00,0.66
6924.00,0.66
6923.00,0.66
6922.00,0.66
6921.00,0.66
6920.00,0.66
6919.00,0.66
6918.00,0.66
6917.00,0.66
6916.00,0.66
6915.00,0.66
6914.00,0.66
6913.00,0.65
6912.00,0.65
6911.00,0.65
6910.00,0.65
6909.00,0.65
6908.00,0.65
6907.00,0.65
6906.00,0.65
6905.00,0.65
6904.00,0.65
6903.00,0.65
6902.00,0.65
6901.00,0.66
6900.00,0.66
6899.00,0.66
6898.00,0.66
6897.00,0.66
6896.00,0.66
6895.00,0.66
6894.00,0.66
6893.00,0.66
6892.00,0.66
6891.00,0.66
6890.00,0.66
6889.00,0.66
6888.00,0.66
6887.00,0.66
6886.00,0.66
6885.00,0.66
6884.00,0.66
6883.00,0.65
6882.00,0.65
6881.00,0.65
6880.00,0.65
6879.00,0.65
6878.00,0.65
6877.00,0.65
6876.00,0.65
6875.00,0.65
6874.00,0.64
6873.00,0.64
6872.00,0.64
6871.00,0.64
6870.00,0.64
6869.00,0.64
6868.00,0.64
6867.00,0.64
6866.00,0.64
6865.00,0.64
6864.00,0.64
6863.00,0.64
6862.00,0.64
6861.00,0.64
6860.00,0.64
6859.00,0.64
6858.00,0.64
6857.00,0.64
6856.00,0.64
6855.00,0.64
6854.00,0.64
6853.00,0.64
6852.00,0.64
6851.00,0.64
6850.00,0.64
6849.00,0.64
6848.00,0.64
6847.00,0.64
6846.00,0.64
6845.00,0.64
6844.00,0.64
6843.00,0.64
6842.00,0.64
6841.00,0.64
6840.00,0.64
6839.00,0.64
6838.00,0.64
6837.00,0.64
6836.00,0.64
6835.00,0.64
6834.00,0.64
6833.00,0.64
6832.00,0.64
6831.00,0.64
6830.00,0.64
6829.00,0.64
6828.00,0.64
6827.00,0.65
6826.00,0.65
6825.00,0.65
6824.00,0.65
6823.00,0.65
6822.00,0.65
6821.00,0.65
6820.00,0.65
6819.00,0.65
6818.00,0.65
6817.00,0.65
6816.00,0.65
6815.00,0.66
6814.00,0.66
6813.00,0.66
6812.00,0.66
6811.00,0.66
6810.00,0.66
6809.00,0.66
6808.00,0.66
6807.00,0.66
6806.00,0.66
6805.00,0.66
6804.00,0.66
6803.00,0.66
6802.00,0.66
6801.00,0.66
6800.00,0.66
6799.00,0.66
6798.00,0.66
6797.00,0.67
6796.00,0.67
6795.00,0.67
6794.00,0.67
6793.00,0.67
6792.00,0.67
6791.00,0.67
6790.00,0.67
6789.00,0.67
6788.00,0.67
6787.00,0.67
6786.00,0.67
6785.00,0.67
6784.00,0.67
6783.00,0.67
6782.00,0.67
6781.00,0.67
6780.00,0.67
6779.00,0.67
6778.00,0.67
6777.00,0.68
6776.00,0.68
6775.00,0.68
6774.00,0.68
6773.00,0.68
6772.00,0.68
6771.00,0.68
6770.00,0.68
6769.00,0.68
6768.00,0.68
6767.00,0.68
6766.00,0.68
6765.00,0.68
6764.00,0.68
6763.00,0.68
6762.00,0.68
6761.00,0.69
6760.00,0.69
6759.00,0.69
6758.00,0.69
6757.00,0.69
6756.00,0.69
6755.00,0.69
6754.00,0.69
6753.00,0.69
6752.00,0.69
6751.00,0.69
6750.00,0.69
6749.00,0.69
6748.00,0.69
6747.00,0.69
6746.00,0.69
6745.00,0.69
6744.00,0.69
6743.00,0.69
6742.00,0.69
6741.00,0.69
6740.00,0.69
6739.00,0.69
6738.00,0.69
6737.00,0.69
6736.00,0.69
6735.00,0.69
6734.00,0.69
6733.00,0.69
6732.00,0.70
6731.00,0.70
6730.00,0.70
6729.00,0.70
6728.00,0.70
6727.00,0.70
6726.00,0.70
6725.00,0.70
6724.00,0.71
6723.00,0.71
6722.00,0.71
6721.00,0.71
6720.00,0.71
6719.00,0.71
6718.00,0.71
6717.00,0.71
6716.00,0.72
6715.00,0.72
6714.00,0.72
6713.00,0.72
6712.00,0.72
6711.00,0.72
6710.00,0.72
6709.00,0.72
6708.00,0.72
6707.00,0.72
6706.00,0.72
6705.00,0.72
6704.00,0.72
6703.00,0.72
6702.00,0.72
6701.00,0.72
6700.00,0.72
6699.00,0.72
6698.00,0.72
6697.00,0.72
6696.00,0.72
6695.00,0.72
6694.00,0.72
6693.00,0.72
6692.00,0.72
6691.00,0.73
6690.00,0.73
6689.00,0.73
6688.00,0.73
6687.00,0.73
6686.00,0.73
6685.00,0.73
6684.00,0.73
6683.00,0.74
6682.00,0.74
6681.00,0.74
6680.00,0.74
6679.00,0.74
6678.00,0.74
6677.00,0.74
6676.00,0.75
6675.00,0.75
6674.00,0.75
6673.00,0.75
6672.00,0.75
6671.00,0.75
6670.00,0.75
6669.00,0.75
6668.00,0.76
6667.00,0.76
6666.00,0.76
6665.00,0.76
6664.00,0.76
6663.00,0.76
6662.00,0.76
6661.00,0.76
6660.00,0.76
6659.00,0.76
6658.00,0.76
6657.00,0.76
6656.00,0.76
6655.00,0.76
6654.00,0.76
6653.00,0.76
6652.00,0.76
6651.00,0.76
6650.00,0.76
6649.00,0.77
6648.00,0.77
6647.00,0.77
6646.00,0.77
6645.00,0.77
6644.00,0.77
6643.00,0.77
6642.00,0.77
6641.00,0.77
6640.00,0.77
6639.00,0.78
6638.00,0.78
6637.00,0.78
6636.00,0.78
6635.00,0.78
6634.00,0.78
6633.00,0.78
6632.00,0.78
6631.00,0.78
6630.00,0.78
6629.00,0.78
6628.00,0.78
6627.00,0.78
6626.00,0.79
6625.00,0.79
6624.00,0.79
6623.00,0.79
6622.00,0.79
6621.00,0.79
6620.00,0.79
6619.00,0.79
6618.00,0.79
6617.00,0.79
6616.00,0.79
6615.00,0.79
6614.00,0.80
6613.00,0.80
6612.00,0.80
6611.00,0.80
6610.00,0.80
6609.00,0.80
6608.00,0.80
6607.00,0.80
6606.00,0.80
6605.00,0.80
6604.00,0.80
6603.00,0.80
6602.00,0.80
6601.00,0.80
6600.00,0.81
6599.00,0.81
6598.00,0.81
6597.00,0.81
6596.00,0.81
6595.00,0.81
6594.00,0.81
6593.00,0.81
6592.00,0.82
6591.00,0.82
6590.00,0.82
6589.00,0.82
6588.00,0.82
6587.00,0.82
6586.00,0.82
6585.00,0.82
6584.00,0.82
6583.00,0.82
6582.00,0.82
6581.00,0.82
6580.00,0.82
6579.00,0.82
6578.00,0.82
6577.00,0.82
6576.00,0.82
6575.00,0.82
6574.00,0.82
6573.00,0.82
6572.00,0.82
6571.00,0.82
6570.00,0.82
6569.00,0.82
6568.00,0.82
6567.00,0.82
6566.00,0.82
6565.00,0.82
6564.00,0.82
6563.00,0.82
6562.00,0.83
6561.00,0.83
6560.00,0.83
6559.00,0.83
6558.00,0.83
6557.00,0.83
6556.00,0.83
6555.00,0.83
6554.00,0.83
6553.00,0.83
6552.00,0.83
6551.00,0.83
6550.00,0.84
6549.00,0.84
6548.00,0.84
6547.00,0.84
6546.00,0.84
6545.00,0.84
6544.00,0.84
6543.00,0.84
6542.00,0.84
6541.00,0.84
6540.00,0.84
6539.00,0.84
6538.00,0.84
6537.00,0.84
6536.00,0.84
6535.00,0.84
6534.00,0.85
6533.00,0.85
6532.00,0.85
6531.00,0.85
6530.00,0.85
6529.00,0.85
6528.00,0.85
6527.00,0.85
6526.00,0.85
6525.00,0.85
6524.00,0.86
6523.00,0.86
6522.00,0.86
6521.00,0.86
6520.00,0.86
6519.00,0.86
6518.00,0.86
6517.00,0.86
6516.00,0.86
6515.00,0.86
6514.00,0.86
6513.00,0.86
6512.00,0.86
6511.00,0.86
6510.00,0.86
6509.00,0.86
6508.00,0.86
6507.00,0.86
6506.00,0.87
6505.00,0.87
6504.00,0.87
6503.00,0.87
6502.00,0.87
6501.00,0.87
6500.00,0.87
6499.00,0.87
6498.00,0.87
6497.00,0.87
6496.00,0.87
6495.00,0.87
6494.00,0.87
6493.00,0.87
6492.00,0.87
6491.00,0.87
6490.00,0.87
6489.00,0.87
6488.00,0.87
6487.00,0.87
6486.00,0.87
6485.00,0.87
6484.00,0.87
6483.00,0.88
6482.00,0.88
6481.00,0.88
6480.00,0.88
6479.00,0.88
6478.00,0.88
6477.00,0.88
6476.00,0.88
6475.00,0.88
6474.00,0.88
6473.00,0.88
6472.00,0.88
6471.00,0.88
6470.00,0.88
6469.00,0.88
6468.00,0.88
6467.00,0.89
6466.00,0.89
6465.00,0.89
6464.00,0.89
6463.00,0.89
6462.00,0.89
6461.00,0.89
6460.00,0.89
6459.00,0.89
6458.00,0.89
6457.00,0.89
6456.00,0.89
6455.00,0.89
6454.00,0.89
6453.00,0.89
6452.00,0.89
6451.00,0.89
6450.00,0.89
6449.00,0.89
6448.00,0.89
6447.00,0.89
6446.00,0.89
6445.00,0.89
6444.00,0.89
6443.00,0.89
6442.00,0.89
6441.00,0.89
6440.00,0.89
6439.00,0.89
6438.00,0.89
6437.00,0.90
6436.00,0.90
6435.00,0.90
6434.00,0.90
6433.00,0.90
6432.00,0.90
6431.00,0.90
6430.00,0.90
6429.00,0.90
6428.00,0.90
6427.00,0.90
6426.00,0.90
6425.00,0.90
6424.00,0.90
6423.00,0.90
6422.00,0.90
6421.00,0.90
6420.00,0.90
6419.00,0.90
6418.00,0.90
6417.00,0.90
6416.00,0.90
6415.00,0.90
6414.00,0.90
6413.00,0.90
6412.00,0.90
6411.00,0.90
6410.00,0.90
6409.00,0.90
6408.00,0.90
6407.00,0.90
6406.00,0.91
6405.00,0.91
6404.00,0.91
6403.00,0.91
6402.00,0.91
6401.00,0.91
6400.00,0.91
6399.00,0.91
6398.00,0.91
6397.00,0.91
6396.00,0.91
6395.00,0.91
6394.00,0.91
6393.00,0.91
6392.00,0.91
6391.00,0.91
6390.00,0.91
6389.00,0.91
6388.00,0.91
6387.00,0.91
6386.00,0.91
6385.00,0.91
6384.00,0.91
6383.00,0.91
6382.00,0.91
6381.00,0.91
6380.00,0.91
6379.00,0.92
6378.00,0.92
6377.00,0.92
6376.00,0.92
6375.00,0.92
6374.00,0.92
6373.00,0.92
6372.00,0.92
6371.00,0.92
6370.00,0.92
6369.00,0.92
6368.00,0.92
6367.00,0.92
6366.00,0.92
6365.00,0.92
6364.00,0.92
6363.00,0.93
6362.00,0.93
6361.00,0.93
6360.00,0.93
6359.00,0.93
6358.00,0.93
6357.00,0.93
6356.00,0.93
6355.00,0.93
6354.00,0.93
6353.00,0.93
6352.00,0.93
6351.00,0.93
6350.00,0.93
6349.00,0.93
6348.00,0.93
6347.00,0.93
6346.00,0.93
6345.00,0.93
6344.00,0.93
6343.00,0.93
6342.00,0.93
6341.00,0.93
6340.00,0.93
6339.00,0.93
6338.00,0.93
6337.00,0.93
6336.00,0.93
6335.00,0.93
6334.00,0.93
6333.00,0.93
6332.00,0.93
6331.00,0.93
6330.00,0.93
6329.00,0.93
6328.00,0.93
6327.00,0.93
6326.00,0.94
6325.00,0.94
6324.00,0.94
6323.00,0.94
6322.00,0.94
6321.00,0.94
6320.00,0.94
6319.00,0.94
6318.00,0.94
6317.00,0.94
6316.00,0.94
6315.00,0.94
6314.00,0.94
6313.00,0.94
6312.00,0.94
6311.00,0.94
6310.00,0.95
6309.00,0.95
6308.00,0.95
6307.00,0.95
6306.00,0.95
6305.00,0.95
6304.00,0.95
6303.00,0.95
6302.00,0.95
6301.00,0.95
6300.00,0.95
6299.00,0.95
6298.00,0.96
6297.00,0.96
6296.00,0.96
6295.00,0.96
6294.00,0.96
6293.00,0.96
6292.00,0.96
6291.00,0.96
6290.00,0.96
6289.00,0.97
6288.00,0.97
6287.00,0.97
6286.00,0.97
6285.00,0.97
6284.00,0.97
6283.00,0.97
6282.00,0.97
6281.00,0.97
6280.00,0.97
6279.00,0.97
6278.00,0.97
6277.00,0.97
6276.00,0.98
6275.00,0.98
6274.00,0.98
6273.00,0.98
6272.00,0.98
6271.00,0.98
6270.00,0.98
6269.00,0.98
6268.00,0.98
6267.00,0.98
6266.00,0.98
6265.00,0.98
6264.00,0.98
6263.00,0.98
6262.00,0.99
6261.00,0.99
6260.00,0.99
6259.00,0.99
6258.00,0.99
6257.00,0.99
6256.00,0.99
6255.00,0.99
6254.00,0.99
6253.00,0.99
6252.00,0.99
6251.00,0.99
6250.00,1.00
6249.00,1.00
6248.00,1.00
6247.00,1.00
6246.00,1.00
6245.00,1.00
6244.00,1.00
6243.00,1.00
6242.00,1.00
6241.00,1.00
6240.00,1.00
6239.00,1.00
6238.00,1.00
6237.00,1.00
6236.00,1.00
6235.00,1.00
6234.00,1.00
6233.00,1.01
6232.00,1.01
6231.00,1.01
6230.00,1.01
6229.00,1.01
6228.00,1.01
6227.00,1.01
6226.00,1.02
6225.00,1.02
6224.00,1.02
6223.00,1.02
6222.00,1.02
6221.00,1.02
6220.00,1.02
6219.00,1.03
6218.00,1.03
6217.00,1.03
6216.00,1.03
6215.00,1.03
6214.00,1.03
6213.00,1.03
6212.00,1.03
6211.00,1.03
6210.00,1.03
6209.00,1.03
6208.00,1.03
6207.00,1.04
6206.00,1.04
6205.00,1.04
6204.00,1.04
6203.00,1.04
6202.00,1.04
6201.00,1.04
6200.00,1.04
6199.00,1.04
6198.00,1.04
6197.00,1.04
6196.00,1.04
6195.00,1.04
6194.00,1.04
6193.00,1.04
6192.00,1.05
6191.00,1.05
6190.00,1.05
6189.00,1.05
6188.00,1.05
6187.00,1.05
6186.00,1.05
6185.00,1.05
6184.00,1.05
6183.00,1.05
6182.00,1.06
6181.00,1.06
6180.00,1.06
6179.00,1.06
6178.00,1.06
6177.00,1.06
6176.00,1.06
6175.00,1.07
6174.00,1.07
6173.00,1.07
6172.00,1.07
6171.00,1.07
6170.00,1.07
6169.00,1.07
6168.00,1.07
6167.00,1.07
6166.00,1.07
6165.00,1.07
6164.00,1.08
6163.00,1.08
6162.00,1.08
6161.00,1.08
6160.00,1.08
6159.00,1.08
6158.00,1.08
6157.00,1.08
6156.00,1.08
6155.00,1.08
6154.00,1.08
6153.00,1.09
6152.00,1.09
6151.00,1.09
6150.00,1.09
6149.00,1.09
6148.00,1.09
6147.00,1.09
6146.00,1.10
6145.00,1.10
6144.00,1.10
6143.00,1.10
6142.00,1.10
6141.00,1.10
6140.00,1.10
6139.00,1.10
6138.00,1.11
6137.00,1.11
6136.00,1.11
6135.00,1.11
6134.00,1.11
6133.00,1.11
6132.00,1.11
6131.00,1.11
6130.00,1.11
6129.00,1.11
6128.00,1.11
6127.00,1.11
6126.00,1.11
6125.00,1.11
6124.00,1.11
6123.00,1.11
6122.00,1.11
6121.00,1.11
6120.00,1.11
6119.00,1.11
6118.00,1.11
6117.00,1.11
6116.00,1.12
6115.00,1.12
6114.00,1.12
6113.00,1.12
6112.00,1.12
6111.00,1.12
6110.00,1.12
6109.00,1.12
6108.00,1.13
6107.00,1.13
6106.00,1.13
6105.00,1.13
6104.00,1.13
6103.00,1.13
6102.00,1.13
6101.00,1.14
6100.00,1.14
6099.00,1.14
6098.00,1.14
6097.00,1.14
6096.00,1.14
6095.00,1.14
6094.00,1.14
6093.00,1.14
6092.00,1.15
6091.00,1.15
6090.00,1.15
6089.00,1.15
6088.00,1.15
6087.00,1.15
6086.00,1.15
6085.00,1.15
6084.00,1.15
6083.00,1.15
6082.00,1.15
6081.00,1.15
6080.00,1.15
6079.00,1.15
6078.00,1.16
6077.00,1.16
6076.00,1.16
6075.00,1.16
6074.00,1.16
6073.00,1.16
6072.00,1.16
6071.00,1.16
6070.00,1.16
6069.00,1.16
6068.00,1.16
6067.00,1.16
6066.00,1.16
6065.00,1.16
6064.00,1.16
6063.00,1.17
6062.00,1.17
6061.00,1.17
6060.00,1.17
6059.00,1.17
6058.00,1.17
6057.00,1.17
6056.00,1.17
6055.00,1.17
6054.00,1.17
6053.00,1.17
6052.00,1.17
6051.00,1.17
6050.00,1.17
6049.00,1.17
6048.00,1.17
6047.00,1.17
6046.00,1.17
6045.00,1.17
6044.00,1.17
6043.00,1.17
6042.00,1.17
6041.00,1.17
6040.00,1.18
6039.00,1.18
6038.00,1.18
6037.00,1.18
6036.00,1.18
6035.00,1.18
6034.00,1.18
6033.00,1.17
6032.00,1.17
6031.00,1.17
6030.00,1.17
6029.00,1.17
6028.00,1.17
6027.00,1.17
6026.00,1.17
6025.00,1.17
6024.00,1.17
6023.00,1.17
6022.00,1.17
6021.00,1.17
6020.00,1.17
6019.00,1.17
6018.00,1.17
6017.00,1.17
6016.00,1.17
6015.00,1.17
6014.00,1.17
6013.00,1.17
6012.00,1.17
6011.00,1.17
6010.00,1.17
6009.00,1.17
6008.00,1.17
6007.00,1.17
6006.00,1.17
6005.00,1.17
6004.00,1.17
6003.00,1.17
6002.00,1.17
6001.00,1.17
6000.00,1.17
5999.00,1.17
5998.00,1.17
5997.00,1.17
5996.00,1.17
5995.00,1.17
5994.00,1.17
5993.00,1.17
5992.00,1.17
5991.00,1.16
5990.00,1.16
5989.00,1.16
5988.00,1.16
5987.00,1.16
5986.00,1.16
5985.00,1.16
5984.00,1.16
5983.00,1.15
5982.00,1.15
5981.00,1.15
5980.00,1.15
5979.00,1.15
5978.00,1.14
5977.00,1.14
5976.00,1.14
5975.00,1.14
5974.00,1.13
5973.00,1.13
5972.00,1.13
5971.00,1.12
5970.00,1.12
5969.00,1.11
5968.00,1.11
5967.00,1.11
5966.00,1.10
5965.00,1.10
5964.00,1.09
5963.00,1.08
5962.00,1.08
5961.00,1.07
5960.00,1.07
5959.00,1.06
5958.00,1.05
5957.00,1.05
5956.00,1.04
5955.00,1.04
5954.00,1.03
5953.00,1.03
5952.00,1.02
5951.00,1.02
5950.00,1.01
5949.00,1.01
5948.00,1.00
5947.00,1.00
5946.00,1.00
5945.00,1.00
5944.00,0.99
5943.00,0.99
5942.00,0.99
5941.00,0.99
5940.00,0.99
5939.00,0.98
5938.00,0.98
5937.00,0.98
5936.00,0.98
5935.00,0.98
5934.00,0.98
5933.00,0.98
5932.00,0.98
5931.00,0.98
5930.00,0.98
5929.00,0.98
5928.00,0.98
5927.00,0.98
5926.00,0.97
5925.00,0.97
5924.00,0.97
5923.00,0.97
5922.00,0.97
5921.00,0.97
5920.00,0.96
5919.00,0.96
5918.00,0.96
5917.00,0.96
5916.00,0.96
5915.00,0.95
5914.00,0.95
5913.00,0.95
5912.00,0.95
5911.00,0.94
5910.00,0.94
5909.00,0.94
5908.00,0.94
5907.00,0.94
5906.00,0.94
5905.00,0.93
5904.00,0.93
5903.00,0.93
5902.00,0.93
5901.00,0.93
5900.00,0.93
5899.00,0.93
5898.00,0.93
5897.00,0.94
5896.00,0.94
5895.00,0.94
5894.00,0.94
5893.00,0.94
5892.00,0.94
5891.00,0.95
5890.00,0.95
5889.00,0.95
5888.00,0.95
5887.00,0.96
5886.00,0.96
5885.00,0.96
5884.00,0.96
5883.00,0.96
5882.00,0.97
5881.00,0.97
5880.00,0.97
5879.00,0.97
5878.00,0.97
5877.00,0.97
5876.00,0.98
5875.00,0.98
5874.00,0.98
5873.00,0.98
5872.00,0.98
5871.00,0.98
5870.00,0.99
5869.00,0.99
5868.00,0.99
5867.00,0.99
5866.00,0.99
5865.00,0.99
5864.00,0.99
5863.00,1.00
5862.00,1.00
5861.00,1.00
5860.00,1.00
5859.00,1.00
5858.00,1.00
5857.00,1.00
5856.00,1.01
5855.00,1.01
5854.00,1.01
5853.00,1.01
5852.00,1.01
5851.00,1.01
5850.00,1.01
5849.00,1.01
5848.00,1.01
5847.00,1.01
5846.00,1.01
5845.00,1.01
5844.00,1.01
5843.00,1.01
5842.00,1.01
5841.00,1.01
5840.00,1.01
5839.00,1.01
5838.00,1.01
5837.00,1.01
5836.00,1.01
5835.00,1.01
5834.00,1.01
5833.00,1.01
5832.00,1.01
5831.00,1.01
5830.00,1.01
5829.00,1.01
5828.00,1.01
5827.00,1.01
5826.00,1.01
5825.00,1.01
5824.00,1.01
5823.00,1.01
5822.00,1.01
5821.00,1.01
5820.00,1.01
5819.00,1.01
5818.00,1.01
5817.00,1.01
5816.00,1.01
5815.00,1.01
5814.00,1.01
5813.00,1.01
5812.00,1.01
5811.00,1.01
5810.00,1.01
5809.00,1.01
5808.00,1.01
5807.00,1.01
5806.00,1.01
5805.00,1.01
5804.00,1.01
5803.00,1.01
5802.00,1.01
5801.00,1.01
5800.00,1.01
5799.00,1.01
5798.00,1.00
5797.00,1.00
5796.00,1.00
5795.00,1.00
5794.00,1.00
5793.00,1.00
5792.00,0.99
5791.00,0.99
5790.00,0.99
5789.00,0.99
5788.00,0.99
5787.00,0.99
5786.00,0.98
5785.00,0.98
5784.00,0.98
5783.00,0.98
5782.00,0.98
5781.00,0.98
5780.00,0.98
5779.00,0.98
5778.00,0.97
5777.00,0.97
5776.00,0.97
5775.00,0.97
5774.00,0.97
5773.00,0.97
5772.00,0.97
5771.00,0.97
5770.00,0.97
5769.00,0.97
5768.00,0.97
5767.00,0.97
5766.00,0.97
5765.00,0.97
5764.00,0.97
5763.00,0.97
5762.00,0.98
5761.00,0.98
5760.00,0.98
5759.00,0.98
5758.00,0.99
5757.00,0.99
5756.00,0.99
5755.00,1.00
5754.00,1.00
5753.00,1.00
5752.00,1.00
5751.00,1.01
5750.00,1.01
5749.00,1.01
5748.00,1.02
5747.00,1.02
5746.00,1.02
5745.00,1.02
5744.00,1.03
5743.00,1.03
5742.00,1.03
5741.00,1.03
5740.00,1.03
5739.00,1.04
5738.00,1.04
5737.00,1.04
5736.00,1.04
5735.00,1.04
5734.00,1.05
5733.00,1.05
5732.00,1.05
5731.00,1.05
5730.00,1.05
5729.00,1.05
5728.00,1.05
5727.00,1.05
5726.00,1.05
5725.00,1.05
5724.00,1.05
5723.00,1.05
5722.00,1.05
5721.00,1.05
5720.00,1.05
5719.00,1.05
5718.00,1.06
5717.00,1.06
5716.00,1.06
5715.00,1.06
5714.00,1.06
5713.00,1.06
5712.00,1.06
5711.00,1.06
5710.00,1.06
5709.00,1.06
5708.00,1.06
5707.00,1.06
5706.00,1.06
5705.00,1.06
5704.00,1.06
5703.00,1.06
5702.00,1.06
5701.00,1.06
5700.00,1.05
5699.00,1.05
5698.00,1.05
5697.00,1.05
5696.00,1.05
5695.00,1.05
5694.00,1.05
5693.00,1.05
5692.00,1.05
5691.00,1.05
5690.00,1.04
5689.00,1.04
5688.00,1.04
5687.00,1.04
5686.00,1.04
5685.00,1.04
5684.00,1.04
5683.00,1.04
5682.00,1.04
5681.00,1.04
5680.00,1.03
5679.00,1.03
5678.00,1.03
5677.00,1.03
5676.00,1.03
5675.00,1.03
5674.00,1.03
5673.00,1.03
5672.00,1.03
5671.00,1.03
5670.00,1.03
5669.00,1.03
5668.00,1.03
5667.00,1.04
5666.00,1.04
5665.00,1.04
5664.00,1.04
5663.00,1.04
5662.00,1.04
5661.00,1.04
5660.00,1.04
5659.00,1.04
5658.00,1.05
5657.00,1.05
5656.00,1.05
5655.00,1.05
5654.00,1.05
5653.00,1.05
5652.00,1.05
5651.00,1.05
5650.00,1.06
5649.00,1.06
5648.00,1.06
5647.00,1.06
5646.00,1.06
5645.00,1.06
5644.00,1.07
5643.00,1.07
5642.00,1.07
5641.00,1.07
5640.00,1.07
5639.00,1.07
5638.00,1.08
5637.00,1.08
5636.00,1.08
5635.00,1.08
5634.00,1.08
5633.00,1.08
5632.00,1.08
5631.00,1.08
5630.00,1.08
5629.00,1.09
5628.00,1.09
5627.00,1.09
5626.00,1.09
5625.00,1.09
5624.00,1.09
5623.00,1.09
5622.00,1.09
5621.00,1.09
5620.00,1.09
5619.00,1.10
5618.00,1.10
5617.00,1.10
5616.00,1.10
5615.00,1.10
5614.00,1.10
5613.00,1.10
5612.00,1.11
5611.00,1.11
5610.00,1.11
5609.00,1.11
5608.00,1.11
5607.00,1.11
5606.00,1.11
5605.00,1.11
5604.00,1.12
5603.00,1.12
5602.00,1.12
5601.00,1.12
5600.00,1.12
5599.00,1.12
5598.00,1.12
5597.00,1.12
5596.00,1.12
5595.00,1.12
5594.00,1.12
5593.00,1.12
5592.00,1.13
5591.00,1.13
5590.00,1.13
5589.00,1.13
5588.00,1.13
5587.00,1.13
5586.00,1.13
5585.00,1.13
5584.00,1.13
5583.00,1.13
5582.00,1.13
5581.00,1.14
5580.00,1.14
5579.00,1.14
5578.00,1.14
5577.00,1.14
5576.00,1.14
5575.00,1.14
5574.00,1.14
5573.00,1.14
5572.00,1.14
5571.00,1.15
5570.00,1.15
5569.00,1.15
5568.00,1.15
5567.00,1.15
5566.00,1.15
5565.00,1.15
5564.00,1.15
5563.00,1.15
5562.00,1.16
5561.00,1.16
5560.00,1.16
5559.00,1.16
5558.00,1.16
5557.00,1.16
5556.00,1.16
5555.00,1.16
5554.00,1.16
5553.00,1.16
5552.00,1.17
5551.00,1.17
5550.00,1.17
5549.00,1.17
5548.00,1.17
5547.00,1.17
5546.00,1.17
5545.00,1.17
5544.00,1.17
5543.00,1.17
5542.00,1.17
5541.00,1.18
5540.00,1.18
5539.00,1.18
5538.00,1.18
5537.00,1.18
5536.00,1.18
5535.00,1.18
5534.00,1.18
5533.00,1.18
5532.00,1.18
5531.00,1.18
5530.00,1.18
5529.00,1.18
5528.00,1.18
5527.00,1.18
5526.00,1.18
5525.00,1.18
5524.00,1.18
5523.00,1.18
5522.00,1.19
5521.00,1.19
5520.00,1.19
5519.00,1.19
5518.00,1.19
5517.00,1.19
5516.00,1.19
5515.00,1.19
5514.00,1.19
5513.00,1.19
5512.00,1.19
5511.00,1.19
5510.00,1.19
5509.00,1.19
5508.00,1.19
5507.00,1.19
5506.00,1.19
5505.00,1.19
5504.00,1.19
5503.00,1.19
5502.00,1.19
5501.00,1.19
5500.00,1.19
5499.00,1.19
5498.00,1.19
5497.00,1.19
5496.00,1.19
5495.00,1.19
5494.00,1.19
5493.00,1.19
5492.00,1.19
5491.00,1.19
5490.00,1.19
5489.00,1.19
5488.00,1.20
5487.00,1.20
5486.00,1.20
5485.00,1.20
5484.00,1.20
5483.00,1.20
5482.00,1.20
5481.00,1.20
5480.00,1.20
5479.00,1.20
5478.00,1.20
5477.00,1.21
5476.00,1.21
5475.00,1.21
5474.00,1.21
5473.00,1.21
5472.00,1.21
5471.00,1.21
5470.00,1.21
5469.00,1.21
5468.00,1.21
5467.00,1.22
5466.00,1.22
5465.00,1.22
5464.00,1.22
5463.00,1.22
5462.00,1.22
5461.00,1.22
5460.00,1.22
5459.00,1.22
5458.00,1.22
5457.00,1.22
5456.00,1.22
5455.00,1.22
5454.00,1.22
5453.00,1.22
5452.00,1.22
5451.00,1.22
5450.00,1.22
5449.00,1.22
5448.00,1.22
5447.00,1.22
5446.00,1.22
5445.00,1.22
5444.00,1.22
5443.00,1.22
5442.00,1.22
5441.00,1.22
5440.00,1.22
5439.00,1.22
5438.00,1.23
5437.00,1.23
5436.00,1.23
5435.00,1.23
5434.00,1.23
5433.00,1.23
5432.00,1.23
5431.00,1.23
5430.00,1.23
5429.00,1.23
5428.00,1.23
5427.00,1.23
5426.00,1.23
5425.00,1.23
5424.00,1.23
5423.00,1.23
5422.00,1.23
5421.00,1.23
5420.00,1.23
5419.00,1.23
5418.00,1.23
5417.00,1.23
5416.00,1.23
5415.00,1.23
5414.00,1.23
5413.00,1.23
5412.00,1.23
5411.00,1.23
5410.00,1.23
5409.00,1.23
5408.00,1.23
5407.00,1.23
5406.00,1.23
5405.00,1.23
5404.00,1.23
5403.00,1.23
5402.00,1.23
5401.00,1.23
5400.00,1.23
5399.00,1.23
5398.00,1.23
5397.00,1.23
5396.00,1.23
5395.00,1.23
5394.00,1.23
5393.00,1.23
5392.00,1.23
5391.00,1.23
5390.00,1.23
5389.00,1.23
5388.00,1.23
5387.00,1.23
5386.00,1.23
5385.00,1.23
5384.00,1.23
5383.00,1.23
5382.00,1.23
5381.00,1.23
5380.00,1.22
5379.00,1.22
5378.00,1.22
5377.00,1.22
5376.00,1.22
5375.00,1.22
5374.00,1.22
5373.00,1.21
5372.00,1.21
5371.00,1.21
5370.00,1.21
5369.00,1.20
5368.00,1.20
5367.00,1.20
5366.00,1.20
5365.00,1.19
5364.00,1.19
5363.00,1.19
5362.00,1.18
5361.00,1.18
5360.00,1.17
5359.00,1.17
5358.00,1.16
5357.00,1.16
5356.00,1.15
5355.00,1.15
5354.00,1.14
5353.00,1.13
5352.00,1.13
5351.00,1.12
5350.00,1.12
5349.00,1.11
5348.00,1.11
5347.00,1.10
5346.00,1.09
5345.00,1.09
5344.00,1.08
5343.00,1.07
5342.00,1.07
5341.00,1.06
5340.00,1.05
5339.00,1.05
5338.00,1.04
5337.00,1.03
5336.00,1.02
5335.00,1.02
5334.00,1.01
5333.00,1.00
5332.00,0.99
5331.00,0.98
5330.00,0.98
5329.00,0.97
5328.00,0.96
5327.00,0.95
5326.00,0.94
5325.00,0.93
5324.00,0.92
5323.00,0.91
5322.00,0.90
5321.00,0.89
5320.00,0.88
5319.00,0.87
5318.00,0.86
5317.00,0.85
5316.00,0.84
5315.00,0.83
5314.00,0.82
5313.00,0.81
5312.00,0.80
5311.00,0.79
5310.00,0.78
5309.00,0.78
5308.00,0.77
5307.00,0.76
5306.00,0.75
5305.00,0.74
5304.00,0.73
5303.00,0.73
5302.00,0.72
5301.00,0.71
5300.00,0.70
5299.00,0.70
5298.00,0.69
5297.00,0.68
5296.00,0.68
5295.00,0.67
5294.00,0.66
5293.00,0.66
5292.00,0.65
5291.00,0.65
5290.00,0.64
5289.00,0.64
5288.00,0.63
5287.00,0.63
5286.00,0.62
5285.00,0.62
5284.00,0.62
5283.00,0.61
5282.00,0.61
5281.00,0.61
5280.00,0.60
5279.00,0.60
5278.00,0.60
5277.00,0.60
5276.00,0.59
5275.00,0.59
5274.00,0.59
5273.00,0.59
5272.00,0.58
5271.00,0.58
5270.00,0.58
5269.00,0.58
5268.00,0.57
5267.00,0.57
5266.00,0.57
5265.00,0.57
5264.00,0.57
5263.00,0.56
5262.00,0.56
5261.00,0.56
5260.00,0.56
5259.00,0.56
5258.00,0.55
5257.00,0.55
5256.00,0.55
5255.00,0.55
5254.00,0.55
5253.00,0.54
5252.00,0.54
5251.00,0.54
5250.00,0.54
5249.00,0.54
5248.00,0.54
5247.00,0.54
5246.00,0.54
5245.00,0.54
5244.00,0.53
5243.00,0.53
5242.00,0.53
5241.00,0.53
5240.00,0.53
5239.00,0.53
5238.00,0.53
5237.00,0.53
5236.00,0.53
5235.00,0.53
5234.00,0.53
5233.00,0.53
5232.00,0.53
5231.00,0.53
5230.00,0.53
5229.00,0.53
5228.00,0.53
5227.00,0.53
5226.00,0.53
5225.00,0.52
5224.00,0.52
5223.00,0.52
5222.00,0.52
5221.00,0.52
5220.00,0.52
5219.00,0.52
5218.00,0.52
5217.00,0.52
5216.00,0.52
5215.00,0.52
5214.00,0.52
5213.00,0.52
5212.00,0.52
5211.00,0.52
5210.00,0.52
5209.00,0.52
5208.00,0.52
5207.00,0.52
5206.00,0.52
5205.00,0.52
5204.00,0.52
5203.00,0.52
5202.00,0.52
5201.00,0.52
5200.00,0.52
5199.00,0.52
5198.00,0.52
5197.00,0.52
5196.00,0.52
5195.00,0.52
5194.00,0.52
5193.00,0.53
5192.00,0.53
5191.00,0.53
5190.00,0.53
5189.00,0.53
5188.00,0.53
5187.00,0.53
5186.00,0.53
5185.00,0.53
5184.00,0.53
5183.00,0.53
5182.00,0.53
5181.00,0.53
5180.00,0.53
5179.00,0.53
5178.00,0.53
5177.00,0.53
5176.00,0.53
5175.00,0.53
5174.00,0.53
5173.00,0.53
5172.00,0.53
5171.00,0.53
5170.00,0.53
5169.00,0.53
5168.00,0.53
5167.00,0.53
5166.00,0.53
5165.00,0.53
5164.00,0.53
5163.00,0.53
5162.00,0.53
5161.00,0.53
5160.00,0.53
5159.00,0.53
5158.00,0.53
5157.00,0.53
5156.00,0.53
5155.00,0.53
5154.00,0.53
5153.00,0.54
5152.00,0.54
5151.00,0.54
5150.00,0.54
5149.00,0.54
5148.00,0.54
5147.00,0.54
5146.00,0.54
5145.00,0.54
5144.00,0.54
5143.00,0.54
5142.00,0.54
5141.00,0.54
5140.00,0.54
5139.00,0.55
5138.00,0.55
5137.00,0.55
5136.00,0.55
5135.00,0.55
5134.00,0.55
5133.00,0.55
5132.00,0.55
5131.00,0.55
5130.00,0.55
5129.00,0.55
5128.00,0.55
5127.00,0.55
5126.00,0.56
5125.00,0.56
5124.00,0.56
5123.00,0.56
5122.00,0.56
5121.00,0.56
5120.00,0.56
5119.00,0.56
5118.00,0.56
5117.00,0.56
5116.00,0.56
5115.00,0.56
5114.00,0.56
5113.00,0.56
5112.00,0.56
5111.00,0.57
5110.00,0.57
5109.00,0.57
5108.00,0.57
5107.00,0.57
5106.00,0.57
5105.00,0.57
5104.00,0.57
5103.00,0.57
5102.00,0.57
5101.00,0.57
5100.00,0.57
5099.00,0.57
5098.00,0.57
5097.00,0.57
5096.00,0.57
5095.00,0.57
5094.00,0.57
5093.00,0.57
5092.00,0.57
5091.00,0.58
5090.00,0.58
5089.00,0.58
5088.00,0.58
5087.00,0.58
5086.00,0.58
5085.00,0.58
5084.00,0.58
5083.00,0.58
5082.00,0.59
5081.00,0.59
5080.00,0.59
5079.00,0.59
5078.00,0.59
5077.00,0.59
5076.00,0.59
5075.00,0.59
5074.00,0.59
5073.00,0.59
5072.00,0.60
5071.00,0.60
5070.00,0.60
5069.00,0.60
5068.00,0.60
5067.00,0.60
5066.00,0.60
5065.00,0.60
5064.00,0.60
5063.00,0.60
5062.00,0.60
5061.00,0.60
5060.00,0.60
5059.00,0.60
5058.00,0.61
5057.00,0.61
5056.00,0.61
5055.00,0.61
5054.00,0.61
5053.00,0.61
5052.00,0.61
5051.00,0.61
5050.00,0.62
5049.00,0.62
5048.00,0.62
5047.00,0.62
5046.00,0.62
5045.00,0.62
5044.00,0.63
5043.00,0.63
5042.00,0.63
5041.00,0.63
5040.00,0.63
5039.00,0.63
5038.00,0.63
5037.00,0.64
5036.00,0.64
5035.00,0.64
5034.00,0.64
5033.00,0.64
5032.00,0.64
5031.00,0.64
5030.00,0.64
5029.00,0.64
5028.00,0.64
5027.00,0.64
5026.00,0.65
5025.00,0.65
5024.00,0.65
5023.00,0.65
5022.00,0.65
5021.00,0.65
5020.00,0.65
5019.00,0.65
5018.00,0.66
5017.00,0.66
5016.00,0.66
5015.00,0.66
5014.00,0.66
5013.00,0.66
5012.00,0.66
5011.00,0.67
5010.00,0.67
5009.00,0.67
5008.00,0.67
5007.00,0.67
5006.00,0.67
5005.00,0.67
5004.00,0.68
5003.00,0.68
5002.00,0.68
5001.00,0.68
5000.00,0.68
4999.00,0.69
4998.00,0.69
4997.00,0.69
4996.00,0.69
4995.00,0.69
4994.00,0.69
4993.00,0.70
4992.00,0.70
4991.00,0.70
4990.00,0.70
4989.00,0.70
4988.00,0.70
4987.00,0.71
4986.00,0.71
4985.00,0.71
4984.00,0.71
4983.00,0.71
4982.00,0.71
4981.00,0.71
4980.00,0.71
4979.00,0.71
4978.00,0.71
4977.00,0.71
4976.00,0.71
4975.00,0.71
4974.00,0.71
4973.00,0.72
4972.00,0.72
4971.00,0.72
4970.00,0.72
4969.00,0.72
4968.00,0.72
4967.00,0.72
4966.00,0.72
4965.00,0.72
4964.00,0.72
4963.00,0.73
4962.00,0.73
4961.00,0.73
4960.00,0.73
4959.00,0.73
4958.00,0.73
4957.00,0.74
4956.00,0.74
4955.00,0.74
4954.00,0.74
4953.00,0.74
4952.00,0.74
4951.00,0.75
4950.00,0.75
4949.00,0.75
4948.00,0.75
4947.00,0.75
4946.00,0.75
4945.00,0.75
4944.00,0.75
4943.00,0.76
4942.00,0.76
4941.00,0.76
4940.00,0.76
4939.00,0.76
4938.00,0.76
4937.00,0.76
4936.00,0.76
4935.00,0.76
4934.00,0.76
4933.00,0.76
4932.00,0.76
4931.00,0.77
4930.00,0.77
4929.00,0.77
4928.00,0.77
4927.00,0.77
4926.00,0.77
4925.00,0.77
4924.00,0.77
4923.00,0.77
4922.00,0.77
4921.00,0.77
4920.00,0.77
4919.00,0.77
4918.00,0.78
4917.00,0.78
4916.00,0.78
4915.00,0.78
4914.00,0.78
4913.00,0.78
4912.00,0.78
4911.00,0.78
4910.00,0.78
4909.00,0.78
4908.00,0.78
4907.00,0.78
4906.00,0.78
4905.00,0.78
4904.00,0.78
4903.00,0.78
4902.00,0.78
4901.00,0.78
4900.00,0.78
4899.00,0.78
4898.00,0.78
4897.00,0.78
4896.00,0.78
4895.00,0.78
4894.00,0.78
4893.00,0.78
4892.00,0.79
4891.00,0.79
4890.00,0.79
4889.00,0.79
4888.00,0.79
4887.00,0.79
4886.00,0.79
4885.00,0.79
4884.00,0.79
4883.00,0.79
4882.00,0.78
4881.00,0.78
4880.00,0.78
4879.00,0.78
4878.00,0.78
4877.00,0.78
4876.00,0.78
4875.00,0.78
4874.00,0.78
4873.00,0.78
4872.00,0.78
4871.00,0.78
4870.00,0.78
4869.00,0.79
4868.00,0.79
4867.00,0.79
4866.00,0.79
4865.00,0.79
4864.00,0.79
4863.00,0.79
4862.00,0.79
4861.00,0.79
4860.00,0.79
4859.00,0.79
4858.00,0.79
4857.00,0.80
4856.00,0.80
4855.00,0.80
4854.00,0.80
4853.00,0.80
4852.00,0.80
4851.00,0.80
4850.00,0.80
4849.00,0.80
4848.00,0.80
4847.00,0.80
4846.00,0.80
4845.00,0.80
4844.00,0.81
4843.00,0.81
4842.00,0.81
4841.00,0.81
4840.00,0.81
4839.00,0.81
4838.00,0.81
4837.00,0.81
4836.00,0.81
4835.00,0.81
4834.00,0.81
4833.00,0.81
4832.00,0.82
4831.00,0.82
4830.00,0.82
4829.00,0.82
4828.00,0.82
4827.00,0.82
4826.00,0.82
4825.00,0.82
4824.00,0.82
4823.00,0.82
4822.00,0.82
4821.00,0.82
4820.00,0.82
4819.00,0.82
4818.00,0.82
4817.00,0.82
4816.00,0.82
4815.00,0.82
4814.00,0.83
4813.00,0.83
4812.00,0.83
4811.00,0.83
4810.00,0.83
4809.00,0.83
4808.00,0.83
4807.00,0.83
4806.00,0.83
4805.00,0.84
4804.00,0.84
4803.00,0.84
4802.00,0.84
4801.00,0.84
4800.00,0.85
4799.00,0.85
4798.00,0.85
4797.00,0.85
4796.00,0.85
4795.00,0.86
4794.00,0.86
4793.00,0.86
4792.00,0.86
4791.00,0.86
4790.00,0.87
4789.00,0.87
4788.00,0.87
4787.00,0.87
4786.00,0.87
4785.00,0.87
4784.00,0.87
4783.00,0.88
4782.00,0.88
4781.00,0.88
4780.00,0.88
4779.00,0.88
4778.00,0.88
4777.00,0.88
4776.00,0.88
4775.00,0.88
4774.00,0.89
4773.00,0.89
4772.00,0.89
4771.00,0.89
4770.00,0.89
4769.00,0.89
4768.00,0.90
4767.00,0.90
4766.00,0.90
4765.00,0.90
4764.00,0.91
4763.00,0.91
4762.00,0.91
4761.00,0.91
4760.00,0.92
4759.00,0.92
4758.00,0.92
4757.00,0.92
4756.00,0.93
4755.00,0.93
4754.00,0.93
4753.00,0.93
4752.00,0.93
4751.00,0.93
4750.00,0.93
4749.00,0.94
4748.00,0.94
4747.00,0.94
4746.00,0.94
4745.00,0.94
4744.00,0.94
4743.00,0.94
4742.00,0.94
4741.00,0.94
4740.00,0.95
4739.00,0.95
4738.00,0.95
4737.00,0.95
4736.00,0.95
4735.00,0.95
4734.00,0.96
4733.00,0.96
4732.00,0.96
4731.00,0.96
4730.00,0.97
4729.00,0.97
4728.00,0.97
4727.00,0.97
4726.00,0.98
4725.00,0.98
4724.00,0.98
4723.00,0.98
4722.00,0.98
4721.00,0.99
4720.00,0.99
4719.00,0.99
4718.00,0.99
4717.00,0.99
4716.00,0.99
4715.00,1.00
4714.00,1.00
4713.00,1.00
4712.00,1.00
4711.00,1.00
4710.00,1.01
4709.00,1.01
4708.00,1.01
4707.00,1.01
4706.00,1.01
4705.00,1.02
4704.00,1.02
4703.00,1.02
4702.00,1.02
4701.00,1.02
4700.00,1.03
4699.00,1.03
4698.00,1.03
4697.00,1.03
4696.00,1.03
4695.00,1.04
4694.00,1.04
4693.00,1.04
4692.00,1.04
4691.00,1.04
4690.00,1.04
4689.00,1.04
4688.00,1.05
4687.00,1.05
4686.00,1.05
4685.00,1.05
4684.00,1.05
4683.00,1.05
4682.00,1.05
4681.00,1.05
4680.00,1.06
4679.00,1.06
4678.00,1.06
4677.00,1.06
4676.00,1.06
4675.00,1.07
4674.00,1.07
4673.00,1.07
4672.00,1.07
4671.00,1.08
4670.00,1.08
4669.00,1.08
4668.00,1.08
4667.00,1.09
4666.00,1.09
4665.00,1.09
4664.00,1.09
4663.00,1.09
4662.00,1.10
4661.00,1.10
4660.00,1.10
4659.00,1.10
4658.00,1.10
4657.00,1.10
4656.00,1.10
4655.00,1.10
4654.00,1.10
4653.00,1.11
4652.00,1.11
4651.00,1.11
4650.00,1.11
4649.00,1.11
4648.00,1.11
4647.00,1.11
4646.00,1.11
4645.00,1.11
4644.00,1.11
4643.00,1.12
4642.00,1.12
4641.00,1.12
4640.00,1.12
4639.00,1.12
4638.00,1.12
4637.00,1.13
4636.00,1.13
4635.00,1.13
4634.00,1.13
4633.00,1.13
4632.00,1.13
4631.00,1.13
4630.00,1.14
4629.00,1.14
4628.00,1.14
4627.00,1.14
4626.00,1.14
4625.00,1.14
4624.00,1.14
4623.00,1.14
4622.00,1.14
4621.00,1.14
4620.00,1.14
4619.00,1.15
4618.00,1.15
4617.00,1.15
4616.00,1.15
4615.00,1.15
4614.00,1.15
4613.00,1.15
4612.00,1.15
4611.00,1.15
4610.00,1.15
4609.00,1.15
4608.00,1.15
4607.00,1.16
4606.00,1.16
4605.00,1.16
4604.00,1.16
4603.00,1.16
4602.00,1.16
4601.00,1.16
4600.00,1.16
4599.00,1.16
4598.00,1.16
4597.00,1.16
4596.00,1.16
4595.00,1.17
4594.00,1.17
4593.00,1.17
4592.00,1.17
4591.00,1.17
4590.00,1.17
4589.00,1.18
4588.00,1.18
4587.00,1.18
4586.00,1.18
4585.00,1.18
4584.00,1.18
4583.00,1.19
4582.00,1.19
4581.00,1.19
4580.00,1.19
4579.00,1.19
4578.00,1.19
4577.00,1.20
4576.00,1.20
4575.00,1.20
4574.00,1.20
4573.00,1.20
4572.00,1.20
4571.00,1.20
4570.00,1.20
4569.00,1.20
4568.00,1.20
4567.00,1.20
4566.00,1.20
4565.00,1.20
4564.00,1.21
4563.00,1.21
4562.00,1.21
4561.00,1.21
4560.00,1.21
4559.00,1.21
4558.00,1.21
4557.00,1.21
4556.00,1.21
4555.00,1.21
4554.00,1.21
4553.00,1.21
4552.00,1.21
4551.00,1.21
4550.00,1.21
4549.00,1.21
4548.00,1.21
4547.00,1.21
4546.00,1.21
4545.00,1.22
4544.00,1.22
4543.00,1.22
4542.00,1.22
4541.00,1.22
4540.00,1.22
4539.00,1.22
4538.00,1.22
4537.00,1.22
4536.00,1.22
4535.00,1.22
4534.00,1.22
4533.00,1.22
4532.00,1.23
4531.00,1.23
4530.00,1.23
4529.00,1.23
4528.00,1.23
4527.00,1.23
4526.00,1.23
4525.00,1.23
4524.00,1.23
4523.00,1.23
4522.00,1.23
4521.00,1.23
4520.00,1.23
4519.00,1.23
4518.00,1.23
4517.00,1.23
4516.00,1.23
4515.00,1.23
4514.00,1.23
4513.00,1.23
4512.00,1.23
4511.00,1.23
4510.00,1.23
4509.00,1.23
4508.00,1.23
4507.00,1.23
4506.00,1.23
4505.00,1.23
4504.00,1.23
4503.00,1.23
4502.00,1.23
4501.00,1.23
4500.00,1.23
4499.00,1.23
4498.00,1.23
4497.00,1.23
4496.00,1.23
4495.00,1.23
4494.00,1.23
4493.00,1.23
4492.00,1.23
4491.00,1.23
4490.00,1.23
4489.00,1.22
4488.00,1.22
4487.00,1.22
4486.00,1.22
4485.00,1.22
4484.00,1.22
4483.00,1.22
4482.00,1.22
4481.00,1.21
4480.00,1.21
4479.00,1.21
4478.00,1.21
4477.00,1.20
4476.00,1.20
4475.00,1.20
4474.00,1.20
4473.00,1.19
4472.00,1.19
4471.00,1.19
4470.00,1.18
4469.00,1.18
4468.00,1.17
4467.00,1.17
4466.00,1.17
4465.00,1.16
4464.00,1.16
4463.00,1.15
4462.00,1.15
4461.00,1.15
4460.00,1.14
4459.00,1.14
4458.00,1.13
4457.00,1.13
4456.00,1.12
4455.00,1.12
4454.00,1.11
4453.00,1.11
4452.00,1.10
4451.00,1.09
4450.00,1.09
4449.00,1.08
4448.00,1.07
4447.00,1.07
4446.00,1.06
4445.00,1.05
4444.00,1.05
4443.00,1.04
4442.00,1.03
4441.00,1.02
4440.00,1.02
4439.00,1.01
4438.00,1.00
4437.00,1.00
4436.00,0.99
4435.00,0.98
4434.00,0.97
4433.00,0.97
4432.00,0.96
4431.00,0.96
4430.00,0.95
4429.00,0.94
4428.00,0.94
4427.00,0.94
4426.00,0.93
4425.00,0.93
4424.00,0.92
4423.00,0.92
4422.00,0.92
4421.00,0.91
4420.00,0.91
4419.00,0.91
4418.00,0.91
4417.00,0.91
4416.00,0.90
4415.00,0.90
4414.00,0.90
4413.00,0.90
4412.00,0.90
4411.00,0.90
4410.00,0.90
4409.00,0.90
4408.00,0.90
4407.00,0.90
4406.00,0.90
4405.00,0.90
4404.00,0.90
4403.00,0.90
4402.00,0.90
4401.00,0.90
4400.00,0.90
4399.00,0.91
4398.00,0.91
4397.00,0.91
4396.00,0.91
4395.00,0.92
4394.00,0.92
4393.00,0.92
4392.00,0.92
4391.00,0.93
4390.00,0.93
4389.00,0.93
4388.00,0.93
4387.00,0.94
4386.00,0.94
4385.00,0.94
4384.00,0.94
4383.00,0.95
4382.00,0.95
4381.00,0.95
4380.00,0.95
4379.00,0.95
4378.00,0.95
4377.00,0.96
4376.00,0.96
4375.00,0.96
4374.00,0.96
4373.00,0.96
4372.00,0.96
4371.00,0.96
4370.00,0.96
4369.00,0.96
4368.00,0.96
4367.00,0.96
4366.00,0.96
4365.00,0.96
4364.00,0.96
4363.00,0.95
4362.00,0.95
4361.00,0.95
4360.00,0.95
4359.00,0.95
4358.00,0.95
4357.00,0.94
4356.00,0.94
4355.00,0.94
4354.00,0.94
4353.00,0.94
4352.00,0.94
4351.00,0.94
4350.00,0.94
4349.00,0.94
4348.00,0.93
4347.00,0.93
4346.00,0.93
4345.00,0.93
4344.00,0.93
4343.00,0.93
4342.00,0.94
4341.00,0.94
4340.00,0.94
4339.00,0.94
4338.00,0.94
4337.00,0.94
4336.00,0.94
4335.00,0.94
4334.00,0.94
4333.00,0.94
4332.00,0.94
4331.00,0.95
4330.00,0.95
4329.00,0.95
4328.00,0.95
4327.00,0.96
4326.00,0.96
4325.00,0.96
4324.00,0.97
4323.00,0.97
4322.00,0.97
4321.00,0.98
4320.00,0.98
4319.00,0.99
4318.00,0.99
4317.00,0.99
4316.00,1.00
4315.00,1.00
4314.00,1.01
4313.00,1.01
4312.00,1.01
4311.00,1.02
4310.00,1.02
4309.00,1.02
4308.00,1.03
4307.00,1.03
4306.00,1.03
4305.00,1.04
4304.00,1.04
4303.00,1.04
4302.00,1.05
4301.00,1.05
4300.00,1.05
4299.00,1.06
4298.00,1.06
4297.00,1.06
4296.00,1.07
4295.00,1.07
4294.00,1.07
4293.00,1.08
4292.00,1.08
4291.00,1.08
4290.00,1.08
4289.00,1.09
4288.00,1.09
4287.00,1.09
4286.00,1.09
4285.00,1.09
4284.00,1.09
4283.00,1.09
4282.00,1.09
4281.00,1.09
4280.00,1.09
4279.00,1.09
4278.00,1.09
4277.00,1.09
4276.00,1.09
4275.00,1.09
4274.00,1.08
4273.00,1.08
4272.00,1.08
4271.00,1.08
4270.00,1.08
4269.00,1.08
4268.00,1.07
4267.00,1.07
4266.00,1.07
4265.00,1.07
4264.00,1.07
4263.00,1.07
4262.00,1.07
4261.00,1.07
4260.00,1.07
4259.00,1.06
4258.00,1.06
4257.00,1.06
4256.00,1.06
4255.00,1.06
4254.00,1.06
4253.00,1.06
4252.00,1.06
4251.00,1.06
4250.00,1.06
4249.00,1.06
4248.00,1.06
4247.00,1.06
4246.00,1.07
4245.00,1.07
4244.00,1.07
4243.00,1.07
4242.00,1.08
4241.00,1.08
4240.00,1.08
4239.00,1.09
4238.00,1.09
4237.00,1.10
4236.00,1.10
4235.00,1.11
4234.00,1.11
4233.00,1.11
4232.00,1.12
4231.00,1.12
4230.00,1.13
4229.00,1.13
4228.00,1.14
4227.00,1.14
4226.00,1.14
4225.00,1.15
4224.00,1.15
4223.00,1.15
4222.00,1.15
4221.00,1.15
4220.00,1.16
4219.00,1.16
4218.00,1.16
4217.00,1.16
4216.00,1.16
4215.00,1.16
4214.00,1.16
4213.00,1.16
4212.00,1.16
4211.00,1.16
4210.00,1.16
4209.00,1.16
4208.00,1.16
4207.00,1.16
4206.00,1.16
4205.00,1.16
4204.00,1.16
4203.00,1.16
4202.00,1.16
4201.00,1.16
4200.00,1.15
4199.00,1.15
4198.00,1.15
4197.00,1.15
4196.00,1.15
4195.00,1.15
4194.00,1.15
4193.00,1.15
4192.00,1.15
4191.00,1.15
4190.00,1.15
4189.00,1.15
4188.00,1.15
4187.00,1.15
4186.00,1.15
4185.00,1.15
4184.00,1.15
4183.00,1.15
4182.00,1.15
4181.00,1.15
4180.00,1.15
4179.00,1.14
4178.00,1.14
4177.00,1.14
4176.00,1.14
4175.00,1.14
4174.00,1.14
4173.00,1.14
4172.00,1.14
4171.00,1.14
4170.00,1.14
4169.00,1.14
4168.00,1.14
4167.00,1.14
4166.00,1.14
4165.00,1.14
4164.00,1.14
4163.00,1.14
4162.00,1.14
4161.00,1.14
4160.00,1.14
4159.00,1.14
4158.00,1.15
4157.00,1.15
4156.00,1.15
4155.00,1.15
4154.00,1.15
4153.00,1.15
4152.00,1.15
4151.00,1.15
4150.00,1.15
4149.00,1.15
4148.00,1.15
4147.00,1.15
4146.00,1.15
4145.00,1.15
4144.00,1.15
4143.00,1.15
4142.00,1.14
4141.00,1.14
4140.00,1.14
4139.00,1.14
4138.00,1.14
4137.00,1.14
4136.00,1.14
4135.00,1.14
4134.00,1.15
4133.00,1.15
4132.00,1.15
4131.00,1.15
4130.00,1.15
4129.00,1.15
4128.00,1.15
4127.00,1.15
4126.00,1.15
4125.00,1.16
4124.00,1.16
4123.00,1.16
4122.00,1.16
4121.00,1.16
4120.00,1.16
4119.00,1.16
4118.00,1.16
4117.00,1.17
4116.00,1.17
4115.00,1.17
4114.00,1.17
4113.00,1.17
4112.00,1.17
4111.00,1.17
4110.00,1.16
4109.00,1.16
4108.00,1.16
4107.00,1.16
4106.00,1.16
4105.00,1.16
4104.00,1.16
4103.00,1.16
4102.00,1.16
4101.00,1.15
4100.00,1.15
4099.00,1.15
4098.00,1.15
4097.00,1.16
4096.00,1.16
4095.00,1.16
4094.00,1.16
4093.00,1.16
4092.00,1.16
4091.00,1.16
4090.00,1.16
4089.00,1.17
4088.00,1.17
4087.00,1.17
4086.00,1.17
4085.00,1.17
4084.00,1.17
4083.00,1.17
4082.00,1.17
4081.00,1.17
4080.00,1.17
4079.00,1.17
4078.00,1.17
4077.00,1.17
4076.00,1.17
4075.00,1.17
4074.00,1.17
4073.00,1.16
4072.00,1.16
4071.00,1.16
4070.00,1.16
4069.00,1.16
4068.00,1.16
4067.00,1.16
4066.00,1.16
4065.00,1.16
4064.00,1.16
4063.00,1.16
4062.00,1.16
4061.00,1.17
4060.00,1.17
4059.00,1.17
4058.00,1.17
4057.00,1.17
4056.00,1.17
4055.00,1.18
4054.00,1.18
4053.00,1.18
4052.00,1.18
4051.00,1.18
4050.00,1.19
4049.00,1.19
4048.00,1.19
4047.00,1.19
4046.00,1.19
4045.00,1.19
4044.00,1.19
4043.00,1.20
4042.00,1.20
4041.00,1.20
4040.00,1.20
4039.00,1.20
4038.00,1.20
4037.00,1.20
4036.00,1.20
4035.00,1.20
4034.00,1.20
4033.00,1.20
4032.00,1.20
4031.00,1.20
4030.00,1.21
4029.00,1.21
4028.00,1.21
4027.00,1.21
4026.00,1.21
4025.00,1.21
4024.00,1.21
4023.00,1.21
4022.00,1.21
4021.00,1.21
4020.00,1.21
4019.00,1.22
4018.00,1.22
4017.00,1.22
4016.00,1.22
4015.00,1.22
4014.00,1.22
4013.00,1.22
4012.00,1.22
4011.00,1.22
4010.00,1.22
4009.00,1.22
4008.00,1.22
4007.00,1.22
4006.00,1.23
4005.00,1.23
4004.00,1.23
4003.00,1.23
4002.00,1.23
4001.00,1.23
4000.00,1.23
