创建为新数据集,样品 1537 用户 Administrator 日期 星期六, 三月 11 2017
cm-1,%T
10000.00,0.81
9998.00,0.81
9996.00,0.82
9994.00,0.82
9992.00,0.83
9990.00,0.84
9988.00,0.85
9986.00,0.85
9984.00,0.86
9982.00,0.86
9980.00,0.86
9978.00,0.86
9976.00,0.85
9974.00,0.84
9972.00,0.83
9970.00,0.83
9968.00,0.82
9966.00,0.82
9964.00,0.81
9962.00,0.81
9960.00,0.81
9958.00,0.81
9956.00,0.82
9954.00,0.82
9952.00,0.81
9950.00,0.81
9948.00,0.81
9946.00,0.81
9944.00,0.81
9942.00,0.81
9940.00,0.81
9938.00,0.81
9936.00,0.81
9934.00,0.81
9932.00,0.81
9930.00,0.81
9928.00,0.81
9926.00,0.82
9924.00,0.82
9922.00,0.82
9920.00,0.82
9918.00,0.82
9916.00,0.82
9914.00,0.81
9912.00,0.81
9910.00,0.81
9908.00,0.81
9906.00,0.81
9904.00,0.81
9902.00,0.80
9900.00,0.80
9898.00,0.80
9896.00,0.80
9894.00,0.79
9892.00,0.79
9890.00,0.79
9888.00,0.79
9886.00,0.79
9884.00,0.78
9882.00,0.79
9880.00,0.79
9878.00,0.79
9876.00,0.79
9874.00,0.78
9872.00,0.78
9870.00,0.78
9868.00,0.78
9866.00,0.78
9864.00,0.78
9862.00,0.78
9860.00,0.79
9858.00,0.79
9856.00,0.79
9854.00,0.79
9852.00,0.80
9850.00,0.80
9848.00,0.81
9846.00,0.81
9844.00,0.81
9842.00,0.81
9840.00,0.81
9838.00,0.82
9836.00,0.82
9834.00,0.82
9832.00,0.82
9830.00,0.81
9828.00,0.82
9826.00,0.82
9824.00,0.82
9822.00,0.81
9820.00,0.81
9818.00,0.81
9816.00,0.81
9814.00,0.80
9812.00,0.80
9810.00,0.80
9808.00,0.79
9806.00,0.80
9804.00,0.80
9802.00,0.80
9800.00,0.80
9798.00,0.80
9796.00,0.80
9794.00,0.80
9792.00,0.80
9790.00,0.80
9788.00,0.79
9786.00,0.79
9784.00,0.78
9782.00,0.78
9780.00,0.77
9778.00,0.77
9776.00,0.77
9774.00,0.77
9772.00,0.77
9770.00,0.77
9768.00,0.78
9766.00,0.78
9764.00,0.79
9762.00,0.79
9760.00,0.80
9758.00,0.80
9756.00,0.80
9754.00,0.80
9752.00,0.79
9750.00,0.79
9748.00,0.79
9746.00,0.80
9744.00,0.80
9742.00,0.80
9740.00,0.80
9738.00,0.80
9736.00,0.80
9734.00,0.80
9732.00,0.80
9730.00,0.80
9728.00,0.80
9726.00,0.80
9724.00,0.80
9722.00,0.80
9720.00,0.80
9718.00,0.80
9716.00,0.80
9714.00,0.80
9712.00,0.80
9710.00,0.80
9708.00,0.80
9706.00,0.79
9704.00,0.79
9702.00,0.79
9700.00,0.79
9698.00,0.79
9696.00,0.79
9694.00,0.79
9692.00,0.78
9690.00,0.78
9688.00,0.78
9686.00,0.78
9684.00,0.78
9682.00,0.78
9680.00,0.78
9678.00,0.78
9676.00,0.78
9674.00,0.78
9672.00,0.79
9670.00,0.79
9668.00,0.79
9666.00,0.80
9664.00,0.80
9662.00,0.80
9660.00,0.81
9658.00,0.81
9656.00,0.81
9654.00,0.82
9652.00,0.82
9650.00,0.82
9648.00,0.82
9646.00,0.81
9644.00,0.81
9642.00,0.81
9640.00,0.81
9638.00,0.81
9636.00,0.81
9634.00,0.81
9632.00,0.81
9630.00,0.80
9628.00,0.80
9626.00,0.79
9624.00,0.78
9622.00,0.78
9620.00,0.78
9618.00,0.77
9616.00,0.77
9614.00,0.77
9612.00,0.77
9610.00,0.77
9608.00,0.78
9606.00,0.78
9604.00,0.78
9602.00,0.79
9600.00,0.79
9598.00,0.79
9596.00,0.79
9594.00,0.80
9592.00,0.80
9590.00,0.80
9588.00,0.80
9586.00,0.80
9584.00,0.80
9582.00,0.80
9580.00,0.80
9578.00,0.80
9576.00,0.80
9574.00,0.80
9572.00,0.80
9570.00,0.79
9568.00,0.79
9566.00,0.79
9564.00,0.79
9562.00,0.79
9560.00,0.79
9558.00,0.79
9556.00,0.79
9554.00,0.80
9552.00,0.80
9550.00,0.80
9548.00,0.80
9546.00,0.80
9544.00,0.80
9542.00,0.80
9540.00,0.79
9538.00,0.79
9536.00,0.78
9534.00,0.78
9532.00,0.78
9530.00,0.78
9528.00,0.78
9526.00,0.79
9524.00,0.79
9522.00,0.80
9520.00,0.80
9518.00,0.81
9516.00,0.81
9514.00,0.81
9512.00,0.81
9510.00,0.81
9508.00,0.81
9506.00,0.81
9504.00,0.81
9502.00,0.80
9500.00,0.80
9498.00,0.80
9496.00,0.80
9494.00,0.80
9492.00,0.79
9490.00,0.79
9488.00,0.79
9486.00,0.79
9484.00,0.79
9482.00,0.79
9480.00,0.79
9478.00,0.79
9476.00,0.79
9474.00,0.79
9472.00,0.78
9470.00,0.78
9468.00,0.78
9466.00,0.78
9464.00,0.78
9462.00,0.78
9460.00,0.78
9458.00,0.78
9456.00,0.78
9454.00,0.78
9452.00,0.79
9450.00,0.79
9448.00,0.79
9446.00,0.79
9444.00,0.80
9442.00,0.80
9440.00,0.80
9438.00,0.80
9436.00,0.80
9434.00,0.80
9432.00,0.79
9430.00,0.79
9428.00,0.79
9426.00,0.79
9424.00,0.79
9422.00,0.78
9420.00,0.78
9418.00,0.78
9416.00,0.78
9414.00,0.78
9412.00,0.78
9410.00,0.78
9408.00,0.78
9406.00,0.77
9404.00,0.77
9402.00,0.77
9400.00,0.77
9398.00,0.77
9396.00,0.77
9394.00,0.78
9392.00,0.79
9390.00,0.79
9388.00,0.80
9386.00,0.81
9384.00,0.81
9382.00,0.81
9380.00,0.81
9378.00,0.80
9376.00,0.80
9374.00,0.79
9372.00,0.79
9370.00,0.78
9368.00,0.78
9366.00,0.78
9364.00,0.78
9362.00,0.78
9360.00,0.79
9358.00,0.79
9356.00,0.79
9354.00,0.79
9352.00,0.79
9350.00,0.79
9348.00,0.79
9346.00,0.79
9344.00,0.79
9342.00,0.79
9340.00,0.79
9338.00,0.79
9336.00,0.79
9334.00,0.80
9332.00,0.80
9330.00,0.80
9328.00,0.80
9326.00,0.80
9324.00,0.80
9322.00,0.80
9320.00,0.79
9318.00,0.79
9316.00,0.78
9314.00,0.78
9312.00,0.78
9310.00,0.78
9308.00,0.79
9306.00,0.79
9304.00,0.79
9302.00,0.80
9300.00,0.80
9298.00,0.80
9296.00,0.80
9294.00,0.79
9292.00,0.79
9290.00,0.79
9288.00,0.79
9286.00,0.79
9284.00,0.79
9282.00,0.79
9280.00,0.80
9278.00,0.80
9276.00,0.81
9274.00,0.81
9272.00,0.81
9270.00,0.81
9268.00,0.81
9266.00,0.80
9264.00,0.80
9262.00,0.80
9260.00,0.79
9258.00,0.79
9256.00,0.79
9254.00,0.79
9252.00,0.78
9250.00,0.79
9248.00,0.79
9246.00,0.79
9244.00,0.79
9242.00,0.79
9240.00,0.79
9238.00,0.79
9236.00,0.79
9234.00,0.79
9232.00,0.78
9230.00,0.78
9228.00,0.78
9226.00,0.78
9224.00,0.78
9222.00,0.78
9220.00,0.78
9218.00,0.78
9216.00,0.78
9214.00,0.78
9212.00,0.78
9210.00,0.78
9208.00,0.78
9206.00,0.78
9204.00,0.78
9202.00,0.78
9200.00,0.78
9198.00,0.78
9196.00,0.78
9194.00,0.78
9192.00,0.78
9190.00,0.78
9188.00,0.78
9186.00,0.78
9184.00,0.78
9182.00,0.78
9180.00,0.79
9178.00,0.79
9176.00,0.79
9174.00,0.80
9172.00,0.80
9170.00,0.80
9168.00,0.80
9166.00,0.80
9164.00,0.80
9162.00,0.80
9160.00,0.80
9158.00,0.80
9156.00,0.79
9154.00,0.80
9152.00,0.80
9150.00,0.80
9148.00,0.80
9146.00,0.80
9144.00,0.81
9142.00,0.81
9140.00,0.81
9138.00,0.81
9136.00,0.81
9134.00,0.81
9132.00,0.81
9130.00,0.81
9128.00,0.81
9126.00,0.80
9124.00,0.80
9122.00,0.80
9120.00,0.80
9118.00,0.80
9116.00,0.80
9114.00,0.80
9112.00,0.79
9110.00,0.79
9108.00,0.80
9106.00,0.80
9104.00,0.80
9102.00,0.80
9100.00,0.80
9098.00,0.80
9096.00,0.79
9094.00,0.79
9092.00,0.79
9090.00,0.79
9088.00,0.79
9086.00,0.79
9084.00,0.80
9082.00,0.80
9080.00,0.80
9078.00,0.80
9076.00,0.80
9074.00,0.80
9072.00,0.79
9070.00,0.79
9068.00,0.79
9066.00,0.79
9064.00,0.79
9062.00,0.79
9060.00,0.79
9058.00,0.79
9056.00,0.79
9054.00,0.80
9052.00,0.80
9050.00,0.80
9048.00,0.80
9046.00,0.80
9044.00,0.80
9042.00,0.80
9040.00,0.80
9038.00,0.79
9036.00,0.79
9034.00,0.79
9032.00,0.79
9030.00,0.79
9028.00,0.79
9026.00,0.79
9024.00,0.79
9022.00,0.79
9020.00,0.79
9018.00,0.79
9016.00,0.79
9014.00,0.80
9012.00,0.79
9010.00,0.79
9008.00,0.79
9006.00,0.79
9004.00,0.79
9002.00,0.78
9000.00,0.78
8998.00,0.78
8996.00,0.78
8994.00,0.78
8992.00,0.78
8990.00,0.78
8988.00,0.78
8986.00,0.78
8984.00,0.78
8982.00,0.78
8980.00,0.78
8978.00,0.79
8976.00,0.79
8974.00,0.79
8972.00,0.79
8970.00,0.80
8968.00,0.80
8966.00,0.80
8964.00,0.81
8962.00,0.81
8960.00,0.81
8958.00,0.81
8956.00,0.81
8954.00,0.81
8952.00,0.81
8950.00,0.81
8948.00,0.80
8946.00,0.80
8944.00,0.80
8942.00,0.80
8940.00,0.80
8938.00,0.80
8936.00,0.80
8934.00,0.79
8932.00,0.79
8930.00,0.79
8928.00,0.79
8926.00,0.79
8924.00,0.79
8922.00,0.79
8920.00,0.79
8918.00,0.79
8916.00,0.80
8914.00,0.80
8912.00,0.80
8910.00,0.81
8908.00,0.81
8906.00,0.81
8904.00,0.81
8902.00,0.81
8900.00,0.81
8898.00,0.81
8896.00,0.81
8894.00,0.81
8892.00,0.81
8890.00,0.80
8888.00,0.80
8886.00,0.80
8884.00,0.80
8882.00,0.80
8880.00,0.80
8878.00,0.80
8876.00,0.80
8874.00,0.80
8872.00,0.81
8870.00,0.81
8868.00,0.80
8866.00,0.80
8864.00,0.80
8862.00,0.80
8860.00,0.80
8858.00,0.80
8856.00,0.80
8854.00,0.79
8852.00,0.79
8850.00,0.79
8848.00,0.80
8846.00,0.80
8844.00,0.80
8842.00,0.80
8840.00,0.80
8838.00,0.80
8836.00,0.80
8834.00,0.80
8832.00,0.80
8830.00,0.80
8828.00,0.80
8826.00,0.80
8824.00,0.80
8822.00,0.80
8820.00,0.80
8818.00,0.80
8816.00,0.80
8814.00,0.80
8812.00,0.80
8810.00,0.79
8808.00,0.79
8806.00,0.79
8804.00,0.79
8802.00,0.79
8800.00,0.78
8798.00,0.78
8796.00,0.78
8794.00,0.78
8792.00,0.78
8790.00,0.79
8788.00,0.79
8786.00,0.79
8784.00,0.80
8782.00,0.80
8780.00,0.80
8778.00,0.81
8776.00,0.81
8774.00,0.81
8772.00,0.81
8770.00,0.81
8768.00,0.81
8766.00,0.81
8764.00,0.81
8762.00,0.81
8760.00,0.81
8758.00,0.80
8756.00,0.80
8754.00,0.80
8752.00,0.80
8750.00,0.80
8748.00,0.79
8746.00,0.79
8744.00,0.79
8742.00,0.79
8740.00,0.79
8738.00,0.79
8736.00,0.79
8734.00,0.79
8732.00,0.79
8730.00,0.79
8728.00,0.79
8726.00,0.79
8724.00,0.80
8722.00,0.80
8720.00,0.80
8718.00,0.80
8716.00,0.79
8714.00,0.79
8712.00,0.79
8710.00,0.79
8708.00,0.79
8706.00,0.79
8704.00,0.79
8702.00,0.79
8700.00,0.79
8698.00,0.79
8696.00,0.79
8694.00,0.79
8692.00,0.79
8690.00,0.79
8688.00,0.79
8686.00,0.79
8684.00,0.79
8682.00,0.79
8680.00,0.79
8678.00,0.79
8676.00,0.80
8674.00,0.80
8672.00,0.80
8670.00,0.80
8668.00,0.80
8666.00,0.80
8664.00,0.80
8662.00,0.80
8660.00,0.80
8658.00,0.80
8656.00,0.79
8654.00,0.79
8652.00,0.79
8650.00,0.78
8648.00,0.78
8646.00,0.79
8644.00,0.79
8642.00,0.79
8640.00,0.79
8638.00,0.80
8636.00,0.80
8634.00,0.80
8632.00,0.80
8630.00,0.81
8628.00,0.81
8626.00,0.81
8624.00,0.80
8622.00,0.80
8620.00,0.80
8618.00,0.80
8616.00,0.79
8614.00,0.79
8612.00,0.79
8610.00,0.78
8608.00,0.78
8606.00,0.78
8604.00,0.79
8602.00,0.79
8600.00,0.79
8598.00,0.79
8596.00,0.79
8594.00,0.79
8592.00,0.79
8590.00,0.79
8588.00,0.79
8586.00,0.79
8584.00,0.79
8582.00,0.79
8580.00,0.79
8578.00,0.79
8576.00,0.79
8574.00,0.80
8572.00,0.80
8570.00,0.80
8568.00,0.80
8566.00,0.80
8564.00,0.80
8562.00,0.80
8560.00,0.80
8558.00,0.80
8556.00,0.80
8554.00,0.81
8552.00,0.81
8550.00,0.81
8548.00,0.81
8546.00,0.81
8544.00,0.80
8542.00,0.80
8540.00,0.80
8538.00,0.80
8536.00,0.80
8534.00,0.80
8532.00,0.80
8530.00,0.80
8528.00,0.80
8526.00,0.80
8524.00,0.79
8522.00,0.79
8520.00,0.79
8518.00,0.79
8516.00,0.79
8514.00,0.79
8512.00,0.79
8510.00,0.79
8508.00,0.79
8506.00,0.79
8504.00,0.79
8502.00,0.79
8500.00,0.79
8498.00,0.79
8496.00,0.79
8494.00,0.79
8492.00,0.78
8490.00,0.78
8488.00,0.78
8486.00,0.77
8484.00,0.77
8482.00,0.77
8480.00,0.77
8478.00,0.77
8476.00,0.78
8474.00,0.78
8472.00,0.78
8470.00,0.78
8468.00,0.78
8466.00,0.78
8464.00,0.78
8462.00,0.78
8460.00,0.78
8458.00,0.78
8456.00,0.78
8454.00,0.78
8452.00,0.78
8450.00,0.78
8448.00,0.78
8446.00,0.78
8444.00,0.78
8442.00,0.78
8440.00,0.78
8438.00,0.78
8436.00,0.78
8434.00,0.78
8432.00,0.78
8430.00,0.78
8428.00,0.78
8426.00,0.78
8424.00,0.78
8422.00,0.78
8420.00,0.79
8418.00,0.79
8416.00,0.79
8414.00,0.79
8412.00,0.79
8410.00,0.79
8408.00,0.79
8406.00,0.79
8404.00,0.78
8402.00,0.78
8400.00,0.78
8398.00,0.78
8396.00,0.78
8394.00,0.78
8392.00,0.78
8390.00,0.78
8388.00,0.78
8386.00,0.78
8384.00,0.78
8382.00,0.78
8380.00,0.78
8378.00,0.78
8376.00,0.79
8374.00,0.79
8372.00,0.79
8370.00,0.78
8368.00,0.78
8366.00,0.78
8364.00,0.78
8362.00,0.78
8360.00,0.77
8358.00,0.77
8356.00,0.77
8354.00,0.77
8352.00,0.77
8350.00,0.77
8348.00,0.78
8346.00,0.78
8344.00,0.78
8342.00,0.78
8340.00,0.79
8338.00,0.79
8336.00,0.79
8334.00,0.79
8332.00,0.80
8330.00,0.80
8328.00,0.80
8326.00,0.80
8324.00,0.80
8322.00,0.80
8320.00,0.79
8318.00,0.79
8316.00,0.79
8314.00,0.79
8312.00,0.79
8310.00,0.79
8308.00,0.79
8306.00,0.79
8304.00,0.79
8302.00,0.79
8300.00,0.79
8298.00,0.79
8296.00,0.79
8294.00,0.79
8292.00,0.79
8290.00,0.79
8288.00,0.79
8286.00,0.78
8284.00,0.78
8282.00,0.78
8280.00,0.78
8278.00,0.78
8276.00,0.78
8274.00,0.78
8272.00,0.78
8270.00,0.78
8268.00,0.79
8266.00,0.79
8264.00,0.79
8262.00,0.79
8260.00,0.79
8258.00,0.79
8256.00,0.79
8254.00,0.79
8252.00,0.80
8250.00,0.80
8248.00,0.80
8246.00,0.80
8244.00,0.80
8242.00,0.81
8240.00,0.80
8238.00,0.80
8236.00,0.80
8234.00,0.80
8232.00,0.80
8230.00,0.80
8228.00,0.79
8226.00,0.79
8224.00,0.79
8222.00,0.79
8220.00,0.79
8218.00,0.79
8216.00,0.79
8214.00,0.79
8212.00,0.79
8210.00,0.79
8208.00,0.79
8206.00,0.79
8204.00,0.79
8202.00,0.79
8200.00,0.79
8198.00,0.79
8196.00,0.79
8194.00,0.79
8192.00,0.79
8190.00,0.79
8188.00,0.79
8186.00,0.79
8184.00,0.79
8182.00,0.79
8180.00,0.79
8178.00,0.79
8176.00,0.79
8174.00,0.79
8172.00,0.79
8170.00,0.79
8168.00,0.79
8166.00,0.79
8164.00,0.78
8162.00,0.78
8160.00,0.78
8158.00,0.78
8156.00,0.78
8154.00,0.78
8152.00,0.78
8150.00,0.78
8148.00,0.79
8146.00,0.79
8144.00,0.79
8142.00,0.80
8140.00,0.80
8138.00,0.80
8136.00,0.81
8134.00,0.81
8132.00,0.81
8130.00,0.81
8128.00,0.81
8126.00,0.81
8124.00,0.80
8122.00,0.80
8120.00,0.80
8118.00,0.80
8116.00,0.79
8114.00,0.79
8112.00,0.80
8110.00,0.80
8108.00,0.80
8106.00,0.80
8104.00,0.80
8102.00,0.80
8100.00,0.80
8098.00,0.80
8096.00,0.79
8094.00,0.79
8092.00,0.79
8090.00,0.79
8088.00,0.79
8086.00,0.79
8084.00,0.79
8082.00,0.79
8080.00,0.80
8078.00,0.80
8076.00,0.80
8074.00,0.80
8072.00,0.80
8070.00,0.80
8068.00,0.80
8066.00,0.80
8064.00,0.80
8062.00,0.80
8060.00,0.80
8058.00,0.80
8056.00,0.79
8054.00,0.79
8052.00,0.80
8050.00,0.80
8048.00,0.80
8046.00,0.80
8044.00,0.80
8042.00,0.80
8040.00,0.81
8038.00,0.81
8036.00,0.81
8034.00,0.81
8032.00,0.80
8030.00,0.80
8028.00,0.80
8026.00,0.80
8024.00,0.80
8022.00,0.80
8020.00,0.80
8018.00,0.79
8016.00,0.79
8014.00,0.79
8012.00,0.79
8010.00,0.79
8008.00,0.79
8006.00,0.79
8004.00,0.79
8002.00,0.79
8000.00,0.79
7998.00,0.79
7996.00,0.80
7994.00,0.80
7992.00,0.80
7990.00,0.80
7988.00,0.80
7986.00,0.80
7984.00,0.80
7982.00,0.80
7980.00,0.80
7978.00,0.79
7976.00,0.79
7974.00,0.79
7972.00,0.79
7970.00,0.79
7968.00,0.79
7966.00,0.79
7964.00,0.79
7962.00,0.79
7960.00,0.80
7958.00,0.80
7956.00,0.80
7954.00,0.80
7952.00,0.80
7950.00,0.81
7948.00,0.81
7946.00,0.81
7944.00,0.81
7942.00,0.80
7940.00,0.80
7938.00,0.80
7936.00,0.80
7934.00,0.80
7932.00,0.79
7930.00,0.79
7928.00,0.79
7926.00,0.79
7924.00,0.79
7922.00,0.80
7920.00,0.80
7918.00,0.80
7916.00,0.80
7914.00,0.80
7912.00,0.80
7910.00,0.80
7908.00,0.80
7906.00,0.80
7904.00,0.80
7902.00,0.80
7900.00,0.80
7898.00,0.80
7896.00,0.80
7894.00,0.79
7892.00,0.79
7890.00,0.79
7888.00,0.79
7886.00,0.79
7884.00,0.79
7882.00,0.79
7880.00,0.79
7878.00,0.79
7876.00,0.79
7874.00,0.80
7872.00,0.80
7870.00,0.80
7868.00,0.80
7866.00,0.80
7864.00,0.80
7862.00,0.80
7860.00,0.80
7858.00,0.80
7856.00,0.80
7854.00,0.80
7852.00,0.80
7850.00,0.80
7848.00,0.80
7846.00,0.80
7844.00,0.81
7842.00,0.81
7840.00,0.81
7838.00,0.81
7836.00,0.81
7834.00,0.81
7832.00,0.80
7830.00,0.80
7828.00,0.80
7826.00,0.80
7824.00,0.80
7822.00,0.80
7820.00,0.80
7818.00,0.80
7816.00,0.80
7814.00,0.80
7812.00,0.80
7810.00,0.81
7808.00,0.81
7806.00,0.81
7804.00,0.81
7802.00,0.81
7800.00,0.81
7798.00,0.81
7796.00,0.81
7794.00,0.81
7792.00,0.81
7790.00,0.81
7788.00,0.81
7786.00,0.80
7784.00,0.80
7782.00,0.80
7780.00,0.80
7778.00,0.80
7776.00,0.80
7774.00,0.80
7772.00,0.80
7770.00,0.80
7768.00,0.80
7766.00,0.80
7764.00,0.80
7762.00,0.80
7760.00,0.80
7758.00,0.80
7756.00,0.80
7754.00,0.80
7752.00,0.80
7750.00,0.81
7748.00,0.81
7746.00,0.80
7744.00,0.80
7742.00,0.80
7740.00,0.80
7738.00,0.80
7736.00,0.80
7734.00,0.80
7732.00,0.80
7730.00,0.80
7728.00,0.80
7726.00,0.80
7724.00,0.80
7722.00,0.80
7720.00,0.80
7718.00,0.80
7716.00,0.80
7714.00,0.80
7712.00,0.80
7710.00,0.80
7708.00,0.80
7706.00,0.80
7704.00,0.80
7702.00,0.80
7700.00,0.80
7698.00,0.80
7696.00,0.80
7694.00,0.80
7692.00,0.79
7690.00,0.79
7688.00,0.79
7686.00,0.79
7684.00,0.79
7682.00,0.79
7680.00,0.80
7678.00,0.80
7676.00,0.80
7674.00,0.80
7672.00,0.80
7670.00,0.81
7668.00,0.81
7666.00,0.80
7664.00,0.80
7662.00,0.80
7660.00,0.80
7658.00,0.80
7656.00,0.79
7654.00,0.79
7652.00,0.80
7650.00,0.80
7648.00,0.80
7646.00,0.80
7644.00,0.80
7642.00,0.80
7640.00,0.80
7638.00,0.80
7636.00,0.80
7634.00,0.80
7632.00,0.80
7630.00,0.80
7628.00,0.80
7626.00,0.80
7624.00,0.80
7622.00,0.80
7620.00,0.80
7618.00,0.80
7616.00,0.80
7614.00,0.80
7612.00,0.80
7610.00,0.80
7608.00,0.80
7606.00,0.80
7604.00,0.80
7602.00,0.80
7600.00,0.80
7598.00,0.80
7596.00,0.80
7594.00,0.81
7592.00,0.81
7590.00,0.81
7588.00,0.81
7586.00,0.80
7584.00,0.80
7582.00,0.80
7580.00,0.80
7578.00,0.80
7576.00,0.80
7574.00,0.80
7572.00,0.80
7570.00,0.80
7568.00,0.80
7566.00,0.80
7564.00,0.79
7562.00,0.79
7560.00,0.79
7558.00,0.79
7556.00,0.79
7554.00,0.79
7552.00,0.80
7550.00,0.80
7548.00,0.80
7546.00,0.80
7544.00,0.80
7542.00,0.80
7540.00,0.80
7538.00,0.80
7536.00,0.80
7534.00,0.80
7532.00,0.80
7530.00,0.80
7528.00,0.80
7526.00,0.80
7524.00,0.80
7522.00,0.80
7520.00,0.80
7518.00,0.80
7516.00,0.80
7514.00,0.80
7512.00,0.80
7510.00,0.80
7508.00,0.80
7506.00,0.80
7504.00,0.80
7502.00,0.80
7500.00,0.80
7498.00,0.80
7496.00,0.80
7494.00,0.80
7492.00,0.80
7490.00,0.79
7488.00,0.79
7486.00,0.79
7484.00,0.79
7482.00,0.79
7480.00,0.79
7478.00,0.79
7476.00,0.79
7474.00,0.80
7472.00,0.80
7470.00,0.80
7468.00,0.80
7466.00,0.80
7464.00,0.80
7462.00,0.80
7460.00,0.80
7458.00,0.80
7456.00,0.80
7454.00,0.80
7452.00,0.80
7450.00,0.80
7448.00,0.80
7446.00,0.80
7444.00,0.80
7442.00,0.80
7440.00,0.80
7438.00,0.80
7436.00,0.80
7434.00,0.80
7432.00,0.80
7430.00,0.80
7428.00,0.79
7426.00,0.79
7424.00,0.79
7422.00,0.79
7420.00,0.79
7418.00,0.79
7416.00,0.79
7414.00,0.79
7412.00,0.80
7410.00,0.80
7408.00,0.80
7406.00,0.80
7404.00,0.80
7402.00,0.79
7400.00,0.79
7398.00,0.79
7396.00,0.79
7394.00,0.79
7392.00,0.78
7390.00,0.78
7388.00,0.78
7386.00,0.78
7384.00,0.78
7382.00,0.79
7380.00,0.79
7378.00,0.79
7376.00,0.79
7374.00,0.79
7372.00,0.79
7370.00,0.79
7368.00,0.79
7366.00,0.79
7364.00,0.79
7362.00,0.79
7360.00,0.79
7358.00,0.79
7356.00,0.78
7354.00,0.78
7352.00,0.78
7350.00,0.78
7348.00,0.78
7346.00,0.78
7344.00,0.78
7342.00,0.78
7340.00,0.78
7338.00,0.78
7336.00,0.78
7334.00,0.78
7332.00,0.78
7330.00,0.78
7328.00,0.78
7326.00,0.78
7324.00,0.78
7322.00,0.78
7320.00,0.78
7318.00,0.78
7316.00,0.78
7314.00,0.78
7312.00,0.78
7310.00,0.78
7308.00,0.78
7306.00,0.78
7304.00,0.78
7302.00,0.78
7300.00,0.77
7298.00,0.78
7296.00,0.78
7294.00,0.78
7292.00,0.78
7290.00,0.78
7288.00,0.78
7286.00,0.78
7284.00,0.78
7282.00,0.78
7280.00,0.78
7278.00,0.79
7276.00,0.79
7274.00,0.79
7272.00,0.78
7270.00,0.78
7268.00,0.78
7266.00,0.78
7264.00,0.78
7262.00,0.77
7260.00,0.77
7258.00,0.77
7256.00,0.77
7254.00,0.77
7252.00,0.77
7250.00,0.77
7248.00,0.77
7246.00,0.77
7244.00,0.77
7242.00,0.77
7240.00,0.77
7238.00,0.77
7236.00,0.77
7234.00,0.77
7232.00,0.77
7230.00,0.77
7228.00,0.77
7226.00,0.76
7224.00,0.76
7222.00,0.76
7220.00,0.76
7218.00,0.76
7216.00,0.76
7214.00,0.76
7212.00,0.75
7210.00,0.75
7208.00,0.75
7206.00,0.75
7204.00,0.75
7202.00,0.75
7200.00,0.75
7198.00,0.75
7196.00,0.75
7194.00,0.75
7192.00,0.75
7190.00,0.75
7188.00,0.75
7186.00,0.75
7184.00,0.75
7182.00,0.75
7180.00,0.75
7178.00,0.75
7176.00,0.75
7174.00,0.75
7172.00,0.75
7170.00,0.75
7168.00,0.75
7166.00,0.75
7164.00,0.75
7162.00,0.75
7160.00,0.75
7158.00,0.75
7156.00,0.75
7154.00,0.75
7152.00,0.74
7150.00,0.74
7148.00,0.74
7146.00,0.74
7144.00,0.74
7142.00,0.74
7140.00,0.74
7138.00,0.74
7136.00,0.74
7134.00,0.74
7132.00,0.74
7130.00,0.74
7128.00,0.74
7126.00,0.74
7124.00,0.74
7122.00,0.73
7120.00,0.73
7118.00,0.73
7116.00,0.73
7114.00,0.73
7112.00,0.73
7110.00,0.73
7108.00,0.73
7106.00,0.73
7104.00,0.73
7102.00,0.73
7100.00,0.73
7098.00,0.73
7096.00,0.73
7094.00,0.73
7092.00,0.73
7090.00,0.72
7088.00,0.72
7086.00,0.72
7084.00,0.72
7082.00,0.72
7080.00,0.72
7078.00,0.72
7076.00,0.72
7074.00,0.72
7072.00,0.72
7070.00,0.72
7068.00,0.72
7066.00,0.72
7064.00,0.72
7062.00,0.72
7060.00,0.72
7058.00,0.72
7056.00,0.71
7054.00,0.71
7052.00,0.71
7050.00,0.72
7048.00,0.72
7046.00,0.72
7044.00,0.72
7042.00,0.72
7040.00,0.72
7038.00,0.72
7036.00,0.72
7034.00,0.72
7032.00,0.72
7030.00,0.72
7028.00,0.72
7026.00,0.72
7024.00,0.72
7022.00,0.72
7020.00,0.72
7018.00,0.72
7016.00,0.72
7014.00,0.72
7012.00,0.72
7010.00,0.72
7008.00,0.72
7006.00,0.72
7004.00,0.72
7002.00,0.72
7000.00,0.72
6998.00,0.72
6996.00,0.72
6994.00,0.71
6992.00,0.71
6990.00,0.71
6988.00,0.71
6986.00,0.71
6984.00,0.71
6982.00,0.71
6980.00,0.71
6978.00,0.71
6976.00,0.71
6974.00,0.71
6972.00,0.71
6970.00,0.71
6968.00,0.71
6966.00,0.71
6964.00,0.71
6962.00,0.71
6960.00,0.71
6958.00,0.71
6956.00,0.71
6954.00,0.71
6952.00,0.71
6950.00,0.71
6948.00,0.71
6946.00,0.71
6944.00,0.71
6942.00,0.71
6940.00,0.71
6938.00,0.71
6936.00,0.71
6934.00,0.71
6932.00,0.71
6930.00,0.71
6928.00,0.71
6926.00,0.71
6924.00,0.71
6922.00,0.71
6920.00,0.71
6918.00,0.70
6916.00,0.70
6914.00,0.70
6912.00,0.70
6910.00,0.70
6908.00,0.70
6906.00,0.70
6904.00,0.70
6902.00,0.70
6900.00,0.70
6898.00,0.70
6896.00,0.70
6894.00,0.70
6892.00,0.70
6890.00,0.71
6888.00,0.71
6886.00,0.71
6884.00,0.71
6882.00,0.71
6880.00,0.71
6878.00,0.71
6876.00,0.71
6874.00,0.71
6872.00,0.71
6870.00,0.71
6868.00,0.71
6866.00,0.71
6864.00,0.71
6862.00,0.71
6860.00,0.71
6858.00,0.71
6856.00,0.70
6854.00,0.70
6852.00,0.70
6850.00,0.70
6848.00,0.69
6846.00,0.69
6844.00,0.69
6842.00,0.70
6840.00,0.70
6838.00,0.70
6836.00,0.70
6834.00,0.70
6832.00,0.70
6830.00,0.70
6828.00,0.71
6826.00,0.71
6824.00,0.71
6822.00,0.71
6820.00,0.70
6818.00,0.70
6816.00,0.71
6814.00,0.71
6812.00,0.71
6810.00,0.71
6808.00,0.71
6806.00,0.71
6804.00,0.71
6802.00,0.71
6800.00,0.71
6798.00,0.71
6796.00,0.71
6794.00,0.71
6792.00,0.71
6790.00,0.71
6788.00,0.71
6786.00,0.71
6784.00,0.71
6782.00,0.71
6780.00,0.71
6778.00,0.71
6776.00,0.71
6774.00,0.71
6772.00,0.71
6770.00,0.71
6768.00,0.71
6766.00,0.71
6764.00,0.71
6762.00,0.71
6760.00,0.71
6758.00,0.71
6756.00,0.71
6754.00,0.71
6752.00,0.71
6750.00,0.71
6748.00,0.71
6746.00,0.71
6744.00,0.71
6742.00,0.71
6740.00,0.71
6738.00,0.71
6736.00,0.71
6734.00,0.71
6732.00,0.71
6730.00,0.71
6728.00,0.71
6726.00,0.71
6724.00,0.71
6722.00,0.71
6720.00,0.71
6718.00,0.71
6716.00,0.71
6714.00,0.71
6712.00,0.72
6710.00,0.72
6708.00,0.72
6706.00,0.72
6704.00,0.72
6702.00,0.72
6700.00,0.72
6698.00,0.72
6696.00,0.72
6694.00,0.72
6692.00,0.72
6690.00,0.72
6688.00,0.72
6686.00,0.72
6684.00,0.72
6682.00,0.72
6680.00,0.72
6678.00,0.71
6676.00,0.71
6674.00,0.71
6672.00,0.72
6670.00,0.72
6668.00,0.72
6666.00,0.72
6664.00,0.72
6662.00,0.72
6660.00,0.72
6658.00,0.72
6656.00,0.73
6654.00,0.73
6652.00,0.73
6650.00,0.73
6648.00,0.73
6646.00,0.73
6644.00,0.73
6642.00,0.73
6640.00,0.73
6638.00,0.73
6636.00,0.73
6634.00,0.73
6632.00,0.73
6630.00,0.73
6628.00,0.73
6626.00,0.73
6624.00,0.73
6622.00,0.73
6620.00,0.73
6618.00,0.73
6616.00,0.73
6614.00,0.73
6612.00,0.73
6610.00,0.73
6608.00,0.73
6606.00,0.73
6604.00,0.73
6602.00,0.73
6600.00,0.73
6598.00,0.73
6596.00,0.73
6594.00,0.73
6592.00,0.73
6590.00,0.73
6588.00,0.73
6586.00,0.73
6584.00,0.73
6582.00,0.73
6580.00,0.73
6578.00,0.73
6576.00,0.73
6574.00,0.73
6572.00,0.73
6570.00,0.73
6568.00,0.73
6566.00,0.73
6564.00,0.73
6562.00,0.73
6560.00,0.73
6558.00,0.73
6556.00,0.73
6554.00,0.73
6552.00,0.73
6550.00,0.73
6548.00,0.73
6546.00,0.73
6544.00,0.73
6542.00,0.73
6540.00,0.73
6538.00,0.73
6536.00,0.73
6534.00,0.73
6532.00,0.73
6530.00,0.73
6528.00,0.73
6526.00,0.73
6524.00,0.73
6522.00,0.73
6520.00,0.73
6518.00,0.73
6516.00,0.73
6514.00,0.73
6512.00,0.73
6510.00,0.74
6508.00,0.74
6506.00,0.74
6504.00,0.74
6502.00,0.74
6500.00,0.74
6498.00,0.74
6496.00,0.74
6494.00,0.74
6492.00,0.74
6490.00,0.74
6488.00,0.74
6486.00,0.74
6484.00,0.74
6482.00,0.74
6480.00,0.74
6478.00,0.74
6476.00,0.74
6474.00,0.74
6472.00,0.74
6470.00,0.74
6468.00,0.75
6466.00,0.75
6464.00,0.75
6462.00,0.75
6460.00,0.75
6458.00,0.75
6456.00,0.75
6454.00,0.74
6452.00,0.74
6450.00,0.74
6448.00,0.74
6446.00,0.74
6444.00,0.74
6442.00,0.74
6440.00,0.74
6438.00,0.74
6436.00,0.74
6434.00,0.74
6432.00,0.74
6430.00,0.74
6428.00,0.74
6426.00,0.74
6424.00,0.74
6422.00,0.74
6420.00,0.74
6418.00,0.75
6416.00,0.75
6414.00,0.75
6412.00,0.75
6410.00,0.75
6408.00,0.75
6406.00,0.75
6404.00,0.75
6402.00,0.75
6400.00,0.75
6398.00,0.75
6396.00,0.75
6394.00,0.74
6392.00,0.74
6390.00,0.74
6388.00,0.74
6386.00,0.74
6384.00,0.74
6382.00,0.75
6380.00,0.75
6378.00,0.75
6376.00,0.75
6374.00,0.75
6372.00,0.75
6370.00,0.75
6368.00,0.75
6366.00,0.75
6364.00,0.75
6362.00,0.75
6360.00,0.75
6358.00,0.75
6356.00,0.75
6354.00,0.75
6352.00,0.75
6350.00,0.75
6348.00,0.75
6346.00,0.75
6344.00,0.75
6342.00,0.75
6340.00,0.75
6338.00,0.75
6336.00,0.75
6334.00,0.75
6332.00,0.75
6330.00,0.75
6328.00,0.75
6326.00,0.75
6324.00,0.75
6322.00,0.75
6320.00,0.75
6318.00,0.75
6316.00,0.75
6314.00,0.75
6312.00,0.75
6310.00,0.75
6308.00,0.75
6306.00,0.75
6304.00,0.75
6302.00,0.76
6300.00,0.76
6298.00,0.76
6296.00,0.76
6294.00,0.76
6292.00,0.76
6290.00,0.76
6288.00,0.76
6286.00,0.76
6284.00,0.76
6282.00,0.76
6280.00,0.76
6278.00,0.76
6276.00,0.76
6274.00,0.76
6272.00,0.76
6270.00,0.76
6268.00,0.76
6266.00,0.76
6264.00,0.76
6262.00,0.76
6260.00,0.77
6258.00,0.77
6256.00,0.77
6254.00,0.77
6252.00,0.77
6250.00,0.76
6248.00,0.76
6246.00,0.76
6244.00,0.76
6242.00,0.77
6240.00,0.77
6238.00,0.77
6236.00,0.77
6234.00,0.77
6232.00,0.77
6230.00,0.77
6228.00,0.77
6226.00,0.77
6224.00,0.77
6222.00,0.77
6220.00,0.77
6218.00,0.77
6216.00,0.77
6214.00,0.77
6212.00,0.77
6210.00,0.77
6208.00,0.77
6206.00,0.77
6204.00,0.77
6202.00,0.77
6200.00,0.77
6198.00,0.77
6196.00,0.77
6194.00,0.77
6192.00,0.77
6190.00,0.77
6188.00,0.77
6186.00,0.77
6184.00,0.77
6182.00,0.77
6180.00,0.77
6178.00,0.77
6176.00,0.77
6174.00,0.77
6172.00,0.77
6170.00,0.77
6168.00,0.77
6166.00,0.77
6164.00,0.77
6162.00,0.77
6160.00,0.78
6158.00,0.78
6156.00,0.78
6154.00,0.78
6152.00,0.78
6150.00,0.78
6148.00,0.78
6146.00,0.78
6144.00,0.78
6142.00,0.78
6140.00,0.78
6138.00,0.78
6136.00,0.78
6134.00,0.78
6132.00,0.78
6130.00,0.78
6128.00,0.78
6126.00,0.78
6124.00,0.78
6122.00,0.78
6120.00,0.78
6118.00,0.78
6116.00,0.78
6114.00,0.78
6112.00,0.78
6110.00,0.78
6108.00,0.78
6106.00,0.78
6104.00,0.78
6102.00,0.78
6100.00,0.78
6098.00,0.78
6096.00,0.78
6094.00,0.78
6092.00,0.78
6090.00,0.78
6088.00,0.78
6086.00,0.78
6084.00,0.78
6082.00,0.78
6080.00,0.79
6078.00,0.79
6076.00,0.79
6074.00,0.79
6072.00,0.79
6070.00,0.79
6068.00,0.79
6066.00,0.79
6064.00,0.79
6062.00,0.79
6060.00,0.79
6058.00,0.79
6056.00,0.79
6054.00,0.79
6052.00,0.79
6050.00,0.79
6048.00,0.79
6046.00,0.79
6044.00,0.79
6042.00,0.79
6040.00,0.79
6038.00,0.79
6036.00,0.79
6034.00,0.79
6032.00,0.79
6030.00,0.79
6028.00,0.79
6026.00,0.79
6024.00,0.79
6022.00,0.79
6020.00,0.79
6018.00,0.79
6016.00,0.79
6014.00,0.79
6012.00,0.79
6010.00,0.79
6008.00,0.79
6006.00,0.79
6004.00,0.79
6002.00,0.79
6000.00,0.79
5998.00,0.79
5996.00,0.79
5994.00,0.79
5992.00,0.79
5990.00,0.79
5988.00,0.79
5986.00,0.79
5984.00,0.79
5982.00,0.79
5980.00,0.78
5978.00,0.78
5976.00,0.78
5974.00,0.78
5972.00,0.79
5970.00,0.79
5968.00,0.79
5966.00,0.78
5964.00,0.78
5962.00,0.78
5960.00,0.78
5958.00,0.78
5956.00,0.77
5954.00,0.77
5952.00,0.77
5950.00,0.77
5948.00,0.77
5946.00,0.77
5944.00,0.77
5942.00,0.77
5940.00,0.77
5938.00,0.77
5936.00,0.77
5934.00,0.76
5932.00,0.76
5930.00,0.76
5928.00,0.76
5926.00,0.76
5924.00,0.76
5922.00,0.76
5920.00,0.76
5918.00,0.76
5916.00,0.76
5914.00,0.76
5912.00,0.76
5910.00,0.76
5908.00,0.76
5906.00,0.76
5904.00,0.76
5902.00,0.76
5900.00,0.76
5898.00,0.76
5896.00,0.76
5894.00,0.76
5892.00,0.76
5890.00,0.76
5888.00,0.76
5886.00,0.76
5884.00,0.76
5882.00,0.76
5880.00,0.77
5878.00,0.77
5876.00,0.77
5874.00,0.77
5872.00,0.77
5870.00,0.77
5868.00,0.77
5866.00,0.77
5864.00,0.77
5862.00,0.77
5860.00,0.77
5858.00,0.77
5856.00,0.77
5854.00,0.77
5852.00,0.77
5850.00,0.77
5848.00,0.77
5846.00,0.77
5844.00,0.77
5842.00,0.77
5840.00,0.77
5838.00,0.77
5836.00,0.77
5834.00,0.77
5832.00,0.77
5830.00,0.77
5828.00,0.77
5826.00,0.77
5824.00,0.77
5822.00,0.77
5820.00,0.77
5818.00,0.77
5816.00,0.77
5814.00,0.77
5812.00,0.77
5810.00,0.77
5808.00,0.77
5806.00,0.77
5804.00,0.77
5802.00,0.77
5800.00,0.77
5798.00,0.77
5796.00,0.77
5794.00,0.77
5792.00,0.77
5790.00,0.77
5788.00,0.77
5786.00,0.77
5784.00,0.77
5782.00,0.77
5780.00,0.77
5778.00,0.77
5776.00,0.77
5774.00,0.77
5772.00,0.77
5770.00,0.77
5768.00,0.77
5766.00,0.77
5764.00,0.77
5762.00,0.77
5760.00,0.77
5758.00,0.77
5756.00,0.77
5754.00,0.77
5752.00,0.77
5750.00,0.77
5748.00,0.77
5746.00,0.77
5744.00,0.78
5742.00,0.78
5740.00,0.78
5738.00,0.78
5736.00,0.78
5734.00,0.78
5732.00,0.78
5730.00,0.78
5728.00,0.78
5726.00,0.78
5724.00,0.78
5722.00,0.78
5720.00,0.78
5718.00,0.78
5716.00,0.78
5714.00,0.78
5712.00,0.78
5710.00,0.78
5708.00,0.78
5706.00,0.78
5704.00,0.78
5702.00,0.78
5700.00,0.78
5698.00,0.78
5696.00,0.78
5694.00,0.78
5692.00,0.78
5690.00,0.78
5688.00,0.78
5686.00,0.78
5684.00,0.78
5682.00,0.78
5680.00,0.78
5678.00,0.78
5676.00,0.78
5674.00,0.78
5672.00,0.78
5670.00,0.78
5668.00,0.78
5666.00,0.78
5664.00,0.78
5662.00,0.78
5660.00,0.78
5658.00,0.78
5656.00,0.78
5654.00,0.78
5652.00,0.78
5650.00,0.78
5648.00,0.78
5646.00,0.78
5644.00,0.78
5642.00,0.78
5640.00,0.78
5638.00,0.79
5636.00,0.79
5634.00,0.79
5632.00,0.79
5630.00,0.79
5628.00,0.79
5626.00,0.79
5624.00,0.79
5622.00,0.79
5620.00,0.79
5618.00,0.79
5616.00,0.79
5614.00,0.79
5612.00,0.79
5610.00,0.79
5608.00,0.79
5606.00,0.79
5604.00,0.79
5602.00,0.79
5600.00,0.79
5598.00,0.79
5596.00,0.79
5594.00,0.80
5592.00,0.80
5590.00,0.80
5588.00,0.80
5586.00,0.80
5584.00,0.80
5582.00,0.80
5580.00,0.80
5578.00,0.80
5576.00,0.80
5574.00,0.80
5572.00,0.80
5570.00,0.80
5568.00,0.80
5566.00,0.80
5564.00,0.80
5562.00,0.80
5560.00,0.80
5558.00,0.80
5556.00,0.80
5554.00,0.80
5552.00,0.80
5550.00,0.80
5548.00,0.80
5546.00,0.81
5544.00,0.81
5542.00,0.81
5540.00,0.81
5538.00,0.81
5536.00,0.81
5534.00,0.81
5532.00,0.81
5530.00,0.81
5528.00,0.81
5526.00,0.81
5524.00,0.81
5522.00,0.81
5520.00,0.81
5518.00,0.81
5516.00,0.81
5514.00,0.81
5512.00,0.81
5510.00,0.81
5508.00,0.81
5506.00,0.81
5504.00,0.81
5502.00,0.81
5500.00,0.81
5498.00,0.81
5496.00,0.81
5494.00,0.81
5492.00,0.81
5490.00,0.81
5488.00,0.81
5486.00,0.81
5484.00,0.81
5482.00,0.81
5480.00,0.81
5478.00,0.81
5476.00,0.81
5474.00,0.81
5472.00,0.81
5470.00,0.81
5468.00,0.81
5466.00,0.81
5464.00,0.81
5462.00,0.81
5460.00,0.81
5458.00,0.81
5456.00,0.81
5454.00,0.81
5452.00,0.81
5450.00,0.81
5448.00,0.81
5446.00,0.81
5444.00,0.81
5442.00,0.81
5440.00,0.81
5438.00,0.81
5436.00,0.81
5434.00,0.81
5432.00,0.81
5430.00,0.82
5428.00,0.82
5426.00,0.82
5424.00,0.82
5422.00,0.82
5420.00,0.81
5418.00,0.81
5416.00,0.81
5414.00,0.81
5412.00,0.81
5410.00,0.81
5408.00,0.81
5406.00,0.81
5404.00,0.81
5402.00,0.82
5400.00,0.82
5398.00,0.82
5396.00,0.81
5394.00,0.81
5392.00,0.81
5390.00,0.81
5388.00,0.81
5386.00,0.81
5384.00,0.81
5382.00,0.81
5380.00,0.81
5378.00,0.81
5376.00,0.81
5374.00,0.81
5372.00,0.81
5370.00,0.81
5368.00,0.81
5366.00,0.81
5364.00,0.81
5362.00,0.81
5360.00,0.81
5358.00,0.81
5356.00,0.81
5354.00,0.80
5352.00,0.80
5350.00,0.80
5348.00,0.80
5346.00,0.80
5344.00,0.79
5342.00,0.79
5340.00,0.79
5338.00,0.79
5336.00,0.79
5334.00,0.79
5332.00,0.79
5330.00,0.79
5328.00,0.78
5326.00,0.78
5324.00,0.78
5322.00,0.78
5320.00,0.77
5318.00,0.77
5316.00,0.77
5314.00,0.77
5312.00,0.76
5310.00,0.76
5308.00,0.76
5306.00,0.75
5304.00,0.75
5302.00,0.75
5300.00,0.74
5298.00,0.74
5296.00,0.74
5294.00,0.74
5292.00,0.73
5290.00,0.73
5288.00,0.73
5286.00,0.72
5284.00,0.72
5282.00,0.72
5280.00,0.72
5278.00,0.71
5276.00,0.71
5274.00,0.71
5272.00,0.71
5270.00,0.70
5268.00,0.70
5266.00,0.70
5264.00,0.70
5262.00,0.70
5260.00,0.70
5258.00,0.69
5256.00,0.69
5254.00,0.69
5252.00,0.69
5250.00,0.69
5248.00,0.69
5246.00,0.68
5244.00,0.68
5242.00,0.68
5240.00,0.68
5238.00,0.68
5236.00,0.68
5234.00,0.68
5232.00,0.68
5230.00,0.67
5228.00,0.67
5226.00,0.67
5224.00,0.67
5222.00,0.67
5220.00,0.67
5218.00,0.66
5216.00,0.66
5214.00,0.66
5212.00,0.66
5210.00,0.66
5208.00,0.66
5206.00,0.66
5204.00,0.65
5202.00,0.65
5200.00,0.65
5198.00,0.65
5196.00,0.65
5194.00,0.65
5192.00,0.65
5190.00,0.65
5188.00,0.65
5186.00,0.65
5184.00,0.65
5182.00,0.65
5180.00,0.65
5178.00,0.65
5176.00,0.65
5174.00,0.65
5172.00,0.65
5170.00,0.65
5168.00,0.65
5166.00,0.65
5164.00,0.65
5162.00,0.65
5160.00,0.65
5158.00,0.65
5156.00,0.65
5154.00,0.65
5152.00,0.65
5150.00,0.65
5148.00,0.65
5146.00,0.65
5144.00,0.65
5142.00,0.65
5140.00,0.65
5138.00,0.65
5136.00,0.65
5134.00,0.65
5132.00,0.66
5130.00,0.66
5128.00,0.66
5126.00,0.66
5124.00,0.66
5122.00,0.66
5120.00,0.66
5118.00,0.66
5116.00,0.66
5114.00,0.66
5112.00,0.66
5110.00,0.67
5108.00,0.67
5106.00,0.67
5104.00,0.67
5102.00,0.67
5100.00,0.67
5098.00,0.67
5096.00,0.67
5094.00,0.67
5092.00,0.68
5090.00,0.68
5088.00,0.68
5086.00,0.68
5084.00,0.68
5082.00,0.68
5080.00,0.69
5078.00,0.69
5076.00,0.69
5074.00,0.69
5072.00,0.69
5070.00,0.69
5068.00,0.69
5066.00,0.69
5064.00,0.69
5062.00,0.69
5060.00,0.69
5058.00,0.69
5056.00,0.70
5054.00,0.70
5052.00,0.70
5050.00,0.70
5048.00,0.70
5046.00,0.70
5044.00,0.70
5042.00,0.70
5040.00,0.71
5038.00,0.71
5036.00,0.71
5034.00,0.71
5032.00,0.71
5030.00,0.71
5028.00,0.71
5026.00,0.71
5024.00,0.71
5022.00,0.71
5020.00,0.72
5018.00,0.72
5016.00,0.72
5014.00,0.72
5012.00,0.72
5010.00,0.72
5008.00,0.72
5006.00,0.72
5004.00,0.72
5002.00,0.72
5000.00,0.72
4998.00,0.72
4996.00,0.73
4994.00,0.73
4992.00,0.73
4990.00,0.73
4988.00,0.73
4986.00,0.73
4984.00,0.73
4982.00,0.73
4980.00,0.73
4978.00,0.73
4976.00,0.73
4974.00,0.74
4972.00,0.74
4970.00,0.74
4968.00,0.74
4966.00,0.74
4964.00,0.74
4962.00,0.74
4960.00,0.74
4958.00,0.74
4956.00,0.74
4954.00,0.74
4952.00,0.74
4950.00,0.74
4948.00,0.74
4946.00,0.74
4944.00,0.74
4942.00,0.75
4940.00,0.75
4938.00,0.75
4936.00,0.75
4934.00,0.75
4932.00,0.75
4930.00,0.75
4928.00,0.75
4926.00,0.75
4924.00,0.75
4922.00,0.75
4920.00,0.75
4918.00,0.75
4916.00,0.75
4914.00,0.75
4912.00,0.75
4910.00,0.75
4908.00,0.75
4906.00,0.75
4904.00,0.75
4902.00,0.75
4900.00,0.75
4898.00,0.75
4896.00,0.76
4894.00,0.76
4892.00,0.76
4890.00,0.76
4888.00,0.76
4886.00,0.76
4884.00,0.76
4882.00,0.76
4880.00,0.76
4878.00,0.76
4876.00,0.76
4874.00,0.76
4872.00,0.76
4870.00,0.76
4868.00,0.76
4866.00,0.76
4864.00,0.76
4862.00,0.76
4860.00,0.76
4858.00,0.76
4856.00,0.76
4854.00,0.76
4852.00,0.76
4850.00,0.76
4848.00,0.76
4846.00,0.76
4844.00,0.76
4842.00,0.76
4840.00,0.76
4838.00,0.76
4836.00,0.76
4834.00,0.76
4832.00,0.76
4830.00,0.76
4828.00,0.76
4826.00,0.77
4824.00,0.77
4822.00,0.77
4820.00,0.77
4818.00,0.77
4816.00,0.77
4814.00,0.77
4812.00,0.77
4810.00,0.77
4808.00,0.77
4806.00,0.77
4804.00,0.77
4802.00,0.77
4800.00,0.77
4798.00,0.77
4796.00,0.77
4794.00,0.77
4792.00,0.77
4790.00,0.78
4788.00,0.78
4786.00,0.78
4784.00,0.78
4782.00,0.78
4780.00,0.78
4778.00,0.78
4776.00,0.78
4774.00,0.78
4772.00,0.78
4770.00,0.78
4768.00,0.78
4766.00,0.78
4764.00,0.78
4762.00,0.78
4760.00,0.78
4758.00,0.78
4756.00,0.78
4754.00,0.78
4752.00,0.79
4750.00,0.79
4748.00,0.79
4746.00,0.79
4744.00,0.79
4742.00,0.79
4740.00,0.79
4738.00,0.79
4736.00,0.79
4734.00,0.79
4732.00,0.79
4730.00,0.79
4728.00,0.79
4726.00,0.79
4724.00,0.79
4722.00,0.79
4720.00,0.79
4718.00,0.79
4716.00,0.79
4714.00,0.79
4712.00,0.79
4710.00,0.79
4708.00,0.79
4706.00,0.79
4704.00,0.79
4702.00,0.79
4700.00,0.79
4698.00,0.79
4696.00,0.80
4694.00,0.80
4692.00,0.80
4690.00,0.80
4688.00,0.80
4686.00,0.80
4684.00,0.80
4682.00,0.80
4680.00,0.80
4678.00,0.80
4676.00,0.80
4674.00,0.80
4672.00,0.80
4670.00,0.80
4668.00,0.80
4666.00,0.80
4664.00,0.80
4662.00,0.80
4660.00,0.80
4658.00,0.81
4656.00,0.81
4654.00,0.81
4652.00,0.81
4650.00,0.81
4648.00,0.81
4646.00,0.80
4644.00,0.80
4642.00,0.80
4640.00,0.80
4638.00,0.80
4636.00,0.80
4634.00,0.81
4632.00,0.81
4630.00,0.81
4628.00,0.81
4626.00,0.81
4624.00,0.81
4622.00,0.81
4620.00,0.81
4618.00,0.81
4616.00,0.81
4614.00,0.81
4612.00,0.81
4610.00,0.81
4608.00,0.81
4606.00,0.81
4604.00,0.81
4602.00,0.81
4600.00,0.81
4598.00,0.81
4596.00,0.81
4594.00,0.81
4592.00,0.81
4590.00,0.81
4588.00,0.81
4586.00,0.81
4584.00,0.81
4582.00,0.81
4580.00,0.81
4578.00,0.81
4576.00,0.81
4574.00,0.81
4572.00,0.81
4570.00,0.81
4568.00,0.81
4566.00,0.81
4564.00,0.81
4562.00,0.81
4560.00,0.81
4558.00,0.81
4556.00,0.81
4554.00,0.81
4552.00,0.81
4550.00,0.81
4548.00,0.81
4546.00,0.81
4544.00,0.81
4542.00,0.81
4540.00,0.81
4538.00,0.81
4536.00,0.81
4534.00,0.81
4532.00,0.81
4530.00,0.81
4528.00,0.81
4526.00,0.81
4524.00,0.81
4522.00,0.81
4520.00,0.81
4518.00,0.81
4516.00,0.81
4514.00,0.81
4512.00,0.81
4510.00,0.81
4508.00,0.81
4506.00,0.81
4504.00,0.81
4502.00,0.81
4500.00,0.82
4498.00,0.82
4496.00,0.82
4494.00,0.82
4492.00,0.81
4490.00,0.81
4488.00,0.81
4486.00,0.81
4484.00,0.81
4482.00,0.81
4480.00,0.81
4478.00,0.81
4476.00,0.81
4474.00,0.81
4472.00,0.81
4470.00,0.81
4468.00,0.81
4466.00,0.81
4464.00,0.81
4462.00,0.81
4460.00,0.81
4458.00,0.81
4456.00,0.80
4454.00,0.80
4452.00,0.80
4450.00,0.80
4448.00,0.80
4446.00,0.80
4444.00,0.80
4442.00,0.79
4440.00,0.79
4438.00,0.79
4436.00,0.78
4434.00,0.78
4432.00,0.77
4430.00,0.77
4428.00,0.77
4426.00,0.76
4424.00,0.76
4422.00,0.76
4420.00,0.75
4418.00,0.75
4416.00,0.75
4414.00,0.75
4412.00,0.75
4410.00,0.75
4408.00,0.75
4406.00,0.75
4404.00,0.75
4402.00,0.75
4400.00,0.75
4398.00,0.75
4396.00,0.75
4394.00,0.75
4392.00,0.76
4390.00,0.76
4388.00,0.76
4386.00,0.76
4384.00,0.77
4382.00,0.77
4380.00,0.77
4378.00,0.77
4376.00,0.77
4374.00,0.77
4372.00,0.78
4370.00,0.78
4368.00,0.78
4366.00,0.78
4364.00,0.78
4362.00,0.78
4360.00,0.77
4358.00,0.77
4356.00,0.77
4354.00,0.77
4352.00,0.77
4350.00,0.76
4348.00,0.76
4346.00,0.76
4344.00,0.76
4342.00,0.75
4340.00,0.75
4338.00,0.75
4336.00,0.75
4334.00,0.75
4332.00,0.75
4330.00,0.75
4328.00,0.76
4326.00,0.76
4324.00,0.76
4322.00,0.77
4320.00,0.77
4318.00,0.78
4316.00,0.78
4314.00,0.78
4312.00,0.79
4310.00,0.79
4308.00,0.79
4306.00,0.79
4304.00,0.79
4302.00,0.79
4300.00,0.80
4298.00,0.80
4296.00,0.80
4294.00,0.80
4292.00,0.80
4290.00,0.81
4288.00,0.81
4286.00,0.81
4284.00,0.81
4282.00,0.81
4280.00,0.81
4278.00,0.81
4276.00,0.81
4274.00,0.81
4272.00,0.81
4270.00,0.81
4268.00,0.80
4266.00,0.80
4264.00,0.80
4262.00,0.80
4260.00,0.80
4258.00,0.80
4256.00,0.79
4254.00,0.79
4252.00,0.79
4250.00,0.80
4248.00,0.80
4246.00,0.80
4244.00,0.80
4242.00,0.80
4240.00,0.80
4238.00,0.81
4236.00,0.81
4234.00,0.81
4232.00,0.81
4230.00,0.81
4228.00,0.81
4226.00,0.81
4224.00,0.81
4222.00,0.81
4220.00,0.81
4218.00,0.81
4216.00,0.81
4214.00,0.81
4212.00,0.81
4210.00,0.81
4208.00,0.81
4206.00,0.81
4204.00,0.82
4202.00,0.82
4200.00,0.82
4198.00,0.82
4196.00,0.82
4194.00,0.82
4192.00,0.81
4190.00,0.81
4188.00,0.81
4186.00,0.81
4184.00,0.81
4182.00,0.81
4180.00,0.81
4178.00,0.81
4176.00,0.81
4174.00,0.81
4172.00,0.81
4170.00,0.81
4168.00,0.81
4166.00,0.81
4164.00,0.81
4162.00,0.81
4160.00,0.81
4158.00,0.81
4156.00,0.81
4154.00,0.81
4152.00,0.81
4150.00,0.81
4148.00,0.81
4146.00,0.81
4144.00,0.81
4142.00,0.81
4140.00,0.81
4138.00,0.81
4136.00,0.81
4134.00,0.81
4132.00,0.81
4130.00,0.81
4128.00,0.81
4126.00,0.81
4124.00,0.81
4122.00,0.81
4120.00,0.81
4118.00,0.81
4116.00,0.81
4114.00,0.81
4112.00,0.81
4110.00,0.82
4108.00,0.82
4106.00,0.82
4104.00,0.81
4102.00,0.81
4100.00,0.81
4098.00,0.81
4096.00,0.81
4094.00,0.81
4092.00,0.80
4090.00,0.80
4088.00,0.80
4086.00,0.80
4084.00,0.80
4082.00,0.80
4080.00,0.80
4078.00,0.80
4076.00,0.80
4074.00,0.80
4072.00,0.80
4070.00,0.80
4068.00,0.80
4066.00,0.80
4064.00,0.80
4062.00,0.80
4060.00,0.80
4058.00,0.80
4056.00,0.80
4054.00,0.81
4052.00,0.81
4050.00,0.81
4048.00,0.81
4046.00,0.81
4044.00,0.81
4042.00,0.81
4040.00,0.81
4038.00,0.81
4036.00,0.81
4034.00,0.81
4032.00,0.81
4030.00,0.81
4028.00,0.81
4026.00,0.81
4024.00,0.81
4022.00,0.81
4020.00,0.81
4018.00,0.81
4016.00,0.82
4014.00,0.82
4012.00,0.82
4010.00,0.82
4008.00,0.82
4006.00,0.81
4004.00,0.81
4002.00,0.81
4000.00,0.81
