创建为新数据集,样品 1587 用户 Administrator 日期 星期日, 三月 12 2017
cm-1,%T
10000.00,0.78
9998.00,0.78
9996.00,0.78
9994.00,0.79
9992.00,0.78
9990.00,0.78
9988.00,0.78
9986.00,0.77
9984.00,0.76
9982.00,0.76
9980.00,0.75
9978.00,0.75
9976.00,0.75
9974.00,0.74
9972.00,0.74
9970.00,0.74
9968.00,0.74
9966.00,0.74
9964.00,0.74
9962.00,0.74
9960.00,0.74
9958.00,0.74
9956.00,0.74
9954.00,0.75
9952.00,0.75
9950.00,0.76
9948.00,0.76
9946.00,0.76
9944.00,0.77
9942.00,0.77
9940.00,0.77
9938.00,0.77
9936.00,0.78
9934.00,0.78
9932.00,0.79
9930.00,0.79
9928.00,0.79
9926.00,0.80
9924.00,0.80
9922.00,0.79
9920.00,0.79
9918.00,0.78
9916.00,0.78
9914.00,0.77
9912.00,0.77
9910.00,0.77
9908.00,0.77
9906.00,0.77
9904.00,0.77
9902.00,0.78
9900.00,0.78
9898.00,0.78
9896.00,0.78
9894.00,0.78
9892.00,0.78
9890.00,0.78
9888.00,0.78
9886.00,0.78
9884.00,0.78
9882.00,0.78
9880.00,0.78
9878.00,0.78
9876.00,0.78
9874.00,0.77
9872.00,0.77
9870.00,0.77
9868.00,0.77
9866.00,0.77
9864.00,0.77
9862.00,0.77
9860.00,0.77
9858.00,0.77
9856.00,0.77
9854.00,0.77
9852.00,0.77
9850.00,0.77
9848.00,0.77
9846.00,0.77
9844.00,0.77
9842.00,0.77
9840.00,0.76
9838.00,0.76
9836.00,0.76
9834.00,0.76
9832.00,0.76
9830.00,0.76
9828.00,0.76
9826.00,0.76
9824.00,0.76
9822.00,0.76
9820.00,0.76
9818.00,0.77
9816.00,0.77
9814.00,0.77
9812.00,0.78
9810.00,0.78
9808.00,0.78
9806.00,0.79
9804.00,0.79
9802.00,0.79
9800.00,0.79
9798.00,0.78
9796.00,0.78
9794.00,0.78
9792.00,0.77
9790.00,0.77
9788.00,0.77
9786.00,0.76
9784.00,0.77
9782.00,0.77
9780.00,0.77
9778.00,0.77
9776.00,0.77
9774.00,0.76
9772.00,0.76
9770.00,0.76
9768.00,0.75
9766.00,0.75
9764.00,0.75
9762.00,0.75
9760.00,0.75
9758.00,0.75
9756.00,0.75
9754.00,0.76
9752.00,0.76
9750.00,0.77
9748.00,0.77
9746.00,0.77
9744.00,0.78
9742.00,0.78
9740.00,0.77
9738.00,0.77
9736.00,0.77
9734.00,0.76
9732.00,0.76
9730.00,0.75
9728.00,0.75
9726.00,0.75
9724.00,0.75
9722.00,0.75
9720.00,0.75
9718.00,0.75
9716.00,0.75
9714.00,0.75
9712.00,0.76
9710.00,0.76
9708.00,0.76
9706.00,0.77
9704.00,0.77
9702.00,0.77
9700.00,0.77
9698.00,0.77
9696.00,0.77
9694.00,0.77
9692.00,0.77
9690.00,0.77
9688.00,0.77
9686.00,0.77
9684.00,0.77
9682.00,0.77
9680.00,0.77
9678.00,0.77
9676.00,0.76
9674.00,0.76
9672.00,0.76
9670.00,0.76
9668.00,0.76
9666.00,0.76
9664.00,0.76
9662.00,0.76
9660.00,0.76
9658.00,0.76
9656.00,0.76
9654.00,0.76
9652.00,0.76
9650.00,0.76
9648.00,0.76
9646.00,0.76
9644.00,0.76
9642.00,0.76
9640.00,0.77
9638.00,0.77
9636.00,0.77
9634.00,0.77
9632.00,0.77
9630.00,0.77
9628.00,0.77
9626.00,0.77
9624.00,0.77
9622.00,0.77
9620.00,0.77
9618.00,0.77
9616.00,0.77
9614.00,0.77
9612.00,0.77
9610.00,0.77
9608.00,0.77
9606.00,0.77
9604.00,0.77
9602.00,0.77
9600.00,0.77
9598.00,0.77
9596.00,0.76
9594.00,0.76
9592.00,0.76
9590.00,0.76
9588.00,0.75
9586.00,0.75
9584.00,0.75
9582.00,0.75
9580.00,0.75
9578.00,0.76
9576.00,0.76
9574.00,0.76
9572.00,0.77
9570.00,0.77
9568.00,0.78
9566.00,0.78
9564.00,0.79
9562.00,0.79
9560.00,0.79
9558.00,0.78
9556.00,0.78
9554.00,0.78
9552.00,0.77
9550.00,0.77
9548.00,0.76
9546.00,0.76
9544.00,0.76
9542.00,0.76
9540.00,0.76
9538.00,0.76
9536.00,0.76
9534.00,0.76
9532.00,0.76
9530.00,0.76
9528.00,0.76
9526.00,0.76
9524.00,0.76
9522.00,0.76
9520.00,0.76
9518.00,0.76
9516.00,0.76
9514.00,0.76
9512.00,0.76
9510.00,0.76
9508.00,0.76
9506.00,0.76
9504.00,0.75
9502.00,0.75
9500.00,0.75
9498.00,0.75
9496.00,0.75
9494.00,0.75
9492.00,0.76
9490.00,0.76
9488.00,0.76
9486.00,0.77
9484.00,0.77
9482.00,0.77
9480.00,0.77
9478.00,0.77
9476.00,0.77
9474.00,0.77
9472.00,0.76
9470.00,0.76
9468.00,0.76
9466.00,0.75
9464.00,0.74
9462.00,0.74
9460.00,0.74
9458.00,0.73
9456.00,0.73
9454.00,0.74
9452.00,0.74
9450.00,0.74
9448.00,0.75
9446.00,0.75
9444.00,0.75
9442.00,0.76
9440.00,0.76
9438.00,0.76
9436.00,0.77
9434.00,0.77
9432.00,0.77
9430.00,0.77
9428.00,0.77
9426.00,0.77
9424.00,0.77
9422.00,0.77
9420.00,0.77
9418.00,0.77
9416.00,0.77
9414.00,0.77
9412.00,0.77
9410.00,0.77
9408.00,0.77
9406.00,0.78
9404.00,0.78
9402.00,0.78
9400.00,0.78
9398.00,0.78
9396.00,0.78
9394.00,0.78
9392.00,0.78
9390.00,0.77
9388.00,0.77
9386.00,0.77
9384.00,0.78
9382.00,0.78
9380.00,0.78
9378.00,0.78
9376.00,0.78
9374.00,0.78
9372.00,0.78
9370.00,0.78
9368.00,0.77
9366.00,0.77
9364.00,0.76
9362.00,0.76
9360.00,0.76
9358.00,0.75
9356.00,0.75
9354.00,0.75
9352.00,0.75
9350.00,0.75
9348.00,0.75
9346.00,0.76
9344.00,0.76
9342.00,0.76
9340.00,0.76
9338.00,0.77
9336.00,0.77
9334.00,0.77
9332.00,0.78
9330.00,0.78
9328.00,0.77
9326.00,0.77
9324.00,0.77
9322.00,0.76
9320.00,0.76
9318.00,0.75
9316.00,0.75
9314.00,0.75
9312.00,0.75
9310.00,0.75
9308.00,0.75
9306.00,0.75
9304.00,0.76
9302.00,0.76
9300.00,0.76
9298.00,0.77
9296.00,0.77
9294.00,0.77
9292.00,0.77
9290.00,0.77
9288.00,0.77
9286.00,0.77
9284.00,0.77
9282.00,0.77
9280.00,0.76
9278.00,0.76
9276.00,0.76
9274.00,0.76
9272.00,0.77
9270.00,0.77
9268.00,0.77
9266.00,0.77
9264.00,0.78
9262.00,0.78
9260.00,0.78
9258.00,0.78
9256.00,0.77
9254.00,0.77
9252.00,0.77
9250.00,0.76
9248.00,0.76
9246.00,0.76
9244.00,0.76
9242.00,0.76
9240.00,0.77
9238.00,0.77
9236.00,0.77
9234.00,0.77
9232.00,0.77
9230.00,0.77
9228.00,0.77
9226.00,0.77
9224.00,0.77
9222.00,0.76
9220.00,0.76
9218.00,0.75
9216.00,0.75
9214.00,0.75
9212.00,0.74
9210.00,0.74
9208.00,0.74
9206.00,0.74
9204.00,0.74
9202.00,0.74
9200.00,0.74
9198.00,0.74
9196.00,0.74
9194.00,0.74
9192.00,0.75
9190.00,0.75
9188.00,0.75
9186.00,0.76
9184.00,0.76
9182.00,0.76
9180.00,0.76
9178.00,0.77
9176.00,0.77
9174.00,0.77
9172.00,0.76
9170.00,0.76
9168.00,0.76
9166.00,0.76
9164.00,0.76
9162.00,0.76
9160.00,0.76
9158.00,0.76
9156.00,0.75
9154.00,0.75
9152.00,0.75
9150.00,0.75
9148.00,0.75
9146.00,0.74
9144.00,0.74
9142.00,0.74
9140.00,0.74
9138.00,0.74
9136.00,0.74
9134.00,0.74
9132.00,0.75
9130.00,0.75
9128.00,0.76
9126.00,0.76
9124.00,0.76
9122.00,0.77
9120.00,0.77
9118.00,0.77
9116.00,0.77
9114.00,0.77
9112.00,0.77
9110.00,0.78
9108.00,0.78
9106.00,0.78
9104.00,0.79
9102.00,0.79
9100.00,0.79
9098.00,0.80
9096.00,0.79
9094.00,0.79
9092.00,0.79
9090.00,0.78
9088.00,0.78
9086.00,0.77
9084.00,0.77
9082.00,0.76
9080.00,0.76
9078.00,0.75
9076.00,0.75
9074.00,0.75
9072.00,0.75
9070.00,0.75
9068.00,0.75
9066.00,0.75
9064.00,0.75
9062.00,0.76
9060.00,0.76
9058.00,0.76
9056.00,0.76
9054.00,0.76
9052.00,0.76
9050.00,0.75
9048.00,0.75
9046.00,0.75
9044.00,0.75
9042.00,0.75
9040.00,0.75
9038.00,0.76
9036.00,0.76
9034.00,0.76
9032.00,0.77
9030.00,0.77
9028.00,0.76
9026.00,0.76
9024.00,0.76
9022.00,0.75
9020.00,0.75
9018.00,0.75
9016.00,0.75
9014.00,0.75
9012.00,0.75
9010.00,0.75
9008.00,0.75
9006.00,0.75
9004.00,0.75
9002.00,0.76
9000.00,0.76
8998.00,0.76
8996.00,0.76
8994.00,0.76
8992.00,0.76
8990.00,0.76
8988.00,0.76
8986.00,0.77
8984.00,0.77
8982.00,0.77
8980.00,0.77
8978.00,0.77
8976.00,0.77
8974.00,0.77
8972.00,0.78
8970.00,0.78
8968.00,0.78
8966.00,0.78
8964.00,0.78
8962.00,0.78
8960.00,0.77
8958.00,0.77
8956.00,0.77
8954.00,0.76
8952.00,0.76
8950.00,0.76
8948.00,0.75
8946.00,0.75
8944.00,0.75
8942.00,0.75
8940.00,0.75
8938.00,0.75
8936.00,0.75
8934.00,0.75
8932.00,0.75
8930.00,0.75
8928.00,0.75
8926.00,0.75
8924.00,0.75
8922.00,0.75
8920.00,0.74
8918.00,0.74
8916.00,0.74
8914.00,0.74
8912.00,0.75
8910.00,0.75
8908.00,0.75
8906.00,0.75
8904.00,0.75
8902.00,0.75
8900.00,0.75
8898.00,0.75
8896.00,0.75
8894.00,0.75
8892.00,0.75
8890.00,0.75
8888.00,0.75
8886.00,0.75
8884.00,0.75
8882.00,0.75
8880.00,0.75
8878.00,0.75
8876.00,0.75
8874.00,0.75
8872.00,0.74
8870.00,0.74
8868.00,0.74
8866.00,0.74
8864.00,0.75
8862.00,0.75
8860.00,0.75
8858.00,0.75
8856.00,0.75
8854.00,0.75
8852.00,0.75
8850.00,0.75
8848.00,0.75
8846.00,0.75
8844.00,0.75
8842.00,0.75
8840.00,0.75
8838.00,0.75
8836.00,0.75
8834.00,0.76
8832.00,0.76
8830.00,0.76
8828.00,0.76
8826.00,0.76
8824.00,0.77
8822.00,0.77
8820.00,0.77
8818.00,0.77
8816.00,0.77
8814.00,0.77
8812.00,0.77
8810.00,0.77
8808.00,0.77
8806.00,0.77
8804.00,0.76
8802.00,0.76
8800.00,0.76
8798.00,0.76
8796.00,0.76
8794.00,0.75
8792.00,0.75
8790.00,0.75
8788.00,0.75
8786.00,0.75
8784.00,0.75
8782.00,0.76
8780.00,0.76
8778.00,0.76
8776.00,0.77
8774.00,0.77
8772.00,0.77
8770.00,0.77
8768.00,0.77
8766.00,0.76
8764.00,0.76
8762.00,0.76
8760.00,0.76
8758.00,0.75
8756.00,0.75
8754.00,0.75
8752.00,0.75
8750.00,0.76
8748.00,0.76
8746.00,0.76
8744.00,0.76
8742.00,0.76
8740.00,0.76
8738.00,0.75
8736.00,0.75
8734.00,0.75
8732.00,0.74
8730.00,0.74
8728.00,0.74
8726.00,0.74
8724.00,0.74
8722.00,0.74
8720.00,0.74
8718.00,0.74
8716.00,0.74
8714.00,0.75
8712.00,0.75
8710.00,0.75
8708.00,0.75
8706.00,0.75
8704.00,0.75
8702.00,0.76
8700.00,0.76
8698.00,0.76
8696.00,0.76
8694.00,0.76
8692.00,0.77
8690.00,0.77
8688.00,0.77
8686.00,0.77
8684.00,0.77
8682.00,0.76
8680.00,0.76
8678.00,0.76
8676.00,0.76
8674.00,0.76
8672.00,0.76
8670.00,0.76
8668.00,0.76
8666.00,0.76
8664.00,0.76
8662.00,0.76
8660.00,0.76
8658.00,0.75
8656.00,0.75
8654.00,0.75
8652.00,0.74
8650.00,0.74
8648.00,0.74
8646.00,0.74
8644.00,0.74
8642.00,0.74
8640.00,0.74
8638.00,0.75
8636.00,0.75
8634.00,0.75
8632.00,0.75
8630.00,0.75
8628.00,0.75
8626.00,0.75
8624.00,0.75
8622.00,0.75
8620.00,0.75
8618.00,0.75
8616.00,0.75
8614.00,0.75
8612.00,0.75
8610.00,0.75
8608.00,0.75
8606.00,0.75
8604.00,0.75
8602.00,0.75
8600.00,0.75
8598.00,0.74
8596.00,0.74
8594.00,0.74
8592.00,0.75
8590.00,0.75
8588.00,0.75
8586.00,0.75
8584.00,0.75
8582.00,0.76
8580.00,0.76
8578.00,0.76
8576.00,0.76
8574.00,0.76
8572.00,0.76
8570.00,0.75
8568.00,0.75
8566.00,0.75
8564.00,0.75
8562.00,0.75
8560.00,0.75
8558.00,0.75
8556.00,0.75
8554.00,0.76
8552.00,0.75
8550.00,0.75
8548.00,0.75
8546.00,0.75
8544.00,0.75
8542.00,0.75
8540.00,0.75
8538.00,0.75
8536.00,0.75
8534.00,0.76
8532.00,0.76
8530.00,0.76
8528.00,0.76
8526.00,0.76
8524.00,0.76
8522.00,0.76
8520.00,0.76
8518.00,0.76
8516.00,0.76
8514.00,0.76
8512.00,0.75
8510.00,0.75
8508.00,0.75
8506.00,0.75
8504.00,0.74
8502.00,0.74
8500.00,0.74
8498.00,0.74
8496.00,0.74
8494.00,0.74
8492.00,0.74
8490.00,0.75
8488.00,0.75
8486.00,0.75
8484.00,0.75
8482.00,0.75
8480.00,0.75
8478.00,0.75
8476.00,0.75
8474.00,0.75
8472.00,0.75
8470.00,0.75
8468.00,0.76
8466.00,0.76
8464.00,0.76
8462.00,0.76
8460.00,0.76
8458.00,0.76
8456.00,0.76
8454.00,0.76
8452.00,0.76
8450.00,0.76
8448.00,0.76
8446.00,0.76
8444.00,0.76
8442.00,0.76
8440.00,0.76
8438.00,0.76
8436.00,0.75
8434.00,0.75
8432.00,0.75
8430.00,0.75
8428.00,0.75
8426.00,0.75
8424.00,0.75
8422.00,0.75
8420.00,0.75
8418.00,0.75
8416.00,0.75
8414.00,0.75
8412.00,0.74
8410.00,0.74
8408.00,0.74
8406.00,0.74
8404.00,0.75
8402.00,0.75
8400.00,0.75
8398.00,0.76
8396.00,0.76
8394.00,0.76
8392.00,0.76
8390.00,0.76
8388.00,0.76
8386.00,0.75
8384.00,0.75
8382.00,0.75
8380.00,0.75
8378.00,0.75
8376.00,0.75
8374.00,0.75
8372.00,0.75
8370.00,0.75
8368.00,0.75
8366.00,0.75
8364.00,0.75
8362.00,0.75
8360.00,0.75
8358.00,0.75
8356.00,0.75
8354.00,0.75
8352.00,0.75
8350.00,0.75
8348.00,0.75
8346.00,0.75
8344.00,0.75
8342.00,0.75
8340.00,0.75
8338.00,0.75
8336.00,0.76
8334.00,0.76
8332.00,0.75
8330.00,0.75
8328.00,0.75
8326.00,0.75
8324.00,0.75
8322.00,0.75
8320.00,0.75
8318.00,0.75
8316.00,0.75
8314.00,0.75
8312.00,0.75
8310.00,0.76
8308.00,0.76
8306.00,0.76
8304.00,0.76
8302.00,0.76
8300.00,0.76
8298.00,0.75
8296.00,0.75
8294.00,0.75
8292.00,0.75
8290.00,0.75
8288.00,0.75
8286.00,0.74
8284.00,0.74
8282.00,0.74
8280.00,0.74
8278.00,0.74
8276.00,0.74
8274.00,0.74
8272.00,0.74
8270.00,0.74
8268.00,0.74
8266.00,0.74
8264.00,0.74
8262.00,0.74
8260.00,0.74
8258.00,0.74
8256.00,0.75
8254.00,0.75
8252.00,0.75
8250.00,0.75
8248.00,0.75
8246.00,0.75
8244.00,0.75
8242.00,0.75
8240.00,0.75
8238.00,0.75
8236.00,0.76
8234.00,0.76
8232.00,0.76
8230.00,0.75
8228.00,0.75
8226.00,0.75
8224.00,0.75
8222.00,0.74
8220.00,0.74
8218.00,0.74
8216.00,0.74
8214.00,0.74
8212.00,0.74
8210.00,0.74
8208.00,0.74
8206.00,0.74
8204.00,0.74
8202.00,0.74
8200.00,0.74
8198.00,0.74
8196.00,0.74
8194.00,0.74
8192.00,0.74
8190.00,0.74
8188.00,0.75
8186.00,0.75
8184.00,0.75
8182.00,0.75
8180.00,0.75
8178.00,0.75
8176.00,0.75
8174.00,0.75
8172.00,0.75
8170.00,0.75
8168.00,0.75
8166.00,0.75
8164.00,0.75
8162.00,0.75
8160.00,0.75
8158.00,0.75
8156.00,0.75
8154.00,0.75
8152.00,0.76
8150.00,0.76
8148.00,0.76
8146.00,0.76
8144.00,0.76
8142.00,0.76
8140.00,0.75
8138.00,0.75
8136.00,0.75
8134.00,0.75
8132.00,0.75
8130.00,0.74
8128.00,0.74
8126.00,0.74
8124.00,0.75
8122.00,0.75
8120.00,0.75
8118.00,0.75
8116.00,0.75
8114.00,0.75
8112.00,0.75
8110.00,0.75
8108.00,0.75
8106.00,0.75
8104.00,0.75
8102.00,0.75
8100.00,0.75
8098.00,0.75
8096.00,0.75
8094.00,0.75
8092.00,0.75
8090.00,0.75
8088.00,0.75
8086.00,0.75
8084.00,0.75
8082.00,0.75
8080.00,0.75
8078.00,0.75
8076.00,0.75
8074.00,0.75
8072.00,0.75
8070.00,0.75
8068.00,0.75
8066.00,0.76
8064.00,0.76
8062.00,0.76
8060.00,0.76
8058.00,0.76
8056.00,0.76
8054.00,0.76
8052.00,0.76
8050.00,0.76
8048.00,0.76
8046.00,0.76
8044.00,0.76
8042.00,0.76
8040.00,0.76
8038.00,0.76
8036.00,0.76
8034.00,0.76
8032.00,0.76
8030.00,0.76
8028.00,0.76
8026.00,0.76
8024.00,0.76
8022.00,0.76
8020.00,0.76
8018.00,0.76
8016.00,0.76
8014.00,0.75
8012.00,0.75
8010.00,0.75
8008.00,0.75
8006.00,0.75
8004.00,0.75
8002.00,0.75
8000.00,0.75
7998.00,0.75
7996.00,0.75
7994.00,0.75
7992.00,0.75
7990.00,0.75
7988.00,0.75
7986.00,0.75
7984.00,0.75
7982.00,0.75
7980.00,0.75
7978.00,0.75
7976.00,0.75
7974.00,0.76
7972.00,0.76
7970.00,0.76
7968.00,0.76
7966.00,0.76
7964.00,0.76
7962.00,0.76
7960.00,0.76
7958.00,0.76
7956.00,0.76
7954.00,0.76
7952.00,0.76
7950.00,0.75
7948.00,0.75
7946.00,0.75
7944.00,0.75
7942.00,0.75
7940.00,0.75
7938.00,0.75
7936.00,0.75
7934.00,0.75
7932.00,0.75
7930.00,0.75
7928.00,0.75
7926.00,0.75
7924.00,0.76
7922.00,0.76
7920.00,0.76
7918.00,0.76
7916.00,0.76
7914.00,0.76
7912.00,0.76
7910.00,0.76
7908.00,0.77
7906.00,0.77
7904.00,0.77
7902.00,0.77
7900.00,0.77
7898.00,0.76
7896.00,0.76
7894.00,0.76
7892.00,0.76
7890.00,0.75
7888.00,0.75
7886.00,0.75
7884.00,0.75
7882.00,0.75
7880.00,0.75
7878.00,0.75
7876.00,0.75
7874.00,0.75
7872.00,0.75
7870.00,0.75
7868.00,0.75
7866.00,0.75
7864.00,0.75
7862.00,0.75
7860.00,0.75
7858.00,0.75
7856.00,0.75
7854.00,0.75
7852.00,0.76
7850.00,0.76
7848.00,0.76
7846.00,0.76
7844.00,0.76
7842.00,0.76
7840.00,0.76
7838.00,0.76
7836.00,0.76
7834.00,0.76
7832.00,0.76
7830.00,0.76
7828.00,0.76
7826.00,0.76
7824.00,0.76
7822.00,0.76
7820.00,0.76
7818.00,0.76
7816.00,0.76
7814.00,0.77
7812.00,0.77
7810.00,0.77
7808.00,0.77
7806.00,0.77
7804.00,0.77
7802.00,0.77
7800.00,0.76
7798.00,0.76
7796.00,0.76
7794.00,0.76
7792.00,0.76
7790.00,0.76
7788.00,0.76
7786.00,0.75
7784.00,0.75
7782.00,0.76
7780.00,0.76
7778.00,0.76
7776.00,0.76
7774.00,0.76
7772.00,0.76
7770.00,0.76
7768.00,0.76
7766.00,0.76
7764.00,0.76
7762.00,0.76
7760.00,0.76
7758.00,0.76
7756.00,0.76
7754.00,0.76
7752.00,0.76
7750.00,0.76
7748.00,0.76
7746.00,0.76
7744.00,0.76
7742.00,0.76
7740.00,0.76
7738.00,0.76
7736.00,0.76
7734.00,0.76
7732.00,0.76
7730.00,0.76
7728.00,0.76
7726.00,0.76
7724.00,0.76
7722.00,0.76
7720.00,0.76
7718.00,0.76
7716.00,0.76
7714.00,0.76
7712.00,0.76
7710.00,0.76
7708.00,0.76
7706.00,0.76
7704.00,0.76
7702.00,0.76
7700.00,0.76
7698.00,0.76
7696.00,0.76
7694.00,0.76
7692.00,0.76
7690.00,0.76
7688.00,0.76
7686.00,0.76
7684.00,0.76
7682.00,0.76
7680.00,0.76
7678.00,0.76
7676.00,0.76
7674.00,0.76
7672.00,0.76
7670.00,0.77
7668.00,0.77
7666.00,0.77
7664.00,0.77
7662.00,0.76
7660.00,0.76
7658.00,0.76
7656.00,0.76
7654.00,0.76
7652.00,0.76
7650.00,0.76
7648.00,0.76
7646.00,0.76
7644.00,0.76
7642.00,0.76
7640.00,0.76
7638.00,0.76
7636.00,0.76
7634.00,0.75
7632.00,0.75
7630.00,0.76
7628.00,0.76
7626.00,0.76
7624.00,0.76
7622.00,0.77
7620.00,0.77
7618.00,0.77
7616.00,0.77
7614.00,0.77
7612.00,0.77
7610.00,0.76
7608.00,0.76
7606.00,0.76
7604.00,0.76
7602.00,0.76
7600.00,0.76
7598.00,0.76
7596.00,0.76
7594.00,0.76
7592.00,0.76
7590.00,0.76
7588.00,0.76
7586.00,0.76
7584.00,0.76
7582.00,0.76
7580.00,0.77
7578.00,0.77
7576.00,0.77
7574.00,0.77
7572.00,0.77
7570.00,0.77
7568.00,0.77
7566.00,0.77
7564.00,0.76
7562.00,0.76
7560.00,0.76
7558.00,0.76
7556.00,0.76
7554.00,0.75
7552.00,0.75
7550.00,0.75
7548.00,0.76
7546.00,0.76
7544.00,0.76
7542.00,0.76
7540.00,0.76
7538.00,0.76
7536.00,0.76
7534.00,0.76
7532.00,0.76
7530.00,0.76
7528.00,0.76
7526.00,0.76
7524.00,0.76
7522.00,0.76
7520.00,0.76
7518.00,0.76
7516.00,0.76
7514.00,0.76
7512.00,0.76
7510.00,0.75
7508.00,0.75
7506.00,0.76
7504.00,0.76
7502.00,0.76
7500.00,0.76
7498.00,0.76
7496.00,0.76
7494.00,0.77
7492.00,0.77
7490.00,0.77
7488.00,0.77
7486.00,0.77
7484.00,0.77
7482.00,0.77
7480.00,0.77
7478.00,0.77
7476.00,0.76
7474.00,0.76
7472.00,0.76
7470.00,0.76
7468.00,0.76
7466.00,0.76
7464.00,0.76
7462.00,0.76
7460.00,0.76
7458.00,0.76
7456.00,0.76
7454.00,0.76
7452.00,0.76
7450.00,0.76
7448.00,0.76
7446.00,0.76
7444.00,0.76
7442.00,0.76
7440.00,0.76
7438.00,0.75
7436.00,0.75
7434.00,0.75
7432.00,0.75
7430.00,0.75
7428.00,0.75
7426.00,0.75
7424.00,0.75
7422.00,0.76
7420.00,0.76
7418.00,0.76
7416.00,0.76
7414.00,0.76
7412.00,0.76
7410.00,0.76
7408.00,0.76
7406.00,0.76
7404.00,0.76
7402.00,0.76
7400.00,0.76
7398.00,0.76
7396.00,0.76
7394.00,0.76
7392.00,0.76
7390.00,0.76
7388.00,0.76
7386.00,0.76
7384.00,0.76
7382.00,0.76
7380.00,0.76
7378.00,0.76
7376.00,0.76
7374.00,0.76
7372.00,0.76
7370.00,0.76
7368.00,0.76
7366.00,0.75
7364.00,0.75
7362.00,0.75
7360.00,0.75
7358.00,0.75
7356.00,0.75
7354.00,0.75
7352.00,0.75
7350.00,0.75
7348.00,0.75
7346.00,0.75
7344.00,0.75
7342.00,0.75
7340.00,0.75
7338.00,0.75
7336.00,0.75
7334.00,0.75
7332.00,0.75
7330.00,0.75
7328.00,0.75
7326.00,0.75
7324.00,0.75
7322.00,0.75
7320.00,0.75
7318.00,0.74
7316.00,0.74
7314.00,0.74
7312.00,0.74
7310.00,0.74
7308.00,0.74
7306.00,0.74
7304.00,0.75
7302.00,0.75
7300.00,0.75
7298.00,0.75
7296.00,0.75
7294.00,0.75
7292.00,0.75
7290.00,0.75
7288.00,0.74
7286.00,0.74
7284.00,0.74
7282.00,0.74
7280.00,0.74
7278.00,0.74
7276.00,0.74
7274.00,0.74
7272.00,0.74
7270.00,0.75
7268.00,0.75
7266.00,0.75
7264.00,0.75
7262.00,0.75
7260.00,0.75
7258.00,0.75
7256.00,0.75
7254.00,0.75
7252.00,0.75
7250.00,0.74
7248.00,0.74
7246.00,0.74
7244.00,0.74
7242.00,0.74
7240.00,0.74
7238.00,0.74
7236.00,0.74
7234.00,0.74
7232.00,0.74
7230.00,0.74
7228.00,0.74
7226.00,0.74
7224.00,0.74
7222.00,0.74
7220.00,0.74
7218.00,0.74
7216.00,0.73
7214.00,0.73
7212.00,0.73
7210.00,0.73
7208.00,0.73
7206.00,0.72
7204.00,0.72
7202.00,0.72
7200.00,0.72
7198.00,0.72
7196.00,0.72
7194.00,0.72
7192.00,0.72
7190.00,0.72
7188.00,0.72
7186.00,0.72
7184.00,0.72
7182.00,0.72
7180.00,0.72
7178.00,0.72
7176.00,0.72
7174.00,0.72
7172.00,0.72
7170.00,0.72
7168.00,0.72
7166.00,0.72
7164.00,0.72
7162.00,0.72
7160.00,0.71
7158.00,0.71
7156.00,0.71
7154.00,0.71
7152.00,0.71
7150.00,0.71
7148.00,0.71
7146.00,0.71
7144.00,0.71
7142.00,0.71
7140.00,0.71
7138.00,0.71
7136.00,0.71
7134.00,0.71
7132.00,0.71
7130.00,0.71
7128.00,0.71
7126.00,0.70
7124.00,0.70
7122.00,0.70
7120.00,0.70
7118.00,0.70
7116.00,0.70
7114.00,0.70
7112.00,0.70
7110.00,0.70
7108.00,0.70
7106.00,0.70
7104.00,0.70
7102.00,0.70
7100.00,0.70
7098.00,0.70
7096.00,0.70
7094.00,0.70
7092.00,0.70
7090.00,0.70
7088.00,0.70
7086.00,0.70
7084.00,0.70
7082.00,0.70
7080.00,0.70
7078.00,0.70
7076.00,0.70
7074.00,0.70
7072.00,0.70
7070.00,0.70
7068.00,0.70
7066.00,0.70
7064.00,0.70
7062.00,0.70
7060.00,0.69
7058.00,0.69
7056.00,0.69
7054.00,0.69
7052.00,0.69
7050.00,0.69
7048.00,0.69
7046.00,0.69
7044.00,0.69
7042.00,0.69
7040.00,0.69
7038.00,0.69
7036.00,0.69
7034.00,0.69
7032.00,0.69
7030.00,0.69
7028.00,0.69
7026.00,0.69
7024.00,0.69
7022.00,0.69
7020.00,0.69
7018.00,0.69
7016.00,0.69
7014.00,0.69
7012.00,0.69
7010.00,0.69
7008.00,0.69
7006.00,0.69
7004.00,0.69
7002.00,0.69
7000.00,0.69
6998.00,0.69
6996.00,0.69
6994.00,0.69
6992.00,0.69
6990.00,0.69
6988.00,0.69
6986.00,0.69
6984.00,0.69
6982.00,0.69
6980.00,0.69
6978.00,0.69
6976.00,0.69
6974.00,0.69
6972.00,0.69
6970.00,0.69
6968.00,0.69
6966.00,0.69
6964.00,0.69
6962.00,0.69
6960.00,0.69
6958.00,0.69
6956.00,0.69
6954.00,0.69
6952.00,0.69
6950.00,0.69
6948.00,0.69
6946.00,0.69
6944.00,0.68
6942.00,0.68
6940.00,0.68
6938.00,0.68
6936.00,0.68
6934.00,0.68
6932.00,0.68
6930.00,0.68
6928.00,0.68
6926.00,0.68
6924.00,0.68
6922.00,0.68
6920.00,0.69
6918.00,0.68
6916.00,0.68
6914.00,0.68
6912.00,0.68
6910.00,0.68
6908.00,0.68
6906.00,0.68
6904.00,0.68
6902.00,0.68
6900.00,0.68
6898.00,0.68
6896.00,0.68
6894.00,0.68
6892.00,0.68
6890.00,0.68
6888.00,0.68
6886.00,0.68
6884.00,0.68
6882.00,0.68
6880.00,0.68
6878.00,0.68
6876.00,0.69
6874.00,0.69
6872.00,0.69
6870.00,0.68
6868.00,0.68
6866.00,0.68
6864.00,0.68
6862.00,0.68
6860.00,0.68
6858.00,0.68
6856.00,0.68
6854.00,0.68
6852.00,0.68
6850.00,0.68
6848.00,0.68
6846.00,0.68
6844.00,0.68
6842.00,0.68
6840.00,0.68
6838.00,0.68
6836.00,0.68
6834.00,0.68
6832.00,0.68
6830.00,0.68
6828.00,0.68
6826.00,0.68
6824.00,0.68
6822.00,0.68
6820.00,0.68
6818.00,0.68
6816.00,0.68
6814.00,0.68
6812.00,0.68
6810.00,0.68
6808.00,0.68
6806.00,0.68
6804.00,0.68
6802.00,0.68
6800.00,0.68
6798.00,0.68
6796.00,0.68
6794.00,0.68
6792.00,0.68
6790.00,0.68
6788.00,0.69
6786.00,0.69
6784.00,0.69
6782.00,0.69
6780.00,0.69
6778.00,0.69
6776.00,0.69
6774.00,0.69
6772.00,0.69
6770.00,0.69
6768.00,0.69
6766.00,0.69
6764.00,0.69
6762.00,0.69
6760.00,0.69
6758.00,0.69
6756.00,0.69
6754.00,0.69
6752.00,0.69
6750.00,0.69
6748.00,0.69
6746.00,0.69
6744.00,0.69
6742.00,0.69
6740.00,0.69
6738.00,0.69
6736.00,0.69
6734.00,0.69
6732.00,0.69
6730.00,0.69
6728.00,0.69
6726.00,0.69
6724.00,0.69
6722.00,0.69
6720.00,0.69
6718.00,0.69
6716.00,0.69
6714.00,0.69
6712.00,0.69
6710.00,0.69
6708.00,0.70
6706.00,0.70
6704.00,0.70
6702.00,0.70
6700.00,0.70
6698.00,0.70
6696.00,0.70
6694.00,0.70
6692.00,0.70
6690.00,0.70
6688.00,0.70
6686.00,0.70
6684.00,0.70
6682.00,0.70
6680.00,0.70
6678.00,0.70
6676.00,0.70
6674.00,0.70
6672.00,0.71
6670.00,0.71
6668.00,0.71
6666.00,0.71
6664.00,0.71
6662.00,0.71
6660.00,0.71
6658.00,0.71
6656.00,0.71
6654.00,0.71
6652.00,0.71
6650.00,0.71
6648.00,0.71
6646.00,0.71
6644.00,0.71
6642.00,0.70
6640.00,0.70
6638.00,0.70
6636.00,0.70
6634.00,0.70
6632.00,0.70
6630.00,0.70
6628.00,0.71
6626.00,0.71
6624.00,0.71
6622.00,0.71
6620.00,0.72
6618.00,0.72
6616.00,0.72
6614.00,0.72
6612.00,0.72
6610.00,0.72
6608.00,0.72
6606.00,0.71
6604.00,0.71
6602.00,0.71
6600.00,0.71
6598.00,0.71
6596.00,0.71
6594.00,0.71
6592.00,0.71
6590.00,0.71
6588.00,0.71
6586.00,0.71
6584.00,0.71
6582.00,0.71
6580.00,0.71
6578.00,0.71
6576.00,0.71
6574.00,0.71
6572.00,0.71
6570.00,0.72
6568.00,0.72
6566.00,0.72
6564.00,0.72
6562.00,0.72
6560.00,0.72
6558.00,0.72
6556.00,0.72
6554.00,0.72
6552.00,0.72
6550.00,0.72
6548.00,0.72
6546.00,0.72
6544.00,0.72
6542.00,0.72
6540.00,0.72
6538.00,0.72
6536.00,0.72
6534.00,0.72
6532.00,0.72
6530.00,0.72
6528.00,0.72
6526.00,0.72
6524.00,0.72
6522.00,0.72
6520.00,0.72
6518.00,0.72
6516.00,0.72
6514.00,0.72
6512.00,0.72
6510.00,0.72
6508.00,0.72
6506.00,0.72
6504.00,0.72
6502.00,0.72
6500.00,0.72
6498.00,0.72
6496.00,0.72
6494.00,0.72
6492.00,0.72
6490.00,0.72
6488.00,0.72
6486.00,0.72
6484.00,0.72
6482.00,0.72
6480.00,0.72
6478.00,0.72
6476.00,0.72
6474.00,0.72
6472.00,0.72
6470.00,0.72
6468.00,0.72
6466.00,0.72
6464.00,0.72
6462.00,0.72
6460.00,0.72
6458.00,0.72
6456.00,0.72
6454.00,0.72
6452.00,0.72
6450.00,0.72
6448.00,0.72
6446.00,0.72
6444.00,0.72
6442.00,0.72
6440.00,0.72
6438.00,0.72
6436.00,0.72
6434.00,0.72
6432.00,0.72
6430.00,0.72
6428.00,0.72
6426.00,0.72
6424.00,0.72
6422.00,0.72
6420.00,0.72
6418.00,0.73
6416.00,0.73
6414.00,0.73
6412.00,0.73
6410.00,0.73
6408.00,0.73
6406.00,0.73
6404.00,0.73
6402.00,0.73
6400.00,0.73
6398.00,0.73
6396.00,0.73
6394.00,0.73
6392.00,0.73
6390.00,0.73
6388.00,0.73
6386.00,0.73
6384.00,0.73
6382.00,0.73
6380.00,0.73
6378.00,0.73
6376.00,0.73
6374.00,0.73
6372.00,0.73
6370.00,0.73
6368.00,0.73
6366.00,0.73
6364.00,0.73
6362.00,0.73
6360.00,0.73
6358.00,0.73
6356.00,0.73
6354.00,0.73
6352.00,0.73
6350.00,0.73
6348.00,0.73
6346.00,0.73
6344.00,0.73
6342.00,0.73
6340.00,0.73
6338.00,0.73
6336.00,0.73
6334.00,0.73
6332.00,0.73
6330.00,0.73
6328.00,0.73
6326.00,0.73
6324.00,0.73
6322.00,0.73
6320.00,0.73
6318.00,0.73
6316.00,0.73
6314.00,0.73
6312.00,0.73
6310.00,0.73
6308.00,0.73
6306.00,0.73
6304.00,0.73
6302.00,0.73
6300.00,0.73
6298.00,0.73
6296.00,0.74
6294.00,0.73
6292.00,0.73
6290.00,0.73
6288.00,0.73
6286.00,0.73
6284.00,0.73
6282.00,0.73
6280.00,0.73
6278.00,0.73
6276.00,0.73
6274.00,0.73
6272.00,0.73
6270.00,0.74
6268.00,0.74
6266.00,0.74
6264.00,0.74
6262.00,0.74
6260.00,0.74
6258.00,0.74
6256.00,0.74
6254.00,0.74
6252.00,0.74
6250.00,0.74
6248.00,0.74
6246.00,0.74
6244.00,0.74
6242.00,0.75
6240.00,0.75
6238.00,0.75
6236.00,0.75
6234.00,0.75
6232.00,0.75
6230.00,0.74
6228.00,0.74
6226.00,0.74
6224.00,0.74
6222.00,0.74
6220.00,0.74
6218.00,0.74
6216.00,0.74
6214.00,0.74
6212.00,0.74
6210.00,0.74
6208.00,0.74
6206.00,0.74
6204.00,0.74
6202.00,0.74
6200.00,0.74
6198.00,0.74
6196.00,0.75
6194.00,0.75
6192.00,0.75
6190.00,0.75
6188.00,0.75
6186.00,0.75
6184.00,0.75
6182.00,0.75
6180.00,0.75
6178.00,0.75
6176.00,0.75
6174.00,0.75
6172.00,0.75
6170.00,0.75
6168.00,0.75
6166.00,0.75
6164.00,0.75
6162.00,0.75
6160.00,0.75
6158.00,0.75
6156.00,0.75
6154.00,0.75
6152.00,0.75
6150.00,0.75
6148.00,0.75
6146.00,0.75
6144.00,0.75
6142.00,0.75
6140.00,0.75
6138.00,0.75
6136.00,0.75
6134.00,0.75
6132.00,0.75
6130.00,0.75
6128.00,0.75
6126.00,0.75
6124.00,0.75
6122.00,0.75
6120.00,0.75
6118.00,0.75
6116.00,0.76
6114.00,0.76
6112.00,0.76
6110.00,0.76
6108.00,0.76
6106.00,0.76
6104.00,0.76
6102.00,0.76
6100.00,0.76
6098.00,0.76
6096.00,0.76
6094.00,0.76
6092.00,0.77
6090.00,0.77
6088.00,0.77
6086.00,0.77
6084.00,0.77
6082.00,0.77
6080.00,0.76
6078.00,0.76
6076.00,0.76
6074.00,0.76
6072.00,0.76
6070.00,0.76
6068.00,0.76
6066.00,0.76
6064.00,0.76
6062.00,0.76
6060.00,0.76
6058.00,0.76
6056.00,0.76
6054.00,0.76
6052.00,0.76
6050.00,0.77
6048.00,0.77
6046.00,0.77
6044.00,0.77
6042.00,0.77
6040.00,0.77
6038.00,0.77
6036.00,0.76
6034.00,0.76
6032.00,0.77
6030.00,0.77
6028.00,0.77
6026.00,0.77
6024.00,0.77
6022.00,0.77
6020.00,0.77
6018.00,0.77
6016.00,0.77
6014.00,0.77
6012.00,0.77
6010.00,0.77
6008.00,0.77
6006.00,0.77
6004.00,0.77
6002.00,0.77
6000.00,0.77
5998.00,0.77
5996.00,0.77
5994.00,0.77
5992.00,0.77
5990.00,0.76
5988.00,0.76
5986.00,0.76
5984.00,0.76
5982.00,0.76
5980.00,0.76
5978.00,0.76
5976.00,0.76
5974.00,0.76
5972.00,0.76
5970.00,0.76
5968.00,0.76
5966.00,0.76
5964.00,0.76
5962.00,0.75
5960.00,0.75
5958.00,0.75
5956.00,0.75
5954.00,0.75
5952.00,0.75
5950.00,0.74
5948.00,0.74
5946.00,0.74
5944.00,0.74
5942.00,0.74
5940.00,0.74
5938.00,0.74
5936.00,0.74
5934.00,0.74
5932.00,0.74
5930.00,0.74
5928.00,0.74
5926.00,0.74
5924.00,0.74
5922.00,0.74
5920.00,0.74
5918.00,0.74
5916.00,0.74
5914.00,0.74
5912.00,0.74
5910.00,0.74
5908.00,0.74
5906.00,0.74
5904.00,0.73
5902.00,0.73
5900.00,0.73
5898.00,0.73
5896.00,0.73
5894.00,0.73
5892.00,0.73
5890.00,0.73
5888.00,0.73
5886.00,0.73
5884.00,0.73
5882.00,0.74
5880.00,0.74
5878.00,0.74
5876.00,0.74
5874.00,0.74
5872.00,0.74
5870.00,0.74
5868.00,0.74
5866.00,0.75
5864.00,0.75
5862.00,0.75
5860.00,0.75
5858.00,0.75
5856.00,0.75
5854.00,0.75
5852.00,0.75
5850.00,0.75
5848.00,0.75
5846.00,0.75
5844.00,0.75
5842.00,0.75
5840.00,0.75
5838.00,0.75
5836.00,0.75
5834.00,0.75
5832.00,0.75
5830.00,0.75
5828.00,0.75
5826.00,0.75
5824.00,0.75
5822.00,0.75
5820.00,0.75
5818.00,0.75
5816.00,0.75
5814.00,0.75
5812.00,0.75
5810.00,0.75
5808.00,0.75
5806.00,0.75
5804.00,0.75
5802.00,0.75
5800.00,0.75
5798.00,0.75
5796.00,0.75
5794.00,0.75
5792.00,0.75
5790.00,0.75
5788.00,0.75
5786.00,0.75
5784.00,0.75
5782.00,0.75
5780.00,0.75
5778.00,0.75
5776.00,0.75
5774.00,0.75
5772.00,0.75
5770.00,0.75
5768.00,0.75
5766.00,0.75
5764.00,0.75
5762.00,0.75
5760.00,0.75
5758.00,0.75
5756.00,0.75
5754.00,0.75
5752.00,0.75
5750.00,0.75
5748.00,0.75
5746.00,0.75
5744.00,0.75
5742.00,0.75
5740.00,0.75
5738.00,0.75
5736.00,0.75
5734.00,0.75
5732.00,0.75
5730.00,0.75
5728.00,0.75
5726.00,0.75
5724.00,0.75
5722.00,0.75
5720.00,0.75
5718.00,0.75
5716.00,0.76
5714.00,0.76
5712.00,0.76
5710.00,0.76
5708.00,0.76
5706.00,0.76
5704.00,0.76
5702.00,0.76
5700.00,0.76
5698.00,0.76
5696.00,0.76
5694.00,0.75
5692.00,0.75
5690.00,0.75
5688.00,0.75
5686.00,0.75
5684.00,0.75
5682.00,0.75
5680.00,0.75
5678.00,0.75
5676.00,0.75
5674.00,0.75
5672.00,0.75
5670.00,0.75
5668.00,0.75
5666.00,0.75
5664.00,0.75
5662.00,0.75
5660.00,0.75
5658.00,0.75
5656.00,0.75
5654.00,0.75
5652.00,0.76
5650.00,0.76
5648.00,0.76
5646.00,0.76
5644.00,0.76
5642.00,0.76
5640.00,0.76
5638.00,0.76
5636.00,0.76
5634.00,0.76
5632.00,0.76
5630.00,0.76
5628.00,0.76
5626.00,0.76
5624.00,0.76
5622.00,0.76
5620.00,0.76
5618.00,0.76
5616.00,0.76
5614.00,0.76
5612.00,0.76
5610.00,0.76
5608.00,0.76
5606.00,0.76
5604.00,0.76
5602.00,0.76
5600.00,0.76
5598.00,0.76
5596.00,0.76
5594.00,0.77
5592.00,0.77
5590.00,0.77
5588.00,0.77
5586.00,0.77
5584.00,0.77
5582.00,0.77
5580.00,0.77
5578.00,0.77
5576.00,0.77
5574.00,0.77
5572.00,0.77
5570.00,0.77
5568.00,0.77
5566.00,0.77
5564.00,0.77
5562.00,0.77
5560.00,0.77
5558.00,0.77
5556.00,0.77
5554.00,0.77
5552.00,0.77
5550.00,0.77
5548.00,0.77
5546.00,0.77
5544.00,0.77
5542.00,0.77
5540.00,0.77
5538.00,0.77
5536.00,0.77
5534.00,0.77
5532.00,0.77
5530.00,0.77
5528.00,0.77
5526.00,0.77
5524.00,0.77
5522.00,0.77
5520.00,0.77
5518.00,0.77
5516.00,0.77
5514.00,0.77
5512.00,0.77
5510.00,0.77
5508.00,0.77
5506.00,0.77
5504.00,0.77
5502.00,0.77
5500.00,0.77
5498.00,0.78
5496.00,0.78
5494.00,0.78
5492.00,0.78
5490.00,0.78
5488.00,0.78
5486.00,0.78
5484.00,0.78
5482.00,0.78
5480.00,0.78
5478.00,0.78
5476.00,0.78
5474.00,0.78
5472.00,0.78
5470.00,0.78
5468.00,0.78
5466.00,0.78
5464.00,0.78
5462.00,0.78
5460.00,0.78
5458.00,0.78
5456.00,0.78
5454.00,0.78
5452.00,0.78
5450.00,0.78
5448.00,0.78
5446.00,0.78
5444.00,0.78
5442.00,0.78
5440.00,0.78
5438.00,0.78
5436.00,0.78
5434.00,0.78
5432.00,0.78
5430.00,0.78
5428.00,0.78
5426.00,0.78
5424.00,0.78
5422.00,0.78
5420.00,0.78
5418.00,0.78
5416.00,0.78
5414.00,0.78
5412.00,0.78
5410.00,0.78
5408.00,0.78
5406.00,0.78
5404.00,0.78
5402.00,0.78
5400.00,0.78
5398.00,0.78
5396.00,0.78
5394.00,0.78
5392.00,0.78
5390.00,0.78
5388.00,0.78
5386.00,0.78
5384.00,0.78
5382.00,0.78
5380.00,0.78
5378.00,0.78
5376.00,0.78
5374.00,0.77
5372.00,0.77
5370.00,0.77
5368.00,0.77
5366.00,0.77
5364.00,0.77
5362.00,0.77
5360.00,0.77
5358.00,0.77
5356.00,0.77
5354.00,0.77
5352.00,0.77
5350.00,0.77
5348.00,0.76
5346.00,0.76
5344.00,0.76
5342.00,0.76
5340.00,0.76
5338.00,0.76
5336.00,0.75
5334.00,0.75
5332.00,0.75
5330.00,0.75
5328.00,0.75
5326.00,0.75
5324.00,0.74
5322.00,0.74
5320.00,0.74
5318.00,0.74
5316.00,0.74
5314.00,0.73
5312.00,0.73
5310.00,0.73
5308.00,0.73
5306.00,0.72
5304.00,0.72
5302.00,0.72
5300.00,0.71
5298.00,0.71
5296.00,0.71
5294.00,0.71
5292.00,0.70
5290.00,0.70
5288.00,0.70
5286.00,0.69
5284.00,0.69
5282.00,0.69
5280.00,0.69
5278.00,0.68
5276.00,0.68
5274.00,0.68
5272.00,0.68
5270.00,0.68
5268.00,0.68
5266.00,0.68
5264.00,0.67
5262.00,0.67
5260.00,0.67
5258.00,0.67
5256.00,0.67
5254.00,0.66
5252.00,0.66
5250.00,0.66
5248.00,0.66
5246.00,0.66
5244.00,0.66
5242.00,0.66
5240.00,0.66
5238.00,0.65
5236.00,0.65
5234.00,0.65
5232.00,0.65
5230.00,0.65
5228.00,0.65
5226.00,0.64
5224.00,0.64
5222.00,0.64
5220.00,0.64
5218.00,0.64
5216.00,0.64
5214.00,0.64
5212.00,0.64
5210.00,0.64
5208.00,0.64
5206.00,0.64
5204.00,0.64
5202.00,0.64
5200.00,0.64
5198.00,0.64
5196.00,0.64
5194.00,0.64
5192.00,0.64
5190.00,0.64
5188.00,0.64
5186.00,0.64
5184.00,0.64
5182.00,0.64
5180.00,0.63
5178.00,0.63
5176.00,0.63
5174.00,0.63
5172.00,0.63
5170.00,0.63
5168.00,0.63
5166.00,0.63
5164.00,0.63
5162.00,0.63
5160.00,0.63
5158.00,0.64
5156.00,0.64
5154.00,0.64
5152.00,0.64
5150.00,0.64
5148.00,0.64
5146.00,0.64
5144.00,0.64
5142.00,0.64
5140.00,0.64
5138.00,0.65
5136.00,0.65
5134.00,0.65
5132.00,0.65
5130.00,0.65
5128.00,0.65
5126.00,0.65
5124.00,0.65
5122.00,0.65
5120.00,0.65
5118.00,0.65
5116.00,0.65
5114.00,0.65
5112.00,0.65
5110.00,0.65
5108.00,0.65
5106.00,0.66
5104.00,0.66
5102.00,0.66
5100.00,0.66
5098.00,0.66
5096.00,0.66
5094.00,0.66
5092.00,0.66
5090.00,0.66
5088.00,0.66
5086.00,0.66
5084.00,0.67
5082.00,0.67
5080.00,0.67
5078.00,0.67
5076.00,0.67
5074.00,0.67
5072.00,0.67
5070.00,0.67
5068.00,0.68
5066.00,0.68
5064.00,0.68
5062.00,0.68
5060.00,0.68
5058.00,0.68
5056.00,0.68
5054.00,0.68
5052.00,0.68
5050.00,0.68
5048.00,0.68
5046.00,0.69
5044.00,0.69
5042.00,0.69
5040.00,0.69
5038.00,0.69
5036.00,0.69
5034.00,0.69
5032.00,0.69
5030.00,0.69
5028.00,0.69
5026.00,0.70
5024.00,0.70
5022.00,0.70
5020.00,0.70
5018.00,0.70
5016.00,0.70
5014.00,0.70
5012.00,0.70
5010.00,0.70
5008.00,0.71
5006.00,0.71
5004.00,0.71
5002.00,0.71
5000.00,0.71
4998.00,0.71
4996.00,0.71
4994.00,0.71
4992.00,0.71
4990.00,0.71
4988.00,0.71
4986.00,0.71
4984.00,0.71
4982.00,0.71
4980.00,0.72
4978.00,0.72
4976.00,0.72
4974.00,0.72
4972.00,0.72
4970.00,0.72
4968.00,0.72
4966.00,0.72
4964.00,0.72
4962.00,0.72
4960.00,0.72
4958.00,0.72
4956.00,0.72
4954.00,0.72
4952.00,0.72
4950.00,0.72
4948.00,0.72
4946.00,0.72
4944.00,0.72
4942.00,0.72
4940.00,0.73
4938.00,0.73
4936.00,0.73
4934.00,0.73
4932.00,0.73
4930.00,0.73
4928.00,0.73
4926.00,0.73
4924.00,0.73
4922.00,0.73
4920.00,0.73
4918.00,0.73
4916.00,0.73
4914.00,0.73
4912.00,0.73
4910.00,0.73
4908.00,0.73
4906.00,0.73
4904.00,0.73
4902.00,0.73
4900.00,0.73
4898.00,0.73
4896.00,0.73
4894.00,0.73
4892.00,0.73
4890.00,0.73
4888.00,0.73
4886.00,0.73
4884.00,0.73
4882.00,0.73
4880.00,0.73
4878.00,0.73
4876.00,0.73
4874.00,0.73
4872.00,0.73
4870.00,0.73
4868.00,0.73
4866.00,0.73
4864.00,0.73
4862.00,0.73
4860.00,0.73
4858.00,0.73
4856.00,0.73
4854.00,0.74
4852.00,0.74
4850.00,0.74
4848.00,0.74
4846.00,0.74
4844.00,0.74
4842.00,0.74
4840.00,0.74
4838.00,0.74
4836.00,0.74
4834.00,0.74
4832.00,0.74
4830.00,0.74
4828.00,0.74
4826.00,0.74
4824.00,0.74
4822.00,0.74
4820.00,0.74
4818.00,0.74
4816.00,0.74
4814.00,0.74
4812.00,0.74
4810.00,0.74
4808.00,0.74
4806.00,0.74
4804.00,0.74
4802.00,0.74
4800.00,0.74
4798.00,0.74
4796.00,0.74
4794.00,0.75
4792.00,0.75
4790.00,0.75
4788.00,0.75
4786.00,0.75
4784.00,0.75
4782.00,0.75
4780.00,0.75
4778.00,0.75
4776.00,0.76
4774.00,0.76
4772.00,0.76
4770.00,0.76
4768.00,0.76
4766.00,0.76
4764.00,0.76
4762.00,0.76
4760.00,0.76
4758.00,0.76
4756.00,0.76
4754.00,0.76
4752.00,0.76
4750.00,0.76
4748.00,0.76
4746.00,0.76
4744.00,0.76
4742.00,0.76
4740.00,0.76
4738.00,0.76
4736.00,0.76
4734.00,0.76
4732.00,0.76
4730.00,0.76
4728.00,0.76
4726.00,0.76
4724.00,0.76
4722.00,0.76
4720.00,0.77
4718.00,0.77
4716.00,0.77
4714.00,0.76
4712.00,0.76
4710.00,0.76
4708.00,0.76
4706.00,0.76
4704.00,0.76
4702.00,0.76
4700.00,0.76
4698.00,0.77
4696.00,0.77
4694.00,0.77
4692.00,0.77
4690.00,0.77
4688.00,0.77
4686.00,0.77
4684.00,0.77
4682.00,0.76
4680.00,0.76
4678.00,0.76
4676.00,0.76
4674.00,0.76
4672.00,0.76
4670.00,0.77
4668.00,0.77
4666.00,0.77
4664.00,0.77
4662.00,0.77
4660.00,0.77
4658.00,0.77
4656.00,0.77
4654.00,0.77
4652.00,0.77
4650.00,0.77
4648.00,0.77
4646.00,0.77
4644.00,0.77
4642.00,0.77
4640.00,0.78
4638.00,0.78
4636.00,0.78
4634.00,0.78
4632.00,0.78
4630.00,0.78
4628.00,0.77
4626.00,0.77
4624.00,0.78
4622.00,0.78
4620.00,0.78
4618.00,0.78
4616.00,0.78
4614.00,0.78
4612.00,0.78
4610.00,0.78
4608.00,0.78
4606.00,0.78
4604.00,0.78
4602.00,0.78
4600.00,0.78
4598.00,0.78
4596.00,0.78
4594.00,0.78
4592.00,0.78
4590.00,0.78
4588.00,0.78
4586.00,0.78
4584.00,0.78
4582.00,0.78
4580.00,0.78
4578.00,0.78
4576.00,0.78
4574.00,0.78
4572.00,0.78
4570.00,0.78
4568.00,0.78
4566.00,0.78
4564.00,0.78
4562.00,0.78
4560.00,0.78
4558.00,0.78
4556.00,0.78
4554.00,0.78
4552.00,0.78
4550.00,0.78
4548.00,0.78
4546.00,0.78
4544.00,0.78
4542.00,0.78
4540.00,0.78
4538.00,0.78
4536.00,0.77
4534.00,0.77
4532.00,0.77
4530.00,0.77
4528.00,0.77
4526.00,0.77
4524.00,0.77
4522.00,0.77
4520.00,0.78
4518.00,0.78
4516.00,0.78
4514.00,0.78
4512.00,0.78
4510.00,0.78
4508.00,0.78
4506.00,0.78
4504.00,0.78
4502.00,0.78
4500.00,0.78
4498.00,0.78
4496.00,0.78
4494.00,0.78
4492.00,0.78
4490.00,0.78
4488.00,0.78
4486.00,0.78
4484.00,0.78
4482.00,0.78
4480.00,0.78
4478.00,0.78
4476.00,0.78
4474.00,0.78
4472.00,0.78
4470.00,0.78
4468.00,0.78
4466.00,0.78
4464.00,0.78
4462.00,0.78
4460.00,0.78
4458.00,0.77
4456.00,0.77
4454.00,0.77
4452.00,0.77
4450.00,0.77
4448.00,0.77
4446.00,0.77
4444.00,0.77
4442.00,0.76
4440.00,0.76
4438.00,0.76
4436.00,0.76
4434.00,0.75
4432.00,0.75
4430.00,0.75
4428.00,0.74
4426.00,0.74
4424.00,0.74
4422.00,0.74
4420.00,0.73
4418.00,0.73
4416.00,0.73
4414.00,0.73
4412.00,0.73
4410.00,0.73
4408.00,0.73
4406.00,0.73
4404.00,0.73
4402.00,0.73
4400.00,0.73
4398.00,0.73
4396.00,0.73
4394.00,0.73
4392.00,0.73
4390.00,0.74
4388.00,0.74
4386.00,0.74
4384.00,0.74
4382.00,0.74
4380.00,0.75
4378.00,0.75
4376.00,0.75
4374.00,0.75
4372.00,0.75
4370.00,0.75
4368.00,0.75
4366.00,0.75
4364.00,0.75
4362.00,0.75
4360.00,0.75
4358.00,0.74
4356.00,0.74
4354.00,0.74
4352.00,0.74
4350.00,0.73
4348.00,0.73
4346.00,0.73
4344.00,0.73
4342.00,0.73
4340.00,0.73
4338.00,0.73
4336.00,0.73
4334.00,0.73
4332.00,0.73
4330.00,0.73
4328.00,0.73
4326.00,0.74
4324.00,0.74
4322.00,0.74
4320.00,0.74
4318.00,0.75
4316.00,0.75
4314.00,0.75
4312.00,0.76
4310.00,0.76
4308.00,0.76
4306.00,0.76
4304.00,0.77
4302.00,0.77
4300.00,0.77
4298.00,0.77
4296.00,0.77
4294.00,0.77
4292.00,0.77
4290.00,0.77
4288.00,0.77
4286.00,0.77
4284.00,0.77
4282.00,0.77
4280.00,0.77
4278.00,0.78
4276.00,0.77
4274.00,0.77
4272.00,0.77
4270.00,0.77
4268.00,0.77
4266.00,0.77
4264.00,0.77
4262.00,0.77
4260.00,0.76
4258.00,0.76
4256.00,0.76
4254.00,0.76
4252.00,0.76
4250.00,0.76
4248.00,0.76
4246.00,0.76
4244.00,0.76
4242.00,0.77
4240.00,0.77
4238.00,0.77
4236.00,0.77
4234.00,0.77
4232.00,0.77
4230.00,0.77
4228.00,0.77
4226.00,0.77
4224.00,0.77
4222.00,0.77
4220.00,0.77
4218.00,0.77
4216.00,0.77
4214.00,0.77
4212.00,0.78
4210.00,0.78
4208.00,0.78
4206.00,0.78
4204.00,0.78
4202.00,0.78
4200.00,0.78
4198.00,0.78
4196.00,0.78
4194.00,0.78
4192.00,0.78
4190.00,0.78
4188.00,0.78
4186.00,0.78
4184.00,0.78
4182.00,0.78
4180.00,0.78
4178.00,0.77
4176.00,0.77
4174.00,0.77
4172.00,0.77
4170.00,0.77
4168.00,0.77
4166.00,0.77
4164.00,0.77
4162.00,0.77
4160.00,0.77
4158.00,0.77
4156.00,0.77
4154.00,0.77
4152.00,0.77
4150.00,0.77
4148.00,0.77
4146.00,0.77
4144.00,0.77
4142.00,0.77
4140.00,0.77
4138.00,0.77
4136.00,0.77
4134.00,0.77
4132.00,0.77
4130.00,0.77
4128.00,0.77
4126.00,0.78
4124.00,0.78
4122.00,0.78
4120.00,0.78
4118.00,0.78
4116.00,0.78
4114.00,0.78
4112.00,0.78
4110.00,0.78
4108.00,0.78
4106.00,0.78
4104.00,0.77
4102.00,0.77
4100.00,0.77
4098.00,0.77
4096.00,0.77
4094.00,0.77
4092.00,0.77
4090.00,0.77
4088.00,0.77
4086.00,0.77
4084.00,0.77
4082.00,0.77
4080.00,0.77
4078.00,0.77
4076.00,0.77
4074.00,0.77
4072.00,0.77
4070.00,0.77
4068.00,0.76
4066.00,0.76
4064.00,0.76
4062.00,0.76
4060.00,0.76
4058.00,0.76
4056.00,0.76
4054.00,0.76
4052.00,0.76
4050.00,0.77
4048.00,0.77
4046.00,0.77
4044.00,0.77
4042.00,0.77
4040.00,0.77
4038.00,0.77
4036.00,0.77
4034.00,0.77
4032.00,0.78
4030.00,0.78
4028.00,0.78
4026.00,0.78
4024.00,0.78
4022.00,0.78
4020.00,0.78
4018.00,0.78
4016.00,0.78
4014.00,0.78
4012.00,0.78
4010.00,0.78
4008.00,0.78
4006.00,0.78
4004.00,0.78
4002.00,0.78
4000.00,0.78
