创建为新数据集,样品 1590 用户 Administrator 日期 星期日, 三月 12 2017
cm-1,%T
10000.00,0.75
9998.00,0.74
9996.00,0.74
9994.00,0.73
9992.00,0.73
9990.00,0.73
9988.00,0.73
9986.00,0.73
9984.00,0.73
9982.00,0.74
9980.00,0.74
9978.00,0.75
9976.00,0.75
9974.00,0.75
9972.00,0.75
9970.00,0.75
9968.00,0.75
9966.00,0.74
9964.00,0.74
9962.00,0.74
9960.00,0.74
9958.00,0.73
9956.00,0.73
9954.00,0.73
9952.00,0.73
9950.00,0.73
9948.00,0.73
9946.00,0.74
9944.00,0.74
9942.00,0.74
9940.00,0.75
9938.00,0.75
9936.00,0.75
9934.00,0.74
9932.00,0.74
9930.00,0.74
9928.00,0.74
9926.00,0.74
9924.00,0.73
9922.00,0.73
9920.00,0.73
9918.00,0.73
9916.00,0.73
9914.00,0.73
9912.00,0.73
9910.00,0.73
9908.00,0.73
9906.00,0.73
9904.00,0.73
9902.00,0.73
9900.00,0.73
9898.00,0.74
9896.00,0.74
9894.00,0.74
9892.00,0.74
9890.00,0.74
9888.00,0.73
9886.00,0.73
9884.00,0.72
9882.00,0.72
9880.00,0.72
9878.00,0.72
9876.00,0.72
9874.00,0.72
9872.00,0.72
9870.00,0.72
9868.00,0.73
9866.00,0.73
9864.00,0.73
9862.00,0.73
9860.00,0.74
9858.00,0.74
9856.00,0.74
9854.00,0.75
9852.00,0.75
9850.00,0.75
9848.00,0.74
9846.00,0.74
9844.00,0.74
9842.00,0.74
9840.00,0.73
9838.00,0.73
9836.00,0.74
9834.00,0.74
9832.00,0.74
9830.00,0.74
9828.00,0.74
9826.00,0.74
9824.00,0.74
9822.00,0.74
9820.00,0.74
9818.00,0.74
9816.00,0.74
9814.00,0.74
9812.00,0.74
9810.00,0.74
9808.00,0.74
9806.00,0.74
9804.00,0.74
9802.00,0.74
9800.00,0.74
9798.00,0.74
9796.00,0.74
9794.00,0.74
9792.00,0.74
9790.00,0.74
9788.00,0.74
9786.00,0.74
9784.00,0.74
9782.00,0.74
9780.00,0.73
9778.00,0.73
9776.00,0.72
9774.00,0.72
9772.00,0.71
9770.00,0.71
9768.00,0.71
9766.00,0.71
9764.00,0.71
9762.00,0.71
9760.00,0.71
9758.00,0.71
9756.00,0.72
9754.00,0.72
9752.00,0.72
9750.00,0.72
9748.00,0.72
9746.00,0.72
9744.00,0.72
9742.00,0.72
9740.00,0.72
9738.00,0.72
9736.00,0.72
9734.00,0.73
9732.00,0.73
9730.00,0.73
9728.00,0.73
9726.00,0.73
9724.00,0.73
9722.00,0.73
9720.00,0.72
9718.00,0.72
9716.00,0.72
9714.00,0.72
9712.00,0.72
9710.00,0.72
9708.00,0.73
9706.00,0.73
9704.00,0.73
9702.00,0.74
9700.00,0.74
9698.00,0.74
9696.00,0.74
9694.00,0.75
9692.00,0.75
9690.00,0.74
9688.00,0.74
9686.00,0.74
9684.00,0.74
9682.00,0.74
9680.00,0.74
9678.00,0.74
9676.00,0.74
9674.00,0.74
9672.00,0.74
9670.00,0.74
9668.00,0.75
9666.00,0.75
9664.00,0.75
9662.00,0.74
9660.00,0.74
9658.00,0.74
9656.00,0.73
9654.00,0.73
9652.00,0.72
9650.00,0.72
9648.00,0.71
9646.00,0.71
9644.00,0.71
9642.00,0.71
9640.00,0.71
9638.00,0.71
9636.00,0.71
9634.00,0.72
9632.00,0.72
9630.00,0.72
9628.00,0.73
9626.00,0.73
9624.00,0.74
9622.00,0.74
9620.00,0.74
9618.00,0.75
9616.00,0.75
9614.00,0.75
9612.00,0.76
9610.00,0.76
9608.00,0.76
9606.00,0.76
9604.00,0.75
9602.00,0.75
9600.00,0.75
9598.00,0.74
9596.00,0.74
9594.00,0.73
9592.00,0.72
9590.00,0.72
9588.00,0.71
9586.00,0.71
9584.00,0.71
9582.00,0.71
9580.00,0.71
9578.00,0.71
9576.00,0.72
9574.00,0.72
9572.00,0.72
9570.00,0.73
9568.00,0.73
9566.00,0.72
9564.00,0.72
9562.00,0.72
9560.00,0.71
9558.00,0.71
9556.00,0.70
9554.00,0.70
9552.00,0.70
9550.00,0.71
9548.00,0.71
9546.00,0.71
9544.00,0.71
9542.00,0.71
9540.00,0.71
9538.00,0.71
9536.00,0.71
9534.00,0.71
9532.00,0.72
9530.00,0.72
9528.00,0.73
9526.00,0.74
9524.00,0.74
9522.00,0.75
9520.00,0.75
9518.00,0.75
9516.00,0.75
9514.00,0.74
9512.00,0.74
9510.00,0.73
9508.00,0.73
9506.00,0.72
9504.00,0.72
9502.00,0.72
9500.00,0.72
9498.00,0.72
9496.00,0.72
9494.00,0.72
9492.00,0.72
9490.00,0.72
9488.00,0.72
9486.00,0.73
9484.00,0.73
9482.00,0.73
9480.00,0.74
9478.00,0.74
9476.00,0.74
9474.00,0.74
9472.00,0.74
9470.00,0.73
9468.00,0.73
9466.00,0.73
9464.00,0.73
9462.00,0.73
9460.00,0.73
9458.00,0.73
9456.00,0.73
9454.00,0.73
9452.00,0.73
9450.00,0.74
9448.00,0.74
9446.00,0.74
9444.00,0.74
9442.00,0.74
9440.00,0.74
9438.00,0.74
9436.00,0.74
9434.00,0.74
9432.00,0.74
9430.00,0.74
9428.00,0.74
9426.00,0.74
9424.00,0.74
9422.00,0.74
9420.00,0.74
9418.00,0.74
9416.00,0.74
9414.00,0.74
9412.00,0.73
9410.00,0.73
9408.00,0.72
9406.00,0.72
9404.00,0.72
9402.00,0.72
9400.00,0.71
9398.00,0.72
9396.00,0.72
9394.00,0.72
9392.00,0.73
9390.00,0.73
9388.00,0.73
9386.00,0.74
9384.00,0.74
9382.00,0.74
9380.00,0.73
9378.00,0.73
9376.00,0.73
9374.00,0.73
9372.00,0.73
9370.00,0.73
9368.00,0.73
9366.00,0.73
9364.00,0.73
9362.00,0.74
9360.00,0.74
9358.00,0.74
9356.00,0.74
9354.00,0.74
9352.00,0.74
9350.00,0.74
9348.00,0.73
9346.00,0.73
9344.00,0.72
9342.00,0.72
9340.00,0.71
9338.00,0.71
9336.00,0.71
9334.00,0.71
9332.00,0.71
9330.00,0.71
9328.00,0.70
9326.00,0.70
9324.00,0.71
9322.00,0.71
9320.00,0.71
9318.00,0.71
9316.00,0.72
9314.00,0.72
9312.00,0.73
9310.00,0.73
9308.00,0.73
9306.00,0.73
9304.00,0.73
9302.00,0.73
9300.00,0.73
9298.00,0.73
9296.00,0.72
9294.00,0.72
9292.00,0.72
9290.00,0.71
9288.00,0.71
9286.00,0.71
9284.00,0.71
9282.00,0.71
9280.00,0.71
9278.00,0.72
9276.00,0.72
9274.00,0.72
9272.00,0.72
9270.00,0.73
9268.00,0.73
9266.00,0.73
9264.00,0.73
9262.00,0.74
9260.00,0.74
9258.00,0.74
9256.00,0.74
9254.00,0.74
9252.00,0.74
9250.00,0.73
9248.00,0.73
9246.00,0.73
9244.00,0.73
9242.00,0.72
9240.00,0.72
9238.00,0.72
9236.00,0.72
9234.00,0.72
9232.00,0.72
9230.00,0.72
9228.00,0.72
9226.00,0.72
9224.00,0.72
9222.00,0.72
9220.00,0.72
9218.00,0.72
9216.00,0.72
9214.00,0.72
9212.00,0.72
9210.00,0.72
9208.00,0.73
9206.00,0.73
9204.00,0.73
9202.00,0.73
9200.00,0.73
9198.00,0.73
9196.00,0.73
9194.00,0.74
9192.00,0.74
9190.00,0.74
9188.00,0.74
9186.00,0.74
9184.00,0.74
9182.00,0.73
9180.00,0.73
9178.00,0.73
9176.00,0.73
9174.00,0.73
9172.00,0.73
9170.00,0.74
9168.00,0.74
9166.00,0.74
9164.00,0.74
9162.00,0.74
9160.00,0.73
9158.00,0.73
9156.00,0.73
9154.00,0.72
9152.00,0.72
9150.00,0.72
9148.00,0.72
9146.00,0.72
9144.00,0.73
9142.00,0.73
9140.00,0.73
9138.00,0.73
9136.00,0.73
9134.00,0.73
9132.00,0.72
9130.00,0.72
9128.00,0.72
9126.00,0.72
9124.00,0.72
9122.00,0.73
9120.00,0.73
9118.00,0.73
9116.00,0.74
9114.00,0.74
9112.00,0.74
9110.00,0.74
9108.00,0.74
9106.00,0.74
9104.00,0.74
9102.00,0.74
9100.00,0.73
9098.00,0.73
9096.00,0.73
9094.00,0.73
9092.00,0.73
9090.00,0.73
9088.00,0.73
9086.00,0.73
9084.00,0.73
9082.00,0.73
9080.00,0.73
9078.00,0.73
9076.00,0.73
9074.00,0.73
9072.00,0.72
9070.00,0.72
9068.00,0.72
9066.00,0.72
9064.00,0.72
9062.00,0.72
9060.00,0.72
9058.00,0.72
9056.00,0.72
9054.00,0.72
9052.00,0.72
9050.00,0.72
9048.00,0.71
9046.00,0.71
9044.00,0.72
9042.00,0.72
9040.00,0.72
9038.00,0.72
9036.00,0.72
9034.00,0.72
9032.00,0.72
9030.00,0.72
9028.00,0.72
9026.00,0.72
9024.00,0.72
9022.00,0.72
9020.00,0.73
9018.00,0.73
9016.00,0.73
9014.00,0.73
9012.00,0.74
9010.00,0.74
9008.00,0.74
9006.00,0.74
9004.00,0.75
9002.00,0.75
9000.00,0.74
8998.00,0.74
8996.00,0.74
8994.00,0.74
8992.00,0.73
8990.00,0.73
8988.00,0.73
8986.00,0.73
8984.00,0.72
8982.00,0.72
8980.00,0.72
8978.00,0.72
8976.00,0.72
8974.00,0.72
8972.00,0.72
8970.00,0.73
8968.00,0.73
8966.00,0.73
8964.00,0.74
8962.00,0.74
8960.00,0.74
8958.00,0.74
8956.00,0.74
8954.00,0.74
8952.00,0.74
8950.00,0.74
8948.00,0.74
8946.00,0.74
8944.00,0.74
8942.00,0.74
8940.00,0.74
8938.00,0.73
8936.00,0.73
8934.00,0.72
8932.00,0.72
8930.00,0.72
8928.00,0.72
8926.00,0.72
8924.00,0.73
8922.00,0.73
8920.00,0.74
8918.00,0.74
8916.00,0.74
8914.00,0.75
8912.00,0.75
8910.00,0.75
8908.00,0.74
8906.00,0.74
8904.00,0.74
8902.00,0.74
8900.00,0.74
8898.00,0.74
8896.00,0.74
8894.00,0.74
8892.00,0.73
8890.00,0.73
8888.00,0.73
8886.00,0.73
8884.00,0.73
8882.00,0.73
8880.00,0.73
8878.00,0.73
8876.00,0.73
8874.00,0.74
8872.00,0.74
8870.00,0.74
8868.00,0.74
8866.00,0.74
8864.00,0.74
8862.00,0.74
8860.00,0.73
8858.00,0.73
8856.00,0.73
8854.00,0.73
8852.00,0.72
8850.00,0.72
8848.00,0.72
8846.00,0.72
8844.00,0.72
8842.00,0.72
8840.00,0.73
8838.00,0.73
8836.00,0.73
8834.00,0.73
8832.00,0.73
8830.00,0.73
8828.00,0.73
8826.00,0.73
8824.00,0.73
8822.00,0.73
8820.00,0.73
8818.00,0.73
8816.00,0.72
8814.00,0.72
8812.00,0.72
8810.00,0.72
8808.00,0.72
8806.00,0.72
8804.00,0.72
8802.00,0.72
8800.00,0.72
8798.00,0.72
8796.00,0.71
8794.00,0.71
8792.00,0.71
8790.00,0.71
8788.00,0.71
8786.00,0.71
8784.00,0.72
8782.00,0.72
8780.00,0.72
8778.00,0.73
8776.00,0.73
8774.00,0.73
8772.00,0.73
8770.00,0.73
8768.00,0.73
8766.00,0.73
8764.00,0.73
8762.00,0.73
8760.00,0.72
8758.00,0.72
8756.00,0.72
8754.00,0.72
8752.00,0.72
8750.00,0.72
8748.00,0.73
8746.00,0.73
8744.00,0.73
8742.00,0.73
8740.00,0.73
8738.00,0.73
8736.00,0.73
8734.00,0.73
8732.00,0.72
8730.00,0.72
8728.00,0.72
8726.00,0.72
8724.00,0.72
8722.00,0.72
8720.00,0.73
8718.00,0.73
8716.00,0.73
8714.00,0.72
8712.00,0.72
8710.00,0.72
8708.00,0.72
8706.00,0.71
8704.00,0.71
8702.00,0.71
8700.00,0.71
8698.00,0.71
8696.00,0.71
8694.00,0.71
8692.00,0.71
8690.00,0.72
8688.00,0.72
8686.00,0.72
8684.00,0.72
8682.00,0.73
8680.00,0.72
8678.00,0.72
8676.00,0.72
8674.00,0.72
8672.00,0.72
8670.00,0.72
8668.00,0.71
8666.00,0.71
8664.00,0.71
8662.00,0.71
8660.00,0.71
8658.00,0.71
8656.00,0.71
8654.00,0.71
8652.00,0.71
8650.00,0.71
8648.00,0.72
8646.00,0.72
8644.00,0.72
8642.00,0.73
8640.00,0.73
8638.00,0.73
8636.00,0.74
8634.00,0.74
8632.00,0.73
8630.00,0.73
8628.00,0.73
8626.00,0.72
8624.00,0.72
8622.00,0.71
8620.00,0.71
8618.00,0.71
8616.00,0.70
8614.00,0.70
8612.00,0.71
8610.00,0.71
8608.00,0.71
8606.00,0.71
8604.00,0.71
8602.00,0.71
8600.00,0.72
8598.00,0.72
8596.00,0.72
8594.00,0.72
8592.00,0.73
8590.00,0.73
8588.00,0.73
8586.00,0.73
8584.00,0.73
8582.00,0.73
8580.00,0.73
8578.00,0.73
8576.00,0.73
8574.00,0.73
8572.00,0.73
8570.00,0.72
8568.00,0.72
8566.00,0.72
8564.00,0.72
8562.00,0.72
8560.00,0.72
8558.00,0.72
8556.00,0.72
8554.00,0.71
8552.00,0.71
8550.00,0.71
8548.00,0.71
8546.00,0.71
8544.00,0.71
8542.00,0.71
8540.00,0.71
8538.00,0.72
8536.00,0.72
8534.00,0.72
8532.00,0.72
8530.00,0.72
8528.00,0.72
8526.00,0.71
8524.00,0.71
8522.00,0.71
8520.00,0.71
8518.00,0.71
8516.00,0.71
8514.00,0.71
8512.00,0.71
8510.00,0.71
8508.00,0.71
8506.00,0.71
8504.00,0.71
8502.00,0.71
8500.00,0.71
8498.00,0.71
8496.00,0.71
8494.00,0.71
8492.00,0.71
8490.00,0.71
8488.00,0.71
8486.00,0.71
8484.00,0.71
8482.00,0.71
8480.00,0.71
8478.00,0.71
8476.00,0.70
8474.00,0.70
8472.00,0.71
8470.00,0.71
8468.00,0.71
8466.00,0.71
8464.00,0.72
8462.00,0.72
8460.00,0.72
8458.00,0.72
8456.00,0.72
8454.00,0.72
8452.00,0.72
8450.00,0.71
8448.00,0.71
8446.00,0.71
8444.00,0.71
8442.00,0.71
8440.00,0.71
8438.00,0.71
8436.00,0.71
8434.00,0.71
8432.00,0.71
8430.00,0.71
8428.00,0.72
8426.00,0.72
8424.00,0.72
8422.00,0.72
8420.00,0.72
8418.00,0.72
8416.00,0.72
8414.00,0.72
8412.00,0.72
8410.00,0.72
8408.00,0.72
8406.00,0.72
8404.00,0.72
8402.00,0.72
8400.00,0.72
8398.00,0.72
8396.00,0.72
8394.00,0.72
8392.00,0.73
8390.00,0.72
8388.00,0.72
8386.00,0.72
8384.00,0.72
8382.00,0.72
8380.00,0.72
8378.00,0.72
8376.00,0.72
8374.00,0.72
8372.00,0.72
8370.00,0.72
8368.00,0.73
8366.00,0.73
8364.00,0.73
8362.00,0.72
8360.00,0.72
8358.00,0.72
8356.00,0.72
8354.00,0.72
8352.00,0.72
8350.00,0.72
8348.00,0.72
8346.00,0.72
8344.00,0.72
8342.00,0.72
8340.00,0.72
8338.00,0.72
8336.00,0.72
8334.00,0.73
8332.00,0.73
8330.00,0.73
8328.00,0.73
8326.00,0.73
8324.00,0.73
8322.00,0.73
8320.00,0.73
8318.00,0.73
8316.00,0.73
8314.00,0.73
8312.00,0.73
8310.00,0.72
8308.00,0.72
8306.00,0.72
8304.00,0.71
8302.00,0.71
8300.00,0.71
8298.00,0.71
8296.00,0.71
8294.00,0.71
8292.00,0.70
8290.00,0.70
8288.00,0.71
8286.00,0.71
8284.00,0.71
8282.00,0.71
8280.00,0.71
8278.00,0.71
8276.00,0.71
8274.00,0.71
8272.00,0.71
8270.00,0.72
8268.00,0.72
8266.00,0.72
8264.00,0.72
8262.00,0.72
8260.00,0.72
8258.00,0.72
8256.00,0.72
8254.00,0.72
8252.00,0.72
8250.00,0.72
8248.00,0.72
8246.00,0.72
8244.00,0.72
8242.00,0.72
8240.00,0.72
8238.00,0.72
8236.00,0.72
8234.00,0.72
8232.00,0.72
8230.00,0.72
8228.00,0.72
8226.00,0.71
8224.00,0.71
8222.00,0.71
8220.00,0.71
8218.00,0.71
8216.00,0.71
8214.00,0.72
8212.00,0.72
8210.00,0.72
8208.00,0.72
8206.00,0.72
8204.00,0.72
8202.00,0.72
8200.00,0.72
8198.00,0.72
8196.00,0.72
8194.00,0.72
8192.00,0.72
8190.00,0.72
8188.00,0.73
8186.00,0.73
8184.00,0.73
8182.00,0.73
8180.00,0.72
8178.00,0.72
8176.00,0.72
8174.00,0.72
8172.00,0.72
8170.00,0.72
8168.00,0.72
8166.00,0.72
8164.00,0.72
8162.00,0.72
8160.00,0.72
8158.00,0.72
8156.00,0.72
8154.00,0.72
8152.00,0.72
8150.00,0.73
8148.00,0.73
8146.00,0.73
8144.00,0.73
8142.00,0.73
8140.00,0.72
8138.00,0.72
8136.00,0.72
8134.00,0.72
8132.00,0.72
8130.00,0.72
8128.00,0.72
8126.00,0.72
8124.00,0.72
8122.00,0.72
8120.00,0.72
8118.00,0.72
8116.00,0.72
8114.00,0.72
8112.00,0.72
8110.00,0.72
8108.00,0.72
8106.00,0.72
8104.00,0.72
8102.00,0.72
8100.00,0.72
8098.00,0.72
8096.00,0.72
8094.00,0.72
8092.00,0.72
8090.00,0.72
8088.00,0.72
8086.00,0.72
8084.00,0.72
8082.00,0.72
8080.00,0.72
8078.00,0.72
8076.00,0.72
8074.00,0.72
8072.00,0.72
8070.00,0.72
8068.00,0.72
8066.00,0.72
8064.00,0.72
8062.00,0.72
8060.00,0.72
8058.00,0.72
8056.00,0.72
8054.00,0.73
8052.00,0.73
8050.00,0.73
8048.00,0.73
8046.00,0.73
8044.00,0.72
8042.00,0.72
8040.00,0.72
8038.00,0.72
8036.00,0.72
8034.00,0.72
8032.00,0.72
8030.00,0.72
8028.00,0.72
8026.00,0.72
8024.00,0.72
8022.00,0.72
8020.00,0.72
8018.00,0.72
8016.00,0.72
8014.00,0.72
8012.00,0.72
8010.00,0.72
8008.00,0.72
8006.00,0.72
8004.00,0.73
8002.00,0.73
8000.00,0.73
7998.00,0.73
7996.00,0.73
7994.00,0.73
7992.00,0.72
7990.00,0.72
7988.00,0.72
7986.00,0.72
7984.00,0.72
7982.00,0.72
7980.00,0.72
7978.00,0.72
7976.00,0.72
7974.00,0.72
7972.00,0.72
7970.00,0.72
7968.00,0.72
7966.00,0.72
7964.00,0.72
7962.00,0.72
7960.00,0.72
7958.00,0.72
7956.00,0.72
7954.00,0.72
7952.00,0.72
7950.00,0.72
7948.00,0.72
7946.00,0.73
7944.00,0.73
7942.00,0.73
7940.00,0.73
7938.00,0.73
7936.00,0.74
7934.00,0.74
7932.00,0.74
7930.00,0.74
7928.00,0.73
7926.00,0.73
7924.00,0.73
7922.00,0.73
7920.00,0.73
7918.00,0.73
7916.00,0.73
7914.00,0.73
7912.00,0.73
7910.00,0.73
7908.00,0.73
7906.00,0.73
7904.00,0.73
7902.00,0.73
7900.00,0.73
7898.00,0.73
7896.00,0.73
7894.00,0.73
7892.00,0.73
7890.00,0.73
7888.00,0.73
7886.00,0.73
7884.00,0.73
7882.00,0.72
7880.00,0.72
7878.00,0.72
7876.00,0.72
7874.00,0.72
7872.00,0.72
7870.00,0.71
7868.00,0.71
7866.00,0.71
7864.00,0.71
7862.00,0.71
7860.00,0.72
7858.00,0.72
7856.00,0.72
7854.00,0.72
7852.00,0.73
7850.00,0.73
7848.00,0.73
7846.00,0.73
7844.00,0.72
7842.00,0.72
7840.00,0.72
7838.00,0.72
7836.00,0.72
7834.00,0.73
7832.00,0.73
7830.00,0.73
7828.00,0.73
7826.00,0.73
7824.00,0.74
7822.00,0.74
7820.00,0.74
7818.00,0.73
7816.00,0.73
7814.00,0.73
7812.00,0.73
7810.00,0.73
7808.00,0.74
7806.00,0.74
7804.00,0.74
7802.00,0.74
7800.00,0.74
7798.00,0.74
7796.00,0.73
7794.00,0.73
7792.00,0.73
7790.00,0.73
7788.00,0.73
7786.00,0.73
7784.00,0.72
7782.00,0.72
7780.00,0.72
7778.00,0.72
7776.00,0.72
7774.00,0.72
7772.00,0.72
7770.00,0.72
7768.00,0.72
7766.00,0.72
7764.00,0.72
7762.00,0.72
7760.00,0.73
7758.00,0.73
7756.00,0.73
7754.00,0.73
7752.00,0.74
7750.00,0.74
7748.00,0.74
7746.00,0.74
7744.00,0.74
7742.00,0.73
7740.00,0.73
7738.00,0.73
7736.00,0.73
7734.00,0.72
7732.00,0.72
7730.00,0.72
7728.00,0.71
7726.00,0.71
7724.00,0.71
7722.00,0.72
7720.00,0.72
7718.00,0.72
7716.00,0.73
7714.00,0.73
7712.00,0.73
7710.00,0.73
7708.00,0.73
7706.00,0.73
7704.00,0.73
7702.00,0.73
7700.00,0.73
7698.00,0.73
7696.00,0.73
7694.00,0.73
7692.00,0.73
7690.00,0.73
7688.00,0.73
7686.00,0.73
7684.00,0.73
7682.00,0.73
7680.00,0.73
7678.00,0.73
7676.00,0.73
7674.00,0.73
7672.00,0.73
7670.00,0.73
7668.00,0.73
7666.00,0.73
7664.00,0.73
7662.00,0.73
7660.00,0.73
7658.00,0.73
7656.00,0.73
7654.00,0.73
7652.00,0.73
7650.00,0.74
7648.00,0.74
7646.00,0.74
7644.00,0.74
7642.00,0.74
7640.00,0.74
7638.00,0.73
7636.00,0.73
7634.00,0.73
7632.00,0.73
7630.00,0.73
7628.00,0.72
7626.00,0.72
7624.00,0.72
7622.00,0.72
7620.00,0.72
7618.00,0.72
7616.00,0.72
7614.00,0.72
7612.00,0.72
7610.00,0.72
7608.00,0.72
7606.00,0.72
7604.00,0.72
7602.00,0.72
7600.00,0.72
7598.00,0.73
7596.00,0.73
7594.00,0.73
7592.00,0.74
7590.00,0.74
7588.00,0.74
7586.00,0.74
7584.00,0.74
7582.00,0.74
7580.00,0.74
7578.00,0.74
7576.00,0.73
7574.00,0.73
7572.00,0.73
7570.00,0.73
7568.00,0.73
7566.00,0.73
7564.00,0.73
7562.00,0.73
7560.00,0.73
7558.00,0.73
7556.00,0.73
7554.00,0.73
7552.00,0.73
7550.00,0.73
7548.00,0.73
7546.00,0.73
7544.00,0.73
7542.00,0.73
7540.00,0.73
7538.00,0.73
7536.00,0.73
7534.00,0.73
7532.00,0.73
7530.00,0.73
7528.00,0.73
7526.00,0.73
7524.00,0.73
7522.00,0.73
7520.00,0.73
7518.00,0.73
7516.00,0.74
7514.00,0.74
7512.00,0.74
7510.00,0.74
7508.00,0.74
7506.00,0.74
7504.00,0.74
7502.00,0.74
7500.00,0.73
7498.00,0.73
7496.00,0.73
7494.00,0.73
7492.00,0.73
7490.00,0.73
7488.00,0.73
7486.00,0.73
7484.00,0.73
7482.00,0.73
7480.00,0.73
7478.00,0.73
7476.00,0.73
7474.00,0.73
7472.00,0.73
7470.00,0.72
7468.00,0.72
7466.00,0.72
7464.00,0.72
7462.00,0.72
7460.00,0.72
7458.00,0.71
7456.00,0.71
7454.00,0.71
7452.00,0.71
7450.00,0.71
7448.00,0.72
7446.00,0.72
7444.00,0.72
7442.00,0.73
7440.00,0.73
7438.00,0.73
7436.00,0.73
7434.00,0.73
7432.00,0.73
7430.00,0.73
7428.00,0.73
7426.00,0.73
7424.00,0.73
7422.00,0.72
7420.00,0.72
7418.00,0.72
7416.00,0.72
7414.00,0.72
7412.00,0.72
7410.00,0.72
7408.00,0.73
7406.00,0.73
7404.00,0.73
7402.00,0.73
7400.00,0.73
7398.00,0.72
7396.00,0.72
7394.00,0.72
7392.00,0.72
7390.00,0.72
7388.00,0.72
7386.00,0.72
7384.00,0.71
7382.00,0.71
7380.00,0.71
7378.00,0.71
7376.00,0.71
7374.00,0.71
7372.00,0.71
7370.00,0.71
7368.00,0.71
7366.00,0.71
7364.00,0.71
7362.00,0.71
7360.00,0.71
7358.00,0.71
7356.00,0.71
7354.00,0.71
7352.00,0.71
7350.00,0.71
7348.00,0.71
7346.00,0.71
7344.00,0.71
7342.00,0.71
7340.00,0.71
7338.00,0.71
7336.00,0.71
7334.00,0.71
7332.00,0.71
7330.00,0.71
7328.00,0.71
7326.00,0.71
7324.00,0.71
7322.00,0.71
7320.00,0.71
7318.00,0.71
7316.00,0.71
7314.00,0.71
7312.00,0.71
7310.00,0.72
7308.00,0.72
7306.00,0.72
7304.00,0.72
7302.00,0.72
7300.00,0.72
7298.00,0.72
7296.00,0.72
7294.00,0.72
7292.00,0.72
7290.00,0.72
7288.00,0.72
7286.00,0.72
7284.00,0.71
7282.00,0.71
7280.00,0.71
7278.00,0.71
7276.00,0.71
7274.00,0.71
7272.00,0.71
7270.00,0.71
7268.00,0.71
7266.00,0.71
7264.00,0.71
7262.00,0.71
7260.00,0.71
7258.00,0.71
7256.00,0.71
7254.00,0.71
7252.00,0.71
7250.00,0.71
7248.00,0.71
7246.00,0.71
7244.00,0.71
7242.00,0.71
7240.00,0.71
7238.00,0.71
7236.00,0.71
7234.00,0.71
7232.00,0.71
7230.00,0.71
7228.00,0.71
7226.00,0.71
7224.00,0.71
7222.00,0.70
7220.00,0.70
7218.00,0.70
7216.00,0.70
7214.00,0.70
7212.00,0.70
7210.00,0.70
7208.00,0.70
7206.00,0.70
7204.00,0.70
7202.00,0.70
7200.00,0.70
7198.00,0.70
7196.00,0.70
7194.00,0.70
7192.00,0.70
7190.00,0.70
7188.00,0.70
7186.00,0.70
7184.00,0.70
7182.00,0.70
7180.00,0.70
7178.00,0.70
7176.00,0.70
7174.00,0.69
7172.00,0.69
7170.00,0.69
7168.00,0.69
7166.00,0.69
7164.00,0.69
7162.00,0.69
7160.00,0.69
7158.00,0.69
7156.00,0.69
7154.00,0.69
7152.00,0.69
7150.00,0.69
7148.00,0.69
7146.00,0.69
7144.00,0.69
7142.00,0.69
7140.00,0.69
7138.00,0.69
7136.00,0.69
7134.00,0.68
7132.00,0.68
7130.00,0.68
7128.00,0.68
7126.00,0.68
7124.00,0.68
7122.00,0.68
7120.00,0.68
7118.00,0.68
7116.00,0.68
7114.00,0.68
7112.00,0.68
7110.00,0.68
7108.00,0.68
7106.00,0.68
7104.00,0.68
7102.00,0.68
7100.00,0.68
7098.00,0.67
7096.00,0.67
7094.00,0.67
7092.00,0.67
7090.00,0.66
7088.00,0.66
7086.00,0.66
7084.00,0.66
7082.00,0.66
7080.00,0.67
7078.00,0.67
7076.00,0.67
7074.00,0.67
7072.00,0.67
7070.00,0.67
7068.00,0.67
7066.00,0.67
7064.00,0.67
7062.00,0.67
7060.00,0.67
7058.00,0.67
7056.00,0.67
7054.00,0.67
7052.00,0.67
7050.00,0.67
7048.00,0.67
7046.00,0.67
7044.00,0.67
7042.00,0.67
7040.00,0.67
7038.00,0.67
7036.00,0.67
7034.00,0.67
7032.00,0.67
7030.00,0.67
7028.00,0.67
7026.00,0.67
7024.00,0.66
7022.00,0.66
7020.00,0.66
7018.00,0.66
7016.00,0.66
7014.00,0.65
7012.00,0.65
7010.00,0.65
7008.00,0.66
7006.00,0.66
7004.00,0.66
7002.00,0.67
7000.00,0.67
6998.00,0.67
6996.00,0.68
6994.00,0.68
6992.00,0.68
6990.00,0.67
6988.00,0.67
6986.00,0.67
6984.00,0.67
6982.00,0.67
6980.00,0.67
6978.00,0.67
6976.00,0.67
6974.00,0.67
6972.00,0.67
6970.00,0.67
6968.00,0.66
6966.00,0.66
6964.00,0.66
6962.00,0.66
6960.00,0.66
6958.00,0.66
6956.00,0.66
6954.00,0.66
6952.00,0.66
6950.00,0.66
6948.00,0.66
6946.00,0.66
6944.00,0.67
6942.00,0.67
6940.00,0.67
6938.00,0.67
6936.00,0.67
6934.00,0.67
6932.00,0.67
6930.00,0.67
6928.00,0.67
6926.00,0.67
6924.00,0.67
6922.00,0.66
6920.00,0.66
6918.00,0.66
6916.00,0.66
6914.00,0.66
6912.00,0.66
6910.00,0.66
6908.00,0.66
6906.00,0.66
6904.00,0.66
6902.00,0.66
6900.00,0.66
6898.00,0.66
6896.00,0.66
6894.00,0.66
6892.00,0.66
6890.00,0.66
6888.00,0.66
6886.00,0.66
6884.00,0.66
6882.00,0.66
6880.00,0.67
6878.00,0.67
6876.00,0.67
6874.00,0.66
6872.00,0.66
6870.00,0.66
6868.00,0.66
6866.00,0.66
6864.00,0.66
6862.00,0.66
6860.00,0.66
6858.00,0.66
6856.00,0.67
6854.00,0.67
6852.00,0.67
6850.00,0.67
6848.00,0.67
6846.00,0.67
6844.00,0.67
6842.00,0.67
6840.00,0.66
6838.00,0.66
6836.00,0.66
6834.00,0.66
6832.00,0.66
6830.00,0.66
6828.00,0.66
6826.00,0.66
6824.00,0.66
6822.00,0.66
6820.00,0.66
6818.00,0.66
6816.00,0.66
6814.00,0.66
6812.00,0.66
6810.00,0.66
6808.00,0.66
6806.00,0.66
6804.00,0.66
6802.00,0.66
6800.00,0.66
6798.00,0.66
6796.00,0.66
6794.00,0.66
6792.00,0.66
6790.00,0.66
6788.00,0.66
6786.00,0.66
6784.00,0.66
6782.00,0.66
6780.00,0.66
6778.00,0.66
6776.00,0.66
6774.00,0.67
6772.00,0.67
6770.00,0.67
6768.00,0.67
6766.00,0.67
6764.00,0.67
6762.00,0.67
6760.00,0.67
6758.00,0.67
6756.00,0.67
6754.00,0.67
6752.00,0.67
6750.00,0.67
6748.00,0.67
6746.00,0.67
6744.00,0.67
6742.00,0.67
6740.00,0.67
6738.00,0.67
6736.00,0.67
6734.00,0.67
6732.00,0.67
6730.00,0.67
6728.00,0.67
6726.00,0.67
6724.00,0.67
6722.00,0.67
6720.00,0.67
6718.00,0.67
6716.00,0.66
6714.00,0.66
6712.00,0.66
6710.00,0.67
6708.00,0.67
6706.00,0.67
6704.00,0.67
6702.00,0.67
6700.00,0.67
6698.00,0.67
6696.00,0.67
6694.00,0.68
6692.00,0.68
6690.00,0.68
6688.00,0.68
6686.00,0.68
6684.00,0.68
6682.00,0.68
6680.00,0.68
6678.00,0.68
6676.00,0.68
6674.00,0.68
6672.00,0.68
6670.00,0.67
6668.00,0.67
6666.00,0.67
6664.00,0.67
6662.00,0.67
6660.00,0.67
6658.00,0.67
6656.00,0.67
6654.00,0.67
6652.00,0.67
6650.00,0.67
6648.00,0.67
6646.00,0.67
6644.00,0.67
6642.00,0.67
6640.00,0.67
6638.00,0.67
6636.00,0.67
6634.00,0.68
6632.00,0.68
6630.00,0.68
6628.00,0.68
6626.00,0.68
6624.00,0.68
6622.00,0.68
6620.00,0.68
6618.00,0.68
6616.00,0.68
6614.00,0.68
6612.00,0.68
6610.00,0.68
6608.00,0.68
6606.00,0.68
6604.00,0.68
6602.00,0.68
6600.00,0.68
6598.00,0.68
6596.00,0.68
6594.00,0.68
6592.00,0.68
6590.00,0.68
6588.00,0.68
6586.00,0.68
6584.00,0.68
6582.00,0.68
6580.00,0.68
6578.00,0.68
6576.00,0.68
6574.00,0.68
6572.00,0.68
6570.00,0.68
6568.00,0.68
6566.00,0.68
6564.00,0.68
6562.00,0.68
6560.00,0.68
6558.00,0.68
6556.00,0.68
6554.00,0.68
6552.00,0.68
6550.00,0.68
6548.00,0.68
6546.00,0.68
6544.00,0.68
6542.00,0.68
6540.00,0.68
6538.00,0.68
6536.00,0.68
6534.00,0.68
6532.00,0.68
6530.00,0.68
6528.00,0.68
6526.00,0.68
6524.00,0.68
6522.00,0.68
6520.00,0.68
6518.00,0.68
6516.00,0.68
6514.00,0.69
6512.00,0.69
6510.00,0.69
6508.00,0.69
6506.00,0.69
6504.00,0.69
6502.00,0.69
6500.00,0.68
6498.00,0.68
6496.00,0.68
6494.00,0.68
6492.00,0.68
6490.00,0.68
6488.00,0.69
6486.00,0.69
6484.00,0.69
6482.00,0.69
6480.00,0.69
6478.00,0.69
6476.00,0.69
6474.00,0.69
6472.00,0.69
6470.00,0.69
6468.00,0.69
6466.00,0.69
6464.00,0.69
6462.00,0.69
6460.00,0.69
6458.00,0.69
6456.00,0.69
6454.00,0.69
6452.00,0.69
6450.00,0.69
6448.00,0.69
6446.00,0.69
6444.00,0.69
6442.00,0.69
6440.00,0.69
6438.00,0.69
6436.00,0.69
6434.00,0.69
6432.00,0.69
6430.00,0.69
6428.00,0.69
6426.00,0.69
6424.00,0.69
6422.00,0.69
6420.00,0.69
6418.00,0.69
6416.00,0.69
6414.00,0.69
6412.00,0.68
6410.00,0.68
6408.00,0.68
6406.00,0.68
6404.00,0.68
6402.00,0.69
6400.00,0.69
6398.00,0.69
6396.00,0.69
6394.00,0.69
6392.00,0.69
6390.00,0.69
6388.00,0.69
6386.00,0.69
6384.00,0.69
6382.00,0.69
6380.00,0.69
6378.00,0.69
6376.00,0.69
6374.00,0.69
6372.00,0.69
6370.00,0.69
6368.00,0.69
6366.00,0.69
6364.00,0.69
6362.00,0.69
6360.00,0.69
6358.00,0.69
6356.00,0.69
6354.00,0.69
6352.00,0.69
6350.00,0.69
6348.00,0.69
6346.00,0.69
6344.00,0.69
6342.00,0.69
6340.00,0.69
6338.00,0.69
6336.00,0.69
6334.00,0.69
6332.00,0.69
6330.00,0.69
6328.00,0.70
6326.00,0.70
6324.00,0.70
6322.00,0.70
6320.00,0.70
6318.00,0.70
6316.00,0.70
6314.00,0.70
6312.00,0.70
6310.00,0.70
6308.00,0.70
6306.00,0.70
6304.00,0.70
6302.00,0.70
6300.00,0.70
6298.00,0.70
6296.00,0.70
6294.00,0.70
6292.00,0.70
6290.00,0.70
6288.00,0.70
6286.00,0.70
6284.00,0.70
6282.00,0.70
6280.00,0.70
6278.00,0.70
6276.00,0.70
6274.00,0.70
6272.00,0.70
6270.00,0.70
6268.00,0.70
6266.00,0.70
6264.00,0.70
6262.00,0.70
6260.00,0.70
6258.00,0.70
6256.00,0.70
6254.00,0.70
6252.00,0.70
6250.00,0.70
6248.00,0.70
6246.00,0.70
6244.00,0.70
6242.00,0.70
6240.00,0.70
6238.00,0.70
6236.00,0.70
6234.00,0.71
6232.00,0.71
6230.00,0.71
6228.00,0.71
6226.00,0.71
6224.00,0.71
6222.00,0.71
6220.00,0.71
6218.00,0.71
6216.00,0.71
6214.00,0.71
6212.00,0.71
6210.00,0.71
6208.00,0.71
6206.00,0.71
6204.00,0.71
6202.00,0.71
6200.00,0.71
6198.00,0.71
6196.00,0.71
6194.00,0.71
6192.00,0.71
6190.00,0.71
6188.00,0.71
6186.00,0.70
6184.00,0.70
6182.00,0.70
6180.00,0.70
6178.00,0.71
6176.00,0.71
6174.00,0.71
6172.00,0.71
6170.00,0.71
6168.00,0.71
6166.00,0.71
6164.00,0.71
6162.00,0.71
6160.00,0.72
6158.00,0.72
6156.00,0.72
6154.00,0.72
6152.00,0.72
6150.00,0.72
6148.00,0.71
6146.00,0.71
6144.00,0.71
6142.00,0.71
6140.00,0.71
6138.00,0.72
6136.00,0.72
6134.00,0.72
6132.00,0.72
6130.00,0.72
6128.00,0.72
6126.00,0.72
6124.00,0.72
6122.00,0.72
6120.00,0.72
6118.00,0.72
6116.00,0.72
6114.00,0.72
6112.00,0.72
6110.00,0.72
6108.00,0.72
6106.00,0.72
6104.00,0.72
6102.00,0.72
6100.00,0.72
6098.00,0.72
6096.00,0.72
6094.00,0.72
6092.00,0.72
6090.00,0.72
6088.00,0.72
6086.00,0.72
6084.00,0.72
6082.00,0.72
6080.00,0.72
6078.00,0.72
6076.00,0.72
6074.00,0.72
6072.00,0.72
6070.00,0.72
6068.00,0.72
6066.00,0.72
6064.00,0.72
6062.00,0.72
6060.00,0.72
6058.00,0.72
6056.00,0.72
6054.00,0.72
6052.00,0.72
6050.00,0.72
6048.00,0.72
6046.00,0.72
6044.00,0.73
6042.00,0.73
6040.00,0.73
6038.00,0.73
6036.00,0.73
6034.00,0.73
6032.00,0.73
6030.00,0.73
6028.00,0.72
6026.00,0.72
6024.00,0.72
6022.00,0.72
6020.00,0.72
6018.00,0.72
6016.00,0.72
6014.00,0.72
6012.00,0.72
6010.00,0.72
6008.00,0.72
6006.00,0.72
6004.00,0.72
6002.00,0.72
6000.00,0.72
5998.00,0.72
5996.00,0.72
5994.00,0.72
5992.00,0.72
5990.00,0.72
5988.00,0.72
5986.00,0.72
5984.00,0.72
5982.00,0.72
5980.00,0.72
5978.00,0.72
5976.00,0.72
5974.00,0.72
5972.00,0.72
5970.00,0.71
5968.00,0.71
5966.00,0.71
5964.00,0.71
5962.00,0.71
5960.00,0.71
5958.00,0.71
5956.00,0.71
5954.00,0.71
5952.00,0.71
5950.00,0.71
5948.00,0.71
5946.00,0.71
5944.00,0.71
5942.00,0.71
5940.00,0.71
5938.00,0.71
5936.00,0.71
5934.00,0.71
5932.00,0.71
5930.00,0.71
5928.00,0.71
5926.00,0.71
5924.00,0.70
5922.00,0.70
5920.00,0.70
5918.00,0.70
5916.00,0.70
5914.00,0.70
5912.00,0.70
5910.00,0.70
5908.00,0.70
5906.00,0.70
5904.00,0.70
5902.00,0.70
5900.00,0.70
5898.00,0.70
5896.00,0.70
5894.00,0.70
5892.00,0.70
5890.00,0.70
5888.00,0.70
5886.00,0.70
5884.00,0.70
5882.00,0.70
5880.00,0.70
5878.00,0.70
5876.00,0.70
5874.00,0.70
5872.00,0.70
5870.00,0.70
5868.00,0.70
5866.00,0.70
5864.00,0.70
5862.00,0.70
5860.00,0.70
5858.00,0.70
5856.00,0.70
5854.00,0.70
5852.00,0.71
5850.00,0.71
5848.00,0.71
5846.00,0.71
5844.00,0.71
5842.00,0.71
5840.00,0.71
5838.00,0.71
5836.00,0.71
5834.00,0.71
5832.00,0.71
5830.00,0.71
5828.00,0.71
5826.00,0.71
5824.00,0.71
5822.00,0.71
5820.00,0.71
5818.00,0.71
5816.00,0.71
5814.00,0.71
5812.00,0.71
5810.00,0.71
5808.00,0.71
5806.00,0.71
5804.00,0.71
5802.00,0.70
5800.00,0.70
5798.00,0.70
5796.00,0.70
5794.00,0.70
5792.00,0.70
5790.00,0.70
5788.00,0.70
5786.00,0.70
5784.00,0.70
5782.00,0.70
5780.00,0.70
5778.00,0.70
5776.00,0.70
5774.00,0.70
5772.00,0.70
5770.00,0.70
5768.00,0.70
5766.00,0.70
5764.00,0.70
5762.00,0.71
5760.00,0.71
5758.00,0.71
5756.00,0.71
5754.00,0.71
5752.00,0.71
5750.00,0.71
5748.00,0.71
5746.00,0.71
5744.00,0.71
5742.00,0.71
5740.00,0.71
5738.00,0.71
5736.00,0.71
5734.00,0.72
5732.00,0.72
5730.00,0.72
5728.00,0.72
5726.00,0.72
5724.00,0.72
5722.00,0.72
5720.00,0.72
5718.00,0.72
5716.00,0.72
5714.00,0.72
5712.00,0.72
5710.00,0.72
5708.00,0.72
5706.00,0.72
5704.00,0.72
5702.00,0.72
5700.00,0.72
5698.00,0.72
5696.00,0.72
5694.00,0.72
5692.00,0.72
5690.00,0.72
5688.00,0.72
5686.00,0.71
5684.00,0.71
5682.00,0.71
5680.00,0.71
5678.00,0.71
5676.00,0.71
5674.00,0.71
5672.00,0.71
5670.00,0.71
5668.00,0.72
5666.00,0.72
5664.00,0.72
5662.00,0.72
5660.00,0.72
5658.00,0.72
5656.00,0.72
5654.00,0.72
5652.00,0.72
5650.00,0.72
5648.00,0.72
5646.00,0.72
5644.00,0.72
5642.00,0.72
5640.00,0.72
5638.00,0.72
5636.00,0.72
5634.00,0.72
5632.00,0.72
5630.00,0.72
5628.00,0.72
5626.00,0.72
5624.00,0.72
5622.00,0.72
5620.00,0.72
5618.00,0.72
5616.00,0.72
5614.00,0.73
5612.00,0.73
5610.00,0.73
5608.00,0.73
5606.00,0.73
5604.00,0.73
5602.00,0.73
5600.00,0.73
5598.00,0.73
5596.00,0.73
5594.00,0.73
5592.00,0.73
5590.00,0.73
5588.00,0.73
5586.00,0.73
5584.00,0.73
5582.00,0.73
5580.00,0.73
5578.00,0.73
5576.00,0.73
5574.00,0.73
5572.00,0.73
5570.00,0.74
5568.00,0.74
5566.00,0.74
5564.00,0.74
5562.00,0.74
5560.00,0.73
5558.00,0.73
5556.00,0.73
5554.00,0.74
5552.00,0.74
5550.00,0.74
5548.00,0.74
5546.00,0.74
5544.00,0.73
5542.00,0.73
5540.00,0.73
5538.00,0.73
5536.00,0.73
5534.00,0.73
5532.00,0.74
5530.00,0.74
5528.00,0.74
5526.00,0.74
5524.00,0.74
5522.00,0.74
5520.00,0.74
5518.00,0.74
5516.00,0.74
5514.00,0.74
5512.00,0.74
5510.00,0.74
5508.00,0.74
5506.00,0.74
5504.00,0.74
5502.00,0.74
5500.00,0.74
5498.00,0.74
5496.00,0.74
5494.00,0.74
5492.00,0.74
5490.00,0.74
5488.00,0.74
5486.00,0.74
5484.00,0.74
5482.00,0.74
5480.00,0.74
5478.00,0.74
5476.00,0.74
5474.00,0.74
5472.00,0.74
5470.00,0.74
5468.00,0.74
5466.00,0.74
5464.00,0.74
5462.00,0.74
5460.00,0.74
5458.00,0.74
5456.00,0.74
5454.00,0.74
5452.00,0.74
5450.00,0.74
5448.00,0.74
5446.00,0.74
5444.00,0.74
5442.00,0.74
5440.00,0.74
5438.00,0.74
5436.00,0.74
5434.00,0.74
5432.00,0.74
5430.00,0.74
5428.00,0.74
5426.00,0.74
5424.00,0.74
5422.00,0.74
5420.00,0.74
5418.00,0.74
5416.00,0.74
5414.00,0.74
5412.00,0.74
5410.00,0.74
5408.00,0.74
5406.00,0.74
5404.00,0.74
5402.00,0.74
5400.00,0.74
5398.00,0.74
5396.00,0.74
5394.00,0.74
5392.00,0.74
5390.00,0.74
5388.00,0.74
5386.00,0.74
5384.00,0.74
5382.00,0.74
5380.00,0.74
5378.00,0.74
5376.00,0.74
5374.00,0.74
5372.00,0.74
5370.00,0.74
5368.00,0.74
5366.00,0.74
5364.00,0.74
5362.00,0.74
5360.00,0.74
5358.00,0.74
5356.00,0.74
5354.00,0.74
5352.00,0.73
5350.00,0.73
5348.00,0.73
5346.00,0.73
5344.00,0.73
5342.00,0.73
5340.00,0.72
5338.00,0.72
5336.00,0.72
5334.00,0.72
5332.00,0.72
5330.00,0.72
5328.00,0.72
5326.00,0.72
5324.00,0.72
5322.00,0.71
5320.00,0.71
5318.00,0.71
5316.00,0.71
5314.00,0.71
5312.00,0.70
5310.00,0.70
5308.00,0.70
5306.00,0.70
5304.00,0.69
5302.00,0.69
5300.00,0.69
5298.00,0.69
5296.00,0.68
5294.00,0.68
5292.00,0.68
5290.00,0.68
5288.00,0.68
5286.00,0.68
5284.00,0.67
5282.00,0.67
5280.00,0.67
5278.00,0.67
5276.00,0.67
5274.00,0.67
5272.00,0.66
5270.00,0.66
5268.00,0.66
5266.00,0.66
5264.00,0.66
5262.00,0.65
5260.00,0.65
5258.00,0.65
5256.00,0.65
5254.00,0.65
5252.00,0.65
5250.00,0.65
5248.00,0.65
5246.00,0.64
5244.00,0.64
5242.00,0.64
5240.00,0.64
5238.00,0.64
5236.00,0.64
5234.00,0.64
5232.00,0.64
5230.00,0.63
5228.00,0.63
5226.00,0.63
5224.00,0.63
5222.00,0.63
5220.00,0.63
5218.00,0.63
5216.00,0.63
5214.00,0.62
5212.00,0.62
5210.00,0.62
5208.00,0.62
5206.00,0.62
5204.00,0.62
5202.00,0.62
5200.00,0.62
5198.00,0.62
5196.00,0.62
5194.00,0.62
5192.00,0.62
5190.00,0.62
5188.00,0.62
5186.00,0.62
5184.00,0.62
5182.00,0.62
5180.00,0.62
5178.00,0.61
5176.00,0.61
5174.00,0.61
5172.00,0.61
5170.00,0.61
5168.00,0.61
5166.00,0.61
5164.00,0.61
5162.00,0.61
5160.00,0.61
5158.00,0.61
5156.00,0.61
5154.00,0.62
5152.00,0.62
5150.00,0.62
5148.00,0.62
5146.00,0.62
5144.00,0.62
5142.00,0.62
5140.00,0.63
5138.00,0.63
5136.00,0.63
5134.00,0.63
5132.00,0.63
5130.00,0.63
5128.00,0.63
5126.00,0.63
5124.00,0.63
5122.00,0.63
5120.00,0.63
5118.00,0.63
5116.00,0.63
5114.00,0.64
5112.00,0.64
5110.00,0.64
5108.00,0.64
5106.00,0.64
5104.00,0.64
5102.00,0.64
5100.00,0.64
5098.00,0.64
5096.00,0.64
5094.00,0.64
5092.00,0.64
5090.00,0.65
5088.00,0.65
5086.00,0.65
5084.00,0.65
5082.00,0.65
5080.00,0.65
5078.00,0.65
5076.00,0.65
5074.00,0.65
5072.00,0.65
5070.00,0.65
5068.00,0.66
5066.00,0.66
5064.00,0.66
5062.00,0.66
5060.00,0.66
5058.00,0.66
5056.00,0.66
5054.00,0.66
5052.00,0.67
5050.00,0.67
5048.00,0.67
5046.00,0.67
5044.00,0.67
5042.00,0.67
5040.00,0.67
5038.00,0.67
5036.00,0.67
5034.00,0.67
5032.00,0.67
5030.00,0.67
5028.00,0.67
5026.00,0.67
5024.00,0.67
5022.00,0.67
5020.00,0.67
5018.00,0.68
5016.00,0.68
5014.00,0.68
5012.00,0.68
5010.00,0.68
5008.00,0.68
5006.00,0.68
5004.00,0.68
5002.00,0.68
5000.00,0.68
4998.00,0.68
4996.00,0.68
4994.00,0.69
4992.00,0.69
4990.00,0.69
4988.00,0.69
4986.00,0.69
4984.00,0.69
4982.00,0.69
4980.00,0.69
4978.00,0.69
4976.00,0.69
4974.00,0.69
4972.00,0.69
4970.00,0.69
4968.00,0.69
4966.00,0.69
4964.00,0.69
4962.00,0.69
4960.00,0.70
4958.00,0.70
4956.00,0.70
4954.00,0.70
4952.00,0.70
4950.00,0.70
4948.00,0.70
4946.00,0.70
4944.00,0.70
4942.00,0.70
4940.00,0.70
4938.00,0.70
4936.00,0.70
4934.00,0.70
4932.00,0.70
4930.00,0.70
4928.00,0.70
4926.00,0.70
4924.00,0.70
4922.00,0.71
4920.00,0.71
4918.00,0.71
4916.00,0.71
4914.00,0.71
4912.00,0.71
4910.00,0.71
4908.00,0.71
4906.00,0.71
4904.00,0.71
4902.00,0.71
4900.00,0.71
4898.00,0.71
4896.00,0.71
4894.00,0.71
4892.00,0.71
4890.00,0.71
4888.00,0.71
4886.00,0.71
4884.00,0.71
4882.00,0.71
4880.00,0.71
4878.00,0.71
4876.00,0.71
4874.00,0.71
4872.00,0.70
4870.00,0.70
4868.00,0.70
4866.00,0.70
4864.00,0.70
4862.00,0.70
4860.00,0.71
4858.00,0.71
4856.00,0.71
4854.00,0.71
4852.00,0.71
4850.00,0.71
4848.00,0.71
4846.00,0.70
4844.00,0.70
4842.00,0.70
4840.00,0.70
4838.00,0.70
4836.00,0.70
4834.00,0.70
4832.00,0.70
4830.00,0.71
4828.00,0.71
4826.00,0.71
4824.00,0.71
4822.00,0.71
4820.00,0.71
4818.00,0.71
4816.00,0.71
4814.00,0.71
4812.00,0.71
4810.00,0.71
4808.00,0.71
4806.00,0.71
4804.00,0.71
4802.00,0.71
4800.00,0.71
4798.00,0.71
4796.00,0.71
4794.00,0.71
4792.00,0.71
4790.00,0.71
4788.00,0.71
4786.00,0.71
4784.00,0.71
4782.00,0.72
4780.00,0.72
4778.00,0.72
4776.00,0.72
4774.00,0.72
4772.00,0.72
4770.00,0.72
4768.00,0.72
4766.00,0.72
4764.00,0.72
4762.00,0.72
4760.00,0.72
4758.00,0.72
4756.00,0.72
4754.00,0.72
4752.00,0.72
4750.00,0.72
4748.00,0.72
4746.00,0.72
4744.00,0.72
4742.00,0.72
4740.00,0.73
4738.00,0.73
4736.00,0.73
4734.00,0.73
4732.00,0.73
4730.00,0.73
4728.00,0.73
4726.00,0.73
4724.00,0.73
4722.00,0.73
4720.00,0.73
4718.00,0.73
4716.00,0.73
4714.00,0.73
4712.00,0.73
4710.00,0.73
4708.00,0.73
4706.00,0.73
4704.00,0.73
4702.00,0.73
4700.00,0.73
4698.00,0.73
4696.00,0.73
4694.00,0.73
4692.00,0.73
4690.00,0.73
4688.00,0.74
4686.00,0.74
4684.00,0.74
4682.00,0.74
4680.00,0.74
4678.00,0.74
4676.00,0.74
4674.00,0.74
4672.00,0.74
4670.00,0.74
4668.00,0.74
4666.00,0.74
4664.00,0.74
4662.00,0.74
4660.00,0.74
4658.00,0.74
4656.00,0.74
4654.00,0.74
4652.00,0.74
4650.00,0.74
4648.00,0.74
4646.00,0.74
4644.00,0.74
4642.00,0.74
4640.00,0.74
4638.00,0.74
4636.00,0.74
4634.00,0.74
4632.00,0.74
4630.00,0.74
4628.00,0.74
4626.00,0.74
4624.00,0.74
4622.00,0.74
4620.00,0.74
4618.00,0.74
4616.00,0.74
4614.00,0.74
4612.00,0.74
4610.00,0.74
4608.00,0.74
4606.00,0.74
4604.00,0.74
4602.00,0.74
4600.00,0.74
4598.00,0.74
4596.00,0.74
4594.00,0.74
4592.00,0.74
4590.00,0.74
4588.00,0.74
4586.00,0.74
4584.00,0.74
4582.00,0.74
4580.00,0.74
4578.00,0.74
4576.00,0.74
4574.00,0.74
4572.00,0.74
4570.00,0.74
4568.00,0.74
4566.00,0.74
4564.00,0.74
4562.00,0.74
4560.00,0.74
4558.00,0.74
4556.00,0.74
4554.00,0.74
4552.00,0.74
4550.00,0.74
4548.00,0.74
4546.00,0.74
4544.00,0.74
4542.00,0.74
4540.00,0.74
4538.00,0.74
4536.00,0.74
4534.00,0.74
4532.00,0.74
4530.00,0.74
4528.00,0.74
4526.00,0.74
4524.00,0.74
4522.00,0.74
4520.00,0.74
4518.00,0.74
4516.00,0.74
4514.00,0.74
4512.00,0.74
4510.00,0.74
4508.00,0.74
4506.00,0.74
4504.00,0.74
4502.00,0.74
4500.00,0.74
4498.00,0.74
4496.00,0.74
4494.00,0.74
4492.00,0.74
4490.00,0.74
4488.00,0.74
4486.00,0.74
4484.00,0.74
4482.00,0.74
4480.00,0.74
4478.00,0.74
4476.00,0.74
4474.00,0.74
4472.00,0.74
4470.00,0.74
4468.00,0.74
4466.00,0.74
4464.00,0.74
4462.00,0.74
4460.00,0.73
4458.00,0.73
4456.00,0.73
4454.00,0.73
4452.00,0.73
4450.00,0.73
4448.00,0.73
4446.00,0.73
4444.00,0.73
4442.00,0.72
4440.00,0.72
4438.00,0.72
4436.00,0.71
4434.00,0.71
4432.00,0.71
4430.00,0.70
4428.00,0.70
4426.00,0.70
4424.00,0.69
4422.00,0.69
4420.00,0.69
4418.00,0.68
4416.00,0.68
4414.00,0.68
4412.00,0.68
4410.00,0.68
4408.00,0.68
4406.00,0.68
4404.00,0.68
4402.00,0.68
4400.00,0.68
4398.00,0.68
4396.00,0.68
4394.00,0.68
4392.00,0.69
4390.00,0.69
4388.00,0.69
4386.00,0.69
4384.00,0.69
4382.00,0.70
4380.00,0.70
4378.00,0.70
4376.00,0.70
4374.00,0.70
4372.00,0.70
4370.00,0.70
4368.00,0.70
4366.00,0.70
4364.00,0.70
4362.00,0.70
4360.00,0.70
4358.00,0.70
4356.00,0.70
4354.00,0.70
4352.00,0.69
4350.00,0.69
4348.00,0.69
4346.00,0.69
4344.00,0.68
4342.00,0.68
4340.00,0.68
4338.00,0.68
4336.00,0.68
4334.00,0.69
4332.00,0.69
4330.00,0.69
4328.00,0.69
4326.00,0.70
4324.00,0.70
4322.00,0.70
4320.00,0.71
4318.00,0.71
4316.00,0.71
4314.00,0.71
4312.00,0.72
4310.00,0.72
4308.00,0.72
4306.00,0.72
4304.00,0.72
4302.00,0.73
4300.00,0.73
4298.00,0.73
4296.00,0.73
4294.00,0.73
4292.00,0.73
4290.00,0.73
4288.00,0.73
4286.00,0.73
4284.00,0.74
4282.00,0.74
4280.00,0.74
4278.00,0.74
4276.00,0.74
4274.00,0.74
4272.00,0.74
4270.00,0.74
4268.00,0.73
4266.00,0.73
4264.00,0.73
4262.00,0.73
4260.00,0.73
4258.00,0.72
4256.00,0.72
4254.00,0.72
4252.00,0.72
4250.00,0.72
4248.00,0.73
4246.00,0.73
4244.00,0.73
4242.00,0.73
4240.00,0.73
4238.00,0.73
4236.00,0.74
4234.00,0.74
4232.00,0.74
4230.00,0.74
4228.00,0.74
4226.00,0.74
4224.00,0.74
4222.00,0.74
4220.00,0.74
4218.00,0.74
4216.00,0.74
4214.00,0.74
4212.00,0.74
4210.00,0.74
4208.00,0.74
4206.00,0.74
4204.00,0.74
4202.00,0.74
4200.00,0.74
4198.00,0.74
4196.00,0.74
4194.00,0.74
4192.00,0.74
4190.00,0.74
4188.00,0.74
4186.00,0.74
4184.00,0.74
4182.00,0.74
4180.00,0.74
4178.00,0.74
4176.00,0.74
4174.00,0.74
4172.00,0.74
4170.00,0.74
4168.00,0.74
4166.00,0.74
4164.00,0.74
4162.00,0.74
4160.00,0.74
4158.00,0.74
4156.00,0.74
4154.00,0.74
4152.00,0.74
4150.00,0.74
4148.00,0.74
4146.00,0.74
4144.00,0.74
4142.00,0.74
4140.00,0.74
4138.00,0.74
4136.00,0.74
4134.00,0.74
4132.00,0.74
4130.00,0.74
4128.00,0.74
4126.00,0.74
4124.00,0.74
4122.00,0.74
4120.00,0.74
4118.00,0.74
4116.00,0.74
4114.00,0.74
4112.00,0.74
4110.00,0.74
4108.00,0.74
4106.00,0.74
4104.00,0.74
4102.00,0.74
4100.00,0.74
4098.00,0.74
4096.00,0.74
4094.00,0.74
4092.00,0.74
4090.00,0.74
4088.00,0.74
4086.00,0.74
4084.00,0.74
4082.00,0.74
4080.00,0.73
4078.00,0.73
4076.00,0.73
4074.00,0.72
4072.00,0.72
4070.00,0.72
4068.00,0.72
4066.00,0.72
4064.00,0.72
4062.00,0.72
4060.00,0.72
4058.00,0.72
4056.00,0.72
4054.00,0.72
4052.00,0.72
4050.00,0.72
4048.00,0.72
4046.00,0.72
4044.00,0.73
4042.00,0.73
4040.00,0.73
4038.00,0.73
4036.00,0.73
4034.00,0.73
4032.00,0.73
4030.00,0.73
4028.00,0.73
4026.00,0.73
4024.00,0.73
4022.00,0.74
4020.00,0.74
4018.00,0.74
4016.00,0.74
4014.00,0.74
4012.00,0.74
4010.00,0.74
4008.00,0.74
4006.00,0.74
4004.00,0.74
4002.00,0.74
4000.00,0.74
