创建为新数据集,样品 1599 用户 Administrator 日期 星期日, 三月 12 2017
cm-1,%T
10000.00,0.79
9998.00,0.79
9996.00,0.78
9994.00,0.78
9992.00,0.78
9990.00,0.77
9988.00,0.77
9986.00,0.77
9984.00,0.78
9982.00,0.78
9980.00,0.79
9978.00,0.80
9976.00,0.81
9974.00,0.81
9972.00,0.82
9970.00,0.82
9968.00,0.82
9966.00,0.82
9964.00,0.82
9962.00,0.81
9960.00,0.81
9958.00,0.80
9956.00,0.80
9954.00,0.80
9952.00,0.79
9950.00,0.79
9948.00,0.79
9946.00,0.79
9944.00,0.79
9942.00,0.78
9940.00,0.78
9938.00,0.78
9936.00,0.77
9934.00,0.77
9932.00,0.76
9930.00,0.76
9928.00,0.76
9926.00,0.77
9924.00,0.77
9922.00,0.78
9920.00,0.78
9918.00,0.79
9916.00,0.80
9914.00,0.80
9912.00,0.80
9910.00,0.81
9908.00,0.81
9906.00,0.81
9904.00,0.82
9902.00,0.82
9900.00,0.82
9898.00,0.81
9896.00,0.81
9894.00,0.80
9892.00,0.80
9890.00,0.79
9888.00,0.79
9886.00,0.79
9884.00,0.79
9882.00,0.79
9880.00,0.79
9878.00,0.79
9876.00,0.79
9874.00,0.79
9872.00,0.78
9870.00,0.78
9868.00,0.78
9866.00,0.79
9864.00,0.79
9862.00,0.79
9860.00,0.80
9858.00,0.80
9856.00,0.81
9854.00,0.81
9852.00,0.81
9850.00,0.82
9848.00,0.82
9846.00,0.82
9844.00,0.82
9842.00,0.82
9840.00,0.82
9838.00,0.82
9836.00,0.82
9834.00,0.81
9832.00,0.81
9830.00,0.80
9828.00,0.80
9826.00,0.79
9824.00,0.79
9822.00,0.79
9820.00,0.79
9818.00,0.79
9816.00,0.79
9814.00,0.80
9812.00,0.80
9810.00,0.81
9808.00,0.81
9806.00,0.81
9804.00,0.81
9802.00,0.81
9800.00,0.80
9798.00,0.80
9796.00,0.79
9794.00,0.78
9792.00,0.78
9790.00,0.78
9788.00,0.78
9786.00,0.78
9784.00,0.78
9782.00,0.79
9780.00,0.79
9778.00,0.79
9776.00,0.79
9774.00,0.79
9772.00,0.79
9770.00,0.78
9768.00,0.78
9766.00,0.78
9764.00,0.78
9762.00,0.78
9760.00,0.78
9758.00,0.78
9756.00,0.79
9754.00,0.79
9752.00,0.79
9750.00,0.78
9748.00,0.78
9746.00,0.78
9744.00,0.77
9742.00,0.76
9740.00,0.76
9738.00,0.76
9736.00,0.75
9734.00,0.75
9732.00,0.75
9730.00,0.75
9728.00,0.76
9726.00,0.76
9724.00,0.76
9722.00,0.77
9720.00,0.77
9718.00,0.77
9716.00,0.77
9714.00,0.77
9712.00,0.77
9710.00,0.77
9708.00,0.77
9706.00,0.77
9704.00,0.77
9702.00,0.77
9700.00,0.77
9698.00,0.77
9696.00,0.77
9694.00,0.78
9692.00,0.78
9690.00,0.78
9688.00,0.78
9686.00,0.78
9684.00,0.78
9682.00,0.77
9680.00,0.77
9678.00,0.77
9676.00,0.77
9674.00,0.76
9672.00,0.76
9670.00,0.77
9668.00,0.77
9666.00,0.77
9664.00,0.77
9662.00,0.77
9660.00,0.78
9658.00,0.78
9656.00,0.78
9654.00,0.78
9652.00,0.79
9650.00,0.79
9648.00,0.79
9646.00,0.79
9644.00,0.79
9642.00,0.79
9640.00,0.79
9638.00,0.79
9636.00,0.79
9634.00,0.79
9632.00,0.78
9630.00,0.78
9628.00,0.78
9626.00,0.77
9624.00,0.77
9622.00,0.76
9620.00,0.76
9618.00,0.76
9616.00,0.76
9614.00,0.77
9612.00,0.77
9610.00,0.77
9608.00,0.77
9606.00,0.78
9604.00,0.77
9602.00,0.77
9600.00,0.77
9598.00,0.77
9596.00,0.77
9594.00,0.77
9592.00,0.77
9590.00,0.77
9588.00,0.77
9586.00,0.78
9584.00,0.78
9582.00,0.78
9580.00,0.79
9578.00,0.79
9576.00,0.79
9574.00,0.80
9572.00,0.80
9570.00,0.80
9568.00,0.79
9566.00,0.79
9564.00,0.79
9562.00,0.79
9560.00,0.78
9558.00,0.78
9556.00,0.78
9554.00,0.77
9552.00,0.77
9550.00,0.77
9548.00,0.77
9546.00,0.77
9544.00,0.77
9542.00,0.77
9540.00,0.77
9538.00,0.77
9536.00,0.78
9534.00,0.78
9532.00,0.78
9530.00,0.78
9528.00,0.78
9526.00,0.78
9524.00,0.79
9522.00,0.79
9520.00,0.79
9518.00,0.79
9516.00,0.79
9514.00,0.79
9512.00,0.79
9510.00,0.79
9508.00,0.79
9506.00,0.79
9504.00,0.78
9502.00,0.78
9500.00,0.78
9498.00,0.78
9496.00,0.77
9494.00,0.77
9492.00,0.77
9490.00,0.77
9488.00,0.76
9486.00,0.76
9484.00,0.76
9482.00,0.76
9480.00,0.76
9478.00,0.76
9476.00,0.77
9474.00,0.76
9472.00,0.76
9470.00,0.76
9468.00,0.76
9466.00,0.76
9464.00,0.76
9462.00,0.76
9460.00,0.76
9458.00,0.77
9456.00,0.77
9454.00,0.77
9452.00,0.77
9450.00,0.77
9448.00,0.77
9446.00,0.77
9444.00,0.77
9442.00,0.76
9440.00,0.76
9438.00,0.76
9436.00,0.75
9434.00,0.75
9432.00,0.75
9430.00,0.75
9428.00,0.75
9426.00,0.75
9424.00,0.75
9422.00,0.76
9420.00,0.76
9418.00,0.77
9416.00,0.77
9414.00,0.77
9412.00,0.77
9410.00,0.77
9408.00,0.77
9406.00,0.78
9404.00,0.78
9402.00,0.78
9400.00,0.78
9398.00,0.78
9396.00,0.78
9394.00,0.78
9392.00,0.78
9390.00,0.78
9388.00,0.78
9386.00,0.78
9384.00,0.78
9382.00,0.78
9380.00,0.77
9378.00,0.77
9376.00,0.77
9374.00,0.77
9372.00,0.77
9370.00,0.77
9368.00,0.77
9366.00,0.77
9364.00,0.77
9362.00,0.77
9360.00,0.77
9358.00,0.77
9356.00,0.77
9354.00,0.77
9352.00,0.77
9350.00,0.77
9348.00,0.77
9346.00,0.77
9344.00,0.77
9342.00,0.77
9340.00,0.77
9338.00,0.77
9336.00,0.77
9334.00,0.77
9332.00,0.77
9330.00,0.77
9328.00,0.77
9326.00,0.77
9324.00,0.77
9322.00,0.77
9320.00,0.77
9318.00,0.77
9316.00,0.77
9314.00,0.77
9312.00,0.77
9310.00,0.77
9308.00,0.77
9306.00,0.78
9304.00,0.78
9302.00,0.78
9300.00,0.78
9298.00,0.78
9296.00,0.78
9294.00,0.77
9292.00,0.77
9290.00,0.77
9288.00,0.77
9286.00,0.77
9284.00,0.77
9282.00,0.76
9280.00,0.76
9278.00,0.76
9276.00,0.76
9274.00,0.75
9272.00,0.75
9270.00,0.75
9268.00,0.75
9266.00,0.76
9264.00,0.76
9262.00,0.77
9260.00,0.77
9258.00,0.77
9256.00,0.78
9254.00,0.78
9252.00,0.78
9250.00,0.78
9248.00,0.78
9246.00,0.78
9244.00,0.78
9242.00,0.78
9240.00,0.77
9238.00,0.77
9236.00,0.77
9234.00,0.77
9232.00,0.77
9230.00,0.78
9228.00,0.78
9226.00,0.78
9224.00,0.78
9222.00,0.78
9220.00,0.78
9218.00,0.78
9216.00,0.78
9214.00,0.78
9212.00,0.78
9210.00,0.79
9208.00,0.79
9206.00,0.79
9204.00,0.79
9202.00,0.79
9200.00,0.79
9198.00,0.79
9196.00,0.79
9194.00,0.78
9192.00,0.78
9190.00,0.78
9188.00,0.78
9186.00,0.79
9184.00,0.79
9182.00,0.79
9180.00,0.79
9178.00,0.79
9176.00,0.79
9174.00,0.78
9172.00,0.78
9170.00,0.78
9168.00,0.78
9166.00,0.77
9164.00,0.77
9162.00,0.76
9160.00,0.76
9158.00,0.76
9156.00,0.76
9154.00,0.76
9152.00,0.76
9150.00,0.76
9148.00,0.77
9146.00,0.77
9144.00,0.77
9142.00,0.77
9140.00,0.77
9138.00,0.77
9136.00,0.78
9134.00,0.78
9132.00,0.78
9130.00,0.78
9128.00,0.78
9126.00,0.78
9124.00,0.77
9122.00,0.77
9120.00,0.76
9118.00,0.76
9116.00,0.75
9114.00,0.75
9112.00,0.75
9110.00,0.75
9108.00,0.75
9106.00,0.75
9104.00,0.75
9102.00,0.75
9100.00,0.76
9098.00,0.76
9096.00,0.77
9094.00,0.77
9092.00,0.78
9090.00,0.78
9088.00,0.78
9086.00,0.78
9084.00,0.78
9082.00,0.78
9080.00,0.78
9078.00,0.78
9076.00,0.78
9074.00,0.78
9072.00,0.78
9070.00,0.78
9068.00,0.78
9066.00,0.77
9064.00,0.77
9062.00,0.77
9060.00,0.77
9058.00,0.77
9056.00,0.77
9054.00,0.77
9052.00,0.77
9050.00,0.77
9048.00,0.77
9046.00,0.76
9044.00,0.76
9042.00,0.76
9040.00,0.76
9038.00,0.76
9036.00,0.76
9034.00,0.76
9032.00,0.76
9030.00,0.76
9028.00,0.76
9026.00,0.77
9024.00,0.77
9022.00,0.77
9020.00,0.77
9018.00,0.77
9016.00,0.77
9014.00,0.77
9012.00,0.76
9010.00,0.76
9008.00,0.76
9006.00,0.76
9004.00,0.76
9002.00,0.76
9000.00,0.76
8998.00,0.76
8996.00,0.76
8994.00,0.76
8992.00,0.75
8990.00,0.75
8988.00,0.75
8986.00,0.75
8984.00,0.76
8982.00,0.76
8980.00,0.76
8978.00,0.76
8976.00,0.76
8974.00,0.76
8972.00,0.76
8970.00,0.76
8968.00,0.76
8966.00,0.76
8964.00,0.76
8962.00,0.77
8960.00,0.77
8958.00,0.77
8956.00,0.78
8954.00,0.78
8952.00,0.78
8950.00,0.78
8948.00,0.78
8946.00,0.78
8944.00,0.78
8942.00,0.78
8940.00,0.78
8938.00,0.78
8936.00,0.78
8934.00,0.78
8932.00,0.78
8930.00,0.78
8928.00,0.78
8926.00,0.78
8924.00,0.78
8922.00,0.78
8920.00,0.78
8918.00,0.78
8916.00,0.78
8914.00,0.78
8912.00,0.78
8910.00,0.78
8908.00,0.78
8906.00,0.78
8904.00,0.78
8902.00,0.78
8900.00,0.78
8898.00,0.78
8896.00,0.78
8894.00,0.78
8892.00,0.78
8890.00,0.78
8888.00,0.79
8886.00,0.79
8884.00,0.79
8882.00,0.79
8880.00,0.79
8878.00,0.79
8876.00,0.79
8874.00,0.79
8872.00,0.78
8870.00,0.78
8868.00,0.77
8866.00,0.77
8864.00,0.76
8862.00,0.76
8860.00,0.76
8858.00,0.76
8856.00,0.76
8854.00,0.76
8852.00,0.76
8850.00,0.76
8848.00,0.76
8846.00,0.76
8844.00,0.76
8842.00,0.76
8840.00,0.77
8838.00,0.77
8836.00,0.77
8834.00,0.77
8832.00,0.78
8830.00,0.78
8828.00,0.78
8826.00,0.78
8824.00,0.78
8822.00,0.79
8820.00,0.79
8818.00,0.79
8816.00,0.79
8814.00,0.79
8812.00,0.79
8810.00,0.79
8808.00,0.78
8806.00,0.78
8804.00,0.78
8802.00,0.78
8800.00,0.78
8798.00,0.78
8796.00,0.78
8794.00,0.78
8792.00,0.78
8790.00,0.78
8788.00,0.78
8786.00,0.78
8784.00,0.78
8782.00,0.78
8780.00,0.78
8778.00,0.78
8776.00,0.78
8774.00,0.78
8772.00,0.78
8770.00,0.78
8768.00,0.78
8766.00,0.78
8764.00,0.78
8762.00,0.78
8760.00,0.78
8758.00,0.77
8756.00,0.77
8754.00,0.77
8752.00,0.77
8750.00,0.76
8748.00,0.76
8746.00,0.76
8744.00,0.76
8742.00,0.76
8740.00,0.76
8738.00,0.76
8736.00,0.76
8734.00,0.77
8732.00,0.77
8730.00,0.77
8728.00,0.78
8726.00,0.78
8724.00,0.78
8722.00,0.78
8720.00,0.78
8718.00,0.78
8716.00,0.78
8714.00,0.77
8712.00,0.77
8710.00,0.76
8708.00,0.76
8706.00,0.76
8704.00,0.76
8702.00,0.76
8700.00,0.76
8698.00,0.76
8696.00,0.76
8694.00,0.76
8692.00,0.76
8690.00,0.76
8688.00,0.76
8686.00,0.77
8684.00,0.77
8682.00,0.77
8680.00,0.77
8678.00,0.76
8676.00,0.76
8674.00,0.76
8672.00,0.76
8670.00,0.76
8668.00,0.76
8666.00,0.76
8664.00,0.76
8662.00,0.76
8660.00,0.75
8658.00,0.75
8656.00,0.75
8654.00,0.75
8652.00,0.75
8650.00,0.75
8648.00,0.75
8646.00,0.76
8644.00,0.76
8642.00,0.76
8640.00,0.77
8638.00,0.77
8636.00,0.77
8634.00,0.77
8632.00,0.78
8630.00,0.78
8628.00,0.78
8626.00,0.78
8624.00,0.77
8622.00,0.77
8620.00,0.77
8618.00,0.76
8616.00,0.76
8614.00,0.76
8612.00,0.76
8610.00,0.76
8608.00,0.77
8606.00,0.77
8604.00,0.77
8602.00,0.77
8600.00,0.77
8598.00,0.77
8596.00,0.77
8594.00,0.77
8592.00,0.77
8590.00,0.77
8588.00,0.77
8586.00,0.77
8584.00,0.77
8582.00,0.77
8580.00,0.77
8578.00,0.77
8576.00,0.77
8574.00,0.77
8572.00,0.77
8570.00,0.77
8568.00,0.77
8566.00,0.77
8564.00,0.77
8562.00,0.77
8560.00,0.77
8558.00,0.77
8556.00,0.77
8554.00,0.76
8552.00,0.76
8550.00,0.76
8548.00,0.76
8546.00,0.76
8544.00,0.76
8542.00,0.76
8540.00,0.76
8538.00,0.76
8536.00,0.76
8534.00,0.76
8532.00,0.76
8530.00,0.76
8528.00,0.76
8526.00,0.76
8524.00,0.76
8522.00,0.76
8520.00,0.76
8518.00,0.76
8516.00,0.76
8514.00,0.77
8512.00,0.77
8510.00,0.77
8508.00,0.77
8506.00,0.77
8504.00,0.77
8502.00,0.76
8500.00,0.76
8498.00,0.76
8496.00,0.76
8494.00,0.76
8492.00,0.76
8490.00,0.77
8488.00,0.77
8486.00,0.77
8484.00,0.77
8482.00,0.78
8480.00,0.77
8478.00,0.77
8476.00,0.77
8474.00,0.77
8472.00,0.76
8470.00,0.76
8468.00,0.76
8466.00,0.76
8464.00,0.76
8462.00,0.76
8460.00,0.76
8458.00,0.76
8456.00,0.76
8454.00,0.76
8452.00,0.76
8450.00,0.76
8448.00,0.76
8446.00,0.76
8444.00,0.76
8442.00,0.76
8440.00,0.76
8438.00,0.76
8436.00,0.77
8434.00,0.77
8432.00,0.77
8430.00,0.77
8428.00,0.77
8426.00,0.77
8424.00,0.77
8422.00,0.77
8420.00,0.77
8418.00,0.77
8416.00,0.77
8414.00,0.77
8412.00,0.77
8410.00,0.77
8408.00,0.77
8406.00,0.77
8404.00,0.77
8402.00,0.77
8400.00,0.77
8398.00,0.77
8396.00,0.77
8394.00,0.77
8392.00,0.77
8390.00,0.77
8388.00,0.77
8386.00,0.77
8384.00,0.77
8382.00,0.77
8380.00,0.77
8378.00,0.77
8376.00,0.77
8374.00,0.77
8372.00,0.77
8370.00,0.77
8368.00,0.77
8366.00,0.77
8364.00,0.77
8362.00,0.77
8360.00,0.77
8358.00,0.76
8356.00,0.76
8354.00,0.76
8352.00,0.76
8350.00,0.76
8348.00,0.76
8346.00,0.76
8344.00,0.76
8342.00,0.77
8340.00,0.77
8338.00,0.77
8336.00,0.77
8334.00,0.77
8332.00,0.77
8330.00,0.77
8328.00,0.77
8326.00,0.77
8324.00,0.77
8322.00,0.77
8320.00,0.77
8318.00,0.77
8316.00,0.77
8314.00,0.77
8312.00,0.77
8310.00,0.77
8308.00,0.77
8306.00,0.77
8304.00,0.77
8302.00,0.77
8300.00,0.77
8298.00,0.77
8296.00,0.77
8294.00,0.78
8292.00,0.78
8290.00,0.78
8288.00,0.78
8286.00,0.78
8284.00,0.78
8282.00,0.78
8280.00,0.78
8278.00,0.77
8276.00,0.77
8274.00,0.77
8272.00,0.77
8270.00,0.77
8268.00,0.77
8266.00,0.78
8264.00,0.78
8262.00,0.78
8260.00,0.78
8258.00,0.78
8256.00,0.78
8254.00,0.78
8252.00,0.78
8250.00,0.77
8248.00,0.77
8246.00,0.76
8244.00,0.76
8242.00,0.76
8240.00,0.75
8238.00,0.75
8236.00,0.75
8234.00,0.75
8232.00,0.75
8230.00,0.76
8228.00,0.76
8226.00,0.76
8224.00,0.77
8222.00,0.77
8220.00,0.77
8218.00,0.77
8216.00,0.77
8214.00,0.77
8212.00,0.77
8210.00,0.77
8208.00,0.77
8206.00,0.77
8204.00,0.77
8202.00,0.77
8200.00,0.77
8198.00,0.77
8196.00,0.77
8194.00,0.77
8192.00,0.77
8190.00,0.77
8188.00,0.77
8186.00,0.77
8184.00,0.77
8182.00,0.77
8180.00,0.77
8178.00,0.77
8176.00,0.77
8174.00,0.77
8172.00,0.77
8170.00,0.77
8168.00,0.77
8166.00,0.77
8164.00,0.76
8162.00,0.76
8160.00,0.76
8158.00,0.76
8156.00,0.76
8154.00,0.76
8152.00,0.76
8150.00,0.76
8148.00,0.76
8146.00,0.76
8144.00,0.76
8142.00,0.76
8140.00,0.76
8138.00,0.76
8136.00,0.76
8134.00,0.76
8132.00,0.76
8130.00,0.77
8128.00,0.77
8126.00,0.77
8124.00,0.77
8122.00,0.77
8120.00,0.77
8118.00,0.77
8116.00,0.76
8114.00,0.76
8112.00,0.76
8110.00,0.76
8108.00,0.77
8106.00,0.77
8104.00,0.77
8102.00,0.77
8100.00,0.77
8098.00,0.77
8096.00,0.77
8094.00,0.77
8092.00,0.77
8090.00,0.77
8088.00,0.77
8086.00,0.77
8084.00,0.77
8082.00,0.77
8080.00,0.77
8078.00,0.77
8076.00,0.77
8074.00,0.77
8072.00,0.77
8070.00,0.77
8068.00,0.77
8066.00,0.76
8064.00,0.76
8062.00,0.77
8060.00,0.77
8058.00,0.77
8056.00,0.77
8054.00,0.77
8052.00,0.77
8050.00,0.77
8048.00,0.77
8046.00,0.77
8044.00,0.77
8042.00,0.77
8040.00,0.77
8038.00,0.77
8036.00,0.77
8034.00,0.77
8032.00,0.78
8030.00,0.78
8028.00,0.78
8026.00,0.78
8024.00,0.78
8022.00,0.78
8020.00,0.78
8018.00,0.78
8016.00,0.78
8014.00,0.78
8012.00,0.77
8010.00,0.77
8008.00,0.77
8006.00,0.77
8004.00,0.77
8002.00,0.77
8000.00,0.77
7998.00,0.78
7996.00,0.78
7994.00,0.78
7992.00,0.78
7990.00,0.78
7988.00,0.78
7986.00,0.78
7984.00,0.78
7982.00,0.77
7980.00,0.77
7978.00,0.77
7976.00,0.77
7974.00,0.77
7972.00,0.77
7970.00,0.77
7968.00,0.77
7966.00,0.77
7964.00,0.77
7962.00,0.77
7960.00,0.77
7958.00,0.78
7956.00,0.78
7954.00,0.78
7952.00,0.78
7950.00,0.78
7948.00,0.78
7946.00,0.78
7944.00,0.78
7942.00,0.78
7940.00,0.78
7938.00,0.78
7936.00,0.78
7934.00,0.77
7932.00,0.77
7930.00,0.77
7928.00,0.77
7926.00,0.77
7924.00,0.77
7922.00,0.77
7920.00,0.77
7918.00,0.77
7916.00,0.77
7914.00,0.76
7912.00,0.76
7910.00,0.76
7908.00,0.77
7906.00,0.77
7904.00,0.77
7902.00,0.77
7900.00,0.78
7898.00,0.78
7896.00,0.78
7894.00,0.79
7892.00,0.79
7890.00,0.79
7888.00,0.79
7886.00,0.79
7884.00,0.79
7882.00,0.79
7880.00,0.79
7878.00,0.78
7876.00,0.78
7874.00,0.78
7872.00,0.78
7870.00,0.78
7868.00,0.78
7866.00,0.78
7864.00,0.78
7862.00,0.78
7860.00,0.78
7858.00,0.78
7856.00,0.78
7854.00,0.78
7852.00,0.78
7850.00,0.78
7848.00,0.77
7846.00,0.77
7844.00,0.77
7842.00,0.77
7840.00,0.77
7838.00,0.77
7836.00,0.77
7834.00,0.77
7832.00,0.78
7830.00,0.78
7828.00,0.78
7826.00,0.78
7824.00,0.78
7822.00,0.78
7820.00,0.78
7818.00,0.78
7816.00,0.78
7814.00,0.78
7812.00,0.78
7810.00,0.78
7808.00,0.78
7806.00,0.78
7804.00,0.78
7802.00,0.78
7800.00,0.78
7798.00,0.78
7796.00,0.78
7794.00,0.78
7792.00,0.78
7790.00,0.78
7788.00,0.78
7786.00,0.78
7784.00,0.77
7782.00,0.77
7780.00,0.77
7778.00,0.77
7776.00,0.77
7774.00,0.77
7772.00,0.77
7770.00,0.77
7768.00,0.77
7766.00,0.77
7764.00,0.77
7762.00,0.77
7760.00,0.78
7758.00,0.78
7756.00,0.78
7754.00,0.78
7752.00,0.78
7750.00,0.78
7748.00,0.78
7746.00,0.78
7744.00,0.77
7742.00,0.77
7740.00,0.77
7738.00,0.77
7736.00,0.77
7734.00,0.77
7732.00,0.77
7730.00,0.77
7728.00,0.77
7726.00,0.77
7724.00,0.77
7722.00,0.77
7720.00,0.77
7718.00,0.77
7716.00,0.77
7714.00,0.77
7712.00,0.77
7710.00,0.77
7708.00,0.77
7706.00,0.77
7704.00,0.77
7702.00,0.77
7700.00,0.77
7698.00,0.77
7696.00,0.77
7694.00,0.77
7692.00,0.77
7690.00,0.77
7688.00,0.77
7686.00,0.77
7684.00,0.77
7682.00,0.77
7680.00,0.77
7678.00,0.77
7676.00,0.77
7674.00,0.77
7672.00,0.77
7670.00,0.77
7668.00,0.77
7666.00,0.77
7664.00,0.77
7662.00,0.77
7660.00,0.77
7658.00,0.77
7656.00,0.77
7654.00,0.77
7652.00,0.78
7650.00,0.78
7648.00,0.78
7646.00,0.78
7644.00,0.78
7642.00,0.78
7640.00,0.78
7638.00,0.78
7636.00,0.78
7634.00,0.78
7632.00,0.78
7630.00,0.78
7628.00,0.78
7626.00,0.78
7624.00,0.78
7622.00,0.78
7620.00,0.78
7618.00,0.78
7616.00,0.77
7614.00,0.77
7612.00,0.77
7610.00,0.77
7608.00,0.77
7606.00,0.77
7604.00,0.77
7602.00,0.77
7600.00,0.77
7598.00,0.77
7596.00,0.76
7594.00,0.76
7592.00,0.77
7590.00,0.77
7588.00,0.77
7586.00,0.77
7584.00,0.77
7582.00,0.78
7580.00,0.78
7578.00,0.78
7576.00,0.78
7574.00,0.78
7572.00,0.78
7570.00,0.78
7568.00,0.78
7566.00,0.78
7564.00,0.78
7562.00,0.78
7560.00,0.78
7558.00,0.78
7556.00,0.78
7554.00,0.78
7552.00,0.78
7550.00,0.78
7548.00,0.79
7546.00,0.79
7544.00,0.79
7542.00,0.79
7540.00,0.79
7538.00,0.79
7536.00,0.79
7534.00,0.78
7532.00,0.78
7530.00,0.78
7528.00,0.78
7526.00,0.78
7524.00,0.78
7522.00,0.78
7520.00,0.78
7518.00,0.78
7516.00,0.78
7514.00,0.78
7512.00,0.78
7510.00,0.78
7508.00,0.78
7506.00,0.78
7504.00,0.78
7502.00,0.78
7500.00,0.78
7498.00,0.77
7496.00,0.77
7494.00,0.77
7492.00,0.76
7490.00,0.76
7488.00,0.76
7486.00,0.76
7484.00,0.76
7482.00,0.76
7480.00,0.76
7478.00,0.77
7476.00,0.77
7474.00,0.77
7472.00,0.77
7470.00,0.77
7468.00,0.77
7466.00,0.77
7464.00,0.77
7462.00,0.77
7460.00,0.77
7458.00,0.77
7456.00,0.77
7454.00,0.77
7452.00,0.77
7450.00,0.77
7448.00,0.77
7446.00,0.77
7444.00,0.77
7442.00,0.78
7440.00,0.78
7438.00,0.78
7436.00,0.78
7434.00,0.78
7432.00,0.78
7430.00,0.77
7428.00,0.77
7426.00,0.77
7424.00,0.77
7422.00,0.77
7420.00,0.77
7418.00,0.77
7416.00,0.77
7414.00,0.77
7412.00,0.77
7410.00,0.77
7408.00,0.77
7406.00,0.77
7404.00,0.77
7402.00,0.77
7400.00,0.77
7398.00,0.77
7396.00,0.77
7394.00,0.77
7392.00,0.77
7390.00,0.77
7388.00,0.77
7386.00,0.77
7384.00,0.77
7382.00,0.77
7380.00,0.77
7378.00,0.76
7376.00,0.76
7374.00,0.76
7372.00,0.76
7370.00,0.76
7368.00,0.76
7366.00,0.76
7364.00,0.76
7362.00,0.76
7360.00,0.76
7358.00,0.76
7356.00,0.76
7354.00,0.76
7352.00,0.76
7350.00,0.76
7348.00,0.76
7346.00,0.76
7344.00,0.77
7342.00,0.77
7340.00,0.76
7338.00,0.76
7336.00,0.76
7334.00,0.76
7332.00,0.76
7330.00,0.76
7328.00,0.76
7326.00,0.77
7324.00,0.77
7322.00,0.77
7320.00,0.77
7318.00,0.77
7316.00,0.77
7314.00,0.77
7312.00,0.77
7310.00,0.76
7308.00,0.76
7306.00,0.76
7304.00,0.76
7302.00,0.76
7300.00,0.76
7298.00,0.76
7296.00,0.76
7294.00,0.76
7292.00,0.76
7290.00,0.76
7288.00,0.76
7286.00,0.76
7284.00,0.76
7282.00,0.76
7280.00,0.76
7278.00,0.76
7276.00,0.76
7274.00,0.76
7272.00,0.76
7270.00,0.76
7268.00,0.76
7266.00,0.76
7264.00,0.76
7262.00,0.76
7260.00,0.76
7258.00,0.76
7256.00,0.76
7254.00,0.76
7252.00,0.76
7250.00,0.76
7248.00,0.76
7246.00,0.76
7244.00,0.76
7242.00,0.76
7240.00,0.75
7238.00,0.75
7236.00,0.75
7234.00,0.75
7232.00,0.75
7230.00,0.75
7228.00,0.75
7226.00,0.75
7224.00,0.75
7222.00,0.75
7220.00,0.75
7218.00,0.76
7216.00,0.76
7214.00,0.76
7212.00,0.76
7210.00,0.76
7208.00,0.75
7206.00,0.75
7204.00,0.75
7202.00,0.75
7200.00,0.74
7198.00,0.74
7196.00,0.74
7194.00,0.74
7192.00,0.74
7190.00,0.74
7188.00,0.74
7186.00,0.74
7184.00,0.74
7182.00,0.74
7180.00,0.74
7178.00,0.74
7176.00,0.75
7174.00,0.75
7172.00,0.75
7170.00,0.75
7168.00,0.75
7166.00,0.75
7164.00,0.75
7162.00,0.75
7160.00,0.75
7158.00,0.74
7156.00,0.74
7154.00,0.74
7152.00,0.74
7150.00,0.74
7148.00,0.74
7146.00,0.74
7144.00,0.74
7142.00,0.74
7140.00,0.74
7138.00,0.74
7136.00,0.74
7134.00,0.74
7132.00,0.74
7130.00,0.74
7128.00,0.74
7126.00,0.74
7124.00,0.74
7122.00,0.74
7120.00,0.74
7118.00,0.74
7116.00,0.74
7114.00,0.74
7112.00,0.74
7110.00,0.74
7108.00,0.74
7106.00,0.74
7104.00,0.74
7102.00,0.74
7100.00,0.74
7098.00,0.74
7096.00,0.74
7094.00,0.73
7092.00,0.73
7090.00,0.73
7088.00,0.73
7086.00,0.73
7084.00,0.73
7082.00,0.73
7080.00,0.73
7078.00,0.73
7076.00,0.73
7074.00,0.73
7072.00,0.73
7070.00,0.73
7068.00,0.73
7066.00,0.73
7064.00,0.73
7062.00,0.73
7060.00,0.73
7058.00,0.73
7056.00,0.74
7054.00,0.74
7052.00,0.74
7050.00,0.74
7048.00,0.74
7046.00,0.74
7044.00,0.74
7042.00,0.73
7040.00,0.73
7038.00,0.73
7036.00,0.73
7034.00,0.73
7032.00,0.73
7030.00,0.73
7028.00,0.73
7026.00,0.73
7024.00,0.73
7022.00,0.73
7020.00,0.73
7018.00,0.73
7016.00,0.73
7014.00,0.73
7012.00,0.73
7010.00,0.73
7008.00,0.73
7006.00,0.73
7004.00,0.73
7002.00,0.73
7000.00,0.73
6998.00,0.73
6996.00,0.73
6994.00,0.73
6992.00,0.73
6990.00,0.73
6988.00,0.73
6986.00,0.73
6984.00,0.73
6982.00,0.73
6980.00,0.73
6978.00,0.73
6976.00,0.73
6974.00,0.73
6972.00,0.73
6970.00,0.73
6968.00,0.73
6966.00,0.73
6964.00,0.73
6962.00,0.73
6960.00,0.73
6958.00,0.73
6956.00,0.73
6954.00,0.73
6952.00,0.73
6950.00,0.73
6948.00,0.73
6946.00,0.73
6944.00,0.72
6942.00,0.72
6940.00,0.72
6938.00,0.72
6936.00,0.72
6934.00,0.72
6932.00,0.72
6930.00,0.72
6928.00,0.72
6926.00,0.72
6924.00,0.72
6922.00,0.72
6920.00,0.72
6918.00,0.73
6916.00,0.73
6914.00,0.73
6912.00,0.73
6910.00,0.73
6908.00,0.73
6906.00,0.73
6904.00,0.73
6902.00,0.73
6900.00,0.73
6898.00,0.73
6896.00,0.73
6894.00,0.73
6892.00,0.73
6890.00,0.73
6888.00,0.73
6886.00,0.73
6884.00,0.73
6882.00,0.73
6880.00,0.73
6878.00,0.73
6876.00,0.73
6874.00,0.73
6872.00,0.73
6870.00,0.73
6868.00,0.73
6866.00,0.73
6864.00,0.73
6862.00,0.73
6860.00,0.73
6858.00,0.73
6856.00,0.73
6854.00,0.73
6852.00,0.73
6850.00,0.72
6848.00,0.72
6846.00,0.72
6844.00,0.72
6842.00,0.72
6840.00,0.72
6838.00,0.72
6836.00,0.72
6834.00,0.72
6832.00,0.72
6830.00,0.72
6828.00,0.72
6826.00,0.72
6824.00,0.72
6822.00,0.72
6820.00,0.72
6818.00,0.72
6816.00,0.72
6814.00,0.72
6812.00,0.73
6810.00,0.73
6808.00,0.73
6806.00,0.73
6804.00,0.73
6802.00,0.72
6800.00,0.72
6798.00,0.72
6796.00,0.72
6794.00,0.72
6792.00,0.72
6790.00,0.72
6788.00,0.72
6786.00,0.72
6784.00,0.72
6782.00,0.72
6780.00,0.73
6778.00,0.73
6776.00,0.73
6774.00,0.73
6772.00,0.73
6770.00,0.73
6768.00,0.73
6766.00,0.73
6764.00,0.73
6762.00,0.73
6760.00,0.73
6758.00,0.73
6756.00,0.73
6754.00,0.73
6752.00,0.74
6750.00,0.74
6748.00,0.74
6746.00,0.74
6744.00,0.74
6742.00,0.73
6740.00,0.73
6738.00,0.73
6736.00,0.73
6734.00,0.73
6732.00,0.73
6730.00,0.73
6728.00,0.73
6726.00,0.73
6724.00,0.73
6722.00,0.73
6720.00,0.73
6718.00,0.73
6716.00,0.73
6714.00,0.74
6712.00,0.74
6710.00,0.74
6708.00,0.74
6706.00,0.74
6704.00,0.74
6702.00,0.74
6700.00,0.74
6698.00,0.74
6696.00,0.74
6694.00,0.74
6692.00,0.74
6690.00,0.74
6688.00,0.74
6686.00,0.74
6684.00,0.74
6682.00,0.73
6680.00,0.73
6678.00,0.73
6676.00,0.73
6674.00,0.73
6672.00,0.73
6670.00,0.73
6668.00,0.73
6666.00,0.73
6664.00,0.73
6662.00,0.74
6660.00,0.74
6658.00,0.74
6656.00,0.74
6654.00,0.74
6652.00,0.74
6650.00,0.74
6648.00,0.74
6646.00,0.74
6644.00,0.74
6642.00,0.74
6640.00,0.74
6638.00,0.74
6636.00,0.74
6634.00,0.74
6632.00,0.74
6630.00,0.74
6628.00,0.74
6626.00,0.74
6624.00,0.74
6622.00,0.74
6620.00,0.74
6618.00,0.74
6616.00,0.74
6614.00,0.74
6612.00,0.74
6610.00,0.74
6608.00,0.74
6606.00,0.74
6604.00,0.74
6602.00,0.74
6600.00,0.74
6598.00,0.75
6596.00,0.75
6594.00,0.75
6592.00,0.75
6590.00,0.75
6588.00,0.75
6586.00,0.75
6584.00,0.75
6582.00,0.75
6580.00,0.75
6578.00,0.75
6576.00,0.75
6574.00,0.75
6572.00,0.75
6570.00,0.75
6568.00,0.74
6566.00,0.74
6564.00,0.74
6562.00,0.74
6560.00,0.74
6558.00,0.74
6556.00,0.74
6554.00,0.74
6552.00,0.74
6550.00,0.74
6548.00,0.74
6546.00,0.74
6544.00,0.74
6542.00,0.75
6540.00,0.75
6538.00,0.75
6536.00,0.75
6534.00,0.75
6532.00,0.75
6530.00,0.75
6528.00,0.75
6526.00,0.75
6524.00,0.75
6522.00,0.75
6520.00,0.75
6518.00,0.75
6516.00,0.75
6514.00,0.75
6512.00,0.75
6510.00,0.75
6508.00,0.75
6506.00,0.75
6504.00,0.75
6502.00,0.75
6500.00,0.75
6498.00,0.75
6496.00,0.74
6494.00,0.74
6492.00,0.75
6490.00,0.75
6488.00,0.75
6486.00,0.75
6484.00,0.75
6482.00,0.75
6480.00,0.75
6478.00,0.75
6476.00,0.75
6474.00,0.75
6472.00,0.75
6470.00,0.75
6468.00,0.75
6466.00,0.75
6464.00,0.75
6462.00,0.75
6460.00,0.75
6458.00,0.75
6456.00,0.75
6454.00,0.75
6452.00,0.75
6450.00,0.76
6448.00,0.76
6446.00,0.76
6444.00,0.76
6442.00,0.76
6440.00,0.76
6438.00,0.76
6436.00,0.76
6434.00,0.76
6432.00,0.76
6430.00,0.76
6428.00,0.75
6426.00,0.75
6424.00,0.75
6422.00,0.75
6420.00,0.75
6418.00,0.75
6416.00,0.75
6414.00,0.75
6412.00,0.75
6410.00,0.75
6408.00,0.75
6406.00,0.75
6404.00,0.75
6402.00,0.75
6400.00,0.75
6398.00,0.75
6396.00,0.75
6394.00,0.75
6392.00,0.75
6390.00,0.75
6388.00,0.75
6386.00,0.75
6384.00,0.75
6382.00,0.75
6380.00,0.75
6378.00,0.75
6376.00,0.75
6374.00,0.75
6372.00,0.75
6370.00,0.75
6368.00,0.75
6366.00,0.75
6364.00,0.75
6362.00,0.75
6360.00,0.75
6358.00,0.75
6356.00,0.75
6354.00,0.75
6352.00,0.75
6350.00,0.75
6348.00,0.75
6346.00,0.75
6344.00,0.75
6342.00,0.75
6340.00,0.75
6338.00,0.75
6336.00,0.75
6334.00,0.75
6332.00,0.75
6330.00,0.75
6328.00,0.75
6326.00,0.75
6324.00,0.75
6322.00,0.75
6320.00,0.76
6318.00,0.76
6316.00,0.76
6314.00,0.76
6312.00,0.76
6310.00,0.76
6308.00,0.76
6306.00,0.76
6304.00,0.75
6302.00,0.75
6300.00,0.75
6298.00,0.75
6296.00,0.75
6294.00,0.75
6292.00,0.75
6290.00,0.75
6288.00,0.75
6286.00,0.75
6284.00,0.75
6282.00,0.75
6280.00,0.75
6278.00,0.75
6276.00,0.76
6274.00,0.76
6272.00,0.76
6270.00,0.76
6268.00,0.76
6266.00,0.76
6264.00,0.76
6262.00,0.76
6260.00,0.76
6258.00,0.76
6256.00,0.76
6254.00,0.76
6252.00,0.76
6250.00,0.76
6248.00,0.76
6246.00,0.76
6244.00,0.76
6242.00,0.76
6240.00,0.76
6238.00,0.76
6236.00,0.76
6234.00,0.76
6232.00,0.76
6230.00,0.76
6228.00,0.76
6226.00,0.76
6224.00,0.76
6222.00,0.76
6220.00,0.76
6218.00,0.76
6216.00,0.76
6214.00,0.76
6212.00,0.76
6210.00,0.76
6208.00,0.76
6206.00,0.76
6204.00,0.76
6202.00,0.76
6200.00,0.77
6198.00,0.77
6196.00,0.77
6194.00,0.77
6192.00,0.77
6190.00,0.77
6188.00,0.77
6186.00,0.77
6184.00,0.77
6182.00,0.77
6180.00,0.77
6178.00,0.77
6176.00,0.77
6174.00,0.77
6172.00,0.77
6170.00,0.76
6168.00,0.76
6166.00,0.76
6164.00,0.76
6162.00,0.76
6160.00,0.77
6158.00,0.77
6156.00,0.77
6154.00,0.77
6152.00,0.77
6150.00,0.77
6148.00,0.77
6146.00,0.77
6144.00,0.77
6142.00,0.77
6140.00,0.77
6138.00,0.77
6136.00,0.77
6134.00,0.77
6132.00,0.77
6130.00,0.77
6128.00,0.77
6126.00,0.77
6124.00,0.77
6122.00,0.77
6120.00,0.77
6118.00,0.77
6116.00,0.77
6114.00,0.77
6112.00,0.77
6110.00,0.77
6108.00,0.77
6106.00,0.77
6104.00,0.77
6102.00,0.77
6100.00,0.77
6098.00,0.77
6096.00,0.77
6094.00,0.77
6092.00,0.77
6090.00,0.77
6088.00,0.77
6086.00,0.77
6084.00,0.77
6082.00,0.77
6080.00,0.77
6078.00,0.77
6076.00,0.77
6074.00,0.77
6072.00,0.77
6070.00,0.77
6068.00,0.77
6066.00,0.77
6064.00,0.77
6062.00,0.77
6060.00,0.77
6058.00,0.77
6056.00,0.77
6054.00,0.77
6052.00,0.77
6050.00,0.77
6048.00,0.77
6046.00,0.77
6044.00,0.77
6042.00,0.78
6040.00,0.78
6038.00,0.78
6036.00,0.78
6034.00,0.78
6032.00,0.78
6030.00,0.78
6028.00,0.78
6026.00,0.78
6024.00,0.78
6022.00,0.78
6020.00,0.78
6018.00,0.77
6016.00,0.77
6014.00,0.77
6012.00,0.77
6010.00,0.77
6008.00,0.77
6006.00,0.77
6004.00,0.77
6002.00,0.78
6000.00,0.78
5998.00,0.78
5996.00,0.78
5994.00,0.78
5992.00,0.78
5990.00,0.78
5988.00,0.78
5986.00,0.78
5984.00,0.78
5982.00,0.78
5980.00,0.78
5978.00,0.78
5976.00,0.78
5974.00,0.78
5972.00,0.77
5970.00,0.77
5968.00,0.77
5966.00,0.77
5964.00,0.77
5962.00,0.77
5960.00,0.77
5958.00,0.77
5956.00,0.76
5954.00,0.76
5952.00,0.76
5950.00,0.76
5948.00,0.76
5946.00,0.76
5944.00,0.76
5942.00,0.76
5940.00,0.76
5938.00,0.76
5936.00,0.76
5934.00,0.76
5932.00,0.76
5930.00,0.76
5928.00,0.76
5926.00,0.76
5924.00,0.76
5922.00,0.76
5920.00,0.76
5918.00,0.76
5916.00,0.76
5914.00,0.76
5912.00,0.76
5910.00,0.76
5908.00,0.76
5906.00,0.76
5904.00,0.76
5902.00,0.76
5900.00,0.76
5898.00,0.76
5896.00,0.76
5894.00,0.76
5892.00,0.76
5890.00,0.76
5888.00,0.76
5886.00,0.76
5884.00,0.76
5882.00,0.76
5880.00,0.76
5878.00,0.76
5876.00,0.76
5874.00,0.76
5872.00,0.76
5870.00,0.76
5868.00,0.77
5866.00,0.77
5864.00,0.77
5862.00,0.77
5860.00,0.77
5858.00,0.77
5856.00,0.77
5854.00,0.77
5852.00,0.77
5850.00,0.77
5848.00,0.77
5846.00,0.76
5844.00,0.76
5842.00,0.76
5840.00,0.76
5838.00,0.76
5836.00,0.76
5834.00,0.76
5832.00,0.77
5830.00,0.77
5828.00,0.77
5826.00,0.77
5824.00,0.77
5822.00,0.77
5820.00,0.77
5818.00,0.77
5816.00,0.77
5814.00,0.77
5812.00,0.76
5810.00,0.76
5808.00,0.76
5806.00,0.76
5804.00,0.76
5802.00,0.76
5800.00,0.76
5798.00,0.76
5796.00,0.76
5794.00,0.76
5792.00,0.76
5790.00,0.76
5788.00,0.76
5786.00,0.76
5784.00,0.76
5782.00,0.76
5780.00,0.76
5778.00,0.76
5776.00,0.76
5774.00,0.76
5772.00,0.76
5770.00,0.76
5768.00,0.76
5766.00,0.76
5764.00,0.76
5762.00,0.76
5760.00,0.76
5758.00,0.76
5756.00,0.77
5754.00,0.77
5752.00,0.77
5750.00,0.77
5748.00,0.77
5746.00,0.77
5744.00,0.77
5742.00,0.77
5740.00,0.77
5738.00,0.77
5736.00,0.77
5734.00,0.77
5732.00,0.77
5730.00,0.77
5728.00,0.77
5726.00,0.77
5724.00,0.77
5722.00,0.77
5720.00,0.77
5718.00,0.77
5716.00,0.77
5714.00,0.77
5712.00,0.77
5710.00,0.77
5708.00,0.77
5706.00,0.77
5704.00,0.77
5702.00,0.77
5700.00,0.77
5698.00,0.77
5696.00,0.77
5694.00,0.77
5692.00,0.77
5690.00,0.77
5688.00,0.77
5686.00,0.77
5684.00,0.77
5682.00,0.77
5680.00,0.77
5678.00,0.77
5676.00,0.77
5674.00,0.77
5672.00,0.77
5670.00,0.77
5668.00,0.77
5666.00,0.77
5664.00,0.77
5662.00,0.77
5660.00,0.77
5658.00,0.77
5656.00,0.77
5654.00,0.77
5652.00,0.77
5650.00,0.78
5648.00,0.78
5646.00,0.78
5644.00,0.77
5642.00,0.77
5640.00,0.77
5638.00,0.78
5636.00,0.78
5634.00,0.78
5632.00,0.78
5630.00,0.78
5628.00,0.78
5626.00,0.78
5624.00,0.78
5622.00,0.78
5620.00,0.78
5618.00,0.78
5616.00,0.78
5614.00,0.78
5612.00,0.78
5610.00,0.78
5608.00,0.78
5606.00,0.78
5604.00,0.78
5602.00,0.78
5600.00,0.78
5598.00,0.78
5596.00,0.78
5594.00,0.78
5592.00,0.78
5590.00,0.78
5588.00,0.78
5586.00,0.78
5584.00,0.78
5582.00,0.78
5580.00,0.78
5578.00,0.78
5576.00,0.78
5574.00,0.78
5572.00,0.78
5570.00,0.78
5568.00,0.78
5566.00,0.78
5564.00,0.78
5562.00,0.78
5560.00,0.78
5558.00,0.79
5556.00,0.79
5554.00,0.79
5552.00,0.79
5550.00,0.79
5548.00,0.79
5546.00,0.79
5544.00,0.79
5542.00,0.79
5540.00,0.79
5538.00,0.79
5536.00,0.79
5534.00,0.79
5532.00,0.78
5530.00,0.78
5528.00,0.78
5526.00,0.78
5524.00,0.78
5522.00,0.78
5520.00,0.78
5518.00,0.78
5516.00,0.78
5514.00,0.78
5512.00,0.78
5510.00,0.78
5508.00,0.79
5506.00,0.79
5504.00,0.78
5502.00,0.78
5500.00,0.78
5498.00,0.78
5496.00,0.78
5494.00,0.78
5492.00,0.78
5490.00,0.78
5488.00,0.78
5486.00,0.78
5484.00,0.78
5482.00,0.78
5480.00,0.78
5478.00,0.78
5476.00,0.78
5474.00,0.78
5472.00,0.79
5470.00,0.78
5468.00,0.78
5466.00,0.78
5464.00,0.78
5462.00,0.78
5460.00,0.78
5458.00,0.78
5456.00,0.79
5454.00,0.79
5452.00,0.79
5450.00,0.79
5448.00,0.79
5446.00,0.79
5444.00,0.79
5442.00,0.79
5440.00,0.79
5438.00,0.79
5436.00,0.79
5434.00,0.79
5432.00,0.79
5430.00,0.79
5428.00,0.79
5426.00,0.79
5424.00,0.79
5422.00,0.79
5420.00,0.79
5418.00,0.79
5416.00,0.79
5414.00,0.79
5412.00,0.79
5410.00,0.79
5408.00,0.79
5406.00,0.79
5404.00,0.79
5402.00,0.79
5400.00,0.79
5398.00,0.79
5396.00,0.79
5394.00,0.79
5392.00,0.79
5390.00,0.79
5388.00,0.79
5386.00,0.79
5384.00,0.79
5382.00,0.79
5380.00,0.79
5378.00,0.79
5376.00,0.79
5374.00,0.79
5372.00,0.79
5370.00,0.79
5368.00,0.79
5366.00,0.79
5364.00,0.79
5362.00,0.79
5360.00,0.78
5358.00,0.78
5356.00,0.78
5354.00,0.78
5352.00,0.78
5350.00,0.78
5348.00,0.78
5346.00,0.78
5344.00,0.78
5342.00,0.77
5340.00,0.77
5338.00,0.77
5336.00,0.77
5334.00,0.77
5332.00,0.77
5330.00,0.77
5328.00,0.77
5326.00,0.77
5324.00,0.76
5322.00,0.76
5320.00,0.76
5318.00,0.76
5316.00,0.76
5314.00,0.76
5312.00,0.75
5310.00,0.75
5308.00,0.75
5306.00,0.75
5304.00,0.75
5302.00,0.75
5300.00,0.74
5298.00,0.74
5296.00,0.74
5294.00,0.74
5292.00,0.74
5290.00,0.74
5288.00,0.74
5286.00,0.73
5284.00,0.73
5282.00,0.73
5280.00,0.73
5278.00,0.73
5276.00,0.73
5274.00,0.72
5272.00,0.72
5270.00,0.72
5268.00,0.72
5266.00,0.72
5264.00,0.72
5262.00,0.71
5260.00,0.71
5258.00,0.71
5256.00,0.71
5254.00,0.71
5252.00,0.71
5250.00,0.71
5248.00,0.70
5246.00,0.70
5244.00,0.70
5242.00,0.70
5240.00,0.70
5238.00,0.70
5236.00,0.70
5234.00,0.70
5232.00,0.70
5230.00,0.70
5228.00,0.70
5226.00,0.70
5224.00,0.70
5222.00,0.70
5220.00,0.70
5218.00,0.69
5216.00,0.69
5214.00,0.69
5212.00,0.69
5210.00,0.69
5208.00,0.69
5206.00,0.69
5204.00,0.69
5202.00,0.69
5200.00,0.69
5198.00,0.69
5196.00,0.69
5194.00,0.69
5192.00,0.69
5190.00,0.69
5188.00,0.69
5186.00,0.69
5184.00,0.69
5182.00,0.68
5180.00,0.68
5178.00,0.68
5176.00,0.68
5174.00,0.68
5172.00,0.68
5170.00,0.68
5168.00,0.68
5166.00,0.68
5164.00,0.68
5162.00,0.68
5160.00,0.68
5158.00,0.68
5156.00,0.69
5154.00,0.69
5152.00,0.69
5150.00,0.69
5148.00,0.69
5146.00,0.69
5144.00,0.69
5142.00,0.69
5140.00,0.69
5138.00,0.69
5136.00,0.69
5134.00,0.69
5132.00,0.69
5130.00,0.69
5128.00,0.69
5126.00,0.69
5124.00,0.69
5122.00,0.70
5120.00,0.70
5118.00,0.70
5116.00,0.70
5114.00,0.70
5112.00,0.70
5110.00,0.70
5108.00,0.70
5106.00,0.70
5104.00,0.70
5102.00,0.71
5100.00,0.71
5098.00,0.71
5096.00,0.71
5094.00,0.71
5092.00,0.71
5090.00,0.71
5088.00,0.71
5086.00,0.71
5084.00,0.71
5082.00,0.71
5080.00,0.71
5078.00,0.71
5076.00,0.71
5074.00,0.72
5072.00,0.72
5070.00,0.72
5068.00,0.72
5066.00,0.72
5064.00,0.72
5062.00,0.72
5060.00,0.72
5058.00,0.72
5056.00,0.72
5054.00,0.72
5052.00,0.73
5050.00,0.73
5048.00,0.73
5046.00,0.73
5044.00,0.73
5042.00,0.73
5040.00,0.73
5038.00,0.73
5036.00,0.73
5034.00,0.73
5032.00,0.73
5030.00,0.73
5028.00,0.73
5026.00,0.73
5024.00,0.73
5022.00,0.73
5020.00,0.73
5018.00,0.73
5016.00,0.73
5014.00,0.73
5012.00,0.73
5010.00,0.73
5008.00,0.74
5006.00,0.74
5004.00,0.74
5002.00,0.74
5000.00,0.74
4998.00,0.74
4996.00,0.74
4994.00,0.74
4992.00,0.74
4990.00,0.74
4988.00,0.74
4986.00,0.74
4984.00,0.75
4982.00,0.75
4980.00,0.75
4978.00,0.75
4976.00,0.75
4974.00,0.75
4972.00,0.75
4970.00,0.75
4968.00,0.75
4966.00,0.75
4964.00,0.75
4962.00,0.75
4960.00,0.75
4958.00,0.75
4956.00,0.75
4954.00,0.75
4952.00,0.75
4950.00,0.75
4948.00,0.75
4946.00,0.75
4944.00,0.75
4942.00,0.75
4940.00,0.75
4938.00,0.75
4936.00,0.75
4934.00,0.75
4932.00,0.75
4930.00,0.75
4928.00,0.75
4926.00,0.75
4924.00,0.75
4922.00,0.75
4920.00,0.75
4918.00,0.75
4916.00,0.75
4914.00,0.75
4912.00,0.75
4910.00,0.75
4908.00,0.75
4906.00,0.75
4904.00,0.76
4902.00,0.76
4900.00,0.76
4898.00,0.76
4896.00,0.76
4894.00,0.76
4892.00,0.76
4890.00,0.76
4888.00,0.76
4886.00,0.76
4884.00,0.76
4882.00,0.76
4880.00,0.76
4878.00,0.76
4876.00,0.76
4874.00,0.76
4872.00,0.76
4870.00,0.76
4868.00,0.76
4866.00,0.76
4864.00,0.76
4862.00,0.76
4860.00,0.76
4858.00,0.76
4856.00,0.76
4854.00,0.76
4852.00,0.76
4850.00,0.76
4848.00,0.76
4846.00,0.76
4844.00,0.76
4842.00,0.76
4840.00,0.76
4838.00,0.76
4836.00,0.76
4834.00,0.76
4832.00,0.76
4830.00,0.76
4828.00,0.76
4826.00,0.76
4824.00,0.76
4822.00,0.76
4820.00,0.76
4818.00,0.76
4816.00,0.76
4814.00,0.76
4812.00,0.76
4810.00,0.76
4808.00,0.76
4806.00,0.76
4804.00,0.76
4802.00,0.76
4800.00,0.76
4798.00,0.76
4796.00,0.76
4794.00,0.76
4792.00,0.77
4790.00,0.77
4788.00,0.77
4786.00,0.77
4784.00,0.77
4782.00,0.77
4780.00,0.77
4778.00,0.77
4776.00,0.77
4774.00,0.77
4772.00,0.77
4770.00,0.77
4768.00,0.77
4766.00,0.77
4764.00,0.77
4762.00,0.77
4760.00,0.77
4758.00,0.77
4756.00,0.78
4754.00,0.78
4752.00,0.78
4750.00,0.78
4748.00,0.78
4746.00,0.78
4744.00,0.78
4742.00,0.78
4740.00,0.78
4738.00,0.78
4736.00,0.78
4734.00,0.77
4732.00,0.77
4730.00,0.77
4728.00,0.78
4726.00,0.78
4724.00,0.78
4722.00,0.78
4720.00,0.78
4718.00,0.78
4716.00,0.78
4714.00,0.78
4712.00,0.78
4710.00,0.78
4708.00,0.78
4706.00,0.78
4704.00,0.78
4702.00,0.78
4700.00,0.78
4698.00,0.78
4696.00,0.78
4694.00,0.78
4692.00,0.78
4690.00,0.78
4688.00,0.78
4686.00,0.78
4684.00,0.78
4682.00,0.78
4680.00,0.78
4678.00,0.78
4676.00,0.78
4674.00,0.78
4672.00,0.78
4670.00,0.78
4668.00,0.78
4666.00,0.78
4664.00,0.78
4662.00,0.78
4660.00,0.78
4658.00,0.78
4656.00,0.78
4654.00,0.78
4652.00,0.78
4650.00,0.78
4648.00,0.78
4646.00,0.78
4644.00,0.78
4642.00,0.78
4640.00,0.78
4638.00,0.78
4636.00,0.78
4634.00,0.78
4632.00,0.78
4630.00,0.78
4628.00,0.78
4626.00,0.78
4624.00,0.78
4622.00,0.78
4620.00,0.78
4618.00,0.78
4616.00,0.78
4614.00,0.78
4612.00,0.78
4610.00,0.78
4608.00,0.79
4606.00,0.79
4604.00,0.79
4602.00,0.78
4600.00,0.78
4598.00,0.78
4596.00,0.78
4594.00,0.78
4592.00,0.78
4590.00,0.78
4588.00,0.78
4586.00,0.78
4584.00,0.78
4582.00,0.78
4580.00,0.78
4578.00,0.79
4576.00,0.79
4574.00,0.79
4572.00,0.79
4570.00,0.79
4568.00,0.79
4566.00,0.79
4564.00,0.79
4562.00,0.79
4560.00,0.79
4558.00,0.79
4556.00,0.79
4554.00,0.79
4552.00,0.79
4550.00,0.79
4548.00,0.79
4546.00,0.79
4544.00,0.79
4542.00,0.79
4540.00,0.79
4538.00,0.78
4536.00,0.78
4534.00,0.78
4532.00,0.78
4530.00,0.79
4528.00,0.79
4526.00,0.79
4524.00,0.79
4522.00,0.79
4520.00,0.79
4518.00,0.79
4516.00,0.79
4514.00,0.79
4512.00,0.79
4510.00,0.79
4508.00,0.79
4506.00,0.79
4504.00,0.79
4502.00,0.79
4500.00,0.79
4498.00,0.79
4496.00,0.79
4494.00,0.79
4492.00,0.78
4490.00,0.78
4488.00,0.78
4486.00,0.78
4484.00,0.78
4482.00,0.78
4480.00,0.78
4478.00,0.78
4476.00,0.78
4474.00,0.78
4472.00,0.78
4470.00,0.78
4468.00,0.78
4466.00,0.78
4464.00,0.78
4462.00,0.78
4460.00,0.78
4458.00,0.78
4456.00,0.78
4454.00,0.78
4452.00,0.78
4450.00,0.78
4448.00,0.78
4446.00,0.78
4444.00,0.77
4442.00,0.77
4440.00,0.77
4438.00,0.77
4436.00,0.77
4434.00,0.77
4432.00,0.76
4430.00,0.76
4428.00,0.76
4426.00,0.75
4424.00,0.75
4422.00,0.75
4420.00,0.75
4418.00,0.75
4416.00,0.74
4414.00,0.74
4412.00,0.74
4410.00,0.74
4408.00,0.74
4406.00,0.74
4404.00,0.74
4402.00,0.74
4400.00,0.75
4398.00,0.75
4396.00,0.75
4394.00,0.75
4392.00,0.75
4390.00,0.75
4388.00,0.75
4386.00,0.75
4384.00,0.75
4382.00,0.76
4380.00,0.76
4378.00,0.76
4376.00,0.76
4374.00,0.76
4372.00,0.76
4370.00,0.76
4368.00,0.76
4366.00,0.76
4364.00,0.76
4362.00,0.76
4360.00,0.76
4358.00,0.75
4356.00,0.75
4354.00,0.75
4352.00,0.75
4350.00,0.75
4348.00,0.74
4346.00,0.74
4344.00,0.74
4342.00,0.74
4340.00,0.74
4338.00,0.74
4336.00,0.74
4334.00,0.75
4332.00,0.75
4330.00,0.75
4328.00,0.75
4326.00,0.76
4324.00,0.76
4322.00,0.76
4320.00,0.77
4318.00,0.77
4316.00,0.77
4314.00,0.77
4312.00,0.77
4310.00,0.77
4308.00,0.77
4306.00,0.77
4304.00,0.78
4302.00,0.78
4300.00,0.78
4298.00,0.78
4296.00,0.78
4294.00,0.78
4292.00,0.78
4290.00,0.79
4288.00,0.79
4286.00,0.79
4284.00,0.78
4282.00,0.78
4280.00,0.78
4278.00,0.78
4276.00,0.78
4274.00,0.78
4272.00,0.78
4270.00,0.78
4268.00,0.78
4266.00,0.78
4264.00,0.78
4262.00,0.78
4260.00,0.78
4258.00,0.78
4256.00,0.78
4254.00,0.78
4252.00,0.78
4250.00,0.78
4248.00,0.78
4246.00,0.78
4244.00,0.78
4242.00,0.78
4240.00,0.78
4238.00,0.78
4236.00,0.78
4234.00,0.78
4232.00,0.78
4230.00,0.78
4228.00,0.78
4226.00,0.78
4224.00,0.79
4222.00,0.79
4220.00,0.79
4218.00,0.79
4216.00,0.79
4214.00,0.79
4212.00,0.79
4210.00,0.79
4208.00,0.79
4206.00,0.79
4204.00,0.79
4202.00,0.79
4200.00,0.79
4198.00,0.79
4196.00,0.79
4194.00,0.79
4192.00,0.79
4190.00,0.79
4188.00,0.79
4186.00,0.79
4184.00,0.79
4182.00,0.79
4180.00,0.79
4178.00,0.79
4176.00,0.79
4174.00,0.79
4172.00,0.79
4170.00,0.78
4168.00,0.78
4166.00,0.78
4164.00,0.78
4162.00,0.78
4160.00,0.78
4158.00,0.77
4156.00,0.77
4154.00,0.77
4152.00,0.78
4150.00,0.78
4148.00,0.78
4146.00,0.78
4144.00,0.78
4142.00,0.78
4140.00,0.78
4138.00,0.78
4136.00,0.78
4134.00,0.78
4132.00,0.78
4130.00,0.78
4128.00,0.79
4126.00,0.79
4124.00,0.79
4122.00,0.79
4120.00,0.79
4118.00,0.79
4116.00,0.79
4114.00,0.79
4112.00,0.79
4110.00,0.79
4108.00,0.79
4106.00,0.79
4104.00,0.79
4102.00,0.79
4100.00,0.79
4098.00,0.78
4096.00,0.78
4094.00,0.78
4092.00,0.78
4090.00,0.78
4088.00,0.78
4086.00,0.78
4084.00,0.78
4082.00,0.78
4080.00,0.77
4078.00,0.77
4076.00,0.77
4074.00,0.77
4072.00,0.77
4070.00,0.77
4068.00,0.77
4066.00,0.77
4064.00,0.77
4062.00,0.77
4060.00,0.77
4058.00,0.77
4056.00,0.77
4054.00,0.78
4052.00,0.78
4050.00,0.78
4048.00,0.78
4046.00,0.78
4044.00,0.78
4042.00,0.78
4040.00,0.78
4038.00,0.78
4036.00,0.78
4034.00,0.78
4032.00,0.78
4030.00,0.78
4028.00,0.78
4026.00,0.78
4024.00,0.78
4022.00,0.78
4020.00,0.78
4018.00,0.78
4016.00,0.78
4014.00,0.79
4012.00,0.79
4010.00,0.79
4008.00,0.79
4006.00,0.79
4004.00,0.79
4002.00,0.79
4000.00,0.79
