创建为新数据集,样品 1682 用户 Administrator 日期 星期二, 三月 14 2017
cm-1,%T
10000.00,0.81
9998.00,0.81
9996.00,0.81
9994.00,0.81
9992.00,0.80
9990.00,0.80
9988.00,0.80
9986.00,0.80
9984.00,0.80
9982.00,0.80
9980.00,0.80
9978.00,0.81
9976.00,0.81
9974.00,0.81
9972.00,0.81
9970.00,0.81
9968.00,0.81
9966.00,0.81
9964.00,0.81
9962.00,0.81
9960.00,0.81
9958.00,0.81
9956.00,0.81
9954.00,0.81
9952.00,0.81
9950.00,0.81
9948.00,0.81
9946.00,0.81
9944.00,0.81
9942.00,0.80
9940.00,0.80
9938.00,0.80
9936.00,0.79
9934.00,0.79
9932.00,0.79
9930.00,0.79
9928.00,0.78
9926.00,0.78
9924.00,0.78
9922.00,0.79
9920.00,0.79
9918.00,0.80
9916.00,0.80
9914.00,0.81
9912.00,0.81
9910.00,0.81
9908.00,0.82
9906.00,0.82
9904.00,0.82
9902.00,0.82
9900.00,0.81
9898.00,0.81
9896.00,0.81
9894.00,0.80
9892.00,0.79
9890.00,0.79
9888.00,0.78
9886.00,0.77
9884.00,0.77
9882.00,0.77
9880.00,0.77
9878.00,0.77
9876.00,0.78
9874.00,0.78
9872.00,0.79
9870.00,0.80
9868.00,0.81
9866.00,0.81
9864.00,0.81
9862.00,0.82
9860.00,0.81
9858.00,0.81
9856.00,0.81
9854.00,0.80
9852.00,0.80
9850.00,0.79
9848.00,0.79
9846.00,0.79
9844.00,0.78
9842.00,0.78
9840.00,0.78
9838.00,0.78
9836.00,0.78
9834.00,0.79
9832.00,0.79
9830.00,0.80
9828.00,0.80
9826.00,0.81
9824.00,0.81
9822.00,0.81
9820.00,0.81
9818.00,0.81
9816.00,0.81
9814.00,0.81
9812.00,0.81
9810.00,0.81
9808.00,0.81
9806.00,0.81
9804.00,0.81
9802.00,0.81
9800.00,0.81
9798.00,0.81
9796.00,0.80
9794.00,0.80
9792.00,0.80
9790.00,0.80
9788.00,0.79
9786.00,0.79
9784.00,0.79
9782.00,0.79
9780.00,0.79
9778.00,0.79
9776.00,0.79
9774.00,0.79
9772.00,0.78
9770.00,0.78
9768.00,0.78
9766.00,0.77
9764.00,0.77
9762.00,0.77
9760.00,0.77
9758.00,0.77
9756.00,0.78
9754.00,0.78
9752.00,0.78
9750.00,0.79
9748.00,0.79
9746.00,0.78
9744.00,0.78
9742.00,0.78
9740.00,0.78
9738.00,0.78
9736.00,0.78
9734.00,0.78
9732.00,0.78
9730.00,0.78
9728.00,0.78
9726.00,0.78
9724.00,0.78
9722.00,0.78
9720.00,0.78
9718.00,0.78
9716.00,0.78
9714.00,0.78
9712.00,0.78
9710.00,0.78
9708.00,0.78
9706.00,0.79
9704.00,0.79
9702.00,0.79
9700.00,0.79
9698.00,0.80
9696.00,0.80
9694.00,0.80
9692.00,0.81
9690.00,0.80
9688.00,0.80
9686.00,0.80
9684.00,0.80
9682.00,0.79
9680.00,0.79
9678.00,0.78
9676.00,0.78
9674.00,0.78
9672.00,0.77
9670.00,0.77
9668.00,0.78
9666.00,0.78
9664.00,0.78
9662.00,0.79
9660.00,0.79
9658.00,0.79
9656.00,0.79
9654.00,0.78
9652.00,0.78
9650.00,0.78
9648.00,0.77
9646.00,0.77
9644.00,0.77
9642.00,0.77
9640.00,0.78
9638.00,0.78
9636.00,0.79
9634.00,0.79
9632.00,0.79
9630.00,0.79
9628.00,0.79
9626.00,0.79
9624.00,0.79
9622.00,0.79
9620.00,0.79
9618.00,0.79
9616.00,0.79
9614.00,0.79
9612.00,0.79
9610.00,0.79
9608.00,0.79
9606.00,0.79
9604.00,0.80
9602.00,0.80
9600.00,0.80
9598.00,0.80
9596.00,0.80
9594.00,0.80
9592.00,0.79
9590.00,0.79
9588.00,0.79
9586.00,0.78
9584.00,0.78
9582.00,0.78
9580.00,0.78
9578.00,0.78
9576.00,0.78
9574.00,0.79
9572.00,0.79
9570.00,0.79
9568.00,0.79
9566.00,0.79
9564.00,0.79
9562.00,0.80
9560.00,0.80
9558.00,0.80
9556.00,0.81
9554.00,0.81
9552.00,0.81
9550.00,0.82
9548.00,0.82
9546.00,0.82
9544.00,0.82
9542.00,0.81
9540.00,0.81
9538.00,0.80
9536.00,0.80
9534.00,0.79
9532.00,0.79
9530.00,0.78
9528.00,0.78
9526.00,0.78
9524.00,0.78
9522.00,0.78
9520.00,0.78
9518.00,0.79
9516.00,0.79
9514.00,0.79
9512.00,0.79
9510.00,0.79
9508.00,0.79
9506.00,0.79
9504.00,0.79
9502.00,0.79
9500.00,0.79
9498.00,0.79
9496.00,0.78
9494.00,0.78
9492.00,0.78
9490.00,0.78
9488.00,0.78
9486.00,0.78
9484.00,0.79
9482.00,0.79
9480.00,0.80
9478.00,0.80
9476.00,0.81
9474.00,0.81
9472.00,0.80
9470.00,0.80
9468.00,0.80
9466.00,0.79
9464.00,0.79
9462.00,0.79
9460.00,0.79
9458.00,0.79
9456.00,0.79
9454.00,0.79
9452.00,0.79
9450.00,0.79
9448.00,0.79
9446.00,0.78
9444.00,0.78
9442.00,0.77
9440.00,0.77
9438.00,0.77
9436.00,0.77
9434.00,0.77
9432.00,0.77
9430.00,0.77
9428.00,0.77
9426.00,0.77
9424.00,0.77
9422.00,0.77
9420.00,0.77
9418.00,0.78
9416.00,0.78
9414.00,0.78
9412.00,0.79
9410.00,0.79
9408.00,0.79
9406.00,0.80
9404.00,0.80
9402.00,0.80
9400.00,0.80
9398.00,0.80
9396.00,0.80
9394.00,0.80
9392.00,0.80
9390.00,0.80
9388.00,0.80
9386.00,0.80
9384.00,0.80
9382.00,0.80
9380.00,0.80
9378.00,0.80
9376.00,0.80
9374.00,0.80
9372.00,0.80
9370.00,0.80
9368.00,0.80
9366.00,0.80
9364.00,0.80
9362.00,0.80
9360.00,0.79
9358.00,0.79
9356.00,0.79
9354.00,0.78
9352.00,0.78
9350.00,0.78
9348.00,0.78
9346.00,0.78
9344.00,0.78
9342.00,0.78
9340.00,0.78
9338.00,0.78
9336.00,0.79
9334.00,0.79
9332.00,0.79
9330.00,0.79
9328.00,0.79
9326.00,0.79
9324.00,0.79
9322.00,0.79
9320.00,0.78
9318.00,0.78
9316.00,0.78
9314.00,0.77
9312.00,0.77
9310.00,0.77
9308.00,0.78
9306.00,0.78
9304.00,0.79
9302.00,0.80
9300.00,0.80
9298.00,0.81
9296.00,0.81
9294.00,0.81
9292.00,0.81
9290.00,0.81
9288.00,0.81
9286.00,0.81
9284.00,0.81
9282.00,0.81
9280.00,0.80
9278.00,0.80
9276.00,0.80
9274.00,0.80
9272.00,0.80
9270.00,0.79
9268.00,0.79
9266.00,0.79
9264.00,0.79
9262.00,0.79
9260.00,0.79
9258.00,0.79
9256.00,0.79
9254.00,0.80
9252.00,0.79
9250.00,0.79
9248.00,0.79
9246.00,0.79
9244.00,0.79
9242.00,0.79
9240.00,0.79
9238.00,0.79
9236.00,0.79
9234.00,0.79
9232.00,0.79
9230.00,0.78
9228.00,0.78
9226.00,0.78
9224.00,0.78
9222.00,0.78
9220.00,0.78
9218.00,0.78
9216.00,0.78
9214.00,0.79
9212.00,0.79
9210.00,0.79
9208.00,0.79
9206.00,0.80
9204.00,0.80
9202.00,0.80
9200.00,0.79
9198.00,0.79
9196.00,0.79
9194.00,0.78
9192.00,0.78
9190.00,0.78
9188.00,0.78
9186.00,0.78
9184.00,0.78
9182.00,0.79
9180.00,0.79
9178.00,0.79
9176.00,0.79
9174.00,0.79
9172.00,0.79
9170.00,0.79
9168.00,0.79
9166.00,0.79
9164.00,0.79
9162.00,0.79
9160.00,0.80
9158.00,0.80
9156.00,0.80
9154.00,0.80
9152.00,0.80
9150.00,0.79
9148.00,0.79
9146.00,0.79
9144.00,0.79
9142.00,0.79
9140.00,0.79
9138.00,0.79
9136.00,0.79
9134.00,0.78
9132.00,0.78
9130.00,0.78
9128.00,0.78
9126.00,0.78
9124.00,0.79
9122.00,0.79
9120.00,0.79
9118.00,0.79
9116.00,0.79
9114.00,0.79
9112.00,0.79
9110.00,0.79
9108.00,0.79
9106.00,0.78
9104.00,0.78
9102.00,0.78
9100.00,0.78
9098.00,0.78
9096.00,0.78
9094.00,0.78
9092.00,0.78
9090.00,0.78
9088.00,0.78
9086.00,0.78
9084.00,0.78
9082.00,0.78
9080.00,0.78
9078.00,0.78
9076.00,0.78
9074.00,0.78
9072.00,0.78
9070.00,0.78
9068.00,0.78
9066.00,0.78
9064.00,0.78
9062.00,0.78
9060.00,0.78
9058.00,0.78
9056.00,0.78
9054.00,0.78
9052.00,0.78
9050.00,0.78
9048.00,0.78
9046.00,0.78
9044.00,0.78
9042.00,0.78
9040.00,0.78
9038.00,0.78
9036.00,0.78
9034.00,0.78
9032.00,0.79
9030.00,0.79
9028.00,0.79
9026.00,0.79
9024.00,0.79
9022.00,0.79
9020.00,0.79
9018.00,0.79
9016.00,0.79
9014.00,0.79
9012.00,0.79
9010.00,0.78
9008.00,0.78
9006.00,0.78
9004.00,0.78
9002.00,0.78
9000.00,0.78
8998.00,0.78
8996.00,0.78
8994.00,0.77
8992.00,0.77
8990.00,0.77
8988.00,0.77
8986.00,0.77
8984.00,0.77
8982.00,0.77
8980.00,0.77
8978.00,0.77
8976.00,0.78
8974.00,0.78
8972.00,0.78
8970.00,0.78
8968.00,0.78
8966.00,0.78
8964.00,0.78
8962.00,0.79
8960.00,0.79
8958.00,0.79
8956.00,0.79
8954.00,0.79
8952.00,0.79
8950.00,0.79
8948.00,0.79
8946.00,0.79
8944.00,0.79
8942.00,0.79
8940.00,0.79
8938.00,0.79
8936.00,0.79
8934.00,0.78
8932.00,0.78
8930.00,0.78
8928.00,0.78
8926.00,0.78
8924.00,0.78
8922.00,0.78
8920.00,0.78
8918.00,0.78
8916.00,0.78
8914.00,0.78
8912.00,0.79
8910.00,0.79
8908.00,0.79
8906.00,0.79
8904.00,0.79
8902.00,0.79
8900.00,0.79
8898.00,0.79
8896.00,0.79
8894.00,0.79
8892.00,0.79
8890.00,0.79
8888.00,0.79
8886.00,0.79
8884.00,0.79
8882.00,0.79
8880.00,0.79
8878.00,0.79
8876.00,0.79
8874.00,0.79
8872.00,0.79
8870.00,0.79
8868.00,0.79
8866.00,0.79
8864.00,0.79
8862.00,0.79
8860.00,0.79
8858.00,0.79
8856.00,0.79
8854.00,0.80
8852.00,0.80
8850.00,0.80
8848.00,0.80
8846.00,0.81
8844.00,0.81
8842.00,0.81
8840.00,0.81
8838.00,0.81
8836.00,0.81
8834.00,0.81
8832.00,0.80
8830.00,0.80
8828.00,0.79
8826.00,0.79
8824.00,0.78
8822.00,0.78
8820.00,0.77
8818.00,0.77
8816.00,0.77
8814.00,0.77
8812.00,0.77
8810.00,0.77
8808.00,0.77
8806.00,0.77
8804.00,0.77
8802.00,0.78
8800.00,0.78
8798.00,0.78
8796.00,0.78
8794.00,0.79
8792.00,0.79
8790.00,0.79
8788.00,0.79
8786.00,0.79
8784.00,0.79
8782.00,0.79
8780.00,0.80
8778.00,0.80
8776.00,0.80
8774.00,0.80
8772.00,0.80
8770.00,0.80
8768.00,0.80
8766.00,0.80
8764.00,0.80
8762.00,0.80
8760.00,0.79
8758.00,0.79
8756.00,0.79
8754.00,0.79
8752.00,0.79
8750.00,0.79
8748.00,0.79
8746.00,0.79
8744.00,0.79
8742.00,0.79
8740.00,0.79
8738.00,0.78
8736.00,0.78
8734.00,0.77
8732.00,0.77
8730.00,0.77
8728.00,0.77
8726.00,0.77
8724.00,0.77
8722.00,0.77
8720.00,0.77
8718.00,0.78
8716.00,0.78
8714.00,0.77
8712.00,0.77
8710.00,0.77
8708.00,0.77
8706.00,0.78
8704.00,0.78
8702.00,0.78
8700.00,0.78
8698.00,0.78
8696.00,0.78
8694.00,0.78
8692.00,0.78
8690.00,0.78
8688.00,0.77
8686.00,0.77
8684.00,0.78
8682.00,0.78
8680.00,0.78
8678.00,0.78
8676.00,0.79
8674.00,0.79
8672.00,0.79
8670.00,0.79
8668.00,0.79
8666.00,0.79
8664.00,0.79
8662.00,0.79
8660.00,0.78
8658.00,0.78
8656.00,0.78
8654.00,0.78
8652.00,0.78
8650.00,0.78
8648.00,0.79
8646.00,0.79
8644.00,0.79
8642.00,0.79
8640.00,0.79
8638.00,0.79
8636.00,0.78
8634.00,0.78
8632.00,0.78
8630.00,0.78
8628.00,0.77
8626.00,0.77
8624.00,0.77
8622.00,0.77
8620.00,0.77
8618.00,0.78
8616.00,0.78
8614.00,0.78
8612.00,0.78
8610.00,0.79
8608.00,0.79
8606.00,0.79
8604.00,0.79
8602.00,0.79
8600.00,0.78
8598.00,0.78
8596.00,0.78
8594.00,0.78
8592.00,0.78
8590.00,0.78
8588.00,0.78
8586.00,0.78
8584.00,0.78
8582.00,0.78
8580.00,0.78
8578.00,0.78
8576.00,0.78
8574.00,0.79
8572.00,0.79
8570.00,0.79
8568.00,0.79
8566.00,0.79
8564.00,0.79
8562.00,0.79
8560.00,0.80
8558.00,0.80
8556.00,0.79
8554.00,0.79
8552.00,0.79
8550.00,0.78
8548.00,0.78
8546.00,0.77
8544.00,0.77
8542.00,0.77
8540.00,0.77
8538.00,0.77
8536.00,0.77
8534.00,0.78
8532.00,0.78
8530.00,0.78
8528.00,0.78
8526.00,0.79
8524.00,0.79
8522.00,0.79
8520.00,0.78
8518.00,0.78
8516.00,0.78
8514.00,0.78
8512.00,0.78
8510.00,0.78
8508.00,0.78
8506.00,0.78
8504.00,0.78
8502.00,0.77
8500.00,0.77
8498.00,0.77
8496.00,0.77
8494.00,0.77
8492.00,0.77
8490.00,0.77
8488.00,0.78
8486.00,0.78
8484.00,0.78
8482.00,0.78
8480.00,0.78
8478.00,0.78
8476.00,0.78
8474.00,0.78
8472.00,0.78
8470.00,0.78
8468.00,0.78
8466.00,0.78
8464.00,0.78
8462.00,0.78
8460.00,0.77
8458.00,0.77
8456.00,0.77
8454.00,0.77
8452.00,0.77
8450.00,0.77
8448.00,0.77
8446.00,0.77
8444.00,0.77
8442.00,0.77
8440.00,0.77
8438.00,0.77
8436.00,0.77
8434.00,0.77
8432.00,0.77
8430.00,0.77
8428.00,0.78
8426.00,0.78
8424.00,0.78
8422.00,0.78
8420.00,0.78
8418.00,0.78
8416.00,0.78
8414.00,0.78
8412.00,0.78
8410.00,0.78
8408.00,0.78
8406.00,0.78
8404.00,0.78
8402.00,0.78
8400.00,0.78
8398.00,0.78
8396.00,0.77
8394.00,0.77
8392.00,0.77
8390.00,0.77
8388.00,0.78
8386.00,0.78
8384.00,0.78
8382.00,0.78
8380.00,0.78
8378.00,0.78
8376.00,0.78
8374.00,0.78
8372.00,0.78
8370.00,0.79
8368.00,0.79
8366.00,0.79
8364.00,0.79
8362.00,0.79
8360.00,0.79
8358.00,0.79
8356.00,0.79
8354.00,0.79
8352.00,0.79
8350.00,0.79
8348.00,0.79
8346.00,0.79
8344.00,0.79
8342.00,0.79
8340.00,0.78
8338.00,0.78
8336.00,0.78
8334.00,0.78
8332.00,0.78
8330.00,0.78
8328.00,0.78
8326.00,0.78
8324.00,0.78
8322.00,0.78
8320.00,0.78
8318.00,0.79
8316.00,0.79
8314.00,0.79
8312.00,0.79
8310.00,0.79
8308.00,0.79
8306.00,0.79
8304.00,0.79
8302.00,0.79
8300.00,0.79
8298.00,0.79
8296.00,0.78
8294.00,0.78
8292.00,0.78
8290.00,0.78
8288.00,0.78
8286.00,0.78
8284.00,0.78
8282.00,0.78
8280.00,0.79
8278.00,0.79
8276.00,0.79
8274.00,0.79
8272.00,0.79
8270.00,0.79
8268.00,0.79
8266.00,0.79
8264.00,0.79
8262.00,0.79
8260.00,0.79
8258.00,0.79
8256.00,0.78
8254.00,0.78
8252.00,0.78
8250.00,0.78
8248.00,0.78
8246.00,0.78
8244.00,0.78
8242.00,0.78
8240.00,0.78
8238.00,0.78
8236.00,0.78
8234.00,0.78
8232.00,0.78
8230.00,0.78
8228.00,0.78
8226.00,0.78
8224.00,0.78
8222.00,0.78
8220.00,0.78
8218.00,0.78
8216.00,0.77
8214.00,0.77
8212.00,0.77
8210.00,0.77
8208.00,0.77
8206.00,0.77
8204.00,0.77
8202.00,0.77
8200.00,0.78
8198.00,0.78
8196.00,0.78
8194.00,0.79
8192.00,0.79
8190.00,0.79
8188.00,0.79
8186.00,0.79
8184.00,0.79
8182.00,0.79
8180.00,0.79
8178.00,0.79
8176.00,0.79
8174.00,0.79
8172.00,0.79
8170.00,0.78
8168.00,0.78
8166.00,0.78
8164.00,0.78
8162.00,0.78
8160.00,0.78
8158.00,0.78
8156.00,0.79
8154.00,0.79
8152.00,0.79
8150.00,0.79
8148.00,0.79
8146.00,0.79
8144.00,0.79
8142.00,0.79
8140.00,0.79
8138.00,0.79
8136.00,0.79
8134.00,0.79
8132.00,0.78
8130.00,0.78
8128.00,0.78
8126.00,0.78
8124.00,0.78
8122.00,0.78
8120.00,0.78
8118.00,0.78
8116.00,0.78
8114.00,0.78
8112.00,0.79
8110.00,0.79
8108.00,0.79
8106.00,0.79
8104.00,0.79
8102.00,0.79
8100.00,0.79
8098.00,0.79
8096.00,0.79
8094.00,0.79
8092.00,0.79
8090.00,0.79
8088.00,0.79
8086.00,0.79
8084.00,0.79
8082.00,0.79
8080.00,0.79
8078.00,0.79
8076.00,0.79
8074.00,0.79
8072.00,0.79
8070.00,0.79
8068.00,0.79
8066.00,0.79
8064.00,0.79
8062.00,0.79
8060.00,0.79
8058.00,0.79
8056.00,0.79
8054.00,0.79
8052.00,0.79
8050.00,0.79
8048.00,0.79
8046.00,0.79
8044.00,0.79
8042.00,0.79
8040.00,0.79
8038.00,0.79
8036.00,0.78
8034.00,0.78
8032.00,0.78
8030.00,0.78
8028.00,0.78
8026.00,0.78
8024.00,0.78
8022.00,0.79
8020.00,0.79
8018.00,0.79
8016.00,0.79
8014.00,0.79
8012.00,0.79
8010.00,0.79
8008.00,0.79
8006.00,0.79
8004.00,0.79
8002.00,0.79
8000.00,0.79
7998.00,0.78
7996.00,0.78
7994.00,0.78
7992.00,0.79
7990.00,0.79
7988.00,0.79
7986.00,0.79
7984.00,0.79
7982.00,0.80
7980.00,0.80
7978.00,0.80
7976.00,0.80
7974.00,0.80
7972.00,0.79
7970.00,0.79
7968.00,0.79
7966.00,0.79
7964.00,0.79
7962.00,0.79
7960.00,0.79
7958.00,0.79
7956.00,0.79
7954.00,0.79
7952.00,0.79
7950.00,0.79
7948.00,0.79
7946.00,0.79
7944.00,0.79
7942.00,0.79
7940.00,0.79
7938.00,0.79
7936.00,0.79
7934.00,0.79
7932.00,0.79
7930.00,0.79
7928.00,0.79
7926.00,0.79
7924.00,0.79
7922.00,0.79
7920.00,0.79
7918.00,0.79
7916.00,0.79
7914.00,0.79
7912.00,0.79
7910.00,0.79
7908.00,0.79
7906.00,0.79
7904.00,0.78
7902.00,0.78
7900.00,0.78
7898.00,0.78
7896.00,0.79
7894.00,0.79
7892.00,0.79
7890.00,0.79
7888.00,0.79
7886.00,0.79
7884.00,0.79
7882.00,0.79
7880.00,0.79
7878.00,0.79
7876.00,0.79
7874.00,0.79
7872.00,0.79
7870.00,0.79
7868.00,0.79
7866.00,0.79
7864.00,0.79
7862.00,0.80
7860.00,0.80
7858.00,0.80
7856.00,0.80
7854.00,0.80
7852.00,0.80
7850.00,0.80
7848.00,0.80
7846.00,0.80
7844.00,0.80
7842.00,0.80
7840.00,0.80
7838.00,0.80
7836.00,0.80
7834.00,0.80
7832.00,0.80
7830.00,0.80
7828.00,0.79
7826.00,0.79
7824.00,0.79
7822.00,0.79
7820.00,0.79
7818.00,0.79
7816.00,0.79
7814.00,0.79
7812.00,0.80
7810.00,0.80
7808.00,0.80
7806.00,0.80
7804.00,0.80
7802.00,0.79
7800.00,0.79
7798.00,0.79
7796.00,0.79
7794.00,0.79
7792.00,0.79
7790.00,0.79
7788.00,0.79
7786.00,0.80
7784.00,0.80
7782.00,0.80
7780.00,0.80
7778.00,0.79
7776.00,0.79
7774.00,0.79
7772.00,0.79
7770.00,0.79
7768.00,0.79
7766.00,0.80
7764.00,0.80
7762.00,0.80
7760.00,0.80
7758.00,0.80
7756.00,0.80
7754.00,0.80
7752.00,0.79
7750.00,0.79
7748.00,0.79
7746.00,0.79
7744.00,0.79
7742.00,0.78
7740.00,0.79
7738.00,0.79
7736.00,0.79
7734.00,0.79
7732.00,0.79
7730.00,0.80
7728.00,0.80
7726.00,0.80
7724.00,0.80
7722.00,0.80
7720.00,0.79
7718.00,0.79
7716.00,0.79
7714.00,0.79
7712.00,0.79
7710.00,0.79
7708.00,0.79
7706.00,0.79
7704.00,0.79
7702.00,0.79
7700.00,0.79
7698.00,0.79
7696.00,0.79
7694.00,0.79
7692.00,0.79
7690.00,0.79
7688.00,0.79
7686.00,0.79
7684.00,0.79
7682.00,0.79
7680.00,0.79
7678.00,0.79
7676.00,0.79
7674.00,0.79
7672.00,0.79
7670.00,0.79
7668.00,0.79
7666.00,0.79
7664.00,0.79
7662.00,0.79
7660.00,0.79
7658.00,0.79
7656.00,0.79
7654.00,0.79
7652.00,0.79
7650.00,0.80
7648.00,0.80
7646.00,0.80
7644.00,0.80
7642.00,0.80
7640.00,0.80
7638.00,0.80
7636.00,0.80
7634.00,0.80
7632.00,0.79
7630.00,0.79
7628.00,0.79
7626.00,0.79
7624.00,0.79
7622.00,0.79
7620.00,0.79
7618.00,0.79
7616.00,0.79
7614.00,0.79
7612.00,0.79
7610.00,0.79
7608.00,0.79
7606.00,0.79
7604.00,0.79
7602.00,0.79
7600.00,0.79
7598.00,0.79
7596.00,0.79
7594.00,0.79
7592.00,0.79
7590.00,0.79
7588.00,0.79
7586.00,0.79
7584.00,0.80
7582.00,0.80
7580.00,0.80
7578.00,0.80
7576.00,0.80
7574.00,0.79
7572.00,0.79
7570.00,0.79
7568.00,0.79
7566.00,0.79
7564.00,0.79
7562.00,0.79
7560.00,0.79
7558.00,0.79
7556.00,0.79
7554.00,0.79
7552.00,0.79
7550.00,0.79
7548.00,0.79
7546.00,0.79
7544.00,0.79
7542.00,0.79
7540.00,0.79
7538.00,0.79
7536.00,0.79
7534.00,0.79
7532.00,0.79
7530.00,0.79
7528.00,0.79
7526.00,0.78
7524.00,0.78
7522.00,0.78
7520.00,0.78
7518.00,0.78
7516.00,0.78
7514.00,0.78
7512.00,0.78
7510.00,0.79
7508.00,0.79
7506.00,0.79
7504.00,0.79
7502.00,0.79
7500.00,0.79
7498.00,0.79
7496.00,0.79
7494.00,0.79
7492.00,0.79
7490.00,0.79
7488.00,0.79
7486.00,0.79
7484.00,0.79
7482.00,0.79
7480.00,0.79
7478.00,0.79
7476.00,0.79
7474.00,0.80
7472.00,0.80
7470.00,0.80
7468.00,0.80
7466.00,0.80
7464.00,0.80
7462.00,0.79
7460.00,0.79
7458.00,0.79
7456.00,0.79
7454.00,0.79
7452.00,0.79
7450.00,0.79
7448.00,0.79
7446.00,0.79
7444.00,0.79
7442.00,0.79
7440.00,0.79
7438.00,0.79
7436.00,0.79
7434.00,0.79
7432.00,0.79
7430.00,0.79
7428.00,0.79
7426.00,0.78
7424.00,0.78
7422.00,0.78
7420.00,0.78
7418.00,0.78
7416.00,0.78
7414.00,0.78
7412.00,0.79
7410.00,0.79
7408.00,0.79
7406.00,0.79
7404.00,0.79
7402.00,0.79
7400.00,0.79
7398.00,0.79
7396.00,0.78
7394.00,0.78
7392.00,0.78
7390.00,0.78
7388.00,0.78
7386.00,0.78
7384.00,0.78
7382.00,0.78
7380.00,0.78
7378.00,0.78
7376.00,0.78
7374.00,0.78
7372.00,0.78
7370.00,0.78
7368.00,0.78
7366.00,0.78
7364.00,0.78
7362.00,0.78
7360.00,0.78
7358.00,0.78
7356.00,0.78
7354.00,0.78
7352.00,0.78
7350.00,0.78
7348.00,0.78
7346.00,0.78
7344.00,0.78
7342.00,0.78
7340.00,0.78
7338.00,0.77
7336.00,0.77
7334.00,0.77
7332.00,0.77
7330.00,0.77
7328.00,0.77
7326.00,0.77
7324.00,0.77
7322.00,0.77
7320.00,0.77
7318.00,0.77
7316.00,0.77
7314.00,0.77
7312.00,0.77
7310.00,0.77
7308.00,0.77
7306.00,0.77
7304.00,0.77
7302.00,0.77
7300.00,0.77
7298.00,0.77
7296.00,0.77
7294.00,0.77
7292.00,0.77
7290.00,0.77
7288.00,0.77
7286.00,0.77
7284.00,0.77
7282.00,0.77
7280.00,0.77
7278.00,0.77
7276.00,0.77
7274.00,0.77
7272.00,0.77
7270.00,0.77
7268.00,0.78
7266.00,0.78
7264.00,0.78
7262.00,0.78
7260.00,0.78
7258.00,0.78
7256.00,0.78
7254.00,0.78
7252.00,0.78
7250.00,0.78
7248.00,0.78
7246.00,0.78
7244.00,0.77
7242.00,0.77
7240.00,0.77
7238.00,0.77
7236.00,0.77
7234.00,0.77
7232.00,0.76
7230.00,0.76
7228.00,0.76
7226.00,0.77
7224.00,0.77
7222.00,0.77
7220.00,0.77
7218.00,0.77
7216.00,0.77
7214.00,0.77
7212.00,0.76
7210.00,0.76
7208.00,0.76
7206.00,0.76
7204.00,0.76
7202.00,0.76
7200.00,0.76
7198.00,0.76
7196.00,0.76
7194.00,0.76
7192.00,0.76
7190.00,0.76
7188.00,0.76
7186.00,0.76
7184.00,0.76
7182.00,0.75
7180.00,0.75
7178.00,0.75
7176.00,0.75
7174.00,0.75
7172.00,0.75
7170.00,0.75
7168.00,0.75
7166.00,0.75
7164.00,0.75
7162.00,0.75
7160.00,0.74
7158.00,0.75
7156.00,0.75
7154.00,0.75
7152.00,0.75
7150.00,0.75
7148.00,0.75
7146.00,0.75
7144.00,0.75
7142.00,0.75
7140.00,0.75
7138.00,0.74
7136.00,0.74
7134.00,0.74
7132.00,0.74
7130.00,0.74
7128.00,0.74
7126.00,0.74
7124.00,0.74
7122.00,0.74
7120.00,0.74
7118.00,0.74
7116.00,0.74
7114.00,0.74
7112.00,0.74
7110.00,0.74
7108.00,0.74
7106.00,0.74
7104.00,0.74
7102.00,0.74
7100.00,0.74
7098.00,0.74
7096.00,0.74
7094.00,0.74
7092.00,0.74
7090.00,0.74
7088.00,0.74
7086.00,0.73
7084.00,0.73
7082.00,0.73
7080.00,0.73
7078.00,0.73
7076.00,0.73
7074.00,0.73
7072.00,0.73
7070.00,0.72
7068.00,0.72
7066.00,0.73
7064.00,0.73
7062.00,0.73
7060.00,0.73
7058.00,0.73
7056.00,0.73
7054.00,0.73
7052.00,0.73
7050.00,0.73
7048.00,0.73
7046.00,0.73
7044.00,0.73
7042.00,0.73
7040.00,0.73
7038.00,0.73
7036.00,0.73
7034.00,0.73
7032.00,0.73
7030.00,0.73
7028.00,0.73
7026.00,0.72
7024.00,0.72
7022.00,0.72
7020.00,0.72
7018.00,0.72
7016.00,0.72
7014.00,0.72
7012.00,0.72
7010.00,0.72
7008.00,0.72
7006.00,0.72
7004.00,0.72
7002.00,0.72
7000.00,0.72
6998.00,0.72
6996.00,0.72
6994.00,0.72
6992.00,0.72
6990.00,0.72
6988.00,0.72
6986.00,0.72
6984.00,0.72
6982.00,0.72
6980.00,0.72
6978.00,0.72
6976.00,0.72
6974.00,0.72
6972.00,0.72
6970.00,0.72
6968.00,0.72
6966.00,0.72
6964.00,0.72
6962.00,0.72
6960.00,0.72
6958.00,0.72
6956.00,0.72
6954.00,0.72
6952.00,0.72
6950.00,0.72
6948.00,0.72
6946.00,0.72
6944.00,0.72
6942.00,0.72
6940.00,0.72
6938.00,0.72
6936.00,0.72
6934.00,0.72
6932.00,0.72
6930.00,0.72
6928.00,0.72
6926.00,0.72
6924.00,0.72
6922.00,0.72
6920.00,0.72
6918.00,0.72
6916.00,0.72
6914.00,0.72
6912.00,0.72
6910.00,0.72
6908.00,0.72
6906.00,0.72
6904.00,0.72
6902.00,0.72
6900.00,0.72
6898.00,0.72
6896.00,0.72
6894.00,0.72
6892.00,0.71
6890.00,0.71
6888.00,0.72
6886.00,0.72
6884.00,0.72
6882.00,0.72
6880.00,0.72
6878.00,0.72
6876.00,0.72
6874.00,0.72
6872.00,0.72
6870.00,0.72
6868.00,0.72
6866.00,0.72
6864.00,0.72
6862.00,0.72
6860.00,0.72
6858.00,0.72
6856.00,0.72
6854.00,0.72
6852.00,0.72
6850.00,0.72
6848.00,0.72
6846.00,0.72
6844.00,0.72
6842.00,0.72
6840.00,0.72
6838.00,0.72
6836.00,0.72
6834.00,0.72
6832.00,0.72
6830.00,0.72
6828.00,0.72
6826.00,0.72
6824.00,0.72
6822.00,0.72
6820.00,0.72
6818.00,0.72
6816.00,0.72
6814.00,0.72
6812.00,0.72
6810.00,0.72
6808.00,0.72
6806.00,0.72
6804.00,0.72
6802.00,0.72
6800.00,0.72
6798.00,0.72
6796.00,0.72
6794.00,0.72
6792.00,0.72
6790.00,0.72
6788.00,0.72
6786.00,0.72
6784.00,0.72
6782.00,0.72
6780.00,0.72
6778.00,0.71
6776.00,0.72
6774.00,0.72
6772.00,0.72
6770.00,0.72
6768.00,0.72
6766.00,0.72
6764.00,0.72
6762.00,0.72
6760.00,0.72
6758.00,0.72
6756.00,0.72
6754.00,0.72
6752.00,0.72
6750.00,0.72
6748.00,0.72
6746.00,0.72
6744.00,0.73
6742.00,0.73
6740.00,0.73
6738.00,0.73
6736.00,0.73
6734.00,0.73
6732.00,0.73
6730.00,0.73
6728.00,0.73
6726.00,0.73
6724.00,0.73
6722.00,0.73
6720.00,0.73
6718.00,0.73
6716.00,0.73
6714.00,0.73
6712.00,0.73
6710.00,0.73
6708.00,0.73
6706.00,0.73
6704.00,0.73
6702.00,0.73
6700.00,0.73
6698.00,0.73
6696.00,0.73
6694.00,0.73
6692.00,0.73
6690.00,0.73
6688.00,0.73
6686.00,0.73
6684.00,0.73
6682.00,0.73
6680.00,0.73
6678.00,0.73
6676.00,0.73
6674.00,0.73
6672.00,0.73
6670.00,0.73
6668.00,0.73
6666.00,0.73
6664.00,0.73
6662.00,0.73
6660.00,0.73
6658.00,0.73
6656.00,0.73
6654.00,0.73
6652.00,0.73
6650.00,0.73
6648.00,0.73
6646.00,0.73
6644.00,0.73
6642.00,0.73
6640.00,0.73
6638.00,0.73
6636.00,0.73
6634.00,0.74
6632.00,0.74
6630.00,0.74
6628.00,0.74
6626.00,0.74
6624.00,0.73
6622.00,0.73
6620.00,0.73
6618.00,0.73
6616.00,0.73
6614.00,0.73
6612.00,0.73
6610.00,0.73
6608.00,0.73
6606.00,0.73
6604.00,0.73
6602.00,0.73
6600.00,0.74
6598.00,0.74
6596.00,0.74
6594.00,0.74
6592.00,0.74
6590.00,0.74
6588.00,0.74
6586.00,0.74
6584.00,0.74
6582.00,0.74
6580.00,0.74
6578.00,0.74
6576.00,0.74
6574.00,0.74
6572.00,0.74
6570.00,0.74
6568.00,0.74
6566.00,0.74
6564.00,0.74
6562.00,0.74
6560.00,0.74
6558.00,0.74
6556.00,0.75
6554.00,0.75
6552.00,0.75
6550.00,0.75
6548.00,0.75
6546.00,0.75
6544.00,0.75
6542.00,0.75
6540.00,0.75
6538.00,0.75
6536.00,0.75
6534.00,0.75
6532.00,0.75
6530.00,0.75
6528.00,0.75
6526.00,0.75
6524.00,0.75
6522.00,0.75
6520.00,0.75
6518.00,0.75
6516.00,0.75
6514.00,0.75
6512.00,0.75
6510.00,0.75
6508.00,0.75
6506.00,0.75
6504.00,0.75
6502.00,0.75
6500.00,0.75
6498.00,0.74
6496.00,0.74
6494.00,0.74
6492.00,0.74
6490.00,0.74
6488.00,0.74
6486.00,0.74
6484.00,0.74
6482.00,0.74
6480.00,0.74
6478.00,0.74
6476.00,0.74
6474.00,0.74
6472.00,0.74
6470.00,0.74
6468.00,0.74
6466.00,0.74
6464.00,0.75
6462.00,0.75
6460.00,0.75
6458.00,0.75
6456.00,0.75
6454.00,0.75
6452.00,0.75
6450.00,0.75
6448.00,0.75
6446.00,0.75
6444.00,0.75
6442.00,0.74
6440.00,0.74
6438.00,0.74
6436.00,0.74
6434.00,0.74
6432.00,0.75
6430.00,0.75
6428.00,0.75
6426.00,0.75
6424.00,0.75
6422.00,0.75
6420.00,0.75
6418.00,0.75
6416.00,0.75
6414.00,0.75
6412.00,0.75
6410.00,0.75
6408.00,0.75
6406.00,0.75
6404.00,0.76
6402.00,0.76
6400.00,0.76
6398.00,0.76
6396.00,0.76
6394.00,0.76
6392.00,0.76
6390.00,0.75
6388.00,0.75
6386.00,0.75
6384.00,0.75
6382.00,0.75
6380.00,0.75
6378.00,0.75
6376.00,0.75
6374.00,0.75
6372.00,0.75
6370.00,0.75
6368.00,0.75
6366.00,0.75
6364.00,0.75
6362.00,0.75
6360.00,0.75
6358.00,0.75
6356.00,0.75
6354.00,0.75
6352.00,0.75
6350.00,0.75
6348.00,0.75
6346.00,0.76
6344.00,0.76
6342.00,0.76
6340.00,0.76
6338.00,0.76
6336.00,0.76
6334.00,0.76
6332.00,0.76
6330.00,0.76
6328.00,0.76
6326.00,0.76
6324.00,0.76
6322.00,0.76
6320.00,0.76
6318.00,0.76
6316.00,0.75
6314.00,0.75
6312.00,0.75
6310.00,0.75
6308.00,0.75
6306.00,0.75
6304.00,0.75
6302.00,0.76
6300.00,0.76
6298.00,0.76
6296.00,0.76
6294.00,0.76
6292.00,0.76
6290.00,0.76
6288.00,0.76
6286.00,0.76
6284.00,0.76
6282.00,0.76
6280.00,0.76
6278.00,0.76
6276.00,0.76
6274.00,0.76
6272.00,0.76
6270.00,0.76
6268.00,0.76
6266.00,0.76
6264.00,0.76
6262.00,0.76
6260.00,0.76
6258.00,0.76
6256.00,0.76
6254.00,0.76
6252.00,0.76
6250.00,0.76
6248.00,0.76
6246.00,0.76
6244.00,0.76
6242.00,0.76
6240.00,0.76
6238.00,0.76
6236.00,0.76
6234.00,0.76
6232.00,0.76
6230.00,0.76
6228.00,0.76
6226.00,0.76
6224.00,0.76
6222.00,0.76
6220.00,0.76
6218.00,0.76
6216.00,0.77
6214.00,0.77
6212.00,0.77
6210.00,0.77
6208.00,0.77
6206.00,0.77
6204.00,0.77
6202.00,0.77
6200.00,0.77
6198.00,0.77
6196.00,0.77
6194.00,0.77
6192.00,0.77
6190.00,0.77
6188.00,0.77
6186.00,0.77
6184.00,0.77
6182.00,0.77
6180.00,0.77
6178.00,0.77
6176.00,0.77
6174.00,0.77
6172.00,0.77
6170.00,0.77
6168.00,0.77
6166.00,0.77
6164.00,0.77
6162.00,0.77
6160.00,0.77
6158.00,0.77
6156.00,0.77
6154.00,0.77
6152.00,0.77
6150.00,0.77
6148.00,0.77
6146.00,0.78
6144.00,0.78
6142.00,0.78
6140.00,0.78
6138.00,0.78
6136.00,0.78
6134.00,0.78
6132.00,0.78
6130.00,0.78
6128.00,0.78
6126.00,0.78
6124.00,0.78
6122.00,0.78
6120.00,0.78
6118.00,0.78
6116.00,0.78
6114.00,0.78
6112.00,0.78
6110.00,0.78
6108.00,0.78
6106.00,0.78
6104.00,0.78
6102.00,0.78
6100.00,0.78
6098.00,0.78
6096.00,0.78
6094.00,0.78
6092.00,0.78
6090.00,0.78
6088.00,0.78
6086.00,0.78
6084.00,0.78
6082.00,0.78
6080.00,0.78
6078.00,0.78
6076.00,0.78
6074.00,0.78
6072.00,0.78
6070.00,0.78
6068.00,0.78
6066.00,0.78
6064.00,0.78
6062.00,0.78
6060.00,0.78
6058.00,0.78
6056.00,0.78
6054.00,0.78
6052.00,0.78
6050.00,0.78
6048.00,0.78
6046.00,0.78
6044.00,0.78
6042.00,0.78
6040.00,0.78
6038.00,0.78
6036.00,0.79
6034.00,0.79
6032.00,0.79
6030.00,0.79
6028.00,0.79
6026.00,0.79
6024.00,0.79
6022.00,0.79
6020.00,0.79
6018.00,0.79
6016.00,0.79
6014.00,0.79
6012.00,0.79
6010.00,0.79
6008.00,0.79
6006.00,0.79
6004.00,0.79
6002.00,0.79
6000.00,0.79
5998.00,0.79
5996.00,0.79
5994.00,0.79
5992.00,0.79
5990.00,0.79
5988.00,0.79
5986.00,0.79
5984.00,0.78
5982.00,0.78
5980.00,0.78
5978.00,0.78
5976.00,0.78
5974.00,0.78
5972.00,0.78
5970.00,0.78
5968.00,0.78
5966.00,0.78
5964.00,0.78
5962.00,0.78
5960.00,0.78
5958.00,0.77
5956.00,0.77
5954.00,0.77
5952.00,0.77
5950.00,0.77
5948.00,0.77
5946.00,0.77
5944.00,0.76
5942.00,0.76
5940.00,0.76
5938.00,0.77
5936.00,0.77
5934.00,0.77
5932.00,0.77
5930.00,0.77
5928.00,0.77
5926.00,0.77
5924.00,0.77
5922.00,0.77
5920.00,0.77
5918.00,0.76
5916.00,0.76
5914.00,0.76
5912.00,0.76
5910.00,0.76
5908.00,0.76
5906.00,0.76
5904.00,0.76
5902.00,0.76
5900.00,0.76
5898.00,0.76
5896.00,0.76
5894.00,0.76
5892.00,0.76
5890.00,0.76
5888.00,0.76
5886.00,0.76
5884.00,0.76
5882.00,0.76
5880.00,0.76
5878.00,0.76
5876.00,0.76
5874.00,0.76
5872.00,0.76
5870.00,0.77
5868.00,0.77
5866.00,0.77
5864.00,0.77
5862.00,0.77
5860.00,0.77
5858.00,0.77
5856.00,0.77
5854.00,0.77
5852.00,0.77
5850.00,0.77
5848.00,0.77
5846.00,0.77
5844.00,0.77
5842.00,0.77
5840.00,0.77
5838.00,0.77
5836.00,0.77
5834.00,0.77
5832.00,0.77
5830.00,0.77
5828.00,0.77
5826.00,0.77
5824.00,0.77
5822.00,0.77
5820.00,0.77
5818.00,0.77
5816.00,0.77
5814.00,0.77
5812.00,0.77
5810.00,0.77
5808.00,0.77
5806.00,0.77
5804.00,0.77
5802.00,0.77
5800.00,0.77
5798.00,0.77
5796.00,0.77
5794.00,0.77
5792.00,0.77
5790.00,0.77
5788.00,0.77
5786.00,0.77
5784.00,0.77
5782.00,0.77
5780.00,0.77
5778.00,0.77
5776.00,0.77
5774.00,0.77
5772.00,0.77
5770.00,0.77
5768.00,0.77
5766.00,0.77
5764.00,0.77
5762.00,0.77
5760.00,0.77
5758.00,0.77
5756.00,0.77
5754.00,0.77
5752.00,0.77
5750.00,0.77
5748.00,0.77
5746.00,0.77
5744.00,0.78
5742.00,0.78
5740.00,0.78
5738.00,0.78
5736.00,0.78
5734.00,0.78
5732.00,0.78
5730.00,0.78
5728.00,0.78
5726.00,0.78
5724.00,0.78
5722.00,0.78
5720.00,0.78
5718.00,0.78
5716.00,0.78
5714.00,0.78
5712.00,0.78
5710.00,0.78
5708.00,0.78
5706.00,0.78
5704.00,0.78
5702.00,0.78
5700.00,0.78
5698.00,0.78
5696.00,0.78
5694.00,0.78
5692.00,0.78
5690.00,0.78
5688.00,0.78
5686.00,0.78
5684.00,0.78
5682.00,0.78
5680.00,0.78
5678.00,0.78
5676.00,0.78
5674.00,0.78
5672.00,0.78
5670.00,0.78
5668.00,0.78
5666.00,0.78
5664.00,0.78
5662.00,0.78
5660.00,0.78
5658.00,0.78
5656.00,0.78
5654.00,0.78
5652.00,0.78
5650.00,0.78
5648.00,0.78
5646.00,0.78
5644.00,0.78
5642.00,0.78
5640.00,0.78
5638.00,0.78
5636.00,0.78
5634.00,0.78
5632.00,0.78
5630.00,0.78
5628.00,0.78
5626.00,0.78
5624.00,0.78
5622.00,0.79
5620.00,0.79
5618.00,0.79
5616.00,0.79
5614.00,0.79
5612.00,0.79
5610.00,0.79
5608.00,0.79
5606.00,0.79
5604.00,0.79
5602.00,0.79
5600.00,0.79
5598.00,0.79
5596.00,0.79
5594.00,0.79
5592.00,0.79
5590.00,0.79
5588.00,0.79
5586.00,0.79
5584.00,0.79
5582.00,0.79
5580.00,0.80
5578.00,0.80
5576.00,0.80
5574.00,0.80
5572.00,0.80
5570.00,0.80
5568.00,0.80
5566.00,0.80
5564.00,0.80
5562.00,0.80
5560.00,0.80
5558.00,0.80
5556.00,0.80
5554.00,0.80
5552.00,0.80
5550.00,0.80
5548.00,0.80
5546.00,0.80
5544.00,0.80
5542.00,0.80
5540.00,0.80
5538.00,0.80
5536.00,0.80
5534.00,0.80
5532.00,0.80
5530.00,0.80
5528.00,0.80
5526.00,0.80
5524.00,0.80
5522.00,0.80
5520.00,0.80
5518.00,0.80
5516.00,0.80
5514.00,0.80
5512.00,0.80
5510.00,0.80
5508.00,0.80
5506.00,0.80
5504.00,0.80
5502.00,0.80
5500.00,0.80
5498.00,0.80
5496.00,0.80
5494.00,0.80
5492.00,0.80
5490.00,0.80
5488.00,0.80
5486.00,0.80
5484.00,0.80
5482.00,0.80
5480.00,0.80
5478.00,0.80
5476.00,0.80
5474.00,0.80
5472.00,0.80
5470.00,0.80
5468.00,0.80
5466.00,0.80
5464.00,0.80
5462.00,0.80
5460.00,0.80
5458.00,0.80
5456.00,0.80
5454.00,0.81
5452.00,0.81
5450.00,0.81
5448.00,0.81
5446.00,0.81
5444.00,0.81
5442.00,0.81
5440.00,0.81
5438.00,0.80
5436.00,0.80
5434.00,0.81
5432.00,0.81
5430.00,0.81
5428.00,0.81
5426.00,0.81
5424.00,0.81
5422.00,0.81
5420.00,0.81
5418.00,0.81
5416.00,0.81
5414.00,0.81
5412.00,0.81
5410.00,0.81
5408.00,0.81
5406.00,0.81
5404.00,0.81
5402.00,0.81
5400.00,0.81
5398.00,0.81
5396.00,0.81
5394.00,0.81
5392.00,0.81
5390.00,0.81
5388.00,0.81
5386.00,0.81
5384.00,0.81
5382.00,0.81
5380.00,0.81
5378.00,0.81
5376.00,0.81
5374.00,0.81
5372.00,0.81
5370.00,0.81
5368.00,0.81
5366.00,0.81
5364.00,0.81
5362.00,0.81
5360.00,0.81
5358.00,0.81
5356.00,0.80
5354.00,0.80
5352.00,0.80
5350.00,0.80
5348.00,0.80
5346.00,0.80
5344.00,0.79
5342.00,0.79
5340.00,0.79
5338.00,0.79
5336.00,0.79
5334.00,0.79
5332.00,0.78
5330.00,0.78
5328.00,0.78
5326.00,0.78
5324.00,0.78
5322.00,0.78
5320.00,0.77
5318.00,0.77
5316.00,0.77
5314.00,0.77
5312.00,0.76
5310.00,0.76
5308.00,0.76
5306.00,0.75
5304.00,0.75
5302.00,0.75
5300.00,0.75
5298.00,0.74
5296.00,0.74
5294.00,0.74
5292.00,0.74
5290.00,0.73
5288.00,0.73
5286.00,0.73
5284.00,0.73
5282.00,0.73
5280.00,0.72
5278.00,0.72
5276.00,0.72
5274.00,0.72
5272.00,0.72
5270.00,0.72
5268.00,0.71
5266.00,0.71
5264.00,0.71
5262.00,0.71
5260.00,0.71
5258.00,0.71
5256.00,0.70
5254.00,0.70
5252.00,0.70
5250.00,0.70
5248.00,0.70
5246.00,0.70
5244.00,0.70
5242.00,0.69
5240.00,0.69
5238.00,0.69
5236.00,0.69
5234.00,0.69
5232.00,0.69
5230.00,0.69
5228.00,0.69
5226.00,0.69
5224.00,0.68
5222.00,0.68
5220.00,0.68
5218.00,0.68
5216.00,0.68
5214.00,0.68
5212.00,0.67
5210.00,0.67
5208.00,0.67
5206.00,0.67
5204.00,0.67
5202.00,0.67
5200.00,0.67
5198.00,0.67
5196.00,0.67
5194.00,0.67
5192.00,0.67
5190.00,0.67
5188.00,0.67
5186.00,0.67
5184.00,0.66
5182.00,0.66
5180.00,0.66
5178.00,0.67
5176.00,0.67
5174.00,0.67
5172.00,0.67
5170.00,0.67
5168.00,0.67
5166.00,0.67
5164.00,0.67
5162.00,0.67
5160.00,0.67
5158.00,0.67
5156.00,0.67
5154.00,0.67
5152.00,0.67
5150.00,0.67
5148.00,0.67
5146.00,0.67
5144.00,0.67
5142.00,0.67
5140.00,0.67
5138.00,0.67
5136.00,0.67
5134.00,0.67
5132.00,0.67
5130.00,0.68
5128.00,0.68
5126.00,0.68
5124.00,0.68
5122.00,0.68
5120.00,0.68
5118.00,0.68
5116.00,0.68
5114.00,0.68
5112.00,0.68
5110.00,0.68
5108.00,0.68
5106.00,0.69
5104.00,0.69
5102.00,0.69
5100.00,0.69
5098.00,0.69
5096.00,0.69
5094.00,0.69
5092.00,0.69
5090.00,0.69
5088.00,0.69
5086.00,0.70
5084.00,0.70
5082.00,0.70
5080.00,0.70
5078.00,0.70
5076.00,0.70
5074.00,0.70
5072.00,0.70
5070.00,0.71
5068.00,0.71
5066.00,0.71
5064.00,0.71
5062.00,0.71
5060.00,0.71
5058.00,0.71
5056.00,0.71
5054.00,0.71
5052.00,0.72
5050.00,0.72
5048.00,0.72
5046.00,0.72
5044.00,0.72
5042.00,0.72
5040.00,0.72
5038.00,0.72
5036.00,0.72
5034.00,0.72
5032.00,0.73
5030.00,0.73
5028.00,0.73
5026.00,0.73
5024.00,0.73
5022.00,0.73
5020.00,0.73
5018.00,0.73
5016.00,0.73
5014.00,0.73
5012.00,0.73
5010.00,0.73
5008.00,0.74
5006.00,0.74
5004.00,0.74
5002.00,0.74
5000.00,0.74
4998.00,0.74
4996.00,0.74
4994.00,0.74
4992.00,0.74
4990.00,0.74
4988.00,0.74
4986.00,0.74
4984.00,0.74
4982.00,0.74
4980.00,0.74
4978.00,0.75
4976.00,0.75
4974.00,0.75
4972.00,0.75
4970.00,0.75
4968.00,0.75
4966.00,0.75
4964.00,0.75
4962.00,0.75
4960.00,0.75
4958.00,0.75
4956.00,0.75
4954.00,0.75
4952.00,0.75
4950.00,0.75
4948.00,0.75
4946.00,0.75
4944.00,0.76
4942.00,0.76
4940.00,0.76
4938.00,0.76
4936.00,0.76
4934.00,0.76
4932.00,0.76
4930.00,0.75
4928.00,0.75
4926.00,0.75
4924.00,0.75
4922.00,0.75
4920.00,0.75
4918.00,0.75
4916.00,0.75
4914.00,0.75
4912.00,0.75
4910.00,0.76
4908.00,0.76
4906.00,0.76
4904.00,0.76
4902.00,0.76
4900.00,0.76
4898.00,0.76
4896.00,0.76
4894.00,0.76
4892.00,0.76
4890.00,0.76
4888.00,0.76
4886.00,0.76
4884.00,0.76
4882.00,0.76
4880.00,0.76
4878.00,0.76
4876.00,0.76
4874.00,0.76
4872.00,0.76
4870.00,0.76
4868.00,0.76
4866.00,0.76
4864.00,0.76
4862.00,0.76
4860.00,0.76
4858.00,0.76
4856.00,0.76
4854.00,0.76
4852.00,0.76
4850.00,0.76
4848.00,0.76
4846.00,0.76
4844.00,0.76
4842.00,0.76
4840.00,0.76
4838.00,0.77
4836.00,0.77
4834.00,0.77
4832.00,0.77
4830.00,0.77
4828.00,0.77
4826.00,0.77
4824.00,0.77
4822.00,0.77
4820.00,0.77
4818.00,0.77
4816.00,0.77
4814.00,0.77
4812.00,0.77
4810.00,0.77
4808.00,0.77
4806.00,0.77
4804.00,0.77
4802.00,0.77
4800.00,0.77
4798.00,0.77
4796.00,0.77
4794.00,0.77
4792.00,0.77
4790.00,0.77
4788.00,0.77
4786.00,0.77
4784.00,0.77
4782.00,0.77
4780.00,0.77
4778.00,0.77
4776.00,0.77
4774.00,0.77
4772.00,0.77
4770.00,0.77
4768.00,0.77
4766.00,0.77
4764.00,0.77
4762.00,0.78
4760.00,0.78
4758.00,0.78
4756.00,0.78
4754.00,0.78
4752.00,0.78
4750.00,0.78
4748.00,0.78
4746.00,0.78
4744.00,0.78
4742.00,0.78
4740.00,0.78
4738.00,0.78
4736.00,0.78
4734.00,0.78
4732.00,0.78
4730.00,0.78
4728.00,0.79
4726.00,0.79
4724.00,0.79
4722.00,0.79
4720.00,0.79
4718.00,0.79
4716.00,0.79
4714.00,0.79
4712.00,0.79
4710.00,0.79
4708.00,0.79
4706.00,0.79
4704.00,0.79
4702.00,0.79
4700.00,0.79
4698.00,0.79
4696.00,0.79
4694.00,0.79
4692.00,0.79
4690.00,0.79
4688.00,0.79
4686.00,0.79
4684.00,0.79
4682.00,0.79
4680.00,0.79
4678.00,0.79
4676.00,0.80
4674.00,0.80
4672.00,0.80
4670.00,0.80
4668.00,0.80
4666.00,0.80
4664.00,0.80
4662.00,0.80
4660.00,0.80
4658.00,0.80
4656.00,0.80
4654.00,0.80
4652.00,0.80
4650.00,0.80
4648.00,0.80
4646.00,0.80
4644.00,0.80
4642.00,0.80
4640.00,0.80
4638.00,0.80
4636.00,0.80
4634.00,0.80
4632.00,0.80
4630.00,0.80
4628.00,0.80
4626.00,0.80
4624.00,0.80
4622.00,0.80
4620.00,0.80
4618.00,0.80
4616.00,0.80
4614.00,0.80
4612.00,0.80
4610.00,0.80
4608.00,0.80
4606.00,0.80
4604.00,0.80
4602.00,0.80
4600.00,0.80
4598.00,0.80
4596.00,0.80
4594.00,0.80
4592.00,0.80
4590.00,0.80
4588.00,0.80
4586.00,0.80
4584.00,0.80
4582.00,0.80
4580.00,0.80
4578.00,0.80
4576.00,0.80
4574.00,0.80
4572.00,0.80
4570.00,0.80
4568.00,0.80
4566.00,0.80
4564.00,0.80
4562.00,0.80
4560.00,0.80
4558.00,0.80
4556.00,0.80
4554.00,0.81
4552.00,0.81
4550.00,0.81
4548.00,0.81
4546.00,0.81
4544.00,0.81
4542.00,0.81
4540.00,0.81
4538.00,0.81
4536.00,0.80
4534.00,0.80
4532.00,0.80
4530.00,0.80
4528.00,0.80
4526.00,0.80
4524.00,0.80
4522.00,0.81
4520.00,0.81
4518.00,0.81
4516.00,0.81
4514.00,0.81
4512.00,0.81
4510.00,0.81
4508.00,0.81
4506.00,0.81
4504.00,0.81
4502.00,0.81
4500.00,0.81
4498.00,0.81
4496.00,0.81
4494.00,0.81
4492.00,0.81
4490.00,0.81
4488.00,0.81
4486.00,0.81
4484.00,0.81
4482.00,0.80
4480.00,0.80
4478.00,0.81
4476.00,0.81
4474.00,0.81
4472.00,0.81
4470.00,0.81
4468.00,0.81
4466.00,0.81
4464.00,0.81
4462.00,0.81
4460.00,0.81
4458.00,0.80
4456.00,0.80
4454.00,0.80
4452.00,0.80
4450.00,0.79
4448.00,0.79
4446.00,0.79
4444.00,0.79
4442.00,0.78
4440.00,0.78
4438.00,0.78
4436.00,0.78
4434.00,0.77
4432.00,0.77
4430.00,0.77
4428.00,0.77
4426.00,0.76
4424.00,0.76
4422.00,0.76
4420.00,0.75
4418.00,0.75
4416.00,0.75
4414.00,0.75
4412.00,0.75
4410.00,0.74
4408.00,0.74
4406.00,0.74
4404.00,0.74
4402.00,0.75
4400.00,0.75
4398.00,0.75
4396.00,0.75
4394.00,0.75
4392.00,0.75
4390.00,0.76
4388.00,0.76
4386.00,0.76
4384.00,0.76
4382.00,0.76
4380.00,0.77
4378.00,0.77
4376.00,0.77
4374.00,0.77
4372.00,0.77
4370.00,0.77
4368.00,0.77
4366.00,0.77
4364.00,0.77
4362.00,0.77
4360.00,0.77
4358.00,0.77
4356.00,0.77
4354.00,0.76
4352.00,0.76
4350.00,0.76
4348.00,0.76
4346.00,0.75
4344.00,0.75
4342.00,0.75
4340.00,0.75
4338.00,0.75
4336.00,0.75
4334.00,0.75
4332.00,0.75
4330.00,0.76
4328.00,0.76
4326.00,0.76
4324.00,0.76
4322.00,0.77
4320.00,0.77
4318.00,0.77
4316.00,0.78
4314.00,0.78
4312.00,0.78
4310.00,0.79
4308.00,0.79
4306.00,0.79
4304.00,0.79
4302.00,0.79
4300.00,0.80
4298.00,0.80
4296.00,0.80
4294.00,0.80
4292.00,0.80
4290.00,0.81
4288.00,0.81
4286.00,0.81
4284.00,0.81
4282.00,0.81
4280.00,0.81
4278.00,0.81
4276.00,0.81
4274.00,0.81
4272.00,0.81
4270.00,0.80
4268.00,0.80
4266.00,0.80
4264.00,0.80
4262.00,0.80
4260.00,0.80
4258.00,0.80
4256.00,0.80
4254.00,0.80
4252.00,0.80
4250.00,0.80
4248.00,0.80
4246.00,0.80
4244.00,0.80
4242.00,0.80
4240.00,0.80
4238.00,0.80
4236.00,0.81
4234.00,0.81
4232.00,0.81
4230.00,0.81
4228.00,0.81
4226.00,0.81
4224.00,0.81
4222.00,0.81
4220.00,0.81
4218.00,0.81
4216.00,0.81
4214.00,0.81
4212.00,0.81
4210.00,0.81
4208.00,0.81
4206.00,0.81
4204.00,0.81
4202.00,0.81
4200.00,0.81
4198.00,0.81
4196.00,0.81
4194.00,0.81
4192.00,0.81
4190.00,0.81
4188.00,0.81
4186.00,0.81
4184.00,0.81
4182.00,0.81
4180.00,0.81
4178.00,0.81
4176.00,0.81
4174.00,0.81
4172.00,0.81
4170.00,0.81
4168.00,0.81
4166.00,0.81
4164.00,0.81
4162.00,0.81
4160.00,0.81
4158.00,0.81
4156.00,0.81
4154.00,0.81
4152.00,0.81
4150.00,0.81
4148.00,0.81
4146.00,0.81
4144.00,0.81
4142.00,0.81
4140.00,0.81
4138.00,0.81
4136.00,0.81
4134.00,0.81
4132.00,0.80
4130.00,0.80
4128.00,0.80
4126.00,0.80
4124.00,0.80
4122.00,0.80
4120.00,0.80
4118.00,0.80
4116.00,0.80
4114.00,0.80
4112.00,0.80
4110.00,0.80
4108.00,0.80
4106.00,0.80
4104.00,0.80
4102.00,0.80
4100.00,0.80
4098.00,0.80
4096.00,0.80
4094.00,0.80
4092.00,0.80
4090.00,0.80
4088.00,0.80
4086.00,0.80
4084.00,0.80
4082.00,0.80
4080.00,0.79
4078.00,0.79
4076.00,0.79
4074.00,0.79
4072.00,0.79
4070.00,0.79
4068.00,0.79
4066.00,0.79
4064.00,0.79
4062.00,0.79
4060.00,0.79
4058.00,0.79
4056.00,0.79
4054.00,0.79
4052.00,0.79
4050.00,0.79
4048.00,0.79
4046.00,0.79
4044.00,0.79
4042.00,0.79
4040.00,0.79
4038.00,0.80
4036.00,0.79
4034.00,0.79
4032.00,0.79
4030.00,0.79
4028.00,0.79
4026.00,0.79
4024.00,0.79
4022.00,0.80
4020.00,0.80
4018.00,0.80
4016.00,0.80
4014.00,0.80
4012.00,0.80
4010.00,0.80
4008.00,0.80
4006.00,0.81
4004.00,0.81
4002.00,0.81
4000.00,0.81
