创建为新数据集,样品 1685 用户 Administrator 日期 星期二, 三月 14 2017
cm-1,%T
10000.00,0.70
9998.00,0.70
9996.00,0.70
9994.00,0.70
9992.00,0.70
9990.00,0.70
9988.00,0.70
9986.00,0.70
9984.00,0.70
9982.00,0.70
9980.00,0.69
9978.00,0.69
9976.00,0.69
9974.00,0.69
9972.00,0.70
9970.00,0.70
9968.00,0.70
9966.00,0.70
9964.00,0.70
9962.00,0.70
9960.00,0.70
9958.00,0.70
9956.00,0.70
9954.00,0.70
9952.00,0.70
9950.00,0.70
9948.00,0.70
9946.00,0.70
9944.00,0.70
9942.00,0.69
9940.00,0.69
9938.00,0.69
9936.00,0.69
9934.00,0.69
9932.00,0.69
9930.00,0.70
9928.00,0.70
9926.00,0.70
9924.00,0.70
9922.00,0.70
9920.00,0.70
9918.00,0.69
9916.00,0.69
9914.00,0.69
9912.00,0.68
9910.00,0.68
9908.00,0.68
9906.00,0.68
9904.00,0.69
9902.00,0.69
9900.00,0.70
9898.00,0.70
9896.00,0.70
9894.00,0.70
9892.00,0.71
9890.00,0.71
9888.00,0.71
9886.00,0.70
9884.00,0.70
9882.00,0.70
9880.00,0.70
9878.00,0.70
9876.00,0.70
9874.00,0.70
9872.00,0.70
9870.00,0.71
9868.00,0.71
9866.00,0.71
9864.00,0.71
9862.00,0.71
9860.00,0.71
9858.00,0.70
9856.00,0.70
9854.00,0.69
9852.00,0.68
9850.00,0.68
9848.00,0.67
9846.00,0.67
9844.00,0.67
9842.00,0.67
9840.00,0.68
9838.00,0.68
9836.00,0.69
9834.00,0.69
9832.00,0.70
9830.00,0.70
9828.00,0.70
9826.00,0.70
9824.00,0.70
9822.00,0.70
9820.00,0.70
9818.00,0.69
9816.00,0.69
9814.00,0.69
9812.00,0.68
9810.00,0.68
9808.00,0.68
9806.00,0.68
9804.00,0.68
9802.00,0.68
9800.00,0.69
9798.00,0.69
9796.00,0.69
9794.00,0.68
9792.00,0.68
9790.00,0.68
9788.00,0.67
9786.00,0.67
9784.00,0.67
9782.00,0.67
9780.00,0.68
9778.00,0.68
9776.00,0.69
9774.00,0.69
9772.00,0.69
9770.00,0.70
9768.00,0.70
9766.00,0.70
9764.00,0.70
9762.00,0.70
9760.00,0.70
9758.00,0.70
9756.00,0.70
9754.00,0.69
9752.00,0.69
9750.00,0.69
9748.00,0.69
9746.00,0.69
9744.00,0.69
9742.00,0.69
9740.00,0.69
9738.00,0.69
9736.00,0.69
9734.00,0.69
9732.00,0.69
9730.00,0.69
9728.00,0.69
9726.00,0.69
9724.00,0.69
9722.00,0.69
9720.00,0.69
9718.00,0.69
9716.00,0.69
9714.00,0.69
9712.00,0.68
9710.00,0.68
9708.00,0.68
9706.00,0.68
9704.00,0.68
9702.00,0.69
9700.00,0.69
9698.00,0.69
9696.00,0.70
9694.00,0.70
9692.00,0.70
9690.00,0.70
9688.00,0.70
9686.00,0.69
9684.00,0.69
9682.00,0.69
9680.00,0.69
9678.00,0.69
9676.00,0.69
9674.00,0.69
9672.00,0.69
9670.00,0.69
9668.00,0.69
9666.00,0.70
9664.00,0.70
9662.00,0.69
9660.00,0.69
9658.00,0.69
9656.00,0.68
9654.00,0.68
9652.00,0.68
9650.00,0.68
9648.00,0.68
9646.00,0.68
9644.00,0.68
9642.00,0.68
9640.00,0.69
9638.00,0.69
9636.00,0.69
9634.00,0.69
9632.00,0.69
9630.00,0.69
9628.00,0.69
9626.00,0.69
9624.00,0.69
9622.00,0.69
9620.00,0.68
9618.00,0.68
9616.00,0.68
9614.00,0.67
9612.00,0.67
9610.00,0.67
9608.00,0.67
9606.00,0.67
9604.00,0.68
9602.00,0.68
9600.00,0.68
9598.00,0.68
9596.00,0.68
9594.00,0.68
9592.00,0.67
9590.00,0.67
9588.00,0.67
9586.00,0.67
9584.00,0.67
9582.00,0.67
9580.00,0.67
9578.00,0.67
9576.00,0.68
9574.00,0.68
9572.00,0.68
9570.00,0.68
9568.00,0.68
9566.00,0.68
9564.00,0.68
9562.00,0.68
9560.00,0.68
9558.00,0.67
9556.00,0.67
9554.00,0.67
9552.00,0.67
9550.00,0.67
9548.00,0.67
9546.00,0.68
9544.00,0.68
9542.00,0.68
9540.00,0.68
9538.00,0.68
9536.00,0.68
9534.00,0.67
9532.00,0.67
9530.00,0.67
9528.00,0.67
9526.00,0.66
9524.00,0.66
9522.00,0.66
9520.00,0.66
9518.00,0.66
9516.00,0.67
9514.00,0.67
9512.00,0.67
9510.00,0.67
9508.00,0.68
9506.00,0.68
9504.00,0.68
9502.00,0.68
9500.00,0.68
9498.00,0.68
9496.00,0.68
9494.00,0.68
9492.00,0.68
9490.00,0.68
9488.00,0.68
9486.00,0.68
9484.00,0.68
9482.00,0.68
9480.00,0.68
9478.00,0.68
9476.00,0.68
9474.00,0.68
9472.00,0.67
9470.00,0.67
9468.00,0.67
9466.00,0.67
9464.00,0.67
9462.00,0.67
9460.00,0.68
9458.00,0.68
9456.00,0.68
9454.00,0.68
9452.00,0.68
9450.00,0.68
9448.00,0.68
9446.00,0.68
9444.00,0.68
9442.00,0.68
9440.00,0.68
9438.00,0.68
9436.00,0.68
9434.00,0.67
9432.00,0.67
9430.00,0.67
9428.00,0.67
9426.00,0.67
9424.00,0.67
9422.00,0.67
9420.00,0.67
9418.00,0.67
9416.00,0.67
9414.00,0.67
9412.00,0.67
9410.00,0.67
9408.00,0.67
9406.00,0.66
9404.00,0.66
9402.00,0.66
9400.00,0.66
9398.00,0.66
9396.00,0.67
9394.00,0.67
9392.00,0.67
9390.00,0.67
9388.00,0.68
9386.00,0.68
9384.00,0.68
9382.00,0.68
9380.00,0.69
9378.00,0.69
9376.00,0.69
9374.00,0.69
9372.00,0.70
9370.00,0.70
9368.00,0.70
9366.00,0.70
9364.00,0.70
9362.00,0.70
9360.00,0.70
9358.00,0.70
9356.00,0.69
9354.00,0.69
9352.00,0.69
9350.00,0.69
9348.00,0.69
9346.00,0.69
9344.00,0.69
9342.00,0.69
9340.00,0.69
9338.00,0.69
9336.00,0.69
9334.00,0.68
9332.00,0.68
9330.00,0.67
9328.00,0.67
9326.00,0.66
9324.00,0.66
9322.00,0.66
9320.00,0.66
9318.00,0.66
9316.00,0.66
9314.00,0.66
9312.00,0.66
9310.00,0.66
9308.00,0.66
9306.00,0.66
9304.00,0.66
9302.00,0.66
9300.00,0.67
9298.00,0.67
9296.00,0.68
9294.00,0.68
9292.00,0.68
9290.00,0.69
9288.00,0.69
9286.00,0.69
9284.00,0.69
9282.00,0.69
9280.00,0.68
9278.00,0.68
9276.00,0.68
9274.00,0.68
9272.00,0.68
9270.00,0.68
9268.00,0.68
9266.00,0.68
9264.00,0.68
9262.00,0.68
9260.00,0.68
9258.00,0.68
9256.00,0.67
9254.00,0.67
9252.00,0.67
9250.00,0.67
9248.00,0.67
9246.00,0.67
9244.00,0.67
9242.00,0.67
9240.00,0.67
9238.00,0.67
9236.00,0.67
9234.00,0.67
9232.00,0.67
9230.00,0.67
9228.00,0.67
9226.00,0.67
9224.00,0.67
9222.00,0.67
9220.00,0.67
9218.00,0.67
9216.00,0.67
9214.00,0.66
9212.00,0.66
9210.00,0.66
9208.00,0.66
9206.00,0.66
9204.00,0.66
9202.00,0.67
9200.00,0.67
9198.00,0.67
9196.00,0.68
9194.00,0.68
9192.00,0.68
9190.00,0.68
9188.00,0.68
9186.00,0.68
9184.00,0.68
9182.00,0.69
9180.00,0.69
9178.00,0.69
9176.00,0.69
9174.00,0.70
9172.00,0.70
9170.00,0.70
9168.00,0.69
9166.00,0.69
9164.00,0.69
9162.00,0.69
9160.00,0.68
9158.00,0.68
9156.00,0.68
9154.00,0.68
9152.00,0.68
9150.00,0.69
9148.00,0.69
9146.00,0.69
9144.00,0.69
9142.00,0.69
9140.00,0.69
9138.00,0.69
9136.00,0.69
9134.00,0.69
9132.00,0.68
9130.00,0.68
9128.00,0.69
9126.00,0.69
9124.00,0.69
9122.00,0.69
9120.00,0.69
9118.00,0.69
9116.00,0.69
9114.00,0.69
9112.00,0.69
9110.00,0.69
9108.00,0.68
9106.00,0.68
9104.00,0.68
9102.00,0.68
9100.00,0.67
9098.00,0.67
9096.00,0.67
9094.00,0.67
9092.00,0.67
9090.00,0.67
9088.00,0.67
9086.00,0.67
9084.00,0.67
9082.00,0.66
9080.00,0.66
9078.00,0.67
9076.00,0.67
9074.00,0.67
9072.00,0.67
9070.00,0.67
9068.00,0.67
9066.00,0.68
9064.00,0.68
9062.00,0.68
9060.00,0.68
9058.00,0.68
9056.00,0.68
9054.00,0.68
9052.00,0.68
9050.00,0.68
9048.00,0.68
9046.00,0.68
9044.00,0.68
9042.00,0.68
9040.00,0.68
9038.00,0.68
9036.00,0.68
9034.00,0.68
9032.00,0.68
9030.00,0.68
9028.00,0.68
9026.00,0.68
9024.00,0.68
9022.00,0.68
9020.00,0.68
9018.00,0.68
9016.00,0.68
9014.00,0.68
9012.00,0.68
9010.00,0.68
9008.00,0.68
9006.00,0.68
9004.00,0.68
9002.00,0.68
9000.00,0.68
8998.00,0.68
8996.00,0.68
8994.00,0.68
8992.00,0.68
8990.00,0.69
8988.00,0.69
8986.00,0.69
8984.00,0.69
8982.00,0.69
8980.00,0.69
8978.00,0.69
8976.00,0.69
8974.00,0.68
8972.00,0.68
8970.00,0.68
8968.00,0.68
8966.00,0.69
8964.00,0.69
8962.00,0.69
8960.00,0.69
8958.00,0.69
8956.00,0.69
8954.00,0.70
8952.00,0.70
8950.00,0.70
8948.00,0.70
8946.00,0.70
8944.00,0.70
8942.00,0.70
8940.00,0.70
8938.00,0.70
8936.00,0.70
8934.00,0.69
8932.00,0.69
8930.00,0.69
8928.00,0.69
8926.00,0.68
8924.00,0.68
8922.00,0.68
8920.00,0.67
8918.00,0.67
8916.00,0.67
8914.00,0.67
8912.00,0.67
8910.00,0.67
8908.00,0.67
8906.00,0.67
8904.00,0.68
8902.00,0.68
8900.00,0.68
8898.00,0.67
8896.00,0.67
8894.00,0.67
8892.00,0.67
8890.00,0.67
8888.00,0.67
8886.00,0.67
8884.00,0.68
8882.00,0.68
8880.00,0.68
8878.00,0.68
8876.00,0.68
8874.00,0.68
8872.00,0.68
8870.00,0.68
8868.00,0.68
8866.00,0.68
8864.00,0.68
8862.00,0.69
8860.00,0.69
8858.00,0.69
8856.00,0.69
8854.00,0.69
8852.00,0.69
8850.00,0.69
8848.00,0.68
8846.00,0.68
8844.00,0.68
8842.00,0.68
8840.00,0.67
8838.00,0.67
8836.00,0.67
8834.00,0.67
8832.00,0.67
8830.00,0.67
8828.00,0.67
8826.00,0.67
8824.00,0.67
8822.00,0.67
8820.00,0.68
8818.00,0.68
8816.00,0.68
8814.00,0.68
8812.00,0.68
8810.00,0.68
8808.00,0.69
8806.00,0.69
8804.00,0.69
8802.00,0.69
8800.00,0.69
8798.00,0.69
8796.00,0.69
8794.00,0.69
8792.00,0.69
8790.00,0.68
8788.00,0.68
8786.00,0.68
8784.00,0.68
8782.00,0.68
8780.00,0.68
8778.00,0.68
8776.00,0.68
8774.00,0.68
8772.00,0.67
8770.00,0.67
8768.00,0.67
8766.00,0.67
8764.00,0.67
8762.00,0.67
8760.00,0.67
8758.00,0.67
8756.00,0.67
8754.00,0.67
8752.00,0.67
8750.00,0.67
8748.00,0.67
8746.00,0.67
8744.00,0.67
8742.00,0.68
8740.00,0.68
8738.00,0.68
8736.00,0.69
8734.00,0.69
8732.00,0.69
8730.00,0.69
8728.00,0.69
8726.00,0.69
8724.00,0.69
8722.00,0.69
8720.00,0.69
8718.00,0.68
8716.00,0.68
8714.00,0.68
8712.00,0.68
8710.00,0.68
8708.00,0.68
8706.00,0.68
8704.00,0.68
8702.00,0.68
8700.00,0.68
8698.00,0.68
8696.00,0.68
8694.00,0.68
8692.00,0.68
8690.00,0.68
8688.00,0.68
8686.00,0.67
8684.00,0.67
8682.00,0.67
8680.00,0.67
8678.00,0.67
8676.00,0.67
8674.00,0.67
8672.00,0.68
8670.00,0.68
8668.00,0.68
8666.00,0.68
8664.00,0.68
8662.00,0.68
8660.00,0.68
8658.00,0.68
8656.00,0.67
8654.00,0.67
8652.00,0.67
8650.00,0.67
8648.00,0.67
8646.00,0.67
8644.00,0.67
8642.00,0.67
8640.00,0.67
8638.00,0.68
8636.00,0.68
8634.00,0.68
8632.00,0.68
8630.00,0.68
8628.00,0.67
8626.00,0.67
8624.00,0.68
8622.00,0.68
8620.00,0.68
8618.00,0.68
8616.00,0.68
8614.00,0.68
8612.00,0.68
8610.00,0.68
8608.00,0.68
8606.00,0.68
8604.00,0.68
8602.00,0.68
8600.00,0.68
8598.00,0.68
8596.00,0.67
8594.00,0.67
8592.00,0.67
8590.00,0.67
8588.00,0.67
8586.00,0.67
8584.00,0.68
8582.00,0.68
8580.00,0.68
8578.00,0.68
8576.00,0.68
8574.00,0.68
8572.00,0.68
8570.00,0.68
8568.00,0.68
8566.00,0.68
8564.00,0.68
8562.00,0.68
8560.00,0.68
8558.00,0.68
8556.00,0.68
8554.00,0.68
8552.00,0.68
8550.00,0.68
8548.00,0.68
8546.00,0.68
8544.00,0.68
8542.00,0.68
8540.00,0.68
8538.00,0.68
8536.00,0.67
8534.00,0.67
8532.00,0.67
8530.00,0.68
8528.00,0.68
8526.00,0.68
8524.00,0.68
8522.00,0.68
8520.00,0.68
8518.00,0.68
8516.00,0.68
8514.00,0.68
8512.00,0.68
8510.00,0.68
8508.00,0.68
8506.00,0.68
8504.00,0.68
8502.00,0.68
8500.00,0.68
8498.00,0.68
8496.00,0.68
8494.00,0.68
8492.00,0.68
8490.00,0.68
8488.00,0.68
8486.00,0.67
8484.00,0.67
8482.00,0.67
8480.00,0.67
8478.00,0.66
8476.00,0.66
8474.00,0.66
8472.00,0.66
8470.00,0.66
8468.00,0.66
8466.00,0.66
8464.00,0.66
8462.00,0.66
8460.00,0.66
8458.00,0.66
8456.00,0.66
8454.00,0.66
8452.00,0.66
8450.00,0.66
8448.00,0.66
8446.00,0.66
8444.00,0.66
8442.00,0.66
8440.00,0.66
8438.00,0.66
8436.00,0.66
8434.00,0.66
8432.00,0.66
8430.00,0.66
8428.00,0.66
8426.00,0.66
8424.00,0.66
8422.00,0.66
8420.00,0.66
8418.00,0.66
8416.00,0.66
8414.00,0.66
8412.00,0.66
8410.00,0.66
8408.00,0.67
8406.00,0.67
8404.00,0.67
8402.00,0.68
8400.00,0.68
8398.00,0.68
8396.00,0.68
8394.00,0.68
8392.00,0.68
8390.00,0.67
8388.00,0.67
8386.00,0.67
8384.00,0.67
8382.00,0.66
8380.00,0.66
8378.00,0.66
8376.00,0.66
8374.00,0.66
8372.00,0.66
8370.00,0.66
8368.00,0.66
8366.00,0.66
8364.00,0.66
8362.00,0.66
8360.00,0.66
8358.00,0.67
8356.00,0.67
8354.00,0.67
8352.00,0.67
8350.00,0.68
8348.00,0.68
8346.00,0.68
8344.00,0.68
8342.00,0.68
8340.00,0.68
8338.00,0.68
8336.00,0.68
8334.00,0.68
8332.00,0.69
8330.00,0.69
8328.00,0.69
8326.00,0.69
8324.00,0.68
8322.00,0.68
8320.00,0.68
8318.00,0.68
8316.00,0.68
8314.00,0.67
8312.00,0.67
8310.00,0.68
8308.00,0.68
8306.00,0.68
8304.00,0.68
8302.00,0.68
8300.00,0.68
8298.00,0.69
8296.00,0.69
8294.00,0.69
8292.00,0.69
8290.00,0.69
8288.00,0.68
8286.00,0.68
8284.00,0.68
8282.00,0.68
8280.00,0.67
8278.00,0.67
8276.00,0.67
8274.00,0.67
8272.00,0.67
8270.00,0.67
8268.00,0.67
8266.00,0.67
8264.00,0.68
8262.00,0.68
8260.00,0.68
8258.00,0.68
8256.00,0.68
8254.00,0.69
8252.00,0.69
8250.00,0.69
8248.00,0.69
8246.00,0.69
8244.00,0.69
8242.00,0.68
8240.00,0.68
8238.00,0.68
8236.00,0.68
8234.00,0.67
8232.00,0.67
8230.00,0.67
8228.00,0.67
8226.00,0.67
8224.00,0.67
8222.00,0.67
8220.00,0.67
8218.00,0.67
8216.00,0.67
8214.00,0.67
8212.00,0.67
8210.00,0.67
8208.00,0.67
8206.00,0.67
8204.00,0.67
8202.00,0.67
8200.00,0.67
8198.00,0.68
8196.00,0.68
8194.00,0.68
8192.00,0.68
8190.00,0.68
8188.00,0.68
8186.00,0.68
8184.00,0.68
8182.00,0.68
8180.00,0.68
8178.00,0.68
8176.00,0.68
8174.00,0.68
8172.00,0.68
8170.00,0.68
8168.00,0.68
8166.00,0.68
8164.00,0.68
8162.00,0.68
8160.00,0.68
8158.00,0.68
8156.00,0.68
8154.00,0.68
8152.00,0.68
8150.00,0.67
8148.00,0.67
8146.00,0.67
8144.00,0.67
8142.00,0.67
8140.00,0.67
8138.00,0.67
8136.00,0.67
8134.00,0.67
8132.00,0.67
8130.00,0.68
8128.00,0.68
8126.00,0.68
8124.00,0.68
8122.00,0.68
8120.00,0.68
8118.00,0.68
8116.00,0.68
8114.00,0.68
8112.00,0.68
8110.00,0.68
8108.00,0.68
8106.00,0.68
8104.00,0.68
8102.00,0.68
8100.00,0.68
8098.00,0.68
8096.00,0.68
8094.00,0.68
8092.00,0.68
8090.00,0.68
8088.00,0.68
8086.00,0.68
8084.00,0.68
8082.00,0.68
8080.00,0.69
8078.00,0.69
8076.00,0.68
8074.00,0.68
8072.00,0.68
8070.00,0.68
8068.00,0.68
8066.00,0.68
8064.00,0.68
8062.00,0.68
8060.00,0.68
8058.00,0.68
8056.00,0.68
8054.00,0.68
8052.00,0.68
8050.00,0.68
8048.00,0.68
8046.00,0.68
8044.00,0.68
8042.00,0.68
8040.00,0.68
8038.00,0.68
8036.00,0.68
8034.00,0.68
8032.00,0.69
8030.00,0.69
8028.00,0.69
8026.00,0.69
8024.00,0.69
8022.00,0.69
8020.00,0.69
8018.00,0.69
8016.00,0.69
8014.00,0.69
8012.00,0.68
8010.00,0.68
8008.00,0.68
8006.00,0.69
8004.00,0.69
8002.00,0.69
8000.00,0.69
7998.00,0.69
7996.00,0.69
7994.00,0.69
7992.00,0.69
7990.00,0.69
7988.00,0.68
7986.00,0.68
7984.00,0.68
7982.00,0.68
7980.00,0.68
7978.00,0.68
7976.00,0.68
7974.00,0.68
7972.00,0.68
7970.00,0.69
7968.00,0.69
7966.00,0.69
7964.00,0.69
7962.00,0.69
7960.00,0.69
7958.00,0.69
7956.00,0.69
7954.00,0.69
7952.00,0.69
7950.00,0.69
7948.00,0.70
7946.00,0.70
7944.00,0.70
7942.00,0.70
7940.00,0.70
7938.00,0.70
7936.00,0.70
7934.00,0.70
7932.00,0.70
7930.00,0.69
7928.00,0.69
7926.00,0.69
7924.00,0.69
7922.00,0.69
7920.00,0.69
7918.00,0.69
7916.00,0.69
7914.00,0.69
7912.00,0.69
7910.00,0.69
7908.00,0.69
7906.00,0.69
7904.00,0.69
7902.00,0.69
7900.00,0.69
7898.00,0.69
7896.00,0.69
7894.00,0.69
7892.00,0.69
7890.00,0.69
7888.00,0.69
7886.00,0.69
7884.00,0.69
7882.00,0.69
7880.00,0.69
7878.00,0.69
7876.00,0.69
7874.00,0.69
7872.00,0.69
7870.00,0.68
7868.00,0.68
7866.00,0.68
7864.00,0.68
7862.00,0.68
7860.00,0.68
7858.00,0.68
7856.00,0.69
7854.00,0.69
7852.00,0.69
7850.00,0.68
7848.00,0.68
7846.00,0.68
7844.00,0.68
7842.00,0.68
7840.00,0.68
7838.00,0.68
7836.00,0.68
7834.00,0.68
7832.00,0.68
7830.00,0.68
7828.00,0.68
7826.00,0.68
7824.00,0.68
7822.00,0.68
7820.00,0.68
7818.00,0.68
7816.00,0.68
7814.00,0.68
7812.00,0.68
7810.00,0.68
7808.00,0.68
7806.00,0.69
7804.00,0.69
7802.00,0.69
7800.00,0.69
7798.00,0.69
7796.00,0.69
7794.00,0.69
7792.00,0.69
7790.00,0.69
7788.00,0.69
7786.00,0.69
7784.00,0.68
7782.00,0.68
7780.00,0.68
7778.00,0.68
7776.00,0.68
7774.00,0.68
7772.00,0.68
7770.00,0.68
7768.00,0.68
7766.00,0.69
7764.00,0.69
7762.00,0.69
7760.00,0.69
7758.00,0.69
7756.00,0.69
7754.00,0.69
7752.00,0.69
7750.00,0.69
7748.00,0.69
7746.00,0.69
7744.00,0.69
7742.00,0.69
7740.00,0.69
7738.00,0.69
7736.00,0.69
7734.00,0.69
7732.00,0.69
7730.00,0.69
7728.00,0.69
7726.00,0.69
7724.00,0.68
7722.00,0.68
7720.00,0.68
7718.00,0.68
7716.00,0.68
7714.00,0.68
7712.00,0.68
7710.00,0.69
7708.00,0.69
7706.00,0.69
7704.00,0.69
7702.00,0.69
7700.00,0.69
7698.00,0.69
7696.00,0.69
7694.00,0.69
7692.00,0.69
7690.00,0.69
7688.00,0.68
7686.00,0.68
7684.00,0.68
7682.00,0.68
7680.00,0.68
7678.00,0.68
7676.00,0.68
7674.00,0.68
7672.00,0.68
7670.00,0.68
7668.00,0.68
7666.00,0.68
7664.00,0.68
7662.00,0.68
7660.00,0.68
7658.00,0.68
7656.00,0.68
7654.00,0.68
7652.00,0.68
7650.00,0.68
7648.00,0.68
7646.00,0.68
7644.00,0.68
7642.00,0.68
7640.00,0.68
7638.00,0.69
7636.00,0.69
7634.00,0.69
7632.00,0.69
7630.00,0.69
7628.00,0.69
7626.00,0.69
7624.00,0.69
7622.00,0.69
7620.00,0.69
7618.00,0.69
7616.00,0.69
7614.00,0.69
7612.00,0.69
7610.00,0.69
7608.00,0.69
7606.00,0.69
7604.00,0.68
7602.00,0.68
7600.00,0.68
7598.00,0.68
7596.00,0.67
7594.00,0.67
7592.00,0.67
7590.00,0.67
7588.00,0.68
7586.00,0.68
7584.00,0.68
7582.00,0.68
7580.00,0.68
7578.00,0.68
7576.00,0.69
7574.00,0.69
7572.00,0.69
7570.00,0.69
7568.00,0.69
7566.00,0.69
7564.00,0.69
7562.00,0.69
7560.00,0.69
7558.00,0.68
7556.00,0.68
7554.00,0.68
7552.00,0.68
7550.00,0.68
7548.00,0.68
7546.00,0.68
7544.00,0.68
7542.00,0.68
7540.00,0.68
7538.00,0.68
7536.00,0.68
7534.00,0.68
7532.00,0.68
7530.00,0.68
7528.00,0.68
7526.00,0.68
7524.00,0.68
7522.00,0.68
7520.00,0.68
7518.00,0.68
7516.00,0.68
7514.00,0.68
7512.00,0.68
7510.00,0.68
7508.00,0.68
7506.00,0.68
7504.00,0.68
7502.00,0.68
7500.00,0.68
7498.00,0.68
7496.00,0.68
7494.00,0.68
7492.00,0.69
7490.00,0.69
7488.00,0.69
7486.00,0.69
7484.00,0.69
7482.00,0.69
7480.00,0.69
7478.00,0.68
7476.00,0.68
7474.00,0.68
7472.00,0.68
7470.00,0.68
7468.00,0.68
7466.00,0.69
7464.00,0.69
7462.00,0.69
7460.00,0.69
7458.00,0.69
7456.00,0.68
7454.00,0.68
7452.00,0.68
7450.00,0.68
7448.00,0.68
7446.00,0.68
7444.00,0.68
7442.00,0.68
7440.00,0.68
7438.00,0.68
7436.00,0.68
7434.00,0.68
7432.00,0.68
7430.00,0.68
7428.00,0.68
7426.00,0.68
7424.00,0.68
7422.00,0.68
7420.00,0.68
7418.00,0.68
7416.00,0.68
7414.00,0.68
7412.00,0.68
7410.00,0.68
7408.00,0.68
7406.00,0.68
7404.00,0.68
7402.00,0.68
7400.00,0.68
7398.00,0.68
7396.00,0.68
7394.00,0.68
7392.00,0.68
7390.00,0.68
7388.00,0.68
7386.00,0.68
7384.00,0.68
7382.00,0.68
7380.00,0.68
7378.00,0.68
7376.00,0.68
7374.00,0.68
7372.00,0.68
7370.00,0.68
7368.00,0.68
7366.00,0.68
7364.00,0.68
7362.00,0.67
7360.00,0.67
7358.00,0.67
7356.00,0.67
7354.00,0.67
7352.00,0.67
7350.00,0.67
7348.00,0.67
7346.00,0.67
7344.00,0.67
7342.00,0.67
7340.00,0.67
7338.00,0.67
7336.00,0.67
7334.00,0.67
7332.00,0.67
7330.00,0.67
7328.00,0.67
7326.00,0.67
7324.00,0.67
7322.00,0.67
7320.00,0.67
7318.00,0.67
7316.00,0.67
7314.00,0.67
7312.00,0.67
7310.00,0.67
7308.00,0.67
7306.00,0.67
7304.00,0.67
7302.00,0.67
7300.00,0.67
7298.00,0.67
7296.00,0.67
7294.00,0.67
7292.00,0.67
7290.00,0.67
7288.00,0.67
7286.00,0.67
7284.00,0.67
7282.00,0.67
7280.00,0.67
7278.00,0.67
7276.00,0.67
7274.00,0.67
7272.00,0.67
7270.00,0.67
7268.00,0.67
7266.00,0.67
7264.00,0.67
7262.00,0.67
7260.00,0.67
7258.00,0.67
7256.00,0.67
7254.00,0.67
7252.00,0.67
7250.00,0.67
7248.00,0.67
7246.00,0.67
7244.00,0.66
7242.00,0.66
7240.00,0.66
7238.00,0.66
7236.00,0.66
7234.00,0.66
7232.00,0.66
7230.00,0.66
7228.00,0.66
7226.00,0.66
7224.00,0.66
7222.00,0.66
7220.00,0.66
7218.00,0.66
7216.00,0.66
7214.00,0.66
7212.00,0.66
7210.00,0.66
7208.00,0.66
7206.00,0.66
7204.00,0.66
7202.00,0.66
7200.00,0.65
7198.00,0.65
7196.00,0.65
7194.00,0.65
7192.00,0.65
7190.00,0.65
7188.00,0.65
7186.00,0.65
7184.00,0.65
7182.00,0.65
7180.00,0.65
7178.00,0.65
7176.00,0.65
7174.00,0.65
7172.00,0.65
7170.00,0.65
7168.00,0.65
7166.00,0.65
7164.00,0.65
7162.00,0.65
7160.00,0.65
7158.00,0.64
7156.00,0.64
7154.00,0.64
7152.00,0.64
7150.00,0.64
7148.00,0.64
7146.00,0.64
7144.00,0.64
7142.00,0.64
7140.00,0.64
7138.00,0.64
7136.00,0.64
7134.00,0.64
7132.00,0.64
7130.00,0.64
7128.00,0.64
7126.00,0.64
7124.00,0.64
7122.00,0.64
7120.00,0.63
7118.00,0.63
7116.00,0.63
7114.00,0.63
7112.00,0.63
7110.00,0.63
7108.00,0.63
7106.00,0.63
7104.00,0.63
7102.00,0.63
7100.00,0.63
7098.00,0.63
7096.00,0.63
7094.00,0.63
7092.00,0.63
7090.00,0.63
7088.00,0.63
7086.00,0.63
7084.00,0.63
7082.00,0.63
7080.00,0.63
7078.00,0.63
7076.00,0.63
7074.00,0.63
7072.00,0.63
7070.00,0.63
7068.00,0.63
7066.00,0.63
7064.00,0.63
7062.00,0.63
7060.00,0.63
7058.00,0.63
7056.00,0.63
7054.00,0.63
7052.00,0.63
7050.00,0.63
7048.00,0.63
7046.00,0.63
7044.00,0.63
7042.00,0.62
7040.00,0.62
7038.00,0.62
7036.00,0.62
7034.00,0.63
7032.00,0.63
7030.00,0.63
7028.00,0.63
7026.00,0.63
7024.00,0.63
7022.00,0.63
7020.00,0.63
7018.00,0.63
7016.00,0.62
7014.00,0.62
7012.00,0.62
7010.00,0.62
7008.00,0.62
7006.00,0.62
7004.00,0.62
7002.00,0.62
7000.00,0.62
6998.00,0.62
6996.00,0.62
6994.00,0.62
6992.00,0.62
6990.00,0.62
6988.00,0.62
6986.00,0.62
6984.00,0.62
6982.00,0.62
6980.00,0.62
6978.00,0.62
6976.00,0.62
6974.00,0.62
6972.00,0.62
6970.00,0.62
6968.00,0.62
6966.00,0.62
6964.00,0.62
6962.00,0.62
6960.00,0.62
6958.00,0.62
6956.00,0.62
6954.00,0.62
6952.00,0.62
6950.00,0.62
6948.00,0.62
6946.00,0.62
6944.00,0.62
6942.00,0.62
6940.00,0.62
6938.00,0.62
6936.00,0.62
6934.00,0.62
6932.00,0.62
6930.00,0.62
6928.00,0.62
6926.00,0.62
6924.00,0.62
6922.00,0.62
6920.00,0.62
6918.00,0.62
6916.00,0.62
6914.00,0.62
6912.00,0.62
6910.00,0.62
6908.00,0.62
6906.00,0.62
6904.00,0.62
6902.00,0.62
6900.00,0.62
6898.00,0.62
6896.00,0.62
6894.00,0.62
6892.00,0.62
6890.00,0.62
6888.00,0.62
6886.00,0.62
6884.00,0.62
6882.00,0.62
6880.00,0.62
6878.00,0.62
6876.00,0.62
6874.00,0.62
6872.00,0.62
6870.00,0.62
6868.00,0.62
6866.00,0.62
6864.00,0.62
6862.00,0.62
6860.00,0.62
6858.00,0.62
6856.00,0.62
6854.00,0.62
6852.00,0.62
6850.00,0.62
6848.00,0.62
6846.00,0.62
6844.00,0.62
6842.00,0.62
6840.00,0.63
6838.00,0.63
6836.00,0.63
6834.00,0.63
6832.00,0.63
6830.00,0.63
6828.00,0.63
6826.00,0.62
6824.00,0.62
6822.00,0.62
6820.00,0.62
6818.00,0.62
6816.00,0.62
6814.00,0.62
6812.00,0.62
6810.00,0.62
6808.00,0.62
6806.00,0.63
6804.00,0.63
6802.00,0.63
6800.00,0.63
6798.00,0.63
6796.00,0.63
6794.00,0.63
6792.00,0.62
6790.00,0.62
6788.00,0.62
6786.00,0.62
6784.00,0.62
6782.00,0.62
6780.00,0.62
6778.00,0.62
6776.00,0.62
6774.00,0.62
6772.00,0.62
6770.00,0.62
6768.00,0.62
6766.00,0.62
6764.00,0.62
6762.00,0.62
6760.00,0.62
6758.00,0.62
6756.00,0.62
6754.00,0.62
6752.00,0.63
6750.00,0.63
6748.00,0.63
6746.00,0.63
6744.00,0.63
6742.00,0.63
6740.00,0.63
6738.00,0.63
6736.00,0.63
6734.00,0.63
6732.00,0.63
6730.00,0.63
6728.00,0.63
6726.00,0.63
6724.00,0.63
6722.00,0.63
6720.00,0.63
6718.00,0.63
6716.00,0.63
6714.00,0.63
6712.00,0.63
6710.00,0.63
6708.00,0.63
6706.00,0.63
6704.00,0.63
6702.00,0.63
6700.00,0.63
6698.00,0.63
6696.00,0.63
6694.00,0.63
6692.00,0.63
6690.00,0.63
6688.00,0.63
6686.00,0.63
6684.00,0.63
6682.00,0.63
6680.00,0.63
6678.00,0.63
6676.00,0.63
6674.00,0.63
6672.00,0.63
6670.00,0.63
6668.00,0.63
6666.00,0.63
6664.00,0.63
6662.00,0.63
6660.00,0.63
6658.00,0.63
6656.00,0.63
6654.00,0.63
6652.00,0.63
6650.00,0.63
6648.00,0.63
6646.00,0.64
6644.00,0.64
6642.00,0.64
6640.00,0.64
6638.00,0.64
6636.00,0.64
6634.00,0.64
6632.00,0.64
6630.00,0.64
6628.00,0.64
6626.00,0.64
6624.00,0.63
6622.00,0.63
6620.00,0.63
6618.00,0.63
6616.00,0.64
6614.00,0.64
6612.00,0.64
6610.00,0.64
6608.00,0.64
6606.00,0.64
6604.00,0.64
6602.00,0.64
6600.00,0.64
6598.00,0.64
6596.00,0.64
6594.00,0.64
6592.00,0.63
6590.00,0.63
6588.00,0.63
6586.00,0.63
6584.00,0.63
6582.00,0.63
6580.00,0.63
6578.00,0.64
6576.00,0.64
6574.00,0.64
6572.00,0.64
6570.00,0.64
6568.00,0.64
6566.00,0.64
6564.00,0.64
6562.00,0.64
6560.00,0.64
6558.00,0.64
6556.00,0.64
6554.00,0.64
6552.00,0.64
6550.00,0.64
6548.00,0.64
6546.00,0.64
6544.00,0.64
6542.00,0.64
6540.00,0.64
6538.00,0.64
6536.00,0.64
6534.00,0.64
6532.00,0.64
6530.00,0.64
6528.00,0.64
6526.00,0.64
6524.00,0.64
6522.00,0.64
6520.00,0.64
6518.00,0.64
6516.00,0.64
6514.00,0.64
6512.00,0.64
6510.00,0.65
6508.00,0.65
6506.00,0.65
6504.00,0.65
6502.00,0.65
6500.00,0.65
6498.00,0.65
6496.00,0.65
6494.00,0.65
6492.00,0.65
6490.00,0.65
6488.00,0.65
6486.00,0.65
6484.00,0.65
6482.00,0.65
6480.00,0.64
6478.00,0.64
6476.00,0.64
6474.00,0.64
6472.00,0.64
6470.00,0.64
6468.00,0.64
6466.00,0.65
6464.00,0.65
6462.00,0.65
6460.00,0.65
6458.00,0.65
6456.00,0.65
6454.00,0.65
6452.00,0.65
6450.00,0.65
6448.00,0.65
6446.00,0.65
6444.00,0.65
6442.00,0.65
6440.00,0.65
6438.00,0.65
6436.00,0.65
6434.00,0.65
6432.00,0.65
6430.00,0.65
6428.00,0.65
6426.00,0.65
6424.00,0.65
6422.00,0.65
6420.00,0.65
6418.00,0.65
6416.00,0.65
6414.00,0.65
6412.00,0.65
6410.00,0.65
6408.00,0.65
6406.00,0.65
6404.00,0.65
6402.00,0.65
6400.00,0.65
6398.00,0.65
6396.00,0.65
6394.00,0.65
6392.00,0.65
6390.00,0.65
6388.00,0.65
6386.00,0.65
6384.00,0.65
6382.00,0.65
6380.00,0.65
6378.00,0.65
6376.00,0.65
6374.00,0.65
6372.00,0.65
6370.00,0.65
6368.00,0.65
6366.00,0.65
6364.00,0.65
6362.00,0.65
6360.00,0.65
6358.00,0.65
6356.00,0.65
6354.00,0.65
6352.00,0.65
6350.00,0.65
6348.00,0.65
6346.00,0.65
6344.00,0.65
6342.00,0.65
6340.00,0.65
6338.00,0.65
6336.00,0.65
6334.00,0.65
6332.00,0.65
6330.00,0.65
6328.00,0.65
6326.00,0.65
6324.00,0.65
6322.00,0.65
6320.00,0.65
6318.00,0.66
6316.00,0.66
6314.00,0.66
6312.00,0.66
6310.00,0.66
6308.00,0.66
6306.00,0.66
6304.00,0.66
6302.00,0.66
6300.00,0.66
6298.00,0.66
6296.00,0.66
6294.00,0.66
6292.00,0.66
6290.00,0.66
6288.00,0.66
6286.00,0.66
6284.00,0.66
6282.00,0.66
6280.00,0.66
6278.00,0.66
6276.00,0.66
6274.00,0.66
6272.00,0.66
6270.00,0.66
6268.00,0.66
6266.00,0.66
6264.00,0.66
6262.00,0.66
6260.00,0.66
6258.00,0.66
6256.00,0.66
6254.00,0.66
6252.00,0.66
6250.00,0.66
6248.00,0.66
6246.00,0.66
6244.00,0.66
6242.00,0.66
6240.00,0.66
6238.00,0.66
6236.00,0.66
6234.00,0.66
6232.00,0.67
6230.00,0.67
6228.00,0.67
6226.00,0.67
6224.00,0.67
6222.00,0.67
6220.00,0.67
6218.00,0.67
6216.00,0.67
6214.00,0.67
6212.00,0.67
6210.00,0.66
6208.00,0.66
6206.00,0.66
6204.00,0.66
6202.00,0.66
6200.00,0.66
6198.00,0.66
6196.00,0.66
6194.00,0.66
6192.00,0.67
6190.00,0.67
6188.00,0.67
6186.00,0.67
6184.00,0.67
6182.00,0.67
6180.00,0.67
6178.00,0.67
6176.00,0.67
6174.00,0.67
6172.00,0.67
6170.00,0.67
6168.00,0.67
6166.00,0.67
6164.00,0.67
6162.00,0.67
6160.00,0.67
6158.00,0.67
6156.00,0.67
6154.00,0.67
6152.00,0.67
6150.00,0.67
6148.00,0.67
6146.00,0.67
6144.00,0.67
6142.00,0.67
6140.00,0.67
6138.00,0.67
6136.00,0.67
6134.00,0.67
6132.00,0.67
6130.00,0.67
6128.00,0.67
6126.00,0.67
6124.00,0.67
6122.00,0.67
6120.00,0.67
6118.00,0.67
6116.00,0.67
6114.00,0.67
6112.00,0.67
6110.00,0.68
6108.00,0.68
6106.00,0.68
6104.00,0.68
6102.00,0.68
6100.00,0.68
6098.00,0.68
6096.00,0.68
6094.00,0.68
6092.00,0.68
6090.00,0.68
6088.00,0.68
6086.00,0.68
6084.00,0.68
6082.00,0.68
6080.00,0.68
6078.00,0.68
6076.00,0.68
6074.00,0.68
6072.00,0.68
6070.00,0.68
6068.00,0.68
6066.00,0.68
6064.00,0.68
6062.00,0.68
6060.00,0.68
6058.00,0.68
6056.00,0.68
6054.00,0.68
6052.00,0.68
6050.00,0.68
6048.00,0.68
6046.00,0.68
6044.00,0.68
6042.00,0.68
6040.00,0.68
6038.00,0.68
6036.00,0.68
6034.00,0.68
6032.00,0.68
6030.00,0.68
6028.00,0.68
6026.00,0.68
6024.00,0.68
6022.00,0.68
6020.00,0.68
6018.00,0.68
6016.00,0.68
6014.00,0.68
6012.00,0.68
6010.00,0.68
6008.00,0.68
6006.00,0.68
6004.00,0.68
6002.00,0.68
6000.00,0.68
5998.00,0.68
5996.00,0.68
5994.00,0.68
5992.00,0.68
5990.00,0.68
5988.00,0.68
5986.00,0.68
5984.00,0.68
5982.00,0.68
5980.00,0.68
5978.00,0.68
5976.00,0.68
5974.00,0.68
5972.00,0.68
5970.00,0.68
5968.00,0.68
5966.00,0.68
5964.00,0.68
5962.00,0.68
5960.00,0.68
5958.00,0.67
5956.00,0.67
5954.00,0.67
5952.00,0.67
5950.00,0.67
5948.00,0.66
5946.00,0.66
5944.00,0.66
5942.00,0.66
5940.00,0.66
5938.00,0.66
5936.00,0.66
5934.00,0.66
5932.00,0.66
5930.00,0.66
5928.00,0.66
5926.00,0.66
5924.00,0.66
5922.00,0.66
5920.00,0.66
5918.00,0.66
5916.00,0.66
5914.00,0.66
5912.00,0.66
5910.00,0.66
5908.00,0.66
5906.00,0.66
5904.00,0.66
5902.00,0.66
5900.00,0.66
5898.00,0.66
5896.00,0.66
5894.00,0.66
5892.00,0.66
5890.00,0.66
5888.00,0.66
5886.00,0.66
5884.00,0.66
5882.00,0.66
5880.00,0.66
5878.00,0.66
5876.00,0.66
5874.00,0.66
5872.00,0.66
5870.00,0.67
5868.00,0.67
5866.00,0.67
5864.00,0.67
5862.00,0.67
5860.00,0.67
5858.00,0.67
5856.00,0.67
5854.00,0.67
5852.00,0.67
5850.00,0.67
5848.00,0.67
5846.00,0.67
5844.00,0.67
5842.00,0.67
5840.00,0.67
5838.00,0.67
5836.00,0.67
5834.00,0.67
5832.00,0.67
5830.00,0.67
5828.00,0.67
5826.00,0.67
5824.00,0.67
5822.00,0.67
5820.00,0.67
5818.00,0.67
5816.00,0.67
5814.00,0.67
5812.00,0.67
5810.00,0.67
5808.00,0.67
5806.00,0.67
5804.00,0.67
5802.00,0.67
5800.00,0.67
5798.00,0.67
5796.00,0.67
5794.00,0.67
5792.00,0.67
5790.00,0.67
5788.00,0.67
5786.00,0.67
5784.00,0.67
5782.00,0.67
5780.00,0.67
5778.00,0.67
5776.00,0.67
5774.00,0.67
5772.00,0.67
5770.00,0.67
5768.00,0.67
5766.00,0.67
5764.00,0.67
5762.00,0.67
5760.00,0.67
5758.00,0.67
5756.00,0.67
5754.00,0.67
5752.00,0.67
5750.00,0.68
5748.00,0.68
5746.00,0.68
5744.00,0.68
5742.00,0.68
5740.00,0.68
5738.00,0.68
5736.00,0.68
5734.00,0.68
5732.00,0.68
5730.00,0.68
5728.00,0.68
5726.00,0.68
5724.00,0.68
5722.00,0.68
5720.00,0.68
5718.00,0.68
5716.00,0.68
5714.00,0.68
5712.00,0.68
5710.00,0.68
5708.00,0.68
5706.00,0.68
5704.00,0.68
5702.00,0.68
5700.00,0.68
5698.00,0.68
5696.00,0.68
5694.00,0.68
5692.00,0.68
5690.00,0.68
5688.00,0.68
5686.00,0.68
5684.00,0.68
5682.00,0.68
5680.00,0.68
5678.00,0.68
5676.00,0.68
5674.00,0.68
5672.00,0.68
5670.00,0.68
5668.00,0.68
5666.00,0.68
5664.00,0.68
5662.00,0.68
5660.00,0.68
5658.00,0.68
5656.00,0.68
5654.00,0.68
5652.00,0.68
5650.00,0.68
5648.00,0.68
5646.00,0.68
5644.00,0.68
5642.00,0.68
5640.00,0.68
5638.00,0.68
5636.00,0.68
5634.00,0.69
5632.00,0.69
5630.00,0.69
5628.00,0.69
5626.00,0.69
5624.00,0.69
5622.00,0.68
5620.00,0.68
5618.00,0.68
5616.00,0.68
5614.00,0.68
5612.00,0.68
5610.00,0.68
5608.00,0.68
5606.00,0.69
5604.00,0.69
5602.00,0.69
5600.00,0.69
5598.00,0.69
5596.00,0.69
5594.00,0.69
5592.00,0.69
5590.00,0.69
5588.00,0.69
5586.00,0.69
5584.00,0.69
5582.00,0.69
5580.00,0.69
5578.00,0.69
5576.00,0.69
5574.00,0.69
5572.00,0.69
5570.00,0.69
5568.00,0.69
5566.00,0.69
5564.00,0.69
5562.00,0.69
5560.00,0.69
5558.00,0.69
5556.00,0.70
5554.00,0.70
5552.00,0.70
5550.00,0.70
5548.00,0.70
5546.00,0.70
5544.00,0.70
5542.00,0.70
5540.00,0.70
5538.00,0.70
5536.00,0.70
5534.00,0.70
5532.00,0.70
5530.00,0.70
5528.00,0.70
5526.00,0.70
5524.00,0.70
5522.00,0.70
5520.00,0.70
5518.00,0.70
5516.00,0.70
5514.00,0.70
5512.00,0.70
5510.00,0.70
5508.00,0.70
5506.00,0.70
5504.00,0.70
5502.00,0.70
5500.00,0.70
5498.00,0.70
5496.00,0.70
5494.00,0.70
5492.00,0.70
5490.00,0.70
5488.00,0.70
5486.00,0.70
5484.00,0.70
5482.00,0.70
5480.00,0.70
5478.00,0.70
5476.00,0.70
5474.00,0.70
5472.00,0.70
5470.00,0.70
5468.00,0.70
5466.00,0.70
5464.00,0.70
5462.00,0.70
5460.00,0.70
5458.00,0.70
5456.00,0.70
5454.00,0.70
5452.00,0.70
5450.00,0.70
5448.00,0.70
5446.00,0.70
5444.00,0.70
5442.00,0.70
5440.00,0.70
5438.00,0.70
5436.00,0.70
5434.00,0.70
5432.00,0.70
5430.00,0.70
5428.00,0.70
5426.00,0.70
5424.00,0.70
5422.00,0.70
5420.00,0.70
5418.00,0.70
5416.00,0.70
5414.00,0.70
5412.00,0.70
5410.00,0.70
5408.00,0.70
5406.00,0.70
5404.00,0.70
5402.00,0.70
5400.00,0.70
5398.00,0.70
5396.00,0.70
5394.00,0.70
5392.00,0.70
5390.00,0.70
5388.00,0.70
5386.00,0.70
5384.00,0.70
5382.00,0.70
5380.00,0.70
5378.00,0.70
5376.00,0.70
5374.00,0.70
5372.00,0.70
5370.00,0.70
5368.00,0.70
5366.00,0.70
5364.00,0.70
5362.00,0.70
5360.00,0.70
5358.00,0.70
5356.00,0.70
5354.00,0.70
5352.00,0.70
5350.00,0.70
5348.00,0.70
5346.00,0.70
5344.00,0.69
5342.00,0.69
5340.00,0.69
5338.00,0.69
5336.00,0.69
5334.00,0.69
5332.00,0.69
5330.00,0.69
5328.00,0.69
5326.00,0.69
5324.00,0.68
5322.00,0.68
5320.00,0.68
5318.00,0.68
5316.00,0.68
5314.00,0.68
5312.00,0.67
5310.00,0.67
5308.00,0.67
5306.00,0.66
5304.00,0.66
5302.00,0.66
5300.00,0.66
5298.00,0.66
5296.00,0.65
5294.00,0.65
5292.00,0.65
5290.00,0.65
5288.00,0.65
5286.00,0.65
5284.00,0.64
5282.00,0.64
5280.00,0.64
5278.00,0.64
5276.00,0.64
5274.00,0.64
5272.00,0.64
5270.00,0.64
5268.00,0.64
5266.00,0.63
5264.00,0.63
5262.00,0.63
5260.00,0.63
5258.00,0.63
5256.00,0.63
5254.00,0.63
5252.00,0.62
5250.00,0.62
5248.00,0.62
5246.00,0.62
5244.00,0.62
5242.00,0.62
5240.00,0.62
5238.00,0.62
5236.00,0.62
5234.00,0.62
5232.00,0.62
5230.00,0.62
5228.00,0.62
5226.00,0.61
5224.00,0.61
5222.00,0.61
5220.00,0.61
5218.00,0.61
5216.00,0.61
5214.00,0.61
5212.00,0.61
5210.00,0.61
5208.00,0.61
5206.00,0.61
5204.00,0.61
5202.00,0.61
5200.00,0.61
5198.00,0.61
5196.00,0.61
5194.00,0.61
5192.00,0.61
5190.00,0.61
5188.00,0.61
5186.00,0.61
5184.00,0.61
5182.00,0.61
5180.00,0.61
5178.00,0.61
5176.00,0.61
5174.00,0.61
5172.00,0.61
5170.00,0.61
5168.00,0.61
5166.00,0.61
5164.00,0.61
5162.00,0.61
5160.00,0.61
5158.00,0.61
5156.00,0.61
5154.00,0.61
5152.00,0.61
5150.00,0.61
5148.00,0.61
5146.00,0.61
5144.00,0.61
5142.00,0.61
5140.00,0.61
5138.00,0.61
5136.00,0.61
5134.00,0.61
5132.00,0.61
5130.00,0.61
5128.00,0.61
5126.00,0.61
5124.00,0.61
5122.00,0.62
5120.00,0.62
5118.00,0.62
5116.00,0.62
5114.00,0.62
5112.00,0.62
5110.00,0.62
5108.00,0.62
5106.00,0.62
5104.00,0.62
5102.00,0.62
5100.00,0.62
5098.00,0.62
5096.00,0.62
5094.00,0.62
5092.00,0.63
5090.00,0.63
5088.00,0.63
5086.00,0.63
5084.00,0.63
5082.00,0.63
5080.00,0.63
5078.00,0.63
5076.00,0.63
5074.00,0.64
5072.00,0.64
5070.00,0.64
5068.00,0.64
5066.00,0.64
5064.00,0.64
5062.00,0.64
5060.00,0.64
5058.00,0.64
5056.00,0.64
5054.00,0.64
5052.00,0.64
5050.00,0.64
5048.00,0.64
5046.00,0.64
5044.00,0.64
5042.00,0.64
5040.00,0.64
5038.00,0.64
5036.00,0.64
5034.00,0.65
5032.00,0.65
5030.00,0.65
5028.00,0.65
5026.00,0.65
5024.00,0.65
5022.00,0.65
5020.00,0.65
5018.00,0.65
5016.00,0.65
5014.00,0.65
5012.00,0.65
5010.00,0.66
5008.00,0.66
5006.00,0.66
5004.00,0.66
5002.00,0.66
5000.00,0.66
4998.00,0.66
4996.00,0.66
4994.00,0.66
4992.00,0.66
4990.00,0.66
4988.00,0.66
4986.00,0.66
4984.00,0.66
4982.00,0.66
4980.00,0.66
4978.00,0.66
4976.00,0.66
4974.00,0.66
4972.00,0.66
4970.00,0.66
4968.00,0.66
4966.00,0.66
4964.00,0.66
4962.00,0.66
4960.00,0.67
4958.00,0.67
4956.00,0.67
4954.00,0.67
4952.00,0.67
4950.00,0.67
4948.00,0.67
4946.00,0.67
4944.00,0.67
4942.00,0.67
4940.00,0.67
4938.00,0.67
4936.00,0.67
4934.00,0.67
4932.00,0.67
4930.00,0.67
4928.00,0.67
4926.00,0.67
4924.00,0.67
4922.00,0.67
4920.00,0.67
4918.00,0.67
4916.00,0.67
4914.00,0.67
4912.00,0.67
4910.00,0.67
4908.00,0.68
4906.00,0.68
4904.00,0.68
4902.00,0.67
4900.00,0.67
4898.00,0.67
4896.00,0.67
4894.00,0.67
4892.00,0.67
4890.00,0.67
4888.00,0.67
4886.00,0.67
4884.00,0.67
4882.00,0.67
4880.00,0.67
4878.00,0.67
4876.00,0.67
4874.00,0.67
4872.00,0.67
4870.00,0.67
4868.00,0.68
4866.00,0.68
4864.00,0.68
4862.00,0.68
4860.00,0.68
4858.00,0.68
4856.00,0.68
4854.00,0.68
4852.00,0.68
4850.00,0.68
4848.00,0.68
4846.00,0.68
4844.00,0.68
4842.00,0.68
4840.00,0.68
4838.00,0.68
4836.00,0.68
4834.00,0.68
4832.00,0.68
4830.00,0.68
4828.00,0.68
4826.00,0.68
4824.00,0.68
4822.00,0.68
4820.00,0.68
4818.00,0.68
4816.00,0.68
4814.00,0.68
4812.00,0.68
4810.00,0.68
4808.00,0.68
4806.00,0.68
4804.00,0.68
4802.00,0.68
4800.00,0.68
4798.00,0.68
4796.00,0.68
4794.00,0.69
4792.00,0.69
4790.00,0.68
4788.00,0.68
4786.00,0.68
4784.00,0.68
4782.00,0.68
4780.00,0.68
4778.00,0.68
4776.00,0.69
4774.00,0.69
4772.00,0.69
4770.00,0.69
4768.00,0.69
4766.00,0.69
4764.00,0.69
4762.00,0.69
4760.00,0.69
4758.00,0.69
4756.00,0.69
4754.00,0.69
4752.00,0.69
4750.00,0.69
4748.00,0.69
4746.00,0.69
4744.00,0.69
4742.00,0.69
4740.00,0.69
4738.00,0.69
4736.00,0.69
4734.00,0.69
4732.00,0.69
4730.00,0.69
4728.00,0.69
4726.00,0.69
4724.00,0.69
4722.00,0.69
4720.00,0.69
4718.00,0.69
4716.00,0.69
4714.00,0.69
4712.00,0.69
4710.00,0.69
4708.00,0.69
4706.00,0.69
4704.00,0.69
4702.00,0.69
4700.00,0.69
4698.00,0.69
4696.00,0.69
4694.00,0.69
4692.00,0.69
4690.00,0.70
4688.00,0.70
4686.00,0.70
4684.00,0.70
4682.00,0.70
4680.00,0.70
4678.00,0.70
4676.00,0.70
4674.00,0.70
4672.00,0.70
4670.00,0.70
4668.00,0.70
4666.00,0.70
4664.00,0.70
4662.00,0.70
4660.00,0.70
4658.00,0.70
4656.00,0.70
4654.00,0.70
4652.00,0.70
4650.00,0.70
4648.00,0.70
4646.00,0.70
4644.00,0.70
4642.00,0.70
4640.00,0.70
4638.00,0.70
4636.00,0.70
4634.00,0.70
4632.00,0.70
4630.00,0.70
4628.00,0.70
4626.00,0.70
4624.00,0.70
4622.00,0.70
4620.00,0.70
4618.00,0.70
4616.00,0.70
4614.00,0.70
4612.00,0.70
4610.00,0.70
4608.00,0.70
4606.00,0.70
4604.00,0.70
4602.00,0.70
4600.00,0.70
4598.00,0.70
4596.00,0.70
4594.00,0.70
4592.00,0.70
4590.00,0.70
4588.00,0.70
4586.00,0.70
4584.00,0.70
4582.00,0.70
4580.00,0.70
4578.00,0.70
4576.00,0.70
4574.00,0.70
4572.00,0.70
4570.00,0.70
4568.00,0.70
4566.00,0.70
4564.00,0.70
4562.00,0.70
4560.00,0.70
4558.00,0.70
4556.00,0.70
4554.00,0.70
4552.00,0.70
4550.00,0.70
4548.00,0.70
4546.00,0.70
4544.00,0.70
4542.00,0.70
4540.00,0.70
4538.00,0.70
4536.00,0.70
4534.00,0.70
4532.00,0.70
4530.00,0.70
4528.00,0.70
4526.00,0.70
4524.00,0.70
4522.00,0.70
4520.00,0.70
4518.00,0.70
4516.00,0.70
4514.00,0.70
4512.00,0.70
4510.00,0.70
4508.00,0.70
4506.00,0.70
4504.00,0.70
4502.00,0.70
4500.00,0.70
4498.00,0.70
4496.00,0.70
4494.00,0.70
4492.00,0.70
4490.00,0.70
4488.00,0.70
4486.00,0.70
4484.00,0.70
4482.00,0.70
4480.00,0.70
4478.00,0.70
4476.00,0.70
4474.00,0.70
4472.00,0.70
4470.00,0.70
4468.00,0.70
4466.00,0.70
4464.00,0.70
4462.00,0.70
4460.00,0.70
4458.00,0.70
4456.00,0.70
4454.00,0.70
4452.00,0.70
4450.00,0.70
4448.00,0.70
4446.00,0.69
4444.00,0.69
4442.00,0.69
4440.00,0.69
4438.00,0.69
4436.00,0.69
4434.00,0.69
4432.00,0.68
4430.00,0.68
4428.00,0.68
4426.00,0.68
4424.00,0.67
4422.00,0.67
4420.00,0.67
4418.00,0.67
4416.00,0.67
4414.00,0.67
4412.00,0.67
4410.00,0.67
4408.00,0.67
4406.00,0.67
4404.00,0.67
4402.00,0.67
4400.00,0.67
4398.00,0.67
4396.00,0.67
4394.00,0.67
4392.00,0.67
4390.00,0.67
4388.00,0.67
4386.00,0.67
4384.00,0.67
4382.00,0.67
4380.00,0.68
4378.00,0.68
4376.00,0.68
4374.00,0.68
4372.00,0.68
4370.00,0.68
4368.00,0.68
4366.00,0.68
4364.00,0.68
4362.00,0.68
4360.00,0.68
4358.00,0.68
4356.00,0.68
4354.00,0.68
4352.00,0.68
4350.00,0.68
4348.00,0.68
4346.00,0.67
4344.00,0.67
4342.00,0.67
4340.00,0.67
4338.00,0.67
4336.00,0.67
4334.00,0.67
4332.00,0.67
4330.00,0.67
4328.00,0.67
4326.00,0.67
4324.00,0.67
4322.00,0.68
4320.00,0.68
4318.00,0.68
4316.00,0.68
4314.00,0.69
4312.00,0.69
4310.00,0.69
4308.00,0.69
4306.00,0.69
4304.00,0.70
4302.00,0.70
4300.00,0.70
4298.00,0.70
4296.00,0.70
4294.00,0.70
4292.00,0.70
4290.00,0.70
4288.00,0.70
4286.00,0.70
4284.00,0.70
4282.00,0.70
4280.00,0.70
4278.00,0.70
4276.00,0.70
4274.00,0.70
4272.00,0.70
4270.00,0.70
4268.00,0.70
4266.00,0.70
4264.00,0.69
4262.00,0.69
4260.00,0.69
4258.00,0.69
4256.00,0.69
4254.00,0.69
4252.00,0.69
4250.00,0.70
4248.00,0.70
4246.00,0.70
4244.00,0.70
4242.00,0.70
4240.00,0.70
4238.00,0.70
4236.00,0.70
4234.00,0.70
4232.00,0.70
4230.00,0.70
4228.00,0.70
4226.00,0.70
4224.00,0.70
4222.00,0.70
4220.00,0.70
4218.00,0.70
4216.00,0.70
4214.00,0.70
4212.00,0.70
4210.00,0.70
4208.00,0.70
4206.00,0.70
4204.00,0.70
4202.00,0.70
4200.00,0.70
4198.00,0.70
4196.00,0.70
4194.00,0.70
4192.00,0.70
4190.00,0.70
4188.00,0.70
4186.00,0.70
4184.00,0.70
4182.00,0.70
4180.00,0.70
4178.00,0.70
4176.00,0.70
4174.00,0.70
4172.00,0.70
4170.00,0.70
4168.00,0.70
4166.00,0.70
4164.00,0.70
4162.00,0.70
4160.00,0.70
4158.00,0.70
4156.00,0.70
4154.00,0.70
4152.00,0.70
4150.00,0.70
4148.00,0.70
4146.00,0.70
4144.00,0.70
4142.00,0.70
4140.00,0.70
4138.00,0.70
4136.00,0.70
4134.00,0.70
4132.00,0.70
4130.00,0.70
4128.00,0.70
4126.00,0.70
4124.00,0.70
4122.00,0.70
4120.00,0.70
4118.00,0.70
4116.00,0.70
4114.00,0.70
4112.00,0.70
4110.00,0.70
4108.00,0.70
4106.00,0.70
4104.00,0.70
4102.00,0.70
4100.00,0.70
4098.00,0.69
4096.00,0.69
4094.00,0.69
4092.00,0.69
4090.00,0.69
4088.00,0.69
4086.00,0.69
4084.00,0.69
4082.00,0.69
4080.00,0.69
4078.00,0.69
4076.00,0.69
4074.00,0.69
4072.00,0.69
4070.00,0.69
4068.00,0.69
4066.00,0.69
4064.00,0.69
4062.00,0.69
4060.00,0.69
4058.00,0.69
4056.00,0.69
4054.00,0.69
4052.00,0.69
4050.00,0.69
4048.00,0.69
4046.00,0.69
4044.00,0.69
4042.00,0.69
4040.00,0.69
4038.00,0.69
4036.00,0.69
4034.00,0.69
4032.00,0.69
4030.00,0.69
4028.00,0.69
4026.00,0.69
4024.00,0.69
4022.00,0.69
4020.00,0.69
4018.00,0.69
4016.00,0.70
4014.00,0.70
4012.00,0.70
4010.00,0.70
4008.00,0.70
4006.00,0.70
4004.00,0.70
4002.00,0.70
4000.00,0.70
