创建为新数据集,样品 1698 用户 Administrator 日期 星期二, 三月 14 2017
cm-1,%T
10000.00,0.78
9998.00,0.78
9996.00,0.78
9994.00,0.78
9992.00,0.78
9990.00,0.78
9988.00,0.78
9986.00,0.78
9984.00,0.78
9982.00,0.78
9980.00,0.78
9978.00,0.78
9976.00,0.78
9974.00,0.78
9972.00,0.78
9970.00,0.78
9968.00,0.78
9966.00,0.78
9964.00,0.78
9962.00,0.77
9960.00,0.77
9958.00,0.77
9956.00,0.77
9954.00,0.77
9952.00,0.76
9950.00,0.76
9948.00,0.76
9946.00,0.76
9944.00,0.76
9942.00,0.76
9940.00,0.77
9938.00,0.77
9936.00,0.77
9934.00,0.77
9932.00,0.76
9930.00,0.76
9928.00,0.76
9926.00,0.75
9924.00,0.75
9922.00,0.75
9920.00,0.75
9918.00,0.76
9916.00,0.76
9914.00,0.77
9912.00,0.77
9910.00,0.77
9908.00,0.78
9906.00,0.78
9904.00,0.78
9902.00,0.78
9900.00,0.78
9898.00,0.78
9896.00,0.78
9894.00,0.77
9892.00,0.77
9890.00,0.77
9888.00,0.77
9886.00,0.76
9884.00,0.76
9882.00,0.76
9880.00,0.76
9878.00,0.76
9876.00,0.76
9874.00,0.76
9872.00,0.76
9870.00,0.76
9868.00,0.77
9866.00,0.77
9864.00,0.77
9862.00,0.77
9860.00,0.78
9858.00,0.78
9856.00,0.78
9854.00,0.78
9852.00,0.78
9850.00,0.78
9848.00,0.78
9846.00,0.78
9844.00,0.78
9842.00,0.78
9840.00,0.78
9838.00,0.78
9836.00,0.78
9834.00,0.78
9832.00,0.77
9830.00,0.77
9828.00,0.77
9826.00,0.76
9824.00,0.76
9822.00,0.76
9820.00,0.76
9818.00,0.76
9816.00,0.76
9814.00,0.76
9812.00,0.76
9810.00,0.76
9808.00,0.76
9806.00,0.76
9804.00,0.75
9802.00,0.75
9800.00,0.75
9798.00,0.75
9796.00,0.75
9794.00,0.75
9792.00,0.76
9790.00,0.76
9788.00,0.76
9786.00,0.76
9784.00,0.76
9782.00,0.77
9780.00,0.77
9778.00,0.76
9776.00,0.76
9774.00,0.76
9772.00,0.76
9770.00,0.76
9768.00,0.75
9766.00,0.75
9764.00,0.75
9762.00,0.74
9760.00,0.74
9758.00,0.74
9756.00,0.74
9754.00,0.74
9752.00,0.74
9750.00,0.74
9748.00,0.75
9746.00,0.75
9744.00,0.76
9742.00,0.76
9740.00,0.76
9738.00,0.77
9736.00,0.77
9734.00,0.77
9732.00,0.77
9730.00,0.77
9728.00,0.77
9726.00,0.77
9724.00,0.77
9722.00,0.77
9720.00,0.76
9718.00,0.76
9716.00,0.76
9714.00,0.75
9712.00,0.75
9710.00,0.75
9708.00,0.76
9706.00,0.76
9704.00,0.76
9702.00,0.76
9700.00,0.77
9698.00,0.76
9696.00,0.76
9694.00,0.76
9692.00,0.75
9690.00,0.75
9688.00,0.74
9686.00,0.74
9684.00,0.74
9682.00,0.74
9680.00,0.74
9678.00,0.74
9676.00,0.74
9674.00,0.74
9672.00,0.74
9670.00,0.74
9668.00,0.75
9666.00,0.75
9664.00,0.75
9662.00,0.76
9660.00,0.76
9658.00,0.76
9656.00,0.76
9654.00,0.76
9652.00,0.76
9650.00,0.76
9648.00,0.76
9646.00,0.76
9644.00,0.76
9642.00,0.76
9640.00,0.76
9638.00,0.77
9636.00,0.77
9634.00,0.77
9632.00,0.77
9630.00,0.77
9628.00,0.77
9626.00,0.77
9624.00,0.77
9622.00,0.77
9620.00,0.76
9618.00,0.76
9616.00,0.76
9614.00,0.76
9612.00,0.76
9610.00,0.76
9608.00,0.76
9606.00,0.77
9604.00,0.77
9602.00,0.77
9600.00,0.77
9598.00,0.77
9596.00,0.77
9594.00,0.77
9592.00,0.77
9590.00,0.77
9588.00,0.77
9586.00,0.77
9584.00,0.77
9582.00,0.77
9580.00,0.77
9578.00,0.76
9576.00,0.76
9574.00,0.75
9572.00,0.75
9570.00,0.75
9568.00,0.75
9566.00,0.75
9564.00,0.75
9562.00,0.75
9560.00,0.76
9558.00,0.76
9556.00,0.76
9554.00,0.76
9552.00,0.76
9550.00,0.76
9548.00,0.76
9546.00,0.76
9544.00,0.76
9542.00,0.76
9540.00,0.76
9538.00,0.75
9536.00,0.75
9534.00,0.75
9532.00,0.75
9530.00,0.74
9528.00,0.74
9526.00,0.74
9524.00,0.73
9522.00,0.73
9520.00,0.73
9518.00,0.73
9516.00,0.73
9514.00,0.73
9512.00,0.74
9510.00,0.74
9508.00,0.74
9506.00,0.75
9504.00,0.75
9502.00,0.76
9500.00,0.76
9498.00,0.76
9496.00,0.76
9494.00,0.76
9492.00,0.76
9490.00,0.76
9488.00,0.75
9486.00,0.75
9484.00,0.75
9482.00,0.74
9480.00,0.74
9478.00,0.73
9476.00,0.73
9474.00,0.73
9472.00,0.73
9470.00,0.74
9468.00,0.74
9466.00,0.75
9464.00,0.75
9462.00,0.76
9460.00,0.77
9458.00,0.77
9456.00,0.78
9454.00,0.78
9452.00,0.79
9450.00,0.79
9448.00,0.79
9446.00,0.79
9444.00,0.79
9442.00,0.79
9440.00,0.78
9438.00,0.78
9436.00,0.77
9434.00,0.77
9432.00,0.76
9430.00,0.76
9428.00,0.75
9426.00,0.75
9424.00,0.75
9422.00,0.75
9420.00,0.74
9418.00,0.74
9416.00,0.74
9414.00,0.75
9412.00,0.75
9410.00,0.75
9408.00,0.75
9406.00,0.76
9404.00,0.76
9402.00,0.76
9400.00,0.76
9398.00,0.76
9396.00,0.76
9394.00,0.76
9392.00,0.76
9390.00,0.76
9388.00,0.76
9386.00,0.75
9384.00,0.75
9382.00,0.74
9380.00,0.74
9378.00,0.73
9376.00,0.73
9374.00,0.73
9372.00,0.73
9370.00,0.74
9368.00,0.74
9366.00,0.74
9364.00,0.74
9362.00,0.74
9360.00,0.74
9358.00,0.74
9356.00,0.74
9354.00,0.75
9352.00,0.75
9350.00,0.75
9348.00,0.76
9346.00,0.76
9344.00,0.76
9342.00,0.76
9340.00,0.76
9338.00,0.75
9336.00,0.75
9334.00,0.75
9332.00,0.75
9330.00,0.75
9328.00,0.75
9326.00,0.75
9324.00,0.75
9322.00,0.75
9320.00,0.75
9318.00,0.75
9316.00,0.76
9314.00,0.76
9312.00,0.76
9310.00,0.76
9308.00,0.76
9306.00,0.76
9304.00,0.76
9302.00,0.76
9300.00,0.76
9298.00,0.76
9296.00,0.76
9294.00,0.77
9292.00,0.77
9290.00,0.77
9288.00,0.77
9286.00,0.77
9284.00,0.77
9282.00,0.76
9280.00,0.76
9278.00,0.76
9276.00,0.76
9274.00,0.76
9272.00,0.76
9270.00,0.76
9268.00,0.76
9266.00,0.76
9264.00,0.76
9262.00,0.76
9260.00,0.76
9258.00,0.76
9256.00,0.76
9254.00,0.76
9252.00,0.77
9250.00,0.77
9248.00,0.77
9246.00,0.77
9244.00,0.77
9242.00,0.78
9240.00,0.78
9238.00,0.78
9236.00,0.78
9234.00,0.78
9232.00,0.78
9230.00,0.78
9228.00,0.78
9226.00,0.78
9224.00,0.77
9222.00,0.77
9220.00,0.76
9218.00,0.76
9216.00,0.76
9214.00,0.76
9212.00,0.75
9210.00,0.75
9208.00,0.75
9206.00,0.75
9204.00,0.75
9202.00,0.75
9200.00,0.75
9198.00,0.75
9196.00,0.76
9194.00,0.76
9192.00,0.76
9190.00,0.76
9188.00,0.76
9186.00,0.75
9184.00,0.75
9182.00,0.75
9180.00,0.75
9178.00,0.75
9176.00,0.75
9174.00,0.75
9172.00,0.75
9170.00,0.74
9168.00,0.74
9166.00,0.74
9164.00,0.74
9162.00,0.74
9160.00,0.74
9158.00,0.74
9156.00,0.74
9154.00,0.75
9152.00,0.75
9150.00,0.75
9148.00,0.75
9146.00,0.75
9144.00,0.75
9142.00,0.75
9140.00,0.75
9138.00,0.75
9136.00,0.75
9134.00,0.74
9132.00,0.74
9130.00,0.74
9128.00,0.74
9126.00,0.74
9124.00,0.74
9122.00,0.74
9120.00,0.74
9118.00,0.74
9116.00,0.75
9114.00,0.75
9112.00,0.75
9110.00,0.75
9108.00,0.76
9106.00,0.76
9104.00,0.76
9102.00,0.76
9100.00,0.76
9098.00,0.76
9096.00,0.76
9094.00,0.76
9092.00,0.76
9090.00,0.75
9088.00,0.75
9086.00,0.75
9084.00,0.75
9082.00,0.75
9080.00,0.75
9078.00,0.75
9076.00,0.74
9074.00,0.74
9072.00,0.74
9070.00,0.74
9068.00,0.74
9066.00,0.74
9064.00,0.74
9062.00,0.74
9060.00,0.74
9058.00,0.74
9056.00,0.74
9054.00,0.74
9052.00,0.75
9050.00,0.75
9048.00,0.75
9046.00,0.76
9044.00,0.76
9042.00,0.76
9040.00,0.76
9038.00,0.76
9036.00,0.76
9034.00,0.76
9032.00,0.76
9030.00,0.76
9028.00,0.76
9026.00,0.76
9024.00,0.76
9022.00,0.76
9020.00,0.75
9018.00,0.75
9016.00,0.75
9014.00,0.75
9012.00,0.75
9010.00,0.75
9008.00,0.75
9006.00,0.75
9004.00,0.76
9002.00,0.76
9000.00,0.76
8998.00,0.76
8996.00,0.76
8994.00,0.76
8992.00,0.76
8990.00,0.76
8988.00,0.75
8986.00,0.75
8984.00,0.75
8982.00,0.75
8980.00,0.75
8978.00,0.74
8976.00,0.74
8974.00,0.74
8972.00,0.74
8970.00,0.74
8968.00,0.74
8966.00,0.74
8964.00,0.74
8962.00,0.74
8960.00,0.74
8958.00,0.74
8956.00,0.74
8954.00,0.74
8952.00,0.75
8950.00,0.75
8948.00,0.75
8946.00,0.75
8944.00,0.75
8942.00,0.75
8940.00,0.75
8938.00,0.75
8936.00,0.75
8934.00,0.75
8932.00,0.74
8930.00,0.74
8928.00,0.74
8926.00,0.74
8924.00,0.75
8922.00,0.75
8920.00,0.75
8918.00,0.75
8916.00,0.75
8914.00,0.76
8912.00,0.76
8910.00,0.76
8908.00,0.76
8906.00,0.76
8904.00,0.76
8902.00,0.76
8900.00,0.76
8898.00,0.76
8896.00,0.76
8894.00,0.76
8892.00,0.76
8890.00,0.76
8888.00,0.76
8886.00,0.76
8884.00,0.76
8882.00,0.76
8880.00,0.76
8878.00,0.75
8876.00,0.75
8874.00,0.75
8872.00,0.75
8870.00,0.75
8868.00,0.75
8866.00,0.75
8864.00,0.75
8862.00,0.75
8860.00,0.75
8858.00,0.75
8856.00,0.74
8854.00,0.74
8852.00,0.74
8850.00,0.74
8848.00,0.74
8846.00,0.74
8844.00,0.75
8842.00,0.75
8840.00,0.75
8838.00,0.75
8836.00,0.75
8834.00,0.75
8832.00,0.74
8830.00,0.74
8828.00,0.74
8826.00,0.74
8824.00,0.74
8822.00,0.74
8820.00,0.74
8818.00,0.74
8816.00,0.74
8814.00,0.74
8812.00,0.74
8810.00,0.74
8808.00,0.74
8806.00,0.74
8804.00,0.74
8802.00,0.74
8800.00,0.75
8798.00,0.75
8796.00,0.75
8794.00,0.76
8792.00,0.76
8790.00,0.76
8788.00,0.76
8786.00,0.76
8784.00,0.76
8782.00,0.76
8780.00,0.76
8778.00,0.75
8776.00,0.75
8774.00,0.75
8772.00,0.75
8770.00,0.74
8768.00,0.74
8766.00,0.74
8764.00,0.74
8762.00,0.74
8760.00,0.74
8758.00,0.75
8756.00,0.75
8754.00,0.75
8752.00,0.75
8750.00,0.75
8748.00,0.75
8746.00,0.75
8744.00,0.75
8742.00,0.75
8740.00,0.75
8738.00,0.74
8736.00,0.74
8734.00,0.74
8732.00,0.75
8730.00,0.75
8728.00,0.75
8726.00,0.75
8724.00,0.75
8722.00,0.75
8720.00,0.75
8718.00,0.74
8716.00,0.74
8714.00,0.74
8712.00,0.74
8710.00,0.74
8708.00,0.74
8706.00,0.75
8704.00,0.75
8702.00,0.75
8700.00,0.75
8698.00,0.75
8696.00,0.75
8694.00,0.75
8692.00,0.75
8690.00,0.75
8688.00,0.75
8686.00,0.75
8684.00,0.74
8682.00,0.74
8680.00,0.75
8678.00,0.75
8676.00,0.75
8674.00,0.75
8672.00,0.75
8670.00,0.75
8668.00,0.75
8666.00,0.75
8664.00,0.74
8662.00,0.74
8660.00,0.74
8658.00,0.74
8656.00,0.74
8654.00,0.74
8652.00,0.74
8650.00,0.74
8648.00,0.75
8646.00,0.75
8644.00,0.75
8642.00,0.75
8640.00,0.75
8638.00,0.75
8636.00,0.75
8634.00,0.75
8632.00,0.75
8630.00,0.75
8628.00,0.75
8626.00,0.75
8624.00,0.75
8622.00,0.75
8620.00,0.75
8618.00,0.75
8616.00,0.75
8614.00,0.75
8612.00,0.74
8610.00,0.74
8608.00,0.74
8606.00,0.74
8604.00,0.74
8602.00,0.74
8600.00,0.74
8598.00,0.74
8596.00,0.74
8594.00,0.75
8592.00,0.75
8590.00,0.75
8588.00,0.75
8586.00,0.76
8584.00,0.76
8582.00,0.76
8580.00,0.76
8578.00,0.75
8576.00,0.75
8574.00,0.75
8572.00,0.74
8570.00,0.74
8568.00,0.74
8566.00,0.74
8564.00,0.73
8562.00,0.73
8560.00,0.73
8558.00,0.73
8556.00,0.73
8554.00,0.73
8552.00,0.73
8550.00,0.73
8548.00,0.73
8546.00,0.73
8544.00,0.73
8542.00,0.73
8540.00,0.73
8538.00,0.73
8536.00,0.73
8534.00,0.73
8532.00,0.74
8530.00,0.74
8528.00,0.74
8526.00,0.74
8524.00,0.75
8522.00,0.75
8520.00,0.75
8518.00,0.75
8516.00,0.75
8514.00,0.75
8512.00,0.75
8510.00,0.75
8508.00,0.75
8506.00,0.75
8504.00,0.75
8502.00,0.75
8500.00,0.75
8498.00,0.75
8496.00,0.75
8494.00,0.75
8492.00,0.75
8490.00,0.75
8488.00,0.75
8486.00,0.75
8484.00,0.75
8482.00,0.75
8480.00,0.75
8478.00,0.74
8476.00,0.74
8474.00,0.74
8472.00,0.74
8470.00,0.74
8468.00,0.74
8466.00,0.74
8464.00,0.74
8462.00,0.74
8460.00,0.74
8458.00,0.74
8456.00,0.74
8454.00,0.74
8452.00,0.74
8450.00,0.74
8448.00,0.74
8446.00,0.74
8444.00,0.74
8442.00,0.74
8440.00,0.75
8438.00,0.75
8436.00,0.75
8434.00,0.75
8432.00,0.75
8430.00,0.75
8428.00,0.75
8426.00,0.75
8424.00,0.75
8422.00,0.75
8420.00,0.74
8418.00,0.74
8416.00,0.74
8414.00,0.74
8412.00,0.74
8410.00,0.74
8408.00,0.74
8406.00,0.74
8404.00,0.74
8402.00,0.74
8400.00,0.74
8398.00,0.74
8396.00,0.74
8394.00,0.74
8392.00,0.74
8390.00,0.74
8388.00,0.75
8386.00,0.75
8384.00,0.75
8382.00,0.75
8380.00,0.75
8378.00,0.75
8376.00,0.75
8374.00,0.75
8372.00,0.75
8370.00,0.75
8368.00,0.74
8366.00,0.74
8364.00,0.74
8362.00,0.74
8360.00,0.74
8358.00,0.74
8356.00,0.74
8354.00,0.74
8352.00,0.74
8350.00,0.75
8348.00,0.75
8346.00,0.75
8344.00,0.74
8342.00,0.74
8340.00,0.74
8338.00,0.74
8336.00,0.74
8334.00,0.74
8332.00,0.75
8330.00,0.75
8328.00,0.75
8326.00,0.75
8324.00,0.76
8322.00,0.76
8320.00,0.75
8318.00,0.75
8316.00,0.75
8314.00,0.75
8312.00,0.74
8310.00,0.74
8308.00,0.74
8306.00,0.74
8304.00,0.74
8302.00,0.74
8300.00,0.74
8298.00,0.75
8296.00,0.75
8294.00,0.75
8292.00,0.75
8290.00,0.75
8288.00,0.76
8286.00,0.76
8284.00,0.76
8282.00,0.76
8280.00,0.76
8278.00,0.76
8276.00,0.76
8274.00,0.75
8272.00,0.75
8270.00,0.75
8268.00,0.75
8266.00,0.75
8264.00,0.75
8262.00,0.75
8260.00,0.75
8258.00,0.75
8256.00,0.75
8254.00,0.76
8252.00,0.76
8250.00,0.76
8248.00,0.76
8246.00,0.76
8244.00,0.75
8242.00,0.75
8240.00,0.75
8238.00,0.75
8236.00,0.75
8234.00,0.75
8232.00,0.75
8230.00,0.75
8228.00,0.75
8226.00,0.75
8224.00,0.75
8222.00,0.76
8220.00,0.76
8218.00,0.76
8216.00,0.75
8214.00,0.75
8212.00,0.75
8210.00,0.75
8208.00,0.75
8206.00,0.76
8204.00,0.76
8202.00,0.76
8200.00,0.76
8198.00,0.76
8196.00,0.76
8194.00,0.76
8192.00,0.76
8190.00,0.76
8188.00,0.76
8186.00,0.76
8184.00,0.76
8182.00,0.76
8180.00,0.76
8178.00,0.76
8176.00,0.76
8174.00,0.76
8172.00,0.76
8170.00,0.76
8168.00,0.76
8166.00,0.76
8164.00,0.76
8162.00,0.76
8160.00,0.76
8158.00,0.76
8156.00,0.76
8154.00,0.76
8152.00,0.76
8150.00,0.75
8148.00,0.75
8146.00,0.75
8144.00,0.75
8142.00,0.75
8140.00,0.75
8138.00,0.75
8136.00,0.75
8134.00,0.75
8132.00,0.75
8130.00,0.75
8128.00,0.75
8126.00,0.75
8124.00,0.75
8122.00,0.75
8120.00,0.75
8118.00,0.75
8116.00,0.75
8114.00,0.75
8112.00,0.75
8110.00,0.75
8108.00,0.75
8106.00,0.75
8104.00,0.75
8102.00,0.75
8100.00,0.75
8098.00,0.75
8096.00,0.75
8094.00,0.75
8092.00,0.75
8090.00,0.75
8088.00,0.75
8086.00,0.75
8084.00,0.76
8082.00,0.76
8080.00,0.76
8078.00,0.76
8076.00,0.76
8074.00,0.76
8072.00,0.76
8070.00,0.76
8068.00,0.76
8066.00,0.76
8064.00,0.76
8062.00,0.76
8060.00,0.76
8058.00,0.76
8056.00,0.76
8054.00,0.76
8052.00,0.76
8050.00,0.76
8048.00,0.76
8046.00,0.76
8044.00,0.76
8042.00,0.76
8040.00,0.76
8038.00,0.76
8036.00,0.76
8034.00,0.76
8032.00,0.76
8030.00,0.76
8028.00,0.76
8026.00,0.76
8024.00,0.76
8022.00,0.76
8020.00,0.76
8018.00,0.76
8016.00,0.76
8014.00,0.76
8012.00,0.75
8010.00,0.75
8008.00,0.75
8006.00,0.75
8004.00,0.75
8002.00,0.75
8000.00,0.75
7998.00,0.75
7996.00,0.75
7994.00,0.75
7992.00,0.75
7990.00,0.75
7988.00,0.75
7986.00,0.74
7984.00,0.74
7982.00,0.74
7980.00,0.75
7978.00,0.75
7976.00,0.75
7974.00,0.75
7972.00,0.75
7970.00,0.75
7968.00,0.76
7966.00,0.76
7964.00,0.76
7962.00,0.76
7960.00,0.76
7958.00,0.76
7956.00,0.76
7954.00,0.76
7952.00,0.76
7950.00,0.76
7948.00,0.76
7946.00,0.75
7944.00,0.75
7942.00,0.75
7940.00,0.75
7938.00,0.75
7936.00,0.75
7934.00,0.75
7932.00,0.75
7930.00,0.75
7928.00,0.75
7926.00,0.75
7924.00,0.75
7922.00,0.75
7920.00,0.75
7918.00,0.75
7916.00,0.75
7914.00,0.75
7912.00,0.75
7910.00,0.75
7908.00,0.75
7906.00,0.75
7904.00,0.75
7902.00,0.75
7900.00,0.76
7898.00,0.76
7896.00,0.76
7894.00,0.76
7892.00,0.76
7890.00,0.76
7888.00,0.76
7886.00,0.76
7884.00,0.76
7882.00,0.76
7880.00,0.76
7878.00,0.76
7876.00,0.76
7874.00,0.75
7872.00,0.75
7870.00,0.75
7868.00,0.75
7866.00,0.75
7864.00,0.75
7862.00,0.75
7860.00,0.75
7858.00,0.75
7856.00,0.75
7854.00,0.75
7852.00,0.75
7850.00,0.75
7848.00,0.75
7846.00,0.75
7844.00,0.76
7842.00,0.76
7840.00,0.76
7838.00,0.76
7836.00,0.76
7834.00,0.76
7832.00,0.76
7830.00,0.76
7828.00,0.76
7826.00,0.77
7824.00,0.77
7822.00,0.77
7820.00,0.77
7818.00,0.77
7816.00,0.77
7814.00,0.77
7812.00,0.77
7810.00,0.77
7808.00,0.77
7806.00,0.77
7804.00,0.77
7802.00,0.76
7800.00,0.76
7798.00,0.76
7796.00,0.76
7794.00,0.75
7792.00,0.75
7790.00,0.75
7788.00,0.75
7786.00,0.75
7784.00,0.75
7782.00,0.75
7780.00,0.75
7778.00,0.75
7776.00,0.75
7774.00,0.75
7772.00,0.76
7770.00,0.76
7768.00,0.76
7766.00,0.76
7764.00,0.76
7762.00,0.76
7760.00,0.76
7758.00,0.76
7756.00,0.76
7754.00,0.76
7752.00,0.76
7750.00,0.76
7748.00,0.76
7746.00,0.76
7744.00,0.76
7742.00,0.76
7740.00,0.76
7738.00,0.76
7736.00,0.76
7734.00,0.76
7732.00,0.76
7730.00,0.76
7728.00,0.76
7726.00,0.76
7724.00,0.76
7722.00,0.76
7720.00,0.76
7718.00,0.76
7716.00,0.76
7714.00,0.76
7712.00,0.76
7710.00,0.77
7708.00,0.77
7706.00,0.77
7704.00,0.77
7702.00,0.77
7700.00,0.77
7698.00,0.77
7696.00,0.77
7694.00,0.76
7692.00,0.76
7690.00,0.76
7688.00,0.76
7686.00,0.76
7684.00,0.76
7682.00,0.76
7680.00,0.76
7678.00,0.76
7676.00,0.76
7674.00,0.76
7672.00,0.77
7670.00,0.77
7668.00,0.77
7666.00,0.77
7664.00,0.77
7662.00,0.77
7660.00,0.77
7658.00,0.77
7656.00,0.77
7654.00,0.77
7652.00,0.77
7650.00,0.77
7648.00,0.76
7646.00,0.76
7644.00,0.76
7642.00,0.76
7640.00,0.76
7638.00,0.76
7636.00,0.77
7634.00,0.77
7632.00,0.77
7630.00,0.77
7628.00,0.77
7626.00,0.77
7624.00,0.77
7622.00,0.77
7620.00,0.76
7618.00,0.76
7616.00,0.76
7614.00,0.76
7612.00,0.76
7610.00,0.76
7608.00,0.76
7606.00,0.76
7604.00,0.76
7602.00,0.76
7600.00,0.76
7598.00,0.76
7596.00,0.76
7594.00,0.76
7592.00,0.76
7590.00,0.76
7588.00,0.76
7586.00,0.76
7584.00,0.76
7582.00,0.75
7580.00,0.75
7578.00,0.76
7576.00,0.76
7574.00,0.76
7572.00,0.76
7570.00,0.76
7568.00,0.76
7566.00,0.76
7564.00,0.76
7562.00,0.76
7560.00,0.76
7558.00,0.76
7556.00,0.76
7554.00,0.76
7552.00,0.76
7550.00,0.76
7548.00,0.76
7546.00,0.76
7544.00,0.76
7542.00,0.76
7540.00,0.76
7538.00,0.75
7536.00,0.75
7534.00,0.75
7532.00,0.75
7530.00,0.76
7528.00,0.76
7526.00,0.76
7524.00,0.76
7522.00,0.76
7520.00,0.76
7518.00,0.76
7516.00,0.76
7514.00,0.76
7512.00,0.76
7510.00,0.76
7508.00,0.76
7506.00,0.76
7504.00,0.76
7502.00,0.76
7500.00,0.76
7498.00,0.75
7496.00,0.75
7494.00,0.75
7492.00,0.75
7490.00,0.76
7488.00,0.76
7486.00,0.76
7484.00,0.76
7482.00,0.76
7480.00,0.76
7478.00,0.76
7476.00,0.76
7474.00,0.77
7472.00,0.77
7470.00,0.76
7468.00,0.76
7466.00,0.76
7464.00,0.76
7462.00,0.76
7460.00,0.76
7458.00,0.75
7456.00,0.75
7454.00,0.75
7452.00,0.75
7450.00,0.76
7448.00,0.76
7446.00,0.76
7444.00,0.76
7442.00,0.76
7440.00,0.76
7438.00,0.76
7436.00,0.76
7434.00,0.76
7432.00,0.76
7430.00,0.76
7428.00,0.76
7426.00,0.76
7424.00,0.76
7422.00,0.76
7420.00,0.76
7418.00,0.76
7416.00,0.75
7414.00,0.75
7412.00,0.75
7410.00,0.75
7408.00,0.75
7406.00,0.75
7404.00,0.75
7402.00,0.75
7400.00,0.75
7398.00,0.75
7396.00,0.75
7394.00,0.75
7392.00,0.75
7390.00,0.75
7388.00,0.75
7386.00,0.75
7384.00,0.75
7382.00,0.75
7380.00,0.75
7378.00,0.75
7376.00,0.74
7374.00,0.74
7372.00,0.74
7370.00,0.74
7368.00,0.74
7366.00,0.74
7364.00,0.74
7362.00,0.74
7360.00,0.75
7358.00,0.75
7356.00,0.75
7354.00,0.75
7352.00,0.75
7350.00,0.75
7348.00,0.75
7346.00,0.75
7344.00,0.75
7342.00,0.75
7340.00,0.75
7338.00,0.75
7336.00,0.75
7334.00,0.75
7332.00,0.75
7330.00,0.75
7328.00,0.75
7326.00,0.75
7324.00,0.75
7322.00,0.75
7320.00,0.75
7318.00,0.75
7316.00,0.75
7314.00,0.75
7312.00,0.75
7310.00,0.75
7308.00,0.75
7306.00,0.76
7304.00,0.76
7302.00,0.76
7300.00,0.75
7298.00,0.75
7296.00,0.75
7294.00,0.75
7292.00,0.75
7290.00,0.75
7288.00,0.74
7286.00,0.74
7284.00,0.74
7282.00,0.74
7280.00,0.74
7278.00,0.74
7276.00,0.75
7274.00,0.75
7272.00,0.75
7270.00,0.75
7268.00,0.75
7266.00,0.75
7264.00,0.75
7262.00,0.75
7260.00,0.75
7258.00,0.74
7256.00,0.74
7254.00,0.74
7252.00,0.74
7250.00,0.74
7248.00,0.74
7246.00,0.74
7244.00,0.74
7242.00,0.74
7240.00,0.74
7238.00,0.74
7236.00,0.74
7234.00,0.73
7232.00,0.73
7230.00,0.73
7228.00,0.72
7226.00,0.72
7224.00,0.72
7222.00,0.72
7220.00,0.72
7218.00,0.72
7216.00,0.72
7214.00,0.72
7212.00,0.72
7210.00,0.72
7208.00,0.72
7206.00,0.72
7204.00,0.72
7202.00,0.73
7200.00,0.73
7198.00,0.73
7196.00,0.73
7194.00,0.73
7192.00,0.73
7190.00,0.72
7188.00,0.72
7186.00,0.72
7184.00,0.72
7182.00,0.72
7180.00,0.72
7178.00,0.72
7176.00,0.72
7174.00,0.72
7172.00,0.72
7170.00,0.72
7168.00,0.72
7166.00,0.72
7164.00,0.72
7162.00,0.71
7160.00,0.71
7158.00,0.71
7156.00,0.71
7154.00,0.71
7152.00,0.71
7150.00,0.71
7148.00,0.71
7146.00,0.71
7144.00,0.71
7142.00,0.71
7140.00,0.71
7138.00,0.70
7136.00,0.70
7134.00,0.70
7132.00,0.70
7130.00,0.70
7128.00,0.70
7126.00,0.70
7124.00,0.70
7122.00,0.70
7120.00,0.69
7118.00,0.69
7116.00,0.69
7114.00,0.69
7112.00,0.69
7110.00,0.69
7108.00,0.69
7106.00,0.69
7104.00,0.69
7102.00,0.69
7100.00,0.69
7098.00,0.69
7096.00,0.69
7094.00,0.69
7092.00,0.68
7090.00,0.68
7088.00,0.68
7086.00,0.68
7084.00,0.68
7082.00,0.68
7080.00,0.68
7078.00,0.68
7076.00,0.68
7074.00,0.69
7072.00,0.69
7070.00,0.69
7068.00,0.69
7066.00,0.69
7064.00,0.69
7062.00,0.69
7060.00,0.69
7058.00,0.69
7056.00,0.69
7054.00,0.69
7052.00,0.68
7050.00,0.68
7048.00,0.68
7046.00,0.68
7044.00,0.68
7042.00,0.68
7040.00,0.68
7038.00,0.68
7036.00,0.68
7034.00,0.68
7032.00,0.68
7030.00,0.68
7028.00,0.68
7026.00,0.69
7024.00,0.68
7022.00,0.68
7020.00,0.68
7018.00,0.68
7016.00,0.68
7014.00,0.68
7012.00,0.68
7010.00,0.68
7008.00,0.69
7006.00,0.69
7004.00,0.69
7002.00,0.69
7000.00,0.69
6998.00,0.69
6996.00,0.69
6994.00,0.69
6992.00,0.68
6990.00,0.68
6988.00,0.68
6986.00,0.68
6984.00,0.68
6982.00,0.68
6980.00,0.68
6978.00,0.68
6976.00,0.68
6974.00,0.68
6972.00,0.68
6970.00,0.68
6968.00,0.68
6966.00,0.68
6964.00,0.68
6962.00,0.68
6960.00,0.68
6958.00,0.68
6956.00,0.68
6954.00,0.68
6952.00,0.68
6950.00,0.67
6948.00,0.67
6946.00,0.67
6944.00,0.67
6942.00,0.67
6940.00,0.67
6938.00,0.67
6936.00,0.67
6934.00,0.67
6932.00,0.67
6930.00,0.67
6928.00,0.68
6926.00,0.68
6924.00,0.68
6922.00,0.68
6920.00,0.68
6918.00,0.68
6916.00,0.68
6914.00,0.68
6912.00,0.68
6910.00,0.68
6908.00,0.68
6906.00,0.67
6904.00,0.67
6902.00,0.67
6900.00,0.67
6898.00,0.67
6896.00,0.67
6894.00,0.67
6892.00,0.68
6890.00,0.68
6888.00,0.67
6886.00,0.67
6884.00,0.67
6882.00,0.67
6880.00,0.67
6878.00,0.67
6876.00,0.67
6874.00,0.67
6872.00,0.67
6870.00,0.68
6868.00,0.68
6866.00,0.68
6864.00,0.68
6862.00,0.67
6860.00,0.67
6858.00,0.67
6856.00,0.67
6854.00,0.67
6852.00,0.67
6850.00,0.67
6848.00,0.68
6846.00,0.68
6844.00,0.68
6842.00,0.68
6840.00,0.68
6838.00,0.68
6836.00,0.68
6834.00,0.68
6832.00,0.68
6830.00,0.68
6828.00,0.68
6826.00,0.68
6824.00,0.68
6822.00,0.68
6820.00,0.68
6818.00,0.68
6816.00,0.67
6814.00,0.67
6812.00,0.67
6810.00,0.67
6808.00,0.67
6806.00,0.67
6804.00,0.68
6802.00,0.68
6800.00,0.68
6798.00,0.68
6796.00,0.68
6794.00,0.68
6792.00,0.68
6790.00,0.69
6788.00,0.69
6786.00,0.69
6784.00,0.69
6782.00,0.69
6780.00,0.69
6778.00,0.69
6776.00,0.68
6774.00,0.68
6772.00,0.68
6770.00,0.68
6768.00,0.68
6766.00,0.68
6764.00,0.68
6762.00,0.68
6760.00,0.68
6758.00,0.68
6756.00,0.68
6754.00,0.68
6752.00,0.68
6750.00,0.68
6748.00,0.68
6746.00,0.68
6744.00,0.68
6742.00,0.68
6740.00,0.68
6738.00,0.68
6736.00,0.68
6734.00,0.68
6732.00,0.68
6730.00,0.68
6728.00,0.68
6726.00,0.68
6724.00,0.68
6722.00,0.69
6720.00,0.69
6718.00,0.69
6716.00,0.69
6714.00,0.69
6712.00,0.69
6710.00,0.69
6708.00,0.69
6706.00,0.69
6704.00,0.69
6702.00,0.69
6700.00,0.69
6698.00,0.69
6696.00,0.69
6694.00,0.69
6692.00,0.69
6690.00,0.69
6688.00,0.69
6686.00,0.69
6684.00,0.69
6682.00,0.69
6680.00,0.69
6678.00,0.69
6676.00,0.69
6674.00,0.69
6672.00,0.69
6670.00,0.69
6668.00,0.69
6666.00,0.70
6664.00,0.70
6662.00,0.70
6660.00,0.70
6658.00,0.70
6656.00,0.70
6654.00,0.70
6652.00,0.70
6650.00,0.70
6648.00,0.70
6646.00,0.70
6644.00,0.70
6642.00,0.70
6640.00,0.70
6638.00,0.70
6636.00,0.70
6634.00,0.70
6632.00,0.70
6630.00,0.70
6628.00,0.70
6626.00,0.70
6624.00,0.70
6622.00,0.70
6620.00,0.70
6618.00,0.70
6616.00,0.71
6614.00,0.71
6612.00,0.71
6610.00,0.71
6608.00,0.71
6606.00,0.71
6604.00,0.71
6602.00,0.71
6600.00,0.71
6598.00,0.71
6596.00,0.70
6594.00,0.70
6592.00,0.70
6590.00,0.70
6588.00,0.70
6586.00,0.70
6584.00,0.70
6582.00,0.70
6580.00,0.70
6578.00,0.70
6576.00,0.70
6574.00,0.70
6572.00,0.70
6570.00,0.70
6568.00,0.70
6566.00,0.71
6564.00,0.71
6562.00,0.71
6560.00,0.71
6558.00,0.71
6556.00,0.71
6554.00,0.71
6552.00,0.71
6550.00,0.71
6548.00,0.71
6546.00,0.71
6544.00,0.71
6542.00,0.71
6540.00,0.71
6538.00,0.71
6536.00,0.71
6534.00,0.71
6532.00,0.71
6530.00,0.71
6528.00,0.71
6526.00,0.71
6524.00,0.71
6522.00,0.71
6520.00,0.71
6518.00,0.71
6516.00,0.71
6514.00,0.71
6512.00,0.71
6510.00,0.71
6508.00,0.71
6506.00,0.71
6504.00,0.71
6502.00,0.71
6500.00,0.72
6498.00,0.72
6496.00,0.72
6494.00,0.72
6492.00,0.72
6490.00,0.72
6488.00,0.72
6486.00,0.72
6484.00,0.72
6482.00,0.72
6480.00,0.72
6478.00,0.72
6476.00,0.72
6474.00,0.72
6472.00,0.72
6470.00,0.72
6468.00,0.72
6466.00,0.72
6464.00,0.72
6462.00,0.72
6460.00,0.71
6458.00,0.71
6456.00,0.71
6454.00,0.71
6452.00,0.71
6450.00,0.71
6448.00,0.71
6446.00,0.71
6444.00,0.71
6442.00,0.71
6440.00,0.71
6438.00,0.72
6436.00,0.72
6434.00,0.72
6432.00,0.72
6430.00,0.72
6428.00,0.72
6426.00,0.72
6424.00,0.72
6422.00,0.72
6420.00,0.72
6418.00,0.72
6416.00,0.72
6414.00,0.72
6412.00,0.72
6410.00,0.72
6408.00,0.72
6406.00,0.72
6404.00,0.72
6402.00,0.72
6400.00,0.72
6398.00,0.72
6396.00,0.72
6394.00,0.72
6392.00,0.72
6390.00,0.72
6388.00,0.72
6386.00,0.72
6384.00,0.73
6382.00,0.72
6380.00,0.72
6378.00,0.72
6376.00,0.72
6374.00,0.72
6372.00,0.72
6370.00,0.72
6368.00,0.72
6366.00,0.72
6364.00,0.72
6362.00,0.72
6360.00,0.72
6358.00,0.72
6356.00,0.72
6354.00,0.72
6352.00,0.72
6350.00,0.72
6348.00,0.72
6346.00,0.72
6344.00,0.72
6342.00,0.72
6340.00,0.72
6338.00,0.72
6336.00,0.73
6334.00,0.73
6332.00,0.73
6330.00,0.73
6328.00,0.73
6326.00,0.73
6324.00,0.73
6322.00,0.73
6320.00,0.73
6318.00,0.73
6316.00,0.73
6314.00,0.73
6312.00,0.73
6310.00,0.73
6308.00,0.73
6306.00,0.73
6304.00,0.73
6302.00,0.73
6300.00,0.73
6298.00,0.73
6296.00,0.73
6294.00,0.73
6292.00,0.73
6290.00,0.73
6288.00,0.73
6286.00,0.73
6284.00,0.73
6282.00,0.73
6280.00,0.73
6278.00,0.73
6276.00,0.74
6274.00,0.74
6272.00,0.74
6270.00,0.74
6268.00,0.74
6266.00,0.74
6264.00,0.74
6262.00,0.74
6260.00,0.74
6258.00,0.74
6256.00,0.74
6254.00,0.74
6252.00,0.74
6250.00,0.74
6248.00,0.74
6246.00,0.74
6244.00,0.74
6242.00,0.74
6240.00,0.74
6238.00,0.74
6236.00,0.74
6234.00,0.74
6232.00,0.74
6230.00,0.74
6228.00,0.74
6226.00,0.74
6224.00,0.74
6222.00,0.74
6220.00,0.74
6218.00,0.74
6216.00,0.74
6214.00,0.74
6212.00,0.74
6210.00,0.74
6208.00,0.74
6206.00,0.74
6204.00,0.74
6202.00,0.74
6200.00,0.74
6198.00,0.74
6196.00,0.74
6194.00,0.74
6192.00,0.74
6190.00,0.74
6188.00,0.74
6186.00,0.74
6184.00,0.74
6182.00,0.74
6180.00,0.74
6178.00,0.74
6176.00,0.74
6174.00,0.74
6172.00,0.74
6170.00,0.74
6168.00,0.75
6166.00,0.75
6164.00,0.75
6162.00,0.75
6160.00,0.75
6158.00,0.75
6156.00,0.75
6154.00,0.75
6152.00,0.75
6150.00,0.75
6148.00,0.75
6146.00,0.75
6144.00,0.75
6142.00,0.75
6140.00,0.75
6138.00,0.75
6136.00,0.75
6134.00,0.75
6132.00,0.75
6130.00,0.75
6128.00,0.75
6126.00,0.75
6124.00,0.75
6122.00,0.75
6120.00,0.75
6118.00,0.75
6116.00,0.76
6114.00,0.76
6112.00,0.75
6110.00,0.75
6108.00,0.75
6106.00,0.75
6104.00,0.75
6102.00,0.75
6100.00,0.75
6098.00,0.75
6096.00,0.75
6094.00,0.75
6092.00,0.75
6090.00,0.75
6088.00,0.75
6086.00,0.75
6084.00,0.75
6082.00,0.75
6080.00,0.75
6078.00,0.76
6076.00,0.76
6074.00,0.76
6072.00,0.76
6070.00,0.76
6068.00,0.76
6066.00,0.76
6064.00,0.76
6062.00,0.76
6060.00,0.76
6058.00,0.76
6056.00,0.76
6054.00,0.76
6052.00,0.76
6050.00,0.76
6048.00,0.76
6046.00,0.76
6044.00,0.76
6042.00,0.76
6040.00,0.76
6038.00,0.76
6036.00,0.76
6034.00,0.76
6032.00,0.76
6030.00,0.76
6028.00,0.76
6026.00,0.76
6024.00,0.76
6022.00,0.76
6020.00,0.76
6018.00,0.76
6016.00,0.76
6014.00,0.76
6012.00,0.76
6010.00,0.76
6008.00,0.76
6006.00,0.76
6004.00,0.76
6002.00,0.76
6000.00,0.76
5998.00,0.76
5996.00,0.76
5994.00,0.76
5992.00,0.76
5990.00,0.76
5988.00,0.76
5986.00,0.76
5984.00,0.76
5982.00,0.76
5980.00,0.76
5978.00,0.76
5976.00,0.76
5974.00,0.76
5972.00,0.76
5970.00,0.76
5968.00,0.75
5966.00,0.75
5964.00,0.75
5962.00,0.75
5960.00,0.75
5958.00,0.75
5956.00,0.75
5954.00,0.74
5952.00,0.74
5950.00,0.74
5948.00,0.74
5946.00,0.74
5944.00,0.74
5942.00,0.74
5940.00,0.74
5938.00,0.74
5936.00,0.74
5934.00,0.74
5932.00,0.74
5930.00,0.74
5928.00,0.74
5926.00,0.74
5924.00,0.74
5922.00,0.74
5920.00,0.74
5918.00,0.74
5916.00,0.74
5914.00,0.74
5912.00,0.74
5910.00,0.74
5908.00,0.74
5906.00,0.74
5904.00,0.74
5902.00,0.74
5900.00,0.74
5898.00,0.74
5896.00,0.74
5894.00,0.74
5892.00,0.74
5890.00,0.74
5888.00,0.74
5886.00,0.74
5884.00,0.74
5882.00,0.74
5880.00,0.74
5878.00,0.74
5876.00,0.74
5874.00,0.74
5872.00,0.74
5870.00,0.74
5868.00,0.74
5866.00,0.74
5864.00,0.75
5862.00,0.75
5860.00,0.75
5858.00,0.75
5856.00,0.75
5854.00,0.75
5852.00,0.75
5850.00,0.75
5848.00,0.75
5846.00,0.75
5844.00,0.75
5842.00,0.75
5840.00,0.75
5838.00,0.75
5836.00,0.75
5834.00,0.75
5832.00,0.75
5830.00,0.75
5828.00,0.75
5826.00,0.75
5824.00,0.75
5822.00,0.75
5820.00,0.75
5818.00,0.75
5816.00,0.75
5814.00,0.75
5812.00,0.75
5810.00,0.75
5808.00,0.75
5806.00,0.75
5804.00,0.75
5802.00,0.75
5800.00,0.75
5798.00,0.75
5796.00,0.75
5794.00,0.75
5792.00,0.75
5790.00,0.75
5788.00,0.75
5786.00,0.75
5784.00,0.74
5782.00,0.74
5780.00,0.74
5778.00,0.74
5776.00,0.74
5774.00,0.74
5772.00,0.74
5770.00,0.74
5768.00,0.75
5766.00,0.75
5764.00,0.75
5762.00,0.75
5760.00,0.75
5758.00,0.75
5756.00,0.75
5754.00,0.75
5752.00,0.75
5750.00,0.75
5748.00,0.75
5746.00,0.75
5744.00,0.75
5742.00,0.75
5740.00,0.75
5738.00,0.75
5736.00,0.75
5734.00,0.75
5732.00,0.75
5730.00,0.75
5728.00,0.75
5726.00,0.75
5724.00,0.75
5722.00,0.75
5720.00,0.76
5718.00,0.76
5716.00,0.76
5714.00,0.76
5712.00,0.76
5710.00,0.76
5708.00,0.76
5706.00,0.76
5704.00,0.76
5702.00,0.76
5700.00,0.76
5698.00,0.76
5696.00,0.76
5694.00,0.75
5692.00,0.75
5690.00,0.75
5688.00,0.75
5686.00,0.75
5684.00,0.75
5682.00,0.75
5680.00,0.75
5678.00,0.75
5676.00,0.75
5674.00,0.75
5672.00,0.75
5670.00,0.75
5668.00,0.75
5666.00,0.75
5664.00,0.75
5662.00,0.75
5660.00,0.75
5658.00,0.75
5656.00,0.76
5654.00,0.76
5652.00,0.76
5650.00,0.76
5648.00,0.76
5646.00,0.76
5644.00,0.76
5642.00,0.76
5640.00,0.76
5638.00,0.76
5636.00,0.76
5634.00,0.76
5632.00,0.76
5630.00,0.76
5628.00,0.76
5626.00,0.76
5624.00,0.76
5622.00,0.76
5620.00,0.76
5618.00,0.76
5616.00,0.76
5614.00,0.76
5612.00,0.76
5610.00,0.76
5608.00,0.76
5606.00,0.76
5604.00,0.76
5602.00,0.76
5600.00,0.76
5598.00,0.76
5596.00,0.76
5594.00,0.77
5592.00,0.77
5590.00,0.77
5588.00,0.77
5586.00,0.77
5584.00,0.77
5582.00,0.77
5580.00,0.77
5578.00,0.77
5576.00,0.77
5574.00,0.77
5572.00,0.77
5570.00,0.77
5568.00,0.77
5566.00,0.77
5564.00,0.77
5562.00,0.77
5560.00,0.77
5558.00,0.77
5556.00,0.77
5554.00,0.77
5552.00,0.77
5550.00,0.77
5548.00,0.77
5546.00,0.77
5544.00,0.77
5542.00,0.77
5540.00,0.77
5538.00,0.77
5536.00,0.77
5534.00,0.77
5532.00,0.77
5530.00,0.77
5528.00,0.77
5526.00,0.78
5524.00,0.78
5522.00,0.78
5520.00,0.78
5518.00,0.78
5516.00,0.78
5514.00,0.78
5512.00,0.78
5510.00,0.78
5508.00,0.78
5506.00,0.78
5504.00,0.78
5502.00,0.78
5500.00,0.78
5498.00,0.78
5496.00,0.78
5494.00,0.78
5492.00,0.78
5490.00,0.78
5488.00,0.78
5486.00,0.78
5484.00,0.78
5482.00,0.78
5480.00,0.78
5478.00,0.78
5476.00,0.78
5474.00,0.78
5472.00,0.78
5470.00,0.78
5468.00,0.78
5466.00,0.78
5464.00,0.78
5462.00,0.78
5460.00,0.78
5458.00,0.78
5456.00,0.78
5454.00,0.78
5452.00,0.78
5450.00,0.78
5448.00,0.78
5446.00,0.78
5444.00,0.78
5442.00,0.78
5440.00,0.78
5438.00,0.78
5436.00,0.78
5434.00,0.78
5432.00,0.78
5430.00,0.78
5428.00,0.78
5426.00,0.78
5424.00,0.78
5422.00,0.78
5420.00,0.78
5418.00,0.78
5416.00,0.78
5414.00,0.78
5412.00,0.78
5410.00,0.78
5408.00,0.78
5406.00,0.78
5404.00,0.78
5402.00,0.78
5400.00,0.78
5398.00,0.78
5396.00,0.78
5394.00,0.78
5392.00,0.78
5390.00,0.78
5388.00,0.78
5386.00,0.78
5384.00,0.78
5382.00,0.78
5380.00,0.78
5378.00,0.78
5376.00,0.78
5374.00,0.78
5372.00,0.78
5370.00,0.78
5368.00,0.78
5366.00,0.78
5364.00,0.77
5362.00,0.77
5360.00,0.77
5358.00,0.77
5356.00,0.77
5354.00,0.77
5352.00,0.77
5350.00,0.76
5348.00,0.76
5346.00,0.76
5344.00,0.76
5342.00,0.76
5340.00,0.75
5338.00,0.75
5336.00,0.75
5334.00,0.75
5332.00,0.75
5330.00,0.75
5328.00,0.74
5326.00,0.74
5324.00,0.74
5322.00,0.74
5320.00,0.74
5318.00,0.74
5316.00,0.73
5314.00,0.73
5312.00,0.73
5310.00,0.72
5308.00,0.72
5306.00,0.72
5304.00,0.71
5302.00,0.71
5300.00,0.71
5298.00,0.70
5296.00,0.70
5294.00,0.70
5292.00,0.69
5290.00,0.69
5288.00,0.69
5286.00,0.69
5284.00,0.68
5282.00,0.68
5280.00,0.68
5278.00,0.68
5276.00,0.67
5274.00,0.67
5272.00,0.67
5270.00,0.67
5268.00,0.67
5266.00,0.66
5264.00,0.66
5262.00,0.66
5260.00,0.66
5258.00,0.66
5256.00,0.66
5254.00,0.65
5252.00,0.65
5250.00,0.65
5248.00,0.65
5246.00,0.65
5244.00,0.65
5242.00,0.64
5240.00,0.64
5238.00,0.64
5236.00,0.64
5234.00,0.64
5232.00,0.64
5230.00,0.64
5228.00,0.63
5226.00,0.63
5224.00,0.63
5222.00,0.63
5220.00,0.63
5218.00,0.63
5216.00,0.63
5214.00,0.62
5212.00,0.62
5210.00,0.62
5208.00,0.62
5206.00,0.62
5204.00,0.62
5202.00,0.62
5200.00,0.62
5198.00,0.62
5196.00,0.62
5194.00,0.62
5192.00,0.62
5190.00,0.62
5188.00,0.62
5186.00,0.62
5184.00,0.62
5182.00,0.62
5180.00,0.61
5178.00,0.61
5176.00,0.61
5174.00,0.61
5172.00,0.61
5170.00,0.61
5168.00,0.61
5166.00,0.61
5164.00,0.62
5162.00,0.62
5160.00,0.62
5158.00,0.62
5156.00,0.62
5154.00,0.62
5152.00,0.62
5150.00,0.62
5148.00,0.62
5146.00,0.62
5144.00,0.62
5142.00,0.62
5140.00,0.62
5138.00,0.62
5136.00,0.62
5134.00,0.62
5132.00,0.62
5130.00,0.63
5128.00,0.63
5126.00,0.63
5124.00,0.63
5122.00,0.63
5120.00,0.63
5118.00,0.63
5116.00,0.63
5114.00,0.63
5112.00,0.64
5110.00,0.64
5108.00,0.64
5106.00,0.64
5104.00,0.64
5102.00,0.64
5100.00,0.64
5098.00,0.65
5096.00,0.65
5094.00,0.65
5092.00,0.65
5090.00,0.65
5088.00,0.65
5086.00,0.65
5084.00,0.65
5082.00,0.65
5080.00,0.65
5078.00,0.65
5076.00,0.66
5074.00,0.66
5072.00,0.66
5070.00,0.66
5068.00,0.66
5066.00,0.66
5064.00,0.66
5062.00,0.66
5060.00,0.67
5058.00,0.67
5056.00,0.67
5054.00,0.67
5052.00,0.67
5050.00,0.67
5048.00,0.67
5046.00,0.67
5044.00,0.67
5042.00,0.67
5040.00,0.67
5038.00,0.68
5036.00,0.68
5034.00,0.68
5032.00,0.68
5030.00,0.68
5028.00,0.68
5026.00,0.68
5024.00,0.68
5022.00,0.69
5020.00,0.69
5018.00,0.69
5016.00,0.69
5014.00,0.69
5012.00,0.69
5010.00,0.69
5008.00,0.69
5006.00,0.69
5004.00,0.69
5002.00,0.69
5000.00,0.69
4998.00,0.69
4996.00,0.69
4994.00,0.70
4992.00,0.70
4990.00,0.70
4988.00,0.70
4986.00,0.70
4984.00,0.70
4982.00,0.70
4980.00,0.70
4978.00,0.70
4976.00,0.70
4974.00,0.70
4972.00,0.71
4970.00,0.71
4968.00,0.71
4966.00,0.71
4964.00,0.71
4962.00,0.71
4960.00,0.71
4958.00,0.71
4956.00,0.71
4954.00,0.71
4952.00,0.71
4950.00,0.71
4948.00,0.71
4946.00,0.71
4944.00,0.71
4942.00,0.71
4940.00,0.71
4938.00,0.71
4936.00,0.71
4934.00,0.72
4932.00,0.72
4930.00,0.72
4928.00,0.72
4926.00,0.72
4924.00,0.72
4922.00,0.72
4920.00,0.72
4918.00,0.72
4916.00,0.72
4914.00,0.72
4912.00,0.72
4910.00,0.72
4908.00,0.72
4906.00,0.72
4904.00,0.73
4902.00,0.73
4900.00,0.73
4898.00,0.73
4896.00,0.73
4894.00,0.73
4892.00,0.73
4890.00,0.73
4888.00,0.73
4886.00,0.73
4884.00,0.73
4882.00,0.73
4880.00,0.73
4878.00,0.73
4876.00,0.73
4874.00,0.73
4872.00,0.73
4870.00,0.73
4868.00,0.73
4866.00,0.73
4864.00,0.73
4862.00,0.73
4860.00,0.73
4858.00,0.73
4856.00,0.73
4854.00,0.73
4852.00,0.73
4850.00,0.73
4848.00,0.73
4846.00,0.73
4844.00,0.73
4842.00,0.73
4840.00,0.73
4838.00,0.73
4836.00,0.73
4834.00,0.73
4832.00,0.73
4830.00,0.73
4828.00,0.73
4826.00,0.73
4824.00,0.73
4822.00,0.73
4820.00,0.74
4818.00,0.74
4816.00,0.74
4814.00,0.74
4812.00,0.74
4810.00,0.74
4808.00,0.74
4806.00,0.75
4804.00,0.75
4802.00,0.75
4800.00,0.75
4798.00,0.75
4796.00,0.75
4794.00,0.75
4792.00,0.75
4790.00,0.75
4788.00,0.75
4786.00,0.75
4784.00,0.75
4782.00,0.75
4780.00,0.75
4778.00,0.75
4776.00,0.75
4774.00,0.75
4772.00,0.75
4770.00,0.75
4768.00,0.76
4766.00,0.76
4764.00,0.76
4762.00,0.76
4760.00,0.76
4758.00,0.76
4756.00,0.76
4754.00,0.76
4752.00,0.76
4750.00,0.76
4748.00,0.76
4746.00,0.76
4744.00,0.76
4742.00,0.76
4740.00,0.76
4738.00,0.76
4736.00,0.76
4734.00,0.76
4732.00,0.76
4730.00,0.76
4728.00,0.76
4726.00,0.76
4724.00,0.76
4722.00,0.76
4720.00,0.76
4718.00,0.76
4716.00,0.76
4714.00,0.76
4712.00,0.76
4710.00,0.77
4708.00,0.77
4706.00,0.77
4704.00,0.77
4702.00,0.77
4700.00,0.77
4698.00,0.77
4696.00,0.77
4694.00,0.77
4692.00,0.77
4690.00,0.77
4688.00,0.77
4686.00,0.77
4684.00,0.77
4682.00,0.77
4680.00,0.77
4678.00,0.77
4676.00,0.77
4674.00,0.77
4672.00,0.77
4670.00,0.77
4668.00,0.77
4666.00,0.77
4664.00,0.77
4662.00,0.77
4660.00,0.77
4658.00,0.77
4656.00,0.77
4654.00,0.77
4652.00,0.77
4650.00,0.77
4648.00,0.77
4646.00,0.77
4644.00,0.77
4642.00,0.77
4640.00,0.77
4638.00,0.78
4636.00,0.78
4634.00,0.78
4632.00,0.78
4630.00,0.78
4628.00,0.78
4626.00,0.78
4624.00,0.78
4622.00,0.78
4620.00,0.78
4618.00,0.78
4616.00,0.78
4614.00,0.78
4612.00,0.78
4610.00,0.78
4608.00,0.78
4606.00,0.78
4604.00,0.78
4602.00,0.78
4600.00,0.78
4598.00,0.78
4596.00,0.78
4594.00,0.78
4592.00,0.78
4590.00,0.78
4588.00,0.78
4586.00,0.78
4584.00,0.78
4582.00,0.78
4580.00,0.77
4578.00,0.77
4576.00,0.78
4574.00,0.78
4572.00,0.78
4570.00,0.78
4568.00,0.78
4566.00,0.78
4564.00,0.78
4562.00,0.78
4560.00,0.77
4558.00,0.77
4556.00,0.77
4554.00,0.77
4552.00,0.77
4550.00,0.77
4548.00,0.78
4546.00,0.78
4544.00,0.78
4542.00,0.78
4540.00,0.78
4538.00,0.78
4536.00,0.78
4534.00,0.78
4532.00,0.78
4530.00,0.78
4528.00,0.78
4526.00,0.78
4524.00,0.78
4522.00,0.78
4520.00,0.78
4518.00,0.78
4516.00,0.78
4514.00,0.78
4512.00,0.78
4510.00,0.78
4508.00,0.78
4506.00,0.78
4504.00,0.78
4502.00,0.78
4500.00,0.78
4498.00,0.78
4496.00,0.78
4494.00,0.78
4492.00,0.78
4490.00,0.78
4488.00,0.78
4486.00,0.78
4484.00,0.78
4482.00,0.78
4480.00,0.78
4478.00,0.78
4476.00,0.78
4474.00,0.78
4472.00,0.77
4470.00,0.77
4468.00,0.77
4466.00,0.77
4464.00,0.77
4462.00,0.77
4460.00,0.77
4458.00,0.77
4456.00,0.77
4454.00,0.77
4452.00,0.77
4450.00,0.77
4448.00,0.77
4446.00,0.76
4444.00,0.76
4442.00,0.76
4440.00,0.76
4438.00,0.75
4436.00,0.75
4434.00,0.75
4432.00,0.75
4430.00,0.74
4428.00,0.74
4426.00,0.74
4424.00,0.73
4422.00,0.73
4420.00,0.73
4418.00,0.73
4416.00,0.72
4414.00,0.72
4412.00,0.72
4410.00,0.72
4408.00,0.72
4406.00,0.72
4404.00,0.72
4402.00,0.72
4400.00,0.72
4398.00,0.73
4396.00,0.73
4394.00,0.73
4392.00,0.73
4390.00,0.74
4388.00,0.74
4386.00,0.74
4384.00,0.74
4382.00,0.74
4380.00,0.75
4378.00,0.75
4376.00,0.75
4374.00,0.75
4372.00,0.75
4370.00,0.75
4368.00,0.75
4366.00,0.75
4364.00,0.75
4362.00,0.74
4360.00,0.74
4358.00,0.74
4356.00,0.74
4354.00,0.74
4352.00,0.73
4350.00,0.73
4348.00,0.73
4346.00,0.73
4344.00,0.73
4342.00,0.73
4340.00,0.73
4338.00,0.73
4336.00,0.73
4334.00,0.73
4332.00,0.73
4330.00,0.74
4328.00,0.74
4326.00,0.74
4324.00,0.74
4322.00,0.74
4320.00,0.75
4318.00,0.75
4316.00,0.75
4314.00,0.76
4312.00,0.76
4310.00,0.76
4308.00,0.76
4306.00,0.76
4304.00,0.77
4302.00,0.77
4300.00,0.77
4298.00,0.77
4296.00,0.78
4294.00,0.78
4292.00,0.78
4290.00,0.78
4288.00,0.78
4286.00,0.78
4284.00,0.78
4282.00,0.78
4280.00,0.78
4278.00,0.78
4276.00,0.78
4274.00,0.78
4272.00,0.77
4270.00,0.77
4268.00,0.77
4266.00,0.77
4264.00,0.77
4262.00,0.77
4260.00,0.77
4258.00,0.77
4256.00,0.77
4254.00,0.77
4252.00,0.77
4250.00,0.77
4248.00,0.77
4246.00,0.77
4244.00,0.77
4242.00,0.77
4240.00,0.77
4238.00,0.77
4236.00,0.78
4234.00,0.78
4232.00,0.78
4230.00,0.78
4228.00,0.78
4226.00,0.78
4224.00,0.78
4222.00,0.78
4220.00,0.78
4218.00,0.78
4216.00,0.78
4214.00,0.78
4212.00,0.78
4210.00,0.78
4208.00,0.78
4206.00,0.78
4204.00,0.78
4202.00,0.78
4200.00,0.78
4198.00,0.78
4196.00,0.78
4194.00,0.78
4192.00,0.78
4190.00,0.78
4188.00,0.78
4186.00,0.78
4184.00,0.78
4182.00,0.78
4180.00,0.78
4178.00,0.78
4176.00,0.78
4174.00,0.78
4172.00,0.78
4170.00,0.78
4168.00,0.78
4166.00,0.78
4164.00,0.78
4162.00,0.78
4160.00,0.78
4158.00,0.77
4156.00,0.77
4154.00,0.77
4152.00,0.77
4150.00,0.77
4148.00,0.77
4146.00,0.77
4144.00,0.77
4142.00,0.77
4140.00,0.77
4138.00,0.77
4136.00,0.77
4134.00,0.77
4132.00,0.77
4130.00,0.78
4128.00,0.78
4126.00,0.78
4124.00,0.78
4122.00,0.78
4120.00,0.78
4118.00,0.78
4116.00,0.78
4114.00,0.78
4112.00,0.78
4110.00,0.78
4108.00,0.78
4106.00,0.78
4104.00,0.78
4102.00,0.78
4100.00,0.77
4098.00,0.77
4096.00,0.77
4094.00,0.77
4092.00,0.77
4090.00,0.77
4088.00,0.77
4086.00,0.76
4084.00,0.76
4082.00,0.76
4080.00,0.76
4078.00,0.76
4076.00,0.76
4074.00,0.75
4072.00,0.75
4070.00,0.76
4068.00,0.76
4066.00,0.76
4064.00,0.76
4062.00,0.76
4060.00,0.77
4058.00,0.77
4056.00,0.77
4054.00,0.77
4052.00,0.77
4050.00,0.77
4048.00,0.77
4046.00,0.77
4044.00,0.77
4042.00,0.76
4040.00,0.76
4038.00,0.76
4036.00,0.76
4034.00,0.76
4032.00,0.76
4030.00,0.77
4028.00,0.77
4026.00,0.77
4024.00,0.77
4022.00,0.77
4020.00,0.77
4018.00,0.77
4016.00,0.77
4014.00,0.77
4012.00,0.77
4010.00,0.77
4008.00,0.77
4006.00,0.78
4004.00,0.78
4002.00,0.78
4000.00,0.78
