创建为新数据集,样品 1735 用户 Administrator 日期 星期三, 三月 15 2017
cm-1,%T
10000.00,0.82
9998.00,0.81
9996.00,0.81
9994.00,0.80
9992.00,0.80
9990.00,0.80
9988.00,0.80
9986.00,0.80
9984.00,0.80
9982.00,0.80
9980.00,0.80
9978.00,0.80
9976.00,0.80
9974.00,0.80
9972.00,0.80
9970.00,0.80
9968.00,0.80
9966.00,0.80
9964.00,0.80
9962.00,0.80
9960.00,0.81
9958.00,0.81
9956.00,0.81
9954.00,0.81
9952.00,0.81
9950.00,0.81
9948.00,0.81
9946.00,0.81
9944.00,0.81
9942.00,0.81
9940.00,0.81
9938.00,0.81
9936.00,0.81
9934.00,0.81
9932.00,0.81
9930.00,0.80
9928.00,0.80
9926.00,0.80
9924.00,0.79
9922.00,0.79
9920.00,0.79
9918.00,0.78
9916.00,0.78
9914.00,0.78
9912.00,0.78
9910.00,0.78
9908.00,0.78
9906.00,0.78
9904.00,0.79
9902.00,0.79
9900.00,0.79
9898.00,0.80
9896.00,0.80
9894.00,0.81
9892.00,0.81
9890.00,0.82
9888.00,0.82
9886.00,0.82
9884.00,0.82
9882.00,0.82
9880.00,0.82
9878.00,0.82
9876.00,0.81
9874.00,0.81
9872.00,0.80
9870.00,0.80
9868.00,0.79
9866.00,0.79
9864.00,0.79
9862.00,0.79
9860.00,0.79
9858.00,0.79
9856.00,0.79
9854.00,0.79
9852.00,0.79
9850.00,0.79
9848.00,0.79
9846.00,0.79
9844.00,0.80
9842.00,0.80
9840.00,0.81
9838.00,0.81
9836.00,0.82
9834.00,0.82
9832.00,0.82
9830.00,0.82
9828.00,0.82
9826.00,0.81
9824.00,0.81
9822.00,0.81
9820.00,0.80
9818.00,0.80
9816.00,0.80
9814.00,0.80
9812.00,0.80
9810.00,0.81
9808.00,0.81
9806.00,0.81
9804.00,0.81
9802.00,0.81
9800.00,0.81
9798.00,0.80
9796.00,0.80
9794.00,0.80
9792.00,0.79
9790.00,0.79
9788.00,0.79
9786.00,0.78
9784.00,0.78
9782.00,0.78
9780.00,0.78
9778.00,0.79
9776.00,0.79
9774.00,0.79
9772.00,0.79
9770.00,0.79
9768.00,0.79
9766.00,0.79
9764.00,0.79
9762.00,0.79
9760.00,0.80
9758.00,0.80
9756.00,0.80
9754.00,0.81
9752.00,0.81
9750.00,0.82
9748.00,0.82
9746.00,0.82
9744.00,0.82
9742.00,0.81
9740.00,0.80
9738.00,0.80
9736.00,0.79
9734.00,0.78
9732.00,0.78
9730.00,0.77
9728.00,0.77
9726.00,0.78
9724.00,0.78
9722.00,0.78
9720.00,0.79
9718.00,0.79
9716.00,0.79
9714.00,0.80
9712.00,0.80
9710.00,0.80
9708.00,0.80
9706.00,0.80
9704.00,0.80
9702.00,0.80
9700.00,0.79
9698.00,0.79
9696.00,0.79
9694.00,0.79
9692.00,0.79
9690.00,0.79
9688.00,0.79
9686.00,0.79
9684.00,0.79
9682.00,0.79
9680.00,0.79
9678.00,0.79
9676.00,0.79
9674.00,0.79
9672.00,0.79
9670.00,0.78
9668.00,0.78
9666.00,0.78
9664.00,0.79
9662.00,0.79
9660.00,0.79
9658.00,0.79
9656.00,0.80
9654.00,0.80
9652.00,0.80
9650.00,0.80
9648.00,0.80
9646.00,0.79
9644.00,0.79
9642.00,0.79
9640.00,0.78
9638.00,0.78
9636.00,0.78
9634.00,0.78
9632.00,0.78
9630.00,0.79
9628.00,0.79
9626.00,0.80
9624.00,0.80
9622.00,0.80
9620.00,0.80
9618.00,0.80
9616.00,0.80
9614.00,0.79
9612.00,0.79
9610.00,0.79
9608.00,0.79
9606.00,0.79
9604.00,0.79
9602.00,0.80
9600.00,0.80
9598.00,0.80
9596.00,0.80
9594.00,0.80
9592.00,0.80
9590.00,0.80
9588.00,0.79
9586.00,0.79
9584.00,0.79
9582.00,0.79
9580.00,0.80
9578.00,0.80
9576.00,0.80
9574.00,0.81
9572.00,0.81
9570.00,0.82
9568.00,0.82
9566.00,0.82
9564.00,0.82
9562.00,0.81
9560.00,0.81
9558.00,0.81
9556.00,0.81
9554.00,0.81
9552.00,0.81
9550.00,0.81
9548.00,0.80
9546.00,0.80
9544.00,0.80
9542.00,0.79
9540.00,0.79
9538.00,0.78
9536.00,0.78
9534.00,0.78
9532.00,0.77
9530.00,0.77
9528.00,0.77
9526.00,0.78
9524.00,0.78
9522.00,0.78
9520.00,0.78
9518.00,0.78
9516.00,0.79
9514.00,0.79
9512.00,0.80
9510.00,0.80
9508.00,0.80
9506.00,0.80
9504.00,0.80
9502.00,0.80
9500.00,0.80
9498.00,0.80
9496.00,0.80
9494.00,0.80
9492.00,0.80
9490.00,0.80
9488.00,0.80
9486.00,0.80
9484.00,0.80
9482.00,0.80
9480.00,0.80
9478.00,0.80
9476.00,0.80
9474.00,0.80
9472.00,0.80
9470.00,0.80
9468.00,0.80
9466.00,0.80
9464.00,0.80
9462.00,0.80
9460.00,0.80
9458.00,0.80
9456.00,0.80
9454.00,0.80
9452.00,0.79
9450.00,0.79
9448.00,0.79
9446.00,0.78
9444.00,0.78
9442.00,0.78
9440.00,0.78
9438.00,0.78
9436.00,0.78
9434.00,0.78
9432.00,0.79
9430.00,0.79
9428.00,0.78
9426.00,0.78
9424.00,0.78
9422.00,0.78
9420.00,0.78
9418.00,0.77
9416.00,0.77
9414.00,0.77
9412.00,0.77
9410.00,0.77
9408.00,0.77
9406.00,0.77
9404.00,0.77
9402.00,0.77
9400.00,0.77
9398.00,0.78
9396.00,0.78
9394.00,0.78
9392.00,0.78
9390.00,0.79
9388.00,0.79
9386.00,0.79
9384.00,0.79
9382.00,0.80
9380.00,0.80
9378.00,0.80
9376.00,0.80
9374.00,0.80
9372.00,0.79
9370.00,0.79
9368.00,0.79
9366.00,0.79
9364.00,0.79
9362.00,0.79
9360.00,0.80
9358.00,0.80
9356.00,0.80
9354.00,0.80
9352.00,0.80
9350.00,0.80
9348.00,0.80
9346.00,0.80
9344.00,0.79
9342.00,0.79
9340.00,0.79
9338.00,0.78
9336.00,0.78
9334.00,0.78
9332.00,0.78
9330.00,0.78
9328.00,0.78
9326.00,0.79
9324.00,0.79
9322.00,0.79
9320.00,0.79
9318.00,0.79
9316.00,0.79
9314.00,0.79
9312.00,0.79
9310.00,0.79
9308.00,0.79
9306.00,0.79
9304.00,0.79
9302.00,0.79
9300.00,0.79
9298.00,0.78
9296.00,0.78
9294.00,0.78
9292.00,0.79
9290.00,0.79
9288.00,0.79
9286.00,0.79
9284.00,0.80
9282.00,0.80
9280.00,0.81
9278.00,0.81
9276.00,0.81
9274.00,0.81
9272.00,0.81
9270.00,0.81
9268.00,0.80
9266.00,0.80
9264.00,0.80
9262.00,0.79
9260.00,0.79
9258.00,0.79
9256.00,0.79
9254.00,0.79
9252.00,0.79
9250.00,0.79
9248.00,0.79
9246.00,0.79
9244.00,0.80
9242.00,0.80
9240.00,0.80
9238.00,0.80
9236.00,0.80
9234.00,0.80
9232.00,0.80
9230.00,0.80
9228.00,0.80
9226.00,0.79
9224.00,0.79
9222.00,0.79
9220.00,0.78
9218.00,0.78
9216.00,0.78
9214.00,0.78
9212.00,0.79
9210.00,0.79
9208.00,0.79
9206.00,0.80
9204.00,0.80
9202.00,0.80
9200.00,0.79
9198.00,0.79
9196.00,0.79
9194.00,0.79
9192.00,0.78
9190.00,0.78
9188.00,0.78
9186.00,0.78
9184.00,0.78
9182.00,0.77
9180.00,0.77
9178.00,0.77
9176.00,0.77
9174.00,0.77
9172.00,0.77
9170.00,0.77
9168.00,0.78
9166.00,0.78
9164.00,0.78
9162.00,0.79
9160.00,0.79
9158.00,0.79
9156.00,0.79
9154.00,0.79
9152.00,0.79
9150.00,0.79
9148.00,0.80
9146.00,0.80
9144.00,0.80
9142.00,0.80
9140.00,0.80
9138.00,0.80
9136.00,0.80
9134.00,0.80
9132.00,0.80
9130.00,0.80
9128.00,0.80
9126.00,0.80
9124.00,0.80
9122.00,0.80
9120.00,0.80
9118.00,0.80
9116.00,0.80
9114.00,0.80
9112.00,0.80
9110.00,0.81
9108.00,0.81
9106.00,0.81
9104.00,0.81
9102.00,0.81
9100.00,0.80
9098.00,0.80
9096.00,0.80
9094.00,0.79
9092.00,0.79
9090.00,0.78
9088.00,0.78
9086.00,0.78
9084.00,0.78
9082.00,0.79
9080.00,0.79
9078.00,0.79
9076.00,0.80
9074.00,0.80
9072.00,0.80
9070.00,0.80
9068.00,0.80
9066.00,0.80
9064.00,0.80
9062.00,0.80
9060.00,0.79
9058.00,0.79
9056.00,0.79
9054.00,0.78
9052.00,0.78
9050.00,0.78
9048.00,0.78
9046.00,0.78
9044.00,0.78
9042.00,0.78
9040.00,0.79
9038.00,0.79
9036.00,0.79
9034.00,0.79
9032.00,0.79
9030.00,0.79
9028.00,0.80
9026.00,0.80
9024.00,0.80
9022.00,0.80
9020.00,0.80
9018.00,0.80
9016.00,0.80
9014.00,0.80
9012.00,0.80
9010.00,0.80
9008.00,0.80
9006.00,0.80
9004.00,0.79
9002.00,0.79
9000.00,0.79
8998.00,0.79
8996.00,0.79
8994.00,0.79
8992.00,0.79
8990.00,0.79
8988.00,0.79
8986.00,0.79
8984.00,0.79
8982.00,0.79
8980.00,0.79
8978.00,0.79
8976.00,0.79
8974.00,0.78
8972.00,0.78
8970.00,0.78
8968.00,0.78
8966.00,0.78
8964.00,0.78
8962.00,0.78
8960.00,0.79
8958.00,0.79
8956.00,0.79
8954.00,0.80
8952.00,0.80
8950.00,0.80
8948.00,0.81
8946.00,0.81
8944.00,0.81
8942.00,0.81
8940.00,0.81
8938.00,0.81
8936.00,0.81
8934.00,0.80
8932.00,0.80
8930.00,0.80
8928.00,0.80
8926.00,0.80
8924.00,0.79
8922.00,0.79
8920.00,0.79
8918.00,0.79
8916.00,0.78
8914.00,0.78
8912.00,0.78
8910.00,0.78
8908.00,0.78
8906.00,0.78
8904.00,0.78
8902.00,0.78
8900.00,0.79
8898.00,0.79
8896.00,0.80
8894.00,0.80
8892.00,0.81
8890.00,0.81
8888.00,0.81
8886.00,0.81
8884.00,0.81
8882.00,0.81
8880.00,0.80
8878.00,0.80
8876.00,0.80
8874.00,0.80
8872.00,0.79
8870.00,0.79
8868.00,0.80
8866.00,0.80
8864.00,0.80
8862.00,0.80
8860.00,0.81
8858.00,0.81
8856.00,0.81
8854.00,0.81
8852.00,0.81
8850.00,0.81
8848.00,0.81
8846.00,0.81
8844.00,0.81
8842.00,0.80
8840.00,0.80
8838.00,0.79
8836.00,0.79
8834.00,0.79
8832.00,0.79
8830.00,0.79
8828.00,0.79
8826.00,0.80
8824.00,0.80
8822.00,0.80
8820.00,0.80
8818.00,0.80
8816.00,0.80
8814.00,0.80
8812.00,0.80
8810.00,0.79
8808.00,0.79
8806.00,0.79
8804.00,0.79
8802.00,0.79
8800.00,0.79
8798.00,0.79
8796.00,0.79
8794.00,0.79
8792.00,0.79
8790.00,0.79
8788.00,0.79
8786.00,0.79
8784.00,0.79
8782.00,0.79
8780.00,0.79
8778.00,0.79
8776.00,0.79
8774.00,0.79
8772.00,0.79
8770.00,0.79
8768.00,0.79
8766.00,0.79
8764.00,0.79
8762.00,0.79
8760.00,0.79
8758.00,0.79
8756.00,0.79
8754.00,0.78
8752.00,0.78
8750.00,0.78
8748.00,0.78
8746.00,0.77
8744.00,0.77
8742.00,0.77
8740.00,0.78
8738.00,0.78
8736.00,0.78
8734.00,0.78
8732.00,0.79
8730.00,0.79
8728.00,0.79
8726.00,0.80
8724.00,0.80
8722.00,0.80
8720.00,0.81
8718.00,0.80
8716.00,0.80
8714.00,0.80
8712.00,0.80
8710.00,0.80
8708.00,0.79
8706.00,0.79
8704.00,0.80
8702.00,0.80
8700.00,0.80
8698.00,0.80
8696.00,0.80
8694.00,0.80
8692.00,0.80
8690.00,0.80
8688.00,0.80
8686.00,0.80
8684.00,0.80
8682.00,0.80
8680.00,0.80
8678.00,0.80
8676.00,0.80
8674.00,0.80
8672.00,0.79
8670.00,0.79
8668.00,0.79
8666.00,0.79
8664.00,0.80
8662.00,0.80
8660.00,0.80
8658.00,0.80
8656.00,0.80
8654.00,0.80
8652.00,0.80
8650.00,0.80
8648.00,0.80
8646.00,0.80
8644.00,0.80
8642.00,0.80
8640.00,0.80
8638.00,0.80
8636.00,0.80
8634.00,0.80
8632.00,0.80
8630.00,0.80
8628.00,0.80
8626.00,0.80
8624.00,0.80
8622.00,0.80
8620.00,0.80
8618.00,0.80
8616.00,0.80
8614.00,0.80
8612.00,0.80
8610.00,0.80
8608.00,0.80
8606.00,0.80
8604.00,0.80
8602.00,0.80
8600.00,0.80
8598.00,0.80
8596.00,0.80
8594.00,0.80
8592.00,0.80
8590.00,0.80
8588.00,0.80
8586.00,0.80
8584.00,0.80
8582.00,0.80
8580.00,0.79
8578.00,0.79
8576.00,0.79
8574.00,0.79
8572.00,0.79
8570.00,0.79
8568.00,0.79
8566.00,0.79
8564.00,0.79
8562.00,0.79
8560.00,0.79
8558.00,0.79
8556.00,0.79
8554.00,0.79
8552.00,0.79
8550.00,0.79
8548.00,0.79
8546.00,0.79
8544.00,0.79
8542.00,0.79
8540.00,0.79
8538.00,0.79
8536.00,0.79
8534.00,0.79
8532.00,0.79
8530.00,0.79
8528.00,0.78
8526.00,0.78
8524.00,0.78
8522.00,0.78
8520.00,0.78
8518.00,0.78
8516.00,0.78
8514.00,0.78
8512.00,0.79
8510.00,0.79
8508.00,0.79
8506.00,0.79
8504.00,0.80
8502.00,0.80
8500.00,0.80
8498.00,0.80
8496.00,0.80
8494.00,0.80
8492.00,0.79
8490.00,0.79
8488.00,0.79
8486.00,0.79
8484.00,0.78
8482.00,0.78
8480.00,0.78
8478.00,0.78
8476.00,0.78
8474.00,0.78
8472.00,0.78
8470.00,0.78
8468.00,0.78
8466.00,0.78
8464.00,0.78
8462.00,0.79
8460.00,0.79
8458.00,0.79
8456.00,0.79
8454.00,0.79
8452.00,0.79
8450.00,0.79
8448.00,0.79
8446.00,0.79
8444.00,0.78
8442.00,0.78
8440.00,0.78
8438.00,0.78
8436.00,0.78
8434.00,0.78
8432.00,0.78
8430.00,0.78
8428.00,0.78
8426.00,0.78
8424.00,0.78
8422.00,0.78
8420.00,0.78
8418.00,0.78
8416.00,0.78
8414.00,0.78
8412.00,0.78
8410.00,0.79
8408.00,0.79
8406.00,0.79
8404.00,0.79
8402.00,0.79
8400.00,0.79
8398.00,0.79
8396.00,0.79
8394.00,0.79
8392.00,0.79
8390.00,0.79
8388.00,0.79
8386.00,0.79
8384.00,0.79
8382.00,0.79
8380.00,0.79
8378.00,0.79
8376.00,0.79
8374.00,0.79
8372.00,0.79
8370.00,0.79
8368.00,0.79
8366.00,0.79
8364.00,0.79
8362.00,0.78
8360.00,0.78
8358.00,0.78
8356.00,0.78
8354.00,0.78
8352.00,0.78
8350.00,0.78
8348.00,0.79
8346.00,0.79
8344.00,0.79
8342.00,0.80
8340.00,0.80
8338.00,0.80
8336.00,0.80
8334.00,0.80
8332.00,0.80
8330.00,0.80
8328.00,0.80
8326.00,0.79
8324.00,0.79
8322.00,0.79
8320.00,0.79
8318.00,0.79
8316.00,0.79
8314.00,0.79
8312.00,0.79
8310.00,0.79
8308.00,0.79
8306.00,0.79
8304.00,0.79
8302.00,0.79
8300.00,0.79
8298.00,0.79
8296.00,0.79
8294.00,0.79
8292.00,0.79
8290.00,0.79
8288.00,0.78
8286.00,0.79
8284.00,0.79
8282.00,0.79
8280.00,0.79
8278.00,0.79
8276.00,0.80
8274.00,0.80
8272.00,0.80
8270.00,0.80
8268.00,0.81
8266.00,0.81
8264.00,0.81
8262.00,0.81
8260.00,0.81
8258.00,0.81
8256.00,0.81
8254.00,0.80
8252.00,0.80
8250.00,0.79
8248.00,0.79
8246.00,0.79
8244.00,0.78
8242.00,0.78
8240.00,0.79
8238.00,0.79
8236.00,0.79
8234.00,0.80
8232.00,0.80
8230.00,0.80
8228.00,0.81
8226.00,0.81
8224.00,0.81
8222.00,0.80
8220.00,0.80
8218.00,0.80
8216.00,0.80
8214.00,0.79
8212.00,0.79
8210.00,0.79
8208.00,0.79
8206.00,0.79
8204.00,0.79
8202.00,0.79
8200.00,0.79
8198.00,0.79
8196.00,0.79
8194.00,0.79
8192.00,0.79
8190.00,0.79
8188.00,0.79
8186.00,0.79
8184.00,0.79
8182.00,0.79
8180.00,0.79
8178.00,0.79
8176.00,0.79
8174.00,0.79
8172.00,0.79
8170.00,0.79
8168.00,0.79
8166.00,0.79
8164.00,0.79
8162.00,0.80
8160.00,0.80
8158.00,0.80
8156.00,0.80
8154.00,0.80
8152.00,0.80
8150.00,0.80
8148.00,0.80
8146.00,0.80
8144.00,0.80
8142.00,0.80
8140.00,0.80
8138.00,0.80
8136.00,0.80
8134.00,0.80
8132.00,0.80
8130.00,0.80
8128.00,0.80
8126.00,0.80
8124.00,0.80
8122.00,0.80
8120.00,0.80
8118.00,0.80
8116.00,0.80
8114.00,0.80
8112.00,0.79
8110.00,0.79
8108.00,0.79
8106.00,0.80
8104.00,0.80
8102.00,0.80
8100.00,0.80
8098.00,0.80
8096.00,0.80
8094.00,0.80
8092.00,0.80
8090.00,0.80
8088.00,0.80
8086.00,0.80
8084.00,0.80
8082.00,0.79
8080.00,0.79
8078.00,0.79
8076.00,0.79
8074.00,0.79
8072.00,0.79
8070.00,0.79
8068.00,0.79
8066.00,0.79
8064.00,0.80
8062.00,0.80
8060.00,0.80
8058.00,0.79
8056.00,0.79
8054.00,0.80
8052.00,0.80
8050.00,0.80
8048.00,0.80
8046.00,0.80
8044.00,0.80
8042.00,0.80
8040.00,0.80
8038.00,0.80
8036.00,0.80
8034.00,0.80
8032.00,0.80
8030.00,0.80
8028.00,0.80
8026.00,0.80
8024.00,0.80
8022.00,0.80
8020.00,0.80
8018.00,0.80
8016.00,0.80
8014.00,0.80
8012.00,0.80
8010.00,0.80
8008.00,0.80
8006.00,0.80
8004.00,0.80
8002.00,0.80
8000.00,0.80
7998.00,0.80
7996.00,0.79
7994.00,0.79
7992.00,0.79
7990.00,0.79
7988.00,0.79
7986.00,0.79
7984.00,0.79
7982.00,0.79
7980.00,0.79
7978.00,0.79
7976.00,0.79
7974.00,0.79
7972.00,0.79
7970.00,0.79
7968.00,0.79
7966.00,0.80
7964.00,0.80
7962.00,0.80
7960.00,0.80
7958.00,0.80
7956.00,0.80
7954.00,0.81
7952.00,0.81
7950.00,0.81
7948.00,0.80
7946.00,0.80
7944.00,0.80
7942.00,0.80
7940.00,0.80
7938.00,0.80
7936.00,0.80
7934.00,0.80
7932.00,0.80
7930.00,0.80
7928.00,0.80
7926.00,0.80
7924.00,0.80
7922.00,0.80
7920.00,0.80
7918.00,0.80
7916.00,0.80
7914.00,0.80
7912.00,0.80
7910.00,0.80
7908.00,0.80
7906.00,0.81
7904.00,0.81
7902.00,0.81
7900.00,0.81
7898.00,0.81
7896.00,0.80
7894.00,0.80
7892.00,0.80
7890.00,0.80
7888.00,0.80
7886.00,0.80
7884.00,0.81
7882.00,0.81
7880.00,0.81
7878.00,0.80
7876.00,0.80
7874.00,0.80
7872.00,0.80
7870.00,0.79
7868.00,0.79
7866.00,0.79
7864.00,0.79
7862.00,0.79
7860.00,0.80
7858.00,0.80
7856.00,0.80
7854.00,0.80
7852.00,0.80
7850.00,0.81
7848.00,0.81
7846.00,0.81
7844.00,0.80
7842.00,0.80
7840.00,0.80
7838.00,0.80
7836.00,0.80
7834.00,0.80
7832.00,0.80
7830.00,0.80
7828.00,0.80
7826.00,0.80
7824.00,0.80
7822.00,0.80
7820.00,0.80
7818.00,0.80
7816.00,0.80
7814.00,0.80
7812.00,0.80
7810.00,0.80
7808.00,0.80
7806.00,0.80
7804.00,0.80
7802.00,0.80
7800.00,0.80
7798.00,0.80
7796.00,0.80
7794.00,0.80
7792.00,0.80
7790.00,0.81
7788.00,0.81
7786.00,0.81
7784.00,0.80
7782.00,0.80
7780.00,0.80
7778.00,0.80
7776.00,0.80
7774.00,0.80
7772.00,0.80
7770.00,0.80
7768.00,0.80
7766.00,0.80
7764.00,0.80
7762.00,0.80
7760.00,0.80
7758.00,0.80
7756.00,0.80
7754.00,0.80
7752.00,0.80
7750.00,0.80
7748.00,0.80
7746.00,0.80
7744.00,0.80
7742.00,0.80
7740.00,0.80
7738.00,0.80
7736.00,0.80
7734.00,0.80
7732.00,0.81
7730.00,0.81
7728.00,0.81
7726.00,0.81
7724.00,0.81
7722.00,0.81
7720.00,0.81
7718.00,0.81
7716.00,0.81
7714.00,0.81
7712.00,0.81
7710.00,0.81
7708.00,0.81
7706.00,0.81
7704.00,0.81
7702.00,0.81
7700.00,0.81
7698.00,0.81
7696.00,0.80
7694.00,0.80
7692.00,0.80
7690.00,0.80
7688.00,0.80
7686.00,0.80
7684.00,0.80
7682.00,0.80
7680.00,0.80
7678.00,0.80
7676.00,0.80
7674.00,0.80
7672.00,0.80
7670.00,0.80
7668.00,0.80
7666.00,0.80
7664.00,0.81
7662.00,0.81
7660.00,0.81
7658.00,0.81
7656.00,0.81
7654.00,0.81
7652.00,0.81
7650.00,0.81
7648.00,0.81
7646.00,0.81
7644.00,0.81
7642.00,0.81
7640.00,0.80
7638.00,0.80
7636.00,0.80
7634.00,0.80
7632.00,0.80
7630.00,0.81
7628.00,0.81
7626.00,0.81
7624.00,0.81
7622.00,0.81
7620.00,0.81
7618.00,0.81
7616.00,0.81
7614.00,0.80
7612.00,0.80
7610.00,0.80
7608.00,0.80
7606.00,0.81
7604.00,0.81
7602.00,0.81
7600.00,0.81
7598.00,0.81
7596.00,0.81
7594.00,0.81
7592.00,0.81
7590.00,0.81
7588.00,0.81
7586.00,0.81
7584.00,0.81
7582.00,0.81
7580.00,0.81
7578.00,0.80
7576.00,0.80
7574.00,0.80
7572.00,0.80
7570.00,0.80
7568.00,0.80
7566.00,0.80
7564.00,0.80
7562.00,0.80
7560.00,0.80
7558.00,0.80
7556.00,0.80
7554.00,0.80
7552.00,0.80
7550.00,0.80
7548.00,0.80
7546.00,0.80
7544.00,0.81
7542.00,0.81
7540.00,0.81
7538.00,0.80
7536.00,0.80
7534.00,0.80
7532.00,0.80
7530.00,0.80
7528.00,0.80
7526.00,0.80
7524.00,0.80
7522.00,0.80
7520.00,0.80
7518.00,0.80
7516.00,0.80
7514.00,0.80
7512.00,0.80
7510.00,0.80
7508.00,0.80
7506.00,0.80
7504.00,0.80
7502.00,0.80
7500.00,0.80
7498.00,0.80
7496.00,0.80
7494.00,0.80
7492.00,0.80
7490.00,0.80
7488.00,0.80
7486.00,0.80
7484.00,0.80
7482.00,0.80
7480.00,0.80
7478.00,0.80
7476.00,0.80
7474.00,0.80
7472.00,0.80
7470.00,0.80
7468.00,0.80
7466.00,0.80
7464.00,0.80
7462.00,0.80
7460.00,0.80
7458.00,0.80
7456.00,0.81
7454.00,0.81
7452.00,0.81
7450.00,0.81
7448.00,0.81
7446.00,0.81
7444.00,0.81
7442.00,0.81
7440.00,0.80
7438.00,0.80
7436.00,0.80
7434.00,0.80
7432.00,0.80
7430.00,0.80
7428.00,0.80
7426.00,0.80
7424.00,0.80
7422.00,0.80
7420.00,0.80
7418.00,0.80
7416.00,0.80
7414.00,0.80
7412.00,0.80
7410.00,0.80
7408.00,0.80
7406.00,0.80
7404.00,0.80
7402.00,0.80
7400.00,0.80
7398.00,0.80
7396.00,0.80
7394.00,0.80
7392.00,0.80
7390.00,0.80
7388.00,0.80
7386.00,0.80
7384.00,0.80
7382.00,0.80
7380.00,0.80
7378.00,0.80
7376.00,0.79
7374.00,0.79
7372.00,0.79
7370.00,0.79
7368.00,0.79
7366.00,0.79
7364.00,0.79
7362.00,0.79
7360.00,0.79
7358.00,0.79
7356.00,0.79
7354.00,0.79
7352.00,0.79
7350.00,0.79
7348.00,0.79
7346.00,0.79
7344.00,0.79
7342.00,0.79
7340.00,0.79
7338.00,0.79
7336.00,0.79
7334.00,0.79
7332.00,0.79
7330.00,0.79
7328.00,0.79
7326.00,0.79
7324.00,0.79
7322.00,0.79
7320.00,0.79
7318.00,0.79
7316.00,0.79
7314.00,0.79
7312.00,0.79
7310.00,0.78
7308.00,0.78
7306.00,0.78
7304.00,0.78
7302.00,0.78
7300.00,0.78
7298.00,0.78
7296.00,0.77
7294.00,0.77
7292.00,0.77
7290.00,0.77
7288.00,0.77
7286.00,0.77
7284.00,0.77
7282.00,0.77
7280.00,0.77
7278.00,0.78
7276.00,0.78
7274.00,0.78
7272.00,0.78
7270.00,0.78
7268.00,0.78
7266.00,0.78
7264.00,0.78
7262.00,0.78
7260.00,0.79
7258.00,0.79
7256.00,0.79
7254.00,0.79
7252.00,0.79
7250.00,0.79
7248.00,0.79
7246.00,0.79
7244.00,0.78
7242.00,0.78
7240.00,0.78
7238.00,0.78
7236.00,0.77
7234.00,0.77
7232.00,0.77
7230.00,0.77
7228.00,0.77
7226.00,0.77
7224.00,0.77
7222.00,0.77
7220.00,0.77
7218.00,0.77
7216.00,0.77
7214.00,0.77
7212.00,0.77
7210.00,0.77
7208.00,0.77
7206.00,0.77
7204.00,0.77
7202.00,0.77
7200.00,0.77
7198.00,0.77
7196.00,0.77
7194.00,0.77
7192.00,0.77
7190.00,0.77
7188.00,0.78
7186.00,0.78
7184.00,0.78
7182.00,0.78
7180.00,0.77
7178.00,0.77
7176.00,0.77
7174.00,0.77
7172.00,0.77
7170.00,0.77
7168.00,0.77
7166.00,0.77
7164.00,0.76
7162.00,0.76
7160.00,0.76
7158.00,0.76
7156.00,0.76
7154.00,0.76
7152.00,0.76
7150.00,0.76
7148.00,0.77
7146.00,0.77
7144.00,0.77
7142.00,0.77
7140.00,0.77
7138.00,0.76
7136.00,0.76
7134.00,0.76
7132.00,0.76
7130.00,0.75
7128.00,0.75
7126.00,0.75
7124.00,0.75
7122.00,0.75
7120.00,0.75
7118.00,0.75
7116.00,0.75
7114.00,0.75
7112.00,0.75
7110.00,0.75
7108.00,0.75
7106.00,0.75
7104.00,0.75
7102.00,0.75
7100.00,0.75
7098.00,0.75
7096.00,0.75
7094.00,0.75
7092.00,0.75
7090.00,0.75
7088.00,0.75
7086.00,0.75
7084.00,0.74
7082.00,0.74
7080.00,0.74
7078.00,0.74
7076.00,0.74
7074.00,0.74
7072.00,0.74
7070.00,0.74
7068.00,0.74
7066.00,0.75
7064.00,0.74
7062.00,0.74
7060.00,0.74
7058.00,0.74
7056.00,0.74
7054.00,0.74
7052.00,0.74
7050.00,0.74
7048.00,0.74
7046.00,0.74
7044.00,0.74
7042.00,0.74
7040.00,0.74
7038.00,0.74
7036.00,0.74
7034.00,0.74
7032.00,0.74
7030.00,0.74
7028.00,0.74
7026.00,0.74
7024.00,0.74
7022.00,0.74
7020.00,0.74
7018.00,0.74
7016.00,0.73
7014.00,0.73
7012.00,0.73
7010.00,0.73
7008.00,0.73
7006.00,0.73
7004.00,0.73
7002.00,0.73
7000.00,0.73
6998.00,0.73
6996.00,0.73
6994.00,0.73
6992.00,0.73
6990.00,0.73
6988.00,0.73
6986.00,0.73
6984.00,0.73
6982.00,0.73
6980.00,0.74
6978.00,0.74
6976.00,0.74
6974.00,0.74
6972.00,0.74
6970.00,0.74
6968.00,0.74
6966.00,0.74
6964.00,0.73
6962.00,0.73
6960.00,0.73
6958.00,0.73
6956.00,0.73
6954.00,0.73
6952.00,0.73
6950.00,0.73
6948.00,0.73
6946.00,0.73
6944.00,0.73
6942.00,0.73
6940.00,0.73
6938.00,0.73
6936.00,0.73
6934.00,0.73
6932.00,0.73
6930.00,0.73
6928.00,0.73
6926.00,0.73
6924.00,0.73
6922.00,0.73
6920.00,0.73
6918.00,0.73
6916.00,0.73
6914.00,0.73
6912.00,0.73
6910.00,0.73
6908.00,0.73
6906.00,0.73
6904.00,0.73
6902.00,0.73
6900.00,0.73
6898.00,0.73
6896.00,0.73
6894.00,0.73
6892.00,0.73
6890.00,0.73
6888.00,0.73
6886.00,0.73
6884.00,0.73
6882.00,0.73
6880.00,0.73
6878.00,0.73
6876.00,0.73
6874.00,0.73
6872.00,0.73
6870.00,0.73
6868.00,0.73
6866.00,0.73
6864.00,0.73
6862.00,0.73
6860.00,0.73
6858.00,0.73
6856.00,0.73
6854.00,0.73
6852.00,0.73
6850.00,0.73
6848.00,0.72
6846.00,0.72
6844.00,0.73
6842.00,0.73
6840.00,0.73
6838.00,0.73
6836.00,0.73
6834.00,0.73
6832.00,0.73
6830.00,0.73
6828.00,0.73
6826.00,0.73
6824.00,0.73
6822.00,0.73
6820.00,0.73
6818.00,0.73
6816.00,0.73
6814.00,0.73
6812.00,0.73
6810.00,0.73
6808.00,0.73
6806.00,0.73
6804.00,0.73
6802.00,0.73
6800.00,0.73
6798.00,0.73
6796.00,0.73
6794.00,0.73
6792.00,0.73
6790.00,0.73
6788.00,0.73
6786.00,0.73
6784.00,0.73
6782.00,0.73
6780.00,0.73
6778.00,0.73
6776.00,0.73
6774.00,0.73
6772.00,0.73
6770.00,0.73
6768.00,0.73
6766.00,0.73
6764.00,0.73
6762.00,0.73
6760.00,0.73
6758.00,0.73
6756.00,0.73
6754.00,0.73
6752.00,0.73
6750.00,0.73
6748.00,0.73
6746.00,0.73
6744.00,0.73
6742.00,0.73
6740.00,0.73
6738.00,0.73
6736.00,0.73
6734.00,0.73
6732.00,0.73
6730.00,0.74
6728.00,0.74
6726.00,0.74
6724.00,0.74
6722.00,0.74
6720.00,0.74
6718.00,0.74
6716.00,0.74
6714.00,0.74
6712.00,0.74
6710.00,0.74
6708.00,0.74
6706.00,0.74
6704.00,0.74
6702.00,0.74
6700.00,0.74
6698.00,0.74
6696.00,0.74
6694.00,0.74
6692.00,0.75
6690.00,0.75
6688.00,0.75
6686.00,0.75
6684.00,0.75
6682.00,0.75
6680.00,0.75
6678.00,0.75
6676.00,0.75
6674.00,0.75
6672.00,0.75
6670.00,0.75
6668.00,0.75
6666.00,0.75
6664.00,0.75
6662.00,0.75
6660.00,0.75
6658.00,0.75
6656.00,0.75
6654.00,0.75
6652.00,0.75
6650.00,0.75
6648.00,0.75
6646.00,0.75
6644.00,0.75
6642.00,0.75
6640.00,0.75
6638.00,0.75
6636.00,0.75
6634.00,0.75
6632.00,0.75
6630.00,0.75
6628.00,0.75
6626.00,0.75
6624.00,0.75
6622.00,0.75
6620.00,0.75
6618.00,0.75
6616.00,0.75
6614.00,0.75
6612.00,0.75
6610.00,0.75
6608.00,0.75
6606.00,0.75
6604.00,0.75
6602.00,0.75
6600.00,0.75
6598.00,0.75
6596.00,0.75
6594.00,0.75
6592.00,0.75
6590.00,0.75
6588.00,0.75
6586.00,0.75
6584.00,0.75
6582.00,0.75
6580.00,0.75
6578.00,0.75
6576.00,0.75
6574.00,0.75
6572.00,0.75
6570.00,0.75
6568.00,0.75
6566.00,0.75
6564.00,0.75
6562.00,0.75
6560.00,0.75
6558.00,0.75
6556.00,0.75
6554.00,0.75
6552.00,0.75
6550.00,0.75
6548.00,0.76
6546.00,0.76
6544.00,0.76
6542.00,0.76
6540.00,0.76
6538.00,0.76
6536.00,0.76
6534.00,0.76
6532.00,0.76
6530.00,0.76
6528.00,0.76
6526.00,0.76
6524.00,0.76
6522.00,0.76
6520.00,0.76
6518.00,0.76
6516.00,0.76
6514.00,0.76
6512.00,0.76
6510.00,0.76
6508.00,0.76
6506.00,0.76
6504.00,0.76
6502.00,0.76
6500.00,0.76
6498.00,0.76
6496.00,0.76
6494.00,0.76
6492.00,0.76
6490.00,0.76
6488.00,0.76
6486.00,0.76
6484.00,0.76
6482.00,0.76
6480.00,0.76
6478.00,0.76
6476.00,0.76
6474.00,0.76
6472.00,0.77
6470.00,0.77
6468.00,0.77
6466.00,0.77
6464.00,0.77
6462.00,0.77
6460.00,0.77
6458.00,0.77
6456.00,0.77
6454.00,0.77
6452.00,0.77
6450.00,0.77
6448.00,0.77
6446.00,0.77
6444.00,0.77
6442.00,0.77
6440.00,0.76
6438.00,0.76
6436.00,0.76
6434.00,0.76
6432.00,0.76
6430.00,0.76
6428.00,0.76
6426.00,0.76
6424.00,0.76
6422.00,0.76
6420.00,0.76
6418.00,0.76
6416.00,0.76
6414.00,0.76
6412.00,0.77
6410.00,0.77
6408.00,0.77
6406.00,0.77
6404.00,0.77
6402.00,0.77
6400.00,0.77
6398.00,0.77
6396.00,0.77
6394.00,0.77
6392.00,0.77
6390.00,0.77
6388.00,0.77
6386.00,0.77
6384.00,0.77
6382.00,0.77
6380.00,0.77
6378.00,0.77
6376.00,0.77
6374.00,0.77
6372.00,0.77
6370.00,0.77
6368.00,0.77
6366.00,0.77
6364.00,0.77
6362.00,0.77
6360.00,0.77
6358.00,0.77
6356.00,0.77
6354.00,0.77
6352.00,0.77
6350.00,0.77
6348.00,0.77
6346.00,0.77
6344.00,0.77
6342.00,0.77
6340.00,0.77
6338.00,0.77
6336.00,0.77
6334.00,0.77
6332.00,0.77
6330.00,0.77
6328.00,0.77
6326.00,0.77
6324.00,0.77
6322.00,0.77
6320.00,0.77
6318.00,0.77
6316.00,0.77
6314.00,0.77
6312.00,0.77
6310.00,0.77
6308.00,0.77
6306.00,0.77
6304.00,0.77
6302.00,0.77
6300.00,0.77
6298.00,0.77
6296.00,0.77
6294.00,0.77
6292.00,0.77
6290.00,0.77
6288.00,0.77
6286.00,0.77
6284.00,0.77
6282.00,0.77
6280.00,0.77
6278.00,0.77
6276.00,0.77
6274.00,0.77
6272.00,0.77
6270.00,0.78
6268.00,0.78
6266.00,0.78
6264.00,0.78
6262.00,0.78
6260.00,0.78
6258.00,0.78
6256.00,0.78
6254.00,0.78
6252.00,0.78
6250.00,0.78
6248.00,0.78
6246.00,0.78
6244.00,0.78
6242.00,0.78
6240.00,0.78
6238.00,0.78
6236.00,0.78
6234.00,0.78
6232.00,0.78
6230.00,0.78
6228.00,0.78
6226.00,0.78
6224.00,0.78
6222.00,0.78
6220.00,0.78
6218.00,0.78
6216.00,0.78
6214.00,0.78
6212.00,0.78
6210.00,0.78
6208.00,0.78
6206.00,0.78
6204.00,0.78
6202.00,0.78
6200.00,0.78
6198.00,0.78
6196.00,0.78
6194.00,0.78
6192.00,0.78
6190.00,0.78
6188.00,0.78
6186.00,0.78
6184.00,0.79
6182.00,0.79
6180.00,0.79
6178.00,0.79
6176.00,0.79
6174.00,0.79
6172.00,0.79
6170.00,0.79
6168.00,0.79
6166.00,0.79
6164.00,0.79
6162.00,0.78
6160.00,0.78
6158.00,0.78
6156.00,0.78
6154.00,0.78
6152.00,0.78
6150.00,0.78
6148.00,0.78
6146.00,0.78
6144.00,0.78
6142.00,0.78
6140.00,0.79
6138.00,0.79
6136.00,0.79
6134.00,0.79
6132.00,0.79
6130.00,0.79
6128.00,0.79
6126.00,0.79
6124.00,0.79
6122.00,0.79
6120.00,0.79
6118.00,0.79
6116.00,0.79
6114.00,0.79
6112.00,0.79
6110.00,0.79
6108.00,0.79
6106.00,0.79
6104.00,0.79
6102.00,0.79
6100.00,0.79
6098.00,0.79
6096.00,0.79
6094.00,0.79
6092.00,0.79
6090.00,0.79
6088.00,0.79
6086.00,0.79
6084.00,0.79
6082.00,0.79
6080.00,0.80
6078.00,0.80
6076.00,0.80
6074.00,0.80
6072.00,0.80
6070.00,0.80
6068.00,0.80
6066.00,0.80
6064.00,0.80
6062.00,0.80
6060.00,0.80
6058.00,0.80
6056.00,0.80
6054.00,0.80
6052.00,0.80
6050.00,0.80
6048.00,0.80
6046.00,0.80
6044.00,0.80
6042.00,0.80
6040.00,0.80
6038.00,0.80
6036.00,0.80
6034.00,0.80
6032.00,0.80
6030.00,0.80
6028.00,0.80
6026.00,0.80
6024.00,0.80
6022.00,0.80
6020.00,0.80
6018.00,0.80
6016.00,0.80
6014.00,0.80
6012.00,0.80
6010.00,0.80
6008.00,0.80
6006.00,0.80
6004.00,0.80
6002.00,0.80
6000.00,0.80
5998.00,0.80
5996.00,0.80
5994.00,0.80
5992.00,0.80
5990.00,0.80
5988.00,0.80
5986.00,0.80
5984.00,0.79
5982.00,0.79
5980.00,0.79
5978.00,0.79
5976.00,0.79
5974.00,0.79
5972.00,0.79
5970.00,0.79
5968.00,0.79
5966.00,0.79
5964.00,0.79
5962.00,0.79
5960.00,0.79
5958.00,0.79
5956.00,0.79
5954.00,0.79
5952.00,0.78
5950.00,0.78
5948.00,0.78
5946.00,0.78
5944.00,0.78
5942.00,0.78
5940.00,0.78
5938.00,0.78
5936.00,0.78
5934.00,0.78
5932.00,0.78
5930.00,0.78
5928.00,0.78
5926.00,0.78
5924.00,0.78
5922.00,0.78
5920.00,0.78
5918.00,0.78
5916.00,0.78
5914.00,0.78
5912.00,0.78
5910.00,0.78
5908.00,0.78
5906.00,0.78
5904.00,0.78
5902.00,0.78
5900.00,0.77
5898.00,0.77
5896.00,0.77
5894.00,0.77
5892.00,0.77
5890.00,0.77
5888.00,0.78
5886.00,0.78
5884.00,0.78
5882.00,0.78
5880.00,0.78
5878.00,0.78
5876.00,0.78
5874.00,0.78
5872.00,0.78
5870.00,0.78
5868.00,0.78
5866.00,0.78
5864.00,0.78
5862.00,0.78
5860.00,0.78
5858.00,0.78
5856.00,0.78
5854.00,0.78
5852.00,0.78
5850.00,0.78
5848.00,0.78
5846.00,0.78
5844.00,0.78
5842.00,0.78
5840.00,0.78
5838.00,0.78
5836.00,0.78
5834.00,0.78
5832.00,0.78
5830.00,0.78
5828.00,0.78
5826.00,0.78
5824.00,0.78
5822.00,0.78
5820.00,0.79
5818.00,0.79
5816.00,0.79
5814.00,0.79
5812.00,0.78
5810.00,0.78
5808.00,0.78
5806.00,0.78
5804.00,0.78
5802.00,0.78
5800.00,0.78
5798.00,0.78
5796.00,0.78
5794.00,0.78
5792.00,0.78
5790.00,0.78
5788.00,0.78
5786.00,0.78
5784.00,0.78
5782.00,0.78
5780.00,0.78
5778.00,0.78
5776.00,0.78
5774.00,0.78
5772.00,0.78
5770.00,0.78
5768.00,0.78
5766.00,0.78
5764.00,0.78
5762.00,0.78
5760.00,0.78
5758.00,0.78
5756.00,0.78
5754.00,0.78
5752.00,0.79
5750.00,0.79
5748.00,0.79
5746.00,0.79
5744.00,0.79
5742.00,0.79
5740.00,0.79
5738.00,0.79
5736.00,0.79
5734.00,0.79
5732.00,0.79
5730.00,0.79
5728.00,0.79
5726.00,0.79
5724.00,0.79
5722.00,0.79
5720.00,0.79
5718.00,0.79
5716.00,0.79
5714.00,0.79
5712.00,0.79
5710.00,0.79
5708.00,0.79
5706.00,0.79
5704.00,0.79
5702.00,0.79
5700.00,0.79
5698.00,0.79
5696.00,0.79
5694.00,0.79
5692.00,0.79
5690.00,0.79
5688.00,0.79
5686.00,0.79
5684.00,0.79
5682.00,0.79
5680.00,0.79
5678.00,0.79
5676.00,0.79
5674.00,0.79
5672.00,0.79
5670.00,0.79
5668.00,0.79
5666.00,0.79
5664.00,0.79
5662.00,0.79
5660.00,0.79
5658.00,0.79
5656.00,0.79
5654.00,0.79
5652.00,0.79
5650.00,0.79
5648.00,0.79
5646.00,0.79
5644.00,0.79
5642.00,0.79
5640.00,0.79
5638.00,0.79
5636.00,0.79
5634.00,0.79
5632.00,0.80
5630.00,0.80
5628.00,0.80
5626.00,0.80
5624.00,0.80
5622.00,0.80
5620.00,0.80
5618.00,0.80
5616.00,0.80
5614.00,0.80
5612.00,0.80
5610.00,0.80
5608.00,0.80
5606.00,0.80
5604.00,0.80
5602.00,0.80
5600.00,0.80
5598.00,0.80
5596.00,0.80
5594.00,0.80
5592.00,0.80
5590.00,0.80
5588.00,0.80
5586.00,0.80
5584.00,0.80
5582.00,0.80
5580.00,0.80
5578.00,0.81
5576.00,0.81
5574.00,0.81
5572.00,0.81
5570.00,0.81
5568.00,0.81
5566.00,0.81
5564.00,0.81
5562.00,0.80
5560.00,0.80
5558.00,0.80
5556.00,0.80
5554.00,0.80
5552.00,0.80
5550.00,0.80
5548.00,0.80
5546.00,0.80
5544.00,0.81
5542.00,0.81
5540.00,0.81
5538.00,0.81
5536.00,0.81
5534.00,0.81
5532.00,0.81
5530.00,0.81
5528.00,0.81
5526.00,0.81
5524.00,0.81
5522.00,0.81
5520.00,0.81
5518.00,0.81
5516.00,0.81
5514.00,0.81
5512.00,0.81
5510.00,0.81
5508.00,0.81
5506.00,0.81
5504.00,0.81
5502.00,0.81
5500.00,0.81
5498.00,0.81
5496.00,0.81
5494.00,0.81
5492.00,0.81
5490.00,0.81
5488.00,0.81
5486.00,0.81
5484.00,0.81
5482.00,0.81
5480.00,0.81
5478.00,0.81
5476.00,0.81
5474.00,0.81
5472.00,0.81
5470.00,0.81
5468.00,0.81
5466.00,0.81
5464.00,0.81
5462.00,0.81
5460.00,0.81
5458.00,0.81
5456.00,0.81
5454.00,0.81
5452.00,0.81
5450.00,0.81
5448.00,0.81
5446.00,0.81
5444.00,0.81
5442.00,0.81
5440.00,0.81
5438.00,0.81
5436.00,0.81
5434.00,0.81
5432.00,0.81
5430.00,0.81
5428.00,0.81
5426.00,0.81
5424.00,0.81
5422.00,0.81
5420.00,0.81
5418.00,0.81
5416.00,0.81
5414.00,0.81
5412.00,0.81
5410.00,0.81
5408.00,0.81
5406.00,0.81
5404.00,0.81
5402.00,0.81
5400.00,0.81
5398.00,0.81
5396.00,0.81
5394.00,0.81
5392.00,0.81
5390.00,0.81
5388.00,0.81
5386.00,0.81
5384.00,0.81
5382.00,0.81
5380.00,0.81
5378.00,0.81
5376.00,0.81
5374.00,0.81
5372.00,0.81
5370.00,0.81
5368.00,0.81
5366.00,0.81
5364.00,0.81
5362.00,0.81
5360.00,0.81
5358.00,0.81
5356.00,0.80
5354.00,0.80
5352.00,0.80
5350.00,0.80
5348.00,0.80
5346.00,0.80
5344.00,0.79
5342.00,0.79
5340.00,0.79
5338.00,0.79
5336.00,0.79
5334.00,0.79
5332.00,0.79
5330.00,0.79
5328.00,0.78
5326.00,0.78
5324.00,0.78
5322.00,0.78
5320.00,0.78
5318.00,0.77
5316.00,0.77
5314.00,0.77
5312.00,0.77
5310.00,0.76
5308.00,0.76
5306.00,0.76
5304.00,0.76
5302.00,0.75
5300.00,0.75
5298.00,0.75
5296.00,0.75
5294.00,0.74
5292.00,0.74
5290.00,0.74
5288.00,0.73
5286.00,0.73
5284.00,0.73
5282.00,0.73
5280.00,0.73
5278.00,0.72
5276.00,0.72
5274.00,0.72
5272.00,0.72
5270.00,0.72
5268.00,0.71
5266.00,0.71
5264.00,0.71
5262.00,0.71
5260.00,0.70
5258.00,0.70
5256.00,0.70
5254.00,0.70
5252.00,0.70
5250.00,0.70
5248.00,0.70
5246.00,0.70
5244.00,0.69
5242.00,0.69
5240.00,0.69
5238.00,0.69
5236.00,0.69
5234.00,0.69
5232.00,0.69
5230.00,0.68
5228.00,0.68
5226.00,0.68
5224.00,0.68
5222.00,0.68
5220.00,0.68
5218.00,0.68
5216.00,0.68
5214.00,0.68
5212.00,0.67
5210.00,0.67
5208.00,0.67
5206.00,0.67
5204.00,0.67
5202.00,0.67
5200.00,0.67
5198.00,0.66
5196.00,0.66
5194.00,0.66
5192.00,0.66
5190.00,0.66
5188.00,0.66
5186.00,0.66
5184.00,0.66
5182.00,0.66
5180.00,0.66
5178.00,0.66
5176.00,0.66
5174.00,0.66
5172.00,0.66
5170.00,0.66
5168.00,0.66
5166.00,0.66
5164.00,0.66
5162.00,0.66
5160.00,0.66
5158.00,0.66
5156.00,0.66
5154.00,0.66
5152.00,0.66
5150.00,0.66
5148.00,0.66
5146.00,0.66
5144.00,0.66
5142.00,0.66
5140.00,0.67
5138.00,0.67
5136.00,0.67
5134.00,0.67
5132.00,0.67
5130.00,0.67
5128.00,0.67
5126.00,0.67
5124.00,0.67
5122.00,0.67
5120.00,0.67
5118.00,0.68
5116.00,0.68
5114.00,0.68
5112.00,0.68
5110.00,0.68
5108.00,0.68
5106.00,0.68
5104.00,0.68
5102.00,0.69
5100.00,0.69
5098.00,0.69
5096.00,0.69
5094.00,0.69
5092.00,0.69
5090.00,0.69
5088.00,0.69
5086.00,0.69
5084.00,0.69
5082.00,0.70
5080.00,0.70
5078.00,0.70
5076.00,0.70
5074.00,0.70
5072.00,0.70
5070.00,0.70
5068.00,0.70
5066.00,0.71
5064.00,0.71
5062.00,0.71
5060.00,0.71
5058.00,0.71
5056.00,0.71
5054.00,0.71
5052.00,0.71
5050.00,0.71
5048.00,0.71
5046.00,0.71
5044.00,0.71
5042.00,0.71
5040.00,0.72
5038.00,0.72
5036.00,0.72
5034.00,0.72
5032.00,0.72
5030.00,0.72
5028.00,0.72
5026.00,0.73
5024.00,0.73
5022.00,0.73
5020.00,0.73
5018.00,0.73
5016.00,0.73
5014.00,0.73
5012.00,0.73
5010.00,0.73
5008.00,0.73
5006.00,0.73
5004.00,0.73
5002.00,0.73
5000.00,0.73
4998.00,0.73
4996.00,0.73
4994.00,0.73
4992.00,0.74
4990.00,0.74
4988.00,0.74
4986.00,0.74
4984.00,0.74
4982.00,0.74
4980.00,0.74
4978.00,0.74
4976.00,0.75
4974.00,0.75
4972.00,0.75
4970.00,0.75
4968.00,0.75
4966.00,0.75
4964.00,0.75
4962.00,0.75
4960.00,0.75
4958.00,0.75
4956.00,0.75
4954.00,0.75
4952.00,0.75
4950.00,0.75
4948.00,0.75
4946.00,0.75
4944.00,0.75
4942.00,0.75
4940.00,0.75
4938.00,0.75
4936.00,0.75
4934.00,0.75
4932.00,0.75
4930.00,0.75
4928.00,0.75
4926.00,0.75
4924.00,0.75
4922.00,0.76
4920.00,0.76
4918.00,0.76
4916.00,0.76
4914.00,0.76
4912.00,0.76
4910.00,0.76
4908.00,0.76
4906.00,0.76
4904.00,0.76
4902.00,0.76
4900.00,0.76
4898.00,0.76
4896.00,0.76
4894.00,0.76
4892.00,0.76
4890.00,0.76
4888.00,0.76
4886.00,0.76
4884.00,0.76
4882.00,0.76
4880.00,0.76
4878.00,0.76
4876.00,0.76
4874.00,0.76
4872.00,0.76
4870.00,0.76
4868.00,0.76
4866.00,0.76
4864.00,0.76
4862.00,0.76
4860.00,0.76
4858.00,0.76
4856.00,0.76
4854.00,0.76
4852.00,0.76
4850.00,0.76
4848.00,0.76
4846.00,0.76
4844.00,0.76
4842.00,0.76
4840.00,0.77
4838.00,0.77
4836.00,0.77
4834.00,0.77
4832.00,0.77
4830.00,0.77
4828.00,0.77
4826.00,0.77
4824.00,0.77
4822.00,0.77
4820.00,0.77
4818.00,0.77
4816.00,0.77
4814.00,0.77
4812.00,0.77
4810.00,0.77
4808.00,0.77
4806.00,0.77
4804.00,0.77
4802.00,0.77
4800.00,0.77
4798.00,0.77
4796.00,0.77
4794.00,0.77
4792.00,0.77
4790.00,0.77
4788.00,0.78
4786.00,0.78
4784.00,0.78
4782.00,0.78
4780.00,0.78
4778.00,0.78
4776.00,0.78
4774.00,0.78
4772.00,0.78
4770.00,0.78
4768.00,0.78
4766.00,0.78
4764.00,0.78
4762.00,0.78
4760.00,0.78
4758.00,0.78
4756.00,0.78
4754.00,0.78
4752.00,0.78
4750.00,0.78
4748.00,0.78
4746.00,0.78
4744.00,0.79
4742.00,0.79
4740.00,0.79
4738.00,0.79
4736.00,0.79
4734.00,0.79
4732.00,0.79
4730.00,0.79
4728.00,0.79
4726.00,0.79
4724.00,0.79
4722.00,0.79
4720.00,0.79
4718.00,0.79
4716.00,0.79
4714.00,0.79
4712.00,0.79
4710.00,0.79
4708.00,0.79
4706.00,0.79
4704.00,0.79
4702.00,0.79
4700.00,0.79
4698.00,0.79
4696.00,0.80
4694.00,0.80
4692.00,0.80
4690.00,0.80
4688.00,0.80
4686.00,0.80
4684.00,0.80
4682.00,0.80
4680.00,0.80
4678.00,0.80
4676.00,0.80
4674.00,0.80
4672.00,0.80
4670.00,0.80
4668.00,0.80
4666.00,0.80
4664.00,0.80
4662.00,0.80
4660.00,0.80
4658.00,0.80
4656.00,0.80
4654.00,0.80
4652.00,0.80
4650.00,0.80
4648.00,0.80
4646.00,0.81
4644.00,0.81
4642.00,0.81
4640.00,0.81
4638.00,0.81
4636.00,0.81
4634.00,0.81
4632.00,0.81
4630.00,0.81
4628.00,0.81
4626.00,0.81
4624.00,0.81
4622.00,0.81
4620.00,0.81
4618.00,0.81
4616.00,0.80
4614.00,0.80
4612.00,0.80
4610.00,0.81
4608.00,0.81
4606.00,0.81
4604.00,0.81
4602.00,0.81
4600.00,0.81
4598.00,0.81
4596.00,0.81
4594.00,0.81
4592.00,0.81
4590.00,0.81
4588.00,0.81
4586.00,0.81
4584.00,0.81
4582.00,0.81
4580.00,0.81
4578.00,0.81
4576.00,0.81
4574.00,0.81
4572.00,0.81
4570.00,0.81
4568.00,0.81
4566.00,0.81
4564.00,0.81
4562.00,0.81
4560.00,0.81
4558.00,0.81
4556.00,0.81
4554.00,0.81
4552.00,0.81
4550.00,0.81
4548.00,0.81
4546.00,0.81
4544.00,0.81
4542.00,0.81
4540.00,0.81
4538.00,0.81
4536.00,0.81
4534.00,0.81
4532.00,0.81
4530.00,0.81
4528.00,0.81
4526.00,0.81
4524.00,0.81
4522.00,0.81
4520.00,0.81
4518.00,0.81
4516.00,0.81
4514.00,0.81
4512.00,0.81
4510.00,0.81
4508.00,0.81
4506.00,0.81
4504.00,0.81
4502.00,0.81
4500.00,0.81
4498.00,0.81
4496.00,0.81
4494.00,0.81
4492.00,0.81
4490.00,0.81
4488.00,0.81
4486.00,0.81
4484.00,0.81
4482.00,0.81
4480.00,0.81
4478.00,0.81
4476.00,0.81
4474.00,0.81
4472.00,0.81
4470.00,0.81
4468.00,0.81
4466.00,0.81
4464.00,0.81
4462.00,0.81
4460.00,0.81
4458.00,0.81
4456.00,0.81
4454.00,0.80
4452.00,0.80
4450.00,0.80
4448.00,0.80
4446.00,0.80
4444.00,0.79
4442.00,0.79
4440.00,0.79
4438.00,0.79
4436.00,0.78
4434.00,0.78
4432.00,0.77
4430.00,0.77
4428.00,0.77
4426.00,0.76
4424.00,0.76
4422.00,0.76
4420.00,0.75
4418.00,0.75
4416.00,0.75
4414.00,0.75
4412.00,0.75
4410.00,0.75
4408.00,0.75
4406.00,0.75
4404.00,0.75
4402.00,0.75
4400.00,0.75
4398.00,0.75
4396.00,0.75
4394.00,0.75
4392.00,0.76
4390.00,0.76
4388.00,0.76
4386.00,0.76
4384.00,0.77
4382.00,0.77
4380.00,0.77
4378.00,0.77
4376.00,0.77
4374.00,0.77
4372.00,0.77
4370.00,0.77
4368.00,0.77
4366.00,0.77
4364.00,0.77
4362.00,0.77
4360.00,0.77
4358.00,0.77
4356.00,0.77
4354.00,0.76
4352.00,0.76
4350.00,0.76
4348.00,0.75
4346.00,0.75
4344.00,0.75
4342.00,0.75
4340.00,0.75
4338.00,0.75
4336.00,0.75
4334.00,0.75
4332.00,0.75
4330.00,0.75
4328.00,0.76
4326.00,0.76
4324.00,0.76
4322.00,0.77
4320.00,0.77
4318.00,0.77
4316.00,0.78
4314.00,0.78
4312.00,0.78
4310.00,0.78
4308.00,0.79
4306.00,0.79
4304.00,0.79
4302.00,0.79
4300.00,0.80
4298.00,0.80
4296.00,0.80
4294.00,0.80
4292.00,0.80
4290.00,0.80
4288.00,0.81
4286.00,0.81
4284.00,0.81
4282.00,0.81
4280.00,0.81
4278.00,0.81
4276.00,0.80
4274.00,0.80
4272.00,0.80
4270.00,0.80
4268.00,0.80
4266.00,0.80
4264.00,0.80
4262.00,0.80
4260.00,0.80
4258.00,0.79
4256.00,0.79
4254.00,0.79
4252.00,0.79
4250.00,0.79
4248.00,0.79
4246.00,0.79
4244.00,0.80
4242.00,0.80
4240.00,0.80
4238.00,0.80
4236.00,0.80
4234.00,0.81
4232.00,0.81
4230.00,0.81
4228.00,0.81
4226.00,0.81
4224.00,0.81
4222.00,0.81
4220.00,0.81
4218.00,0.81
4216.00,0.81
4214.00,0.81
4212.00,0.81
4210.00,0.81
4208.00,0.81
4206.00,0.81
4204.00,0.81
4202.00,0.81
4200.00,0.81
4198.00,0.81
4196.00,0.81
4194.00,0.81
4192.00,0.81
4190.00,0.81
4188.00,0.81
4186.00,0.81
4184.00,0.81
4182.00,0.81
4180.00,0.81
4178.00,0.81
4176.00,0.81
4174.00,0.81
4172.00,0.81
4170.00,0.81
4168.00,0.81
4166.00,0.81
4164.00,0.81
4162.00,0.81
4160.00,0.81
4158.00,0.81
4156.00,0.81
4154.00,0.81
4152.00,0.81
4150.00,0.81
4148.00,0.81
4146.00,0.81
4144.00,0.81
4142.00,0.81
4140.00,0.81
4138.00,0.81
4136.00,0.81
4134.00,0.81
4132.00,0.81
4130.00,0.81
4128.00,0.81
4126.00,0.81
4124.00,0.81
4122.00,0.81
4120.00,0.81
4118.00,0.81
4116.00,0.81
4114.00,0.81
4112.00,0.81
4110.00,0.81
4108.00,0.81
4106.00,0.81
4104.00,0.81
4102.00,0.81
4100.00,0.81
4098.00,0.81
4096.00,0.81
4094.00,0.81
4092.00,0.81
4090.00,0.81
4088.00,0.81
4086.00,0.81
4084.00,0.80
4082.00,0.80
4080.00,0.80
4078.00,0.80
4076.00,0.79
4074.00,0.79
4072.00,0.79
4070.00,0.79
4068.00,0.79
4066.00,0.79
4064.00,0.79
4062.00,0.79
4060.00,0.79
4058.00,0.79
4056.00,0.79
4054.00,0.80
4052.00,0.80
4050.00,0.80
4048.00,0.81
4046.00,0.81
4044.00,0.81
4042.00,0.81
4040.00,0.81
4038.00,0.81
4036.00,0.81
4034.00,0.81
4032.00,0.80
4030.00,0.80
4028.00,0.80
4026.00,0.80
4024.00,0.80
4022.00,0.80
4020.00,0.80
4018.00,0.80
4016.00,0.80
4014.00,0.80
4012.00,0.80
4010.00,0.81
4008.00,0.81
4006.00,0.81
4004.00,0.81
4002.00,0.81
4000.00,0.81
