创建为新数据集,样品 1759 用户 Administrator 日期 星期三, 三月 15 2017
cm-1,%T
10000.00,1.03
9998.00,1.03
9996.00,1.03
9994.00,1.03
9992.00,1.03
9990.00,1.03
9988.00,1.03
9986.00,1.03
9984.00,1.03
9982.00,1.03
9980.00,1.03
9978.00,1.03
9976.00,1.03
9974.00,1.03
9972.00,1.02
9970.00,1.02
9968.00,1.01
9966.00,1.01
9964.00,1.01
9962.00,1.00
9960.00,1.00
9958.00,1.00
9956.00,1.00
9954.00,1.00
9952.00,1.00
9950.00,1.00
9948.00,1.00
9946.00,1.00
9944.00,1.00
9942.00,1.01
9940.00,1.01
9938.00,1.02
9936.00,1.02
9934.00,1.02
9932.00,1.03
9930.00,1.03
9928.00,1.03
9926.00,1.03
9924.00,1.03
9922.00,1.02
9920.00,1.02
9918.00,1.02
9916.00,1.01
9914.00,1.01
9912.00,1.01
9910.00,1.01
9908.00,1.02
9906.00,1.02
9904.00,1.03
9902.00,1.03
9900.00,1.03
9898.00,1.03
9896.00,1.02
9894.00,1.02
9892.00,1.01
9890.00,1.01
9888.00,1.00
9886.00,1.00
9884.00,1.00
9882.00,1.01
9880.00,1.01
9878.00,1.02
9876.00,1.02
9874.00,1.02
9872.00,1.02
9870.00,1.02
9868.00,1.02
9866.00,1.01
9864.00,1.01
9862.00,1.01
9860.00,1.01
9858.00,1.01
9856.00,1.01
9854.00,1.01
9852.00,1.01
9850.00,1.01
9848.00,1.01
9846.00,1.00
9844.00,1.00
9842.00,1.00
9840.00,1.00
9838.00,1.00
9836.00,1.00
9834.00,1.00
9832.00,1.00
9830.00,1.01
9828.00,1.01
9826.00,1.01
9824.00,1.01
9822.00,1.01
9820.00,1.01
9818.00,1.01
9816.00,1.01
9814.00,1.01
9812.00,1.01
9810.00,1.02
9808.00,1.02
9806.00,1.03
9804.00,1.03
9802.00,1.04
9800.00,1.04
9798.00,1.03
9796.00,1.03
9794.00,1.02
9792.00,1.02
9790.00,1.01
9788.00,1.01
9786.00,1.00
9784.00,1.00
9782.00,1.00
9780.00,1.00
9778.00,1.00
9776.00,1.00
9774.00,1.01
9772.00,1.01
9770.00,1.01
9768.00,1.01
9766.00,1.02
9764.00,1.02
9762.00,1.02
9760.00,1.02
9758.00,1.02
9756.00,1.02
9754.00,1.02
9752.00,1.02
9750.00,1.03
9748.00,1.03
9746.00,1.03
9744.00,1.03
9742.00,1.03
9740.00,1.03
9738.00,1.02
9736.00,1.02
9734.00,1.02
9732.00,1.02
9730.00,1.02
9728.00,1.02
9726.00,1.02
9724.00,1.02
9722.00,1.02
9720.00,1.02
9718.00,1.02
9716.00,1.02
9714.00,1.02
9712.00,1.02
9710.00,1.02
9708.00,1.01
9706.00,1.01
9704.00,1.01
9702.00,1.01
9700.00,1.00
9698.00,1.00
9696.00,1.00
9694.00,0.99
9692.00,0.99
9690.00,0.99
9688.00,0.98
9686.00,0.98
9684.00,0.98
9682.00,0.98
9680.00,0.98
9678.00,0.98
9676.00,0.98
9674.00,0.98
9672.00,0.98
9670.00,0.99
9668.00,0.99
9666.00,0.99
9664.00,1.00
9662.00,1.00
9660.00,1.01
9658.00,1.01
9656.00,1.01
9654.00,1.01
9652.00,1.00
9650.00,1.00
9648.00,1.00
9646.00,1.00
9644.00,0.99
9642.00,0.99
9640.00,1.00
9638.00,1.00
9636.00,1.00
9634.00,1.00
9632.00,1.00
9630.00,1.01
9628.00,1.01
9626.00,1.01
9624.00,1.01
9622.00,1.02
9620.00,1.02
9618.00,1.02
9616.00,1.02
9614.00,1.02
9612.00,1.02
9610.00,1.01
9608.00,1.01
9606.00,1.01
9604.00,1.00
9602.00,1.00
9600.00,1.00
9598.00,1.01
9596.00,1.01
9594.00,1.01
9592.00,1.01
9590.00,1.01
9588.00,1.01
9586.00,1.01
9584.00,1.01
9582.00,1.01
9580.00,1.01
9578.00,1.01
9576.00,1.01
9574.00,1.01
9572.00,1.01
9570.00,1.01
9568.00,1.01
9566.00,1.01
9564.00,1.01
9562.00,1.01
9560.00,1.01
9558.00,1.01
9556.00,1.01
9554.00,1.00
9552.00,1.00
9550.00,1.00
9548.00,1.00
9546.00,0.99
9544.00,0.99
9542.00,0.99
9540.00,0.99
9538.00,0.99
9536.00,0.99
9534.00,0.99
9532.00,1.00
9530.00,1.00
9528.00,1.00
9526.00,1.00
9524.00,1.01
9522.00,1.01
9520.00,1.01
9518.00,1.01
9516.00,1.01
9514.00,1.01
9512.00,1.01
9510.00,1.01
9508.00,1.01
9506.00,1.01
9504.00,1.00
9502.00,1.00
9500.00,1.00
9498.00,1.00
9496.00,1.00
9494.00,1.00
9492.00,1.00
9490.00,1.00
9488.00,1.00
9486.00,1.01
9484.00,1.01
9482.00,1.01
9480.00,1.01
9478.00,1.01
9476.00,1.01
9474.00,1.00
9472.00,1.00
9470.00,0.99
9468.00,0.99
9466.00,0.99
9464.00,0.99
9462.00,0.99
9460.00,0.99
9458.00,0.99
9456.00,1.00
9454.00,1.00
9452.00,1.01
9450.00,1.01
9448.00,1.01
9446.00,1.01
9444.00,1.01
9442.00,1.01
9440.00,1.01
9438.00,1.01
9436.00,1.01
9434.00,1.01
9432.00,1.00
9430.00,1.00
9428.00,1.00
9426.00,1.00
9424.00,1.00
9422.00,1.00
9420.00,1.00
9418.00,1.00
9416.00,1.00
9414.00,1.01
9412.00,1.01
9410.00,1.01
9408.00,1.01
9406.00,1.01
9404.00,1.01
9402.00,1.00
9400.00,1.00
9398.00,1.00
9396.00,1.00
9394.00,0.99
9392.00,0.99
9390.00,0.99
9388.00,0.99
9386.00,0.99
9384.00,0.99
9382.00,1.00
9380.00,1.00
9378.00,1.00
9376.00,1.01
9374.00,1.01
9372.00,1.01
9370.00,1.01
9368.00,1.01
9366.00,1.01
9364.00,1.01
9362.00,1.01
9360.00,1.01
9358.00,1.01
9356.00,1.01
9354.00,1.01
9352.00,1.01
9350.00,1.01
9348.00,1.01
9346.00,1.01
9344.00,1.01
9342.00,1.01
9340.00,1.01
9338.00,1.01
9336.00,1.01
9334.00,1.01
9332.00,1.00
9330.00,1.00
9328.00,1.01
9326.00,1.01
9324.00,1.01
9322.00,1.01
9320.00,1.01
9318.00,1.01
9316.00,1.01
9314.00,1.01
9312.00,1.01
9310.00,1.01
9308.00,1.01
9306.00,1.01
9304.00,1.01
9302.00,1.01
9300.00,1.01
9298.00,1.01
9296.00,1.01
9294.00,1.01
9292.00,1.01
9290.00,1.01
9288.00,1.00
9286.00,1.00
9284.00,1.00
9282.00,1.00
9280.00,1.00
9278.00,1.00
9276.00,1.00
9274.00,1.00
9272.00,1.00
9270.00,1.00
9268.00,1.00
9266.00,1.00
9264.00,1.00
9262.00,1.00
9260.00,1.00
9258.00,1.00
9256.00,1.00
9254.00,1.00
9252.00,1.00
9250.00,1.01
9248.00,1.01
9246.00,1.01
9244.00,1.01
9242.00,1.01
9240.00,1.01
9238.00,1.01
9236.00,1.00
9234.00,1.00
9232.00,1.00
9230.00,1.00
9228.00,1.00
9226.00,1.00
9224.00,0.99
9222.00,1.00
9220.00,1.00
9218.00,1.00
9216.00,1.00
9214.00,1.01
9212.00,1.01
9210.00,1.01
9208.00,1.01
9206.00,1.01
9204.00,1.01
9202.00,1.02
9200.00,1.02
9198.00,1.01
9196.00,1.01
9194.00,1.01
9192.00,1.01
9190.00,1.01
9188.00,1.01
9186.00,1.01
9184.00,1.01
9182.00,1.01
9180.00,1.01
9178.00,1.02
9176.00,1.02
9174.00,1.02
9172.00,1.02
9170.00,1.02
9168.00,1.02
9166.00,1.02
9164.00,1.02
9162.00,1.02
9160.00,1.02
9158.00,1.02
9156.00,1.02
9154.00,1.02
9152.00,1.02
9150.00,1.01
9148.00,1.01
9146.00,1.01
9144.00,1.01
9142.00,1.01
9140.00,1.01
9138.00,1.01
9136.00,1.01
9134.00,1.01
9132.00,1.01
9130.00,1.01
9128.00,1.01
9126.00,1.01
9124.00,1.00
9122.00,1.00
9120.00,1.00
9118.00,1.00
9116.00,1.00
9114.00,1.00
9112.00,1.00
9110.00,1.00
9108.00,1.00
9106.00,1.00
9104.00,1.00
9102.00,1.00
9100.00,1.00
9098.00,1.00
9096.00,1.00
9094.00,1.00
9092.00,1.00
9090.00,1.01
9088.00,1.01
9086.00,1.01
9084.00,1.02
9082.00,1.02
9080.00,1.02
9078.00,1.03
9076.00,1.03
9074.00,1.02
9072.00,1.02
9070.00,1.02
9068.00,1.01
9066.00,1.00
9064.00,1.00
9062.00,1.00
9060.00,1.00
9058.00,1.00
9056.00,1.00
9054.00,1.01
9052.00,1.01
9050.00,1.01
9048.00,1.02
9046.00,1.02
9044.00,1.02
9042.00,1.02
9040.00,1.02
9038.00,1.01
9036.00,1.01
9034.00,1.01
9032.00,1.01
9030.00,1.01
9028.00,1.01
9026.00,1.01
9024.00,1.01
9022.00,1.01
9020.00,1.01
9018.00,1.01
9016.00,1.01
9014.00,1.01
9012.00,1.01
9010.00,1.01
9008.00,1.01
9006.00,1.01
9004.00,1.01
9002.00,1.01
9000.00,1.01
8998.00,1.01
8996.00,1.01
8994.00,1.01
8992.00,1.01
8990.00,1.01
8988.00,1.01
8986.00,1.00
8984.00,1.00
8982.00,0.99
8980.00,0.99
8978.00,0.99
8976.00,0.99
8974.00,0.99
8972.00,1.00
8970.00,1.00
8968.00,1.01
8966.00,1.01
8964.00,1.02
8962.00,1.02
8960.00,1.02
8958.00,1.02
8956.00,1.02
8954.00,1.01
8952.00,1.01
8950.00,1.01
8948.00,1.01
8946.00,1.01
8944.00,1.01
8942.00,1.01
8940.00,1.01
8938.00,1.01
8936.00,1.01
8934.00,1.01
8932.00,1.01
8930.00,1.01
8928.00,1.01
8926.00,1.00
8924.00,1.00
8922.00,1.00
8920.00,0.99
8918.00,0.99
8916.00,0.99
8914.00,1.00
8912.00,1.00
8910.00,1.00
8908.00,1.00
8906.00,1.00
8904.00,1.00
8902.00,1.00
8900.00,0.99
8898.00,0.99
8896.00,0.99
8894.00,0.99
8892.00,1.00
8890.00,1.00
8888.00,1.00
8886.00,1.00
8884.00,1.01
8882.00,1.01
8880.00,1.01
8878.00,1.01
8876.00,1.00
8874.00,1.00
8872.00,1.00
8870.00,0.99
8868.00,0.99
8866.00,0.99
8864.00,0.99
8862.00,0.99
8860.00,0.99
8858.00,0.99
8856.00,1.00
8854.00,1.00
8852.00,1.00
8850.00,1.00
8848.00,1.00
8846.00,1.00
8844.00,1.00
8842.00,1.01
8840.00,1.01
8838.00,1.00
8836.00,1.00
8834.00,1.00
8832.00,1.00
8830.00,1.00
8828.00,1.00
8826.00,1.00
8824.00,1.00
8822.00,1.01
8820.00,1.01
8818.00,1.01
8816.00,1.01
8814.00,1.01
8812.00,1.01
8810.00,1.01
8808.00,1.01
8806.00,1.01
8804.00,1.02
8802.00,1.02
8800.00,1.02
8798.00,1.02
8796.00,1.03
8794.00,1.03
8792.00,1.03
8790.00,1.03
8788.00,1.03
8786.00,1.03
8784.00,1.02
8782.00,1.02
8780.00,1.02
8778.00,1.01
8776.00,1.01
8774.00,1.00
8772.00,1.00
8770.00,1.00
8768.00,1.00
8766.00,1.00
8764.00,1.00
8762.00,1.00
8760.00,1.00
8758.00,1.00
8756.00,1.00
8754.00,1.00
8752.00,1.00
8750.00,1.00
8748.00,1.00
8746.00,1.00
8744.00,1.00
8742.00,1.00
8740.00,1.00
8738.00,1.00
8736.00,1.00
8734.00,1.00
8732.00,1.01
8730.00,1.01
8728.00,1.01
8726.00,1.01
8724.00,1.01
8722.00,1.01
8720.00,1.01
8718.00,1.00
8716.00,1.00
8714.00,1.00
8712.00,1.01
8710.00,1.01
8708.00,1.01
8706.00,1.01
8704.00,1.01
8702.00,1.01
8700.00,1.01
8698.00,1.01
8696.00,1.01
8694.00,1.01
8692.00,1.00
8690.00,1.00
8688.00,1.00
8686.00,1.00
8684.00,1.00
8682.00,1.00
8680.00,1.00
8678.00,1.00
8676.00,1.01
8674.00,1.01
8672.00,1.01
8670.00,1.01
8668.00,1.01
8666.00,1.00
8664.00,1.00
8662.00,1.00
8660.00,0.99
8658.00,0.99
8656.00,0.99
8654.00,0.99
8652.00,0.99
8650.00,0.99
8648.00,0.99
8646.00,1.00
8644.00,1.00
8642.00,1.00
8640.00,1.00
8638.00,1.00
8636.00,1.01
8634.00,1.01
8632.00,1.01
8630.00,1.01
8628.00,1.01
8626.00,1.01
8624.00,1.01
8622.00,1.01
8620.00,1.01
8618.00,1.01
8616.00,1.01
8614.00,1.01
8612.00,1.01
8610.00,1.01
8608.00,1.01
8606.00,1.01
8604.00,1.01
8602.00,1.01
8600.00,1.01
8598.00,1.01
8596.00,1.01
8594.00,1.01
8592.00,1.01
8590.00,1.01
8588.00,1.01
8586.00,1.01
8584.00,1.01
8582.00,1.01
8580.00,1.01
8578.00,1.01
8576.00,1.01
8574.00,1.01
8572.00,1.01
8570.00,1.00
8568.00,1.00
8566.00,1.00
8564.00,0.99
8562.00,0.99
8560.00,0.99
8558.00,0.99
8556.00,0.99
8554.00,0.99
8552.00,0.99
8550.00,0.98
8548.00,0.98
8546.00,0.98
8544.00,0.98
8542.00,0.98
8540.00,0.98
8538.00,0.98
8536.00,0.98
8534.00,0.99
8532.00,0.99
8530.00,1.00
8528.00,1.00
8526.00,1.00
8524.00,1.00
8522.00,1.01
8520.00,1.01
8518.00,1.01
8516.00,1.00
8514.00,1.00
8512.00,1.00
8510.00,1.00
8508.00,1.00
8506.00,1.01
8504.00,1.00
8502.00,1.00
8500.00,1.00
8498.00,1.00
8496.00,0.99
8494.00,0.99
8492.00,0.99
8490.00,0.98
8488.00,0.98
8486.00,0.98
8484.00,0.99
8482.00,0.99
8480.00,0.99
8478.00,0.99
8476.00,0.99
8474.00,0.98
8472.00,0.98
8470.00,0.98
8468.00,0.98
8466.00,0.99
8464.00,0.99
8462.00,0.99
8460.00,0.99
8458.00,0.99
8456.00,0.99
8454.00,0.99
8452.00,0.99
8450.00,0.99
8448.00,0.99
8446.00,0.99
8444.00,0.99
8442.00,0.99
8440.00,0.99
8438.00,1.00
8436.00,1.00
8434.00,0.99
8432.00,0.99
8430.00,0.99
8428.00,0.99
8426.00,0.99
8424.00,0.99
8422.00,0.99
8420.00,0.99
8418.00,0.99
8416.00,0.99
8414.00,1.00
8412.00,1.00
8410.00,1.00
8408.00,1.00
8406.00,1.00
8404.00,1.00
8402.00,1.00
8400.00,1.00
8398.00,1.00
8396.00,1.00
8394.00,1.00
8392.00,1.00
8390.00,1.00
8388.00,1.00
8386.00,1.00
8384.00,1.00
8382.00,1.00
8380.00,1.00
8378.00,1.00
8376.00,1.00
8374.00,1.00
8372.00,1.00
8370.00,1.00
8368.00,1.00
8366.00,0.99
8364.00,0.99
8362.00,0.99
8360.00,0.99
8358.00,0.99
8356.00,0.99
8354.00,0.99
8352.00,0.98
8350.00,0.98
8348.00,0.98
8346.00,0.98
8344.00,0.98
8342.00,0.98
8340.00,0.98
8338.00,0.98
8336.00,0.99
8334.00,0.99
8332.00,0.99
8330.00,0.99
8328.00,0.99
8326.00,0.99
8324.00,0.99
8322.00,0.99
8320.00,0.99
8318.00,0.99
8316.00,0.99
8314.00,0.99
8312.00,0.99
8310.00,0.99
8308.00,0.99
8306.00,0.99
8304.00,0.99
8302.00,0.99
8300.00,0.99
8298.00,0.99
8296.00,0.99
8294.00,0.99
8292.00,0.99
8290.00,1.00
8288.00,1.00
8286.00,1.00
8284.00,1.00
8282.00,1.00
8280.00,1.00
8278.00,1.01
8276.00,1.01
8274.00,1.01
8272.00,1.00
8270.00,1.00
8268.00,1.00
8266.00,0.99
8264.00,0.99
8262.00,0.98
8260.00,0.98
8258.00,0.98
8256.00,0.98
8254.00,0.98
8252.00,0.98
8250.00,0.99
8248.00,0.99
8246.00,0.99
8244.00,0.99
8242.00,1.00
8240.00,1.00
8238.00,1.00
8236.00,1.00
8234.00,1.00
8232.00,1.00
8230.00,1.00
8228.00,1.00
8226.00,1.00
8224.00,1.00
8222.00,1.01
8220.00,1.01
8218.00,1.01
8216.00,1.01
8214.00,1.01
8212.00,1.00
8210.00,1.00
8208.00,1.00
8206.00,1.00
8204.00,0.99
8202.00,0.99
8200.00,0.99
8198.00,0.99
8196.00,0.99
8194.00,1.00
8192.00,1.00
8190.00,1.00
8188.00,1.00
8186.00,1.00
8184.00,1.00
8182.00,1.00
8180.00,1.00
8178.00,1.01
8176.00,1.01
8174.00,1.01
8172.00,1.01
8170.00,1.01
8168.00,1.01
8166.00,1.01
8164.00,1.01
8162.00,1.01
8160.00,1.01
8158.00,1.01
8156.00,1.01
8154.00,1.01
8152.00,1.01
8150.00,1.01
8148.00,1.01
8146.00,1.01
8144.00,1.01
8142.00,1.01
8140.00,1.01
8138.00,1.01
8136.00,1.01
8134.00,1.01
8132.00,1.01
8130.00,1.01
8128.00,1.01
8126.00,1.00
8124.00,1.00
8122.00,1.00
8120.00,1.00
8118.00,1.00
8116.00,1.00
8114.00,1.00
8112.00,1.00
8110.00,1.00
8108.00,1.00
8106.00,1.00
8104.00,1.00
8102.00,1.00
8100.00,1.00
8098.00,1.00
8096.00,1.00
8094.00,1.00
8092.00,1.00
8090.00,1.00
8088.00,1.01
8086.00,1.01
8084.00,1.01
8082.00,1.01
8080.00,1.01
8078.00,1.01
8076.00,1.01
8074.00,1.01
8072.00,1.01
8070.00,1.01
8068.00,1.01
8066.00,1.01
8064.00,1.01
8062.00,1.01
8060.00,1.01
8058.00,1.01
8056.00,1.01
8054.00,1.01
8052.00,1.01
8050.00,1.01
8048.00,1.01
8046.00,1.01
8044.00,1.00
8042.00,1.00
8040.00,1.00
8038.00,1.00
8036.00,0.99
8034.00,0.99
8032.00,0.99
8030.00,0.99
8028.00,0.99
8026.00,0.99
8024.00,0.99
8022.00,1.00
8020.00,1.00
8018.00,1.01
8016.00,1.01
8014.00,1.01
8012.00,1.01
8010.00,1.02
8008.00,1.01
8006.00,1.01
8004.00,1.01
8002.00,1.01
8000.00,1.01
7998.00,1.01
7996.00,1.01
7994.00,1.01
7992.00,1.00
7990.00,1.00
7988.00,1.00
7986.00,1.00
7984.00,1.00
7982.00,1.00
7980.00,1.00
7978.00,1.00
7976.00,1.01
7974.00,1.01
7972.00,1.01
7970.00,1.01
7968.00,1.01
7966.00,1.01
7964.00,1.01
7962.00,1.01
7960.00,1.01
7958.00,1.01
7956.00,1.01
7954.00,1.01
7952.00,1.01
7950.00,1.01
7948.00,1.01
7946.00,1.01
7944.00,1.01
7942.00,1.01
7940.00,1.01
7938.00,1.01
7936.00,1.01
7934.00,1.02
7932.00,1.02
7930.00,1.02
7928.00,1.02
7926.00,1.02
7924.00,1.02
7922.00,1.02
7920.00,1.01
7918.00,1.01
7916.00,1.01
7914.00,1.00
7912.00,1.00
7910.00,1.00
7908.00,1.01
7906.00,1.01
7904.00,1.01
7902.00,1.02
7900.00,1.02
7898.00,1.02
7896.00,1.02
7894.00,1.02
7892.00,1.02
7890.00,1.01
7888.00,1.01
7886.00,1.01
7884.00,1.01
7882.00,1.01
7880.00,1.01
7878.00,1.01
7876.00,1.02
7874.00,1.02
7872.00,1.02
7870.00,1.02
7868.00,1.02
7866.00,1.02
7864.00,1.02
7862.00,1.02
7860.00,1.02
7858.00,1.02
7856.00,1.02
7854.00,1.01
7852.00,1.01
7850.00,1.01
7848.00,1.01
7846.00,1.02
7844.00,1.02
7842.00,1.02
7840.00,1.02
7838.00,1.02
7836.00,1.02
7834.00,1.02
7832.00,1.02
7830.00,1.02
7828.00,1.02
7826.00,1.02
7824.00,1.02
7822.00,1.02
7820.00,1.02
7818.00,1.02
7816.00,1.02
7814.00,1.02
7812.00,1.02
7810.00,1.02
7808.00,1.02
7806.00,1.02
7804.00,1.03
7802.00,1.03
7800.00,1.03
7798.00,1.03
7796.00,1.03
7794.00,1.02
7792.00,1.02
7790.00,1.02
7788.00,1.02
7786.00,1.01
7784.00,1.01
7782.00,1.01
7780.00,1.01
7778.00,1.02
7776.00,1.02
7774.00,1.02
7772.00,1.02
7770.00,1.02
7768.00,1.03
7766.00,1.03
7764.00,1.03
7762.00,1.03
7760.00,1.03
7758.00,1.03
7756.00,1.03
7754.00,1.03
7752.00,1.03
7750.00,1.03
7748.00,1.03
7746.00,1.02
7744.00,1.02
7742.00,1.02
7740.00,1.02
7738.00,1.02
7736.00,1.02
7734.00,1.01
7732.00,1.01
7730.00,1.01
7728.00,1.01
7726.00,1.01
7724.00,1.01
7722.00,1.02
7720.00,1.02
7718.00,1.02
7716.00,1.02
7714.00,1.02
7712.00,1.02
7710.00,1.02
7708.00,1.02
7706.00,1.02
7704.00,1.02
7702.00,1.02
7700.00,1.02
7698.00,1.02
7696.00,1.02
7694.00,1.02
7692.00,1.02
7690.00,1.02
7688.00,1.02
7686.00,1.02
7684.00,1.02
7682.00,1.02
7680.00,1.02
7678.00,1.02
7676.00,1.02
7674.00,1.02
7672.00,1.02
7670.00,1.02
7668.00,1.02
7666.00,1.02
7664.00,1.02
7662.00,1.02
7660.00,1.01
7658.00,1.01
7656.00,1.01
7654.00,1.01
7652.00,1.01
7650.00,1.02
7648.00,1.02
7646.00,1.02
7644.00,1.02
7642.00,1.02
7640.00,1.02
7638.00,1.02
7636.00,1.02
7634.00,1.02
7632.00,1.02
7630.00,1.02
7628.00,1.03
7626.00,1.03
7624.00,1.03
7622.00,1.03
7620.00,1.03
7618.00,1.03
7616.00,1.03
7614.00,1.03
7612.00,1.03
7610.00,1.03
7608.00,1.03
7606.00,1.02
7604.00,1.02
7602.00,1.02
7600.00,1.02
7598.00,1.02
7596.00,1.02
7594.00,1.01
7592.00,1.01
7590.00,1.01
7588.00,1.01
7586.00,1.01
7584.00,1.01
7582.00,1.01
7580.00,1.01
7578.00,1.02
7576.00,1.02
7574.00,1.02
7572.00,1.02
7570.00,1.02
7568.00,1.02
7566.00,1.02
7564.00,1.02
7562.00,1.02
7560.00,1.02
7558.00,1.02
7556.00,1.03
7554.00,1.03
7552.00,1.03
7550.00,1.02
7548.00,1.02
7546.00,1.02
7544.00,1.02
7542.00,1.02
7540.00,1.02
7538.00,1.02
7536.00,1.02
7534.00,1.02
7532.00,1.02
7530.00,1.02
7528.00,1.02
7526.00,1.02
7524.00,1.02
7522.00,1.01
7520.00,1.01
7518.00,1.01
7516.00,1.01
7514.00,1.01
7512.00,1.02
7510.00,1.02
7508.00,1.02
7506.00,1.02
7504.00,1.02
7502.00,1.02
7500.00,1.02
7498.00,1.02
7496.00,1.02
7494.00,1.01
7492.00,1.01
7490.00,1.01
7488.00,1.01
7486.00,1.00
7484.00,1.00
7482.00,1.00
7480.00,1.00
7478.00,1.00
7476.00,1.00
7474.00,1.00
7472.00,1.01
7470.00,1.01
7468.00,1.01
7466.00,1.02
7464.00,1.02
7462.00,1.02
7460.00,1.02
7458.00,1.02
7456.00,1.02
7454.00,1.02
7452.00,1.02
7450.00,1.02
7448.00,1.02
7446.00,1.02
7444.00,1.02
7442.00,1.02
7440.00,1.02
7438.00,1.02
7436.00,1.02
7434.00,1.02
7432.00,1.02
7430.00,1.02
7428.00,1.02
7426.00,1.01
7424.00,1.01
7422.00,1.01
7420.00,1.01
7418.00,1.01
7416.00,1.01
7414.00,1.01
7412.00,1.01
7410.00,1.01
7408.00,1.01
7406.00,1.01
7404.00,1.01
7402.00,1.01
7400.00,1.01
7398.00,1.01
7396.00,1.01
7394.00,1.01
7392.00,1.01
7390.00,1.01
7388.00,1.01
7386.00,1.01
7384.00,1.01
7382.00,1.01
7380.00,1.01
7378.00,1.01
7376.00,1.01
7374.00,1.01
7372.00,1.01
7370.00,1.01
7368.00,1.01
7366.00,1.01
7364.00,1.01
7362.00,1.01
7360.00,1.01
7358.00,1.01
7356.00,1.00
7354.00,1.00
7352.00,1.00
7350.00,1.00
7348.00,1.01
7346.00,1.01
7344.00,1.01
7342.00,1.01
7340.00,1.01
7338.00,1.01
7336.00,1.01
7334.00,1.01
7332.00,1.01
7330.00,1.01
7328.00,1.01
7326.00,1.01
7324.00,1.00
7322.00,1.01
7320.00,1.01
7318.00,1.01
7316.00,1.01
7314.00,1.01
7312.00,1.01
7310.00,1.01
7308.00,1.01
7306.00,1.01
7304.00,1.01
7302.00,1.00
7300.00,1.00
7298.00,1.00
7296.00,1.00
7294.00,1.00
7292.00,1.00
7290.00,1.00
7288.00,1.00
7286.00,1.00
7284.00,1.00
7282.00,1.00
7280.00,1.00
7278.00,1.01
7276.00,1.01
7274.00,1.01
7272.00,1.01
7270.00,1.01
7268.00,1.01
7266.00,1.00
7264.00,1.00
7262.00,1.00
7260.00,1.00
7258.00,1.00
7256.00,1.00
7254.00,1.00
7252.00,1.00
7250.00,1.00
7248.00,1.00
7246.00,1.00
7244.00,1.00
7242.00,1.00
7240.00,1.00
7238.00,1.00
7236.00,0.99
7234.00,0.99
7232.00,0.99
7230.00,0.99
7228.00,0.99
7226.00,0.99
7224.00,0.98
7222.00,0.98
7220.00,0.98
7218.00,0.98
7216.00,0.98
7214.00,0.98
7212.00,0.98
7210.00,0.97
7208.00,0.97
7206.00,0.97
7204.00,0.97
7202.00,0.97
7200.00,0.97
7198.00,0.97
7196.00,0.97
7194.00,0.97
7192.00,0.96
7190.00,0.96
7188.00,0.96
7186.00,0.96
7184.00,0.96
7182.00,0.96
7180.00,0.96
7178.00,0.96
7176.00,0.96
7174.00,0.96
7172.00,0.96
7170.00,0.95
7168.00,0.95
7166.00,0.95
7164.00,0.95
7162.00,0.95
7160.00,0.95
7158.00,0.95
7156.00,0.95
7154.00,0.94
7152.00,0.94
7150.00,0.94
7148.00,0.94
7146.00,0.94
7144.00,0.94
7142.00,0.93
7140.00,0.93
7138.00,0.93
7136.00,0.93
7134.00,0.93
7132.00,0.93
7130.00,0.93
7128.00,0.93
7126.00,0.93
7124.00,0.93
7122.00,0.93
7120.00,0.93
7118.00,0.93
7116.00,0.92
7114.00,0.92
7112.00,0.92
7110.00,0.92
7108.00,0.92
7106.00,0.92
7104.00,0.92
7102.00,0.92
7100.00,0.91
7098.00,0.91
7096.00,0.91
7094.00,0.91
7092.00,0.91
7090.00,0.91
7088.00,0.91
7086.00,0.91
7084.00,0.91
7082.00,0.91
7080.00,0.91
7078.00,0.91
7076.00,0.90
7074.00,0.90
7072.00,0.90
7070.00,0.90
7068.00,0.90
7066.00,0.90
7064.00,0.90
7062.00,0.90
7060.00,0.90
7058.00,0.90
7056.00,0.90
7054.00,0.90
7052.00,0.90
7050.00,0.90
7048.00,0.90
7046.00,0.90
7044.00,0.90
7042.00,0.90
7040.00,0.90
7038.00,0.90
7036.00,0.89
7034.00,0.89
7032.00,0.89
7030.00,0.89
7028.00,0.88
7026.00,0.88
7024.00,0.88
7022.00,0.88
7020.00,0.88
7018.00,0.89
7016.00,0.89
7014.00,0.89
7012.00,0.89
7010.00,0.89
7008.00,0.88
7006.00,0.88
7004.00,0.88
7002.00,0.88
7000.00,0.88
6998.00,0.88
6996.00,0.88
6994.00,0.87
6992.00,0.87
6990.00,0.87
6988.00,0.87
6986.00,0.87
6984.00,0.87
6982.00,0.87
6980.00,0.87
6978.00,0.87
6976.00,0.87
6974.00,0.87
6972.00,0.87
6970.00,0.87
6968.00,0.87
6966.00,0.87
6964.00,0.87
6962.00,0.87
6960.00,0.87
6958.00,0.87
6956.00,0.87
6954.00,0.87
6952.00,0.87
6950.00,0.87
6948.00,0.86
6946.00,0.86
6944.00,0.86
6942.00,0.86
6940.00,0.86
6938.00,0.87
6936.00,0.87
6934.00,0.87
6932.00,0.87
6930.00,0.87
6928.00,0.87
6926.00,0.87
6924.00,0.86
6922.00,0.86
6920.00,0.86
6918.00,0.86
6916.00,0.86
6914.00,0.86
6912.00,0.86
6910.00,0.87
6908.00,0.87
6906.00,0.87
6904.00,0.87
6902.00,0.87
6900.00,0.87
6898.00,0.87
6896.00,0.86
6894.00,0.86
6892.00,0.86
6890.00,0.86
6888.00,0.86
6886.00,0.86
6884.00,0.86
6882.00,0.86
6880.00,0.86
6878.00,0.86
6876.00,0.86
6874.00,0.86
6872.00,0.86
6870.00,0.86
6868.00,0.86
6866.00,0.86
6864.00,0.86
6862.00,0.86
6860.00,0.87
6858.00,0.87
6856.00,0.87
6854.00,0.87
6852.00,0.86
6850.00,0.86
6848.00,0.86
6846.00,0.86
6844.00,0.86
6842.00,0.86
6840.00,0.86
6838.00,0.86
6836.00,0.86
6834.00,0.86
6832.00,0.86
6830.00,0.86
6828.00,0.86
6826.00,0.86
6824.00,0.86
6822.00,0.86
6820.00,0.86
6818.00,0.86
6816.00,0.86
6814.00,0.86
6812.00,0.86
6810.00,0.86
6808.00,0.86
6806.00,0.87
6804.00,0.87
6802.00,0.87
6800.00,0.87
6798.00,0.87
6796.00,0.87
6794.00,0.87
6792.00,0.87
6790.00,0.87
6788.00,0.87
6786.00,0.87
6784.00,0.87
6782.00,0.87
6780.00,0.87
6778.00,0.87
6776.00,0.87
6774.00,0.88
6772.00,0.88
6770.00,0.88
6768.00,0.88
6766.00,0.88
6764.00,0.87
6762.00,0.87
6760.00,0.87
6758.00,0.87
6756.00,0.87
6754.00,0.87
6752.00,0.87
6750.00,0.87
6748.00,0.88
6746.00,0.88
6744.00,0.88
6742.00,0.88
6740.00,0.88
6738.00,0.88
6736.00,0.88
6734.00,0.88
6732.00,0.88
6730.00,0.88
6728.00,0.88
6726.00,0.88
6724.00,0.88
6722.00,0.88
6720.00,0.88
6718.00,0.88
6716.00,0.88
6714.00,0.88
6712.00,0.89
6710.00,0.89
6708.00,0.89
6706.00,0.89
6704.00,0.89
6702.00,0.89
6700.00,0.89
6698.00,0.89
6696.00,0.89
6694.00,0.90
6692.00,0.90
6690.00,0.90
6688.00,0.90
6686.00,0.90
6684.00,0.90
6682.00,0.90
6680.00,0.90
6678.00,0.90
6676.00,0.90
6674.00,0.90
6672.00,0.90
6670.00,0.90
6668.00,0.90
6666.00,0.90
6664.00,0.90
6662.00,0.90
6660.00,0.90
6658.00,0.90
6656.00,0.90
6654.00,0.90
6652.00,0.90
6650.00,0.90
6648.00,0.90
6646.00,0.90
6644.00,0.90
6642.00,0.90
6640.00,0.91
6638.00,0.91
6636.00,0.91
6634.00,0.91
6632.00,0.91
6630.00,0.91
6628.00,0.91
6626.00,0.91
6624.00,0.91
6622.00,0.91
6620.00,0.91
6618.00,0.91
6616.00,0.91
6614.00,0.91
6612.00,0.91
6610.00,0.91
6608.00,0.91
6606.00,0.91
6604.00,0.91
6602.00,0.91
6600.00,0.92
6598.00,0.92
6596.00,0.92
6594.00,0.92
6592.00,0.92
6590.00,0.93
6588.00,0.93
6586.00,0.93
6584.00,0.93
6582.00,0.93
6580.00,0.93
6578.00,0.93
6576.00,0.93
6574.00,0.93
6572.00,0.93
6570.00,0.93
6568.00,0.93
6566.00,0.93
6564.00,0.93
6562.00,0.93
6560.00,0.93
6558.00,0.93
6556.00,0.93
6554.00,0.93
6552.00,0.93
6550.00,0.93
6548.00,0.93
6546.00,0.93
6544.00,0.93
6542.00,0.93
6540.00,0.93
6538.00,0.94
6536.00,0.94
6534.00,0.94
6532.00,0.94
6530.00,0.94
6528.00,0.94
6526.00,0.94
6524.00,0.94
6522.00,0.94
6520.00,0.94
6518.00,0.94
6516.00,0.94
6514.00,0.95
6512.00,0.95
6510.00,0.95
6508.00,0.95
6506.00,0.95
6504.00,0.95
6502.00,0.95
6500.00,0.95
6498.00,0.95
6496.00,0.95
6494.00,0.94
6492.00,0.94
6490.00,0.94
6488.00,0.94
6486.00,0.94
6484.00,0.94
6482.00,0.94
6480.00,0.95
6478.00,0.95
6476.00,0.95
6474.00,0.95
6472.00,0.95
6470.00,0.95
6468.00,0.95
6466.00,0.95
6464.00,0.95
6462.00,0.95
6460.00,0.95
6458.00,0.95
6456.00,0.95
6454.00,0.95
6452.00,0.95
6450.00,0.95
6448.00,0.95
6446.00,0.95
6444.00,0.95
6442.00,0.95
6440.00,0.95
6438.00,0.95
6436.00,0.95
6434.00,0.96
6432.00,0.96
6430.00,0.96
6428.00,0.95
6426.00,0.95
6424.00,0.95
6422.00,0.95
6420.00,0.95
6418.00,0.95
6416.00,0.95
6414.00,0.95
6412.00,0.95
6410.00,0.95
6408.00,0.95
6406.00,0.95
6404.00,0.96
6402.00,0.96
6400.00,0.96
6398.00,0.96
6396.00,0.96
6394.00,0.96
6392.00,0.95
6390.00,0.95
6388.00,0.95
6386.00,0.95
6384.00,0.95
6382.00,0.95
6380.00,0.95
6378.00,0.95
6376.00,0.95
6374.00,0.95
6372.00,0.95
6370.00,0.96
6368.00,0.96
6366.00,0.96
6364.00,0.96
6362.00,0.96
6360.00,0.96
6358.00,0.96
6356.00,0.96
6354.00,0.96
6352.00,0.96
6350.00,0.96
6348.00,0.96
6346.00,0.96
6344.00,0.96
6342.00,0.96
6340.00,0.96
6338.00,0.96
6336.00,0.97
6334.00,0.97
6332.00,0.96
6330.00,0.96
6328.00,0.96
6326.00,0.97
6324.00,0.97
6322.00,0.97
6320.00,0.97
6318.00,0.97
6316.00,0.97
6314.00,0.97
6312.00,0.97
6310.00,0.97
6308.00,0.97
6306.00,0.97
6304.00,0.97
6302.00,0.97
6300.00,0.97
6298.00,0.97
6296.00,0.97
6294.00,0.97
6292.00,0.98
6290.00,0.98
6288.00,0.98
6286.00,0.98
6284.00,0.98
6282.00,0.98
6280.00,0.98
6278.00,0.98
6276.00,0.98
6274.00,0.98
6272.00,0.98
6270.00,0.98
6268.00,0.98
6266.00,0.98
6264.00,0.98
6262.00,0.98
6260.00,0.98
6258.00,0.98
6256.00,0.98
6254.00,0.98
6252.00,0.99
6250.00,0.99
6248.00,0.99
6246.00,0.99
6244.00,0.99
6242.00,0.99
6240.00,0.99
6238.00,0.99
6236.00,0.99
6234.00,0.99
6232.00,0.99
6230.00,0.99
6228.00,0.99
6226.00,0.99
6224.00,0.99
6222.00,0.99
6220.00,0.99
6218.00,0.99
6216.00,0.99
6214.00,0.99
6212.00,0.98
6210.00,0.98
6208.00,0.99
6206.00,0.99
6204.00,0.99
6202.00,0.99
6200.00,0.99
6198.00,0.99
6196.00,0.99
6194.00,0.99
6192.00,0.99
6190.00,0.99
6188.00,0.99
6186.00,0.99
6184.00,0.99
6182.00,0.99
6180.00,0.99
6178.00,0.99
6176.00,0.99
6174.00,0.99
6172.00,1.00
6170.00,1.00
6168.00,1.00
6166.00,1.00
6164.00,1.00
6162.00,1.00
6160.00,1.00
6158.00,1.00
6156.00,1.00
6154.00,1.00
6152.00,1.00
6150.00,1.00
6148.00,1.00
6146.00,1.01
6144.00,1.01
6142.00,1.01
6140.00,1.01
6138.00,1.01
6136.00,1.01
6134.00,1.01
6132.00,1.01
6130.00,1.01
6128.00,1.01
6126.00,1.01
6124.00,1.01
6122.00,1.01
6120.00,1.01
6118.00,1.01
6116.00,1.01
6114.00,1.01
6112.00,1.01
6110.00,1.01
6108.00,1.01
6106.00,1.01
6104.00,1.01
6102.00,1.01
6100.00,1.01
6098.00,1.01
6096.00,1.01
6094.00,1.01
6092.00,1.01
6090.00,1.01
6088.00,1.01
6086.00,1.01
6084.00,1.02
6082.00,1.02
6080.00,1.02
6078.00,1.02
6076.00,1.02
6074.00,1.02
6072.00,1.02
6070.00,1.02
6068.00,1.02
6066.00,1.02
6064.00,1.02
6062.00,1.02
6060.00,1.02
6058.00,1.02
6056.00,1.02
6054.00,1.02
6052.00,1.02
6050.00,1.02
6048.00,1.02
6046.00,1.02
6044.00,1.02
6042.00,1.02
6040.00,1.02
6038.00,1.02
6036.00,1.02
6034.00,1.02
6032.00,1.02
6030.00,1.02
6028.00,1.02
6026.00,1.02
6024.00,1.02
6022.00,1.02
6020.00,1.02
6018.00,1.02
6016.00,1.02
6014.00,1.02
6012.00,1.02
6010.00,1.02
6008.00,1.02
6006.00,1.02
6004.00,1.02
6002.00,1.02
6000.00,1.02
5998.00,1.02
5996.00,1.02
5994.00,1.02
5992.00,1.02
5990.00,1.02
5988.00,1.02
5986.00,1.02
5984.00,1.02
5982.00,1.02
5980.00,1.02
5978.00,1.02
5976.00,1.02
5974.00,1.02
5972.00,1.01
5970.00,1.01
5968.00,1.01
5966.00,1.01
5964.00,1.00
5962.00,1.00
5960.00,1.00
5958.00,1.00
5956.00,0.99
5954.00,0.99
5952.00,0.99
5950.00,0.99
5948.00,0.99
5946.00,0.99
5944.00,0.99
5942.00,0.98
5940.00,0.98
5938.00,0.98
5936.00,0.98
5934.00,0.98
5932.00,0.98
5930.00,0.98
5928.00,0.98
5926.00,0.98
5924.00,0.98
5922.00,0.98
5920.00,0.98
5918.00,0.98
5916.00,0.98
5914.00,0.98
5912.00,0.97
5910.00,0.97
5908.00,0.97
5906.00,0.97
5904.00,0.97
5902.00,0.97
5900.00,0.97
5898.00,0.97
5896.00,0.97
5894.00,0.97
5892.00,0.98
5890.00,0.98
5888.00,0.98
5886.00,0.98
5884.00,0.98
5882.00,0.98
5880.00,0.98
5878.00,0.98
5876.00,0.98
5874.00,0.99
5872.00,0.99
5870.00,0.99
5868.00,0.99
5866.00,0.99
5864.00,0.99
5862.00,0.99
5860.00,0.99
5858.00,0.99
5856.00,0.99
5854.00,0.99
5852.00,0.99
5850.00,0.99
5848.00,0.99
5846.00,0.99
5844.00,0.99
5842.00,0.99
5840.00,0.99
5838.00,0.99
5836.00,0.99
5834.00,0.99
5832.00,0.99
5830.00,0.99
5828.00,0.99
5826.00,0.99
5824.00,0.99
5822.00,0.99
5820.00,0.99
5818.00,0.99
5816.00,0.99
5814.00,0.99
5812.00,0.99
5810.00,0.99
5808.00,0.99
5806.00,0.99
5804.00,0.99
5802.00,0.99
5800.00,0.99
5798.00,0.99
5796.00,0.99
5794.00,0.99
5792.00,0.99
5790.00,0.99
5788.00,0.98
5786.00,0.98
5784.00,0.98
5782.00,0.98
5780.00,0.98
5778.00,0.98
5776.00,0.98
5774.00,0.98
5772.00,0.98
5770.00,0.98
5768.00,0.98
5766.00,0.98
5764.00,0.98
5762.00,0.98
5760.00,0.98
5758.00,0.98
5756.00,0.99
5754.00,0.99
5752.00,0.99
5750.00,0.99
5748.00,0.99
5746.00,0.99
5744.00,0.99
5742.00,0.99
5740.00,0.99
5738.00,0.99
5736.00,0.99
5734.00,0.99
5732.00,1.00
5730.00,1.00
5728.00,1.00
5726.00,1.00
5724.00,1.00
5722.00,1.00
5720.00,1.00
5718.00,1.00
5716.00,1.00
5714.00,1.00
5712.00,1.00
5710.00,1.00
5708.00,1.00
5706.00,1.00
5704.00,1.00
5702.00,1.00
5700.00,1.00
5698.00,1.00
5696.00,0.99
5694.00,0.99
5692.00,0.99
5690.00,0.99
5688.00,0.99
5686.00,0.99
5684.00,0.99
5682.00,0.99
5680.00,0.99
5678.00,0.99
5676.00,0.99
5674.00,0.99
5672.00,0.99
5670.00,0.99
5668.00,0.99
5666.00,0.99
5664.00,0.99
5662.00,1.00
5660.00,1.00
5658.00,1.00
5656.00,1.00
5654.00,1.00
5652.00,1.00
5650.00,1.00
5648.00,1.00
5646.00,1.00
5644.00,1.00
5642.00,1.00
5640.00,1.00
5638.00,1.00
5636.00,1.00
5634.00,1.00
5632.00,1.00
5630.00,1.00
5628.00,1.00
5626.00,1.00
5624.00,1.00
5622.00,1.00
5620.00,1.00
5618.00,1.00
5616.00,1.00
5614.00,1.01
5612.00,1.01
5610.00,1.01
5608.00,1.01
5606.00,1.01
5604.00,1.01
5602.00,1.01
5600.00,1.01
5598.00,1.01
5596.00,1.01
5594.00,1.01
5592.00,1.01
5590.00,1.01
5588.00,1.01
5586.00,1.01
5584.00,1.01
5582.00,1.01
5580.00,1.01
5578.00,1.01
5576.00,1.01
5574.00,1.01
5572.00,1.01
5570.00,1.01
5568.00,1.01
5566.00,1.01
5564.00,1.01
5562.00,1.01
5560.00,1.01
5558.00,1.02
5556.00,1.02
5554.00,1.02
5552.00,1.02
5550.00,1.02
5548.00,1.02
5546.00,1.02
5544.00,1.02
5542.00,1.02
5540.00,1.02
5538.00,1.02
5536.00,1.02
5534.00,1.02
5532.00,1.02
5530.00,1.02
5528.00,1.02
5526.00,1.02
5524.00,1.02
5522.00,1.02
5520.00,1.02
5518.00,1.02
5516.00,1.02
5514.00,1.02
5512.00,1.02
5510.00,1.02
5508.00,1.02
5506.00,1.02
5504.00,1.02
5502.00,1.02
5500.00,1.02
5498.00,1.02
5496.00,1.02
5494.00,1.02
5492.00,1.02
5490.00,1.02
5488.00,1.02
5486.00,1.02
5484.00,1.02
5482.00,1.02
5480.00,1.02
5478.00,1.02
5476.00,1.02
5474.00,1.02
5472.00,1.02
5470.00,1.02
5468.00,1.02
5466.00,1.02
5464.00,1.02
5462.00,1.02
5460.00,1.02
5458.00,1.03
5456.00,1.03
5454.00,1.03
5452.00,1.03
5450.00,1.03
5448.00,1.03
5446.00,1.03
5444.00,1.03
5442.00,1.03
5440.00,1.03
5438.00,1.03
5436.00,1.03
5434.00,1.03
5432.00,1.03
5430.00,1.03
5428.00,1.03
5426.00,1.03
5424.00,1.03
5422.00,1.03
5420.00,1.03
5418.00,1.03
5416.00,1.03
5414.00,1.03
5412.00,1.03
5410.00,1.03
5408.00,1.03
5406.00,1.03
5404.00,1.03
5402.00,1.03
5400.00,1.03
5398.00,1.03
5396.00,1.03
5394.00,1.03
5392.00,1.03
5390.00,1.03
5388.00,1.03
5386.00,1.03
5384.00,1.02
5382.00,1.02
5380.00,1.02
5378.00,1.02
5376.00,1.02
5374.00,1.02
5372.00,1.02
5370.00,1.02
5368.00,1.02
5366.00,1.02
5364.00,1.02
5362.00,1.01
5360.00,1.01
5358.00,1.01
5356.00,1.01
5354.00,1.01
5352.00,1.00
5350.00,1.00
5348.00,1.00
5346.00,0.99
5344.00,0.99
5342.00,0.99
5340.00,0.98
5338.00,0.98
5336.00,0.98
5334.00,0.97
5332.00,0.97
5330.00,0.96
5328.00,0.96
5326.00,0.95
5324.00,0.95
5322.00,0.94
5320.00,0.94
5318.00,0.93
5316.00,0.92
5314.00,0.92
5312.00,0.91
5310.00,0.90
5308.00,0.90
5306.00,0.89
5304.00,0.88
5302.00,0.88
5300.00,0.87
5298.00,0.86
5296.00,0.86
5294.00,0.85
5292.00,0.84
5290.00,0.84
5288.00,0.83
5286.00,0.83
5284.00,0.82
5282.00,0.82
5280.00,0.81
5278.00,0.81
5276.00,0.81
5274.00,0.80
5272.00,0.80
5270.00,0.79
5268.00,0.79
5266.00,0.78
5264.00,0.78
5262.00,0.77
5260.00,0.77
5258.00,0.76
5256.00,0.76
5254.00,0.76
5252.00,0.75
5250.00,0.75
5248.00,0.74
5246.00,0.74
5244.00,0.74
5242.00,0.73
5240.00,0.73
5238.00,0.73
5236.00,0.73
5234.00,0.72
5232.00,0.72
5230.00,0.72
5228.00,0.72
5226.00,0.71
5224.00,0.71
5222.00,0.71
5220.00,0.70
5218.00,0.70
5216.00,0.70
5214.00,0.70
5212.00,0.69
5210.00,0.69
5208.00,0.69
5206.00,0.69
5204.00,0.69
5202.00,0.69
5200.00,0.68
5198.00,0.68
5196.00,0.68
5194.00,0.68
5192.00,0.68
5190.00,0.68
5188.00,0.68
5186.00,0.68
5184.00,0.68
5182.00,0.68
5180.00,0.67
5178.00,0.67
5176.00,0.67
5174.00,0.67
5172.00,0.67
5170.00,0.67
5168.00,0.67
5166.00,0.67
5164.00,0.67
5162.00,0.67
5160.00,0.68
5158.00,0.68
5156.00,0.68
5154.00,0.68
5152.00,0.68
5150.00,0.68
5148.00,0.68
5146.00,0.68
5144.00,0.68
5142.00,0.69
5140.00,0.69
5138.00,0.69
5136.00,0.69
5134.00,0.69
5132.00,0.69
5130.00,0.69
5128.00,0.70
5126.00,0.70
5124.00,0.70
5122.00,0.70
5120.00,0.70
5118.00,0.70
5116.00,0.71
5114.00,0.71
5112.00,0.71
5110.00,0.71
5108.00,0.72
5106.00,0.72
5104.00,0.72
5102.00,0.72
5100.00,0.72
5098.00,0.73
5096.00,0.73
5094.00,0.73
5092.00,0.73
5090.00,0.74
5088.00,0.74
5086.00,0.74
5084.00,0.74
5082.00,0.74
5080.00,0.75
5078.00,0.75
5076.00,0.75
5074.00,0.75
5072.00,0.75
5070.00,0.75
5068.00,0.75
5066.00,0.76
5064.00,0.76
5062.00,0.76
5060.00,0.76
5058.00,0.77
5056.00,0.77
5054.00,0.77
5052.00,0.78
5050.00,0.78
5048.00,0.78
5046.00,0.78
5044.00,0.79
5042.00,0.79
5040.00,0.79
5038.00,0.79
5036.00,0.79
5034.00,0.80
5032.00,0.80
5030.00,0.80
5028.00,0.80
5026.00,0.80
5024.00,0.81
5022.00,0.81
5020.00,0.81
5018.00,0.81
5016.00,0.82
5014.00,0.82
5012.00,0.82
5010.00,0.82
5008.00,0.82
5006.00,0.82
5004.00,0.83
5002.00,0.83
5000.00,0.83
4998.00,0.83
4996.00,0.83
4994.00,0.84
4992.00,0.84
4990.00,0.84
4988.00,0.84
4986.00,0.84
4984.00,0.85
4982.00,0.85
4980.00,0.85
4978.00,0.85
4976.00,0.85
4974.00,0.85
4972.00,0.85
4970.00,0.86
4968.00,0.86
4966.00,0.86
4964.00,0.86
4962.00,0.86
4960.00,0.87
4958.00,0.87
4956.00,0.87
4954.00,0.87
4952.00,0.87
4950.00,0.87
4948.00,0.87
4946.00,0.87
4944.00,0.87
4942.00,0.88
4940.00,0.88
4938.00,0.88
4936.00,0.88
4934.00,0.88
4932.00,0.88
4930.00,0.88
4928.00,0.88
4926.00,0.88
4924.00,0.89
4922.00,0.89
4920.00,0.89
4918.00,0.89
4916.00,0.89
4914.00,0.89
4912.00,0.89
4910.00,0.89
4908.00,0.89
4906.00,0.89
4904.00,0.89
4902.00,0.89
4900.00,0.90
4898.00,0.90
4896.00,0.90
4894.00,0.90
4892.00,0.90
4890.00,0.90
4888.00,0.90
4886.00,0.90
4884.00,0.90
4882.00,0.90
4880.00,0.90
4878.00,0.90
4876.00,0.90
4874.00,0.90
4872.00,0.90
4870.00,0.90
4868.00,0.90
4866.00,0.90
4864.00,0.90
4862.00,0.90
4860.00,0.91
4858.00,0.91
4856.00,0.91
4854.00,0.91
4852.00,0.91
4850.00,0.91
4848.00,0.91
4846.00,0.91
4844.00,0.91
4842.00,0.91
4840.00,0.91
4838.00,0.92
4836.00,0.92
4834.00,0.92
4832.00,0.92
4830.00,0.92
4828.00,0.92
4826.00,0.92
4824.00,0.92
4822.00,0.92
4820.00,0.92
4818.00,0.93
4816.00,0.93
4814.00,0.93
4812.00,0.93
4810.00,0.93
4808.00,0.93
4806.00,0.93
4804.00,0.93
4802.00,0.94
4800.00,0.94
4798.00,0.94
4796.00,0.94
4794.00,0.94
4792.00,0.94
4790.00,0.94
4788.00,0.94
4786.00,0.95
4784.00,0.95
4782.00,0.95
4780.00,0.95
4778.00,0.95
4776.00,0.95
4774.00,0.95
4772.00,0.95
4770.00,0.96
4768.00,0.96
4766.00,0.96
4764.00,0.96
4762.00,0.96
4760.00,0.96
4758.00,0.96
4756.00,0.97
4754.00,0.97
4752.00,0.97
4750.00,0.97
4748.00,0.97
4746.00,0.97
4744.00,0.97
4742.00,0.97
4740.00,0.97
4738.00,0.97
4736.00,0.97
4734.00,0.97
4732.00,0.98
4730.00,0.98
4728.00,0.98
4726.00,0.98
4724.00,0.98
4722.00,0.99
4720.00,0.99
4718.00,0.99
4716.00,0.99
4714.00,0.99
4712.00,1.00
4710.00,1.00
4708.00,1.00
4706.00,1.00
4704.00,1.00
4702.00,1.00
4700.00,1.00
4698.00,1.00
4696.00,1.00
4694.00,1.00
4692.00,1.00
4690.00,1.00
4688.00,1.00
4686.00,1.00
4684.00,1.01
4682.00,1.01
4680.00,1.01
4678.00,1.01
4676.00,1.01
4674.00,1.01
4672.00,1.01
4670.00,1.01
4668.00,1.02
4666.00,1.02
4664.00,1.02
4662.00,1.02
4660.00,1.02
4658.00,1.02
4656.00,1.02
4654.00,1.02
4652.00,1.02
4650.00,1.02
4648.00,1.02
4646.00,1.02
4644.00,1.02
4642.00,1.02
4640.00,1.02
4638.00,1.02
4636.00,1.02
4634.00,1.02
4632.00,1.02
4630.00,1.02
4628.00,1.02
4626.00,1.02
4624.00,1.02
4622.00,1.02
4620.00,1.02
4618.00,1.02
4616.00,1.03
4614.00,1.03
4612.00,1.03
4610.00,1.03
4608.00,1.03
4606.00,1.03
4604.00,1.03
4602.00,1.03
4600.00,1.03
4598.00,1.02
4596.00,1.02
4594.00,1.02
4592.00,1.02
4590.00,1.02
4588.00,1.02
4586.00,1.02
4584.00,1.02
4582.00,1.02
4580.00,1.02
4578.00,1.02
4576.00,1.02
4574.00,1.02
4572.00,1.03
4570.00,1.03
4568.00,1.03
4566.00,1.03
4564.00,1.03
4562.00,1.03
4560.00,1.03
4558.00,1.03
4556.00,1.03
4554.00,1.02
4552.00,1.02
4550.00,1.02
4548.00,1.02
4546.00,1.02
4544.00,1.02
4542.00,1.02
4540.00,1.02
4538.00,1.02
4536.00,1.02
4534.00,1.03
4532.00,1.03
4530.00,1.03
4528.00,1.03
4526.00,1.03
4524.00,1.03
4522.00,1.03
4520.00,1.03
4518.00,1.03
4516.00,1.03
4514.00,1.03
4512.00,1.03
4510.00,1.03
4508.00,1.03
4506.00,1.03
4504.00,1.03
4502.00,1.03
4500.00,1.03
4498.00,1.03
4496.00,1.03
4494.00,1.03
4492.00,1.03
4490.00,1.03
4488.00,1.03
4486.00,1.03
4484.00,1.03
4482.00,1.03
4480.00,1.03
4478.00,1.02
4476.00,1.02
4474.00,1.02
4472.00,1.02
4470.00,1.02
4468.00,1.02
4466.00,1.02
4464.00,1.01
4462.00,1.01
4460.00,1.01
4458.00,1.01
4456.00,1.01
4454.00,1.01
4452.00,1.00
4450.00,1.00
4448.00,1.00
4446.00,0.99
4444.00,0.99
4442.00,0.98
4440.00,0.97
4438.00,0.97
4436.00,0.96
4434.00,0.95
4432.00,0.94
4430.00,0.93
4428.00,0.92
4426.00,0.92
4424.00,0.91
4422.00,0.90
4420.00,0.90
4418.00,0.89
4416.00,0.89
4414.00,0.88
4412.00,0.88
4410.00,0.88
4408.00,0.88
4406.00,0.88
4404.00,0.88
4402.00,0.89
4400.00,0.89
4398.00,0.90
4396.00,0.90
4394.00,0.90
4392.00,0.91
4390.00,0.91
4388.00,0.92
4386.00,0.92
4384.00,0.93
4382.00,0.93
4380.00,0.93
4378.00,0.94
4376.00,0.94
4374.00,0.94
4372.00,0.95
4370.00,0.95
4368.00,0.95
4366.00,0.95
4364.00,0.94
4362.00,0.94
4360.00,0.94
4358.00,0.93
4356.00,0.93
4354.00,0.92
4352.00,0.91
4350.00,0.91
4348.00,0.90
4346.00,0.90
4344.00,0.89
4342.00,0.89
4340.00,0.89
4338.00,0.89
4336.00,0.90
4334.00,0.90
4332.00,0.90
4330.00,0.91
4328.00,0.91
4326.00,0.92
4324.00,0.92
4322.00,0.93
4320.00,0.94
4318.00,0.94
4316.00,0.95
4314.00,0.96
4312.00,0.96
4310.00,0.97
4308.00,0.98
4306.00,0.98
4304.00,0.99
4302.00,0.99
4300.00,1.00
4298.00,1.00
4296.00,1.01
4294.00,1.01
4292.00,1.01
4290.00,1.01
4288.00,1.01
4286.00,1.01
4284.00,1.01
4282.00,1.01
4280.00,1.01
4278.00,1.01
4276.00,1.01
4274.00,1.01
4272.00,1.01
4270.00,1.01
4268.00,1.00
4266.00,1.00
4264.00,1.00
4262.00,0.99
4260.00,0.99
4258.00,0.99
4256.00,0.99
4254.00,0.99
4252.00,0.98
4250.00,0.99
4248.00,0.99
4246.00,0.99
4244.00,0.99
4242.00,1.00
4240.00,1.00
4238.00,1.00
4236.00,1.01
4234.00,1.01
4232.00,1.02
4230.00,1.02
4228.00,1.02
4226.00,1.02
4224.00,1.02
4222.00,1.02
4220.00,1.02
4218.00,1.03
4216.00,1.03
4214.00,1.03
4212.00,1.03
4210.00,1.03
4208.00,1.03
4206.00,1.03
4204.00,1.03
4202.00,1.03
4200.00,1.03
4198.00,1.03
4196.00,1.03
4194.00,1.03
4192.00,1.03
4190.00,1.03
4188.00,1.03
4186.00,1.03
4184.00,1.02
4182.00,1.02
4180.00,1.02
4178.00,1.02
4176.00,1.02
4174.00,1.02
4172.00,1.02
4170.00,1.02
4168.00,1.02
4166.00,1.02
4164.00,1.02
4162.00,1.03
4160.00,1.03
4158.00,1.03
4156.00,1.03
4154.00,1.03
4152.00,1.03
4150.00,1.03
4148.00,1.03
4146.00,1.02
4144.00,1.02
4142.00,1.02
4140.00,1.02
4138.00,1.03
4136.00,1.03
4134.00,1.03
4132.00,1.03
4130.00,1.03
4128.00,1.03
4126.00,1.03
4124.00,1.03
4122.00,1.03
4120.00,1.03
4118.00,1.03
4116.00,1.03
4114.00,1.03
4112.00,1.03
4110.00,1.03
4108.00,1.02
4106.00,1.02
4104.00,1.02
4102.00,1.02
4100.00,1.02
4098.00,1.02
4096.00,1.02
4094.00,1.02
4092.00,1.02
4090.00,1.01
4088.00,1.01
4086.00,1.01
4084.00,1.01
4082.00,1.01
4080.00,1.01
4078.00,1.01
4076.00,1.01
4074.00,1.01
4072.00,1.00
4070.00,1.00
4068.00,1.00
4066.00,1.00
4064.00,1.00
4062.00,1.00
4060.00,1.00
4058.00,1.00
4056.00,1.00
4054.00,1.00
4052.00,1.00
4050.00,1.00
4048.00,1.00
4046.00,1.00
4044.00,1.01
4042.00,1.01
4040.00,1.01
4038.00,1.01
4036.00,1.01
4034.00,1.01
4032.00,1.01
4030.00,1.01
4028.00,1.01
4026.00,1.01
4024.00,1.02
4022.00,1.02
4020.00,1.03
4018.00,1.03
4016.00,1.03
4014.00,1.03
4012.00,1.03
4010.00,1.03
4008.00,1.03
4006.00,1.02
4004.00,1.02
4002.00,1.03
4000.00,1.03
