创建为新数据集,样品 1765 用户 Administrator 日期 星期三, 三月 15 2017
cm-1,%T
10000.00,0.76
9998.00,0.76
9996.00,0.75
9994.00,0.75
9992.00,0.75
9990.00,0.75
9988.00,0.75
9986.00,0.75
9984.00,0.75
9982.00,0.75
9980.00,0.75
9978.00,0.75
9976.00,0.75
9974.00,0.75
9972.00,0.75
9970.00,0.76
9968.00,0.76
9966.00,0.76
9964.00,0.77
9962.00,0.77
9960.00,0.77
9958.00,0.77
9956.00,0.76
9954.00,0.76
9952.00,0.76
9950.00,0.76
9948.00,0.75
9946.00,0.75
9944.00,0.75
9942.00,0.75
9940.00,0.75
9938.00,0.75
9936.00,0.75
9934.00,0.75
9932.00,0.74
9930.00,0.74
9928.00,0.74
9926.00,0.74
9924.00,0.73
9922.00,0.73
9920.00,0.73
9918.00,0.73
9916.00,0.74
9914.00,0.74
9912.00,0.74
9910.00,0.75
9908.00,0.75
9906.00,0.75
9904.00,0.75
9902.00,0.75
9900.00,0.75
9898.00,0.75
9896.00,0.75
9894.00,0.74
9892.00,0.74
9890.00,0.74
9888.00,0.73
9886.00,0.73
9884.00,0.73
9882.00,0.73
9880.00,0.73
9878.00,0.73
9876.00,0.72
9874.00,0.72
9872.00,0.72
9870.00,0.72
9868.00,0.72
9866.00,0.72
9864.00,0.72
9862.00,0.72
9860.00,0.73
9858.00,0.73
9856.00,0.73
9854.00,0.73
9852.00,0.73
9850.00,0.74
9848.00,0.74
9846.00,0.74
9844.00,0.74
9842.00,0.74
9840.00,0.74
9838.00,0.74
9836.00,0.74
9834.00,0.74
9832.00,0.74
9830.00,0.74
9828.00,0.74
9826.00,0.74
9824.00,0.74
9822.00,0.74
9820.00,0.74
9818.00,0.74
9816.00,0.74
9814.00,0.74
9812.00,0.74
9810.00,0.74
9808.00,0.74
9806.00,0.74
9804.00,0.73
9802.00,0.73
9800.00,0.72
9798.00,0.72
9796.00,0.72
9794.00,0.71
9792.00,0.71
9790.00,0.71
9788.00,0.71
9786.00,0.71
9784.00,0.71
9782.00,0.71
9780.00,0.71
9778.00,0.71
9776.00,0.70
9774.00,0.70
9772.00,0.71
9770.00,0.71
9768.00,0.71
9766.00,0.71
9764.00,0.71
9762.00,0.71
9760.00,0.71
9758.00,0.72
9756.00,0.72
9754.00,0.72
9752.00,0.72
9750.00,0.73
9748.00,0.73
9746.00,0.73
9744.00,0.73
9742.00,0.73
9740.00,0.74
9738.00,0.74
9736.00,0.74
9734.00,0.74
9732.00,0.74
9730.00,0.74
9728.00,0.74
9726.00,0.73
9724.00,0.73
9722.00,0.73
9720.00,0.73
9718.00,0.73
9716.00,0.73
9714.00,0.73
9712.00,0.74
9710.00,0.74
9708.00,0.74
9706.00,0.74
9704.00,0.74
9702.00,0.74
9700.00,0.74
9698.00,0.74
9696.00,0.74
9694.00,0.74
9692.00,0.74
9690.00,0.75
9688.00,0.75
9686.00,0.74
9684.00,0.74
9682.00,0.74
9680.00,0.73
9678.00,0.73
9676.00,0.72
9674.00,0.72
9672.00,0.72
9670.00,0.72
9668.00,0.72
9666.00,0.72
9664.00,0.72
9662.00,0.73
9660.00,0.73
9658.00,0.73
9656.00,0.74
9654.00,0.73
9652.00,0.73
9650.00,0.73
9648.00,0.73
9646.00,0.72
9644.00,0.72
9642.00,0.72
9640.00,0.72
9638.00,0.72
9636.00,0.73
9634.00,0.73
9632.00,0.73
9630.00,0.73
9628.00,0.73
9626.00,0.73
9624.00,0.74
9622.00,0.74
9620.00,0.75
9618.00,0.75
9616.00,0.75
9614.00,0.76
9612.00,0.76
9610.00,0.76
9608.00,0.75
9606.00,0.75
9604.00,0.75
9602.00,0.75
9600.00,0.74
9598.00,0.74
9596.00,0.74
9594.00,0.73
9592.00,0.73
9590.00,0.73
9588.00,0.72
9586.00,0.72
9584.00,0.72
9582.00,0.72
9580.00,0.72
9578.00,0.72
9576.00,0.72
9574.00,0.72
9572.00,0.72
9570.00,0.73
9568.00,0.73
9566.00,0.73
9564.00,0.73
9562.00,0.74
9560.00,0.74
9558.00,0.73
9556.00,0.73
9554.00,0.73
9552.00,0.73
9550.00,0.73
9548.00,0.73
9546.00,0.73
9544.00,0.73
9542.00,0.73
9540.00,0.74
9538.00,0.74
9536.00,0.74
9534.00,0.74
9532.00,0.74
9530.00,0.74
9528.00,0.74
9526.00,0.74
9524.00,0.74
9522.00,0.74
9520.00,0.74
9518.00,0.74
9516.00,0.74
9514.00,0.74
9512.00,0.75
9510.00,0.75
9508.00,0.75
9506.00,0.75
9504.00,0.75
9502.00,0.75
9500.00,0.74
9498.00,0.74
9496.00,0.74
9494.00,0.74
9492.00,0.73
9490.00,0.73
9488.00,0.73
9486.00,0.74
9484.00,0.74
9482.00,0.74
9480.00,0.74
9478.00,0.75
9476.00,0.75
9474.00,0.75
9472.00,0.75
9470.00,0.75
9468.00,0.75
9466.00,0.75
9464.00,0.74
9462.00,0.74
9460.00,0.73
9458.00,0.73
9456.00,0.73
9454.00,0.73
9452.00,0.73
9450.00,0.73
9448.00,0.73
9446.00,0.73
9444.00,0.73
9442.00,0.72
9440.00,0.72
9438.00,0.72
9436.00,0.71
9434.00,0.71
9432.00,0.71
9430.00,0.71
9428.00,0.71
9426.00,0.71
9424.00,0.71
9422.00,0.71
9420.00,0.72
9418.00,0.72
9416.00,0.71
9414.00,0.71
9412.00,0.71
9410.00,0.71
9408.00,0.71
9406.00,0.71
9404.00,0.71
9402.00,0.71
9400.00,0.72
9398.00,0.72
9396.00,0.72
9394.00,0.73
9392.00,0.73
9390.00,0.73
9388.00,0.74
9386.00,0.74
9384.00,0.74
9382.00,0.74
9380.00,0.74
9378.00,0.74
9376.00,0.74
9374.00,0.74
9372.00,0.74
9370.00,0.74
9368.00,0.74
9366.00,0.74
9364.00,0.74
9362.00,0.74
9360.00,0.74
9358.00,0.74
9356.00,0.73
9354.00,0.73
9352.00,0.73
9350.00,0.72
9348.00,0.72
9346.00,0.72
9344.00,0.71
9342.00,0.71
9340.00,0.72
9338.00,0.72
9336.00,0.72
9334.00,0.72
9332.00,0.73
9330.00,0.73
9328.00,0.73
9326.00,0.73
9324.00,0.73
9322.00,0.73
9320.00,0.73
9318.00,0.73
9316.00,0.72
9314.00,0.72
9312.00,0.72
9310.00,0.72
9308.00,0.72
9306.00,0.73
9304.00,0.73
9302.00,0.73
9300.00,0.74
9298.00,0.74
9296.00,0.74
9294.00,0.74
9292.00,0.74
9290.00,0.74
9288.00,0.74
9286.00,0.74
9284.00,0.74
9282.00,0.74
9280.00,0.74
9278.00,0.74
9276.00,0.75
9274.00,0.75
9272.00,0.74
9270.00,0.74
9268.00,0.74
9266.00,0.74
9264.00,0.74
9262.00,0.73
9260.00,0.73
9258.00,0.73
9256.00,0.73
9254.00,0.73
9252.00,0.73
9250.00,0.73
9248.00,0.73
9246.00,0.73
9244.00,0.73
9242.00,0.73
9240.00,0.73
9238.00,0.73
9236.00,0.73
9234.00,0.73
9232.00,0.73
9230.00,0.73
9228.00,0.73
9226.00,0.74
9224.00,0.74
9222.00,0.74
9220.00,0.74
9218.00,0.74
9216.00,0.74
9214.00,0.74
9212.00,0.74
9210.00,0.74
9208.00,0.74
9206.00,0.74
9204.00,0.73
9202.00,0.73
9200.00,0.73
9198.00,0.73
9196.00,0.73
9194.00,0.73
9192.00,0.73
9190.00,0.73
9188.00,0.73
9186.00,0.73
9184.00,0.73
9182.00,0.73
9180.00,0.73
9178.00,0.73
9176.00,0.73
9174.00,0.72
9172.00,0.72
9170.00,0.72
9168.00,0.71
9166.00,0.71
9164.00,0.71
9162.00,0.71
9160.00,0.72
9158.00,0.72
9156.00,0.73
9154.00,0.73
9152.00,0.74
9150.00,0.74
9148.00,0.74
9146.00,0.74
9144.00,0.74
9142.00,0.74
9140.00,0.74
9138.00,0.74
9136.00,0.74
9134.00,0.74
9132.00,0.74
9130.00,0.74
9128.00,0.74
9126.00,0.74
9124.00,0.74
9122.00,0.74
9120.00,0.74
9118.00,0.74
9116.00,0.74
9114.00,0.74
9112.00,0.74
9110.00,0.74
9108.00,0.74
9106.00,0.74
9104.00,0.74
9102.00,0.74
9100.00,0.75
9098.00,0.75
9096.00,0.75
9094.00,0.75
9092.00,0.75
9090.00,0.75
9088.00,0.75
9086.00,0.74
9084.00,0.74
9082.00,0.75
9080.00,0.75
9078.00,0.75
9076.00,0.75
9074.00,0.75
9072.00,0.75
9070.00,0.75
9068.00,0.75
9066.00,0.74
9064.00,0.74
9062.00,0.74
9060.00,0.73
9058.00,0.73
9056.00,0.73
9054.00,0.72
9052.00,0.72
9050.00,0.72
9048.00,0.72
9046.00,0.72
9044.00,0.73
9042.00,0.73
9040.00,0.73
9038.00,0.73
9036.00,0.73
9034.00,0.73
9032.00,0.74
9030.00,0.74
9028.00,0.74
9026.00,0.74
9024.00,0.74
9022.00,0.74
9020.00,0.74
9018.00,0.74
9016.00,0.74
9014.00,0.74
9012.00,0.74
9010.00,0.74
9008.00,0.74
9006.00,0.74
9004.00,0.74
9002.00,0.74
9000.00,0.74
8998.00,0.74
8996.00,0.73
8994.00,0.73
8992.00,0.73
8990.00,0.73
8988.00,0.73
8986.00,0.73
8984.00,0.73
8982.00,0.73
8980.00,0.73
8978.00,0.73
8976.00,0.74
8974.00,0.74
8972.00,0.74
8970.00,0.74
8968.00,0.74
8966.00,0.74
8964.00,0.74
8962.00,0.74
8960.00,0.74
8958.00,0.74
8956.00,0.74
8954.00,0.74
8952.00,0.74
8950.00,0.74
8948.00,0.74
8946.00,0.73
8944.00,0.73
8942.00,0.73
8940.00,0.73
8938.00,0.73
8936.00,0.73
8934.00,0.74
8932.00,0.74
8930.00,0.75
8928.00,0.75
8926.00,0.75
8924.00,0.75
8922.00,0.75
8920.00,0.75
8918.00,0.75
8916.00,0.74
8914.00,0.74
8912.00,0.74
8910.00,0.73
8908.00,0.73
8906.00,0.73
8904.00,0.72
8902.00,0.72
8900.00,0.72
8898.00,0.72
8896.00,0.73
8894.00,0.73
8892.00,0.73
8890.00,0.73
8888.00,0.74
8886.00,0.74
8884.00,0.74
8882.00,0.74
8880.00,0.74
8878.00,0.74
8876.00,0.74
8874.00,0.74
8872.00,0.73
8870.00,0.73
8868.00,0.73
8866.00,0.73
8864.00,0.73
8862.00,0.73
8860.00,0.73
8858.00,0.73
8856.00,0.74
8854.00,0.74
8852.00,0.74
8850.00,0.74
8848.00,0.74
8846.00,0.74
8844.00,0.74
8842.00,0.74
8840.00,0.73
8838.00,0.73
8836.00,0.73
8834.00,0.73
8832.00,0.73
8830.00,0.73
8828.00,0.73
8826.00,0.73
8824.00,0.73
8822.00,0.73
8820.00,0.73
8818.00,0.73
8816.00,0.73
8814.00,0.73
8812.00,0.73
8810.00,0.73
8808.00,0.73
8806.00,0.73
8804.00,0.73
8802.00,0.73
8800.00,0.74
8798.00,0.74
8796.00,0.74
8794.00,0.74
8792.00,0.74
8790.00,0.75
8788.00,0.75
8786.00,0.75
8784.00,0.76
8782.00,0.76
8780.00,0.75
8778.00,0.75
8776.00,0.75
8774.00,0.75
8772.00,0.74
8770.00,0.74
8768.00,0.74
8766.00,0.74
8764.00,0.74
8762.00,0.74
8760.00,0.74
8758.00,0.74
8756.00,0.74
8754.00,0.74
8752.00,0.74
8750.00,0.74
8748.00,0.74
8746.00,0.74
8744.00,0.74
8742.00,0.75
8740.00,0.75
8738.00,0.75
8736.00,0.75
8734.00,0.74
8732.00,0.74
8730.00,0.74
8728.00,0.74
8726.00,0.73
8724.00,0.73
8722.00,0.73
8720.00,0.73
8718.00,0.72
8716.00,0.72
8714.00,0.72
8712.00,0.72
8710.00,0.72
8708.00,0.73
8706.00,0.73
8704.00,0.73
8702.00,0.74
8700.00,0.74
8698.00,0.74
8696.00,0.74
8694.00,0.74
8692.00,0.73
8690.00,0.73
8688.00,0.73
8686.00,0.73
8684.00,0.73
8682.00,0.73
8680.00,0.73
8678.00,0.73
8676.00,0.74
8674.00,0.74
8672.00,0.74
8670.00,0.73
8668.00,0.73
8666.00,0.73
8664.00,0.73
8662.00,0.73
8660.00,0.73
8658.00,0.73
8656.00,0.73
8654.00,0.73
8652.00,0.73
8650.00,0.74
8648.00,0.74
8646.00,0.74
8644.00,0.73
8642.00,0.73
8640.00,0.73
8638.00,0.73
8636.00,0.73
8634.00,0.73
8632.00,0.73
8630.00,0.73
8628.00,0.73
8626.00,0.73
8624.00,0.73
8622.00,0.73
8620.00,0.73
8618.00,0.73
8616.00,0.73
8614.00,0.73
8612.00,0.73
8610.00,0.73
8608.00,0.73
8606.00,0.73
8604.00,0.73
8602.00,0.73
8600.00,0.73
8598.00,0.73
8596.00,0.73
8594.00,0.73
8592.00,0.74
8590.00,0.74
8588.00,0.74
8586.00,0.73
8584.00,0.73
8582.00,0.73
8580.00,0.73
8578.00,0.73
8576.00,0.73
8574.00,0.73
8572.00,0.73
8570.00,0.74
8568.00,0.74
8566.00,0.74
8564.00,0.74
8562.00,0.74
8560.00,0.74
8558.00,0.74
8556.00,0.73
8554.00,0.73
8552.00,0.73
8550.00,0.73
8548.00,0.73
8546.00,0.73
8544.00,0.73
8542.00,0.73
8540.00,0.73
8538.00,0.73
8536.00,0.73
8534.00,0.73
8532.00,0.73
8530.00,0.73
8528.00,0.73
8526.00,0.73
8524.00,0.72
8522.00,0.72
8520.00,0.72
8518.00,0.72
8516.00,0.71
8514.00,0.71
8512.00,0.71
8510.00,0.71
8508.00,0.71
8506.00,0.72
8504.00,0.72
8502.00,0.72
8500.00,0.72
8498.00,0.72
8496.00,0.72
8494.00,0.72
8492.00,0.72
8490.00,0.72
8488.00,0.72
8486.00,0.72
8484.00,0.73
8482.00,0.73
8480.00,0.73
8478.00,0.73
8476.00,0.73
8474.00,0.72
8472.00,0.72
8470.00,0.72
8468.00,0.72
8466.00,0.72
8464.00,0.72
8462.00,0.72
8460.00,0.72
8458.00,0.72
8456.00,0.72
8454.00,0.72
8452.00,0.72
8450.00,0.72
8448.00,0.72
8446.00,0.72
8444.00,0.72
8442.00,0.72
8440.00,0.72
8438.00,0.73
8436.00,0.73
8434.00,0.73
8432.00,0.73
8430.00,0.73
8428.00,0.73
8426.00,0.73
8424.00,0.73
8422.00,0.73
8420.00,0.72
8418.00,0.72
8416.00,0.72
8414.00,0.72
8412.00,0.72
8410.00,0.72
8408.00,0.72
8406.00,0.72
8404.00,0.72
8402.00,0.72
8400.00,0.72
8398.00,0.73
8396.00,0.73
8394.00,0.73
8392.00,0.73
8390.00,0.73
8388.00,0.73
8386.00,0.73
8384.00,0.73
8382.00,0.73
8380.00,0.73
8378.00,0.73
8376.00,0.73
8374.00,0.73
8372.00,0.73
8370.00,0.73
8368.00,0.73
8366.00,0.73
8364.00,0.73
8362.00,0.74
8360.00,0.74
8358.00,0.74
8356.00,0.74
8354.00,0.74
8352.00,0.74
8350.00,0.74
8348.00,0.74
8346.00,0.74
8344.00,0.74
8342.00,0.74
8340.00,0.73
8338.00,0.73
8336.00,0.73
8334.00,0.73
8332.00,0.73
8330.00,0.73
8328.00,0.73
8326.00,0.73
8324.00,0.73
8322.00,0.73
8320.00,0.73
8318.00,0.73
8316.00,0.73
8314.00,0.73
8312.00,0.73
8310.00,0.73
8308.00,0.73
8306.00,0.73
8304.00,0.73
8302.00,0.73
8300.00,0.73
8298.00,0.73
8296.00,0.73
8294.00,0.73
8292.00,0.73
8290.00,0.73
8288.00,0.73
8286.00,0.73
8284.00,0.73
8282.00,0.74
8280.00,0.74
8278.00,0.74
8276.00,0.74
8274.00,0.74
8272.00,0.73
8270.00,0.73
8268.00,0.73
8266.00,0.73
8264.00,0.72
8262.00,0.72
8260.00,0.72
8258.00,0.72
8256.00,0.72
8254.00,0.72
8252.00,0.72
8250.00,0.73
8248.00,0.73
8246.00,0.73
8244.00,0.73
8242.00,0.73
8240.00,0.73
8238.00,0.73
8236.00,0.73
8234.00,0.73
8232.00,0.73
8230.00,0.73
8228.00,0.73
8226.00,0.73
8224.00,0.73
8222.00,0.73
8220.00,0.73
8218.00,0.73
8216.00,0.73
8214.00,0.73
8212.00,0.73
8210.00,0.73
8208.00,0.73
8206.00,0.74
8204.00,0.74
8202.00,0.74
8200.00,0.74
8198.00,0.74
8196.00,0.74
8194.00,0.75
8192.00,0.75
8190.00,0.75
8188.00,0.75
8186.00,0.75
8184.00,0.75
8182.00,0.74
8180.00,0.74
8178.00,0.74
8176.00,0.74
8174.00,0.74
8172.00,0.74
8170.00,0.73
8168.00,0.74
8166.00,0.74
8164.00,0.74
8162.00,0.74
8160.00,0.74
8158.00,0.74
8156.00,0.74
8154.00,0.74
8152.00,0.74
8150.00,0.74
8148.00,0.74
8146.00,0.74
8144.00,0.74
8142.00,0.74
8140.00,0.74
8138.00,0.74
8136.00,0.74
8134.00,0.74
8132.00,0.74
8130.00,0.74
8128.00,0.74
8126.00,0.73
8124.00,0.73
8122.00,0.74
8120.00,0.74
8118.00,0.74
8116.00,0.74
8114.00,0.74
8112.00,0.74
8110.00,0.74
8108.00,0.74
8106.00,0.74
8104.00,0.74
8102.00,0.73
8100.00,0.73
8098.00,0.73
8096.00,0.73
8094.00,0.73
8092.00,0.73
8090.00,0.73
8088.00,0.73
8086.00,0.73
8084.00,0.73
8082.00,0.73
8080.00,0.73
8078.00,0.73
8076.00,0.73
8074.00,0.73
8072.00,0.73
8070.00,0.74
8068.00,0.74
8066.00,0.74
8064.00,0.74
8062.00,0.74
8060.00,0.74
8058.00,0.74
8056.00,0.74
8054.00,0.74
8052.00,0.74
8050.00,0.74
8048.00,0.74
8046.00,0.74
8044.00,0.74
8042.00,0.74
8040.00,0.73
8038.00,0.73
8036.00,0.73
8034.00,0.73
8032.00,0.73
8030.00,0.73
8028.00,0.73
8026.00,0.73
8024.00,0.73
8022.00,0.73
8020.00,0.73
8018.00,0.73
8016.00,0.74
8014.00,0.74
8012.00,0.74
8010.00,0.74
8008.00,0.74
8006.00,0.74
8004.00,0.73
8002.00,0.73
8000.00,0.73
7998.00,0.73
7996.00,0.73
7994.00,0.73
7992.00,0.73
7990.00,0.73
7988.00,0.74
7986.00,0.74
7984.00,0.74
7982.00,0.74
7980.00,0.74
7978.00,0.74
7976.00,0.74
7974.00,0.74
7972.00,0.74
7970.00,0.73
7968.00,0.73
7966.00,0.73
7964.00,0.73
7962.00,0.73
7960.00,0.73
7958.00,0.73
7956.00,0.73
7954.00,0.73
7952.00,0.73
7950.00,0.73
7948.00,0.73
7946.00,0.74
7944.00,0.74
7942.00,0.74
7940.00,0.74
7938.00,0.74
7936.00,0.74
7934.00,0.74
7932.00,0.74
7930.00,0.74
7928.00,0.74
7926.00,0.74
7924.00,0.74
7922.00,0.74
7920.00,0.74
7918.00,0.74
7916.00,0.74
7914.00,0.75
7912.00,0.75
7910.00,0.75
7908.00,0.75
7906.00,0.75
7904.00,0.75
7902.00,0.74
7900.00,0.74
7898.00,0.74
7896.00,0.74
7894.00,0.74
7892.00,0.74
7890.00,0.73
7888.00,0.73
7886.00,0.73
7884.00,0.73
7882.00,0.73
7880.00,0.74
7878.00,0.74
7876.00,0.74
7874.00,0.74
7872.00,0.74
7870.00,0.74
7868.00,0.74
7866.00,0.74
7864.00,0.74
7862.00,0.74
7860.00,0.74
7858.00,0.74
7856.00,0.74
7854.00,0.74
7852.00,0.74
7850.00,0.74
7848.00,0.74
7846.00,0.74
7844.00,0.74
7842.00,0.74
7840.00,0.74
7838.00,0.74
7836.00,0.74
7834.00,0.74
7832.00,0.74
7830.00,0.74
7828.00,0.74
7826.00,0.74
7824.00,0.74
7822.00,0.74
7820.00,0.74
7818.00,0.74
7816.00,0.74
7814.00,0.74
7812.00,0.74
7810.00,0.74
7808.00,0.74
7806.00,0.74
7804.00,0.74
7802.00,0.73
7800.00,0.73
7798.00,0.73
7796.00,0.73
7794.00,0.73
7792.00,0.73
7790.00,0.73
7788.00,0.73
7786.00,0.73
7784.00,0.73
7782.00,0.73
7780.00,0.73
7778.00,0.74
7776.00,0.74
7774.00,0.74
7772.00,0.74
7770.00,0.74
7768.00,0.74
7766.00,0.74
7764.00,0.74
7762.00,0.74
7760.00,0.74
7758.00,0.74
7756.00,0.74
7754.00,0.74
7752.00,0.74
7750.00,0.74
7748.00,0.74
7746.00,0.74
7744.00,0.74
7742.00,0.74
7740.00,0.74
7738.00,0.74
7736.00,0.74
7734.00,0.74
7732.00,0.74
7730.00,0.74
7728.00,0.74
7726.00,0.74
7724.00,0.74
7722.00,0.74
7720.00,0.74
7718.00,0.74
7716.00,0.74
7714.00,0.74
7712.00,0.74
7710.00,0.74
7708.00,0.74
7706.00,0.74
7704.00,0.74
7702.00,0.74
7700.00,0.74
7698.00,0.75
7696.00,0.75
7694.00,0.75
7692.00,0.75
7690.00,0.75
7688.00,0.75
7686.00,0.75
7684.00,0.75
7682.00,0.75
7680.00,0.75
7678.00,0.75
7676.00,0.75
7674.00,0.74
7672.00,0.74
7670.00,0.74
7668.00,0.74
7666.00,0.74
7664.00,0.74
7662.00,0.74
7660.00,0.74
7658.00,0.74
7656.00,0.74
7654.00,0.74
7652.00,0.74
7650.00,0.74
7648.00,0.74
7646.00,0.74
7644.00,0.74
7642.00,0.74
7640.00,0.74
7638.00,0.74
7636.00,0.74
7634.00,0.74
7632.00,0.74
7630.00,0.74
7628.00,0.74
7626.00,0.73
7624.00,0.73
7622.00,0.73
7620.00,0.73
7618.00,0.73
7616.00,0.73
7614.00,0.73
7612.00,0.74
7610.00,0.74
7608.00,0.74
7606.00,0.74
7604.00,0.74
7602.00,0.74
7600.00,0.74
7598.00,0.75
7596.00,0.75
7594.00,0.75
7592.00,0.75
7590.00,0.75
7588.00,0.75
7586.00,0.75
7584.00,0.75
7582.00,0.75
7580.00,0.75
7578.00,0.75
7576.00,0.75
7574.00,0.75
7572.00,0.74
7570.00,0.74
7568.00,0.74
7566.00,0.74
7564.00,0.74
7562.00,0.74
7560.00,0.74
7558.00,0.73
7556.00,0.73
7554.00,0.73
7552.00,0.73
7550.00,0.73
7548.00,0.73
7546.00,0.73
7544.00,0.73
7542.00,0.73
7540.00,0.73
7538.00,0.73
7536.00,0.73
7534.00,0.74
7532.00,0.74
7530.00,0.74
7528.00,0.74
7526.00,0.74
7524.00,0.74
7522.00,0.74
7520.00,0.74
7518.00,0.74
7516.00,0.74
7514.00,0.74
7512.00,0.74
7510.00,0.74
7508.00,0.74
7506.00,0.74
7504.00,0.74
7502.00,0.74
7500.00,0.74
7498.00,0.74
7496.00,0.74
7494.00,0.74
7492.00,0.74
7490.00,0.74
7488.00,0.74
7486.00,0.74
7484.00,0.74
7482.00,0.74
7480.00,0.74
7478.00,0.74
7476.00,0.74
7474.00,0.74
7472.00,0.74
7470.00,0.74
7468.00,0.74
7466.00,0.74
7464.00,0.74
7462.00,0.74
7460.00,0.74
7458.00,0.74
7456.00,0.74
7454.00,0.74
7452.00,0.74
7450.00,0.74
7448.00,0.74
7446.00,0.74
7444.00,0.74
7442.00,0.74
7440.00,0.74
7438.00,0.74
7436.00,0.74
7434.00,0.74
7432.00,0.74
7430.00,0.74
7428.00,0.74
7426.00,0.74
7424.00,0.74
7422.00,0.74
7420.00,0.74
7418.00,0.74
7416.00,0.74
7414.00,0.74
7412.00,0.74
7410.00,0.73
7408.00,0.73
7406.00,0.73
7404.00,0.73
7402.00,0.73
7400.00,0.73
7398.00,0.73
7396.00,0.73
7394.00,0.73
7392.00,0.73
7390.00,0.73
7388.00,0.73
7386.00,0.74
7384.00,0.74
7382.00,0.74
7380.00,0.74
7378.00,0.74
7376.00,0.74
7374.00,0.74
7372.00,0.74
7370.00,0.74
7368.00,0.73
7366.00,0.73
7364.00,0.73
7362.00,0.73
7360.00,0.73
7358.00,0.73
7356.00,0.73
7354.00,0.73
7352.00,0.73
7350.00,0.73
7348.00,0.73
7346.00,0.73
7344.00,0.73
7342.00,0.73
7340.00,0.73
7338.00,0.74
7336.00,0.74
7334.00,0.74
7332.00,0.74
7330.00,0.74
7328.00,0.74
7326.00,0.74
7324.00,0.74
7322.00,0.74
7320.00,0.74
7318.00,0.74
7316.00,0.73
7314.00,0.73
7312.00,0.73
7310.00,0.73
7308.00,0.73
7306.00,0.73
7304.00,0.73
7302.00,0.73
7300.00,0.73
7298.00,0.73
7296.00,0.73
7294.00,0.73
7292.00,0.73
7290.00,0.73
7288.00,0.73
7286.00,0.73
7284.00,0.73
7282.00,0.73
7280.00,0.73
7278.00,0.73
7276.00,0.73
7274.00,0.73
7272.00,0.73
7270.00,0.73
7268.00,0.73
7266.00,0.73
7264.00,0.73
7262.00,0.73
7260.00,0.73
7258.00,0.73
7256.00,0.73
7254.00,0.73
7252.00,0.73
7250.00,0.73
7248.00,0.73
7246.00,0.73
7244.00,0.73
7242.00,0.73
7240.00,0.72
7238.00,0.72
7236.00,0.72
7234.00,0.72
7232.00,0.72
7230.00,0.72
7228.00,0.72
7226.00,0.72
7224.00,0.72
7222.00,0.72
7220.00,0.72
7218.00,0.72
7216.00,0.72
7214.00,0.72
7212.00,0.72
7210.00,0.72
7208.00,0.72
7206.00,0.72
7204.00,0.72
7202.00,0.72
7200.00,0.71
7198.00,0.71
7196.00,0.71
7194.00,0.71
7192.00,0.71
7190.00,0.71
7188.00,0.71
7186.00,0.71
7184.00,0.71
7182.00,0.71
7180.00,0.71
7178.00,0.71
7176.00,0.71
7174.00,0.71
7172.00,0.71
7170.00,0.71
7168.00,0.71
7166.00,0.71
7164.00,0.71
7162.00,0.70
7160.00,0.70
7158.00,0.70
7156.00,0.70
7154.00,0.70
7152.00,0.70
7150.00,0.70
7148.00,0.70
7146.00,0.70
7144.00,0.70
7142.00,0.69
7140.00,0.69
7138.00,0.69
7136.00,0.69
7134.00,0.69
7132.00,0.69
7130.00,0.69
7128.00,0.69
7126.00,0.69
7124.00,0.69
7122.00,0.69
7120.00,0.69
7118.00,0.69
7116.00,0.69
7114.00,0.69
7112.00,0.69
7110.00,0.69
7108.00,0.69
7106.00,0.69
7104.00,0.69
7102.00,0.69
7100.00,0.69
7098.00,0.69
7096.00,0.69
7094.00,0.69
7092.00,0.69
7090.00,0.69
7088.00,0.69
7086.00,0.69
7084.00,0.69
7082.00,0.69
7080.00,0.69
7078.00,0.69
7076.00,0.69
7074.00,0.69
7072.00,0.69
7070.00,0.69
7068.00,0.68
7066.00,0.68
7064.00,0.68
7062.00,0.68
7060.00,0.68
7058.00,0.68
7056.00,0.68
7054.00,0.68
7052.00,0.68
7050.00,0.68
7048.00,0.68
7046.00,0.68
7044.00,0.68
7042.00,0.68
7040.00,0.68
7038.00,0.68
7036.00,0.68
7034.00,0.68
7032.00,0.68
7030.00,0.68
7028.00,0.68
7026.00,0.68
7024.00,0.68
7022.00,0.68
7020.00,0.68
7018.00,0.68
7016.00,0.68
7014.00,0.68
7012.00,0.68
7010.00,0.67
7008.00,0.67
7006.00,0.67
7004.00,0.67
7002.00,0.67
7000.00,0.67
6998.00,0.67
6996.00,0.68
6994.00,0.68
6992.00,0.68
6990.00,0.68
6988.00,0.68
6986.00,0.68
6984.00,0.68
6982.00,0.68
6980.00,0.68
6978.00,0.68
6976.00,0.68
6974.00,0.68
6972.00,0.68
6970.00,0.68
6968.00,0.68
6966.00,0.68
6964.00,0.68
6962.00,0.68
6960.00,0.68
6958.00,0.68
6956.00,0.68
6954.00,0.68
6952.00,0.68
6950.00,0.68
6948.00,0.68
6946.00,0.68
6944.00,0.67
6942.00,0.67
6940.00,0.67
6938.00,0.67
6936.00,0.67
6934.00,0.68
6932.00,0.68
6930.00,0.68
6928.00,0.68
6926.00,0.68
6924.00,0.68
6922.00,0.67
6920.00,0.67
6918.00,0.67
6916.00,0.67
6914.00,0.67
6912.00,0.67
6910.00,0.67
6908.00,0.67
6906.00,0.67
6904.00,0.67
6902.00,0.68
6900.00,0.68
6898.00,0.68
6896.00,0.68
6894.00,0.68
6892.00,0.68
6890.00,0.68
6888.00,0.67
6886.00,0.67
6884.00,0.67
6882.00,0.67
6880.00,0.67
6878.00,0.67
6876.00,0.67
6874.00,0.67
6872.00,0.67
6870.00,0.67
6868.00,0.67
6866.00,0.67
6864.00,0.67
6862.00,0.67
6860.00,0.67
6858.00,0.67
6856.00,0.67
6854.00,0.67
6852.00,0.67
6850.00,0.67
6848.00,0.67
6846.00,0.67
6844.00,0.67
6842.00,0.67
6840.00,0.67
6838.00,0.67
6836.00,0.67
6834.00,0.67
6832.00,0.67
6830.00,0.67
6828.00,0.67
6826.00,0.67
6824.00,0.67
6822.00,0.67
6820.00,0.67
6818.00,0.67
6816.00,0.67
6814.00,0.67
6812.00,0.67
6810.00,0.67
6808.00,0.67
6806.00,0.67
6804.00,0.67
6802.00,0.67
6800.00,0.67
6798.00,0.67
6796.00,0.67
6794.00,0.67
6792.00,0.67
6790.00,0.67
6788.00,0.67
6786.00,0.67
6784.00,0.67
6782.00,0.67
6780.00,0.67
6778.00,0.67
6776.00,0.67
6774.00,0.67
6772.00,0.67
6770.00,0.67
6768.00,0.67
6766.00,0.67
6764.00,0.67
6762.00,0.67
6760.00,0.67
6758.00,0.67
6756.00,0.67
6754.00,0.68
6752.00,0.68
6750.00,0.68
6748.00,0.68
6746.00,0.68
6744.00,0.68
6742.00,0.68
6740.00,0.68
6738.00,0.68
6736.00,0.68
6734.00,0.68
6732.00,0.68
6730.00,0.68
6728.00,0.68
6726.00,0.68
6724.00,0.68
6722.00,0.68
6720.00,0.68
6718.00,0.68
6716.00,0.68
6714.00,0.68
6712.00,0.68
6710.00,0.68
6708.00,0.68
6706.00,0.68
6704.00,0.68
6702.00,0.68
6700.00,0.68
6698.00,0.68
6696.00,0.69
6694.00,0.69
6692.00,0.69
6690.00,0.69
6688.00,0.69
6686.00,0.69
6684.00,0.69
6682.00,0.69
6680.00,0.69
6678.00,0.69
6676.00,0.69
6674.00,0.69
6672.00,0.69
6670.00,0.69
6668.00,0.69
6666.00,0.69
6664.00,0.69
6662.00,0.69
6660.00,0.69
6658.00,0.69
6656.00,0.69
6654.00,0.69
6652.00,0.69
6650.00,0.69
6648.00,0.69
6646.00,0.69
6644.00,0.69
6642.00,0.70
6640.00,0.70
6638.00,0.70
6636.00,0.70
6634.00,0.70
6632.00,0.70
6630.00,0.69
6628.00,0.69
6626.00,0.69
6624.00,0.69
6622.00,0.69
6620.00,0.69
6618.00,0.69
6616.00,0.69
6614.00,0.70
6612.00,0.70
6610.00,0.70
6608.00,0.70
6606.00,0.70
6604.00,0.69
6602.00,0.69
6600.00,0.69
6598.00,0.69
6596.00,0.69
6594.00,0.69
6592.00,0.69
6590.00,0.69
6588.00,0.70
6586.00,0.70
6584.00,0.70
6582.00,0.70
6580.00,0.70
6578.00,0.70
6576.00,0.70
6574.00,0.70
6572.00,0.71
6570.00,0.71
6568.00,0.71
6566.00,0.71
6564.00,0.71
6562.00,0.71
6560.00,0.71
6558.00,0.70
6556.00,0.70
6554.00,0.70
6552.00,0.70
6550.00,0.70
6548.00,0.70
6546.00,0.69
6544.00,0.69
6542.00,0.70
6540.00,0.70
6538.00,0.70
6536.00,0.70
6534.00,0.70
6532.00,0.70
6530.00,0.71
6528.00,0.71
6526.00,0.71
6524.00,0.71
6522.00,0.71
6520.00,0.71
6518.00,0.71
6516.00,0.71
6514.00,0.71
6512.00,0.71
6510.00,0.71
6508.00,0.71
6506.00,0.71
6504.00,0.71
6502.00,0.71
6500.00,0.71
6498.00,0.71
6496.00,0.71
6494.00,0.71
6492.00,0.71
6490.00,0.71
6488.00,0.71
6486.00,0.71
6484.00,0.71
6482.00,0.71
6480.00,0.71
6478.00,0.71
6476.00,0.71
6474.00,0.71
6472.00,0.71
6470.00,0.71
6468.00,0.71
6466.00,0.71
6464.00,0.71
6462.00,0.71
6460.00,0.71
6458.00,0.71
6456.00,0.71
6454.00,0.71
6452.00,0.71
6450.00,0.71
6448.00,0.71
6446.00,0.71
6444.00,0.71
6442.00,0.71
6440.00,0.71
6438.00,0.71
6436.00,0.71
6434.00,0.71
6432.00,0.71
6430.00,0.71
6428.00,0.71
6426.00,0.71
6424.00,0.71
6422.00,0.71
6420.00,0.71
6418.00,0.71
6416.00,0.71
6414.00,0.71
6412.00,0.71
6410.00,0.71
6408.00,0.71
6406.00,0.71
6404.00,0.72
6402.00,0.72
6400.00,0.72
6398.00,0.72
6396.00,0.71
6394.00,0.71
6392.00,0.71
6390.00,0.71
6388.00,0.71
6386.00,0.71
6384.00,0.71
6382.00,0.71
6380.00,0.71
6378.00,0.71
6376.00,0.71
6374.00,0.71
6372.00,0.72
6370.00,0.72
6368.00,0.72
6366.00,0.72
6364.00,0.72
6362.00,0.72
6360.00,0.72
6358.00,0.72
6356.00,0.72
6354.00,0.72
6352.00,0.72
6350.00,0.72
6348.00,0.72
6346.00,0.72
6344.00,0.72
6342.00,0.72
6340.00,0.72
6338.00,0.72
6336.00,0.72
6334.00,0.72
6332.00,0.72
6330.00,0.72
6328.00,0.72
6326.00,0.72
6324.00,0.72
6322.00,0.72
6320.00,0.72
6318.00,0.72
6316.00,0.72
6314.00,0.72
6312.00,0.72
6310.00,0.72
6308.00,0.72
6306.00,0.72
6304.00,0.72
6302.00,0.72
6300.00,0.72
6298.00,0.72
6296.00,0.72
6294.00,0.72
6292.00,0.72
6290.00,0.72
6288.00,0.73
6286.00,0.73
6284.00,0.73
6282.00,0.73
6280.00,0.73
6278.00,0.73
6276.00,0.73
6274.00,0.73
6272.00,0.72
6270.00,0.72
6268.00,0.72
6266.00,0.72
6264.00,0.72
6262.00,0.72
6260.00,0.72
6258.00,0.72
6256.00,0.73
6254.00,0.72
6252.00,0.72
6250.00,0.72
6248.00,0.72
6246.00,0.72
6244.00,0.72
6242.00,0.72
6240.00,0.72
6238.00,0.72
6236.00,0.72
6234.00,0.73
6232.00,0.73
6230.00,0.73
6228.00,0.73
6226.00,0.73
6224.00,0.73
6222.00,0.73
6220.00,0.73
6218.00,0.73
6216.00,0.73
6214.00,0.73
6212.00,0.73
6210.00,0.73
6208.00,0.73
6206.00,0.73
6204.00,0.73
6202.00,0.73
6200.00,0.73
6198.00,0.73
6196.00,0.73
6194.00,0.73
6192.00,0.73
6190.00,0.73
6188.00,0.73
6186.00,0.73
6184.00,0.73
6182.00,0.73
6180.00,0.73
6178.00,0.73
6176.00,0.73
6174.00,0.73
6172.00,0.73
6170.00,0.73
6168.00,0.73
6166.00,0.73
6164.00,0.73
6162.00,0.73
6160.00,0.73
6158.00,0.73
6156.00,0.73
6154.00,0.73
6152.00,0.73
6150.00,0.73
6148.00,0.73
6146.00,0.73
6144.00,0.73
6142.00,0.73
6140.00,0.74
6138.00,0.74
6136.00,0.74
6134.00,0.74
6132.00,0.75
6130.00,0.75
6128.00,0.75
6126.00,0.75
6124.00,0.75
6122.00,0.75
6120.00,0.75
6118.00,0.74
6116.00,0.74
6114.00,0.74
6112.00,0.74
6110.00,0.74
6108.00,0.74
6106.00,0.74
6104.00,0.74
6102.00,0.74
6100.00,0.74
6098.00,0.74
6096.00,0.74
6094.00,0.74
6092.00,0.74
6090.00,0.74
6088.00,0.74
6086.00,0.74
6084.00,0.74
6082.00,0.74
6080.00,0.74
6078.00,0.74
6076.00,0.74
6074.00,0.74
6072.00,0.74
6070.00,0.74
6068.00,0.74
6066.00,0.75
6064.00,0.75
6062.00,0.75
6060.00,0.75
6058.00,0.75
6056.00,0.75
6054.00,0.75
6052.00,0.75
6050.00,0.75
6048.00,0.75
6046.00,0.75
6044.00,0.75
6042.00,0.75
6040.00,0.75
6038.00,0.75
6036.00,0.75
6034.00,0.75
6032.00,0.75
6030.00,0.75
6028.00,0.75
6026.00,0.75
6024.00,0.75
6022.00,0.75
6020.00,0.75
6018.00,0.75
6016.00,0.75
6014.00,0.75
6012.00,0.75
6010.00,0.75
6008.00,0.75
6006.00,0.75
6004.00,0.75
6002.00,0.75
6000.00,0.75
5998.00,0.75
5996.00,0.75
5994.00,0.74
5992.00,0.74
5990.00,0.74
5988.00,0.74
5986.00,0.74
5984.00,0.74
5982.00,0.74
5980.00,0.74
5978.00,0.74
5976.00,0.74
5974.00,0.74
5972.00,0.74
5970.00,0.74
5968.00,0.74
5966.00,0.74
5964.00,0.74
5962.00,0.74
5960.00,0.74
5958.00,0.74
5956.00,0.73
5954.00,0.73
5952.00,0.73
5950.00,0.73
5948.00,0.73
5946.00,0.73
5944.00,0.72
5942.00,0.72
5940.00,0.72
5938.00,0.72
5936.00,0.72
5934.00,0.72
5932.00,0.72
5930.00,0.72
5928.00,0.72
5926.00,0.72
5924.00,0.72
5922.00,0.72
5920.00,0.72
5918.00,0.72
5916.00,0.72
5914.00,0.72
5912.00,0.72
5910.00,0.72
5908.00,0.72
5906.00,0.72
5904.00,0.72
5902.00,0.72
5900.00,0.72
5898.00,0.72
5896.00,0.72
5894.00,0.72
5892.00,0.72
5890.00,0.72
5888.00,0.72
5886.00,0.72
5884.00,0.72
5882.00,0.72
5880.00,0.73
5878.00,0.73
5876.00,0.73
5874.00,0.73
5872.00,0.73
5870.00,0.73
5868.00,0.73
5866.00,0.73
5864.00,0.73
5862.00,0.73
5860.00,0.73
5858.00,0.73
5856.00,0.73
5854.00,0.73
5852.00,0.73
5850.00,0.73
5848.00,0.73
5846.00,0.73
5844.00,0.73
5842.00,0.73
5840.00,0.73
5838.00,0.73
5836.00,0.73
5834.00,0.73
5832.00,0.73
5830.00,0.73
5828.00,0.73
5826.00,0.73
5824.00,0.73
5822.00,0.73
5820.00,0.73
5818.00,0.73
5816.00,0.73
5814.00,0.73
5812.00,0.73
5810.00,0.73
5808.00,0.73
5806.00,0.73
5804.00,0.73
5802.00,0.73
5800.00,0.73
5798.00,0.73
5796.00,0.73
5794.00,0.73
5792.00,0.73
5790.00,0.73
5788.00,0.73
5786.00,0.73
5784.00,0.73
5782.00,0.72
5780.00,0.72
5778.00,0.72
5776.00,0.72
5774.00,0.72
5772.00,0.72
5770.00,0.72
5768.00,0.72
5766.00,0.72
5764.00,0.72
5762.00,0.73
5760.00,0.73
5758.00,0.73
5756.00,0.73
5754.00,0.73
5752.00,0.73
5750.00,0.73
5748.00,0.73
5746.00,0.73
5744.00,0.73
5742.00,0.74
5740.00,0.74
5738.00,0.74
5736.00,0.74
5734.00,0.74
5732.00,0.74
5730.00,0.74
5728.00,0.74
5726.00,0.74
5724.00,0.74
5722.00,0.74
5720.00,0.74
5718.00,0.74
5716.00,0.74
5714.00,0.74
5712.00,0.74
5710.00,0.74
5708.00,0.74
5706.00,0.74
5704.00,0.74
5702.00,0.74
5700.00,0.74
5698.00,0.74
5696.00,0.74
5694.00,0.74
5692.00,0.74
5690.00,0.74
5688.00,0.74
5686.00,0.74
5684.00,0.74
5682.00,0.74
5680.00,0.74
5678.00,0.74
5676.00,0.74
5674.00,0.73
5672.00,0.73
5670.00,0.73
5668.00,0.73
5666.00,0.73
5664.00,0.74
5662.00,0.74
5660.00,0.74
5658.00,0.74
5656.00,0.74
5654.00,0.74
5652.00,0.74
5650.00,0.74
5648.00,0.74
5646.00,0.74
5644.00,0.74
5642.00,0.74
5640.00,0.74
5638.00,0.74
5636.00,0.74
5634.00,0.74
5632.00,0.74
5630.00,0.74
5628.00,0.74
5626.00,0.74
5624.00,0.74
5622.00,0.74
5620.00,0.74
5618.00,0.74
5616.00,0.74
5614.00,0.74
5612.00,0.75
5610.00,0.75
5608.00,0.75
5606.00,0.75
5604.00,0.75
5602.00,0.75
5600.00,0.75
5598.00,0.75
5596.00,0.75
5594.00,0.75
5592.00,0.75
5590.00,0.75
5588.00,0.75
5586.00,0.75
5584.00,0.75
5582.00,0.75
5580.00,0.75
5578.00,0.75
5576.00,0.75
5574.00,0.75
5572.00,0.75
5570.00,0.75
5568.00,0.75
5566.00,0.75
5564.00,0.75
5562.00,0.75
5560.00,0.75
5558.00,0.75
5556.00,0.75
5554.00,0.75
5552.00,0.75
5550.00,0.75
5548.00,0.75
5546.00,0.75
5544.00,0.75
5542.00,0.75
5540.00,0.75
5538.00,0.75
5536.00,0.75
5534.00,0.75
5532.00,0.75
5530.00,0.75
5528.00,0.75
5526.00,0.75
5524.00,0.76
5522.00,0.76
5520.00,0.76
5518.00,0.76
5516.00,0.75
5514.00,0.75
5512.00,0.75
5510.00,0.75
5508.00,0.75
5506.00,0.75
5504.00,0.75
5502.00,0.75
5500.00,0.75
5498.00,0.76
5496.00,0.76
5494.00,0.76
5492.00,0.76
5490.00,0.76
5488.00,0.76
5486.00,0.76
5484.00,0.76
5482.00,0.76
5480.00,0.76
5478.00,0.76
5476.00,0.76
5474.00,0.76
5472.00,0.76
5470.00,0.76
5468.00,0.76
5466.00,0.76
5464.00,0.76
5462.00,0.76
5460.00,0.76
5458.00,0.76
5456.00,0.76
5454.00,0.76
5452.00,0.76
5450.00,0.76
5448.00,0.76
5446.00,0.76
5444.00,0.76
5442.00,0.76
5440.00,0.76
5438.00,0.76
5436.00,0.76
5434.00,0.76
5432.00,0.76
5430.00,0.76
5428.00,0.76
5426.00,0.76
5424.00,0.76
5422.00,0.76
5420.00,0.76
5418.00,0.76
5416.00,0.76
5414.00,0.76
5412.00,0.76
5410.00,0.76
5408.00,0.76
5406.00,0.76
5404.00,0.76
5402.00,0.76
5400.00,0.76
5398.00,0.76
5396.00,0.76
5394.00,0.76
5392.00,0.76
5390.00,0.76
5388.00,0.76
5386.00,0.76
5384.00,0.76
5382.00,0.76
5380.00,0.76
5378.00,0.76
5376.00,0.76
5374.00,0.76
5372.00,0.76
5370.00,0.76
5368.00,0.76
5366.00,0.76
5364.00,0.76
5362.00,0.75
5360.00,0.75
5358.00,0.75
5356.00,0.75
5354.00,0.75
5352.00,0.75
5350.00,0.75
5348.00,0.75
5346.00,0.75
5344.00,0.74
5342.00,0.74
5340.00,0.74
5338.00,0.74
5336.00,0.74
5334.00,0.73
5332.00,0.73
5330.00,0.73
5328.00,0.73
5326.00,0.73
5324.00,0.73
5322.00,0.72
5320.00,0.72
5318.00,0.72
5316.00,0.72
5314.00,0.71
5312.00,0.71
5310.00,0.71
5308.00,0.70
5306.00,0.70
5304.00,0.70
5302.00,0.70
5300.00,0.70
5298.00,0.69
5296.00,0.69
5294.00,0.69
5292.00,0.69
5290.00,0.68
5288.00,0.68
5286.00,0.68
5284.00,0.68
5282.00,0.67
5280.00,0.67
5278.00,0.67
5276.00,0.67
5274.00,0.67
5272.00,0.66
5270.00,0.66
5268.00,0.66
5266.00,0.66
5264.00,0.66
5262.00,0.65
5260.00,0.65
5258.00,0.65
5256.00,0.65
5254.00,0.65
5252.00,0.65
5250.00,0.64
5248.00,0.64
5246.00,0.64
5244.00,0.64
5242.00,0.64
5240.00,0.64
5238.00,0.64
5236.00,0.64
5234.00,0.63
5232.00,0.63
5230.00,0.63
5228.00,0.63
5226.00,0.63
5224.00,0.63
5222.00,0.63
5220.00,0.63
5218.00,0.62
5216.00,0.62
5214.00,0.62
5212.00,0.62
5210.00,0.62
5208.00,0.62
5206.00,0.62
5204.00,0.62
5202.00,0.62
5200.00,0.61
5198.00,0.61
5196.00,0.61
5194.00,0.61
5192.00,0.61
5190.00,0.61
5188.00,0.61
5186.00,0.61
5184.00,0.61
5182.00,0.61
5180.00,0.61
5178.00,0.61
5176.00,0.61
5174.00,0.61
5172.00,0.61
5170.00,0.61
5168.00,0.61
5166.00,0.61
5164.00,0.61
5162.00,0.61
5160.00,0.61
5158.00,0.61
5156.00,0.62
5154.00,0.62
5152.00,0.62
5150.00,0.62
5148.00,0.62
5146.00,0.62
5144.00,0.62
5142.00,0.62
5140.00,0.62
5138.00,0.62
5136.00,0.62
5134.00,0.62
5132.00,0.62
5130.00,0.62
5128.00,0.62
5126.00,0.62
5124.00,0.62
5122.00,0.62
5120.00,0.63
5118.00,0.63
5116.00,0.63
5114.00,0.63
5112.00,0.63
5110.00,0.63
5108.00,0.63
5106.00,0.63
5104.00,0.64
5102.00,0.64
5100.00,0.64
5098.00,0.64
5096.00,0.64
5094.00,0.64
5092.00,0.64
5090.00,0.64
5088.00,0.64
5086.00,0.64
5084.00,0.65
5082.00,0.65
5080.00,0.65
5078.00,0.65
5076.00,0.65
5074.00,0.65
5072.00,0.65
5070.00,0.65
5068.00,0.65
5066.00,0.65
5064.00,0.66
5062.00,0.66
5060.00,0.66
5058.00,0.66
5056.00,0.66
5054.00,0.66
5052.00,0.66
5050.00,0.66
5048.00,0.66
5046.00,0.66
5044.00,0.66
5042.00,0.67
5040.00,0.67
5038.00,0.67
5036.00,0.67
5034.00,0.67
5032.00,0.67
5030.00,0.67
5028.00,0.67
5026.00,0.67
5024.00,0.67
5022.00,0.67
5020.00,0.67
5018.00,0.68
5016.00,0.68
5014.00,0.68
5012.00,0.68
5010.00,0.68
5008.00,0.68
5006.00,0.68
5004.00,0.69
5002.00,0.69
5000.00,0.69
4998.00,0.69
4996.00,0.69
4994.00,0.69
4992.00,0.69
4990.00,0.69
4988.00,0.69
4986.00,0.69
4984.00,0.69
4982.00,0.69
4980.00,0.69
4978.00,0.70
4976.00,0.70
4974.00,0.70
4972.00,0.70
4970.00,0.70
4968.00,0.70
4966.00,0.70
4964.00,0.70
4962.00,0.70
4960.00,0.70
4958.00,0.70
4956.00,0.70
4954.00,0.70
4952.00,0.70
4950.00,0.70
4948.00,0.70
4946.00,0.70
4944.00,0.70
4942.00,0.70
4940.00,0.70
4938.00,0.70
4936.00,0.70
4934.00,0.70
4932.00,0.70
4930.00,0.70
4928.00,0.71
4926.00,0.71
4924.00,0.71
4922.00,0.71
4920.00,0.71
4918.00,0.71
4916.00,0.71
4914.00,0.71
4912.00,0.71
4910.00,0.71
4908.00,0.71
4906.00,0.71
4904.00,0.71
4902.00,0.71
4900.00,0.71
4898.00,0.71
4896.00,0.71
4894.00,0.71
4892.00,0.71
4890.00,0.71
4888.00,0.71
4886.00,0.71
4884.00,0.71
4882.00,0.71
4880.00,0.71
4878.00,0.71
4876.00,0.71
4874.00,0.71
4872.00,0.71
4870.00,0.71
4868.00,0.71
4866.00,0.71
4864.00,0.71
4862.00,0.71
4860.00,0.71
4858.00,0.71
4856.00,0.71
4854.00,0.71
4852.00,0.71
4850.00,0.71
4848.00,0.71
4846.00,0.71
4844.00,0.71
4842.00,0.71
4840.00,0.71
4838.00,0.71
4836.00,0.71
4834.00,0.72
4832.00,0.72
4830.00,0.72
4828.00,0.72
4826.00,0.72
4824.00,0.72
4822.00,0.72
4820.00,0.72
4818.00,0.72
4816.00,0.72
4814.00,0.72
4812.00,0.72
4810.00,0.72
4808.00,0.72
4806.00,0.72
4804.00,0.72
4802.00,0.72
4800.00,0.72
4798.00,0.72
4796.00,0.72
4794.00,0.72
4792.00,0.72
4790.00,0.72
4788.00,0.72
4786.00,0.73
4784.00,0.73
4782.00,0.73
4780.00,0.73
4778.00,0.73
4776.00,0.73
4774.00,0.73
4772.00,0.73
4770.00,0.73
4768.00,0.73
4766.00,0.73
4764.00,0.73
4762.00,0.73
4760.00,0.73
4758.00,0.73
4756.00,0.73
4754.00,0.73
4752.00,0.73
4750.00,0.73
4748.00,0.73
4746.00,0.73
4744.00,0.73
4742.00,0.74
4740.00,0.74
4738.00,0.74
4736.00,0.74
4734.00,0.74
4732.00,0.74
4730.00,0.74
4728.00,0.74
4726.00,0.74
4724.00,0.74
4722.00,0.74
4720.00,0.74
4718.00,0.74
4716.00,0.74
4714.00,0.74
4712.00,0.74
4710.00,0.74
4708.00,0.75
4706.00,0.75
4704.00,0.75
4702.00,0.75
4700.00,0.75
4698.00,0.75
4696.00,0.74
4694.00,0.74
4692.00,0.74
4690.00,0.75
4688.00,0.75
4686.00,0.75
4684.00,0.75
4682.00,0.75
4680.00,0.75
4678.00,0.75
4676.00,0.75
4674.00,0.75
4672.00,0.75
4670.00,0.75
4668.00,0.75
4666.00,0.75
4664.00,0.75
4662.00,0.75
4660.00,0.75
4658.00,0.75
4656.00,0.75
4654.00,0.75
4652.00,0.75
4650.00,0.75
4648.00,0.75
4646.00,0.76
4644.00,0.76
4642.00,0.76
4640.00,0.76
4638.00,0.75
4636.00,0.75
4634.00,0.75
4632.00,0.75
4630.00,0.75
4628.00,0.75
4626.00,0.75
4624.00,0.76
4622.00,0.76
4620.00,0.76
4618.00,0.76
4616.00,0.76
4614.00,0.76
4612.00,0.76
4610.00,0.76
4608.00,0.76
4606.00,0.76
4604.00,0.76
4602.00,0.76
4600.00,0.76
4598.00,0.76
4596.00,0.76
4594.00,0.76
4592.00,0.76
4590.00,0.76
4588.00,0.75
4586.00,0.75
4584.00,0.75
4582.00,0.75
4580.00,0.75
4578.00,0.75
4576.00,0.75
4574.00,0.76
4572.00,0.76
4570.00,0.76
4568.00,0.76
4566.00,0.76
4564.00,0.76
4562.00,0.76
4560.00,0.75
4558.00,0.75
4556.00,0.75
4554.00,0.75
4552.00,0.75
4550.00,0.75
4548.00,0.75
4546.00,0.76
4544.00,0.76
4542.00,0.76
4540.00,0.76
4538.00,0.76
4536.00,0.76
4534.00,0.76
4532.00,0.76
4530.00,0.76
4528.00,0.76
4526.00,0.76
4524.00,0.76
4522.00,0.76
4520.00,0.76
4518.00,0.76
4516.00,0.75
4514.00,0.75
4512.00,0.75
4510.00,0.75
4508.00,0.75
4506.00,0.76
4504.00,0.76
4502.00,0.76
4500.00,0.76
4498.00,0.76
4496.00,0.76
4494.00,0.76
4492.00,0.76
4490.00,0.76
4488.00,0.76
4486.00,0.76
4484.00,0.76
4482.00,0.76
4480.00,0.76
4478.00,0.76
4476.00,0.76
4474.00,0.76
4472.00,0.76
4470.00,0.75
4468.00,0.75
4466.00,0.75
4464.00,0.75
4462.00,0.75
4460.00,0.75
4458.00,0.75
4456.00,0.75
4454.00,0.75
4452.00,0.75
4450.00,0.74
4448.00,0.74
4446.00,0.74
4444.00,0.74
4442.00,0.73
4440.00,0.73
4438.00,0.73
4436.00,0.73
4434.00,0.72
4432.00,0.72
4430.00,0.72
4428.00,0.71
4426.00,0.71
4424.00,0.71
4422.00,0.70
4420.00,0.70
4418.00,0.70
4416.00,0.69
4414.00,0.69
4412.00,0.69
4410.00,0.69
4408.00,0.69
4406.00,0.69
4404.00,0.69
4402.00,0.69
4400.00,0.69
4398.00,0.69
4396.00,0.70
4394.00,0.70
4392.00,0.70
4390.00,0.70
4388.00,0.70
4386.00,0.71
4384.00,0.71
4382.00,0.71
4380.00,0.71
4378.00,0.71
4376.00,0.72
4374.00,0.72
4372.00,0.72
4370.00,0.72
4368.00,0.72
4366.00,0.72
4364.00,0.72
4362.00,0.71
4360.00,0.71
4358.00,0.71
4356.00,0.71
4354.00,0.71
4352.00,0.70
4350.00,0.70
4348.00,0.70
4346.00,0.70
4344.00,0.70
4342.00,0.69
4340.00,0.69
4338.00,0.69
4336.00,0.69
4334.00,0.69
4332.00,0.69
4330.00,0.69
4328.00,0.70
4326.00,0.70
4324.00,0.70
4322.00,0.71
4320.00,0.71
4318.00,0.71
4316.00,0.72
4314.00,0.72
4312.00,0.72
4310.00,0.73
4308.00,0.73
4306.00,0.73
4304.00,0.73
4302.00,0.74
4300.00,0.74
4298.00,0.74
4296.00,0.74
4294.00,0.74
4292.00,0.75
4290.00,0.75
4288.00,0.75
4286.00,0.75
4284.00,0.75
4282.00,0.75
4280.00,0.75
4278.00,0.75
4276.00,0.75
4274.00,0.75
4272.00,0.75
4270.00,0.75
4268.00,0.75
4266.00,0.74
4264.00,0.74
4262.00,0.74
4260.00,0.74
4258.00,0.73
4256.00,0.73
4254.00,0.73
4252.00,0.73
4250.00,0.73
4248.00,0.73
4246.00,0.74
4244.00,0.74
4242.00,0.74
4240.00,0.74
4238.00,0.75
4236.00,0.75
4234.00,0.75
4232.00,0.75
4230.00,0.75
4228.00,0.75
4226.00,0.76
4224.00,0.76
4222.00,0.76
4220.00,0.76
4218.00,0.76
4216.00,0.76
4214.00,0.76
4212.00,0.76
4210.00,0.76
4208.00,0.76
4206.00,0.76
4204.00,0.76
4202.00,0.76
4200.00,0.76
4198.00,0.76
4196.00,0.76
4194.00,0.76
4192.00,0.76
4190.00,0.76
4188.00,0.76
4186.00,0.76
4184.00,0.76
4182.00,0.76
4180.00,0.76
4178.00,0.76
4176.00,0.76
4174.00,0.75
4172.00,0.75
4170.00,0.75
4168.00,0.75
4166.00,0.75
4164.00,0.75
4162.00,0.76
4160.00,0.75
4158.00,0.75
4156.00,0.75
4154.00,0.75
4152.00,0.75
4150.00,0.75
4148.00,0.75
4146.00,0.75
4144.00,0.75
4142.00,0.75
4140.00,0.75
4138.00,0.75
4136.00,0.76
4134.00,0.76
4132.00,0.76
4130.00,0.76
4128.00,0.76
4126.00,0.76
4124.00,0.76
4122.00,0.76
4120.00,0.76
4118.00,0.76
4116.00,0.76
4114.00,0.76
4112.00,0.76
4110.00,0.75
4108.00,0.75
4106.00,0.75
4104.00,0.75
4102.00,0.75
4100.00,0.75
4098.00,0.75
4096.00,0.75
4094.00,0.75
4092.00,0.75
4090.00,0.75
4088.00,0.75
4086.00,0.75
4084.00,0.75
4082.00,0.75
4080.00,0.75
4078.00,0.75
4076.00,0.75
4074.00,0.75
4072.00,0.75
4070.00,0.75
4068.00,0.74
4066.00,0.74
4064.00,0.74
4062.00,0.74
4060.00,0.74
4058.00,0.74
4056.00,0.74
4054.00,0.74
4052.00,0.74
4050.00,0.75
4048.00,0.75
4046.00,0.75
4044.00,0.75
4042.00,0.75
4040.00,0.75
4038.00,0.75
4036.00,0.75
4034.00,0.75
4032.00,0.75
4030.00,0.75
4028.00,0.75
4026.00,0.74
4024.00,0.74
4022.00,0.75
4020.00,0.75
4018.00,0.75
4016.00,0.75
4014.00,0.76
4012.00,0.76
4010.00,0.76
4008.00,0.76
4006.00,0.76
4004.00,0.76
4002.00,0.76
4000.00,0.76
