创建为新数据集,样品 1306 用户 Administrator 日期 星期六, 八月 17 2019
cm-1,%T
10000.00,0.83
9998.00,0.83
9996.00,0.83
9994.00,0.83
9992.00,0.83
9990.00,0.82
9988.00,0.82
9986.00,0.82
9984.00,0.82
9982.00,0.82
9980.00,0.82
9978.00,0.82
9976.00,0.82
9974.00,0.82
9972.00,0.82
9970.00,0.82
9968.00,0.82
9966.00,0.82
9964.00,0.82
9962.00,0.82
9960.00,0.82
9958.00,0.82
9956.00,0.82
9954.00,0.82
9952.00,0.82
9950.00,0.81
9948.00,0.81
9946.00,0.81
9944.00,0.81
9942.00,0.80
9940.00,0.80
9938.00,0.80
9936.00,0.80
9934.00,0.79
9932.00,0.79
9930.00,0.79
9928.00,0.79
9926.00,0.78
9924.00,0.78
9922.00,0.78
9920.00,0.78
9918.00,0.78
9916.00,0.78
9914.00,0.78
9912.00,0.79
9910.00,0.79
9908.00,0.79
9906.00,0.79
9904.00,0.79
9902.00,0.80
9900.00,0.80
9898.00,0.80
9896.00,0.81
9894.00,0.81
9892.00,0.81
9890.00,0.81
9888.00,0.82
9886.00,0.82
9884.00,0.82
9882.00,0.82
9880.00,0.82
9878.00,0.82
9876.00,0.82
9874.00,0.82
9872.00,0.82
9870.00,0.82
9868.00,0.81
9866.00,0.81
9864.00,0.81
9862.00,0.81
9860.00,0.81
9858.00,0.81
9856.00,0.80
9854.00,0.80
9852.00,0.80
9850.00,0.80
9848.00,0.80
9846.00,0.80
9844.00,0.80
9842.00,0.80
9840.00,0.80
9838.00,0.80
9836.00,0.80
9834.00,0.80
9832.00,0.80
9830.00,0.80
9828.00,0.80
9826.00,0.80
9824.00,0.79
9822.00,0.79
9820.00,0.79
9818.00,0.79
9816.00,0.79
9814.00,0.79
9812.00,0.79
9810.00,0.79
9808.00,0.78
9806.00,0.78
9804.00,0.78
9802.00,0.78
9800.00,0.78
9798.00,0.78
9796.00,0.78
9794.00,0.78
9792.00,0.78
9790.00,0.78
9788.00,0.78
9786.00,0.78
9784.00,0.78
9782.00,0.78
9780.00,0.78
9778.00,0.78
9776.00,0.78
9774.00,0.78
9772.00,0.78
9770.00,0.78
9768.00,0.78
9766.00,0.78
9764.00,0.78
9762.00,0.78
9760.00,0.78
9758.00,0.78
9756.00,0.79
9754.00,0.79
9752.00,0.79
9750.00,0.79
9748.00,0.79
9746.00,0.79
9744.00,0.79
9742.00,0.79
9740.00,0.79
9738.00,0.79
9736.00,0.79
9734.00,0.79
9732.00,0.79
9730.00,0.79
9728.00,0.79
9726.00,0.80
9724.00,0.80
9722.00,0.80
9720.00,0.80
9718.00,0.80
9716.00,0.80
9714.00,0.80
9712.00,0.80
9710.00,0.80
9708.00,0.80
9706.00,0.80
9704.00,0.80
9702.00,0.80
9700.00,0.80
9698.00,0.80
9696.00,0.80
9694.00,0.80
9692.00,0.80
9690.00,0.80
9688.00,0.80
9686.00,0.80
9684.00,0.80
9682.00,0.80
9680.00,0.80
9678.00,0.80
9676.00,0.80
9674.00,0.79
9672.00,0.79
9670.00,0.79
9668.00,0.79
9666.00,0.79
9664.00,0.78
9662.00,0.78
9660.00,0.78
9658.00,0.78
9656.00,0.78
9654.00,0.78
9652.00,0.78
9650.00,0.78
9648.00,0.77
9646.00,0.77
9644.00,0.77
9642.00,0.77
9640.00,0.77
9638.00,0.77
9636.00,0.77
9634.00,0.77
9632.00,0.78
9630.00,0.78
9628.00,0.78
9626.00,0.78
9624.00,0.78
9622.00,0.78
9620.00,0.78
9618.00,0.78
9616.00,0.78
9614.00,0.79
9612.00,0.79
9610.00,0.79
9608.00,0.79
9606.00,0.79
9604.00,0.79
9602.00,0.79
9600.00,0.79
9598.00,0.79
9596.00,0.79
9594.00,0.79
9592.00,0.79
9590.00,0.79
9588.00,0.79
9586.00,0.79
9584.00,0.79
9582.00,0.79
9580.00,0.79
9578.00,0.79
9576.00,0.79
9574.00,0.79
9572.00,0.79
9570.00,0.79
9568.00,0.79
9566.00,0.79
9564.00,0.79
9562.00,0.79
9560.00,0.79
9558.00,0.79
9556.00,0.79
9554.00,0.79
9552.00,0.79
9550.00,0.79
9548.00,0.79
9546.00,0.79
9544.00,0.79
9542.00,0.79
9540.00,0.79
9538.00,0.79
9536.00,0.79
9534.00,0.79
9532.00,0.79
9530.00,0.79
9528.00,0.79
9526.00,0.79
9524.00,0.79
9522.00,0.79
9520.00,0.79
9518.00,0.79
9516.00,0.79
9514.00,0.79
9512.00,0.79
9510.00,0.79
9508.00,0.79
9506.00,0.79
9504.00,0.79
9502.00,0.79
9500.00,0.79
9498.00,0.79
9496.00,0.79
9494.00,0.79
9492.00,0.79
9490.00,0.79
9488.00,0.79
9486.00,0.79
9484.00,0.79
9482.00,0.79
9480.00,0.78
9478.00,0.78
9476.00,0.78
9474.00,0.78
9472.00,0.78
9470.00,0.78
9468.00,0.78
9466.00,0.78
9464.00,0.78
9462.00,0.78
9460.00,0.78
9458.00,0.78
9456.00,0.78
9454.00,0.78
9452.00,0.79
9450.00,0.79
9448.00,0.79
9446.00,0.79
9444.00,0.79
9442.00,0.79
9440.00,0.79
9438.00,0.79
9436.00,0.79
9434.00,0.79
9432.00,0.79
9430.00,0.79
9428.00,0.79
9426.00,0.79
9424.00,0.79
9422.00,0.79
9420.00,0.79
9418.00,0.79
9416.00,0.79
9414.00,0.79
9412.00,0.79
9410.00,0.79
9408.00,0.79
9406.00,0.79
9404.00,0.79
9402.00,0.79
9400.00,0.79
9398.00,0.79
9396.00,0.79
9394.00,0.79
9392.00,0.79
9390.00,0.79
9388.00,0.80
9386.00,0.80
9384.00,0.80
9382.00,0.80
9380.00,0.80
9378.00,0.80
9376.00,0.80
9374.00,0.80
9372.00,0.80
9370.00,0.80
9368.00,0.80
9366.00,0.80
9364.00,0.80
9362.00,0.80
9360.00,0.80
9358.00,0.80
9356.00,0.80
9354.00,0.80
9352.00,0.80
9350.00,0.80
9348.00,0.80
9346.00,0.80
9344.00,0.80
9342.00,0.80
9340.00,0.80
9338.00,0.80
9336.00,0.79
9334.00,0.79
9332.00,0.79
9330.00,0.79
9328.00,0.79
9326.00,0.80
9324.00,0.80
9322.00,0.80
9320.00,0.80
9318.00,0.80
9316.00,0.80
9314.00,0.80
9312.00,0.80
9310.00,0.80
9308.00,0.80
9306.00,0.80
9304.00,0.80
9302.00,0.80
9300.00,0.80
9298.00,0.80
9296.00,0.80
9294.00,0.80
9292.00,0.80
9290.00,0.80
9288.00,0.80
9286.00,0.80
9284.00,0.80
9282.00,0.80
9280.00,0.80
9278.00,0.80
9276.00,0.80
9274.00,0.80
9272.00,0.80
9270.00,0.80
9268.00,0.80
9266.00,0.80
9264.00,0.80
9262.00,0.80
9260.00,0.80
9258.00,0.79
9256.00,0.79
9254.00,0.79
9252.00,0.79
9250.00,0.79
9248.00,0.79
9246.00,0.79
9244.00,0.79
9242.00,0.79
9240.00,0.79
9238.00,0.79
9236.00,0.79
9234.00,0.79
9232.00,0.79
9230.00,0.79
9228.00,0.79
9226.00,0.79
9224.00,0.79
9222.00,0.79
9220.00,0.79
9218.00,0.79
9216.00,0.79
9214.00,0.79
9212.00,0.79
9210.00,0.79
9208.00,0.79
9206.00,0.79
9204.00,0.79
9202.00,0.80
9200.00,0.80
9198.00,0.80
9196.00,0.80
9194.00,0.80
9192.00,0.80
9190.00,0.80
9188.00,0.80
9186.00,0.80
9184.00,0.80
9182.00,0.80
9180.00,0.81
9178.00,0.81
9176.00,0.81
9174.00,0.81
9172.00,0.81
9170.00,0.81
9168.00,0.81
9166.00,0.81
9164.00,0.81
9162.00,0.81
9160.00,0.81
9158.00,0.81
9156.00,0.81
9154.00,0.81
9152.00,0.81
9150.00,0.81
9148.00,0.81
9146.00,0.81
9144.00,0.81
9142.00,0.81
9140.00,0.81
9138.00,0.81
9136.00,0.81
9134.00,0.81
9132.00,0.81
9130.00,0.81
9128.00,0.81
9126.00,0.81
9124.00,0.81
9122.00,0.81
9120.00,0.81
9118.00,0.81
9116.00,0.81
9114.00,0.81
9112.00,0.81
9110.00,0.81
9108.00,0.81
9106.00,0.81
9104.00,0.81
9102.00,0.81
9100.00,0.81
9098.00,0.81
9096.00,0.81
9094.00,0.81
9092.00,0.81
9090.00,0.81
9088.00,0.81
9086.00,0.81
9084.00,0.81
9082.00,0.81
9080.00,0.81
9078.00,0.81
9076.00,0.81
9074.00,0.81
9072.00,0.81
9070.00,0.81
9068.00,0.81
9066.00,0.82
9064.00,0.82
9062.00,0.82
9060.00,0.82
9058.00,0.82
9056.00,0.82
9054.00,0.82
9052.00,0.82
9050.00,0.82
9048.00,0.82
9046.00,0.82
9044.00,0.82
9042.00,0.82
9040.00,0.82
9038.00,0.82
9036.00,0.82
9034.00,0.82
9032.00,0.82
9030.00,0.81
9028.00,0.81
9026.00,0.81
9024.00,0.81
9022.00,0.81
9020.00,0.81
9018.00,0.81
9016.00,0.81
9014.00,0.81
9012.00,0.81
9010.00,0.81
9008.00,0.81
9006.00,0.80
9004.00,0.80
9002.00,0.80
9000.00,0.80
8998.00,0.80
8996.00,0.80
8994.00,0.80
8992.00,0.80
8990.00,0.80
8988.00,0.80
8986.00,0.80
8984.00,0.80
8982.00,0.80
8980.00,0.80
8978.00,0.80
8976.00,0.80
8974.00,0.80
8972.00,0.80
8970.00,0.80
8968.00,0.80
8966.00,0.80
8964.00,0.80
8962.00,0.80
8960.00,0.80
8958.00,0.80
8956.00,0.80
8954.00,0.80
8952.00,0.80
8950.00,0.80
8948.00,0.80
8946.00,0.80
8944.00,0.80
8942.00,0.80
8940.00,0.80
8938.00,0.80
8936.00,0.80
8934.00,0.80
8932.00,0.80
8930.00,0.80
8928.00,0.80
8926.00,0.80
8924.00,0.80
8922.00,0.80
8920.00,0.80
8918.00,0.80
8916.00,0.80
8914.00,0.80
8912.00,0.80
8910.00,0.80
8908.00,0.80
8906.00,0.81
8904.00,0.81
8902.00,0.81
8900.00,0.81
8898.00,0.81
8896.00,0.81
8894.00,0.81
8892.00,0.80
8890.00,0.80
8888.00,0.80
8886.00,0.80
8884.00,0.80
8882.00,0.80
8880.00,0.80
8878.00,0.80
8876.00,0.80
8874.00,0.80
8872.00,0.80
8870.00,0.80
8868.00,0.80
8866.00,0.80
8864.00,0.80
8862.00,0.80
8860.00,0.80
8858.00,0.80
8856.00,0.80
8854.00,0.80
8852.00,0.80
8850.00,0.80
8848.00,0.80
8846.00,0.80
8844.00,0.80
8842.00,0.80
8840.00,0.80
8838.00,0.80
8836.00,0.80
8834.00,0.80
8832.00,0.80
8830.00,0.81
8828.00,0.81
8826.00,0.81
8824.00,0.81
8822.00,0.81
8820.00,0.81
8818.00,0.81
8816.00,0.81
8814.00,0.81
8812.00,0.81
8810.00,0.81
8808.00,0.80
8806.00,0.80
8804.00,0.80
8802.00,0.80
8800.00,0.80
8798.00,0.80
8796.00,0.80
8794.00,0.80
8792.00,0.80
8790.00,0.80
8788.00,0.80
8786.00,0.80
8784.00,0.80
8782.00,0.80
8780.00,0.80
8778.00,0.80
8776.00,0.80
8774.00,0.80
8772.00,0.80
8770.00,0.80
8768.00,0.80
8766.00,0.80
8764.00,0.80
8762.00,0.80
8760.00,0.80
8758.00,0.80
8756.00,0.80
8754.00,0.80
8752.00,0.80
8750.00,0.80
8748.00,0.80
8746.00,0.80
8744.00,0.80
8742.00,0.80
8740.00,0.80
8738.00,0.80
8736.00,0.80
8734.00,0.80
8732.00,0.80
8730.00,0.80
8728.00,0.80
8726.00,0.80
8724.00,0.80
8722.00,0.80
8720.00,0.80
8718.00,0.80
8716.00,0.80
8714.00,0.80
8712.00,0.80
8710.00,0.80
8708.00,0.80
8706.00,0.80
8704.00,0.80
8702.00,0.80
8700.00,0.80
8698.00,0.80
8696.00,0.80
8694.00,0.80
8692.00,0.80
8690.00,0.80
8688.00,0.80
8686.00,0.80
8684.00,0.80
8682.00,0.80
8680.00,0.80
8678.00,0.80
8676.00,0.80
8674.00,0.80
8672.00,0.80
8670.00,0.80
8668.00,0.80
8666.00,0.80
8664.00,0.80
8662.00,0.80
8660.00,0.80
8658.00,0.80
8656.00,0.81
8654.00,0.81
8652.00,0.81
8650.00,0.81
8648.00,0.81
8646.00,0.81
8644.00,0.81
8642.00,0.81
8640.00,0.81
8638.00,0.81
8636.00,0.81
8634.00,0.81
8632.00,0.81
8630.00,0.81
8628.00,0.81
8626.00,0.81
8624.00,0.81
8622.00,0.81
8620.00,0.81
8618.00,0.80
8616.00,0.80
8614.00,0.80
8612.00,0.80
8610.00,0.80
8608.00,0.80
8606.00,0.80
8604.00,0.80
8602.00,0.79
8600.00,0.79
8598.00,0.79
8596.00,0.79
8594.00,0.79
8592.00,0.79
8590.00,0.79
8588.00,0.79
8586.00,0.79
8584.00,0.79
8582.00,0.79
8580.00,0.79
8578.00,0.79
8576.00,0.79
8574.00,0.79
8572.00,0.79
8570.00,0.79
8568.00,0.79
8566.00,0.79
8564.00,0.79
8562.00,0.79
8560.00,0.79
8558.00,0.79
8556.00,0.79
8554.00,0.79
8552.00,0.79
8550.00,0.78
8548.00,0.78
8546.00,0.78
8544.00,0.78
8542.00,0.78
8540.00,0.78
8538.00,0.78
8536.00,0.78
8534.00,0.78
8532.00,0.78
8530.00,0.78
8528.00,0.78
8526.00,0.78
8524.00,0.78
8522.00,0.78
8520.00,0.78
8518.00,0.78
8516.00,0.78
8514.00,0.78
8512.00,0.78
8510.00,0.78
8508.00,0.78
8506.00,0.78
8504.00,0.78
8502.00,0.78
8500.00,0.78
8498.00,0.78
8496.00,0.78
8494.00,0.78
8492.00,0.78
8490.00,0.78
8488.00,0.78
8486.00,0.78
8484.00,0.78
8482.00,0.78
8480.00,0.78
8478.00,0.78
8476.00,0.78
8474.00,0.78
8472.00,0.78
8470.00,0.78
8468.00,0.78
8466.00,0.78
8464.00,0.78
8462.00,0.78
8460.00,0.78
8458.00,0.78
8456.00,0.78
8454.00,0.78
8452.00,0.78
8450.00,0.78
8448.00,0.78
8446.00,0.78
8444.00,0.78
8442.00,0.78
8440.00,0.78
8438.00,0.78
8436.00,0.78
8434.00,0.78
8432.00,0.78
8430.00,0.78
8428.00,0.78
8426.00,0.79
8424.00,0.79
8422.00,0.79
8420.00,0.79
8418.00,0.79
8416.00,0.79
8414.00,0.79
8412.00,0.79
8410.00,0.79
8408.00,0.79
8406.00,0.79
8404.00,0.79
8402.00,0.79
8400.00,0.79
8398.00,0.79
8396.00,0.79
8394.00,0.79
8392.00,0.79
8390.00,0.79
8388.00,0.78
8386.00,0.78
8384.00,0.78
8382.00,0.78
8380.00,0.78
8378.00,0.78
8376.00,0.78
8374.00,0.78
8372.00,0.78
8370.00,0.78
8368.00,0.79
8366.00,0.79
8364.00,0.79
8362.00,0.79
8360.00,0.79
8358.00,0.79
8356.00,0.79
8354.00,0.79
8352.00,0.79
8350.00,0.79
8348.00,0.79
8346.00,0.79
8344.00,0.79
8342.00,0.79
8340.00,0.79
8338.00,0.79
8336.00,0.79
8334.00,0.79
8332.00,0.79
8330.00,0.79
8328.00,0.79
8326.00,0.79
8324.00,0.79
8322.00,0.79
8320.00,0.79
8318.00,0.79
8316.00,0.79
8314.00,0.79
8312.00,0.79
8310.00,0.79
8308.00,0.79
8306.00,0.79
8304.00,0.79
8302.00,0.79
8300.00,0.79
8298.00,0.79
8296.00,0.79
8294.00,0.79
8292.00,0.79
8290.00,0.79
8288.00,0.79
8286.00,0.80
8284.00,0.80
8282.00,0.80
8280.00,0.80
8278.00,0.80
8276.00,0.80
8274.00,0.80
8272.00,0.80
8270.00,0.80
8268.00,0.80
8266.00,0.80
8264.00,0.80
8262.00,0.80
8260.00,0.80
8258.00,0.80
8256.00,0.80
8254.00,0.80
8252.00,0.80
8250.00,0.80
8248.00,0.80
8246.00,0.80
8244.00,0.80
8242.00,0.80
8240.00,0.81
8238.00,0.81
8236.00,0.81
8234.00,0.81
8232.00,0.81
8230.00,0.81
8228.00,0.81
8226.00,0.81
8224.00,0.81
8222.00,0.81
8220.00,0.81
8218.00,0.81
8216.00,0.81
8214.00,0.81
8212.00,0.81
8210.00,0.81
8208.00,0.81
8206.00,0.81
8204.00,0.81
8202.00,0.81
8200.00,0.81
8198.00,0.81
8196.00,0.81
8194.00,0.81
8192.00,0.81
8190.00,0.81
8188.00,0.81
8186.00,0.81
8184.00,0.81
8182.00,0.81
8180.00,0.80
8178.00,0.80
8176.00,0.80
8174.00,0.80
8172.00,0.80
8170.00,0.80
8168.00,0.80
8166.00,0.80
8164.00,0.80
8162.00,0.80
8160.00,0.80
8158.00,0.80
8156.00,0.80
8154.00,0.80
8152.00,0.80
8150.00,0.80
8148.00,0.80
8146.00,0.80
8144.00,0.80
8142.00,0.80
8140.00,0.80
8138.00,0.80
8136.00,0.80
8134.00,0.80
8132.00,0.80
8130.00,0.80
8128.00,0.80
8126.00,0.80
8124.00,0.80
8122.00,0.80
8120.00,0.80
8118.00,0.80
8116.00,0.80
8114.00,0.80
8112.00,0.80
8110.00,0.80
8108.00,0.80
8106.00,0.81
8104.00,0.81
8102.00,0.81
8100.00,0.81
8098.00,0.81
8096.00,0.81
8094.00,0.81
8092.00,0.81
8090.00,0.81
8088.00,0.81
8086.00,0.81
8084.00,0.81
8082.00,0.81
8080.00,0.81
8078.00,0.81
8076.00,0.81
8074.00,0.81
8072.00,0.81
8070.00,0.81
8068.00,0.81
8066.00,0.81
8064.00,0.81
8062.00,0.81
8060.00,0.81
8058.00,0.81
8056.00,0.81
8054.00,0.81
8052.00,0.81
8050.00,0.81
8048.00,0.81
8046.00,0.81
8044.00,0.81
8042.00,0.81
8040.00,0.81
8038.00,0.81
8036.00,0.81
8034.00,0.81
8032.00,0.81
8030.00,0.81
8028.00,0.81
8026.00,0.81
8024.00,0.82
8022.00,0.82
8020.00,0.82
8018.00,0.82
8016.00,0.81
8014.00,0.81
8012.00,0.81
8010.00,0.81
8008.00,0.81
8006.00,0.81
8004.00,0.81
8002.00,0.81
8000.00,0.81
7998.00,0.81
7996.00,0.81
7994.00,0.81
7992.00,0.81
7990.00,0.81
7988.00,0.81
7986.00,0.81
7984.00,0.81
7982.00,0.81
7980.00,0.81
7978.00,0.81
7976.00,0.81
7974.00,0.81
7972.00,0.81
7970.00,0.81
7968.00,0.81
7966.00,0.81
7964.00,0.81
7962.00,0.81
7960.00,0.81
7958.00,0.81
7956.00,0.81
7954.00,0.81
7952.00,0.81
7950.00,0.81
7948.00,0.81
7946.00,0.81
7944.00,0.81
7942.00,0.81
7940.00,0.81
7938.00,0.81
7936.00,0.81
7934.00,0.81
7932.00,0.81
7930.00,0.81
7928.00,0.81
7926.00,0.81
7924.00,0.81
7922.00,0.81
7920.00,0.81
7918.00,0.81
7916.00,0.81
7914.00,0.81
7912.00,0.81
7910.00,0.81
7908.00,0.81
7906.00,0.81
7904.00,0.82
7902.00,0.82
7900.00,0.82
7898.00,0.82
7896.00,0.82
7894.00,0.82
7892.00,0.82
7890.00,0.82
7888.00,0.82
7886.00,0.82
7884.00,0.82
7882.00,0.82
7880.00,0.82
7878.00,0.82
7876.00,0.82
7874.00,0.82
7872.00,0.82
7870.00,0.82
7868.00,0.82
7866.00,0.82
7864.00,0.82
7862.00,0.82
7860.00,0.82
7858.00,0.82
7856.00,0.82
7854.00,0.82
7852.00,0.82
7850.00,0.82
7848.00,0.82
7846.00,0.82
7844.00,0.82
7842.00,0.82
7840.00,0.82
7838.00,0.82
7836.00,0.81
7834.00,0.81
7832.00,0.81
7830.00,0.81
7828.00,0.81
7826.00,0.81
7824.00,0.81
7822.00,0.81
7820.00,0.81
7818.00,0.81
7816.00,0.81
7814.00,0.81
7812.00,0.81
7810.00,0.81
7808.00,0.81
7806.00,0.81
7804.00,0.81
7802.00,0.81
7800.00,0.81
7798.00,0.81
7796.00,0.81
7794.00,0.81
7792.00,0.81
7790.00,0.81
7788.00,0.81
7786.00,0.81
7784.00,0.81
7782.00,0.82
7780.00,0.82
7778.00,0.82
7776.00,0.82
7774.00,0.82
7772.00,0.82
7770.00,0.82
7768.00,0.82
7766.00,0.82
7764.00,0.82
7762.00,0.82
7760.00,0.82
7758.00,0.82
7756.00,0.82
7754.00,0.82
7752.00,0.82
7750.00,0.82
7748.00,0.82
7746.00,0.82
7744.00,0.82
7742.00,0.82
7740.00,0.82
7738.00,0.82
7736.00,0.82
7734.00,0.82
7732.00,0.82
7730.00,0.82
7728.00,0.82
7726.00,0.82
7724.00,0.82
7722.00,0.82
7720.00,0.82
7718.00,0.82
7716.00,0.82
7714.00,0.82
7712.00,0.82
7710.00,0.82
7708.00,0.82
7706.00,0.82
7704.00,0.82
7702.00,0.82
7700.00,0.82
7698.00,0.82
7696.00,0.82
7694.00,0.82
7692.00,0.82
7690.00,0.82
7688.00,0.82
7686.00,0.82
7684.00,0.82
7682.00,0.82
7680.00,0.82
7678.00,0.82
7676.00,0.82
7674.00,0.82
7672.00,0.82
7670.00,0.82
7668.00,0.82
7666.00,0.82
7664.00,0.82
7662.00,0.82
7660.00,0.82
7658.00,0.82
7656.00,0.82
7654.00,0.82
7652.00,0.82
7650.00,0.82
7648.00,0.82
7646.00,0.82
7644.00,0.82
7642.00,0.82
7640.00,0.82
7638.00,0.82
7636.00,0.82
7634.00,0.82
7632.00,0.82
7630.00,0.82
7628.00,0.82
7626.00,0.82
7624.00,0.82
7622.00,0.82
7620.00,0.82
7618.00,0.82
7616.00,0.82
7614.00,0.82
7612.00,0.82
7610.00,0.82
7608.00,0.82
7606.00,0.82
7604.00,0.82
7602.00,0.82
7600.00,0.82
7598.00,0.82
7596.00,0.82
7594.00,0.82
7592.00,0.82
7590.00,0.82
7588.00,0.82
7586.00,0.82
7584.00,0.82
7582.00,0.82
7580.00,0.82
7578.00,0.82
7576.00,0.82
7574.00,0.82
7572.00,0.82
7570.00,0.82
7568.00,0.82
7566.00,0.82
7564.00,0.82
7562.00,0.82
7560.00,0.82
7558.00,0.82
7556.00,0.82
7554.00,0.82
7552.00,0.82
7550.00,0.82
7548.00,0.82
7546.00,0.82
7544.00,0.82
7542.00,0.82
7540.00,0.82
7538.00,0.82
7536.00,0.82
7534.00,0.81
7532.00,0.81
7530.00,0.81
7528.00,0.81
7526.00,0.81
7524.00,0.81
7522.00,0.81
7520.00,0.81
7518.00,0.81
7516.00,0.81
7514.00,0.81
7512.00,0.81
7510.00,0.81
7508.00,0.81
7506.00,0.81
7504.00,0.81
7502.00,0.81
7500.00,0.82
7498.00,0.82
7496.00,0.82
7494.00,0.82
7492.00,0.82
7490.00,0.82
7488.00,0.82
7486.00,0.82
7484.00,0.82
7482.00,0.82
7480.00,0.82
7478.00,0.82
7476.00,0.82
7474.00,0.82
7472.00,0.82
7470.00,0.82
7468.00,0.82
7466.00,0.82
7464.00,0.82
7462.00,0.82
7460.00,0.82
7458.00,0.82
7456.00,0.82
7454.00,0.82
7452.00,0.82
7450.00,0.82
7448.00,0.81
7446.00,0.81
7444.00,0.81
7442.00,0.81
7440.00,0.81
7438.00,0.81
7436.00,0.81
7434.00,0.81
7432.00,0.81
7430.00,0.81
7428.00,0.81
7426.00,0.81
7424.00,0.81
7422.00,0.81
7420.00,0.81
7418.00,0.80
7416.00,0.80
7414.00,0.80
7412.00,0.80
7410.00,0.80
7408.00,0.80
7406.00,0.80
7404.00,0.80
7402.00,0.80
7400.00,0.80
7398.00,0.80
7396.00,0.80
7394.00,0.80
7392.00,0.79
7390.00,0.79
7388.00,0.79
7386.00,0.79
7384.00,0.79
7382.00,0.79
7380.00,0.79
7378.00,0.79
7376.00,0.79
7374.00,0.79
7372.00,0.79
7370.00,0.79
7368.00,0.79
7366.00,0.78
7364.00,0.78
7362.00,0.78
7360.00,0.78
7358.00,0.78
7356.00,0.78
7354.00,0.78
7352.00,0.78
7350.00,0.78
7348.00,0.78
7346.00,0.78
7344.00,0.79
7342.00,0.79
7340.00,0.79
7338.00,0.79
7336.00,0.79
7334.00,0.79
7332.00,0.79
7330.00,0.79
7328.00,0.79
7326.00,0.79
7324.00,0.79
7322.00,0.79
7320.00,0.79
7318.00,0.79
7316.00,0.78
7314.00,0.78
7312.00,0.78
7310.00,0.78
7308.00,0.78
7306.00,0.78
7304.00,0.78
7302.00,0.78
7300.00,0.78
7298.00,0.78
7296.00,0.78
7294.00,0.78
7292.00,0.78
7290.00,0.78
7288.00,0.78
7286.00,0.78
7284.00,0.78
7282.00,0.78
7280.00,0.78
7278.00,0.78
7276.00,0.77
7274.00,0.77
7272.00,0.77
7270.00,0.77
7268.00,0.77
7266.00,0.77
7264.00,0.77
7262.00,0.77
7260.00,0.77
7258.00,0.77
7256.00,0.76
7254.00,0.76
7252.00,0.76
7250.00,0.76
7248.00,0.76
7246.00,0.76
7244.00,0.76
7242.00,0.75
7240.00,0.75
7238.00,0.75
7236.00,0.75
7234.00,0.75
7232.00,0.75
7230.00,0.74
7228.00,0.74
7226.00,0.74
7224.00,0.74
7222.00,0.74
7220.00,0.74
7218.00,0.74
7216.00,0.74
7214.00,0.74
7212.00,0.74
7210.00,0.73
7208.00,0.73
7206.00,0.73
7204.00,0.73
7202.00,0.73
7200.00,0.73
7198.00,0.73
7196.00,0.72
7194.00,0.72
7192.00,0.72
7190.00,0.72
7188.00,0.71
7186.00,0.71
7184.00,0.71
7182.00,0.71
7180.00,0.70
7178.00,0.70
7176.00,0.70
7174.00,0.70
7172.00,0.69
7170.00,0.69
7168.00,0.69
7166.00,0.69
7164.00,0.68
7162.00,0.68
7160.00,0.68
7158.00,0.68
7156.00,0.67
7154.00,0.67
7152.00,0.67
7150.00,0.67
7148.00,0.66
7146.00,0.66
7144.00,0.66
7142.00,0.66
7140.00,0.66
7138.00,0.66
7136.00,0.65
7134.00,0.65
7132.00,0.65
7130.00,0.65
7128.00,0.65
7126.00,0.64
7124.00,0.64
7122.00,0.64
7120.00,0.64
7118.00,0.64
7116.00,0.64
7114.00,0.63
7112.00,0.63
7110.00,0.63
7108.00,0.63
7106.00,0.63
7104.00,0.63
7102.00,0.62
7100.00,0.62
7098.00,0.62
7096.00,0.62
7094.00,0.62
7092.00,0.62
7090.00,0.61
7088.00,0.61
7086.00,0.61
7084.00,0.61
7082.00,0.61
7080.00,0.61
7078.00,0.61
7076.00,0.61
7074.00,0.61
7072.00,0.60
7070.00,0.60
7068.00,0.60
7066.00,0.60
7064.00,0.60
7062.00,0.60
7060.00,0.60
7058.00,0.60
7056.00,0.60
7054.00,0.60
7052.00,0.59
7050.00,0.59
7048.00,0.59
7046.00,0.59
7044.00,0.59
7042.00,0.59
7040.00,0.59
7038.00,0.59
7036.00,0.59
7034.00,0.59
7032.00,0.59
7030.00,0.58
7028.00,0.58
7026.00,0.58
7024.00,0.58
7022.00,0.58
7020.00,0.58
7018.00,0.58
7016.00,0.58
7014.00,0.58
7012.00,0.57
7010.00,0.57
7008.00,0.57
7006.00,0.57
7004.00,0.57
7002.00,0.57
7000.00,0.57
6998.00,0.57
6996.00,0.57
6994.00,0.57
6992.00,0.57
6990.00,0.56
6988.00,0.56
6986.00,0.56
6984.00,0.56
6982.00,0.56
6980.00,0.56
6978.00,0.56
6976.00,0.56
6974.00,0.56
6972.00,0.56
6970.00,0.56
6968.00,0.56
6966.00,0.56
6964.00,0.56
6962.00,0.56
6960.00,0.56
6958.00,0.56
6956.00,0.55
6954.00,0.55
6952.00,0.55
6950.00,0.55
6948.00,0.55
6946.00,0.55
6944.00,0.55
6942.00,0.55
6940.00,0.55
6938.00,0.55
6936.00,0.55
6934.00,0.55
6932.00,0.55
6930.00,0.55
6928.00,0.55
6926.00,0.55
6924.00,0.55
6922.00,0.55
6920.00,0.55
6918.00,0.55
6916.00,0.55
6914.00,0.55
6912.00,0.55
6910.00,0.55
6908.00,0.55
6906.00,0.55
6904.00,0.55
6902.00,0.55
6900.00,0.55
6898.00,0.55
6896.00,0.55
6894.00,0.55
6892.00,0.55
6890.00,0.55
6888.00,0.55
6886.00,0.55
6884.00,0.55
6882.00,0.55
6880.00,0.55
6878.00,0.55
6876.00,0.55
6874.00,0.55
6872.00,0.55
6870.00,0.55
6868.00,0.55
6866.00,0.55
6864.00,0.55
6862.00,0.55
6860.00,0.55
6858.00,0.55
6856.00,0.55
6854.00,0.55
6852.00,0.55
6850.00,0.55
6848.00,0.55
6846.00,0.55
6844.00,0.55
6842.00,0.55
6840.00,0.55
6838.00,0.55
6836.00,0.55
6834.00,0.55
6832.00,0.55
6830.00,0.55
6828.00,0.55
6826.00,0.55
6824.00,0.55
6822.00,0.55
6820.00,0.55
6818.00,0.55
6816.00,0.55
6814.00,0.55
6812.00,0.55
6810.00,0.55
6808.00,0.55
6806.00,0.56
6804.00,0.56
6802.00,0.56
6800.00,0.56
6798.00,0.56
6796.00,0.56
6794.00,0.56
6792.00,0.56
6790.00,0.56
6788.00,0.56
6786.00,0.56
6784.00,0.56
6782.00,0.56
6780.00,0.56
6778.00,0.57
6776.00,0.57
6774.00,0.57
6772.00,0.57
6770.00,0.57
6768.00,0.57
6766.00,0.57
6764.00,0.57
6762.00,0.57
6760.00,0.57
6758.00,0.58
6756.00,0.58
6754.00,0.58
6752.00,0.58
6750.00,0.58
6748.00,0.58
6746.00,0.58
6744.00,0.58
6742.00,0.58
6740.00,0.58
6738.00,0.59
6736.00,0.59
6734.00,0.59
6732.00,0.59
6730.00,0.59
6728.00,0.59
6726.00,0.59
6724.00,0.59
6722.00,0.59
6720.00,0.59
6718.00,0.60
6716.00,0.60
6714.00,0.60
6712.00,0.60
6710.00,0.60
6708.00,0.60
6706.00,0.60
6704.00,0.60
6702.00,0.60
6700.00,0.60
6698.00,0.60
6696.00,0.60
6694.00,0.60
6692.00,0.61
6690.00,0.61
6688.00,0.61
6686.00,0.61
6684.00,0.61
6682.00,0.61
6680.00,0.61
6678.00,0.61
6676.00,0.61
6674.00,0.61
6672.00,0.61
6670.00,0.61
6668.00,0.62
6666.00,0.62
6664.00,0.62
6662.00,0.62
6660.00,0.62
6658.00,0.62
6656.00,0.62
6654.00,0.62
6652.00,0.62
6650.00,0.63
6648.00,0.63
6646.00,0.63
6644.00,0.63
6642.00,0.63
6640.00,0.63
6638.00,0.63
6636.00,0.63
6634.00,0.64
6632.00,0.64
6630.00,0.64
6628.00,0.64
6626.00,0.64
6624.00,0.64
6622.00,0.64
6620.00,0.64
6618.00,0.64
6616.00,0.64
6614.00,0.64
6612.00,0.65
6610.00,0.65
6608.00,0.65
6606.00,0.65
6604.00,0.65
6602.00,0.65
6600.00,0.65
6598.00,0.65
6596.00,0.65
6594.00,0.65
6592.00,0.65
6590.00,0.66
6588.00,0.66
6586.00,0.66
6584.00,0.66
6582.00,0.66
6580.00,0.66
6578.00,0.66
6576.00,0.66
6574.00,0.66
6572.00,0.66
6570.00,0.67
6568.00,0.67
6566.00,0.67
6564.00,0.67
6562.00,0.67
6560.00,0.67
6558.00,0.67
6556.00,0.67
6554.00,0.67
6552.00,0.67
6550.00,0.67
6548.00,0.68
6546.00,0.68
6544.00,0.68
6542.00,0.68
6540.00,0.68
6538.00,0.68
6536.00,0.68
6534.00,0.68
6532.00,0.68
6530.00,0.68
6528.00,0.68
6526.00,0.68
6524.00,0.69
6522.00,0.69
6520.00,0.69
6518.00,0.69
6516.00,0.69
6514.00,0.69
6512.00,0.69
6510.00,0.69
6508.00,0.69
6506.00,0.69
6504.00,0.69
6502.00,0.69
6500.00,0.69
6498.00,0.69
6496.00,0.69
6494.00,0.69
6492.00,0.69
6490.00,0.70
6488.00,0.70
6486.00,0.70
6484.00,0.70
6482.00,0.70
6480.00,0.70
6478.00,0.70
6476.00,0.70
6474.00,0.70
6472.00,0.70
6470.00,0.70
6468.00,0.70
6466.00,0.70
6464.00,0.70
6462.00,0.70
6460.00,0.70
6458.00,0.70
6456.00,0.70
6454.00,0.70
6452.00,0.70
6450.00,0.70
6448.00,0.70
6446.00,0.70
6444.00,0.70
6442.00,0.71
6440.00,0.71
6438.00,0.71
6436.00,0.71
6434.00,0.71
6432.00,0.71
6430.00,0.71
6428.00,0.71
6426.00,0.71
6424.00,0.71
6422.00,0.71
6420.00,0.72
6418.00,0.72
6416.00,0.72
6414.00,0.72
6412.00,0.72
6410.00,0.72
6408.00,0.72
6406.00,0.72
6404.00,0.72
6402.00,0.72
6400.00,0.72
6398.00,0.72
6396.00,0.72
6394.00,0.72
6392.00,0.72
6390.00,0.72
6388.00,0.72
6386.00,0.72
6384.00,0.72
6382.00,0.72
6380.00,0.72
6378.00,0.72
6376.00,0.72
6374.00,0.72
6372.00,0.73
6370.00,0.73
6368.00,0.73
6366.00,0.73
6364.00,0.73
6362.00,0.73
6360.00,0.73
6358.00,0.73
6356.00,0.73
6354.00,0.73
6352.00,0.73
6350.00,0.73
6348.00,0.73
6346.00,0.73
6344.00,0.73
6342.00,0.73
6340.00,0.74
6338.00,0.74
6336.00,0.74
6334.00,0.74
6332.00,0.74
6330.00,0.74
6328.00,0.74
6326.00,0.74
6324.00,0.74
6322.00,0.74
6320.00,0.74
6318.00,0.74
6316.00,0.75
6314.00,0.75
6312.00,0.75
6310.00,0.75
6308.00,0.75
6306.00,0.75
6304.00,0.75
6302.00,0.75
6300.00,0.75
6298.00,0.75
6296.00,0.75
6294.00,0.75
6292.00,0.75
6290.00,0.75
6288.00,0.75
6286.00,0.75
6284.00,0.75
6282.00,0.75
6280.00,0.76
6278.00,0.76
6276.00,0.76
6274.00,0.76
6272.00,0.76
6270.00,0.76
6268.00,0.76
6266.00,0.76
6264.00,0.76
6262.00,0.76
6260.00,0.76
6258.00,0.76
6256.00,0.76
6254.00,0.76
6252.00,0.77
6250.00,0.77
6248.00,0.77
6246.00,0.77
6244.00,0.77
6242.00,0.77
6240.00,0.77
6238.00,0.77
6236.00,0.77
6234.00,0.77
6232.00,0.77
6230.00,0.77
6228.00,0.77
6226.00,0.77
6224.00,0.78
6222.00,0.78
6220.00,0.78
6218.00,0.78
6216.00,0.78
6214.00,0.78
6212.00,0.78
6210.00,0.78
6208.00,0.78
6206.00,0.78
6204.00,0.78
6202.00,0.78
6200.00,0.78
6198.00,0.78
6196.00,0.78
6194.00,0.79
6192.00,0.79
6190.00,0.79
6188.00,0.79
6186.00,0.79
6184.00,0.79
6182.00,0.79
6180.00,0.79
6178.00,0.79
6176.00,0.79
6174.00,0.79
6172.00,0.79
6170.00,0.79
6168.00,0.79
6166.00,0.79
6164.00,0.79
6162.00,0.79
6160.00,0.79
6158.00,0.80
6156.00,0.80
6154.00,0.80
6152.00,0.80
6150.00,0.80
6148.00,0.80
6146.00,0.80
6144.00,0.80
6142.00,0.80
6140.00,0.80
6138.00,0.80
6136.00,0.80
6134.00,0.80
6132.00,0.80
6130.00,0.80
6128.00,0.80
6126.00,0.80
6124.00,0.81
6122.00,0.81
6120.00,0.81
6118.00,0.81
6116.00,0.81
6114.00,0.81
6112.00,0.81
6110.00,0.81
6108.00,0.81
6106.00,0.81
6104.00,0.81
6102.00,0.81
6100.00,0.81
6098.00,0.81
6096.00,0.81
6094.00,0.81
6092.00,0.81
6090.00,0.81
6088.00,0.81
6086.00,0.81
6084.00,0.81
6082.00,0.81
6080.00,0.81
6078.00,0.82
6076.00,0.82
6074.00,0.82
6072.00,0.82
6070.00,0.82
6068.00,0.82
6066.00,0.82
6064.00,0.82
6062.00,0.82
6060.00,0.82
6058.00,0.82
6056.00,0.82
6054.00,0.82
6052.00,0.82
6050.00,0.82
6048.00,0.82
6046.00,0.82
6044.00,0.82
6042.00,0.82
6040.00,0.82
6038.00,0.82
6036.00,0.82
6034.00,0.82
6032.00,0.82
6030.00,0.82
6028.00,0.82
6026.00,0.82
6024.00,0.82
6022.00,0.83
6020.00,0.83
6018.00,0.83
6016.00,0.83
6014.00,0.83
6012.00,0.83
6010.00,0.83
6008.00,0.83
6006.00,0.83
6004.00,0.83
6002.00,0.83
6000.00,0.82
5998.00,0.82
5996.00,0.82
5994.00,0.82
5992.00,0.82
5990.00,0.82
5988.00,0.82
5986.00,0.82
5984.00,0.82
5982.00,0.82
5980.00,0.82
5978.00,0.82
5976.00,0.81
5974.00,0.81
5972.00,0.81
5970.00,0.81
5968.00,0.81
5966.00,0.81
5964.00,0.80
5962.00,0.80
5960.00,0.80
5958.00,0.80
5956.00,0.80
5954.00,0.80
5952.00,0.79
5950.00,0.79
5948.00,0.79
5946.00,0.79
5944.00,0.79
5942.00,0.79
5940.00,0.79
5938.00,0.79
5936.00,0.79
5934.00,0.79
5932.00,0.79
5930.00,0.79
5928.00,0.78
5926.00,0.78
5924.00,0.78
5922.00,0.78
5920.00,0.78
5918.00,0.78
5916.00,0.78
5914.00,0.78
5912.00,0.78
5910.00,0.78
5908.00,0.78
5906.00,0.78
5904.00,0.78
5902.00,0.78
5900.00,0.78
5898.00,0.78
5896.00,0.78
5894.00,0.78
5892.00,0.78
5890.00,0.78
5888.00,0.79
5886.00,0.79
5884.00,0.79
5882.00,0.79
5880.00,0.79
5878.00,0.79
5876.00,0.79
5874.00,0.79
5872.00,0.79
5870.00,0.79
5868.00,0.79
5866.00,0.80
5864.00,0.80
5862.00,0.80
5860.00,0.80
5858.00,0.80
5856.00,0.80
5854.00,0.80
5852.00,0.80
5850.00,0.80
5848.00,0.80
5846.00,0.80
5844.00,0.80
5842.00,0.80
5840.00,0.80
5838.00,0.80
5836.00,0.80
5834.00,0.80
5832.00,0.80
5830.00,0.80
5828.00,0.80
5826.00,0.80
5824.00,0.80
5822.00,0.80
5820.00,0.80
5818.00,0.80
5816.00,0.80
5814.00,0.80
5812.00,0.80
5810.00,0.80
5808.00,0.80
5806.00,0.80
5804.00,0.80
5802.00,0.80
5800.00,0.80
5798.00,0.80
5796.00,0.80
5794.00,0.80
5792.00,0.80
5790.00,0.80
5788.00,0.80
5786.00,0.79
5784.00,0.79
5782.00,0.79
5780.00,0.79
5778.00,0.79
5776.00,0.79
5774.00,0.79
5772.00,0.79
5770.00,0.79
5768.00,0.79
5766.00,0.79
5764.00,0.79
5762.00,0.79
5760.00,0.79
5758.00,0.80
5756.00,0.80
5754.00,0.80
5752.00,0.80
5750.00,0.80
5748.00,0.80
5746.00,0.80
5744.00,0.80
5742.00,0.80
5740.00,0.80
5738.00,0.80
5736.00,0.80
5734.00,0.80
5732.00,0.80
5730.00,0.80
5728.00,0.80
5726.00,0.80
5724.00,0.80
5722.00,0.80
5720.00,0.80
5718.00,0.80
5716.00,0.80
5714.00,0.80
5712.00,0.80
5710.00,0.80
5708.00,0.80
5706.00,0.80
5704.00,0.80
5702.00,0.80
5700.00,0.80
5698.00,0.80
5696.00,0.80
5694.00,0.80
5692.00,0.80
5690.00,0.80
5688.00,0.80
5686.00,0.80
5684.00,0.80
5682.00,0.80
5680.00,0.80
5678.00,0.80
5676.00,0.80
5674.00,0.80
5672.00,0.80
5670.00,0.80
5668.00,0.80
5666.00,0.80
5664.00,0.80
5662.00,0.80
5660.00,0.80
5658.00,0.80
5656.00,0.80
5654.00,0.80
5652.00,0.80
5650.00,0.80
5648.00,0.80
5646.00,0.80
5644.00,0.80
5642.00,0.80
5640.00,0.80
5638.00,0.80
5636.00,0.80
5634.00,0.80
5632.00,0.80
5630.00,0.80
5628.00,0.81
5626.00,0.81
5624.00,0.81
5622.00,0.81
5620.00,0.81
5618.00,0.81
5616.00,0.81
5614.00,0.81
5612.00,0.81
5610.00,0.81
5608.00,0.81
5606.00,0.81
5604.00,0.81
5602.00,0.81
5600.00,0.81
5598.00,0.81
5596.00,0.81
5594.00,0.81
5592.00,0.81
5590.00,0.81
5588.00,0.81
5586.00,0.81
5584.00,0.81
5582.00,0.81
5580.00,0.82
5578.00,0.82
5576.00,0.82
5574.00,0.82
5572.00,0.82
5570.00,0.82
5568.00,0.82
5566.00,0.82
5564.00,0.82
5562.00,0.82
5560.00,0.82
5558.00,0.82
5556.00,0.82
5554.00,0.82
5552.00,0.82
5550.00,0.82
5548.00,0.82
5546.00,0.82
5544.00,0.82
5542.00,0.82
5540.00,0.82
5538.00,0.82
5536.00,0.82
5534.00,0.82
5532.00,0.82
5530.00,0.82
5528.00,0.82
5526.00,0.82
5524.00,0.82
5522.00,0.82
5520.00,0.82
5518.00,0.82
5516.00,0.82
5514.00,0.82
5512.00,0.82
5510.00,0.82
5508.00,0.82
5506.00,0.82
5504.00,0.82
5502.00,0.82
5500.00,0.82
5498.00,0.82
5496.00,0.82
5494.00,0.82
5492.00,0.82
5490.00,0.82
5488.00,0.82
5486.00,0.82
5484.00,0.82
5482.00,0.82
5480.00,0.82
5478.00,0.82
5476.00,0.82
5474.00,0.82
5472.00,0.83
5470.00,0.83
5468.00,0.83
5466.00,0.83
5464.00,0.83
5462.00,0.83
5460.00,0.83
5458.00,0.83
5456.00,0.82
5454.00,0.82
5452.00,0.82
5450.00,0.82
5448.00,0.82
5446.00,0.82
5444.00,0.82
5442.00,0.82
5440.00,0.82
5438.00,0.82
5436.00,0.82
5434.00,0.82
5432.00,0.82
5430.00,0.82
5428.00,0.82
5426.00,0.82
5424.00,0.82
5422.00,0.82
5420.00,0.82
5418.00,0.82
5416.00,0.82
5414.00,0.83
5412.00,0.83
5410.00,0.83
5408.00,0.82
5406.00,0.82
5404.00,0.82
5402.00,0.82
5400.00,0.82
5398.00,0.82
5396.00,0.82
5394.00,0.82
5392.00,0.82
5390.00,0.82
5388.00,0.82
5386.00,0.82
5384.00,0.81
5382.00,0.81
5380.00,0.81
5378.00,0.81
5376.00,0.80
5374.00,0.80
5372.00,0.80
5370.00,0.79
5368.00,0.79
5366.00,0.79
5364.00,0.78
5362.00,0.78
5360.00,0.77
5358.00,0.77
5356.00,0.76
5354.00,0.76
5352.00,0.75
5350.00,0.75
5348.00,0.74
5346.00,0.74
5344.00,0.73
5342.00,0.72
5340.00,0.72
5338.00,0.71
5336.00,0.70
5334.00,0.70
5332.00,0.69
5330.00,0.68
5328.00,0.68
5326.00,0.67
5324.00,0.66
5322.00,0.66
5320.00,0.65
5318.00,0.64
5316.00,0.63
5314.00,0.62
5312.00,0.62
5310.00,0.61
5308.00,0.60
5306.00,0.59
5304.00,0.58
5302.00,0.58
5300.00,0.57
5298.00,0.56
5296.00,0.55
5294.00,0.54
5292.00,0.54
5290.00,0.53
5288.00,0.52
5286.00,0.51
5284.00,0.51
5282.00,0.50
5280.00,0.49
5278.00,0.49
5276.00,0.48
5274.00,0.48
5272.00,0.47
5270.00,0.47
5268.00,0.46
5266.00,0.46
5264.00,0.45
5262.00,0.45
5260.00,0.45
5258.00,0.44
5256.00,0.44
5254.00,0.44
5252.00,0.43
5250.00,0.43
5248.00,0.43
5246.00,0.42
5244.00,0.42
5242.00,0.42
5240.00,0.42
5238.00,0.42
5236.00,0.41
5234.00,0.41
5232.00,0.41
5230.00,0.41
5228.00,0.41
5226.00,0.41
5224.00,0.41
5222.00,0.40
5220.00,0.40
5218.00,0.40
5216.00,0.40
5214.00,0.40
5212.00,0.40
5210.00,0.40
5208.00,0.40
5206.00,0.40
5204.00,0.40
5202.00,0.40
5200.00,0.39
5198.00,0.39
5196.00,0.39
5194.00,0.39
5192.00,0.39
5190.00,0.39
5188.00,0.39
5186.00,0.39
5184.00,0.39
5182.00,0.39
5180.00,0.39
5178.00,0.39
5176.00,0.39
5174.00,0.39
5172.00,0.39
5170.00,0.39
5168.00,0.39
5166.00,0.39
5164.00,0.39
5162.00,0.39
5160.00,0.39
5158.00,0.40
5156.00,0.40
5154.00,0.40
5152.00,0.40
5150.00,0.40
5148.00,0.40
5146.00,0.40
5144.00,0.40
5142.00,0.40
5140.00,0.40
5138.00,0.41
5136.00,0.41
5134.00,0.41
5132.00,0.41
5130.00,0.41
5128.00,0.41
5126.00,0.41
5124.00,0.41
5122.00,0.42
5120.00,0.42
5118.00,0.42
5116.00,0.42
5114.00,0.42
5112.00,0.42
5110.00,0.42
5108.00,0.42
5106.00,0.43
5104.00,0.43
5102.00,0.43
5100.00,0.43
5098.00,0.43
5096.00,0.43
5094.00,0.43
5092.00,0.44
5090.00,0.44
5088.00,0.44
5086.00,0.44
5084.00,0.44
5082.00,0.44
5080.00,0.45
5078.00,0.45
5076.00,0.45
5074.00,0.45
5072.00,0.45
5070.00,0.45
5068.00,0.46
5066.00,0.46
5064.00,0.46
5062.00,0.46
5060.00,0.46
5058.00,0.47
5056.00,0.47
5054.00,0.47
5052.00,0.47
5050.00,0.47
5048.00,0.47
5046.00,0.48
5044.00,0.48
5042.00,0.48
5040.00,0.48
5038.00,0.48
5036.00,0.49
5034.00,0.49
5032.00,0.49
5030.00,0.49
5028.00,0.49
5026.00,0.50
5024.00,0.50
5022.00,0.50
5020.00,0.50
5018.00,0.50
5016.00,0.51
5014.00,0.51
5012.00,0.51
5010.00,0.51
5008.00,0.52
5006.00,0.52
5004.00,0.52
5002.00,0.52
5000.00,0.52
4998.00,0.53
4996.00,0.53
4994.00,0.53
4992.00,0.53
4990.00,0.53
4988.00,0.53
4986.00,0.54
4984.00,0.54
4982.00,0.54
4980.00,0.54
4978.00,0.54
4976.00,0.55
4974.00,0.55
4972.00,0.55
4970.00,0.55
4968.00,0.55
4966.00,0.55
4964.00,0.56
4962.00,0.56
4960.00,0.56
4958.00,0.56
4956.00,0.56
4954.00,0.56
4952.00,0.57
4950.00,0.57
4948.00,0.57
4946.00,0.57
4944.00,0.57
4942.00,0.57
4940.00,0.58
4938.00,0.58
4936.00,0.58
4934.00,0.58
4932.00,0.58
4930.00,0.58
4928.00,0.59
4926.00,0.59
4924.00,0.59
4922.00,0.59
4920.00,0.59
4918.00,0.59
4916.00,0.59
4914.00,0.59
4912.00,0.60
4910.00,0.60
4908.00,0.60
4906.00,0.60
4904.00,0.60
4902.00,0.60
4900.00,0.60
4898.00,0.60
4896.00,0.60
4894.00,0.61
4892.00,0.61
4890.00,0.61
4888.00,0.61
4886.00,0.61
4884.00,0.61
4882.00,0.61
4880.00,0.61
4878.00,0.62
4876.00,0.62
4874.00,0.62
4872.00,0.62
4870.00,0.62
4868.00,0.62
4866.00,0.62
4864.00,0.62
4862.00,0.63
4860.00,0.63
4858.00,0.63
4856.00,0.63
4854.00,0.63
4852.00,0.63
4850.00,0.63
4848.00,0.64
4846.00,0.64
4844.00,0.64
4842.00,0.64
4840.00,0.64
4838.00,0.64
4836.00,0.65
4834.00,0.65
4832.00,0.65
4830.00,0.65
4828.00,0.65
4826.00,0.65
4824.00,0.65
4822.00,0.66
4820.00,0.66
4818.00,0.66
4816.00,0.66
4814.00,0.66
4812.00,0.66
4810.00,0.67
4808.00,0.67
4806.00,0.67
4804.00,0.67
4802.00,0.67
4800.00,0.67
4798.00,0.67
4796.00,0.68
4794.00,0.68
4792.00,0.68
4790.00,0.68
4788.00,0.68
4786.00,0.68
4784.00,0.69
4782.00,0.69
4780.00,0.69
4778.00,0.69
4776.00,0.69
4774.00,0.69
4772.00,0.70
4770.00,0.70
4768.00,0.70
4766.00,0.70
4764.00,0.70
4762.00,0.71
4760.00,0.71
4758.00,0.71
4756.00,0.71
4754.00,0.71
4752.00,0.71
4750.00,0.72
4748.00,0.72
4746.00,0.72
4744.00,0.72
4742.00,0.72
4740.00,0.72
4738.00,0.73
4736.00,0.73
4734.00,0.73
4732.00,0.73
4730.00,0.73
4728.00,0.73
4726.00,0.74
4724.00,0.74
4722.00,0.74
4720.00,0.74
4718.00,0.74
4716.00,0.74
4714.00,0.75
4712.00,0.75
4710.00,0.75
4708.00,0.75
4706.00,0.75
4704.00,0.76
4702.00,0.76
4700.00,0.76
4698.00,0.76
4696.00,0.76
4694.00,0.76
4692.00,0.77
4690.00,0.77
4688.00,0.77
4686.00,0.77
4684.00,0.77
4682.00,0.77
4680.00,0.77
4678.00,0.78
4676.00,0.78
4674.00,0.78
4672.00,0.78
4670.00,0.78
4668.00,0.78
4666.00,0.78
4664.00,0.78
4662.00,0.78
4660.00,0.78
4658.00,0.79
4656.00,0.79
4654.00,0.79
4652.00,0.79
4650.00,0.79
4648.00,0.79
4646.00,0.79
4644.00,0.79
4642.00,0.79
4640.00,0.79
4638.00,0.79
4636.00,0.79
4634.00,0.80
4632.00,0.80
4630.00,0.80
4628.00,0.80
4626.00,0.80
4624.00,0.80
4622.00,0.80
4620.00,0.80
4618.00,0.80
4616.00,0.80
4614.00,0.80
4612.00,0.80
4610.00,0.81
4608.00,0.81
4606.00,0.81
4604.00,0.81
4602.00,0.81
4600.00,0.81
4598.00,0.81
4596.00,0.81
4594.00,0.81
4592.00,0.81
4590.00,0.81
4588.00,0.81
4586.00,0.81
4584.00,0.81
4582.00,0.81
4580.00,0.81
4578.00,0.81
4576.00,0.81
4574.00,0.81
4572.00,0.82
4570.00,0.82
4568.00,0.82
4566.00,0.82
4564.00,0.82
4562.00,0.82
4560.00,0.82
4558.00,0.82
4556.00,0.82
4554.00,0.82
4552.00,0.82
4550.00,0.82
4548.00,0.82
4546.00,0.82
4544.00,0.82
4542.00,0.82
4540.00,0.82
4538.00,0.82
4536.00,0.82
4534.00,0.82
4532.00,0.82
4530.00,0.82
4528.00,0.82
4526.00,0.83
4524.00,0.83
4522.00,0.83
4520.00,0.83
4518.00,0.83
4516.00,0.83
4514.00,0.83
4512.00,0.83
4510.00,0.83
4508.00,0.83
4506.00,0.83
4504.00,0.83
4502.00,0.83
4500.00,0.83
4498.00,0.83
4496.00,0.83
4494.00,0.83
4492.00,0.83
4490.00,0.83
4488.00,0.83
4486.00,0.83
4484.00,0.82
4482.00,0.82
4480.00,0.82
4478.00,0.82
4476.00,0.82
4474.00,0.82
4472.00,0.82
4470.00,0.82
4468.00,0.82
4466.00,0.81
4464.00,0.81
4462.00,0.81
4460.00,0.81
4458.00,0.80
4456.00,0.80
4454.00,0.80
4452.00,0.79
4450.00,0.79
4448.00,0.78
4446.00,0.78
4444.00,0.77
4442.00,0.77
4440.00,0.76
4438.00,0.76
4436.00,0.75
4434.00,0.75
4432.00,0.74
4430.00,0.74
4428.00,0.73
4426.00,0.73
4424.00,0.72
4422.00,0.72
4420.00,0.72
4418.00,0.71
4416.00,0.71
4414.00,0.71
4412.00,0.71
4410.00,0.71
4408.00,0.71
4406.00,0.71
4404.00,0.71
4402.00,0.71
4400.00,0.71
4398.00,0.72
4396.00,0.72
4394.00,0.72
4392.00,0.72
4390.00,0.73
4388.00,0.73
4386.00,0.73
4384.00,0.73
4382.00,0.74
4380.00,0.74
4378.00,0.74
4376.00,0.74
4374.00,0.74
4372.00,0.74
4370.00,0.74
4368.00,0.74
4366.00,0.74
4364.00,0.74
4362.00,0.74
4360.00,0.74
4358.00,0.74
4356.00,0.73
4354.00,0.73
4352.00,0.73
4350.00,0.73
4348.00,0.73
4346.00,0.73
4344.00,0.73
4342.00,0.73
4340.00,0.73
4338.00,0.73
4336.00,0.73
4334.00,0.73
4332.00,0.74
4330.00,0.74
4328.00,0.74
4326.00,0.74
4324.00,0.75
4322.00,0.75
4320.00,0.76
4318.00,0.76
4316.00,0.77
4314.00,0.77
4312.00,0.77
4310.00,0.78
4308.00,0.78
4306.00,0.79
4304.00,0.79
4302.00,0.79
4300.00,0.80
4298.00,0.80
4296.00,0.80
4294.00,0.80
4292.00,0.81
4290.00,0.81
4288.00,0.81
4286.00,0.81
4284.00,0.81
4282.00,0.81
4280.00,0.81
4278.00,0.81
4276.00,0.81
4274.00,0.81
4272.00,0.81
4270.00,0.81
4268.00,0.81
4266.00,0.81
4264.00,0.80
4262.00,0.80
4260.00,0.80
4258.00,0.80
4256.00,0.80
4254.00,0.80
4252.00,0.80
4250.00,0.80
4248.00,0.80
4246.00,0.81
4244.00,0.81
4242.00,0.81
4240.00,0.81
4238.00,0.81
4236.00,0.81
4234.00,0.81
4232.00,0.82
4230.00,0.82
4228.00,0.82
4226.00,0.82
4224.00,0.82
4222.00,0.82
4220.00,0.82
4218.00,0.82
4216.00,0.82
4214.00,0.82
4212.00,0.82
4210.00,0.82
4208.00,0.83
4206.00,0.83
4204.00,0.83
4202.00,0.83
4200.00,0.83
4198.00,0.83
4196.00,0.83
4194.00,0.83
4192.00,0.83
4190.00,0.83
4188.00,0.82
4186.00,0.82
4184.00,0.82
4182.00,0.82
4180.00,0.82
4178.00,0.82
4176.00,0.82
4174.00,0.82
4172.00,0.82
4170.00,0.82
4168.00,0.82
4166.00,0.82
4164.00,0.82
4162.00,0.82
4160.00,0.82
4158.00,0.82
4156.00,0.82
4154.00,0.82
4152.00,0.82
4150.00,0.82
4148.00,0.82
4146.00,0.82
4144.00,0.82
4142.00,0.82
4140.00,0.82
4138.00,0.82
4136.00,0.82
4134.00,0.82
4132.00,0.82
4130.00,0.82
4128.00,0.82
4126.00,0.82
4124.00,0.82
4122.00,0.82
4120.00,0.82
4118.00,0.82
4116.00,0.82
4114.00,0.82
4112.00,0.82
4110.00,0.82
4108.00,0.81
4106.00,0.81
4104.00,0.81
4102.00,0.81
4100.00,0.81
4098.00,0.81
4096.00,0.81
4094.00,0.81
4092.00,0.81
4090.00,0.81
4088.00,0.81
4086.00,0.80
4084.00,0.80
4082.00,0.80
4080.00,0.80
4078.00,0.80
4076.00,0.80
4074.00,0.80
4072.00,0.80
4070.00,0.80
4068.00,0.80
4066.00,0.80
4064.00,0.80
4062.00,0.80
4060.00,0.80
4058.00,0.80
4056.00,0.81
4054.00,0.81
4052.00,0.81
4050.00,0.81
4048.00,0.81
4046.00,0.81
4044.00,0.81
4042.00,0.81
4040.00,0.81
4038.00,0.81
4036.00,0.82
4034.00,0.82
4032.00,0.82
4030.00,0.82
4028.00,0.82
4026.00,0.82
4024.00,0.82
4022.00,0.82
4020.00,0.82
4018.00,0.82
4016.00,0.82
4014.00,0.82
4012.00,0.82
4010.00,0.82
4008.00,0.82
4006.00,0.83
4004.00,0.83
4002.00,0.83
4000.00,0.83
