创建为新数据集,样品 1281 用户 Administrator 日期 星期六, 八月 17 2019
cm-1,%T
10000.00,1.26
9998.00,1.26
9996.00,1.26
9994.00,1.26
9992.00,1.26
9990.00,1.26
9988.00,1.26
9986.00,1.26
9984.00,1.26
9982.00,1.26
9980.00,1.26
9978.00,1.26
9976.00,1.26
9974.00,1.26
9972.00,1.26
9970.00,1.26
9968.00,1.26
9966.00,1.26
9964.00,1.26
9962.00,1.26
9960.00,1.26
9958.00,1.26
9956.00,1.26
9954.00,1.26
9952.00,1.26
9950.00,1.26
9948.00,1.26
9946.00,1.26
9944.00,1.26
9942.00,1.26
9940.00,1.26
9938.00,1.26
9936.00,1.26
9934.00,1.26
9932.00,1.26
9930.00,1.26
9928.00,1.26
9926.00,1.26
9924.00,1.26
9922.00,1.26
9920.00,1.26
9918.00,1.26
9916.00,1.26
9914.00,1.26
9912.00,1.26
9910.00,1.26
9908.00,1.26
9906.00,1.26
9904.00,1.26
9902.00,1.25
9900.00,1.25
9898.00,1.25
9896.00,1.25
9894.00,1.25
9892.00,1.25
9890.00,1.25
9888.00,1.25
9886.00,1.24
9884.00,1.24
9882.00,1.24
9880.00,1.24
9878.00,1.24
9876.00,1.24
9874.00,1.24
9872.00,1.24
9870.00,1.24
9868.00,1.24
9866.00,1.24
9864.00,1.24
9862.00,1.24
9860.00,1.24
9858.00,1.24
9856.00,1.24
9854.00,1.24
9852.00,1.24
9850.00,1.24
9848.00,1.24
9846.00,1.24
9844.00,1.24
9842.00,1.24
9840.00,1.24
9838.00,1.23
9836.00,1.23
9834.00,1.23
9832.00,1.23
9830.00,1.23
9828.00,1.23
9826.00,1.23
9824.00,1.22
9822.00,1.22
9820.00,1.22
9818.00,1.22
9816.00,1.22
9814.00,1.22
9812.00,1.22
9810.00,1.22
9808.00,1.22
9806.00,1.22
9804.00,1.22
9802.00,1.22
9800.00,1.23
9798.00,1.23
9796.00,1.23
9794.00,1.23
9792.00,1.24
9790.00,1.24
9788.00,1.24
9786.00,1.24
9784.00,1.25
9782.00,1.25
9780.00,1.25
9778.00,1.25
9776.00,1.26
9774.00,1.26
9772.00,1.26
9770.00,1.26
9768.00,1.26
9766.00,1.26
9764.00,1.26
9762.00,1.26
9760.00,1.26
9758.00,1.26
9756.00,1.26
9754.00,1.26
9752.00,1.26
9750.00,1.26
9748.00,1.26
9746.00,1.26
9744.00,1.26
9742.00,1.26
9740.00,1.25
9738.00,1.25
9736.00,1.25
9734.00,1.25
9732.00,1.25
9730.00,1.25
9728.00,1.25
9726.00,1.24
9724.00,1.24
9722.00,1.24
9720.00,1.24
9718.00,1.24
9716.00,1.24
9714.00,1.24
9712.00,1.24
9710.00,1.23
9708.00,1.23
9706.00,1.23
9704.00,1.23
9702.00,1.23
9700.00,1.23
9698.00,1.23
9696.00,1.23
9694.00,1.23
9692.00,1.22
9690.00,1.22
9688.00,1.22
9686.00,1.22
9684.00,1.22
9682.00,1.22
9680.00,1.22
9678.00,1.22
9676.00,1.22
9674.00,1.22
9672.00,1.22
9670.00,1.22
9668.00,1.22
9666.00,1.22
9664.00,1.22
9662.00,1.22
9660.00,1.22
9658.00,1.23
9656.00,1.23
9654.00,1.23
9652.00,1.23
9650.00,1.23
9648.00,1.23
9646.00,1.23
9644.00,1.23
9642.00,1.23
9640.00,1.23
9638.00,1.23
9636.00,1.23
9634.00,1.23
9632.00,1.23
9630.00,1.23
9628.00,1.23
9626.00,1.23
9624.00,1.23
9622.00,1.23
9620.00,1.23
9618.00,1.23
9616.00,1.23
9614.00,1.23
9612.00,1.23
9610.00,1.23
9608.00,1.23
9606.00,1.23
9604.00,1.24
9602.00,1.24
9600.00,1.24
9598.00,1.24
9596.00,1.24
9594.00,1.24
9592.00,1.24
9590.00,1.24
9588.00,1.24
9586.00,1.25
9584.00,1.25
9582.00,1.25
9580.00,1.25
9578.00,1.25
9576.00,1.25
9574.00,1.25
9572.00,1.25
9570.00,1.25
9568.00,1.25
9566.00,1.25
9564.00,1.25
9562.00,1.25
9560.00,1.25
9558.00,1.25
9556.00,1.25
9554.00,1.24
9552.00,1.24
9550.00,1.24
9548.00,1.24
9546.00,1.24
9544.00,1.24
9542.00,1.24
9540.00,1.24
9538.00,1.24
9536.00,1.24
9534.00,1.23
9532.00,1.23
9530.00,1.23
9528.00,1.23
9526.00,1.23
9524.00,1.23
9522.00,1.23
9520.00,1.23
9518.00,1.23
9516.00,1.23
9514.00,1.23
9512.00,1.24
9510.00,1.24
9508.00,1.24
9506.00,1.24
9504.00,1.24
9502.00,1.24
9500.00,1.24
9498.00,1.24
9496.00,1.24
9494.00,1.24
9492.00,1.24
9490.00,1.24
9488.00,1.24
9486.00,1.24
9484.00,1.24
9482.00,1.24
9480.00,1.24
9478.00,1.24
9476.00,1.24
9474.00,1.24
9472.00,1.24
9470.00,1.24
9468.00,1.24
9466.00,1.24
9464.00,1.24
9462.00,1.24
9460.00,1.24
9458.00,1.24
9456.00,1.24
9454.00,1.24
9452.00,1.24
9450.00,1.24
9448.00,1.24
9446.00,1.24
9444.00,1.24
9442.00,1.24
9440.00,1.24
9438.00,1.24
9436.00,1.24
9434.00,1.24
9432.00,1.24
9430.00,1.23
9428.00,1.23
9426.00,1.23
9424.00,1.23
9422.00,1.23
9420.00,1.23
9418.00,1.23
9416.00,1.22
9414.00,1.22
9412.00,1.22
9410.00,1.22
9408.00,1.22
9406.00,1.22
9404.00,1.22
9402.00,1.22
9400.00,1.22
9398.00,1.22
9396.00,1.23
9394.00,1.23
9392.00,1.23
9390.00,1.23
9388.00,1.23
9386.00,1.23
9384.00,1.23
9382.00,1.23
9380.00,1.23
9378.00,1.23
9376.00,1.23
9374.00,1.23
9372.00,1.23
9370.00,1.23
9368.00,1.23
9366.00,1.23
9364.00,1.23
9362.00,1.22
9360.00,1.22
9358.00,1.22
9356.00,1.22
9354.00,1.22
9352.00,1.22
9350.00,1.22
9348.00,1.22
9346.00,1.22
9344.00,1.22
9342.00,1.22
9340.00,1.22
9338.00,1.22
9336.00,1.22
9334.00,1.22
9332.00,1.22
9330.00,1.23
9328.00,1.23
9326.00,1.23
9324.00,1.23
9322.00,1.23
9320.00,1.23
9318.00,1.23
9316.00,1.23
9314.00,1.23
9312.00,1.23
9310.00,1.23
9308.00,1.23
9306.00,1.23
9304.00,1.23
9302.00,1.23
9300.00,1.23
9298.00,1.23
9296.00,1.23
9294.00,1.23
9292.00,1.23
9290.00,1.23
9288.00,1.23
9286.00,1.23
9284.00,1.23
9282.00,1.23
9280.00,1.23
9278.00,1.23
9276.00,1.23
9274.00,1.23
9272.00,1.23
9270.00,1.23
9268.00,1.23
9266.00,1.23
9264.00,1.23
9262.00,1.23
9260.00,1.23
9258.00,1.23
9256.00,1.23
9254.00,1.23
9252.00,1.23
9250.00,1.23
9248.00,1.23
9246.00,1.23
9244.00,1.23
9242.00,1.23
9240.00,1.23
9238.00,1.23
9236.00,1.23
9234.00,1.23
9232.00,1.23
9230.00,1.23
9228.00,1.23
9226.00,1.23
9224.00,1.23
9222.00,1.23
9220.00,1.23
9218.00,1.23
9216.00,1.23
9214.00,1.23
9212.00,1.23
9210.00,1.23
9208.00,1.23
9206.00,1.23
9204.00,1.23
9202.00,1.23
9200.00,1.23
9198.00,1.23
9196.00,1.23
9194.00,1.24
9192.00,1.24
9190.00,1.24
9188.00,1.24
9186.00,1.24
9184.00,1.24
9182.00,1.24
9180.00,1.24
9178.00,1.24
9176.00,1.24
9174.00,1.24
9172.00,1.24
9170.00,1.24
9168.00,1.24
9166.00,1.24
9164.00,1.24
9162.00,1.24
9160.00,1.24
9158.00,1.24
9156.00,1.24
9154.00,1.24
9152.00,1.23
9150.00,1.23
9148.00,1.23
9146.00,1.23
9144.00,1.23
9142.00,1.23
9140.00,1.23
9138.00,1.23
9136.00,1.23
9134.00,1.23
9132.00,1.23
9130.00,1.23
9128.00,1.23
9126.00,1.23
9124.00,1.24
9122.00,1.24
9120.00,1.24
9118.00,1.24
9116.00,1.24
9114.00,1.24
9112.00,1.24
9110.00,1.24
9108.00,1.24
9106.00,1.24
9104.00,1.24
9102.00,1.24
9100.00,1.24
9098.00,1.24
9096.00,1.24
9094.00,1.24
9092.00,1.24
9090.00,1.24
9088.00,1.24
9086.00,1.24
9084.00,1.24
9082.00,1.24
9080.00,1.24
9078.00,1.24
9076.00,1.24
9074.00,1.24
9072.00,1.24
9070.00,1.24
9068.00,1.24
9066.00,1.24
9064.00,1.24
9062.00,1.24
9060.00,1.24
9058.00,1.24
9056.00,1.24
9054.00,1.25
9052.00,1.25
9050.00,1.25
9048.00,1.25
9046.00,1.25
9044.00,1.25
9042.00,1.25
9040.00,1.25
9038.00,1.25
9036.00,1.25
9034.00,1.25
9032.00,1.25
9030.00,1.25
9028.00,1.25
9026.00,1.25
9024.00,1.25
9022.00,1.25
9020.00,1.25
9018.00,1.25
9016.00,1.25
9014.00,1.24
9012.00,1.24
9010.00,1.24
9008.00,1.24
9006.00,1.24
9004.00,1.24
9002.00,1.24
9000.00,1.23
8998.00,1.23
8996.00,1.23
8994.00,1.23
8992.00,1.23
8990.00,1.23
8988.00,1.23
8986.00,1.23
8984.00,1.23
8982.00,1.23
8980.00,1.23
8978.00,1.23
8976.00,1.23
8974.00,1.23
8972.00,1.23
8970.00,1.24
8968.00,1.24
8966.00,1.24
8964.00,1.24
8962.00,1.24
8960.00,1.24
8958.00,1.24
8956.00,1.23
8954.00,1.23
8952.00,1.23
8950.00,1.23
8948.00,1.23
8946.00,1.23
8944.00,1.23
8942.00,1.23
8940.00,1.23
8938.00,1.23
8936.00,1.23
8934.00,1.23
8932.00,1.23
8930.00,1.23
8928.00,1.23
8926.00,1.23
8924.00,1.23
8922.00,1.23
8920.00,1.23
8918.00,1.22
8916.00,1.22
8914.00,1.22
8912.00,1.22
8910.00,1.22
8908.00,1.22
8906.00,1.22
8904.00,1.22
8902.00,1.22
8900.00,1.22
8898.00,1.22
8896.00,1.22
8894.00,1.22
8892.00,1.22
8890.00,1.22
8888.00,1.22
8886.00,1.22
8884.00,1.22
8882.00,1.22
8880.00,1.22
8878.00,1.22
8876.00,1.22
8874.00,1.22
8872.00,1.22
8870.00,1.22
8868.00,1.23
8866.00,1.23
8864.00,1.23
8862.00,1.23
8860.00,1.23
8858.00,1.23
8856.00,1.23
8854.00,1.23
8852.00,1.23
8850.00,1.23
8848.00,1.23
8846.00,1.23
8844.00,1.23
8842.00,1.23
8840.00,1.22
8838.00,1.22
8836.00,1.22
8834.00,1.22
8832.00,1.22
8830.00,1.22
8828.00,1.22
8826.00,1.22
8824.00,1.22
8822.00,1.22
8820.00,1.22
8818.00,1.22
8816.00,1.22
8814.00,1.22
8812.00,1.22
8810.00,1.22
8808.00,1.22
8806.00,1.22
8804.00,1.22
8802.00,1.22
8800.00,1.22
8798.00,1.22
8796.00,1.22
8794.00,1.22
8792.00,1.22
8790.00,1.22
8788.00,1.22
8786.00,1.22
8784.00,1.22
8782.00,1.22
8780.00,1.22
8778.00,1.21
8776.00,1.21
8774.00,1.21
8772.00,1.21
8770.00,1.21
8768.00,1.21
8766.00,1.21
8764.00,1.21
8762.00,1.21
8760.00,1.21
8758.00,1.21
8756.00,1.21
8754.00,1.21
8752.00,1.21
8750.00,1.21
8748.00,1.21
8746.00,1.21
8744.00,1.21
8742.00,1.21
8740.00,1.21
8738.00,1.21
8736.00,1.21
8734.00,1.21
8732.00,1.21
8730.00,1.22
8728.00,1.22
8726.00,1.22
8724.00,1.22
8722.00,1.22
8720.00,1.22
8718.00,1.22
8716.00,1.22
8714.00,1.22
8712.00,1.22
8710.00,1.22
8708.00,1.22
8706.00,1.22
8704.00,1.22
8702.00,1.22
8700.00,1.22
8698.00,1.22
8696.00,1.22
8694.00,1.22
8692.00,1.22
8690.00,1.22
8688.00,1.22
8686.00,1.22
8684.00,1.22
8682.00,1.22
8680.00,1.22
8678.00,1.22
8676.00,1.22
8674.00,1.22
8672.00,1.22
8670.00,1.22
8668.00,1.22
8666.00,1.22
8664.00,1.22
8662.00,1.22
8660.00,1.22
8658.00,1.22
8656.00,1.22
8654.00,1.22
8652.00,1.22
8650.00,1.22
8648.00,1.22
8646.00,1.22
8644.00,1.22
8642.00,1.22
8640.00,1.22
8638.00,1.22
8636.00,1.22
8634.00,1.22
8632.00,1.22
8630.00,1.22
8628.00,1.22
8626.00,1.22
8624.00,1.22
8622.00,1.22
8620.00,1.22
8618.00,1.22
8616.00,1.22
8614.00,1.22
8612.00,1.22
8610.00,1.22
8608.00,1.22
8606.00,1.22
8604.00,1.22
8602.00,1.22
8600.00,1.22
8598.00,1.22
8596.00,1.22
8594.00,1.22
8592.00,1.22
8590.00,1.22
8588.00,1.22
8586.00,1.22
8584.00,1.22
8582.00,1.22
8580.00,1.22
8578.00,1.22
8576.00,1.22
8574.00,1.22
8572.00,1.22
8570.00,1.22
8568.00,1.22
8566.00,1.22
8564.00,1.22
8562.00,1.22
8560.00,1.22
8558.00,1.22
8556.00,1.22
8554.00,1.22
8552.00,1.22
8550.00,1.21
8548.00,1.21
8546.00,1.21
8544.00,1.21
8542.00,1.21
8540.00,1.21
8538.00,1.21
8536.00,1.21
8534.00,1.21
8532.00,1.21
8530.00,1.21
8528.00,1.21
8526.00,1.21
8524.00,1.21
8522.00,1.21
8520.00,1.21
8518.00,1.21
8516.00,1.21
8514.00,1.21
8512.00,1.21
8510.00,1.21
8508.00,1.21
8506.00,1.21
8504.00,1.21
8502.00,1.21
8500.00,1.21
8498.00,1.21
8496.00,1.21
8494.00,1.21
8492.00,1.21
8490.00,1.21
8488.00,1.21
8486.00,1.21
8484.00,1.21
8482.00,1.21
8480.00,1.21
8478.00,1.21
8476.00,1.21
8474.00,1.21
8472.00,1.21
8470.00,1.21
8468.00,1.21
8466.00,1.21
8464.00,1.21
8462.00,1.21
8460.00,1.21
8458.00,1.21
8456.00,1.21
8454.00,1.20
8452.00,1.20
8450.00,1.20
8448.00,1.20
8446.00,1.20
8444.00,1.20
8442.00,1.20
8440.00,1.20
8438.00,1.20
8436.00,1.20
8434.00,1.20
8432.00,1.19
8430.00,1.19
8428.00,1.19
8426.00,1.19
8424.00,1.19
8422.00,1.19
8420.00,1.19
8418.00,1.20
8416.00,1.20
8414.00,1.20
8412.00,1.20
8410.00,1.20
8408.00,1.20
8406.00,1.20
8404.00,1.20
8402.00,1.20
8400.00,1.20
8398.00,1.20
8396.00,1.21
8394.00,1.21
8392.00,1.21
8390.00,1.21
8388.00,1.21
8386.00,1.21
8384.00,1.21
8382.00,1.21
8380.00,1.22
8378.00,1.22
8376.00,1.22
8374.00,1.22
8372.00,1.22
8370.00,1.22
8368.00,1.22
8366.00,1.22
8364.00,1.22
8362.00,1.22
8360.00,1.22
8358.00,1.22
8356.00,1.22
8354.00,1.22
8352.00,1.22
8350.00,1.22
8348.00,1.22
8346.00,1.22
8344.00,1.22
8342.00,1.21
8340.00,1.21
8338.00,1.21
8336.00,1.22
8334.00,1.22
8332.00,1.22
8330.00,1.22
8328.00,1.22
8326.00,1.22
8324.00,1.22
8322.00,1.22
8320.00,1.22
8318.00,1.22
8316.00,1.22
8314.00,1.21
8312.00,1.21
8310.00,1.21
8308.00,1.21
8306.00,1.21
8304.00,1.21
8302.00,1.21
8300.00,1.22
8298.00,1.22
8296.00,1.22
8294.00,1.22
8292.00,1.22
8290.00,1.22
8288.00,1.22
8286.00,1.22
8284.00,1.22
8282.00,1.22
8280.00,1.22
8278.00,1.22
8276.00,1.22
8274.00,1.22
8272.00,1.22
8270.00,1.22
8268.00,1.22
8266.00,1.22
8264.00,1.22
8262.00,1.22
8260.00,1.22
8258.00,1.22
8256.00,1.22
8254.00,1.22
8252.00,1.22
8250.00,1.22
8248.00,1.22
8246.00,1.22
8244.00,1.22
8242.00,1.22
8240.00,1.22
8238.00,1.22
8236.00,1.22
8234.00,1.22
8232.00,1.22
8230.00,1.22
8228.00,1.22
8226.00,1.22
8224.00,1.22
8222.00,1.22
8220.00,1.22
8218.00,1.22
8216.00,1.22
8214.00,1.22
8212.00,1.22
8210.00,1.22
8208.00,1.22
8206.00,1.22
8204.00,1.22
8202.00,1.22
8200.00,1.22
8198.00,1.22
8196.00,1.22
8194.00,1.22
8192.00,1.22
8190.00,1.22
8188.00,1.22
8186.00,1.22
8184.00,1.22
8182.00,1.22
8180.00,1.22
8178.00,1.22
8176.00,1.23
8174.00,1.23
8172.00,1.23
8170.00,1.23
8168.00,1.23
8166.00,1.23
8164.00,1.23
8162.00,1.23
8160.00,1.23
8158.00,1.23
8156.00,1.23
8154.00,1.23
8152.00,1.23
8150.00,1.23
8148.00,1.23
8146.00,1.23
8144.00,1.23
8142.00,1.23
8140.00,1.23
8138.00,1.23
8136.00,1.22
8134.00,1.22
8132.00,1.22
8130.00,1.22
8128.00,1.22
8126.00,1.22
8124.00,1.22
8122.00,1.22
8120.00,1.22
8118.00,1.22
8116.00,1.22
8114.00,1.22
8112.00,1.22
8110.00,1.22
8108.00,1.22
8106.00,1.22
8104.00,1.21
8102.00,1.21
8100.00,1.21
8098.00,1.21
8096.00,1.21
8094.00,1.21
8092.00,1.21
8090.00,1.21
8088.00,1.21
8086.00,1.21
8084.00,1.21
8082.00,1.21
8080.00,1.21
8078.00,1.21
8076.00,1.21
8074.00,1.21
8072.00,1.21
8070.00,1.21
8068.00,1.21
8066.00,1.21
8064.00,1.22
8062.00,1.22
8060.00,1.22
8058.00,1.22
8056.00,1.22
8054.00,1.22
8052.00,1.22
8050.00,1.22
8048.00,1.22
8046.00,1.22
8044.00,1.22
8042.00,1.22
8040.00,1.22
8038.00,1.22
8036.00,1.22
8034.00,1.22
8032.00,1.22
8030.00,1.22
8028.00,1.23
8026.00,1.23
8024.00,1.23
8022.00,1.23
8020.00,1.23
8018.00,1.23
8016.00,1.23
8014.00,1.23
8012.00,1.23
8010.00,1.23
8008.00,1.23
8006.00,1.23
8004.00,1.23
8002.00,1.23
8000.00,1.23
7998.00,1.23
7996.00,1.23
7994.00,1.23
7992.00,1.23
7990.00,1.23
7988.00,1.23
7986.00,1.23
7984.00,1.23
7982.00,1.23
7980.00,1.23
7978.00,1.23
7976.00,1.23
7974.00,1.23
7972.00,1.23
7970.00,1.23
7968.00,1.23
7966.00,1.23
7964.00,1.23
7962.00,1.23
7960.00,1.23
7958.00,1.23
7956.00,1.23
7954.00,1.23
7952.00,1.23
7950.00,1.23
7948.00,1.23
7946.00,1.23
7944.00,1.23
7942.00,1.23
7940.00,1.23
7938.00,1.23
7936.00,1.23
7934.00,1.23
7932.00,1.23
7930.00,1.23
7928.00,1.23
7926.00,1.23
7924.00,1.23
7922.00,1.23
7920.00,1.24
7918.00,1.24
7916.00,1.24
7914.00,1.24
7912.00,1.24
7910.00,1.24
7908.00,1.24
7906.00,1.24
7904.00,1.24
7902.00,1.24
7900.00,1.24
7898.00,1.24
7896.00,1.24
7894.00,1.24
7892.00,1.24
7890.00,1.24
7888.00,1.24
7886.00,1.24
7884.00,1.24
7882.00,1.24
7880.00,1.24
7878.00,1.24
7876.00,1.24
7874.00,1.24
7872.00,1.24
7870.00,1.24
7868.00,1.24
7866.00,1.24
7864.00,1.24
7862.00,1.24
7860.00,1.24
7858.00,1.24
7856.00,1.24
7854.00,1.24
7852.00,1.24
7850.00,1.24
7848.00,1.24
7846.00,1.24
7844.00,1.24
7842.00,1.24
7840.00,1.24
7838.00,1.24
7836.00,1.24
7834.00,1.24
7832.00,1.24
7830.00,1.24
7828.00,1.24
7826.00,1.24
7824.00,1.24
7822.00,1.24
7820.00,1.24
7818.00,1.24
7816.00,1.24
7814.00,1.24
7812.00,1.24
7810.00,1.25
7808.00,1.25
7806.00,1.25
7804.00,1.25
7802.00,1.25
7800.00,1.25
7798.00,1.25
7796.00,1.25
7794.00,1.25
7792.00,1.25
7790.00,1.25
7788.00,1.25
7786.00,1.25
7784.00,1.25
7782.00,1.25
7780.00,1.25
7778.00,1.25
7776.00,1.25
7774.00,1.25
7772.00,1.25
7770.00,1.25
7768.00,1.25
7766.00,1.25
7764.00,1.25
7762.00,1.25
7760.00,1.25
7758.00,1.25
7756.00,1.25
7754.00,1.25
7752.00,1.25
7750.00,1.25
7748.00,1.25
7746.00,1.25
7744.00,1.25
7742.00,1.25
7740.00,1.25
7738.00,1.25
7736.00,1.25
7734.00,1.25
7732.00,1.25
7730.00,1.25
7728.00,1.25
7726.00,1.25
7724.00,1.25
7722.00,1.25
7720.00,1.25
7718.00,1.25
7716.00,1.25
7714.00,1.25
7712.00,1.25
7710.00,1.25
7708.00,1.26
7706.00,1.26
7704.00,1.26
7702.00,1.26
7700.00,1.26
7698.00,1.26
7696.00,1.26
7694.00,1.26
7692.00,1.26
7690.00,1.26
7688.00,1.26
7686.00,1.26
7684.00,1.26
7682.00,1.26
7680.00,1.26
7678.00,1.26
7676.00,1.26
7674.00,1.26
7672.00,1.26
7670.00,1.26
7668.00,1.26
7666.00,1.26
7664.00,1.26
7662.00,1.26
7660.00,1.26
7658.00,1.26
7656.00,1.26
7654.00,1.26
7652.00,1.26
7650.00,1.26
7648.00,1.26
7646.00,1.26
7644.00,1.26
7642.00,1.26
7640.00,1.26
7638.00,1.26
7636.00,1.25
7634.00,1.25
7632.00,1.25
7630.00,1.25
7628.00,1.25
7626.00,1.25
7624.00,1.25
7622.00,1.25
7620.00,1.25
7618.00,1.25
7616.00,1.25
7614.00,1.25
7612.00,1.25
7610.00,1.25
7608.00,1.25
7606.00,1.25
7604.00,1.25
7602.00,1.25
7600.00,1.25
7598.00,1.25
7596.00,1.25
7594.00,1.25
7592.00,1.25
7590.00,1.25
7588.00,1.25
7586.00,1.25
7584.00,1.25
7582.00,1.25
7580.00,1.25
7578.00,1.25
7576.00,1.25
7574.00,1.25
7572.00,1.25
7570.00,1.25
7568.00,1.25
7566.00,1.25
7564.00,1.25
7562.00,1.25
7560.00,1.25
7558.00,1.25
7556.00,1.25
7554.00,1.25
7552.00,1.25
7550.00,1.25
7548.00,1.25
7546.00,1.25
7544.00,1.25
7542.00,1.25
7540.00,1.25
7538.00,1.25
7536.00,1.25
7534.00,1.25
7532.00,1.25
7530.00,1.25
7528.00,1.25
7526.00,1.25
7524.00,1.25
7522.00,1.25
7520.00,1.25
7518.00,1.25
7516.00,1.25
7514.00,1.25
7512.00,1.25
7510.00,1.25
7508.00,1.25
7506.00,1.25
7504.00,1.25
7502.00,1.25
7500.00,1.25
7498.00,1.25
7496.00,1.25
7494.00,1.25
7492.00,1.25
7490.00,1.25
7488.00,1.25
7486.00,1.24
7484.00,1.24
7482.00,1.24
7480.00,1.24
7478.00,1.24
7476.00,1.24
7474.00,1.24
7472.00,1.24
7470.00,1.24
7468.00,1.24
7466.00,1.24
7464.00,1.24
7462.00,1.24
7460.00,1.24
7458.00,1.24
7456.00,1.24
7454.00,1.24
7452.00,1.24
7450.00,1.24
7448.00,1.24
7446.00,1.24
7444.00,1.24
7442.00,1.24
7440.00,1.23
7438.00,1.23
7436.00,1.23
7434.00,1.23
7432.00,1.23
7430.00,1.23
7428.00,1.23
7426.00,1.23
7424.00,1.23
7422.00,1.23
7420.00,1.23
7418.00,1.23
7416.00,1.23
7414.00,1.23
7412.00,1.23
7410.00,1.23
7408.00,1.23
7406.00,1.22
7404.00,1.22
7402.00,1.22
7400.00,1.22
7398.00,1.22
7396.00,1.22
7394.00,1.22
7392.00,1.22
7390.00,1.22
7388.00,1.22
7386.00,1.22
7384.00,1.22
7382.00,1.22
7380.00,1.22
7378.00,1.22
7376.00,1.22
7374.00,1.22
7372.00,1.21
7370.00,1.21
7368.00,1.21
7366.00,1.21
7364.00,1.21
7362.00,1.21
7360.00,1.21
7358.00,1.21
7356.00,1.21
7354.00,1.21
7352.00,1.21
7350.00,1.21
7348.00,1.21
7346.00,1.21
7344.00,1.21
7342.00,1.21
7340.00,1.21
7338.00,1.21
7336.00,1.21
7334.00,1.22
7332.00,1.22
7330.00,1.22
7328.00,1.22
7326.00,1.22
7324.00,1.22
7322.00,1.22
7320.00,1.22
7318.00,1.22
7316.00,1.22
7314.00,1.22
7312.00,1.22
7310.00,1.22
7308.00,1.22
7306.00,1.21
7304.00,1.21
7302.00,1.21
7300.00,1.21
7298.00,1.21
7296.00,1.21
7294.00,1.21
7292.00,1.21
7290.00,1.21
7288.00,1.21
7286.00,1.21
7284.00,1.21
7282.00,1.21
7280.00,1.21
7278.00,1.21
7276.00,1.21
7274.00,1.21
7272.00,1.21
7270.00,1.21
7268.00,1.21
7266.00,1.21
7264.00,1.21
7262.00,1.21
7260.00,1.20
7258.00,1.20
7256.00,1.20
7254.00,1.20
7252.00,1.20
7250.00,1.20
7248.00,1.19
7246.00,1.19
7244.00,1.19
7242.00,1.19
7240.00,1.19
7238.00,1.19
7236.00,1.18
7234.00,1.18
7232.00,1.18
7230.00,1.18
7228.00,1.18
7226.00,1.17
7224.00,1.17
7222.00,1.17
7220.00,1.17
7218.00,1.17
7216.00,1.16
7214.00,1.16
7212.00,1.16
7210.00,1.16
7208.00,1.15
7206.00,1.15
7204.00,1.15
7202.00,1.15
7200.00,1.15
7198.00,1.14
7196.00,1.14
7194.00,1.14
7192.00,1.14
7190.00,1.13
7188.00,1.13
7186.00,1.13
7184.00,1.13
7182.00,1.13
7180.00,1.12
7178.00,1.12
7176.00,1.12
7174.00,1.12
7172.00,1.11
7170.00,1.11
7168.00,1.11
7166.00,1.11
7164.00,1.10
7162.00,1.10
7160.00,1.10
7158.00,1.10
7156.00,1.09
7154.00,1.09
7152.00,1.09
7150.00,1.09
7148.00,1.08
7146.00,1.08
7144.00,1.08
7142.00,1.08
7140.00,1.08
7138.00,1.07
7136.00,1.07
7134.00,1.07
7132.00,1.07
7130.00,1.06
7128.00,1.06
7126.00,1.06
7124.00,1.06
7122.00,1.06
7120.00,1.05
7118.00,1.05
7116.00,1.05
7114.00,1.05
7112.00,1.04
7110.00,1.04
7108.00,1.04
7106.00,1.04
7104.00,1.04
7102.00,1.03
7100.00,1.03
7098.00,1.03
7096.00,1.03
7094.00,1.03
7092.00,1.03
7090.00,1.02
7088.00,1.02
7086.00,1.02
7084.00,1.02
7082.00,1.02
7080.00,1.01
7078.00,1.01
7076.00,1.01
7074.00,1.01
7072.00,1.01
7070.00,1.01
7068.00,1.01
7066.00,1.00
7064.00,1.00
7062.00,1.00
7060.00,1.00
7058.00,1.00
7056.00,1.00
7054.00,1.00
7052.00,1.00
7050.00,0.99
7048.00,0.99
7046.00,0.99
7044.00,0.99
7042.00,0.99
7040.00,0.99
7038.00,0.99
7036.00,0.99
7034.00,0.98
7032.00,0.98
7030.00,0.98
7028.00,0.98
7026.00,0.98
7024.00,0.98
7022.00,0.98
7020.00,0.98
7018.00,0.97
7016.00,0.97
7014.00,0.97
7012.00,0.97
7010.00,0.97
7008.00,0.97
7006.00,0.97
7004.00,0.97
7002.00,0.97
7000.00,0.97
6998.00,0.97
6996.00,0.96
6994.00,0.96
6992.00,0.96
6990.00,0.96
6988.00,0.96
6986.00,0.96
6984.00,0.96
6982.00,0.96
6980.00,0.96
6978.00,0.96
6976.00,0.96
6974.00,0.96
6972.00,0.96
6970.00,0.95
6968.00,0.95
6966.00,0.95
6964.00,0.95
6962.00,0.95
6960.00,0.95
6958.00,0.95
6956.00,0.95
6954.00,0.95
6952.00,0.95
6950.00,0.95
6948.00,0.95
6946.00,0.95
6944.00,0.95
6942.00,0.95
6940.00,0.95
6938.00,0.95
6936.00,0.95
6934.00,0.95
6932.00,0.95
6930.00,0.95
6928.00,0.95
6926.00,0.95
6924.00,0.95
6922.00,0.95
6920.00,0.95
6918.00,0.95
6916.00,0.94
6914.00,0.94
6912.00,0.94
6910.00,0.94
6908.00,0.94
6906.00,0.94
6904.00,0.94
6902.00,0.94
6900.00,0.94
6898.00,0.94
6896.00,0.94
6894.00,0.94
6892.00,0.94
6890.00,0.94
6888.00,0.94
6886.00,0.94
6884.00,0.94
6882.00,0.94
6880.00,0.94
6878.00,0.94
6876.00,0.94
6874.00,0.94
6872.00,0.94
6870.00,0.94
6868.00,0.94
6866.00,0.94
6864.00,0.94
6862.00,0.94
6860.00,0.94
6858.00,0.94
6856.00,0.94
6854.00,0.94
6852.00,0.94
6850.00,0.94
6848.00,0.94
6846.00,0.94
6844.00,0.94
6842.00,0.94
6840.00,0.94
6838.00,0.94
6836.00,0.94
6834.00,0.94
6832.00,0.94
6830.00,0.94
6828.00,0.94
6826.00,0.94
6824.00,0.94
6822.00,0.94
6820.00,0.95
6818.00,0.95
6816.00,0.95
6814.00,0.95
6812.00,0.95
6810.00,0.95
6808.00,0.95
6806.00,0.95
6804.00,0.95
6802.00,0.95
6800.00,0.95
6798.00,0.95
6796.00,0.95
6794.00,0.95
6792.00,0.96
6790.00,0.96
6788.00,0.96
6786.00,0.96
6784.00,0.96
6782.00,0.96
6780.00,0.96
6778.00,0.96
6776.00,0.96
6774.00,0.96
6772.00,0.96
6770.00,0.97
6768.00,0.97
6766.00,0.97
6764.00,0.97
6762.00,0.97
6760.00,0.97
6758.00,0.97
6756.00,0.97
6754.00,0.97
6752.00,0.97
6750.00,0.98
6748.00,0.98
6746.00,0.98
6744.00,0.98
6742.00,0.98
6740.00,0.98
6738.00,0.98
6736.00,0.98
6734.00,0.99
6732.00,0.99
6730.00,0.99
6728.00,0.99
6726.00,0.99
6724.00,0.99
6722.00,0.99
6720.00,0.99
6718.00,0.99
6716.00,1.00
6714.00,1.00
6712.00,1.00
6710.00,1.00
6708.00,1.00
6706.00,1.00
6704.00,1.00
6702.00,1.00
6700.00,1.00
6698.00,1.01
6696.00,1.01
6694.00,1.01
6692.00,1.01
6690.00,1.01
6688.00,1.01
6686.00,1.01
6684.00,1.01
6682.00,1.01
6680.00,1.01
6678.00,1.01
6676.00,1.02
6674.00,1.02
6672.00,1.02
6670.00,1.02
6668.00,1.02
6666.00,1.02
6664.00,1.02
6662.00,1.02
6660.00,1.02
6658.00,1.03
6656.00,1.03
6654.00,1.03
6652.00,1.03
6650.00,1.03
6648.00,1.03
6646.00,1.03
6644.00,1.04
6642.00,1.04
6640.00,1.04
6638.00,1.04
6636.00,1.04
6634.00,1.04
6632.00,1.04
6630.00,1.05
6628.00,1.05
6626.00,1.05
6624.00,1.05
6622.00,1.05
6620.00,1.05
6618.00,1.05
6616.00,1.05
6614.00,1.06
6612.00,1.06
6610.00,1.06
6608.00,1.06
6606.00,1.06
6604.00,1.06
6602.00,1.06
6600.00,1.06
6598.00,1.06
6596.00,1.06
6594.00,1.07
6592.00,1.07
6590.00,1.07
6588.00,1.07
6586.00,1.07
6584.00,1.07
6582.00,1.07
6580.00,1.07
6578.00,1.08
6576.00,1.08
6574.00,1.08
6572.00,1.08
6570.00,1.08
6568.00,1.08
6566.00,1.08
6564.00,1.09
6562.00,1.09
6560.00,1.09
6558.00,1.09
6556.00,1.09
6554.00,1.09
6552.00,1.09
6550.00,1.09
6548.00,1.10
6546.00,1.10
6544.00,1.10
6542.00,1.10
6540.00,1.10
6538.00,1.10
6536.00,1.10
6534.00,1.10
6532.00,1.11
6530.00,1.11
6528.00,1.11
6526.00,1.11
6524.00,1.11
6522.00,1.11
6520.00,1.11
6518.00,1.11
6516.00,1.12
6514.00,1.12
6512.00,1.12
6510.00,1.12
6508.00,1.12
6506.00,1.12
6504.00,1.12
6502.00,1.12
6500.00,1.13
6498.00,1.13
6496.00,1.13
6494.00,1.13
6492.00,1.13
6490.00,1.13
6488.00,1.13
6486.00,1.13
6484.00,1.13
6482.00,1.13
6480.00,1.14
6478.00,1.14
6476.00,1.14
6474.00,1.14
6472.00,1.14
6470.00,1.14
6468.00,1.14
6466.00,1.14
6464.00,1.14
6462.00,1.14
6460.00,1.14
6458.00,1.14
6456.00,1.15
6454.00,1.15
6452.00,1.15
6450.00,1.15
6448.00,1.15
6446.00,1.15
6444.00,1.15
6442.00,1.15
6440.00,1.15
6438.00,1.15
6436.00,1.15
6434.00,1.15
6432.00,1.15
6430.00,1.15
6428.00,1.15
6426.00,1.15
6424.00,1.15
6422.00,1.16
6420.00,1.16
6418.00,1.16
6416.00,1.16
6414.00,1.16
6412.00,1.16
6410.00,1.16
6408.00,1.16
6406.00,1.16
6404.00,1.16
6402.00,1.16
6400.00,1.17
6398.00,1.17
6396.00,1.17
6394.00,1.17
6392.00,1.17
6390.00,1.17
6388.00,1.17
6386.00,1.17
6384.00,1.17
6382.00,1.17
6380.00,1.17
6378.00,1.18
6376.00,1.18
6374.00,1.18
6372.00,1.18
6370.00,1.18
6368.00,1.18
6366.00,1.18
6364.00,1.18
6362.00,1.18
6360.00,1.18
6358.00,1.18
6356.00,1.18
6354.00,1.18
6352.00,1.18
6350.00,1.18
6348.00,1.18
6346.00,1.19
6344.00,1.19
6342.00,1.19
6340.00,1.19
6338.00,1.19
6336.00,1.19
6334.00,1.19
6332.00,1.19
6330.00,1.19
6328.00,1.19
6326.00,1.19
6324.00,1.19
6322.00,1.19
6320.00,1.20
6318.00,1.20
6316.00,1.20
6314.00,1.20
6312.00,1.20
6310.00,1.20
6308.00,1.20
6306.00,1.20
6304.00,1.20
6302.00,1.20
6300.00,1.20
6298.00,1.21
6296.00,1.21
6294.00,1.21
6292.00,1.21
6290.00,1.21
6288.00,1.21
6286.00,1.21
6284.00,1.21
6282.00,1.21
6280.00,1.21
6278.00,1.21
6276.00,1.21
6274.00,1.21
6272.00,1.21
6270.00,1.21
6268.00,1.21
6266.00,1.22
6264.00,1.22
6262.00,1.22
6260.00,1.22
6258.00,1.22
6256.00,1.22
6254.00,1.22
6252.00,1.22
6250.00,1.22
6248.00,1.22
6246.00,1.22
6244.00,1.22
6242.00,1.22
6240.00,1.22
6238.00,1.22
6236.00,1.22
6234.00,1.22
6232.00,1.22
6230.00,1.22
6228.00,1.22
6226.00,1.22
6224.00,1.22
6222.00,1.22
6220.00,1.23
6218.00,1.23
6216.00,1.23
6214.00,1.23
6212.00,1.23
6210.00,1.23
6208.00,1.23
6206.00,1.23
6204.00,1.23
6202.00,1.23
6200.00,1.23
6198.00,1.23
6196.00,1.23
6194.00,1.24
6192.00,1.24
6190.00,1.24
6188.00,1.24
6186.00,1.24
6184.00,1.24
6182.00,1.24
6180.00,1.24
6178.00,1.24
6176.00,1.24
6174.00,1.24
6172.00,1.24
6170.00,1.24
6168.00,1.24
6166.00,1.24
6164.00,1.24
6162.00,1.24
6160.00,1.24
6158.00,1.25
6156.00,1.25
6154.00,1.25
6152.00,1.25
6150.00,1.25
6148.00,1.25
6146.00,1.25
6144.00,1.25
6142.00,1.25
6140.00,1.25
6138.00,1.25
6136.00,1.25
6134.00,1.25
6132.00,1.25
6130.00,1.25
6128.00,1.25
6126.00,1.25
6124.00,1.25
6122.00,1.25
6120.00,1.25
6118.00,1.25
6116.00,1.25
6114.00,1.25
6112.00,1.26
6110.00,1.26
6108.00,1.26
6106.00,1.26
6104.00,1.26
6102.00,1.26
6100.00,1.26
6098.00,1.26
6096.00,1.26
6094.00,1.26
6092.00,1.26
6090.00,1.26
6088.00,1.26
6086.00,1.26
6084.00,1.26
6082.00,1.26
6080.00,1.26
6078.00,1.26
6076.00,1.26
6074.00,1.26
6072.00,1.26
6070.00,1.26
6068.00,1.26
6066.00,1.26
6064.00,1.26
6062.00,1.26
6060.00,1.26
6058.00,1.26
6056.00,1.26
6054.00,1.26
6052.00,1.26
6050.00,1.26
6048.00,1.26
6046.00,1.26
6044.00,1.26
6042.00,1.26
6040.00,1.26
6038.00,1.26
6036.00,1.26
6034.00,1.26
6032.00,1.26
6030.00,1.26
6028.00,1.26
6026.00,1.26
6024.00,1.26
6022.00,1.26
6020.00,1.26
6018.00,1.26
6016.00,1.26
6014.00,1.26
6012.00,1.26
6010.00,1.26
6008.00,1.26
6006.00,1.26
6004.00,1.26
6002.00,1.26
6000.00,1.26
5998.00,1.26
5996.00,1.26
5994.00,1.26
5992.00,1.26
5990.00,1.26
5988.00,1.26
5986.00,1.26
5984.00,1.26
5982.00,1.26
5980.00,1.26
5978.00,1.26
5976.00,1.25
5974.00,1.25
5972.00,1.25
5970.00,1.25
5968.00,1.25
5966.00,1.25
5964.00,1.24
5962.00,1.24
5960.00,1.24
5958.00,1.24
5956.00,1.24
5954.00,1.24
5952.00,1.23
5950.00,1.23
5948.00,1.23
5946.00,1.23
5944.00,1.23
5942.00,1.23
5940.00,1.23
5938.00,1.23
5936.00,1.22
5934.00,1.22
5932.00,1.22
5930.00,1.22
5928.00,1.22
5926.00,1.22
5924.00,1.22
5922.00,1.22
5920.00,1.22
5918.00,1.22
5916.00,1.22
5914.00,1.22
5912.00,1.22
5910.00,1.22
5908.00,1.22
5906.00,1.22
5904.00,1.22
5902.00,1.22
5900.00,1.22
5898.00,1.22
5896.00,1.22
5894.00,1.22
5892.00,1.22
5890.00,1.22
5888.00,1.22
5886.00,1.23
5884.00,1.23
5882.00,1.23
5880.00,1.23
5878.00,1.23
5876.00,1.23
5874.00,1.23
5872.00,1.23
5870.00,1.23
5868.00,1.24
5866.00,1.24
5864.00,1.24
5862.00,1.24
5860.00,1.24
5858.00,1.24
5856.00,1.24
5854.00,1.24
5852.00,1.24
5850.00,1.24
5848.00,1.24
5846.00,1.24
5844.00,1.24
5842.00,1.24
5840.00,1.24
5838.00,1.24
5836.00,1.24
5834.00,1.24
5832.00,1.24
5830.00,1.24
5828.00,1.24
5826.00,1.24
5824.00,1.24
5822.00,1.24
5820.00,1.24
5818.00,1.24
5816.00,1.24
5814.00,1.24
5812.00,1.24
5810.00,1.24
5808.00,1.24
5806.00,1.24
5804.00,1.24
5802.00,1.24
5800.00,1.24
5798.00,1.24
5796.00,1.24
5794.00,1.24
5792.00,1.24
5790.00,1.24
5788.00,1.24
5786.00,1.24
5784.00,1.24
5782.00,1.24
5780.00,1.24
5778.00,1.24
5776.00,1.24
5774.00,1.24
5772.00,1.24
5770.00,1.24
5768.00,1.24
5766.00,1.24
5764.00,1.24
5762.00,1.24
5760.00,1.24
5758.00,1.24
5756.00,1.24
5754.00,1.24
5752.00,1.24
5750.00,1.25
5748.00,1.25
5746.00,1.25
5744.00,1.25
5742.00,1.25
5740.00,1.25
5738.00,1.25
5736.00,1.25
5734.00,1.25
5732.00,1.25
5730.00,1.25
5728.00,1.25
5726.00,1.25
5724.00,1.25
5722.00,1.25
5720.00,1.25
5718.00,1.25
5716.00,1.25
5714.00,1.25
5712.00,1.25
5710.00,1.25
5708.00,1.25
5706.00,1.25
5704.00,1.25
5702.00,1.25
5700.00,1.25
5698.00,1.25
5696.00,1.25
5694.00,1.25
5692.00,1.25
5690.00,1.25
5688.00,1.25
5686.00,1.25
5684.00,1.25
5682.00,1.25
5680.00,1.25
5678.00,1.24
5676.00,1.24
5674.00,1.24
5672.00,1.24
5670.00,1.24
5668.00,1.24
5666.00,1.24
5664.00,1.24
5662.00,1.24
5660.00,1.25
5658.00,1.25
5656.00,1.25
5654.00,1.25
5652.00,1.25
5650.00,1.25
5648.00,1.25
5646.00,1.25
5644.00,1.25
5642.00,1.25
5640.00,1.25
5638.00,1.25
5636.00,1.25
5634.00,1.25
5632.00,1.25
5630.00,1.25
5628.00,1.25
5626.00,1.25
5624.00,1.25
5622.00,1.25
5620.00,1.25
5618.00,1.25
5616.00,1.25
5614.00,1.25
5612.00,1.26
5610.00,1.26
5608.00,1.26
5606.00,1.26
5604.00,1.26
5602.00,1.26
5600.00,1.26
5598.00,1.26
5596.00,1.26
5594.00,1.26
5592.00,1.26
5590.00,1.26
5588.00,1.26
5586.00,1.26
5584.00,1.26
5582.00,1.26
5580.00,1.26
5578.00,1.26
5576.00,1.26
5574.00,1.26
5572.00,1.26
5570.00,1.26
5568.00,1.26
5566.00,1.26
5564.00,1.26
5562.00,1.26
5560.00,1.27
5558.00,1.27
5556.00,1.27
5554.00,1.27
5552.00,1.27
5550.00,1.27
5548.00,1.27
5546.00,1.27
5544.00,1.27
5542.00,1.27
5540.00,1.27
5538.00,1.27
5536.00,1.27
5534.00,1.27
5532.00,1.27
5530.00,1.27
5528.00,1.27
5526.00,1.27
5524.00,1.27
5522.00,1.27
5520.00,1.27
5518.00,1.27
5516.00,1.27
5514.00,1.26
5512.00,1.26
5510.00,1.26
5508.00,1.26
5506.00,1.26
5504.00,1.26
5502.00,1.26
5500.00,1.26
5498.00,1.26
5496.00,1.26
5494.00,1.26
5492.00,1.26
5490.00,1.26
5488.00,1.26
5486.00,1.26
5484.00,1.26
5482.00,1.26
5480.00,1.26
5478.00,1.26
5476.00,1.26
5474.00,1.27
5472.00,1.27
5470.00,1.27
5468.00,1.27
5466.00,1.27
5464.00,1.27
5462.00,1.26
5460.00,1.26
5458.00,1.26
5456.00,1.26
5454.00,1.26
5452.00,1.26
5450.00,1.26
5448.00,1.26
5446.00,1.26
5444.00,1.26
5442.00,1.26
5440.00,1.26
5438.00,1.26
5436.00,1.26
5434.00,1.26
5432.00,1.26
5430.00,1.26
5428.00,1.26
5426.00,1.26
5424.00,1.26
5422.00,1.26
5420.00,1.26
5418.00,1.26
5416.00,1.26
5414.00,1.26
5412.00,1.26
5410.00,1.26
5408.00,1.26
5406.00,1.26
5404.00,1.26
5402.00,1.26
5400.00,1.26
5398.00,1.26
5396.00,1.26
5394.00,1.26
5392.00,1.26
5390.00,1.26
5388.00,1.25
5386.00,1.25
5384.00,1.25
5382.00,1.25
5380.00,1.25
5378.00,1.24
5376.00,1.24
5374.00,1.24
5372.00,1.23
5370.00,1.23
5368.00,1.23
5366.00,1.22
5364.00,1.22
5362.00,1.21
5360.00,1.21
5358.00,1.20
5356.00,1.20
5354.00,1.19
5352.00,1.19
5350.00,1.18
5348.00,1.17
5346.00,1.17
5344.00,1.16
5342.00,1.15
5340.00,1.14
5338.00,1.14
5336.00,1.13
5334.00,1.12
5332.00,1.11
5330.00,1.10
5328.00,1.09
5326.00,1.08
5324.00,1.07
5322.00,1.06
5320.00,1.05
5318.00,1.04
5316.00,1.03
5314.00,1.02
5312.00,1.01
5310.00,1.00
5308.00,0.98
5306.00,0.97
5304.00,0.96
5302.00,0.95
5300.00,0.94
5298.00,0.92
5296.00,0.91
5294.00,0.90
5292.00,0.89
5290.00,0.88
5288.00,0.87
5286.00,0.86
5284.00,0.85
5282.00,0.84
5280.00,0.83
5278.00,0.82
5276.00,0.81
5274.00,0.80
5272.00,0.79
5270.00,0.78
5268.00,0.78
5266.00,0.77
5264.00,0.76
5262.00,0.76
5260.00,0.75
5258.00,0.74
5256.00,0.74
5254.00,0.73
5252.00,0.73
5250.00,0.72
5248.00,0.72
5246.00,0.71
5244.00,0.71
5242.00,0.70
5240.00,0.70
5238.00,0.70
5236.00,0.69
5234.00,0.69
5232.00,0.69
5230.00,0.68
5228.00,0.68
5226.00,0.68
5224.00,0.67
5222.00,0.67
5220.00,0.67
5218.00,0.67
5216.00,0.67
5214.00,0.66
5212.00,0.66
5210.00,0.66
5208.00,0.66
5206.00,0.66
5204.00,0.65
5202.00,0.65
5200.00,0.65
5198.00,0.65
5196.00,0.65
5194.00,0.65
5192.00,0.65
5190.00,0.65
5188.00,0.65
5186.00,0.65
5184.00,0.65
5182.00,0.65
5180.00,0.64
5178.00,0.65
5176.00,0.65
5174.00,0.65
5172.00,0.65
5170.00,0.65
5168.00,0.65
5166.00,0.65
5164.00,0.65
5162.00,0.65
5160.00,0.65
5158.00,0.65
5156.00,0.65
5154.00,0.65
5152.00,0.65
5150.00,0.65
5148.00,0.66
5146.00,0.66
5144.00,0.66
5142.00,0.66
5140.00,0.66
5138.00,0.66
5136.00,0.67
5134.00,0.67
5132.00,0.67
5130.00,0.67
5128.00,0.67
5126.00,0.68
5124.00,0.68
5122.00,0.68
5120.00,0.68
5118.00,0.68
5116.00,0.69
5114.00,0.69
5112.00,0.69
5110.00,0.69
5108.00,0.70
5106.00,0.70
5104.00,0.70
5102.00,0.70
5100.00,0.71
5098.00,0.71
5096.00,0.71
5094.00,0.72
5092.00,0.72
5090.00,0.72
5088.00,0.73
5086.00,0.73
5084.00,0.73
5082.00,0.73
5080.00,0.74
5078.00,0.74
5076.00,0.74
5074.00,0.75
5072.00,0.75
5070.00,0.75
5068.00,0.76
5066.00,0.76
5064.00,0.76
5062.00,0.77
5060.00,0.77
5058.00,0.77
5056.00,0.78
5054.00,0.78
5052.00,0.78
5050.00,0.79
5048.00,0.79
5046.00,0.79
5044.00,0.80
5042.00,0.80
5040.00,0.80
5038.00,0.81
5036.00,0.81
5034.00,0.81
5032.00,0.82
5030.00,0.82
5028.00,0.82
5026.00,0.83
5024.00,0.83
5022.00,0.83
5020.00,0.84
5018.00,0.84
5016.00,0.84
5014.00,0.85
5012.00,0.85
5010.00,0.85
5008.00,0.86
5006.00,0.86
5004.00,0.86
5002.00,0.87
5000.00,0.87
4998.00,0.87
4996.00,0.88
4994.00,0.88
4992.00,0.88
4990.00,0.89
4988.00,0.89
4986.00,0.90
4984.00,0.90
4982.00,0.90
4980.00,0.91
4978.00,0.91
4976.00,0.91
4974.00,0.92
4972.00,0.92
4970.00,0.92
4968.00,0.93
4966.00,0.93
4964.00,0.93
4962.00,0.93
4960.00,0.94
4958.00,0.94
4956.00,0.94
4954.00,0.95
4952.00,0.95
4950.00,0.95
4948.00,0.95
4946.00,0.96
4944.00,0.96
4942.00,0.96
4940.00,0.96
4938.00,0.97
4936.00,0.97
4934.00,0.97
4932.00,0.97
4930.00,0.98
4928.00,0.98
4926.00,0.98
4924.00,0.98
4922.00,0.99
4920.00,0.99
4918.00,0.99
4916.00,0.99
4914.00,0.99
4912.00,1.00
4910.00,1.00
4908.00,1.00
4906.00,1.00
4904.00,1.01
4902.00,1.01
4900.00,1.01
4898.00,1.01
4896.00,1.01
4894.00,1.02
4892.00,1.02
4890.00,1.02
4888.00,1.02
4886.00,1.02
4884.00,1.03
4882.00,1.03
4880.00,1.03
4878.00,1.03
4876.00,1.04
4874.00,1.04
4872.00,1.04
4870.00,1.04
4868.00,1.04
4866.00,1.05
4864.00,1.05
4862.00,1.05
4860.00,1.05
4858.00,1.05
4856.00,1.06
4854.00,1.06
4852.00,1.06
4850.00,1.06
4848.00,1.07
4846.00,1.07
4844.00,1.07
4842.00,1.07
4840.00,1.07
4838.00,1.08
4836.00,1.08
4834.00,1.08
4832.00,1.08
4830.00,1.09
4828.00,1.09
4826.00,1.09
4824.00,1.09
4822.00,1.10
4820.00,1.10
4818.00,1.10
4816.00,1.10
4814.00,1.10
4812.00,1.11
4810.00,1.11
4808.00,1.11
4806.00,1.11
4804.00,1.12
4802.00,1.12
4800.00,1.12
4798.00,1.12
4796.00,1.12
4794.00,1.13
4792.00,1.13
4790.00,1.13
4788.00,1.13
4786.00,1.14
4784.00,1.14
4782.00,1.14
4780.00,1.14
4778.00,1.14
4776.00,1.15
4774.00,1.15
4772.00,1.15
4770.00,1.15
4768.00,1.16
4766.00,1.16
4764.00,1.16
4762.00,1.16
4760.00,1.17
4758.00,1.17
4756.00,1.17
4754.00,1.18
4752.00,1.18
4750.00,1.18
4748.00,1.18
4746.00,1.19
4744.00,1.19
4742.00,1.19
4740.00,1.19
4738.00,1.20
4736.00,1.20
4734.00,1.20
4732.00,1.20
4730.00,1.21
4728.00,1.21
4726.00,1.21
4724.00,1.21
4722.00,1.21
4720.00,1.22
4718.00,1.22
4716.00,1.22
4714.00,1.22
4712.00,1.22
4710.00,1.23
4708.00,1.23
4706.00,1.23
4704.00,1.23
4702.00,1.23
4700.00,1.24
4698.00,1.24
4696.00,1.24
4694.00,1.24
4692.00,1.24
4690.00,1.24
4688.00,1.24
4686.00,1.25
4684.00,1.25
4682.00,1.25
4680.00,1.25
4678.00,1.25
4676.00,1.25
4674.00,1.25
4672.00,1.25
4670.00,1.26
4668.00,1.26
4666.00,1.26
4664.00,1.26
4662.00,1.26
4660.00,1.26
4658.00,1.26
4656.00,1.26
4654.00,1.26
4652.00,1.26
4650.00,1.26
4648.00,1.26
4646.00,1.26
4644.00,1.26
4642.00,1.26
4640.00,1.26
4638.00,1.26
4636.00,1.26
4634.00,1.26
4632.00,1.26
4630.00,1.26
4628.00,1.26
4626.00,1.26
4624.00,1.26
4622.00,1.26
4620.00,1.26
4618.00,1.26
4616.00,1.26
4614.00,1.26
4612.00,1.26
4610.00,1.26
4608.00,1.26
4606.00,1.26
4604.00,1.26
4602.00,1.26
4600.00,1.26
4598.00,1.26
4596.00,1.26
4594.00,1.26
4592.00,1.26
4590.00,1.26
4588.00,1.26
4586.00,1.26
4584.00,1.26
4582.00,1.26
4580.00,1.26
4578.00,1.26
4576.00,1.26
4574.00,1.26
4572.00,1.26
4570.00,1.26
4568.00,1.26
4566.00,1.26
4564.00,1.26
4562.00,1.26
4560.00,1.26
4558.00,1.26
4556.00,1.26
4554.00,1.26
4552.00,1.26
4550.00,1.26
4548.00,1.26
4546.00,1.26
4544.00,1.26
4542.00,1.26
4540.00,1.26
4538.00,1.26
4536.00,1.26
4534.00,1.26
4532.00,1.26
4530.00,1.26
4528.00,1.26
4526.00,1.26
4524.00,1.26
4522.00,1.26
4520.00,1.26
4518.00,1.26
4516.00,1.26
4514.00,1.26
4512.00,1.27
4510.00,1.27
4508.00,1.27
4506.00,1.27
4504.00,1.27
4502.00,1.27
4500.00,1.27
4498.00,1.27
4496.00,1.27
4494.00,1.27
4492.00,1.27
4490.00,1.27
4488.00,1.26
4486.00,1.26
4484.00,1.26
4482.00,1.26
4480.00,1.26
4478.00,1.26
4476.00,1.26
4474.00,1.26
4472.00,1.26
4470.00,1.25
4468.00,1.25
4466.00,1.25
4464.00,1.25
4462.00,1.24
4460.00,1.24
4458.00,1.24
4456.00,1.23
4454.00,1.23
4452.00,1.22
4450.00,1.22
4448.00,1.21
4446.00,1.20
4444.00,1.20
4442.00,1.19
4440.00,1.18
4438.00,1.18
4436.00,1.17
4434.00,1.16
4432.00,1.15
4430.00,1.15
4428.00,1.14
4426.00,1.13
4424.00,1.13
4422.00,1.12
4420.00,1.12
4418.00,1.11
4416.00,1.11
4414.00,1.11
4412.00,1.10
4410.00,1.10
4408.00,1.10
4406.00,1.10
4404.00,1.11
4402.00,1.11
4400.00,1.11
4398.00,1.11
4396.00,1.12
4394.00,1.12
4392.00,1.13
4390.00,1.13
4388.00,1.14
4386.00,1.14
4384.00,1.14
4382.00,1.15
4380.00,1.15
4378.00,1.15
4376.00,1.15
4374.00,1.15
4372.00,1.16
4370.00,1.16
4368.00,1.15
4366.00,1.15
4364.00,1.15
4362.00,1.15
4360.00,1.15
4358.00,1.14
4356.00,1.14
4354.00,1.14
4352.00,1.14
4350.00,1.13
4348.00,1.13
4346.00,1.13
4344.00,1.13
4342.00,1.13
4340.00,1.13
4338.00,1.13
4336.00,1.14
4334.00,1.14
4332.00,1.14
4330.00,1.15
4328.00,1.15
4326.00,1.16
4324.00,1.16
4322.00,1.17
4320.00,1.18
4318.00,1.18
4316.00,1.19
4314.00,1.20
4312.00,1.20
4310.00,1.21
4308.00,1.22
4306.00,1.22
4304.00,1.23
4302.00,1.23
4300.00,1.24
4298.00,1.24
4296.00,1.25
4294.00,1.25
4292.00,1.25
4290.00,1.25
4288.00,1.25
4286.00,1.26
4284.00,1.26
4282.00,1.26
4280.00,1.26
4278.00,1.25
4276.00,1.25
4274.00,1.25
4272.00,1.25
4270.00,1.25
4268.00,1.25
4266.00,1.25
4264.00,1.25
4262.00,1.24
4260.00,1.24
4258.00,1.24
4256.00,1.24
4254.00,1.24
4252.00,1.24
4250.00,1.24
4248.00,1.24
4246.00,1.25
4244.00,1.25
4242.00,1.25
4240.00,1.25
4238.00,1.25
4236.00,1.25
4234.00,1.25
4232.00,1.26
4230.00,1.26
4228.00,1.26
4226.00,1.26
4224.00,1.26
4222.00,1.26
4220.00,1.26
4218.00,1.26
4216.00,1.26
4214.00,1.27
4212.00,1.27
4210.00,1.27
4208.00,1.27
4206.00,1.27
4204.00,1.27
4202.00,1.27
4200.00,1.27
4198.00,1.26
4196.00,1.26
4194.00,1.26
4192.00,1.26
4190.00,1.26
4188.00,1.26
4186.00,1.26
4184.00,1.26
4182.00,1.26
4180.00,1.26
4178.00,1.26
4176.00,1.26
4174.00,1.26
4172.00,1.26
4170.00,1.26
4168.00,1.26
4166.00,1.26
4164.00,1.26
4162.00,1.26
4160.00,1.26
4158.00,1.26
4156.00,1.26
4154.00,1.26
4152.00,1.26
4150.00,1.26
4148.00,1.26
4146.00,1.26
4144.00,1.26
4142.00,1.26
4140.00,1.26
4138.00,1.26
4136.00,1.26
4134.00,1.26
4132.00,1.26
4130.00,1.26
4128.00,1.26
4126.00,1.26
4124.00,1.26
4122.00,1.26
4120.00,1.26
4118.00,1.26
4116.00,1.26
4114.00,1.26
4112.00,1.26
4110.00,1.26
4108.00,1.26
4106.00,1.26
4104.00,1.26
4102.00,1.25
4100.00,1.25
4098.00,1.25
4096.00,1.25
4094.00,1.25
4092.00,1.25
4090.00,1.25
4088.00,1.25
4086.00,1.24
4084.00,1.24
4082.00,1.24
4080.00,1.24
4078.00,1.24
4076.00,1.24
4074.00,1.24
4072.00,1.24
4070.00,1.24
4068.00,1.23
4066.00,1.23
4064.00,1.23
4062.00,1.23
4060.00,1.23
4058.00,1.23
4056.00,1.23
4054.00,1.24
4052.00,1.24
4050.00,1.24
4048.00,1.24
4046.00,1.24
4044.00,1.24
4042.00,1.24
4040.00,1.24
4038.00,1.24
4036.00,1.24
4034.00,1.25
4032.00,1.25
4030.00,1.25
4028.00,1.25
4026.00,1.25
4024.00,1.26
4022.00,1.26
4020.00,1.26
4018.00,1.26
4016.00,1.27
4014.00,1.27
4012.00,1.27
4010.00,1.28
4008.00,1.28
4006.00,1.28
4004.00,1.29
4002.00,1.29
4000.00,1.29
