创建为新数据集,样品 630 用户 Administrator 日期 星期四, 七月 25 2019
cm-1,%T
10000.00,1.81
9999.00,1.82
9998.00,1.82
9997.00,1.82
9996.00,1.82
9995.00,1.82
9994.00,1.82
9993.00,1.82
9992.00,1.81
9991.00,1.80
9990.00,1.79
9989.00,1.77
9988.00,1.75
9987.00,1.73
9986.00,1.71
9985.00,1.68
9984.00,1.66
9983.00,1.63
9982.00,1.61
9981.00,1.59
9980.00,1.57
9979.00,1.55
9978.00,1.53
9977.00,1.52
9976.00,1.50
9975.00,1.49
9974.00,1.49
9973.00,1.48
9972.00,1.48
9971.00,1.47
9970.00,1.47
9969.00,1.48
9968.00,1.48
9967.00,1.49
9966.00,1.49
9965.00,1.50
9964.00,1.51
9963.00,1.53
9962.00,1.54
9961.00,1.55
9960.00,1.57
9959.00,1.58
9958.00,1.59
9957.00,1.61
9956.00,1.63
9955.00,1.64
9954.00,1.66
9953.00,1.67
9952.00,1.69
9951.00,1.70
9950.00,1.71
9949.00,1.72
9948.00,1.73
9947.00,1.73
9946.00,1.73
9945.00,1.73
9944.00,1.73
9943.00,1.73
9942.00,1.72
9941.00,1.71
9940.00,1.70
9939.00,1.69
9938.00,1.68
9937.00,1.67
9936.00,1.66
9935.00,1.65
9934.00,1.64
9933.00,1.64
9932.00,1.63
9931.00,1.63
9930.00,1.62
9929.00,1.62
9928.00,1.63
9927.00,1.63
9926.00,1.63
9925.00,1.64
9924.00,1.64
9923.00,1.65
9922.00,1.66
9921.00,1.66
9920.00,1.67
9919.00,1.67
9918.00,1.67
9917.00,1.67
9916.00,1.66
9915.00,1.66
9914.00,1.65
9913.00,1.64
9912.00,1.63
9911.00,1.62
9910.00,1.60
9909.00,1.59
9908.00,1.58
9907.00,1.56
9906.00,1.55
9905.00,1.54
9904.00,1.53
9903.00,1.53
9902.00,1.52
9901.00,1.52
9900.00,1.52
9899.00,1.52
9898.00,1.53
9897.00,1.54
9896.00,1.55
9895.00,1.56
9894.00,1.57
9893.00,1.58
9892.00,1.59
9891.00,1.59
9890.00,1.60
9889.00,1.60
9888.00,1.61
9887.00,1.61
9886.00,1.61
9885.00,1.61
9884.00,1.60
9883.00,1.60
9882.00,1.59
9881.00,1.58
9880.00,1.58
9879.00,1.57
9878.00,1.56
9877.00,1.55
9876.00,1.54
9875.00,1.53
9874.00,1.53
9873.00,1.52
9872.00,1.52
9871.00,1.51
9870.00,1.51
9869.00,1.51
9868.00,1.50
9867.00,1.50
9866.00,1.50
9865.00,1.49
9864.00,1.49
9863.00,1.49
9862.00,1.48
9861.00,1.48
9860.00,1.47
9859.00,1.47
9858.00,1.47
9857.00,1.47
9856.00,1.46
9855.00,1.46
9854.00,1.46
9853.00,1.46
9852.00,1.46
9851.00,1.47
9850.00,1.47
9849.00,1.47
9848.00,1.48
9847.00,1.49
9846.00,1.49
9845.00,1.50
9844.00,1.51
9843.00,1.52
9842.00,1.53
9841.00,1.54
9840.00,1.55
9839.00,1.56
9838.00,1.57
9837.00,1.57
9836.00,1.58
9835.00,1.59
9834.00,1.59
9833.00,1.60
9832.00,1.60
9831.00,1.60
9830.00,1.60
9829.00,1.59
9828.00,1.58
9827.00,1.57
9826.00,1.56
9825.00,1.55
9824.00,1.54
9823.00,1.52
9822.00,1.50
9821.00,1.49
9820.00,1.47
9819.00,1.46
9818.00,1.45
9817.00,1.43
9816.00,1.42
9815.00,1.41
9814.00,1.41
9813.00,1.40
9812.00,1.40
9811.00,1.40
9810.00,1.41
9809.00,1.41
9808.00,1.42
9807.00,1.44
9806.00,1.45
9805.00,1.46
9804.00,1.48
9803.00,1.49
9802.00,1.50
9801.00,1.51
9800.00,1.53
9799.00,1.54
9798.00,1.55
9797.00,1.56
9796.00,1.56
9795.00,1.57
9794.00,1.57
9793.00,1.57
9792.00,1.57
9791.00,1.57
9790.00,1.57
9789.00,1.56
9788.00,1.55
9787.00,1.54
9786.00,1.53
9785.00,1.52
9784.00,1.50
9783.00,1.49
9782.00,1.48
9781.00,1.47
9780.00,1.45
9779.00,1.44
9778.00,1.43
9777.00,1.43
9776.00,1.42
9775.00,1.42
9774.00,1.42
9773.00,1.42
9772.00,1.42
9771.00,1.42
9770.00,1.43
9769.00,1.44
9768.00,1.45
9767.00,1.46
9766.00,1.47
9765.00,1.48
9764.00,1.48
9763.00,1.49
9762.00,1.49
9761.00,1.50
9760.00,1.50
9759.00,1.50
9758.00,1.50
9757.00,1.50
9756.00,1.50
9755.00,1.50
9754.00,1.50
9753.00,1.51
9752.00,1.51
9751.00,1.52
9750.00,1.53
9749.00,1.53
9748.00,1.54
9747.00,1.55
9746.00,1.57
9745.00,1.58
9744.00,1.60
9743.00,1.62
9742.00,1.63
9741.00,1.65
9740.00,1.67
9739.00,1.68
9738.00,1.70
9737.00,1.71
9736.00,1.72
9735.00,1.72
9734.00,1.72
9733.00,1.72
9732.00,1.72
9731.00,1.72
9730.00,1.72
9729.00,1.71
9728.00,1.70
9727.00,1.69
9726.00,1.68
9725.00,1.67
9724.00,1.65
9723.00,1.64
9722.00,1.63
9721.00,1.62
9720.00,1.61
9719.00,1.60
9718.00,1.60
9717.00,1.59
9716.00,1.59
9715.00,1.58
9714.00,1.58
9713.00,1.58
9712.00,1.58
9711.00,1.58
9710.00,1.58
9709.00,1.58
9708.00,1.58
9707.00,1.58
9706.00,1.58
9705.00,1.57
9704.00,1.57
9703.00,1.56
9702.00,1.55
9701.00,1.55
9700.00,1.54
9699.00,1.53
9698.00,1.52
9697.00,1.51
9696.00,1.50
9695.00,1.49
9694.00,1.49
9693.00,1.48
9692.00,1.47
9691.00,1.47
9690.00,1.46
9689.00,1.46
9688.00,1.45
9687.00,1.45
9686.00,1.45
9685.00,1.45
9684.00,1.45
9683.00,1.45
9682.00,1.46
9681.00,1.46
9680.00,1.46
9679.00,1.46
9678.00,1.47
9677.00,1.47
9676.00,1.47
9675.00,1.48
9674.00,1.48
9673.00,1.48
9672.00,1.49
9671.00,1.49
9670.00,1.50
9669.00,1.50
9668.00,1.50
9667.00,1.51
9666.00,1.51
9665.00,1.51
9664.00,1.51
9663.00,1.51
9662.00,1.51
9661.00,1.50
9660.00,1.50
9659.00,1.50
9658.00,1.50
9657.00,1.50
9656.00,1.49
9655.00,1.49
9654.00,1.49
9653.00,1.49
9652.00,1.50
9651.00,1.50
9650.00,1.50
9649.00,1.51
9648.00,1.51
9647.00,1.52
9646.00,1.53
9645.00,1.54
9644.00,1.55
9643.00,1.56
9642.00,1.57
9641.00,1.58
9640.00,1.59
9639.00,1.60
9638.00,1.62
9637.00,1.63
9636.00,1.64
9635.00,1.65
9634.00,1.66
9633.00,1.67
9632.00,1.67
9631.00,1.68
9630.00,1.69
9629.00,1.70
9628.00,1.70
9627.00,1.71
9626.00,1.71
9625.00,1.71
9624.00,1.71
9623.00,1.71
9622.00,1.71
9621.00,1.70
9620.00,1.70
9619.00,1.69
9618.00,1.68
9617.00,1.67
9616.00,1.67
9615.00,1.66
9614.00,1.65
9613.00,1.64
9612.00,1.64
9611.00,1.63
9610.00,1.62
9609.00,1.61
9608.00,1.60
9607.00,1.59
9606.00,1.59
9605.00,1.58
9604.00,1.58
9603.00,1.58
9602.00,1.57
9601.00,1.57
9600.00,1.57
9599.00,1.57
9598.00,1.58
9597.00,1.58
9596.00,1.58
9595.00,1.59
9594.00,1.60
9593.00,1.61
9592.00,1.63
9591.00,1.64
9590.00,1.65
9589.00,1.67
9588.00,1.68
9587.00,1.69
9586.00,1.70
9585.00,1.70
9584.00,1.71
9583.00,1.71
9582.00,1.71
9581.00,1.71
9580.00,1.71
9579.00,1.70
9578.00,1.69
9577.00,1.68
9576.00,1.66
9575.00,1.65
9574.00,1.63
9573.00,1.61
9572.00,1.60
9571.00,1.58
9570.00,1.57
9569.00,1.55
9568.00,1.54
9567.00,1.53
9566.00,1.53
9565.00,1.52
9564.00,1.52
9563.00,1.52
9562.00,1.52
9561.00,1.52
9560.00,1.52
9559.00,1.52
9558.00,1.52
9557.00,1.52
9556.00,1.53
9555.00,1.53
9554.00,1.53
9553.00,1.54
9552.00,1.54
9551.00,1.54
9550.00,1.54
9549.00,1.54
9548.00,1.54
9547.00,1.54
9546.00,1.54
9545.00,1.54
9544.00,1.54
9543.00,1.55
9542.00,1.55
9541.00,1.56
9540.00,1.56
9539.00,1.57
9538.00,1.58
9537.00,1.59
9536.00,1.60
9535.00,1.61
9534.00,1.62
9533.00,1.62
9532.00,1.63
9531.00,1.64
9530.00,1.64
9529.00,1.65
9528.00,1.65
9527.00,1.65
9526.00,1.65
9525.00,1.65
9524.00,1.64
9523.00,1.63
9522.00,1.62
9521.00,1.61
9520.00,1.60
9519.00,1.59
9518.00,1.58
9517.00,1.56
9516.00,1.55
9515.00,1.54
9514.00,1.53
9513.00,1.53
9512.00,1.52
9511.00,1.51
9510.00,1.51
9509.00,1.51
9508.00,1.51
9507.00,1.51
9506.00,1.52
9505.00,1.52
9504.00,1.53
9503.00,1.54
9502.00,1.55
9501.00,1.56
9500.00,1.57
9499.00,1.58
9498.00,1.59
9497.00,1.60
9496.00,1.61
9495.00,1.62
9494.00,1.62
9493.00,1.63
9492.00,1.64
9491.00,1.64
9490.00,1.65
9489.00,1.65
9488.00,1.66
9487.00,1.66
9486.00,1.66
9485.00,1.66
9484.00,1.66
9483.00,1.66
9482.00,1.66
9481.00,1.66
9480.00,1.65
9479.00,1.65
9478.00,1.64
9477.00,1.63
9476.00,1.62
9475.00,1.60
9474.00,1.59
9473.00,1.58
9472.00,1.56
9471.00,1.54
9470.00,1.53
9469.00,1.51
9468.00,1.50
9467.00,1.48
9466.00,1.47
9465.00,1.46
9464.00,1.45
9463.00,1.44
9462.00,1.43
9461.00,1.43
9460.00,1.42
9459.00,1.42
9458.00,1.43
9457.00,1.43
9456.00,1.44
9455.00,1.45
9454.00,1.46
9453.00,1.48
9452.00,1.49
9451.00,1.50
9450.00,1.51
9449.00,1.53
9448.00,1.54
9447.00,1.55
9446.00,1.57
9445.00,1.58
9444.00,1.59
9443.00,1.59
9442.00,1.60
9441.00,1.61
9440.00,1.61
9439.00,1.61
9438.00,1.61
9437.00,1.61
9436.00,1.61
9435.00,1.60
9434.00,1.60
9433.00,1.60
9432.00,1.59
9431.00,1.59
9430.00,1.58
9429.00,1.58
9428.00,1.58
9427.00,1.57
9426.00,1.57
9425.00,1.56
9424.00,1.56
9423.00,1.56
9422.00,1.56
9421.00,1.56
9420.00,1.56
9419.00,1.56
9418.00,1.56
9417.00,1.56
9416.00,1.56
9415.00,1.56
9414.00,1.56
9413.00,1.55
9412.00,1.55
9411.00,1.55
9410.00,1.55
9409.00,1.55
9408.00,1.55
9407.00,1.55
9406.00,1.56
9405.00,1.56
9404.00,1.56
9403.00,1.56
9402.00,1.56
9401.00,1.57
9400.00,1.57
9399.00,1.57
9398.00,1.58
9397.00,1.58
9396.00,1.59
9395.00,1.60
9394.00,1.60
9393.00,1.61
9392.00,1.61
9391.00,1.62
9390.00,1.62
9389.00,1.62
9388.00,1.62
9387.00,1.62
9386.00,1.61
9385.00,1.61
9384.00,1.61
9383.00,1.60
9382.00,1.59
9381.00,1.58
9380.00,1.57
9379.00,1.56
9378.00,1.55
9377.00,1.54
9376.00,1.53
9375.00,1.52
9374.00,1.52
9373.00,1.51
9372.00,1.51
9371.00,1.51
9370.00,1.51
9369.00,1.51
9368.00,1.52
9367.00,1.53
9366.00,1.54
9365.00,1.55
9364.00,1.56
9363.00,1.57
9362.00,1.58
9361.00,1.59
9360.00,1.60
9359.00,1.61
9358.00,1.62
9357.00,1.62
9356.00,1.62
9355.00,1.63
9354.00,1.62
9353.00,1.62
9352.00,1.62
9351.00,1.61
9350.00,1.61
9349.00,1.60
9348.00,1.60
9347.00,1.60
9346.00,1.59
9345.00,1.59
9344.00,1.59
9343.00,1.59
9342.00,1.60
9341.00,1.61
9340.00,1.61
9339.00,1.62
9338.00,1.63
9337.00,1.64
9336.00,1.64
9335.00,1.65
9334.00,1.65
9333.00,1.66
9332.00,1.66
9331.00,1.65
9330.00,1.65
9329.00,1.64
9328.00,1.63
9327.00,1.62
9326.00,1.60
9325.00,1.58
9324.00,1.56
9323.00,1.54
9322.00,1.52
9321.00,1.50
9320.00,1.49
9319.00,1.47
9318.00,1.45
9317.00,1.44
9316.00,1.43
9315.00,1.42
9314.00,1.42
9313.00,1.41
9312.00,1.41
9311.00,1.41
9310.00,1.41
9309.00,1.42
9308.00,1.42
9307.00,1.42
9306.00,1.43
9305.00,1.43
9304.00,1.44
9303.00,1.44
9302.00,1.45
9301.00,1.45
9300.00,1.46
9299.00,1.46
9298.00,1.47
9297.00,1.47
9296.00,1.47
9295.00,1.48
9294.00,1.49
9293.00,1.49
9292.00,1.50
9291.00,1.51
9290.00,1.52
9289.00,1.53
9288.00,1.54
9287.00,1.55
9286.00,1.55
9285.00,1.56
9284.00,1.57
9283.00,1.57
9282.00,1.57
9281.00,1.58
9280.00,1.57
9279.00,1.57
9278.00,1.57
9277.00,1.56
9276.00,1.56
9275.00,1.55
9274.00,1.54
9273.00,1.53
9272.00,1.52
9271.00,1.51
9270.00,1.50
9269.00,1.49
9268.00,1.49
9267.00,1.49
9266.00,1.48
9265.00,1.49
9264.00,1.49
9263.00,1.49
9262.00,1.50
9261.00,1.50
9260.00,1.51
9259.00,1.51
9258.00,1.52
9257.00,1.53
9256.00,1.54
9255.00,1.55
9254.00,1.55
9253.00,1.56
9252.00,1.57
9251.00,1.57
9250.00,1.57
9249.00,1.58
9248.00,1.58
9247.00,1.58
9246.00,1.58
9245.00,1.58
9244.00,1.58
9243.00,1.58
9242.00,1.58
9241.00,1.57
9240.00,1.57
9239.00,1.57
9238.00,1.57
9237.00,1.57
9236.00,1.57
9235.00,1.57
9234.00,1.57
9233.00,1.57
9232.00,1.57
9231.00,1.57
9230.00,1.58
9229.00,1.58
9228.00,1.59
9227.00,1.59
9226.00,1.60
9225.00,1.61
9224.00,1.62
9223.00,1.63
9222.00,1.64
9221.00,1.66
9220.00,1.67
9219.00,1.68
9218.00,1.69
9217.00,1.70
9216.00,1.71
9215.00,1.72
9214.00,1.73
9213.00,1.73
9212.00,1.74
9211.00,1.74
9210.00,1.74
9209.00,1.73
9208.00,1.73
9207.00,1.73
9206.00,1.72
9205.00,1.71
9204.00,1.71
9203.00,1.70
9202.00,1.69
9201.00,1.68
9200.00,1.67
9199.00,1.66
9198.00,1.64
9197.00,1.63
9196.00,1.62
9195.00,1.61
9194.00,1.61
9193.00,1.60
9192.00,1.59
9191.00,1.59
9190.00,1.58
9189.00,1.58
9188.00,1.57
9187.00,1.57
9186.00,1.56
9185.00,1.56
9184.00,1.56
9183.00,1.56
9182.00,1.56
9181.00,1.56
9180.00,1.56
9179.00,1.56
9178.00,1.56
9177.00,1.56
9176.00,1.57
9175.00,1.57
9174.00,1.57
9173.00,1.57
9172.00,1.57
9171.00,1.58
9170.00,1.58
9169.00,1.58
9168.00,1.58
9167.00,1.58
9166.00,1.58
9165.00,1.58
9164.00,1.59
9163.00,1.59
9162.00,1.59
9161.00,1.59
9160.00,1.59
9159.00,1.59
9158.00,1.59
9157.00,1.59
9156.00,1.59
9155.00,1.59
9154.00,1.58
9153.00,1.58
9152.00,1.58
9151.00,1.58
9150.00,1.57
9149.00,1.57
9148.00,1.56
9147.00,1.56
9146.00,1.55
9145.00,1.55
9144.00,1.54
9143.00,1.54
9142.00,1.53
9141.00,1.53
9140.00,1.53
9139.00,1.53
9138.00,1.53
9137.00,1.53
9136.00,1.54
9135.00,1.54
9134.00,1.54
9133.00,1.55
9132.00,1.55
9131.00,1.56
9130.00,1.56
9129.00,1.57
9128.00,1.57
9127.00,1.58
9126.00,1.59
9125.00,1.59
9124.00,1.59
9123.00,1.59
9122.00,1.59
9121.00,1.59
9120.00,1.59
9119.00,1.58
9118.00,1.58
9117.00,1.57
9116.00,1.56
9115.00,1.55
9114.00,1.54
9113.00,1.54
9112.00,1.53
9111.00,1.52
9110.00,1.50
9109.00,1.49
9108.00,1.48
9107.00,1.47
9106.00,1.47
9105.00,1.46
9104.00,1.45
9103.00,1.45
9102.00,1.45
9101.00,1.45
9100.00,1.45
9099.00,1.46
9098.00,1.47
9097.00,1.47
9096.00,1.48
9095.00,1.49
9094.00,1.50
9093.00,1.51
9092.00,1.52
9091.00,1.53
9090.00,1.54
9089.00,1.55
9088.00,1.56
9087.00,1.57
9086.00,1.58
9085.00,1.58
9084.00,1.59
9083.00,1.59
9082.00,1.60
9081.00,1.60
9080.00,1.60
9079.00,1.60
9078.00,1.61
9077.00,1.61
9076.00,1.61
9075.00,1.62
9074.00,1.62
9073.00,1.63
9072.00,1.63
9071.00,1.63
9070.00,1.64
9069.00,1.64
9068.00,1.64
9067.00,1.64
9066.00,1.65
9065.00,1.65
9064.00,1.65
9063.00,1.64
9062.00,1.64
9061.00,1.64
9060.00,1.63
9059.00,1.63
9058.00,1.62
9057.00,1.61
9056.00,1.60
9055.00,1.59
9054.00,1.59
9053.00,1.58
9052.00,1.57
9051.00,1.56
9050.00,1.56
9049.00,1.55
9048.00,1.55
9047.00,1.54
9046.00,1.54
9045.00,1.54
9044.00,1.54
9043.00,1.54
9042.00,1.54
9041.00,1.54
9040.00,1.54
9039.00,1.55
9038.00,1.55
9037.00,1.56
9036.00,1.56
9035.00,1.57
9034.00,1.57
9033.00,1.57
9032.00,1.58
9031.00,1.58
9030.00,1.59
9029.00,1.59
9028.00,1.60
9027.00,1.60
9026.00,1.60
9025.00,1.60
9024.00,1.60
9023.00,1.60
9022.00,1.61
9021.00,1.61
9020.00,1.61
9019.00,1.61
9018.00,1.61
9017.00,1.61
9016.00,1.61
9015.00,1.61
9014.00,1.61
9013.00,1.62
9012.00,1.62
9011.00,1.62
9010.00,1.62
9009.00,1.63
9008.00,1.63
9007.00,1.63
9006.00,1.63
9005.00,1.64
9004.00,1.64
9003.00,1.64
9002.00,1.63
9001.00,1.63
9000.00,1.63
8999.00,1.62
8998.00,1.61
8997.00,1.61
8996.00,1.60
8995.00,1.59
8994.00,1.58
8993.00,1.57
8992.00,1.56
8991.00,1.56
8990.00,1.55
8989.00,1.54
8988.00,1.54
8987.00,1.53
8986.00,1.53
8985.00,1.53
8984.00,1.53
8983.00,1.53
8982.00,1.53
8981.00,1.53
8980.00,1.54
8979.00,1.54
8978.00,1.55
8977.00,1.55
8976.00,1.56
8975.00,1.56
8974.00,1.57
8973.00,1.57
8972.00,1.58
8971.00,1.58
8970.00,1.58
8969.00,1.59
8968.00,1.59
8967.00,1.60
8966.00,1.60
8965.00,1.60
8964.00,1.60
8963.00,1.60
8962.00,1.60
8961.00,1.61
8960.00,1.61
8959.00,1.61
8958.00,1.62
8957.00,1.62
8956.00,1.62
8955.00,1.63
8954.00,1.63
8953.00,1.63
8952.00,1.64
8951.00,1.64
8950.00,1.64
8949.00,1.64
8948.00,1.64
8947.00,1.64
8946.00,1.64
8945.00,1.64
8944.00,1.64
8943.00,1.63
8942.00,1.63
8941.00,1.62
8940.00,1.61
8939.00,1.60
8938.00,1.59
8937.00,1.58
8936.00,1.57
8935.00,1.57
8934.00,1.56
8933.00,1.55
8932.00,1.54
8931.00,1.54
8930.00,1.53
8929.00,1.53
8928.00,1.53
8927.00,1.53
8926.00,1.53
8925.00,1.53
8924.00,1.53
8923.00,1.53
8922.00,1.54
8921.00,1.54
8920.00,1.55
8919.00,1.55
8918.00,1.56
8917.00,1.56
8916.00,1.57
8915.00,1.57
8914.00,1.58
8913.00,1.58
8912.00,1.59
8911.00,1.60
8910.00,1.60
8909.00,1.60
8908.00,1.61
8907.00,1.61
8906.00,1.62
8905.00,1.62
8904.00,1.62
8903.00,1.63
8902.00,1.63
8901.00,1.64
8900.00,1.64
8899.00,1.64
8898.00,1.65
8897.00,1.65
8896.00,1.65
8895.00,1.65
8894.00,1.65
8893.00,1.65
8892.00,1.64
8891.00,1.64
8890.00,1.64
8889.00,1.64
8888.00,1.64
8887.00,1.64
8886.00,1.64
8885.00,1.63
8884.00,1.63
8883.00,1.63
8882.00,1.63
8881.00,1.64
8880.00,1.64
8879.00,1.64
8878.00,1.65
8877.00,1.66
8876.00,1.66
8875.00,1.67
8874.00,1.68
8873.00,1.69
8872.00,1.70
8871.00,1.71
8870.00,1.71
8869.00,1.72
8868.00,1.73
8867.00,1.73
8866.00,1.74
8865.00,1.74
8864.00,1.74
8863.00,1.74
8862.00,1.73
8861.00,1.73
8860.00,1.72
8859.00,1.72
8858.00,1.71
8857.00,1.70
8856.00,1.69
8855.00,1.68
8854.00,1.67
8853.00,1.66
8852.00,1.65
8851.00,1.64
8850.00,1.63
8849.00,1.62
8848.00,1.61
8847.00,1.60
8846.00,1.59
8845.00,1.58
8844.00,1.58
8843.00,1.57
8842.00,1.57
8841.00,1.56
8840.00,1.56
8839.00,1.56
8838.00,1.56
8837.00,1.56
8836.00,1.56
8835.00,1.56
8834.00,1.56
8833.00,1.56
8832.00,1.57
8831.00,1.57
8830.00,1.57
8829.00,1.57
8828.00,1.57
8827.00,1.58
8826.00,1.58
8825.00,1.57
8824.00,1.57
8823.00,1.57
8822.00,1.57
8821.00,1.57
8820.00,1.56
8819.00,1.56
8818.00,1.56
8817.00,1.55
8816.00,1.55
8815.00,1.55
8814.00,1.54
8813.00,1.54
8812.00,1.54
8811.00,1.54
8810.00,1.54
8809.00,1.54
8808.00,1.54
8807.00,1.55
8806.00,1.55
8805.00,1.56
8804.00,1.56
8803.00,1.57
8802.00,1.57
8801.00,1.58
8800.00,1.58
8799.00,1.59
8798.00,1.59
8797.00,1.60
8796.00,1.61
8795.00,1.61
8794.00,1.61
8793.00,1.62
8792.00,1.62
8791.00,1.62
8790.00,1.62
8789.00,1.62
8788.00,1.62
8787.00,1.62
8786.00,1.61
8785.00,1.61
8784.00,1.61
8783.00,1.61
8782.00,1.60
8781.00,1.60
8780.00,1.59
8779.00,1.59
8778.00,1.58
8777.00,1.58
8776.00,1.58
8775.00,1.57
8774.00,1.57
8773.00,1.56
8772.00,1.56
8771.00,1.56
8770.00,1.56
8769.00,1.55
8768.00,1.55
8767.00,1.55
8766.00,1.55
8765.00,1.54
8764.00,1.54
8763.00,1.54
8762.00,1.54
8761.00,1.55
8760.00,1.55
8759.00,1.55
8758.00,1.55
8757.00,1.55
8756.00,1.55
8755.00,1.55
8754.00,1.55
8753.00,1.56
8752.00,1.56
8751.00,1.56
8750.00,1.56
8749.00,1.55
8748.00,1.55
8747.00,1.55
8746.00,1.54
8745.00,1.54
8744.00,1.53
8743.00,1.52
8742.00,1.52
8741.00,1.51
8740.00,1.50
8739.00,1.50
8738.00,1.49
8737.00,1.49
8736.00,1.48
8735.00,1.48
8734.00,1.47
8733.00,1.47
8732.00,1.47
8731.00,1.47
8730.00,1.48
8729.00,1.48
8728.00,1.48
8727.00,1.49
8726.00,1.49
8725.00,1.50
8724.00,1.51
8723.00,1.51
8722.00,1.52
8721.00,1.52
8720.00,1.53
8719.00,1.53
8718.00,1.54
8717.00,1.54
8716.00,1.54
8715.00,1.55
8714.00,1.55
8713.00,1.55
8712.00,1.55
8711.00,1.56
8710.00,1.56
8709.00,1.57
8708.00,1.57
8707.00,1.58
8706.00,1.58
8705.00,1.59
8704.00,1.60
8703.00,1.60
8702.00,1.61
8701.00,1.61
8700.00,1.61
8699.00,1.61
8698.00,1.61
8697.00,1.61
8696.00,1.61
8695.00,1.61
8694.00,1.60
8693.00,1.59
8692.00,1.59
8691.00,1.58
8690.00,1.56
8689.00,1.55
8688.00,1.54
8687.00,1.53
8686.00,1.52
8685.00,1.51
8684.00,1.50
8683.00,1.50
8682.00,1.49
8681.00,1.48
8680.00,1.48
8679.00,1.48
8678.00,1.47
8677.00,1.47
8676.00,1.47
8675.00,1.48
8674.00,1.48
8673.00,1.48
8672.00,1.49
8671.00,1.49
8670.00,1.50
8669.00,1.51
8668.00,1.51
8667.00,1.52
8666.00,1.52
8665.00,1.53
8664.00,1.54
8663.00,1.54
8662.00,1.55
8661.00,1.56
8660.00,1.57
8659.00,1.57
8658.00,1.58
8657.00,1.58
8656.00,1.58
8655.00,1.59
8654.00,1.59
8653.00,1.59
8652.00,1.59
8651.00,1.59
8650.00,1.59
8649.00,1.59
8648.00,1.59
8647.00,1.59
8646.00,1.59
8645.00,1.59
8644.00,1.59
8643.00,1.59
8642.00,1.59
8641.00,1.59
8640.00,1.59
8639.00,1.59
8638.00,1.59
8637.00,1.60
8636.00,1.60
8635.00,1.60
8634.00,1.60
8633.00,1.61
8632.00,1.61
8631.00,1.61
8630.00,1.61
8629.00,1.61
8628.00,1.62
8627.00,1.62
8626.00,1.62
8625.00,1.61
8624.00,1.61
8623.00,1.61
8622.00,1.61
8621.00,1.60
8620.00,1.60
8619.00,1.60
8618.00,1.60
8617.00,1.59
8616.00,1.59
8615.00,1.59
8614.00,1.59
8613.00,1.59
8612.00,1.58
8611.00,1.58
8610.00,1.58
8609.00,1.58
8608.00,1.58
8607.00,1.58
8606.00,1.58
8605.00,1.58
8604.00,1.58
8603.00,1.58
8602.00,1.57
8601.00,1.57
8600.00,1.57
8599.00,1.57
8598.00,1.57
8597.00,1.57
8596.00,1.57
8595.00,1.57
8594.00,1.57
8593.00,1.57
8592.00,1.57
8591.00,1.58
8590.00,1.58
8589.00,1.58
8588.00,1.58
8587.00,1.58
8586.00,1.58
8585.00,1.58
8584.00,1.59
8583.00,1.59
8582.00,1.59
8581.00,1.59
8580.00,1.59
8579.00,1.59
8578.00,1.59
8577.00,1.59
8576.00,1.59
8575.00,1.59
8574.00,1.59
8573.00,1.59
8572.00,1.59
8571.00,1.59
8570.00,1.59
8569.00,1.59
8568.00,1.59
8567.00,1.59
8566.00,1.59
8565.00,1.60
8564.00,1.60
8563.00,1.60
8562.00,1.60
8561.00,1.60
8560.00,1.60
8559.00,1.60
8558.00,1.60
8557.00,1.61
8556.00,1.61
8555.00,1.61
8554.00,1.62
8553.00,1.62
8552.00,1.62
8551.00,1.63
8550.00,1.63
8549.00,1.63
8548.00,1.64
8547.00,1.64
8546.00,1.64
8545.00,1.64
8544.00,1.65
8543.00,1.65
8542.00,1.64
8541.00,1.64
8540.00,1.64
8539.00,1.64
8538.00,1.63
8537.00,1.63
8536.00,1.62
8535.00,1.61
8534.00,1.61
8533.00,1.60
8532.00,1.60
8531.00,1.59
8530.00,1.59
8529.00,1.59
8528.00,1.59
8527.00,1.59
8526.00,1.59
8525.00,1.60
8524.00,1.60
8523.00,1.61
8522.00,1.62
8521.00,1.63
8520.00,1.64
8519.00,1.64
8518.00,1.65
8517.00,1.66
8516.00,1.67
8515.00,1.67
8514.00,1.68
8513.00,1.68
8512.00,1.68
8511.00,1.68
8510.00,1.68
8509.00,1.67
8508.00,1.67
8507.00,1.66
8506.00,1.66
8505.00,1.65
8504.00,1.65
8503.00,1.64
8502.00,1.64
8501.00,1.64
8500.00,1.63
8499.00,1.63
8498.00,1.63
8497.00,1.63
8496.00,1.63
8495.00,1.62
8494.00,1.62
8493.00,1.62
8492.00,1.62
8491.00,1.62
8490.00,1.61
8489.00,1.61
8488.00,1.61
8487.00,1.61
8486.00,1.60
8485.00,1.60
8484.00,1.60
8483.00,1.59
8482.00,1.59
8481.00,1.59
8480.00,1.59
8479.00,1.59
8478.00,1.59
8477.00,1.59
8476.00,1.60
8475.00,1.60
8474.00,1.60
8473.00,1.61
8472.00,1.61
8471.00,1.62
8470.00,1.62
8469.00,1.63
8468.00,1.63
8467.00,1.63
8466.00,1.64
8465.00,1.64
8464.00,1.64
8463.00,1.64
8462.00,1.64
8461.00,1.64
8460.00,1.64
8459.00,1.64
8458.00,1.64
8457.00,1.63
8456.00,1.63
8455.00,1.63
8454.00,1.62
8453.00,1.62
8452.00,1.62
8451.00,1.61
8450.00,1.61
8449.00,1.61
8448.00,1.61
8447.00,1.60
8446.00,1.60
8445.00,1.60
8444.00,1.60
8443.00,1.60
8442.00,1.60
8441.00,1.59
8440.00,1.59
8439.00,1.59
8438.00,1.59
8437.00,1.59
8436.00,1.59
8435.00,1.59
8434.00,1.59
8433.00,1.59
8432.00,1.59
8431.00,1.59
8430.00,1.59
8429.00,1.59
8428.00,1.59
8427.00,1.59
8426.00,1.59
8425.00,1.59
8424.00,1.59
8423.00,1.59
8422.00,1.60
8421.00,1.60
8420.00,1.60
8419.00,1.60
8418.00,1.61
8417.00,1.61
8416.00,1.61
8415.00,1.62
8414.00,1.62
8413.00,1.62
8412.00,1.63
8411.00,1.63
8410.00,1.63
8409.00,1.63
8408.00,1.64
8407.00,1.64
8406.00,1.64
8405.00,1.64
8404.00,1.65
8403.00,1.65
8402.00,1.65
8401.00,1.65
8400.00,1.65
8399.00,1.65
8398.00,1.65
8397.00,1.65
8396.00,1.65
8395.00,1.65
8394.00,1.64
8393.00,1.64
8392.00,1.64
8391.00,1.64
8390.00,1.64
8389.00,1.63
8388.00,1.63
8387.00,1.63
8386.00,1.63
8385.00,1.62
8384.00,1.62
8383.00,1.62
8382.00,1.62
8381.00,1.62
8380.00,1.62
8379.00,1.62
8378.00,1.62
8377.00,1.62
8376.00,1.62
8375.00,1.62
8374.00,1.61
8373.00,1.61
8372.00,1.61
8371.00,1.61
8370.00,1.61
8369.00,1.61
8368.00,1.61
8367.00,1.61
8366.00,1.61
8365.00,1.61
8364.00,1.61
8363.00,1.60
8362.00,1.60
8361.00,1.60
8360.00,1.60
8359.00,1.59
8358.00,1.59
8357.00,1.59
8356.00,1.59
8355.00,1.60
8354.00,1.60
8353.00,1.60
8352.00,1.61
8351.00,1.61
8350.00,1.62
8349.00,1.62
8348.00,1.63
8347.00,1.63
8346.00,1.64
8345.00,1.64
8344.00,1.65
8343.00,1.65
8342.00,1.65
8341.00,1.65
8340.00,1.65
8339.00,1.65
8338.00,1.65
8337.00,1.64
8336.00,1.64
8335.00,1.63
8334.00,1.63
8333.00,1.62
8332.00,1.61
8331.00,1.60
8330.00,1.60
8329.00,1.59
8328.00,1.58
8327.00,1.58
8326.00,1.57
8325.00,1.56
8324.00,1.56
8323.00,1.56
8322.00,1.55
8321.00,1.55
8320.00,1.55
8319.00,1.55
8318.00,1.55
8317.00,1.55
8316.00,1.55
8315.00,1.54
8314.00,1.54
8313.00,1.54
8312.00,1.54
8311.00,1.54
8310.00,1.54
8309.00,1.54
8308.00,1.55
8307.00,1.55
8306.00,1.55
8305.00,1.55
8304.00,1.56
8303.00,1.56
8302.00,1.56
8301.00,1.57
8300.00,1.57
8299.00,1.58
8298.00,1.58
8297.00,1.59
8296.00,1.59
8295.00,1.60
8294.00,1.60
8293.00,1.60
8292.00,1.60
8291.00,1.60
8290.00,1.60
8289.00,1.60
8288.00,1.60
8287.00,1.60
8286.00,1.59
8285.00,1.59
8284.00,1.59
8283.00,1.59
8282.00,1.59
8281.00,1.59
8280.00,1.59
8279.00,1.60
8278.00,1.60
8277.00,1.60
8276.00,1.61
8275.00,1.61
8274.00,1.62
8273.00,1.62
8272.00,1.63
8271.00,1.63
8270.00,1.63
8269.00,1.64
8268.00,1.64
8267.00,1.64
8266.00,1.64
8265.00,1.64
8264.00,1.64
8263.00,1.64
8262.00,1.64
8261.00,1.63
8260.00,1.63
8259.00,1.63
8258.00,1.63
8257.00,1.62
8256.00,1.62
8255.00,1.62
8254.00,1.62
8253.00,1.62
8252.00,1.62
8251.00,1.62
8250.00,1.62
8249.00,1.62
8248.00,1.62
8247.00,1.63
8246.00,1.63
8245.00,1.63
8244.00,1.63
8243.00,1.64
8242.00,1.64
8241.00,1.64
8240.00,1.64
8239.00,1.64
8238.00,1.64
8237.00,1.64
8236.00,1.63
8235.00,1.63
8234.00,1.63
8233.00,1.63
8232.00,1.63
8231.00,1.63
8230.00,1.62
8229.00,1.62
8228.00,1.62
8227.00,1.62
8226.00,1.62
8225.00,1.62
8224.00,1.63
8223.00,1.63
8222.00,1.63
8221.00,1.63
8220.00,1.63
8219.00,1.63
8218.00,1.63
8217.00,1.63
8216.00,1.63
8215.00,1.63
8214.00,1.62
8213.00,1.62
8212.00,1.62
8211.00,1.61
8210.00,1.61
8209.00,1.60
8208.00,1.60
8207.00,1.59
8206.00,1.59
8205.00,1.58
8204.00,1.58
8203.00,1.58
8202.00,1.58
8201.00,1.58
8200.00,1.59
8199.00,1.59
8198.00,1.59
8197.00,1.59
8196.00,1.59
8195.00,1.59
8194.00,1.59
8193.00,1.59
8192.00,1.59
8191.00,1.59
8190.00,1.59
8189.00,1.59
8188.00,1.59
8187.00,1.58
8186.00,1.58
8185.00,1.58
8184.00,1.57
8183.00,1.57
8182.00,1.57
8181.00,1.57
8180.00,1.56
8179.00,1.56
8178.00,1.56
8177.00,1.56
8176.00,1.57
8175.00,1.57
8174.00,1.57
8173.00,1.57
8172.00,1.58
8171.00,1.58
8170.00,1.58
8169.00,1.59
8168.00,1.59
8167.00,1.60
8166.00,1.61
8165.00,1.61
8164.00,1.62
8163.00,1.63
8162.00,1.64
8161.00,1.64
8160.00,1.65
8159.00,1.66
8158.00,1.67
8157.00,1.67
8156.00,1.68
8155.00,1.68
8154.00,1.69
8153.00,1.69
8152.00,1.69
8151.00,1.69
8150.00,1.69
8149.00,1.69
8148.00,1.69
8147.00,1.69
8146.00,1.69
8145.00,1.69
8144.00,1.68
8143.00,1.68
8142.00,1.68
8141.00,1.67
8140.00,1.67
8139.00,1.67
8138.00,1.66
8137.00,1.66
8136.00,1.66
8135.00,1.65
8134.00,1.65
8133.00,1.65
8132.00,1.65
8131.00,1.65
8130.00,1.65
8129.00,1.64
8128.00,1.64
8127.00,1.63
8126.00,1.63
8125.00,1.63
8124.00,1.63
8123.00,1.62
8122.00,1.62
8121.00,1.62
8120.00,1.62
8119.00,1.62
8118.00,1.62
8117.00,1.61
8116.00,1.61
8115.00,1.61
8114.00,1.61
8113.00,1.61
8112.00,1.60
8111.00,1.60
8110.00,1.60
8109.00,1.60
8108.00,1.60
8107.00,1.59
8106.00,1.59
8105.00,1.59
8104.00,1.58
8103.00,1.58
8102.00,1.57
8101.00,1.57
8100.00,1.56
8099.00,1.56
8098.00,1.55
8097.00,1.55
8096.00,1.55
8095.00,1.55
8094.00,1.55
8093.00,1.55
8092.00,1.55
8091.00,1.55
8090.00,1.55
8089.00,1.55
8088.00,1.56
8087.00,1.56
8086.00,1.57
8085.00,1.57
8084.00,1.58
8083.00,1.58
8082.00,1.58
8081.00,1.59
8080.00,1.59
8079.00,1.60
8078.00,1.60
8077.00,1.60
8076.00,1.60
8075.00,1.60
8074.00,1.60
8073.00,1.59
8072.00,1.59
8071.00,1.59
8070.00,1.58
8069.00,1.58
8068.00,1.58
8067.00,1.58
8066.00,1.57
8065.00,1.57
8064.00,1.57
8063.00,1.56
8062.00,1.56
8061.00,1.56
8060.00,1.56
8059.00,1.55
8058.00,1.55
8057.00,1.55
8056.00,1.55
8055.00,1.56
8054.00,1.56
8053.00,1.56
8052.00,1.56
8051.00,1.56
8050.00,1.56
8049.00,1.57
8048.00,1.57
8047.00,1.57
8046.00,1.58
8045.00,1.58
8044.00,1.58
8043.00,1.59
8042.00,1.59
8041.00,1.60
8040.00,1.60
8039.00,1.60
8038.00,1.61
8037.00,1.61
8036.00,1.61
8035.00,1.61
8034.00,1.62
8033.00,1.62
8032.00,1.62
8031.00,1.63
8030.00,1.63
8029.00,1.63
8028.00,1.63
8027.00,1.63
8026.00,1.63
8025.00,1.63
8024.00,1.63
8023.00,1.63
8022.00,1.62
8021.00,1.62
8020.00,1.61
8019.00,1.61
8018.00,1.60
8017.00,1.60
8016.00,1.60
8015.00,1.59
8014.00,1.59
8013.00,1.58
8012.00,1.58
8011.00,1.58
8010.00,1.58
8009.00,1.58
8008.00,1.58
8007.00,1.58
8006.00,1.59
8005.00,1.59
8004.00,1.60
8003.00,1.61
8002.00,1.61
8001.00,1.62
8000.00,1.63
7999.00,1.64
7998.00,1.64
7997.00,1.65
7996.00,1.66
7995.00,1.66
7994.00,1.67
7993.00,1.67
7992.00,1.68
7991.00,1.68
7990.00,1.68
7989.00,1.68
7988.00,1.68
7987.00,1.68
7986.00,1.68
7985.00,1.68
7984.00,1.68
7983.00,1.67
7982.00,1.67
7981.00,1.66
7980.00,1.66
7979.00,1.65
7978.00,1.64
7977.00,1.63
7976.00,1.62
7975.00,1.62
7974.00,1.61
7973.00,1.60
7972.00,1.59
7971.00,1.58
7970.00,1.58
7969.00,1.57
7968.00,1.57
7967.00,1.56
7966.00,1.56
7965.00,1.56
7964.00,1.57
7963.00,1.57
7962.00,1.57
7961.00,1.58
7960.00,1.58
7959.00,1.59
7958.00,1.59
7957.00,1.60
7956.00,1.61
7955.00,1.61
7954.00,1.62
7953.00,1.63
7952.00,1.63
7951.00,1.64
7950.00,1.65
7949.00,1.65
7948.00,1.66
7947.00,1.66
7946.00,1.66
7945.00,1.66
7944.00,1.67
7943.00,1.67
7942.00,1.67
7941.00,1.67
7940.00,1.67
7939.00,1.68
7938.00,1.68
7937.00,1.68
7936.00,1.68
7935.00,1.68
7934.00,1.68
7933.00,1.68
7932.00,1.68
7931.00,1.68
7930.00,1.68
7929.00,1.68
7928.00,1.68
7927.00,1.68
7926.00,1.69
7925.00,1.69
7924.00,1.69
7923.00,1.69
7922.00,1.69
7921.00,1.69
7920.00,1.69
7919.00,1.70
7918.00,1.70
7917.00,1.70
7916.00,1.70
7915.00,1.70
7914.00,1.70
7913.00,1.71
7912.00,1.71
7911.00,1.70
7910.00,1.70
7909.00,1.70
7908.00,1.70
7907.00,1.70
7906.00,1.70
7905.00,1.69
7904.00,1.69
7903.00,1.68
7902.00,1.68
7901.00,1.67
7900.00,1.67
7899.00,1.66
7898.00,1.66
7897.00,1.65
7896.00,1.65
7895.00,1.64
7894.00,1.64
7893.00,1.64
7892.00,1.64
7891.00,1.64
7890.00,1.64
7889.00,1.64
7888.00,1.64
7887.00,1.65
7886.00,1.65
7885.00,1.65
7884.00,1.66
7883.00,1.66
7882.00,1.67
7881.00,1.68
7880.00,1.68
7879.00,1.69
7878.00,1.69
7877.00,1.70
7876.00,1.70
7875.00,1.70
7874.00,1.70
7873.00,1.70
7872.00,1.71
7871.00,1.71
7870.00,1.71
7869.00,1.71
7868.00,1.71
7867.00,1.71
7866.00,1.71
7865.00,1.71
7864.00,1.71
7863.00,1.71
7862.00,1.70
7861.00,1.70
7860.00,1.70
7859.00,1.69
7858.00,1.69
7857.00,1.68
7856.00,1.68
7855.00,1.68
7854.00,1.67
7853.00,1.67
7852.00,1.66
7851.00,1.66
7850.00,1.65
7849.00,1.65
7848.00,1.65
7847.00,1.64
7846.00,1.64
7845.00,1.64
7844.00,1.64
7843.00,1.64
7842.00,1.64
7841.00,1.64
7840.00,1.64
7839.00,1.64
7838.00,1.64
7837.00,1.64
7836.00,1.64
7835.00,1.64
7834.00,1.64
7833.00,1.64
7832.00,1.64
7831.00,1.63
7830.00,1.63
7829.00,1.62
7828.00,1.62
7827.00,1.61
7826.00,1.61
7825.00,1.60
7824.00,1.59
7823.00,1.58
7822.00,1.58
7821.00,1.57
7820.00,1.56
7819.00,1.56
7818.00,1.55
7817.00,1.55
7816.00,1.55
7815.00,1.55
7814.00,1.55
7813.00,1.55
7812.00,1.55
7811.00,1.55
7810.00,1.55
7809.00,1.56
7808.00,1.56
7807.00,1.56
7806.00,1.57
7805.00,1.58
7804.00,1.58
7803.00,1.59
7802.00,1.59
7801.00,1.60
7800.00,1.60
7799.00,1.61
7798.00,1.61
7797.00,1.62
7796.00,1.62
7795.00,1.62
7794.00,1.63
7793.00,1.63
7792.00,1.63
7791.00,1.63
7790.00,1.63
7789.00,1.64
7788.00,1.64
7787.00,1.64
7786.00,1.64
7785.00,1.64
7784.00,1.64
7783.00,1.64
7782.00,1.64
7781.00,1.64
7780.00,1.63
7779.00,1.63
7778.00,1.63
7777.00,1.63
7776.00,1.63
7775.00,1.63
7774.00,1.63
7773.00,1.63
7772.00,1.63
7771.00,1.63
7770.00,1.63
7769.00,1.63
7768.00,1.63
7767.00,1.63
7766.00,1.63
7765.00,1.64
7764.00,1.64
7763.00,1.64
7762.00,1.65
7761.00,1.65
7760.00,1.65
7759.00,1.65
7758.00,1.65
7757.00,1.65
7756.00,1.65
7755.00,1.65
7754.00,1.65
7753.00,1.65
7752.00,1.65
7751.00,1.65
7750.00,1.65
7749.00,1.65
7748.00,1.65
7747.00,1.66
7746.00,1.66
7745.00,1.66
7744.00,1.67
7743.00,1.67
7742.00,1.68
7741.00,1.68
7740.00,1.69
7739.00,1.70
7738.00,1.70
7737.00,1.71
7736.00,1.71
7735.00,1.72
7734.00,1.72
7733.00,1.72
7732.00,1.72
7731.00,1.72
7730.00,1.72
7729.00,1.72
7728.00,1.72
7727.00,1.71
7726.00,1.71
7725.00,1.70
7724.00,1.70
7723.00,1.69
7722.00,1.69
7721.00,1.68
7720.00,1.67
7719.00,1.67
7718.00,1.66
7717.00,1.66
7716.00,1.65
7715.00,1.65
7714.00,1.65
7713.00,1.64
7712.00,1.64
7711.00,1.63
7710.00,1.63
7709.00,1.63
7708.00,1.62
7707.00,1.62
7706.00,1.62
7705.00,1.63
7704.00,1.63
7703.00,1.63
7702.00,1.63
7701.00,1.63
7700.00,1.64
7699.00,1.64
7698.00,1.64
7697.00,1.65
7696.00,1.65
7695.00,1.66
7694.00,1.66
7693.00,1.67
7692.00,1.67
7691.00,1.68
7690.00,1.68
7689.00,1.68
7688.00,1.68
7687.00,1.68
7686.00,1.68
7685.00,1.68
7684.00,1.68
7683.00,1.68
7682.00,1.67
7681.00,1.67
7680.00,1.67
7679.00,1.67
7678.00,1.66
7677.00,1.66
7676.00,1.66
7675.00,1.66
7674.00,1.66
7673.00,1.66
7672.00,1.66
7671.00,1.66
7670.00,1.66
7669.00,1.66
7668.00,1.66
7667.00,1.67
7666.00,1.67
7665.00,1.67
7664.00,1.68
7663.00,1.68
7662.00,1.68
7661.00,1.69
7660.00,1.69
7659.00,1.70
7658.00,1.70
7657.00,1.71
7656.00,1.71
7655.00,1.71
7654.00,1.71
7653.00,1.71
7652.00,1.72
7651.00,1.72
7650.00,1.71
7649.00,1.71
7648.00,1.71
7647.00,1.71
7646.00,1.71
7645.00,1.71
7644.00,1.70
7643.00,1.70
7642.00,1.70
7641.00,1.70
7640.00,1.70
7639.00,1.70
7638.00,1.70
7637.00,1.71
7636.00,1.71
7635.00,1.71
7634.00,1.72
7633.00,1.72
7632.00,1.72
7631.00,1.73
7630.00,1.73
7629.00,1.73
7628.00,1.73
7627.00,1.73
7626.00,1.73
7625.00,1.73
7624.00,1.73
7623.00,1.73
7622.00,1.73
7621.00,1.72
7620.00,1.72
7619.00,1.72
7618.00,1.71
7617.00,1.71
7616.00,1.71
7615.00,1.70
7614.00,1.70
7613.00,1.69
7612.00,1.69
7611.00,1.69
7610.00,1.68
7609.00,1.68
7608.00,1.68
7607.00,1.68
7606.00,1.67
7605.00,1.67
7604.00,1.67
7603.00,1.67
7602.00,1.66
7601.00,1.66
7600.00,1.66
7599.00,1.66
7598.00,1.66
7597.00,1.65
7596.00,1.65
7595.00,1.65
7594.00,1.65
7593.00,1.64
7592.00,1.64
7591.00,1.64
7590.00,1.64
7589.00,1.63
7588.00,1.63
7587.00,1.63
7586.00,1.63
7585.00,1.63
7584.00,1.63
7583.00,1.63
7582.00,1.63
7581.00,1.63
7580.00,1.64
7579.00,1.64
7578.00,1.64
7577.00,1.65
7576.00,1.66
7575.00,1.66
7574.00,1.67
7573.00,1.68
7572.00,1.68
7571.00,1.69
7570.00,1.69
7569.00,1.70
7568.00,1.70
7567.00,1.70
7566.00,1.70
7565.00,1.70
7564.00,1.70
7563.00,1.70
7562.00,1.70
7561.00,1.70
7560.00,1.69
7559.00,1.69
7558.00,1.69
7557.00,1.69
7556.00,1.68
7555.00,1.68
7554.00,1.68
7553.00,1.68
7552.00,1.67
7551.00,1.67
7550.00,1.67
7549.00,1.67
7548.00,1.67
7547.00,1.67
7546.00,1.67
7545.00,1.66
7544.00,1.66
7543.00,1.66
7542.00,1.66
7541.00,1.66
7540.00,1.66
7539.00,1.66
7538.00,1.65
7537.00,1.65
7536.00,1.65
7535.00,1.65
7534.00,1.65
7533.00,1.65
7532.00,1.65
7531.00,1.65
7530.00,1.65
7529.00,1.65
7528.00,1.65
7527.00,1.65
7526.00,1.65
7525.00,1.65
7524.00,1.65
7523.00,1.65
7522.00,1.66
7521.00,1.66
7520.00,1.66
7519.00,1.66
7518.00,1.66
7517.00,1.66
7516.00,1.65
7515.00,1.65
7514.00,1.65
7513.00,1.65
7512.00,1.65
7511.00,1.64
7510.00,1.64
7509.00,1.64
7508.00,1.64
7507.00,1.64
7506.00,1.63
7505.00,1.63
7504.00,1.63
7503.00,1.63
7502.00,1.63
7501.00,1.63
7500.00,1.63
7499.00,1.63
7498.00,1.63
7497.00,1.63
7496.00,1.63
7495.00,1.63
7494.00,1.63
7493.00,1.63
7492.00,1.63
7491.00,1.63
7490.00,1.63
7489.00,1.63
7488.00,1.63
7487.00,1.63
7486.00,1.63
7485.00,1.63
7484.00,1.63
7483.00,1.63
7482.00,1.64
7481.00,1.64
7480.00,1.64
7479.00,1.64
7478.00,1.65
7477.00,1.65
7476.00,1.65
7475.00,1.65
7474.00,1.65
7473.00,1.65
7472.00,1.65
7471.00,1.65
7470.00,1.65
7469.00,1.65
7468.00,1.65
7467.00,1.65
7466.00,1.65
7465.00,1.66
7464.00,1.66
7463.00,1.66
7462.00,1.66
7461.00,1.66
7460.00,1.66
7459.00,1.66
7458.00,1.66
7457.00,1.66
7456.00,1.67
7455.00,1.67
7454.00,1.68
7453.00,1.68
7452.00,1.68
7451.00,1.69
7450.00,1.69
7449.00,1.69
7448.00,1.69
7447.00,1.69
7446.00,1.69
7445.00,1.69
7444.00,1.69
7443.00,1.69
7442.00,1.69
7441.00,1.68
7440.00,1.68
7439.00,1.68
7438.00,1.67
7437.00,1.67
7436.00,1.67
7435.00,1.66
7434.00,1.66
7433.00,1.66
7432.00,1.65
7431.00,1.65
7430.00,1.65
7429.00,1.65
7428.00,1.65
7427.00,1.65
7426.00,1.64
7425.00,1.64
7424.00,1.64
7423.00,1.64
7422.00,1.64
7421.00,1.64
7420.00,1.65
7419.00,1.65
7418.00,1.65
7417.00,1.65
7416.00,1.66
7415.00,1.66
7414.00,1.67
7413.00,1.67
7412.00,1.68
7411.00,1.68
7410.00,1.69
7409.00,1.69
7408.00,1.70
7407.00,1.70
7406.00,1.70
7405.00,1.71
7404.00,1.71
7403.00,1.71
7402.00,1.71
7401.00,1.71
7400.00,1.71
7399.00,1.71
7398.00,1.70
7397.00,1.70
7396.00,1.70
7395.00,1.69
7394.00,1.69
7393.00,1.68
7392.00,1.68
7391.00,1.67
7390.00,1.67
7389.00,1.67
7388.00,1.66
7387.00,1.66
7386.00,1.66
7385.00,1.66
7384.00,1.66
7383.00,1.66
7382.00,1.66
7381.00,1.66
7380.00,1.66
7379.00,1.67
7378.00,1.67
7377.00,1.67
7376.00,1.67
7375.00,1.68
7374.00,1.68
7373.00,1.68
7372.00,1.68
7371.00,1.69
7370.00,1.69
7369.00,1.69
7368.00,1.69
7367.00,1.69
7366.00,1.69
7365.00,1.69
7364.00,1.69
7363.00,1.69
7362.00,1.68
7361.00,1.68
7360.00,1.68
7359.00,1.68
7358.00,1.67
7357.00,1.67
7356.00,1.66
7355.00,1.66
7354.00,1.66
7353.00,1.65
7352.00,1.65
7351.00,1.64
7350.00,1.64
7349.00,1.63
7348.00,1.63
7347.00,1.63
7346.00,1.63
7345.00,1.63
7344.00,1.63
7343.00,1.63
7342.00,1.63
7341.00,1.63
7340.00,1.63
7339.00,1.63
7338.00,1.64
7337.00,1.64
7336.00,1.64
7335.00,1.65
7334.00,1.65
7333.00,1.66
7332.00,1.66
7331.00,1.67
7330.00,1.67
7329.00,1.68
7328.00,1.69
7327.00,1.69
7326.00,1.69
7325.00,1.70
7324.00,1.70
7323.00,1.71
7322.00,1.71
7321.00,1.71
7320.00,1.72
7319.00,1.72
7318.00,1.72
7317.00,1.72
7316.00,1.72
7315.00,1.73
7314.00,1.73
7313.00,1.73
7312.00,1.73
7311.00,1.73
7310.00,1.73
7309.00,1.72
7308.00,1.72
7307.00,1.72
7306.00,1.72
7305.00,1.71
7304.00,1.71
7303.00,1.71
7302.00,1.70
7301.00,1.70
7300.00,1.70
7299.00,1.69
7298.00,1.69
7297.00,1.69
7296.00,1.68
7295.00,1.68
7294.00,1.68
7293.00,1.68
7292.00,1.68
7291.00,1.68
7290.00,1.67
7289.00,1.67
7288.00,1.67
7287.00,1.67
7286.00,1.67
7285.00,1.67
7284.00,1.67
7283.00,1.66
7282.00,1.66
7281.00,1.66
7280.00,1.66
7279.00,1.65
7278.00,1.65
7277.00,1.65
7276.00,1.64
7275.00,1.64
7274.00,1.64
7273.00,1.63
7272.00,1.63
7271.00,1.63
7270.00,1.62
7269.00,1.62
7268.00,1.62
7267.00,1.62
7266.00,1.61
7265.00,1.61
7264.00,1.61
7263.00,1.61
7262.00,1.61
7261.00,1.60
7260.00,1.60
7259.00,1.60
7258.00,1.60
7257.00,1.60
7256.00,1.60
7255.00,1.61
7254.00,1.61
7253.00,1.61
7252.00,1.61
7251.00,1.62
7250.00,1.62
7249.00,1.62
7248.00,1.63
7247.00,1.63
7246.00,1.64
7245.00,1.64
7244.00,1.65
7243.00,1.65
7242.00,1.65
7241.00,1.66
7240.00,1.66
7239.00,1.66
7238.00,1.67
7237.00,1.67
7236.00,1.67
7235.00,1.68
7234.00,1.68
7233.00,1.68
7232.00,1.69
7231.00,1.69
7230.00,1.69
7229.00,1.69
7228.00,1.69
7227.00,1.69
7226.00,1.69
7225.00,1.69
7224.00,1.70
7223.00,1.70
7222.00,1.69
7221.00,1.69
7220.00,1.69
7219.00,1.69
7218.00,1.69
7217.00,1.68
7216.00,1.68
7215.00,1.68
7214.00,1.67
7213.00,1.67
7212.00,1.66
7211.00,1.66
7210.00,1.65
7209.00,1.65
7208.00,1.64
7207.00,1.63
7206.00,1.63
7205.00,1.62
7204.00,1.62
7203.00,1.61
7202.00,1.61
7201.00,1.60
7200.00,1.60
7199.00,1.60
7198.00,1.59
7197.00,1.59
7196.00,1.59
7195.00,1.59
7194.00,1.59
7193.00,1.59
7192.00,1.59
7191.00,1.59
7190.00,1.59
7189.00,1.59
7188.00,1.59
7187.00,1.59
7186.00,1.59
7185.00,1.59
7184.00,1.59
7183.00,1.58
7182.00,1.58
7181.00,1.58
7180.00,1.58
7179.00,1.58
7178.00,1.58
7177.00,1.58
7176.00,1.58
7175.00,1.58
7174.00,1.58
7173.00,1.58
7172.00,1.58
7171.00,1.58
7170.00,1.58
7169.00,1.57
7168.00,1.57
7167.00,1.57
7166.00,1.57
7165.00,1.57
7164.00,1.57
7163.00,1.57
7162.00,1.57
7161.00,1.57
7160.00,1.56
7159.00,1.56
7158.00,1.56
7157.00,1.56
7156.00,1.56
7155.00,1.56
7154.00,1.56
7153.00,1.57
7152.00,1.57
7151.00,1.57
7150.00,1.57
7149.00,1.57
7148.00,1.57
7147.00,1.57
7146.00,1.57
7145.00,1.57
7144.00,1.57
7143.00,1.57
7142.00,1.57
7141.00,1.57
7140.00,1.56
7139.00,1.56
7138.00,1.56
7137.00,1.55
7136.00,1.55
7135.00,1.55
7134.00,1.54
7133.00,1.54
7132.00,1.53
7131.00,1.53
7130.00,1.52
7129.00,1.52
7128.00,1.51
7127.00,1.51
7126.00,1.51
7125.00,1.50
7124.00,1.50
7123.00,1.50
7122.00,1.49
7121.00,1.49
7120.00,1.49
7119.00,1.48
7118.00,1.48
7117.00,1.48
7116.00,1.48
7115.00,1.48
7114.00,1.47
7113.00,1.47
7112.00,1.47
7111.00,1.47
7110.00,1.47
7109.00,1.47
7108.00,1.47
7107.00,1.47
7106.00,1.46
7105.00,1.46
7104.00,1.46
7103.00,1.46
7102.00,1.46
7101.00,1.46
7100.00,1.46
7099.00,1.46
7098.00,1.46
7097.00,1.46
7096.00,1.46
7095.00,1.46
7094.00,1.46
7093.00,1.45
7092.00,1.45
7091.00,1.45
7090.00,1.45
7089.00,1.45
7088.00,1.45
7087.00,1.44
7086.00,1.44
7085.00,1.44
7084.00,1.44
7083.00,1.44
7082.00,1.44
7081.00,1.44
7080.00,1.44
7079.00,1.44
7078.00,1.43
7077.00,1.43
7076.00,1.43
7075.00,1.43
7074.00,1.43
7073.00,1.43
7072.00,1.43
7071.00,1.42
7070.00,1.42
7069.00,1.42
7068.00,1.42
7067.00,1.41
7066.00,1.41
7065.00,1.41
7064.00,1.41
7063.00,1.41
7062.00,1.41
7061.00,1.41
7060.00,1.41
7059.00,1.40
7058.00,1.40
7057.00,1.40
7056.00,1.40
7055.00,1.40
7054.00,1.40
7053.00,1.40
7052.00,1.40
7051.00,1.40
7050.00,1.40
7049.00,1.40
7048.00,1.39
7047.00,1.39
7046.00,1.39
7045.00,1.39
7044.00,1.39
7043.00,1.39
7042.00,1.39
7041.00,1.39
7040.00,1.39
7039.00,1.40
7038.00,1.40
7037.00,1.40
7036.00,1.40
7035.00,1.41
7034.00,1.41
7033.00,1.42
7032.00,1.42
7031.00,1.43
7030.00,1.43
7029.00,1.43
7028.00,1.43
7027.00,1.44
7026.00,1.44
7025.00,1.44
7024.00,1.44
7023.00,1.44
7022.00,1.43
7021.00,1.43
7020.00,1.43
7019.00,1.42
7018.00,1.42
7017.00,1.41
7016.00,1.41
7015.00,1.40
7014.00,1.40
7013.00,1.40
7012.00,1.39
7011.00,1.39
7010.00,1.39
7009.00,1.38
7008.00,1.38
7007.00,1.38
7006.00,1.38
7005.00,1.39
7004.00,1.39
7003.00,1.39
7002.00,1.40
7001.00,1.40
7000.00,1.41
6999.00,1.41
6998.00,1.42
6997.00,1.42
6996.00,1.43
6995.00,1.43
6994.00,1.44
6993.00,1.44
6992.00,1.44
6991.00,1.45
6990.00,1.45
6989.00,1.45
6988.00,1.45
6987.00,1.45
6986.00,1.45
6985.00,1.44
6984.00,1.44
6983.00,1.44
6982.00,1.43
6981.00,1.43
6980.00,1.42
6979.00,1.42
6978.00,1.42
6977.00,1.41
6976.00,1.41
6975.00,1.41
6974.00,1.40
6973.00,1.40
6972.00,1.40
6971.00,1.40
6970.00,1.40
6969.00,1.40
6968.00,1.39
6967.00,1.39
6966.00,1.39
6965.00,1.40
6964.00,1.40
6963.00,1.40
6962.00,1.40
6961.00,1.40
6960.00,1.40
6959.00,1.40
6958.00,1.40
6957.00,1.40
6956.00,1.40
6955.00,1.40
6954.00,1.40
6953.00,1.40
6952.00,1.40
6951.00,1.40
6950.00,1.40
6949.00,1.40
6948.00,1.39
6947.00,1.39
6946.00,1.38
6945.00,1.38
6944.00,1.38
6943.00,1.37
6942.00,1.37
6941.00,1.37
6940.00,1.37
6939.00,1.36
6938.00,1.36
6937.00,1.36
6936.00,1.36
6935.00,1.36
6934.00,1.36
6933.00,1.36
6932.00,1.36
6931.00,1.36
6930.00,1.36
6929.00,1.37
6928.00,1.37
6927.00,1.37
6926.00,1.37
6925.00,1.38
6924.00,1.38
6923.00,1.38
6922.00,1.38
6921.00,1.38
6920.00,1.38
6919.00,1.38
6918.00,1.38
6917.00,1.38
6916.00,1.38
6915.00,1.38
6914.00,1.38
6913.00,1.38
6912.00,1.38
6911.00,1.37
6910.00,1.37
6909.00,1.37
6908.00,1.37
6907.00,1.37
6906.00,1.37
6905.00,1.37
6904.00,1.37
6903.00,1.38
6902.00,1.38
6901.00,1.38
6900.00,1.38
6899.00,1.38
6898.00,1.38
6897.00,1.38
6896.00,1.37
6895.00,1.37
6894.00,1.37
6893.00,1.37
6892.00,1.37
6891.00,1.37
6890.00,1.36
6889.00,1.36
6888.00,1.36
6887.00,1.35
6886.00,1.35
6885.00,1.35
6884.00,1.35
6883.00,1.35
6882.00,1.35
6881.00,1.35
6880.00,1.35
6879.00,1.35
6878.00,1.35
6877.00,1.36
6876.00,1.36
6875.00,1.36
6874.00,1.37
6873.00,1.37
6872.00,1.38
6871.00,1.38
6870.00,1.39
6869.00,1.39
6868.00,1.40
6867.00,1.40
6866.00,1.41
6865.00,1.41
6864.00,1.41
6863.00,1.41
6862.00,1.42
6861.00,1.42
6860.00,1.42
6859.00,1.42
6858.00,1.42
6857.00,1.42
6856.00,1.41
6855.00,1.41
6854.00,1.41
6853.00,1.41
6852.00,1.40
6851.00,1.40
6850.00,1.40
6849.00,1.39
6848.00,1.39
6847.00,1.39
6846.00,1.38
6845.00,1.38
6844.00,1.38
6843.00,1.37
6842.00,1.37
6841.00,1.37
6840.00,1.37
6839.00,1.37
6838.00,1.36
6837.00,1.36
6836.00,1.36
6835.00,1.36
6834.00,1.36
6833.00,1.36
6832.00,1.36
6831.00,1.36
6830.00,1.36
6829.00,1.36
6828.00,1.36
6827.00,1.36
6826.00,1.37
6825.00,1.37
6824.00,1.37
6823.00,1.37
6822.00,1.37
6821.00,1.37
6820.00,1.38
6819.00,1.38
6818.00,1.38
6817.00,1.38
6816.00,1.39
6815.00,1.39
6814.00,1.39
6813.00,1.39
6812.00,1.39
6811.00,1.39
6810.00,1.39
6809.00,1.39
6808.00,1.39
6807.00,1.38
6806.00,1.38
6805.00,1.38
6804.00,1.38
6803.00,1.38
6802.00,1.38
6801.00,1.38
6800.00,1.38
6799.00,1.38
6798.00,1.38
6797.00,1.39
6796.00,1.39
6795.00,1.39
6794.00,1.39
6793.00,1.40
6792.00,1.40
6791.00,1.40
6790.00,1.40
6789.00,1.41
6788.00,1.41
6787.00,1.41
6786.00,1.42
6785.00,1.42
6784.00,1.42
6783.00,1.42
6782.00,1.43
6781.00,1.43
6780.00,1.43
6779.00,1.43
6778.00,1.43
6777.00,1.43
6776.00,1.43
6775.00,1.43
6774.00,1.43
6773.00,1.43
6772.00,1.43
6771.00,1.43
6770.00,1.43
6769.00,1.43
6768.00,1.43
6767.00,1.43
6766.00,1.43
6765.00,1.42
6764.00,1.42
6763.00,1.42
6762.00,1.43
6761.00,1.42
6760.00,1.42
6759.00,1.42
6758.00,1.42
6757.00,1.42
6756.00,1.42
6755.00,1.41
6754.00,1.41
6753.00,1.41
6752.00,1.41
6751.00,1.41
6750.00,1.40
6749.00,1.40
6748.00,1.40
6747.00,1.40
6746.00,1.40
6745.00,1.40
6744.00,1.40
6743.00,1.40
6742.00,1.40
6741.00,1.40
6740.00,1.41
6739.00,1.41
6738.00,1.41
6737.00,1.42
6736.00,1.42
6735.00,1.42
6734.00,1.43
6733.00,1.43
6732.00,1.43
6731.00,1.44
6730.00,1.44
6729.00,1.44
6728.00,1.45
6727.00,1.45
6726.00,1.45
6725.00,1.46
6724.00,1.46
6723.00,1.46
6722.00,1.46
6721.00,1.47
6720.00,1.47
6719.00,1.47
6718.00,1.47
6717.00,1.47
6716.00,1.47
6715.00,1.48
6714.00,1.48
6713.00,1.48
6712.00,1.48
6711.00,1.48
6710.00,1.48
6709.00,1.48
6708.00,1.48
6707.00,1.49
6706.00,1.49
6705.00,1.49
6704.00,1.49
6703.00,1.49
6702.00,1.49
6701.00,1.49
6700.00,1.48
6699.00,1.48
6698.00,1.48
6697.00,1.48
6696.00,1.48
6695.00,1.48
6694.00,1.48
6693.00,1.48
6692.00,1.48
6691.00,1.48
6690.00,1.48
6689.00,1.48
6688.00,1.48
6687.00,1.48
6686.00,1.48
6685.00,1.48
6684.00,1.48
6683.00,1.48
6682.00,1.48
6681.00,1.48
6680.00,1.48
6679.00,1.48
6678.00,1.49
6677.00,1.49
6676.00,1.49
6675.00,1.49
6674.00,1.49
6673.00,1.49
6672.00,1.49
6671.00,1.49
6670.00,1.49
6669.00,1.49
6668.00,1.49
6667.00,1.49
6666.00,1.49
6665.00,1.49
6664.00,1.49
6663.00,1.49
6662.00,1.49
6661.00,1.49
6660.00,1.49
6659.00,1.49
6658.00,1.49
6657.00,1.49
6656.00,1.49
6655.00,1.50
6654.00,1.50
6653.00,1.50
6652.00,1.50
6651.00,1.50
6650.00,1.50
6649.00,1.51
6648.00,1.51
6647.00,1.51
6646.00,1.51
6645.00,1.51
6644.00,1.51
6643.00,1.51
6642.00,1.51
6641.00,1.51
6640.00,1.51
6639.00,1.51
6638.00,1.51
6637.00,1.51
6636.00,1.51
6635.00,1.50
6634.00,1.50
6633.00,1.50
6632.00,1.50
6631.00,1.50
6630.00,1.50
6629.00,1.51
6628.00,1.51
6627.00,1.51
6626.00,1.51
6625.00,1.51
6624.00,1.52
6623.00,1.52
6622.00,1.52
6621.00,1.53
6620.00,1.53
6619.00,1.53
6618.00,1.54
6617.00,1.54
6616.00,1.54
6615.00,1.55
6614.00,1.55
6613.00,1.55
6612.00,1.55
6611.00,1.56
6610.00,1.56
6609.00,1.56
6608.00,1.56
6607.00,1.56
6606.00,1.56
6605.00,1.56
6604.00,1.56
6603.00,1.56
6602.00,1.56
6601.00,1.56
6600.00,1.56
6599.00,1.56
6598.00,1.56
6597.00,1.56
6596.00,1.56
6595.00,1.56
6594.00,1.57
6593.00,1.57
6592.00,1.57
6591.00,1.57
6590.00,1.57
6589.00,1.57
6588.00,1.58
6587.00,1.58
6586.00,1.58
6585.00,1.58
6584.00,1.58
6583.00,1.57
6582.00,1.57
6581.00,1.57
6580.00,1.57
6579.00,1.57
6578.00,1.57
6577.00,1.57
6576.00,1.57
6575.00,1.57
6574.00,1.57
6573.00,1.57
6572.00,1.57
6571.00,1.57
6570.00,1.57
6569.00,1.57
6568.00,1.57
6567.00,1.57
6566.00,1.57
6565.00,1.57
6564.00,1.58
6563.00,1.58
6562.00,1.58
6561.00,1.58
6560.00,1.59
6559.00,1.59
6558.00,1.59
6557.00,1.59
6556.00,1.60
6555.00,1.60
6554.00,1.60
6553.00,1.60
6552.00,1.60
6551.00,1.60
6550.00,1.60
6549.00,1.60
6548.00,1.60
6547.00,1.60
6546.00,1.60
6545.00,1.59
6544.00,1.59
6543.00,1.59
6542.00,1.59
6541.00,1.58
6540.00,1.58
6539.00,1.58
6538.00,1.57
6537.00,1.57
6536.00,1.57
6535.00,1.57
6534.00,1.57
6533.00,1.57
6532.00,1.57
6531.00,1.57
6530.00,1.57
6529.00,1.57
6528.00,1.57
6527.00,1.57
6526.00,1.57
6525.00,1.58
6524.00,1.58
6523.00,1.58
6522.00,1.58
6521.00,1.59
6520.00,1.59
6519.00,1.59
6518.00,1.60
6517.00,1.60
6516.00,1.61
6515.00,1.61
6514.00,1.61
6513.00,1.62
6512.00,1.62
6511.00,1.62
6510.00,1.62
6509.00,1.63
6508.00,1.63
6507.00,1.63
6506.00,1.63
6505.00,1.63
6504.00,1.63
6503.00,1.63
6502.00,1.63
6501.00,1.63
6500.00,1.63
6499.00,1.63
6498.00,1.63
6497.00,1.63
6496.00,1.63
6495.00,1.62
6494.00,1.62
6493.00,1.62
6492.00,1.62
6491.00,1.61
6490.00,1.61
6489.00,1.61
6488.00,1.61
6487.00,1.61
6486.00,1.60
6485.00,1.60
6484.00,1.60
6483.00,1.60
6482.00,1.60
6481.00,1.60
6480.00,1.60
6479.00,1.61
6478.00,1.61
6477.00,1.61
6476.00,1.61
6475.00,1.61
6474.00,1.62
6473.00,1.62
6472.00,1.62
6471.00,1.62
6470.00,1.62
6469.00,1.62
6468.00,1.62
6467.00,1.62
6466.00,1.63
6465.00,1.63
6464.00,1.63
6463.00,1.63
6462.00,1.63
6461.00,1.62
6460.00,1.62
6459.00,1.62
6458.00,1.62
6457.00,1.62
6456.00,1.62
6455.00,1.62
6454.00,1.62
6453.00,1.62
6452.00,1.62
6451.00,1.62
6450.00,1.62
6449.00,1.62
6448.00,1.63
6447.00,1.63
6446.00,1.63
6445.00,1.63
6444.00,1.63
6443.00,1.64
6442.00,1.64
6441.00,1.64
6440.00,1.64
6439.00,1.64
6438.00,1.65
6437.00,1.65
6436.00,1.65
6435.00,1.65
6434.00,1.65
6433.00,1.66
6432.00,1.66
6431.00,1.66
6430.00,1.66
6429.00,1.66
6428.00,1.66
6427.00,1.66
6426.00,1.67
6425.00,1.67
6424.00,1.67
6423.00,1.67
6422.00,1.67
6421.00,1.68
6420.00,1.68
6419.00,1.68
6418.00,1.68
6417.00,1.68
6416.00,1.68
6415.00,1.68
6414.00,1.68
6413.00,1.68
6412.00,1.69
6411.00,1.69
6410.00,1.69
6409.00,1.68
6408.00,1.68
6407.00,1.68
6406.00,1.68
6405.00,1.68
6404.00,1.68
6403.00,1.68
6402.00,1.68
6401.00,1.68
6400.00,1.68
6399.00,1.67
6398.00,1.67
6397.00,1.67
6396.00,1.67
6395.00,1.67
6394.00,1.67
6393.00,1.66
6392.00,1.66
6391.00,1.66
6390.00,1.66
6389.00,1.65
6388.00,1.65
6387.00,1.65
6386.00,1.65
6385.00,1.65
6384.00,1.64
6383.00,1.64
6382.00,1.64
6381.00,1.64
6380.00,1.64
6379.00,1.64
6378.00,1.64
6377.00,1.64
6376.00,1.64
6375.00,1.65
6374.00,1.65
6373.00,1.65
6372.00,1.66
6371.00,1.66
6370.00,1.67
6369.00,1.67
6368.00,1.67
6367.00,1.68
6366.00,1.68
6365.00,1.69
6364.00,1.69
6363.00,1.69
6362.00,1.70
6361.00,1.70
6360.00,1.70
6359.00,1.70
6358.00,1.70
6357.00,1.70
6356.00,1.70
6355.00,1.70
6354.00,1.69
6353.00,1.69
6352.00,1.69
6351.00,1.69
6350.00,1.69
6349.00,1.69
6348.00,1.69
6347.00,1.69
6346.00,1.69
6345.00,1.69
6344.00,1.69
6343.00,1.69
6342.00,1.69
6341.00,1.69
6340.00,1.69
6339.00,1.70
6338.00,1.70
6337.00,1.70
6336.00,1.70
6335.00,1.70
6334.00,1.70
6333.00,1.70
6332.00,1.70
6331.00,1.70
6330.00,1.70
6329.00,1.70
6328.00,1.70
6327.00,1.70
6326.00,1.70
6325.00,1.70
6324.00,1.70
6323.00,1.70
6322.00,1.70
6321.00,1.70
6320.00,1.70
6319.00,1.70
6318.00,1.70
6317.00,1.70
6316.00,1.71
6315.00,1.71
6314.00,1.71
6313.00,1.71
6312.00,1.72
6311.00,1.72
6310.00,1.72
6309.00,1.72
6308.00,1.72
6307.00,1.73
6306.00,1.73
6305.00,1.73
6304.00,1.73
6303.00,1.73
6302.00,1.73
6301.00,1.73
6300.00,1.73
6299.00,1.73
6298.00,1.73
6297.00,1.73
6296.00,1.73
6295.00,1.73
6294.00,1.73
6293.00,1.73
6292.00,1.72
6291.00,1.72
6290.00,1.72
6289.00,1.72
6288.00,1.72
6287.00,1.72
6286.00,1.71
6285.00,1.71
6284.00,1.71
6283.00,1.71
6282.00,1.71
6281.00,1.71
6280.00,1.70
6279.00,1.70
6278.00,1.70
6277.00,1.70
6276.00,1.70
6275.00,1.70
6274.00,1.70
6273.00,1.70
6272.00,1.70
6271.00,1.70
6270.00,1.70
6269.00,1.70
6268.00,1.70
6267.00,1.70
6266.00,1.70
6265.00,1.70
6264.00,1.70
6263.00,1.70
6262.00,1.70
6261.00,1.70
6260.00,1.69
6259.00,1.69
6258.00,1.69
6257.00,1.69
6256.00,1.69
6255.00,1.69
6254.00,1.69
6253.00,1.69
6252.00,1.69
6251.00,1.69
6250.00,1.69
6249.00,1.69
6248.00,1.70
6247.00,1.70
6246.00,1.70
6245.00,1.70
6244.00,1.70
6243.00,1.70
6242.00,1.71
6241.00,1.71
6240.00,1.71
6239.00,1.71
6238.00,1.71
6237.00,1.71
6236.00,1.71
6235.00,1.71
6234.00,1.71
6233.00,1.71
6232.00,1.71
6231.00,1.71
6230.00,1.71
6229.00,1.71
6228.00,1.71
6227.00,1.71
6226.00,1.71
6225.00,1.71
6224.00,1.71
6223.00,1.71
6222.00,1.71
6221.00,1.71
6220.00,1.71
6219.00,1.71
6218.00,1.71
6217.00,1.71
6216.00,1.71
6215.00,1.71
6214.00,1.71
6213.00,1.71
6212.00,1.71
6211.00,1.70
6210.00,1.70
6209.00,1.70
6208.00,1.70
6207.00,1.70
6206.00,1.70
6205.00,1.70
6204.00,1.71
6203.00,1.71
6202.00,1.71
6201.00,1.71
6200.00,1.71
6199.00,1.71
6198.00,1.71
6197.00,1.71
6196.00,1.71
6195.00,1.72
6194.00,1.72
6193.00,1.72
6192.00,1.72
6191.00,1.72
6190.00,1.72
6189.00,1.73
6188.00,1.73
6187.00,1.73
6186.00,1.73
6185.00,1.73
6184.00,1.73
6183.00,1.73
6182.00,1.73
6181.00,1.74
6180.00,1.74
6179.00,1.74
6178.00,1.74
6177.00,1.74
6176.00,1.73
6175.00,1.73
6174.00,1.73
6173.00,1.73
6172.00,1.73
6171.00,1.73
6170.00,1.73
6169.00,1.73
6168.00,1.73
6167.00,1.73
6166.00,1.73
6165.00,1.73
6164.00,1.73
6163.00,1.73
6162.00,1.73
6161.00,1.73
6160.00,1.73
6159.00,1.73
6158.00,1.73
6157.00,1.73
6156.00,1.73
6155.00,1.73
6154.00,1.73
6153.00,1.72
6152.00,1.72
6151.00,1.72
6150.00,1.72
6149.00,1.72
6148.00,1.72
6147.00,1.72
6146.00,1.72
6145.00,1.72
6144.00,1.72
6143.00,1.73
6142.00,1.73
6141.00,1.73
6140.00,1.73
6139.00,1.73
6138.00,1.73
6137.00,1.73
6136.00,1.73
6135.00,1.73
6134.00,1.74
6133.00,1.74
6132.00,1.74
6131.00,1.74
6130.00,1.74
6129.00,1.75
6128.00,1.75
6127.00,1.75
6126.00,1.75
6125.00,1.75
6124.00,1.75
6123.00,1.76
6122.00,1.76
6121.00,1.76
6120.00,1.76
6119.00,1.76
6118.00,1.76
6117.00,1.76
6116.00,1.76
6115.00,1.76
6114.00,1.75
6113.00,1.75
6112.00,1.75
6111.00,1.75
6110.00,1.75
6109.00,1.74
6108.00,1.74
6107.00,1.74
6106.00,1.74
6105.00,1.74
6104.00,1.74
6103.00,1.74
6102.00,1.74
6101.00,1.74
6100.00,1.74
6099.00,1.74
6098.00,1.74
6097.00,1.74
6096.00,1.74
6095.00,1.74
6094.00,1.74
6093.00,1.74
6092.00,1.74
6091.00,1.74
6090.00,1.74
6089.00,1.74
6088.00,1.74
6087.00,1.74
6086.00,1.74
6085.00,1.74
6084.00,1.74
6083.00,1.74
6082.00,1.73
6081.00,1.73
6080.00,1.73
6079.00,1.73
6078.00,1.73
6077.00,1.73
6076.00,1.73
6075.00,1.73
6074.00,1.73
6073.00,1.74
6072.00,1.74
6071.00,1.74
6070.00,1.74
6069.00,1.74
6068.00,1.75
6067.00,1.75
6066.00,1.75
6065.00,1.76
6064.00,1.76
6063.00,1.76
6062.00,1.77
6061.00,1.77
6060.00,1.77
6059.00,1.77
6058.00,1.77
6057.00,1.77
6056.00,1.77
6055.00,1.77
6054.00,1.77
6053.00,1.77
6052.00,1.77
6051.00,1.77
6050.00,1.77
6049.00,1.77
6048.00,1.77
6047.00,1.76
6046.00,1.76
6045.00,1.76
6044.00,1.76
6043.00,1.76
6042.00,1.76
6041.00,1.76
6040.00,1.76
6039.00,1.75
6038.00,1.75
6037.00,1.75
6036.00,1.75
6035.00,1.75
6034.00,1.76
6033.00,1.76
6032.00,1.76
6031.00,1.76
6030.00,1.76
6029.00,1.76
6028.00,1.76
6027.00,1.77
6026.00,1.77
6025.00,1.77
6024.00,1.77
6023.00,1.77
6022.00,1.78
6021.00,1.78
6020.00,1.78
6019.00,1.78
6018.00,1.78
6017.00,1.79
6016.00,1.79
6015.00,1.79
6014.00,1.79
6013.00,1.79
6012.00,1.79
6011.00,1.79
6010.00,1.79
6009.00,1.79
6008.00,1.79
6007.00,1.79
6006.00,1.78
6005.00,1.78
6004.00,1.78
6003.00,1.78
6002.00,1.77
6001.00,1.77
6000.00,1.77
5999.00,1.76
5998.00,1.76
5997.00,1.76
5996.00,1.76
5995.00,1.75
5994.00,1.75
5993.00,1.75
5992.00,1.75
5991.00,1.75
5990.00,1.75
5989.00,1.75
5988.00,1.75
5987.00,1.75
5986.00,1.75
5985.00,1.75
5984.00,1.75
5983.00,1.76
5982.00,1.76
5981.00,1.76
5980.00,1.76
5979.00,1.76
5978.00,1.77
5977.00,1.77
5976.00,1.77
5975.00,1.77
5974.00,1.78
5973.00,1.78
5972.00,1.78
5971.00,1.78
5970.00,1.78
5969.00,1.78
5968.00,1.79
5967.00,1.79
5966.00,1.79
5965.00,1.79
5964.00,1.79
5963.00,1.79
5962.00,1.79
5961.00,1.78
5960.00,1.78
5959.00,1.78
5958.00,1.78
5957.00,1.78
5956.00,1.78
5955.00,1.77
5954.00,1.77
5953.00,1.77
5952.00,1.77
5951.00,1.77
5950.00,1.77
5949.00,1.76
5948.00,1.76
5947.00,1.76
5946.00,1.76
5945.00,1.76
5944.00,1.76
5943.00,1.76
5942.00,1.76
5941.00,1.76
5940.00,1.76
5939.00,1.76
5938.00,1.76
5937.00,1.76
5936.00,1.76
5935.00,1.76
5934.00,1.76
5933.00,1.76
5932.00,1.76
5931.00,1.76
5930.00,1.76
5929.00,1.76
5928.00,1.76
5927.00,1.76
5926.00,1.76
5925.00,1.76
5924.00,1.76
5923.00,1.76
5922.00,1.76
5921.00,1.76
5920.00,1.76
5919.00,1.76
5918.00,1.76
5917.00,1.76
5916.00,1.76
5915.00,1.76
5914.00,1.76
5913.00,1.76
5912.00,1.76
5911.00,1.76
5910.00,1.76
5909.00,1.76
5908.00,1.76
5907.00,1.76
5906.00,1.76
5905.00,1.76
5904.00,1.76
5903.00,1.76
5902.00,1.76
5901.00,1.76
5900.00,1.76
5899.00,1.76
5898.00,1.76
5897.00,1.76
5896.00,1.75
5895.00,1.75
5894.00,1.75
5893.00,1.75
5892.00,1.75
5891.00,1.74
5890.00,1.74
5889.00,1.74
5888.00,1.74
5887.00,1.74
5886.00,1.74
5885.00,1.74
5884.00,1.74
5883.00,1.74
5882.00,1.74
5881.00,1.74
5880.00,1.74
5879.00,1.74
5878.00,1.74
5877.00,1.75
5876.00,1.75
5875.00,1.75
5874.00,1.75
5873.00,1.75
5872.00,1.76
5871.00,1.76
5870.00,1.76
5869.00,1.76
5868.00,1.76
5867.00,1.76
5866.00,1.76
5865.00,1.76
5864.00,1.76
5863.00,1.76
5862.00,1.76
5861.00,1.76
5860.00,1.76
5859.00,1.76
5858.00,1.76
5857.00,1.76
5856.00,1.76
5855.00,1.76
5854.00,1.76
5853.00,1.76
5852.00,1.76
5851.00,1.76
5850.00,1.76
5849.00,1.76
5848.00,1.76
5847.00,1.76
5846.00,1.76
5845.00,1.76
5844.00,1.76
5843.00,1.76
5842.00,1.76
5841.00,1.76
5840.00,1.76
5839.00,1.76
5838.00,1.76
5837.00,1.76
5836.00,1.76
5835.00,1.76
5834.00,1.76
5833.00,1.76
5832.00,1.76
5831.00,1.76
5830.00,1.76
5829.00,1.76
5828.00,1.76
5827.00,1.76
5826.00,1.76
5825.00,1.76
5824.00,1.77
5823.00,1.77
5822.00,1.77
5821.00,1.77
5820.00,1.77
5819.00,1.78
5818.00,1.78
5817.00,1.78
5816.00,1.78
5815.00,1.78
5814.00,1.78
5813.00,1.78
5812.00,1.78
5811.00,1.78
5810.00,1.78
5809.00,1.78
5808.00,1.77
5807.00,1.77
5806.00,1.77
5805.00,1.77
5804.00,1.77
5803.00,1.77
5802.00,1.77
5801.00,1.76
5800.00,1.76
5799.00,1.76
5798.00,1.76
5797.00,1.76
5796.00,1.76
5795.00,1.76
5794.00,1.76
5793.00,1.76
5792.00,1.76
5791.00,1.76
5790.00,1.76
5789.00,1.76
5788.00,1.76
5787.00,1.76
5786.00,1.76
5785.00,1.76
5784.00,1.76
5783.00,1.76
5782.00,1.76
5781.00,1.76
5780.00,1.76
5779.00,1.76
5778.00,1.76
5777.00,1.76
5776.00,1.76
5775.00,1.76
5774.00,1.76
5773.00,1.76
5772.00,1.76
5771.00,1.76
5770.00,1.76
5769.00,1.76
5768.00,1.76
5767.00,1.76
5766.00,1.76
5765.00,1.76
5764.00,1.76
5763.00,1.76
5762.00,1.76
5761.00,1.76
5760.00,1.76
5759.00,1.76
5758.00,1.76
5757.00,1.76
5756.00,1.76
5755.00,1.76
5754.00,1.76
5753.00,1.76
5752.00,1.76
5751.00,1.76
5750.00,1.77
5749.00,1.77
5748.00,1.77
5747.00,1.77
5746.00,1.77
5745.00,1.77
5744.00,1.77
5743.00,1.77
5742.00,1.77
5741.00,1.76
5740.00,1.76
5739.00,1.76
5738.00,1.76
5737.00,1.76
5736.00,1.76
5735.00,1.75
5734.00,1.75
5733.00,1.75
5732.00,1.75
5731.00,1.75
5730.00,1.75
5729.00,1.75
5728.00,1.75
5727.00,1.75
5726.00,1.75
5725.00,1.75
5724.00,1.75
5723.00,1.75
5722.00,1.75
5721.00,1.75
5720.00,1.75
5719.00,1.76
5718.00,1.76
5717.00,1.76
5716.00,1.76
5715.00,1.76
5714.00,1.76
5713.00,1.76
5712.00,1.76
5711.00,1.76
5710.00,1.76
5709.00,1.76
5708.00,1.76
5707.00,1.76
5706.00,1.76
5705.00,1.76
5704.00,1.76
5703.00,1.76
5702.00,1.76
5701.00,1.75
5700.00,1.75
5699.00,1.75
5698.00,1.75
5697.00,1.75
5696.00,1.74
5695.00,1.74
5694.00,1.74
5693.00,1.74
5692.00,1.74
5691.00,1.74
5690.00,1.73
5689.00,1.73
5688.00,1.73
5687.00,1.73
5686.00,1.73
5685.00,1.73
5684.00,1.73
5683.00,1.73
5682.00,1.73
5681.00,1.72
5680.00,1.72
5679.00,1.72
5678.00,1.72
5677.00,1.72
5676.00,1.72
5675.00,1.72
5674.00,1.72
5673.00,1.72
5672.00,1.72
5671.00,1.72
5670.00,1.72
5669.00,1.72
5668.00,1.72
5667.00,1.73
5666.00,1.73
5665.00,1.73
5664.00,1.73
5663.00,1.73
5662.00,1.73
5661.00,1.73
5660.00,1.73
5659.00,1.73
5658.00,1.73
5657.00,1.73
5656.00,1.73
5655.00,1.73
5654.00,1.73
5653.00,1.73
5652.00,1.73
5651.00,1.73
5650.00,1.73
5649.00,1.73
5648.00,1.73
5647.00,1.73
5646.00,1.73
5645.00,1.73
5644.00,1.73
5643.00,1.73
5642.00,1.73
5641.00,1.73
5640.00,1.73
5639.00,1.73
5638.00,1.73
5637.00,1.73
5636.00,1.73
5635.00,1.73
5634.00,1.73
5633.00,1.73
5632.00,1.73
5631.00,1.73
5630.00,1.73
5629.00,1.73
5628.00,1.73
5627.00,1.73
5626.00,1.73
5625.00,1.73
5624.00,1.73
5623.00,1.73
5622.00,1.73
5621.00,1.73
5620.00,1.73
5619.00,1.73
5618.00,1.73
5617.00,1.73
5616.00,1.73
5615.00,1.73
5614.00,1.73
5613.00,1.73
5612.00,1.73
5611.00,1.73
5610.00,1.73
5609.00,1.73
5608.00,1.73
5607.00,1.73
5606.00,1.73
5605.00,1.73
5604.00,1.73
5603.00,1.73
5602.00,1.73
5601.00,1.73
5600.00,1.73
5599.00,1.73
5598.00,1.73
5597.00,1.73
5596.00,1.73
5595.00,1.73
5594.00,1.73
5593.00,1.73
5592.00,1.74
5591.00,1.74
5590.00,1.74
5589.00,1.74
5588.00,1.74
5587.00,1.74
5586.00,1.74
5585.00,1.74
5584.00,1.74
5583.00,1.74
5582.00,1.74
5581.00,1.74
5580.00,1.74
5579.00,1.74
5578.00,1.74
5577.00,1.75
5576.00,1.75
5575.00,1.75
5574.00,1.75
5573.00,1.75
5572.00,1.75
5571.00,1.75
5570.00,1.74
5569.00,1.74
5568.00,1.74
5567.00,1.74
5566.00,1.74
5565.00,1.74
5564.00,1.74
5563.00,1.74
5562.00,1.74
5561.00,1.74
5560.00,1.74
5559.00,1.74
5558.00,1.74
5557.00,1.74
5556.00,1.74
5555.00,1.73
5554.00,1.73
5553.00,1.73
5552.00,1.73
5551.00,1.73
5550.00,1.73
5549.00,1.73
5548.00,1.73
5547.00,1.72
5546.00,1.72
5545.00,1.72
5544.00,1.72
5543.00,1.72
5542.00,1.72
5541.00,1.72
5540.00,1.72
5539.00,1.72
5538.00,1.72
5537.00,1.72
5536.00,1.72
5535.00,1.72
5534.00,1.72
5533.00,1.72
5532.00,1.73
5531.00,1.73
5530.00,1.73
5529.00,1.73
5528.00,1.73
5527.00,1.73
5526.00,1.73
5525.00,1.73
5524.00,1.73
5523.00,1.73
5522.00,1.73
5521.00,1.73
5520.00,1.73
5519.00,1.73
5518.00,1.73
5517.00,1.73
5516.00,1.73
5515.00,1.73
5514.00,1.73
5513.00,1.73
5512.00,1.73
5511.00,1.74
5510.00,1.74
5509.00,1.74
5508.00,1.74
5507.00,1.74
5506.00,1.74
5505.00,1.74
5504.00,1.74
5503.00,1.74
5502.00,1.74
5501.00,1.74
5500.00,1.75
5499.00,1.75
5498.00,1.75
5497.00,1.75
5496.00,1.75
5495.00,1.75
5494.00,1.75
5493.00,1.75
5492.00,1.75
5491.00,1.75
5490.00,1.75
5489.00,1.75
5488.00,1.75
5487.00,1.75
5486.00,1.75
5485.00,1.75
5484.00,1.75
5483.00,1.75
5482.00,1.75
5481.00,1.75
5480.00,1.75
5479.00,1.75
5478.00,1.75
5477.00,1.75
5476.00,1.75
5475.00,1.75
5474.00,1.76
5473.00,1.76
5472.00,1.76
5471.00,1.76
5470.00,1.77
5469.00,1.77
5468.00,1.77
5467.00,1.77
5466.00,1.77
5465.00,1.77
5464.00,1.78
5463.00,1.78
5462.00,1.78
5461.00,1.78
5460.00,1.78
5459.00,1.78
5458.00,1.78
5457.00,1.78
5456.00,1.78
5455.00,1.78
5454.00,1.78
5453.00,1.78
5452.00,1.78
5451.00,1.78
5450.00,1.78
5449.00,1.78
5448.00,1.78
5447.00,1.78
5446.00,1.78
5445.00,1.78
5444.00,1.78
5443.00,1.78
5442.00,1.78
5441.00,1.78
5440.00,1.77
5439.00,1.77
5438.00,1.77
5437.00,1.77
5436.00,1.77
5435.00,1.77
5434.00,1.77
5433.00,1.77
5432.00,1.77
5431.00,1.76
5430.00,1.76
5429.00,1.76
5428.00,1.76
5427.00,1.76
5426.00,1.76
5425.00,1.76
5424.00,1.76
5423.00,1.76
5422.00,1.76
5421.00,1.76
5420.00,1.76
5419.00,1.76
5418.00,1.76
5417.00,1.76
5416.00,1.76
5415.00,1.76
5414.00,1.76
5413.00,1.76
5412.00,1.76
5411.00,1.76
5410.00,1.76
5409.00,1.76
5408.00,1.76
5407.00,1.76
5406.00,1.75
5405.00,1.75
5404.00,1.75
5403.00,1.75
5402.00,1.75
5401.00,1.75
5400.00,1.75
5399.00,1.75
5398.00,1.75
5397.00,1.75
5396.00,1.74
5395.00,1.74
5394.00,1.74
5393.00,1.74
5392.00,1.74
5391.00,1.74
5390.00,1.74
5389.00,1.74
5388.00,1.74
5387.00,1.74
5386.00,1.74
5385.00,1.73
5384.00,1.73
5383.00,1.73
5382.00,1.73
5381.00,1.72
5380.00,1.72
5379.00,1.72
5378.00,1.72
5377.00,1.71
5376.00,1.71
5375.00,1.71
5374.00,1.71
5373.00,1.71
5372.00,1.71
5371.00,1.70
5370.00,1.70
5369.00,1.70
5368.00,1.70
5367.00,1.70
5366.00,1.69
5365.00,1.69
5364.00,1.69
5363.00,1.69
5362.00,1.69
5361.00,1.68
5360.00,1.68
5359.00,1.68
5358.00,1.67
5357.00,1.67
5356.00,1.67
5355.00,1.66
5354.00,1.66
5353.00,1.65
5352.00,1.65
5351.00,1.65
5350.00,1.64
5349.00,1.64
5348.00,1.64
5347.00,1.64
5346.00,1.63
5345.00,1.63
5344.00,1.63
5343.00,1.63
5342.00,1.63
5341.00,1.63
5340.00,1.63
5339.00,1.63
5338.00,1.62
5337.00,1.62
5336.00,1.62
5335.00,1.62
5334.00,1.62
5333.00,1.61
5332.00,1.61
5331.00,1.60
5330.00,1.60
5329.00,1.59
5328.00,1.58
5327.00,1.58
5326.00,1.57
5325.00,1.56
5324.00,1.55
5323.00,1.54
5322.00,1.53
5321.00,1.52
5320.00,1.52
5319.00,1.51
5318.00,1.50
5317.00,1.49
5316.00,1.48
5315.00,1.47
5314.00,1.46
5313.00,1.46
5312.00,1.45
5311.00,1.44
5310.00,1.43
5309.00,1.42
5308.00,1.42
5307.00,1.41
5306.00,1.40
5305.00,1.40
5304.00,1.39
5303.00,1.38
5302.00,1.38
5301.00,1.37
5300.00,1.37
5299.00,1.36
5298.00,1.36
5297.00,1.35
5296.00,1.35
5295.00,1.34
5294.00,1.34
5293.00,1.33
5292.00,1.33
5291.00,1.32
5290.00,1.32
5289.00,1.31
5288.00,1.31
5287.00,1.30
5286.00,1.29
5285.00,1.29
5284.00,1.28
5283.00,1.27
5282.00,1.27
5281.00,1.26
5280.00,1.25
5279.00,1.25
5278.00,1.24
5277.00,1.23
5276.00,1.22
5275.00,1.21
5274.00,1.21
5273.00,1.20
5272.00,1.19
5271.00,1.19
5270.00,1.18
5269.00,1.17
5268.00,1.17
5267.00,1.16
5266.00,1.16
5265.00,1.15
5264.00,1.15
5263.00,1.14
5262.00,1.14
5261.00,1.13
5260.00,1.13
5259.00,1.12
5258.00,1.12
5257.00,1.12
5256.00,1.12
5255.00,1.11
5254.00,1.11
5253.00,1.11
5252.00,1.11
5251.00,1.11
5250.00,1.11
5249.00,1.11
5248.00,1.11
5247.00,1.11
5246.00,1.11
5245.00,1.11
5244.00,1.11
5243.00,1.10
5242.00,1.10
5241.00,1.10
5240.00,1.10
5239.00,1.10
5238.00,1.10
5237.00,1.09
5236.00,1.09
5235.00,1.08
5234.00,1.08
5233.00,1.08
5232.00,1.07
5231.00,1.07
5230.00,1.07
5229.00,1.06
5228.00,1.06
5227.00,1.06
5226.00,1.05
5225.00,1.05
5224.00,1.05
5223.00,1.05
5222.00,1.05
5221.00,1.05
5220.00,1.05
5219.00,1.05
5218.00,1.05
5217.00,1.05
5216.00,1.06
5215.00,1.06
5214.00,1.06
5213.00,1.06
5212.00,1.06
5211.00,1.06
5210.00,1.06
5209.00,1.06
5208.00,1.06
5207.00,1.06
5206.00,1.06
5205.00,1.06
5204.00,1.06
5203.00,1.05
5202.00,1.05
5201.00,1.05
5200.00,1.05
5199.00,1.05
5198.00,1.05
5197.00,1.05
5196.00,1.05
5195.00,1.05
5194.00,1.05
5193.00,1.05
5192.00,1.05
5191.00,1.05
5190.00,1.04
5189.00,1.04
5188.00,1.04
5187.00,1.04
5186.00,1.04
5185.00,1.04
5184.00,1.03
5183.00,1.03
5182.00,1.03
5181.00,1.03
5180.00,1.02
5179.00,1.02
5178.00,1.02
5177.00,1.02
5176.00,1.02
5175.00,1.02
5174.00,1.02
5173.00,1.02
5172.00,1.02
5171.00,1.02
5170.00,1.02
5169.00,1.02
5168.00,1.02
5167.00,1.02
5166.00,1.02
5165.00,1.03
5164.00,1.03
5163.00,1.03
5162.00,1.03
5161.00,1.03
5160.00,1.04
5159.00,1.04
5158.00,1.04
5157.00,1.04
5156.00,1.04
5155.00,1.04
5154.00,1.04
5153.00,1.05
5152.00,1.05
5151.00,1.05
5150.00,1.05
5149.00,1.05
5148.00,1.05
5147.00,1.05
5146.00,1.05
5145.00,1.05
5144.00,1.05
5143.00,1.05
5142.00,1.05
5141.00,1.05
5140.00,1.05
5139.00,1.06
5138.00,1.06
5137.00,1.06
5136.00,1.06
5135.00,1.06
5134.00,1.06
5133.00,1.06
5132.00,1.07
5131.00,1.07
5130.00,1.07
5129.00,1.07
5128.00,1.07
5127.00,1.07
5126.00,1.07
5125.00,1.07
5124.00,1.08
5123.00,1.08
5122.00,1.08
5121.00,1.08
5120.00,1.08
5119.00,1.08
5118.00,1.08
5117.00,1.08
5116.00,1.08
5115.00,1.08
5114.00,1.08
5113.00,1.08
5112.00,1.08
5111.00,1.08
5110.00,1.08
5109.00,1.08
5108.00,1.08
5107.00,1.08
5106.00,1.08
5105.00,1.08
5104.00,1.08
5103.00,1.08
5102.00,1.09
5101.00,1.09
5100.00,1.09
5099.00,1.09
5098.00,1.09
5097.00,1.10
5096.00,1.10
5095.00,1.10
5094.00,1.10
5093.00,1.10
5092.00,1.11
5091.00,1.11
5090.00,1.11
5089.00,1.11
5088.00,1.11
5087.00,1.12
5086.00,1.12
5085.00,1.12
5084.00,1.12
5083.00,1.12
5082.00,1.12
5081.00,1.12
5080.00,1.12
5079.00,1.12
5078.00,1.12
5077.00,1.12
5076.00,1.12
5075.00,1.12
5074.00,1.13
5073.00,1.13
5072.00,1.13
5071.00,1.13
5070.00,1.13
5069.00,1.13
5068.00,1.13
5067.00,1.13
5066.00,1.14
5065.00,1.14
5064.00,1.14
5063.00,1.14
5062.00,1.15
5061.00,1.15
5060.00,1.15
5059.00,1.15
5058.00,1.15
5057.00,1.16
5056.00,1.16
5055.00,1.16
5054.00,1.16
5053.00,1.17
5052.00,1.17
5051.00,1.17
5050.00,1.17
5049.00,1.17
5048.00,1.18
5047.00,1.18
5046.00,1.18
5045.00,1.18
5044.00,1.18
5043.00,1.19
5042.00,1.19
5041.00,1.19
5040.00,1.19
5039.00,1.20
5038.00,1.20
5037.00,1.20
5036.00,1.20
5035.00,1.21
5034.00,1.21
5033.00,1.21
5032.00,1.21
5031.00,1.21
5030.00,1.21
5029.00,1.22
5028.00,1.22
5027.00,1.22
5026.00,1.22
5025.00,1.22
5024.00,1.22
5023.00,1.22
5022.00,1.22
5021.00,1.22
5020.00,1.22
5019.00,1.22
5018.00,1.22
5017.00,1.22
5016.00,1.23
5015.00,1.23
5014.00,1.23
5013.00,1.23
5012.00,1.23
5011.00,1.23
5010.00,1.23
5009.00,1.23
5008.00,1.23
5007.00,1.23
5006.00,1.23
5005.00,1.23
5004.00,1.23
5003.00,1.23
5002.00,1.24
5001.00,1.24
5000.00,1.24
4999.00,1.24
4998.00,1.25
4997.00,1.25
4996.00,1.25
4995.00,1.25
4994.00,1.25
4993.00,1.26
4992.00,1.26
4991.00,1.26
4990.00,1.26
4989.00,1.26
4988.00,1.27
4987.00,1.27
4986.00,1.27
4985.00,1.27
4984.00,1.27
4983.00,1.27
4982.00,1.28
4981.00,1.28
4980.00,1.28
4979.00,1.28
4978.00,1.28
4977.00,1.29
4976.00,1.29
4975.00,1.29
4974.00,1.29
4973.00,1.29
4972.00,1.30
4971.00,1.30
4970.00,1.30
4969.00,1.30
4968.00,1.30
4967.00,1.31
4966.00,1.31
4965.00,1.31
4964.00,1.32
4963.00,1.32
4962.00,1.32
4961.00,1.33
4960.00,1.33
4959.00,1.33
4958.00,1.34
4957.00,1.34
4956.00,1.34
4955.00,1.34
4954.00,1.35
4953.00,1.35
4952.00,1.35
4951.00,1.36
4950.00,1.36
4949.00,1.36
4948.00,1.36
4947.00,1.36
4946.00,1.36
4945.00,1.36
4944.00,1.37
4943.00,1.37
4942.00,1.37
4941.00,1.37
4940.00,1.38
4939.00,1.38
4938.00,1.38
4937.00,1.38
4936.00,1.38
4935.00,1.39
4934.00,1.39
4933.00,1.39
4932.00,1.40
4931.00,1.40
4930.00,1.40
4929.00,1.41
4928.00,1.41
4927.00,1.41
4926.00,1.41
4925.00,1.42
4924.00,1.42
4923.00,1.42
4922.00,1.42
4921.00,1.42
4920.00,1.43
4919.00,1.43
4918.00,1.43
4917.00,1.43
4916.00,1.43
4915.00,1.43
4914.00,1.43
4913.00,1.43
4912.00,1.43
4911.00,1.43
4910.00,1.44
4909.00,1.44
4908.00,1.44
4907.00,1.44
4906.00,1.44
4905.00,1.44
4904.00,1.44
4903.00,1.44
4902.00,1.44
4901.00,1.44
4900.00,1.44
4899.00,1.45
4898.00,1.45
4897.00,1.45
4896.00,1.45
4895.00,1.45
4894.00,1.45
4893.00,1.45
4892.00,1.45
4891.00,1.45
4890.00,1.45
4889.00,1.45
4888.00,1.45
4887.00,1.45
4886.00,1.45
4885.00,1.45
4884.00,1.45
4883.00,1.45
4882.00,1.45
4881.00,1.45
4880.00,1.45
4879.00,1.45
4878.00,1.45
4877.00,1.46
4876.00,1.46
4875.00,1.46
4874.00,1.46
4873.00,1.47
4872.00,1.47
4871.00,1.47
4870.00,1.48
4869.00,1.48
4868.00,1.48
4867.00,1.49
4866.00,1.49
4865.00,1.49
4864.00,1.50
4863.00,1.50
4862.00,1.50
4861.00,1.50
4860.00,1.50
4859.00,1.51
4858.00,1.51
4857.00,1.51
4856.00,1.51
4855.00,1.51
4854.00,1.51
4853.00,1.52
4852.00,1.52
4851.00,1.52
4850.00,1.52
4849.00,1.52
4848.00,1.53
4847.00,1.53
4846.00,1.53
4845.00,1.53
4844.00,1.53
4843.00,1.53
4842.00,1.54
4841.00,1.54
4840.00,1.54
4839.00,1.54
4838.00,1.54
4837.00,1.54
4836.00,1.54
4835.00,1.54
4834.00,1.54
4833.00,1.54
4832.00,1.54
4831.00,1.55
4830.00,1.55
4829.00,1.55
4828.00,1.55
4827.00,1.55
4826.00,1.55
4825.00,1.55
4824.00,1.56
4823.00,1.56
4822.00,1.56
4821.00,1.56
4820.00,1.56
4819.00,1.56
4818.00,1.56
4817.00,1.56
4816.00,1.56
4815.00,1.56
4814.00,1.56
4813.00,1.56
4812.00,1.56
4811.00,1.56
4810.00,1.56
4809.00,1.56
4808.00,1.56
4807.00,1.56
4806.00,1.56
4805.00,1.56
4804.00,1.56
4803.00,1.56
4802.00,1.56
4801.00,1.56
4800.00,1.56
4799.00,1.56
4798.00,1.56
4797.00,1.56
4796.00,1.57
4795.00,1.57
4794.00,1.57
4793.00,1.57
4792.00,1.57
4791.00,1.57
4790.00,1.57
4789.00,1.57
4788.00,1.58
4787.00,1.58
4786.00,1.58
4785.00,1.58
4784.00,1.58
4783.00,1.59
4782.00,1.59
4781.00,1.59
4780.00,1.60
4779.00,1.60
4778.00,1.60
4777.00,1.61
4776.00,1.61
4775.00,1.61
4774.00,1.62
4773.00,1.62
4772.00,1.63
4771.00,1.63
4770.00,1.63
4769.00,1.64
4768.00,1.64
4767.00,1.64
4766.00,1.64
4765.00,1.65
4764.00,1.65
4763.00,1.65
4762.00,1.65
4761.00,1.65
4760.00,1.65
4759.00,1.65
4758.00,1.66
4757.00,1.66
4756.00,1.66
4755.00,1.66
4754.00,1.66
4753.00,1.66
4752.00,1.66
4751.00,1.66
4750.00,1.66
4749.00,1.66
4748.00,1.66
4747.00,1.67
4746.00,1.67
4745.00,1.67
4744.00,1.67
4743.00,1.67
4742.00,1.67
4741.00,1.67
4740.00,1.68
4739.00,1.68
4738.00,1.68
4737.00,1.68
4736.00,1.68
4735.00,1.69
4734.00,1.69
4733.00,1.69
4732.00,1.70
4731.00,1.70
4730.00,1.70
4729.00,1.70
4728.00,1.70
4727.00,1.71
4726.00,1.71
4725.00,1.71
4724.00,1.71
4723.00,1.71
4722.00,1.71
4721.00,1.71
4720.00,1.71
4719.00,1.71
4718.00,1.71
4717.00,1.71
4716.00,1.70
4715.00,1.70
4714.00,1.70
4713.00,1.70
4712.00,1.70
4711.00,1.70
4710.00,1.70
4709.00,1.70
4708.00,1.70
4707.00,1.70
4706.00,1.70
4705.00,1.70
4704.00,1.70
4703.00,1.70
4702.00,1.70
4701.00,1.70
4700.00,1.70
4699.00,1.70
4698.00,1.70
4697.00,1.70
4696.00,1.71
4695.00,1.71
4694.00,1.71
4693.00,1.71
4692.00,1.72
4691.00,1.72
4690.00,1.72
4689.00,1.73
4688.00,1.73
4687.00,1.74
4686.00,1.74
4685.00,1.74
4684.00,1.75
4683.00,1.75
4682.00,1.75
4681.00,1.75
4680.00,1.76
4679.00,1.76
4678.00,1.76
4677.00,1.77
4676.00,1.77
4675.00,1.77
4674.00,1.77
4673.00,1.77
4672.00,1.78
4671.00,1.78
4670.00,1.78
4669.00,1.78
4668.00,1.78
4667.00,1.78
4666.00,1.78
4665.00,1.78
4664.00,1.78
4663.00,1.78
4662.00,1.78
4661.00,1.78
4660.00,1.78
4659.00,1.77
4658.00,1.77
4657.00,1.77
4656.00,1.77
4655.00,1.77
4654.00,1.76
4653.00,1.76
4652.00,1.76
4651.00,1.76
4650.00,1.75
4649.00,1.75
4648.00,1.75
4647.00,1.75
4646.00,1.75
4645.00,1.75
4644.00,1.75
4643.00,1.75
4642.00,1.75
4641.00,1.75
4640.00,1.76
4639.00,1.76
4638.00,1.76
4637.00,1.76
4636.00,1.76
4635.00,1.76
4634.00,1.77
4633.00,1.77
4632.00,1.77
4631.00,1.77
4630.00,1.77
4629.00,1.77
4628.00,1.77
4627.00,1.77
4626.00,1.77
4625.00,1.77
4624.00,1.77
4623.00,1.77
4622.00,1.77
4621.00,1.77
4620.00,1.77
4619.00,1.77
4618.00,1.77
4617.00,1.77
4616.00,1.77
4615.00,1.77
4614.00,1.77
4613.00,1.77
4612.00,1.77
4611.00,1.77
4610.00,1.76
4609.00,1.76
4608.00,1.76
4607.00,1.76
4606.00,1.76
4605.00,1.76
4604.00,1.75
4603.00,1.75
4602.00,1.75
4601.00,1.75
4600.00,1.75
4599.00,1.75
4598.00,1.75
4597.00,1.75
4596.00,1.75
4595.00,1.75
4594.00,1.75
4593.00,1.75
4592.00,1.75
4591.00,1.75
4590.00,1.75
4589.00,1.75
4588.00,1.75
4587.00,1.75
4586.00,1.75
4585.00,1.75
4584.00,1.75
4583.00,1.74
4582.00,1.74
4581.00,1.74
4580.00,1.74
4579.00,1.74
4578.00,1.74
4577.00,1.74
4576.00,1.74
4575.00,1.73
4574.00,1.73
4573.00,1.73
4572.00,1.73
4571.00,1.73
4570.00,1.73
4569.00,1.73
4568.00,1.73
4567.00,1.73
4566.00,1.73
4565.00,1.73
4564.00,1.73
4563.00,1.73
4562.00,1.73
4561.00,1.72
4560.00,1.72
4559.00,1.72
4558.00,1.72
4557.00,1.72
4556.00,1.72
4555.00,1.72
4554.00,1.72
4553.00,1.72
4552.00,1.73
4551.00,1.73
4550.00,1.73
4549.00,1.73
4548.00,1.73
4547.00,1.73
4546.00,1.73
4545.00,1.73
4544.00,1.73
4543.00,1.74
4542.00,1.74
4541.00,1.74
4540.00,1.74
4539.00,1.74
4538.00,1.74
4537.00,1.73
4536.00,1.73
4535.00,1.73
4534.00,1.73
4533.00,1.73
4532.00,1.73
4531.00,1.73
4530.00,1.73
4529.00,1.73
4528.00,1.72
4527.00,1.72
4526.00,1.72
4525.00,1.72
4524.00,1.72
4523.00,1.72
4522.00,1.72
4521.00,1.72
4520.00,1.72
4519.00,1.72
4518.00,1.72
4517.00,1.72
4516.00,1.72
4515.00,1.72
4514.00,1.72
4513.00,1.72
4512.00,1.72
4511.00,1.72
4510.00,1.72
4509.00,1.72
4508.00,1.72
4507.00,1.72
4506.00,1.72
4505.00,1.72
4504.00,1.72
4503.00,1.72
4502.00,1.72
4501.00,1.73
4500.00,1.73
4499.00,1.73
4498.00,1.73
4497.00,1.73
4496.00,1.74
4495.00,1.74
4494.00,1.74
4493.00,1.74
4492.00,1.74
4491.00,1.74
4490.00,1.74
4489.00,1.75
4488.00,1.75
4487.00,1.75
4486.00,1.75
4485.00,1.75
4484.00,1.75
4483.00,1.75
4482.00,1.75
4481.00,1.75
4480.00,1.75
4479.00,1.75
4478.00,1.75
4477.00,1.75
4476.00,1.75
4475.00,1.75
4474.00,1.75
4473.00,1.75
4472.00,1.75
4471.00,1.75
4470.00,1.75
4469.00,1.75
4468.00,1.75
4467.00,1.75
4466.00,1.75
4465.00,1.75
4464.00,1.76
4463.00,1.76
4462.00,1.75
4461.00,1.75
4460.00,1.75
4459.00,1.75
4458.00,1.75
4457.00,1.75
4456.00,1.75
4455.00,1.75
4454.00,1.75
4453.00,1.75
4452.00,1.75
4451.00,1.75
4450.00,1.75
4449.00,1.75
4448.00,1.74
4447.00,1.74
4446.00,1.74
4445.00,1.74
4444.00,1.74
4443.00,1.74
4442.00,1.74
4441.00,1.74
4440.00,1.74
4439.00,1.74
4438.00,1.73
4437.00,1.73
4436.00,1.73
4435.00,1.73
4434.00,1.73
4433.00,1.73
4432.00,1.73
4431.00,1.73
4430.00,1.73
4429.00,1.73
4428.00,1.73
4427.00,1.73
4426.00,1.73
4425.00,1.73
4424.00,1.73
4423.00,1.73
4422.00,1.73
4421.00,1.73
4420.00,1.73
4419.00,1.73
4418.00,1.73
4417.00,1.73
4416.00,1.73
4415.00,1.73
4414.00,1.73
4413.00,1.72
4412.00,1.72
4411.00,1.72
4410.00,1.72
4409.00,1.72
4408.00,1.71
4407.00,1.71
4406.00,1.71
4405.00,1.71
4404.00,1.71
4403.00,1.71
4402.00,1.71
4401.00,1.71
4400.00,1.72
4399.00,1.72
4398.00,1.72
4397.00,1.72
4396.00,1.73
4395.00,1.73
4394.00,1.73
4393.00,1.74
4392.00,1.74
4391.00,1.74
4390.00,1.75
4389.00,1.75
4388.00,1.75
4387.00,1.76
4386.00,1.76
4385.00,1.76
4384.00,1.76
4383.00,1.77
4382.00,1.77
4381.00,1.77
4380.00,1.77
4379.00,1.77
4378.00,1.77
4377.00,1.77
4376.00,1.77
4375.00,1.76
4374.00,1.76
4373.00,1.76
4372.00,1.76
4371.00,1.76
4370.00,1.75
4369.00,1.75
4368.00,1.75
4367.00,1.75
4366.00,1.75
4365.00,1.75
4364.00,1.74
4363.00,1.74
4362.00,1.74
4361.00,1.74
4360.00,1.74
4359.00,1.74
4358.00,1.73
4357.00,1.73
4356.00,1.73
4355.00,1.73
4354.00,1.73
4353.00,1.73
4352.00,1.73
4351.00,1.73
4350.00,1.73
4349.00,1.73
4348.00,1.73
4347.00,1.74
4346.00,1.74
4345.00,1.74
4344.00,1.74
4343.00,1.75
4342.00,1.75
4341.00,1.76
4340.00,1.76
4339.00,1.76
4338.00,1.76
4337.00,1.77
4336.00,1.77
4335.00,1.77
4334.00,1.77
4333.00,1.77
4332.00,1.77
4331.00,1.78
4330.00,1.78
4329.00,1.78
4328.00,1.78
4327.00,1.78
4326.00,1.78
4325.00,1.78
4324.00,1.78
4323.00,1.78
4322.00,1.78
4321.00,1.78
4320.00,1.78
4319.00,1.78
4318.00,1.78
4317.00,1.78
4316.00,1.78
4315.00,1.78
4314.00,1.78
4313.00,1.78
4312.00,1.78
4311.00,1.78
4310.00,1.78
4309.00,1.78
4308.00,1.77
4307.00,1.77
4306.00,1.77
4305.00,1.77
4304.00,1.77
4303.00,1.77
4302.00,1.76
4301.00,1.76
4300.00,1.76
4299.00,1.76
4298.00,1.76
4297.00,1.76
4296.00,1.75
4295.00,1.75
4294.00,1.75
4293.00,1.75
4292.00,1.75
4291.00,1.76
4290.00,1.76
4289.00,1.76
4288.00,1.76
4287.00,1.76
4286.00,1.76
4285.00,1.76
4284.00,1.76
4283.00,1.77
4282.00,1.77
4281.00,1.77
4280.00,1.77
4279.00,1.77
4278.00,1.77
4277.00,1.77
4276.00,1.77
4275.00,1.76
4274.00,1.76
4273.00,1.76
4272.00,1.76
4271.00,1.76
4270.00,1.75
4269.00,1.75
4268.00,1.75
4267.00,1.74
4266.00,1.74
4265.00,1.74
4264.00,1.73
4263.00,1.73
4262.00,1.73
4261.00,1.73
4260.00,1.73
4259.00,1.73
4258.00,1.73
4257.00,1.73
4256.00,1.73
4255.00,1.73
4254.00,1.73
4253.00,1.73
4252.00,1.73
4251.00,1.74
4250.00,1.74
4249.00,1.74
4248.00,1.74
4247.00,1.74
4246.00,1.74
4245.00,1.74
4244.00,1.74
4243.00,1.74
4242.00,1.74
4241.00,1.74
4240.00,1.74
4239.00,1.74
4238.00,1.75
4237.00,1.75
4236.00,1.75
4235.00,1.75
4234.00,1.75
4233.00,1.75
4232.00,1.75
4231.00,1.75
4230.00,1.75
4229.00,1.75
4228.00,1.75
4227.00,1.75
4226.00,1.74
4225.00,1.74
4224.00,1.73
4223.00,1.73
4222.00,1.73
4221.00,1.72
4220.00,1.72
4219.00,1.72
4218.00,1.71
4217.00,1.71
4216.00,1.71
4215.00,1.71
4214.00,1.70
4213.00,1.70
4212.00,1.70
4211.00,1.71
4210.00,1.71
4209.00,1.71
4208.00,1.71
4207.00,1.71
4206.00,1.71
4205.00,1.71
4204.00,1.71
4203.00,1.72
4202.00,1.72
4201.00,1.72
4200.00,1.72
4199.00,1.73
4198.00,1.73
4197.00,1.73
4196.00,1.73
4195.00,1.74
4194.00,1.74
4193.00,1.74
4192.00,1.74
4191.00,1.74
4190.00,1.74
4189.00,1.75
4188.00,1.75
4187.00,1.75
4186.00,1.75
4185.00,1.75
4184.00,1.75
4183.00,1.75
4182.00,1.74
4181.00,1.74
4180.00,1.74
4179.00,1.74
4178.00,1.74
4177.00,1.73
4176.00,1.73
4175.00,1.73
4174.00,1.73
4173.00,1.73
4172.00,1.72
4171.00,1.72
4170.00,1.72
4169.00,1.72
4168.00,1.72
4167.00,1.72
4166.00,1.72
4165.00,1.72
4164.00,1.71
4163.00,1.71
4162.00,1.71
4161.00,1.71
4160.00,1.71
4159.00,1.71
4158.00,1.71
4157.00,1.70
4156.00,1.70
4155.00,1.70
4154.00,1.70
4153.00,1.69
4152.00,1.69
4151.00,1.69
4150.00,1.68
4149.00,1.68
4148.00,1.68
4147.00,1.67
4146.00,1.67
4145.00,1.67
4144.00,1.66
4143.00,1.66
4142.00,1.66
4141.00,1.66
4140.00,1.66
4139.00,1.66
4138.00,1.67
4137.00,1.67
4136.00,1.67
4135.00,1.67
4134.00,1.68
4133.00,1.68
4132.00,1.68
4131.00,1.69
4130.00,1.69
4129.00,1.70
4128.00,1.70
4127.00,1.70
4126.00,1.71
4125.00,1.71
4124.00,1.71
4123.00,1.71
4122.00,1.71
4121.00,1.71
4120.00,1.71
4119.00,1.71
4118.00,1.71
4117.00,1.71
4116.00,1.71
4115.00,1.71
4114.00,1.71
4113.00,1.71
4112.00,1.72
4111.00,1.72
4110.00,1.72
4109.00,1.72
4108.00,1.73
4107.00,1.73
4106.00,1.73
4105.00,1.74
4104.00,1.74
4103.00,1.74
4102.00,1.74
4101.00,1.74
4100.00,1.74
4099.00,1.74
4098.00,1.74
4097.00,1.73
4096.00,1.73
4095.00,1.73
4094.00,1.72
4093.00,1.72
4092.00,1.71
4091.00,1.70
4090.00,1.70
4089.00,1.69
4088.00,1.69
4087.00,1.68
4086.00,1.68
4085.00,1.67
4084.00,1.67
4083.00,1.66
4082.00,1.66
4081.00,1.66
4080.00,1.66
4079.00,1.66
4078.00,1.67
4077.00,1.67
4076.00,1.67
4075.00,1.68
4074.00,1.68
4073.00,1.69
4072.00,1.70
4071.00,1.70
4070.00,1.71
4069.00,1.71
4068.00,1.72
4067.00,1.72
4066.00,1.73
4065.00,1.73
4064.00,1.74
4063.00,1.74
4062.00,1.74
4061.00,1.74
4060.00,1.74
4059.00,1.74
4058.00,1.74
4057.00,1.74
4056.00,1.74
4055.00,1.74
4054.00,1.74
4053.00,1.74
4052.00,1.75
4051.00,1.75
4050.00,1.75
4049.00,1.75
4048.00,1.75
4047.00,1.75
4046.00,1.75
4045.00,1.75
4044.00,1.76
4043.00,1.76
4042.00,1.76
4041.00,1.76
4040.00,1.76
4039.00,1.76
4038.00,1.76
4037.00,1.76
4036.00,1.76
4035.00,1.75
4034.00,1.75
4033.00,1.75
4032.00,1.75
4031.00,1.75
4030.00,1.75
4029.00,1.75
4028.00,1.75
4027.00,1.75
4026.00,1.75
4025.00,1.75
4024.00,1.75
4023.00,1.75
4022.00,1.75
4021.00,1.75
4020.00,1.75
4019.00,1.76
4018.00,1.76
4017.00,1.76
4016.00,1.76
4015.00,1.76
4014.00,1.76
4013.00,1.76
4012.00,1.75
4011.00,1.75
4010.00,1.75
4009.00,1.74
4008.00,1.74
4007.00,1.73
4006.00,1.73
4005.00,1.72
4004.00,1.71
4003.00,1.70
4002.00,1.69
4001.00,1.68
4000.00,1.67
