创建为新数据集,样品 639 用户 Administrator 日期 星期四, 七月 25 2019
cm-1,%T
10000.00,1.43
9999.00,1.43
9998.00,1.42
9997.00,1.42
9996.00,1.42
9995.00,1.41
9994.00,1.40
9993.00,1.40
9992.00,1.39
9991.00,1.38
9990.00,1.37
9989.00,1.36
9988.00,1.35
9987.00,1.33
9986.00,1.32
9985.00,1.31
9984.00,1.30
9983.00,1.29
9982.00,1.28
9981.00,1.28
9980.00,1.27
9979.00,1.27
9978.00,1.27
9977.00,1.27
9976.00,1.28
9975.00,1.28
9974.00,1.28
9973.00,1.29
9972.00,1.29
9971.00,1.30
9970.00,1.30
9969.00,1.31
9968.00,1.32
9967.00,1.33
9966.00,1.33
9965.00,1.34
9964.00,1.35
9963.00,1.35
9962.00,1.36
9961.00,1.36
9960.00,1.36
9959.00,1.37
9958.00,1.37
9957.00,1.38
9956.00,1.38
9955.00,1.39
9954.00,1.39
9953.00,1.39
9952.00,1.40
9951.00,1.40
9950.00,1.40
9949.00,1.40
9948.00,1.40
9947.00,1.40
9946.00,1.39
9945.00,1.39
9944.00,1.38
9943.00,1.38
9942.00,1.38
9941.00,1.37
9940.00,1.37
9939.00,1.36
9938.00,1.36
9937.00,1.35
9936.00,1.35
9935.00,1.34
9934.00,1.33
9933.00,1.33
9932.00,1.32
9931.00,1.31
9930.00,1.31
9929.00,1.30
9928.00,1.30
9927.00,1.29
9926.00,1.28
9925.00,1.28
9924.00,1.27
9923.00,1.26
9922.00,1.25
9921.00,1.25
9920.00,1.24
9919.00,1.24
9918.00,1.23
9917.00,1.23
9916.00,1.23
9915.00,1.23
9914.00,1.23
9913.00,1.23
9912.00,1.23
9911.00,1.23
9910.00,1.23
9909.00,1.23
9908.00,1.24
9907.00,1.24
9906.00,1.23
9905.00,1.23
9904.00,1.23
9903.00,1.23
9902.00,1.23
9901.00,1.23
9900.00,1.22
9899.00,1.22
9898.00,1.22
9897.00,1.22
9896.00,1.22
9895.00,1.22
9894.00,1.22
9893.00,1.22
9892.00,1.22
9891.00,1.23
9890.00,1.23
9889.00,1.24
9888.00,1.25
9887.00,1.26
9886.00,1.27
9885.00,1.28
9884.00,1.29
9883.00,1.30
9882.00,1.31
9881.00,1.32
9880.00,1.33
9879.00,1.34
9878.00,1.34
9877.00,1.35
9876.00,1.35
9875.00,1.35
9874.00,1.35
9873.00,1.35
9872.00,1.34
9871.00,1.34
9870.00,1.33
9869.00,1.32
9868.00,1.31
9867.00,1.30
9866.00,1.29
9865.00,1.28
9864.00,1.26
9863.00,1.25
9862.00,1.24
9861.00,1.23
9860.00,1.22
9859.00,1.21
9858.00,1.20
9857.00,1.19
9856.00,1.19
9855.00,1.18
9854.00,1.18
9853.00,1.18
9852.00,1.17
9851.00,1.17
9850.00,1.18
9849.00,1.18
9848.00,1.19
9847.00,1.19
9846.00,1.20
9845.00,1.21
9844.00,1.22
9843.00,1.23
9842.00,1.24
9841.00,1.24
9840.00,1.25
9839.00,1.26
9838.00,1.27
9837.00,1.28
9836.00,1.29
9835.00,1.30
9834.00,1.31
9833.00,1.32
9832.00,1.33
9831.00,1.34
9830.00,1.35
9829.00,1.36
9828.00,1.36
9827.00,1.37
9826.00,1.37
9825.00,1.38
9824.00,1.38
9823.00,1.38
9822.00,1.39
9821.00,1.39
9820.00,1.38
9819.00,1.38
9818.00,1.38
9817.00,1.37
9816.00,1.36
9815.00,1.35
9814.00,1.34
9813.00,1.33
9812.00,1.32
9811.00,1.31
9810.00,1.29
9809.00,1.28
9808.00,1.26
9807.00,1.25
9806.00,1.24
9805.00,1.23
9804.00,1.22
9803.00,1.21
9802.00,1.20
9801.00,1.20
9800.00,1.19
9799.00,1.19
9798.00,1.19
9797.00,1.19
9796.00,1.19
9795.00,1.19
9794.00,1.19
9793.00,1.19
9792.00,1.19
9791.00,1.20
9790.00,1.20
9789.00,1.20
9788.00,1.20
9787.00,1.20
9786.00,1.20
9785.00,1.20
9784.00,1.20
9783.00,1.19
9782.00,1.19
9781.00,1.18
9780.00,1.17
9779.00,1.17
9778.00,1.16
9777.00,1.15
9776.00,1.14
9775.00,1.13
9774.00,1.13
9773.00,1.12
9772.00,1.12
9771.00,1.11
9770.00,1.11
9769.00,1.11
9768.00,1.12
9767.00,1.12
9766.00,1.13
9765.00,1.14
9764.00,1.15
9763.00,1.16
9762.00,1.18
9761.00,1.19
9760.00,1.21
9759.00,1.23
9758.00,1.25
9757.00,1.26
9756.00,1.28
9755.00,1.29
9754.00,1.31
9753.00,1.32
9752.00,1.32
9751.00,1.33
9750.00,1.34
9749.00,1.34
9748.00,1.34
9747.00,1.34
9746.00,1.34
9745.00,1.34
9744.00,1.33
9743.00,1.33
9742.00,1.32
9741.00,1.32
9740.00,1.31
9739.00,1.30
9738.00,1.30
9737.00,1.29
9736.00,1.29
9735.00,1.28
9734.00,1.28
9733.00,1.27
9732.00,1.27
9731.00,1.26
9730.00,1.26
9729.00,1.25
9728.00,1.25
9727.00,1.24
9726.00,1.24
9725.00,1.23
9724.00,1.23
9723.00,1.23
9722.00,1.22
9721.00,1.22
9720.00,1.22
9719.00,1.21
9718.00,1.21
9717.00,1.20
9716.00,1.20
9715.00,1.19
9714.00,1.19
9713.00,1.18
9712.00,1.18
9711.00,1.18
9710.00,1.17
9709.00,1.17
9708.00,1.16
9707.00,1.16
9706.00,1.16
9705.00,1.15
9704.00,1.15
9703.00,1.15
9702.00,1.14
9701.00,1.14
9700.00,1.14
9699.00,1.14
9698.00,1.14
9697.00,1.14
9696.00,1.14
9695.00,1.14
9694.00,1.14
9693.00,1.14
9692.00,1.15
9691.00,1.15
9690.00,1.15
9689.00,1.16
9688.00,1.17
9687.00,1.18
9686.00,1.19
9685.00,1.20
9684.00,1.21
9683.00,1.22
9682.00,1.23
9681.00,1.25
9680.00,1.26
9679.00,1.28
9678.00,1.29
9677.00,1.30
9676.00,1.31
9675.00,1.32
9674.00,1.32
9673.00,1.33
9672.00,1.33
9671.00,1.33
9670.00,1.33
9669.00,1.33
9668.00,1.33
9667.00,1.32
9666.00,1.32
9665.00,1.31
9664.00,1.30
9663.00,1.30
9662.00,1.29
9661.00,1.29
9660.00,1.28
9659.00,1.28
9658.00,1.28
9657.00,1.28
9656.00,1.28
9655.00,1.28
9654.00,1.29
9653.00,1.29
9652.00,1.29
9651.00,1.28
9650.00,1.28
9649.00,1.28
9648.00,1.28
9647.00,1.28
9646.00,1.27
9645.00,1.27
9644.00,1.27
9643.00,1.26
9642.00,1.26
9641.00,1.25
9640.00,1.25
9639.00,1.24
9638.00,1.24
9637.00,1.23
9636.00,1.23
9635.00,1.23
9634.00,1.23
9633.00,1.23
9632.00,1.23
9631.00,1.23
9630.00,1.23
9629.00,1.23
9628.00,1.23
9627.00,1.23
9626.00,1.23
9625.00,1.23
9624.00,1.23
9623.00,1.23
9622.00,1.23
9621.00,1.24
9620.00,1.24
9619.00,1.24
9618.00,1.25
9617.00,1.25
9616.00,1.26
9615.00,1.27
9614.00,1.28
9613.00,1.29
9612.00,1.30
9611.00,1.31
9610.00,1.32
9609.00,1.33
9608.00,1.35
9607.00,1.36
9606.00,1.37
9605.00,1.38
9604.00,1.38
9603.00,1.39
9602.00,1.40
9601.00,1.40
9600.00,1.41
9599.00,1.41
9598.00,1.41
9597.00,1.41
9596.00,1.41
9595.00,1.40
9594.00,1.40
9593.00,1.39
9592.00,1.38
9591.00,1.38
9590.00,1.37
9589.00,1.36
9588.00,1.35
9587.00,1.34
9586.00,1.33
9585.00,1.32
9584.00,1.31
9583.00,1.31
9582.00,1.30
9581.00,1.29
9580.00,1.28
9579.00,1.28
9578.00,1.28
9577.00,1.27
9576.00,1.27
9575.00,1.27
9574.00,1.27
9573.00,1.27
9572.00,1.26
9571.00,1.26
9570.00,1.26
9569.00,1.26
9568.00,1.25
9567.00,1.25
9566.00,1.25
9565.00,1.25
9564.00,1.24
9563.00,1.24
9562.00,1.24
9561.00,1.24
9560.00,1.25
9559.00,1.25
9558.00,1.26
9557.00,1.26
9556.00,1.27
9555.00,1.28
9554.00,1.29
9553.00,1.30
9552.00,1.31
9551.00,1.32
9550.00,1.33
9549.00,1.35
9548.00,1.36
9547.00,1.37
9546.00,1.37
9545.00,1.38
9544.00,1.38
9543.00,1.38
9542.00,1.38
9541.00,1.38
9540.00,1.37
9539.00,1.37
9538.00,1.36
9537.00,1.35
9536.00,1.35
9535.00,1.34
9534.00,1.33
9533.00,1.32
9532.00,1.31
9531.00,1.30
9530.00,1.29
9529.00,1.28
9528.00,1.27
9527.00,1.27
9526.00,1.26
9525.00,1.26
9524.00,1.25
9523.00,1.25
9522.00,1.25
9521.00,1.25
9520.00,1.25
9519.00,1.25
9518.00,1.26
9517.00,1.26
9516.00,1.27
9515.00,1.27
9514.00,1.28
9513.00,1.28
9512.00,1.29
9511.00,1.30
9510.00,1.30
9509.00,1.31
9508.00,1.31
9507.00,1.32
9506.00,1.32
9505.00,1.32
9504.00,1.32
9503.00,1.33
9502.00,1.33
9501.00,1.33
9500.00,1.34
9499.00,1.34
9498.00,1.34
9497.00,1.34
9496.00,1.34
9495.00,1.35
9494.00,1.35
9493.00,1.35
9492.00,1.35
9491.00,1.34
9490.00,1.34
9489.00,1.34
9488.00,1.33
9487.00,1.32
9486.00,1.32
9485.00,1.31
9484.00,1.30
9483.00,1.28
9482.00,1.27
9481.00,1.26
9480.00,1.25
9479.00,1.24
9478.00,1.22
9477.00,1.21
9476.00,1.21
9475.00,1.20
9474.00,1.19
9473.00,1.19
9472.00,1.19
9471.00,1.19
9470.00,1.19
9469.00,1.20
9468.00,1.20
9467.00,1.21
9466.00,1.21
9465.00,1.22
9464.00,1.23
9463.00,1.23
9462.00,1.23
9461.00,1.23
9460.00,1.24
9459.00,1.24
9458.00,1.24
9457.00,1.24
9456.00,1.23
9455.00,1.23
9454.00,1.22
9453.00,1.22
9452.00,1.21
9451.00,1.20
9450.00,1.20
9449.00,1.19
9448.00,1.18
9447.00,1.18
9446.00,1.17
9445.00,1.17
9444.00,1.17
9443.00,1.16
9442.00,1.16
9441.00,1.16
9440.00,1.16
9439.00,1.16
9438.00,1.17
9437.00,1.17
9436.00,1.17
9435.00,1.18
9434.00,1.18
9433.00,1.19
9432.00,1.20
9431.00,1.21
9430.00,1.22
9429.00,1.22
9428.00,1.23
9427.00,1.23
9426.00,1.24
9425.00,1.24
9424.00,1.25
9423.00,1.25
9422.00,1.25
9421.00,1.26
9420.00,1.26
9419.00,1.26
9418.00,1.26
9417.00,1.25
9416.00,1.25
9415.00,1.25
9414.00,1.24
9413.00,1.23
9412.00,1.23
9411.00,1.22
9410.00,1.21
9409.00,1.20
9408.00,1.19
9407.00,1.19
9406.00,1.18
9405.00,1.17
9404.00,1.17
9403.00,1.16
9402.00,1.16
9401.00,1.15
9400.00,1.15
9399.00,1.14
9398.00,1.14
9397.00,1.14
9396.00,1.14
9395.00,1.14
9394.00,1.14
9393.00,1.15
9392.00,1.15
9391.00,1.16
9390.00,1.16
9389.00,1.17
9388.00,1.17
9387.00,1.18
9386.00,1.18
9385.00,1.19
9384.00,1.19
9383.00,1.20
9382.00,1.20
9381.00,1.21
9380.00,1.21
9379.00,1.22
9378.00,1.23
9377.00,1.23
9376.00,1.24
9375.00,1.24
9374.00,1.25
9373.00,1.25
9372.00,1.25
9371.00,1.26
9370.00,1.27
9369.00,1.27
9368.00,1.28
9367.00,1.28
9366.00,1.28
9365.00,1.29
9364.00,1.29
9363.00,1.29
9362.00,1.29
9361.00,1.29
9360.00,1.29
9359.00,1.29
9358.00,1.30
9357.00,1.30
9356.00,1.30
9355.00,1.30
9354.00,1.31
9353.00,1.31
9352.00,1.31
9351.00,1.31
9350.00,1.32
9349.00,1.32
9348.00,1.32
9347.00,1.33
9346.00,1.33
9345.00,1.33
9344.00,1.34
9343.00,1.34
9342.00,1.34
9341.00,1.34
9340.00,1.34
9339.00,1.34
9338.00,1.34
9337.00,1.33
9336.00,1.33
9335.00,1.33
9334.00,1.32
9333.00,1.32
9332.00,1.32
9331.00,1.31
9330.00,1.31
9329.00,1.30
9328.00,1.29
9327.00,1.29
9326.00,1.28
9325.00,1.27
9324.00,1.26
9323.00,1.26
9322.00,1.25
9321.00,1.25
9320.00,1.24
9319.00,1.24
9318.00,1.23
9317.00,1.23
9316.00,1.22
9315.00,1.22
9314.00,1.22
9313.00,1.22
9312.00,1.21
9311.00,1.21
9310.00,1.22
9309.00,1.22
9308.00,1.22
9307.00,1.22
9306.00,1.23
9305.00,1.23
9304.00,1.23
9303.00,1.24
9302.00,1.24
9301.00,1.24
9300.00,1.25
9299.00,1.25
9298.00,1.25
9297.00,1.26
9296.00,1.26
9295.00,1.26
9294.00,1.26
9293.00,1.26
9292.00,1.26
9291.00,1.26
9290.00,1.26
9289.00,1.26
9288.00,1.26
9287.00,1.25
9286.00,1.25
9285.00,1.25
9284.00,1.25
9283.00,1.24
9282.00,1.24
9281.00,1.24
9280.00,1.24
9279.00,1.24
9278.00,1.25
9277.00,1.25
9276.00,1.25
9275.00,1.25
9274.00,1.25
9273.00,1.25
9272.00,1.25
9271.00,1.25
9270.00,1.25
9269.00,1.25
9268.00,1.25
9267.00,1.25
9266.00,1.25
9265.00,1.25
9264.00,1.25
9263.00,1.25
9262.00,1.25
9261.00,1.25
9260.00,1.25
9259.00,1.25
9258.00,1.25
9257.00,1.25
9256.00,1.25
9255.00,1.25
9254.00,1.25
9253.00,1.26
9252.00,1.26
9251.00,1.26
9250.00,1.26
9249.00,1.27
9248.00,1.27
9247.00,1.27
9246.00,1.27
9245.00,1.27
9244.00,1.27
9243.00,1.27
9242.00,1.27
9241.00,1.27
9240.00,1.27
9239.00,1.27
9238.00,1.27
9237.00,1.27
9236.00,1.27
9235.00,1.27
9234.00,1.27
9233.00,1.27
9232.00,1.27
9231.00,1.27
9230.00,1.27
9229.00,1.27
9228.00,1.27
9227.00,1.27
9226.00,1.26
9225.00,1.26
9224.00,1.25
9223.00,1.24
9222.00,1.24
9221.00,1.23
9220.00,1.22
9219.00,1.21
9218.00,1.20
9217.00,1.19
9216.00,1.18
9215.00,1.17
9214.00,1.16
9213.00,1.16
9212.00,1.15
9211.00,1.14
9210.00,1.14
9209.00,1.14
9208.00,1.13
9207.00,1.14
9206.00,1.14
9205.00,1.14
9204.00,1.15
9203.00,1.16
9202.00,1.16
9201.00,1.17
9200.00,1.18
9199.00,1.18
9198.00,1.19
9197.00,1.20
9196.00,1.20
9195.00,1.20
9194.00,1.21
9193.00,1.21
9192.00,1.21
9191.00,1.21
9190.00,1.21
9189.00,1.21
9188.00,1.21
9187.00,1.20
9186.00,1.20
9185.00,1.20
9184.00,1.19
9183.00,1.19
9182.00,1.19
9181.00,1.19
9180.00,1.19
9179.00,1.20
9178.00,1.20
9177.00,1.21
9176.00,1.22
9175.00,1.23
9174.00,1.24
9173.00,1.25
9172.00,1.26
9171.00,1.27
9170.00,1.28
9169.00,1.29
9168.00,1.29
9167.00,1.30
9166.00,1.31
9165.00,1.32
9164.00,1.33
9163.00,1.34
9162.00,1.35
9161.00,1.36
9160.00,1.37
9159.00,1.37
9158.00,1.37
9157.00,1.38
9156.00,1.38
9155.00,1.39
9154.00,1.39
9153.00,1.39
9152.00,1.40
9151.00,1.40
9150.00,1.41
9149.00,1.41
9148.00,1.42
9147.00,1.42
9146.00,1.43
9145.00,1.43
9144.00,1.44
9143.00,1.44
9142.00,1.44
9141.00,1.45
9140.00,1.45
9139.00,1.46
9138.00,1.46
9137.00,1.46
9136.00,1.46
9135.00,1.46
9134.00,1.45
9133.00,1.44
9132.00,1.43
9131.00,1.42
9130.00,1.41
9129.00,1.39
9128.00,1.37
9127.00,1.36
9126.00,1.34
9125.00,1.32
9124.00,1.30
9123.00,1.28
9122.00,1.26
9121.00,1.25
9120.00,1.24
9119.00,1.23
9118.00,1.22
9117.00,1.21
9116.00,1.21
9115.00,1.21
9114.00,1.21
9113.00,1.22
9112.00,1.23
9111.00,1.24
9110.00,1.25
9109.00,1.26
9108.00,1.27
9107.00,1.29
9106.00,1.30
9105.00,1.31
9104.00,1.32
9103.00,1.33
9102.00,1.34
9101.00,1.35
9100.00,1.35
9099.00,1.36
9098.00,1.36
9097.00,1.36
9096.00,1.36
9095.00,1.35
9094.00,1.35
9093.00,1.34
9092.00,1.33
9091.00,1.32
9090.00,1.31
9089.00,1.30
9088.00,1.29
9087.00,1.27
9086.00,1.26
9085.00,1.24
9084.00,1.23
9083.00,1.21
9082.00,1.20
9081.00,1.18
9080.00,1.17
9079.00,1.15
9078.00,1.14
9077.00,1.13
9076.00,1.12
9075.00,1.12
9074.00,1.11
9073.00,1.10
9072.00,1.10
9071.00,1.09
9070.00,1.09
9069.00,1.09
9068.00,1.09
9067.00,1.09
9066.00,1.09
9065.00,1.10
9064.00,1.10
9063.00,1.10
9062.00,1.11
9061.00,1.11
9060.00,1.12
9059.00,1.12
9058.00,1.13
9057.00,1.13
9056.00,1.14
9055.00,1.14
9054.00,1.15
9053.00,1.16
9052.00,1.16
9051.00,1.17
9050.00,1.17
9049.00,1.17
9048.00,1.18
9047.00,1.18
9046.00,1.18
9045.00,1.19
9044.00,1.19
9043.00,1.19
9042.00,1.19
9041.00,1.19
9040.00,1.18
9039.00,1.18
9038.00,1.18
9037.00,1.17
9036.00,1.17
9035.00,1.16
9034.00,1.16
9033.00,1.15
9032.00,1.15
9031.00,1.14
9030.00,1.13
9029.00,1.13
9028.00,1.12
9027.00,1.12
9026.00,1.12
9025.00,1.12
9024.00,1.11
9023.00,1.12
9022.00,1.12
9021.00,1.12
9020.00,1.13
9019.00,1.13
9018.00,1.14
9017.00,1.14
9016.00,1.15
9015.00,1.16
9014.00,1.17
9013.00,1.17
9012.00,1.18
9011.00,1.19
9010.00,1.19
9009.00,1.20
9008.00,1.21
9007.00,1.21
9006.00,1.21
9005.00,1.22
9004.00,1.22
9003.00,1.22
9002.00,1.22
9001.00,1.22
9000.00,1.22
8999.00,1.22
8998.00,1.22
8997.00,1.22
8996.00,1.22
8995.00,1.23
8994.00,1.23
8993.00,1.23
8992.00,1.24
8991.00,1.24
8990.00,1.24
8989.00,1.25
8988.00,1.25
8987.00,1.25
8986.00,1.25
8985.00,1.25
8984.00,1.25
8983.00,1.25
8982.00,1.24
8981.00,1.24
8980.00,1.24
8979.00,1.23
8978.00,1.22
8977.00,1.22
8976.00,1.21
8975.00,1.21
8974.00,1.20
8973.00,1.20
8972.00,1.19
8971.00,1.19
8970.00,1.19
8969.00,1.19
8968.00,1.20
8967.00,1.20
8966.00,1.20
8965.00,1.21
8964.00,1.22
8963.00,1.22
8962.00,1.23
8961.00,1.23
8960.00,1.24
8959.00,1.25
8958.00,1.25
8957.00,1.26
8956.00,1.26
8955.00,1.27
8954.00,1.27
8953.00,1.28
8952.00,1.28
8951.00,1.29
8950.00,1.29
8949.00,1.29
8948.00,1.29
8947.00,1.29
8946.00,1.29
8945.00,1.29
8944.00,1.29
8943.00,1.29
8942.00,1.29
8941.00,1.29
8940.00,1.29
8939.00,1.29
8938.00,1.28
8937.00,1.28
8936.00,1.28
8935.00,1.27
8934.00,1.27
8933.00,1.26
8932.00,1.26
8931.00,1.26
8930.00,1.25
8929.00,1.25
8928.00,1.24
8927.00,1.24
8926.00,1.23
8925.00,1.23
8924.00,1.22
8923.00,1.22
8922.00,1.22
8921.00,1.21
8920.00,1.21
8919.00,1.21
8918.00,1.21
8917.00,1.20
8916.00,1.20
8915.00,1.20
8914.00,1.20
8913.00,1.20
8912.00,1.20
8911.00,1.20
8910.00,1.20
8909.00,1.20
8908.00,1.20
8907.00,1.20
8906.00,1.20
8905.00,1.20
8904.00,1.20
8903.00,1.19
8902.00,1.19
8901.00,1.19
8900.00,1.18
8899.00,1.18
8898.00,1.17
8897.00,1.17
8896.00,1.16
8895.00,1.15
8894.00,1.15
8893.00,1.14
8892.00,1.14
8891.00,1.13
8890.00,1.13
8889.00,1.13
8888.00,1.13
8887.00,1.13
8886.00,1.14
8885.00,1.14
8884.00,1.15
8883.00,1.15
8882.00,1.16
8881.00,1.17
8880.00,1.18
8879.00,1.19
8878.00,1.20
8877.00,1.22
8876.00,1.23
8875.00,1.24
8874.00,1.25
8873.00,1.26
8872.00,1.27
8871.00,1.27
8870.00,1.28
8869.00,1.28
8868.00,1.28
8867.00,1.28
8866.00,1.28
8865.00,1.28
8864.00,1.27
8863.00,1.27
8862.00,1.26
8861.00,1.25
8860.00,1.24
8859.00,1.23
8858.00,1.22
8857.00,1.21
8856.00,1.20
8855.00,1.19
8854.00,1.18
8853.00,1.18
8852.00,1.17
8851.00,1.17
8850.00,1.17
8849.00,1.17
8848.00,1.17
8847.00,1.17
8846.00,1.18
8845.00,1.18
8844.00,1.19
8843.00,1.20
8842.00,1.20
8841.00,1.21
8840.00,1.22
8839.00,1.23
8838.00,1.24
8837.00,1.25
8836.00,1.25
8835.00,1.26
8834.00,1.27
8833.00,1.27
8832.00,1.28
8831.00,1.28
8830.00,1.28
8829.00,1.28
8828.00,1.28
8827.00,1.28
8826.00,1.28
8825.00,1.28
8824.00,1.28
8823.00,1.27
8822.00,1.27
8821.00,1.27
8820.00,1.26
8819.00,1.26
8818.00,1.25
8817.00,1.25
8816.00,1.25
8815.00,1.24
8814.00,1.24
8813.00,1.24
8812.00,1.24
8811.00,1.25
8810.00,1.25
8809.00,1.25
8808.00,1.25
8807.00,1.25
8806.00,1.26
8805.00,1.26
8804.00,1.27
8803.00,1.27
8802.00,1.28
8801.00,1.28
8800.00,1.28
8799.00,1.29
8798.00,1.29
8797.00,1.29
8796.00,1.29
8795.00,1.28
8794.00,1.28
8793.00,1.27
8792.00,1.27
8791.00,1.27
8790.00,1.26
8789.00,1.26
8788.00,1.25
8787.00,1.25
8786.00,1.24
8785.00,1.24
8784.00,1.24
8783.00,1.24
8782.00,1.24
8781.00,1.24
8780.00,1.24
8779.00,1.25
8778.00,1.25
8777.00,1.26
8776.00,1.26
8775.00,1.27
8774.00,1.27
8773.00,1.28
8772.00,1.28
8771.00,1.28
8770.00,1.28
8769.00,1.28
8768.00,1.28
8767.00,1.28
8766.00,1.27
8765.00,1.27
8764.00,1.26
8763.00,1.25
8762.00,1.25
8761.00,1.24
8760.00,1.23
8759.00,1.22
8758.00,1.22
8757.00,1.21
8756.00,1.20
8755.00,1.20
8754.00,1.19
8753.00,1.19
8752.00,1.19
8751.00,1.19
8750.00,1.18
8749.00,1.18
8748.00,1.18
8747.00,1.19
8746.00,1.19
8745.00,1.19
8744.00,1.19
8743.00,1.19
8742.00,1.19
8741.00,1.20
8740.00,1.20
8739.00,1.20
8738.00,1.20
8737.00,1.20
8736.00,1.20
8735.00,1.19
8734.00,1.19
8733.00,1.19
8732.00,1.18
8731.00,1.18
8730.00,1.17
8729.00,1.16
8728.00,1.16
8727.00,1.15
8726.00,1.14
8725.00,1.13
8724.00,1.12
8723.00,1.11
8722.00,1.10
8721.00,1.09
8720.00,1.09
8719.00,1.08
8718.00,1.07
8717.00,1.07
8716.00,1.06
8715.00,1.06
8714.00,1.06
8713.00,1.06
8712.00,1.07
8711.00,1.07
8710.00,1.08
8709.00,1.08
8708.00,1.09
8707.00,1.10
8706.00,1.11
8705.00,1.12
8704.00,1.13
8703.00,1.14
8702.00,1.15
8701.00,1.16
8700.00,1.17
8699.00,1.18
8698.00,1.19
8697.00,1.20
8696.00,1.21
8695.00,1.22
8694.00,1.22
8693.00,1.23
8692.00,1.23
8691.00,1.23
8690.00,1.24
8689.00,1.24
8688.00,1.24
8687.00,1.24
8686.00,1.24
8685.00,1.23
8684.00,1.23
8683.00,1.23
8682.00,1.23
8681.00,1.22
8680.00,1.22
8679.00,1.21
8678.00,1.21
8677.00,1.21
8676.00,1.20
8675.00,1.20
8674.00,1.19
8673.00,1.19
8672.00,1.18
8671.00,1.18
8670.00,1.18
8669.00,1.18
8668.00,1.17
8667.00,1.17
8666.00,1.17
8665.00,1.17
8664.00,1.18
8663.00,1.18
8662.00,1.18
8661.00,1.18
8660.00,1.18
8659.00,1.19
8658.00,1.19
8657.00,1.20
8656.00,1.20
8655.00,1.21
8654.00,1.22
8653.00,1.22
8652.00,1.23
8651.00,1.24
8650.00,1.24
8649.00,1.25
8648.00,1.25
8647.00,1.26
8646.00,1.26
8645.00,1.26
8644.00,1.26
8643.00,1.26
8642.00,1.26
8641.00,1.25
8640.00,1.25
8639.00,1.24
8638.00,1.23
8637.00,1.22
8636.00,1.20
8635.00,1.19
8634.00,1.17
8633.00,1.15
8632.00,1.14
8631.00,1.12
8630.00,1.11
8629.00,1.10
8628.00,1.09
8627.00,1.08
8626.00,1.08
8625.00,1.08
8624.00,1.08
8623.00,1.08
8622.00,1.08
8621.00,1.09
8620.00,1.10
8619.00,1.11
8618.00,1.12
8617.00,1.13
8616.00,1.15
8615.00,1.16
8614.00,1.17
8613.00,1.18
8612.00,1.19
8611.00,1.20
8610.00,1.21
8609.00,1.22
8608.00,1.22
8607.00,1.23
8606.00,1.23
8605.00,1.23
8604.00,1.23
8603.00,1.24
8602.00,1.24
8601.00,1.23
8600.00,1.23
8599.00,1.23
8598.00,1.23
8597.00,1.23
8596.00,1.23
8595.00,1.23
8594.00,1.23
8593.00,1.23
8592.00,1.23
8591.00,1.22
8590.00,1.22
8589.00,1.22
8588.00,1.21
8587.00,1.21
8586.00,1.21
8585.00,1.21
8584.00,1.21
8583.00,1.21
8582.00,1.20
8581.00,1.20
8580.00,1.20
8579.00,1.20
8578.00,1.20
8577.00,1.20
8576.00,1.20
8575.00,1.20
8574.00,1.20
8573.00,1.20
8572.00,1.20
8571.00,1.20
8570.00,1.20
8569.00,1.20
8568.00,1.20
8567.00,1.19
8566.00,1.19
8565.00,1.19
8564.00,1.18
8563.00,1.18
8562.00,1.18
8561.00,1.17
8560.00,1.17
8559.00,1.17
8558.00,1.17
8557.00,1.17
8556.00,1.17
8555.00,1.17
8554.00,1.17
8553.00,1.17
8552.00,1.17
8551.00,1.17
8550.00,1.17
8549.00,1.18
8548.00,1.18
8547.00,1.18
8546.00,1.18
8545.00,1.18
8544.00,1.18
8543.00,1.18
8542.00,1.18
8541.00,1.18
8540.00,1.18
8539.00,1.18
8538.00,1.18
8537.00,1.18
8536.00,1.18
8535.00,1.18
8534.00,1.18
8533.00,1.18
8532.00,1.18
8531.00,1.18
8530.00,1.18
8529.00,1.18
8528.00,1.18
8527.00,1.18
8526.00,1.18
8525.00,1.19
8524.00,1.19
8523.00,1.19
8522.00,1.19
8521.00,1.20
8520.00,1.20
8519.00,1.20
8518.00,1.20
8517.00,1.20
8516.00,1.20
8515.00,1.20
8514.00,1.20
8513.00,1.20
8512.00,1.20
8511.00,1.20
8510.00,1.20
8509.00,1.20
8508.00,1.19
8507.00,1.19
8506.00,1.19
8505.00,1.19
8504.00,1.19
8503.00,1.19
8502.00,1.19
8501.00,1.19
8500.00,1.19
8499.00,1.19
8498.00,1.19
8497.00,1.19
8496.00,1.19
8495.00,1.19
8494.00,1.19
8493.00,1.20
8492.00,1.20
8491.00,1.20
8490.00,1.20
8489.00,1.21
8488.00,1.21
8487.00,1.21
8486.00,1.22
8485.00,1.22
8484.00,1.22
8483.00,1.22
8482.00,1.22
8481.00,1.23
8480.00,1.23
8479.00,1.23
8478.00,1.23
8477.00,1.23
8476.00,1.23
8475.00,1.23
8474.00,1.23
8473.00,1.23
8472.00,1.22
8471.00,1.22
8470.00,1.22
8469.00,1.22
8468.00,1.22
8467.00,1.22
8466.00,1.21
8465.00,1.21
8464.00,1.21
8463.00,1.21
8462.00,1.21
8461.00,1.21
8460.00,1.21
8459.00,1.21
8458.00,1.21
8457.00,1.21
8456.00,1.21
8455.00,1.21
8454.00,1.21
8453.00,1.22
8452.00,1.22
8451.00,1.22
8450.00,1.23
8449.00,1.23
8448.00,1.23
8447.00,1.23
8446.00,1.23
8445.00,1.23
8444.00,1.23
8443.00,1.23
8442.00,1.22
8441.00,1.22
8440.00,1.22
8439.00,1.21
8438.00,1.21
8437.00,1.20
8436.00,1.20
8435.00,1.20
8434.00,1.19
8433.00,1.19
8432.00,1.19
8431.00,1.19
8430.00,1.19
8429.00,1.20
8428.00,1.21
8427.00,1.21
8426.00,1.22
8425.00,1.23
8424.00,1.24
8423.00,1.24
8422.00,1.25
8421.00,1.26
8420.00,1.26
8419.00,1.27
8418.00,1.27
8417.00,1.27
8416.00,1.27
8415.00,1.27
8414.00,1.27
8413.00,1.26
8412.00,1.26
8411.00,1.25
8410.00,1.25
8409.00,1.24
8408.00,1.23
8407.00,1.23
8406.00,1.22
8405.00,1.22
8404.00,1.22
8403.00,1.21
8402.00,1.21
8401.00,1.21
8400.00,1.21
8399.00,1.21
8398.00,1.21
8397.00,1.21
8396.00,1.21
8395.00,1.21
8394.00,1.21
8393.00,1.21
8392.00,1.21
8391.00,1.21
8390.00,1.21
8389.00,1.21
8388.00,1.21
8387.00,1.21
8386.00,1.21
8385.00,1.21
8384.00,1.21
8383.00,1.22
8382.00,1.22
8381.00,1.23
8380.00,1.23
8379.00,1.24
8378.00,1.25
8377.00,1.26
8376.00,1.27
8375.00,1.27
8374.00,1.28
8373.00,1.29
8372.00,1.30
8371.00,1.31
8370.00,1.31
8369.00,1.31
8368.00,1.32
8367.00,1.32
8366.00,1.32
8365.00,1.32
8364.00,1.31
8363.00,1.31
8362.00,1.31
8361.00,1.30
8360.00,1.30
8359.00,1.29
8358.00,1.29
8357.00,1.29
8356.00,1.28
8355.00,1.28
8354.00,1.29
8353.00,1.29
8352.00,1.29
8351.00,1.29
8350.00,1.30
8349.00,1.30
8348.00,1.31
8347.00,1.31
8346.00,1.32
8345.00,1.32
8344.00,1.32
8343.00,1.32
8342.00,1.32
8341.00,1.32
8340.00,1.32
8339.00,1.32
8338.00,1.31
8337.00,1.31
8336.00,1.30
8335.00,1.30
8334.00,1.29
8333.00,1.29
8332.00,1.28
8331.00,1.27
8330.00,1.27
8329.00,1.27
8328.00,1.26
8327.00,1.26
8326.00,1.26
8325.00,1.25
8324.00,1.25
8323.00,1.25
8322.00,1.25
8321.00,1.24
8320.00,1.24
8319.00,1.24
8318.00,1.24
8317.00,1.24
8316.00,1.24
8315.00,1.23
8314.00,1.23
8313.00,1.23
8312.00,1.22
8311.00,1.22
8310.00,1.22
8309.00,1.22
8308.00,1.22
8307.00,1.21
8306.00,1.21
8305.00,1.21
8304.00,1.21
8303.00,1.21
8302.00,1.21
8301.00,1.21
8300.00,1.21
8299.00,1.21
8298.00,1.21
8297.00,1.21
8296.00,1.21
8295.00,1.21
8294.00,1.21
8293.00,1.21
8292.00,1.21
8291.00,1.21
8290.00,1.21
8289.00,1.21
8288.00,1.21
8287.00,1.21
8286.00,1.21
8285.00,1.20
8284.00,1.20
8283.00,1.20
8282.00,1.19
8281.00,1.19
8280.00,1.19
8279.00,1.19
8278.00,1.19
8277.00,1.19
8276.00,1.19
8275.00,1.20
8274.00,1.20
8273.00,1.20
8272.00,1.20
8271.00,1.21
8270.00,1.21
8269.00,1.21
8268.00,1.22
8267.00,1.22
8266.00,1.23
8265.00,1.23
8264.00,1.24
8263.00,1.24
8262.00,1.24
8261.00,1.25
8260.00,1.25
8259.00,1.26
8258.00,1.26
8257.00,1.27
8256.00,1.27
8255.00,1.27
8254.00,1.28
8253.00,1.28
8252.00,1.29
8251.00,1.29
8250.00,1.30
8249.00,1.30
8248.00,1.31
8247.00,1.31
8246.00,1.31
8245.00,1.32
8244.00,1.32
8243.00,1.32
8242.00,1.32
8241.00,1.33
8240.00,1.33
8239.00,1.33
8238.00,1.32
8237.00,1.32
8236.00,1.32
8235.00,1.32
8234.00,1.32
8233.00,1.31
8232.00,1.31
8231.00,1.31
8230.00,1.31
8229.00,1.30
8228.00,1.30
8227.00,1.30
8226.00,1.30
8225.00,1.30
8224.00,1.29
8223.00,1.29
8222.00,1.29
8221.00,1.29
8220.00,1.29
8219.00,1.29
8218.00,1.29
8217.00,1.29
8216.00,1.29
8215.00,1.29
8214.00,1.29
8213.00,1.29
8212.00,1.29
8211.00,1.30
8210.00,1.30
8209.00,1.30
8208.00,1.30
8207.00,1.30
8206.00,1.30
8205.00,1.31
8204.00,1.31
8203.00,1.31
8202.00,1.31
8201.00,1.31
8200.00,1.31
8199.00,1.31
8198.00,1.31
8197.00,1.31
8196.00,1.30
8195.00,1.30
8194.00,1.30
8193.00,1.30
8192.00,1.30
8191.00,1.30
8190.00,1.30
8189.00,1.29
8188.00,1.29
8187.00,1.29
8186.00,1.29
8185.00,1.28
8184.00,1.28
8183.00,1.28
8182.00,1.28
8181.00,1.28
8180.00,1.28
8179.00,1.29
8178.00,1.29
8177.00,1.29
8176.00,1.29
8175.00,1.29
8174.00,1.29
8173.00,1.29
8172.00,1.30
8171.00,1.30
8170.00,1.30
8169.00,1.30
8168.00,1.30
8167.00,1.31
8166.00,1.31
8165.00,1.31
8164.00,1.30
8163.00,1.30
8162.00,1.30
8161.00,1.30
8160.00,1.29
8159.00,1.29
8158.00,1.28
8157.00,1.28
8156.00,1.27
8155.00,1.27
8154.00,1.27
8153.00,1.26
8152.00,1.26
8151.00,1.25
8150.00,1.25
8149.00,1.25
8148.00,1.24
8147.00,1.24
8146.00,1.24
8145.00,1.24
8144.00,1.24
8143.00,1.24
8142.00,1.24
8141.00,1.24
8140.00,1.24
8139.00,1.24
8138.00,1.24
8137.00,1.24
8136.00,1.24
8135.00,1.24
8134.00,1.24
8133.00,1.24
8132.00,1.25
8131.00,1.25
8130.00,1.26
8129.00,1.26
8128.00,1.27
8127.00,1.27
8126.00,1.28
8125.00,1.28
8124.00,1.29
8123.00,1.29
8122.00,1.30
8121.00,1.30
8120.00,1.31
8119.00,1.31
8118.00,1.31
8117.00,1.31
8116.00,1.31
8115.00,1.31
8114.00,1.31
8113.00,1.31
8112.00,1.30
8111.00,1.30
8110.00,1.30
8109.00,1.29
8108.00,1.29
8107.00,1.29
8106.00,1.28
8105.00,1.28
8104.00,1.27
8103.00,1.27
8102.00,1.26
8101.00,1.26
8100.00,1.26
8099.00,1.25
8098.00,1.25
8097.00,1.25
8096.00,1.24
8095.00,1.24
8094.00,1.23
8093.00,1.23
8092.00,1.23
8091.00,1.23
8090.00,1.22
8089.00,1.22
8088.00,1.22
8087.00,1.23
8086.00,1.23
8085.00,1.23
8084.00,1.23
8083.00,1.24
8082.00,1.24
8081.00,1.25
8080.00,1.25
8079.00,1.26
8078.00,1.27
8077.00,1.27
8076.00,1.28
8075.00,1.29
8074.00,1.29
8073.00,1.29
8072.00,1.30
8071.00,1.30
8070.00,1.30
8069.00,1.30
8068.00,1.30
8067.00,1.30
8066.00,1.30
8065.00,1.29
8064.00,1.29
8063.00,1.29
8062.00,1.29
8061.00,1.28
8060.00,1.28
8059.00,1.28
8058.00,1.28
8057.00,1.28
8056.00,1.28
8055.00,1.28
8054.00,1.28
8053.00,1.28
8052.00,1.29
8051.00,1.29
8050.00,1.29
8049.00,1.30
8048.00,1.30
8047.00,1.31
8046.00,1.31
8045.00,1.32
8044.00,1.32
8043.00,1.32
8042.00,1.33
8041.00,1.33
8040.00,1.33
8039.00,1.33
8038.00,1.33
8037.00,1.33
8036.00,1.32
8035.00,1.32
8034.00,1.31
8033.00,1.31
8032.00,1.30
8031.00,1.30
8030.00,1.29
8029.00,1.28
8028.00,1.28
8027.00,1.27
8026.00,1.27
8025.00,1.26
8024.00,1.26
8023.00,1.25
8022.00,1.25
8021.00,1.25
8020.00,1.25
8019.00,1.24
8018.00,1.24
8017.00,1.25
8016.00,1.25
8015.00,1.25
8014.00,1.25
8013.00,1.25
8012.00,1.26
8011.00,1.26
8010.00,1.26
8009.00,1.27
8008.00,1.28
8007.00,1.28
8006.00,1.29
8005.00,1.30
8004.00,1.30
8003.00,1.31
8002.00,1.32
8001.00,1.33
8000.00,1.34
7999.00,1.35
7998.00,1.35
7997.00,1.36
7996.00,1.37
7995.00,1.37
7994.00,1.38
7993.00,1.38
7992.00,1.38
7991.00,1.38
7990.00,1.38
7989.00,1.38
7988.00,1.38
7987.00,1.37
7986.00,1.37
7985.00,1.36
7984.00,1.36
7983.00,1.35
7982.00,1.35
7981.00,1.34
7980.00,1.34
7979.00,1.33
7978.00,1.33
7977.00,1.33
7976.00,1.33
7975.00,1.32
7974.00,1.32
7973.00,1.32
7972.00,1.32
7971.00,1.32
7970.00,1.32
7969.00,1.32
7968.00,1.32
7967.00,1.32
7966.00,1.32
7965.00,1.32
7964.00,1.32
7963.00,1.31
7962.00,1.31
7961.00,1.31
7960.00,1.30
7959.00,1.30
7958.00,1.29
7957.00,1.29
7956.00,1.28
7955.00,1.28
7954.00,1.27
7953.00,1.26
7952.00,1.26
7951.00,1.25
7950.00,1.25
7949.00,1.25
7948.00,1.24
7947.00,1.24
7946.00,1.24
7945.00,1.24
7944.00,1.24
7943.00,1.24
7942.00,1.23
7941.00,1.23
7940.00,1.23
7939.00,1.23
7938.00,1.23
7937.00,1.23
7936.00,1.23
7935.00,1.23
7934.00,1.23
7933.00,1.23
7932.00,1.23
7931.00,1.23
7930.00,1.23
7929.00,1.23
7928.00,1.23
7927.00,1.23
7926.00,1.23
7925.00,1.23
7924.00,1.23
7923.00,1.23
7922.00,1.23
7921.00,1.23
7920.00,1.24
7919.00,1.24
7918.00,1.24
7917.00,1.24
7916.00,1.24
7915.00,1.24
7914.00,1.24
7913.00,1.24
7912.00,1.25
7911.00,1.25
7910.00,1.25
7909.00,1.25
7908.00,1.25
7907.00,1.25
7906.00,1.25
7905.00,1.25
7904.00,1.25
7903.00,1.25
7902.00,1.25
7901.00,1.25
7900.00,1.26
7899.00,1.26
7898.00,1.26
7897.00,1.26
7896.00,1.26
7895.00,1.27
7894.00,1.27
7893.00,1.27
7892.00,1.27
7891.00,1.27
7890.00,1.28
7889.00,1.28
7888.00,1.28
7887.00,1.29
7886.00,1.29
7885.00,1.29
7884.00,1.29
7883.00,1.30
7882.00,1.30
7881.00,1.30
7880.00,1.30
7879.00,1.31
7878.00,1.31
7877.00,1.31
7876.00,1.31
7875.00,1.31
7874.00,1.31
7873.00,1.31
7872.00,1.31
7871.00,1.31
7870.00,1.31
7869.00,1.30
7868.00,1.30
7867.00,1.30
7866.00,1.30
7865.00,1.30
7864.00,1.29
7863.00,1.29
7862.00,1.29
7861.00,1.29
7860.00,1.29
7859.00,1.29
7858.00,1.29
7857.00,1.29
7856.00,1.29
7855.00,1.29
7854.00,1.29
7853.00,1.28
7852.00,1.28
7851.00,1.28
7850.00,1.28
7849.00,1.28
7848.00,1.28
7847.00,1.28
7846.00,1.28
7845.00,1.29
7844.00,1.29
7843.00,1.29
7842.00,1.29
7841.00,1.29
7840.00,1.29
7839.00,1.29
7838.00,1.29
7837.00,1.30
7836.00,1.30
7835.00,1.30
7834.00,1.30
7833.00,1.30
7832.00,1.30
7831.00,1.29
7830.00,1.29
7829.00,1.29
7828.00,1.29
7827.00,1.29
7826.00,1.29
7825.00,1.29
7824.00,1.29
7823.00,1.29
7822.00,1.29
7821.00,1.29
7820.00,1.29
7819.00,1.29
7818.00,1.29
7817.00,1.29
7816.00,1.29
7815.00,1.29
7814.00,1.29
7813.00,1.29
7812.00,1.29
7811.00,1.28
7810.00,1.28
7809.00,1.28
7808.00,1.27
7807.00,1.27
7806.00,1.27
7805.00,1.27
7804.00,1.26
7803.00,1.26
7802.00,1.26
7801.00,1.26
7800.00,1.26
7799.00,1.27
7798.00,1.27
7797.00,1.27
7796.00,1.28
7795.00,1.28
7794.00,1.29
7793.00,1.29
7792.00,1.30
7791.00,1.30
7790.00,1.31
7789.00,1.31
7788.00,1.32
7787.00,1.32
7786.00,1.33
7785.00,1.33
7784.00,1.33
7783.00,1.33
7782.00,1.34
7781.00,1.34
7780.00,1.34
7779.00,1.34
7778.00,1.34
7777.00,1.34
7776.00,1.34
7775.00,1.34
7774.00,1.34
7773.00,1.34
7772.00,1.33
7771.00,1.33
7770.00,1.33
7769.00,1.32
7768.00,1.32
7767.00,1.31
7766.00,1.30
7765.00,1.30
7764.00,1.29
7763.00,1.28
7762.00,1.27
7761.00,1.27
7760.00,1.26
7759.00,1.26
7758.00,1.25
7757.00,1.25
7756.00,1.25
7755.00,1.25
7754.00,1.26
7753.00,1.26
7752.00,1.26
7751.00,1.27
7750.00,1.27
7749.00,1.28
7748.00,1.29
7747.00,1.30
7746.00,1.30
7745.00,1.31
7744.00,1.32
7743.00,1.32
7742.00,1.33
7741.00,1.33
7740.00,1.33
7739.00,1.33
7738.00,1.33
7737.00,1.33
7736.00,1.33
7735.00,1.32
7734.00,1.32
7733.00,1.31
7732.00,1.31
7731.00,1.30
7730.00,1.30
7729.00,1.29
7728.00,1.29
7727.00,1.28
7726.00,1.27
7725.00,1.27
7724.00,1.27
7723.00,1.26
7722.00,1.26
7721.00,1.26
7720.00,1.26
7719.00,1.26
7718.00,1.27
7717.00,1.27
7716.00,1.27
7715.00,1.27
7714.00,1.28
7713.00,1.28
7712.00,1.28
7711.00,1.29
7710.00,1.29
7709.00,1.30
7708.00,1.30
7707.00,1.31
7706.00,1.31
7705.00,1.31
7704.00,1.31
7703.00,1.32
7702.00,1.32
7701.00,1.32
7700.00,1.31
7699.00,1.31
7698.00,1.31
7697.00,1.31
7696.00,1.31
7695.00,1.30
7694.00,1.30
7693.00,1.30
7692.00,1.30
7691.00,1.30
7690.00,1.30
7689.00,1.30
7688.00,1.29
7687.00,1.29
7686.00,1.29
7685.00,1.29
7684.00,1.29
7683.00,1.29
7682.00,1.29
7681.00,1.29
7680.00,1.29
7679.00,1.29
7678.00,1.29
7677.00,1.30
7676.00,1.29
7675.00,1.29
7674.00,1.29
7673.00,1.29
7672.00,1.29
7671.00,1.30
7670.00,1.30
7669.00,1.30
7668.00,1.30
7667.00,1.30
7666.00,1.30
7665.00,1.30
7664.00,1.30
7663.00,1.30
7662.00,1.30
7661.00,1.30
7660.00,1.30
7659.00,1.30
7658.00,1.30
7657.00,1.30
7656.00,1.30
7655.00,1.30
7654.00,1.30
7653.00,1.30
7652.00,1.29
7651.00,1.29
7650.00,1.29
7649.00,1.29
7648.00,1.29
7647.00,1.29
7646.00,1.29
7645.00,1.29
7644.00,1.29
7643.00,1.29
7642.00,1.30
7641.00,1.30
7640.00,1.31
7639.00,1.31
7638.00,1.32
7637.00,1.33
7636.00,1.33
7635.00,1.34
7634.00,1.35
7633.00,1.35
7632.00,1.36
7631.00,1.36
7630.00,1.37
7629.00,1.37
7628.00,1.38
7627.00,1.38
7626.00,1.38
7625.00,1.39
7624.00,1.39
7623.00,1.39
7622.00,1.39
7621.00,1.39
7620.00,1.39
7619.00,1.38
7618.00,1.38
7617.00,1.38
7616.00,1.38
7615.00,1.38
7614.00,1.37
7613.00,1.37
7612.00,1.37
7611.00,1.36
7610.00,1.36
7609.00,1.36
7608.00,1.36
7607.00,1.36
7606.00,1.35
7605.00,1.35
7604.00,1.35
7603.00,1.35
7602.00,1.35
7601.00,1.35
7600.00,1.35
7599.00,1.36
7598.00,1.36
7597.00,1.36
7596.00,1.36
7595.00,1.36
7594.00,1.36
7593.00,1.36
7592.00,1.36
7591.00,1.36
7590.00,1.36
7589.00,1.36
7588.00,1.36
7587.00,1.35
7586.00,1.35
7585.00,1.35
7584.00,1.35
7583.00,1.35
7582.00,1.34
7581.00,1.34
7580.00,1.34
7579.00,1.33
7578.00,1.33
7577.00,1.33
7576.00,1.33
7575.00,1.32
7574.00,1.32
7573.00,1.32
7572.00,1.31
7571.00,1.31
7570.00,1.31
7569.00,1.30
7568.00,1.30
7567.00,1.29
7566.00,1.29
7565.00,1.28
7564.00,1.28
7563.00,1.27
7562.00,1.27
7561.00,1.26
7560.00,1.26
7559.00,1.26
7558.00,1.25
7557.00,1.25
7556.00,1.25
7555.00,1.25
7554.00,1.25
7553.00,1.25
7552.00,1.25
7551.00,1.26
7550.00,1.26
7549.00,1.26
7548.00,1.27
7547.00,1.27
7546.00,1.28
7545.00,1.28
7544.00,1.29
7543.00,1.30
7542.00,1.30
7541.00,1.31
7540.00,1.31
7539.00,1.31
7538.00,1.32
7537.00,1.32
7536.00,1.32
7535.00,1.32
7534.00,1.32
7533.00,1.32
7532.00,1.32
7531.00,1.31
7530.00,1.31
7529.00,1.31
7528.00,1.31
7527.00,1.30
7526.00,1.30
7525.00,1.30
7524.00,1.30
7523.00,1.29
7522.00,1.29
7521.00,1.29
7520.00,1.28
7519.00,1.28
7518.00,1.28
7517.00,1.28
7516.00,1.27
7515.00,1.27
7514.00,1.27
7513.00,1.27
7512.00,1.27
7511.00,1.27
7510.00,1.27
7509.00,1.27
7508.00,1.27
7507.00,1.27
7506.00,1.27
7505.00,1.27
7504.00,1.27
7503.00,1.27
7502.00,1.28
7501.00,1.28
7500.00,1.28
7499.00,1.28
7498.00,1.28
7497.00,1.29
7496.00,1.29
7495.00,1.29
7494.00,1.29
7493.00,1.30
7492.00,1.30
7491.00,1.30
7490.00,1.30
7489.00,1.30
7488.00,1.30
7487.00,1.30
7486.00,1.30
7485.00,1.30
7484.00,1.30
7483.00,1.30
7482.00,1.30
7481.00,1.30
7480.00,1.29
7479.00,1.29
7478.00,1.29
7477.00,1.29
7476.00,1.28
7475.00,1.28
7474.00,1.28
7473.00,1.28
7472.00,1.28
7471.00,1.28
7470.00,1.28
7469.00,1.28
7468.00,1.27
7467.00,1.27
7466.00,1.28
7465.00,1.28
7464.00,1.28
7463.00,1.28
7462.00,1.28
7461.00,1.28
7460.00,1.28
7459.00,1.29
7458.00,1.29
7457.00,1.29
7456.00,1.29
7455.00,1.30
7454.00,1.30
7453.00,1.30
7452.00,1.31
7451.00,1.31
7450.00,1.32
7449.00,1.32
7448.00,1.32
7447.00,1.33
7446.00,1.33
7445.00,1.34
7444.00,1.34
7443.00,1.34
7442.00,1.34
7441.00,1.35
7440.00,1.35
7439.00,1.35
7438.00,1.35
7437.00,1.35
7436.00,1.35
7435.00,1.35
7434.00,1.34
7433.00,1.34
7432.00,1.34
7431.00,1.33
7430.00,1.33
7429.00,1.33
7428.00,1.32
7427.00,1.32
7426.00,1.32
7425.00,1.31
7424.00,1.31
7423.00,1.31
7422.00,1.31
7421.00,1.31
7420.00,1.30
7419.00,1.30
7418.00,1.30
7417.00,1.30
7416.00,1.30
7415.00,1.30
7414.00,1.30
7413.00,1.30
7412.00,1.30
7411.00,1.30
7410.00,1.30
7409.00,1.30
7408.00,1.30
7407.00,1.30
7406.00,1.30
7405.00,1.29
7404.00,1.29
7403.00,1.29
7402.00,1.29
7401.00,1.29
7400.00,1.29
7399.00,1.29
7398.00,1.29
7397.00,1.29
7396.00,1.29
7395.00,1.29
7394.00,1.29
7393.00,1.29
7392.00,1.29
7391.00,1.29
7390.00,1.29
7389.00,1.29
7388.00,1.29
7387.00,1.29
7386.00,1.29
7385.00,1.29
7384.00,1.29
7383.00,1.29
7382.00,1.29
7381.00,1.29
7380.00,1.29
7379.00,1.29
7378.00,1.29
7377.00,1.29
7376.00,1.29
7375.00,1.30
7374.00,1.30
7373.00,1.30
7372.00,1.30
7371.00,1.30
7370.00,1.30
7369.00,1.31
7368.00,1.31
7367.00,1.31
7366.00,1.31
7365.00,1.31
7364.00,1.31
7363.00,1.30
7362.00,1.30
7361.00,1.30
7360.00,1.30
7359.00,1.30
7358.00,1.30
7357.00,1.29
7356.00,1.29
7355.00,1.29
7354.00,1.29
7353.00,1.29
7352.00,1.29
7351.00,1.29
7350.00,1.29
7349.00,1.29
7348.00,1.29
7347.00,1.29
7346.00,1.29
7345.00,1.29
7344.00,1.29
7343.00,1.29
7342.00,1.29
7341.00,1.29
7340.00,1.29
7339.00,1.29
7338.00,1.29
7337.00,1.29
7336.00,1.29
7335.00,1.29
7334.00,1.29
7333.00,1.29
7332.00,1.29
7331.00,1.29
7330.00,1.29
7329.00,1.29
7328.00,1.29
7327.00,1.29
7326.00,1.29
7325.00,1.29
7324.00,1.29
7323.00,1.29
7322.00,1.29
7321.00,1.28
7320.00,1.28
7319.00,1.28
7318.00,1.28
7317.00,1.27
7316.00,1.27
7315.00,1.27
7314.00,1.26
7313.00,1.26
7312.00,1.26
7311.00,1.25
7310.00,1.25
7309.00,1.25
7308.00,1.25
7307.00,1.24
7306.00,1.24
7305.00,1.24
7304.00,1.23
7303.00,1.23
7302.00,1.23
7301.00,1.23
7300.00,1.23
7299.00,1.23
7298.00,1.24
7297.00,1.24
7296.00,1.24
7295.00,1.25
7294.00,1.25
7293.00,1.26
7292.00,1.26
7291.00,1.27
7290.00,1.27
7289.00,1.28
7288.00,1.29
7287.00,1.29
7286.00,1.30
7285.00,1.30
7284.00,1.31
7283.00,1.31
7282.00,1.31
7281.00,1.32
7280.00,1.32
7279.00,1.32
7278.00,1.32
7277.00,1.32
7276.00,1.32
7275.00,1.32
7274.00,1.32
7273.00,1.31
7272.00,1.31
7271.00,1.31
7270.00,1.31
7269.00,1.31
7268.00,1.31
7267.00,1.30
7266.00,1.30
7265.00,1.30
7264.00,1.30
7263.00,1.29
7262.00,1.29
7261.00,1.29
7260.00,1.28
7259.00,1.28
7258.00,1.28
7257.00,1.27
7256.00,1.27
7255.00,1.26
7254.00,1.26
7253.00,1.25
7252.00,1.24
7251.00,1.24
7250.00,1.23
7249.00,1.23
7248.00,1.22
7247.00,1.22
7246.00,1.22
7245.00,1.21
7244.00,1.21
7243.00,1.20
7242.00,1.20
7241.00,1.20
7240.00,1.19
7239.00,1.19
7238.00,1.19
7237.00,1.19
7236.00,1.19
7235.00,1.19
7234.00,1.19
7233.00,1.19
7232.00,1.19
7231.00,1.20
7230.00,1.20
7229.00,1.20
7228.00,1.21
7227.00,1.21
7226.00,1.22
7225.00,1.22
7224.00,1.23
7223.00,1.23
7222.00,1.24
7221.00,1.24
7220.00,1.24
7219.00,1.24
7218.00,1.25
7217.00,1.25
7216.00,1.25
7215.00,1.25
7214.00,1.25
7213.00,1.25
7212.00,1.24
7211.00,1.24
7210.00,1.24
7209.00,1.24
7208.00,1.24
7207.00,1.24
7206.00,1.24
7205.00,1.24
7204.00,1.23
7203.00,1.23
7202.00,1.23
7201.00,1.23
7200.00,1.23
7199.00,1.23
7198.00,1.23
7197.00,1.23
7196.00,1.22
7195.00,1.22
7194.00,1.22
7193.00,1.21
7192.00,1.21
7191.00,1.21
7190.00,1.20
7189.00,1.20
7188.00,1.19
7187.00,1.19
7186.00,1.19
7185.00,1.18
7184.00,1.18
7183.00,1.17
7182.00,1.17
7181.00,1.17
7180.00,1.17
7179.00,1.16
7178.00,1.16
7177.00,1.16
7176.00,1.16
7175.00,1.16
7174.00,1.16
7173.00,1.16
7172.00,1.16
7171.00,1.16
7170.00,1.16
7169.00,1.16
7168.00,1.16
7167.00,1.16
7166.00,1.16
7165.00,1.16
7164.00,1.16
7163.00,1.16
7162.00,1.16
7161.00,1.16
7160.00,1.16
7159.00,1.15
7158.00,1.15
7157.00,1.15
7156.00,1.15
7155.00,1.15
7154.00,1.15
7153.00,1.14
7152.00,1.14
7151.00,1.14
7150.00,1.14
7149.00,1.14
7148.00,1.13
7147.00,1.13
7146.00,1.13
7145.00,1.13
7144.00,1.13
7143.00,1.12
7142.00,1.12
7141.00,1.12
7140.00,1.12
7139.00,1.12
7138.00,1.12
7137.00,1.12
7136.00,1.12
7135.00,1.12
7134.00,1.12
7133.00,1.12
7132.00,1.12
7131.00,1.12
7130.00,1.12
7129.00,1.12
7128.00,1.12
7127.00,1.12
7126.00,1.12
7125.00,1.12
7124.00,1.12
7123.00,1.13
7122.00,1.13
7121.00,1.13
7120.00,1.13
7119.00,1.13
7118.00,1.13
7117.00,1.14
7116.00,1.14
7115.00,1.14
7114.00,1.14
7113.00,1.14
7112.00,1.14
7111.00,1.13
7110.00,1.13
7109.00,1.13
7108.00,1.13
7107.00,1.12
7106.00,1.12
7105.00,1.11
7104.00,1.11
7103.00,1.11
7102.00,1.10
7101.00,1.10
7100.00,1.10
7099.00,1.10
7098.00,1.09
7097.00,1.09
7096.00,1.09
7095.00,1.09
7094.00,1.09
7093.00,1.09
7092.00,1.09
7091.00,1.09
7090.00,1.09
7089.00,1.10
7088.00,1.10
7087.00,1.10
7086.00,1.10
7085.00,1.10
7084.00,1.10
7083.00,1.10
7082.00,1.10
7081.00,1.09
7080.00,1.09
7079.00,1.09
7078.00,1.09
7077.00,1.09
7076.00,1.08
7075.00,1.08
7074.00,1.08
7073.00,1.08
7072.00,1.08
7071.00,1.07
7070.00,1.07
7069.00,1.07
7068.00,1.07
7067.00,1.06
7066.00,1.06
7065.00,1.06
7064.00,1.06
7063.00,1.05
7062.00,1.05
7061.00,1.05
7060.00,1.05
7059.00,1.05
7058.00,1.05
7057.00,1.05
7056.00,1.05
7055.00,1.05
7054.00,1.05
7053.00,1.06
7052.00,1.06
7051.00,1.06
7050.00,1.06
7049.00,1.06
7048.00,1.06
7047.00,1.07
7046.00,1.07
7045.00,1.07
7044.00,1.07
7043.00,1.07
7042.00,1.07
7041.00,1.07
7040.00,1.07
7039.00,1.07
7038.00,1.06
7037.00,1.06
7036.00,1.06
7035.00,1.06
7034.00,1.06
7033.00,1.06
7032.00,1.06
7031.00,1.05
7030.00,1.05
7029.00,1.05
7028.00,1.05
7027.00,1.05
7026.00,1.05
7025.00,1.05
7024.00,1.05
7023.00,1.06
7022.00,1.06
7021.00,1.06
7020.00,1.06
7019.00,1.06
7018.00,1.07
7017.00,1.07
7016.00,1.07
7015.00,1.07
7014.00,1.07
7013.00,1.08
7012.00,1.08
7011.00,1.08
7010.00,1.08
7009.00,1.09
7008.00,1.09
7007.00,1.09
7006.00,1.09
7005.00,1.09
7004.00,1.09
7003.00,1.10
7002.00,1.10
7001.00,1.09
7000.00,1.09
6999.00,1.09
6998.00,1.09
6997.00,1.09
6996.00,1.08
6995.00,1.08
6994.00,1.07
6993.00,1.07
6992.00,1.06
6991.00,1.05
6990.00,1.05
6989.00,1.04
6988.00,1.03
6987.00,1.03
6986.00,1.02
6985.00,1.02
6984.00,1.01
6983.00,1.01
6982.00,1.01
6981.00,1.01
6980.00,1.01
6979.00,1.02
6978.00,1.02
6977.00,1.02
6976.00,1.03
6975.00,1.03
6974.00,1.04
6973.00,1.04
6972.00,1.04
6971.00,1.05
6970.00,1.05
6969.00,1.06
6968.00,1.06
6967.00,1.06
6966.00,1.06
6965.00,1.06
6964.00,1.06
6963.00,1.06
6962.00,1.06
6961.00,1.06
6960.00,1.05
6959.00,1.05
6958.00,1.05
6957.00,1.05
6956.00,1.05
6955.00,1.05
6954.00,1.05
6953.00,1.05
6952.00,1.05
6951.00,1.05
6950.00,1.05
6949.00,1.05
6948.00,1.05
6947.00,1.05
6946.00,1.06
6945.00,1.06
6944.00,1.05
6943.00,1.05
6942.00,1.05
6941.00,1.05
6940.00,1.05
6939.00,1.05
6938.00,1.05
6937.00,1.04
6936.00,1.04
6935.00,1.04
6934.00,1.04
6933.00,1.03
6932.00,1.03
6931.00,1.03
6930.00,1.03
6929.00,1.03
6928.00,1.03
6927.00,1.03
6926.00,1.03
6925.00,1.03
6924.00,1.03
6923.00,1.03
6922.00,1.03
6921.00,1.03
6920.00,1.03
6919.00,1.03
6918.00,1.04
6917.00,1.04
6916.00,1.04
6915.00,1.04
6914.00,1.04
6913.00,1.04
6912.00,1.04
6911.00,1.05
6910.00,1.05
6909.00,1.05
6908.00,1.05
6907.00,1.05
6906.00,1.05
6905.00,1.05
6904.00,1.05
6903.00,1.05
6902.00,1.06
6901.00,1.06
6900.00,1.06
6899.00,1.06
6898.00,1.07
6897.00,1.07
6896.00,1.07
6895.00,1.07
6894.00,1.08
6893.00,1.08
6892.00,1.08
6891.00,1.08
6890.00,1.09
6889.00,1.09
6888.00,1.09
6887.00,1.09
6886.00,1.09
6885.00,1.09
6884.00,1.09
6883.00,1.09
6882.00,1.09
6881.00,1.09
6880.00,1.09
6879.00,1.09
6878.00,1.09
6877.00,1.09
6876.00,1.09
6875.00,1.08
6874.00,1.08
6873.00,1.08
6872.00,1.08
6871.00,1.07
6870.00,1.07
6869.00,1.07
6868.00,1.07
6867.00,1.06
6866.00,1.06
6865.00,1.06
6864.00,1.06
6863.00,1.06
6862.00,1.06
6861.00,1.06
6860.00,1.06
6859.00,1.06
6858.00,1.06
6857.00,1.06
6856.00,1.06
6855.00,1.06
6854.00,1.06
6853.00,1.07
6852.00,1.07
6851.00,1.07
6850.00,1.07
6849.00,1.08
6848.00,1.08
6847.00,1.08
6846.00,1.08
6845.00,1.09
6844.00,1.09
6843.00,1.10
6842.00,1.10
6841.00,1.11
6840.00,1.11
6839.00,1.11
6838.00,1.12
6837.00,1.12
6836.00,1.12
6835.00,1.12
6834.00,1.13
6833.00,1.13
6832.00,1.13
6831.00,1.12
6830.00,1.12
6829.00,1.12
6828.00,1.12
6827.00,1.11
6826.00,1.11
6825.00,1.10
6824.00,1.10
6823.00,1.09
6822.00,1.09
6821.00,1.08
6820.00,1.08
6819.00,1.08
6818.00,1.07
6817.00,1.07
6816.00,1.06
6815.00,1.06
6814.00,1.06
6813.00,1.06
6812.00,1.06
6811.00,1.05
6810.00,1.05
6809.00,1.05
6808.00,1.05
6807.00,1.05
6806.00,1.05
6805.00,1.05
6804.00,1.05
6803.00,1.05
6802.00,1.05
6801.00,1.05
6800.00,1.06
6799.00,1.06
6798.00,1.06
6797.00,1.06
6796.00,1.06
6795.00,1.07
6794.00,1.07
6793.00,1.07
6792.00,1.07
6791.00,1.08
6790.00,1.08
6789.00,1.08
6788.00,1.08
6787.00,1.09
6786.00,1.09
6785.00,1.09
6784.00,1.09
6783.00,1.09
6782.00,1.10
6781.00,1.10
6780.00,1.10
6779.00,1.10
6778.00,1.10
6777.00,1.10
6776.00,1.10
6775.00,1.10
6774.00,1.10
6773.00,1.09
6772.00,1.09
6771.00,1.09
6770.00,1.09
6769.00,1.09
6768.00,1.08
6767.00,1.08
6766.00,1.08
6765.00,1.08
6764.00,1.08
6763.00,1.07
6762.00,1.07
6761.00,1.07
6760.00,1.07
6759.00,1.07
6758.00,1.07
6757.00,1.07
6756.00,1.07
6755.00,1.07
6754.00,1.07
6753.00,1.07
6752.00,1.07
6751.00,1.07
6750.00,1.07
6749.00,1.07
6748.00,1.07
6747.00,1.07
6746.00,1.08
6745.00,1.08
6744.00,1.08
6743.00,1.09
6742.00,1.09
6741.00,1.09
6740.00,1.10
6739.00,1.11
6738.00,1.11
6737.00,1.12
6736.00,1.12
6735.00,1.13
6734.00,1.13
6733.00,1.14
6732.00,1.14
6731.00,1.14
6730.00,1.15
6729.00,1.15
6728.00,1.15
6727.00,1.16
6726.00,1.16
6725.00,1.16
6724.00,1.16
6723.00,1.15
6722.00,1.15
6721.00,1.15
6720.00,1.14
6719.00,1.14
6718.00,1.14
6717.00,1.13
6716.00,1.13
6715.00,1.13
6714.00,1.12
6713.00,1.12
6712.00,1.12
6711.00,1.11
6710.00,1.11
6709.00,1.11
6708.00,1.11
6707.00,1.11
6706.00,1.10
6705.00,1.10
6704.00,1.10
6703.00,1.10
6702.00,1.10
6701.00,1.10
6700.00,1.10
6699.00,1.10
6698.00,1.10
6697.00,1.11
6696.00,1.11
6695.00,1.11
6694.00,1.12
6693.00,1.12
6692.00,1.13
6691.00,1.13
6690.00,1.14
6689.00,1.14
6688.00,1.15
6687.00,1.15
6686.00,1.16
6685.00,1.16
6684.00,1.17
6683.00,1.17
6682.00,1.18
6681.00,1.18
6680.00,1.19
6679.00,1.19
6678.00,1.19
6677.00,1.19
6676.00,1.19
6675.00,1.19
6674.00,1.19
6673.00,1.18
6672.00,1.18
6671.00,1.18
6670.00,1.17
6669.00,1.17
6668.00,1.17
6667.00,1.17
6666.00,1.16
6665.00,1.16
6664.00,1.16
6663.00,1.15
6662.00,1.15
6661.00,1.15
6660.00,1.15
6659.00,1.15
6658.00,1.15
6657.00,1.14
6656.00,1.14
6655.00,1.14
6654.00,1.14
6653.00,1.14
6652.00,1.14
6651.00,1.14
6650.00,1.14
6649.00,1.14
6648.00,1.14
6647.00,1.14
6646.00,1.13
6645.00,1.13
6644.00,1.13
6643.00,1.13
6642.00,1.13
6641.00,1.13
6640.00,1.13
6639.00,1.13
6638.00,1.13
6637.00,1.13
6636.00,1.13
6635.00,1.13
6634.00,1.13
6633.00,1.13
6632.00,1.14
6631.00,1.14
6630.00,1.14
6629.00,1.14
6628.00,1.15
6627.00,1.15
6626.00,1.15
6625.00,1.16
6624.00,1.16
6623.00,1.16
6622.00,1.17
6621.00,1.17
6620.00,1.17
6619.00,1.17
6618.00,1.17
6617.00,1.18
6616.00,1.18
6615.00,1.18
6614.00,1.18
6613.00,1.18
6612.00,1.18
6611.00,1.18
6610.00,1.18
6609.00,1.18
6608.00,1.18
6607.00,1.18
6606.00,1.18
6605.00,1.18
6604.00,1.18
6603.00,1.18
6602.00,1.18
6601.00,1.18
6600.00,1.18
6599.00,1.18
6598.00,1.18
6597.00,1.18
6596.00,1.18
6595.00,1.18
6594.00,1.18
6593.00,1.18
6592.00,1.18
6591.00,1.18
6590.00,1.18
6589.00,1.18
6588.00,1.18
6587.00,1.18
6586.00,1.18
6585.00,1.18
6584.00,1.18
6583.00,1.18
6582.00,1.18
6581.00,1.18
6580.00,1.18
6579.00,1.18
6578.00,1.18
6577.00,1.18
6576.00,1.18
6575.00,1.19
6574.00,1.19
6573.00,1.19
6572.00,1.19
6571.00,1.19
6570.00,1.19
6569.00,1.20
6568.00,1.20
6567.00,1.20
6566.00,1.20
6565.00,1.21
6564.00,1.21
6563.00,1.21
6562.00,1.21
6561.00,1.21
6560.00,1.21
6559.00,1.21
6558.00,1.21
6557.00,1.21
6556.00,1.21
6555.00,1.21
6554.00,1.21
6553.00,1.21
6552.00,1.21
6551.00,1.21
6550.00,1.21
6549.00,1.21
6548.00,1.21
6547.00,1.21
6546.00,1.21
6545.00,1.20
6544.00,1.20
6543.00,1.20
6542.00,1.20
6541.00,1.20
6540.00,1.20
6539.00,1.19
6538.00,1.19
6537.00,1.19
6536.00,1.19
6535.00,1.19
6534.00,1.18
6533.00,1.18
6532.00,1.18
6531.00,1.19
6530.00,1.19
6529.00,1.19
6528.00,1.19
6527.00,1.19
6526.00,1.19
6525.00,1.19
6524.00,1.20
6523.00,1.20
6522.00,1.20
6521.00,1.21
6520.00,1.21
6519.00,1.21
6518.00,1.22
6517.00,1.22
6516.00,1.22
6515.00,1.22
6514.00,1.23
6513.00,1.23
6512.00,1.23
6511.00,1.23
6510.00,1.24
6509.00,1.24
6508.00,1.24
6507.00,1.24
6506.00,1.24
6505.00,1.25
6504.00,1.25
6503.00,1.25
6502.00,1.25
6501.00,1.25
6500.00,1.25
6499.00,1.25
6498.00,1.25
6497.00,1.25
6496.00,1.25
6495.00,1.25
6494.00,1.26
6493.00,1.26
6492.00,1.26
6491.00,1.26
6490.00,1.26
6489.00,1.26
6488.00,1.26
6487.00,1.26
6486.00,1.26
6485.00,1.26
6484.00,1.26
6483.00,1.26
6482.00,1.26
6481.00,1.26
6480.00,1.26
6479.00,1.27
6478.00,1.27
6477.00,1.27
6476.00,1.27
6475.00,1.27
6474.00,1.27
6473.00,1.27
6472.00,1.27
6471.00,1.27
6470.00,1.27
6469.00,1.27
6468.00,1.27
6467.00,1.27
6466.00,1.27
6465.00,1.27
6464.00,1.26
6463.00,1.26
6462.00,1.26
6461.00,1.26
6460.00,1.26
6459.00,1.26
6458.00,1.26
6457.00,1.26
6456.00,1.26
6455.00,1.26
6454.00,1.27
6453.00,1.27
6452.00,1.27
6451.00,1.27
6450.00,1.27
6449.00,1.28
6448.00,1.28
6447.00,1.28
6446.00,1.28
6445.00,1.29
6444.00,1.29
6443.00,1.29
6442.00,1.30
6441.00,1.30
6440.00,1.30
6439.00,1.30
6438.00,1.30
6437.00,1.30
6436.00,1.31
6435.00,1.31
6434.00,1.31
6433.00,1.31
6432.00,1.31
6431.00,1.31
6430.00,1.31
6429.00,1.30
6428.00,1.30
6427.00,1.30
6426.00,1.30
6425.00,1.30
6424.00,1.30
6423.00,1.30
6422.00,1.30
6421.00,1.30
6420.00,1.30
6419.00,1.30
6418.00,1.29
6417.00,1.29
6416.00,1.29
6415.00,1.29
6414.00,1.29
6413.00,1.29
6412.00,1.29
6411.00,1.28
6410.00,1.28
6409.00,1.28
6408.00,1.28
6407.00,1.28
6406.00,1.27
6405.00,1.27
6404.00,1.27
6403.00,1.27
6402.00,1.27
6401.00,1.26
6400.00,1.26
6399.00,1.26
6398.00,1.26
6397.00,1.26
6396.00,1.26
6395.00,1.26
6394.00,1.26
6393.00,1.26
6392.00,1.26
6391.00,1.27
6390.00,1.27
6389.00,1.27
6388.00,1.27
6387.00,1.27
6386.00,1.27
6385.00,1.27
6384.00,1.27
6383.00,1.27
6382.00,1.27
6381.00,1.27
6380.00,1.27
6379.00,1.27
6378.00,1.27
6377.00,1.27
6376.00,1.27
6375.00,1.27
6374.00,1.27
6373.00,1.27
6372.00,1.27
6371.00,1.27
6370.00,1.28
6369.00,1.28
6368.00,1.28
6367.00,1.28
6366.00,1.29
6365.00,1.29
6364.00,1.29
6363.00,1.29
6362.00,1.29
6361.00,1.29
6360.00,1.30
6359.00,1.30
6358.00,1.30
6357.00,1.30
6356.00,1.30
6355.00,1.30
6354.00,1.30
6353.00,1.31
6352.00,1.31
6351.00,1.30
6350.00,1.30
6349.00,1.30
6348.00,1.30
6347.00,1.30
6346.00,1.30
6345.00,1.30
6344.00,1.30
6343.00,1.29
6342.00,1.29
6341.00,1.29
6340.00,1.28
6339.00,1.28
6338.00,1.28
6337.00,1.27
6336.00,1.27
6335.00,1.27
6334.00,1.27
6333.00,1.27
6332.00,1.27
6331.00,1.27
6330.00,1.27
6329.00,1.27
6328.00,1.27
6327.00,1.27
6326.00,1.28
6325.00,1.28
6324.00,1.28
6323.00,1.29
6322.00,1.29
6321.00,1.30
6320.00,1.30
6319.00,1.30
6318.00,1.31
6317.00,1.31
6316.00,1.31
6315.00,1.32
6314.00,1.32
6313.00,1.32
6312.00,1.32
6311.00,1.32
6310.00,1.33
6309.00,1.33
6308.00,1.33
6307.00,1.33
6306.00,1.33
6305.00,1.33
6304.00,1.33
6303.00,1.33
6302.00,1.33
6301.00,1.33
6300.00,1.33
6299.00,1.33
6298.00,1.33
6297.00,1.33
6296.00,1.33
6295.00,1.33
6294.00,1.33
6293.00,1.33
6292.00,1.33
6291.00,1.33
6290.00,1.33
6289.00,1.33
6288.00,1.33
6287.00,1.33
6286.00,1.34
6285.00,1.34
6284.00,1.34
6283.00,1.34
6282.00,1.34
6281.00,1.35
6280.00,1.35
6279.00,1.35
6278.00,1.35
6277.00,1.35
6276.00,1.35
6275.00,1.35
6274.00,1.35
6273.00,1.35
6272.00,1.35
6271.00,1.35
6270.00,1.35
6269.00,1.35
6268.00,1.35
6267.00,1.35
6266.00,1.34
6265.00,1.34
6264.00,1.34
6263.00,1.34
6262.00,1.34
6261.00,1.34
6260.00,1.33
6259.00,1.33
6258.00,1.33
6257.00,1.33
6256.00,1.33
6255.00,1.32
6254.00,1.32
6253.00,1.32
6252.00,1.32
6251.00,1.32
6250.00,1.31
6249.00,1.31
6248.00,1.31
6247.00,1.31
6246.00,1.31
6245.00,1.31
6244.00,1.31
6243.00,1.31
6242.00,1.32
6241.00,1.32
6240.00,1.32
6239.00,1.33
6238.00,1.33
6237.00,1.34
6236.00,1.34
6235.00,1.35
6234.00,1.35
6233.00,1.36
6232.00,1.36
6231.00,1.37
6230.00,1.37
6229.00,1.38
6228.00,1.38
6227.00,1.38
6226.00,1.38
6225.00,1.38
6224.00,1.38
6223.00,1.38
6222.00,1.38
6221.00,1.38
6220.00,1.38
6219.00,1.38
6218.00,1.38
6217.00,1.38
6216.00,1.38
6215.00,1.38
6214.00,1.38
6213.00,1.38
6212.00,1.38
6211.00,1.37
6210.00,1.37
6209.00,1.37
6208.00,1.36
6207.00,1.36
6206.00,1.36
6205.00,1.35
6204.00,1.35
6203.00,1.35
6202.00,1.35
6201.00,1.34
6200.00,1.34
6199.00,1.34
6198.00,1.33
6197.00,1.33
6196.00,1.33
6195.00,1.33
6194.00,1.33
6193.00,1.33
6192.00,1.33
6191.00,1.33
6190.00,1.33
6189.00,1.34
6188.00,1.34
6187.00,1.34
6186.00,1.34
6185.00,1.35
6184.00,1.35
6183.00,1.35
6182.00,1.35
6181.00,1.36
6180.00,1.36
6179.00,1.36
6178.00,1.36
6177.00,1.37
6176.00,1.37
6175.00,1.37
6174.00,1.37
6173.00,1.37
6172.00,1.38
6171.00,1.38
6170.00,1.38
6169.00,1.38
6168.00,1.39
6167.00,1.39
6166.00,1.39
6165.00,1.39
6164.00,1.39
6163.00,1.39
6162.00,1.39
6161.00,1.39
6160.00,1.39
6159.00,1.39
6158.00,1.39
6157.00,1.39
6156.00,1.39
6155.00,1.39
6154.00,1.39
6153.00,1.39
6152.00,1.39
6151.00,1.39
6150.00,1.39
6149.00,1.39
6148.00,1.39
6147.00,1.39
6146.00,1.40
6145.00,1.40
6144.00,1.40
6143.00,1.40
6142.00,1.40
6141.00,1.40
6140.00,1.40
6139.00,1.40
6138.00,1.40
6137.00,1.40
6136.00,1.40
6135.00,1.40
6134.00,1.40
6133.00,1.40
6132.00,1.40
6131.00,1.40
6130.00,1.40
6129.00,1.40
6128.00,1.39
6127.00,1.39
6126.00,1.39
6125.00,1.39
6124.00,1.39
6123.00,1.39
6122.00,1.39
6121.00,1.39
6120.00,1.39
6119.00,1.39
6118.00,1.40
6117.00,1.40
6116.00,1.40
6115.00,1.40
6114.00,1.40
6113.00,1.40
6112.00,1.40
6111.00,1.40
6110.00,1.40
6109.00,1.40
6108.00,1.40
6107.00,1.40
6106.00,1.40
6105.00,1.40
6104.00,1.39
6103.00,1.39
6102.00,1.39
6101.00,1.39
6100.00,1.39
6099.00,1.39
6098.00,1.39
6097.00,1.39
6096.00,1.39
6095.00,1.39
6094.00,1.39
6093.00,1.39
6092.00,1.39
6091.00,1.39
6090.00,1.39
6089.00,1.39
6088.00,1.39
6087.00,1.39
6086.00,1.39
6085.00,1.39
6084.00,1.39
6083.00,1.39
6082.00,1.39
6081.00,1.38
6080.00,1.38
6079.00,1.38
6078.00,1.38
6077.00,1.38
6076.00,1.37
6075.00,1.37
6074.00,1.37
6073.00,1.37
6072.00,1.36
6071.00,1.36
6070.00,1.36
6069.00,1.36
6068.00,1.36
6067.00,1.36
6066.00,1.36
6065.00,1.36
6064.00,1.36
6063.00,1.36
6062.00,1.36
6061.00,1.37
6060.00,1.37
6059.00,1.37
6058.00,1.38
6057.00,1.38
6056.00,1.38
6055.00,1.38
6054.00,1.39
6053.00,1.39
6052.00,1.39
6051.00,1.39
6050.00,1.40
6049.00,1.40
6048.00,1.40
6047.00,1.40
6046.00,1.40
6045.00,1.40
6044.00,1.41
6043.00,1.41
6042.00,1.41
6041.00,1.41
6040.00,1.41
6039.00,1.41
6038.00,1.41
6037.00,1.41
6036.00,1.41
6035.00,1.41
6034.00,1.41
6033.00,1.41
6032.00,1.41
6031.00,1.41
6030.00,1.41
6029.00,1.41
6028.00,1.41
6027.00,1.41
6026.00,1.41
6025.00,1.41
6024.00,1.41
6023.00,1.41
6022.00,1.41
6021.00,1.41
6020.00,1.41
6019.00,1.41
6018.00,1.41
6017.00,1.41
6016.00,1.42
6015.00,1.42
6014.00,1.42
6013.00,1.42
6012.00,1.42
6011.00,1.42
6010.00,1.42
6009.00,1.42
6008.00,1.42
6007.00,1.43
6006.00,1.43
6005.00,1.43
6004.00,1.42
6003.00,1.42
6002.00,1.42
6001.00,1.42
6000.00,1.42
5999.00,1.41
5998.00,1.41
5997.00,1.41
5996.00,1.40
5995.00,1.40
5994.00,1.40
5993.00,1.39
5992.00,1.39
5991.00,1.39
5990.00,1.39
5989.00,1.38
5988.00,1.38
5987.00,1.38
5986.00,1.38
5985.00,1.38
5984.00,1.39
5983.00,1.39
5982.00,1.39
5981.00,1.39
5980.00,1.39
5979.00,1.40
5978.00,1.40
5977.00,1.40
5976.00,1.40
5975.00,1.41
5974.00,1.41
5973.00,1.41
5972.00,1.41
5971.00,1.41
5970.00,1.41
5969.00,1.41
5968.00,1.41
5967.00,1.41
5966.00,1.41
5965.00,1.41
5964.00,1.41
5963.00,1.41
5962.00,1.41
5961.00,1.41
5960.00,1.41
5959.00,1.41
5958.00,1.41
5957.00,1.41
5956.00,1.41
5955.00,1.41
5954.00,1.41
5953.00,1.41
5952.00,1.41
5951.00,1.41
5950.00,1.41
5949.00,1.40
5948.00,1.40
5947.00,1.40
5946.00,1.40
5945.00,1.40
5944.00,1.40
5943.00,1.40
5942.00,1.39
5941.00,1.39
5940.00,1.39
5939.00,1.39
5938.00,1.39
5937.00,1.39
5936.00,1.39
5935.00,1.39
5934.00,1.39
5933.00,1.39
5932.00,1.39
5931.00,1.39
5930.00,1.39
5929.00,1.39
5928.00,1.39
5927.00,1.39
5926.00,1.39
5925.00,1.39
5924.00,1.39
5923.00,1.39
5922.00,1.39
5921.00,1.40
5920.00,1.40
5919.00,1.40
5918.00,1.40
5917.00,1.40
5916.00,1.40
5915.00,1.40
5914.00,1.40
5913.00,1.40
5912.00,1.40
5911.00,1.40
5910.00,1.40
5909.00,1.40
5908.00,1.40
5907.00,1.40
5906.00,1.40
5905.00,1.40
5904.00,1.39
5903.00,1.39
5902.00,1.39
5901.00,1.39
5900.00,1.39
5899.00,1.39
5898.00,1.39
5897.00,1.39
5896.00,1.39
5895.00,1.39
5894.00,1.39
5893.00,1.39
5892.00,1.39
5891.00,1.39
5890.00,1.39
5889.00,1.38
5888.00,1.38
5887.00,1.38
5886.00,1.38
5885.00,1.38
5884.00,1.38
5883.00,1.38
5882.00,1.38
5881.00,1.37
5880.00,1.37
5879.00,1.37
5878.00,1.37
5877.00,1.37
5876.00,1.37
5875.00,1.37
5874.00,1.36
5873.00,1.36
5872.00,1.36
5871.00,1.36
5870.00,1.36
5869.00,1.37
5868.00,1.37
5867.00,1.37
5866.00,1.37
5865.00,1.37
5864.00,1.37
5863.00,1.37
5862.00,1.38
5861.00,1.38
5860.00,1.38
5859.00,1.38
5858.00,1.38
5857.00,1.38
5856.00,1.39
5855.00,1.39
5854.00,1.39
5853.00,1.39
5852.00,1.39
5851.00,1.39
5850.00,1.39
5849.00,1.39
5848.00,1.39
5847.00,1.39
5846.00,1.39
5845.00,1.39
5844.00,1.39
5843.00,1.39
5842.00,1.40
5841.00,1.40
5840.00,1.40
5839.00,1.40
5838.00,1.40
5837.00,1.40
5836.00,1.40
5835.00,1.40
5834.00,1.40
5833.00,1.40
5832.00,1.40
5831.00,1.40
5830.00,1.40
5829.00,1.40
5828.00,1.40
5827.00,1.40
5826.00,1.39
5825.00,1.39
5824.00,1.39
5823.00,1.39
5822.00,1.39
5821.00,1.38
5820.00,1.38
5819.00,1.38
5818.00,1.38
5817.00,1.37
5816.00,1.37
5815.00,1.37
5814.00,1.37
5813.00,1.37
5812.00,1.37
5811.00,1.37
5810.00,1.37
5809.00,1.38
5808.00,1.38
5807.00,1.38
5806.00,1.38
5805.00,1.38
5804.00,1.39
5803.00,1.39
5802.00,1.39
5801.00,1.39
5800.00,1.40
5799.00,1.40
5798.00,1.40
5797.00,1.40
5796.00,1.40
5795.00,1.40
5794.00,1.40
5793.00,1.40
5792.00,1.40
5791.00,1.40
5790.00,1.40
5789.00,1.40
5788.00,1.40
5787.00,1.40
5786.00,1.39
5785.00,1.39
5784.00,1.39
5783.00,1.39
5782.00,1.39
5781.00,1.39
5780.00,1.39
5779.00,1.39
5778.00,1.39
5777.00,1.39
5776.00,1.39
5775.00,1.39
5774.00,1.39
5773.00,1.39
5772.00,1.39
5771.00,1.40
5770.00,1.40
5769.00,1.40
5768.00,1.40
5767.00,1.40
5766.00,1.40
5765.00,1.40
5764.00,1.40
5763.00,1.40
5762.00,1.40
5761.00,1.40
5760.00,1.40
5759.00,1.40
5758.00,1.40
5757.00,1.39
5756.00,1.39
5755.00,1.39
5754.00,1.39
5753.00,1.39
5752.00,1.39
5751.00,1.39
5750.00,1.39
5749.00,1.39
5748.00,1.39
5747.00,1.39
5746.00,1.40
5745.00,1.40
5744.00,1.40
5743.00,1.40
5742.00,1.40
5741.00,1.40
5740.00,1.40
5739.00,1.40
5738.00,1.40
5737.00,1.40
5736.00,1.40
5735.00,1.40
5734.00,1.40
5733.00,1.40
5732.00,1.40
5731.00,1.40
5730.00,1.40
5729.00,1.39
5728.00,1.39
5727.00,1.39
5726.00,1.39
5725.00,1.39
5724.00,1.39
5723.00,1.38
5722.00,1.38
5721.00,1.38
5720.00,1.38
5719.00,1.38
5718.00,1.38
5717.00,1.38
5716.00,1.38
5715.00,1.38
5714.00,1.38
5713.00,1.38
5712.00,1.38
5711.00,1.39
5710.00,1.39
5709.00,1.39
5708.00,1.39
5707.00,1.39
5706.00,1.39
5705.00,1.39
5704.00,1.39
5703.00,1.39
5702.00,1.39
5701.00,1.39
5700.00,1.39
5699.00,1.39
5698.00,1.39
5697.00,1.39
5696.00,1.39
5695.00,1.39
5694.00,1.39
5693.00,1.39
5692.00,1.39
5691.00,1.38
5690.00,1.38
5689.00,1.38
5688.00,1.38
5687.00,1.38
5686.00,1.38
5685.00,1.38
5684.00,1.38
5683.00,1.38
5682.00,1.39
5681.00,1.39
5680.00,1.39
5679.00,1.39
5678.00,1.39
5677.00,1.39
5676.00,1.39
5675.00,1.39
5674.00,1.40
5673.00,1.40
5672.00,1.40
5671.00,1.40
5670.00,1.40
5669.00,1.40
5668.00,1.40
5667.00,1.40
5666.00,1.39
5665.00,1.39
5664.00,1.39
5663.00,1.39
5662.00,1.39
5661.00,1.39
5660.00,1.39
5659.00,1.39
5658.00,1.39
5657.00,1.39
5656.00,1.39
5655.00,1.39
5654.00,1.39
5653.00,1.39
5652.00,1.39
5651.00,1.39
5650.00,1.39
5649.00,1.39
5648.00,1.39
5647.00,1.39
5646.00,1.39
5645.00,1.39
5644.00,1.39
5643.00,1.39
5642.00,1.39
5641.00,1.39
5640.00,1.39
5639.00,1.39
5638.00,1.39
5637.00,1.39
5636.00,1.39
5635.00,1.39
5634.00,1.39
5633.00,1.40
5632.00,1.40
5631.00,1.40
5630.00,1.40
5629.00,1.40
5628.00,1.40
5627.00,1.41
5626.00,1.41
5625.00,1.41
5624.00,1.41
5623.00,1.41
5622.00,1.41
5621.00,1.41
5620.00,1.42
5619.00,1.42
5618.00,1.42
5617.00,1.42
5616.00,1.42
5615.00,1.42
5614.00,1.42
5613.00,1.42
5612.00,1.42
5611.00,1.43
5610.00,1.43
5609.00,1.43
5608.00,1.43
5607.00,1.43
5606.00,1.43
5605.00,1.43
5604.00,1.42
5603.00,1.42
5602.00,1.42
5601.00,1.42
5600.00,1.42
5599.00,1.42
5598.00,1.41
5597.00,1.41
5596.00,1.41
5595.00,1.40
5594.00,1.40
5593.00,1.40
5592.00,1.40
5591.00,1.39
5590.00,1.39
5589.00,1.39
5588.00,1.39
5587.00,1.39
5586.00,1.38
5585.00,1.38
5584.00,1.38
5583.00,1.38
5582.00,1.38
5581.00,1.38
5580.00,1.38
5579.00,1.38
5578.00,1.38
5577.00,1.38
5576.00,1.38
5575.00,1.38
5574.00,1.38
5573.00,1.38
5572.00,1.39
5571.00,1.39
5570.00,1.39
5569.00,1.39
5568.00,1.40
5567.00,1.40
5566.00,1.40
5565.00,1.41
5564.00,1.41
5563.00,1.41
5562.00,1.42
5561.00,1.42
5560.00,1.42
5559.00,1.42
5558.00,1.42
5557.00,1.42
5556.00,1.42
5555.00,1.42
5554.00,1.42
5553.00,1.42
5552.00,1.42
5551.00,1.42
5550.00,1.42
5549.00,1.42
5548.00,1.42
5547.00,1.42
5546.00,1.41
5545.00,1.41
5544.00,1.41
5543.00,1.41
5542.00,1.41
5541.00,1.41
5540.00,1.41
5539.00,1.41
5538.00,1.41
5537.00,1.41
5536.00,1.41
5535.00,1.41
5534.00,1.41
5533.00,1.41
5532.00,1.41
5531.00,1.41
5530.00,1.41
5529.00,1.41
5528.00,1.41
5527.00,1.41
5526.00,1.41
5525.00,1.42
5524.00,1.42
5523.00,1.42
5522.00,1.42
5521.00,1.42
5520.00,1.42
5519.00,1.42
5518.00,1.42
5517.00,1.42
5516.00,1.42
5515.00,1.42
5514.00,1.42
5513.00,1.42
5512.00,1.42
5511.00,1.42
5510.00,1.42
5509.00,1.41
5508.00,1.41
5507.00,1.41
5506.00,1.41
5505.00,1.41
5504.00,1.40
5503.00,1.40
5502.00,1.40
5501.00,1.39
5500.00,1.39
5499.00,1.39
5498.00,1.39
5497.00,1.38
5496.00,1.38
5495.00,1.38
5494.00,1.38
5493.00,1.38
5492.00,1.38
5491.00,1.38
5490.00,1.38
5489.00,1.38
5488.00,1.38
5487.00,1.38
5486.00,1.38
5485.00,1.38
5484.00,1.38
5483.00,1.38
5482.00,1.38
5481.00,1.39
5480.00,1.39
5479.00,1.39
5478.00,1.39
5477.00,1.39
5476.00,1.39
5475.00,1.39
5474.00,1.40
5473.00,1.40
5472.00,1.40
5471.00,1.40
5470.00,1.40
5469.00,1.40
5468.00,1.40
5467.00,1.40
5466.00,1.41
5465.00,1.41
5464.00,1.41
5463.00,1.41
5462.00,1.41
5461.00,1.41
5460.00,1.40
5459.00,1.40
5458.00,1.40
5457.00,1.40
5456.00,1.40
5455.00,1.39
5454.00,1.39
5453.00,1.39
5452.00,1.38
5451.00,1.38
5450.00,1.38
5449.00,1.38
5448.00,1.38
5447.00,1.38
5446.00,1.38
5445.00,1.38
5444.00,1.38
5443.00,1.38
5442.00,1.38
5441.00,1.38
5440.00,1.39
5439.00,1.39
5438.00,1.39
5437.00,1.39
5436.00,1.40
5435.00,1.40
5434.00,1.40
5433.00,1.40
5432.00,1.41
5431.00,1.41
5430.00,1.41
5429.00,1.41
5428.00,1.41
5427.00,1.41
5426.00,1.41
5425.00,1.41
5424.00,1.41
5423.00,1.41
5422.00,1.40
5421.00,1.40
5420.00,1.40
5419.00,1.40
5418.00,1.40
5417.00,1.40
5416.00,1.40
5415.00,1.39
5414.00,1.39
5413.00,1.39
5412.00,1.39
5411.00,1.39
5410.00,1.39
5409.00,1.39
5408.00,1.39
5407.00,1.39
5406.00,1.39
5405.00,1.39
5404.00,1.38
5403.00,1.38
5402.00,1.38
5401.00,1.38
5400.00,1.38
5399.00,1.38
5398.00,1.38
5397.00,1.37
5396.00,1.37
5395.00,1.37
5394.00,1.37
5393.00,1.37
5392.00,1.37
5391.00,1.37
5390.00,1.37
5389.00,1.37
5388.00,1.36
5387.00,1.36
5386.00,1.36
5385.00,1.36
5384.00,1.36
5383.00,1.36
5382.00,1.36
5381.00,1.36
5380.00,1.36
5379.00,1.36
5378.00,1.36
5377.00,1.36
5376.00,1.36
5375.00,1.36
5374.00,1.36
5373.00,1.36
5372.00,1.36
5371.00,1.36
5370.00,1.35
5369.00,1.35
5368.00,1.35
5367.00,1.35
5366.00,1.35
5365.00,1.34
5364.00,1.34
5363.00,1.33
5362.00,1.33
5361.00,1.33
5360.00,1.32
5359.00,1.32
5358.00,1.31
5357.00,1.31
5356.00,1.31
5355.00,1.30
5354.00,1.30
5353.00,1.30
5352.00,1.29
5351.00,1.29
5350.00,1.29
5349.00,1.29
5348.00,1.29
5347.00,1.29
5346.00,1.28
5345.00,1.28
5344.00,1.28
5343.00,1.28
5342.00,1.28
5341.00,1.28
5340.00,1.28
5339.00,1.28
5338.00,1.28
5337.00,1.28
5336.00,1.28
5335.00,1.28
5334.00,1.27
5333.00,1.27
5332.00,1.27
5331.00,1.27
5330.00,1.27
5329.00,1.27
5328.00,1.27
5327.00,1.26
5326.00,1.26
5325.00,1.26
5324.00,1.26
5323.00,1.25
5322.00,1.25
5321.00,1.24
5320.00,1.24
5319.00,1.23
5318.00,1.23
5317.00,1.22
5316.00,1.21
5315.00,1.21
5314.00,1.20
5313.00,1.19
5312.00,1.19
5311.00,1.18
5310.00,1.18
5309.00,1.17
5308.00,1.16
5307.00,1.16
5306.00,1.15
5305.00,1.15
5304.00,1.14
5303.00,1.14
5302.00,1.14
5301.00,1.13
5300.00,1.13
5299.00,1.13
5298.00,1.12
5297.00,1.12
5296.00,1.12
5295.00,1.11
5294.00,1.11
5293.00,1.11
5292.00,1.10
5291.00,1.10
5290.00,1.09
5289.00,1.09
5288.00,1.08
5287.00,1.08
5286.00,1.07
5285.00,1.07
5284.00,1.06
5283.00,1.06
5282.00,1.05
5281.00,1.05
5280.00,1.04
5279.00,1.03
5278.00,1.03
5277.00,1.02
5276.00,1.02
5275.00,1.01
5274.00,1.01
5273.00,1.00
5272.00,1.00
5271.00,0.99
5270.00,0.99
5269.00,0.98
5268.00,0.98
5267.00,0.97
5266.00,0.97
5265.00,0.96
5264.00,0.96
5263.00,0.95
5262.00,0.95
5261.00,0.95
5260.00,0.94
5259.00,0.94
5258.00,0.94
5257.00,0.94
5256.00,0.93
5255.00,0.93
5254.00,0.93
5253.00,0.93
5252.00,0.93
5251.00,0.92
5250.00,0.92
5249.00,0.92
5248.00,0.92
5247.00,0.92
5246.00,0.92
5245.00,0.92
5244.00,0.92
5243.00,0.92
5242.00,0.92
5241.00,0.92
5240.00,0.92
5239.00,0.93
5238.00,0.93
5237.00,0.93
5236.00,0.93
5235.00,0.93
5234.00,0.93
5233.00,0.93
5232.00,0.94
5231.00,0.94
5230.00,0.94
5229.00,0.94
5228.00,0.94
5227.00,0.93
5226.00,0.93
5225.00,0.93
5224.00,0.93
5223.00,0.92
5222.00,0.92
5221.00,0.92
5220.00,0.92
5219.00,0.91
5218.00,0.91
5217.00,0.90
5216.00,0.90
5215.00,0.90
5214.00,0.90
5213.00,0.89
5212.00,0.89
5211.00,0.89
5210.00,0.89
5209.00,0.89
5208.00,0.89
5207.00,0.88
5206.00,0.88
5205.00,0.88
5204.00,0.88
5203.00,0.88
5202.00,0.88
5201.00,0.88
5200.00,0.88
5199.00,0.88
5198.00,0.88
5197.00,0.88
5196.00,0.88
5195.00,0.88
5194.00,0.88
5193.00,0.88
5192.00,0.88
5191.00,0.88
5190.00,0.87
5189.00,0.87
5188.00,0.87
5187.00,0.87
5186.00,0.87
5185.00,0.87
5184.00,0.87
5183.00,0.87
5182.00,0.87
5181.00,0.88
5180.00,0.88
5179.00,0.88
5178.00,0.88
5177.00,0.88
5176.00,0.88
5175.00,0.88
5174.00,0.89
5173.00,0.89
5172.00,0.89
5171.00,0.89
5170.00,0.89
5169.00,0.89
5168.00,0.89
5167.00,0.89
5166.00,0.89
5165.00,0.89
5164.00,0.89
5163.00,0.89
5162.00,0.88
5161.00,0.88
5160.00,0.88
5159.00,0.88
5158.00,0.88
5157.00,0.88
5156.00,0.88
5155.00,0.88
5154.00,0.88
5153.00,0.88
5152.00,0.89
5151.00,0.89
5150.00,0.89
5149.00,0.90
5148.00,0.90
5147.00,0.90
5146.00,0.91
5145.00,0.91
5144.00,0.91
5143.00,0.92
5142.00,0.92
5141.00,0.92
5140.00,0.93
5139.00,0.93
5138.00,0.93
5137.00,0.93
5136.00,0.93
5135.00,0.93
5134.00,0.94
5133.00,0.94
5132.00,0.94
5131.00,0.94
5130.00,0.94
5129.00,0.94
5128.00,0.94
5127.00,0.94
5126.00,0.94
5125.00,0.94
5124.00,0.94
5123.00,0.94
5122.00,0.94
5121.00,0.94
5120.00,0.94
5119.00,0.94
5118.00,0.94
5117.00,0.94
5116.00,0.94
5115.00,0.94
5114.00,0.94
5113.00,0.94
5112.00,0.94
5111.00,0.94
5110.00,0.94
5109.00,0.94
5108.00,0.94
5107.00,0.94
5106.00,0.94
5105.00,0.94
5104.00,0.94
5103.00,0.94
5102.00,0.95
5101.00,0.95
5100.00,0.95
5099.00,0.95
5098.00,0.95
5097.00,0.95
5096.00,0.95
5095.00,0.95
5094.00,0.95
5093.00,0.95
5092.00,0.95
5091.00,0.96
5090.00,0.96
5089.00,0.96
5088.00,0.96
5087.00,0.96
5086.00,0.96
5085.00,0.97
5084.00,0.97
5083.00,0.97
5082.00,0.97
5081.00,0.98
5080.00,0.98
5079.00,0.98
5078.00,0.99
5077.00,0.99
5076.00,1.00
5075.00,1.00
5074.00,1.00
5073.00,1.00
5072.00,1.01
5071.00,1.01
5070.00,1.01
5069.00,1.01
5068.00,1.01
5067.00,1.01
5066.00,1.02
5065.00,1.02
5064.00,1.02
5063.00,1.02
5062.00,1.02
5061.00,1.02
5060.00,1.02
5059.00,1.02
5058.00,1.02
5057.00,1.02
5056.00,1.02
5055.00,1.02
5054.00,1.02
5053.00,1.02
5052.00,1.02
5051.00,1.02
5050.00,1.02
5049.00,1.02
5048.00,1.01
5047.00,1.01
5046.00,1.01
5045.00,1.01
5044.00,1.01
5043.00,1.01
5042.00,1.01
5041.00,1.01
5040.00,1.02
5039.00,1.02
5038.00,1.02
5037.00,1.02
5036.00,1.02
5035.00,1.02
5034.00,1.03
5033.00,1.03
5032.00,1.03
5031.00,1.04
5030.00,1.04
5029.00,1.05
5028.00,1.05
5027.00,1.05
5026.00,1.06
5025.00,1.06
5024.00,1.06
5023.00,1.07
5022.00,1.07
5021.00,1.07
5020.00,1.07
5019.00,1.08
5018.00,1.08
5017.00,1.08
5016.00,1.08
5015.00,1.08
5014.00,1.08
5013.00,1.08
5012.00,1.08
5011.00,1.08
5010.00,1.08
5009.00,1.08
5008.00,1.08
5007.00,1.08
5006.00,1.08
5005.00,1.08
5004.00,1.08
5003.00,1.08
5002.00,1.08
5001.00,1.08
5000.00,1.08
4999.00,1.08
4998.00,1.08
4997.00,1.09
4996.00,1.09
4995.00,1.09
4994.00,1.09
4993.00,1.09
4992.00,1.10
4991.00,1.10
4990.00,1.10
4989.00,1.10
4988.00,1.10
4987.00,1.10
4986.00,1.11
4985.00,1.11
4984.00,1.11
4983.00,1.11
4982.00,1.12
4981.00,1.12
4980.00,1.12
4979.00,1.12
4978.00,1.12
4977.00,1.12
4976.00,1.12
4975.00,1.12
4974.00,1.12
4973.00,1.12
4972.00,1.12
4971.00,1.12
4970.00,1.12
4969.00,1.12
4968.00,1.12
4967.00,1.12
4966.00,1.12
4965.00,1.12
4964.00,1.12
4963.00,1.12
4962.00,1.12
4961.00,1.13
4960.00,1.13
4959.00,1.13
4958.00,1.14
4957.00,1.14
4956.00,1.14
4955.00,1.15
4954.00,1.15
4953.00,1.15
4952.00,1.15
4951.00,1.16
4950.00,1.16
4949.00,1.16
4948.00,1.16
4947.00,1.16
4946.00,1.17
4945.00,1.17
4944.00,1.17
4943.00,1.17
4942.00,1.17
4941.00,1.17
4940.00,1.17
4939.00,1.17
4938.00,1.17
4937.00,1.17
4936.00,1.17
4935.00,1.16
4934.00,1.16
4933.00,1.16
4932.00,1.16
4931.00,1.16
4930.00,1.16
4929.00,1.16
4928.00,1.16
4927.00,1.16
4926.00,1.16
4925.00,1.16
4924.00,1.16
4923.00,1.16
4922.00,1.16
4921.00,1.16
4920.00,1.16
4919.00,1.16
4918.00,1.16
4917.00,1.17
4916.00,1.17
4915.00,1.17
4914.00,1.18
4913.00,1.18
4912.00,1.18
4911.00,1.19
4910.00,1.19
4909.00,1.19
4908.00,1.19
4907.00,1.19
4906.00,1.20
4905.00,1.20
4904.00,1.20
4903.00,1.20
4902.00,1.20
4901.00,1.20
4900.00,1.20
4899.00,1.20
4898.00,1.20
4897.00,1.20
4896.00,1.20
4895.00,1.20
4894.00,1.20
4893.00,1.20
4892.00,1.20
4891.00,1.20
4890.00,1.20
4889.00,1.21
4888.00,1.21
4887.00,1.21
4886.00,1.21
4885.00,1.21
4884.00,1.22
4883.00,1.22
4882.00,1.22
4881.00,1.22
4880.00,1.23
4879.00,1.23
4878.00,1.23
4877.00,1.23
4876.00,1.23
4875.00,1.23
4874.00,1.24
4873.00,1.24
4872.00,1.24
4871.00,1.24
4870.00,1.24
4869.00,1.24
4868.00,1.25
4867.00,1.25
4866.00,1.25
4865.00,1.25
4864.00,1.25
4863.00,1.25
4862.00,1.25
4861.00,1.25
4860.00,1.25
4859.00,1.25
4858.00,1.25
4857.00,1.25
4856.00,1.25
4855.00,1.25
4854.00,1.25
4853.00,1.24
4852.00,1.24
4851.00,1.24
4850.00,1.24
4849.00,1.24
4848.00,1.24
4847.00,1.24
4846.00,1.24
4845.00,1.24
4844.00,1.24
4843.00,1.23
4842.00,1.24
4841.00,1.24
4840.00,1.24
4839.00,1.24
4838.00,1.24
4837.00,1.24
4836.00,1.24
4835.00,1.25
4834.00,1.25
4833.00,1.25
4832.00,1.25
4831.00,1.26
4830.00,1.26
4829.00,1.26
4828.00,1.27
4827.00,1.27
4826.00,1.27
4825.00,1.27
4824.00,1.27
4823.00,1.27
4822.00,1.27
4821.00,1.28
4820.00,1.28
4819.00,1.28
4818.00,1.28
4817.00,1.28
4816.00,1.27
4815.00,1.27
4814.00,1.27
4813.00,1.27
4812.00,1.27
4811.00,1.27
4810.00,1.27
4809.00,1.26
4808.00,1.26
4807.00,1.26
4806.00,1.26
4805.00,1.26
4804.00,1.26
4803.00,1.26
4802.00,1.26
4801.00,1.26
4800.00,1.26
4799.00,1.26
4798.00,1.26
4797.00,1.26
4796.00,1.26
4795.00,1.27
4794.00,1.27
4793.00,1.27
4792.00,1.27
4791.00,1.27
4790.00,1.27
4789.00,1.27
4788.00,1.27
4787.00,1.27
4786.00,1.27
4785.00,1.27
4784.00,1.27
4783.00,1.27
4782.00,1.27
4781.00,1.28
4780.00,1.28
4779.00,1.28
4778.00,1.28
4777.00,1.28
4776.00,1.28
4775.00,1.28
4774.00,1.28
4773.00,1.28
4772.00,1.28
4771.00,1.28
4770.00,1.28
4769.00,1.29
4768.00,1.29
4767.00,1.29
4766.00,1.29
4765.00,1.30
4764.00,1.30
4763.00,1.30
4762.00,1.30
4761.00,1.31
4760.00,1.31
4759.00,1.31
4758.00,1.31
4757.00,1.32
4756.00,1.32
4755.00,1.32
4754.00,1.32
4753.00,1.33
4752.00,1.33
4751.00,1.33
4750.00,1.33
4749.00,1.33
4748.00,1.33
4747.00,1.33
4746.00,1.33
4745.00,1.33
4744.00,1.34
4743.00,1.34
4742.00,1.34
4741.00,1.34
4740.00,1.34
4739.00,1.34
4738.00,1.34
4737.00,1.34
4736.00,1.34
4735.00,1.34
4734.00,1.34
4733.00,1.34
4732.00,1.34
4731.00,1.34
4730.00,1.34
4729.00,1.34
4728.00,1.35
4727.00,1.35
4726.00,1.35
4725.00,1.35
4724.00,1.35
4723.00,1.35
4722.00,1.36
4721.00,1.36
4720.00,1.36
4719.00,1.37
4718.00,1.37
4717.00,1.37
4716.00,1.37
4715.00,1.37
4714.00,1.37
4713.00,1.37
4712.00,1.38
4711.00,1.38
4710.00,1.37
4709.00,1.37
4708.00,1.37
4707.00,1.37
4706.00,1.37
4705.00,1.37
4704.00,1.36
4703.00,1.36
4702.00,1.36
4701.00,1.36
4700.00,1.36
4699.00,1.36
4698.00,1.35
4697.00,1.35
4696.00,1.35
4695.00,1.35
4694.00,1.35
4693.00,1.35
4692.00,1.35
4691.00,1.35
4690.00,1.35
4689.00,1.35
4688.00,1.35
4687.00,1.35
4686.00,1.35
4685.00,1.35
4684.00,1.35
4683.00,1.35
4682.00,1.36
4681.00,1.36
4680.00,1.36
4679.00,1.36
4678.00,1.36
4677.00,1.36
4676.00,1.36
4675.00,1.36
4674.00,1.36
4673.00,1.36
4672.00,1.36
4671.00,1.36
4670.00,1.36
4669.00,1.36
4668.00,1.36
4667.00,1.36
4666.00,1.36
4665.00,1.36
4664.00,1.36
4663.00,1.36
4662.00,1.37
4661.00,1.37
4660.00,1.37
4659.00,1.37
4658.00,1.37
4657.00,1.37
4656.00,1.37
4655.00,1.37
4654.00,1.37
4653.00,1.38
4652.00,1.38
4651.00,1.38
4650.00,1.38
4649.00,1.38
4648.00,1.38
4647.00,1.39
4646.00,1.39
4645.00,1.39
4644.00,1.39
4643.00,1.39
4642.00,1.39
4641.00,1.39
4640.00,1.39
4639.00,1.39
4638.00,1.40
4637.00,1.40
4636.00,1.40
4635.00,1.40
4634.00,1.40
4633.00,1.40
4632.00,1.41
4631.00,1.41
4630.00,1.41
4629.00,1.41
4628.00,1.41
4627.00,1.41
4626.00,1.42
4625.00,1.42
4624.00,1.42
4623.00,1.42
4622.00,1.42
4621.00,1.42
4620.00,1.42
4619.00,1.42
4618.00,1.42
4617.00,1.42
4616.00,1.42
4615.00,1.42
4614.00,1.41
4613.00,1.41
4612.00,1.41
4611.00,1.41
4610.00,1.41
4609.00,1.41
4608.00,1.40
4607.00,1.40
4606.00,1.40
4605.00,1.40
4604.00,1.40
4603.00,1.40
4602.00,1.39
4601.00,1.39
4600.00,1.39
4599.00,1.39
4598.00,1.39
4597.00,1.39
4596.00,1.39
4595.00,1.39
4594.00,1.39
4593.00,1.39
4592.00,1.39
4591.00,1.39
4590.00,1.39
4589.00,1.39
4588.00,1.39
4587.00,1.39
4586.00,1.39
4585.00,1.39
4584.00,1.39
4583.00,1.39
4582.00,1.39
4581.00,1.39
4580.00,1.39
4579.00,1.39
4578.00,1.39
4577.00,1.39
4576.00,1.39
4575.00,1.38
4574.00,1.38
4573.00,1.38
4572.00,1.38
4571.00,1.38
4570.00,1.37
4569.00,1.37
4568.00,1.37
4567.00,1.37
4566.00,1.36
4565.00,1.36
4564.00,1.36
4563.00,1.36
4562.00,1.35
4561.00,1.35
4560.00,1.35
4559.00,1.35
4558.00,1.35
4557.00,1.35
4556.00,1.35
4555.00,1.35
4554.00,1.35
4553.00,1.35
4552.00,1.35
4551.00,1.35
4550.00,1.36
4549.00,1.36
4548.00,1.36
4547.00,1.36
4546.00,1.37
4545.00,1.37
4544.00,1.37
4543.00,1.38
4542.00,1.38
4541.00,1.38
4540.00,1.38
4539.00,1.39
4538.00,1.39
4537.00,1.39
4536.00,1.39
4535.00,1.39
4534.00,1.40
4533.00,1.40
4532.00,1.40
4531.00,1.40
4530.00,1.40
4529.00,1.40
4528.00,1.40
4527.00,1.40
4526.00,1.40
4525.00,1.40
4524.00,1.40
4523.00,1.40
4522.00,1.40
4521.00,1.40
4520.00,1.40
4519.00,1.39
4518.00,1.39
4517.00,1.39
4516.00,1.39
4515.00,1.39
4514.00,1.39
4513.00,1.39
4512.00,1.39
4511.00,1.39
4510.00,1.39
4509.00,1.40
4508.00,1.40
4507.00,1.40
4506.00,1.40
4505.00,1.40
4504.00,1.40
4503.00,1.40
4502.00,1.40
4501.00,1.40
4500.00,1.40
4499.00,1.40
4498.00,1.40
4497.00,1.40
4496.00,1.40
4495.00,1.40
4494.00,1.39
4493.00,1.39
4492.00,1.39
4491.00,1.39
4490.00,1.39
4489.00,1.39
4488.00,1.39
4487.00,1.39
4486.00,1.40
4485.00,1.40
4484.00,1.40
4483.00,1.40
4482.00,1.40
4481.00,1.40
4480.00,1.41
4479.00,1.41
4478.00,1.41
4477.00,1.41
4476.00,1.41
4475.00,1.41
4474.00,1.41
4473.00,1.41
4472.00,1.41
4471.00,1.41
4470.00,1.41
4469.00,1.41
4468.00,1.41
4467.00,1.41
4466.00,1.41
4465.00,1.40
4464.00,1.40
4463.00,1.40
4462.00,1.40
4461.00,1.40
4460.00,1.40
4459.00,1.40
4458.00,1.40
4457.00,1.41
4456.00,1.41
4455.00,1.41
4454.00,1.41
4453.00,1.41
4452.00,1.41
4451.00,1.41
4450.00,1.41
4449.00,1.41
4448.00,1.41
4447.00,1.41
4446.00,1.41
4445.00,1.41
4444.00,1.41
4443.00,1.41
4442.00,1.41
4441.00,1.40
4440.00,1.40
4439.00,1.40
4438.00,1.40
4437.00,1.40
4436.00,1.40
4435.00,1.39
4434.00,1.39
4433.00,1.39
4432.00,1.39
4431.00,1.39
4430.00,1.39
4429.00,1.39
4428.00,1.39
4427.00,1.39
4426.00,1.39
4425.00,1.39
4424.00,1.39
4423.00,1.39
4422.00,1.39
4421.00,1.39
4420.00,1.39
4419.00,1.38
4418.00,1.38
4417.00,1.38
4416.00,1.38
4415.00,1.38
4414.00,1.38
4413.00,1.38
4412.00,1.38
4411.00,1.38
4410.00,1.37
4409.00,1.37
4408.00,1.37
4407.00,1.37
4406.00,1.37
4405.00,1.37
4404.00,1.37
4403.00,1.37
4402.00,1.37
4401.00,1.37
4400.00,1.37
4399.00,1.37
4398.00,1.37
4397.00,1.37
4396.00,1.37
4395.00,1.37
4394.00,1.37
4393.00,1.37
4392.00,1.37
4391.00,1.37
4390.00,1.38
4389.00,1.38
4388.00,1.38
4387.00,1.38
4386.00,1.38
4385.00,1.38
4384.00,1.38
4383.00,1.38
4382.00,1.39
4381.00,1.39
4380.00,1.39
4379.00,1.39
4378.00,1.39
4377.00,1.39
4376.00,1.38
4375.00,1.38
4374.00,1.38
4373.00,1.38
4372.00,1.38
4371.00,1.38
4370.00,1.38
4369.00,1.37
4368.00,1.37
4367.00,1.37
4366.00,1.37
4365.00,1.37
4364.00,1.37
4363.00,1.37
4362.00,1.37
4361.00,1.37
4360.00,1.37
4359.00,1.37
4358.00,1.37
4357.00,1.37
4356.00,1.37
4355.00,1.37
4354.00,1.38
4353.00,1.38
4352.00,1.38
4351.00,1.38
4350.00,1.38
4349.00,1.38
4348.00,1.37
4347.00,1.37
4346.00,1.37
4345.00,1.37
4344.00,1.37
4343.00,1.36
4342.00,1.36
4341.00,1.36
4340.00,1.36
4339.00,1.35
4338.00,1.35
4337.00,1.35
4336.00,1.35
4335.00,1.35
4334.00,1.35
4333.00,1.35
4332.00,1.35
4331.00,1.34
4330.00,1.34
4329.00,1.34
4328.00,1.34
4327.00,1.34
4326.00,1.35
4325.00,1.35
4324.00,1.35
4323.00,1.35
4322.00,1.35
4321.00,1.35
4320.00,1.35
4319.00,1.35
4318.00,1.35
4317.00,1.35
4316.00,1.35
4315.00,1.36
4314.00,1.36
4313.00,1.37
4312.00,1.37
4311.00,1.37
4310.00,1.38
4309.00,1.38
4308.00,1.38
4307.00,1.38
4306.00,1.39
4305.00,1.39
4304.00,1.39
4303.00,1.40
4302.00,1.40
4301.00,1.40
4300.00,1.40
4299.00,1.40
4298.00,1.40
4297.00,1.40
4296.00,1.40
4295.00,1.40
4294.00,1.40
4293.00,1.40
4292.00,1.40
4291.00,1.40
4290.00,1.40
4289.00,1.39
4288.00,1.39
4287.00,1.39
4286.00,1.39
4285.00,1.39
4284.00,1.38
4283.00,1.38
4282.00,1.38
4281.00,1.38
4280.00,1.37
4279.00,1.37
4278.00,1.37
4277.00,1.37
4276.00,1.37
4275.00,1.37
4274.00,1.37
4273.00,1.37
4272.00,1.37
4271.00,1.37
4270.00,1.37
4269.00,1.37
4268.00,1.37
4267.00,1.37
4266.00,1.37
4265.00,1.37
4264.00,1.37
4263.00,1.37
4262.00,1.37
4261.00,1.37
4260.00,1.37
4259.00,1.37
4258.00,1.37
4257.00,1.37
4256.00,1.36
4255.00,1.36
4254.00,1.36
4253.00,1.36
4252.00,1.36
4251.00,1.35
4250.00,1.35
4249.00,1.35
4248.00,1.35
4247.00,1.35
4246.00,1.34
4245.00,1.34
4244.00,1.34
4243.00,1.34
4242.00,1.34
4241.00,1.33
4240.00,1.33
4239.00,1.33
4238.00,1.33
4237.00,1.33
4236.00,1.33
4235.00,1.33
4234.00,1.33
4233.00,1.34
4232.00,1.34
4231.00,1.34
4230.00,1.34
4229.00,1.34
4228.00,1.35
4227.00,1.35
4226.00,1.35
4225.00,1.35
4224.00,1.36
4223.00,1.36
4222.00,1.36
4221.00,1.36
4220.00,1.36
4219.00,1.36
4218.00,1.35
4217.00,1.35
4216.00,1.35
4215.00,1.35
4214.00,1.35
4213.00,1.35
4212.00,1.35
4211.00,1.35
4210.00,1.35
4209.00,1.35
4208.00,1.35
4207.00,1.35
4206.00,1.36
4205.00,1.36
4204.00,1.36
4203.00,1.36
4202.00,1.37
4201.00,1.37
4200.00,1.37
4199.00,1.37
4198.00,1.38
4197.00,1.38
4196.00,1.38
4195.00,1.37
4194.00,1.37
4193.00,1.37
4192.00,1.37
4191.00,1.36
4190.00,1.36
4189.00,1.36
4188.00,1.35
4187.00,1.35
4186.00,1.35
4185.00,1.34
4184.00,1.34
4183.00,1.34
4182.00,1.33
4181.00,1.33
4180.00,1.33
4179.00,1.33
4178.00,1.33
4177.00,1.33
4176.00,1.34
4175.00,1.34
4174.00,1.34
4173.00,1.34
4172.00,1.35
4171.00,1.35
4170.00,1.36
4169.00,1.36
4168.00,1.37
4167.00,1.37
4166.00,1.38
4165.00,1.38
4164.00,1.39
4163.00,1.39
4162.00,1.39
4161.00,1.39
4160.00,1.39
4159.00,1.39
4158.00,1.39
4157.00,1.39
4156.00,1.39
4155.00,1.39
4154.00,1.39
4153.00,1.38
4152.00,1.38
4151.00,1.37
4150.00,1.37
4149.00,1.36
4148.00,1.36
4147.00,1.35
4146.00,1.35
4145.00,1.35
4144.00,1.35
4143.00,1.35
4142.00,1.35
4141.00,1.35
4140.00,1.35
4139.00,1.34
4138.00,1.34
4137.00,1.34
4136.00,1.34
4135.00,1.34
4134.00,1.33
4133.00,1.33
4132.00,1.33
4131.00,1.33
4130.00,1.32
4129.00,1.32
4128.00,1.32
4127.00,1.31
4126.00,1.31
4125.00,1.31
4124.00,1.30
4123.00,1.30
4122.00,1.30
4121.00,1.30
4120.00,1.30
4119.00,1.30
4118.00,1.30
4117.00,1.30
4116.00,1.30
4115.00,1.31
4114.00,1.31
4113.00,1.31
4112.00,1.31
4111.00,1.31
4110.00,1.32
4109.00,1.32
4108.00,1.33
4107.00,1.33
4106.00,1.33
4105.00,1.34
4104.00,1.35
4103.00,1.35
4102.00,1.36
4101.00,1.36
4100.00,1.37
4099.00,1.38
4098.00,1.38
4097.00,1.39
4096.00,1.40
4095.00,1.40
4094.00,1.41
4093.00,1.41
4092.00,1.41
4091.00,1.41
4090.00,1.41
4089.00,1.41
4088.00,1.41
4087.00,1.41
4086.00,1.41
4085.00,1.40
4084.00,1.40
4083.00,1.39
4082.00,1.39
4081.00,1.38
4080.00,1.37
4079.00,1.37
4078.00,1.36
4077.00,1.36
4076.00,1.36
4075.00,1.35
4074.00,1.35
4073.00,1.34
4072.00,1.34
4071.00,1.34
4070.00,1.34
4069.00,1.34
4068.00,1.35
4067.00,1.35
4066.00,1.35
4065.00,1.35
4064.00,1.36
4063.00,1.36
4062.00,1.36
4061.00,1.36
4060.00,1.36
4059.00,1.36
4058.00,1.37
4057.00,1.37
4056.00,1.37
4055.00,1.37
4054.00,1.37
4053.00,1.36
4052.00,1.36
4051.00,1.36
4050.00,1.36
4049.00,1.35
4048.00,1.35
4047.00,1.35
4046.00,1.35
4045.00,1.35
4044.00,1.35
4043.00,1.35
4042.00,1.35
4041.00,1.35
4040.00,1.36
4039.00,1.36
4038.00,1.36
4037.00,1.37
4036.00,1.37
4035.00,1.37
4034.00,1.37
4033.00,1.37
4032.00,1.37
4031.00,1.38
4030.00,1.38
4029.00,1.37
4028.00,1.37
4027.00,1.37
4026.00,1.37
4025.00,1.36
4024.00,1.36
4023.00,1.35
4022.00,1.35
4021.00,1.35
4020.00,1.35
4019.00,1.34
4018.00,1.34
4017.00,1.34
4016.00,1.35
4015.00,1.35
4014.00,1.35
4013.00,1.36
4012.00,1.36
4011.00,1.37
4010.00,1.38
4009.00,1.39
4008.00,1.39
4007.00,1.40
4006.00,1.41
4005.00,1.42
4004.00,1.42
4003.00,1.43
4002.00,1.44
4001.00,1.45
4000.00,1.46
