创建为新数据集,样品 624 用户 Administrator 日期 星期四, 七月 25 2019
cm-1,%T
10000.00,4.94
9999.00,4.83
9998.00,4.72
9997.00,4.61
9996.00,4.51
9995.00,4.41
9994.00,4.31
9993.00,4.22
9992.00,4.14
9991.00,4.07
9990.00,4.01
9989.00,3.96
9988.00,3.91
9987.00,3.86
9986.00,3.82
9985.00,3.77
9984.00,3.73
9983.00,3.69
9982.00,3.64
9981.00,3.60
9980.00,3.55
9979.00,3.50
9978.00,3.46
9977.00,3.41
9976.00,3.37
9975.00,3.32
9974.00,3.27
9973.00,3.23
9972.00,3.18
9971.00,3.14
9970.00,3.10
9969.00,3.06
9968.00,3.02
9967.00,2.98
9966.00,2.95
9965.00,2.92
9964.00,2.89
9963.00,2.87
9962.00,2.84
9961.00,2.82
9960.00,2.79
9959.00,2.77
9958.00,2.74
9957.00,2.71
9956.00,2.69
9955.00,2.66
9954.00,2.64
9953.00,2.62
9952.00,2.60
9951.00,2.58
9950.00,2.56
9949.00,2.53
9948.00,2.51
9947.00,2.49
9946.00,2.46
9945.00,2.43
9944.00,2.40
9943.00,2.37
9942.00,2.34
9941.00,2.31
9940.00,2.27
9939.00,2.24
9938.00,2.20
9937.00,2.17
9936.00,2.13
9935.00,2.10
9934.00,2.07
9933.00,2.03
9932.00,2.01
9931.00,1.98
9930.00,1.95
9929.00,1.93
9928.00,1.91
9927.00,1.89
9926.00,1.88
9925.00,1.86
9924.00,1.85
9923.00,1.83
9922.00,1.82
9921.00,1.81
9920.00,1.80
9919.00,1.79
9918.00,1.78
9917.00,1.77
9916.00,1.77
9915.00,1.76
9914.00,1.76
9913.00,1.76
9912.00,1.76
9911.00,1.76
9910.00,1.76
9909.00,1.76
9908.00,1.77
9907.00,1.78
9906.00,1.79
9905.00,1.80
9904.00,1.81
9903.00,1.82
9902.00,1.83
9901.00,1.84
9900.00,1.84
9899.00,1.85
9898.00,1.85
9897.00,1.86
9896.00,1.86
9895.00,1.86
9894.00,1.86
9893.00,1.85
9892.00,1.85
9891.00,1.85
9890.00,1.84
9889.00,1.84
9888.00,1.83
9887.00,1.83
9886.00,1.82
9885.00,1.82
9884.00,1.82
9883.00,1.81
9882.00,1.81
9881.00,1.81
9880.00,1.81
9879.00,1.81
9878.00,1.81
9877.00,1.81
9876.00,1.81
9875.00,1.81
9874.00,1.80
9873.00,1.80
9872.00,1.80
9871.00,1.80
9870.00,1.81
9869.00,1.81
9868.00,1.81
9867.00,1.81
9866.00,1.81
9865.00,1.81
9864.00,1.81
9863.00,1.81
9862.00,1.81
9861.00,1.82
9860.00,1.82
9859.00,1.82
9858.00,1.82
9857.00,1.82
9856.00,1.82
9855.00,1.82
9854.00,1.82
9853.00,1.81
9852.00,1.80
9851.00,1.79
9850.00,1.78
9849.00,1.77
9848.00,1.76
9847.00,1.75
9846.00,1.73
9845.00,1.72
9844.00,1.71
9843.00,1.70
9842.00,1.69
9841.00,1.68
9840.00,1.68
9839.00,1.68
9838.00,1.68
9837.00,1.68
9836.00,1.69
9835.00,1.69
9834.00,1.70
9833.00,1.71
9832.00,1.73
9831.00,1.74
9830.00,1.75
9829.00,1.76
9828.00,1.78
9827.00,1.78
9826.00,1.79
9825.00,1.80
9824.00,1.80
9823.00,1.80
9822.00,1.79
9821.00,1.79
9820.00,1.78
9819.00,1.77
9818.00,1.75
9817.00,1.74
9816.00,1.72
9815.00,1.71
9814.00,1.70
9813.00,1.68
9812.00,1.67
9811.00,1.66
9810.00,1.64
9809.00,1.63
9808.00,1.63
9807.00,1.62
9806.00,1.62
9805.00,1.61
9804.00,1.61
9803.00,1.61
9802.00,1.61
9801.00,1.61
9800.00,1.61
9799.00,1.61
9798.00,1.61
9797.00,1.61
9796.00,1.61
9795.00,1.61
9794.00,1.61
9793.00,1.61
9792.00,1.61
9791.00,1.61
9790.00,1.61
9789.00,1.61
9788.00,1.61
9787.00,1.61
9786.00,1.61
9785.00,1.62
9784.00,1.62
9783.00,1.63
9782.00,1.64
9781.00,1.65
9780.00,1.66
9779.00,1.67
9778.00,1.68
9777.00,1.69
9776.00,1.71
9775.00,1.72
9774.00,1.73
9773.00,1.75
9772.00,1.76
9771.00,1.77
9770.00,1.78
9769.00,1.79
9768.00,1.79
9767.00,1.80
9766.00,1.81
9765.00,1.81
9764.00,1.81
9763.00,1.82
9762.00,1.82
9761.00,1.82
9760.00,1.82
9759.00,1.83
9758.00,1.83
9757.00,1.82
9756.00,1.82
9755.00,1.82
9754.00,1.81
9753.00,1.80
9752.00,1.78
9751.00,1.77
9750.00,1.75
9749.00,1.74
9748.00,1.72
9747.00,1.70
9746.00,1.68
9745.00,1.66
9744.00,1.64
9743.00,1.63
9742.00,1.61
9741.00,1.60
9740.00,1.59
9739.00,1.58
9738.00,1.58
9737.00,1.58
9736.00,1.58
9735.00,1.59
9734.00,1.60
9733.00,1.61
9732.00,1.63
9731.00,1.64
9730.00,1.66
9729.00,1.67
9728.00,1.68
9727.00,1.70
9726.00,1.71
9725.00,1.72
9724.00,1.73
9723.00,1.74
9722.00,1.74
9721.00,1.75
9720.00,1.75
9719.00,1.75
9718.00,1.76
9717.00,1.76
9716.00,1.76
9715.00,1.76
9714.00,1.76
9713.00,1.76
9712.00,1.76
9711.00,1.75
9710.00,1.75
9709.00,1.75
9708.00,1.75
9707.00,1.74
9706.00,1.74
9705.00,1.73
9704.00,1.72
9703.00,1.71
9702.00,1.70
9701.00,1.69
9700.00,1.68
9699.00,1.67
9698.00,1.66
9697.00,1.64
9696.00,1.63
9695.00,1.62
9694.00,1.61
9693.00,1.60
9692.00,1.60
9691.00,1.59
9690.00,1.59
9689.00,1.59
9688.00,1.59
9687.00,1.59
9686.00,1.60
9685.00,1.61
9684.00,1.62
9683.00,1.63
9682.00,1.65
9681.00,1.66
9680.00,1.67
9679.00,1.69
9678.00,1.70
9677.00,1.71
9676.00,1.72
9675.00,1.74
9674.00,1.75
9673.00,1.75
9672.00,1.76
9671.00,1.77
9670.00,1.78
9669.00,1.78
9668.00,1.78
9667.00,1.79
9666.00,1.79
9665.00,1.79
9664.00,1.79
9663.00,1.78
9662.00,1.78
9661.00,1.78
9660.00,1.77
9659.00,1.77
9658.00,1.77
9657.00,1.76
9656.00,1.76
9655.00,1.75
9654.00,1.75
9653.00,1.74
9652.00,1.73
9651.00,1.73
9650.00,1.72
9649.00,1.72
9648.00,1.71
9647.00,1.71
9646.00,1.70
9645.00,1.70
9644.00,1.70
9643.00,1.70
9642.00,1.70
9641.00,1.70
9640.00,1.70
9639.00,1.70
9638.00,1.70
9637.00,1.71
9636.00,1.71
9635.00,1.71
9634.00,1.71
9633.00,1.71
9632.00,1.71
9631.00,1.70
9630.00,1.70
9629.00,1.70
9628.00,1.70
9627.00,1.69
9626.00,1.69
9625.00,1.68
9624.00,1.68
9623.00,1.68
9622.00,1.68
9621.00,1.68
9620.00,1.68
9619.00,1.68
9618.00,1.68
9617.00,1.68
9616.00,1.68
9615.00,1.68
9614.00,1.68
9613.00,1.68
9612.00,1.68
9611.00,1.67
9610.00,1.67
9609.00,1.66
9608.00,1.65
9607.00,1.64
9606.00,1.63
9605.00,1.62
9604.00,1.61
9603.00,1.59
9602.00,1.58
9601.00,1.57
9600.00,1.55
9599.00,1.54
9598.00,1.53
9597.00,1.52
9596.00,1.52
9595.00,1.51
9594.00,1.51
9593.00,1.51
9592.00,1.52
9591.00,1.52
9590.00,1.53
9589.00,1.55
9588.00,1.56
9587.00,1.57
9586.00,1.59
9585.00,1.61
9584.00,1.62
9583.00,1.64
9582.00,1.66
9581.00,1.68
9580.00,1.69
9579.00,1.71
9578.00,1.73
9577.00,1.74
9576.00,1.76
9575.00,1.77
9574.00,1.78
9573.00,1.79
9572.00,1.79
9571.00,1.80
9570.00,1.80
9569.00,1.80
9568.00,1.79
9567.00,1.79
9566.00,1.78
9565.00,1.77
9564.00,1.76
9563.00,1.75
9562.00,1.74
9561.00,1.72
9560.00,1.71
9559.00,1.69
9558.00,1.68
9557.00,1.67
9556.00,1.65
9555.00,1.64
9554.00,1.63
9553.00,1.63
9552.00,1.62
9551.00,1.62
9550.00,1.62
9549.00,1.62
9548.00,1.62
9547.00,1.62
9546.00,1.63
9545.00,1.63
9544.00,1.63
9543.00,1.63
9542.00,1.63
9541.00,1.64
9540.00,1.64
9539.00,1.64
9538.00,1.64
9537.00,1.64
9536.00,1.64
9535.00,1.64
9534.00,1.64
9533.00,1.64
9532.00,1.64
9531.00,1.64
9530.00,1.65
9529.00,1.65
9528.00,1.65
9527.00,1.66
9526.00,1.66
9525.00,1.67
9524.00,1.67
9523.00,1.68
9522.00,1.69
9521.00,1.69
9520.00,1.70
9519.00,1.71
9518.00,1.71
9517.00,1.72
9516.00,1.73
9515.00,1.73
9514.00,1.74
9513.00,1.75
9512.00,1.75
9511.00,1.76
9510.00,1.76
9509.00,1.76
9508.00,1.76
9507.00,1.76
9506.00,1.75
9505.00,1.75
9504.00,1.74
9503.00,1.73
9502.00,1.73
9501.00,1.72
9500.00,1.70
9499.00,1.69
9498.00,1.68
9497.00,1.67
9496.00,1.65
9495.00,1.64
9494.00,1.63
9493.00,1.62
9492.00,1.62
9491.00,1.61
9490.00,1.60
9489.00,1.60
9488.00,1.60
9487.00,1.60
9486.00,1.60
9485.00,1.60
9484.00,1.60
9483.00,1.61
9482.00,1.61
9481.00,1.61
9480.00,1.61
9479.00,1.61
9478.00,1.61
9477.00,1.62
9476.00,1.61
9475.00,1.61
9474.00,1.61
9473.00,1.61
9472.00,1.61
9471.00,1.60
9470.00,1.60
9469.00,1.59
9468.00,1.59
9467.00,1.58
9466.00,1.58
9465.00,1.58
9464.00,1.57
9463.00,1.57
9462.00,1.58
9461.00,1.58
9460.00,1.58
9459.00,1.59
9458.00,1.60
9457.00,1.60
9456.00,1.61
9455.00,1.62
9454.00,1.63
9453.00,1.64
9452.00,1.65
9451.00,1.66
9450.00,1.67
9449.00,1.69
9448.00,1.70
9447.00,1.70
9446.00,1.71
9445.00,1.72
9444.00,1.72
9443.00,1.72
9442.00,1.72
9441.00,1.72
9440.00,1.72
9439.00,1.72
9438.00,1.72
9437.00,1.71
9436.00,1.71
9435.00,1.71
9434.00,1.71
9433.00,1.71
9432.00,1.70
9431.00,1.70
9430.00,1.70
9429.00,1.70
9428.00,1.70
9427.00,1.70
9426.00,1.70
9425.00,1.70
9424.00,1.69
9423.00,1.69
9422.00,1.69
9421.00,1.68
9420.00,1.68
9419.00,1.67
9418.00,1.66
9417.00,1.66
9416.00,1.65
9415.00,1.64
9414.00,1.63
9413.00,1.62
9412.00,1.61
9411.00,1.60
9410.00,1.59
9409.00,1.58
9408.00,1.58
9407.00,1.57
9406.00,1.57
9405.00,1.56
9404.00,1.56
9403.00,1.56
9402.00,1.56
9401.00,1.56
9400.00,1.56
9399.00,1.56
9398.00,1.56
9397.00,1.57
9396.00,1.57
9395.00,1.57
9394.00,1.58
9393.00,1.58
9392.00,1.59
9391.00,1.59
9390.00,1.60
9389.00,1.60
9388.00,1.61
9387.00,1.61
9386.00,1.62
9385.00,1.62
9384.00,1.63
9383.00,1.63
9382.00,1.64
9381.00,1.64
9380.00,1.64
9379.00,1.65
9378.00,1.65
9377.00,1.65
9376.00,1.65
9375.00,1.65
9374.00,1.65
9373.00,1.65
9372.00,1.64
9371.00,1.64
9370.00,1.64
9369.00,1.63
9368.00,1.63
9367.00,1.63
9366.00,1.62
9365.00,1.62
9364.00,1.61
9363.00,1.61
9362.00,1.60
9361.00,1.60
9360.00,1.59
9359.00,1.59
9358.00,1.59
9357.00,1.58
9356.00,1.58
9355.00,1.58
9354.00,1.58
9353.00,1.58
9352.00,1.58
9351.00,1.58
9350.00,1.58
9349.00,1.59
9348.00,1.59
9347.00,1.60
9346.00,1.60
9345.00,1.61
9344.00,1.62
9343.00,1.62
9342.00,1.63
9341.00,1.64
9340.00,1.64
9339.00,1.65
9338.00,1.65
9337.00,1.65
9336.00,1.66
9335.00,1.66
9334.00,1.66
9333.00,1.65
9332.00,1.65
9331.00,1.65
9330.00,1.65
9329.00,1.64
9328.00,1.64
9327.00,1.64
9326.00,1.63
9325.00,1.63
9324.00,1.62
9323.00,1.62
9322.00,1.61
9321.00,1.61
9320.00,1.60
9319.00,1.60
9318.00,1.60
9317.00,1.59
9316.00,1.59
9315.00,1.58
9314.00,1.58
9313.00,1.57
9312.00,1.56
9311.00,1.56
9310.00,1.55
9309.00,1.54
9308.00,1.53
9307.00,1.53
9306.00,1.52
9305.00,1.52
9304.00,1.51
9303.00,1.51
9302.00,1.50
9301.00,1.50
9300.00,1.50
9299.00,1.50
9298.00,1.50
9297.00,1.50
9296.00,1.49
9295.00,1.50
9294.00,1.50
9293.00,1.50
9292.00,1.50
9291.00,1.50
9290.00,1.50
9289.00,1.51
9288.00,1.51
9287.00,1.52
9286.00,1.52
9285.00,1.53
9284.00,1.53
9283.00,1.54
9282.00,1.55
9281.00,1.56
9280.00,1.57
9279.00,1.57
9278.00,1.58
9277.00,1.59
9276.00,1.60
9275.00,1.61
9274.00,1.62
9273.00,1.63
9272.00,1.64
9271.00,1.64
9270.00,1.65
9269.00,1.65
9268.00,1.65
9267.00,1.65
9266.00,1.65
9265.00,1.65
9264.00,1.64
9263.00,1.64
9262.00,1.63
9261.00,1.63
9260.00,1.62
9259.00,1.62
9258.00,1.61
9257.00,1.61
9256.00,1.60
9255.00,1.60
9254.00,1.60
9253.00,1.60
9252.00,1.59
9251.00,1.59
9250.00,1.59
9249.00,1.59
9248.00,1.59
9247.00,1.59
9246.00,1.59
9245.00,1.59
9244.00,1.59
9243.00,1.59
9242.00,1.59
9241.00,1.58
9240.00,1.58
9239.00,1.58
9238.00,1.57
9237.00,1.57
9236.00,1.57
9235.00,1.57
9234.00,1.57
9233.00,1.57
9232.00,1.57
9231.00,1.57
9230.00,1.57
9229.00,1.57
9228.00,1.57
9227.00,1.58
9226.00,1.58
9225.00,1.59
9224.00,1.60
9223.00,1.60
9222.00,1.61
9221.00,1.62
9220.00,1.62
9219.00,1.63
9218.00,1.64
9217.00,1.64
9216.00,1.65
9215.00,1.65
9214.00,1.66
9213.00,1.66
9212.00,1.67
9211.00,1.67
9210.00,1.67
9209.00,1.67
9208.00,1.67
9207.00,1.66
9206.00,1.66
9205.00,1.66
9204.00,1.65
9203.00,1.65
9202.00,1.64
9201.00,1.64
9200.00,1.63
9199.00,1.62
9198.00,1.62
9197.00,1.61
9196.00,1.61
9195.00,1.60
9194.00,1.60
9193.00,1.60
9192.00,1.60
9191.00,1.60
9190.00,1.60
9189.00,1.60
9188.00,1.61
9187.00,1.61
9186.00,1.62
9185.00,1.62
9184.00,1.63
9183.00,1.63
9182.00,1.64
9181.00,1.65
9180.00,1.65
9179.00,1.66
9178.00,1.66
9177.00,1.66
9176.00,1.67
9175.00,1.67
9174.00,1.67
9173.00,1.68
9172.00,1.68
9171.00,1.68
9170.00,1.68
9169.00,1.69
9168.00,1.69
9167.00,1.69
9166.00,1.69
9165.00,1.69
9164.00,1.70
9163.00,1.70
9162.00,1.70
9161.00,1.70
9160.00,1.70
9159.00,1.69
9158.00,1.69
9157.00,1.69
9156.00,1.69
9155.00,1.68
9154.00,1.68
9153.00,1.67
9152.00,1.67
9151.00,1.66
9150.00,1.65
9149.00,1.65
9148.00,1.64
9147.00,1.63
9146.00,1.63
9145.00,1.62
9144.00,1.62
9143.00,1.61
9142.00,1.61
9141.00,1.61
9140.00,1.61
9139.00,1.61
9138.00,1.61
9137.00,1.61
9136.00,1.62
9135.00,1.62
9134.00,1.63
9133.00,1.64
9132.00,1.65
9131.00,1.66
9130.00,1.67
9129.00,1.69
9128.00,1.70
9127.00,1.71
9126.00,1.72
9125.00,1.73
9124.00,1.74
9123.00,1.74
9122.00,1.75
9121.00,1.75
9120.00,1.75
9119.00,1.75
9118.00,1.75
9117.00,1.74
9116.00,1.74
9115.00,1.73
9114.00,1.72
9113.00,1.71
9112.00,1.70
9111.00,1.69
9110.00,1.67
9109.00,1.66
9108.00,1.65
9107.00,1.63
9106.00,1.62
9105.00,1.61
9104.00,1.59
9103.00,1.58
9102.00,1.57
9101.00,1.56
9100.00,1.55
9099.00,1.54
9098.00,1.54
9097.00,1.53
9096.00,1.52
9095.00,1.52
9094.00,1.52
9093.00,1.52
9092.00,1.52
9091.00,1.52
9090.00,1.52
9089.00,1.52
9088.00,1.52
9087.00,1.53
9086.00,1.53
9085.00,1.53
9084.00,1.53
9083.00,1.54
9082.00,1.54
9081.00,1.54
9080.00,1.54
9079.00,1.54
9078.00,1.55
9077.00,1.55
9076.00,1.55
9075.00,1.56
9074.00,1.56
9073.00,1.57
9072.00,1.58
9071.00,1.59
9070.00,1.60
9069.00,1.61
9068.00,1.62
9067.00,1.63
9066.00,1.64
9065.00,1.65
9064.00,1.66
9063.00,1.67
9062.00,1.68
9061.00,1.69
9060.00,1.70
9059.00,1.70
9058.00,1.71
9057.00,1.71
9056.00,1.71
9055.00,1.71
9054.00,1.71
9053.00,1.71
9052.00,1.71
9051.00,1.71
9050.00,1.70
9049.00,1.70
9048.00,1.70
9047.00,1.69
9046.00,1.69
9045.00,1.68
9044.00,1.68
9043.00,1.67
9042.00,1.67
9041.00,1.66
9040.00,1.66
9039.00,1.65
9038.00,1.65
9037.00,1.64
9036.00,1.64
9035.00,1.63
9034.00,1.63
9033.00,1.63
9032.00,1.63
9031.00,1.63
9030.00,1.63
9029.00,1.63
9028.00,1.63
9027.00,1.64
9026.00,1.64
9025.00,1.65
9024.00,1.65
9023.00,1.66
9022.00,1.67
9021.00,1.68
9020.00,1.69
9019.00,1.69
9018.00,1.70
9017.00,1.71
9016.00,1.71
9015.00,1.72
9014.00,1.72
9013.00,1.73
9012.00,1.73
9011.00,1.73
9010.00,1.74
9009.00,1.74
9008.00,1.74
9007.00,1.74
9006.00,1.74
9005.00,1.74
9004.00,1.73
9003.00,1.73
9002.00,1.73
9001.00,1.73
9000.00,1.73
8999.00,1.72
8998.00,1.72
8997.00,1.72
8996.00,1.71
8995.00,1.71
8994.00,1.71
8993.00,1.70
8992.00,1.70
8991.00,1.69
8990.00,1.69
8989.00,1.69
8988.00,1.69
8987.00,1.68
8986.00,1.68
8985.00,1.68
8984.00,1.67
8983.00,1.67
8982.00,1.67
8981.00,1.67
8980.00,1.66
8979.00,1.66
8978.00,1.66
8977.00,1.66
8976.00,1.66
8975.00,1.66
8974.00,1.66
8973.00,1.65
8972.00,1.65
8971.00,1.65
8970.00,1.65
8969.00,1.64
8968.00,1.64
8967.00,1.64
8966.00,1.64
8965.00,1.64
8964.00,1.64
8963.00,1.63
8962.00,1.63
8961.00,1.63
8960.00,1.63
8959.00,1.62
8958.00,1.62
8957.00,1.62
8956.00,1.62
8955.00,1.62
8954.00,1.63
8953.00,1.63
8952.00,1.63
8951.00,1.63
8950.00,1.63
8949.00,1.64
8948.00,1.64
8947.00,1.65
8946.00,1.65
8945.00,1.66
8944.00,1.66
8943.00,1.67
8942.00,1.67
8941.00,1.68
8940.00,1.68
8939.00,1.69
8938.00,1.69
8937.00,1.69
8936.00,1.69
8935.00,1.70
8934.00,1.70
8933.00,1.70
8932.00,1.70
8931.00,1.70
8930.00,1.70
8929.00,1.70
8928.00,1.70
8927.00,1.69
8926.00,1.69
8925.00,1.68
8924.00,1.68
8923.00,1.67
8922.00,1.66
8921.00,1.65
8920.00,1.64
8919.00,1.63
8918.00,1.62
8917.00,1.61
8916.00,1.60
8915.00,1.59
8914.00,1.58
8913.00,1.57
8912.00,1.57
8911.00,1.56
8910.00,1.56
8909.00,1.55
8908.00,1.55
8907.00,1.55
8906.00,1.55
8905.00,1.56
8904.00,1.56
8903.00,1.57
8902.00,1.57
8901.00,1.58
8900.00,1.59
8899.00,1.59
8898.00,1.60
8897.00,1.60
8896.00,1.61
8895.00,1.62
8894.00,1.62
8893.00,1.63
8892.00,1.63
8891.00,1.64
8890.00,1.64
8889.00,1.65
8888.00,1.65
8887.00,1.66
8886.00,1.66
8885.00,1.67
8884.00,1.67
8883.00,1.67
8882.00,1.68
8881.00,1.68
8880.00,1.69
8879.00,1.69
8878.00,1.69
8877.00,1.70
8876.00,1.70
8875.00,1.70
8874.00,1.70
8873.00,1.70
8872.00,1.71
8871.00,1.71
8870.00,1.71
8869.00,1.71
8868.00,1.71
8867.00,1.72
8866.00,1.72
8865.00,1.72
8864.00,1.72
8863.00,1.72
8862.00,1.72
8861.00,1.72
8860.00,1.72
8859.00,1.71
8858.00,1.71
8857.00,1.71
8856.00,1.71
8855.00,1.70
8854.00,1.70
8853.00,1.69
8852.00,1.69
8851.00,1.69
8850.00,1.69
8849.00,1.68
8848.00,1.68
8847.00,1.68
8846.00,1.68
8845.00,1.68
8844.00,1.68
8843.00,1.68
8842.00,1.68
8841.00,1.68
8840.00,1.68
8839.00,1.68
8838.00,1.68
8837.00,1.68
8836.00,1.68
8835.00,1.68
8834.00,1.68
8833.00,1.67
8832.00,1.66
8831.00,1.66
8830.00,1.65
8829.00,1.64
8828.00,1.63
8827.00,1.63
8826.00,1.62
8825.00,1.61
8824.00,1.61
8823.00,1.60
8822.00,1.60
8821.00,1.59
8820.00,1.59
8819.00,1.58
8818.00,1.58
8817.00,1.58
8816.00,1.58
8815.00,1.58
8814.00,1.59
8813.00,1.59
8812.00,1.60
8811.00,1.60
8810.00,1.61
8809.00,1.62
8808.00,1.62
8807.00,1.63
8806.00,1.63
8805.00,1.64
8804.00,1.65
8803.00,1.66
8802.00,1.66
8801.00,1.67
8800.00,1.68
8799.00,1.69
8798.00,1.69
8797.00,1.70
8796.00,1.70
8795.00,1.71
8794.00,1.71
8793.00,1.72
8792.00,1.72
8791.00,1.72
8790.00,1.72
8789.00,1.72
8788.00,1.72
8787.00,1.72
8786.00,1.71
8785.00,1.71
8784.00,1.70
8783.00,1.69
8782.00,1.68
8781.00,1.67
8780.00,1.66
8779.00,1.65
8778.00,1.64
8777.00,1.63
8776.00,1.62
8775.00,1.61
8774.00,1.60
8773.00,1.60
8772.00,1.59
8771.00,1.59
8770.00,1.59
8769.00,1.59
8768.00,1.59
8767.00,1.59
8766.00,1.59
8765.00,1.60
8764.00,1.60
8763.00,1.61
8762.00,1.61
8761.00,1.62
8760.00,1.62
8759.00,1.63
8758.00,1.63
8757.00,1.63
8756.00,1.63
8755.00,1.63
8754.00,1.63
8753.00,1.63
8752.00,1.63
8751.00,1.63
8750.00,1.63
8749.00,1.63
8748.00,1.63
8747.00,1.63
8746.00,1.63
8745.00,1.63
8744.00,1.63
8743.00,1.63
8742.00,1.64
8741.00,1.64
8740.00,1.64
8739.00,1.65
8738.00,1.65
8737.00,1.65
8736.00,1.65
8735.00,1.65
8734.00,1.65
8733.00,1.65
8732.00,1.65
8731.00,1.64
8730.00,1.64
8729.00,1.64
8728.00,1.64
8727.00,1.63
8726.00,1.63
8725.00,1.63
8724.00,1.62
8723.00,1.62
8722.00,1.62
8721.00,1.62
8720.00,1.62
8719.00,1.62
8718.00,1.62
8717.00,1.62
8716.00,1.63
8715.00,1.63
8714.00,1.63
8713.00,1.63
8712.00,1.63
8711.00,1.64
8710.00,1.64
8709.00,1.64
8708.00,1.64
8707.00,1.65
8706.00,1.65
8705.00,1.65
8704.00,1.65
8703.00,1.65
8702.00,1.65
8701.00,1.65
8700.00,1.65
8699.00,1.65
8698.00,1.65
8697.00,1.64
8696.00,1.64
8695.00,1.64
8694.00,1.64
8693.00,1.64
8692.00,1.64
8691.00,1.64
8690.00,1.63
8689.00,1.63
8688.00,1.63
8687.00,1.63
8686.00,1.63
8685.00,1.63
8684.00,1.63
8683.00,1.64
8682.00,1.64
8681.00,1.64
8680.00,1.64
8679.00,1.65
8678.00,1.65
8677.00,1.65
8676.00,1.65
8675.00,1.66
8674.00,1.66
8673.00,1.66
8672.00,1.66
8671.00,1.66
8670.00,1.65
8669.00,1.65
8668.00,1.65
8667.00,1.64
8666.00,1.64
8665.00,1.63
8664.00,1.63
8663.00,1.62
8662.00,1.62
8661.00,1.61
8660.00,1.61
8659.00,1.61
8658.00,1.60
8657.00,1.60
8656.00,1.60
8655.00,1.61
8654.00,1.61
8653.00,1.61
8652.00,1.62
8651.00,1.62
8650.00,1.63
8649.00,1.63
8648.00,1.64
8647.00,1.65
8646.00,1.65
8645.00,1.66
8644.00,1.66
8643.00,1.67
8642.00,1.67
8641.00,1.67
8640.00,1.68
8639.00,1.68
8638.00,1.68
8637.00,1.68
8636.00,1.68
8635.00,1.68
8634.00,1.68
8633.00,1.68
8632.00,1.68
8631.00,1.68
8630.00,1.68
8629.00,1.68
8628.00,1.68
8627.00,1.68
8626.00,1.68
8625.00,1.67
8624.00,1.67
8623.00,1.67
8622.00,1.67
8621.00,1.66
8620.00,1.66
8619.00,1.65
8618.00,1.64
8617.00,1.63
8616.00,1.63
8615.00,1.62
8614.00,1.61
8613.00,1.60
8612.00,1.59
8611.00,1.59
8610.00,1.58
8609.00,1.57
8608.00,1.57
8607.00,1.57
8606.00,1.57
8605.00,1.57
8604.00,1.57
8603.00,1.57
8602.00,1.57
8601.00,1.58
8600.00,1.58
8599.00,1.58
8598.00,1.59
8597.00,1.59
8596.00,1.60
8595.00,1.60
8594.00,1.61
8593.00,1.61
8592.00,1.61
8591.00,1.61
8590.00,1.62
8589.00,1.62
8588.00,1.62
8587.00,1.62
8586.00,1.62
8585.00,1.62
8584.00,1.62
8583.00,1.62
8582.00,1.62
8581.00,1.63
8580.00,1.63
8579.00,1.63
8578.00,1.63
8577.00,1.63
8576.00,1.64
8575.00,1.64
8574.00,1.64
8573.00,1.65
8572.00,1.65
8571.00,1.66
8570.00,1.66
8569.00,1.67
8568.00,1.67
8567.00,1.68
8566.00,1.68
8565.00,1.69
8564.00,1.69
8563.00,1.69
8562.00,1.70
8561.00,1.70
8560.00,1.70
8559.00,1.71
8558.00,1.71
8557.00,1.71
8556.00,1.71
8555.00,1.71
8554.00,1.71
8553.00,1.71
8552.00,1.71
8551.00,1.70
8550.00,1.70
8549.00,1.70
8548.00,1.69
8547.00,1.69
8546.00,1.68
8545.00,1.68
8544.00,1.68
8543.00,1.67
8542.00,1.67
8541.00,1.67
8540.00,1.67
8539.00,1.67
8538.00,1.66
8537.00,1.66
8536.00,1.66
8535.00,1.66
8534.00,1.66
8533.00,1.66
8532.00,1.66
8531.00,1.66
8530.00,1.66
8529.00,1.65
8528.00,1.65
8527.00,1.65
8526.00,1.65
8525.00,1.65
8524.00,1.64
8523.00,1.64
8522.00,1.64
8521.00,1.64
8520.00,1.64
8519.00,1.64
8518.00,1.64
8517.00,1.64
8516.00,1.64
8515.00,1.64
8514.00,1.65
8513.00,1.65
8512.00,1.65
8511.00,1.65
8510.00,1.66
8509.00,1.66
8508.00,1.66
8507.00,1.67
8506.00,1.67
8505.00,1.67
8504.00,1.67
8503.00,1.68
8502.00,1.68
8501.00,1.67
8500.00,1.67
8499.00,1.67
8498.00,1.67
8497.00,1.67
8496.00,1.67
8495.00,1.67
8494.00,1.67
8493.00,1.67
8492.00,1.67
8491.00,1.67
8490.00,1.67
8489.00,1.67
8488.00,1.67
8487.00,1.67
8486.00,1.67
8485.00,1.67
8484.00,1.67
8483.00,1.68
8482.00,1.68
8481.00,1.68
8480.00,1.69
8479.00,1.69
8478.00,1.69
8477.00,1.69
8476.00,1.69
8475.00,1.69
8474.00,1.69
8473.00,1.69
8472.00,1.69
8471.00,1.69
8470.00,1.69
8469.00,1.69
8468.00,1.68
8467.00,1.68
8466.00,1.67
8465.00,1.67
8464.00,1.66
8463.00,1.65
8462.00,1.65
8461.00,1.64
8460.00,1.63
8459.00,1.62
8458.00,1.62
8457.00,1.61
8456.00,1.60
8455.00,1.60
8454.00,1.59
8453.00,1.58
8452.00,1.58
8451.00,1.57
8450.00,1.57
8449.00,1.56
8448.00,1.56
8447.00,1.56
8446.00,1.56
8445.00,1.57
8444.00,1.57
8443.00,1.57
8442.00,1.58
8441.00,1.58
8440.00,1.59
8439.00,1.60
8438.00,1.61
8437.00,1.62
8436.00,1.62
8435.00,1.63
8434.00,1.64
8433.00,1.65
8432.00,1.66
8431.00,1.67
8430.00,1.68
8429.00,1.69
8428.00,1.69
8427.00,1.70
8426.00,1.70
8425.00,1.70
8424.00,1.70
8423.00,1.70
8422.00,1.70
8421.00,1.70
8420.00,1.70
8419.00,1.70
8418.00,1.69
8417.00,1.69
8416.00,1.69
8415.00,1.68
8414.00,1.68
8413.00,1.67
8412.00,1.66
8411.00,1.66
8410.00,1.66
8409.00,1.65
8408.00,1.65
8407.00,1.64
8406.00,1.64
8405.00,1.63
8404.00,1.63
8403.00,1.62
8402.00,1.61
8401.00,1.61
8400.00,1.60
8399.00,1.59
8398.00,1.59
8397.00,1.58
8396.00,1.57
8395.00,1.57
8394.00,1.56
8393.00,1.56
8392.00,1.56
8391.00,1.55
8390.00,1.55
8389.00,1.55
8388.00,1.55
8387.00,1.56
8386.00,1.56
8385.00,1.57
8384.00,1.57
8383.00,1.58
8382.00,1.59
8381.00,1.59
8380.00,1.60
8379.00,1.61
8378.00,1.61
8377.00,1.62
8376.00,1.62
8375.00,1.63
8374.00,1.63
8373.00,1.63
8372.00,1.63
8371.00,1.63
8370.00,1.64
8369.00,1.64
8368.00,1.64
8367.00,1.64
8366.00,1.64
8365.00,1.63
8364.00,1.63
8363.00,1.63
8362.00,1.63
8361.00,1.63
8360.00,1.63
8359.00,1.63
8358.00,1.64
8357.00,1.64
8356.00,1.64
8355.00,1.64
8354.00,1.64
8353.00,1.64
8352.00,1.65
8351.00,1.65
8350.00,1.65
8349.00,1.65
8348.00,1.65
8347.00,1.65
8346.00,1.66
8345.00,1.66
8344.00,1.67
8343.00,1.67
8342.00,1.67
8341.00,1.68
8340.00,1.68
8339.00,1.68
8338.00,1.69
8337.00,1.69
8336.00,1.69
8335.00,1.70
8334.00,1.70
8333.00,1.70
8332.00,1.70
8331.00,1.71
8330.00,1.71
8329.00,1.71
8328.00,1.71
8327.00,1.70
8326.00,1.70
8325.00,1.70
8324.00,1.70
8323.00,1.70
8322.00,1.69
8321.00,1.69
8320.00,1.69
8319.00,1.69
8318.00,1.68
8317.00,1.68
8316.00,1.67
8315.00,1.67
8314.00,1.67
8313.00,1.67
8312.00,1.67
8311.00,1.67
8310.00,1.67
8309.00,1.67
8308.00,1.67
8307.00,1.68
8306.00,1.68
8305.00,1.68
8304.00,1.69
8303.00,1.70
8302.00,1.70
8301.00,1.71
8300.00,1.72
8299.00,1.72
8298.00,1.73
8297.00,1.74
8296.00,1.74
8295.00,1.74
8294.00,1.74
8293.00,1.74
8292.00,1.74
8291.00,1.74
8290.00,1.74
8289.00,1.73
8288.00,1.73
8287.00,1.73
8286.00,1.72
8285.00,1.72
8284.00,1.71
8283.00,1.71
8282.00,1.70
8281.00,1.70
8280.00,1.69
8279.00,1.69
8278.00,1.69
8277.00,1.68
8276.00,1.68
8275.00,1.68
8274.00,1.68
8273.00,1.67
8272.00,1.67
8271.00,1.67
8270.00,1.67
8269.00,1.66
8268.00,1.66
8267.00,1.65
8266.00,1.65
8265.00,1.65
8264.00,1.64
8263.00,1.64
8262.00,1.64
8261.00,1.64
8260.00,1.64
8259.00,1.64
8258.00,1.64
8257.00,1.64
8256.00,1.64
8255.00,1.64
8254.00,1.64
8253.00,1.64
8252.00,1.64
8251.00,1.65
8250.00,1.65
8249.00,1.66
8248.00,1.66
8247.00,1.67
8246.00,1.67
8245.00,1.68
8244.00,1.68
8243.00,1.68
8242.00,1.69
8241.00,1.69
8240.00,1.69
8239.00,1.69
8238.00,1.69
8237.00,1.69
8236.00,1.69
8235.00,1.69
8234.00,1.69
8233.00,1.69
8232.00,1.69
8231.00,1.69
8230.00,1.69
8229.00,1.69
8228.00,1.69
8227.00,1.69
8226.00,1.69
8225.00,1.69
8224.00,1.69
8223.00,1.69
8222.00,1.70
8221.00,1.70
8220.00,1.70
8219.00,1.71
8218.00,1.71
8217.00,1.71
8216.00,1.71
8215.00,1.71
8214.00,1.71
8213.00,1.72
8212.00,1.72
8211.00,1.72
8210.00,1.72
8209.00,1.72
8208.00,1.72
8207.00,1.72
8206.00,1.73
8205.00,1.73
8204.00,1.73
8203.00,1.73
8202.00,1.73
8201.00,1.73
8200.00,1.73
8199.00,1.73
8198.00,1.74
8197.00,1.74
8196.00,1.74
8195.00,1.74
8194.00,1.74
8193.00,1.74
8192.00,1.75
8191.00,1.75
8190.00,1.75
8189.00,1.75
8188.00,1.75
8187.00,1.75
8186.00,1.75
8185.00,1.75
8184.00,1.75
8183.00,1.75
8182.00,1.75
8181.00,1.76
8180.00,1.76
8179.00,1.76
8178.00,1.76
8177.00,1.76
8176.00,1.77
8175.00,1.77
8174.00,1.77
8173.00,1.77
8172.00,1.78
8171.00,1.78
8170.00,1.78
8169.00,1.78
8168.00,1.78
8167.00,1.78
8166.00,1.77
8165.00,1.77
8164.00,1.77
8163.00,1.76
8162.00,1.76
8161.00,1.75
8160.00,1.74
8159.00,1.74
8158.00,1.73
8157.00,1.72
8156.00,1.72
8155.00,1.71
8154.00,1.70
8153.00,1.70
8152.00,1.69
8151.00,1.69
8150.00,1.68
8149.00,1.68
8148.00,1.68
8147.00,1.68
8146.00,1.68
8145.00,1.68
8144.00,1.69
8143.00,1.69
8142.00,1.69
8141.00,1.70
8140.00,1.71
8139.00,1.71
8138.00,1.72
8137.00,1.73
8136.00,1.73
8135.00,1.74
8134.00,1.75
8133.00,1.75
8132.00,1.76
8131.00,1.76
8130.00,1.76
8129.00,1.77
8128.00,1.77
8127.00,1.77
8126.00,1.77
8125.00,1.77
8124.00,1.76
8123.00,1.76
8122.00,1.75
8121.00,1.75
8120.00,1.74
8119.00,1.73
8118.00,1.72
8117.00,1.71
8116.00,1.71
8115.00,1.70
8114.00,1.69
8113.00,1.68
8112.00,1.67
8111.00,1.66
8110.00,1.66
8109.00,1.65
8108.00,1.64
8107.00,1.63
8106.00,1.63
8105.00,1.62
8104.00,1.62
8103.00,1.61
8102.00,1.61
8101.00,1.61
8100.00,1.61
8099.00,1.61
8098.00,1.62
8097.00,1.62
8096.00,1.62
8095.00,1.63
8094.00,1.63
8093.00,1.64
8092.00,1.65
8091.00,1.66
8090.00,1.67
8089.00,1.68
8088.00,1.69
8087.00,1.70
8086.00,1.71
8085.00,1.72
8084.00,1.72
8083.00,1.73
8082.00,1.73
8081.00,1.74
8080.00,1.74
8079.00,1.74
8078.00,1.74
8077.00,1.73
8076.00,1.73
8075.00,1.72
8074.00,1.72
8073.00,1.71
8072.00,1.71
8071.00,1.70
8070.00,1.69
8069.00,1.69
8068.00,1.68
8067.00,1.68
8066.00,1.67
8065.00,1.67
8064.00,1.66
8063.00,1.66
8062.00,1.66
8061.00,1.66
8060.00,1.66
8059.00,1.66
8058.00,1.67
8057.00,1.67
8056.00,1.67
8055.00,1.67
8054.00,1.68
8053.00,1.68
8052.00,1.68
8051.00,1.69
8050.00,1.69
8049.00,1.70
8048.00,1.70
8047.00,1.70
8046.00,1.71
8045.00,1.71
8044.00,1.71
8043.00,1.71
8042.00,1.71
8041.00,1.71
8040.00,1.71
8039.00,1.71
8038.00,1.70
8037.00,1.70
8036.00,1.70
8035.00,1.70
8034.00,1.70
8033.00,1.70
8032.00,1.70
8031.00,1.71
8030.00,1.71
8029.00,1.71
8028.00,1.71
8027.00,1.71
8026.00,1.71
8025.00,1.71
8024.00,1.72
8023.00,1.72
8022.00,1.72
8021.00,1.72
8020.00,1.72
8019.00,1.72
8018.00,1.72
8017.00,1.71
8016.00,1.71
8015.00,1.71
8014.00,1.70
8013.00,1.70
8012.00,1.69
8011.00,1.69
8010.00,1.68
8009.00,1.68
8008.00,1.68
8007.00,1.68
8006.00,1.67
8005.00,1.67
8004.00,1.67
8003.00,1.67
8002.00,1.67
8001.00,1.67
8000.00,1.68
7999.00,1.68
7998.00,1.68
7997.00,1.68
7996.00,1.69
7995.00,1.69
7994.00,1.69
7993.00,1.69
7992.00,1.69
7991.00,1.69
7990.00,1.69
7989.00,1.69
7988.00,1.69
7987.00,1.69
7986.00,1.68
7985.00,1.68
7984.00,1.67
7983.00,1.67
7982.00,1.66
7981.00,1.66
7980.00,1.65
7979.00,1.64
7978.00,1.64
7977.00,1.64
7976.00,1.63
7975.00,1.63
7974.00,1.63
7973.00,1.64
7972.00,1.64
7971.00,1.64
7970.00,1.65
7969.00,1.65
7968.00,1.66
7967.00,1.67
7966.00,1.68
7965.00,1.69
7964.00,1.70
7963.00,1.71
7962.00,1.72
7961.00,1.73
7960.00,1.74
7959.00,1.75
7958.00,1.75
7957.00,1.76
7956.00,1.77
7955.00,1.77
7954.00,1.78
7953.00,1.78
7952.00,1.78
7951.00,1.78
7950.00,1.78
7949.00,1.78
7948.00,1.78
7947.00,1.77
7946.00,1.77
7945.00,1.76
7944.00,1.75
7943.00,1.75
7942.00,1.74
7941.00,1.73
7940.00,1.72
7939.00,1.71
7938.00,1.71
7937.00,1.70
7936.00,1.69
7935.00,1.69
7934.00,1.69
7933.00,1.68
7932.00,1.68
7931.00,1.68
7930.00,1.68
7929.00,1.69
7928.00,1.69
7927.00,1.69
7926.00,1.69
7925.00,1.70
7924.00,1.70
7923.00,1.71
7922.00,1.71
7921.00,1.71
7920.00,1.72
7919.00,1.72
7918.00,1.71
7917.00,1.71
7916.00,1.71
7915.00,1.71
7914.00,1.70
7913.00,1.70
7912.00,1.69
7911.00,1.69
7910.00,1.68
7909.00,1.67
7908.00,1.67
7907.00,1.66
7906.00,1.65
7905.00,1.65
7904.00,1.64
7903.00,1.64
7902.00,1.63
7901.00,1.63
7900.00,1.62
7899.00,1.62
7898.00,1.62
7897.00,1.62
7896.00,1.61
7895.00,1.61
7894.00,1.61
7893.00,1.61
7892.00,1.61
7891.00,1.62
7890.00,1.62
7889.00,1.62
7888.00,1.63
7887.00,1.64
7886.00,1.64
7885.00,1.65
7884.00,1.66
7883.00,1.67
7882.00,1.67
7881.00,1.68
7880.00,1.69
7879.00,1.70
7878.00,1.70
7877.00,1.71
7876.00,1.71
7875.00,1.72
7874.00,1.72
7873.00,1.72
7872.00,1.73
7871.00,1.73
7870.00,1.73
7869.00,1.73
7868.00,1.73
7867.00,1.73
7866.00,1.73
7865.00,1.73
7864.00,1.73
7863.00,1.73
7862.00,1.73
7861.00,1.73
7860.00,1.73
7859.00,1.73
7858.00,1.73
7857.00,1.74
7856.00,1.74
7855.00,1.74
7854.00,1.74
7853.00,1.75
7852.00,1.75
7851.00,1.75
7850.00,1.76
7849.00,1.76
7848.00,1.76
7847.00,1.76
7846.00,1.77
7845.00,1.77
7844.00,1.77
7843.00,1.77
7842.00,1.77
7841.00,1.77
7840.00,1.77
7839.00,1.77
7838.00,1.77
7837.00,1.77
7836.00,1.77
7835.00,1.77
7834.00,1.77
7833.00,1.77
7832.00,1.77
7831.00,1.77
7830.00,1.76
7829.00,1.76
7828.00,1.76
7827.00,1.76
7826.00,1.76
7825.00,1.75
7824.00,1.75
7823.00,1.75
7822.00,1.75
7821.00,1.74
7820.00,1.74
7819.00,1.74
7818.00,1.73
7817.00,1.73
7816.00,1.72
7815.00,1.72
7814.00,1.71
7813.00,1.71
7812.00,1.71
7811.00,1.70
7810.00,1.70
7809.00,1.70
7808.00,1.69
7807.00,1.69
7806.00,1.69
7805.00,1.69
7804.00,1.69
7803.00,1.69
7802.00,1.69
7801.00,1.69
7800.00,1.70
7799.00,1.70
7798.00,1.70
7797.00,1.71
7796.00,1.71
7795.00,1.71
7794.00,1.72
7793.00,1.72
7792.00,1.72
7791.00,1.73
7790.00,1.73
7789.00,1.73
7788.00,1.73
7787.00,1.73
7786.00,1.73
7785.00,1.73
7784.00,1.73
7783.00,1.73
7782.00,1.73
7781.00,1.74
7780.00,1.74
7779.00,1.74
7778.00,1.74
7777.00,1.74
7776.00,1.74
7775.00,1.74
7774.00,1.75
7773.00,1.75
7772.00,1.75
7771.00,1.75
7770.00,1.75
7769.00,1.76
7768.00,1.76
7767.00,1.76
7766.00,1.76
7765.00,1.76
7764.00,1.76
7763.00,1.76
7762.00,1.76
7761.00,1.76
7760.00,1.76
7759.00,1.76
7758.00,1.76
7757.00,1.76
7756.00,1.76
7755.00,1.76
7754.00,1.76
7753.00,1.75
7752.00,1.75
7751.00,1.75
7750.00,1.74
7749.00,1.74
7748.00,1.73
7747.00,1.72
7746.00,1.72
7745.00,1.71
7744.00,1.71
7743.00,1.70
7742.00,1.70
7741.00,1.69
7740.00,1.69
7739.00,1.68
7738.00,1.68
7737.00,1.67
7736.00,1.67
7735.00,1.67
7734.00,1.67
7733.00,1.67
7732.00,1.67
7731.00,1.67
7730.00,1.67
7729.00,1.68
7728.00,1.68
7727.00,1.68
7726.00,1.68
7725.00,1.68
7724.00,1.69
7723.00,1.69
7722.00,1.69
7721.00,1.70
7720.00,1.70
7719.00,1.71
7718.00,1.71
7717.00,1.72
7716.00,1.72
7715.00,1.72
7714.00,1.72
7713.00,1.73
7712.00,1.73
7711.00,1.73
7710.00,1.73
7709.00,1.74
7708.00,1.74
7707.00,1.74
7706.00,1.74
7705.00,1.74
7704.00,1.74
7703.00,1.74
7702.00,1.74
7701.00,1.74
7700.00,1.74
7699.00,1.74
7698.00,1.74
7697.00,1.75
7696.00,1.75
7695.00,1.75
7694.00,1.75
7693.00,1.76
7692.00,1.76
7691.00,1.76
7690.00,1.77
7689.00,1.77
7688.00,1.78
7687.00,1.79
7686.00,1.79
7685.00,1.80
7684.00,1.80
7683.00,1.81
7682.00,1.81
7681.00,1.82
7680.00,1.82
7679.00,1.83
7678.00,1.83
7677.00,1.84
7676.00,1.84
7675.00,1.84
7674.00,1.84
7673.00,1.84
7672.00,1.84
7671.00,1.84
7670.00,1.84
7669.00,1.83
7668.00,1.83
7667.00,1.82
7666.00,1.82
7665.00,1.81
7664.00,1.81
7663.00,1.80
7662.00,1.79
7661.00,1.78
7660.00,1.77
7659.00,1.77
7658.00,1.76
7657.00,1.75
7656.00,1.74
7655.00,1.74
7654.00,1.73
7653.00,1.73
7652.00,1.72
7651.00,1.72
7650.00,1.72
7649.00,1.71
7648.00,1.71
7647.00,1.71
7646.00,1.71
7645.00,1.70
7644.00,1.70
7643.00,1.70
7642.00,1.70
7641.00,1.70
7640.00,1.70
7639.00,1.71
7638.00,1.71
7637.00,1.71
7636.00,1.72
7635.00,1.72
7634.00,1.73
7633.00,1.73
7632.00,1.74
7631.00,1.74
7630.00,1.75
7629.00,1.75
7628.00,1.76
7627.00,1.76
7626.00,1.76
7625.00,1.77
7624.00,1.77
7623.00,1.77
7622.00,1.76
7621.00,1.76
7620.00,1.76
7619.00,1.75
7618.00,1.75
7617.00,1.74
7616.00,1.73
7615.00,1.72
7614.00,1.71
7613.00,1.70
7612.00,1.69
7611.00,1.68
7610.00,1.67
7609.00,1.67
7608.00,1.66
7607.00,1.65
7606.00,1.64
7605.00,1.63
7604.00,1.63
7603.00,1.62
7602.00,1.62
7601.00,1.61
7600.00,1.61
7599.00,1.61
7598.00,1.61
7597.00,1.61
7596.00,1.62
7595.00,1.62
7594.00,1.63
7593.00,1.64
7592.00,1.65
7591.00,1.66
7590.00,1.67
7589.00,1.68
7588.00,1.69
7587.00,1.69
7586.00,1.70
7585.00,1.71
7584.00,1.72
7583.00,1.73
7582.00,1.73
7581.00,1.74
7580.00,1.74
7579.00,1.74
7578.00,1.74
7577.00,1.74
7576.00,1.74
7575.00,1.74
7574.00,1.74
7573.00,1.74
7572.00,1.73
7571.00,1.73
7570.00,1.73
7569.00,1.73
7568.00,1.72
7567.00,1.72
7566.00,1.72
7565.00,1.72
7564.00,1.72
7563.00,1.72
7562.00,1.72
7561.00,1.72
7560.00,1.72
7559.00,1.73
7558.00,1.73
7557.00,1.73
7556.00,1.74
7555.00,1.74
7554.00,1.74
7553.00,1.75
7552.00,1.75
7551.00,1.75
7550.00,1.75
7549.00,1.75
7548.00,1.75
7547.00,1.75
7546.00,1.75
7545.00,1.75
7544.00,1.75
7543.00,1.75
7542.00,1.75
7541.00,1.75
7540.00,1.75
7539.00,1.75
7538.00,1.75
7537.00,1.75
7536.00,1.75
7535.00,1.75
7534.00,1.75
7533.00,1.75
7532.00,1.75
7531.00,1.75
7530.00,1.75
7529.00,1.75
7528.00,1.74
7527.00,1.74
7526.00,1.74
7525.00,1.73
7524.00,1.73
7523.00,1.73
7522.00,1.72
7521.00,1.72
7520.00,1.71
7519.00,1.71
7518.00,1.70
7517.00,1.70
7516.00,1.70
7515.00,1.69
7514.00,1.69
7513.00,1.69
7512.00,1.69
7511.00,1.69
7510.00,1.69
7509.00,1.69
7508.00,1.69
7507.00,1.69
7506.00,1.69
7505.00,1.70
7504.00,1.70
7503.00,1.70
7502.00,1.70
7501.00,1.71
7500.00,1.71
7499.00,1.71
7498.00,1.71
7497.00,1.71
7496.00,1.71
7495.00,1.71
7494.00,1.71
7493.00,1.71
7492.00,1.71
7491.00,1.71
7490.00,1.71
7489.00,1.71
7488.00,1.71
7487.00,1.71
7486.00,1.70
7485.00,1.70
7484.00,1.70
7483.00,1.70
7482.00,1.70
7481.00,1.70
7480.00,1.70
7479.00,1.70
7478.00,1.70
7477.00,1.70
7476.00,1.70
7475.00,1.70
7474.00,1.70
7473.00,1.70
7472.00,1.70
7471.00,1.70
7470.00,1.70
7469.00,1.70
7468.00,1.70
7467.00,1.70
7466.00,1.70
7465.00,1.70
7464.00,1.70
7463.00,1.70
7462.00,1.70
7461.00,1.70
7460.00,1.70
7459.00,1.70
7458.00,1.70
7457.00,1.70
7456.00,1.70
7455.00,1.70
7454.00,1.70
7453.00,1.70
7452.00,1.70
7451.00,1.70
7450.00,1.70
7449.00,1.70
7448.00,1.70
7447.00,1.70
7446.00,1.70
7445.00,1.70
7444.00,1.70
7443.00,1.70
7442.00,1.70
7441.00,1.71
7440.00,1.71
7439.00,1.71
7438.00,1.71
7437.00,1.71
7436.00,1.71
7435.00,1.71
7434.00,1.72
7433.00,1.72
7432.00,1.72
7431.00,1.72
7430.00,1.72
7429.00,1.72
7428.00,1.72
7427.00,1.72
7426.00,1.72
7425.00,1.71
7424.00,1.71
7423.00,1.71
7422.00,1.71
7421.00,1.70
7420.00,1.70
7419.00,1.70
7418.00,1.70
7417.00,1.69
7416.00,1.69
7415.00,1.69
7414.00,1.69
7413.00,1.69
7412.00,1.69
7411.00,1.69
7410.00,1.69
7409.00,1.69
7408.00,1.69
7407.00,1.69
7406.00,1.69
7405.00,1.70
7404.00,1.70
7403.00,1.70
7402.00,1.70
7401.00,1.71
7400.00,1.71
7399.00,1.71
7398.00,1.72
7397.00,1.72
7396.00,1.72
7395.00,1.72
7394.00,1.73
7393.00,1.73
7392.00,1.73
7391.00,1.73
7390.00,1.73
7389.00,1.73
7388.00,1.72
7387.00,1.72
7386.00,1.72
7385.00,1.71
7384.00,1.71
7383.00,1.70
7382.00,1.70
7381.00,1.70
7380.00,1.69
7379.00,1.69
7378.00,1.68
7377.00,1.68
7376.00,1.68
7375.00,1.68
7374.00,1.68
7373.00,1.68
7372.00,1.68
7371.00,1.68
7370.00,1.69
7369.00,1.69
7368.00,1.70
7367.00,1.70
7366.00,1.71
7365.00,1.71
7364.00,1.72
7363.00,1.72
7362.00,1.73
7361.00,1.73
7360.00,1.74
7359.00,1.74
7358.00,1.74
7357.00,1.75
7356.00,1.75
7355.00,1.75
7354.00,1.74
7353.00,1.74
7352.00,1.74
7351.00,1.74
7350.00,1.73
7349.00,1.73
7348.00,1.73
7347.00,1.73
7346.00,1.73
7345.00,1.72
7344.00,1.72
7343.00,1.72
7342.00,1.72
7341.00,1.72
7340.00,1.71
7339.00,1.71
7338.00,1.71
7337.00,1.71
7336.00,1.71
7335.00,1.71
7334.00,1.71
7333.00,1.71
7332.00,1.71
7331.00,1.71
7330.00,1.71
7329.00,1.71
7328.00,1.71
7327.00,1.71
7326.00,1.71
7325.00,1.71
7324.00,1.71
7323.00,1.71
7322.00,1.71
7321.00,1.71
7320.00,1.71
7319.00,1.71
7318.00,1.71
7317.00,1.71
7316.00,1.71
7315.00,1.71
7314.00,1.71
7313.00,1.71
7312.00,1.71
7311.00,1.71
7310.00,1.70
7309.00,1.70
7308.00,1.70
7307.00,1.70
7306.00,1.70
7305.00,1.70
7304.00,1.70
7303.00,1.70
7302.00,1.70
7301.00,1.70
7300.00,1.70
7299.00,1.70
7298.00,1.70
7297.00,1.70
7296.00,1.70
7295.00,1.70
7294.00,1.70
7293.00,1.70
7292.00,1.69
7291.00,1.69
7290.00,1.69
7289.00,1.68
7288.00,1.68
7287.00,1.67
7286.00,1.67
7285.00,1.66
7284.00,1.65
7283.00,1.65
7282.00,1.64
7281.00,1.64
7280.00,1.63
7279.00,1.63
7278.00,1.62
7277.00,1.62
7276.00,1.62
7275.00,1.62
7274.00,1.62
7273.00,1.62
7272.00,1.62
7271.00,1.62
7270.00,1.62
7269.00,1.62
7268.00,1.63
7267.00,1.63
7266.00,1.63
7265.00,1.63
7264.00,1.64
7263.00,1.64
7262.00,1.64
7261.00,1.64
7260.00,1.64
7259.00,1.64
7258.00,1.64
7257.00,1.64
7256.00,1.64
7255.00,1.64
7254.00,1.64
7253.00,1.64
7252.00,1.64
7251.00,1.64
7250.00,1.64
7249.00,1.64
7248.00,1.64
7247.00,1.65
7246.00,1.65
7245.00,1.65
7244.00,1.65
7243.00,1.65
7242.00,1.65
7241.00,1.65
7240.00,1.65
7239.00,1.65
7238.00,1.65
7237.00,1.65
7236.00,1.65
7235.00,1.65
7234.00,1.64
7233.00,1.64
7232.00,1.63
7231.00,1.62
7230.00,1.62
7229.00,1.61
7228.00,1.60
7227.00,1.59
7226.00,1.59
7225.00,1.58
7224.00,1.57
7223.00,1.56
7222.00,1.54
7221.00,1.53
7220.00,1.52
7219.00,1.51
7218.00,1.51
7217.00,1.50
7216.00,1.49
7215.00,1.48
7214.00,1.48
7213.00,1.47
7212.00,1.47
7211.00,1.46
7210.00,1.46
7209.00,1.46
7208.00,1.46
7207.00,1.46
7206.00,1.46
7205.00,1.46
7204.00,1.46
7203.00,1.47
7202.00,1.47
7201.00,1.47
7200.00,1.48
7199.00,1.48
7198.00,1.48
7197.00,1.48
7196.00,1.48
7195.00,1.48
7194.00,1.48
7193.00,1.48
7192.00,1.48
7191.00,1.48
7190.00,1.47
7189.00,1.47
7188.00,1.47
7187.00,1.46
7186.00,1.46
7185.00,1.45
7184.00,1.45
7183.00,1.45
7182.00,1.44
7181.00,1.44
7180.00,1.44
7179.00,1.44
7178.00,1.44
7177.00,1.44
7176.00,1.44
7175.00,1.44
7174.00,1.44
7173.00,1.44
7172.00,1.44
7171.00,1.43
7170.00,1.43
7169.00,1.43
7168.00,1.43
7167.00,1.43
7166.00,1.42
7165.00,1.42
7164.00,1.42
7163.00,1.41
7162.00,1.41
7161.00,1.40
7160.00,1.39
7159.00,1.39
7158.00,1.38
7157.00,1.38
7156.00,1.37
7155.00,1.37
7154.00,1.36
7153.00,1.35
7152.00,1.35
7151.00,1.34
7150.00,1.34
7149.00,1.33
7148.00,1.33
7147.00,1.33
7146.00,1.32
7145.00,1.32
7144.00,1.32
7143.00,1.31
7142.00,1.31
7141.00,1.31
7140.00,1.31
7139.00,1.31
7138.00,1.30
7137.00,1.30
7136.00,1.30
7135.00,1.30
7134.00,1.30
7133.00,1.30
7132.00,1.30
7131.00,1.30
7130.00,1.30
7129.00,1.30
7128.00,1.30
7127.00,1.30
7126.00,1.30
7125.00,1.30
7124.00,1.29
7123.00,1.29
7122.00,1.29
7121.00,1.29
7120.00,1.29
7119.00,1.28
7118.00,1.28
7117.00,1.27
7116.00,1.27
7115.00,1.26
7114.00,1.26
7113.00,1.25
7112.00,1.24
7111.00,1.23
7110.00,1.23
7109.00,1.22
7108.00,1.22
7107.00,1.21
7106.00,1.20
7105.00,1.20
7104.00,1.19
7103.00,1.19
7102.00,1.19
7101.00,1.18
7100.00,1.18
7099.00,1.18
7098.00,1.18
7097.00,1.18
7096.00,1.18
7095.00,1.18
7094.00,1.18
7093.00,1.18
7092.00,1.18
7091.00,1.18
7090.00,1.18
7089.00,1.17
7088.00,1.17
7087.00,1.17
7086.00,1.17
7085.00,1.17
7084.00,1.17
7083.00,1.16
7082.00,1.16
7081.00,1.16
7080.00,1.16
7079.00,1.16
7078.00,1.16
7077.00,1.16
7076.00,1.16
7075.00,1.16
7074.00,1.15
7073.00,1.15
7072.00,1.15
7071.00,1.15
7070.00,1.15
7069.00,1.14
7068.00,1.14
7067.00,1.14
7066.00,1.13
7065.00,1.13
7064.00,1.13
7063.00,1.12
7062.00,1.12
7061.00,1.11
7060.00,1.11
7059.00,1.11
7058.00,1.11
7057.00,1.11
7056.00,1.11
7055.00,1.10
7054.00,1.10
7053.00,1.10
7052.00,1.10
7051.00,1.10
7050.00,1.10
7049.00,1.09
7048.00,1.09
7047.00,1.09
7046.00,1.09
7045.00,1.08
7044.00,1.08
7043.00,1.07
7042.00,1.07
7041.00,1.07
7040.00,1.06
7039.00,1.06
7038.00,1.06
7037.00,1.06
7036.00,1.06
7035.00,1.06
7034.00,1.07
7033.00,1.07
7032.00,1.07
7031.00,1.07
7030.00,1.08
7029.00,1.08
7028.00,1.09
7027.00,1.09
7026.00,1.09
7025.00,1.10
7024.00,1.10
7023.00,1.10
7022.00,1.10
7021.00,1.10
7020.00,1.10
7019.00,1.10
7018.00,1.10
7017.00,1.09
7016.00,1.09
7015.00,1.09
7014.00,1.08
7013.00,1.08
7012.00,1.07
7011.00,1.07
7010.00,1.07
7009.00,1.06
7008.00,1.06
7007.00,1.05
7006.00,1.05
7005.00,1.04
7004.00,1.04
7003.00,1.03
7002.00,1.03
7001.00,1.03
7000.00,1.03
6999.00,1.02
6998.00,1.02
6997.00,1.02
6996.00,1.02
6995.00,1.02
6994.00,1.01
6993.00,1.01
6992.00,1.01
6991.00,1.01
6990.00,1.01
6989.00,1.01
6988.00,1.01
6987.00,1.01
6986.00,1.02
6985.00,1.02
6984.00,1.02
6983.00,1.02
6982.00,1.02
6981.00,1.02
6980.00,1.02
6979.00,1.02
6978.00,1.02
6977.00,1.01
6976.00,1.01
6975.00,1.01
6974.00,1.01
6973.00,1.01
6972.00,1.01
6971.00,1.00
6970.00,1.00
6969.00,1.00
6968.00,1.00
6967.00,1.00
6966.00,1.00
6965.00,1.00
6964.00,1.00
6963.00,1.00
6962.00,1.00
6961.00,1.01
6960.00,1.01
6959.00,1.01
6958.00,1.01
6957.00,1.01
6956.00,1.02
6955.00,1.02
6954.00,1.02
6953.00,1.02
6952.00,1.03
6951.00,1.03
6950.00,1.03
6949.00,1.03
6948.00,1.04
6947.00,1.04
6946.00,1.04
6945.00,1.05
6944.00,1.05
6943.00,1.05
6942.00,1.05
6941.00,1.05
6940.00,1.06
6939.00,1.06
6938.00,1.06
6937.00,1.06
6936.00,1.06
6935.00,1.06
6934.00,1.06
6933.00,1.05
6932.00,1.05
6931.00,1.05
6930.00,1.05
6929.00,1.05
6928.00,1.04
6927.00,1.04
6926.00,1.04
6925.00,1.04
6924.00,1.04
6923.00,1.04
6922.00,1.03
6921.00,1.03
6920.00,1.03
6919.00,1.03
6918.00,1.03
6917.00,1.03
6916.00,1.03
6915.00,1.03
6914.00,1.03
6913.00,1.03
6912.00,1.03
6911.00,1.03
6910.00,1.03
6909.00,1.03
6908.00,1.03
6907.00,1.03
6906.00,1.03
6905.00,1.03
6904.00,1.03
6903.00,1.03
6902.00,1.03
6901.00,1.03
6900.00,1.03
6899.00,1.04
6898.00,1.04
6897.00,1.04
6896.00,1.04
6895.00,1.04
6894.00,1.04
6893.00,1.05
6892.00,1.05
6891.00,1.05
6890.00,1.06
6889.00,1.06
6888.00,1.06
6887.00,1.06
6886.00,1.06
6885.00,1.06
6884.00,1.06
6883.00,1.06
6882.00,1.06
6881.00,1.06
6880.00,1.06
6879.00,1.06
6878.00,1.06
6877.00,1.06
6876.00,1.05
6875.00,1.05
6874.00,1.05
6873.00,1.04
6872.00,1.04
6871.00,1.04
6870.00,1.04
6869.00,1.04
6868.00,1.03
6867.00,1.03
6866.00,1.03
6865.00,1.03
6864.00,1.03
6863.00,1.03
6862.00,1.03
6861.00,1.04
6860.00,1.04
6859.00,1.04
6858.00,1.04
6857.00,1.04
6856.00,1.05
6855.00,1.05
6854.00,1.05
6853.00,1.05
6852.00,1.05
6851.00,1.06
6850.00,1.06
6849.00,1.06
6848.00,1.06
6847.00,1.06
6846.00,1.06
6845.00,1.06
6844.00,1.06
6843.00,1.06
6842.00,1.06
6841.00,1.06
6840.00,1.06
6839.00,1.06
6838.00,1.06
6837.00,1.06
6836.00,1.06
6835.00,1.05
6834.00,1.05
6833.00,1.05
6832.00,1.05
6831.00,1.05
6830.00,1.05
6829.00,1.05
6828.00,1.05
6827.00,1.05
6826.00,1.05
6825.00,1.06
6824.00,1.06
6823.00,1.06
6822.00,1.06
6821.00,1.07
6820.00,1.07
6819.00,1.07
6818.00,1.08
6817.00,1.08
6816.00,1.08
6815.00,1.09
6814.00,1.09
6813.00,1.09
6812.00,1.09
6811.00,1.09
6810.00,1.09
6809.00,1.09
6808.00,1.09
6807.00,1.09
6806.00,1.09
6805.00,1.09
6804.00,1.09
6803.00,1.09
6802.00,1.09
6801.00,1.09
6800.00,1.09
6799.00,1.09
6798.00,1.09
6797.00,1.09
6796.00,1.09
6795.00,1.09
6794.00,1.09
6793.00,1.09
6792.00,1.09
6791.00,1.09
6790.00,1.09
6789.00,1.09
6788.00,1.09
6787.00,1.09
6786.00,1.09
6785.00,1.09
6784.00,1.09
6783.00,1.09
6782.00,1.09
6781.00,1.10
6780.00,1.10
6779.00,1.10
6778.00,1.10
6777.00,1.10
6776.00,1.11
6775.00,1.11
6774.00,1.11
6773.00,1.12
6772.00,1.12
6771.00,1.12
6770.00,1.13
6769.00,1.13
6768.00,1.13
6767.00,1.13
6766.00,1.13
6765.00,1.14
6764.00,1.14
6763.00,1.14
6762.00,1.14
6761.00,1.14
6760.00,1.15
6759.00,1.15
6758.00,1.15
6757.00,1.15
6756.00,1.16
6755.00,1.16
6754.00,1.16
6753.00,1.16
6752.00,1.17
6751.00,1.17
6750.00,1.17
6749.00,1.17
6748.00,1.17
6747.00,1.17
6746.00,1.17
6745.00,1.17
6744.00,1.17
6743.00,1.17
6742.00,1.17
6741.00,1.16
6740.00,1.16
6739.00,1.16
6738.00,1.15
6737.00,1.15
6736.00,1.14
6735.00,1.14
6734.00,1.14
6733.00,1.13
6732.00,1.13
6731.00,1.13
6730.00,1.13
6729.00,1.12
6728.00,1.12
6727.00,1.12
6726.00,1.13
6725.00,1.13
6724.00,1.13
6723.00,1.13
6722.00,1.14
6721.00,1.14
6720.00,1.15
6719.00,1.15
6718.00,1.16
6717.00,1.16
6716.00,1.17
6715.00,1.17
6714.00,1.17
6713.00,1.18
6712.00,1.18
6711.00,1.18
6710.00,1.19
6709.00,1.19
6708.00,1.19
6707.00,1.19
6706.00,1.20
6705.00,1.20
6704.00,1.20
6703.00,1.20
6702.00,1.20
6701.00,1.21
6700.00,1.21
6699.00,1.21
6698.00,1.21
6697.00,1.22
6696.00,1.22
6695.00,1.22
6694.00,1.22
6693.00,1.22
6692.00,1.22
6691.00,1.22
6690.00,1.22
6689.00,1.22
6688.00,1.22
6687.00,1.22
6686.00,1.22
6685.00,1.22
6684.00,1.22
6683.00,1.21
6682.00,1.21
6681.00,1.21
6680.00,1.21
6679.00,1.21
6678.00,1.21
6677.00,1.21
6676.00,1.21
6675.00,1.21
6674.00,1.22
6673.00,1.22
6672.00,1.22
6671.00,1.23
6670.00,1.23
6669.00,1.23
6668.00,1.24
6667.00,1.24
6666.00,1.25
6665.00,1.25
6664.00,1.26
6663.00,1.26
6662.00,1.26
6661.00,1.26
6660.00,1.26
6659.00,1.26
6658.00,1.26
6657.00,1.26
6656.00,1.25
6655.00,1.25
6654.00,1.25
6653.00,1.24
6652.00,1.24
6651.00,1.24
6650.00,1.24
6649.00,1.23
6648.00,1.23
6647.00,1.23
6646.00,1.23
6645.00,1.23
6644.00,1.23
6643.00,1.23
6642.00,1.23
6641.00,1.23
6640.00,1.24
6639.00,1.24
6638.00,1.24
6637.00,1.25
6636.00,1.25
6635.00,1.26
6634.00,1.26
6633.00,1.27
6632.00,1.27
6631.00,1.27
6630.00,1.28
6629.00,1.28
6628.00,1.29
6627.00,1.29
6626.00,1.29
6625.00,1.30
6624.00,1.30
6623.00,1.30
6622.00,1.30
6621.00,1.30
6620.00,1.30
6619.00,1.30
6618.00,1.30
6617.00,1.30
6616.00,1.30
6615.00,1.30
6614.00,1.30
6613.00,1.30
6612.00,1.30
6611.00,1.30
6610.00,1.30
6609.00,1.30
6608.00,1.30
6607.00,1.30
6606.00,1.30
6605.00,1.30
6604.00,1.30
6603.00,1.30
6602.00,1.30
6601.00,1.30
6600.00,1.31
6599.00,1.31
6598.00,1.31
6597.00,1.31
6596.00,1.32
6595.00,1.32
6594.00,1.32
6593.00,1.33
6592.00,1.33
6591.00,1.33
6590.00,1.34
6589.00,1.34
6588.00,1.34
6587.00,1.35
6586.00,1.35
6585.00,1.35
6584.00,1.35
6583.00,1.35
6582.00,1.35
6581.00,1.35
6580.00,1.34
6579.00,1.34
6578.00,1.34
6577.00,1.34
6576.00,1.34
6575.00,1.34
6574.00,1.33
6573.00,1.33
6572.00,1.33
6571.00,1.33
6570.00,1.33
6569.00,1.33
6568.00,1.33
6567.00,1.33
6566.00,1.34
6565.00,1.34
6564.00,1.34
6563.00,1.34
6562.00,1.35
6561.00,1.35
6560.00,1.35
6559.00,1.35
6558.00,1.36
6557.00,1.36
6556.00,1.36
6555.00,1.36
6554.00,1.37
6553.00,1.37
6552.00,1.37
6551.00,1.37
6550.00,1.37
6549.00,1.37
6548.00,1.38
6547.00,1.38
6546.00,1.38
6545.00,1.38
6544.00,1.38
6543.00,1.39
6542.00,1.39
6541.00,1.39
6540.00,1.40
6539.00,1.40
6538.00,1.40
6537.00,1.41
6536.00,1.41
6535.00,1.42
6534.00,1.42
6533.00,1.43
6532.00,1.43
6531.00,1.44
6530.00,1.44
6529.00,1.45
6528.00,1.45
6527.00,1.45
6526.00,1.45
6525.00,1.46
6524.00,1.46
6523.00,1.46
6522.00,1.46
6521.00,1.46
6520.00,1.46
6519.00,1.45
6518.00,1.45
6517.00,1.45
6516.00,1.45
6515.00,1.44
6514.00,1.44
6513.00,1.44
6512.00,1.44
6511.00,1.43
6510.00,1.43
6509.00,1.43
6508.00,1.43
6507.00,1.43
6506.00,1.43
6505.00,1.43
6504.00,1.43
6503.00,1.43
6502.00,1.43
6501.00,1.44
6500.00,1.44
6499.00,1.44
6498.00,1.45
6497.00,1.45
6496.00,1.45
6495.00,1.46
6494.00,1.46
6493.00,1.47
6492.00,1.47
6491.00,1.47
6490.00,1.48
6489.00,1.48
6488.00,1.48
6487.00,1.48
6486.00,1.49
6485.00,1.49
6484.00,1.49
6483.00,1.49
6482.00,1.49
6481.00,1.49
6480.00,1.49
6479.00,1.49
6478.00,1.49
6477.00,1.48
6476.00,1.48
6475.00,1.48
6474.00,1.48
6473.00,1.48
6472.00,1.48
6471.00,1.48
6470.00,1.48
6469.00,1.48
6468.00,1.48
6467.00,1.48
6466.00,1.48
6465.00,1.48
6464.00,1.48
6463.00,1.48
6462.00,1.49
6461.00,1.49
6460.00,1.49
6459.00,1.49
6458.00,1.50
6457.00,1.50
6456.00,1.50
6455.00,1.50
6454.00,1.51
6453.00,1.51
6452.00,1.51
6451.00,1.51
6450.00,1.51
6449.00,1.52
6448.00,1.52
6447.00,1.52
6446.00,1.52
6445.00,1.52
6444.00,1.52
6443.00,1.52
6442.00,1.52
6441.00,1.52
6440.00,1.52
6439.00,1.53
6438.00,1.53
6437.00,1.53
6436.00,1.53
6435.00,1.53
6434.00,1.54
6433.00,1.54
6432.00,1.54
6431.00,1.54
6430.00,1.54
6429.00,1.55
6428.00,1.55
6427.00,1.55
6426.00,1.55
6425.00,1.55
6424.00,1.55
6423.00,1.55
6422.00,1.55
6421.00,1.55
6420.00,1.55
6419.00,1.54
6418.00,1.54
6417.00,1.54
6416.00,1.54
6415.00,1.54
6414.00,1.54
6413.00,1.54
6412.00,1.54
6411.00,1.54
6410.00,1.54
6409.00,1.54
6408.00,1.54
6407.00,1.54
6406.00,1.54
6405.00,1.54
6404.00,1.54
6403.00,1.54
6402.00,1.54
6401.00,1.54
6400.00,1.54
6399.00,1.54
6398.00,1.54
6397.00,1.54
6396.00,1.54
6395.00,1.55
6394.00,1.55
6393.00,1.55
6392.00,1.55
6391.00,1.55
6390.00,1.56
6389.00,1.56
6388.00,1.56
6387.00,1.57
6386.00,1.57
6385.00,1.57
6384.00,1.58
6383.00,1.58
6382.00,1.59
6381.00,1.59
6380.00,1.59
6379.00,1.59
6378.00,1.60
6377.00,1.60
6376.00,1.60
6375.00,1.60
6374.00,1.59
6373.00,1.59
6372.00,1.59
6371.00,1.59
6370.00,1.59
6369.00,1.59
6368.00,1.59
6367.00,1.59
6366.00,1.59
6365.00,1.59
6364.00,1.59
6363.00,1.59
6362.00,1.58
6361.00,1.58
6360.00,1.58
6359.00,1.58
6358.00,1.58
6357.00,1.58
6356.00,1.58
6355.00,1.58
6354.00,1.58
6353.00,1.58
6352.00,1.58
6351.00,1.58
6350.00,1.59
6349.00,1.59
6348.00,1.59
6347.00,1.59
6346.00,1.59
6345.00,1.59
6344.00,1.59
6343.00,1.59
6342.00,1.59
6341.00,1.59
6340.00,1.60
6339.00,1.60
6338.00,1.60
6337.00,1.60
6336.00,1.60
6335.00,1.60
6334.00,1.60
6333.00,1.60
6332.00,1.60
6331.00,1.60
6330.00,1.60
6329.00,1.61
6328.00,1.61
6327.00,1.61
6326.00,1.61
6325.00,1.61
6324.00,1.62
6323.00,1.62
6322.00,1.62
6321.00,1.62
6320.00,1.62
6319.00,1.62
6318.00,1.62
6317.00,1.62
6316.00,1.62
6315.00,1.62
6314.00,1.62
6313.00,1.62
6312.00,1.62
6311.00,1.62
6310.00,1.62
6309.00,1.62
6308.00,1.62
6307.00,1.62
6306.00,1.62
6305.00,1.62
6304.00,1.62
6303.00,1.62
6302.00,1.63
6301.00,1.63
6300.00,1.63
6299.00,1.63
6298.00,1.63
6297.00,1.63
6296.00,1.64
6295.00,1.64
6294.00,1.64
6293.00,1.64
6292.00,1.64
6291.00,1.64
6290.00,1.64
6289.00,1.64
6288.00,1.64
6287.00,1.64
6286.00,1.64
6285.00,1.63
6284.00,1.63
6283.00,1.63
6282.00,1.63
6281.00,1.63
6280.00,1.63
6279.00,1.63
6278.00,1.64
6277.00,1.64
6276.00,1.64
6275.00,1.64
6274.00,1.64
6273.00,1.65
6272.00,1.65
6271.00,1.65
6270.00,1.65
6269.00,1.65
6268.00,1.65
6267.00,1.66
6266.00,1.66
6265.00,1.66
6264.00,1.66
6263.00,1.66
6262.00,1.66
6261.00,1.66
6260.00,1.66
6259.00,1.66
6258.00,1.66
6257.00,1.66
6256.00,1.66
6255.00,1.66
6254.00,1.67
6253.00,1.67
6252.00,1.67
6251.00,1.67
6250.00,1.67
6249.00,1.67
6248.00,1.67
6247.00,1.68
6246.00,1.68
6245.00,1.68
6244.00,1.68
6243.00,1.69
6242.00,1.69
6241.00,1.69
6240.00,1.69
6239.00,1.69
6238.00,1.69
6237.00,1.70
6236.00,1.70
6235.00,1.70
6234.00,1.70
6233.00,1.71
6232.00,1.71
6231.00,1.71
6230.00,1.71
6229.00,1.71
6228.00,1.71
6227.00,1.71
6226.00,1.71
6225.00,1.72
6224.00,1.72
6223.00,1.72
6222.00,1.72
6221.00,1.72
6220.00,1.72
6219.00,1.72
6218.00,1.72
6217.00,1.71
6216.00,1.71
6215.00,1.71
6214.00,1.71
6213.00,1.71
6212.00,1.71
6211.00,1.71
6210.00,1.71
6209.00,1.72
6208.00,1.72
6207.00,1.72
6206.00,1.72
6205.00,1.72
6204.00,1.72
6203.00,1.72
6202.00,1.72
6201.00,1.73
6200.00,1.73
6199.00,1.73
6198.00,1.73
6197.00,1.73
6196.00,1.73
6195.00,1.73
6194.00,1.74
6193.00,1.74
6192.00,1.74
6191.00,1.74
6190.00,1.74
6189.00,1.74
6188.00,1.75
6187.00,1.75
6186.00,1.75
6185.00,1.75
6184.00,1.75
6183.00,1.76
6182.00,1.76
6181.00,1.76
6180.00,1.76
6179.00,1.76
6178.00,1.76
6177.00,1.76
6176.00,1.76
6175.00,1.76
6174.00,1.76
6173.00,1.75
6172.00,1.75
6171.00,1.75
6170.00,1.75
6169.00,1.75
6168.00,1.75
6167.00,1.75
6166.00,1.75
6165.00,1.75
6164.00,1.75
6163.00,1.75
6162.00,1.75
6161.00,1.75
6160.00,1.75
6159.00,1.75
6158.00,1.75
6157.00,1.74
6156.00,1.74
6155.00,1.74
6154.00,1.74
6153.00,1.74
6152.00,1.74
6151.00,1.74
6150.00,1.74
6149.00,1.74
6148.00,1.75
6147.00,1.75
6146.00,1.75
6145.00,1.75
6144.00,1.75
6143.00,1.76
6142.00,1.76
6141.00,1.77
6140.00,1.77
6139.00,1.77
6138.00,1.78
6137.00,1.78
6136.00,1.79
6135.00,1.79
6134.00,1.80
6133.00,1.80
6132.00,1.80
6131.00,1.80
6130.00,1.80
6129.00,1.81
6128.00,1.81
6127.00,1.81
6126.00,1.80
6125.00,1.80
6124.00,1.80
6123.00,1.80
6122.00,1.80
6121.00,1.80
6120.00,1.80
6119.00,1.80
6118.00,1.80
6117.00,1.80
6116.00,1.80
6115.00,1.80
6114.00,1.80
6113.00,1.80
6112.00,1.80
6111.00,1.80
6110.00,1.80
6109.00,1.80
6108.00,1.80
6107.00,1.80
6106.00,1.80
6105.00,1.80
6104.00,1.80
6103.00,1.80
6102.00,1.80
6101.00,1.80
6100.00,1.80
6099.00,1.80
6098.00,1.80
6097.00,1.80
6096.00,1.81
6095.00,1.81
6094.00,1.81
6093.00,1.81
6092.00,1.81
6091.00,1.81
6090.00,1.81
6089.00,1.81
6088.00,1.81
6087.00,1.81
6086.00,1.81
6085.00,1.81
6084.00,1.81
6083.00,1.81
6082.00,1.81
6081.00,1.81
6080.00,1.81
6079.00,1.81
6078.00,1.81
6077.00,1.81
6076.00,1.81
6075.00,1.81
6074.00,1.81
6073.00,1.81
6072.00,1.81
6071.00,1.81
6070.00,1.81
6069.00,1.82
6068.00,1.82
6067.00,1.82
6066.00,1.82
6065.00,1.82
6064.00,1.82
6063.00,1.82
6062.00,1.82
6061.00,1.82
6060.00,1.81
6059.00,1.81
6058.00,1.81
6057.00,1.81
6056.00,1.81
6055.00,1.81
6054.00,1.80
6053.00,1.80
6052.00,1.80
6051.00,1.80
6050.00,1.80
6049.00,1.80
6048.00,1.80
6047.00,1.80
6046.00,1.80
6045.00,1.80
6044.00,1.80
6043.00,1.80
6042.00,1.80
6041.00,1.80
6040.00,1.80
6039.00,1.80
6038.00,1.81
6037.00,1.81
6036.00,1.81
6035.00,1.81
6034.00,1.81
6033.00,1.81
6032.00,1.82
6031.00,1.82
6030.00,1.82
6029.00,1.82
6028.00,1.82
6027.00,1.82
6026.00,1.82
6025.00,1.82
6024.00,1.81
6023.00,1.81
6022.00,1.81
6021.00,1.81
6020.00,1.81
6019.00,1.81
6018.00,1.81
6017.00,1.80
6016.00,1.80
6015.00,1.80
6014.00,1.80
6013.00,1.80
6012.00,1.80
6011.00,1.80
6010.00,1.80
6009.00,1.80
6008.00,1.81
6007.00,1.81
6006.00,1.81
6005.00,1.81
6004.00,1.81
6003.00,1.81
6002.00,1.81
6001.00,1.81
6000.00,1.81
5999.00,1.81
5998.00,1.81
5997.00,1.81
5996.00,1.81
5995.00,1.81
5994.00,1.81
5993.00,1.81
5992.00,1.81
5991.00,1.81
5990.00,1.81
5989.00,1.81
5988.00,1.81
5987.00,1.82
5986.00,1.82
5985.00,1.82
5984.00,1.82
5983.00,1.82
5982.00,1.82
5981.00,1.82
5980.00,1.82
5979.00,1.82
5978.00,1.82
5977.00,1.82
5976.00,1.82
5975.00,1.82
5974.00,1.82
5973.00,1.82
5972.00,1.82
5971.00,1.82
5970.00,1.81
5969.00,1.81
5968.00,1.81
5967.00,1.81
5966.00,1.80
5965.00,1.80
5964.00,1.80
5963.00,1.80
5962.00,1.80
5961.00,1.80
5960.00,1.80
5959.00,1.80
5958.00,1.80
5957.00,1.80
5956.00,1.81
5955.00,1.81
5954.00,1.81
5953.00,1.81
5952.00,1.82
5951.00,1.82
5950.00,1.82
5949.00,1.82
5948.00,1.83
5947.00,1.83
5946.00,1.83
5945.00,1.83
5944.00,1.83
5943.00,1.83
5942.00,1.83
5941.00,1.83
5940.00,1.83
5939.00,1.83
5938.00,1.83
5937.00,1.83
5936.00,1.82
5935.00,1.82
5934.00,1.82
5933.00,1.82
5932.00,1.82
5931.00,1.82
5930.00,1.81
5929.00,1.81
5928.00,1.81
5927.00,1.81
5926.00,1.81
5925.00,1.81
5924.00,1.81
5923.00,1.81
5922.00,1.81
5921.00,1.81
5920.00,1.82
5919.00,1.82
5918.00,1.82
5917.00,1.82
5916.00,1.82
5915.00,1.82
5914.00,1.82
5913.00,1.82
5912.00,1.82
5911.00,1.82
5910.00,1.82
5909.00,1.82
5908.00,1.82
5907.00,1.82
5906.00,1.81
5905.00,1.81
5904.00,1.81
5903.00,1.81
5902.00,1.81
5901.00,1.80
5900.00,1.80
5899.00,1.80
5898.00,1.80
5897.00,1.80
5896.00,1.80
5895.00,1.80
5894.00,1.80
5893.00,1.80
5892.00,1.80
5891.00,1.80
5890.00,1.80
5889.00,1.80
5888.00,1.80
5887.00,1.80
5886.00,1.80
5885.00,1.80
5884.00,1.80
5883.00,1.80
5882.00,1.80
5881.00,1.81
5880.00,1.81
5879.00,1.81
5878.00,1.81
5877.00,1.81
5876.00,1.81
5875.00,1.81
5874.00,1.82
5873.00,1.82
5872.00,1.82
5871.00,1.82
5870.00,1.82
5869.00,1.82
5868.00,1.82
5867.00,1.82
5866.00,1.82
5865.00,1.82
5864.00,1.82
5863.00,1.82
5862.00,1.82
5861.00,1.82
5860.00,1.83
5859.00,1.83
5858.00,1.83
5857.00,1.83
5856.00,1.83
5855.00,1.83
5854.00,1.83
5853.00,1.84
5852.00,1.84
5851.00,1.84
5850.00,1.84
5849.00,1.84
5848.00,1.84
5847.00,1.84
5846.00,1.84
5845.00,1.84
5844.00,1.84
5843.00,1.84
5842.00,1.84
5841.00,1.84
5840.00,1.83
5839.00,1.83
5838.00,1.83
5837.00,1.83
5836.00,1.83
5835.00,1.83
5834.00,1.83
5833.00,1.83
5832.00,1.83
5831.00,1.83
5830.00,1.83
5829.00,1.83
5828.00,1.83
5827.00,1.83
5826.00,1.83
5825.00,1.83
5824.00,1.83
5823.00,1.83
5822.00,1.83
5821.00,1.83
5820.00,1.83
5819.00,1.82
5818.00,1.82
5817.00,1.82
5816.00,1.82
5815.00,1.82
5814.00,1.82
5813.00,1.82
5812.00,1.81
5811.00,1.81
5810.00,1.81
5809.00,1.81
5808.00,1.81
5807.00,1.81
5806.00,1.81
5805.00,1.81
5804.00,1.81
5803.00,1.81
5802.00,1.81
5801.00,1.81
5800.00,1.82
5799.00,1.82
5798.00,1.82
5797.00,1.82
5796.00,1.82
5795.00,1.82
5794.00,1.83
5793.00,1.83
5792.00,1.83
5791.00,1.83
5790.00,1.83
5789.00,1.83
5788.00,1.84
5787.00,1.84
5786.00,1.84
5785.00,1.84
5784.00,1.84
5783.00,1.84
5782.00,1.84
5781.00,1.84
5780.00,1.84
5779.00,1.84
5778.00,1.84
5777.00,1.84
5776.00,1.84
5775.00,1.84
5774.00,1.84
5773.00,1.84
5772.00,1.84
5771.00,1.84
5770.00,1.83
5769.00,1.83
5768.00,1.83
5767.00,1.83
5766.00,1.83
5765.00,1.83
5764.00,1.83
5763.00,1.82
5762.00,1.82
5761.00,1.82
5760.00,1.82
5759.00,1.82
5758.00,1.82
5757.00,1.82
5756.00,1.82
5755.00,1.81
5754.00,1.81
5753.00,1.81
5752.00,1.81
5751.00,1.81
5750.00,1.81
5749.00,1.81
5748.00,1.81
5747.00,1.81
5746.00,1.81
5745.00,1.81
5744.00,1.81
5743.00,1.81
5742.00,1.81
5741.00,1.81
5740.00,1.81
5739.00,1.81
5738.00,1.81
5737.00,1.81
5736.00,1.81
5735.00,1.82
5734.00,1.82
5733.00,1.82
5732.00,1.82
5731.00,1.82
5730.00,1.83
5729.00,1.83
5728.00,1.83
5727.00,1.83
5726.00,1.83
5725.00,1.83
5724.00,1.83
5723.00,1.84
5722.00,1.84
5721.00,1.84
5720.00,1.84
5719.00,1.84
5718.00,1.84
5717.00,1.84
5716.00,1.83
5715.00,1.83
5714.00,1.83
5713.00,1.83
5712.00,1.83
5711.00,1.83
5710.00,1.83
5709.00,1.83
5708.00,1.82
5707.00,1.82
5706.00,1.82
5705.00,1.82
5704.00,1.82
5703.00,1.82
5702.00,1.82
5701.00,1.82
5700.00,1.82
5699.00,1.82
5698.00,1.82
5697.00,1.82
5696.00,1.82
5695.00,1.82
5694.00,1.82
5693.00,1.82
5692.00,1.82
5691.00,1.82
5690.00,1.82
5689.00,1.82
5688.00,1.81
5687.00,1.81
5686.00,1.81
5685.00,1.81
5684.00,1.81
5683.00,1.80
5682.00,1.80
5681.00,1.80
5680.00,1.80
5679.00,1.80
5678.00,1.79
5677.00,1.79
5676.00,1.79
5675.00,1.79
5674.00,1.79
5673.00,1.79
5672.00,1.78
5671.00,1.78
5670.00,1.78
5669.00,1.78
5668.00,1.78
5667.00,1.78
5666.00,1.78
5665.00,1.78
5664.00,1.78
5663.00,1.78
5662.00,1.78
5661.00,1.78
5660.00,1.78
5659.00,1.78
5658.00,1.78
5657.00,1.79
5656.00,1.79
5655.00,1.79
5654.00,1.79
5653.00,1.80
5652.00,1.80
5651.00,1.80
5650.00,1.80
5649.00,1.80
5648.00,1.80
5647.00,1.80
5646.00,1.80
5645.00,1.80
5644.00,1.80
5643.00,1.80
5642.00,1.80
5641.00,1.79
5640.00,1.79
5639.00,1.79
5638.00,1.79
5637.00,1.79
5636.00,1.78
5635.00,1.78
5634.00,1.78
5633.00,1.78
5632.00,1.78
5631.00,1.78
5630.00,1.79
5629.00,1.79
5628.00,1.79
5627.00,1.79
5626.00,1.79
5625.00,1.79
5624.00,1.80
5623.00,1.80
5622.00,1.80
5621.00,1.80
5620.00,1.80
5619.00,1.80
5618.00,1.80
5617.00,1.79
5616.00,1.79
5615.00,1.79
5614.00,1.79
5613.00,1.79
5612.00,1.79
5611.00,1.79
5610.00,1.79
5609.00,1.79
5608.00,1.79
5607.00,1.79
5606.00,1.79
5605.00,1.79
5604.00,1.79
5603.00,1.79
5602.00,1.79
5601.00,1.79
5600.00,1.79
5599.00,1.79
5598.00,1.79
5597.00,1.79
5596.00,1.79
5595.00,1.79
5594.00,1.79
5593.00,1.79
5592.00,1.79
5591.00,1.79
5590.00,1.79
5589.00,1.79
5588.00,1.79
5587.00,1.79
5586.00,1.79
5585.00,1.79
5584.00,1.79
5583.00,1.79
5582.00,1.79
5581.00,1.79
5580.00,1.79
5579.00,1.79
5578.00,1.79
5577.00,1.79
5576.00,1.79
5575.00,1.80
5574.00,1.80
5573.00,1.80
5572.00,1.80
5571.00,1.81
5570.00,1.81
5569.00,1.81
5568.00,1.81
5567.00,1.81
5566.00,1.81
5565.00,1.81
5564.00,1.81
5563.00,1.81
5562.00,1.81
5561.00,1.81
5560.00,1.81
5559.00,1.81
5558.00,1.81
5557.00,1.81
5556.00,1.81
5555.00,1.81
5554.00,1.81
5553.00,1.81
5552.00,1.81
5551.00,1.81
5550.00,1.81
5549.00,1.81
5548.00,1.81
5547.00,1.81
5546.00,1.82
5545.00,1.82
5544.00,1.82
5543.00,1.82
5542.00,1.83
5541.00,1.83
5540.00,1.83
5539.00,1.83
5538.00,1.83
5537.00,1.83
5536.00,1.83
5535.00,1.84
5534.00,1.84
5533.00,1.84
5532.00,1.84
5531.00,1.84
5530.00,1.84
5529.00,1.84
5528.00,1.84
5527.00,1.83
5526.00,1.83
5525.00,1.83
5524.00,1.83
5523.00,1.83
5522.00,1.83
5521.00,1.83
5520.00,1.82
5519.00,1.82
5518.00,1.82
5517.00,1.82
5516.00,1.82
5515.00,1.82
5514.00,1.82
5513.00,1.82
5512.00,1.82
5511.00,1.82
5510.00,1.82
5509.00,1.82
5508.00,1.82
5507.00,1.82
5506.00,1.82
5505.00,1.82
5504.00,1.82
5503.00,1.82
5502.00,1.82
5501.00,1.83
5500.00,1.83
5499.00,1.83
5498.00,1.83
5497.00,1.83
5496.00,1.83
5495.00,1.83
5494.00,1.83
5493.00,1.83
5492.00,1.84
5491.00,1.84
5490.00,1.84
5489.00,1.84
5488.00,1.84
5487.00,1.84
5486.00,1.84
5485.00,1.84
5484.00,1.85
5483.00,1.85
5482.00,1.85
5481.00,1.85
5480.00,1.85
5479.00,1.85
5478.00,1.85
5477.00,1.85
5476.00,1.85
5475.00,1.85
5474.00,1.85
5473.00,1.85
5472.00,1.85
5471.00,1.85
5470.00,1.85
5469.00,1.85
5468.00,1.85
5467.00,1.85
5466.00,1.85
5465.00,1.85
5464.00,1.85
5463.00,1.84
5462.00,1.84
5461.00,1.84
5460.00,1.84
5459.00,1.84
5458.00,1.84
5457.00,1.84
5456.00,1.84
5455.00,1.84
5454.00,1.83
5453.00,1.83
5452.00,1.83
5451.00,1.83
5450.00,1.83
5449.00,1.83
5448.00,1.82
5447.00,1.82
5446.00,1.82
5445.00,1.82
5444.00,1.82
5443.00,1.82
5442.00,1.82
5441.00,1.82
5440.00,1.81
5439.00,1.81
5438.00,1.81
5437.00,1.81
5436.00,1.81
5435.00,1.81
5434.00,1.81
5433.00,1.82
5432.00,1.82
5431.00,1.82
5430.00,1.82
5429.00,1.82
5428.00,1.82
5427.00,1.82
5426.00,1.82
5425.00,1.82
5424.00,1.82
5423.00,1.82
5422.00,1.82
5421.00,1.82
5420.00,1.82
5419.00,1.82
5418.00,1.82
5417.00,1.82
5416.00,1.82
5415.00,1.82
5414.00,1.82
5413.00,1.82
5412.00,1.83
5411.00,1.83
5410.00,1.83
5409.00,1.83
5408.00,1.83
5407.00,1.83
5406.00,1.83
5405.00,1.83
5404.00,1.82
5403.00,1.82
5402.00,1.82
5401.00,1.82
5400.00,1.81
5399.00,1.81
5398.00,1.81
5397.00,1.81
5396.00,1.80
5395.00,1.80
5394.00,1.80
5393.00,1.80
5392.00,1.79
5391.00,1.79
5390.00,1.79
5389.00,1.78
5388.00,1.78
5387.00,1.78
5386.00,1.78
5385.00,1.77
5384.00,1.77
5383.00,1.76
5382.00,1.76
5381.00,1.76
5380.00,1.75
5379.00,1.75
5378.00,1.74
5377.00,1.73
5376.00,1.73
5375.00,1.72
5374.00,1.71
5373.00,1.71
5372.00,1.70
5371.00,1.70
5370.00,1.69
5369.00,1.69
5368.00,1.68
5367.00,1.68
5366.00,1.67
5365.00,1.66
5364.00,1.66
5363.00,1.65
5362.00,1.65
5361.00,1.64
5360.00,1.64
5359.00,1.63
5358.00,1.63
5357.00,1.62
5356.00,1.62
5355.00,1.61
5354.00,1.60
5353.00,1.60
5352.00,1.59
5351.00,1.58
5350.00,1.58
5349.00,1.57
5348.00,1.56
5347.00,1.55
5346.00,1.54
5345.00,1.54
5344.00,1.53
5343.00,1.52
5342.00,1.51
5341.00,1.50
5340.00,1.50
5339.00,1.49
5338.00,1.48
5337.00,1.47
5336.00,1.46
5335.00,1.46
5334.00,1.45
5333.00,1.44
5332.00,1.43
5331.00,1.42
5330.00,1.42
5329.00,1.41
5328.00,1.40
5327.00,1.39
5326.00,1.38
5325.00,1.37
5324.00,1.36
5323.00,1.35
5322.00,1.34
5321.00,1.33
5320.00,1.32
5319.00,1.31
5318.00,1.30
5317.00,1.29
5316.00,1.28
5315.00,1.27
5314.00,1.26
5313.00,1.25
5312.00,1.24
5311.00,1.23
5310.00,1.21
5309.00,1.20
5308.00,1.19
5307.00,1.18
5306.00,1.17
5305.00,1.17
5304.00,1.16
5303.00,1.15
5302.00,1.14
5301.00,1.13
5300.00,1.12
5299.00,1.12
5298.00,1.11
5297.00,1.10
5296.00,1.09
5295.00,1.09
5294.00,1.08
5293.00,1.07
5292.00,1.07
5291.00,1.06
5290.00,1.05
5289.00,1.05
5288.00,1.04
5287.00,1.04
5286.00,1.03
5285.00,1.02
5284.00,1.02
5283.00,1.01
5282.00,1.00
5281.00,0.99
5280.00,0.99
5279.00,0.98
5278.00,0.97
5277.00,0.97
5276.00,0.96
5275.00,0.95
5274.00,0.94
5273.00,0.94
5272.00,0.93
5271.00,0.93
5270.00,0.92
5269.00,0.92
5268.00,0.91
5267.00,0.91
5266.00,0.91
5265.00,0.91
5264.00,0.90
5263.00,0.90
5262.00,0.90
5261.00,0.90
5260.00,0.90
5259.00,0.90
5258.00,0.90
5257.00,0.90
5256.00,0.89
5255.00,0.89
5254.00,0.89
5253.00,0.89
5252.00,0.89
5251.00,0.89
5250.00,0.88
5249.00,0.88
5248.00,0.88
5247.00,0.87
5246.00,0.87
5245.00,0.87
5244.00,0.86
5243.00,0.86
5242.00,0.86
5241.00,0.85
5240.00,0.85
5239.00,0.85
5238.00,0.84
5237.00,0.84
5236.00,0.84
5235.00,0.84
5234.00,0.83
5233.00,0.83
5232.00,0.83
5231.00,0.83
5230.00,0.83
5229.00,0.83
5228.00,0.83
5227.00,0.83
5226.00,0.82
5225.00,0.82
5224.00,0.82
5223.00,0.82
5222.00,0.82
5221.00,0.82
5220.00,0.82
5219.00,0.82
5218.00,0.82
5217.00,0.82
5216.00,0.82
5215.00,0.82
5214.00,0.82
5213.00,0.83
5212.00,0.83
5211.00,0.83
5210.00,0.83
5209.00,0.83
5208.00,0.83
5207.00,0.83
5206.00,0.83
5205.00,0.83
5204.00,0.83
5203.00,0.83
5202.00,0.83
5201.00,0.83
5200.00,0.83
5199.00,0.83
5198.00,0.83
5197.00,0.83
5196.00,0.82
5195.00,0.82
5194.00,0.82
5193.00,0.81
5192.00,0.81
5191.00,0.81
5190.00,0.81
5189.00,0.80
5188.00,0.80
5187.00,0.80
5186.00,0.80
5185.00,0.80
5184.00,0.80
5183.00,0.80
5182.00,0.80
5181.00,0.80
5180.00,0.80
5179.00,0.80
5178.00,0.80
5177.00,0.80
5176.00,0.80
5175.00,0.80
5174.00,0.80
5173.00,0.80
5172.00,0.80
5171.00,0.81
5170.00,0.81
5169.00,0.81
5168.00,0.81
5167.00,0.81
5166.00,0.81
5165.00,0.81
5164.00,0.82
5163.00,0.82
5162.00,0.82
5161.00,0.82
5160.00,0.82
5159.00,0.83
5158.00,0.83
5157.00,0.83
5156.00,0.83
5155.00,0.83
5154.00,0.83
5153.00,0.84
5152.00,0.84
5151.00,0.84
5150.00,0.84
5149.00,0.85
5148.00,0.85
5147.00,0.85
5146.00,0.85
5145.00,0.86
5144.00,0.86
5143.00,0.86
5142.00,0.86
5141.00,0.87
5140.00,0.87
5139.00,0.87
5138.00,0.87
5137.00,0.87
5136.00,0.88
5135.00,0.88
5134.00,0.88
5133.00,0.88
5132.00,0.88
5131.00,0.88
5130.00,0.88
5129.00,0.88
5128.00,0.88
5127.00,0.88
5126.00,0.88
5125.00,0.88
5124.00,0.88
5123.00,0.88
5122.00,0.88
5121.00,0.88
5120.00,0.88
5119.00,0.87
5118.00,0.87
5117.00,0.87
5116.00,0.87
5115.00,0.86
5114.00,0.86
5113.00,0.86
5112.00,0.86
5111.00,0.86
5110.00,0.86
5109.00,0.86
5108.00,0.86
5107.00,0.86
5106.00,0.86
5105.00,0.86
5104.00,0.86
5103.00,0.86
5102.00,0.87
5101.00,0.87
5100.00,0.87
5099.00,0.87
5098.00,0.88
5097.00,0.88
5096.00,0.88
5095.00,0.88
5094.00,0.88
5093.00,0.88
5092.00,0.88
5091.00,0.89
5090.00,0.89
5089.00,0.89
5088.00,0.89
5087.00,0.89
5086.00,0.89
5085.00,0.89
5084.00,0.89
5083.00,0.89
5082.00,0.89
5081.00,0.89
5080.00,0.89
5079.00,0.89
5078.00,0.89
5077.00,0.89
5076.00,0.89
5075.00,0.90
5074.00,0.90
5073.00,0.90
5072.00,0.90
5071.00,0.90
5070.00,0.91
5069.00,0.91
5068.00,0.91
5067.00,0.91
5066.00,0.91
5065.00,0.92
5064.00,0.92
5063.00,0.92
5062.00,0.92
5061.00,0.92
5060.00,0.92
5059.00,0.92
5058.00,0.92
5057.00,0.92
5056.00,0.92
5055.00,0.92
5054.00,0.92
5053.00,0.92
5052.00,0.92
5051.00,0.92
5050.00,0.92
5049.00,0.92
5048.00,0.93
5047.00,0.93
5046.00,0.93
5045.00,0.94
5044.00,0.94
5043.00,0.95
5042.00,0.95
5041.00,0.96
5040.00,0.96
5039.00,0.97
5038.00,0.97
5037.00,0.98
5036.00,0.98
5035.00,0.99
5034.00,0.99
5033.00,0.99
5032.00,1.00
5031.00,1.00
5030.00,1.01
5029.00,1.01
5028.00,1.01
5027.00,1.02
5026.00,1.02
5025.00,1.02
5024.00,1.02
5023.00,1.02
5022.00,1.03
5021.00,1.03
5020.00,1.03
5019.00,1.03
5018.00,1.03
5017.00,1.03
5016.00,1.03
5015.00,1.03
5014.00,1.03
5013.00,1.03
5012.00,1.03
5011.00,1.03
5010.00,1.03
5009.00,1.03
5008.00,1.03
5007.00,1.03
5006.00,1.03
5005.00,1.03
5004.00,1.03
5003.00,1.03
5002.00,1.03
5001.00,1.02
5000.00,1.02
4999.00,1.02
4998.00,1.02
4997.00,1.02
4996.00,1.02
4995.00,1.02
4994.00,1.02
4993.00,1.02
4992.00,1.02
4991.00,1.02
4990.00,1.02
4989.00,1.02
4988.00,1.02
4987.00,1.02
4986.00,1.02
4985.00,1.02
4984.00,1.03
4983.00,1.03
4982.00,1.03
4981.00,1.03
4980.00,1.03
4979.00,1.04
4978.00,1.04
4977.00,1.04
4976.00,1.04
4975.00,1.05
4974.00,1.05
4973.00,1.05
4972.00,1.06
4971.00,1.06
4970.00,1.06
4969.00,1.07
4968.00,1.07
4967.00,1.08
4966.00,1.08
4965.00,1.08
4964.00,1.09
4963.00,1.09
4962.00,1.09
4961.00,1.10
4960.00,1.10
4959.00,1.10
4958.00,1.10
4957.00,1.11
4956.00,1.11
4955.00,1.11
4954.00,1.11
4953.00,1.11
4952.00,1.12
4951.00,1.12
4950.00,1.12
4949.00,1.12
4948.00,1.12
4947.00,1.12
4946.00,1.13
4945.00,1.13
4944.00,1.13
4943.00,1.13
4942.00,1.13
4941.00,1.13
4940.00,1.14
4939.00,1.14
4938.00,1.14
4937.00,1.14
4936.00,1.13
4935.00,1.13
4934.00,1.13
4933.00,1.13
4932.00,1.13
4931.00,1.13
4930.00,1.13
4929.00,1.13
4928.00,1.13
4927.00,1.13
4926.00,1.13
4925.00,1.14
4924.00,1.14
4923.00,1.14
4922.00,1.15
4921.00,1.15
4920.00,1.16
4919.00,1.16
4918.00,1.17
4917.00,1.17
4916.00,1.18
4915.00,1.18
4914.00,1.19
4913.00,1.20
4912.00,1.20
4911.00,1.20
4910.00,1.21
4909.00,1.21
4908.00,1.22
4907.00,1.22
4906.00,1.22
4905.00,1.22
4904.00,1.22
4903.00,1.22
4902.00,1.22
4901.00,1.22
4900.00,1.22
4899.00,1.22
4898.00,1.22
4897.00,1.22
4896.00,1.22
4895.00,1.22
4894.00,1.22
4893.00,1.21
4892.00,1.21
4891.00,1.21
4890.00,1.21
4889.00,1.21
4888.00,1.21
4887.00,1.21
4886.00,1.22
4885.00,1.22
4884.00,1.22
4883.00,1.22
4882.00,1.22
4881.00,1.23
4880.00,1.23
4879.00,1.23
4878.00,1.24
4877.00,1.24
4876.00,1.25
4875.00,1.25
4874.00,1.26
4873.00,1.26
4872.00,1.27
4871.00,1.27
4870.00,1.27
4869.00,1.27
4868.00,1.28
4867.00,1.28
4866.00,1.28
4865.00,1.28
4864.00,1.28
4863.00,1.28
4862.00,1.28
4861.00,1.28
4860.00,1.28
4859.00,1.28
4858.00,1.29
4857.00,1.29
4856.00,1.29
4855.00,1.29
4854.00,1.29
4853.00,1.30
4852.00,1.30
4851.00,1.30
4850.00,1.31
4849.00,1.31
4848.00,1.31
4847.00,1.32
4846.00,1.32
4845.00,1.32
4844.00,1.33
4843.00,1.33
4842.00,1.33
4841.00,1.33
4840.00,1.33
4839.00,1.34
4838.00,1.34
4837.00,1.34
4836.00,1.34
4835.00,1.34
4834.00,1.34
4833.00,1.34
4832.00,1.35
4831.00,1.35
4830.00,1.35
4829.00,1.35
4828.00,1.35
4827.00,1.36
4826.00,1.36
4825.00,1.36
4824.00,1.36
4823.00,1.37
4822.00,1.37
4821.00,1.37
4820.00,1.37
4819.00,1.37
4818.00,1.37
4817.00,1.37
4816.00,1.37
4815.00,1.37
4814.00,1.37
4813.00,1.37
4812.00,1.37
4811.00,1.37
4810.00,1.37
4809.00,1.37
4808.00,1.37
4807.00,1.37
4806.00,1.38
4805.00,1.38
4804.00,1.38
4803.00,1.38
4802.00,1.38
4801.00,1.38
4800.00,1.39
4799.00,1.39
4798.00,1.39
4797.00,1.39
4796.00,1.40
4795.00,1.40
4794.00,1.40
4793.00,1.41
4792.00,1.41
4791.00,1.42
4790.00,1.42
4789.00,1.43
4788.00,1.43
4787.00,1.44
4786.00,1.45
4785.00,1.46
4784.00,1.46
4783.00,1.47
4782.00,1.48
4781.00,1.49
4780.00,1.49
4779.00,1.50
4778.00,1.50
4777.00,1.51
4776.00,1.51
4775.00,1.52
4774.00,1.52
4773.00,1.52
4772.00,1.52
4771.00,1.53
4770.00,1.53
4769.00,1.53
4768.00,1.53
4767.00,1.53
4766.00,1.53
4765.00,1.53
4764.00,1.53
4763.00,1.53
4762.00,1.53
4761.00,1.53
4760.00,1.53
4759.00,1.53
4758.00,1.54
4757.00,1.54
4756.00,1.54
4755.00,1.54
4754.00,1.54
4753.00,1.54
4752.00,1.54
4751.00,1.54
4750.00,1.54
4749.00,1.55
4748.00,1.55
4747.00,1.55
4746.00,1.55
4745.00,1.56
4744.00,1.56
4743.00,1.57
4742.00,1.57
4741.00,1.58
4740.00,1.58
4739.00,1.59
4738.00,1.59
4737.00,1.60
4736.00,1.60
4735.00,1.61
4734.00,1.61
4733.00,1.61
4732.00,1.61
4731.00,1.61
4730.00,1.61
4729.00,1.61
4728.00,1.61
4727.00,1.61
4726.00,1.61
4725.00,1.61
4724.00,1.61
4723.00,1.61
4722.00,1.61
4721.00,1.61
4720.00,1.61
4719.00,1.61
4718.00,1.61
4717.00,1.61
4716.00,1.61
4715.00,1.61
4714.00,1.61
4713.00,1.62
4712.00,1.62
4711.00,1.62
4710.00,1.62
4709.00,1.63
4708.00,1.63
4707.00,1.63
4706.00,1.63
4705.00,1.64
4704.00,1.64
4703.00,1.64
4702.00,1.65
4701.00,1.65
4700.00,1.65
4699.00,1.66
4698.00,1.66
4697.00,1.66
4696.00,1.66
4695.00,1.66
4694.00,1.67
4693.00,1.67
4692.00,1.67
4691.00,1.67
4690.00,1.67
4689.00,1.68
4688.00,1.68
4687.00,1.68
4686.00,1.68
4685.00,1.69
4684.00,1.69
4683.00,1.69
4682.00,1.70
4681.00,1.70
4680.00,1.70
4679.00,1.71
4678.00,1.71
4677.00,1.72
4676.00,1.73
4675.00,1.73
4674.00,1.74
4673.00,1.74
4672.00,1.74
4671.00,1.75
4670.00,1.75
4669.00,1.75
4668.00,1.75
4667.00,1.76
4666.00,1.76
4665.00,1.76
4664.00,1.76
4663.00,1.76
4662.00,1.76
4661.00,1.76
4660.00,1.75
4659.00,1.75
4658.00,1.75
4657.00,1.75
4656.00,1.75
4655.00,1.75
4654.00,1.75
4653.00,1.75
4652.00,1.75
4651.00,1.75
4650.00,1.75
4649.00,1.74
4648.00,1.74
4647.00,1.74
4646.00,1.74
4645.00,1.74
4644.00,1.74
4643.00,1.73
4642.00,1.73
4641.00,1.73
4640.00,1.73
4639.00,1.73
4638.00,1.73
4637.00,1.74
4636.00,1.74
4635.00,1.74
4634.00,1.74
4633.00,1.75
4632.00,1.75
4631.00,1.76
4630.00,1.76
4629.00,1.77
4628.00,1.77
4627.00,1.78
4626.00,1.79
4625.00,1.79
4624.00,1.80
4623.00,1.80
4622.00,1.80
4621.00,1.81
4620.00,1.81
4619.00,1.81
4618.00,1.81
4617.00,1.81
4616.00,1.81
4615.00,1.81
4614.00,1.81
4613.00,1.81
4612.00,1.80
4611.00,1.80
4610.00,1.79
4609.00,1.79
4608.00,1.79
4607.00,1.78
4606.00,1.78
4605.00,1.77
4604.00,1.77
4603.00,1.77
4602.00,1.76
4601.00,1.76
4600.00,1.76
4599.00,1.76
4598.00,1.76
4597.00,1.76
4596.00,1.77
4595.00,1.77
4594.00,1.77
4593.00,1.78
4592.00,1.78
4591.00,1.79
4590.00,1.79
4589.00,1.79
4588.00,1.80
4587.00,1.80
4586.00,1.80
4585.00,1.80
4584.00,1.80
4583.00,1.81
4582.00,1.81
4581.00,1.81
4580.00,1.81
4579.00,1.81
4578.00,1.81
4577.00,1.82
4576.00,1.82
4575.00,1.82
4574.00,1.82
4573.00,1.82
4572.00,1.82
4571.00,1.82
4570.00,1.82
4569.00,1.82
4568.00,1.82
4567.00,1.82
4566.00,1.82
4565.00,1.82
4564.00,1.82
4563.00,1.82
4562.00,1.82
4561.00,1.82
4560.00,1.82
4559.00,1.82
4558.00,1.82
4557.00,1.82
4556.00,1.82
4555.00,1.82
4554.00,1.82
4553.00,1.82
4552.00,1.82
4551.00,1.82
4550.00,1.82
4549.00,1.82
4548.00,1.82
4547.00,1.82
4546.00,1.81
4545.00,1.81
4544.00,1.81
4543.00,1.81
4542.00,1.81
4541.00,1.81
4540.00,1.81
4539.00,1.80
4538.00,1.80
4537.00,1.80
4536.00,1.80
4535.00,1.80
4534.00,1.80
4533.00,1.79
4532.00,1.79
4531.00,1.79
4530.00,1.79
4529.00,1.79
4528.00,1.79
4527.00,1.80
4526.00,1.80
4525.00,1.80
4524.00,1.80
4523.00,1.79
4522.00,1.79
4521.00,1.79
4520.00,1.79
4519.00,1.79
4518.00,1.79
4517.00,1.79
4516.00,1.79
4515.00,1.79
4514.00,1.79
4513.00,1.79
4512.00,1.79
4511.00,1.79
4510.00,1.79
4509.00,1.79
4508.00,1.79
4507.00,1.79
4506.00,1.79
4505.00,1.79
4504.00,1.79
4503.00,1.80
4502.00,1.80
4501.00,1.80
4500.00,1.80
4499.00,1.81
4498.00,1.81
4497.00,1.81
4496.00,1.81
4495.00,1.82
4494.00,1.82
4493.00,1.82
4492.00,1.82
4491.00,1.82
4490.00,1.83
4489.00,1.83
4488.00,1.83
4487.00,1.83
4486.00,1.83
4485.00,1.83
4484.00,1.83
4483.00,1.83
4482.00,1.83
4481.00,1.83
4480.00,1.83
4479.00,1.83
4478.00,1.83
4477.00,1.83
4476.00,1.82
4475.00,1.82
4474.00,1.82
4473.00,1.82
4472.00,1.82
4471.00,1.82
4470.00,1.81
4469.00,1.81
4468.00,1.81
4467.00,1.81
4466.00,1.81
4465.00,1.81
4464.00,1.80
4463.00,1.80
4462.00,1.80
4461.00,1.80
4460.00,1.79
4459.00,1.79
4458.00,1.79
4457.00,1.78
4456.00,1.78
4455.00,1.78
4454.00,1.78
4453.00,1.77
4452.00,1.77
4451.00,1.77
4450.00,1.76
4449.00,1.76
4448.00,1.76
4447.00,1.75
4446.00,1.75
4445.00,1.75
4444.00,1.75
4443.00,1.74
4442.00,1.74
4441.00,1.74
4440.00,1.73
4439.00,1.73
4438.00,1.73
4437.00,1.73
4436.00,1.72
4435.00,1.72
4434.00,1.72
4433.00,1.72
4432.00,1.71
4431.00,1.71
4430.00,1.71
4429.00,1.71
4428.00,1.71
4427.00,1.70
4426.00,1.70
4425.00,1.70
4424.00,1.70
4423.00,1.69
4422.00,1.69
4421.00,1.69
4420.00,1.69
4419.00,1.68
4418.00,1.68
4417.00,1.68
4416.00,1.68
4415.00,1.67
4414.00,1.67
4413.00,1.67
4412.00,1.67
4411.00,1.67
4410.00,1.67
4409.00,1.67
4408.00,1.67
4407.00,1.68
4406.00,1.68
4405.00,1.68
4404.00,1.69
4403.00,1.69
4402.00,1.70
4401.00,1.71
4400.00,1.71
4399.00,1.72
4398.00,1.73
4397.00,1.74
4396.00,1.74
4395.00,1.75
4394.00,1.76
4393.00,1.77
4392.00,1.77
4391.00,1.78
4390.00,1.79
4389.00,1.79
4388.00,1.80
4387.00,1.80
4386.00,1.81
4385.00,1.81
4384.00,1.81
4383.00,1.81
4382.00,1.81
4381.00,1.81
4380.00,1.81
4379.00,1.82
4378.00,1.82
4377.00,1.82
4376.00,1.82
4375.00,1.82
4374.00,1.82
4373.00,1.82
4372.00,1.82
4371.00,1.82
4370.00,1.82
4369.00,1.82
4368.00,1.81
4367.00,1.81
4366.00,1.81
4365.00,1.81
4364.00,1.81
4363.00,1.81
4362.00,1.80
4361.00,1.80
4360.00,1.79
4359.00,1.79
4358.00,1.78
4357.00,1.78
4356.00,1.77
4355.00,1.77
4354.00,1.76
4353.00,1.76
4352.00,1.75
4351.00,1.75
4350.00,1.74
4349.00,1.74
4348.00,1.74
4347.00,1.74
4346.00,1.74
4345.00,1.74
4344.00,1.74
4343.00,1.74
4342.00,1.74
4341.00,1.74
4340.00,1.74
4339.00,1.74
4338.00,1.74
4337.00,1.74
4336.00,1.75
4335.00,1.75
4334.00,1.76
4333.00,1.76
4332.00,1.77
4331.00,1.77
4330.00,1.78
4329.00,1.78
4328.00,1.79
4327.00,1.79
4326.00,1.80
4325.00,1.80
4324.00,1.81
4323.00,1.81
4322.00,1.82
4321.00,1.82
4320.00,1.83
4319.00,1.83
4318.00,1.83
4317.00,1.84
4316.00,1.84
4315.00,1.84
4314.00,1.83
4313.00,1.83
4312.00,1.83
4311.00,1.83
4310.00,1.83
4309.00,1.83
4308.00,1.82
4307.00,1.82
4306.00,1.82
4305.00,1.81
4304.00,1.81
4303.00,1.81
4302.00,1.81
4301.00,1.80
4300.00,1.80
4299.00,1.80
4298.00,1.81
4297.00,1.81
4296.00,1.81
4295.00,1.81
4294.00,1.82
4293.00,1.82
4292.00,1.82
4291.00,1.82
4290.00,1.83
4289.00,1.83
4288.00,1.83
4287.00,1.83
4286.00,1.83
4285.00,1.82
4284.00,1.82
4283.00,1.82
4282.00,1.81
4281.00,1.81
4280.00,1.80
4279.00,1.80
4278.00,1.79
4277.00,1.79
4276.00,1.78
4275.00,1.77
4274.00,1.77
4273.00,1.76
4272.00,1.76
4271.00,1.76
4270.00,1.76
4269.00,1.76
4268.00,1.76
4267.00,1.76
4266.00,1.76
4265.00,1.76
4264.00,1.76
4263.00,1.76
4262.00,1.76
4261.00,1.76
4260.00,1.77
4259.00,1.77
4258.00,1.77
4257.00,1.77
4256.00,1.77
4255.00,1.77
4254.00,1.77
4253.00,1.77
4252.00,1.77
4251.00,1.77
4250.00,1.77
4249.00,1.77
4248.00,1.77
4247.00,1.77
4246.00,1.76
4245.00,1.76
4244.00,1.76
4243.00,1.76
4242.00,1.76
4241.00,1.76
4240.00,1.75
4239.00,1.75
4238.00,1.75
4237.00,1.74
4236.00,1.74
4235.00,1.74
4234.00,1.73
4233.00,1.73
4232.00,1.73
4231.00,1.73
4230.00,1.73
4229.00,1.73
4228.00,1.74
4227.00,1.74
4226.00,1.74
4225.00,1.74
4224.00,1.75
4223.00,1.75
4222.00,1.75
4221.00,1.76
4220.00,1.76
4219.00,1.77
4218.00,1.78
4217.00,1.78
4216.00,1.79
4215.00,1.79
4214.00,1.80
4213.00,1.80
4212.00,1.81
4211.00,1.81
4210.00,1.82
4209.00,1.82
4208.00,1.82
4207.00,1.82
4206.00,1.82
4205.00,1.82
4204.00,1.82
4203.00,1.82
4202.00,1.81
4201.00,1.81
4200.00,1.80
4199.00,1.80
4198.00,1.79
4197.00,1.79
4196.00,1.78
4195.00,1.77
4194.00,1.77
4193.00,1.76
4192.00,1.75
4191.00,1.75
4190.00,1.74
4189.00,1.74
4188.00,1.74
4187.00,1.74
4186.00,1.74
4185.00,1.74
4184.00,1.74
4183.00,1.74
4182.00,1.74
4181.00,1.75
4180.00,1.75
4179.00,1.76
4178.00,1.76
4177.00,1.77
4176.00,1.77
4175.00,1.77
4174.00,1.78
4173.00,1.78
4172.00,1.78
4171.00,1.77
4170.00,1.77
4169.00,1.76
4168.00,1.76
4167.00,1.76
4166.00,1.75
4165.00,1.75
4164.00,1.74
4163.00,1.74
4162.00,1.73
4161.00,1.73
4160.00,1.72
4159.00,1.72
4158.00,1.72
4157.00,1.72
4156.00,1.72
4155.00,1.73
4154.00,1.73
4153.00,1.73
4152.00,1.74
4151.00,1.74
4150.00,1.75
4149.00,1.75
4148.00,1.75
4147.00,1.76
4146.00,1.76
4145.00,1.76
4144.00,1.76
4143.00,1.76
4142.00,1.76
4141.00,1.76
4140.00,1.76
4139.00,1.76
4138.00,1.76
4137.00,1.76
4136.00,1.75
4135.00,1.75
4134.00,1.75
4133.00,1.75
4132.00,1.75
4131.00,1.75
4130.00,1.75
4129.00,1.76
4128.00,1.76
4127.00,1.76
4126.00,1.76
4125.00,1.76
4124.00,1.76
4123.00,1.76
4122.00,1.76
4121.00,1.76
4120.00,1.76
4119.00,1.76
4118.00,1.76
4117.00,1.76
4116.00,1.76
4115.00,1.76
4114.00,1.75
4113.00,1.75
4112.00,1.75
4111.00,1.74
4110.00,1.74
4109.00,1.74
4108.00,1.73
4107.00,1.73
4106.00,1.73
4105.00,1.72
4104.00,1.72
4103.00,1.71
4102.00,1.71
4101.00,1.71
4100.00,1.70
4099.00,1.70
4098.00,1.70
4097.00,1.70
4096.00,1.70
4095.00,1.70
4094.00,1.70
4093.00,1.70
4092.00,1.70
4091.00,1.71
4090.00,1.71
4089.00,1.72
4088.00,1.72
4087.00,1.73
4086.00,1.73
4085.00,1.73
4084.00,1.73
4083.00,1.73
4082.00,1.74
4081.00,1.74
4080.00,1.74
4079.00,1.74
4078.00,1.75
4077.00,1.75
4076.00,1.75
4075.00,1.75
4074.00,1.75
4073.00,1.75
4072.00,1.75
4071.00,1.76
4070.00,1.76
4069.00,1.76
4068.00,1.77
4067.00,1.78
4066.00,1.78
4065.00,1.79
4064.00,1.79
4063.00,1.79
4062.00,1.80
4061.00,1.80
4060.00,1.80
4059.00,1.80
4058.00,1.81
4057.00,1.81
4056.00,1.81
4055.00,1.81
4054.00,1.82
4053.00,1.81
4052.00,1.81
4051.00,1.81
4050.00,1.80
4049.00,1.80
4048.00,1.79
4047.00,1.79
4046.00,1.79
4045.00,1.78
4044.00,1.78
4043.00,1.78
4042.00,1.77
4041.00,1.77
4040.00,1.77
4039.00,1.76
4038.00,1.76
4037.00,1.76
4036.00,1.76
4035.00,1.76
4034.00,1.76
4033.00,1.76
4032.00,1.76
4031.00,1.77
4030.00,1.77
4029.00,1.77
4028.00,1.78
4027.00,1.78
4026.00,1.78
4025.00,1.79
4024.00,1.79
4023.00,1.80
4022.00,1.81
4021.00,1.81
4020.00,1.82
4019.00,1.83
4018.00,1.83
4017.00,1.84
4016.00,1.84
4015.00,1.85
4014.00,1.86
4013.00,1.86
4012.00,1.87
4011.00,1.89
4010.00,1.90
4009.00,1.91
4008.00,1.92
4007.00,1.93
4006.00,1.95
4005.00,1.96
4004.00,1.98
4003.00,1.99
4002.00,2.01
4001.00,2.03
4000.00,2.05
