创建为新数据集,样品 728 用户 Administrator 日期 星期四, 七月 25 2019
cm-1,%T
10000.00,1.45
9999.00,1.50
9998.00,1.56
9997.00,1.61
9996.00,1.65
9995.00,1.70
9994.00,1.74
9993.00,1.79
9992.00,1.82
9991.00,1.86
9990.00,1.89
9989.00,1.91
9988.00,1.94
9987.00,1.96
9986.00,1.98
9985.00,2.00
9984.00,2.02
9983.00,2.03
9982.00,2.05
9981.00,2.06
9980.00,2.07
9979.00,2.08
9978.00,2.09
9977.00,2.10
9976.00,2.10
9975.00,2.11
9974.00,2.11
9973.00,2.11
9972.00,2.10
9971.00,2.10
9970.00,2.09
9969.00,2.08
9968.00,2.06
9967.00,2.04
9966.00,2.03
9965.00,2.01
9964.00,1.99
9963.00,1.97
9962.00,1.95
9961.00,1.93
9960.00,1.91
9959.00,1.90
9958.00,1.88
9957.00,1.87
9956.00,1.86
9955.00,1.85
9954.00,1.84
9953.00,1.84
9952.00,1.84
9951.00,1.84
9950.00,1.84
9949.00,1.84
9948.00,1.84
9947.00,1.85
9946.00,1.86
9945.00,1.86
9944.00,1.87
9943.00,1.87
9942.00,1.88
9941.00,1.89
9940.00,1.89
9939.00,1.90
9938.00,1.90
9937.00,1.91
9936.00,1.91
9935.00,1.92
9934.00,1.92
9933.00,1.92
9932.00,1.92
9931.00,1.92
9930.00,1.92
9929.00,1.92
9928.00,1.92
9927.00,1.92
9926.00,1.92
9925.00,1.91
9924.00,1.90
9923.00,1.90
9922.00,1.89
9921.00,1.88
9920.00,1.87
9919.00,1.86
9918.00,1.85
9917.00,1.84
9916.00,1.83
9915.00,1.83
9914.00,1.82
9913.00,1.82
9912.00,1.82
9911.00,1.81
9910.00,1.81
9909.00,1.81
9908.00,1.81
9907.00,1.81
9906.00,1.80
9905.00,1.80
9904.00,1.80
9903.00,1.79
9902.00,1.79
9901.00,1.78
9900.00,1.77
9899.00,1.76
9898.00,1.74
9897.00,1.72
9896.00,1.70
9895.00,1.69
9894.00,1.67
9893.00,1.65
9892.00,1.63
9891.00,1.61
9890.00,1.60
9889.00,1.59
9888.00,1.58
9887.00,1.58
9886.00,1.58
9885.00,1.58
9884.00,1.58
9883.00,1.59
9882.00,1.60
9881.00,1.62
9880.00,1.63
9879.00,1.65
9878.00,1.66
9877.00,1.68
9876.00,1.69
9875.00,1.71
9874.00,1.72
9873.00,1.73
9872.00,1.73
9871.00,1.74
9870.00,1.74
9869.00,1.74
9868.00,1.74
9867.00,1.73
9866.00,1.73
9865.00,1.72
9864.00,1.72
9863.00,1.72
9862.00,1.71
9861.00,1.71
9860.00,1.71
9859.00,1.71
9858.00,1.71
9857.00,1.71
9856.00,1.72
9855.00,1.72
9854.00,1.73
9853.00,1.74
9852.00,1.74
9851.00,1.75
9850.00,1.76
9849.00,1.77
9848.00,1.78
9847.00,1.79
9846.00,1.80
9845.00,1.81
9844.00,1.82
9843.00,1.83
9842.00,1.83
9841.00,1.84
9840.00,1.85
9839.00,1.85
9838.00,1.86
9837.00,1.86
9836.00,1.87
9835.00,1.87
9834.00,1.87
9833.00,1.87
9832.00,1.87
9831.00,1.87
9830.00,1.86
9829.00,1.86
9828.00,1.85
9827.00,1.84
9826.00,1.83
9825.00,1.82
9824.00,1.82
9823.00,1.81
9822.00,1.80
9821.00,1.80
9820.00,1.79
9819.00,1.78
9818.00,1.78
9817.00,1.78
9816.00,1.78
9815.00,1.78
9814.00,1.78
9813.00,1.78
9812.00,1.78
9811.00,1.78
9810.00,1.78
9809.00,1.78
9808.00,1.78
9807.00,1.78
9806.00,1.77
9805.00,1.77
9804.00,1.76
9803.00,1.76
9802.00,1.75
9801.00,1.75
9800.00,1.74
9799.00,1.73
9798.00,1.73
9797.00,1.72
9796.00,1.72
9795.00,1.71
9794.00,1.71
9793.00,1.71
9792.00,1.71
9791.00,1.71
9790.00,1.72
9789.00,1.72
9788.00,1.73
9787.00,1.74
9786.00,1.74
9785.00,1.75
9784.00,1.76
9783.00,1.77
9782.00,1.78
9781.00,1.79
9780.00,1.80
9779.00,1.81
9778.00,1.82
9777.00,1.83
9776.00,1.84
9775.00,1.85
9774.00,1.86
9773.00,1.87
9772.00,1.88
9771.00,1.88
9770.00,1.89
9769.00,1.89
9768.00,1.90
9767.00,1.90
9766.00,1.90
9765.00,1.90
9764.00,1.90
9763.00,1.90
9762.00,1.90
9761.00,1.89
9760.00,1.89
9759.00,1.88
9758.00,1.87
9757.00,1.86
9756.00,1.85
9755.00,1.84
9754.00,1.83
9753.00,1.82
9752.00,1.81
9751.00,1.80
9750.00,1.80
9749.00,1.79
9748.00,1.78
9747.00,1.77
9746.00,1.76
9745.00,1.76
9744.00,1.75
9743.00,1.74
9742.00,1.74
9741.00,1.74
9740.00,1.74
9739.00,1.74
9738.00,1.74
9737.00,1.75
9736.00,1.75
9735.00,1.76
9734.00,1.77
9733.00,1.78
9732.00,1.78
9731.00,1.79
9730.00,1.80
9729.00,1.80
9728.00,1.81
9727.00,1.82
9726.00,1.82
9725.00,1.83
9724.00,1.83
9723.00,1.83
9722.00,1.82
9721.00,1.82
9720.00,1.81
9719.00,1.80
9718.00,1.80
9717.00,1.79
9716.00,1.78
9715.00,1.77
9714.00,1.76
9713.00,1.76
9712.00,1.76
9711.00,1.75
9710.00,1.75
9709.00,1.76
9708.00,1.76
9707.00,1.77
9706.00,1.78
9705.00,1.79
9704.00,1.80
9703.00,1.81
9702.00,1.83
9701.00,1.84
9700.00,1.85
9699.00,1.87
9698.00,1.87
9697.00,1.88
9696.00,1.89
9695.00,1.89
9694.00,1.89
9693.00,1.89
9692.00,1.89
9691.00,1.89
9690.00,1.88
9689.00,1.87
9688.00,1.87
9687.00,1.86
9686.00,1.85
9685.00,1.84
9684.00,1.83
9683.00,1.82
9682.00,1.81
9681.00,1.80
9680.00,1.80
9679.00,1.79
9678.00,1.78
9677.00,1.77
9676.00,1.77
9675.00,1.76
9674.00,1.75
9673.00,1.73
9672.00,1.72
9671.00,1.71
9670.00,1.70
9669.00,1.68
9668.00,1.67
9667.00,1.65
9666.00,1.64
9665.00,1.62
9664.00,1.61
9663.00,1.59
9662.00,1.58
9661.00,1.56
9660.00,1.55
9659.00,1.54
9658.00,1.53
9657.00,1.53
9656.00,1.52
9655.00,1.52
9654.00,1.52
9653.00,1.52
9652.00,1.52
9651.00,1.52
9650.00,1.52
9649.00,1.52
9648.00,1.53
9647.00,1.53
9646.00,1.54
9645.00,1.54
9644.00,1.55
9643.00,1.56
9642.00,1.57
9641.00,1.58
9640.00,1.59
9639.00,1.60
9638.00,1.62
9637.00,1.63
9636.00,1.64
9635.00,1.65
9634.00,1.67
9633.00,1.68
9632.00,1.69
9631.00,1.70
9630.00,1.71
9629.00,1.72
9628.00,1.72
9627.00,1.73
9626.00,1.73
9625.00,1.73
9624.00,1.73
9623.00,1.72
9622.00,1.71
9621.00,1.71
9620.00,1.70
9619.00,1.69
9618.00,1.68
9617.00,1.67
9616.00,1.66
9615.00,1.65
9614.00,1.64
9613.00,1.64
9612.00,1.63
9611.00,1.62
9610.00,1.62
9609.00,1.62
9608.00,1.62
9607.00,1.62
9606.00,1.62
9605.00,1.63
9604.00,1.63
9603.00,1.64
9602.00,1.64
9601.00,1.65
9600.00,1.66
9599.00,1.67
9598.00,1.68
9597.00,1.69
9596.00,1.70
9595.00,1.71
9594.00,1.72
9593.00,1.73
9592.00,1.74
9591.00,1.75
9590.00,1.76
9589.00,1.77
9588.00,1.78
9587.00,1.79
9586.00,1.80
9585.00,1.81
9584.00,1.82
9583.00,1.83
9582.00,1.84
9581.00,1.85
9580.00,1.86
9579.00,1.87
9578.00,1.88
9577.00,1.89
9576.00,1.91
9575.00,1.92
9574.00,1.93
9573.00,1.95
9572.00,1.96
9571.00,1.97
9570.00,1.98
9569.00,1.99
9568.00,2.00
9567.00,2.01
9566.00,2.01
9565.00,2.01
9564.00,2.01
9563.00,2.01
9562.00,2.00
9561.00,2.00
9560.00,1.99
9559.00,1.99
9558.00,1.98
9557.00,1.97
9556.00,1.96
9555.00,1.96
9554.00,1.95
9553.00,1.95
9552.00,1.94
9551.00,1.94
9550.00,1.94
9549.00,1.93
9548.00,1.93
9547.00,1.93
9546.00,1.93
9545.00,1.92
9544.00,1.92
9543.00,1.91
9542.00,1.90
9541.00,1.88
9540.00,1.87
9539.00,1.85
9538.00,1.83
9537.00,1.81
9536.00,1.79
9535.00,1.76
9534.00,1.74
9533.00,1.72
9532.00,1.69
9531.00,1.67
9530.00,1.65
9529.00,1.64
9528.00,1.63
9527.00,1.62
9526.00,1.61
9525.00,1.61
9524.00,1.61
9523.00,1.61
9522.00,1.62
9521.00,1.62
9520.00,1.63
9519.00,1.64
9518.00,1.66
9517.00,1.67
9516.00,1.68
9515.00,1.69
9514.00,1.71
9513.00,1.72
9512.00,1.73
9511.00,1.74
9510.00,1.74
9509.00,1.75
9508.00,1.75
9507.00,1.75
9506.00,1.75
9505.00,1.75
9504.00,1.75
9503.00,1.74
9502.00,1.74
9501.00,1.73
9500.00,1.73
9499.00,1.72
9498.00,1.71
9497.00,1.71
9496.00,1.70
9495.00,1.70
9494.00,1.70
9493.00,1.70
9492.00,1.70
9491.00,1.70
9490.00,1.71
9489.00,1.71
9488.00,1.71
9487.00,1.72
9486.00,1.72
9485.00,1.72
9484.00,1.73
9483.00,1.73
9482.00,1.74
9481.00,1.74
9480.00,1.74
9479.00,1.75
9478.00,1.75
9477.00,1.75
9476.00,1.75
9475.00,1.75
9474.00,1.75
9473.00,1.75
9472.00,1.74
9471.00,1.74
9470.00,1.74
9469.00,1.74
9468.00,1.73
9467.00,1.73
9466.00,1.73
9465.00,1.72
9464.00,1.72
9463.00,1.71
9462.00,1.71
9461.00,1.70
9460.00,1.70
9459.00,1.69
9458.00,1.69
9457.00,1.68
9456.00,1.68
9455.00,1.67
9454.00,1.67
9453.00,1.66
9452.00,1.66
9451.00,1.65
9450.00,1.65
9449.00,1.64
9448.00,1.64
9447.00,1.64
9446.00,1.63
9445.00,1.63
9444.00,1.63
9443.00,1.63
9442.00,1.63
9441.00,1.64
9440.00,1.64
9439.00,1.65
9438.00,1.65
9437.00,1.66
9436.00,1.67
9435.00,1.68
9434.00,1.69
9433.00,1.70
9432.00,1.71
9431.00,1.73
9430.00,1.74
9429.00,1.76
9428.00,1.77
9427.00,1.79
9426.00,1.80
9425.00,1.82
9424.00,1.83
9423.00,1.85
9422.00,1.86
9421.00,1.87
9420.00,1.88
9419.00,1.89
9418.00,1.90
9417.00,1.91
9416.00,1.92
9415.00,1.92
9414.00,1.92
9413.00,1.92
9412.00,1.91
9411.00,1.90
9410.00,1.89
9409.00,1.88
9408.00,1.87
9407.00,1.86
9406.00,1.84
9405.00,1.83
9404.00,1.81
9403.00,1.80
9402.00,1.78
9401.00,1.77
9400.00,1.75
9399.00,1.74
9398.00,1.73
9397.00,1.73
9396.00,1.72
9395.00,1.72
9394.00,1.72
9393.00,1.72
9392.00,1.72
9391.00,1.72
9390.00,1.73
9389.00,1.73
9388.00,1.74
9387.00,1.74
9386.00,1.74
9385.00,1.75
9384.00,1.75
9383.00,1.75
9382.00,1.75
9381.00,1.75
9380.00,1.74
9379.00,1.74
9378.00,1.74
9377.00,1.73
9376.00,1.73
9375.00,1.73
9374.00,1.73
9373.00,1.72
9372.00,1.73
9371.00,1.73
9370.00,1.73
9369.00,1.73
9368.00,1.74
9367.00,1.75
9366.00,1.76
9365.00,1.76
9364.00,1.77
9363.00,1.78
9362.00,1.79
9361.00,1.80
9360.00,1.80
9359.00,1.80
9358.00,1.80
9357.00,1.80
9356.00,1.79
9355.00,1.78
9354.00,1.77
9353.00,1.76
9352.00,1.75
9351.00,1.74
9350.00,1.73
9349.00,1.71
9348.00,1.70
9347.00,1.69
9346.00,1.68
9345.00,1.67
9344.00,1.67
9343.00,1.67
9342.00,1.67
9341.00,1.67
9340.00,1.67
9339.00,1.68
9338.00,1.69
9337.00,1.70
9336.00,1.71
9335.00,1.72
9334.00,1.73
9333.00,1.74
9332.00,1.75
9331.00,1.77
9330.00,1.77
9329.00,1.78
9328.00,1.79
9327.00,1.80
9326.00,1.80
9325.00,1.81
9324.00,1.81
9323.00,1.81
9322.00,1.81
9321.00,1.81
9320.00,1.81
9319.00,1.81
9318.00,1.81
9317.00,1.81
9316.00,1.81
9315.00,1.80
9314.00,1.80
9313.00,1.80
9312.00,1.80
9311.00,1.80
9310.00,1.80
9309.00,1.80
9308.00,1.80
9307.00,1.80
9306.00,1.80
9305.00,1.80
9304.00,1.80
9303.00,1.80
9302.00,1.80
9301.00,1.80
9300.00,1.80
9299.00,1.80
9298.00,1.79
9297.00,1.79
9296.00,1.78
9295.00,1.77
9294.00,1.77
9293.00,1.76
9292.00,1.75
9291.00,1.75
9290.00,1.74
9289.00,1.73
9288.00,1.72
9287.00,1.72
9286.00,1.71
9285.00,1.71
9284.00,1.70
9283.00,1.70
9282.00,1.70
9281.00,1.69
9280.00,1.69
9279.00,1.69
9278.00,1.69
9277.00,1.69
9276.00,1.69
9275.00,1.69
9274.00,1.69
9273.00,1.68
9272.00,1.68
9271.00,1.68
9270.00,1.67
9269.00,1.67
9268.00,1.67
9267.00,1.67
9266.00,1.67
9265.00,1.67
9264.00,1.66
9263.00,1.66
9262.00,1.66
9261.00,1.67
9260.00,1.67
9259.00,1.67
9258.00,1.67
9257.00,1.68
9256.00,1.68
9255.00,1.69
9254.00,1.69
9253.00,1.70
9252.00,1.71
9251.00,1.71
9250.00,1.72
9249.00,1.72
9248.00,1.73
9247.00,1.73
9246.00,1.74
9245.00,1.74
9244.00,1.74
9243.00,1.75
9242.00,1.75
9241.00,1.75
9240.00,1.75
9239.00,1.76
9238.00,1.76
9237.00,1.76
9236.00,1.77
9235.00,1.77
9234.00,1.77
9233.00,1.77
9232.00,1.77
9231.00,1.77
9230.00,1.77
9229.00,1.77
9228.00,1.77
9227.00,1.77
9226.00,1.77
9225.00,1.77
9224.00,1.76
9223.00,1.76
9222.00,1.75
9221.00,1.75
9220.00,1.74
9219.00,1.74
9218.00,1.73
9217.00,1.72
9216.00,1.72
9215.00,1.71
9214.00,1.71
9213.00,1.71
9212.00,1.70
9211.00,1.70
9210.00,1.70
9209.00,1.70
9208.00,1.70
9207.00,1.70
9206.00,1.70
9205.00,1.70
9204.00,1.69
9203.00,1.69
9202.00,1.69
9201.00,1.68
9200.00,1.68
9199.00,1.68
9198.00,1.67
9197.00,1.67
9196.00,1.67
9195.00,1.67
9194.00,1.67
9193.00,1.67
9192.00,1.67
9191.00,1.67
9190.00,1.67
9189.00,1.68
9188.00,1.68
9187.00,1.69
9186.00,1.70
9185.00,1.71
9184.00,1.71
9183.00,1.72
9182.00,1.73
9181.00,1.73
9180.00,1.73
9179.00,1.73
9178.00,1.73
9177.00,1.72
9176.00,1.72
9175.00,1.71
9174.00,1.70
9173.00,1.70
9172.00,1.69
9171.00,1.68
9170.00,1.67
9169.00,1.67
9168.00,1.66
9167.00,1.65
9166.00,1.65
9165.00,1.65
9164.00,1.65
9163.00,1.65
9162.00,1.65
9161.00,1.66
9160.00,1.67
9159.00,1.67
9158.00,1.68
9157.00,1.69
9156.00,1.70
9155.00,1.70
9154.00,1.71
9153.00,1.71
9152.00,1.71
9151.00,1.72
9150.00,1.72
9149.00,1.72
9148.00,1.72
9147.00,1.72
9146.00,1.72
9145.00,1.71
9144.00,1.71
9143.00,1.70
9142.00,1.70
9141.00,1.69
9140.00,1.69
9139.00,1.68
9138.00,1.68
9137.00,1.68
9136.00,1.68
9135.00,1.68
9134.00,1.68
9133.00,1.68
9132.00,1.69
9131.00,1.69
9130.00,1.70
9129.00,1.70
9128.00,1.71
9127.00,1.72
9126.00,1.72
9125.00,1.73
9124.00,1.73
9123.00,1.73
9122.00,1.74
9121.00,1.74
9120.00,1.74
9119.00,1.74
9118.00,1.74
9117.00,1.74
9116.00,1.74
9115.00,1.73
9114.00,1.73
9113.00,1.72
9112.00,1.72
9111.00,1.72
9110.00,1.72
9109.00,1.72
9108.00,1.71
9107.00,1.71
9106.00,1.72
9105.00,1.72
9104.00,1.72
9103.00,1.72
9102.00,1.72
9101.00,1.72
9100.00,1.73
9099.00,1.73
9098.00,1.73
9097.00,1.74
9096.00,1.74
9095.00,1.74
9094.00,1.74
9093.00,1.74
9092.00,1.74
9091.00,1.74
9090.00,1.74
9089.00,1.74
9088.00,1.73
9087.00,1.73
9086.00,1.73
9085.00,1.72
9084.00,1.72
9083.00,1.71
9082.00,1.70
9081.00,1.70
9080.00,1.69
9079.00,1.69
9078.00,1.68
9077.00,1.67
9076.00,1.67
9075.00,1.67
9074.00,1.67
9073.00,1.67
9072.00,1.67
9071.00,1.68
9070.00,1.68
9069.00,1.69
9068.00,1.70
9067.00,1.70
9066.00,1.71
9065.00,1.72
9064.00,1.73
9063.00,1.74
9062.00,1.75
9061.00,1.76
9060.00,1.77
9059.00,1.78
9058.00,1.79
9057.00,1.80
9056.00,1.81
9055.00,1.82
9054.00,1.82
9053.00,1.83
9052.00,1.84
9051.00,1.84
9050.00,1.85
9049.00,1.85
9048.00,1.86
9047.00,1.87
9046.00,1.87
9045.00,1.88
9044.00,1.88
9043.00,1.88
9042.00,1.89
9041.00,1.89
9040.00,1.88
9039.00,1.88
9038.00,1.87
9037.00,1.87
9036.00,1.86
9035.00,1.85
9034.00,1.84
9033.00,1.83
9032.00,1.81
9031.00,1.80
9030.00,1.78
9029.00,1.77
9028.00,1.75
9027.00,1.74
9026.00,1.73
9025.00,1.71
9024.00,1.70
9023.00,1.69
9022.00,1.67
9021.00,1.66
9020.00,1.66
9019.00,1.65
9018.00,1.64
9017.00,1.63
9016.00,1.63
9015.00,1.62
9014.00,1.62
9013.00,1.61
9012.00,1.61
9011.00,1.60
9010.00,1.60
9009.00,1.60
9008.00,1.60
9007.00,1.60
9006.00,1.60
9005.00,1.60
9004.00,1.61
9003.00,1.61
9002.00,1.62
9001.00,1.63
9000.00,1.64
8999.00,1.65
8998.00,1.66
8997.00,1.67
8996.00,1.69
8995.00,1.70
8994.00,1.72
8993.00,1.73
8992.00,1.75
8991.00,1.77
8990.00,1.78
8989.00,1.80
8988.00,1.82
8987.00,1.83
8986.00,1.84
8985.00,1.85
8984.00,1.86
8983.00,1.87
8982.00,1.88
8981.00,1.89
8980.00,1.89
8979.00,1.89
8978.00,1.89
8977.00,1.89
8976.00,1.89
8975.00,1.88
8974.00,1.88
8973.00,1.87
8972.00,1.86
8971.00,1.85
8970.00,1.84
8969.00,1.83
8968.00,1.82
8967.00,1.81
8966.00,1.80
8965.00,1.79
8964.00,1.78
8963.00,1.77
8962.00,1.76
8961.00,1.75
8960.00,1.74
8959.00,1.73
8958.00,1.72
8957.00,1.71
8956.00,1.70
8955.00,1.70
8954.00,1.69
8953.00,1.68
8952.00,1.68
8951.00,1.67
8950.00,1.67
8949.00,1.66
8948.00,1.66
8947.00,1.66
8946.00,1.66
8945.00,1.67
8944.00,1.67
8943.00,1.68
8942.00,1.68
8941.00,1.69
8940.00,1.70
8939.00,1.70
8938.00,1.71
8937.00,1.72
8936.00,1.73
8935.00,1.74
8934.00,1.75
8933.00,1.75
8932.00,1.76
8931.00,1.76
8930.00,1.77
8929.00,1.77
8928.00,1.78
8927.00,1.78
8926.00,1.78
8925.00,1.78
8924.00,1.78
8923.00,1.78
8922.00,1.78
8921.00,1.78
8920.00,1.78
8919.00,1.78
8918.00,1.78
8917.00,1.78
8916.00,1.78
8915.00,1.79
8914.00,1.79
8913.00,1.79
8912.00,1.79
8911.00,1.79
8910.00,1.79
8909.00,1.79
8908.00,1.79
8907.00,1.79
8906.00,1.79
8905.00,1.79
8904.00,1.79
8903.00,1.79
8902.00,1.79
8901.00,1.79
8900.00,1.79
8899.00,1.79
8898.00,1.79
8897.00,1.78
8896.00,1.78
8895.00,1.77
8894.00,1.77
8893.00,1.77
8892.00,1.76
8891.00,1.76
8890.00,1.75
8889.00,1.75
8888.00,1.74
8887.00,1.74
8886.00,1.73
8885.00,1.73
8884.00,1.73
8883.00,1.73
8882.00,1.73
8881.00,1.73
8880.00,1.73
8879.00,1.73
8878.00,1.73
8877.00,1.74
8876.00,1.74
8875.00,1.74
8874.00,1.74
8873.00,1.74
8872.00,1.75
8871.00,1.75
8870.00,1.75
8869.00,1.75
8868.00,1.74
8867.00,1.74
8866.00,1.74
8865.00,1.74
8864.00,1.73
8863.00,1.73
8862.00,1.72
8861.00,1.72
8860.00,1.71
8859.00,1.71
8858.00,1.71
8857.00,1.70
8856.00,1.70
8855.00,1.69
8854.00,1.69
8853.00,1.69
8852.00,1.69
8851.00,1.68
8850.00,1.68
8849.00,1.68
8848.00,1.68
8847.00,1.69
8846.00,1.69
8845.00,1.69
8844.00,1.69
8843.00,1.70
8842.00,1.70
8841.00,1.70
8840.00,1.70
8839.00,1.71
8838.00,1.71
8837.00,1.71
8836.00,1.71
8835.00,1.71
8834.00,1.71
8833.00,1.72
8832.00,1.72
8831.00,1.72
8830.00,1.72
8829.00,1.72
8828.00,1.72
8827.00,1.72
8826.00,1.72
8825.00,1.73
8824.00,1.73
8823.00,1.73
8822.00,1.74
8821.00,1.75
8820.00,1.75
8819.00,1.76
8818.00,1.77
8817.00,1.78
8816.00,1.79
8815.00,1.80
8814.00,1.81
8813.00,1.82
8812.00,1.83
8811.00,1.84
8810.00,1.85
8809.00,1.86
8808.00,1.86
8807.00,1.87
8806.00,1.87
8805.00,1.87
8804.00,1.87
8803.00,1.87
8802.00,1.87
8801.00,1.86
8800.00,1.86
8799.00,1.85
8798.00,1.84
8797.00,1.83
8796.00,1.82
8795.00,1.81
8794.00,1.80
8793.00,1.80
8792.00,1.79
8791.00,1.78
8790.00,1.77
8789.00,1.77
8788.00,1.76
8787.00,1.75
8786.00,1.75
8785.00,1.74
8784.00,1.74
8783.00,1.74
8782.00,1.74
8781.00,1.74
8780.00,1.73
8779.00,1.73
8778.00,1.73
8777.00,1.73
8776.00,1.73
8775.00,1.73
8774.00,1.73
8773.00,1.74
8772.00,1.74
8771.00,1.74
8770.00,1.74
8769.00,1.74
8768.00,1.75
8767.00,1.75
8766.00,1.75
8765.00,1.76
8764.00,1.76
8763.00,1.76
8762.00,1.77
8761.00,1.77
8760.00,1.78
8759.00,1.78
8758.00,1.79
8757.00,1.79
8756.00,1.80
8755.00,1.80
8754.00,1.81
8753.00,1.81
8752.00,1.81
8751.00,1.81
8750.00,1.81
8749.00,1.81
8748.00,1.81
8747.00,1.81
8746.00,1.80
8745.00,1.80
8744.00,1.80
8743.00,1.79
8742.00,1.78
8741.00,1.78
8740.00,1.77
8739.00,1.76
8738.00,1.76
8737.00,1.75
8736.00,1.75
8735.00,1.74
8734.00,1.74
8733.00,1.74
8732.00,1.74
8731.00,1.73
8730.00,1.73
8729.00,1.73
8728.00,1.73
8727.00,1.73
8726.00,1.73
8725.00,1.73
8724.00,1.73
8723.00,1.73
8722.00,1.73
8721.00,1.73
8720.00,1.73
8719.00,1.72
8718.00,1.72
8717.00,1.71
8716.00,1.71
8715.00,1.71
8714.00,1.70
8713.00,1.70
8712.00,1.70
8711.00,1.69
8710.00,1.69
8709.00,1.69
8708.00,1.69
8707.00,1.68
8706.00,1.68
8705.00,1.68
8704.00,1.68
8703.00,1.68
8702.00,1.69
8701.00,1.69
8700.00,1.69
8699.00,1.70
8698.00,1.70
8697.00,1.71
8696.00,1.71
8695.00,1.71
8694.00,1.72
8693.00,1.72
8692.00,1.72
8691.00,1.72
8690.00,1.72
8689.00,1.72
8688.00,1.72
8687.00,1.72
8686.00,1.72
8685.00,1.72
8684.00,1.72
8683.00,1.73
8682.00,1.73
8681.00,1.73
8680.00,1.73
8679.00,1.73
8678.00,1.73
8677.00,1.73
8676.00,1.73
8675.00,1.74
8674.00,1.74
8673.00,1.74
8672.00,1.75
8671.00,1.75
8670.00,1.75
8669.00,1.76
8668.00,1.76
8667.00,1.76
8666.00,1.76
8665.00,1.76
8664.00,1.76
8663.00,1.76
8662.00,1.76
8661.00,1.76
8660.00,1.76
8659.00,1.76
8658.00,1.76
8657.00,1.76
8656.00,1.76
8655.00,1.76
8654.00,1.76
8653.00,1.76
8652.00,1.75
8651.00,1.75
8650.00,1.75
8649.00,1.74
8648.00,1.74
8647.00,1.74
8646.00,1.73
8645.00,1.73
8644.00,1.73
8643.00,1.73
8642.00,1.73
8641.00,1.73
8640.00,1.73
8639.00,1.73
8638.00,1.74
8637.00,1.74
8636.00,1.75
8635.00,1.75
8634.00,1.76
8633.00,1.77
8632.00,1.78
8631.00,1.79
8630.00,1.79
8629.00,1.80
8628.00,1.80
8627.00,1.81
8626.00,1.81
8625.00,1.81
8624.00,1.81
8623.00,1.81
8622.00,1.81
8621.00,1.80
8620.00,1.80
8619.00,1.80
8618.00,1.79
8617.00,1.78
8616.00,1.78
8615.00,1.77
8614.00,1.76
8613.00,1.76
8612.00,1.75
8611.00,1.75
8610.00,1.74
8609.00,1.74
8608.00,1.74
8607.00,1.74
8606.00,1.74
8605.00,1.73
8604.00,1.73
8603.00,1.73
8602.00,1.73
8601.00,1.73
8600.00,1.73
8599.00,1.73
8598.00,1.73
8597.00,1.73
8596.00,1.73
8595.00,1.73
8594.00,1.73
8593.00,1.73
8592.00,1.73
8591.00,1.73
8590.00,1.72
8589.00,1.72
8588.00,1.72
8587.00,1.72
8586.00,1.72
8585.00,1.72
8584.00,1.72
8583.00,1.72
8582.00,1.72
8581.00,1.72
8580.00,1.72
8579.00,1.72
8578.00,1.72
8577.00,1.72
8576.00,1.72
8575.00,1.71
8574.00,1.71
8573.00,1.70
8572.00,1.70
8571.00,1.69
8570.00,1.69
8569.00,1.68
8568.00,1.68
8567.00,1.67
8566.00,1.67
8565.00,1.66
8564.00,1.66
8563.00,1.66
8562.00,1.65
8561.00,1.65
8560.00,1.65
8559.00,1.65
8558.00,1.65
8557.00,1.65
8556.00,1.65
8555.00,1.66
8554.00,1.66
8553.00,1.67
8552.00,1.67
8551.00,1.68
8550.00,1.68
8549.00,1.69
8548.00,1.70
8547.00,1.71
8546.00,1.71
8545.00,1.72
8544.00,1.73
8543.00,1.73
8542.00,1.74
8541.00,1.75
8540.00,1.76
8539.00,1.76
8538.00,1.77
8537.00,1.78
8536.00,1.78
8535.00,1.79
8534.00,1.79
8533.00,1.79
8532.00,1.80
8531.00,1.80
8530.00,1.80
8529.00,1.80
8528.00,1.81
8527.00,1.81
8526.00,1.81
8525.00,1.81
8524.00,1.81
8523.00,1.81
8522.00,1.81
8521.00,1.80
8520.00,1.80
8519.00,1.80
8518.00,1.79
8517.00,1.79
8516.00,1.79
8515.00,1.78
8514.00,1.78
8513.00,1.77
8512.00,1.77
8511.00,1.77
8510.00,1.76
8509.00,1.76
8508.00,1.76
8507.00,1.75
8506.00,1.75
8505.00,1.75
8504.00,1.75
8503.00,1.75
8502.00,1.75
8501.00,1.75
8500.00,1.75
8499.00,1.75
8498.00,1.75
8497.00,1.75
8496.00,1.75
8495.00,1.75
8494.00,1.75
8493.00,1.74
8492.00,1.74
8491.00,1.74
8490.00,1.73
8489.00,1.73
8488.00,1.72
8487.00,1.72
8486.00,1.71
8485.00,1.71
8484.00,1.70
8483.00,1.70
8482.00,1.69
8481.00,1.69
8480.00,1.68
8479.00,1.68
8478.00,1.68
8477.00,1.68
8476.00,1.68
8475.00,1.68
8474.00,1.68
8473.00,1.68
8472.00,1.68
8471.00,1.68
8470.00,1.69
8469.00,1.69
8468.00,1.70
8467.00,1.70
8466.00,1.70
8465.00,1.71
8464.00,1.71
8463.00,1.72
8462.00,1.72
8461.00,1.72
8460.00,1.73
8459.00,1.73
8458.00,1.73
8457.00,1.73
8456.00,1.73
8455.00,1.74
8454.00,1.74
8453.00,1.74
8452.00,1.74
8451.00,1.73
8450.00,1.73
8449.00,1.73
8448.00,1.73
8447.00,1.72
8446.00,1.72
8445.00,1.72
8444.00,1.71
8443.00,1.71
8442.00,1.70
8441.00,1.70
8440.00,1.70
8439.00,1.69
8438.00,1.69
8437.00,1.69
8436.00,1.69
8435.00,1.69
8434.00,1.69
8433.00,1.69
8432.00,1.70
8431.00,1.70
8430.00,1.71
8429.00,1.72
8428.00,1.72
8427.00,1.73
8426.00,1.73
8425.00,1.74
8424.00,1.74
8423.00,1.75
8422.00,1.75
8421.00,1.76
8420.00,1.76
8419.00,1.76
8418.00,1.76
8417.00,1.76
8416.00,1.77
8415.00,1.77
8414.00,1.77
8413.00,1.77
8412.00,1.77
8411.00,1.77
8410.00,1.77
8409.00,1.77
8408.00,1.77
8407.00,1.77
8406.00,1.77
8405.00,1.77
8404.00,1.77
8403.00,1.77
8402.00,1.77
8401.00,1.77
8400.00,1.76
8399.00,1.76
8398.00,1.76
8397.00,1.75
8396.00,1.75
8395.00,1.74
8394.00,1.73
8393.00,1.73
8392.00,1.73
8391.00,1.72
8390.00,1.72
8389.00,1.72
8388.00,1.72
8387.00,1.71
8386.00,1.71
8385.00,1.71
8384.00,1.71
8383.00,1.71
8382.00,1.71
8381.00,1.72
8380.00,1.72
8379.00,1.72
8378.00,1.72
8377.00,1.73
8376.00,1.73
8375.00,1.73
8374.00,1.73
8373.00,1.73
8372.00,1.73
8371.00,1.73
8370.00,1.73
8369.00,1.73
8368.00,1.73
8367.00,1.73
8366.00,1.73
8365.00,1.73
8364.00,1.72
8363.00,1.72
8362.00,1.72
8361.00,1.72
8360.00,1.71
8359.00,1.71
8358.00,1.71
8357.00,1.71
8356.00,1.72
8355.00,1.72
8354.00,1.72
8353.00,1.72
8352.00,1.72
8351.00,1.73
8350.00,1.73
8349.00,1.73
8348.00,1.73
8347.00,1.74
8346.00,1.74
8345.00,1.74
8344.00,1.74
8343.00,1.74
8342.00,1.74
8341.00,1.74
8340.00,1.74
8339.00,1.74
8338.00,1.73
8337.00,1.73
8336.00,1.73
8335.00,1.73
8334.00,1.73
8333.00,1.73
8332.00,1.73
8331.00,1.73
8330.00,1.74
8329.00,1.74
8328.00,1.74
8327.00,1.75
8326.00,1.75
8325.00,1.76
8324.00,1.77
8323.00,1.77
8322.00,1.78
8321.00,1.79
8320.00,1.80
8319.00,1.80
8318.00,1.81
8317.00,1.81
8316.00,1.81
8315.00,1.81
8314.00,1.81
8313.00,1.81
8312.00,1.81
8311.00,1.81
8310.00,1.80
8309.00,1.80
8308.00,1.80
8307.00,1.79
8306.00,1.79
8305.00,1.79
8304.00,1.79
8303.00,1.78
8302.00,1.78
8301.00,1.78
8300.00,1.78
8299.00,1.79
8298.00,1.79
8297.00,1.79
8296.00,1.80
8295.00,1.80
8294.00,1.80
8293.00,1.80
8292.00,1.80
8291.00,1.80
8290.00,1.80
8289.00,1.79
8288.00,1.79
8287.00,1.79
8286.00,1.78
8285.00,1.78
8284.00,1.77
8283.00,1.77
8282.00,1.76
8281.00,1.76
8280.00,1.75
8279.00,1.75
8278.00,1.75
8277.00,1.74
8276.00,1.74
8275.00,1.74
8274.00,1.74
8273.00,1.75
8272.00,1.75
8271.00,1.75
8270.00,1.75
8269.00,1.75
8268.00,1.75
8267.00,1.75
8266.00,1.74
8265.00,1.74
8264.00,1.74
8263.00,1.74
8262.00,1.74
8261.00,1.73
8260.00,1.73
8259.00,1.72
8258.00,1.71
8257.00,1.71
8256.00,1.70
8255.00,1.69
8254.00,1.69
8253.00,1.68
8252.00,1.68
8251.00,1.68
8250.00,1.68
8249.00,1.67
8248.00,1.67
8247.00,1.67
8246.00,1.67
8245.00,1.67
8244.00,1.68
8243.00,1.68
8242.00,1.68
8241.00,1.68
8240.00,1.69
8239.00,1.69
8238.00,1.70
8237.00,1.71
8236.00,1.71
8235.00,1.72
8234.00,1.72
8233.00,1.73
8232.00,1.73
8231.00,1.74
8230.00,1.74
8229.00,1.75
8228.00,1.76
8227.00,1.76
8226.00,1.77
8225.00,1.77
8224.00,1.78
8223.00,1.78
8222.00,1.79
8221.00,1.79
8220.00,1.80
8219.00,1.80
8218.00,1.80
8217.00,1.80
8216.00,1.80
8215.00,1.79
8214.00,1.79
8213.00,1.78
8212.00,1.78
8211.00,1.77
8210.00,1.76
8209.00,1.76
8208.00,1.75
8207.00,1.74
8206.00,1.74
8205.00,1.73
8204.00,1.73
8203.00,1.72
8202.00,1.72
8201.00,1.72
8200.00,1.72
8199.00,1.72
8198.00,1.72
8197.00,1.73
8196.00,1.73
8195.00,1.73
8194.00,1.74
8193.00,1.75
8192.00,1.75
8191.00,1.76
8190.00,1.77
8189.00,1.78
8188.00,1.79
8187.00,1.79
8186.00,1.80
8185.00,1.80
8184.00,1.80
8183.00,1.81
8182.00,1.81
8181.00,1.81
8180.00,1.81
8179.00,1.81
8178.00,1.81
8177.00,1.81
8176.00,1.81
8175.00,1.81
8174.00,1.81
8173.00,1.81
8172.00,1.81
8171.00,1.80
8170.00,1.80
8169.00,1.80
8168.00,1.80
8167.00,1.80
8166.00,1.80
8165.00,1.80
8164.00,1.80
8163.00,1.80
8162.00,1.80
8161.00,1.80
8160.00,1.80
8159.00,1.80
8158.00,1.80
8157.00,1.80
8156.00,1.80
8155.00,1.80
8154.00,1.80
8153.00,1.80
8152.00,1.81
8151.00,1.81
8150.00,1.81
8149.00,1.81
8148.00,1.81
8147.00,1.81
8146.00,1.81
8145.00,1.81
8144.00,1.81
8143.00,1.81
8142.00,1.81
8141.00,1.81
8140.00,1.82
8139.00,1.82
8138.00,1.82
8137.00,1.82
8136.00,1.82
8135.00,1.82
8134.00,1.82
8133.00,1.83
8132.00,1.83
8131.00,1.83
8130.00,1.83
8129.00,1.84
8128.00,1.84
8127.00,1.84
8126.00,1.85
8125.00,1.85
8124.00,1.85
8123.00,1.86
8122.00,1.86
8121.00,1.86
8120.00,1.86
8119.00,1.86
8118.00,1.86
8117.00,1.86
8116.00,1.85
8115.00,1.85
8114.00,1.85
8113.00,1.84
8112.00,1.84
8111.00,1.83
8110.00,1.83
8109.00,1.82
8108.00,1.82
8107.00,1.81
8106.00,1.81
8105.00,1.81
8104.00,1.81
8103.00,1.80
8102.00,1.80
8101.00,1.81
8100.00,1.81
8099.00,1.81
8098.00,1.82
8097.00,1.82
8096.00,1.83
8095.00,1.84
8094.00,1.85
8093.00,1.85
8092.00,1.86
8091.00,1.86
8090.00,1.87
8089.00,1.87
8088.00,1.87
8087.00,1.88
8086.00,1.88
8085.00,1.88
8084.00,1.88
8083.00,1.88
8082.00,1.88
8081.00,1.88
8080.00,1.87
8079.00,1.87
8078.00,1.86
8077.00,1.86
8076.00,1.85
8075.00,1.84
8074.00,1.84
8073.00,1.83
8072.00,1.83
8071.00,1.82
8070.00,1.82
8069.00,1.81
8068.00,1.81
8067.00,1.81
8066.00,1.80
8065.00,1.80
8064.00,1.79
8063.00,1.79
8062.00,1.79
8061.00,1.78
8060.00,1.78
8059.00,1.78
8058.00,1.78
8057.00,1.77
8056.00,1.77
8055.00,1.77
8054.00,1.77
8053.00,1.77
8052.00,1.77
8051.00,1.76
8050.00,1.76
8049.00,1.76
8048.00,1.76
8047.00,1.76
8046.00,1.76
8045.00,1.77
8044.00,1.77
8043.00,1.77
8042.00,1.77
8041.00,1.78
8040.00,1.78
8039.00,1.79
8038.00,1.79
8037.00,1.80
8036.00,1.80
8035.00,1.80
8034.00,1.81
8033.00,1.81
8032.00,1.81
8031.00,1.82
8030.00,1.82
8029.00,1.82
8028.00,1.82
8027.00,1.82
8026.00,1.82
8025.00,1.82
8024.00,1.82
8023.00,1.82
8022.00,1.82
8021.00,1.82
8020.00,1.82
8019.00,1.82
8018.00,1.82
8017.00,1.82
8016.00,1.82
8015.00,1.83
8014.00,1.83
8013.00,1.83
8012.00,1.83
8011.00,1.83
8010.00,1.83
8009.00,1.83
8008.00,1.83
8007.00,1.83
8006.00,1.83
8005.00,1.82
8004.00,1.82
8003.00,1.82
8002.00,1.81
8001.00,1.81
8000.00,1.80
7999.00,1.80
7998.00,1.80
7997.00,1.79
7996.00,1.79
7995.00,1.79
7994.00,1.78
7993.00,1.78
7992.00,1.78
7991.00,1.78
7990.00,1.79
7989.00,1.79
7988.00,1.79
7987.00,1.80
7986.00,1.80
7985.00,1.80
7984.00,1.80
7983.00,1.81
7982.00,1.81
7981.00,1.81
7980.00,1.81
7979.00,1.81
7978.00,1.81
7977.00,1.82
7976.00,1.82
7975.00,1.82
7974.00,1.82
7973.00,1.82
7972.00,1.83
7971.00,1.83
7970.00,1.83
7969.00,1.83
7968.00,1.83
7967.00,1.83
7966.00,1.84
7965.00,1.84
7964.00,1.84
7963.00,1.84
7962.00,1.84
7961.00,1.84
7960.00,1.84
7959.00,1.84
7958.00,1.84
7957.00,1.84
7956.00,1.84
7955.00,1.83
7954.00,1.83
7953.00,1.82
7952.00,1.82
7951.00,1.81
7950.00,1.80
7949.00,1.80
7948.00,1.79
7947.00,1.79
7946.00,1.78
7945.00,1.78
7944.00,1.77
7943.00,1.77
7942.00,1.77
7941.00,1.76
7940.00,1.76
7939.00,1.76
7938.00,1.76
7937.00,1.76
7936.00,1.76
7935.00,1.77
7934.00,1.77
7933.00,1.77
7932.00,1.78
7931.00,1.78
7930.00,1.78
7929.00,1.78
7928.00,1.78
7927.00,1.78
7926.00,1.78
7925.00,1.78
7924.00,1.78
7923.00,1.78
7922.00,1.78
7921.00,1.78
7920.00,1.78
7919.00,1.77
7918.00,1.77
7917.00,1.77
7916.00,1.76
7915.00,1.76
7914.00,1.76
7913.00,1.76
7912.00,1.76
7911.00,1.75
7910.00,1.75
7909.00,1.75
7908.00,1.76
7907.00,1.76
7906.00,1.76
7905.00,1.76
7904.00,1.77
7903.00,1.77
7902.00,1.78
7901.00,1.78
7900.00,1.78
7899.00,1.79
7898.00,1.79
7897.00,1.80
7896.00,1.80
7895.00,1.81
7894.00,1.81
7893.00,1.82
7892.00,1.82
7891.00,1.83
7890.00,1.83
7889.00,1.83
7888.00,1.84
7887.00,1.84
7886.00,1.85
7885.00,1.85
7884.00,1.85
7883.00,1.86
7882.00,1.86
7881.00,1.87
7880.00,1.87
7879.00,1.88
7878.00,1.88
7877.00,1.88
7876.00,1.88
7875.00,1.88
7874.00,1.88
7873.00,1.88
7872.00,1.88
7871.00,1.87
7870.00,1.87
7869.00,1.87
7868.00,1.86
7867.00,1.86
7866.00,1.86
7865.00,1.85
7864.00,1.85
7863.00,1.85
7862.00,1.84
7861.00,1.84
7860.00,1.84
7859.00,1.84
7858.00,1.85
7857.00,1.85
7856.00,1.85
7855.00,1.86
7854.00,1.86
7853.00,1.86
7852.00,1.87
7851.00,1.87
7850.00,1.87
7849.00,1.88
7848.00,1.88
7847.00,1.88
7846.00,1.89
7845.00,1.89
7844.00,1.89
7843.00,1.88
7842.00,1.88
7841.00,1.88
7840.00,1.87
7839.00,1.87
7838.00,1.87
7837.00,1.86
7836.00,1.86
7835.00,1.85
7834.00,1.85
7833.00,1.84
7832.00,1.84
7831.00,1.83
7830.00,1.83
7829.00,1.82
7828.00,1.82
7827.00,1.82
7826.00,1.82
7825.00,1.81
7824.00,1.81
7823.00,1.81
7822.00,1.81
7821.00,1.82
7820.00,1.82
7819.00,1.82
7818.00,1.82
7817.00,1.82
7816.00,1.82
7815.00,1.82
7814.00,1.82
7813.00,1.82
7812.00,1.82
7811.00,1.82
7810.00,1.82
7809.00,1.82
7808.00,1.82
7807.00,1.82
7806.00,1.82
7805.00,1.82
7804.00,1.82
7803.00,1.82
7802.00,1.81
7801.00,1.81
7800.00,1.81
7799.00,1.82
7798.00,1.82
7797.00,1.82
7796.00,1.82
7795.00,1.82
7794.00,1.83
7793.00,1.83
7792.00,1.83
7791.00,1.84
7790.00,1.84
7789.00,1.85
7788.00,1.85
7787.00,1.86
7786.00,1.86
7785.00,1.86
7784.00,1.87
7783.00,1.87
7782.00,1.88
7781.00,1.88
7780.00,1.88
7779.00,1.89
7778.00,1.89
7777.00,1.89
7776.00,1.90
7775.00,1.90
7774.00,1.90
7773.00,1.90
7772.00,1.90
7771.00,1.90
7770.00,1.90
7769.00,1.90
7768.00,1.89
7767.00,1.89
7766.00,1.88
7765.00,1.88
7764.00,1.88
7763.00,1.87
7762.00,1.87
7761.00,1.86
7760.00,1.86
7759.00,1.86
7758.00,1.85
7757.00,1.85
7756.00,1.85
7755.00,1.84
7754.00,1.84
7753.00,1.84
7752.00,1.84
7751.00,1.84
7750.00,1.84
7749.00,1.84
7748.00,1.84
7747.00,1.85
7746.00,1.85
7745.00,1.85
7744.00,1.85
7743.00,1.85
7742.00,1.85
7741.00,1.85
7740.00,1.85
7739.00,1.85
7738.00,1.85
7737.00,1.85
7736.00,1.85
7735.00,1.86
7734.00,1.86
7733.00,1.86
7732.00,1.86
7731.00,1.86
7730.00,1.86
7729.00,1.86
7728.00,1.86
7727.00,1.86
7726.00,1.86
7725.00,1.86
7724.00,1.86
7723.00,1.86
7722.00,1.86
7721.00,1.86
7720.00,1.86
7719.00,1.86
7718.00,1.86
7717.00,1.86
7716.00,1.86
7715.00,1.86
7714.00,1.86
7713.00,1.87
7712.00,1.87
7711.00,1.87
7710.00,1.87
7709.00,1.88
7708.00,1.88
7707.00,1.88
7706.00,1.88
7705.00,1.89
7704.00,1.89
7703.00,1.89
7702.00,1.88
7701.00,1.88
7700.00,1.88
7699.00,1.88
7698.00,1.87
7697.00,1.87
7696.00,1.86
7695.00,1.85
7694.00,1.85
7693.00,1.84
7692.00,1.83
7691.00,1.82
7690.00,1.82
7689.00,1.81
7688.00,1.81
7687.00,1.80
7686.00,1.80
7685.00,1.80
7684.00,1.80
7683.00,1.79
7682.00,1.79
7681.00,1.80
7680.00,1.80
7679.00,1.80
7678.00,1.80
7677.00,1.81
7676.00,1.81
7675.00,1.82
7674.00,1.82
7673.00,1.83
7672.00,1.83
7671.00,1.84
7670.00,1.84
7669.00,1.85
7668.00,1.85
7667.00,1.85
7666.00,1.86
7665.00,1.86
7664.00,1.87
7663.00,1.87
7662.00,1.87
7661.00,1.87
7660.00,1.88
7659.00,1.88
7658.00,1.88
7657.00,1.88
7656.00,1.88
7655.00,1.88
7654.00,1.88
7653.00,1.88
7652.00,1.88
7651.00,1.88
7650.00,1.88
7649.00,1.88
7648.00,1.88
7647.00,1.87
7646.00,1.87
7645.00,1.87
7644.00,1.87
7643.00,1.87
7642.00,1.87
7641.00,1.87
7640.00,1.86
7639.00,1.86
7638.00,1.86
7637.00,1.86
7636.00,1.86
7635.00,1.85
7634.00,1.85
7633.00,1.85
7632.00,1.84
7631.00,1.84
7630.00,1.84
7629.00,1.83
7628.00,1.83
7627.00,1.82
7626.00,1.82
7625.00,1.82
7624.00,1.81
7623.00,1.81
7622.00,1.81
7621.00,1.81
7620.00,1.81
7619.00,1.81
7618.00,1.81
7617.00,1.81
7616.00,1.81
7615.00,1.81
7614.00,1.81
7613.00,1.81
7612.00,1.82
7611.00,1.82
7610.00,1.82
7609.00,1.83
7608.00,1.83
7607.00,1.83
7606.00,1.84
7605.00,1.84
7604.00,1.84
7603.00,1.84
7602.00,1.85
7601.00,1.85
7600.00,1.85
7599.00,1.85
7598.00,1.85
7597.00,1.85
7596.00,1.85
7595.00,1.85
7594.00,1.85
7593.00,1.85
7592.00,1.85
7591.00,1.85
7590.00,1.85
7589.00,1.85
7588.00,1.85
7587.00,1.85
7586.00,1.85
7585.00,1.86
7584.00,1.86
7583.00,1.86
7582.00,1.86
7581.00,1.86
7580.00,1.86
7579.00,1.86
7578.00,1.87
7577.00,1.87
7576.00,1.87
7575.00,1.87
7574.00,1.88
7573.00,1.88
7572.00,1.88
7571.00,1.88
7570.00,1.88
7569.00,1.89
7568.00,1.89
7567.00,1.90
7566.00,1.90
7565.00,1.91
7564.00,1.91
7563.00,1.91
7562.00,1.92
7561.00,1.92
7560.00,1.92
7559.00,1.92
7558.00,1.92
7557.00,1.92
7556.00,1.92
7555.00,1.92
7554.00,1.92
7553.00,1.92
7552.00,1.92
7551.00,1.92
7550.00,1.92
7549.00,1.92
7548.00,1.91
7547.00,1.91
7546.00,1.91
7545.00,1.91
7544.00,1.90
7543.00,1.90
7542.00,1.90
7541.00,1.90
7540.00,1.90
7539.00,1.90
7538.00,1.90
7537.00,1.90
7536.00,1.90
7535.00,1.90
7534.00,1.90
7533.00,1.90
7532.00,1.90
7531.00,1.90
7530.00,1.90
7529.00,1.91
7528.00,1.91
7527.00,1.91
7526.00,1.91
7525.00,1.91
7524.00,1.91
7523.00,1.91
7522.00,1.91
7521.00,1.90
7520.00,1.90
7519.00,1.90
7518.00,1.89
7517.00,1.89
7516.00,1.88
7515.00,1.88
7514.00,1.87
7513.00,1.87
7512.00,1.87
7511.00,1.86
7510.00,1.86
7509.00,1.86
7508.00,1.85
7507.00,1.85
7506.00,1.85
7505.00,1.85
7504.00,1.84
7503.00,1.84
7502.00,1.84
7501.00,1.84
7500.00,1.84
7499.00,1.84
7498.00,1.85
7497.00,1.84
7496.00,1.84
7495.00,1.84
7494.00,1.84
7493.00,1.84
7492.00,1.84
7491.00,1.84
7490.00,1.84
7489.00,1.85
7488.00,1.85
7487.00,1.85
7486.00,1.85
7485.00,1.85
7484.00,1.85
7483.00,1.85
7482.00,1.84
7481.00,1.84
7480.00,1.84
7479.00,1.84
7478.00,1.84
7477.00,1.84
7476.00,1.84
7475.00,1.84
7474.00,1.84
7473.00,1.84
7472.00,1.84
7471.00,1.84
7470.00,1.84
7469.00,1.84
7468.00,1.84
7467.00,1.84
7466.00,1.85
7465.00,1.85
7464.00,1.85
7463.00,1.85
7462.00,1.85
7461.00,1.85
7460.00,1.85
7459.00,1.85
7458.00,1.86
7457.00,1.86
7456.00,1.86
7455.00,1.85
7454.00,1.85
7453.00,1.85
7452.00,1.85
7451.00,1.85
7450.00,1.85
7449.00,1.85
7448.00,1.85
7447.00,1.85
7446.00,1.84
7445.00,1.84
7444.00,1.84
7443.00,1.84
7442.00,1.84
7441.00,1.83
7440.00,1.83
7439.00,1.83
7438.00,1.83
7437.00,1.83
7436.00,1.83
7435.00,1.83
7434.00,1.83
7433.00,1.82
7432.00,1.82
7431.00,1.82
7430.00,1.82
7429.00,1.82
7428.00,1.81
7427.00,1.81
7426.00,1.81
7425.00,1.81
7424.00,1.81
7423.00,1.81
7422.00,1.81
7421.00,1.81
7420.00,1.81
7419.00,1.81
7418.00,1.82
7417.00,1.82
7416.00,1.82
7415.00,1.82
7414.00,1.82
7413.00,1.82
7412.00,1.83
7411.00,1.83
7410.00,1.83
7409.00,1.83
7408.00,1.83
7407.00,1.83
7406.00,1.83
7405.00,1.83
7404.00,1.83
7403.00,1.83
7402.00,1.83
7401.00,1.83
7400.00,1.83
7399.00,1.83
7398.00,1.83
7397.00,1.83
7396.00,1.83
7395.00,1.83
7394.00,1.82
7393.00,1.82
7392.00,1.82
7391.00,1.82
7390.00,1.82
7389.00,1.82
7388.00,1.82
7387.00,1.81
7386.00,1.81
7385.00,1.81
7384.00,1.81
7383.00,1.81
7382.00,1.81
7381.00,1.81
7380.00,1.82
7379.00,1.82
7378.00,1.82
7377.00,1.83
7376.00,1.83
7375.00,1.83
7374.00,1.84
7373.00,1.84
7372.00,1.84
7371.00,1.84
7370.00,1.84
7369.00,1.84
7368.00,1.84
7367.00,1.84
7366.00,1.83
7365.00,1.83
7364.00,1.83
7363.00,1.82
7362.00,1.82
7361.00,1.82
7360.00,1.81
7359.00,1.81
7358.00,1.81
7357.00,1.81
7356.00,1.80
7355.00,1.80
7354.00,1.80
7353.00,1.80
7352.00,1.80
7351.00,1.80
7350.00,1.80
7349.00,1.80
7348.00,1.80
7347.00,1.80
7346.00,1.80
7345.00,1.80
7344.00,1.80
7343.00,1.80
7342.00,1.80
7341.00,1.80
7340.00,1.80
7339.00,1.80
7338.00,1.80
7337.00,1.80
7336.00,1.80
7335.00,1.80
7334.00,1.80
7333.00,1.81
7332.00,1.81
7331.00,1.81
7330.00,1.81
7329.00,1.82
7328.00,1.82
7327.00,1.82
7326.00,1.82
7325.00,1.83
7324.00,1.83
7323.00,1.83
7322.00,1.83
7321.00,1.84
7320.00,1.84
7319.00,1.84
7318.00,1.84
7317.00,1.84
7316.00,1.84
7315.00,1.84
7314.00,1.84
7313.00,1.84
7312.00,1.84
7311.00,1.84
7310.00,1.83
7309.00,1.83
7308.00,1.83
7307.00,1.83
7306.00,1.83
7305.00,1.83
7304.00,1.83
7303.00,1.83
7302.00,1.82
7301.00,1.82
7300.00,1.82
7299.00,1.82
7298.00,1.82
7297.00,1.82
7296.00,1.82
7295.00,1.82
7294.00,1.82
7293.00,1.82
7292.00,1.82
7291.00,1.82
7290.00,1.82
7289.00,1.82
7288.00,1.82
7287.00,1.82
7286.00,1.82
7285.00,1.81
7284.00,1.81
7283.00,1.81
7282.00,1.81
7281.00,1.81
7280.00,1.81
7279.00,1.80
7278.00,1.80
7277.00,1.80
7276.00,1.79
7275.00,1.79
7274.00,1.79
7273.00,1.79
7272.00,1.79
7271.00,1.78
7270.00,1.78
7269.00,1.78
7268.00,1.78
7267.00,1.78
7266.00,1.78
7265.00,1.78
7264.00,1.78
7263.00,1.78
7262.00,1.78
7261.00,1.78
7260.00,1.78
7259.00,1.78
7258.00,1.78
7257.00,1.78
7256.00,1.78
7255.00,1.78
7254.00,1.78
7253.00,1.78
7252.00,1.78
7251.00,1.78
7250.00,1.78
7249.00,1.78
7248.00,1.78
7247.00,1.78
7246.00,1.78
7245.00,1.78
7244.00,1.78
7243.00,1.78
7242.00,1.79
7241.00,1.79
7240.00,1.79
7239.00,1.79
7238.00,1.79
7237.00,1.79
7236.00,1.79
7235.00,1.79
7234.00,1.80
7233.00,1.80
7232.00,1.80
7231.00,1.80
7230.00,1.79
7229.00,1.79
7228.00,1.79
7227.00,1.78
7226.00,1.78
7225.00,1.77
7224.00,1.77
7223.00,1.76
7222.00,1.76
7221.00,1.75
7220.00,1.75
7219.00,1.74
7218.00,1.74
7217.00,1.74
7216.00,1.73
7215.00,1.73
7214.00,1.73
7213.00,1.73
7212.00,1.73
7211.00,1.73
7210.00,1.73
7209.00,1.73
7208.00,1.73
7207.00,1.73
7206.00,1.72
7205.00,1.72
7204.00,1.72
7203.00,1.72
7202.00,1.71
7201.00,1.71
7200.00,1.71
7199.00,1.70
7198.00,1.70
7197.00,1.70
7196.00,1.69
7195.00,1.69
7194.00,1.69
7193.00,1.69
7192.00,1.69
7191.00,1.69
7190.00,1.69
7189.00,1.69
7188.00,1.69
7187.00,1.69
7186.00,1.69
7185.00,1.70
7184.00,1.70
7183.00,1.70
7182.00,1.70
7181.00,1.71
7180.00,1.71
7179.00,1.71
7178.00,1.71
7177.00,1.71
7176.00,1.71
7175.00,1.70
7174.00,1.70
7173.00,1.70
7172.00,1.70
7171.00,1.69
7170.00,1.69
7169.00,1.68
7168.00,1.68
7167.00,1.67
7166.00,1.67
7165.00,1.66
7164.00,1.65
7163.00,1.65
7162.00,1.64
7161.00,1.64
7160.00,1.63
7159.00,1.62
7158.00,1.62
7157.00,1.61
7156.00,1.61
7155.00,1.60
7154.00,1.60
7153.00,1.59
7152.00,1.59
7151.00,1.58
7150.00,1.58
7149.00,1.58
7148.00,1.57
7147.00,1.56
7146.00,1.56
7145.00,1.55
7144.00,1.55
7143.00,1.54
7142.00,1.54
7141.00,1.53
7140.00,1.53
7139.00,1.53
7138.00,1.52
7137.00,1.52
7136.00,1.51
7135.00,1.51
7134.00,1.51
7133.00,1.51
7132.00,1.51
7131.00,1.50
7130.00,1.50
7129.00,1.51
7128.00,1.51
7127.00,1.51
7126.00,1.51
7125.00,1.51
7124.00,1.51
7123.00,1.50
7122.00,1.50
7121.00,1.50
7120.00,1.50
7119.00,1.50
7118.00,1.50
7117.00,1.50
7116.00,1.50
7115.00,1.49
7114.00,1.49
7113.00,1.49
7112.00,1.49
7111.00,1.49
7110.00,1.48
7109.00,1.48
7108.00,1.48
7107.00,1.48
7106.00,1.48
7105.00,1.48
7104.00,1.47
7103.00,1.47
7102.00,1.47
7101.00,1.47
7100.00,1.47
7099.00,1.46
7098.00,1.46
7097.00,1.46
7096.00,1.46
7095.00,1.45
7094.00,1.45
7093.00,1.45
7092.00,1.45
7091.00,1.45
7090.00,1.44
7089.00,1.44
7088.00,1.44
7087.00,1.44
7086.00,1.43
7085.00,1.43
7084.00,1.43
7083.00,1.43
7082.00,1.42
7081.00,1.42
7080.00,1.42
7079.00,1.41
7078.00,1.41
7077.00,1.41
7076.00,1.40
7075.00,1.40
7074.00,1.39
7073.00,1.39
7072.00,1.39
7071.00,1.39
7070.00,1.38
7069.00,1.38
7068.00,1.38
7067.00,1.38
7066.00,1.38
7065.00,1.38
7064.00,1.38
7063.00,1.38
7062.00,1.38
7061.00,1.38
7060.00,1.38
7059.00,1.38
7058.00,1.38
7057.00,1.39
7056.00,1.39
7055.00,1.39
7054.00,1.39
7053.00,1.39
7052.00,1.39
7051.00,1.39
7050.00,1.38
7049.00,1.38
7048.00,1.38
7047.00,1.38
7046.00,1.38
7045.00,1.37
7044.00,1.37
7043.00,1.37
7042.00,1.37
7041.00,1.37
7040.00,1.37
7039.00,1.37
7038.00,1.37
7037.00,1.37
7036.00,1.37
7035.00,1.37
7034.00,1.37
7033.00,1.38
7032.00,1.38
7031.00,1.38
7030.00,1.39
7029.00,1.39
7028.00,1.40
7027.00,1.40
7026.00,1.41
7025.00,1.41
7024.00,1.41
7023.00,1.41
7022.00,1.41
7021.00,1.41
7020.00,1.41
7019.00,1.41
7018.00,1.41
7017.00,1.41
7016.00,1.40
7015.00,1.40
7014.00,1.39
7013.00,1.39
7012.00,1.38
7011.00,1.37
7010.00,1.37
7009.00,1.36
7008.00,1.35
7007.00,1.35
7006.00,1.34
7005.00,1.33
7004.00,1.33
7003.00,1.32
7002.00,1.32
7001.00,1.32
7000.00,1.31
6999.00,1.31
6998.00,1.31
6997.00,1.31
6996.00,1.31
6995.00,1.31
6994.00,1.31
6993.00,1.31
6992.00,1.32
6991.00,1.32
6990.00,1.32
6989.00,1.33
6988.00,1.33
6987.00,1.33
6986.00,1.34
6985.00,1.34
6984.00,1.34
6983.00,1.34
6982.00,1.35
6981.00,1.35
6980.00,1.35
6979.00,1.35
6978.00,1.35
6977.00,1.35
6976.00,1.35
6975.00,1.35
6974.00,1.35
6973.00,1.35
6972.00,1.35
6971.00,1.35
6970.00,1.35
6969.00,1.35
6968.00,1.35
6967.00,1.35
6966.00,1.35
6965.00,1.35
6964.00,1.35
6963.00,1.35
6962.00,1.35
6961.00,1.35
6960.00,1.35
6959.00,1.35
6958.00,1.35
6957.00,1.35
6956.00,1.34
6955.00,1.34
6954.00,1.34
6953.00,1.34
6952.00,1.33
6951.00,1.33
6950.00,1.32
6949.00,1.32
6948.00,1.32
6947.00,1.31
6946.00,1.31
6945.00,1.31
6944.00,1.31
6943.00,1.30
6942.00,1.30
6941.00,1.30
6940.00,1.30
6939.00,1.30
6938.00,1.30
6937.00,1.30
6936.00,1.30
6935.00,1.31
6934.00,1.31
6933.00,1.31
6932.00,1.31
6931.00,1.31
6930.00,1.32
6929.00,1.32
6928.00,1.32
6927.00,1.32
6926.00,1.32
6925.00,1.32
6924.00,1.32
6923.00,1.32
6922.00,1.32
6921.00,1.32
6920.00,1.32
6919.00,1.32
6918.00,1.32
6917.00,1.32
6916.00,1.32
6915.00,1.32
6914.00,1.32
6913.00,1.32
6912.00,1.32
6911.00,1.31
6910.00,1.31
6909.00,1.31
6908.00,1.31
6907.00,1.31
6906.00,1.31
6905.00,1.31
6904.00,1.31
6903.00,1.31
6902.00,1.31
6901.00,1.31
6900.00,1.31
6899.00,1.31
6898.00,1.31
6897.00,1.31
6896.00,1.31
6895.00,1.31
6894.00,1.31
6893.00,1.31
6892.00,1.31
6891.00,1.31
6890.00,1.31
6889.00,1.31
6888.00,1.31
6887.00,1.30
6886.00,1.30
6885.00,1.30
6884.00,1.30
6883.00,1.30
6882.00,1.30
6881.00,1.30
6880.00,1.30
6879.00,1.30
6878.00,1.30
6877.00,1.30
6876.00,1.30
6875.00,1.30
6874.00,1.30
6873.00,1.30
6872.00,1.30
6871.00,1.30
6870.00,1.30
6869.00,1.30
6868.00,1.30
6867.00,1.30
6866.00,1.30
6865.00,1.30
6864.00,1.30
6863.00,1.30
6862.00,1.30
6861.00,1.30
6860.00,1.30
6859.00,1.30
6858.00,1.30
6857.00,1.30
6856.00,1.30
6855.00,1.30
6854.00,1.29
6853.00,1.29
6852.00,1.29
6851.00,1.29
6850.00,1.29
6849.00,1.28
6848.00,1.28
6847.00,1.28
6846.00,1.27
6845.00,1.27
6844.00,1.27
6843.00,1.27
6842.00,1.27
6841.00,1.27
6840.00,1.26
6839.00,1.26
6838.00,1.26
6837.00,1.27
6836.00,1.27
6835.00,1.27
6834.00,1.27
6833.00,1.27
6832.00,1.28
6831.00,1.28
6830.00,1.28
6829.00,1.29
6828.00,1.29
6827.00,1.29
6826.00,1.30
6825.00,1.30
6824.00,1.30
6823.00,1.30
6822.00,1.30
6821.00,1.31
6820.00,1.31
6819.00,1.31
6818.00,1.31
6817.00,1.31
6816.00,1.30
6815.00,1.30
6814.00,1.30
6813.00,1.30
6812.00,1.30
6811.00,1.30
6810.00,1.31
6809.00,1.31
6808.00,1.31
6807.00,1.31
6806.00,1.31
6805.00,1.31
6804.00,1.31
6803.00,1.31
6802.00,1.31
6801.00,1.32
6800.00,1.32
6799.00,1.32
6798.00,1.32
6797.00,1.32
6796.00,1.32
6795.00,1.32
6794.00,1.32
6793.00,1.32
6792.00,1.32
6791.00,1.32
6790.00,1.32
6789.00,1.32
6788.00,1.33
6787.00,1.33
6786.00,1.33
6785.00,1.33
6784.00,1.33
6783.00,1.33
6782.00,1.33
6781.00,1.33
6780.00,1.33
6779.00,1.33
6778.00,1.33
6777.00,1.33
6776.00,1.33
6775.00,1.33
6774.00,1.33
6773.00,1.33
6772.00,1.33
6771.00,1.33
6770.00,1.33
6769.00,1.33
6768.00,1.32
6767.00,1.32
6766.00,1.32
6765.00,1.32
6764.00,1.32
6763.00,1.32
6762.00,1.32
6761.00,1.32
6760.00,1.32
6759.00,1.32
6758.00,1.32
6757.00,1.32
6756.00,1.32
6755.00,1.32
6754.00,1.32
6753.00,1.33
6752.00,1.33
6751.00,1.33
6750.00,1.33
6749.00,1.34
6748.00,1.34
6747.00,1.35
6746.00,1.35
6745.00,1.36
6744.00,1.36
6743.00,1.37
6742.00,1.37
6741.00,1.37
6740.00,1.38
6739.00,1.38
6738.00,1.39
6737.00,1.39
6736.00,1.39
6735.00,1.39
6734.00,1.39
6733.00,1.39
6732.00,1.39
6731.00,1.39
6730.00,1.39
6729.00,1.39
6728.00,1.38
6727.00,1.38
6726.00,1.38
6725.00,1.38
6724.00,1.37
6723.00,1.37
6722.00,1.37
6721.00,1.37
6720.00,1.37
6719.00,1.37
6718.00,1.37
6717.00,1.37
6716.00,1.37
6715.00,1.37
6714.00,1.37
6713.00,1.38
6712.00,1.38
6711.00,1.38
6710.00,1.38
6709.00,1.39
6708.00,1.39
6707.00,1.39
6706.00,1.39
6705.00,1.40
6704.00,1.40
6703.00,1.40
6702.00,1.40
6701.00,1.40
6700.00,1.40
6699.00,1.41
6698.00,1.41
6697.00,1.41
6696.00,1.41
6695.00,1.41
6694.00,1.41
6693.00,1.41
6692.00,1.41
6691.00,1.41
6690.00,1.41
6689.00,1.41
6688.00,1.41
6687.00,1.41
6686.00,1.41
6685.00,1.41
6684.00,1.41
6683.00,1.41
6682.00,1.41
6681.00,1.41
6680.00,1.41
6679.00,1.41
6678.00,1.41
6677.00,1.41
6676.00,1.41
6675.00,1.42
6674.00,1.42
6673.00,1.42
6672.00,1.43
6671.00,1.43
6670.00,1.43
6669.00,1.44
6668.00,1.44
6667.00,1.45
6666.00,1.45
6665.00,1.45
6664.00,1.46
6663.00,1.46
6662.00,1.46
6661.00,1.47
6660.00,1.47
6659.00,1.47
6658.00,1.48
6657.00,1.48
6656.00,1.48
6655.00,1.48
6654.00,1.48
6653.00,1.49
6652.00,1.49
6651.00,1.49
6650.00,1.50
6649.00,1.50
6648.00,1.50
6647.00,1.50
6646.00,1.51
6645.00,1.51
6644.00,1.51
6643.00,1.51
6642.00,1.51
6641.00,1.51
6640.00,1.51
6639.00,1.52
6638.00,1.52
6637.00,1.52
6636.00,1.52
6635.00,1.52
6634.00,1.51
6633.00,1.51
6632.00,1.51
6631.00,1.51
6630.00,1.51
6629.00,1.51
6628.00,1.51
6627.00,1.51
6626.00,1.51
6625.00,1.51
6624.00,1.51
6623.00,1.50
6622.00,1.50
6621.00,1.50
6620.00,1.50
6619.00,1.50
6618.00,1.50
6617.00,1.50
6616.00,1.50
6615.00,1.50
6614.00,1.50
6613.00,1.50
6612.00,1.50
6611.00,1.50
6610.00,1.50
6609.00,1.50
6608.00,1.50
6607.00,1.50
6606.00,1.50
6605.00,1.51
6604.00,1.51
6603.00,1.51
6602.00,1.51
6601.00,1.51
6600.00,1.51
6599.00,1.51
6598.00,1.52
6597.00,1.52
6596.00,1.52
6595.00,1.52
6594.00,1.52
6593.00,1.52
6592.00,1.52
6591.00,1.52
6590.00,1.52
6589.00,1.52
6588.00,1.52
6587.00,1.53
6586.00,1.53
6585.00,1.53
6584.00,1.53
6583.00,1.53
6582.00,1.53
6581.00,1.54
6580.00,1.54
6579.00,1.54
6578.00,1.54
6577.00,1.55
6576.00,1.55
6575.00,1.55
6574.00,1.56
6573.00,1.56
6572.00,1.56
6571.00,1.57
6570.00,1.57
6569.00,1.57
6568.00,1.58
6567.00,1.58
6566.00,1.58
6565.00,1.58
6564.00,1.58
6563.00,1.58
6562.00,1.58
6561.00,1.58
6560.00,1.58
6559.00,1.58
6558.00,1.58
6557.00,1.58
6556.00,1.58
6555.00,1.57
6554.00,1.57
6553.00,1.56
6552.00,1.56
6551.00,1.55
6550.00,1.55
6549.00,1.55
6548.00,1.54
6547.00,1.54
6546.00,1.54
6545.00,1.54
6544.00,1.54
6543.00,1.54
6542.00,1.54
6541.00,1.54
6540.00,1.54
6539.00,1.54
6538.00,1.54
6537.00,1.54
6536.00,1.54
6535.00,1.55
6534.00,1.55
6533.00,1.55
6532.00,1.56
6531.00,1.56
6530.00,1.56
6529.00,1.57
6528.00,1.57
6527.00,1.57
6526.00,1.57
6525.00,1.58
6524.00,1.58
6523.00,1.58
6522.00,1.58
6521.00,1.59
6520.00,1.59
6519.00,1.59
6518.00,1.60
6517.00,1.60
6516.00,1.60
6515.00,1.60
6514.00,1.61
6513.00,1.61
6512.00,1.61
6511.00,1.62
6510.00,1.62
6509.00,1.62
6508.00,1.62
6507.00,1.63
6506.00,1.63
6505.00,1.63
6504.00,1.63
6503.00,1.63
6502.00,1.63
6501.00,1.63
6500.00,1.63
6499.00,1.63
6498.00,1.63
6497.00,1.63
6496.00,1.63
6495.00,1.62
6494.00,1.62
6493.00,1.62
6492.00,1.62
6491.00,1.62
6490.00,1.62
6489.00,1.62
6488.00,1.62
6487.00,1.61
6486.00,1.61
6485.00,1.61
6484.00,1.61
6483.00,1.61
6482.00,1.62
6481.00,1.62
6480.00,1.62
6479.00,1.62
6478.00,1.62
6477.00,1.62
6476.00,1.63
6475.00,1.63
6474.00,1.63
6473.00,1.63
6472.00,1.64
6471.00,1.64
6470.00,1.64
6469.00,1.65
6468.00,1.65
6467.00,1.65
6466.00,1.65
6465.00,1.65
6464.00,1.66
6463.00,1.66
6462.00,1.66
6461.00,1.66
6460.00,1.66
6459.00,1.66
6458.00,1.66
6457.00,1.65
6456.00,1.65
6455.00,1.65
6454.00,1.65
6453.00,1.65
6452.00,1.65
6451.00,1.65
6450.00,1.65
6449.00,1.65
6448.00,1.65
6447.00,1.65
6446.00,1.65
6445.00,1.65
6444.00,1.65
6443.00,1.65
6442.00,1.65
6441.00,1.65
6440.00,1.65
6439.00,1.65
6438.00,1.65
6437.00,1.65
6436.00,1.65
6435.00,1.66
6434.00,1.66
6433.00,1.66
6432.00,1.66
6431.00,1.66
6430.00,1.66
6429.00,1.66
6428.00,1.66
6427.00,1.66
6426.00,1.66
6425.00,1.66
6424.00,1.66
6423.00,1.66
6422.00,1.66
6421.00,1.66
6420.00,1.66
6419.00,1.66
6418.00,1.66
6417.00,1.66
6416.00,1.66
6415.00,1.66
6414.00,1.66
6413.00,1.66
6412.00,1.66
6411.00,1.66
6410.00,1.66
6409.00,1.66
6408.00,1.66
6407.00,1.67
6406.00,1.67
6405.00,1.67
6404.00,1.67
6403.00,1.68
6402.00,1.68
6401.00,1.68
6400.00,1.68
6399.00,1.69
6398.00,1.69
6397.00,1.69
6396.00,1.69
6395.00,1.70
6394.00,1.70
6393.00,1.70
6392.00,1.70
6391.00,1.70
6390.00,1.70
6389.00,1.70
6388.00,1.70
6387.00,1.70
6386.00,1.70
6385.00,1.70
6384.00,1.70
6383.00,1.70
6382.00,1.70
6381.00,1.70
6380.00,1.70
6379.00,1.70
6378.00,1.69
6377.00,1.69
6376.00,1.69
6375.00,1.69
6374.00,1.69
6373.00,1.69
6372.00,1.68
6371.00,1.68
6370.00,1.68
6369.00,1.68
6368.00,1.68
6367.00,1.67
6366.00,1.67
6365.00,1.67
6364.00,1.67
6363.00,1.67
6362.00,1.67
6361.00,1.67
6360.00,1.67
6359.00,1.67
6358.00,1.67
6357.00,1.67
6356.00,1.67
6355.00,1.68
6354.00,1.68
6353.00,1.68
6352.00,1.69
6351.00,1.69
6350.00,1.69
6349.00,1.70
6348.00,1.70
6347.00,1.70
6346.00,1.71
6345.00,1.71
6344.00,1.71
6343.00,1.72
6342.00,1.72
6341.00,1.72
6340.00,1.72
6339.00,1.72
6338.00,1.72
6337.00,1.72
6336.00,1.72
6335.00,1.72
6334.00,1.72
6333.00,1.72
6332.00,1.72
6331.00,1.72
6330.00,1.72
6329.00,1.72
6328.00,1.72
6327.00,1.72
6326.00,1.72
6325.00,1.72
6324.00,1.72
6323.00,1.72
6322.00,1.72
6321.00,1.72
6320.00,1.72
6319.00,1.72
6318.00,1.72
6317.00,1.72
6316.00,1.72
6315.00,1.72
6314.00,1.72
6313.00,1.72
6312.00,1.72
6311.00,1.72
6310.00,1.73
6309.00,1.73
6308.00,1.73
6307.00,1.74
6306.00,1.74
6305.00,1.74
6304.00,1.75
6303.00,1.75
6302.00,1.76
6301.00,1.76
6300.00,1.76
6299.00,1.77
6298.00,1.77
6297.00,1.77
6296.00,1.78
6295.00,1.78
6294.00,1.78
6293.00,1.78
6292.00,1.78
6291.00,1.78
6290.00,1.78
6289.00,1.78
6288.00,1.78
6287.00,1.78
6286.00,1.78
6285.00,1.78
6284.00,1.78
6283.00,1.77
6282.00,1.77
6281.00,1.77
6280.00,1.77
6279.00,1.77
6278.00,1.77
6277.00,1.77
6276.00,1.77
6275.00,1.77
6274.00,1.77
6273.00,1.77
6272.00,1.77
6271.00,1.77
6270.00,1.77
6269.00,1.77
6268.00,1.77
6267.00,1.77
6266.00,1.77
6265.00,1.77
6264.00,1.77
6263.00,1.77
6262.00,1.77
6261.00,1.77
6260.00,1.78
6259.00,1.78
6258.00,1.78
6257.00,1.77
6256.00,1.77
6255.00,1.77
6254.00,1.77
6253.00,1.77
6252.00,1.77
6251.00,1.77
6250.00,1.77
6249.00,1.77
6248.00,1.77
6247.00,1.77
6246.00,1.77
6245.00,1.78
6244.00,1.78
6243.00,1.78
6242.00,1.78
6241.00,1.78
6240.00,1.78
6239.00,1.79
6238.00,1.79
6237.00,1.79
6236.00,1.80
6235.00,1.80
6234.00,1.80
6233.00,1.80
6232.00,1.81
6231.00,1.81
6230.00,1.81
6229.00,1.81
6228.00,1.81
6227.00,1.81
6226.00,1.81
6225.00,1.81
6224.00,1.80
6223.00,1.80
6222.00,1.80
6221.00,1.79
6220.00,1.79
6219.00,1.79
6218.00,1.78
6217.00,1.78
6216.00,1.78
6215.00,1.78
6214.00,1.77
6213.00,1.77
6212.00,1.77
6211.00,1.77
6210.00,1.77
6209.00,1.78
6208.00,1.78
6207.00,1.78
6206.00,1.79
6205.00,1.79
6204.00,1.79
6203.00,1.80
6202.00,1.80
6201.00,1.81
6200.00,1.81
6199.00,1.82
6198.00,1.82
6197.00,1.82
6196.00,1.83
6195.00,1.83
6194.00,1.83
6193.00,1.83
6192.00,1.83
6191.00,1.83
6190.00,1.83
6189.00,1.83
6188.00,1.83
6187.00,1.83
6186.00,1.83
6185.00,1.83
6184.00,1.82
6183.00,1.82
6182.00,1.82
6181.00,1.82
6180.00,1.81
6179.00,1.81
6178.00,1.81
6177.00,1.81
6176.00,1.81
6175.00,1.81
6174.00,1.81
6173.00,1.81
6172.00,1.81
6171.00,1.81
6170.00,1.81
6169.00,1.82
6168.00,1.82
6167.00,1.82
6166.00,1.82
6165.00,1.83
6164.00,1.83
6163.00,1.84
6162.00,1.84
6161.00,1.84
6160.00,1.85
6159.00,1.85
6158.00,1.85
6157.00,1.86
6156.00,1.86
6155.00,1.87
6154.00,1.87
6153.00,1.87
6152.00,1.87
6151.00,1.88
6150.00,1.88
6149.00,1.88
6148.00,1.88
6147.00,1.88
6146.00,1.88
6145.00,1.88
6144.00,1.88
6143.00,1.87
6142.00,1.87
6141.00,1.87
6140.00,1.87
6139.00,1.87
6138.00,1.86
6137.00,1.86
6136.00,1.86
6135.00,1.86
6134.00,1.86
6133.00,1.86
6132.00,1.86
6131.00,1.86
6130.00,1.86
6129.00,1.86
6128.00,1.86
6127.00,1.87
6126.00,1.87
6125.00,1.87
6124.00,1.88
6123.00,1.88
6122.00,1.89
6121.00,1.89
6120.00,1.90
6119.00,1.90
6118.00,1.90
6117.00,1.91
6116.00,1.91
6115.00,1.92
6114.00,1.92
6113.00,1.92
6112.00,1.93
6111.00,1.93
6110.00,1.93
6109.00,1.93
6108.00,1.93
6107.00,1.93
6106.00,1.93
6105.00,1.93
6104.00,1.93
6103.00,1.92
6102.00,1.92
6101.00,1.92
6100.00,1.92
6099.00,1.91
6098.00,1.91
6097.00,1.91
6096.00,1.90
6095.00,1.90
6094.00,1.90
6093.00,1.90
6092.00,1.89
6091.00,1.89
6090.00,1.89
6089.00,1.88
6088.00,1.88
6087.00,1.88
6086.00,1.88
6085.00,1.88
6084.00,1.88
6083.00,1.88
6082.00,1.88
6081.00,1.88
6080.00,1.88
6079.00,1.88
6078.00,1.88
6077.00,1.88
6076.00,1.88
6075.00,1.88
6074.00,1.88
6073.00,1.88
6072.00,1.88
6071.00,1.88
6070.00,1.88
6069.00,1.88
6068.00,1.88
6067.00,1.88
6066.00,1.88
6065.00,1.89
6064.00,1.89
6063.00,1.89
6062.00,1.89
6061.00,1.89
6060.00,1.89
6059.00,1.89
6058.00,1.89
6057.00,1.89
6056.00,1.89
6055.00,1.90
6054.00,1.90
6053.00,1.90
6052.00,1.90
6051.00,1.90
6050.00,1.90
6049.00,1.90
6048.00,1.90
6047.00,1.90
6046.00,1.90
6045.00,1.90
6044.00,1.90
6043.00,1.90
6042.00,1.90
6041.00,1.90
6040.00,1.91
6039.00,1.91
6038.00,1.91
6037.00,1.91
6036.00,1.92
6035.00,1.92
6034.00,1.92
6033.00,1.92
6032.00,1.92
6031.00,1.93
6030.00,1.93
6029.00,1.93
6028.00,1.93
6027.00,1.93
6026.00,1.94
6025.00,1.94
6024.00,1.94
6023.00,1.94
6022.00,1.94
6021.00,1.94
6020.00,1.94
6019.00,1.94
6018.00,1.94
6017.00,1.94
6016.00,1.94
6015.00,1.94
6014.00,1.94
6013.00,1.94
6012.00,1.94
6011.00,1.94
6010.00,1.94
6009.00,1.94
6008.00,1.94
6007.00,1.94
6006.00,1.94
6005.00,1.94
6004.00,1.94
6003.00,1.94
6002.00,1.94
6001.00,1.94
6000.00,1.93
5999.00,1.93
5998.00,1.93
5997.00,1.93
5996.00,1.93
5995.00,1.92
5994.00,1.92
5993.00,1.92
5992.00,1.92
5991.00,1.91
5990.00,1.91
5989.00,1.91
5988.00,1.91
5987.00,1.91
5986.00,1.91
5985.00,1.91
5984.00,1.91
5983.00,1.91
5982.00,1.91
5981.00,1.91
5980.00,1.91
5979.00,1.91
5978.00,1.91
5977.00,1.91
5976.00,1.91
5975.00,1.90
5974.00,1.90
5973.00,1.90
5972.00,1.90
5971.00,1.90
5970.00,1.89
5969.00,1.89
5968.00,1.89
5967.00,1.88
5966.00,1.88
5965.00,1.87
5964.00,1.87
5963.00,1.86
5962.00,1.86
5961.00,1.86
5960.00,1.85
5959.00,1.85
5958.00,1.85
5957.00,1.84
5956.00,1.84
5955.00,1.84
5954.00,1.84
5953.00,1.84
5952.00,1.83
5951.00,1.83
5950.00,1.83
5949.00,1.83
5948.00,1.83
5947.00,1.83
5946.00,1.82
5945.00,1.82
5944.00,1.82
5943.00,1.82
5942.00,1.81
5941.00,1.81
5940.00,1.81
5939.00,1.80
5938.00,1.80
5937.00,1.80
5936.00,1.80
5935.00,1.80
5934.00,1.79
5933.00,1.79
5932.00,1.79
5931.00,1.80
5930.00,1.80
5929.00,1.80
5928.00,1.80
5927.00,1.80
5926.00,1.81
5925.00,1.81
5924.00,1.81
5923.00,1.81
5922.00,1.81
5921.00,1.81
5920.00,1.81
5919.00,1.81
5918.00,1.81
5917.00,1.80
5916.00,1.80
5915.00,1.80
5914.00,1.79
5913.00,1.79
5912.00,1.79
5911.00,1.78
5910.00,1.78
5909.00,1.78
5908.00,1.78
5907.00,1.78
5906.00,1.78
5905.00,1.78
5904.00,1.78
5903.00,1.78
5902.00,1.78
5901.00,1.78
5900.00,1.78
5899.00,1.79
5898.00,1.79
5897.00,1.79
5896.00,1.79
5895.00,1.80
5894.00,1.80
5893.00,1.80
5892.00,1.80
5891.00,1.81
5890.00,1.81
5889.00,1.81
5888.00,1.81
5887.00,1.82
5886.00,1.82
5885.00,1.82
5884.00,1.82
5883.00,1.82
5882.00,1.83
5881.00,1.83
5880.00,1.83
5879.00,1.83
5878.00,1.83
5877.00,1.83
5876.00,1.83
5875.00,1.84
5874.00,1.84
5873.00,1.84
5872.00,1.84
5871.00,1.84
5870.00,1.84
5869.00,1.84
5868.00,1.84
5867.00,1.84
5866.00,1.84
5865.00,1.84
5864.00,1.84
5863.00,1.84
5862.00,1.84
5861.00,1.84
5860.00,1.84
5859.00,1.84
5858.00,1.84
5857.00,1.84
5856.00,1.84
5855.00,1.85
5854.00,1.85
5853.00,1.85
5852.00,1.85
5851.00,1.85
5850.00,1.85
5849.00,1.85
5848.00,1.85
5847.00,1.85
5846.00,1.85
5845.00,1.85
5844.00,1.85
5843.00,1.85
5842.00,1.85
5841.00,1.85
5840.00,1.84
5839.00,1.84
5838.00,1.84
5837.00,1.84
5836.00,1.84
5835.00,1.84
5834.00,1.84
5833.00,1.84
5832.00,1.83
5831.00,1.83
5830.00,1.83
5829.00,1.83
5828.00,1.83
5827.00,1.83
5826.00,1.83
5825.00,1.83
5824.00,1.83
5823.00,1.83
5822.00,1.83
5821.00,1.83
5820.00,1.83
5819.00,1.83
5818.00,1.83
5817.00,1.83
5816.00,1.83
5815.00,1.84
5814.00,1.84
5813.00,1.84
5812.00,1.84
5811.00,1.84
5810.00,1.84
5809.00,1.84
5808.00,1.84
5807.00,1.84
5806.00,1.84
5805.00,1.84
5804.00,1.84
5803.00,1.84
5802.00,1.85
5801.00,1.85
5800.00,1.85
5799.00,1.85
5798.00,1.85
5797.00,1.85
5796.00,1.85
5795.00,1.85
5794.00,1.85
5793.00,1.85
5792.00,1.85
5791.00,1.85
5790.00,1.85
5789.00,1.85
5788.00,1.85
5787.00,1.85
5786.00,1.85
5785.00,1.85
5784.00,1.85
5783.00,1.85
5782.00,1.84
5781.00,1.84
5780.00,1.84
5779.00,1.84
5778.00,1.84
5777.00,1.84
5776.00,1.83
5775.00,1.83
5774.00,1.83
5773.00,1.83
5772.00,1.83
5771.00,1.83
5770.00,1.82
5769.00,1.82
5768.00,1.82
5767.00,1.82
5766.00,1.82
5765.00,1.82
5764.00,1.82
5763.00,1.82
5762.00,1.83
5761.00,1.83
5760.00,1.83
5759.00,1.83
5758.00,1.83
5757.00,1.83
5756.00,1.84
5755.00,1.84
5754.00,1.84
5753.00,1.84
5752.00,1.85
5751.00,1.85
5750.00,1.85
5749.00,1.85
5748.00,1.86
5747.00,1.86
5746.00,1.86
5745.00,1.86
5744.00,1.86
5743.00,1.86
5742.00,1.86
5741.00,1.86
5740.00,1.86
5739.00,1.86
5738.00,1.86
5737.00,1.86
5736.00,1.86
5735.00,1.86
5734.00,1.86
5733.00,1.86
5732.00,1.86
5731.00,1.85
5730.00,1.85
5729.00,1.85
5728.00,1.85
5727.00,1.85
5726.00,1.85
5725.00,1.85
5724.00,1.85
5723.00,1.85
5722.00,1.84
5721.00,1.84
5720.00,1.84
5719.00,1.84
5718.00,1.84
5717.00,1.84
5716.00,1.84
5715.00,1.84
5714.00,1.84
5713.00,1.84
5712.00,1.84
5711.00,1.84
5710.00,1.84
5709.00,1.84
5708.00,1.84
5707.00,1.84
5706.00,1.84
5705.00,1.84
5704.00,1.84
5703.00,1.84
5702.00,1.84
5701.00,1.84
5700.00,1.84
5699.00,1.84
5698.00,1.84
5697.00,1.84
5696.00,1.83
5695.00,1.83
5694.00,1.83
5693.00,1.83
5692.00,1.83
5691.00,1.83
5690.00,1.83
5689.00,1.83
5688.00,1.83
5687.00,1.83
5686.00,1.83
5685.00,1.83
5684.00,1.83
5683.00,1.83
5682.00,1.83
5681.00,1.83
5680.00,1.84
5679.00,1.84
5678.00,1.84
5677.00,1.84
5676.00,1.84
5675.00,1.84
5674.00,1.85
5673.00,1.85
5672.00,1.85
5671.00,1.85
5670.00,1.85
5669.00,1.85
5668.00,1.85
5667.00,1.85
5666.00,1.85
5665.00,1.84
5664.00,1.84
5663.00,1.84
5662.00,1.84
5661.00,1.84
5660.00,1.84
5659.00,1.84
5658.00,1.84
5657.00,1.84
5656.00,1.84
5655.00,1.84
5654.00,1.84
5653.00,1.84
5652.00,1.84
5651.00,1.84
5650.00,1.84
5649.00,1.84
5648.00,1.85
5647.00,1.85
5646.00,1.85
5645.00,1.85
5644.00,1.85
5643.00,1.85
5642.00,1.86
5641.00,1.86
5640.00,1.86
5639.00,1.86
5638.00,1.86
5637.00,1.86
5636.00,1.86
5635.00,1.86
5634.00,1.86
5633.00,1.85
5632.00,1.85
5631.00,1.85
5630.00,1.85
5629.00,1.85
5628.00,1.85
5627.00,1.85
5626.00,1.85
5625.00,1.85
5624.00,1.85
5623.00,1.85
5622.00,1.85
5621.00,1.85
5620.00,1.85
5619.00,1.85
5618.00,1.85
5617.00,1.85
5616.00,1.86
5615.00,1.86
5614.00,1.86
5613.00,1.86
5612.00,1.86
5611.00,1.86
5610.00,1.86
5609.00,1.86
5608.00,1.86
5607.00,1.86
5606.00,1.86
5605.00,1.87
5604.00,1.87
5603.00,1.87
5602.00,1.87
5601.00,1.87
5600.00,1.87
5599.00,1.87
5598.00,1.87
5597.00,1.87
5596.00,1.87
5595.00,1.88
5594.00,1.88
5593.00,1.88
5592.00,1.88
5591.00,1.88
5590.00,1.89
5589.00,1.89
5588.00,1.89
5587.00,1.89
5586.00,1.89
5585.00,1.89
5584.00,1.89
5583.00,1.89
5582.00,1.90
5581.00,1.90
5580.00,1.90
5579.00,1.90
5578.00,1.90
5577.00,1.90
5576.00,1.90
5575.00,1.90
5574.00,1.90
5573.00,1.90
5572.00,1.90
5571.00,1.90
5570.00,1.90
5569.00,1.90
5568.00,1.89
5567.00,1.89
5566.00,1.89
5565.00,1.89
5564.00,1.89
5563.00,1.89
5562.00,1.89
5561.00,1.89
5560.00,1.89
5559.00,1.89
5558.00,1.89
5557.00,1.89
5556.00,1.89
5555.00,1.89
5554.00,1.89
5553.00,1.89
5552.00,1.89
5551.00,1.89
5550.00,1.89
5549.00,1.89
5548.00,1.89
5547.00,1.89
5546.00,1.89
5545.00,1.89
5544.00,1.89
5543.00,1.89
5542.00,1.89
5541.00,1.89
5540.00,1.89
5539.00,1.89
5538.00,1.89
5537.00,1.89
5536.00,1.89
5535.00,1.89
5534.00,1.89
5533.00,1.89
5532.00,1.89
5531.00,1.89
5530.00,1.89
5529.00,1.90
5528.00,1.90
5527.00,1.90
5526.00,1.90
5525.00,1.90
5524.00,1.90
5523.00,1.90
5522.00,1.90
5521.00,1.90
5520.00,1.90
5519.00,1.90
5518.00,1.90
5517.00,1.90
5516.00,1.89
5515.00,1.89
5514.00,1.89
5513.00,1.89
5512.00,1.89
5511.00,1.89
5510.00,1.89
5509.00,1.89
5508.00,1.89
5507.00,1.89
5506.00,1.89
5505.00,1.89
5504.00,1.89
5503.00,1.89
5502.00,1.89
5501.00,1.89
5500.00,1.89
5499.00,1.89
5498.00,1.88
5497.00,1.88
5496.00,1.88
5495.00,1.88
5494.00,1.88
5493.00,1.88
5492.00,1.89
5491.00,1.89
5490.00,1.89
5489.00,1.89
5488.00,1.89
5487.00,1.89
5486.00,1.90
5485.00,1.90
5484.00,1.90
5483.00,1.90
5482.00,1.90
5481.00,1.91
5480.00,1.91
5479.00,1.91
5478.00,1.91
5477.00,1.91
5476.00,1.91
5475.00,1.91
5474.00,1.91
5473.00,1.91
5472.00,1.91
5471.00,1.90
5470.00,1.90
5469.00,1.90
5468.00,1.90
5467.00,1.90
5466.00,1.90
5465.00,1.90
5464.00,1.90
5463.00,1.90
5462.00,1.90
5461.00,1.90
5460.00,1.90
5459.00,1.90
5458.00,1.90
5457.00,1.90
5456.00,1.90
5455.00,1.90
5454.00,1.90
5453.00,1.91
5452.00,1.91
5451.00,1.91
5450.00,1.91
5449.00,1.92
5448.00,1.92
5447.00,1.92
5446.00,1.92
5445.00,1.92
5444.00,1.92
5443.00,1.93
5442.00,1.93
5441.00,1.93
5440.00,1.93
5439.00,1.93
5438.00,1.93
5437.00,1.93
5436.00,1.93
5435.00,1.92
5434.00,1.92
5433.00,1.92
5432.00,1.92
5431.00,1.91
5430.00,1.91
5429.00,1.91
5428.00,1.91
5427.00,1.90
5426.00,1.90
5425.00,1.90
5424.00,1.90
5423.00,1.90
5422.00,1.89
5421.00,1.89
5420.00,1.89
5419.00,1.89
5418.00,1.89
5417.00,1.90
5416.00,1.90
5415.00,1.90
5414.00,1.90
5413.00,1.90
5412.00,1.90
5411.00,1.90
5410.00,1.91
5409.00,1.91
5408.00,1.91
5407.00,1.91
5406.00,1.91
5405.00,1.91
5404.00,1.92
5403.00,1.92
5402.00,1.92
5401.00,1.92
5400.00,1.92
5399.00,1.92
5398.00,1.92
5397.00,1.91
5396.00,1.91
5395.00,1.91
5394.00,1.91
5393.00,1.91
5392.00,1.91
5391.00,1.91
5390.00,1.91
5389.00,1.91
5388.00,1.91
5387.00,1.91
5386.00,1.91
5385.00,1.91
5384.00,1.91
5383.00,1.91
5382.00,1.91
5381.00,1.92
5380.00,1.92
5379.00,1.92
5378.00,1.92
5377.00,1.92
5376.00,1.92
5375.00,1.92
5374.00,1.92
5373.00,1.91
5372.00,1.91
5371.00,1.91
5370.00,1.90
5369.00,1.90
5368.00,1.89
5367.00,1.89
5366.00,1.88
5365.00,1.87
5364.00,1.87
5363.00,1.86
5362.00,1.85
5361.00,1.85
5360.00,1.84
5359.00,1.84
5358.00,1.83
5357.00,1.82
5356.00,1.82
5355.00,1.81
5354.00,1.81
5353.00,1.80
5352.00,1.80
5351.00,1.80
5350.00,1.79
5349.00,1.79
5348.00,1.78
5347.00,1.78
5346.00,1.77
5345.00,1.77
5344.00,1.76
5343.00,1.76
5342.00,1.75
5341.00,1.74
5340.00,1.74
5339.00,1.73
5338.00,1.73
5337.00,1.72
5336.00,1.71
5335.00,1.70
5334.00,1.69
5333.00,1.69
5332.00,1.68
5331.00,1.67
5330.00,1.66
5329.00,1.65
5328.00,1.64
5327.00,1.63
5326.00,1.62
5325.00,1.61
5324.00,1.60
5323.00,1.59
5322.00,1.58
5321.00,1.57
5320.00,1.55
5319.00,1.54
5318.00,1.53
5317.00,1.52
5316.00,1.51
5315.00,1.49
5314.00,1.48
5313.00,1.47
5312.00,1.46
5311.00,1.44
5310.00,1.43
5309.00,1.42
5308.00,1.41
5307.00,1.39
5306.00,1.38
5305.00,1.37
5304.00,1.36
5303.00,1.35
5302.00,1.33
5301.00,1.32
5300.00,1.31
5299.00,1.30
5298.00,1.29
5297.00,1.28
5296.00,1.27
5295.00,1.26
5294.00,1.25
5293.00,1.24
5292.00,1.23
5291.00,1.22
5290.00,1.21
5289.00,1.20
5288.00,1.19
5287.00,1.18
5286.00,1.17
5285.00,1.16
5284.00,1.15
5283.00,1.13
5282.00,1.12
5281.00,1.11
5280.00,1.10
5279.00,1.09
5278.00,1.09
5277.00,1.08
5276.00,1.07
5275.00,1.06
5274.00,1.05
5273.00,1.05
5272.00,1.04
5271.00,1.04
5270.00,1.03
5269.00,1.03
5268.00,1.02
5267.00,1.02
5266.00,1.01
5265.00,1.01
5264.00,1.01
5263.00,1.00
5262.00,1.00
5261.00,1.00
5260.00,0.99
5259.00,0.99
5258.00,0.99
5257.00,0.98
5256.00,0.98
5255.00,0.98
5254.00,0.97
5253.00,0.97
5252.00,0.97
5251.00,0.97
5250.00,0.96
5249.00,0.96
5248.00,0.96
5247.00,0.95
5246.00,0.95
5245.00,0.95
5244.00,0.94
5243.00,0.94
5242.00,0.94
5241.00,0.93
5240.00,0.93
5239.00,0.93
5238.00,0.93
5237.00,0.92
5236.00,0.92
5235.00,0.92
5234.00,0.91
5233.00,0.91
5232.00,0.91
5231.00,0.91
5230.00,0.91
5229.00,0.90
5228.00,0.90
5227.00,0.90
5226.00,0.90
5225.00,0.90
5224.00,0.90
5223.00,0.90
5222.00,0.89
5221.00,0.89
5220.00,0.89
5219.00,0.89
5218.00,0.88
5217.00,0.88
5216.00,0.88
5215.00,0.88
5214.00,0.87
5213.00,0.87
5212.00,0.86
5211.00,0.86
5210.00,0.86
5209.00,0.85
5208.00,0.85
5207.00,0.85
5206.00,0.85
5205.00,0.85
5204.00,0.85
5203.00,0.85
5202.00,0.85
5201.00,0.85
5200.00,0.85
5199.00,0.85
5198.00,0.85
5197.00,0.85
5196.00,0.86
5195.00,0.86
5194.00,0.86
5193.00,0.86
5192.00,0.86
5191.00,0.86
5190.00,0.86
5189.00,0.86
5188.00,0.86
5187.00,0.86
5186.00,0.86
5185.00,0.86
5184.00,0.85
5183.00,0.85
5182.00,0.85
5181.00,0.84
5180.00,0.84
5179.00,0.84
5178.00,0.84
5177.00,0.84
5176.00,0.83
5175.00,0.83
5174.00,0.83
5173.00,0.84
5172.00,0.84
5171.00,0.84
5170.00,0.84
5169.00,0.84
5168.00,0.84
5167.00,0.85
5166.00,0.85
5165.00,0.85
5164.00,0.85
5163.00,0.85
5162.00,0.86
5161.00,0.86
5160.00,0.86
5159.00,0.86
5158.00,0.86
5157.00,0.86
5156.00,0.86
5155.00,0.86
5154.00,0.86
5153.00,0.86
5152.00,0.86
5151.00,0.86
5150.00,0.86
5149.00,0.86
5148.00,0.86
5147.00,0.86
5146.00,0.86
5145.00,0.86
5144.00,0.86
5143.00,0.86
5142.00,0.86
5141.00,0.86
5140.00,0.86
5139.00,0.86
5138.00,0.87
5137.00,0.87
5136.00,0.87
5135.00,0.87
5134.00,0.87
5133.00,0.88
5132.00,0.88
5131.00,0.88
5130.00,0.88
5129.00,0.89
5128.00,0.89
5127.00,0.89
5126.00,0.90
5125.00,0.90
5124.00,0.90
5123.00,0.91
5122.00,0.91
5121.00,0.92
5120.00,0.92
5119.00,0.92
5118.00,0.93
5117.00,0.93
5116.00,0.93
5115.00,0.93
5114.00,0.94
5113.00,0.94
5112.00,0.94
5111.00,0.94
5110.00,0.94
5109.00,0.94
5108.00,0.94
5107.00,0.94
5106.00,0.94
5105.00,0.94
5104.00,0.94
5103.00,0.94
5102.00,0.94
5101.00,0.94
5100.00,0.95
5099.00,0.95
5098.00,0.95
5097.00,0.95
5096.00,0.95
5095.00,0.96
5094.00,0.96
5093.00,0.96
5092.00,0.97
5091.00,0.97
5090.00,0.97
5089.00,0.97
5088.00,0.98
5087.00,0.98
5086.00,0.98
5085.00,0.98
5084.00,0.98
5083.00,0.99
5082.00,0.99
5081.00,0.99
5080.00,0.99
5079.00,0.99
5078.00,0.99
5077.00,0.99
5076.00,0.99
5075.00,0.99
5074.00,0.99
5073.00,0.99
5072.00,0.99
5071.00,1.00
5070.00,1.00
5069.00,1.00
5068.00,1.00
5067.00,1.00
5066.00,1.00
5065.00,1.01
5064.00,1.01
5063.00,1.01
5062.00,1.01
5061.00,1.01
5060.00,1.02
5059.00,1.02
5058.00,1.02
5057.00,1.02
5056.00,1.03
5055.00,1.03
5054.00,1.03
5053.00,1.04
5052.00,1.04
5051.00,1.04
5050.00,1.05
5049.00,1.05
5048.00,1.05
5047.00,1.06
5046.00,1.06
5045.00,1.07
5044.00,1.07
5043.00,1.08
5042.00,1.08
5041.00,1.09
5040.00,1.09
5039.00,1.09
5038.00,1.10
5037.00,1.10
5036.00,1.10
5035.00,1.10
5034.00,1.11
5033.00,1.11
5032.00,1.11
5031.00,1.11
5030.00,1.11
5029.00,1.11
5028.00,1.11
5027.00,1.10
5026.00,1.10
5025.00,1.10
5024.00,1.10
5023.00,1.10
5022.00,1.11
5021.00,1.11
5020.00,1.11
5019.00,1.11
5018.00,1.11
5017.00,1.11
5016.00,1.12
5015.00,1.12
5014.00,1.13
5013.00,1.13
5012.00,1.13
5011.00,1.14
5010.00,1.14
5009.00,1.15
5008.00,1.15
5007.00,1.16
5006.00,1.16
5005.00,1.16
5004.00,1.17
5003.00,1.17
5002.00,1.17
5001.00,1.18
5000.00,1.18
4999.00,1.18
4998.00,1.19
4997.00,1.19
4996.00,1.19
4995.00,1.19
4994.00,1.19
4993.00,1.20
4992.00,1.20
4991.00,1.20
4990.00,1.20
4989.00,1.20
4988.00,1.20
4987.00,1.20
4986.00,1.20
4985.00,1.21
4984.00,1.21
4983.00,1.21
4982.00,1.21
4981.00,1.21
4980.00,1.22
4979.00,1.22
4978.00,1.22
4977.00,1.22
4976.00,1.23
4975.00,1.23
4974.00,1.23
4973.00,1.24
4972.00,1.24
4971.00,1.24
4970.00,1.24
4969.00,1.24
4968.00,1.25
4967.00,1.25
4966.00,1.25
4965.00,1.25
4964.00,1.25
4963.00,1.25
4962.00,1.26
4961.00,1.26
4960.00,1.26
4959.00,1.26
4958.00,1.27
4957.00,1.27
4956.00,1.27
4955.00,1.28
4954.00,1.28
4953.00,1.28
4952.00,1.29
4951.00,1.29
4950.00,1.29
4949.00,1.30
4948.00,1.30
4947.00,1.30
4946.00,1.30
4945.00,1.30
4944.00,1.31
4943.00,1.31
4942.00,1.31
4941.00,1.31
4940.00,1.31
4939.00,1.31
4938.00,1.31
4937.00,1.31
4936.00,1.32
4935.00,1.32
4934.00,1.32
4933.00,1.32
4932.00,1.32
4931.00,1.32
4930.00,1.33
4929.00,1.33
4928.00,1.33
4927.00,1.34
4926.00,1.34
4925.00,1.34
4924.00,1.35
4923.00,1.35
4922.00,1.35
4921.00,1.35
4920.00,1.35
4919.00,1.35
4918.00,1.35
4917.00,1.36
4916.00,1.36
4915.00,1.36
4914.00,1.36
4913.00,1.35
4912.00,1.35
4911.00,1.35
4910.00,1.35
4909.00,1.35
4908.00,1.35
4907.00,1.35
4906.00,1.35
4905.00,1.34
4904.00,1.34
4903.00,1.35
4902.00,1.35
4901.00,1.35
4900.00,1.35
4899.00,1.35
4898.00,1.35
4897.00,1.36
4896.00,1.36
4895.00,1.36
4894.00,1.37
4893.00,1.37
4892.00,1.37
4891.00,1.38
4890.00,1.38
4889.00,1.38
4888.00,1.39
4887.00,1.39
4886.00,1.39
4885.00,1.39
4884.00,1.40
4883.00,1.40
4882.00,1.40
4881.00,1.40
4880.00,1.40
4879.00,1.40
4878.00,1.40
4877.00,1.40
4876.00,1.40
4875.00,1.40
4874.00,1.40
4873.00,1.40
4872.00,1.40
4871.00,1.40
4870.00,1.40
4869.00,1.40
4868.00,1.41
4867.00,1.41
4866.00,1.41
4865.00,1.41
4864.00,1.41
4863.00,1.41
4862.00,1.41
4861.00,1.41
4860.00,1.41
4859.00,1.41
4858.00,1.41
4857.00,1.41
4856.00,1.40
4855.00,1.40
4854.00,1.40
4853.00,1.40
4852.00,1.40
4851.00,1.40
4850.00,1.40
4849.00,1.40
4848.00,1.40
4847.00,1.40
4846.00,1.40
4845.00,1.41
4844.00,1.41
4843.00,1.41
4842.00,1.41
4841.00,1.42
4840.00,1.42
4839.00,1.42
4838.00,1.43
4837.00,1.43
4836.00,1.44
4835.00,1.44
4834.00,1.45
4833.00,1.45
4832.00,1.46
4831.00,1.46
4830.00,1.47
4829.00,1.47
4828.00,1.47
4827.00,1.48
4826.00,1.48
4825.00,1.49
4824.00,1.49
4823.00,1.49
4822.00,1.50
4821.00,1.50
4820.00,1.50
4819.00,1.50
4818.00,1.50
4817.00,1.51
4816.00,1.51
4815.00,1.51
4814.00,1.51
4813.00,1.51
4812.00,1.51
4811.00,1.52
4810.00,1.52
4809.00,1.52
4808.00,1.52
4807.00,1.52
4806.00,1.52
4805.00,1.52
4804.00,1.52
4803.00,1.52
4802.00,1.52
4801.00,1.52
4800.00,1.53
4799.00,1.53
4798.00,1.53
4797.00,1.53
4796.00,1.54
4795.00,1.54
4794.00,1.55
4793.00,1.55
4792.00,1.56
4791.00,1.56
4790.00,1.57
4789.00,1.57
4788.00,1.58
4787.00,1.59
4786.00,1.59
4785.00,1.59
4784.00,1.60
4783.00,1.60
4782.00,1.60
4781.00,1.60
4780.00,1.61
4779.00,1.61
4778.00,1.61
4777.00,1.61
4776.00,1.61
4775.00,1.61
4774.00,1.61
4773.00,1.61
4772.00,1.61
4771.00,1.61
4770.00,1.61
4769.00,1.61
4768.00,1.61
4767.00,1.61
4766.00,1.61
4765.00,1.61
4764.00,1.61
4763.00,1.61
4762.00,1.61
4761.00,1.62
4760.00,1.62
4759.00,1.62
4758.00,1.62
4757.00,1.63
4756.00,1.63
4755.00,1.63
4754.00,1.64
4753.00,1.64
4752.00,1.64
4751.00,1.65
4750.00,1.65
4749.00,1.66
4748.00,1.66
4747.00,1.67
4746.00,1.67
4745.00,1.68
4744.00,1.68
4743.00,1.69
4742.00,1.69
4741.00,1.70
4740.00,1.70
4739.00,1.71
4738.00,1.71
4737.00,1.71
4736.00,1.72
4735.00,1.72
4734.00,1.72
4733.00,1.72
4732.00,1.72
4731.00,1.72
4730.00,1.72
4729.00,1.73
4728.00,1.73
4727.00,1.73
4726.00,1.73
4725.00,1.73
4724.00,1.73
4723.00,1.73
4722.00,1.73
4721.00,1.73
4720.00,1.74
4719.00,1.74
4718.00,1.74
4717.00,1.75
4716.00,1.75
4715.00,1.75
4714.00,1.75
4713.00,1.76
4712.00,1.76
4711.00,1.76
4710.00,1.76
4709.00,1.76
4708.00,1.76
4707.00,1.76
4706.00,1.77
4705.00,1.77
4704.00,1.77
4703.00,1.77
4702.00,1.78
4701.00,1.78
4700.00,1.78
4699.00,1.78
4698.00,1.78
4697.00,1.79
4696.00,1.79
4695.00,1.79
4694.00,1.80
4693.00,1.80
4692.00,1.81
4691.00,1.81
4690.00,1.81
4689.00,1.81
4688.00,1.81
4687.00,1.82
4686.00,1.82
4685.00,1.82
4684.00,1.82
4683.00,1.82
4682.00,1.83
4681.00,1.83
4680.00,1.83
4679.00,1.82
4678.00,1.82
4677.00,1.82
4676.00,1.82
4675.00,1.82
4674.00,1.83
4673.00,1.83
4672.00,1.83
4671.00,1.83
4670.00,1.84
4669.00,1.84
4668.00,1.84
4667.00,1.84
4666.00,1.85
4665.00,1.85
4664.00,1.85
4663.00,1.86
4662.00,1.86
4661.00,1.86
4660.00,1.87
4659.00,1.87
4658.00,1.87
4657.00,1.87
4656.00,1.87
4655.00,1.87
4654.00,1.88
4653.00,1.88
4652.00,1.88
4651.00,1.88
4650.00,1.88
4649.00,1.89
4648.00,1.89
4647.00,1.89
4646.00,1.89
4645.00,1.90
4644.00,1.90
4643.00,1.90
4642.00,1.91
4641.00,1.91
4640.00,1.91
4639.00,1.92
4638.00,1.92
4637.00,1.92
4636.00,1.92
4635.00,1.93
4634.00,1.93
4633.00,1.93
4632.00,1.93
4631.00,1.93
4630.00,1.93
4629.00,1.93
4628.00,1.93
4627.00,1.93
4626.00,1.93
4625.00,1.93
4624.00,1.92
4623.00,1.92
4622.00,1.92
4621.00,1.92
4620.00,1.92
4619.00,1.91
4618.00,1.91
4617.00,1.91
4616.00,1.91
4615.00,1.91
4614.00,1.91
4613.00,1.91
4612.00,1.90
4611.00,1.90
4610.00,1.90
4609.00,1.91
4608.00,1.91
4607.00,1.91
4606.00,1.91
4605.00,1.91
4604.00,1.91
4603.00,1.91
4602.00,1.91
4601.00,1.91
4600.00,1.91
4599.00,1.92
4598.00,1.92
4597.00,1.92
4596.00,1.92
4595.00,1.92
4594.00,1.92
4593.00,1.92
4592.00,1.92
4591.00,1.92
4590.00,1.92
4589.00,1.92
4588.00,1.93
4587.00,1.93
4586.00,1.93
4585.00,1.93
4584.00,1.93
4583.00,1.93
4582.00,1.93
4581.00,1.93
4580.00,1.93
4579.00,1.92
4578.00,1.92
4577.00,1.92
4576.00,1.92
4575.00,1.92
4574.00,1.91
4573.00,1.91
4572.00,1.91
4571.00,1.90
4570.00,1.90
4569.00,1.89
4568.00,1.89
4567.00,1.88
4566.00,1.88
4565.00,1.87
4564.00,1.87
4563.00,1.87
4562.00,1.86
4561.00,1.86
4560.00,1.86
4559.00,1.86
4558.00,1.86
4557.00,1.86
4556.00,1.86
4555.00,1.86
4554.00,1.86
4553.00,1.86
4552.00,1.86
4551.00,1.87
4550.00,1.87
4549.00,1.87
4548.00,1.87
4547.00,1.88
4546.00,1.88
4545.00,1.88
4544.00,1.88
4543.00,1.88
4542.00,1.89
4541.00,1.89
4540.00,1.89
4539.00,1.89
4538.00,1.90
4537.00,1.90
4536.00,1.90
4535.00,1.90
4534.00,1.91
4533.00,1.91
4532.00,1.91
4531.00,1.92
4530.00,1.92
4529.00,1.92
4528.00,1.92
4527.00,1.93
4526.00,1.93
4525.00,1.93
4524.00,1.93
4523.00,1.93
4522.00,1.93
4521.00,1.93
4520.00,1.93
4519.00,1.92
4518.00,1.92
4517.00,1.92
4516.00,1.92
4515.00,1.92
4514.00,1.92
4513.00,1.92
4512.00,1.92
4511.00,1.92
4510.00,1.92
4509.00,1.92
4508.00,1.92
4507.00,1.92
4506.00,1.92
4505.00,1.92
4504.00,1.92
4503.00,1.92
4502.00,1.93
4501.00,1.93
4500.00,1.93
4499.00,1.93
4498.00,1.93
4497.00,1.93
4496.00,1.93
4495.00,1.93
4494.00,1.93
4493.00,1.93
4492.00,1.92
4491.00,1.92
4490.00,1.92
4489.00,1.92
4488.00,1.92
4487.00,1.92
4486.00,1.92
4485.00,1.92
4484.00,1.92
4483.00,1.92
4482.00,1.92
4481.00,1.92
4480.00,1.92
4479.00,1.92
4478.00,1.92
4477.00,1.92
4476.00,1.93
4475.00,1.93
4474.00,1.93
4473.00,1.93
4472.00,1.93
4471.00,1.93
4470.00,1.93
4469.00,1.93
4468.00,1.93
4467.00,1.92
4466.00,1.92
4465.00,1.92
4464.00,1.92
4463.00,1.91
4462.00,1.91
4461.00,1.91
4460.00,1.91
4459.00,1.90
4458.00,1.90
4457.00,1.90
4456.00,1.90
4455.00,1.90
4454.00,1.89
4453.00,1.89
4452.00,1.89
4451.00,1.89
4450.00,1.88
4449.00,1.88
4448.00,1.87
4447.00,1.87
4446.00,1.86
4445.00,1.85
4444.00,1.85
4443.00,1.84
4442.00,1.83
4441.00,1.81
4440.00,1.80
4439.00,1.79
4438.00,1.77
4437.00,1.76
4436.00,1.74
4435.00,1.72
4434.00,1.70
4433.00,1.69
4432.00,1.67
4431.00,1.65
4430.00,1.63
4429.00,1.61
4428.00,1.60
4427.00,1.58
4426.00,1.57
4425.00,1.56
4424.00,1.55
4423.00,1.54
4422.00,1.53
4421.00,1.52
4420.00,1.51
4419.00,1.51
4418.00,1.51
4417.00,1.50
4416.00,1.50
4415.00,1.50
4414.00,1.50
4413.00,1.50
4412.00,1.50
4411.00,1.50
4410.00,1.50
4409.00,1.50
4408.00,1.50
4407.00,1.50
4406.00,1.51
4405.00,1.51
4404.00,1.51
4403.00,1.51
4402.00,1.51
4401.00,1.52
4400.00,1.52
4399.00,1.52
4398.00,1.53
4397.00,1.54
4396.00,1.54
4395.00,1.55
4394.00,1.56
4393.00,1.56
4392.00,1.57
4391.00,1.58
4390.00,1.59
4389.00,1.59
4388.00,1.60
4387.00,1.61
4386.00,1.61
4385.00,1.62
4384.00,1.62
4383.00,1.63
4382.00,1.64
4381.00,1.64
4380.00,1.65
4379.00,1.65
4378.00,1.66
4377.00,1.66
4376.00,1.67
4375.00,1.67
4374.00,1.68
4373.00,1.68
4372.00,1.68
4371.00,1.69
4370.00,1.69
4369.00,1.69
4368.00,1.69
4367.00,1.69
4366.00,1.69
4365.00,1.69
4364.00,1.68
4363.00,1.68
4362.00,1.67
4361.00,1.67
4360.00,1.66
4359.00,1.65
4358.00,1.65
4357.00,1.64
4356.00,1.63
4355.00,1.63
4354.00,1.62
4353.00,1.62
4352.00,1.61
4351.00,1.61
4350.00,1.60
4349.00,1.60
4348.00,1.60
4347.00,1.60
4346.00,1.60
4345.00,1.60
4344.00,1.60
4343.00,1.60
4342.00,1.60
4341.00,1.61
4340.00,1.61
4339.00,1.61
4338.00,1.61
4337.00,1.61
4336.00,1.62
4335.00,1.62
4334.00,1.62
4333.00,1.63
4332.00,1.63
4331.00,1.63
4330.00,1.63
4329.00,1.63
4328.00,1.64
4327.00,1.64
4326.00,1.65
4325.00,1.65
4324.00,1.66
4323.00,1.67
4322.00,1.68
4321.00,1.69
4320.00,1.70
4319.00,1.71
4318.00,1.72
4317.00,1.73
4316.00,1.74
4315.00,1.75
4314.00,1.76
4313.00,1.77
4312.00,1.77
4311.00,1.78
4310.00,1.79
4309.00,1.79
4308.00,1.80
4307.00,1.80
4306.00,1.81
4305.00,1.81
4304.00,1.82
4303.00,1.82
4302.00,1.82
4301.00,1.83
4300.00,1.83
4299.00,1.84
4298.00,1.84
4297.00,1.85
4296.00,1.85
4295.00,1.86
4294.00,1.86
4293.00,1.86
4292.00,1.87
4291.00,1.87
4290.00,1.88
4289.00,1.88
4288.00,1.88
4287.00,1.88
4286.00,1.88
4285.00,1.88
4284.00,1.88
4283.00,1.88
4282.00,1.88
4281.00,1.87
4280.00,1.87
4279.00,1.86
4278.00,1.85
4277.00,1.85
4276.00,1.84
4275.00,1.84
4274.00,1.83
4273.00,1.82
4272.00,1.82
4271.00,1.81
4270.00,1.81
4269.00,1.80
4268.00,1.80
4267.00,1.80
4266.00,1.79
4265.00,1.79
4264.00,1.79
4263.00,1.79
4262.00,1.79
4261.00,1.78
4260.00,1.78
4259.00,1.78
4258.00,1.78
4257.00,1.78
4256.00,1.78
4255.00,1.78
4254.00,1.78
4253.00,1.78
4252.00,1.78
4251.00,1.78
4250.00,1.79
4249.00,1.79
4248.00,1.80
4247.00,1.80
4246.00,1.81
4245.00,1.82
4244.00,1.82
4243.00,1.83
4242.00,1.84
4241.00,1.85
4240.00,1.85
4239.00,1.86
4238.00,1.87
4237.00,1.87
4236.00,1.88
4235.00,1.88
4234.00,1.88
4233.00,1.88
4232.00,1.88
4231.00,1.88
4230.00,1.88
4229.00,1.87
4228.00,1.87
4227.00,1.87
4226.00,1.86
4225.00,1.86
4224.00,1.86
4223.00,1.86
4222.00,1.86
4221.00,1.85
4220.00,1.85
4219.00,1.86
4218.00,1.86
4217.00,1.86
4216.00,1.87
4215.00,1.87
4214.00,1.88
4213.00,1.88
4212.00,1.88
4211.00,1.89
4210.00,1.89
4209.00,1.89
4208.00,1.90
4207.00,1.90
4206.00,1.90
4205.00,1.90
4204.00,1.91
4203.00,1.91
4202.00,1.91
4201.00,1.91
4200.00,1.91
4199.00,1.91
4198.00,1.91
4197.00,1.91
4196.00,1.91
4195.00,1.91
4194.00,1.91
4193.00,1.92
4192.00,1.92
4191.00,1.92
4190.00,1.92
4189.00,1.91
4188.00,1.91
4187.00,1.91
4186.00,1.90
4185.00,1.90
4184.00,1.89
4183.00,1.88
4182.00,1.87
4181.00,1.87
4180.00,1.86
4179.00,1.85
4178.00,1.84
4177.00,1.84
4176.00,1.83
4175.00,1.82
4174.00,1.82
4173.00,1.81
4172.00,1.81
4171.00,1.81
4170.00,1.81
4169.00,1.81
4168.00,1.81
4167.00,1.81
4166.00,1.82
4165.00,1.82
4164.00,1.83
4163.00,1.83
4162.00,1.84
4161.00,1.84
4160.00,1.84
4159.00,1.85
4158.00,1.85
4157.00,1.85
4156.00,1.85
4155.00,1.86
4154.00,1.86
4153.00,1.86
4152.00,1.86
4151.00,1.86
4150.00,1.86
4149.00,1.85
4148.00,1.85
4147.00,1.85
4146.00,1.85
4145.00,1.84
4144.00,1.84
4143.00,1.84
4142.00,1.84
4141.00,1.84
4140.00,1.84
4139.00,1.84
4138.00,1.83
4137.00,1.83
4136.00,1.83
4135.00,1.82
4134.00,1.82
4133.00,1.82
4132.00,1.82
4131.00,1.81
4130.00,1.81
4129.00,1.80
4128.00,1.80
4127.00,1.79
4126.00,1.79
4125.00,1.78
4124.00,1.77
4123.00,1.77
4122.00,1.76
4121.00,1.76
4120.00,1.76
4119.00,1.76
4118.00,1.75
4117.00,1.75
4116.00,1.75
4115.00,1.76
4114.00,1.76
4113.00,1.76
4112.00,1.77
4111.00,1.78
4110.00,1.79
4109.00,1.79
4108.00,1.80
4107.00,1.81
4106.00,1.82
4105.00,1.82
4104.00,1.83
4103.00,1.83
4102.00,1.84
4101.00,1.84
4100.00,1.85
4099.00,1.85
4098.00,1.85
4097.00,1.84
4096.00,1.84
4095.00,1.83
4094.00,1.82
4093.00,1.81
4092.00,1.80
4091.00,1.79
4090.00,1.78
4089.00,1.78
4088.00,1.77
4087.00,1.76
4086.00,1.75
4085.00,1.74
4084.00,1.73
4083.00,1.72
4082.00,1.71
4081.00,1.70
4080.00,1.69
4079.00,1.68
4078.00,1.68
4077.00,1.67
4076.00,1.67
4075.00,1.66
4074.00,1.66
4073.00,1.66
4072.00,1.66
4071.00,1.67
4070.00,1.67
4069.00,1.68
4068.00,1.68
4067.00,1.69
4066.00,1.70
4065.00,1.71
4064.00,1.72
4063.00,1.73
4062.00,1.74
4061.00,1.75
4060.00,1.76
4059.00,1.77
4058.00,1.78
4057.00,1.78
4056.00,1.79
4055.00,1.79
4054.00,1.79
4053.00,1.79
4052.00,1.79
4051.00,1.79
4050.00,1.78
4049.00,1.78
4048.00,1.77
4047.00,1.76
4046.00,1.76
4045.00,1.75
4044.00,1.74
4043.00,1.74
4042.00,1.73
4041.00,1.72
4040.00,1.71
4039.00,1.70
4038.00,1.69
4037.00,1.69
4036.00,1.68
4035.00,1.68
4034.00,1.68
4033.00,1.68
4032.00,1.68
4031.00,1.68
4030.00,1.68
4029.00,1.68
4028.00,1.68
4027.00,1.68
4026.00,1.69
4025.00,1.69
4024.00,1.69
4023.00,1.70
4022.00,1.70
4021.00,1.71
4020.00,1.71
4019.00,1.72
4018.00,1.72
4017.00,1.73
4016.00,1.73
4015.00,1.74
4014.00,1.75
4013.00,1.76
4012.00,1.77
4011.00,1.79
4010.00,1.80
4009.00,1.82
4008.00,1.84
4007.00,1.85
4006.00,1.87
4005.00,1.89
4004.00,1.92
4003.00,1.94
4002.00,1.97
4001.00,1.99
4000.00,2.02
