创建为新数据集,样品 731 用户 Administrator 日期 星期四, 七月 25 2019
cm-1,%T
10000.00,0.89
9999.00,0.95
9998.00,1.01
9997.00,1.07
9996.00,1.14
9995.00,1.19
9994.00,1.25
9993.00,1.31
9992.00,1.36
9991.00,1.41
9990.00,1.45
9989.00,1.49
9988.00,1.53
9987.00,1.57
9986.00,1.60
9985.00,1.63
9984.00,1.65
9983.00,1.67
9982.00,1.69
9981.00,1.70
9980.00,1.71
9979.00,1.72
9978.00,1.72
9977.00,1.72
9976.00,1.72
9975.00,1.72
9974.00,1.72
9973.00,1.71
9972.00,1.70
9971.00,1.69
9970.00,1.68
9969.00,1.67
9968.00,1.66
9967.00,1.65
9966.00,1.63
9965.00,1.62
9964.00,1.60
9963.00,1.58
9962.00,1.56
9961.00,1.55
9960.00,1.53
9959.00,1.52
9958.00,1.50
9957.00,1.49
9956.00,1.48
9955.00,1.48
9954.00,1.47
9953.00,1.47
9952.00,1.48
9951.00,1.48
9950.00,1.49
9949.00,1.50
9948.00,1.51
9947.00,1.52
9946.00,1.53
9945.00,1.54
9944.00,1.55
9943.00,1.56
9942.00,1.57
9941.00,1.58
9940.00,1.58
9939.00,1.58
9938.00,1.58
9937.00,1.58
9936.00,1.57
9935.00,1.57
9934.00,1.56
9933.00,1.55
9932.00,1.54
9931.00,1.53
9930.00,1.52
9929.00,1.52
9928.00,1.51
9927.00,1.50
9926.00,1.50
9925.00,1.49
9924.00,1.49
9923.00,1.49
9922.00,1.50
9921.00,1.50
9920.00,1.50
9919.00,1.51
9918.00,1.52
9917.00,1.52
9916.00,1.53
9915.00,1.54
9914.00,1.54
9913.00,1.55
9912.00,1.56
9911.00,1.57
9910.00,1.58
9909.00,1.59
9908.00,1.60
9907.00,1.60
9906.00,1.61
9905.00,1.62
9904.00,1.63
9903.00,1.64
9902.00,1.64
9901.00,1.65
9900.00,1.66
9899.00,1.66
9898.00,1.67
9897.00,1.67
9896.00,1.67
9895.00,1.67
9894.00,1.67
9893.00,1.67
9892.00,1.67
9891.00,1.67
9890.00,1.67
9889.00,1.67
9888.00,1.66
9887.00,1.66
9886.00,1.66
9885.00,1.66
9884.00,1.65
9883.00,1.65
9882.00,1.65
9881.00,1.65
9880.00,1.65
9879.00,1.65
9878.00,1.65
9877.00,1.66
9876.00,1.66
9875.00,1.66
9874.00,1.67
9873.00,1.67
9872.00,1.67
9871.00,1.68
9870.00,1.68
9869.00,1.68
9868.00,1.68
9867.00,1.69
9866.00,1.69
9865.00,1.69
9864.00,1.70
9863.00,1.70
9862.00,1.70
9861.00,1.70
9860.00,1.70
9859.00,1.70
9858.00,1.70
9857.00,1.70
9856.00,1.70
9855.00,1.70
9854.00,1.70
9853.00,1.70
9852.00,1.71
9851.00,1.71
9850.00,1.71
9849.00,1.71
9848.00,1.72
9847.00,1.72
9846.00,1.72
9845.00,1.72
9844.00,1.72
9843.00,1.72
9842.00,1.72
9841.00,1.72
9840.00,1.71
9839.00,1.71
9838.00,1.70
9837.00,1.69
9836.00,1.68
9835.00,1.67
9834.00,1.66
9833.00,1.65
9832.00,1.63
9831.00,1.62
9830.00,1.61
9829.00,1.59
9828.00,1.58
9827.00,1.57
9826.00,1.56
9825.00,1.56
9824.00,1.55
9823.00,1.55
9822.00,1.54
9821.00,1.54
9820.00,1.54
9819.00,1.54
9818.00,1.54
9817.00,1.54
9816.00,1.54
9815.00,1.55
9814.00,1.55
9813.00,1.55
9812.00,1.56
9811.00,1.56
9810.00,1.57
9809.00,1.57
9808.00,1.58
9807.00,1.58
9806.00,1.59
9805.00,1.59
9804.00,1.60
9803.00,1.61
9802.00,1.62
9801.00,1.62
9800.00,1.63
9799.00,1.64
9798.00,1.65
9797.00,1.65
9796.00,1.66
9795.00,1.66
9794.00,1.66
9793.00,1.67
9792.00,1.67
9791.00,1.67
9790.00,1.66
9789.00,1.66
9788.00,1.66
9787.00,1.65
9786.00,1.65
9785.00,1.65
9784.00,1.64
9783.00,1.64
9782.00,1.63
9781.00,1.63
9780.00,1.63
9779.00,1.62
9778.00,1.62
9777.00,1.62
9776.00,1.63
9775.00,1.63
9774.00,1.63
9773.00,1.64
9772.00,1.64
9771.00,1.64
9770.00,1.65
9769.00,1.65
9768.00,1.64
9767.00,1.64
9766.00,1.63
9765.00,1.62
9764.00,1.61
9763.00,1.60
9762.00,1.58
9761.00,1.57
9760.00,1.55
9759.00,1.53
9758.00,1.50
9757.00,1.48
9756.00,1.46
9755.00,1.44
9754.00,1.42
9753.00,1.40
9752.00,1.39
9751.00,1.38
9750.00,1.37
9749.00,1.37
9748.00,1.37
9747.00,1.37
9746.00,1.38
9745.00,1.38
9744.00,1.39
9743.00,1.40
9742.00,1.42
9741.00,1.43
9740.00,1.44
9739.00,1.45
9738.00,1.46
9737.00,1.48
9736.00,1.49
9735.00,1.50
9734.00,1.51
9733.00,1.51
9732.00,1.52
9731.00,1.53
9730.00,1.53
9729.00,1.53
9728.00,1.54
9727.00,1.54
9726.00,1.55
9725.00,1.55
9724.00,1.55
9723.00,1.56
9722.00,1.56
9721.00,1.56
9720.00,1.56
9719.00,1.56
9718.00,1.56
9717.00,1.56
9716.00,1.56
9715.00,1.55
9714.00,1.55
9713.00,1.54
9712.00,1.53
9711.00,1.53
9710.00,1.52
9709.00,1.51
9708.00,1.50
9707.00,1.50
9706.00,1.49
9705.00,1.48
9704.00,1.48
9703.00,1.47
9702.00,1.47
9701.00,1.47
9700.00,1.47
9699.00,1.47
9698.00,1.47
9697.00,1.48
9696.00,1.48
9695.00,1.49
9694.00,1.49
9693.00,1.50
9692.00,1.51
9691.00,1.52
9690.00,1.53
9689.00,1.54
9688.00,1.55
9687.00,1.56
9686.00,1.57
9685.00,1.58
9684.00,1.59
9683.00,1.60
9682.00,1.61
9681.00,1.62
9680.00,1.62
9679.00,1.63
9678.00,1.64
9677.00,1.64
9676.00,1.64
9675.00,1.65
9674.00,1.65
9673.00,1.65
9672.00,1.65
9671.00,1.65
9670.00,1.65
9669.00,1.64
9668.00,1.64
9667.00,1.64
9666.00,1.64
9665.00,1.63
9664.00,1.63
9663.00,1.63
9662.00,1.62
9661.00,1.62
9660.00,1.62
9659.00,1.62
9658.00,1.61
9657.00,1.61
9656.00,1.60
9655.00,1.60
9654.00,1.59
9653.00,1.59
9652.00,1.58
9651.00,1.58
9650.00,1.57
9649.00,1.56
9648.00,1.56
9647.00,1.55
9646.00,1.55
9645.00,1.54
9644.00,1.54
9643.00,1.54
9642.00,1.54
9641.00,1.54
9640.00,1.54
9639.00,1.54
9638.00,1.55
9637.00,1.55
9636.00,1.56
9635.00,1.57
9634.00,1.57
9633.00,1.58
9632.00,1.58
9631.00,1.59
9630.00,1.59
9629.00,1.59
9628.00,1.60
9627.00,1.60
9626.00,1.60
9625.00,1.60
9624.00,1.60
9623.00,1.60
9622.00,1.60
9621.00,1.60
9620.00,1.60
9619.00,1.60
9618.00,1.60
9617.00,1.61
9616.00,1.61
9615.00,1.62
9614.00,1.62
9613.00,1.63
9612.00,1.64
9611.00,1.64
9610.00,1.65
9609.00,1.66
9608.00,1.66
9607.00,1.67
9606.00,1.67
9605.00,1.68
9604.00,1.68
9603.00,1.68
9602.00,1.68
9601.00,1.68
9600.00,1.68
9599.00,1.67
9598.00,1.66
9597.00,1.66
9596.00,1.65
9595.00,1.65
9594.00,1.64
9593.00,1.63
9592.00,1.63
9591.00,1.62
9590.00,1.61
9589.00,1.61
9588.00,1.60
9587.00,1.60
9586.00,1.59
9585.00,1.59
9584.00,1.58
9583.00,1.58
9582.00,1.58
9581.00,1.57
9580.00,1.57
9579.00,1.56
9578.00,1.56
9577.00,1.55
9576.00,1.54
9575.00,1.54
9574.00,1.53
9573.00,1.53
9572.00,1.52
9571.00,1.52
9570.00,1.51
9569.00,1.51
9568.00,1.51
9567.00,1.51
9566.00,1.51
9565.00,1.51
9564.00,1.50
9563.00,1.50
9562.00,1.50
9561.00,1.51
9560.00,1.51
9559.00,1.51
9558.00,1.51
9557.00,1.52
9556.00,1.52
9555.00,1.52
9554.00,1.52
9553.00,1.52
9552.00,1.53
9551.00,1.53
9550.00,1.53
9549.00,1.53
9548.00,1.53
9547.00,1.54
9546.00,1.54
9545.00,1.55
9544.00,1.55
9543.00,1.55
9542.00,1.56
9541.00,1.56
9540.00,1.56
9539.00,1.56
9538.00,1.55
9537.00,1.55
9536.00,1.55
9535.00,1.55
9534.00,1.54
9533.00,1.53
9532.00,1.53
9531.00,1.52
9530.00,1.52
9529.00,1.51
9528.00,1.50
9527.00,1.49
9526.00,1.49
9525.00,1.48
9524.00,1.48
9523.00,1.48
9522.00,1.48
9521.00,1.48
9520.00,1.48
9519.00,1.48
9518.00,1.48
9517.00,1.49
9516.00,1.49
9515.00,1.49
9514.00,1.50
9513.00,1.50
9512.00,1.50
9511.00,1.51
9510.00,1.51
9509.00,1.51
9508.00,1.51
9507.00,1.51
9506.00,1.51
9505.00,1.51
9504.00,1.51
9503.00,1.50
9502.00,1.50
9501.00,1.50
9500.00,1.49
9499.00,1.49
9498.00,1.49
9497.00,1.49
9496.00,1.49
9495.00,1.50
9494.00,1.50
9493.00,1.50
9492.00,1.51
9491.00,1.51
9490.00,1.51
9489.00,1.52
9488.00,1.52
9487.00,1.53
9486.00,1.54
9485.00,1.54
9484.00,1.55
9483.00,1.55
9482.00,1.56
9481.00,1.56
9480.00,1.56
9479.00,1.56
9478.00,1.56
9477.00,1.56
9476.00,1.56
9475.00,1.56
9474.00,1.56
9473.00,1.56
9472.00,1.55
9471.00,1.55
9470.00,1.55
9469.00,1.54
9468.00,1.54
9467.00,1.53
9466.00,1.53
9465.00,1.52
9464.00,1.52
9463.00,1.52
9462.00,1.52
9461.00,1.52
9460.00,1.52
9459.00,1.52
9458.00,1.52
9457.00,1.52
9456.00,1.53
9455.00,1.53
9454.00,1.54
9453.00,1.55
9452.00,1.56
9451.00,1.57
9450.00,1.58
9449.00,1.59
9448.00,1.61
9447.00,1.62
9446.00,1.63
9445.00,1.64
9444.00,1.65
9443.00,1.65
9442.00,1.66
9441.00,1.66
9440.00,1.67
9439.00,1.67
9438.00,1.67
9437.00,1.67
9436.00,1.67
9435.00,1.67
9434.00,1.66
9433.00,1.65
9432.00,1.65
9431.00,1.64
9430.00,1.63
9429.00,1.63
9428.00,1.62
9427.00,1.62
9426.00,1.62
9425.00,1.62
9424.00,1.62
9423.00,1.62
9422.00,1.62
9421.00,1.62
9420.00,1.62
9419.00,1.62
9418.00,1.63
9417.00,1.63
9416.00,1.63
9415.00,1.63
9414.00,1.63
9413.00,1.63
9412.00,1.63
9411.00,1.63
9410.00,1.63
9409.00,1.63
9408.00,1.62
9407.00,1.62
9406.00,1.61
9405.00,1.61
9404.00,1.60
9403.00,1.60
9402.00,1.60
9401.00,1.60
9400.00,1.60
9399.00,1.59
9398.00,1.59
9397.00,1.59
9396.00,1.59
9395.00,1.59
9394.00,1.58
9393.00,1.58
9392.00,1.58
9391.00,1.57
9390.00,1.57
9389.00,1.56
9388.00,1.56
9387.00,1.55
9386.00,1.55
9385.00,1.54
9384.00,1.54
9383.00,1.54
9382.00,1.53
9381.00,1.53
9380.00,1.53
9379.00,1.53
9378.00,1.53
9377.00,1.53
9376.00,1.53
9375.00,1.53
9374.00,1.53
9373.00,1.54
9372.00,1.54
9371.00,1.53
9370.00,1.53
9369.00,1.53
9368.00,1.53
9367.00,1.52
9366.00,1.52
9365.00,1.52
9364.00,1.51
9363.00,1.51
9362.00,1.50
9361.00,1.50
9360.00,1.49
9359.00,1.49
9358.00,1.48
9357.00,1.48
9356.00,1.48
9355.00,1.48
9354.00,1.48
9353.00,1.48
9352.00,1.48
9351.00,1.48
9350.00,1.49
9349.00,1.49
9348.00,1.49
9347.00,1.50
9346.00,1.50
9345.00,1.51
9344.00,1.51
9343.00,1.51
9342.00,1.52
9341.00,1.52
9340.00,1.53
9339.00,1.53
9338.00,1.53
9337.00,1.53
9336.00,1.54
9335.00,1.54
9334.00,1.54
9333.00,1.54
9332.00,1.54
9331.00,1.54
9330.00,1.54
9329.00,1.54
9328.00,1.54
9327.00,1.54
9326.00,1.55
9325.00,1.55
9324.00,1.55
9323.00,1.55
9322.00,1.55
9321.00,1.55
9320.00,1.54
9319.00,1.54
9318.00,1.54
9317.00,1.53
9316.00,1.52
9315.00,1.52
9314.00,1.51
9313.00,1.51
9312.00,1.50
9311.00,1.49
9310.00,1.49
9309.00,1.48
9308.00,1.48
9307.00,1.47
9306.00,1.47
9305.00,1.47
9304.00,1.46
9303.00,1.46
9302.00,1.47
9301.00,1.47
9300.00,1.47
9299.00,1.48
9298.00,1.49
9297.00,1.49
9296.00,1.50
9295.00,1.51
9294.00,1.51
9293.00,1.52
9292.00,1.52
9291.00,1.53
9290.00,1.53
9289.00,1.54
9288.00,1.54
9287.00,1.55
9286.00,1.55
9285.00,1.56
9284.00,1.56
9283.00,1.56
9282.00,1.57
9281.00,1.57
9280.00,1.57
9279.00,1.57
9278.00,1.58
9277.00,1.58
9276.00,1.58
9275.00,1.58
9274.00,1.59
9273.00,1.59
9272.00,1.59
9271.00,1.60
9270.00,1.60
9269.00,1.60
9268.00,1.60
9267.00,1.60
9266.00,1.60
9265.00,1.60
9264.00,1.60
9263.00,1.60
9262.00,1.60
9261.00,1.60
9260.00,1.60
9259.00,1.60
9258.00,1.60
9257.00,1.60
9256.00,1.60
9255.00,1.60
9254.00,1.60
9253.00,1.60
9252.00,1.59
9251.00,1.59
9250.00,1.59
9249.00,1.59
9248.00,1.59
9247.00,1.59
9246.00,1.58
9245.00,1.58
9244.00,1.58
9243.00,1.57
9242.00,1.56
9241.00,1.56
9240.00,1.55
9239.00,1.54
9238.00,1.54
9237.00,1.53
9236.00,1.53
9235.00,1.52
9234.00,1.52
9233.00,1.51
9232.00,1.51
9231.00,1.51
9230.00,1.50
9229.00,1.50
9228.00,1.50
9227.00,1.50
9226.00,1.50
9225.00,1.50
9224.00,1.51
9223.00,1.51
9222.00,1.51
9221.00,1.52
9220.00,1.52
9219.00,1.52
9218.00,1.53
9217.00,1.53
9216.00,1.53
9215.00,1.54
9214.00,1.54
9213.00,1.54
9212.00,1.54
9211.00,1.54
9210.00,1.53
9209.00,1.53
9208.00,1.53
9207.00,1.53
9206.00,1.53
9205.00,1.52
9204.00,1.52
9203.00,1.52
9202.00,1.51
9201.00,1.51
9200.00,1.50
9199.00,1.50
9198.00,1.50
9197.00,1.50
9196.00,1.50
9195.00,1.50
9194.00,1.50
9193.00,1.50
9192.00,1.50
9191.00,1.51
9190.00,1.51
9189.00,1.52
9188.00,1.52
9187.00,1.53
9186.00,1.54
9185.00,1.55
9184.00,1.55
9183.00,1.56
9182.00,1.57
9181.00,1.57
9180.00,1.57
9179.00,1.57
9178.00,1.57
9177.00,1.57
9176.00,1.57
9175.00,1.57
9174.00,1.56
9173.00,1.55
9172.00,1.55
9171.00,1.54
9170.00,1.53
9169.00,1.52
9168.00,1.51
9167.00,1.50
9166.00,1.49
9165.00,1.48
9164.00,1.47
9163.00,1.47
9162.00,1.46
9161.00,1.46
9160.00,1.45
9159.00,1.45
9158.00,1.45
9157.00,1.45
9156.00,1.45
9155.00,1.45
9154.00,1.45
9153.00,1.46
9152.00,1.46
9151.00,1.47
9150.00,1.47
9149.00,1.48
9148.00,1.49
9147.00,1.50
9146.00,1.51
9145.00,1.52
9144.00,1.53
9143.00,1.54
9142.00,1.55
9141.00,1.56
9140.00,1.56
9139.00,1.57
9138.00,1.57
9137.00,1.57
9136.00,1.57
9135.00,1.57
9134.00,1.57
9133.00,1.57
9132.00,1.56
9131.00,1.55
9130.00,1.55
9129.00,1.54
9128.00,1.53
9127.00,1.53
9126.00,1.52
9125.00,1.52
9124.00,1.51
9123.00,1.51
9122.00,1.52
9121.00,1.52
9120.00,1.53
9119.00,1.53
9118.00,1.54
9117.00,1.55
9116.00,1.56
9115.00,1.57
9114.00,1.58
9113.00,1.59
9112.00,1.60
9111.00,1.61
9110.00,1.62
9109.00,1.62
9108.00,1.63
9107.00,1.64
9106.00,1.64
9105.00,1.64
9104.00,1.64
9103.00,1.64
9102.00,1.64
9101.00,1.64
9100.00,1.64
9099.00,1.64
9098.00,1.63
9097.00,1.63
9096.00,1.63
9095.00,1.63
9094.00,1.63
9093.00,1.63
9092.00,1.63
9091.00,1.62
9090.00,1.62
9089.00,1.62
9088.00,1.62
9087.00,1.62
9086.00,1.62
9085.00,1.61
9084.00,1.61
9083.00,1.61
9082.00,1.61
9081.00,1.60
9080.00,1.60
9079.00,1.59
9078.00,1.59
9077.00,1.58
9076.00,1.57
9075.00,1.57
9074.00,1.56
9073.00,1.55
9072.00,1.55
9071.00,1.54
9070.00,1.53
9069.00,1.53
9068.00,1.52
9067.00,1.52
9066.00,1.51
9065.00,1.51
9064.00,1.50
9063.00,1.50
9062.00,1.50
9061.00,1.50
9060.00,1.50
9059.00,1.50
9058.00,1.50
9057.00,1.51
9056.00,1.51
9055.00,1.51
9054.00,1.52
9053.00,1.52
9052.00,1.52
9051.00,1.52
9050.00,1.53
9049.00,1.53
9048.00,1.53
9047.00,1.53
9046.00,1.53
9045.00,1.53
9044.00,1.53
9043.00,1.53
9042.00,1.52
9041.00,1.52
9040.00,1.52
9039.00,1.52
9038.00,1.51
9037.00,1.51
9036.00,1.51
9035.00,1.51
9034.00,1.51
9033.00,1.51
9032.00,1.51
9031.00,1.51
9030.00,1.51
9029.00,1.51
9028.00,1.52
9027.00,1.52
9026.00,1.53
9025.00,1.53
9024.00,1.54
9023.00,1.54
9022.00,1.55
9021.00,1.56
9020.00,1.57
9019.00,1.57
9018.00,1.58
9017.00,1.59
9016.00,1.60
9015.00,1.60
9014.00,1.61
9013.00,1.61
9012.00,1.62
9011.00,1.62
9010.00,1.62
9009.00,1.62
9008.00,1.61
9007.00,1.61
9006.00,1.60
9005.00,1.60
9004.00,1.59
9003.00,1.59
9002.00,1.58
9001.00,1.58
9000.00,1.57
8999.00,1.57
8998.00,1.56
8997.00,1.56
8996.00,1.56
8995.00,1.56
8994.00,1.57
8993.00,1.57
8992.00,1.58
8991.00,1.59
8990.00,1.59
8989.00,1.60
8988.00,1.61
8987.00,1.61
8986.00,1.61
8985.00,1.62
8984.00,1.62
8983.00,1.61
8982.00,1.61
8981.00,1.60
8980.00,1.60
8979.00,1.59
8978.00,1.58
8977.00,1.56
8976.00,1.55
8975.00,1.54
8974.00,1.52
8973.00,1.51
8972.00,1.50
8971.00,1.48
8970.00,1.47
8969.00,1.46
8968.00,1.45
8967.00,1.45
8966.00,1.44
8965.00,1.44
8964.00,1.43
8963.00,1.43
8962.00,1.43
8961.00,1.43
8960.00,1.43
8959.00,1.43
8958.00,1.43
8957.00,1.43
8956.00,1.43
8955.00,1.43
8954.00,1.44
8953.00,1.44
8952.00,1.44
8951.00,1.45
8950.00,1.46
8949.00,1.46
8948.00,1.47
8947.00,1.48
8946.00,1.49
8945.00,1.50
8944.00,1.50
8943.00,1.51
8942.00,1.52
8941.00,1.53
8940.00,1.53
8939.00,1.54
8938.00,1.55
8937.00,1.55
8936.00,1.56
8935.00,1.56
8934.00,1.57
8933.00,1.57
8932.00,1.57
8931.00,1.57
8930.00,1.57
8929.00,1.57
8928.00,1.57
8927.00,1.57
8926.00,1.57
8925.00,1.57
8924.00,1.57
8923.00,1.57
8922.00,1.56
8921.00,1.56
8920.00,1.56
8919.00,1.55
8918.00,1.55
8917.00,1.54
8916.00,1.54
8915.00,1.53
8914.00,1.53
8913.00,1.53
8912.00,1.53
8911.00,1.52
8910.00,1.52
8909.00,1.52
8908.00,1.52
8907.00,1.52
8906.00,1.53
8905.00,1.53
8904.00,1.53
8903.00,1.53
8902.00,1.54
8901.00,1.54
8900.00,1.54
8899.00,1.55
8898.00,1.55
8897.00,1.55
8896.00,1.55
8895.00,1.55
8894.00,1.55
8893.00,1.55
8892.00,1.55
8891.00,1.56
8890.00,1.56
8889.00,1.56
8888.00,1.57
8887.00,1.57
8886.00,1.57
8885.00,1.58
8884.00,1.58
8883.00,1.58
8882.00,1.59
8881.00,1.59
8880.00,1.59
8879.00,1.60
8878.00,1.60
8877.00,1.61
8876.00,1.61
8875.00,1.62
8874.00,1.62
8873.00,1.62
8872.00,1.63
8871.00,1.63
8870.00,1.64
8869.00,1.64
8868.00,1.65
8867.00,1.66
8866.00,1.67
8865.00,1.67
8864.00,1.68
8863.00,1.69
8862.00,1.69
8861.00,1.70
8860.00,1.70
8859.00,1.70
8858.00,1.70
8857.00,1.70
8856.00,1.70
8855.00,1.69
8854.00,1.69
8853.00,1.68
8852.00,1.67
8851.00,1.66
8850.00,1.64
8849.00,1.63
8848.00,1.62
8847.00,1.61
8846.00,1.60
8845.00,1.59
8844.00,1.58
8843.00,1.58
8842.00,1.57
8841.00,1.57
8840.00,1.57
8839.00,1.57
8838.00,1.57
8837.00,1.57
8836.00,1.57
8835.00,1.58
8834.00,1.58
8833.00,1.59
8832.00,1.59
8831.00,1.59
8830.00,1.59
8829.00,1.59
8828.00,1.59
8827.00,1.59
8826.00,1.59
8825.00,1.59
8824.00,1.58
8823.00,1.58
8822.00,1.58
8821.00,1.57
8820.00,1.57
8819.00,1.56
8818.00,1.56
8817.00,1.55
8816.00,1.55
8815.00,1.55
8814.00,1.55
8813.00,1.55
8812.00,1.55
8811.00,1.55
8810.00,1.55
8809.00,1.55
8808.00,1.55
8807.00,1.55
8806.00,1.55
8805.00,1.55
8804.00,1.55
8803.00,1.55
8802.00,1.56
8801.00,1.56
8800.00,1.56
8799.00,1.56
8798.00,1.56
8797.00,1.56
8796.00,1.56
8795.00,1.56
8794.00,1.55
8793.00,1.55
8792.00,1.55
8791.00,1.55
8790.00,1.54
8789.00,1.54
8788.00,1.54
8787.00,1.53
8786.00,1.53
8785.00,1.52
8784.00,1.52
8783.00,1.51
8782.00,1.51
8781.00,1.50
8780.00,1.50
8779.00,1.50
8778.00,1.49
8777.00,1.49
8776.00,1.48
8775.00,1.48
8774.00,1.47
8773.00,1.47
8772.00,1.47
8771.00,1.47
8770.00,1.46
8769.00,1.46
8768.00,1.46
8767.00,1.46
8766.00,1.46
8765.00,1.46
8764.00,1.47
8763.00,1.47
8762.00,1.47
8761.00,1.48
8760.00,1.49
8759.00,1.49
8758.00,1.50
8757.00,1.51
8756.00,1.51
8755.00,1.52
8754.00,1.52
8753.00,1.53
8752.00,1.53
8751.00,1.53
8750.00,1.54
8749.00,1.54
8748.00,1.54
8747.00,1.53
8746.00,1.53
8745.00,1.53
8744.00,1.52
8743.00,1.51
8742.00,1.51
8741.00,1.50
8740.00,1.49
8739.00,1.49
8738.00,1.48
8737.00,1.48
8736.00,1.48
8735.00,1.48
8734.00,1.48
8733.00,1.48
8732.00,1.48
8731.00,1.49
8730.00,1.49
8729.00,1.49
8728.00,1.50
8727.00,1.50
8726.00,1.51
8725.00,1.52
8724.00,1.52
8723.00,1.53
8722.00,1.53
8721.00,1.54
8720.00,1.54
8719.00,1.54
8718.00,1.54
8717.00,1.54
8716.00,1.54
8715.00,1.54
8714.00,1.55
8713.00,1.55
8712.00,1.55
8711.00,1.55
8710.00,1.56
8709.00,1.56
8708.00,1.56
8707.00,1.56
8706.00,1.57
8705.00,1.57
8704.00,1.57
8703.00,1.58
8702.00,1.58
8701.00,1.58
8700.00,1.59
8699.00,1.59
8698.00,1.59
8697.00,1.59
8696.00,1.58
8695.00,1.58
8694.00,1.58
8693.00,1.57
8692.00,1.57
8691.00,1.57
8690.00,1.56
8689.00,1.56
8688.00,1.56
8687.00,1.56
8686.00,1.55
8685.00,1.55
8684.00,1.55
8683.00,1.55
8682.00,1.56
8681.00,1.56
8680.00,1.56
8679.00,1.57
8678.00,1.57
8677.00,1.58
8676.00,1.58
8675.00,1.59
8674.00,1.59
8673.00,1.60
8672.00,1.60
8671.00,1.61
8670.00,1.61
8669.00,1.61
8668.00,1.61
8667.00,1.61
8666.00,1.61
8665.00,1.61
8664.00,1.61
8663.00,1.61
8662.00,1.61
8661.00,1.60
8660.00,1.60
8659.00,1.60
8658.00,1.59
8657.00,1.59
8656.00,1.58
8655.00,1.58
8654.00,1.57
8653.00,1.57
8652.00,1.56
8651.00,1.56
8650.00,1.56
8649.00,1.56
8648.00,1.55
8647.00,1.55
8646.00,1.55
8645.00,1.55
8644.00,1.55
8643.00,1.55
8642.00,1.55
8641.00,1.55
8640.00,1.55
8639.00,1.55
8638.00,1.55
8637.00,1.55
8636.00,1.56
8635.00,1.56
8634.00,1.56
8633.00,1.56
8632.00,1.56
8631.00,1.56
8630.00,1.57
8629.00,1.57
8628.00,1.57
8627.00,1.56
8626.00,1.56
8625.00,1.56
8624.00,1.56
8623.00,1.56
8622.00,1.56
8621.00,1.56
8620.00,1.55
8619.00,1.55
8618.00,1.55
8617.00,1.54
8616.00,1.54
8615.00,1.54
8614.00,1.53
8613.00,1.53
8612.00,1.53
8611.00,1.53
8610.00,1.53
8609.00,1.53
8608.00,1.53
8607.00,1.53
8606.00,1.53
8605.00,1.53
8604.00,1.53
8603.00,1.53
8602.00,1.54
8601.00,1.54
8600.00,1.54
8599.00,1.55
8598.00,1.55
8597.00,1.55
8596.00,1.55
8595.00,1.55
8594.00,1.55
8593.00,1.55
8592.00,1.55
8591.00,1.55
8590.00,1.55
8589.00,1.55
8588.00,1.55
8587.00,1.55
8586.00,1.55
8585.00,1.55
8584.00,1.55
8583.00,1.54
8582.00,1.54
8581.00,1.54
8580.00,1.54
8579.00,1.53
8578.00,1.53
8577.00,1.53
8576.00,1.53
8575.00,1.52
8574.00,1.52
8573.00,1.52
8572.00,1.51
8571.00,1.51
8570.00,1.50
8569.00,1.50
8568.00,1.49
8567.00,1.49
8566.00,1.48
8565.00,1.48
8564.00,1.47
8563.00,1.47
8562.00,1.47
8561.00,1.47
8560.00,1.47
8559.00,1.47
8558.00,1.47
8557.00,1.48
8556.00,1.48
8555.00,1.49
8554.00,1.50
8553.00,1.51
8552.00,1.51
8551.00,1.52
8550.00,1.53
8549.00,1.54
8548.00,1.55
8547.00,1.56
8546.00,1.56
8545.00,1.57
8544.00,1.58
8543.00,1.58
8542.00,1.59
8541.00,1.59
8540.00,1.59
8539.00,1.59
8538.00,1.59
8537.00,1.59
8536.00,1.59
8535.00,1.59
8534.00,1.58
8533.00,1.58
8532.00,1.58
8531.00,1.58
8530.00,1.57
8529.00,1.57
8528.00,1.57
8527.00,1.57
8526.00,1.57
8525.00,1.57
8524.00,1.58
8523.00,1.58
8522.00,1.58
8521.00,1.58
8520.00,1.59
8519.00,1.59
8518.00,1.59
8517.00,1.60
8516.00,1.60
8515.00,1.60
8514.00,1.61
8513.00,1.60
8512.00,1.60
8511.00,1.60
8510.00,1.60
8509.00,1.59
8508.00,1.58
8507.00,1.58
8506.00,1.57
8505.00,1.57
8504.00,1.56
8503.00,1.55
8502.00,1.55
8501.00,1.54
8500.00,1.54
8499.00,1.53
8498.00,1.53
8497.00,1.52
8496.00,1.52
8495.00,1.52
8494.00,1.52
8493.00,1.52
8492.00,1.52
8491.00,1.52
8490.00,1.52
8489.00,1.52
8488.00,1.52
8487.00,1.52
8486.00,1.51
8485.00,1.51
8484.00,1.51
8483.00,1.50
8482.00,1.50
8481.00,1.49
8480.00,1.49
8479.00,1.48
8478.00,1.48
8477.00,1.47
8476.00,1.47
8475.00,1.47
8474.00,1.46
8473.00,1.46
8472.00,1.46
8471.00,1.46
8470.00,1.47
8469.00,1.47
8468.00,1.47
8467.00,1.48
8466.00,1.48
8465.00,1.48
8464.00,1.49
8463.00,1.49
8462.00,1.49
8461.00,1.50
8460.00,1.50
8459.00,1.51
8458.00,1.51
8457.00,1.51
8456.00,1.51
8455.00,1.52
8454.00,1.52
8453.00,1.52
8452.00,1.52
8451.00,1.53
8450.00,1.53
8449.00,1.53
8448.00,1.54
8447.00,1.54
8446.00,1.55
8445.00,1.55
8444.00,1.56
8443.00,1.56
8442.00,1.57
8441.00,1.57
8440.00,1.57
8439.00,1.57
8438.00,1.57
8437.00,1.57
8436.00,1.57
8435.00,1.57
8434.00,1.56
8433.00,1.56
8432.00,1.55
8431.00,1.55
8430.00,1.54
8429.00,1.53
8428.00,1.52
8427.00,1.51
8426.00,1.50
8425.00,1.50
8424.00,1.49
8423.00,1.49
8422.00,1.48
8421.00,1.48
8420.00,1.47
8419.00,1.47
8418.00,1.47
8417.00,1.47
8416.00,1.47
8415.00,1.47
8414.00,1.47
8413.00,1.47
8412.00,1.47
8411.00,1.47
8410.00,1.47
8409.00,1.47
8408.00,1.47
8407.00,1.47
8406.00,1.47
8405.00,1.47
8404.00,1.47
8403.00,1.46
8402.00,1.46
8401.00,1.46
8400.00,1.46
8399.00,1.47
8398.00,1.47
8397.00,1.47
8396.00,1.47
8395.00,1.47
8394.00,1.47
8393.00,1.47
8392.00,1.47
8391.00,1.47
8390.00,1.47
8389.00,1.47
8388.00,1.47
8387.00,1.47
8386.00,1.46
8385.00,1.46
8384.00,1.46
8383.00,1.45
8382.00,1.45
8381.00,1.45
8380.00,1.44
8379.00,1.44
8378.00,1.44
8377.00,1.44
8376.00,1.44
8375.00,1.44
8374.00,1.44
8373.00,1.44
8372.00,1.45
8371.00,1.46
8370.00,1.46
8369.00,1.47
8368.00,1.48
8367.00,1.49
8366.00,1.51
8365.00,1.52
8364.00,1.53
8363.00,1.54
8362.00,1.55
8361.00,1.57
8360.00,1.58
8359.00,1.59
8358.00,1.60
8357.00,1.60
8356.00,1.61
8355.00,1.61
8354.00,1.61
8353.00,1.61
8352.00,1.61
8351.00,1.60
8350.00,1.59
8349.00,1.59
8348.00,1.58
8347.00,1.57
8346.00,1.56
8345.00,1.55
8344.00,1.54
8343.00,1.53
8342.00,1.52
8341.00,1.51
8340.00,1.50
8339.00,1.50
8338.00,1.49
8337.00,1.49
8336.00,1.49
8335.00,1.49
8334.00,1.49
8333.00,1.50
8332.00,1.50
8331.00,1.50
8330.00,1.51
8329.00,1.51
8328.00,1.51
8327.00,1.51
8326.00,1.52
8325.00,1.52
8324.00,1.52
8323.00,1.52
8322.00,1.52
8321.00,1.52
8320.00,1.52
8319.00,1.52
8318.00,1.52
8317.00,1.51
8316.00,1.51
8315.00,1.51
8314.00,1.50
8313.00,1.50
8312.00,1.49
8311.00,1.49
8310.00,1.48
8309.00,1.48
8308.00,1.48
8307.00,1.47
8306.00,1.47
8305.00,1.46
8304.00,1.46
8303.00,1.46
8302.00,1.45
8301.00,1.45
8300.00,1.45
8299.00,1.45
8298.00,1.45
8297.00,1.45
8296.00,1.45
8295.00,1.45
8294.00,1.45
8293.00,1.46
8292.00,1.46
8291.00,1.47
8290.00,1.47
8289.00,1.48
8288.00,1.48
8287.00,1.49
8286.00,1.50
8285.00,1.50
8284.00,1.51
8283.00,1.52
8282.00,1.52
8281.00,1.52
8280.00,1.53
8279.00,1.53
8278.00,1.53
8277.00,1.53
8276.00,1.53
8275.00,1.53
8274.00,1.53
8273.00,1.53
8272.00,1.52
8271.00,1.52
8270.00,1.52
8269.00,1.52
8268.00,1.51
8267.00,1.51
8266.00,1.51
8265.00,1.51
8264.00,1.51
8263.00,1.51
8262.00,1.52
8261.00,1.52
8260.00,1.52
8259.00,1.53
8258.00,1.53
8257.00,1.54
8256.00,1.54
8255.00,1.54
8254.00,1.54
8253.00,1.55
8252.00,1.55
8251.00,1.55
8250.00,1.55
8249.00,1.55
8248.00,1.55
8247.00,1.54
8246.00,1.54
8245.00,1.54
8244.00,1.54
8243.00,1.53
8242.00,1.53
8241.00,1.53
8240.00,1.53
8239.00,1.53
8238.00,1.53
8237.00,1.54
8236.00,1.54
8235.00,1.54
8234.00,1.55
8233.00,1.55
8232.00,1.56
8231.00,1.56
8230.00,1.56
8229.00,1.57
8228.00,1.57
8227.00,1.57
8226.00,1.57
8225.00,1.57
8224.00,1.57
8223.00,1.57
8222.00,1.57
8221.00,1.57
8220.00,1.56
8219.00,1.56
8218.00,1.55
8217.00,1.55
8216.00,1.54
8215.00,1.54
8214.00,1.53
8213.00,1.53
8212.00,1.52
8211.00,1.52
8210.00,1.51
8209.00,1.51
8208.00,1.51
8207.00,1.51
8206.00,1.51
8205.00,1.51
8204.00,1.51
8203.00,1.51
8202.00,1.51
8201.00,1.51
8200.00,1.52
8199.00,1.52
8198.00,1.53
8197.00,1.54
8196.00,1.54
8195.00,1.55
8194.00,1.55
8193.00,1.56
8192.00,1.57
8191.00,1.57
8190.00,1.58
8189.00,1.59
8188.00,1.59
8187.00,1.60
8186.00,1.60
8185.00,1.61
8184.00,1.61
8183.00,1.61
8182.00,1.61
8181.00,1.61
8180.00,1.61
8179.00,1.61
8178.00,1.61
8177.00,1.61
8176.00,1.61
8175.00,1.60
8174.00,1.60
8173.00,1.60
8172.00,1.59
8171.00,1.59
8170.00,1.58
8169.00,1.58
8168.00,1.57
8167.00,1.57
8166.00,1.57
8165.00,1.56
8164.00,1.56
8163.00,1.56
8162.00,1.55
8161.00,1.55
8160.00,1.55
8159.00,1.55
8158.00,1.55
8157.00,1.55
8156.00,1.55
8155.00,1.55
8154.00,1.55
8153.00,1.55
8152.00,1.55
8151.00,1.56
8150.00,1.56
8149.00,1.57
8148.00,1.58
8147.00,1.58
8146.00,1.59
8145.00,1.60
8144.00,1.61
8143.00,1.62
8142.00,1.63
8141.00,1.64
8140.00,1.65
8139.00,1.66
8138.00,1.67
8137.00,1.68
8136.00,1.69
8135.00,1.69
8134.00,1.69
8133.00,1.70
8132.00,1.70
8131.00,1.69
8130.00,1.69
8129.00,1.68
8128.00,1.68
8127.00,1.67
8126.00,1.66
8125.00,1.65
8124.00,1.64
8123.00,1.63
8122.00,1.62
8121.00,1.61
8120.00,1.60
8119.00,1.59
8118.00,1.58
8117.00,1.57
8116.00,1.56
8115.00,1.55
8114.00,1.55
8113.00,1.54
8112.00,1.54
8111.00,1.54
8110.00,1.53
8109.00,1.53
8108.00,1.53
8107.00,1.53
8106.00,1.53
8105.00,1.53
8104.00,1.54
8103.00,1.54
8102.00,1.54
8101.00,1.55
8100.00,1.55
8099.00,1.56
8098.00,1.57
8097.00,1.57
8096.00,1.58
8095.00,1.59
8094.00,1.60
8093.00,1.60
8092.00,1.61
8091.00,1.61
8090.00,1.62
8089.00,1.62
8088.00,1.62
8087.00,1.62
8086.00,1.63
8085.00,1.63
8084.00,1.62
8083.00,1.62
8082.00,1.62
8081.00,1.61
8080.00,1.61
8079.00,1.61
8078.00,1.60
8077.00,1.60
8076.00,1.60
8075.00,1.59
8074.00,1.59
8073.00,1.59
8072.00,1.59
8071.00,1.59
8070.00,1.60
8069.00,1.60
8068.00,1.60
8067.00,1.61
8066.00,1.61
8065.00,1.61
8064.00,1.62
8063.00,1.62
8062.00,1.63
8061.00,1.63
8060.00,1.64
8059.00,1.64
8058.00,1.65
8057.00,1.65
8056.00,1.65
8055.00,1.65
8054.00,1.65
8053.00,1.65
8052.00,1.65
8051.00,1.65
8050.00,1.65
8049.00,1.64
8048.00,1.64
8047.00,1.63
8046.00,1.63
8045.00,1.62
8044.00,1.62
8043.00,1.61
8042.00,1.60
8041.00,1.60
8040.00,1.59
8039.00,1.58
8038.00,1.58
8037.00,1.57
8036.00,1.57
8035.00,1.57
8034.00,1.57
8033.00,1.57
8032.00,1.57
8031.00,1.57
8030.00,1.58
8029.00,1.58
8028.00,1.58
8027.00,1.59
8026.00,1.59
8025.00,1.60
8024.00,1.60
8023.00,1.60
8022.00,1.61
8021.00,1.61
8020.00,1.61
8019.00,1.62
8018.00,1.62
8017.00,1.62
8016.00,1.63
8015.00,1.63
8014.00,1.63
8013.00,1.63
8012.00,1.63
8011.00,1.63
8010.00,1.64
8009.00,1.64
8008.00,1.64
8007.00,1.64
8006.00,1.64
8005.00,1.64
8004.00,1.64
8003.00,1.64
8002.00,1.64
8001.00,1.64
8000.00,1.63
7999.00,1.63
7998.00,1.63
7997.00,1.63
7996.00,1.63
7995.00,1.62
7994.00,1.62
7993.00,1.62
7992.00,1.62
7991.00,1.62
7990.00,1.62
7989.00,1.62
7988.00,1.62
7987.00,1.62
7986.00,1.62
7985.00,1.62
7984.00,1.62
7983.00,1.62
7982.00,1.61
7981.00,1.61
7980.00,1.61
7979.00,1.61
7978.00,1.61
7977.00,1.61
7976.00,1.60
7975.00,1.60
7974.00,1.60
7973.00,1.60
7972.00,1.59
7971.00,1.59
7970.00,1.59
7969.00,1.59
7968.00,1.59
7967.00,1.59
7966.00,1.60
7965.00,1.60
7964.00,1.60
7963.00,1.61
7962.00,1.61
7961.00,1.62
7960.00,1.62
7959.00,1.63
7958.00,1.63
7957.00,1.64
7956.00,1.64
7955.00,1.65
7954.00,1.65
7953.00,1.66
7952.00,1.66
7951.00,1.67
7950.00,1.67
7949.00,1.67
7948.00,1.67
7947.00,1.68
7946.00,1.68
7945.00,1.68
7944.00,1.67
7943.00,1.67
7942.00,1.67
7941.00,1.67
7940.00,1.67
7939.00,1.67
7938.00,1.67
7937.00,1.67
7936.00,1.67
7935.00,1.67
7934.00,1.67
7933.00,1.67
7932.00,1.67
7931.00,1.67
7930.00,1.67
7929.00,1.67
7928.00,1.67
7927.00,1.67
7926.00,1.67
7925.00,1.68
7924.00,1.68
7923.00,1.68
7922.00,1.68
7921.00,1.68
7920.00,1.68
7919.00,1.68
7918.00,1.68
7917.00,1.68
7916.00,1.68
7915.00,1.68
7914.00,1.68
7913.00,1.68
7912.00,1.67
7911.00,1.67
7910.00,1.67
7909.00,1.67
7908.00,1.67
7907.00,1.67
7906.00,1.67
7905.00,1.67
7904.00,1.67
7903.00,1.67
7902.00,1.67
7901.00,1.67
7900.00,1.67
7899.00,1.67
7898.00,1.67
7897.00,1.67
7896.00,1.68
7895.00,1.68
7894.00,1.68
7893.00,1.68
7892.00,1.68
7891.00,1.69
7890.00,1.69
7889.00,1.69
7888.00,1.69
7887.00,1.69
7886.00,1.70
7885.00,1.70
7884.00,1.70
7883.00,1.70
7882.00,1.70
7881.00,1.70
7880.00,1.70
7879.00,1.70
7878.00,1.70
7877.00,1.69
7876.00,1.69
7875.00,1.69
7874.00,1.68
7873.00,1.68
7872.00,1.68
7871.00,1.67
7870.00,1.67
7869.00,1.67
7868.00,1.67
7867.00,1.66
7866.00,1.66
7865.00,1.66
7864.00,1.65
7863.00,1.65
7862.00,1.65
7861.00,1.64
7860.00,1.64
7859.00,1.64
7858.00,1.64
7857.00,1.64
7856.00,1.64
7855.00,1.64
7854.00,1.64
7853.00,1.64
7852.00,1.63
7851.00,1.63
7850.00,1.63
7849.00,1.63
7848.00,1.64
7847.00,1.64
7846.00,1.64
7845.00,1.64
7844.00,1.65
7843.00,1.65
7842.00,1.65
7841.00,1.66
7840.00,1.66
7839.00,1.66
7838.00,1.67
7837.00,1.67
7836.00,1.68
7835.00,1.69
7834.00,1.69
7833.00,1.70
7832.00,1.70
7831.00,1.71
7830.00,1.71
7829.00,1.71
7828.00,1.71
7827.00,1.72
7826.00,1.72
7825.00,1.72
7824.00,1.72
7823.00,1.72
7822.00,1.71
7821.00,1.71
7820.00,1.71
7819.00,1.71
7818.00,1.70
7817.00,1.70
7816.00,1.70
7815.00,1.70
7814.00,1.70
7813.00,1.69
7812.00,1.69
7811.00,1.69
7810.00,1.69
7809.00,1.69
7808.00,1.70
7807.00,1.70
7806.00,1.70
7805.00,1.70
7804.00,1.70
7803.00,1.71
7802.00,1.71
7801.00,1.71
7800.00,1.71
7799.00,1.71
7798.00,1.72
7797.00,1.72
7796.00,1.72
7795.00,1.72
7794.00,1.72
7793.00,1.73
7792.00,1.73
7791.00,1.73
7790.00,1.72
7789.00,1.72
7788.00,1.72
7787.00,1.72
7786.00,1.72
7785.00,1.72
7784.00,1.72
7783.00,1.72
7782.00,1.72
7781.00,1.72
7780.00,1.71
7779.00,1.71
7778.00,1.70
7777.00,1.70
7776.00,1.69
7775.00,1.69
7774.00,1.68
7773.00,1.67
7772.00,1.67
7771.00,1.66
7770.00,1.65
7769.00,1.65
7768.00,1.64
7767.00,1.63
7766.00,1.63
7765.00,1.62
7764.00,1.62
7763.00,1.62
7762.00,1.62
7761.00,1.61
7760.00,1.61
7759.00,1.62
7758.00,1.62
7757.00,1.62
7756.00,1.62
7755.00,1.62
7754.00,1.63
7753.00,1.63
7752.00,1.64
7751.00,1.64
7750.00,1.65
7749.00,1.65
7748.00,1.66
7747.00,1.66
7746.00,1.66
7745.00,1.67
7744.00,1.67
7743.00,1.68
7742.00,1.68
7741.00,1.68
7740.00,1.68
7739.00,1.68
7738.00,1.68
7737.00,1.68
7736.00,1.68
7735.00,1.68
7734.00,1.68
7733.00,1.68
7732.00,1.67
7731.00,1.67
7730.00,1.67
7729.00,1.67
7728.00,1.67
7727.00,1.66
7726.00,1.66
7725.00,1.66
7724.00,1.66
7723.00,1.66
7722.00,1.67
7721.00,1.67
7720.00,1.67
7719.00,1.68
7718.00,1.68
7717.00,1.69
7716.00,1.70
7715.00,1.70
7714.00,1.71
7713.00,1.71
7712.00,1.72
7711.00,1.72
7710.00,1.72
7709.00,1.73
7708.00,1.73
7707.00,1.73
7706.00,1.73
7705.00,1.72
7704.00,1.72
7703.00,1.72
7702.00,1.71
7701.00,1.71
7700.00,1.70
7699.00,1.70
7698.00,1.69
7697.00,1.69
7696.00,1.69
7695.00,1.68
7694.00,1.68
7693.00,1.68
7692.00,1.68
7691.00,1.68
7690.00,1.68
7689.00,1.68
7688.00,1.68
7687.00,1.68
7686.00,1.68
7685.00,1.69
7684.00,1.69
7683.00,1.70
7682.00,1.70
7681.00,1.70
7680.00,1.71
7679.00,1.71
7678.00,1.71
7677.00,1.71
7676.00,1.72
7675.00,1.72
7674.00,1.72
7673.00,1.72
7672.00,1.72
7671.00,1.72
7670.00,1.72
7669.00,1.72
7668.00,1.72
7667.00,1.71
7666.00,1.71
7665.00,1.71
7664.00,1.71
7663.00,1.71
7662.00,1.70
7661.00,1.70
7660.00,1.70
7659.00,1.69
7658.00,1.69
7657.00,1.69
7656.00,1.68
7655.00,1.68
7654.00,1.67
7653.00,1.67
7652.00,1.66
7651.00,1.66
7650.00,1.65
7649.00,1.65
7648.00,1.64
7647.00,1.64
7646.00,1.64
7645.00,1.64
7644.00,1.64
7643.00,1.64
7642.00,1.64
7641.00,1.64
7640.00,1.64
7639.00,1.65
7638.00,1.65
7637.00,1.66
7636.00,1.66
7635.00,1.67
7634.00,1.68
7633.00,1.68
7632.00,1.69
7631.00,1.69
7630.00,1.70
7629.00,1.70
7628.00,1.70
7627.00,1.71
7626.00,1.71
7625.00,1.71
7624.00,1.71
7623.00,1.71
7622.00,1.71
7621.00,1.71
7620.00,1.71
7619.00,1.71
7618.00,1.71
7617.00,1.71
7616.00,1.71
7615.00,1.71
7614.00,1.71
7613.00,1.71
7612.00,1.71
7611.00,1.71
7610.00,1.71
7609.00,1.71
7608.00,1.71
7607.00,1.71
7606.00,1.71
7605.00,1.71
7604.00,1.71
7603.00,1.71
7602.00,1.71
7601.00,1.71
7600.00,1.71
7599.00,1.71
7598.00,1.71
7597.00,1.71
7596.00,1.71
7595.00,1.71
7594.00,1.71
7593.00,1.71
7592.00,1.71
7591.00,1.71
7590.00,1.71
7589.00,1.71
7588.00,1.71
7587.00,1.71
7586.00,1.71
7585.00,1.71
7584.00,1.71
7583.00,1.70
7582.00,1.70
7581.00,1.70
7580.00,1.70
7579.00,1.70
7578.00,1.70
7577.00,1.70
7576.00,1.70
7575.00,1.70
7574.00,1.70
7573.00,1.69
7572.00,1.69
7571.00,1.69
7570.00,1.69
7569.00,1.69
7568.00,1.69
7567.00,1.69
7566.00,1.68
7565.00,1.68
7564.00,1.68
7563.00,1.68
7562.00,1.68
7561.00,1.68
7560.00,1.67
7559.00,1.67
7558.00,1.67
7557.00,1.67
7556.00,1.67
7555.00,1.67
7554.00,1.67
7553.00,1.68
7552.00,1.68
7551.00,1.68
7550.00,1.68
7549.00,1.69
7548.00,1.69
7547.00,1.69
7546.00,1.69
7545.00,1.70
7544.00,1.70
7543.00,1.70
7542.00,1.70
7541.00,1.70
7540.00,1.70
7539.00,1.70
7538.00,1.70
7537.00,1.70
7536.00,1.69
7535.00,1.69
7534.00,1.69
7533.00,1.69
7532.00,1.68
7531.00,1.68
7530.00,1.68
7529.00,1.68
7528.00,1.68
7527.00,1.68
7526.00,1.68
7525.00,1.68
7524.00,1.68
7523.00,1.68
7522.00,1.68
7521.00,1.68
7520.00,1.68
7519.00,1.68
7518.00,1.68
7517.00,1.68
7516.00,1.68
7515.00,1.68
7514.00,1.68
7513.00,1.68
7512.00,1.68
7511.00,1.68
7510.00,1.68
7509.00,1.68
7508.00,1.67
7507.00,1.67
7506.00,1.67
7505.00,1.67
7504.00,1.67
7503.00,1.67
7502.00,1.67
7501.00,1.67
7500.00,1.67
7499.00,1.66
7498.00,1.66
7497.00,1.66
7496.00,1.66
7495.00,1.66
7494.00,1.65
7493.00,1.65
7492.00,1.65
7491.00,1.65
7490.00,1.65
7489.00,1.65
7488.00,1.65
7487.00,1.65
7486.00,1.65
7485.00,1.65
7484.00,1.65
7483.00,1.65
7482.00,1.65
7481.00,1.65
7480.00,1.65
7479.00,1.66
7478.00,1.66
7477.00,1.66
7476.00,1.66
7475.00,1.66
7474.00,1.66
7473.00,1.66
7472.00,1.66
7471.00,1.66
7470.00,1.66
7469.00,1.67
7468.00,1.67
7467.00,1.67
7466.00,1.67
7465.00,1.67
7464.00,1.68
7463.00,1.68
7462.00,1.68
7461.00,1.68
7460.00,1.68
7459.00,1.68
7458.00,1.68
7457.00,1.68
7456.00,1.68
7455.00,1.68
7454.00,1.67
7453.00,1.67
7452.00,1.67
7451.00,1.67
7450.00,1.67
7449.00,1.66
7448.00,1.66
7447.00,1.66
7446.00,1.66
7445.00,1.67
7444.00,1.67
7443.00,1.67
7442.00,1.67
7441.00,1.68
7440.00,1.68
7439.00,1.69
7438.00,1.69
7437.00,1.70
7436.00,1.70
7435.00,1.71
7434.00,1.71
7433.00,1.71
7432.00,1.72
7431.00,1.72
7430.00,1.72
7429.00,1.71
7428.00,1.71
7427.00,1.71
7426.00,1.70
7425.00,1.70
7424.00,1.69
7423.00,1.68
7422.00,1.68
7421.00,1.67
7420.00,1.66
7419.00,1.65
7418.00,1.65
7417.00,1.64
7416.00,1.64
7415.00,1.63
7414.00,1.63
7413.00,1.63
7412.00,1.63
7411.00,1.63
7410.00,1.63
7409.00,1.64
7408.00,1.64
7407.00,1.64
7406.00,1.65
7405.00,1.66
7404.00,1.66
7403.00,1.67
7402.00,1.68
7401.00,1.69
7400.00,1.69
7399.00,1.70
7398.00,1.70
7397.00,1.71
7396.00,1.71
7395.00,1.71
7394.00,1.71
7393.00,1.71
7392.00,1.71
7391.00,1.71
7390.00,1.70
7389.00,1.70
7388.00,1.69
7387.00,1.68
7386.00,1.67
7385.00,1.66
7384.00,1.66
7383.00,1.65
7382.00,1.64
7381.00,1.63
7380.00,1.63
7379.00,1.62
7378.00,1.61
7377.00,1.61
7376.00,1.61
7375.00,1.61
7374.00,1.61
7373.00,1.61
7372.00,1.61
7371.00,1.61
7370.00,1.61
7369.00,1.61
7368.00,1.61
7367.00,1.62
7366.00,1.62
7365.00,1.62
7364.00,1.62
7363.00,1.63
7362.00,1.63
7361.00,1.63
7360.00,1.63
7359.00,1.63
7358.00,1.64
7357.00,1.64
7356.00,1.64
7355.00,1.64
7354.00,1.64
7353.00,1.63
7352.00,1.63
7351.00,1.63
7350.00,1.63
7349.00,1.63
7348.00,1.62
7347.00,1.62
7346.00,1.62
7345.00,1.62
7344.00,1.61
7343.00,1.61
7342.00,1.60
7341.00,1.60
7340.00,1.60
7339.00,1.59
7338.00,1.59
7337.00,1.59
7336.00,1.59
7335.00,1.59
7334.00,1.59
7333.00,1.59
7332.00,1.59
7331.00,1.59
7330.00,1.59
7329.00,1.60
7328.00,1.60
7327.00,1.60
7326.00,1.61
7325.00,1.61
7324.00,1.61
7323.00,1.62
7322.00,1.62
7321.00,1.62
7320.00,1.62
7319.00,1.62
7318.00,1.62
7317.00,1.62
7316.00,1.61
7315.00,1.61
7314.00,1.61
7313.00,1.61
7312.00,1.60
7311.00,1.60
7310.00,1.59
7309.00,1.59
7308.00,1.58
7307.00,1.58
7306.00,1.58
7305.00,1.57
7304.00,1.57
7303.00,1.57
7302.00,1.57
7301.00,1.57
7300.00,1.57
7299.00,1.57
7298.00,1.57
7297.00,1.58
7296.00,1.58
7295.00,1.58
7294.00,1.58
7293.00,1.59
7292.00,1.59
7291.00,1.60
7290.00,1.60
7289.00,1.60
7288.00,1.60
7287.00,1.61
7286.00,1.61
7285.00,1.61
7284.00,1.61
7283.00,1.61
7282.00,1.61
7281.00,1.61
7280.00,1.61
7279.00,1.61
7278.00,1.61
7277.00,1.61
7276.00,1.61
7275.00,1.61
7274.00,1.61
7273.00,1.61
7272.00,1.61
7271.00,1.61
7270.00,1.61
7269.00,1.61
7268.00,1.61
7267.00,1.61
7266.00,1.61
7265.00,1.61
7264.00,1.62
7263.00,1.62
7262.00,1.62
7261.00,1.62
7260.00,1.62
7259.00,1.62
7258.00,1.62
7257.00,1.62
7256.00,1.62
7255.00,1.62
7254.00,1.62
7253.00,1.62
7252.00,1.62
7251.00,1.62
7250.00,1.62
7249.00,1.62
7248.00,1.61
7247.00,1.61
7246.00,1.61
7245.00,1.60
7244.00,1.60
7243.00,1.60
7242.00,1.60
7241.00,1.59
7240.00,1.59
7239.00,1.58
7238.00,1.58
7237.00,1.57
7236.00,1.57
7235.00,1.57
7234.00,1.56
7233.00,1.56
7232.00,1.56
7231.00,1.55
7230.00,1.55
7229.00,1.54
7228.00,1.54
7227.00,1.54
7226.00,1.53
7225.00,1.53
7224.00,1.53
7223.00,1.52
7222.00,1.52
7221.00,1.52
7220.00,1.52
7219.00,1.52
7218.00,1.52
7217.00,1.51
7216.00,1.51
7215.00,1.51
7214.00,1.50
7213.00,1.50
7212.00,1.50
7211.00,1.50
7210.00,1.49
7209.00,1.49
7208.00,1.49
7207.00,1.49
7206.00,1.49
7205.00,1.48
7204.00,1.48
7203.00,1.48
7202.00,1.48
7201.00,1.47
7200.00,1.47
7199.00,1.47
7198.00,1.47
7197.00,1.46
7196.00,1.46
7195.00,1.45
7194.00,1.45
7193.00,1.44
7192.00,1.44
7191.00,1.43
7190.00,1.43
7189.00,1.42
7188.00,1.41
7187.00,1.41
7186.00,1.40
7185.00,1.39
7184.00,1.39
7183.00,1.38
7182.00,1.38
7181.00,1.37
7180.00,1.37
7179.00,1.36
7178.00,1.36
7177.00,1.36
7176.00,1.35
7175.00,1.35
7174.00,1.35
7173.00,1.35
7172.00,1.35
7171.00,1.34
7170.00,1.34
7169.00,1.34
7168.00,1.34
7167.00,1.34
7166.00,1.34
7165.00,1.33
7164.00,1.33
7163.00,1.33
7162.00,1.32
7161.00,1.32
7160.00,1.32
7159.00,1.31
7158.00,1.31
7157.00,1.31
7156.00,1.30
7155.00,1.30
7154.00,1.29
7153.00,1.29
7152.00,1.28
7151.00,1.28
7150.00,1.27
7149.00,1.27
7148.00,1.27
7147.00,1.26
7146.00,1.26
7145.00,1.26
7144.00,1.25
7143.00,1.25
7142.00,1.25
7141.00,1.24
7140.00,1.24
7139.00,1.24
7138.00,1.24
7137.00,1.24
7136.00,1.24
7135.00,1.24
7134.00,1.24
7133.00,1.23
7132.00,1.23
7131.00,1.23
7130.00,1.23
7129.00,1.22
7128.00,1.22
7127.00,1.22
7126.00,1.22
7125.00,1.21
7124.00,1.21
7123.00,1.21
7122.00,1.21
7121.00,1.20
7120.00,1.20
7119.00,1.20
7118.00,1.20
7117.00,1.20
7116.00,1.20
7115.00,1.20
7114.00,1.20
7113.00,1.20
7112.00,1.21
7111.00,1.21
7110.00,1.21
7109.00,1.21
7108.00,1.22
7107.00,1.22
7106.00,1.22
7105.00,1.23
7104.00,1.23
7103.00,1.23
7102.00,1.24
7101.00,1.24
7100.00,1.24
7099.00,1.24
7098.00,1.24
7097.00,1.24
7096.00,1.25
7095.00,1.25
7094.00,1.25
7093.00,1.25
7092.00,1.24
7091.00,1.24
7090.00,1.24
7089.00,1.24
7088.00,1.24
7087.00,1.24
7086.00,1.23
7085.00,1.23
7084.00,1.23
7083.00,1.22
7082.00,1.22
7081.00,1.22
7080.00,1.21
7079.00,1.21
7078.00,1.20
7077.00,1.20
7076.00,1.20
7075.00,1.19
7074.00,1.19
7073.00,1.18
7072.00,1.18
7071.00,1.17
7070.00,1.16
7069.00,1.16
7068.00,1.15
7067.00,1.15
7066.00,1.14
7065.00,1.14
7064.00,1.13
7063.00,1.13
7062.00,1.13
7061.00,1.12
7060.00,1.12
7059.00,1.12
7058.00,1.12
7057.00,1.12
7056.00,1.12
7055.00,1.12
7054.00,1.13
7053.00,1.13
7052.00,1.13
7051.00,1.14
7050.00,1.14
7049.00,1.14
7048.00,1.15
7047.00,1.15
7046.00,1.15
7045.00,1.15
7044.00,1.15
7043.00,1.15
7042.00,1.15
7041.00,1.14
7040.00,1.14
7039.00,1.14
7038.00,1.13
7037.00,1.13
7036.00,1.12
7035.00,1.12
7034.00,1.12
7033.00,1.11
7032.00,1.11
7031.00,1.11
7030.00,1.10
7029.00,1.10
7028.00,1.10
7027.00,1.10
7026.00,1.10
7025.00,1.10
7024.00,1.10
7023.00,1.10
7022.00,1.10
7021.00,1.10
7020.00,1.11
7019.00,1.11
7018.00,1.11
7017.00,1.11
7016.00,1.11
7015.00,1.11
7014.00,1.11
7013.00,1.11
7012.00,1.11
7011.00,1.11
7010.00,1.11
7009.00,1.10
7008.00,1.10
7007.00,1.10
7006.00,1.10
7005.00,1.10
7004.00,1.10
7003.00,1.10
7002.00,1.10
7001.00,1.10
7000.00,1.10
6999.00,1.10
6998.00,1.10
6997.00,1.10
6996.00,1.10
6995.00,1.10
6994.00,1.11
6993.00,1.11
6992.00,1.11
6991.00,1.11
6990.00,1.12
6989.00,1.12
6988.00,1.12
6987.00,1.13
6986.00,1.13
6985.00,1.13
6984.00,1.13
6983.00,1.14
6982.00,1.14
6981.00,1.14
6980.00,1.14
6979.00,1.14
6978.00,1.14
6977.00,1.14
6976.00,1.14
6975.00,1.14
6974.00,1.13
6973.00,1.13
6972.00,1.13
6971.00,1.12
6970.00,1.12
6969.00,1.11
6968.00,1.11
6967.00,1.10
6966.00,1.09
6965.00,1.09
6964.00,1.08
6963.00,1.07
6962.00,1.07
6961.00,1.06
6960.00,1.06
6959.00,1.05
6958.00,1.05
6957.00,1.05
6956.00,1.05
6955.00,1.04
6954.00,1.04
6953.00,1.04
6952.00,1.04
6951.00,1.04
6950.00,1.04
6949.00,1.04
6948.00,1.04
6947.00,1.04
6946.00,1.04
6945.00,1.04
6944.00,1.04
6943.00,1.04
6942.00,1.04
6941.00,1.03
6940.00,1.03
6939.00,1.03
6938.00,1.03
6937.00,1.03
6936.00,1.03
6935.00,1.04
6934.00,1.04
6933.00,1.04
6932.00,1.04
6931.00,1.04
6930.00,1.04
6929.00,1.05
6928.00,1.05
6927.00,1.05
6926.00,1.05
6925.00,1.05
6924.00,1.05
6923.00,1.06
6922.00,1.06
6921.00,1.06
6920.00,1.06
6919.00,1.06
6918.00,1.06
6917.00,1.06
6916.00,1.06
6915.00,1.06
6914.00,1.06
6913.00,1.06
6912.00,1.06
6911.00,1.06
6910.00,1.06
6909.00,1.06
6908.00,1.06
6907.00,1.06
6906.00,1.06
6905.00,1.05
6904.00,1.05
6903.00,1.05
6902.00,1.05
6901.00,1.05
6900.00,1.05
6899.00,1.04
6898.00,1.04
6897.00,1.04
6896.00,1.04
6895.00,1.03
6894.00,1.03
6893.00,1.03
6892.00,1.03
6891.00,1.02
6890.00,1.02
6889.00,1.02
6888.00,1.02
6887.00,1.01
6886.00,1.01
6885.00,1.01
6884.00,1.01
6883.00,1.01
6882.00,1.01
6881.00,1.02
6880.00,1.02
6879.00,1.02
6878.00,1.02
6877.00,1.03
6876.00,1.03
6875.00,1.04
6874.00,1.04
6873.00,1.04
6872.00,1.05
6871.00,1.05
6870.00,1.05
6869.00,1.06
6868.00,1.06
6867.00,1.06
6866.00,1.06
6865.00,1.06
6864.00,1.06
6863.00,1.06
6862.00,1.06
6861.00,1.05
6860.00,1.05
6859.00,1.05
6858.00,1.05
6857.00,1.04
6856.00,1.04
6855.00,1.04
6854.00,1.04
6853.00,1.04
6852.00,1.04
6851.00,1.04
6850.00,1.04
6849.00,1.04
6848.00,1.04
6847.00,1.04
6846.00,1.04
6845.00,1.04
6844.00,1.04
6843.00,1.04
6842.00,1.05
6841.00,1.05
6840.00,1.05
6839.00,1.06
6838.00,1.06
6837.00,1.06
6836.00,1.06
6835.00,1.07
6834.00,1.07
6833.00,1.07
6832.00,1.07
6831.00,1.08
6830.00,1.08
6829.00,1.08
6828.00,1.08
6827.00,1.08
6826.00,1.08
6825.00,1.08
6824.00,1.08
6823.00,1.08
6822.00,1.08
6821.00,1.08
6820.00,1.07
6819.00,1.07
6818.00,1.07
6817.00,1.07
6816.00,1.07
6815.00,1.07
6814.00,1.06
6813.00,1.06
6812.00,1.06
6811.00,1.06
6810.00,1.06
6809.00,1.07
6808.00,1.07
6807.00,1.07
6806.00,1.08
6805.00,1.08
6804.00,1.08
6803.00,1.09
6802.00,1.09
6801.00,1.09
6800.00,1.09
6799.00,1.10
6798.00,1.10
6797.00,1.10
6796.00,1.10
6795.00,1.11
6794.00,1.11
6793.00,1.11
6792.00,1.11
6791.00,1.11
6790.00,1.11
6789.00,1.11
6788.00,1.11
6787.00,1.11
6786.00,1.11
6785.00,1.11
6784.00,1.11
6783.00,1.11
6782.00,1.11
6781.00,1.11
6780.00,1.11
6779.00,1.11
6778.00,1.11
6777.00,1.11
6776.00,1.11
6775.00,1.11
6774.00,1.11
6773.00,1.11
6772.00,1.11
6771.00,1.10
6770.00,1.10
6769.00,1.10
6768.00,1.10
6767.00,1.10
6766.00,1.10
6765.00,1.10
6764.00,1.10
6763.00,1.10
6762.00,1.09
6761.00,1.09
6760.00,1.09
6759.00,1.09
6758.00,1.09
6757.00,1.09
6756.00,1.09
6755.00,1.09
6754.00,1.10
6753.00,1.10
6752.00,1.10
6751.00,1.10
6750.00,1.11
6749.00,1.11
6748.00,1.11
6747.00,1.11
6746.00,1.12
6745.00,1.12
6744.00,1.12
6743.00,1.12
6742.00,1.13
6741.00,1.13
6740.00,1.13
6739.00,1.13
6738.00,1.13
6737.00,1.13
6736.00,1.14
6735.00,1.14
6734.00,1.14
6733.00,1.13
6732.00,1.13
6731.00,1.13
6730.00,1.13
6729.00,1.13
6728.00,1.13
6727.00,1.13
6726.00,1.13
6725.00,1.13
6724.00,1.14
6723.00,1.14
6722.00,1.14
6721.00,1.14
6720.00,1.14
6719.00,1.14
6718.00,1.14
6717.00,1.15
6716.00,1.15
6715.00,1.15
6714.00,1.15
6713.00,1.16
6712.00,1.16
6711.00,1.16
6710.00,1.16
6709.00,1.16
6708.00,1.16
6707.00,1.16
6706.00,1.16
6705.00,1.17
6704.00,1.17
6703.00,1.17
6702.00,1.17
6701.00,1.17
6700.00,1.18
6699.00,1.18
6698.00,1.18
6697.00,1.19
6696.00,1.19
6695.00,1.19
6694.00,1.20
6693.00,1.20
6692.00,1.21
6691.00,1.21
6690.00,1.21
6689.00,1.22
6688.00,1.22
6687.00,1.23
6686.00,1.23
6685.00,1.23
6684.00,1.23
6683.00,1.23
6682.00,1.23
6681.00,1.23
6680.00,1.23
6679.00,1.23
6678.00,1.23
6677.00,1.23
6676.00,1.23
6675.00,1.23
6674.00,1.23
6673.00,1.22
6672.00,1.22
6671.00,1.22
6670.00,1.22
6669.00,1.23
6668.00,1.23
6667.00,1.23
6666.00,1.23
6665.00,1.24
6664.00,1.24
6663.00,1.24
6662.00,1.25
6661.00,1.25
6660.00,1.26
6659.00,1.26
6658.00,1.26
6657.00,1.27
6656.00,1.27
6655.00,1.27
6654.00,1.27
6653.00,1.27
6652.00,1.27
6651.00,1.27
6650.00,1.26
6649.00,1.26
6648.00,1.26
6647.00,1.26
6646.00,1.25
6645.00,1.25
6644.00,1.25
6643.00,1.24
6642.00,1.24
6641.00,1.23
6640.00,1.23
6639.00,1.23
6638.00,1.23
6637.00,1.23
6636.00,1.23
6635.00,1.23
6634.00,1.23
6633.00,1.23
6632.00,1.23
6631.00,1.23
6630.00,1.23
6629.00,1.24
6628.00,1.24
6627.00,1.24
6626.00,1.25
6625.00,1.25
6624.00,1.26
6623.00,1.26
6622.00,1.26
6621.00,1.26
6620.00,1.27
6619.00,1.27
6618.00,1.27
6617.00,1.27
6616.00,1.27
6615.00,1.27
6614.00,1.27
6613.00,1.27
6612.00,1.27
6611.00,1.27
6610.00,1.27
6609.00,1.27
6608.00,1.27
6607.00,1.27
6606.00,1.27
6605.00,1.27
6604.00,1.27
6603.00,1.27
6602.00,1.27
6601.00,1.27
6600.00,1.27
6599.00,1.28
6598.00,1.28
6597.00,1.28
6596.00,1.28
6595.00,1.28
6594.00,1.28
6593.00,1.29
6592.00,1.29
6591.00,1.29
6590.00,1.29
6589.00,1.29
6588.00,1.29
6587.00,1.28
6586.00,1.28
6585.00,1.28
6584.00,1.28
6583.00,1.28
6582.00,1.28
6581.00,1.27
6580.00,1.27
6579.00,1.27
6578.00,1.27
6577.00,1.27
6576.00,1.27
6575.00,1.27
6574.00,1.27
6573.00,1.28
6572.00,1.28
6571.00,1.28
6570.00,1.28
6569.00,1.29
6568.00,1.29
6567.00,1.30
6566.00,1.30
6565.00,1.31
6564.00,1.31
6563.00,1.31
6562.00,1.31
6561.00,1.32
6560.00,1.32
6559.00,1.32
6558.00,1.33
6557.00,1.33
6556.00,1.33
6555.00,1.33
6554.00,1.33
6553.00,1.33
6552.00,1.33
6551.00,1.33
6550.00,1.34
6549.00,1.34
6548.00,1.34
6547.00,1.34
6546.00,1.34
6545.00,1.34
6544.00,1.34
6543.00,1.34
6542.00,1.34
6541.00,1.34
6540.00,1.34
6539.00,1.33
6538.00,1.33
6537.00,1.33
6536.00,1.33
6535.00,1.33
6534.00,1.33
6533.00,1.33
6532.00,1.32
6531.00,1.32
6530.00,1.32
6529.00,1.32
6528.00,1.32
6527.00,1.32
6526.00,1.32
6525.00,1.32
6524.00,1.31
6523.00,1.31
6522.00,1.31
6521.00,1.31
6520.00,1.31
6519.00,1.31
6518.00,1.31
6517.00,1.31
6516.00,1.31
6515.00,1.31
6514.00,1.31
6513.00,1.31
6512.00,1.31
6511.00,1.32
6510.00,1.32
6509.00,1.32
6508.00,1.33
6507.00,1.33
6506.00,1.34
6505.00,1.35
6504.00,1.35
6503.00,1.36
6502.00,1.36
6501.00,1.37
6500.00,1.37
6499.00,1.38
6498.00,1.38
6497.00,1.39
6496.00,1.39
6495.00,1.39
6494.00,1.40
6493.00,1.40
6492.00,1.40
6491.00,1.40
6490.00,1.40
6489.00,1.40
6488.00,1.40
6487.00,1.40
6486.00,1.40
6485.00,1.40
6484.00,1.40
6483.00,1.40
6482.00,1.40
6481.00,1.40
6480.00,1.39
6479.00,1.39
6478.00,1.39
6477.00,1.39
6476.00,1.39
6475.00,1.39
6474.00,1.39
6473.00,1.39
6472.00,1.39
6471.00,1.38
6470.00,1.38
6469.00,1.38
6468.00,1.38
6467.00,1.38
6466.00,1.38
6465.00,1.38
6464.00,1.38
6463.00,1.38
6462.00,1.38
6461.00,1.39
6460.00,1.39
6459.00,1.39
6458.00,1.39
6457.00,1.39
6456.00,1.39
6455.00,1.40
6454.00,1.40
6453.00,1.40
6452.00,1.40
6451.00,1.40
6450.00,1.41
6449.00,1.41
6448.00,1.41
6447.00,1.41
6446.00,1.41
6445.00,1.41
6444.00,1.41
6443.00,1.41
6442.00,1.41
6441.00,1.41
6440.00,1.42
6439.00,1.42
6438.00,1.42
6437.00,1.42
6436.00,1.42
6435.00,1.42
6434.00,1.42
6433.00,1.43
6432.00,1.43
6431.00,1.43
6430.00,1.43
6429.00,1.44
6428.00,1.44
6427.00,1.44
6426.00,1.44
6425.00,1.44
6424.00,1.44
6423.00,1.44
6422.00,1.44
6421.00,1.44
6420.00,1.44
6419.00,1.44
6418.00,1.44
6417.00,1.44
6416.00,1.43
6415.00,1.43
6414.00,1.43
6413.00,1.42
6412.00,1.42
6411.00,1.42
6410.00,1.42
6409.00,1.41
6408.00,1.41
6407.00,1.41
6406.00,1.40
6405.00,1.40
6404.00,1.40
6403.00,1.40
6402.00,1.40
6401.00,1.40
6400.00,1.39
6399.00,1.39
6398.00,1.39
6397.00,1.40
6396.00,1.40
6395.00,1.40
6394.00,1.40
6393.00,1.40
6392.00,1.40
6391.00,1.41
6390.00,1.41
6389.00,1.41
6388.00,1.41
6387.00,1.41
6386.00,1.42
6385.00,1.42
6384.00,1.42
6383.00,1.42
6382.00,1.42
6381.00,1.42
6380.00,1.42
6379.00,1.42
6378.00,1.42
6377.00,1.42
6376.00,1.42
6375.00,1.42
6374.00,1.42
6373.00,1.43
6372.00,1.43
6371.00,1.43
6370.00,1.43
6369.00,1.43
6368.00,1.43
6367.00,1.44
6366.00,1.44
6365.00,1.45
6364.00,1.45
6363.00,1.45
6362.00,1.46
6361.00,1.46
6360.00,1.47
6359.00,1.47
6358.00,1.47
6357.00,1.48
6356.00,1.48
6355.00,1.49
6354.00,1.49
6353.00,1.49
6352.00,1.50
6351.00,1.50
6350.00,1.50
6349.00,1.50
6348.00,1.50
6347.00,1.50
6346.00,1.50
6345.00,1.50
6344.00,1.50
6343.00,1.50
6342.00,1.50
6341.00,1.49
6340.00,1.49
6339.00,1.49
6338.00,1.49
6337.00,1.49
6336.00,1.49
6335.00,1.49
6334.00,1.49
6333.00,1.49
6332.00,1.49
6331.00,1.49
6330.00,1.49
6329.00,1.49
6328.00,1.50
6327.00,1.50
6326.00,1.50
6325.00,1.50
6324.00,1.49
6323.00,1.49
6322.00,1.49
6321.00,1.49
6320.00,1.49
6319.00,1.49
6318.00,1.49
6317.00,1.49
6316.00,1.49
6315.00,1.49
6314.00,1.49
6313.00,1.49
6312.00,1.49
6311.00,1.49
6310.00,1.49
6309.00,1.50
6308.00,1.50
6307.00,1.50
6306.00,1.50
6305.00,1.50
6304.00,1.51
6303.00,1.51
6302.00,1.51
6301.00,1.51
6300.00,1.51
6299.00,1.51
6298.00,1.51
6297.00,1.51
6296.00,1.52
6295.00,1.52
6294.00,1.52
6293.00,1.52
6292.00,1.52
6291.00,1.52
6290.00,1.52
6289.00,1.52
6288.00,1.52
6287.00,1.52
6286.00,1.52
6285.00,1.52
6284.00,1.53
6283.00,1.53
6282.00,1.53
6281.00,1.53
6280.00,1.53
6279.00,1.54
6278.00,1.54
6277.00,1.54
6276.00,1.55
6275.00,1.55
6274.00,1.55
6273.00,1.56
6272.00,1.56
6271.00,1.56
6270.00,1.56
6269.00,1.56
6268.00,1.57
6267.00,1.57
6266.00,1.57
6265.00,1.57
6264.00,1.57
6263.00,1.57
6262.00,1.56
6261.00,1.56
6260.00,1.56
6259.00,1.56
6258.00,1.56
6257.00,1.55
6256.00,1.55
6255.00,1.55
6254.00,1.55
6253.00,1.55
6252.00,1.55
6251.00,1.55
6250.00,1.55
6249.00,1.55
6248.00,1.55
6247.00,1.55
6246.00,1.54
6245.00,1.54
6244.00,1.54
6243.00,1.54
6242.00,1.54
6241.00,1.54
6240.00,1.55
6239.00,1.55
6238.00,1.55
6237.00,1.55
6236.00,1.55
6235.00,1.55
6234.00,1.55
6233.00,1.55
6232.00,1.56
6231.00,1.56
6230.00,1.56
6229.00,1.56
6228.00,1.56
6227.00,1.57
6226.00,1.57
6225.00,1.57
6224.00,1.57
6223.00,1.58
6222.00,1.58
6221.00,1.58
6220.00,1.58
6219.00,1.58
6218.00,1.58
6217.00,1.58
6216.00,1.58
6215.00,1.58
6214.00,1.58
6213.00,1.58
6212.00,1.58
6211.00,1.58
6210.00,1.58
6209.00,1.57
6208.00,1.57
6207.00,1.57
6206.00,1.57
6205.00,1.57
6204.00,1.57
6203.00,1.57
6202.00,1.57
6201.00,1.57
6200.00,1.57
6199.00,1.57
6198.00,1.57
6197.00,1.57
6196.00,1.57
6195.00,1.57
6194.00,1.57
6193.00,1.57
6192.00,1.57
6191.00,1.57
6190.00,1.57
6189.00,1.57
6188.00,1.57
6187.00,1.57
6186.00,1.57
6185.00,1.57
6184.00,1.56
6183.00,1.56
6182.00,1.56
6181.00,1.56
6180.00,1.56
6179.00,1.56
6178.00,1.56
6177.00,1.56
6176.00,1.56
6175.00,1.56
6174.00,1.57
6173.00,1.57
6172.00,1.57
6171.00,1.58
6170.00,1.58
6169.00,1.59
6168.00,1.59
6167.00,1.60
6166.00,1.60
6165.00,1.61
6164.00,1.61
6163.00,1.62
6162.00,1.62
6161.00,1.63
6160.00,1.63
6159.00,1.64
6158.00,1.64
6157.00,1.65
6156.00,1.65
6155.00,1.65
6154.00,1.66
6153.00,1.66
6152.00,1.66
6151.00,1.66
6150.00,1.67
6149.00,1.67
6148.00,1.67
6147.00,1.67
6146.00,1.67
6145.00,1.67
6144.00,1.67
6143.00,1.67
6142.00,1.68
6141.00,1.68
6140.00,1.68
6139.00,1.68
6138.00,1.68
6137.00,1.68
6136.00,1.68
6135.00,1.68
6134.00,1.68
6133.00,1.67
6132.00,1.67
6131.00,1.67
6130.00,1.67
6129.00,1.67
6128.00,1.67
6127.00,1.67
6126.00,1.67
6125.00,1.67
6124.00,1.67
6123.00,1.67
6122.00,1.67
6121.00,1.67
6120.00,1.67
6119.00,1.67
6118.00,1.67
6117.00,1.67
6116.00,1.67
6115.00,1.67
6114.00,1.68
6113.00,1.68
6112.00,1.68
6111.00,1.68
6110.00,1.68
6109.00,1.69
6108.00,1.69
6107.00,1.69
6106.00,1.69
6105.00,1.69
6104.00,1.69
6103.00,1.70
6102.00,1.70
6101.00,1.70
6100.00,1.70
6099.00,1.70
6098.00,1.69
6097.00,1.69
6096.00,1.69
6095.00,1.69
6094.00,1.69
6093.00,1.69
6092.00,1.69
6091.00,1.69
6090.00,1.69
6089.00,1.69
6088.00,1.69
6087.00,1.69
6086.00,1.69
6085.00,1.70
6084.00,1.70
6083.00,1.70
6082.00,1.70
6081.00,1.71
6080.00,1.71
6079.00,1.71
6078.00,1.71
6077.00,1.71
6076.00,1.72
6075.00,1.72
6074.00,1.72
6073.00,1.72
6072.00,1.72
6071.00,1.71
6070.00,1.71
6069.00,1.71
6068.00,1.71
6067.00,1.71
6066.00,1.71
6065.00,1.71
6064.00,1.70
6063.00,1.70
6062.00,1.70
6061.00,1.70
6060.00,1.70
6059.00,1.70
6058.00,1.70
6057.00,1.70
6056.00,1.70
6055.00,1.70
6054.00,1.70
6053.00,1.70
6052.00,1.70
6051.00,1.71
6050.00,1.71
6049.00,1.71
6048.00,1.71
6047.00,1.71
6046.00,1.72
6045.00,1.72
6044.00,1.72
6043.00,1.72
6042.00,1.73
6041.00,1.73
6040.00,1.73
6039.00,1.73
6038.00,1.74
6037.00,1.74
6036.00,1.74
6035.00,1.74
6034.00,1.74
6033.00,1.75
6032.00,1.75
6031.00,1.75
6030.00,1.75
6029.00,1.75
6028.00,1.75
6027.00,1.75
6026.00,1.75
6025.00,1.75
6024.00,1.75
6023.00,1.74
6022.00,1.74
6021.00,1.74
6020.00,1.74
6019.00,1.74
6018.00,1.74
6017.00,1.73
6016.00,1.73
6015.00,1.73
6014.00,1.73
6013.00,1.73
6012.00,1.72
6011.00,1.72
6010.00,1.72
6009.00,1.72
6008.00,1.72
6007.00,1.72
6006.00,1.72
6005.00,1.72
6004.00,1.72
6003.00,1.72
6002.00,1.72
6001.00,1.72
6000.00,1.72
5999.00,1.72
5998.00,1.72
5997.00,1.73
5996.00,1.73
5995.00,1.73
5994.00,1.73
5993.00,1.73
5992.00,1.73
5991.00,1.72
5990.00,1.72
5989.00,1.72
5988.00,1.72
5987.00,1.72
5986.00,1.72
5985.00,1.72
5984.00,1.72
5983.00,1.72
5982.00,1.72
5981.00,1.72
5980.00,1.72
5979.00,1.72
5978.00,1.72
5977.00,1.72
5976.00,1.72
5975.00,1.72
5974.00,1.72
5973.00,1.72
5972.00,1.72
5971.00,1.71
5970.00,1.71
5969.00,1.71
5968.00,1.71
5967.00,1.71
5966.00,1.70
5965.00,1.70
5964.00,1.70
5963.00,1.69
5962.00,1.69
5961.00,1.68
5960.00,1.68
5959.00,1.67
5958.00,1.67
5957.00,1.66
5956.00,1.66
5955.00,1.65
5954.00,1.64
5953.00,1.64
5952.00,1.64
5951.00,1.63
5950.00,1.63
5949.00,1.62
5948.00,1.62
5947.00,1.62
5946.00,1.62
5945.00,1.61
5944.00,1.61
5943.00,1.61
5942.00,1.61
5941.00,1.61
5940.00,1.61
5939.00,1.61
5938.00,1.62
5937.00,1.62
5936.00,1.62
5935.00,1.62
5934.00,1.62
5933.00,1.62
5932.00,1.61
5931.00,1.61
5930.00,1.61
5929.00,1.61
5928.00,1.61
5927.00,1.61
5926.00,1.61
5925.00,1.60
5924.00,1.60
5923.00,1.60
5922.00,1.60
5921.00,1.59
5920.00,1.59
5919.00,1.59
5918.00,1.58
5917.00,1.58
5916.00,1.58
5915.00,1.57
5914.00,1.57
5913.00,1.57
5912.00,1.56
5911.00,1.56
5910.00,1.55
5909.00,1.55
5908.00,1.55
5907.00,1.54
5906.00,1.54
5905.00,1.53
5904.00,1.53
5903.00,1.53
5902.00,1.53
5901.00,1.52
5900.00,1.52
5899.00,1.52
5898.00,1.52
5897.00,1.52
5896.00,1.52
5895.00,1.53
5894.00,1.53
5893.00,1.53
5892.00,1.53
5891.00,1.54
5890.00,1.54
5889.00,1.55
5888.00,1.55
5887.00,1.55
5886.00,1.56
5885.00,1.56
5884.00,1.57
5883.00,1.57
5882.00,1.57
5881.00,1.58
5880.00,1.58
5879.00,1.58
5878.00,1.59
5877.00,1.59
5876.00,1.59
5875.00,1.59
5874.00,1.60
5873.00,1.60
5872.00,1.60
5871.00,1.60
5870.00,1.60
5869.00,1.60
5868.00,1.60
5867.00,1.60
5866.00,1.60
5865.00,1.60
5864.00,1.60
5863.00,1.60
5862.00,1.60
5861.00,1.60
5860.00,1.60
5859.00,1.60
5858.00,1.60
5857.00,1.60
5856.00,1.60
5855.00,1.60
5854.00,1.60
5853.00,1.60
5852.00,1.60
5851.00,1.60
5850.00,1.60
5849.00,1.60
5848.00,1.60
5847.00,1.61
5846.00,1.61
5845.00,1.61
5844.00,1.61
5843.00,1.61
5842.00,1.61
5841.00,1.61
5840.00,1.61
5839.00,1.62
5838.00,1.62
5837.00,1.62
5836.00,1.62
5835.00,1.62
5834.00,1.62
5833.00,1.62
5832.00,1.62
5831.00,1.62
5830.00,1.62
5829.00,1.62
5828.00,1.62
5827.00,1.62
5826.00,1.62
5825.00,1.61
5824.00,1.61
5823.00,1.61
5822.00,1.61
5821.00,1.61
5820.00,1.61
5819.00,1.61
5818.00,1.60
5817.00,1.60
5816.00,1.60
5815.00,1.60
5814.00,1.60
5813.00,1.60
5812.00,1.60
5811.00,1.60
5810.00,1.60
5809.00,1.60
5808.00,1.60
5807.00,1.60
5806.00,1.60
5805.00,1.60
5804.00,1.60
5803.00,1.60
5802.00,1.60
5801.00,1.60
5800.00,1.59
5799.00,1.59
5798.00,1.59
5797.00,1.59
5796.00,1.59
5795.00,1.59
5794.00,1.59
5793.00,1.59
5792.00,1.58
5791.00,1.58
5790.00,1.58
5789.00,1.58
5788.00,1.58
5787.00,1.58
5786.00,1.58
5785.00,1.57
5784.00,1.57
5783.00,1.57
5782.00,1.57
5781.00,1.57
5780.00,1.57
5779.00,1.57
5778.00,1.57
5777.00,1.57
5776.00,1.58
5775.00,1.58
5774.00,1.58
5773.00,1.58
5772.00,1.58
5771.00,1.59
5770.00,1.59
5769.00,1.59
5768.00,1.60
5767.00,1.60
5766.00,1.60
5765.00,1.60
5764.00,1.61
5763.00,1.61
5762.00,1.61
5761.00,1.61
5760.00,1.61
5759.00,1.61
5758.00,1.61
5757.00,1.61
5756.00,1.61
5755.00,1.61
5754.00,1.61
5753.00,1.61
5752.00,1.60
5751.00,1.60
5750.00,1.60
5749.00,1.60
5748.00,1.60
5747.00,1.60
5746.00,1.60
5745.00,1.59
5744.00,1.59
5743.00,1.59
5742.00,1.59
5741.00,1.59
5740.00,1.59
5739.00,1.59
5738.00,1.59
5737.00,1.59
5736.00,1.59
5735.00,1.59
5734.00,1.59
5733.00,1.59
5732.00,1.59
5731.00,1.59
5730.00,1.59
5729.00,1.59
5728.00,1.59
5727.00,1.59
5726.00,1.59
5725.00,1.59
5724.00,1.59
5723.00,1.60
5722.00,1.60
5721.00,1.60
5720.00,1.60
5719.00,1.60
5718.00,1.60
5717.00,1.61
5716.00,1.61
5715.00,1.61
5714.00,1.61
5713.00,1.62
5712.00,1.62
5711.00,1.62
5710.00,1.62
5709.00,1.63
5708.00,1.63
5707.00,1.63
5706.00,1.63
5705.00,1.63
5704.00,1.63
5703.00,1.63
5702.00,1.63
5701.00,1.63
5700.00,1.63
5699.00,1.63
5698.00,1.62
5697.00,1.62
5696.00,1.62
5695.00,1.61
5694.00,1.61
5693.00,1.60
5692.00,1.60
5691.00,1.60
5690.00,1.59
5689.00,1.59
5688.00,1.59
5687.00,1.59
5686.00,1.59
5685.00,1.59
5684.00,1.59
5683.00,1.59
5682.00,1.59
5681.00,1.59
5680.00,1.60
5679.00,1.60
5678.00,1.60
5677.00,1.61
5676.00,1.61
5675.00,1.62
5674.00,1.62
5673.00,1.62
5672.00,1.63
5671.00,1.63
5670.00,1.63
5669.00,1.63
5668.00,1.63
5667.00,1.63
5666.00,1.63
5665.00,1.63
5664.00,1.63
5663.00,1.63
5662.00,1.63
5661.00,1.63
5660.00,1.63
5659.00,1.62
5658.00,1.62
5657.00,1.62
5656.00,1.62
5655.00,1.62
5654.00,1.61
5653.00,1.61
5652.00,1.61
5651.00,1.61
5650.00,1.61
5649.00,1.61
5648.00,1.61
5647.00,1.61
5646.00,1.61
5645.00,1.61
5644.00,1.61
5643.00,1.61
5642.00,1.61
5641.00,1.61
5640.00,1.61
5639.00,1.61
5638.00,1.61
5637.00,1.62
5636.00,1.62
5635.00,1.62
5634.00,1.62
5633.00,1.62
5632.00,1.62
5631.00,1.62
5630.00,1.62
5629.00,1.62
5628.00,1.62
5627.00,1.62
5626.00,1.62
5625.00,1.63
5624.00,1.63
5623.00,1.63
5622.00,1.63
5621.00,1.63
5620.00,1.64
5619.00,1.64
5618.00,1.64
5617.00,1.64
5616.00,1.65
5615.00,1.65
5614.00,1.65
5613.00,1.66
5612.00,1.66
5611.00,1.66
5610.00,1.67
5609.00,1.67
5608.00,1.67
5607.00,1.67
5606.00,1.68
5605.00,1.68
5604.00,1.68
5603.00,1.68
5602.00,1.68
5601.00,1.68
5600.00,1.68
5599.00,1.68
5598.00,1.68
5597.00,1.68
5596.00,1.68
5595.00,1.68
5594.00,1.68
5593.00,1.68
5592.00,1.68
5591.00,1.68
5590.00,1.68
5589.00,1.68
5588.00,1.68
5587.00,1.68
5586.00,1.68
5585.00,1.68
5584.00,1.68
5583.00,1.68
5582.00,1.69
5581.00,1.69
5580.00,1.69
5579.00,1.69
5578.00,1.69
5577.00,1.69
5576.00,1.69
5575.00,1.70
5574.00,1.70
5573.00,1.70
5572.00,1.70
5571.00,1.70
5570.00,1.70
5569.00,1.70
5568.00,1.70
5567.00,1.70
5566.00,1.70
5565.00,1.70
5564.00,1.70
5563.00,1.70
5562.00,1.70
5561.00,1.70
5560.00,1.70
5559.00,1.70
5558.00,1.70
5557.00,1.70
5556.00,1.70
5555.00,1.70
5554.00,1.70
5553.00,1.70
5552.00,1.70
5551.00,1.70
5550.00,1.70
5549.00,1.70
5548.00,1.70
5547.00,1.70
5546.00,1.70
5545.00,1.70
5544.00,1.70
5543.00,1.71
5542.00,1.71
5541.00,1.71
5540.00,1.71
5539.00,1.71
5538.00,1.71
5537.00,1.71
5536.00,1.71
5535.00,1.71
5534.00,1.71
5533.00,1.71
5532.00,1.71
5531.00,1.71
5530.00,1.71
5529.00,1.71
5528.00,1.71
5527.00,1.71
5526.00,1.71
5525.00,1.71
5524.00,1.71
5523.00,1.72
5522.00,1.72
5521.00,1.72
5520.00,1.72
5519.00,1.72
5518.00,1.73
5517.00,1.73
5516.00,1.73
5515.00,1.73
5514.00,1.74
5513.00,1.74
5512.00,1.74
5511.00,1.74
5510.00,1.74
5509.00,1.74
5508.00,1.74
5507.00,1.74
5506.00,1.74
5505.00,1.74
5504.00,1.74
5503.00,1.74
5502.00,1.74
5501.00,1.74
5500.00,1.74
5499.00,1.73
5498.00,1.73
5497.00,1.73
5496.00,1.73
5495.00,1.73
5494.00,1.73
5493.00,1.72
5492.00,1.72
5491.00,1.72
5490.00,1.72
5489.00,1.72
5488.00,1.72
5487.00,1.72
5486.00,1.72
5485.00,1.72
5484.00,1.72
5483.00,1.72
5482.00,1.72
5481.00,1.72
5480.00,1.72
5479.00,1.72
5478.00,1.72
5477.00,1.72
5476.00,1.73
5475.00,1.73
5474.00,1.73
5473.00,1.73
5472.00,1.73
5471.00,1.72
5470.00,1.72
5469.00,1.72
5468.00,1.72
5467.00,1.72
5466.00,1.71
5465.00,1.71
5464.00,1.71
5463.00,1.71
5462.00,1.70
5461.00,1.70
5460.00,1.70
5459.00,1.70
5458.00,1.70
5457.00,1.70
5456.00,1.70
5455.00,1.70
5454.00,1.70
5453.00,1.71
5452.00,1.71
5451.00,1.71
5450.00,1.71
5449.00,1.72
5448.00,1.72
5447.00,1.72
5446.00,1.72
5445.00,1.73
5444.00,1.73
5443.00,1.73
5442.00,1.73
5441.00,1.73
5440.00,1.73
5439.00,1.74
5438.00,1.74
5437.00,1.74
5436.00,1.74
5435.00,1.74
5434.00,1.74
5433.00,1.74
5432.00,1.74
5431.00,1.74
5430.00,1.75
5429.00,1.75
5428.00,1.75
5427.00,1.75
5426.00,1.75
5425.00,1.75
5424.00,1.75
5423.00,1.75
5422.00,1.75
5421.00,1.75
5420.00,1.75
5419.00,1.75
5418.00,1.75
5417.00,1.75
5416.00,1.75
5415.00,1.74
5414.00,1.74
5413.00,1.74
5412.00,1.74
5411.00,1.74
5410.00,1.74
5409.00,1.74
5408.00,1.74
5407.00,1.74
5406.00,1.74
5405.00,1.74
5404.00,1.74
5403.00,1.74
5402.00,1.74
5401.00,1.74
5400.00,1.75
5399.00,1.75
5398.00,1.75
5397.00,1.75
5396.00,1.75
5395.00,1.75
5394.00,1.76
5393.00,1.76
5392.00,1.76
5391.00,1.76
5390.00,1.76
5389.00,1.76
5388.00,1.76
5387.00,1.76
5386.00,1.75
5385.00,1.75
5384.00,1.75
5383.00,1.75
5382.00,1.74
5381.00,1.74
5380.00,1.74
5379.00,1.73
5378.00,1.73
5377.00,1.73
5376.00,1.72
5375.00,1.72
5374.00,1.72
5373.00,1.71
5372.00,1.71
5371.00,1.70
5370.00,1.70
5369.00,1.70
5368.00,1.69
5367.00,1.69
5366.00,1.68
5365.00,1.68
5364.00,1.67
5363.00,1.67
5362.00,1.66
5361.00,1.66
5360.00,1.65
5359.00,1.64
5358.00,1.64
5357.00,1.63
5356.00,1.62
5355.00,1.62
5354.00,1.61
5353.00,1.60
5352.00,1.60
5351.00,1.59
5350.00,1.58
5349.00,1.58
5348.00,1.57
5347.00,1.56
5346.00,1.56
5345.00,1.55
5344.00,1.54
5343.00,1.53
5342.00,1.53
5341.00,1.52
5340.00,1.51
5339.00,1.50
5338.00,1.50
5337.00,1.49
5336.00,1.48
5335.00,1.47
5334.00,1.46
5333.00,1.46
5332.00,1.45
5331.00,1.44
5330.00,1.43
5329.00,1.42
5328.00,1.42
5327.00,1.41
5326.00,1.40
5325.00,1.40
5324.00,1.39
5323.00,1.38
5322.00,1.38
5321.00,1.37
5320.00,1.36
5319.00,1.35
5318.00,1.34
5317.00,1.33
5316.00,1.32
5315.00,1.31
5314.00,1.30
5313.00,1.29
5312.00,1.28
5311.00,1.27
5310.00,1.26
5309.00,1.25
5308.00,1.23
5307.00,1.22
5306.00,1.21
5305.00,1.20
5304.00,1.19
5303.00,1.18
5302.00,1.17
5301.00,1.16
5300.00,1.14
5299.00,1.13
5298.00,1.12
5297.00,1.11
5296.00,1.10
5295.00,1.09
5294.00,1.08
5293.00,1.06
5292.00,1.05
5291.00,1.04
5290.00,1.03
5289.00,1.02
5288.00,1.01
5287.00,1.00
5286.00,0.99
5285.00,0.98
5284.00,0.97
5283.00,0.96
5282.00,0.95
5281.00,0.95
5280.00,0.94
5279.00,0.93
5278.00,0.93
5277.00,0.92
5276.00,0.92
5275.00,0.92
5274.00,0.91
5273.00,0.91
5272.00,0.91
5271.00,0.90
5270.00,0.90
5269.00,0.90
5268.00,0.89
5267.00,0.89
5266.00,0.89
5265.00,0.88
5264.00,0.88
5263.00,0.88
5262.00,0.87
5261.00,0.87
5260.00,0.86
5259.00,0.86
5258.00,0.86
5257.00,0.85
5256.00,0.85
5255.00,0.84
5254.00,0.84
5253.00,0.83
5252.00,0.83
5251.00,0.82
5250.00,0.82
5249.00,0.81
5248.00,0.81
5247.00,0.80
5246.00,0.80
5245.00,0.80
5244.00,0.80
5243.00,0.80
5242.00,0.79
5241.00,0.79
5240.00,0.80
5239.00,0.80
5238.00,0.80
5237.00,0.80
5236.00,0.80
5235.00,0.80
5234.00,0.80
5233.00,0.80
5232.00,0.80
5231.00,0.80
5230.00,0.79
5229.00,0.79
5228.00,0.79
5227.00,0.79
5226.00,0.79
5225.00,0.78
5224.00,0.78
5223.00,0.77
5222.00,0.77
5221.00,0.77
5220.00,0.76
5219.00,0.76
5218.00,0.76
5217.00,0.75
5216.00,0.75
5215.00,0.75
5214.00,0.75
5213.00,0.75
5212.00,0.75
5211.00,0.75
5210.00,0.75
5209.00,0.75
5208.00,0.75
5207.00,0.75
5206.00,0.75
5205.00,0.75
5204.00,0.75
5203.00,0.76
5202.00,0.76
5201.00,0.76
5200.00,0.76
5199.00,0.76
5198.00,0.77
5197.00,0.77
5196.00,0.77
5195.00,0.77
5194.00,0.76
5193.00,0.76
5192.00,0.76
5191.00,0.76
5190.00,0.76
5189.00,0.76
5188.00,0.76
5187.00,0.76
5186.00,0.76
5185.00,0.76
5184.00,0.76
5183.00,0.76
5182.00,0.76
5181.00,0.76
5180.00,0.76
5179.00,0.76
5178.00,0.77
5177.00,0.77
5176.00,0.77
5175.00,0.78
5174.00,0.78
5173.00,0.78
5172.00,0.78
5171.00,0.79
5170.00,0.79
5169.00,0.79
5168.00,0.79
5167.00,0.79
5166.00,0.79
5165.00,0.79
5164.00,0.79
5163.00,0.79
5162.00,0.79
5161.00,0.79
5160.00,0.79
5159.00,0.79
5158.00,0.79
5157.00,0.79
5156.00,0.79
5155.00,0.79
5154.00,0.79
5153.00,0.79
5152.00,0.79
5151.00,0.79
5150.00,0.79
5149.00,0.79
5148.00,0.79
5147.00,0.79
5146.00,0.79
5145.00,0.79
5144.00,0.79
5143.00,0.79
5142.00,0.79
5141.00,0.79
5140.00,0.79
5139.00,0.79
5138.00,0.79
5137.00,0.79
5136.00,0.79
5135.00,0.79
5134.00,0.79
5133.00,0.79
5132.00,0.79
5131.00,0.78
5130.00,0.78
5129.00,0.78
5128.00,0.78
5127.00,0.78
5126.00,0.79
5125.00,0.79
5124.00,0.79
5123.00,0.79
5122.00,0.79
5121.00,0.80
5120.00,0.80
5119.00,0.80
5118.00,0.81
5117.00,0.81
5116.00,0.81
5115.00,0.82
5114.00,0.82
5113.00,0.83
5112.00,0.83
5111.00,0.83
5110.00,0.83
5109.00,0.84
5108.00,0.84
5107.00,0.84
5106.00,0.84
5105.00,0.84
5104.00,0.84
5103.00,0.84
5102.00,0.84
5101.00,0.84
5100.00,0.84
5099.00,0.84
5098.00,0.84
5097.00,0.84
5096.00,0.84
5095.00,0.84
5094.00,0.84
5093.00,0.84
5092.00,0.84
5091.00,0.84
5090.00,0.84
5089.00,0.84
5088.00,0.84
5087.00,0.84
5086.00,0.84
5085.00,0.84
5084.00,0.85
5083.00,0.85
5082.00,0.85
5081.00,0.85
5080.00,0.85
5079.00,0.85
5078.00,0.85
5077.00,0.86
5076.00,0.86
5075.00,0.86
5074.00,0.86
5073.00,0.87
5072.00,0.87
5071.00,0.88
5070.00,0.88
5069.00,0.88
5068.00,0.89
5067.00,0.89
5066.00,0.90
5065.00,0.90
5064.00,0.91
5063.00,0.91
5062.00,0.91
5061.00,0.91
5060.00,0.92
5059.00,0.92
5058.00,0.92
5057.00,0.92
5056.00,0.92
5055.00,0.93
5054.00,0.93
5053.00,0.93
5052.00,0.93
5051.00,0.93
5050.00,0.93
5049.00,0.93
5048.00,0.93
5047.00,0.93
5046.00,0.93
5045.00,0.94
5044.00,0.94
5043.00,0.94
5042.00,0.94
5041.00,0.94
5040.00,0.95
5039.00,0.95
5038.00,0.95
5037.00,0.95
5036.00,0.95
5035.00,0.96
5034.00,0.96
5033.00,0.96
5032.00,0.96
5031.00,0.96
5030.00,0.96
5029.00,0.96
5028.00,0.96
5027.00,0.96
5026.00,0.96
5025.00,0.96
5024.00,0.95
5023.00,0.95
5022.00,0.95
5021.00,0.95
5020.00,0.95
5019.00,0.95
5018.00,0.95
5017.00,0.96
5016.00,0.96
5015.00,0.96
5014.00,0.96
5013.00,0.96
5012.00,0.97
5011.00,0.97
5010.00,0.97
5009.00,0.98
5008.00,0.98
5007.00,0.98
5006.00,0.99
5005.00,0.99
5004.00,0.99
5003.00,0.99
5002.00,1.00
5001.00,1.00
5000.00,1.00
4999.00,1.00
4998.00,1.01
4997.00,1.01
4996.00,1.01
4995.00,1.01
4994.00,1.02
4993.00,1.02
4992.00,1.02
4991.00,1.02
4990.00,1.03
4989.00,1.03
4988.00,1.03
4987.00,1.04
4986.00,1.04
4985.00,1.04
4984.00,1.05
4983.00,1.05
4982.00,1.05
4981.00,1.06
4980.00,1.06
4979.00,1.06
4978.00,1.06
4977.00,1.07
4976.00,1.07
4975.00,1.07
4974.00,1.07
4973.00,1.07
4972.00,1.08
4971.00,1.08
4970.00,1.08
4969.00,1.08
4968.00,1.08
4967.00,1.08
4966.00,1.09
4965.00,1.09
4964.00,1.09
4963.00,1.10
4962.00,1.10
4961.00,1.10
4960.00,1.11
4959.00,1.11
4958.00,1.11
4957.00,1.12
4956.00,1.12
4955.00,1.12
4954.00,1.13
4953.00,1.13
4952.00,1.13
4951.00,1.14
4950.00,1.14
4949.00,1.14
4948.00,1.14
4947.00,1.14
4946.00,1.14
4945.00,1.15
4944.00,1.15
4943.00,1.14
4942.00,1.14
4941.00,1.14
4940.00,1.14
4939.00,1.14
4938.00,1.14
4937.00,1.15
4936.00,1.15
4935.00,1.15
4934.00,1.15
4933.00,1.15
4932.00,1.16
4931.00,1.16
4930.00,1.16
4929.00,1.16
4928.00,1.16
4927.00,1.17
4926.00,1.17
4925.00,1.17
4924.00,1.17
4923.00,1.18
4922.00,1.18
4921.00,1.18
4920.00,1.18
4919.00,1.18
4918.00,1.18
4917.00,1.18
4916.00,1.18
4915.00,1.19
4914.00,1.19
4913.00,1.19
4912.00,1.19
4911.00,1.20
4910.00,1.20
4909.00,1.20
4908.00,1.21
4907.00,1.21
4906.00,1.21
4905.00,1.22
4904.00,1.22
4903.00,1.22
4902.00,1.23
4901.00,1.23
4900.00,1.23
4899.00,1.23
4898.00,1.23
4897.00,1.23
4896.00,1.23
4895.00,1.23
4894.00,1.23
4893.00,1.23
4892.00,1.23
4891.00,1.23
4890.00,1.22
4889.00,1.22
4888.00,1.22
4887.00,1.22
4886.00,1.21
4885.00,1.21
4884.00,1.21
4883.00,1.20
4882.00,1.20
4881.00,1.20
4880.00,1.20
4879.00,1.20
4878.00,1.20
4877.00,1.20
4876.00,1.21
4875.00,1.21
4874.00,1.21
4873.00,1.22
4872.00,1.22
4871.00,1.23
4870.00,1.23
4869.00,1.24
4868.00,1.24
4867.00,1.24
4866.00,1.25
4865.00,1.25
4864.00,1.25
4863.00,1.26
4862.00,1.26
4861.00,1.26
4860.00,1.26
4859.00,1.26
4858.00,1.26
4857.00,1.26
4856.00,1.26
4855.00,1.26
4854.00,1.25
4853.00,1.25
4852.00,1.25
4851.00,1.25
4850.00,1.25
4849.00,1.25
4848.00,1.25
4847.00,1.25
4846.00,1.25
4845.00,1.25
4844.00,1.25
4843.00,1.25
4842.00,1.25
4841.00,1.24
4840.00,1.24
4839.00,1.24
4838.00,1.24
4837.00,1.24
4836.00,1.24
4835.00,1.24
4834.00,1.24
4833.00,1.24
4832.00,1.24
4831.00,1.24
4830.00,1.24
4829.00,1.24
4828.00,1.25
4827.00,1.25
4826.00,1.25
4825.00,1.25
4824.00,1.26
4823.00,1.26
4822.00,1.26
4821.00,1.26
4820.00,1.26
4819.00,1.27
4818.00,1.27
4817.00,1.27
4816.00,1.28
4815.00,1.28
4814.00,1.28
4813.00,1.28
4812.00,1.29
4811.00,1.29
4810.00,1.29
4809.00,1.29
4808.00,1.30
4807.00,1.30
4806.00,1.30
4805.00,1.31
4804.00,1.31
4803.00,1.31
4802.00,1.31
4801.00,1.32
4800.00,1.32
4799.00,1.32
4798.00,1.32
4797.00,1.33
4796.00,1.33
4795.00,1.33
4794.00,1.34
4793.00,1.34
4792.00,1.34
4791.00,1.35
4790.00,1.35
4789.00,1.36
4788.00,1.36
4787.00,1.37
4786.00,1.37
4785.00,1.37
4784.00,1.38
4783.00,1.38
4782.00,1.38
4781.00,1.38
4780.00,1.38
4779.00,1.38
4778.00,1.38
4777.00,1.38
4776.00,1.38
4775.00,1.38
4774.00,1.38
4773.00,1.38
4772.00,1.38
4771.00,1.38
4770.00,1.38
4769.00,1.38
4768.00,1.38
4767.00,1.38
4766.00,1.38
4765.00,1.38
4764.00,1.38
4763.00,1.38
4762.00,1.38
4761.00,1.38
4760.00,1.39
4759.00,1.39
4758.00,1.39
4757.00,1.39
4756.00,1.40
4755.00,1.40
4754.00,1.41
4753.00,1.41
4752.00,1.42
4751.00,1.42
4750.00,1.43
4749.00,1.44
4748.00,1.44
4747.00,1.45
4746.00,1.46
4745.00,1.47
4744.00,1.47
4743.00,1.48
4742.00,1.49
4741.00,1.49
4740.00,1.50
4739.00,1.50
4738.00,1.51
4737.00,1.51
4736.00,1.51
4735.00,1.51
4734.00,1.51
4733.00,1.51
4732.00,1.51
4731.00,1.51
4730.00,1.51
4729.00,1.51
4728.00,1.51
4727.00,1.51
4726.00,1.51
4725.00,1.51
4724.00,1.51
4723.00,1.51
4722.00,1.51
4721.00,1.51
4720.00,1.52
4719.00,1.52
4718.00,1.52
4717.00,1.53
4716.00,1.53
4715.00,1.53
4714.00,1.54
4713.00,1.54
4712.00,1.55
4711.00,1.55
4710.00,1.55
4709.00,1.56
4708.00,1.56
4707.00,1.56
4706.00,1.56
4705.00,1.56
4704.00,1.56
4703.00,1.56
4702.00,1.56
4701.00,1.56
4700.00,1.56
4699.00,1.56
4698.00,1.56
4697.00,1.55
4696.00,1.55
4695.00,1.55
4694.00,1.55
4693.00,1.55
4692.00,1.55
4691.00,1.55
4690.00,1.55
4689.00,1.55
4688.00,1.55
4687.00,1.55
4686.00,1.55
4685.00,1.55
4684.00,1.56
4683.00,1.56
4682.00,1.56
4681.00,1.56
4680.00,1.57
4679.00,1.57
4678.00,1.57
4677.00,1.58
4676.00,1.58
4675.00,1.58
4674.00,1.59
4673.00,1.59
4672.00,1.60
4671.00,1.60
4670.00,1.60
4669.00,1.60
4668.00,1.60
4667.00,1.60
4666.00,1.60
4665.00,1.60
4664.00,1.60
4663.00,1.60
4662.00,1.60
4661.00,1.60
4660.00,1.60
4659.00,1.60
4658.00,1.60
4657.00,1.60
4656.00,1.60
4655.00,1.60
4654.00,1.60
4653.00,1.60
4652.00,1.60
4651.00,1.61
4650.00,1.61
4649.00,1.61
4648.00,1.62
4647.00,1.62
4646.00,1.62
4645.00,1.63
4644.00,1.63
4643.00,1.64
4642.00,1.64
4641.00,1.64
4640.00,1.65
4639.00,1.65
4638.00,1.65
4637.00,1.65
4636.00,1.66
4635.00,1.66
4634.00,1.66
4633.00,1.66
4632.00,1.66
4631.00,1.66
4630.00,1.67
4629.00,1.67
4628.00,1.67
4627.00,1.67
4626.00,1.67
4625.00,1.67
4624.00,1.67
4623.00,1.67
4622.00,1.68
4621.00,1.68
4620.00,1.68
4619.00,1.68
4618.00,1.68
4617.00,1.68
4616.00,1.68
4615.00,1.68
4614.00,1.68
4613.00,1.69
4612.00,1.69
4611.00,1.69
4610.00,1.69
4609.00,1.69
4608.00,1.69
4607.00,1.69
4606.00,1.69
4605.00,1.69
4604.00,1.69
4603.00,1.69
4602.00,1.69
4601.00,1.69
4600.00,1.69
4599.00,1.69
4598.00,1.69
4597.00,1.69
4596.00,1.69
4595.00,1.69
4594.00,1.69
4593.00,1.69
4592.00,1.68
4591.00,1.68
4590.00,1.68
4589.00,1.68
4588.00,1.68
4587.00,1.68
4586.00,1.68
4585.00,1.68
4584.00,1.68
4583.00,1.69
4582.00,1.69
4581.00,1.69
4580.00,1.69
4579.00,1.69
4578.00,1.70
4577.00,1.70
4576.00,1.70
4575.00,1.70
4574.00,1.70
4573.00,1.70
4572.00,1.70
4571.00,1.71
4570.00,1.71
4569.00,1.71
4568.00,1.71
4567.00,1.71
4566.00,1.71
4565.00,1.71
4564.00,1.71
4563.00,1.71
4562.00,1.71
4561.00,1.71
4560.00,1.71
4559.00,1.71
4558.00,1.71
4557.00,1.71
4556.00,1.71
4555.00,1.71
4554.00,1.71
4553.00,1.71
4552.00,1.71
4551.00,1.71
4550.00,1.71
4549.00,1.71
4548.00,1.70
4547.00,1.70
4546.00,1.70
4545.00,1.70
4544.00,1.70
4543.00,1.70
4542.00,1.70
4541.00,1.70
4540.00,1.70
4539.00,1.70
4538.00,1.71
4537.00,1.71
4536.00,1.71
4535.00,1.71
4534.00,1.71
4533.00,1.71
4532.00,1.72
4531.00,1.72
4530.00,1.72
4529.00,1.73
4528.00,1.73
4527.00,1.74
4526.00,1.74
4525.00,1.74
4524.00,1.74
4523.00,1.74
4522.00,1.75
4521.00,1.75
4520.00,1.75
4519.00,1.75
4518.00,1.75
4517.00,1.75
4516.00,1.75
4515.00,1.75
4514.00,1.75
4513.00,1.75
4512.00,1.74
4511.00,1.74
4510.00,1.74
4509.00,1.74
4508.00,1.74
4507.00,1.74
4506.00,1.74
4505.00,1.74
4504.00,1.74
4503.00,1.74
4502.00,1.74
4501.00,1.74
4500.00,1.74
4499.00,1.74
4498.00,1.74
4497.00,1.74
4496.00,1.74
4495.00,1.74
4494.00,1.74
4493.00,1.75
4492.00,1.75
4491.00,1.75
4490.00,1.75
4489.00,1.75
4488.00,1.75
4487.00,1.75
4486.00,1.75
4485.00,1.75
4484.00,1.75
4483.00,1.75
4482.00,1.75
4481.00,1.75
4480.00,1.75
4479.00,1.74
4478.00,1.74
4477.00,1.74
4476.00,1.74
4475.00,1.74
4474.00,1.74
4473.00,1.73
4472.00,1.73
4471.00,1.73
4470.00,1.73
4469.00,1.72
4468.00,1.72
4467.00,1.71
4466.00,1.71
4465.00,1.70
4464.00,1.70
4463.00,1.69
4462.00,1.68
4461.00,1.68
4460.00,1.67
4459.00,1.67
4458.00,1.66
4457.00,1.65
4456.00,1.64
4455.00,1.64
4454.00,1.63
4453.00,1.62
4452.00,1.61
4451.00,1.61
4450.00,1.60
4449.00,1.60
4448.00,1.59
4447.00,1.58
4446.00,1.58
4445.00,1.57
4444.00,1.56
4443.00,1.56
4442.00,1.55
4441.00,1.54
4440.00,1.54
4439.00,1.53
4438.00,1.52
4437.00,1.51
4436.00,1.51
4435.00,1.50
4434.00,1.49
4433.00,1.48
4432.00,1.47
4431.00,1.45
4430.00,1.44
4429.00,1.43
4428.00,1.42
4427.00,1.41
4426.00,1.40
4425.00,1.39
4424.00,1.38
4423.00,1.37
4422.00,1.36
4421.00,1.35
4420.00,1.34
4419.00,1.33
4418.00,1.32
4417.00,1.32
4416.00,1.32
4415.00,1.31
4414.00,1.31
4413.00,1.31
4412.00,1.31
4411.00,1.32
4410.00,1.32
4409.00,1.32
4408.00,1.33
4407.00,1.33
4406.00,1.34
4405.00,1.35
4404.00,1.35
4403.00,1.36
4402.00,1.37
4401.00,1.37
4400.00,1.38
4399.00,1.39
4398.00,1.39
4397.00,1.40
4396.00,1.40
4395.00,1.41
4394.00,1.41
4393.00,1.41
4392.00,1.42
4391.00,1.42
4390.00,1.42
4389.00,1.43
4388.00,1.43
4387.00,1.43
4386.00,1.44
4385.00,1.44
4384.00,1.45
4383.00,1.45
4382.00,1.45
4381.00,1.46
4380.00,1.46
4379.00,1.46
4378.00,1.47
4377.00,1.47
4376.00,1.48
4375.00,1.48
4374.00,1.48
4373.00,1.48
4372.00,1.48
4371.00,1.48
4370.00,1.48
4369.00,1.48
4368.00,1.48
4367.00,1.47
4366.00,1.47
4365.00,1.47
4364.00,1.46
4363.00,1.46
4362.00,1.46
4361.00,1.45
4360.00,1.45
4359.00,1.44
4358.00,1.44
4357.00,1.43
4356.00,1.42
4355.00,1.42
4354.00,1.41
4353.00,1.41
4352.00,1.40
4351.00,1.40
4350.00,1.39
4349.00,1.39
4348.00,1.38
4347.00,1.38
4346.00,1.37
4345.00,1.37
4344.00,1.37
4343.00,1.37
4342.00,1.37
4341.00,1.37
4340.00,1.37
4339.00,1.37
4338.00,1.37
4337.00,1.37
4336.00,1.38
4335.00,1.38
4334.00,1.38
4333.00,1.39
4332.00,1.39
4331.00,1.40
4330.00,1.41
4329.00,1.41
4328.00,1.42
4327.00,1.43
4326.00,1.43
4325.00,1.44
4324.00,1.45
4323.00,1.45
4322.00,1.46
4321.00,1.46
4320.00,1.47
4319.00,1.48
4318.00,1.48
4317.00,1.48
4316.00,1.49
4315.00,1.49
4314.00,1.49
4313.00,1.50
4312.00,1.50
4311.00,1.50
4310.00,1.51
4309.00,1.51
4308.00,1.52
4307.00,1.53
4306.00,1.53
4305.00,1.54
4304.00,1.55
4303.00,1.56
4302.00,1.56
4301.00,1.57
4300.00,1.58
4299.00,1.59
4298.00,1.60
4297.00,1.61
4296.00,1.62
4295.00,1.63
4294.00,1.64
4293.00,1.65
4292.00,1.65
4291.00,1.66
4290.00,1.66
4289.00,1.67
4288.00,1.67
4287.00,1.67
4286.00,1.67
4285.00,1.68
4284.00,1.68
4283.00,1.68
4282.00,1.68
4281.00,1.68
4280.00,1.68
4279.00,1.68
4278.00,1.68
4277.00,1.68
4276.00,1.68
4275.00,1.68
4274.00,1.68
4273.00,1.68
4272.00,1.68
4271.00,1.68
4270.00,1.67
4269.00,1.67
4268.00,1.66
4267.00,1.66
4266.00,1.65
4265.00,1.65
4264.00,1.64
4263.00,1.64
4262.00,1.63
4261.00,1.62
4260.00,1.62
4259.00,1.61
4258.00,1.61
4257.00,1.60
4256.00,1.60
4255.00,1.59
4254.00,1.59
4253.00,1.59
4252.00,1.59
4251.00,1.59
4250.00,1.59
4249.00,1.60
4248.00,1.60
4247.00,1.60
4246.00,1.61
4245.00,1.61
4244.00,1.61
4243.00,1.62
4242.00,1.62
4241.00,1.63
4240.00,1.63
4239.00,1.64
4238.00,1.64
4237.00,1.65
4236.00,1.65
4235.00,1.65
4234.00,1.65
4233.00,1.65
4232.00,1.66
4231.00,1.66
4230.00,1.66
4229.00,1.66
4228.00,1.67
4227.00,1.67
4226.00,1.67
4225.00,1.67
4224.00,1.67
4223.00,1.67
4222.00,1.68
4221.00,1.68
4220.00,1.68
4219.00,1.68
4218.00,1.69
4217.00,1.69
4216.00,1.69
4215.00,1.69
4214.00,1.69
4213.00,1.70
4212.00,1.70
4211.00,1.70
4210.00,1.70
4209.00,1.71
4208.00,1.71
4207.00,1.71
4206.00,1.71
4205.00,1.71
4204.00,1.71
4203.00,1.71
4202.00,1.71
4201.00,1.72
4200.00,1.72
4199.00,1.72
4198.00,1.72
4197.00,1.72
4196.00,1.72
4195.00,1.72
4194.00,1.72
4193.00,1.72
4192.00,1.72
4191.00,1.72
4190.00,1.72
4189.00,1.72
4188.00,1.72
4187.00,1.73
4186.00,1.73
4185.00,1.73
4184.00,1.73
4183.00,1.73
4182.00,1.73
4181.00,1.73
4180.00,1.72
4179.00,1.72
4178.00,1.72
4177.00,1.72
4176.00,1.72
4175.00,1.72
4174.00,1.71
4173.00,1.71
4172.00,1.71
4171.00,1.71
4170.00,1.70
4169.00,1.70
4168.00,1.69
4167.00,1.69
4166.00,1.68
4165.00,1.68
4164.00,1.67
4163.00,1.67
4162.00,1.66
4161.00,1.66
4160.00,1.65
4159.00,1.64
4158.00,1.64
4157.00,1.63
4156.00,1.63
4155.00,1.62
4154.00,1.62
4153.00,1.61
4152.00,1.61
4151.00,1.61
4150.00,1.61
4149.00,1.61
4148.00,1.61
4147.00,1.61
4146.00,1.61
4145.00,1.61
4144.00,1.60
4143.00,1.60
4142.00,1.60
4141.00,1.60
4140.00,1.60
4139.00,1.59
4138.00,1.58
4137.00,1.58
4136.00,1.57
4135.00,1.56
4134.00,1.55
4133.00,1.55
4132.00,1.54
4131.00,1.53
4130.00,1.53
4129.00,1.52
4128.00,1.52
4127.00,1.52
4126.00,1.53
4125.00,1.53
4124.00,1.54
4123.00,1.55
4122.00,1.56
4121.00,1.57
4120.00,1.58
4119.00,1.59
4118.00,1.60
4117.00,1.61
4116.00,1.62
4115.00,1.63
4114.00,1.64
4113.00,1.65
4112.00,1.65
4111.00,1.65
4110.00,1.66
4109.00,1.65
4108.00,1.65
4107.00,1.64
4106.00,1.64
4105.00,1.63
4104.00,1.62
4103.00,1.62
4102.00,1.61
4101.00,1.60
4100.00,1.60
4099.00,1.60
4098.00,1.59
4097.00,1.59
4096.00,1.59
4095.00,1.58
4094.00,1.58
4093.00,1.58
4092.00,1.58
4091.00,1.58
4090.00,1.59
4089.00,1.59
4088.00,1.59
4087.00,1.59
4086.00,1.59
4085.00,1.59
4084.00,1.59
4083.00,1.59
4082.00,1.59
4081.00,1.58
4080.00,1.58
4079.00,1.58
4078.00,1.57
4077.00,1.57
4076.00,1.57
4075.00,1.57
4074.00,1.57
4073.00,1.57
4072.00,1.57
4071.00,1.57
4070.00,1.57
4069.00,1.57
4068.00,1.57
4067.00,1.57
4066.00,1.57
4065.00,1.58
4064.00,1.58
4063.00,1.58
4062.00,1.58
4061.00,1.58
4060.00,1.58
4059.00,1.58
4058.00,1.58
4057.00,1.58
4056.00,1.58
4055.00,1.58
4054.00,1.58
4053.00,1.58
4052.00,1.58
4051.00,1.58
4050.00,1.59
4049.00,1.59
4048.00,1.60
4047.00,1.60
4046.00,1.61
4045.00,1.62
4044.00,1.62
4043.00,1.63
4042.00,1.64
4041.00,1.64
4040.00,1.65
4039.00,1.66
4038.00,1.66
4037.00,1.67
4036.00,1.67
4035.00,1.68
4034.00,1.68
4033.00,1.68
4032.00,1.68
4031.00,1.68
4030.00,1.68
4029.00,1.67
4028.00,1.67
4027.00,1.67
4026.00,1.67
4025.00,1.67
4024.00,1.67
4023.00,1.67
4022.00,1.67
4021.00,1.67
4020.00,1.67
4019.00,1.66
4018.00,1.66
4017.00,1.66
4016.00,1.66
4015.00,1.66
4014.00,1.67
4013.00,1.67
4012.00,1.68
4011.00,1.68
4010.00,1.69
4009.00,1.70
4008.00,1.71
4007.00,1.72
4006.00,1.74
4005.00,1.75
4004.00,1.77
4003.00,1.79
4002.00,1.81
4001.00,1.83
4000.00,1.85
