创建为新数据集,样品 725 用户 Administrator 日期 星期四, 七月 25 2019
cm-1,%T
10000.00,1.73
9999.00,1.72
9998.00,1.71
9997.00,1.70
9996.00,1.69
9995.00,1.69
9994.00,1.68
9993.00,1.68
9992.00,1.68
9991.00,1.68
9990.00,1.69
9989.00,1.69
9988.00,1.70
9987.00,1.71
9986.00,1.72
9985.00,1.73
9984.00,1.74
9983.00,1.76
9982.00,1.77
9981.00,1.78
9980.00,1.79
9979.00,1.79
9978.00,1.79
9977.00,1.80
9976.00,1.79
9975.00,1.79
9974.00,1.78
9973.00,1.77
9972.00,1.76
9971.00,1.75
9970.00,1.74
9969.00,1.72
9968.00,1.71
9967.00,1.69
9966.00,1.68
9965.00,1.66
9964.00,1.65
9963.00,1.63
9962.00,1.62
9961.00,1.61
9960.00,1.60
9959.00,1.59
9958.00,1.58
9957.00,1.58
9956.00,1.57
9955.00,1.56
9954.00,1.56
9953.00,1.55
9952.00,1.55
9951.00,1.55
9950.00,1.55
9949.00,1.55
9948.00,1.55
9947.00,1.55
9946.00,1.56
9945.00,1.56
9944.00,1.57
9943.00,1.58
9942.00,1.58
9941.00,1.59
9940.00,1.60
9939.00,1.61
9938.00,1.62
9937.00,1.63
9936.00,1.64
9935.00,1.65
9934.00,1.65
9933.00,1.66
9932.00,1.66
9931.00,1.67
9930.00,1.67
9929.00,1.67
9928.00,1.67
9927.00,1.67
9926.00,1.67
9925.00,1.67
9924.00,1.66
9923.00,1.65
9922.00,1.64
9921.00,1.64
9920.00,1.63
9919.00,1.62
9918.00,1.61
9917.00,1.60
9916.00,1.59
9915.00,1.58
9914.00,1.57
9913.00,1.56
9912.00,1.55
9911.00,1.54
9910.00,1.53
9909.00,1.53
9908.00,1.52
9907.00,1.51
9906.00,1.51
9905.00,1.50
9904.00,1.50
9903.00,1.49
9902.00,1.49
9901.00,1.49
9900.00,1.48
9899.00,1.48
9898.00,1.47
9897.00,1.47
9896.00,1.46
9895.00,1.46
9894.00,1.45
9893.00,1.45
9892.00,1.45
9891.00,1.45
9890.00,1.45
9889.00,1.46
9888.00,1.46
9887.00,1.47
9886.00,1.48
9885.00,1.49
9884.00,1.51
9883.00,1.52
9882.00,1.54
9881.00,1.55
9880.00,1.57
9879.00,1.58
9878.00,1.60
9877.00,1.61
9876.00,1.61
9875.00,1.62
9874.00,1.62
9873.00,1.62
9872.00,1.61
9871.00,1.60
9870.00,1.59
9869.00,1.58
9868.00,1.57
9867.00,1.55
9866.00,1.54
9865.00,1.52
9864.00,1.51
9863.00,1.50
9862.00,1.49
9861.00,1.48
9860.00,1.48
9859.00,1.48
9858.00,1.49
9857.00,1.49
9856.00,1.50
9855.00,1.52
9854.00,1.53
9853.00,1.55
9852.00,1.56
9851.00,1.58
9850.00,1.59
9849.00,1.60
9848.00,1.62
9847.00,1.63
9846.00,1.64
9845.00,1.65
9844.00,1.66
9843.00,1.66
9842.00,1.67
9841.00,1.67
9840.00,1.67
9839.00,1.66
9838.00,1.66
9837.00,1.65
9836.00,1.64
9835.00,1.63
9834.00,1.62
9833.00,1.61
9832.00,1.60
9831.00,1.59
9830.00,1.58
9829.00,1.57
9828.00,1.57
9827.00,1.56
9826.00,1.55
9825.00,1.55
9824.00,1.55
9823.00,1.55
9822.00,1.55
9821.00,1.56
9820.00,1.57
9819.00,1.58
9818.00,1.59
9817.00,1.60
9816.00,1.60
9815.00,1.61
9814.00,1.62
9813.00,1.63
9812.00,1.63
9811.00,1.64
9810.00,1.65
9809.00,1.65
9808.00,1.66
9807.00,1.66
9806.00,1.66
9805.00,1.67
9804.00,1.67
9803.00,1.67
9802.00,1.67
9801.00,1.67
9800.00,1.67
9799.00,1.66
9798.00,1.66
9797.00,1.65
9796.00,1.65
9795.00,1.64
9794.00,1.63
9793.00,1.62
9792.00,1.61
9791.00,1.60
9790.00,1.59
9789.00,1.58
9788.00,1.57
9787.00,1.57
9786.00,1.56
9785.00,1.55
9784.00,1.55
9783.00,1.55
9782.00,1.55
9781.00,1.56
9780.00,1.56
9779.00,1.57
9778.00,1.58
9777.00,1.60
9776.00,1.61
9775.00,1.62
9774.00,1.63
9773.00,1.64
9772.00,1.65
9771.00,1.66
9770.00,1.66
9769.00,1.67
9768.00,1.67
9767.00,1.67
9766.00,1.67
9765.00,1.67
9764.00,1.66
9763.00,1.65
9762.00,1.65
9761.00,1.63
9760.00,1.62
9759.00,1.61
9758.00,1.60
9757.00,1.59
9756.00,1.57
9755.00,1.56
9754.00,1.55
9753.00,1.55
9752.00,1.54
9751.00,1.53
9750.00,1.53
9749.00,1.53
9748.00,1.53
9747.00,1.53
9746.00,1.53
9745.00,1.53
9744.00,1.54
9743.00,1.54
9742.00,1.55
9741.00,1.55
9740.00,1.55
9739.00,1.55
9738.00,1.54
9737.00,1.54
9736.00,1.53
9735.00,1.53
9734.00,1.52
9733.00,1.50
9732.00,1.49
9731.00,1.48
9730.00,1.47
9729.00,1.45
9728.00,1.44
9727.00,1.43
9726.00,1.42
9725.00,1.41
9724.00,1.40
9723.00,1.40
9722.00,1.39
9721.00,1.39
9720.00,1.39
9719.00,1.39
9718.00,1.40
9717.00,1.40
9716.00,1.41
9715.00,1.41
9714.00,1.42
9713.00,1.42
9712.00,1.43
9711.00,1.44
9710.00,1.44
9709.00,1.45
9708.00,1.45
9707.00,1.46
9706.00,1.47
9705.00,1.47
9704.00,1.48
9703.00,1.49
9702.00,1.49
9701.00,1.50
9700.00,1.51
9699.00,1.51
9698.00,1.52
9697.00,1.52
9696.00,1.53
9695.00,1.53
9694.00,1.54
9693.00,1.55
9692.00,1.56
9691.00,1.57
9690.00,1.57
9689.00,1.58
9688.00,1.59
9687.00,1.60
9686.00,1.61
9685.00,1.62
9684.00,1.63
9683.00,1.64
9682.00,1.65
9681.00,1.65
9680.00,1.66
9679.00,1.67
9678.00,1.68
9677.00,1.68
9676.00,1.68
9675.00,1.69
9674.00,1.69
9673.00,1.68
9672.00,1.68
9671.00,1.67
9670.00,1.67
9669.00,1.66
9668.00,1.65
9667.00,1.64
9666.00,1.63
9665.00,1.62
9664.00,1.61
9663.00,1.59
9662.00,1.58
9661.00,1.57
9660.00,1.56
9659.00,1.56
9658.00,1.55
9657.00,1.54
9656.00,1.54
9655.00,1.54
9654.00,1.54
9653.00,1.54
9652.00,1.54
9651.00,1.54
9650.00,1.55
9649.00,1.56
9648.00,1.57
9647.00,1.58
9646.00,1.59
9645.00,1.60
9644.00,1.60
9643.00,1.61
9642.00,1.62
9641.00,1.63
9640.00,1.64
9639.00,1.65
9638.00,1.65
9637.00,1.66
9636.00,1.67
9635.00,1.67
9634.00,1.67
9633.00,1.67
9632.00,1.68
9631.00,1.68
9630.00,1.67
9629.00,1.67
9628.00,1.67
9627.00,1.67
9626.00,1.66
9625.00,1.66
9624.00,1.66
9623.00,1.65
9622.00,1.65
9621.00,1.64
9620.00,1.63
9619.00,1.63
9618.00,1.62
9617.00,1.61
9616.00,1.61
9615.00,1.60
9614.00,1.59
9613.00,1.58
9612.00,1.57
9611.00,1.56
9610.00,1.56
9609.00,1.55
9608.00,1.54
9607.00,1.53
9606.00,1.52
9605.00,1.52
9604.00,1.51
9603.00,1.51
9602.00,1.50
9601.00,1.50
9600.00,1.49
9599.00,1.49
9598.00,1.49
9597.00,1.49
9596.00,1.50
9595.00,1.50
9594.00,1.51
9593.00,1.52
9592.00,1.53
9591.00,1.54
9590.00,1.55
9589.00,1.56
9588.00,1.57
9587.00,1.58
9586.00,1.59
9585.00,1.60
9584.00,1.61
9583.00,1.61
9582.00,1.62
9581.00,1.62
9580.00,1.63
9579.00,1.63
9578.00,1.62
9577.00,1.62
9576.00,1.62
9575.00,1.61
9574.00,1.60
9573.00,1.60
9572.00,1.59
9571.00,1.58
9570.00,1.58
9569.00,1.57
9568.00,1.57
9567.00,1.57
9566.00,1.56
9565.00,1.56
9564.00,1.56
9563.00,1.55
9562.00,1.55
9561.00,1.55
9560.00,1.54
9559.00,1.54
9558.00,1.53
9557.00,1.53
9556.00,1.53
9555.00,1.52
9554.00,1.51
9553.00,1.51
9552.00,1.50
9551.00,1.50
9550.00,1.49
9549.00,1.49
9548.00,1.49
9547.00,1.49
9546.00,1.49
9545.00,1.49
9544.00,1.49
9543.00,1.49
9542.00,1.49
9541.00,1.50
9540.00,1.50
9539.00,1.51
9538.00,1.51
9537.00,1.52
9536.00,1.53
9535.00,1.53
9534.00,1.54
9533.00,1.54
9532.00,1.54
9531.00,1.54
9530.00,1.54
9529.00,1.55
9528.00,1.55
9527.00,1.55
9526.00,1.55
9525.00,1.55
9524.00,1.54
9523.00,1.54
9522.00,1.54
9521.00,1.54
9520.00,1.53
9519.00,1.53
9518.00,1.52
9517.00,1.52
9516.00,1.52
9515.00,1.51
9514.00,1.51
9513.00,1.51
9512.00,1.51
9511.00,1.51
9510.00,1.51
9509.00,1.50
9508.00,1.50
9507.00,1.50
9506.00,1.50
9505.00,1.51
9504.00,1.51
9503.00,1.51
9502.00,1.51
9501.00,1.51
9500.00,1.51
9499.00,1.51
9498.00,1.51
9497.00,1.51
9496.00,1.51
9495.00,1.51
9494.00,1.50
9493.00,1.50
9492.00,1.50
9491.00,1.50
9490.00,1.49
9489.00,1.49
9488.00,1.49
9487.00,1.49
9486.00,1.49
9485.00,1.49
9484.00,1.49
9483.00,1.50
9482.00,1.50
9481.00,1.51
9480.00,1.52
9479.00,1.53
9478.00,1.53
9477.00,1.54
9476.00,1.55
9475.00,1.56
9474.00,1.57
9473.00,1.58
9472.00,1.59
9471.00,1.59
9470.00,1.60
9469.00,1.60
9468.00,1.61
9467.00,1.61
9466.00,1.61
9465.00,1.61
9464.00,1.61
9463.00,1.61
9462.00,1.60
9461.00,1.60
9460.00,1.60
9459.00,1.60
9458.00,1.59
9457.00,1.59
9456.00,1.59
9455.00,1.59
9454.00,1.59
9453.00,1.58
9452.00,1.58
9451.00,1.58
9450.00,1.58
9449.00,1.57
9448.00,1.57
9447.00,1.57
9446.00,1.56
9445.00,1.56
9444.00,1.56
9443.00,1.55
9442.00,1.55
9441.00,1.55
9440.00,1.55
9439.00,1.54
9438.00,1.54
9437.00,1.54
9436.00,1.55
9435.00,1.55
9434.00,1.56
9433.00,1.56
9432.00,1.57
9431.00,1.58
9430.00,1.59
9429.00,1.60
9428.00,1.61
9427.00,1.62
9426.00,1.63
9425.00,1.64
9424.00,1.64
9423.00,1.65
9422.00,1.66
9421.00,1.66
9420.00,1.66
9419.00,1.66
9418.00,1.66
9417.00,1.66
9416.00,1.66
9415.00,1.66
9414.00,1.65
9413.00,1.65
9412.00,1.64
9411.00,1.64
9410.00,1.64
9409.00,1.63
9408.00,1.63
9407.00,1.63
9406.00,1.63
9405.00,1.63
9404.00,1.63
9403.00,1.63
9402.00,1.63
9401.00,1.63
9400.00,1.64
9399.00,1.64
9398.00,1.64
9397.00,1.64
9396.00,1.64
9395.00,1.64
9394.00,1.64
9393.00,1.64
9392.00,1.64
9391.00,1.64
9390.00,1.64
9389.00,1.64
9388.00,1.64
9387.00,1.64
9386.00,1.64
9385.00,1.64
9384.00,1.63
9383.00,1.63
9382.00,1.63
9381.00,1.63
9380.00,1.62
9379.00,1.62
9378.00,1.62
9377.00,1.61
9376.00,1.61
9375.00,1.60
9374.00,1.60
9373.00,1.59
9372.00,1.58
9371.00,1.57
9370.00,1.56
9369.00,1.56
9368.00,1.55
9367.00,1.54
9366.00,1.53
9365.00,1.53
9364.00,1.52
9363.00,1.52
9362.00,1.52
9361.00,1.52
9360.00,1.51
9359.00,1.51
9358.00,1.51
9357.00,1.51
9356.00,1.51
9355.00,1.51
9354.00,1.50
9353.00,1.50
9352.00,1.50
9351.00,1.50
9350.00,1.49
9349.00,1.49
9348.00,1.49
9347.00,1.48
9346.00,1.48
9345.00,1.48
9344.00,1.47
9343.00,1.47
9342.00,1.47
9341.00,1.47
9340.00,1.48
9339.00,1.48
9338.00,1.49
9337.00,1.50
9336.00,1.50
9335.00,1.51
9334.00,1.52
9333.00,1.53
9332.00,1.53
9331.00,1.54
9330.00,1.54
9329.00,1.54
9328.00,1.54
9327.00,1.54
9326.00,1.54
9325.00,1.53
9324.00,1.53
9323.00,1.52
9322.00,1.51
9321.00,1.50
9320.00,1.48
9319.00,1.47
9318.00,1.46
9317.00,1.45
9316.00,1.44
9315.00,1.43
9314.00,1.43
9313.00,1.42
9312.00,1.42
9311.00,1.43
9310.00,1.43
9309.00,1.44
9308.00,1.45
9307.00,1.46
9306.00,1.47
9305.00,1.49
9304.00,1.50
9303.00,1.52
9302.00,1.53
9301.00,1.55
9300.00,1.56
9299.00,1.57
9298.00,1.58
9297.00,1.59
9296.00,1.60
9295.00,1.60
9294.00,1.60
9293.00,1.60
9292.00,1.60
9291.00,1.59
9290.00,1.59
9289.00,1.58
9288.00,1.57
9287.00,1.56
9286.00,1.56
9285.00,1.55
9284.00,1.54
9283.00,1.53
9282.00,1.52
9281.00,1.52
9280.00,1.51
9279.00,1.50
9278.00,1.49
9277.00,1.48
9276.00,1.48
9275.00,1.47
9274.00,1.46
9273.00,1.46
9272.00,1.45
9271.00,1.45
9270.00,1.44
9269.00,1.44
9268.00,1.43
9267.00,1.43
9266.00,1.43
9265.00,1.42
9264.00,1.43
9263.00,1.43
9262.00,1.44
9261.00,1.44
9260.00,1.45
9259.00,1.46
9258.00,1.47
9257.00,1.48
9256.00,1.49
9255.00,1.50
9254.00,1.51
9253.00,1.53
9252.00,1.54
9251.00,1.54
9250.00,1.55
9249.00,1.56
9248.00,1.56
9247.00,1.57
9246.00,1.57
9245.00,1.57
9244.00,1.56
9243.00,1.56
9242.00,1.56
9241.00,1.56
9240.00,1.55
9239.00,1.55
9238.00,1.55
9237.00,1.54
9236.00,1.54
9235.00,1.54
9234.00,1.54
9233.00,1.54
9232.00,1.54
9231.00,1.54
9230.00,1.54
9229.00,1.54
9228.00,1.54
9227.00,1.54
9226.00,1.54
9225.00,1.54
9224.00,1.53
9223.00,1.53
9222.00,1.52
9221.00,1.52
9220.00,1.51
9219.00,1.50
9218.00,1.49
9217.00,1.49
9216.00,1.48
9215.00,1.47
9214.00,1.47
9213.00,1.46
9212.00,1.46
9211.00,1.46
9210.00,1.46
9209.00,1.46
9208.00,1.46
9207.00,1.47
9206.00,1.48
9205.00,1.49
9204.00,1.50
9203.00,1.51
9202.00,1.52
9201.00,1.53
9200.00,1.54
9199.00,1.55
9198.00,1.56
9197.00,1.57
9196.00,1.58
9195.00,1.58
9194.00,1.59
9193.00,1.60
9192.00,1.60
9191.00,1.61
9190.00,1.61
9189.00,1.61
9188.00,1.61
9187.00,1.62
9186.00,1.62
9185.00,1.61
9184.00,1.61
9183.00,1.61
9182.00,1.61
9181.00,1.60
9180.00,1.60
9179.00,1.59
9178.00,1.58
9177.00,1.57
9176.00,1.56
9175.00,1.54
9174.00,1.53
9173.00,1.51
9172.00,1.49
9171.00,1.47
9170.00,1.45
9169.00,1.44
9168.00,1.42
9167.00,1.40
9166.00,1.39
9165.00,1.37
9164.00,1.36
9163.00,1.35
9162.00,1.34
9161.00,1.34
9160.00,1.34
9159.00,1.34
9158.00,1.34
9157.00,1.35
9156.00,1.36
9155.00,1.37
9154.00,1.38
9153.00,1.39
9152.00,1.41
9151.00,1.42
9150.00,1.44
9149.00,1.46
9148.00,1.47
9147.00,1.49
9146.00,1.51
9145.00,1.53
9144.00,1.54
9143.00,1.56
9142.00,1.57
9141.00,1.58
9140.00,1.59
9139.00,1.60
9138.00,1.61
9137.00,1.61
9136.00,1.62
9135.00,1.62
9134.00,1.62
9133.00,1.62
9132.00,1.63
9131.00,1.63
9130.00,1.63
9129.00,1.63
9128.00,1.63
9127.00,1.63
9126.00,1.63
9125.00,1.63
9124.00,1.63
9123.00,1.63
9122.00,1.64
9121.00,1.64
9120.00,1.64
9119.00,1.63
9118.00,1.63
9117.00,1.63
9116.00,1.63
9115.00,1.62
9114.00,1.62
9113.00,1.61
9112.00,1.61
9111.00,1.60
9110.00,1.59
9109.00,1.58
9108.00,1.57
9107.00,1.56
9106.00,1.54
9105.00,1.53
9104.00,1.52
9103.00,1.51
9102.00,1.50
9101.00,1.49
9100.00,1.47
9099.00,1.46
9098.00,1.46
9097.00,1.45
9096.00,1.44
9095.00,1.44
9094.00,1.43
9093.00,1.43
9092.00,1.44
9091.00,1.44
9090.00,1.45
9089.00,1.46
9088.00,1.46
9087.00,1.47
9086.00,1.48
9085.00,1.50
9084.00,1.51
9083.00,1.52
9082.00,1.53
9081.00,1.54
9080.00,1.54
9079.00,1.55
9078.00,1.56
9077.00,1.56
9076.00,1.56
9075.00,1.56
9074.00,1.56
9073.00,1.56
9072.00,1.56
9071.00,1.56
9070.00,1.55
9069.00,1.55
9068.00,1.55
9067.00,1.55
9066.00,1.55
9065.00,1.56
9064.00,1.56
9063.00,1.57
9062.00,1.57
9061.00,1.58
9060.00,1.59
9059.00,1.60
9058.00,1.61
9057.00,1.62
9056.00,1.63
9055.00,1.64
9054.00,1.64
9053.00,1.65
9052.00,1.66
9051.00,1.66
9050.00,1.67
9049.00,1.67
9048.00,1.67
9047.00,1.67
9046.00,1.67
9045.00,1.67
9044.00,1.66
9043.00,1.65
9042.00,1.65
9041.00,1.64
9040.00,1.63
9039.00,1.62
9038.00,1.61
9037.00,1.60
9036.00,1.59
9035.00,1.58
9034.00,1.57
9033.00,1.57
9032.00,1.56
9031.00,1.56
9030.00,1.56
9029.00,1.56
9028.00,1.56
9027.00,1.56
9026.00,1.57
9025.00,1.58
9024.00,1.58
9023.00,1.59
9022.00,1.60
9021.00,1.60
9020.00,1.61
9019.00,1.62
9018.00,1.62
9017.00,1.62
9016.00,1.62
9015.00,1.62
9014.00,1.62
9013.00,1.62
9012.00,1.62
9011.00,1.61
9010.00,1.61
9009.00,1.61
9008.00,1.60
9007.00,1.60
9006.00,1.60
9005.00,1.59
9004.00,1.59
9003.00,1.59
9002.00,1.59
9001.00,1.58
9000.00,1.58
8999.00,1.58
8998.00,1.58
8997.00,1.59
8996.00,1.59
8995.00,1.59
8994.00,1.59
8993.00,1.59
8992.00,1.60
8991.00,1.60
8990.00,1.61
8989.00,1.61
8988.00,1.62
8987.00,1.62
8986.00,1.63
8985.00,1.64
8984.00,1.65
8983.00,1.65
8982.00,1.66
8981.00,1.66
8980.00,1.67
8979.00,1.67
8978.00,1.67
8977.00,1.67
8976.00,1.67
8975.00,1.66
8974.00,1.66
8973.00,1.65
8972.00,1.64
8971.00,1.63
8970.00,1.62
8969.00,1.61
8968.00,1.59
8967.00,1.58
8966.00,1.57
8965.00,1.56
8964.00,1.55
8963.00,1.55
8962.00,1.54
8961.00,1.54
8960.00,1.53
8959.00,1.53
8958.00,1.53
8957.00,1.52
8956.00,1.52
8955.00,1.52
8954.00,1.51
8953.00,1.51
8952.00,1.51
8951.00,1.51
8950.00,1.50
8949.00,1.50
8948.00,1.50
8947.00,1.49
8946.00,1.49
8945.00,1.48
8944.00,1.47
8943.00,1.47
8942.00,1.47
8941.00,1.46
8940.00,1.46
8939.00,1.46
8938.00,1.46
8937.00,1.46
8936.00,1.46
8935.00,1.47
8934.00,1.47
8933.00,1.47
8932.00,1.48
8931.00,1.48
8930.00,1.48
8929.00,1.49
8928.00,1.49
8927.00,1.49
8926.00,1.50
8925.00,1.50
8924.00,1.50
8923.00,1.50
8922.00,1.50
8921.00,1.49
8920.00,1.49
8919.00,1.49
8918.00,1.48
8917.00,1.48
8916.00,1.47
8915.00,1.47
8914.00,1.47
8913.00,1.46
8912.00,1.46
8911.00,1.46
8910.00,1.46
8909.00,1.46
8908.00,1.47
8907.00,1.47
8906.00,1.47
8905.00,1.48
8904.00,1.49
8903.00,1.49
8902.00,1.50
8901.00,1.50
8900.00,1.51
8899.00,1.51
8898.00,1.52
8897.00,1.52
8896.00,1.52
8895.00,1.52
8894.00,1.52
8893.00,1.53
8892.00,1.53
8891.00,1.53
8890.00,1.53
8889.00,1.53
8888.00,1.53
8887.00,1.53
8886.00,1.53
8885.00,1.54
8884.00,1.54
8883.00,1.54
8882.00,1.55
8881.00,1.55
8880.00,1.56
8879.00,1.56
8878.00,1.56
8877.00,1.57
8876.00,1.57
8875.00,1.57
8874.00,1.58
8873.00,1.58
8872.00,1.58
8871.00,1.58
8870.00,1.58
8869.00,1.58
8868.00,1.58
8867.00,1.58
8866.00,1.58
8865.00,1.58
8864.00,1.58
8863.00,1.58
8862.00,1.58
8861.00,1.58
8860.00,1.58
8859.00,1.58
8858.00,1.58
8857.00,1.58
8856.00,1.58
8855.00,1.58
8854.00,1.57
8853.00,1.57
8852.00,1.57
8851.00,1.57
8850.00,1.57
8849.00,1.57
8848.00,1.58
8847.00,1.58
8846.00,1.58
8845.00,1.58
8844.00,1.58
8843.00,1.58
8842.00,1.58
8841.00,1.57
8840.00,1.57
8839.00,1.57
8838.00,1.57
8837.00,1.57
8836.00,1.57
8835.00,1.56
8834.00,1.56
8833.00,1.56
8832.00,1.55
8831.00,1.55
8830.00,1.54
8829.00,1.54
8828.00,1.53
8827.00,1.53
8826.00,1.52
8825.00,1.51
8824.00,1.51
8823.00,1.50
8822.00,1.50
8821.00,1.49
8820.00,1.49
8819.00,1.48
8818.00,1.48
8817.00,1.48
8816.00,1.48
8815.00,1.48
8814.00,1.48
8813.00,1.48
8812.00,1.48
8811.00,1.48
8810.00,1.48
8809.00,1.48
8808.00,1.49
8807.00,1.49
8806.00,1.49
8805.00,1.50
8804.00,1.50
8803.00,1.50
8802.00,1.50
8801.00,1.50
8800.00,1.50
8799.00,1.51
8798.00,1.51
8797.00,1.51
8796.00,1.51
8795.00,1.51
8794.00,1.51
8793.00,1.51
8792.00,1.51
8791.00,1.51
8790.00,1.51
8789.00,1.51
8788.00,1.51
8787.00,1.51
8786.00,1.51
8785.00,1.51
8784.00,1.51
8783.00,1.51
8782.00,1.51
8781.00,1.51
8780.00,1.52
8779.00,1.52
8778.00,1.52
8777.00,1.52
8776.00,1.52
8775.00,1.53
8774.00,1.53
8773.00,1.53
8772.00,1.53
8771.00,1.54
8770.00,1.54
8769.00,1.54
8768.00,1.54
8767.00,1.54
8766.00,1.54
8765.00,1.54
8764.00,1.54
8763.00,1.54
8762.00,1.54
8761.00,1.54
8760.00,1.54
8759.00,1.53
8758.00,1.53
8757.00,1.52
8756.00,1.52
8755.00,1.52
8754.00,1.51
8753.00,1.51
8752.00,1.50
8751.00,1.50
8750.00,1.50
8749.00,1.50
8748.00,1.50
8747.00,1.50
8746.00,1.50
8745.00,1.50
8744.00,1.50
8743.00,1.51
8742.00,1.51
8741.00,1.51
8740.00,1.52
8739.00,1.52
8738.00,1.53
8737.00,1.54
8736.00,1.54
8735.00,1.55
8734.00,1.56
8733.00,1.56
8732.00,1.56
8731.00,1.57
8730.00,1.57
8729.00,1.57
8728.00,1.57
8727.00,1.57
8726.00,1.57
8725.00,1.57
8724.00,1.57
8723.00,1.57
8722.00,1.57
8721.00,1.57
8720.00,1.57
8719.00,1.57
8718.00,1.56
8717.00,1.56
8716.00,1.56
8715.00,1.56
8714.00,1.56
8713.00,1.56
8712.00,1.56
8711.00,1.56
8710.00,1.56
8709.00,1.56
8708.00,1.56
8707.00,1.56
8706.00,1.57
8705.00,1.57
8704.00,1.58
8703.00,1.58
8702.00,1.59
8701.00,1.60
8700.00,1.61
8699.00,1.61
8698.00,1.62
8697.00,1.63
8696.00,1.64
8695.00,1.64
8694.00,1.65
8693.00,1.65
8692.00,1.65
8691.00,1.65
8690.00,1.65
8689.00,1.65
8688.00,1.64
8687.00,1.64
8686.00,1.63
8685.00,1.62
8684.00,1.61
8683.00,1.60
8682.00,1.59
8681.00,1.57
8680.00,1.56
8679.00,1.56
8678.00,1.55
8677.00,1.54
8676.00,1.53
8675.00,1.53
8674.00,1.53
8673.00,1.52
8672.00,1.52
8671.00,1.52
8670.00,1.52
8669.00,1.52
8668.00,1.52
8667.00,1.52
8666.00,1.52
8665.00,1.53
8664.00,1.53
8663.00,1.53
8662.00,1.52
8661.00,1.52
8660.00,1.52
8659.00,1.52
8658.00,1.51
8657.00,1.51
8656.00,1.51
8655.00,1.51
8654.00,1.50
8653.00,1.50
8652.00,1.50
8651.00,1.50
8650.00,1.50
8649.00,1.50
8648.00,1.50
8647.00,1.50
8646.00,1.50
8645.00,1.51
8644.00,1.51
8643.00,1.51
8642.00,1.51
8641.00,1.51
8640.00,1.51
8639.00,1.51
8638.00,1.52
8637.00,1.52
8636.00,1.52
8635.00,1.51
8634.00,1.51
8633.00,1.51
8632.00,1.51
8631.00,1.51
8630.00,1.52
8629.00,1.52
8628.00,1.52
8627.00,1.52
8626.00,1.53
8625.00,1.53
8624.00,1.54
8623.00,1.54
8622.00,1.55
8621.00,1.55
8620.00,1.56
8619.00,1.57
8618.00,1.57
8617.00,1.58
8616.00,1.58
8615.00,1.59
8614.00,1.59
8613.00,1.59
8612.00,1.59
8611.00,1.59
8610.00,1.59
8609.00,1.59
8608.00,1.59
8607.00,1.59
8606.00,1.59
8605.00,1.59
8604.00,1.59
8603.00,1.59
8602.00,1.59
8601.00,1.59
8600.00,1.59
8599.00,1.59
8598.00,1.59
8597.00,1.59
8596.00,1.59
8595.00,1.59
8594.00,1.59
8593.00,1.59
8592.00,1.59
8591.00,1.59
8590.00,1.59
8589.00,1.59
8588.00,1.59
8587.00,1.58
8586.00,1.58
8585.00,1.58
8584.00,1.57
8583.00,1.57
8582.00,1.56
8581.00,1.56
8580.00,1.56
8579.00,1.56
8578.00,1.56
8577.00,1.56
8576.00,1.56
8575.00,1.56
8574.00,1.57
8573.00,1.57
8572.00,1.57
8571.00,1.57
8570.00,1.58
8569.00,1.58
8568.00,1.58
8567.00,1.58
8566.00,1.59
8565.00,1.59
8564.00,1.59
8563.00,1.58
8562.00,1.58
8561.00,1.58
8560.00,1.57
8559.00,1.57
8558.00,1.57
8557.00,1.56
8556.00,1.56
8555.00,1.55
8554.00,1.55
8553.00,1.55
8552.00,1.54
8551.00,1.54
8550.00,1.54
8549.00,1.54
8548.00,1.54
8547.00,1.55
8546.00,1.55
8545.00,1.55
8544.00,1.55
8543.00,1.55
8542.00,1.55
8541.00,1.56
8540.00,1.56
8539.00,1.56
8538.00,1.56
8537.00,1.56
8536.00,1.57
8535.00,1.57
8534.00,1.57
8533.00,1.57
8532.00,1.57
8531.00,1.58
8530.00,1.58
8529.00,1.58
8528.00,1.59
8527.00,1.59
8526.00,1.60
8525.00,1.60
8524.00,1.61
8523.00,1.61
8522.00,1.62
8521.00,1.62
8520.00,1.62
8519.00,1.62
8518.00,1.63
8517.00,1.63
8516.00,1.63
8515.00,1.62
8514.00,1.62
8513.00,1.62
8512.00,1.61
8511.00,1.61
8510.00,1.60
8509.00,1.60
8508.00,1.59
8507.00,1.58
8506.00,1.57
8505.00,1.57
8504.00,1.56
8503.00,1.55
8502.00,1.54
8501.00,1.54
8500.00,1.53
8499.00,1.52
8498.00,1.52
8497.00,1.51
8496.00,1.51
8495.00,1.51
8494.00,1.51
8493.00,1.51
8492.00,1.51
8491.00,1.51
8490.00,1.51
8489.00,1.51
8488.00,1.52
8487.00,1.52
8486.00,1.52
8485.00,1.52
8484.00,1.53
8483.00,1.53
8482.00,1.53
8481.00,1.54
8480.00,1.54
8479.00,1.54
8478.00,1.53
8477.00,1.53
8476.00,1.53
8475.00,1.52
8474.00,1.52
8473.00,1.52
8472.00,1.51
8471.00,1.51
8470.00,1.51
8469.00,1.51
8468.00,1.50
8467.00,1.50
8466.00,1.50
8465.00,1.50
8464.00,1.50
8463.00,1.50
8462.00,1.51
8461.00,1.51
8460.00,1.51
8459.00,1.52
8458.00,1.52
8457.00,1.52
8456.00,1.53
8455.00,1.53
8454.00,1.53
8453.00,1.54
8452.00,1.54
8451.00,1.54
8450.00,1.54
8449.00,1.55
8448.00,1.55
8447.00,1.55
8446.00,1.56
8445.00,1.56
8444.00,1.56
8443.00,1.56
8442.00,1.57
8441.00,1.57
8440.00,1.57
8439.00,1.57
8438.00,1.57
8437.00,1.57
8436.00,1.57
8435.00,1.57
8434.00,1.57
8433.00,1.56
8432.00,1.56
8431.00,1.56
8430.00,1.55
8429.00,1.55
8428.00,1.54
8427.00,1.53
8426.00,1.53
8425.00,1.52
8424.00,1.51
8423.00,1.51
8422.00,1.50
8421.00,1.49
8420.00,1.49
8419.00,1.48
8418.00,1.48
8417.00,1.47
8416.00,1.47
8415.00,1.47
8414.00,1.46
8413.00,1.46
8412.00,1.46
8411.00,1.46
8410.00,1.46
8409.00,1.46
8408.00,1.46
8407.00,1.46
8406.00,1.47
8405.00,1.47
8404.00,1.48
8403.00,1.48
8402.00,1.49
8401.00,1.49
8400.00,1.50
8399.00,1.50
8398.00,1.51
8397.00,1.52
8396.00,1.52
8395.00,1.53
8394.00,1.54
8393.00,1.54
8392.00,1.55
8391.00,1.55
8390.00,1.56
8389.00,1.56
8388.00,1.56
8387.00,1.56
8386.00,1.57
8385.00,1.57
8384.00,1.57
8383.00,1.57
8382.00,1.57
8381.00,1.57
8380.00,1.56
8379.00,1.56
8378.00,1.56
8377.00,1.56
8376.00,1.56
8375.00,1.55
8374.00,1.55
8373.00,1.54
8372.00,1.54
8371.00,1.54
8370.00,1.53
8369.00,1.53
8368.00,1.53
8367.00,1.53
8366.00,1.53
8365.00,1.53
8364.00,1.53
8363.00,1.53
8362.00,1.53
8361.00,1.53
8360.00,1.53
8359.00,1.53
8358.00,1.53
8357.00,1.53
8356.00,1.53
8355.00,1.54
8354.00,1.54
8353.00,1.54
8352.00,1.54
8351.00,1.55
8350.00,1.55
8349.00,1.55
8348.00,1.55
8347.00,1.56
8346.00,1.56
8345.00,1.56
8344.00,1.57
8343.00,1.57
8342.00,1.57
8341.00,1.58
8340.00,1.58
8339.00,1.58
8338.00,1.59
8337.00,1.59
8336.00,1.59
8335.00,1.59
8334.00,1.59
8333.00,1.59
8332.00,1.60
8331.00,1.60
8330.00,1.60
8329.00,1.60
8328.00,1.60
8327.00,1.60
8326.00,1.60
8325.00,1.60
8324.00,1.60
8323.00,1.60
8322.00,1.60
8321.00,1.60
8320.00,1.60
8319.00,1.60
8318.00,1.60
8317.00,1.59
8316.00,1.59
8315.00,1.59
8314.00,1.59
8313.00,1.58
8312.00,1.58
8311.00,1.57
8310.00,1.57
8309.00,1.56
8308.00,1.56
8307.00,1.55
8306.00,1.55
8305.00,1.55
8304.00,1.54
8303.00,1.54
8302.00,1.53
8301.00,1.53
8300.00,1.53
8299.00,1.52
8298.00,1.52
8297.00,1.52
8296.00,1.52
8295.00,1.52
8294.00,1.52
8293.00,1.52
8292.00,1.53
8291.00,1.53
8290.00,1.54
8289.00,1.55
8288.00,1.55
8287.00,1.56
8286.00,1.57
8285.00,1.58
8284.00,1.59
8283.00,1.60
8282.00,1.61
8281.00,1.62
8280.00,1.62
8279.00,1.63
8278.00,1.63
8277.00,1.63
8276.00,1.64
8275.00,1.63
8274.00,1.63
8273.00,1.63
8272.00,1.62
8271.00,1.62
8270.00,1.61
8269.00,1.60
8268.00,1.59
8267.00,1.59
8266.00,1.58
8265.00,1.57
8264.00,1.56
8263.00,1.56
8262.00,1.55
8261.00,1.54
8260.00,1.54
8259.00,1.54
8258.00,1.53
8257.00,1.53
8256.00,1.53
8255.00,1.53
8254.00,1.54
8253.00,1.54
8252.00,1.54
8251.00,1.54
8250.00,1.54
8249.00,1.54
8248.00,1.55
8247.00,1.55
8246.00,1.55
8245.00,1.56
8244.00,1.56
8243.00,1.56
8242.00,1.57
8241.00,1.57
8240.00,1.57
8239.00,1.57
8238.00,1.57
8237.00,1.57
8236.00,1.57
8235.00,1.57
8234.00,1.57
8233.00,1.57
8232.00,1.56
8231.00,1.56
8230.00,1.56
8229.00,1.55
8228.00,1.55
8227.00,1.54
8226.00,1.54
8225.00,1.53
8224.00,1.52
8223.00,1.52
8222.00,1.51
8221.00,1.51
8220.00,1.51
8219.00,1.51
8218.00,1.50
8217.00,1.50
8216.00,1.50
8215.00,1.50
8214.00,1.50
8213.00,1.51
8212.00,1.51
8211.00,1.51
8210.00,1.51
8209.00,1.52
8208.00,1.52
8207.00,1.53
8206.00,1.54
8205.00,1.54
8204.00,1.55
8203.00,1.56
8202.00,1.57
8201.00,1.57
8200.00,1.58
8199.00,1.59
8198.00,1.60
8197.00,1.60
8196.00,1.61
8195.00,1.62
8194.00,1.62
8193.00,1.63
8192.00,1.63
8191.00,1.64
8190.00,1.65
8189.00,1.65
8188.00,1.65
8187.00,1.66
8186.00,1.66
8185.00,1.66
8184.00,1.66
8183.00,1.66
8182.00,1.66
8181.00,1.66
8180.00,1.66
8179.00,1.66
8178.00,1.65
8177.00,1.65
8176.00,1.65
8175.00,1.65
8174.00,1.65
8173.00,1.65
8172.00,1.65
8171.00,1.65
8170.00,1.65
8169.00,1.65
8168.00,1.65
8167.00,1.65
8166.00,1.65
8165.00,1.66
8164.00,1.66
8163.00,1.66
8162.00,1.66
8161.00,1.66
8160.00,1.66
8159.00,1.66
8158.00,1.66
8157.00,1.66
8156.00,1.66
8155.00,1.66
8154.00,1.66
8153.00,1.66
8152.00,1.66
8151.00,1.65
8150.00,1.65
8149.00,1.65
8148.00,1.64
8147.00,1.64
8146.00,1.64
8145.00,1.63
8144.00,1.63
8143.00,1.62
8142.00,1.62
8141.00,1.61
8140.00,1.61
8139.00,1.60
8138.00,1.60
8137.00,1.59
8136.00,1.58
8135.00,1.57
8134.00,1.56
8133.00,1.56
8132.00,1.55
8131.00,1.54
8130.00,1.54
8129.00,1.53
8128.00,1.53
8127.00,1.53
8126.00,1.53
8125.00,1.52
8124.00,1.52
8123.00,1.52
8122.00,1.52
8121.00,1.52
8120.00,1.53
8119.00,1.53
8118.00,1.53
8117.00,1.54
8116.00,1.54
8115.00,1.55
8114.00,1.55
8113.00,1.55
8112.00,1.56
8111.00,1.56
8110.00,1.56
8109.00,1.56
8108.00,1.57
8107.00,1.57
8106.00,1.57
8105.00,1.57
8104.00,1.58
8103.00,1.58
8102.00,1.58
8101.00,1.58
8100.00,1.58
8099.00,1.58
8098.00,1.58
8097.00,1.57
8096.00,1.57
8095.00,1.57
8094.00,1.57
8093.00,1.57
8092.00,1.57
8091.00,1.57
8090.00,1.57
8089.00,1.57
8088.00,1.57
8087.00,1.57
8086.00,1.57
8085.00,1.57
8084.00,1.57
8083.00,1.57
8082.00,1.57
8081.00,1.57
8080.00,1.56
8079.00,1.56
8078.00,1.56
8077.00,1.55
8076.00,1.55
8075.00,1.54
8074.00,1.54
8073.00,1.53
8072.00,1.53
8071.00,1.52
8070.00,1.52
8069.00,1.51
8068.00,1.51
8067.00,1.51
8066.00,1.51
8065.00,1.51
8064.00,1.51
8063.00,1.52
8062.00,1.52
8061.00,1.52
8060.00,1.52
8059.00,1.53
8058.00,1.53
8057.00,1.53
8056.00,1.53
8055.00,1.54
8054.00,1.54
8053.00,1.54
8052.00,1.54
8051.00,1.54
8050.00,1.54
8049.00,1.53
8048.00,1.53
8047.00,1.53
8046.00,1.53
8045.00,1.53
8044.00,1.53
8043.00,1.53
8042.00,1.53
8041.00,1.53
8040.00,1.53
8039.00,1.53
8038.00,1.53
8037.00,1.54
8036.00,1.54
8035.00,1.54
8034.00,1.54
8033.00,1.55
8032.00,1.55
8031.00,1.56
8030.00,1.56
8029.00,1.57
8028.00,1.57
8027.00,1.58
8026.00,1.58
8025.00,1.59
8024.00,1.60
8023.00,1.60
8022.00,1.61
8021.00,1.61
8020.00,1.62
8019.00,1.63
8018.00,1.63
8017.00,1.63
8016.00,1.64
8015.00,1.64
8014.00,1.64
8013.00,1.65
8012.00,1.65
8011.00,1.65
8010.00,1.65
8009.00,1.65
8008.00,1.64
8007.00,1.64
8006.00,1.64
8005.00,1.63
8004.00,1.63
8003.00,1.63
8002.00,1.62
8001.00,1.62
8000.00,1.62
7999.00,1.62
7998.00,1.61
7997.00,1.61
7996.00,1.61
7995.00,1.61
7994.00,1.60
7993.00,1.60
7992.00,1.60
7991.00,1.60
7990.00,1.60
7989.00,1.60
7988.00,1.59
7987.00,1.59
7986.00,1.59
7985.00,1.59
7984.00,1.59
7983.00,1.59
7982.00,1.58
7981.00,1.58
7980.00,1.58
7979.00,1.58
7978.00,1.58
7977.00,1.58
7976.00,1.58
7975.00,1.58
7974.00,1.58
7973.00,1.58
7972.00,1.58
7971.00,1.58
7970.00,1.58
7969.00,1.58
7968.00,1.58
7967.00,1.58
7966.00,1.58
7965.00,1.58
7964.00,1.58
7963.00,1.58
7962.00,1.58
7961.00,1.58
7960.00,1.58
7959.00,1.58
7958.00,1.57
7957.00,1.57
7956.00,1.56
7955.00,1.56
7954.00,1.55
7953.00,1.55
7952.00,1.55
7951.00,1.54
7950.00,1.54
7949.00,1.54
7948.00,1.54
7947.00,1.54
7946.00,1.54
7945.00,1.53
7944.00,1.53
7943.00,1.54
7942.00,1.54
7941.00,1.54
7940.00,1.55
7939.00,1.55
7938.00,1.56
7937.00,1.56
7936.00,1.57
7935.00,1.58
7934.00,1.59
7933.00,1.59
7932.00,1.60
7931.00,1.60
7930.00,1.61
7929.00,1.61
7928.00,1.62
7927.00,1.62
7926.00,1.63
7925.00,1.63
7924.00,1.63
7923.00,1.63
7922.00,1.63
7921.00,1.63
7920.00,1.63
7919.00,1.63
7918.00,1.63
7917.00,1.62
7916.00,1.62
7915.00,1.62
7914.00,1.62
7913.00,1.62
7912.00,1.61
7911.00,1.61
7910.00,1.61
7909.00,1.61
7908.00,1.61
7907.00,1.61
7906.00,1.61
7905.00,1.61
7904.00,1.61
7903.00,1.61
7902.00,1.61
7901.00,1.61
7900.00,1.61
7899.00,1.61
7898.00,1.61
7897.00,1.61
7896.00,1.61
7895.00,1.61
7894.00,1.61
7893.00,1.61
7892.00,1.60
7891.00,1.60
7890.00,1.60
7889.00,1.60
7888.00,1.60
7887.00,1.60
7886.00,1.59
7885.00,1.59
7884.00,1.59
7883.00,1.59
7882.00,1.59
7881.00,1.59
7880.00,1.59
7879.00,1.59
7878.00,1.59
7877.00,1.59
7876.00,1.59
7875.00,1.59
7874.00,1.59
7873.00,1.58
7872.00,1.58
7871.00,1.58
7870.00,1.58
7869.00,1.58
7868.00,1.58
7867.00,1.59
7866.00,1.59
7865.00,1.59
7864.00,1.60
7863.00,1.60
7862.00,1.61
7861.00,1.62
7860.00,1.63
7859.00,1.63
7858.00,1.64
7857.00,1.65
7856.00,1.65
7855.00,1.66
7854.00,1.66
7853.00,1.67
7852.00,1.67
7851.00,1.67
7850.00,1.67
7849.00,1.67
7848.00,1.67
7847.00,1.67
7846.00,1.66
7845.00,1.66
7844.00,1.65
7843.00,1.64
7842.00,1.63
7841.00,1.62
7840.00,1.61
7839.00,1.60
7838.00,1.60
7837.00,1.59
7836.00,1.58
7835.00,1.58
7834.00,1.57
7833.00,1.57
7832.00,1.57
7831.00,1.56
7830.00,1.56
7829.00,1.56
7828.00,1.56
7827.00,1.56
7826.00,1.57
7825.00,1.57
7824.00,1.58
7823.00,1.58
7822.00,1.59
7821.00,1.59
7820.00,1.59
7819.00,1.60
7818.00,1.60
7817.00,1.60
7816.00,1.61
7815.00,1.61
7814.00,1.61
7813.00,1.61
7812.00,1.61
7811.00,1.61
7810.00,1.61
7809.00,1.61
7808.00,1.60
7807.00,1.60
7806.00,1.60
7805.00,1.60
7804.00,1.60
7803.00,1.60
7802.00,1.60
7801.00,1.60
7800.00,1.61
7799.00,1.61
7798.00,1.61
7797.00,1.62
7796.00,1.62
7795.00,1.62
7794.00,1.63
7793.00,1.63
7792.00,1.63
7791.00,1.64
7790.00,1.64
7789.00,1.64
7788.00,1.65
7787.00,1.65
7786.00,1.65
7785.00,1.66
7784.00,1.66
7783.00,1.66
7782.00,1.67
7781.00,1.67
7780.00,1.67
7779.00,1.68
7778.00,1.68
7777.00,1.68
7776.00,1.69
7775.00,1.69
7774.00,1.69
7773.00,1.69
7772.00,1.69
7771.00,1.69
7770.00,1.69
7769.00,1.69
7768.00,1.69
7767.00,1.68
7766.00,1.68
7765.00,1.67
7764.00,1.66
7763.00,1.66
7762.00,1.65
7761.00,1.64
7760.00,1.63
7759.00,1.62
7758.00,1.61
7757.00,1.61
7756.00,1.60
7755.00,1.59
7754.00,1.59
7753.00,1.59
7752.00,1.59
7751.00,1.59
7750.00,1.59
7749.00,1.59
7748.00,1.59
7747.00,1.59
7746.00,1.60
7745.00,1.60
7744.00,1.60
7743.00,1.61
7742.00,1.61
7741.00,1.61
7740.00,1.62
7739.00,1.62
7738.00,1.62
7737.00,1.62
7736.00,1.62
7735.00,1.62
7734.00,1.62
7733.00,1.62
7732.00,1.62
7731.00,1.62
7730.00,1.62
7729.00,1.61
7728.00,1.61
7727.00,1.61
7726.00,1.61
7725.00,1.61
7724.00,1.61
7723.00,1.60
7722.00,1.60
7721.00,1.60
7720.00,1.60
7719.00,1.59
7718.00,1.59
7717.00,1.59
7716.00,1.59
7715.00,1.58
7714.00,1.58
7713.00,1.58
7712.00,1.58
7711.00,1.58
7710.00,1.58
7709.00,1.58
7708.00,1.58
7707.00,1.58
7706.00,1.58
7705.00,1.58
7704.00,1.59
7703.00,1.59
7702.00,1.59
7701.00,1.59
7700.00,1.59
7699.00,1.59
7698.00,1.59
7697.00,1.59
7696.00,1.59
7695.00,1.59
7694.00,1.58
7693.00,1.58
7692.00,1.58
7691.00,1.57
7690.00,1.57
7689.00,1.57
7688.00,1.56
7687.00,1.56
7686.00,1.56
7685.00,1.56
7684.00,1.56
7683.00,1.56
7682.00,1.56
7681.00,1.56
7680.00,1.57
7679.00,1.57
7678.00,1.58
7677.00,1.58
7676.00,1.59
7675.00,1.60
7674.00,1.61
7673.00,1.62
7672.00,1.62
7671.00,1.63
7670.00,1.64
7669.00,1.65
7668.00,1.65
7667.00,1.66
7666.00,1.66
7665.00,1.66
7664.00,1.67
7663.00,1.67
7662.00,1.67
7661.00,1.67
7660.00,1.67
7659.00,1.67
7658.00,1.67
7657.00,1.66
7656.00,1.66
7655.00,1.66
7654.00,1.66
7653.00,1.65
7652.00,1.65
7651.00,1.65
7650.00,1.64
7649.00,1.64
7648.00,1.64
7647.00,1.64
7646.00,1.63
7645.00,1.63
7644.00,1.63
7643.00,1.63
7642.00,1.62
7641.00,1.62
7640.00,1.62
7639.00,1.62
7638.00,1.62
7637.00,1.62
7636.00,1.61
7635.00,1.61
7634.00,1.61
7633.00,1.60
7632.00,1.60
7631.00,1.60
7630.00,1.59
7629.00,1.59
7628.00,1.59
7627.00,1.59
7626.00,1.58
7625.00,1.58
7624.00,1.58
7623.00,1.57
7622.00,1.57
7621.00,1.57
7620.00,1.57
7619.00,1.58
7618.00,1.58
7617.00,1.58
7616.00,1.59
7615.00,1.59
7614.00,1.60
7613.00,1.60
7612.00,1.61
7611.00,1.62
7610.00,1.62
7609.00,1.63
7608.00,1.63
7607.00,1.64
7606.00,1.65
7605.00,1.65
7604.00,1.66
7603.00,1.66
7602.00,1.66
7601.00,1.66
7600.00,1.66
7599.00,1.66
7598.00,1.66
7597.00,1.66
7596.00,1.66
7595.00,1.66
7594.00,1.66
7593.00,1.66
7592.00,1.65
7591.00,1.65
7590.00,1.65
7589.00,1.65
7588.00,1.64
7587.00,1.64
7586.00,1.64
7585.00,1.64
7584.00,1.64
7583.00,1.64
7582.00,1.64
7581.00,1.64
7580.00,1.64
7579.00,1.64
7578.00,1.64
7577.00,1.64
7576.00,1.64
7575.00,1.64
7574.00,1.64
7573.00,1.65
7572.00,1.65
7571.00,1.65
7570.00,1.65
7569.00,1.65
7568.00,1.65
7567.00,1.65
7566.00,1.65
7565.00,1.65
7564.00,1.66
7563.00,1.66
7562.00,1.66
7561.00,1.66
7560.00,1.66
7559.00,1.66
7558.00,1.66
7557.00,1.67
7556.00,1.67
7555.00,1.67
7554.00,1.67
7553.00,1.67
7552.00,1.68
7551.00,1.68
7550.00,1.68
7549.00,1.68
7548.00,1.68
7547.00,1.68
7546.00,1.68
7545.00,1.67
7544.00,1.67
7543.00,1.67
7542.00,1.67
7541.00,1.66
7540.00,1.66
7539.00,1.65
7538.00,1.65
7537.00,1.64
7536.00,1.63
7535.00,1.63
7534.00,1.62
7533.00,1.62
7532.00,1.61
7531.00,1.61
7530.00,1.60
7529.00,1.60
7528.00,1.60
7527.00,1.60
7526.00,1.59
7525.00,1.59
7524.00,1.59
7523.00,1.60
7522.00,1.60
7521.00,1.60
7520.00,1.60
7519.00,1.61
7518.00,1.61
7517.00,1.61
7516.00,1.62
7515.00,1.62
7514.00,1.63
7513.00,1.63
7512.00,1.63
7511.00,1.64
7510.00,1.64
7509.00,1.64
7508.00,1.64
7507.00,1.64
7506.00,1.64
7505.00,1.64
7504.00,1.64
7503.00,1.64
7502.00,1.64
7501.00,1.64
7500.00,1.63
7499.00,1.63
7498.00,1.63
7497.00,1.62
7496.00,1.62
7495.00,1.62
7494.00,1.61
7493.00,1.61
7492.00,1.61
7491.00,1.60
7490.00,1.60
7489.00,1.60
7488.00,1.60
7487.00,1.60
7486.00,1.59
7485.00,1.59
7484.00,1.59
7483.00,1.59
7482.00,1.59
7481.00,1.59
7480.00,1.59
7479.00,1.60
7478.00,1.60
7477.00,1.60
7476.00,1.60
7475.00,1.61
7474.00,1.61
7473.00,1.62
7472.00,1.62
7471.00,1.62
7470.00,1.63
7469.00,1.64
7468.00,1.64
7467.00,1.65
7466.00,1.65
7465.00,1.66
7464.00,1.66
7463.00,1.67
7462.00,1.67
7461.00,1.67
7460.00,1.67
7459.00,1.68
7458.00,1.68
7457.00,1.67
7456.00,1.67
7455.00,1.67
7454.00,1.67
7453.00,1.66
7452.00,1.65
7451.00,1.65
7450.00,1.64
7449.00,1.64
7448.00,1.63
7447.00,1.62
7446.00,1.62
7445.00,1.61
7444.00,1.61
7443.00,1.61
7442.00,1.60
7441.00,1.60
7440.00,1.60
7439.00,1.60
7438.00,1.60
7437.00,1.60
7436.00,1.60
7435.00,1.60
7434.00,1.60
7433.00,1.60
7432.00,1.60
7431.00,1.61
7430.00,1.61
7429.00,1.61
7428.00,1.61
7427.00,1.61
7426.00,1.60
7425.00,1.60
7424.00,1.60
7423.00,1.60
7422.00,1.60
7421.00,1.59
7420.00,1.59
7419.00,1.59
7418.00,1.58
7417.00,1.58
7416.00,1.57
7415.00,1.57
7414.00,1.57
7413.00,1.57
7412.00,1.56
7411.00,1.56
7410.00,1.56
7409.00,1.56
7408.00,1.56
7407.00,1.57
7406.00,1.57
7405.00,1.57
7404.00,1.58
7403.00,1.58
7402.00,1.59
7401.00,1.59
7400.00,1.60
7399.00,1.61
7398.00,1.61
7397.00,1.62
7396.00,1.63
7395.00,1.63
7394.00,1.64
7393.00,1.65
7392.00,1.65
7391.00,1.66
7390.00,1.66
7389.00,1.67
7388.00,1.67
7387.00,1.67
7386.00,1.67
7385.00,1.67
7384.00,1.68
7383.00,1.68
7382.00,1.68
7381.00,1.68
7380.00,1.68
7379.00,1.68
7378.00,1.68
7377.00,1.67
7376.00,1.67
7375.00,1.67
7374.00,1.67
7373.00,1.67
7372.00,1.66
7371.00,1.66
7370.00,1.66
7369.00,1.66
7368.00,1.66
7367.00,1.65
7366.00,1.65
7365.00,1.65
7364.00,1.65
7363.00,1.64
7362.00,1.64
7361.00,1.64
7360.00,1.63
7359.00,1.63
7358.00,1.63
7357.00,1.62
7356.00,1.62
7355.00,1.62
7354.00,1.61
7353.00,1.61
7352.00,1.61
7351.00,1.60
7350.00,1.60
7349.00,1.59
7348.00,1.59
7347.00,1.59
7346.00,1.58
7345.00,1.58
7344.00,1.58
7343.00,1.58
7342.00,1.57
7341.00,1.57
7340.00,1.57
7339.00,1.57
7338.00,1.57
7337.00,1.57
7336.00,1.57
7335.00,1.57
7334.00,1.57
7333.00,1.57
7332.00,1.57
7331.00,1.57
7330.00,1.57
7329.00,1.57
7328.00,1.57
7327.00,1.57
7326.00,1.57
7325.00,1.57
7324.00,1.57
7323.00,1.57
7322.00,1.57
7321.00,1.58
7320.00,1.58
7319.00,1.58
7318.00,1.58
7317.00,1.59
7316.00,1.59
7315.00,1.59
7314.00,1.59
7313.00,1.60
7312.00,1.60
7311.00,1.60
7310.00,1.61
7309.00,1.61
7308.00,1.61
7307.00,1.61
7306.00,1.61
7305.00,1.61
7304.00,1.61
7303.00,1.61
7302.00,1.61
7301.00,1.61
7300.00,1.60
7299.00,1.60
7298.00,1.60
7297.00,1.60
7296.00,1.60
7295.00,1.60
7294.00,1.60
7293.00,1.60
7292.00,1.60
7291.00,1.60
7290.00,1.61
7289.00,1.61
7288.00,1.61
7287.00,1.62
7286.00,1.62
7285.00,1.62
7284.00,1.63
7283.00,1.63
7282.00,1.63
7281.00,1.63
7280.00,1.63
7279.00,1.63
7278.00,1.62
7277.00,1.62
7276.00,1.61
7275.00,1.61
7274.00,1.60
7273.00,1.60
7272.00,1.59
7271.00,1.58
7270.00,1.57
7269.00,1.56
7268.00,1.56
7267.00,1.55
7266.00,1.55
7265.00,1.54
7264.00,1.54
7263.00,1.54
7262.00,1.54
7261.00,1.54
7260.00,1.54
7259.00,1.55
7258.00,1.55
7257.00,1.56
7256.00,1.56
7255.00,1.57
7254.00,1.57
7253.00,1.58
7252.00,1.58
7251.00,1.59
7250.00,1.59
7249.00,1.60
7248.00,1.60
7247.00,1.60
7246.00,1.60
7245.00,1.60
7244.00,1.61
7243.00,1.61
7242.00,1.61
7241.00,1.61
7240.00,1.60
7239.00,1.60
7238.00,1.60
7237.00,1.60
7236.00,1.60
7235.00,1.59
7234.00,1.59
7233.00,1.58
7232.00,1.58
7231.00,1.58
7230.00,1.57
7229.00,1.57
7228.00,1.56
7227.00,1.56
7226.00,1.56
7225.00,1.55
7224.00,1.55
7223.00,1.55
7222.00,1.55
7221.00,1.55
7220.00,1.55
7219.00,1.55
7218.00,1.55
7217.00,1.55
7216.00,1.56
7215.00,1.56
7214.00,1.56
7213.00,1.56
7212.00,1.57
7211.00,1.57
7210.00,1.57
7209.00,1.57
7208.00,1.57
7207.00,1.57
7206.00,1.57
7205.00,1.57
7204.00,1.57
7203.00,1.57
7202.00,1.57
7201.00,1.57
7200.00,1.56
7199.00,1.56
7198.00,1.55
7197.00,1.55
7196.00,1.55
7195.00,1.54
7194.00,1.54
7193.00,1.54
7192.00,1.54
7191.00,1.54
7190.00,1.53
7189.00,1.53
7188.00,1.53
7187.00,1.53
7186.00,1.53
7185.00,1.53
7184.00,1.53
7183.00,1.53
7182.00,1.53
7181.00,1.52
7180.00,1.52
7179.00,1.52
7178.00,1.52
7177.00,1.52
7176.00,1.51
7175.00,1.51
7174.00,1.50
7173.00,1.50
7172.00,1.50
7171.00,1.49
7170.00,1.49
7169.00,1.48
7168.00,1.48
7167.00,1.47
7166.00,1.47
7165.00,1.46
7164.00,1.46
7163.00,1.45
7162.00,1.45
7161.00,1.45
7160.00,1.44
7159.00,1.44
7158.00,1.44
7157.00,1.43
7156.00,1.43
7155.00,1.43
7154.00,1.43
7153.00,1.42
7152.00,1.42
7151.00,1.42
7150.00,1.42
7149.00,1.41
7148.00,1.41
7147.00,1.41
7146.00,1.41
7145.00,1.41
7144.00,1.41
7143.00,1.40
7142.00,1.40
7141.00,1.40
7140.00,1.40
7139.00,1.40
7138.00,1.40
7137.00,1.40
7136.00,1.40
7135.00,1.40
7134.00,1.40
7133.00,1.40
7132.00,1.41
7131.00,1.41
7130.00,1.41
7129.00,1.41
7128.00,1.41
7127.00,1.42
7126.00,1.42
7125.00,1.42
7124.00,1.42
7123.00,1.42
7122.00,1.42
7121.00,1.42
7120.00,1.41
7119.00,1.41
7118.00,1.41
7117.00,1.41
7116.00,1.41
7115.00,1.40
7114.00,1.40
7113.00,1.40
7112.00,1.40
7111.00,1.39
7110.00,1.39
7109.00,1.39
7108.00,1.39
7107.00,1.39
7106.00,1.39
7105.00,1.39
7104.00,1.39
7103.00,1.39
7102.00,1.39
7101.00,1.39
7100.00,1.39
7099.00,1.39
7098.00,1.39
7097.00,1.39
7096.00,1.38
7095.00,1.38
7094.00,1.38
7093.00,1.38
7092.00,1.38
7091.00,1.37
7090.00,1.37
7089.00,1.37
7088.00,1.37
7087.00,1.36
7086.00,1.36
7085.00,1.36
7084.00,1.36
7083.00,1.36
7082.00,1.36
7081.00,1.36
7080.00,1.36
7079.00,1.36
7078.00,1.36
7077.00,1.36
7076.00,1.35
7075.00,1.35
7074.00,1.35
7073.00,1.35
7072.00,1.35
7071.00,1.35
7070.00,1.34
7069.00,1.34
7068.00,1.34
7067.00,1.34
7066.00,1.34
7065.00,1.33
7064.00,1.33
7063.00,1.33
7062.00,1.33
7061.00,1.33
7060.00,1.32
7059.00,1.32
7058.00,1.32
7057.00,1.32
7056.00,1.32
7055.00,1.32
7054.00,1.32
7053.00,1.32
7052.00,1.32
7051.00,1.32
7050.00,1.32
7049.00,1.31
7048.00,1.31
7047.00,1.31
7046.00,1.31
7045.00,1.31
7044.00,1.31
7043.00,1.31
7042.00,1.31
7041.00,1.32
7040.00,1.32
7039.00,1.32
7038.00,1.32
7037.00,1.32
7036.00,1.32
7035.00,1.32
7034.00,1.32
7033.00,1.33
7032.00,1.33
7031.00,1.33
7030.00,1.33
7029.00,1.33
7028.00,1.33
7027.00,1.33
7026.00,1.33
7025.00,1.33
7024.00,1.33
7023.00,1.33
7022.00,1.33
7021.00,1.33
7020.00,1.33
7019.00,1.32
7018.00,1.32
7017.00,1.32
7016.00,1.31
7015.00,1.31
7014.00,1.30
7013.00,1.30
7012.00,1.29
7011.00,1.29
7010.00,1.28
7009.00,1.28
7008.00,1.28
7007.00,1.27
7006.00,1.27
7005.00,1.27
7004.00,1.26
7003.00,1.26
7002.00,1.26
7001.00,1.25
7000.00,1.25
6999.00,1.25
6998.00,1.25
6997.00,1.25
6996.00,1.24
6995.00,1.24
6994.00,1.24
6993.00,1.23
6992.00,1.23
6991.00,1.23
6990.00,1.22
6989.00,1.22
6988.00,1.21
6987.00,1.21
6986.00,1.21
6985.00,1.20
6984.00,1.20
6983.00,1.20
6982.00,1.20
6981.00,1.20
6980.00,1.20
6979.00,1.21
6978.00,1.21
6977.00,1.21
6976.00,1.21
6975.00,1.22
6974.00,1.22
6973.00,1.22
6972.00,1.23
6971.00,1.23
6970.00,1.23
6969.00,1.24
6968.00,1.24
6967.00,1.24
6966.00,1.24
6965.00,1.24
6964.00,1.24
6963.00,1.24
6962.00,1.24
6961.00,1.24
6960.00,1.24
6959.00,1.24
6958.00,1.24
6957.00,1.24
6956.00,1.24
6955.00,1.24
6954.00,1.24
6953.00,1.23
6952.00,1.23
6951.00,1.23
6950.00,1.23
6949.00,1.22
6948.00,1.22
6947.00,1.22
6946.00,1.22
6945.00,1.22
6944.00,1.21
6943.00,1.21
6942.00,1.21
6941.00,1.21
6940.00,1.21
6939.00,1.21
6938.00,1.21
6937.00,1.21
6936.00,1.21
6935.00,1.20
6934.00,1.20
6933.00,1.20
6932.00,1.20
6931.00,1.20
6930.00,1.20
6929.00,1.20
6928.00,1.20
6927.00,1.20
6926.00,1.20
6925.00,1.20
6924.00,1.20
6923.00,1.20
6922.00,1.20
6921.00,1.20
6920.00,1.21
6919.00,1.21
6918.00,1.21
6917.00,1.21
6916.00,1.21
6915.00,1.21
6914.00,1.21
6913.00,1.21
6912.00,1.21
6911.00,1.21
6910.00,1.21
6909.00,1.21
6908.00,1.21
6907.00,1.21
6906.00,1.21
6905.00,1.21
6904.00,1.21
6903.00,1.21
6902.00,1.21
6901.00,1.21
6900.00,1.21
6899.00,1.22
6898.00,1.22
6897.00,1.22
6896.00,1.22
6895.00,1.23
6894.00,1.23
6893.00,1.24
6892.00,1.24
6891.00,1.24
6890.00,1.25
6889.00,1.25
6888.00,1.25
6887.00,1.25
6886.00,1.25
6885.00,1.26
6884.00,1.26
6883.00,1.26
6882.00,1.26
6881.00,1.26
6880.00,1.26
6879.00,1.26
6878.00,1.26
6877.00,1.26
6876.00,1.25
6875.00,1.25
6874.00,1.25
6873.00,1.25
6872.00,1.24
6871.00,1.24
6870.00,1.24
6869.00,1.24
6868.00,1.23
6867.00,1.23
6866.00,1.23
6865.00,1.23
6864.00,1.23
6863.00,1.23
6862.00,1.23
6861.00,1.23
6860.00,1.23
6859.00,1.23
6858.00,1.23
6857.00,1.23
6856.00,1.23
6855.00,1.23
6854.00,1.23
6853.00,1.23
6852.00,1.24
6851.00,1.24
6850.00,1.24
6849.00,1.24
6848.00,1.24
6847.00,1.24
6846.00,1.24
6845.00,1.24
6844.00,1.24
6843.00,1.23
6842.00,1.23
6841.00,1.23
6840.00,1.23
6839.00,1.23
6838.00,1.23
6837.00,1.23
6836.00,1.23
6835.00,1.23
6834.00,1.23
6833.00,1.23
6832.00,1.23
6831.00,1.23
6830.00,1.23
6829.00,1.23
6828.00,1.23
6827.00,1.23
6826.00,1.23
6825.00,1.23
6824.00,1.23
6823.00,1.23
6822.00,1.23
6821.00,1.23
6820.00,1.24
6819.00,1.24
6818.00,1.24
6817.00,1.24
6816.00,1.25
6815.00,1.25
6814.00,1.25
6813.00,1.26
6812.00,1.26
6811.00,1.26
6810.00,1.27
6809.00,1.27
6808.00,1.27
6807.00,1.27
6806.00,1.27
6805.00,1.27
6804.00,1.27
6803.00,1.27
6802.00,1.27
6801.00,1.27
6800.00,1.26
6799.00,1.26
6798.00,1.26
6797.00,1.25
6796.00,1.25
6795.00,1.24
6794.00,1.24
6793.00,1.24
6792.00,1.23
6791.00,1.23
6790.00,1.23
6789.00,1.23
6788.00,1.23
6787.00,1.23
6786.00,1.23
6785.00,1.23
6784.00,1.23
6783.00,1.23
6782.00,1.23
6781.00,1.24
6780.00,1.24
6779.00,1.24
6778.00,1.25
6777.00,1.25
6776.00,1.25
6775.00,1.25
6774.00,1.25
6773.00,1.26
6772.00,1.26
6771.00,1.26
6770.00,1.26
6769.00,1.26
6768.00,1.26
6767.00,1.26
6766.00,1.25
6765.00,1.25
6764.00,1.25
6763.00,1.25
6762.00,1.25
6761.00,1.25
6760.00,1.25
6759.00,1.25
6758.00,1.25
6757.00,1.25
6756.00,1.25
6755.00,1.25
6754.00,1.25
6753.00,1.25
6752.00,1.25
6751.00,1.26
6750.00,1.26
6749.00,1.26
6748.00,1.26
6747.00,1.26
6746.00,1.27
6745.00,1.27
6744.00,1.27
6743.00,1.27
6742.00,1.27
6741.00,1.27
6740.00,1.27
6739.00,1.28
6738.00,1.28
6737.00,1.27
6736.00,1.27
6735.00,1.27
6734.00,1.27
6733.00,1.27
6732.00,1.27
6731.00,1.27
6730.00,1.27
6729.00,1.26
6728.00,1.26
6727.00,1.26
6726.00,1.26
6725.00,1.26
6724.00,1.26
6723.00,1.26
6722.00,1.26
6721.00,1.26
6720.00,1.27
6719.00,1.27
6718.00,1.27
6717.00,1.28
6716.00,1.28
6715.00,1.29
6714.00,1.29
6713.00,1.30
6712.00,1.30
6711.00,1.31
6710.00,1.31
6709.00,1.32
6708.00,1.32
6707.00,1.33
6706.00,1.33
6705.00,1.33
6704.00,1.33
6703.00,1.33
6702.00,1.33
6701.00,1.33
6700.00,1.33
6699.00,1.33
6698.00,1.32
6697.00,1.32
6696.00,1.32
6695.00,1.32
6694.00,1.32
6693.00,1.32
6692.00,1.32
6691.00,1.32
6690.00,1.32
6689.00,1.32
6688.00,1.32
6687.00,1.33
6686.00,1.33
6685.00,1.33
6684.00,1.34
6683.00,1.34
6682.00,1.34
6681.00,1.34
6680.00,1.35
6679.00,1.35
6678.00,1.35
6677.00,1.35
6676.00,1.35
6675.00,1.35
6674.00,1.35
6673.00,1.35
6672.00,1.35
6671.00,1.35
6670.00,1.35
6669.00,1.35
6668.00,1.35
6667.00,1.35
6666.00,1.35
6665.00,1.35
6664.00,1.35
6663.00,1.35
6662.00,1.35
6661.00,1.35
6660.00,1.35
6659.00,1.35
6658.00,1.35
6657.00,1.35
6656.00,1.35
6655.00,1.35
6654.00,1.35
6653.00,1.35
6652.00,1.35
6651.00,1.35
6650.00,1.36
6649.00,1.36
6648.00,1.36
6647.00,1.36
6646.00,1.36
6645.00,1.36
6644.00,1.35
6643.00,1.35
6642.00,1.35
6641.00,1.36
6640.00,1.36
6639.00,1.36
6638.00,1.36
6637.00,1.36
6636.00,1.36
6635.00,1.36
6634.00,1.36
6633.00,1.36
6632.00,1.36
6631.00,1.36
6630.00,1.36
6629.00,1.36
6628.00,1.36
6627.00,1.36
6626.00,1.36
6625.00,1.36
6624.00,1.36
6623.00,1.36
6622.00,1.36
6621.00,1.36
6620.00,1.36
6619.00,1.36
6618.00,1.36
6617.00,1.36
6616.00,1.37
6615.00,1.37
6614.00,1.37
6613.00,1.37
6612.00,1.38
6611.00,1.38
6610.00,1.38
6609.00,1.38
6608.00,1.38
6607.00,1.39
6606.00,1.39
6605.00,1.39
6604.00,1.39
6603.00,1.39
6602.00,1.39
6601.00,1.39
6600.00,1.39
6599.00,1.39
6598.00,1.39
6597.00,1.39
6596.00,1.39
6595.00,1.39
6594.00,1.39
6593.00,1.39
6592.00,1.39
6591.00,1.39
6590.00,1.39
6589.00,1.39
6588.00,1.39
6587.00,1.39
6586.00,1.39
6585.00,1.39
6584.00,1.39
6583.00,1.39
6582.00,1.39
6581.00,1.40
6580.00,1.40
6579.00,1.40
6578.00,1.40
6577.00,1.40
6576.00,1.41
6575.00,1.41
6574.00,1.41
6573.00,1.41
6572.00,1.42
6571.00,1.42
6570.00,1.42
6569.00,1.42
6568.00,1.43
6567.00,1.43
6566.00,1.43
6565.00,1.44
6564.00,1.44
6563.00,1.44
6562.00,1.44
6561.00,1.44
6560.00,1.44
6559.00,1.44
6558.00,1.44
6557.00,1.44
6556.00,1.44
6555.00,1.44
6554.00,1.44
6553.00,1.44
6552.00,1.44
6551.00,1.43
6550.00,1.43
6549.00,1.43
6548.00,1.43
6547.00,1.43
6546.00,1.43
6545.00,1.43
6544.00,1.43
6543.00,1.43
6542.00,1.43
6541.00,1.43
6540.00,1.43
6539.00,1.44
6538.00,1.44
6537.00,1.44
6536.00,1.44
6535.00,1.45
6534.00,1.45
6533.00,1.45
6532.00,1.46
6531.00,1.46
6530.00,1.47
6529.00,1.47
6528.00,1.47
6527.00,1.48
6526.00,1.48
6525.00,1.48
6524.00,1.48
6523.00,1.48
6522.00,1.49
6521.00,1.49
6520.00,1.49
6519.00,1.48
6518.00,1.48
6517.00,1.48
6516.00,1.48
6515.00,1.48
6514.00,1.47
6513.00,1.47
6512.00,1.47
6511.00,1.47
6510.00,1.47
6509.00,1.47
6508.00,1.47
6507.00,1.47
6506.00,1.47
6505.00,1.47
6504.00,1.47
6503.00,1.47
6502.00,1.47
6501.00,1.47
6500.00,1.47
6499.00,1.47
6498.00,1.47
6497.00,1.47
6496.00,1.47
6495.00,1.47
6494.00,1.47
6493.00,1.48
6492.00,1.48
6491.00,1.48
6490.00,1.48
6489.00,1.48
6488.00,1.48
6487.00,1.48
6486.00,1.49
6485.00,1.49
6484.00,1.49
6483.00,1.49
6482.00,1.49
6481.00,1.50
6480.00,1.50
6479.00,1.49
6478.00,1.49
6477.00,1.49
6476.00,1.49
6475.00,1.49
6474.00,1.48
6473.00,1.48
6472.00,1.47
6471.00,1.47
6470.00,1.47
6469.00,1.46
6468.00,1.46
6467.00,1.45
6466.00,1.45
6465.00,1.45
6464.00,1.44
6463.00,1.44
6462.00,1.45
6461.00,1.45
6460.00,1.45
6459.00,1.45
6458.00,1.46
6457.00,1.46
6456.00,1.46
6455.00,1.47
6454.00,1.47
6453.00,1.48
6452.00,1.48
6451.00,1.48
6450.00,1.49
6449.00,1.49
6448.00,1.49
6447.00,1.49
6446.00,1.50
6445.00,1.50
6444.00,1.50
6443.00,1.50
6442.00,1.50
6441.00,1.50
6440.00,1.50
6439.00,1.49
6438.00,1.49
6437.00,1.49
6436.00,1.49
6435.00,1.48
6434.00,1.48
6433.00,1.48
6432.00,1.48
6431.00,1.47
6430.00,1.47
6429.00,1.47
6428.00,1.47
6427.00,1.47
6426.00,1.46
6425.00,1.46
6424.00,1.46
6423.00,1.46
6422.00,1.46
6421.00,1.46
6420.00,1.46
6419.00,1.47
6418.00,1.47
6417.00,1.47
6416.00,1.47
6415.00,1.48
6414.00,1.48
6413.00,1.49
6412.00,1.49
6411.00,1.49
6410.00,1.50
6409.00,1.50
6408.00,1.51
6407.00,1.51
6406.00,1.51
6405.00,1.52
6404.00,1.52
6403.00,1.52
6402.00,1.52
6401.00,1.52
6400.00,1.52
6399.00,1.52
6398.00,1.52
6397.00,1.52
6396.00,1.52
6395.00,1.51
6394.00,1.51
6393.00,1.51
6392.00,1.50
6391.00,1.50
6390.00,1.50
6389.00,1.49
6388.00,1.49
6387.00,1.49
6386.00,1.49
6385.00,1.49
6384.00,1.49
6383.00,1.49
6382.00,1.49
6381.00,1.49
6380.00,1.49
6379.00,1.50
6378.00,1.50
6377.00,1.50
6376.00,1.50
6375.00,1.51
6374.00,1.51
6373.00,1.52
6372.00,1.52
6371.00,1.52
6370.00,1.53
6369.00,1.53
6368.00,1.53
6367.00,1.54
6366.00,1.54
6365.00,1.54
6364.00,1.54
6363.00,1.54
6362.00,1.54
6361.00,1.54
6360.00,1.53
6359.00,1.53
6358.00,1.53
6357.00,1.53
6356.00,1.53
6355.00,1.53
6354.00,1.53
6353.00,1.53
6352.00,1.53
6351.00,1.53
6350.00,1.53
6349.00,1.53
6348.00,1.53
6347.00,1.53
6346.00,1.53
6345.00,1.53
6344.00,1.53
6343.00,1.53
6342.00,1.53
6341.00,1.53
6340.00,1.53
6339.00,1.53
6338.00,1.53
6337.00,1.53
6336.00,1.53
6335.00,1.53
6334.00,1.53
6333.00,1.52
6332.00,1.52
6331.00,1.52
6330.00,1.52
6329.00,1.52
6328.00,1.52
6327.00,1.52
6326.00,1.52
6325.00,1.52
6324.00,1.52
6323.00,1.52
6322.00,1.52
6321.00,1.52
6320.00,1.52
6319.00,1.53
6318.00,1.53
6317.00,1.54
6316.00,1.54
6315.00,1.55
6314.00,1.55
6313.00,1.55
6312.00,1.56
6311.00,1.56
6310.00,1.57
6309.00,1.57
6308.00,1.57
6307.00,1.57
6306.00,1.58
6305.00,1.58
6304.00,1.58
6303.00,1.58
6302.00,1.58
6301.00,1.58
6300.00,1.58
6299.00,1.57
6298.00,1.57
6297.00,1.57
6296.00,1.57
6295.00,1.57
6294.00,1.57
6293.00,1.57
6292.00,1.57
6291.00,1.57
6290.00,1.57
6289.00,1.57
6288.00,1.57
6287.00,1.57
6286.00,1.57
6285.00,1.57
6284.00,1.57
6283.00,1.57
6282.00,1.57
6281.00,1.57
6280.00,1.57
6279.00,1.57
6278.00,1.57
6277.00,1.57
6276.00,1.57
6275.00,1.57
6274.00,1.57
6273.00,1.57
6272.00,1.57
6271.00,1.57
6270.00,1.57
6269.00,1.57
6268.00,1.58
6267.00,1.58
6266.00,1.58
6265.00,1.58
6264.00,1.58
6263.00,1.58
6262.00,1.58
6261.00,1.58
6260.00,1.59
6259.00,1.59
6258.00,1.59
6257.00,1.59
6256.00,1.59
6255.00,1.59
6254.00,1.59
6253.00,1.59
6252.00,1.59
6251.00,1.59
6250.00,1.59
6249.00,1.58
6248.00,1.58
6247.00,1.58
6246.00,1.58
6245.00,1.57
6244.00,1.57
6243.00,1.57
6242.00,1.57
6241.00,1.57
6240.00,1.56
6239.00,1.56
6238.00,1.56
6237.00,1.56
6236.00,1.56
6235.00,1.56
6234.00,1.57
6233.00,1.57
6232.00,1.57
6231.00,1.57
6230.00,1.58
6229.00,1.58
6228.00,1.58
6227.00,1.58
6226.00,1.59
6225.00,1.59
6224.00,1.59
6223.00,1.59
6222.00,1.59
6221.00,1.59
6220.00,1.59
6219.00,1.59
6218.00,1.59
6217.00,1.59
6216.00,1.59
6215.00,1.59
6214.00,1.59
6213.00,1.58
6212.00,1.58
6211.00,1.58
6210.00,1.58
6209.00,1.58
6208.00,1.57
6207.00,1.57
6206.00,1.57
6205.00,1.57
6204.00,1.57
6203.00,1.57
6202.00,1.57
6201.00,1.57
6200.00,1.57
6199.00,1.57
6198.00,1.57
6197.00,1.57
6196.00,1.58
6195.00,1.58
6194.00,1.58
6193.00,1.59
6192.00,1.59
6191.00,1.60
6190.00,1.60
6189.00,1.61
6188.00,1.61
6187.00,1.62
6186.00,1.62
6185.00,1.62
6184.00,1.63
6183.00,1.63
6182.00,1.63
6181.00,1.64
6180.00,1.64
6179.00,1.64
6178.00,1.64
6177.00,1.64
6176.00,1.65
6175.00,1.65
6174.00,1.64
6173.00,1.64
6172.00,1.64
6171.00,1.64
6170.00,1.64
6169.00,1.64
6168.00,1.64
6167.00,1.63
6166.00,1.63
6165.00,1.63
6164.00,1.63
6163.00,1.63
6162.00,1.63
6161.00,1.63
6160.00,1.63
6159.00,1.63
6158.00,1.63
6157.00,1.63
6156.00,1.63
6155.00,1.63
6154.00,1.64
6153.00,1.64
6152.00,1.64
6151.00,1.64
6150.00,1.64
6149.00,1.64
6148.00,1.64
6147.00,1.64
6146.00,1.64
6145.00,1.64
6144.00,1.64
6143.00,1.64
6142.00,1.64
6141.00,1.64
6140.00,1.63
6139.00,1.63
6138.00,1.63
6137.00,1.63
6136.00,1.63
6135.00,1.63
6134.00,1.62
6133.00,1.62
6132.00,1.62
6131.00,1.62
6130.00,1.62
6129.00,1.62
6128.00,1.62
6127.00,1.62
6126.00,1.63
6125.00,1.63
6124.00,1.63
6123.00,1.63
6122.00,1.63
6121.00,1.64
6120.00,1.64
6119.00,1.64
6118.00,1.64
6117.00,1.64
6116.00,1.65
6115.00,1.65
6114.00,1.65
6113.00,1.65
6112.00,1.66
6111.00,1.66
6110.00,1.66
6109.00,1.66
6108.00,1.66
6107.00,1.66
6106.00,1.66
6105.00,1.66
6104.00,1.66
6103.00,1.66
6102.00,1.66
6101.00,1.66
6100.00,1.66
6099.00,1.65
6098.00,1.65
6097.00,1.65
6096.00,1.65
6095.00,1.65
6094.00,1.65
6093.00,1.65
6092.00,1.65
6091.00,1.65
6090.00,1.65
6089.00,1.65
6088.00,1.65
6087.00,1.65
6086.00,1.65
6085.00,1.65
6084.00,1.65
6083.00,1.65
6082.00,1.65
6081.00,1.66
6080.00,1.66
6079.00,1.66
6078.00,1.66
6077.00,1.66
6076.00,1.66
6075.00,1.66
6074.00,1.66
6073.00,1.66
6072.00,1.66
6071.00,1.66
6070.00,1.66
6069.00,1.66
6068.00,1.66
6067.00,1.66
6066.00,1.66
6065.00,1.66
6064.00,1.66
6063.00,1.66
6062.00,1.67
6061.00,1.67
6060.00,1.67
6059.00,1.67
6058.00,1.68
6057.00,1.68
6056.00,1.68
6055.00,1.68
6054.00,1.68
6053.00,1.68
6052.00,1.68
6051.00,1.68
6050.00,1.68
6049.00,1.68
6048.00,1.68
6047.00,1.68
6046.00,1.68
6045.00,1.68
6044.00,1.68
6043.00,1.68
6042.00,1.68
6041.00,1.68
6040.00,1.68
6039.00,1.68
6038.00,1.68
6037.00,1.68
6036.00,1.69
6035.00,1.69
6034.00,1.69
6033.00,1.70
6032.00,1.70
6031.00,1.70
6030.00,1.70
6029.00,1.70
6028.00,1.71
6027.00,1.71
6026.00,1.71
6025.00,1.71
6024.00,1.70
6023.00,1.70
6022.00,1.70
6021.00,1.70
6020.00,1.69
6019.00,1.69
6018.00,1.68
6017.00,1.68
6016.00,1.67
6015.00,1.67
6014.00,1.67
6013.00,1.66
6012.00,1.66
6011.00,1.66
6010.00,1.66
6009.00,1.65
6008.00,1.65
6007.00,1.65
6006.00,1.65
6005.00,1.65
6004.00,1.65
6003.00,1.65
6002.00,1.66
6001.00,1.66
6000.00,1.66
5999.00,1.66
5998.00,1.67
5997.00,1.67
5996.00,1.67
5995.00,1.67
5994.00,1.68
5993.00,1.68
5992.00,1.68
5991.00,1.68
5990.00,1.68
5989.00,1.68
5988.00,1.68
5987.00,1.68
5986.00,1.68
5985.00,1.68
5984.00,1.68
5983.00,1.68
5982.00,1.68
5981.00,1.68
5980.00,1.68
5979.00,1.68
5978.00,1.67
5977.00,1.67
5976.00,1.67
5975.00,1.67
5974.00,1.67
5973.00,1.67
5972.00,1.67
5971.00,1.67
5970.00,1.66
5969.00,1.66
5968.00,1.66
5967.00,1.66
5966.00,1.66
5965.00,1.66
5964.00,1.66
5963.00,1.65
5962.00,1.65
5961.00,1.65
5960.00,1.65
5959.00,1.65
5958.00,1.65
5957.00,1.64
5956.00,1.64
5955.00,1.64
5954.00,1.63
5953.00,1.63
5952.00,1.63
5951.00,1.62
5950.00,1.62
5949.00,1.62
5948.00,1.62
5947.00,1.61
5946.00,1.61
5945.00,1.61
5944.00,1.61
5943.00,1.61
5942.00,1.60
5941.00,1.60
5940.00,1.60
5939.00,1.60
5938.00,1.60
5937.00,1.60
5936.00,1.60
5935.00,1.60
5934.00,1.60
5933.00,1.60
5932.00,1.60
5931.00,1.60
5930.00,1.60
5929.00,1.60
5928.00,1.60
5927.00,1.60
5926.00,1.60
5925.00,1.60
5924.00,1.60
5923.00,1.60
5922.00,1.61
5921.00,1.61
5920.00,1.61
5919.00,1.61
5918.00,1.60
5917.00,1.60
5916.00,1.60
5915.00,1.60
5914.00,1.60
5913.00,1.60
5912.00,1.60
5911.00,1.61
5910.00,1.61
5909.00,1.61
5908.00,1.61
5907.00,1.61
5906.00,1.61
5905.00,1.60
5904.00,1.61
5903.00,1.61
5902.00,1.61
5901.00,1.61
5900.00,1.61
5899.00,1.61
5898.00,1.61
5897.00,1.60
5896.00,1.60
5895.00,1.60
5894.00,1.60
5893.00,1.60
5892.00,1.60
5891.00,1.60
5890.00,1.60
5889.00,1.60
5888.00,1.60
5887.00,1.60
5886.00,1.60
5885.00,1.60
5884.00,1.60
5883.00,1.60
5882.00,1.61
5881.00,1.61
5880.00,1.61
5879.00,1.61
5878.00,1.61
5877.00,1.62
5876.00,1.62
5875.00,1.62
5874.00,1.62
5873.00,1.62
5872.00,1.63
5871.00,1.63
5870.00,1.63
5869.00,1.63
5868.00,1.63
5867.00,1.63
5866.00,1.63
5865.00,1.63
5864.00,1.63
5863.00,1.63
5862.00,1.63
5861.00,1.63
5860.00,1.63
5859.00,1.63
5858.00,1.63
5857.00,1.63
5856.00,1.63
5855.00,1.63
5854.00,1.63
5853.00,1.63
5852.00,1.63
5851.00,1.63
5850.00,1.63
5849.00,1.63
5848.00,1.64
5847.00,1.64
5846.00,1.64
5845.00,1.64
5844.00,1.64
5843.00,1.63
5842.00,1.63
5841.00,1.63
5840.00,1.63
5839.00,1.63
5838.00,1.63
5837.00,1.63
5836.00,1.62
5835.00,1.62
5834.00,1.62
5833.00,1.62
5832.00,1.62
5831.00,1.62
5830.00,1.62
5829.00,1.62
5828.00,1.62
5827.00,1.62
5826.00,1.62
5825.00,1.62
5824.00,1.62
5823.00,1.62
5822.00,1.62
5821.00,1.62
5820.00,1.62
5819.00,1.63
5818.00,1.63
5817.00,1.63
5816.00,1.63
5815.00,1.63
5814.00,1.63
5813.00,1.63
5812.00,1.63
5811.00,1.63
5810.00,1.63
5809.00,1.63
5808.00,1.62
5807.00,1.62
5806.00,1.62
5805.00,1.62
5804.00,1.61
5803.00,1.61
5802.00,1.61
5801.00,1.61
5800.00,1.60
5799.00,1.60
5798.00,1.60
5797.00,1.60
5796.00,1.60
5795.00,1.59
5794.00,1.59
5793.00,1.59
5792.00,1.59
5791.00,1.59
5790.00,1.59
5789.00,1.59
5788.00,1.59
5787.00,1.59
5786.00,1.59
5785.00,1.59
5784.00,1.59
5783.00,1.59
5782.00,1.59
5781.00,1.59
5780.00,1.59
5779.00,1.59
5778.00,1.58
5777.00,1.58
5776.00,1.58
5775.00,1.58
5774.00,1.58
5773.00,1.58
5772.00,1.58
5771.00,1.58
5770.00,1.58
5769.00,1.58
5768.00,1.58
5767.00,1.59
5766.00,1.59
5765.00,1.59
5764.00,1.59
5763.00,1.60
5762.00,1.60
5761.00,1.61
5760.00,1.61
5759.00,1.61
5758.00,1.62
5757.00,1.62
5756.00,1.63
5755.00,1.63
5754.00,1.63
5753.00,1.64
5752.00,1.64
5751.00,1.64
5750.00,1.64
5749.00,1.65
5748.00,1.65
5747.00,1.65
5746.00,1.65
5745.00,1.65
5744.00,1.65
5743.00,1.65
5742.00,1.65
5741.00,1.65
5740.00,1.65
5739.00,1.65
5738.00,1.65
5737.00,1.65
5736.00,1.65
5735.00,1.65
5734.00,1.65
5733.00,1.65
5732.00,1.65
5731.00,1.65
5730.00,1.65
5729.00,1.65
5728.00,1.65
5727.00,1.65
5726.00,1.65
5725.00,1.65
5724.00,1.65
5723.00,1.65
5722.00,1.65
5721.00,1.65
5720.00,1.64
5719.00,1.64
5718.00,1.64
5717.00,1.64
5716.00,1.63
5715.00,1.63
5714.00,1.63
5713.00,1.63
5712.00,1.62
5711.00,1.62
5710.00,1.62
5709.00,1.62
5708.00,1.62
5707.00,1.62
5706.00,1.62
5705.00,1.62
5704.00,1.62
5703.00,1.62
5702.00,1.62
5701.00,1.62
5700.00,1.62
5699.00,1.62
5698.00,1.62
5697.00,1.62
5696.00,1.62
5695.00,1.62
5694.00,1.62
5693.00,1.62
5692.00,1.62
5691.00,1.62
5690.00,1.62
5689.00,1.61
5688.00,1.61
5687.00,1.61
5686.00,1.61
5685.00,1.61
5684.00,1.61
5683.00,1.61
5682.00,1.61
5681.00,1.60
5680.00,1.60
5679.00,1.60
5678.00,1.60
5677.00,1.60
5676.00,1.60
5675.00,1.60
5674.00,1.60
5673.00,1.60
5672.00,1.60
5671.00,1.60
5670.00,1.60
5669.00,1.60
5668.00,1.60
5667.00,1.60
5666.00,1.60
5665.00,1.59
5664.00,1.59
5663.00,1.59
5662.00,1.59
5661.00,1.60
5660.00,1.60
5659.00,1.60
5658.00,1.60
5657.00,1.60
5656.00,1.60
5655.00,1.60
5654.00,1.60
5653.00,1.60
5652.00,1.60
5651.00,1.60
5650.00,1.60
5649.00,1.61
5648.00,1.61
5647.00,1.61
5646.00,1.61
5645.00,1.61
5644.00,1.61
5643.00,1.61
5642.00,1.61
5641.00,1.61
5640.00,1.61
5639.00,1.61
5638.00,1.61
5637.00,1.61
5636.00,1.62
5635.00,1.62
5634.00,1.62
5633.00,1.62
5632.00,1.62
5631.00,1.62
5630.00,1.63
5629.00,1.63
5628.00,1.63
5627.00,1.63
5626.00,1.63
5625.00,1.63
5624.00,1.63
5623.00,1.64
5622.00,1.64
5621.00,1.64
5620.00,1.64
5619.00,1.64
5618.00,1.64
5617.00,1.64
5616.00,1.64
5615.00,1.63
5614.00,1.63
5613.00,1.63
5612.00,1.63
5611.00,1.63
5610.00,1.63
5609.00,1.63
5608.00,1.63
5607.00,1.63
5606.00,1.63
5605.00,1.63
5604.00,1.63
5603.00,1.63
5602.00,1.63
5601.00,1.63
5600.00,1.63
5599.00,1.64
5598.00,1.64
5597.00,1.64
5596.00,1.64
5595.00,1.64
5594.00,1.64
5593.00,1.64
5592.00,1.65
5591.00,1.65
5590.00,1.65
5589.00,1.65
5588.00,1.66
5587.00,1.66
5586.00,1.66
5585.00,1.66
5584.00,1.66
5583.00,1.67
5582.00,1.67
5581.00,1.67
5580.00,1.67
5579.00,1.67
5578.00,1.68
5577.00,1.68
5576.00,1.68
5575.00,1.68
5574.00,1.68
5573.00,1.68
5572.00,1.68
5571.00,1.68
5570.00,1.68
5569.00,1.68
5568.00,1.68
5567.00,1.68
5566.00,1.67
5565.00,1.67
5564.00,1.67
5563.00,1.67
5562.00,1.67
5561.00,1.67
5560.00,1.67
5559.00,1.67
5558.00,1.67
5557.00,1.67
5556.00,1.67
5555.00,1.67
5554.00,1.67
5553.00,1.67
5552.00,1.67
5551.00,1.67
5550.00,1.67
5549.00,1.67
5548.00,1.67
5547.00,1.67
5546.00,1.67
5545.00,1.67
5544.00,1.67
5543.00,1.67
5542.00,1.67
5541.00,1.67
5540.00,1.67
5539.00,1.67
5538.00,1.67
5537.00,1.67
5536.00,1.67
5535.00,1.67
5534.00,1.67
5533.00,1.67
5532.00,1.68
5531.00,1.68
5530.00,1.68
5529.00,1.68
5528.00,1.68
5527.00,1.68
5526.00,1.69
5525.00,1.69
5524.00,1.69
5523.00,1.69
5522.00,1.69
5521.00,1.69
5520.00,1.69
5519.00,1.69
5518.00,1.69
5517.00,1.69
5516.00,1.69
5515.00,1.69
5514.00,1.69
5513.00,1.69
5512.00,1.69
5511.00,1.69
5510.00,1.69
5509.00,1.69
5508.00,1.69
5507.00,1.69
5506.00,1.69
5505.00,1.69
5504.00,1.69
5503.00,1.69
5502.00,1.69
5501.00,1.69
5500.00,1.70
5499.00,1.70
5498.00,1.70
5497.00,1.70
5496.00,1.70
5495.00,1.71
5494.00,1.71
5493.00,1.71
5492.00,1.71
5491.00,1.71
5490.00,1.71
5489.00,1.71
5488.00,1.71
5487.00,1.71
5486.00,1.72
5485.00,1.72
5484.00,1.72
5483.00,1.72
5482.00,1.72
5481.00,1.72
5480.00,1.72
5479.00,1.72
5478.00,1.72
5477.00,1.72
5476.00,1.71
5475.00,1.71
5474.00,1.71
5473.00,1.71
5472.00,1.71
5471.00,1.71
5470.00,1.71
5469.00,1.70
5468.00,1.70
5467.00,1.70
5466.00,1.70
5465.00,1.69
5464.00,1.69
5463.00,1.69
5462.00,1.69
5461.00,1.69
5460.00,1.69
5459.00,1.69
5458.00,1.69
5457.00,1.69
5456.00,1.69
5455.00,1.69
5454.00,1.69
5453.00,1.69
5452.00,1.69
5451.00,1.69
5450.00,1.70
5449.00,1.70
5448.00,1.70
5447.00,1.70
5446.00,1.70
5445.00,1.70
5444.00,1.70
5443.00,1.71
5442.00,1.71
5441.00,1.71
5440.00,1.71
5439.00,1.71
5438.00,1.71
5437.00,1.71
5436.00,1.71
5435.00,1.71
5434.00,1.71
5433.00,1.71
5432.00,1.71
5431.00,1.71
5430.00,1.71
5429.00,1.71
5428.00,1.71
5427.00,1.71
5426.00,1.71
5425.00,1.71
5424.00,1.71
5423.00,1.71
5422.00,1.71
5421.00,1.71
5420.00,1.71
5419.00,1.71
5418.00,1.71
5417.00,1.71
5416.00,1.71
5415.00,1.71
5414.00,1.71
5413.00,1.71
5412.00,1.71
5411.00,1.71
5410.00,1.71
5409.00,1.71
5408.00,1.71
5407.00,1.71
5406.00,1.71
5405.00,1.71
5404.00,1.71
5403.00,1.70
5402.00,1.70
5401.00,1.70
5400.00,1.70
5399.00,1.70
5398.00,1.70
5397.00,1.70
5396.00,1.70
5395.00,1.70
5394.00,1.69
5393.00,1.69
5392.00,1.69
5391.00,1.69
5390.00,1.68
5389.00,1.68
5388.00,1.68
5387.00,1.68
5386.00,1.67
5385.00,1.67
5384.00,1.67
5383.00,1.66
5382.00,1.66
5381.00,1.66
5380.00,1.66
5379.00,1.66
5378.00,1.65
5377.00,1.65
5376.00,1.65
5375.00,1.65
5374.00,1.65
5373.00,1.65
5372.00,1.65
5371.00,1.65
5370.00,1.65
5369.00,1.65
5368.00,1.65
5367.00,1.66
5366.00,1.66
5365.00,1.66
5364.00,1.66
5363.00,1.66
5362.00,1.66
5361.00,1.66
5360.00,1.66
5359.00,1.66
5358.00,1.66
5357.00,1.66
5356.00,1.66
5355.00,1.66
5354.00,1.66
5353.00,1.65
5352.00,1.65
5351.00,1.65
5350.00,1.64
5349.00,1.64
5348.00,1.63
5347.00,1.62
5346.00,1.62
5345.00,1.61
5344.00,1.60
5343.00,1.59
5342.00,1.59
5341.00,1.58
5340.00,1.57
5339.00,1.56
5338.00,1.55
5337.00,1.54
5336.00,1.54
5335.00,1.53
5334.00,1.52
5333.00,1.51
5332.00,1.50
5331.00,1.49
5330.00,1.48
5329.00,1.48
5328.00,1.47
5327.00,1.46
5326.00,1.45
5325.00,1.44
5324.00,1.44
5323.00,1.43
5322.00,1.42
5321.00,1.41
5320.00,1.40
5319.00,1.39
5318.00,1.39
5317.00,1.38
5316.00,1.37
5315.00,1.36
5314.00,1.35
5313.00,1.34
5312.00,1.33
5311.00,1.32
5310.00,1.31
5309.00,1.30
5308.00,1.29
5307.00,1.28
5306.00,1.27
5305.00,1.26
5304.00,1.26
5303.00,1.25
5302.00,1.24
5301.00,1.23
5300.00,1.22
5299.00,1.21
5298.00,1.20
5297.00,1.20
5296.00,1.19
5295.00,1.18
5294.00,1.18
5293.00,1.17
5292.00,1.16
5291.00,1.16
5290.00,1.15
5289.00,1.14
5288.00,1.14
5287.00,1.13
5286.00,1.13
5285.00,1.12
5284.00,1.11
5283.00,1.11
5282.00,1.10
5281.00,1.10
5280.00,1.09
5279.00,1.08
5278.00,1.08
5277.00,1.07
5276.00,1.07
5275.00,1.06
5274.00,1.06
5273.00,1.05
5272.00,1.05
5271.00,1.04
5270.00,1.04
5269.00,1.03
5268.00,1.03
5267.00,1.02
5266.00,1.02
5265.00,1.02
5264.00,1.01
5263.00,1.01
5262.00,1.00
5261.00,1.00
5260.00,0.99
5259.00,0.99
5258.00,0.98
5257.00,0.98
5256.00,0.98
5255.00,0.97
5254.00,0.97
5253.00,0.96
5252.00,0.96
5251.00,0.96
5250.00,0.95
5249.00,0.95
5248.00,0.95
5247.00,0.94
5246.00,0.94
5245.00,0.94
5244.00,0.94
5243.00,0.94
5242.00,0.94
5241.00,0.93
5240.00,0.93
5239.00,0.93
5238.00,0.93
5237.00,0.93
5236.00,0.93
5235.00,0.93
5234.00,0.93
5233.00,0.93
5232.00,0.93
5231.00,0.93
5230.00,0.93
5229.00,0.92
5228.00,0.92
5227.00,0.92
5226.00,0.92
5225.00,0.92
5224.00,0.92
5223.00,0.92
5222.00,0.91
5221.00,0.91
5220.00,0.91
5219.00,0.91
5218.00,0.91
5217.00,0.91
5216.00,0.91
5215.00,0.91
5214.00,0.91
5213.00,0.91
5212.00,0.91
5211.00,0.90
5210.00,0.90
5209.00,0.90
5208.00,0.90
5207.00,0.90
5206.00,0.90
5205.00,0.89
5204.00,0.89
5203.00,0.89
5202.00,0.89
5201.00,0.88
5200.00,0.88
5199.00,0.88
5198.00,0.88
5197.00,0.87
5196.00,0.87
5195.00,0.87
5194.00,0.87
5193.00,0.87
5192.00,0.86
5191.00,0.86
5190.00,0.86
5189.00,0.86
5188.00,0.86
5187.00,0.86
5186.00,0.86
5185.00,0.86
5184.00,0.86
5183.00,0.86
5182.00,0.86
5181.00,0.85
5180.00,0.85
5179.00,0.85
5178.00,0.85
5177.00,0.85
5176.00,0.85
5175.00,0.85
5174.00,0.85
5173.00,0.85
5172.00,0.85
5171.00,0.85
5170.00,0.85
5169.00,0.85
5168.00,0.85
5167.00,0.85
5166.00,0.85
5165.00,0.85
5164.00,0.86
5163.00,0.86
5162.00,0.86
5161.00,0.86
5160.00,0.86
5159.00,0.87
5158.00,0.87
5157.00,0.87
5156.00,0.87
5155.00,0.88
5154.00,0.88
5153.00,0.88
5152.00,0.88
5151.00,0.88
5150.00,0.88
5149.00,0.88
5148.00,0.88
5147.00,0.88
5146.00,0.88
5145.00,0.88
5144.00,0.88
5143.00,0.88
5142.00,0.88
5141.00,0.87
5140.00,0.87
5139.00,0.87
5138.00,0.87
5137.00,0.87
5136.00,0.87
5135.00,0.87
5134.00,0.87
5133.00,0.87
5132.00,0.87
5131.00,0.87
5130.00,0.87
5129.00,0.87
5128.00,0.87
5127.00,0.87
5126.00,0.87
5125.00,0.88
5124.00,0.88
5123.00,0.88
5122.00,0.88
5121.00,0.88
5120.00,0.89
5119.00,0.89
5118.00,0.89
5117.00,0.90
5116.00,0.90
5115.00,0.91
5114.00,0.91
5113.00,0.91
5112.00,0.92
5111.00,0.92
5110.00,0.92
5109.00,0.93
5108.00,0.93
5107.00,0.93
5106.00,0.93
5105.00,0.93
5104.00,0.94
5103.00,0.94
5102.00,0.94
5101.00,0.94
5100.00,0.94
5099.00,0.94
5098.00,0.95
5097.00,0.95
5096.00,0.95
5095.00,0.95
5094.00,0.95
5093.00,0.96
5092.00,0.96
5091.00,0.96
5090.00,0.96
5089.00,0.97
5088.00,0.97
5087.00,0.97
5086.00,0.97
5085.00,0.97
5084.00,0.98
5083.00,0.98
5082.00,0.98
5081.00,0.98
5080.00,0.99
5079.00,0.99
5078.00,0.99
5077.00,0.99
5076.00,0.99
5075.00,0.99
5074.00,0.99
5073.00,0.99
5072.00,1.00
5071.00,1.00
5070.00,1.00
5069.00,1.00
5068.00,1.00
5067.00,1.00
5066.00,1.00
5065.00,1.00
5064.00,1.00
5063.00,1.01
5062.00,1.01
5061.00,1.01
5060.00,1.01
5059.00,1.01
5058.00,1.01
5057.00,1.01
5056.00,1.02
5055.00,1.02
5054.00,1.02
5053.00,1.02
5052.00,1.03
5051.00,1.03
5050.00,1.03
5049.00,1.03
5048.00,1.03
5047.00,1.04
5046.00,1.04
5045.00,1.04
5044.00,1.04
5043.00,1.04
5042.00,1.04
5041.00,1.05
5040.00,1.05
5039.00,1.05
5038.00,1.06
5037.00,1.06
5036.00,1.06
5035.00,1.06
5034.00,1.06
5033.00,1.06
5032.00,1.07
5031.00,1.07
5030.00,1.07
5029.00,1.07
5028.00,1.07
5027.00,1.08
5026.00,1.08
5025.00,1.08
5024.00,1.08
5023.00,1.08
5022.00,1.09
5021.00,1.09
5020.00,1.09
5019.00,1.09
5018.00,1.10
5017.00,1.10
5016.00,1.10
5015.00,1.10
5014.00,1.11
5013.00,1.11
5012.00,1.11
5011.00,1.12
5010.00,1.12
5009.00,1.12
5008.00,1.12
5007.00,1.12
5006.00,1.13
5005.00,1.13
5004.00,1.13
5003.00,1.13
5002.00,1.13
5001.00,1.13
5000.00,1.13
4999.00,1.13
4998.00,1.13
4997.00,1.13
4996.00,1.14
4995.00,1.14
4994.00,1.14
4993.00,1.14
4992.00,1.14
4991.00,1.15
4990.00,1.15
4989.00,1.15
4988.00,1.15
4987.00,1.16
4986.00,1.16
4985.00,1.17
4984.00,1.17
4983.00,1.18
4982.00,1.18
4981.00,1.18
4980.00,1.18
4979.00,1.19
4978.00,1.19
4977.00,1.19
4976.00,1.19
4975.00,1.20
4974.00,1.20
4973.00,1.20
4972.00,1.20
4971.00,1.20
4970.00,1.21
4969.00,1.21
4968.00,1.21
4967.00,1.21
4966.00,1.21
4965.00,1.21
4964.00,1.21
4963.00,1.21
4962.00,1.21
4961.00,1.21
4960.00,1.22
4959.00,1.22
4958.00,1.22
4957.00,1.22
4956.00,1.22
4955.00,1.23
4954.00,1.23
4953.00,1.23
4952.00,1.23
4951.00,1.23
4950.00,1.23
4949.00,1.24
4948.00,1.24
4947.00,1.24
4946.00,1.24
4945.00,1.24
4944.00,1.25
4943.00,1.25
4942.00,1.25
4941.00,1.25
4940.00,1.26
4939.00,1.26
4938.00,1.26
4937.00,1.27
4936.00,1.27
4935.00,1.27
4934.00,1.28
4933.00,1.28
4932.00,1.28
4931.00,1.28
4930.00,1.29
4929.00,1.29
4928.00,1.29
4927.00,1.30
4926.00,1.30
4925.00,1.30
4924.00,1.30
4923.00,1.30
4922.00,1.31
4921.00,1.31
4920.00,1.31
4919.00,1.31
4918.00,1.32
4917.00,1.32
4916.00,1.32
4915.00,1.32
4914.00,1.32
4913.00,1.32
4912.00,1.32
4911.00,1.32
4910.00,1.32
4909.00,1.32
4908.00,1.32
4907.00,1.32
4906.00,1.31
4905.00,1.31
4904.00,1.31
4903.00,1.31
4902.00,1.31
4901.00,1.31
4900.00,1.31
4899.00,1.31
4898.00,1.31
4897.00,1.31
4896.00,1.31
4895.00,1.31
4894.00,1.31
4893.00,1.32
4892.00,1.32
4891.00,1.32
4890.00,1.32
4889.00,1.32
4888.00,1.33
4887.00,1.33
4886.00,1.33
4885.00,1.33
4884.00,1.33
4883.00,1.34
4882.00,1.34
4881.00,1.34
4880.00,1.34
4879.00,1.34
4878.00,1.35
4877.00,1.35
4876.00,1.35
4875.00,1.35
4874.00,1.35
4873.00,1.36
4872.00,1.36
4871.00,1.36
4870.00,1.36
4869.00,1.37
4868.00,1.37
4867.00,1.37
4866.00,1.37
4865.00,1.37
4864.00,1.37
4863.00,1.36
4862.00,1.36
4861.00,1.36
4860.00,1.36
4859.00,1.36
4858.00,1.36
4857.00,1.35
4856.00,1.35
4855.00,1.35
4854.00,1.35
4853.00,1.34
4852.00,1.34
4851.00,1.34
4850.00,1.34
4849.00,1.34
4848.00,1.34
4847.00,1.34
4846.00,1.34
4845.00,1.34
4844.00,1.34
4843.00,1.35
4842.00,1.35
4841.00,1.35
4840.00,1.35
4839.00,1.35
4838.00,1.35
4837.00,1.35
4836.00,1.36
4835.00,1.36
4834.00,1.36
4833.00,1.36
4832.00,1.36
4831.00,1.36
4830.00,1.37
4829.00,1.37
4828.00,1.37
4827.00,1.38
4826.00,1.38
4825.00,1.38
4824.00,1.39
4823.00,1.39
4822.00,1.40
4821.00,1.40
4820.00,1.40
4819.00,1.41
4818.00,1.41
4817.00,1.41
4816.00,1.42
4815.00,1.42
4814.00,1.42
4813.00,1.42
4812.00,1.42
4811.00,1.43
4810.00,1.43
4809.00,1.43
4808.00,1.43
4807.00,1.43
4806.00,1.43
4805.00,1.44
4804.00,1.44
4803.00,1.44
4802.00,1.44
4801.00,1.44
4800.00,1.44
4799.00,1.44
4798.00,1.44
4797.00,1.44
4796.00,1.44
4795.00,1.44
4794.00,1.45
4793.00,1.45
4792.00,1.45
4791.00,1.45
4790.00,1.45
4789.00,1.45
4788.00,1.45
4787.00,1.45
4786.00,1.45
4785.00,1.45
4784.00,1.46
4783.00,1.46
4782.00,1.46
4781.00,1.46
4780.00,1.46
4779.00,1.47
4778.00,1.47
4777.00,1.47
4776.00,1.47
4775.00,1.47
4774.00,1.47
4773.00,1.47
4772.00,1.47
4771.00,1.47
4770.00,1.47
4769.00,1.47
4768.00,1.47
4767.00,1.47
4766.00,1.47
4765.00,1.47
4764.00,1.47
4763.00,1.47
4762.00,1.48
4761.00,1.48
4760.00,1.48
4759.00,1.48
4758.00,1.49
4757.00,1.49
4756.00,1.49
4755.00,1.49
4754.00,1.50
4753.00,1.50
4752.00,1.50
4751.00,1.51
4750.00,1.51
4749.00,1.51
4748.00,1.52
4747.00,1.52
4746.00,1.52
4745.00,1.52
4744.00,1.53
4743.00,1.53
4742.00,1.53
4741.00,1.54
4740.00,1.54
4739.00,1.54
4738.00,1.55
4737.00,1.55
4736.00,1.55
4735.00,1.55
4734.00,1.55
4733.00,1.55
4732.00,1.55
4731.00,1.56
4730.00,1.56
4729.00,1.56
4728.00,1.56
4727.00,1.56
4726.00,1.56
4725.00,1.56
4724.00,1.56
4723.00,1.56
4722.00,1.56
4721.00,1.56
4720.00,1.56
4719.00,1.56
4718.00,1.56
4717.00,1.56
4716.00,1.56
4715.00,1.56
4714.00,1.57
4713.00,1.57
4712.00,1.57
4711.00,1.57
4710.00,1.57
4709.00,1.57
4708.00,1.57
4707.00,1.58
4706.00,1.58
4705.00,1.58
4704.00,1.59
4703.00,1.59
4702.00,1.59
4701.00,1.59
4700.00,1.59
4699.00,1.60
4698.00,1.60
4697.00,1.60
4696.00,1.61
4695.00,1.61
4694.00,1.61
4693.00,1.61
4692.00,1.61
4691.00,1.62
4690.00,1.61
4689.00,1.61
4688.00,1.61
4687.00,1.61
4686.00,1.61
4685.00,1.60
4684.00,1.60
4683.00,1.60
4682.00,1.59
4681.00,1.59
4680.00,1.58
4679.00,1.58
4678.00,1.58
4677.00,1.57
4676.00,1.57
4675.00,1.57
4674.00,1.57
4673.00,1.57
4672.00,1.57
4671.00,1.57
4670.00,1.57
4669.00,1.58
4668.00,1.58
4667.00,1.58
4666.00,1.59
4665.00,1.60
4664.00,1.60
4663.00,1.61
4662.00,1.61
4661.00,1.62
4660.00,1.62
4659.00,1.63
4658.00,1.64
4657.00,1.64
4656.00,1.65
4655.00,1.65
4654.00,1.65
4653.00,1.66
4652.00,1.66
4651.00,1.67
4650.00,1.67
4649.00,1.67
4648.00,1.68
4647.00,1.68
4646.00,1.68
4645.00,1.68
4644.00,1.69
4643.00,1.69
4642.00,1.69
4641.00,1.69
4640.00,1.69
4639.00,1.69
4638.00,1.69
4637.00,1.69
4636.00,1.69
4635.00,1.69
4634.00,1.69
4633.00,1.69
4632.00,1.68
4631.00,1.68
4630.00,1.67
4629.00,1.67
4628.00,1.66
4627.00,1.65
4626.00,1.65
4625.00,1.64
4624.00,1.64
4623.00,1.63
4622.00,1.63
4621.00,1.63
4620.00,1.62
4619.00,1.62
4618.00,1.62
4617.00,1.62
4616.00,1.61
4615.00,1.61
4614.00,1.62
4613.00,1.62
4612.00,1.62
4611.00,1.62
4610.00,1.63
4609.00,1.63
4608.00,1.63
4607.00,1.63
4606.00,1.64
4605.00,1.64
4604.00,1.64
4603.00,1.64
4602.00,1.65
4601.00,1.65
4600.00,1.66
4599.00,1.66
4598.00,1.66
4597.00,1.67
4596.00,1.67
4595.00,1.67
4594.00,1.67
4593.00,1.68
4592.00,1.68
4591.00,1.68
4590.00,1.68
4589.00,1.69
4588.00,1.69
4587.00,1.69
4586.00,1.69
4585.00,1.69
4584.00,1.69
4583.00,1.69
4582.00,1.69
4581.00,1.69
4580.00,1.69
4579.00,1.69
4578.00,1.69
4577.00,1.68
4576.00,1.68
4575.00,1.68
4574.00,1.68
4573.00,1.68
4572.00,1.68
4571.00,1.67
4570.00,1.67
4569.00,1.67
4568.00,1.67
4567.00,1.67
4566.00,1.67
4565.00,1.67
4564.00,1.68
4563.00,1.68
4562.00,1.68
4561.00,1.68
4560.00,1.68
4559.00,1.68
4558.00,1.68
4557.00,1.68
4556.00,1.69
4555.00,1.69
4554.00,1.69
4553.00,1.69
4552.00,1.69
4551.00,1.69
4550.00,1.69
4549.00,1.69
4548.00,1.69
4547.00,1.70
4546.00,1.70
4545.00,1.70
4544.00,1.70
4543.00,1.70
4542.00,1.70
4541.00,1.70
4540.00,1.70
4539.00,1.70
4538.00,1.70
4537.00,1.70
4536.00,1.70
4535.00,1.70
4534.00,1.70
4533.00,1.70
4532.00,1.70
4531.00,1.69
4530.00,1.69
4529.00,1.69
4528.00,1.69
4527.00,1.69
4526.00,1.69
4525.00,1.69
4524.00,1.68
4523.00,1.68
4522.00,1.68
4521.00,1.68
4520.00,1.68
4519.00,1.68
4518.00,1.68
4517.00,1.69
4516.00,1.69
4515.00,1.69
4514.00,1.69
4513.00,1.69
4512.00,1.70
4511.00,1.70
4510.00,1.70
4509.00,1.70
4508.00,1.71
4507.00,1.71
4506.00,1.71
4505.00,1.71
4504.00,1.71
4503.00,1.71
4502.00,1.71
4501.00,1.71
4500.00,1.71
4499.00,1.71
4498.00,1.71
4497.00,1.71
4496.00,1.70
4495.00,1.70
4494.00,1.70
4493.00,1.70
4492.00,1.70
4491.00,1.70
4490.00,1.69
4489.00,1.69
4488.00,1.69
4487.00,1.69
4486.00,1.69
4485.00,1.69
4484.00,1.69
4483.00,1.68
4482.00,1.68
4481.00,1.68
4480.00,1.68
4479.00,1.68
4478.00,1.68
4477.00,1.68
4476.00,1.68
4475.00,1.68
4474.00,1.68
4473.00,1.68
4472.00,1.68
4471.00,1.68
4470.00,1.67
4469.00,1.67
4468.00,1.67
4467.00,1.67
4466.00,1.67
4465.00,1.67
4464.00,1.66
4463.00,1.66
4462.00,1.66
4461.00,1.66
4460.00,1.66
4459.00,1.66
4458.00,1.66
4457.00,1.65
4456.00,1.65
4455.00,1.65
4454.00,1.65
4453.00,1.64
4452.00,1.64
4451.00,1.64
4450.00,1.63
4449.00,1.63
4448.00,1.62
4447.00,1.62
4446.00,1.61
4445.00,1.60
4444.00,1.59
4443.00,1.59
4442.00,1.58
4441.00,1.57
4440.00,1.56
4439.00,1.55
4438.00,1.54
4437.00,1.54
4436.00,1.53
4435.00,1.52
4434.00,1.51
4433.00,1.50
4432.00,1.49
4431.00,1.49
4430.00,1.48
4429.00,1.47
4428.00,1.46
4427.00,1.46
4426.00,1.45
4425.00,1.44
4424.00,1.44
4423.00,1.43
4422.00,1.42
4421.00,1.41
4420.00,1.41
4419.00,1.40
4418.00,1.39
4417.00,1.39
4416.00,1.38
4415.00,1.38
4414.00,1.38
4413.00,1.37
4412.00,1.37
4411.00,1.37
4410.00,1.37
4409.00,1.36
4408.00,1.36
4407.00,1.36
4406.00,1.36
4405.00,1.36
4404.00,1.36
4403.00,1.36
4402.00,1.36
4401.00,1.36
4400.00,1.37
4399.00,1.37
4398.00,1.37
4397.00,1.37
4396.00,1.38
4395.00,1.38
4394.00,1.38
4393.00,1.39
4392.00,1.39
4391.00,1.40
4390.00,1.41
4389.00,1.41
4388.00,1.42
4387.00,1.43
4386.00,1.43
4385.00,1.44
4384.00,1.44
4383.00,1.45
4382.00,1.46
4381.00,1.46
4380.00,1.46
4379.00,1.46
4378.00,1.47
4377.00,1.47
4376.00,1.47
4375.00,1.47
4374.00,1.47
4373.00,1.46
4372.00,1.46
4371.00,1.46
4370.00,1.45
4369.00,1.45
4368.00,1.44
4367.00,1.44
4366.00,1.43
4365.00,1.43
4364.00,1.42
4363.00,1.42
4362.00,1.42
4361.00,1.41
4360.00,1.41
4359.00,1.40
4358.00,1.40
4357.00,1.40
4356.00,1.39
4355.00,1.39
4354.00,1.39
4353.00,1.39
4352.00,1.39
4351.00,1.39
4350.00,1.38
4349.00,1.38
4348.00,1.38
4347.00,1.38
4346.00,1.38
4345.00,1.38
4344.00,1.38
4343.00,1.37
4342.00,1.37
4341.00,1.38
4340.00,1.38
4339.00,1.38
4338.00,1.38
4337.00,1.38
4336.00,1.38
4335.00,1.39
4334.00,1.39
4333.00,1.39
4332.00,1.40
4331.00,1.40
4330.00,1.41
4329.00,1.42
4328.00,1.42
4327.00,1.43
4326.00,1.44
4325.00,1.44
4324.00,1.45
4323.00,1.46
4322.00,1.47
4321.00,1.47
4320.00,1.48
4319.00,1.49
4318.00,1.49
4317.00,1.50
4316.00,1.51
4315.00,1.52
4314.00,1.52
4313.00,1.53
4312.00,1.54
4311.00,1.55
4310.00,1.55
4309.00,1.56
4308.00,1.57
4307.00,1.57
4306.00,1.58
4305.00,1.59
4304.00,1.60
4303.00,1.60
4302.00,1.61
4301.00,1.62
4300.00,1.62
4299.00,1.63
4298.00,1.64
4297.00,1.64
4296.00,1.65
4295.00,1.65
4294.00,1.65
4293.00,1.66
4292.00,1.66
4291.00,1.66
4290.00,1.66
4289.00,1.66
4288.00,1.66
4287.00,1.66
4286.00,1.65
4285.00,1.65
4284.00,1.64
4283.00,1.64
4282.00,1.63
4281.00,1.62
4280.00,1.62
4279.00,1.61
4278.00,1.60
4277.00,1.60
4276.00,1.59
4275.00,1.59
4274.00,1.58
4273.00,1.58
4272.00,1.57
4271.00,1.57
4270.00,1.56
4269.00,1.56
4268.00,1.56
4267.00,1.55
4266.00,1.55
4265.00,1.55
4264.00,1.55
4263.00,1.55
4262.00,1.54
4261.00,1.54
4260.00,1.54
4259.00,1.54
4258.00,1.54
4257.00,1.53
4256.00,1.53
4255.00,1.53
4254.00,1.53
4253.00,1.53
4252.00,1.53
4251.00,1.54
4250.00,1.54
4249.00,1.54
4248.00,1.54
4247.00,1.54
4246.00,1.54
4245.00,1.55
4244.00,1.55
4243.00,1.55
4242.00,1.55
4241.00,1.56
4240.00,1.56
4239.00,1.56
4238.00,1.56
4237.00,1.56
4236.00,1.57
4235.00,1.57
4234.00,1.57
4233.00,1.57
4232.00,1.57
4231.00,1.57
4230.00,1.57
4229.00,1.57
4228.00,1.57
4227.00,1.58
4226.00,1.58
4225.00,1.58
4224.00,1.58
4223.00,1.58
4222.00,1.59
4221.00,1.59
4220.00,1.59
4219.00,1.59
4218.00,1.59
4217.00,1.59
4216.00,1.60
4215.00,1.60
4214.00,1.60
4213.00,1.60
4212.00,1.60
4211.00,1.61
4210.00,1.61
4209.00,1.61
4208.00,1.61
4207.00,1.61
4206.00,1.62
4205.00,1.62
4204.00,1.63
4203.00,1.63
4202.00,1.63
4201.00,1.64
4200.00,1.64
4199.00,1.64
4198.00,1.65
4197.00,1.65
4196.00,1.65
4195.00,1.66
4194.00,1.66
4193.00,1.66
4192.00,1.66
4191.00,1.66
4190.00,1.66
4189.00,1.65
4188.00,1.65
4187.00,1.65
4186.00,1.65
4185.00,1.64
4184.00,1.64
4183.00,1.64
4182.00,1.63
4181.00,1.63
4180.00,1.62
4179.00,1.62
4178.00,1.62
4177.00,1.62
4176.00,1.61
4175.00,1.61
4174.00,1.61
4173.00,1.60
4172.00,1.60
4171.00,1.60
4170.00,1.59
4169.00,1.59
4168.00,1.58
4167.00,1.58
4166.00,1.58
4165.00,1.58
4164.00,1.57
4163.00,1.57
4162.00,1.57
4161.00,1.57
4160.00,1.56
4159.00,1.56
4158.00,1.56
4157.00,1.56
4156.00,1.56
4155.00,1.56
4154.00,1.56
4153.00,1.56
4152.00,1.56
4151.00,1.56
4150.00,1.56
4149.00,1.56
4148.00,1.56
4147.00,1.56
4146.00,1.56
4145.00,1.55
4144.00,1.55
4143.00,1.55
4142.00,1.55
4141.00,1.54
4140.00,1.54
4139.00,1.53
4138.00,1.53
4137.00,1.52
4136.00,1.52
4135.00,1.51
4134.00,1.51
4133.00,1.50
4132.00,1.50
4131.00,1.50
4130.00,1.49
4129.00,1.49
4128.00,1.49
4127.00,1.49
4126.00,1.49
4125.00,1.49
4124.00,1.50
4123.00,1.50
4122.00,1.50
4121.00,1.50
4120.00,1.51
4119.00,1.51
4118.00,1.51
4117.00,1.51
4116.00,1.51
4115.00,1.51
4114.00,1.51
4113.00,1.50
4112.00,1.50
4111.00,1.49
4110.00,1.48
4109.00,1.48
4108.00,1.47
4107.00,1.46
4106.00,1.46
4105.00,1.45
4104.00,1.44
4103.00,1.43
4102.00,1.42
4101.00,1.42
4100.00,1.41
4099.00,1.41
4098.00,1.40
4097.00,1.40
4096.00,1.40
4095.00,1.40
4094.00,1.40
4093.00,1.40
4092.00,1.40
4091.00,1.40
4090.00,1.40
4089.00,1.39
4088.00,1.39
4087.00,1.39
4086.00,1.39
4085.00,1.39
4084.00,1.39
4083.00,1.39
4082.00,1.38
4081.00,1.38
4080.00,1.38
4079.00,1.37
4078.00,1.37
4077.00,1.37
4076.00,1.36
4075.00,1.36
4074.00,1.36
4073.00,1.36
4072.00,1.36
4071.00,1.36
4070.00,1.36
4069.00,1.36
4068.00,1.36
4067.00,1.37
4066.00,1.37
4065.00,1.37
4064.00,1.37
4063.00,1.37
4062.00,1.37
4061.00,1.37
4060.00,1.38
4059.00,1.38
4058.00,1.38
4057.00,1.39
4056.00,1.39
4055.00,1.40
4054.00,1.40
4053.00,1.41
4052.00,1.41
4051.00,1.41
4050.00,1.42
4049.00,1.42
4048.00,1.42
4047.00,1.43
4046.00,1.43
4045.00,1.43
4044.00,1.43
4043.00,1.43
4042.00,1.43
4041.00,1.42
4040.00,1.42
4039.00,1.41
4038.00,1.41
4037.00,1.40
4036.00,1.39
4035.00,1.39
4034.00,1.38
4033.00,1.38
4032.00,1.37
4031.00,1.37
4030.00,1.36
4029.00,1.36
4028.00,1.36
4027.00,1.36
4026.00,1.36
4025.00,1.36
4024.00,1.37
4023.00,1.37
4022.00,1.38
4021.00,1.38
4020.00,1.39
4019.00,1.40
4018.00,1.41
4017.00,1.42
4016.00,1.43
4015.00,1.44
4014.00,1.45
4013.00,1.47
4012.00,1.48
4011.00,1.50
4010.00,1.51
4009.00,1.53
4008.00,1.55
4007.00,1.57
4006.00,1.59
4005.00,1.61
4004.00,1.64
4003.00,1.66
4002.00,1.68
4001.00,1.71
4000.00,1.73
