创建为新数据集,样品 685 用户 Administrator 日期 星期四, 七月 25 2019
cm-1,%T
10000.00,0.78
9999.00,0.80
9998.00,0.82
9997.00,0.84
9996.00,0.86
9995.00,0.88
9994.00,0.90
9993.00,0.92
9992.00,0.94
9991.00,0.95
9990.00,0.97
9989.00,0.98
9988.00,0.99
9987.00,0.99
9986.00,1.00
9985.00,1.00
9984.00,1.00
9983.00,1.00
9982.00,1.00
9981.00,1.00
9980.00,1.00
9979.00,0.99
9978.00,0.99
9977.00,0.98
9976.00,0.98
9975.00,0.97
9974.00,0.97
9973.00,0.96
9972.00,0.96
9971.00,0.95
9970.00,0.95
9969.00,0.95
9968.00,0.95
9967.00,0.95
9966.00,0.95
9965.00,0.95
9964.00,0.95
9963.00,0.95
9962.00,0.95
9961.00,0.95
9960.00,0.95
9959.00,0.95
9958.00,0.95
9957.00,0.95
9956.00,0.95
9955.00,0.94
9954.00,0.94
9953.00,0.94
9952.00,0.94
9951.00,0.94
9950.00,0.94
9949.00,0.94
9948.00,0.94
9947.00,0.94
9946.00,0.94
9945.00,0.94
9944.00,0.93
9943.00,0.93
9942.00,0.93
9941.00,0.93
9940.00,0.93
9939.00,0.92
9938.00,0.92
9937.00,0.91
9936.00,0.91
9935.00,0.90
9934.00,0.89
9933.00,0.89
9932.00,0.88
9931.00,0.88
9930.00,0.87
9929.00,0.87
9928.00,0.86
9927.00,0.86
9926.00,0.87
9925.00,0.87
9924.00,0.88
9923.00,0.88
9922.00,0.89
9921.00,0.90
9920.00,0.92
9919.00,0.93
9918.00,0.93
9917.00,0.94
9916.00,0.95
9915.00,0.95
9914.00,0.96
9913.00,0.96
9912.00,0.95
9911.00,0.95
9910.00,0.95
9909.00,0.94
9908.00,0.93
9907.00,0.92
9906.00,0.91
9905.00,0.90
9904.00,0.89
9903.00,0.88
9902.00,0.87
9901.00,0.86
9900.00,0.86
9899.00,0.85
9898.00,0.85
9897.00,0.85
9896.00,0.85
9895.00,0.86
9894.00,0.86
9893.00,0.87
9892.00,0.88
9891.00,0.89
9890.00,0.90
9889.00,0.91
9888.00,0.91
9887.00,0.92
9886.00,0.93
9885.00,0.93
9884.00,0.93
9883.00,0.93
9882.00,0.93
9881.00,0.93
9880.00,0.92
9879.00,0.92
9878.00,0.91
9877.00,0.90
9876.00,0.88
9875.00,0.87
9874.00,0.86
9873.00,0.85
9872.00,0.84
9871.00,0.82
9870.00,0.81
9869.00,0.80
9868.00,0.79
9867.00,0.79
9866.00,0.78
9865.00,0.77
9864.00,0.76
9863.00,0.76
9862.00,0.75
9861.00,0.74
9860.00,0.74
9859.00,0.73
9858.00,0.73
9857.00,0.72
9856.00,0.72
9855.00,0.72
9854.00,0.72
9853.00,0.72
9852.00,0.72
9851.00,0.72
9850.00,0.72
9849.00,0.72
9848.00,0.72
9847.00,0.73
9846.00,0.74
9845.00,0.74
9844.00,0.75
9843.00,0.76
9842.00,0.76
9841.00,0.77
9840.00,0.77
9839.00,0.78
9838.00,0.78
9837.00,0.78
9836.00,0.78
9835.00,0.78
9834.00,0.78
9833.00,0.77
9832.00,0.77
9831.00,0.77
9830.00,0.76
9829.00,0.75
9828.00,0.75
9827.00,0.74
9826.00,0.74
9825.00,0.74
9824.00,0.73
9823.00,0.73
9822.00,0.73
9821.00,0.73
9820.00,0.73
9819.00,0.73
9818.00,0.73
9817.00,0.73
9816.00,0.73
9815.00,0.73
9814.00,0.74
9813.00,0.74
9812.00,0.74
9811.00,0.74
9810.00,0.74
9809.00,0.74
9808.00,0.74
9807.00,0.74
9806.00,0.73
9805.00,0.73
9804.00,0.73
9803.00,0.73
9802.00,0.73
9801.00,0.73
9800.00,0.73
9799.00,0.74
9798.00,0.74
9797.00,0.74
9796.00,0.75
9795.00,0.75
9794.00,0.75
9793.00,0.76
9792.00,0.76
9791.00,0.76
9790.00,0.76
9789.00,0.76
9788.00,0.75
9787.00,0.75
9786.00,0.74
9785.00,0.74
9784.00,0.73
9783.00,0.72
9782.00,0.71
9781.00,0.70
9780.00,0.69
9779.00,0.68
9778.00,0.67
9777.00,0.67
9776.00,0.66
9775.00,0.66
9774.00,0.66
9773.00,0.66
9772.00,0.66
9771.00,0.67
9770.00,0.67
9769.00,0.68
9768.00,0.69
9767.00,0.70
9766.00,0.71
9765.00,0.72
9764.00,0.73
9763.00,0.74
9762.00,0.74
9761.00,0.75
9760.00,0.76
9759.00,0.76
9758.00,0.77
9757.00,0.77
9756.00,0.77
9755.00,0.77
9754.00,0.77
9753.00,0.77
9752.00,0.77
9751.00,0.76
9750.00,0.76
9749.00,0.75
9748.00,0.75
9747.00,0.74
9746.00,0.74
9745.00,0.74
9744.00,0.73
9743.00,0.73
9742.00,0.73
9741.00,0.73
9740.00,0.73
9739.00,0.73
9738.00,0.73
9737.00,0.73
9736.00,0.73
9735.00,0.73
9734.00,0.73
9733.00,0.74
9732.00,0.74
9731.00,0.74
9730.00,0.74
9729.00,0.74
9728.00,0.74
9727.00,0.75
9726.00,0.75
9725.00,0.75
9724.00,0.75
9723.00,0.75
9722.00,0.75
9721.00,0.75
9720.00,0.75
9719.00,0.75
9718.00,0.74
9717.00,0.74
9716.00,0.74
9715.00,0.74
9714.00,0.73
9713.00,0.73
9712.00,0.72
9711.00,0.72
9710.00,0.71
9709.00,0.70
9708.00,0.69
9707.00,0.68
9706.00,0.67
9705.00,0.67
9704.00,0.66
9703.00,0.65
9702.00,0.64
9701.00,0.63
9700.00,0.63
9699.00,0.62
9698.00,0.62
9697.00,0.61
9696.00,0.61
9695.00,0.61
9694.00,0.61
9693.00,0.61
9692.00,0.61
9691.00,0.62
9690.00,0.63
9689.00,0.64
9688.00,0.65
9687.00,0.66
9686.00,0.68
9685.00,0.70
9684.00,0.71
9683.00,0.73
9682.00,0.75
9681.00,0.76
9680.00,0.78
9679.00,0.79
9678.00,0.81
9677.00,0.82
9676.00,0.83
9675.00,0.83
9674.00,0.84
9673.00,0.84
9672.00,0.85
9671.00,0.85
9670.00,0.85
9669.00,0.85
9668.00,0.85
9667.00,0.85
9666.00,0.84
9665.00,0.84
9664.00,0.84
9663.00,0.83
9662.00,0.83
9661.00,0.83
9660.00,0.82
9659.00,0.82
9658.00,0.82
9657.00,0.82
9656.00,0.82
9655.00,0.82
9654.00,0.81
9653.00,0.81
9652.00,0.81
9651.00,0.81
9650.00,0.80
9649.00,0.80
9648.00,0.79
9647.00,0.79
9646.00,0.79
9645.00,0.78
9644.00,0.78
9643.00,0.77
9642.00,0.77
9641.00,0.76
9640.00,0.76
9639.00,0.75
9638.00,0.75
9637.00,0.74
9636.00,0.74
9635.00,0.73
9634.00,0.73
9633.00,0.73
9632.00,0.72
9631.00,0.72
9630.00,0.73
9629.00,0.73
9628.00,0.74
9627.00,0.75
9626.00,0.76
9625.00,0.77
9624.00,0.78
9623.00,0.80
9622.00,0.81
9621.00,0.83
9620.00,0.85
9619.00,0.87
9618.00,0.88
9617.00,0.90
9616.00,0.91
9615.00,0.92
9614.00,0.93
9613.00,0.94
9612.00,0.94
9611.00,0.94
9610.00,0.94
9609.00,0.93
9608.00,0.92
9607.00,0.91
9606.00,0.90
9605.00,0.89
9604.00,0.88
9603.00,0.86
9602.00,0.85
9601.00,0.84
9600.00,0.82
9599.00,0.81
9598.00,0.80
9597.00,0.80
9596.00,0.79
9595.00,0.78
9594.00,0.78
9593.00,0.78
9592.00,0.78
9591.00,0.79
9590.00,0.79
9589.00,0.80
9588.00,0.80
9587.00,0.80
9586.00,0.81
9585.00,0.81
9584.00,0.82
9583.00,0.82
9582.00,0.83
9581.00,0.83
9580.00,0.84
9579.00,0.84
9578.00,0.85
9577.00,0.85
9576.00,0.86
9575.00,0.87
9574.00,0.88
9573.00,0.88
9572.00,0.89
9571.00,0.90
9570.00,0.91
9569.00,0.92
9568.00,0.93
9567.00,0.94
9566.00,0.95
9565.00,0.95
9564.00,0.96
9563.00,0.97
9562.00,0.98
9561.00,0.98
9560.00,0.98
9559.00,0.98
9558.00,0.98
9557.00,0.98
9556.00,0.98
9555.00,0.97
9554.00,0.96
9553.00,0.95
9552.00,0.95
9551.00,0.94
9550.00,0.93
9549.00,0.92
9548.00,0.91
9547.00,0.90
9546.00,0.89
9545.00,0.88
9544.00,0.87
9543.00,0.86
9542.00,0.86
9541.00,0.86
9540.00,0.85
9539.00,0.86
9538.00,0.86
9537.00,0.86
9536.00,0.86
9535.00,0.87
9534.00,0.87
9533.00,0.88
9532.00,0.89
9531.00,0.89
9530.00,0.90
9529.00,0.90
9528.00,0.91
9527.00,0.91
9526.00,0.92
9525.00,0.92
9524.00,0.92
9523.00,0.92
9522.00,0.92
9521.00,0.91
9520.00,0.91
9519.00,0.90
9518.00,0.90
9517.00,0.89
9516.00,0.89
9515.00,0.88
9514.00,0.87
9513.00,0.86
9512.00,0.85
9511.00,0.84
9510.00,0.83
9509.00,0.82
9508.00,0.80
9507.00,0.79
9506.00,0.78
9505.00,0.77
9504.00,0.76
9503.00,0.74
9502.00,0.73
9501.00,0.72
9500.00,0.71
9499.00,0.71
9498.00,0.70
9497.00,0.70
9496.00,0.69
9495.00,0.69
9494.00,0.69
9493.00,0.69
9492.00,0.70
9491.00,0.70
9490.00,0.70
9489.00,0.71
9488.00,0.71
9487.00,0.72
9486.00,0.72
9485.00,0.72
9484.00,0.72
9483.00,0.73
9482.00,0.73
9481.00,0.73
9480.00,0.73
9479.00,0.73
9478.00,0.73
9477.00,0.73
9476.00,0.73
9475.00,0.73
9474.00,0.73
9473.00,0.73
9472.00,0.73
9471.00,0.74
9470.00,0.74
9469.00,0.75
9468.00,0.75
9467.00,0.76
9466.00,0.77
9465.00,0.77
9464.00,0.78
9463.00,0.79
9462.00,0.80
9461.00,0.80
9460.00,0.81
9459.00,0.81
9458.00,0.82
9457.00,0.82
9456.00,0.83
9455.00,0.83
9454.00,0.83
9453.00,0.83
9452.00,0.83
9451.00,0.83
9450.00,0.83
9449.00,0.83
9448.00,0.83
9447.00,0.83
9446.00,0.83
9445.00,0.83
9444.00,0.83
9443.00,0.83
9442.00,0.83
9441.00,0.84
9440.00,0.84
9439.00,0.84
9438.00,0.84
9437.00,0.85
9436.00,0.85
9435.00,0.85
9434.00,0.86
9433.00,0.86
9432.00,0.86
9431.00,0.86
9430.00,0.86
9429.00,0.86
9428.00,0.86
9427.00,0.85
9426.00,0.85
9425.00,0.85
9424.00,0.84
9423.00,0.84
9422.00,0.83
9421.00,0.83
9420.00,0.82
9419.00,0.82
9418.00,0.81
9417.00,0.81
9416.00,0.81
9415.00,0.80
9414.00,0.80
9413.00,0.81
9412.00,0.81
9411.00,0.81
9410.00,0.81
9409.00,0.81
9408.00,0.82
9407.00,0.82
9406.00,0.83
9405.00,0.83
9404.00,0.83
9403.00,0.84
9402.00,0.84
9401.00,0.85
9400.00,0.85
9399.00,0.86
9398.00,0.86
9397.00,0.86
9396.00,0.87
9395.00,0.87
9394.00,0.87
9393.00,0.87
9392.00,0.87
9391.00,0.86
9390.00,0.86
9389.00,0.86
9388.00,0.85
9387.00,0.85
9386.00,0.84
9385.00,0.83
9384.00,0.83
9383.00,0.82
9382.00,0.81
9381.00,0.81
9380.00,0.81
9379.00,0.80
9378.00,0.80
9377.00,0.80
9376.00,0.80
9375.00,0.80
9374.00,0.80
9373.00,0.80
9372.00,0.81
9371.00,0.81
9370.00,0.81
9369.00,0.81
9368.00,0.81
9367.00,0.82
9366.00,0.82
9365.00,0.82
9364.00,0.82
9363.00,0.82
9362.00,0.82
9361.00,0.82
9360.00,0.82
9359.00,0.82
9358.00,0.82
9357.00,0.82
9356.00,0.82
9355.00,0.83
9354.00,0.83
9353.00,0.84
9352.00,0.84
9351.00,0.85
9350.00,0.85
9349.00,0.86
9348.00,0.86
9347.00,0.86
9346.00,0.86
9345.00,0.87
9344.00,0.87
9343.00,0.87
9342.00,0.86
9341.00,0.86
9340.00,0.86
9339.00,0.85
9338.00,0.85
9337.00,0.84
9336.00,0.84
9335.00,0.83
9334.00,0.83
9333.00,0.82
9332.00,0.82
9331.00,0.82
9330.00,0.82
9329.00,0.82
9328.00,0.81
9327.00,0.81
9326.00,0.81
9325.00,0.80
9324.00,0.80
9323.00,0.79
9322.00,0.79
9321.00,0.78
9320.00,0.78
9319.00,0.77
9318.00,0.76
9317.00,0.75
9316.00,0.74
9315.00,0.74
9314.00,0.73
9313.00,0.72
9312.00,0.71
9311.00,0.71
9310.00,0.70
9309.00,0.70
9308.00,0.69
9307.00,0.69
9306.00,0.69
9305.00,0.69
9304.00,0.70
9303.00,0.70
9302.00,0.71
9301.00,0.71
9300.00,0.72
9299.00,0.73
9298.00,0.74
9297.00,0.75
9296.00,0.75
9295.00,0.76
9294.00,0.77
9293.00,0.78
9292.00,0.80
9291.00,0.81
9290.00,0.82
9289.00,0.83
9288.00,0.84
9287.00,0.85
9286.00,0.86
9285.00,0.86
9284.00,0.87
9283.00,0.88
9282.00,0.89
9281.00,0.89
9280.00,0.90
9279.00,0.91
9278.00,0.92
9277.00,0.93
9276.00,0.94
9275.00,0.94
9274.00,0.95
9273.00,0.95
9272.00,0.96
9271.00,0.96
9270.00,0.96
9269.00,0.96
9268.00,0.96
9267.00,0.96
9266.00,0.95
9265.00,0.94
9264.00,0.93
9263.00,0.92
9262.00,0.90
9261.00,0.88
9260.00,0.86
9259.00,0.84
9258.00,0.82
9257.00,0.79
9256.00,0.77
9255.00,0.74
9254.00,0.72
9253.00,0.70
9252.00,0.68
9251.00,0.66
9250.00,0.65
9249.00,0.63
9248.00,0.63
9247.00,0.62
9246.00,0.62
9245.00,0.63
9244.00,0.63
9243.00,0.64
9242.00,0.65
9241.00,0.67
9240.00,0.68
9239.00,0.70
9238.00,0.72
9237.00,0.74
9236.00,0.75
9235.00,0.77
9234.00,0.79
9233.00,0.81
9232.00,0.82
9231.00,0.84
9230.00,0.85
9229.00,0.86
9228.00,0.87
9227.00,0.88
9226.00,0.89
9225.00,0.90
9224.00,0.91
9223.00,0.91
9222.00,0.92
9221.00,0.92
9220.00,0.92
9219.00,0.92
9218.00,0.92
9217.00,0.91
9216.00,0.90
9215.00,0.89
9214.00,0.88
9213.00,0.87
9212.00,0.85
9211.00,0.84
9210.00,0.82
9209.00,0.80
9208.00,0.78
9207.00,0.76
9206.00,0.74
9205.00,0.73
9204.00,0.71
9203.00,0.70
9202.00,0.69
9201.00,0.68
9200.00,0.68
9199.00,0.68
9198.00,0.67
9197.00,0.67
9196.00,0.67
9195.00,0.68
9194.00,0.68
9193.00,0.69
9192.00,0.69
9191.00,0.70
9190.00,0.71
9189.00,0.72
9188.00,0.72
9187.00,0.73
9186.00,0.74
9185.00,0.74
9184.00,0.75
9183.00,0.75
9182.00,0.76
9181.00,0.77
9180.00,0.77
9179.00,0.78
9178.00,0.78
9177.00,0.78
9176.00,0.79
9175.00,0.79
9174.00,0.79
9173.00,0.79
9172.00,0.79
9171.00,0.79
9170.00,0.79
9169.00,0.79
9168.00,0.78
9167.00,0.78
9166.00,0.77
9165.00,0.77
9164.00,0.76
9163.00,0.75
9162.00,0.75
9161.00,0.74
9160.00,0.73
9159.00,0.72
9158.00,0.71
9157.00,0.70
9156.00,0.70
9155.00,0.69
9154.00,0.68
9153.00,0.68
9152.00,0.67
9151.00,0.67
9150.00,0.67
9149.00,0.67
9148.00,0.67
9147.00,0.67
9146.00,0.68
9145.00,0.68
9144.00,0.69
9143.00,0.70
9142.00,0.71
9141.00,0.72
9140.00,0.74
9139.00,0.75
9138.00,0.77
9137.00,0.78
9136.00,0.80
9135.00,0.81
9134.00,0.83
9133.00,0.84
9132.00,0.85
9131.00,0.86
9130.00,0.87
9129.00,0.88
9128.00,0.89
9127.00,0.89
9126.00,0.89
9125.00,0.89
9124.00,0.88
9123.00,0.88
9122.00,0.87
9121.00,0.86
9120.00,0.85
9119.00,0.84
9118.00,0.83
9117.00,0.82
9116.00,0.81
9115.00,0.79
9114.00,0.79
9113.00,0.78
9112.00,0.77
9111.00,0.77
9110.00,0.77
9109.00,0.76
9108.00,0.77
9107.00,0.77
9106.00,0.77
9105.00,0.77
9104.00,0.77
9103.00,0.78
9102.00,0.78
9101.00,0.78
9100.00,0.78
9099.00,0.78
9098.00,0.78
9097.00,0.77
9096.00,0.77
9095.00,0.76
9094.00,0.76
9093.00,0.75
9092.00,0.74
9091.00,0.73
9090.00,0.73
9089.00,0.72
9088.00,0.72
9087.00,0.72
9086.00,0.72
9085.00,0.72
9084.00,0.72
9083.00,0.73
9082.00,0.73
9081.00,0.74
9080.00,0.75
9079.00,0.76
9078.00,0.77
9077.00,0.78
9076.00,0.79
9075.00,0.80
9074.00,0.81
9073.00,0.82
9072.00,0.83
9071.00,0.84
9070.00,0.84
9069.00,0.85
9068.00,0.85
9067.00,0.85
9066.00,0.86
9065.00,0.86
9064.00,0.86
9063.00,0.86
9062.00,0.86
9061.00,0.86
9060.00,0.86
9059.00,0.86
9058.00,0.86
9057.00,0.86
9056.00,0.86
9055.00,0.86
9054.00,0.85
9053.00,0.85
9052.00,0.85
9051.00,0.85
9050.00,0.85
9049.00,0.85
9048.00,0.85
9047.00,0.85
9046.00,0.85
9045.00,0.85
9044.00,0.85
9043.00,0.85
9042.00,0.86
9041.00,0.86
9040.00,0.86
9039.00,0.86
9038.00,0.87
9037.00,0.87
9036.00,0.87
9035.00,0.87
9034.00,0.87
9033.00,0.88
9032.00,0.88
9031.00,0.87
9030.00,0.87
9029.00,0.87
9028.00,0.87
9027.00,0.86
9026.00,0.86
9025.00,0.86
9024.00,0.85
9023.00,0.85
9022.00,0.85
9021.00,0.85
9020.00,0.85
9019.00,0.85
9018.00,0.85
9017.00,0.85
9016.00,0.85
9015.00,0.84
9014.00,0.84
9013.00,0.84
9012.00,0.84
9011.00,0.84
9010.00,0.84
9009.00,0.85
9008.00,0.85
9007.00,0.86
9006.00,0.86
9005.00,0.86
9004.00,0.87
9003.00,0.87
9002.00,0.88
9001.00,0.89
9000.00,0.89
8999.00,0.90
8998.00,0.91
8997.00,0.91
8996.00,0.92
8995.00,0.92
8994.00,0.92
8993.00,0.92
8992.00,0.92
8991.00,0.92
8990.00,0.91
8989.00,0.91
8988.00,0.90
8987.00,0.90
8986.00,0.89
8985.00,0.88
8984.00,0.88
8983.00,0.87
8982.00,0.86
8981.00,0.86
8980.00,0.85
8979.00,0.85
8978.00,0.84
8977.00,0.84
8976.00,0.84
8975.00,0.84
8974.00,0.84
8973.00,0.84
8972.00,0.84
8971.00,0.84
8970.00,0.84
8969.00,0.85
8968.00,0.85
8967.00,0.86
8966.00,0.86
8965.00,0.86
8964.00,0.87
8963.00,0.87
8962.00,0.87
8961.00,0.87
8960.00,0.87
8959.00,0.87
8958.00,0.86
8957.00,0.86
8956.00,0.85
8955.00,0.85
8954.00,0.84
8953.00,0.83
8952.00,0.82
8951.00,0.81
8950.00,0.80
8949.00,0.78
8948.00,0.77
8947.00,0.76
8946.00,0.75
8945.00,0.75
8944.00,0.74
8943.00,0.74
8942.00,0.74
8941.00,0.74
8940.00,0.74
8939.00,0.74
8938.00,0.75
8937.00,0.75
8936.00,0.76
8935.00,0.77
8934.00,0.78
8933.00,0.79
8932.00,0.80
8931.00,0.81
8930.00,0.82
8929.00,0.83
8928.00,0.84
8927.00,0.85
8926.00,0.86
8925.00,0.87
8924.00,0.88
8923.00,0.89
8922.00,0.89
8921.00,0.90
8920.00,0.90
8919.00,0.91
8918.00,0.91
8917.00,0.92
8916.00,0.92
8915.00,0.92
8914.00,0.92
8913.00,0.92
8912.00,0.92
8911.00,0.92
8910.00,0.92
8909.00,0.92
8908.00,0.92
8907.00,0.91
8906.00,0.91
8905.00,0.90
8904.00,0.90
8903.00,0.90
8902.00,0.89
8901.00,0.89
8900.00,0.88
8899.00,0.88
8898.00,0.87
8897.00,0.86
8896.00,0.86
8895.00,0.85
8894.00,0.84
8893.00,0.83
8892.00,0.83
8891.00,0.82
8890.00,0.82
8889.00,0.81
8888.00,0.81
8887.00,0.81
8886.00,0.80
8885.00,0.80
8884.00,0.80
8883.00,0.80
8882.00,0.80
8881.00,0.80
8880.00,0.80
8879.00,0.81
8878.00,0.81
8877.00,0.81
8876.00,0.81
8875.00,0.81
8874.00,0.81
8873.00,0.81
8872.00,0.81
8871.00,0.81
8870.00,0.81
8869.00,0.81
8868.00,0.81
8867.00,0.80
8866.00,0.80
8865.00,0.80
8864.00,0.80
8863.00,0.81
8862.00,0.81
8861.00,0.81
8860.00,0.82
8859.00,0.82
8858.00,0.83
8857.00,0.83
8856.00,0.84
8855.00,0.85
8854.00,0.86
8853.00,0.86
8852.00,0.87
8851.00,0.88
8850.00,0.89
8849.00,0.89
8848.00,0.90
8847.00,0.90
8846.00,0.91
8845.00,0.91
8844.00,0.92
8843.00,0.92
8842.00,0.92
8841.00,0.92
8840.00,0.93
8839.00,0.93
8838.00,0.93
8837.00,0.93
8836.00,0.93
8835.00,0.93
8834.00,0.93
8833.00,0.93
8832.00,0.93
8831.00,0.93
8830.00,0.93
8829.00,0.92
8828.00,0.92
8827.00,0.92
8826.00,0.91
8825.00,0.90
8824.00,0.90
8823.00,0.89
8822.00,0.88
8821.00,0.88
8820.00,0.87
8819.00,0.86
8818.00,0.85
8817.00,0.84
8816.00,0.84
8815.00,0.83
8814.00,0.83
8813.00,0.82
8812.00,0.82
8811.00,0.81
8810.00,0.81
8809.00,0.81
8808.00,0.80
8807.00,0.80
8806.00,0.80
8805.00,0.80
8804.00,0.80
8803.00,0.80
8802.00,0.80
8801.00,0.80
8800.00,0.80
8799.00,0.80
8798.00,0.81
8797.00,0.81
8796.00,0.81
8795.00,0.82
8794.00,0.82
8793.00,0.82
8792.00,0.83
8791.00,0.83
8790.00,0.83
8789.00,0.84
8788.00,0.84
8787.00,0.84
8786.00,0.84
8785.00,0.84
8784.00,0.84
8783.00,0.84
8782.00,0.83
8781.00,0.83
8780.00,0.83
8779.00,0.82
8778.00,0.82
8777.00,0.81
8776.00,0.81
8775.00,0.81
8774.00,0.81
8773.00,0.80
8772.00,0.80
8771.00,0.80
8770.00,0.79
8769.00,0.79
8768.00,0.79
8767.00,0.79
8766.00,0.79
8765.00,0.79
8764.00,0.79
8763.00,0.80
8762.00,0.79
8761.00,0.79
8760.00,0.79
8759.00,0.79
8758.00,0.79
8757.00,0.78
8756.00,0.78
8755.00,0.78
8754.00,0.78
8753.00,0.78
8752.00,0.77
8751.00,0.77
8750.00,0.77
8749.00,0.77
8748.00,0.77
8747.00,0.76
8746.00,0.76
8745.00,0.76
8744.00,0.77
8743.00,0.77
8742.00,0.77
8741.00,0.78
8740.00,0.78
8739.00,0.79
8738.00,0.79
8737.00,0.80
8736.00,0.81
8735.00,0.82
8734.00,0.82
8733.00,0.83
8732.00,0.84
8731.00,0.84
8730.00,0.85
8729.00,0.86
8728.00,0.86
8727.00,0.87
8726.00,0.87
8725.00,0.87
8724.00,0.87
8723.00,0.87
8722.00,0.87
8721.00,0.87
8720.00,0.87
8719.00,0.86
8718.00,0.86
8717.00,0.86
8716.00,0.85
8715.00,0.85
8714.00,0.84
8713.00,0.84
8712.00,0.84
8711.00,0.83
8710.00,0.83
8709.00,0.82
8708.00,0.82
8707.00,0.82
8706.00,0.81
8705.00,0.81
8704.00,0.81
8703.00,0.80
8702.00,0.80
8701.00,0.80
8700.00,0.79
8699.00,0.79
8698.00,0.78
8697.00,0.78
8696.00,0.77
8695.00,0.77
8694.00,0.76
8693.00,0.76
8692.00,0.76
8691.00,0.76
8690.00,0.76
8689.00,0.76
8688.00,0.76
8687.00,0.77
8686.00,0.77
8685.00,0.78
8684.00,0.78
8683.00,0.79
8682.00,0.80
8681.00,0.81
8680.00,0.82
8679.00,0.82
8678.00,0.83
8677.00,0.84
8676.00,0.85
8675.00,0.86
8674.00,0.86
8673.00,0.87
8672.00,0.87
8671.00,0.87
8670.00,0.87
8669.00,0.88
8668.00,0.88
8667.00,0.87
8666.00,0.87
8665.00,0.87
8664.00,0.87
8663.00,0.86
8662.00,0.86
8661.00,0.86
8660.00,0.85
8659.00,0.85
8658.00,0.84
8657.00,0.84
8656.00,0.83
8655.00,0.83
8654.00,0.82
8653.00,0.82
8652.00,0.81
8651.00,0.81
8650.00,0.80
8649.00,0.80
8648.00,0.80
8647.00,0.80
8646.00,0.79
8645.00,0.79
8644.00,0.80
8643.00,0.80
8642.00,0.80
8641.00,0.80
8640.00,0.81
8639.00,0.81
8638.00,0.82
8637.00,0.82
8636.00,0.83
8635.00,0.84
8634.00,0.84
8633.00,0.85
8632.00,0.85
8631.00,0.85
8630.00,0.86
8629.00,0.86
8628.00,0.86
8627.00,0.86
8626.00,0.85
8625.00,0.85
8624.00,0.85
8623.00,0.84
8622.00,0.84
8621.00,0.83
8620.00,0.83
8619.00,0.83
8618.00,0.83
8617.00,0.83
8616.00,0.83
8615.00,0.83
8614.00,0.83
8613.00,0.83
8612.00,0.84
8611.00,0.84
8610.00,0.85
8609.00,0.85
8608.00,0.86
8607.00,0.86
8606.00,0.87
8605.00,0.87
8604.00,0.87
8603.00,0.87
8602.00,0.87
8601.00,0.86
8600.00,0.86
8599.00,0.85
8598.00,0.84
8597.00,0.83
8596.00,0.82
8595.00,0.81
8594.00,0.79
8593.00,0.78
8592.00,0.77
8591.00,0.75
8590.00,0.74
8589.00,0.73
8588.00,0.72
8587.00,0.71
8586.00,0.71
8585.00,0.70
8584.00,0.70
8583.00,0.69
8582.00,0.69
8581.00,0.69
8580.00,0.70
8579.00,0.70
8578.00,0.71
8577.00,0.71
8576.00,0.72
8575.00,0.73
8574.00,0.73
8573.00,0.74
8572.00,0.75
8571.00,0.76
8570.00,0.76
8569.00,0.77
8568.00,0.77
8567.00,0.77
8566.00,0.78
8565.00,0.78
8564.00,0.78
8563.00,0.78
8562.00,0.78
8561.00,0.77
8560.00,0.77
8559.00,0.76
8558.00,0.76
8557.00,0.76
8556.00,0.75
8555.00,0.75
8554.00,0.74
8553.00,0.74
8552.00,0.74
8551.00,0.74
8550.00,0.74
8549.00,0.74
8548.00,0.74
8547.00,0.74
8546.00,0.74
8545.00,0.74
8544.00,0.74
8543.00,0.74
8542.00,0.74
8541.00,0.75
8540.00,0.75
8539.00,0.75
8538.00,0.75
8537.00,0.75
8536.00,0.75
8535.00,0.75
8534.00,0.75
8533.00,0.75
8532.00,0.76
8531.00,0.76
8530.00,0.76
8529.00,0.76
8528.00,0.76
8527.00,0.76
8526.00,0.76
8525.00,0.76
8524.00,0.76
8523.00,0.77
8522.00,0.77
8521.00,0.77
8520.00,0.77
8519.00,0.78
8518.00,0.78
8517.00,0.78
8516.00,0.79
8515.00,0.79
8514.00,0.80
8513.00,0.80
8512.00,0.81
8511.00,0.81
8510.00,0.82
8509.00,0.82
8508.00,0.83
8507.00,0.84
8506.00,0.84
8505.00,0.85
8504.00,0.85
8503.00,0.86
8502.00,0.86
8501.00,0.87
8500.00,0.87
8499.00,0.88
8498.00,0.88
8497.00,0.88
8496.00,0.88
8495.00,0.88
8494.00,0.88
8493.00,0.88
8492.00,0.88
8491.00,0.87
8490.00,0.87
8489.00,0.87
8488.00,0.86
8487.00,0.86
8486.00,0.85
8485.00,0.85
8484.00,0.84
8483.00,0.84
8482.00,0.84
8481.00,0.83
8480.00,0.83
8479.00,0.83
8478.00,0.82
8477.00,0.82
8476.00,0.82
8475.00,0.82
8474.00,0.82
8473.00,0.82
8472.00,0.82
8471.00,0.83
8470.00,0.83
8469.00,0.83
8468.00,0.83
8467.00,0.83
8466.00,0.83
8465.00,0.83
8464.00,0.83
8463.00,0.83
8462.00,0.82
8461.00,0.82
8460.00,0.82
8459.00,0.81
8458.00,0.81
8457.00,0.80
8456.00,0.80
8455.00,0.79
8454.00,0.78
8453.00,0.77
8452.00,0.76
8451.00,0.76
8450.00,0.75
8449.00,0.74
8448.00,0.74
8447.00,0.73
8446.00,0.73
8445.00,0.73
8444.00,0.73
8443.00,0.73
8442.00,0.73
8441.00,0.73
8440.00,0.73
8439.00,0.73
8438.00,0.73
8437.00,0.73
8436.00,0.74
8435.00,0.74
8434.00,0.74
8433.00,0.75
8432.00,0.75
8431.00,0.75
8430.00,0.75
8429.00,0.76
8428.00,0.76
8427.00,0.76
8426.00,0.76
8425.00,0.76
8424.00,0.76
8423.00,0.76
8422.00,0.76
8421.00,0.76
8420.00,0.76
8419.00,0.76
8418.00,0.76
8417.00,0.76
8416.00,0.76
8415.00,0.76
8414.00,0.76
8413.00,0.76
8412.00,0.76
8411.00,0.76
8410.00,0.76
8409.00,0.77
8408.00,0.77
8407.00,0.77
8406.00,0.77
8405.00,0.77
8404.00,0.76
8403.00,0.76
8402.00,0.76
8401.00,0.75
8400.00,0.75
8399.00,0.74
8398.00,0.73
8397.00,0.73
8396.00,0.72
8395.00,0.71
8394.00,0.71
8393.00,0.70
8392.00,0.69
8391.00,0.69
8390.00,0.68
8389.00,0.68
8388.00,0.67
8387.00,0.67
8386.00,0.67
8385.00,0.68
8384.00,0.68
8383.00,0.68
8382.00,0.69
8381.00,0.70
8380.00,0.70
8379.00,0.71
8378.00,0.72
8377.00,0.73
8376.00,0.74
8375.00,0.75
8374.00,0.76
8373.00,0.77
8372.00,0.78
8371.00,0.79
8370.00,0.80
8369.00,0.81
8368.00,0.81
8367.00,0.82
8366.00,0.82
8365.00,0.83
8364.00,0.83
8363.00,0.83
8362.00,0.83
8361.00,0.82
8360.00,0.82
8359.00,0.82
8358.00,0.81
8357.00,0.81
8356.00,0.80
8355.00,0.80
8354.00,0.79
8353.00,0.79
8352.00,0.78
8351.00,0.78
8350.00,0.77
8349.00,0.77
8348.00,0.77
8347.00,0.76
8346.00,0.76
8345.00,0.76
8344.00,0.76
8343.00,0.76
8342.00,0.76
8341.00,0.76
8340.00,0.76
8339.00,0.76
8338.00,0.77
8337.00,0.77
8336.00,0.77
8335.00,0.77
8334.00,0.78
8333.00,0.78
8332.00,0.79
8331.00,0.79
8330.00,0.80
8329.00,0.80
8328.00,0.81
8327.00,0.82
8326.00,0.82
8325.00,0.83
8324.00,0.83
8323.00,0.83
8322.00,0.84
8321.00,0.84
8320.00,0.84
8319.00,0.84
8318.00,0.83
8317.00,0.83
8316.00,0.83
8315.00,0.82
8314.00,0.81
8313.00,0.80
8312.00,0.79
8311.00,0.78
8310.00,0.77
8309.00,0.76
8308.00,0.75
8307.00,0.74
8306.00,0.73
8305.00,0.72
8304.00,0.72
8303.00,0.71
8302.00,0.70
8301.00,0.70
8300.00,0.69
8299.00,0.69
8298.00,0.69
8297.00,0.69
8296.00,0.69
8295.00,0.70
8294.00,0.70
8293.00,0.71
8292.00,0.71
8291.00,0.72
8290.00,0.73
8289.00,0.74
8288.00,0.75
8287.00,0.76
8286.00,0.77
8285.00,0.78
8284.00,0.79
8283.00,0.80
8282.00,0.82
8281.00,0.83
8280.00,0.84
8279.00,0.85
8278.00,0.86
8277.00,0.87
8276.00,0.88
8275.00,0.89
8274.00,0.89
8273.00,0.90
8272.00,0.90
8271.00,0.90
8270.00,0.90
8269.00,0.90
8268.00,0.90
8267.00,0.90
8266.00,0.90
8265.00,0.89
8264.00,0.89
8263.00,0.88
8262.00,0.88
8261.00,0.87
8260.00,0.86
8259.00,0.86
8258.00,0.85
8257.00,0.85
8256.00,0.85
8255.00,0.85
8254.00,0.84
8253.00,0.84
8252.00,0.84
8251.00,0.85
8250.00,0.85
8249.00,0.85
8248.00,0.86
8247.00,0.86
8246.00,0.86
8245.00,0.87
8244.00,0.87
8243.00,0.87
8242.00,0.87
8241.00,0.87
8240.00,0.87
8239.00,0.87
8238.00,0.86
8237.00,0.86
8236.00,0.86
8235.00,0.86
8234.00,0.85
8233.00,0.85
8232.00,0.85
8231.00,0.84
8230.00,0.84
8229.00,0.84
8228.00,0.84
8227.00,0.84
8226.00,0.84
8225.00,0.84
8224.00,0.85
8223.00,0.85
8222.00,0.85
8221.00,0.86
8220.00,0.86
8219.00,0.86
8218.00,0.86
8217.00,0.87
8216.00,0.87
8215.00,0.87
8214.00,0.87
8213.00,0.87
8212.00,0.87
8211.00,0.88
8210.00,0.88
8209.00,0.88
8208.00,0.88
8207.00,0.87
8206.00,0.87
8205.00,0.87
8204.00,0.87
8203.00,0.87
8202.00,0.87
8201.00,0.87
8200.00,0.86
8199.00,0.86
8198.00,0.86
8197.00,0.85
8196.00,0.85
8195.00,0.84
8194.00,0.84
8193.00,0.84
8192.00,0.84
8191.00,0.83
8190.00,0.83
8189.00,0.83
8188.00,0.83
8187.00,0.83
8186.00,0.83
8185.00,0.83
8184.00,0.83
8183.00,0.83
8182.00,0.84
8181.00,0.84
8180.00,0.84
8179.00,0.85
8178.00,0.85
8177.00,0.85
8176.00,0.86
8175.00,0.86
8174.00,0.86
8173.00,0.87
8172.00,0.87
8171.00,0.87
8170.00,0.87
8169.00,0.87
8168.00,0.87
8167.00,0.88
8166.00,0.88
8165.00,0.88
8164.00,0.88
8163.00,0.88
8162.00,0.88
8161.00,0.88
8160.00,0.88
8159.00,0.88
8158.00,0.87
8157.00,0.87
8156.00,0.87
8155.00,0.86
8154.00,0.86
8153.00,0.85
8152.00,0.85
8151.00,0.84
8150.00,0.84
8149.00,0.83
8148.00,0.83
8147.00,0.83
8146.00,0.82
8145.00,0.82
8144.00,0.82
8143.00,0.82
8142.00,0.82
8141.00,0.82
8140.00,0.82
8139.00,0.83
8138.00,0.83
8137.00,0.84
8136.00,0.84
8135.00,0.84
8134.00,0.85
8133.00,0.85
8132.00,0.85
8131.00,0.85
8130.00,0.85
8129.00,0.85
8128.00,0.85
8127.00,0.85
8126.00,0.85
8125.00,0.85
8124.00,0.84
8123.00,0.84
8122.00,0.84
8121.00,0.83
8120.00,0.83
8119.00,0.83
8118.00,0.83
8117.00,0.83
8116.00,0.83
8115.00,0.84
8114.00,0.84
8113.00,0.85
8112.00,0.85
8111.00,0.86
8110.00,0.87
8109.00,0.87
8108.00,0.88
8107.00,0.89
8106.00,0.89
8105.00,0.90
8104.00,0.91
8103.00,0.91
8102.00,0.91
8101.00,0.92
8100.00,0.92
8099.00,0.92
8098.00,0.91
8097.00,0.91
8096.00,0.90
8095.00,0.90
8094.00,0.89
8093.00,0.88
8092.00,0.87
8091.00,0.86
8090.00,0.86
8089.00,0.85
8088.00,0.84
8087.00,0.82
8086.00,0.81
8085.00,0.80
8084.00,0.79
8083.00,0.78
8082.00,0.78
8081.00,0.77
8080.00,0.76
8079.00,0.75
8078.00,0.75
8077.00,0.74
8076.00,0.74
8075.00,0.74
8074.00,0.73
8073.00,0.73
8072.00,0.73
8071.00,0.73
8070.00,0.73
8069.00,0.73
8068.00,0.74
8067.00,0.74
8066.00,0.74
8065.00,0.75
8064.00,0.75
8063.00,0.76
8062.00,0.76
8061.00,0.77
8060.00,0.77
8059.00,0.78
8058.00,0.78
8057.00,0.78
8056.00,0.79
8055.00,0.79
8054.00,0.79
8053.00,0.79
8052.00,0.79
8051.00,0.79
8050.00,0.79
8049.00,0.79
8048.00,0.79
8047.00,0.78
8046.00,0.78
8045.00,0.78
8044.00,0.78
8043.00,0.78
8042.00,0.78
8041.00,0.79
8040.00,0.79
8039.00,0.79
8038.00,0.80
8037.00,0.80
8036.00,0.81
8035.00,0.81
8034.00,0.82
8033.00,0.82
8032.00,0.83
8031.00,0.83
8030.00,0.83
8029.00,0.84
8028.00,0.84
8027.00,0.85
8026.00,0.85
8025.00,0.85
8024.00,0.85
8023.00,0.85
8022.00,0.85
8021.00,0.85
8020.00,0.85
8019.00,0.84
8018.00,0.84
8017.00,0.83
8016.00,0.83
8015.00,0.82
8014.00,0.82
8013.00,0.81
8012.00,0.80
8011.00,0.80
8010.00,0.79
8009.00,0.78
8008.00,0.78
8007.00,0.77
8006.00,0.77
8005.00,0.77
8004.00,0.77
8003.00,0.76
8002.00,0.76
8001.00,0.77
8000.00,0.77
7999.00,0.77
7998.00,0.77
7997.00,0.78
7996.00,0.78
7995.00,0.78
7994.00,0.79
7993.00,0.79
7992.00,0.79
7991.00,0.80
7990.00,0.80
7989.00,0.80
7988.00,0.80
7987.00,0.80
7986.00,0.80
7985.00,0.80
7984.00,0.80
7983.00,0.80
7982.00,0.80
7981.00,0.80
7980.00,0.80
7979.00,0.80
7978.00,0.80
7977.00,0.80
7976.00,0.80
7975.00,0.80
7974.00,0.80
7973.00,0.81
7972.00,0.81
7971.00,0.81
7970.00,0.82
7969.00,0.82
7968.00,0.82
7967.00,0.83
7966.00,0.83
7965.00,0.83
7964.00,0.84
7963.00,0.84
7962.00,0.84
7961.00,0.84
7960.00,0.84
7959.00,0.84
7958.00,0.84
7957.00,0.84
7956.00,0.85
7955.00,0.85
7954.00,0.84
7953.00,0.84
7952.00,0.84
7951.00,0.84
7950.00,0.84
7949.00,0.84
7948.00,0.83
7947.00,0.83
7946.00,0.83
7945.00,0.82
7944.00,0.82
7943.00,0.82
7942.00,0.81
7941.00,0.81
7940.00,0.80
7939.00,0.80
7938.00,0.79
7937.00,0.79
7936.00,0.79
7935.00,0.78
7934.00,0.78
7933.00,0.78
7932.00,0.77
7931.00,0.77
7930.00,0.77
7929.00,0.77
7928.00,0.77
7927.00,0.78
7926.00,0.78
7925.00,0.78
7924.00,0.79
7923.00,0.79
7922.00,0.80
7921.00,0.80
7920.00,0.81
7919.00,0.81
7918.00,0.82
7917.00,0.82
7916.00,0.83
7915.00,0.83
7914.00,0.84
7913.00,0.84
7912.00,0.85
7911.00,0.85
7910.00,0.85
7909.00,0.85
7908.00,0.86
7907.00,0.86
7906.00,0.86
7905.00,0.86
7904.00,0.87
7903.00,0.87
7902.00,0.87
7901.00,0.87
7900.00,0.88
7899.00,0.88
7898.00,0.88
7897.00,0.88
7896.00,0.88
7895.00,0.88
7894.00,0.88
7893.00,0.88
7892.00,0.88
7891.00,0.88
7890.00,0.88
7889.00,0.88
7888.00,0.88
7887.00,0.88
7886.00,0.88
7885.00,0.88
7884.00,0.88
7883.00,0.87
7882.00,0.87
7881.00,0.87
7880.00,0.87
7879.00,0.87
7878.00,0.87
7877.00,0.87
7876.00,0.87
7875.00,0.87
7874.00,0.87
7873.00,0.86
7872.00,0.86
7871.00,0.86
7870.00,0.86
7869.00,0.85
7868.00,0.85
7867.00,0.85
7866.00,0.84
7865.00,0.84
7864.00,0.84
7863.00,0.83
7862.00,0.83
7861.00,0.83
7860.00,0.83
7859.00,0.83
7858.00,0.83
7857.00,0.83
7856.00,0.83
7855.00,0.83
7854.00,0.83
7853.00,0.83
7852.00,0.84
7851.00,0.84
7850.00,0.84
7849.00,0.85
7848.00,0.85
7847.00,0.86
7846.00,0.86
7845.00,0.87
7844.00,0.87
7843.00,0.87
7842.00,0.88
7841.00,0.88
7840.00,0.89
7839.00,0.89
7838.00,0.89
7837.00,0.89
7836.00,0.89
7835.00,0.89
7834.00,0.89
7833.00,0.89
7832.00,0.89
7831.00,0.89
7830.00,0.89
7829.00,0.89
7828.00,0.88
7827.00,0.88
7826.00,0.87
7825.00,0.87
7824.00,0.86
7823.00,0.86
7822.00,0.85
7821.00,0.85
7820.00,0.85
7819.00,0.84
7818.00,0.84
7817.00,0.84
7816.00,0.83
7815.00,0.83
7814.00,0.83
7813.00,0.83
7812.00,0.83
7811.00,0.83
7810.00,0.84
7809.00,0.84
7808.00,0.85
7807.00,0.85
7806.00,0.86
7805.00,0.87
7804.00,0.87
7803.00,0.88
7802.00,0.89
7801.00,0.89
7800.00,0.90
7799.00,0.90
7798.00,0.91
7797.00,0.91
7796.00,0.91
7795.00,0.91
7794.00,0.91
7793.00,0.91
7792.00,0.91
7791.00,0.91
7790.00,0.91
7789.00,0.90
7788.00,0.90
7787.00,0.90
7786.00,0.89
7785.00,0.89
7784.00,0.89
7783.00,0.88
7782.00,0.88
7781.00,0.88
7780.00,0.88
7779.00,0.88
7778.00,0.88
7777.00,0.88
7776.00,0.88
7775.00,0.88
7774.00,0.88
7773.00,0.88
7772.00,0.88
7771.00,0.88
7770.00,0.88
7769.00,0.88
7768.00,0.88
7767.00,0.89
7766.00,0.89
7765.00,0.88
7764.00,0.88
7763.00,0.88
7762.00,0.88
7761.00,0.87
7760.00,0.87
7759.00,0.86
7758.00,0.86
7757.00,0.85
7756.00,0.85
7755.00,0.84
7754.00,0.84
7753.00,0.83
7752.00,0.83
7751.00,0.82
7750.00,0.82
7749.00,0.82
7748.00,0.81
7747.00,0.81
7746.00,0.81
7745.00,0.81
7744.00,0.81
7743.00,0.82
7742.00,0.82
7741.00,0.82
7740.00,0.82
7739.00,0.82
7738.00,0.82
7737.00,0.82
7736.00,0.82
7735.00,0.82
7734.00,0.82
7733.00,0.82
7732.00,0.81
7731.00,0.81
7730.00,0.81
7729.00,0.80
7728.00,0.80
7727.00,0.80
7726.00,0.79
7725.00,0.79
7724.00,0.79
7723.00,0.79
7722.00,0.79
7721.00,0.79
7720.00,0.79
7719.00,0.79
7718.00,0.79
7717.00,0.79
7716.00,0.80
7715.00,0.80
7714.00,0.81
7713.00,0.81
7712.00,0.82
7711.00,0.82
7710.00,0.83
7709.00,0.83
7708.00,0.84
7707.00,0.84
7706.00,0.84
7705.00,0.85
7704.00,0.85
7703.00,0.85
7702.00,0.85
7701.00,0.86
7700.00,0.86
7699.00,0.86
7698.00,0.86
7697.00,0.86
7696.00,0.86
7695.00,0.86
7694.00,0.86
7693.00,0.86
7692.00,0.86
7691.00,0.86
7690.00,0.86
7689.00,0.86
7688.00,0.86
7687.00,0.86
7686.00,0.86
7685.00,0.86
7684.00,0.86
7683.00,0.86
7682.00,0.85
7681.00,0.85
7680.00,0.84
7679.00,0.83
7678.00,0.83
7677.00,0.82
7676.00,0.82
7675.00,0.81
7674.00,0.80
7673.00,0.80
7672.00,0.79
7671.00,0.78
7670.00,0.78
7669.00,0.77
7668.00,0.77
7667.00,0.76
7666.00,0.76
7665.00,0.76
7664.00,0.76
7663.00,0.76
7662.00,0.76
7661.00,0.76
7660.00,0.76
7659.00,0.77
7658.00,0.77
7657.00,0.78
7656.00,0.78
7655.00,0.79
7654.00,0.80
7653.00,0.80
7652.00,0.81
7651.00,0.82
7650.00,0.82
7649.00,0.83
7648.00,0.84
7647.00,0.84
7646.00,0.85
7645.00,0.85
7644.00,0.85
7643.00,0.85
7642.00,0.86
7641.00,0.86
7640.00,0.86
7639.00,0.86
7638.00,0.86
7637.00,0.86
7636.00,0.86
7635.00,0.86
7634.00,0.85
7633.00,0.85
7632.00,0.85
7631.00,0.84
7630.00,0.84
7629.00,0.84
7628.00,0.84
7627.00,0.83
7626.00,0.83
7625.00,0.83
7624.00,0.83
7623.00,0.83
7622.00,0.83
7621.00,0.83
7620.00,0.82
7619.00,0.82
7618.00,0.82
7617.00,0.82
7616.00,0.82
7615.00,0.82
7614.00,0.82
7613.00,0.82
7612.00,0.82
7611.00,0.82
7610.00,0.82
7609.00,0.82
7608.00,0.82
7607.00,0.82
7606.00,0.82
7605.00,0.82
7604.00,0.82
7603.00,0.82
7602.00,0.83
7601.00,0.83
7600.00,0.83
7599.00,0.83
7598.00,0.83
7597.00,0.83
7596.00,0.83
7595.00,0.83
7594.00,0.84
7593.00,0.84
7592.00,0.84
7591.00,0.83
7590.00,0.83
7589.00,0.83
7588.00,0.83
7587.00,0.83
7586.00,0.82
7585.00,0.82
7584.00,0.82
7583.00,0.82
7582.00,0.82
7581.00,0.82
7580.00,0.82
7579.00,0.82
7578.00,0.81
7577.00,0.81
7576.00,0.81
7575.00,0.82
7574.00,0.82
7573.00,0.82
7572.00,0.82
7571.00,0.83
7570.00,0.83
7569.00,0.83
7568.00,0.84
7567.00,0.84
7566.00,0.84
7565.00,0.84
7564.00,0.85
7563.00,0.85
7562.00,0.85
7561.00,0.86
7560.00,0.86
7559.00,0.86
7558.00,0.86
7557.00,0.87
7556.00,0.87
7555.00,0.87
7554.00,0.87
7553.00,0.88
7552.00,0.88
7551.00,0.88
7550.00,0.88
7549.00,0.88
7548.00,0.88
7547.00,0.88
7546.00,0.88
7545.00,0.88
7544.00,0.88
7543.00,0.88
7542.00,0.87
7541.00,0.87
7540.00,0.87
7539.00,0.86
7538.00,0.86
7537.00,0.85
7536.00,0.85
7535.00,0.84
7534.00,0.84
7533.00,0.83
7532.00,0.83
7531.00,0.83
7530.00,0.82
7529.00,0.82
7528.00,0.82
7527.00,0.81
7526.00,0.81
7525.00,0.81
7524.00,0.81
7523.00,0.81
7522.00,0.81
7521.00,0.81
7520.00,0.81
7519.00,0.81
7518.00,0.81
7517.00,0.81
7516.00,0.81
7515.00,0.81
7514.00,0.81
7513.00,0.81
7512.00,0.81
7511.00,0.81
7510.00,0.80
7509.00,0.80
7508.00,0.80
7507.00,0.80
7506.00,0.80
7505.00,0.79
7504.00,0.79
7503.00,0.79
7502.00,0.79
7501.00,0.79
7500.00,0.78
7499.00,0.78
7498.00,0.78
7497.00,0.78
7496.00,0.78
7495.00,0.78
7494.00,0.78
7493.00,0.78
7492.00,0.78
7491.00,0.79
7490.00,0.79
7489.00,0.79
7488.00,0.79
7487.00,0.79
7486.00,0.80
7485.00,0.80
7484.00,0.80
7483.00,0.81
7482.00,0.81
7481.00,0.81
7480.00,0.81
7479.00,0.81
7478.00,0.81
7477.00,0.81
7476.00,0.81
7475.00,0.81
7474.00,0.81
7473.00,0.80
7472.00,0.80
7471.00,0.80
7470.00,0.80
7469.00,0.79
7468.00,0.79
7467.00,0.79
7466.00,0.79
7465.00,0.78
7464.00,0.78
7463.00,0.78
7462.00,0.78
7461.00,0.78
7460.00,0.77
7459.00,0.77
7458.00,0.77
7457.00,0.77
7456.00,0.77
7455.00,0.77
7454.00,0.77
7453.00,0.77
7452.00,0.77
7451.00,0.78
7450.00,0.78
7449.00,0.79
7448.00,0.79
7447.00,0.80
7446.00,0.80
7445.00,0.80
7444.00,0.81
7443.00,0.81
7442.00,0.82
7441.00,0.82
7440.00,0.82
7439.00,0.82
7438.00,0.82
7437.00,0.82
7436.00,0.82
7435.00,0.82
7434.00,0.82
7433.00,0.82
7432.00,0.81
7431.00,0.81
7430.00,0.81
7429.00,0.80
7428.00,0.80
7427.00,0.80
7426.00,0.80
7425.00,0.80
7424.00,0.80
7423.00,0.80
7422.00,0.80
7421.00,0.80
7420.00,0.81
7419.00,0.81
7418.00,0.82
7417.00,0.82
7416.00,0.82
7415.00,0.83
7414.00,0.83
7413.00,0.84
7412.00,0.84
7411.00,0.84
7410.00,0.84
7409.00,0.84
7408.00,0.84
7407.00,0.84
7406.00,0.83
7405.00,0.83
7404.00,0.82
7403.00,0.82
7402.00,0.81
7401.00,0.81
7400.00,0.80
7399.00,0.80
7398.00,0.79
7397.00,0.79
7396.00,0.78
7395.00,0.78
7394.00,0.78
7393.00,0.77
7392.00,0.77
7391.00,0.77
7390.00,0.77
7389.00,0.77
7388.00,0.77
7387.00,0.77
7386.00,0.77
7385.00,0.77
7384.00,0.77
7383.00,0.77
7382.00,0.77
7381.00,0.77
7380.00,0.77
7379.00,0.77
7378.00,0.77
7377.00,0.77
7376.00,0.77
7375.00,0.77
7374.00,0.77
7373.00,0.78
7372.00,0.78
7371.00,0.78
7370.00,0.78
7369.00,0.78
7368.00,0.79
7367.00,0.79
7366.00,0.79
7365.00,0.79
7364.00,0.79
7363.00,0.79
7362.00,0.79
7361.00,0.79
7360.00,0.79
7359.00,0.79
7358.00,0.79
7357.00,0.80
7356.00,0.80
7355.00,0.80
7354.00,0.80
7353.00,0.81
7352.00,0.81
7351.00,0.81
7350.00,0.82
7349.00,0.82
7348.00,0.83
7347.00,0.83
7346.00,0.83
7345.00,0.84
7344.00,0.84
7343.00,0.84
7342.00,0.84
7341.00,0.84
7340.00,0.84
7339.00,0.83
7338.00,0.83
7337.00,0.82
7336.00,0.82
7335.00,0.81
7334.00,0.80
7333.00,0.80
7332.00,0.79
7331.00,0.78
7330.00,0.78
7329.00,0.78
7328.00,0.77
7327.00,0.77
7326.00,0.77
7325.00,0.77
7324.00,0.77
7323.00,0.77
7322.00,0.77
7321.00,0.78
7320.00,0.78
7319.00,0.79
7318.00,0.79
7317.00,0.80
7316.00,0.80
7315.00,0.80
7314.00,0.80
7313.00,0.80
7312.00,0.80
7311.00,0.80
7310.00,0.80
7309.00,0.80
7308.00,0.80
7307.00,0.80
7306.00,0.80
7305.00,0.80
7304.00,0.80
7303.00,0.80
7302.00,0.79
7301.00,0.79
7300.00,0.79
7299.00,0.80
7298.00,0.80
7297.00,0.80
7296.00,0.80
7295.00,0.80
7294.00,0.81
7293.00,0.81
7292.00,0.81
7291.00,0.81
7290.00,0.81
7289.00,0.81
7288.00,0.81
7287.00,0.82
7286.00,0.82
7285.00,0.82
7284.00,0.82
7283.00,0.82
7282.00,0.82
7281.00,0.82
7280.00,0.82
7279.00,0.82
7278.00,0.82
7277.00,0.82
7276.00,0.82
7275.00,0.82
7274.00,0.82
7273.00,0.82
7272.00,0.82
7271.00,0.82
7270.00,0.82
7269.00,0.82
7268.00,0.82
7267.00,0.82
7266.00,0.81
7265.00,0.81
7264.00,0.81
7263.00,0.81
7262.00,0.81
7261.00,0.81
7260.00,0.81
7259.00,0.80
7258.00,0.80
7257.00,0.80
7256.00,0.80
7255.00,0.80
7254.00,0.80
7253.00,0.80
7252.00,0.80
7251.00,0.80
7250.00,0.80
7249.00,0.79
7248.00,0.79
7247.00,0.79
7246.00,0.79
7245.00,0.79
7244.00,0.79
7243.00,0.79
7242.00,0.79
7241.00,0.79
7240.00,0.79
7239.00,0.79
7238.00,0.79
7237.00,0.79
7236.00,0.79
7235.00,0.79
7234.00,0.79
7233.00,0.79
7232.00,0.79
7231.00,0.79
7230.00,0.79
7229.00,0.79
7228.00,0.79
7227.00,0.79
7226.00,0.78
7225.00,0.78
7224.00,0.78
7223.00,0.78
7222.00,0.77
7221.00,0.77
7220.00,0.77
7219.00,0.77
7218.00,0.77
7217.00,0.77
7216.00,0.76
7215.00,0.76
7214.00,0.76
7213.00,0.76
7212.00,0.76
7211.00,0.76
7210.00,0.76
7209.00,0.76
7208.00,0.77
7207.00,0.77
7206.00,0.77
7205.00,0.77
7204.00,0.77
7203.00,0.77
7202.00,0.77
7201.00,0.77
7200.00,0.77
7199.00,0.76
7198.00,0.76
7197.00,0.76
7196.00,0.76
7195.00,0.76
7194.00,0.75
7193.00,0.75
7192.00,0.74
7191.00,0.74
7190.00,0.73
7189.00,0.73
7188.00,0.72
7187.00,0.72
7186.00,0.72
7185.00,0.71
7184.00,0.71
7183.00,0.71
7182.00,0.70
7181.00,0.70
7180.00,0.70
7179.00,0.70
7178.00,0.70
7177.00,0.70
7176.00,0.71
7175.00,0.71
7174.00,0.71
7173.00,0.71
7172.00,0.72
7171.00,0.72
7170.00,0.72
7169.00,0.72
7168.00,0.73
7167.00,0.73
7166.00,0.73
7165.00,0.73
7164.00,0.73
7163.00,0.74
7162.00,0.74
7161.00,0.74
7160.00,0.74
7159.00,0.74
7158.00,0.74
7157.00,0.74
7156.00,0.74
7155.00,0.73
7154.00,0.73
7153.00,0.73
7152.00,0.73
7151.00,0.74
7150.00,0.74
7149.00,0.74
7148.00,0.74
7147.00,0.74
7146.00,0.74
7145.00,0.75
7144.00,0.75
7143.00,0.75
7142.00,0.76
7141.00,0.76
7140.00,0.76
7139.00,0.77
7138.00,0.77
7137.00,0.78
7136.00,0.78
7135.00,0.78
7134.00,0.78
7133.00,0.78
7132.00,0.78
7131.00,0.79
7130.00,0.78
7129.00,0.78
7128.00,0.78
7127.00,0.78
7126.00,0.78
7125.00,0.78
7124.00,0.78
7123.00,0.77
7122.00,0.77
7121.00,0.77
7120.00,0.77
7119.00,0.77
7118.00,0.77
7117.00,0.77
7116.00,0.77
7115.00,0.77
7114.00,0.77
7113.00,0.77
7112.00,0.77
7111.00,0.77
7110.00,0.77
7109.00,0.77
7108.00,0.77
7107.00,0.76
7106.00,0.76
7105.00,0.76
7104.00,0.76
7103.00,0.76
7102.00,0.75
7101.00,0.75
7100.00,0.75
7099.00,0.75
7098.00,0.74
7097.00,0.74
7096.00,0.74
7095.00,0.74
7094.00,0.73
7093.00,0.73
7092.00,0.73
7091.00,0.73
7090.00,0.73
7089.00,0.73
7088.00,0.73
7087.00,0.73
7086.00,0.73
7085.00,0.73
7084.00,0.73
7083.00,0.74
7082.00,0.74
7081.00,0.74
7080.00,0.74
7079.00,0.75
7078.00,0.75
7077.00,0.76
7076.00,0.76
7075.00,0.76
7074.00,0.77
7073.00,0.77
7072.00,0.77
7071.00,0.78
7070.00,0.78
7069.00,0.78
7068.00,0.78
7067.00,0.78
7066.00,0.78
7065.00,0.78
7064.00,0.78
7063.00,0.78
7062.00,0.78
7061.00,0.78
7060.00,0.78
7059.00,0.78
7058.00,0.78
7057.00,0.78
7056.00,0.78
7055.00,0.78
7054.00,0.78
7053.00,0.78
7052.00,0.79
7051.00,0.79
7050.00,0.79
7049.00,0.80
7048.00,0.80
7047.00,0.80
7046.00,0.80
7045.00,0.81
7044.00,0.81
7043.00,0.81
7042.00,0.82
7041.00,0.82
7040.00,0.82
7039.00,0.82
7038.00,0.82
7037.00,0.82
7036.00,0.82
7035.00,0.81
7034.00,0.81
7033.00,0.80
7032.00,0.80
7031.00,0.79
7030.00,0.79
7029.00,0.78
7028.00,0.78
7027.00,0.77
7026.00,0.76
7025.00,0.76
7024.00,0.75
7023.00,0.75
7022.00,0.74
7021.00,0.74
7020.00,0.73
7019.00,0.73
7018.00,0.73
7017.00,0.73
7016.00,0.73
7015.00,0.73
7014.00,0.73
7013.00,0.74
7012.00,0.74
7011.00,0.74
7010.00,0.75
7009.00,0.75
7008.00,0.76
7007.00,0.76
7006.00,0.77
7005.00,0.77
7004.00,0.78
7003.00,0.78
7002.00,0.78
7001.00,0.78
7000.00,0.79
6999.00,0.79
6998.00,0.79
6997.00,0.79
6996.00,0.78
6995.00,0.78
6994.00,0.78
6993.00,0.77
6992.00,0.77
6991.00,0.76
6990.00,0.76
6989.00,0.75
6988.00,0.75
6987.00,0.75
6986.00,0.74
6985.00,0.74
6984.00,0.73
6983.00,0.73
6982.00,0.73
6981.00,0.73
6980.00,0.72
6979.00,0.72
6978.00,0.72
6977.00,0.72
6976.00,0.73
6975.00,0.73
6974.00,0.73
6973.00,0.73
6972.00,0.73
6971.00,0.73
6970.00,0.74
6969.00,0.74
6968.00,0.74
6967.00,0.74
6966.00,0.74
6965.00,0.74
6964.00,0.74
6963.00,0.74
6962.00,0.75
6961.00,0.75
6960.00,0.74
6959.00,0.74
6958.00,0.74
6957.00,0.74
6956.00,0.74
6955.00,0.74
6954.00,0.74
6953.00,0.73
6952.00,0.73
6951.00,0.73
6950.00,0.73
6949.00,0.73
6948.00,0.73
6947.00,0.73
6946.00,0.73
6945.00,0.73
6944.00,0.73
6943.00,0.73
6942.00,0.73
6941.00,0.73
6940.00,0.73
6939.00,0.73
6938.00,0.73
6937.00,0.73
6936.00,0.74
6935.00,0.74
6934.00,0.74
6933.00,0.74
6932.00,0.74
6931.00,0.74
6930.00,0.74
6929.00,0.75
6928.00,0.75
6927.00,0.75
6926.00,0.76
6925.00,0.76
6924.00,0.76
6923.00,0.77
6922.00,0.77
6921.00,0.77
6920.00,0.78
6919.00,0.78
6918.00,0.79
6917.00,0.79
6916.00,0.80
6915.00,0.80
6914.00,0.81
6913.00,0.81
6912.00,0.81
6911.00,0.81
6910.00,0.82
6909.00,0.82
6908.00,0.82
6907.00,0.82
6906.00,0.82
6905.00,0.82
6904.00,0.82
6903.00,0.81
6902.00,0.81
6901.00,0.81
6900.00,0.80
6899.00,0.80
6898.00,0.80
6897.00,0.79
6896.00,0.79
6895.00,0.79
6894.00,0.78
6893.00,0.78
6892.00,0.77
6891.00,0.77
6890.00,0.77
6889.00,0.76
6888.00,0.76
6887.00,0.76
6886.00,0.75
6885.00,0.75
6884.00,0.75
6883.00,0.75
6882.00,0.75
6881.00,0.75
6880.00,0.75
6879.00,0.75
6878.00,0.75
6877.00,0.75
6876.00,0.76
6875.00,0.76
6874.00,0.76
6873.00,0.77
6872.00,0.77
6871.00,0.78
6870.00,0.78
6869.00,0.78
6868.00,0.79
6867.00,0.79
6866.00,0.79
6865.00,0.79
6864.00,0.80
6863.00,0.80
6862.00,0.79
6861.00,0.79
6860.00,0.79
6859.00,0.79
6858.00,0.78
6857.00,0.78
6856.00,0.78
6855.00,0.77
6854.00,0.77
6853.00,0.77
6852.00,0.77
6851.00,0.76
6850.00,0.76
6849.00,0.76
6848.00,0.76
6847.00,0.76
6846.00,0.77
6845.00,0.77
6844.00,0.77
6843.00,0.77
6842.00,0.77
6841.00,0.78
6840.00,0.78
6839.00,0.78
6838.00,0.78
6837.00,0.78
6836.00,0.79
6835.00,0.79
6834.00,0.79
6833.00,0.79
6832.00,0.79
6831.00,0.79
6830.00,0.79
6829.00,0.79
6828.00,0.79
6827.00,0.79
6826.00,0.79
6825.00,0.80
6824.00,0.80
6823.00,0.80
6822.00,0.80
6821.00,0.80
6820.00,0.80
6819.00,0.80
6818.00,0.80
6817.00,0.80
6816.00,0.80
6815.00,0.80
6814.00,0.80
6813.00,0.80
6812.00,0.80
6811.00,0.80
6810.00,0.79
6809.00,0.79
6808.00,0.79
6807.00,0.79
6806.00,0.79
6805.00,0.79
6804.00,0.79
6803.00,0.79
6802.00,0.79
6801.00,0.79
6800.00,0.79
6799.00,0.79
6798.00,0.79
6797.00,0.79
6796.00,0.79
6795.00,0.79
6794.00,0.79
6793.00,0.79
6792.00,0.79
6791.00,0.79
6790.00,0.79
6789.00,0.79
6788.00,0.78
6787.00,0.78
6786.00,0.78
6785.00,0.77
6784.00,0.77
6783.00,0.76
6782.00,0.76
6781.00,0.76
6780.00,0.75
6779.00,0.75
6778.00,0.75
6777.00,0.75
6776.00,0.74
6775.00,0.74
6774.00,0.74
6773.00,0.74
6772.00,0.74
6771.00,0.74
6770.00,0.74
6769.00,0.74
6768.00,0.75
6767.00,0.75
6766.00,0.75
6765.00,0.76
6764.00,0.76
6763.00,0.77
6762.00,0.77
6761.00,0.77
6760.00,0.78
6759.00,0.78
6758.00,0.79
6757.00,0.79
6756.00,0.80
6755.00,0.80
6754.00,0.80
6753.00,0.80
6752.00,0.80
6751.00,0.80
6750.00,0.80
6749.00,0.81
6748.00,0.81
6747.00,0.81
6746.00,0.80
6745.00,0.80
6744.00,0.80
6743.00,0.80
6742.00,0.80
6741.00,0.80
6740.00,0.80
6739.00,0.80
6738.00,0.80
6737.00,0.80
6736.00,0.80
6735.00,0.80
6734.00,0.80
6733.00,0.80
6732.00,0.80
6731.00,0.80
6730.00,0.80
6729.00,0.79
6728.00,0.79
6727.00,0.79
6726.00,0.79
6725.00,0.79
6724.00,0.79
6723.00,0.79
6722.00,0.79
6721.00,0.79
6720.00,0.79
6719.00,0.79
6718.00,0.79
6717.00,0.79
6716.00,0.79
6715.00,0.79
6714.00,0.79
6713.00,0.79
6712.00,0.79
6711.00,0.79
6710.00,0.79
6709.00,0.79
6708.00,0.79
6707.00,0.79
6706.00,0.79
6705.00,0.80
6704.00,0.80
6703.00,0.80
6702.00,0.80
6701.00,0.80
6700.00,0.80
6699.00,0.80
6698.00,0.80
6697.00,0.80
6696.00,0.80
6695.00,0.81
6694.00,0.81
6693.00,0.81
6692.00,0.81
6691.00,0.81
6690.00,0.81
6689.00,0.81
6688.00,0.81
6687.00,0.81
6686.00,0.81
6685.00,0.81
6684.00,0.81
6683.00,0.81
6682.00,0.81
6681.00,0.81
6680.00,0.81
6679.00,0.81
6678.00,0.80
6677.00,0.80
6676.00,0.80
6675.00,0.80
6674.00,0.80
6673.00,0.79
6672.00,0.79
6671.00,0.79
6670.00,0.79
6669.00,0.79
6668.00,0.79
6667.00,0.79
6666.00,0.79
6665.00,0.79
6664.00,0.79
6663.00,0.79
6662.00,0.79
6661.00,0.79
6660.00,0.80
6659.00,0.80
6658.00,0.80
6657.00,0.80
6656.00,0.80
6655.00,0.81
6654.00,0.81
6653.00,0.81
6652.00,0.81
6651.00,0.82
6650.00,0.82
6649.00,0.82
6648.00,0.83
6647.00,0.83
6646.00,0.83
6645.00,0.83
6644.00,0.83
6643.00,0.83
6642.00,0.83
6641.00,0.83
6640.00,0.83
6639.00,0.83
6638.00,0.83
6637.00,0.83
6636.00,0.83
6635.00,0.82
6634.00,0.82
6633.00,0.82
6632.00,0.82
6631.00,0.81
6630.00,0.81
6629.00,0.81
6628.00,0.81
6627.00,0.80
6626.00,0.80
6625.00,0.80
6624.00,0.80
6623.00,0.80
6622.00,0.80
6621.00,0.79
6620.00,0.79
6619.00,0.79
6618.00,0.79
6617.00,0.79
6616.00,0.79
6615.00,0.79
6614.00,0.79
6613.00,0.79
6612.00,0.79
6611.00,0.80
6610.00,0.80
6609.00,0.80
6608.00,0.80
6607.00,0.81
6606.00,0.81
6605.00,0.81
6604.00,0.81
6603.00,0.82
6602.00,0.82
6601.00,0.82
6600.00,0.82
6599.00,0.82
6598.00,0.82
6597.00,0.82
6596.00,0.82
6595.00,0.82
6594.00,0.81
6593.00,0.81
6592.00,0.81
6591.00,0.81
6590.00,0.80
6589.00,0.80
6588.00,0.80
6587.00,0.80
6586.00,0.80
6585.00,0.80
6584.00,0.80
6583.00,0.80
6582.00,0.81
6581.00,0.81
6580.00,0.81
6579.00,0.82
6578.00,0.83
6577.00,0.83
6576.00,0.84
6575.00,0.84
6574.00,0.85
6573.00,0.85
6572.00,0.86
6571.00,0.86
6570.00,0.87
6569.00,0.87
6568.00,0.87
6567.00,0.87
6566.00,0.87
6565.00,0.87
6564.00,0.87
6563.00,0.87
6562.00,0.87
6561.00,0.86
6560.00,0.86
6559.00,0.86
6558.00,0.86
6557.00,0.85
6556.00,0.85
6555.00,0.85
6554.00,0.84
6553.00,0.84
6552.00,0.84
6551.00,0.84
6550.00,0.84
6549.00,0.84
6548.00,0.84
6547.00,0.83
6546.00,0.83
6545.00,0.83
6544.00,0.83
6543.00,0.83
6542.00,0.83
6541.00,0.83
6540.00,0.83
6539.00,0.83
6538.00,0.83
6537.00,0.83
6536.00,0.83
6535.00,0.83
6534.00,0.82
6533.00,0.82
6532.00,0.82
6531.00,0.82
6530.00,0.82
6529.00,0.82
6528.00,0.82
6527.00,0.82
6526.00,0.82
6525.00,0.82
6524.00,0.82
6523.00,0.82
6522.00,0.82
6521.00,0.82
6520.00,0.82
6519.00,0.82
6518.00,0.82
6517.00,0.82
6516.00,0.82
6515.00,0.82
6514.00,0.82
6513.00,0.82
6512.00,0.82
6511.00,0.82
6510.00,0.82
6509.00,0.82
6508.00,0.82
6507.00,0.82
6506.00,0.82
6505.00,0.81
6504.00,0.81
6503.00,0.81
6502.00,0.81
6501.00,0.80
6500.00,0.80
6499.00,0.80
6498.00,0.79
6497.00,0.79
6496.00,0.79
6495.00,0.79
6494.00,0.78
6493.00,0.78
6492.00,0.78
6491.00,0.78
6490.00,0.78
6489.00,0.78
6488.00,0.79
6487.00,0.79
6486.00,0.79
6485.00,0.80
6484.00,0.80
6483.00,0.80
6482.00,0.80
6481.00,0.81
6480.00,0.81
6479.00,0.81
6478.00,0.81
6477.00,0.82
6476.00,0.82
6475.00,0.82
6474.00,0.82
6473.00,0.82
6472.00,0.83
6471.00,0.83
6470.00,0.83
6469.00,0.83
6468.00,0.83
6467.00,0.83
6466.00,0.83
6465.00,0.83
6464.00,0.83
6463.00,0.83
6462.00,0.83
6461.00,0.83
6460.00,0.83
6459.00,0.84
6458.00,0.83
6457.00,0.83
6456.00,0.83
6455.00,0.83
6454.00,0.83
6453.00,0.83
6452.00,0.83
6451.00,0.83
6450.00,0.83
6449.00,0.83
6448.00,0.83
6447.00,0.83
6446.00,0.83
6445.00,0.83
6444.00,0.83
6443.00,0.83
6442.00,0.83
6441.00,0.83
6440.00,0.83
6439.00,0.83
6438.00,0.83
6437.00,0.83
6436.00,0.83
6435.00,0.83
6434.00,0.82
6433.00,0.82
6432.00,0.82
6431.00,0.81
6430.00,0.81
6429.00,0.81
6428.00,0.80
6427.00,0.80
6426.00,0.80
6425.00,0.80
6424.00,0.80
6423.00,0.80
6422.00,0.80
6421.00,0.80
6420.00,0.80
6419.00,0.80
6418.00,0.80
6417.00,0.80
6416.00,0.81
6415.00,0.81
6414.00,0.81
6413.00,0.82
6412.00,0.82
6411.00,0.82
6410.00,0.83
6409.00,0.83
6408.00,0.83
6407.00,0.83
6406.00,0.84
6405.00,0.84
6404.00,0.84
6403.00,0.84
6402.00,0.84
6401.00,0.84
6400.00,0.83
6399.00,0.83
6398.00,0.83
6397.00,0.83
6396.00,0.83
6395.00,0.84
6394.00,0.84
6393.00,0.84
6392.00,0.84
6391.00,0.84
6390.00,0.84
6389.00,0.84
6388.00,0.85
6387.00,0.85
6386.00,0.85
6385.00,0.85
6384.00,0.86
6383.00,0.86
6382.00,0.86
6381.00,0.87
6380.00,0.87
6379.00,0.87
6378.00,0.87
6377.00,0.87
6376.00,0.87
6375.00,0.87
6374.00,0.87
6373.00,0.87
6372.00,0.87
6371.00,0.87
6370.00,0.87
6369.00,0.87
6368.00,0.87
6367.00,0.87
6366.00,0.87
6365.00,0.86
6364.00,0.86
6363.00,0.86
6362.00,0.86
6361.00,0.86
6360.00,0.86
6359.00,0.86
6358.00,0.86
6357.00,0.86
6356.00,0.86
6355.00,0.86
6354.00,0.86
6353.00,0.86
6352.00,0.86
6351.00,0.86
6350.00,0.86
6349.00,0.85
6348.00,0.85
6347.00,0.85
6346.00,0.85
6345.00,0.85
6344.00,0.85
6343.00,0.85
6342.00,0.85
6341.00,0.85
6340.00,0.85
6339.00,0.85
6338.00,0.85
6337.00,0.85
6336.00,0.85
6335.00,0.85
6334.00,0.85
6333.00,0.85
6332.00,0.85
6331.00,0.85
6330.00,0.85
6329.00,0.85
6328.00,0.85
6327.00,0.85
6326.00,0.85
6325.00,0.85
6324.00,0.85
6323.00,0.85
6322.00,0.85
6321.00,0.85
6320.00,0.85
6319.00,0.85
6318.00,0.85
6317.00,0.85
6316.00,0.85
6315.00,0.85
6314.00,0.85
6313.00,0.85
6312.00,0.85
6311.00,0.85
6310.00,0.84
6309.00,0.84
6308.00,0.84
6307.00,0.84
6306.00,0.84
6305.00,0.83
6304.00,0.83
6303.00,0.83
6302.00,0.83
6301.00,0.82
6300.00,0.82
6299.00,0.82
6298.00,0.82
6297.00,0.81
6296.00,0.81
6295.00,0.81
6294.00,0.81
6293.00,0.81
6292.00,0.81
6291.00,0.81
6290.00,0.81
6289.00,0.81
6288.00,0.81
6287.00,0.81
6286.00,0.81
6285.00,0.81
6284.00,0.81
6283.00,0.82
6282.00,0.82
6281.00,0.82
6280.00,0.82
6279.00,0.82
6278.00,0.83
6277.00,0.83
6276.00,0.83
6275.00,0.83
6274.00,0.83
6273.00,0.83
6272.00,0.84
6271.00,0.84
6270.00,0.84
6269.00,0.84
6268.00,0.84
6267.00,0.84
6266.00,0.85
6265.00,0.85
6264.00,0.85
6263.00,0.85
6262.00,0.85
6261.00,0.85
6260.00,0.85
6259.00,0.85
6258.00,0.85
6257.00,0.86
6256.00,0.86
6255.00,0.86
6254.00,0.86
6253.00,0.86
6252.00,0.86
6251.00,0.87
6250.00,0.87
6249.00,0.87
6248.00,0.87
6247.00,0.87
6246.00,0.87
6245.00,0.87
6244.00,0.87
6243.00,0.87
6242.00,0.87
6241.00,0.87
6240.00,0.87
6239.00,0.87
6238.00,0.87
6237.00,0.87
6236.00,0.87
6235.00,0.86
6234.00,0.86
6233.00,0.86
6232.00,0.86
6231.00,0.85
6230.00,0.85
6229.00,0.85
6228.00,0.85
6227.00,0.85
6226.00,0.85
6225.00,0.85
6224.00,0.85
6223.00,0.85
6222.00,0.85
6221.00,0.85
6220.00,0.85
6219.00,0.85
6218.00,0.85
6217.00,0.85
6216.00,0.85
6215.00,0.85
6214.00,0.85
6213.00,0.85
6212.00,0.85
6211.00,0.85
6210.00,0.85
6209.00,0.85
6208.00,0.85
6207.00,0.85
6206.00,0.85
6205.00,0.85
6204.00,0.85
6203.00,0.85
6202.00,0.85
6201.00,0.85
6200.00,0.85
6199.00,0.85
6198.00,0.85
6197.00,0.85
6196.00,0.85
6195.00,0.85
6194.00,0.85
6193.00,0.85
6192.00,0.86
6191.00,0.86
6190.00,0.86
6189.00,0.86
6188.00,0.86
6187.00,0.86
6186.00,0.87
6185.00,0.87
6184.00,0.87
6183.00,0.87
6182.00,0.87
6181.00,0.87
6180.00,0.87
6179.00,0.87
6178.00,0.87
6177.00,0.87
6176.00,0.87
6175.00,0.87
6174.00,0.87
6173.00,0.87
6172.00,0.87
6171.00,0.87
6170.00,0.87
6169.00,0.87
6168.00,0.87
6167.00,0.87
6166.00,0.87
6165.00,0.87
6164.00,0.87
6163.00,0.87
6162.00,0.87
6161.00,0.87
6160.00,0.87
6159.00,0.87
6158.00,0.87
6157.00,0.87
6156.00,0.87
6155.00,0.87
6154.00,0.87
6153.00,0.87
6152.00,0.87
6151.00,0.87
6150.00,0.87
6149.00,0.87
6148.00,0.87
6147.00,0.88
6146.00,0.88
6145.00,0.88
6144.00,0.88
6143.00,0.88
6142.00,0.88
6141.00,0.88
6140.00,0.88
6139.00,0.88
6138.00,0.88
6137.00,0.88
6136.00,0.88
6135.00,0.88
6134.00,0.88
6133.00,0.88
6132.00,0.88
6131.00,0.88
6130.00,0.87
6129.00,0.87
6128.00,0.87
6127.00,0.87
6126.00,0.87
6125.00,0.86
6124.00,0.86
6123.00,0.86
6122.00,0.86
6121.00,0.86
6120.00,0.85
6119.00,0.85
6118.00,0.85
6117.00,0.85
6116.00,0.85
6115.00,0.85
6114.00,0.85
6113.00,0.85
6112.00,0.85
6111.00,0.86
6110.00,0.86
6109.00,0.86
6108.00,0.86
6107.00,0.86
6106.00,0.87
6105.00,0.87
6104.00,0.87
6103.00,0.87
6102.00,0.87
6101.00,0.88
6100.00,0.88
6099.00,0.88
6098.00,0.88
6097.00,0.88
6096.00,0.88
6095.00,0.88
6094.00,0.88
6093.00,0.88
6092.00,0.88
6091.00,0.88
6090.00,0.88
6089.00,0.88
6088.00,0.88
6087.00,0.88
6086.00,0.89
6085.00,0.89
6084.00,0.89
6083.00,0.89
6082.00,0.89
6081.00,0.90
6080.00,0.90
6079.00,0.90
6078.00,0.90
6077.00,0.91
6076.00,0.91
6075.00,0.91
6074.00,0.91
6073.00,0.91
6072.00,0.91
6071.00,0.91
6070.00,0.91
6069.00,0.91
6068.00,0.90
6067.00,0.90
6066.00,0.90
6065.00,0.90
6064.00,0.89
6063.00,0.89
6062.00,0.89
6061.00,0.88
6060.00,0.88
6059.00,0.88
6058.00,0.88
6057.00,0.88
6056.00,0.88
6055.00,0.88
6054.00,0.88
6053.00,0.88
6052.00,0.88
6051.00,0.88
6050.00,0.88
6049.00,0.88
6048.00,0.89
6047.00,0.89
6046.00,0.89
6045.00,0.89
6044.00,0.90
6043.00,0.90
6042.00,0.90
6041.00,0.90
6040.00,0.90
6039.00,0.90
6038.00,0.90
6037.00,0.90
6036.00,0.90
6035.00,0.90
6034.00,0.90
6033.00,0.90
6032.00,0.90
6031.00,0.90
6030.00,0.90
6029.00,0.90
6028.00,0.90
6027.00,0.90
6026.00,0.90
6025.00,0.90
6024.00,0.90
6023.00,0.90
6022.00,0.90
6021.00,0.90
6020.00,0.90
6019.00,0.90
6018.00,0.90
6017.00,0.90
6016.00,0.90
6015.00,0.90
6014.00,0.90
6013.00,0.90
6012.00,0.90
6011.00,0.90
6010.00,0.90
6009.00,0.90
6008.00,0.90
6007.00,0.89
6006.00,0.89
6005.00,0.89
6004.00,0.88
6003.00,0.88
6002.00,0.88
6001.00,0.87
6000.00,0.87
5999.00,0.87
5998.00,0.87
5997.00,0.87
5996.00,0.87
5995.00,0.87
5994.00,0.87
5993.00,0.87
5992.00,0.87
5991.00,0.87
5990.00,0.87
5989.00,0.88
5988.00,0.88
5987.00,0.88
5986.00,0.88
5985.00,0.88
5984.00,0.88
5983.00,0.89
5982.00,0.89
5981.00,0.89
5980.00,0.89
5979.00,0.89
5978.00,0.89
5977.00,0.89
5976.00,0.89
5975.00,0.89
5974.00,0.89
5973.00,0.89
5972.00,0.89
5971.00,0.89
5970.00,0.89
5969.00,0.89
5968.00,0.89
5967.00,0.89
5966.00,0.88
5965.00,0.88
5964.00,0.88
5963.00,0.88
5962.00,0.88
5961.00,0.88
5960.00,0.88
5959.00,0.88
5958.00,0.88
5957.00,0.89
5956.00,0.89
5955.00,0.88
5954.00,0.88
5953.00,0.88
5952.00,0.88
5951.00,0.88
5950.00,0.88
5949.00,0.88
5948.00,0.88
5947.00,0.88
5946.00,0.88
5945.00,0.88
5944.00,0.88
5943.00,0.87
5942.00,0.87
5941.00,0.87
5940.00,0.87
5939.00,0.87
5938.00,0.87
5937.00,0.87
5936.00,0.86
5935.00,0.86
5934.00,0.86
5933.00,0.86
5932.00,0.85
5931.00,0.85
5930.00,0.85
5929.00,0.85
5928.00,0.84
5927.00,0.84
5926.00,0.84
5925.00,0.83
5924.00,0.83
5923.00,0.83
5922.00,0.83
5921.00,0.82
5920.00,0.82
5919.00,0.82
5918.00,0.82
5917.00,0.82
5916.00,0.82
5915.00,0.82
5914.00,0.82
5913.00,0.82
5912.00,0.82
5911.00,0.83
5910.00,0.83
5909.00,0.83
5908.00,0.83
5907.00,0.83
5906.00,0.83
5905.00,0.83
5904.00,0.83
5903.00,0.84
5902.00,0.84
5901.00,0.84
5900.00,0.84
5899.00,0.84
5898.00,0.84
5897.00,0.84
5896.00,0.84
5895.00,0.84
5894.00,0.84
5893.00,0.84
5892.00,0.84
5891.00,0.84
5890.00,0.84
5889.00,0.84
5888.00,0.84
5887.00,0.84
5886.00,0.84
5885.00,0.84
5884.00,0.84
5883.00,0.84
5882.00,0.84
5881.00,0.84
5880.00,0.83
5879.00,0.83
5878.00,0.83
5877.00,0.83
5876.00,0.83
5875.00,0.84
5874.00,0.84
5873.00,0.84
5872.00,0.84
5871.00,0.84
5870.00,0.84
5869.00,0.84
5868.00,0.84
5867.00,0.85
5866.00,0.85
5865.00,0.85
5864.00,0.85
5863.00,0.86
5862.00,0.86
5861.00,0.86
5860.00,0.86
5859.00,0.86
5858.00,0.86
5857.00,0.86
5856.00,0.86
5855.00,0.86
5854.00,0.86
5853.00,0.86
5852.00,0.86
5851.00,0.86
5850.00,0.86
5849.00,0.86
5848.00,0.86
5847.00,0.86
5846.00,0.86
5845.00,0.86
5844.00,0.85
5843.00,0.85
5842.00,0.85
5841.00,0.85
5840.00,0.85
5839.00,0.85
5838.00,0.84
5837.00,0.84
5836.00,0.84
5835.00,0.84
5834.00,0.84
5833.00,0.84
5832.00,0.84
5831.00,0.84
5830.00,0.84
5829.00,0.84
5828.00,0.84
5827.00,0.84
5826.00,0.85
5825.00,0.85
5824.00,0.85
5823.00,0.85
5822.00,0.86
5821.00,0.86
5820.00,0.86
5819.00,0.87
5818.00,0.87
5817.00,0.87
5816.00,0.87
5815.00,0.88
5814.00,0.88
5813.00,0.88
5812.00,0.88
5811.00,0.88
5810.00,0.88
5809.00,0.88
5808.00,0.88
5807.00,0.88
5806.00,0.87
5805.00,0.87
5804.00,0.87
5803.00,0.87
5802.00,0.87
5801.00,0.87
5800.00,0.87
5799.00,0.86
5798.00,0.86
5797.00,0.86
5796.00,0.86
5795.00,0.86
5794.00,0.86
5793.00,0.86
5792.00,0.86
5791.00,0.86
5790.00,0.86
5789.00,0.87
5788.00,0.87
5787.00,0.87
5786.00,0.87
5785.00,0.87
5784.00,0.87
5783.00,0.87
5782.00,0.87
5781.00,0.88
5780.00,0.88
5779.00,0.88
5778.00,0.88
5777.00,0.88
5776.00,0.88
5775.00,0.88
5774.00,0.88
5773.00,0.88
5772.00,0.88
5771.00,0.88
5770.00,0.88
5769.00,0.88
5768.00,0.88
5767.00,0.88
5766.00,0.87
5765.00,0.87
5764.00,0.87
5763.00,0.87
5762.00,0.87
5761.00,0.87
5760.00,0.87
5759.00,0.87
5758.00,0.87
5757.00,0.87
5756.00,0.87
5755.00,0.87
5754.00,0.87
5753.00,0.87
5752.00,0.86
5751.00,0.86
5750.00,0.86
5749.00,0.86
5748.00,0.86
5747.00,0.86
5746.00,0.86
5745.00,0.86
5744.00,0.86
5743.00,0.86
5742.00,0.86
5741.00,0.86
5740.00,0.86
5739.00,0.86
5738.00,0.86
5737.00,0.86
5736.00,0.86
5735.00,0.86
5734.00,0.86
5733.00,0.86
5732.00,0.86
5731.00,0.86
5730.00,0.86
5729.00,0.86
5728.00,0.86
5727.00,0.86
5726.00,0.86
5725.00,0.86
5724.00,0.86
5723.00,0.86
5722.00,0.86
5721.00,0.86
5720.00,0.86
5719.00,0.86
5718.00,0.85
5717.00,0.85
5716.00,0.85
5715.00,0.85
5714.00,0.85
5713.00,0.85
5712.00,0.85
5711.00,0.85
5710.00,0.85
5709.00,0.85
5708.00,0.85
5707.00,0.85
5706.00,0.85
5705.00,0.85
5704.00,0.85
5703.00,0.85
5702.00,0.85
5701.00,0.85
5700.00,0.85
5699.00,0.85
5698.00,0.85
5697.00,0.85
5696.00,0.85
5695.00,0.85
5694.00,0.85
5693.00,0.85
5692.00,0.85
5691.00,0.84
5690.00,0.84
5689.00,0.84
5688.00,0.84
5687.00,0.84
5686.00,0.84
5685.00,0.84
5684.00,0.83
5683.00,0.83
5682.00,0.83
5681.00,0.83
5680.00,0.83
5679.00,0.82
5678.00,0.82
5677.00,0.82
5676.00,0.82
5675.00,0.82
5674.00,0.82
5673.00,0.82
5672.00,0.82
5671.00,0.82
5670.00,0.82
5669.00,0.82
5668.00,0.82
5667.00,0.82
5666.00,0.83
5665.00,0.83
5664.00,0.83
5663.00,0.83
5662.00,0.83
5661.00,0.84
5660.00,0.84
5659.00,0.84
5658.00,0.84
5657.00,0.85
5656.00,0.85
5655.00,0.85
5654.00,0.86
5653.00,0.86
5652.00,0.86
5651.00,0.86
5650.00,0.86
5649.00,0.87
5648.00,0.87
5647.00,0.87
5646.00,0.87
5645.00,0.87
5644.00,0.87
5643.00,0.87
5642.00,0.87
5641.00,0.87
5640.00,0.86
5639.00,0.86
5638.00,0.86
5637.00,0.86
5636.00,0.86
5635.00,0.86
5634.00,0.87
5633.00,0.87
5632.00,0.87
5631.00,0.87
5630.00,0.87
5629.00,0.87
5628.00,0.87
5627.00,0.88
5626.00,0.88
5625.00,0.88
5624.00,0.88
5623.00,0.88
5622.00,0.88
5621.00,0.88
5620.00,0.89
5619.00,0.89
5618.00,0.89
5617.00,0.89
5616.00,0.88
5615.00,0.88
5614.00,0.88
5613.00,0.88
5612.00,0.88
5611.00,0.88
5610.00,0.88
5609.00,0.88
5608.00,0.88
5607.00,0.88
5606.00,0.88
5605.00,0.88
5604.00,0.88
5603.00,0.88
5602.00,0.88
5601.00,0.88
5600.00,0.88
5599.00,0.88
5598.00,0.88
5597.00,0.87
5596.00,0.87
5595.00,0.87
5594.00,0.87
5593.00,0.87
5592.00,0.87
5591.00,0.87
5590.00,0.87
5589.00,0.87
5588.00,0.87
5587.00,0.87
5586.00,0.88
5585.00,0.88
5584.00,0.88
5583.00,0.88
5582.00,0.88
5581.00,0.88
5580.00,0.88
5579.00,0.88
5578.00,0.88
5577.00,0.89
5576.00,0.89
5575.00,0.89
5574.00,0.89
5573.00,0.89
5572.00,0.89
5571.00,0.89
5570.00,0.89
5569.00,0.89
5568.00,0.89
5567.00,0.90
5566.00,0.90
5565.00,0.90
5564.00,0.90
5563.00,0.90
5562.00,0.90
5561.00,0.90
5560.00,0.90
5559.00,0.90
5558.00,0.90
5557.00,0.89
5556.00,0.89
5555.00,0.89
5554.00,0.89
5553.00,0.89
5552.00,0.88
5551.00,0.88
5550.00,0.88
5549.00,0.88
5548.00,0.87
5547.00,0.87
5546.00,0.87
5545.00,0.87
5544.00,0.87
5543.00,0.87
5542.00,0.87
5541.00,0.87
5540.00,0.87
5539.00,0.87
5538.00,0.87
5537.00,0.87
5536.00,0.87
5535.00,0.87
5534.00,0.88
5533.00,0.88
5532.00,0.88
5531.00,0.88
5530.00,0.88
5529.00,0.88
5528.00,0.89
5527.00,0.89
5526.00,0.89
5525.00,0.89
5524.00,0.89
5523.00,0.89
5522.00,0.89
5521.00,0.89
5520.00,0.88
5519.00,0.88
5518.00,0.88
5517.00,0.88
5516.00,0.88
5515.00,0.88
5514.00,0.88
5513.00,0.88
5512.00,0.87
5511.00,0.87
5510.00,0.87
5509.00,0.87
5508.00,0.87
5507.00,0.87
5506.00,0.87
5505.00,0.88
5504.00,0.88
5503.00,0.88
5502.00,0.88
5501.00,0.88
5500.00,0.88
5499.00,0.89
5498.00,0.89
5497.00,0.89
5496.00,0.89
5495.00,0.89
5494.00,0.90
5493.00,0.90
5492.00,0.90
5491.00,0.90
5490.00,0.90
5489.00,0.90
5488.00,0.90
5487.00,0.90
5486.00,0.90
5485.00,0.90
5484.00,0.89
5483.00,0.89
5482.00,0.89
5481.00,0.89
5480.00,0.89
5479.00,0.89
5478.00,0.88
5477.00,0.88
5476.00,0.88
5475.00,0.88
5474.00,0.88
5473.00,0.88
5472.00,0.88
5471.00,0.88
5470.00,0.88
5469.00,0.88
5468.00,0.88
5467.00,0.89
5466.00,0.89
5465.00,0.89
5464.00,0.89
5463.00,0.89
5462.00,0.89
5461.00,0.89
5460.00,0.89
5459.00,0.88
5458.00,0.88
5457.00,0.88
5456.00,0.88
5455.00,0.87
5454.00,0.87
5453.00,0.86
5452.00,0.86
5451.00,0.86
5450.00,0.85
5449.00,0.85
5448.00,0.84
5447.00,0.84
5446.00,0.83
5445.00,0.83
5444.00,0.83
5443.00,0.83
5442.00,0.82
5441.00,0.82
5440.00,0.82
5439.00,0.82
5438.00,0.83
5437.00,0.83
5436.00,0.83
5435.00,0.83
5434.00,0.84
5433.00,0.84
5432.00,0.84
5431.00,0.85
5430.00,0.85
5429.00,0.85
5428.00,0.85
5427.00,0.86
5426.00,0.86
5425.00,0.86
5424.00,0.86
5423.00,0.86
5422.00,0.86
5421.00,0.86
5420.00,0.85
5419.00,0.85
5418.00,0.85
5417.00,0.85
5416.00,0.84
5415.00,0.84
5414.00,0.84
5413.00,0.84
5412.00,0.84
5411.00,0.84
5410.00,0.84
5409.00,0.84
5408.00,0.84
5407.00,0.84
5406.00,0.85
5405.00,0.85
5404.00,0.85
5403.00,0.85
5402.00,0.85
5401.00,0.85
5400.00,0.85
5399.00,0.85
5398.00,0.85
5397.00,0.85
5396.00,0.85
5395.00,0.85
5394.00,0.84
5393.00,0.84
5392.00,0.84
5391.00,0.84
5390.00,0.84
5389.00,0.84
5388.00,0.84
5387.00,0.84
5386.00,0.83
5385.00,0.83
5384.00,0.83
5383.00,0.83
5382.00,0.83
5381.00,0.83
5380.00,0.83
5379.00,0.83
5378.00,0.83
5377.00,0.83
5376.00,0.83
5375.00,0.84
5374.00,0.84
5373.00,0.84
5372.00,0.84
5371.00,0.84
5370.00,0.84
5369.00,0.84
5368.00,0.84
5367.00,0.85
5366.00,0.85
5365.00,0.85
5364.00,0.85
5363.00,0.85
5362.00,0.85
5361.00,0.85
5360.00,0.84
5359.00,0.84
5358.00,0.84
5357.00,0.84
5356.00,0.83
5355.00,0.83
5354.00,0.82
5353.00,0.82
5352.00,0.82
5351.00,0.81
5350.00,0.81
5349.00,0.81
5348.00,0.81
5347.00,0.80
5346.00,0.80
5345.00,0.80
5344.00,0.80
5343.00,0.80
5342.00,0.80
5341.00,0.81
5340.00,0.81
5339.00,0.81
5338.00,0.81
5337.00,0.81
5336.00,0.82
5335.00,0.82
5334.00,0.82
5333.00,0.82
5332.00,0.82
5331.00,0.82
5330.00,0.82
5329.00,0.82
5328.00,0.83
5327.00,0.83
5326.00,0.83
5325.00,0.83
5324.00,0.83
5323.00,0.83
5322.00,0.83
5321.00,0.83
5320.00,0.83
5319.00,0.83
5318.00,0.83
5317.00,0.83
5316.00,0.83
5315.00,0.83
5314.00,0.83
5313.00,0.84
5312.00,0.84
5311.00,0.84
5310.00,0.84
5309.00,0.84
5308.00,0.84
5307.00,0.84
5306.00,0.84
5305.00,0.84
5304.00,0.84
5303.00,0.84
5302.00,0.84
5301.00,0.84
5300.00,0.84
5299.00,0.84
5298.00,0.84
5297.00,0.84
5296.00,0.84
5295.00,0.84
5294.00,0.84
5293.00,0.84
5292.00,0.84
5291.00,0.83
5290.00,0.83
5289.00,0.83
5288.00,0.83
5287.00,0.83
5286.00,0.82
5285.00,0.82
5284.00,0.82
5283.00,0.82
5282.00,0.82
5281.00,0.82
5280.00,0.82
5279.00,0.82
5278.00,0.82
5277.00,0.82
5276.00,0.82
5275.00,0.82
5274.00,0.82
5273.00,0.82
5272.00,0.82
5271.00,0.82
5270.00,0.82
5269.00,0.82
5268.00,0.82
5267.00,0.82
5266.00,0.82
5265.00,0.82
5264.00,0.82
5263.00,0.82
5262.00,0.82
5261.00,0.82
5260.00,0.82
5259.00,0.82
5258.00,0.82
5257.00,0.82
5256.00,0.82
5255.00,0.82
5254.00,0.82
5253.00,0.82
5252.00,0.81
5251.00,0.81
5250.00,0.81
5249.00,0.81
5248.00,0.81
5247.00,0.81
5246.00,0.81
5245.00,0.81
5244.00,0.81
5243.00,0.81
5242.00,0.81
5241.00,0.81
5240.00,0.81
5239.00,0.81
5238.00,0.81
5237.00,0.81
5236.00,0.81
5235.00,0.82
5234.00,0.82
5233.00,0.82
5232.00,0.82
5231.00,0.82
5230.00,0.82
5229.00,0.82
5228.00,0.82
5227.00,0.82
5226.00,0.82
5225.00,0.83
5224.00,0.83
5223.00,0.83
5222.00,0.83
5221.00,0.83
5220.00,0.83
5219.00,0.83
5218.00,0.83
5217.00,0.83
5216.00,0.83
5215.00,0.83
5214.00,0.83
5213.00,0.83
5212.00,0.83
5211.00,0.83
5210.00,0.83
5209.00,0.83
5208.00,0.83
5207.00,0.83
5206.00,0.83
5205.00,0.83
5204.00,0.83
5203.00,0.83
5202.00,0.83
5201.00,0.84
5200.00,0.84
5199.00,0.84
5198.00,0.84
5197.00,0.84
5196.00,0.85
5195.00,0.85
5194.00,0.85
5193.00,0.85
5192.00,0.85
5191.00,0.85
5190.00,0.85
5189.00,0.85
5188.00,0.85
5187.00,0.85
5186.00,0.85
5185.00,0.85
5184.00,0.85
5183.00,0.85
5182.00,0.85
5181.00,0.85
5180.00,0.85
5179.00,0.85
5178.00,0.85
5177.00,0.84
5176.00,0.84
5175.00,0.84
5174.00,0.84
5173.00,0.84
5172.00,0.84
5171.00,0.84
5170.00,0.84
5169.00,0.84
5168.00,0.84
5167.00,0.84
5166.00,0.84
5165.00,0.84
5164.00,0.84
5163.00,0.84
5162.00,0.83
5161.00,0.83
5160.00,0.83
5159.00,0.83
5158.00,0.83
5157.00,0.82
5156.00,0.82
5155.00,0.82
5154.00,0.82
5153.00,0.82
5152.00,0.81
5151.00,0.81
5150.00,0.81
5149.00,0.81
5148.00,0.81
5147.00,0.81
5146.00,0.81
5145.00,0.81
5144.00,0.81
5143.00,0.81
5142.00,0.81
5141.00,0.81
5140.00,0.81
5139.00,0.81
5138.00,0.81
5137.00,0.81
5136.00,0.82
5135.00,0.82
5134.00,0.82
5133.00,0.82
5132.00,0.82
5131.00,0.82
5130.00,0.82
5129.00,0.82
5128.00,0.82
5127.00,0.82
5126.00,0.82
5125.00,0.83
5124.00,0.83
5123.00,0.83
5122.00,0.83
5121.00,0.83
5120.00,0.84
5119.00,0.84
5118.00,0.84
5117.00,0.84
5116.00,0.84
5115.00,0.84
5114.00,0.85
5113.00,0.85
5112.00,0.85
5111.00,0.85
5110.00,0.85
5109.00,0.85
5108.00,0.85
5107.00,0.85
5106.00,0.85
5105.00,0.85
5104.00,0.85
5103.00,0.85
5102.00,0.84
5101.00,0.84
5100.00,0.84
5099.00,0.84
5098.00,0.84
5097.00,0.84
5096.00,0.84
5095.00,0.83
5094.00,0.83
5093.00,0.83
5092.00,0.83
5091.00,0.83
5090.00,0.83
5089.00,0.84
5088.00,0.84
5087.00,0.84
5086.00,0.84
5085.00,0.84
5084.00,0.84
5083.00,0.85
5082.00,0.85
5081.00,0.85
5080.00,0.85
5079.00,0.85
5078.00,0.85
5077.00,0.86
5076.00,0.86
5075.00,0.86
5074.00,0.86
5073.00,0.86
5072.00,0.86
5071.00,0.86
5070.00,0.86
5069.00,0.86
5068.00,0.86
5067.00,0.86
5066.00,0.86
5065.00,0.86
5064.00,0.86
5063.00,0.86
5062.00,0.85
5061.00,0.85
5060.00,0.85
5059.00,0.85
5058.00,0.85
5057.00,0.85
5056.00,0.85
5055.00,0.85
5054.00,0.85
5053.00,0.85
5052.00,0.85
5051.00,0.85
5050.00,0.85
5049.00,0.85
5048.00,0.85
5047.00,0.85
5046.00,0.85
5045.00,0.85
5044.00,0.85
5043.00,0.85
5042.00,0.85
5041.00,0.85
5040.00,0.85
5039.00,0.85
5038.00,0.84
5037.00,0.84
5036.00,0.84
5035.00,0.84
5034.00,0.84
5033.00,0.84
5032.00,0.84
5031.00,0.84
5030.00,0.84
5029.00,0.84
5028.00,0.84
5027.00,0.84
5026.00,0.84
5025.00,0.84
5024.00,0.85
5023.00,0.85
5022.00,0.85
5021.00,0.85
5020.00,0.85
5019.00,0.85
5018.00,0.86
5017.00,0.86
5016.00,0.86
5015.00,0.86
5014.00,0.86
5013.00,0.85
5012.00,0.85
5011.00,0.85
5010.00,0.85
5009.00,0.85
5008.00,0.85
5007.00,0.85
5006.00,0.85
5005.00,0.85
5004.00,0.85
5003.00,0.85
5002.00,0.85
5001.00,0.85
5000.00,0.85
4999.00,0.85
4998.00,0.85
4997.00,0.85
4996.00,0.86
4995.00,0.85
4994.00,0.85
4993.00,0.85
4992.00,0.85
4991.00,0.85
4990.00,0.85
4989.00,0.85
4988.00,0.85
4987.00,0.85
4986.00,0.85
4985.00,0.85
4984.00,0.85
4983.00,0.85
4982.00,0.85
4981.00,0.85
4980.00,0.84
4979.00,0.84
4978.00,0.84
4977.00,0.84
4976.00,0.84
4975.00,0.84
4974.00,0.84
4973.00,0.84
4972.00,0.84
4971.00,0.84
4970.00,0.84
4969.00,0.85
4968.00,0.85
4967.00,0.85
4966.00,0.85
4965.00,0.86
4964.00,0.86
4963.00,0.86
4962.00,0.87
4961.00,0.87
4960.00,0.88
4959.00,0.88
4958.00,0.88
4957.00,0.89
4956.00,0.89
4955.00,0.89
4954.00,0.89
4953.00,0.89
4952.00,0.89
4951.00,0.89
4950.00,0.89
4949.00,0.89
4948.00,0.89
4947.00,0.89
4946.00,0.88
4945.00,0.88
4944.00,0.88
4943.00,0.88
4942.00,0.88
4941.00,0.87
4940.00,0.87
4939.00,0.87
4938.00,0.87
4937.00,0.87
4936.00,0.87
4935.00,0.87
4934.00,0.87
4933.00,0.87
4932.00,0.87
4931.00,0.87
4930.00,0.87
4929.00,0.87
4928.00,0.87
4927.00,0.87
4926.00,0.87
4925.00,0.87
4924.00,0.87
4923.00,0.87
4922.00,0.86
4921.00,0.86
4920.00,0.86
4919.00,0.86
4918.00,0.85
4917.00,0.85
4916.00,0.85
4915.00,0.85
4914.00,0.84
4913.00,0.84
4912.00,0.84
4911.00,0.84
4910.00,0.84
4909.00,0.84
4908.00,0.84
4907.00,0.84
4906.00,0.84
4905.00,0.84
4904.00,0.84
4903.00,0.84
4902.00,0.84
4901.00,0.84
4900.00,0.84
4899.00,0.84
4898.00,0.84
4897.00,0.84
4896.00,0.85
4895.00,0.85
4894.00,0.85
4893.00,0.85
4892.00,0.85
4891.00,0.85
4890.00,0.85
4889.00,0.86
4888.00,0.86
4887.00,0.86
4886.00,0.86
4885.00,0.86
4884.00,0.86
4883.00,0.86
4882.00,0.86
4881.00,0.86
4880.00,0.86
4879.00,0.86
4878.00,0.86
4877.00,0.86
4876.00,0.86
4875.00,0.86
4874.00,0.86
4873.00,0.86
4872.00,0.87
4871.00,0.87
4870.00,0.87
4869.00,0.87
4868.00,0.87
4867.00,0.88
4866.00,0.88
4865.00,0.88
4864.00,0.88
4863.00,0.89
4862.00,0.89
4861.00,0.89
4860.00,0.89
4859.00,0.89
4858.00,0.89
4857.00,0.89
4856.00,0.89
4855.00,0.89
4854.00,0.89
4853.00,0.89
4852.00,0.89
4851.00,0.89
4850.00,0.89
4849.00,0.88
4848.00,0.88
4847.00,0.88
4846.00,0.88
4845.00,0.88
4844.00,0.88
4843.00,0.88
4842.00,0.88
4841.00,0.88
4840.00,0.88
4839.00,0.88
4838.00,0.88
4837.00,0.88
4836.00,0.88
4835.00,0.88
4834.00,0.88
4833.00,0.88
4832.00,0.88
4831.00,0.88
4830.00,0.88
4829.00,0.88
4828.00,0.88
4827.00,0.88
4826.00,0.88
4825.00,0.88
4824.00,0.88
4823.00,0.88
4822.00,0.88
4821.00,0.88
4820.00,0.88
4819.00,0.89
4818.00,0.89
4817.00,0.89
4816.00,0.89
4815.00,0.89
4814.00,0.89
4813.00,0.89
4812.00,0.89
4811.00,0.89
4810.00,0.90
4809.00,0.90
4808.00,0.90
4807.00,0.90
4806.00,0.90
4805.00,0.90
4804.00,0.90
4803.00,0.90
4802.00,0.91
4801.00,0.91
4800.00,0.91
4799.00,0.91
4798.00,0.91
4797.00,0.91
4796.00,0.91
4795.00,0.91
4794.00,0.91
4793.00,0.91
4792.00,0.91
4791.00,0.90
4790.00,0.90
4789.00,0.90
4788.00,0.90
4787.00,0.89
4786.00,0.89
4785.00,0.89
4784.00,0.88
4783.00,0.88
4782.00,0.88
4781.00,0.87
4780.00,0.87
4779.00,0.87
4778.00,0.86
4777.00,0.86
4776.00,0.86
4775.00,0.86
4774.00,0.86
4773.00,0.86
4772.00,0.86
4771.00,0.87
4770.00,0.87
4769.00,0.87
4768.00,0.88
4767.00,0.88
4766.00,0.89
4765.00,0.89
4764.00,0.90
4763.00,0.90
4762.00,0.90
4761.00,0.91
4760.00,0.91
4759.00,0.91
4758.00,0.92
4757.00,0.92
4756.00,0.92
4755.00,0.92
4754.00,0.92
4753.00,0.91
4752.00,0.91
4751.00,0.91
4750.00,0.91
4749.00,0.90
4748.00,0.90
4747.00,0.90
4746.00,0.89
4745.00,0.89
4744.00,0.89
4743.00,0.88
4742.00,0.88
4741.00,0.88
4740.00,0.87
4739.00,0.87
4738.00,0.87
4737.00,0.87
4736.00,0.87
4735.00,0.87
4734.00,0.87
4733.00,0.87
4732.00,0.87
4731.00,0.87
4730.00,0.87
4729.00,0.87
4728.00,0.87
4727.00,0.87
4726.00,0.87
4725.00,0.87
4724.00,0.87
4723.00,0.87
4722.00,0.87
4721.00,0.87
4720.00,0.87
4719.00,0.87
4718.00,0.87
4717.00,0.87
4716.00,0.87
4715.00,0.87
4714.00,0.87
4713.00,0.87
4712.00,0.87
4711.00,0.87
4710.00,0.86
4709.00,0.86
4708.00,0.86
4707.00,0.86
4706.00,0.86
4705.00,0.86
4704.00,0.86
4703.00,0.87
4702.00,0.87
4701.00,0.87
4700.00,0.87
4699.00,0.87
4698.00,0.87
4697.00,0.87
4696.00,0.87
4695.00,0.87
4694.00,0.87
4693.00,0.87
4692.00,0.87
4691.00,0.87
4690.00,0.87
4689.00,0.87
4688.00,0.87
4687.00,0.87
4686.00,0.87
4685.00,0.87
4684.00,0.87
4683.00,0.87
4682.00,0.87
4681.00,0.88
4680.00,0.88
4679.00,0.88
4678.00,0.88
4677.00,0.88
4676.00,0.89
4675.00,0.89
4674.00,0.89
4673.00,0.90
4672.00,0.90
4671.00,0.90
4670.00,0.90
4669.00,0.90
4668.00,0.91
4667.00,0.91
4666.00,0.91
4665.00,0.91
4664.00,0.91
4663.00,0.91
4662.00,0.91
4661.00,0.91
4660.00,0.91
4659.00,0.91
4658.00,0.91
4657.00,0.91
4656.00,0.90
4655.00,0.90
4654.00,0.90
4653.00,0.90
4652.00,0.89
4651.00,0.89
4650.00,0.89
4649.00,0.89
4648.00,0.89
4647.00,0.89
4646.00,0.89
4645.00,0.89
4644.00,0.89
4643.00,0.88
4642.00,0.88
4641.00,0.88
4640.00,0.88
4639.00,0.88
4638.00,0.88
4637.00,0.88
4636.00,0.88
4635.00,0.88
4634.00,0.88
4633.00,0.88
4632.00,0.88
4631.00,0.88
4630.00,0.88
4629.00,0.88
4628.00,0.88
4627.00,0.88
4626.00,0.88
4625.00,0.88
4624.00,0.88
4623.00,0.88
4622.00,0.88
4621.00,0.88
4620.00,0.88
4619.00,0.89
4618.00,0.89
4617.00,0.89
4616.00,0.89
4615.00,0.89
4614.00,0.89
4613.00,0.90
4612.00,0.90
4611.00,0.90
4610.00,0.90
4609.00,0.90
4608.00,0.90
4607.00,0.90
4606.00,0.90
4605.00,0.90
4604.00,0.89
4603.00,0.89
4602.00,0.89
4601.00,0.89
4600.00,0.89
4599.00,0.88
4598.00,0.88
4597.00,0.88
4596.00,0.88
4595.00,0.88
4594.00,0.87
4593.00,0.87
4592.00,0.87
4591.00,0.87
4590.00,0.87
4589.00,0.87
4588.00,0.87
4587.00,0.87
4586.00,0.87
4585.00,0.87
4584.00,0.87
4583.00,0.87
4582.00,0.87
4581.00,0.87
4580.00,0.87
4579.00,0.87
4578.00,0.87
4577.00,0.87
4576.00,0.87
4575.00,0.87
4574.00,0.87
4573.00,0.87
4572.00,0.87
4571.00,0.87
4570.00,0.87
4569.00,0.87
4568.00,0.87
4567.00,0.87
4566.00,0.87
4565.00,0.87
4564.00,0.87
4563.00,0.87
4562.00,0.87
4561.00,0.86
4560.00,0.86
4559.00,0.86
4558.00,0.86
4557.00,0.86
4556.00,0.86
4555.00,0.86
4554.00,0.86
4553.00,0.86
4552.00,0.86
4551.00,0.86
4550.00,0.86
4549.00,0.86
4548.00,0.86
4547.00,0.86
4546.00,0.86
4545.00,0.86
4544.00,0.86
4543.00,0.86
4542.00,0.86
4541.00,0.86
4540.00,0.86
4539.00,0.86
4538.00,0.86
4537.00,0.86
4536.00,0.86
4535.00,0.86
4534.00,0.86
4533.00,0.86
4532.00,0.86
4531.00,0.86
4530.00,0.86
4529.00,0.86
4528.00,0.87
4527.00,0.87
4526.00,0.87
4525.00,0.87
4524.00,0.87
4523.00,0.87
4522.00,0.87
4521.00,0.87
4520.00,0.87
4519.00,0.87
4518.00,0.87
4517.00,0.87
4516.00,0.87
4515.00,0.87
4514.00,0.87
4513.00,0.87
4512.00,0.87
4511.00,0.87
4510.00,0.87
4509.00,0.87
4508.00,0.87
4507.00,0.87
4506.00,0.87
4505.00,0.87
4504.00,0.87
4503.00,0.87
4502.00,0.87
4501.00,0.87
4500.00,0.86
4499.00,0.86
4498.00,0.86
4497.00,0.86
4496.00,0.86
4495.00,0.86
4494.00,0.86
4493.00,0.85
4492.00,0.85
4491.00,0.85
4490.00,0.85
4489.00,0.84
4488.00,0.84
4487.00,0.83
4486.00,0.83
4485.00,0.83
4484.00,0.83
4483.00,0.82
4482.00,0.82
4481.00,0.82
4480.00,0.82
4479.00,0.82
4478.00,0.82
4477.00,0.82
4476.00,0.82
4475.00,0.82
4474.00,0.82
4473.00,0.83
4472.00,0.83
4471.00,0.83
4470.00,0.84
4469.00,0.84
4468.00,0.84
4467.00,0.85
4466.00,0.85
4465.00,0.85
4464.00,0.85
4463.00,0.85
4462.00,0.86
4461.00,0.86
4460.00,0.86
4459.00,0.86
4458.00,0.86
4457.00,0.86
4456.00,0.86
4455.00,0.86
4454.00,0.86
4453.00,0.85
4452.00,0.85
4451.00,0.85
4450.00,0.85
4449.00,0.85
4448.00,0.85
4447.00,0.85
4446.00,0.85
4445.00,0.85
4444.00,0.85
4443.00,0.86
4442.00,0.86
4441.00,0.86
4440.00,0.86
4439.00,0.86
4438.00,0.86
4437.00,0.86
4436.00,0.86
4435.00,0.86
4434.00,0.86
4433.00,0.86
4432.00,0.86
4431.00,0.86
4430.00,0.86
4429.00,0.86
4428.00,0.86
4427.00,0.86
4426.00,0.86
4425.00,0.86
4424.00,0.86
4423.00,0.86
4422.00,0.86
4421.00,0.86
4420.00,0.86
4419.00,0.86
4418.00,0.86
4417.00,0.86
4416.00,0.86
4415.00,0.86
4414.00,0.86
4413.00,0.86
4412.00,0.86
4411.00,0.86
4410.00,0.86
4409.00,0.86
4408.00,0.86
4407.00,0.86
4406.00,0.86
4405.00,0.86
4404.00,0.86
4403.00,0.86
4402.00,0.86
4401.00,0.86
4400.00,0.86
4399.00,0.86
4398.00,0.86
4397.00,0.86
4396.00,0.86
4395.00,0.87
4394.00,0.87
4393.00,0.87
4392.00,0.87
4391.00,0.87
4390.00,0.87
4389.00,0.87
4388.00,0.87
4387.00,0.86
4386.00,0.86
4385.00,0.86
4384.00,0.86
4383.00,0.86
4382.00,0.86
4381.00,0.85
4380.00,0.85
4379.00,0.85
4378.00,0.85
4377.00,0.84
4376.00,0.84
4375.00,0.84
4374.00,0.84
4373.00,0.83
4372.00,0.83
4371.00,0.83
4370.00,0.83
4369.00,0.83
4368.00,0.83
4367.00,0.83
4366.00,0.83
4365.00,0.84
4364.00,0.84
4363.00,0.84
4362.00,0.84
4361.00,0.84
4360.00,0.85
4359.00,0.85
4358.00,0.85
4357.00,0.85
4356.00,0.86
4355.00,0.86
4354.00,0.86
4353.00,0.86
4352.00,0.86
4351.00,0.86
4350.00,0.85
4349.00,0.85
4348.00,0.85
4347.00,0.85
4346.00,0.85
4345.00,0.85
4344.00,0.85
4343.00,0.84
4342.00,0.84
4341.00,0.84
4340.00,0.84
4339.00,0.83
4338.00,0.83
4337.00,0.83
4336.00,0.83
4335.00,0.83
4334.00,0.84
4333.00,0.84
4332.00,0.84
4331.00,0.84
4330.00,0.84
4329.00,0.84
4328.00,0.84
4327.00,0.85
4326.00,0.85
4325.00,0.85
4324.00,0.86
4323.00,0.86
4322.00,0.86
4321.00,0.86
4320.00,0.87
4319.00,0.87
4318.00,0.87
4317.00,0.87
4316.00,0.87
4315.00,0.87
4314.00,0.87
4313.00,0.87
4312.00,0.87
4311.00,0.87
4310.00,0.87
4309.00,0.87
4308.00,0.87
4307.00,0.87
4306.00,0.87
4305.00,0.87
4304.00,0.87
4303.00,0.87
4302.00,0.87
4301.00,0.87
4300.00,0.88
4299.00,0.88
4298.00,0.88
4297.00,0.88
4296.00,0.89
4295.00,0.89
4294.00,0.89
4293.00,0.90
4292.00,0.90
4291.00,0.90
4290.00,0.90
4289.00,0.90
4288.00,0.90
4287.00,0.90
4286.00,0.90
4285.00,0.90
4284.00,0.90
4283.00,0.91
4282.00,0.91
4281.00,0.90
4280.00,0.90
4279.00,0.90
4278.00,0.90
4277.00,0.90
4276.00,0.90
4275.00,0.90
4274.00,0.90
4273.00,0.90
4272.00,0.91
4271.00,0.91
4270.00,0.91
4269.00,0.91
4268.00,0.91
4267.00,0.91
4266.00,0.91
4265.00,0.90
4264.00,0.90
4263.00,0.90
4262.00,0.90
4261.00,0.90
4260.00,0.89
4259.00,0.89
4258.00,0.89
4257.00,0.88
4256.00,0.88
4255.00,0.87
4254.00,0.87
4253.00,0.87
4252.00,0.86
4251.00,0.86
4250.00,0.86
4249.00,0.85
4248.00,0.85
4247.00,0.85
4246.00,0.85
4245.00,0.84
4244.00,0.84
4243.00,0.84
4242.00,0.84
4241.00,0.84
4240.00,0.84
4239.00,0.85
4238.00,0.85
4237.00,0.85
4236.00,0.85
4235.00,0.86
4234.00,0.86
4233.00,0.86
4232.00,0.87
4231.00,0.87
4230.00,0.87
4229.00,0.88
4228.00,0.88
4227.00,0.88
4226.00,0.89
4225.00,0.89
4224.00,0.89
4223.00,0.89
4222.00,0.90
4221.00,0.90
4220.00,0.90
4219.00,0.90
4218.00,0.90
4217.00,0.89
4216.00,0.89
4215.00,0.89
4214.00,0.89
4213.00,0.89
4212.00,0.89
4211.00,0.89
4210.00,0.89
4209.00,0.89
4208.00,0.89
4207.00,0.88
4206.00,0.88
4205.00,0.88
4204.00,0.88
4203.00,0.88
4202.00,0.88
4201.00,0.88
4200.00,0.88
4199.00,0.88
4198.00,0.88
4197.00,0.88
4196.00,0.88
4195.00,0.87
4194.00,0.87
4193.00,0.87
4192.00,0.87
4191.00,0.87
4190.00,0.86
4189.00,0.86
4188.00,0.86
4187.00,0.86
4186.00,0.86
4185.00,0.86
4184.00,0.86
4183.00,0.86
4182.00,0.86
4181.00,0.87
4180.00,0.87
4179.00,0.87
4178.00,0.87
4177.00,0.87
4176.00,0.87
4175.00,0.87
4174.00,0.87
4173.00,0.87
4172.00,0.86
4171.00,0.86
4170.00,0.86
4169.00,0.86
4168.00,0.86
4167.00,0.86
4166.00,0.86
4165.00,0.86
4164.00,0.86
4163.00,0.86
4162.00,0.86
4161.00,0.86
4160.00,0.86
4159.00,0.86
4158.00,0.86
4157.00,0.86
4156.00,0.86
4155.00,0.86
4154.00,0.86
4153.00,0.86
4152.00,0.86
4151.00,0.86
4150.00,0.86
4149.00,0.86
4148.00,0.86
4147.00,0.87
4146.00,0.87
4145.00,0.86
4144.00,0.86
4143.00,0.86
4142.00,0.86
4141.00,0.86
4140.00,0.86
4139.00,0.86
4138.00,0.86
4137.00,0.86
4136.00,0.86
4135.00,0.86
4134.00,0.86
4133.00,0.86
4132.00,0.86
4131.00,0.86
4130.00,0.86
4129.00,0.86
4128.00,0.86
4127.00,0.85
4126.00,0.85
4125.00,0.85
4124.00,0.85
4123.00,0.84
4122.00,0.84
4121.00,0.84
4120.00,0.83
4119.00,0.83
4118.00,0.83
4117.00,0.82
4116.00,0.82
4115.00,0.82
4114.00,0.82
4113.00,0.82
4112.00,0.82
4111.00,0.82
4110.00,0.82
4109.00,0.82
4108.00,0.82
4107.00,0.82
4106.00,0.82
4105.00,0.83
4104.00,0.83
4103.00,0.83
4102.00,0.83
4101.00,0.84
4100.00,0.84
4099.00,0.84
4098.00,0.84
4097.00,0.85
4096.00,0.85
4095.00,0.85
4094.00,0.85
4093.00,0.85
4092.00,0.86
4091.00,0.86
4090.00,0.86
4089.00,0.86
4088.00,0.87
4087.00,0.87
4086.00,0.87
4085.00,0.87
4084.00,0.87
4083.00,0.87
4082.00,0.87
4081.00,0.88
4080.00,0.88
4079.00,0.88
4078.00,0.88
4077.00,0.88
4076.00,0.88
4075.00,0.88
4074.00,0.88
4073.00,0.88
4072.00,0.88
4071.00,0.88
4070.00,0.88
4069.00,0.88
4068.00,0.88
4067.00,0.89
4066.00,0.89
4065.00,0.89
4064.00,0.89
4063.00,0.89
4062.00,0.89
4061.00,0.89
4060.00,0.89
4059.00,0.89
4058.00,0.89
4057.00,0.90
4056.00,0.90
4055.00,0.90
4054.00,0.90
4053.00,0.90
4052.00,0.91
4051.00,0.91
4050.00,0.91
4049.00,0.91
4048.00,0.91
4047.00,0.91
4046.00,0.91
4045.00,0.91
4044.00,0.91
4043.00,0.91
4042.00,0.91
4041.00,0.91
4040.00,0.91
4039.00,0.91
4038.00,0.91
4037.00,0.90
4036.00,0.90
4035.00,0.90
4034.00,0.90
4033.00,0.90
4032.00,0.89
4031.00,0.89
4030.00,0.89
4029.00,0.89
4028.00,0.89
4027.00,0.89
4026.00,0.89
4025.00,0.89
4024.00,0.89
4023.00,0.89
4022.00,0.89
4021.00,0.89
4020.00,0.89
4019.00,0.89
4018.00,0.89
4017.00,0.89
4016.00,0.89
4015.00,0.90
4014.00,0.90
4013.00,0.91
4012.00,0.91
4011.00,0.92
4010.00,0.93
4009.00,0.94
4008.00,0.95
4007.00,0.96
4006.00,0.98
4005.00,0.99
4004.00,1.00
4003.00,1.02
4002.00,1.04
4001.00,1.06
4000.00,1.07
