创建为新数据集,样品 680 用户 Administrator 日期 星期四, 七月 25 2019
cm-1,%T
10000.00,1.61
9999.00,1.59
9998.00,1.58
9997.00,1.57
9996.00,1.55
9995.00,1.54
9994.00,1.52
9993.00,1.51
9992.00,1.49
9991.00,1.48
9990.00,1.46
9989.00,1.44
9988.00,1.43
9987.00,1.42
9986.00,1.40
9985.00,1.39
9984.00,1.38
9983.00,1.37
9982.00,1.36
9981.00,1.35
9980.00,1.34
9979.00,1.34
9978.00,1.34
9977.00,1.34
9976.00,1.35
9975.00,1.35
9974.00,1.36
9973.00,1.37
9972.00,1.39
9971.00,1.40
9970.00,1.41
9969.00,1.43
9968.00,1.45
9967.00,1.46
9966.00,1.48
9965.00,1.49
9964.00,1.50
9963.00,1.51
9962.00,1.52
9961.00,1.53
9960.00,1.54
9959.00,1.54
9958.00,1.54
9957.00,1.54
9956.00,1.53
9955.00,1.53
9954.00,1.52
9953.00,1.51
9952.00,1.51
9951.00,1.50
9950.00,1.49
9949.00,1.49
9948.00,1.49
9947.00,1.49
9946.00,1.49
9945.00,1.49
9944.00,1.49
9943.00,1.50
9942.00,1.51
9941.00,1.51
9940.00,1.52
9939.00,1.52
9938.00,1.53
9937.00,1.53
9936.00,1.54
9935.00,1.54
9934.00,1.53
9933.00,1.53
9932.00,1.53
9931.00,1.52
9930.00,1.51
9929.00,1.49
9928.00,1.48
9927.00,1.47
9926.00,1.45
9925.00,1.43
9924.00,1.42
9923.00,1.41
9922.00,1.39
9921.00,1.38
9920.00,1.37
9919.00,1.36
9918.00,1.36
9917.00,1.35
9916.00,1.35
9915.00,1.35
9914.00,1.35
9913.00,1.36
9912.00,1.37
9911.00,1.38
9910.00,1.39
9909.00,1.40
9908.00,1.42
9907.00,1.44
9906.00,1.45
9905.00,1.47
9904.00,1.49
9903.00,1.50
9902.00,1.52
9901.00,1.53
9900.00,1.55
9899.00,1.56
9898.00,1.57
9897.00,1.57
9896.00,1.58
9895.00,1.58
9894.00,1.58
9893.00,1.57
9892.00,1.57
9891.00,1.56
9890.00,1.55
9889.00,1.54
9888.00,1.53
9887.00,1.52
9886.00,1.51
9885.00,1.50
9884.00,1.50
9883.00,1.49
9882.00,1.49
9881.00,1.48
9880.00,1.48
9879.00,1.48
9878.00,1.48
9877.00,1.49
9876.00,1.49
9875.00,1.50
9874.00,1.50
9873.00,1.51
9872.00,1.51
9871.00,1.52
9870.00,1.52
9869.00,1.52
9868.00,1.52
9867.00,1.52
9866.00,1.52
9865.00,1.52
9864.00,1.51
9863.00,1.51
9862.00,1.50
9861.00,1.50
9860.00,1.49
9859.00,1.49
9858.00,1.48
9857.00,1.48
9856.00,1.48
9855.00,1.48
9854.00,1.48
9853.00,1.48
9852.00,1.48
9851.00,1.48
9850.00,1.48
9849.00,1.48
9848.00,1.48
9847.00,1.49
9846.00,1.49
9845.00,1.49
9844.00,1.50
9843.00,1.50
9842.00,1.50
9841.00,1.50
9840.00,1.50
9839.00,1.50
9838.00,1.50
9837.00,1.49
9836.00,1.49
9835.00,1.48
9834.00,1.48
9833.00,1.47
9832.00,1.47
9831.00,1.46
9830.00,1.45
9829.00,1.44
9828.00,1.43
9827.00,1.42
9826.00,1.41
9825.00,1.40
9824.00,1.39
9823.00,1.38
9822.00,1.37
9821.00,1.37
9820.00,1.36
9819.00,1.35
9818.00,1.35
9817.00,1.34
9816.00,1.34
9815.00,1.33
9814.00,1.33
9813.00,1.33
9812.00,1.33
9811.00,1.33
9810.00,1.34
9809.00,1.34
9808.00,1.35
9807.00,1.36
9806.00,1.37
9805.00,1.37
9804.00,1.38
9803.00,1.39
9802.00,1.39
9801.00,1.40
9800.00,1.40
9799.00,1.40
9798.00,1.41
9797.00,1.41
9796.00,1.41
9795.00,1.40
9794.00,1.40
9793.00,1.40
9792.00,1.40
9791.00,1.39
9790.00,1.39
9789.00,1.39
9788.00,1.39
9787.00,1.40
9786.00,1.40
9785.00,1.41
9784.00,1.42
9783.00,1.43
9782.00,1.45
9781.00,1.47
9780.00,1.48
9779.00,1.50
9778.00,1.53
9777.00,1.55
9776.00,1.57
9775.00,1.59
9774.00,1.61
9773.00,1.63
9772.00,1.65
9771.00,1.66
9770.00,1.67
9769.00,1.68
9768.00,1.68
9767.00,1.69
9766.00,1.68
9765.00,1.68
9764.00,1.67
9763.00,1.66
9762.00,1.65
9761.00,1.64
9760.00,1.63
9759.00,1.62
9758.00,1.61
9757.00,1.60
9756.00,1.58
9755.00,1.58
9754.00,1.57
9753.00,1.56
9752.00,1.56
9751.00,1.56
9750.00,1.56
9749.00,1.56
9748.00,1.56
9747.00,1.56
9746.00,1.57
9745.00,1.57
9744.00,1.58
9743.00,1.58
9742.00,1.58
9741.00,1.58
9740.00,1.59
9739.00,1.59
9738.00,1.59
9737.00,1.59
9736.00,1.59
9735.00,1.59
9734.00,1.59
9733.00,1.59
9732.00,1.58
9731.00,1.58
9730.00,1.58
9729.00,1.57
9728.00,1.57
9727.00,1.56
9726.00,1.55
9725.00,1.55
9724.00,1.54
9723.00,1.53
9722.00,1.52
9721.00,1.51
9720.00,1.49
9719.00,1.48
9718.00,1.47
9717.00,1.45
9716.00,1.44
9715.00,1.42
9714.00,1.41
9713.00,1.39
9712.00,1.38
9711.00,1.36
9710.00,1.35
9709.00,1.34
9708.00,1.33
9707.00,1.32
9706.00,1.32
9705.00,1.31
9704.00,1.31
9703.00,1.32
9702.00,1.32
9701.00,1.33
9700.00,1.34
9699.00,1.36
9698.00,1.37
9697.00,1.39
9696.00,1.41
9695.00,1.43
9694.00,1.45
9693.00,1.46
9692.00,1.48
9691.00,1.50
9690.00,1.51
9689.00,1.52
9688.00,1.53
9687.00,1.54
9686.00,1.54
9685.00,1.54
9684.00,1.54
9683.00,1.54
9682.00,1.54
9681.00,1.53
9680.00,1.53
9679.00,1.52
9678.00,1.51
9677.00,1.51
9676.00,1.50
9675.00,1.50
9674.00,1.49
9673.00,1.49
9672.00,1.48
9671.00,1.47
9670.00,1.47
9669.00,1.46
9668.00,1.46
9667.00,1.46
9666.00,1.45
9665.00,1.45
9664.00,1.44
9663.00,1.44
9662.00,1.44
9661.00,1.43
9660.00,1.43
9659.00,1.43
9658.00,1.43
9657.00,1.43
9656.00,1.44
9655.00,1.44
9654.00,1.45
9653.00,1.45
9652.00,1.46
9651.00,1.47
9650.00,1.47
9649.00,1.48
9648.00,1.48
9647.00,1.48
9646.00,1.49
9645.00,1.49
9644.00,1.49
9643.00,1.49
9642.00,1.49
9641.00,1.48
9640.00,1.48
9639.00,1.48
9638.00,1.47
9637.00,1.47
9636.00,1.46
9635.00,1.46
9634.00,1.45
9633.00,1.45
9632.00,1.45
9631.00,1.45
9630.00,1.44
9629.00,1.44
9628.00,1.45
9627.00,1.45
9626.00,1.45
9625.00,1.46
9624.00,1.46
9623.00,1.47
9622.00,1.47
9621.00,1.48
9620.00,1.48
9619.00,1.48
9618.00,1.49
9617.00,1.49
9616.00,1.49
9615.00,1.49
9614.00,1.49
9613.00,1.48
9612.00,1.48
9611.00,1.47
9610.00,1.46
9609.00,1.45
9608.00,1.44
9607.00,1.43
9606.00,1.42
9605.00,1.40
9604.00,1.39
9603.00,1.38
9602.00,1.37
9601.00,1.36
9600.00,1.36
9599.00,1.35
9598.00,1.35
9597.00,1.35
9596.00,1.35
9595.00,1.35
9594.00,1.35
9593.00,1.36
9592.00,1.37
9591.00,1.38
9590.00,1.39
9589.00,1.40
9588.00,1.42
9587.00,1.43
9586.00,1.44
9585.00,1.45
9584.00,1.45
9583.00,1.46
9582.00,1.46
9581.00,1.46
9580.00,1.46
9579.00,1.45
9578.00,1.45
9577.00,1.44
9576.00,1.43
9575.00,1.43
9574.00,1.42
9573.00,1.41
9572.00,1.40
9571.00,1.40
9570.00,1.39
9569.00,1.39
9568.00,1.38
9567.00,1.38
9566.00,1.38
9565.00,1.38
9564.00,1.38
9563.00,1.38
9562.00,1.39
9561.00,1.39
9560.00,1.39
9559.00,1.39
9558.00,1.39
9557.00,1.38
9556.00,1.38
9555.00,1.37
9554.00,1.36
9553.00,1.36
9552.00,1.35
9551.00,1.34
9550.00,1.32
9549.00,1.31
9548.00,1.30
9547.00,1.30
9546.00,1.29
9545.00,1.28
9544.00,1.28
9543.00,1.28
9542.00,1.28
9541.00,1.29
9540.00,1.29
9539.00,1.31
9538.00,1.32
9537.00,1.33
9536.00,1.35
9535.00,1.36
9534.00,1.38
9533.00,1.40
9532.00,1.41
9531.00,1.43
9530.00,1.44
9529.00,1.45
9528.00,1.46
9527.00,1.47
9526.00,1.47
9525.00,1.47
9524.00,1.47
9523.00,1.47
9522.00,1.47
9521.00,1.46
9520.00,1.46
9519.00,1.45
9518.00,1.45
9517.00,1.44
9516.00,1.44
9515.00,1.43
9514.00,1.42
9513.00,1.42
9512.00,1.41
9511.00,1.41
9510.00,1.40
9509.00,1.40
9508.00,1.39
9507.00,1.39
9506.00,1.39
9505.00,1.38
9504.00,1.38
9503.00,1.37
9502.00,1.37
9501.00,1.36
9500.00,1.35
9499.00,1.35
9498.00,1.34
9497.00,1.34
9496.00,1.34
9495.00,1.34
9494.00,1.34
9493.00,1.34
9492.00,1.35
9491.00,1.35
9490.00,1.36
9489.00,1.37
9488.00,1.38
9487.00,1.39
9486.00,1.40
9485.00,1.41
9484.00,1.42
9483.00,1.43
9482.00,1.43
9481.00,1.44
9480.00,1.45
9479.00,1.45
9478.00,1.46
9477.00,1.46
9476.00,1.46
9475.00,1.46
9474.00,1.46
9473.00,1.45
9472.00,1.45
9471.00,1.45
9470.00,1.45
9469.00,1.45
9468.00,1.45
9467.00,1.45
9466.00,1.45
9465.00,1.45
9464.00,1.46
9463.00,1.46
9462.00,1.46
9461.00,1.47
9460.00,1.47
9459.00,1.47
9458.00,1.47
9457.00,1.47
9456.00,1.46
9455.00,1.46
9454.00,1.45
9453.00,1.45
9452.00,1.44
9451.00,1.43
9450.00,1.43
9449.00,1.42
9448.00,1.41
9447.00,1.40
9446.00,1.40
9445.00,1.39
9444.00,1.39
9443.00,1.38
9442.00,1.38
9441.00,1.38
9440.00,1.38
9439.00,1.38
9438.00,1.38
9437.00,1.38
9436.00,1.38
9435.00,1.38
9434.00,1.38
9433.00,1.37
9432.00,1.37
9431.00,1.37
9430.00,1.37
9429.00,1.37
9428.00,1.36
9427.00,1.36
9426.00,1.37
9425.00,1.37
9424.00,1.37
9423.00,1.38
9422.00,1.38
9421.00,1.39
9420.00,1.40
9419.00,1.41
9418.00,1.42
9417.00,1.43
9416.00,1.45
9415.00,1.46
9414.00,1.47
9413.00,1.48
9412.00,1.50
9411.00,1.51
9410.00,1.52
9409.00,1.53
9408.00,1.54
9407.00,1.54
9406.00,1.55
9405.00,1.55
9404.00,1.55
9403.00,1.55
9402.00,1.55
9401.00,1.55
9400.00,1.54
9399.00,1.54
9398.00,1.53
9397.00,1.52
9396.00,1.51
9395.00,1.49
9394.00,1.48
9393.00,1.47
9392.00,1.45
9391.00,1.44
9390.00,1.42
9389.00,1.41
9388.00,1.40
9387.00,1.39
9386.00,1.38
9385.00,1.37
9384.00,1.37
9383.00,1.37
9382.00,1.37
9381.00,1.37
9380.00,1.37
9379.00,1.38
9378.00,1.38
9377.00,1.39
9376.00,1.40
9375.00,1.40
9374.00,1.41
9373.00,1.42
9372.00,1.43
9371.00,1.43
9370.00,1.44
9369.00,1.44
9368.00,1.45
9367.00,1.45
9366.00,1.45
9365.00,1.45
9364.00,1.45
9363.00,1.45
9362.00,1.44
9361.00,1.44
9360.00,1.43
9359.00,1.43
9358.00,1.43
9357.00,1.42
9356.00,1.42
9355.00,1.41
9354.00,1.40
9353.00,1.40
9352.00,1.39
9351.00,1.38
9350.00,1.38
9349.00,1.37
9348.00,1.36
9347.00,1.36
9346.00,1.35
9345.00,1.35
9344.00,1.35
9343.00,1.35
9342.00,1.35
9341.00,1.35
9340.00,1.36
9339.00,1.36
9338.00,1.36
9337.00,1.37
9336.00,1.38
9335.00,1.38
9334.00,1.39
9333.00,1.40
9332.00,1.41
9331.00,1.42
9330.00,1.43
9329.00,1.44
9328.00,1.44
9327.00,1.45
9326.00,1.46
9325.00,1.46
9324.00,1.46
9323.00,1.46
9322.00,1.46
9321.00,1.47
9320.00,1.46
9319.00,1.46
9318.00,1.46
9317.00,1.46
9316.00,1.46
9315.00,1.46
9314.00,1.46
9313.00,1.45
9312.00,1.45
9311.00,1.45
9310.00,1.45
9309.00,1.45
9308.00,1.46
9307.00,1.46
9306.00,1.46
9305.00,1.47
9304.00,1.47
9303.00,1.47
9302.00,1.47
9301.00,1.48
9300.00,1.48
9299.00,1.48
9298.00,1.47
9297.00,1.47
9296.00,1.47
9295.00,1.47
9294.00,1.46
9293.00,1.46
9292.00,1.45
9291.00,1.45
9290.00,1.44
9289.00,1.44
9288.00,1.44
9287.00,1.44
9286.00,1.44
9285.00,1.43
9284.00,1.43
9283.00,1.44
9282.00,1.44
9281.00,1.44
9280.00,1.44
9279.00,1.45
9278.00,1.45
9277.00,1.46
9276.00,1.46
9275.00,1.47
9274.00,1.47
9273.00,1.48
9272.00,1.48
9271.00,1.48
9270.00,1.49
9269.00,1.49
9268.00,1.50
9267.00,1.50
9266.00,1.51
9265.00,1.51
9264.00,1.52
9263.00,1.52
9262.00,1.53
9261.00,1.54
9260.00,1.54
9259.00,1.55
9258.00,1.55
9257.00,1.56
9256.00,1.56
9255.00,1.56
9254.00,1.57
9253.00,1.57
9252.00,1.57
9251.00,1.57
9250.00,1.57
9249.00,1.57
9248.00,1.56
9247.00,1.56
9246.00,1.56
9245.00,1.55
9244.00,1.54
9243.00,1.54
9242.00,1.53
9241.00,1.52
9240.00,1.52
9239.00,1.51
9238.00,1.50
9237.00,1.49
9236.00,1.49
9235.00,1.48
9234.00,1.48
9233.00,1.48
9232.00,1.47
9231.00,1.47
9230.00,1.47
9229.00,1.48
9228.00,1.48
9227.00,1.48
9226.00,1.48
9225.00,1.48
9224.00,1.48
9223.00,1.48
9222.00,1.48
9221.00,1.48
9220.00,1.48
9219.00,1.48
9218.00,1.48
9217.00,1.48
9216.00,1.48
9215.00,1.48
9214.00,1.48
9213.00,1.47
9212.00,1.47
9211.00,1.47
9210.00,1.47
9209.00,1.47
9208.00,1.47
9207.00,1.47
9206.00,1.47
9205.00,1.48
9204.00,1.48
9203.00,1.48
9202.00,1.49
9201.00,1.49
9200.00,1.50
9199.00,1.50
9198.00,1.50
9197.00,1.51
9196.00,1.51
9195.00,1.51
9194.00,1.51
9193.00,1.51
9192.00,1.51
9191.00,1.51
9190.00,1.50
9189.00,1.50
9188.00,1.49
9187.00,1.49
9186.00,1.48
9185.00,1.47
9184.00,1.46
9183.00,1.46
9182.00,1.45
9181.00,1.44
9180.00,1.43
9179.00,1.42
9178.00,1.41
9177.00,1.41
9176.00,1.40
9175.00,1.40
9174.00,1.39
9173.00,1.38
9172.00,1.38
9171.00,1.37
9170.00,1.37
9169.00,1.36
9168.00,1.36
9167.00,1.35
9166.00,1.35
9165.00,1.34
9164.00,1.34
9163.00,1.33
9162.00,1.33
9161.00,1.33
9160.00,1.32
9159.00,1.32
9158.00,1.32
9157.00,1.32
9156.00,1.32
9155.00,1.32
9154.00,1.33
9153.00,1.33
9152.00,1.34
9151.00,1.34
9150.00,1.35
9149.00,1.36
9148.00,1.37
9147.00,1.38
9146.00,1.39
9145.00,1.39
9144.00,1.40
9143.00,1.41
9142.00,1.42
9141.00,1.42
9140.00,1.43
9139.00,1.43
9138.00,1.43
9137.00,1.43
9136.00,1.43
9135.00,1.43
9134.00,1.43
9133.00,1.43
9132.00,1.43
9131.00,1.43
9130.00,1.43
9129.00,1.43
9128.00,1.42
9127.00,1.42
9126.00,1.42
9125.00,1.42
9124.00,1.42
9123.00,1.41
9122.00,1.41
9121.00,1.41
9120.00,1.41
9119.00,1.40
9118.00,1.40
9117.00,1.40
9116.00,1.40
9115.00,1.40
9114.00,1.39
9113.00,1.39
9112.00,1.39
9111.00,1.39
9110.00,1.39
9109.00,1.39
9108.00,1.39
9107.00,1.39
9106.00,1.39
9105.00,1.40
9104.00,1.40
9103.00,1.40
9102.00,1.41
9101.00,1.41
9100.00,1.42
9099.00,1.43
9098.00,1.44
9097.00,1.44
9096.00,1.45
9095.00,1.46
9094.00,1.47
9093.00,1.48
9092.00,1.49
9091.00,1.50
9090.00,1.51
9089.00,1.52
9088.00,1.53
9087.00,1.54
9086.00,1.55
9085.00,1.55
9084.00,1.56
9083.00,1.56
9082.00,1.57
9081.00,1.57
9080.00,1.57
9079.00,1.58
9078.00,1.58
9077.00,1.58
9076.00,1.57
9075.00,1.57
9074.00,1.57
9073.00,1.56
9072.00,1.56
9071.00,1.55
9070.00,1.54
9069.00,1.53
9068.00,1.53
9067.00,1.52
9066.00,1.51
9065.00,1.51
9064.00,1.50
9063.00,1.49
9062.00,1.49
9061.00,1.48
9060.00,1.48
9059.00,1.47
9058.00,1.47
9057.00,1.47
9056.00,1.46
9055.00,1.46
9054.00,1.46
9053.00,1.45
9052.00,1.45
9051.00,1.45
9050.00,1.45
9049.00,1.44
9048.00,1.44
9047.00,1.44
9046.00,1.44
9045.00,1.44
9044.00,1.44
9043.00,1.43
9042.00,1.43
9041.00,1.43
9040.00,1.44
9039.00,1.44
9038.00,1.44
9037.00,1.44
9036.00,1.44
9035.00,1.45
9034.00,1.45
9033.00,1.45
9032.00,1.46
9031.00,1.46
9030.00,1.47
9029.00,1.47
9028.00,1.47
9027.00,1.48
9026.00,1.48
9025.00,1.48
9024.00,1.48
9023.00,1.49
9022.00,1.49
9021.00,1.49
9020.00,1.49
9019.00,1.50
9018.00,1.50
9017.00,1.51
9016.00,1.51
9015.00,1.51
9014.00,1.52
9013.00,1.52
9012.00,1.52
9011.00,1.52
9010.00,1.52
9009.00,1.53
9008.00,1.52
9007.00,1.52
9006.00,1.52
9005.00,1.52
9004.00,1.52
9003.00,1.52
9002.00,1.51
9001.00,1.51
9000.00,1.50
8999.00,1.50
8998.00,1.49
8997.00,1.48
8996.00,1.48
8995.00,1.47
8994.00,1.47
8993.00,1.46
8992.00,1.45
8991.00,1.45
8990.00,1.44
8989.00,1.44
8988.00,1.43
8987.00,1.42
8986.00,1.42
8985.00,1.41
8984.00,1.41
8983.00,1.40
8982.00,1.40
8981.00,1.39
8980.00,1.39
8979.00,1.39
8978.00,1.39
8977.00,1.40
8976.00,1.40
8975.00,1.40
8974.00,1.41
8973.00,1.42
8972.00,1.42
8971.00,1.43
8970.00,1.44
8969.00,1.45
8968.00,1.46
8967.00,1.47
8966.00,1.48
8965.00,1.49
8964.00,1.49
8963.00,1.50
8962.00,1.50
8961.00,1.50
8960.00,1.50
8959.00,1.49
8958.00,1.49
8957.00,1.48
8956.00,1.47
8955.00,1.47
8954.00,1.46
8953.00,1.45
8952.00,1.44
8951.00,1.43
8950.00,1.42
8949.00,1.41
8948.00,1.40
8947.00,1.40
8946.00,1.39
8945.00,1.39
8944.00,1.38
8943.00,1.38
8942.00,1.37
8941.00,1.37
8940.00,1.37
8939.00,1.36
8938.00,1.36
8937.00,1.36
8936.00,1.35
8935.00,1.35
8934.00,1.35
8933.00,1.35
8932.00,1.35
8931.00,1.35
8930.00,1.35
8929.00,1.36
8928.00,1.36
8927.00,1.36
8926.00,1.37
8925.00,1.38
8924.00,1.38
8923.00,1.39
8922.00,1.40
8921.00,1.41
8920.00,1.41
8919.00,1.42
8918.00,1.42
8917.00,1.42
8916.00,1.42
8915.00,1.42
8914.00,1.42
8913.00,1.41
8912.00,1.41
8911.00,1.40
8910.00,1.40
8909.00,1.39
8908.00,1.39
8907.00,1.39
8906.00,1.38
8905.00,1.38
8904.00,1.38
8903.00,1.38
8902.00,1.38
8901.00,1.38
8900.00,1.39
8899.00,1.39
8898.00,1.40
8897.00,1.41
8896.00,1.42
8895.00,1.43
8894.00,1.44
8893.00,1.45
8892.00,1.46
8891.00,1.46
8890.00,1.47
8889.00,1.48
8888.00,1.49
8887.00,1.50
8886.00,1.51
8885.00,1.51
8884.00,1.52
8883.00,1.52
8882.00,1.53
8881.00,1.53
8880.00,1.53
8879.00,1.53
8878.00,1.53
8877.00,1.53
8876.00,1.53
8875.00,1.52
8874.00,1.52
8873.00,1.52
8872.00,1.51
8871.00,1.51
8870.00,1.50
8869.00,1.50
8868.00,1.49
8867.00,1.49
8866.00,1.48
8865.00,1.48
8864.00,1.48
8863.00,1.47
8862.00,1.47
8861.00,1.47
8860.00,1.46
8859.00,1.46
8858.00,1.46
8857.00,1.46
8856.00,1.46
8855.00,1.45
8854.00,1.45
8853.00,1.45
8852.00,1.45
8851.00,1.45
8850.00,1.45
8849.00,1.45
8848.00,1.45
8847.00,1.45
8846.00,1.46
8845.00,1.46
8844.00,1.46
8843.00,1.46
8842.00,1.46
8841.00,1.46
8840.00,1.46
8839.00,1.46
8838.00,1.46
8837.00,1.46
8836.00,1.46
8835.00,1.47
8834.00,1.47
8833.00,1.47
8832.00,1.47
8831.00,1.47
8830.00,1.47
8829.00,1.48
8828.00,1.48
8827.00,1.48
8826.00,1.49
8825.00,1.49
8824.00,1.49
8823.00,1.50
8822.00,1.50
8821.00,1.50
8820.00,1.51
8819.00,1.51
8818.00,1.51
8817.00,1.51
8816.00,1.51
8815.00,1.52
8814.00,1.52
8813.00,1.52
8812.00,1.52
8811.00,1.52
8810.00,1.52
8809.00,1.51
8808.00,1.51
8807.00,1.51
8806.00,1.51
8805.00,1.50
8804.00,1.50
8803.00,1.50
8802.00,1.49
8801.00,1.49
8800.00,1.49
8799.00,1.49
8798.00,1.49
8797.00,1.49
8796.00,1.49
8795.00,1.49
8794.00,1.49
8793.00,1.49
8792.00,1.49
8791.00,1.50
8790.00,1.50
8789.00,1.50
8788.00,1.51
8787.00,1.51
8786.00,1.51
8785.00,1.51
8784.00,1.51
8783.00,1.51
8782.00,1.51
8781.00,1.51
8780.00,1.51
8779.00,1.50
8778.00,1.50
8777.00,1.49
8776.00,1.49
8775.00,1.48
8774.00,1.47
8773.00,1.46
8772.00,1.45
8771.00,1.44
8770.00,1.43
8769.00,1.42
8768.00,1.41
8767.00,1.40
8766.00,1.40
8765.00,1.39
8764.00,1.38
8763.00,1.37
8762.00,1.37
8761.00,1.36
8760.00,1.35
8759.00,1.35
8758.00,1.35
8757.00,1.34
8756.00,1.34
8755.00,1.34
8754.00,1.33
8753.00,1.33
8752.00,1.33
8751.00,1.33
8750.00,1.33
8749.00,1.32
8748.00,1.32
8747.00,1.32
8746.00,1.32
8745.00,1.33
8744.00,1.33
8743.00,1.33
8742.00,1.33
8741.00,1.33
8740.00,1.34
8739.00,1.34
8738.00,1.35
8737.00,1.36
8736.00,1.36
8735.00,1.37
8734.00,1.38
8733.00,1.39
8732.00,1.40
8731.00,1.40
8730.00,1.41
8729.00,1.41
8728.00,1.42
8727.00,1.42
8726.00,1.42
8725.00,1.42
8724.00,1.42
8723.00,1.42
8722.00,1.42
8721.00,1.42
8720.00,1.42
8719.00,1.41
8718.00,1.41
8717.00,1.41
8716.00,1.41
8715.00,1.41
8714.00,1.41
8713.00,1.41
8712.00,1.41
8711.00,1.41
8710.00,1.41
8709.00,1.42
8708.00,1.42
8707.00,1.42
8706.00,1.42
8705.00,1.42
8704.00,1.42
8703.00,1.41
8702.00,1.41
8701.00,1.40
8700.00,1.40
8699.00,1.39
8698.00,1.38
8697.00,1.38
8696.00,1.37
8695.00,1.36
8694.00,1.36
8693.00,1.35
8692.00,1.35
8691.00,1.34
8690.00,1.34
8689.00,1.34
8688.00,1.34
8687.00,1.34
8686.00,1.35
8685.00,1.35
8684.00,1.36
8683.00,1.36
8682.00,1.37
8681.00,1.38
8680.00,1.39
8679.00,1.39
8678.00,1.40
8677.00,1.40
8676.00,1.41
8675.00,1.41
8674.00,1.41
8673.00,1.41
8672.00,1.41
8671.00,1.41
8670.00,1.42
8669.00,1.42
8668.00,1.42
8667.00,1.42
8666.00,1.42
8665.00,1.42
8664.00,1.42
8663.00,1.42
8662.00,1.43
8661.00,1.43
8660.00,1.43
8659.00,1.43
8658.00,1.44
8657.00,1.44
8656.00,1.44
8655.00,1.44
8654.00,1.44
8653.00,1.44
8652.00,1.43
8651.00,1.43
8650.00,1.42
8649.00,1.42
8648.00,1.41
8647.00,1.40
8646.00,1.39
8645.00,1.38
8644.00,1.37
8643.00,1.37
8642.00,1.36
8641.00,1.35
8640.00,1.34
8639.00,1.34
8638.00,1.34
8637.00,1.34
8636.00,1.34
8635.00,1.34
8634.00,1.34
8633.00,1.35
8632.00,1.35
8631.00,1.36
8630.00,1.36
8629.00,1.37
8628.00,1.38
8627.00,1.39
8626.00,1.40
8625.00,1.40
8624.00,1.41
8623.00,1.42
8622.00,1.42
8621.00,1.43
8620.00,1.43
8619.00,1.43
8618.00,1.43
8617.00,1.43
8616.00,1.43
8615.00,1.43
8614.00,1.43
8613.00,1.43
8612.00,1.43
8611.00,1.42
8610.00,1.42
8609.00,1.42
8608.00,1.41
8607.00,1.41
8606.00,1.41
8605.00,1.40
8604.00,1.40
8603.00,1.40
8602.00,1.39
8601.00,1.39
8600.00,1.39
8599.00,1.38
8598.00,1.38
8597.00,1.38
8596.00,1.38
8595.00,1.38
8594.00,1.37
8593.00,1.37
8592.00,1.37
8591.00,1.37
8590.00,1.38
8589.00,1.38
8588.00,1.38
8587.00,1.38
8586.00,1.38
8585.00,1.38
8584.00,1.39
8583.00,1.39
8582.00,1.39
8581.00,1.39
8580.00,1.39
8579.00,1.39
8578.00,1.38
8577.00,1.38
8576.00,1.38
8575.00,1.38
8574.00,1.38
8573.00,1.38
8572.00,1.38
8571.00,1.38
8570.00,1.38
8569.00,1.39
8568.00,1.39
8567.00,1.39
8566.00,1.40
8565.00,1.40
8564.00,1.41
8563.00,1.42
8562.00,1.42
8561.00,1.43
8560.00,1.43
8559.00,1.44
8558.00,1.44
8557.00,1.45
8556.00,1.45
8555.00,1.45
8554.00,1.45
8553.00,1.44
8552.00,1.44
8551.00,1.44
8550.00,1.43
8549.00,1.43
8548.00,1.43
8547.00,1.42
8546.00,1.42
8545.00,1.42
8544.00,1.41
8543.00,1.41
8542.00,1.41
8541.00,1.41
8540.00,1.41
8539.00,1.40
8538.00,1.40
8537.00,1.40
8536.00,1.40
8535.00,1.40
8534.00,1.41
8533.00,1.41
8532.00,1.41
8531.00,1.41
8530.00,1.41
8529.00,1.41
8528.00,1.41
8527.00,1.40
8526.00,1.40
8525.00,1.40
8524.00,1.40
8523.00,1.39
8522.00,1.39
8521.00,1.39
8520.00,1.38
8519.00,1.38
8518.00,1.37
8517.00,1.37
8516.00,1.36
8515.00,1.35
8514.00,1.35
8513.00,1.34
8512.00,1.34
8511.00,1.34
8510.00,1.33
8509.00,1.33
8508.00,1.33
8507.00,1.34
8506.00,1.34
8505.00,1.35
8504.00,1.35
8503.00,1.36
8502.00,1.37
8501.00,1.38
8500.00,1.40
8499.00,1.41
8498.00,1.43
8497.00,1.44
8496.00,1.46
8495.00,1.47
8494.00,1.48
8493.00,1.50
8492.00,1.51
8491.00,1.52
8490.00,1.53
8489.00,1.53
8488.00,1.54
8487.00,1.54
8486.00,1.54
8485.00,1.54
8484.00,1.54
8483.00,1.54
8482.00,1.53
8481.00,1.53
8480.00,1.52
8479.00,1.52
8478.00,1.51
8477.00,1.50
8476.00,1.50
8475.00,1.49
8474.00,1.48
8473.00,1.47
8472.00,1.46
8471.00,1.46
8470.00,1.45
8469.00,1.44
8468.00,1.43
8467.00,1.42
8466.00,1.42
8465.00,1.41
8464.00,1.41
8463.00,1.40
8462.00,1.40
8461.00,1.40
8460.00,1.40
8459.00,1.40
8458.00,1.40
8457.00,1.41
8456.00,1.42
8455.00,1.43
8454.00,1.44
8453.00,1.45
8452.00,1.46
8451.00,1.47
8450.00,1.48
8449.00,1.49
8448.00,1.50
8447.00,1.51
8446.00,1.52
8445.00,1.52
8444.00,1.52
8443.00,1.53
8442.00,1.53
8441.00,1.52
8440.00,1.52
8439.00,1.52
8438.00,1.51
8437.00,1.50
8436.00,1.49
8435.00,1.48
8434.00,1.47
8433.00,1.45
8432.00,1.44
8431.00,1.43
8430.00,1.42
8429.00,1.40
8428.00,1.39
8427.00,1.38
8426.00,1.37
8425.00,1.35
8424.00,1.34
8423.00,1.33
8422.00,1.32
8421.00,1.31
8420.00,1.30
8419.00,1.30
8418.00,1.29
8417.00,1.29
8416.00,1.29
8415.00,1.29
8414.00,1.29
8413.00,1.29
8412.00,1.29
8411.00,1.30
8410.00,1.30
8409.00,1.31
8408.00,1.32
8407.00,1.33
8406.00,1.34
8405.00,1.35
8404.00,1.36
8403.00,1.37
8402.00,1.38
8401.00,1.38
8400.00,1.39
8399.00,1.39
8398.00,1.40
8397.00,1.40
8396.00,1.40
8395.00,1.40
8394.00,1.40
8393.00,1.41
8392.00,1.41
8391.00,1.41
8390.00,1.41
8389.00,1.40
8388.00,1.40
8387.00,1.40
8386.00,1.40
8385.00,1.40
8384.00,1.40
8383.00,1.40
8382.00,1.40
8381.00,1.40
8380.00,1.40
8379.00,1.41
8378.00,1.41
8377.00,1.41
8376.00,1.41
8375.00,1.42
8374.00,1.42
8373.00,1.42
8372.00,1.42
8371.00,1.42
8370.00,1.42
8369.00,1.43
8368.00,1.43
8367.00,1.43
8366.00,1.43
8365.00,1.43
8364.00,1.43
8363.00,1.43
8362.00,1.43
8361.00,1.43
8360.00,1.43
8359.00,1.44
8358.00,1.44
8357.00,1.44
8356.00,1.44
8355.00,1.44
8354.00,1.44
8353.00,1.44
8352.00,1.44
8351.00,1.44
8350.00,1.44
8349.00,1.44
8348.00,1.44
8347.00,1.43
8346.00,1.43
8345.00,1.43
8344.00,1.42
8343.00,1.42
8342.00,1.42
8341.00,1.41
8340.00,1.41
8339.00,1.41
8338.00,1.41
8337.00,1.41
8336.00,1.41
8335.00,1.41
8334.00,1.41
8333.00,1.42
8332.00,1.42
8331.00,1.42
8330.00,1.43
8329.00,1.43
8328.00,1.44
8327.00,1.44
8326.00,1.45
8325.00,1.46
8324.00,1.47
8323.00,1.47
8322.00,1.48
8321.00,1.49
8320.00,1.49
8319.00,1.50
8318.00,1.51
8317.00,1.51
8316.00,1.52
8315.00,1.52
8314.00,1.53
8313.00,1.53
8312.00,1.53
8311.00,1.53
8310.00,1.53
8309.00,1.53
8308.00,1.53
8307.00,1.53
8306.00,1.52
8305.00,1.52
8304.00,1.52
8303.00,1.51
8302.00,1.51
8301.00,1.50
8300.00,1.50
8299.00,1.49
8298.00,1.48
8297.00,1.48
8296.00,1.47
8295.00,1.46
8294.00,1.46
8293.00,1.45
8292.00,1.45
8291.00,1.44
8290.00,1.44
8289.00,1.44
8288.00,1.43
8287.00,1.43
8286.00,1.43
8285.00,1.42
8284.00,1.42
8283.00,1.42
8282.00,1.42
8281.00,1.42
8280.00,1.42
8279.00,1.42
8278.00,1.43
8277.00,1.43
8276.00,1.43
8275.00,1.43
8274.00,1.43
8273.00,1.44
8272.00,1.44
8271.00,1.44
8270.00,1.45
8269.00,1.45
8268.00,1.45
8267.00,1.46
8266.00,1.46
8265.00,1.47
8264.00,1.47
8263.00,1.47
8262.00,1.48
8261.00,1.48
8260.00,1.48
8259.00,1.49
8258.00,1.49
8257.00,1.49
8256.00,1.49
8255.00,1.49
8254.00,1.48
8253.00,1.48
8252.00,1.48
8251.00,1.47
8250.00,1.47
8249.00,1.46
8248.00,1.46
8247.00,1.45
8246.00,1.45
8245.00,1.45
8244.00,1.44
8243.00,1.44
8242.00,1.43
8241.00,1.43
8240.00,1.42
8239.00,1.42
8238.00,1.42
8237.00,1.41
8236.00,1.41
8235.00,1.41
8234.00,1.41
8233.00,1.41
8232.00,1.41
8231.00,1.40
8230.00,1.40
8229.00,1.40
8228.00,1.40
8227.00,1.40
8226.00,1.40
8225.00,1.40
8224.00,1.40
8223.00,1.40
8222.00,1.40
8221.00,1.40
8220.00,1.40
8219.00,1.40
8218.00,1.39
8217.00,1.39
8216.00,1.39
8215.00,1.39
8214.00,1.39
8213.00,1.38
8212.00,1.38
8211.00,1.38
8210.00,1.38
8209.00,1.38
8208.00,1.37
8207.00,1.37
8206.00,1.37
8205.00,1.37
8204.00,1.37
8203.00,1.37
8202.00,1.37
8201.00,1.37
8200.00,1.37
8199.00,1.38
8198.00,1.38
8197.00,1.38
8196.00,1.39
8195.00,1.39
8194.00,1.40
8193.00,1.40
8192.00,1.40
8191.00,1.41
8190.00,1.41
8189.00,1.42
8188.00,1.42
8187.00,1.42
8186.00,1.43
8185.00,1.43
8184.00,1.43
8183.00,1.44
8182.00,1.44
8181.00,1.44
8180.00,1.44
8179.00,1.44
8178.00,1.45
8177.00,1.45
8176.00,1.45
8175.00,1.45
8174.00,1.45
8173.00,1.45
8172.00,1.45
8171.00,1.45
8170.00,1.45
8169.00,1.45
8168.00,1.45
8167.00,1.45
8166.00,1.45
8165.00,1.44
8164.00,1.44
8163.00,1.44
8162.00,1.44
8161.00,1.43
8160.00,1.43
8159.00,1.43
8158.00,1.43
8157.00,1.43
8156.00,1.43
8155.00,1.43
8154.00,1.43
8153.00,1.44
8152.00,1.44
8151.00,1.44
8150.00,1.45
8149.00,1.45
8148.00,1.45
8147.00,1.46
8146.00,1.46
8145.00,1.46
8144.00,1.47
8143.00,1.47
8142.00,1.47
8141.00,1.47
8140.00,1.47
8139.00,1.47
8138.00,1.47
8137.00,1.47
8136.00,1.47
8135.00,1.46
8134.00,1.46
8133.00,1.46
8132.00,1.46
8131.00,1.45
8130.00,1.45
8129.00,1.45
8128.00,1.45
8127.00,1.45
8126.00,1.45
8125.00,1.45
8124.00,1.45
8123.00,1.45
8122.00,1.46
8121.00,1.46
8120.00,1.46
8119.00,1.47
8118.00,1.47
8117.00,1.48
8116.00,1.48
8115.00,1.49
8114.00,1.49
8113.00,1.49
8112.00,1.50
8111.00,1.50
8110.00,1.50
8109.00,1.51
8108.00,1.51
8107.00,1.51
8106.00,1.51
8105.00,1.51
8104.00,1.51
8103.00,1.51
8102.00,1.50
8101.00,1.50
8100.00,1.50
8099.00,1.49
8098.00,1.49
8097.00,1.49
8096.00,1.48
8095.00,1.48
8094.00,1.47
8093.00,1.47
8092.00,1.47
8091.00,1.47
8090.00,1.46
8089.00,1.46
8088.00,1.46
8087.00,1.46
8086.00,1.45
8085.00,1.45
8084.00,1.45
8083.00,1.45
8082.00,1.44
8081.00,1.44
8080.00,1.44
8079.00,1.44
8078.00,1.44
8077.00,1.44
8076.00,1.44
8075.00,1.44
8074.00,1.44
8073.00,1.44
8072.00,1.44
8071.00,1.44
8070.00,1.45
8069.00,1.45
8068.00,1.45
8067.00,1.46
8066.00,1.46
8065.00,1.46
8064.00,1.47
8063.00,1.47
8062.00,1.47
8061.00,1.47
8060.00,1.47
8059.00,1.47
8058.00,1.47
8057.00,1.47
8056.00,1.47
8055.00,1.47
8054.00,1.46
8053.00,1.46
8052.00,1.46
8051.00,1.45
8050.00,1.45
8049.00,1.45
8048.00,1.44
8047.00,1.44
8046.00,1.44
8045.00,1.44
8044.00,1.44
8043.00,1.43
8042.00,1.43
8041.00,1.43
8040.00,1.43
8039.00,1.43
8038.00,1.44
8037.00,1.44
8036.00,1.44
8035.00,1.44
8034.00,1.44
8033.00,1.44
8032.00,1.44
8031.00,1.44
8030.00,1.44
8029.00,1.44
8028.00,1.44
8027.00,1.44
8026.00,1.44
8025.00,1.43
8024.00,1.43
8023.00,1.43
8022.00,1.43
8021.00,1.42
8020.00,1.42
8019.00,1.42
8018.00,1.42
8017.00,1.42
8016.00,1.41
8015.00,1.41
8014.00,1.41
8013.00,1.40
8012.00,1.40
8011.00,1.40
8010.00,1.40
8009.00,1.40
8008.00,1.40
8007.00,1.40
8006.00,1.41
8005.00,1.41
8004.00,1.41
8003.00,1.42
8002.00,1.42
8001.00,1.43
8000.00,1.43
7999.00,1.44
7998.00,1.45
7997.00,1.46
7996.00,1.46
7995.00,1.47
7994.00,1.48
7993.00,1.48
7992.00,1.49
7991.00,1.49
7990.00,1.50
7989.00,1.50
7988.00,1.50
7987.00,1.50
7986.00,1.50
7985.00,1.49
7984.00,1.49
7983.00,1.49
7982.00,1.48
7981.00,1.48
7980.00,1.47
7979.00,1.47
7978.00,1.46
7977.00,1.46
7976.00,1.46
7975.00,1.45
7974.00,1.45
7973.00,1.45
7972.00,1.45
7971.00,1.45
7970.00,1.45
7969.00,1.45
7968.00,1.45
7967.00,1.46
7966.00,1.46
7965.00,1.46
7964.00,1.46
7963.00,1.45
7962.00,1.45
7961.00,1.45
7960.00,1.44
7959.00,1.44
7958.00,1.43
7957.00,1.43
7956.00,1.42
7955.00,1.42
7954.00,1.42
7953.00,1.41
7952.00,1.41
7951.00,1.41
7950.00,1.41
7949.00,1.42
7948.00,1.42
7947.00,1.43
7946.00,1.43
7945.00,1.44
7944.00,1.45
7943.00,1.46
7942.00,1.47
7941.00,1.48
7940.00,1.49
7939.00,1.49
7938.00,1.50
7937.00,1.50
7936.00,1.50
7935.00,1.50
7934.00,1.50
7933.00,1.50
7932.00,1.50
7931.00,1.49
7930.00,1.49
7929.00,1.48
7928.00,1.47
7927.00,1.47
7926.00,1.46
7925.00,1.46
7924.00,1.45
7923.00,1.45
7922.00,1.44
7921.00,1.44
7920.00,1.44
7919.00,1.44
7918.00,1.44
7917.00,1.44
7916.00,1.44
7915.00,1.44
7914.00,1.45
7913.00,1.45
7912.00,1.45
7911.00,1.45
7910.00,1.45
7909.00,1.45
7908.00,1.45
7907.00,1.45
7906.00,1.45
7905.00,1.45
7904.00,1.45
7903.00,1.45
7902.00,1.44
7901.00,1.44
7900.00,1.44
7899.00,1.43
7898.00,1.43
7897.00,1.43
7896.00,1.43
7895.00,1.42
7894.00,1.42
7893.00,1.42
7892.00,1.42
7891.00,1.42
7890.00,1.42
7889.00,1.43
7888.00,1.43
7887.00,1.43
7886.00,1.43
7885.00,1.44
7884.00,1.44
7883.00,1.45
7882.00,1.45
7881.00,1.45
7880.00,1.45
7879.00,1.45
7878.00,1.46
7877.00,1.46
7876.00,1.46
7875.00,1.46
7874.00,1.46
7873.00,1.46
7872.00,1.47
7871.00,1.47
7870.00,1.47
7869.00,1.47
7868.00,1.47
7867.00,1.48
7866.00,1.48
7865.00,1.48
7864.00,1.48
7863.00,1.49
7862.00,1.49
7861.00,1.49
7860.00,1.50
7859.00,1.50
7858.00,1.50
7857.00,1.50
7856.00,1.50
7855.00,1.50
7854.00,1.50
7853.00,1.50
7852.00,1.50
7851.00,1.50
7850.00,1.50
7849.00,1.50
7848.00,1.50
7847.00,1.49
7846.00,1.49
7845.00,1.49
7844.00,1.49
7843.00,1.48
7842.00,1.48
7841.00,1.48
7840.00,1.48
7839.00,1.48
7838.00,1.48
7837.00,1.48
7836.00,1.48
7835.00,1.48
7834.00,1.48
7833.00,1.48
7832.00,1.48
7831.00,1.48
7830.00,1.48
7829.00,1.48
7828.00,1.48
7827.00,1.48
7826.00,1.48
7825.00,1.48
7824.00,1.47
7823.00,1.47
7822.00,1.47
7821.00,1.47
7820.00,1.46
7819.00,1.46
7818.00,1.46
7817.00,1.45
7816.00,1.45
7815.00,1.45
7814.00,1.44
7813.00,1.44
7812.00,1.44
7811.00,1.44
7810.00,1.44
7809.00,1.44
7808.00,1.44
7807.00,1.45
7806.00,1.45
7805.00,1.45
7804.00,1.45
7803.00,1.46
7802.00,1.46
7801.00,1.46
7800.00,1.47
7799.00,1.47
7798.00,1.48
7797.00,1.48
7796.00,1.49
7795.00,1.49
7794.00,1.49
7793.00,1.50
7792.00,1.50
7791.00,1.50
7790.00,1.51
7789.00,1.51
7788.00,1.51
7787.00,1.52
7786.00,1.52
7785.00,1.52
7784.00,1.53
7783.00,1.53
7782.00,1.53
7781.00,1.54
7780.00,1.54
7779.00,1.54
7778.00,1.54
7777.00,1.54
7776.00,1.54
7775.00,1.53
7774.00,1.53
7773.00,1.53
7772.00,1.52
7771.00,1.52
7770.00,1.51
7769.00,1.51
7768.00,1.50
7767.00,1.50
7766.00,1.49
7765.00,1.48
7764.00,1.48
7763.00,1.47
7762.00,1.47
7761.00,1.46
7760.00,1.46
7759.00,1.46
7758.00,1.46
7757.00,1.46
7756.00,1.46
7755.00,1.46
7754.00,1.46
7753.00,1.46
7752.00,1.47
7751.00,1.47
7750.00,1.48
7749.00,1.48
7748.00,1.48
7747.00,1.49
7746.00,1.49
7745.00,1.50
7744.00,1.50
7743.00,1.50
7742.00,1.50
7741.00,1.50
7740.00,1.50
7739.00,1.50
7738.00,1.50
7737.00,1.49
7736.00,1.49
7735.00,1.48
7734.00,1.48
7733.00,1.47
7732.00,1.46
7731.00,1.46
7730.00,1.45
7729.00,1.44
7728.00,1.44
7727.00,1.43
7726.00,1.43
7725.00,1.42
7724.00,1.42
7723.00,1.42
7722.00,1.43
7721.00,1.43
7720.00,1.43
7719.00,1.44
7718.00,1.45
7717.00,1.46
7716.00,1.47
7715.00,1.48
7714.00,1.49
7713.00,1.50
7712.00,1.51
7711.00,1.52
7710.00,1.53
7709.00,1.54
7708.00,1.55
7707.00,1.56
7706.00,1.56
7705.00,1.57
7704.00,1.57
7703.00,1.57
7702.00,1.57
7701.00,1.56
7700.00,1.56
7699.00,1.56
7698.00,1.55
7697.00,1.55
7696.00,1.54
7695.00,1.54
7694.00,1.53
7693.00,1.53
7692.00,1.52
7691.00,1.52
7690.00,1.51
7689.00,1.50
7688.00,1.50
7687.00,1.50
7686.00,1.49
7685.00,1.49
7684.00,1.49
7683.00,1.49
7682.00,1.49
7681.00,1.48
7680.00,1.48
7679.00,1.48
7678.00,1.48
7677.00,1.48
7676.00,1.48
7675.00,1.48
7674.00,1.48
7673.00,1.48
7672.00,1.48
7671.00,1.48
7670.00,1.48
7669.00,1.48
7668.00,1.48
7667.00,1.48
7666.00,1.48
7665.00,1.48
7664.00,1.47
7663.00,1.47
7662.00,1.47
7661.00,1.47
7660.00,1.47
7659.00,1.46
7658.00,1.46
7657.00,1.46
7656.00,1.46
7655.00,1.46
7654.00,1.46
7653.00,1.46
7652.00,1.46
7651.00,1.46
7650.00,1.46
7649.00,1.46
7648.00,1.46
7647.00,1.47
7646.00,1.47
7645.00,1.47
7644.00,1.48
7643.00,1.48
7642.00,1.48
7641.00,1.48
7640.00,1.48
7639.00,1.49
7638.00,1.49
7637.00,1.49
7636.00,1.49
7635.00,1.49
7634.00,1.49
7633.00,1.49
7632.00,1.49
7631.00,1.49
7630.00,1.49
7629.00,1.49
7628.00,1.49
7627.00,1.48
7626.00,1.48
7625.00,1.48
7624.00,1.48
7623.00,1.48
7622.00,1.48
7621.00,1.48
7620.00,1.47
7619.00,1.47
7618.00,1.47
7617.00,1.47
7616.00,1.47
7615.00,1.47
7614.00,1.47
7613.00,1.47
7612.00,1.48
7611.00,1.48
7610.00,1.48
7609.00,1.48
7608.00,1.49
7607.00,1.49
7606.00,1.49
7605.00,1.50
7604.00,1.50
7603.00,1.50
7602.00,1.50
7601.00,1.50
7600.00,1.50
7599.00,1.50
7598.00,1.50
7597.00,1.50
7596.00,1.50
7595.00,1.50
7594.00,1.50
7593.00,1.50
7592.00,1.49
7591.00,1.49
7590.00,1.49
7589.00,1.49
7588.00,1.48
7587.00,1.48
7586.00,1.48
7585.00,1.48
7584.00,1.48
7583.00,1.48
7582.00,1.48
7581.00,1.48
7580.00,1.48
7579.00,1.48
7578.00,1.48
7577.00,1.48
7576.00,1.48
7575.00,1.47
7574.00,1.47
7573.00,1.47
7572.00,1.47
7571.00,1.47
7570.00,1.47
7569.00,1.47
7568.00,1.47
7567.00,1.48
7566.00,1.48
7565.00,1.48
7564.00,1.48
7563.00,1.49
7562.00,1.49
7561.00,1.50
7560.00,1.50
7559.00,1.51
7558.00,1.51
7557.00,1.52
7556.00,1.52
7555.00,1.52
7554.00,1.53
7553.00,1.53
7552.00,1.53
7551.00,1.53
7550.00,1.53
7549.00,1.53
7548.00,1.53
7547.00,1.53
7546.00,1.53
7545.00,1.53
7544.00,1.53
7543.00,1.52
7542.00,1.52
7541.00,1.52
7540.00,1.52
7539.00,1.52
7538.00,1.52
7537.00,1.52
7536.00,1.52
7535.00,1.52
7534.00,1.52
7533.00,1.53
7532.00,1.53
7531.00,1.53
7530.00,1.53
7529.00,1.54
7528.00,1.54
7527.00,1.54
7526.00,1.54
7525.00,1.54
7524.00,1.55
7523.00,1.55
7522.00,1.55
7521.00,1.55
7520.00,1.55
7519.00,1.55
7518.00,1.55
7517.00,1.55
7516.00,1.55
7515.00,1.55
7514.00,1.55
7513.00,1.55
7512.00,1.55
7511.00,1.55
7510.00,1.55
7509.00,1.55
7508.00,1.55
7507.00,1.54
7506.00,1.54
7505.00,1.54
7504.00,1.54
7503.00,1.53
7502.00,1.53
7501.00,1.53
7500.00,1.52
7499.00,1.52
7498.00,1.51
7497.00,1.50
7496.00,1.50
7495.00,1.49
7494.00,1.49
7493.00,1.49
7492.00,1.49
7491.00,1.49
7490.00,1.49
7489.00,1.49
7488.00,1.49
7487.00,1.49
7486.00,1.49
7485.00,1.49
7484.00,1.49
7483.00,1.49
7482.00,1.49
7481.00,1.50
7480.00,1.50
7479.00,1.50
7478.00,1.50
7477.00,1.50
7476.00,1.51
7475.00,1.51
7474.00,1.51
7473.00,1.50
7472.00,1.50
7471.00,1.50
7470.00,1.50
7469.00,1.50
7468.00,1.50
7467.00,1.50
7466.00,1.50
7465.00,1.50
7464.00,1.50
7463.00,1.50
7462.00,1.50
7461.00,1.50
7460.00,1.50
7459.00,1.50
7458.00,1.50
7457.00,1.50
7456.00,1.50
7455.00,1.50
7454.00,1.50
7453.00,1.49
7452.00,1.49
7451.00,1.49
7450.00,1.48
7449.00,1.48
7448.00,1.47
7447.00,1.47
7446.00,1.47
7445.00,1.47
7444.00,1.47
7443.00,1.46
7442.00,1.46
7441.00,1.47
7440.00,1.47
7439.00,1.47
7438.00,1.47
7437.00,1.48
7436.00,1.49
7435.00,1.49
7434.00,1.50
7433.00,1.51
7432.00,1.51
7431.00,1.52
7430.00,1.53
7429.00,1.53
7428.00,1.54
7427.00,1.54
7426.00,1.54
7425.00,1.54
7424.00,1.54
7423.00,1.54
7422.00,1.53
7421.00,1.53
7420.00,1.52
7419.00,1.52
7418.00,1.51
7417.00,1.50
7416.00,1.49
7415.00,1.48
7414.00,1.47
7413.00,1.47
7412.00,1.46
7411.00,1.46
7410.00,1.45
7409.00,1.45
7408.00,1.45
7407.00,1.45
7406.00,1.45
7405.00,1.45
7404.00,1.46
7403.00,1.46
7402.00,1.46
7401.00,1.46
7400.00,1.47
7399.00,1.47
7398.00,1.47
7397.00,1.47
7396.00,1.46
7395.00,1.46
7394.00,1.46
7393.00,1.45
7392.00,1.45
7391.00,1.44
7390.00,1.44
7389.00,1.43
7388.00,1.43
7387.00,1.43
7386.00,1.43
7385.00,1.42
7384.00,1.42
7383.00,1.43
7382.00,1.43
7381.00,1.43
7380.00,1.44
7379.00,1.45
7378.00,1.45
7377.00,1.46
7376.00,1.47
7375.00,1.48
7374.00,1.49
7373.00,1.50
7372.00,1.50
7371.00,1.51
7370.00,1.51
7369.00,1.52
7368.00,1.52
7367.00,1.52
7366.00,1.52
7365.00,1.52
7364.00,1.52
7363.00,1.52
7362.00,1.52
7361.00,1.52
7360.00,1.52
7359.00,1.51
7358.00,1.51
7357.00,1.51
7356.00,1.51
7355.00,1.51
7354.00,1.51
7353.00,1.51
7352.00,1.51
7351.00,1.51
7350.00,1.51
7349.00,1.51
7348.00,1.51
7347.00,1.50
7346.00,1.50
7345.00,1.50
7344.00,1.50
7343.00,1.50
7342.00,1.50
7341.00,1.50
7340.00,1.50
7339.00,1.49
7338.00,1.49
7337.00,1.49
7336.00,1.49
7335.00,1.49
7334.00,1.49
7333.00,1.49
7332.00,1.49
7331.00,1.49
7330.00,1.49
7329.00,1.49
7328.00,1.49
7327.00,1.49
7326.00,1.49
7325.00,1.49
7324.00,1.49
7323.00,1.49
7322.00,1.49
7321.00,1.49
7320.00,1.49
7319.00,1.50
7318.00,1.50
7317.00,1.50
7316.00,1.50
7315.00,1.51
7314.00,1.51
7313.00,1.51
7312.00,1.51
7311.00,1.52
7310.00,1.52
7309.00,1.52
7308.00,1.52
7307.00,1.52
7306.00,1.52
7305.00,1.53
7304.00,1.52
7303.00,1.52
7302.00,1.52
7301.00,1.52
7300.00,1.51
7299.00,1.50
7298.00,1.49
7297.00,1.49
7296.00,1.48
7295.00,1.47
7294.00,1.46
7293.00,1.45
7292.00,1.44
7291.00,1.43
7290.00,1.42
7289.00,1.41
7288.00,1.40
7287.00,1.39
7286.00,1.39
7285.00,1.38
7284.00,1.38
7283.00,1.38
7282.00,1.38
7281.00,1.38
7280.00,1.38
7279.00,1.39
7278.00,1.39
7277.00,1.40
7276.00,1.41
7275.00,1.42
7274.00,1.42
7273.00,1.43
7272.00,1.44
7271.00,1.44
7270.00,1.45
7269.00,1.45
7268.00,1.46
7267.00,1.46
7266.00,1.47
7265.00,1.47
7264.00,1.47
7263.00,1.47
7262.00,1.47
7261.00,1.47
7260.00,1.47
7259.00,1.47
7258.00,1.47
7257.00,1.47
7256.00,1.47
7255.00,1.47
7254.00,1.47
7253.00,1.47
7252.00,1.46
7251.00,1.46
7250.00,1.46
7249.00,1.46
7248.00,1.45
7247.00,1.45
7246.00,1.45
7245.00,1.44
7244.00,1.44
7243.00,1.43
7242.00,1.43
7241.00,1.43
7240.00,1.42
7239.00,1.42
7238.00,1.42
7237.00,1.42
7236.00,1.42
7235.00,1.41
7234.00,1.41
7233.00,1.41
7232.00,1.42
7231.00,1.42
7230.00,1.42
7229.00,1.42
7228.00,1.42
7227.00,1.42
7226.00,1.42
7225.00,1.42
7224.00,1.42
7223.00,1.42
7222.00,1.42
7221.00,1.42
7220.00,1.42
7219.00,1.42
7218.00,1.42
7217.00,1.41
7216.00,1.41
7215.00,1.41
7214.00,1.40
7213.00,1.40
7212.00,1.39
7211.00,1.39
7210.00,1.38
7209.00,1.38
7208.00,1.38
7207.00,1.37
7206.00,1.37
7205.00,1.37
7204.00,1.37
7203.00,1.37
7202.00,1.36
7201.00,1.36
7200.00,1.36
7199.00,1.36
7198.00,1.36
7197.00,1.36
7196.00,1.35
7195.00,1.35
7194.00,1.35
7193.00,1.35
7192.00,1.34
7191.00,1.34
7190.00,1.34
7189.00,1.33
7188.00,1.33
7187.00,1.32
7186.00,1.32
7185.00,1.31
7184.00,1.31
7183.00,1.30
7182.00,1.30
7181.00,1.29
7180.00,1.29
7179.00,1.28
7178.00,1.28
7177.00,1.28
7176.00,1.27
7175.00,1.27
7174.00,1.27
7173.00,1.27
7172.00,1.27
7171.00,1.27
7170.00,1.27
7169.00,1.27
7168.00,1.27
7167.00,1.28
7166.00,1.28
7165.00,1.28
7164.00,1.28
7163.00,1.29
7162.00,1.29
7161.00,1.29
7160.00,1.29
7159.00,1.29
7158.00,1.30
7157.00,1.30
7156.00,1.30
7155.00,1.30
7154.00,1.31
7153.00,1.31
7152.00,1.31
7151.00,1.32
7150.00,1.32
7149.00,1.32
7148.00,1.32
7147.00,1.33
7146.00,1.33
7145.00,1.33
7144.00,1.33
7143.00,1.32
7142.00,1.32
7141.00,1.32
7140.00,1.31
7139.00,1.31
7138.00,1.30
7137.00,1.30
7136.00,1.29
7135.00,1.29
7134.00,1.28
7133.00,1.27
7132.00,1.27
7131.00,1.26
7130.00,1.26
7129.00,1.26
7128.00,1.25
7127.00,1.25
7126.00,1.25
7125.00,1.25
7124.00,1.25
7123.00,1.25
7122.00,1.25
7121.00,1.26
7120.00,1.26
7119.00,1.26
7118.00,1.26
7117.00,1.26
7116.00,1.26
7115.00,1.26
7114.00,1.26
7113.00,1.25
7112.00,1.25
7111.00,1.24
7110.00,1.24
7109.00,1.23
7108.00,1.22
7107.00,1.21
7106.00,1.20
7105.00,1.20
7104.00,1.19
7103.00,1.18
7102.00,1.17
7101.00,1.16
7100.00,1.15
7099.00,1.14
7098.00,1.14
7097.00,1.13
7096.00,1.13
7095.00,1.12
7094.00,1.12
7093.00,1.12
7092.00,1.12
7091.00,1.11
7090.00,1.11
7089.00,1.11
7088.00,1.12
7087.00,1.12
7086.00,1.12
7085.00,1.12
7084.00,1.12
7083.00,1.12
7082.00,1.12
7081.00,1.12
7080.00,1.11
7079.00,1.11
7078.00,1.11
7077.00,1.11
7076.00,1.10
7075.00,1.10
7074.00,1.10
7073.00,1.10
7072.00,1.09
7071.00,1.09
7070.00,1.09
7069.00,1.09
7068.00,1.09
7067.00,1.09
7066.00,1.09
7065.00,1.09
7064.00,1.09
7063.00,1.09
7062.00,1.10
7061.00,1.10
7060.00,1.10
7059.00,1.11
7058.00,1.11
7057.00,1.12
7056.00,1.12
7055.00,1.12
7054.00,1.13
7053.00,1.13
7052.00,1.13
7051.00,1.13
7050.00,1.14
7049.00,1.14
7048.00,1.14
7047.00,1.14
7046.00,1.14
7045.00,1.14
7044.00,1.14
7043.00,1.14
7042.00,1.14
7041.00,1.14
7040.00,1.14
7039.00,1.14
7038.00,1.14
7037.00,1.14
7036.00,1.14
7035.00,1.14
7034.00,1.14
7033.00,1.14
7032.00,1.13
7031.00,1.13
7030.00,1.13
7029.00,1.12
7028.00,1.12
7027.00,1.12
7026.00,1.11
7025.00,1.10
7024.00,1.10
7023.00,1.09
7022.00,1.08
7021.00,1.08
7020.00,1.07
7019.00,1.07
7018.00,1.06
7017.00,1.06
7016.00,1.05
7015.00,1.05
7014.00,1.04
7013.00,1.04
7012.00,1.04
7011.00,1.03
7010.00,1.03
7009.00,1.03
7008.00,1.02
7007.00,1.02
7006.00,1.02
7005.00,1.02
7004.00,1.01
7003.00,1.01
7002.00,1.01
7001.00,1.01
7000.00,1.01
6999.00,1.01
6998.00,1.01
6997.00,1.01
6996.00,1.01
6995.00,1.01
6994.00,1.01
6993.00,1.02
6992.00,1.02
6991.00,1.02
6990.00,1.03
6989.00,1.03
6988.00,1.03
6987.00,1.04
6986.00,1.04
6985.00,1.04
6984.00,1.04
6983.00,1.04
6982.00,1.04
6981.00,1.04
6980.00,1.04
6979.00,1.04
6978.00,1.04
6977.00,1.04
6976.00,1.04
6975.00,1.04
6974.00,1.04
6973.00,1.04
6972.00,1.03
6971.00,1.03
6970.00,1.03
6969.00,1.03
6968.00,1.03
6967.00,1.03
6966.00,1.03
6965.00,1.03
6964.00,1.03
6963.00,1.03
6962.00,1.03
6961.00,1.03
6960.00,1.03
6959.00,1.03
6958.00,1.03
6957.00,1.03
6956.00,1.04
6955.00,1.04
6954.00,1.04
6953.00,1.04
6952.00,1.04
6951.00,1.04
6950.00,1.04
6949.00,1.04
6948.00,1.04
6947.00,1.04
6946.00,1.04
6945.00,1.04
6944.00,1.04
6943.00,1.03
6942.00,1.03
6941.00,1.03
6940.00,1.03
6939.00,1.02
6938.00,1.02
6937.00,1.01
6936.00,1.01
6935.00,1.01
6934.00,1.00
6933.00,1.00
6932.00,0.99
6931.00,0.99
6930.00,0.98
6929.00,0.98
6928.00,0.98
6927.00,0.97
6926.00,0.97
6925.00,0.97
6924.00,0.97
6923.00,0.97
6922.00,0.98
6921.00,0.98
6920.00,0.98
6919.00,0.98
6918.00,0.99
6917.00,0.99
6916.00,0.99
6915.00,1.00
6914.00,1.00
6913.00,1.01
6912.00,1.01
6911.00,1.01
6910.00,1.02
6909.00,1.02
6908.00,1.02
6907.00,1.02
6906.00,1.02
6905.00,1.02
6904.00,1.02
6903.00,1.02
6902.00,1.01
6901.00,1.01
6900.00,1.01
6899.00,1.00
6898.00,1.00
6897.00,0.99
6896.00,0.99
6895.00,0.98
6894.00,0.98
6893.00,0.98
6892.00,0.97
6891.00,0.97
6890.00,0.97
6889.00,0.97
6888.00,0.97
6887.00,0.97
6886.00,0.97
6885.00,0.97
6884.00,0.97
6883.00,0.97
6882.00,0.97
6881.00,0.97
6880.00,0.97
6879.00,0.97
6878.00,0.97
6877.00,0.97
6876.00,0.97
6875.00,0.97
6874.00,0.97
6873.00,0.97
6872.00,0.97
6871.00,0.96
6870.00,0.96
6869.00,0.96
6868.00,0.96
6867.00,0.95
6866.00,0.95
6865.00,0.95
6864.00,0.95
6863.00,0.95
6862.00,0.95
6861.00,0.95
6860.00,0.95
6859.00,0.95
6858.00,0.95
6857.00,0.95
6856.00,0.96
6855.00,0.96
6854.00,0.96
6853.00,0.96
6852.00,0.97
6851.00,0.97
6850.00,0.97
6849.00,0.98
6848.00,0.98
6847.00,0.98
6846.00,0.98
6845.00,0.98
6844.00,0.98
6843.00,0.98
6842.00,0.98
6841.00,0.98
6840.00,0.98
6839.00,0.98
6838.00,0.98
6837.00,0.98
6836.00,0.98
6835.00,0.98
6834.00,0.97
6833.00,0.97
6832.00,0.97
6831.00,0.97
6830.00,0.96
6829.00,0.96
6828.00,0.96
6827.00,0.96
6826.00,0.96
6825.00,0.96
6824.00,0.95
6823.00,0.95
6822.00,0.95
6821.00,0.95
6820.00,0.95
6819.00,0.95
6818.00,0.94
6817.00,0.94
6816.00,0.95
6815.00,0.95
6814.00,0.95
6813.00,0.95
6812.00,0.95
6811.00,0.95
6810.00,0.96
6809.00,0.96
6808.00,0.96
6807.00,0.96
6806.00,0.97
6805.00,0.97
6804.00,0.97
6803.00,0.97
6802.00,0.98
6801.00,0.98
6800.00,0.98
6799.00,0.99
6798.00,0.99
6797.00,0.99
6796.00,1.00
6795.00,1.00
6794.00,1.01
6793.00,1.01
6792.00,1.01
6791.00,1.02
6790.00,1.02
6789.00,1.03
6788.00,1.03
6787.00,1.03
6786.00,1.03
6785.00,1.04
6784.00,1.04
6783.00,1.04
6782.00,1.04
6781.00,1.04
6780.00,1.04
6779.00,1.04
6778.00,1.04
6777.00,1.04
6776.00,1.04
6775.00,1.04
6774.00,1.04
6773.00,1.04
6772.00,1.04
6771.00,1.04
6770.00,1.04
6769.00,1.04
6768.00,1.05
6767.00,1.05
6766.00,1.05
6765.00,1.06
6764.00,1.06
6763.00,1.06
6762.00,1.06
6761.00,1.07
6760.00,1.07
6759.00,1.07
6758.00,1.07
6757.00,1.07
6756.00,1.08
6755.00,1.08
6754.00,1.08
6753.00,1.07
6752.00,1.07
6751.00,1.07
6750.00,1.07
6749.00,1.07
6748.00,1.07
6747.00,1.06
6746.00,1.06
6745.00,1.06
6744.00,1.06
6743.00,1.06
6742.00,1.06
6741.00,1.06
6740.00,1.06
6739.00,1.05
6738.00,1.06
6737.00,1.06
6736.00,1.06
6735.00,1.06
6734.00,1.06
6733.00,1.06
6732.00,1.06
6731.00,1.06
6730.00,1.06
6729.00,1.07
6728.00,1.07
6727.00,1.07
6726.00,1.07
6725.00,1.07
6724.00,1.07
6723.00,1.07
6722.00,1.07
6721.00,1.07
6720.00,1.07
6719.00,1.07
6718.00,1.07
6717.00,1.07
6716.00,1.07
6715.00,1.07
6714.00,1.07
6713.00,1.07
6712.00,1.06
6711.00,1.06
6710.00,1.06
6709.00,1.06
6708.00,1.06
6707.00,1.06
6706.00,1.06
6705.00,1.06
6704.00,1.06
6703.00,1.06
6702.00,1.07
6701.00,1.07
6700.00,1.07
6699.00,1.07
6698.00,1.07
6697.00,1.07
6696.00,1.08
6695.00,1.08
6694.00,1.08
6693.00,1.08
6692.00,1.09
6691.00,1.09
6690.00,1.09
6689.00,1.09
6688.00,1.10
6687.00,1.10
6686.00,1.10
6685.00,1.10
6684.00,1.11
6683.00,1.11
6682.00,1.11
6681.00,1.11
6680.00,1.11
6679.00,1.11
6678.00,1.11
6677.00,1.11
6676.00,1.11
6675.00,1.11
6674.00,1.11
6673.00,1.11
6672.00,1.11
6671.00,1.11
6670.00,1.11
6669.00,1.11
6668.00,1.11
6667.00,1.11
6666.00,1.11
6665.00,1.11
6664.00,1.11
6663.00,1.11
6662.00,1.11
6661.00,1.11
6660.00,1.12
6659.00,1.12
6658.00,1.12
6657.00,1.12
6656.00,1.12
6655.00,1.13
6654.00,1.13
6653.00,1.13
6652.00,1.13
6651.00,1.13
6650.00,1.13
6649.00,1.13
6648.00,1.14
6647.00,1.14
6646.00,1.14
6645.00,1.14
6644.00,1.14
6643.00,1.13
6642.00,1.13
6641.00,1.13
6640.00,1.13
6639.00,1.13
6638.00,1.13
6637.00,1.12
6636.00,1.12
6635.00,1.12
6634.00,1.12
6633.00,1.12
6632.00,1.11
6631.00,1.11
6630.00,1.11
6629.00,1.11
6628.00,1.11
6627.00,1.11
6626.00,1.11
6625.00,1.11
6624.00,1.12
6623.00,1.12
6622.00,1.12
6621.00,1.12
6620.00,1.13
6619.00,1.13
6618.00,1.13
6617.00,1.14
6616.00,1.14
6615.00,1.14
6614.00,1.14
6613.00,1.14
6612.00,1.15
6611.00,1.15
6610.00,1.15
6609.00,1.15
6608.00,1.15
6607.00,1.15
6606.00,1.15
6605.00,1.16
6604.00,1.16
6603.00,1.16
6602.00,1.16
6601.00,1.16
6600.00,1.16
6599.00,1.16
6598.00,1.16
6597.00,1.17
6596.00,1.17
6595.00,1.17
6594.00,1.17
6593.00,1.17
6592.00,1.17
6591.00,1.17
6590.00,1.17
6589.00,1.17
6588.00,1.17
6587.00,1.17
6586.00,1.17
6585.00,1.17
6584.00,1.17
6583.00,1.17
6582.00,1.17
6581.00,1.17
6580.00,1.17
6579.00,1.17
6578.00,1.17
6577.00,1.17
6576.00,1.17
6575.00,1.17
6574.00,1.17
6573.00,1.18
6572.00,1.18
6571.00,1.18
6570.00,1.18
6569.00,1.18
6568.00,1.19
6567.00,1.19
6566.00,1.19
6565.00,1.19
6564.00,1.19
6563.00,1.20
6562.00,1.20
6561.00,1.20
6560.00,1.20
6559.00,1.20
6558.00,1.21
6557.00,1.21
6556.00,1.21
6555.00,1.21
6554.00,1.22
6553.00,1.22
6552.00,1.22
6551.00,1.22
6550.00,1.22
6549.00,1.22
6548.00,1.23
6547.00,1.23
6546.00,1.23
6545.00,1.23
6544.00,1.23
6543.00,1.23
6542.00,1.24
6541.00,1.24
6540.00,1.24
6539.00,1.24
6538.00,1.24
6537.00,1.24
6536.00,1.25
6535.00,1.25
6534.00,1.25
6533.00,1.25
6532.00,1.25
6531.00,1.25
6530.00,1.25
6529.00,1.25
6528.00,1.25
6527.00,1.25
6526.00,1.25
6525.00,1.25
6524.00,1.24
6523.00,1.24
6522.00,1.24
6521.00,1.24
6520.00,1.23
6519.00,1.23
6518.00,1.23
6517.00,1.23
6516.00,1.23
6515.00,1.23
6514.00,1.23
6513.00,1.23
6512.00,1.23
6511.00,1.23
6510.00,1.23
6509.00,1.23
6508.00,1.24
6507.00,1.24
6506.00,1.24
6505.00,1.24
6504.00,1.24
6503.00,1.24
6502.00,1.24
6501.00,1.24
6500.00,1.24
6499.00,1.24
6498.00,1.24
6497.00,1.24
6496.00,1.24
6495.00,1.24
6494.00,1.24
6493.00,1.23
6492.00,1.23
6491.00,1.23
6490.00,1.23
6489.00,1.23
6488.00,1.23
6487.00,1.23
6486.00,1.22
6485.00,1.22
6484.00,1.22
6483.00,1.22
6482.00,1.22
6481.00,1.22
6480.00,1.22
6479.00,1.22
6478.00,1.22
6477.00,1.22
6476.00,1.22
6475.00,1.22
6474.00,1.22
6473.00,1.23
6472.00,1.23
6471.00,1.23
6470.00,1.24
6469.00,1.24
6468.00,1.24
6467.00,1.25
6466.00,1.25
6465.00,1.25
6464.00,1.25
6463.00,1.26
6462.00,1.26
6461.00,1.26
6460.00,1.26
6459.00,1.26
6458.00,1.27
6457.00,1.27
6456.00,1.27
6455.00,1.27
6454.00,1.27
6453.00,1.28
6452.00,1.28
6451.00,1.28
6450.00,1.28
6449.00,1.28
6448.00,1.29
6447.00,1.29
6446.00,1.29
6445.00,1.29
6444.00,1.29
6443.00,1.29
6442.00,1.29
6441.00,1.29
6440.00,1.29
6439.00,1.29
6438.00,1.29
6437.00,1.29
6436.00,1.29
6435.00,1.29
6434.00,1.30
6433.00,1.30
6432.00,1.30
6431.00,1.30
6430.00,1.30
6429.00,1.30
6428.00,1.30
6427.00,1.30
6426.00,1.30
6425.00,1.29
6424.00,1.29
6423.00,1.29
6422.00,1.29
6421.00,1.29
6420.00,1.29
6419.00,1.29
6418.00,1.29
6417.00,1.28
6416.00,1.28
6415.00,1.28
6414.00,1.28
6413.00,1.27
6412.00,1.27
6411.00,1.27
6410.00,1.27
6409.00,1.28
6408.00,1.28
6407.00,1.28
6406.00,1.28
6405.00,1.29
6404.00,1.29
6403.00,1.29
6402.00,1.30
6401.00,1.30
6400.00,1.31
6399.00,1.31
6398.00,1.32
6397.00,1.33
6396.00,1.33
6395.00,1.34
6394.00,1.34
6393.00,1.34
6392.00,1.35
6391.00,1.35
6390.00,1.35
6389.00,1.35
6388.00,1.35
6387.00,1.35
6386.00,1.35
6385.00,1.35
6384.00,1.35
6383.00,1.35
6382.00,1.35
6381.00,1.35
6380.00,1.35
6379.00,1.34
6378.00,1.34
6377.00,1.34
6376.00,1.34
6375.00,1.34
6374.00,1.34
6373.00,1.33
6372.00,1.33
6371.00,1.33
6370.00,1.33
6369.00,1.33
6368.00,1.33
6367.00,1.33
6366.00,1.33
6365.00,1.33
6364.00,1.32
6363.00,1.32
6362.00,1.32
6361.00,1.32
6360.00,1.33
6359.00,1.33
6358.00,1.33
6357.00,1.33
6356.00,1.33
6355.00,1.34
6354.00,1.34
6353.00,1.34
6352.00,1.34
6351.00,1.35
6350.00,1.35
6349.00,1.35
6348.00,1.35
6347.00,1.36
6346.00,1.36
6345.00,1.36
6344.00,1.36
6343.00,1.36
6342.00,1.36
6341.00,1.36
6340.00,1.36
6339.00,1.36
6338.00,1.36
6337.00,1.36
6336.00,1.35
6335.00,1.35
6334.00,1.35
6333.00,1.35
6332.00,1.35
6331.00,1.34
6330.00,1.34
6329.00,1.34
6328.00,1.34
6327.00,1.34
6326.00,1.34
6325.00,1.34
6324.00,1.34
6323.00,1.34
6322.00,1.34
6321.00,1.34
6320.00,1.35
6319.00,1.35
6318.00,1.35
6317.00,1.36
6316.00,1.36
6315.00,1.36
6314.00,1.36
6313.00,1.36
6312.00,1.36
6311.00,1.37
6310.00,1.37
6309.00,1.37
6308.00,1.37
6307.00,1.37
6306.00,1.37
6305.00,1.37
6304.00,1.36
6303.00,1.36
6302.00,1.36
6301.00,1.36
6300.00,1.36
6299.00,1.36
6298.00,1.36
6297.00,1.36
6296.00,1.36
6295.00,1.36
6294.00,1.36
6293.00,1.36
6292.00,1.36
6291.00,1.37
6290.00,1.37
6289.00,1.37
6288.00,1.37
6287.00,1.38
6286.00,1.38
6285.00,1.38
6284.00,1.38
6283.00,1.38
6282.00,1.39
6281.00,1.39
6280.00,1.39
6279.00,1.39
6278.00,1.39
6277.00,1.39
6276.00,1.38
6275.00,1.38
6274.00,1.38
6273.00,1.38
6272.00,1.37
6271.00,1.37
6270.00,1.37
6269.00,1.37
6268.00,1.36
6267.00,1.36
6266.00,1.36
6265.00,1.36
6264.00,1.35
6263.00,1.35
6262.00,1.35
6261.00,1.35
6260.00,1.36
6259.00,1.36
6258.00,1.36
6257.00,1.36
6256.00,1.36
6255.00,1.37
6254.00,1.37
6253.00,1.37
6252.00,1.38
6251.00,1.38
6250.00,1.38
6249.00,1.39
6248.00,1.39
6247.00,1.39
6246.00,1.40
6245.00,1.40
6244.00,1.40
6243.00,1.40
6242.00,1.40
6241.00,1.40
6240.00,1.40
6239.00,1.41
6238.00,1.41
6237.00,1.41
6236.00,1.41
6235.00,1.41
6234.00,1.41
6233.00,1.41
6232.00,1.41
6231.00,1.41
6230.00,1.41
6229.00,1.42
6228.00,1.42
6227.00,1.42
6226.00,1.43
6225.00,1.43
6224.00,1.43
6223.00,1.43
6222.00,1.43
6221.00,1.44
6220.00,1.44
6219.00,1.44
6218.00,1.44
6217.00,1.43
6216.00,1.43
6215.00,1.43
6214.00,1.43
6213.00,1.42
6212.00,1.42
6211.00,1.42
6210.00,1.41
6209.00,1.41
6208.00,1.41
6207.00,1.40
6206.00,1.40
6205.00,1.40
6204.00,1.40
6203.00,1.39
6202.00,1.39
6201.00,1.40
6200.00,1.40
6199.00,1.40
6198.00,1.40
6197.00,1.40
6196.00,1.41
6195.00,1.41
6194.00,1.41
6193.00,1.42
6192.00,1.42
6191.00,1.43
6190.00,1.43
6189.00,1.44
6188.00,1.44
6187.00,1.45
6186.00,1.45
6185.00,1.46
6184.00,1.46
6183.00,1.47
6182.00,1.47
6181.00,1.48
6180.00,1.48
6179.00,1.48
6178.00,1.49
6177.00,1.49
6176.00,1.49
6175.00,1.50
6174.00,1.50
6173.00,1.50
6172.00,1.50
6171.00,1.50
6170.00,1.51
6169.00,1.51
6168.00,1.51
6167.00,1.51
6166.00,1.51
6165.00,1.51
6164.00,1.50
6163.00,1.50
6162.00,1.50
6161.00,1.50
6160.00,1.50
6159.00,1.50
6158.00,1.49
6157.00,1.49
6156.00,1.49
6155.00,1.48
6154.00,1.48
6153.00,1.48
6152.00,1.47
6151.00,1.47
6150.00,1.47
6149.00,1.46
6148.00,1.46
6147.00,1.46
6146.00,1.46
6145.00,1.46
6144.00,1.46
6143.00,1.46
6142.00,1.46
6141.00,1.46
6140.00,1.46
6139.00,1.46
6138.00,1.46
6137.00,1.46
6136.00,1.46
6135.00,1.47
6134.00,1.47
6133.00,1.47
6132.00,1.47
6131.00,1.48
6130.00,1.48
6129.00,1.48
6128.00,1.48
6127.00,1.49
6126.00,1.49
6125.00,1.49
6124.00,1.49
6123.00,1.49
6122.00,1.50
6121.00,1.50
6120.00,1.50
6119.00,1.50
6118.00,1.50
6117.00,1.50
6116.00,1.51
6115.00,1.51
6114.00,1.51
6113.00,1.51
6112.00,1.51
6111.00,1.51
6110.00,1.51
6109.00,1.51
6108.00,1.51
6107.00,1.51
6106.00,1.51
6105.00,1.51
6104.00,1.51
6103.00,1.51
6102.00,1.51
6101.00,1.52
6100.00,1.52
6099.00,1.52
6098.00,1.52
6097.00,1.52
6096.00,1.52
6095.00,1.52
6094.00,1.52
6093.00,1.52
6092.00,1.52
6091.00,1.52
6090.00,1.52
6089.00,1.52
6088.00,1.52
6087.00,1.52
6086.00,1.52
6085.00,1.51
6084.00,1.51
6083.00,1.51
6082.00,1.51
6081.00,1.51
6080.00,1.51
6079.00,1.51
6078.00,1.51
6077.00,1.51
6076.00,1.51
6075.00,1.51
6074.00,1.51
6073.00,1.51
6072.00,1.51
6071.00,1.51
6070.00,1.51
6069.00,1.51
6068.00,1.51
6067.00,1.52
6066.00,1.52
6065.00,1.52
6064.00,1.53
6063.00,1.53
6062.00,1.53
6061.00,1.54
6060.00,1.54
6059.00,1.54
6058.00,1.55
6057.00,1.55
6056.00,1.55
6055.00,1.55
6054.00,1.55
6053.00,1.55
6052.00,1.55
6051.00,1.55
6050.00,1.55
6049.00,1.55
6048.00,1.55
6047.00,1.54
6046.00,1.54
6045.00,1.54
6044.00,1.54
6043.00,1.53
6042.00,1.53
6041.00,1.53
6040.00,1.53
6039.00,1.53
6038.00,1.53
6037.00,1.53
6036.00,1.53
6035.00,1.53
6034.00,1.53
6033.00,1.53
6032.00,1.54
6031.00,1.54
6030.00,1.54
6029.00,1.55
6028.00,1.55
6027.00,1.55
6026.00,1.55
6025.00,1.55
6024.00,1.56
6023.00,1.56
6022.00,1.56
6021.00,1.56
6020.00,1.56
6019.00,1.56
6018.00,1.56
6017.00,1.55
6016.00,1.55
6015.00,1.55
6014.00,1.55
6013.00,1.55
6012.00,1.55
6011.00,1.54
6010.00,1.54
6009.00,1.54
6008.00,1.54
6007.00,1.54
6006.00,1.54
6005.00,1.54
6004.00,1.54
6003.00,1.54
6002.00,1.54
6001.00,1.54
6000.00,1.54
5999.00,1.54
5998.00,1.54
5997.00,1.54
5996.00,1.54
5995.00,1.54
5994.00,1.54
5993.00,1.54
5992.00,1.54
5991.00,1.54
5990.00,1.54
5989.00,1.54
5988.00,1.54
5987.00,1.54
5986.00,1.55
5985.00,1.55
5984.00,1.55
5983.00,1.55
5982.00,1.55
5981.00,1.55
5980.00,1.55
5979.00,1.55
5978.00,1.55
5977.00,1.55
5976.00,1.54
5975.00,1.54
5974.00,1.54
5973.00,1.53
5972.00,1.53
5971.00,1.52
5970.00,1.52
5969.00,1.51
5968.00,1.50
5967.00,1.50
5966.00,1.49
5965.00,1.48
5964.00,1.47
5963.00,1.46
5962.00,1.45
5961.00,1.44
5960.00,1.44
5959.00,1.43
5958.00,1.42
5957.00,1.41
5956.00,1.41
5955.00,1.40
5954.00,1.40
5953.00,1.39
5952.00,1.39
5951.00,1.38
5950.00,1.38
5949.00,1.38
5948.00,1.37
5947.00,1.37
5946.00,1.37
5945.00,1.37
5944.00,1.37
5943.00,1.37
5942.00,1.37
5941.00,1.37
5940.00,1.37
5939.00,1.37
5938.00,1.38
5937.00,1.38
5936.00,1.38
5935.00,1.38
5934.00,1.39
5933.00,1.39
5932.00,1.39
5931.00,1.40
5930.00,1.40
5929.00,1.40
5928.00,1.40
5927.00,1.41
5926.00,1.41
5925.00,1.41
5924.00,1.41
5923.00,1.42
5922.00,1.42
5921.00,1.42
5920.00,1.41
5919.00,1.41
5918.00,1.41
5917.00,1.41
5916.00,1.41
5915.00,1.40
5914.00,1.40
5913.00,1.40
5912.00,1.40
5911.00,1.39
5910.00,1.39
5909.00,1.39
5908.00,1.38
5907.00,1.38
5906.00,1.38
5905.00,1.38
5904.00,1.38
5903.00,1.38
5902.00,1.38
5901.00,1.38
5900.00,1.38
5899.00,1.38
5898.00,1.38
5897.00,1.38
5896.00,1.38
5895.00,1.38
5894.00,1.38
5893.00,1.38
5892.00,1.39
5891.00,1.39
5890.00,1.39
5889.00,1.39
5888.00,1.39
5887.00,1.39
5886.00,1.39
5885.00,1.39
5884.00,1.39
5883.00,1.39
5882.00,1.39
5881.00,1.39
5880.00,1.39
5879.00,1.38
5878.00,1.38
5877.00,1.38
5876.00,1.38
5875.00,1.38
5874.00,1.38
5873.00,1.38
5872.00,1.38
5871.00,1.38
5870.00,1.38
5869.00,1.39
5868.00,1.39
5867.00,1.39
5866.00,1.39
5865.00,1.39
5864.00,1.39
5863.00,1.39
5862.00,1.39
5861.00,1.39
5860.00,1.39
5859.00,1.40
5858.00,1.40
5857.00,1.40
5856.00,1.40
5855.00,1.41
5854.00,1.41
5853.00,1.41
5852.00,1.41
5851.00,1.42
5850.00,1.42
5849.00,1.42
5848.00,1.42
5847.00,1.43
5846.00,1.43
5845.00,1.43
5844.00,1.43
5843.00,1.43
5842.00,1.44
5841.00,1.44
5840.00,1.44
5839.00,1.44
5838.00,1.44
5837.00,1.44
5836.00,1.44
5835.00,1.44
5834.00,1.44
5833.00,1.44
5832.00,1.44
5831.00,1.45
5830.00,1.45
5829.00,1.45
5828.00,1.45
5827.00,1.45
5826.00,1.45
5825.00,1.45
5824.00,1.46
5823.00,1.46
5822.00,1.46
5821.00,1.46
5820.00,1.46
5819.00,1.46
5818.00,1.46
5817.00,1.46
5816.00,1.45
5815.00,1.45
5814.00,1.45
5813.00,1.45
5812.00,1.44
5811.00,1.44
5810.00,1.44
5809.00,1.43
5808.00,1.43
5807.00,1.43
5806.00,1.42
5805.00,1.42
5804.00,1.42
5803.00,1.41
5802.00,1.41
5801.00,1.41
5800.00,1.41
5799.00,1.40
5798.00,1.40
5797.00,1.40
5796.00,1.40
5795.00,1.40
5794.00,1.40
5793.00,1.40
5792.00,1.40
5791.00,1.40
5790.00,1.40
5789.00,1.40
5788.00,1.40
5787.00,1.40
5786.00,1.40
5785.00,1.40
5784.00,1.41
5783.00,1.41
5782.00,1.41
5781.00,1.41
5780.00,1.41
5779.00,1.41
5778.00,1.41
5777.00,1.42
5776.00,1.42
5775.00,1.42
5774.00,1.42
5773.00,1.42
5772.00,1.42
5771.00,1.43
5770.00,1.43
5769.00,1.43
5768.00,1.43
5767.00,1.44
5766.00,1.44
5765.00,1.44
5764.00,1.44
5763.00,1.44
5762.00,1.44
5761.00,1.44
5760.00,1.45
5759.00,1.45
5758.00,1.45
5757.00,1.45
5756.00,1.45
5755.00,1.45
5754.00,1.45
5753.00,1.45
5752.00,1.45
5751.00,1.45
5750.00,1.45
5749.00,1.45
5748.00,1.45
5747.00,1.45
5746.00,1.45
5745.00,1.45
5744.00,1.45
5743.00,1.45
5742.00,1.45
5741.00,1.45
5740.00,1.45
5739.00,1.46
5738.00,1.46
5737.00,1.46
5736.00,1.46
5735.00,1.46
5734.00,1.46
5733.00,1.46
5732.00,1.46
5731.00,1.46
5730.00,1.46
5729.00,1.47
5728.00,1.47
5727.00,1.47
5726.00,1.47
5725.00,1.46
5724.00,1.46
5723.00,1.46
5722.00,1.46
5721.00,1.46
5720.00,1.46
5719.00,1.46
5718.00,1.46
5717.00,1.46
5716.00,1.46
5715.00,1.46
5714.00,1.46
5713.00,1.46
5712.00,1.46
5711.00,1.46
5710.00,1.46
5709.00,1.47
5708.00,1.47
5707.00,1.47
5706.00,1.47
5705.00,1.46
5704.00,1.46
5703.00,1.46
5702.00,1.46
5701.00,1.46
5700.00,1.46
5699.00,1.46
5698.00,1.46
5697.00,1.45
5696.00,1.45
5695.00,1.45
5694.00,1.45
5693.00,1.45
5692.00,1.45
5691.00,1.44
5690.00,1.44
5689.00,1.44
5688.00,1.44
5687.00,1.44
5686.00,1.44
5685.00,1.44
5684.00,1.44
5683.00,1.44
5682.00,1.43
5681.00,1.43
5680.00,1.43
5679.00,1.43
5678.00,1.44
5677.00,1.44
5676.00,1.44
5675.00,1.44
5674.00,1.44
5673.00,1.44
5672.00,1.44
5671.00,1.44
5670.00,1.44
5669.00,1.44
5668.00,1.44
5667.00,1.44
5666.00,1.44
5665.00,1.44
5664.00,1.44
5663.00,1.44
5662.00,1.44
5661.00,1.44
5660.00,1.44
5659.00,1.44
5658.00,1.44
5657.00,1.44
5656.00,1.44
5655.00,1.44
5654.00,1.44
5653.00,1.44
5652.00,1.44
5651.00,1.44
5650.00,1.44
5649.00,1.45
5648.00,1.45
5647.00,1.45
5646.00,1.45
5645.00,1.45
5644.00,1.45
5643.00,1.46
5642.00,1.46
5641.00,1.46
5640.00,1.46
5639.00,1.46
5638.00,1.47
5637.00,1.47
5636.00,1.47
5635.00,1.47
5634.00,1.47
5633.00,1.47
5632.00,1.48
5631.00,1.48
5630.00,1.48
5629.00,1.48
5628.00,1.48
5627.00,1.48
5626.00,1.49
5625.00,1.49
5624.00,1.49
5623.00,1.49
5622.00,1.50
5621.00,1.50
5620.00,1.50
5619.00,1.50
5618.00,1.50
5617.00,1.51
5616.00,1.51
5615.00,1.51
5614.00,1.51
5613.00,1.51
5612.00,1.51
5611.00,1.51
5610.00,1.51
5609.00,1.51
5608.00,1.51
5607.00,1.51
5606.00,1.51
5605.00,1.51
5604.00,1.51
5603.00,1.51
5602.00,1.51
5601.00,1.52
5600.00,1.52
5599.00,1.52
5598.00,1.52
5597.00,1.53
5596.00,1.53
5595.00,1.53
5594.00,1.53
5593.00,1.54
5592.00,1.54
5591.00,1.54
5590.00,1.54
5589.00,1.54
5588.00,1.54
5587.00,1.54
5586.00,1.54
5585.00,1.54
5584.00,1.54
5583.00,1.53
5582.00,1.53
5581.00,1.53
5580.00,1.53
5579.00,1.52
5578.00,1.52
5577.00,1.52
5576.00,1.52
5575.00,1.52
5574.00,1.52
5573.00,1.51
5572.00,1.51
5571.00,1.52
5570.00,1.52
5569.00,1.52
5568.00,1.52
5567.00,1.52
5566.00,1.52
5565.00,1.52
5564.00,1.53
5563.00,1.53
5562.00,1.53
5561.00,1.53
5560.00,1.54
5559.00,1.54
5558.00,1.54
5557.00,1.54
5556.00,1.54
5555.00,1.54
5554.00,1.54
5553.00,1.54
5552.00,1.54
5551.00,1.54
5550.00,1.54
5549.00,1.54
5548.00,1.54
5547.00,1.54
5546.00,1.54
5545.00,1.53
5544.00,1.53
5543.00,1.53
5542.00,1.53
5541.00,1.53
5540.00,1.53
5539.00,1.53
5538.00,1.53
5537.00,1.53
5536.00,1.53
5535.00,1.53
5534.00,1.53
5533.00,1.54
5532.00,1.54
5531.00,1.54
5530.00,1.54
5529.00,1.55
5528.00,1.55
5527.00,1.55
5526.00,1.55
5525.00,1.56
5524.00,1.56
5523.00,1.56
5522.00,1.56
5521.00,1.56
5520.00,1.57
5519.00,1.57
5518.00,1.57
5517.00,1.57
5516.00,1.57
5515.00,1.57
5514.00,1.57
5513.00,1.56
5512.00,1.56
5511.00,1.56
5510.00,1.56
5509.00,1.56
5508.00,1.56
5507.00,1.56
5506.00,1.56
5505.00,1.55
5504.00,1.55
5503.00,1.55
5502.00,1.55
5501.00,1.56
5500.00,1.56
5499.00,1.56
5498.00,1.56
5497.00,1.56
5496.00,1.56
5495.00,1.57
5494.00,1.57
5493.00,1.57
5492.00,1.57
5491.00,1.57
5490.00,1.58
5489.00,1.58
5488.00,1.58
5487.00,1.58
5486.00,1.58
5485.00,1.58
5484.00,1.58
5483.00,1.58
5482.00,1.58
5481.00,1.59
5480.00,1.59
5479.00,1.59
5478.00,1.59
5477.00,1.59
5476.00,1.59
5475.00,1.59
5474.00,1.59
5473.00,1.59
5472.00,1.59
5471.00,1.59
5470.00,1.59
5469.00,1.59
5468.00,1.59
5467.00,1.59
5466.00,1.59
5465.00,1.59
5464.00,1.59
5463.00,1.59
5462.00,1.59
5461.00,1.59
5460.00,1.59
5459.00,1.59
5458.00,1.59
5457.00,1.59
5456.00,1.60
5455.00,1.60
5454.00,1.60
5453.00,1.60
5452.00,1.60
5451.00,1.60
5450.00,1.61
5449.00,1.61
5448.00,1.61
5447.00,1.61
5446.00,1.61
5445.00,1.61
5444.00,1.61
5443.00,1.61
5442.00,1.61
5441.00,1.61
5440.00,1.61
5439.00,1.61
5438.00,1.61
5437.00,1.60
5436.00,1.60
5435.00,1.60
5434.00,1.60
5433.00,1.60
5432.00,1.60
5431.00,1.60
5430.00,1.60
5429.00,1.59
5428.00,1.59
5427.00,1.59
5426.00,1.59
5425.00,1.59
5424.00,1.60
5423.00,1.60
5422.00,1.60
5421.00,1.60
5420.00,1.60
5419.00,1.60
5418.00,1.60
5417.00,1.60
5416.00,1.60
5415.00,1.60
5414.00,1.60
5413.00,1.60
5412.00,1.60
5411.00,1.60
5410.00,1.60
5409.00,1.60
5408.00,1.60
5407.00,1.60
5406.00,1.60
5405.00,1.60
5404.00,1.60
5403.00,1.60
5402.00,1.59
5401.00,1.59
5400.00,1.59
5399.00,1.59
5398.00,1.59
5397.00,1.59
5396.00,1.59
5395.00,1.59
5394.00,1.59
5393.00,1.59
5392.00,1.59
5391.00,1.59
5390.00,1.59
5389.00,1.59
5388.00,1.59
5387.00,1.59
5386.00,1.59
5385.00,1.58
5384.00,1.58
5383.00,1.58
5382.00,1.58
5381.00,1.58
5380.00,1.57
5379.00,1.57
5378.00,1.57
5377.00,1.57
5376.00,1.56
5375.00,1.56
5374.00,1.56
5373.00,1.56
5372.00,1.56
5371.00,1.55
5370.00,1.55
5369.00,1.55
5368.00,1.55
5367.00,1.55
5366.00,1.55
5365.00,1.55
5364.00,1.54
5363.00,1.54
5362.00,1.54
5361.00,1.54
5360.00,1.54
5359.00,1.54
5358.00,1.54
5357.00,1.54
5356.00,1.53
5355.00,1.53
5354.00,1.53
5353.00,1.53
5352.00,1.52
5351.00,1.52
5350.00,1.51
5349.00,1.51
5348.00,1.50
5347.00,1.50
5346.00,1.49
5345.00,1.49
5344.00,1.48
5343.00,1.47
5342.00,1.46
5341.00,1.45
5340.00,1.44
5339.00,1.43
5338.00,1.42
5337.00,1.41
5336.00,1.40
5335.00,1.39
5334.00,1.38
5333.00,1.37
5332.00,1.36
5331.00,1.35
5330.00,1.34
5329.00,1.33
5328.00,1.32
5327.00,1.31
5326.00,1.30
5325.00,1.29
5324.00,1.28
5323.00,1.27
5322.00,1.26
5321.00,1.25
5320.00,1.24
5319.00,1.23
5318.00,1.22
5317.00,1.21
5316.00,1.20
5315.00,1.19
5314.00,1.18
5313.00,1.17
5312.00,1.16
5311.00,1.15
5310.00,1.14
5309.00,1.13
5308.00,1.12
5307.00,1.11
5306.00,1.10
5305.00,1.09
5304.00,1.08
5303.00,1.08
5302.00,1.07
5301.00,1.06
5300.00,1.05
5299.00,1.04
5298.00,1.03
5297.00,1.02
5296.00,1.01
5295.00,1.01
5294.00,1.00
5293.00,0.99
5292.00,0.98
5291.00,0.97
5290.00,0.96
5289.00,0.96
5288.00,0.95
5287.00,0.94
5286.00,0.94
5285.00,0.93
5284.00,0.92
5283.00,0.92
5282.00,0.91
5281.00,0.91
5280.00,0.90
5279.00,0.89
5278.00,0.89
5277.00,0.88
5276.00,0.88
5275.00,0.87
5274.00,0.87
5273.00,0.87
5272.00,0.86
5271.00,0.86
5270.00,0.85
5269.00,0.85
5268.00,0.85
5267.00,0.84
5266.00,0.84
5265.00,0.84
5264.00,0.83
5263.00,0.83
5262.00,0.82
5261.00,0.82
5260.00,0.82
5259.00,0.81
5258.00,0.81
5257.00,0.81
5256.00,0.80
5255.00,0.80
5254.00,0.79
5253.00,0.79
5252.00,0.79
5251.00,0.78
5250.00,0.78
5249.00,0.77
5248.00,0.77
5247.00,0.77
5246.00,0.76
5245.00,0.76
5244.00,0.76
5243.00,0.76
5242.00,0.76
5241.00,0.75
5240.00,0.75
5239.00,0.75
5238.00,0.75
5237.00,0.75
5236.00,0.75
5235.00,0.75
5234.00,0.75
5233.00,0.75
5232.00,0.75
5231.00,0.75
5230.00,0.75
5229.00,0.75
5228.00,0.75
5227.00,0.75
5226.00,0.75
5225.00,0.75
5224.00,0.75
5223.00,0.75
5222.00,0.76
5221.00,0.76
5220.00,0.75
5219.00,0.75
5218.00,0.75
5217.00,0.75
5216.00,0.75
5215.00,0.75
5214.00,0.74
5213.00,0.74
5212.00,0.74
5211.00,0.73
5210.00,0.73
5209.00,0.73
5208.00,0.72
5207.00,0.72
5206.00,0.72
5205.00,0.72
5204.00,0.72
5203.00,0.71
5202.00,0.71
5201.00,0.71
5200.00,0.71
5199.00,0.71
5198.00,0.71
5197.00,0.71
5196.00,0.71
5195.00,0.71
5194.00,0.71
5193.00,0.70
5192.00,0.70
5191.00,0.70
5190.00,0.70
5189.00,0.70
5188.00,0.70
5187.00,0.70
5186.00,0.70
5185.00,0.70
5184.00,0.70
5183.00,0.70
5182.00,0.70
5181.00,0.70
5180.00,0.71
5179.00,0.71
5178.00,0.71
5177.00,0.71
5176.00,0.71
5175.00,0.72
5174.00,0.72
5173.00,0.72
5172.00,0.73
5171.00,0.73
5170.00,0.73
5169.00,0.74
5168.00,0.74
5167.00,0.74
5166.00,0.75
5165.00,0.75
5164.00,0.75
5163.00,0.76
5162.00,0.76
5161.00,0.76
5160.00,0.76
5159.00,0.76
5158.00,0.76
5157.00,0.76
5156.00,0.76
5155.00,0.76
5154.00,0.75
5153.00,0.75
5152.00,0.75
5151.00,0.75
5150.00,0.74
5149.00,0.74
5148.00,0.74
5147.00,0.73
5146.00,0.73
5145.00,0.73
5144.00,0.73
5143.00,0.72
5142.00,0.72
5141.00,0.72
5140.00,0.72
5139.00,0.72
5138.00,0.72
5137.00,0.72
5136.00,0.72
5135.00,0.72
5134.00,0.72
5133.00,0.72
5132.00,0.72
5131.00,0.72
5130.00,0.73
5129.00,0.73
5128.00,0.73
5127.00,0.73
5126.00,0.73
5125.00,0.73
5124.00,0.73
5123.00,0.73
5122.00,0.73
5121.00,0.74
5120.00,0.74
5119.00,0.74
5118.00,0.74
5117.00,0.74
5116.00,0.75
5115.00,0.75
5114.00,0.75
5113.00,0.75
5112.00,0.76
5111.00,0.76
5110.00,0.76
5109.00,0.77
5108.00,0.77
5107.00,0.77
5106.00,0.77
5105.00,0.78
5104.00,0.78
5103.00,0.78
5102.00,0.78
5101.00,0.79
5100.00,0.79
5099.00,0.79
5098.00,0.79
5097.00,0.79
5096.00,0.79
5095.00,0.79
5094.00,0.79
5093.00,0.79
5092.00,0.79
5091.00,0.79
5090.00,0.79
5089.00,0.79
5088.00,0.79
5087.00,0.79
5086.00,0.79
5085.00,0.79
5084.00,0.79
5083.00,0.79
5082.00,0.79
5081.00,0.79
5080.00,0.79
5079.00,0.80
5078.00,0.80
5077.00,0.80
5076.00,0.80
5075.00,0.80
5074.00,0.80
5073.00,0.80
5072.00,0.81
5071.00,0.81
5070.00,0.81
5069.00,0.81
5068.00,0.81
5067.00,0.82
5066.00,0.82
5065.00,0.82
5064.00,0.82
5063.00,0.82
5062.00,0.83
5061.00,0.83
5060.00,0.83
5059.00,0.83
5058.00,0.83
5057.00,0.83
5056.00,0.84
5055.00,0.84
5054.00,0.84
5053.00,0.84
5052.00,0.84
5051.00,0.84
5050.00,0.84
5049.00,0.84
5048.00,0.85
5047.00,0.85
5046.00,0.85
5045.00,0.85
5044.00,0.85
5043.00,0.85
5042.00,0.85
5041.00,0.86
5040.00,0.86
5039.00,0.86
5038.00,0.86
5037.00,0.87
5036.00,0.87
5035.00,0.87
5034.00,0.88
5033.00,0.88
5032.00,0.88
5031.00,0.89
5030.00,0.89
5029.00,0.89
5028.00,0.90
5027.00,0.90
5026.00,0.90
5025.00,0.91
5024.00,0.91
5023.00,0.91
5022.00,0.92
5021.00,0.92
5020.00,0.92
5019.00,0.92
5018.00,0.93
5017.00,0.93
5016.00,0.93
5015.00,0.93
5014.00,0.93
5013.00,0.93
5012.00,0.94
5011.00,0.94
5010.00,0.94
5009.00,0.94
5008.00,0.94
5007.00,0.94
5006.00,0.94
5005.00,0.95
5004.00,0.95
5003.00,0.95
5002.00,0.95
5001.00,0.95
5000.00,0.95
4999.00,0.96
4998.00,0.96
4997.00,0.96
4996.00,0.96
4995.00,0.96
4994.00,0.96
4993.00,0.96
4992.00,0.97
4991.00,0.97
4990.00,0.97
4989.00,0.97
4988.00,0.97
4987.00,0.97
4986.00,0.97
4985.00,0.97
4984.00,0.97
4983.00,0.97
4982.00,0.97
4981.00,0.97
4980.00,0.96
4979.00,0.96
4978.00,0.96
4977.00,0.96
4976.00,0.96
4975.00,0.96
4974.00,0.96
4973.00,0.96
4972.00,0.96
4971.00,0.96
4970.00,0.96
4969.00,0.97
4968.00,0.97
4967.00,0.97
4966.00,0.98
4965.00,0.98
4964.00,0.99
4963.00,0.99
4962.00,1.00
4961.00,1.00
4960.00,1.01
4959.00,1.01
4958.00,1.01
4957.00,1.02
4956.00,1.02
4955.00,1.03
4954.00,1.03
4953.00,1.04
4952.00,1.04
4951.00,1.04
4950.00,1.05
4949.00,1.05
4948.00,1.05
4947.00,1.05
4946.00,1.06
4945.00,1.06
4944.00,1.06
4943.00,1.07
4942.00,1.07
4941.00,1.07
4940.00,1.08
4939.00,1.08
4938.00,1.08
4937.00,1.08
4936.00,1.09
4935.00,1.09
4934.00,1.09
4933.00,1.09
4932.00,1.09
4931.00,1.10
4930.00,1.10
4929.00,1.10
4928.00,1.10
4927.00,1.10
4926.00,1.10
4925.00,1.10
4924.00,1.10
4923.00,1.10
4922.00,1.10
4921.00,1.10
4920.00,1.10
4919.00,1.10
4918.00,1.09
4917.00,1.09
4916.00,1.09
4915.00,1.09
4914.00,1.09
4913.00,1.08
4912.00,1.08
4911.00,1.08
4910.00,1.08
4909.00,1.08
4908.00,1.07
4907.00,1.07
4906.00,1.07
4905.00,1.07
4904.00,1.07
4903.00,1.07
4902.00,1.07
4901.00,1.08
4900.00,1.08
4899.00,1.08
4898.00,1.08
4897.00,1.09
4896.00,1.09
4895.00,1.10
4894.00,1.10
4893.00,1.11
4892.00,1.11
4891.00,1.12
4890.00,1.12
4889.00,1.12
4888.00,1.13
4887.00,1.13
4886.00,1.13
4885.00,1.14
4884.00,1.14
4883.00,1.14
4882.00,1.14
4881.00,1.14
4880.00,1.14
4879.00,1.14
4878.00,1.14
4877.00,1.14
4876.00,1.14
4875.00,1.14
4874.00,1.14
4873.00,1.14
4872.00,1.14
4871.00,1.14
4870.00,1.14
4869.00,1.14
4868.00,1.14
4867.00,1.14
4866.00,1.14
4865.00,1.14
4864.00,1.15
4863.00,1.15
4862.00,1.15
4861.00,1.16
4860.00,1.16
4859.00,1.16
4858.00,1.17
4857.00,1.17
4856.00,1.17
4855.00,1.17
4854.00,1.18
4853.00,1.18
4852.00,1.18
4851.00,1.18
4850.00,1.18
4849.00,1.18
4848.00,1.18
4847.00,1.18
4846.00,1.18
4845.00,1.17
4844.00,1.17
4843.00,1.17
4842.00,1.17
4841.00,1.17
4840.00,1.16
4839.00,1.16
4838.00,1.16
4837.00,1.16
4836.00,1.16
4835.00,1.15
4834.00,1.15
4833.00,1.15
4832.00,1.15
4831.00,1.15
4830.00,1.15
4829.00,1.15
4828.00,1.15
4827.00,1.15
4826.00,1.16
4825.00,1.16
4824.00,1.16
4823.00,1.16
4822.00,1.16
4821.00,1.17
4820.00,1.17
4819.00,1.17
4818.00,1.18
4817.00,1.18
4816.00,1.19
4815.00,1.19
4814.00,1.20
4813.00,1.20
4812.00,1.20
4811.00,1.21
4810.00,1.21
4809.00,1.22
4808.00,1.22
4807.00,1.23
4806.00,1.23
4805.00,1.23
4804.00,1.24
4803.00,1.24
4802.00,1.24
4801.00,1.25
4800.00,1.25
4799.00,1.25
4798.00,1.25
4797.00,1.26
4796.00,1.26
4795.00,1.26
4794.00,1.26
4793.00,1.27
4792.00,1.27
4791.00,1.27
4790.00,1.27
4789.00,1.27
4788.00,1.27
4787.00,1.27
4786.00,1.28
4785.00,1.28
4784.00,1.28
4783.00,1.28
4782.00,1.28
4781.00,1.28
4780.00,1.29
4779.00,1.29
4778.00,1.29
4777.00,1.29
4776.00,1.29
4775.00,1.29
4774.00,1.29
4773.00,1.30
4772.00,1.30
4771.00,1.30
4770.00,1.30
4769.00,1.30
4768.00,1.30
4767.00,1.30
4766.00,1.30
4765.00,1.30
4764.00,1.30
4763.00,1.30
4762.00,1.31
4761.00,1.31
4760.00,1.31
4759.00,1.31
4758.00,1.31
4757.00,1.31
4756.00,1.31
4755.00,1.31
4754.00,1.31
4753.00,1.31
4752.00,1.31
4751.00,1.31
4750.00,1.32
4749.00,1.32
4748.00,1.32
4747.00,1.32
4746.00,1.33
4745.00,1.33
4744.00,1.33
4743.00,1.34
4742.00,1.34
4741.00,1.34
4740.00,1.35
4739.00,1.35
4738.00,1.35
4737.00,1.36
4736.00,1.36
4735.00,1.36
4734.00,1.37
4733.00,1.37
4732.00,1.37
4731.00,1.38
4730.00,1.38
4729.00,1.38
4728.00,1.38
4727.00,1.39
4726.00,1.39
4725.00,1.39
4724.00,1.39
4723.00,1.39
4722.00,1.39
4721.00,1.40
4720.00,1.40
4719.00,1.40
4718.00,1.40
4717.00,1.40
4716.00,1.40
4715.00,1.40
4714.00,1.40
4713.00,1.40
4712.00,1.40
4711.00,1.40
4710.00,1.40
4709.00,1.40
4708.00,1.40
4707.00,1.40
4706.00,1.40
4705.00,1.41
4704.00,1.41
4703.00,1.42
4702.00,1.42
4701.00,1.43
4700.00,1.44
4699.00,1.44
4698.00,1.45
4697.00,1.46
4696.00,1.47
4695.00,1.47
4694.00,1.48
4693.00,1.49
4692.00,1.49
4691.00,1.50
4690.00,1.50
4689.00,1.51
4688.00,1.51
4687.00,1.51
4686.00,1.51
4685.00,1.51
4684.00,1.51
4683.00,1.51
4682.00,1.50
4681.00,1.50
4680.00,1.50
4679.00,1.50
4678.00,1.50
4677.00,1.49
4676.00,1.49
4675.00,1.49
4674.00,1.49
4673.00,1.48
4672.00,1.48
4671.00,1.48
4670.00,1.47
4669.00,1.47
4668.00,1.47
4667.00,1.47
4666.00,1.46
4665.00,1.46
4664.00,1.46
4663.00,1.45
4662.00,1.45
4661.00,1.45
4660.00,1.44
4659.00,1.44
4658.00,1.44
4657.00,1.44
4656.00,1.44
4655.00,1.44
4654.00,1.44
4653.00,1.44
4652.00,1.44
4651.00,1.44
4650.00,1.44
4649.00,1.45
4648.00,1.45
4647.00,1.45
4646.00,1.46
4645.00,1.46
4644.00,1.46
4643.00,1.47
4642.00,1.48
4641.00,1.48
4640.00,1.49
4639.00,1.49
4638.00,1.50
4637.00,1.50
4636.00,1.50
4635.00,1.51
4634.00,1.51
4633.00,1.52
4632.00,1.52
4631.00,1.53
4630.00,1.53
4629.00,1.54
4628.00,1.54
4627.00,1.54
4626.00,1.55
4625.00,1.55
4624.00,1.55
4623.00,1.55
4622.00,1.56
4621.00,1.56
4620.00,1.56
4619.00,1.57
4618.00,1.57
4617.00,1.57
4616.00,1.57
4615.00,1.57
4614.00,1.57
4613.00,1.58
4612.00,1.58
4611.00,1.58
4610.00,1.58
4609.00,1.58
4608.00,1.58
4607.00,1.58
4606.00,1.58
4605.00,1.58
4604.00,1.58
4603.00,1.58
4602.00,1.57
4601.00,1.57
4600.00,1.57
4599.00,1.56
4598.00,1.56
4597.00,1.56
4596.00,1.56
4595.00,1.55
4594.00,1.55
4593.00,1.55
4592.00,1.54
4591.00,1.54
4590.00,1.54
4589.00,1.54
4588.00,1.54
4587.00,1.54
4586.00,1.54
4585.00,1.54
4584.00,1.54
4583.00,1.54
4582.00,1.55
4581.00,1.55
4580.00,1.55
4579.00,1.55
4578.00,1.56
4577.00,1.56
4576.00,1.56
4575.00,1.57
4574.00,1.57
4573.00,1.57
4572.00,1.58
4571.00,1.58
4570.00,1.58
4569.00,1.58
4568.00,1.58
4567.00,1.59
4566.00,1.59
4565.00,1.59
4564.00,1.59
4563.00,1.59
4562.00,1.59
4561.00,1.59
4560.00,1.59
4559.00,1.59
4558.00,1.59
4557.00,1.59
4556.00,1.59
4555.00,1.59
4554.00,1.59
4553.00,1.59
4552.00,1.59
4551.00,1.59
4550.00,1.59
4549.00,1.59
4548.00,1.59
4547.00,1.59
4546.00,1.59
4545.00,1.59
4544.00,1.59
4543.00,1.59
4542.00,1.59
4541.00,1.59
4540.00,1.60
4539.00,1.60
4538.00,1.60
4537.00,1.60
4536.00,1.60
4535.00,1.60
4534.00,1.60
4533.00,1.60
4532.00,1.60
4531.00,1.60
4530.00,1.60
4529.00,1.60
4528.00,1.60
4527.00,1.60
4526.00,1.60
4525.00,1.60
4524.00,1.60
4523.00,1.60
4522.00,1.60
4521.00,1.60
4520.00,1.60
4519.00,1.60
4518.00,1.60
4517.00,1.60
4516.00,1.60
4515.00,1.60
4514.00,1.60
4513.00,1.60
4512.00,1.60
4511.00,1.60
4510.00,1.59
4509.00,1.59
4508.00,1.59
4507.00,1.59
4506.00,1.59
4505.00,1.58
4504.00,1.58
4503.00,1.58
4502.00,1.58
4501.00,1.58
4500.00,1.58
4499.00,1.58
4498.00,1.58
4497.00,1.58
4496.00,1.58
4495.00,1.58
4494.00,1.58
4493.00,1.58
4492.00,1.58
4491.00,1.58
4490.00,1.59
4489.00,1.59
4488.00,1.59
4487.00,1.59
4486.00,1.59
4485.00,1.59
4484.00,1.59
4483.00,1.59
4482.00,1.59
4481.00,1.58
4480.00,1.58
4479.00,1.58
4478.00,1.57
4477.00,1.57
4476.00,1.57
4475.00,1.56
4474.00,1.56
4473.00,1.56
4472.00,1.55
4471.00,1.55
4470.00,1.54
4469.00,1.54
4468.00,1.54
4467.00,1.53
4466.00,1.53
4465.00,1.53
4464.00,1.53
4463.00,1.53
4462.00,1.52
4461.00,1.52
4460.00,1.52
4459.00,1.52
4458.00,1.51
4457.00,1.51
4456.00,1.51
4455.00,1.51
4454.00,1.50
4453.00,1.50
4452.00,1.50
4451.00,1.49
4450.00,1.49
4449.00,1.48
4448.00,1.48
4447.00,1.47
4446.00,1.46
4445.00,1.45
4444.00,1.45
4443.00,1.44
4442.00,1.44
4441.00,1.43
4440.00,1.42
4439.00,1.42
4438.00,1.41
4437.00,1.40
4436.00,1.39
4435.00,1.38
4434.00,1.38
4433.00,1.37
4432.00,1.36
4431.00,1.35
4430.00,1.34
4429.00,1.33
4428.00,1.32
4427.00,1.31
4426.00,1.30
4425.00,1.29
4424.00,1.28
4423.00,1.27
4422.00,1.26
4421.00,1.25
4420.00,1.24
4419.00,1.23
4418.00,1.22
4417.00,1.21
4416.00,1.21
4415.00,1.20
4414.00,1.20
4413.00,1.19
4412.00,1.19
4411.00,1.19
4410.00,1.19
4409.00,1.18
4408.00,1.18
4407.00,1.18
4406.00,1.18
4405.00,1.19
4404.00,1.19
4403.00,1.19
4402.00,1.19
4401.00,1.19
4400.00,1.20
4399.00,1.20
4398.00,1.21
4397.00,1.21
4396.00,1.22
4395.00,1.22
4394.00,1.23
4393.00,1.23
4392.00,1.24
4391.00,1.24
4390.00,1.25
4389.00,1.26
4388.00,1.26
4387.00,1.27
4386.00,1.28
4385.00,1.29
4384.00,1.29
4383.00,1.30
4382.00,1.31
4381.00,1.31
4380.00,1.32
4379.00,1.32
4378.00,1.33
4377.00,1.33
4376.00,1.34
4375.00,1.34
4374.00,1.34
4373.00,1.35
4372.00,1.35
4371.00,1.35
4370.00,1.34
4369.00,1.34
4368.00,1.34
4367.00,1.33
4366.00,1.33
4365.00,1.33
4364.00,1.32
4363.00,1.31
4362.00,1.31
4361.00,1.30
4360.00,1.29
4359.00,1.29
4358.00,1.28
4357.00,1.28
4356.00,1.27
4355.00,1.27
4354.00,1.26
4353.00,1.26
4352.00,1.25
4351.00,1.25
4350.00,1.24
4349.00,1.24
4348.00,1.23
4347.00,1.23
4346.00,1.23
4345.00,1.23
4344.00,1.23
4343.00,1.23
4342.00,1.23
4341.00,1.23
4340.00,1.24
4339.00,1.24
4338.00,1.24
4337.00,1.24
4336.00,1.25
4335.00,1.25
4334.00,1.26
4333.00,1.27
4332.00,1.27
4331.00,1.28
4330.00,1.28
4329.00,1.29
4328.00,1.29
4327.00,1.29
4326.00,1.30
4325.00,1.30
4324.00,1.31
4323.00,1.31
4322.00,1.32
4321.00,1.32
4320.00,1.33
4319.00,1.34
4318.00,1.34
4317.00,1.35
4316.00,1.36
4315.00,1.36
4314.00,1.37
4313.00,1.38
4312.00,1.39
4311.00,1.40
4310.00,1.41
4309.00,1.42
4308.00,1.43
4307.00,1.44
4306.00,1.45
4305.00,1.46
4304.00,1.47
4303.00,1.48
4302.00,1.49
4301.00,1.50
4300.00,1.50
4299.00,1.51
4298.00,1.51
4297.00,1.52
4296.00,1.52
4295.00,1.53
4294.00,1.53
4293.00,1.53
4292.00,1.53
4291.00,1.53
4290.00,1.53
4289.00,1.53
4288.00,1.53
4287.00,1.54
4286.00,1.54
4285.00,1.54
4284.00,1.54
4283.00,1.54
4282.00,1.55
4281.00,1.55
4280.00,1.55
4279.00,1.55
4278.00,1.55
4277.00,1.55
4276.00,1.56
4275.00,1.56
4274.00,1.56
4273.00,1.56
4272.00,1.55
4271.00,1.55
4270.00,1.54
4269.00,1.54
4268.00,1.53
4267.00,1.52
4266.00,1.51
4265.00,1.50
4264.00,1.48
4263.00,1.47
4262.00,1.46
4261.00,1.45
4260.00,1.44
4259.00,1.43
4258.00,1.43
4257.00,1.42
4256.00,1.41
4255.00,1.41
4254.00,1.41
4253.00,1.41
4252.00,1.41
4251.00,1.42
4250.00,1.42
4249.00,1.43
4248.00,1.44
4247.00,1.45
4246.00,1.46
4245.00,1.47
4244.00,1.48
4243.00,1.50
4242.00,1.51
4241.00,1.52
4240.00,1.53
4239.00,1.53
4238.00,1.54
4237.00,1.55
4236.00,1.55
4235.00,1.56
4234.00,1.56
4233.00,1.56
4232.00,1.56
4231.00,1.56
4230.00,1.56
4229.00,1.56
4228.00,1.56
4227.00,1.56
4226.00,1.55
4225.00,1.55
4224.00,1.55
4223.00,1.55
4222.00,1.54
4221.00,1.54
4220.00,1.54
4219.00,1.54
4218.00,1.54
4217.00,1.54
4216.00,1.54
4215.00,1.54
4214.00,1.54
4213.00,1.54
4212.00,1.54
4211.00,1.55
4210.00,1.55
4209.00,1.55
4208.00,1.55
4207.00,1.55
4206.00,1.55
4205.00,1.55
4204.00,1.55
4203.00,1.55
4202.00,1.55
4201.00,1.55
4200.00,1.56
4199.00,1.56
4198.00,1.56
4197.00,1.56
4196.00,1.56
4195.00,1.56
4194.00,1.56
4193.00,1.56
4192.00,1.56
4191.00,1.55
4190.00,1.55
4189.00,1.55
4188.00,1.55
4187.00,1.55
4186.00,1.54
4185.00,1.54
4184.00,1.53
4183.00,1.53
4182.00,1.53
4181.00,1.52
4180.00,1.52
4179.00,1.52
4178.00,1.52
4177.00,1.51
4176.00,1.51
4175.00,1.51
4174.00,1.52
4173.00,1.52
4172.00,1.52
4171.00,1.52
4170.00,1.53
4169.00,1.53
4168.00,1.54
4167.00,1.54
4166.00,1.55
4165.00,1.56
4164.00,1.56
4163.00,1.57
4162.00,1.57
4161.00,1.58
4160.00,1.58
4159.00,1.58
4158.00,1.59
4157.00,1.59
4156.00,1.59
4155.00,1.59
4154.00,1.60
4153.00,1.60
4152.00,1.59
4151.00,1.59
4150.00,1.59
4149.00,1.59
4148.00,1.58
4147.00,1.58
4146.00,1.57
4145.00,1.56
4144.00,1.56
4143.00,1.55
4142.00,1.54
4141.00,1.54
4140.00,1.53
4139.00,1.52
4138.00,1.52
4137.00,1.51
4136.00,1.51
4135.00,1.50
4134.00,1.50
4133.00,1.50
4132.00,1.50
4131.00,1.50
4130.00,1.50
4129.00,1.50
4128.00,1.50
4127.00,1.50
4126.00,1.50
4125.00,1.50
4124.00,1.50
4123.00,1.50
4122.00,1.51
4121.00,1.51
4120.00,1.51
4119.00,1.51
4118.00,1.51
4117.00,1.51
4116.00,1.51
4115.00,1.51
4114.00,1.51
4113.00,1.51
4112.00,1.51
4111.00,1.51
4110.00,1.51
4109.00,1.51
4108.00,1.51
4107.00,1.51
4106.00,1.51
4105.00,1.51
4104.00,1.51
4103.00,1.51
4102.00,1.51
4101.00,1.51
4100.00,1.51
4099.00,1.51
4098.00,1.51
4097.00,1.52
4096.00,1.52
4095.00,1.52
4094.00,1.52
4093.00,1.52
4092.00,1.53
4091.00,1.53
4090.00,1.53
4089.00,1.53
4088.00,1.53
4087.00,1.53
4086.00,1.53
4085.00,1.53
4084.00,1.53
4083.00,1.53
4082.00,1.52
4081.00,1.52
4080.00,1.51
4079.00,1.50
4078.00,1.50
4077.00,1.49
4076.00,1.48
4075.00,1.48
4074.00,1.47
4073.00,1.47
4072.00,1.47
4071.00,1.47
4070.00,1.47
4069.00,1.47
4068.00,1.47
4067.00,1.47
4066.00,1.47
4065.00,1.48
4064.00,1.48
4063.00,1.48
4062.00,1.49
4061.00,1.49
4060.00,1.50
4059.00,1.50
4058.00,1.50
4057.00,1.51
4056.00,1.51
4055.00,1.51
4054.00,1.50
4053.00,1.50
4052.00,1.50
4051.00,1.49
4050.00,1.48
4049.00,1.48
4048.00,1.47
4047.00,1.46
4046.00,1.45
4045.00,1.44
4044.00,1.43
4043.00,1.42
4042.00,1.41
4041.00,1.41
4040.00,1.40
4039.00,1.40
4038.00,1.40
4037.00,1.40
4036.00,1.41
4035.00,1.41
4034.00,1.42
4033.00,1.43
4032.00,1.44
4031.00,1.46
4030.00,1.47
4029.00,1.49
4028.00,1.50
4027.00,1.52
4026.00,1.53
4025.00,1.55
4024.00,1.56
4023.00,1.57
4022.00,1.57
4021.00,1.58
4020.00,1.58
4019.00,1.58
4018.00,1.59
4017.00,1.58
4016.00,1.58
4015.00,1.58
4014.00,1.57
4013.00,1.57
4012.00,1.57
4011.00,1.57
4010.00,1.57
4009.00,1.57
4008.00,1.57
4007.00,1.58
4006.00,1.59
4005.00,1.60
4004.00,1.61
4003.00,1.63
4002.00,1.64
4001.00,1.66
4000.00,1.68
