创建为新数据集,样品 668 用户 Administrator 日期 星期四, 七月 25 2019
cm-1,%T
10000.00,1.71
9999.00,1.70
9998.00,1.69
9997.00,1.68
9996.00,1.67
9995.00,1.66
9994.00,1.65
9993.00,1.65
9992.00,1.64
9991.00,1.63
9990.00,1.63
9989.00,1.62
9988.00,1.62
9987.00,1.61
9986.00,1.61
9985.00,1.60
9984.00,1.60
9983.00,1.60
9982.00,1.59
9981.00,1.59
9980.00,1.59
9979.00,1.59
9978.00,1.59
9977.00,1.59
9976.00,1.59
9975.00,1.59
9974.00,1.58
9973.00,1.58
9972.00,1.58
9971.00,1.58
9970.00,1.58
9969.00,1.57
9968.00,1.57
9967.00,1.56
9966.00,1.56
9965.00,1.55
9964.00,1.54
9963.00,1.54
9962.00,1.53
9961.00,1.52
9960.00,1.51
9959.00,1.50
9958.00,1.49
9957.00,1.49
9956.00,1.48
9955.00,1.48
9954.00,1.48
9953.00,1.48
9952.00,1.48
9951.00,1.49
9950.00,1.50
9949.00,1.51
9948.00,1.51
9947.00,1.52
9946.00,1.53
9945.00,1.54
9944.00,1.55
9943.00,1.55
9942.00,1.56
9941.00,1.57
9940.00,1.57
9939.00,1.57
9938.00,1.57
9937.00,1.57
9936.00,1.56
9935.00,1.56
9934.00,1.55
9933.00,1.54
9932.00,1.53
9931.00,1.52
9930.00,1.51
9929.00,1.50
9928.00,1.49
9927.00,1.49
9926.00,1.48
9925.00,1.48
9924.00,1.47
9923.00,1.47
9922.00,1.47
9921.00,1.47
9920.00,1.48
9919.00,1.48
9918.00,1.49
9917.00,1.50
9916.00,1.51
9915.00,1.52
9914.00,1.53
9913.00,1.54
9912.00,1.55
9911.00,1.56
9910.00,1.57
9909.00,1.58
9908.00,1.58
9907.00,1.59
9906.00,1.59
9905.00,1.59
9904.00,1.60
9903.00,1.59
9902.00,1.59
9901.00,1.59
9900.00,1.58
9899.00,1.58
9898.00,1.57
9897.00,1.56
9896.00,1.55
9895.00,1.54
9894.00,1.53
9893.00,1.52
9892.00,1.51
9891.00,1.50
9890.00,1.50
9889.00,1.49
9888.00,1.48
9887.00,1.47
9886.00,1.47
9885.00,1.46
9884.00,1.46
9883.00,1.46
9882.00,1.45
9881.00,1.45
9880.00,1.45
9879.00,1.45
9878.00,1.45
9877.00,1.45
9876.00,1.45
9875.00,1.45
9874.00,1.45
9873.00,1.45
9872.00,1.46
9871.00,1.46
9870.00,1.47
9869.00,1.47
9868.00,1.48
9867.00,1.49
9866.00,1.50
9865.00,1.51
9864.00,1.52
9863.00,1.53
9862.00,1.54
9861.00,1.56
9860.00,1.57
9859.00,1.58
9858.00,1.58
9857.00,1.59
9856.00,1.59
9855.00,1.59
9854.00,1.59
9853.00,1.58
9852.00,1.58
9851.00,1.57
9850.00,1.56
9849.00,1.55
9848.00,1.54
9847.00,1.52
9846.00,1.51
9845.00,1.50
9844.00,1.48
9843.00,1.47
9842.00,1.45
9841.00,1.44
9840.00,1.42
9839.00,1.41
9838.00,1.40
9837.00,1.39
9836.00,1.38
9835.00,1.37
9834.00,1.36
9833.00,1.36
9832.00,1.35
9831.00,1.34
9830.00,1.34
9829.00,1.34
9828.00,1.33
9827.00,1.33
9826.00,1.33
9825.00,1.33
9824.00,1.33
9823.00,1.33
9822.00,1.33
9821.00,1.33
9820.00,1.34
9819.00,1.34
9818.00,1.34
9817.00,1.35
9816.00,1.35
9815.00,1.35
9814.00,1.35
9813.00,1.35
9812.00,1.35
9811.00,1.35
9810.00,1.34
9809.00,1.34
9808.00,1.34
9807.00,1.34
9806.00,1.34
9805.00,1.34
9804.00,1.33
9803.00,1.33
9802.00,1.33
9801.00,1.33
9800.00,1.34
9799.00,1.34
9798.00,1.34
9797.00,1.34
9796.00,1.35
9795.00,1.35
9794.00,1.36
9793.00,1.37
9792.00,1.37
9791.00,1.38
9790.00,1.38
9789.00,1.39
9788.00,1.39
9787.00,1.40
9786.00,1.41
9785.00,1.41
9784.00,1.42
9783.00,1.43
9782.00,1.44
9781.00,1.44
9780.00,1.45
9779.00,1.46
9778.00,1.47
9777.00,1.48
9776.00,1.48
9775.00,1.49
9774.00,1.49
9773.00,1.50
9772.00,1.50
9771.00,1.50
9770.00,1.50
9769.00,1.50
9768.00,1.50
9767.00,1.50
9766.00,1.49
9765.00,1.49
9764.00,1.48
9763.00,1.48
9762.00,1.47
9761.00,1.47
9760.00,1.47
9759.00,1.46
9758.00,1.46
9757.00,1.46
9756.00,1.46
9755.00,1.46
9754.00,1.46
9753.00,1.45
9752.00,1.45
9751.00,1.45
9750.00,1.44
9749.00,1.43
9748.00,1.43
9747.00,1.42
9746.00,1.40
9745.00,1.39
9744.00,1.38
9743.00,1.37
9742.00,1.35
9741.00,1.34
9740.00,1.33
9739.00,1.32
9738.00,1.31
9737.00,1.30
9736.00,1.30
9735.00,1.29
9734.00,1.29
9733.00,1.29
9732.00,1.29
9731.00,1.30
9730.00,1.30
9729.00,1.31
9728.00,1.31
9727.00,1.32
9726.00,1.32
9725.00,1.32
9724.00,1.32
9723.00,1.33
9722.00,1.33
9721.00,1.33
9720.00,1.33
9719.00,1.32
9718.00,1.32
9717.00,1.32
9716.00,1.32
9715.00,1.32
9714.00,1.32
9713.00,1.33
9712.00,1.33
9711.00,1.33
9710.00,1.34
9709.00,1.34
9708.00,1.35
9707.00,1.35
9706.00,1.36
9705.00,1.37
9704.00,1.38
9703.00,1.38
9702.00,1.39
9701.00,1.40
9700.00,1.41
9699.00,1.42
9698.00,1.43
9697.00,1.44
9696.00,1.46
9695.00,1.47
9694.00,1.48
9693.00,1.49
9692.00,1.50
9691.00,1.52
9690.00,1.53
9689.00,1.54
9688.00,1.55
9687.00,1.56
9686.00,1.57
9685.00,1.57
9684.00,1.58
9683.00,1.58
9682.00,1.57
9681.00,1.57
9680.00,1.56
9679.00,1.56
9678.00,1.55
9677.00,1.53
9676.00,1.52
9675.00,1.51
9674.00,1.50
9673.00,1.49
9672.00,1.47
9671.00,1.46
9670.00,1.45
9669.00,1.44
9668.00,1.44
9667.00,1.43
9666.00,1.43
9665.00,1.42
9664.00,1.42
9663.00,1.42
9662.00,1.42
9661.00,1.42
9660.00,1.41
9659.00,1.41
9658.00,1.40
9657.00,1.40
9656.00,1.39
9655.00,1.37
9654.00,1.36
9653.00,1.34
9652.00,1.33
9651.00,1.31
9650.00,1.30
9649.00,1.28
9648.00,1.27
9647.00,1.25
9646.00,1.24
9645.00,1.23
9644.00,1.22
9643.00,1.22
9642.00,1.22
9641.00,1.22
9640.00,1.22
9639.00,1.23
9638.00,1.25
9637.00,1.26
9636.00,1.28
9635.00,1.30
9634.00,1.32
9633.00,1.34
9632.00,1.36
9631.00,1.37
9630.00,1.39
9629.00,1.40
9628.00,1.41
9627.00,1.42
9626.00,1.43
9625.00,1.43
9624.00,1.44
9623.00,1.44
9622.00,1.44
9621.00,1.44
9620.00,1.43
9619.00,1.43
9618.00,1.42
9617.00,1.41
9616.00,1.41
9615.00,1.40
9614.00,1.39
9613.00,1.39
9612.00,1.39
9611.00,1.38
9610.00,1.38
9609.00,1.37
9608.00,1.37
9607.00,1.36
9606.00,1.36
9605.00,1.35
9604.00,1.35
9603.00,1.34
9602.00,1.34
9601.00,1.34
9600.00,1.34
9599.00,1.33
9598.00,1.33
9597.00,1.33
9596.00,1.33
9595.00,1.34
9594.00,1.34
9593.00,1.35
9592.00,1.35
9591.00,1.36
9590.00,1.37
9589.00,1.38
9588.00,1.39
9587.00,1.40
9586.00,1.41
9585.00,1.41
9584.00,1.42
9583.00,1.43
9582.00,1.44
9581.00,1.45
9580.00,1.46
9579.00,1.46
9578.00,1.47
9577.00,1.47
9576.00,1.47
9575.00,1.47
9574.00,1.47
9573.00,1.47
9572.00,1.46
9571.00,1.46
9570.00,1.45
9569.00,1.45
9568.00,1.44
9567.00,1.44
9566.00,1.43
9565.00,1.43
9564.00,1.43
9563.00,1.43
9562.00,1.43
9561.00,1.43
9560.00,1.43
9559.00,1.43
9558.00,1.44
9557.00,1.44
9556.00,1.44
9555.00,1.45
9554.00,1.45
9553.00,1.46
9552.00,1.46
9551.00,1.47
9550.00,1.47
9549.00,1.47
9548.00,1.48
9547.00,1.48
9546.00,1.48
9545.00,1.48
9544.00,1.48
9543.00,1.48
9542.00,1.48
9541.00,1.48
9540.00,1.48
9539.00,1.48
9538.00,1.48
9537.00,1.48
9536.00,1.48
9535.00,1.48
9534.00,1.47
9533.00,1.47
9532.00,1.47
9531.00,1.46
9530.00,1.46
9529.00,1.45
9528.00,1.44
9527.00,1.44
9526.00,1.43
9525.00,1.43
9524.00,1.42
9523.00,1.42
9522.00,1.42
9521.00,1.41
9520.00,1.41
9519.00,1.41
9518.00,1.41
9517.00,1.41
9516.00,1.41
9515.00,1.41
9514.00,1.41
9513.00,1.41
9512.00,1.41
9511.00,1.41
9510.00,1.40
9509.00,1.40
9508.00,1.40
9507.00,1.39
9506.00,1.39
9505.00,1.38
9504.00,1.37
9503.00,1.37
9502.00,1.36
9501.00,1.36
9500.00,1.35
9499.00,1.35
9498.00,1.35
9497.00,1.35
9496.00,1.36
9495.00,1.36
9494.00,1.37
9493.00,1.38
9492.00,1.39
9491.00,1.40
9490.00,1.41
9489.00,1.43
9488.00,1.44
9487.00,1.46
9486.00,1.47
9485.00,1.48
9484.00,1.50
9483.00,1.51
9482.00,1.52
9481.00,1.53
9480.00,1.54
9479.00,1.54
9478.00,1.55
9477.00,1.55
9476.00,1.55
9475.00,1.55
9474.00,1.55
9473.00,1.55
9472.00,1.54
9471.00,1.54
9470.00,1.53
9469.00,1.53
9468.00,1.52
9467.00,1.51
9466.00,1.50
9465.00,1.50
9464.00,1.49
9463.00,1.48
9462.00,1.47
9461.00,1.46
9460.00,1.45
9459.00,1.45
9458.00,1.44
9457.00,1.43
9456.00,1.42
9455.00,1.41
9454.00,1.40
9453.00,1.39
9452.00,1.38
9451.00,1.37
9450.00,1.36
9449.00,1.35
9448.00,1.34
9447.00,1.33
9446.00,1.32
9445.00,1.32
9444.00,1.31
9443.00,1.31
9442.00,1.31
9441.00,1.31
9440.00,1.31
9439.00,1.31
9438.00,1.31
9437.00,1.32
9436.00,1.33
9435.00,1.34
9434.00,1.34
9433.00,1.36
9432.00,1.37
9431.00,1.38
9430.00,1.39
9429.00,1.40
9428.00,1.41
9427.00,1.42
9426.00,1.43
9425.00,1.43
9424.00,1.44
9423.00,1.44
9422.00,1.45
9421.00,1.45
9420.00,1.45
9419.00,1.45
9418.00,1.45
9417.00,1.45
9416.00,1.44
9415.00,1.44
9414.00,1.43
9413.00,1.43
9412.00,1.43
9411.00,1.42
9410.00,1.42
9409.00,1.42
9408.00,1.42
9407.00,1.42
9406.00,1.42
9405.00,1.43
9404.00,1.43
9403.00,1.44
9402.00,1.45
9401.00,1.46
9400.00,1.46
9399.00,1.47
9398.00,1.48
9397.00,1.49
9396.00,1.50
9395.00,1.50
9394.00,1.51
9393.00,1.51
9392.00,1.51
9391.00,1.51
9390.00,1.51
9389.00,1.51
9388.00,1.50
9387.00,1.49
9386.00,1.49
9385.00,1.48
9384.00,1.47
9383.00,1.46
9382.00,1.45
9381.00,1.44
9380.00,1.43
9379.00,1.43
9378.00,1.42
9377.00,1.42
9376.00,1.41
9375.00,1.41
9374.00,1.41
9373.00,1.41
9372.00,1.40
9371.00,1.41
9370.00,1.41
9369.00,1.41
9368.00,1.42
9367.00,1.42
9366.00,1.43
9365.00,1.43
9364.00,1.44
9363.00,1.45
9362.00,1.45
9361.00,1.46
9360.00,1.47
9359.00,1.48
9358.00,1.48
9357.00,1.49
9356.00,1.50
9355.00,1.51
9354.00,1.52
9353.00,1.53
9352.00,1.54
9351.00,1.55
9350.00,1.55
9349.00,1.55
9348.00,1.55
9347.00,1.55
9346.00,1.55
9345.00,1.55
9344.00,1.54
9343.00,1.54
9342.00,1.53
9341.00,1.52
9340.00,1.50
9339.00,1.49
9338.00,1.48
9337.00,1.46
9336.00,1.44
9335.00,1.43
9334.00,1.41
9333.00,1.40
9332.00,1.38
9331.00,1.37
9330.00,1.36
9329.00,1.35
9328.00,1.34
9327.00,1.34
9326.00,1.34
9325.00,1.33
9324.00,1.33
9323.00,1.33
9322.00,1.34
9321.00,1.34
9320.00,1.35
9319.00,1.36
9318.00,1.37
9317.00,1.38
9316.00,1.39
9315.00,1.41
9314.00,1.42
9313.00,1.43
9312.00,1.44
9311.00,1.46
9310.00,1.47
9309.00,1.48
9308.00,1.49
9307.00,1.50
9306.00,1.51
9305.00,1.51
9304.00,1.52
9303.00,1.52
9302.00,1.53
9301.00,1.53
9300.00,1.54
9299.00,1.54
9298.00,1.54
9297.00,1.55
9296.00,1.55
9295.00,1.55
9294.00,1.55
9293.00,1.56
9292.00,1.56
9291.00,1.56
9290.00,1.57
9289.00,1.57
9288.00,1.58
9287.00,1.58
9286.00,1.59
9285.00,1.59
9284.00,1.59
9283.00,1.60
9282.00,1.60
9281.00,1.60
9280.00,1.60
9279.00,1.60
9278.00,1.60
9277.00,1.60
9276.00,1.59
9275.00,1.59
9274.00,1.59
9273.00,1.58
9272.00,1.57
9271.00,1.56
9270.00,1.55
9269.00,1.54
9268.00,1.53
9267.00,1.52
9266.00,1.51
9265.00,1.50
9264.00,1.49
9263.00,1.48
9262.00,1.47
9261.00,1.46
9260.00,1.45
9259.00,1.44
9258.00,1.43
9257.00,1.42
9256.00,1.42
9255.00,1.41
9254.00,1.40
9253.00,1.39
9252.00,1.38
9251.00,1.38
9250.00,1.37
9249.00,1.36
9248.00,1.35
9247.00,1.35
9246.00,1.34
9245.00,1.33
9244.00,1.33
9243.00,1.32
9242.00,1.32
9241.00,1.31
9240.00,1.31
9239.00,1.30
9238.00,1.30
9237.00,1.30
9236.00,1.30
9235.00,1.30
9234.00,1.31
9233.00,1.31
9232.00,1.31
9231.00,1.31
9230.00,1.31
9229.00,1.32
9228.00,1.32
9227.00,1.32
9226.00,1.33
9225.00,1.33
9224.00,1.33
9223.00,1.33
9222.00,1.33
9221.00,1.33
9220.00,1.33
9219.00,1.32
9218.00,1.32
9217.00,1.32
9216.00,1.31
9215.00,1.31
9214.00,1.31
9213.00,1.31
9212.00,1.31
9211.00,1.31
9210.00,1.32
9209.00,1.32
9208.00,1.32
9207.00,1.33
9206.00,1.33
9205.00,1.34
9204.00,1.35
9203.00,1.36
9202.00,1.37
9201.00,1.38
9200.00,1.39
9199.00,1.41
9198.00,1.42
9197.00,1.43
9196.00,1.44
9195.00,1.45
9194.00,1.46
9193.00,1.47
9192.00,1.48
9191.00,1.49
9190.00,1.50
9189.00,1.50
9188.00,1.51
9187.00,1.51
9186.00,1.52
9185.00,1.52
9184.00,1.52
9183.00,1.52
9182.00,1.52
9181.00,1.51
9180.00,1.51
9179.00,1.50
9178.00,1.50
9177.00,1.49
9176.00,1.49
9175.00,1.48
9174.00,1.47
9173.00,1.46
9172.00,1.46
9171.00,1.45
9170.00,1.44
9169.00,1.43
9168.00,1.42
9167.00,1.41
9166.00,1.40
9165.00,1.39
9164.00,1.38
9163.00,1.37
9162.00,1.36
9161.00,1.36
9160.00,1.35
9159.00,1.34
9158.00,1.34
9157.00,1.34
9156.00,1.34
9155.00,1.34
9154.00,1.34
9153.00,1.34
9152.00,1.35
9151.00,1.36
9150.00,1.37
9149.00,1.38
9148.00,1.40
9147.00,1.41
9146.00,1.43
9145.00,1.44
9144.00,1.45
9143.00,1.47
9142.00,1.48
9141.00,1.48
9140.00,1.49
9139.00,1.50
9138.00,1.50
9137.00,1.50
9136.00,1.50
9135.00,1.50
9134.00,1.50
9133.00,1.50
9132.00,1.49
9131.00,1.49
9130.00,1.49
9129.00,1.48
9128.00,1.48
9127.00,1.47
9126.00,1.47
9125.00,1.47
9124.00,1.47
9123.00,1.47
9122.00,1.47
9121.00,1.47
9120.00,1.47
9119.00,1.47
9118.00,1.47
9117.00,1.46
9116.00,1.46
9115.00,1.46
9114.00,1.45
9113.00,1.45
9112.00,1.44
9111.00,1.44
9110.00,1.43
9109.00,1.42
9108.00,1.41
9107.00,1.40
9106.00,1.40
9105.00,1.39
9104.00,1.38
9103.00,1.37
9102.00,1.37
9101.00,1.36
9100.00,1.36
9099.00,1.36
9098.00,1.36
9097.00,1.36
9096.00,1.36
9095.00,1.36
9094.00,1.36
9093.00,1.37
9092.00,1.37
9091.00,1.38
9090.00,1.38
9089.00,1.39
9088.00,1.40
9087.00,1.40
9086.00,1.41
9085.00,1.42
9084.00,1.43
9083.00,1.44
9082.00,1.44
9081.00,1.45
9080.00,1.46
9079.00,1.47
9078.00,1.48
9077.00,1.49
9076.00,1.50
9075.00,1.50
9074.00,1.51
9073.00,1.51
9072.00,1.52
9071.00,1.52
9070.00,1.52
9069.00,1.52
9068.00,1.52
9067.00,1.52
9066.00,1.52
9065.00,1.52
9064.00,1.52
9063.00,1.51
9062.00,1.51
9061.00,1.50
9060.00,1.50
9059.00,1.49
9058.00,1.49
9057.00,1.48
9056.00,1.47
9055.00,1.47
9054.00,1.46
9053.00,1.45
9052.00,1.44
9051.00,1.43
9050.00,1.41
9049.00,1.40
9048.00,1.39
9047.00,1.37
9046.00,1.36
9045.00,1.35
9044.00,1.33
9043.00,1.32
9042.00,1.31
9041.00,1.30
9040.00,1.29
9039.00,1.29
9038.00,1.28
9037.00,1.28
9036.00,1.28
9035.00,1.28
9034.00,1.29
9033.00,1.30
9032.00,1.31
9031.00,1.32
9030.00,1.33
9029.00,1.34
9028.00,1.36
9027.00,1.37
9026.00,1.38
9025.00,1.39
9024.00,1.41
9023.00,1.42
9022.00,1.43
9021.00,1.43
9020.00,1.44
9019.00,1.45
9018.00,1.45
9017.00,1.46
9016.00,1.46
9015.00,1.46
9014.00,1.46
9013.00,1.46
9012.00,1.45
9011.00,1.45
9010.00,1.44
9009.00,1.44
9008.00,1.44
9007.00,1.43
9006.00,1.43
9005.00,1.43
9004.00,1.42
9003.00,1.42
9002.00,1.42
9001.00,1.42
9000.00,1.42
8999.00,1.42
8998.00,1.42
8997.00,1.43
8996.00,1.43
8995.00,1.43
8994.00,1.43
8993.00,1.43
8992.00,1.44
8991.00,1.44
8990.00,1.43
8989.00,1.43
8988.00,1.43
8987.00,1.43
8986.00,1.42
8985.00,1.42
8984.00,1.42
8983.00,1.42
8982.00,1.41
8981.00,1.41
8980.00,1.41
8979.00,1.41
8978.00,1.41
8977.00,1.41
8976.00,1.41
8975.00,1.41
8974.00,1.42
8973.00,1.42
8972.00,1.43
8971.00,1.43
8970.00,1.44
8969.00,1.44
8968.00,1.45
8967.00,1.45
8966.00,1.46
8965.00,1.46
8964.00,1.46
8963.00,1.46
8962.00,1.46
8961.00,1.46
8960.00,1.46
8959.00,1.46
8958.00,1.45
8957.00,1.45
8956.00,1.45
8955.00,1.44
8954.00,1.43
8953.00,1.43
8952.00,1.42
8951.00,1.41
8950.00,1.40
8949.00,1.39
8948.00,1.38
8947.00,1.37
8946.00,1.37
8945.00,1.36
8944.00,1.36
8943.00,1.35
8942.00,1.35
8941.00,1.35
8940.00,1.35
8939.00,1.36
8938.00,1.36
8937.00,1.36
8936.00,1.37
8935.00,1.37
8934.00,1.38
8933.00,1.39
8932.00,1.39
8931.00,1.40
8930.00,1.41
8929.00,1.41
8928.00,1.42
8927.00,1.42
8926.00,1.42
8925.00,1.42
8924.00,1.42
8923.00,1.42
8922.00,1.42
8921.00,1.42
8920.00,1.41
8919.00,1.41
8918.00,1.41
8917.00,1.40
8916.00,1.40
8915.00,1.39
8914.00,1.39
8913.00,1.38
8912.00,1.38
8911.00,1.37
8910.00,1.37
8909.00,1.36
8908.00,1.36
8907.00,1.35
8906.00,1.35
8905.00,1.35
8904.00,1.34
8903.00,1.34
8902.00,1.34
8901.00,1.34
8900.00,1.33
8899.00,1.33
8898.00,1.34
8897.00,1.34
8896.00,1.34
8895.00,1.35
8894.00,1.35
8893.00,1.36
8892.00,1.37
8891.00,1.38
8890.00,1.39
8889.00,1.40
8888.00,1.41
8887.00,1.42
8886.00,1.43
8885.00,1.44
8884.00,1.45
8883.00,1.46
8882.00,1.47
8881.00,1.47
8880.00,1.48
8879.00,1.48
8878.00,1.48
8877.00,1.48
8876.00,1.47
8875.00,1.47
8874.00,1.46
8873.00,1.45
8872.00,1.44
8871.00,1.43
8870.00,1.42
8869.00,1.41
8868.00,1.40
8867.00,1.39
8866.00,1.38
8865.00,1.37
8864.00,1.36
8863.00,1.35
8862.00,1.35
8861.00,1.34
8860.00,1.34
8859.00,1.34
8858.00,1.34
8857.00,1.35
8856.00,1.35
8855.00,1.36
8854.00,1.37
8853.00,1.38
8852.00,1.39
8851.00,1.40
8850.00,1.41
8849.00,1.42
8848.00,1.43
8847.00,1.45
8846.00,1.46
8845.00,1.47
8844.00,1.48
8843.00,1.49
8842.00,1.50
8841.00,1.50
8840.00,1.51
8839.00,1.51
8838.00,1.52
8837.00,1.52
8836.00,1.52
8835.00,1.52
8834.00,1.52
8833.00,1.52
8832.00,1.52
8831.00,1.52
8830.00,1.52
8829.00,1.53
8828.00,1.53
8827.00,1.53
8826.00,1.53
8825.00,1.54
8824.00,1.54
8823.00,1.54
8822.00,1.54
8821.00,1.55
8820.00,1.55
8819.00,1.55
8818.00,1.55
8817.00,1.55
8816.00,1.55
8815.00,1.55
8814.00,1.54
8813.00,1.54
8812.00,1.54
8811.00,1.53
8810.00,1.53
8809.00,1.52
8808.00,1.51
8807.00,1.50
8806.00,1.49
8805.00,1.48
8804.00,1.47
8803.00,1.45
8802.00,1.44
8801.00,1.43
8800.00,1.42
8799.00,1.40
8798.00,1.39
8797.00,1.38
8796.00,1.37
8795.00,1.36
8794.00,1.35
8793.00,1.34
8792.00,1.33
8791.00,1.33
8790.00,1.33
8789.00,1.33
8788.00,1.33
8787.00,1.33
8786.00,1.33
8785.00,1.34
8784.00,1.34
8783.00,1.34
8782.00,1.35
8781.00,1.35
8780.00,1.36
8779.00,1.36
8778.00,1.37
8777.00,1.37
8776.00,1.37
8775.00,1.37
8774.00,1.37
8773.00,1.37
8772.00,1.37
8771.00,1.37
8770.00,1.37
8769.00,1.37
8768.00,1.37
8767.00,1.38
8766.00,1.38
8765.00,1.38
8764.00,1.39
8763.00,1.39
8762.00,1.40
8761.00,1.41
8760.00,1.42
8759.00,1.43
8758.00,1.44
8757.00,1.45
8756.00,1.46
8755.00,1.46
8754.00,1.47
8753.00,1.48
8752.00,1.49
8751.00,1.49
8750.00,1.49
8749.00,1.50
8748.00,1.50
8747.00,1.50
8746.00,1.50
8745.00,1.50
8744.00,1.50
8743.00,1.50
8742.00,1.50
8741.00,1.50
8740.00,1.50
8739.00,1.50
8738.00,1.50
8737.00,1.50
8736.00,1.50
8735.00,1.50
8734.00,1.50
8733.00,1.50
8732.00,1.50
8731.00,1.50
8730.00,1.50
8729.00,1.50
8728.00,1.50
8727.00,1.50
8726.00,1.50
8725.00,1.50
8724.00,1.50
8723.00,1.50
8722.00,1.49
8721.00,1.49
8720.00,1.49
8719.00,1.48
8718.00,1.47
8717.00,1.46
8716.00,1.45
8715.00,1.44
8714.00,1.43
8713.00,1.42
8712.00,1.41
8711.00,1.40
8710.00,1.39
8709.00,1.38
8708.00,1.38
8707.00,1.37
8706.00,1.36
8705.00,1.36
8704.00,1.36
8703.00,1.35
8702.00,1.35
8701.00,1.35
8700.00,1.35
8699.00,1.36
8698.00,1.36
8697.00,1.36
8696.00,1.37
8695.00,1.37
8694.00,1.38
8693.00,1.39
8692.00,1.39
8691.00,1.40
8690.00,1.40
8689.00,1.41
8688.00,1.41
8687.00,1.42
8686.00,1.42
8685.00,1.42
8684.00,1.43
8683.00,1.43
8682.00,1.43
8681.00,1.43
8680.00,1.43
8679.00,1.43
8678.00,1.43
8677.00,1.43
8676.00,1.43
8675.00,1.43
8674.00,1.43
8673.00,1.43
8672.00,1.43
8671.00,1.43
8670.00,1.42
8669.00,1.42
8668.00,1.42
8667.00,1.42
8666.00,1.41
8665.00,1.41
8664.00,1.41
8663.00,1.41
8662.00,1.41
8661.00,1.41
8660.00,1.40
8659.00,1.40
8658.00,1.40
8657.00,1.40
8656.00,1.40
8655.00,1.40
8654.00,1.40
8653.00,1.40
8652.00,1.40
8651.00,1.40
8650.00,1.40
8649.00,1.39
8648.00,1.39
8647.00,1.39
8646.00,1.39
8645.00,1.38
8644.00,1.38
8643.00,1.38
8642.00,1.38
8641.00,1.38
8640.00,1.38
8639.00,1.38
8638.00,1.38
8637.00,1.39
8636.00,1.39
8635.00,1.39
8634.00,1.39
8633.00,1.40
8632.00,1.40
8631.00,1.40
8630.00,1.41
8629.00,1.41
8628.00,1.41
8627.00,1.42
8626.00,1.42
8625.00,1.42
8624.00,1.42
8623.00,1.42
8622.00,1.43
8621.00,1.43
8620.00,1.43
8619.00,1.43
8618.00,1.43
8617.00,1.43
8616.00,1.43
8615.00,1.42
8614.00,1.42
8613.00,1.42
8612.00,1.42
8611.00,1.42
8610.00,1.41
8609.00,1.41
8608.00,1.40
8607.00,1.40
8606.00,1.39
8605.00,1.38
8604.00,1.38
8603.00,1.37
8602.00,1.36
8601.00,1.36
8600.00,1.35
8599.00,1.34
8598.00,1.34
8597.00,1.34
8596.00,1.33
8595.00,1.33
8594.00,1.33
8593.00,1.33
8592.00,1.34
8591.00,1.34
8590.00,1.34
8589.00,1.35
8588.00,1.35
8587.00,1.36
8586.00,1.37
8585.00,1.38
8584.00,1.38
8583.00,1.39
8582.00,1.39
8581.00,1.40
8580.00,1.40
8579.00,1.41
8578.00,1.41
8577.00,1.42
8576.00,1.42
8575.00,1.42
8574.00,1.42
8573.00,1.43
8572.00,1.43
8571.00,1.42
8570.00,1.42
8569.00,1.42
8568.00,1.42
8567.00,1.42
8566.00,1.41
8565.00,1.41
8564.00,1.41
8563.00,1.41
8562.00,1.40
8561.00,1.40
8560.00,1.39
8559.00,1.39
8558.00,1.39
8557.00,1.38
8556.00,1.38
8555.00,1.38
8554.00,1.38
8553.00,1.37
8552.00,1.38
8551.00,1.38
8550.00,1.38
8549.00,1.38
8548.00,1.39
8547.00,1.39
8546.00,1.40
8545.00,1.40
8544.00,1.41
8543.00,1.42
8542.00,1.43
8541.00,1.43
8540.00,1.44
8539.00,1.45
8538.00,1.45
8537.00,1.45
8536.00,1.45
8535.00,1.46
8534.00,1.46
8533.00,1.45
8532.00,1.45
8531.00,1.45
8530.00,1.44
8529.00,1.44
8528.00,1.43
8527.00,1.43
8526.00,1.42
8525.00,1.41
8524.00,1.41
8523.00,1.40
8522.00,1.40
8521.00,1.39
8520.00,1.39
8519.00,1.38
8518.00,1.38
8517.00,1.38
8516.00,1.38
8515.00,1.38
8514.00,1.38
8513.00,1.37
8512.00,1.37
8511.00,1.37
8510.00,1.37
8509.00,1.37
8508.00,1.37
8507.00,1.38
8506.00,1.38
8505.00,1.38
8504.00,1.38
8503.00,1.38
8502.00,1.38
8501.00,1.38
8500.00,1.38
8499.00,1.38
8498.00,1.38
8497.00,1.38
8496.00,1.38
8495.00,1.38
8494.00,1.38
8493.00,1.38
8492.00,1.37
8491.00,1.37
8490.00,1.37
8489.00,1.37
8488.00,1.36
8487.00,1.36
8486.00,1.36
8485.00,1.36
8484.00,1.35
8483.00,1.35
8482.00,1.34
8481.00,1.34
8480.00,1.33
8479.00,1.32
8478.00,1.32
8477.00,1.31
8476.00,1.30
8475.00,1.30
8474.00,1.29
8473.00,1.29
8472.00,1.28
8471.00,1.28
8470.00,1.27
8469.00,1.27
8468.00,1.27
8467.00,1.27
8466.00,1.27
8465.00,1.27
8464.00,1.27
8463.00,1.28
8462.00,1.28
8461.00,1.29
8460.00,1.30
8459.00,1.30
8458.00,1.31
8457.00,1.32
8456.00,1.32
8455.00,1.33
8454.00,1.34
8453.00,1.34
8452.00,1.35
8451.00,1.36
8450.00,1.36
8449.00,1.37
8448.00,1.37
8447.00,1.37
8446.00,1.38
8445.00,1.38
8444.00,1.38
8443.00,1.38
8442.00,1.37
8441.00,1.37
8440.00,1.37
8439.00,1.37
8438.00,1.37
8437.00,1.37
8436.00,1.37
8435.00,1.37
8434.00,1.36
8433.00,1.36
8432.00,1.36
8431.00,1.37
8430.00,1.37
8429.00,1.37
8428.00,1.37
8427.00,1.37
8426.00,1.38
8425.00,1.38
8424.00,1.39
8423.00,1.39
8422.00,1.39
8421.00,1.39
8420.00,1.39
8419.00,1.39
8418.00,1.40
8417.00,1.39
8416.00,1.39
8415.00,1.39
8414.00,1.39
8413.00,1.38
8412.00,1.38
8411.00,1.37
8410.00,1.37
8409.00,1.36
8408.00,1.35
8407.00,1.34
8406.00,1.33
8405.00,1.32
8404.00,1.31
8403.00,1.30
8402.00,1.30
8401.00,1.29
8400.00,1.28
8399.00,1.27
8398.00,1.27
8397.00,1.26
8396.00,1.26
8395.00,1.25
8394.00,1.25
8393.00,1.25
8392.00,1.25
8391.00,1.25
8390.00,1.25
8389.00,1.26
8388.00,1.26
8387.00,1.27
8386.00,1.27
8385.00,1.28
8384.00,1.29
8383.00,1.29
8382.00,1.30
8381.00,1.31
8380.00,1.32
8379.00,1.33
8378.00,1.34
8377.00,1.35
8376.00,1.36
8375.00,1.37
8374.00,1.38
8373.00,1.38
8372.00,1.39
8371.00,1.40
8370.00,1.40
8369.00,1.40
8368.00,1.41
8367.00,1.41
8366.00,1.40
8365.00,1.40
8364.00,1.40
8363.00,1.39
8362.00,1.38
8361.00,1.37
8360.00,1.36
8359.00,1.34
8358.00,1.33
8357.00,1.32
8356.00,1.31
8355.00,1.30
8354.00,1.29
8353.00,1.28
8352.00,1.27
8351.00,1.27
8350.00,1.27
8349.00,1.26
8348.00,1.26
8347.00,1.26
8346.00,1.27
8345.00,1.27
8344.00,1.28
8343.00,1.29
8342.00,1.30
8341.00,1.31
8340.00,1.32
8339.00,1.33
8338.00,1.33
8337.00,1.34
8336.00,1.35
8335.00,1.35
8334.00,1.36
8333.00,1.36
8332.00,1.36
8331.00,1.36
8330.00,1.36
8329.00,1.36
8328.00,1.36
8327.00,1.36
8326.00,1.35
8325.00,1.35
8324.00,1.35
8323.00,1.34
8322.00,1.34
8321.00,1.34
8320.00,1.34
8319.00,1.34
8318.00,1.34
8317.00,1.34
8316.00,1.35
8315.00,1.35
8314.00,1.35
8313.00,1.36
8312.00,1.36
8311.00,1.36
8310.00,1.37
8309.00,1.37
8308.00,1.37
8307.00,1.37
8306.00,1.37
8305.00,1.36
8304.00,1.36
8303.00,1.36
8302.00,1.35
8301.00,1.35
8300.00,1.34
8299.00,1.33
8298.00,1.33
8297.00,1.32
8296.00,1.31
8295.00,1.31
8294.00,1.31
8293.00,1.30
8292.00,1.30
8291.00,1.30
8290.00,1.31
8289.00,1.31
8288.00,1.31
8287.00,1.32
8286.00,1.32
8285.00,1.33
8284.00,1.33
8283.00,1.34
8282.00,1.34
8281.00,1.35
8280.00,1.36
8279.00,1.36
8278.00,1.37
8277.00,1.37
8276.00,1.37
8275.00,1.37
8274.00,1.38
8273.00,1.38
8272.00,1.38
8271.00,1.38
8270.00,1.38
8269.00,1.38
8268.00,1.38
8267.00,1.38
8266.00,1.38
8265.00,1.38
8264.00,1.38
8263.00,1.38
8262.00,1.38
8261.00,1.38
8260.00,1.38
8259.00,1.38
8258.00,1.38
8257.00,1.38
8256.00,1.38
8255.00,1.38
8254.00,1.38
8253.00,1.38
8252.00,1.38
8251.00,1.38
8250.00,1.38
8249.00,1.38
8248.00,1.38
8247.00,1.38
8246.00,1.38
8245.00,1.38
8244.00,1.39
8243.00,1.39
8242.00,1.39
8241.00,1.40
8240.00,1.40
8239.00,1.40
8238.00,1.41
8237.00,1.41
8236.00,1.41
8235.00,1.41
8234.00,1.42
8233.00,1.42
8232.00,1.42
8231.00,1.42
8230.00,1.42
8229.00,1.42
8228.00,1.42
8227.00,1.43
8226.00,1.42
8225.00,1.42
8224.00,1.42
8223.00,1.42
8222.00,1.42
8221.00,1.42
8220.00,1.42
8219.00,1.42
8218.00,1.42
8217.00,1.42
8216.00,1.42
8215.00,1.42
8214.00,1.42
8213.00,1.41
8212.00,1.41
8211.00,1.41
8210.00,1.40
8209.00,1.40
8208.00,1.39
8207.00,1.39
8206.00,1.39
8205.00,1.38
8204.00,1.38
8203.00,1.38
8202.00,1.37
8201.00,1.37
8200.00,1.37
8199.00,1.37
8198.00,1.36
8197.00,1.36
8196.00,1.37
8195.00,1.37
8194.00,1.37
8193.00,1.37
8192.00,1.38
8191.00,1.38
8190.00,1.39
8189.00,1.39
8188.00,1.39
8187.00,1.39
8186.00,1.39
8185.00,1.39
8184.00,1.39
8183.00,1.39
8182.00,1.39
8181.00,1.39
8180.00,1.39
8179.00,1.39
8178.00,1.39
8177.00,1.39
8176.00,1.39
8175.00,1.38
8174.00,1.38
8173.00,1.39
8172.00,1.39
8171.00,1.39
8170.00,1.40
8169.00,1.40
8168.00,1.41
8167.00,1.41
8166.00,1.42
8165.00,1.43
8164.00,1.43
8163.00,1.44
8162.00,1.44
8161.00,1.45
8160.00,1.45
8159.00,1.46
8158.00,1.46
8157.00,1.46
8156.00,1.47
8155.00,1.47
8154.00,1.47
8153.00,1.47
8152.00,1.47
8151.00,1.47
8150.00,1.47
8149.00,1.46
8148.00,1.46
8147.00,1.46
8146.00,1.45
8145.00,1.45
8144.00,1.45
8143.00,1.44
8142.00,1.44
8141.00,1.43
8140.00,1.43
8139.00,1.42
8138.00,1.41
8137.00,1.41
8136.00,1.40
8135.00,1.39
8134.00,1.39
8133.00,1.38
8132.00,1.38
8131.00,1.37
8130.00,1.37
8129.00,1.37
8128.00,1.37
8127.00,1.37
8126.00,1.37
8125.00,1.38
8124.00,1.38
8123.00,1.39
8122.00,1.39
8121.00,1.40
8120.00,1.40
8119.00,1.41
8118.00,1.42
8117.00,1.42
8116.00,1.43
8115.00,1.43
8114.00,1.44
8113.00,1.44
8112.00,1.45
8111.00,1.45
8110.00,1.45
8109.00,1.45
8108.00,1.45
8107.00,1.45
8106.00,1.45
8105.00,1.45
8104.00,1.45
8103.00,1.45
8102.00,1.45
8101.00,1.46
8100.00,1.46
8099.00,1.46
8098.00,1.46
8097.00,1.46
8096.00,1.46
8095.00,1.46
8094.00,1.46
8093.00,1.46
8092.00,1.46
8091.00,1.46
8090.00,1.46
8089.00,1.46
8088.00,1.45
8087.00,1.45
8086.00,1.45
8085.00,1.45
8084.00,1.45
8083.00,1.45
8082.00,1.45
8081.00,1.45
8080.00,1.45
8079.00,1.45
8078.00,1.45
8077.00,1.45
8076.00,1.45
8075.00,1.46
8074.00,1.46
8073.00,1.46
8072.00,1.46
8071.00,1.47
8070.00,1.47
8069.00,1.47
8068.00,1.48
8067.00,1.48
8066.00,1.48
8065.00,1.49
8064.00,1.49
8063.00,1.49
8062.00,1.50
8061.00,1.50
8060.00,1.51
8059.00,1.51
8058.00,1.52
8057.00,1.52
8056.00,1.52
8055.00,1.53
8054.00,1.53
8053.00,1.53
8052.00,1.53
8051.00,1.53
8050.00,1.53
8049.00,1.53
8048.00,1.53
8047.00,1.53
8046.00,1.53
8045.00,1.53
8044.00,1.53
8043.00,1.52
8042.00,1.52
8041.00,1.52
8040.00,1.52
8039.00,1.52
8038.00,1.52
8037.00,1.51
8036.00,1.51
8035.00,1.51
8034.00,1.51
8033.00,1.50
8032.00,1.50
8031.00,1.50
8030.00,1.49
8029.00,1.49
8028.00,1.48
8027.00,1.48
8026.00,1.47
8025.00,1.47
8024.00,1.46
8023.00,1.46
8022.00,1.46
8021.00,1.46
8020.00,1.45
8019.00,1.45
8018.00,1.45
8017.00,1.45
8016.00,1.46
8015.00,1.46
8014.00,1.46
8013.00,1.46
8012.00,1.46
8011.00,1.46
8010.00,1.46
8009.00,1.46
8008.00,1.47
8007.00,1.47
8006.00,1.47
8005.00,1.47
8004.00,1.47
8003.00,1.48
8002.00,1.48
8001.00,1.48
8000.00,1.48
7999.00,1.48
7998.00,1.49
7997.00,1.49
7996.00,1.49
7995.00,1.49
7994.00,1.50
7993.00,1.50
7992.00,1.51
7991.00,1.51
7990.00,1.51
7989.00,1.52
7988.00,1.52
7987.00,1.52
7986.00,1.53
7985.00,1.53
7984.00,1.53
7983.00,1.53
7982.00,1.53
7981.00,1.53
7980.00,1.53
7979.00,1.53
7978.00,1.53
7977.00,1.53
7976.00,1.53
7975.00,1.53
7974.00,1.52
7973.00,1.52
7972.00,1.52
7971.00,1.51
7970.00,1.51
7969.00,1.50
7968.00,1.50
7967.00,1.49
7966.00,1.49
7965.00,1.48
7964.00,1.48
7963.00,1.48
7962.00,1.48
7961.00,1.48
7960.00,1.48
7959.00,1.48
7958.00,1.49
7957.00,1.49
7956.00,1.49
7955.00,1.50
7954.00,1.51
7953.00,1.51
7952.00,1.52
7951.00,1.52
7950.00,1.53
7949.00,1.54
7948.00,1.54
7947.00,1.55
7946.00,1.55
7945.00,1.55
7944.00,1.55
7943.00,1.55
7942.00,1.55
7941.00,1.55
7940.00,1.55
7939.00,1.54
7938.00,1.54
7937.00,1.54
7936.00,1.53
7935.00,1.53
7934.00,1.53
7933.00,1.52
7932.00,1.52
7931.00,1.51
7930.00,1.51
7929.00,1.50
7928.00,1.50
7927.00,1.49
7926.00,1.49
7925.00,1.49
7924.00,1.48
7923.00,1.48
7922.00,1.47
7921.00,1.47
7920.00,1.47
7919.00,1.46
7918.00,1.46
7917.00,1.46
7916.00,1.46
7915.00,1.45
7914.00,1.45
7913.00,1.45
7912.00,1.45
7911.00,1.45
7910.00,1.45
7909.00,1.45
7908.00,1.46
7907.00,1.46
7906.00,1.46
7905.00,1.47
7904.00,1.47
7903.00,1.48
7902.00,1.49
7901.00,1.50
7900.00,1.50
7899.00,1.51
7898.00,1.52
7897.00,1.53
7896.00,1.54
7895.00,1.55
7894.00,1.56
7893.00,1.56
7892.00,1.57
7891.00,1.58
7890.00,1.58
7889.00,1.58
7888.00,1.59
7887.00,1.59
7886.00,1.59
7885.00,1.59
7884.00,1.59
7883.00,1.59
7882.00,1.59
7881.00,1.58
7880.00,1.58
7879.00,1.58
7878.00,1.58
7877.00,1.57
7876.00,1.57
7875.00,1.57
7874.00,1.57
7873.00,1.56
7872.00,1.56
7871.00,1.56
7870.00,1.55
7869.00,1.54
7868.00,1.54
7867.00,1.53
7866.00,1.52
7865.00,1.52
7864.00,1.51
7863.00,1.50
7862.00,1.49
7861.00,1.48
7860.00,1.47
7859.00,1.46
7858.00,1.45
7857.00,1.44
7856.00,1.43
7855.00,1.43
7854.00,1.42
7853.00,1.42
7852.00,1.42
7851.00,1.42
7850.00,1.42
7849.00,1.42
7848.00,1.42
7847.00,1.43
7846.00,1.43
7845.00,1.44
7844.00,1.45
7843.00,1.45
7842.00,1.46
7841.00,1.47
7840.00,1.48
7839.00,1.49
7838.00,1.50
7837.00,1.50
7836.00,1.51
7835.00,1.52
7834.00,1.52
7833.00,1.53
7832.00,1.53
7831.00,1.54
7830.00,1.54
7829.00,1.54
7828.00,1.54
7827.00,1.55
7826.00,1.55
7825.00,1.55
7824.00,1.55
7823.00,1.55
7822.00,1.55
7821.00,1.55
7820.00,1.54
7819.00,1.54
7818.00,1.54
7817.00,1.54
7816.00,1.54
7815.00,1.54
7814.00,1.54
7813.00,1.54
7812.00,1.54
7811.00,1.54
7810.00,1.54
7809.00,1.54
7808.00,1.54
7807.00,1.54
7806.00,1.54
7805.00,1.54
7804.00,1.54
7803.00,1.54
7802.00,1.54
7801.00,1.54
7800.00,1.54
7799.00,1.53
7798.00,1.53
7797.00,1.53
7796.00,1.53
7795.00,1.52
7794.00,1.52
7793.00,1.52
7792.00,1.51
7791.00,1.51
7790.00,1.51
7789.00,1.50
7788.00,1.50
7787.00,1.50
7786.00,1.50
7785.00,1.50
7784.00,1.50
7783.00,1.50
7782.00,1.50
7781.00,1.50
7780.00,1.50
7779.00,1.50
7778.00,1.51
7777.00,1.51
7776.00,1.51
7775.00,1.51
7774.00,1.52
7773.00,1.52
7772.00,1.52
7771.00,1.53
7770.00,1.53
7769.00,1.53
7768.00,1.53
7767.00,1.54
7766.00,1.54
7765.00,1.54
7764.00,1.54
7763.00,1.55
7762.00,1.55
7761.00,1.55
7760.00,1.55
7759.00,1.56
7758.00,1.56
7757.00,1.56
7756.00,1.57
7755.00,1.57
7754.00,1.57
7753.00,1.58
7752.00,1.58
7751.00,1.58
7750.00,1.58
7749.00,1.58
7748.00,1.58
7747.00,1.58
7746.00,1.58
7745.00,1.58
7744.00,1.57
7743.00,1.57
7742.00,1.57
7741.00,1.56
7740.00,1.56
7739.00,1.55
7738.00,1.55
7737.00,1.55
7736.00,1.54
7735.00,1.54
7734.00,1.54
7733.00,1.53
7732.00,1.53
7731.00,1.53
7730.00,1.53
7729.00,1.53
7728.00,1.53
7727.00,1.53
7726.00,1.53
7725.00,1.53
7724.00,1.53
7723.00,1.54
7722.00,1.54
7721.00,1.54
7720.00,1.54
7719.00,1.55
7718.00,1.55
7717.00,1.55
7716.00,1.55
7715.00,1.55
7714.00,1.55
7713.00,1.56
7712.00,1.56
7711.00,1.55
7710.00,1.55
7709.00,1.55
7708.00,1.55
7707.00,1.55
7706.00,1.55
7705.00,1.54
7704.00,1.54
7703.00,1.54
7702.00,1.54
7701.00,1.54
7700.00,1.54
7699.00,1.54
7698.00,1.53
7697.00,1.53
7696.00,1.53
7695.00,1.53
7694.00,1.53
7693.00,1.53
7692.00,1.53
7691.00,1.53
7690.00,1.53
7689.00,1.53
7688.00,1.53
7687.00,1.53
7686.00,1.53
7685.00,1.52
7684.00,1.52
7683.00,1.52
7682.00,1.52
7681.00,1.52
7680.00,1.52
7679.00,1.52
7678.00,1.52
7677.00,1.52
7676.00,1.52
7675.00,1.52
7674.00,1.51
7673.00,1.51
7672.00,1.51
7671.00,1.51
7670.00,1.51
7669.00,1.51
7668.00,1.51
7667.00,1.51
7666.00,1.51
7665.00,1.51
7664.00,1.51
7663.00,1.51
7662.00,1.51
7661.00,1.51
7660.00,1.51
7659.00,1.51
7658.00,1.52
7657.00,1.52
7656.00,1.52
7655.00,1.52
7654.00,1.53
7653.00,1.53
7652.00,1.53
7651.00,1.54
7650.00,1.54
7649.00,1.55
7648.00,1.55
7647.00,1.55
7646.00,1.56
7645.00,1.56
7644.00,1.57
7643.00,1.57
7642.00,1.57
7641.00,1.58
7640.00,1.58
7639.00,1.58
7638.00,1.59
7637.00,1.59
7636.00,1.59
7635.00,1.60
7634.00,1.60
7633.00,1.60
7632.00,1.60
7631.00,1.60
7630.00,1.60
7629.00,1.60
7628.00,1.60
7627.00,1.60
7626.00,1.60
7625.00,1.60
7624.00,1.60
7623.00,1.60
7622.00,1.60
7621.00,1.59
7620.00,1.59
7619.00,1.58
7618.00,1.58
7617.00,1.57
7616.00,1.57
7615.00,1.56
7614.00,1.56
7613.00,1.55
7612.00,1.55
7611.00,1.54
7610.00,1.54
7609.00,1.53
7608.00,1.53
7607.00,1.53
7606.00,1.52
7605.00,1.52
7604.00,1.52
7603.00,1.51
7602.00,1.51
7601.00,1.51
7600.00,1.51
7599.00,1.51
7598.00,1.51
7597.00,1.51
7596.00,1.51
7595.00,1.51
7594.00,1.51
7593.00,1.51
7592.00,1.51
7591.00,1.51
7590.00,1.51
7589.00,1.51
7588.00,1.51
7587.00,1.51
7586.00,1.50
7585.00,1.50
7584.00,1.50
7583.00,1.50
7582.00,1.50
7581.00,1.49
7580.00,1.49
7579.00,1.49
7578.00,1.49
7577.00,1.49
7576.00,1.49
7575.00,1.49
7574.00,1.49
7573.00,1.49
7572.00,1.49
7571.00,1.49
7570.00,1.50
7569.00,1.50
7568.00,1.50
7567.00,1.50
7566.00,1.51
7565.00,1.51
7564.00,1.51
7563.00,1.51
7562.00,1.51
7561.00,1.52
7560.00,1.52
7559.00,1.52
7558.00,1.52
7557.00,1.52
7556.00,1.52
7555.00,1.52
7554.00,1.52
7553.00,1.53
7552.00,1.53
7551.00,1.53
7550.00,1.53
7549.00,1.53
7548.00,1.53
7547.00,1.53
7546.00,1.53
7545.00,1.54
7544.00,1.54
7543.00,1.54
7542.00,1.55
7541.00,1.55
7540.00,1.55
7539.00,1.56
7538.00,1.56
7537.00,1.56
7536.00,1.56
7535.00,1.56
7534.00,1.56
7533.00,1.56
7532.00,1.56
7531.00,1.56
7530.00,1.56
7529.00,1.55
7528.00,1.55
7527.00,1.54
7526.00,1.54
7525.00,1.53
7524.00,1.52
7523.00,1.51
7522.00,1.50
7521.00,1.49
7520.00,1.49
7519.00,1.48
7518.00,1.47
7517.00,1.47
7516.00,1.46
7515.00,1.46
7514.00,1.46
7513.00,1.46
7512.00,1.46
7511.00,1.46
7510.00,1.46
7509.00,1.47
7508.00,1.47
7507.00,1.48
7506.00,1.48
7505.00,1.48
7504.00,1.49
7503.00,1.49
7502.00,1.50
7501.00,1.50
7500.00,1.50
7499.00,1.51
7498.00,1.51
7497.00,1.51
7496.00,1.51
7495.00,1.51
7494.00,1.51
7493.00,1.51
7492.00,1.51
7491.00,1.51
7490.00,1.51
7489.00,1.51
7488.00,1.51
7487.00,1.51
7486.00,1.51
7485.00,1.51
7484.00,1.51
7483.00,1.51
7482.00,1.51
7481.00,1.51
7480.00,1.51
7479.00,1.50
7478.00,1.50
7477.00,1.50
7476.00,1.50
7475.00,1.49
7474.00,1.49
7473.00,1.48
7472.00,1.48
7471.00,1.47
7470.00,1.47
7469.00,1.47
7468.00,1.46
7467.00,1.46
7466.00,1.46
7465.00,1.46
7464.00,1.46
7463.00,1.46
7462.00,1.46
7461.00,1.47
7460.00,1.47
7459.00,1.47
7458.00,1.47
7457.00,1.47
7456.00,1.47
7455.00,1.47
7454.00,1.47
7453.00,1.48
7452.00,1.47
7451.00,1.47
7450.00,1.47
7449.00,1.47
7448.00,1.47
7447.00,1.46
7446.00,1.46
7445.00,1.46
7444.00,1.45
7443.00,1.45
7442.00,1.45
7441.00,1.45
7440.00,1.45
7439.00,1.45
7438.00,1.45
7437.00,1.45
7436.00,1.45
7435.00,1.45
7434.00,1.45
7433.00,1.46
7432.00,1.46
7431.00,1.46
7430.00,1.47
7429.00,1.47
7428.00,1.48
7427.00,1.48
7426.00,1.48
7425.00,1.48
7424.00,1.48
7423.00,1.48
7422.00,1.48
7421.00,1.48
7420.00,1.47
7419.00,1.47
7418.00,1.47
7417.00,1.46
7416.00,1.46
7415.00,1.46
7414.00,1.45
7413.00,1.45
7412.00,1.45
7411.00,1.45
7410.00,1.45
7409.00,1.45
7408.00,1.45
7407.00,1.45
7406.00,1.46
7405.00,1.46
7404.00,1.47
7403.00,1.47
7402.00,1.48
7401.00,1.48
7400.00,1.49
7399.00,1.49
7398.00,1.50
7397.00,1.50
7396.00,1.51
7395.00,1.51
7394.00,1.51
7393.00,1.51
7392.00,1.52
7391.00,1.51
7390.00,1.51
7389.00,1.51
7388.00,1.51
7387.00,1.50
7386.00,1.50
7385.00,1.49
7384.00,1.49
7383.00,1.48
7382.00,1.47
7381.00,1.47
7380.00,1.46
7379.00,1.45
7378.00,1.45
7377.00,1.44
7376.00,1.43
7375.00,1.43
7374.00,1.42
7373.00,1.41
7372.00,1.41
7371.00,1.41
7370.00,1.40
7369.00,1.40
7368.00,1.40
7367.00,1.40
7366.00,1.40
7365.00,1.40
7364.00,1.40
7363.00,1.40
7362.00,1.41
7361.00,1.41
7360.00,1.41
7359.00,1.42
7358.00,1.42
7357.00,1.43
7356.00,1.43
7355.00,1.43
7354.00,1.44
7353.00,1.44
7352.00,1.44
7351.00,1.44
7350.00,1.44
7349.00,1.44
7348.00,1.44
7347.00,1.44
7346.00,1.44
7345.00,1.44
7344.00,1.44
7343.00,1.44
7342.00,1.44
7341.00,1.44
7340.00,1.44
7339.00,1.43
7338.00,1.43
7337.00,1.43
7336.00,1.42
7335.00,1.42
7334.00,1.42
7333.00,1.42
7332.00,1.41
7331.00,1.41
7330.00,1.41
7329.00,1.41
7328.00,1.40
7327.00,1.40
7326.00,1.40
7325.00,1.40
7324.00,1.40
7323.00,1.40
7322.00,1.40
7321.00,1.40
7320.00,1.40
7319.00,1.41
7318.00,1.41
7317.00,1.41
7316.00,1.41
7315.00,1.41
7314.00,1.41
7313.00,1.40
7312.00,1.40
7311.00,1.40
7310.00,1.40
7309.00,1.40
7308.00,1.40
7307.00,1.39
7306.00,1.39
7305.00,1.39
7304.00,1.39
7303.00,1.38
7302.00,1.38
7301.00,1.38
7300.00,1.38
7299.00,1.38
7298.00,1.38
7297.00,1.38
7296.00,1.38
7295.00,1.38
7294.00,1.38
7293.00,1.38
7292.00,1.38
7291.00,1.38
7290.00,1.38
7289.00,1.38
7288.00,1.38
7287.00,1.38
7286.00,1.38
7285.00,1.38
7284.00,1.38
7283.00,1.38
7282.00,1.37
7281.00,1.37
7280.00,1.36
7279.00,1.36
7278.00,1.36
7277.00,1.35
7276.00,1.35
7275.00,1.35
7274.00,1.34
7273.00,1.34
7272.00,1.34
7271.00,1.33
7270.00,1.33
7269.00,1.33
7268.00,1.33
7267.00,1.33
7266.00,1.33
7265.00,1.33
7264.00,1.33
7263.00,1.33
7262.00,1.33
7261.00,1.33
7260.00,1.33
7259.00,1.33
7258.00,1.32
7257.00,1.32
7256.00,1.32
7255.00,1.32
7254.00,1.31
7253.00,1.31
7252.00,1.30
7251.00,1.30
7250.00,1.29
7249.00,1.29
7248.00,1.29
7247.00,1.28
7246.00,1.28
7245.00,1.27
7244.00,1.27
7243.00,1.27
7242.00,1.27
7241.00,1.27
7240.00,1.27
7239.00,1.27
7238.00,1.27
7237.00,1.27
7236.00,1.26
7235.00,1.26
7234.00,1.26
7233.00,1.25
7232.00,1.25
7231.00,1.25
7230.00,1.24
7229.00,1.24
7228.00,1.23
7227.00,1.23
7226.00,1.22
7225.00,1.21
7224.00,1.21
7223.00,1.20
7222.00,1.19
7221.00,1.19
7220.00,1.18
7219.00,1.17
7218.00,1.17
7217.00,1.16
7216.00,1.16
7215.00,1.15
7214.00,1.15
7213.00,1.15
7212.00,1.14
7211.00,1.14
7210.00,1.13
7209.00,1.13
7208.00,1.13
7207.00,1.13
7206.00,1.12
7205.00,1.12
7204.00,1.12
7203.00,1.12
7202.00,1.12
7201.00,1.11
7200.00,1.11
7199.00,1.11
7198.00,1.11
7197.00,1.11
7196.00,1.10
7195.00,1.10
7194.00,1.09
7193.00,1.09
7192.00,1.08
7191.00,1.07
7190.00,1.07
7189.00,1.06
7188.00,1.05
7187.00,1.05
7186.00,1.04
7185.00,1.04
7184.00,1.03
7183.00,1.03
7182.00,1.02
7181.00,1.02
7180.00,1.02
7179.00,1.02
7178.00,1.02
7177.00,1.02
7176.00,1.02
7175.00,1.02
7174.00,1.02
7173.00,1.03
7172.00,1.03
7171.00,1.03
7170.00,1.03
7169.00,1.03
7168.00,1.04
7167.00,1.04
7166.00,1.04
7165.00,1.04
7164.00,1.04
7163.00,1.04
7162.00,1.03
7161.00,1.03
7160.00,1.03
7159.00,1.02
7158.00,1.01
7157.00,1.01
7156.00,1.00
7155.00,1.00
7154.00,0.99
7153.00,0.99
7152.00,0.98
7151.00,0.98
7150.00,0.97
7149.00,0.97
7148.00,0.96
7147.00,0.96
7146.00,0.96
7145.00,0.96
7144.00,0.96
7143.00,0.96
7142.00,0.96
7141.00,0.96
7140.00,0.96
7139.00,0.96
7138.00,0.96
7137.00,0.96
7136.00,0.96
7135.00,0.96
7134.00,0.96
7133.00,0.96
7132.00,0.95
7131.00,0.95
7130.00,0.94
7129.00,0.94
7128.00,0.93
7127.00,0.93
7126.00,0.92
7125.00,0.91
7124.00,0.91
7123.00,0.90
7122.00,0.89
7121.00,0.89
7120.00,0.88
7119.00,0.87
7118.00,0.87
7117.00,0.86
7116.00,0.86
7115.00,0.85
7114.00,0.85
7113.00,0.84
7112.00,0.84
7111.00,0.83
7110.00,0.83
7109.00,0.82
7108.00,0.82
7107.00,0.82
7106.00,0.81
7105.00,0.81
7104.00,0.81
7103.00,0.80
7102.00,0.80
7101.00,0.80
7100.00,0.80
7099.00,0.79
7098.00,0.79
7097.00,0.79
7096.00,0.79
7095.00,0.79
7094.00,0.79
7093.00,0.79
7092.00,0.79
7091.00,0.78
7090.00,0.78
7089.00,0.78
7088.00,0.78
7087.00,0.78
7086.00,0.78
7085.00,0.78
7084.00,0.78
7083.00,0.78
7082.00,0.78
7081.00,0.78
7080.00,0.78
7079.00,0.78
7078.00,0.78
7077.00,0.77
7076.00,0.77
7075.00,0.77
7074.00,0.77
7073.00,0.77
7072.00,0.76
7071.00,0.76
7070.00,0.76
7069.00,0.76
7068.00,0.76
7067.00,0.75
7066.00,0.75
7065.00,0.75
7064.00,0.75
7063.00,0.75
7062.00,0.75
7061.00,0.74
7060.00,0.74
7059.00,0.74
7058.00,0.74
7057.00,0.74
7056.00,0.74
7055.00,0.74
7054.00,0.74
7053.00,0.74
7052.00,0.75
7051.00,0.75
7050.00,0.75
7049.00,0.75
7048.00,0.75
7047.00,0.75
7046.00,0.75
7045.00,0.75
7044.00,0.75
7043.00,0.75
7042.00,0.75
7041.00,0.74
7040.00,0.74
7039.00,0.74
7038.00,0.74
7037.00,0.74
7036.00,0.73
7035.00,0.73
7034.00,0.73
7033.00,0.72
7032.00,0.72
7031.00,0.72
7030.00,0.72
7029.00,0.72
7028.00,0.72
7027.00,0.72
7026.00,0.72
7025.00,0.73
7024.00,0.73
7023.00,0.73
7022.00,0.74
7021.00,0.74
7020.00,0.74
7019.00,0.75
7018.00,0.75
7017.00,0.75
7016.00,0.76
7015.00,0.76
7014.00,0.76
7013.00,0.76
7012.00,0.76
7011.00,0.76
7010.00,0.75
7009.00,0.75
7008.00,0.74
7007.00,0.74
7006.00,0.73
7005.00,0.72
7004.00,0.72
7003.00,0.71
7002.00,0.70
7001.00,0.70
7000.00,0.69
6999.00,0.68
6998.00,0.68
6997.00,0.67
6996.00,0.67
6995.00,0.67
6994.00,0.66
6993.00,0.66
6992.00,0.66
6991.00,0.66
6990.00,0.66
6989.00,0.66
6988.00,0.66
6987.00,0.66
6986.00,0.66
6985.00,0.66
6984.00,0.66
6983.00,0.66
6982.00,0.66
6981.00,0.66
6980.00,0.66
6979.00,0.66
6978.00,0.66
6977.00,0.66
6976.00,0.66
6975.00,0.67
6974.00,0.67
6973.00,0.67
6972.00,0.67
6971.00,0.67
6970.00,0.67
6969.00,0.68
6968.00,0.68
6967.00,0.68
6966.00,0.68
6965.00,0.69
6964.00,0.69
6963.00,0.69
6962.00,0.70
6961.00,0.70
6960.00,0.70
6959.00,0.71
6958.00,0.71
6957.00,0.72
6956.00,0.72
6955.00,0.72
6954.00,0.72
6953.00,0.73
6952.00,0.73
6951.00,0.73
6950.00,0.73
6949.00,0.73
6948.00,0.73
6947.00,0.73
6946.00,0.73
6945.00,0.73
6944.00,0.73
6943.00,0.72
6942.00,0.72
6941.00,0.72
6940.00,0.71
6939.00,0.71
6938.00,0.71
6937.00,0.70
6936.00,0.70
6935.00,0.70
6934.00,0.69
6933.00,0.69
6932.00,0.68
6931.00,0.68
6930.00,0.68
6929.00,0.67
6928.00,0.67
6927.00,0.67
6926.00,0.67
6925.00,0.66
6924.00,0.66
6923.00,0.66
6922.00,0.66
6921.00,0.66
6920.00,0.66
6919.00,0.66
6918.00,0.66
6917.00,0.66
6916.00,0.66
6915.00,0.66
6914.00,0.66
6913.00,0.66
6912.00,0.66
6911.00,0.67
6910.00,0.67
6909.00,0.67
6908.00,0.68
6907.00,0.68
6906.00,0.68
6905.00,0.69
6904.00,0.69
6903.00,0.69
6902.00,0.69
6901.00,0.70
6900.00,0.70
6899.00,0.70
6898.00,0.70
6897.00,0.69
6896.00,0.69
6895.00,0.69
6894.00,0.69
6893.00,0.69
6892.00,0.68
6891.00,0.68
6890.00,0.68
6889.00,0.68
6888.00,0.67
6887.00,0.67
6886.00,0.67
6885.00,0.67
6884.00,0.67
6883.00,0.66
6882.00,0.66
6881.00,0.66
6880.00,0.66
6879.00,0.65
6878.00,0.65
6877.00,0.65
6876.00,0.65
6875.00,0.65
6874.00,0.64
6873.00,0.64
6872.00,0.64
6871.00,0.64
6870.00,0.64
6869.00,0.64
6868.00,0.64
6867.00,0.64
6866.00,0.64
6865.00,0.65
6864.00,0.65
6863.00,0.65
6862.00,0.65
6861.00,0.66
6860.00,0.66
6859.00,0.66
6858.00,0.66
6857.00,0.66
6856.00,0.67
6855.00,0.67
6854.00,0.66
6853.00,0.66
6852.00,0.66
6851.00,0.66
6850.00,0.66
6849.00,0.66
6848.00,0.66
6847.00,0.66
6846.00,0.66
6845.00,0.66
6844.00,0.66
6843.00,0.65
6842.00,0.65
6841.00,0.65
6840.00,0.65
6839.00,0.65
6838.00,0.65
6837.00,0.65
6836.00,0.64
6835.00,0.64
6834.00,0.64
6833.00,0.64
6832.00,0.64
6831.00,0.63
6830.00,0.63
6829.00,0.63
6828.00,0.63
6827.00,0.63
6826.00,0.63
6825.00,0.63
6824.00,0.63
6823.00,0.63
6822.00,0.63
6821.00,0.64
6820.00,0.64
6819.00,0.64
6818.00,0.65
6817.00,0.65
6816.00,0.66
6815.00,0.66
6814.00,0.66
6813.00,0.67
6812.00,0.67
6811.00,0.67
6810.00,0.68
6809.00,0.68
6808.00,0.68
6807.00,0.68
6806.00,0.69
6805.00,0.69
6804.00,0.69
6803.00,0.70
6802.00,0.70
6801.00,0.70
6800.00,0.70
6799.00,0.71
6798.00,0.71
6797.00,0.71
6796.00,0.71
6795.00,0.71
6794.00,0.71
6793.00,0.71
6792.00,0.71
6791.00,0.71
6790.00,0.71
6789.00,0.70
6788.00,0.70
6787.00,0.70
6786.00,0.70
6785.00,0.69
6784.00,0.69
6783.00,0.69
6782.00,0.69
6781.00,0.69
6780.00,0.69
6779.00,0.68
6778.00,0.68
6777.00,0.68
6776.00,0.68
6775.00,0.68
6774.00,0.68
6773.00,0.68
6772.00,0.68
6771.00,0.68
6770.00,0.68
6769.00,0.68
6768.00,0.68
6767.00,0.68
6766.00,0.67
6765.00,0.67
6764.00,0.67
6763.00,0.67
6762.00,0.67
6761.00,0.67
6760.00,0.67
6759.00,0.68
6758.00,0.68
6757.00,0.68
6756.00,0.68
6755.00,0.68
6754.00,0.68
6753.00,0.69
6752.00,0.69
6751.00,0.69
6750.00,0.70
6749.00,0.70
6748.00,0.71
6747.00,0.71
6746.00,0.71
6745.00,0.71
6744.00,0.71
6743.00,0.71
6742.00,0.72
6741.00,0.72
6740.00,0.72
6739.00,0.72
6738.00,0.71
6737.00,0.71
6736.00,0.71
6735.00,0.71
6734.00,0.71
6733.00,0.71
6732.00,0.71
6731.00,0.71
6730.00,0.71
6729.00,0.71
6728.00,0.71
6727.00,0.72
6726.00,0.72
6725.00,0.72
6724.00,0.73
6723.00,0.73
6722.00,0.73
6721.00,0.74
6720.00,0.74
6719.00,0.75
6718.00,0.75
6717.00,0.75
6716.00,0.76
6715.00,0.76
6714.00,0.76
6713.00,0.76
6712.00,0.76
6711.00,0.76
6710.00,0.76
6709.00,0.76
6708.00,0.76
6707.00,0.76
6706.00,0.76
6705.00,0.75
6704.00,0.75
6703.00,0.75
6702.00,0.75
6701.00,0.74
6700.00,0.74
6699.00,0.74
6698.00,0.74
6697.00,0.74
6696.00,0.74
6695.00,0.75
6694.00,0.75
6693.00,0.75
6692.00,0.75
6691.00,0.76
6690.00,0.76
6689.00,0.77
6688.00,0.77
6687.00,0.77
6686.00,0.78
6685.00,0.78
6684.00,0.79
6683.00,0.79
6682.00,0.79
6681.00,0.79
6680.00,0.80
6679.00,0.80
6678.00,0.80
6677.00,0.80
6676.00,0.80
6675.00,0.80
6674.00,0.79
6673.00,0.79
6672.00,0.79
6671.00,0.79
6670.00,0.78
6669.00,0.78
6668.00,0.78
6667.00,0.78
6666.00,0.78
6665.00,0.78
6664.00,0.78
6663.00,0.78
6662.00,0.78
6661.00,0.79
6660.00,0.79
6659.00,0.79
6658.00,0.80
6657.00,0.80
6656.00,0.80
6655.00,0.81
6654.00,0.81
6653.00,0.82
6652.00,0.82
6651.00,0.83
6650.00,0.83
6649.00,0.83
6648.00,0.83
6647.00,0.84
6646.00,0.84
6645.00,0.84
6644.00,0.84
6643.00,0.84
6642.00,0.83
6641.00,0.83
6640.00,0.83
6639.00,0.83
6638.00,0.83
6637.00,0.83
6636.00,0.82
6635.00,0.82
6634.00,0.82
6633.00,0.82
6632.00,0.81
6631.00,0.81
6630.00,0.81
6629.00,0.81
6628.00,0.81
6627.00,0.81
6626.00,0.81
6625.00,0.81
6624.00,0.81
6623.00,0.81
6622.00,0.81
6621.00,0.82
6620.00,0.82
6619.00,0.82
6618.00,0.83
6617.00,0.83
6616.00,0.83
6615.00,0.84
6614.00,0.84
6613.00,0.84
6612.00,0.85
6611.00,0.85
6610.00,0.85
6609.00,0.85
6608.00,0.85
6607.00,0.85
6606.00,0.85
6605.00,0.85
6604.00,0.85
6603.00,0.85
6602.00,0.84
6601.00,0.84
6600.00,0.84
6599.00,0.84
6598.00,0.84
6597.00,0.84
6596.00,0.84
6595.00,0.84
6594.00,0.84
6593.00,0.84
6592.00,0.84
6591.00,0.85
6590.00,0.85
6589.00,0.85
6588.00,0.86
6587.00,0.86
6586.00,0.86
6585.00,0.87
6584.00,0.87
6583.00,0.87
6582.00,0.88
6581.00,0.88
6580.00,0.88
6579.00,0.88
6578.00,0.88
6577.00,0.88
6576.00,0.88
6575.00,0.88
6574.00,0.88
6573.00,0.88
6572.00,0.88
6571.00,0.88
6570.00,0.89
6569.00,0.89
6568.00,0.89
6567.00,0.89
6566.00,0.89
6565.00,0.89
6564.00,0.89
6563.00,0.89
6562.00,0.89
6561.00,0.90
6560.00,0.90
6559.00,0.90
6558.00,0.91
6557.00,0.91
6556.00,0.91
6555.00,0.92
6554.00,0.92
6553.00,0.92
6552.00,0.93
6551.00,0.93
6550.00,0.93
6549.00,0.93
6548.00,0.94
6547.00,0.94
6546.00,0.94
6545.00,0.94
6544.00,0.94
6543.00,0.94
6542.00,0.94
6541.00,0.94
6540.00,0.94
6539.00,0.94
6538.00,0.94
6537.00,0.94
6536.00,0.93
6535.00,0.93
6534.00,0.93
6533.00,0.93
6532.00,0.93
6531.00,0.93
6530.00,0.93
6529.00,0.93
6528.00,0.93
6527.00,0.93
6526.00,0.93
6525.00,0.93
6524.00,0.93
6523.00,0.93
6522.00,0.94
6521.00,0.94
6520.00,0.95
6519.00,0.95
6518.00,0.96
6517.00,0.96
6516.00,0.97
6515.00,0.97
6514.00,0.98
6513.00,0.98
6512.00,0.98
6511.00,0.99
6510.00,0.99
6509.00,1.00
6508.00,1.00
6507.00,1.00
6506.00,1.00
6505.00,1.00
6504.00,1.00
6503.00,1.00
6502.00,1.00
6501.00,0.99
6500.00,0.99
6499.00,0.99
6498.00,0.99
6497.00,0.98
6496.00,0.98
6495.00,0.98
6494.00,0.98
6493.00,0.98
6492.00,0.98
6491.00,0.97
6490.00,0.97
6489.00,0.97
6488.00,0.97
6487.00,0.98
6486.00,0.98
6485.00,0.98
6484.00,0.98
6483.00,0.98
6482.00,0.98
6481.00,0.98
6480.00,0.99
6479.00,0.99
6478.00,0.99
6477.00,0.99
6476.00,1.00
6475.00,1.00
6474.00,1.00
6473.00,1.00
6472.00,1.00
6471.00,1.01
6470.00,1.01
6469.00,1.01
6468.00,1.02
6467.00,1.02
6466.00,1.02
6465.00,1.02
6464.00,1.03
6463.00,1.03
6462.00,1.03
6461.00,1.04
6460.00,1.04
6459.00,1.04
6458.00,1.04
6457.00,1.05
6456.00,1.05
6455.00,1.05
6454.00,1.05
6453.00,1.05
6452.00,1.05
6451.00,1.05
6450.00,1.04
6449.00,1.04
6448.00,1.04
6447.00,1.04
6446.00,1.03
6445.00,1.03
6444.00,1.03
6443.00,1.03
6442.00,1.02
6441.00,1.02
6440.00,1.02
6439.00,1.02
6438.00,1.02
6437.00,1.02
6436.00,1.02
6435.00,1.02
6434.00,1.02
6433.00,1.03
6432.00,1.03
6431.00,1.03
6430.00,1.03
6429.00,1.04
6428.00,1.04
6427.00,1.04
6426.00,1.04
6425.00,1.04
6424.00,1.04
6423.00,1.04
6422.00,1.04
6421.00,1.04
6420.00,1.04
6419.00,1.04
6418.00,1.04
6417.00,1.04
6416.00,1.04
6415.00,1.04
6414.00,1.03
6413.00,1.03
6412.00,1.03
6411.00,1.03
6410.00,1.03
6409.00,1.03
6408.00,1.03
6407.00,1.02
6406.00,1.02
6405.00,1.02
6404.00,1.02
6403.00,1.02
6402.00,1.02
6401.00,1.02
6400.00,1.02
6399.00,1.02
6398.00,1.02
6397.00,1.02
6396.00,1.02
6395.00,1.02
6394.00,1.02
6393.00,1.02
6392.00,1.02
6391.00,1.03
6390.00,1.03
6389.00,1.03
6388.00,1.03
6387.00,1.03
6386.00,1.03
6385.00,1.03
6384.00,1.03
6383.00,1.03
6382.00,1.03
6381.00,1.04
6380.00,1.04
6379.00,1.04
6378.00,1.04
6377.00,1.04
6376.00,1.05
6375.00,1.05
6374.00,1.05
6373.00,1.06
6372.00,1.06
6371.00,1.07
6370.00,1.07
6369.00,1.07
6368.00,1.08
6367.00,1.08
6366.00,1.09
6365.00,1.09
6364.00,1.09
6363.00,1.09
6362.00,1.10
6361.00,1.10
6360.00,1.10
6359.00,1.10
6358.00,1.10
6357.00,1.10
6356.00,1.11
6355.00,1.11
6354.00,1.11
6353.00,1.10
6352.00,1.10
6351.00,1.10
6350.00,1.10
6349.00,1.10
6348.00,1.10
6347.00,1.10
6346.00,1.10
6345.00,1.10
6344.00,1.10
6343.00,1.10
6342.00,1.10
6341.00,1.10
6340.00,1.10
6339.00,1.09
6338.00,1.09
6337.00,1.09
6336.00,1.09
6335.00,1.09
6334.00,1.09
6333.00,1.09
6332.00,1.09
6331.00,1.09
6330.00,1.08
6329.00,1.08
6328.00,1.08
6327.00,1.07
6326.00,1.07
6325.00,1.07
6324.00,1.07
6323.00,1.07
6322.00,1.07
6321.00,1.07
6320.00,1.07
6319.00,1.07
6318.00,1.07
6317.00,1.08
6316.00,1.08
6315.00,1.08
6314.00,1.09
6313.00,1.10
6312.00,1.10
6311.00,1.11
6310.00,1.12
6309.00,1.12
6308.00,1.13
6307.00,1.13
6306.00,1.14
6305.00,1.14
6304.00,1.14
6303.00,1.15
6302.00,1.15
6301.00,1.15
6300.00,1.15
6299.00,1.15
6298.00,1.15
6297.00,1.14
6296.00,1.14
6295.00,1.14
6294.00,1.14
6293.00,1.14
6292.00,1.14
6291.00,1.13
6290.00,1.13
6289.00,1.13
6288.00,1.13
6287.00,1.13
6286.00,1.14
6285.00,1.14
6284.00,1.14
6283.00,1.14
6282.00,1.15
6281.00,1.15
6280.00,1.16
6279.00,1.16
6278.00,1.17
6277.00,1.17
6276.00,1.18
6275.00,1.18
6274.00,1.19
6273.00,1.19
6272.00,1.20
6271.00,1.20
6270.00,1.20
6269.00,1.21
6268.00,1.21
6267.00,1.21
6266.00,1.22
6265.00,1.22
6264.00,1.22
6263.00,1.22
6262.00,1.21
6261.00,1.21
6260.00,1.21
6259.00,1.21
6258.00,1.20
6257.00,1.20
6256.00,1.20
6255.00,1.19
6254.00,1.19
6253.00,1.19
6252.00,1.18
6251.00,1.18
6250.00,1.18
6249.00,1.18
6248.00,1.18
6247.00,1.18
6246.00,1.18
6245.00,1.18
6244.00,1.18
6243.00,1.19
6242.00,1.19
6241.00,1.19
6240.00,1.20
6239.00,1.20
6238.00,1.21
6237.00,1.21
6236.00,1.22
6235.00,1.22
6234.00,1.23
6233.00,1.23
6232.00,1.24
6231.00,1.24
6230.00,1.24
6229.00,1.25
6228.00,1.25
6227.00,1.25
6226.00,1.26
6225.00,1.26
6224.00,1.26
6223.00,1.26
6222.00,1.26
6221.00,1.26
6220.00,1.26
6219.00,1.26
6218.00,1.26
6217.00,1.27
6216.00,1.27
6215.00,1.27
6214.00,1.27
6213.00,1.27
6212.00,1.27
6211.00,1.28
6210.00,1.28
6209.00,1.28
6208.00,1.28
6207.00,1.28
6206.00,1.29
6205.00,1.29
6204.00,1.29
6203.00,1.29
6202.00,1.29
6201.00,1.29
6200.00,1.29
6199.00,1.28
6198.00,1.28
6197.00,1.28
6196.00,1.28
6195.00,1.28
6194.00,1.27
6193.00,1.27
6192.00,1.27
6191.00,1.27
6190.00,1.27
6189.00,1.27
6188.00,1.27
6187.00,1.27
6186.00,1.26
6185.00,1.26
6184.00,1.26
6183.00,1.26
6182.00,1.26
6181.00,1.26
6180.00,1.26
6179.00,1.26
6178.00,1.26
6177.00,1.26
6176.00,1.27
6175.00,1.27
6174.00,1.27
6173.00,1.27
6172.00,1.28
6171.00,1.28
6170.00,1.29
6169.00,1.29
6168.00,1.30
6167.00,1.30
6166.00,1.31
6165.00,1.31
6164.00,1.32
6163.00,1.33
6162.00,1.33
6161.00,1.34
6160.00,1.34
6159.00,1.34
6158.00,1.35
6157.00,1.35
6156.00,1.35
6155.00,1.35
6154.00,1.35
6153.00,1.36
6152.00,1.36
6151.00,1.36
6150.00,1.36
6149.00,1.35
6148.00,1.35
6147.00,1.35
6146.00,1.35
6145.00,1.35
6144.00,1.35
6143.00,1.35
6142.00,1.35
6141.00,1.35
6140.00,1.35
6139.00,1.35
6138.00,1.35
6137.00,1.35
6136.00,1.35
6135.00,1.35
6134.00,1.35
6133.00,1.35
6132.00,1.36
6131.00,1.36
6130.00,1.36
6129.00,1.36
6128.00,1.36
6127.00,1.37
6126.00,1.37
6125.00,1.37
6124.00,1.37
6123.00,1.38
6122.00,1.38
6121.00,1.38
6120.00,1.38
6119.00,1.38
6118.00,1.39
6117.00,1.39
6116.00,1.39
6115.00,1.39
6114.00,1.39
6113.00,1.39
6112.00,1.39
6111.00,1.39
6110.00,1.39
6109.00,1.39
6108.00,1.39
6107.00,1.40
6106.00,1.40
6105.00,1.40
6104.00,1.40
6103.00,1.40
6102.00,1.40
6101.00,1.41
6100.00,1.41
6099.00,1.41
6098.00,1.42
6097.00,1.42
6096.00,1.43
6095.00,1.43
6094.00,1.43
6093.00,1.44
6092.00,1.44
6091.00,1.44
6090.00,1.44
6089.00,1.44
6088.00,1.44
6087.00,1.44
6086.00,1.44
6085.00,1.44
6084.00,1.44
6083.00,1.44
6082.00,1.44
6081.00,1.43
6080.00,1.43
6079.00,1.43
6078.00,1.42
6077.00,1.42
6076.00,1.42
6075.00,1.42
6074.00,1.42
6073.00,1.42
6072.00,1.43
6071.00,1.43
6070.00,1.43
6069.00,1.44
6068.00,1.44
6067.00,1.44
6066.00,1.45
6065.00,1.45
6064.00,1.46
6063.00,1.46
6062.00,1.46
6061.00,1.46
6060.00,1.46
6059.00,1.47
6058.00,1.47
6057.00,1.47
6056.00,1.46
6055.00,1.46
6054.00,1.46
6053.00,1.46
6052.00,1.46
6051.00,1.46
6050.00,1.46
6049.00,1.46
6048.00,1.46
6047.00,1.46
6046.00,1.46
6045.00,1.46
6044.00,1.46
6043.00,1.47
6042.00,1.47
6041.00,1.47
6040.00,1.48
6039.00,1.48
6038.00,1.48
6037.00,1.48
6036.00,1.49
6035.00,1.49
6034.00,1.49
6033.00,1.49
6032.00,1.49
6031.00,1.49
6030.00,1.49
6029.00,1.49
6028.00,1.48
6027.00,1.48
6026.00,1.48
6025.00,1.48
6024.00,1.48
6023.00,1.48
6022.00,1.48
6021.00,1.48
6020.00,1.48
6019.00,1.48
6018.00,1.48
6017.00,1.49
6016.00,1.49
6015.00,1.49
6014.00,1.50
6013.00,1.50
6012.00,1.50
6011.00,1.51
6010.00,1.51
6009.00,1.51
6008.00,1.51
6007.00,1.52
6006.00,1.52
6005.00,1.52
6004.00,1.52
6003.00,1.52
6002.00,1.52
6001.00,1.52
6000.00,1.52
5999.00,1.52
5998.00,1.51
5997.00,1.51
5996.00,1.51
5995.00,1.51
5994.00,1.50
5993.00,1.50
5992.00,1.50
5991.00,1.50
5990.00,1.49
5989.00,1.49
5988.00,1.48
5987.00,1.48
5986.00,1.48
5985.00,1.47
5984.00,1.47
5983.00,1.46
5982.00,1.46
5981.00,1.45
5980.00,1.45
5979.00,1.44
5978.00,1.44
5977.00,1.43
5976.00,1.43
5975.00,1.42
5974.00,1.41
5973.00,1.41
5972.00,1.40
5971.00,1.40
5970.00,1.39
5969.00,1.39
5968.00,1.38
5967.00,1.38
5966.00,1.37
5965.00,1.37
5964.00,1.36
5963.00,1.36
5962.00,1.35
5961.00,1.34
5960.00,1.34
5959.00,1.33
5958.00,1.33
5957.00,1.32
5956.00,1.31
5955.00,1.31
5954.00,1.30
5953.00,1.29
5952.00,1.29
5951.00,1.28
5950.00,1.28
5949.00,1.27
5948.00,1.26
5947.00,1.26
5946.00,1.25
5945.00,1.25
5944.00,1.24
5943.00,1.24
5942.00,1.24
5941.00,1.23
5940.00,1.23
5939.00,1.23
5938.00,1.23
5937.00,1.22
5936.00,1.22
5935.00,1.22
5934.00,1.22
5933.00,1.22
5932.00,1.21
5931.00,1.21
5930.00,1.21
5929.00,1.21
5928.00,1.21
5927.00,1.21
5926.00,1.20
5925.00,1.20
5924.00,1.20
5923.00,1.20
5922.00,1.20
5921.00,1.20
5920.00,1.20
5919.00,1.19
5918.00,1.19
5917.00,1.19
5916.00,1.19
5915.00,1.19
5914.00,1.19
5913.00,1.19
5912.00,1.19
5911.00,1.19
5910.00,1.19
5909.00,1.19
5908.00,1.20
5907.00,1.20
5906.00,1.20
5905.00,1.20
5904.00,1.20
5903.00,1.20
5902.00,1.20
5901.00,1.20
5900.00,1.20
5899.00,1.20
5898.00,1.20
5897.00,1.20
5896.00,1.20
5895.00,1.20
5894.00,1.20
5893.00,1.21
5892.00,1.21
5891.00,1.21
5890.00,1.21
5889.00,1.21
5888.00,1.21
5887.00,1.21
5886.00,1.21
5885.00,1.21
5884.00,1.21
5883.00,1.21
5882.00,1.22
5881.00,1.22
5880.00,1.22
5879.00,1.22
5878.00,1.22
5877.00,1.23
5876.00,1.23
5875.00,1.23
5874.00,1.24
5873.00,1.24
5872.00,1.24
5871.00,1.25
5870.00,1.25
5869.00,1.25
5868.00,1.26
5867.00,1.26
5866.00,1.26
5865.00,1.27
5864.00,1.27
5863.00,1.27
5862.00,1.27
5861.00,1.27
5860.00,1.27
5859.00,1.27
5858.00,1.27
5857.00,1.27
5856.00,1.27
5855.00,1.27
5854.00,1.27
5853.00,1.27
5852.00,1.26
5851.00,1.26
5850.00,1.26
5849.00,1.26
5848.00,1.26
5847.00,1.26
5846.00,1.26
5845.00,1.26
5844.00,1.26
5843.00,1.26
5842.00,1.26
5841.00,1.26
5840.00,1.26
5839.00,1.27
5838.00,1.27
5837.00,1.27
5836.00,1.27
5835.00,1.27
5834.00,1.27
5833.00,1.27
5832.00,1.27
5831.00,1.27
5830.00,1.27
5829.00,1.27
5828.00,1.27
5827.00,1.27
5826.00,1.27
5825.00,1.27
5824.00,1.27
5823.00,1.27
5822.00,1.27
5821.00,1.26
5820.00,1.26
5819.00,1.26
5818.00,1.26
5817.00,1.26
5816.00,1.26
5815.00,1.26
5814.00,1.26
5813.00,1.26
5812.00,1.26
5811.00,1.26
5810.00,1.26
5809.00,1.26
5808.00,1.26
5807.00,1.26
5806.00,1.27
5805.00,1.27
5804.00,1.27
5803.00,1.27
5802.00,1.27
5801.00,1.27
5800.00,1.27
5799.00,1.27
5798.00,1.27
5797.00,1.27
5796.00,1.27
5795.00,1.27
5794.00,1.27
5793.00,1.27
5792.00,1.27
5791.00,1.27
5790.00,1.27
5789.00,1.27
5788.00,1.26
5787.00,1.26
5786.00,1.26
5785.00,1.26
5784.00,1.25
5783.00,1.25
5782.00,1.25
5781.00,1.24
5780.00,1.24
5779.00,1.23
5778.00,1.23
5777.00,1.23
5776.00,1.22
5775.00,1.22
5774.00,1.22
5773.00,1.21
5772.00,1.21
5771.00,1.21
5770.00,1.21
5769.00,1.21
5768.00,1.21
5767.00,1.21
5766.00,1.21
5765.00,1.21
5764.00,1.21
5763.00,1.22
5762.00,1.22
5761.00,1.22
5760.00,1.22
5759.00,1.23
5758.00,1.23
5757.00,1.23
5756.00,1.24
5755.00,1.24
5754.00,1.25
5753.00,1.25
5752.00,1.26
5751.00,1.26
5750.00,1.27
5749.00,1.27
5748.00,1.28
5747.00,1.28
5746.00,1.29
5745.00,1.29
5744.00,1.29
5743.00,1.30
5742.00,1.30
5741.00,1.30
5740.00,1.31
5739.00,1.31
5738.00,1.31
5737.00,1.31
5736.00,1.31
5735.00,1.31
5734.00,1.31
5733.00,1.31
5732.00,1.31
5731.00,1.31
5730.00,1.31
5729.00,1.31
5728.00,1.31
5727.00,1.31
5726.00,1.31
5725.00,1.32
5724.00,1.32
5723.00,1.32
5722.00,1.32
5721.00,1.32
5720.00,1.33
5719.00,1.33
5718.00,1.33
5717.00,1.33
5716.00,1.33
5715.00,1.33
5714.00,1.33
5713.00,1.33
5712.00,1.34
5711.00,1.33
5710.00,1.33
5709.00,1.33
5708.00,1.33
5707.00,1.33
5706.00,1.33
5705.00,1.32
5704.00,1.32
5703.00,1.32
5702.00,1.32
5701.00,1.32
5700.00,1.31
5699.00,1.31
5698.00,1.31
5697.00,1.31
5696.00,1.30
5695.00,1.30
5694.00,1.30
5693.00,1.30
5692.00,1.29
5691.00,1.29
5690.00,1.29
5689.00,1.29
5688.00,1.29
5687.00,1.29
5686.00,1.29
5685.00,1.28
5684.00,1.28
5683.00,1.28
5682.00,1.28
5681.00,1.28
5680.00,1.28
5679.00,1.28
5678.00,1.27
5677.00,1.27
5676.00,1.27
5675.00,1.27
5674.00,1.27
5673.00,1.27
5672.00,1.27
5671.00,1.27
5670.00,1.27
5669.00,1.27
5668.00,1.27
5667.00,1.27
5666.00,1.27
5665.00,1.27
5664.00,1.27
5663.00,1.28
5662.00,1.28
5661.00,1.28
5660.00,1.29
5659.00,1.29
5658.00,1.29
5657.00,1.29
5656.00,1.30
5655.00,1.30
5654.00,1.30
5653.00,1.30
5652.00,1.30
5651.00,1.30
5650.00,1.31
5649.00,1.31
5648.00,1.31
5647.00,1.31
5646.00,1.31
5645.00,1.31
5644.00,1.31
5643.00,1.31
5642.00,1.31
5641.00,1.31
5640.00,1.31
5639.00,1.31
5638.00,1.32
5637.00,1.32
5636.00,1.32
5635.00,1.32
5634.00,1.32
5633.00,1.33
5632.00,1.33
5631.00,1.33
5630.00,1.33
5629.00,1.33
5628.00,1.34
5627.00,1.34
5626.00,1.34
5625.00,1.35
5624.00,1.35
5623.00,1.35
5622.00,1.35
5621.00,1.35
5620.00,1.36
5619.00,1.36
5618.00,1.36
5617.00,1.37
5616.00,1.37
5615.00,1.37
5614.00,1.37
5613.00,1.38
5612.00,1.38
5611.00,1.38
5610.00,1.38
5609.00,1.38
5608.00,1.39
5607.00,1.39
5606.00,1.39
5605.00,1.39
5604.00,1.39
5603.00,1.39
5602.00,1.38
5601.00,1.38
5600.00,1.38
5599.00,1.38
5598.00,1.37
5597.00,1.37
5596.00,1.37
5595.00,1.37
5594.00,1.37
5593.00,1.37
5592.00,1.37
5591.00,1.37
5590.00,1.37
5589.00,1.37
5588.00,1.37
5587.00,1.37
5586.00,1.38
5585.00,1.38
5584.00,1.39
5583.00,1.39
5582.00,1.39
5581.00,1.40
5580.00,1.40
5579.00,1.41
5578.00,1.41
5577.00,1.42
5576.00,1.42
5575.00,1.43
5574.00,1.43
5573.00,1.43
5572.00,1.43
5571.00,1.44
5570.00,1.44
5569.00,1.44
5568.00,1.44
5567.00,1.44
5566.00,1.44
5565.00,1.45
5564.00,1.45
5563.00,1.45
5562.00,1.45
5561.00,1.45
5560.00,1.45
5559.00,1.46
5558.00,1.46
5557.00,1.46
5556.00,1.46
5555.00,1.46
5554.00,1.47
5553.00,1.47
5552.00,1.47
5551.00,1.47
5550.00,1.48
5549.00,1.48
5548.00,1.48
5547.00,1.48
5546.00,1.48
5545.00,1.48
5544.00,1.48
5543.00,1.48
5542.00,1.48
5541.00,1.48
5540.00,1.48
5539.00,1.47
5538.00,1.47
5537.00,1.47
5536.00,1.47
5535.00,1.47
5534.00,1.47
5533.00,1.47
5532.00,1.47
5531.00,1.48
5530.00,1.48
5529.00,1.48
5528.00,1.48
5527.00,1.49
5526.00,1.49
5525.00,1.49
5524.00,1.49
5523.00,1.50
5522.00,1.50
5521.00,1.50
5520.00,1.50
5519.00,1.51
5518.00,1.51
5517.00,1.51
5516.00,1.51
5515.00,1.51
5514.00,1.52
5513.00,1.52
5512.00,1.52
5511.00,1.52
5510.00,1.53
5509.00,1.53
5508.00,1.53
5507.00,1.53
5506.00,1.54
5505.00,1.54
5504.00,1.54
5503.00,1.54
5502.00,1.55
5501.00,1.55
5500.00,1.55
5499.00,1.55
5498.00,1.55
5497.00,1.55
5496.00,1.55
5495.00,1.55
5494.00,1.55
5493.00,1.54
5492.00,1.54
5491.00,1.54
5490.00,1.54
5489.00,1.54
5488.00,1.54
5487.00,1.54
5486.00,1.54
5485.00,1.54
5484.00,1.54
5483.00,1.54
5482.00,1.54
5481.00,1.54
5480.00,1.54
5479.00,1.54
5478.00,1.54
5477.00,1.54
5476.00,1.55
5475.00,1.55
5474.00,1.55
5473.00,1.55
5472.00,1.55
5471.00,1.55
5470.00,1.55
5469.00,1.55
5468.00,1.55
5467.00,1.55
5466.00,1.55
5465.00,1.55
5464.00,1.55
5463.00,1.55
5462.00,1.55
5461.00,1.55
5460.00,1.55
5459.00,1.55
5458.00,1.55
5457.00,1.55
5456.00,1.55
5455.00,1.55
5454.00,1.55
5453.00,1.56
5452.00,1.56
5451.00,1.56
5450.00,1.57
5449.00,1.57
5448.00,1.57
5447.00,1.58
5446.00,1.58
5445.00,1.58
5444.00,1.59
5443.00,1.59
5442.00,1.59
5441.00,1.60
5440.00,1.60
5439.00,1.60
5438.00,1.60
5437.00,1.60
5436.00,1.60
5435.00,1.60
5434.00,1.60
5433.00,1.60
5432.00,1.60
5431.00,1.60
5430.00,1.60
5429.00,1.60
5428.00,1.60
5427.00,1.59
5426.00,1.59
5425.00,1.58
5424.00,1.58
5423.00,1.58
5422.00,1.57
5421.00,1.57
5420.00,1.56
5419.00,1.56
5418.00,1.55
5417.00,1.55
5416.00,1.54
5415.00,1.54
5414.00,1.54
5413.00,1.54
5412.00,1.53
5411.00,1.53
5410.00,1.53
5409.00,1.53
5408.00,1.54
5407.00,1.54
5406.00,1.54
5405.00,1.54
5404.00,1.55
5403.00,1.55
5402.00,1.55
5401.00,1.56
5400.00,1.56
5399.00,1.56
5398.00,1.56
5397.00,1.56
5396.00,1.56
5395.00,1.56
5394.00,1.56
5393.00,1.56
5392.00,1.56
5391.00,1.55
5390.00,1.55
5389.00,1.54
5388.00,1.54
5387.00,1.53
5386.00,1.53
5385.00,1.52
5384.00,1.52
5383.00,1.51
5382.00,1.51
5381.00,1.50
5380.00,1.50
5379.00,1.49
5378.00,1.49
5377.00,1.49
5376.00,1.48
5375.00,1.48
5374.00,1.48
5373.00,1.48
5372.00,1.48
5371.00,1.48
5370.00,1.47
5369.00,1.47
5368.00,1.47
5367.00,1.46
5366.00,1.46
5365.00,1.46
5364.00,1.45
5363.00,1.45
5362.00,1.44
5361.00,1.43
5360.00,1.43
5359.00,1.42
5358.00,1.41
5357.00,1.40
5356.00,1.39
5355.00,1.38
5354.00,1.37
5353.00,1.36
5352.00,1.35
5351.00,1.34
5350.00,1.32
5349.00,1.31
5348.00,1.30
5347.00,1.29
5346.00,1.27
5345.00,1.26
5344.00,1.25
5343.00,1.23
5342.00,1.22
5341.00,1.21
5340.00,1.19
5339.00,1.18
5338.00,1.17
5337.00,1.15
5336.00,1.14
5335.00,1.13
5334.00,1.12
5333.00,1.11
5332.00,1.10
5331.00,1.09
5330.00,1.08
5329.00,1.07
5328.00,1.06
5327.00,1.05
5326.00,1.04
5325.00,1.03
5324.00,1.02
5323.00,1.01
5322.00,1.00
5321.00,0.99
5320.00,0.98
5319.00,0.97
5318.00,0.97
5317.00,0.96
5316.00,0.95
5315.00,0.94
5314.00,0.93
5313.00,0.92
5312.00,0.92
5311.00,0.91
5310.00,0.90
5309.00,0.90
5308.00,0.89
5307.00,0.89
5306.00,0.88
5305.00,0.88
5304.00,0.88
5303.00,0.87
5302.00,0.87
5301.00,0.87
5300.00,0.86
5299.00,0.86
5298.00,0.86
5297.00,0.85
5296.00,0.85
5295.00,0.84
5294.00,0.84
5293.00,0.83
5292.00,0.83
5291.00,0.82
5290.00,0.81
5289.00,0.81
5288.00,0.80
5287.00,0.79
5286.00,0.79
5285.00,0.78
5284.00,0.77
5283.00,0.77
5282.00,0.76
5281.00,0.76
5280.00,0.75
5279.00,0.75
5278.00,0.75
5277.00,0.75
5276.00,0.75
5275.00,0.75
5274.00,0.75
5273.00,0.75
5272.00,0.76
5271.00,0.76
5270.00,0.76
5269.00,0.76
5268.00,0.77
5267.00,0.77
5266.00,0.77
5265.00,0.78
5264.00,0.78
5263.00,0.78
5262.00,0.78
5261.00,0.78
5260.00,0.78
5259.00,0.78
5258.00,0.78
5257.00,0.78
5256.00,0.78
5255.00,0.78
5254.00,0.78
5253.00,0.78
5252.00,0.77
5251.00,0.77
5250.00,0.77
5249.00,0.77
5248.00,0.77
5247.00,0.77
5246.00,0.77
5245.00,0.77
5244.00,0.76
5243.00,0.76
5242.00,0.76
5241.00,0.76
5240.00,0.76
5239.00,0.76
5238.00,0.76
5237.00,0.76
5236.00,0.76
5235.00,0.77
5234.00,0.77
5233.00,0.77
5232.00,0.77
5231.00,0.77
5230.00,0.77
5229.00,0.77
5228.00,0.78
5227.00,0.78
5226.00,0.78
5225.00,0.78
5224.00,0.78
5223.00,0.79
5222.00,0.79
5221.00,0.79
5220.00,0.79
5219.00,0.79
5218.00,0.79
5217.00,0.80
5216.00,0.80
5215.00,0.80
5214.00,0.80
5213.00,0.80
5212.00,0.80
5211.00,0.80
5210.00,0.80
5209.00,0.80
5208.00,0.80
5207.00,0.80
5206.00,0.80
5205.00,0.80
5204.00,0.80
5203.00,0.80
5202.00,0.80
5201.00,0.80
5200.00,0.80
5199.00,0.80
5198.00,0.80
5197.00,0.80
5196.00,0.80
5195.00,0.80
5194.00,0.80
5193.00,0.80
5192.00,0.80
5191.00,0.80
5190.00,0.80
5189.00,0.80
5188.00,0.80
5187.00,0.80
5186.00,0.80
5185.00,0.80
5184.00,0.80
5183.00,0.80
5182.00,0.80
5181.00,0.80
5180.00,0.80
5179.00,0.79
5178.00,0.79
5177.00,0.79
5176.00,0.79
5175.00,0.80
5174.00,0.80
5173.00,0.80
5172.00,0.80
5171.00,0.81
5170.00,0.81
5169.00,0.82
5168.00,0.82
5167.00,0.82
5166.00,0.83
5165.00,0.83
5164.00,0.84
5163.00,0.84
5162.00,0.84
5161.00,0.84
5160.00,0.85
5159.00,0.85
5158.00,0.85
5157.00,0.85
5156.00,0.85
5155.00,0.85
5154.00,0.84
5153.00,0.84
5152.00,0.84
5151.00,0.84
5150.00,0.84
5149.00,0.83
5148.00,0.83
5147.00,0.83
5146.00,0.83
5145.00,0.82
5144.00,0.82
5143.00,0.82
5142.00,0.82
5141.00,0.81
5140.00,0.81
5139.00,0.81
5138.00,0.81
5137.00,0.80
5136.00,0.80
5135.00,0.80
5134.00,0.80
5133.00,0.80
5132.00,0.79
5131.00,0.79
5130.00,0.79
5129.00,0.80
5128.00,0.80
5127.00,0.80
5126.00,0.80
5125.00,0.80
5124.00,0.80
5123.00,0.81
5122.00,0.81
5121.00,0.81
5120.00,0.81
5119.00,0.82
5118.00,0.82
5117.00,0.82
5116.00,0.83
5115.00,0.83
5114.00,0.83
5113.00,0.83
5112.00,0.83
5111.00,0.83
5110.00,0.83
5109.00,0.82
5108.00,0.82
5107.00,0.82
5106.00,0.82
5105.00,0.82
5104.00,0.81
5103.00,0.81
5102.00,0.81
5101.00,0.81
5100.00,0.80
5099.00,0.80
5098.00,0.80
5097.00,0.80
5096.00,0.80
5095.00,0.80
5094.00,0.80
5093.00,0.80
5092.00,0.80
5091.00,0.80
5090.00,0.81
5089.00,0.81
5088.00,0.81
5087.00,0.81
5086.00,0.81
5085.00,0.81
5084.00,0.82
5083.00,0.82
5082.00,0.82
5081.00,0.82
5080.00,0.83
5079.00,0.83
5078.00,0.83
5077.00,0.83
5076.00,0.84
5075.00,0.84
5074.00,0.84
5073.00,0.84
5072.00,0.85
5071.00,0.85
5070.00,0.85
5069.00,0.85
5068.00,0.85
5067.00,0.85
5066.00,0.85
5065.00,0.85
5064.00,0.85
5063.00,0.85
5062.00,0.85
5061.00,0.85
5060.00,0.85
5059.00,0.85
5058.00,0.85
5057.00,0.85
5056.00,0.85
5055.00,0.84
5054.00,0.84
5053.00,0.84
5052.00,0.84
5051.00,0.84
5050.00,0.83
5049.00,0.83
5048.00,0.83
5047.00,0.82
5046.00,0.82
5045.00,0.82
5044.00,0.82
5043.00,0.82
5042.00,0.82
5041.00,0.82
5040.00,0.81
5039.00,0.81
5038.00,0.81
5037.00,0.81
5036.00,0.81
5035.00,0.81
5034.00,0.81
5033.00,0.81
5032.00,0.81
5031.00,0.82
5030.00,0.82
5029.00,0.82
5028.00,0.82
5027.00,0.83
5026.00,0.83
5025.00,0.84
5024.00,0.84
5023.00,0.85
5022.00,0.85
5021.00,0.86
5020.00,0.86
5019.00,0.87
5018.00,0.87
5017.00,0.88
5016.00,0.88
5015.00,0.89
5014.00,0.89
5013.00,0.90
5012.00,0.90
5011.00,0.90
5010.00,0.91
5009.00,0.91
5008.00,0.91
5007.00,0.91
5006.00,0.90
5005.00,0.90
5004.00,0.90
5003.00,0.90
5002.00,0.90
5001.00,0.89
5000.00,0.89
4999.00,0.88
4998.00,0.88
4997.00,0.88
4996.00,0.87
4995.00,0.87
4994.00,0.86
4993.00,0.86
4992.00,0.86
4991.00,0.86
4990.00,0.85
4989.00,0.85
4988.00,0.85
4987.00,0.85
4986.00,0.85
4985.00,0.86
4984.00,0.86
4983.00,0.86
4982.00,0.86
4981.00,0.86
4980.00,0.86
4979.00,0.87
4978.00,0.87
4977.00,0.87
4976.00,0.88
4975.00,0.88
4974.00,0.88
4973.00,0.88
4972.00,0.89
4971.00,0.89
4970.00,0.89
4969.00,0.89
4968.00,0.89
4967.00,0.89
4966.00,0.89
4965.00,0.89
4964.00,0.89
4963.00,0.89
4962.00,0.89
4961.00,0.88
4960.00,0.88
4959.00,0.88
4958.00,0.88
4957.00,0.88
4956.00,0.88
4955.00,0.88
4954.00,0.89
4953.00,0.89
4952.00,0.89
4951.00,0.89
4950.00,0.90
4949.00,0.90
4948.00,0.90
4947.00,0.91
4946.00,0.91
4945.00,0.92
4944.00,0.92
4943.00,0.93
4942.00,0.94
4941.00,0.94
4940.00,0.95
4939.00,0.95
4938.00,0.96
4937.00,0.96
4936.00,0.97
4935.00,0.97
4934.00,0.97
4933.00,0.98
4932.00,0.98
4931.00,0.98
4930.00,0.98
4929.00,0.98
4928.00,0.98
4927.00,0.98
4926.00,0.98
4925.00,0.97
4924.00,0.97
4923.00,0.97
4922.00,0.96
4921.00,0.96
4920.00,0.96
4919.00,0.96
4918.00,0.95
4917.00,0.95
4916.00,0.95
4915.00,0.95
4914.00,0.95
4913.00,0.95
4912.00,0.96
4911.00,0.96
4910.00,0.96
4909.00,0.97
4908.00,0.97
4907.00,0.98
4906.00,0.98
4905.00,0.99
4904.00,0.99
4903.00,1.00
4902.00,1.01
4901.00,1.01
4900.00,1.02
4899.00,1.02
4898.00,1.02
4897.00,1.02
4896.00,1.02
4895.00,1.02
4894.00,1.02
4893.00,1.02
4892.00,1.02
4891.00,1.01
4890.00,1.01
4889.00,1.01
4888.00,1.00
4887.00,0.99
4886.00,0.99
4885.00,0.98
4884.00,0.98
4883.00,0.97
4882.00,0.97
4881.00,0.97
4880.00,0.97
4879.00,0.97
4878.00,0.97
4877.00,0.97
4876.00,0.96
4875.00,0.97
4874.00,0.97
4873.00,0.97
4872.00,0.97
4871.00,0.97
4870.00,0.98
4869.00,0.98
4868.00,0.98
4867.00,0.99
4866.00,0.99
4865.00,0.99
4864.00,0.99
4863.00,0.99
4862.00,0.99
4861.00,1.00
4860.00,1.00
4859.00,1.00
4858.00,1.00
4857.00,1.00
4856.00,1.00
4855.00,1.00
4854.00,1.00
4853.00,1.00
4852.00,1.00
4851.00,1.00
4850.00,1.00
4849.00,0.99
4848.00,0.99
4847.00,0.99
4846.00,0.99
4845.00,0.99
4844.00,0.99
4843.00,0.99
4842.00,0.99
4841.00,0.98
4840.00,0.98
4839.00,0.98
4838.00,0.98
4837.00,0.99
4836.00,0.99
4835.00,0.99
4834.00,0.99
4833.00,0.99
4832.00,1.00
4831.00,1.00
4830.00,1.00
4829.00,1.01
4828.00,1.01
4827.00,1.01
4826.00,1.02
4825.00,1.02
4824.00,1.02
4823.00,1.02
4822.00,1.03
4821.00,1.03
4820.00,1.03
4819.00,1.03
4818.00,1.03
4817.00,1.04
4816.00,1.04
4815.00,1.04
4814.00,1.04
4813.00,1.04
4812.00,1.04
4811.00,1.04
4810.00,1.04
4809.00,1.04
4808.00,1.04
4807.00,1.03
4806.00,1.03
4805.00,1.03
4804.00,1.03
4803.00,1.03
4802.00,1.03
4801.00,1.03
4800.00,1.02
4799.00,1.02
4798.00,1.02
4797.00,1.02
4796.00,1.02
4795.00,1.03
4794.00,1.03
4793.00,1.03
4792.00,1.04
4791.00,1.04
4790.00,1.05
4789.00,1.05
4788.00,1.06
4787.00,1.06
4786.00,1.07
4785.00,1.08
4784.00,1.09
4783.00,1.09
4782.00,1.10
4781.00,1.11
4780.00,1.11
4779.00,1.12
4778.00,1.12
4777.00,1.13
4776.00,1.13
4775.00,1.13
4774.00,1.13
4773.00,1.13
4772.00,1.13
4771.00,1.13
4770.00,1.13
4769.00,1.13
4768.00,1.12
4767.00,1.12
4766.00,1.12
4765.00,1.11
4764.00,1.11
4763.00,1.10
4762.00,1.10
4761.00,1.10
4760.00,1.09
4759.00,1.09
4758.00,1.09
4757.00,1.09
4756.00,1.09
4755.00,1.09
4754.00,1.09
4753.00,1.10
4752.00,1.10
4751.00,1.10
4750.00,1.11
4749.00,1.11
4748.00,1.12
4747.00,1.12
4746.00,1.13
4745.00,1.13
4744.00,1.13
4743.00,1.14
4742.00,1.14
4741.00,1.14
4740.00,1.14
4739.00,1.14
4738.00,1.13
4737.00,1.13
4736.00,1.13
4735.00,1.13
4734.00,1.13
4733.00,1.13
4732.00,1.13
4731.00,1.13
4730.00,1.13
4729.00,1.13
4728.00,1.13
4727.00,1.14
4726.00,1.14
4725.00,1.15
4724.00,1.15
4723.00,1.16
4722.00,1.17
4721.00,1.18
4720.00,1.18
4719.00,1.19
4718.00,1.19
4717.00,1.19
4716.00,1.20
4715.00,1.20
4714.00,1.20
4713.00,1.20
4712.00,1.20
4711.00,1.20
4710.00,1.20
4709.00,1.20
4708.00,1.20
4707.00,1.20
4706.00,1.20
4705.00,1.20
4704.00,1.20
4703.00,1.20
4702.00,1.20
4701.00,1.20
4700.00,1.20
4699.00,1.20
4698.00,1.20
4697.00,1.21
4696.00,1.21
4695.00,1.21
4694.00,1.21
4693.00,1.21
4692.00,1.21
4691.00,1.21
4690.00,1.21
4689.00,1.21
4688.00,1.20
4687.00,1.20
4686.00,1.20
4685.00,1.20
4684.00,1.20
4683.00,1.19
4682.00,1.19
4681.00,1.19
4680.00,1.19
4679.00,1.19
4678.00,1.19
4677.00,1.20
4676.00,1.20
4675.00,1.20
4674.00,1.21
4673.00,1.21
4672.00,1.22
4671.00,1.22
4670.00,1.22
4669.00,1.23
4668.00,1.23
4667.00,1.23
4666.00,1.24
4665.00,1.24
4664.00,1.24
4663.00,1.25
4662.00,1.25
4661.00,1.25
4660.00,1.25
4659.00,1.25
4658.00,1.25
4657.00,1.25
4656.00,1.26
4655.00,1.26
4654.00,1.26
4653.00,1.26
4652.00,1.26
4651.00,1.27
4650.00,1.27
4649.00,1.27
4648.00,1.27
4647.00,1.27
4646.00,1.27
4645.00,1.27
4644.00,1.27
4643.00,1.27
4642.00,1.27
4641.00,1.27
4640.00,1.27
4639.00,1.27
4638.00,1.26
4637.00,1.26
4636.00,1.26
4635.00,1.26
4634.00,1.25
4633.00,1.25
4632.00,1.25
4631.00,1.25
4630.00,1.25
4629.00,1.24
4628.00,1.24
4627.00,1.24
4626.00,1.24
4625.00,1.24
4624.00,1.24
4623.00,1.25
4622.00,1.25
4621.00,1.25
4620.00,1.26
4619.00,1.26
4618.00,1.26
4617.00,1.27
4616.00,1.27
4615.00,1.28
4614.00,1.28
4613.00,1.28
4612.00,1.29
4611.00,1.29
4610.00,1.29
4609.00,1.30
4608.00,1.30
4607.00,1.30
4606.00,1.30
4605.00,1.30
4604.00,1.30
4603.00,1.30
4602.00,1.30
4601.00,1.30
4600.00,1.30
4599.00,1.30
4598.00,1.30
4597.00,1.30
4596.00,1.29
4595.00,1.29
4594.00,1.29
4593.00,1.29
4592.00,1.28
4591.00,1.28
4590.00,1.28
4589.00,1.28
4588.00,1.28
4587.00,1.29
4586.00,1.29
4585.00,1.29
4584.00,1.29
4583.00,1.29
4582.00,1.30
4581.00,1.30
4580.00,1.31
4579.00,1.31
4578.00,1.32
4577.00,1.33
4576.00,1.34
4575.00,1.34
4574.00,1.35
4573.00,1.35
4572.00,1.36
4571.00,1.36
4570.00,1.37
4569.00,1.37
4568.00,1.37
4567.00,1.38
4566.00,1.38
4565.00,1.38
4564.00,1.39
4563.00,1.39
4562.00,1.39
4561.00,1.40
4560.00,1.40
4559.00,1.40
4558.00,1.41
4557.00,1.41
4556.00,1.42
4555.00,1.42
4554.00,1.43
4553.00,1.43
4552.00,1.43
4551.00,1.44
4550.00,1.44
4549.00,1.44
4548.00,1.44
4547.00,1.44
4546.00,1.44
4545.00,1.44
4544.00,1.44
4543.00,1.44
4542.00,1.43
4541.00,1.43
4540.00,1.43
4539.00,1.42
4538.00,1.42
4537.00,1.41
4536.00,1.41
4535.00,1.40
4534.00,1.40
4533.00,1.39
4532.00,1.39
4531.00,1.39
4530.00,1.39
4529.00,1.39
4528.00,1.39
4527.00,1.39
4526.00,1.39
4525.00,1.39
4524.00,1.39
4523.00,1.40
4522.00,1.40
4521.00,1.41
4520.00,1.41
4519.00,1.41
4518.00,1.42
4517.00,1.42
4516.00,1.43
4515.00,1.43
4514.00,1.43
4513.00,1.43
4512.00,1.43
4511.00,1.43
4510.00,1.43
4509.00,1.43
4508.00,1.43
4507.00,1.43
4506.00,1.43
4505.00,1.42
4504.00,1.42
4503.00,1.41
4502.00,1.40
4501.00,1.40
4500.00,1.39
4499.00,1.39
4498.00,1.38
4497.00,1.38
4496.00,1.37
4495.00,1.37
4494.00,1.37
4493.00,1.37
4492.00,1.36
4491.00,1.36
4490.00,1.37
4489.00,1.37
4488.00,1.37
4487.00,1.37
4486.00,1.37
4485.00,1.37
4484.00,1.38
4483.00,1.38
4482.00,1.38
4481.00,1.38
4480.00,1.39
4479.00,1.39
4478.00,1.39
4477.00,1.39
4476.00,1.39
4475.00,1.38
4474.00,1.38
4473.00,1.38
4472.00,1.38
4471.00,1.37
4470.00,1.37
4469.00,1.36
4468.00,1.35
4467.00,1.35
4466.00,1.34
4465.00,1.33
4464.00,1.33
4463.00,1.32
4462.00,1.31
4461.00,1.31
4460.00,1.30
4459.00,1.30
4458.00,1.29
4457.00,1.29
4456.00,1.29
4455.00,1.29
4454.00,1.29
4453.00,1.29
4452.00,1.29
4451.00,1.29
4450.00,1.29
4449.00,1.29
4448.00,1.29
4447.00,1.29
4446.00,1.30
4445.00,1.30
4444.00,1.30
4443.00,1.30
4442.00,1.30
4441.00,1.30
4440.00,1.30
4439.00,1.30
4438.00,1.30
4437.00,1.30
4436.00,1.29
4435.00,1.29
4434.00,1.28
4433.00,1.28
4432.00,1.27
4431.00,1.27
4430.00,1.26
4429.00,1.26
4428.00,1.25
4427.00,1.24
4426.00,1.24
4425.00,1.23
4424.00,1.22
4423.00,1.21
4422.00,1.21
4421.00,1.20
4420.00,1.19
4419.00,1.18
4418.00,1.18
4417.00,1.17
4416.00,1.17
4415.00,1.16
4414.00,1.16
4413.00,1.16
4412.00,1.15
4411.00,1.15
4410.00,1.15
4409.00,1.15
4408.00,1.15
4407.00,1.15
4406.00,1.15
4405.00,1.15
4404.00,1.15
4403.00,1.16
4402.00,1.16
4401.00,1.17
4400.00,1.17
4399.00,1.18
4398.00,1.18
4397.00,1.19
4396.00,1.19
4395.00,1.19
4394.00,1.20
4393.00,1.20
4392.00,1.21
4391.00,1.21
4390.00,1.21
4389.00,1.21
4388.00,1.22
4387.00,1.22
4386.00,1.22
4385.00,1.21
4384.00,1.21
4383.00,1.21
4382.00,1.21
4381.00,1.20
4380.00,1.20
4379.00,1.20
4378.00,1.20
4377.00,1.20
4376.00,1.20
4375.00,1.19
4374.00,1.19
4373.00,1.19
4372.00,1.19
4371.00,1.18
4370.00,1.18
4369.00,1.18
4368.00,1.18
4367.00,1.18
4366.00,1.19
4365.00,1.19
4364.00,1.19
4363.00,1.19
4362.00,1.19
4361.00,1.19
4360.00,1.20
4359.00,1.20
4358.00,1.20
4357.00,1.21
4356.00,1.21
4355.00,1.21
4354.00,1.22
4353.00,1.22
4352.00,1.22
4351.00,1.22
4350.00,1.22
4349.00,1.22
4348.00,1.22
4347.00,1.22
4346.00,1.21
4345.00,1.21
4344.00,1.21
4343.00,1.20
4342.00,1.20
4341.00,1.20
4340.00,1.19
4339.00,1.19
4338.00,1.19
4337.00,1.19
4336.00,1.19
4335.00,1.19
4334.00,1.19
4333.00,1.19
4332.00,1.19
4331.00,1.19
4330.00,1.19
4329.00,1.20
4328.00,1.20
4327.00,1.20
4326.00,1.21
4325.00,1.21
4324.00,1.21
4323.00,1.21
4322.00,1.21
4321.00,1.22
4320.00,1.22
4319.00,1.22
4318.00,1.22
4317.00,1.22
4316.00,1.22
4315.00,1.22
4314.00,1.23
4313.00,1.23
4312.00,1.23
4311.00,1.23
4310.00,1.24
4309.00,1.24
4308.00,1.25
4307.00,1.26
4306.00,1.27
4305.00,1.27
4304.00,1.28
4303.00,1.29
4302.00,1.30
4301.00,1.31
4300.00,1.32
4299.00,1.32
4298.00,1.33
4297.00,1.34
4296.00,1.35
4295.00,1.35
4294.00,1.36
4293.00,1.36
4292.00,1.37
4291.00,1.37
4290.00,1.37
4289.00,1.37
4288.00,1.37
4287.00,1.38
4286.00,1.38
4285.00,1.38
4284.00,1.38
4283.00,1.38
4282.00,1.38
4281.00,1.38
4280.00,1.38
4279.00,1.37
4278.00,1.37
4277.00,1.37
4276.00,1.37
4275.00,1.36
4274.00,1.36
4273.00,1.36
4272.00,1.35
4271.00,1.35
4270.00,1.34
4269.00,1.34
4268.00,1.33
4267.00,1.33
4266.00,1.32
4265.00,1.31
4264.00,1.31
4263.00,1.30
4262.00,1.29
4261.00,1.28
4260.00,1.27
4259.00,1.26
4258.00,1.26
4257.00,1.25
4256.00,1.25
4255.00,1.24
4254.00,1.24
4253.00,1.24
4252.00,1.24
4251.00,1.25
4250.00,1.25
4249.00,1.25
4248.00,1.26
4247.00,1.27
4246.00,1.28
4245.00,1.29
4244.00,1.30
4243.00,1.31
4242.00,1.32
4241.00,1.33
4240.00,1.33
4239.00,1.34
4238.00,1.35
4237.00,1.35
4236.00,1.35
4235.00,1.35
4234.00,1.35
4233.00,1.35
4232.00,1.36
4231.00,1.36
4230.00,1.36
4229.00,1.36
4228.00,1.35
4227.00,1.35
4226.00,1.35
4225.00,1.35
4224.00,1.35
4223.00,1.35
4222.00,1.35
4221.00,1.36
4220.00,1.36
4219.00,1.36
4218.00,1.36
4217.00,1.36
4216.00,1.36
4215.00,1.36
4214.00,1.36
4213.00,1.36
4212.00,1.36
4211.00,1.36
4210.00,1.36
4209.00,1.36
4208.00,1.36
4207.00,1.36
4206.00,1.35
4205.00,1.35
4204.00,1.35
4203.00,1.35
4202.00,1.35
4201.00,1.34
4200.00,1.34
4199.00,1.34
4198.00,1.34
4197.00,1.34
4196.00,1.34
4195.00,1.34
4194.00,1.34
4193.00,1.34
4192.00,1.34
4191.00,1.33
4190.00,1.33
4189.00,1.33
4188.00,1.33
4187.00,1.33
4186.00,1.33
4185.00,1.33
4184.00,1.34
4183.00,1.34
4182.00,1.34
4181.00,1.34
4180.00,1.34
4179.00,1.35
4178.00,1.35
4177.00,1.35
4176.00,1.35
4175.00,1.35
4174.00,1.35
4173.00,1.35
4172.00,1.36
4171.00,1.36
4170.00,1.36
4169.00,1.36
4168.00,1.36
4167.00,1.36
4166.00,1.36
4165.00,1.35
4164.00,1.35
4163.00,1.35
4162.00,1.35
4161.00,1.35
4160.00,1.35
4159.00,1.34
4158.00,1.34
4157.00,1.35
4156.00,1.35
4155.00,1.35
4154.00,1.35
4153.00,1.35
4152.00,1.35
4151.00,1.35
4150.00,1.35
4149.00,1.35
4148.00,1.35
4147.00,1.35
4146.00,1.35
4145.00,1.35
4144.00,1.36
4143.00,1.36
4142.00,1.36
4141.00,1.37
4140.00,1.37
4139.00,1.37
4138.00,1.38
4137.00,1.38
4136.00,1.39
4135.00,1.39
4134.00,1.40
4133.00,1.40
4132.00,1.40
4131.00,1.40
4130.00,1.41
4129.00,1.41
4128.00,1.40
4127.00,1.40
4126.00,1.40
4125.00,1.40
4124.00,1.39
4123.00,1.39
4122.00,1.38
4121.00,1.38
4120.00,1.37
4119.00,1.37
4118.00,1.37
4117.00,1.36
4116.00,1.36
4115.00,1.36
4114.00,1.37
4113.00,1.37
4112.00,1.37
4111.00,1.37
4110.00,1.37
4109.00,1.37
4108.00,1.38
4107.00,1.38
4106.00,1.39
4105.00,1.40
4104.00,1.40
4103.00,1.41
4102.00,1.42
4101.00,1.42
4100.00,1.42
4099.00,1.43
4098.00,1.43
4097.00,1.44
4096.00,1.45
4095.00,1.46
4094.00,1.47
4093.00,1.48
4092.00,1.49
4091.00,1.50
4090.00,1.51
4089.00,1.52
4088.00,1.53
4087.00,1.53
4086.00,1.54
4085.00,1.54
4084.00,1.55
4083.00,1.55
4082.00,1.55
4081.00,1.55
4080.00,1.55
4079.00,1.54
4078.00,1.54
4077.00,1.53
4076.00,1.52
4075.00,1.51
4074.00,1.50
4073.00,1.49
4072.00,1.48
4071.00,1.48
4070.00,1.47
4069.00,1.46
4068.00,1.46
4067.00,1.45
4066.00,1.45
4065.00,1.45
4064.00,1.45
4063.00,1.45
4062.00,1.45
4061.00,1.45
4060.00,1.45
4059.00,1.45
4058.00,1.46
4057.00,1.46
4056.00,1.47
4055.00,1.47
4054.00,1.47
4053.00,1.47
4052.00,1.48
4051.00,1.48
4050.00,1.48
4049.00,1.48
4048.00,1.48
4047.00,1.48
4046.00,1.49
4045.00,1.49
4044.00,1.49
4043.00,1.50
4042.00,1.50
4041.00,1.50
4040.00,1.51
4039.00,1.51
4038.00,1.52
4037.00,1.52
4036.00,1.53
4035.00,1.53
4034.00,1.54
4033.00,1.54
4032.00,1.55
4031.00,1.55
4030.00,1.56
4029.00,1.56
4028.00,1.57
4027.00,1.57
4026.00,1.58
4025.00,1.58
4024.00,1.59
4023.00,1.59
4022.00,1.59
4021.00,1.60
4020.00,1.60
4019.00,1.60
4018.00,1.60
4017.00,1.61
4016.00,1.61
4015.00,1.60
4014.00,1.59
4013.00,1.57
4012.00,1.55
4011.00,1.52
4010.00,1.48
4009.00,1.44
4008.00,1.39
4007.00,1.33
4006.00,1.27
4005.00,1.20
4004.00,1.13
4003.00,1.05
4002.00,0.96
4001.00,0.87
4000.00,0.78
