创建为新数据集,样品 677 用户 Administrator 日期 星期四, 七月 25 2019
cm-1,%T
10000.00,1.87
9999.00,1.86
9998.00,1.84
9997.00,1.83
9996.00,1.82
9995.00,1.81
9994.00,1.80
9993.00,1.80
9992.00,1.79
9991.00,1.78
9990.00,1.77
9989.00,1.77
9988.00,1.76
9987.00,1.76
9986.00,1.75
9985.00,1.75
9984.00,1.74
9983.00,1.74
9982.00,1.74
9981.00,1.73
9980.00,1.73
9979.00,1.72
9978.00,1.72
9977.00,1.71
9976.00,1.71
9975.00,1.70
9974.00,1.70
9973.00,1.70
9972.00,1.70
9971.00,1.69
9970.00,1.69
9969.00,1.69
9968.00,1.69
9967.00,1.70
9966.00,1.70
9965.00,1.70
9964.00,1.70
9963.00,1.70
9962.00,1.71
9961.00,1.71
9960.00,1.71
9959.00,1.72
9958.00,1.72
9957.00,1.73
9956.00,1.73
9955.00,1.73
9954.00,1.73
9953.00,1.73
9952.00,1.73
9951.00,1.73
9950.00,1.72
9949.00,1.72
9948.00,1.71
9947.00,1.71
9946.00,1.70
9945.00,1.69
9944.00,1.68
9943.00,1.67
9942.00,1.66
9941.00,1.65
9940.00,1.64
9939.00,1.63
9938.00,1.62
9937.00,1.60
9936.00,1.59
9935.00,1.58
9934.00,1.57
9933.00,1.56
9932.00,1.55
9931.00,1.54
9930.00,1.53
9929.00,1.52
9928.00,1.52
9927.00,1.51
9926.00,1.50
9925.00,1.50
9924.00,1.49
9923.00,1.49
9922.00,1.49
9921.00,1.49
9920.00,1.49
9919.00,1.49
9918.00,1.50
9917.00,1.50
9916.00,1.51
9915.00,1.52
9914.00,1.52
9913.00,1.53
9912.00,1.54
9911.00,1.55
9910.00,1.56
9909.00,1.58
9908.00,1.59
9907.00,1.60
9906.00,1.62
9905.00,1.63
9904.00,1.65
9903.00,1.66
9902.00,1.68
9901.00,1.69
9900.00,1.70
9899.00,1.72
9898.00,1.73
9897.00,1.74
9896.00,1.75
9895.00,1.75
9894.00,1.76
9893.00,1.75
9892.00,1.75
9891.00,1.74
9890.00,1.73
9889.00,1.72
9888.00,1.70
9887.00,1.68
9886.00,1.66
9885.00,1.63
9884.00,1.61
9883.00,1.59
9882.00,1.57
9881.00,1.55
9880.00,1.53
9879.00,1.52
9878.00,1.51
9877.00,1.51
9876.00,1.51
9875.00,1.51
9874.00,1.52
9873.00,1.54
9872.00,1.55
9871.00,1.58
9870.00,1.60
9869.00,1.62
9868.00,1.65
9867.00,1.67
9866.00,1.69
9865.00,1.71
9864.00,1.73
9863.00,1.74
9862.00,1.75
9861.00,1.76
9860.00,1.77
9859.00,1.77
9858.00,1.77
9857.00,1.77
9856.00,1.77
9855.00,1.76
9854.00,1.76
9853.00,1.75
9852.00,1.75
9851.00,1.74
9850.00,1.73
9849.00,1.73
9848.00,1.72
9847.00,1.72
9846.00,1.72
9845.00,1.71
9844.00,1.71
9843.00,1.71
9842.00,1.70
9841.00,1.69
9840.00,1.69
9839.00,1.68
9838.00,1.67
9837.00,1.66
9836.00,1.65
9835.00,1.64
9834.00,1.64
9833.00,1.63
9832.00,1.62
9831.00,1.62
9830.00,1.61
9829.00,1.61
9828.00,1.61
9827.00,1.60
9826.00,1.60
9825.00,1.60
9824.00,1.61
9823.00,1.61
9822.00,1.62
9821.00,1.62
9820.00,1.63
9819.00,1.64
9818.00,1.65
9817.00,1.66
9816.00,1.67
9815.00,1.68
9814.00,1.69
9813.00,1.70
9812.00,1.71
9811.00,1.72
9810.00,1.72
9809.00,1.73
9808.00,1.73
9807.00,1.74
9806.00,1.74
9805.00,1.74
9804.00,1.73
9803.00,1.73
9802.00,1.72
9801.00,1.71
9800.00,1.70
9799.00,1.68
9798.00,1.67
9797.00,1.65
9796.00,1.63
9795.00,1.62
9794.00,1.60
9793.00,1.58
9792.00,1.56
9791.00,1.55
9790.00,1.53
9789.00,1.51
9788.00,1.50
9787.00,1.48
9786.00,1.47
9785.00,1.46
9784.00,1.45
9783.00,1.45
9782.00,1.45
9781.00,1.45
9780.00,1.45
9779.00,1.46
9778.00,1.46
9777.00,1.47
9776.00,1.48
9775.00,1.49
9774.00,1.50
9773.00,1.51
9772.00,1.52
9771.00,1.54
9770.00,1.55
9769.00,1.56
9768.00,1.58
9767.00,1.59
9766.00,1.60
9765.00,1.62
9764.00,1.63
9763.00,1.64
9762.00,1.66
9761.00,1.67
9760.00,1.68
9759.00,1.70
9758.00,1.71
9757.00,1.72
9756.00,1.74
9755.00,1.75
9754.00,1.76
9753.00,1.76
9752.00,1.77
9751.00,1.77
9750.00,1.78
9749.00,1.78
9748.00,1.78
9747.00,1.77
9746.00,1.77
9745.00,1.76
9744.00,1.75
9743.00,1.74
9742.00,1.72
9741.00,1.71
9740.00,1.70
9739.00,1.69
9738.00,1.68
9737.00,1.67
9736.00,1.67
9735.00,1.66
9734.00,1.66
9733.00,1.66
9732.00,1.66
9731.00,1.66
9730.00,1.66
9729.00,1.66
9728.00,1.67
9727.00,1.67
9726.00,1.67
9725.00,1.67
9724.00,1.67
9723.00,1.67
9722.00,1.67
9721.00,1.66
9720.00,1.65
9719.00,1.64
9718.00,1.63
9717.00,1.62
9716.00,1.60
9715.00,1.59
9714.00,1.58
9713.00,1.57
9712.00,1.55
9711.00,1.54
9710.00,1.53
9709.00,1.52
9708.00,1.51
9707.00,1.51
9706.00,1.50
9705.00,1.50
9704.00,1.50
9703.00,1.50
9702.00,1.50
9701.00,1.51
9700.00,1.52
9699.00,1.52
9698.00,1.53
9697.00,1.54
9696.00,1.55
9695.00,1.55
9694.00,1.56
9693.00,1.57
9692.00,1.58
9691.00,1.58
9690.00,1.59
9689.00,1.59
9688.00,1.60
9687.00,1.60
9686.00,1.60
9685.00,1.60
9684.00,1.60
9683.00,1.60
9682.00,1.59
9681.00,1.59
9680.00,1.60
9679.00,1.60
9678.00,1.60
9677.00,1.60
9676.00,1.60
9675.00,1.61
9674.00,1.61
9673.00,1.62
9672.00,1.63
9671.00,1.63
9670.00,1.64
9669.00,1.64
9668.00,1.64
9667.00,1.65
9666.00,1.64
9665.00,1.64
9664.00,1.64
9663.00,1.64
9662.00,1.63
9661.00,1.62
9660.00,1.62
9659.00,1.61
9658.00,1.60
9657.00,1.59
9656.00,1.58
9655.00,1.58
9654.00,1.57
9653.00,1.56
9652.00,1.56
9651.00,1.56
9650.00,1.55
9649.00,1.55
9648.00,1.56
9647.00,1.56
9646.00,1.56
9645.00,1.57
9644.00,1.57
9643.00,1.57
9642.00,1.58
9641.00,1.58
9640.00,1.58
9639.00,1.59
9638.00,1.59
9637.00,1.59
9636.00,1.58
9635.00,1.58
9634.00,1.58
9633.00,1.57
9632.00,1.56
9631.00,1.56
9630.00,1.55
9629.00,1.54
9628.00,1.53
9627.00,1.52
9626.00,1.51
9625.00,1.50
9624.00,1.49
9623.00,1.48
9622.00,1.47
9621.00,1.47
9620.00,1.47
9619.00,1.47
9618.00,1.47
9617.00,1.47
9616.00,1.47
9615.00,1.48
9614.00,1.49
9613.00,1.49
9612.00,1.50
9611.00,1.51
9610.00,1.52
9609.00,1.52
9608.00,1.53
9607.00,1.54
9606.00,1.54
9605.00,1.55
9604.00,1.55
9603.00,1.56
9602.00,1.56
9601.00,1.56
9600.00,1.57
9599.00,1.57
9598.00,1.57
9597.00,1.57
9596.00,1.57
9595.00,1.57
9594.00,1.57
9593.00,1.57
9592.00,1.57
9591.00,1.57
9590.00,1.57
9589.00,1.57
9588.00,1.56
9587.00,1.56
9586.00,1.56
9585.00,1.56
9584.00,1.56
9583.00,1.55
9582.00,1.55
9581.00,1.55
9580.00,1.54
9579.00,1.54
9578.00,1.54
9577.00,1.53
9576.00,1.53
9575.00,1.53
9574.00,1.53
9573.00,1.52
9572.00,1.52
9571.00,1.52
9570.00,1.51
9569.00,1.51
9568.00,1.51
9567.00,1.50
9566.00,1.50
9565.00,1.50
9564.00,1.50
9563.00,1.50
9562.00,1.51
9561.00,1.51
9560.00,1.52
9559.00,1.53
9558.00,1.53
9557.00,1.54
9556.00,1.55
9555.00,1.56
9554.00,1.57
9553.00,1.58
9552.00,1.60
9551.00,1.61
9550.00,1.62
9549.00,1.63
9548.00,1.64
9547.00,1.65
9546.00,1.66
9545.00,1.67
9544.00,1.68
9543.00,1.68
9542.00,1.69
9541.00,1.69
9540.00,1.70
9539.00,1.70
9538.00,1.71
9537.00,1.71
9536.00,1.71
9535.00,1.72
9534.00,1.72
9533.00,1.72
9532.00,1.72
9531.00,1.72
9530.00,1.72
9529.00,1.72
9528.00,1.72
9527.00,1.72
9526.00,1.72
9525.00,1.72
9524.00,1.71
9523.00,1.70
9522.00,1.70
9521.00,1.69
9520.00,1.68
9519.00,1.68
9518.00,1.67
9517.00,1.66
9516.00,1.65
9515.00,1.65
9514.00,1.64
9513.00,1.64
9512.00,1.63
9511.00,1.62
9510.00,1.61
9509.00,1.61
9508.00,1.60
9507.00,1.59
9506.00,1.58
9505.00,1.57
9504.00,1.55
9503.00,1.54
9502.00,1.53
9501.00,1.52
9500.00,1.51
9499.00,1.50
9498.00,1.49
9497.00,1.48
9496.00,1.48
9495.00,1.48
9494.00,1.47
9493.00,1.47
9492.00,1.48
9491.00,1.48
9490.00,1.49
9489.00,1.50
9488.00,1.52
9487.00,1.53
9486.00,1.54
9485.00,1.56
9484.00,1.58
9483.00,1.60
9482.00,1.61
9481.00,1.63
9480.00,1.64
9479.00,1.66
9478.00,1.67
9477.00,1.68
9476.00,1.69
9475.00,1.70
9474.00,1.71
9473.00,1.71
9472.00,1.71
9471.00,1.71
9470.00,1.71
9469.00,1.70
9468.00,1.69
9467.00,1.68
9466.00,1.67
9465.00,1.65
9464.00,1.64
9463.00,1.62
9462.00,1.60
9461.00,1.58
9460.00,1.57
9459.00,1.55
9458.00,1.53
9457.00,1.51
9456.00,1.49
9455.00,1.47
9454.00,1.46
9453.00,1.44
9452.00,1.43
9451.00,1.42
9450.00,1.41
9449.00,1.41
9448.00,1.41
9447.00,1.40
9446.00,1.41
9445.00,1.41
9444.00,1.41
9443.00,1.41
9442.00,1.42
9441.00,1.42
9440.00,1.43
9439.00,1.43
9438.00,1.44
9437.00,1.45
9436.00,1.45
9435.00,1.46
9434.00,1.46
9433.00,1.47
9432.00,1.47
9431.00,1.47
9430.00,1.48
9429.00,1.48
9428.00,1.48
9427.00,1.48
9426.00,1.48
9425.00,1.48
9424.00,1.48
9423.00,1.48
9422.00,1.48
9421.00,1.48
9420.00,1.49
9419.00,1.49
9418.00,1.49
9417.00,1.49
9416.00,1.49
9415.00,1.50
9414.00,1.50
9413.00,1.51
9412.00,1.51
9411.00,1.52
9410.00,1.52
9409.00,1.53
9408.00,1.53
9407.00,1.53
9406.00,1.53
9405.00,1.53
9404.00,1.54
9403.00,1.53
9402.00,1.53
9401.00,1.53
9400.00,1.53
9399.00,1.53
9398.00,1.52
9397.00,1.52
9396.00,1.52
9395.00,1.52
9394.00,1.52
9393.00,1.52
9392.00,1.52
9391.00,1.53
9390.00,1.54
9389.00,1.55
9388.00,1.56
9387.00,1.58
9386.00,1.59
9385.00,1.61
9384.00,1.63
9383.00,1.65
9382.00,1.67
9381.00,1.69
9380.00,1.70
9379.00,1.72
9378.00,1.73
9377.00,1.74
9376.00,1.75
9375.00,1.75
9374.00,1.75
9373.00,1.75
9372.00,1.74
9371.00,1.73
9370.00,1.71
9369.00,1.69
9368.00,1.67
9367.00,1.65
9366.00,1.63
9365.00,1.62
9364.00,1.60
9363.00,1.58
9362.00,1.57
9361.00,1.55
9360.00,1.54
9359.00,1.53
9358.00,1.52
9357.00,1.51
9356.00,1.51
9355.00,1.50
9354.00,1.50
9353.00,1.50
9352.00,1.50
9351.00,1.50
9350.00,1.50
9349.00,1.50
9348.00,1.50
9347.00,1.50
9346.00,1.50
9345.00,1.50
9344.00,1.50
9343.00,1.50
9342.00,1.50
9341.00,1.51
9340.00,1.51
9339.00,1.51
9338.00,1.52
9337.00,1.52
9336.00,1.53
9335.00,1.53
9334.00,1.54
9333.00,1.55
9332.00,1.56
9331.00,1.57
9330.00,1.58
9329.00,1.59
9328.00,1.60
9327.00,1.61
9326.00,1.62
9325.00,1.63
9324.00,1.64
9323.00,1.65
9322.00,1.66
9321.00,1.66
9320.00,1.67
9319.00,1.67
9318.00,1.68
9317.00,1.68
9316.00,1.68
9315.00,1.68
9314.00,1.67
9313.00,1.66
9312.00,1.65
9311.00,1.64
9310.00,1.63
9309.00,1.62
9308.00,1.60
9307.00,1.59
9306.00,1.58
9305.00,1.56
9304.00,1.55
9303.00,1.54
9302.00,1.53
9301.00,1.52
9300.00,1.52
9299.00,1.51
9298.00,1.51
9297.00,1.51
9296.00,1.51
9295.00,1.52
9294.00,1.52
9293.00,1.52
9292.00,1.53
9291.00,1.53
9290.00,1.54
9289.00,1.54
9288.00,1.55
9287.00,1.55
9286.00,1.56
9285.00,1.56
9284.00,1.56
9283.00,1.57
9282.00,1.57
9281.00,1.58
9280.00,1.58
9279.00,1.59
9278.00,1.59
9277.00,1.60
9276.00,1.60
9275.00,1.61
9274.00,1.62
9273.00,1.62
9272.00,1.63
9271.00,1.63
9270.00,1.64
9269.00,1.64
9268.00,1.64
9267.00,1.65
9266.00,1.65
9265.00,1.65
9264.00,1.65
9263.00,1.65
9262.00,1.65
9261.00,1.65
9260.00,1.65
9259.00,1.65
9258.00,1.65
9257.00,1.65
9256.00,1.65
9255.00,1.66
9254.00,1.66
9253.00,1.66
9252.00,1.67
9251.00,1.67
9250.00,1.67
9249.00,1.68
9248.00,1.69
9247.00,1.69
9246.00,1.69
9245.00,1.70
9244.00,1.70
9243.00,1.71
9242.00,1.71
9241.00,1.71
9240.00,1.71
9239.00,1.70
9238.00,1.70
9237.00,1.69
9236.00,1.68
9235.00,1.67
9234.00,1.66
9233.00,1.64
9232.00,1.63
9231.00,1.62
9230.00,1.60
9229.00,1.59
9228.00,1.58
9227.00,1.57
9226.00,1.56
9225.00,1.56
9224.00,1.55
9223.00,1.55
9222.00,1.55
9221.00,1.56
9220.00,1.56
9219.00,1.57
9218.00,1.58
9217.00,1.59
9216.00,1.59
9215.00,1.60
9214.00,1.61
9213.00,1.62
9212.00,1.63
9211.00,1.63
9210.00,1.64
9209.00,1.64
9208.00,1.65
9207.00,1.65
9206.00,1.65
9205.00,1.65
9204.00,1.64
9203.00,1.64
9202.00,1.64
9201.00,1.64
9200.00,1.64
9199.00,1.64
9198.00,1.64
9197.00,1.64
9196.00,1.64
9195.00,1.64
9194.00,1.64
9193.00,1.64
9192.00,1.64
9191.00,1.64
9190.00,1.64
9189.00,1.64
9188.00,1.64
9187.00,1.64
9186.00,1.64
9185.00,1.64
9184.00,1.64
9183.00,1.64
9182.00,1.63
9181.00,1.63
9180.00,1.62
9179.00,1.61
9178.00,1.60
9177.00,1.60
9176.00,1.59
9175.00,1.58
9174.00,1.58
9173.00,1.57
9172.00,1.56
9171.00,1.56
9170.00,1.55
9169.00,1.55
9168.00,1.54
9167.00,1.53
9166.00,1.53
9165.00,1.52
9164.00,1.52
9163.00,1.51
9162.00,1.51
9161.00,1.50
9160.00,1.50
9159.00,1.49
9158.00,1.49
9157.00,1.49
9156.00,1.48
9155.00,1.48
9154.00,1.47
9153.00,1.47
9152.00,1.47
9151.00,1.47
9150.00,1.47
9149.00,1.47
9148.00,1.48
9147.00,1.48
9146.00,1.49
9145.00,1.50
9144.00,1.51
9143.00,1.52
9142.00,1.53
9141.00,1.54
9140.00,1.56
9139.00,1.57
9138.00,1.58
9137.00,1.59
9136.00,1.61
9135.00,1.62
9134.00,1.63
9133.00,1.64
9132.00,1.65
9131.00,1.66
9130.00,1.67
9129.00,1.68
9128.00,1.68
9127.00,1.69
9126.00,1.69
9125.00,1.69
9124.00,1.69
9123.00,1.69
9122.00,1.69
9121.00,1.69
9120.00,1.69
9119.00,1.69
9118.00,1.69
9117.00,1.68
9116.00,1.68
9115.00,1.67
9114.00,1.67
9113.00,1.66
9112.00,1.66
9111.00,1.65
9110.00,1.65
9109.00,1.64
9108.00,1.64
9107.00,1.64
9106.00,1.63
9105.00,1.63
9104.00,1.62
9103.00,1.61
9102.00,1.61
9101.00,1.60
9100.00,1.60
9099.00,1.60
9098.00,1.60
9097.00,1.60
9096.00,1.60
9095.00,1.60
9094.00,1.60
9093.00,1.60
9092.00,1.60
9091.00,1.60
9090.00,1.60
9089.00,1.60
9088.00,1.60
9087.00,1.60
9086.00,1.60
9085.00,1.61
9084.00,1.61
9083.00,1.61
9082.00,1.61
9081.00,1.61
9080.00,1.61
9079.00,1.60
9078.00,1.60
9077.00,1.59
9076.00,1.59
9075.00,1.59
9074.00,1.59
9073.00,1.58
9072.00,1.58
9071.00,1.58
9070.00,1.58
9069.00,1.58
9068.00,1.58
9067.00,1.57
9066.00,1.58
9065.00,1.58
9064.00,1.58
9063.00,1.58
9062.00,1.59
9061.00,1.59
9060.00,1.60
9059.00,1.60
9058.00,1.60
9057.00,1.60
9056.00,1.60
9055.00,1.60
9054.00,1.60
9053.00,1.59
9052.00,1.59
9051.00,1.58
9050.00,1.58
9049.00,1.57
9048.00,1.56
9047.00,1.56
9046.00,1.55
9045.00,1.54
9044.00,1.53
9043.00,1.52
9042.00,1.51
9041.00,1.51
9040.00,1.50
9039.00,1.50
9038.00,1.50
9037.00,1.50
9036.00,1.50
9035.00,1.50
9034.00,1.50
9033.00,1.49
9032.00,1.49
9031.00,1.49
9030.00,1.49
9029.00,1.48
9028.00,1.48
9027.00,1.48
9026.00,1.48
9025.00,1.47
9024.00,1.47
9023.00,1.47
9022.00,1.46
9021.00,1.46
9020.00,1.46
9019.00,1.45
9018.00,1.45
9017.00,1.45
9016.00,1.45
9015.00,1.46
9014.00,1.46
9013.00,1.47
9012.00,1.48
9011.00,1.48
9010.00,1.49
9009.00,1.50
9008.00,1.52
9007.00,1.53
9006.00,1.54
9005.00,1.55
9004.00,1.57
9003.00,1.58
9002.00,1.59
9001.00,1.60
9000.00,1.61
8999.00,1.62
8998.00,1.63
8997.00,1.63
8996.00,1.64
8995.00,1.64
8994.00,1.64
8993.00,1.64
8992.00,1.64
8991.00,1.64
8990.00,1.64
8989.00,1.63
8988.00,1.63
8987.00,1.62
8986.00,1.62
8985.00,1.62
8984.00,1.62
8983.00,1.61
8982.00,1.61
8981.00,1.61
8980.00,1.61
8979.00,1.61
8978.00,1.61
8977.00,1.61
8976.00,1.60
8975.00,1.60
8974.00,1.60
8973.00,1.61
8972.00,1.61
8971.00,1.61
8970.00,1.60
8969.00,1.60
8968.00,1.60
8967.00,1.60
8966.00,1.59
8965.00,1.59
8964.00,1.59
8963.00,1.58
8962.00,1.58
8961.00,1.57
8960.00,1.57
8959.00,1.56
8958.00,1.56
8957.00,1.56
8956.00,1.56
8955.00,1.56
8954.00,1.56
8953.00,1.56
8952.00,1.56
8951.00,1.57
8950.00,1.57
8949.00,1.58
8948.00,1.58
8947.00,1.59
8946.00,1.59
8945.00,1.60
8944.00,1.61
8943.00,1.62
8942.00,1.62
8941.00,1.63
8940.00,1.63
8939.00,1.63
8938.00,1.64
8937.00,1.64
8936.00,1.64
8935.00,1.64
8934.00,1.64
8933.00,1.64
8932.00,1.64
8931.00,1.64
8930.00,1.64
8929.00,1.64
8928.00,1.64
8927.00,1.64
8926.00,1.64
8925.00,1.63
8924.00,1.63
8923.00,1.63
8922.00,1.63
8921.00,1.62
8920.00,1.62
8919.00,1.62
8918.00,1.62
8917.00,1.61
8916.00,1.61
8915.00,1.60
8914.00,1.60
8913.00,1.59
8912.00,1.59
8911.00,1.58
8910.00,1.58
8909.00,1.57
8908.00,1.57
8907.00,1.56
8906.00,1.56
8905.00,1.56
8904.00,1.56
8903.00,1.56
8902.00,1.56
8901.00,1.56
8900.00,1.56
8899.00,1.56
8898.00,1.56
8897.00,1.57
8896.00,1.57
8895.00,1.57
8894.00,1.58
8893.00,1.59
8892.00,1.59
8891.00,1.60
8890.00,1.60
8889.00,1.61
8888.00,1.61
8887.00,1.61
8886.00,1.62
8885.00,1.62
8884.00,1.62
8883.00,1.62
8882.00,1.62
8881.00,1.62
8880.00,1.62
8879.00,1.63
8878.00,1.63
8877.00,1.63
8876.00,1.63
8875.00,1.63
8874.00,1.63
8873.00,1.63
8872.00,1.63
8871.00,1.63
8870.00,1.63
8869.00,1.63
8868.00,1.63
8867.00,1.63
8866.00,1.63
8865.00,1.63
8864.00,1.63
8863.00,1.63
8862.00,1.63
8861.00,1.62
8860.00,1.62
8859.00,1.62
8858.00,1.61
8857.00,1.61
8856.00,1.61
8855.00,1.61
8854.00,1.61
8853.00,1.61
8852.00,1.62
8851.00,1.62
8850.00,1.62
8849.00,1.62
8848.00,1.63
8847.00,1.63
8846.00,1.63
8845.00,1.63
8844.00,1.63
8843.00,1.63
8842.00,1.62
8841.00,1.62
8840.00,1.62
8839.00,1.61
8838.00,1.61
8837.00,1.60
8836.00,1.59
8835.00,1.59
8834.00,1.58
8833.00,1.58
8832.00,1.57
8831.00,1.56
8830.00,1.56
8829.00,1.55
8828.00,1.55
8827.00,1.54
8826.00,1.54
8825.00,1.54
8824.00,1.53
8823.00,1.53
8822.00,1.53
8821.00,1.52
8820.00,1.52
8819.00,1.51
8818.00,1.51
8817.00,1.51
8816.00,1.50
8815.00,1.50
8814.00,1.50
8813.00,1.50
8812.00,1.50
8811.00,1.50
8810.00,1.51
8809.00,1.51
8808.00,1.52
8807.00,1.52
8806.00,1.53
8805.00,1.54
8804.00,1.54
8803.00,1.55
8802.00,1.55
8801.00,1.56
8800.00,1.57
8799.00,1.57
8798.00,1.58
8797.00,1.58
8796.00,1.59
8795.00,1.59
8794.00,1.60
8793.00,1.60
8792.00,1.60
8791.00,1.61
8790.00,1.61
8789.00,1.61
8788.00,1.62
8787.00,1.62
8786.00,1.63
8785.00,1.63
8784.00,1.64
8783.00,1.65
8782.00,1.65
8781.00,1.66
8780.00,1.66
8779.00,1.67
8778.00,1.67
8777.00,1.67
8776.00,1.68
8775.00,1.68
8774.00,1.68
8773.00,1.68
8772.00,1.68
8771.00,1.68
8770.00,1.68
8769.00,1.68
8768.00,1.68
8767.00,1.68
8766.00,1.68
8765.00,1.68
8764.00,1.68
8763.00,1.67
8762.00,1.67
8761.00,1.67
8760.00,1.66
8759.00,1.65
8758.00,1.65
8757.00,1.64
8756.00,1.64
8755.00,1.63
8754.00,1.62
8753.00,1.62
8752.00,1.61
8751.00,1.60
8750.00,1.60
8749.00,1.59
8748.00,1.59
8747.00,1.58
8746.00,1.58
8745.00,1.58
8744.00,1.57
8743.00,1.57
8742.00,1.57
8741.00,1.58
8740.00,1.58
8739.00,1.58
8738.00,1.58
8737.00,1.58
8736.00,1.59
8735.00,1.59
8734.00,1.59
8733.00,1.59
8732.00,1.59
8731.00,1.59
8730.00,1.59
8729.00,1.59
8728.00,1.59
8727.00,1.59
8726.00,1.59
8725.00,1.59
8724.00,1.59
8723.00,1.59
8722.00,1.59
8721.00,1.59
8720.00,1.60
8719.00,1.60
8718.00,1.60
8717.00,1.60
8716.00,1.60
8715.00,1.61
8714.00,1.61
8713.00,1.61
8712.00,1.61
8711.00,1.61
8710.00,1.61
8709.00,1.61
8708.00,1.61
8707.00,1.61
8706.00,1.61
8705.00,1.61
8704.00,1.61
8703.00,1.61
8702.00,1.61
8701.00,1.60
8700.00,1.60
8699.00,1.60
8698.00,1.59
8697.00,1.59
8696.00,1.58
8695.00,1.58
8694.00,1.58
8693.00,1.58
8692.00,1.57
8691.00,1.57
8690.00,1.57
8689.00,1.57
8688.00,1.57
8687.00,1.57
8686.00,1.57
8685.00,1.57
8684.00,1.57
8683.00,1.57
8682.00,1.57
8681.00,1.57
8680.00,1.57
8679.00,1.58
8678.00,1.58
8677.00,1.58
8676.00,1.58
8675.00,1.59
8674.00,1.59
8673.00,1.59
8672.00,1.59
8671.00,1.60
8670.00,1.60
8669.00,1.60
8668.00,1.61
8667.00,1.61
8666.00,1.61
8665.00,1.62
8664.00,1.62
8663.00,1.62
8662.00,1.62
8661.00,1.62
8660.00,1.62
8659.00,1.62
8658.00,1.62
8657.00,1.61
8656.00,1.61
8655.00,1.61
8654.00,1.60
8653.00,1.60
8652.00,1.60
8651.00,1.59
8650.00,1.59
8649.00,1.58
8648.00,1.58
8647.00,1.58
8646.00,1.57
8645.00,1.57
8644.00,1.56
8643.00,1.56
8642.00,1.56
8641.00,1.55
8640.00,1.55
8639.00,1.55
8638.00,1.55
8637.00,1.55
8636.00,1.55
8635.00,1.55
8634.00,1.55
8633.00,1.55
8632.00,1.55
8631.00,1.55
8630.00,1.55
8629.00,1.56
8628.00,1.56
8627.00,1.57
8626.00,1.58
8625.00,1.59
8624.00,1.59
8623.00,1.60
8622.00,1.61
8621.00,1.62
8620.00,1.63
8619.00,1.64
8618.00,1.64
8617.00,1.65
8616.00,1.65
8615.00,1.66
8614.00,1.66
8613.00,1.66
8612.00,1.66
8611.00,1.66
8610.00,1.66
8609.00,1.65
8608.00,1.65
8607.00,1.64
8606.00,1.63
8605.00,1.63
8604.00,1.62
8603.00,1.61
8602.00,1.61
8601.00,1.60
8600.00,1.59
8599.00,1.59
8598.00,1.59
8597.00,1.59
8596.00,1.59
8595.00,1.59
8594.00,1.59
8593.00,1.59
8592.00,1.59
8591.00,1.59
8590.00,1.60
8589.00,1.60
8588.00,1.60
8587.00,1.60
8586.00,1.61
8585.00,1.61
8584.00,1.61
8583.00,1.61
8582.00,1.61
8581.00,1.61
8580.00,1.61
8579.00,1.61
8578.00,1.61
8577.00,1.61
8576.00,1.61
8575.00,1.60
8574.00,1.60
8573.00,1.60
8572.00,1.60
8571.00,1.60
8570.00,1.60
8569.00,1.61
8568.00,1.61
8567.00,1.61
8566.00,1.61
8565.00,1.61
8564.00,1.61
8563.00,1.61
8562.00,1.61
8561.00,1.61
8560.00,1.61
8559.00,1.61
8558.00,1.61
8557.00,1.61
8556.00,1.61
8555.00,1.61
8554.00,1.61
8553.00,1.61
8552.00,1.61
8551.00,1.62
8550.00,1.62
8549.00,1.63
8548.00,1.63
8547.00,1.64
8546.00,1.64
8545.00,1.65
8544.00,1.66
8543.00,1.66
8542.00,1.67
8541.00,1.68
8540.00,1.68
8539.00,1.69
8538.00,1.69
8537.00,1.69
8536.00,1.69
8535.00,1.69
8534.00,1.69
8533.00,1.69
8532.00,1.69
8531.00,1.68
8530.00,1.68
8529.00,1.67
8528.00,1.67
8527.00,1.66
8526.00,1.66
8525.00,1.65
8524.00,1.65
8523.00,1.65
8522.00,1.64
8521.00,1.64
8520.00,1.64
8519.00,1.64
8518.00,1.63
8517.00,1.63
8516.00,1.63
8515.00,1.63
8514.00,1.63
8513.00,1.62
8512.00,1.62
8511.00,1.62
8510.00,1.62
8509.00,1.61
8508.00,1.61
8507.00,1.60
8506.00,1.59
8505.00,1.58
8504.00,1.57
8503.00,1.57
8502.00,1.56
8501.00,1.55
8500.00,1.54
8499.00,1.53
8498.00,1.52
8497.00,1.52
8496.00,1.51
8495.00,1.51
8494.00,1.50
8493.00,1.50
8492.00,1.50
8491.00,1.50
8490.00,1.50
8489.00,1.50
8488.00,1.50
8487.00,1.50
8486.00,1.50
8485.00,1.50
8484.00,1.50
8483.00,1.50
8482.00,1.50
8481.00,1.51
8480.00,1.51
8479.00,1.50
8478.00,1.50
8477.00,1.50
8476.00,1.50
8475.00,1.50
8474.00,1.50
8473.00,1.50
8472.00,1.50
8471.00,1.50
8470.00,1.50
8469.00,1.50
8468.00,1.51
8467.00,1.51
8466.00,1.51
8465.00,1.52
8464.00,1.53
8463.00,1.53
8462.00,1.54
8461.00,1.55
8460.00,1.56
8459.00,1.57
8458.00,1.58
8457.00,1.58
8456.00,1.59
8455.00,1.60
8454.00,1.61
8453.00,1.61
8452.00,1.62
8451.00,1.62
8450.00,1.63
8449.00,1.63
8448.00,1.63
8447.00,1.63
8446.00,1.63
8445.00,1.63
8444.00,1.63
8443.00,1.63
8442.00,1.63
8441.00,1.63
8440.00,1.63
8439.00,1.62
8438.00,1.62
8437.00,1.62
8436.00,1.62
8435.00,1.62
8434.00,1.61
8433.00,1.61
8432.00,1.61
8431.00,1.61
8430.00,1.61
8429.00,1.61
8428.00,1.60
8427.00,1.60
8426.00,1.60
8425.00,1.60
8424.00,1.60
8423.00,1.59
8422.00,1.59
8421.00,1.59
8420.00,1.58
8419.00,1.58
8418.00,1.58
8417.00,1.57
8416.00,1.57
8415.00,1.57
8414.00,1.56
8413.00,1.56
8412.00,1.56
8411.00,1.55
8410.00,1.55
8409.00,1.54
8408.00,1.54
8407.00,1.53
8406.00,1.53
8405.00,1.52
8404.00,1.51
8403.00,1.51
8402.00,1.50
8401.00,1.49
8400.00,1.48
8399.00,1.48
8398.00,1.47
8397.00,1.46
8396.00,1.46
8395.00,1.45
8394.00,1.45
8393.00,1.45
8392.00,1.45
8391.00,1.45
8390.00,1.45
8389.00,1.45
8388.00,1.46
8387.00,1.46
8386.00,1.47
8385.00,1.47
8384.00,1.48
8383.00,1.49
8382.00,1.50
8381.00,1.51
8380.00,1.52
8379.00,1.52
8378.00,1.53
8377.00,1.53
8376.00,1.54
8375.00,1.54
8374.00,1.54
8373.00,1.53
8372.00,1.53
8371.00,1.53
8370.00,1.52
8369.00,1.52
8368.00,1.51
8367.00,1.51
8366.00,1.50
8365.00,1.50
8364.00,1.49
8363.00,1.48
8362.00,1.48
8361.00,1.47
8360.00,1.47
8359.00,1.47
8358.00,1.47
8357.00,1.48
8356.00,1.48
8355.00,1.49
8354.00,1.49
8353.00,1.50
8352.00,1.51
8351.00,1.52
8350.00,1.53
8349.00,1.54
8348.00,1.56
8347.00,1.57
8346.00,1.58
8345.00,1.59
8344.00,1.60
8343.00,1.61
8342.00,1.62
8341.00,1.62
8340.00,1.63
8339.00,1.63
8338.00,1.64
8337.00,1.64
8336.00,1.64
8335.00,1.63
8334.00,1.63
8333.00,1.63
8332.00,1.63
8331.00,1.62
8330.00,1.62
8329.00,1.62
8328.00,1.61
8327.00,1.61
8326.00,1.61
8325.00,1.60
8324.00,1.60
8323.00,1.60
8322.00,1.60
8321.00,1.60
8320.00,1.59
8319.00,1.60
8318.00,1.60
8317.00,1.60
8316.00,1.60
8315.00,1.60
8314.00,1.60
8313.00,1.60
8312.00,1.60
8311.00,1.60
8310.00,1.60
8309.00,1.60
8308.00,1.60
8307.00,1.60
8306.00,1.60
8305.00,1.60
8304.00,1.60
8303.00,1.60
8302.00,1.60
8301.00,1.60
8300.00,1.60
8299.00,1.61
8298.00,1.61
8297.00,1.61
8296.00,1.61
8295.00,1.61
8294.00,1.61
8293.00,1.62
8292.00,1.62
8291.00,1.62
8290.00,1.63
8289.00,1.63
8288.00,1.63
8287.00,1.64
8286.00,1.64
8285.00,1.64
8284.00,1.65
8283.00,1.65
8282.00,1.65
8281.00,1.65
8280.00,1.65
8279.00,1.65
8278.00,1.65
8277.00,1.65
8276.00,1.65
8275.00,1.65
8274.00,1.65
8273.00,1.65
8272.00,1.65
8271.00,1.65
8270.00,1.65
8269.00,1.64
8268.00,1.64
8267.00,1.64
8266.00,1.64
8265.00,1.64
8264.00,1.64
8263.00,1.63
8262.00,1.63
8261.00,1.63
8260.00,1.63
8259.00,1.63
8258.00,1.63
8257.00,1.63
8256.00,1.63
8255.00,1.63
8254.00,1.64
8253.00,1.64
8252.00,1.64
8251.00,1.65
8250.00,1.65
8249.00,1.65
8248.00,1.66
8247.00,1.66
8246.00,1.67
8245.00,1.67
8244.00,1.67
8243.00,1.67
8242.00,1.68
8241.00,1.68
8240.00,1.67
8239.00,1.67
8238.00,1.67
8237.00,1.67
8236.00,1.66
8235.00,1.66
8234.00,1.66
8233.00,1.65
8232.00,1.64
8231.00,1.64
8230.00,1.63
8229.00,1.63
8228.00,1.62
8227.00,1.62
8226.00,1.62
8225.00,1.62
8224.00,1.62
8223.00,1.61
8222.00,1.61
8221.00,1.61
8220.00,1.61
8219.00,1.61
8218.00,1.62
8217.00,1.62
8216.00,1.62
8215.00,1.62
8214.00,1.62
8213.00,1.62
8212.00,1.62
8211.00,1.62
8210.00,1.62
8209.00,1.61
8208.00,1.61
8207.00,1.61
8206.00,1.61
8205.00,1.60
8204.00,1.60
8203.00,1.60
8202.00,1.60
8201.00,1.59
8200.00,1.59
8199.00,1.59
8198.00,1.59
8197.00,1.59
8196.00,1.59
8195.00,1.59
8194.00,1.59
8193.00,1.60
8192.00,1.60
8191.00,1.60
8190.00,1.59
8189.00,1.59
8188.00,1.59
8187.00,1.59
8186.00,1.59
8185.00,1.58
8184.00,1.58
8183.00,1.58
8182.00,1.57
8181.00,1.57
8180.00,1.57
8179.00,1.56
8178.00,1.56
8177.00,1.56
8176.00,1.56
8175.00,1.56
8174.00,1.56
8173.00,1.56
8172.00,1.56
8171.00,1.57
8170.00,1.57
8169.00,1.58
8168.00,1.59
8167.00,1.59
8166.00,1.60
8165.00,1.61
8164.00,1.61
8163.00,1.62
8162.00,1.63
8161.00,1.63
8160.00,1.64
8159.00,1.64
8158.00,1.65
8157.00,1.65
8156.00,1.66
8155.00,1.66
8154.00,1.67
8153.00,1.67
8152.00,1.67
8151.00,1.68
8150.00,1.68
8149.00,1.68
8148.00,1.68
8147.00,1.68
8146.00,1.68
8145.00,1.69
8144.00,1.69
8143.00,1.69
8142.00,1.69
8141.00,1.69
8140.00,1.69
8139.00,1.69
8138.00,1.69
8137.00,1.69
8136.00,1.69
8135.00,1.69
8134.00,1.69
8133.00,1.69
8132.00,1.69
8131.00,1.69
8130.00,1.69
8129.00,1.69
8128.00,1.69
8127.00,1.69
8126.00,1.69
8125.00,1.69
8124.00,1.69
8123.00,1.69
8122.00,1.69
8121.00,1.69
8120.00,1.69
8119.00,1.69
8118.00,1.68
8117.00,1.68
8116.00,1.68
8115.00,1.68
8114.00,1.68
8113.00,1.67
8112.00,1.67
8111.00,1.67
8110.00,1.67
8109.00,1.67
8108.00,1.66
8107.00,1.66
8106.00,1.66
8105.00,1.65
8104.00,1.65
8103.00,1.65
8102.00,1.65
8101.00,1.65
8100.00,1.65
8099.00,1.65
8098.00,1.65
8097.00,1.65
8096.00,1.65
8095.00,1.64
8094.00,1.64
8093.00,1.64
8092.00,1.64
8091.00,1.65
8090.00,1.65
8089.00,1.65
8088.00,1.65
8087.00,1.65
8086.00,1.65
8085.00,1.65
8084.00,1.65
8083.00,1.65
8082.00,1.65
8081.00,1.65
8080.00,1.65
8079.00,1.65
8078.00,1.65
8077.00,1.64
8076.00,1.64
8075.00,1.64
8074.00,1.64
8073.00,1.63
8072.00,1.63
8071.00,1.63
8070.00,1.63
8069.00,1.62
8068.00,1.62
8067.00,1.62
8066.00,1.62
8065.00,1.62
8064.00,1.62
8063.00,1.62
8062.00,1.62
8061.00,1.62
8060.00,1.62
8059.00,1.62
8058.00,1.62
8057.00,1.62
8056.00,1.63
8055.00,1.63
8054.00,1.63
8053.00,1.64
8052.00,1.64
8051.00,1.65
8050.00,1.65
8049.00,1.65
8048.00,1.66
8047.00,1.66
8046.00,1.66
8045.00,1.67
8044.00,1.67
8043.00,1.67
8042.00,1.67
8041.00,1.67
8040.00,1.67
8039.00,1.66
8038.00,1.66
8037.00,1.66
8036.00,1.66
8035.00,1.65
8034.00,1.65
8033.00,1.64
8032.00,1.64
8031.00,1.63
8030.00,1.63
8029.00,1.63
8028.00,1.63
8027.00,1.62
8026.00,1.62
8025.00,1.62
8024.00,1.62
8023.00,1.62
8022.00,1.62
8021.00,1.62
8020.00,1.62
8019.00,1.62
8018.00,1.63
8017.00,1.63
8016.00,1.63
8015.00,1.63
8014.00,1.63
8013.00,1.64
8012.00,1.64
8011.00,1.64
8010.00,1.64
8009.00,1.64
8008.00,1.64
8007.00,1.64
8006.00,1.64
8005.00,1.64
8004.00,1.64
8003.00,1.64
8002.00,1.64
8001.00,1.64
8000.00,1.64
7999.00,1.63
7998.00,1.63
7997.00,1.62
7996.00,1.62
7995.00,1.61
7994.00,1.61
7993.00,1.61
7992.00,1.60
7991.00,1.60
7990.00,1.60
7989.00,1.60
7988.00,1.59
7987.00,1.59
7986.00,1.59
7985.00,1.59
7984.00,1.60
7983.00,1.60
7982.00,1.60
7981.00,1.60
7980.00,1.61
7979.00,1.61
7978.00,1.61
7977.00,1.61
7976.00,1.62
7975.00,1.62
7974.00,1.62
7973.00,1.62
7972.00,1.63
7971.00,1.63
7970.00,1.63
7969.00,1.63
7968.00,1.63
7967.00,1.63
7966.00,1.63
7965.00,1.63
7964.00,1.63
7963.00,1.63
7962.00,1.63
7961.00,1.63
7960.00,1.63
7959.00,1.63
7958.00,1.63
7957.00,1.63
7956.00,1.64
7955.00,1.64
7954.00,1.64
7953.00,1.64
7952.00,1.64
7951.00,1.65
7950.00,1.65
7949.00,1.65
7948.00,1.66
7947.00,1.66
7946.00,1.67
7945.00,1.67
7944.00,1.67
7943.00,1.68
7942.00,1.68
7941.00,1.68
7940.00,1.68
7939.00,1.68
7938.00,1.67
7937.00,1.67
7936.00,1.67
7935.00,1.66
7934.00,1.66
7933.00,1.65
7932.00,1.65
7931.00,1.64
7930.00,1.64
7929.00,1.63
7928.00,1.63
7927.00,1.62
7926.00,1.62
7925.00,1.62
7924.00,1.62
7923.00,1.62
7922.00,1.62
7921.00,1.63
7920.00,1.63
7919.00,1.63
7918.00,1.63
7917.00,1.64
7916.00,1.64
7915.00,1.64
7914.00,1.64
7913.00,1.64
7912.00,1.65
7911.00,1.65
7910.00,1.65
7909.00,1.64
7908.00,1.64
7907.00,1.64
7906.00,1.64
7905.00,1.63
7904.00,1.63
7903.00,1.63
7902.00,1.62
7901.00,1.62
7900.00,1.62
7899.00,1.61
7898.00,1.61
7897.00,1.61
7896.00,1.60
7895.00,1.60
7894.00,1.60
7893.00,1.60
7892.00,1.60
7891.00,1.60
7890.00,1.60
7889.00,1.60
7888.00,1.60
7887.00,1.60
7886.00,1.61
7885.00,1.61
7884.00,1.61
7883.00,1.61
7882.00,1.62
7881.00,1.62
7880.00,1.63
7879.00,1.64
7878.00,1.64
7877.00,1.65
7876.00,1.65
7875.00,1.66
7874.00,1.66
7873.00,1.67
7872.00,1.67
7871.00,1.67
7870.00,1.68
7869.00,1.68
7868.00,1.68
7867.00,1.69
7866.00,1.69
7865.00,1.69
7864.00,1.69
7863.00,1.69
7862.00,1.69
7861.00,1.69
7860.00,1.69
7859.00,1.69
7858.00,1.69
7857.00,1.68
7856.00,1.68
7855.00,1.68
7854.00,1.68
7853.00,1.67
7852.00,1.67
7851.00,1.67
7850.00,1.66
7849.00,1.66
7848.00,1.65
7847.00,1.65
7846.00,1.64
7845.00,1.64
7844.00,1.63
7843.00,1.63
7842.00,1.62
7841.00,1.62
7840.00,1.62
7839.00,1.62
7838.00,1.62
7837.00,1.62
7836.00,1.62
7835.00,1.62
7834.00,1.62
7833.00,1.62
7832.00,1.62
7831.00,1.63
7830.00,1.63
7829.00,1.64
7828.00,1.64
7827.00,1.65
7826.00,1.65
7825.00,1.66
7824.00,1.66
7823.00,1.67
7822.00,1.67
7821.00,1.67
7820.00,1.67
7819.00,1.67
7818.00,1.67
7817.00,1.67
7816.00,1.67
7815.00,1.67
7814.00,1.67
7813.00,1.66
7812.00,1.66
7811.00,1.66
7810.00,1.65
7809.00,1.65
7808.00,1.64
7807.00,1.64
7806.00,1.64
7805.00,1.64
7804.00,1.63
7803.00,1.63
7802.00,1.63
7801.00,1.63
7800.00,1.63
7799.00,1.63
7798.00,1.63
7797.00,1.63
7796.00,1.63
7795.00,1.63
7794.00,1.63
7793.00,1.63
7792.00,1.63
7791.00,1.63
7790.00,1.63
7789.00,1.64
7788.00,1.64
7787.00,1.64
7786.00,1.64
7785.00,1.65
7784.00,1.65
7783.00,1.65
7782.00,1.66
7781.00,1.66
7780.00,1.66
7779.00,1.67
7778.00,1.67
7777.00,1.67
7776.00,1.67
7775.00,1.67
7774.00,1.68
7773.00,1.68
7772.00,1.68
7771.00,1.68
7770.00,1.68
7769.00,1.68
7768.00,1.67
7767.00,1.67
7766.00,1.67
7765.00,1.66
7764.00,1.66
7763.00,1.65
7762.00,1.65
7761.00,1.64
7760.00,1.64
7759.00,1.63
7758.00,1.63
7757.00,1.62
7756.00,1.62
7755.00,1.61
7754.00,1.61
7753.00,1.61
7752.00,1.60
7751.00,1.60
7750.00,1.60
7749.00,1.60
7748.00,1.60
7747.00,1.60
7746.00,1.60
7745.00,1.60
7744.00,1.61
7743.00,1.61
7742.00,1.62
7741.00,1.63
7740.00,1.63
7739.00,1.64
7738.00,1.65
7737.00,1.65
7736.00,1.66
7735.00,1.67
7734.00,1.67
7733.00,1.68
7732.00,1.69
7731.00,1.70
7730.00,1.70
7729.00,1.71
7728.00,1.71
7727.00,1.72
7726.00,1.72
7725.00,1.73
7724.00,1.73
7723.00,1.73
7722.00,1.73
7721.00,1.73
7720.00,1.73
7719.00,1.73
7718.00,1.73
7717.00,1.73
7716.00,1.73
7715.00,1.73
7714.00,1.72
7713.00,1.72
7712.00,1.72
7711.00,1.71
7710.00,1.71
7709.00,1.70
7708.00,1.70
7707.00,1.69
7706.00,1.69
7705.00,1.69
7704.00,1.69
7703.00,1.69
7702.00,1.68
7701.00,1.68
7700.00,1.68
7699.00,1.68
7698.00,1.69
7697.00,1.69
7696.00,1.69
7695.00,1.70
7694.00,1.70
7693.00,1.71
7692.00,1.71
7691.00,1.72
7690.00,1.73
7689.00,1.73
7688.00,1.74
7687.00,1.75
7686.00,1.76
7685.00,1.76
7684.00,1.77
7683.00,1.78
7682.00,1.78
7681.00,1.79
7680.00,1.79
7679.00,1.80
7678.00,1.80
7677.00,1.80
7676.00,1.80
7675.00,1.80
7674.00,1.79
7673.00,1.79
7672.00,1.78
7671.00,1.78
7670.00,1.77
7669.00,1.76
7668.00,1.75
7667.00,1.74
7666.00,1.73
7665.00,1.72
7664.00,1.71
7663.00,1.71
7662.00,1.70
7661.00,1.69
7660.00,1.69
7659.00,1.68
7658.00,1.68
7657.00,1.67
7656.00,1.67
7655.00,1.67
7654.00,1.66
7653.00,1.66
7652.00,1.67
7651.00,1.67
7650.00,1.67
7649.00,1.67
7648.00,1.68
7647.00,1.68
7646.00,1.68
7645.00,1.69
7644.00,1.69
7643.00,1.69
7642.00,1.70
7641.00,1.70
7640.00,1.71
7639.00,1.71
7638.00,1.71
7637.00,1.71
7636.00,1.71
7635.00,1.71
7634.00,1.71
7633.00,1.71
7632.00,1.71
7631.00,1.71
7630.00,1.70
7629.00,1.70
7628.00,1.70
7627.00,1.70
7626.00,1.70
7625.00,1.70
7624.00,1.69
7623.00,1.69
7622.00,1.69
7621.00,1.69
7620.00,1.69
7619.00,1.69
7618.00,1.70
7617.00,1.70
7616.00,1.70
7615.00,1.70
7614.00,1.71
7613.00,1.71
7612.00,1.72
7611.00,1.72
7610.00,1.72
7609.00,1.73
7608.00,1.73
7607.00,1.73
7606.00,1.73
7605.00,1.74
7604.00,1.74
7603.00,1.74
7602.00,1.74
7601.00,1.74
7600.00,1.73
7599.00,1.73
7598.00,1.73
7597.00,1.73
7596.00,1.72
7595.00,1.72
7594.00,1.72
7593.00,1.71
7592.00,1.71
7591.00,1.70
7590.00,1.70
7589.00,1.69
7588.00,1.69
7587.00,1.68
7586.00,1.68
7585.00,1.67
7584.00,1.67
7583.00,1.67
7582.00,1.66
7581.00,1.66
7580.00,1.66
7579.00,1.65
7578.00,1.65
7577.00,1.65
7576.00,1.65
7575.00,1.65
7574.00,1.65
7573.00,1.65
7572.00,1.65
7571.00,1.65
7570.00,1.66
7569.00,1.66
7568.00,1.66
7567.00,1.66
7566.00,1.67
7565.00,1.67
7564.00,1.67
7563.00,1.68
7562.00,1.68
7561.00,1.68
7560.00,1.69
7559.00,1.69
7558.00,1.69
7557.00,1.70
7556.00,1.70
7555.00,1.70
7554.00,1.71
7553.00,1.71
7552.00,1.72
7551.00,1.72
7550.00,1.72
7549.00,1.73
7548.00,1.73
7547.00,1.74
7546.00,1.74
7545.00,1.74
7544.00,1.74
7543.00,1.74
7542.00,1.74
7541.00,1.74
7540.00,1.74
7539.00,1.74
7538.00,1.74
7537.00,1.74
7536.00,1.74
7535.00,1.73
7534.00,1.73
7533.00,1.73
7532.00,1.72
7531.00,1.72
7530.00,1.72
7529.00,1.71
7528.00,1.71
7527.00,1.71
7526.00,1.71
7525.00,1.71
7524.00,1.71
7523.00,1.71
7522.00,1.71
7521.00,1.71
7520.00,1.71
7519.00,1.71
7518.00,1.71
7517.00,1.72
7516.00,1.72
7515.00,1.72
7514.00,1.72
7513.00,1.72
7512.00,1.73
7511.00,1.73
7510.00,1.73
7509.00,1.73
7508.00,1.73
7507.00,1.73
7506.00,1.73
7505.00,1.73
7504.00,1.73
7503.00,1.73
7502.00,1.73
7501.00,1.73
7500.00,1.73
7499.00,1.73
7498.00,1.73
7497.00,1.73
7496.00,1.73
7495.00,1.73
7494.00,1.73
7493.00,1.73
7492.00,1.73
7491.00,1.73
7490.00,1.73
7489.00,1.73
7488.00,1.72
7487.00,1.72
7486.00,1.72
7485.00,1.72
7484.00,1.72
7483.00,1.72
7482.00,1.72
7481.00,1.72
7480.00,1.72
7479.00,1.72
7478.00,1.71
7477.00,1.71
7476.00,1.71
7475.00,1.71
7474.00,1.71
7473.00,1.71
7472.00,1.72
7471.00,1.72
7470.00,1.72
7469.00,1.72
7468.00,1.72
7467.00,1.72
7466.00,1.72
7465.00,1.72
7464.00,1.72
7463.00,1.72
7462.00,1.71
7461.00,1.71
7460.00,1.71
7459.00,1.71
7458.00,1.70
7457.00,1.70
7456.00,1.69
7455.00,1.69
7454.00,1.68
7453.00,1.68
7452.00,1.67
7451.00,1.67
7450.00,1.66
7449.00,1.66
7448.00,1.66
7447.00,1.65
7446.00,1.65
7445.00,1.65
7444.00,1.66
7443.00,1.66
7442.00,1.66
7441.00,1.67
7440.00,1.67
7439.00,1.68
7438.00,1.69
7437.00,1.69
7436.00,1.70
7435.00,1.71
7434.00,1.71
7433.00,1.72
7432.00,1.72
7431.00,1.72
7430.00,1.73
7429.00,1.73
7428.00,1.73
7427.00,1.73
7426.00,1.73
7425.00,1.73
7424.00,1.73
7423.00,1.73
7422.00,1.73
7421.00,1.72
7420.00,1.72
7419.00,1.72
7418.00,1.72
7417.00,1.72
7416.00,1.72
7415.00,1.72
7414.00,1.72
7413.00,1.72
7412.00,1.72
7411.00,1.72
7410.00,1.71
7409.00,1.71
7408.00,1.71
7407.00,1.71
7406.00,1.71
7405.00,1.70
7404.00,1.70
7403.00,1.69
7402.00,1.69
7401.00,1.68
7400.00,1.68
7399.00,1.67
7398.00,1.67
7397.00,1.66
7396.00,1.66
7395.00,1.65
7394.00,1.65
7393.00,1.64
7392.00,1.64
7391.00,1.64
7390.00,1.63
7389.00,1.63
7388.00,1.63
7387.00,1.63
7386.00,1.63
7385.00,1.62
7384.00,1.62
7383.00,1.62
7382.00,1.62
7381.00,1.62
7380.00,1.61
7379.00,1.61
7378.00,1.61
7377.00,1.60
7376.00,1.60
7375.00,1.60
7374.00,1.60
7373.00,1.59
7372.00,1.59
7371.00,1.59
7370.00,1.59
7369.00,1.59
7368.00,1.59
7367.00,1.59
7366.00,1.59
7365.00,1.58
7364.00,1.58
7363.00,1.58
7362.00,1.58
7361.00,1.58
7360.00,1.58
7359.00,1.58
7358.00,1.58
7357.00,1.57
7356.00,1.57
7355.00,1.57
7354.00,1.56
7353.00,1.56
7352.00,1.56
7351.00,1.55
7350.00,1.55
7349.00,1.55
7348.00,1.54
7347.00,1.54
7346.00,1.54
7345.00,1.54
7344.00,1.54
7343.00,1.54
7342.00,1.54
7341.00,1.54
7340.00,1.55
7339.00,1.55
7338.00,1.56
7337.00,1.56
7336.00,1.57
7335.00,1.57
7334.00,1.58
7333.00,1.58
7332.00,1.58
7331.00,1.59
7330.00,1.59
7329.00,1.59
7328.00,1.59
7327.00,1.60
7326.00,1.60
7325.00,1.60
7324.00,1.60
7323.00,1.60
7322.00,1.60
7321.00,1.60
7320.00,1.60
7319.00,1.60
7318.00,1.60
7317.00,1.60
7316.00,1.60
7315.00,1.61
7314.00,1.61
7313.00,1.61
7312.00,1.62
7311.00,1.62
7310.00,1.62
7309.00,1.63
7308.00,1.63
7307.00,1.63
7306.00,1.63
7305.00,1.63
7304.00,1.63
7303.00,1.63
7302.00,1.63
7301.00,1.63
7300.00,1.63
7299.00,1.62
7298.00,1.62
7297.00,1.62
7296.00,1.61
7295.00,1.61
7294.00,1.61
7293.00,1.60
7292.00,1.60
7291.00,1.59
7290.00,1.59
7289.00,1.59
7288.00,1.58
7287.00,1.58
7286.00,1.58
7285.00,1.58
7284.00,1.58
7283.00,1.58
7282.00,1.58
7281.00,1.58
7280.00,1.58
7279.00,1.58
7278.00,1.58
7277.00,1.58
7276.00,1.58
7275.00,1.58
7274.00,1.58
7273.00,1.58
7272.00,1.58
7271.00,1.58
7270.00,1.58
7269.00,1.58
7268.00,1.58
7267.00,1.58
7266.00,1.58
7265.00,1.58
7264.00,1.58
7263.00,1.58
7262.00,1.58
7261.00,1.58
7260.00,1.58
7259.00,1.58
7258.00,1.58
7257.00,1.58
7256.00,1.58
7255.00,1.58
7254.00,1.58
7253.00,1.58
7252.00,1.58
7251.00,1.58
7250.00,1.58
7249.00,1.58
7248.00,1.58
7247.00,1.59
7246.00,1.59
7245.00,1.59
7244.00,1.59
7243.00,1.60
7242.00,1.60
7241.00,1.60
7240.00,1.60
7239.00,1.61
7238.00,1.61
7237.00,1.61
7236.00,1.61
7235.00,1.60
7234.00,1.60
7233.00,1.60
7232.00,1.59
7231.00,1.59
7230.00,1.58
7229.00,1.58
7228.00,1.57
7227.00,1.56
7226.00,1.55
7225.00,1.54
7224.00,1.53
7223.00,1.52
7222.00,1.51
7221.00,1.50
7220.00,1.49
7219.00,1.48
7218.00,1.48
7217.00,1.47
7216.00,1.46
7215.00,1.46
7214.00,1.46
7213.00,1.45
7212.00,1.45
7211.00,1.45
7210.00,1.45
7209.00,1.45
7208.00,1.45
7207.00,1.45
7206.00,1.45
7205.00,1.46
7204.00,1.46
7203.00,1.46
7202.00,1.47
7201.00,1.47
7200.00,1.47
7199.00,1.47
7198.00,1.47
7197.00,1.47
7196.00,1.47
7195.00,1.47
7194.00,1.47
7193.00,1.47
7192.00,1.47
7191.00,1.47
7190.00,1.47
7189.00,1.47
7188.00,1.47
7187.00,1.46
7186.00,1.46
7185.00,1.46
7184.00,1.45
7183.00,1.45
7182.00,1.45
7181.00,1.45
7180.00,1.44
7179.00,1.44
7178.00,1.44
7177.00,1.43
7176.00,1.43
7175.00,1.42
7174.00,1.42
7173.00,1.41
7172.00,1.40
7171.00,1.40
7170.00,1.39
7169.00,1.39
7168.00,1.38
7167.00,1.37
7166.00,1.36
7165.00,1.36
7164.00,1.35
7163.00,1.35
7162.00,1.34
7161.00,1.34
7160.00,1.34
7159.00,1.34
7158.00,1.33
7157.00,1.33
7156.00,1.33
7155.00,1.33
7154.00,1.33
7153.00,1.34
7152.00,1.34
7151.00,1.34
7150.00,1.34
7149.00,1.34
7148.00,1.34
7147.00,1.34
7146.00,1.33
7145.00,1.33
7144.00,1.33
7143.00,1.32
7142.00,1.32
7141.00,1.31
7140.00,1.31
7139.00,1.31
7138.00,1.30
7137.00,1.30
7136.00,1.29
7135.00,1.29
7134.00,1.29
7133.00,1.28
7132.00,1.28
7131.00,1.28
7130.00,1.28
7129.00,1.27
7128.00,1.27
7127.00,1.27
7126.00,1.27
7125.00,1.27
7124.00,1.27
7123.00,1.27
7122.00,1.27
7121.00,1.27
7120.00,1.26
7119.00,1.26
7118.00,1.26
7117.00,1.26
7116.00,1.26
7115.00,1.25
7114.00,1.25
7113.00,1.25
7112.00,1.24
7111.00,1.24
7110.00,1.23
7109.00,1.23
7108.00,1.22
7107.00,1.22
7106.00,1.21
7105.00,1.21
7104.00,1.20
7103.00,1.20
7102.00,1.19
7101.00,1.19
7100.00,1.19
7099.00,1.18
7098.00,1.18
7097.00,1.18
7096.00,1.18
7095.00,1.18
7094.00,1.18
7093.00,1.18
7092.00,1.18
7091.00,1.18
7090.00,1.18
7089.00,1.18
7088.00,1.18
7087.00,1.18
7086.00,1.18
7085.00,1.17
7084.00,1.17
7083.00,1.17
7082.00,1.16
7081.00,1.16
7080.00,1.15
7079.00,1.15
7078.00,1.15
7077.00,1.14
7076.00,1.14
7075.00,1.13
7074.00,1.13
7073.00,1.13
7072.00,1.13
7071.00,1.13
7070.00,1.13
7069.00,1.13
7068.00,1.13
7067.00,1.13
7066.00,1.13
7065.00,1.14
7064.00,1.14
7063.00,1.15
7062.00,1.15
7061.00,1.15
7060.00,1.16
7059.00,1.16
7058.00,1.16
7057.00,1.16
7056.00,1.17
7055.00,1.17
7054.00,1.17
7053.00,1.16
7052.00,1.16
7051.00,1.16
7050.00,1.16
7049.00,1.15
7048.00,1.15
7047.00,1.14
7046.00,1.14
7045.00,1.13
7044.00,1.12
7043.00,1.12
7042.00,1.11
7041.00,1.10
7040.00,1.10
7039.00,1.09
7038.00,1.09
7037.00,1.08
7036.00,1.07
7035.00,1.07
7034.00,1.06
7033.00,1.06
7032.00,1.06
7031.00,1.05
7030.00,1.05
7029.00,1.05
7028.00,1.05
7027.00,1.05
7026.00,1.05
7025.00,1.05
7024.00,1.05
7023.00,1.06
7022.00,1.06
7021.00,1.07
7020.00,1.07
7019.00,1.08
7018.00,1.08
7017.00,1.08
7016.00,1.09
7015.00,1.09
7014.00,1.09
7013.00,1.09
7012.00,1.09
7011.00,1.09
7010.00,1.08
7009.00,1.08
7008.00,1.07
7007.00,1.07
7006.00,1.06
7005.00,1.05
7004.00,1.05
7003.00,1.04
7002.00,1.04
7001.00,1.03
7000.00,1.03
6999.00,1.02
6998.00,1.02
6997.00,1.02
6996.00,1.02
6995.00,1.02
6994.00,1.02
6993.00,1.03
6992.00,1.03
6991.00,1.03
6990.00,1.03
6989.00,1.04
6988.00,1.04
6987.00,1.04
6986.00,1.04
6985.00,1.04
6984.00,1.05
6983.00,1.05
6982.00,1.05
6981.00,1.05
6980.00,1.05
6979.00,1.05
6978.00,1.05
6977.00,1.05
6976.00,1.05
6975.00,1.05
6974.00,1.05
6973.00,1.05
6972.00,1.05
6971.00,1.05
6970.00,1.05
6969.00,1.06
6968.00,1.06
6967.00,1.06
6966.00,1.06
6965.00,1.06
6964.00,1.06
6963.00,1.06
6962.00,1.06
6961.00,1.06
6960.00,1.06
6959.00,1.06
6958.00,1.06
6957.00,1.05
6956.00,1.05
6955.00,1.05
6954.00,1.04
6953.00,1.04
6952.00,1.03
6951.00,1.03
6950.00,1.02
6949.00,1.02
6948.00,1.02
6947.00,1.01
6946.00,1.01
6945.00,1.01
6944.00,1.01
6943.00,1.00
6942.00,1.00
6941.00,1.00
6940.00,1.00
6939.00,1.00
6938.00,1.00
6937.00,1.00
6936.00,1.01
6935.00,1.01
6934.00,1.01
6933.00,1.01
6932.00,1.01
6931.00,1.02
6930.00,1.02
6929.00,1.02
6928.00,1.02
6927.00,1.02
6926.00,1.03
6925.00,1.03
6924.00,1.03
6923.00,1.03
6922.00,1.03
6921.00,1.03
6920.00,1.03
6919.00,1.03
6918.00,1.02
6917.00,1.02
6916.00,1.02
6915.00,1.01
6914.00,1.01
6913.00,1.01
6912.00,1.00
6911.00,1.00
6910.00,0.99
6909.00,0.99
6908.00,0.98
6907.00,0.98
6906.00,0.97
6905.00,0.97
6904.00,0.97
6903.00,0.97
6902.00,0.97
6901.00,0.97
6900.00,0.97
6899.00,0.97
6898.00,0.97
6897.00,0.97
6896.00,0.97
6895.00,0.98
6894.00,0.98
6893.00,0.98
6892.00,0.99
6891.00,0.99
6890.00,1.00
6889.00,1.00
6888.00,1.00
6887.00,1.01
6886.00,1.01
6885.00,1.01
6884.00,1.01
6883.00,1.02
6882.00,1.02
6881.00,1.02
6880.00,1.02
6879.00,1.01
6878.00,1.01
6877.00,1.01
6876.00,1.00
6875.00,1.00
6874.00,1.00
6873.00,0.99
6872.00,0.99
6871.00,0.98
6870.00,0.98
6869.00,0.98
6868.00,0.97
6867.00,0.97
6866.00,0.97
6865.00,0.96
6864.00,0.96
6863.00,0.96
6862.00,0.96
6861.00,0.96
6860.00,0.97
6859.00,0.97
6858.00,0.97
6857.00,0.98
6856.00,0.99
6855.00,0.99
6854.00,1.00
6853.00,1.00
6852.00,1.01
6851.00,1.02
6850.00,1.02
6849.00,1.03
6848.00,1.03
6847.00,1.04
6846.00,1.05
6845.00,1.05
6844.00,1.06
6843.00,1.06
6842.00,1.06
6841.00,1.06
6840.00,1.06
6839.00,1.06
6838.00,1.06
6837.00,1.06
6836.00,1.06
6835.00,1.06
6834.00,1.06
6833.00,1.05
6832.00,1.05
6831.00,1.05
6830.00,1.05
6829.00,1.04
6828.00,1.04
6827.00,1.04
6826.00,1.03
6825.00,1.03
6824.00,1.03
6823.00,1.02
6822.00,1.02
6821.00,1.02
6820.00,1.02
6819.00,1.01
6818.00,1.01
6817.00,1.01
6816.00,1.00
6815.00,1.00
6814.00,1.00
6813.00,1.00
6812.00,1.00
6811.00,1.00
6810.00,1.00
6809.00,1.00
6808.00,1.00
6807.00,1.00
6806.00,1.01
6805.00,1.01
6804.00,1.01
6803.00,1.01
6802.00,1.02
6801.00,1.02
6800.00,1.02
6799.00,1.02
6798.00,1.03
6797.00,1.03
6796.00,1.03
6795.00,1.03
6794.00,1.03
6793.00,1.03
6792.00,1.03
6791.00,1.03
6790.00,1.03
6789.00,1.03
6788.00,1.04
6787.00,1.04
6786.00,1.04
6785.00,1.04
6784.00,1.04
6783.00,1.04
6782.00,1.05
6781.00,1.05
6780.00,1.05
6779.00,1.05
6778.00,1.05
6777.00,1.05
6776.00,1.05
6775.00,1.05
6774.00,1.05
6773.00,1.05
6772.00,1.05
6771.00,1.04
6770.00,1.04
6769.00,1.04
6768.00,1.04
6767.00,1.04
6766.00,1.04
6765.00,1.04
6764.00,1.05
6763.00,1.05
6762.00,1.05
6761.00,1.05
6760.00,1.06
6759.00,1.06
6758.00,1.07
6757.00,1.07
6756.00,1.07
6755.00,1.08
6754.00,1.08
6753.00,1.08
6752.00,1.09
6751.00,1.09
6750.00,1.09
6749.00,1.10
6748.00,1.10
6747.00,1.10
6746.00,1.10
6745.00,1.10
6744.00,1.10
6743.00,1.10
6742.00,1.10
6741.00,1.10
6740.00,1.10
6739.00,1.10
6738.00,1.10
6737.00,1.10
6736.00,1.11
6735.00,1.11
6734.00,1.11
6733.00,1.11
6732.00,1.11
6731.00,1.12
6730.00,1.12
6729.00,1.12
6728.00,1.12
6727.00,1.12
6726.00,1.13
6725.00,1.13
6724.00,1.13
6723.00,1.13
6722.00,1.13
6721.00,1.13
6720.00,1.13
6719.00,1.13
6718.00,1.13
6717.00,1.13
6716.00,1.13
6715.00,1.13
6714.00,1.12
6713.00,1.12
6712.00,1.12
6711.00,1.12
6710.00,1.12
6709.00,1.12
6708.00,1.12
6707.00,1.12
6706.00,1.12
6705.00,1.12
6704.00,1.12
6703.00,1.12
6702.00,1.12
6701.00,1.13
6700.00,1.13
6699.00,1.13
6698.00,1.13
6697.00,1.13
6696.00,1.13
6695.00,1.13
6694.00,1.14
6693.00,1.14
6692.00,1.14
6691.00,1.14
6690.00,1.14
6689.00,1.14
6688.00,1.14
6687.00,1.14
6686.00,1.14
6685.00,1.14
6684.00,1.14
6683.00,1.14
6682.00,1.14
6681.00,1.13
6680.00,1.13
6679.00,1.13
6678.00,1.13
6677.00,1.13
6676.00,1.13
6675.00,1.13
6674.00,1.13
6673.00,1.13
6672.00,1.14
6671.00,1.14
6670.00,1.14
6669.00,1.14
6668.00,1.14
6667.00,1.15
6666.00,1.15
6665.00,1.15
6664.00,1.15
6663.00,1.16
6662.00,1.16
6661.00,1.16
6660.00,1.16
6659.00,1.16
6658.00,1.16
6657.00,1.17
6656.00,1.17
6655.00,1.17
6654.00,1.17
6653.00,1.17
6652.00,1.17
6651.00,1.18
6650.00,1.18
6649.00,1.18
6648.00,1.18
6647.00,1.18
6646.00,1.19
6645.00,1.19
6644.00,1.19
6643.00,1.19
6642.00,1.20
6641.00,1.20
6640.00,1.20
6639.00,1.20
6638.00,1.20
6637.00,1.20
6636.00,1.21
6635.00,1.21
6634.00,1.21
6633.00,1.21
6632.00,1.21
6631.00,1.21
6630.00,1.21
6629.00,1.21
6628.00,1.21
6627.00,1.22
6626.00,1.22
6625.00,1.22
6624.00,1.23
6623.00,1.23
6622.00,1.24
6621.00,1.24
6620.00,1.25
6619.00,1.25
6618.00,1.26
6617.00,1.26
6616.00,1.26
6615.00,1.27
6614.00,1.27
6613.00,1.27
6612.00,1.27
6611.00,1.27
6610.00,1.27
6609.00,1.27
6608.00,1.27
6607.00,1.27
6606.00,1.27
6605.00,1.27
6604.00,1.27
6603.00,1.27
6602.00,1.27
6601.00,1.27
6600.00,1.27
6599.00,1.27
6598.00,1.27
6597.00,1.27
6596.00,1.27
6595.00,1.27
6594.00,1.28
6593.00,1.28
6592.00,1.28
6591.00,1.29
6590.00,1.29
6589.00,1.29
6588.00,1.29
6587.00,1.30
6586.00,1.30
6585.00,1.30
6584.00,1.30
6583.00,1.30
6582.00,1.30
6581.00,1.30
6580.00,1.30
6579.00,1.30
6578.00,1.30
6577.00,1.30
6576.00,1.30
6575.00,1.30
6574.00,1.30
6573.00,1.30
6572.00,1.30
6571.00,1.30
6570.00,1.29
6569.00,1.29
6568.00,1.29
6567.00,1.29
6566.00,1.30
6565.00,1.30
6564.00,1.30
6563.00,1.30
6562.00,1.30
6561.00,1.30
6560.00,1.30
6559.00,1.30
6558.00,1.30
6557.00,1.30
6556.00,1.30
6555.00,1.30
6554.00,1.30
6553.00,1.30
6552.00,1.30
6551.00,1.30
6550.00,1.30
6549.00,1.30
6548.00,1.30
6547.00,1.30
6546.00,1.30
6545.00,1.30
6544.00,1.30
6543.00,1.30
6542.00,1.30
6541.00,1.30
6540.00,1.30
6539.00,1.30
6538.00,1.30
6537.00,1.30
6536.00,1.30
6535.00,1.30
6534.00,1.30
6533.00,1.30
6532.00,1.30
6531.00,1.30
6530.00,1.30
6529.00,1.30
6528.00,1.30
6527.00,1.30
6526.00,1.30
6525.00,1.30
6524.00,1.30
6523.00,1.30
6522.00,1.30
6521.00,1.30
6520.00,1.30
6519.00,1.30
6518.00,1.30
6517.00,1.30
6516.00,1.30
6515.00,1.31
6514.00,1.31
6513.00,1.31
6512.00,1.31
6511.00,1.32
6510.00,1.32
6509.00,1.32
6508.00,1.33
6507.00,1.33
6506.00,1.33
6505.00,1.34
6504.00,1.34
6503.00,1.34
6502.00,1.34
6501.00,1.34
6500.00,1.34
6499.00,1.34
6498.00,1.34
6497.00,1.34
6496.00,1.34
6495.00,1.34
6494.00,1.34
6493.00,1.35
6492.00,1.35
6491.00,1.35
6490.00,1.35
6489.00,1.35
6488.00,1.36
6487.00,1.36
6486.00,1.36
6485.00,1.36
6484.00,1.36
6483.00,1.36
6482.00,1.36
6481.00,1.36
6480.00,1.36
6479.00,1.36
6478.00,1.36
6477.00,1.36
6476.00,1.35
6475.00,1.35
6474.00,1.35
6473.00,1.34
6472.00,1.34
6471.00,1.34
6470.00,1.34
6469.00,1.33
6468.00,1.33
6467.00,1.33
6466.00,1.33
6465.00,1.33
6464.00,1.33
6463.00,1.33
6462.00,1.33
6461.00,1.34
6460.00,1.34
6459.00,1.34
6458.00,1.34
6457.00,1.35
6456.00,1.35
6455.00,1.36
6454.00,1.36
6453.00,1.37
6452.00,1.37
6451.00,1.38
6450.00,1.38
6449.00,1.39
6448.00,1.39
6447.00,1.39
6446.00,1.40
6445.00,1.40
6444.00,1.40
6443.00,1.40
6442.00,1.41
6441.00,1.40
6440.00,1.40
6439.00,1.40
6438.00,1.40
6437.00,1.40
6436.00,1.39
6435.00,1.39
6434.00,1.39
6433.00,1.38
6432.00,1.38
6431.00,1.38
6430.00,1.38
6429.00,1.38
6428.00,1.38
6427.00,1.38
6426.00,1.38
6425.00,1.38
6424.00,1.38
6423.00,1.38
6422.00,1.38
6421.00,1.38
6420.00,1.39
6419.00,1.39
6418.00,1.39
6417.00,1.39
6416.00,1.39
6415.00,1.40
6414.00,1.40
6413.00,1.40
6412.00,1.40
6411.00,1.40
6410.00,1.40
6409.00,1.40
6408.00,1.41
6407.00,1.41
6406.00,1.41
6405.00,1.41
6404.00,1.41
6403.00,1.41
6402.00,1.41
6401.00,1.41
6400.00,1.41
6399.00,1.41
6398.00,1.41
6397.00,1.41
6396.00,1.41
6395.00,1.41
6394.00,1.41
6393.00,1.41
6392.00,1.41
6391.00,1.41
6390.00,1.40
6389.00,1.40
6388.00,1.40
6387.00,1.40
6386.00,1.40
6385.00,1.40
6384.00,1.40
6383.00,1.40
6382.00,1.40
6381.00,1.40
6380.00,1.40
6379.00,1.40
6378.00,1.40
6377.00,1.41
6376.00,1.41
6375.00,1.41
6374.00,1.42
6373.00,1.42
6372.00,1.43
6371.00,1.43
6370.00,1.44
6369.00,1.44
6368.00,1.44
6367.00,1.45
6366.00,1.45
6365.00,1.45
6364.00,1.45
6363.00,1.45
6362.00,1.45
6361.00,1.45
6360.00,1.45
6359.00,1.45
6358.00,1.45
6357.00,1.45
6356.00,1.45
6355.00,1.45
6354.00,1.45
6353.00,1.45
6352.00,1.45
6351.00,1.45
6350.00,1.45
6349.00,1.45
6348.00,1.45
6347.00,1.45
6346.00,1.45
6345.00,1.46
6344.00,1.46
6343.00,1.46
6342.00,1.47
6341.00,1.47
6340.00,1.48
6339.00,1.48
6338.00,1.49
6337.00,1.49
6336.00,1.49
6335.00,1.50
6334.00,1.50
6333.00,1.50
6332.00,1.50
6331.00,1.50
6330.00,1.51
6329.00,1.51
6328.00,1.51
6327.00,1.51
6326.00,1.51
6325.00,1.51
6324.00,1.51
6323.00,1.51
6322.00,1.51
6321.00,1.51
6320.00,1.51
6319.00,1.51
6318.00,1.51
6317.00,1.51
6316.00,1.51
6315.00,1.50
6314.00,1.50
6313.00,1.50
6312.00,1.50
6311.00,1.50
6310.00,1.50
6309.00,1.50
6308.00,1.50
6307.00,1.50
6306.00,1.49
6305.00,1.49
6304.00,1.49
6303.00,1.49
6302.00,1.48
6301.00,1.48
6300.00,1.48
6299.00,1.48
6298.00,1.48
6297.00,1.48
6296.00,1.48
6295.00,1.48
6294.00,1.48
6293.00,1.48
6292.00,1.48
6291.00,1.48
6290.00,1.49
6289.00,1.49
6288.00,1.50
6287.00,1.51
6286.00,1.51
6285.00,1.52
6284.00,1.52
6283.00,1.53
6282.00,1.54
6281.00,1.54
6280.00,1.55
6279.00,1.55
6278.00,1.55
6277.00,1.56
6276.00,1.56
6275.00,1.56
6274.00,1.56
6273.00,1.55
6272.00,1.55
6271.00,1.55
6270.00,1.55
6269.00,1.54
6268.00,1.54
6267.00,1.54
6266.00,1.53
6265.00,1.53
6264.00,1.53
6263.00,1.53
6262.00,1.53
6261.00,1.53
6260.00,1.53
6259.00,1.53
6258.00,1.53
6257.00,1.53
6256.00,1.53
6255.00,1.53
6254.00,1.54
6253.00,1.54
6252.00,1.54
6251.00,1.55
6250.00,1.55
6249.00,1.56
6248.00,1.56
6247.00,1.56
6246.00,1.57
6245.00,1.57
6244.00,1.57
6243.00,1.57
6242.00,1.57
6241.00,1.58
6240.00,1.58
6239.00,1.58
6238.00,1.58
6237.00,1.58
6236.00,1.58
6235.00,1.58
6234.00,1.58
6233.00,1.58
6232.00,1.57
6231.00,1.57
6230.00,1.58
6229.00,1.58
6228.00,1.58
6227.00,1.58
6226.00,1.58
6225.00,1.58
6224.00,1.59
6223.00,1.59
6222.00,1.59
6221.00,1.59
6220.00,1.60
6219.00,1.60
6218.00,1.60
6217.00,1.61
6216.00,1.61
6215.00,1.61
6214.00,1.62
6213.00,1.62
6212.00,1.62
6211.00,1.62
6210.00,1.62
6209.00,1.63
6208.00,1.63
6207.00,1.63
6206.00,1.63
6205.00,1.63
6204.00,1.63
6203.00,1.63
6202.00,1.63
6201.00,1.63
6200.00,1.63
6199.00,1.63
6198.00,1.63
6197.00,1.64
6196.00,1.64
6195.00,1.64
6194.00,1.64
6193.00,1.64
6192.00,1.65
6191.00,1.65
6190.00,1.65
6189.00,1.66
6188.00,1.66
6187.00,1.66
6186.00,1.67
6185.00,1.67
6184.00,1.67
6183.00,1.67
6182.00,1.68
6181.00,1.68
6180.00,1.68
6179.00,1.68
6178.00,1.68
6177.00,1.68
6176.00,1.68
6175.00,1.68
6174.00,1.68
6173.00,1.68
6172.00,1.68
6171.00,1.68
6170.00,1.68
6169.00,1.68
6168.00,1.68
6167.00,1.67
6166.00,1.67
6165.00,1.67
6164.00,1.67
6163.00,1.67
6162.00,1.67
6161.00,1.66
6160.00,1.66
6159.00,1.66
6158.00,1.66
6157.00,1.66
6156.00,1.66
6155.00,1.66
6154.00,1.66
6153.00,1.66
6152.00,1.66
6151.00,1.66
6150.00,1.67
6149.00,1.67
6148.00,1.67
6147.00,1.68
6146.00,1.68
6145.00,1.69
6144.00,1.69
6143.00,1.70
6142.00,1.70
6141.00,1.71
6140.00,1.71
6139.00,1.71
6138.00,1.71
6137.00,1.71
6136.00,1.72
6135.00,1.72
6134.00,1.72
6133.00,1.72
6132.00,1.72
6131.00,1.72
6130.00,1.71
6129.00,1.71
6128.00,1.71
6127.00,1.71
6126.00,1.71
6125.00,1.71
6124.00,1.71
6123.00,1.71
6122.00,1.70
6121.00,1.70
6120.00,1.70
6119.00,1.70
6118.00,1.70
6117.00,1.70
6116.00,1.70
6115.00,1.70
6114.00,1.69
6113.00,1.69
6112.00,1.69
6111.00,1.69
6110.00,1.69
6109.00,1.68
6108.00,1.68
6107.00,1.68
6106.00,1.68
6105.00,1.68
6104.00,1.68
6103.00,1.68
6102.00,1.68
6101.00,1.68
6100.00,1.68
6099.00,1.68
6098.00,1.68
6097.00,1.68
6096.00,1.68
6095.00,1.69
6094.00,1.69
6093.00,1.69
6092.00,1.69
6091.00,1.70
6090.00,1.70
6089.00,1.70
6088.00,1.70
6087.00,1.70
6086.00,1.71
6085.00,1.71
6084.00,1.71
6083.00,1.71
6082.00,1.71
6081.00,1.71
6080.00,1.71
6079.00,1.71
6078.00,1.71
6077.00,1.71
6076.00,1.71
6075.00,1.70
6074.00,1.70
6073.00,1.70
6072.00,1.70
6071.00,1.70
6070.00,1.70
6069.00,1.70
6068.00,1.70
6067.00,1.70
6066.00,1.70
6065.00,1.70
6064.00,1.70
6063.00,1.70
6062.00,1.70
6061.00,1.70
6060.00,1.70
6059.00,1.70
6058.00,1.70
6057.00,1.70
6056.00,1.71
6055.00,1.71
6054.00,1.71
6053.00,1.71
6052.00,1.72
6051.00,1.72
6050.00,1.72
6049.00,1.73
6048.00,1.73
6047.00,1.73
6046.00,1.74
6045.00,1.74
6044.00,1.74
6043.00,1.75
6042.00,1.75
6041.00,1.75
6040.00,1.75
6039.00,1.75
6038.00,1.75
6037.00,1.76
6036.00,1.76
6035.00,1.76
6034.00,1.76
6033.00,1.76
6032.00,1.76
6031.00,1.76
6030.00,1.76
6029.00,1.76
6028.00,1.77
6027.00,1.77
6026.00,1.77
6025.00,1.76
6024.00,1.76
6023.00,1.76
6022.00,1.76
6021.00,1.76
6020.00,1.76
6019.00,1.76
6018.00,1.76
6017.00,1.76
6016.00,1.76
6015.00,1.76
6014.00,1.76
6013.00,1.75
6012.00,1.75
6011.00,1.75
6010.00,1.75
6009.00,1.75
6008.00,1.75
6007.00,1.76
6006.00,1.76
6005.00,1.76
6004.00,1.76
6003.00,1.76
6002.00,1.76
6001.00,1.76
6000.00,1.76
5999.00,1.76
5998.00,1.76
5997.00,1.76
5996.00,1.76
5995.00,1.76
5994.00,1.76
5993.00,1.76
5992.00,1.76
5991.00,1.75
5990.00,1.75
5989.00,1.75
5988.00,1.74
5987.00,1.74
5986.00,1.74
5985.00,1.73
5984.00,1.73
5983.00,1.72
5982.00,1.72
5981.00,1.72
5980.00,1.71
5979.00,1.71
5978.00,1.70
5977.00,1.70
5976.00,1.70
5975.00,1.70
5974.00,1.70
5973.00,1.69
5972.00,1.69
5971.00,1.69
5970.00,1.69
5969.00,1.69
5968.00,1.69
5967.00,1.68
5966.00,1.68
5965.00,1.68
5964.00,1.68
5963.00,1.67
5962.00,1.67
5961.00,1.67
5960.00,1.66
5959.00,1.66
5958.00,1.65
5957.00,1.65
5956.00,1.64
5955.00,1.64
5954.00,1.63
5953.00,1.63
5952.00,1.62
5951.00,1.62
5950.00,1.62
5949.00,1.61
5948.00,1.61
5947.00,1.61
5946.00,1.61
5945.00,1.61
5944.00,1.61
5943.00,1.61
5942.00,1.61
5941.00,1.61
5940.00,1.61
5939.00,1.61
5938.00,1.61
5937.00,1.61
5936.00,1.61
5935.00,1.61
5934.00,1.61
5933.00,1.61
5932.00,1.61
5931.00,1.61
5930.00,1.61
5929.00,1.60
5928.00,1.60
5927.00,1.60
5926.00,1.60
5925.00,1.59
5924.00,1.59
5923.00,1.59
5922.00,1.58
5921.00,1.58
5920.00,1.58
5919.00,1.57
5918.00,1.57
5917.00,1.57
5916.00,1.56
5915.00,1.56
5914.00,1.55
5913.00,1.55
5912.00,1.55
5911.00,1.55
5910.00,1.54
5909.00,1.54
5908.00,1.54
5907.00,1.54
5906.00,1.54
5905.00,1.53
5904.00,1.53
5903.00,1.53
5902.00,1.53
5901.00,1.53
5900.00,1.53
5899.00,1.53
5898.00,1.53
5897.00,1.53
5896.00,1.53
5895.00,1.53
5894.00,1.54
5893.00,1.54
5892.00,1.54
5891.00,1.54
5890.00,1.54
5889.00,1.54
5888.00,1.54
5887.00,1.54
5886.00,1.55
5885.00,1.55
5884.00,1.55
5883.00,1.55
5882.00,1.56
5881.00,1.56
5880.00,1.56
5879.00,1.56
5878.00,1.57
5877.00,1.57
5876.00,1.57
5875.00,1.58
5874.00,1.58
5873.00,1.58
5872.00,1.59
5871.00,1.59
5870.00,1.60
5869.00,1.60
5868.00,1.60
5867.00,1.61
5866.00,1.61
5865.00,1.61
5864.00,1.62
5863.00,1.62
5862.00,1.62
5861.00,1.62
5860.00,1.62
5859.00,1.63
5858.00,1.63
5857.00,1.63
5856.00,1.63
5855.00,1.63
5854.00,1.63
5853.00,1.63
5852.00,1.63
5851.00,1.63
5850.00,1.63
5849.00,1.64
5848.00,1.64
5847.00,1.64
5846.00,1.64
5845.00,1.64
5844.00,1.65
5843.00,1.65
5842.00,1.65
5841.00,1.66
5840.00,1.66
5839.00,1.66
5838.00,1.66
5837.00,1.67
5836.00,1.67
5835.00,1.67
5834.00,1.67
5833.00,1.67
5832.00,1.67
5831.00,1.67
5830.00,1.67
5829.00,1.66
5828.00,1.66
5827.00,1.66
5826.00,1.65
5825.00,1.65
5824.00,1.64
5823.00,1.64
5822.00,1.64
5821.00,1.64
5820.00,1.63
5819.00,1.63
5818.00,1.63
5817.00,1.63
5816.00,1.63
5815.00,1.63
5814.00,1.63
5813.00,1.64
5812.00,1.64
5811.00,1.64
5810.00,1.64
5809.00,1.64
5808.00,1.64
5807.00,1.64
5806.00,1.64
5805.00,1.64
5804.00,1.64
5803.00,1.64
5802.00,1.64
5801.00,1.64
5800.00,1.63
5799.00,1.63
5798.00,1.63
5797.00,1.63
5796.00,1.63
5795.00,1.62
5794.00,1.62
5793.00,1.62
5792.00,1.62
5791.00,1.61
5790.00,1.61
5789.00,1.61
5788.00,1.60
5787.00,1.60
5786.00,1.60
5785.00,1.59
5784.00,1.59
5783.00,1.59
5782.00,1.59
5781.00,1.59
5780.00,1.58
5779.00,1.58
5778.00,1.58
5777.00,1.58
5776.00,1.58
5775.00,1.58
5774.00,1.58
5773.00,1.58
5772.00,1.58
5771.00,1.59
5770.00,1.59
5769.00,1.59
5768.00,1.59
5767.00,1.59
5766.00,1.59
5765.00,1.59
5764.00,1.59
5763.00,1.60
5762.00,1.60
5761.00,1.60
5760.00,1.60
5759.00,1.60
5758.00,1.61
5757.00,1.61
5756.00,1.61
5755.00,1.61
5754.00,1.62
5753.00,1.62
5752.00,1.62
5751.00,1.62
5750.00,1.63
5749.00,1.63
5748.00,1.63
5747.00,1.63
5746.00,1.64
5745.00,1.64
5744.00,1.64
5743.00,1.64
5742.00,1.64
5741.00,1.64
5740.00,1.64
5739.00,1.64
5738.00,1.64
5737.00,1.64
5736.00,1.64
5735.00,1.64
5734.00,1.64
5733.00,1.64
5732.00,1.64
5731.00,1.64
5730.00,1.64
5729.00,1.64
5728.00,1.64
5727.00,1.64
5726.00,1.64
5725.00,1.64
5724.00,1.64
5723.00,1.64
5722.00,1.64
5721.00,1.64
5720.00,1.64
5719.00,1.64
5718.00,1.64
5717.00,1.64
5716.00,1.64
5715.00,1.64
5714.00,1.64
5713.00,1.64
5712.00,1.64
5711.00,1.64
5710.00,1.64
5709.00,1.64
5708.00,1.64
5707.00,1.64
5706.00,1.64
5705.00,1.64
5704.00,1.64
5703.00,1.64
5702.00,1.63
5701.00,1.63
5700.00,1.63
5699.00,1.63
5698.00,1.62
5697.00,1.62
5696.00,1.62
5695.00,1.62
5694.00,1.61
5693.00,1.61
5692.00,1.61
5691.00,1.61
5690.00,1.61
5689.00,1.61
5688.00,1.61
5687.00,1.61
5686.00,1.61
5685.00,1.61
5684.00,1.61
5683.00,1.61
5682.00,1.61
5681.00,1.61
5680.00,1.61
5679.00,1.62
5678.00,1.62
5677.00,1.62
5676.00,1.62
5675.00,1.62
5674.00,1.62
5673.00,1.62
5672.00,1.62
5671.00,1.62
5670.00,1.62
5669.00,1.61
5668.00,1.61
5667.00,1.61
5666.00,1.61
5665.00,1.61
5664.00,1.61
5663.00,1.61
5662.00,1.61
5661.00,1.61
5660.00,1.61
5659.00,1.61
5658.00,1.61
5657.00,1.61
5656.00,1.61
5655.00,1.61
5654.00,1.62
5653.00,1.62
5652.00,1.62
5651.00,1.63
5650.00,1.63
5649.00,1.64
5648.00,1.64
5647.00,1.65
5646.00,1.65
5645.00,1.66
5644.00,1.66
5643.00,1.67
5642.00,1.67
5641.00,1.68
5640.00,1.68
5639.00,1.68
5638.00,1.68
5637.00,1.69
5636.00,1.69
5635.00,1.69
5634.00,1.69
5633.00,1.68
5632.00,1.68
5631.00,1.68
5630.00,1.68
5629.00,1.68
5628.00,1.67
5627.00,1.67
5626.00,1.67
5625.00,1.67
5624.00,1.67
5623.00,1.67
5622.00,1.67
5621.00,1.66
5620.00,1.66
5619.00,1.66
5618.00,1.66
5617.00,1.66
5616.00,1.67
5615.00,1.67
5614.00,1.67
5613.00,1.67
5612.00,1.67
5611.00,1.67
5610.00,1.67
5609.00,1.68
5608.00,1.68
5607.00,1.68
5606.00,1.68
5605.00,1.68
5604.00,1.69
5603.00,1.69
5602.00,1.69
5601.00,1.69
5600.00,1.69
5599.00,1.70
5598.00,1.70
5597.00,1.70
5596.00,1.70
5595.00,1.70
5594.00,1.70
5593.00,1.70
5592.00,1.70
5591.00,1.70
5590.00,1.71
5589.00,1.71
5588.00,1.71
5587.00,1.71
5586.00,1.71
5585.00,1.71
5584.00,1.72
5583.00,1.72
5582.00,1.72
5581.00,1.72
5580.00,1.73
5579.00,1.73
5578.00,1.73
5577.00,1.74
5576.00,1.74
5575.00,1.74
5574.00,1.75
5573.00,1.75
5572.00,1.75
5571.00,1.76
5570.00,1.76
5569.00,1.76
5568.00,1.76
5567.00,1.77
5566.00,1.77
5565.00,1.77
5564.00,1.77
5563.00,1.77
5562.00,1.77
5561.00,1.77
5560.00,1.77
5559.00,1.77
5558.00,1.77
5557.00,1.77
5556.00,1.77
5555.00,1.77
5554.00,1.77
5553.00,1.77
5552.00,1.77
5551.00,1.77
5550.00,1.77
5549.00,1.76
5548.00,1.76
5547.00,1.77
5546.00,1.77
5545.00,1.77
5544.00,1.77
5543.00,1.77
5542.00,1.77
5541.00,1.77
5540.00,1.78
5539.00,1.78
5538.00,1.78
5537.00,1.78
5536.00,1.78
5535.00,1.78
5534.00,1.78
5533.00,1.78
5532.00,1.78
5531.00,1.78
5530.00,1.78
5529.00,1.78
5528.00,1.78
5527.00,1.78
5526.00,1.77
5525.00,1.77
5524.00,1.77
5523.00,1.77
5522.00,1.77
5521.00,1.77
5520.00,1.77
5519.00,1.77
5518.00,1.77
5517.00,1.77
5516.00,1.78
5515.00,1.78
5514.00,1.78
5513.00,1.78
5512.00,1.78
5511.00,1.78
5510.00,1.78
5509.00,1.78
5508.00,1.78
5507.00,1.78
5506.00,1.78
5505.00,1.78
5504.00,1.78
5503.00,1.78
5502.00,1.78
5501.00,1.79
5500.00,1.79
5499.00,1.79
5498.00,1.79
5497.00,1.79
5496.00,1.80
5495.00,1.80
5494.00,1.80
5493.00,1.80
5492.00,1.80
5491.00,1.80
5490.00,1.80
5489.00,1.80
5488.00,1.80
5487.00,1.80
5486.00,1.80
5485.00,1.80
5484.00,1.80
5483.00,1.80
5482.00,1.80
5481.00,1.80
5480.00,1.80
5479.00,1.81
5478.00,1.81
5477.00,1.81
5476.00,1.81
5475.00,1.81
5474.00,1.81
5473.00,1.81
5472.00,1.81
5471.00,1.81
5470.00,1.82
5469.00,1.82
5468.00,1.82
5467.00,1.82
5466.00,1.82
5465.00,1.82
5464.00,1.81
5463.00,1.81
5462.00,1.81
5461.00,1.81
5460.00,1.81
5459.00,1.80
5458.00,1.80
5457.00,1.80
5456.00,1.80
5455.00,1.79
5454.00,1.79
5453.00,1.79
5452.00,1.78
5451.00,1.78
5450.00,1.78
5449.00,1.77
5448.00,1.77
5447.00,1.77
5446.00,1.77
5445.00,1.77
5444.00,1.77
5443.00,1.77
5442.00,1.77
5441.00,1.77
5440.00,1.77
5439.00,1.77
5438.00,1.77
5437.00,1.78
5436.00,1.78
5435.00,1.78
5434.00,1.79
5433.00,1.79
5432.00,1.79
5431.00,1.80
5430.00,1.80
5429.00,1.80
5428.00,1.80
5427.00,1.81
5426.00,1.81
5425.00,1.81
5424.00,1.81
5423.00,1.81
5422.00,1.81
5421.00,1.81
5420.00,1.81
5419.00,1.81
5418.00,1.81
5417.00,1.81
5416.00,1.81
5415.00,1.81
5414.00,1.81
5413.00,1.81
5412.00,1.81
5411.00,1.81
5410.00,1.82
5409.00,1.82
5408.00,1.82
5407.00,1.82
5406.00,1.82
5405.00,1.82
5404.00,1.82
5403.00,1.82
5402.00,1.82
5401.00,1.82
5400.00,1.82
5399.00,1.82
5398.00,1.82
5397.00,1.81
5396.00,1.81
5395.00,1.81
5394.00,1.81
5393.00,1.81
5392.00,1.81
5391.00,1.81
5390.00,1.81
5389.00,1.81
5388.00,1.81
5387.00,1.81
5386.00,1.80
5385.00,1.80
5384.00,1.80
5383.00,1.80
5382.00,1.80
5381.00,1.80
5380.00,1.80
5379.00,1.79
5378.00,1.79
5377.00,1.79
5376.00,1.79
5375.00,1.78
5374.00,1.78
5373.00,1.78
5372.00,1.77
5371.00,1.77
5370.00,1.77
5369.00,1.76
5368.00,1.75
5367.00,1.75
5366.00,1.74
5365.00,1.73
5364.00,1.73
5363.00,1.72
5362.00,1.71
5361.00,1.70
5360.00,1.69
5359.00,1.69
5358.00,1.68
5357.00,1.67
5356.00,1.66
5355.00,1.66
5354.00,1.65
5353.00,1.64
5352.00,1.64
5351.00,1.63
5350.00,1.62
5349.00,1.62
5348.00,1.61
5347.00,1.61
5346.00,1.60
5345.00,1.60
5344.00,1.59
5343.00,1.59
5342.00,1.58
5341.00,1.58
5340.00,1.57
5339.00,1.56
5338.00,1.55
5337.00,1.55
5336.00,1.54
5335.00,1.53
5334.00,1.52
5333.00,1.51
5332.00,1.50
5331.00,1.49
5330.00,1.48
5329.00,1.47
5328.00,1.46
5327.00,1.45
5326.00,1.44
5325.00,1.43
5324.00,1.41
5323.00,1.40
5322.00,1.38
5321.00,1.37
5320.00,1.36
5319.00,1.34
5318.00,1.32
5317.00,1.31
5316.00,1.29
5315.00,1.28
5314.00,1.26
5313.00,1.24
5312.00,1.23
5311.00,1.21
5310.00,1.20
5309.00,1.18
5308.00,1.17
5307.00,1.16
5306.00,1.15
5305.00,1.14
5304.00,1.12
5303.00,1.12
5302.00,1.11
5301.00,1.10
5300.00,1.09
5299.00,1.08
5298.00,1.07
5297.00,1.07
5296.00,1.06
5295.00,1.05
5294.00,1.05
5293.00,1.04
5292.00,1.03
5291.00,1.02
5290.00,1.01
5289.00,1.01
5288.00,1.00
5287.00,0.99
5286.00,0.98
5285.00,0.98
5284.00,0.97
5283.00,0.96
5282.00,0.96
5281.00,0.95
5280.00,0.94
5279.00,0.93
5278.00,0.93
5277.00,0.92
5276.00,0.91
5275.00,0.90
5274.00,0.89
5273.00,0.89
5272.00,0.88
5271.00,0.87
5270.00,0.87
5269.00,0.86
5268.00,0.86
5267.00,0.85
5266.00,0.84
5265.00,0.84
5264.00,0.84
5263.00,0.83
5262.00,0.83
5261.00,0.83
5260.00,0.83
5259.00,0.83
5258.00,0.83
5257.00,0.83
5256.00,0.83
5255.00,0.83
5254.00,0.83
5253.00,0.83
5252.00,0.83
5251.00,0.83
5250.00,0.84
5249.00,0.84
5248.00,0.84
5247.00,0.83
5246.00,0.83
5245.00,0.83
5244.00,0.83
5243.00,0.83
5242.00,0.82
5241.00,0.82
5240.00,0.82
5239.00,0.82
5238.00,0.82
5237.00,0.82
5236.00,0.81
5235.00,0.81
5234.00,0.81
5233.00,0.81
5232.00,0.81
5231.00,0.81
5230.00,0.81
5229.00,0.81
5228.00,0.81
5227.00,0.81
5226.00,0.81
5225.00,0.81
5224.00,0.81
5223.00,0.81
5222.00,0.81
5221.00,0.81
5220.00,0.81
5219.00,0.81
5218.00,0.81
5217.00,0.81
5216.00,0.81
5215.00,0.81
5214.00,0.81
5213.00,0.81
5212.00,0.81
5211.00,0.80
5210.00,0.80
5209.00,0.80
5208.00,0.80
5207.00,0.80
5206.00,0.80
5205.00,0.80
5204.00,0.80
5203.00,0.79
5202.00,0.79
5201.00,0.79
5200.00,0.79
5199.00,0.78
5198.00,0.78
5197.00,0.78
5196.00,0.78
5195.00,0.78
5194.00,0.77
5193.00,0.77
5192.00,0.77
5191.00,0.77
5190.00,0.77
5189.00,0.77
5188.00,0.77
5187.00,0.77
5186.00,0.77
5185.00,0.77
5184.00,0.77
5183.00,0.77
5182.00,0.77
5181.00,0.78
5180.00,0.78
5179.00,0.78
5178.00,0.78
5177.00,0.78
5176.00,0.78
5175.00,0.78
5174.00,0.78
5173.00,0.78
5172.00,0.78
5171.00,0.78
5170.00,0.78
5169.00,0.78
5168.00,0.78
5167.00,0.77
5166.00,0.77
5165.00,0.77
5164.00,0.77
5163.00,0.77
5162.00,0.77
5161.00,0.78
5160.00,0.78
5159.00,0.78
5158.00,0.78
5157.00,0.78
5156.00,0.78
5155.00,0.79
5154.00,0.79
5153.00,0.79
5152.00,0.79
5151.00,0.80
5150.00,0.80
5149.00,0.80
5148.00,0.80
5147.00,0.81
5146.00,0.81
5145.00,0.81
5144.00,0.81
5143.00,0.81
5142.00,0.81
5141.00,0.80
5140.00,0.80
5139.00,0.80
5138.00,0.80
5137.00,0.80
5136.00,0.80
5135.00,0.80
5134.00,0.80
5133.00,0.79
5132.00,0.79
5131.00,0.79
5130.00,0.79
5129.00,0.79
5128.00,0.80
5127.00,0.80
5126.00,0.80
5125.00,0.80
5124.00,0.80
5123.00,0.81
5122.00,0.81
5121.00,0.81
5120.00,0.81
5119.00,0.82
5118.00,0.82
5117.00,0.82
5116.00,0.83
5115.00,0.83
5114.00,0.83
5113.00,0.84
5112.00,0.84
5111.00,0.84
5110.00,0.84
5109.00,0.85
5108.00,0.85
5107.00,0.85
5106.00,0.85
5105.00,0.86
5104.00,0.86
5103.00,0.86
5102.00,0.86
5101.00,0.86
5100.00,0.86
5099.00,0.86
5098.00,0.86
5097.00,0.86
5096.00,0.86
5095.00,0.86
5094.00,0.87
5093.00,0.87
5092.00,0.87
5091.00,0.87
5090.00,0.87
5089.00,0.87
5088.00,0.88
5087.00,0.88
5086.00,0.88
5085.00,0.88
5084.00,0.89
5083.00,0.89
5082.00,0.89
5081.00,0.89
5080.00,0.89
5079.00,0.89
5078.00,0.89
5077.00,0.89
5076.00,0.89
5075.00,0.89
5074.00,0.89
5073.00,0.89
5072.00,0.89
5071.00,0.89
5070.00,0.89
5069.00,0.89
5068.00,0.88
5067.00,0.88
5066.00,0.89
5065.00,0.89
5064.00,0.89
5063.00,0.89
5062.00,0.89
5061.00,0.89
5060.00,0.90
5059.00,0.90
5058.00,0.90
5057.00,0.91
5056.00,0.91
5055.00,0.91
5054.00,0.92
5053.00,0.92
5052.00,0.92
5051.00,0.93
5050.00,0.93
5049.00,0.93
5048.00,0.93
5047.00,0.93
5046.00,0.93
5045.00,0.93
5044.00,0.93
5043.00,0.93
5042.00,0.93
5041.00,0.93
5040.00,0.93
5039.00,0.93
5038.00,0.93
5037.00,0.92
5036.00,0.92
5035.00,0.92
5034.00,0.93
5033.00,0.93
5032.00,0.93
5031.00,0.93
5030.00,0.93
5029.00,0.94
5028.00,0.94
5027.00,0.94
5026.00,0.94
5025.00,0.95
5024.00,0.95
5023.00,0.95
5022.00,0.96
5021.00,0.96
5020.00,0.96
5019.00,0.97
5018.00,0.97
5017.00,0.97
5016.00,0.97
5015.00,0.98
5014.00,0.98
5013.00,0.99
5012.00,0.99
5011.00,0.99
5010.00,1.00
5009.00,1.00
5008.00,1.00
5007.00,1.01
5006.00,1.01
5005.00,1.01
5004.00,1.02
5003.00,1.02
5002.00,1.02
5001.00,1.02
5000.00,1.02
4999.00,1.02
4998.00,1.02
4997.00,1.02
4996.00,1.02
4995.00,1.02
4994.00,1.02
4993.00,1.01
4992.00,1.01
4991.00,1.01
4990.00,1.01
4989.00,1.01
4988.00,1.01
4987.00,1.01
4986.00,1.01
4985.00,1.01
4984.00,1.02
4983.00,1.02
4982.00,1.02
4981.00,1.03
4980.00,1.03
4979.00,1.03
4978.00,1.04
4977.00,1.04
4976.00,1.04
4975.00,1.05
4974.00,1.05
4973.00,1.06
4972.00,1.06
4971.00,1.06
4970.00,1.06
4969.00,1.06
4968.00,1.07
4967.00,1.07
4966.00,1.07
4965.00,1.07
4964.00,1.07
4963.00,1.07
4962.00,1.07
4961.00,1.08
4960.00,1.08
4959.00,1.08
4958.00,1.08
4957.00,1.09
4956.00,1.09
4955.00,1.09
4954.00,1.10
4953.00,1.10
4952.00,1.10
4951.00,1.11
4950.00,1.11
4949.00,1.11
4948.00,1.11
4947.00,1.12
4946.00,1.12
4945.00,1.12
4944.00,1.12
4943.00,1.12
4942.00,1.12
4941.00,1.12
4940.00,1.13
4939.00,1.13
4938.00,1.13
4937.00,1.13
4936.00,1.13
4935.00,1.13
4934.00,1.13
4933.00,1.13
4932.00,1.13
4931.00,1.13
4930.00,1.13
4929.00,1.13
4928.00,1.14
4927.00,1.14
4926.00,1.14
4925.00,1.14
4924.00,1.15
4923.00,1.15
4922.00,1.15
4921.00,1.16
4920.00,1.16
4919.00,1.16
4918.00,1.16
4917.00,1.16
4916.00,1.16
4915.00,1.16
4914.00,1.16
4913.00,1.16
4912.00,1.16
4911.00,1.16
4910.00,1.16
4909.00,1.16
4908.00,1.16
4907.00,1.16
4906.00,1.16
4905.00,1.16
4904.00,1.16
4903.00,1.16
4902.00,1.16
4901.00,1.16
4900.00,1.16
4899.00,1.16
4898.00,1.16
4897.00,1.16
4896.00,1.16
4895.00,1.16
4894.00,1.17
4893.00,1.17
4892.00,1.17
4891.00,1.17
4890.00,1.17
4889.00,1.17
4888.00,1.18
4887.00,1.18
4886.00,1.18
4885.00,1.18
4884.00,1.18
4883.00,1.18
4882.00,1.18
4881.00,1.18
4880.00,1.19
4879.00,1.19
4878.00,1.19
4877.00,1.19
4876.00,1.19
4875.00,1.19
4874.00,1.19
4873.00,1.19
4872.00,1.19
4871.00,1.19
4870.00,1.19
4869.00,1.18
4868.00,1.18
4867.00,1.18
4866.00,1.18
4865.00,1.18
4864.00,1.18
4863.00,1.17
4862.00,1.17
4861.00,1.17
4860.00,1.17
4859.00,1.17
4858.00,1.18
4857.00,1.18
4856.00,1.18
4855.00,1.18
4854.00,1.19
4853.00,1.19
4852.00,1.20
4851.00,1.20
4850.00,1.21
4849.00,1.22
4848.00,1.22
4847.00,1.23
4846.00,1.24
4845.00,1.25
4844.00,1.25
4843.00,1.26
4842.00,1.27
4841.00,1.28
4840.00,1.29
4839.00,1.29
4838.00,1.30
4837.00,1.31
4836.00,1.31
4835.00,1.32
4834.00,1.32
4833.00,1.33
4832.00,1.33
4831.00,1.34
4830.00,1.34
4829.00,1.34
4828.00,1.34
4827.00,1.35
4826.00,1.35
4825.00,1.35
4824.00,1.35
4823.00,1.34
4822.00,1.34
4821.00,1.34
4820.00,1.34
4819.00,1.33
4818.00,1.33
4817.00,1.33
4816.00,1.32
4815.00,1.32
4814.00,1.32
4813.00,1.31
4812.00,1.31
4811.00,1.30
4810.00,1.30
4809.00,1.30
4808.00,1.30
4807.00,1.29
4806.00,1.29
4805.00,1.29
4804.00,1.29
4803.00,1.29
4802.00,1.29
4801.00,1.30
4800.00,1.30
4799.00,1.30
4798.00,1.30
4797.00,1.31
4796.00,1.31
4795.00,1.31
4794.00,1.31
4793.00,1.32
4792.00,1.32
4791.00,1.32
4790.00,1.33
4789.00,1.33
4788.00,1.33
4787.00,1.34
4786.00,1.34
4785.00,1.34
4784.00,1.34
4783.00,1.34
4782.00,1.34
4781.00,1.35
4780.00,1.35
4779.00,1.35
4778.00,1.35
4777.00,1.36
4776.00,1.36
4775.00,1.36
4774.00,1.36
4773.00,1.36
4772.00,1.36
4771.00,1.37
4770.00,1.37
4769.00,1.37
4768.00,1.37
4767.00,1.37
4766.00,1.37
4765.00,1.37
4764.00,1.37
4763.00,1.37
4762.00,1.37
4761.00,1.36
4760.00,1.36
4759.00,1.36
4758.00,1.36
4757.00,1.36
4756.00,1.36
4755.00,1.37
4754.00,1.37
4753.00,1.37
4752.00,1.37
4751.00,1.37
4750.00,1.38
4749.00,1.38
4748.00,1.39
4747.00,1.39
4746.00,1.40
4745.00,1.40
4744.00,1.41
4743.00,1.42
4742.00,1.42
4741.00,1.43
4740.00,1.43
4739.00,1.44
4738.00,1.44
4737.00,1.45
4736.00,1.45
4735.00,1.46
4734.00,1.46
4733.00,1.47
4732.00,1.47
4731.00,1.48
4730.00,1.48
4729.00,1.49
4728.00,1.49
4727.00,1.49
4726.00,1.50
4725.00,1.51
4724.00,1.51
4723.00,1.52
4722.00,1.53
4721.00,1.53
4720.00,1.54
4719.00,1.55
4718.00,1.56
4717.00,1.57
4716.00,1.58
4715.00,1.59
4714.00,1.59
4713.00,1.60
4712.00,1.61
4711.00,1.61
4710.00,1.62
4709.00,1.63
4708.00,1.63
4707.00,1.63
4706.00,1.64
4705.00,1.64
4704.00,1.64
4703.00,1.64
4702.00,1.63
4701.00,1.63
4700.00,1.63
4699.00,1.62
4698.00,1.62
4697.00,1.62
4696.00,1.62
4695.00,1.61
4694.00,1.61
4693.00,1.61
4692.00,1.61
4691.00,1.61
4690.00,1.61
4689.00,1.61
4688.00,1.62
4687.00,1.62
4686.00,1.62
4685.00,1.62
4684.00,1.63
4683.00,1.63
4682.00,1.63
4681.00,1.63
4680.00,1.63
4679.00,1.64
4678.00,1.63
4677.00,1.63
4676.00,1.63
4675.00,1.63
4674.00,1.63
4673.00,1.62
4672.00,1.62
4671.00,1.62
4670.00,1.61
4669.00,1.61
4668.00,1.61
4667.00,1.61
4666.00,1.61
4665.00,1.61
4664.00,1.61
4663.00,1.61
4662.00,1.62
4661.00,1.62
4660.00,1.63
4659.00,1.63
4658.00,1.64
4657.00,1.64
4656.00,1.65
4655.00,1.65
4654.00,1.66
4653.00,1.66
4652.00,1.67
4651.00,1.67
4650.00,1.67
4649.00,1.68
4648.00,1.68
4647.00,1.68
4646.00,1.69
4645.00,1.69
4644.00,1.69
4643.00,1.70
4642.00,1.70
4641.00,1.70
4640.00,1.70
4639.00,1.70
4638.00,1.70
4637.00,1.70
4636.00,1.70
4635.00,1.71
4634.00,1.71
4633.00,1.71
4632.00,1.71
4631.00,1.71
4630.00,1.71
4629.00,1.71
4628.00,1.71
4627.00,1.71
4626.00,1.71
4625.00,1.71
4624.00,1.71
4623.00,1.71
4622.00,1.71
4621.00,1.72
4620.00,1.72
4619.00,1.72
4618.00,1.73
4617.00,1.73
4616.00,1.73
4615.00,1.74
4614.00,1.74
4613.00,1.75
4612.00,1.75
4611.00,1.75
4610.00,1.76
4609.00,1.76
4608.00,1.76
4607.00,1.76
4606.00,1.76
4605.00,1.76
4604.00,1.76
4603.00,1.76
4602.00,1.76
4601.00,1.76
4600.00,1.75
4599.00,1.75
4598.00,1.75
4597.00,1.74
4596.00,1.74
4595.00,1.74
4594.00,1.73
4593.00,1.73
4592.00,1.73
4591.00,1.73
4590.00,1.73
4589.00,1.73
4588.00,1.73
4587.00,1.73
4586.00,1.73
4585.00,1.73
4584.00,1.73
4583.00,1.74
4582.00,1.74
4581.00,1.74
4580.00,1.74
4579.00,1.75
4578.00,1.75
4577.00,1.76
4576.00,1.76
4575.00,1.76
4574.00,1.77
4573.00,1.77
4572.00,1.78
4571.00,1.78
4570.00,1.78
4569.00,1.79
4568.00,1.79
4567.00,1.79
4566.00,1.79
4565.00,1.79
4564.00,1.80
4563.00,1.80
4562.00,1.80
4561.00,1.80
4560.00,1.80
4559.00,1.80
4558.00,1.80
4557.00,1.80
4556.00,1.80
4555.00,1.80
4554.00,1.80
4553.00,1.80
4552.00,1.81
4551.00,1.81
4550.00,1.81
4549.00,1.81
4548.00,1.81
4547.00,1.81
4546.00,1.81
4545.00,1.81
4544.00,1.82
4543.00,1.82
4542.00,1.82
4541.00,1.82
4540.00,1.82
4539.00,1.82
4538.00,1.82
4537.00,1.82
4536.00,1.82
4535.00,1.82
4534.00,1.82
4533.00,1.82
4532.00,1.82
4531.00,1.82
4530.00,1.82
4529.00,1.82
4528.00,1.82
4527.00,1.82
4526.00,1.81
4525.00,1.81
4524.00,1.81
4523.00,1.81
4522.00,1.81
4521.00,1.81
4520.00,1.81
4519.00,1.81
4518.00,1.81
4517.00,1.80
4516.00,1.80
4515.00,1.80
4514.00,1.79
4513.00,1.79
4512.00,1.79
4511.00,1.79
4510.00,1.79
4509.00,1.79
4508.00,1.78
4507.00,1.78
4506.00,1.78
4505.00,1.78
4504.00,1.78
4503.00,1.78
4502.00,1.78
4501.00,1.78
4500.00,1.79
4499.00,1.79
4498.00,1.79
4497.00,1.80
4496.00,1.80
4495.00,1.80
4494.00,1.80
4493.00,1.80
4492.00,1.81
4491.00,1.81
4490.00,1.81
4489.00,1.81
4488.00,1.81
4487.00,1.80
4486.00,1.80
4485.00,1.80
4484.00,1.79
4483.00,1.79
4482.00,1.79
4481.00,1.78
4480.00,1.78
4479.00,1.77
4478.00,1.77
4477.00,1.76
4476.00,1.76
4475.00,1.75
4474.00,1.75
4473.00,1.74
4472.00,1.74
4471.00,1.74
4470.00,1.74
4469.00,1.73
4468.00,1.73
4467.00,1.73
4466.00,1.73
4465.00,1.73
4464.00,1.73
4463.00,1.73
4462.00,1.73
4461.00,1.73
4460.00,1.73
4459.00,1.73
4458.00,1.73
4457.00,1.72
4456.00,1.72
4455.00,1.72
4454.00,1.71
4453.00,1.71
4452.00,1.70
4451.00,1.69
4450.00,1.68
4449.00,1.67
4448.00,1.66
4447.00,1.64
4446.00,1.63
4445.00,1.61
4444.00,1.60
4443.00,1.58
4442.00,1.56
4441.00,1.54
4440.00,1.53
4439.00,1.51
4438.00,1.49
4437.00,1.47
4436.00,1.45
4435.00,1.44
4434.00,1.42
4433.00,1.40
4432.00,1.39
4431.00,1.37
4430.00,1.36
4429.00,1.35
4428.00,1.33
4427.00,1.32
4426.00,1.31
4425.00,1.31
4424.00,1.30
4423.00,1.29
4422.00,1.28
4421.00,1.28
4420.00,1.27
4419.00,1.27
4418.00,1.27
4417.00,1.26
4416.00,1.26
4415.00,1.26
4414.00,1.26
4413.00,1.26
4412.00,1.26
4411.00,1.26
4410.00,1.26
4409.00,1.26
4408.00,1.26
4407.00,1.26
4406.00,1.26
4405.00,1.26
4404.00,1.26
4403.00,1.26
4402.00,1.27
4401.00,1.27
4400.00,1.28
4399.00,1.28
4398.00,1.29
4397.00,1.29
4396.00,1.30
4395.00,1.30
4394.00,1.31
4393.00,1.32
4392.00,1.33
4391.00,1.33
4390.00,1.34
4389.00,1.35
4388.00,1.36
4387.00,1.37
4386.00,1.38
4385.00,1.38
4384.00,1.39
4383.00,1.39
4382.00,1.39
4381.00,1.39
4380.00,1.40
4379.00,1.40
4378.00,1.40
4377.00,1.41
4376.00,1.41
4375.00,1.41
4374.00,1.41
4373.00,1.41
4372.00,1.41
4371.00,1.42
4370.00,1.42
4369.00,1.42
4368.00,1.42
4367.00,1.42
4366.00,1.42
4365.00,1.42
4364.00,1.42
4363.00,1.42
4362.00,1.42
4361.00,1.41
4360.00,1.41
4359.00,1.40
4358.00,1.39
4357.00,1.39
4356.00,1.38
4355.00,1.38
4354.00,1.37
4353.00,1.36
4352.00,1.36
4351.00,1.35
4350.00,1.35
4349.00,1.34
4348.00,1.34
4347.00,1.34
4346.00,1.34
4345.00,1.34
4344.00,1.34
4343.00,1.34
4342.00,1.35
4341.00,1.35
4340.00,1.36
4339.00,1.36
4338.00,1.37
4337.00,1.37
4336.00,1.38
4335.00,1.39
4334.00,1.39
4333.00,1.40
4332.00,1.41
4331.00,1.41
4330.00,1.42
4329.00,1.42
4328.00,1.43
4327.00,1.43
4326.00,1.44
4325.00,1.44
4324.00,1.45
4323.00,1.45
4322.00,1.46
4321.00,1.46
4320.00,1.47
4319.00,1.47
4318.00,1.48
4317.00,1.48
4316.00,1.49
4315.00,1.49
4314.00,1.49
4313.00,1.50
4312.00,1.50
4311.00,1.50
4310.00,1.50
4309.00,1.51
4308.00,1.51
4307.00,1.51
4306.00,1.51
4305.00,1.51
4304.00,1.51
4303.00,1.51
4302.00,1.51
4301.00,1.51
4300.00,1.51
4299.00,1.51
4298.00,1.51
4297.00,1.52
4296.00,1.52
4295.00,1.52
4294.00,1.53
4293.00,1.53
4292.00,1.54
4291.00,1.55
4290.00,1.55
4289.00,1.56
4288.00,1.57
4287.00,1.58
4286.00,1.59
4285.00,1.59
4284.00,1.60
4283.00,1.61
4282.00,1.62
4281.00,1.62
4280.00,1.63
4279.00,1.64
4278.00,1.64
4277.00,1.64
4276.00,1.65
4275.00,1.65
4274.00,1.65
4273.00,1.65
4272.00,1.64
4271.00,1.64
4270.00,1.64
4269.00,1.63
4268.00,1.62
4267.00,1.61
4266.00,1.61
4265.00,1.60
4264.00,1.59
4263.00,1.58
4262.00,1.57
4261.00,1.56
4260.00,1.55
4259.00,1.54
4258.00,1.53
4257.00,1.52
4256.00,1.52
4255.00,1.51
4254.00,1.51
4253.00,1.50
4252.00,1.50
4251.00,1.50
4250.00,1.50
4249.00,1.50
4248.00,1.51
4247.00,1.51
4246.00,1.52
4245.00,1.52
4244.00,1.53
4243.00,1.54
4242.00,1.55
4241.00,1.55
4240.00,1.56
4239.00,1.57
4238.00,1.58
4237.00,1.59
4236.00,1.60
4235.00,1.61
4234.00,1.62
4233.00,1.63
4232.00,1.64
4231.00,1.64
4230.00,1.65
4229.00,1.65
4228.00,1.66
4227.00,1.66
4226.00,1.66
4225.00,1.67
4224.00,1.67
4223.00,1.67
4222.00,1.67
4221.00,1.68
4220.00,1.68
4219.00,1.68
4218.00,1.68
4217.00,1.68
4216.00,1.68
4215.00,1.68
4214.00,1.68
4213.00,1.68
4212.00,1.68
4211.00,1.68
4210.00,1.68
4209.00,1.68
4208.00,1.67
4207.00,1.67
4206.00,1.67
4205.00,1.67
4204.00,1.66
4203.00,1.66
4202.00,1.66
4201.00,1.66
4200.00,1.65
4199.00,1.65
4198.00,1.65
4197.00,1.64
4196.00,1.63
4195.00,1.63
4194.00,1.62
4193.00,1.61
4192.00,1.61
4191.00,1.60
4190.00,1.60
4189.00,1.60
4188.00,1.60
4187.00,1.60
4186.00,1.59
4185.00,1.59
4184.00,1.59
4183.00,1.58
4182.00,1.58
4181.00,1.57
4180.00,1.57
4179.00,1.57
4178.00,1.56
4177.00,1.56
4176.00,1.56
4175.00,1.56
4174.00,1.56
4173.00,1.55
4172.00,1.55
4171.00,1.54
4170.00,1.54
4169.00,1.53
4168.00,1.53
4167.00,1.53
4166.00,1.53
4165.00,1.53
4164.00,1.53
4163.00,1.54
4162.00,1.54
4161.00,1.54
4160.00,1.55
4159.00,1.55
4158.00,1.56
4157.00,1.56
4156.00,1.57
4155.00,1.58
4154.00,1.59
4153.00,1.60
4152.00,1.61
4151.00,1.61
4150.00,1.62
4149.00,1.63
4148.00,1.63
4147.00,1.63
4146.00,1.63
4145.00,1.63
4144.00,1.63
4143.00,1.63
4142.00,1.63
4141.00,1.63
4140.00,1.62
4139.00,1.62
4138.00,1.61
4137.00,1.61
4136.00,1.60
4135.00,1.60
4134.00,1.59
4133.00,1.59
4132.00,1.59
4131.00,1.59
4130.00,1.59
4129.00,1.59
4128.00,1.59
4127.00,1.59
4126.00,1.60
4125.00,1.61
4124.00,1.61
4123.00,1.62
4122.00,1.63
4121.00,1.63
4120.00,1.64
4119.00,1.65
4118.00,1.66
4117.00,1.66
4116.00,1.67
4115.00,1.68
4114.00,1.69
4113.00,1.69
4112.00,1.70
4111.00,1.70
4110.00,1.71
4109.00,1.71
4108.00,1.71
4107.00,1.71
4106.00,1.71
4105.00,1.71
4104.00,1.71
4103.00,1.71
4102.00,1.71
4101.00,1.70
4100.00,1.70
4099.00,1.69
4098.00,1.69
4097.00,1.68
4096.00,1.67
4095.00,1.67
4094.00,1.66
4093.00,1.65
4092.00,1.64
4091.00,1.64
4090.00,1.63
4089.00,1.62
4088.00,1.62
4087.00,1.61
4086.00,1.60
4085.00,1.60
4084.00,1.59
4083.00,1.58
4082.00,1.58
4081.00,1.57
4080.00,1.57
4079.00,1.57
4078.00,1.57
4077.00,1.57
4076.00,1.56
4075.00,1.56
4074.00,1.56
4073.00,1.56
4072.00,1.56
4071.00,1.56
4070.00,1.56
4069.00,1.56
4068.00,1.57
4067.00,1.57
4066.00,1.58
4065.00,1.58
4064.00,1.59
4063.00,1.59
4062.00,1.59
4061.00,1.59
4060.00,1.59
4059.00,1.59
4058.00,1.59
4057.00,1.59
4056.00,1.58
4055.00,1.58
4054.00,1.58
4053.00,1.57
4052.00,1.57
4051.00,1.56
4050.00,1.55
4049.00,1.55
4048.00,1.54
4047.00,1.53
4046.00,1.53
4045.00,1.52
4044.00,1.52
4043.00,1.52
4042.00,1.52
4041.00,1.52
4040.00,1.52
4039.00,1.52
4038.00,1.53
4037.00,1.53
4036.00,1.54
4035.00,1.54
4034.00,1.55
4033.00,1.55
4032.00,1.55
4031.00,1.56
4030.00,1.57
4029.00,1.57
4028.00,1.58
4027.00,1.58
4026.00,1.58
4025.00,1.58
4024.00,1.58
4023.00,1.57
4022.00,1.57
4021.00,1.56
4020.00,1.56
4019.00,1.56
4018.00,1.57
4017.00,1.57
4016.00,1.57
4015.00,1.58
4014.00,1.59
4013.00,1.59
4012.00,1.60
4011.00,1.61
4010.00,1.63
4009.00,1.64
4008.00,1.66
4007.00,1.68
4006.00,1.71
4005.00,1.73
4004.00,1.76
4003.00,1.79
4002.00,1.81
4001.00,1.84
4000.00,1.86
