创建为新数据集,样品 697 用户 Administrator 日期 星期四, 七月 25 2019
cm-1,%T
10000.00,1.36
9999.00,1.37
9998.00,1.39
9997.00,1.40
9996.00,1.42
9995.00,1.43
9994.00,1.44
9993.00,1.45
9992.00,1.46
9991.00,1.47
9990.00,1.47
9989.00,1.47
9988.00,1.47
9987.00,1.48
9986.00,1.48
9985.00,1.48
9984.00,1.48
9983.00,1.49
9982.00,1.49
9981.00,1.50
9980.00,1.50
9979.00,1.51
9978.00,1.52
9977.00,1.53
9976.00,1.53
9975.00,1.54
9974.00,1.55
9973.00,1.55
9972.00,1.56
9971.00,1.56
9970.00,1.57
9969.00,1.57
9968.00,1.57
9967.00,1.56
9966.00,1.56
9965.00,1.56
9964.00,1.55
9963.00,1.55
9962.00,1.54
9961.00,1.54
9960.00,1.53
9959.00,1.53
9958.00,1.52
9957.00,1.52
9956.00,1.52
9955.00,1.51
9954.00,1.51
9953.00,1.50
9952.00,1.50
9951.00,1.49
9950.00,1.49
9949.00,1.48
9948.00,1.48
9947.00,1.47
9946.00,1.46
9945.00,1.45
9944.00,1.45
9943.00,1.44
9942.00,1.43
9941.00,1.42
9940.00,1.41
9939.00,1.40
9938.00,1.39
9937.00,1.39
9936.00,1.38
9935.00,1.38
9934.00,1.37
9933.00,1.37
9932.00,1.36
9931.00,1.36
9930.00,1.36
9929.00,1.36
9928.00,1.36
9927.00,1.36
9926.00,1.36
9925.00,1.36
9924.00,1.36
9923.00,1.36
9922.00,1.36
9921.00,1.36
9920.00,1.36
9919.00,1.37
9918.00,1.37
9917.00,1.37
9916.00,1.37
9915.00,1.38
9914.00,1.38
9913.00,1.39
9912.00,1.40
9911.00,1.40
9910.00,1.41
9909.00,1.42
9908.00,1.42
9907.00,1.43
9906.00,1.44
9905.00,1.44
9904.00,1.45
9903.00,1.46
9902.00,1.46
9901.00,1.46
9900.00,1.47
9899.00,1.47
9898.00,1.48
9897.00,1.48
9896.00,1.48
9895.00,1.48
9894.00,1.48
9893.00,1.48
9892.00,1.48
9891.00,1.48
9890.00,1.48
9889.00,1.48
9888.00,1.47
9887.00,1.47
9886.00,1.47
9885.00,1.46
9884.00,1.45
9883.00,1.45
9882.00,1.44
9881.00,1.43
9880.00,1.41
9879.00,1.40
9878.00,1.39
9877.00,1.37
9876.00,1.36
9875.00,1.34
9874.00,1.32
9873.00,1.31
9872.00,1.30
9871.00,1.29
9870.00,1.28
9869.00,1.27
9868.00,1.26
9867.00,1.26
9866.00,1.26
9865.00,1.26
9864.00,1.27
9863.00,1.28
9862.00,1.29
9861.00,1.30
9860.00,1.31
9859.00,1.32
9858.00,1.34
9857.00,1.35
9856.00,1.36
9855.00,1.37
9854.00,1.38
9853.00,1.38
9852.00,1.39
9851.00,1.39
9850.00,1.39
9849.00,1.39
9848.00,1.39
9847.00,1.39
9846.00,1.39
9845.00,1.39
9844.00,1.39
9843.00,1.39
9842.00,1.39
9841.00,1.39
9840.00,1.39
9839.00,1.40
9838.00,1.40
9837.00,1.41
9836.00,1.42
9835.00,1.43
9834.00,1.44
9833.00,1.45
9832.00,1.46
9831.00,1.46
9830.00,1.47
9829.00,1.48
9828.00,1.48
9827.00,1.49
9826.00,1.49
9825.00,1.50
9824.00,1.50
9823.00,1.50
9822.00,1.49
9821.00,1.49
9820.00,1.49
9819.00,1.48
9818.00,1.47
9817.00,1.46
9816.00,1.45
9815.00,1.45
9814.00,1.44
9813.00,1.43
9812.00,1.42
9811.00,1.41
9810.00,1.40
9809.00,1.39
9808.00,1.38
9807.00,1.37
9806.00,1.36
9805.00,1.35
9804.00,1.34
9803.00,1.33
9802.00,1.32
9801.00,1.32
9800.00,1.31
9799.00,1.31
9798.00,1.30
9797.00,1.30
9796.00,1.30
9795.00,1.30
9794.00,1.31
9793.00,1.31
9792.00,1.31
9791.00,1.32
9790.00,1.32
9789.00,1.33
9788.00,1.34
9787.00,1.34
9786.00,1.35
9785.00,1.35
9784.00,1.36
9783.00,1.36
9782.00,1.36
9781.00,1.36
9780.00,1.35
9779.00,1.35
9778.00,1.34
9777.00,1.33
9776.00,1.32
9775.00,1.31
9774.00,1.30
9773.00,1.29
9772.00,1.29
9771.00,1.28
9770.00,1.28
9769.00,1.28
9768.00,1.28
9767.00,1.28
9766.00,1.29
9765.00,1.29
9764.00,1.30
9763.00,1.31
9762.00,1.32
9761.00,1.34
9760.00,1.35
9759.00,1.37
9758.00,1.38
9757.00,1.39
9756.00,1.41
9755.00,1.42
9754.00,1.43
9753.00,1.44
9752.00,1.45
9751.00,1.46
9750.00,1.46
9749.00,1.47
9748.00,1.47
9747.00,1.47
9746.00,1.47
9745.00,1.47
9744.00,1.47
9743.00,1.46
9742.00,1.45
9741.00,1.44
9740.00,1.43
9739.00,1.41
9738.00,1.40
9737.00,1.38
9736.00,1.37
9735.00,1.35
9734.00,1.34
9733.00,1.33
9732.00,1.32
9731.00,1.31
9730.00,1.30
9729.00,1.30
9728.00,1.29
9727.00,1.29
9726.00,1.30
9725.00,1.30
9724.00,1.31
9723.00,1.31
9722.00,1.32
9721.00,1.34
9720.00,1.35
9719.00,1.36
9718.00,1.37
9717.00,1.38
9716.00,1.39
9715.00,1.40
9714.00,1.41
9713.00,1.41
9712.00,1.42
9711.00,1.42
9710.00,1.43
9709.00,1.43
9708.00,1.44
9707.00,1.44
9706.00,1.44
9705.00,1.44
9704.00,1.44
9703.00,1.44
9702.00,1.44
9701.00,1.44
9700.00,1.44
9699.00,1.43
9698.00,1.43
9697.00,1.43
9696.00,1.42
9695.00,1.42
9694.00,1.42
9693.00,1.41
9692.00,1.40
9691.00,1.40
9690.00,1.39
9689.00,1.39
9688.00,1.38
9687.00,1.37
9686.00,1.37
9685.00,1.37
9684.00,1.36
9683.00,1.36
9682.00,1.36
9681.00,1.36
9680.00,1.36
9679.00,1.36
9678.00,1.36
9677.00,1.36
9676.00,1.36
9675.00,1.37
9674.00,1.37
9673.00,1.37
9672.00,1.38
9671.00,1.39
9670.00,1.39
9669.00,1.40
9668.00,1.40
9667.00,1.41
9666.00,1.41
9665.00,1.42
9664.00,1.42
9663.00,1.42
9662.00,1.42
9661.00,1.42
9660.00,1.42
9659.00,1.42
9658.00,1.41
9657.00,1.41
9656.00,1.41
9655.00,1.40
9654.00,1.39
9653.00,1.39
9652.00,1.38
9651.00,1.38
9650.00,1.38
9649.00,1.37
9648.00,1.37
9647.00,1.37
9646.00,1.37
9645.00,1.37
9644.00,1.37
9643.00,1.37
9642.00,1.37
9641.00,1.37
9640.00,1.37
9639.00,1.37
9638.00,1.37
9637.00,1.37
9636.00,1.37
9635.00,1.37
9634.00,1.37
9633.00,1.37
9632.00,1.37
9631.00,1.37
9630.00,1.37
9629.00,1.37
9628.00,1.37
9627.00,1.37
9626.00,1.37
9625.00,1.37
9624.00,1.37
9623.00,1.37
9622.00,1.37
9621.00,1.37
9620.00,1.37
9619.00,1.37
9618.00,1.37
9617.00,1.37
9616.00,1.37
9615.00,1.38
9614.00,1.38
9613.00,1.38
9612.00,1.39
9611.00,1.39
9610.00,1.40
9609.00,1.41
9608.00,1.41
9607.00,1.42
9606.00,1.42
9605.00,1.42
9604.00,1.42
9603.00,1.42
9602.00,1.42
9601.00,1.42
9600.00,1.41
9599.00,1.41
9598.00,1.40
9597.00,1.40
9596.00,1.39
9595.00,1.38
9594.00,1.37
9593.00,1.37
9592.00,1.36
9591.00,1.35
9590.00,1.34
9589.00,1.33
9588.00,1.33
9587.00,1.32
9586.00,1.32
9585.00,1.31
9584.00,1.31
9583.00,1.31
9582.00,1.30
9581.00,1.30
9580.00,1.29
9579.00,1.29
9578.00,1.29
9577.00,1.28
9576.00,1.28
9575.00,1.27
9574.00,1.27
9573.00,1.26
9572.00,1.26
9571.00,1.25
9570.00,1.25
9569.00,1.25
9568.00,1.25
9567.00,1.25
9566.00,1.25
9565.00,1.25
9564.00,1.25
9563.00,1.25
9562.00,1.25
9561.00,1.26
9560.00,1.26
9559.00,1.27
9558.00,1.28
9557.00,1.29
9556.00,1.29
9555.00,1.30
9554.00,1.31
9553.00,1.32
9552.00,1.33
9551.00,1.33
9550.00,1.34
9549.00,1.35
9548.00,1.36
9547.00,1.36
9546.00,1.37
9545.00,1.37
9544.00,1.38
9543.00,1.38
9542.00,1.38
9541.00,1.39
9540.00,1.39
9539.00,1.38
9538.00,1.38
9537.00,1.38
9536.00,1.38
9535.00,1.37
9534.00,1.37
9533.00,1.36
9532.00,1.36
9531.00,1.35
9530.00,1.35
9529.00,1.34
9528.00,1.34
9527.00,1.33
9526.00,1.33
9525.00,1.33
9524.00,1.32
9523.00,1.32
9522.00,1.32
9521.00,1.32
9520.00,1.32
9519.00,1.31
9518.00,1.31
9517.00,1.31
9516.00,1.31
9515.00,1.31
9514.00,1.31
9513.00,1.31
9512.00,1.31
9511.00,1.31
9510.00,1.31
9509.00,1.32
9508.00,1.32
9507.00,1.32
9506.00,1.32
9505.00,1.32
9504.00,1.33
9503.00,1.33
9502.00,1.33
9501.00,1.34
9500.00,1.34
9499.00,1.34
9498.00,1.35
9497.00,1.35
9496.00,1.35
9495.00,1.35
9494.00,1.35
9493.00,1.35
9492.00,1.35
9491.00,1.35
9490.00,1.35
9489.00,1.35
9488.00,1.34
9487.00,1.34
9486.00,1.33
9485.00,1.32
9484.00,1.32
9483.00,1.31
9482.00,1.31
9481.00,1.30
9480.00,1.30
9479.00,1.29
9478.00,1.29
9477.00,1.29
9476.00,1.29
9475.00,1.29
9474.00,1.30
9473.00,1.30
9472.00,1.31
9471.00,1.31
9470.00,1.32
9469.00,1.33
9468.00,1.34
9467.00,1.35
9466.00,1.36
9465.00,1.37
9464.00,1.37
9463.00,1.38
9462.00,1.39
9461.00,1.40
9460.00,1.40
9459.00,1.40
9458.00,1.40
9457.00,1.40
9456.00,1.40
9455.00,1.40
9454.00,1.39
9453.00,1.39
9452.00,1.38
9451.00,1.38
9450.00,1.37
9449.00,1.36
9448.00,1.35
9447.00,1.34
9446.00,1.33
9445.00,1.32
9444.00,1.31
9443.00,1.31
9442.00,1.30
9441.00,1.30
9440.00,1.29
9439.00,1.29
9438.00,1.29
9437.00,1.29
9436.00,1.29
9435.00,1.29
9434.00,1.29
9433.00,1.29
9432.00,1.30
9431.00,1.30
9430.00,1.31
9429.00,1.32
9428.00,1.32
9427.00,1.33
9426.00,1.33
9425.00,1.34
9424.00,1.34
9423.00,1.35
9422.00,1.35
9421.00,1.36
9420.00,1.36
9419.00,1.36
9418.00,1.35
9417.00,1.35
9416.00,1.35
9415.00,1.34
9414.00,1.34
9413.00,1.33
9412.00,1.32
9411.00,1.31
9410.00,1.31
9409.00,1.30
9408.00,1.29
9407.00,1.28
9406.00,1.27
9405.00,1.26
9404.00,1.25
9403.00,1.24
9402.00,1.24
9401.00,1.23
9400.00,1.22
9399.00,1.22
9398.00,1.21
9397.00,1.21
9396.00,1.20
9395.00,1.20
9394.00,1.20
9393.00,1.20
9392.00,1.20
9391.00,1.20
9390.00,1.20
9389.00,1.20
9388.00,1.19
9387.00,1.20
9386.00,1.20
9385.00,1.20
9384.00,1.20
9383.00,1.20
9382.00,1.20
9381.00,1.20
9380.00,1.20
9379.00,1.20
9378.00,1.20
9377.00,1.20
9376.00,1.20
9375.00,1.20
9374.00,1.20
9373.00,1.20
9372.00,1.20
9371.00,1.20
9370.00,1.19
9369.00,1.20
9368.00,1.20
9367.00,1.20
9366.00,1.20
9365.00,1.20
9364.00,1.21
9363.00,1.21
9362.00,1.21
9361.00,1.22
9360.00,1.23
9359.00,1.23
9358.00,1.24
9357.00,1.25
9356.00,1.25
9355.00,1.26
9354.00,1.27
9353.00,1.27
9352.00,1.28
9351.00,1.29
9350.00,1.29
9349.00,1.29
9348.00,1.30
9347.00,1.30
9346.00,1.30
9345.00,1.30
9344.00,1.29
9343.00,1.29
9342.00,1.28
9341.00,1.28
9340.00,1.27
9339.00,1.26
9338.00,1.26
9337.00,1.25
9336.00,1.24
9335.00,1.23
9334.00,1.23
9333.00,1.22
9332.00,1.22
9331.00,1.21
9330.00,1.21
9329.00,1.21
9328.00,1.20
9327.00,1.20
9326.00,1.20
9325.00,1.20
9324.00,1.21
9323.00,1.21
9322.00,1.21
9321.00,1.22
9320.00,1.22
9319.00,1.22
9318.00,1.23
9317.00,1.23
9316.00,1.24
9315.00,1.24
9314.00,1.24
9313.00,1.24
9312.00,1.25
9311.00,1.25
9310.00,1.25
9309.00,1.25
9308.00,1.25
9307.00,1.25
9306.00,1.25
9305.00,1.25
9304.00,1.25
9303.00,1.25
9302.00,1.25
9301.00,1.25
9300.00,1.25
9299.00,1.25
9298.00,1.26
9297.00,1.26
9296.00,1.26
9295.00,1.26
9294.00,1.27
9293.00,1.27
9292.00,1.28
9291.00,1.28
9290.00,1.29
9289.00,1.29
9288.00,1.30
9287.00,1.30
9286.00,1.30
9285.00,1.30
9284.00,1.30
9283.00,1.30
9282.00,1.29
9281.00,1.29
9280.00,1.28
9279.00,1.27
9278.00,1.26
9277.00,1.25
9276.00,1.24
9275.00,1.23
9274.00,1.22
9273.00,1.21
9272.00,1.21
9271.00,1.20
9270.00,1.19
9269.00,1.19
9268.00,1.18
9267.00,1.18
9266.00,1.17
9265.00,1.17
9264.00,1.17
9263.00,1.17
9262.00,1.17
9261.00,1.16
9260.00,1.16
9259.00,1.16
9258.00,1.16
9257.00,1.16
9256.00,1.16
9255.00,1.16
9254.00,1.16
9253.00,1.16
9252.00,1.17
9251.00,1.17
9250.00,1.18
9249.00,1.19
9248.00,1.20
9247.00,1.21
9246.00,1.22
9245.00,1.24
9244.00,1.25
9243.00,1.27
9242.00,1.28
9241.00,1.30
9240.00,1.31
9239.00,1.33
9238.00,1.34
9237.00,1.35
9236.00,1.36
9235.00,1.37
9234.00,1.37
9233.00,1.37
9232.00,1.37
9231.00,1.37
9230.00,1.37
9229.00,1.36
9228.00,1.36
9227.00,1.35
9226.00,1.34
9225.00,1.34
9224.00,1.33
9223.00,1.32
9222.00,1.31
9221.00,1.30
9220.00,1.29
9219.00,1.28
9218.00,1.28
9217.00,1.27
9216.00,1.27
9215.00,1.26
9214.00,1.26
9213.00,1.26
9212.00,1.25
9211.00,1.25
9210.00,1.25
9209.00,1.25
9208.00,1.25
9207.00,1.25
9206.00,1.25
9205.00,1.25
9204.00,1.26
9203.00,1.26
9202.00,1.26
9201.00,1.26
9200.00,1.26
9199.00,1.27
9198.00,1.27
9197.00,1.27
9196.00,1.27
9195.00,1.27
9194.00,1.27
9193.00,1.26
9192.00,1.26
9191.00,1.26
9190.00,1.26
9189.00,1.26
9188.00,1.26
9187.00,1.26
9186.00,1.27
9185.00,1.27
9184.00,1.27
9183.00,1.27
9182.00,1.27
9181.00,1.27
9180.00,1.27
9179.00,1.28
9178.00,1.28
9177.00,1.28
9176.00,1.28
9175.00,1.29
9174.00,1.29
9173.00,1.29
9172.00,1.29
9171.00,1.29
9170.00,1.29
9169.00,1.29
9168.00,1.29
9167.00,1.29
9166.00,1.28
9165.00,1.28
9164.00,1.28
9163.00,1.28
9162.00,1.28
9161.00,1.28
9160.00,1.28
9159.00,1.28
9158.00,1.27
9157.00,1.27
9156.00,1.27
9155.00,1.27
9154.00,1.27
9153.00,1.27
9152.00,1.27
9151.00,1.26
9150.00,1.26
9149.00,1.26
9148.00,1.25
9147.00,1.25
9146.00,1.24
9145.00,1.24
9144.00,1.23
9143.00,1.22
9142.00,1.22
9141.00,1.21
9140.00,1.21
9139.00,1.20
9138.00,1.20
9137.00,1.20
9136.00,1.20
9135.00,1.20
9134.00,1.20
9133.00,1.20
9132.00,1.21
9131.00,1.21
9130.00,1.22
9129.00,1.24
9128.00,1.25
9127.00,1.26
9126.00,1.28
9125.00,1.29
9124.00,1.31
9123.00,1.32
9122.00,1.33
9121.00,1.34
9120.00,1.35
9119.00,1.36
9118.00,1.37
9117.00,1.37
9116.00,1.37
9115.00,1.38
9114.00,1.38
9113.00,1.38
9112.00,1.38
9111.00,1.38
9110.00,1.38
9109.00,1.38
9108.00,1.38
9107.00,1.38
9106.00,1.38
9105.00,1.39
9104.00,1.39
9103.00,1.40
9102.00,1.41
9101.00,1.41
9100.00,1.42
9099.00,1.43
9098.00,1.44
9097.00,1.45
9096.00,1.46
9095.00,1.46
9094.00,1.47
9093.00,1.47
9092.00,1.47
9091.00,1.47
9090.00,1.47
9089.00,1.46
9088.00,1.45
9087.00,1.44
9086.00,1.43
9085.00,1.42
9084.00,1.41
9083.00,1.40
9082.00,1.39
9081.00,1.38
9080.00,1.37
9079.00,1.36
9078.00,1.35
9077.00,1.35
9076.00,1.34
9075.00,1.34
9074.00,1.34
9073.00,1.34
9072.00,1.35
9071.00,1.35
9070.00,1.36
9069.00,1.36
9068.00,1.37
9067.00,1.37
9066.00,1.38
9065.00,1.38
9064.00,1.38
9063.00,1.38
9062.00,1.38
9061.00,1.38
9060.00,1.38
9059.00,1.37
9058.00,1.36
9057.00,1.35
9056.00,1.34
9055.00,1.33
9054.00,1.31
9053.00,1.30
9052.00,1.29
9051.00,1.27
9050.00,1.26
9049.00,1.24
9048.00,1.23
9047.00,1.22
9046.00,1.21
9045.00,1.20
9044.00,1.19
9043.00,1.19
9042.00,1.18
9041.00,1.18
9040.00,1.18
9039.00,1.19
9038.00,1.19
9037.00,1.19
9036.00,1.20
9035.00,1.20
9034.00,1.21
9033.00,1.21
9032.00,1.22
9031.00,1.22
9030.00,1.23
9029.00,1.23
9028.00,1.24
9027.00,1.24
9026.00,1.25
9025.00,1.25
9024.00,1.25
9023.00,1.25
9022.00,1.26
9021.00,1.26
9020.00,1.26
9019.00,1.26
9018.00,1.27
9017.00,1.27
9016.00,1.27
9015.00,1.28
9014.00,1.28
9013.00,1.28
9012.00,1.28
9011.00,1.28
9010.00,1.29
9009.00,1.29
9008.00,1.29
9007.00,1.29
9006.00,1.29
9005.00,1.29
9004.00,1.28
9003.00,1.28
9002.00,1.28
9001.00,1.27
9000.00,1.27
8999.00,1.26
8998.00,1.25
8997.00,1.25
8996.00,1.24
8995.00,1.24
8994.00,1.23
8993.00,1.23
8992.00,1.22
8991.00,1.22
8990.00,1.21
8989.00,1.21
8988.00,1.20
8987.00,1.20
8986.00,1.20
8985.00,1.20
8984.00,1.20
8983.00,1.20
8982.00,1.20
8981.00,1.20
8980.00,1.20
8979.00,1.20
8978.00,1.20
8977.00,1.20
8976.00,1.20
8975.00,1.20
8974.00,1.19
8973.00,1.19
8972.00,1.19
8971.00,1.19
8970.00,1.19
8969.00,1.18
8968.00,1.18
8967.00,1.18
8966.00,1.17
8965.00,1.17
8964.00,1.17
8963.00,1.17
8962.00,1.17
8961.00,1.17
8960.00,1.17
8959.00,1.17
8958.00,1.17
8957.00,1.18
8956.00,1.18
8955.00,1.19
8954.00,1.19
8953.00,1.20
8952.00,1.21
8951.00,1.22
8950.00,1.23
8949.00,1.24
8948.00,1.24
8947.00,1.25
8946.00,1.26
8945.00,1.27
8944.00,1.27
8943.00,1.28
8942.00,1.28
8941.00,1.29
8940.00,1.29
8939.00,1.29
8938.00,1.29
8937.00,1.29
8936.00,1.29
8935.00,1.28
8934.00,1.28
8933.00,1.27
8932.00,1.27
8931.00,1.26
8930.00,1.25
8929.00,1.25
8928.00,1.24
8927.00,1.24
8926.00,1.23
8925.00,1.23
8924.00,1.22
8923.00,1.22
8922.00,1.22
8921.00,1.22
8920.00,1.21
8919.00,1.21
8918.00,1.21
8917.00,1.22
8916.00,1.22
8915.00,1.22
8914.00,1.23
8913.00,1.23
8912.00,1.24
8911.00,1.24
8910.00,1.25
8909.00,1.26
8908.00,1.26
8907.00,1.27
8906.00,1.28
8905.00,1.28
8904.00,1.29
8903.00,1.29
8902.00,1.30
8901.00,1.30
8900.00,1.30
8899.00,1.30
8898.00,1.30
8897.00,1.30
8896.00,1.29
8895.00,1.29
8894.00,1.29
8893.00,1.28
8892.00,1.28
8891.00,1.27
8890.00,1.27
8889.00,1.26
8888.00,1.26
8887.00,1.25
8886.00,1.25
8885.00,1.24
8884.00,1.24
8883.00,1.24
8882.00,1.24
8881.00,1.24
8880.00,1.24
8879.00,1.24
8878.00,1.24
8877.00,1.25
8876.00,1.25
8875.00,1.26
8874.00,1.27
8873.00,1.28
8872.00,1.29
8871.00,1.30
8870.00,1.31
8869.00,1.32
8868.00,1.32
8867.00,1.33
8866.00,1.34
8865.00,1.35
8864.00,1.36
8863.00,1.36
8862.00,1.37
8861.00,1.37
8860.00,1.37
8859.00,1.37
8858.00,1.37
8857.00,1.37
8856.00,1.36
8855.00,1.36
8854.00,1.36
8853.00,1.35
8852.00,1.35
8851.00,1.35
8850.00,1.34
8849.00,1.34
8848.00,1.33
8847.00,1.33
8846.00,1.32
8845.00,1.32
8844.00,1.31
8843.00,1.31
8842.00,1.30
8841.00,1.30
8840.00,1.29
8839.00,1.29
8838.00,1.28
8837.00,1.28
8836.00,1.27
8835.00,1.27
8834.00,1.26
8833.00,1.26
8832.00,1.26
8831.00,1.26
8830.00,1.26
8829.00,1.27
8828.00,1.27
8827.00,1.28
8826.00,1.28
8825.00,1.29
8824.00,1.30
8823.00,1.31
8822.00,1.32
8821.00,1.33
8820.00,1.34
8819.00,1.35
8818.00,1.36
8817.00,1.37
8816.00,1.38
8815.00,1.38
8814.00,1.39
8813.00,1.39
8812.00,1.39
8811.00,1.38
8810.00,1.38
8809.00,1.38
8808.00,1.37
8807.00,1.36
8806.00,1.36
8805.00,1.35
8804.00,1.34
8803.00,1.33
8802.00,1.32
8801.00,1.31
8800.00,1.30
8799.00,1.29
8798.00,1.29
8797.00,1.28
8796.00,1.28
8795.00,1.27
8794.00,1.27
8793.00,1.27
8792.00,1.27
8791.00,1.27
8790.00,1.27
8789.00,1.27
8788.00,1.27
8787.00,1.27
8786.00,1.28
8785.00,1.28
8784.00,1.28
8783.00,1.28
8782.00,1.28
8781.00,1.28
8780.00,1.28
8779.00,1.28
8778.00,1.28
8777.00,1.28
8776.00,1.28
8775.00,1.27
8774.00,1.27
8773.00,1.27
8772.00,1.27
8771.00,1.27
8770.00,1.26
8769.00,1.26
8768.00,1.26
8767.00,1.26
8766.00,1.26
8765.00,1.27
8764.00,1.27
8763.00,1.27
8762.00,1.27
8761.00,1.27
8760.00,1.27
8759.00,1.28
8758.00,1.28
8757.00,1.28
8756.00,1.28
8755.00,1.28
8754.00,1.28
8753.00,1.28
8752.00,1.28
8751.00,1.28
8750.00,1.28
8749.00,1.28
8748.00,1.28
8747.00,1.28
8746.00,1.27
8745.00,1.27
8744.00,1.27
8743.00,1.26
8742.00,1.26
8741.00,1.25
8740.00,1.25
8739.00,1.25
8738.00,1.24
8737.00,1.24
8736.00,1.24
8735.00,1.23
8734.00,1.23
8733.00,1.23
8732.00,1.23
8731.00,1.23
8730.00,1.23
8729.00,1.23
8728.00,1.24
8727.00,1.24
8726.00,1.25
8725.00,1.25
8724.00,1.26
8723.00,1.26
8722.00,1.27
8721.00,1.28
8720.00,1.29
8719.00,1.29
8718.00,1.30
8717.00,1.31
8716.00,1.32
8715.00,1.33
8714.00,1.34
8713.00,1.35
8712.00,1.35
8711.00,1.36
8710.00,1.37
8709.00,1.37
8708.00,1.37
8707.00,1.37
8706.00,1.38
8705.00,1.38
8704.00,1.37
8703.00,1.37
8702.00,1.37
8701.00,1.36
8700.00,1.35
8699.00,1.34
8698.00,1.33
8697.00,1.32
8696.00,1.31
8695.00,1.31
8694.00,1.30
8693.00,1.29
8692.00,1.28
8691.00,1.28
8690.00,1.27
8689.00,1.27
8688.00,1.27
8687.00,1.26
8686.00,1.26
8685.00,1.26
8684.00,1.26
8683.00,1.27
8682.00,1.27
8681.00,1.28
8680.00,1.28
8679.00,1.29
8678.00,1.30
8677.00,1.30
8676.00,1.31
8675.00,1.31
8674.00,1.32
8673.00,1.32
8672.00,1.33
8671.00,1.33
8670.00,1.33
8669.00,1.33
8668.00,1.34
8667.00,1.34
8666.00,1.34
8665.00,1.34
8664.00,1.33
8663.00,1.33
8662.00,1.32
8661.00,1.32
8660.00,1.31
8659.00,1.30
8658.00,1.29
8657.00,1.28
8656.00,1.27
8655.00,1.26
8654.00,1.25
8653.00,1.24
8652.00,1.24
8651.00,1.23
8650.00,1.22
8649.00,1.21
8648.00,1.21
8647.00,1.20
8646.00,1.20
8645.00,1.20
8644.00,1.20
8643.00,1.20
8642.00,1.21
8641.00,1.21
8640.00,1.22
8639.00,1.23
8638.00,1.24
8637.00,1.25
8636.00,1.26
8635.00,1.28
8634.00,1.29
8633.00,1.30
8632.00,1.31
8631.00,1.32
8630.00,1.32
8629.00,1.33
8628.00,1.33
8627.00,1.34
8626.00,1.34
8625.00,1.33
8624.00,1.33
8623.00,1.33
8622.00,1.32
8621.00,1.31
8620.00,1.31
8619.00,1.30
8618.00,1.29
8617.00,1.28
8616.00,1.27
8615.00,1.26
8614.00,1.26
8613.00,1.25
8612.00,1.25
8611.00,1.25
8610.00,1.25
8609.00,1.25
8608.00,1.26
8607.00,1.26
8606.00,1.27
8605.00,1.27
8604.00,1.28
8603.00,1.29
8602.00,1.30
8601.00,1.30
8600.00,1.31
8599.00,1.32
8598.00,1.33
8597.00,1.34
8596.00,1.34
8595.00,1.35
8594.00,1.35
8593.00,1.36
8592.00,1.36
8591.00,1.36
8590.00,1.36
8589.00,1.36
8588.00,1.36
8587.00,1.36
8586.00,1.36
8585.00,1.36
8584.00,1.36
8583.00,1.35
8582.00,1.35
8581.00,1.35
8580.00,1.34
8579.00,1.34
8578.00,1.33
8577.00,1.32
8576.00,1.32
8575.00,1.31
8574.00,1.30
8573.00,1.29
8572.00,1.29
8571.00,1.28
8570.00,1.27
8569.00,1.26
8568.00,1.25
8567.00,1.24
8566.00,1.23
8565.00,1.22
8564.00,1.21
8563.00,1.20
8562.00,1.19
8561.00,1.18
8560.00,1.18
8559.00,1.17
8558.00,1.16
8557.00,1.16
8556.00,1.15
8555.00,1.15
8554.00,1.15
8553.00,1.14
8552.00,1.14
8551.00,1.14
8550.00,1.13
8549.00,1.13
8548.00,1.13
8547.00,1.13
8546.00,1.14
8545.00,1.14
8544.00,1.14
8543.00,1.14
8542.00,1.15
8541.00,1.15
8540.00,1.15
8539.00,1.15
8538.00,1.15
8537.00,1.15
8536.00,1.14
8535.00,1.14
8534.00,1.14
8533.00,1.13
8532.00,1.13
8531.00,1.12
8530.00,1.12
8529.00,1.11
8528.00,1.11
8527.00,1.11
8526.00,1.10
8525.00,1.10
8524.00,1.10
8523.00,1.10
8522.00,1.11
8521.00,1.11
8520.00,1.12
8519.00,1.13
8518.00,1.13
8517.00,1.14
8516.00,1.15
8515.00,1.16
8514.00,1.16
8513.00,1.17
8512.00,1.18
8511.00,1.18
8510.00,1.19
8509.00,1.20
8508.00,1.20
8507.00,1.20
8506.00,1.21
8505.00,1.21
8504.00,1.21
8503.00,1.21
8502.00,1.22
8501.00,1.22
8500.00,1.22
8499.00,1.22
8498.00,1.22
8497.00,1.22
8496.00,1.23
8495.00,1.23
8494.00,1.23
8493.00,1.23
8492.00,1.24
8491.00,1.24
8490.00,1.24
8489.00,1.24
8488.00,1.24
8487.00,1.24
8486.00,1.24
8485.00,1.24
8484.00,1.24
8483.00,1.24
8482.00,1.24
8481.00,1.23
8480.00,1.23
8479.00,1.23
8478.00,1.22
8477.00,1.22
8476.00,1.21
8475.00,1.21
8474.00,1.20
8473.00,1.19
8472.00,1.19
8471.00,1.19
8470.00,1.18
8469.00,1.18
8468.00,1.17
8467.00,1.17
8466.00,1.17
8465.00,1.17
8464.00,1.17
8463.00,1.17
8462.00,1.17
8461.00,1.17
8460.00,1.17
8459.00,1.17
8458.00,1.17
8457.00,1.17
8456.00,1.17
8455.00,1.17
8454.00,1.16
8453.00,1.16
8452.00,1.16
8451.00,1.16
8450.00,1.16
8449.00,1.16
8448.00,1.16
8447.00,1.17
8446.00,1.17
8445.00,1.17
8444.00,1.18
8443.00,1.18
8442.00,1.19
8441.00,1.19
8440.00,1.20
8439.00,1.20
8438.00,1.21
8437.00,1.21
8436.00,1.22
8435.00,1.22
8434.00,1.23
8433.00,1.23
8432.00,1.23
8431.00,1.24
8430.00,1.24
8429.00,1.24
8428.00,1.24
8427.00,1.24
8426.00,1.24
8425.00,1.24
8424.00,1.24
8423.00,1.24
8422.00,1.24
8421.00,1.24
8420.00,1.24
8419.00,1.24
8418.00,1.25
8417.00,1.25
8416.00,1.25
8415.00,1.25
8414.00,1.25
8413.00,1.25
8412.00,1.25
8411.00,1.25
8410.00,1.25
8409.00,1.24
8408.00,1.24
8407.00,1.24
8406.00,1.24
8405.00,1.23
8404.00,1.23
8403.00,1.23
8402.00,1.22
8401.00,1.22
8400.00,1.22
8399.00,1.21
8398.00,1.21
8397.00,1.21
8396.00,1.21
8395.00,1.21
8394.00,1.21
8393.00,1.21
8392.00,1.21
8391.00,1.21
8390.00,1.20
8389.00,1.20
8388.00,1.20
8387.00,1.20
8386.00,1.20
8385.00,1.20
8384.00,1.20
8383.00,1.20
8382.00,1.20
8381.00,1.20
8380.00,1.21
8379.00,1.21
8378.00,1.21
8377.00,1.21
8376.00,1.21
8375.00,1.22
8374.00,1.22
8373.00,1.22
8372.00,1.23
8371.00,1.23
8370.00,1.24
8369.00,1.24
8368.00,1.25
8367.00,1.25
8366.00,1.26
8365.00,1.26
8364.00,1.26
8363.00,1.26
8362.00,1.26
8361.00,1.26
8360.00,1.26
8359.00,1.26
8358.00,1.26
8357.00,1.26
8356.00,1.25
8355.00,1.25
8354.00,1.25
8353.00,1.25
8352.00,1.25
8351.00,1.25
8350.00,1.25
8349.00,1.25
8348.00,1.25
8347.00,1.26
8346.00,1.26
8345.00,1.27
8344.00,1.28
8343.00,1.28
8342.00,1.29
8341.00,1.30
8340.00,1.31
8339.00,1.31
8338.00,1.32
8337.00,1.33
8336.00,1.33
8335.00,1.34
8334.00,1.34
8333.00,1.34
8332.00,1.34
8331.00,1.34
8330.00,1.33
8329.00,1.33
8328.00,1.32
8327.00,1.32
8326.00,1.31
8325.00,1.30
8324.00,1.29
8323.00,1.29
8322.00,1.28
8321.00,1.28
8320.00,1.27
8319.00,1.27
8318.00,1.26
8317.00,1.26
8316.00,1.26
8315.00,1.26
8314.00,1.26
8313.00,1.26
8312.00,1.26
8311.00,1.26
8310.00,1.26
8309.00,1.26
8308.00,1.27
8307.00,1.27
8306.00,1.27
8305.00,1.27
8304.00,1.27
8303.00,1.27
8302.00,1.27
8301.00,1.27
8300.00,1.27
8299.00,1.27
8298.00,1.28
8297.00,1.28
8296.00,1.29
8295.00,1.29
8294.00,1.30
8293.00,1.30
8292.00,1.31
8291.00,1.32
8290.00,1.32
8289.00,1.33
8288.00,1.33
8287.00,1.34
8286.00,1.34
8285.00,1.35
8284.00,1.35
8283.00,1.35
8282.00,1.35
8281.00,1.35
8280.00,1.35
8279.00,1.34
8278.00,1.34
8277.00,1.33
8276.00,1.33
8275.00,1.32
8274.00,1.32
8273.00,1.32
8272.00,1.31
8271.00,1.31
8270.00,1.31
8269.00,1.31
8268.00,1.31
8267.00,1.31
8266.00,1.31
8265.00,1.31
8264.00,1.31
8263.00,1.31
8262.00,1.31
8261.00,1.31
8260.00,1.32
8259.00,1.32
8258.00,1.32
8257.00,1.33
8256.00,1.33
8255.00,1.33
8254.00,1.33
8253.00,1.33
8252.00,1.33
8251.00,1.33
8250.00,1.32
8249.00,1.32
8248.00,1.32
8247.00,1.32
8246.00,1.32
8245.00,1.32
8244.00,1.32
8243.00,1.32
8242.00,1.32
8241.00,1.33
8240.00,1.33
8239.00,1.33
8238.00,1.34
8237.00,1.34
8236.00,1.35
8235.00,1.36
8234.00,1.37
8233.00,1.37
8232.00,1.38
8231.00,1.38
8230.00,1.39
8229.00,1.39
8228.00,1.39
8227.00,1.39
8226.00,1.39
8225.00,1.38
8224.00,1.38
8223.00,1.37
8222.00,1.36
8221.00,1.36
8220.00,1.35
8219.00,1.34
8218.00,1.33
8217.00,1.32
8216.00,1.31
8215.00,1.30
8214.00,1.29
8213.00,1.29
8212.00,1.28
8211.00,1.28
8210.00,1.28
8209.00,1.28
8208.00,1.28
8207.00,1.28
8206.00,1.28
8205.00,1.28
8204.00,1.28
8203.00,1.28
8202.00,1.28
8201.00,1.28
8200.00,1.28
8199.00,1.28
8198.00,1.28
8197.00,1.28
8196.00,1.28
8195.00,1.27
8194.00,1.27
8193.00,1.27
8192.00,1.26
8191.00,1.26
8190.00,1.25
8189.00,1.25
8188.00,1.25
8187.00,1.24
8186.00,1.24
8185.00,1.24
8184.00,1.24
8183.00,1.24
8182.00,1.24
8181.00,1.24
8180.00,1.23
8179.00,1.23
8178.00,1.23
8177.00,1.23
8176.00,1.23
8175.00,1.23
8174.00,1.22
8173.00,1.22
8172.00,1.21
8171.00,1.21
8170.00,1.20
8169.00,1.20
8168.00,1.19
8167.00,1.19
8166.00,1.18
8165.00,1.18
8164.00,1.17
8163.00,1.17
8162.00,1.17
8161.00,1.17
8160.00,1.17
8159.00,1.18
8158.00,1.18
8157.00,1.18
8156.00,1.19
8155.00,1.20
8154.00,1.20
8153.00,1.21
8152.00,1.22
8151.00,1.23
8150.00,1.24
8149.00,1.25
8148.00,1.26
8147.00,1.27
8146.00,1.27
8145.00,1.28
8144.00,1.28
8143.00,1.29
8142.00,1.29
8141.00,1.29
8140.00,1.30
8139.00,1.30
8138.00,1.30
8137.00,1.30
8136.00,1.30
8135.00,1.30
8134.00,1.30
8133.00,1.29
8132.00,1.29
8131.00,1.29
8130.00,1.29
8129.00,1.29
8128.00,1.28
8127.00,1.28
8126.00,1.28
8125.00,1.28
8124.00,1.28
8123.00,1.28
8122.00,1.28
8121.00,1.28
8120.00,1.28
8119.00,1.28
8118.00,1.28
8117.00,1.28
8116.00,1.28
8115.00,1.28
8114.00,1.28
8113.00,1.28
8112.00,1.28
8111.00,1.28
8110.00,1.28
8109.00,1.28
8108.00,1.28
8107.00,1.28
8106.00,1.27
8105.00,1.27
8104.00,1.27
8103.00,1.27
8102.00,1.27
8101.00,1.27
8100.00,1.27
8099.00,1.27
8098.00,1.27
8097.00,1.27
8096.00,1.27
8095.00,1.28
8094.00,1.28
8093.00,1.28
8092.00,1.28
8091.00,1.29
8090.00,1.29
8089.00,1.29
8088.00,1.30
8087.00,1.30
8086.00,1.31
8085.00,1.32
8084.00,1.32
8083.00,1.32
8082.00,1.33
8081.00,1.33
8080.00,1.34
8079.00,1.34
8078.00,1.34
8077.00,1.35
8076.00,1.35
8075.00,1.36
8074.00,1.36
8073.00,1.36
8072.00,1.37
8071.00,1.37
8070.00,1.37
8069.00,1.37
8068.00,1.37
8067.00,1.38
8066.00,1.38
8065.00,1.38
8064.00,1.38
8063.00,1.38
8062.00,1.38
8061.00,1.37
8060.00,1.37
8059.00,1.37
8058.00,1.37
8057.00,1.37
8056.00,1.36
8055.00,1.36
8054.00,1.36
8053.00,1.35
8052.00,1.35
8051.00,1.35
8050.00,1.35
8049.00,1.35
8048.00,1.34
8047.00,1.34
8046.00,1.34
8045.00,1.34
8044.00,1.34
8043.00,1.34
8042.00,1.34
8041.00,1.34
8040.00,1.34
8039.00,1.34
8038.00,1.34
8037.00,1.34
8036.00,1.34
8035.00,1.34
8034.00,1.33
8033.00,1.33
8032.00,1.33
8031.00,1.33
8030.00,1.32
8029.00,1.32
8028.00,1.31
8027.00,1.31
8026.00,1.30
8025.00,1.30
8024.00,1.30
8023.00,1.29
8022.00,1.29
8021.00,1.29
8020.00,1.29
8019.00,1.29
8018.00,1.29
8017.00,1.29
8016.00,1.29
8015.00,1.29
8014.00,1.29
8013.00,1.29
8012.00,1.29
8011.00,1.30
8010.00,1.30
8009.00,1.30
8008.00,1.30
8007.00,1.30
8006.00,1.30
8005.00,1.30
8004.00,1.30
8003.00,1.30
8002.00,1.29
8001.00,1.29
8000.00,1.29
7999.00,1.28
7998.00,1.28
7997.00,1.27
7996.00,1.27
7995.00,1.26
7994.00,1.26
7993.00,1.25
7992.00,1.25
7991.00,1.25
7990.00,1.25
7989.00,1.25
7988.00,1.25
7987.00,1.25
7986.00,1.26
7985.00,1.26
7984.00,1.27
7983.00,1.27
7982.00,1.28
7981.00,1.29
7980.00,1.30
7979.00,1.32
7978.00,1.33
7977.00,1.34
7976.00,1.35
7975.00,1.37
7974.00,1.38
7973.00,1.39
7972.00,1.40
7971.00,1.41
7970.00,1.42
7969.00,1.43
7968.00,1.43
7967.00,1.44
7966.00,1.45
7965.00,1.45
7964.00,1.46
7963.00,1.47
7962.00,1.47
7961.00,1.47
7960.00,1.48
7959.00,1.48
7958.00,1.49
7957.00,1.49
7956.00,1.49
7955.00,1.49
7954.00,1.49
7953.00,1.49
7952.00,1.49
7951.00,1.49
7950.00,1.49
7949.00,1.48
7948.00,1.48
7947.00,1.47
7946.00,1.46
7945.00,1.45
7944.00,1.44
7943.00,1.43
7942.00,1.42
7941.00,1.41
7940.00,1.40
7939.00,1.39
7938.00,1.38
7937.00,1.38
7936.00,1.37
7935.00,1.36
7934.00,1.36
7933.00,1.35
7932.00,1.35
7931.00,1.35
7930.00,1.34
7929.00,1.34
7928.00,1.34
7927.00,1.34
7926.00,1.34
7925.00,1.34
7924.00,1.34
7923.00,1.34
7922.00,1.34
7921.00,1.34
7920.00,1.34
7919.00,1.34
7918.00,1.34
7917.00,1.34
7916.00,1.34
7915.00,1.34
7914.00,1.33
7913.00,1.33
7912.00,1.33
7911.00,1.33
7910.00,1.33
7909.00,1.33
7908.00,1.33
7907.00,1.34
7906.00,1.34
7905.00,1.34
7904.00,1.35
7903.00,1.35
7902.00,1.35
7901.00,1.36
7900.00,1.36
7899.00,1.36
7898.00,1.36
7897.00,1.37
7896.00,1.37
7895.00,1.37
7894.00,1.37
7893.00,1.38
7892.00,1.38
7891.00,1.38
7890.00,1.38
7889.00,1.38
7888.00,1.38
7887.00,1.37
7886.00,1.37
7885.00,1.37
7884.00,1.37
7883.00,1.37
7882.00,1.38
7881.00,1.38
7880.00,1.38
7879.00,1.38
7878.00,1.38
7877.00,1.39
7876.00,1.39
7875.00,1.39
7874.00,1.39
7873.00,1.39
7872.00,1.39
7871.00,1.39
7870.00,1.40
7869.00,1.40
7868.00,1.40
7867.00,1.40
7866.00,1.40
7865.00,1.40
7864.00,1.40
7863.00,1.39
7862.00,1.39
7861.00,1.39
7860.00,1.38
7859.00,1.38
7858.00,1.38
7857.00,1.38
7856.00,1.38
7855.00,1.38
7854.00,1.38
7853.00,1.38
7852.00,1.38
7851.00,1.38
7850.00,1.38
7849.00,1.39
7848.00,1.39
7847.00,1.39
7846.00,1.39
7845.00,1.40
7844.00,1.40
7843.00,1.40
7842.00,1.41
7841.00,1.41
7840.00,1.41
7839.00,1.41
7838.00,1.41
7837.00,1.42
7836.00,1.42
7835.00,1.42
7834.00,1.41
7833.00,1.41
7832.00,1.41
7831.00,1.41
7830.00,1.41
7829.00,1.41
7828.00,1.41
7827.00,1.41
7826.00,1.41
7825.00,1.41
7824.00,1.41
7823.00,1.41
7822.00,1.41
7821.00,1.42
7820.00,1.42
7819.00,1.42
7818.00,1.42
7817.00,1.42
7816.00,1.42
7815.00,1.43
7814.00,1.43
7813.00,1.43
7812.00,1.43
7811.00,1.43
7810.00,1.43
7809.00,1.43
7808.00,1.43
7807.00,1.43
7806.00,1.43
7805.00,1.43
7804.00,1.43
7803.00,1.43
7802.00,1.43
7801.00,1.43
7800.00,1.43
7799.00,1.42
7798.00,1.42
7797.00,1.42
7796.00,1.42
7795.00,1.42
7794.00,1.42
7793.00,1.41
7792.00,1.41
7791.00,1.41
7790.00,1.41
7789.00,1.41
7788.00,1.41
7787.00,1.41
7786.00,1.41
7785.00,1.41
7784.00,1.41
7783.00,1.40
7782.00,1.40
7781.00,1.41
7780.00,1.41
7779.00,1.41
7778.00,1.41
7777.00,1.41
7776.00,1.41
7775.00,1.41
7774.00,1.41
7773.00,1.41
7772.00,1.40
7771.00,1.40
7770.00,1.40
7769.00,1.40
7768.00,1.40
7767.00,1.40
7766.00,1.40
7765.00,1.40
7764.00,1.40
7763.00,1.40
7762.00,1.40
7761.00,1.40
7760.00,1.40
7759.00,1.40
7758.00,1.41
7757.00,1.41
7756.00,1.41
7755.00,1.41
7754.00,1.41
7753.00,1.41
7752.00,1.41
7751.00,1.41
7750.00,1.40
7749.00,1.40
7748.00,1.40
7747.00,1.40
7746.00,1.39
7745.00,1.39
7744.00,1.39
7743.00,1.38
7742.00,1.38
7741.00,1.37
7740.00,1.37
7739.00,1.37
7738.00,1.37
7737.00,1.36
7736.00,1.36
7735.00,1.36
7734.00,1.36
7733.00,1.36
7732.00,1.37
7731.00,1.37
7730.00,1.37
7729.00,1.37
7728.00,1.37
7727.00,1.37
7726.00,1.37
7725.00,1.38
7724.00,1.38
7723.00,1.37
7722.00,1.37
7721.00,1.37
7720.00,1.37
7719.00,1.37
7718.00,1.37
7717.00,1.36
7716.00,1.36
7715.00,1.36
7714.00,1.36
7713.00,1.36
7712.00,1.36
7711.00,1.36
7710.00,1.36
7709.00,1.36
7708.00,1.37
7707.00,1.37
7706.00,1.37
7705.00,1.38
7704.00,1.38
7703.00,1.38
7702.00,1.39
7701.00,1.39
7700.00,1.39
7699.00,1.39
7698.00,1.39
7697.00,1.39
7696.00,1.39
7695.00,1.39
7694.00,1.39
7693.00,1.38
7692.00,1.38
7691.00,1.38
7690.00,1.38
7689.00,1.38
7688.00,1.38
7687.00,1.39
7686.00,1.39
7685.00,1.39
7684.00,1.40
7683.00,1.40
7682.00,1.41
7681.00,1.42
7680.00,1.43
7679.00,1.43
7678.00,1.44
7677.00,1.45
7676.00,1.46
7675.00,1.47
7674.00,1.48
7673.00,1.49
7672.00,1.49
7671.00,1.50
7670.00,1.50
7669.00,1.50
7668.00,1.50
7667.00,1.50
7666.00,1.50
7665.00,1.50
7664.00,1.50
7663.00,1.49
7662.00,1.49
7661.00,1.48
7660.00,1.47
7659.00,1.47
7658.00,1.46
7657.00,1.45
7656.00,1.45
7655.00,1.44
7654.00,1.44
7653.00,1.44
7652.00,1.44
7651.00,1.44
7650.00,1.44
7649.00,1.44
7648.00,1.44
7647.00,1.44
7646.00,1.44
7645.00,1.44
7644.00,1.44
7643.00,1.44
7642.00,1.44
7641.00,1.44
7640.00,1.44
7639.00,1.44
7638.00,1.43
7637.00,1.43
7636.00,1.42
7635.00,1.42
7634.00,1.42
7633.00,1.41
7632.00,1.41
7631.00,1.40
7630.00,1.40
7629.00,1.40
7628.00,1.39
7627.00,1.39
7626.00,1.39
7625.00,1.39
7624.00,1.39
7623.00,1.39
7622.00,1.39
7621.00,1.40
7620.00,1.40
7619.00,1.40
7618.00,1.41
7617.00,1.41
7616.00,1.41
7615.00,1.41
7614.00,1.42
7613.00,1.42
7612.00,1.42
7611.00,1.42
7610.00,1.42
7609.00,1.42
7608.00,1.42
7607.00,1.42
7606.00,1.41
7605.00,1.41
7604.00,1.41
7603.00,1.40
7602.00,1.40
7601.00,1.40
7600.00,1.39
7599.00,1.39
7598.00,1.39
7597.00,1.39
7596.00,1.38
7595.00,1.38
7594.00,1.38
7593.00,1.38
7592.00,1.38
7591.00,1.38
7590.00,1.38
7589.00,1.38
7588.00,1.38
7587.00,1.39
7586.00,1.39
7585.00,1.39
7584.00,1.39
7583.00,1.39
7582.00,1.40
7581.00,1.40
7580.00,1.40
7579.00,1.40
7578.00,1.40
7577.00,1.40
7576.00,1.40
7575.00,1.40
7574.00,1.40
7573.00,1.41
7572.00,1.41
7571.00,1.41
7570.00,1.41
7569.00,1.42
7568.00,1.42
7567.00,1.42
7566.00,1.42
7565.00,1.43
7564.00,1.43
7563.00,1.43
7562.00,1.43
7561.00,1.44
7560.00,1.44
7559.00,1.44
7558.00,1.44
7557.00,1.44
7556.00,1.44
7555.00,1.44
7554.00,1.44
7553.00,1.44
7552.00,1.44
7551.00,1.43
7550.00,1.43
7549.00,1.43
7548.00,1.43
7547.00,1.43
7546.00,1.43
7545.00,1.43
7544.00,1.43
7543.00,1.44
7542.00,1.44
7541.00,1.44
7540.00,1.44
7539.00,1.44
7538.00,1.45
7537.00,1.45
7536.00,1.45
7535.00,1.45
7534.00,1.45
7533.00,1.45
7532.00,1.45
7531.00,1.44
7530.00,1.44
7529.00,1.44
7528.00,1.43
7527.00,1.43
7526.00,1.42
7525.00,1.42
7524.00,1.41
7523.00,1.41
7522.00,1.40
7521.00,1.40
7520.00,1.39
7519.00,1.39
7518.00,1.38
7517.00,1.38
7516.00,1.37
7515.00,1.37
7514.00,1.37
7513.00,1.37
7512.00,1.37
7511.00,1.37
7510.00,1.37
7509.00,1.37
7508.00,1.37
7507.00,1.37
7506.00,1.37
7505.00,1.37
7504.00,1.38
7503.00,1.38
7502.00,1.38
7501.00,1.38
7500.00,1.39
7499.00,1.39
7498.00,1.39
7497.00,1.40
7496.00,1.40
7495.00,1.40
7494.00,1.40
7493.00,1.40
7492.00,1.40
7491.00,1.40
7490.00,1.40
7489.00,1.40
7488.00,1.40
7487.00,1.40
7486.00,1.40
7485.00,1.40
7484.00,1.40
7483.00,1.40
7482.00,1.40
7481.00,1.40
7480.00,1.40
7479.00,1.40
7478.00,1.40
7477.00,1.40
7476.00,1.40
7475.00,1.40
7474.00,1.40
7473.00,1.41
7472.00,1.41
7471.00,1.42
7470.00,1.42
7469.00,1.42
7468.00,1.43
7467.00,1.43
7466.00,1.43
7465.00,1.43
7464.00,1.43
7463.00,1.43
7462.00,1.43
7461.00,1.43
7460.00,1.43
7459.00,1.43
7458.00,1.42
7457.00,1.42
7456.00,1.42
7455.00,1.41
7454.00,1.41
7453.00,1.41
7452.00,1.40
7451.00,1.40
7450.00,1.40
7449.00,1.40
7448.00,1.39
7447.00,1.39
7446.00,1.39
7445.00,1.39
7444.00,1.38
7443.00,1.38
7442.00,1.38
7441.00,1.38
7440.00,1.38
7439.00,1.39
7438.00,1.39
7437.00,1.39
7436.00,1.39
7435.00,1.39
7434.00,1.39
7433.00,1.39
7432.00,1.39
7431.00,1.39
7430.00,1.39
7429.00,1.39
7428.00,1.40
7427.00,1.40
7426.00,1.40
7425.00,1.40
7424.00,1.40
7423.00,1.40
7422.00,1.39
7421.00,1.39
7420.00,1.39
7419.00,1.39
7418.00,1.38
7417.00,1.38
7416.00,1.38
7415.00,1.37
7414.00,1.37
7413.00,1.37
7412.00,1.36
7411.00,1.36
7410.00,1.36
7409.00,1.36
7408.00,1.36
7407.00,1.36
7406.00,1.37
7405.00,1.37
7404.00,1.37
7403.00,1.37
7402.00,1.37
7401.00,1.37
7400.00,1.38
7399.00,1.38
7398.00,1.38
7397.00,1.38
7396.00,1.38
7395.00,1.37
7394.00,1.37
7393.00,1.37
7392.00,1.36
7391.00,1.36
7390.00,1.35
7389.00,1.35
7388.00,1.34
7387.00,1.34
7386.00,1.33
7385.00,1.33
7384.00,1.33
7383.00,1.33
7382.00,1.33
7381.00,1.32
7380.00,1.33
7379.00,1.33
7378.00,1.33
7377.00,1.33
7376.00,1.33
7375.00,1.34
7374.00,1.34
7373.00,1.35
7372.00,1.35
7371.00,1.35
7370.00,1.36
7369.00,1.36
7368.00,1.37
7367.00,1.37
7366.00,1.37
7365.00,1.38
7364.00,1.38
7363.00,1.39
7362.00,1.39
7361.00,1.39
7360.00,1.39
7359.00,1.39
7358.00,1.40
7357.00,1.40
7356.00,1.40
7355.00,1.40
7354.00,1.40
7353.00,1.41
7352.00,1.41
7351.00,1.41
7350.00,1.42
7349.00,1.42
7348.00,1.42
7347.00,1.42
7346.00,1.42
7345.00,1.42
7344.00,1.42
7343.00,1.42
7342.00,1.42
7341.00,1.42
7340.00,1.42
7339.00,1.42
7338.00,1.42
7337.00,1.42
7336.00,1.41
7335.00,1.41
7334.00,1.41
7333.00,1.41
7332.00,1.40
7331.00,1.40
7330.00,1.40
7329.00,1.40
7328.00,1.40
7327.00,1.39
7326.00,1.39
7325.00,1.39
7324.00,1.39
7323.00,1.39
7322.00,1.40
7321.00,1.40
7320.00,1.40
7319.00,1.40
7318.00,1.41
7317.00,1.41
7316.00,1.41
7315.00,1.42
7314.00,1.42
7313.00,1.42
7312.00,1.42
7311.00,1.43
7310.00,1.43
7309.00,1.43
7308.00,1.43
7307.00,1.43
7306.00,1.43
7305.00,1.42
7304.00,1.42
7303.00,1.42
7302.00,1.41
7301.00,1.40
7300.00,1.40
7299.00,1.39
7298.00,1.38
7297.00,1.37
7296.00,1.36
7295.00,1.35
7294.00,1.34
7293.00,1.33
7292.00,1.32
7291.00,1.31
7290.00,1.29
7289.00,1.29
7288.00,1.28
7287.00,1.27
7286.00,1.26
7285.00,1.25
7284.00,1.25
7283.00,1.24
7282.00,1.24
7281.00,1.24
7280.00,1.24
7279.00,1.24
7278.00,1.24
7277.00,1.25
7276.00,1.25
7275.00,1.25
7274.00,1.26
7273.00,1.27
7272.00,1.27
7271.00,1.28
7270.00,1.29
7269.00,1.30
7268.00,1.30
7267.00,1.31
7266.00,1.31
7265.00,1.32
7264.00,1.32
7263.00,1.32
7262.00,1.32
7261.00,1.32
7260.00,1.32
7259.00,1.32
7258.00,1.32
7257.00,1.31
7256.00,1.31
7255.00,1.31
7254.00,1.30
7253.00,1.30
7252.00,1.29
7251.00,1.29
7250.00,1.28
7249.00,1.28
7248.00,1.28
7247.00,1.28
7246.00,1.27
7245.00,1.27
7244.00,1.27
7243.00,1.27
7242.00,1.27
7241.00,1.28
7240.00,1.28
7239.00,1.28
7238.00,1.28
7237.00,1.28
7236.00,1.29
7235.00,1.29
7234.00,1.29
7233.00,1.29
7232.00,1.29
7231.00,1.30
7230.00,1.30
7229.00,1.30
7228.00,1.29
7227.00,1.29
7226.00,1.29
7225.00,1.28
7224.00,1.28
7223.00,1.27
7222.00,1.26
7221.00,1.26
7220.00,1.25
7219.00,1.25
7218.00,1.24
7217.00,1.24
7216.00,1.23
7215.00,1.23
7214.00,1.22
7213.00,1.22
7212.00,1.21
7211.00,1.21
7210.00,1.21
7209.00,1.21
7208.00,1.20
7207.00,1.20
7206.00,1.21
7205.00,1.21
7204.00,1.21
7203.00,1.21
7202.00,1.21
7201.00,1.21
7200.00,1.20
7199.00,1.20
7198.00,1.20
7197.00,1.20
7196.00,1.20
7195.00,1.20
7194.00,1.20
7193.00,1.20
7192.00,1.19
7191.00,1.19
7190.00,1.18
7189.00,1.17
7188.00,1.17
7187.00,1.16
7186.00,1.15
7185.00,1.14
7184.00,1.14
7183.00,1.13
7182.00,1.12
7181.00,1.12
7180.00,1.11
7179.00,1.11
7178.00,1.11
7177.00,1.10
7176.00,1.10
7175.00,1.10
7174.00,1.10
7173.00,1.10
7172.00,1.10
7171.00,1.10
7170.00,1.10
7169.00,1.10
7168.00,1.10
7167.00,1.10
7166.00,1.10
7165.00,1.10
7164.00,1.09
7163.00,1.09
7162.00,1.08
7161.00,1.08
7160.00,1.07
7159.00,1.07
7158.00,1.06
7157.00,1.05
7156.00,1.04
7155.00,1.04
7154.00,1.03
7153.00,1.03
7152.00,1.02
7151.00,1.02
7150.00,1.01
7149.00,1.01
7148.00,1.00
7147.00,1.00
7146.00,0.99
7145.00,0.99
7144.00,0.98
7143.00,0.98
7142.00,0.98
7141.00,0.98
7140.00,0.98
7139.00,0.97
7138.00,0.97
7137.00,0.97
7136.00,0.97
7135.00,0.96
7134.00,0.96
7133.00,0.96
7132.00,0.96
7131.00,0.96
7130.00,0.96
7129.00,0.97
7128.00,0.97
7127.00,0.97
7126.00,0.97
7125.00,0.97
7124.00,0.97
7123.00,0.97
7122.00,0.97
7121.00,0.97
7120.00,0.97
7119.00,0.97
7118.00,0.97
7117.00,0.96
7116.00,0.96
7115.00,0.96
7114.00,0.95
7113.00,0.95
7112.00,0.95
7111.00,0.94
7110.00,0.94
7109.00,0.94
7108.00,0.93
7107.00,0.93
7106.00,0.93
7105.00,0.93
7104.00,0.93
7103.00,0.92
7102.00,0.92
7101.00,0.92
7100.00,0.92
7099.00,0.92
7098.00,0.92
7097.00,0.91
7096.00,0.91
7095.00,0.91
7094.00,0.91
7093.00,0.90
7092.00,0.90
7091.00,0.89
7090.00,0.89
7089.00,0.88
7088.00,0.88
7087.00,0.87
7086.00,0.87
7085.00,0.86
7084.00,0.86
7083.00,0.85
7082.00,0.85
7081.00,0.85
7080.00,0.84
7079.00,0.84
7078.00,0.84
7077.00,0.84
7076.00,0.83
7075.00,0.83
7074.00,0.83
7073.00,0.83
7072.00,0.83
7071.00,0.83
7070.00,0.83
7069.00,0.84
7068.00,0.84
7067.00,0.84
7066.00,0.85
7065.00,0.85
7064.00,0.85
7063.00,0.86
7062.00,0.86
7061.00,0.87
7060.00,0.87
7059.00,0.87
7058.00,0.88
7057.00,0.88
7056.00,0.88
7055.00,0.89
7054.00,0.89
7053.00,0.89
7052.00,0.89
7051.00,0.88
7050.00,0.88
7049.00,0.88
7048.00,0.87
7047.00,0.87
7046.00,0.87
7045.00,0.86
7044.00,0.86
7043.00,0.85
7042.00,0.85
7041.00,0.84
7040.00,0.84
7039.00,0.83
7038.00,0.83
7037.00,0.82
7036.00,0.81
7035.00,0.81
7034.00,0.81
7033.00,0.80
7032.00,0.80
7031.00,0.79
7030.00,0.78
7029.00,0.78
7028.00,0.77
7027.00,0.77
7026.00,0.76
7025.00,0.76
7024.00,0.75
7023.00,0.75
7022.00,0.75
7021.00,0.75
7020.00,0.75
7019.00,0.74
7018.00,0.74
7017.00,0.74
7016.00,0.74
7015.00,0.74
7014.00,0.75
7013.00,0.75
7012.00,0.75
7011.00,0.75
7010.00,0.76
7009.00,0.76
7008.00,0.77
7007.00,0.77
7006.00,0.77
7005.00,0.78
7004.00,0.78
7003.00,0.78
7002.00,0.79
7001.00,0.79
7000.00,0.79
6999.00,0.79
6998.00,0.79
6997.00,0.79
6996.00,0.79
6995.00,0.79
6994.00,0.79
6993.00,0.79
6992.00,0.78
6991.00,0.78
6990.00,0.78
6989.00,0.77
6988.00,0.77
6987.00,0.76
6986.00,0.75
6985.00,0.75
6984.00,0.74
6983.00,0.73
6982.00,0.73
6981.00,0.72
6980.00,0.72
6979.00,0.72
6978.00,0.71
6977.00,0.71
6976.00,0.71
6975.00,0.71
6974.00,0.71
6973.00,0.72
6972.00,0.72
6971.00,0.72
6970.00,0.73
6969.00,0.73
6968.00,0.74
6967.00,0.74
6966.00,0.75
6965.00,0.75
6964.00,0.76
6963.00,0.76
6962.00,0.76
6961.00,0.77
6960.00,0.77
6959.00,0.76
6958.00,0.76
6957.00,0.76
6956.00,0.75
6955.00,0.75
6954.00,0.74
6953.00,0.74
6952.00,0.73
6951.00,0.73
6950.00,0.72
6949.00,0.72
6948.00,0.72
6947.00,0.71
6946.00,0.71
6945.00,0.71
6944.00,0.70
6943.00,0.70
6942.00,0.70
6941.00,0.70
6940.00,0.71
6939.00,0.71
6938.00,0.71
6937.00,0.71
6936.00,0.72
6935.00,0.72
6934.00,0.72
6933.00,0.72
6932.00,0.72
6931.00,0.72
6930.00,0.73
6929.00,0.73
6928.00,0.73
6927.00,0.73
6926.00,0.73
6925.00,0.72
6924.00,0.72
6923.00,0.72
6922.00,0.72
6921.00,0.72
6920.00,0.72
6919.00,0.71
6918.00,0.71
6917.00,0.71
6916.00,0.71
6915.00,0.70
6914.00,0.70
6913.00,0.70
6912.00,0.70
6911.00,0.70
6910.00,0.70
6909.00,0.70
6908.00,0.69
6907.00,0.69
6906.00,0.69
6905.00,0.69
6904.00,0.69
6903.00,0.69
6902.00,0.70
6901.00,0.70
6900.00,0.70
6899.00,0.70
6898.00,0.70
6897.00,0.70
6896.00,0.70
6895.00,0.70
6894.00,0.70
6893.00,0.70
6892.00,0.70
6891.00,0.70
6890.00,0.70
6889.00,0.70
6888.00,0.70
6887.00,0.70
6886.00,0.70
6885.00,0.69
6884.00,0.69
6883.00,0.69
6882.00,0.69
6881.00,0.69
6880.00,0.69
6879.00,0.69
6878.00,0.69
6877.00,0.69
6876.00,0.69
6875.00,0.69
6874.00,0.70
6873.00,0.70
6872.00,0.70
6871.00,0.70
6870.00,0.71
6869.00,0.71
6868.00,0.71
6867.00,0.71
6866.00,0.72
6865.00,0.72
6864.00,0.72
6863.00,0.72
6862.00,0.72
6861.00,0.72
6860.00,0.72
6859.00,0.72
6858.00,0.72
6857.00,0.72
6856.00,0.72
6855.00,0.72
6854.00,0.72
6853.00,0.72
6852.00,0.72
6851.00,0.72
6850.00,0.72
6849.00,0.72
6848.00,0.72
6847.00,0.72
6846.00,0.72
6845.00,0.72
6844.00,0.72
6843.00,0.72
6842.00,0.73
6841.00,0.73
6840.00,0.73
6839.00,0.73
6838.00,0.74
6837.00,0.74
6836.00,0.74
6835.00,0.74
6834.00,0.75
6833.00,0.75
6832.00,0.75
6831.00,0.75
6830.00,0.76
6829.00,0.76
6828.00,0.76
6827.00,0.77
6826.00,0.77
6825.00,0.77
6824.00,0.77
6823.00,0.78
6822.00,0.78
6821.00,0.78
6820.00,0.78
6819.00,0.79
6818.00,0.79
6817.00,0.79
6816.00,0.79
6815.00,0.80
6814.00,0.80
6813.00,0.80
6812.00,0.80
6811.00,0.80
6810.00,0.80
6809.00,0.80
6808.00,0.80
6807.00,0.79
6806.00,0.79
6805.00,0.79
6804.00,0.78
6803.00,0.78
6802.00,0.77
6801.00,0.77
6800.00,0.77
6799.00,0.76
6798.00,0.76
6797.00,0.75
6796.00,0.75
6795.00,0.75
6794.00,0.74
6793.00,0.74
6792.00,0.74
6791.00,0.73
6790.00,0.73
6789.00,0.73
6788.00,0.73
6787.00,0.72
6786.00,0.72
6785.00,0.72
6784.00,0.72
6783.00,0.72
6782.00,0.72
6781.00,0.72
6780.00,0.72
6779.00,0.72
6778.00,0.72
6777.00,0.72
6776.00,0.72
6775.00,0.73
6774.00,0.73
6773.00,0.73
6772.00,0.74
6771.00,0.74
6770.00,0.74
6769.00,0.75
6768.00,0.75
6767.00,0.75
6766.00,0.75
6765.00,0.76
6764.00,0.76
6763.00,0.76
6762.00,0.76
6761.00,0.76
6760.00,0.76
6759.00,0.76
6758.00,0.76
6757.00,0.76
6756.00,0.76
6755.00,0.76
6754.00,0.76
6753.00,0.76
6752.00,0.76
6751.00,0.76
6750.00,0.76
6749.00,0.75
6748.00,0.75
6747.00,0.75
6746.00,0.75
6745.00,0.75
6744.00,0.75
6743.00,0.75
6742.00,0.75
6741.00,0.75
6740.00,0.75
6739.00,0.75
6738.00,0.76
6737.00,0.76
6736.00,0.76
6735.00,0.76
6734.00,0.77
6733.00,0.77
6732.00,0.77
6731.00,0.78
6730.00,0.78
6729.00,0.78
6728.00,0.79
6727.00,0.79
6726.00,0.79
6725.00,0.79
6724.00,0.79
6723.00,0.79
6722.00,0.79
6721.00,0.79
6720.00,0.79
6719.00,0.78
6718.00,0.78
6717.00,0.78
6716.00,0.78
6715.00,0.77
6714.00,0.77
6713.00,0.77
6712.00,0.77
6711.00,0.77
6710.00,0.77
6709.00,0.77
6708.00,0.77
6707.00,0.77
6706.00,0.77
6705.00,0.77
6704.00,0.78
6703.00,0.78
6702.00,0.78
6701.00,0.79
6700.00,0.79
6699.00,0.79
6698.00,0.80
6697.00,0.80
6696.00,0.80
6695.00,0.80
6694.00,0.80
6693.00,0.81
6692.00,0.81
6691.00,0.81
6690.00,0.81
6689.00,0.81
6688.00,0.82
6687.00,0.82
6686.00,0.82
6685.00,0.82
6684.00,0.82
6683.00,0.82
6682.00,0.82
6681.00,0.82
6680.00,0.82
6679.00,0.82
6678.00,0.82
6677.00,0.82
6676.00,0.82
6675.00,0.82
6674.00,0.82
6673.00,0.82
6672.00,0.82
6671.00,0.82
6670.00,0.82
6669.00,0.82
6668.00,0.82
6667.00,0.82
6666.00,0.82
6665.00,0.82
6664.00,0.83
6663.00,0.83
6662.00,0.83
6661.00,0.83
6660.00,0.83
6659.00,0.83
6658.00,0.83
6657.00,0.84
6656.00,0.84
6655.00,0.84
6654.00,0.84
6653.00,0.84
6652.00,0.84
6651.00,0.85
6650.00,0.85
6649.00,0.85
6648.00,0.85
6647.00,0.86
6646.00,0.86
6645.00,0.86
6644.00,0.86
6643.00,0.86
6642.00,0.87
6641.00,0.87
6640.00,0.87
6639.00,0.87
6638.00,0.87
6637.00,0.87
6636.00,0.87
6635.00,0.86
6634.00,0.86
6633.00,0.86
6632.00,0.86
6631.00,0.86
6630.00,0.86
6629.00,0.85
6628.00,0.85
6627.00,0.85
6626.00,0.85
6625.00,0.85
6624.00,0.85
6623.00,0.85
6622.00,0.86
6621.00,0.86
6620.00,0.86
6619.00,0.87
6618.00,0.87
6617.00,0.88
6616.00,0.88
6615.00,0.88
6614.00,0.89
6613.00,0.89
6612.00,0.89
6611.00,0.90
6610.00,0.90
6609.00,0.91
6608.00,0.91
6607.00,0.92
6606.00,0.92
6605.00,0.92
6604.00,0.93
6603.00,0.93
6602.00,0.94
6601.00,0.94
6600.00,0.95
6599.00,0.95
6598.00,0.96
6597.00,0.96
6596.00,0.96
6595.00,0.97
6594.00,0.97
6593.00,0.97
6592.00,0.98
6591.00,0.98
6590.00,0.98
6589.00,0.97
6588.00,0.97
6587.00,0.97
6586.00,0.96
6585.00,0.96
6584.00,0.96
6583.00,0.95
6582.00,0.95
6581.00,0.94
6580.00,0.94
6579.00,0.93
6578.00,0.93
6577.00,0.92
6576.00,0.92
6575.00,0.92
6574.00,0.92
6573.00,0.91
6572.00,0.92
6571.00,0.92
6570.00,0.92
6569.00,0.92
6568.00,0.93
6567.00,0.93
6566.00,0.93
6565.00,0.94
6564.00,0.94
6563.00,0.94
6562.00,0.94
6561.00,0.95
6560.00,0.95
6559.00,0.95
6558.00,0.95
6557.00,0.95
6556.00,0.95
6555.00,0.95
6554.00,0.95
6553.00,0.95
6552.00,0.95
6551.00,0.95
6550.00,0.95
6549.00,0.94
6548.00,0.94
6547.00,0.94
6546.00,0.94
6545.00,0.94
6544.00,0.94
6543.00,0.94
6542.00,0.94
6541.00,0.94
6540.00,0.94
6539.00,0.94
6538.00,0.94
6537.00,0.94
6536.00,0.94
6535.00,0.94
6534.00,0.94
6533.00,0.95
6532.00,0.95
6531.00,0.95
6530.00,0.95
6529.00,0.96
6528.00,0.96
6527.00,0.96
6526.00,0.96
6525.00,0.97
6524.00,0.97
6523.00,0.97
6522.00,0.97
6521.00,0.97
6520.00,0.97
6519.00,0.97
6518.00,0.97
6517.00,0.97
6516.00,0.97
6515.00,0.97
6514.00,0.97
6513.00,0.97
6512.00,0.97
6511.00,0.97
6510.00,0.97
6509.00,0.97
6508.00,0.97
6507.00,0.97
6506.00,0.97
6505.00,0.97
6504.00,0.97
6503.00,0.97
6502.00,0.98
6501.00,0.98
6500.00,0.98
6499.00,0.98
6498.00,0.98
6497.00,0.98
6496.00,0.98
6495.00,0.99
6494.00,0.99
6493.00,0.99
6492.00,0.99
6491.00,0.99
6490.00,1.00
6489.00,1.00
6488.00,1.00
6487.00,1.00
6486.00,1.00
6485.00,1.00
6484.00,1.00
6483.00,1.00
6482.00,1.00
6481.00,1.00
6480.00,0.99
6479.00,0.99
6478.00,0.99
6477.00,0.99
6476.00,0.99
6475.00,0.99
6474.00,0.98
6473.00,0.98
6472.00,0.98
6471.00,0.98
6470.00,0.98
6469.00,0.98
6468.00,0.98
6467.00,0.98
6466.00,0.99
6465.00,0.99
6464.00,0.99
6463.00,1.00
6462.00,1.00
6461.00,1.00
6460.00,1.01
6459.00,1.01
6458.00,1.02
6457.00,1.02
6456.00,1.03
6455.00,1.03
6454.00,1.04
6453.00,1.04
6452.00,1.04
6451.00,1.05
6450.00,1.05
6449.00,1.05
6448.00,1.05
6447.00,1.05
6446.00,1.05
6445.00,1.05
6444.00,1.05
6443.00,1.05
6442.00,1.05
6441.00,1.05
6440.00,1.04
6439.00,1.04
6438.00,1.04
6437.00,1.04
6436.00,1.03
6435.00,1.03
6434.00,1.03
6433.00,1.03
6432.00,1.03
6431.00,1.02
6430.00,1.02
6429.00,1.02
6428.00,1.02
6427.00,1.02
6426.00,1.02
6425.00,1.02
6424.00,1.02
6423.00,1.02
6422.00,1.02
6421.00,1.02
6420.00,1.03
6419.00,1.03
6418.00,1.03
6417.00,1.03
6416.00,1.04
6415.00,1.04
6414.00,1.04
6413.00,1.04
6412.00,1.04
6411.00,1.05
6410.00,1.05
6409.00,1.05
6408.00,1.05
6407.00,1.06
6406.00,1.06
6405.00,1.06
6404.00,1.06
6403.00,1.06
6402.00,1.06
6401.00,1.07
6400.00,1.07
6399.00,1.07
6398.00,1.07
6397.00,1.07
6396.00,1.07
6395.00,1.07
6394.00,1.07
6393.00,1.07
6392.00,1.07
6391.00,1.07
6390.00,1.07
6389.00,1.07
6388.00,1.07
6387.00,1.07
6386.00,1.08
6385.00,1.08
6384.00,1.08
6383.00,1.08
6382.00,1.08
6381.00,1.08
6380.00,1.07
6379.00,1.07
6378.00,1.07
6377.00,1.07
6376.00,1.07
6375.00,1.06
6374.00,1.06
6373.00,1.06
6372.00,1.05
6371.00,1.05
6370.00,1.05
6369.00,1.05
6368.00,1.04
6367.00,1.04
6366.00,1.04
6365.00,1.04
6364.00,1.04
6363.00,1.04
6362.00,1.04
6361.00,1.04
6360.00,1.05
6359.00,1.05
6358.00,1.05
6357.00,1.05
6356.00,1.06
6355.00,1.06
6354.00,1.06
6353.00,1.07
6352.00,1.07
6351.00,1.07
6350.00,1.08
6349.00,1.08
6348.00,1.08
6347.00,1.09
6346.00,1.09
6345.00,1.09
6344.00,1.09
6343.00,1.10
6342.00,1.10
6341.00,1.10
6340.00,1.10
6339.00,1.10
6338.00,1.11
6337.00,1.11
6336.00,1.11
6335.00,1.11
6334.00,1.11
6333.00,1.11
6332.00,1.12
6331.00,1.12
6330.00,1.12
6329.00,1.13
6328.00,1.13
6327.00,1.13
6326.00,1.14
6325.00,1.14
6324.00,1.15
6323.00,1.15
6322.00,1.16
6321.00,1.16
6320.00,1.17
6319.00,1.17
6318.00,1.17
6317.00,1.18
6316.00,1.18
6315.00,1.18
6314.00,1.19
6313.00,1.19
6312.00,1.19
6311.00,1.19
6310.00,1.19
6309.00,1.19
6308.00,1.19
6307.00,1.19
6306.00,1.19
6305.00,1.19
6304.00,1.19
6303.00,1.19
6302.00,1.19
6301.00,1.19
6300.00,1.19
6299.00,1.19
6298.00,1.19
6297.00,1.19
6296.00,1.19
6295.00,1.19
6294.00,1.19
6293.00,1.19
6292.00,1.19
6291.00,1.19
6290.00,1.19
6289.00,1.18
6288.00,1.18
6287.00,1.18
6286.00,1.17
6285.00,1.17
6284.00,1.16
6283.00,1.16
6282.00,1.15
6281.00,1.15
6280.00,1.14
6279.00,1.14
6278.00,1.14
6277.00,1.14
6276.00,1.14
6275.00,1.14
6274.00,1.14
6273.00,1.14
6272.00,1.14
6271.00,1.14
6270.00,1.14
6269.00,1.15
6268.00,1.15
6267.00,1.15
6266.00,1.16
6265.00,1.16
6264.00,1.17
6263.00,1.17
6262.00,1.17
6261.00,1.17
6260.00,1.17
6259.00,1.17
6258.00,1.17
6257.00,1.17
6256.00,1.17
6255.00,1.17
6254.00,1.17
6253.00,1.16
6252.00,1.16
6251.00,1.16
6250.00,1.15
6249.00,1.15
6248.00,1.15
6247.00,1.15
6246.00,1.14
6245.00,1.14
6244.00,1.14
6243.00,1.14
6242.00,1.14
6241.00,1.15
6240.00,1.15
6239.00,1.15
6238.00,1.15
6237.00,1.15
6236.00,1.16
6235.00,1.16
6234.00,1.16
6233.00,1.17
6232.00,1.17
6231.00,1.18
6230.00,1.18
6229.00,1.18
6228.00,1.19
6227.00,1.19
6226.00,1.19
6225.00,1.19
6224.00,1.20
6223.00,1.20
6222.00,1.20
6221.00,1.20
6220.00,1.20
6219.00,1.21
6218.00,1.21
6217.00,1.21
6216.00,1.21
6215.00,1.21
6214.00,1.21
6213.00,1.21
6212.00,1.22
6211.00,1.22
6210.00,1.22
6209.00,1.22
6208.00,1.22
6207.00,1.22
6206.00,1.22
6205.00,1.22
6204.00,1.23
6203.00,1.23
6202.00,1.23
6201.00,1.23
6200.00,1.23
6199.00,1.24
6198.00,1.24
6197.00,1.24
6196.00,1.25
6195.00,1.25
6194.00,1.25
6193.00,1.25
6192.00,1.25
6191.00,1.25
6190.00,1.25
6189.00,1.25
6188.00,1.25
6187.00,1.25
6186.00,1.25
6185.00,1.25
6184.00,1.25
6183.00,1.25
6182.00,1.24
6181.00,1.24
6180.00,1.24
6179.00,1.24
6178.00,1.24
6177.00,1.24
6176.00,1.24
6175.00,1.24
6174.00,1.24
6173.00,1.24
6172.00,1.24
6171.00,1.24
6170.00,1.24
6169.00,1.24
6168.00,1.24
6167.00,1.25
6166.00,1.25
6165.00,1.25
6164.00,1.25
6163.00,1.25
6162.00,1.26
6161.00,1.26
6160.00,1.26
6159.00,1.27
6158.00,1.27
6157.00,1.28
6156.00,1.28
6155.00,1.28
6154.00,1.29
6153.00,1.29
6152.00,1.30
6151.00,1.30
6150.00,1.30
6149.00,1.30
6148.00,1.30
6147.00,1.30
6146.00,1.30
6145.00,1.30
6144.00,1.30
6143.00,1.30
6142.00,1.30
6141.00,1.30
6140.00,1.29
6139.00,1.29
6138.00,1.29
6137.00,1.28
6136.00,1.28
6135.00,1.28
6134.00,1.28
6133.00,1.27
6132.00,1.27
6131.00,1.27
6130.00,1.28
6129.00,1.28
6128.00,1.28
6127.00,1.28
6126.00,1.28
6125.00,1.28
6124.00,1.29
6123.00,1.29
6122.00,1.29
6121.00,1.30
6120.00,1.30
6119.00,1.31
6118.00,1.31
6117.00,1.32
6116.00,1.32
6115.00,1.32
6114.00,1.33
6113.00,1.33
6112.00,1.34
6111.00,1.34
6110.00,1.34
6109.00,1.35
6108.00,1.35
6107.00,1.35
6106.00,1.35
6105.00,1.36
6104.00,1.36
6103.00,1.36
6102.00,1.36
6101.00,1.36
6100.00,1.36
6099.00,1.36
6098.00,1.36
6097.00,1.36
6096.00,1.36
6095.00,1.36
6094.00,1.36
6093.00,1.36
6092.00,1.36
6091.00,1.35
6090.00,1.35
6089.00,1.35
6088.00,1.34
6087.00,1.34
6086.00,1.33
6085.00,1.33
6084.00,1.33
6083.00,1.32
6082.00,1.32
6081.00,1.32
6080.00,1.31
6079.00,1.31
6078.00,1.31
6077.00,1.31
6076.00,1.31
6075.00,1.31
6074.00,1.31
6073.00,1.32
6072.00,1.32
6071.00,1.32
6070.00,1.33
6069.00,1.33
6068.00,1.34
6067.00,1.34
6066.00,1.35
6065.00,1.35
6064.00,1.36
6063.00,1.36
6062.00,1.36
6061.00,1.37
6060.00,1.37
6059.00,1.37
6058.00,1.38
6057.00,1.38
6056.00,1.38
6055.00,1.38
6054.00,1.38
6053.00,1.38
6052.00,1.38
6051.00,1.38
6050.00,1.38
6049.00,1.37
6048.00,1.37
6047.00,1.37
6046.00,1.37
6045.00,1.37
6044.00,1.37
6043.00,1.37
6042.00,1.37
6041.00,1.37
6040.00,1.37
6039.00,1.37
6038.00,1.37
6037.00,1.37
6036.00,1.37
6035.00,1.37
6034.00,1.37
6033.00,1.37
6032.00,1.37
6031.00,1.37
6030.00,1.37
6029.00,1.37
6028.00,1.36
6027.00,1.36
6026.00,1.36
6025.00,1.36
6024.00,1.36
6023.00,1.36
6022.00,1.36
6021.00,1.36
6020.00,1.36
6019.00,1.36
6018.00,1.36
6017.00,1.36
6016.00,1.36
6015.00,1.36
6014.00,1.36
6013.00,1.37
6012.00,1.37
6011.00,1.37
6010.00,1.38
6009.00,1.38
6008.00,1.38
6007.00,1.39
6006.00,1.39
6005.00,1.39
6004.00,1.39
6003.00,1.40
6002.00,1.40
6001.00,1.40
6000.00,1.40
5999.00,1.40
5998.00,1.40
5997.00,1.40
5996.00,1.40
5995.00,1.40
5994.00,1.40
5993.00,1.40
5992.00,1.40
5991.00,1.40
5990.00,1.39
5989.00,1.39
5988.00,1.39
5987.00,1.38
5986.00,1.38
5985.00,1.37
5984.00,1.37
5983.00,1.37
5982.00,1.36
5981.00,1.36
5980.00,1.36
5979.00,1.35
5978.00,1.35
5977.00,1.34
5976.00,1.34
5975.00,1.34
5974.00,1.33
5973.00,1.33
5972.00,1.32
5971.00,1.32
5970.00,1.32
5969.00,1.31
5968.00,1.30
5967.00,1.30
5966.00,1.29
5965.00,1.29
5964.00,1.28
5963.00,1.27
5962.00,1.26
5961.00,1.25
5960.00,1.24
5959.00,1.24
5958.00,1.23
5957.00,1.22
5956.00,1.22
5955.00,1.21
5954.00,1.20
5953.00,1.20
5952.00,1.19
5951.00,1.19
5950.00,1.19
5949.00,1.19
5948.00,1.18
5947.00,1.18
5946.00,1.19
5945.00,1.19
5944.00,1.19
5943.00,1.19
5942.00,1.19
5941.00,1.19
5940.00,1.19
5939.00,1.19
5938.00,1.19
5937.00,1.19
5936.00,1.19
5935.00,1.19
5934.00,1.19
5933.00,1.19
5932.00,1.18
5931.00,1.18
5930.00,1.18
5929.00,1.18
5928.00,1.18
5927.00,1.18
5926.00,1.17
5925.00,1.17
5924.00,1.17
5923.00,1.17
5922.00,1.17
5921.00,1.17
5920.00,1.17
5919.00,1.17
5918.00,1.17
5917.00,1.17
5916.00,1.17
5915.00,1.17
5914.00,1.16
5913.00,1.16
5912.00,1.16
5911.00,1.16
5910.00,1.16
5909.00,1.16
5908.00,1.16
5907.00,1.16
5906.00,1.16
5905.00,1.16
5904.00,1.16
5903.00,1.16
5902.00,1.16
5901.00,1.17
5900.00,1.17
5899.00,1.17
5898.00,1.18
5897.00,1.18
5896.00,1.18
5895.00,1.19
5894.00,1.19
5893.00,1.19
5892.00,1.19
5891.00,1.20
5890.00,1.20
5889.00,1.20
5888.00,1.21
5887.00,1.21
5886.00,1.21
5885.00,1.21
5884.00,1.22
5883.00,1.22
5882.00,1.22
5881.00,1.22
5880.00,1.22
5879.00,1.23
5878.00,1.23
5877.00,1.23
5876.00,1.23
5875.00,1.23
5874.00,1.24
5873.00,1.24
5872.00,1.24
5871.00,1.24
5870.00,1.24
5869.00,1.24
5868.00,1.24
5867.00,1.24
5866.00,1.24
5865.00,1.25
5864.00,1.25
5863.00,1.25
5862.00,1.25
5861.00,1.25
5860.00,1.25
5859.00,1.25
5858.00,1.25
5857.00,1.25
5856.00,1.25
5855.00,1.26
5854.00,1.26
5853.00,1.26
5852.00,1.26
5851.00,1.26
5850.00,1.26
5849.00,1.26
5848.00,1.26
5847.00,1.27
5846.00,1.27
5845.00,1.27
5844.00,1.27
5843.00,1.27
5842.00,1.27
5841.00,1.27
5840.00,1.27
5839.00,1.27
5838.00,1.28
5837.00,1.28
5836.00,1.28
5835.00,1.28
5834.00,1.28
5833.00,1.28
5832.00,1.27
5831.00,1.27
5830.00,1.27
5829.00,1.27
5828.00,1.27
5827.00,1.26
5826.00,1.26
5825.00,1.26
5824.00,1.26
5823.00,1.25
5822.00,1.25
5821.00,1.25
5820.00,1.25
5819.00,1.25
5818.00,1.25
5817.00,1.24
5816.00,1.24
5815.00,1.24
5814.00,1.24
5813.00,1.24
5812.00,1.24
5811.00,1.24
5810.00,1.24
5809.00,1.24
5808.00,1.24
5807.00,1.24
5806.00,1.24
5805.00,1.24
5804.00,1.24
5803.00,1.24
5802.00,1.23
5801.00,1.23
5800.00,1.23
5799.00,1.23
5798.00,1.22
5797.00,1.22
5796.00,1.22
5795.00,1.22
5794.00,1.22
5793.00,1.22
5792.00,1.21
5791.00,1.21
5790.00,1.21
5789.00,1.21
5788.00,1.21
5787.00,1.21
5786.00,1.21
5785.00,1.21
5784.00,1.20
5783.00,1.20
5782.00,1.20
5781.00,1.20
5780.00,1.20
5779.00,1.20
5778.00,1.20
5777.00,1.20
5776.00,1.20
5775.00,1.20
5774.00,1.20
5773.00,1.19
5772.00,1.19
5771.00,1.19
5770.00,1.20
5769.00,1.20
5768.00,1.20
5767.00,1.20
5766.00,1.20
5765.00,1.20
5764.00,1.20
5763.00,1.20
5762.00,1.20
5761.00,1.20
5760.00,1.21
5759.00,1.21
5758.00,1.21
5757.00,1.21
5756.00,1.21
5755.00,1.22
5754.00,1.22
5753.00,1.22
5752.00,1.22
5751.00,1.22
5750.00,1.23
5749.00,1.23
5748.00,1.23
5747.00,1.23
5746.00,1.23
5745.00,1.23
5744.00,1.23
5743.00,1.23
5742.00,1.24
5741.00,1.24
5740.00,1.24
5739.00,1.23
5738.00,1.23
5737.00,1.23
5736.00,1.23
5735.00,1.23
5734.00,1.23
5733.00,1.23
5732.00,1.23
5731.00,1.23
5730.00,1.23
5729.00,1.23
5728.00,1.23
5727.00,1.23
5726.00,1.23
5725.00,1.23
5724.00,1.23
5723.00,1.23
5722.00,1.24
5721.00,1.24
5720.00,1.24
5719.00,1.25
5718.00,1.25
5717.00,1.25
5716.00,1.26
5715.00,1.26
5714.00,1.26
5713.00,1.27
5712.00,1.27
5711.00,1.27
5710.00,1.28
5709.00,1.28
5708.00,1.28
5707.00,1.28
5706.00,1.28
5705.00,1.29
5704.00,1.29
5703.00,1.29
5702.00,1.28
5701.00,1.28
5700.00,1.28
5699.00,1.28
5698.00,1.28
5697.00,1.27
5696.00,1.27
5695.00,1.26
5694.00,1.26
5693.00,1.25
5692.00,1.25
5691.00,1.25
5690.00,1.24
5689.00,1.24
5688.00,1.23
5687.00,1.23
5686.00,1.23
5685.00,1.22
5684.00,1.22
5683.00,1.22
5682.00,1.22
5681.00,1.22
5680.00,1.22
5679.00,1.22
5678.00,1.22
5677.00,1.22
5676.00,1.22
5675.00,1.22
5674.00,1.22
5673.00,1.22
5672.00,1.22
5671.00,1.23
5670.00,1.23
5669.00,1.23
5668.00,1.23
5667.00,1.23
5666.00,1.24
5665.00,1.24
5664.00,1.24
5663.00,1.24
5662.00,1.24
5661.00,1.24
5660.00,1.25
5659.00,1.25
5658.00,1.25
5657.00,1.25
5656.00,1.25
5655.00,1.24
5654.00,1.24
5653.00,1.24
5652.00,1.24
5651.00,1.24
5650.00,1.24
5649.00,1.24
5648.00,1.24
5647.00,1.24
5646.00,1.24
5645.00,1.24
5644.00,1.24
5643.00,1.25
5642.00,1.25
5641.00,1.25
5640.00,1.25
5639.00,1.25
5638.00,1.25
5637.00,1.25
5636.00,1.26
5635.00,1.26
5634.00,1.26
5633.00,1.26
5632.00,1.26
5631.00,1.26
5630.00,1.26
5629.00,1.26
5628.00,1.26
5627.00,1.26
5626.00,1.26
5625.00,1.26
5624.00,1.27
5623.00,1.27
5622.00,1.27
5621.00,1.27
5620.00,1.27
5619.00,1.27
5618.00,1.27
5617.00,1.27
5616.00,1.27
5615.00,1.27
5614.00,1.28
5613.00,1.28
5612.00,1.28
5611.00,1.28
5610.00,1.28
5609.00,1.28
5608.00,1.28
5607.00,1.28
5606.00,1.28
5605.00,1.29
5604.00,1.29
5603.00,1.29
5602.00,1.29
5601.00,1.29
5600.00,1.29
5599.00,1.29
5598.00,1.29
5597.00,1.30
5596.00,1.30
5595.00,1.30
5594.00,1.30
5593.00,1.30
5592.00,1.30
5591.00,1.31
5590.00,1.31
5589.00,1.31
5588.00,1.31
5587.00,1.31
5586.00,1.32
5585.00,1.32
5584.00,1.32
5583.00,1.33
5582.00,1.33
5581.00,1.33
5580.00,1.34
5579.00,1.34
5578.00,1.34
5577.00,1.35
5576.00,1.35
5575.00,1.35
5574.00,1.35
5573.00,1.36
5572.00,1.36
5571.00,1.36
5570.00,1.36
5569.00,1.36
5568.00,1.37
5567.00,1.37
5566.00,1.37
5565.00,1.37
5564.00,1.36
5563.00,1.36
5562.00,1.36
5561.00,1.36
5560.00,1.36
5559.00,1.36
5558.00,1.35
5557.00,1.35
5556.00,1.35
5555.00,1.35
5554.00,1.35
5553.00,1.35
5552.00,1.35
5551.00,1.34
5550.00,1.34
5549.00,1.34
5548.00,1.34
5547.00,1.34
5546.00,1.34
5545.00,1.34
5544.00,1.34
5543.00,1.34
5542.00,1.35
5541.00,1.35
5540.00,1.35
5539.00,1.35
5538.00,1.35
5537.00,1.36
5536.00,1.36
5535.00,1.36
5534.00,1.37
5533.00,1.37
5532.00,1.38
5531.00,1.38
5530.00,1.39
5529.00,1.39
5528.00,1.40
5527.00,1.41
5526.00,1.41
5525.00,1.42
5524.00,1.42
5523.00,1.42
5522.00,1.42
5521.00,1.42
5520.00,1.42
5519.00,1.42
5518.00,1.42
5517.00,1.42
5516.00,1.42
5515.00,1.42
5514.00,1.41
5513.00,1.41
5512.00,1.41
5511.00,1.40
5510.00,1.40
5509.00,1.39
5508.00,1.39
5507.00,1.39
5506.00,1.39
5505.00,1.39
5504.00,1.38
5503.00,1.38
5502.00,1.38
5501.00,1.38
5500.00,1.38
5499.00,1.38
5498.00,1.38
5497.00,1.38
5496.00,1.38
5495.00,1.38
5494.00,1.38
5493.00,1.38
5492.00,1.38
5491.00,1.38
5490.00,1.39
5489.00,1.39
5488.00,1.39
5487.00,1.39
5486.00,1.39
5485.00,1.40
5484.00,1.40
5483.00,1.40
5482.00,1.41
5481.00,1.41
5480.00,1.41
5479.00,1.41
5478.00,1.42
5477.00,1.42
5476.00,1.42
5475.00,1.42
5474.00,1.43
5473.00,1.43
5472.00,1.43
5471.00,1.43
5470.00,1.43
5469.00,1.43
5468.00,1.43
5467.00,1.43
5466.00,1.43
5465.00,1.43
5464.00,1.43
5463.00,1.43
5462.00,1.43
5461.00,1.43
5460.00,1.43
5459.00,1.43
5458.00,1.43
5457.00,1.44
5456.00,1.44
5455.00,1.44
5454.00,1.45
5453.00,1.45
5452.00,1.45
5451.00,1.46
5450.00,1.46
5449.00,1.47
5448.00,1.47
5447.00,1.48
5446.00,1.48
5445.00,1.49
5444.00,1.49
5443.00,1.50
5442.00,1.50
5441.00,1.50
5440.00,1.51
5439.00,1.51
5438.00,1.51
5437.00,1.51
5436.00,1.51
5435.00,1.50
5434.00,1.50
5433.00,1.50
5432.00,1.50
5431.00,1.50
5430.00,1.50
5429.00,1.49
5428.00,1.49
5427.00,1.49
5426.00,1.49
5425.00,1.48
5424.00,1.48
5423.00,1.48
5422.00,1.48
5421.00,1.48
5420.00,1.48
5419.00,1.48
5418.00,1.48
5417.00,1.48
5416.00,1.49
5415.00,1.49
5414.00,1.49
5413.00,1.49
5412.00,1.49
5411.00,1.49
5410.00,1.49
5409.00,1.49
5408.00,1.49
5407.00,1.49
5406.00,1.49
5405.00,1.49
5404.00,1.49
5403.00,1.49
5402.00,1.49
5401.00,1.49
5400.00,1.49
5399.00,1.49
5398.00,1.48
5397.00,1.48
5396.00,1.48
5395.00,1.48
5394.00,1.48
5393.00,1.48
5392.00,1.48
5391.00,1.47
5390.00,1.47
5389.00,1.47
5388.00,1.47
5387.00,1.47
5386.00,1.47
5385.00,1.47
5384.00,1.46
5383.00,1.46
5382.00,1.46
5381.00,1.46
5380.00,1.46
5379.00,1.46
5378.00,1.46
5377.00,1.45
5376.00,1.45
5375.00,1.45
5374.00,1.45
5373.00,1.45
5372.00,1.44
5371.00,1.44
5370.00,1.43
5369.00,1.43
5368.00,1.42
5367.00,1.42
5366.00,1.41
5365.00,1.40
5364.00,1.39
5363.00,1.38
5362.00,1.38
5361.00,1.37
5360.00,1.36
5359.00,1.35
5358.00,1.34
5357.00,1.33
5356.00,1.32
5355.00,1.32
5354.00,1.31
5353.00,1.30
5352.00,1.30
5351.00,1.29
5350.00,1.29
5349.00,1.28
5348.00,1.27
5347.00,1.27
5346.00,1.26
5345.00,1.26
5344.00,1.25
5343.00,1.25
5342.00,1.24
5341.00,1.24
5340.00,1.23
5339.00,1.23
5338.00,1.22
5337.00,1.21
5336.00,1.20
5335.00,1.20
5334.00,1.19
5333.00,1.18
5332.00,1.17
5331.00,1.16
5330.00,1.15
5329.00,1.13
5328.00,1.12
5327.00,1.11
5326.00,1.10
5325.00,1.08
5324.00,1.07
5323.00,1.06
5322.00,1.05
5321.00,1.03
5320.00,1.02
5319.00,1.01
5318.00,1.00
5317.00,0.99
5316.00,0.98
5315.00,0.96
5314.00,0.95
5313.00,0.94
5312.00,0.93
5311.00,0.92
5310.00,0.91
5309.00,0.91
5308.00,0.90
5307.00,0.89
5306.00,0.88
5305.00,0.87
5304.00,0.86
5303.00,0.85
5302.00,0.84
5301.00,0.83
5300.00,0.82
5299.00,0.82
5298.00,0.81
5297.00,0.80
5296.00,0.80
5295.00,0.79
5294.00,0.78
5293.00,0.78
5292.00,0.78
5291.00,0.77
5290.00,0.77
5289.00,0.77
5288.00,0.76
5287.00,0.76
5286.00,0.76
5285.00,0.75
5284.00,0.75
5283.00,0.75
5282.00,0.75
5281.00,0.74
5280.00,0.74
5279.00,0.74
5278.00,0.74
5277.00,0.73
5276.00,0.73
5275.00,0.73
5274.00,0.72
5273.00,0.72
5272.00,0.72
5271.00,0.72
5270.00,0.72
5269.00,0.72
5268.00,0.72
5267.00,0.71
5266.00,0.71
5265.00,0.71
5264.00,0.71
5263.00,0.71
5262.00,0.71
5261.00,0.71
5260.00,0.72
5259.00,0.72
5258.00,0.72
5257.00,0.72
5256.00,0.72
5255.00,0.72
5254.00,0.72
5253.00,0.72
5252.00,0.72
5251.00,0.72
5250.00,0.72
5249.00,0.72
5248.00,0.72
5247.00,0.73
5246.00,0.73
5245.00,0.73
5244.00,0.73
5243.00,0.73
5242.00,0.73
5241.00,0.73
5240.00,0.73
5239.00,0.72
5238.00,0.72
5237.00,0.72
5236.00,0.72
5235.00,0.72
5234.00,0.72
5233.00,0.72
5232.00,0.71
5231.00,0.71
5230.00,0.71
5229.00,0.70
5228.00,0.70
5227.00,0.70
5226.00,0.70
5225.00,0.69
5224.00,0.69
5223.00,0.69
5222.00,0.69
5221.00,0.69
5220.00,0.69
5219.00,0.69
5218.00,0.69
5217.00,0.69
5216.00,0.70
5215.00,0.70
5214.00,0.70
5213.00,0.71
5212.00,0.71
5211.00,0.72
5210.00,0.72
5209.00,0.73
5208.00,0.73
5207.00,0.74
5206.00,0.74
5205.00,0.75
5204.00,0.75
5203.00,0.75
5202.00,0.75
5201.00,0.76
5200.00,0.76
5199.00,0.76
5198.00,0.76
5197.00,0.76
5196.00,0.76
5195.00,0.75
5194.00,0.75
5193.00,0.75
5192.00,0.75
5191.00,0.74
5190.00,0.74
5189.00,0.74
5188.00,0.74
5187.00,0.74
5186.00,0.73
5185.00,0.73
5184.00,0.73
5183.00,0.73
5182.00,0.73
5181.00,0.73
5180.00,0.73
5179.00,0.73
5178.00,0.73
5177.00,0.72
5176.00,0.72
5175.00,0.72
5174.00,0.72
5173.00,0.72
5172.00,0.72
5171.00,0.72
5170.00,0.71
5169.00,0.71
5168.00,0.71
5167.00,0.71
5166.00,0.70
5165.00,0.70
5164.00,0.70
5163.00,0.70
5162.00,0.70
5161.00,0.69
5160.00,0.69
5159.00,0.69
5158.00,0.69
5157.00,0.68
5156.00,0.68
5155.00,0.68
5154.00,0.68
5153.00,0.68
5152.00,0.68
5151.00,0.68
5150.00,0.68
5149.00,0.68
5148.00,0.68
5147.00,0.68
5146.00,0.68
5145.00,0.69
5144.00,0.69
5143.00,0.69
5142.00,0.70
5141.00,0.70
5140.00,0.70
5139.00,0.71
5138.00,0.71
5137.00,0.71
5136.00,0.72
5135.00,0.72
5134.00,0.72
5133.00,0.72
5132.00,0.72
5131.00,0.72
5130.00,0.73
5129.00,0.73
5128.00,0.73
5127.00,0.73
5126.00,0.72
5125.00,0.72
5124.00,0.72
5123.00,0.72
5122.00,0.72
5121.00,0.72
5120.00,0.71
5119.00,0.71
5118.00,0.71
5117.00,0.71
5116.00,0.71
5115.00,0.71
5114.00,0.71
5113.00,0.72
5112.00,0.72
5111.00,0.72
5110.00,0.72
5109.00,0.72
5108.00,0.72
5107.00,0.72
5106.00,0.73
5105.00,0.73
5104.00,0.73
5103.00,0.73
5102.00,0.73
5101.00,0.74
5100.00,0.74
5099.00,0.74
5098.00,0.74
5097.00,0.74
5096.00,0.74
5095.00,0.74
5094.00,0.74
5093.00,0.74
5092.00,0.74
5091.00,0.74
5090.00,0.74
5089.00,0.74
5088.00,0.74
5087.00,0.74
5086.00,0.74
5085.00,0.75
5084.00,0.75
5083.00,0.75
5082.00,0.76
5081.00,0.76
5080.00,0.76
5079.00,0.76
5078.00,0.77
5077.00,0.77
5076.00,0.77
5075.00,0.78
5074.00,0.78
5073.00,0.78
5072.00,0.78
5071.00,0.78
5070.00,0.79
5069.00,0.79
5068.00,0.79
5067.00,0.79
5066.00,0.79
5065.00,0.79
5064.00,0.79
5063.00,0.79
5062.00,0.79
5061.00,0.79
5060.00,0.79
5059.00,0.79
5058.00,0.79
5057.00,0.79
5056.00,0.79
5055.00,0.79
5054.00,0.79
5053.00,0.79
5052.00,0.79
5051.00,0.79
5050.00,0.79
5049.00,0.79
5048.00,0.79
5047.00,0.79
5046.00,0.79
5045.00,0.79
5044.00,0.79
5043.00,0.79
5042.00,0.79
5041.00,0.79
5040.00,0.79
5039.00,0.79
5038.00,0.79
5037.00,0.79
5036.00,0.79
5035.00,0.79
5034.00,0.79
5033.00,0.78
5032.00,0.78
5031.00,0.78
5030.00,0.78
5029.00,0.78
5028.00,0.78
5027.00,0.78
5026.00,0.79
5025.00,0.79
5024.00,0.79
5023.00,0.79
5022.00,0.80
5021.00,0.80
5020.00,0.80
5019.00,0.80
5018.00,0.80
5017.00,0.81
5016.00,0.81
5015.00,0.81
5014.00,0.82
5013.00,0.82
5012.00,0.82
5011.00,0.83
5010.00,0.83
5009.00,0.83
5008.00,0.84
5007.00,0.84
5006.00,0.84
5005.00,0.84
5004.00,0.84
5003.00,0.84
5002.00,0.84
5001.00,0.84
5000.00,0.84
4999.00,0.84
4998.00,0.84
4997.00,0.84
4996.00,0.84
4995.00,0.84
4994.00,0.83
4993.00,0.83
4992.00,0.83
4991.00,0.83
4990.00,0.83
4989.00,0.83
4988.00,0.83
4987.00,0.83
4986.00,0.84
4985.00,0.84
4984.00,0.84
4983.00,0.84
4982.00,0.84
4981.00,0.85
4980.00,0.85
4979.00,0.85
4978.00,0.86
4977.00,0.86
4976.00,0.86
4975.00,0.87
4974.00,0.87
4973.00,0.87
4972.00,0.87
4971.00,0.88
4970.00,0.88
4969.00,0.88
4968.00,0.88
4967.00,0.88
4966.00,0.88
4965.00,0.88
4964.00,0.88
4963.00,0.88
4962.00,0.88
4961.00,0.88
4960.00,0.88
4959.00,0.88
4958.00,0.88
4957.00,0.88
4956.00,0.88
4955.00,0.88
4954.00,0.88
4953.00,0.88
4952.00,0.88
4951.00,0.89
4950.00,0.89
4949.00,0.89
4948.00,0.89
4947.00,0.89
4946.00,0.90
4945.00,0.90
4944.00,0.90
4943.00,0.90
4942.00,0.90
4941.00,0.90
4940.00,0.90
4939.00,0.90
4938.00,0.90
4937.00,0.90
4936.00,0.90
4935.00,0.90
4934.00,0.90
4933.00,0.90
4932.00,0.89
4931.00,0.89
4930.00,0.89
4929.00,0.89
4928.00,0.89
4927.00,0.89
4926.00,0.89
4925.00,0.88
4924.00,0.88
4923.00,0.89
4922.00,0.89
4921.00,0.89
4920.00,0.89
4919.00,0.89
4918.00,0.89
4917.00,0.89
4916.00,0.90
4915.00,0.90
4914.00,0.90
4913.00,0.90
4912.00,0.90
4911.00,0.90
4910.00,0.91
4909.00,0.91
4908.00,0.91
4907.00,0.91
4906.00,0.91
4905.00,0.91
4904.00,0.91
4903.00,0.91
4902.00,0.91
4901.00,0.91
4900.00,0.91
4899.00,0.91
4898.00,0.91
4897.00,0.92
4896.00,0.92
4895.00,0.92
4894.00,0.92
4893.00,0.92
4892.00,0.92
4891.00,0.92
4890.00,0.92
4889.00,0.92
4888.00,0.93
4887.00,0.93
4886.00,0.93
4885.00,0.93
4884.00,0.94
4883.00,0.94
4882.00,0.94
4881.00,0.95
4880.00,0.95
4879.00,0.95
4878.00,0.96
4877.00,0.96
4876.00,0.96
4875.00,0.97
4874.00,0.97
4873.00,0.97
4872.00,0.97
4871.00,0.97
4870.00,0.97
4869.00,0.98
4868.00,0.98
4867.00,0.98
4866.00,0.98
4865.00,0.98
4864.00,0.98
4863.00,0.98
4862.00,0.98
4861.00,0.98
4860.00,0.98
4859.00,0.98
4858.00,0.98
4857.00,0.98
4856.00,0.98
4855.00,0.98
4854.00,0.98
4853.00,0.98
4852.00,0.98
4851.00,0.98
4850.00,0.98
4849.00,0.98
4848.00,0.98
4847.00,0.98
4846.00,0.98
4845.00,0.98
4844.00,0.98
4843.00,0.97
4842.00,0.97
4841.00,0.97
4840.00,0.97
4839.00,0.97
4838.00,0.97
4837.00,0.97
4836.00,0.97
4835.00,0.97
4834.00,0.97
4833.00,0.97
4832.00,0.97
4831.00,0.98
4830.00,0.98
4829.00,0.98
4828.00,0.99
4827.00,0.99
4826.00,0.99
4825.00,1.00
4824.00,1.00
4823.00,1.01
4822.00,1.01
4821.00,1.01
4820.00,1.02
4819.00,1.02
4818.00,1.02
4817.00,1.02
4816.00,1.02
4815.00,1.02
4814.00,1.03
4813.00,1.03
4812.00,1.03
4811.00,1.03
4810.00,1.03
4809.00,1.02
4808.00,1.02
4807.00,1.02
4806.00,1.02
4805.00,1.02
4804.00,1.02
4803.00,1.02
4802.00,1.02
4801.00,1.02
4800.00,1.02
4799.00,1.02
4798.00,1.02
4797.00,1.02
4796.00,1.03
4795.00,1.03
4794.00,1.03
4793.00,1.03
4792.00,1.03
4791.00,1.03
4790.00,1.03
4789.00,1.03
4788.00,1.03
4787.00,1.03
4786.00,1.03
4785.00,1.03
4784.00,1.04
4783.00,1.04
4782.00,1.04
4781.00,1.04
4780.00,1.04
4779.00,1.04
4778.00,1.05
4777.00,1.05
4776.00,1.05
4775.00,1.05
4774.00,1.05
4773.00,1.06
4772.00,1.06
4771.00,1.06
4770.00,1.06
4769.00,1.06
4768.00,1.07
4767.00,1.07
4766.00,1.07
4765.00,1.07
4764.00,1.08
4763.00,1.08
4762.00,1.08
4761.00,1.08
4760.00,1.09
4759.00,1.09
4758.00,1.09
4757.00,1.09
4756.00,1.10
4755.00,1.10
4754.00,1.11
4753.00,1.11
4752.00,1.11
4751.00,1.12
4750.00,1.12
4749.00,1.12
4748.00,1.12
4747.00,1.12
4746.00,1.13
4745.00,1.13
4744.00,1.13
4743.00,1.13
4742.00,1.12
4741.00,1.12
4740.00,1.12
4739.00,1.12
4738.00,1.12
4737.00,1.12
4736.00,1.12
4735.00,1.12
4734.00,1.12
4733.00,1.12
4732.00,1.12
4731.00,1.13
4730.00,1.13
4729.00,1.14
4728.00,1.14
4727.00,1.15
4726.00,1.15
4725.00,1.16
4724.00,1.16
4723.00,1.17
4722.00,1.17
4721.00,1.18
4720.00,1.18
4719.00,1.18
4718.00,1.19
4717.00,1.19
4716.00,1.19
4715.00,1.19
4714.00,1.18
4713.00,1.18
4712.00,1.18
4711.00,1.18
4710.00,1.18
4709.00,1.18
4708.00,1.17
4707.00,1.17
4706.00,1.17
4705.00,1.17
4704.00,1.17
4703.00,1.17
4702.00,1.17
4701.00,1.17
4700.00,1.17
4699.00,1.18
4698.00,1.18
4697.00,1.18
4696.00,1.19
4695.00,1.19
4694.00,1.20
4693.00,1.20
4692.00,1.20
4691.00,1.20
4690.00,1.21
4689.00,1.21
4688.00,1.21
4687.00,1.22
4686.00,1.22
4685.00,1.22
4684.00,1.23
4683.00,1.23
4682.00,1.23
4681.00,1.23
4680.00,1.23
4679.00,1.23
4678.00,1.23
4677.00,1.23
4676.00,1.24
4675.00,1.24
4674.00,1.24
4673.00,1.25
4672.00,1.25
4671.00,1.26
4670.00,1.26
4669.00,1.26
4668.00,1.27
4667.00,1.27
4666.00,1.28
4665.00,1.28
4664.00,1.29
4663.00,1.29
4662.00,1.30
4661.00,1.30
4660.00,1.30
4659.00,1.30
4658.00,1.31
4657.00,1.31
4656.00,1.31
4655.00,1.31
4654.00,1.31
4653.00,1.31
4652.00,1.31
4651.00,1.30
4650.00,1.30
4649.00,1.30
4648.00,1.30
4647.00,1.30
4646.00,1.30
4645.00,1.30
4644.00,1.30
4643.00,1.30
4642.00,1.30
4641.00,1.30
4640.00,1.30
4639.00,1.30
4638.00,1.30
4637.00,1.30
4636.00,1.30
4635.00,1.30
4634.00,1.30
4633.00,1.31
4632.00,1.31
4631.00,1.31
4630.00,1.31
4629.00,1.31
4628.00,1.31
4627.00,1.31
4626.00,1.31
4625.00,1.32
4624.00,1.32
4623.00,1.32
4622.00,1.32
4621.00,1.32
4620.00,1.32
4619.00,1.31
4618.00,1.31
4617.00,1.31
4616.00,1.31
4615.00,1.31
4614.00,1.30
4613.00,1.30
4612.00,1.30
4611.00,1.30
4610.00,1.30
4609.00,1.30
4608.00,1.30
4607.00,1.30
4606.00,1.31
4605.00,1.31
4604.00,1.31
4603.00,1.32
4602.00,1.32
4601.00,1.33
4600.00,1.33
4599.00,1.34
4598.00,1.34
4597.00,1.35
4596.00,1.35
4595.00,1.36
4594.00,1.36
4593.00,1.37
4592.00,1.37
4591.00,1.38
4590.00,1.38
4589.00,1.38
4588.00,1.39
4587.00,1.39
4586.00,1.40
4585.00,1.40
4584.00,1.40
4583.00,1.40
4582.00,1.41
4581.00,1.41
4580.00,1.41
4579.00,1.41
4578.00,1.41
4577.00,1.41
4576.00,1.41
4575.00,1.41
4574.00,1.41
4573.00,1.40
4572.00,1.40
4571.00,1.40
4570.00,1.39
4569.00,1.39
4568.00,1.39
4567.00,1.39
4566.00,1.38
4565.00,1.38
4564.00,1.38
4563.00,1.38
4562.00,1.38
4561.00,1.38
4560.00,1.38
4559.00,1.39
4558.00,1.39
4557.00,1.40
4556.00,1.40
4555.00,1.41
4554.00,1.41
4553.00,1.42
4552.00,1.42
4551.00,1.43
4550.00,1.43
4549.00,1.44
4548.00,1.44
4547.00,1.44
4546.00,1.45
4545.00,1.45
4544.00,1.45
4543.00,1.45
4542.00,1.45
4541.00,1.45
4540.00,1.44
4539.00,1.44
4538.00,1.44
4537.00,1.44
4536.00,1.43
4535.00,1.43
4534.00,1.43
4533.00,1.43
4532.00,1.43
4531.00,1.43
4530.00,1.43
4529.00,1.43
4528.00,1.43
4527.00,1.43
4526.00,1.43
4525.00,1.44
4524.00,1.44
4523.00,1.44
4522.00,1.44
4521.00,1.45
4520.00,1.45
4519.00,1.45
4518.00,1.44
4517.00,1.44
4516.00,1.44
4515.00,1.44
4514.00,1.44
4513.00,1.44
4512.00,1.43
4511.00,1.43
4510.00,1.43
4509.00,1.42
4508.00,1.42
4507.00,1.42
4506.00,1.41
4505.00,1.41
4504.00,1.41
4503.00,1.41
4502.00,1.41
4501.00,1.41
4500.00,1.41
4499.00,1.41
4498.00,1.41
4497.00,1.41
4496.00,1.41
4495.00,1.41
4494.00,1.41
4493.00,1.41
4492.00,1.41
4491.00,1.41
4490.00,1.41
4489.00,1.41
4488.00,1.41
4487.00,1.41
4486.00,1.40
4485.00,1.40
4484.00,1.40
4483.00,1.40
4482.00,1.39
4481.00,1.39
4480.00,1.39
4479.00,1.39
4478.00,1.38
4477.00,1.38
4476.00,1.38
4475.00,1.38
4474.00,1.37
4473.00,1.37
4472.00,1.37
4471.00,1.37
4470.00,1.36
4469.00,1.36
4468.00,1.36
4467.00,1.36
4466.00,1.36
4465.00,1.35
4464.00,1.35
4463.00,1.35
4462.00,1.35
4461.00,1.35
4460.00,1.34
4459.00,1.34
4458.00,1.34
4457.00,1.34
4456.00,1.33
4455.00,1.33
4454.00,1.33
4453.00,1.33
4452.00,1.32
4451.00,1.32
4450.00,1.32
4449.00,1.31
4448.00,1.31
4447.00,1.30
4446.00,1.30
4445.00,1.29
4444.00,1.29
4443.00,1.28
4442.00,1.27
4441.00,1.26
4440.00,1.25
4439.00,1.24
4438.00,1.24
4437.00,1.23
4436.00,1.22
4435.00,1.21
4434.00,1.19
4433.00,1.18
4432.00,1.17
4431.00,1.16
4430.00,1.15
4429.00,1.15
4428.00,1.14
4427.00,1.13
4426.00,1.12
4425.00,1.12
4424.00,1.11
4423.00,1.11
4422.00,1.10
4421.00,1.10
4420.00,1.09
4419.00,1.09
4418.00,1.08
4417.00,1.08
4416.00,1.08
4415.00,1.08
4414.00,1.07
4413.00,1.07
4412.00,1.07
4411.00,1.07
4410.00,1.07
4409.00,1.06
4408.00,1.06
4407.00,1.06
4406.00,1.06
4405.00,1.06
4404.00,1.06
4403.00,1.06
4402.00,1.07
4401.00,1.07
4400.00,1.07
4399.00,1.08
4398.00,1.08
4397.00,1.08
4396.00,1.09
4395.00,1.10
4394.00,1.10
4393.00,1.11
4392.00,1.11
4391.00,1.12
4390.00,1.12
4389.00,1.13
4388.00,1.13
4387.00,1.14
4386.00,1.14
4385.00,1.14
4384.00,1.15
4383.00,1.15
4382.00,1.15
4381.00,1.15
4380.00,1.15
4379.00,1.15
4378.00,1.15
4377.00,1.15
4376.00,1.14
4375.00,1.14
4374.00,1.14
4373.00,1.14
4372.00,1.14
4371.00,1.14
4370.00,1.14
4369.00,1.14
4368.00,1.14
4367.00,1.14
4366.00,1.13
4365.00,1.13
4364.00,1.13
4363.00,1.13
4362.00,1.13
4361.00,1.13
4360.00,1.14
4359.00,1.14
4358.00,1.14
4357.00,1.14
4356.00,1.14
4355.00,1.15
4354.00,1.15
4353.00,1.15
4352.00,1.15
4351.00,1.15
4350.00,1.15
4349.00,1.15
4348.00,1.15
4347.00,1.15
4346.00,1.14
4345.00,1.14
4344.00,1.14
4343.00,1.13
4342.00,1.13
4341.00,1.12
4340.00,1.11
4339.00,1.11
4338.00,1.10
4337.00,1.09
4336.00,1.08
4335.00,1.07
4334.00,1.07
4333.00,1.06
4332.00,1.06
4331.00,1.05
4330.00,1.05
4329.00,1.05
4328.00,1.05
4327.00,1.06
4326.00,1.06
4325.00,1.06
4324.00,1.07
4323.00,1.08
4322.00,1.09
4321.00,1.10
4320.00,1.11
4319.00,1.13
4318.00,1.14
4317.00,1.15
4316.00,1.16
4315.00,1.18
4314.00,1.19
4313.00,1.20
4312.00,1.21
4311.00,1.22
4310.00,1.22
4309.00,1.23
4308.00,1.23
4307.00,1.24
4306.00,1.24
4305.00,1.25
4304.00,1.25
4303.00,1.25
4302.00,1.25
4301.00,1.25
4300.00,1.25
4299.00,1.25
4298.00,1.25
4297.00,1.25
4296.00,1.26
4295.00,1.26
4294.00,1.26
4293.00,1.27
4292.00,1.27
4291.00,1.28
4290.00,1.28
4289.00,1.28
4288.00,1.29
4287.00,1.29
4286.00,1.29
4285.00,1.30
4284.00,1.30
4283.00,1.30
4282.00,1.30
4281.00,1.30
4280.00,1.30
4279.00,1.29
4278.00,1.29
4277.00,1.29
4276.00,1.28
4275.00,1.28
4274.00,1.27
4273.00,1.27
4272.00,1.26
4271.00,1.25
4270.00,1.25
4269.00,1.24
4268.00,1.24
4267.00,1.23
4266.00,1.23
4265.00,1.22
4264.00,1.22
4263.00,1.22
4262.00,1.21
4261.00,1.21
4260.00,1.21
4259.00,1.21
4258.00,1.20
4257.00,1.20
4256.00,1.20
4255.00,1.20
4254.00,1.20
4253.00,1.21
4252.00,1.21
4251.00,1.21
4250.00,1.21
4249.00,1.21
4248.00,1.21
4247.00,1.21
4246.00,1.22
4245.00,1.22
4244.00,1.23
4243.00,1.24
4242.00,1.24
4241.00,1.25
4240.00,1.26
4239.00,1.26
4238.00,1.27
4237.00,1.28
4236.00,1.28
4235.00,1.28
4234.00,1.29
4233.00,1.29
4232.00,1.29
4231.00,1.29
4230.00,1.29
4229.00,1.29
4228.00,1.29
4227.00,1.28
4226.00,1.28
4225.00,1.27
4224.00,1.26
4223.00,1.25
4222.00,1.25
4221.00,1.24
4220.00,1.23
4219.00,1.23
4218.00,1.22
4217.00,1.22
4216.00,1.22
4215.00,1.21
4214.00,1.21
4213.00,1.21
4212.00,1.21
4211.00,1.21
4210.00,1.21
4209.00,1.22
4208.00,1.22
4207.00,1.22
4206.00,1.22
4205.00,1.23
4204.00,1.23
4203.00,1.24
4202.00,1.24
4201.00,1.24
4200.00,1.25
4199.00,1.25
4198.00,1.26
4197.00,1.26
4196.00,1.26
4195.00,1.27
4194.00,1.27
4193.00,1.28
4192.00,1.29
4191.00,1.29
4190.00,1.30
4189.00,1.30
4188.00,1.31
4187.00,1.31
4186.00,1.31
4185.00,1.31
4184.00,1.31
4183.00,1.31
4182.00,1.31
4181.00,1.31
4180.00,1.31
4179.00,1.31
4178.00,1.30
4177.00,1.30
4176.00,1.30
4175.00,1.30
4174.00,1.29
4173.00,1.29
4172.00,1.29
4171.00,1.29
4170.00,1.29
4169.00,1.29
4168.00,1.29
4167.00,1.29
4166.00,1.29
4165.00,1.29
4164.00,1.30
4163.00,1.30
4162.00,1.30
4161.00,1.30
4160.00,1.31
4159.00,1.31
4158.00,1.31
4157.00,1.31
4156.00,1.31
4155.00,1.30
4154.00,1.30
4153.00,1.30
4152.00,1.30
4151.00,1.30
4150.00,1.30
4149.00,1.29
4148.00,1.29
4147.00,1.29
4146.00,1.28
4145.00,1.28
4144.00,1.28
4143.00,1.27
4142.00,1.27
4141.00,1.27
4140.00,1.27
4139.00,1.27
4138.00,1.26
4137.00,1.26
4136.00,1.26
4135.00,1.26
4134.00,1.26
4133.00,1.26
4132.00,1.27
4131.00,1.27
4130.00,1.27
4129.00,1.27
4128.00,1.28
4127.00,1.28
4126.00,1.28
4125.00,1.29
4124.00,1.29
4123.00,1.30
4122.00,1.30
4121.00,1.31
4120.00,1.31
4119.00,1.32
4118.00,1.32
4117.00,1.32
4116.00,1.32
4115.00,1.32
4114.00,1.32
4113.00,1.31
4112.00,1.31
4111.00,1.30
4110.00,1.30
4109.00,1.29
4108.00,1.28
4107.00,1.28
4106.00,1.27
4105.00,1.26
4104.00,1.25
4103.00,1.24
4102.00,1.23
4101.00,1.23
4100.00,1.22
4099.00,1.22
4098.00,1.22
4097.00,1.22
4096.00,1.22
4095.00,1.22
4094.00,1.23
4093.00,1.23
4092.00,1.24
4091.00,1.25
4090.00,1.25
4089.00,1.26
4088.00,1.27
4087.00,1.27
4086.00,1.27
4085.00,1.28
4084.00,1.28
4083.00,1.28
4082.00,1.28
4081.00,1.28
4080.00,1.28
4079.00,1.28
4078.00,1.28
4077.00,1.28
4076.00,1.27
4075.00,1.27
4074.00,1.27
4073.00,1.27
4072.00,1.27
4071.00,1.28
4070.00,1.29
4069.00,1.30
4068.00,1.31
4067.00,1.32
4066.00,1.34
4065.00,1.35
4064.00,1.36
4063.00,1.37
4062.00,1.39
4061.00,1.40
4060.00,1.41
4059.00,1.43
4058.00,1.44
4057.00,1.45
4056.00,1.46
4055.00,1.47
4054.00,1.48
4053.00,1.48
4052.00,1.48
4051.00,1.48
4050.00,1.48
4049.00,1.48
4048.00,1.47
4047.00,1.47
4046.00,1.47
4045.00,1.47
4044.00,1.46
4043.00,1.46
4042.00,1.46
4041.00,1.46
4040.00,1.45
4039.00,1.44
4038.00,1.44
4037.00,1.44
4036.00,1.43
4035.00,1.43
4034.00,1.43
4033.00,1.44
4032.00,1.44
4031.00,1.44
4030.00,1.45
4029.00,1.45
4028.00,1.45
4027.00,1.46
4026.00,1.46
4025.00,1.47
4024.00,1.47
4023.00,1.48
4022.00,1.48
4021.00,1.49
4020.00,1.50
4019.00,1.50
4018.00,1.51
4017.00,1.51
4016.00,1.51
4015.00,1.52
4014.00,1.52
4013.00,1.52
4012.00,1.52
4011.00,1.53
4010.00,1.53
4009.00,1.53
4008.00,1.53
4007.00,1.53
4006.00,1.53
4005.00,1.53
4004.00,1.53
4003.00,1.53
4002.00,1.53
4001.00,1.53
4000.00,1.53
