创建为新数据集,样品 700 用户 Administrator 日期 星期四, 七月 25 2019
cm-1,%T
10000.00,1.60
9999.00,1.63
9998.00,1.65
9997.00,1.68
9996.00,1.70
9995.00,1.73
9994.00,1.75
9993.00,1.77
9992.00,1.78
9991.00,1.79
9990.00,1.80
9989.00,1.81
9988.00,1.81
9987.00,1.81
9986.00,1.81
9985.00,1.80
9984.00,1.80
9983.00,1.79
9982.00,1.78
9981.00,1.76
9980.00,1.75
9979.00,1.74
9978.00,1.73
9977.00,1.71
9976.00,1.70
9975.00,1.69
9974.00,1.69
9973.00,1.68
9972.00,1.68
9971.00,1.68
9970.00,1.68
9969.00,1.68
9968.00,1.69
9967.00,1.69
9966.00,1.70
9965.00,1.70
9964.00,1.71
9963.00,1.71
9962.00,1.71
9961.00,1.72
9960.00,1.72
9959.00,1.72
9958.00,1.72
9957.00,1.72
9956.00,1.72
9955.00,1.72
9954.00,1.72
9953.00,1.71
9952.00,1.71
9951.00,1.71
9950.00,1.71
9949.00,1.71
9948.00,1.72
9947.00,1.72
9946.00,1.73
9945.00,1.74
9944.00,1.75
9943.00,1.75
9942.00,1.76
9941.00,1.77
9940.00,1.78
9939.00,1.79
9938.00,1.79
9937.00,1.80
9936.00,1.80
9935.00,1.80
9934.00,1.80
9933.00,1.80
9932.00,1.80
9931.00,1.79
9930.00,1.78
9929.00,1.77
9928.00,1.76
9927.00,1.75
9926.00,1.74
9925.00,1.73
9924.00,1.72
9923.00,1.70
9922.00,1.69
9921.00,1.68
9920.00,1.67
9919.00,1.66
9918.00,1.65
9917.00,1.64
9916.00,1.63
9915.00,1.62
9914.00,1.61
9913.00,1.60
9912.00,1.59
9911.00,1.58
9910.00,1.58
9909.00,1.57
9908.00,1.57
9907.00,1.57
9906.00,1.57
9905.00,1.57
9904.00,1.57
9903.00,1.58
9902.00,1.59
9901.00,1.59
9900.00,1.60
9899.00,1.61
9898.00,1.62
9897.00,1.64
9896.00,1.65
9895.00,1.66
9894.00,1.67
9893.00,1.67
9892.00,1.68
9891.00,1.68
9890.00,1.68
9889.00,1.68
9888.00,1.68
9887.00,1.68
9886.00,1.67
9885.00,1.66
9884.00,1.66
9883.00,1.65
9882.00,1.63
9881.00,1.62
9880.00,1.61
9879.00,1.60
9878.00,1.59
9877.00,1.58
9876.00,1.57
9875.00,1.56
9874.00,1.55
9873.00,1.55
9872.00,1.54
9871.00,1.54
9870.00,1.54
9869.00,1.54
9868.00,1.54
9867.00,1.54
9866.00,1.54
9865.00,1.55
9864.00,1.56
9863.00,1.56
9862.00,1.57
9861.00,1.58
9860.00,1.59
9859.00,1.60
9858.00,1.60
9857.00,1.61
9856.00,1.62
9855.00,1.62
9854.00,1.62
9853.00,1.62
9852.00,1.62
9851.00,1.62
9850.00,1.62
9849.00,1.61
9848.00,1.61
9847.00,1.60
9846.00,1.59
9845.00,1.58
9844.00,1.57
9843.00,1.56
9842.00,1.56
9841.00,1.55
9840.00,1.54
9839.00,1.53
9838.00,1.52
9837.00,1.52
9836.00,1.52
9835.00,1.51
9834.00,1.51
9833.00,1.51
9832.00,1.52
9831.00,1.52
9830.00,1.52
9829.00,1.53
9828.00,1.53
9827.00,1.53
9826.00,1.53
9825.00,1.54
9824.00,1.54
9823.00,1.54
9822.00,1.55
9821.00,1.55
9820.00,1.55
9819.00,1.56
9818.00,1.56
9817.00,1.56
9816.00,1.57
9815.00,1.57
9814.00,1.58
9813.00,1.58
9812.00,1.59
9811.00,1.59
9810.00,1.60
9809.00,1.61
9808.00,1.61
9807.00,1.62
9806.00,1.63
9805.00,1.63
9804.00,1.64
9803.00,1.64
9802.00,1.64
9801.00,1.64
9800.00,1.64
9799.00,1.64
9798.00,1.64
9797.00,1.64
9796.00,1.64
9795.00,1.63
9794.00,1.63
9793.00,1.62
9792.00,1.62
9791.00,1.61
9790.00,1.61
9789.00,1.61
9788.00,1.60
9787.00,1.60
9786.00,1.60
9785.00,1.60
9784.00,1.60
9783.00,1.61
9782.00,1.61
9781.00,1.61
9780.00,1.61
9779.00,1.61
9778.00,1.61
9777.00,1.61
9776.00,1.61
9775.00,1.61
9774.00,1.61
9773.00,1.61
9772.00,1.61
9771.00,1.60
9770.00,1.60
9769.00,1.59
9768.00,1.58
9767.00,1.58
9766.00,1.57
9765.00,1.56
9764.00,1.55
9763.00,1.55
9762.00,1.54
9761.00,1.54
9760.00,1.53
9759.00,1.53
9758.00,1.53
9757.00,1.53
9756.00,1.53
9755.00,1.53
9754.00,1.54
9753.00,1.54
9752.00,1.54
9751.00,1.55
9750.00,1.56
9749.00,1.56
9748.00,1.57
9747.00,1.58
9746.00,1.59
9745.00,1.59
9744.00,1.60
9743.00,1.61
9742.00,1.61
9741.00,1.62
9740.00,1.62
9739.00,1.62
9738.00,1.63
9737.00,1.63
9736.00,1.63
9735.00,1.64
9734.00,1.64
9733.00,1.64
9732.00,1.64
9731.00,1.63
9730.00,1.63
9729.00,1.63
9728.00,1.62
9727.00,1.62
9726.00,1.62
9725.00,1.61
9724.00,1.60
9723.00,1.60
9722.00,1.59
9721.00,1.58
9720.00,1.58
9719.00,1.57
9718.00,1.56
9717.00,1.56
9716.00,1.55
9715.00,1.55
9714.00,1.54
9713.00,1.54
9712.00,1.54
9711.00,1.54
9710.00,1.54
9709.00,1.54
9708.00,1.55
9707.00,1.55
9706.00,1.55
9705.00,1.56
9704.00,1.56
9703.00,1.57
9702.00,1.58
9701.00,1.59
9700.00,1.59
9699.00,1.60
9698.00,1.61
9697.00,1.62
9696.00,1.63
9695.00,1.63
9694.00,1.64
9693.00,1.65
9692.00,1.66
9691.00,1.67
9690.00,1.69
9689.00,1.69
9688.00,1.70
9687.00,1.71
9686.00,1.72
9685.00,1.72
9684.00,1.72
9683.00,1.72
9682.00,1.72
9681.00,1.72
9680.00,1.72
9679.00,1.72
9678.00,1.71
9677.00,1.71
9676.00,1.70
9675.00,1.69
9674.00,1.68
9673.00,1.68
9672.00,1.67
9671.00,1.66
9670.00,1.65
9669.00,1.65
9668.00,1.64
9667.00,1.64
9666.00,1.63
9665.00,1.63
9664.00,1.63
9663.00,1.63
9662.00,1.63
9661.00,1.63
9660.00,1.63
9659.00,1.62
9658.00,1.62
9657.00,1.62
9656.00,1.61
9655.00,1.61
9654.00,1.60
9653.00,1.60
9652.00,1.59
9651.00,1.58
9650.00,1.57
9649.00,1.57
9648.00,1.56
9647.00,1.55
9646.00,1.54
9645.00,1.53
9644.00,1.53
9643.00,1.52
9642.00,1.52
9641.00,1.52
9640.00,1.52
9639.00,1.52
9638.00,1.52
9637.00,1.53
9636.00,1.54
9635.00,1.55
9634.00,1.56
9633.00,1.57
9632.00,1.58
9631.00,1.60
9630.00,1.61
9629.00,1.62
9628.00,1.64
9627.00,1.65
9626.00,1.66
9625.00,1.67
9624.00,1.68
9623.00,1.69
9622.00,1.70
9621.00,1.71
9620.00,1.72
9619.00,1.72
9618.00,1.73
9617.00,1.73
9616.00,1.73
9615.00,1.73
9614.00,1.74
9613.00,1.74
9612.00,1.74
9611.00,1.74
9610.00,1.74
9609.00,1.74
9608.00,1.74
9607.00,1.74
9606.00,1.73
9605.00,1.73
9604.00,1.73
9603.00,1.72
9602.00,1.72
9601.00,1.71
9600.00,1.71
9599.00,1.70
9598.00,1.70
9597.00,1.69
9596.00,1.69
9595.00,1.68
9594.00,1.68
9593.00,1.68
9592.00,1.67
9591.00,1.67
9590.00,1.67
9589.00,1.66
9588.00,1.66
9587.00,1.66
9586.00,1.66
9585.00,1.66
9584.00,1.65
9583.00,1.65
9582.00,1.65
9581.00,1.65
9580.00,1.65
9579.00,1.64
9578.00,1.64
9577.00,1.64
9576.00,1.64
9575.00,1.63
9574.00,1.63
9573.00,1.63
9572.00,1.63
9571.00,1.62
9570.00,1.62
9569.00,1.62
9568.00,1.61
9567.00,1.61
9566.00,1.60
9565.00,1.60
9564.00,1.59
9563.00,1.59
9562.00,1.58
9561.00,1.57
9560.00,1.57
9559.00,1.56
9558.00,1.55
9557.00,1.55
9556.00,1.54
9555.00,1.54
9554.00,1.53
9553.00,1.53
9552.00,1.52
9551.00,1.52
9550.00,1.52
9549.00,1.51
9548.00,1.52
9547.00,1.52
9546.00,1.52
9545.00,1.52
9544.00,1.53
9543.00,1.53
9542.00,1.53
9541.00,1.54
9540.00,1.54
9539.00,1.55
9538.00,1.55
9537.00,1.56
9536.00,1.56
9535.00,1.57
9534.00,1.58
9533.00,1.58
9532.00,1.59
9531.00,1.60
9530.00,1.60
9529.00,1.61
9528.00,1.61
9527.00,1.62
9526.00,1.63
9525.00,1.63
9524.00,1.64
9523.00,1.65
9522.00,1.65
9521.00,1.66
9520.00,1.67
9519.00,1.67
9518.00,1.67
9517.00,1.68
9516.00,1.68
9515.00,1.68
9514.00,1.68
9513.00,1.68
9512.00,1.68
9511.00,1.68
9510.00,1.67
9509.00,1.67
9508.00,1.66
9507.00,1.66
9506.00,1.65
9505.00,1.64
9504.00,1.63
9503.00,1.62
9502.00,1.60
9501.00,1.59
9500.00,1.58
9499.00,1.57
9498.00,1.56
9497.00,1.55
9496.00,1.54
9495.00,1.53
9494.00,1.53
9493.00,1.52
9492.00,1.52
9491.00,1.52
9490.00,1.53
9489.00,1.53
9488.00,1.54
9487.00,1.56
9486.00,1.57
9485.00,1.58
9484.00,1.60
9483.00,1.62
9482.00,1.64
9481.00,1.65
9480.00,1.67
9479.00,1.68
9478.00,1.69
9477.00,1.70
9476.00,1.71
9475.00,1.72
9474.00,1.72
9473.00,1.73
9472.00,1.73
9471.00,1.73
9470.00,1.72
9469.00,1.72
9468.00,1.71
9467.00,1.70
9466.00,1.69
9465.00,1.68
9464.00,1.67
9463.00,1.66
9462.00,1.64
9461.00,1.63
9460.00,1.62
9459.00,1.61
9458.00,1.60
9457.00,1.59
9456.00,1.59
9455.00,1.58
9454.00,1.58
9453.00,1.57
9452.00,1.57
9451.00,1.57
9450.00,1.57
9449.00,1.58
9448.00,1.58
9447.00,1.59
9446.00,1.59
9445.00,1.60
9444.00,1.61
9443.00,1.61
9442.00,1.62
9441.00,1.63
9440.00,1.63
9439.00,1.63
9438.00,1.64
9437.00,1.64
9436.00,1.64
9435.00,1.63
9434.00,1.63
9433.00,1.63
9432.00,1.62
9431.00,1.62
9430.00,1.61
9429.00,1.61
9428.00,1.60
9427.00,1.60
9426.00,1.59
9425.00,1.59
9424.00,1.58
9423.00,1.58
9422.00,1.58
9421.00,1.57
9420.00,1.57
9419.00,1.57
9418.00,1.57
9417.00,1.56
9416.00,1.56
9415.00,1.56
9414.00,1.57
9413.00,1.57
9412.00,1.57
9411.00,1.57
9410.00,1.58
9409.00,1.58
9408.00,1.58
9407.00,1.59
9406.00,1.60
9405.00,1.61
9404.00,1.62
9403.00,1.63
9402.00,1.64
9401.00,1.65
9400.00,1.65
9399.00,1.66
9398.00,1.67
9397.00,1.68
9396.00,1.69
9395.00,1.69
9394.00,1.70
9393.00,1.70
9392.00,1.71
9391.00,1.71
9390.00,1.71
9389.00,1.70
9388.00,1.70
9387.00,1.69
9386.00,1.68
9385.00,1.68
9384.00,1.67
9383.00,1.66
9382.00,1.65
9381.00,1.63
9380.00,1.62
9379.00,1.61
9378.00,1.61
9377.00,1.60
9376.00,1.59
9375.00,1.59
9374.00,1.59
9373.00,1.59
9372.00,1.59
9371.00,1.59
9370.00,1.60
9369.00,1.60
9368.00,1.61
9367.00,1.62
9366.00,1.63
9365.00,1.64
9364.00,1.65
9363.00,1.66
9362.00,1.67
9361.00,1.67
9360.00,1.68
9359.00,1.68
9358.00,1.69
9357.00,1.69
9356.00,1.69
9355.00,1.70
9354.00,1.70
9353.00,1.70
9352.00,1.70
9351.00,1.70
9350.00,1.70
9349.00,1.70
9348.00,1.69
9347.00,1.69
9346.00,1.69
9345.00,1.68
9344.00,1.68
9343.00,1.67
9342.00,1.67
9341.00,1.66
9340.00,1.66
9339.00,1.65
9338.00,1.65
9337.00,1.64
9336.00,1.63
9335.00,1.63
9334.00,1.62
9333.00,1.61
9332.00,1.61
9331.00,1.60
9330.00,1.60
9329.00,1.60
9328.00,1.59
9327.00,1.59
9326.00,1.59
9325.00,1.59
9324.00,1.58
9323.00,1.58
9322.00,1.57
9321.00,1.57
9320.00,1.56
9319.00,1.56
9318.00,1.55
9317.00,1.54
9316.00,1.54
9315.00,1.53
9314.00,1.52
9313.00,1.52
9312.00,1.51
9311.00,1.51
9310.00,1.50
9309.00,1.50
9308.00,1.49
9307.00,1.49
9306.00,1.49
9305.00,1.49
9304.00,1.49
9303.00,1.49
9302.00,1.50
9301.00,1.50
9300.00,1.51
9299.00,1.51
9298.00,1.52
9297.00,1.53
9296.00,1.54
9295.00,1.55
9294.00,1.56
9293.00,1.57
9292.00,1.58
9291.00,1.59
9290.00,1.60
9289.00,1.60
9288.00,1.61
9287.00,1.62
9286.00,1.62
9285.00,1.62
9284.00,1.63
9283.00,1.63
9282.00,1.62
9281.00,1.62
9280.00,1.62
9279.00,1.61
9278.00,1.61
9277.00,1.60
9276.00,1.59
9275.00,1.58
9274.00,1.57
9273.00,1.56
9272.00,1.55
9271.00,1.54
9270.00,1.53
9269.00,1.52
9268.00,1.52
9267.00,1.51
9266.00,1.50
9265.00,1.50
9264.00,1.49
9263.00,1.49
9262.00,1.48
9261.00,1.48
9260.00,1.48
9259.00,1.48
9258.00,1.48
9257.00,1.48
9256.00,1.49
9255.00,1.50
9254.00,1.50
9253.00,1.51
9252.00,1.52
9251.00,1.53
9250.00,1.54
9249.00,1.55
9248.00,1.56
9247.00,1.57
9246.00,1.59
9245.00,1.60
9244.00,1.61
9243.00,1.62
9242.00,1.64
9241.00,1.65
9240.00,1.65
9239.00,1.66
9238.00,1.67
9237.00,1.67
9236.00,1.68
9235.00,1.68
9234.00,1.68
9233.00,1.68
9232.00,1.69
9231.00,1.69
9230.00,1.69
9229.00,1.69
9228.00,1.69
9227.00,1.69
9226.00,1.69
9225.00,1.68
9224.00,1.68
9223.00,1.68
9222.00,1.68
9221.00,1.68
9220.00,1.67
9219.00,1.67
9218.00,1.67
9217.00,1.66
9216.00,1.66
9215.00,1.66
9214.00,1.65
9213.00,1.65
9212.00,1.65
9211.00,1.64
9210.00,1.64
9209.00,1.64
9208.00,1.65
9207.00,1.65
9206.00,1.65
9205.00,1.66
9204.00,1.66
9203.00,1.67
9202.00,1.67
9201.00,1.67
9200.00,1.68
9199.00,1.68
9198.00,1.69
9197.00,1.69
9196.00,1.69
9195.00,1.69
9194.00,1.69
9193.00,1.69
9192.00,1.69
9191.00,1.69
9190.00,1.68
9189.00,1.68
9188.00,1.67
9187.00,1.67
9186.00,1.66
9185.00,1.66
9184.00,1.66
9183.00,1.65
9182.00,1.65
9181.00,1.65
9180.00,1.65
9179.00,1.65
9178.00,1.65
9177.00,1.66
9176.00,1.66
9175.00,1.66
9174.00,1.66
9173.00,1.66
9172.00,1.66
9171.00,1.66
9170.00,1.67
9169.00,1.67
9168.00,1.67
9167.00,1.67
9166.00,1.67
9165.00,1.67
9164.00,1.67
9163.00,1.67
9162.00,1.67
9161.00,1.67
9160.00,1.68
9159.00,1.68
9158.00,1.69
9157.00,1.70
9156.00,1.71
9155.00,1.71
9154.00,1.72
9153.00,1.73
9152.00,1.74
9151.00,1.74
9150.00,1.75
9149.00,1.75
9148.00,1.76
9147.00,1.76
9146.00,1.76
9145.00,1.76
9144.00,1.76
9143.00,1.76
9142.00,1.75
9141.00,1.75
9140.00,1.74
9139.00,1.73
9138.00,1.72
9137.00,1.72
9136.00,1.71
9135.00,1.70
9134.00,1.69
9133.00,1.69
9132.00,1.68
9131.00,1.68
9130.00,1.68
9129.00,1.68
9128.00,1.67
9127.00,1.67
9126.00,1.67
9125.00,1.67
9124.00,1.67
9123.00,1.67
9122.00,1.67
9121.00,1.67
9120.00,1.67
9119.00,1.67
9118.00,1.67
9117.00,1.67
9116.00,1.67
9115.00,1.67
9114.00,1.67
9113.00,1.67
9112.00,1.67
9111.00,1.66
9110.00,1.66
9109.00,1.66
9108.00,1.66
9107.00,1.66
9106.00,1.66
9105.00,1.67
9104.00,1.67
9103.00,1.67
9102.00,1.68
9101.00,1.68
9100.00,1.68
9099.00,1.68
9098.00,1.69
9097.00,1.69
9096.00,1.69
9095.00,1.69
9094.00,1.69
9093.00,1.69
9092.00,1.68
9091.00,1.68
9090.00,1.67
9089.00,1.67
9088.00,1.66
9087.00,1.65
9086.00,1.64
9085.00,1.63
9084.00,1.61
9083.00,1.60
9082.00,1.59
9081.00,1.58
9080.00,1.57
9079.00,1.56
9078.00,1.55
9077.00,1.55
9076.00,1.54
9075.00,1.54
9074.00,1.53
9073.00,1.53
9072.00,1.53
9071.00,1.54
9070.00,1.54
9069.00,1.55
9068.00,1.56
9067.00,1.56
9066.00,1.57
9065.00,1.58
9064.00,1.60
9063.00,1.61
9062.00,1.62
9061.00,1.63
9060.00,1.64
9059.00,1.65
9058.00,1.66
9057.00,1.66
9056.00,1.67
9055.00,1.68
9054.00,1.68
9053.00,1.68
9052.00,1.69
9051.00,1.69
9050.00,1.69
9049.00,1.69
9048.00,1.69
9047.00,1.68
9046.00,1.68
9045.00,1.68
9044.00,1.68
9043.00,1.68
9042.00,1.69
9041.00,1.69
9040.00,1.69
9039.00,1.69
9038.00,1.69
9037.00,1.69
9036.00,1.69
9035.00,1.70
9034.00,1.70
9033.00,1.70
9032.00,1.71
9031.00,1.71
9030.00,1.71
9029.00,1.72
9028.00,1.72
9027.00,1.72
9026.00,1.73
9025.00,1.73
9024.00,1.73
9023.00,1.74
9022.00,1.74
9021.00,1.74
9020.00,1.75
9019.00,1.75
9018.00,1.75
9017.00,1.75
9016.00,1.76
9015.00,1.76
9014.00,1.76
9013.00,1.76
9012.00,1.77
9011.00,1.77
9010.00,1.77
9009.00,1.77
9008.00,1.78
9007.00,1.78
9006.00,1.78
9005.00,1.78
9004.00,1.78
9003.00,1.79
9002.00,1.79
9001.00,1.79
9000.00,1.79
8999.00,1.79
8998.00,1.79
8997.00,1.79
8996.00,1.79
8995.00,1.79
8994.00,1.79
8993.00,1.79
8992.00,1.79
8991.00,1.79
8990.00,1.79
8989.00,1.79
8988.00,1.79
8987.00,1.79
8986.00,1.79
8985.00,1.79
8984.00,1.79
8983.00,1.79
8982.00,1.79
8981.00,1.78
8980.00,1.78
8979.00,1.78
8978.00,1.78
8977.00,1.78
8976.00,1.78
8975.00,1.78
8974.00,1.78
8973.00,1.78
8972.00,1.78
8971.00,1.78
8970.00,1.78
8969.00,1.78
8968.00,1.77
8967.00,1.77
8966.00,1.76
8965.00,1.76
8964.00,1.75
8963.00,1.75
8962.00,1.74
8961.00,1.73
8960.00,1.72
8959.00,1.72
8958.00,1.71
8957.00,1.70
8956.00,1.69
8955.00,1.69
8954.00,1.68
8953.00,1.67
8952.00,1.67
8951.00,1.67
8950.00,1.67
8949.00,1.67
8948.00,1.67
8947.00,1.67
8946.00,1.68
8945.00,1.69
8944.00,1.69
8943.00,1.70
8942.00,1.71
8941.00,1.72
8940.00,1.73
8939.00,1.74
8938.00,1.74
8937.00,1.75
8936.00,1.75
8935.00,1.76
8934.00,1.76
8933.00,1.76
8932.00,1.76
8931.00,1.76
8930.00,1.76
8929.00,1.76
8928.00,1.75
8927.00,1.74
8926.00,1.74
8925.00,1.73
8924.00,1.72
8923.00,1.71
8922.00,1.71
8921.00,1.70
8920.00,1.70
8919.00,1.70
8918.00,1.70
8917.00,1.70
8916.00,1.70
8915.00,1.70
8914.00,1.70
8913.00,1.71
8912.00,1.71
8911.00,1.72
8910.00,1.72
8909.00,1.72
8908.00,1.73
8907.00,1.73
8906.00,1.74
8905.00,1.74
8904.00,1.74
8903.00,1.74
8902.00,1.74
8901.00,1.73
8900.00,1.73
8899.00,1.72
8898.00,1.72
8897.00,1.71
8896.00,1.71
8895.00,1.71
8894.00,1.70
8893.00,1.70
8892.00,1.70
8891.00,1.70
8890.00,1.70
8889.00,1.70
8888.00,1.70
8887.00,1.70
8886.00,1.70
8885.00,1.70
8884.00,1.70
8883.00,1.70
8882.00,1.70
8881.00,1.69
8880.00,1.69
8879.00,1.69
8878.00,1.69
8877.00,1.68
8876.00,1.68
8875.00,1.68
8874.00,1.67
8873.00,1.67
8872.00,1.67
8871.00,1.66
8870.00,1.66
8869.00,1.66
8868.00,1.65
8867.00,1.65
8866.00,1.65
8865.00,1.65
8864.00,1.65
8863.00,1.65
8862.00,1.65
8861.00,1.65
8860.00,1.65
8859.00,1.65
8858.00,1.65
8857.00,1.65
8856.00,1.65
8855.00,1.65
8854.00,1.66
8853.00,1.66
8852.00,1.67
8851.00,1.68
8850.00,1.68
8849.00,1.69
8848.00,1.70
8847.00,1.71
8846.00,1.72
8845.00,1.72
8844.00,1.73
8843.00,1.74
8842.00,1.74
8841.00,1.75
8840.00,1.76
8839.00,1.76
8838.00,1.77
8837.00,1.77
8836.00,1.77
8835.00,1.78
8834.00,1.78
8833.00,1.78
8832.00,1.78
8831.00,1.78
8830.00,1.78
8829.00,1.78
8828.00,1.78
8827.00,1.78
8826.00,1.78
8825.00,1.78
8824.00,1.77
8823.00,1.77
8822.00,1.76
8821.00,1.76
8820.00,1.76
8819.00,1.75
8818.00,1.75
8817.00,1.74
8816.00,1.74
8815.00,1.74
8814.00,1.74
8813.00,1.74
8812.00,1.73
8811.00,1.73
8810.00,1.74
8809.00,1.74
8808.00,1.74
8807.00,1.75
8806.00,1.75
8805.00,1.75
8804.00,1.75
8803.00,1.75
8802.00,1.75
8801.00,1.75
8800.00,1.75
8799.00,1.75
8798.00,1.74
8797.00,1.74
8796.00,1.73
8795.00,1.73
8794.00,1.72
8793.00,1.72
8792.00,1.71
8791.00,1.71
8790.00,1.70
8789.00,1.69
8788.00,1.69
8787.00,1.69
8786.00,1.68
8785.00,1.68
8784.00,1.68
8783.00,1.68
8782.00,1.68
8781.00,1.68
8780.00,1.68
8779.00,1.68
8778.00,1.68
8777.00,1.68
8776.00,1.68
8775.00,1.68
8774.00,1.68
8773.00,1.68
8772.00,1.68
8771.00,1.68
8770.00,1.68
8769.00,1.68
8768.00,1.68
8767.00,1.69
8766.00,1.69
8765.00,1.69
8764.00,1.69
8763.00,1.69
8762.00,1.69
8761.00,1.69
8760.00,1.69
8759.00,1.69
8758.00,1.69
8757.00,1.68
8756.00,1.68
8755.00,1.68
8754.00,1.67
8753.00,1.67
8752.00,1.67
8751.00,1.67
8750.00,1.67
8749.00,1.67
8748.00,1.67
8747.00,1.68
8746.00,1.68
8745.00,1.69
8744.00,1.70
8743.00,1.71
8742.00,1.72
8741.00,1.73
8740.00,1.74
8739.00,1.75
8738.00,1.76
8737.00,1.77
8736.00,1.77
8735.00,1.78
8734.00,1.78
8733.00,1.78
8732.00,1.78
8731.00,1.77
8730.00,1.77
8729.00,1.76
8728.00,1.75
8727.00,1.74
8726.00,1.73
8725.00,1.72
8724.00,1.71
8723.00,1.70
8722.00,1.69
8721.00,1.68
8720.00,1.67
8719.00,1.66
8718.00,1.65
8717.00,1.64
8716.00,1.63
8715.00,1.62
8714.00,1.62
8713.00,1.61
8712.00,1.60
8711.00,1.59
8710.00,1.58
8709.00,1.57
8708.00,1.57
8707.00,1.56
8706.00,1.56
8705.00,1.55
8704.00,1.55
8703.00,1.55
8702.00,1.55
8701.00,1.55
8700.00,1.55
8699.00,1.55
8698.00,1.56
8697.00,1.56
8696.00,1.57
8695.00,1.58
8694.00,1.59
8693.00,1.60
8692.00,1.61
8691.00,1.63
8690.00,1.64
8689.00,1.65
8688.00,1.66
8687.00,1.66
8686.00,1.67
8685.00,1.68
8684.00,1.68
8683.00,1.69
8682.00,1.69
8681.00,1.69
8680.00,1.69
8679.00,1.69
8678.00,1.69
8677.00,1.69
8676.00,1.68
8675.00,1.68
8674.00,1.67
8673.00,1.67
8672.00,1.66
8671.00,1.66
8670.00,1.66
8669.00,1.65
8668.00,1.65
8667.00,1.65
8666.00,1.65
8665.00,1.65
8664.00,1.66
8663.00,1.66
8662.00,1.66
8661.00,1.66
8660.00,1.67
8659.00,1.67
8658.00,1.67
8657.00,1.68
8656.00,1.68
8655.00,1.68
8654.00,1.69
8653.00,1.69
8652.00,1.69
8651.00,1.69
8650.00,1.69
8649.00,1.70
8648.00,1.70
8647.00,1.70
8646.00,1.71
8645.00,1.71
8644.00,1.72
8643.00,1.72
8642.00,1.72
8641.00,1.73
8640.00,1.73
8639.00,1.74
8638.00,1.74
8637.00,1.74
8636.00,1.75
8635.00,1.75
8634.00,1.75
8633.00,1.75
8632.00,1.75
8631.00,1.75
8630.00,1.75
8629.00,1.75
8628.00,1.75
8627.00,1.75
8626.00,1.75
8625.00,1.75
8624.00,1.75
8623.00,1.75
8622.00,1.74
8621.00,1.74
8620.00,1.74
8619.00,1.74
8618.00,1.74
8617.00,1.74
8616.00,1.74
8615.00,1.73
8614.00,1.73
8613.00,1.72
8612.00,1.71
8611.00,1.70
8610.00,1.69
8609.00,1.68
8608.00,1.67
8607.00,1.66
8606.00,1.64
8605.00,1.63
8604.00,1.62
8603.00,1.61
8602.00,1.60
8601.00,1.59
8600.00,1.58
8599.00,1.57
8598.00,1.56
8597.00,1.55
8596.00,1.55
8595.00,1.55
8594.00,1.55
8593.00,1.56
8592.00,1.56
8591.00,1.57
8590.00,1.58
8589.00,1.58
8588.00,1.59
8587.00,1.60
8586.00,1.61
8585.00,1.62
8584.00,1.63
8583.00,1.65
8582.00,1.66
8581.00,1.67
8580.00,1.68
8579.00,1.69
8578.00,1.70
8577.00,1.71
8576.00,1.72
8575.00,1.73
8574.00,1.73
8573.00,1.74
8572.00,1.74
8571.00,1.74
8570.00,1.74
8569.00,1.74
8568.00,1.74
8567.00,1.74
8566.00,1.73
8565.00,1.72
8564.00,1.72
8563.00,1.71
8562.00,1.70
8561.00,1.69
8560.00,1.68
8559.00,1.67
8558.00,1.66
8557.00,1.65
8556.00,1.64
8555.00,1.63
8554.00,1.63
8553.00,1.62
8552.00,1.62
8551.00,1.61
8550.00,1.61
8549.00,1.61
8548.00,1.60
8547.00,1.60
8546.00,1.60
8545.00,1.60
8544.00,1.60
8543.00,1.60
8542.00,1.60
8541.00,1.60
8540.00,1.60
8539.00,1.61
8538.00,1.61
8537.00,1.61
8536.00,1.61
8535.00,1.62
8534.00,1.62
8533.00,1.62
8532.00,1.63
8531.00,1.63
8530.00,1.63
8529.00,1.64
8528.00,1.64
8527.00,1.64
8526.00,1.65
8525.00,1.65
8524.00,1.65
8523.00,1.66
8522.00,1.66
8521.00,1.67
8520.00,1.67
8519.00,1.68
8518.00,1.68
8517.00,1.69
8516.00,1.69
8515.00,1.70
8514.00,1.70
8513.00,1.71
8512.00,1.72
8511.00,1.72
8510.00,1.73
8509.00,1.74
8508.00,1.74
8507.00,1.75
8506.00,1.75
8505.00,1.75
8504.00,1.75
8503.00,1.75
8502.00,1.75
8501.00,1.75
8500.00,1.75
8499.00,1.75
8498.00,1.74
8497.00,1.74
8496.00,1.73
8495.00,1.73
8494.00,1.72
8493.00,1.72
8492.00,1.72
8491.00,1.71
8490.00,1.71
8489.00,1.71
8488.00,1.70
8487.00,1.70
8486.00,1.70
8485.00,1.70
8484.00,1.70
8483.00,1.70
8482.00,1.70
8481.00,1.71
8480.00,1.71
8479.00,1.71
8478.00,1.71
8477.00,1.72
8476.00,1.72
8475.00,1.72
8474.00,1.72
8473.00,1.72
8472.00,1.72
8471.00,1.72
8470.00,1.72
8469.00,1.72
8468.00,1.72
8467.00,1.72
8466.00,1.72
8465.00,1.71
8464.00,1.71
8463.00,1.71
8462.00,1.71
8461.00,1.71
8460.00,1.71
8459.00,1.71
8458.00,1.71
8457.00,1.71
8456.00,1.71
8455.00,1.71
8454.00,1.71
8453.00,1.71
8452.00,1.71
8451.00,1.70
8450.00,1.70
8449.00,1.70
8448.00,1.70
8447.00,1.70
8446.00,1.70
8445.00,1.70
8444.00,1.70
8443.00,1.69
8442.00,1.69
8441.00,1.68
8440.00,1.68
8439.00,1.68
8438.00,1.67
8437.00,1.67
8436.00,1.66
8435.00,1.66
8434.00,1.66
8433.00,1.65
8432.00,1.65
8431.00,1.65
8430.00,1.64
8429.00,1.64
8428.00,1.64
8427.00,1.63
8426.00,1.63
8425.00,1.63
8424.00,1.63
8423.00,1.62
8422.00,1.62
8421.00,1.62
8420.00,1.62
8419.00,1.61
8418.00,1.61
8417.00,1.61
8416.00,1.61
8415.00,1.61
8414.00,1.61
8413.00,1.61
8412.00,1.61
8411.00,1.61
8410.00,1.62
8409.00,1.62
8408.00,1.62
8407.00,1.63
8406.00,1.63
8405.00,1.64
8404.00,1.64
8403.00,1.65
8402.00,1.66
8401.00,1.66
8400.00,1.67
8399.00,1.68
8398.00,1.69
8397.00,1.69
8396.00,1.70
8395.00,1.71
8394.00,1.71
8393.00,1.72
8392.00,1.73
8391.00,1.73
8390.00,1.74
8389.00,1.74
8388.00,1.75
8387.00,1.75
8386.00,1.75
8385.00,1.75
8384.00,1.76
8383.00,1.76
8382.00,1.76
8381.00,1.75
8380.00,1.75
8379.00,1.75
8378.00,1.75
8377.00,1.74
8376.00,1.74
8375.00,1.73
8374.00,1.73
8373.00,1.72
8372.00,1.71
8371.00,1.71
8370.00,1.70
8369.00,1.69
8368.00,1.69
8367.00,1.68
8366.00,1.67
8365.00,1.67
8364.00,1.66
8363.00,1.66
8362.00,1.66
8361.00,1.65
8360.00,1.65
8359.00,1.65
8358.00,1.65
8357.00,1.65
8356.00,1.65
8355.00,1.65
8354.00,1.65
8353.00,1.65
8352.00,1.65
8351.00,1.65
8350.00,1.64
8349.00,1.64
8348.00,1.64
8347.00,1.64
8346.00,1.64
8345.00,1.63
8344.00,1.63
8343.00,1.63
8342.00,1.63
8341.00,1.62
8340.00,1.62
8339.00,1.62
8338.00,1.62
8337.00,1.62
8336.00,1.62
8335.00,1.61
8334.00,1.61
8333.00,1.61
8332.00,1.61
8331.00,1.62
8330.00,1.62
8329.00,1.62
8328.00,1.62
8327.00,1.62
8326.00,1.62
8325.00,1.63
8324.00,1.63
8323.00,1.63
8322.00,1.64
8321.00,1.64
8320.00,1.65
8319.00,1.66
8318.00,1.66
8317.00,1.67
8316.00,1.68
8315.00,1.69
8314.00,1.70
8313.00,1.70
8312.00,1.71
8311.00,1.71
8310.00,1.72
8309.00,1.72
8308.00,1.72
8307.00,1.73
8306.00,1.73
8305.00,1.72
8304.00,1.72
8303.00,1.71
8302.00,1.70
8301.00,1.70
8300.00,1.68
8299.00,1.67
8298.00,1.66
8297.00,1.65
8296.00,1.63
8295.00,1.62
8294.00,1.61
8293.00,1.60
8292.00,1.59
8291.00,1.59
8290.00,1.58
8289.00,1.58
8288.00,1.58
8287.00,1.58
8286.00,1.58
8285.00,1.58
8284.00,1.59
8283.00,1.59
8282.00,1.60
8281.00,1.61
8280.00,1.62
8279.00,1.63
8278.00,1.64
8277.00,1.65
8276.00,1.66
8275.00,1.67
8274.00,1.67
8273.00,1.68
8272.00,1.69
8271.00,1.69
8270.00,1.70
8269.00,1.70
8268.00,1.71
8267.00,1.71
8266.00,1.71
8265.00,1.71
8264.00,1.72
8263.00,1.72
8262.00,1.72
8261.00,1.72
8260.00,1.72
8259.00,1.72
8258.00,1.72
8257.00,1.72
8256.00,1.72
8255.00,1.73
8254.00,1.73
8253.00,1.73
8252.00,1.73
8251.00,1.73
8250.00,1.73
8249.00,1.73
8248.00,1.73
8247.00,1.73
8246.00,1.73
8245.00,1.73
8244.00,1.73
8243.00,1.72
8242.00,1.72
8241.00,1.72
8240.00,1.72
8239.00,1.71
8238.00,1.71
8237.00,1.71
8236.00,1.70
8235.00,1.70
8234.00,1.70
8233.00,1.69
8232.00,1.69
8231.00,1.68
8230.00,1.68
8229.00,1.67
8228.00,1.67
8227.00,1.66
8226.00,1.66
8225.00,1.66
8224.00,1.65
8223.00,1.65
8222.00,1.65
8221.00,1.64
8220.00,1.64
8219.00,1.64
8218.00,1.64
8217.00,1.64
8216.00,1.64
8215.00,1.64
8214.00,1.65
8213.00,1.65
8212.00,1.65
8211.00,1.65
8210.00,1.65
8209.00,1.66
8208.00,1.66
8207.00,1.66
8206.00,1.66
8205.00,1.66
8204.00,1.66
8203.00,1.66
8202.00,1.66
8201.00,1.66
8200.00,1.66
8199.00,1.66
8198.00,1.66
8197.00,1.66
8196.00,1.66
8195.00,1.66
8194.00,1.66
8193.00,1.66
8192.00,1.65
8191.00,1.65
8190.00,1.65
8189.00,1.65
8188.00,1.66
8187.00,1.66
8186.00,1.66
8185.00,1.66
8184.00,1.66
8183.00,1.67
8182.00,1.67
8181.00,1.68
8180.00,1.68
8179.00,1.69
8178.00,1.69
8177.00,1.70
8176.00,1.70
8175.00,1.70
8174.00,1.71
8173.00,1.71
8172.00,1.71
8171.00,1.71
8170.00,1.71
8169.00,1.71
8168.00,1.71
8167.00,1.71
8166.00,1.71
8165.00,1.71
8164.00,1.71
8163.00,1.70
8162.00,1.70
8161.00,1.70
8160.00,1.70
8159.00,1.70
8158.00,1.70
8157.00,1.70
8156.00,1.70
8155.00,1.69
8154.00,1.69
8153.00,1.69
8152.00,1.69
8151.00,1.69
8150.00,1.69
8149.00,1.69
8148.00,1.69
8147.00,1.68
8146.00,1.68
8145.00,1.68
8144.00,1.69
8143.00,1.69
8142.00,1.69
8141.00,1.69
8140.00,1.69
8139.00,1.69
8138.00,1.69
8137.00,1.70
8136.00,1.70
8135.00,1.70
8134.00,1.71
8133.00,1.71
8132.00,1.72
8131.00,1.72
8130.00,1.73
8129.00,1.73
8128.00,1.73
8127.00,1.73
8126.00,1.74
8125.00,1.74
8124.00,1.74
8123.00,1.74
8122.00,1.74
8121.00,1.73
8120.00,1.73
8119.00,1.73
8118.00,1.73
8117.00,1.72
8116.00,1.72
8115.00,1.71
8114.00,1.71
8113.00,1.70
8112.00,1.70
8111.00,1.69
8110.00,1.69
8109.00,1.69
8108.00,1.68
8107.00,1.68
8106.00,1.68
8105.00,1.68
8104.00,1.68
8103.00,1.68
8102.00,1.68
8101.00,1.68
8100.00,1.68
8099.00,1.69
8098.00,1.69
8097.00,1.69
8096.00,1.70
8095.00,1.70
8094.00,1.70
8093.00,1.71
8092.00,1.71
8091.00,1.71
8090.00,1.71
8089.00,1.71
8088.00,1.71
8087.00,1.71
8086.00,1.71
8085.00,1.70
8084.00,1.70
8083.00,1.69
8082.00,1.69
8081.00,1.68
8080.00,1.68
8079.00,1.67
8078.00,1.66
8077.00,1.66
8076.00,1.65
8075.00,1.64
8074.00,1.64
8073.00,1.64
8072.00,1.63
8071.00,1.63
8070.00,1.63
8069.00,1.63
8068.00,1.63
8067.00,1.63
8066.00,1.63
8065.00,1.63
8064.00,1.64
8063.00,1.64
8062.00,1.65
8061.00,1.65
8060.00,1.66
8059.00,1.66
8058.00,1.67
8057.00,1.67
8056.00,1.68
8055.00,1.68
8054.00,1.68
8053.00,1.69
8052.00,1.69
8051.00,1.70
8050.00,1.70
8049.00,1.70
8048.00,1.70
8047.00,1.70
8046.00,1.71
8045.00,1.71
8044.00,1.71
8043.00,1.71
8042.00,1.71
8041.00,1.72
8040.00,1.72
8039.00,1.72
8038.00,1.72
8037.00,1.72
8036.00,1.72
8035.00,1.73
8034.00,1.73
8033.00,1.73
8032.00,1.73
8031.00,1.73
8030.00,1.73
8029.00,1.73
8028.00,1.73
8027.00,1.73
8026.00,1.73
8025.00,1.72
8024.00,1.72
8023.00,1.72
8022.00,1.72
8021.00,1.73
8020.00,1.73
8019.00,1.73
8018.00,1.73
8017.00,1.73
8016.00,1.73
8015.00,1.73
8014.00,1.73
8013.00,1.73
8012.00,1.73
8011.00,1.73
8010.00,1.73
8009.00,1.73
8008.00,1.72
8007.00,1.72
8006.00,1.72
8005.00,1.71
8004.00,1.71
8003.00,1.70
8002.00,1.70
8001.00,1.69
8000.00,1.69
7999.00,1.68
7998.00,1.68
7997.00,1.67
7996.00,1.67
7995.00,1.66
7994.00,1.66
7993.00,1.65
7992.00,1.65
7991.00,1.65
7990.00,1.65
7989.00,1.65
7988.00,1.65
7987.00,1.65
7986.00,1.65
7985.00,1.65
7984.00,1.66
7983.00,1.66
7982.00,1.66
7981.00,1.67
7980.00,1.67
7979.00,1.68
7978.00,1.69
7977.00,1.69
7976.00,1.70
7975.00,1.71
7974.00,1.71
7973.00,1.72
7972.00,1.72
7971.00,1.73
7970.00,1.73
7969.00,1.74
7968.00,1.75
7967.00,1.75
7966.00,1.76
7965.00,1.76
7964.00,1.76
7963.00,1.77
7962.00,1.77
7961.00,1.77
7960.00,1.77
7959.00,1.77
7958.00,1.77
7957.00,1.78
7956.00,1.78
7955.00,1.78
7954.00,1.78
7953.00,1.77
7952.00,1.77
7951.00,1.77
7950.00,1.77
7949.00,1.76
7948.00,1.76
7947.00,1.75
7946.00,1.75
7945.00,1.74
7944.00,1.74
7943.00,1.74
7942.00,1.73
7941.00,1.73
7940.00,1.72
7939.00,1.72
7938.00,1.71
7937.00,1.71
7936.00,1.71
7935.00,1.70
7934.00,1.70
7933.00,1.70
7932.00,1.70
7931.00,1.70
7930.00,1.70
7929.00,1.71
7928.00,1.71
7927.00,1.71
7926.00,1.71
7925.00,1.71
7924.00,1.72
7923.00,1.72
7922.00,1.72
7921.00,1.73
7920.00,1.73
7919.00,1.73
7918.00,1.73
7917.00,1.74
7916.00,1.74
7915.00,1.74
7914.00,1.74
7913.00,1.74
7912.00,1.74
7911.00,1.74
7910.00,1.74
7909.00,1.74
7908.00,1.74
7907.00,1.73
7906.00,1.73
7905.00,1.73
7904.00,1.72
7903.00,1.72
7902.00,1.71
7901.00,1.71
7900.00,1.70
7899.00,1.70
7898.00,1.69
7897.00,1.69
7896.00,1.68
7895.00,1.68
7894.00,1.68
7893.00,1.67
7892.00,1.67
7891.00,1.67
7890.00,1.67
7889.00,1.66
7888.00,1.66
7887.00,1.66
7886.00,1.66
7885.00,1.66
7884.00,1.66
7883.00,1.66
7882.00,1.66
7881.00,1.66
7880.00,1.67
7879.00,1.67
7878.00,1.67
7877.00,1.67
7876.00,1.67
7875.00,1.67
7874.00,1.67
7873.00,1.67
7872.00,1.68
7871.00,1.68
7870.00,1.68
7869.00,1.68
7868.00,1.68
7867.00,1.68
7866.00,1.69
7865.00,1.69
7864.00,1.69
7863.00,1.69
7862.00,1.69
7861.00,1.70
7860.00,1.70
7859.00,1.71
7858.00,1.71
7857.00,1.72
7856.00,1.72
7855.00,1.73
7854.00,1.73
7853.00,1.74
7852.00,1.74
7851.00,1.75
7850.00,1.76
7849.00,1.76
7848.00,1.77
7847.00,1.77
7846.00,1.78
7845.00,1.78
7844.00,1.78
7843.00,1.78
7842.00,1.78
7841.00,1.78
7840.00,1.78
7839.00,1.78
7838.00,1.78
7837.00,1.78
7836.00,1.78
7835.00,1.78
7834.00,1.78
7833.00,1.77
7832.00,1.77
7831.00,1.77
7830.00,1.77
7829.00,1.77
7828.00,1.76
7827.00,1.76
7826.00,1.76
7825.00,1.76
7824.00,1.76
7823.00,1.76
7822.00,1.75
7821.00,1.75
7820.00,1.75
7819.00,1.74
7818.00,1.74
7817.00,1.74
7816.00,1.74
7815.00,1.74
7814.00,1.74
7813.00,1.74
7812.00,1.74
7811.00,1.74
7810.00,1.75
7809.00,1.75
7808.00,1.75
7807.00,1.76
7806.00,1.76
7805.00,1.77
7804.00,1.78
7803.00,1.78
7802.00,1.79
7801.00,1.79
7800.00,1.79
7799.00,1.80
7798.00,1.80
7797.00,1.80
7796.00,1.79
7795.00,1.79
7794.00,1.79
7793.00,1.78
7792.00,1.78
7791.00,1.77
7790.00,1.76
7789.00,1.76
7788.00,1.75
7787.00,1.75
7786.00,1.74
7785.00,1.74
7784.00,1.74
7783.00,1.73
7782.00,1.74
7781.00,1.74
7780.00,1.74
7779.00,1.75
7778.00,1.76
7777.00,1.76
7776.00,1.77
7775.00,1.78
7774.00,1.79
7773.00,1.79
7772.00,1.80
7771.00,1.81
7770.00,1.81
7769.00,1.82
7768.00,1.83
7767.00,1.83
7766.00,1.84
7765.00,1.84
7764.00,1.84
7763.00,1.84
7762.00,1.84
7761.00,1.84
7760.00,1.84
7759.00,1.83
7758.00,1.83
7757.00,1.83
7756.00,1.82
7755.00,1.82
7754.00,1.82
7753.00,1.81
7752.00,1.81
7751.00,1.81
7750.00,1.80
7749.00,1.80
7748.00,1.80
7747.00,1.80
7746.00,1.79
7745.00,1.79
7744.00,1.79
7743.00,1.79
7742.00,1.79
7741.00,1.79
7740.00,1.78
7739.00,1.78
7738.00,1.78
7737.00,1.78
7736.00,1.77
7735.00,1.77
7734.00,1.77
7733.00,1.76
7732.00,1.76
7731.00,1.76
7730.00,1.76
7729.00,1.75
7728.00,1.75
7727.00,1.75
7726.00,1.75
7725.00,1.75
7724.00,1.75
7723.00,1.75
7722.00,1.75
7721.00,1.75
7720.00,1.75
7719.00,1.75
7718.00,1.75
7717.00,1.75
7716.00,1.75
7715.00,1.74
7714.00,1.74
7713.00,1.74
7712.00,1.73
7711.00,1.73
7710.00,1.73
7709.00,1.72
7708.00,1.72
7707.00,1.72
7706.00,1.71
7705.00,1.71
7704.00,1.71
7703.00,1.71
7702.00,1.70
7701.00,1.70
7700.00,1.70
7699.00,1.70
7698.00,1.70
7697.00,1.70
7696.00,1.71
7695.00,1.71
7694.00,1.71
7693.00,1.71
7692.00,1.72
7691.00,1.72
7690.00,1.73
7689.00,1.73
7688.00,1.73
7687.00,1.74
7686.00,1.74
7685.00,1.75
7684.00,1.75
7683.00,1.76
7682.00,1.77
7681.00,1.77
7680.00,1.78
7679.00,1.79
7678.00,1.79
7677.00,1.80
7676.00,1.80
7675.00,1.81
7674.00,1.82
7673.00,1.82
7672.00,1.82
7671.00,1.83
7670.00,1.83
7669.00,1.83
7668.00,1.84
7667.00,1.84
7666.00,1.84
7665.00,1.84
7664.00,1.84
7663.00,1.84
7662.00,1.84
7661.00,1.84
7660.00,1.83
7659.00,1.83
7658.00,1.83
7657.00,1.83
7656.00,1.83
7655.00,1.83
7654.00,1.83
7653.00,1.83
7652.00,1.83
7651.00,1.83
7650.00,1.83
7649.00,1.84
7648.00,1.84
7647.00,1.84
7646.00,1.84
7645.00,1.84
7644.00,1.84
7643.00,1.84
7642.00,1.84
7641.00,1.84
7640.00,1.84
7639.00,1.84
7638.00,1.84
7637.00,1.84
7636.00,1.83
7635.00,1.83
7634.00,1.82
7633.00,1.82
7632.00,1.81
7631.00,1.81
7630.00,1.80
7629.00,1.80
7628.00,1.79
7627.00,1.79
7626.00,1.79
7625.00,1.78
7624.00,1.78
7623.00,1.78
7622.00,1.77
7621.00,1.77
7620.00,1.77
7619.00,1.76
7618.00,1.76
7617.00,1.76
7616.00,1.76
7615.00,1.76
7614.00,1.76
7613.00,1.76
7612.00,1.76
7611.00,1.76
7610.00,1.76
7609.00,1.76
7608.00,1.76
7607.00,1.76
7606.00,1.76
7605.00,1.76
7604.00,1.76
7603.00,1.76
7602.00,1.76
7601.00,1.76
7600.00,1.76
7599.00,1.76
7598.00,1.76
7597.00,1.76
7596.00,1.76
7595.00,1.76
7594.00,1.76
7593.00,1.76
7592.00,1.76
7591.00,1.76
7590.00,1.75
7589.00,1.75
7588.00,1.75
7587.00,1.75
7586.00,1.75
7585.00,1.75
7584.00,1.75
7583.00,1.75
7582.00,1.75
7581.00,1.75
7580.00,1.75
7579.00,1.75
7578.00,1.76
7577.00,1.76
7576.00,1.76
7575.00,1.76
7574.00,1.76
7573.00,1.77
7572.00,1.77
7571.00,1.77
7570.00,1.77
7569.00,1.77
7568.00,1.77
7567.00,1.78
7566.00,1.78
7565.00,1.78
7564.00,1.78
7563.00,1.78
7562.00,1.78
7561.00,1.78
7560.00,1.78
7559.00,1.78
7558.00,1.78
7557.00,1.78
7556.00,1.78
7555.00,1.78
7554.00,1.78
7553.00,1.78
7552.00,1.78
7551.00,1.78
7550.00,1.78
7549.00,1.78
7548.00,1.78
7547.00,1.78
7546.00,1.78
7545.00,1.78
7544.00,1.79
7543.00,1.79
7542.00,1.79
7541.00,1.79
7540.00,1.79
7539.00,1.79
7538.00,1.79
7537.00,1.79
7536.00,1.79
7535.00,1.78
7534.00,1.78
7533.00,1.78
7532.00,1.78
7531.00,1.77
7530.00,1.77
7529.00,1.77
7528.00,1.76
7527.00,1.76
7526.00,1.75
7525.00,1.75
7524.00,1.75
7523.00,1.75
7522.00,1.74
7521.00,1.74
7520.00,1.74
7519.00,1.74
7518.00,1.74
7517.00,1.73
7516.00,1.73
7515.00,1.73
7514.00,1.73
7513.00,1.73
7512.00,1.73
7511.00,1.73
7510.00,1.73
7509.00,1.74
7508.00,1.74
7507.00,1.74
7506.00,1.74
7505.00,1.75
7504.00,1.75
7503.00,1.76
7502.00,1.76
7501.00,1.77
7500.00,1.78
7499.00,1.78
7498.00,1.79
7497.00,1.79
7496.00,1.80
7495.00,1.80
7494.00,1.81
7493.00,1.81
7492.00,1.82
7491.00,1.82
7490.00,1.82
7489.00,1.83
7488.00,1.83
7487.00,1.83
7486.00,1.83
7485.00,1.83
7484.00,1.83
7483.00,1.82
7482.00,1.82
7481.00,1.82
7480.00,1.82
7479.00,1.81
7478.00,1.81
7477.00,1.81
7476.00,1.80
7475.00,1.80
7474.00,1.79
7473.00,1.79
7472.00,1.78
7471.00,1.77
7470.00,1.77
7469.00,1.76
7468.00,1.76
7467.00,1.75
7466.00,1.74
7465.00,1.74
7464.00,1.73
7463.00,1.73
7462.00,1.72
7461.00,1.71
7460.00,1.71
7459.00,1.70
7458.00,1.70
7457.00,1.70
7456.00,1.70
7455.00,1.70
7454.00,1.70
7453.00,1.70
7452.00,1.70
7451.00,1.70
7450.00,1.70
7449.00,1.70
7448.00,1.71
7447.00,1.71
7446.00,1.71
7445.00,1.71
7444.00,1.72
7443.00,1.72
7442.00,1.72
7441.00,1.73
7440.00,1.73
7439.00,1.73
7438.00,1.73
7437.00,1.73
7436.00,1.73
7435.00,1.73
7434.00,1.73
7433.00,1.72
7432.00,1.72
7431.00,1.72
7430.00,1.72
7429.00,1.72
7428.00,1.72
7427.00,1.72
7426.00,1.72
7425.00,1.72
7424.00,1.72
7423.00,1.72
7422.00,1.72
7421.00,1.72
7420.00,1.72
7419.00,1.72
7418.00,1.73
7417.00,1.73
7416.00,1.73
7415.00,1.73
7414.00,1.73
7413.00,1.74
7412.00,1.74
7411.00,1.74
7410.00,1.75
7409.00,1.75
7408.00,1.75
7407.00,1.75
7406.00,1.76
7405.00,1.76
7404.00,1.76
7403.00,1.76
7402.00,1.76
7401.00,1.76
7400.00,1.77
7399.00,1.77
7398.00,1.77
7397.00,1.77
7396.00,1.77
7395.00,1.77
7394.00,1.77
7393.00,1.77
7392.00,1.76
7391.00,1.76
7390.00,1.76
7389.00,1.76
7388.00,1.75
7387.00,1.75
7386.00,1.74
7385.00,1.74
7384.00,1.73
7383.00,1.73
7382.00,1.72
7381.00,1.72
7380.00,1.71
7379.00,1.71
7378.00,1.70
7377.00,1.70
7376.00,1.70
7375.00,1.70
7374.00,1.70
7373.00,1.70
7372.00,1.70
7371.00,1.70
7370.00,1.70
7369.00,1.71
7368.00,1.71
7367.00,1.72
7366.00,1.73
7365.00,1.73
7364.00,1.74
7363.00,1.74
7362.00,1.74
7361.00,1.75
7360.00,1.75
7359.00,1.75
7358.00,1.75
7357.00,1.75
7356.00,1.75
7355.00,1.74
7354.00,1.74
7353.00,1.74
7352.00,1.73
7351.00,1.73
7350.00,1.72
7349.00,1.72
7348.00,1.71
7347.00,1.71
7346.00,1.71
7345.00,1.70
7344.00,1.70
7343.00,1.70
7342.00,1.70
7341.00,1.70
7340.00,1.70
7339.00,1.70
7338.00,1.70
7337.00,1.70
7336.00,1.70
7335.00,1.70
7334.00,1.71
7333.00,1.71
7332.00,1.71
7331.00,1.71
7330.00,1.71
7329.00,1.71
7328.00,1.71
7327.00,1.72
7326.00,1.72
7325.00,1.72
7324.00,1.72
7323.00,1.72
7322.00,1.72
7321.00,1.72
7320.00,1.72
7319.00,1.72
7318.00,1.72
7317.00,1.72
7316.00,1.72
7315.00,1.72
7314.00,1.72
7313.00,1.72
7312.00,1.72
7311.00,1.72
7310.00,1.72
7309.00,1.72
7308.00,1.72
7307.00,1.72
7306.00,1.72
7305.00,1.72
7304.00,1.72
7303.00,1.72
7302.00,1.72
7301.00,1.71
7300.00,1.71
7299.00,1.71
7298.00,1.71
7297.00,1.71
7296.00,1.71
7295.00,1.71
7294.00,1.70
7293.00,1.70
7292.00,1.70
7291.00,1.70
7290.00,1.70
7289.00,1.70
7288.00,1.70
7287.00,1.70
7286.00,1.70
7285.00,1.70
7284.00,1.70
7283.00,1.70
7282.00,1.71
7281.00,1.71
7280.00,1.71
7279.00,1.71
7278.00,1.71
7277.00,1.71
7276.00,1.71
7275.00,1.71
7274.00,1.71
7273.00,1.71
7272.00,1.71
7271.00,1.71
7270.00,1.70
7269.00,1.70
7268.00,1.70
7267.00,1.70
7266.00,1.69
7265.00,1.69
7264.00,1.69
7263.00,1.69
7262.00,1.68
7261.00,1.68
7260.00,1.68
7259.00,1.68
7258.00,1.68
7257.00,1.68
7256.00,1.68
7255.00,1.68
7254.00,1.68
7253.00,1.69
7252.00,1.69
7251.00,1.69
7250.00,1.70
7249.00,1.70
7248.00,1.70
7247.00,1.71
7246.00,1.71
7245.00,1.71
7244.00,1.72
7243.00,1.72
7242.00,1.72
7241.00,1.72
7240.00,1.72
7239.00,1.71
7238.00,1.71
7237.00,1.70
7236.00,1.69
7235.00,1.69
7234.00,1.68
7233.00,1.67
7232.00,1.67
7231.00,1.66
7230.00,1.65
7229.00,1.64
7228.00,1.64
7227.00,1.63
7226.00,1.62
7225.00,1.62
7224.00,1.61
7223.00,1.61
7222.00,1.61
7221.00,1.60
7220.00,1.60
7219.00,1.61
7218.00,1.61
7217.00,1.61
7216.00,1.61
7215.00,1.62
7214.00,1.62
7213.00,1.62
7212.00,1.63
7211.00,1.64
7210.00,1.64
7209.00,1.64
7208.00,1.65
7207.00,1.65
7206.00,1.65
7205.00,1.65
7204.00,1.65
7203.00,1.65
7202.00,1.64
7201.00,1.64
7200.00,1.64
7199.00,1.63
7198.00,1.63
7197.00,1.62
7196.00,1.62
7195.00,1.61
7194.00,1.61
7193.00,1.61
7192.00,1.60
7191.00,1.60
7190.00,1.60
7189.00,1.60
7188.00,1.59
7187.00,1.59
7186.00,1.59
7185.00,1.59
7184.00,1.59
7183.00,1.59
7182.00,1.58
7181.00,1.58
7180.00,1.58
7179.00,1.57
7178.00,1.57
7177.00,1.57
7176.00,1.56
7175.00,1.55
7174.00,1.55
7173.00,1.54
7172.00,1.54
7171.00,1.53
7170.00,1.52
7169.00,1.52
7168.00,1.51
7167.00,1.51
7166.00,1.50
7165.00,1.50
7164.00,1.49
7163.00,1.49
7162.00,1.49
7161.00,1.48
7160.00,1.48
7159.00,1.48
7158.00,1.48
7157.00,1.48
7156.00,1.48
7155.00,1.49
7154.00,1.49
7153.00,1.49
7152.00,1.49
7151.00,1.49
7150.00,1.50
7149.00,1.50
7148.00,1.50
7147.00,1.51
7146.00,1.51
7145.00,1.51
7144.00,1.51
7143.00,1.51
7142.00,1.51
7141.00,1.51
7140.00,1.51
7139.00,1.50
7138.00,1.50
7137.00,1.49
7136.00,1.49
7135.00,1.48
7134.00,1.48
7133.00,1.47
7132.00,1.47
7131.00,1.46
7130.00,1.46
7129.00,1.45
7128.00,1.45
7127.00,1.44
7126.00,1.43
7125.00,1.43
7124.00,1.42
7123.00,1.42
7122.00,1.41
7121.00,1.41
7120.00,1.40
7119.00,1.39
7118.00,1.39
7117.00,1.38
7116.00,1.37
7115.00,1.37
7114.00,1.36
7113.00,1.35
7112.00,1.35
7111.00,1.34
7110.00,1.34
7109.00,1.33
7108.00,1.33
7107.00,1.32
7106.00,1.32
7105.00,1.32
7104.00,1.32
7103.00,1.32
7102.00,1.32
7101.00,1.32
7100.00,1.32
7099.00,1.32
7098.00,1.32
7097.00,1.33
7096.00,1.33
7095.00,1.33
7094.00,1.33
7093.00,1.34
7092.00,1.34
7091.00,1.34
7090.00,1.34
7089.00,1.35
7088.00,1.35
7087.00,1.35
7086.00,1.35
7085.00,1.35
7084.00,1.35
7083.00,1.35
7082.00,1.35
7081.00,1.35
7080.00,1.35
7079.00,1.35
7078.00,1.34
7077.00,1.34
7076.00,1.34
7075.00,1.34
7074.00,1.34
7073.00,1.33
7072.00,1.33
7071.00,1.33
7070.00,1.33
7069.00,1.33
7068.00,1.33
7067.00,1.32
7066.00,1.32
7065.00,1.32
7064.00,1.32
7063.00,1.32
7062.00,1.31
7061.00,1.31
7060.00,1.31
7059.00,1.31
7058.00,1.30
7057.00,1.30
7056.00,1.30
7055.00,1.30
7054.00,1.30
7053.00,1.29
7052.00,1.29
7051.00,1.29
7050.00,1.29
7049.00,1.28
7048.00,1.28
7047.00,1.28
7046.00,1.28
7045.00,1.28
7044.00,1.27
7043.00,1.27
7042.00,1.27
7041.00,1.26
7040.00,1.26
7039.00,1.26
7038.00,1.25
7037.00,1.25
7036.00,1.25
7035.00,1.24
7034.00,1.24
7033.00,1.24
7032.00,1.24
7031.00,1.23
7030.00,1.23
7029.00,1.23
7028.00,1.22
7027.00,1.22
7026.00,1.22
7025.00,1.22
7024.00,1.22
7023.00,1.21
7022.00,1.21
7021.00,1.21
7020.00,1.21
7019.00,1.21
7018.00,1.21
7017.00,1.21
7016.00,1.21
7015.00,1.21
7014.00,1.21
7013.00,1.22
7012.00,1.22
7011.00,1.22
7010.00,1.22
7009.00,1.23
7008.00,1.23
7007.00,1.24
7006.00,1.24
7005.00,1.24
7004.00,1.25
7003.00,1.25
7002.00,1.26
7001.00,1.26
7000.00,1.26
6999.00,1.26
6998.00,1.27
6997.00,1.27
6996.00,1.27
6995.00,1.27
6994.00,1.26
6993.00,1.26
6992.00,1.26
6991.00,1.25
6990.00,1.25
6989.00,1.24
6988.00,1.24
6987.00,1.23
6986.00,1.23
6985.00,1.22
6984.00,1.22
6983.00,1.21
6982.00,1.21
6981.00,1.20
6980.00,1.20
6979.00,1.20
6978.00,1.20
6977.00,1.20
6976.00,1.20
6975.00,1.20
6974.00,1.20
6973.00,1.20
6972.00,1.20
6971.00,1.21
6970.00,1.21
6969.00,1.21
6968.00,1.21
6967.00,1.21
6966.00,1.21
6965.00,1.21
6964.00,1.21
6963.00,1.21
6962.00,1.21
6961.00,1.21
6960.00,1.21
6959.00,1.21
6958.00,1.20
6957.00,1.20
6956.00,1.20
6955.00,1.19
6954.00,1.19
6953.00,1.19
6952.00,1.19
6951.00,1.19
6950.00,1.19
6949.00,1.19
6948.00,1.19
6947.00,1.19
6946.00,1.19
6945.00,1.19
6944.00,1.20
6943.00,1.20
6942.00,1.20
6941.00,1.20
6940.00,1.20
6939.00,1.20
6938.00,1.21
6937.00,1.21
6936.00,1.21
6935.00,1.21
6934.00,1.21
6933.00,1.21
6932.00,1.22
6931.00,1.22
6930.00,1.22
6929.00,1.22
6928.00,1.22
6927.00,1.22
6926.00,1.22
6925.00,1.21
6924.00,1.21
6923.00,1.21
6922.00,1.21
6921.00,1.21
6920.00,1.21
6919.00,1.21
6918.00,1.21
6917.00,1.20
6916.00,1.20
6915.00,1.20
6914.00,1.20
6913.00,1.20
6912.00,1.20
6911.00,1.20
6910.00,1.20
6909.00,1.20
6908.00,1.20
6907.00,1.20
6906.00,1.20
6905.00,1.20
6904.00,1.20
6903.00,1.20
6902.00,1.20
6901.00,1.21
6900.00,1.21
6899.00,1.21
6898.00,1.21
6897.00,1.21
6896.00,1.22
6895.00,1.22
6894.00,1.22
6893.00,1.22
6892.00,1.22
6891.00,1.22
6890.00,1.22
6889.00,1.22
6888.00,1.22
6887.00,1.22
6886.00,1.21
6885.00,1.21
6884.00,1.21
6883.00,1.21
6882.00,1.21
6881.00,1.21
6880.00,1.20
6879.00,1.20
6878.00,1.20
6877.00,1.20
6876.00,1.19
6875.00,1.19
6874.00,1.19
6873.00,1.19
6872.00,1.19
6871.00,1.19
6870.00,1.19
6869.00,1.19
6868.00,1.19
6867.00,1.19
6866.00,1.19
6865.00,1.19
6864.00,1.19
6863.00,1.20
6862.00,1.20
6861.00,1.20
6860.00,1.20
6859.00,1.20
6858.00,1.20
6857.00,1.21
6856.00,1.21
6855.00,1.21
6854.00,1.21
6853.00,1.21
6852.00,1.21
6851.00,1.21
6850.00,1.21
6849.00,1.21
6848.00,1.21
6847.00,1.21
6846.00,1.21
6845.00,1.21
6844.00,1.21
6843.00,1.21
6842.00,1.21
6841.00,1.21
6840.00,1.21
6839.00,1.21
6838.00,1.21
6837.00,1.21
6836.00,1.21
6835.00,1.21
6834.00,1.21
6833.00,1.22
6832.00,1.22
6831.00,1.22
6830.00,1.22
6829.00,1.22
6828.00,1.22
6827.00,1.22
6826.00,1.22
6825.00,1.23
6824.00,1.23
6823.00,1.23
6822.00,1.23
6821.00,1.23
6820.00,1.23
6819.00,1.23
6818.00,1.23
6817.00,1.23
6816.00,1.22
6815.00,1.22
6814.00,1.22
6813.00,1.22
6812.00,1.22
6811.00,1.22
6810.00,1.21
6809.00,1.21
6808.00,1.21
6807.00,1.21
6806.00,1.21
6805.00,1.21
6804.00,1.20
6803.00,1.20
6802.00,1.20
6801.00,1.21
6800.00,1.21
6799.00,1.21
6798.00,1.21
6797.00,1.21
6796.00,1.22
6795.00,1.22
6794.00,1.22
6793.00,1.23
6792.00,1.23
6791.00,1.23
6790.00,1.23
6789.00,1.23
6788.00,1.24
6787.00,1.24
6786.00,1.24
6785.00,1.24
6784.00,1.24
6783.00,1.24
6782.00,1.24
6781.00,1.24
6780.00,1.24
6779.00,1.23
6778.00,1.23
6777.00,1.23
6776.00,1.23
6775.00,1.23
6774.00,1.24
6773.00,1.24
6772.00,1.24
6771.00,1.24
6770.00,1.24
6769.00,1.24
6768.00,1.24
6767.00,1.25
6766.00,1.25
6765.00,1.25
6764.00,1.26
6763.00,1.26
6762.00,1.26
6761.00,1.26
6760.00,1.27
6759.00,1.27
6758.00,1.27
6757.00,1.27
6756.00,1.27
6755.00,1.27
6754.00,1.27
6753.00,1.27
6752.00,1.27
6751.00,1.27
6750.00,1.27
6749.00,1.27
6748.00,1.27
6747.00,1.26
6746.00,1.26
6745.00,1.26
6744.00,1.26
6743.00,1.26
6742.00,1.26
6741.00,1.26
6740.00,1.26
6739.00,1.26
6738.00,1.26
6737.00,1.26
6736.00,1.27
6735.00,1.27
6734.00,1.27
6733.00,1.28
6732.00,1.28
6731.00,1.28
6730.00,1.29
6729.00,1.29
6728.00,1.29
6727.00,1.30
6726.00,1.30
6725.00,1.30
6724.00,1.30
6723.00,1.30
6722.00,1.30
6721.00,1.30
6720.00,1.30
6719.00,1.30
6718.00,1.29
6717.00,1.29
6716.00,1.29
6715.00,1.29
6714.00,1.29
6713.00,1.29
6712.00,1.29
6711.00,1.28
6710.00,1.28
6709.00,1.28
6708.00,1.28
6707.00,1.28
6706.00,1.28
6705.00,1.28
6704.00,1.28
6703.00,1.28
6702.00,1.28
6701.00,1.28
6700.00,1.28
6699.00,1.28
6698.00,1.29
6697.00,1.29
6696.00,1.29
6695.00,1.29
6694.00,1.29
6693.00,1.30
6692.00,1.30
6691.00,1.30
6690.00,1.30
6689.00,1.30
6688.00,1.31
6687.00,1.31
6686.00,1.31
6685.00,1.31
6684.00,1.31
6683.00,1.31
6682.00,1.31
6681.00,1.30
6680.00,1.30
6679.00,1.30
6678.00,1.30
6677.00,1.30
6676.00,1.30
6675.00,1.30
6674.00,1.30
6673.00,1.30
6672.00,1.30
6671.00,1.30
6670.00,1.31
6669.00,1.31
6668.00,1.31
6667.00,1.31
6666.00,1.32
6665.00,1.32
6664.00,1.32
6663.00,1.33
6662.00,1.33
6661.00,1.33
6660.00,1.33
6659.00,1.33
6658.00,1.34
6657.00,1.34
6656.00,1.34
6655.00,1.34
6654.00,1.35
6653.00,1.35
6652.00,1.35
6651.00,1.36
6650.00,1.36
6649.00,1.36
6648.00,1.36
6647.00,1.36
6646.00,1.37
6645.00,1.37
6644.00,1.37
6643.00,1.37
6642.00,1.37
6641.00,1.38
6640.00,1.38
6639.00,1.38
6638.00,1.38
6637.00,1.38
6636.00,1.38
6635.00,1.38
6634.00,1.38
6633.00,1.38
6632.00,1.38
6631.00,1.39
6630.00,1.39
6629.00,1.39
6628.00,1.39
6627.00,1.40
6626.00,1.40
6625.00,1.40
6624.00,1.41
6623.00,1.41
6622.00,1.42
6621.00,1.42
6620.00,1.42
6619.00,1.42
6618.00,1.43
6617.00,1.43
6616.00,1.43
6615.00,1.44
6614.00,1.44
6613.00,1.44
6612.00,1.44
6611.00,1.45
6610.00,1.45
6609.00,1.45
6608.00,1.45
6607.00,1.45
6606.00,1.45
6605.00,1.45
6604.00,1.45
6603.00,1.46
6602.00,1.46
6601.00,1.46
6600.00,1.46
6599.00,1.46
6598.00,1.46
6597.00,1.46
6596.00,1.45
6595.00,1.45
6594.00,1.45
6593.00,1.45
6592.00,1.45
6591.00,1.45
6590.00,1.45
6589.00,1.45
6588.00,1.45
6587.00,1.45
6586.00,1.45
6585.00,1.45
6584.00,1.44
6583.00,1.44
6582.00,1.44
6581.00,1.44
6580.00,1.44
6579.00,1.44
6578.00,1.44
6577.00,1.43
6576.00,1.43
6575.00,1.43
6574.00,1.43
6573.00,1.43
6572.00,1.43
6571.00,1.43
6570.00,1.44
6569.00,1.44
6568.00,1.44
6567.00,1.44
6566.00,1.44
6565.00,1.44
6564.00,1.45
6563.00,1.45
6562.00,1.45
6561.00,1.45
6560.00,1.45
6559.00,1.45
6558.00,1.46
6557.00,1.46
6556.00,1.46
6555.00,1.46
6554.00,1.46
6553.00,1.46
6552.00,1.46
6551.00,1.46
6550.00,1.45
6549.00,1.45
6548.00,1.45
6547.00,1.45
6546.00,1.45
6545.00,1.45
6544.00,1.45
6543.00,1.44
6542.00,1.44
6541.00,1.44
6540.00,1.44
6539.00,1.44
6538.00,1.44
6537.00,1.44
6536.00,1.44
6535.00,1.44
6534.00,1.44
6533.00,1.44
6532.00,1.44
6531.00,1.44
6530.00,1.44
6529.00,1.44
6528.00,1.45
6527.00,1.45
6526.00,1.45
6525.00,1.45
6524.00,1.45
6523.00,1.46
6522.00,1.46
6521.00,1.46
6520.00,1.46
6519.00,1.46
6518.00,1.47
6517.00,1.47
6516.00,1.47
6515.00,1.47
6514.00,1.48
6513.00,1.48
6512.00,1.48
6511.00,1.48
6510.00,1.49
6509.00,1.49
6508.00,1.49
6507.00,1.49
6506.00,1.49
6505.00,1.50
6504.00,1.50
6503.00,1.50
6502.00,1.50
6501.00,1.50
6500.00,1.50
6499.00,1.50
6498.00,1.50
6497.00,1.50
6496.00,1.50
6495.00,1.50
6494.00,1.50
6493.00,1.50
6492.00,1.49
6491.00,1.49
6490.00,1.49
6489.00,1.49
6488.00,1.49
6487.00,1.49
6486.00,1.49
6485.00,1.49
6484.00,1.49
6483.00,1.49
6482.00,1.49
6481.00,1.49
6480.00,1.49
6479.00,1.50
6478.00,1.50
6477.00,1.50
6476.00,1.50
6475.00,1.51
6474.00,1.51
6473.00,1.51
6472.00,1.52
6471.00,1.52
6470.00,1.52
6469.00,1.52
6468.00,1.52
6467.00,1.53
6466.00,1.53
6465.00,1.52
6464.00,1.52
6463.00,1.52
6462.00,1.52
6461.00,1.52
6460.00,1.52
6459.00,1.52
6458.00,1.52
6457.00,1.52
6456.00,1.52
6455.00,1.52
6454.00,1.52
6453.00,1.51
6452.00,1.51
6451.00,1.51
6450.00,1.51
6449.00,1.51
6448.00,1.51
6447.00,1.51
6446.00,1.52
6445.00,1.52
6444.00,1.52
6443.00,1.52
6442.00,1.52
6441.00,1.52
6440.00,1.52
6439.00,1.52
6438.00,1.52
6437.00,1.53
6436.00,1.53
6435.00,1.53
6434.00,1.53
6433.00,1.53
6432.00,1.53
6431.00,1.53
6430.00,1.53
6429.00,1.53
6428.00,1.53
6427.00,1.54
6426.00,1.54
6425.00,1.54
6424.00,1.54
6423.00,1.54
6422.00,1.54
6421.00,1.54
6420.00,1.54
6419.00,1.54
6418.00,1.54
6417.00,1.54
6416.00,1.55
6415.00,1.55
6414.00,1.55
6413.00,1.55
6412.00,1.55
6411.00,1.55
6410.00,1.56
6409.00,1.56
6408.00,1.56
6407.00,1.56
6406.00,1.56
6405.00,1.56
6404.00,1.56
6403.00,1.57
6402.00,1.57
6401.00,1.57
6400.00,1.57
6399.00,1.57
6398.00,1.57
6397.00,1.57
6396.00,1.57
6395.00,1.57
6394.00,1.57
6393.00,1.57
6392.00,1.57
6391.00,1.57
6390.00,1.58
6389.00,1.58
6388.00,1.58
6387.00,1.58
6386.00,1.57
6385.00,1.57
6384.00,1.57
6383.00,1.57
6382.00,1.57
6381.00,1.57
6380.00,1.57
6379.00,1.57
6378.00,1.57
6377.00,1.57
6376.00,1.57
6375.00,1.57
6374.00,1.57
6373.00,1.56
6372.00,1.56
6371.00,1.56
6370.00,1.56
6369.00,1.56
6368.00,1.56
6367.00,1.55
6366.00,1.55
6365.00,1.55
6364.00,1.55
6363.00,1.55
6362.00,1.55
6361.00,1.55
6360.00,1.55
6359.00,1.55
6358.00,1.55
6357.00,1.55
6356.00,1.55
6355.00,1.55
6354.00,1.55
6353.00,1.55
6352.00,1.56
6351.00,1.56
6350.00,1.56
6349.00,1.57
6348.00,1.57
6347.00,1.57
6346.00,1.58
6345.00,1.58
6344.00,1.58
6343.00,1.58
6342.00,1.59
6341.00,1.59
6340.00,1.59
6339.00,1.59
6338.00,1.60
6337.00,1.60
6336.00,1.60
6335.00,1.60
6334.00,1.60
6333.00,1.61
6332.00,1.61
6331.00,1.61
6330.00,1.61
6329.00,1.61
6328.00,1.62
6327.00,1.62
6326.00,1.62
6325.00,1.62
6324.00,1.63
6323.00,1.63
6322.00,1.63
6321.00,1.64
6320.00,1.64
6319.00,1.64
6318.00,1.64
6317.00,1.64
6316.00,1.64
6315.00,1.64
6314.00,1.64
6313.00,1.64
6312.00,1.64
6311.00,1.64
6310.00,1.63
6309.00,1.63
6308.00,1.63
6307.00,1.62
6306.00,1.62
6305.00,1.62
6304.00,1.62
6303.00,1.61
6302.00,1.61
6301.00,1.61
6300.00,1.61
6299.00,1.60
6298.00,1.60
6297.00,1.60
6296.00,1.60
6295.00,1.60
6294.00,1.60
6293.00,1.60
6292.00,1.60
6291.00,1.60
6290.00,1.61
6289.00,1.61
6288.00,1.61
6287.00,1.61
6286.00,1.61
6285.00,1.61
6284.00,1.61
6283.00,1.62
6282.00,1.62
6281.00,1.62
6280.00,1.62
6279.00,1.62
6278.00,1.62
6277.00,1.63
6276.00,1.63
6275.00,1.63
6274.00,1.63
6273.00,1.63
6272.00,1.63
6271.00,1.63
6270.00,1.63
6269.00,1.63
6268.00,1.63
6267.00,1.63
6266.00,1.63
6265.00,1.63
6264.00,1.63
6263.00,1.63
6262.00,1.63
6261.00,1.63
6260.00,1.63
6259.00,1.63
6258.00,1.63
6257.00,1.63
6256.00,1.63
6255.00,1.64
6254.00,1.64
6253.00,1.64
6252.00,1.65
6251.00,1.65
6250.00,1.66
6249.00,1.66
6248.00,1.67
6247.00,1.67
6246.00,1.67
6245.00,1.68
6244.00,1.68
6243.00,1.68
6242.00,1.69
6241.00,1.69
6240.00,1.69
6239.00,1.69
6238.00,1.69
6237.00,1.69
6236.00,1.68
6235.00,1.68
6234.00,1.68
6233.00,1.68
6232.00,1.68
6231.00,1.67
6230.00,1.67
6229.00,1.67
6228.00,1.67
6227.00,1.66
6226.00,1.66
6225.00,1.66
6224.00,1.66
6223.00,1.66
6222.00,1.66
6221.00,1.65
6220.00,1.65
6219.00,1.65
6218.00,1.65
6217.00,1.65
6216.00,1.65
6215.00,1.65
6214.00,1.66
6213.00,1.66
6212.00,1.66
6211.00,1.66
6210.00,1.66
6209.00,1.67
6208.00,1.67
6207.00,1.67
6206.00,1.68
6205.00,1.68
6204.00,1.69
6203.00,1.69
6202.00,1.69
6201.00,1.70
6200.00,1.70
6199.00,1.70
6198.00,1.70
6197.00,1.71
6196.00,1.71
6195.00,1.71
6194.00,1.71
6193.00,1.71
6192.00,1.71
6191.00,1.71
6190.00,1.71
6189.00,1.71
6188.00,1.71
6187.00,1.70
6186.00,1.70
6185.00,1.70
6184.00,1.70
6183.00,1.70
6182.00,1.70
6181.00,1.70
6180.00,1.70
6179.00,1.70
6178.00,1.70
6177.00,1.70
6176.00,1.70
6175.00,1.70
6174.00,1.70
6173.00,1.70
6172.00,1.70
6171.00,1.70
6170.00,1.71
6169.00,1.71
6168.00,1.71
6167.00,1.71
6166.00,1.72
6165.00,1.72
6164.00,1.72
6163.00,1.73
6162.00,1.73
6161.00,1.73
6160.00,1.73
6159.00,1.74
6158.00,1.74
6157.00,1.74
6156.00,1.74
6155.00,1.74
6154.00,1.74
6153.00,1.75
6152.00,1.75
6151.00,1.75
6150.00,1.75
6149.00,1.75
6148.00,1.75
6147.00,1.75
6146.00,1.75
6145.00,1.75
6144.00,1.75
6143.00,1.75
6142.00,1.75
6141.00,1.75
6140.00,1.75
6139.00,1.75
6138.00,1.75
6137.00,1.75
6136.00,1.75
6135.00,1.75
6134.00,1.75
6133.00,1.75
6132.00,1.74
6131.00,1.74
6130.00,1.74
6129.00,1.74
6128.00,1.74
6127.00,1.74
6126.00,1.74
6125.00,1.74
6124.00,1.73
6123.00,1.73
6122.00,1.73
6121.00,1.73
6120.00,1.73
6119.00,1.73
6118.00,1.73
6117.00,1.73
6116.00,1.74
6115.00,1.74
6114.00,1.74
6113.00,1.75
6112.00,1.75
6111.00,1.75
6110.00,1.76
6109.00,1.76
6108.00,1.76
6107.00,1.77
6106.00,1.77
6105.00,1.77
6104.00,1.77
6103.00,1.78
6102.00,1.78
6101.00,1.78
6100.00,1.78
6099.00,1.79
6098.00,1.79
6097.00,1.79
6096.00,1.79
6095.00,1.79
6094.00,1.79
6093.00,1.79
6092.00,1.79
6091.00,1.80
6090.00,1.80
6089.00,1.80
6088.00,1.80
6087.00,1.80
6086.00,1.81
6085.00,1.81
6084.00,1.81
6083.00,1.81
6082.00,1.81
6081.00,1.81
6080.00,1.81
6079.00,1.81
6078.00,1.81
6077.00,1.81
6076.00,1.82
6075.00,1.82
6074.00,1.82
6073.00,1.81
6072.00,1.81
6071.00,1.81
6070.00,1.81
6069.00,1.81
6068.00,1.81
6067.00,1.81
6066.00,1.81
6065.00,1.81
6064.00,1.81
6063.00,1.81
6062.00,1.81
6061.00,1.81
6060.00,1.81
6059.00,1.81
6058.00,1.81
6057.00,1.81
6056.00,1.81
6055.00,1.81
6054.00,1.81
6053.00,1.81
6052.00,1.81
6051.00,1.81
6050.00,1.81
6049.00,1.81
6048.00,1.81
6047.00,1.81
6046.00,1.81
6045.00,1.81
6044.00,1.81
6043.00,1.81
6042.00,1.81
6041.00,1.81
6040.00,1.81
6039.00,1.81
6038.00,1.81
6037.00,1.81
6036.00,1.81
6035.00,1.81
6034.00,1.81
6033.00,1.80
6032.00,1.80
6031.00,1.80
6030.00,1.80
6029.00,1.80
6028.00,1.80
6027.00,1.80
6026.00,1.80
6025.00,1.79
6024.00,1.79
6023.00,1.79
6022.00,1.79
6021.00,1.79
6020.00,1.79
6019.00,1.79
6018.00,1.79
6017.00,1.79
6016.00,1.79
6015.00,1.80
6014.00,1.80
6013.00,1.80
6012.00,1.80
6011.00,1.80
6010.00,1.80
6009.00,1.80
6008.00,1.80
6007.00,1.80
6006.00,1.80
6005.00,1.80
6004.00,1.81
6003.00,1.81
6002.00,1.81
6001.00,1.81
6000.00,1.81
5999.00,1.81
5998.00,1.81
5997.00,1.80
5996.00,1.80
5995.00,1.80
5994.00,1.80
5993.00,1.80
5992.00,1.80
5991.00,1.80
5990.00,1.80
5989.00,1.80
5988.00,1.80
5987.00,1.80
5986.00,1.79
5985.00,1.79
5984.00,1.79
5983.00,1.79
5982.00,1.79
5981.00,1.79
5980.00,1.79
5979.00,1.80
5978.00,1.80
5977.00,1.80
5976.00,1.79
5975.00,1.79
5974.00,1.79
5973.00,1.79
5972.00,1.79
5971.00,1.79
5970.00,1.78
5969.00,1.78
5968.00,1.78
5967.00,1.77
5966.00,1.77
5965.00,1.76
5964.00,1.76
5963.00,1.76
5962.00,1.75
5961.00,1.75
5960.00,1.74
5959.00,1.74
5958.00,1.74
5957.00,1.74
5956.00,1.73
5955.00,1.73
5954.00,1.73
5953.00,1.73
5952.00,1.73
5951.00,1.72
5950.00,1.72
5949.00,1.72
5948.00,1.72
5947.00,1.72
5946.00,1.72
5945.00,1.71
5944.00,1.71
5943.00,1.71
5942.00,1.71
5941.00,1.70
5940.00,1.70
5939.00,1.70
5938.00,1.70
5937.00,1.69
5936.00,1.69
5935.00,1.69
5934.00,1.69
5933.00,1.69
5932.00,1.69
5931.00,1.69
5930.00,1.69
5929.00,1.69
5928.00,1.69
5927.00,1.69
5926.00,1.69
5925.00,1.69
5924.00,1.69
5923.00,1.69
5922.00,1.69
5921.00,1.69
5920.00,1.69
5919.00,1.69
5918.00,1.68
5917.00,1.68
5916.00,1.68
5915.00,1.68
5914.00,1.68
5913.00,1.67
5912.00,1.67
5911.00,1.67
5910.00,1.66
5909.00,1.66
5908.00,1.66
5907.00,1.66
5906.00,1.66
5905.00,1.66
5904.00,1.65
5903.00,1.65
5902.00,1.65
5901.00,1.65
5900.00,1.66
5899.00,1.66
5898.00,1.66
5897.00,1.66
5896.00,1.66
5895.00,1.67
5894.00,1.67
5893.00,1.67
5892.00,1.68
5891.00,1.68
5890.00,1.68
5889.00,1.69
5888.00,1.69
5887.00,1.69
5886.00,1.70
5885.00,1.70
5884.00,1.70
5883.00,1.70
5882.00,1.70
5881.00,1.71
5880.00,1.71
5879.00,1.71
5878.00,1.71
5877.00,1.71
5876.00,1.71
5875.00,1.71
5874.00,1.71
5873.00,1.71
5872.00,1.71
5871.00,1.71
5870.00,1.71
5869.00,1.71
5868.00,1.71
5867.00,1.71
5866.00,1.72
5865.00,1.72
5864.00,1.72
5863.00,1.72
5862.00,1.72
5861.00,1.72
5860.00,1.72
5859.00,1.72
5858.00,1.72
5857.00,1.72
5856.00,1.72
5855.00,1.72
5854.00,1.72
5853.00,1.71
5852.00,1.71
5851.00,1.71
5850.00,1.70
5849.00,1.70
5848.00,1.70
5847.00,1.69
5846.00,1.69
5845.00,1.69
5844.00,1.68
5843.00,1.68
5842.00,1.68
5841.00,1.68
5840.00,1.68
5839.00,1.67
5838.00,1.67
5837.00,1.67
5836.00,1.67
5835.00,1.68
5834.00,1.68
5833.00,1.68
5832.00,1.68
5831.00,1.68
5830.00,1.69
5829.00,1.69
5828.00,1.69
5827.00,1.70
5826.00,1.70
5825.00,1.71
5824.00,1.71
5823.00,1.71
5822.00,1.72
5821.00,1.72
5820.00,1.72
5819.00,1.73
5818.00,1.73
5817.00,1.73
5816.00,1.74
5815.00,1.74
5814.00,1.74
5813.00,1.74
5812.00,1.74
5811.00,1.74
5810.00,1.74
5809.00,1.74
5808.00,1.74
5807.00,1.74
5806.00,1.74
5805.00,1.73
5804.00,1.73
5803.00,1.73
5802.00,1.73
5801.00,1.73
5800.00,1.73
5799.00,1.72
5798.00,1.72
5797.00,1.72
5796.00,1.72
5795.00,1.72
5794.00,1.72
5793.00,1.72
5792.00,1.71
5791.00,1.71
5790.00,1.71
5789.00,1.71
5788.00,1.71
5787.00,1.71
5786.00,1.71
5785.00,1.70
5784.00,1.70
5783.00,1.70
5782.00,1.70
5781.00,1.70
5780.00,1.70
5779.00,1.69
5778.00,1.69
5777.00,1.69
5776.00,1.69
5775.00,1.69
5774.00,1.69
5773.00,1.69
5772.00,1.69
5771.00,1.69
5770.00,1.69
5769.00,1.69
5768.00,1.69
5767.00,1.69
5766.00,1.68
5765.00,1.68
5764.00,1.68
5763.00,1.68
5762.00,1.68
5761.00,1.68
5760.00,1.68
5759.00,1.69
5758.00,1.69
5757.00,1.69
5756.00,1.69
5755.00,1.69
5754.00,1.69
5753.00,1.69
5752.00,1.70
5751.00,1.70
5750.00,1.70
5749.00,1.70
5748.00,1.70
5747.00,1.71
5746.00,1.71
5745.00,1.71
5744.00,1.71
5743.00,1.72
5742.00,1.72
5741.00,1.72
5740.00,1.72
5739.00,1.72
5738.00,1.72
5737.00,1.73
5736.00,1.73
5735.00,1.73
5734.00,1.73
5733.00,1.73
5732.00,1.73
5731.00,1.73
5730.00,1.73
5729.00,1.73
5728.00,1.73
5727.00,1.73
5726.00,1.74
5725.00,1.74
5724.00,1.74
5723.00,1.74
5722.00,1.74
5721.00,1.74
5720.00,1.74
5719.00,1.73
5718.00,1.73
5717.00,1.73
5716.00,1.73
5715.00,1.74
5714.00,1.74
5713.00,1.74
5712.00,1.74
5711.00,1.74
5710.00,1.74
5709.00,1.75
5708.00,1.75
5707.00,1.75
5706.00,1.75
5705.00,1.75
5704.00,1.75
5703.00,1.76
5702.00,1.76
5701.00,1.76
5700.00,1.76
5699.00,1.76
5698.00,1.76
5697.00,1.76
5696.00,1.76
5695.00,1.76
5694.00,1.75
5693.00,1.75
5692.00,1.75
5691.00,1.75
5690.00,1.74
5689.00,1.74
5688.00,1.74
5687.00,1.73
5686.00,1.73
5685.00,1.73
5684.00,1.72
5683.00,1.72
5682.00,1.72
5681.00,1.71
5680.00,1.71
5679.00,1.71
5678.00,1.70
5677.00,1.70
5676.00,1.70
5675.00,1.70
5674.00,1.70
5673.00,1.69
5672.00,1.69
5671.00,1.69
5670.00,1.69
5669.00,1.69
5668.00,1.69
5667.00,1.69
5666.00,1.69
5665.00,1.69
5664.00,1.69
5663.00,1.70
5662.00,1.70
5661.00,1.70
5660.00,1.70
5659.00,1.70
5658.00,1.70
5657.00,1.71
5656.00,1.71
5655.00,1.71
5654.00,1.71
5653.00,1.72
5652.00,1.72
5651.00,1.72
5650.00,1.72
5649.00,1.72
5648.00,1.72
5647.00,1.72
5646.00,1.72
5645.00,1.72
5644.00,1.72
5643.00,1.72
5642.00,1.72
5641.00,1.72
5640.00,1.72
5639.00,1.72
5638.00,1.72
5637.00,1.72
5636.00,1.72
5635.00,1.72
5634.00,1.72
5633.00,1.72
5632.00,1.72
5631.00,1.72
5630.00,1.72
5629.00,1.72
5628.00,1.72
5627.00,1.72
5626.00,1.72
5625.00,1.71
5624.00,1.71
5623.00,1.71
5622.00,1.71
5621.00,1.71
5620.00,1.71
5619.00,1.71
5618.00,1.71
5617.00,1.71
5616.00,1.71
5615.00,1.71
5614.00,1.71
5613.00,1.71
5612.00,1.71
5611.00,1.71
5610.00,1.72
5609.00,1.72
5608.00,1.72
5607.00,1.72
5606.00,1.72
5605.00,1.72
5604.00,1.73
5603.00,1.73
5602.00,1.73
5601.00,1.73
5600.00,1.74
5599.00,1.74
5598.00,1.74
5597.00,1.75
5596.00,1.75
5595.00,1.75
5594.00,1.75
5593.00,1.76
5592.00,1.76
5591.00,1.76
5590.00,1.76
5589.00,1.76
5588.00,1.76
5587.00,1.76
5586.00,1.76
5585.00,1.76
5584.00,1.76
5583.00,1.76
5582.00,1.76
5581.00,1.76
5580.00,1.76
5579.00,1.76
5578.00,1.76
5577.00,1.76
5576.00,1.76
5575.00,1.76
5574.00,1.76
5573.00,1.76
5572.00,1.76
5571.00,1.77
5570.00,1.77
5569.00,1.77
5568.00,1.77
5567.00,1.77
5566.00,1.77
5565.00,1.77
5564.00,1.77
5563.00,1.77
5562.00,1.77
5561.00,1.78
5560.00,1.78
5559.00,1.78
5558.00,1.77
5557.00,1.77
5556.00,1.77
5555.00,1.77
5554.00,1.77
5553.00,1.77
5552.00,1.77
5551.00,1.77
5550.00,1.77
5549.00,1.77
5548.00,1.77
5547.00,1.76
5546.00,1.76
5545.00,1.76
5544.00,1.76
5543.00,1.76
5542.00,1.76
5541.00,1.76
5540.00,1.76
5539.00,1.76
5538.00,1.76
5537.00,1.76
5536.00,1.76
5535.00,1.76
5534.00,1.76
5533.00,1.76
5532.00,1.77
5531.00,1.77
5530.00,1.77
5529.00,1.77
5528.00,1.77
5527.00,1.77
5526.00,1.77
5525.00,1.78
5524.00,1.78
5523.00,1.78
5522.00,1.78
5521.00,1.78
5520.00,1.78
5519.00,1.78
5518.00,1.78
5517.00,1.79
5516.00,1.79
5515.00,1.79
5514.00,1.79
5513.00,1.79
5512.00,1.79
5511.00,1.79
5510.00,1.80
5509.00,1.80
5508.00,1.80
5507.00,1.80
5506.00,1.80
5505.00,1.80
5504.00,1.80
5503.00,1.80
5502.00,1.80
5501.00,1.80
5500.00,1.80
5499.00,1.80
5498.00,1.80
5497.00,1.80
5496.00,1.80
5495.00,1.80
5494.00,1.80
5493.00,1.80
5492.00,1.80
5491.00,1.80
5490.00,1.79
5489.00,1.79
5488.00,1.79
5487.00,1.79
5486.00,1.79
5485.00,1.79
5484.00,1.79
5483.00,1.79
5482.00,1.79
5481.00,1.79
5480.00,1.79
5479.00,1.79
5478.00,1.79
5477.00,1.80
5476.00,1.80
5475.00,1.80
5474.00,1.80
5473.00,1.80
5472.00,1.80
5471.00,1.80
5470.00,1.80
5469.00,1.80
5468.00,1.80
5467.00,1.80
5466.00,1.80
5465.00,1.80
5464.00,1.80
5463.00,1.80
5462.00,1.80
5461.00,1.80
5460.00,1.80
5459.00,1.80
5458.00,1.80
5457.00,1.81
5456.00,1.81
5455.00,1.81
5454.00,1.81
5453.00,1.81
5452.00,1.82
5451.00,1.82
5450.00,1.82
5449.00,1.82
5448.00,1.82
5447.00,1.83
5446.00,1.83
5445.00,1.83
5444.00,1.83
5443.00,1.83
5442.00,1.83
5441.00,1.83
5440.00,1.83
5439.00,1.83
5438.00,1.83
5437.00,1.83
5436.00,1.83
5435.00,1.83
5434.00,1.82
5433.00,1.82
5432.00,1.82
5431.00,1.82
5430.00,1.82
5429.00,1.82
5428.00,1.81
5427.00,1.81
5426.00,1.81
5425.00,1.81
5424.00,1.81
5423.00,1.81
5422.00,1.82
5421.00,1.82
5420.00,1.82
5419.00,1.82
5418.00,1.83
5417.00,1.83
5416.00,1.83
5415.00,1.84
5414.00,1.84
5413.00,1.84
5412.00,1.85
5411.00,1.85
5410.00,1.85
5409.00,1.86
5408.00,1.86
5407.00,1.86
5406.00,1.86
5405.00,1.86
5404.00,1.86
5403.00,1.86
5402.00,1.86
5401.00,1.86
5400.00,1.85
5399.00,1.85
5398.00,1.85
5397.00,1.85
5396.00,1.85
5395.00,1.84
5394.00,1.84
5393.00,1.84
5392.00,1.84
5391.00,1.84
5390.00,1.84
5389.00,1.83
5388.00,1.83
5387.00,1.83
5386.00,1.83
5385.00,1.83
5384.00,1.83
5383.00,1.82
5382.00,1.82
5381.00,1.82
5380.00,1.81
5379.00,1.81
5378.00,1.81
5377.00,1.80
5376.00,1.80
5375.00,1.79
5374.00,1.79
5373.00,1.78
5372.00,1.78
5371.00,1.77
5370.00,1.76
5369.00,1.76
5368.00,1.75
5367.00,1.75
5366.00,1.74
5365.00,1.74
5364.00,1.73
5363.00,1.72
5362.00,1.72
5361.00,1.71
5360.00,1.71
5359.00,1.71
5358.00,1.70
5357.00,1.70
5356.00,1.69
5355.00,1.69
5354.00,1.69
5353.00,1.68
5352.00,1.68
5351.00,1.68
5350.00,1.67
5349.00,1.67
5348.00,1.67
5347.00,1.67
5346.00,1.66
5345.00,1.66
5344.00,1.66
5343.00,1.65
5342.00,1.65
5341.00,1.65
5340.00,1.64
5339.00,1.64
5338.00,1.63
5337.00,1.63
5336.00,1.62
5335.00,1.62
5334.00,1.61
5333.00,1.60
5332.00,1.59
5331.00,1.58
5330.00,1.57
5329.00,1.56
5328.00,1.55
5327.00,1.54
5326.00,1.53
5325.00,1.52
5324.00,1.51
5323.00,1.49
5322.00,1.48
5321.00,1.47
5320.00,1.45
5319.00,1.44
5318.00,1.43
5317.00,1.41
5316.00,1.40
5315.00,1.39
5314.00,1.37
5313.00,1.36
5312.00,1.34
5311.00,1.33
5310.00,1.32
5309.00,1.30
5308.00,1.29
5307.00,1.28
5306.00,1.26
5305.00,1.25
5304.00,1.24
5303.00,1.23
5302.00,1.22
5301.00,1.21
5300.00,1.19
5299.00,1.18
5298.00,1.18
5297.00,1.17
5296.00,1.16
5295.00,1.15
5294.00,1.15
5293.00,1.14
5292.00,1.13
5291.00,1.12
5290.00,1.12
5289.00,1.11
5288.00,1.10
5287.00,1.10
5286.00,1.09
5285.00,1.08
5284.00,1.08
5283.00,1.07
5282.00,1.06
5281.00,1.05
5280.00,1.05
5279.00,1.04
5278.00,1.03
5277.00,1.02
5276.00,1.02
5275.00,1.01
5274.00,1.00
5273.00,1.00
5272.00,0.99
5271.00,0.98
5270.00,0.98
5269.00,0.97
5268.00,0.97
5267.00,0.96
5266.00,0.96
5265.00,0.95
5264.00,0.95
5263.00,0.94
5262.00,0.94
5261.00,0.93
5260.00,0.92
5259.00,0.92
5258.00,0.91
5257.00,0.91
5256.00,0.90
5255.00,0.90
5254.00,0.89
5253.00,0.88
5252.00,0.88
5251.00,0.87
5250.00,0.87
5249.00,0.87
5248.00,0.86
5247.00,0.86
5246.00,0.86
5245.00,0.86
5244.00,0.86
5243.00,0.85
5242.00,0.85
5241.00,0.85
5240.00,0.85
5239.00,0.85
5238.00,0.85
5237.00,0.85
5236.00,0.84
5235.00,0.84
5234.00,0.84
5233.00,0.84
5232.00,0.84
5231.00,0.84
5230.00,0.83
5229.00,0.83
5228.00,0.83
5227.00,0.83
5226.00,0.83
5225.00,0.82
5224.00,0.82
5223.00,0.82
5222.00,0.82
5221.00,0.82
5220.00,0.82
5219.00,0.81
5218.00,0.81
5217.00,0.81
5216.00,0.81
5215.00,0.80
5214.00,0.80
5213.00,0.80
5212.00,0.80
5211.00,0.80
5210.00,0.79
5209.00,0.79
5208.00,0.79
5207.00,0.79
5206.00,0.79
5205.00,0.79
5204.00,0.79
5203.00,0.78
5202.00,0.78
5201.00,0.78
5200.00,0.78
5199.00,0.78
5198.00,0.78
5197.00,0.79
5196.00,0.79
5195.00,0.79
5194.00,0.79
5193.00,0.79
5192.00,0.78
5191.00,0.78
5190.00,0.78
5189.00,0.78
5188.00,0.78
5187.00,0.78
5186.00,0.78
5185.00,0.78
5184.00,0.78
5183.00,0.78
5182.00,0.78
5181.00,0.78
5180.00,0.77
5179.00,0.77
5178.00,0.77
5177.00,0.77
5176.00,0.78
5175.00,0.78
5174.00,0.78
5173.00,0.78
5172.00,0.78
5171.00,0.78
5170.00,0.78
5169.00,0.78
5168.00,0.78
5167.00,0.78
5166.00,0.78
5165.00,0.79
5164.00,0.79
5163.00,0.79
5162.00,0.79
5161.00,0.79
5160.00,0.79
5159.00,0.80
5158.00,0.80
5157.00,0.80
5156.00,0.80
5155.00,0.80
5154.00,0.80
5153.00,0.81
5152.00,0.81
5151.00,0.81
5150.00,0.81
5149.00,0.81
5148.00,0.81
5147.00,0.81
5146.00,0.81
5145.00,0.81
5144.00,0.81
5143.00,0.81
5142.00,0.81
5141.00,0.81
5140.00,0.80
5139.00,0.80
5138.00,0.80
5137.00,0.80
5136.00,0.80
5135.00,0.80
5134.00,0.80
5133.00,0.80
5132.00,0.80
5131.00,0.80
5130.00,0.81
5129.00,0.81
5128.00,0.81
5127.00,0.81
5126.00,0.81
5125.00,0.82
5124.00,0.82
5123.00,0.82
5122.00,0.82
5121.00,0.82
5120.00,0.83
5119.00,0.83
5118.00,0.83
5117.00,0.83
5116.00,0.83
5115.00,0.83
5114.00,0.83
5113.00,0.83
5112.00,0.83
5111.00,0.83
5110.00,0.83
5109.00,0.83
5108.00,0.83
5107.00,0.83
5106.00,0.83
5105.00,0.83
5104.00,0.84
5103.00,0.84
5102.00,0.84
5101.00,0.84
5100.00,0.84
5099.00,0.85
5098.00,0.85
5097.00,0.85
5096.00,0.85
5095.00,0.86
5094.00,0.86
5093.00,0.86
5092.00,0.87
5091.00,0.87
5090.00,0.87
5089.00,0.88
5088.00,0.88
5087.00,0.89
5086.00,0.89
5085.00,0.89
5084.00,0.90
5083.00,0.90
5082.00,0.90
5081.00,0.90
5080.00,0.91
5079.00,0.91
5078.00,0.91
5077.00,0.91
5076.00,0.92
5075.00,0.92
5074.00,0.92
5073.00,0.92
5072.00,0.92
5071.00,0.92
5070.00,0.92
5069.00,0.93
5068.00,0.93
5067.00,0.93
5066.00,0.93
5065.00,0.93
5064.00,0.94
5063.00,0.94
5062.00,0.94
5061.00,0.94
5060.00,0.95
5059.00,0.95
5058.00,0.95
5057.00,0.95
5056.00,0.95
5055.00,0.96
5054.00,0.96
5053.00,0.96
5052.00,0.96
5051.00,0.97
5050.00,0.97
5049.00,0.97
5048.00,0.98
5047.00,0.98
5046.00,0.98
5045.00,0.99
5044.00,0.99
5043.00,0.99
5042.00,1.00
5041.00,1.00
5040.00,1.00
5039.00,1.01
5038.00,1.01
5037.00,1.02
5036.00,1.02
5035.00,1.03
5034.00,1.03
5033.00,1.03
5032.00,1.04
5031.00,1.04
5030.00,1.05
5029.00,1.05
5028.00,1.05
5027.00,1.05
5026.00,1.06
5025.00,1.06
5024.00,1.06
5023.00,1.06
5022.00,1.06
5021.00,1.06
5020.00,1.06
5019.00,1.06
5018.00,1.06
5017.00,1.06
5016.00,1.06
5015.00,1.06
5014.00,1.06
5013.00,1.06
5012.00,1.06
5011.00,1.06
5010.00,1.06
5009.00,1.06
5008.00,1.06
5007.00,1.06
5006.00,1.06
5005.00,1.07
5004.00,1.07
5003.00,1.07
5002.00,1.08
5001.00,1.08
5000.00,1.09
4999.00,1.09
4998.00,1.10
4997.00,1.10
4996.00,1.11
4995.00,1.11
4994.00,1.12
4993.00,1.12
4992.00,1.13
4991.00,1.13
4990.00,1.14
4989.00,1.14
4988.00,1.15
4987.00,1.15
4986.00,1.15
4985.00,1.15
4984.00,1.16
4983.00,1.16
4982.00,1.16
4981.00,1.16
4980.00,1.16
4979.00,1.16
4978.00,1.16
4977.00,1.17
4976.00,1.17
4975.00,1.17
4974.00,1.17
4973.00,1.17
4972.00,1.18
4971.00,1.18
4970.00,1.18
4969.00,1.19
4968.00,1.19
4967.00,1.19
4966.00,1.20
4965.00,1.20
4964.00,1.20
4963.00,1.21
4962.00,1.21
4961.00,1.21
4960.00,1.21
4959.00,1.21
4958.00,1.21
4957.00,1.21
4956.00,1.21
4955.00,1.21
4954.00,1.22
4953.00,1.22
4952.00,1.22
4951.00,1.22
4950.00,1.22
4949.00,1.22
4948.00,1.22
4947.00,1.22
4946.00,1.22
4945.00,1.22
4944.00,1.22
4943.00,1.22
4942.00,1.22
4941.00,1.22
4940.00,1.22
4939.00,1.23
4938.00,1.23
4937.00,1.23
4936.00,1.23
4935.00,1.23
4934.00,1.24
4933.00,1.24
4932.00,1.24
4931.00,1.24
4930.00,1.24
4929.00,1.24
4928.00,1.24
4927.00,1.25
4926.00,1.25
4925.00,1.25
4924.00,1.26
4923.00,1.26
4922.00,1.26
4921.00,1.27
4920.00,1.27
4919.00,1.27
4918.00,1.27
4917.00,1.27
4916.00,1.28
4915.00,1.28
4914.00,1.28
4913.00,1.29
4912.00,1.29
4911.00,1.29
4910.00,1.29
4909.00,1.29
4908.00,1.29
4907.00,1.29
4906.00,1.29
4905.00,1.29
4904.00,1.29
4903.00,1.29
4902.00,1.29
4901.00,1.29
4900.00,1.29
4899.00,1.29
4898.00,1.29
4897.00,1.28
4896.00,1.28
4895.00,1.28
4894.00,1.28
4893.00,1.27
4892.00,1.27
4891.00,1.27
4890.00,1.27
4889.00,1.27
4888.00,1.27
4887.00,1.27
4886.00,1.28
4885.00,1.28
4884.00,1.28
4883.00,1.29
4882.00,1.29
4881.00,1.30
4880.00,1.30
4879.00,1.31
4878.00,1.31
4877.00,1.31
4876.00,1.32
4875.00,1.32
4874.00,1.33
4873.00,1.33
4872.00,1.33
4871.00,1.33
4870.00,1.33
4869.00,1.34
4868.00,1.34
4867.00,1.34
4866.00,1.34
4865.00,1.34
4864.00,1.34
4863.00,1.34
4862.00,1.34
4861.00,1.34
4860.00,1.34
4859.00,1.34
4858.00,1.33
4857.00,1.33
4856.00,1.33
4855.00,1.33
4854.00,1.33
4853.00,1.33
4852.00,1.33
4851.00,1.33
4850.00,1.33
4849.00,1.33
4848.00,1.33
4847.00,1.33
4846.00,1.33
4845.00,1.33
4844.00,1.33
4843.00,1.33
4842.00,1.33
4841.00,1.34
4840.00,1.34
4839.00,1.34
4838.00,1.34
4837.00,1.34
4836.00,1.34
4835.00,1.34
4834.00,1.35
4833.00,1.35
4832.00,1.35
4831.00,1.35
4830.00,1.36
4829.00,1.36
4828.00,1.36
4827.00,1.36
4826.00,1.37
4825.00,1.37
4824.00,1.37
4823.00,1.37
4822.00,1.38
4821.00,1.38
4820.00,1.38
4819.00,1.39
4818.00,1.39
4817.00,1.40
4816.00,1.40
4815.00,1.40
4814.00,1.41
4813.00,1.41
4812.00,1.42
4811.00,1.42
4810.00,1.43
4809.00,1.43
4808.00,1.44
4807.00,1.44
4806.00,1.45
4805.00,1.45
4804.00,1.46
4803.00,1.46
4802.00,1.47
4801.00,1.47
4800.00,1.47
4799.00,1.48
4798.00,1.48
4797.00,1.48
4796.00,1.48
4795.00,1.48
4794.00,1.49
4793.00,1.49
4792.00,1.49
4791.00,1.49
4790.00,1.49
4789.00,1.49
4788.00,1.49
4787.00,1.49
4786.00,1.49
4785.00,1.49
4784.00,1.49
4783.00,1.49
4782.00,1.49
4781.00,1.49
4780.00,1.49
4779.00,1.49
4778.00,1.49
4777.00,1.49
4776.00,1.49
4775.00,1.49
4774.00,1.49
4773.00,1.49
4772.00,1.49
4771.00,1.49
4770.00,1.50
4769.00,1.50
4768.00,1.51
4767.00,1.51
4766.00,1.52
4765.00,1.53
4764.00,1.53
4763.00,1.54
4762.00,1.55
4761.00,1.55
4760.00,1.56
4759.00,1.56
4758.00,1.57
4757.00,1.57
4756.00,1.57
4755.00,1.57
4754.00,1.58
4753.00,1.58
4752.00,1.58
4751.00,1.58
4750.00,1.58
4749.00,1.57
4748.00,1.57
4747.00,1.57
4746.00,1.57
4745.00,1.58
4744.00,1.58
4743.00,1.58
4742.00,1.58
4741.00,1.58
4740.00,1.59
4739.00,1.59
4738.00,1.60
4737.00,1.60
4736.00,1.60
4735.00,1.61
4734.00,1.61
4733.00,1.62
4732.00,1.62
4731.00,1.62
4730.00,1.63
4729.00,1.63
4728.00,1.63
4727.00,1.63
4726.00,1.64
4725.00,1.64
4724.00,1.64
4723.00,1.65
4722.00,1.65
4721.00,1.65
4720.00,1.65
4719.00,1.66
4718.00,1.66
4717.00,1.67
4716.00,1.67
4715.00,1.67
4714.00,1.68
4713.00,1.68
4712.00,1.69
4711.00,1.69
4710.00,1.69
4709.00,1.70
4708.00,1.70
4707.00,1.70
4706.00,1.71
4705.00,1.71
4704.00,1.71
4703.00,1.71
4702.00,1.72
4701.00,1.72
4700.00,1.72
4699.00,1.72
4698.00,1.72
4697.00,1.72
4696.00,1.72
4695.00,1.72
4694.00,1.72
4693.00,1.73
4692.00,1.73
4691.00,1.73
4690.00,1.73
4689.00,1.73
4688.00,1.73
4687.00,1.73
4686.00,1.74
4685.00,1.74
4684.00,1.74
4683.00,1.74
4682.00,1.74
4681.00,1.74
4680.00,1.74
4679.00,1.75
4678.00,1.75
4677.00,1.75
4676.00,1.75
4675.00,1.75
4674.00,1.75
4673.00,1.75
4672.00,1.75
4671.00,1.74
4670.00,1.74
4669.00,1.74
4668.00,1.74
4667.00,1.74
4666.00,1.74
4665.00,1.74
4664.00,1.74
4663.00,1.74
4662.00,1.74
4661.00,1.74
4660.00,1.75
4659.00,1.75
4658.00,1.75
4657.00,1.75
4656.00,1.75
4655.00,1.76
4654.00,1.76
4653.00,1.76
4652.00,1.76
4651.00,1.76
4650.00,1.76
4649.00,1.77
4648.00,1.77
4647.00,1.77
4646.00,1.77
4645.00,1.78
4644.00,1.78
4643.00,1.78
4642.00,1.78
4641.00,1.79
4640.00,1.79
4639.00,1.79
4638.00,1.79
4637.00,1.79
4636.00,1.80
4635.00,1.80
4634.00,1.80
4633.00,1.80
4632.00,1.80
4631.00,1.80
4630.00,1.80
4629.00,1.80
4628.00,1.79
4627.00,1.79
4626.00,1.78
4625.00,1.78
4624.00,1.78
4623.00,1.77
4622.00,1.77
4621.00,1.77
4620.00,1.77
4619.00,1.76
4618.00,1.76
4617.00,1.76
4616.00,1.76
4615.00,1.77
4614.00,1.77
4613.00,1.78
4612.00,1.78
4611.00,1.79
4610.00,1.79
4609.00,1.80
4608.00,1.81
4607.00,1.81
4606.00,1.82
4605.00,1.82
4604.00,1.83
4603.00,1.83
4602.00,1.84
4601.00,1.84
4600.00,1.84
4599.00,1.84
4598.00,1.84
4597.00,1.84
4596.00,1.84
4595.00,1.84
4594.00,1.84
4593.00,1.83
4592.00,1.83
4591.00,1.83
4590.00,1.83
4589.00,1.83
4588.00,1.83
4587.00,1.83
4586.00,1.83
4585.00,1.83
4584.00,1.83
4583.00,1.83
4582.00,1.83
4581.00,1.84
4580.00,1.84
4579.00,1.84
4578.00,1.84
4577.00,1.84
4576.00,1.84
4575.00,1.84
4574.00,1.84
4573.00,1.84
4572.00,1.84
4571.00,1.84
4570.00,1.84
4569.00,1.84
4568.00,1.84
4567.00,1.83
4566.00,1.83
4565.00,1.83
4564.00,1.83
4563.00,1.83
4562.00,1.83
4561.00,1.82
4560.00,1.82
4559.00,1.82
4558.00,1.82
4557.00,1.82
4556.00,1.82
4555.00,1.82
4554.00,1.82
4553.00,1.82
4552.00,1.82
4551.00,1.82
4550.00,1.82
4549.00,1.82
4548.00,1.82
4547.00,1.82
4546.00,1.82
4545.00,1.82
4544.00,1.82
4543.00,1.82
4542.00,1.82
4541.00,1.82
4540.00,1.82
4539.00,1.82
4538.00,1.82
4537.00,1.82
4536.00,1.82
4535.00,1.82
4534.00,1.82
4533.00,1.82
4532.00,1.82
4531.00,1.82
4530.00,1.82
4529.00,1.82
4528.00,1.82
4527.00,1.82
4526.00,1.82
4525.00,1.82
4524.00,1.82
4523.00,1.82
4522.00,1.82
4521.00,1.82
4520.00,1.82
4519.00,1.83
4518.00,1.83
4517.00,1.83
4516.00,1.83
4515.00,1.83
4514.00,1.83
4513.00,1.83
4512.00,1.84
4511.00,1.84
4510.00,1.84
4509.00,1.84
4508.00,1.84
4507.00,1.85
4506.00,1.85
4505.00,1.85
4504.00,1.85
4503.00,1.85
4502.00,1.86
4501.00,1.86
4500.00,1.86
4499.00,1.86
4498.00,1.86
4497.00,1.86
4496.00,1.86
4495.00,1.86
4494.00,1.86
4493.00,1.85
4492.00,1.85
4491.00,1.85
4490.00,1.85
4489.00,1.85
4488.00,1.84
4487.00,1.84
4486.00,1.84
4485.00,1.84
4484.00,1.83
4483.00,1.83
4482.00,1.83
4481.00,1.83
4480.00,1.83
4479.00,1.83
4478.00,1.83
4477.00,1.82
4476.00,1.82
4475.00,1.82
4474.00,1.82
4473.00,1.82
4472.00,1.82
4471.00,1.82
4470.00,1.82
4469.00,1.82
4468.00,1.82
4467.00,1.82
4466.00,1.81
4465.00,1.81
4464.00,1.81
4463.00,1.81
4462.00,1.80
4461.00,1.80
4460.00,1.79
4459.00,1.79
4458.00,1.78
4457.00,1.77
4456.00,1.77
4455.00,1.76
4454.00,1.76
4453.00,1.75
4452.00,1.74
4451.00,1.73
4450.00,1.73
4449.00,1.72
4448.00,1.71
4447.00,1.70
4446.00,1.69
4445.00,1.68
4444.00,1.67
4443.00,1.66
4442.00,1.65
4441.00,1.64
4440.00,1.63
4439.00,1.61
4438.00,1.60
4437.00,1.59
4436.00,1.58
4435.00,1.57
4434.00,1.56
4433.00,1.54
4432.00,1.53
4431.00,1.52
4430.00,1.51
4429.00,1.50
4428.00,1.49
4427.00,1.49
4426.00,1.48
4425.00,1.47
4424.00,1.46
4423.00,1.45
4422.00,1.44
4421.00,1.44
4420.00,1.43
4419.00,1.43
4418.00,1.42
4417.00,1.42
4416.00,1.41
4415.00,1.41
4414.00,1.41
4413.00,1.40
4412.00,1.40
4411.00,1.39
4410.00,1.39
4409.00,1.39
4408.00,1.39
4407.00,1.38
4406.00,1.38
4405.00,1.38
4404.00,1.38
4403.00,1.38
4402.00,1.38
4401.00,1.38
4400.00,1.38
4399.00,1.39
4398.00,1.39
4397.00,1.40
4396.00,1.40
4395.00,1.41
4394.00,1.42
4393.00,1.43
4392.00,1.44
4391.00,1.45
4390.00,1.46
4389.00,1.48
4388.00,1.49
4387.00,1.50
4386.00,1.51
4385.00,1.52
4384.00,1.52
4383.00,1.53
4382.00,1.54
4381.00,1.55
4380.00,1.55
4379.00,1.56
4378.00,1.56
4377.00,1.57
4376.00,1.57
4375.00,1.57
4374.00,1.57
4373.00,1.57
4372.00,1.57
4371.00,1.57
4370.00,1.57
4369.00,1.57
4368.00,1.57
4367.00,1.56
4366.00,1.56
4365.00,1.55
4364.00,1.55
4363.00,1.54
4362.00,1.53
4361.00,1.53
4360.00,1.52
4359.00,1.51
4358.00,1.51
4357.00,1.50
4356.00,1.49
4355.00,1.48
4354.00,1.48
4353.00,1.47
4352.00,1.47
4351.00,1.46
4350.00,1.46
4349.00,1.46
4348.00,1.45
4347.00,1.45
4346.00,1.45
4345.00,1.44
4344.00,1.44
4343.00,1.44
4342.00,1.44
4341.00,1.45
4340.00,1.45
4339.00,1.45
4338.00,1.45
4337.00,1.46
4336.00,1.46
4335.00,1.47
4334.00,1.47
4333.00,1.48
4332.00,1.49
4331.00,1.49
4330.00,1.50
4329.00,1.51
4328.00,1.52
4327.00,1.53
4326.00,1.54
4325.00,1.55
4324.00,1.56
4323.00,1.57
4322.00,1.58
4321.00,1.59
4320.00,1.59
4319.00,1.60
4318.00,1.61
4317.00,1.61
4316.00,1.62
4315.00,1.63
4314.00,1.63
4313.00,1.64
4312.00,1.65
4311.00,1.66
4310.00,1.67
4309.00,1.67
4308.00,1.68
4307.00,1.69
4306.00,1.70
4305.00,1.71
4304.00,1.72
4303.00,1.73
4302.00,1.74
4301.00,1.75
4300.00,1.76
4299.00,1.77
4298.00,1.77
4297.00,1.78
4296.00,1.78
4295.00,1.78
4294.00,1.78
4293.00,1.78
4292.00,1.78
4291.00,1.78
4290.00,1.77
4289.00,1.77
4288.00,1.77
4287.00,1.76
4286.00,1.76
4285.00,1.75
4284.00,1.75
4283.00,1.74
4282.00,1.74
4281.00,1.74
4280.00,1.73
4279.00,1.73
4278.00,1.73
4277.00,1.73
4276.00,1.73
4275.00,1.73
4274.00,1.72
4273.00,1.72
4272.00,1.72
4271.00,1.72
4270.00,1.71
4269.00,1.71
4268.00,1.71
4267.00,1.71
4266.00,1.70
4265.00,1.70
4264.00,1.70
4263.00,1.70
4262.00,1.69
4261.00,1.69
4260.00,1.69
4259.00,1.68
4258.00,1.68
4257.00,1.68
4256.00,1.67
4255.00,1.67
4254.00,1.67
4253.00,1.67
4252.00,1.67
4251.00,1.67
4250.00,1.67
4249.00,1.67
4248.00,1.67
4247.00,1.67
4246.00,1.68
4245.00,1.68
4244.00,1.68
4243.00,1.68
4242.00,1.69
4241.00,1.69
4240.00,1.69
4239.00,1.70
4238.00,1.70
4237.00,1.70
4236.00,1.70
4235.00,1.71
4234.00,1.71
4233.00,1.71
4232.00,1.72
4231.00,1.72
4230.00,1.73
4229.00,1.73
4228.00,1.73
4227.00,1.74
4226.00,1.74
4225.00,1.74
4224.00,1.75
4223.00,1.75
4222.00,1.76
4221.00,1.76
4220.00,1.76
4219.00,1.77
4218.00,1.77
4217.00,1.78
4216.00,1.78
4215.00,1.78
4214.00,1.79
4213.00,1.79
4212.00,1.79
4211.00,1.79
4210.00,1.80
4209.00,1.80
4208.00,1.80
4207.00,1.80
4206.00,1.80
4205.00,1.80
4204.00,1.80
4203.00,1.79
4202.00,1.79
4201.00,1.79
4200.00,1.78
4199.00,1.78
4198.00,1.78
4197.00,1.77
4196.00,1.77
4195.00,1.76
4194.00,1.76
4193.00,1.75
4192.00,1.75
4191.00,1.75
4190.00,1.75
4189.00,1.74
4188.00,1.74
4187.00,1.75
4186.00,1.75
4185.00,1.75
4184.00,1.75
4183.00,1.75
4182.00,1.76
4181.00,1.76
4180.00,1.76
4179.00,1.76
4178.00,1.76
4177.00,1.76
4176.00,1.76
4175.00,1.77
4174.00,1.77
4173.00,1.77
4172.00,1.77
4171.00,1.77
4170.00,1.76
4169.00,1.76
4168.00,1.76
4167.00,1.75
4166.00,1.75
4165.00,1.75
4164.00,1.74
4163.00,1.74
4162.00,1.74
4161.00,1.73
4160.00,1.73
4159.00,1.73
4158.00,1.72
4157.00,1.72
4156.00,1.71
4155.00,1.71
4154.00,1.71
4153.00,1.71
4152.00,1.71
4151.00,1.71
4150.00,1.71
4149.00,1.71
4148.00,1.71
4147.00,1.71
4146.00,1.71
4145.00,1.71
4144.00,1.71
4143.00,1.72
4142.00,1.72
4141.00,1.72
4140.00,1.71
4139.00,1.71
4138.00,1.71
4137.00,1.71
4136.00,1.70
4135.00,1.70
4134.00,1.69
4133.00,1.69
4132.00,1.68
4131.00,1.67
4130.00,1.66
4129.00,1.66
4128.00,1.65
4127.00,1.65
4126.00,1.64
4125.00,1.64
4124.00,1.64
4123.00,1.63
4122.00,1.63
4121.00,1.63
4120.00,1.63
4119.00,1.64
4118.00,1.64
4117.00,1.64
4116.00,1.65
4115.00,1.65
4114.00,1.66
4113.00,1.66
4112.00,1.67
4111.00,1.67
4110.00,1.68
4109.00,1.68
4108.00,1.68
4107.00,1.68
4106.00,1.68
4105.00,1.68
4104.00,1.68
4103.00,1.68
4102.00,1.67
4101.00,1.67
4100.00,1.66
4099.00,1.65
4098.00,1.65
4097.00,1.64
4096.00,1.64
4095.00,1.64
4094.00,1.63
4093.00,1.63
4092.00,1.63
4091.00,1.62
4090.00,1.62
4089.00,1.62
4088.00,1.61
4087.00,1.61
4086.00,1.61
4085.00,1.62
4084.00,1.62
4083.00,1.62
4082.00,1.62
4081.00,1.62
4080.00,1.62
4079.00,1.62
4078.00,1.61
4077.00,1.61
4076.00,1.61
4075.00,1.60
4074.00,1.60
4073.00,1.60
4072.00,1.60
4071.00,1.60
4070.00,1.60
4069.00,1.60
4068.00,1.60
4067.00,1.59
4066.00,1.59
4065.00,1.59
4064.00,1.59
4063.00,1.58
4062.00,1.58
4061.00,1.58
4060.00,1.58
4059.00,1.58
4058.00,1.57
4057.00,1.57
4056.00,1.57
4055.00,1.56
4054.00,1.56
4053.00,1.55
4052.00,1.55
4051.00,1.54
4050.00,1.54
4049.00,1.53
4048.00,1.53
4047.00,1.53
4046.00,1.53
4045.00,1.53
4044.00,1.53
4043.00,1.53
4042.00,1.53
4041.00,1.53
4040.00,1.53
4039.00,1.53
4038.00,1.53
4037.00,1.54
4036.00,1.55
4035.00,1.55
4034.00,1.56
4033.00,1.57
4032.00,1.57
4031.00,1.58
4030.00,1.59
4029.00,1.60
4028.00,1.61
4027.00,1.62
4026.00,1.64
4025.00,1.65
4024.00,1.67
4023.00,1.68
4022.00,1.70
4021.00,1.71
4020.00,1.73
4019.00,1.74
4018.00,1.75
4017.00,1.76
4016.00,1.77
4015.00,1.79
4014.00,1.80
4013.00,1.81
4012.00,1.82
4011.00,1.83
4010.00,1.83
4009.00,1.84
4008.00,1.84
4007.00,1.84
4006.00,1.84
4005.00,1.84
4004.00,1.84
4003.00,1.84
4002.00,1.84
4001.00,1.84
4000.00,1.84
