创建为新数据集,样品 290 用户 Administrator 日期 星期六, 七月 27 2019
cm-1,%T
10000.00,2.01
9999.00,2.01
9998.00,2.00
9997.00,2.00
9996.00,2.00
9995.00,2.00
9994.00,1.99
9993.00,1.99
9992.00,1.99
9991.00,1.98
9990.00,1.98
9989.00,1.98
9988.00,1.97
9987.00,1.97
9986.00,1.96
9985.00,1.96
9984.00,1.95
9983.00,1.94
9982.00,1.94
9981.00,1.93
9980.00,1.93
9979.00,1.92
9978.00,1.91
9977.00,1.91
9976.00,1.90
9975.00,1.90
9974.00,1.90
9973.00,1.89
9972.00,1.89
9971.00,1.89
9970.00,1.88
9969.00,1.88
9968.00,1.88
9967.00,1.88
9966.00,1.87
9965.00,1.87
9964.00,1.87
9963.00,1.87
9962.00,1.86
9961.00,1.86
9960.00,1.86
9959.00,1.86
9958.00,1.86
9957.00,1.86
9956.00,1.85
9955.00,1.85
9954.00,1.85
9953.00,1.85
9952.00,1.85
9951.00,1.84
9950.00,1.84
9949.00,1.83
9948.00,1.83
9947.00,1.82
9946.00,1.81
9945.00,1.80
9944.00,1.80
9943.00,1.79
9942.00,1.78
9941.00,1.78
9940.00,1.77
9939.00,1.76
9938.00,1.76
9937.00,1.75
9936.00,1.75
9935.00,1.74
9934.00,1.74
9933.00,1.73
9932.00,1.73
9931.00,1.72
9930.00,1.72
9929.00,1.71
9928.00,1.71
9927.00,1.71
9926.00,1.71
9925.00,1.71
9924.00,1.71
9923.00,1.71
9922.00,1.72
9921.00,1.72
9920.00,1.73
9919.00,1.73
9918.00,1.73
9917.00,1.74
9916.00,1.74
9915.00,1.75
9914.00,1.75
9913.00,1.75
9912.00,1.76
9911.00,1.76
9910.00,1.77
9909.00,1.77
9908.00,1.77
9907.00,1.78
9906.00,1.78
9905.00,1.79
9904.00,1.79
9903.00,1.79
9902.00,1.79
9901.00,1.80
9900.00,1.80
9899.00,1.80
9898.00,1.80
9897.00,1.80
9896.00,1.80
9895.00,1.81
9894.00,1.81
9893.00,1.81
9892.00,1.81
9891.00,1.81
9890.00,1.82
9889.00,1.82
9888.00,1.83
9887.00,1.83
9886.00,1.84
9885.00,1.84
9884.00,1.85
9883.00,1.85
9882.00,1.86
9881.00,1.86
9880.00,1.87
9879.00,1.87
9878.00,1.88
9877.00,1.88
9876.00,1.88
9875.00,1.89
9874.00,1.89
9873.00,1.89
9872.00,1.90
9871.00,1.90
9870.00,1.90
9869.00,1.90
9868.00,1.90
9867.00,1.90
9866.00,1.90
9865.00,1.90
9864.00,1.90
9863.00,1.90
9862.00,1.90
9861.00,1.89
9860.00,1.89
9859.00,1.88
9858.00,1.87
9857.00,1.87
9856.00,1.86
9855.00,1.85
9854.00,1.84
9853.00,1.84
9852.00,1.83
9851.00,1.82
9850.00,1.81
9849.00,1.81
9848.00,1.80
9847.00,1.80
9846.00,1.79
9845.00,1.79
9844.00,1.79
9843.00,1.79
9842.00,1.78
9841.00,1.78
9840.00,1.78
9839.00,1.78
9838.00,1.78
9837.00,1.78
9836.00,1.78
9835.00,1.78
9834.00,1.78
9833.00,1.78
9832.00,1.79
9831.00,1.80
9830.00,1.80
9829.00,1.81
9828.00,1.82
9827.00,1.83
9826.00,1.84
9825.00,1.85
9824.00,1.86
9823.00,1.87
9822.00,1.87
9821.00,1.88
9820.00,1.89
9819.00,1.89
9818.00,1.90
9817.00,1.90
9816.00,1.91
9815.00,1.91
9814.00,1.92
9813.00,1.92
9812.00,1.93
9811.00,1.93
9810.00,1.93
9809.00,1.94
9808.00,1.94
9807.00,1.93
9806.00,1.93
9805.00,1.93
9804.00,1.92
9803.00,1.92
9802.00,1.91
9801.00,1.90
9800.00,1.90
9799.00,1.89
9798.00,1.88
9797.00,1.88
9796.00,1.87
9795.00,1.87
9794.00,1.86
9793.00,1.86
9792.00,1.85
9791.00,1.85
9790.00,1.84
9789.00,1.83
9788.00,1.83
9787.00,1.82
9786.00,1.81
9785.00,1.80
9784.00,1.80
9783.00,1.79
9782.00,1.79
9781.00,1.78
9780.00,1.78
9779.00,1.78
9778.00,1.77
9777.00,1.77
9776.00,1.77
9775.00,1.77
9774.00,1.77
9773.00,1.77
9772.00,1.77
9771.00,1.77
9770.00,1.77
9769.00,1.77
9768.00,1.77
9767.00,1.77
9766.00,1.77
9765.00,1.77
9764.00,1.77
9763.00,1.77
9762.00,1.77
9761.00,1.78
9760.00,1.78
9759.00,1.78
9758.00,1.78
9757.00,1.78
9756.00,1.78
9755.00,1.78
9754.00,1.78
9753.00,1.78
9752.00,1.78
9751.00,1.78
9750.00,1.78
9749.00,1.77
9748.00,1.77
9747.00,1.77
9746.00,1.76
9745.00,1.76
9744.00,1.75
9743.00,1.74
9742.00,1.73
9741.00,1.73
9740.00,1.72
9739.00,1.71
9738.00,1.70
9737.00,1.69
9736.00,1.69
9735.00,1.68
9734.00,1.67
9733.00,1.67
9732.00,1.66
9731.00,1.65
9730.00,1.65
9729.00,1.65
9728.00,1.64
9727.00,1.64
9726.00,1.64
9725.00,1.64
9724.00,1.64
9723.00,1.64
9722.00,1.64
9721.00,1.65
9720.00,1.65
9719.00,1.65
9718.00,1.66
9717.00,1.67
9716.00,1.68
9715.00,1.68
9714.00,1.69
9713.00,1.70
9712.00,1.71
9711.00,1.72
9710.00,1.73
9709.00,1.74
9708.00,1.74
9707.00,1.75
9706.00,1.76
9705.00,1.77
9704.00,1.77
9703.00,1.78
9702.00,1.78
9701.00,1.79
9700.00,1.79
9699.00,1.80
9698.00,1.80
9697.00,1.81
9696.00,1.81
9695.00,1.82
9694.00,1.82
9693.00,1.82
9692.00,1.82
9691.00,1.83
9690.00,1.83
9689.00,1.83
9688.00,1.83
9687.00,1.83
9686.00,1.83
9685.00,1.83
9684.00,1.83
9683.00,1.83
9682.00,1.83
9681.00,1.83
9680.00,1.83
9679.00,1.83
9678.00,1.83
9677.00,1.83
9676.00,1.83
9675.00,1.83
9674.00,1.83
9673.00,1.83
9672.00,1.83
9671.00,1.82
9670.00,1.82
9669.00,1.82
9668.00,1.82
9667.00,1.82
9666.00,1.81
9665.00,1.81
9664.00,1.81
9663.00,1.81
9662.00,1.80
9661.00,1.80
9660.00,1.80
9659.00,1.80
9658.00,1.80
9657.00,1.80
9656.00,1.80
9655.00,1.80
9654.00,1.80
9653.00,1.80
9652.00,1.80
9651.00,1.81
9650.00,1.81
9649.00,1.81
9648.00,1.81
9647.00,1.82
9646.00,1.82
9645.00,1.82
9644.00,1.83
9643.00,1.83
9642.00,1.84
9641.00,1.84
9640.00,1.85
9639.00,1.85
9638.00,1.86
9637.00,1.87
9636.00,1.87
9635.00,1.88
9634.00,1.88
9633.00,1.89
9632.00,1.90
9631.00,1.90
9630.00,1.91
9629.00,1.91
9628.00,1.92
9627.00,1.92
9626.00,1.93
9625.00,1.93
9624.00,1.93
9623.00,1.93
9622.00,1.93
9621.00,1.94
9620.00,1.94
9619.00,1.94
9618.00,1.94
9617.00,1.93
9616.00,1.93
9615.00,1.93
9614.00,1.93
9613.00,1.93
9612.00,1.92
9611.00,1.92
9610.00,1.92
9609.00,1.91
9608.00,1.90
9607.00,1.90
9606.00,1.89
9605.00,1.89
9604.00,1.88
9603.00,1.87
9602.00,1.86
9601.00,1.85
9600.00,1.84
9599.00,1.84
9598.00,1.83
9597.00,1.82
9596.00,1.81
9595.00,1.80
9594.00,1.80
9593.00,1.79
9592.00,1.79
9591.00,1.78
9590.00,1.78
9589.00,1.77
9588.00,1.77
9587.00,1.76
9586.00,1.76
9585.00,1.76
9584.00,1.76
9583.00,1.76
9582.00,1.76
9581.00,1.76
9580.00,1.76
9579.00,1.76
9578.00,1.76
9577.00,1.76
9576.00,1.76
9575.00,1.77
9574.00,1.77
9573.00,1.77
9572.00,1.78
9571.00,1.78
9570.00,1.78
9569.00,1.79
9568.00,1.79
9567.00,1.80
9566.00,1.80
9565.00,1.81
9564.00,1.81
9563.00,1.82
9562.00,1.82
9561.00,1.82
9560.00,1.82
9559.00,1.83
9558.00,1.83
9557.00,1.83
9556.00,1.83
9555.00,1.83
9554.00,1.83
9553.00,1.83
9552.00,1.83
9551.00,1.82
9550.00,1.82
9549.00,1.82
9548.00,1.82
9547.00,1.81
9546.00,1.81
9545.00,1.81
9544.00,1.80
9543.00,1.80
9542.00,1.79
9541.00,1.78
9540.00,1.78
9539.00,1.77
9538.00,1.76
9537.00,1.76
9536.00,1.75
9535.00,1.75
9534.00,1.74
9533.00,1.74
9532.00,1.73
9531.00,1.72
9530.00,1.72
9529.00,1.72
9528.00,1.71
9527.00,1.71
9526.00,1.70
9525.00,1.70
9524.00,1.70
9523.00,1.70
9522.00,1.70
9521.00,1.69
9520.00,1.69
9519.00,1.69
9518.00,1.69
9517.00,1.69
9516.00,1.70
9515.00,1.70
9514.00,1.70
9513.00,1.70
9512.00,1.70
9511.00,1.71
9510.00,1.71
9509.00,1.71
9508.00,1.71
9507.00,1.72
9506.00,1.72
9505.00,1.72
9504.00,1.73
9503.00,1.73
9502.00,1.74
9501.00,1.74
9500.00,1.75
9499.00,1.76
9498.00,1.76
9497.00,1.77
9496.00,1.78
9495.00,1.78
9494.00,1.79
9493.00,1.79
9492.00,1.80
9491.00,1.80
9490.00,1.81
9489.00,1.81
9488.00,1.81
9487.00,1.82
9486.00,1.82
9485.00,1.82
9484.00,1.82
9483.00,1.83
9482.00,1.83
9481.00,1.83
9480.00,1.83
9479.00,1.84
9478.00,1.84
9477.00,1.84
9476.00,1.84
9475.00,1.84
9474.00,1.83
9473.00,1.83
9472.00,1.83
9471.00,1.82
9470.00,1.82
9469.00,1.81
9468.00,1.81
9467.00,1.81
9466.00,1.80
9465.00,1.80
9464.00,1.80
9463.00,1.80
9462.00,1.80
9461.00,1.79
9460.00,1.79
9459.00,1.79
9458.00,1.79
9457.00,1.79
9456.00,1.79
9455.00,1.79
9454.00,1.78
9453.00,1.78
9452.00,1.78
9451.00,1.78
9450.00,1.78
9449.00,1.78
9448.00,1.78
9447.00,1.78
9446.00,1.79
9445.00,1.79
9444.00,1.79
9443.00,1.80
9442.00,1.80
9441.00,1.80
9440.00,1.80
9439.00,1.80
9438.00,1.80
9437.00,1.80
9436.00,1.80
9435.00,1.80
9434.00,1.79
9433.00,1.79
9432.00,1.79
9431.00,1.78
9430.00,1.78
9429.00,1.78
9428.00,1.77
9427.00,1.77
9426.00,1.77
9425.00,1.76
9424.00,1.76
9423.00,1.75
9422.00,1.75
9421.00,1.74
9420.00,1.74
9419.00,1.73
9418.00,1.73
9417.00,1.72
9416.00,1.72
9415.00,1.72
9414.00,1.72
9413.00,1.71
9412.00,1.71
9411.00,1.71
9410.00,1.72
9409.00,1.72
9408.00,1.72
9407.00,1.73
9406.00,1.73
9405.00,1.74
9404.00,1.74
9403.00,1.75
9402.00,1.75
9401.00,1.76
9400.00,1.76
9399.00,1.77
9398.00,1.78
9397.00,1.78
9396.00,1.79
9395.00,1.80
9394.00,1.80
9393.00,1.81
9392.00,1.82
9391.00,1.82
9390.00,1.83
9389.00,1.83
9388.00,1.84
9387.00,1.84
9386.00,1.84
9385.00,1.85
9384.00,1.85
9383.00,1.85
9382.00,1.85
9381.00,1.85
9380.00,1.85
9379.00,1.84
9378.00,1.84
9377.00,1.84
9376.00,1.83
9375.00,1.83
9374.00,1.82
9373.00,1.81
9372.00,1.81
9371.00,1.80
9370.00,1.79
9369.00,1.79
9368.00,1.78
9367.00,1.77
9366.00,1.76
9365.00,1.75
9364.00,1.74
9363.00,1.73
9362.00,1.72
9361.00,1.72
9360.00,1.71
9359.00,1.70
9358.00,1.69
9357.00,1.69
9356.00,1.68
9355.00,1.68
9354.00,1.68
9353.00,1.67
9352.00,1.67
9351.00,1.67
9350.00,1.67
9349.00,1.67
9348.00,1.67
9347.00,1.68
9346.00,1.68
9345.00,1.68
9344.00,1.69
9343.00,1.69
9342.00,1.70
9341.00,1.70
9340.00,1.71
9339.00,1.72
9338.00,1.72
9337.00,1.73
9336.00,1.73
9335.00,1.74
9334.00,1.74
9333.00,1.75
9332.00,1.75
9331.00,1.75
9330.00,1.75
9329.00,1.75
9328.00,1.75
9327.00,1.76
9326.00,1.76
9325.00,1.76
9324.00,1.76
9323.00,1.76
9322.00,1.76
9321.00,1.76
9320.00,1.76
9319.00,1.76
9318.00,1.76
9317.00,1.76
9316.00,1.76
9315.00,1.76
9314.00,1.76
9313.00,1.76
9312.00,1.76
9311.00,1.76
9310.00,1.75
9309.00,1.75
9308.00,1.76
9307.00,1.76
9306.00,1.76
9305.00,1.76
9304.00,1.76
9303.00,1.77
9302.00,1.77
9301.00,1.77
9300.00,1.78
9299.00,1.78
9298.00,1.78
9297.00,1.79
9296.00,1.79
9295.00,1.79
9294.00,1.79
9293.00,1.80
9292.00,1.80
9291.00,1.80
9290.00,1.80
9289.00,1.80
9288.00,1.81
9287.00,1.81
9286.00,1.81
9285.00,1.82
9284.00,1.82
9283.00,1.82
9282.00,1.82
9281.00,1.83
9280.00,1.83
9279.00,1.83
9278.00,1.83
9277.00,1.83
9276.00,1.84
9275.00,1.84
9274.00,1.84
9273.00,1.84
9272.00,1.84
9271.00,1.84
9270.00,1.84
9269.00,1.85
9268.00,1.85
9267.00,1.85
9266.00,1.85
9265.00,1.86
9264.00,1.86
9263.00,1.86
9262.00,1.86
9261.00,1.86
9260.00,1.86
9259.00,1.87
9258.00,1.87
9257.00,1.87
9256.00,1.87
9255.00,1.87
9254.00,1.87
9253.00,1.87
9252.00,1.87
9251.00,1.87
9250.00,1.87
9249.00,1.87
9248.00,1.87
9247.00,1.87
9246.00,1.87
9245.00,1.86
9244.00,1.86
9243.00,1.86
9242.00,1.85
9241.00,1.85
9240.00,1.84
9239.00,1.84
9238.00,1.84
9237.00,1.83
9236.00,1.83
9235.00,1.83
9234.00,1.82
9233.00,1.82
9232.00,1.81
9231.00,1.81
9230.00,1.81
9229.00,1.80
9228.00,1.80
9227.00,1.79
9226.00,1.79
9225.00,1.79
9224.00,1.79
9223.00,1.79
9222.00,1.79
9221.00,1.79
9220.00,1.79
9219.00,1.79
9218.00,1.79
9217.00,1.79
9216.00,1.79
9215.00,1.78
9214.00,1.78
9213.00,1.78
9212.00,1.78
9211.00,1.78
9210.00,1.78
9209.00,1.79
9208.00,1.79
9207.00,1.79
9206.00,1.79
9205.00,1.79
9204.00,1.79
9203.00,1.79
9202.00,1.80
9201.00,1.80
9200.00,1.80
9199.00,1.80
9198.00,1.80
9197.00,1.80
9196.00,1.80
9195.00,1.80
9194.00,1.80
9193.00,1.80
9192.00,1.80
9191.00,1.80
9190.00,1.80
9189.00,1.81
9188.00,1.81
9187.00,1.81
9186.00,1.81
9185.00,1.82
9184.00,1.82
9183.00,1.82
9182.00,1.82
9181.00,1.82
9180.00,1.82
9179.00,1.82
9178.00,1.82
9177.00,1.82
9176.00,1.82
9175.00,1.82
9174.00,1.82
9173.00,1.82
9172.00,1.82
9171.00,1.82
9170.00,1.81
9169.00,1.81
9168.00,1.81
9167.00,1.81
9166.00,1.81
9165.00,1.81
9164.00,1.81
9163.00,1.81
9162.00,1.81
9161.00,1.81
9160.00,1.81
9159.00,1.81
9158.00,1.81
9157.00,1.81
9156.00,1.81
9155.00,1.81
9154.00,1.81
9153.00,1.81
9152.00,1.81
9151.00,1.81
9150.00,1.81
9149.00,1.81
9148.00,1.81
9147.00,1.82
9146.00,1.82
9145.00,1.82
9144.00,1.82
9143.00,1.83
9142.00,1.83
9141.00,1.83
9140.00,1.83
9139.00,1.83
9138.00,1.84
9137.00,1.84
9136.00,1.84
9135.00,1.84
9134.00,1.84
9133.00,1.84
9132.00,1.84
9131.00,1.84
9130.00,1.84
9129.00,1.84
9128.00,1.84
9127.00,1.84
9126.00,1.84
9125.00,1.84
9124.00,1.84
9123.00,1.84
9122.00,1.84
9121.00,1.84
9120.00,1.84
9119.00,1.84
9118.00,1.83
9117.00,1.83
9116.00,1.83
9115.00,1.82
9114.00,1.82
9113.00,1.81
9112.00,1.81
9111.00,1.81
9110.00,1.80
9109.00,1.80
9108.00,1.79
9107.00,1.79
9106.00,1.78
9105.00,1.78
9104.00,1.78
9103.00,1.77
9102.00,1.77
9101.00,1.77
9100.00,1.76
9099.00,1.76
9098.00,1.76
9097.00,1.76
9096.00,1.76
9095.00,1.75
9094.00,1.75
9093.00,1.76
9092.00,1.76
9091.00,1.76
9090.00,1.76
9089.00,1.77
9088.00,1.77
9087.00,1.77
9086.00,1.78
9085.00,1.78
9084.00,1.79
9083.00,1.79
9082.00,1.80
9081.00,1.80
9080.00,1.81
9079.00,1.81
9078.00,1.81
9077.00,1.82
9076.00,1.82
9075.00,1.83
9074.00,1.83
9073.00,1.83
9072.00,1.83
9071.00,1.83
9070.00,1.83
9069.00,1.83
9068.00,1.83
9067.00,1.83
9066.00,1.83
9065.00,1.82
9064.00,1.82
9063.00,1.82
9062.00,1.81
9061.00,1.81
9060.00,1.80
9059.00,1.80
9058.00,1.79
9057.00,1.79
9056.00,1.79
9055.00,1.78
9054.00,1.78
9053.00,1.78
9052.00,1.77
9051.00,1.77
9050.00,1.77
9049.00,1.77
9048.00,1.76
9047.00,1.76
9046.00,1.76
9045.00,1.76
9044.00,1.76
9043.00,1.76
9042.00,1.75
9041.00,1.75
9040.00,1.76
9039.00,1.76
9038.00,1.76
9037.00,1.76
9036.00,1.76
9035.00,1.77
9034.00,1.77
9033.00,1.77
9032.00,1.77
9031.00,1.78
9030.00,1.78
9029.00,1.78
9028.00,1.78
9027.00,1.78
9026.00,1.78
9025.00,1.78
9024.00,1.78
9023.00,1.78
9022.00,1.78
9021.00,1.79
9020.00,1.79
9019.00,1.79
9018.00,1.79
9017.00,1.79
9016.00,1.80
9015.00,1.80
9014.00,1.80
9013.00,1.81
9012.00,1.81
9011.00,1.81
9010.00,1.81
9009.00,1.82
9008.00,1.82
9007.00,1.82
9006.00,1.82
9005.00,1.83
9004.00,1.83
9003.00,1.83
9002.00,1.83
9001.00,1.84
9000.00,1.84
8999.00,1.85
8998.00,1.85
8997.00,1.85
8996.00,1.86
8995.00,1.86
8994.00,1.87
8993.00,1.87
8992.00,1.88
8991.00,1.88
8990.00,1.88
8989.00,1.89
8988.00,1.89
8987.00,1.89
8986.00,1.90
8985.00,1.90
8984.00,1.90
8983.00,1.90
8982.00,1.91
8981.00,1.91
8980.00,1.91
8979.00,1.91
8978.00,1.92
8977.00,1.92
8976.00,1.92
8975.00,1.92
8974.00,1.92
8973.00,1.92
8972.00,1.92
8971.00,1.92
8970.00,1.92
8969.00,1.92
8968.00,1.92
8967.00,1.92
8966.00,1.92
8965.00,1.91
8964.00,1.91
8963.00,1.91
8962.00,1.91
8961.00,1.91
8960.00,1.90
8959.00,1.90
8958.00,1.90
8957.00,1.90
8956.00,1.89
8955.00,1.89
8954.00,1.89
8953.00,1.89
8952.00,1.89
8951.00,1.88
8950.00,1.88
8949.00,1.88
8948.00,1.88
8947.00,1.88
8946.00,1.89
8945.00,1.89
8944.00,1.89
8943.00,1.89
8942.00,1.89
8941.00,1.89
8940.00,1.89
8939.00,1.89
8938.00,1.89
8937.00,1.90
8936.00,1.90
8935.00,1.90
8934.00,1.90
8933.00,1.91
8932.00,1.91
8931.00,1.91
8930.00,1.91
8929.00,1.91
8928.00,1.91
8927.00,1.92
8926.00,1.92
8925.00,1.92
8924.00,1.92
8923.00,1.92
8922.00,1.92
8921.00,1.92
8920.00,1.92
8919.00,1.91
8918.00,1.91
8917.00,1.91
8916.00,1.91
8915.00,1.91
8914.00,1.91
8913.00,1.90
8912.00,1.90
8911.00,1.90
8910.00,1.90
8909.00,1.90
8908.00,1.90
8907.00,1.89
8906.00,1.89
8905.00,1.89
8904.00,1.89
8903.00,1.89
8902.00,1.89
8901.00,1.89
8900.00,1.89
8899.00,1.89
8898.00,1.89
8897.00,1.89
8896.00,1.89
8895.00,1.89
8894.00,1.89
8893.00,1.89
8892.00,1.89
8891.00,1.89
8890.00,1.90
8889.00,1.90
8888.00,1.90
8887.00,1.90
8886.00,1.90
8885.00,1.90
8884.00,1.89
8883.00,1.89
8882.00,1.89
8881.00,1.89
8880.00,1.89
8879.00,1.89
8878.00,1.89
8877.00,1.89
8876.00,1.89
8875.00,1.89
8874.00,1.88
8873.00,1.88
8872.00,1.88
8871.00,1.88
8870.00,1.88
8869.00,1.87
8868.00,1.87
8867.00,1.87
8866.00,1.86
8865.00,1.86
8864.00,1.85
8863.00,1.85
8862.00,1.85
8861.00,1.84
8860.00,1.84
8859.00,1.84
8858.00,1.83
8857.00,1.83
8856.00,1.83
8855.00,1.83
8854.00,1.82
8853.00,1.82
8852.00,1.82
8851.00,1.82
8850.00,1.81
8849.00,1.81
8848.00,1.81
8847.00,1.81
8846.00,1.81
8845.00,1.81
8844.00,1.81
8843.00,1.81
8842.00,1.81
8841.00,1.81
8840.00,1.81
8839.00,1.81
8838.00,1.81
8837.00,1.81
8836.00,1.82
8835.00,1.82
8834.00,1.82
8833.00,1.82
8832.00,1.82
8831.00,1.82
8830.00,1.82
8829.00,1.83
8828.00,1.83
8827.00,1.83
8826.00,1.83
8825.00,1.83
8824.00,1.82
8823.00,1.82
8822.00,1.82
8821.00,1.82
8820.00,1.82
8819.00,1.81
8818.00,1.81
8817.00,1.81
8816.00,1.81
8815.00,1.81
8814.00,1.81
8813.00,1.80
8812.00,1.80
8811.00,1.80
8810.00,1.80
8809.00,1.80
8808.00,1.79
8807.00,1.79
8806.00,1.79
8805.00,1.79
8804.00,1.79
8803.00,1.79
8802.00,1.79
8801.00,1.79
8800.00,1.79
8799.00,1.79
8798.00,1.79
8797.00,1.79
8796.00,1.79
8795.00,1.79
8794.00,1.80
8793.00,1.80
8792.00,1.80
8791.00,1.80
8790.00,1.80
8789.00,1.80
8788.00,1.80
8787.00,1.81
8786.00,1.81
8785.00,1.81
8784.00,1.81
8783.00,1.81
8782.00,1.81
8781.00,1.81
8780.00,1.80
8779.00,1.80
8778.00,1.80
8777.00,1.80
8776.00,1.80
8775.00,1.80
8774.00,1.80
8773.00,1.80
8772.00,1.79
8771.00,1.79
8770.00,1.79
8769.00,1.79
8768.00,1.78
8767.00,1.78
8766.00,1.78
8765.00,1.78
8764.00,1.77
8763.00,1.77
8762.00,1.77
8761.00,1.76
8760.00,1.76
8759.00,1.76
8758.00,1.76
8757.00,1.75
8756.00,1.75
8755.00,1.75
8754.00,1.75
8753.00,1.74
8752.00,1.74
8751.00,1.74
8750.00,1.74
8749.00,1.73
8748.00,1.73
8747.00,1.73
8746.00,1.72
8745.00,1.72
8744.00,1.72
8743.00,1.71
8742.00,1.71
8741.00,1.70
8740.00,1.70
8739.00,1.69
8738.00,1.69
8737.00,1.69
8736.00,1.69
8735.00,1.69
8734.00,1.69
8733.00,1.69
8732.00,1.69
8731.00,1.69
8730.00,1.69
8729.00,1.69
8728.00,1.69
8727.00,1.70
8726.00,1.70
8725.00,1.70
8724.00,1.70
8723.00,1.71
8722.00,1.71
8721.00,1.72
8720.00,1.72
8719.00,1.73
8718.00,1.73
8717.00,1.74
8716.00,1.74
8715.00,1.75
8714.00,1.75
8713.00,1.76
8712.00,1.76
8711.00,1.77
8710.00,1.77
8709.00,1.77
8708.00,1.77
8707.00,1.77
8706.00,1.78
8705.00,1.78
8704.00,1.78
8703.00,1.77
8702.00,1.77
8701.00,1.77
8700.00,1.77
8699.00,1.77
8698.00,1.76
8697.00,1.76
8696.00,1.76
8695.00,1.75
8694.00,1.75
8693.00,1.75
8692.00,1.74
8691.00,1.74
8690.00,1.74
8689.00,1.73
8688.00,1.73
8687.00,1.73
8686.00,1.73
8685.00,1.72
8684.00,1.72
8683.00,1.72
8682.00,1.72
8681.00,1.72
8680.00,1.72
8679.00,1.72
8678.00,1.72
8677.00,1.72
8676.00,1.72
8675.00,1.72
8674.00,1.73
8673.00,1.73
8672.00,1.73
8671.00,1.73
8670.00,1.74
8669.00,1.74
8668.00,1.75
8667.00,1.75
8666.00,1.75
8665.00,1.76
8664.00,1.76
8663.00,1.77
8662.00,1.77
8661.00,1.77
8660.00,1.77
8659.00,1.78
8658.00,1.78
8657.00,1.78
8656.00,1.78
8655.00,1.79
8654.00,1.79
8653.00,1.79
8652.00,1.79
8651.00,1.80
8650.00,1.80
8649.00,1.80
8648.00,1.80
8647.00,1.80
8646.00,1.80
8645.00,1.80
8644.00,1.80
8643.00,1.80
8642.00,1.80
8641.00,1.80
8640.00,1.80
8639.00,1.80
8638.00,1.80
8637.00,1.80
8636.00,1.80
8635.00,1.80
8634.00,1.80
8633.00,1.80
8632.00,1.80
8631.00,1.80
8630.00,1.80
8629.00,1.80
8628.00,1.80
8627.00,1.80
8626.00,1.80
8625.00,1.80
8624.00,1.80
8623.00,1.80
8622.00,1.80
8621.00,1.80
8620.00,1.80
8619.00,1.80
8618.00,1.80
8617.00,1.81
8616.00,1.81
8615.00,1.81
8614.00,1.82
8613.00,1.82
8612.00,1.82
8611.00,1.82
8610.00,1.82
8609.00,1.83
8608.00,1.83
8607.00,1.83
8606.00,1.84
8605.00,1.84
8604.00,1.85
8603.00,1.85
8602.00,1.85
8601.00,1.86
8600.00,1.86
8599.00,1.87
8598.00,1.87
8597.00,1.88
8596.00,1.88
8595.00,1.88
8594.00,1.89
8593.00,1.89
8592.00,1.89
8591.00,1.89
8590.00,1.89
8589.00,1.89
8588.00,1.90
8587.00,1.90
8586.00,1.90
8585.00,1.90
8584.00,1.90
8583.00,1.90
8582.00,1.90
8581.00,1.90
8580.00,1.89
8579.00,1.89
8578.00,1.89
8577.00,1.89
8576.00,1.88
8575.00,1.88
8574.00,1.87
8573.00,1.87
8572.00,1.87
8571.00,1.86
8570.00,1.86
8569.00,1.85
8568.00,1.85
8567.00,1.85
8566.00,1.84
8565.00,1.84
8564.00,1.84
8563.00,1.84
8562.00,1.83
8561.00,1.83
8560.00,1.83
8559.00,1.83
8558.00,1.82
8557.00,1.82
8556.00,1.82
8555.00,1.82
8554.00,1.82
8553.00,1.81
8552.00,1.81
8551.00,1.81
8550.00,1.81
8549.00,1.81
8548.00,1.81
8547.00,1.81
8546.00,1.81
8545.00,1.81
8544.00,1.81
8543.00,1.82
8542.00,1.82
8541.00,1.82
8540.00,1.82
8539.00,1.82
8538.00,1.82
8537.00,1.82
8536.00,1.82
8535.00,1.82
8534.00,1.83
8533.00,1.83
8532.00,1.83
8531.00,1.83
8530.00,1.83
8529.00,1.83
8528.00,1.83
8527.00,1.83
8526.00,1.83
8525.00,1.84
8524.00,1.84
8523.00,1.84
8522.00,1.84
8521.00,1.84
8520.00,1.84
8519.00,1.83
8518.00,1.83
8517.00,1.83
8516.00,1.83
8515.00,1.83
8514.00,1.83
8513.00,1.82
8512.00,1.82
8511.00,1.82
8510.00,1.82
8509.00,1.82
8508.00,1.81
8507.00,1.81
8506.00,1.81
8505.00,1.81
8504.00,1.81
8503.00,1.80
8502.00,1.80
8501.00,1.80
8500.00,1.79
8499.00,1.79
8498.00,1.79
8497.00,1.79
8496.00,1.78
8495.00,1.78
8494.00,1.78
8493.00,1.78
8492.00,1.78
8491.00,1.77
8490.00,1.77
8489.00,1.77
8488.00,1.77
8487.00,1.77
8486.00,1.77
8485.00,1.77
8484.00,1.77
8483.00,1.77
8482.00,1.77
8481.00,1.77
8480.00,1.77
8479.00,1.77
8478.00,1.77
8477.00,1.77
8476.00,1.77
8475.00,1.78
8474.00,1.78
8473.00,1.78
8472.00,1.78
8471.00,1.78
8470.00,1.78
8469.00,1.78
8468.00,1.78
8467.00,1.78
8466.00,1.78
8465.00,1.78
8464.00,1.78
8463.00,1.78
8462.00,1.78
8461.00,1.78
8460.00,1.78
8459.00,1.78
8458.00,1.78
8457.00,1.78
8456.00,1.78
8455.00,1.78
8454.00,1.77
8453.00,1.77
8452.00,1.77
8451.00,1.77
8450.00,1.77
8449.00,1.76
8448.00,1.76
8447.00,1.76
8446.00,1.76
8445.00,1.76
8444.00,1.76
8443.00,1.76
8442.00,1.76
8441.00,1.76
8440.00,1.76
8439.00,1.76
8438.00,1.76
8437.00,1.75
8436.00,1.75
8435.00,1.75
8434.00,1.75
8433.00,1.75
8432.00,1.75
8431.00,1.75
8430.00,1.75
8429.00,1.75
8428.00,1.74
8427.00,1.74
8426.00,1.74
8425.00,1.74
8424.00,1.74
8423.00,1.74
8422.00,1.74
8421.00,1.74
8420.00,1.74
8419.00,1.74
8418.00,1.74
8417.00,1.74
8416.00,1.74
8415.00,1.74
8414.00,1.74
8413.00,1.74
8412.00,1.74
8411.00,1.73
8410.00,1.73
8409.00,1.73
8408.00,1.73
8407.00,1.73
8406.00,1.73
8405.00,1.73
8404.00,1.73
8403.00,1.73
8402.00,1.73
8401.00,1.73
8400.00,1.73
8399.00,1.73
8398.00,1.73
8397.00,1.73
8396.00,1.73
8395.00,1.73
8394.00,1.73
8393.00,1.73
8392.00,1.73
8391.00,1.73
8390.00,1.74
8389.00,1.74
8388.00,1.74
8387.00,1.75
8386.00,1.75
8385.00,1.76
8384.00,1.77
8383.00,1.78
8382.00,1.78
8381.00,1.79
8380.00,1.80
8379.00,1.81
8378.00,1.82
8377.00,1.83
8376.00,1.84
8375.00,1.85
8374.00,1.85
8373.00,1.86
8372.00,1.87
8371.00,1.88
8370.00,1.88
8369.00,1.89
8368.00,1.89
8367.00,1.90
8366.00,1.90
8365.00,1.91
8364.00,1.91
8363.00,1.91
8362.00,1.92
8361.00,1.92
8360.00,1.92
8359.00,1.92
8358.00,1.92
8357.00,1.92
8356.00,1.91
8355.00,1.91
8354.00,1.91
8353.00,1.90
8352.00,1.90
8351.00,1.89
8350.00,1.89
8349.00,1.88
8348.00,1.88
8347.00,1.87
8346.00,1.87
8345.00,1.86
8344.00,1.86
8343.00,1.86
8342.00,1.85
8341.00,1.85
8340.00,1.85
8339.00,1.85
8338.00,1.84
8337.00,1.84
8336.00,1.84
8335.00,1.84
8334.00,1.84
8333.00,1.84
8332.00,1.83
8331.00,1.83
8330.00,1.83
8329.00,1.83
8328.00,1.83
8327.00,1.83
8326.00,1.83
8325.00,1.84
8324.00,1.84
8323.00,1.84
8322.00,1.84
8321.00,1.85
8320.00,1.85
8319.00,1.85
8318.00,1.85
8317.00,1.85
8316.00,1.85
8315.00,1.85
8314.00,1.85
8313.00,1.85
8312.00,1.84
8311.00,1.84
8310.00,1.84
8309.00,1.84
8308.00,1.83
8307.00,1.83
8306.00,1.83
8305.00,1.82
8304.00,1.82
8303.00,1.82
8302.00,1.82
8301.00,1.81
8300.00,1.81
8299.00,1.81
8298.00,1.80
8297.00,1.80
8296.00,1.79
8295.00,1.79
8294.00,1.78
8293.00,1.78
8292.00,1.78
8291.00,1.77
8290.00,1.77
8289.00,1.77
8288.00,1.77
8287.00,1.77
8286.00,1.77
8285.00,1.77
8284.00,1.77
8283.00,1.77
8282.00,1.77
8281.00,1.77
8280.00,1.78
8279.00,1.78
8278.00,1.78
8277.00,1.78
8276.00,1.78
8275.00,1.79
8274.00,1.79
8273.00,1.79
8272.00,1.79
8271.00,1.80
8270.00,1.80
8269.00,1.81
8268.00,1.81
8267.00,1.81
8266.00,1.82
8265.00,1.82
8264.00,1.83
8263.00,1.83
8262.00,1.83
8261.00,1.83
8260.00,1.84
8259.00,1.84
8258.00,1.84
8257.00,1.84
8256.00,1.84
8255.00,1.84
8254.00,1.84
8253.00,1.85
8252.00,1.85
8251.00,1.85
8250.00,1.85
8249.00,1.85
8248.00,1.85
8247.00,1.85
8246.00,1.85
8245.00,1.85
8244.00,1.85
8243.00,1.85
8242.00,1.85
8241.00,1.85
8240.00,1.85
8239.00,1.85
8238.00,1.85
8237.00,1.85
8236.00,1.85
8235.00,1.85
8234.00,1.85
8233.00,1.85
8232.00,1.85
8231.00,1.85
8230.00,1.85
8229.00,1.85
8228.00,1.85
8227.00,1.85
8226.00,1.85
8225.00,1.85
8224.00,1.85
8223.00,1.85
8222.00,1.85
8221.00,1.85
8220.00,1.85
8219.00,1.85
8218.00,1.85
8217.00,1.85
8216.00,1.85
8215.00,1.85
8214.00,1.85
8213.00,1.85
8212.00,1.85
8211.00,1.85
8210.00,1.85
8209.00,1.85
8208.00,1.85
8207.00,1.85
8206.00,1.85
8205.00,1.85
8204.00,1.85
8203.00,1.85
8202.00,1.85
8201.00,1.85
8200.00,1.84
8199.00,1.84
8198.00,1.84
8197.00,1.83
8196.00,1.83
8195.00,1.83
8194.00,1.82
8193.00,1.82
8192.00,1.81
8191.00,1.80
8190.00,1.80
8189.00,1.79
8188.00,1.79
8187.00,1.78
8186.00,1.78
8185.00,1.77
8184.00,1.77
8183.00,1.76
8182.00,1.76
8181.00,1.76
8180.00,1.76
8179.00,1.75
8178.00,1.75
8177.00,1.75
8176.00,1.75
8175.00,1.75
8174.00,1.75
8173.00,1.75
8172.00,1.75
8171.00,1.76
8170.00,1.76
8169.00,1.76
8168.00,1.77
8167.00,1.77
8166.00,1.78
8165.00,1.78
8164.00,1.79
8163.00,1.80
8162.00,1.80
8161.00,1.81
8160.00,1.81
8159.00,1.82
8158.00,1.83
8157.00,1.83
8156.00,1.84
8155.00,1.84
8154.00,1.85
8153.00,1.86
8152.00,1.86
8151.00,1.87
8150.00,1.87
8149.00,1.88
8148.00,1.88
8147.00,1.88
8146.00,1.89
8145.00,1.89
8144.00,1.89
8143.00,1.89
8142.00,1.89
8141.00,1.89
8140.00,1.89
8139.00,1.89
8138.00,1.89
8137.00,1.89
8136.00,1.89
8135.00,1.89
8134.00,1.88
8133.00,1.88
8132.00,1.88
8131.00,1.87
8130.00,1.87
8129.00,1.87
8128.00,1.86
8127.00,1.86
8126.00,1.85
8125.00,1.85
8124.00,1.84
8123.00,1.84
8122.00,1.83
8121.00,1.83
8120.00,1.83
8119.00,1.83
8118.00,1.82
8117.00,1.82
8116.00,1.82
8115.00,1.82
8114.00,1.82
8113.00,1.82
8112.00,1.82
8111.00,1.82
8110.00,1.83
8109.00,1.83
8108.00,1.83
8107.00,1.84
8106.00,1.84
8105.00,1.84
8104.00,1.85
8103.00,1.85
8102.00,1.86
8101.00,1.86
8100.00,1.86
8099.00,1.87
8098.00,1.87
8097.00,1.87
8096.00,1.88
8095.00,1.88
8094.00,1.88
8093.00,1.88
8092.00,1.88
8091.00,1.88
8090.00,1.88
8089.00,1.88
8088.00,1.88
8087.00,1.87
8086.00,1.87
8085.00,1.87
8084.00,1.86
8083.00,1.86
8082.00,1.86
8081.00,1.85
8080.00,1.85
8079.00,1.84
8078.00,1.84
8077.00,1.83
8076.00,1.83
8075.00,1.82
8074.00,1.82
8073.00,1.81
8072.00,1.81
8071.00,1.81
8070.00,1.80
8069.00,1.80
8068.00,1.80
8067.00,1.80
8066.00,1.79
8065.00,1.79
8064.00,1.79
8063.00,1.79
8062.00,1.79
8061.00,1.79
8060.00,1.79
8059.00,1.79
8058.00,1.80
8057.00,1.80
8056.00,1.80
8055.00,1.80
8054.00,1.80
8053.00,1.80
8052.00,1.81
8051.00,1.81
8050.00,1.81
8049.00,1.81
8048.00,1.82
8047.00,1.82
8046.00,1.82
8045.00,1.82
8044.00,1.83
8043.00,1.83
8042.00,1.83
8041.00,1.83
8040.00,1.83
8039.00,1.84
8038.00,1.84
8037.00,1.84
8036.00,1.84
8035.00,1.84
8034.00,1.84
8033.00,1.85
8032.00,1.85
8031.00,1.85
8030.00,1.85
8029.00,1.85
8028.00,1.85
8027.00,1.85
8026.00,1.85
8025.00,1.85
8024.00,1.85
8023.00,1.85
8022.00,1.85
8021.00,1.85
8020.00,1.85
8019.00,1.85
8018.00,1.85
8017.00,1.85
8016.00,1.85
8015.00,1.85
8014.00,1.84
8013.00,1.84
8012.00,1.84
8011.00,1.84
8010.00,1.84
8009.00,1.84
8008.00,1.84
8007.00,1.84
8006.00,1.84
8005.00,1.84
8004.00,1.84
8003.00,1.84
8002.00,1.84
8001.00,1.84
8000.00,1.84
7999.00,1.84
7998.00,1.84
7997.00,1.84
7996.00,1.84
7995.00,1.84
7994.00,1.84
7993.00,1.84
7992.00,1.84
7991.00,1.84
7990.00,1.84
7989.00,1.84
7988.00,1.84
7987.00,1.84
7986.00,1.83
7985.00,1.83
7984.00,1.83
7983.00,1.83
7982.00,1.83
7981.00,1.83
7980.00,1.83
7979.00,1.83
7978.00,1.82
7977.00,1.82
7976.00,1.82
7975.00,1.82
7974.00,1.82
7973.00,1.82
7972.00,1.82
7971.00,1.82
7970.00,1.83
7969.00,1.83
7968.00,1.83
7967.00,1.83
7966.00,1.84
7965.00,1.84
7964.00,1.84
7963.00,1.85
7962.00,1.85
7961.00,1.85
7960.00,1.86
7959.00,1.86
7958.00,1.87
7957.00,1.87
7956.00,1.87
7955.00,1.88
7954.00,1.88
7953.00,1.89
7952.00,1.89
7951.00,1.90
7950.00,1.90
7949.00,1.91
7948.00,1.91
7947.00,1.91
7946.00,1.92
7945.00,1.92
7944.00,1.92
7943.00,1.92
7942.00,1.93
7941.00,1.93
7940.00,1.93
7939.00,1.93
7938.00,1.93
7937.00,1.93
7936.00,1.93
7935.00,1.93
7934.00,1.93
7933.00,1.93
7932.00,1.93
7931.00,1.93
7930.00,1.93
7929.00,1.93
7928.00,1.93
7927.00,1.93
7926.00,1.93
7925.00,1.94
7924.00,1.94
7923.00,1.94
7922.00,1.94
7921.00,1.94
7920.00,1.94
7919.00,1.95
7918.00,1.95
7917.00,1.95
7916.00,1.95
7915.00,1.95
7914.00,1.95
7913.00,1.96
7912.00,1.96
7911.00,1.96
7910.00,1.96
7909.00,1.96
7908.00,1.96
7907.00,1.96
7906.00,1.96
7905.00,1.96
7904.00,1.96
7903.00,1.96
7902.00,1.95
7901.00,1.95
7900.00,1.95
7899.00,1.95
7898.00,1.94
7897.00,1.94
7896.00,1.93
7895.00,1.93
7894.00,1.92
7893.00,1.92
7892.00,1.91
7891.00,1.91
7890.00,1.91
7889.00,1.90
7888.00,1.90
7887.00,1.90
7886.00,1.89
7885.00,1.89
7884.00,1.89
7883.00,1.89
7882.00,1.89
7881.00,1.89
7880.00,1.89
7879.00,1.89
7878.00,1.89
7877.00,1.89
7876.00,1.89
7875.00,1.89
7874.00,1.89
7873.00,1.90
7872.00,1.90
7871.00,1.90
7870.00,1.90
7869.00,1.91
7868.00,1.91
7867.00,1.91
7866.00,1.91
7865.00,1.91
7864.00,1.92
7863.00,1.92
7862.00,1.92
7861.00,1.92
7860.00,1.92
7859.00,1.92
7858.00,1.92
7857.00,1.92
7856.00,1.92
7855.00,1.92
7854.00,1.92
7853.00,1.92
7852.00,1.92
7851.00,1.92
7850.00,1.91
7849.00,1.91
7848.00,1.91
7847.00,1.91
7846.00,1.91
7845.00,1.91
7844.00,1.91
7843.00,1.91
7842.00,1.91
7841.00,1.91
7840.00,1.91
7839.00,1.91
7838.00,1.91
7837.00,1.91
7836.00,1.91
7835.00,1.91
7834.00,1.92
7833.00,1.92
7832.00,1.92
7831.00,1.92
7830.00,1.92
7829.00,1.93
7828.00,1.93
7827.00,1.93
7826.00,1.93
7825.00,1.94
7824.00,1.94
7823.00,1.94
7822.00,1.95
7821.00,1.95
7820.00,1.95
7819.00,1.95
7818.00,1.96
7817.00,1.96
7816.00,1.96
7815.00,1.96
7814.00,1.96
7813.00,1.96
7812.00,1.96
7811.00,1.96
7810.00,1.96
7809.00,1.96
7808.00,1.96
7807.00,1.96
7806.00,1.96
7805.00,1.96
7804.00,1.95
7803.00,1.95
7802.00,1.95
7801.00,1.95
7800.00,1.95
7799.00,1.94
7798.00,1.94
7797.00,1.94
7796.00,1.94
7795.00,1.93
7794.00,1.93
7793.00,1.93
7792.00,1.92
7791.00,1.92
7790.00,1.92
7789.00,1.92
7788.00,1.92
7787.00,1.92
7786.00,1.92
7785.00,1.92
7784.00,1.92
7783.00,1.92
7782.00,1.92
7781.00,1.92
7780.00,1.92
7779.00,1.92
7778.00,1.92
7777.00,1.92
7776.00,1.92
7775.00,1.92
7774.00,1.92
7773.00,1.92
7772.00,1.92
7771.00,1.93
7770.00,1.93
7769.00,1.93
7768.00,1.93
7767.00,1.93
7766.00,1.93
7765.00,1.93
7764.00,1.93
7763.00,1.93
7762.00,1.93
7761.00,1.93
7760.00,1.93
7759.00,1.93
7758.00,1.93
7757.00,1.93
7756.00,1.93
7755.00,1.92
7754.00,1.92
7753.00,1.92
7752.00,1.92
7751.00,1.92
7750.00,1.91
7749.00,1.91
7748.00,1.91
7747.00,1.91
7746.00,1.90
7745.00,1.90
7744.00,1.90
7743.00,1.89
7742.00,1.89
7741.00,1.89
7740.00,1.89
7739.00,1.88
7738.00,1.88
7737.00,1.88
7736.00,1.88
7735.00,1.87
7734.00,1.87
7733.00,1.87
7732.00,1.87
7731.00,1.86
7730.00,1.86
7729.00,1.86
7728.00,1.86
7727.00,1.86
7726.00,1.86
7725.00,1.85
7724.00,1.85
7723.00,1.85
7722.00,1.85
7721.00,1.86
7720.00,1.86
7719.00,1.86
7718.00,1.86
7717.00,1.86
7716.00,1.87
7715.00,1.87
7714.00,1.87
7713.00,1.88
7712.00,1.88
7711.00,1.88
7710.00,1.89
7709.00,1.89
7708.00,1.89
7707.00,1.89
7706.00,1.90
7705.00,1.90
7704.00,1.90
7703.00,1.91
7702.00,1.91
7701.00,1.91
7700.00,1.92
7699.00,1.92
7698.00,1.92
7697.00,1.92
7696.00,1.92
7695.00,1.93
7694.00,1.93
7693.00,1.93
7692.00,1.93
7691.00,1.93
7690.00,1.93
7689.00,1.93
7688.00,1.93
7687.00,1.93
7686.00,1.93
7685.00,1.93
7684.00,1.93
7683.00,1.93
7682.00,1.93
7681.00,1.93
7680.00,1.93
7679.00,1.93
7678.00,1.93
7677.00,1.93
7676.00,1.94
7675.00,1.94
7674.00,1.94
7673.00,1.94
7672.00,1.94
7671.00,1.94
7670.00,1.95
7669.00,1.95
7668.00,1.95
7667.00,1.95
7666.00,1.95
7665.00,1.96
7664.00,1.96
7663.00,1.96
7662.00,1.97
7661.00,1.97
7660.00,1.97
7659.00,1.97
7658.00,1.97
7657.00,1.98
7656.00,1.98
7655.00,1.98
7654.00,1.98
7653.00,1.98
7652.00,1.98
7651.00,1.98
7650.00,1.98
7649.00,1.97
7648.00,1.97
7647.00,1.97
7646.00,1.97
7645.00,1.97
7644.00,1.97
7643.00,1.97
7642.00,1.96
7641.00,1.96
7640.00,1.96
7639.00,1.96
7638.00,1.95
7637.00,1.95
7636.00,1.95
7635.00,1.94
7634.00,1.94
7633.00,1.94
7632.00,1.93
7631.00,1.93
7630.00,1.92
7629.00,1.92
7628.00,1.92
7627.00,1.91
7626.00,1.91
7625.00,1.91
7624.00,1.91
7623.00,1.90
7622.00,1.90
7621.00,1.90
7620.00,1.90
7619.00,1.90
7618.00,1.89
7617.00,1.89
7616.00,1.89
7615.00,1.89
7614.00,1.89
7613.00,1.89
7612.00,1.89
7611.00,1.89
7610.00,1.89
7609.00,1.89
7608.00,1.89
7607.00,1.89
7606.00,1.89
7605.00,1.89
7604.00,1.89
7603.00,1.89
7602.00,1.89
7601.00,1.89
7600.00,1.89
7599.00,1.90
7598.00,1.90
7597.00,1.90
7596.00,1.90
7595.00,1.90
7594.00,1.90
7593.00,1.90
7592.00,1.90
7591.00,1.90
7590.00,1.91
7589.00,1.91
7588.00,1.91
7587.00,1.91
7586.00,1.91
7585.00,1.91
7584.00,1.91
7583.00,1.92
7582.00,1.92
7581.00,1.92
7580.00,1.92
7579.00,1.92
7578.00,1.92
7577.00,1.93
7576.00,1.93
7575.00,1.93
7574.00,1.93
7573.00,1.93
7572.00,1.93
7571.00,1.93
7570.00,1.93
7569.00,1.93
7568.00,1.93
7567.00,1.93
7566.00,1.93
7565.00,1.93
7564.00,1.93
7563.00,1.93
7562.00,1.93
7561.00,1.93
7560.00,1.93
7559.00,1.93
7558.00,1.93
7557.00,1.93
7556.00,1.92
7555.00,1.92
7554.00,1.92
7553.00,1.92
7552.00,1.92
7551.00,1.92
7550.00,1.92
7549.00,1.92
7548.00,1.91
7547.00,1.91
7546.00,1.91
7545.00,1.91
7544.00,1.91
7543.00,1.91
7542.00,1.91
7541.00,1.91
7540.00,1.91
7539.00,1.91
7538.00,1.91
7537.00,1.91
7536.00,1.91
7535.00,1.91
7534.00,1.91
7533.00,1.91
7532.00,1.91
7531.00,1.91
7530.00,1.91
7529.00,1.91
7528.00,1.91
7527.00,1.91
7526.00,1.91
7525.00,1.91
7524.00,1.91
7523.00,1.91
7522.00,1.91
7521.00,1.91
7520.00,1.91
7519.00,1.91
7518.00,1.91
7517.00,1.91
7516.00,1.91
7515.00,1.91
7514.00,1.90
7513.00,1.90
7512.00,1.90
7511.00,1.90
7510.00,1.90
7509.00,1.90
7508.00,1.90
7507.00,1.90
7506.00,1.90
7505.00,1.90
7504.00,1.90
7503.00,1.90
7502.00,1.90
7501.00,1.89
7500.00,1.89
7499.00,1.89
7498.00,1.89
7497.00,1.89
7496.00,1.90
7495.00,1.90
7494.00,1.90
7493.00,1.90
7492.00,1.90
7491.00,1.90
7490.00,1.90
7489.00,1.90
7488.00,1.90
7487.00,1.91
7486.00,1.91
7485.00,1.91
7484.00,1.91
7483.00,1.91
7482.00,1.91
7481.00,1.91
7480.00,1.91
7479.00,1.92
7478.00,1.92
7477.00,1.92
7476.00,1.92
7475.00,1.92
7474.00,1.92
7473.00,1.92
7472.00,1.92
7471.00,1.92
7470.00,1.92
7469.00,1.92
7468.00,1.92
7467.00,1.92
7466.00,1.92
7465.00,1.91
7464.00,1.91
7463.00,1.91
7462.00,1.91
7461.00,1.91
7460.00,1.91
7459.00,1.91
7458.00,1.91
7457.00,1.91
7456.00,1.90
7455.00,1.90
7454.00,1.90
7453.00,1.90
7452.00,1.90
7451.00,1.90
7450.00,1.90
7449.00,1.90
7448.00,1.90
7447.00,1.90
7446.00,1.90
7445.00,1.90
7444.00,1.90
7443.00,1.90
7442.00,1.91
7441.00,1.91
7440.00,1.91
7439.00,1.91
7438.00,1.91
7437.00,1.91
7436.00,1.91
7435.00,1.91
7434.00,1.91
7433.00,1.91
7432.00,1.91
7431.00,1.91
7430.00,1.91
7429.00,1.90
7428.00,1.90
7427.00,1.90
7426.00,1.90
7425.00,1.90
7424.00,1.90
7423.00,1.90
7422.00,1.89
7421.00,1.89
7420.00,1.89
7419.00,1.89
7418.00,1.89
7417.00,1.88
7416.00,1.88
7415.00,1.88
7414.00,1.88
7413.00,1.88
7412.00,1.88
7411.00,1.87
7410.00,1.87
7409.00,1.87
7408.00,1.87
7407.00,1.87
7406.00,1.88
7405.00,1.88
7404.00,1.88
7403.00,1.88
7402.00,1.89
7401.00,1.89
7400.00,1.89
7399.00,1.90
7398.00,1.90
7397.00,1.90
7396.00,1.91
7395.00,1.91
7394.00,1.92
7393.00,1.92
7392.00,1.93
7391.00,1.93
7390.00,1.94
7389.00,1.94
7388.00,1.95
7387.00,1.95
7386.00,1.95
7385.00,1.96
7384.00,1.96
7383.00,1.97
7382.00,1.97
7381.00,1.97
7380.00,1.98
7379.00,1.98
7378.00,1.98
7377.00,1.98
7376.00,1.98
7375.00,1.98
7374.00,1.98
7373.00,1.98
7372.00,1.98
7371.00,1.98
7370.00,1.98
7369.00,1.97
7368.00,1.97
7367.00,1.97
7366.00,1.96
7365.00,1.96
7364.00,1.96
7363.00,1.95
7362.00,1.95
7361.00,1.95
7360.00,1.95
7359.00,1.94
7358.00,1.94
7357.00,1.94
7356.00,1.94
7355.00,1.93
7354.00,1.93
7353.00,1.93
7352.00,1.93
7351.00,1.92
7350.00,1.92
7349.00,1.92
7348.00,1.92
7347.00,1.92
7346.00,1.92
7345.00,1.92
7344.00,1.92
7343.00,1.92
7342.00,1.93
7341.00,1.93
7340.00,1.93
7339.00,1.93
7338.00,1.93
7337.00,1.93
7336.00,1.94
7335.00,1.94
7334.00,1.94
7333.00,1.94
7332.00,1.94
7331.00,1.94
7330.00,1.94
7329.00,1.93
7328.00,1.93
7327.00,1.93
7326.00,1.93
7325.00,1.93
7324.00,1.93
7323.00,1.92
7322.00,1.92
7321.00,1.92
7320.00,1.91
7319.00,1.91
7318.00,1.91
7317.00,1.90
7316.00,1.90
7315.00,1.90
7314.00,1.89
7313.00,1.89
7312.00,1.89
7311.00,1.88
7310.00,1.88
7309.00,1.87
7308.00,1.87
7307.00,1.87
7306.00,1.86
7305.00,1.86
7304.00,1.86
7303.00,1.86
7302.00,1.85
7301.00,1.85
7300.00,1.85
7299.00,1.85
7298.00,1.85
7297.00,1.85
7296.00,1.85
7295.00,1.84
7294.00,1.84
7293.00,1.84
7292.00,1.84
7291.00,1.84
7290.00,1.83
7289.00,1.83
7288.00,1.83
7287.00,1.83
7286.00,1.82
7285.00,1.82
7284.00,1.82
7283.00,1.81
7282.00,1.81
7281.00,1.81
7280.00,1.80
7279.00,1.80
7278.00,1.80
7277.00,1.80
7276.00,1.79
7275.00,1.79
7274.00,1.79
7273.00,1.78
7272.00,1.78
7271.00,1.78
7270.00,1.77
7269.00,1.77
7268.00,1.77
7267.00,1.77
7266.00,1.77
7265.00,1.77
7264.00,1.77
7263.00,1.76
7262.00,1.76
7261.00,1.76
7260.00,1.77
7259.00,1.77
7258.00,1.77
7257.00,1.77
7256.00,1.77
7255.00,1.77
7254.00,1.77
7253.00,1.77
7252.00,1.77
7251.00,1.77
7250.00,1.77
7249.00,1.77
7248.00,1.77
7247.00,1.77
7246.00,1.77
7245.00,1.77
7244.00,1.77
7243.00,1.77
7242.00,1.76
7241.00,1.76
7240.00,1.76
7239.00,1.76
7238.00,1.75
7237.00,1.75
7236.00,1.75
7235.00,1.74
7234.00,1.74
7233.00,1.74
7232.00,1.74
7231.00,1.73
7230.00,1.73
7229.00,1.73
7228.00,1.72
7227.00,1.72
7226.00,1.72
7225.00,1.72
7224.00,1.71
7223.00,1.71
7222.00,1.71
7221.00,1.70
7220.00,1.70
7219.00,1.70
7218.00,1.70
7217.00,1.69
7216.00,1.69
7215.00,1.69
7214.00,1.68
7213.00,1.68
7212.00,1.68
7211.00,1.67
7210.00,1.67
7209.00,1.66
7208.00,1.66
7207.00,1.66
7206.00,1.65
7205.00,1.65
7204.00,1.64
7203.00,1.64
7202.00,1.63
7201.00,1.63
7200.00,1.62
7199.00,1.62
7198.00,1.61
7197.00,1.61
7196.00,1.60
7195.00,1.59
7194.00,1.59
7193.00,1.58
7192.00,1.58
7191.00,1.57
7190.00,1.57
7189.00,1.56
7188.00,1.56
7187.00,1.56
7186.00,1.55
7185.00,1.55
7184.00,1.54
7183.00,1.54
7182.00,1.53
7181.00,1.53
7180.00,1.52
7179.00,1.52
7178.00,1.51
7177.00,1.51
7176.00,1.50
7175.00,1.50
7174.00,1.50
7173.00,1.49
7172.00,1.49
7171.00,1.48
7170.00,1.48
7169.00,1.48
7168.00,1.47
7167.00,1.47
7166.00,1.46
7165.00,1.46
7164.00,1.46
7163.00,1.45
7162.00,1.45
7161.00,1.44
7160.00,1.43
7159.00,1.43
7158.00,1.42
7157.00,1.42
7156.00,1.41
7155.00,1.41
7154.00,1.41
7153.00,1.40
7152.00,1.40
7151.00,1.39
7150.00,1.39
7149.00,1.39
7148.00,1.38
7147.00,1.38
7146.00,1.37
7145.00,1.37
7144.00,1.36
7143.00,1.36
7142.00,1.35
7141.00,1.35
7140.00,1.34
7139.00,1.34
7138.00,1.33
7137.00,1.33
7136.00,1.32
7135.00,1.32
7134.00,1.32
7133.00,1.31
7132.00,1.31
7131.00,1.31
7130.00,1.30
7129.00,1.30
7128.00,1.29
7127.00,1.29
7126.00,1.28
7125.00,1.27
7124.00,1.27
7123.00,1.26
7122.00,1.26
7121.00,1.25
7120.00,1.25
7119.00,1.24
7118.00,1.24
7117.00,1.23
7116.00,1.23
7115.00,1.22
7114.00,1.22
7113.00,1.22
7112.00,1.21
7111.00,1.21
7110.00,1.20
7109.00,1.20
7108.00,1.19
7107.00,1.19
7106.00,1.18
7105.00,1.18
7104.00,1.18
7103.00,1.17
7102.00,1.17
7101.00,1.17
7100.00,1.17
7099.00,1.16
7098.00,1.16
7097.00,1.16
7096.00,1.16
7095.00,1.16
7094.00,1.16
7093.00,1.15
7092.00,1.15
7091.00,1.15
7090.00,1.15
7089.00,1.14
7088.00,1.14
7087.00,1.14
7086.00,1.14
7085.00,1.13
7084.00,1.13
7083.00,1.13
7082.00,1.13
7081.00,1.13
7080.00,1.13
7079.00,1.12
7078.00,1.12
7077.00,1.12
7076.00,1.12
7075.00,1.11
7074.00,1.11
7073.00,1.11
7072.00,1.11
7071.00,1.10
7070.00,1.10
7069.00,1.09
7068.00,1.09
7067.00,1.09
7066.00,1.08
7065.00,1.08
7064.00,1.08
7063.00,1.07
7062.00,1.07
7061.00,1.06
7060.00,1.06
7059.00,1.06
7058.00,1.05
7057.00,1.05
7056.00,1.04
7055.00,1.04
7054.00,1.04
7053.00,1.03
7052.00,1.03
7051.00,1.03
7050.00,1.02
7049.00,1.02
7048.00,1.02
7047.00,1.02
7046.00,1.02
7045.00,1.02
7044.00,1.01
7043.00,1.01
7042.00,1.01
7041.00,1.01
7040.00,1.01
7039.00,1.02
7038.00,1.02
7037.00,1.02
7036.00,1.02
7035.00,1.02
7034.00,1.02
7033.00,1.02
7032.00,1.01
7031.00,1.01
7030.00,1.01
7029.00,1.01
7028.00,1.01
7027.00,1.01
7026.00,1.01
7025.00,1.01
7024.00,1.00
7023.00,1.00
7022.00,1.00
7021.00,0.99
7020.00,0.99
7019.00,0.99
7018.00,0.98
7017.00,0.98
7016.00,0.98
7015.00,0.98
7014.00,0.97
7013.00,0.97
7012.00,0.97
7011.00,0.97
7010.00,0.96
7009.00,0.96
7008.00,0.96
7007.00,0.96
7006.00,0.96
7005.00,0.96
7004.00,0.96
7003.00,0.96
7002.00,0.96
7001.00,0.96
7000.00,0.96
6999.00,0.96
6998.00,0.96
6997.00,0.96
6996.00,0.96
6995.00,0.96
6994.00,0.96
6993.00,0.96
6992.00,0.96
6991.00,0.96
6990.00,0.96
6989.00,0.96
6988.00,0.96
6987.00,0.96
6986.00,0.96
6985.00,0.96
6984.00,0.96
6983.00,0.96
6982.00,0.96
6981.00,0.96
6980.00,0.95
6979.00,0.95
6978.00,0.95
6977.00,0.95
6976.00,0.95
6975.00,0.95
6974.00,0.94
6973.00,0.94
6972.00,0.94
6971.00,0.94
6970.00,0.94
6969.00,0.94
6968.00,0.94
6967.00,0.94
6966.00,0.94
6965.00,0.94
6964.00,0.94
6963.00,0.94
6962.00,0.94
6961.00,0.94
6960.00,0.94
6959.00,0.94
6958.00,0.94
6957.00,0.95
6956.00,0.95
6955.00,0.95
6954.00,0.95
6953.00,0.95
6952.00,0.95
6951.00,0.95
6950.00,0.95
6949.00,0.95
6948.00,0.95
6947.00,0.95
6946.00,0.95
6945.00,0.95
6944.00,0.95
6943.00,0.95
6942.00,0.95
6941.00,0.94
6940.00,0.94
6939.00,0.94
6938.00,0.94
6937.00,0.94
6936.00,0.94
6935.00,0.94
6934.00,0.94
6933.00,0.94
6932.00,0.94
6931.00,0.93
6930.00,0.93
6929.00,0.94
6928.00,0.94
6927.00,0.94
6926.00,0.94
6925.00,0.94
6924.00,0.94
6923.00,0.94
6922.00,0.94
6921.00,0.94
6920.00,0.94
6919.00,0.94
6918.00,0.94
6917.00,0.94
6916.00,0.94
6915.00,0.94
6914.00,0.94
6913.00,0.94
6912.00,0.94
6911.00,0.94
6910.00,0.94
6909.00,0.94
6908.00,0.94
6907.00,0.94
6906.00,0.94
6905.00,0.94
6904.00,0.94
6903.00,0.94
6902.00,0.94
6901.00,0.94
6900.00,0.94
6899.00,0.94
6898.00,0.94
6897.00,0.94
6896.00,0.94
6895.00,0.94
6894.00,0.94
6893.00,0.94
6892.00,0.94
6891.00,0.94
6890.00,0.93
6889.00,0.93
6888.00,0.93
6887.00,0.93
6886.00,0.93
6885.00,0.93
6884.00,0.93
6883.00,0.93
6882.00,0.93
6881.00,0.93
6880.00,0.93
6879.00,0.92
6878.00,0.92
6877.00,0.92
6876.00,0.92
6875.00,0.92
6874.00,0.92
6873.00,0.92
6872.00,0.92
6871.00,0.92
6870.00,0.92
6869.00,0.92
6868.00,0.92
6867.00,0.92
6866.00,0.92
6865.00,0.92
6864.00,0.92
6863.00,0.93
6862.00,0.93
6861.00,0.93
6860.00,0.93
6859.00,0.93
6858.00,0.94
6857.00,0.94
6856.00,0.94
6855.00,0.95
6854.00,0.95
6853.00,0.95
6852.00,0.95
6851.00,0.96
6850.00,0.96
6849.00,0.96
6848.00,0.96
6847.00,0.96
6846.00,0.97
6845.00,0.97
6844.00,0.97
6843.00,0.97
6842.00,0.98
6841.00,0.98
6840.00,0.98
6839.00,0.98
6838.00,0.98
6837.00,0.98
6836.00,0.98
6835.00,0.98
6834.00,0.98
6833.00,0.97
6832.00,0.97
6831.00,0.97
6830.00,0.97
6829.00,0.97
6828.00,0.96
6827.00,0.96
6826.00,0.96
6825.00,0.96
6824.00,0.96
6823.00,0.95
6822.00,0.95
6821.00,0.95
6820.00,0.95
6819.00,0.95
6818.00,0.94
6817.00,0.94
6816.00,0.94
6815.00,0.94
6814.00,0.94
6813.00,0.94
6812.00,0.94
6811.00,0.94
6810.00,0.94
6809.00,0.94
6808.00,0.94
6807.00,0.94
6806.00,0.94
6805.00,0.94
6804.00,0.94
6803.00,0.95
6802.00,0.95
6801.00,0.95
6800.00,0.95
6799.00,0.95
6798.00,0.96
6797.00,0.96
6796.00,0.96
6795.00,0.96
6794.00,0.97
6793.00,0.97
6792.00,0.97
6791.00,0.97
6790.00,0.97
6789.00,0.98
6788.00,0.98
6787.00,0.98
6786.00,0.98
6785.00,0.98
6784.00,0.98
6783.00,0.99
6782.00,0.99
6781.00,0.99
6780.00,0.99
6779.00,0.99
6778.00,0.99
6777.00,0.99
6776.00,0.99
6775.00,0.99
6774.00,1.00
6773.00,1.00
6772.00,1.00
6771.00,1.00
6770.00,1.00
6769.00,1.00
6768.00,1.00
6767.00,1.00
6766.00,1.00
6765.00,1.00
6764.00,1.01
6763.00,1.01
6762.00,1.01
6761.00,1.01
6760.00,1.01
6759.00,1.01
6758.00,1.01
6757.00,1.02
6756.00,1.02
6755.00,1.02
6754.00,1.02
6753.00,1.02
6752.00,1.02
6751.00,1.03
6750.00,1.03
6749.00,1.03
6748.00,1.03
6747.00,1.03
6746.00,1.03
6745.00,1.04
6744.00,1.04
6743.00,1.04
6742.00,1.04
6741.00,1.04
6740.00,1.04
6739.00,1.04
6738.00,1.05
6737.00,1.05
6736.00,1.05
6735.00,1.05
6734.00,1.05
6733.00,1.05
6732.00,1.06
6731.00,1.06
6730.00,1.06
6729.00,1.06
6728.00,1.06
6727.00,1.06
6726.00,1.06
6725.00,1.06
6724.00,1.07
6723.00,1.07
6722.00,1.07
6721.00,1.07
6720.00,1.07
6719.00,1.07
6718.00,1.07
6717.00,1.08
6716.00,1.08
6715.00,1.08
6714.00,1.08
6713.00,1.08
6712.00,1.08
6711.00,1.08
6710.00,1.08
6709.00,1.08
6708.00,1.08
6707.00,1.08
6706.00,1.08
6705.00,1.08
6704.00,1.08
6703.00,1.09
6702.00,1.09
6701.00,1.09
6700.00,1.09
6699.00,1.09
6698.00,1.09
6697.00,1.09
6696.00,1.10
6695.00,1.10
6694.00,1.10
6693.00,1.10
6692.00,1.10
6691.00,1.10
6690.00,1.11
6689.00,1.11
6688.00,1.11
6687.00,1.11
6686.00,1.11
6685.00,1.12
6684.00,1.12
6683.00,1.12
6682.00,1.12
6681.00,1.13
6680.00,1.13
6679.00,1.13
6678.00,1.13
6677.00,1.14
6676.00,1.14
6675.00,1.14
6674.00,1.14
6673.00,1.14
6672.00,1.14
6671.00,1.15
6670.00,1.15
6669.00,1.15
6668.00,1.15
6667.00,1.15
6666.00,1.15
6665.00,1.16
6664.00,1.16
6663.00,1.16
6662.00,1.16
6661.00,1.16
6660.00,1.16
6659.00,1.16
6658.00,1.17
6657.00,1.17
6656.00,1.17
6655.00,1.17
6654.00,1.17
6653.00,1.17
6652.00,1.17
6651.00,1.17
6650.00,1.17
6649.00,1.17
6648.00,1.17
6647.00,1.17
6646.00,1.17
6645.00,1.17
6644.00,1.17
6643.00,1.17
6642.00,1.17
6641.00,1.17
6640.00,1.17
6639.00,1.17
6638.00,1.17
6637.00,1.17
6636.00,1.17
6635.00,1.18
6634.00,1.18
6633.00,1.18
6632.00,1.18
6631.00,1.18
6630.00,1.18
6629.00,1.18
6628.00,1.18
6627.00,1.18
6626.00,1.19
6625.00,1.19
6624.00,1.19
6623.00,1.19
6622.00,1.19
6621.00,1.19
6620.00,1.20
6619.00,1.20
6618.00,1.20
6617.00,1.20
6616.00,1.20
6615.00,1.21
6614.00,1.21
6613.00,1.21
6612.00,1.22
6611.00,1.22
6610.00,1.22
6609.00,1.22
6608.00,1.23
6607.00,1.23
6606.00,1.23
6605.00,1.24
6604.00,1.24
6603.00,1.24
6602.00,1.25
6601.00,1.25
6600.00,1.25
6599.00,1.26
6598.00,1.26
6597.00,1.26
6596.00,1.27
6595.00,1.27
6594.00,1.27
6593.00,1.28
6592.00,1.28
6591.00,1.28
6590.00,1.29
6589.00,1.29
6588.00,1.29
6587.00,1.29
6586.00,1.30
6585.00,1.30
6584.00,1.30
6583.00,1.30
6582.00,1.30
6581.00,1.30
6580.00,1.30
6579.00,1.31
6578.00,1.31
6577.00,1.31
6576.00,1.31
6575.00,1.31
6574.00,1.31
6573.00,1.31
6572.00,1.31
6571.00,1.31
6570.00,1.31
6569.00,1.31
6568.00,1.30
6567.00,1.30
6566.00,1.30
6565.00,1.30
6564.00,1.30
6563.00,1.30
6562.00,1.30
6561.00,1.30
6560.00,1.29
6559.00,1.29
6558.00,1.29
6557.00,1.29
6556.00,1.29
6555.00,1.29
6554.00,1.29
6553.00,1.29
6552.00,1.29
6551.00,1.29
6550.00,1.29
6549.00,1.29
6548.00,1.29
6547.00,1.30
6546.00,1.30
6545.00,1.30
6544.00,1.30
6543.00,1.30
6542.00,1.31
6541.00,1.31
6540.00,1.32
6539.00,1.32
6538.00,1.33
6537.00,1.33
6536.00,1.33
6535.00,1.34
6534.00,1.34
6533.00,1.35
6532.00,1.35
6531.00,1.35
6530.00,1.36
6529.00,1.36
6528.00,1.36
6527.00,1.37
6526.00,1.37
6525.00,1.38
6524.00,1.38
6523.00,1.38
6522.00,1.38
6521.00,1.39
6520.00,1.39
6519.00,1.39
6518.00,1.39
6517.00,1.40
6516.00,1.40
6515.00,1.40
6514.00,1.40
6513.00,1.40
6512.00,1.40
6511.00,1.40
6510.00,1.40
6509.00,1.40
6508.00,1.40
6507.00,1.40
6506.00,1.40
6505.00,1.40
6504.00,1.40
6503.00,1.40
6502.00,1.40
6501.00,1.40
6500.00,1.40
6499.00,1.40
6498.00,1.40
6497.00,1.40
6496.00,1.41
6495.00,1.41
6494.00,1.41
6493.00,1.41
6492.00,1.41
6491.00,1.41
6490.00,1.41
6489.00,1.42
6488.00,1.42
6487.00,1.42
6486.00,1.42
6485.00,1.42
6484.00,1.42
6483.00,1.42
6482.00,1.42
6481.00,1.42
6480.00,1.42
6479.00,1.43
6478.00,1.43
6477.00,1.43
6476.00,1.43
6475.00,1.43
6474.00,1.43
6473.00,1.43
6472.00,1.43
6471.00,1.43
6470.00,1.43
6469.00,1.43
6468.00,1.43
6467.00,1.43
6466.00,1.43
6465.00,1.43
6464.00,1.43
6463.00,1.43
6462.00,1.43
6461.00,1.43
6460.00,1.43
6459.00,1.44
6458.00,1.44
6457.00,1.44
6456.00,1.44
6455.00,1.44
6454.00,1.44
6453.00,1.44
6452.00,1.44
6451.00,1.44
6450.00,1.45
6449.00,1.45
6448.00,1.45
6447.00,1.45
6446.00,1.45
6445.00,1.45
6444.00,1.45
6443.00,1.46
6442.00,1.46
6441.00,1.46
6440.00,1.46
6439.00,1.46
6438.00,1.46
6437.00,1.46
6436.00,1.46
6435.00,1.47
6434.00,1.47
6433.00,1.47
6432.00,1.47
6431.00,1.47
6430.00,1.47
6429.00,1.47
6428.00,1.47
6427.00,1.47
6426.00,1.47
6425.00,1.47
6424.00,1.47
6423.00,1.47
6422.00,1.47
6421.00,1.47
6420.00,1.47
6419.00,1.47
6418.00,1.47
6417.00,1.47
6416.00,1.47
6415.00,1.47
6414.00,1.47
6413.00,1.47
6412.00,1.47
6411.00,1.47
6410.00,1.47
6409.00,1.48
6408.00,1.48
6407.00,1.48
6406.00,1.48
6405.00,1.48
6404.00,1.48
6403.00,1.49
6402.00,1.49
6401.00,1.49
6400.00,1.49
6399.00,1.49
6398.00,1.49
6397.00,1.49
6396.00,1.50
6395.00,1.50
6394.00,1.50
6393.00,1.50
6392.00,1.50
6391.00,1.50
6390.00,1.51
6389.00,1.51
6388.00,1.51
6387.00,1.51
6386.00,1.51
6385.00,1.51
6384.00,1.51
6383.00,1.51
6382.00,1.52
6381.00,1.52
6380.00,1.52
6379.00,1.52
6378.00,1.52
6377.00,1.52
6376.00,1.53
6375.00,1.53
6374.00,1.53
6373.00,1.53
6372.00,1.53
6371.00,1.54
6370.00,1.54
6369.00,1.54
6368.00,1.54
6367.00,1.55
6366.00,1.55
6365.00,1.55
6364.00,1.55
6363.00,1.55
6362.00,1.56
6361.00,1.56
6360.00,1.56
6359.00,1.56
6358.00,1.57
6357.00,1.57
6356.00,1.57
6355.00,1.57
6354.00,1.58
6353.00,1.58
6352.00,1.58
6351.00,1.58
6350.00,1.58
6349.00,1.58
6348.00,1.58
6347.00,1.58
6346.00,1.58
6345.00,1.58
6344.00,1.58
6343.00,1.58
6342.00,1.58
6341.00,1.58
6340.00,1.58
6339.00,1.58
6338.00,1.58
6337.00,1.58
6336.00,1.58
6335.00,1.59
6334.00,1.59
6333.00,1.59
6332.00,1.59
6331.00,1.59
6330.00,1.59
6329.00,1.59
6328.00,1.59
6327.00,1.59
6326.00,1.59
6325.00,1.59
6324.00,1.59
6323.00,1.60
6322.00,1.60
6321.00,1.60
6320.00,1.60
6319.00,1.60
6318.00,1.61
6317.00,1.61
6316.00,1.61
6315.00,1.61
6314.00,1.62
6313.00,1.62
6312.00,1.62
6311.00,1.63
6310.00,1.63
6309.00,1.63
6308.00,1.63
6307.00,1.64
6306.00,1.64
6305.00,1.64
6304.00,1.65
6303.00,1.65
6302.00,1.65
6301.00,1.66
6300.00,1.66
6299.00,1.66
6298.00,1.67
6297.00,1.67
6296.00,1.67
6295.00,1.67
6294.00,1.68
6293.00,1.68
6292.00,1.68
6291.00,1.68
6290.00,1.69
6289.00,1.69
6288.00,1.69
6287.00,1.69
6286.00,1.69
6285.00,1.70
6284.00,1.70
6283.00,1.70
6282.00,1.70
6281.00,1.70
6280.00,1.70
6279.00,1.70
6278.00,1.71
6277.00,1.71
6276.00,1.71
6275.00,1.71
6274.00,1.71
6273.00,1.71
6272.00,1.71
6271.00,1.71
6270.00,1.71
6269.00,1.71
6268.00,1.71
6267.00,1.71
6266.00,1.71
6265.00,1.71
6264.00,1.71
6263.00,1.72
6262.00,1.72
6261.00,1.72
6260.00,1.72
6259.00,1.72
6258.00,1.72
6257.00,1.71
6256.00,1.71
6255.00,1.71
6254.00,1.71
6253.00,1.71
6252.00,1.71
6251.00,1.71
6250.00,1.71
6249.00,1.71
6248.00,1.71
6247.00,1.71
6246.00,1.71
6245.00,1.71
6244.00,1.71
6243.00,1.71
6242.00,1.71
6241.00,1.72
6240.00,1.72
6239.00,1.72
6238.00,1.72
6237.00,1.72
6236.00,1.72
6235.00,1.72
6234.00,1.72
6233.00,1.72
6232.00,1.72
6231.00,1.72
6230.00,1.73
6229.00,1.73
6228.00,1.73
6227.00,1.73
6226.00,1.73
6225.00,1.73
6224.00,1.74
6223.00,1.74
6222.00,1.74
6221.00,1.74
6220.00,1.74
6219.00,1.74
6218.00,1.74
6217.00,1.74
6216.00,1.74
6215.00,1.74
6214.00,1.74
6213.00,1.74
6212.00,1.74
6211.00,1.74
6210.00,1.73
6209.00,1.73
6208.00,1.73
6207.00,1.73
6206.00,1.73
6205.00,1.73
6204.00,1.73
6203.00,1.73
6202.00,1.73
6201.00,1.73
6200.00,1.73
6199.00,1.73
6198.00,1.73
6197.00,1.73
6196.00,1.73
6195.00,1.73
6194.00,1.73
6193.00,1.74
6192.00,1.74
6191.00,1.74
6190.00,1.74
6189.00,1.74
6188.00,1.75
6187.00,1.75
6186.00,1.75
6185.00,1.75
6184.00,1.76
6183.00,1.76
6182.00,1.76
6181.00,1.76
6180.00,1.77
6179.00,1.77
6178.00,1.77
6177.00,1.77
6176.00,1.78
6175.00,1.78
6174.00,1.78
6173.00,1.78
6172.00,1.79
6171.00,1.79
6170.00,1.79
6169.00,1.79
6168.00,1.80
6167.00,1.80
6166.00,1.80
6165.00,1.80
6164.00,1.80
6163.00,1.80
6162.00,1.81
6161.00,1.81
6160.00,1.81
6159.00,1.81
6158.00,1.81
6157.00,1.81
6156.00,1.82
6155.00,1.82
6154.00,1.82
6153.00,1.82
6152.00,1.82
6151.00,1.82
6150.00,1.82
6149.00,1.82
6148.00,1.82
6147.00,1.83
6146.00,1.83
6145.00,1.83
6144.00,1.83
6143.00,1.83
6142.00,1.83
6141.00,1.83
6140.00,1.83
6139.00,1.83
6138.00,1.83
6137.00,1.83
6136.00,1.84
6135.00,1.84
6134.00,1.84
6133.00,1.84
6132.00,1.84
6131.00,1.84
6130.00,1.84
6129.00,1.84
6128.00,1.84
6127.00,1.84
6126.00,1.85
6125.00,1.85
6124.00,1.85
6123.00,1.85
6122.00,1.85
6121.00,1.85
6120.00,1.85
6119.00,1.86
6118.00,1.86
6117.00,1.86
6116.00,1.86
6115.00,1.86
6114.00,1.86
6113.00,1.87
6112.00,1.87
6111.00,1.87
6110.00,1.87
6109.00,1.88
6108.00,1.88
6107.00,1.88
6106.00,1.89
6105.00,1.89
6104.00,1.89
6103.00,1.90
6102.00,1.90
6101.00,1.90
6100.00,1.91
6099.00,1.91
6098.00,1.91
6097.00,1.91
6096.00,1.92
6095.00,1.92
6094.00,1.92
6093.00,1.92
6092.00,1.93
6091.00,1.93
6090.00,1.93
6089.00,1.93
6088.00,1.93
6087.00,1.93
6086.00,1.93
6085.00,1.93
6084.00,1.93
6083.00,1.93
6082.00,1.93
6081.00,1.93
6080.00,1.93
6079.00,1.93
6078.00,1.93
6077.00,1.92
6076.00,1.92
6075.00,1.92
6074.00,1.92
6073.00,1.92
6072.00,1.91
6071.00,1.91
6070.00,1.91
6069.00,1.91
6068.00,1.91
6067.00,1.91
6066.00,1.91
6065.00,1.91
6064.00,1.91
6063.00,1.91
6062.00,1.91
6061.00,1.91
6060.00,1.91
6059.00,1.91
6058.00,1.91
6057.00,1.91
6056.00,1.91
6055.00,1.91
6054.00,1.92
6053.00,1.92
6052.00,1.92
6051.00,1.92
6050.00,1.92
6049.00,1.93
6048.00,1.93
6047.00,1.93
6046.00,1.93
6045.00,1.93
6044.00,1.94
6043.00,1.94
6042.00,1.94
6041.00,1.94
6040.00,1.94
6039.00,1.94
6038.00,1.94
6037.00,1.94
6036.00,1.94
6035.00,1.94
6034.00,1.94
6033.00,1.95
6032.00,1.95
6031.00,1.95
6030.00,1.95
6029.00,1.95
6028.00,1.95
6027.00,1.95
6026.00,1.95
6025.00,1.95
6024.00,1.95
6023.00,1.95
6022.00,1.95
6021.00,1.95
6020.00,1.95
6019.00,1.95
6018.00,1.95
6017.00,1.95
6016.00,1.95
6015.00,1.95
6014.00,1.95
6013.00,1.95
6012.00,1.95
6011.00,1.95
6010.00,1.95
6009.00,1.95
6008.00,1.95
6007.00,1.95
6006.00,1.94
6005.00,1.94
6004.00,1.94
6003.00,1.94
6002.00,1.94
6001.00,1.94
6000.00,1.94
5999.00,1.94
5998.00,1.94
5997.00,1.93
5996.00,1.93
5995.00,1.93
5994.00,1.93
5993.00,1.93
5992.00,1.93
5991.00,1.93
5990.00,1.93
5989.00,1.92
5988.00,1.92
5987.00,1.92
5986.00,1.92
5985.00,1.92
5984.00,1.92
5983.00,1.91
5982.00,1.91
5981.00,1.91
5980.00,1.91
5979.00,1.91
5978.00,1.91
5977.00,1.91
5976.00,1.90
5975.00,1.90
5974.00,1.90
5973.00,1.90
5972.00,1.90
5971.00,1.90
5970.00,1.89
5969.00,1.89
5968.00,1.89
5967.00,1.89
5966.00,1.88
5965.00,1.88
5964.00,1.88
5963.00,1.87
5962.00,1.87
5961.00,1.87
5960.00,1.87
5959.00,1.86
5958.00,1.86
5957.00,1.86
5956.00,1.85
5955.00,1.85
5954.00,1.85
5953.00,1.84
5952.00,1.84
5951.00,1.84
5950.00,1.84
5949.00,1.83
5948.00,1.83
5947.00,1.83
5946.00,1.82
5945.00,1.82
5944.00,1.82
5943.00,1.82
5942.00,1.81
5941.00,1.81
5940.00,1.81
5939.00,1.81
5938.00,1.80
5937.00,1.80
5936.00,1.80
5935.00,1.80
5934.00,1.80
5933.00,1.80
5932.00,1.80
5931.00,1.80
5930.00,1.80
5929.00,1.80
5928.00,1.80
5927.00,1.80
5926.00,1.80
5925.00,1.80
5924.00,1.80
5923.00,1.80
5922.00,1.80
5921.00,1.80
5920.00,1.80
5919.00,1.80
5918.00,1.80
5917.00,1.80
5916.00,1.80
5915.00,1.81
5914.00,1.81
5913.00,1.81
5912.00,1.81
5911.00,1.81
5910.00,1.81
5909.00,1.81
5908.00,1.81
5907.00,1.81
5906.00,1.81
5905.00,1.81
5904.00,1.81
5903.00,1.81
5902.00,1.81
5901.00,1.81
5900.00,1.81
5899.00,1.81
5898.00,1.81
5897.00,1.81
5896.00,1.81
5895.00,1.81
5894.00,1.81
5893.00,1.81
5892.00,1.81
5891.00,1.81
5890.00,1.81
5889.00,1.81
5888.00,1.81
5887.00,1.81
5886.00,1.81
5885.00,1.81
5884.00,1.81
5883.00,1.82
5882.00,1.82
5881.00,1.82
5880.00,1.82
5879.00,1.82
5878.00,1.82
5877.00,1.83
5876.00,1.83
5875.00,1.83
5874.00,1.83
5873.00,1.83
5872.00,1.84
5871.00,1.84
5870.00,1.84
5869.00,1.84
5868.00,1.84
5867.00,1.85
5866.00,1.85
5865.00,1.85
5864.00,1.85
5863.00,1.86
5862.00,1.86
5861.00,1.86
5860.00,1.86
5859.00,1.86
5858.00,1.87
5857.00,1.87
5856.00,1.87
5855.00,1.87
5854.00,1.87
5853.00,1.87
5852.00,1.87
5851.00,1.87
5850.00,1.87
5849.00,1.87
5848.00,1.87
5847.00,1.87
5846.00,1.87
5845.00,1.87
5844.00,1.87
5843.00,1.87
5842.00,1.87
5841.00,1.87
5840.00,1.87
5839.00,1.87
5838.00,1.87
5837.00,1.87
5836.00,1.87
5835.00,1.86
5834.00,1.86
5833.00,1.86
5832.00,1.86
5831.00,1.86
5830.00,1.86
5829.00,1.86
5828.00,1.86
5827.00,1.85
5826.00,1.85
5825.00,1.85
5824.00,1.85
5823.00,1.85
5822.00,1.85
5821.00,1.85
5820.00,1.85
5819.00,1.85
5818.00,1.85
5817.00,1.85
5816.00,1.85
5815.00,1.85
5814.00,1.85
5813.00,1.85
5812.00,1.84
5811.00,1.84
5810.00,1.84
5809.00,1.84
5808.00,1.84
5807.00,1.84
5806.00,1.84
5805.00,1.84
5804.00,1.84
5803.00,1.84
5802.00,1.84
5801.00,1.84
5800.00,1.84
5799.00,1.83
5798.00,1.83
5797.00,1.83
5796.00,1.83
5795.00,1.83
5794.00,1.83
5793.00,1.83
5792.00,1.83
5791.00,1.83
5790.00,1.83
5789.00,1.83
5788.00,1.83
5787.00,1.83
5786.00,1.83
5785.00,1.83
5784.00,1.83
5783.00,1.83
5782.00,1.83
5781.00,1.83
5780.00,1.83
5779.00,1.83
5778.00,1.83
5777.00,1.83
5776.00,1.83
5775.00,1.83
5774.00,1.83
5773.00,1.83
5772.00,1.83
5771.00,1.83
5770.00,1.83
5769.00,1.83
5768.00,1.83
5767.00,1.83
5766.00,1.83
5765.00,1.83
5764.00,1.83
5763.00,1.83
5762.00,1.83
5761.00,1.83
5760.00,1.83
5759.00,1.83
5758.00,1.83
5757.00,1.83
5756.00,1.83
5755.00,1.83
5754.00,1.83
5753.00,1.83
5752.00,1.83
5751.00,1.83
5750.00,1.83
5749.00,1.83
5748.00,1.83
5747.00,1.83
5746.00,1.83
5745.00,1.83
5744.00,1.83
5743.00,1.83
5742.00,1.83
5741.00,1.84
5740.00,1.84
5739.00,1.84
5738.00,1.84
5737.00,1.84
5736.00,1.84
5735.00,1.84
5734.00,1.84
5733.00,1.84
5732.00,1.84
5731.00,1.84
5730.00,1.84
5729.00,1.84
5728.00,1.84
5727.00,1.84
5726.00,1.84
5725.00,1.84
5724.00,1.84
5723.00,1.84
5722.00,1.84
5721.00,1.84
5720.00,1.84
5719.00,1.84
5718.00,1.84
5717.00,1.84
5716.00,1.84
5715.00,1.84
5714.00,1.84
5713.00,1.84
5712.00,1.83
5711.00,1.83
5710.00,1.83
5709.00,1.83
5708.00,1.83
5707.00,1.83
5706.00,1.83
5705.00,1.83
5704.00,1.83
5703.00,1.83
5702.00,1.83
5701.00,1.83
5700.00,1.83
5699.00,1.83
5698.00,1.83
5697.00,1.83
5696.00,1.82
5695.00,1.82
5694.00,1.82
5693.00,1.82
5692.00,1.82
5691.00,1.82
5690.00,1.81
5689.00,1.81
5688.00,1.81
5687.00,1.81
5686.00,1.81
5685.00,1.81
5684.00,1.80
5683.00,1.80
5682.00,1.80
5681.00,1.80
5680.00,1.80
5679.00,1.80
5678.00,1.79
5677.00,1.79
5676.00,1.79
5675.00,1.79
5674.00,1.79
5673.00,1.79
5672.00,1.79
5671.00,1.79
5670.00,1.79
5669.00,1.79
5668.00,1.79
5667.00,1.79
5666.00,1.79
5665.00,1.80
5664.00,1.80
5663.00,1.80
5662.00,1.80
5661.00,1.80
5660.00,1.80
5659.00,1.80
5658.00,1.80
5657.00,1.81
5656.00,1.81
5655.00,1.81
5654.00,1.81
5653.00,1.81
5652.00,1.81
5651.00,1.81
5650.00,1.81
5649.00,1.81
5648.00,1.81
5647.00,1.81
5646.00,1.81
5645.00,1.81
5644.00,1.81
5643.00,1.82
5642.00,1.82
5641.00,1.82
5640.00,1.82
5639.00,1.81
5638.00,1.81
5637.00,1.81
5636.00,1.81
5635.00,1.81
5634.00,1.81
5633.00,1.81
5632.00,1.81
5631.00,1.81
5630.00,1.81
5629.00,1.81
5628.00,1.81
5627.00,1.81
5626.00,1.81
5625.00,1.81
5624.00,1.81
5623.00,1.81
5622.00,1.81
5621.00,1.81
5620.00,1.81
5619.00,1.81
5618.00,1.81
5617.00,1.81
5616.00,1.81
5615.00,1.81
5614.00,1.81
5613.00,1.81
5612.00,1.81
5611.00,1.81
5610.00,1.82
5609.00,1.82
5608.00,1.82
5607.00,1.82
5606.00,1.82
5605.00,1.82
5604.00,1.82
5603.00,1.82
5602.00,1.82
5601.00,1.82
5600.00,1.82
5599.00,1.83
5598.00,1.83
5597.00,1.83
5596.00,1.83
5595.00,1.83
5594.00,1.83
5593.00,1.83
5592.00,1.84
5591.00,1.84
5590.00,1.84
5589.00,1.84
5588.00,1.84
5587.00,1.84
5586.00,1.84
5585.00,1.85
5584.00,1.85
5583.00,1.85
5582.00,1.85
5581.00,1.85
5580.00,1.85
5579.00,1.85
5578.00,1.85
5577.00,1.85
5576.00,1.85
5575.00,1.85
5574.00,1.86
5573.00,1.86
5572.00,1.86
5571.00,1.86
5570.00,1.86
5569.00,1.86
5568.00,1.86
5567.00,1.86
5566.00,1.86
5565.00,1.87
5564.00,1.87
5563.00,1.87
5562.00,1.87
5561.00,1.87
5560.00,1.87
5559.00,1.87
5558.00,1.87
5557.00,1.88
5556.00,1.88
5555.00,1.88
5554.00,1.88
5553.00,1.88
5552.00,1.88
5551.00,1.89
5550.00,1.89
5549.00,1.89
5548.00,1.89
5547.00,1.90
5546.00,1.90
5545.00,1.90
5544.00,1.90
5543.00,1.90
5542.00,1.90
5541.00,1.90
5540.00,1.91
5539.00,1.91
5538.00,1.91
5537.00,1.91
5536.00,1.91
5535.00,1.91
5534.00,1.91
5533.00,1.91
5532.00,1.91
5531.00,1.91
5530.00,1.91
5529.00,1.91
5528.00,1.91
5527.00,1.92
5526.00,1.92
5525.00,1.92
5524.00,1.92
5523.00,1.92
5522.00,1.92
5521.00,1.92
5520.00,1.92
5519.00,1.92
5518.00,1.92
5517.00,1.92
5516.00,1.92
5515.00,1.93
5514.00,1.93
5513.00,1.93
5512.00,1.93
5511.00,1.93
5510.00,1.93
5509.00,1.94
5508.00,1.94
5507.00,1.94
5506.00,1.94
5505.00,1.94
5504.00,1.95
5503.00,1.95
5502.00,1.95
5501.00,1.96
5500.00,1.96
5499.00,1.96
5498.00,1.96
5497.00,1.97
5496.00,1.97
5495.00,1.97
5494.00,1.97
5493.00,1.97
5492.00,1.98
5491.00,1.98
5490.00,1.98
5489.00,1.98
5488.00,1.98
5487.00,1.99
5486.00,1.99
5485.00,1.99
5484.00,1.99
5483.00,1.99
5482.00,1.99
5481.00,1.99
5480.00,2.00
5479.00,2.00
5478.00,2.00
5477.00,2.00
5476.00,2.00
5475.00,2.00
5474.00,2.00
5473.00,2.00
5472.00,2.00
5471.00,2.00
5470.00,2.00
5469.00,2.00
5468.00,2.00
5467.00,2.00
5466.00,2.00
5465.00,2.00
5464.00,2.00
5463.00,2.00
5462.00,2.00
5461.00,2.00
5460.00,1.99
5459.00,1.99
5458.00,1.99
5457.00,1.99
5456.00,1.99
5455.00,1.99
5454.00,1.99
5453.00,1.99
5452.00,2.00
5451.00,2.00
5450.00,2.00
5449.00,2.00
5448.00,2.00
5447.00,2.00
5446.00,2.00
5445.00,2.01
5444.00,2.01
5443.00,2.01
5442.00,2.01
5441.00,2.01
5440.00,2.01
5439.00,2.01
5438.00,2.01
5437.00,2.01
5436.00,2.01
5435.00,2.01
5434.00,2.01
5433.00,2.01
5432.00,2.01
5431.00,2.01
5430.00,2.01
5429.00,2.01
5428.00,2.01
5427.00,2.01
5426.00,2.01
5425.00,2.01
5424.00,2.01
5423.00,2.01
5422.00,2.00
5421.00,2.00
5420.00,2.00
5419.00,2.00
5418.00,2.00
5417.00,1.99
5416.00,1.99
5415.00,1.99
5414.00,1.99
5413.00,1.99
5412.00,1.99
5411.00,1.99
5410.00,1.99
5409.00,1.99
5408.00,1.98
5407.00,1.98
5406.00,1.98
5405.00,1.98
5404.00,1.98
5403.00,1.98
5402.00,1.98
5401.00,1.98
5400.00,1.98
5399.00,1.98
5398.00,1.97
5397.00,1.97
5396.00,1.97
5395.00,1.97
5394.00,1.97
5393.00,1.97
5392.00,1.97
5391.00,1.96
5390.00,1.96
5389.00,1.96
5388.00,1.95
5387.00,1.95
5386.00,1.95
5385.00,1.94
5384.00,1.94
5383.00,1.93
5382.00,1.93
5381.00,1.92
5380.00,1.92
5379.00,1.91
5378.00,1.91
5377.00,1.90
5376.00,1.90
5375.00,1.89
5374.00,1.89
5373.00,1.88
5372.00,1.88
5371.00,1.87
5370.00,1.86
5369.00,1.86
5368.00,1.85
5367.00,1.85
5366.00,1.84
5365.00,1.83
5364.00,1.83
5363.00,1.82
5362.00,1.82
5361.00,1.81
5360.00,1.80
5359.00,1.80
5358.00,1.79
5357.00,1.79
5356.00,1.78
5355.00,1.77
5354.00,1.77
5353.00,1.76
5352.00,1.75
5351.00,1.74
5350.00,1.73
5349.00,1.72
5348.00,1.71
5347.00,1.70
5346.00,1.69
5345.00,1.68
5344.00,1.67
5343.00,1.66
5342.00,1.64
5341.00,1.63
5340.00,1.62
5339.00,1.60
5338.00,1.59
5337.00,1.57
5336.00,1.55
5335.00,1.54
5334.00,1.52
5333.00,1.50
5332.00,1.49
5331.00,1.47
5330.00,1.45
5329.00,1.43
5328.00,1.42
5327.00,1.40
5326.00,1.38
5325.00,1.36
5324.00,1.35
5323.00,1.33
5322.00,1.31
5321.00,1.30
5320.00,1.28
5319.00,1.26
5318.00,1.25
5317.00,1.23
5316.00,1.21
5315.00,1.20
5314.00,1.18
5313.00,1.17
5312.00,1.16
5311.00,1.14
5310.00,1.13
5309.00,1.12
5308.00,1.10
5307.00,1.09
5306.00,1.08
5305.00,1.07
5304.00,1.05
5303.00,1.04
5302.00,1.03
5301.00,1.02
5300.00,1.01
5299.00,1.00
5298.00,0.99
5297.00,0.98
5296.00,0.97
5295.00,0.96
5294.00,0.95
5293.00,0.94
5292.00,0.93
5291.00,0.92
5290.00,0.92
5289.00,0.91
5288.00,0.90
5287.00,0.89
5286.00,0.88
5285.00,0.88
5284.00,0.87
5283.00,0.86
5282.00,0.86
5281.00,0.85
5280.00,0.84
5279.00,0.84
5278.00,0.83
5277.00,0.83
5276.00,0.82
5275.00,0.82
5274.00,0.82
5273.00,0.81
5272.00,0.81
5271.00,0.80
5270.00,0.80
5269.00,0.80
5268.00,0.79
5267.00,0.79
5266.00,0.79
5265.00,0.79
5264.00,0.78
5263.00,0.78
5262.00,0.78
5261.00,0.78
5260.00,0.78
5259.00,0.77
5258.00,0.77
5257.00,0.77
5256.00,0.77
5255.00,0.77
5254.00,0.77
5253.00,0.77
5252.00,0.77
5251.00,0.77
5250.00,0.77
5249.00,0.76
5248.00,0.76
5247.00,0.76
5246.00,0.76
5245.00,0.76
5244.00,0.76
5243.00,0.76
5242.00,0.76
5241.00,0.76
5240.00,0.75
5239.00,0.75
5238.00,0.75
5237.00,0.75
5236.00,0.75
5235.00,0.75
5234.00,0.74
5233.00,0.74
5232.00,0.74
5231.00,0.74
5230.00,0.74
5229.00,0.74
5228.00,0.74
5227.00,0.73
5226.00,0.73
5225.00,0.73
5224.00,0.73
5223.00,0.73
5222.00,0.73
5221.00,0.73
5220.00,0.73
5219.00,0.73
5218.00,0.73
5217.00,0.73
5216.00,0.73
5215.00,0.73
5214.00,0.73
5213.00,0.73
5212.00,0.73
5211.00,0.73
5210.00,0.74
5209.00,0.74
5208.00,0.74
5207.00,0.74
5206.00,0.74
5205.00,0.74
5204.00,0.74
5203.00,0.74
5202.00,0.75
5201.00,0.75
5200.00,0.75
5199.00,0.75
5198.00,0.75
5197.00,0.75
5196.00,0.75
5195.00,0.76
5194.00,0.76
5193.00,0.76
5192.00,0.76
5191.00,0.76
5190.00,0.76
5189.00,0.76
5188.00,0.76
5187.00,0.76
5186.00,0.76
5185.00,0.76
5184.00,0.76
5183.00,0.76
5182.00,0.76
5181.00,0.76
5180.00,0.75
5179.00,0.75
5178.00,0.75
5177.00,0.75
5176.00,0.75
5175.00,0.75
5174.00,0.75
5173.00,0.75
5172.00,0.75
5171.00,0.75
5170.00,0.75
5169.00,0.75
5168.00,0.74
5167.00,0.74
5166.00,0.74
5165.00,0.74
5164.00,0.74
5163.00,0.74
5162.00,0.74
5161.00,0.74
5160.00,0.74
5159.00,0.74
5158.00,0.74
5157.00,0.74
5156.00,0.74
5155.00,0.74
5154.00,0.74
5153.00,0.74
5152.00,0.74
5151.00,0.74
5150.00,0.74
5149.00,0.74
5148.00,0.74
5147.00,0.75
5146.00,0.75
5145.00,0.75
5144.00,0.75
5143.00,0.75
5142.00,0.75
5141.00,0.75
5140.00,0.75
5139.00,0.76
5138.00,0.76
5137.00,0.76
5136.00,0.76
5135.00,0.76
5134.00,0.76
5133.00,0.76
5132.00,0.77
5131.00,0.77
5130.00,0.77
5129.00,0.77
5128.00,0.77
5127.00,0.77
5126.00,0.78
5125.00,0.78
5124.00,0.78
5123.00,0.78
5122.00,0.78
5121.00,0.78
5120.00,0.79
5119.00,0.79
5118.00,0.79
5117.00,0.79
5116.00,0.79
5115.00,0.79
5114.00,0.79
5113.00,0.79
5112.00,0.79
5111.00,0.79
5110.00,0.79
5109.00,0.79
5108.00,0.80
5107.00,0.80
5106.00,0.80
5105.00,0.80
5104.00,0.80
5103.00,0.80
5102.00,0.80
5101.00,0.80
5100.00,0.80
5099.00,0.79
5098.00,0.79
5097.00,0.79
5096.00,0.79
5095.00,0.79
5094.00,0.79
5093.00,0.79
5092.00,0.79
5091.00,0.79
5090.00,0.79
5089.00,0.79
5088.00,0.79
5087.00,0.79
5086.00,0.79
5085.00,0.79
5084.00,0.79
5083.00,0.79
5082.00,0.79
5081.00,0.79
5080.00,0.79
5079.00,0.79
5078.00,0.79
5077.00,0.79
5076.00,0.79
5075.00,0.79
5074.00,0.79
5073.00,0.79
5072.00,0.79
5071.00,0.79
5070.00,0.79
5069.00,0.79
5068.00,0.80
5067.00,0.80
5066.00,0.80
5065.00,0.80
5064.00,0.80
5063.00,0.81
5062.00,0.81
5061.00,0.81
5060.00,0.81
5059.00,0.81
5058.00,0.82
5057.00,0.82
5056.00,0.82
5055.00,0.82
5054.00,0.83
5053.00,0.83
5052.00,0.83
5051.00,0.84
5050.00,0.84
5049.00,0.84
5048.00,0.84
5047.00,0.85
5046.00,0.85
5045.00,0.85
5044.00,0.85
5043.00,0.86
5042.00,0.86
5041.00,0.86
5040.00,0.86
5039.00,0.86
5038.00,0.87
5037.00,0.87
5036.00,0.87
5035.00,0.87
5034.00,0.88
5033.00,0.88
5032.00,0.88
5031.00,0.88
5030.00,0.88
5029.00,0.89
5028.00,0.89
5027.00,0.89
5026.00,0.89
5025.00,0.89
5024.00,0.89
5023.00,0.89
5022.00,0.90
5021.00,0.90
5020.00,0.90
5019.00,0.90
5018.00,0.90
5017.00,0.90
5016.00,0.90
5015.00,0.91
5014.00,0.91
5013.00,0.91
5012.00,0.91
5011.00,0.91
5010.00,0.91
5009.00,0.91
5008.00,0.92
5007.00,0.92
5006.00,0.92
5005.00,0.92
5004.00,0.92
5003.00,0.92
5002.00,0.92
5001.00,0.92
5000.00,0.92
4999.00,0.93
4998.00,0.93
4997.00,0.93
4996.00,0.93
4995.00,0.93
4994.00,0.93
4993.00,0.93
4992.00,0.93
4991.00,0.93
4990.00,0.93
4989.00,0.93
4988.00,0.93
4987.00,0.93
4986.00,0.94
4985.00,0.94
4984.00,0.94
4983.00,0.94
4982.00,0.94
4981.00,0.94
4980.00,0.94
4979.00,0.94
4978.00,0.94
4977.00,0.94
4976.00,0.94
4975.00,0.94
4974.00,0.95
4973.00,0.95
4972.00,0.95
4971.00,0.95
4970.00,0.95
4969.00,0.96
4968.00,0.96
4967.00,0.96
4966.00,0.96
4965.00,0.97
4964.00,0.97
4963.00,0.97
4962.00,0.98
4961.00,0.98
4960.00,0.99
4959.00,0.99
4958.00,1.00
4957.00,1.00
4956.00,1.00
4955.00,1.01
4954.00,1.01
4953.00,1.02
4952.00,1.02
4951.00,1.03
4950.00,1.03
4949.00,1.03
4948.00,1.04
4947.00,1.04
4946.00,1.04
4945.00,1.05
4944.00,1.05
4943.00,1.05
4942.00,1.06
4941.00,1.06
4940.00,1.06
4939.00,1.07
4938.00,1.07
4937.00,1.07
4936.00,1.07
4935.00,1.08
4934.00,1.08
4933.00,1.08
4932.00,1.08
4931.00,1.08
4930.00,1.08
4929.00,1.08
4928.00,1.09
4927.00,1.09
4926.00,1.09
4925.00,1.09
4924.00,1.09
4923.00,1.09
4922.00,1.09
4921.00,1.09
4920.00,1.10
4919.00,1.10
4918.00,1.10
4917.00,1.10
4916.00,1.10
4915.00,1.10
4914.00,1.10
4913.00,1.10
4912.00,1.10
4911.00,1.10
4910.00,1.11
4909.00,1.11
4908.00,1.11
4907.00,1.11
4906.00,1.11
4905.00,1.11
4904.00,1.11
4903.00,1.12
4902.00,1.12
4901.00,1.12
4900.00,1.12
4899.00,1.12
4898.00,1.12
4897.00,1.12
4896.00,1.13
4895.00,1.13
4894.00,1.13
4893.00,1.13
4892.00,1.13
4891.00,1.14
4890.00,1.14
4889.00,1.14
4888.00,1.14
4887.00,1.14
4886.00,1.15
4885.00,1.15
4884.00,1.15
4883.00,1.15
4882.00,1.15
4881.00,1.16
4880.00,1.16
4879.00,1.16
4878.00,1.16
4877.00,1.16
4876.00,1.17
4875.00,1.17
4874.00,1.17
4873.00,1.17
4872.00,1.17
4871.00,1.18
4870.00,1.18
4869.00,1.18
4868.00,1.18
4867.00,1.18
4866.00,1.19
4865.00,1.19
4864.00,1.19
4863.00,1.19
4862.00,1.19
4861.00,1.20
4860.00,1.20
4859.00,1.20
4858.00,1.20
4857.00,1.21
4856.00,1.21
4855.00,1.21
4854.00,1.21
4853.00,1.22
4852.00,1.22
4851.00,1.22
4850.00,1.22
4849.00,1.23
4848.00,1.23
4847.00,1.23
4846.00,1.23
4845.00,1.24
4844.00,1.24
4843.00,1.24
4842.00,1.24
4841.00,1.24
4840.00,1.25
4839.00,1.25
4838.00,1.25
4837.00,1.25
4836.00,1.26
4835.00,1.26
4834.00,1.26
4833.00,1.26
4832.00,1.26
4831.00,1.27
4830.00,1.27
4829.00,1.27
4828.00,1.27
4827.00,1.28
4826.00,1.28
4825.00,1.28
4824.00,1.28
4823.00,1.29
4822.00,1.29
4821.00,1.29
4820.00,1.30
4819.00,1.30
4818.00,1.30
4817.00,1.30
4816.00,1.31
4815.00,1.31
4814.00,1.31
4813.00,1.31
4812.00,1.32
4811.00,1.32
4810.00,1.32
4809.00,1.32
4808.00,1.32
4807.00,1.33
4806.00,1.33
4805.00,1.33
4804.00,1.33
4803.00,1.33
4802.00,1.33
4801.00,1.33
4800.00,1.34
4799.00,1.34
4798.00,1.34
4797.00,1.34
4796.00,1.34
4795.00,1.34
4794.00,1.35
4793.00,1.35
4792.00,1.35
4791.00,1.35
4790.00,1.35
4789.00,1.36
4788.00,1.36
4787.00,1.36
4786.00,1.37
4785.00,1.37
4784.00,1.38
4783.00,1.38
4782.00,1.38
4781.00,1.39
4780.00,1.39
4779.00,1.40
4778.00,1.40
4777.00,1.41
4776.00,1.41
4775.00,1.42
4774.00,1.42
4773.00,1.43
4772.00,1.43
4771.00,1.44
4770.00,1.44
4769.00,1.45
4768.00,1.45
4767.00,1.46
4766.00,1.46
4765.00,1.47
4764.00,1.47
4763.00,1.47
4762.00,1.48
4761.00,1.48
4760.00,1.48
4759.00,1.49
4758.00,1.49
4757.00,1.49
4756.00,1.49
4755.00,1.49
4754.00,1.49
4753.00,1.50
4752.00,1.50
4751.00,1.50
4750.00,1.50
4749.00,1.50
4748.00,1.50
4747.00,1.51
4746.00,1.51
4745.00,1.51
4744.00,1.51
4743.00,1.51
4742.00,1.51
4741.00,1.51
4740.00,1.52
4739.00,1.52
4738.00,1.52
4737.00,1.52
4736.00,1.52
4735.00,1.53
4734.00,1.53
4733.00,1.53
4732.00,1.53
4731.00,1.54
4730.00,1.54
4729.00,1.54
4728.00,1.55
4727.00,1.55
4726.00,1.56
4725.00,1.56
4724.00,1.56
4723.00,1.57
4722.00,1.57
4721.00,1.57
4720.00,1.58
4719.00,1.58
4718.00,1.59
4717.00,1.59
4716.00,1.60
4715.00,1.60
4714.00,1.61
4713.00,1.61
4712.00,1.62
4711.00,1.62
4710.00,1.63
4709.00,1.63
4708.00,1.64
4707.00,1.64
4706.00,1.65
4705.00,1.65
4704.00,1.66
4703.00,1.66
4702.00,1.67
4701.00,1.68
4700.00,1.68
4699.00,1.69
4698.00,1.69
4697.00,1.70
4696.00,1.71
4695.00,1.71
4694.00,1.72
4693.00,1.72
4692.00,1.73
4691.00,1.73
4690.00,1.74
4689.00,1.74
4688.00,1.74
4687.00,1.75
4686.00,1.75
4685.00,1.75
4684.00,1.76
4683.00,1.76
4682.00,1.76
4681.00,1.77
4680.00,1.77
4679.00,1.78
4678.00,1.78
4677.00,1.78
4676.00,1.79
4675.00,1.79
4674.00,1.79
4673.00,1.79
4672.00,1.79
4671.00,1.79
4670.00,1.79
4669.00,1.80
4668.00,1.80
4667.00,1.80
4666.00,1.80
4665.00,1.80
4664.00,1.80
4663.00,1.80
4662.00,1.81
4661.00,1.81
4660.00,1.81
4659.00,1.81
4658.00,1.81
4657.00,1.81
4656.00,1.81
4655.00,1.81
4654.00,1.81
4653.00,1.81
4652.00,1.81
4651.00,1.81
4650.00,1.81
4649.00,1.81
4648.00,1.81
4647.00,1.81
4646.00,1.81
4645.00,1.82
4644.00,1.82
4643.00,1.82
4642.00,1.82
4641.00,1.82
4640.00,1.82
4639.00,1.82
4638.00,1.83
4637.00,1.83
4636.00,1.83
4635.00,1.83
4634.00,1.83
4633.00,1.84
4632.00,1.84
4631.00,1.84
4630.00,1.84
4629.00,1.84
4628.00,1.85
4627.00,1.85
4626.00,1.85
4625.00,1.86
4624.00,1.86
4623.00,1.86
4622.00,1.87
4621.00,1.87
4620.00,1.87
4619.00,1.88
4618.00,1.88
4617.00,1.88
4616.00,1.89
4615.00,1.89
4614.00,1.89
4613.00,1.89
4612.00,1.89
4611.00,1.89
4610.00,1.89
4609.00,1.90
4608.00,1.90
4607.00,1.90
4606.00,1.90
4605.00,1.90
4604.00,1.90
4603.00,1.90
4602.00,1.90
4601.00,1.90
4600.00,1.90
4599.00,1.90
4598.00,1.90
4597.00,1.90
4596.00,1.90
4595.00,1.90
4594.00,1.90
4593.00,1.89
4592.00,1.89
4591.00,1.89
4590.00,1.89
4589.00,1.89
4588.00,1.89
4587.00,1.89
4586.00,1.89
4585.00,1.88
4584.00,1.88
4583.00,1.88
4582.00,1.88
4581.00,1.88
4580.00,1.88
4579.00,1.88
4578.00,1.88
4577.00,1.88
4576.00,1.88
4575.00,1.88
4574.00,1.88
4573.00,1.88
4572.00,1.89
4571.00,1.89
4570.00,1.89
4569.00,1.89
4568.00,1.89
4567.00,1.90
4566.00,1.90
4565.00,1.90
4564.00,1.90
4563.00,1.91
4562.00,1.91
4561.00,1.91
4560.00,1.92
4559.00,1.92
4558.00,1.92
4557.00,1.93
4556.00,1.93
4555.00,1.94
4554.00,1.94
4553.00,1.94
4552.00,1.95
4551.00,1.95
4550.00,1.95
4549.00,1.95
4548.00,1.96
4547.00,1.96
4546.00,1.96
4545.00,1.96
4544.00,1.97
4543.00,1.97
4542.00,1.97
4541.00,1.97
4540.00,1.98
4539.00,1.98
4538.00,1.98
4537.00,1.98
4536.00,1.98
4535.00,1.98
4534.00,1.98
4533.00,1.99
4532.00,1.99
4531.00,1.99
4530.00,1.99
4529.00,1.99
4528.00,1.99
4527.00,1.99
4526.00,1.99
4525.00,1.99
4524.00,1.99
4523.00,1.99
4522.00,1.99
4521.00,1.99
4520.00,1.99
4519.00,2.00
4518.00,2.00
4517.00,2.00
4516.00,2.00
4515.00,2.00
4514.00,2.00
4513.00,2.00
4512.00,2.00
4511.00,2.00
4510.00,2.00
4509.00,2.00
4508.00,2.00
4507.00,2.00
4506.00,2.00
4505.00,2.00
4504.00,2.00
4503.00,2.00
4502.00,2.00
4501.00,2.00
4500.00,2.00
4499.00,2.00
4498.00,2.00
4497.00,2.00
4496.00,2.00
4495.00,2.00
4494.00,2.00
4493.00,2.00
4492.00,2.00
4491.00,2.00
4490.00,1.99
4489.00,1.99
4488.00,1.99
4487.00,1.99
4486.00,1.99
4485.00,1.98
4484.00,1.98
4483.00,1.98
4482.00,1.97
4481.00,1.97
4480.00,1.97
4479.00,1.97
4478.00,1.96
4477.00,1.96
4476.00,1.95
4475.00,1.95
4474.00,1.95
4473.00,1.94
4472.00,1.94
4471.00,1.93
4470.00,1.93
4469.00,1.92
4468.00,1.92
4467.00,1.92
4466.00,1.91
4465.00,1.91
4464.00,1.91
4463.00,1.90
4462.00,1.90
4461.00,1.90
4460.00,1.89
4459.00,1.89
4458.00,1.88
4457.00,1.88
4456.00,1.87
4455.00,1.87
4454.00,1.86
4453.00,1.85
4452.00,1.85
4451.00,1.84
4450.00,1.83
4449.00,1.82
4448.00,1.82
4447.00,1.81
4446.00,1.80
4445.00,1.79
4444.00,1.78
4443.00,1.77
4442.00,1.76
4441.00,1.75
4440.00,1.74
4439.00,1.73
4438.00,1.72
4437.00,1.71
4436.00,1.69
4435.00,1.68
4434.00,1.67
4433.00,1.66
4432.00,1.65
4431.00,1.64
4430.00,1.63
4429.00,1.62
4428.00,1.61
4427.00,1.60
4426.00,1.59
4425.00,1.58
4424.00,1.57
4423.00,1.56
4422.00,1.56
4421.00,1.55
4420.00,1.54
4419.00,1.54
4418.00,1.53
4417.00,1.53
4416.00,1.53
4415.00,1.52
4414.00,1.52
4413.00,1.52
4412.00,1.52
4411.00,1.52
4410.00,1.52
4409.00,1.52
4408.00,1.52
4407.00,1.52
4406.00,1.52
4405.00,1.53
4404.00,1.53
4403.00,1.53
4402.00,1.54
4401.00,1.54
4400.00,1.55
4399.00,1.55
4398.00,1.56
4397.00,1.56
4396.00,1.57
4395.00,1.58
4394.00,1.58
4393.00,1.59
4392.00,1.60
4391.00,1.60
4390.00,1.61
4389.00,1.62
4388.00,1.62
4387.00,1.63
4386.00,1.64
4385.00,1.64
4384.00,1.65
4383.00,1.65
4382.00,1.66
4381.00,1.67
4380.00,1.67
4379.00,1.68
4378.00,1.68
4377.00,1.68
4376.00,1.69
4375.00,1.69
4374.00,1.69
4373.00,1.69
4372.00,1.69
4371.00,1.69
4370.00,1.69
4369.00,1.68
4368.00,1.68
4367.00,1.68
4366.00,1.67
4365.00,1.67
4364.00,1.66
4363.00,1.66
4362.00,1.65
4361.00,1.65
4360.00,1.64
4359.00,1.63
4358.00,1.62
4357.00,1.62
4356.00,1.61
4355.00,1.60
4354.00,1.59
4353.00,1.59
4352.00,1.58
4351.00,1.58
4350.00,1.57
4349.00,1.57
4348.00,1.56
4347.00,1.56
4346.00,1.56
4345.00,1.55
4344.00,1.55
4343.00,1.55
4342.00,1.55
4341.00,1.55
4340.00,1.55
4339.00,1.55
4338.00,1.56
4337.00,1.56
4336.00,1.56
4335.00,1.57
4334.00,1.58
4333.00,1.58
4332.00,1.59
4331.00,1.60
4330.00,1.61
4329.00,1.61
4328.00,1.62
4327.00,1.63
4326.00,1.64
4325.00,1.65
4324.00,1.66
4323.00,1.67
4322.00,1.68
4321.00,1.69
4320.00,1.69
4319.00,1.70
4318.00,1.71
4317.00,1.72
4316.00,1.73
4315.00,1.74
4314.00,1.75
4313.00,1.76
4312.00,1.77
4311.00,1.78
4310.00,1.79
4309.00,1.79
4308.00,1.80
4307.00,1.81
4306.00,1.81
4305.00,1.82
4304.00,1.83
4303.00,1.83
4302.00,1.84
4301.00,1.84
4300.00,1.85
4299.00,1.86
4298.00,1.86
4297.00,1.87
4296.00,1.87
4295.00,1.88
4294.00,1.88
4293.00,1.89
4292.00,1.89
4291.00,1.90
4290.00,1.90
4289.00,1.91
4288.00,1.91
4287.00,1.91
4286.00,1.91
4285.00,1.92
4284.00,1.92
4283.00,1.92
4282.00,1.92
4281.00,1.92
4280.00,1.92
4279.00,1.93
4278.00,1.93
4277.00,1.93
4276.00,1.93
4275.00,1.93
4274.00,1.93
4273.00,1.92
4272.00,1.92
4271.00,1.92
4270.00,1.92
4269.00,1.91
4268.00,1.91
4267.00,1.90
4266.00,1.90
4265.00,1.90
4264.00,1.89
4263.00,1.89
4262.00,1.88
4261.00,1.87
4260.00,1.87
4259.00,1.86
4258.00,1.86
4257.00,1.85
4256.00,1.85
4255.00,1.84
4254.00,1.84
4253.00,1.83
4252.00,1.83
4251.00,1.82
4250.00,1.82
4249.00,1.82
4248.00,1.81
4247.00,1.81
4246.00,1.81
4245.00,1.81
4244.00,1.81
4243.00,1.81
4242.00,1.81
4241.00,1.82
4240.00,1.82
4239.00,1.82
4238.00,1.82
4237.00,1.82
4236.00,1.82
4235.00,1.83
4234.00,1.83
4233.00,1.83
4232.00,1.84
4231.00,1.84
4230.00,1.84
4229.00,1.84
4228.00,1.84
4227.00,1.85
4226.00,1.85
4225.00,1.85
4224.00,1.85
4223.00,1.85
4222.00,1.85
4221.00,1.85
4220.00,1.85
4219.00,1.84
4218.00,1.84
4217.00,1.84
4216.00,1.84
4215.00,1.84
4214.00,1.84
4213.00,1.84
4212.00,1.84
4211.00,1.84
4210.00,1.84
4209.00,1.84
4208.00,1.84
4207.00,1.84
4206.00,1.84
4205.00,1.84
4204.00,1.84
4203.00,1.84
4202.00,1.84
4201.00,1.84
4200.00,1.84
4199.00,1.85
4198.00,1.85
4197.00,1.85
4196.00,1.85
4195.00,1.86
4194.00,1.86
4193.00,1.86
4192.00,1.86
4191.00,1.86
4190.00,1.86
4189.00,1.86
4188.00,1.86
4187.00,1.87
4186.00,1.87
4185.00,1.87
4184.00,1.87
4183.00,1.87
4182.00,1.87
4181.00,1.88
4180.00,1.88
4179.00,1.88
4178.00,1.88
4177.00,1.88
4176.00,1.88
4175.00,1.88
4174.00,1.88
4173.00,1.88
4172.00,1.88
4171.00,1.88
4170.00,1.88
4169.00,1.88
4168.00,1.88
4167.00,1.88
4166.00,1.88
4165.00,1.88
4164.00,1.88
4163.00,1.88
4162.00,1.88
4161.00,1.88
4160.00,1.88
4159.00,1.88
4158.00,1.88
4157.00,1.88
4156.00,1.88
4155.00,1.88
4154.00,1.87
4153.00,1.87
4152.00,1.87
4151.00,1.87
4150.00,1.86
4149.00,1.86
4148.00,1.86
4147.00,1.85
4146.00,1.85
4145.00,1.85
4144.00,1.84
4143.00,1.84
4142.00,1.84
4141.00,1.83
4140.00,1.83
4139.00,1.83
4138.00,1.82
4137.00,1.82
4136.00,1.82
4135.00,1.82
4134.00,1.81
4133.00,1.81
4132.00,1.80
4131.00,1.80
4130.00,1.80
4129.00,1.79
4128.00,1.79
4127.00,1.79
4126.00,1.79
4125.00,1.79
4124.00,1.78
4123.00,1.78
4122.00,1.78
4121.00,1.78
4120.00,1.78
4119.00,1.78
4118.00,1.78
4117.00,1.78
4116.00,1.78
4115.00,1.78
4114.00,1.78
4113.00,1.78
4112.00,1.78
4111.00,1.78
4110.00,1.78
4109.00,1.78
4108.00,1.78
4107.00,1.78
4106.00,1.78
4105.00,1.78
4104.00,1.78
4103.00,1.78
4102.00,1.77
4101.00,1.77
4100.00,1.77
4099.00,1.77
4098.00,1.76
4097.00,1.76
4096.00,1.76
4095.00,1.76
4094.00,1.76
4093.00,1.76
4092.00,1.76
4091.00,1.76
4090.00,1.76
4089.00,1.76
4088.00,1.76
4087.00,1.76
4086.00,1.76
4085.00,1.76
4084.00,1.76
4083.00,1.75
4082.00,1.75
4081.00,1.75
4080.00,1.76
4079.00,1.76
4078.00,1.76
4077.00,1.77
4076.00,1.77
4075.00,1.78
4074.00,1.78
4073.00,1.79
4072.00,1.80
4071.00,1.80
4070.00,1.81
4069.00,1.81
4068.00,1.82
4067.00,1.82
4066.00,1.83
4065.00,1.83
4064.00,1.84
4063.00,1.84
4062.00,1.84
4061.00,1.85
4060.00,1.85
4059.00,1.86
4058.00,1.87
4057.00,1.87
4056.00,1.88
4055.00,1.89
4054.00,1.89
4053.00,1.90
4052.00,1.90
4051.00,1.90
4050.00,1.91
4049.00,1.91
4048.00,1.91
4047.00,1.91
4046.00,1.91
4045.00,1.91
4044.00,1.92
4043.00,1.92
4042.00,1.92
4041.00,1.93
4040.00,1.93
4039.00,1.93
4038.00,1.93
4037.00,1.94
4036.00,1.94
4035.00,1.94
4034.00,1.95
4033.00,1.95
4032.00,1.95
4031.00,1.95
4030.00,1.95
4029.00,1.96
4028.00,1.96
4027.00,1.96
4026.00,1.96
4025.00,1.96
4024.00,1.97
4023.00,1.98
4022.00,1.98
4021.00,1.99
4020.00,2.00
4019.00,2.01
4018.00,2.02
4017.00,2.03
4016.00,2.04
4015.00,2.05
4014.00,2.06
4013.00,2.07
4012.00,2.08
4011.00,2.10
4010.00,2.11
4009.00,2.12
4008.00,2.14
4007.00,2.15
4006.00,2.17
4005.00,2.18
4004.00,2.20
4003.00,2.22
4002.00,2.24
4001.00,2.26
4000.00,2.28
