创建为新数据集,样品 671 用户 Administrator 日期 星期四, 七月 25 2019
cm-1,%T
10000.00,1.24
9999.00,1.24
9998.00,1.24
9997.00,1.24
9996.00,1.24
9995.00,1.24
9994.00,1.24
9993.00,1.23
9992.00,1.23
9991.00,1.22
9990.00,1.21
9989.00,1.20
9988.00,1.19
9987.00,1.17
9986.00,1.16
9985.00,1.15
9984.00,1.14
9983.00,1.13
9982.00,1.12
9981.00,1.11
9980.00,1.11
9979.00,1.10
9978.00,1.10
9977.00,1.10
9976.00,1.11
9975.00,1.11
9974.00,1.12
9973.00,1.13
9972.00,1.14
9971.00,1.15
9970.00,1.15
9969.00,1.16
9968.00,1.17
9967.00,1.18
9966.00,1.18
9965.00,1.18
9964.00,1.18
9963.00,1.18
9962.00,1.18
9961.00,1.17
9960.00,1.16
9959.00,1.16
9958.00,1.15
9957.00,1.14
9956.00,1.13
9955.00,1.12
9954.00,1.11
9953.00,1.10
9952.00,1.09
9951.00,1.09
9950.00,1.08
9949.00,1.08
9948.00,1.07
9947.00,1.07
9946.00,1.08
9945.00,1.08
9944.00,1.08
9943.00,1.09
9942.00,1.10
9941.00,1.10
9940.00,1.11
9939.00,1.12
9938.00,1.13
9937.00,1.14
9936.00,1.15
9935.00,1.16
9934.00,1.17
9933.00,1.18
9932.00,1.19
9931.00,1.20
9930.00,1.20
9929.00,1.20
9928.00,1.21
9927.00,1.20
9926.00,1.20
9925.00,1.19
9924.00,1.18
9923.00,1.17
9922.00,1.16
9921.00,1.14
9920.00,1.13
9919.00,1.11
9918.00,1.09
9917.00,1.07
9916.00,1.05
9915.00,1.04
9914.00,1.02
9913.00,1.00
9912.00,0.99
9911.00,0.98
9910.00,0.97
9909.00,0.96
9908.00,0.95
9907.00,0.95
9906.00,0.95
9905.00,0.95
9904.00,0.96
9903.00,0.96
9902.00,0.97
9901.00,0.97
9900.00,0.98
9899.00,0.99
9898.00,0.99
9897.00,1.00
9896.00,1.01
9895.00,1.02
9894.00,1.02
9893.00,1.02
9892.00,1.03
9891.00,1.03
9890.00,1.02
9889.00,1.02
9888.00,1.02
9887.00,1.01
9886.00,1.01
9885.00,1.00
9884.00,0.99
9883.00,0.98
9882.00,0.97
9881.00,0.97
9880.00,0.96
9879.00,0.95
9878.00,0.94
9877.00,0.93
9876.00,0.93
9875.00,0.92
9874.00,0.91
9873.00,0.91
9872.00,0.91
9871.00,0.91
9870.00,0.91
9869.00,0.91
9868.00,0.91
9867.00,0.92
9866.00,0.92
9865.00,0.93
9864.00,0.94
9863.00,0.95
9862.00,0.96
9861.00,0.98
9860.00,0.99
9859.00,1.01
9858.00,1.03
9857.00,1.05
9856.00,1.06
9855.00,1.08
9854.00,1.10
9853.00,1.12
9852.00,1.13
9851.00,1.15
9850.00,1.16
9849.00,1.18
9848.00,1.19
9847.00,1.20
9846.00,1.21
9845.00,1.21
9844.00,1.22
9843.00,1.22
9842.00,1.22
9841.00,1.21
9840.00,1.21
9839.00,1.20
9838.00,1.19
9837.00,1.18
9836.00,1.17
9835.00,1.16
9834.00,1.15
9833.00,1.13
9832.00,1.12
9831.00,1.11
9830.00,1.09
9829.00,1.08
9828.00,1.06
9827.00,1.05
9826.00,1.04
9825.00,1.03
9824.00,1.02
9823.00,1.02
9822.00,1.01
9821.00,1.01
9820.00,1.01
9819.00,1.01
9818.00,1.01
9817.00,1.02
9816.00,1.02
9815.00,1.03
9814.00,1.03
9813.00,1.04
9812.00,1.05
9811.00,1.06
9810.00,1.07
9809.00,1.07
9808.00,1.08
9807.00,1.08
9806.00,1.09
9805.00,1.09
9804.00,1.09
9803.00,1.09
9802.00,1.09
9801.00,1.09
9800.00,1.09
9799.00,1.08
9798.00,1.08
9797.00,1.07
9796.00,1.07
9795.00,1.07
9794.00,1.06
9793.00,1.06
9792.00,1.06
9791.00,1.06
9790.00,1.05
9789.00,1.05
9788.00,1.06
9787.00,1.06
9786.00,1.06
9785.00,1.06
9784.00,1.06
9783.00,1.06
9782.00,1.05
9781.00,1.05
9780.00,1.04
9779.00,1.04
9778.00,1.03
9777.00,1.02
9776.00,1.01
9775.00,0.99
9774.00,0.98
9773.00,0.96
9772.00,0.95
9771.00,0.93
9770.00,0.91
9769.00,0.89
9768.00,0.88
9767.00,0.86
9766.00,0.85
9765.00,0.84
9764.00,0.83
9763.00,0.82
9762.00,0.81
9761.00,0.81
9760.00,0.80
9759.00,0.80
9758.00,0.80
9757.00,0.81
9756.00,0.81
9755.00,0.82
9754.00,0.82
9753.00,0.83
9752.00,0.83
9751.00,0.84
9750.00,0.85
9749.00,0.85
9748.00,0.86
9747.00,0.87
9746.00,0.88
9745.00,0.89
9744.00,0.89
9743.00,0.90
9742.00,0.91
9741.00,0.92
9740.00,0.93
9739.00,0.94
9738.00,0.95
9737.00,0.96
9736.00,0.97
9735.00,0.98
9734.00,0.99
9733.00,1.00
9732.00,1.01
9731.00,1.03
9730.00,1.04
9729.00,1.05
9728.00,1.07
9727.00,1.08
9726.00,1.09
9725.00,1.10
9724.00,1.12
9723.00,1.13
9722.00,1.14
9721.00,1.15
9720.00,1.16
9719.00,1.17
9718.00,1.18
9717.00,1.19
9716.00,1.19
9715.00,1.20
9714.00,1.20
9713.00,1.20
9712.00,1.20
9711.00,1.19
9710.00,1.19
9709.00,1.18
9708.00,1.17
9707.00,1.16
9706.00,1.15
9705.00,1.14
9704.00,1.12
9703.00,1.11
9702.00,1.10
9701.00,1.08
9700.00,1.07
9699.00,1.05
9698.00,1.04
9697.00,1.02
9696.00,1.01
9695.00,1.00
9694.00,0.98
9693.00,0.97
9692.00,0.96
9691.00,0.95
9690.00,0.94
9689.00,0.93
9688.00,0.92
9687.00,0.92
9686.00,0.91
9685.00,0.90
9684.00,0.90
9683.00,0.90
9682.00,0.89
9681.00,0.89
9680.00,0.89
9679.00,0.89
9678.00,0.89
9677.00,0.90
9676.00,0.90
9675.00,0.90
9674.00,0.90
9673.00,0.91
9672.00,0.91
9671.00,0.91
9670.00,0.91
9669.00,0.91
9668.00,0.91
9667.00,0.91
9666.00,0.91
9665.00,0.91
9664.00,0.91
9663.00,0.91
9662.00,0.90
9661.00,0.90
9660.00,0.90
9659.00,0.90
9658.00,0.90
9657.00,0.89
9656.00,0.89
9655.00,0.89
9654.00,0.89
9653.00,0.89
9652.00,0.89
9651.00,0.89
9650.00,0.90
9649.00,0.90
9648.00,0.90
9647.00,0.91
9646.00,0.91
9645.00,0.92
9644.00,0.93
9643.00,0.93
9642.00,0.94
9641.00,0.94
9640.00,0.95
9639.00,0.95
9638.00,0.96
9637.00,0.96
9636.00,0.97
9635.00,0.97
9634.00,0.98
9633.00,0.98
9632.00,0.98
9631.00,0.99
9630.00,0.99
9629.00,1.00
9628.00,1.00
9627.00,1.01
9626.00,1.02
9625.00,1.02
9624.00,1.03
9623.00,1.04
9622.00,1.05
9621.00,1.06
9620.00,1.06
9619.00,1.07
9618.00,1.07
9617.00,1.07
9616.00,1.07
9615.00,1.07
9614.00,1.06
9613.00,1.06
9612.00,1.05
9611.00,1.04
9610.00,1.03
9609.00,1.02
9608.00,1.01
9607.00,1.00
9606.00,0.99
9605.00,0.99
9604.00,0.98
9603.00,0.97
9602.00,0.97
9601.00,0.97
9600.00,0.97
9599.00,0.97
9598.00,0.97
9597.00,0.98
9596.00,0.99
9595.00,1.00
9594.00,1.00
9593.00,1.01
9592.00,1.02
9591.00,1.03
9590.00,1.04
9589.00,1.04
9588.00,1.05
9587.00,1.05
9586.00,1.05
9585.00,1.05
9584.00,1.05
9583.00,1.05
9582.00,1.04
9581.00,1.04
9580.00,1.03
9579.00,1.02
9578.00,1.01
9577.00,1.00
9576.00,0.99
9575.00,0.98
9574.00,0.96
9573.00,0.95
9572.00,0.94
9571.00,0.93
9570.00,0.92
9569.00,0.91
9568.00,0.90
9567.00,0.89
9566.00,0.89
9565.00,0.89
9564.00,0.89
9563.00,0.89
9562.00,0.89
9561.00,0.90
9560.00,0.90
9559.00,0.92
9558.00,0.93
9557.00,0.94
9556.00,0.96
9555.00,0.97
9554.00,0.99
9553.00,1.00
9552.00,1.02
9551.00,1.03
9550.00,1.04
9549.00,1.05
9548.00,1.06
9547.00,1.07
9546.00,1.08
9545.00,1.09
9544.00,1.09
9543.00,1.10
9542.00,1.10
9541.00,1.10
9540.00,1.10
9539.00,1.10
9538.00,1.09
9537.00,1.08
9536.00,1.08
9535.00,1.07
9534.00,1.06
9533.00,1.06
9532.00,1.05
9531.00,1.04
9530.00,1.03
9529.00,1.03
9528.00,1.02
9527.00,1.01
9526.00,1.00
9525.00,1.00
9524.00,0.99
9523.00,0.99
9522.00,0.98
9521.00,0.98
9520.00,0.98
9519.00,0.98
9518.00,0.97
9517.00,0.97
9516.00,0.97
9515.00,0.97
9514.00,0.96
9513.00,0.96
9512.00,0.96
9511.00,0.95
9510.00,0.94
9509.00,0.94
9508.00,0.93
9507.00,0.93
9506.00,0.92
9505.00,0.91
9504.00,0.91
9503.00,0.90
9502.00,0.90
9501.00,0.90
9500.00,0.90
9499.00,0.90
9498.00,0.91
9497.00,0.91
9496.00,0.92
9495.00,0.93
9494.00,0.94
9493.00,0.95
9492.00,0.96
9491.00,0.97
9490.00,0.98
9489.00,1.00
9488.00,1.01
9487.00,1.02
9486.00,1.02
9485.00,1.03
9484.00,1.04
9483.00,1.04
9482.00,1.04
9481.00,1.04
9480.00,1.04
9479.00,1.04
9478.00,1.04
9477.00,1.04
9476.00,1.04
9475.00,1.04
9474.00,1.04
9473.00,1.05
9472.00,1.05
9471.00,1.05
9470.00,1.05
9469.00,1.06
9468.00,1.06
9467.00,1.07
9466.00,1.07
9465.00,1.08
9464.00,1.09
9463.00,1.09
9462.00,1.10
9461.00,1.10
9460.00,1.11
9459.00,1.11
9458.00,1.11
9457.00,1.11
9456.00,1.10
9455.00,1.10
9454.00,1.09
9453.00,1.08
9452.00,1.07
9451.00,1.06
9450.00,1.05
9449.00,1.04
9448.00,1.03
9447.00,1.02
9446.00,1.01
9445.00,1.00
9444.00,0.99
9443.00,0.98
9442.00,0.98
9441.00,0.98
9440.00,0.98
9439.00,0.98
9438.00,0.99
9437.00,1.00
9436.00,1.01
9435.00,1.01
9434.00,1.02
9433.00,1.03
9432.00,1.04
9431.00,1.05
9430.00,1.05
9429.00,1.06
9428.00,1.06
9427.00,1.06
9426.00,1.05
9425.00,1.05
9424.00,1.05
9423.00,1.04
9422.00,1.03
9421.00,1.02
9420.00,1.01
9419.00,1.00
9418.00,1.00
9417.00,0.99
9416.00,0.99
9415.00,0.98
9414.00,0.98
9413.00,0.99
9412.00,0.99
9411.00,0.99
9410.00,1.00
9409.00,1.01
9408.00,1.01
9407.00,1.02
9406.00,1.02
9405.00,1.03
9404.00,1.03
9403.00,1.04
9402.00,1.04
9401.00,1.04
9400.00,1.04
9399.00,1.04
9398.00,1.03
9397.00,1.03
9396.00,1.03
9395.00,1.03
9394.00,1.02
9393.00,1.02
9392.00,1.02
9391.00,1.02
9390.00,1.02
9389.00,1.03
9388.00,1.03
9387.00,1.03
9386.00,1.04
9385.00,1.04
9384.00,1.05
9383.00,1.05
9382.00,1.06
9381.00,1.06
9380.00,1.07
9379.00,1.07
9378.00,1.07
9377.00,1.07
9376.00,1.07
9375.00,1.07
9374.00,1.06
9373.00,1.06
9372.00,1.05
9371.00,1.05
9370.00,1.04
9369.00,1.03
9368.00,1.02
9367.00,1.01
9366.00,1.00
9365.00,0.99
9364.00,0.98
9363.00,0.97
9362.00,0.96
9361.00,0.95
9360.00,0.94
9359.00,0.94
9358.00,0.93
9357.00,0.92
9356.00,0.92
9355.00,0.92
9354.00,0.92
9353.00,0.92
9352.00,0.93
9351.00,0.94
9350.00,0.95
9349.00,0.96
9348.00,0.97
9347.00,0.99
9346.00,1.00
9345.00,1.02
9344.00,1.03
9343.00,1.05
9342.00,1.06
9341.00,1.08
9340.00,1.09
9339.00,1.10
9338.00,1.11
9337.00,1.11
9336.00,1.12
9335.00,1.12
9334.00,1.12
9333.00,1.12
9332.00,1.11
9331.00,1.11
9330.00,1.10
9329.00,1.09
9328.00,1.09
9327.00,1.08
9326.00,1.08
9325.00,1.07
9324.00,1.07
9323.00,1.07
9322.00,1.06
9321.00,1.06
9320.00,1.06
9319.00,1.06
9318.00,1.06
9317.00,1.07
9316.00,1.07
9315.00,1.07
9314.00,1.07
9313.00,1.08
9312.00,1.08
9311.00,1.08
9310.00,1.08
9309.00,1.08
9308.00,1.09
9307.00,1.08
9306.00,1.08
9305.00,1.08
9304.00,1.08
9303.00,1.08
9302.00,1.08
9301.00,1.08
9300.00,1.07
9299.00,1.07
9298.00,1.07
9297.00,1.07
9296.00,1.07
9295.00,1.07
9294.00,1.07
9293.00,1.07
9292.00,1.07
9291.00,1.07
9290.00,1.07
9289.00,1.07
9288.00,1.07
9287.00,1.07
9286.00,1.07
9285.00,1.07
9284.00,1.08
9283.00,1.08
9282.00,1.08
9281.00,1.08
9280.00,1.08
9279.00,1.08
9278.00,1.09
9277.00,1.09
9276.00,1.10
9275.00,1.10
9274.00,1.11
9273.00,1.12
9272.00,1.13
9271.00,1.14
9270.00,1.15
9269.00,1.16
9268.00,1.16
9267.00,1.17
9266.00,1.18
9265.00,1.18
9264.00,1.19
9263.00,1.19
9262.00,1.19
9261.00,1.19
9260.00,1.19
9259.00,1.19
9258.00,1.19
9257.00,1.19
9256.00,1.18
9255.00,1.18
9254.00,1.18
9253.00,1.17
9252.00,1.17
9251.00,1.17
9250.00,1.17
9249.00,1.17
9248.00,1.16
9247.00,1.16
9246.00,1.16
9245.00,1.16
9244.00,1.16
9243.00,1.16
9242.00,1.16
9241.00,1.16
9240.00,1.16
9239.00,1.16
9238.00,1.15
9237.00,1.15
9236.00,1.15
9235.00,1.14
9234.00,1.14
9233.00,1.13
9232.00,1.13
9231.00,1.13
9230.00,1.12
9229.00,1.12
9228.00,1.11
9227.00,1.11
9226.00,1.11
9225.00,1.11
9224.00,1.11
9223.00,1.11
9222.00,1.11
9221.00,1.11
9220.00,1.12
9219.00,1.12
9218.00,1.12
9217.00,1.12
9216.00,1.12
9215.00,1.12
9214.00,1.11
9213.00,1.11
9212.00,1.11
9211.00,1.10
9210.00,1.10
9209.00,1.09
9208.00,1.08
9207.00,1.07
9206.00,1.06
9205.00,1.05
9204.00,1.04
9203.00,1.02
9202.00,1.01
9201.00,1.00
9200.00,0.99
9199.00,0.98
9198.00,0.97
9197.00,0.96
9196.00,0.95
9195.00,0.95
9194.00,0.95
9193.00,0.95
9192.00,0.95
9191.00,0.95
9190.00,0.95
9189.00,0.96
9188.00,0.97
9187.00,0.98
9186.00,0.99
9185.00,0.99
9184.00,1.00
9183.00,1.01
9182.00,1.02
9181.00,1.02
9180.00,1.03
9179.00,1.03
9178.00,1.03
9177.00,1.03
9176.00,1.03
9175.00,1.03
9174.00,1.03
9173.00,1.02
9172.00,1.02
9171.00,1.02
9170.00,1.01
9169.00,1.01
9168.00,1.01
9167.00,1.01
9166.00,1.01
9165.00,1.01
9164.00,1.01
9163.00,1.02
9162.00,1.02
9161.00,1.03
9160.00,1.03
9159.00,1.04
9158.00,1.05
9157.00,1.05
9156.00,1.06
9155.00,1.07
9154.00,1.08
9153.00,1.08
9152.00,1.08
9151.00,1.09
9150.00,1.09
9149.00,1.09
9148.00,1.09
9147.00,1.08
9146.00,1.08
9145.00,1.08
9144.00,1.07
9143.00,1.07
9142.00,1.07
9141.00,1.06
9140.00,1.06
9139.00,1.05
9138.00,1.05
9137.00,1.04
9136.00,1.04
9135.00,1.03
9134.00,1.03
9133.00,1.03
9132.00,1.03
9131.00,1.03
9130.00,1.02
9129.00,1.02
9128.00,1.02
9127.00,1.02
9126.00,1.02
9125.00,1.02
9124.00,1.02
9123.00,1.02
9122.00,1.02
9121.00,1.03
9120.00,1.03
9119.00,1.03
9118.00,1.04
9117.00,1.04
9116.00,1.04
9115.00,1.05
9114.00,1.05
9113.00,1.05
9112.00,1.06
9111.00,1.06
9110.00,1.06
9109.00,1.06
9108.00,1.06
9107.00,1.06
9106.00,1.06
9105.00,1.06
9104.00,1.06
9103.00,1.05
9102.00,1.05
9101.00,1.04
9100.00,1.03
9099.00,1.03
9098.00,1.02
9097.00,1.02
9096.00,1.01
9095.00,1.01
9094.00,1.00
9093.00,1.00
9092.00,0.99
9091.00,0.99
9090.00,0.99
9089.00,0.99
9088.00,0.99
9087.00,0.99
9086.00,1.00
9085.00,1.01
9084.00,1.01
9083.00,1.02
9082.00,1.04
9081.00,1.05
9080.00,1.06
9079.00,1.08
9078.00,1.09
9077.00,1.10
9076.00,1.12
9075.00,1.13
9074.00,1.14
9073.00,1.15
9072.00,1.16
9071.00,1.17
9070.00,1.17
9069.00,1.18
9068.00,1.18
9067.00,1.17
9066.00,1.16
9065.00,1.15
9064.00,1.14
9063.00,1.13
9062.00,1.11
9061.00,1.09
9060.00,1.08
9059.00,1.06
9058.00,1.04
9057.00,1.03
9056.00,1.01
9055.00,1.00
9054.00,0.99
9053.00,0.98
9052.00,0.97
9051.00,0.97
9050.00,0.97
9049.00,0.97
9048.00,0.98
9047.00,0.98
9046.00,1.00
9045.00,1.01
9044.00,1.02
9043.00,1.04
9042.00,1.05
9041.00,1.07
9040.00,1.08
9039.00,1.09
9038.00,1.11
9037.00,1.12
9036.00,1.13
9035.00,1.14
9034.00,1.15
9033.00,1.16
9032.00,1.16
9031.00,1.17
9030.00,1.17
9029.00,1.17
9028.00,1.16
9027.00,1.16
9026.00,1.15
9025.00,1.14
9024.00,1.13
9023.00,1.12
9022.00,1.11
9021.00,1.10
9020.00,1.09
9019.00,1.08
9018.00,1.07
9017.00,1.06
9016.00,1.05
9015.00,1.04
9014.00,1.04
9013.00,1.03
9012.00,1.02
9011.00,1.02
9010.00,1.02
9009.00,1.02
9008.00,1.02
9007.00,1.03
9006.00,1.03
9005.00,1.04
9004.00,1.04
9003.00,1.05
9002.00,1.06
9001.00,1.06
9000.00,1.07
8999.00,1.08
8998.00,1.08
8997.00,1.09
8996.00,1.10
8995.00,1.10
8994.00,1.11
8993.00,1.11
8992.00,1.11
8991.00,1.11
8990.00,1.11
8989.00,1.11
8988.00,1.11
8987.00,1.10
8986.00,1.10
8985.00,1.09
8984.00,1.09
8983.00,1.08
8982.00,1.08
8981.00,1.07
8980.00,1.07
8979.00,1.06
8978.00,1.06
8977.00,1.05
8976.00,1.05
8975.00,1.04
8974.00,1.04
8973.00,1.04
8972.00,1.03
8971.00,1.03
8970.00,1.03
8969.00,1.03
8968.00,1.03
8967.00,1.03
8966.00,1.03
8965.00,1.03
8964.00,1.03
8963.00,1.03
8962.00,1.03
8961.00,1.03
8960.00,1.03
8959.00,1.03
8958.00,1.03
8957.00,1.04
8956.00,1.04
8955.00,1.04
8954.00,1.04
8953.00,1.05
8952.00,1.05
8951.00,1.05
8950.00,1.06
8949.00,1.06
8948.00,1.07
8947.00,1.08
8946.00,1.08
8945.00,1.09
8944.00,1.10
8943.00,1.10
8942.00,1.11
8941.00,1.11
8940.00,1.11
8939.00,1.12
8938.00,1.12
8937.00,1.12
8936.00,1.12
8935.00,1.12
8934.00,1.12
8933.00,1.13
8932.00,1.13
8931.00,1.13
8930.00,1.13
8929.00,1.13
8928.00,1.13
8927.00,1.13
8926.00,1.13
8925.00,1.12
8924.00,1.12
8923.00,1.12
8922.00,1.11
8921.00,1.11
8920.00,1.10
8919.00,1.10
8918.00,1.09
8917.00,1.08
8916.00,1.08
8915.00,1.07
8914.00,1.06
8913.00,1.05
8912.00,1.05
8911.00,1.04
8910.00,1.04
8909.00,1.04
8908.00,1.04
8907.00,1.04
8906.00,1.04
8905.00,1.04
8904.00,1.04
8903.00,1.05
8902.00,1.05
8901.00,1.05
8900.00,1.06
8899.00,1.06
8898.00,1.06
8897.00,1.07
8896.00,1.07
8895.00,1.07
8894.00,1.07
8893.00,1.07
8892.00,1.07
8891.00,1.07
8890.00,1.08
8889.00,1.08
8888.00,1.08
8887.00,1.08
8886.00,1.09
8885.00,1.09
8884.00,1.10
8883.00,1.11
8882.00,1.12
8881.00,1.13
8880.00,1.14
8879.00,1.15
8878.00,1.16
8877.00,1.16
8876.00,1.17
8875.00,1.18
8874.00,1.19
8873.00,1.19
8872.00,1.19
8871.00,1.20
8870.00,1.20
8869.00,1.19
8868.00,1.19
8867.00,1.18
8866.00,1.17
8865.00,1.17
8864.00,1.15
8863.00,1.14
8862.00,1.13
8861.00,1.12
8860.00,1.10
8859.00,1.09
8858.00,1.07
8857.00,1.06
8856.00,1.04
8855.00,1.03
8854.00,1.02
8853.00,1.00
8852.00,0.99
8851.00,0.98
8850.00,0.97
8849.00,0.96
8848.00,0.96
8847.00,0.95
8846.00,0.95
8845.00,0.95
8844.00,0.95
8843.00,0.95
8842.00,0.95
8841.00,0.95
8840.00,0.95
8839.00,0.96
8838.00,0.96
8837.00,0.96
8836.00,0.97
8835.00,0.97
8834.00,0.98
8833.00,0.98
8832.00,0.99
8831.00,0.99
8830.00,0.99
8829.00,1.00
8828.00,1.00
8827.00,1.01
8826.00,1.01
8825.00,1.02
8824.00,1.02
8823.00,1.03
8822.00,1.03
8821.00,1.04
8820.00,1.04
8819.00,1.05
8818.00,1.06
8817.00,1.06
8816.00,1.07
8815.00,1.08
8814.00,1.08
8813.00,1.09
8812.00,1.10
8811.00,1.11
8810.00,1.12
8809.00,1.13
8808.00,1.14
8807.00,1.15
8806.00,1.16
8805.00,1.17
8804.00,1.18
8803.00,1.19
8802.00,1.19
8801.00,1.20
8800.00,1.20
8799.00,1.21
8798.00,1.21
8797.00,1.21
8796.00,1.21
8795.00,1.20
8794.00,1.20
8793.00,1.19
8792.00,1.19
8791.00,1.18
8790.00,1.17
8789.00,1.17
8788.00,1.16
8787.00,1.16
8786.00,1.15
8785.00,1.15
8784.00,1.14
8783.00,1.13
8782.00,1.13
8781.00,1.12
8780.00,1.12
8779.00,1.11
8778.00,1.11
8777.00,1.10
8776.00,1.10
8775.00,1.09
8774.00,1.08
8773.00,1.07
8772.00,1.06
8771.00,1.05
8770.00,1.04
8769.00,1.03
8768.00,1.01
8767.00,1.00
8766.00,0.99
8765.00,0.97
8764.00,0.96
8763.00,0.95
8762.00,0.95
8761.00,0.94
8760.00,0.93
8759.00,0.93
8758.00,0.92
8757.00,0.92
8756.00,0.92
8755.00,0.92
8754.00,0.93
8753.00,0.93
8752.00,0.94
8751.00,0.94
8750.00,0.95
8749.00,0.96
8748.00,0.96
8747.00,0.97
8746.00,0.97
8745.00,0.98
8744.00,0.98
8743.00,0.99
8742.00,0.99
8741.00,1.00
8740.00,1.00
8739.00,1.00
8738.00,1.01
8737.00,1.01
8736.00,1.01
8735.00,1.01
8734.00,1.02
8733.00,1.02
8732.00,1.02
8731.00,1.02
8730.00,1.02
8729.00,1.02
8728.00,1.02
8727.00,1.02
8726.00,1.02
8725.00,1.02
8724.00,1.02
8723.00,1.01
8722.00,1.01
8721.00,1.01
8720.00,1.01
8719.00,1.00
8718.00,1.00
8717.00,0.99
8716.00,0.99
8715.00,0.99
8714.00,0.99
8713.00,0.99
8712.00,0.99
8711.00,0.99
8710.00,1.00
8709.00,1.00
8708.00,1.01
8707.00,1.02
8706.00,1.03
8705.00,1.04
8704.00,1.05
8703.00,1.06
8702.00,1.07
8701.00,1.08
8700.00,1.09
8699.00,1.10
8698.00,1.10
8697.00,1.11
8696.00,1.11
8695.00,1.12
8694.00,1.12
8693.00,1.11
8692.00,1.11
8691.00,1.11
8690.00,1.10
8689.00,1.10
8688.00,1.09
8687.00,1.08
8686.00,1.08
8685.00,1.07
8684.00,1.07
8683.00,1.06
8682.00,1.05
8681.00,1.05
8680.00,1.05
8679.00,1.04
8678.00,1.04
8677.00,1.04
8676.00,1.04
8675.00,1.04
8674.00,1.04
8673.00,1.04
8672.00,1.04
8671.00,1.04
8670.00,1.04
8669.00,1.04
8668.00,1.04
8667.00,1.04
8666.00,1.04
8665.00,1.04
8664.00,1.04
8663.00,1.04
8662.00,1.04
8661.00,1.04
8660.00,1.04
8659.00,1.04
8658.00,1.05
8657.00,1.05
8656.00,1.04
8655.00,1.04
8654.00,1.05
8653.00,1.05
8652.00,1.05
8651.00,1.05
8650.00,1.05
8649.00,1.05
8648.00,1.05
8647.00,1.05
8646.00,1.05
8645.00,1.05
8644.00,1.05
8643.00,1.04
8642.00,1.04
8641.00,1.04
8640.00,1.04
8639.00,1.04
8638.00,1.04
8637.00,1.03
8636.00,1.03
8635.00,1.03
8634.00,1.03
8633.00,1.03
8632.00,1.03
8631.00,1.03
8630.00,1.03
8629.00,1.03
8628.00,1.03
8627.00,1.04
8626.00,1.04
8625.00,1.04
8624.00,1.05
8623.00,1.05
8622.00,1.06
8621.00,1.06
8620.00,1.07
8619.00,1.07
8618.00,1.07
8617.00,1.08
8616.00,1.08
8615.00,1.08
8614.00,1.08
8613.00,1.09
8612.00,1.09
8611.00,1.09
8610.00,1.09
8609.00,1.09
8608.00,1.08
8607.00,1.08
8606.00,1.08
8605.00,1.07
8604.00,1.07
8603.00,1.06
8602.00,1.06
8601.00,1.05
8600.00,1.05
8599.00,1.04
8598.00,1.04
8597.00,1.04
8596.00,1.03
8595.00,1.03
8594.00,1.02
8593.00,1.02
8592.00,1.01
8591.00,1.01
8590.00,1.01
8589.00,1.00
8588.00,1.00
8587.00,0.99
8586.00,0.99
8585.00,0.98
8584.00,0.98
8583.00,0.98
8582.00,0.98
8581.00,0.97
8580.00,0.97
8579.00,0.97
8578.00,0.97
8577.00,0.97
8576.00,0.97
8575.00,0.98
8574.00,0.98
8573.00,0.98
8572.00,0.98
8571.00,0.99
8570.00,0.99
8569.00,0.99
8568.00,1.00
8567.00,1.00
8566.00,1.00
8565.00,1.00
8564.00,1.01
8563.00,1.01
8562.00,1.01
8561.00,1.01
8560.00,1.00
8559.00,1.00
8558.00,1.00
8557.00,1.00
8556.00,1.00
8555.00,0.99
8554.00,0.99
8553.00,0.99
8552.00,0.98
8551.00,0.98
8550.00,0.98
8549.00,0.98
8548.00,0.97
8547.00,0.97
8546.00,0.97
8545.00,0.98
8544.00,0.98
8543.00,0.98
8542.00,0.98
8541.00,0.99
8540.00,0.99
8539.00,0.99
8538.00,1.00
8537.00,1.00
8536.00,1.00
8535.00,1.00
8534.00,1.00
8533.00,1.00
8532.00,1.01
8531.00,1.01
8530.00,1.01
8529.00,1.01
8528.00,1.00
8527.00,1.00
8526.00,1.00
8525.00,1.00
8524.00,1.00
8523.00,1.00
8522.00,1.00
8521.00,1.00
8520.00,1.01
8519.00,1.01
8518.00,1.01
8517.00,1.02
8516.00,1.02
8515.00,1.02
8514.00,1.03
8513.00,1.03
8512.00,1.03
8511.00,1.03
8510.00,1.03
8509.00,1.03
8508.00,1.03
8507.00,1.02
8506.00,1.02
8505.00,1.01
8504.00,1.01
8503.00,1.01
8502.00,1.00
8501.00,1.00
8500.00,0.99
8499.00,0.99
8498.00,0.98
8497.00,0.98
8496.00,0.98
8495.00,0.98
8494.00,0.98
8493.00,0.98
8492.00,0.98
8491.00,0.99
8490.00,0.99
8489.00,1.00
8488.00,1.01
8487.00,1.01
8486.00,1.02
8485.00,1.02
8484.00,1.02
8483.00,1.03
8482.00,1.03
8481.00,1.03
8480.00,1.03
8479.00,1.03
8478.00,1.03
8477.00,1.03
8476.00,1.03
8475.00,1.02
8474.00,1.02
8473.00,1.01
8472.00,1.01
8471.00,1.01
8470.00,1.00
8469.00,1.00
8468.00,1.00
8467.00,1.00
8466.00,1.00
8465.00,1.00
8464.00,1.00
8463.00,1.00
8462.00,1.00
8461.00,1.00
8460.00,1.00
8459.00,1.01
8458.00,1.01
8457.00,1.01
8456.00,1.01
8455.00,1.02
8454.00,1.02
8453.00,1.02
8452.00,1.01
8451.00,1.01
8450.00,1.01
8449.00,1.01
8448.00,1.00
8447.00,1.00
8446.00,0.99
8445.00,0.99
8444.00,0.99
8443.00,0.98
8442.00,0.98
8441.00,0.98
8440.00,0.98
8439.00,0.98
8438.00,0.98
8437.00,0.98
8436.00,0.99
8435.00,0.99
8434.00,1.00
8433.00,1.01
8432.00,1.01
8431.00,1.02
8430.00,1.03
8429.00,1.04
8428.00,1.05
8427.00,1.06
8426.00,1.07
8425.00,1.07
8424.00,1.08
8423.00,1.08
8422.00,1.09
8421.00,1.09
8420.00,1.09
8419.00,1.10
8418.00,1.10
8417.00,1.09
8416.00,1.09
8415.00,1.09
8414.00,1.09
8413.00,1.08
8412.00,1.08
8411.00,1.07
8410.00,1.07
8409.00,1.07
8408.00,1.06
8407.00,1.06
8406.00,1.06
8405.00,1.06
8404.00,1.06
8403.00,1.05
8402.00,1.05
8401.00,1.05
8400.00,1.05
8399.00,1.04
8398.00,1.04
8397.00,1.04
8396.00,1.04
8395.00,1.04
8394.00,1.04
8393.00,1.04
8392.00,1.04
8391.00,1.04
8390.00,1.04
8389.00,1.04
8388.00,1.05
8387.00,1.05
8386.00,1.05
8385.00,1.05
8384.00,1.06
8383.00,1.06
8382.00,1.06
8381.00,1.06
8380.00,1.06
8379.00,1.06
8378.00,1.06
8377.00,1.06
8376.00,1.06
8375.00,1.05
8374.00,1.05
8373.00,1.04
8372.00,1.04
8371.00,1.03
8370.00,1.03
8369.00,1.02
8368.00,1.01
8367.00,1.01
8366.00,1.00
8365.00,1.00
8364.00,1.00
8363.00,1.00
8362.00,0.99
8361.00,0.99
8360.00,1.00
8359.00,1.00
8358.00,1.00
8357.00,1.01
8356.00,1.01
8355.00,1.02
8354.00,1.02
8353.00,1.02
8352.00,1.03
8351.00,1.03
8350.00,1.03
8349.00,1.03
8348.00,1.03
8347.00,1.04
8346.00,1.04
8345.00,1.03
8344.00,1.03
8343.00,1.03
8342.00,1.03
8341.00,1.03
8340.00,1.03
8339.00,1.02
8338.00,1.02
8337.00,1.02
8336.00,1.02
8335.00,1.02
8334.00,1.02
8333.00,1.02
8332.00,1.02
8331.00,1.03
8330.00,1.03
8329.00,1.03
8328.00,1.03
8327.00,1.03
8326.00,1.03
8325.00,1.03
8324.00,1.03
8323.00,1.03
8322.00,1.03
8321.00,1.04
8320.00,1.04
8319.00,1.04
8318.00,1.03
8317.00,1.03
8316.00,1.03
8315.00,1.03
8314.00,1.03
8313.00,1.03
8312.00,1.03
8311.00,1.03
8310.00,1.03
8309.00,1.03
8308.00,1.04
8307.00,1.04
8306.00,1.04
8305.00,1.05
8304.00,1.05
8303.00,1.05
8302.00,1.05
8301.00,1.05
8300.00,1.06
8299.00,1.06
8298.00,1.06
8297.00,1.06
8296.00,1.06
8295.00,1.06
8294.00,1.05
8293.00,1.05
8292.00,1.05
8291.00,1.05
8290.00,1.04
8289.00,1.04
8288.00,1.04
8287.00,1.04
8286.00,1.04
8285.00,1.04
8284.00,1.04
8283.00,1.04
8282.00,1.05
8281.00,1.05
8280.00,1.05
8279.00,1.06
8278.00,1.06
8277.00,1.07
8276.00,1.07
8275.00,1.08
8274.00,1.08
8273.00,1.08
8272.00,1.08
8271.00,1.08
8270.00,1.08
8269.00,1.08
8268.00,1.08
8267.00,1.08
8266.00,1.08
8265.00,1.07
8264.00,1.07
8263.00,1.07
8262.00,1.07
8261.00,1.06
8260.00,1.06
8259.00,1.06
8258.00,1.06
8257.00,1.06
8256.00,1.07
8255.00,1.07
8254.00,1.07
8253.00,1.08
8252.00,1.08
8251.00,1.09
8250.00,1.09
8249.00,1.09
8248.00,1.10
8247.00,1.10
8246.00,1.10
8245.00,1.10
8244.00,1.10
8243.00,1.10
8242.00,1.09
8241.00,1.09
8240.00,1.09
8239.00,1.08
8238.00,1.07
8237.00,1.06
8236.00,1.05
8235.00,1.04
8234.00,1.03
8233.00,1.02
8232.00,1.02
8231.00,1.01
8230.00,1.00
8229.00,1.00
8228.00,0.99
8227.00,0.99
8226.00,0.99
8225.00,0.98
8224.00,0.98
8223.00,0.98
8222.00,0.98
8221.00,0.99
8220.00,0.99
8219.00,0.99
8218.00,0.99
8217.00,1.00
8216.00,1.00
8215.00,1.00
8214.00,1.01
8213.00,1.01
8212.00,1.01
8211.00,1.01
8210.00,1.01
8209.00,1.00
8208.00,1.00
8207.00,1.00
8206.00,1.00
8205.00,1.00
8204.00,0.99
8203.00,0.99
8202.00,0.99
8201.00,0.99
8200.00,1.00
8199.00,1.00
8198.00,1.00
8197.00,1.00
8196.00,1.00
8195.00,1.01
8194.00,1.01
8193.00,1.01
8192.00,1.02
8191.00,1.02
8190.00,1.03
8189.00,1.03
8188.00,1.04
8187.00,1.04
8186.00,1.04
8185.00,1.04
8184.00,1.05
8183.00,1.05
8182.00,1.05
8181.00,1.05
8180.00,1.05
8179.00,1.05
8178.00,1.06
8177.00,1.06
8176.00,1.06
8175.00,1.06
8174.00,1.06
8173.00,1.07
8172.00,1.07
8171.00,1.07
8170.00,1.08
8169.00,1.08
8168.00,1.08
8167.00,1.09
8166.00,1.09
8165.00,1.09
8164.00,1.09
8163.00,1.10
8162.00,1.10
8161.00,1.10
8160.00,1.11
8159.00,1.11
8158.00,1.11
8157.00,1.11
8156.00,1.12
8155.00,1.12
8154.00,1.12
8153.00,1.12
8152.00,1.13
8151.00,1.13
8150.00,1.13
8149.00,1.13
8148.00,1.13
8147.00,1.13
8146.00,1.13
8145.00,1.13
8144.00,1.13
8143.00,1.13
8142.00,1.13
8141.00,1.13
8140.00,1.13
8139.00,1.13
8138.00,1.12
8137.00,1.12
8136.00,1.12
8135.00,1.12
8134.00,1.12
8133.00,1.12
8132.00,1.13
8131.00,1.13
8130.00,1.13
8129.00,1.13
8128.00,1.14
8127.00,1.14
8126.00,1.14
8125.00,1.14
8124.00,1.15
8123.00,1.15
8122.00,1.15
8121.00,1.15
8120.00,1.15
8119.00,1.15
8118.00,1.15
8117.00,1.15
8116.00,1.15
8115.00,1.14
8114.00,1.14
8113.00,1.14
8112.00,1.13
8111.00,1.13
8110.00,1.12
8109.00,1.12
8108.00,1.12
8107.00,1.11
8106.00,1.11
8105.00,1.11
8104.00,1.10
8103.00,1.10
8102.00,1.09
8101.00,1.09
8100.00,1.09
8099.00,1.08
8098.00,1.08
8097.00,1.08
8096.00,1.08
8095.00,1.08
8094.00,1.08
8093.00,1.08
8092.00,1.08
8091.00,1.09
8090.00,1.09
8089.00,1.09
8088.00,1.10
8087.00,1.10
8086.00,1.11
8085.00,1.12
8084.00,1.12
8083.00,1.13
8082.00,1.13
8081.00,1.14
8080.00,1.14
8079.00,1.14
8078.00,1.15
8077.00,1.15
8076.00,1.15
8075.00,1.14
8074.00,1.14
8073.00,1.14
8072.00,1.13
8071.00,1.13
8070.00,1.12
8069.00,1.12
8068.00,1.11
8067.00,1.10
8066.00,1.09
8065.00,1.09
8064.00,1.08
8063.00,1.07
8062.00,1.07
8061.00,1.06
8060.00,1.06
8059.00,1.06
8058.00,1.06
8057.00,1.05
8056.00,1.05
8055.00,1.05
8054.00,1.05
8053.00,1.05
8052.00,1.05
8051.00,1.05
8050.00,1.05
8049.00,1.05
8048.00,1.05
8047.00,1.05
8046.00,1.05
8045.00,1.05
8044.00,1.04
8043.00,1.04
8042.00,1.04
8041.00,1.04
8040.00,1.04
8039.00,1.04
8038.00,1.04
8037.00,1.04
8036.00,1.04
8035.00,1.04
8034.00,1.04
8033.00,1.04
8032.00,1.05
8031.00,1.05
8030.00,1.05
8029.00,1.06
8028.00,1.06
8027.00,1.06
8026.00,1.07
8025.00,1.07
8024.00,1.07
8023.00,1.07
8022.00,1.08
8021.00,1.08
8020.00,1.08
8019.00,1.08
8018.00,1.08
8017.00,1.08
8016.00,1.09
8015.00,1.09
8014.00,1.09
8013.00,1.09
8012.00,1.10
8011.00,1.10
8010.00,1.10
8009.00,1.10
8008.00,1.11
8007.00,1.11
8006.00,1.11
8005.00,1.11
8004.00,1.11
8003.00,1.11
8002.00,1.11
8001.00,1.11
8000.00,1.11
7999.00,1.10
7998.00,1.10
7997.00,1.10
7996.00,1.10
7995.00,1.09
7994.00,1.09
7993.00,1.09
7992.00,1.08
7991.00,1.08
7990.00,1.08
7989.00,1.08
7988.00,1.07
7987.00,1.07
7986.00,1.07
7985.00,1.07
7984.00,1.08
7983.00,1.08
7982.00,1.08
7981.00,1.08
7980.00,1.08
7979.00,1.08
7978.00,1.08
7977.00,1.08
7976.00,1.09
7975.00,1.09
7974.00,1.09
7973.00,1.10
7972.00,1.10
7971.00,1.10
7970.00,1.10
7969.00,1.10
7968.00,1.10
7967.00,1.10
7966.00,1.10
7965.00,1.10
7964.00,1.10
7963.00,1.10
7962.00,1.10
7961.00,1.09
7960.00,1.09
7959.00,1.09
7958.00,1.09
7957.00,1.09
7956.00,1.08
7955.00,1.08
7954.00,1.08
7953.00,1.08
7952.00,1.09
7951.00,1.09
7950.00,1.09
7949.00,1.10
7948.00,1.10
7947.00,1.11
7946.00,1.11
7945.00,1.11
7944.00,1.12
7943.00,1.12
7942.00,1.13
7941.00,1.13
7940.00,1.13
7939.00,1.14
7938.00,1.14
7937.00,1.14
7936.00,1.14
7935.00,1.14
7934.00,1.14
7933.00,1.14
7932.00,1.13
7931.00,1.13
7930.00,1.13
7929.00,1.13
7928.00,1.13
7927.00,1.13
7926.00,1.12
7925.00,1.12
7924.00,1.12
7923.00,1.12
7922.00,1.12
7921.00,1.12
7920.00,1.12
7919.00,1.12
7918.00,1.12
7917.00,1.11
7916.00,1.11
7915.00,1.11
7914.00,1.11
7913.00,1.10
7912.00,1.09
7911.00,1.09
7910.00,1.08
7909.00,1.08
7908.00,1.07
7907.00,1.07
7906.00,1.06
7905.00,1.06
7904.00,1.05
7903.00,1.05
7902.00,1.04
7901.00,1.04
7900.00,1.04
7899.00,1.04
7898.00,1.04
7897.00,1.04
7896.00,1.04
7895.00,1.04
7894.00,1.05
7893.00,1.05
7892.00,1.05
7891.00,1.06
7890.00,1.06
7889.00,1.07
7888.00,1.07
7887.00,1.07
7886.00,1.08
7885.00,1.08
7884.00,1.09
7883.00,1.09
7882.00,1.09
7881.00,1.10
7880.00,1.10
7879.00,1.10
7878.00,1.10
7877.00,1.10
7876.00,1.10
7875.00,1.10
7874.00,1.10
7873.00,1.10
7872.00,1.10
7871.00,1.10
7870.00,1.10
7869.00,1.09
7868.00,1.09
7867.00,1.09
7866.00,1.08
7865.00,1.08
7864.00,1.08
7863.00,1.08
7862.00,1.07
7861.00,1.07
7860.00,1.07
7859.00,1.07
7858.00,1.07
7857.00,1.07
7856.00,1.07
7855.00,1.07
7854.00,1.07
7853.00,1.08
7852.00,1.08
7851.00,1.09
7850.00,1.09
7849.00,1.10
7848.00,1.11
7847.00,1.11
7846.00,1.12
7845.00,1.13
7844.00,1.14
7843.00,1.15
7842.00,1.15
7841.00,1.16
7840.00,1.17
7839.00,1.18
7838.00,1.19
7837.00,1.19
7836.00,1.20
7835.00,1.20
7834.00,1.21
7833.00,1.21
7832.00,1.21
7831.00,1.20
7830.00,1.20
7829.00,1.20
7828.00,1.19
7827.00,1.18
7826.00,1.18
7825.00,1.17
7824.00,1.16
7823.00,1.15
7822.00,1.14
7821.00,1.13
7820.00,1.12
7819.00,1.11
7818.00,1.10
7817.00,1.09
7816.00,1.09
7815.00,1.08
7814.00,1.08
7813.00,1.08
7812.00,1.08
7811.00,1.08
7810.00,1.08
7809.00,1.08
7808.00,1.08
7807.00,1.09
7806.00,1.09
7805.00,1.10
7804.00,1.10
7803.00,1.10
7802.00,1.11
7801.00,1.11
7800.00,1.11
7799.00,1.12
7798.00,1.12
7797.00,1.12
7796.00,1.12
7795.00,1.12
7794.00,1.12
7793.00,1.12
7792.00,1.11
7791.00,1.11
7790.00,1.11
7789.00,1.11
7788.00,1.10
7787.00,1.10
7786.00,1.10
7785.00,1.09
7784.00,1.09
7783.00,1.09
7782.00,1.09
7781.00,1.09
7780.00,1.09
7779.00,1.09
7778.00,1.09
7777.00,1.10
7776.00,1.10
7775.00,1.10
7774.00,1.11
7773.00,1.11
7772.00,1.12
7771.00,1.13
7770.00,1.13
7769.00,1.14
7768.00,1.15
7767.00,1.15
7766.00,1.16
7765.00,1.17
7764.00,1.17
7763.00,1.17
7762.00,1.18
7761.00,1.18
7760.00,1.18
7759.00,1.18
7758.00,1.18
7757.00,1.18
7756.00,1.17
7755.00,1.17
7754.00,1.17
7753.00,1.17
7752.00,1.16
7751.00,1.16
7750.00,1.16
7749.00,1.16
7748.00,1.16
7747.00,1.15
7746.00,1.15
7745.00,1.15
7744.00,1.15
7743.00,1.15
7742.00,1.16
7741.00,1.16
7740.00,1.16
7739.00,1.16
7738.00,1.16
7737.00,1.16
7736.00,1.16
7735.00,1.16
7734.00,1.16
7733.00,1.16
7732.00,1.17
7731.00,1.17
7730.00,1.17
7729.00,1.17
7728.00,1.17
7727.00,1.17
7726.00,1.17
7725.00,1.17
7724.00,1.17
7723.00,1.17
7722.00,1.17
7721.00,1.17
7720.00,1.17
7719.00,1.17
7718.00,1.17
7717.00,1.17
7716.00,1.17
7715.00,1.17
7714.00,1.17
7713.00,1.17
7712.00,1.17
7711.00,1.17
7710.00,1.17
7709.00,1.17
7708.00,1.17
7707.00,1.17
7706.00,1.16
7705.00,1.16
7704.00,1.16
7703.00,1.16
7702.00,1.16
7701.00,1.16
7700.00,1.16
7699.00,1.15
7698.00,1.15
7697.00,1.15
7696.00,1.15
7695.00,1.15
7694.00,1.15
7693.00,1.15
7692.00,1.15
7691.00,1.15
7690.00,1.15
7689.00,1.15
7688.00,1.15
7687.00,1.16
7686.00,1.16
7685.00,1.16
7684.00,1.16
7683.00,1.16
7682.00,1.16
7681.00,1.16
7680.00,1.15
7679.00,1.15
7678.00,1.15
7677.00,1.15
7676.00,1.14
7675.00,1.14
7674.00,1.14
7673.00,1.14
7672.00,1.13
7671.00,1.13
7670.00,1.13
7669.00,1.13
7668.00,1.13
7667.00,1.13
7666.00,1.13
7665.00,1.13
7664.00,1.14
7663.00,1.14
7662.00,1.14
7661.00,1.14
7660.00,1.14
7659.00,1.14
7658.00,1.14
7657.00,1.14
7656.00,1.14
7655.00,1.14
7654.00,1.13
7653.00,1.13
7652.00,1.12
7651.00,1.12
7650.00,1.11
7649.00,1.11
7648.00,1.10
7647.00,1.09
7646.00,1.09
7645.00,1.09
7644.00,1.08
7643.00,1.08
7642.00,1.08
7641.00,1.07
7640.00,1.07
7639.00,1.07
7638.00,1.07
7637.00,1.07
7636.00,1.07
7635.00,1.08
7634.00,1.08
7633.00,1.08
7632.00,1.08
7631.00,1.08
7630.00,1.08
7629.00,1.08
7628.00,1.08
7627.00,1.08
7626.00,1.08
7625.00,1.08
7624.00,1.08
7623.00,1.08
7622.00,1.08
7621.00,1.08
7620.00,1.08
7619.00,1.08
7618.00,1.08
7617.00,1.08
7616.00,1.09
7615.00,1.09
7614.00,1.09
7613.00,1.09
7612.00,1.10
7611.00,1.10
7610.00,1.10
7609.00,1.10
7608.00,1.10
7607.00,1.10
7606.00,1.10
7605.00,1.10
7604.00,1.10
7603.00,1.10
7602.00,1.10
7601.00,1.10
7600.00,1.09
7599.00,1.09
7598.00,1.09
7597.00,1.09
7596.00,1.09
7595.00,1.09
7594.00,1.09
7593.00,1.09
7592.00,1.09
7591.00,1.09
7590.00,1.09
7589.00,1.10
7588.00,1.10
7587.00,1.10
7586.00,1.11
7585.00,1.11
7584.00,1.12
7583.00,1.12
7582.00,1.12
7581.00,1.13
7580.00,1.13
7579.00,1.13
7578.00,1.14
7577.00,1.14
7576.00,1.14
7575.00,1.14
7574.00,1.15
7573.00,1.15
7572.00,1.15
7571.00,1.15
7570.00,1.15
7569.00,1.15
7568.00,1.14
7567.00,1.14
7566.00,1.14
7565.00,1.14
7564.00,1.14
7563.00,1.13
7562.00,1.13
7561.00,1.13
7560.00,1.13
7559.00,1.12
7558.00,1.12
7557.00,1.12
7556.00,1.11
7555.00,1.11
7554.00,1.11
7553.00,1.11
7552.00,1.11
7551.00,1.10
7550.00,1.10
7549.00,1.10
7548.00,1.10
7547.00,1.10
7546.00,1.10
7545.00,1.10
7544.00,1.10
7543.00,1.10
7542.00,1.10
7541.00,1.10
7540.00,1.11
7539.00,1.11
7538.00,1.11
7537.00,1.11
7536.00,1.11
7535.00,1.11
7534.00,1.12
7533.00,1.12
7532.00,1.12
7531.00,1.13
7530.00,1.13
7529.00,1.13
7528.00,1.13
7527.00,1.13
7526.00,1.13
7525.00,1.13
7524.00,1.13
7523.00,1.13
7522.00,1.13
7521.00,1.13
7520.00,1.13
7519.00,1.13
7518.00,1.12
7517.00,1.12
7516.00,1.12
7515.00,1.12
7514.00,1.11
7513.00,1.11
7512.00,1.11
7511.00,1.10
7510.00,1.10
7509.00,1.10
7508.00,1.10
7507.00,1.10
7506.00,1.10
7505.00,1.10
7504.00,1.10
7503.00,1.10
7502.00,1.10
7501.00,1.10
7500.00,1.10
7499.00,1.10
7498.00,1.09
7497.00,1.09
7496.00,1.08
7495.00,1.08
7494.00,1.07
7493.00,1.07
7492.00,1.06
7491.00,1.06
7490.00,1.05
7489.00,1.04
7488.00,1.04
7487.00,1.03
7486.00,1.03
7485.00,1.02
7484.00,1.02
7483.00,1.02
7482.00,1.02
7481.00,1.02
7480.00,1.02
7479.00,1.02
7478.00,1.02
7477.00,1.03
7476.00,1.03
7475.00,1.04
7474.00,1.05
7473.00,1.05
7472.00,1.06
7471.00,1.07
7470.00,1.08
7469.00,1.09
7468.00,1.09
7467.00,1.10
7466.00,1.11
7465.00,1.11
7464.00,1.12
7463.00,1.12
7462.00,1.12
7461.00,1.13
7460.00,1.13
7459.00,1.13
7458.00,1.13
7457.00,1.14
7456.00,1.14
7455.00,1.14
7454.00,1.14
7453.00,1.14
7452.00,1.14
7451.00,1.14
7450.00,1.14
7449.00,1.14
7448.00,1.14
7447.00,1.13
7446.00,1.13
7445.00,1.13
7444.00,1.13
7443.00,1.13
7442.00,1.13
7441.00,1.13
7440.00,1.13
7439.00,1.13
7438.00,1.13
7437.00,1.13
7436.00,1.13
7435.00,1.12
7434.00,1.12
7433.00,1.12
7432.00,1.12
7431.00,1.12
7430.00,1.12
7429.00,1.12
7428.00,1.12
7427.00,1.12
7426.00,1.13
7425.00,1.13
7424.00,1.13
7423.00,1.13
7422.00,1.13
7421.00,1.14
7420.00,1.14
7419.00,1.14
7418.00,1.14
7417.00,1.15
7416.00,1.15
7415.00,1.15
7414.00,1.15
7413.00,1.14
7412.00,1.14
7411.00,1.14
7410.00,1.14
7409.00,1.13
7408.00,1.13
7407.00,1.13
7406.00,1.13
7405.00,1.13
7404.00,1.13
7403.00,1.13
7402.00,1.13
7401.00,1.13
7400.00,1.13
7399.00,1.14
7398.00,1.14
7397.00,1.14
7396.00,1.15
7395.00,1.15
7394.00,1.15
7393.00,1.15
7392.00,1.16
7391.00,1.16
7390.00,1.15
7389.00,1.15
7388.00,1.15
7387.00,1.15
7386.00,1.14
7385.00,1.14
7384.00,1.14
7383.00,1.13
7382.00,1.13
7381.00,1.13
7380.00,1.13
7379.00,1.13
7378.00,1.13
7377.00,1.13
7376.00,1.13
7375.00,1.13
7374.00,1.14
7373.00,1.14
7372.00,1.15
7371.00,1.15
7370.00,1.15
7369.00,1.16
7368.00,1.16
7367.00,1.16
7366.00,1.16
7365.00,1.17
7364.00,1.16
7363.00,1.16
7362.00,1.16
7361.00,1.15
7360.00,1.15
7359.00,1.14
7358.00,1.14
7357.00,1.13
7356.00,1.12
7355.00,1.12
7354.00,1.11
7353.00,1.11
7352.00,1.11
7351.00,1.10
7350.00,1.10
7349.00,1.10
7348.00,1.10
7347.00,1.10
7346.00,1.11
7345.00,1.11
7344.00,1.12
7343.00,1.12
7342.00,1.13
7341.00,1.14
7340.00,1.14
7339.00,1.15
7338.00,1.15
7337.00,1.15
7336.00,1.15
7335.00,1.15
7334.00,1.15
7333.00,1.15
7332.00,1.15
7331.00,1.15
7330.00,1.15
7329.00,1.14
7328.00,1.14
7327.00,1.13
7326.00,1.12
7325.00,1.12
7324.00,1.11
7323.00,1.11
7322.00,1.10
7321.00,1.10
7320.00,1.09
7319.00,1.09
7318.00,1.09
7317.00,1.08
7316.00,1.08
7315.00,1.08
7314.00,1.07
7313.00,1.07
7312.00,1.07
7311.00,1.07
7310.00,1.07
7309.00,1.07
7308.00,1.07
7307.00,1.07
7306.00,1.07
7305.00,1.07
7304.00,1.07
7303.00,1.07
7302.00,1.07
7301.00,1.07
7300.00,1.07
7299.00,1.07
7298.00,1.07
7297.00,1.07
7296.00,1.07
7295.00,1.07
7294.00,1.07
7293.00,1.07
7292.00,1.07
7291.00,1.06
7290.00,1.06
7289.00,1.05
7288.00,1.05
7287.00,1.04
7286.00,1.04
7285.00,1.03
7284.00,1.02
7283.00,1.02
7282.00,1.01
7281.00,1.01
7280.00,1.01
7279.00,1.01
7278.00,1.01
7277.00,1.01
7276.00,1.01
7275.00,1.01
7274.00,1.01
7273.00,1.01
7272.00,1.01
7271.00,1.01
7270.00,1.01
7269.00,1.02
7268.00,1.02
7267.00,1.02
7266.00,1.02
7265.00,1.03
7264.00,1.03
7263.00,1.03
7262.00,1.03
7261.00,1.03
7260.00,1.03
7259.00,1.03
7258.00,1.03
7257.00,1.03
7256.00,1.03
7255.00,1.03
7254.00,1.03
7253.00,1.04
7252.00,1.04
7251.00,1.04
7250.00,1.04
7249.00,1.04
7248.00,1.04
7247.00,1.04
7246.00,1.04
7245.00,1.03
7244.00,1.03
7243.00,1.03
7242.00,1.03
7241.00,1.03
7240.00,1.02
7239.00,1.02
7238.00,1.02
7237.00,1.01
7236.00,1.01
7235.00,1.01
7234.00,1.01
7233.00,1.00
7232.00,1.00
7231.00,1.01
7230.00,1.01
7229.00,1.01
7228.00,1.01
7227.00,1.02
7226.00,1.02
7225.00,1.02
7224.00,1.03
7223.00,1.03
7222.00,1.03
7221.00,1.04
7220.00,1.04
7219.00,1.04
7218.00,1.05
7217.00,1.05
7216.00,1.05
7215.00,1.05
7214.00,1.05
7213.00,1.05
7212.00,1.05
7211.00,1.05
7210.00,1.05
7209.00,1.05
7208.00,1.06
7207.00,1.06
7206.00,1.06
7205.00,1.06
7204.00,1.06
7203.00,1.06
7202.00,1.06
7201.00,1.06
7200.00,1.06
7199.00,1.06
7198.00,1.05
7197.00,1.05
7196.00,1.05
7195.00,1.04
7194.00,1.04
7193.00,1.03
7192.00,1.03
7191.00,1.02
7190.00,1.01
7189.00,1.00
7188.00,0.99
7187.00,0.98
7186.00,0.98
7185.00,0.97
7184.00,0.96
7183.00,0.96
7182.00,0.95
7181.00,0.95
7180.00,0.95
7179.00,0.95
7178.00,0.95
7177.00,0.95
7176.00,0.95
7175.00,0.95
7174.00,0.96
7173.00,0.96
7172.00,0.97
7171.00,0.97
7170.00,0.98
7169.00,0.98
7168.00,0.99
7167.00,0.99
7166.00,1.00
7165.00,1.00
7164.00,1.00
7163.00,1.00
7162.00,1.00
7161.00,1.00
7160.00,1.00
7159.00,1.00
7158.00,0.99
7157.00,0.99
7156.00,0.98
7155.00,0.98
7154.00,0.97
7153.00,0.97
7152.00,0.97
7151.00,0.96
7150.00,0.96
7149.00,0.96
7148.00,0.96
7147.00,0.95
7146.00,0.95
7145.00,0.95
7144.00,0.95
7143.00,0.95
7142.00,0.96
7141.00,0.96
7140.00,0.96
7139.00,0.96
7138.00,0.97
7137.00,0.97
7136.00,0.97
7135.00,0.98
7134.00,0.98
7133.00,0.98
7132.00,0.99
7131.00,0.99
7130.00,0.99
7129.00,1.00
7128.00,1.00
7127.00,1.00
7126.00,1.00
7125.00,1.00
7124.00,1.01
7123.00,1.01
7122.00,1.01
7121.00,1.01
7120.00,1.01
7119.00,1.01
7118.00,1.01
7117.00,1.01
7116.00,1.01
7115.00,1.01
7114.00,1.01
7113.00,1.00
7112.00,1.00
7111.00,1.00
7110.00,1.00
7109.00,1.00
7108.00,1.00
7107.00,0.99
7106.00,1.00
7105.00,1.00
7104.00,1.00
7103.00,1.00
7102.00,1.00
7101.00,1.00
7100.00,1.00
7099.00,1.00
7098.00,1.00
7097.00,1.00
7096.00,1.00
7095.00,1.00
7094.00,1.00
7093.00,1.00
7092.00,1.00
7091.00,1.00
7090.00,1.00
7089.00,0.99
7088.00,0.99
7087.00,0.98
7086.00,0.98
7085.00,0.97
7084.00,0.97
7083.00,0.96
7082.00,0.96
7081.00,0.95
7080.00,0.95
7079.00,0.95
7078.00,0.94
7077.00,0.94
7076.00,0.94
7075.00,0.94
7074.00,0.93
7073.00,0.93
7072.00,0.93
7071.00,0.93
7070.00,0.93
7069.00,0.93
7068.00,0.93
7067.00,0.93
7066.00,0.93
7065.00,0.93
7064.00,0.93
7063.00,0.93
7062.00,0.93
7061.00,0.93
7060.00,0.93
7059.00,0.93
7058.00,0.93
7057.00,0.93
7056.00,0.94
7055.00,0.94
7054.00,0.94
7053.00,0.95
7052.00,0.95
7051.00,0.96
7050.00,0.96
7049.00,0.96
7048.00,0.97
7047.00,0.97
7046.00,0.97
7045.00,0.97
7044.00,0.97
7043.00,0.97
7042.00,0.97
7041.00,0.97
7040.00,0.97
7039.00,0.96
7038.00,0.96
7037.00,0.96
7036.00,0.95
7035.00,0.95
7034.00,0.95
7033.00,0.94
7032.00,0.94
7031.00,0.94
7030.00,0.93
7029.00,0.93
7028.00,0.93
7027.00,0.93
7026.00,0.93
7025.00,0.93
7024.00,0.93
7023.00,0.93
7022.00,0.93
7021.00,0.93
7020.00,0.94
7019.00,0.94
7018.00,0.94
7017.00,0.94
7016.00,0.94
7015.00,0.94
7014.00,0.94
7013.00,0.94
7012.00,0.94
7011.00,0.94
7010.00,0.94
7009.00,0.94
7008.00,0.94
7007.00,0.94
7006.00,0.94
7005.00,0.94
7004.00,0.93
7003.00,0.93
7002.00,0.93
7001.00,0.93
7000.00,0.92
6999.00,0.92
6998.00,0.92
6997.00,0.92
6996.00,0.92
6995.00,0.92
6994.00,0.92
6993.00,0.92
6992.00,0.92
6991.00,0.92
6990.00,0.93
6989.00,0.93
6988.00,0.93
6987.00,0.93
6986.00,0.94
6985.00,0.94
6984.00,0.95
6983.00,0.95
6982.00,0.95
6981.00,0.96
6980.00,0.96
6979.00,0.96
6978.00,0.97
6977.00,0.97
6976.00,0.97
6975.00,0.97
6974.00,0.97
6973.00,0.97
6972.00,0.96
6971.00,0.96
6970.00,0.96
6969.00,0.96
6968.00,0.95
6967.00,0.95
6966.00,0.95
6965.00,0.94
6964.00,0.94
6963.00,0.94
6962.00,0.94
6961.00,0.94
6960.00,0.94
6959.00,0.94
6958.00,0.94
6957.00,0.94
6956.00,0.94
6955.00,0.95
6954.00,0.95
6953.00,0.95
6952.00,0.96
6951.00,0.96
6950.00,0.96
6949.00,0.96
6948.00,0.96
6947.00,0.96
6946.00,0.96
6945.00,0.96
6944.00,0.96
6943.00,0.96
6942.00,0.96
6941.00,0.96
6940.00,0.96
6939.00,0.95
6938.00,0.95
6937.00,0.95
6936.00,0.95
6935.00,0.94
6934.00,0.94
6933.00,0.94
6932.00,0.94
6931.00,0.94
6930.00,0.94
6929.00,0.93
6928.00,0.93
6927.00,0.93
6926.00,0.93
6925.00,0.93
6924.00,0.93
6923.00,0.93
6922.00,0.94
6921.00,0.94
6920.00,0.94
6919.00,0.94
6918.00,0.94
6917.00,0.94
6916.00,0.94
6915.00,0.94
6914.00,0.94
6913.00,0.94
6912.00,0.94
6911.00,0.94
6910.00,0.94
6909.00,0.94
6908.00,0.94
6907.00,0.94
6906.00,0.94
6905.00,0.94
6904.00,0.94
6903.00,0.94
6902.00,0.94
6901.00,0.94
6900.00,0.94
6899.00,0.94
6898.00,0.94
6897.00,0.94
6896.00,0.94
6895.00,0.94
6894.00,0.94
6893.00,0.94
6892.00,0.93
6891.00,0.93
6890.00,0.93
6889.00,0.93
6888.00,0.92
6887.00,0.92
6886.00,0.92
6885.00,0.91
6884.00,0.91
6883.00,0.91
6882.00,0.91
6881.00,0.90
6880.00,0.90
6879.00,0.90
6878.00,0.90
6877.00,0.90
6876.00,0.90
6875.00,0.90
6874.00,0.90
6873.00,0.90
6872.00,0.91
6871.00,0.91
6870.00,0.91
6869.00,0.92
6868.00,0.92
6867.00,0.93
6866.00,0.93
6865.00,0.93
6864.00,0.94
6863.00,0.94
6862.00,0.94
6861.00,0.95
6860.00,0.95
6859.00,0.95
6858.00,0.95
6857.00,0.96
6856.00,0.96
6855.00,0.96
6854.00,0.96
6853.00,0.96
6852.00,0.96
6851.00,0.96
6850.00,0.96
6849.00,0.97
6848.00,0.97
6847.00,0.97
6846.00,0.97
6845.00,0.97
6844.00,0.97
6843.00,0.98
6842.00,0.98
6841.00,0.98
6840.00,0.98
6839.00,0.98
6838.00,0.98
6837.00,0.98
6836.00,0.98
6835.00,0.98
6834.00,0.98
6833.00,0.98
6832.00,0.97
6831.00,0.97
6830.00,0.97
6829.00,0.97
6828.00,0.97
6827.00,0.97
6826.00,0.97
6825.00,0.97
6824.00,0.98
6823.00,0.98
6822.00,0.98
6821.00,0.98
6820.00,0.99
6819.00,0.99
6818.00,0.99
6817.00,1.00
6816.00,1.00
6815.00,1.00
6814.00,1.00
6813.00,1.00
6812.00,1.00
6811.00,1.00
6810.00,1.00
6809.00,1.00
6808.00,1.00
6807.00,1.00
6806.00,0.99
6805.00,0.99
6804.00,0.98
6803.00,0.98
6802.00,0.98
6801.00,0.97
6800.00,0.97
6799.00,0.97
6798.00,0.96
6797.00,0.96
6796.00,0.96
6795.00,0.95
6794.00,0.95
6793.00,0.95
6792.00,0.95
6791.00,0.95
6790.00,0.95
6789.00,0.95
6788.00,0.95
6787.00,0.95
6786.00,0.95
6785.00,0.95
6784.00,0.95
6783.00,0.95
6782.00,0.95
6781.00,0.95
6780.00,0.96
6779.00,0.96
6778.00,0.96
6777.00,0.96
6776.00,0.97
6775.00,0.97
6774.00,0.97
6773.00,0.97
6772.00,0.97
6771.00,0.98
6770.00,0.98
6769.00,0.98
6768.00,0.98
6767.00,0.98
6766.00,0.98
6765.00,0.98
6764.00,0.98
6763.00,0.98
6762.00,0.97
6761.00,0.97
6760.00,0.97
6759.00,0.97
6758.00,0.97
6757.00,0.97
6756.00,0.97
6755.00,0.96
6754.00,0.96
6753.00,0.96
6752.00,0.96
6751.00,0.95
6750.00,0.95
6749.00,0.95
6748.00,0.95
6747.00,0.95
6746.00,0.95
6745.00,0.95
6744.00,0.95
6743.00,0.95
6742.00,0.95
6741.00,0.95
6740.00,0.95
6739.00,0.95
6738.00,0.96
6737.00,0.96
6736.00,0.96
6735.00,0.96
6734.00,0.96
6733.00,0.96
6732.00,0.96
6731.00,0.96
6730.00,0.96
6729.00,0.96
6728.00,0.96
6727.00,0.96
6726.00,0.96
6725.00,0.95
6724.00,0.95
6723.00,0.95
6722.00,0.95
6721.00,0.95
6720.00,0.95
6719.00,0.95
6718.00,0.94
6717.00,0.94
6716.00,0.94
6715.00,0.94
6714.00,0.94
6713.00,0.94
6712.00,0.94
6711.00,0.93
6710.00,0.93
6709.00,0.93
6708.00,0.93
6707.00,0.93
6706.00,0.93
6705.00,0.93
6704.00,0.94
6703.00,0.94
6702.00,0.94
6701.00,0.94
6700.00,0.94
6699.00,0.94
6698.00,0.95
6697.00,0.95
6696.00,0.95
6695.00,0.95
6694.00,0.96
6693.00,0.96
6692.00,0.96
6691.00,0.96
6690.00,0.97
6689.00,0.97
6688.00,0.97
6687.00,0.97
6686.00,0.97
6685.00,0.97
6684.00,0.98
6683.00,0.98
6682.00,0.98
6681.00,0.98
6680.00,0.98
6679.00,0.99
6678.00,0.99
6677.00,0.99
6676.00,0.99
6675.00,0.99
6674.00,0.98
6673.00,0.98
6672.00,0.98
6671.00,0.98
6670.00,0.98
6669.00,0.98
6668.00,0.98
6667.00,0.98
6666.00,0.98
6665.00,0.98
6664.00,0.98
6663.00,0.98
6662.00,0.98
6661.00,0.98
6660.00,0.98
6659.00,0.98
6658.00,0.99
6657.00,0.99
6656.00,0.99
6655.00,1.00
6654.00,1.00
6653.00,1.00
6652.00,1.01
6651.00,1.01
6650.00,1.01
6649.00,1.01
6648.00,1.01
6647.00,1.01
6646.00,1.01
6645.00,1.01
6644.00,1.01
6643.00,1.00
6642.00,1.00
6641.00,0.99
6640.00,0.99
6639.00,0.98
6638.00,0.98
6637.00,0.97
6636.00,0.97
6635.00,0.96
6634.00,0.96
6633.00,0.95
6632.00,0.95
6631.00,0.95
6630.00,0.95
6629.00,0.95
6628.00,0.95
6627.00,0.95
6626.00,0.95
6625.00,0.95
6624.00,0.95
6623.00,0.95
6622.00,0.96
6621.00,0.96
6620.00,0.96
6619.00,0.96
6618.00,0.96
6617.00,0.97
6616.00,0.97
6615.00,0.97
6614.00,0.97
6613.00,0.97
6612.00,0.98
6611.00,0.98
6610.00,0.98
6609.00,0.98
6608.00,0.98
6607.00,0.98
6606.00,0.98
6605.00,0.99
6604.00,0.99
6603.00,0.99
6602.00,0.99
6601.00,0.99
6600.00,1.00
6599.00,1.00
6598.00,1.00
6597.00,1.01
6596.00,1.01
6595.00,1.01
6594.00,1.01
6593.00,1.02
6592.00,1.02
6591.00,1.02
6590.00,1.02
6589.00,1.02
6588.00,1.03
6587.00,1.03
6586.00,1.03
6585.00,1.03
6584.00,1.03
6583.00,1.03
6582.00,1.02
6581.00,1.02
6580.00,1.02
6579.00,1.02
6578.00,1.01
6577.00,1.01
6576.00,1.01
6575.00,1.01
6574.00,1.00
6573.00,1.00
6572.00,1.00
6571.00,1.00
6570.00,1.00
6569.00,0.99
6568.00,0.99
6567.00,0.99
6566.00,0.99
6565.00,0.99
6564.00,0.99
6563.00,0.99
6562.00,0.99
6561.00,0.99
6560.00,0.99
6559.00,0.99
6558.00,0.99
6557.00,0.99
6556.00,0.99
6555.00,0.99
6554.00,0.99
6553.00,0.99
6552.00,0.99
6551.00,0.99
6550.00,0.99
6549.00,0.99
6548.00,1.00
6547.00,1.00
6546.00,1.00
6545.00,1.00
6544.00,1.01
6543.00,1.01
6542.00,1.01
6541.00,1.01
6540.00,1.02
6539.00,1.02
6538.00,1.02
6537.00,1.02
6536.00,1.02
6535.00,1.02
6534.00,1.02
6533.00,1.02
6532.00,1.02
6531.00,1.02
6530.00,1.02
6529.00,1.02
6528.00,1.02
6527.00,1.02
6526.00,1.02
6525.00,1.02
6524.00,1.02
6523.00,1.02
6522.00,1.02
6521.00,1.02
6520.00,1.02
6519.00,1.02
6518.00,1.02
6517.00,1.03
6516.00,1.03
6515.00,1.03
6514.00,1.03
6513.00,1.03
6512.00,1.03
6511.00,1.03
6510.00,1.03
6509.00,1.03
6508.00,1.03
6507.00,1.03
6506.00,1.03
6505.00,1.04
6504.00,1.04
6503.00,1.04
6502.00,1.04
6501.00,1.04
6500.00,1.04
6499.00,1.04
6498.00,1.04
6497.00,1.04
6496.00,1.04
6495.00,1.04
6494.00,1.03
6493.00,1.03
6492.00,1.03
6491.00,1.03
6490.00,1.03
6489.00,1.03
6488.00,1.02
6487.00,1.02
6486.00,1.02
6485.00,1.02
6484.00,1.02
6483.00,1.01
6482.00,1.01
6481.00,1.01
6480.00,1.01
6479.00,1.01
6478.00,1.01
6477.00,1.01
6476.00,1.01
6475.00,1.01
6474.00,1.01
6473.00,1.01
6472.00,1.01
6471.00,1.01
6470.00,1.02
6469.00,1.02
6468.00,1.02
6467.00,1.02
6466.00,1.02
6465.00,1.02
6464.00,1.03
6463.00,1.03
6462.00,1.03
6461.00,1.03
6460.00,1.04
6459.00,1.04
6458.00,1.04
6457.00,1.05
6456.00,1.05
6455.00,1.05
6454.00,1.05
6453.00,1.05
6452.00,1.06
6451.00,1.06
6450.00,1.06
6449.00,1.06
6448.00,1.06
6447.00,1.06
6446.00,1.06
6445.00,1.06
6444.00,1.06
6443.00,1.06
6442.00,1.05
6441.00,1.05
6440.00,1.05
6439.00,1.05
6438.00,1.04
6437.00,1.04
6436.00,1.04
6435.00,1.04
6434.00,1.04
6433.00,1.03
6432.00,1.03
6431.00,1.03
6430.00,1.02
6429.00,1.02
6428.00,1.02
6427.00,1.02
6426.00,1.02
6425.00,1.02
6424.00,1.01
6423.00,1.01
6422.00,1.01
6421.00,1.01
6420.00,1.01
6419.00,1.01
6418.00,1.01
6417.00,1.01
6416.00,1.01
6415.00,1.01
6414.00,1.01
6413.00,1.01
6412.00,1.01
6411.00,1.01
6410.00,1.01
6409.00,1.01
6408.00,1.01
6407.00,1.01
6406.00,1.02
6405.00,1.02
6404.00,1.02
6403.00,1.02
6402.00,1.02
6401.00,1.02
6400.00,1.02
6399.00,1.02
6398.00,1.02
6397.00,1.02
6396.00,1.03
6395.00,1.03
6394.00,1.03
6393.00,1.03
6392.00,1.03
6391.00,1.03
6390.00,1.03
6389.00,1.03
6388.00,1.03
6387.00,1.03
6386.00,1.03
6385.00,1.03
6384.00,1.03
6383.00,1.03
6382.00,1.03
6381.00,1.03
6380.00,1.03
6379.00,1.03
6378.00,1.03
6377.00,1.03
6376.00,1.04
6375.00,1.04
6374.00,1.04
6373.00,1.04
6372.00,1.04
6371.00,1.04
6370.00,1.04
6369.00,1.04
6368.00,1.04
6367.00,1.04
6366.00,1.04
6365.00,1.04
6364.00,1.04
6363.00,1.04
6362.00,1.04
6361.00,1.04
6360.00,1.04
6359.00,1.04
6358.00,1.05
6357.00,1.05
6356.00,1.05
6355.00,1.06
6354.00,1.06
6353.00,1.06
6352.00,1.06
6351.00,1.06
6350.00,1.07
6349.00,1.07
6348.00,1.07
6347.00,1.07
6346.00,1.07
6345.00,1.07
6344.00,1.07
6343.00,1.07
6342.00,1.07
6341.00,1.07
6340.00,1.07
6339.00,1.07
6338.00,1.07
6337.00,1.06
6336.00,1.06
6335.00,1.06
6334.00,1.06
6333.00,1.06
6332.00,1.05
6331.00,1.05
6330.00,1.05
6329.00,1.05
6328.00,1.05
6327.00,1.05
6326.00,1.05
6325.00,1.05
6324.00,1.05
6323.00,1.05
6322.00,1.05
6321.00,1.05
6320.00,1.06
6319.00,1.06
6318.00,1.06
6317.00,1.06
6316.00,1.06
6315.00,1.06
6314.00,1.07
6313.00,1.07
6312.00,1.07
6311.00,1.07
6310.00,1.07
6309.00,1.07
6308.00,1.07
6307.00,1.08
6306.00,1.08
6305.00,1.08
6304.00,1.08
6303.00,1.08
6302.00,1.08
6301.00,1.08
6300.00,1.08
6299.00,1.08
6298.00,1.08
6297.00,1.08
6296.00,1.08
6295.00,1.08
6294.00,1.07
6293.00,1.07
6292.00,1.07
6291.00,1.07
6290.00,1.07
6289.00,1.07
6288.00,1.06
6287.00,1.06
6286.00,1.06
6285.00,1.06
6284.00,1.05
6283.00,1.05
6282.00,1.05
6281.00,1.05
6280.00,1.05
6279.00,1.05
6278.00,1.05
6277.00,1.06
6276.00,1.06
6275.00,1.06
6274.00,1.06
6273.00,1.07
6272.00,1.07
6271.00,1.07
6270.00,1.08
6269.00,1.08
6268.00,1.08
6267.00,1.08
6266.00,1.09
6265.00,1.09
6264.00,1.09
6263.00,1.10
6262.00,1.10
6261.00,1.10
6260.00,1.10
6259.00,1.10
6258.00,1.10
6257.00,1.10
6256.00,1.10
6255.00,1.11
6254.00,1.11
6253.00,1.11
6252.00,1.11
6251.00,1.11
6250.00,1.11
6249.00,1.11
6248.00,1.11
6247.00,1.11
6246.00,1.11
6245.00,1.11
6244.00,1.11
6243.00,1.11
6242.00,1.10
6241.00,1.10
6240.00,1.10
6239.00,1.10
6238.00,1.10
6237.00,1.10
6236.00,1.09
6235.00,1.09
6234.00,1.09
6233.00,1.09
6232.00,1.09
6231.00,1.09
6230.00,1.09
6229.00,1.10
6228.00,1.10
6227.00,1.10
6226.00,1.10
6225.00,1.11
6224.00,1.11
6223.00,1.11
6222.00,1.12
6221.00,1.12
6220.00,1.12
6219.00,1.12
6218.00,1.12
6217.00,1.12
6216.00,1.12
6215.00,1.12
6214.00,1.12
6213.00,1.12
6212.00,1.12
6211.00,1.12
6210.00,1.11
6209.00,1.11
6208.00,1.11
6207.00,1.11
6206.00,1.10
6205.00,1.10
6204.00,1.10
6203.00,1.10
6202.00,1.10
6201.00,1.10
6200.00,1.10
6199.00,1.10
6198.00,1.10
6197.00,1.10
6196.00,1.10
6195.00,1.10
6194.00,1.10
6193.00,1.10
6192.00,1.11
6191.00,1.11
6190.00,1.11
6189.00,1.11
6188.00,1.11
6187.00,1.11
6186.00,1.11
6185.00,1.11
6184.00,1.10
6183.00,1.10
6182.00,1.10
6181.00,1.10
6180.00,1.10
6179.00,1.09
6178.00,1.09
6177.00,1.09
6176.00,1.09
6175.00,1.09
6174.00,1.09
6173.00,1.09
6172.00,1.09
6171.00,1.09
6170.00,1.09
6169.00,1.10
6168.00,1.10
6167.00,1.10
6166.00,1.11
6165.00,1.11
6164.00,1.11
6163.00,1.12
6162.00,1.12
6161.00,1.12
6160.00,1.13
6159.00,1.13
6158.00,1.13
6157.00,1.13
6156.00,1.14
6155.00,1.14
6154.00,1.14
6153.00,1.14
6152.00,1.14
6151.00,1.14
6150.00,1.14
6149.00,1.13
6148.00,1.13
6147.00,1.13
6146.00,1.13
6145.00,1.13
6144.00,1.13
6143.00,1.13
6142.00,1.13
6141.00,1.13
6140.00,1.13
6139.00,1.13
6138.00,1.13
6137.00,1.13
6136.00,1.13
6135.00,1.13
6134.00,1.13
6133.00,1.14
6132.00,1.14
6131.00,1.14
6130.00,1.14
6129.00,1.14
6128.00,1.14
6127.00,1.14
6126.00,1.14
6125.00,1.14
6124.00,1.14
6123.00,1.14
6122.00,1.14
6121.00,1.13
6120.00,1.13
6119.00,1.13
6118.00,1.13
6117.00,1.13
6116.00,1.12
6115.00,1.12
6114.00,1.12
6113.00,1.12
6112.00,1.12
6111.00,1.11
6110.00,1.11
6109.00,1.11
6108.00,1.11
6107.00,1.11
6106.00,1.12
6105.00,1.12
6104.00,1.12
6103.00,1.12
6102.00,1.12
6101.00,1.12
6100.00,1.12
6099.00,1.12
6098.00,1.12
6097.00,1.13
6096.00,1.13
6095.00,1.13
6094.00,1.13
6093.00,1.13
6092.00,1.13
6091.00,1.13
6090.00,1.13
6089.00,1.13
6088.00,1.13
6087.00,1.13
6086.00,1.13
6085.00,1.12
6084.00,1.12
6083.00,1.12
6082.00,1.12
6081.00,1.12
6080.00,1.12
6079.00,1.12
6078.00,1.12
6077.00,1.12
6076.00,1.11
6075.00,1.11
6074.00,1.11
6073.00,1.11
6072.00,1.11
6071.00,1.11
6070.00,1.11
6069.00,1.11
6068.00,1.11
6067.00,1.11
6066.00,1.11
6065.00,1.11
6064.00,1.11
6063.00,1.11
6062.00,1.11
6061.00,1.11
6060.00,1.11
6059.00,1.11
6058.00,1.11
6057.00,1.11
6056.00,1.11
6055.00,1.11
6054.00,1.11
6053.00,1.12
6052.00,1.12
6051.00,1.12
6050.00,1.12
6049.00,1.12
6048.00,1.13
6047.00,1.13
6046.00,1.13
6045.00,1.13
6044.00,1.14
6043.00,1.14
6042.00,1.14
6041.00,1.15
6040.00,1.15
6039.00,1.15
6038.00,1.16
6037.00,1.16
6036.00,1.16
6035.00,1.16
6034.00,1.16
6033.00,1.16
6032.00,1.16
6031.00,1.16
6030.00,1.16
6029.00,1.16
6028.00,1.15
6027.00,1.15
6026.00,1.15
6025.00,1.15
6024.00,1.15
6023.00,1.14
6022.00,1.14
6021.00,1.14
6020.00,1.14
6019.00,1.14
6018.00,1.14
6017.00,1.14
6016.00,1.14
6015.00,1.14
6014.00,1.14
6013.00,1.14
6012.00,1.14
6011.00,1.14
6010.00,1.14
6009.00,1.14
6008.00,1.14
6007.00,1.14
6006.00,1.14
6005.00,1.14
6004.00,1.14
6003.00,1.14
6002.00,1.14
6001.00,1.14
6000.00,1.15
5999.00,1.15
5998.00,1.15
5997.00,1.15
5996.00,1.16
5995.00,1.16
5994.00,1.16
5993.00,1.16
5992.00,1.16
5991.00,1.16
5990.00,1.16
5989.00,1.16
5988.00,1.16
5987.00,1.16
5986.00,1.16
5985.00,1.16
5984.00,1.15
5983.00,1.15
5982.00,1.15
5981.00,1.14
5980.00,1.14
5979.00,1.14
5978.00,1.13
5977.00,1.13
5976.00,1.13
5975.00,1.13
5974.00,1.13
5973.00,1.13
5972.00,1.14
5971.00,1.14
5970.00,1.14
5969.00,1.14
5968.00,1.15
5967.00,1.15
5966.00,1.15
5965.00,1.15
5964.00,1.15
5963.00,1.15
5962.00,1.16
5961.00,1.15
5960.00,1.15
5959.00,1.15
5958.00,1.15
5957.00,1.15
5956.00,1.15
5955.00,1.14
5954.00,1.14
5953.00,1.14
5952.00,1.14
5951.00,1.13
5950.00,1.13
5949.00,1.12
5948.00,1.12
5947.00,1.12
5946.00,1.11
5945.00,1.11
5944.00,1.11
5943.00,1.10
5942.00,1.10
5941.00,1.10
5940.00,1.10
5939.00,1.09
5938.00,1.09
5937.00,1.09
5936.00,1.09
5935.00,1.09
5934.00,1.09
5933.00,1.09
5932.00,1.09
5931.00,1.09
5930.00,1.09
5929.00,1.09
5928.00,1.09
5927.00,1.09
5926.00,1.09
5925.00,1.09
5924.00,1.09
5923.00,1.09
5922.00,1.09
5921.00,1.08
5920.00,1.08
5919.00,1.08
5918.00,1.07
5917.00,1.07
5916.00,1.07
5915.00,1.06
5914.00,1.06
5913.00,1.06
5912.00,1.05
5911.00,1.05
5910.00,1.05
5909.00,1.04
5908.00,1.04
5907.00,1.04
5906.00,1.04
5905.00,1.04
5904.00,1.04
5903.00,1.04
5902.00,1.04
5901.00,1.04
5900.00,1.05
5899.00,1.05
5898.00,1.05
5897.00,1.05
5896.00,1.05
5895.00,1.05
5894.00,1.05
5893.00,1.05
5892.00,1.05
5891.00,1.05
5890.00,1.05
5889.00,1.05
5888.00,1.05
5887.00,1.05
5886.00,1.05
5885.00,1.05
5884.00,1.05
5883.00,1.05
5882.00,1.05
5881.00,1.05
5880.00,1.05
5879.00,1.05
5878.00,1.05
5877.00,1.05
5876.00,1.05
5875.00,1.05
5874.00,1.06
5873.00,1.06
5872.00,1.06
5871.00,1.06
5870.00,1.06
5869.00,1.07
5868.00,1.07
5867.00,1.07
5866.00,1.08
5865.00,1.08
5864.00,1.08
5863.00,1.08
5862.00,1.09
5861.00,1.09
5860.00,1.09
5859.00,1.09
5858.00,1.09
5857.00,1.10
5856.00,1.10
5855.00,1.10
5854.00,1.10
5853.00,1.10
5852.00,1.10
5851.00,1.11
5850.00,1.11
5849.00,1.11
5848.00,1.11
5847.00,1.11
5846.00,1.11
5845.00,1.11
5844.00,1.11
5843.00,1.11
5842.00,1.11
5841.00,1.11
5840.00,1.11
5839.00,1.11
5838.00,1.11
5837.00,1.10
5836.00,1.10
5835.00,1.10
5834.00,1.10
5833.00,1.09
5832.00,1.09
5831.00,1.09
5830.00,1.09
5829.00,1.09
5828.00,1.09
5827.00,1.09
5826.00,1.08
5825.00,1.08
5824.00,1.08
5823.00,1.08
5822.00,1.08
5821.00,1.08
5820.00,1.09
5819.00,1.09
5818.00,1.09
5817.00,1.09
5816.00,1.09
5815.00,1.09
5814.00,1.09
5813.00,1.09
5812.00,1.09
5811.00,1.08
5810.00,1.08
5809.00,1.08
5808.00,1.08
5807.00,1.08
5806.00,1.08
5805.00,1.08
5804.00,1.08
5803.00,1.08
5802.00,1.08
5801.00,1.08
5800.00,1.08
5799.00,1.08
5798.00,1.08
5797.00,1.08
5796.00,1.08
5795.00,1.08
5794.00,1.08
5793.00,1.08
5792.00,1.08
5791.00,1.08
5790.00,1.08
5789.00,1.08
5788.00,1.08
5787.00,1.08
5786.00,1.08
5785.00,1.08
5784.00,1.08
5783.00,1.08
5782.00,1.08
5781.00,1.08
5780.00,1.09
5779.00,1.09
5778.00,1.09
5777.00,1.09
5776.00,1.09
5775.00,1.09
5774.00,1.09
5773.00,1.08
5772.00,1.08
5771.00,1.08
5770.00,1.08
5769.00,1.08
5768.00,1.08
5767.00,1.08
5766.00,1.08
5765.00,1.08
5764.00,1.08
5763.00,1.08
5762.00,1.08
5761.00,1.08
5760.00,1.08
5759.00,1.09
5758.00,1.09
5757.00,1.09
5756.00,1.09
5755.00,1.10
5754.00,1.10
5753.00,1.10
5752.00,1.10
5751.00,1.11
5750.00,1.11
5749.00,1.11
5748.00,1.11
5747.00,1.12
5746.00,1.12
5745.00,1.12
5744.00,1.12
5743.00,1.12
5742.00,1.12
5741.00,1.11
5740.00,1.11
5739.00,1.11
5738.00,1.10
5737.00,1.10
5736.00,1.10
5735.00,1.09
5734.00,1.09
5733.00,1.09
5732.00,1.08
5731.00,1.08
5730.00,1.07
5729.00,1.07
5728.00,1.07
5727.00,1.07
5726.00,1.06
5725.00,1.06
5724.00,1.06
5723.00,1.07
5722.00,1.07
5721.00,1.07
5720.00,1.07
5719.00,1.07
5718.00,1.08
5717.00,1.08
5716.00,1.08
5715.00,1.09
5714.00,1.09
5713.00,1.09
5712.00,1.10
5711.00,1.10
5710.00,1.10
5709.00,1.10
5708.00,1.10
5707.00,1.11
5706.00,1.11
5705.00,1.11
5704.00,1.11
5703.00,1.11
5702.00,1.11
5701.00,1.11
5700.00,1.11
5699.00,1.11
5698.00,1.10
5697.00,1.10
5696.00,1.10
5695.00,1.10
5694.00,1.10
5693.00,1.10
5692.00,1.10
5691.00,1.10
5690.00,1.10
5689.00,1.10
5688.00,1.10
5687.00,1.10
5686.00,1.10
5685.00,1.10
5684.00,1.10
5683.00,1.10
5682.00,1.10
5681.00,1.10
5680.00,1.10
5679.00,1.10
5678.00,1.10
5677.00,1.10
5676.00,1.11
5675.00,1.11
5674.00,1.11
5673.00,1.11
5672.00,1.11
5671.00,1.11
5670.00,1.11
5669.00,1.11
5668.00,1.11
5667.00,1.11
5666.00,1.11
5665.00,1.11
5664.00,1.11
5663.00,1.11
5662.00,1.11
5661.00,1.11
5660.00,1.11
5659.00,1.11
5658.00,1.11
5657.00,1.11
5656.00,1.11
5655.00,1.10
5654.00,1.10
5653.00,1.10
5652.00,1.10
5651.00,1.10
5650.00,1.10
5649.00,1.10
5648.00,1.10
5647.00,1.10
5646.00,1.10
5645.00,1.10
5644.00,1.10
5643.00,1.11
5642.00,1.11
5641.00,1.11
5640.00,1.11
5639.00,1.12
5638.00,1.12
5637.00,1.12
5636.00,1.13
5635.00,1.13
5634.00,1.13
5633.00,1.13
5632.00,1.14
5631.00,1.14
5630.00,1.14
5629.00,1.14
5628.00,1.14
5627.00,1.14
5626.00,1.15
5625.00,1.15
5624.00,1.15
5623.00,1.14
5622.00,1.14
5621.00,1.14
5620.00,1.14
5619.00,1.14
5618.00,1.14
5617.00,1.14
5616.00,1.13
5615.00,1.13
5614.00,1.13
5613.00,1.13
5612.00,1.13
5611.00,1.12
5610.00,1.12
5609.00,1.12
5608.00,1.12
5607.00,1.12
5606.00,1.12
5605.00,1.12
5604.00,1.12
5603.00,1.13
5602.00,1.13
5601.00,1.13
5600.00,1.13
5599.00,1.13
5598.00,1.13
5597.00,1.14
5596.00,1.14
5595.00,1.14
5594.00,1.14
5593.00,1.14
5592.00,1.14
5591.00,1.13
5590.00,1.13
5589.00,1.13
5588.00,1.13
5587.00,1.13
5586.00,1.13
5585.00,1.13
5584.00,1.12
5583.00,1.12
5582.00,1.12
5581.00,1.12
5580.00,1.11
5579.00,1.11
5578.00,1.11
5577.00,1.11
5576.00,1.11
5575.00,1.11
5574.00,1.11
5573.00,1.11
5572.00,1.11
5571.00,1.11
5570.00,1.11
5569.00,1.11
5568.00,1.11
5567.00,1.11
5566.00,1.12
5565.00,1.12
5564.00,1.12
5563.00,1.12
5562.00,1.13
5561.00,1.13
5560.00,1.13
5559.00,1.14
5558.00,1.14
5557.00,1.14
5556.00,1.15
5555.00,1.15
5554.00,1.15
5553.00,1.16
5552.00,1.16
5551.00,1.16
5550.00,1.17
5549.00,1.17
5548.00,1.17
5547.00,1.17
5546.00,1.17
5545.00,1.17
5544.00,1.17
5543.00,1.17
5542.00,1.17
5541.00,1.17
5540.00,1.17
5539.00,1.17
5538.00,1.17
5537.00,1.18
5536.00,1.18
5535.00,1.18
5534.00,1.18
5533.00,1.18
5532.00,1.18
5531.00,1.17
5530.00,1.17
5529.00,1.17
5528.00,1.17
5527.00,1.17
5526.00,1.17
5525.00,1.17
5524.00,1.17
5523.00,1.16
5522.00,1.16
5521.00,1.16
5520.00,1.16
5519.00,1.16
5518.00,1.15
5517.00,1.15
5516.00,1.15
5515.00,1.15
5514.00,1.15
5513.00,1.15
5512.00,1.15
5511.00,1.15
5510.00,1.15
5509.00,1.15
5508.00,1.15
5507.00,1.15
5506.00,1.16
5505.00,1.16
5504.00,1.16
5503.00,1.17
5502.00,1.17
5501.00,1.17
5500.00,1.17
5499.00,1.18
5498.00,1.18
5497.00,1.18
5496.00,1.18
5495.00,1.18
5494.00,1.18
5493.00,1.19
5492.00,1.19
5491.00,1.19
5490.00,1.19
5489.00,1.19
5488.00,1.20
5487.00,1.20
5486.00,1.20
5485.00,1.20
5484.00,1.20
5483.00,1.20
5482.00,1.20
5481.00,1.21
5480.00,1.21
5479.00,1.21
5478.00,1.21
5477.00,1.22
5476.00,1.22
5475.00,1.22
5474.00,1.23
5473.00,1.23
5472.00,1.23
5471.00,1.24
5470.00,1.24
5469.00,1.24
5468.00,1.24
5467.00,1.24
5466.00,1.24
5465.00,1.24
5464.00,1.24
5463.00,1.24
5462.00,1.24
5461.00,1.24
5460.00,1.24
5459.00,1.24
5458.00,1.24
5457.00,1.23
5456.00,1.23
5455.00,1.23
5454.00,1.23
5453.00,1.23
5452.00,1.22
5451.00,1.22
5450.00,1.22
5449.00,1.23
5448.00,1.23
5447.00,1.23
5446.00,1.23
5445.00,1.23
5444.00,1.23
5443.00,1.23
5442.00,1.23
5441.00,1.24
5440.00,1.24
5439.00,1.24
5438.00,1.24
5437.00,1.24
5436.00,1.24
5435.00,1.24
5434.00,1.24
5433.00,1.24
5432.00,1.24
5431.00,1.24
5430.00,1.24
5429.00,1.23
5428.00,1.23
5427.00,1.23
5426.00,1.22
5425.00,1.22
5424.00,1.22
5423.00,1.21
5422.00,1.21
5421.00,1.21
5420.00,1.20
5419.00,1.20
5418.00,1.20
5417.00,1.19
5416.00,1.19
5415.00,1.19
5414.00,1.18
5413.00,1.18
5412.00,1.17
5411.00,1.17
5410.00,1.17
5409.00,1.17
5408.00,1.16
5407.00,1.16
5406.00,1.16
5405.00,1.16
5404.00,1.16
5403.00,1.15
5402.00,1.15
5401.00,1.15
5400.00,1.15
5399.00,1.15
5398.00,1.16
5397.00,1.16
5396.00,1.16
5395.00,1.16
5394.00,1.16
5393.00,1.17
5392.00,1.17
5391.00,1.17
5390.00,1.18
5389.00,1.18
5388.00,1.18
5387.00,1.18
5386.00,1.19
5385.00,1.19
5384.00,1.19
5383.00,1.19
5382.00,1.19
5381.00,1.20
5380.00,1.20
5379.00,1.20
5378.00,1.20
5377.00,1.20
5376.00,1.20
5375.00,1.20
5374.00,1.19
5373.00,1.19
5372.00,1.19
5371.00,1.19
5370.00,1.19
5369.00,1.19
5368.00,1.19
5367.00,1.19
5366.00,1.19
5365.00,1.19
5364.00,1.19
5363.00,1.19
5362.00,1.19
5361.00,1.19
5360.00,1.19
5359.00,1.20
5358.00,1.20
5357.00,1.20
5356.00,1.21
5355.00,1.21
5354.00,1.21
5353.00,1.22
5352.00,1.22
5351.00,1.22
5350.00,1.23
5349.00,1.23
5348.00,1.23
5347.00,1.23
5346.00,1.23
5345.00,1.23
5344.00,1.23
5343.00,1.22
5342.00,1.22
5341.00,1.22
5340.00,1.21
5339.00,1.21
5338.00,1.20
5337.00,1.20
5336.00,1.19
5335.00,1.19
5334.00,1.18
5333.00,1.18
5332.00,1.17
5331.00,1.17
5330.00,1.16
5329.00,1.16
5328.00,1.16
5327.00,1.15
5326.00,1.15
5325.00,1.14
5324.00,1.14
5323.00,1.14
5322.00,1.13
5321.00,1.13
5320.00,1.13
5319.00,1.12
5318.00,1.12
5317.00,1.11
5316.00,1.11
5315.00,1.11
5314.00,1.10
5313.00,1.10
5312.00,1.10
5311.00,1.09
5310.00,1.09
5309.00,1.09
5308.00,1.09
5307.00,1.08
5306.00,1.08
5305.00,1.08
5304.00,1.08
5303.00,1.08
5302.00,1.08
5301.00,1.08
5300.00,1.08
5299.00,1.08
5298.00,1.08
5297.00,1.08
5296.00,1.08
5295.00,1.08
5294.00,1.08
5293.00,1.08
5292.00,1.08
5291.00,1.08
5290.00,1.08
5289.00,1.07
5288.00,1.07
5287.00,1.07
5286.00,1.07
5285.00,1.06
5284.00,1.06
5283.00,1.06
5282.00,1.06
5281.00,1.06
5280.00,1.05
5279.00,1.05
5278.00,1.05
5277.00,1.05
5276.00,1.05
5275.00,1.05
5274.00,1.05
5273.00,1.05
5272.00,1.05
5271.00,1.06
5270.00,1.06
5269.00,1.06
5268.00,1.06
5267.00,1.06
5266.00,1.06
5265.00,1.06
5264.00,1.06
5263.00,1.06
5262.00,1.06
5261.00,1.06
5260.00,1.06
5259.00,1.06
5258.00,1.06
5257.00,1.06
5256.00,1.06
5255.00,1.06
5254.00,1.06
5253.00,1.06
5252.00,1.06
5251.00,1.06
5250.00,1.06
5249.00,1.06
5248.00,1.06
5247.00,1.06
5246.00,1.06
5245.00,1.05
5244.00,1.05
5243.00,1.05
5242.00,1.05
5241.00,1.05
5240.00,1.04
5239.00,1.04
5238.00,1.04
5237.00,1.04
5236.00,1.04
5235.00,1.03
5234.00,1.03
5233.00,1.03
5232.00,1.03
5231.00,1.03
5230.00,1.03
5229.00,1.03
5228.00,1.03
5227.00,1.03
5226.00,1.03
5225.00,1.03
5224.00,1.03
5223.00,1.03
5222.00,1.03
5221.00,1.03
5220.00,1.03
5219.00,1.03
5218.00,1.04
5217.00,1.04
5216.00,1.04
5215.00,1.04
5214.00,1.04
5213.00,1.04
5212.00,1.05
5211.00,1.05
5210.00,1.05
5209.00,1.05
5208.00,1.05
5207.00,1.06
5206.00,1.06
5205.00,1.06
5204.00,1.06
5203.00,1.06
5202.00,1.06
5201.00,1.06
5200.00,1.06
5199.00,1.06
5198.00,1.06
5197.00,1.06
5196.00,1.06
5195.00,1.06
5194.00,1.05
5193.00,1.05
5192.00,1.05
5191.00,1.05
5190.00,1.05
5189.00,1.05
5188.00,1.04
5187.00,1.04
5186.00,1.04
5185.00,1.04
5184.00,1.04
5183.00,1.04
5182.00,1.03
5181.00,1.03
5180.00,1.03
5179.00,1.03
5178.00,1.03
5177.00,1.03
5176.00,1.03
5175.00,1.03
5174.00,1.03
5173.00,1.03
5172.00,1.03
5171.00,1.04
5170.00,1.04
5169.00,1.04
5168.00,1.04
5167.00,1.04
5166.00,1.04
5165.00,1.05
5164.00,1.05
5163.00,1.05
5162.00,1.05
5161.00,1.05
5160.00,1.05
5159.00,1.05
5158.00,1.05
5157.00,1.05
5156.00,1.05
5155.00,1.05
5154.00,1.04
5153.00,1.04
5152.00,1.04
5151.00,1.04
5150.00,1.04
5149.00,1.04
5148.00,1.04
5147.00,1.04
5146.00,1.04
5145.00,1.04
5144.00,1.04
5143.00,1.03
5142.00,1.03
5141.00,1.03
5140.00,1.03
5139.00,1.03
5138.00,1.03
5137.00,1.03
5136.00,1.03
5135.00,1.03
5134.00,1.03
5133.00,1.03
5132.00,1.03
5131.00,1.03
5130.00,1.03
5129.00,1.03
5128.00,1.03
5127.00,1.03
5126.00,1.03
5125.00,1.03
5124.00,1.03
5123.00,1.03
5122.00,1.03
5121.00,1.03
5120.00,1.03
5119.00,1.03
5118.00,1.03
5117.00,1.03
5116.00,1.03
5115.00,1.03
5114.00,1.02
5113.00,1.02
5112.00,1.02
5111.00,1.02
5110.00,1.02
5109.00,1.02
5108.00,1.02
5107.00,1.02
5106.00,1.02
5105.00,1.02
5104.00,1.02
5103.00,1.02
5102.00,1.03
5101.00,1.03
5100.00,1.03
5099.00,1.03
5098.00,1.03
5097.00,1.04
5096.00,1.04
5095.00,1.04
5094.00,1.04
5093.00,1.05
5092.00,1.05
5091.00,1.05
5090.00,1.05
5089.00,1.05
5088.00,1.05
5087.00,1.06
5086.00,1.06
5085.00,1.06
5084.00,1.06
5083.00,1.06
5082.00,1.05
5081.00,1.05
5080.00,1.06
5079.00,1.06
5078.00,1.06
5077.00,1.06
5076.00,1.06
5075.00,1.05
5074.00,1.05
5073.00,1.05
5072.00,1.05
5071.00,1.05
5070.00,1.05
5069.00,1.05
5068.00,1.05
5067.00,1.05
5066.00,1.05
5065.00,1.05
5064.00,1.04
5063.00,1.04
5062.00,1.04
5061.00,1.04
5060.00,1.04
5059.00,1.04
5058.00,1.03
5057.00,1.03
5056.00,1.03
5055.00,1.03
5054.00,1.04
5053.00,1.04
5052.00,1.04
5051.00,1.04
5050.00,1.04
5049.00,1.04
5048.00,1.04
5047.00,1.05
5046.00,1.05
5045.00,1.05
5044.00,1.05
5043.00,1.05
5042.00,1.06
5041.00,1.06
5040.00,1.06
5039.00,1.06
5038.00,1.06
5037.00,1.06
5036.00,1.06
5035.00,1.06
5034.00,1.06
5033.00,1.06
5032.00,1.06
5031.00,1.05
5030.00,1.05
5029.00,1.05
5028.00,1.05
5027.00,1.05
5026.00,1.05
5025.00,1.05
5024.00,1.06
5023.00,1.06
5022.00,1.06
5021.00,1.06
5020.00,1.06
5019.00,1.07
5018.00,1.07
5017.00,1.07
5016.00,1.07
5015.00,1.08
5014.00,1.08
5013.00,1.08
5012.00,1.08
5011.00,1.08
5010.00,1.08
5009.00,1.08
5008.00,1.08
5007.00,1.08
5006.00,1.08
5005.00,1.08
5004.00,1.07
5003.00,1.07
5002.00,1.07
5001.00,1.07
5000.00,1.06
4999.00,1.06
4998.00,1.06
4997.00,1.06
4996.00,1.06
4995.00,1.06
4994.00,1.06
4993.00,1.06
4992.00,1.06
4991.00,1.06
4990.00,1.06
4989.00,1.06
4988.00,1.07
4987.00,1.07
4986.00,1.07
4985.00,1.07
4984.00,1.07
4983.00,1.08
4982.00,1.08
4981.00,1.08
4980.00,1.08
4979.00,1.08
4978.00,1.08
4977.00,1.08
4976.00,1.08
4975.00,1.08
4974.00,1.09
4973.00,1.09
4972.00,1.09
4971.00,1.09
4970.00,1.09
4969.00,1.09
4968.00,1.10
4967.00,1.10
4966.00,1.10
4965.00,1.11
4964.00,1.11
4963.00,1.11
4962.00,1.11
4961.00,1.11
4960.00,1.12
4959.00,1.12
4958.00,1.12
4957.00,1.12
4956.00,1.12
4955.00,1.12
4954.00,1.12
4953.00,1.11
4952.00,1.11
4951.00,1.11
4950.00,1.11
4949.00,1.11
4948.00,1.10
4947.00,1.10
4946.00,1.10
4945.00,1.10
4944.00,1.10
4943.00,1.10
4942.00,1.10
4941.00,1.10
4940.00,1.10
4939.00,1.10
4938.00,1.10
4937.00,1.10
4936.00,1.10
4935.00,1.11
4934.00,1.11
4933.00,1.11
4932.00,1.11
4931.00,1.12
4930.00,1.12
4929.00,1.12
4928.00,1.13
4927.00,1.13
4926.00,1.13
4925.00,1.13
4924.00,1.13
4923.00,1.13
4922.00,1.13
4921.00,1.14
4920.00,1.14
4919.00,1.14
4918.00,1.14
4917.00,1.14
4916.00,1.14
4915.00,1.14
4914.00,1.14
4913.00,1.14
4912.00,1.15
4911.00,1.15
4910.00,1.15
4909.00,1.15
4908.00,1.15
4907.00,1.16
4906.00,1.16
4905.00,1.16
4904.00,1.16
4903.00,1.17
4902.00,1.17
4901.00,1.17
4900.00,1.17
4899.00,1.17
4898.00,1.17
4897.00,1.16
4896.00,1.16
4895.00,1.16
4894.00,1.16
4893.00,1.16
4892.00,1.15
4891.00,1.15
4890.00,1.15
4889.00,1.14
4888.00,1.14
4887.00,1.14
4886.00,1.14
4885.00,1.13
4884.00,1.13
4883.00,1.13
4882.00,1.13
4881.00,1.13
4880.00,1.13
4879.00,1.13
4878.00,1.14
4877.00,1.14
4876.00,1.14
4875.00,1.14
4874.00,1.14
4873.00,1.14
4872.00,1.14
4871.00,1.15
4870.00,1.15
4869.00,1.15
4868.00,1.15
4867.00,1.14
4866.00,1.14
4865.00,1.14
4864.00,1.14
4863.00,1.14
4862.00,1.14
4861.00,1.13
4860.00,1.13
4859.00,1.13
4858.00,1.13
4857.00,1.13
4856.00,1.12
4855.00,1.12
4854.00,1.12
4853.00,1.12
4852.00,1.12
4851.00,1.12
4850.00,1.12
4849.00,1.12
4848.00,1.12
4847.00,1.12
4846.00,1.12
4845.00,1.12
4844.00,1.12
4843.00,1.12
4842.00,1.12
4841.00,1.11
4840.00,1.11
4839.00,1.11
4838.00,1.11
4837.00,1.11
4836.00,1.11
4835.00,1.11
4834.00,1.11
4833.00,1.11
4832.00,1.11
4831.00,1.11
4830.00,1.11
4829.00,1.11
4828.00,1.12
4827.00,1.12
4826.00,1.12
4825.00,1.12
4824.00,1.12
4823.00,1.12
4822.00,1.12
4821.00,1.12
4820.00,1.12
4819.00,1.12
4818.00,1.12
4817.00,1.12
4816.00,1.12
4815.00,1.12
4814.00,1.12
4813.00,1.12
4812.00,1.11
4811.00,1.11
4810.00,1.11
4809.00,1.11
4808.00,1.11
4807.00,1.10
4806.00,1.10
4805.00,1.10
4804.00,1.10
4803.00,1.10
4802.00,1.10
4801.00,1.10
4800.00,1.10
4799.00,1.10
4798.00,1.10
4797.00,1.10
4796.00,1.10
4795.00,1.10
4794.00,1.10
4793.00,1.10
4792.00,1.10
4791.00,1.10
4790.00,1.10
4789.00,1.10
4788.00,1.10
4787.00,1.10
4786.00,1.11
4785.00,1.11
4784.00,1.11
4783.00,1.11
4782.00,1.11
4781.00,1.11
4780.00,1.11
4779.00,1.11
4778.00,1.11
4777.00,1.11
4776.00,1.12
4775.00,1.12
4774.00,1.12
4773.00,1.12
4772.00,1.12
4771.00,1.12
4770.00,1.12
4769.00,1.12
4768.00,1.12
4767.00,1.12
4766.00,1.12
4765.00,1.12
4764.00,1.12
4763.00,1.12
4762.00,1.13
4761.00,1.13
4760.00,1.13
4759.00,1.13
4758.00,1.13
4757.00,1.13
4756.00,1.13
4755.00,1.14
4754.00,1.14
4753.00,1.14
4752.00,1.14
4751.00,1.14
4750.00,1.14
4749.00,1.14
4748.00,1.14
4747.00,1.14
4746.00,1.14
4745.00,1.14
4744.00,1.14
4743.00,1.13
4742.00,1.13
4741.00,1.13
4740.00,1.13
4739.00,1.12
4738.00,1.12
4737.00,1.12
4736.00,1.12
4735.00,1.12
4734.00,1.11
4733.00,1.11
4732.00,1.11
4731.00,1.11
4730.00,1.11
4729.00,1.11
4728.00,1.10
4727.00,1.10
4726.00,1.10
4725.00,1.10
4724.00,1.10
4723.00,1.10
4722.00,1.10
4721.00,1.10
4720.00,1.10
4719.00,1.10
4718.00,1.10
4717.00,1.10
4716.00,1.10
4715.00,1.11
4714.00,1.11
4713.00,1.11
4712.00,1.11
4711.00,1.11
4710.00,1.12
4709.00,1.12
4708.00,1.12
4707.00,1.12
4706.00,1.13
4705.00,1.13
4704.00,1.13
4703.00,1.13
4702.00,1.13
4701.00,1.14
4700.00,1.14
4699.00,1.14
4698.00,1.14
4697.00,1.14
4696.00,1.14
4695.00,1.14
4694.00,1.14
4693.00,1.14
4692.00,1.14
4691.00,1.14
4690.00,1.14
4689.00,1.14
4688.00,1.15
4687.00,1.15
4686.00,1.15
4685.00,1.15
4684.00,1.15
4683.00,1.15
4682.00,1.15
4681.00,1.15
4680.00,1.15
4679.00,1.15
4678.00,1.16
4677.00,1.16
4676.00,1.16
4675.00,1.16
4674.00,1.16
4673.00,1.16
4672.00,1.16
4671.00,1.16
4670.00,1.16
4669.00,1.15
4668.00,1.15
4667.00,1.15
4666.00,1.15
4665.00,1.14
4664.00,1.14
4663.00,1.14
4662.00,1.14
4661.00,1.13
4660.00,1.13
4659.00,1.13
4658.00,1.13
4657.00,1.13
4656.00,1.12
4655.00,1.12
4654.00,1.12
4653.00,1.12
4652.00,1.12
4651.00,1.12
4650.00,1.12
4649.00,1.13
4648.00,1.13
4647.00,1.13
4646.00,1.13
4645.00,1.14
4644.00,1.14
4643.00,1.14
4642.00,1.14
4641.00,1.15
4640.00,1.15
4639.00,1.15
4638.00,1.16
4637.00,1.16
4636.00,1.17
4635.00,1.17
4634.00,1.17
4633.00,1.18
4632.00,1.18
4631.00,1.18
4630.00,1.18
4629.00,1.19
4628.00,1.19
4627.00,1.19
4626.00,1.19
4625.00,1.19
4624.00,1.19
4623.00,1.19
4622.00,1.19
4621.00,1.19
4620.00,1.19
4619.00,1.19
4618.00,1.19
4617.00,1.19
4616.00,1.19
4615.00,1.19
4614.00,1.19
4613.00,1.19
4612.00,1.19
4611.00,1.19
4610.00,1.19
4609.00,1.18
4608.00,1.18
4607.00,1.18
4606.00,1.18
4605.00,1.18
4604.00,1.18
4603.00,1.18
4602.00,1.18
4601.00,1.18
4600.00,1.17
4599.00,1.17
4598.00,1.17
4597.00,1.17
4596.00,1.17
4595.00,1.17
4594.00,1.17
4593.00,1.16
4592.00,1.16
4591.00,1.16
4590.00,1.16
4589.00,1.16
4588.00,1.16
4587.00,1.16
4586.00,1.16
4585.00,1.16
4584.00,1.16
4583.00,1.16
4582.00,1.16
4581.00,1.16
4580.00,1.16
4579.00,1.16
4578.00,1.15
4577.00,1.15
4576.00,1.15
4575.00,1.14
4574.00,1.14
4573.00,1.14
4572.00,1.13
4571.00,1.13
4570.00,1.13
4569.00,1.13
4568.00,1.12
4567.00,1.12
4566.00,1.12
4565.00,1.12
4564.00,1.12
4563.00,1.12
4562.00,1.12
4561.00,1.12
4560.00,1.12
4559.00,1.12
4558.00,1.12
4557.00,1.12
4556.00,1.12
4555.00,1.12
4554.00,1.12
4553.00,1.12
4552.00,1.12
4551.00,1.12
4550.00,1.12
4549.00,1.13
4548.00,1.13
4547.00,1.13
4546.00,1.13
4545.00,1.13
4544.00,1.13
4543.00,1.13
4542.00,1.13
4541.00,1.13
4540.00,1.13
4539.00,1.13
4538.00,1.13
4537.00,1.13
4536.00,1.12
4535.00,1.12
4534.00,1.12
4533.00,1.11
4532.00,1.11
4531.00,1.11
4530.00,1.10
4529.00,1.10
4528.00,1.10
4527.00,1.10
4526.00,1.10
4525.00,1.10
4524.00,1.10
4523.00,1.10
4522.00,1.10
4521.00,1.10
4520.00,1.10
4519.00,1.11
4518.00,1.11
4517.00,1.12
4516.00,1.12
4515.00,1.12
4514.00,1.13
4513.00,1.13
4512.00,1.14
4511.00,1.14
4510.00,1.14
4509.00,1.15
4508.00,1.15
4507.00,1.15
4506.00,1.15
4505.00,1.16
4504.00,1.16
4503.00,1.16
4502.00,1.16
4501.00,1.16
4500.00,1.16
4499.00,1.16
4498.00,1.16
4497.00,1.16
4496.00,1.16
4495.00,1.16
4494.00,1.16
4493.00,1.16
4492.00,1.15
4491.00,1.15
4490.00,1.15
4489.00,1.15
4488.00,1.15
4487.00,1.15
4486.00,1.14
4485.00,1.14
4484.00,1.14
4483.00,1.14
4482.00,1.13
4481.00,1.13
4480.00,1.13
4479.00,1.13
4478.00,1.13
4477.00,1.13
4476.00,1.13
4475.00,1.13
4474.00,1.13
4473.00,1.13
4472.00,1.13
4471.00,1.13
4470.00,1.13
4469.00,1.13
4468.00,1.14
4467.00,1.14
4466.00,1.14
4465.00,1.14
4464.00,1.14
4463.00,1.14
4462.00,1.15
4461.00,1.15
4460.00,1.15
4459.00,1.15
4458.00,1.15
4457.00,1.15
4456.00,1.15
4455.00,1.14
4454.00,1.14
4453.00,1.14
4452.00,1.14
4451.00,1.14
4450.00,1.14
4449.00,1.14
4448.00,1.14
4447.00,1.14
4446.00,1.13
4445.00,1.13
4444.00,1.13
4443.00,1.13
4442.00,1.13
4441.00,1.12
4440.00,1.12
4439.00,1.12
4438.00,1.12
4437.00,1.12
4436.00,1.12
4435.00,1.12
4434.00,1.12
4433.00,1.12
4432.00,1.12
4431.00,1.12
4430.00,1.12
4429.00,1.12
4428.00,1.12
4427.00,1.13
4426.00,1.13
4425.00,1.13
4424.00,1.13
4423.00,1.13
4422.00,1.14
4421.00,1.14
4420.00,1.14
4419.00,1.14
4418.00,1.14
4417.00,1.14
4416.00,1.14
4415.00,1.14
4414.00,1.14
4413.00,1.14
4412.00,1.14
4411.00,1.14
4410.00,1.14
4409.00,1.14
4408.00,1.14
4407.00,1.14
4406.00,1.14
4405.00,1.14
4404.00,1.14
4403.00,1.14
4402.00,1.14
4401.00,1.14
4400.00,1.14
4399.00,1.14
4398.00,1.14
4397.00,1.14
4396.00,1.14
4395.00,1.14
4394.00,1.14
4393.00,1.14
4392.00,1.14
4391.00,1.13
4390.00,1.13
4389.00,1.13
4388.00,1.13
4387.00,1.12
4386.00,1.12
4385.00,1.12
4384.00,1.12
4383.00,1.11
4382.00,1.11
4381.00,1.11
4380.00,1.11
4379.00,1.11
4378.00,1.11
4377.00,1.10
4376.00,1.10
4375.00,1.10
4374.00,1.10
4373.00,1.10
4372.00,1.10
4371.00,1.10
4370.00,1.10
4369.00,1.10
4368.00,1.10
4367.00,1.10
4366.00,1.10
4365.00,1.10
4364.00,1.10
4363.00,1.10
4362.00,1.10
4361.00,1.10
4360.00,1.10
4359.00,1.10
4358.00,1.10
4357.00,1.10
4356.00,1.10
4355.00,1.10
4354.00,1.10
4353.00,1.10
4352.00,1.10
4351.00,1.09
4350.00,1.09
4349.00,1.09
4348.00,1.09
4347.00,1.09
4346.00,1.09
4345.00,1.09
4344.00,1.09
4343.00,1.08
4342.00,1.08
4341.00,1.08
4340.00,1.08
4339.00,1.08
4338.00,1.08
4337.00,1.08
4336.00,1.08
4335.00,1.08
4334.00,1.08
4333.00,1.09
4332.00,1.09
4331.00,1.09
4330.00,1.09
4329.00,1.10
4328.00,1.10
4327.00,1.10
4326.00,1.11
4325.00,1.11
4324.00,1.11
4323.00,1.12
4322.00,1.12
4321.00,1.12
4320.00,1.12
4319.00,1.12
4318.00,1.12
4317.00,1.12
4316.00,1.12
4315.00,1.12
4314.00,1.12
4313.00,1.11
4312.00,1.11
4311.00,1.11
4310.00,1.10
4309.00,1.10
4308.00,1.10
4307.00,1.10
4306.00,1.09
4305.00,1.09
4304.00,1.09
4303.00,1.09
4302.00,1.08
4301.00,1.08
4300.00,1.08
4299.00,1.08
4298.00,1.08
4297.00,1.08
4296.00,1.08
4295.00,1.09
4294.00,1.09
4293.00,1.09
4292.00,1.10
4291.00,1.10
4290.00,1.10
4289.00,1.11
4288.00,1.11
4287.00,1.11
4286.00,1.12
4285.00,1.12
4284.00,1.13
4283.00,1.13
4282.00,1.13
4281.00,1.14
4280.00,1.14
4279.00,1.14
4278.00,1.14
4277.00,1.14
4276.00,1.14
4275.00,1.14
4274.00,1.14
4273.00,1.14
4272.00,1.14
4271.00,1.14
4270.00,1.15
4269.00,1.15
4268.00,1.15
4267.00,1.15
4266.00,1.15
4265.00,1.14
4264.00,1.15
4263.00,1.15
4262.00,1.15
4261.00,1.15
4260.00,1.15
4259.00,1.15
4258.00,1.15
4257.00,1.15
4256.00,1.15
4255.00,1.15
4254.00,1.14
4253.00,1.14
4252.00,1.14
4251.00,1.14
4250.00,1.13
4249.00,1.13
4248.00,1.13
4247.00,1.13
4246.00,1.13
4245.00,1.13
4244.00,1.13
4243.00,1.13
4242.00,1.12
4241.00,1.12
4240.00,1.13
4239.00,1.13
4238.00,1.13
4237.00,1.13
4236.00,1.13
4235.00,1.13
4234.00,1.13
4233.00,1.13
4232.00,1.14
4231.00,1.14
4230.00,1.14
4229.00,1.14
4228.00,1.14
4227.00,1.14
4226.00,1.14
4225.00,1.14
4224.00,1.14
4223.00,1.15
4222.00,1.15
4221.00,1.15
4220.00,1.15
4219.00,1.15
4218.00,1.15
4217.00,1.16
4216.00,1.16
4215.00,1.16
4214.00,1.16
4213.00,1.16
4212.00,1.16
4211.00,1.16
4210.00,1.15
4209.00,1.15
4208.00,1.15
4207.00,1.15
4206.00,1.14
4205.00,1.14
4204.00,1.14
4203.00,1.14
4202.00,1.13
4201.00,1.13
4200.00,1.13
4199.00,1.13
4198.00,1.13
4197.00,1.12
4196.00,1.12
4195.00,1.12
4194.00,1.12
4193.00,1.12
4192.00,1.12
4191.00,1.11
4190.00,1.11
4189.00,1.11
4188.00,1.11
4187.00,1.11
4186.00,1.11
4185.00,1.11
4184.00,1.10
4183.00,1.10
4182.00,1.10
4181.00,1.10
4180.00,1.10
4179.00,1.10
4178.00,1.10
4177.00,1.10
4176.00,1.10
4175.00,1.11
4174.00,1.11
4173.00,1.11
4172.00,1.11
4171.00,1.11
4170.00,1.12
4169.00,1.12
4168.00,1.12
4167.00,1.12
4166.00,1.13
4165.00,1.13
4164.00,1.13
4163.00,1.13
4162.00,1.14
4161.00,1.14
4160.00,1.14
4159.00,1.14
4158.00,1.14
4157.00,1.15
4156.00,1.15
4155.00,1.14
4154.00,1.14
4153.00,1.14
4152.00,1.14
4151.00,1.13
4150.00,1.13
4149.00,1.12
4148.00,1.12
4147.00,1.12
4146.00,1.11
4145.00,1.11
4144.00,1.11
4143.00,1.11
4142.00,1.10
4141.00,1.10
4140.00,1.10
4139.00,1.10
4138.00,1.11
4137.00,1.11
4136.00,1.11
4135.00,1.11
4134.00,1.12
4133.00,1.12
4132.00,1.12
4131.00,1.13
4130.00,1.13
4129.00,1.13
4128.00,1.13
4127.00,1.14
4126.00,1.14
4125.00,1.14
4124.00,1.14
4123.00,1.14
4122.00,1.14
4121.00,1.14
4120.00,1.14
4119.00,1.14
4118.00,1.14
4117.00,1.14
4116.00,1.14
4115.00,1.14
4114.00,1.14
4113.00,1.14
4112.00,1.14
4111.00,1.14
4110.00,1.14
4109.00,1.14
4108.00,1.14
4107.00,1.14
4106.00,1.14
4105.00,1.14
4104.00,1.13
4103.00,1.13
4102.00,1.13
4101.00,1.13
4100.00,1.13
4099.00,1.14
4098.00,1.14
4097.00,1.14
4096.00,1.14
4095.00,1.15
4094.00,1.15
4093.00,1.15
4092.00,1.15
4091.00,1.15
4090.00,1.15
4089.00,1.15
4088.00,1.15
4087.00,1.14
4086.00,1.14
4085.00,1.14
4084.00,1.13
4083.00,1.13
4082.00,1.12
4081.00,1.12
4080.00,1.11
4079.00,1.10
4078.00,1.10
4077.00,1.09
4076.00,1.08
4075.00,1.08
4074.00,1.08
4073.00,1.07
4072.00,1.07
4071.00,1.07
4070.00,1.07
4069.00,1.07
4068.00,1.07
4067.00,1.07
4066.00,1.07
4065.00,1.08
4064.00,1.08
4063.00,1.08
4062.00,1.09
4061.00,1.09
4060.00,1.09
4059.00,1.10
4058.00,1.10
4057.00,1.10
4056.00,1.11
4055.00,1.11
4054.00,1.11
4053.00,1.11
4052.00,1.12
4051.00,1.12
4050.00,1.12
4049.00,1.12
4048.00,1.12
4047.00,1.13
4046.00,1.13
4045.00,1.12
4044.00,1.12
4043.00,1.12
4042.00,1.12
4041.00,1.12
4040.00,1.12
4039.00,1.11
4038.00,1.11
4037.00,1.11
4036.00,1.11
4035.00,1.11
4034.00,1.11
4033.00,1.11
4032.00,1.11
4031.00,1.11
4030.00,1.11
4029.00,1.11
4028.00,1.12
4027.00,1.12
4026.00,1.12
4025.00,1.12
4024.00,1.13
4023.00,1.13
4022.00,1.13
4021.00,1.13
4020.00,1.13
4019.00,1.14
4018.00,1.14
4017.00,1.14
4016.00,1.15
4015.00,1.15
4014.00,1.16
4013.00,1.17
4012.00,1.17
4011.00,1.18
4010.00,1.19
4009.00,1.19
4008.00,1.20
4007.00,1.21
4006.00,1.21
4005.00,1.22
4004.00,1.23
4003.00,1.24
4002.00,1.24
4001.00,1.25
4000.00,1.26
