创建为新数据集,样品 237 用户 Administrator 日期 星期六, 七月 27 2019
cm-1,%T
10000.00,1.68
9999.00,1.67
9998.00,1.66
9997.00,1.65
9996.00,1.64
9995.00,1.64
9994.00,1.63
9993.00,1.62
9992.00,1.62
9991.00,1.61
9990.00,1.60
9989.00,1.60
9988.00,1.59
9987.00,1.58
9986.00,1.58
9985.00,1.57
9984.00,1.56
9983.00,1.55
9982.00,1.55
9981.00,1.54
9980.00,1.53
9979.00,1.52
9978.00,1.51
9977.00,1.50
9976.00,1.50
9975.00,1.49
9974.00,1.49
9973.00,1.48
9972.00,1.48
9971.00,1.47
9970.00,1.47
9969.00,1.47
9968.00,1.46
9967.00,1.46
9966.00,1.46
9965.00,1.45
9964.00,1.45
9963.00,1.45
9962.00,1.45
9961.00,1.44
9960.00,1.44
9959.00,1.44
9958.00,1.44
9957.00,1.44
9956.00,1.44
9955.00,1.44
9954.00,1.45
9953.00,1.45
9952.00,1.45
9951.00,1.46
9950.00,1.46
9949.00,1.46
9948.00,1.47
9947.00,1.47
9946.00,1.47
9945.00,1.47
9944.00,1.47
9943.00,1.47
9942.00,1.47
9941.00,1.46
9940.00,1.46
9939.00,1.46
9938.00,1.46
9937.00,1.45
9936.00,1.45
9935.00,1.45
9934.00,1.44
9933.00,1.44
9932.00,1.44
9931.00,1.43
9930.00,1.43
9929.00,1.42
9928.00,1.42
9927.00,1.41
9926.00,1.41
9925.00,1.40
9924.00,1.39
9923.00,1.39
9922.00,1.38
9921.00,1.37
9920.00,1.37
9919.00,1.36
9918.00,1.36
9917.00,1.36
9916.00,1.35
9915.00,1.35
9914.00,1.35
9913.00,1.34
9912.00,1.34
9911.00,1.34
9910.00,1.34
9909.00,1.33
9908.00,1.33
9907.00,1.33
9906.00,1.33
9905.00,1.32
9904.00,1.32
9903.00,1.32
9902.00,1.32
9901.00,1.31
9900.00,1.31
9899.00,1.31
9898.00,1.30
9897.00,1.30
9896.00,1.30
9895.00,1.29
9894.00,1.29
9893.00,1.29
9892.00,1.28
9891.00,1.28
9890.00,1.27
9889.00,1.27
9888.00,1.27
9887.00,1.26
9886.00,1.26
9885.00,1.25
9884.00,1.25
9883.00,1.25
9882.00,1.25
9881.00,1.25
9880.00,1.25
9879.00,1.25
9878.00,1.25
9877.00,1.25
9876.00,1.25
9875.00,1.26
9874.00,1.26
9873.00,1.27
9872.00,1.27
9871.00,1.28
9870.00,1.28
9869.00,1.29
9868.00,1.30
9867.00,1.31
9866.00,1.32
9865.00,1.33
9864.00,1.34
9863.00,1.35
9862.00,1.36
9861.00,1.38
9860.00,1.39
9859.00,1.40
9858.00,1.42
9857.00,1.43
9856.00,1.45
9855.00,1.46
9854.00,1.47
9853.00,1.48
9852.00,1.49
9851.00,1.50
9850.00,1.51
9849.00,1.51
9848.00,1.52
9847.00,1.52
9846.00,1.53
9845.00,1.53
9844.00,1.54
9843.00,1.54
9842.00,1.54
9841.00,1.55
9840.00,1.55
9839.00,1.55
9838.00,1.55
9837.00,1.54
9836.00,1.54
9835.00,1.54
9834.00,1.53
9833.00,1.53
9832.00,1.52
9831.00,1.51
9830.00,1.51
9829.00,1.50
9828.00,1.49
9827.00,1.49
9826.00,1.48
9825.00,1.48
9824.00,1.47
9823.00,1.47
9822.00,1.47
9821.00,1.46
9820.00,1.46
9819.00,1.46
9818.00,1.45
9817.00,1.45
9816.00,1.45
9815.00,1.44
9814.00,1.44
9813.00,1.44
9812.00,1.43
9811.00,1.43
9810.00,1.42
9809.00,1.42
9808.00,1.41
9807.00,1.41
9806.00,1.41
9805.00,1.40
9804.00,1.40
9803.00,1.40
9802.00,1.39
9801.00,1.39
9800.00,1.38
9799.00,1.38
9798.00,1.38
9797.00,1.37
9796.00,1.37
9795.00,1.36
9794.00,1.36
9793.00,1.36
9792.00,1.35
9791.00,1.35
9790.00,1.35
9789.00,1.34
9788.00,1.34
9787.00,1.34
9786.00,1.34
9785.00,1.34
9784.00,1.34
9783.00,1.34
9782.00,1.34
9781.00,1.34
9780.00,1.34
9779.00,1.34
9778.00,1.35
9777.00,1.35
9776.00,1.35
9775.00,1.36
9774.00,1.36
9773.00,1.37
9772.00,1.37
9771.00,1.38
9770.00,1.38
9769.00,1.39
9768.00,1.39
9767.00,1.40
9766.00,1.40
9765.00,1.40
9764.00,1.41
9763.00,1.41
9762.00,1.41
9761.00,1.41
9760.00,1.42
9759.00,1.42
9758.00,1.42
9757.00,1.42
9756.00,1.42
9755.00,1.42
9754.00,1.42
9753.00,1.42
9752.00,1.42
9751.00,1.41
9750.00,1.41
9749.00,1.40
9748.00,1.40
9747.00,1.39
9746.00,1.38
9745.00,1.38
9744.00,1.37
9743.00,1.36
9742.00,1.36
9741.00,1.35
9740.00,1.35
9739.00,1.35
9738.00,1.34
9737.00,1.34
9736.00,1.34
9735.00,1.33
9734.00,1.33
9733.00,1.33
9732.00,1.33
9731.00,1.33
9730.00,1.33
9729.00,1.33
9728.00,1.33
9727.00,1.33
9726.00,1.33
9725.00,1.33
9724.00,1.34
9723.00,1.34
9722.00,1.35
9721.00,1.35
9720.00,1.35
9719.00,1.36
9718.00,1.36
9717.00,1.37
9716.00,1.37
9715.00,1.37
9714.00,1.38
9713.00,1.38
9712.00,1.38
9711.00,1.39
9710.00,1.39
9709.00,1.39
9708.00,1.40
9707.00,1.40
9706.00,1.40
9705.00,1.40
9704.00,1.40
9703.00,1.41
9702.00,1.41
9701.00,1.41
9700.00,1.41
9699.00,1.42
9698.00,1.42
9697.00,1.43
9696.00,1.43
9695.00,1.44
9694.00,1.44
9693.00,1.45
9692.00,1.45
9691.00,1.45
9690.00,1.45
9689.00,1.46
9688.00,1.46
9687.00,1.46
9686.00,1.46
9685.00,1.45
9684.00,1.45
9683.00,1.45
9682.00,1.45
9681.00,1.45
9680.00,1.45
9679.00,1.45
9678.00,1.45
9677.00,1.45
9676.00,1.45
9675.00,1.45
9674.00,1.45
9673.00,1.45
9672.00,1.45
9671.00,1.44
9670.00,1.44
9669.00,1.44
9668.00,1.44
9667.00,1.43
9666.00,1.43
9665.00,1.43
9664.00,1.43
9663.00,1.43
9662.00,1.43
9661.00,1.43
9660.00,1.44
9659.00,1.44
9658.00,1.44
9657.00,1.44
9656.00,1.44
9655.00,1.45
9654.00,1.45
9653.00,1.45
9652.00,1.45
9651.00,1.45
9650.00,1.44
9649.00,1.44
9648.00,1.44
9647.00,1.44
9646.00,1.44
9645.00,1.44
9644.00,1.44
9643.00,1.44
9642.00,1.44
9641.00,1.43
9640.00,1.43
9639.00,1.43
9638.00,1.43
9637.00,1.43
9636.00,1.43
9635.00,1.43
9634.00,1.43
9633.00,1.43
9632.00,1.43
9631.00,1.43
9630.00,1.43
9629.00,1.44
9628.00,1.44
9627.00,1.45
9626.00,1.45
9625.00,1.45
9624.00,1.46
9623.00,1.46
9622.00,1.46
9621.00,1.47
9620.00,1.47
9619.00,1.47
9618.00,1.47
9617.00,1.47
9616.00,1.47
9615.00,1.48
9614.00,1.48
9613.00,1.48
9612.00,1.48
9611.00,1.48
9610.00,1.48
9609.00,1.48
9608.00,1.48
9607.00,1.47
9606.00,1.47
9605.00,1.47
9604.00,1.46
9603.00,1.46
9602.00,1.45
9601.00,1.44
9600.00,1.44
9599.00,1.43
9598.00,1.43
9597.00,1.42
9596.00,1.42
9595.00,1.41
9594.00,1.41
9593.00,1.40
9592.00,1.40
9591.00,1.40
9590.00,1.40
9589.00,1.40
9588.00,1.39
9587.00,1.39
9586.00,1.39
9585.00,1.39
9584.00,1.39
9583.00,1.39
9582.00,1.39
9581.00,1.39
9580.00,1.39
9579.00,1.39
9578.00,1.40
9577.00,1.40
9576.00,1.40
9575.00,1.41
9574.00,1.41
9573.00,1.42
9572.00,1.43
9571.00,1.43
9570.00,1.44
9569.00,1.45
9568.00,1.45
9567.00,1.46
9566.00,1.47
9565.00,1.47
9564.00,1.48
9563.00,1.48
9562.00,1.49
9561.00,1.49
9560.00,1.50
9559.00,1.50
9558.00,1.50
9557.00,1.51
9556.00,1.51
9555.00,1.51
9554.00,1.51
9553.00,1.51
9552.00,1.51
9551.00,1.50
9550.00,1.50
9549.00,1.50
9548.00,1.49
9547.00,1.49
9546.00,1.48
9545.00,1.47
9544.00,1.47
9543.00,1.46
9542.00,1.45
9541.00,1.44
9540.00,1.43
9539.00,1.42
9538.00,1.41
9537.00,1.41
9536.00,1.40
9535.00,1.39
9534.00,1.38
9533.00,1.37
9532.00,1.37
9531.00,1.36
9530.00,1.36
9529.00,1.35
9528.00,1.35
9527.00,1.35
9526.00,1.35
9525.00,1.35
9524.00,1.35
9523.00,1.35
9522.00,1.35
9521.00,1.35
9520.00,1.35
9519.00,1.35
9518.00,1.35
9517.00,1.35
9516.00,1.36
9515.00,1.36
9514.00,1.36
9513.00,1.36
9512.00,1.36
9511.00,1.37
9510.00,1.37
9509.00,1.37
9508.00,1.37
9507.00,1.37
9506.00,1.37
9505.00,1.37
9504.00,1.37
9503.00,1.37
9502.00,1.36
9501.00,1.36
9500.00,1.36
9499.00,1.35
9498.00,1.35
9497.00,1.34
9496.00,1.34
9495.00,1.33
9494.00,1.33
9493.00,1.32
9492.00,1.32
9491.00,1.31
9490.00,1.31
9489.00,1.31
9488.00,1.30
9487.00,1.30
9486.00,1.30
9485.00,1.30
9484.00,1.30
9483.00,1.29
9482.00,1.29
9481.00,1.29
9480.00,1.29
9479.00,1.29
9478.00,1.29
9477.00,1.29
9476.00,1.29
9475.00,1.29
9474.00,1.29
9473.00,1.29
9472.00,1.30
9471.00,1.30
9470.00,1.30
9469.00,1.31
9468.00,1.31
9467.00,1.31
9466.00,1.32
9465.00,1.32
9464.00,1.33
9463.00,1.33
9462.00,1.34
9461.00,1.35
9460.00,1.35
9459.00,1.36
9458.00,1.36
9457.00,1.37
9456.00,1.37
9455.00,1.38
9454.00,1.39
9453.00,1.39
9452.00,1.40
9451.00,1.41
9450.00,1.41
9449.00,1.42
9448.00,1.42
9447.00,1.43
9446.00,1.43
9445.00,1.44
9444.00,1.44
9443.00,1.44
9442.00,1.45
9441.00,1.45
9440.00,1.45
9439.00,1.45
9438.00,1.45
9437.00,1.45
9436.00,1.44
9435.00,1.44
9434.00,1.44
9433.00,1.43
9432.00,1.43
9431.00,1.42
9430.00,1.42
9429.00,1.41
9428.00,1.40
9427.00,1.40
9426.00,1.39
9425.00,1.38
9424.00,1.38
9423.00,1.37
9422.00,1.36
9421.00,1.36
9420.00,1.35
9419.00,1.34
9418.00,1.34
9417.00,1.33
9416.00,1.32
9415.00,1.32
9414.00,1.32
9413.00,1.31
9412.00,1.31
9411.00,1.31
9410.00,1.31
9409.00,1.31
9408.00,1.31
9407.00,1.31
9406.00,1.31
9405.00,1.31
9404.00,1.32
9403.00,1.32
9402.00,1.32
9401.00,1.32
9400.00,1.33
9399.00,1.33
9398.00,1.34
9397.00,1.34
9396.00,1.34
9395.00,1.35
9394.00,1.35
9393.00,1.36
9392.00,1.37
9391.00,1.37
9390.00,1.38
9389.00,1.39
9388.00,1.39
9387.00,1.40
9386.00,1.40
9385.00,1.41
9384.00,1.41
9383.00,1.42
9382.00,1.42
9381.00,1.42
9380.00,1.42
9379.00,1.42
9378.00,1.43
9377.00,1.43
9376.00,1.43
9375.00,1.43
9374.00,1.43
9373.00,1.43
9372.00,1.43
9371.00,1.43
9370.00,1.43
9369.00,1.42
9368.00,1.42
9367.00,1.42
9366.00,1.41
9365.00,1.41
9364.00,1.41
9363.00,1.40
9362.00,1.40
9361.00,1.39
9360.00,1.39
9359.00,1.38
9358.00,1.38
9357.00,1.37
9356.00,1.37
9355.00,1.36
9354.00,1.36
9353.00,1.35
9352.00,1.35
9351.00,1.35
9350.00,1.34
9349.00,1.34
9348.00,1.34
9347.00,1.34
9346.00,1.34
9345.00,1.34
9344.00,1.34
9343.00,1.34
9342.00,1.34
9341.00,1.34
9340.00,1.34
9339.00,1.34
9338.00,1.34
9337.00,1.34
9336.00,1.35
9335.00,1.35
9334.00,1.35
9333.00,1.35
9332.00,1.35
9331.00,1.36
9330.00,1.36
9329.00,1.36
9328.00,1.37
9327.00,1.37
9326.00,1.37
9325.00,1.37
9324.00,1.38
9323.00,1.38
9322.00,1.38
9321.00,1.38
9320.00,1.37
9319.00,1.37
9318.00,1.37
9317.00,1.37
9316.00,1.37
9315.00,1.36
9314.00,1.36
9313.00,1.36
9312.00,1.36
9311.00,1.36
9310.00,1.36
9309.00,1.36
9308.00,1.36
9307.00,1.36
9306.00,1.35
9305.00,1.35
9304.00,1.35
9303.00,1.34
9302.00,1.34
9301.00,1.34
9300.00,1.33
9299.00,1.33
9298.00,1.32
9297.00,1.32
9296.00,1.31
9295.00,1.31
9294.00,1.31
9293.00,1.31
9292.00,1.30
9291.00,1.30
9290.00,1.30
9289.00,1.30
9288.00,1.30
9287.00,1.30
9286.00,1.30
9285.00,1.30
9284.00,1.30
9283.00,1.30
9282.00,1.30
9281.00,1.30
9280.00,1.30
9279.00,1.31
9278.00,1.31
9277.00,1.32
9276.00,1.32
9275.00,1.33
9274.00,1.33
9273.00,1.34
9272.00,1.35
9271.00,1.36
9270.00,1.37
9269.00,1.37
9268.00,1.38
9267.00,1.39
9266.00,1.40
9265.00,1.40
9264.00,1.41
9263.00,1.42
9262.00,1.42
9261.00,1.43
9260.00,1.43
9259.00,1.44
9258.00,1.44
9257.00,1.45
9256.00,1.45
9255.00,1.45
9254.00,1.45
9253.00,1.45
9252.00,1.46
9251.00,1.46
9250.00,1.45
9249.00,1.45
9248.00,1.45
9247.00,1.45
9246.00,1.45
9245.00,1.45
9244.00,1.44
9243.00,1.44
9242.00,1.44
9241.00,1.44
9240.00,1.43
9239.00,1.43
9238.00,1.43
9237.00,1.42
9236.00,1.42
9235.00,1.42
9234.00,1.42
9233.00,1.41
9232.00,1.41
9231.00,1.41
9230.00,1.40
9229.00,1.40
9228.00,1.40
9227.00,1.40
9226.00,1.39
9225.00,1.39
9224.00,1.39
9223.00,1.38
9222.00,1.38
9221.00,1.37
9220.00,1.37
9219.00,1.36
9218.00,1.35
9217.00,1.34
9216.00,1.34
9215.00,1.33
9214.00,1.32
9213.00,1.31
9212.00,1.31
9211.00,1.30
9210.00,1.29
9209.00,1.29
9208.00,1.28
9207.00,1.27
9206.00,1.27
9205.00,1.26
9204.00,1.26
9203.00,1.25
9202.00,1.25
9201.00,1.24
9200.00,1.24
9199.00,1.24
9198.00,1.24
9197.00,1.24
9196.00,1.24
9195.00,1.24
9194.00,1.24
9193.00,1.25
9192.00,1.25
9191.00,1.25
9190.00,1.26
9189.00,1.27
9188.00,1.27
9187.00,1.28
9186.00,1.28
9185.00,1.29
9184.00,1.29
9183.00,1.30
9182.00,1.31
9181.00,1.31
9180.00,1.32
9179.00,1.32
9178.00,1.33
9177.00,1.34
9176.00,1.34
9175.00,1.35
9174.00,1.36
9173.00,1.36
9172.00,1.37
9171.00,1.38
9170.00,1.38
9169.00,1.39
9168.00,1.40
9167.00,1.40
9166.00,1.41
9165.00,1.42
9164.00,1.42
9163.00,1.43
9162.00,1.43
9161.00,1.44
9160.00,1.45
9159.00,1.46
9158.00,1.46
9157.00,1.47
9156.00,1.48
9155.00,1.48
9154.00,1.49
9153.00,1.50
9152.00,1.50
9151.00,1.51
9150.00,1.51
9149.00,1.51
9148.00,1.52
9147.00,1.52
9146.00,1.52
9145.00,1.52
9144.00,1.52
9143.00,1.52
9142.00,1.52
9141.00,1.52
9140.00,1.52
9139.00,1.52
9138.00,1.52
9137.00,1.52
9136.00,1.51
9135.00,1.51
9134.00,1.51
9133.00,1.51
9132.00,1.51
9131.00,1.50
9130.00,1.50
9129.00,1.50
9128.00,1.49
9127.00,1.49
9126.00,1.49
9125.00,1.49
9124.00,1.48
9123.00,1.48
9122.00,1.48
9121.00,1.48
9120.00,1.48
9119.00,1.48
9118.00,1.48
9117.00,1.48
9116.00,1.48
9115.00,1.47
9114.00,1.47
9113.00,1.47
9112.00,1.47
9111.00,1.46
9110.00,1.46
9109.00,1.46
9108.00,1.46
9107.00,1.45
9106.00,1.45
9105.00,1.45
9104.00,1.45
9103.00,1.44
9102.00,1.44
9101.00,1.44
9100.00,1.44
9099.00,1.44
9098.00,1.43
9097.00,1.43
9096.00,1.43
9095.00,1.43
9094.00,1.43
9093.00,1.43
9092.00,1.43
9091.00,1.43
9090.00,1.43
9089.00,1.44
9088.00,1.44
9087.00,1.44
9086.00,1.44
9085.00,1.45
9084.00,1.45
9083.00,1.45
9082.00,1.46
9081.00,1.46
9080.00,1.46
9079.00,1.47
9078.00,1.47
9077.00,1.48
9076.00,1.49
9075.00,1.49
9074.00,1.50
9073.00,1.50
9072.00,1.51
9071.00,1.51
9070.00,1.52
9069.00,1.52
9068.00,1.52
9067.00,1.53
9066.00,1.53
9065.00,1.53
9064.00,1.53
9063.00,1.53
9062.00,1.53
9061.00,1.53
9060.00,1.53
9059.00,1.53
9058.00,1.53
9057.00,1.53
9056.00,1.53
9055.00,1.52
9054.00,1.52
9053.00,1.52
9052.00,1.51
9051.00,1.51
9050.00,1.50
9049.00,1.50
9048.00,1.49
9047.00,1.48
9046.00,1.48
9045.00,1.47
9044.00,1.47
9043.00,1.46
9042.00,1.46
9041.00,1.45
9040.00,1.45
9039.00,1.44
9038.00,1.44
9037.00,1.43
9036.00,1.43
9035.00,1.43
9034.00,1.42
9033.00,1.42
9032.00,1.42
9031.00,1.42
9030.00,1.42
9029.00,1.41
9028.00,1.41
9027.00,1.41
9026.00,1.41
9025.00,1.41
9024.00,1.41
9023.00,1.41
9022.00,1.41
9021.00,1.40
9020.00,1.40
9019.00,1.40
9018.00,1.40
9017.00,1.40
9016.00,1.40
9015.00,1.39
9014.00,1.39
9013.00,1.39
9012.00,1.39
9011.00,1.38
9010.00,1.38
9009.00,1.38
9008.00,1.38
9007.00,1.37
9006.00,1.37
9005.00,1.37
9004.00,1.37
9003.00,1.37
9002.00,1.37
9001.00,1.36
9000.00,1.36
8999.00,1.36
8998.00,1.36
8997.00,1.36
8996.00,1.36
8995.00,1.36
8994.00,1.36
8993.00,1.36
8992.00,1.36
8991.00,1.36
8990.00,1.36
8989.00,1.36
8988.00,1.36
8987.00,1.35
8986.00,1.35
8985.00,1.35
8984.00,1.35
8983.00,1.35
8982.00,1.35
8981.00,1.35
8980.00,1.35
8979.00,1.35
8978.00,1.35
8977.00,1.35
8976.00,1.35
8975.00,1.35
8974.00,1.35
8973.00,1.35
8972.00,1.34
8971.00,1.34
8970.00,1.34
8969.00,1.34
8968.00,1.34
8967.00,1.34
8966.00,1.34
8965.00,1.34
8964.00,1.34
8963.00,1.34
8962.00,1.34
8961.00,1.34
8960.00,1.35
8959.00,1.35
8958.00,1.35
8957.00,1.35
8956.00,1.35
8955.00,1.35
8954.00,1.35
8953.00,1.35
8952.00,1.35
8951.00,1.35
8950.00,1.35
8949.00,1.36
8948.00,1.36
8947.00,1.36
8946.00,1.36
8945.00,1.37
8944.00,1.37
8943.00,1.37
8942.00,1.38
8941.00,1.38
8940.00,1.38
8939.00,1.38
8938.00,1.39
8937.00,1.39
8936.00,1.39
8935.00,1.40
8934.00,1.40
8933.00,1.40
8932.00,1.41
8931.00,1.41
8930.00,1.41
8929.00,1.42
8928.00,1.42
8927.00,1.43
8926.00,1.43
8925.00,1.43
8924.00,1.44
8923.00,1.44
8922.00,1.44
8921.00,1.44
8920.00,1.44
8919.00,1.44
8918.00,1.44
8917.00,1.44
8916.00,1.43
8915.00,1.43
8914.00,1.43
8913.00,1.43
8912.00,1.42
8911.00,1.42
8910.00,1.42
8909.00,1.41
8908.00,1.41
8907.00,1.41
8906.00,1.40
8905.00,1.40
8904.00,1.39
8903.00,1.38
8902.00,1.38
8901.00,1.37
8900.00,1.37
8899.00,1.36
8898.00,1.35
8897.00,1.35
8896.00,1.34
8895.00,1.34
8894.00,1.34
8893.00,1.33
8892.00,1.33
8891.00,1.33
8890.00,1.33
8889.00,1.33
8888.00,1.33
8887.00,1.33
8886.00,1.33
8885.00,1.33
8884.00,1.33
8883.00,1.33
8882.00,1.33
8881.00,1.34
8880.00,1.34
8879.00,1.34
8878.00,1.35
8877.00,1.35
8876.00,1.35
8875.00,1.36
8874.00,1.36
8873.00,1.36
8872.00,1.37
8871.00,1.37
8870.00,1.37
8869.00,1.37
8868.00,1.38
8867.00,1.38
8866.00,1.38
8865.00,1.38
8864.00,1.38
8863.00,1.39
8862.00,1.39
8861.00,1.39
8860.00,1.39
8859.00,1.39
8858.00,1.39
8857.00,1.39
8856.00,1.39
8855.00,1.38
8854.00,1.38
8853.00,1.38
8852.00,1.38
8851.00,1.38
8850.00,1.38
8849.00,1.38
8848.00,1.38
8847.00,1.38
8846.00,1.38
8845.00,1.38
8844.00,1.38
8843.00,1.38
8842.00,1.38
8841.00,1.37
8840.00,1.37
8839.00,1.37
8838.00,1.37
8837.00,1.37
8836.00,1.37
8835.00,1.37
8834.00,1.37
8833.00,1.37
8832.00,1.37
8831.00,1.37
8830.00,1.37
8829.00,1.36
8828.00,1.36
8827.00,1.36
8826.00,1.36
8825.00,1.36
8824.00,1.35
8823.00,1.35
8822.00,1.35
8821.00,1.35
8820.00,1.35
8819.00,1.35
8818.00,1.35
8817.00,1.35
8816.00,1.35
8815.00,1.35
8814.00,1.35
8813.00,1.35
8812.00,1.35
8811.00,1.35
8810.00,1.36
8809.00,1.36
8808.00,1.36
8807.00,1.36
8806.00,1.36
8805.00,1.36
8804.00,1.36
8803.00,1.36
8802.00,1.37
8801.00,1.37
8800.00,1.37
8799.00,1.37
8798.00,1.38
8797.00,1.38
8796.00,1.38
8795.00,1.38
8794.00,1.38
8793.00,1.38
8792.00,1.38
8791.00,1.38
8790.00,1.38
8789.00,1.38
8788.00,1.38
8787.00,1.38
8786.00,1.38
8785.00,1.38
8784.00,1.39
8783.00,1.39
8782.00,1.39
8781.00,1.39
8780.00,1.39
8779.00,1.39
8778.00,1.40
8777.00,1.40
8776.00,1.40
8775.00,1.40
8774.00,1.41
8773.00,1.41
8772.00,1.41
8771.00,1.42
8770.00,1.42
8769.00,1.43
8768.00,1.43
8767.00,1.44
8766.00,1.44
8765.00,1.45
8764.00,1.45
8763.00,1.46
8762.00,1.46
8761.00,1.46
8760.00,1.47
8759.00,1.47
8758.00,1.47
8757.00,1.48
8756.00,1.48
8755.00,1.48
8754.00,1.48
8753.00,1.48
8752.00,1.48
8751.00,1.48
8750.00,1.48
8749.00,1.48
8748.00,1.48
8747.00,1.48
8746.00,1.48
8745.00,1.48
8744.00,1.48
8743.00,1.48
8742.00,1.48
8741.00,1.48
8740.00,1.48
8739.00,1.48
8738.00,1.48
8737.00,1.47
8736.00,1.47
8735.00,1.47
8734.00,1.47
8733.00,1.47
8732.00,1.47
8731.00,1.46
8730.00,1.46
8729.00,1.46
8728.00,1.46
8727.00,1.45
8726.00,1.45
8725.00,1.44
8724.00,1.44
8723.00,1.44
8722.00,1.43
8721.00,1.43
8720.00,1.42
8719.00,1.42
8718.00,1.41
8717.00,1.40
8716.00,1.40
8715.00,1.39
8714.00,1.39
8713.00,1.38
8712.00,1.38
8711.00,1.37
8710.00,1.36
8709.00,1.36
8708.00,1.35
8707.00,1.35
8706.00,1.35
8705.00,1.34
8704.00,1.34
8703.00,1.34
8702.00,1.34
8701.00,1.33
8700.00,1.33
8699.00,1.33
8698.00,1.33
8697.00,1.33
8696.00,1.33
8695.00,1.33
8694.00,1.33
8693.00,1.32
8692.00,1.32
8691.00,1.32
8690.00,1.32
8689.00,1.32
8688.00,1.33
8687.00,1.33
8686.00,1.33
8685.00,1.33
8684.00,1.34
8683.00,1.34
8682.00,1.34
8681.00,1.35
8680.00,1.35
8679.00,1.35
8678.00,1.36
8677.00,1.36
8676.00,1.37
8675.00,1.37
8674.00,1.37
8673.00,1.38
8672.00,1.39
8671.00,1.39
8670.00,1.40
8669.00,1.41
8668.00,1.41
8667.00,1.42
8666.00,1.43
8665.00,1.43
8664.00,1.44
8663.00,1.44
8662.00,1.45
8661.00,1.45
8660.00,1.45
8659.00,1.45
8658.00,1.45
8657.00,1.45
8656.00,1.45
8655.00,1.45
8654.00,1.45
8653.00,1.44
8652.00,1.44
8651.00,1.44
8650.00,1.43
8649.00,1.43
8648.00,1.42
8647.00,1.42
8646.00,1.41
8645.00,1.41
8644.00,1.40
8643.00,1.40
8642.00,1.39
8641.00,1.39
8640.00,1.39
8639.00,1.38
8638.00,1.38
8637.00,1.37
8636.00,1.37
8635.00,1.37
8634.00,1.37
8633.00,1.37
8632.00,1.37
8631.00,1.37
8630.00,1.37
8629.00,1.38
8628.00,1.38
8627.00,1.38
8626.00,1.39
8625.00,1.39
8624.00,1.39
8623.00,1.40
8622.00,1.40
8621.00,1.41
8620.00,1.41
8619.00,1.42
8618.00,1.43
8617.00,1.43
8616.00,1.44
8615.00,1.44
8614.00,1.45
8613.00,1.45
8612.00,1.46
8611.00,1.46
8610.00,1.47
8609.00,1.48
8608.00,1.48
8607.00,1.48
8606.00,1.49
8605.00,1.49
8604.00,1.49
8603.00,1.50
8602.00,1.50
8601.00,1.50
8600.00,1.51
8599.00,1.51
8598.00,1.51
8597.00,1.51
8596.00,1.51
8595.00,1.52
8594.00,1.51
8593.00,1.51
8592.00,1.51
8591.00,1.51
8590.00,1.51
8589.00,1.51
8588.00,1.50
8587.00,1.50
8586.00,1.49
8585.00,1.49
8584.00,1.48
8583.00,1.48
8582.00,1.47
8581.00,1.47
8580.00,1.47
8579.00,1.46
8578.00,1.46
8577.00,1.45
8576.00,1.45
8575.00,1.45
8574.00,1.44
8573.00,1.44
8572.00,1.43
8571.00,1.43
8570.00,1.43
8569.00,1.42
8568.00,1.42
8567.00,1.42
8566.00,1.42
8565.00,1.42
8564.00,1.41
8563.00,1.41
8562.00,1.41
8561.00,1.41
8560.00,1.41
8559.00,1.41
8558.00,1.42
8557.00,1.42
8556.00,1.42
8555.00,1.42
8554.00,1.42
8553.00,1.42
8552.00,1.42
8551.00,1.42
8550.00,1.42
8549.00,1.42
8548.00,1.42
8547.00,1.42
8546.00,1.42
8545.00,1.42
8544.00,1.42
8543.00,1.42
8542.00,1.42
8541.00,1.42
8540.00,1.42
8539.00,1.42
8538.00,1.42
8537.00,1.42
8536.00,1.42
8535.00,1.42
8534.00,1.42
8533.00,1.42
8532.00,1.42
8531.00,1.42
8530.00,1.42
8529.00,1.42
8528.00,1.42
8527.00,1.42
8526.00,1.42
8525.00,1.41
8524.00,1.41
8523.00,1.41
8522.00,1.41
8521.00,1.41
8520.00,1.41
8519.00,1.41
8518.00,1.40
8517.00,1.40
8516.00,1.40
8515.00,1.40
8514.00,1.40
8513.00,1.40
8512.00,1.40
8511.00,1.39
8510.00,1.39
8509.00,1.39
8508.00,1.38
8507.00,1.38
8506.00,1.38
8505.00,1.38
8504.00,1.38
8503.00,1.38
8502.00,1.38
8501.00,1.38
8500.00,1.38
8499.00,1.38
8498.00,1.38
8497.00,1.38
8496.00,1.38
8495.00,1.38
8494.00,1.38
8493.00,1.38
8492.00,1.38
8491.00,1.38
8490.00,1.38
8489.00,1.38
8488.00,1.38
8487.00,1.38
8486.00,1.38
8485.00,1.38
8484.00,1.38
8483.00,1.38
8482.00,1.38
8481.00,1.38
8480.00,1.38
8479.00,1.38
8478.00,1.38
8477.00,1.38
8476.00,1.38
8475.00,1.38
8474.00,1.38
8473.00,1.38
8472.00,1.38
8471.00,1.38
8470.00,1.38
8469.00,1.38
8468.00,1.39
8467.00,1.39
8466.00,1.39
8465.00,1.39
8464.00,1.39
8463.00,1.39
8462.00,1.39
8461.00,1.39
8460.00,1.39
8459.00,1.39
8458.00,1.39
8457.00,1.39
8456.00,1.39
8455.00,1.38
8454.00,1.38
8453.00,1.38
8452.00,1.38
8451.00,1.38
8450.00,1.38
8449.00,1.38
8448.00,1.38
8447.00,1.38
8446.00,1.38
8445.00,1.38
8444.00,1.38
8443.00,1.38
8442.00,1.38
8441.00,1.38
8440.00,1.38
8439.00,1.38
8438.00,1.37
8437.00,1.37
8436.00,1.37
8435.00,1.37
8434.00,1.37
8433.00,1.38
8432.00,1.38
8431.00,1.38
8430.00,1.38
8429.00,1.38
8428.00,1.39
8427.00,1.39
8426.00,1.39
8425.00,1.39
8424.00,1.39
8423.00,1.39
8422.00,1.39
8421.00,1.40
8420.00,1.40
8419.00,1.40
8418.00,1.40
8417.00,1.40
8416.00,1.40
8415.00,1.40
8414.00,1.40
8413.00,1.40
8412.00,1.40
8411.00,1.40
8410.00,1.40
8409.00,1.40
8408.00,1.40
8407.00,1.40
8406.00,1.40
8405.00,1.40
8404.00,1.40
8403.00,1.40
8402.00,1.40
8401.00,1.40
8400.00,1.40
8399.00,1.40
8398.00,1.41
8397.00,1.41
8396.00,1.41
8395.00,1.41
8394.00,1.41
8393.00,1.41
8392.00,1.41
8391.00,1.42
8390.00,1.42
8389.00,1.42
8388.00,1.43
8387.00,1.43
8386.00,1.43
8385.00,1.44
8384.00,1.44
8383.00,1.44
8382.00,1.44
8381.00,1.44
8380.00,1.45
8379.00,1.45
8378.00,1.45
8377.00,1.45
8376.00,1.45
8375.00,1.45
8374.00,1.44
8373.00,1.44
8372.00,1.44
8371.00,1.44
8370.00,1.44
8369.00,1.44
8368.00,1.43
8367.00,1.43
8366.00,1.43
8365.00,1.43
8364.00,1.42
8363.00,1.42
8362.00,1.42
8361.00,1.41
8360.00,1.41
8359.00,1.41
8358.00,1.40
8357.00,1.40
8356.00,1.40
8355.00,1.40
8354.00,1.39
8353.00,1.39
8352.00,1.39
8351.00,1.39
8350.00,1.39
8349.00,1.39
8348.00,1.39
8347.00,1.39
8346.00,1.39
8345.00,1.40
8344.00,1.40
8343.00,1.40
8342.00,1.40
8341.00,1.41
8340.00,1.41
8339.00,1.41
8338.00,1.42
8337.00,1.42
8336.00,1.43
8335.00,1.43
8334.00,1.44
8333.00,1.44
8332.00,1.45
8331.00,1.45
8330.00,1.45
8329.00,1.46
8328.00,1.46
8327.00,1.47
8326.00,1.47
8325.00,1.47
8324.00,1.47
8323.00,1.47
8322.00,1.48
8321.00,1.48
8320.00,1.48
8319.00,1.48
8318.00,1.48
8317.00,1.48
8316.00,1.48
8315.00,1.48
8314.00,1.47
8313.00,1.47
8312.00,1.47
8311.00,1.47
8310.00,1.46
8309.00,1.46
8308.00,1.46
8307.00,1.46
8306.00,1.45
8305.00,1.45
8304.00,1.44
8303.00,1.44
8302.00,1.44
8301.00,1.43
8300.00,1.43
8299.00,1.43
8298.00,1.42
8297.00,1.42
8296.00,1.42
8295.00,1.42
8294.00,1.41
8293.00,1.41
8292.00,1.41
8291.00,1.41
8290.00,1.41
8289.00,1.41
8288.00,1.41
8287.00,1.41
8286.00,1.41
8285.00,1.41
8284.00,1.41
8283.00,1.41
8282.00,1.41
8281.00,1.41
8280.00,1.41
8279.00,1.41
8278.00,1.41
8277.00,1.41
8276.00,1.42
8275.00,1.42
8274.00,1.42
8273.00,1.42
8272.00,1.43
8271.00,1.43
8270.00,1.43
8269.00,1.43
8268.00,1.43
8267.00,1.43
8266.00,1.43
8265.00,1.43
8264.00,1.43
8263.00,1.43
8262.00,1.43
8261.00,1.43
8260.00,1.42
8259.00,1.42
8258.00,1.42
8257.00,1.42
8256.00,1.42
8255.00,1.42
8254.00,1.42
8253.00,1.42
8252.00,1.42
8251.00,1.42
8250.00,1.42
8249.00,1.42
8248.00,1.42
8247.00,1.42
8246.00,1.42
8245.00,1.42
8244.00,1.42
8243.00,1.42
8242.00,1.42
8241.00,1.42
8240.00,1.42
8239.00,1.42
8238.00,1.42
8237.00,1.42
8236.00,1.42
8235.00,1.42
8234.00,1.42
8233.00,1.43
8232.00,1.43
8231.00,1.43
8230.00,1.43
8229.00,1.43
8228.00,1.43
8227.00,1.43
8226.00,1.43
8225.00,1.43
8224.00,1.43
8223.00,1.43
8222.00,1.43
8221.00,1.43
8220.00,1.43
8219.00,1.43
8218.00,1.43
8217.00,1.43
8216.00,1.43
8215.00,1.43
8214.00,1.43
8213.00,1.43
8212.00,1.43
8211.00,1.43
8210.00,1.43
8209.00,1.43
8208.00,1.44
8207.00,1.44
8206.00,1.44
8205.00,1.44
8204.00,1.44
8203.00,1.44
8202.00,1.44
8201.00,1.44
8200.00,1.44
8199.00,1.44
8198.00,1.44
8197.00,1.44
8196.00,1.44
8195.00,1.44
8194.00,1.44
8193.00,1.44
8192.00,1.44
8191.00,1.43
8190.00,1.43
8189.00,1.43
8188.00,1.43
8187.00,1.43
8186.00,1.43
8185.00,1.43
8184.00,1.43
8183.00,1.42
8182.00,1.42
8181.00,1.42
8180.00,1.42
8179.00,1.42
8178.00,1.42
8177.00,1.42
8176.00,1.42
8175.00,1.42
8174.00,1.42
8173.00,1.42
8172.00,1.42
8171.00,1.42
8170.00,1.42
8169.00,1.42
8168.00,1.42
8167.00,1.42
8166.00,1.42
8165.00,1.42
8164.00,1.42
8163.00,1.42
8162.00,1.42
8161.00,1.42
8160.00,1.42
8159.00,1.42
8158.00,1.42
8157.00,1.43
8156.00,1.43
8155.00,1.43
8154.00,1.43
8153.00,1.43
8152.00,1.44
8151.00,1.44
8150.00,1.44
8149.00,1.44
8148.00,1.45
8147.00,1.45
8146.00,1.45
8145.00,1.46
8144.00,1.46
8143.00,1.46
8142.00,1.47
8141.00,1.47
8140.00,1.47
8139.00,1.48
8138.00,1.48
8137.00,1.48
8136.00,1.49
8135.00,1.49
8134.00,1.49
8133.00,1.50
8132.00,1.50
8131.00,1.50
8130.00,1.51
8129.00,1.51
8128.00,1.51
8127.00,1.51
8126.00,1.51
8125.00,1.51
8124.00,1.51
8123.00,1.51
8122.00,1.51
8121.00,1.51
8120.00,1.50
8119.00,1.50
8118.00,1.50
8117.00,1.49
8116.00,1.49
8115.00,1.49
8114.00,1.48
8113.00,1.48
8112.00,1.48
8111.00,1.47
8110.00,1.47
8109.00,1.47
8108.00,1.46
8107.00,1.46
8106.00,1.46
8105.00,1.46
8104.00,1.45
8103.00,1.45
8102.00,1.45
8101.00,1.45
8100.00,1.45
8099.00,1.45
8098.00,1.46
8097.00,1.46
8096.00,1.46
8095.00,1.46
8094.00,1.46
8093.00,1.47
8092.00,1.47
8091.00,1.47
8090.00,1.48
8089.00,1.48
8088.00,1.48
8087.00,1.49
8086.00,1.49
8085.00,1.49
8084.00,1.50
8083.00,1.50
8082.00,1.50
8081.00,1.50
8080.00,1.50
8079.00,1.50
8078.00,1.50
8077.00,1.50
8076.00,1.50
8075.00,1.50
8074.00,1.49
8073.00,1.49
8072.00,1.49
8071.00,1.49
8070.00,1.48
8069.00,1.48
8068.00,1.48
8067.00,1.47
8066.00,1.47
8065.00,1.47
8064.00,1.46
8063.00,1.46
8062.00,1.46
8061.00,1.45
8060.00,1.45
8059.00,1.45
8058.00,1.45
8057.00,1.44
8056.00,1.44
8055.00,1.44
8054.00,1.44
8053.00,1.44
8052.00,1.44
8051.00,1.44
8050.00,1.44
8049.00,1.44
8048.00,1.44
8047.00,1.45
8046.00,1.45
8045.00,1.45
8044.00,1.45
8043.00,1.45
8042.00,1.45
8041.00,1.46
8040.00,1.46
8039.00,1.46
8038.00,1.47
8037.00,1.47
8036.00,1.47
8035.00,1.48
8034.00,1.48
8033.00,1.48
8032.00,1.49
8031.00,1.49
8030.00,1.49
8029.00,1.50
8028.00,1.50
8027.00,1.51
8026.00,1.51
8025.00,1.51
8024.00,1.51
8023.00,1.51
8022.00,1.51
8021.00,1.52
8020.00,1.52
8019.00,1.52
8018.00,1.52
8017.00,1.52
8016.00,1.52
8015.00,1.52
8014.00,1.52
8013.00,1.52
8012.00,1.52
8011.00,1.51
8010.00,1.51
8009.00,1.51
8008.00,1.51
8007.00,1.51
8006.00,1.50
8005.00,1.50
8004.00,1.50
8003.00,1.49
8002.00,1.49
8001.00,1.49
8000.00,1.49
7999.00,1.48
7998.00,1.48
7997.00,1.48
7996.00,1.48
7995.00,1.48
7994.00,1.48
7993.00,1.48
7992.00,1.48
7991.00,1.48
7990.00,1.49
7989.00,1.49
7988.00,1.49
7987.00,1.49
7986.00,1.49
7985.00,1.49
7984.00,1.49
7983.00,1.49
7982.00,1.49
7981.00,1.49
7980.00,1.49
7979.00,1.49
7978.00,1.49
7977.00,1.49
7976.00,1.49
7975.00,1.49
7974.00,1.49
7973.00,1.49
7972.00,1.48
7971.00,1.48
7970.00,1.48
7969.00,1.48
7968.00,1.48
7967.00,1.48
7966.00,1.47
7965.00,1.47
7964.00,1.47
7963.00,1.47
7962.00,1.46
7961.00,1.46
7960.00,1.46
7959.00,1.46
7958.00,1.45
7957.00,1.45
7956.00,1.45
7955.00,1.45
7954.00,1.45
7953.00,1.44
7952.00,1.44
7951.00,1.44
7950.00,1.44
7949.00,1.43
7948.00,1.43
7947.00,1.43
7946.00,1.43
7945.00,1.42
7944.00,1.42
7943.00,1.41
7942.00,1.41
7941.00,1.40
7940.00,1.40
7939.00,1.40
7938.00,1.39
7937.00,1.39
7936.00,1.38
7935.00,1.38
7934.00,1.38
7933.00,1.37
7932.00,1.37
7931.00,1.37
7930.00,1.37
7929.00,1.37
7928.00,1.37
7927.00,1.37
7926.00,1.37
7925.00,1.37
7924.00,1.37
7923.00,1.37
7922.00,1.37
7921.00,1.37
7920.00,1.38
7919.00,1.38
7918.00,1.38
7917.00,1.39
7916.00,1.39
7915.00,1.40
7914.00,1.40
7913.00,1.41
7912.00,1.41
7911.00,1.42
7910.00,1.43
7909.00,1.43
7908.00,1.44
7907.00,1.44
7906.00,1.45
7905.00,1.45
7904.00,1.46
7903.00,1.46
7902.00,1.47
7901.00,1.47
7900.00,1.48
7899.00,1.48
7898.00,1.48
7897.00,1.49
7896.00,1.49
7895.00,1.49
7894.00,1.49
7893.00,1.50
7892.00,1.50
7891.00,1.50
7890.00,1.50
7889.00,1.50
7888.00,1.50
7887.00,1.50
7886.00,1.50
7885.00,1.50
7884.00,1.50
7883.00,1.50
7882.00,1.50
7881.00,1.50
7880.00,1.50
7879.00,1.50
7878.00,1.50
7877.00,1.50
7876.00,1.50
7875.00,1.50
7874.00,1.49
7873.00,1.49
7872.00,1.49
7871.00,1.49
7870.00,1.49
7869.00,1.49
7868.00,1.49
7867.00,1.49
7866.00,1.49
7865.00,1.50
7864.00,1.50
7863.00,1.50
7862.00,1.50
7861.00,1.50
7860.00,1.50
7859.00,1.50
7858.00,1.50
7857.00,1.50
7856.00,1.50
7855.00,1.50
7854.00,1.50
7853.00,1.49
7852.00,1.49
7851.00,1.49
7850.00,1.49
7849.00,1.49
7848.00,1.49
7847.00,1.49
7846.00,1.48
7845.00,1.48
7844.00,1.48
7843.00,1.48
7842.00,1.47
7841.00,1.47
7840.00,1.46
7839.00,1.46
7838.00,1.46
7837.00,1.45
7836.00,1.45
7835.00,1.45
7834.00,1.44
7833.00,1.44
7832.00,1.44
7831.00,1.44
7830.00,1.43
7829.00,1.43
7828.00,1.43
7827.00,1.43
7826.00,1.42
7825.00,1.42
7824.00,1.42
7823.00,1.42
7822.00,1.42
7821.00,1.42
7820.00,1.42
7819.00,1.42
7818.00,1.43
7817.00,1.43
7816.00,1.43
7815.00,1.44
7814.00,1.44
7813.00,1.44
7812.00,1.45
7811.00,1.45
7810.00,1.45
7809.00,1.46
7808.00,1.46
7807.00,1.46
7806.00,1.47
7805.00,1.47
7804.00,1.47
7803.00,1.47
7802.00,1.48
7801.00,1.48
7800.00,1.48
7799.00,1.49
7798.00,1.49
7797.00,1.49
7796.00,1.50
7795.00,1.50
7794.00,1.50
7793.00,1.50
7792.00,1.50
7791.00,1.50
7790.00,1.50
7789.00,1.50
7788.00,1.50
7787.00,1.50
7786.00,1.50
7785.00,1.50
7784.00,1.50
7783.00,1.50
7782.00,1.50
7781.00,1.50
7780.00,1.50
7779.00,1.50
7778.00,1.49
7777.00,1.49
7776.00,1.49
7775.00,1.49
7774.00,1.48
7773.00,1.48
7772.00,1.48
7771.00,1.48
7770.00,1.47
7769.00,1.47
7768.00,1.47
7767.00,1.46
7766.00,1.46
7765.00,1.46
7764.00,1.46
7763.00,1.46
7762.00,1.46
7761.00,1.45
7760.00,1.45
7759.00,1.45
7758.00,1.45
7757.00,1.45
7756.00,1.45
7755.00,1.45
7754.00,1.45
7753.00,1.46
7752.00,1.46
7751.00,1.46
7750.00,1.46
7749.00,1.46
7748.00,1.46
7747.00,1.47
7746.00,1.47
7745.00,1.47
7744.00,1.47
7743.00,1.47
7742.00,1.48
7741.00,1.48
7740.00,1.48
7739.00,1.48
7738.00,1.48
7737.00,1.48
7736.00,1.48
7735.00,1.48
7734.00,1.48
7733.00,1.48
7732.00,1.48
7731.00,1.48
7730.00,1.48
7729.00,1.48
7728.00,1.48
7727.00,1.48
7726.00,1.48
7725.00,1.48
7724.00,1.48
7723.00,1.48
7722.00,1.48
7721.00,1.48
7720.00,1.48
7719.00,1.48
7718.00,1.48
7717.00,1.48
7716.00,1.48
7715.00,1.48
7714.00,1.48
7713.00,1.48
7712.00,1.48
7711.00,1.48
7710.00,1.48
7709.00,1.48
7708.00,1.48
7707.00,1.48
7706.00,1.48
7705.00,1.49
7704.00,1.49
7703.00,1.49
7702.00,1.49
7701.00,1.49
7700.00,1.49
7699.00,1.49
7698.00,1.49
7697.00,1.48
7696.00,1.48
7695.00,1.48
7694.00,1.48
7693.00,1.48
7692.00,1.48
7691.00,1.48
7690.00,1.47
7689.00,1.47
7688.00,1.47
7687.00,1.47
7686.00,1.47
7685.00,1.47
7684.00,1.47
7683.00,1.46
7682.00,1.46
7681.00,1.46
7680.00,1.46
7679.00,1.46
7678.00,1.46
7677.00,1.46
7676.00,1.46
7675.00,1.46
7674.00,1.46
7673.00,1.46
7672.00,1.46
7671.00,1.47
7670.00,1.47
7669.00,1.47
7668.00,1.48
7667.00,1.48
7666.00,1.48
7665.00,1.49
7664.00,1.49
7663.00,1.50
7662.00,1.50
7661.00,1.50
7660.00,1.51
7659.00,1.51
7658.00,1.52
7657.00,1.52
7656.00,1.52
7655.00,1.53
7654.00,1.53
7653.00,1.54
7652.00,1.54
7651.00,1.54
7650.00,1.55
7649.00,1.55
7648.00,1.55
7647.00,1.55
7646.00,1.56
7645.00,1.56
7644.00,1.56
7643.00,1.56
7642.00,1.56
7641.00,1.56
7640.00,1.56
7639.00,1.56
7638.00,1.56
7637.00,1.56
7636.00,1.56
7635.00,1.56
7634.00,1.57
7633.00,1.57
7632.00,1.57
7631.00,1.57
7630.00,1.57
7629.00,1.57
7628.00,1.57
7627.00,1.57
7626.00,1.57
7625.00,1.57
7624.00,1.57
7623.00,1.57
7622.00,1.57
7621.00,1.57
7620.00,1.57
7619.00,1.57
7618.00,1.57
7617.00,1.57
7616.00,1.57
7615.00,1.57
7614.00,1.57
7613.00,1.57
7612.00,1.57
7611.00,1.56
7610.00,1.56
7609.00,1.56
7608.00,1.56
7607.00,1.56
7606.00,1.55
7605.00,1.55
7604.00,1.55
7603.00,1.55
7602.00,1.54
7601.00,1.54
7600.00,1.54
7599.00,1.54
7598.00,1.53
7597.00,1.53
7596.00,1.53
7595.00,1.53
7594.00,1.52
7593.00,1.52
7592.00,1.52
7591.00,1.52
7590.00,1.52
7589.00,1.51
7588.00,1.51
7587.00,1.51
7586.00,1.51
7585.00,1.51
7584.00,1.51
7583.00,1.51
7582.00,1.51
7581.00,1.51
7580.00,1.51
7579.00,1.51
7578.00,1.51
7577.00,1.51
7576.00,1.51
7575.00,1.51
7574.00,1.51
7573.00,1.52
7572.00,1.52
7571.00,1.52
7570.00,1.52
7569.00,1.52
7568.00,1.52
7567.00,1.53
7566.00,1.53
7565.00,1.53
7564.00,1.53
7563.00,1.53
7562.00,1.53
7561.00,1.53
7560.00,1.54
7559.00,1.54
7558.00,1.54
7557.00,1.54
7556.00,1.54
7555.00,1.54
7554.00,1.54
7553.00,1.54
7552.00,1.54
7551.00,1.54
7550.00,1.54
7549.00,1.54
7548.00,1.54
7547.00,1.54
7546.00,1.54
7545.00,1.54
7544.00,1.54
7543.00,1.54
7542.00,1.54
7541.00,1.54
7540.00,1.54
7539.00,1.53
7538.00,1.53
7537.00,1.53
7536.00,1.53
7535.00,1.53
7534.00,1.53
7533.00,1.53
7532.00,1.53
7531.00,1.53
7530.00,1.53
7529.00,1.53
7528.00,1.53
7527.00,1.52
7526.00,1.52
7525.00,1.52
7524.00,1.52
7523.00,1.52
7522.00,1.51
7521.00,1.51
7520.00,1.51
7519.00,1.50
7518.00,1.50
7517.00,1.50
7516.00,1.50
7515.00,1.49
7514.00,1.49
7513.00,1.49
7512.00,1.48
7511.00,1.48
7510.00,1.48
7509.00,1.47
7508.00,1.47
7507.00,1.47
7506.00,1.46
7505.00,1.46
7504.00,1.46
7503.00,1.46
7502.00,1.45
7501.00,1.45
7500.00,1.45
7499.00,1.45
7498.00,1.45
7497.00,1.45
7496.00,1.45
7495.00,1.45
7494.00,1.45
7493.00,1.46
7492.00,1.46
7491.00,1.46
7490.00,1.46
7489.00,1.47
7488.00,1.47
7487.00,1.47
7486.00,1.47
7485.00,1.48
7484.00,1.48
7483.00,1.48
7482.00,1.49
7481.00,1.49
7480.00,1.49
7479.00,1.50
7478.00,1.50
7477.00,1.50
7476.00,1.51
7475.00,1.51
7474.00,1.51
7473.00,1.51
7472.00,1.52
7471.00,1.52
7470.00,1.52
7469.00,1.52
7468.00,1.52
7467.00,1.52
7466.00,1.52
7465.00,1.52
7464.00,1.52
7463.00,1.52
7462.00,1.52
7461.00,1.52
7460.00,1.52
7459.00,1.52
7458.00,1.52
7457.00,1.52
7456.00,1.52
7455.00,1.52
7454.00,1.52
7453.00,1.52
7452.00,1.52
7451.00,1.52
7450.00,1.52
7449.00,1.52
7448.00,1.52
7447.00,1.52
7446.00,1.52
7445.00,1.52
7444.00,1.52
7443.00,1.52
7442.00,1.52
7441.00,1.52
7440.00,1.52
7439.00,1.52
7438.00,1.52
7437.00,1.53
7436.00,1.53
7435.00,1.53
7434.00,1.53
7433.00,1.53
7432.00,1.53
7431.00,1.54
7430.00,1.54
7429.00,1.54
7428.00,1.54
7427.00,1.54
7426.00,1.53
7425.00,1.53
7424.00,1.53
7423.00,1.53
7422.00,1.53
7421.00,1.53
7420.00,1.53
7419.00,1.52
7418.00,1.52
7417.00,1.52
7416.00,1.52
7415.00,1.52
7414.00,1.51
7413.00,1.51
7412.00,1.51
7411.00,1.50
7410.00,1.50
7409.00,1.50
7408.00,1.50
7407.00,1.49
7406.00,1.49
7405.00,1.48
7404.00,1.48
7403.00,1.48
7402.00,1.48
7401.00,1.47
7400.00,1.47
7399.00,1.47
7398.00,1.46
7397.00,1.46
7396.00,1.46
7395.00,1.46
7394.00,1.45
7393.00,1.45
7392.00,1.45
7391.00,1.45
7390.00,1.45
7389.00,1.44
7388.00,1.44
7387.00,1.44
7386.00,1.44
7385.00,1.44
7384.00,1.44
7383.00,1.43
7382.00,1.43
7381.00,1.43
7380.00,1.43
7379.00,1.43
7378.00,1.43
7377.00,1.43
7376.00,1.42
7375.00,1.42
7374.00,1.42
7373.00,1.42
7372.00,1.42
7371.00,1.42
7370.00,1.42
7369.00,1.42
7368.00,1.42
7367.00,1.42
7366.00,1.42
7365.00,1.42
7364.00,1.42
7363.00,1.42
7362.00,1.42
7361.00,1.42
7360.00,1.42
7359.00,1.42
7358.00,1.42
7357.00,1.43
7356.00,1.43
7355.00,1.43
7354.00,1.43
7353.00,1.43
7352.00,1.43
7351.00,1.43
7350.00,1.43
7349.00,1.43
7348.00,1.43
7347.00,1.44
7346.00,1.44
7345.00,1.44
7344.00,1.44
7343.00,1.44
7342.00,1.44
7341.00,1.44
7340.00,1.44
7339.00,1.44
7338.00,1.44
7337.00,1.45
7336.00,1.45
7335.00,1.45
7334.00,1.45
7333.00,1.45
7332.00,1.45
7331.00,1.45
7330.00,1.45
7329.00,1.45
7328.00,1.45
7327.00,1.45
7326.00,1.45
7325.00,1.45
7324.00,1.45
7323.00,1.46
7322.00,1.46
7321.00,1.46
7320.00,1.46
7319.00,1.46
7318.00,1.46
7317.00,1.46
7316.00,1.46
7315.00,1.46
7314.00,1.46
7313.00,1.46
7312.00,1.46
7311.00,1.46
7310.00,1.46
7309.00,1.45
7308.00,1.45
7307.00,1.45
7306.00,1.45
7305.00,1.45
7304.00,1.45
7303.00,1.44
7302.00,1.44
7301.00,1.44
7300.00,1.44
7299.00,1.44
7298.00,1.44
7297.00,1.43
7296.00,1.43
7295.00,1.43
7294.00,1.43
7293.00,1.43
7292.00,1.43
7291.00,1.43
7290.00,1.43
7289.00,1.43
7288.00,1.43
7287.00,1.43
7286.00,1.43
7285.00,1.43
7284.00,1.43
7283.00,1.43
7282.00,1.43
7281.00,1.44
7280.00,1.44
7279.00,1.44
7278.00,1.44
7277.00,1.45
7276.00,1.45
7275.00,1.45
7274.00,1.45
7273.00,1.45
7272.00,1.46
7271.00,1.46
7270.00,1.46
7269.00,1.46
7268.00,1.46
7267.00,1.46
7266.00,1.46
7265.00,1.47
7264.00,1.47
7263.00,1.47
7262.00,1.47
7261.00,1.47
7260.00,1.47
7259.00,1.47
7258.00,1.47
7257.00,1.47
7256.00,1.47
7255.00,1.47
7254.00,1.47
7253.00,1.47
7252.00,1.47
7251.00,1.47
7250.00,1.47
7249.00,1.47
7248.00,1.47
7247.00,1.47
7246.00,1.47
7245.00,1.47
7244.00,1.47
7243.00,1.47
7242.00,1.47
7241.00,1.47
7240.00,1.47
7239.00,1.47
7238.00,1.47
7237.00,1.47
7236.00,1.48
7235.00,1.48
7234.00,1.48
7233.00,1.48
7232.00,1.48
7231.00,1.48
7230.00,1.48
7229.00,1.48
7228.00,1.48
7227.00,1.48
7226.00,1.47
7225.00,1.47
7224.00,1.47
7223.00,1.47
7222.00,1.47
7221.00,1.47
7220.00,1.47
7219.00,1.47
7218.00,1.47
7217.00,1.47
7216.00,1.47
7215.00,1.47
7214.00,1.46
7213.00,1.46
7212.00,1.46
7211.00,1.46
7210.00,1.46
7209.00,1.46
7208.00,1.45
7207.00,1.45
7206.00,1.45
7205.00,1.45
7204.00,1.45
7203.00,1.45
7202.00,1.45
7201.00,1.44
7200.00,1.44
7199.00,1.44
7198.00,1.44
7197.00,1.44
7196.00,1.44
7195.00,1.44
7194.00,1.43
7193.00,1.43
7192.00,1.43
7191.00,1.42
7190.00,1.42
7189.00,1.42
7188.00,1.41
7187.00,1.41
7186.00,1.40
7185.00,1.40
7184.00,1.39
7183.00,1.39
7182.00,1.39
7181.00,1.38
7180.00,1.38
7179.00,1.37
7178.00,1.37
7177.00,1.37
7176.00,1.36
7175.00,1.36
7174.00,1.36
7173.00,1.35
7172.00,1.35
7171.00,1.35
7170.00,1.35
7169.00,1.34
7168.00,1.34
7167.00,1.34
7166.00,1.34
7165.00,1.34
7164.00,1.34
7163.00,1.34
7162.00,1.34
7161.00,1.34
7160.00,1.34
7159.00,1.34
7158.00,1.34
7157.00,1.34
7156.00,1.34
7155.00,1.34
7154.00,1.34
7153.00,1.34
7152.00,1.34
7151.00,1.34
7150.00,1.34
7149.00,1.34
7148.00,1.34
7147.00,1.34
7146.00,1.34
7145.00,1.34
7144.00,1.34
7143.00,1.34
7142.00,1.33
7141.00,1.33
7140.00,1.33
7139.00,1.33
7138.00,1.33
7137.00,1.33
7136.00,1.33
7135.00,1.32
7134.00,1.32
7133.00,1.32
7132.00,1.31
7131.00,1.31
7130.00,1.31
7129.00,1.31
7128.00,1.30
7127.00,1.30
7126.00,1.30
7125.00,1.30
7124.00,1.30
7123.00,1.30
7122.00,1.29
7121.00,1.29
7120.00,1.29
7119.00,1.29
7118.00,1.29
7117.00,1.28
7116.00,1.28
7115.00,1.28
7114.00,1.27
7113.00,1.27
7112.00,1.27
7111.00,1.27
7110.00,1.27
7109.00,1.27
7108.00,1.27
7107.00,1.26
7106.00,1.26
7105.00,1.26
7104.00,1.26
7103.00,1.26
7102.00,1.26
7101.00,1.26
7100.00,1.26
7099.00,1.26
7098.00,1.26
7097.00,1.26
7096.00,1.26
7095.00,1.26
7094.00,1.26
7093.00,1.26
7092.00,1.26
7091.00,1.26
7090.00,1.26
7089.00,1.26
7088.00,1.27
7087.00,1.27
7086.00,1.27
7085.00,1.27
7084.00,1.27
7083.00,1.27
7082.00,1.27
7081.00,1.27
7080.00,1.27
7079.00,1.27
7078.00,1.27
7077.00,1.26
7076.00,1.26
7075.00,1.26
7074.00,1.26
7073.00,1.26
7072.00,1.26
7071.00,1.26
7070.00,1.26
7069.00,1.26
7068.00,1.26
7067.00,1.26
7066.00,1.26
7065.00,1.26
7064.00,1.26
7063.00,1.26
7062.00,1.26
7061.00,1.26
7060.00,1.26
7059.00,1.26
7058.00,1.26
7057.00,1.26
7056.00,1.26
7055.00,1.26
7054.00,1.26
7053.00,1.26
7052.00,1.26
7051.00,1.26
7050.00,1.26
7049.00,1.26
7048.00,1.26
7047.00,1.26
7046.00,1.26
7045.00,1.26
7044.00,1.26
7043.00,1.26
7042.00,1.26
7041.00,1.25
7040.00,1.25
7039.00,1.25
7038.00,1.25
7037.00,1.25
7036.00,1.25
7035.00,1.25
7034.00,1.24
7033.00,1.24
7032.00,1.24
7031.00,1.24
7030.00,1.24
7029.00,1.24
7028.00,1.24
7027.00,1.23
7026.00,1.23
7025.00,1.23
7024.00,1.23
7023.00,1.23
7022.00,1.23
7021.00,1.23
7020.00,1.23
7019.00,1.23
7018.00,1.24
7017.00,1.24
7016.00,1.24
7015.00,1.24
7014.00,1.24
7013.00,1.24
7012.00,1.24
7011.00,1.24
7010.00,1.24
7009.00,1.24
7008.00,1.24
7007.00,1.24
7006.00,1.24
7005.00,1.24
7004.00,1.23
7003.00,1.23
7002.00,1.23
7001.00,1.23
7000.00,1.23
6999.00,1.22
6998.00,1.22
6997.00,1.22
6996.00,1.22
6995.00,1.21
6994.00,1.21
6993.00,1.21
6992.00,1.21
6991.00,1.20
6990.00,1.20
6989.00,1.20
6988.00,1.20
6987.00,1.19
6986.00,1.19
6985.00,1.19
6984.00,1.19
6983.00,1.19
6982.00,1.19
6981.00,1.19
6980.00,1.19
6979.00,1.19
6978.00,1.19
6977.00,1.19
6976.00,1.19
6975.00,1.19
6974.00,1.20
6973.00,1.20
6972.00,1.20
6971.00,1.20
6970.00,1.20
6969.00,1.20
6968.00,1.21
6967.00,1.21
6966.00,1.21
6965.00,1.21
6964.00,1.22
6963.00,1.22
6962.00,1.22
6961.00,1.22
6960.00,1.22
6959.00,1.23
6958.00,1.23
6957.00,1.23
6956.00,1.23
6955.00,1.23
6954.00,1.23
6953.00,1.23
6952.00,1.23
6951.00,1.23
6950.00,1.23
6949.00,1.23
6948.00,1.23
6947.00,1.24
6946.00,1.24
6945.00,1.24
6944.00,1.24
6943.00,1.24
6942.00,1.24
6941.00,1.24
6940.00,1.24
6939.00,1.24
6938.00,1.24
6937.00,1.24
6936.00,1.24
6935.00,1.24
6934.00,1.24
6933.00,1.24
6932.00,1.24
6931.00,1.24
6930.00,1.24
6929.00,1.24
6928.00,1.24
6927.00,1.24
6926.00,1.24
6925.00,1.24
6924.00,1.24
6923.00,1.24
6922.00,1.24
6921.00,1.24
6920.00,1.24
6919.00,1.23
6918.00,1.23
6917.00,1.23
6916.00,1.23
6915.00,1.23
6914.00,1.23
6913.00,1.23
6912.00,1.23
6911.00,1.23
6910.00,1.23
6909.00,1.22
6908.00,1.22
6907.00,1.22
6906.00,1.22
6905.00,1.22
6904.00,1.22
6903.00,1.22
6902.00,1.22
6901.00,1.22
6900.00,1.22
6899.00,1.22
6898.00,1.22
6897.00,1.22
6896.00,1.22
6895.00,1.22
6894.00,1.22
6893.00,1.22
6892.00,1.22
6891.00,1.22
6890.00,1.22
6889.00,1.22
6888.00,1.22
6887.00,1.22
6886.00,1.22
6885.00,1.22
6884.00,1.21
6883.00,1.21
6882.00,1.21
6881.00,1.21
6880.00,1.21
6879.00,1.21
6878.00,1.21
6877.00,1.20
6876.00,1.20
6875.00,1.20
6874.00,1.20
6873.00,1.20
6872.00,1.20
6871.00,1.20
6870.00,1.20
6869.00,1.20
6868.00,1.20
6867.00,1.20
6866.00,1.20
6865.00,1.20
6864.00,1.20
6863.00,1.20
6862.00,1.20
6861.00,1.21
6860.00,1.21
6859.00,1.21
6858.00,1.21
6857.00,1.21
6856.00,1.21
6855.00,1.22
6854.00,1.22
6853.00,1.22
6852.00,1.22
6851.00,1.22
6850.00,1.23
6849.00,1.23
6848.00,1.23
6847.00,1.23
6846.00,1.23
6845.00,1.24
6844.00,1.24
6843.00,1.24
6842.00,1.24
6841.00,1.24
6840.00,1.24
6839.00,1.24
6838.00,1.25
6837.00,1.25
6836.00,1.25
6835.00,1.25
6834.00,1.25
6833.00,1.25
6832.00,1.25
6831.00,1.25
6830.00,1.25
6829.00,1.25
6828.00,1.25
6827.00,1.25
6826.00,1.25
6825.00,1.26
6824.00,1.26
6823.00,1.26
6822.00,1.26
6821.00,1.26
6820.00,1.26
6819.00,1.26
6818.00,1.26
6817.00,1.26
6816.00,1.25
6815.00,1.25
6814.00,1.25
6813.00,1.25
6812.00,1.25
6811.00,1.25
6810.00,1.25
6809.00,1.24
6808.00,1.24
6807.00,1.24
6806.00,1.24
6805.00,1.24
6804.00,1.24
6803.00,1.23
6802.00,1.23
6801.00,1.23
6800.00,1.23
6799.00,1.23
6798.00,1.22
6797.00,1.22
6796.00,1.22
6795.00,1.22
6794.00,1.22
6793.00,1.22
6792.00,1.22
6791.00,1.22
6790.00,1.22
6789.00,1.23
6788.00,1.23
6787.00,1.23
6786.00,1.23
6785.00,1.23
6784.00,1.23
6783.00,1.24
6782.00,1.24
6781.00,1.24
6780.00,1.24
6779.00,1.25
6778.00,1.25
6777.00,1.25
6776.00,1.25
6775.00,1.26
6774.00,1.26
6773.00,1.26
6772.00,1.26
6771.00,1.26
6770.00,1.26
6769.00,1.27
6768.00,1.27
6767.00,1.27
6766.00,1.27
6765.00,1.27
6764.00,1.27
6763.00,1.27
6762.00,1.27
6761.00,1.27
6760.00,1.27
6759.00,1.27
6758.00,1.27
6757.00,1.27
6756.00,1.27
6755.00,1.27
6754.00,1.27
6753.00,1.27
6752.00,1.27
6751.00,1.26
6750.00,1.26
6749.00,1.26
6748.00,1.26
6747.00,1.26
6746.00,1.26
6745.00,1.26
6744.00,1.26
6743.00,1.26
6742.00,1.26
6741.00,1.27
6740.00,1.27
6739.00,1.27
6738.00,1.27
6737.00,1.27
6736.00,1.27
6735.00,1.27
6734.00,1.27
6733.00,1.27
6732.00,1.27
6731.00,1.27
6730.00,1.26
6729.00,1.26
6728.00,1.26
6727.00,1.26
6726.00,1.26
6725.00,1.26
6724.00,1.26
6723.00,1.26
6722.00,1.26
6721.00,1.26
6720.00,1.26
6719.00,1.26
6718.00,1.26
6717.00,1.26
6716.00,1.26
6715.00,1.26
6714.00,1.26
6713.00,1.26
6712.00,1.26
6711.00,1.26
6710.00,1.26
6709.00,1.27
6708.00,1.27
6707.00,1.27
6706.00,1.27
6705.00,1.27
6704.00,1.27
6703.00,1.27
6702.00,1.28
6701.00,1.28
6700.00,1.28
6699.00,1.28
6698.00,1.28
6697.00,1.28
6696.00,1.28
6695.00,1.28
6694.00,1.28
6693.00,1.29
6692.00,1.29
6691.00,1.29
6690.00,1.29
6689.00,1.29
6688.00,1.29
6687.00,1.29
6686.00,1.29
6685.00,1.29
6684.00,1.29
6683.00,1.29
6682.00,1.29
6681.00,1.29
6680.00,1.29
6679.00,1.30
6678.00,1.30
6677.00,1.30
6676.00,1.30
6675.00,1.30
6674.00,1.29
6673.00,1.29
6672.00,1.29
6671.00,1.29
6670.00,1.29
6669.00,1.29
6668.00,1.29
6667.00,1.29
6666.00,1.29
6665.00,1.29
6664.00,1.29
6663.00,1.29
6662.00,1.29
6661.00,1.29
6660.00,1.29
6659.00,1.29
6658.00,1.29
6657.00,1.29
6656.00,1.29
6655.00,1.29
6654.00,1.29
6653.00,1.29
6652.00,1.29
6651.00,1.30
6650.00,1.30
6649.00,1.30
6648.00,1.30
6647.00,1.31
6646.00,1.31
6645.00,1.31
6644.00,1.32
6643.00,1.32
6642.00,1.32
6641.00,1.32
6640.00,1.33
6639.00,1.33
6638.00,1.33
6637.00,1.34
6636.00,1.34
6635.00,1.34
6634.00,1.35
6633.00,1.35
6632.00,1.35
6631.00,1.35
6630.00,1.35
6629.00,1.36
6628.00,1.36
6627.00,1.36
6626.00,1.36
6625.00,1.36
6624.00,1.36
6623.00,1.36
6622.00,1.36
6621.00,1.36
6620.00,1.36
6619.00,1.36
6618.00,1.36
6617.00,1.36
6616.00,1.36
6615.00,1.36
6614.00,1.36
6613.00,1.36
6612.00,1.36
6611.00,1.36
6610.00,1.36
6609.00,1.36
6608.00,1.36
6607.00,1.36
6606.00,1.36
6605.00,1.36
6604.00,1.37
6603.00,1.37
6602.00,1.37
6601.00,1.37
6600.00,1.37
6599.00,1.37
6598.00,1.37
6597.00,1.36
6596.00,1.36
6595.00,1.36
6594.00,1.36
6593.00,1.36
6592.00,1.36
6591.00,1.36
6590.00,1.36
6589.00,1.36
6588.00,1.36
6587.00,1.35
6586.00,1.35
6585.00,1.35
6584.00,1.35
6583.00,1.35
6582.00,1.35
6581.00,1.35
6580.00,1.35
6579.00,1.35
6578.00,1.35
6577.00,1.35
6576.00,1.35
6575.00,1.35
6574.00,1.35
6573.00,1.35
6572.00,1.35
6571.00,1.35
6570.00,1.35
6569.00,1.35
6568.00,1.35
6567.00,1.36
6566.00,1.36
6565.00,1.36
6564.00,1.36
6563.00,1.37
6562.00,1.37
6561.00,1.37
6560.00,1.37
6559.00,1.38
6558.00,1.38
6557.00,1.38
6556.00,1.38
6555.00,1.39
6554.00,1.39
6553.00,1.39
6552.00,1.39
6551.00,1.39
6550.00,1.39
6549.00,1.39
6548.00,1.39
6547.00,1.40
6546.00,1.40
6545.00,1.40
6544.00,1.40
6543.00,1.40
6542.00,1.40
6541.00,1.40
6540.00,1.40
6539.00,1.40
6538.00,1.40
6537.00,1.40
6536.00,1.40
6535.00,1.40
6534.00,1.40
6533.00,1.40
6532.00,1.40
6531.00,1.40
6530.00,1.40
6529.00,1.40
6528.00,1.40
6527.00,1.40
6526.00,1.40
6525.00,1.40
6524.00,1.41
6523.00,1.41
6522.00,1.41
6521.00,1.41
6520.00,1.41
6519.00,1.41
6518.00,1.41
6517.00,1.41
6516.00,1.41
6515.00,1.41
6514.00,1.42
6513.00,1.42
6512.00,1.42
6511.00,1.42
6510.00,1.42
6509.00,1.42
6508.00,1.42
6507.00,1.42
6506.00,1.42
6505.00,1.42
6504.00,1.42
6503.00,1.42
6502.00,1.42
6501.00,1.42
6500.00,1.42
6499.00,1.42
6498.00,1.42
6497.00,1.42
6496.00,1.42
6495.00,1.42
6494.00,1.42
6493.00,1.41
6492.00,1.41
6491.00,1.41
6490.00,1.41
6489.00,1.41
6488.00,1.41
6487.00,1.41
6486.00,1.41
6485.00,1.41
6484.00,1.41
6483.00,1.41
6482.00,1.41
6481.00,1.40
6480.00,1.40
6479.00,1.40
6478.00,1.40
6477.00,1.40
6476.00,1.40
6475.00,1.40
6474.00,1.40
6473.00,1.40
6472.00,1.40
6471.00,1.40
6470.00,1.40
6469.00,1.40
6468.00,1.40
6467.00,1.40
6466.00,1.40
6465.00,1.40
6464.00,1.40
6463.00,1.40
6462.00,1.40
6461.00,1.41
6460.00,1.41
6459.00,1.41
6458.00,1.41
6457.00,1.41
6456.00,1.41
6455.00,1.42
6454.00,1.42
6453.00,1.42
6452.00,1.42
6451.00,1.42
6450.00,1.42
6449.00,1.42
6448.00,1.43
6447.00,1.43
6446.00,1.43
6445.00,1.43
6444.00,1.43
6443.00,1.43
6442.00,1.43
6441.00,1.43
6440.00,1.43
6439.00,1.44
6438.00,1.44
6437.00,1.44
6436.00,1.44
6435.00,1.44
6434.00,1.44
6433.00,1.44
6432.00,1.44
6431.00,1.44
6430.00,1.44
6429.00,1.44
6428.00,1.44
6427.00,1.44
6426.00,1.45
6425.00,1.45
6424.00,1.45
6423.00,1.45
6422.00,1.45
6421.00,1.45
6420.00,1.45
6419.00,1.45
6418.00,1.45
6417.00,1.45
6416.00,1.45
6415.00,1.45
6414.00,1.46
6413.00,1.46
6412.00,1.46
6411.00,1.46
6410.00,1.46
6409.00,1.46
6408.00,1.46
6407.00,1.46
6406.00,1.46
6405.00,1.46
6404.00,1.47
6403.00,1.47
6402.00,1.47
6401.00,1.47
6400.00,1.47
6399.00,1.47
6398.00,1.47
6397.00,1.47
6396.00,1.47
6395.00,1.47
6394.00,1.47
6393.00,1.47
6392.00,1.47
6391.00,1.47
6390.00,1.47
6389.00,1.48
6388.00,1.48
6387.00,1.48
6386.00,1.47
6385.00,1.47
6384.00,1.47
6383.00,1.47
6382.00,1.47
6381.00,1.47
6380.00,1.47
6379.00,1.47
6378.00,1.47
6377.00,1.47
6376.00,1.47
6375.00,1.47
6374.00,1.47
6373.00,1.47
6372.00,1.47
6371.00,1.47
6370.00,1.47
6369.00,1.48
6368.00,1.48
6367.00,1.48
6366.00,1.48
6365.00,1.48
6364.00,1.48
6363.00,1.48
6362.00,1.48
6361.00,1.48
6360.00,1.48
6359.00,1.48
6358.00,1.48
6357.00,1.48
6356.00,1.49
6355.00,1.49
6354.00,1.49
6353.00,1.49
6352.00,1.49
6351.00,1.49
6350.00,1.49
6349.00,1.50
6348.00,1.50
6347.00,1.50
6346.00,1.50
6345.00,1.50
6344.00,1.50
6343.00,1.50
6342.00,1.51
6341.00,1.51
6340.00,1.51
6339.00,1.51
6338.00,1.51
6337.00,1.51
6336.00,1.51
6335.00,1.51
6334.00,1.51
6333.00,1.51
6332.00,1.51
6331.00,1.51
6330.00,1.51
6329.00,1.51
6328.00,1.50
6327.00,1.50
6326.00,1.50
6325.00,1.50
6324.00,1.50
6323.00,1.50
6322.00,1.50
6321.00,1.49
6320.00,1.49
6319.00,1.49
6318.00,1.49
6317.00,1.49
6316.00,1.49
6315.00,1.48
6314.00,1.48
6313.00,1.48
6312.00,1.48
6311.00,1.48
6310.00,1.48
6309.00,1.48
6308.00,1.48
6307.00,1.47
6306.00,1.47
6305.00,1.47
6304.00,1.47
6303.00,1.47
6302.00,1.47
6301.00,1.47
6300.00,1.47
6299.00,1.47
6298.00,1.47
6297.00,1.47
6296.00,1.47
6295.00,1.47
6294.00,1.48
6293.00,1.48
6292.00,1.48
6291.00,1.48
6290.00,1.48
6289.00,1.48
6288.00,1.48
6287.00,1.48
6286.00,1.48
6285.00,1.48
6284.00,1.49
6283.00,1.49
6282.00,1.49
6281.00,1.49
6280.00,1.49
6279.00,1.49
6278.00,1.49
6277.00,1.49
6276.00,1.50
6275.00,1.50
6274.00,1.50
6273.00,1.50
6272.00,1.50
6271.00,1.50
6270.00,1.51
6269.00,1.51
6268.00,1.51
6267.00,1.51
6266.00,1.51
6265.00,1.51
6264.00,1.51
6263.00,1.52
6262.00,1.52
6261.00,1.52
6260.00,1.52
6259.00,1.52
6258.00,1.53
6257.00,1.53
6256.00,1.53
6255.00,1.53
6254.00,1.53
6253.00,1.53
6252.00,1.54
6251.00,1.54
6250.00,1.54
6249.00,1.54
6248.00,1.54
6247.00,1.54
6246.00,1.55
6245.00,1.55
6244.00,1.55
6243.00,1.55
6242.00,1.55
6241.00,1.55
6240.00,1.56
6239.00,1.56
6238.00,1.56
6237.00,1.56
6236.00,1.56
6235.00,1.56
6234.00,1.56
6233.00,1.56
6232.00,1.56
6231.00,1.56
6230.00,1.56
6229.00,1.56
6228.00,1.56
6227.00,1.56
6226.00,1.56
6225.00,1.56
6224.00,1.56
6223.00,1.56
6222.00,1.56
6221.00,1.56
6220.00,1.56
6219.00,1.56
6218.00,1.56
6217.00,1.56
6216.00,1.56
6215.00,1.56
6214.00,1.56
6213.00,1.56
6212.00,1.56
6211.00,1.56
6210.00,1.56
6209.00,1.56
6208.00,1.56
6207.00,1.56
6206.00,1.56
6205.00,1.56
6204.00,1.56
6203.00,1.56
6202.00,1.56
6201.00,1.56
6200.00,1.56
6199.00,1.56
6198.00,1.56
6197.00,1.56
6196.00,1.57
6195.00,1.57
6194.00,1.57
6193.00,1.57
6192.00,1.57
6191.00,1.57
6190.00,1.57
6189.00,1.57
6188.00,1.57
6187.00,1.57
6186.00,1.57
6185.00,1.57
6184.00,1.57
6183.00,1.57
6182.00,1.57
6181.00,1.57
6180.00,1.57
6179.00,1.57
6178.00,1.57
6177.00,1.57
6176.00,1.57
6175.00,1.57
6174.00,1.57
6173.00,1.57
6172.00,1.57
6171.00,1.57
6170.00,1.57
6169.00,1.57
6168.00,1.57
6167.00,1.57
6166.00,1.57
6165.00,1.57
6164.00,1.57
6163.00,1.57
6162.00,1.57
6161.00,1.56
6160.00,1.56
6159.00,1.56
6158.00,1.56
6157.00,1.56
6156.00,1.56
6155.00,1.56
6154.00,1.56
6153.00,1.56
6152.00,1.56
6151.00,1.56
6150.00,1.56
6149.00,1.56
6148.00,1.56
6147.00,1.56
6146.00,1.56
6145.00,1.56
6144.00,1.56
6143.00,1.56
6142.00,1.56
6141.00,1.56
6140.00,1.56
6139.00,1.56
6138.00,1.56
6137.00,1.56
6136.00,1.56
6135.00,1.56
6134.00,1.56
6133.00,1.56
6132.00,1.56
6131.00,1.56
6130.00,1.56
6129.00,1.56
6128.00,1.56
6127.00,1.57
6126.00,1.57
6125.00,1.57
6124.00,1.57
6123.00,1.57
6122.00,1.57
6121.00,1.57
6120.00,1.57
6119.00,1.57
6118.00,1.57
6117.00,1.57
6116.00,1.57
6115.00,1.58
6114.00,1.58
6113.00,1.58
6112.00,1.58
6111.00,1.58
6110.00,1.58
6109.00,1.58
6108.00,1.59
6107.00,1.59
6106.00,1.59
6105.00,1.59
6104.00,1.59
6103.00,1.59
6102.00,1.59
6101.00,1.59
6100.00,1.59
6099.00,1.59
6098.00,1.59
6097.00,1.59
6096.00,1.59
6095.00,1.59
6094.00,1.59
6093.00,1.59
6092.00,1.59
6091.00,1.59
6090.00,1.59
6089.00,1.59
6088.00,1.59
6087.00,1.59
6086.00,1.59
6085.00,1.59
6084.00,1.59
6083.00,1.59
6082.00,1.59
6081.00,1.59
6080.00,1.59
6079.00,1.59
6078.00,1.59
6077.00,1.59
6076.00,1.59
6075.00,1.59
6074.00,1.59
6073.00,1.59
6072.00,1.59
6071.00,1.59
6070.00,1.60
6069.00,1.60
6068.00,1.60
6067.00,1.60
6066.00,1.60
6065.00,1.60
6064.00,1.60
6063.00,1.60
6062.00,1.61
6061.00,1.61
6060.00,1.61
6059.00,1.61
6058.00,1.61
6057.00,1.61
6056.00,1.61
6055.00,1.61
6054.00,1.61
6053.00,1.62
6052.00,1.62
6051.00,1.62
6050.00,1.62
6049.00,1.62
6048.00,1.62
6047.00,1.62
6046.00,1.62
6045.00,1.62
6044.00,1.62
6043.00,1.62
6042.00,1.62
6041.00,1.62
6040.00,1.62
6039.00,1.62
6038.00,1.62
6037.00,1.62
6036.00,1.62
6035.00,1.62
6034.00,1.62
6033.00,1.62
6032.00,1.62
6031.00,1.61
6030.00,1.61
6029.00,1.61
6028.00,1.61
6027.00,1.61
6026.00,1.61
6025.00,1.61
6024.00,1.61
6023.00,1.61
6022.00,1.61
6021.00,1.61
6020.00,1.61
6019.00,1.61
6018.00,1.61
6017.00,1.61
6016.00,1.61
6015.00,1.61
6014.00,1.61
6013.00,1.61
6012.00,1.61
6011.00,1.61
6010.00,1.61
6009.00,1.61
6008.00,1.61
6007.00,1.61
6006.00,1.61
6005.00,1.61
6004.00,1.61
6003.00,1.61
6002.00,1.61
6001.00,1.61
6000.00,1.61
5999.00,1.61
5998.00,1.61
5997.00,1.61
5996.00,1.61
5995.00,1.61
5994.00,1.61
5993.00,1.61
5992.00,1.61
5991.00,1.61
5990.00,1.61
5989.00,1.61
5988.00,1.61
5987.00,1.61
5986.00,1.61
5985.00,1.61
5984.00,1.61
5983.00,1.61
5982.00,1.61
5981.00,1.61
5980.00,1.61
5979.00,1.61
5978.00,1.61
5977.00,1.61
5976.00,1.61
5975.00,1.61
5974.00,1.61
5973.00,1.61
5972.00,1.61
5971.00,1.61
5970.00,1.61
5969.00,1.61
5968.00,1.61
5967.00,1.60
5966.00,1.60
5965.00,1.60
5964.00,1.60
5963.00,1.60
5962.00,1.60
5961.00,1.60
5960.00,1.60
5959.00,1.60
5958.00,1.60
5957.00,1.60
5956.00,1.60
5955.00,1.60
5954.00,1.60
5953.00,1.60
5952.00,1.60
5951.00,1.60
5950.00,1.60
5949.00,1.60
5948.00,1.60
5947.00,1.60
5946.00,1.60
5945.00,1.60
5944.00,1.60
5943.00,1.60
5942.00,1.60
5941.00,1.60
5940.00,1.60
5939.00,1.60
5938.00,1.60
5937.00,1.60
5936.00,1.60
5935.00,1.60
5934.00,1.60
5933.00,1.60
5932.00,1.60
5931.00,1.60
5930.00,1.60
5929.00,1.60
5928.00,1.60
5927.00,1.60
5926.00,1.60
5925.00,1.60
5924.00,1.60
5923.00,1.60
5922.00,1.60
5921.00,1.60
5920.00,1.60
5919.00,1.60
5918.00,1.60
5917.00,1.60
5916.00,1.60
5915.00,1.60
5914.00,1.60
5913.00,1.60
5912.00,1.60
5911.00,1.60
5910.00,1.60
5909.00,1.60
5908.00,1.60
5907.00,1.60
5906.00,1.60
5905.00,1.60
5904.00,1.59
5903.00,1.59
5902.00,1.59
5901.00,1.59
5900.00,1.59
5899.00,1.59
5898.00,1.58
5897.00,1.58
5896.00,1.58
5895.00,1.58
5894.00,1.58
5893.00,1.57
5892.00,1.57
5891.00,1.57
5890.00,1.57
5889.00,1.57
5888.00,1.57
5887.00,1.57
5886.00,1.56
5885.00,1.56
5884.00,1.56
5883.00,1.56
5882.00,1.56
5881.00,1.56
5880.00,1.56
5879.00,1.56
5878.00,1.56
5877.00,1.56
5876.00,1.56
5875.00,1.56
5874.00,1.56
5873.00,1.56
5872.00,1.56
5871.00,1.56
5870.00,1.56
5869.00,1.56
5868.00,1.56
5867.00,1.57
5866.00,1.57
5865.00,1.57
5864.00,1.57
5863.00,1.57
5862.00,1.57
5861.00,1.57
5860.00,1.57
5859.00,1.57
5858.00,1.57
5857.00,1.58
5856.00,1.58
5855.00,1.58
5854.00,1.58
5853.00,1.58
5852.00,1.58
5851.00,1.58
5850.00,1.58
5849.00,1.58
5848.00,1.58
5847.00,1.58
5846.00,1.58
5845.00,1.58
5844.00,1.58
5843.00,1.58
5842.00,1.58
5841.00,1.58
5840.00,1.58
5839.00,1.58
5838.00,1.57
5837.00,1.57
5836.00,1.57
5835.00,1.57
5834.00,1.57
5833.00,1.57
5832.00,1.57
5831.00,1.57
5830.00,1.57
5829.00,1.57
5828.00,1.57
5827.00,1.57
5826.00,1.57
5825.00,1.56
5824.00,1.56
5823.00,1.56
5822.00,1.56
5821.00,1.56
5820.00,1.56
5819.00,1.56
5818.00,1.56
5817.00,1.56
5816.00,1.56
5815.00,1.56
5814.00,1.56
5813.00,1.56
5812.00,1.56
5811.00,1.56
5810.00,1.56
5809.00,1.56
5808.00,1.56
5807.00,1.56
5806.00,1.56
5805.00,1.56
5804.00,1.56
5803.00,1.56
5802.00,1.56
5801.00,1.56
5800.00,1.56
5799.00,1.56
5798.00,1.56
5797.00,1.56
5796.00,1.56
5795.00,1.56
5794.00,1.56
5793.00,1.56
5792.00,1.55
5791.00,1.55
5790.00,1.55
5789.00,1.55
5788.00,1.55
5787.00,1.55
5786.00,1.55
5785.00,1.55
5784.00,1.55
5783.00,1.55
5782.00,1.55
5781.00,1.55
5780.00,1.55
5779.00,1.55
5778.00,1.54
5777.00,1.54
5776.00,1.54
5775.00,1.54
5774.00,1.54
5773.00,1.54
5772.00,1.54
5771.00,1.54
5770.00,1.54
5769.00,1.54
5768.00,1.54
5767.00,1.54
5766.00,1.54
5765.00,1.54
5764.00,1.54
5763.00,1.54
5762.00,1.54
5761.00,1.54
5760.00,1.54
5759.00,1.54
5758.00,1.54
5757.00,1.54
5756.00,1.54
5755.00,1.54
5754.00,1.54
5753.00,1.54
5752.00,1.54
5751.00,1.54
5750.00,1.54
5749.00,1.54
5748.00,1.54
5747.00,1.54
5746.00,1.54
5745.00,1.54
5744.00,1.54
5743.00,1.54
5742.00,1.54
5741.00,1.54
5740.00,1.54
5739.00,1.55
5738.00,1.55
5737.00,1.55
5736.00,1.55
5735.00,1.55
5734.00,1.55
5733.00,1.55
5732.00,1.55
5731.00,1.55
5730.00,1.55
5729.00,1.55
5728.00,1.55
5727.00,1.55
5726.00,1.55
5725.00,1.55
5724.00,1.55
5723.00,1.55
5722.00,1.55
5721.00,1.55
5720.00,1.55
5719.00,1.55
5718.00,1.55
5717.00,1.55
5716.00,1.55
5715.00,1.56
5714.00,1.56
5713.00,1.56
5712.00,1.56
5711.00,1.56
5710.00,1.56
5709.00,1.56
5708.00,1.56
5707.00,1.56
5706.00,1.56
5705.00,1.56
5704.00,1.56
5703.00,1.56
5702.00,1.56
5701.00,1.56
5700.00,1.57
5699.00,1.57
5698.00,1.57
5697.00,1.57
5696.00,1.57
5695.00,1.57
5694.00,1.57
5693.00,1.57
5692.00,1.57
5691.00,1.57
5690.00,1.57
5689.00,1.57
5688.00,1.57
5687.00,1.57
5686.00,1.57
5685.00,1.58
5684.00,1.58
5683.00,1.58
5682.00,1.58
5681.00,1.58
5680.00,1.58
5679.00,1.58
5678.00,1.58
5677.00,1.58
5676.00,1.58
5675.00,1.58
5674.00,1.58
5673.00,1.58
5672.00,1.58
5671.00,1.58
5670.00,1.58
5669.00,1.58
5668.00,1.58
5667.00,1.58
5666.00,1.58
5665.00,1.58
5664.00,1.58
5663.00,1.57
5662.00,1.57
5661.00,1.57
5660.00,1.57
5659.00,1.57
5658.00,1.57
5657.00,1.57
5656.00,1.57
5655.00,1.57
5654.00,1.57
5653.00,1.57
5652.00,1.57
5651.00,1.57
5650.00,1.57
5649.00,1.57
5648.00,1.57
5647.00,1.57
5646.00,1.58
5645.00,1.58
5644.00,1.58
5643.00,1.58
5642.00,1.58
5641.00,1.58
5640.00,1.59
5639.00,1.59
5638.00,1.59
5637.00,1.59
5636.00,1.59
5635.00,1.60
5634.00,1.60
5633.00,1.60
5632.00,1.60
5631.00,1.60
5630.00,1.60
5629.00,1.60
5628.00,1.61
5627.00,1.61
5626.00,1.61
5625.00,1.61
5624.00,1.61
5623.00,1.61
5622.00,1.61
5621.00,1.61
5620.00,1.61
5619.00,1.61
5618.00,1.61
5617.00,1.61
5616.00,1.61
5615.00,1.61
5614.00,1.61
5613.00,1.61
5612.00,1.61
5611.00,1.61
5610.00,1.61
5609.00,1.61
5608.00,1.60
5607.00,1.60
5606.00,1.60
5605.00,1.60
5604.00,1.60
5603.00,1.60
5602.00,1.60
5601.00,1.60
5600.00,1.60
5599.00,1.59
5598.00,1.59
5597.00,1.59
5596.00,1.59
5595.00,1.59
5594.00,1.59
5593.00,1.59
5592.00,1.59
5591.00,1.59
5590.00,1.59
5589.00,1.59
5588.00,1.59
5587.00,1.59
5586.00,1.59
5585.00,1.59
5584.00,1.59
5583.00,1.59
5582.00,1.59
5581.00,1.59
5580.00,1.59
5579.00,1.60
5578.00,1.60
5577.00,1.60
5576.00,1.60
5575.00,1.60
5574.00,1.60
5573.00,1.60
5572.00,1.60
5571.00,1.60
5570.00,1.60
5569.00,1.60
5568.00,1.60
5567.00,1.60
5566.00,1.60
5565.00,1.60
5564.00,1.60
5563.00,1.60
5562.00,1.61
5561.00,1.61
5560.00,1.61
5559.00,1.61
5558.00,1.61
5557.00,1.61
5556.00,1.61
5555.00,1.60
5554.00,1.60
5553.00,1.60
5552.00,1.60
5551.00,1.60
5550.00,1.60
5549.00,1.60
5548.00,1.60
5547.00,1.60
5546.00,1.60
5545.00,1.60
5544.00,1.60
5543.00,1.60
5542.00,1.60
5541.00,1.61
5540.00,1.61
5539.00,1.61
5538.00,1.61
5537.00,1.61
5536.00,1.61
5535.00,1.61
5534.00,1.61
5533.00,1.61
5532.00,1.61
5531.00,1.61
5530.00,1.61
5529.00,1.61
5528.00,1.61
5527.00,1.62
5526.00,1.62
5525.00,1.62
5524.00,1.62
5523.00,1.62
5522.00,1.62
5521.00,1.62
5520.00,1.62
5519.00,1.62
5518.00,1.62
5517.00,1.62
5516.00,1.61
5515.00,1.61
5514.00,1.61
5513.00,1.61
5512.00,1.61
5511.00,1.61
5510.00,1.60
5509.00,1.60
5508.00,1.60
5507.00,1.60
5506.00,1.60
5505.00,1.60
5504.00,1.59
5503.00,1.59
5502.00,1.59
5501.00,1.59
5500.00,1.59
5499.00,1.59
5498.00,1.59
5497.00,1.58
5496.00,1.58
5495.00,1.58
5494.00,1.58
5493.00,1.58
5492.00,1.58
5491.00,1.58
5490.00,1.58
5489.00,1.58
5488.00,1.58
5487.00,1.58
5486.00,1.58
5485.00,1.58
5484.00,1.58
5483.00,1.58
5482.00,1.59
5481.00,1.59
5480.00,1.59
5479.00,1.59
5478.00,1.59
5477.00,1.59
5476.00,1.59
5475.00,1.59
5474.00,1.59
5473.00,1.59
5472.00,1.59
5471.00,1.59
5470.00,1.59
5469.00,1.59
5468.00,1.59
5467.00,1.59
5466.00,1.59
5465.00,1.59
5464.00,1.59
5463.00,1.59
5462.00,1.59
5461.00,1.59
5460.00,1.59
5459.00,1.59
5458.00,1.58
5457.00,1.58
5456.00,1.58
5455.00,1.58
5454.00,1.58
5453.00,1.58
5452.00,1.58
5451.00,1.58
5450.00,1.57
5449.00,1.57
5448.00,1.57
5447.00,1.57
5446.00,1.57
5445.00,1.57
5444.00,1.57
5443.00,1.57
5442.00,1.57
5441.00,1.57
5440.00,1.57
5439.00,1.57
5438.00,1.57
5437.00,1.57
5436.00,1.57
5435.00,1.57
5434.00,1.58
5433.00,1.58
5432.00,1.58
5431.00,1.58
5430.00,1.58
5429.00,1.58
5428.00,1.59
5427.00,1.59
5426.00,1.59
5425.00,1.59
5424.00,1.59
5423.00,1.60
5422.00,1.60
5421.00,1.60
5420.00,1.60
5419.00,1.60
5418.00,1.60
5417.00,1.60
5416.00,1.60
5415.00,1.60
5414.00,1.60
5413.00,1.60
5412.00,1.60
5411.00,1.60
5410.00,1.60
5409.00,1.60
5408.00,1.60
5407.00,1.60
5406.00,1.60
5405.00,1.60
5404.00,1.60
5403.00,1.60
5402.00,1.60
5401.00,1.60
5400.00,1.60
5399.00,1.60
5398.00,1.60
5397.00,1.60
5396.00,1.60
5395.00,1.60
5394.00,1.60
5393.00,1.60
5392.00,1.60
5391.00,1.60
5390.00,1.60
5389.00,1.60
5388.00,1.60
5387.00,1.60
5386.00,1.60
5385.00,1.60
5384.00,1.60
5383.00,1.60
5382.00,1.59
5381.00,1.59
5380.00,1.59
5379.00,1.59
5378.00,1.59
5377.00,1.59
5376.00,1.58
5375.00,1.58
5374.00,1.58
5373.00,1.58
5372.00,1.57
5371.00,1.57
5370.00,1.57
5369.00,1.56
5368.00,1.56
5367.00,1.56
5366.00,1.55
5365.00,1.55
5364.00,1.55
5363.00,1.54
5362.00,1.54
5361.00,1.53
5360.00,1.53
5359.00,1.53
5358.00,1.52
5357.00,1.52
5356.00,1.51
5355.00,1.51
5354.00,1.50
5353.00,1.50
5352.00,1.50
5351.00,1.49
5350.00,1.49
5349.00,1.49
5348.00,1.48
5347.00,1.48
5346.00,1.48
5345.00,1.47
5344.00,1.47
5343.00,1.47
5342.00,1.46
5341.00,1.46
5340.00,1.46
5339.00,1.46
5338.00,1.45
5337.00,1.45
5336.00,1.45
5335.00,1.45
5334.00,1.44
5333.00,1.44
5332.00,1.44
5331.00,1.44
5330.00,1.43
5329.00,1.43
5328.00,1.43
5327.00,1.43
5326.00,1.42
5325.00,1.42
5324.00,1.42
5323.00,1.41
5322.00,1.41
5321.00,1.40
5320.00,1.40
5319.00,1.40
5318.00,1.39
5317.00,1.39
5316.00,1.38
5315.00,1.38
5314.00,1.37
5313.00,1.37
5312.00,1.36
5311.00,1.36
5310.00,1.35
5309.00,1.35
5308.00,1.34
5307.00,1.34
5306.00,1.33
5305.00,1.33
5304.00,1.32
5303.00,1.31
5302.00,1.31
5301.00,1.30
5300.00,1.30
5299.00,1.29
5298.00,1.29
5297.00,1.28
5296.00,1.28
5295.00,1.27
5294.00,1.27
5293.00,1.26
5292.00,1.26
5291.00,1.25
5290.00,1.25
5289.00,1.25
5288.00,1.24
5287.00,1.24
5286.00,1.23
5285.00,1.23
5284.00,1.23
5283.00,1.22
5282.00,1.22
5281.00,1.21
5280.00,1.21
5279.00,1.21
5278.00,1.20
5277.00,1.20
5276.00,1.19
5275.00,1.19
5274.00,1.19
5273.00,1.18
5272.00,1.18
5271.00,1.17
5270.00,1.17
5269.00,1.16
5268.00,1.16
5267.00,1.15
5266.00,1.15
5265.00,1.14
5264.00,1.14
5263.00,1.13
5262.00,1.13
5261.00,1.13
5260.00,1.12
5259.00,1.12
5258.00,1.11
5257.00,1.11
5256.00,1.10
5255.00,1.10
5254.00,1.09
5253.00,1.09
5252.00,1.08
5251.00,1.08
5250.00,1.08
5249.00,1.07
5248.00,1.07
5247.00,1.07
5246.00,1.06
5245.00,1.06
5244.00,1.06
5243.00,1.06
5242.00,1.05
5241.00,1.05
5240.00,1.05
5239.00,1.05
5238.00,1.05
5237.00,1.05
5236.00,1.04
5235.00,1.04
5234.00,1.04
5233.00,1.04
5232.00,1.04
5231.00,1.04
5230.00,1.04
5229.00,1.04
5228.00,1.04
5227.00,1.04
5226.00,1.04
5225.00,1.03
5224.00,1.03
5223.00,1.03
5222.00,1.03
5221.00,1.03
5220.00,1.03
5219.00,1.03
5218.00,1.03
5217.00,1.03
5216.00,1.03
5215.00,1.03
5214.00,1.03
5213.00,1.03
5212.00,1.03
5211.00,1.03
5210.00,1.02
5209.00,1.02
5208.00,1.02
5207.00,1.02
5206.00,1.02
5205.00,1.02
5204.00,1.02
5203.00,1.02
5202.00,1.02
5201.00,1.02
5200.00,1.02
5199.00,1.02
5198.00,1.02
5197.00,1.02
5196.00,1.03
5195.00,1.03
5194.00,1.03
5193.00,1.03
5192.00,1.03
5191.00,1.03
5190.00,1.03
5189.00,1.03
5188.00,1.03
5187.00,1.03
5186.00,1.03
5185.00,1.03
5184.00,1.03
5183.00,1.03
5182.00,1.03
5181.00,1.03
5180.00,1.03
5179.00,1.04
5178.00,1.04
5177.00,1.04
5176.00,1.04
5175.00,1.04
5174.00,1.04
5173.00,1.04
5172.00,1.04
5171.00,1.04
5170.00,1.04
5169.00,1.04
5168.00,1.04
5167.00,1.04
5166.00,1.04
5165.00,1.04
5164.00,1.04
5163.00,1.04
5162.00,1.04
5161.00,1.05
5160.00,1.05
5159.00,1.05
5158.00,1.05
5157.00,1.05
5156.00,1.05
5155.00,1.06
5154.00,1.06
5153.00,1.06
5152.00,1.06
5151.00,1.06
5150.00,1.06
5149.00,1.07
5148.00,1.07
5147.00,1.07
5146.00,1.07
5145.00,1.07
5144.00,1.07
5143.00,1.07
5142.00,1.08
5141.00,1.08
5140.00,1.08
5139.00,1.08
5138.00,1.08
5137.00,1.08
5136.00,1.08
5135.00,1.08
5134.00,1.08
5133.00,1.08
5132.00,1.08
5131.00,1.08
5130.00,1.08
5129.00,1.08
5128.00,1.08
5127.00,1.08
5126.00,1.08
5125.00,1.08
5124.00,1.08
5123.00,1.08
5122.00,1.08
5121.00,1.08
5120.00,1.08
5119.00,1.08
5118.00,1.08
5117.00,1.08
5116.00,1.08
5115.00,1.08
5114.00,1.09
5113.00,1.09
5112.00,1.09
5111.00,1.09
5110.00,1.09
5109.00,1.09
5108.00,1.10
5107.00,1.10
5106.00,1.10
5105.00,1.10
5104.00,1.10
5103.00,1.10
5102.00,1.10
5101.00,1.11
5100.00,1.11
5099.00,1.11
5098.00,1.11
5097.00,1.11
5096.00,1.11
5095.00,1.12
5094.00,1.12
5093.00,1.12
5092.00,1.12
5091.00,1.12
5090.00,1.13
5089.00,1.13
5088.00,1.13
5087.00,1.13
5086.00,1.13
5085.00,1.13
5084.00,1.13
5083.00,1.13
5082.00,1.13
5081.00,1.14
5080.00,1.14
5079.00,1.14
5078.00,1.14
5077.00,1.14
5076.00,1.14
5075.00,1.15
5074.00,1.15
5073.00,1.15
5072.00,1.15
5071.00,1.15
5070.00,1.16
5069.00,1.16
5068.00,1.16
5067.00,1.16
5066.00,1.16
5065.00,1.17
5064.00,1.17
5063.00,1.17
5062.00,1.17
5061.00,1.17
5060.00,1.18
5059.00,1.18
5058.00,1.18
5057.00,1.18
5056.00,1.18
5055.00,1.19
5054.00,1.19
5053.00,1.19
5052.00,1.19
5051.00,1.19
5050.00,1.19
5049.00,1.20
5048.00,1.20
5047.00,1.20
5046.00,1.20
5045.00,1.20
5044.00,1.20
5043.00,1.21
5042.00,1.21
5041.00,1.21
5040.00,1.21
5039.00,1.21
5038.00,1.21
5037.00,1.21
5036.00,1.21
5035.00,1.22
5034.00,1.22
5033.00,1.22
5032.00,1.22
5031.00,1.22
5030.00,1.23
5029.00,1.23
5028.00,1.23
5027.00,1.23
5026.00,1.23
5025.00,1.24
5024.00,1.24
5023.00,1.24
5022.00,1.24
5021.00,1.24
5020.00,1.25
5019.00,1.25
5018.00,1.25
5017.00,1.25
5016.00,1.26
5015.00,1.26
5014.00,1.26
5013.00,1.26
5012.00,1.26
5011.00,1.27
5010.00,1.27
5009.00,1.27
5008.00,1.27
5007.00,1.27
5006.00,1.28
5005.00,1.28
5004.00,1.28
5003.00,1.28
5002.00,1.28
5001.00,1.28
5000.00,1.28
4999.00,1.28
4998.00,1.28
4997.00,1.29
4996.00,1.29
4995.00,1.29
4994.00,1.29
4993.00,1.29
4992.00,1.29
4991.00,1.29
4990.00,1.29
4989.00,1.29
4988.00,1.30
4987.00,1.30
4986.00,1.30
4985.00,1.30
4984.00,1.30
4983.00,1.30
4982.00,1.30
4981.00,1.31
4980.00,1.31
4979.00,1.31
4978.00,1.31
4977.00,1.32
4976.00,1.32
4975.00,1.32
4974.00,1.32
4973.00,1.32
4972.00,1.33
4971.00,1.33
4970.00,1.33
4969.00,1.33
4968.00,1.33
4967.00,1.34
4966.00,1.34
4965.00,1.34
4964.00,1.34
4963.00,1.34
4962.00,1.35
4961.00,1.35
4960.00,1.35
4959.00,1.35
4958.00,1.35
4957.00,1.35
4956.00,1.35
4955.00,1.35
4954.00,1.35
4953.00,1.35
4952.00,1.35
4951.00,1.35
4950.00,1.35
4949.00,1.35
4948.00,1.35
4947.00,1.35
4946.00,1.35
4945.00,1.35
4944.00,1.35
4943.00,1.35
4942.00,1.35
4941.00,1.35
4940.00,1.35
4939.00,1.35
4938.00,1.35
4937.00,1.35
4936.00,1.35
4935.00,1.35
4934.00,1.36
4933.00,1.36
4932.00,1.36
4931.00,1.36
4930.00,1.36
4929.00,1.36
4928.00,1.36
4927.00,1.36
4926.00,1.36
4925.00,1.36
4924.00,1.37
4923.00,1.37
4922.00,1.37
4921.00,1.37
4920.00,1.37
4919.00,1.37
4918.00,1.37
4917.00,1.37
4916.00,1.37
4915.00,1.37
4914.00,1.37
4913.00,1.37
4912.00,1.37
4911.00,1.37
4910.00,1.37
4909.00,1.37
4908.00,1.37
4907.00,1.37
4906.00,1.37
4905.00,1.37
4904.00,1.38
4903.00,1.38
4902.00,1.38
4901.00,1.38
4900.00,1.38
4899.00,1.38
4898.00,1.38
4897.00,1.38
4896.00,1.39
4895.00,1.39
4894.00,1.39
4893.00,1.39
4892.00,1.39
4891.00,1.39
4890.00,1.40
4889.00,1.40
4888.00,1.40
4887.00,1.40
4886.00,1.40
4885.00,1.40
4884.00,1.41
4883.00,1.41
4882.00,1.41
4881.00,1.41
4880.00,1.41
4879.00,1.42
4878.00,1.42
4877.00,1.42
4876.00,1.42
4875.00,1.42
4874.00,1.43
4873.00,1.43
4872.00,1.43
4871.00,1.43
4870.00,1.43
4869.00,1.43
4868.00,1.44
4867.00,1.44
4866.00,1.44
4865.00,1.44
4864.00,1.44
4863.00,1.44
4862.00,1.44
4861.00,1.45
4860.00,1.45
4859.00,1.45
4858.00,1.45
4857.00,1.45
4856.00,1.45
4855.00,1.45
4854.00,1.45
4853.00,1.45
4852.00,1.45
4851.00,1.45
4850.00,1.45
4849.00,1.45
4848.00,1.45
4847.00,1.45
4846.00,1.45
4845.00,1.44
4844.00,1.44
4843.00,1.44
4842.00,1.44
4841.00,1.44
4840.00,1.44
4839.00,1.44
4838.00,1.44
4837.00,1.44
4836.00,1.44
4835.00,1.44
4834.00,1.44
4833.00,1.44
4832.00,1.44
4831.00,1.44
4830.00,1.44
4829.00,1.44
4828.00,1.44
4827.00,1.44
4826.00,1.44
4825.00,1.44
4824.00,1.44
4823.00,1.44
4822.00,1.44
4821.00,1.44
4820.00,1.45
4819.00,1.45
4818.00,1.45
4817.00,1.45
4816.00,1.45
4815.00,1.45
4814.00,1.45
4813.00,1.45
4812.00,1.45
4811.00,1.46
4810.00,1.46
4809.00,1.46
4808.00,1.46
4807.00,1.46
4806.00,1.46
4805.00,1.46
4804.00,1.46
4803.00,1.46
4802.00,1.46
4801.00,1.46
4800.00,1.46
4799.00,1.46
4798.00,1.46
4797.00,1.46
4796.00,1.46
4795.00,1.46
4794.00,1.46
4793.00,1.46
4792.00,1.46
4791.00,1.46
4790.00,1.46
4789.00,1.46
4788.00,1.46
4787.00,1.46
4786.00,1.46
4785.00,1.46
4784.00,1.46
4783.00,1.46
4782.00,1.46
4781.00,1.46
4780.00,1.46
4779.00,1.47
4778.00,1.47
4777.00,1.47
4776.00,1.47
4775.00,1.47
4774.00,1.47
4773.00,1.47
4772.00,1.47
4771.00,1.47
4770.00,1.47
4769.00,1.48
4768.00,1.48
4767.00,1.48
4766.00,1.48
4765.00,1.48
4764.00,1.49
4763.00,1.49
4762.00,1.49
4761.00,1.49
4760.00,1.49
4759.00,1.49
4758.00,1.50
4757.00,1.50
4756.00,1.50
4755.00,1.50
4754.00,1.50
4753.00,1.50
4752.00,1.51
4751.00,1.51
4750.00,1.51
4749.00,1.51
4748.00,1.51
4747.00,1.51
4746.00,1.51
4745.00,1.51
4744.00,1.52
4743.00,1.52
4742.00,1.52
4741.00,1.52
4740.00,1.52
4739.00,1.52
4738.00,1.52
4737.00,1.52
4736.00,1.52
4735.00,1.52
4734.00,1.53
4733.00,1.53
4732.00,1.53
4731.00,1.53
4730.00,1.53
4729.00,1.53
4728.00,1.53
4727.00,1.53
4726.00,1.53
4725.00,1.53
4724.00,1.53
4723.00,1.53
4722.00,1.53
4721.00,1.53
4720.00,1.53
4719.00,1.53
4718.00,1.54
4717.00,1.54
4716.00,1.54
4715.00,1.54
4714.00,1.54
4713.00,1.54
4712.00,1.54
4711.00,1.54
4710.00,1.54
4709.00,1.54
4708.00,1.54
4707.00,1.54
4706.00,1.54
4705.00,1.54
4704.00,1.54
4703.00,1.54
4702.00,1.54
4701.00,1.54
4700.00,1.54
4699.00,1.54
4698.00,1.54
4697.00,1.54
4696.00,1.54
4695.00,1.54
4694.00,1.54
4693.00,1.55
4692.00,1.55
4691.00,1.55
4690.00,1.55
4689.00,1.55
4688.00,1.55
4687.00,1.55
4686.00,1.54
4685.00,1.54
4684.00,1.54
4683.00,1.54
4682.00,1.54
4681.00,1.54
4680.00,1.54
4679.00,1.54
4678.00,1.54
4677.00,1.54
4676.00,1.54
4675.00,1.54
4674.00,1.54
4673.00,1.54
4672.00,1.54
4671.00,1.53
4670.00,1.53
4669.00,1.53
4668.00,1.53
4667.00,1.53
4666.00,1.53
4665.00,1.53
4664.00,1.52
4663.00,1.52
4662.00,1.52
4661.00,1.52
4660.00,1.52
4659.00,1.52
4658.00,1.52
4657.00,1.52
4656.00,1.52
4655.00,1.52
4654.00,1.52
4653.00,1.52
4652.00,1.52
4651.00,1.52
4650.00,1.52
4649.00,1.52
4648.00,1.52
4647.00,1.52
4646.00,1.53
4645.00,1.53
4644.00,1.53
4643.00,1.53
4642.00,1.53
4641.00,1.53
4640.00,1.53
4639.00,1.53
4638.00,1.54
4637.00,1.54
4636.00,1.54
4635.00,1.54
4634.00,1.54
4633.00,1.55
4632.00,1.55
4631.00,1.55
4630.00,1.55
4629.00,1.55
4628.00,1.56
4627.00,1.56
4626.00,1.56
4625.00,1.56
4624.00,1.57
4623.00,1.57
4622.00,1.57
4621.00,1.57
4620.00,1.58
4619.00,1.58
4618.00,1.58
4617.00,1.58
4616.00,1.58
4615.00,1.59
4614.00,1.59
4613.00,1.59
4612.00,1.59
4611.00,1.59
4610.00,1.59
4609.00,1.59
4608.00,1.59
4607.00,1.59
4606.00,1.59
4605.00,1.58
4604.00,1.58
4603.00,1.58
4602.00,1.58
4601.00,1.58
4600.00,1.58
4599.00,1.58
4598.00,1.58
4597.00,1.57
4596.00,1.57
4595.00,1.57
4594.00,1.57
4593.00,1.57
4592.00,1.56
4591.00,1.56
4590.00,1.56
4589.00,1.56
4588.00,1.56
4587.00,1.56
4586.00,1.56
4585.00,1.56
4584.00,1.56
4583.00,1.56
4582.00,1.56
4581.00,1.56
4580.00,1.56
4579.00,1.56
4578.00,1.57
4577.00,1.57
4576.00,1.57
4575.00,1.57
4574.00,1.57
4573.00,1.57
4572.00,1.57
4571.00,1.57
4570.00,1.58
4569.00,1.58
4568.00,1.58
4567.00,1.58
4566.00,1.58
4565.00,1.58
4564.00,1.58
4563.00,1.59
4562.00,1.59
4561.00,1.59
4560.00,1.59
4559.00,1.59
4558.00,1.59
4557.00,1.59
4556.00,1.59
4555.00,1.59
4554.00,1.60
4553.00,1.60
4552.00,1.60
4551.00,1.60
4550.00,1.60
4549.00,1.60
4548.00,1.60
4547.00,1.60
4546.00,1.60
4545.00,1.60
4544.00,1.60
4543.00,1.60
4542.00,1.60
4541.00,1.60
4540.00,1.60
4539.00,1.60
4538.00,1.60
4537.00,1.60
4536.00,1.60
4535.00,1.60
4534.00,1.60
4533.00,1.60
4532.00,1.60
4531.00,1.60
4530.00,1.60
4529.00,1.60
4528.00,1.60
4527.00,1.60
4526.00,1.59
4525.00,1.59
4524.00,1.59
4523.00,1.59
4522.00,1.59
4521.00,1.58
4520.00,1.58
4519.00,1.58
4518.00,1.58
4517.00,1.58
4516.00,1.58
4515.00,1.58
4514.00,1.58
4513.00,1.58
4512.00,1.58
4511.00,1.58
4510.00,1.58
4509.00,1.58
4508.00,1.58
4507.00,1.58
4506.00,1.58
4505.00,1.58
4504.00,1.58
4503.00,1.59
4502.00,1.59
4501.00,1.59
4500.00,1.59
4499.00,1.59
4498.00,1.59
4497.00,1.59
4496.00,1.60
4495.00,1.60
4494.00,1.60
4493.00,1.60
4492.00,1.60
4491.00,1.61
4490.00,1.61
4489.00,1.61
4488.00,1.61
4487.00,1.61
4486.00,1.61
4485.00,1.61
4484.00,1.61
4483.00,1.61
4482.00,1.61
4481.00,1.61
4480.00,1.61
4479.00,1.61
4478.00,1.61
4477.00,1.61
4476.00,1.61
4475.00,1.61
4474.00,1.61
4473.00,1.61
4472.00,1.61
4471.00,1.61
4470.00,1.61
4469.00,1.60
4468.00,1.60
4467.00,1.60
4466.00,1.60
4465.00,1.60
4464.00,1.60
4463.00,1.59
4462.00,1.59
4461.00,1.59
4460.00,1.59
4459.00,1.59
4458.00,1.59
4457.00,1.59
4456.00,1.59
4455.00,1.58
4454.00,1.58
4453.00,1.58
4452.00,1.58
4451.00,1.58
4450.00,1.58
4449.00,1.58
4448.00,1.57
4447.00,1.57
4446.00,1.57
4445.00,1.57
4444.00,1.57
4443.00,1.56
4442.00,1.56
4441.00,1.56
4440.00,1.56
4439.00,1.56
4438.00,1.55
4437.00,1.55
4436.00,1.55
4435.00,1.55
4434.00,1.54
4433.00,1.54
4432.00,1.54
4431.00,1.54
4430.00,1.53
4429.00,1.53
4428.00,1.53
4427.00,1.52
4426.00,1.52
4425.00,1.52
4424.00,1.52
4423.00,1.52
4422.00,1.51
4421.00,1.51
4420.00,1.51
4419.00,1.51
4418.00,1.50
4417.00,1.50
4416.00,1.50
4415.00,1.50
4414.00,1.50
4413.00,1.50
4412.00,1.50
4411.00,1.49
4410.00,1.49
4409.00,1.49
4408.00,1.49
4407.00,1.49
4406.00,1.49
4405.00,1.49
4404.00,1.50
4403.00,1.50
4402.00,1.50
4401.00,1.50
4400.00,1.50
4399.00,1.50
4398.00,1.50
4397.00,1.51
4396.00,1.51
4395.00,1.51
4394.00,1.51
4393.00,1.52
4392.00,1.52
4391.00,1.52
4390.00,1.52
4389.00,1.53
4388.00,1.53
4387.00,1.53
4386.00,1.53
4385.00,1.54
4384.00,1.54
4383.00,1.54
4382.00,1.54
4381.00,1.55
4380.00,1.55
4379.00,1.55
4378.00,1.55
4377.00,1.55
4376.00,1.55
4375.00,1.55
4374.00,1.55
4373.00,1.55
4372.00,1.55
4371.00,1.55
4370.00,1.55
4369.00,1.55
4368.00,1.55
4367.00,1.55
4366.00,1.55
4365.00,1.55
4364.00,1.55
4363.00,1.55
4362.00,1.55
4361.00,1.54
4360.00,1.54
4359.00,1.54
4358.00,1.54
4357.00,1.54
4356.00,1.54
4355.00,1.54
4354.00,1.54
4353.00,1.54
4352.00,1.53
4351.00,1.53
4350.00,1.53
4349.00,1.53
4348.00,1.53
4347.00,1.53
4346.00,1.53
4345.00,1.53
4344.00,1.53
4343.00,1.53
4342.00,1.53
4341.00,1.53
4340.00,1.53
4339.00,1.54
4338.00,1.54
4337.00,1.54
4336.00,1.54
4335.00,1.54
4334.00,1.54
4333.00,1.54
4332.00,1.54
4331.00,1.54
4330.00,1.55
4329.00,1.55
4328.00,1.55
4327.00,1.55
4326.00,1.55
4325.00,1.55
4324.00,1.55
4323.00,1.55
4322.00,1.55
4321.00,1.55
4320.00,1.56
4319.00,1.56
4318.00,1.56
4317.00,1.56
4316.00,1.56
4315.00,1.56
4314.00,1.56
4313.00,1.56
4312.00,1.56
4311.00,1.56
4310.00,1.56
4309.00,1.56
4308.00,1.56
4307.00,1.56
4306.00,1.56
4305.00,1.56
4304.00,1.56
4303.00,1.56
4302.00,1.56
4301.00,1.56
4300.00,1.56
4299.00,1.56
4298.00,1.56
4297.00,1.57
4296.00,1.57
4295.00,1.57
4294.00,1.57
4293.00,1.57
4292.00,1.57
4291.00,1.57
4290.00,1.57
4289.00,1.57
4288.00,1.57
4287.00,1.57
4286.00,1.57
4285.00,1.57
4284.00,1.57
4283.00,1.57
4282.00,1.57
4281.00,1.57
4280.00,1.57
4279.00,1.56
4278.00,1.56
4277.00,1.56
4276.00,1.56
4275.00,1.56
4274.00,1.56
4273.00,1.56
4272.00,1.55
4271.00,1.55
4270.00,1.55
4269.00,1.55
4268.00,1.55
4267.00,1.55
4266.00,1.54
4265.00,1.54
4264.00,1.54
4263.00,1.54
4262.00,1.54
4261.00,1.54
4260.00,1.54
4259.00,1.54
4258.00,1.54
4257.00,1.54
4256.00,1.54
4255.00,1.54
4254.00,1.54
4253.00,1.54
4252.00,1.54
4251.00,1.54
4250.00,1.54
4249.00,1.54
4248.00,1.55
4247.00,1.55
4246.00,1.55
4245.00,1.55
4244.00,1.56
4243.00,1.56
4242.00,1.56
4241.00,1.57
4240.00,1.57
4239.00,1.57
4238.00,1.57
4237.00,1.58
4236.00,1.58
4235.00,1.58
4234.00,1.58
4233.00,1.59
4232.00,1.59
4231.00,1.59
4230.00,1.59
4229.00,1.59
4228.00,1.59
4227.00,1.59
4226.00,1.59
4225.00,1.60
4224.00,1.60
4223.00,1.60
4222.00,1.60
4221.00,1.60
4220.00,1.60
4219.00,1.60
4218.00,1.60
4217.00,1.59
4216.00,1.59
4215.00,1.59
4214.00,1.59
4213.00,1.59
4212.00,1.59
4211.00,1.59
4210.00,1.59
4209.00,1.58
4208.00,1.58
4207.00,1.58
4206.00,1.58
4205.00,1.58
4204.00,1.58
4203.00,1.57
4202.00,1.57
4201.00,1.57
4200.00,1.57
4199.00,1.57
4198.00,1.57
4197.00,1.57
4196.00,1.57
4195.00,1.57
4194.00,1.56
4193.00,1.56
4192.00,1.56
4191.00,1.56
4190.00,1.56
4189.00,1.56
4188.00,1.56
4187.00,1.56
4186.00,1.56
4185.00,1.56
4184.00,1.56
4183.00,1.57
4182.00,1.57
4181.00,1.57
4180.00,1.57
4179.00,1.57
4178.00,1.58
4177.00,1.58
4176.00,1.58
4175.00,1.58
4174.00,1.58
4173.00,1.58
4172.00,1.58
4171.00,1.58
4170.00,1.58
4169.00,1.58
4168.00,1.58
4167.00,1.57
4166.00,1.57
4165.00,1.57
4164.00,1.57
4163.00,1.57
4162.00,1.57
4161.00,1.57
4160.00,1.57
4159.00,1.57
4158.00,1.57
4157.00,1.57
4156.00,1.57
4155.00,1.56
4154.00,1.56
4153.00,1.56
4152.00,1.56
4151.00,1.56
4150.00,1.56
4149.00,1.55
4148.00,1.55
4147.00,1.55
4146.00,1.55
4145.00,1.55
4144.00,1.55
4143.00,1.55
4142.00,1.55
4141.00,1.55
4140.00,1.55
4139.00,1.55
4138.00,1.55
4137.00,1.55
4136.00,1.55
4135.00,1.54
4134.00,1.54
4133.00,1.54
4132.00,1.54
4131.00,1.54
4130.00,1.54
4129.00,1.54
4128.00,1.54
4127.00,1.54
4126.00,1.54
4125.00,1.54
4124.00,1.54
4123.00,1.54
4122.00,1.54
4121.00,1.53
4120.00,1.53
4119.00,1.53
4118.00,1.53
4117.00,1.53
4116.00,1.54
4115.00,1.54
4114.00,1.54
4113.00,1.54
4112.00,1.54
4111.00,1.54
4110.00,1.54
4109.00,1.54
4108.00,1.55
4107.00,1.55
4106.00,1.55
4105.00,1.55
4104.00,1.55
4103.00,1.55
4102.00,1.56
4101.00,1.56
4100.00,1.56
4099.00,1.56
4098.00,1.56
4097.00,1.56
4096.00,1.57
4095.00,1.57
4094.00,1.57
4093.00,1.57
4092.00,1.57
4091.00,1.57
4090.00,1.57
4089.00,1.57
4088.00,1.57
4087.00,1.56
4086.00,1.56
4085.00,1.56
4084.00,1.56
4083.00,1.56
4082.00,1.55
4081.00,1.55
4080.00,1.55
4079.00,1.54
4078.00,1.54
4077.00,1.54
4076.00,1.54
4075.00,1.53
4074.00,1.53
4073.00,1.53
4072.00,1.53
4071.00,1.53
4070.00,1.52
4069.00,1.52
4068.00,1.52
4067.00,1.52
4066.00,1.52
4065.00,1.52
4064.00,1.52
4063.00,1.52
4062.00,1.52
4061.00,1.52
4060.00,1.52
4059.00,1.52
4058.00,1.52
4057.00,1.52
4056.00,1.52
4055.00,1.53
4054.00,1.53
4053.00,1.53
4052.00,1.53
4051.00,1.53
4050.00,1.53
4049.00,1.54
4048.00,1.54
4047.00,1.54
4046.00,1.54
4045.00,1.54
4044.00,1.54
4043.00,1.54
4042.00,1.55
4041.00,1.55
4040.00,1.55
4039.00,1.55
4038.00,1.55
4037.00,1.56
4036.00,1.56
4035.00,1.56
4034.00,1.56
4033.00,1.56
4032.00,1.56
4031.00,1.57
4030.00,1.57
4029.00,1.57
4028.00,1.57
4027.00,1.58
4026.00,1.58
4025.00,1.58
4024.00,1.58
4023.00,1.59
4022.00,1.59
4021.00,1.59
4020.00,1.59
4019.00,1.59
4018.00,1.59
4017.00,1.59
4016.00,1.59
4015.00,1.59
4014.00,1.59
4013.00,1.59
4012.00,1.59
4011.00,1.60
4010.00,1.60
4009.00,1.60
4008.00,1.60
4007.00,1.60
4006.00,1.61
4005.00,1.61
4004.00,1.61
4003.00,1.61
4002.00,1.61
4001.00,1.61
4000.00,1.60
