创建为新数据集,样品 789 用户 Administrator 日期 星期一, 七月 29 2019
cm-1,%T
10000.00,1.43
9999.00,1.45
9998.00,1.47
9997.00,1.49
9996.00,1.51
9995.00,1.53
9994.00,1.54
9993.00,1.56
9992.00,1.58
9991.00,1.59
9990.00,1.61
9989.00,1.62
9988.00,1.64
9987.00,1.65
9986.00,1.66
9985.00,1.67
9984.00,1.68
9983.00,1.69
9982.00,1.69
9981.00,1.70
9980.00,1.70
9979.00,1.70
9978.00,1.70
9977.00,1.70
9976.00,1.70
9975.00,1.70
9974.00,1.70
9973.00,1.70
9972.00,1.70
9971.00,1.71
9970.00,1.70
9969.00,1.70
9968.00,1.70
9967.00,1.70
9966.00,1.70
9965.00,1.70
9964.00,1.69
9963.00,1.69
9962.00,1.68
9961.00,1.68
9960.00,1.67
9959.00,1.66
9958.00,1.66
9957.00,1.65
9956.00,1.65
9955.00,1.64
9954.00,1.64
9953.00,1.63
9952.00,1.62
9951.00,1.62
9950.00,1.61
9949.00,1.61
9948.00,1.60
9947.00,1.59
9946.00,1.58
9945.00,1.58
9944.00,1.57
9943.00,1.56
9942.00,1.55
9941.00,1.54
9940.00,1.53
9939.00,1.53
9938.00,1.52
9937.00,1.51
9936.00,1.51
9935.00,1.50
9934.00,1.50
9933.00,1.49
9932.00,1.49
9931.00,1.49
9930.00,1.48
9929.00,1.48
9928.00,1.47
9927.00,1.47
9926.00,1.47
9925.00,1.46
9924.00,1.46
9923.00,1.46
9922.00,1.46
9921.00,1.46
9920.00,1.46
9919.00,1.46
9918.00,1.47
9917.00,1.47
9916.00,1.47
9915.00,1.47
9914.00,1.47
9913.00,1.48
9912.00,1.48
9911.00,1.48
9910.00,1.48
9909.00,1.48
9908.00,1.48
9907.00,1.48
9906.00,1.48
9905.00,1.48
9904.00,1.47
9903.00,1.47
9902.00,1.47
9901.00,1.47
9900.00,1.46
9899.00,1.46
9898.00,1.46
9897.00,1.45
9896.00,1.45
9895.00,1.44
9894.00,1.44
9893.00,1.43
9892.00,1.43
9891.00,1.42
9890.00,1.42
9889.00,1.41
9888.00,1.41
9887.00,1.40
9886.00,1.40
9885.00,1.40
9884.00,1.39
9883.00,1.39
9882.00,1.39
9881.00,1.39
9880.00,1.39
9879.00,1.39
9878.00,1.39
9877.00,1.39
9876.00,1.40
9875.00,1.40
9874.00,1.41
9873.00,1.41
9872.00,1.42
9871.00,1.42
9870.00,1.43
9869.00,1.44
9868.00,1.45
9867.00,1.46
9866.00,1.46
9865.00,1.47
9864.00,1.48
9863.00,1.49
9862.00,1.50
9861.00,1.51
9860.00,1.52
9859.00,1.52
9858.00,1.53
9857.00,1.53
9856.00,1.54
9855.00,1.54
9854.00,1.54
9853.00,1.55
9852.00,1.55
9851.00,1.55
9850.00,1.55
9849.00,1.55
9848.00,1.56
9847.00,1.55
9846.00,1.55
9845.00,1.55
9844.00,1.55
9843.00,1.54
9842.00,1.54
9841.00,1.53
9840.00,1.52
9839.00,1.51
9838.00,1.51
9837.00,1.50
9836.00,1.49
9835.00,1.48
9834.00,1.47
9833.00,1.47
9832.00,1.47
9831.00,1.46
9830.00,1.46
9829.00,1.46
9828.00,1.46
9827.00,1.46
9826.00,1.46
9825.00,1.47
9824.00,1.47
9823.00,1.47
9822.00,1.48
9821.00,1.48
9820.00,1.49
9819.00,1.49
9818.00,1.50
9817.00,1.51
9816.00,1.52
9815.00,1.53
9814.00,1.54
9813.00,1.55
9812.00,1.56
9811.00,1.57
9810.00,1.57
9809.00,1.58
9808.00,1.59
9807.00,1.60
9806.00,1.60
9805.00,1.61
9804.00,1.61
9803.00,1.62
9802.00,1.62
9801.00,1.62
9800.00,1.63
9799.00,1.63
9798.00,1.63
9797.00,1.63
9796.00,1.63
9795.00,1.63
9794.00,1.62
9793.00,1.62
9792.00,1.62
9791.00,1.61
9790.00,1.60
9789.00,1.60
9788.00,1.59
9787.00,1.58
9786.00,1.58
9785.00,1.57
9784.00,1.56
9783.00,1.55
9782.00,1.55
9781.00,1.54
9780.00,1.53
9779.00,1.53
9778.00,1.52
9777.00,1.52
9776.00,1.52
9775.00,1.51
9774.00,1.51
9773.00,1.50
9772.00,1.50
9771.00,1.50
9770.00,1.50
9769.00,1.50
9768.00,1.50
9767.00,1.50
9766.00,1.50
9765.00,1.50
9764.00,1.50
9763.00,1.51
9762.00,1.51
9761.00,1.52
9760.00,1.52
9759.00,1.53
9758.00,1.54
9757.00,1.54
9756.00,1.55
9755.00,1.56
9754.00,1.56
9753.00,1.56
9752.00,1.57
9751.00,1.57
9750.00,1.57
9749.00,1.57
9748.00,1.57
9747.00,1.57
9746.00,1.57
9745.00,1.57
9744.00,1.56
9743.00,1.56
9742.00,1.56
9741.00,1.55
9740.00,1.55
9739.00,1.55
9738.00,1.54
9737.00,1.54
9736.00,1.53
9735.00,1.53
9734.00,1.52
9733.00,1.52
9732.00,1.51
9731.00,1.50
9730.00,1.50
9729.00,1.49
9728.00,1.49
9727.00,1.48
9726.00,1.48
9725.00,1.48
9724.00,1.48
9723.00,1.48
9722.00,1.48
9721.00,1.48
9720.00,1.48
9719.00,1.48
9718.00,1.48
9717.00,1.48
9716.00,1.48
9715.00,1.48
9714.00,1.48
9713.00,1.48
9712.00,1.48
9711.00,1.48
9710.00,1.47
9709.00,1.47
9708.00,1.47
9707.00,1.47
9706.00,1.47
9705.00,1.46
9704.00,1.46
9703.00,1.46
9702.00,1.46
9701.00,1.45
9700.00,1.45
9699.00,1.45
9698.00,1.44
9697.00,1.44
9696.00,1.44
9695.00,1.43
9694.00,1.43
9693.00,1.42
9692.00,1.42
9691.00,1.41
9690.00,1.40
9689.00,1.40
9688.00,1.39
9687.00,1.39
9686.00,1.38
9685.00,1.38
9684.00,1.38
9683.00,1.37
9682.00,1.37
9681.00,1.36
9680.00,1.36
9679.00,1.36
9678.00,1.36
9677.00,1.35
9676.00,1.35
9675.00,1.35
9674.00,1.35
9673.00,1.35
9672.00,1.36
9671.00,1.36
9670.00,1.36
9669.00,1.37
9668.00,1.37
9667.00,1.38
9666.00,1.38
9665.00,1.39
9664.00,1.40
9663.00,1.40
9662.00,1.41
9661.00,1.42
9660.00,1.42
9659.00,1.43
9658.00,1.43
9657.00,1.44
9656.00,1.44
9655.00,1.45
9654.00,1.45
9653.00,1.46
9652.00,1.46
9651.00,1.47
9650.00,1.47
9649.00,1.47
9648.00,1.48
9647.00,1.48
9646.00,1.48
9645.00,1.48
9644.00,1.48
9643.00,1.48
9642.00,1.48
9641.00,1.48
9640.00,1.48
9639.00,1.48
9638.00,1.48
9637.00,1.48
9636.00,1.48
9635.00,1.48
9634.00,1.48
9633.00,1.48
9632.00,1.48
9631.00,1.49
9630.00,1.49
9629.00,1.49
9628.00,1.49
9627.00,1.50
9626.00,1.50
9625.00,1.50
9624.00,1.50
9623.00,1.51
9622.00,1.51
9621.00,1.51
9620.00,1.51
9619.00,1.51
9618.00,1.52
9617.00,1.52
9616.00,1.52
9615.00,1.52
9614.00,1.52
9613.00,1.51
9612.00,1.51
9611.00,1.51
9610.00,1.50
9609.00,1.50
9608.00,1.49
9607.00,1.49
9606.00,1.48
9605.00,1.47
9604.00,1.47
9603.00,1.46
9602.00,1.45
9601.00,1.45
9600.00,1.44
9599.00,1.43
9598.00,1.42
9597.00,1.42
9596.00,1.41
9595.00,1.40
9594.00,1.39
9593.00,1.37
9592.00,1.36
9591.00,1.35
9590.00,1.34
9589.00,1.33
9588.00,1.32
9587.00,1.32
9586.00,1.31
9585.00,1.31
9584.00,1.30
9583.00,1.30
9582.00,1.30
9581.00,1.30
9580.00,1.30
9579.00,1.30
9578.00,1.29
9577.00,1.29
9576.00,1.30
9575.00,1.30
9574.00,1.30
9573.00,1.30
9572.00,1.30
9571.00,1.31
9570.00,1.31
9569.00,1.32
9568.00,1.33
9567.00,1.34
9566.00,1.34
9565.00,1.36
9564.00,1.37
9563.00,1.38
9562.00,1.39
9561.00,1.40
9560.00,1.41
9559.00,1.42
9558.00,1.43
9557.00,1.44
9556.00,1.45
9555.00,1.45
9554.00,1.46
9553.00,1.46
9552.00,1.47
9551.00,1.47
9550.00,1.47
9549.00,1.48
9548.00,1.48
9547.00,1.48
9546.00,1.49
9545.00,1.49
9544.00,1.49
9543.00,1.49
9542.00,1.49
9541.00,1.49
9540.00,1.48
9539.00,1.48
9538.00,1.48
9537.00,1.47
9536.00,1.47
9535.00,1.46
9534.00,1.45
9533.00,1.45
9532.00,1.44
9531.00,1.44
9530.00,1.43
9529.00,1.43
9528.00,1.42
9527.00,1.42
9526.00,1.42
9525.00,1.41
9524.00,1.41
9523.00,1.41
9522.00,1.41
9521.00,1.41
9520.00,1.41
9519.00,1.40
9518.00,1.40
9517.00,1.40
9516.00,1.40
9515.00,1.41
9514.00,1.41
9513.00,1.41
9512.00,1.41
9511.00,1.41
9510.00,1.41
9509.00,1.42
9508.00,1.42
9507.00,1.43
9506.00,1.43
9505.00,1.43
9504.00,1.44
9503.00,1.44
9502.00,1.45
9501.00,1.45
9500.00,1.46
9499.00,1.46
9498.00,1.47
9497.00,1.47
9496.00,1.47
9495.00,1.48
9494.00,1.48
9493.00,1.48
9492.00,1.49
9491.00,1.49
9490.00,1.49
9489.00,1.50
9488.00,1.50
9487.00,1.50
9486.00,1.50
9485.00,1.50
9484.00,1.51
9483.00,1.51
9482.00,1.51
9481.00,1.51
9480.00,1.52
9479.00,1.52
9478.00,1.52
9477.00,1.53
9476.00,1.53
9475.00,1.53
9474.00,1.53
9473.00,1.54
9472.00,1.54
9471.00,1.54
9470.00,1.54
9469.00,1.55
9468.00,1.55
9467.00,1.55
9466.00,1.55
9465.00,1.55
9464.00,1.56
9463.00,1.56
9462.00,1.56
9461.00,1.56
9460.00,1.56
9459.00,1.56
9458.00,1.56
9457.00,1.56
9456.00,1.55
9455.00,1.55
9454.00,1.55
9453.00,1.54
9452.00,1.53
9451.00,1.53
9450.00,1.52
9449.00,1.52
9448.00,1.51
9447.00,1.50
9446.00,1.50
9445.00,1.49
9444.00,1.48
9443.00,1.47
9442.00,1.47
9441.00,1.46
9440.00,1.45
9439.00,1.44
9438.00,1.44
9437.00,1.43
9436.00,1.43
9435.00,1.42
9434.00,1.42
9433.00,1.41
9432.00,1.41
9431.00,1.41
9430.00,1.41
9429.00,1.41
9428.00,1.41
9427.00,1.41
9426.00,1.41
9425.00,1.42
9424.00,1.42
9423.00,1.42
9422.00,1.42
9421.00,1.42
9420.00,1.42
9419.00,1.42
9418.00,1.43
9417.00,1.43
9416.00,1.43
9415.00,1.43
9414.00,1.43
9413.00,1.43
9412.00,1.44
9411.00,1.44
9410.00,1.44
9409.00,1.44
9408.00,1.44
9407.00,1.44
9406.00,1.44
9405.00,1.44
9404.00,1.44
9403.00,1.44
9402.00,1.44
9401.00,1.44
9400.00,1.43
9399.00,1.43
9398.00,1.43
9397.00,1.43
9396.00,1.43
9395.00,1.43
9394.00,1.43
9393.00,1.43
9392.00,1.43
9391.00,1.43
9390.00,1.44
9389.00,1.44
9388.00,1.44
9387.00,1.44
9386.00,1.44
9385.00,1.44
9384.00,1.44
9383.00,1.45
9382.00,1.45
9381.00,1.45
9380.00,1.46
9379.00,1.46
9378.00,1.46
9377.00,1.47
9376.00,1.47
9375.00,1.48
9374.00,1.48
9373.00,1.49
9372.00,1.49
9371.00,1.50
9370.00,1.50
9369.00,1.50
9368.00,1.50
9367.00,1.51
9366.00,1.51
9365.00,1.51
9364.00,1.51
9363.00,1.51
9362.00,1.51
9361.00,1.52
9360.00,1.52
9359.00,1.52
9358.00,1.52
9357.00,1.52
9356.00,1.52
9355.00,1.51
9354.00,1.51
9353.00,1.51
9352.00,1.51
9351.00,1.50
9350.00,1.50
9349.00,1.49
9348.00,1.49
9347.00,1.49
9346.00,1.49
9345.00,1.48
9344.00,1.48
9343.00,1.48
9342.00,1.48
9341.00,1.48
9340.00,1.49
9339.00,1.49
9338.00,1.49
9337.00,1.49
9336.00,1.49
9335.00,1.49
9334.00,1.50
9333.00,1.50
9332.00,1.51
9331.00,1.51
9330.00,1.52
9329.00,1.52
9328.00,1.53
9327.00,1.54
9326.00,1.54
9325.00,1.55
9324.00,1.56
9323.00,1.57
9322.00,1.57
9321.00,1.58
9320.00,1.58
9319.00,1.59
9318.00,1.59
9317.00,1.60
9316.00,1.60
9315.00,1.60
9314.00,1.60
9313.00,1.60
9312.00,1.60
9311.00,1.60
9310.00,1.60
9309.00,1.60
9308.00,1.60
9307.00,1.60
9306.00,1.59
9305.00,1.59
9304.00,1.59
9303.00,1.58
9302.00,1.58
9301.00,1.57
9300.00,1.56
9299.00,1.55
9298.00,1.55
9297.00,1.54
9296.00,1.53
9295.00,1.53
9294.00,1.52
9293.00,1.52
9292.00,1.51
9291.00,1.51
9290.00,1.50
9289.00,1.50
9288.00,1.50
9287.00,1.49
9286.00,1.49
9285.00,1.49
9284.00,1.49
9283.00,1.49
9282.00,1.49
9281.00,1.49
9280.00,1.49
9279.00,1.49
9278.00,1.49
9277.00,1.49
9276.00,1.49
9275.00,1.49
9274.00,1.50
9273.00,1.50
9272.00,1.50
9271.00,1.51
9270.00,1.51
9269.00,1.52
9268.00,1.52
9267.00,1.52
9266.00,1.53
9265.00,1.53
9264.00,1.53
9263.00,1.54
9262.00,1.54
9261.00,1.54
9260.00,1.54
9259.00,1.54
9258.00,1.54
9257.00,1.54
9256.00,1.54
9255.00,1.54
9254.00,1.54
9253.00,1.54
9252.00,1.54
9251.00,1.53
9250.00,1.53
9249.00,1.53
9248.00,1.52
9247.00,1.52
9246.00,1.52
9245.00,1.51
9244.00,1.51
9243.00,1.50
9242.00,1.50
9241.00,1.50
9240.00,1.49
9239.00,1.49
9238.00,1.48
9237.00,1.48
9236.00,1.47
9235.00,1.47
9234.00,1.47
9233.00,1.46
9232.00,1.46
9231.00,1.46
9230.00,1.46
9229.00,1.46
9228.00,1.46
9227.00,1.46
9226.00,1.46
9225.00,1.46
9224.00,1.46
9223.00,1.46
9222.00,1.46
9221.00,1.46
9220.00,1.46
9219.00,1.46
9218.00,1.46
9217.00,1.46
9216.00,1.47
9215.00,1.47
9214.00,1.47
9213.00,1.47
9212.00,1.47
9211.00,1.47
9210.00,1.48
9209.00,1.48
9208.00,1.48
9207.00,1.49
9206.00,1.49
9205.00,1.49
9204.00,1.49
9203.00,1.49
9202.00,1.49
9201.00,1.49
9200.00,1.49
9199.00,1.49
9198.00,1.49
9197.00,1.49
9196.00,1.49
9195.00,1.49
9194.00,1.49
9193.00,1.49
9192.00,1.49
9191.00,1.49
9190.00,1.49
9189.00,1.49
9188.00,1.48
9187.00,1.48
9186.00,1.48
9185.00,1.48
9184.00,1.47
9183.00,1.47
9182.00,1.47
9181.00,1.47
9180.00,1.46
9179.00,1.46
9178.00,1.46
9177.00,1.46
9176.00,1.46
9175.00,1.46
9174.00,1.46
9173.00,1.46
9172.00,1.46
9171.00,1.46
9170.00,1.47
9169.00,1.47
9168.00,1.47
9167.00,1.47
9166.00,1.47
9165.00,1.47
9164.00,1.47
9163.00,1.47
9162.00,1.47
9161.00,1.48
9160.00,1.48
9159.00,1.48
9158.00,1.48
9157.00,1.49
9156.00,1.49
9155.00,1.49
9154.00,1.49
9153.00,1.50
9152.00,1.50
9151.00,1.50
9150.00,1.50
9149.00,1.50
9148.00,1.51
9147.00,1.51
9146.00,1.51
9145.00,1.51
9144.00,1.51
9143.00,1.52
9142.00,1.52
9141.00,1.53
9140.00,1.53
9139.00,1.53
9138.00,1.54
9137.00,1.55
9136.00,1.55
9135.00,1.56
9134.00,1.56
9133.00,1.57
9132.00,1.57
9131.00,1.58
9130.00,1.58
9129.00,1.59
9128.00,1.59
9127.00,1.60
9126.00,1.60
9125.00,1.61
9124.00,1.61
9123.00,1.62
9122.00,1.62
9121.00,1.62
9120.00,1.62
9119.00,1.63
9118.00,1.63
9117.00,1.62
9116.00,1.62
9115.00,1.62
9114.00,1.62
9113.00,1.62
9112.00,1.61
9111.00,1.61
9110.00,1.60
9109.00,1.60
9108.00,1.59
9107.00,1.59
9106.00,1.58
9105.00,1.58
9104.00,1.57
9103.00,1.56
9102.00,1.56
9101.00,1.55
9100.00,1.54
9099.00,1.53
9098.00,1.52
9097.00,1.52
9096.00,1.51
9095.00,1.50
9094.00,1.49
9093.00,1.49
9092.00,1.48
9091.00,1.48
9090.00,1.47
9089.00,1.46
9088.00,1.46
9087.00,1.45
9086.00,1.45
9085.00,1.44
9084.00,1.44
9083.00,1.43
9082.00,1.43
9081.00,1.42
9080.00,1.42
9079.00,1.41
9078.00,1.41
9077.00,1.41
9076.00,1.40
9075.00,1.40
9074.00,1.40
9073.00,1.40
9072.00,1.40
9071.00,1.40
9070.00,1.40
9069.00,1.40
9068.00,1.39
9067.00,1.39
9066.00,1.39
9065.00,1.39
9064.00,1.39
9063.00,1.40
9062.00,1.40
9061.00,1.40
9060.00,1.40
9059.00,1.40
9058.00,1.40
9057.00,1.40
9056.00,1.41
9055.00,1.41
9054.00,1.41
9053.00,1.41
9052.00,1.41
9051.00,1.41
9050.00,1.41
9049.00,1.41
9048.00,1.41
9047.00,1.41
9046.00,1.41
9045.00,1.41
9044.00,1.41
9043.00,1.41
9042.00,1.41
9041.00,1.41
9040.00,1.41
9039.00,1.41
9038.00,1.41
9037.00,1.41
9036.00,1.41
9035.00,1.41
9034.00,1.41
9033.00,1.41
9032.00,1.41
9031.00,1.41
9030.00,1.41
9029.00,1.42
9028.00,1.42
9027.00,1.42
9026.00,1.43
9025.00,1.43
9024.00,1.44
9023.00,1.44
9022.00,1.45
9021.00,1.46
9020.00,1.46
9019.00,1.47
9018.00,1.48
9017.00,1.48
9016.00,1.49
9015.00,1.50
9014.00,1.51
9013.00,1.51
9012.00,1.52
9011.00,1.53
9010.00,1.53
9009.00,1.54
9008.00,1.55
9007.00,1.55
9006.00,1.56
9005.00,1.56
9004.00,1.57
9003.00,1.57
9002.00,1.58
9001.00,1.58
9000.00,1.58
8999.00,1.58
8998.00,1.58
8997.00,1.58
8996.00,1.58
8995.00,1.58
8994.00,1.58
8993.00,1.58
8992.00,1.58
8991.00,1.57
8990.00,1.57
8989.00,1.56
8988.00,1.56
8987.00,1.56
8986.00,1.55
8985.00,1.55
8984.00,1.54
8983.00,1.54
8982.00,1.53
8981.00,1.52
8980.00,1.52
8979.00,1.51
8978.00,1.51
8977.00,1.50
8976.00,1.50
8975.00,1.49
8974.00,1.48
8973.00,1.48
8972.00,1.47
8971.00,1.46
8970.00,1.46
8969.00,1.45
8968.00,1.45
8967.00,1.44
8966.00,1.44
8965.00,1.44
8964.00,1.43
8963.00,1.43
8962.00,1.43
8961.00,1.43
8960.00,1.43
8959.00,1.43
8958.00,1.43
8957.00,1.43
8956.00,1.43
8955.00,1.43
8954.00,1.43
8953.00,1.44
8952.00,1.44
8951.00,1.44
8950.00,1.45
8949.00,1.45
8948.00,1.46
8947.00,1.46
8946.00,1.47
8945.00,1.47
8944.00,1.48
8943.00,1.48
8942.00,1.49
8941.00,1.49
8940.00,1.50
8939.00,1.51
8938.00,1.51
8937.00,1.52
8936.00,1.52
8935.00,1.53
8934.00,1.53
8933.00,1.54
8932.00,1.54
8931.00,1.54
8930.00,1.55
8929.00,1.55
8928.00,1.55
8927.00,1.55
8926.00,1.55
8925.00,1.55
8924.00,1.55
8923.00,1.54
8922.00,1.54
8921.00,1.54
8920.00,1.54
8919.00,1.54
8918.00,1.54
8917.00,1.54
8916.00,1.54
8915.00,1.54
8914.00,1.54
8913.00,1.53
8912.00,1.53
8911.00,1.53
8910.00,1.52
8909.00,1.52
8908.00,1.51
8907.00,1.51
8906.00,1.51
8905.00,1.50
8904.00,1.50
8903.00,1.49
8902.00,1.49
8901.00,1.48
8900.00,1.48
8899.00,1.48
8898.00,1.47
8897.00,1.47
8896.00,1.47
8895.00,1.47
8894.00,1.46
8893.00,1.46
8892.00,1.46
8891.00,1.45
8890.00,1.45
8889.00,1.45
8888.00,1.45
8887.00,1.45
8886.00,1.44
8885.00,1.44
8884.00,1.45
8883.00,1.45
8882.00,1.45
8881.00,1.45
8880.00,1.46
8879.00,1.46
8878.00,1.46
8877.00,1.47
8876.00,1.47
8875.00,1.48
8874.00,1.49
8873.00,1.49
8872.00,1.50
8871.00,1.51
8870.00,1.51
8869.00,1.52
8868.00,1.53
8867.00,1.53
8866.00,1.54
8865.00,1.55
8864.00,1.55
8863.00,1.56
8862.00,1.56
8861.00,1.56
8860.00,1.57
8859.00,1.57
8858.00,1.57
8857.00,1.57
8856.00,1.58
8855.00,1.58
8854.00,1.58
8853.00,1.58
8852.00,1.58
8851.00,1.58
8850.00,1.57
8849.00,1.57
8848.00,1.57
8847.00,1.57
8846.00,1.57
8845.00,1.57
8844.00,1.56
8843.00,1.56
8842.00,1.56
8841.00,1.55
8840.00,1.55
8839.00,1.55
8838.00,1.54
8837.00,1.54
8836.00,1.54
8835.00,1.54
8834.00,1.53
8833.00,1.53
8832.00,1.53
8831.00,1.53
8830.00,1.53
8829.00,1.52
8828.00,1.52
8827.00,1.52
8826.00,1.52
8825.00,1.51
8824.00,1.51
8823.00,1.51
8822.00,1.50
8821.00,1.50
8820.00,1.50
8819.00,1.50
8818.00,1.50
8817.00,1.50
8816.00,1.50
8815.00,1.50
8814.00,1.50
8813.00,1.50
8812.00,1.50
8811.00,1.50
8810.00,1.50
8809.00,1.50
8808.00,1.51
8807.00,1.51
8806.00,1.51
8805.00,1.51
8804.00,1.52
8803.00,1.52
8802.00,1.52
8801.00,1.53
8800.00,1.53
8799.00,1.54
8798.00,1.54
8797.00,1.55
8796.00,1.55
8795.00,1.56
8794.00,1.56
8793.00,1.56
8792.00,1.57
8791.00,1.57
8790.00,1.57
8789.00,1.58
8788.00,1.58
8787.00,1.58
8786.00,1.58
8785.00,1.58
8784.00,1.58
8783.00,1.57
8782.00,1.57
8781.00,1.57
8780.00,1.57
8779.00,1.57
8778.00,1.56
8777.00,1.56
8776.00,1.56
8775.00,1.56
8774.00,1.55
8773.00,1.55
8772.00,1.54
8771.00,1.54
8770.00,1.53
8769.00,1.53
8768.00,1.52
8767.00,1.52
8766.00,1.51
8765.00,1.51
8764.00,1.50
8763.00,1.49
8762.00,1.49
8761.00,1.48
8760.00,1.48
8759.00,1.47
8758.00,1.47
8757.00,1.47
8756.00,1.47
8755.00,1.46
8754.00,1.46
8753.00,1.46
8752.00,1.46
8751.00,1.46
8750.00,1.46
8749.00,1.46
8748.00,1.46
8747.00,1.46
8746.00,1.46
8745.00,1.46
8744.00,1.46
8743.00,1.46
8742.00,1.46
8741.00,1.47
8740.00,1.47
8739.00,1.47
8738.00,1.47
8737.00,1.48
8736.00,1.48
8735.00,1.49
8734.00,1.49
8733.00,1.49
8732.00,1.50
8731.00,1.50
8730.00,1.50
8729.00,1.51
8728.00,1.51
8727.00,1.51
8726.00,1.51
8725.00,1.52
8724.00,1.52
8723.00,1.52
8722.00,1.52
8721.00,1.52
8720.00,1.53
8719.00,1.53
8718.00,1.53
8717.00,1.54
8716.00,1.54
8715.00,1.54
8714.00,1.55
8713.00,1.55
8712.00,1.56
8711.00,1.56
8710.00,1.57
8709.00,1.57
8708.00,1.57
8707.00,1.58
8706.00,1.58
8705.00,1.58
8704.00,1.58
8703.00,1.58
8702.00,1.58
8701.00,1.58
8700.00,1.58
8699.00,1.58
8698.00,1.58
8697.00,1.58
8696.00,1.58
8695.00,1.57
8694.00,1.57
8693.00,1.57
8692.00,1.56
8691.00,1.56
8690.00,1.55
8689.00,1.54
8688.00,1.54
8687.00,1.53
8686.00,1.53
8685.00,1.52
8684.00,1.51
8683.00,1.51
8682.00,1.50
8681.00,1.50
8680.00,1.49
8679.00,1.49
8678.00,1.48
8677.00,1.48
8676.00,1.48
8675.00,1.47
8674.00,1.47
8673.00,1.47
8672.00,1.47
8671.00,1.47
8670.00,1.47
8669.00,1.47
8668.00,1.47
8667.00,1.47
8666.00,1.47
8665.00,1.47
8664.00,1.47
8663.00,1.47
8662.00,1.47
8661.00,1.47
8660.00,1.47
8659.00,1.47
8658.00,1.47
8657.00,1.47
8656.00,1.47
8655.00,1.47
8654.00,1.47
8653.00,1.47
8652.00,1.46
8651.00,1.46
8650.00,1.46
8649.00,1.46
8648.00,1.46
8647.00,1.46
8646.00,1.47
8645.00,1.47
8644.00,1.47
8643.00,1.47
8642.00,1.48
8641.00,1.48
8640.00,1.48
8639.00,1.48
8638.00,1.49
8637.00,1.49
8636.00,1.49
8635.00,1.50
8634.00,1.50
8633.00,1.50
8632.00,1.50
8631.00,1.50
8630.00,1.51
8629.00,1.51
8628.00,1.51
8627.00,1.51
8626.00,1.51
8625.00,1.51
8624.00,1.51
8623.00,1.51
8622.00,1.51
8621.00,1.51
8620.00,1.51
8619.00,1.50
8618.00,1.50
8617.00,1.50
8616.00,1.49
8615.00,1.49
8614.00,1.49
8613.00,1.48
8612.00,1.48
8611.00,1.47
8610.00,1.47
8609.00,1.47
8608.00,1.47
8607.00,1.47
8606.00,1.47
8605.00,1.47
8604.00,1.47
8603.00,1.47
8602.00,1.47
8601.00,1.47
8600.00,1.48
8599.00,1.48
8598.00,1.48
8597.00,1.48
8596.00,1.48
8595.00,1.48
8594.00,1.49
8593.00,1.49
8592.00,1.49
8591.00,1.49
8590.00,1.49
8589.00,1.49
8588.00,1.50
8587.00,1.50
8586.00,1.50
8585.00,1.50
8584.00,1.50
8583.00,1.50
8582.00,1.50
8581.00,1.50
8580.00,1.50
8579.00,1.50
8578.00,1.50
8577.00,1.49
8576.00,1.49
8575.00,1.49
8574.00,1.49
8573.00,1.48
8572.00,1.48
8571.00,1.48
8570.00,1.48
8569.00,1.48
8568.00,1.48
8567.00,1.48
8566.00,1.48
8565.00,1.48
8564.00,1.48
8563.00,1.48
8562.00,1.48
8561.00,1.48
8560.00,1.48
8559.00,1.48
8558.00,1.48
8557.00,1.48
8556.00,1.48
8555.00,1.48
8554.00,1.49
8553.00,1.49
8552.00,1.49
8551.00,1.49
8550.00,1.49
8549.00,1.50
8548.00,1.50
8547.00,1.50
8546.00,1.51
8545.00,1.51
8544.00,1.51
8543.00,1.52
8542.00,1.52
8541.00,1.52
8540.00,1.52
8539.00,1.52
8538.00,1.52
8537.00,1.52
8536.00,1.52
8535.00,1.52
8534.00,1.52
8533.00,1.53
8532.00,1.53
8531.00,1.53
8530.00,1.53
8529.00,1.53
8528.00,1.53
8527.00,1.53
8526.00,1.53
8525.00,1.53
8524.00,1.53
8523.00,1.52
8522.00,1.52
8521.00,1.52
8520.00,1.51
8519.00,1.51
8518.00,1.50
8517.00,1.50
8516.00,1.50
8515.00,1.49
8514.00,1.49
8513.00,1.48
8512.00,1.48
8511.00,1.47
8510.00,1.46
8509.00,1.46
8508.00,1.45
8507.00,1.45
8506.00,1.44
8505.00,1.43
8504.00,1.43
8503.00,1.42
8502.00,1.42
8501.00,1.42
8500.00,1.42
8499.00,1.41
8498.00,1.41
8497.00,1.41
8496.00,1.41
8495.00,1.41
8494.00,1.41
8493.00,1.41
8492.00,1.41
8491.00,1.42
8490.00,1.42
8489.00,1.42
8488.00,1.42
8487.00,1.43
8486.00,1.43
8485.00,1.44
8484.00,1.44
8483.00,1.45
8482.00,1.46
8481.00,1.46
8480.00,1.47
8479.00,1.47
8478.00,1.48
8477.00,1.48
8476.00,1.49
8475.00,1.49
8474.00,1.50
8473.00,1.50
8472.00,1.50
8471.00,1.50
8470.00,1.51
8469.00,1.51
8468.00,1.51
8467.00,1.51
8466.00,1.51
8465.00,1.51
8464.00,1.51
8463.00,1.51
8462.00,1.51
8461.00,1.51
8460.00,1.50
8459.00,1.50
8458.00,1.50
8457.00,1.50
8456.00,1.49
8455.00,1.49
8454.00,1.49
8453.00,1.48
8452.00,1.48
8451.00,1.48
8450.00,1.48
8449.00,1.48
8448.00,1.48
8447.00,1.48
8446.00,1.48
8445.00,1.48
8444.00,1.48
8443.00,1.48
8442.00,1.48
8441.00,1.48
8440.00,1.49
8439.00,1.49
8438.00,1.49
8437.00,1.50
8436.00,1.50
8435.00,1.51
8434.00,1.51
8433.00,1.52
8432.00,1.52
8431.00,1.53
8430.00,1.53
8429.00,1.54
8428.00,1.54
8427.00,1.55
8426.00,1.55
8425.00,1.55
8424.00,1.56
8423.00,1.56
8422.00,1.57
8421.00,1.57
8420.00,1.57
8419.00,1.57
8418.00,1.57
8417.00,1.58
8416.00,1.58
8415.00,1.58
8414.00,1.58
8413.00,1.57
8412.00,1.57
8411.00,1.57
8410.00,1.57
8409.00,1.57
8408.00,1.56
8407.00,1.56
8406.00,1.56
8405.00,1.55
8404.00,1.55
8403.00,1.55
8402.00,1.54
8401.00,1.54
8400.00,1.54
8399.00,1.54
8398.00,1.53
8397.00,1.53
8396.00,1.53
8395.00,1.53
8394.00,1.52
8393.00,1.52
8392.00,1.52
8391.00,1.52
8390.00,1.52
8389.00,1.52
8388.00,1.52
8387.00,1.53
8386.00,1.53
8385.00,1.53
8384.00,1.53
8383.00,1.54
8382.00,1.54
8381.00,1.55
8380.00,1.55
8379.00,1.55
8378.00,1.56
8377.00,1.56
8376.00,1.56
8375.00,1.57
8374.00,1.57
8373.00,1.57
8372.00,1.57
8371.00,1.57
8370.00,1.57
8369.00,1.58
8368.00,1.57
8367.00,1.57
8366.00,1.57
8365.00,1.57
8364.00,1.57
8363.00,1.57
8362.00,1.56
8361.00,1.56
8360.00,1.55
8359.00,1.55
8358.00,1.55
8357.00,1.54
8356.00,1.54
8355.00,1.53
8354.00,1.53
8353.00,1.52
8352.00,1.51
8351.00,1.51
8350.00,1.50
8349.00,1.50
8348.00,1.50
8347.00,1.49
8346.00,1.49
8345.00,1.48
8344.00,1.48
8343.00,1.48
8342.00,1.47
8341.00,1.47
8340.00,1.47
8339.00,1.47
8338.00,1.47
8337.00,1.47
8336.00,1.47
8335.00,1.47
8334.00,1.47
8333.00,1.47
8332.00,1.47
8331.00,1.46
8330.00,1.46
8329.00,1.46
8328.00,1.46
8327.00,1.46
8326.00,1.46
8325.00,1.46
8324.00,1.46
8323.00,1.46
8322.00,1.46
8321.00,1.46
8320.00,1.46
8319.00,1.46
8318.00,1.46
8317.00,1.46
8316.00,1.46
8315.00,1.45
8314.00,1.45
8313.00,1.45
8312.00,1.45
8311.00,1.45
8310.00,1.45
8309.00,1.45
8308.00,1.44
8307.00,1.44
8306.00,1.44
8305.00,1.44
8304.00,1.44
8303.00,1.44
8302.00,1.44
8301.00,1.44
8300.00,1.44
8299.00,1.44
8298.00,1.44
8297.00,1.44
8296.00,1.44
8295.00,1.44
8294.00,1.44
8293.00,1.44
8292.00,1.44
8291.00,1.44
8290.00,1.44
8289.00,1.44
8288.00,1.44
8287.00,1.44
8286.00,1.44
8285.00,1.45
8284.00,1.45
8283.00,1.45
8282.00,1.45
8281.00,1.45
8280.00,1.45
8279.00,1.46
8278.00,1.46
8277.00,1.46
8276.00,1.46
8275.00,1.46
8274.00,1.47
8273.00,1.47
8272.00,1.47
8271.00,1.48
8270.00,1.48
8269.00,1.48
8268.00,1.49
8267.00,1.49
8266.00,1.49
8265.00,1.49
8264.00,1.50
8263.00,1.50
8262.00,1.50
8261.00,1.51
8260.00,1.51
8259.00,1.51
8258.00,1.51
8257.00,1.52
8256.00,1.52
8255.00,1.52
8254.00,1.53
8253.00,1.53
8252.00,1.54
8251.00,1.54
8250.00,1.55
8249.00,1.55
8248.00,1.55
8247.00,1.56
8246.00,1.56
8245.00,1.56
8244.00,1.57
8243.00,1.57
8242.00,1.57
8241.00,1.57
8240.00,1.57
8239.00,1.57
8238.00,1.57
8237.00,1.57
8236.00,1.57
8235.00,1.57
8234.00,1.57
8233.00,1.57
8232.00,1.57
8231.00,1.57
8230.00,1.57
8229.00,1.57
8228.00,1.57
8227.00,1.56
8226.00,1.56
8225.00,1.56
8224.00,1.56
8223.00,1.55
8222.00,1.55
8221.00,1.55
8220.00,1.55
8219.00,1.54
8218.00,1.54
8217.00,1.54
8216.00,1.54
8215.00,1.54
8214.00,1.54
8213.00,1.54
8212.00,1.53
8211.00,1.53
8210.00,1.53
8209.00,1.53
8208.00,1.53
8207.00,1.53
8206.00,1.53
8205.00,1.53
8204.00,1.53
8203.00,1.53
8202.00,1.53
8201.00,1.53
8200.00,1.53
8199.00,1.53
8198.00,1.53
8197.00,1.53
8196.00,1.53
8195.00,1.53
8194.00,1.52
8193.00,1.52
8192.00,1.52
8191.00,1.52
8190.00,1.52
8189.00,1.51
8188.00,1.51
8187.00,1.51
8186.00,1.51
8185.00,1.50
8184.00,1.50
8183.00,1.50
8182.00,1.50
8181.00,1.50
8180.00,1.49
8179.00,1.49
8178.00,1.49
8177.00,1.49
8176.00,1.49
8175.00,1.49
8174.00,1.49
8173.00,1.49
8172.00,1.49
8171.00,1.49
8170.00,1.49
8169.00,1.49
8168.00,1.49
8167.00,1.49
8166.00,1.50
8165.00,1.50
8164.00,1.50
8163.00,1.51
8162.00,1.51
8161.00,1.51
8160.00,1.52
8159.00,1.52
8158.00,1.53
8157.00,1.53
8156.00,1.53
8155.00,1.54
8154.00,1.54
8153.00,1.54
8152.00,1.54
8151.00,1.54
8150.00,1.54
8149.00,1.54
8148.00,1.55
8147.00,1.55
8146.00,1.55
8145.00,1.55
8144.00,1.55
8143.00,1.55
8142.00,1.55
8141.00,1.55
8140.00,1.55
8139.00,1.55
8138.00,1.55
8137.00,1.55
8136.00,1.55
8135.00,1.54
8134.00,1.54
8133.00,1.54
8132.00,1.54
8131.00,1.54
8130.00,1.54
8129.00,1.54
8128.00,1.54
8127.00,1.55
8126.00,1.55
8125.00,1.55
8124.00,1.55
8123.00,1.55
8122.00,1.55
8121.00,1.56
8120.00,1.56
8119.00,1.56
8118.00,1.56
8117.00,1.56
8116.00,1.57
8115.00,1.57
8114.00,1.57
8113.00,1.57
8112.00,1.57
8111.00,1.57
8110.00,1.57
8109.00,1.57
8108.00,1.57
8107.00,1.57
8106.00,1.57
8105.00,1.56
8104.00,1.56
8103.00,1.56
8102.00,1.56
8101.00,1.56
8100.00,1.55
8099.00,1.55
8098.00,1.55
8097.00,1.54
8096.00,1.54
8095.00,1.54
8094.00,1.54
8093.00,1.53
8092.00,1.53
8091.00,1.53
8090.00,1.53
8089.00,1.52
8088.00,1.52
8087.00,1.52
8086.00,1.52
8085.00,1.51
8084.00,1.51
8083.00,1.51
8082.00,1.51
8081.00,1.51
8080.00,1.51
8079.00,1.50
8078.00,1.50
8077.00,1.50
8076.00,1.50
8075.00,1.50
8074.00,1.50
8073.00,1.50
8072.00,1.50
8071.00,1.50
8070.00,1.50
8069.00,1.50
8068.00,1.50
8067.00,1.49
8066.00,1.49
8065.00,1.49
8064.00,1.49
8063.00,1.49
8062.00,1.49
8061.00,1.49
8060.00,1.49
8059.00,1.49
8058.00,1.49
8057.00,1.49
8056.00,1.49
8055.00,1.49
8054.00,1.49
8053.00,1.49
8052.00,1.49
8051.00,1.49
8050.00,1.49
8049.00,1.49
8048.00,1.50
8047.00,1.50
8046.00,1.50
8045.00,1.50
8044.00,1.50
8043.00,1.50
8042.00,1.50
8041.00,1.51
8040.00,1.51
8039.00,1.51
8038.00,1.51
8037.00,1.51
8036.00,1.51
8035.00,1.52
8034.00,1.52
8033.00,1.52
8032.00,1.52
8031.00,1.53
8030.00,1.53
8029.00,1.53
8028.00,1.53
8027.00,1.53
8026.00,1.54
8025.00,1.54
8024.00,1.54
8023.00,1.54
8022.00,1.54
8021.00,1.54
8020.00,1.54
8019.00,1.54
8018.00,1.54
8017.00,1.54
8016.00,1.54
8015.00,1.55
8014.00,1.55
8013.00,1.55
8012.00,1.55
8011.00,1.55
8010.00,1.55
8009.00,1.55
8008.00,1.55
8007.00,1.55
8006.00,1.55
8005.00,1.55
8004.00,1.55
8003.00,1.55
8002.00,1.55
8001.00,1.55
8000.00,1.55
7999.00,1.55
7998.00,1.55
7997.00,1.55
7996.00,1.55
7995.00,1.55
7994.00,1.55
7993.00,1.55
7992.00,1.55
7991.00,1.55
7990.00,1.55
7989.00,1.54
7988.00,1.54
7987.00,1.54
7986.00,1.54
7985.00,1.54
7984.00,1.54
7983.00,1.54
7982.00,1.54
7981.00,1.54
7980.00,1.54
7979.00,1.54
7978.00,1.54
7977.00,1.54
7976.00,1.54
7975.00,1.54
7974.00,1.54
7973.00,1.54
7972.00,1.54
7971.00,1.53
7970.00,1.53
7969.00,1.53
7968.00,1.53
7967.00,1.53
7966.00,1.53
7965.00,1.53
7964.00,1.53
7963.00,1.53
7962.00,1.52
7961.00,1.52
7960.00,1.52
7959.00,1.52
7958.00,1.52
7957.00,1.52
7956.00,1.52
7955.00,1.51
7954.00,1.51
7953.00,1.51
7952.00,1.51
7951.00,1.51
7950.00,1.51
7949.00,1.51
7948.00,1.50
7947.00,1.50
7946.00,1.50
7945.00,1.50
7944.00,1.51
7943.00,1.51
7942.00,1.51
7941.00,1.51
7940.00,1.51
7939.00,1.51
7938.00,1.52
7937.00,1.52
7936.00,1.52
7935.00,1.52
7934.00,1.52
7933.00,1.53
7932.00,1.53
7931.00,1.53
7930.00,1.54
7929.00,1.54
7928.00,1.54
7927.00,1.54
7926.00,1.55
7925.00,1.55
7924.00,1.55
7923.00,1.56
7922.00,1.56
7921.00,1.56
7920.00,1.56
7919.00,1.57
7918.00,1.57
7917.00,1.57
7916.00,1.57
7915.00,1.57
7914.00,1.57
7913.00,1.57
7912.00,1.58
7911.00,1.58
7910.00,1.58
7909.00,1.58
7908.00,1.58
7907.00,1.59
7906.00,1.59
7905.00,1.59
7904.00,1.60
7903.00,1.60
7902.00,1.60
7901.00,1.60
7900.00,1.60
7899.00,1.61
7898.00,1.61
7897.00,1.61
7896.00,1.61
7895.00,1.61
7894.00,1.61
7893.00,1.62
7892.00,1.62
7891.00,1.62
7890.00,1.62
7889.00,1.62
7888.00,1.62
7887.00,1.63
7886.00,1.63
7885.00,1.63
7884.00,1.63
7883.00,1.63
7882.00,1.63
7881.00,1.63
7880.00,1.63
7879.00,1.63
7878.00,1.63
7877.00,1.63
7876.00,1.63
7875.00,1.63
7874.00,1.63
7873.00,1.63
7872.00,1.63
7871.00,1.63
7870.00,1.63
7869.00,1.63
7868.00,1.63
7867.00,1.63
7866.00,1.63
7865.00,1.63
7864.00,1.62
7863.00,1.62
7862.00,1.62
7861.00,1.62
7860.00,1.62
7859.00,1.62
7858.00,1.61
7857.00,1.61
7856.00,1.61
7855.00,1.61
7854.00,1.60
7853.00,1.60
7852.00,1.60
7851.00,1.59
7850.00,1.59
7849.00,1.59
7848.00,1.58
7847.00,1.58
7846.00,1.57
7845.00,1.57
7844.00,1.56
7843.00,1.56
7842.00,1.55
7841.00,1.55
7840.00,1.54
7839.00,1.54
7838.00,1.53
7837.00,1.53
7836.00,1.53
7835.00,1.52
7834.00,1.52
7833.00,1.51
7832.00,1.51
7831.00,1.51
7830.00,1.51
7829.00,1.51
7828.00,1.50
7827.00,1.50
7826.00,1.50
7825.00,1.50
7824.00,1.50
7823.00,1.50
7822.00,1.50
7821.00,1.50
7820.00,1.50
7819.00,1.50
7818.00,1.50
7817.00,1.50
7816.00,1.50
7815.00,1.50
7814.00,1.51
7813.00,1.51
7812.00,1.51
7811.00,1.51
7810.00,1.51
7809.00,1.51
7808.00,1.51
7807.00,1.51
7806.00,1.51
7805.00,1.51
7804.00,1.51
7803.00,1.51
7802.00,1.52
7801.00,1.52
7800.00,1.52
7799.00,1.52
7798.00,1.52
7797.00,1.52
7796.00,1.52
7795.00,1.53
7794.00,1.53
7793.00,1.53
7792.00,1.53
7791.00,1.53
7790.00,1.54
7789.00,1.54
7788.00,1.54
7787.00,1.54
7786.00,1.55
7785.00,1.55
7784.00,1.55
7783.00,1.55
7782.00,1.56
7781.00,1.56
7780.00,1.56
7779.00,1.56
7778.00,1.57
7777.00,1.57
7776.00,1.57
7775.00,1.57
7774.00,1.58
7773.00,1.58
7772.00,1.58
7771.00,1.58
7770.00,1.58
7769.00,1.59
7768.00,1.59
7767.00,1.59
7766.00,1.59
7765.00,1.59
7764.00,1.60
7763.00,1.60
7762.00,1.60
7761.00,1.60
7760.00,1.60
7759.00,1.61
7758.00,1.61
7757.00,1.61
7756.00,1.61
7755.00,1.61
7754.00,1.61
7753.00,1.62
7752.00,1.62
7751.00,1.62
7750.00,1.62
7749.00,1.62
7748.00,1.61
7747.00,1.61
7746.00,1.61
7745.00,1.61
7744.00,1.61
7743.00,1.60
7742.00,1.60
7741.00,1.60
7740.00,1.60
7739.00,1.59
7738.00,1.59
7737.00,1.59
7736.00,1.58
7735.00,1.58
7734.00,1.58
7733.00,1.57
7732.00,1.57
7731.00,1.57
7730.00,1.56
7729.00,1.56
7728.00,1.55
7727.00,1.55
7726.00,1.55
7725.00,1.55
7724.00,1.54
7723.00,1.54
7722.00,1.54
7721.00,1.54
7720.00,1.54
7719.00,1.54
7718.00,1.54
7717.00,1.54
7716.00,1.54
7715.00,1.54
7714.00,1.54
7713.00,1.54
7712.00,1.54
7711.00,1.54
7710.00,1.54
7709.00,1.54
7708.00,1.54
7707.00,1.54
7706.00,1.54
7705.00,1.54
7704.00,1.55
7703.00,1.55
7702.00,1.55
7701.00,1.55
7700.00,1.56
7699.00,1.56
7698.00,1.56
7697.00,1.57
7696.00,1.57
7695.00,1.57
7694.00,1.58
7693.00,1.58
7692.00,1.59
7691.00,1.59
7690.00,1.60
7689.00,1.60
7688.00,1.60
7687.00,1.61
7686.00,1.61
7685.00,1.62
7684.00,1.62
7683.00,1.62
7682.00,1.63
7681.00,1.63
7680.00,1.63
7679.00,1.64
7678.00,1.64
7677.00,1.64
7676.00,1.64
7675.00,1.64
7674.00,1.64
7673.00,1.64
7672.00,1.64
7671.00,1.64
7670.00,1.64
7669.00,1.64
7668.00,1.64
7667.00,1.63
7666.00,1.63
7665.00,1.63
7664.00,1.63
7663.00,1.62
7662.00,1.62
7661.00,1.62
7660.00,1.61
7659.00,1.61
7658.00,1.60
7657.00,1.60
7656.00,1.60
7655.00,1.59
7654.00,1.59
7653.00,1.58
7652.00,1.58
7651.00,1.58
7650.00,1.57
7649.00,1.57
7648.00,1.57
7647.00,1.57
7646.00,1.57
7645.00,1.56
7644.00,1.56
7643.00,1.56
7642.00,1.56
7641.00,1.56
7640.00,1.56
7639.00,1.57
7638.00,1.57
7637.00,1.57
7636.00,1.57
7635.00,1.57
7634.00,1.58
7633.00,1.58
7632.00,1.58
7631.00,1.59
7630.00,1.59
7629.00,1.59
7628.00,1.60
7627.00,1.60
7626.00,1.60
7625.00,1.61
7624.00,1.61
7623.00,1.61
7622.00,1.62
7621.00,1.62
7620.00,1.62
7619.00,1.62
7618.00,1.62
7617.00,1.62
7616.00,1.62
7615.00,1.62
7614.00,1.62
7613.00,1.62
7612.00,1.62
7611.00,1.62
7610.00,1.62
7609.00,1.62
7608.00,1.62
7607.00,1.62
7606.00,1.62
7605.00,1.62
7604.00,1.62
7603.00,1.62
7602.00,1.62
7601.00,1.62
7600.00,1.62
7599.00,1.62
7598.00,1.62
7597.00,1.62
7596.00,1.62
7595.00,1.63
7594.00,1.63
7593.00,1.63
7592.00,1.63
7591.00,1.63
7590.00,1.63
7589.00,1.64
7588.00,1.64
7587.00,1.64
7586.00,1.64
7585.00,1.64
7584.00,1.64
7583.00,1.64
7582.00,1.64
7581.00,1.63
7580.00,1.63
7579.00,1.63
7578.00,1.63
7577.00,1.62
7576.00,1.62
7575.00,1.62
7574.00,1.61
7573.00,1.61
7572.00,1.61
7571.00,1.60
7570.00,1.60
7569.00,1.60
7568.00,1.59
7567.00,1.59
7566.00,1.59
7565.00,1.58
7564.00,1.58
7563.00,1.58
7562.00,1.58
7561.00,1.58
7560.00,1.58
7559.00,1.57
7558.00,1.57
7557.00,1.57
7556.00,1.57
7555.00,1.57
7554.00,1.57
7553.00,1.57
7552.00,1.57
7551.00,1.58
7550.00,1.58
7549.00,1.58
7548.00,1.58
7547.00,1.58
7546.00,1.58
7545.00,1.58
7544.00,1.58
7543.00,1.58
7542.00,1.58
7541.00,1.58
7540.00,1.58
7539.00,1.58
7538.00,1.57
7537.00,1.57
7536.00,1.57
7535.00,1.57
7534.00,1.57
7533.00,1.57
7532.00,1.57
7531.00,1.57
7530.00,1.57
7529.00,1.56
7528.00,1.56
7527.00,1.56
7526.00,1.56
7525.00,1.56
7524.00,1.56
7523.00,1.56
7522.00,1.56
7521.00,1.56
7520.00,1.56
7519.00,1.56
7518.00,1.56
7517.00,1.56
7516.00,1.56
7515.00,1.56
7514.00,1.56
7513.00,1.57
7512.00,1.57
7511.00,1.57
7510.00,1.57
7509.00,1.57
7508.00,1.57
7507.00,1.57
7506.00,1.57
7505.00,1.57
7504.00,1.58
7503.00,1.58
7502.00,1.58
7501.00,1.58
7500.00,1.58
7499.00,1.59
7498.00,1.59
7497.00,1.59
7496.00,1.59
7495.00,1.60
7494.00,1.60
7493.00,1.60
7492.00,1.60
7491.00,1.60
7490.00,1.60
7489.00,1.60
7488.00,1.60
7487.00,1.60
7486.00,1.60
7485.00,1.59
7484.00,1.59
7483.00,1.59
7482.00,1.59
7481.00,1.59
7480.00,1.59
7479.00,1.59
7478.00,1.59
7477.00,1.59
7476.00,1.59
7475.00,1.59
7474.00,1.59
7473.00,1.59
7472.00,1.59
7471.00,1.59
7470.00,1.59
7469.00,1.59
7468.00,1.58
7467.00,1.58
7466.00,1.58
7465.00,1.58
7464.00,1.58
7463.00,1.59
7462.00,1.59
7461.00,1.59
7460.00,1.59
7459.00,1.59
7458.00,1.59
7457.00,1.59
7456.00,1.59
7455.00,1.59
7454.00,1.59
7453.00,1.59
7452.00,1.59
7451.00,1.59
7450.00,1.59
7449.00,1.59
7448.00,1.59
7447.00,1.59
7446.00,1.59
7445.00,1.59
7444.00,1.58
7443.00,1.58
7442.00,1.58
7441.00,1.58
7440.00,1.58
7439.00,1.58
7438.00,1.58
7437.00,1.58
7436.00,1.58
7435.00,1.58
7434.00,1.58
7433.00,1.58
7432.00,1.58
7431.00,1.58
7430.00,1.58
7429.00,1.58
7428.00,1.58
7427.00,1.58
7426.00,1.58
7425.00,1.59
7424.00,1.59
7423.00,1.59
7422.00,1.59
7421.00,1.59
7420.00,1.59
7419.00,1.59
7418.00,1.59
7417.00,1.60
7416.00,1.59
7415.00,1.59
7414.00,1.59
7413.00,1.59
7412.00,1.59
7411.00,1.59
7410.00,1.59
7409.00,1.59
7408.00,1.59
7407.00,1.59
7406.00,1.58
7405.00,1.58
7404.00,1.58
7403.00,1.57
7402.00,1.57
7401.00,1.57
7400.00,1.56
7399.00,1.56
7398.00,1.56
7397.00,1.55
7396.00,1.55
7395.00,1.55
7394.00,1.54
7393.00,1.54
7392.00,1.54
7391.00,1.53
7390.00,1.53
7389.00,1.53
7388.00,1.53
7387.00,1.53
7386.00,1.52
7385.00,1.52
7384.00,1.52
7383.00,1.52
7382.00,1.52
7381.00,1.52
7380.00,1.52
7379.00,1.51
7378.00,1.51
7377.00,1.51
7376.00,1.51
7375.00,1.51
7374.00,1.52
7373.00,1.52
7372.00,1.52
7371.00,1.52
7370.00,1.52
7369.00,1.52
7368.00,1.53
7367.00,1.53
7366.00,1.53
7365.00,1.53
7364.00,1.53
7363.00,1.54
7362.00,1.54
7361.00,1.54
7360.00,1.54
7359.00,1.54
7358.00,1.54
7357.00,1.54
7356.00,1.55
7355.00,1.55
7354.00,1.55
7353.00,1.55
7352.00,1.55
7351.00,1.55
7350.00,1.55
7349.00,1.55
7348.00,1.56
7347.00,1.56
7346.00,1.55
7345.00,1.55
7344.00,1.55
7343.00,1.55
7342.00,1.55
7341.00,1.55
7340.00,1.55
7339.00,1.55
7338.00,1.55
7337.00,1.55
7336.00,1.55
7335.00,1.55
7334.00,1.55
7333.00,1.55
7332.00,1.55
7331.00,1.55
7330.00,1.55
7329.00,1.55
7328.00,1.55
7327.00,1.55
7326.00,1.56
7325.00,1.56
7324.00,1.56
7323.00,1.56
7322.00,1.56
7321.00,1.56
7320.00,1.56
7319.00,1.56
7318.00,1.56
7317.00,1.56
7316.00,1.57
7315.00,1.57
7314.00,1.57
7313.00,1.57
7312.00,1.57
7311.00,1.57
7310.00,1.57
7309.00,1.58
7308.00,1.58
7307.00,1.58
7306.00,1.58
7305.00,1.58
7304.00,1.58
7303.00,1.58
7302.00,1.59
7301.00,1.59
7300.00,1.59
7299.00,1.59
7298.00,1.59
7297.00,1.59
7296.00,1.59
7295.00,1.59
7294.00,1.59
7293.00,1.59
7292.00,1.59
7291.00,1.60
7290.00,1.60
7289.00,1.60
7288.00,1.60
7287.00,1.60
7286.00,1.60
7285.00,1.60
7284.00,1.59
7283.00,1.59
7282.00,1.59
7281.00,1.59
7280.00,1.59
7279.00,1.59
7278.00,1.58
7277.00,1.58
7276.00,1.58
7275.00,1.58
7274.00,1.57
7273.00,1.57
7272.00,1.57
7271.00,1.56
7270.00,1.56
7269.00,1.56
7268.00,1.55
7267.00,1.55
7266.00,1.54
7265.00,1.53
7264.00,1.53
7263.00,1.52
7262.00,1.52
7261.00,1.51
7260.00,1.51
7259.00,1.50
7258.00,1.50
7257.00,1.49
7256.00,1.49
7255.00,1.48
7254.00,1.48
7253.00,1.47
7252.00,1.47
7251.00,1.46
7250.00,1.46
7249.00,1.45
7248.00,1.45
7247.00,1.44
7246.00,1.44
7245.00,1.43
7244.00,1.43
7243.00,1.43
7242.00,1.43
7241.00,1.43
7240.00,1.43
7239.00,1.43
7238.00,1.43
7237.00,1.43
7236.00,1.43
7235.00,1.43
7234.00,1.43
7233.00,1.43
7232.00,1.43
7231.00,1.43
7230.00,1.43
7229.00,1.44
7228.00,1.44
7227.00,1.44
7226.00,1.45
7225.00,1.45
7224.00,1.45
7223.00,1.46
7222.00,1.46
7221.00,1.46
7220.00,1.47
7219.00,1.47
7218.00,1.47
7217.00,1.48
7216.00,1.48
7215.00,1.48
7214.00,1.48
7213.00,1.48
7212.00,1.48
7211.00,1.48
7210.00,1.48
7209.00,1.48
7208.00,1.47
7207.00,1.47
7206.00,1.47
7205.00,1.47
7204.00,1.46
7203.00,1.46
7202.00,1.46
7201.00,1.45
7200.00,1.45
7199.00,1.44
7198.00,1.44
7197.00,1.44
7196.00,1.43
7195.00,1.43
7194.00,1.43
7193.00,1.42
7192.00,1.42
7191.00,1.42
7190.00,1.41
7189.00,1.41
7188.00,1.41
7187.00,1.41
7186.00,1.41
7185.00,1.40
7184.00,1.40
7183.00,1.40
7182.00,1.40
7181.00,1.40
7180.00,1.40
7179.00,1.40
7178.00,1.40
7177.00,1.40
7176.00,1.40
7175.00,1.40
7174.00,1.40
7173.00,1.40
7172.00,1.40
7171.00,1.40
7170.00,1.40
7169.00,1.40
7168.00,1.40
7167.00,1.39
7166.00,1.39
7165.00,1.39
7164.00,1.39
7163.00,1.38
7162.00,1.38
7161.00,1.38
7160.00,1.37
7159.00,1.37
7158.00,1.37
7157.00,1.36
7156.00,1.36
7155.00,1.36
7154.00,1.35
7153.00,1.35
7152.00,1.35
7151.00,1.34
7150.00,1.34
7149.00,1.34
7148.00,1.33
7147.00,1.33
7146.00,1.32
7145.00,1.32
7144.00,1.32
7143.00,1.31
7142.00,1.31
7141.00,1.31
7140.00,1.30
7139.00,1.30
7138.00,1.30
7137.00,1.30
7136.00,1.30
7135.00,1.30
7134.00,1.29
7133.00,1.29
7132.00,1.29
7131.00,1.29
7130.00,1.28
7129.00,1.28
7128.00,1.28
7127.00,1.28
7126.00,1.27
7125.00,1.27
7124.00,1.27
7123.00,1.27
7122.00,1.26
7121.00,1.26
7120.00,1.26
7119.00,1.26
7118.00,1.25
7117.00,1.25
7116.00,1.25
7115.00,1.25
7114.00,1.24
7113.00,1.24
7112.00,1.23
7111.00,1.23
7110.00,1.23
7109.00,1.22
7108.00,1.22
7107.00,1.22
7106.00,1.21
7105.00,1.21
7104.00,1.21
7103.00,1.20
7102.00,1.20
7101.00,1.20
7100.00,1.20
7099.00,1.20
7098.00,1.20
7097.00,1.19
7096.00,1.19
7095.00,1.19
7094.00,1.19
7093.00,1.19
7092.00,1.19
7091.00,1.19
7090.00,1.19
7089.00,1.19
7088.00,1.19
7087.00,1.19
7086.00,1.20
7085.00,1.20
7084.00,1.20
7083.00,1.20
7082.00,1.20
7081.00,1.21
7080.00,1.21
7079.00,1.21
7078.00,1.21
7077.00,1.21
7076.00,1.21
7075.00,1.22
7074.00,1.22
7073.00,1.22
7072.00,1.22
7071.00,1.22
7070.00,1.22
7069.00,1.22
7068.00,1.22
7067.00,1.22
7066.00,1.23
7065.00,1.23
7064.00,1.23
7063.00,1.23
7062.00,1.23
7061.00,1.23
7060.00,1.23
7059.00,1.23
7058.00,1.23
7057.00,1.23
7056.00,1.23
7055.00,1.23
7054.00,1.22
7053.00,1.22
7052.00,1.22
7051.00,1.22
7050.00,1.22
7049.00,1.22
7048.00,1.22
7047.00,1.22
7046.00,1.22
7045.00,1.22
7044.00,1.22
7043.00,1.22
7042.00,1.21
7041.00,1.21
7040.00,1.21
7039.00,1.21
7038.00,1.21
7037.00,1.21
7036.00,1.21
7035.00,1.21
7034.00,1.21
7033.00,1.21
7032.00,1.21
7031.00,1.21
7030.00,1.21
7029.00,1.21
7028.00,1.21
7027.00,1.21
7026.00,1.21
7025.00,1.21
7024.00,1.21
7023.00,1.21
7022.00,1.21
7021.00,1.21
7020.00,1.21
7019.00,1.21
7018.00,1.21
7017.00,1.21
7016.00,1.21
7015.00,1.22
7014.00,1.22
7013.00,1.22
7012.00,1.22
7011.00,1.22
7010.00,1.22
7009.00,1.22
7008.00,1.22
7007.00,1.22
7006.00,1.21
7005.00,1.21
7004.00,1.21
7003.00,1.21
7002.00,1.21
7001.00,1.21
7000.00,1.21
6999.00,1.21
6998.00,1.21
6997.00,1.21
6996.00,1.20
6995.00,1.20
6994.00,1.20
6993.00,1.20
6992.00,1.20
6991.00,1.20
6990.00,1.20
6989.00,1.19
6988.00,1.19
6987.00,1.19
6986.00,1.19
6985.00,1.19
6984.00,1.19
6983.00,1.18
6982.00,1.18
6981.00,1.18
6980.00,1.18
6979.00,1.18
6978.00,1.17
6977.00,1.17
6976.00,1.17
6975.00,1.17
6974.00,1.16
6973.00,1.16
6972.00,1.16
6971.00,1.16
6970.00,1.16
6969.00,1.15
6968.00,1.15
6967.00,1.15
6966.00,1.15
6965.00,1.14
6964.00,1.14
6963.00,1.14
6962.00,1.14
6961.00,1.13
6960.00,1.13
6959.00,1.13
6958.00,1.13
6957.00,1.12
6956.00,1.12
6955.00,1.12
6954.00,1.12
6953.00,1.12
6952.00,1.11
6951.00,1.11
6950.00,1.11
6949.00,1.11
6948.00,1.11
6947.00,1.11
6946.00,1.11
6945.00,1.11
6944.00,1.11
6943.00,1.11
6942.00,1.11
6941.00,1.11
6940.00,1.11
6939.00,1.11
6938.00,1.11
6937.00,1.11
6936.00,1.12
6935.00,1.12
6934.00,1.12
6933.00,1.12
6932.00,1.12
6931.00,1.12
6930.00,1.13
6929.00,1.13
6928.00,1.13
6927.00,1.13
6926.00,1.14
6925.00,1.14
6924.00,1.14
6923.00,1.14
6922.00,1.14
6921.00,1.15
6920.00,1.15
6919.00,1.15
6918.00,1.15
6917.00,1.15
6916.00,1.16
6915.00,1.16
6914.00,1.16
6913.00,1.16
6912.00,1.16
6911.00,1.16
6910.00,1.16
6909.00,1.16
6908.00,1.16
6907.00,1.16
6906.00,1.16
6905.00,1.16
6904.00,1.16
6903.00,1.16
6902.00,1.16
6901.00,1.16
6900.00,1.16
6899.00,1.16
6898.00,1.16
6897.00,1.15
6896.00,1.15
6895.00,1.15
6894.00,1.15
6893.00,1.15
6892.00,1.14
6891.00,1.14
6890.00,1.14
6889.00,1.14
6888.00,1.13
6887.00,1.13
6886.00,1.13
6885.00,1.13
6884.00,1.12
6883.00,1.12
6882.00,1.12
6881.00,1.12
6880.00,1.11
6879.00,1.11
6878.00,1.11
6877.00,1.11
6876.00,1.10
6875.00,1.10
6874.00,1.10
6873.00,1.10
6872.00,1.09
6871.00,1.09
6870.00,1.09
6869.00,1.09
6868.00,1.09
6867.00,1.08
6866.00,1.08
6865.00,1.08
6864.00,1.08
6863.00,1.08
6862.00,1.08
6861.00,1.07
6860.00,1.07
6859.00,1.07
6858.00,1.07
6857.00,1.07
6856.00,1.07
6855.00,1.07
6854.00,1.07
6853.00,1.06
6852.00,1.06
6851.00,1.06
6850.00,1.06
6849.00,1.06
6848.00,1.06
6847.00,1.06
6846.00,1.06
6845.00,1.06
6844.00,1.06
6843.00,1.06
6842.00,1.06
6841.00,1.06
6840.00,1.07
6839.00,1.07
6838.00,1.07
6837.00,1.07
6836.00,1.07
6835.00,1.07
6834.00,1.07
6833.00,1.07
6832.00,1.07
6831.00,1.08
6830.00,1.08
6829.00,1.08
6828.00,1.08
6827.00,1.08
6826.00,1.08
6825.00,1.08
6824.00,1.09
6823.00,1.09
6822.00,1.09
6821.00,1.09
6820.00,1.09
6819.00,1.09
6818.00,1.09
6817.00,1.09
6816.00,1.09
6815.00,1.09
6814.00,1.09
6813.00,1.09
6812.00,1.09
6811.00,1.09
6810.00,1.09
6809.00,1.09
6808.00,1.09
6807.00,1.08
6806.00,1.08
6805.00,1.08
6804.00,1.08
6803.00,1.08
6802.00,1.08
6801.00,1.08
6800.00,1.08
6799.00,1.08
6798.00,1.08
6797.00,1.08
6796.00,1.08
6795.00,1.08
6794.00,1.08
6793.00,1.08
6792.00,1.08
6791.00,1.08
6790.00,1.09
6789.00,1.09
6788.00,1.09
6787.00,1.09
6786.00,1.09
6785.00,1.10
6784.00,1.10
6783.00,1.10
6782.00,1.11
6781.00,1.11
6780.00,1.12
6779.00,1.12
6778.00,1.12
6777.00,1.13
6776.00,1.13
6775.00,1.14
6774.00,1.14
6773.00,1.14
6772.00,1.15
6771.00,1.15
6770.00,1.15
6769.00,1.15
6768.00,1.16
6767.00,1.16
6766.00,1.16
6765.00,1.17
6764.00,1.17
6763.00,1.17
6762.00,1.17
6761.00,1.17
6760.00,1.18
6759.00,1.18
6758.00,1.18
6757.00,1.18
6756.00,1.18
6755.00,1.18
6754.00,1.18
6753.00,1.18
6752.00,1.18
6751.00,1.19
6750.00,1.19
6749.00,1.19
6748.00,1.19
6747.00,1.19
6746.00,1.20
6745.00,1.20
6744.00,1.20
6743.00,1.20
6742.00,1.20
6741.00,1.21
6740.00,1.21
6739.00,1.21
6738.00,1.21
6737.00,1.21
6736.00,1.21
6735.00,1.21
6734.00,1.21
6733.00,1.21
6732.00,1.22
6731.00,1.22
6730.00,1.22
6729.00,1.22
6728.00,1.22
6727.00,1.21
6726.00,1.21
6725.00,1.21
6724.00,1.21
6723.00,1.21
6722.00,1.21
6721.00,1.21
6720.00,1.20
6719.00,1.20
6718.00,1.20
6717.00,1.20
6716.00,1.19
6715.00,1.19
6714.00,1.19
6713.00,1.19
6712.00,1.19
6711.00,1.19
6710.00,1.19
6709.00,1.19
6708.00,1.19
6707.00,1.19
6706.00,1.19
6705.00,1.19
6704.00,1.19
6703.00,1.19
6702.00,1.19
6701.00,1.19
6700.00,1.19
6699.00,1.19
6698.00,1.19
6697.00,1.20
6696.00,1.20
6695.00,1.20
6694.00,1.20
6693.00,1.20
6692.00,1.20
6691.00,1.20
6690.00,1.20
6689.00,1.21
6688.00,1.21
6687.00,1.21
6686.00,1.21
6685.00,1.21
6684.00,1.21
6683.00,1.21
6682.00,1.21
6681.00,1.21
6680.00,1.21
6679.00,1.20
6678.00,1.20
6677.00,1.20
6676.00,1.20
6675.00,1.20
6674.00,1.20
6673.00,1.21
6672.00,1.21
6671.00,1.21
6670.00,1.21
6669.00,1.21
6668.00,1.21
6667.00,1.21
6666.00,1.21
6665.00,1.21
6664.00,1.21
6663.00,1.21
6662.00,1.21
6661.00,1.22
6660.00,1.22
6659.00,1.22
6658.00,1.22
6657.00,1.23
6656.00,1.23
6655.00,1.23
6654.00,1.23
6653.00,1.24
6652.00,1.24
6651.00,1.24
6650.00,1.24
6649.00,1.25
6648.00,1.25
6647.00,1.25
6646.00,1.25
6645.00,1.26
6644.00,1.26
6643.00,1.26
6642.00,1.26
6641.00,1.26
6640.00,1.26
6639.00,1.27
6638.00,1.27
6637.00,1.27
6636.00,1.27
6635.00,1.27
6634.00,1.27
6633.00,1.27
6632.00,1.26
6631.00,1.26
6630.00,1.26
6629.00,1.26
6628.00,1.26
6627.00,1.26
6626.00,1.26
6625.00,1.26
6624.00,1.26
6623.00,1.26
6622.00,1.26
6621.00,1.26
6620.00,1.26
6619.00,1.27
6618.00,1.27
6617.00,1.27
6616.00,1.27
6615.00,1.27
6614.00,1.27
6613.00,1.27
6612.00,1.27
6611.00,1.27
6610.00,1.27
6609.00,1.28
6608.00,1.28
6607.00,1.28
6606.00,1.28
6605.00,1.28
6604.00,1.29
6603.00,1.29
6602.00,1.29
6601.00,1.29
6600.00,1.29
6599.00,1.29
6598.00,1.29
6597.00,1.29
6596.00,1.29
6595.00,1.29
6594.00,1.29
6593.00,1.29
6592.00,1.29
6591.00,1.29
6590.00,1.29
6589.00,1.29
6588.00,1.29
6587.00,1.29
6586.00,1.29
6585.00,1.29
6584.00,1.29
6583.00,1.29
6582.00,1.29
6581.00,1.29
6580.00,1.29
6579.00,1.29
6578.00,1.29
6577.00,1.29
6576.00,1.29
6575.00,1.29
6574.00,1.29
6573.00,1.29
6572.00,1.29
6571.00,1.29
6570.00,1.29
6569.00,1.29
6568.00,1.29
6567.00,1.30
6566.00,1.30
6565.00,1.30
6564.00,1.30
6563.00,1.30
6562.00,1.31
6561.00,1.31
6560.00,1.31
6559.00,1.31
6558.00,1.32
6557.00,1.32
6556.00,1.32
6555.00,1.32
6554.00,1.33
6553.00,1.33
6552.00,1.33
6551.00,1.33
6550.00,1.33
6549.00,1.34
6548.00,1.34
6547.00,1.34
6546.00,1.35
6545.00,1.35
6544.00,1.35
6543.00,1.36
6542.00,1.36
6541.00,1.36
6540.00,1.36
6539.00,1.37
6538.00,1.37
6537.00,1.37
6536.00,1.37
6535.00,1.37
6534.00,1.37
6533.00,1.38
6532.00,1.38
6531.00,1.38
6530.00,1.38
6529.00,1.38
6528.00,1.38
6527.00,1.38
6526.00,1.38
6525.00,1.38
6524.00,1.38
6523.00,1.38
6522.00,1.38
6521.00,1.38
6520.00,1.38
6519.00,1.38
6518.00,1.38
6517.00,1.37
6516.00,1.37
6515.00,1.37
6514.00,1.37
6513.00,1.37
6512.00,1.37
6511.00,1.37
6510.00,1.37
6509.00,1.37
6508.00,1.37
6507.00,1.37
6506.00,1.37
6505.00,1.37
6504.00,1.37
6503.00,1.37
6502.00,1.37
6501.00,1.37
6500.00,1.37
6499.00,1.37
6498.00,1.37
6497.00,1.38
6496.00,1.38
6495.00,1.38
6494.00,1.38
6493.00,1.38
6492.00,1.38
6491.00,1.39
6490.00,1.39
6489.00,1.39
6488.00,1.39
6487.00,1.39
6486.00,1.39
6485.00,1.39
6484.00,1.39
6483.00,1.40
6482.00,1.40
6481.00,1.40
6480.00,1.40
6479.00,1.40
6478.00,1.40
6477.00,1.40
6476.00,1.40
6475.00,1.41
6474.00,1.41
6473.00,1.41
6472.00,1.41
6471.00,1.41
6470.00,1.41
6469.00,1.41
6468.00,1.41
6467.00,1.41
6466.00,1.41
6465.00,1.41
6464.00,1.41
6463.00,1.41
6462.00,1.41
6461.00,1.41
6460.00,1.41
6459.00,1.41
6458.00,1.41
6457.00,1.41
6456.00,1.41
6455.00,1.41
6454.00,1.41
6453.00,1.41
6452.00,1.41
6451.00,1.41
6450.00,1.40
6449.00,1.40
6448.00,1.40
6447.00,1.40
6446.00,1.40
6445.00,1.40
6444.00,1.40
6443.00,1.40
6442.00,1.40
6441.00,1.40
6440.00,1.40
6439.00,1.40
6438.00,1.40
6437.00,1.40
6436.00,1.40
6435.00,1.40
6434.00,1.40
6433.00,1.40
6432.00,1.41
6431.00,1.41
6430.00,1.41
6429.00,1.41
6428.00,1.41
6427.00,1.41
6426.00,1.41
6425.00,1.41
6424.00,1.41
6423.00,1.41
6422.00,1.41
6421.00,1.41
6420.00,1.41
6419.00,1.41
6418.00,1.41
6417.00,1.41
6416.00,1.41
6415.00,1.41
6414.00,1.41
6413.00,1.41
6412.00,1.41
6411.00,1.41
6410.00,1.41
6409.00,1.41
6408.00,1.41
6407.00,1.41
6406.00,1.41
6405.00,1.40
6404.00,1.40
6403.00,1.40
6402.00,1.40
6401.00,1.40
6400.00,1.40
6399.00,1.40
6398.00,1.40
6397.00,1.40
6396.00,1.40
6395.00,1.40
6394.00,1.40
6393.00,1.40
6392.00,1.40
6391.00,1.40
6390.00,1.40
6389.00,1.40
6388.00,1.40
6387.00,1.40
6386.00,1.40
6385.00,1.41
6384.00,1.41
6383.00,1.41
6382.00,1.41
6381.00,1.41
6380.00,1.42
6379.00,1.42
6378.00,1.42
6377.00,1.42
6376.00,1.42
6375.00,1.42
6374.00,1.43
6373.00,1.43
6372.00,1.43
6371.00,1.43
6370.00,1.43
6369.00,1.44
6368.00,1.44
6367.00,1.44
6366.00,1.45
6365.00,1.45
6364.00,1.45
6363.00,1.45
6362.00,1.46
6361.00,1.46
6360.00,1.46
6359.00,1.46
6358.00,1.46
6357.00,1.46
6356.00,1.47
6355.00,1.47
6354.00,1.47
6353.00,1.47
6352.00,1.47
6351.00,1.47
6350.00,1.47
6349.00,1.47
6348.00,1.47
6347.00,1.47
6346.00,1.47
6345.00,1.48
6344.00,1.48
6343.00,1.48
6342.00,1.48
6341.00,1.48
6340.00,1.48
6339.00,1.48
6338.00,1.48
6337.00,1.48
6336.00,1.48
6335.00,1.48
6334.00,1.48
6333.00,1.48
6332.00,1.48
6331.00,1.48
6330.00,1.48
6329.00,1.48
6328.00,1.49
6327.00,1.49
6326.00,1.49
6325.00,1.49
6324.00,1.49
6323.00,1.49
6322.00,1.50
6321.00,1.50
6320.00,1.50
6319.00,1.50
6318.00,1.50
6317.00,1.50
6316.00,1.51
6315.00,1.51
6314.00,1.51
6313.00,1.51
6312.00,1.51
6311.00,1.51
6310.00,1.52
6309.00,1.52
6308.00,1.52
6307.00,1.52
6306.00,1.52
6305.00,1.52
6304.00,1.52
6303.00,1.52
6302.00,1.52
6301.00,1.52
6300.00,1.52
6299.00,1.52
6298.00,1.52
6297.00,1.52
6296.00,1.51
6295.00,1.51
6294.00,1.51
6293.00,1.51
6292.00,1.52
6291.00,1.52
6290.00,1.52
6289.00,1.52
6288.00,1.52
6287.00,1.52
6286.00,1.52
6285.00,1.52
6284.00,1.52
6283.00,1.52
6282.00,1.52
6281.00,1.53
6280.00,1.53
6279.00,1.53
6278.00,1.53
6277.00,1.53
6276.00,1.53
6275.00,1.53
6274.00,1.53
6273.00,1.54
6272.00,1.54
6271.00,1.54
6270.00,1.54
6269.00,1.54
6268.00,1.54
6267.00,1.54
6266.00,1.55
6265.00,1.55
6264.00,1.55
6263.00,1.55
6262.00,1.55
6261.00,1.55
6260.00,1.55
6259.00,1.55
6258.00,1.55
6257.00,1.55
6256.00,1.55
6255.00,1.55
6254.00,1.55
6253.00,1.55
6252.00,1.55
6251.00,1.55
6250.00,1.55
6249.00,1.55
6248.00,1.55
6247.00,1.55
6246.00,1.55
6245.00,1.55
6244.00,1.55
6243.00,1.55
6242.00,1.55
6241.00,1.55
6240.00,1.55
6239.00,1.55
6238.00,1.56
6237.00,1.56
6236.00,1.56
6235.00,1.56
6234.00,1.56
6233.00,1.56
6232.00,1.56
6231.00,1.56
6230.00,1.56
6229.00,1.56
6228.00,1.56
6227.00,1.57
6226.00,1.57
6225.00,1.57
6224.00,1.57
6223.00,1.57
6222.00,1.57
6221.00,1.57
6220.00,1.57
6219.00,1.58
6218.00,1.58
6217.00,1.58
6216.00,1.58
6215.00,1.58
6214.00,1.58
6213.00,1.58
6212.00,1.58
6211.00,1.58
6210.00,1.58
6209.00,1.58
6208.00,1.58
6207.00,1.58
6206.00,1.59
6205.00,1.59
6204.00,1.59
6203.00,1.59
6202.00,1.59
6201.00,1.59
6200.00,1.59
6199.00,1.59
6198.00,1.59
6197.00,1.59
6196.00,1.59
6195.00,1.59
6194.00,1.59
6193.00,1.59
6192.00,1.59
6191.00,1.60
6190.00,1.60
6189.00,1.60
6188.00,1.60
6187.00,1.60
6186.00,1.60
6185.00,1.60
6184.00,1.61
6183.00,1.61
6182.00,1.61
6181.00,1.61
6180.00,1.62
6179.00,1.62
6178.00,1.62
6177.00,1.62
6176.00,1.62
6175.00,1.62
6174.00,1.63
6173.00,1.63
6172.00,1.63
6171.00,1.63
6170.00,1.63
6169.00,1.63
6168.00,1.63
6167.00,1.63
6166.00,1.63
6165.00,1.63
6164.00,1.63
6163.00,1.63
6162.00,1.63
6161.00,1.63
6160.00,1.63
6159.00,1.62
6158.00,1.62
6157.00,1.62
6156.00,1.62
6155.00,1.62
6154.00,1.62
6153.00,1.62
6152.00,1.62
6151.00,1.62
6150.00,1.62
6149.00,1.62
6148.00,1.62
6147.00,1.62
6146.00,1.62
6145.00,1.62
6144.00,1.62
6143.00,1.62
6142.00,1.62
6141.00,1.62
6140.00,1.62
6139.00,1.63
6138.00,1.63
6137.00,1.63
6136.00,1.63
6135.00,1.63
6134.00,1.63
6133.00,1.63
6132.00,1.63
6131.00,1.63
6130.00,1.63
6129.00,1.63
6128.00,1.63
6127.00,1.63
6126.00,1.63
6125.00,1.63
6124.00,1.63
6123.00,1.63
6122.00,1.63
6121.00,1.63
6120.00,1.63
6119.00,1.63
6118.00,1.63
6117.00,1.64
6116.00,1.64
6115.00,1.64
6114.00,1.64
6113.00,1.64
6112.00,1.64
6111.00,1.64
6110.00,1.64
6109.00,1.64
6108.00,1.64
6107.00,1.64
6106.00,1.64
6105.00,1.64
6104.00,1.64
6103.00,1.64
6102.00,1.64
6101.00,1.64
6100.00,1.64
6099.00,1.64
6098.00,1.64
6097.00,1.64
6096.00,1.64
6095.00,1.64
6094.00,1.64
6093.00,1.64
6092.00,1.64
6091.00,1.64
6090.00,1.64
6089.00,1.64
6088.00,1.64
6087.00,1.65
6086.00,1.65
6085.00,1.65
6084.00,1.65
6083.00,1.65
6082.00,1.66
6081.00,1.66
6080.00,1.66
6079.00,1.66
6078.00,1.66
6077.00,1.67
6076.00,1.67
6075.00,1.67
6074.00,1.67
6073.00,1.67
6072.00,1.68
6071.00,1.68
6070.00,1.68
6069.00,1.68
6068.00,1.68
6067.00,1.68
6066.00,1.68
6065.00,1.68
6064.00,1.68
6063.00,1.68
6062.00,1.68
6061.00,1.68
6060.00,1.68
6059.00,1.68
6058.00,1.68
6057.00,1.68
6056.00,1.68
6055.00,1.68
6054.00,1.68
6053.00,1.68
6052.00,1.68
6051.00,1.68
6050.00,1.68
6049.00,1.68
6048.00,1.68
6047.00,1.68
6046.00,1.68
6045.00,1.68
6044.00,1.68
6043.00,1.68
6042.00,1.68
6041.00,1.68
6040.00,1.68
6039.00,1.68
6038.00,1.68
6037.00,1.68
6036.00,1.68
6035.00,1.68
6034.00,1.68
6033.00,1.69
6032.00,1.69
6031.00,1.69
6030.00,1.69
6029.00,1.69
6028.00,1.69
6027.00,1.69
6026.00,1.69
6025.00,1.69
6024.00,1.69
6023.00,1.69
6022.00,1.69
6021.00,1.69
6020.00,1.69
6019.00,1.69
6018.00,1.69
6017.00,1.69
6016.00,1.69
6015.00,1.69
6014.00,1.69
6013.00,1.69
6012.00,1.69
6011.00,1.69
6010.00,1.70
6009.00,1.70
6008.00,1.70
6007.00,1.70
6006.00,1.70
6005.00,1.70
6004.00,1.69
6003.00,1.69
6002.00,1.69
6001.00,1.69
6000.00,1.69
5999.00,1.69
5998.00,1.69
5997.00,1.69
5996.00,1.69
5995.00,1.69
5994.00,1.69
5993.00,1.69
5992.00,1.69
5991.00,1.69
5990.00,1.69
5989.00,1.68
5988.00,1.68
5987.00,1.68
5986.00,1.68
5985.00,1.68
5984.00,1.67
5983.00,1.67
5982.00,1.67
5981.00,1.67
5980.00,1.67
5979.00,1.66
5978.00,1.66
5977.00,1.66
5976.00,1.66
5975.00,1.65
5974.00,1.65
5973.00,1.65
5972.00,1.65
5971.00,1.64
5970.00,1.64
5969.00,1.64
5968.00,1.63
5967.00,1.63
5966.00,1.63
5965.00,1.63
5964.00,1.62
5963.00,1.62
5962.00,1.62
5961.00,1.61
5960.00,1.61
5959.00,1.61
5958.00,1.61
5957.00,1.61
5956.00,1.60
5955.00,1.60
5954.00,1.60
5953.00,1.60
5952.00,1.60
5951.00,1.59
5950.00,1.59
5949.00,1.59
5948.00,1.59
5947.00,1.59
5946.00,1.59
5945.00,1.59
5944.00,1.59
5943.00,1.59
5942.00,1.59
5941.00,1.59
5940.00,1.58
5939.00,1.58
5938.00,1.58
5937.00,1.58
5936.00,1.58
5935.00,1.58
5934.00,1.58
5933.00,1.58
5932.00,1.58
5931.00,1.57
5930.00,1.57
5929.00,1.57
5928.00,1.57
5927.00,1.57
5926.00,1.57
5925.00,1.57
5924.00,1.56
5923.00,1.56
5922.00,1.56
5921.00,1.56
5920.00,1.56
5919.00,1.56
5918.00,1.56
5917.00,1.55
5916.00,1.55
5915.00,1.55
5914.00,1.55
5913.00,1.55
5912.00,1.55
5911.00,1.55
5910.00,1.55
5909.00,1.55
5908.00,1.55
5907.00,1.55
5906.00,1.55
5905.00,1.55
5904.00,1.55
5903.00,1.55
5902.00,1.56
5901.00,1.56
5900.00,1.56
5899.00,1.56
5898.00,1.56
5897.00,1.56
5896.00,1.56
5895.00,1.56
5894.00,1.57
5893.00,1.57
5892.00,1.57
5891.00,1.57
5890.00,1.57
5889.00,1.57
5888.00,1.58
5887.00,1.58
5886.00,1.58
5885.00,1.58
5884.00,1.58
5883.00,1.58
5882.00,1.59
5881.00,1.59
5880.00,1.59
5879.00,1.59
5878.00,1.60
5877.00,1.60
5876.00,1.60
5875.00,1.60
5874.00,1.61
5873.00,1.61
5872.00,1.61
5871.00,1.61
5870.00,1.61
5869.00,1.61
5868.00,1.61
5867.00,1.62
5866.00,1.62
5865.00,1.62
5864.00,1.62
5863.00,1.62
5862.00,1.62
5861.00,1.62
5860.00,1.62
5859.00,1.62
5858.00,1.62
5857.00,1.62
5856.00,1.62
5855.00,1.62
5854.00,1.62
5853.00,1.62
5852.00,1.62
5851.00,1.62
5850.00,1.62
5849.00,1.62
5848.00,1.62
5847.00,1.62
5846.00,1.62
5845.00,1.62
5844.00,1.62
5843.00,1.62
5842.00,1.62
5841.00,1.62
5840.00,1.62
5839.00,1.62
5838.00,1.62
5837.00,1.62
5836.00,1.62
5835.00,1.62
5834.00,1.62
5833.00,1.62
5832.00,1.62
5831.00,1.62
5830.00,1.62
5829.00,1.62
5828.00,1.62
5827.00,1.62
5826.00,1.62
5825.00,1.62
5824.00,1.62
5823.00,1.62
5822.00,1.62
5821.00,1.62
5820.00,1.62
5819.00,1.62
5818.00,1.62
5817.00,1.62
5816.00,1.62
5815.00,1.62
5814.00,1.62
5813.00,1.62
5812.00,1.62
5811.00,1.62
5810.00,1.62
5809.00,1.62
5808.00,1.62
5807.00,1.62
5806.00,1.62
5805.00,1.62
5804.00,1.62
5803.00,1.62
5802.00,1.62
5801.00,1.62
5800.00,1.62
5799.00,1.62
5798.00,1.62
5797.00,1.62
5796.00,1.62
5795.00,1.62
5794.00,1.62
5793.00,1.61
5792.00,1.61
5791.00,1.61
5790.00,1.61
5789.00,1.61
5788.00,1.61
5787.00,1.61
5786.00,1.61
5785.00,1.61
5784.00,1.61
5783.00,1.61
5782.00,1.61
5781.00,1.60
5780.00,1.60
5779.00,1.60
5778.00,1.60
5777.00,1.60
5776.00,1.60
5775.00,1.60
5774.00,1.60
5773.00,1.60
5772.00,1.60
5771.00,1.60
5770.00,1.60
5769.00,1.61
5768.00,1.61
5767.00,1.61
5766.00,1.61
5765.00,1.61
5764.00,1.61
5763.00,1.61
5762.00,1.62
5761.00,1.62
5760.00,1.62
5759.00,1.62
5758.00,1.62
5757.00,1.63
5756.00,1.63
5755.00,1.63
5754.00,1.63
5753.00,1.64
5752.00,1.64
5751.00,1.64
5750.00,1.64
5749.00,1.65
5748.00,1.65
5747.00,1.65
5746.00,1.65
5745.00,1.65
5744.00,1.65
5743.00,1.66
5742.00,1.66
5741.00,1.66
5740.00,1.66
5739.00,1.66
5738.00,1.66
5737.00,1.66
5736.00,1.66
5735.00,1.66
5734.00,1.66
5733.00,1.66
5732.00,1.66
5731.00,1.66
5730.00,1.66
5729.00,1.66
5728.00,1.66
5727.00,1.66
5726.00,1.66
5725.00,1.66
5724.00,1.66
5723.00,1.65
5722.00,1.65
5721.00,1.65
5720.00,1.65
5719.00,1.65
5718.00,1.65
5717.00,1.65
5716.00,1.65
5715.00,1.65
5714.00,1.65
5713.00,1.65
5712.00,1.65
5711.00,1.65
5710.00,1.65
5709.00,1.65
5708.00,1.65
5707.00,1.65
5706.00,1.65
5705.00,1.65
5704.00,1.65
5703.00,1.65
5702.00,1.65
5701.00,1.65
5700.00,1.65
5699.00,1.65
5698.00,1.65
5697.00,1.65
5696.00,1.65
5695.00,1.65
5694.00,1.65
5693.00,1.65
5692.00,1.65
5691.00,1.65
5690.00,1.65
5689.00,1.64
5688.00,1.64
5687.00,1.64
5686.00,1.64
5685.00,1.64
5684.00,1.64
5683.00,1.64
5682.00,1.64
5681.00,1.64
5680.00,1.64
5679.00,1.64
5678.00,1.63
5677.00,1.63
5676.00,1.63
5675.00,1.63
5674.00,1.63
5673.00,1.63
5672.00,1.62
5671.00,1.62
5670.00,1.62
5669.00,1.62
5668.00,1.62
5667.00,1.62
5666.00,1.61
5665.00,1.61
5664.00,1.61
5663.00,1.61
5662.00,1.61
5661.00,1.61
5660.00,1.61
5659.00,1.61
5658.00,1.61
5657.00,1.61
5656.00,1.62
5655.00,1.62
5654.00,1.62
5653.00,1.62
5652.00,1.62
5651.00,1.62
5650.00,1.63
5649.00,1.63
5648.00,1.63
5647.00,1.63
5646.00,1.64
5645.00,1.64
5644.00,1.64
5643.00,1.65
5642.00,1.65
5641.00,1.65
5640.00,1.65
5639.00,1.66
5638.00,1.66
5637.00,1.66
5636.00,1.66
5635.00,1.66
5634.00,1.67
5633.00,1.67
5632.00,1.67
5631.00,1.67
5630.00,1.67
5629.00,1.67
5628.00,1.67
5627.00,1.67
5626.00,1.67
5625.00,1.67
5624.00,1.67
5623.00,1.67
5622.00,1.67
5621.00,1.67
5620.00,1.67
5619.00,1.67
5618.00,1.67
5617.00,1.67
5616.00,1.66
5615.00,1.66
5614.00,1.66
5613.00,1.66
5612.00,1.66
5611.00,1.66
5610.00,1.66
5609.00,1.66
5608.00,1.66
5607.00,1.66
5606.00,1.66
5605.00,1.66
5604.00,1.66
5603.00,1.66
5602.00,1.66
5601.00,1.66
5600.00,1.66
5599.00,1.66
5598.00,1.66
5597.00,1.66
5596.00,1.66
5595.00,1.66
5594.00,1.67
5593.00,1.67
5592.00,1.67
5591.00,1.67
5590.00,1.67
5589.00,1.67
5588.00,1.67
5587.00,1.67
5586.00,1.67
5585.00,1.67
5584.00,1.67
5583.00,1.67
5582.00,1.67
5581.00,1.67
5580.00,1.67
5579.00,1.67
5578.00,1.67
5577.00,1.67
5576.00,1.67
5575.00,1.67
5574.00,1.67
5573.00,1.67
5572.00,1.67
5571.00,1.67
5570.00,1.67
5569.00,1.68
5568.00,1.68
5567.00,1.68
5566.00,1.68
5565.00,1.68
5564.00,1.68
5563.00,1.68
5562.00,1.68
5561.00,1.68
5560.00,1.68
5559.00,1.68
5558.00,1.68
5557.00,1.69
5556.00,1.69
5555.00,1.69
5554.00,1.69
5553.00,1.69
5552.00,1.69
5551.00,1.69
5550.00,1.69
5549.00,1.69
5548.00,1.69
5547.00,1.69
5546.00,1.69
5545.00,1.69
5544.00,1.69
5543.00,1.69
5542.00,1.69
5541.00,1.69
5540.00,1.69
5539.00,1.69
5538.00,1.69
5537.00,1.69
5536.00,1.69
5535.00,1.69
5534.00,1.69
5533.00,1.69
5532.00,1.69
5531.00,1.69
5530.00,1.69
5529.00,1.69
5528.00,1.69
5527.00,1.70
5526.00,1.70
5525.00,1.70
5524.00,1.70
5523.00,1.70
5522.00,1.70
5521.00,1.70
5520.00,1.71
5519.00,1.71
5518.00,1.71
5517.00,1.71
5516.00,1.71
5515.00,1.72
5514.00,1.72
5513.00,1.72
5512.00,1.72
5511.00,1.72
5510.00,1.72
5509.00,1.72
5508.00,1.72
5507.00,1.72
5506.00,1.73
5505.00,1.73
5504.00,1.73
5503.00,1.73
5502.00,1.73
5501.00,1.73
5500.00,1.73
5499.00,1.73
5498.00,1.73
5497.00,1.73
5496.00,1.73
5495.00,1.73
5494.00,1.72
5493.00,1.72
5492.00,1.72
5491.00,1.72
5490.00,1.72
5489.00,1.72
5488.00,1.72
5487.00,1.72
5486.00,1.72
5485.00,1.72
5484.00,1.72
5483.00,1.72
5482.00,1.72
5481.00,1.72
5480.00,1.72
5479.00,1.72
5478.00,1.72
5477.00,1.72
5476.00,1.72
5475.00,1.72
5474.00,1.72
5473.00,1.72
5472.00,1.72
5471.00,1.72
5470.00,1.72
5469.00,1.72
5468.00,1.72
5467.00,1.72
5466.00,1.72
5465.00,1.72
5464.00,1.72
5463.00,1.72
5462.00,1.72
5461.00,1.72
5460.00,1.72
5459.00,1.72
5458.00,1.72
5457.00,1.72
5456.00,1.72
5455.00,1.72
5454.00,1.72
5453.00,1.72
5452.00,1.72
5451.00,1.72
5450.00,1.72
5449.00,1.72
5448.00,1.72
5447.00,1.72
5446.00,1.72
5445.00,1.72
5444.00,1.72
5443.00,1.72
5442.00,1.72
5441.00,1.72
5440.00,1.72
5439.00,1.72
5438.00,1.72
5437.00,1.72
5436.00,1.72
5435.00,1.72
5434.00,1.72
5433.00,1.72
5432.00,1.72
5431.00,1.72
5430.00,1.72
5429.00,1.72
5428.00,1.72
5427.00,1.72
5426.00,1.72
5425.00,1.72
5424.00,1.72
5423.00,1.72
5422.00,1.72
5421.00,1.72
5420.00,1.72
5419.00,1.72
5418.00,1.72
5417.00,1.72
5416.00,1.72
5415.00,1.72
5414.00,1.72
5413.00,1.72
5412.00,1.72
5411.00,1.71
5410.00,1.71
5409.00,1.71
5408.00,1.71
5407.00,1.71
5406.00,1.71
5405.00,1.71
5404.00,1.71
5403.00,1.71
5402.00,1.71
5401.00,1.70
5400.00,1.70
5399.00,1.70
5398.00,1.70
5397.00,1.70
5396.00,1.70
5395.00,1.70
5394.00,1.70
5393.00,1.70
5392.00,1.70
5391.00,1.70
5390.00,1.70
5389.00,1.70
5388.00,1.70
5387.00,1.70
5386.00,1.70
5385.00,1.70
5384.00,1.70
5383.00,1.70
5382.00,1.70
5381.00,1.70
5380.00,1.70
5379.00,1.70
5378.00,1.70
5377.00,1.70
5376.00,1.70
5375.00,1.70
5374.00,1.70
5373.00,1.69
5372.00,1.69
5371.00,1.69
5370.00,1.69
5369.00,1.69
5368.00,1.69
5367.00,1.68
5366.00,1.68
5365.00,1.68
5364.00,1.67
5363.00,1.67
5362.00,1.67
5361.00,1.66
5360.00,1.66
5359.00,1.65
5358.00,1.65
5357.00,1.64
5356.00,1.63
5355.00,1.63
5354.00,1.62
5353.00,1.61
5352.00,1.61
5351.00,1.60
5350.00,1.59
5349.00,1.59
5348.00,1.58
5347.00,1.57
5346.00,1.56
5345.00,1.56
5344.00,1.55
5343.00,1.54
5342.00,1.53
5341.00,1.52
5340.00,1.52
5339.00,1.51
5338.00,1.50
5337.00,1.49
5336.00,1.49
5335.00,1.48
5334.00,1.47
5333.00,1.46
5332.00,1.45
5331.00,1.45
5330.00,1.44
5329.00,1.43
5328.00,1.43
5327.00,1.42
5326.00,1.41
5325.00,1.41
5324.00,1.40
5323.00,1.39
5322.00,1.38
5321.00,1.38
5320.00,1.37
5319.00,1.36
5318.00,1.35
5317.00,1.35
5316.00,1.34
5315.00,1.33
5314.00,1.32
5313.00,1.31
5312.00,1.30
5311.00,1.30
5310.00,1.29
5309.00,1.28
5308.00,1.27
5307.00,1.26
5306.00,1.25
5305.00,1.25
5304.00,1.24
5303.00,1.23
5302.00,1.22
5301.00,1.21
5300.00,1.20
5299.00,1.19
5298.00,1.19
5297.00,1.18
5296.00,1.17
5295.00,1.16
5294.00,1.15
5293.00,1.14
5292.00,1.14
5291.00,1.13
5290.00,1.12
5289.00,1.11
5288.00,1.11
5287.00,1.10
5286.00,1.09
5285.00,1.09
5284.00,1.08
5283.00,1.07
5282.00,1.07
5281.00,1.06
5280.00,1.05
5279.00,1.05
5278.00,1.04
5277.00,1.03
5276.00,1.03
5275.00,1.02
5274.00,1.02
5273.00,1.01
5272.00,1.01
5271.00,1.00
5270.00,1.00
5269.00,0.99
5268.00,0.98
5267.00,0.98
5266.00,0.97
5265.00,0.97
5264.00,0.96
5263.00,0.96
5262.00,0.95
5261.00,0.95
5260.00,0.94
5259.00,0.94
5258.00,0.93
5257.00,0.93
5256.00,0.92
5255.00,0.91
5254.00,0.91
5253.00,0.90
5252.00,0.90
5251.00,0.90
5250.00,0.89
5249.00,0.89
5248.00,0.88
5247.00,0.88
5246.00,0.88
5245.00,0.87
5244.00,0.87
5243.00,0.87
5242.00,0.87
5241.00,0.86
5240.00,0.86
5239.00,0.86
5238.00,0.86
5237.00,0.86
5236.00,0.86
5235.00,0.86
5234.00,0.86
5233.00,0.85
5232.00,0.85
5231.00,0.85
5230.00,0.85
5229.00,0.85
5228.00,0.85
5227.00,0.85
5226.00,0.85
5225.00,0.85
5224.00,0.85
5223.00,0.85
5222.00,0.85
5221.00,0.85
5220.00,0.85
5219.00,0.84
5218.00,0.84
5217.00,0.84
5216.00,0.84
5215.00,0.84
5214.00,0.84
5213.00,0.83
5212.00,0.83
5211.00,0.83
5210.00,0.83
5209.00,0.83
5208.00,0.82
5207.00,0.82
5206.00,0.82
5205.00,0.82
5204.00,0.82
5203.00,0.82
5202.00,0.82
5201.00,0.82
5200.00,0.82
5199.00,0.82
5198.00,0.82
5197.00,0.82
5196.00,0.82
5195.00,0.82
5194.00,0.82
5193.00,0.82
5192.00,0.82
5191.00,0.82
5190.00,0.82
5189.00,0.82
5188.00,0.82
5187.00,0.82
5186.00,0.82
5185.00,0.82
5184.00,0.82
5183.00,0.82
5182.00,0.82
5181.00,0.82
5180.00,0.82
5179.00,0.82
5178.00,0.82
5177.00,0.82
5176.00,0.82
5175.00,0.82
5174.00,0.82
5173.00,0.82
5172.00,0.82
5171.00,0.82
5170.00,0.82
5169.00,0.82
5168.00,0.82
5167.00,0.82
5166.00,0.81
5165.00,0.81
5164.00,0.81
5163.00,0.81
5162.00,0.81
5161.00,0.81
5160.00,0.81
5159.00,0.81
5158.00,0.81
5157.00,0.81
5156.00,0.81
5155.00,0.81
5154.00,0.81
5153.00,0.81
5152.00,0.81
5151.00,0.81
5150.00,0.81
5149.00,0.81
5148.00,0.81
5147.00,0.81
5146.00,0.81
5145.00,0.81
5144.00,0.81
5143.00,0.81
5142.00,0.81
5141.00,0.81
5140.00,0.82
5139.00,0.82
5138.00,0.82
5137.00,0.82
5136.00,0.82
5135.00,0.82
5134.00,0.82
5133.00,0.82
5132.00,0.82
5131.00,0.82
5130.00,0.82
5129.00,0.83
5128.00,0.83
5127.00,0.83
5126.00,0.83
5125.00,0.83
5124.00,0.83
5123.00,0.83
5122.00,0.83
5121.00,0.84
5120.00,0.84
5119.00,0.84
5118.00,0.84
5117.00,0.84
5116.00,0.84
5115.00,0.85
5114.00,0.85
5113.00,0.85
5112.00,0.85
5111.00,0.85
5110.00,0.85
5109.00,0.86
5108.00,0.86
5107.00,0.86
5106.00,0.86
5105.00,0.87
5104.00,0.87
5103.00,0.87
5102.00,0.88
5101.00,0.88
5100.00,0.88
5099.00,0.88
5098.00,0.89
5097.00,0.89
5096.00,0.89
5095.00,0.89
5094.00,0.90
5093.00,0.90
5092.00,0.90
5091.00,0.91
5090.00,0.91
5089.00,0.91
5088.00,0.92
5087.00,0.92
5086.00,0.92
5085.00,0.93
5084.00,0.93
5083.00,0.93
5082.00,0.94
5081.00,0.94
5080.00,0.94
5079.00,0.94
5078.00,0.95
5077.00,0.95
5076.00,0.95
5075.00,0.95
5074.00,0.96
5073.00,0.96
5072.00,0.96
5071.00,0.96
5070.00,0.96
5069.00,0.97
5068.00,0.97
5067.00,0.97
5066.00,0.97
5065.00,0.97
5064.00,0.97
5063.00,0.98
5062.00,0.98
5061.00,0.98
5060.00,0.98
5059.00,0.98
5058.00,0.98
5057.00,0.98
5056.00,0.98
5055.00,0.98
5054.00,0.98
5053.00,0.99
5052.00,0.99
5051.00,0.99
5050.00,0.99
5049.00,0.99
5048.00,0.99
5047.00,0.99
5046.00,1.00
5045.00,1.00
5044.00,1.00
5043.00,1.00
5042.00,1.00
5041.00,1.01
5040.00,1.01
5039.00,1.01
5038.00,1.01
5037.00,1.01
5036.00,1.02
5035.00,1.02
5034.00,1.02
5033.00,1.03
5032.00,1.03
5031.00,1.03
5030.00,1.03
5029.00,1.04
5028.00,1.04
5027.00,1.04
5026.00,1.05
5025.00,1.05
5024.00,1.05
5023.00,1.05
5022.00,1.06
5021.00,1.06
5020.00,1.06
5019.00,1.06
5018.00,1.07
5017.00,1.07
5016.00,1.07
5015.00,1.07
5014.00,1.07
5013.00,1.07
5012.00,1.08
5011.00,1.08
5010.00,1.08
5009.00,1.08
5008.00,1.08
5007.00,1.08
5006.00,1.08
5005.00,1.08
5004.00,1.09
5003.00,1.09
5002.00,1.09
5001.00,1.09
5000.00,1.09
4999.00,1.09
4998.00,1.09
4997.00,1.10
4996.00,1.10
4995.00,1.10
4994.00,1.10
4993.00,1.10
4992.00,1.10
4991.00,1.11
4990.00,1.11
4989.00,1.11
4988.00,1.11
4987.00,1.12
4986.00,1.12
4985.00,1.12
4984.00,1.12
4983.00,1.13
4982.00,1.13
4981.00,1.13
4980.00,1.13
4979.00,1.14
4978.00,1.14
4977.00,1.14
4976.00,1.14
4975.00,1.14
4974.00,1.14
4973.00,1.15
4972.00,1.15
4971.00,1.15
4970.00,1.15
4969.00,1.15
4968.00,1.16
4967.00,1.16
4966.00,1.16
4965.00,1.16
4964.00,1.16
4963.00,1.16
4962.00,1.17
4961.00,1.17
4960.00,1.17
4959.00,1.17
4958.00,1.17
4957.00,1.18
4956.00,1.18
4955.00,1.18
4954.00,1.18
4953.00,1.18
4952.00,1.19
4951.00,1.19
4950.00,1.19
4949.00,1.19
4948.00,1.20
4947.00,1.20
4946.00,1.20
4945.00,1.20
4944.00,1.20
4943.00,1.21
4942.00,1.21
4941.00,1.21
4940.00,1.21
4939.00,1.22
4938.00,1.22
4937.00,1.22
4936.00,1.22
4935.00,1.23
4934.00,1.23
4933.00,1.23
4932.00,1.23
4931.00,1.23
4930.00,1.23
4929.00,1.24
4928.00,1.24
4927.00,1.24
4926.00,1.24
4925.00,1.24
4924.00,1.24
4923.00,1.24
4922.00,1.24
4921.00,1.25
4920.00,1.25
4919.00,1.25
4918.00,1.25
4917.00,1.25
4916.00,1.25
4915.00,1.25
4914.00,1.25
4913.00,1.25
4912.00,1.25
4911.00,1.25
4910.00,1.25
4909.00,1.25
4908.00,1.25
4907.00,1.25
4906.00,1.25
4905.00,1.25
4904.00,1.25
4903.00,1.25
4902.00,1.25
4901.00,1.25
4900.00,1.25
4899.00,1.25
4898.00,1.25
4897.00,1.25
4896.00,1.25
4895.00,1.24
4894.00,1.24
4893.00,1.24
4892.00,1.24
4891.00,1.24
4890.00,1.24
4889.00,1.24
4888.00,1.24
4887.00,1.24
4886.00,1.24
4885.00,1.24
4884.00,1.24
4883.00,1.24
4882.00,1.24
4881.00,1.24
4880.00,1.24
4879.00,1.24
4878.00,1.25
4877.00,1.25
4876.00,1.25
4875.00,1.25
4874.00,1.25
4873.00,1.25
4872.00,1.25
4871.00,1.26
4870.00,1.26
4869.00,1.26
4868.00,1.26
4867.00,1.26
4866.00,1.27
4865.00,1.27
4864.00,1.27
4863.00,1.27
4862.00,1.28
4861.00,1.28
4860.00,1.28
4859.00,1.28
4858.00,1.29
4857.00,1.29
4856.00,1.29
4855.00,1.29
4854.00,1.30
4853.00,1.30
4852.00,1.30
4851.00,1.30
4850.00,1.30
4849.00,1.31
4848.00,1.31
4847.00,1.31
4846.00,1.31
4845.00,1.31
4844.00,1.32
4843.00,1.32
4842.00,1.32
4841.00,1.32
4840.00,1.33
4839.00,1.33
4838.00,1.33
4837.00,1.33
4836.00,1.33
4835.00,1.34
4834.00,1.34
4833.00,1.34
4832.00,1.34
4831.00,1.34
4830.00,1.35
4829.00,1.35
4828.00,1.35
4827.00,1.35
4826.00,1.36
4825.00,1.36
4824.00,1.36
4823.00,1.36
4822.00,1.37
4821.00,1.37
4820.00,1.37
4819.00,1.37
4818.00,1.38
4817.00,1.38
4816.00,1.38
4815.00,1.38
4814.00,1.38
4813.00,1.39
4812.00,1.39
4811.00,1.39
4810.00,1.39
4809.00,1.40
4808.00,1.40
4807.00,1.40
4806.00,1.40
4805.00,1.41
4804.00,1.41
4803.00,1.41
4802.00,1.41
4801.00,1.41
4800.00,1.42
4799.00,1.42
4798.00,1.42
4797.00,1.42
4796.00,1.42
4795.00,1.42
4794.00,1.42
4793.00,1.42
4792.00,1.43
4791.00,1.43
4790.00,1.43
4789.00,1.43
4788.00,1.43
4787.00,1.44
4786.00,1.44
4785.00,1.44
4784.00,1.44
4783.00,1.44
4782.00,1.45
4781.00,1.45
4780.00,1.45
4779.00,1.45
4778.00,1.45
4777.00,1.45
4776.00,1.45
4775.00,1.46
4774.00,1.46
4773.00,1.46
4772.00,1.46
4771.00,1.46
4770.00,1.46
4769.00,1.47
4768.00,1.47
4767.00,1.47
4766.00,1.47
4765.00,1.47
4764.00,1.47
4763.00,1.47
4762.00,1.47
4761.00,1.47
4760.00,1.47
4759.00,1.47
4758.00,1.47
4757.00,1.47
4756.00,1.47
4755.00,1.47
4754.00,1.47
4753.00,1.47
4752.00,1.47
4751.00,1.47
4750.00,1.47
4749.00,1.47
4748.00,1.47
4747.00,1.47
4746.00,1.47
4745.00,1.47
4744.00,1.47
4743.00,1.47
4742.00,1.47
4741.00,1.47
4740.00,1.47
4739.00,1.47
4738.00,1.47
4737.00,1.47
4736.00,1.47
4735.00,1.48
4734.00,1.48
4733.00,1.48
4732.00,1.48
4731.00,1.48
4730.00,1.48
4729.00,1.48
4728.00,1.49
4727.00,1.49
4726.00,1.49
4725.00,1.49
4724.00,1.49
4723.00,1.50
4722.00,1.50
4721.00,1.50
4720.00,1.50
4719.00,1.51
4718.00,1.51
4717.00,1.51
4716.00,1.52
4715.00,1.52
4714.00,1.52
4713.00,1.52
4712.00,1.53
4711.00,1.53
4710.00,1.53
4709.00,1.54
4708.00,1.54
4707.00,1.54
4706.00,1.55
4705.00,1.55
4704.00,1.55
4703.00,1.55
4702.00,1.55
4701.00,1.56
4700.00,1.56
4699.00,1.56
4698.00,1.56
4697.00,1.56
4696.00,1.57
4695.00,1.57
4694.00,1.57
4693.00,1.57
4692.00,1.57
4691.00,1.57
4690.00,1.57
4689.00,1.57
4688.00,1.57
4687.00,1.57
4686.00,1.57
4685.00,1.57
4684.00,1.57
4683.00,1.57
4682.00,1.57
4681.00,1.57
4680.00,1.57
4679.00,1.57
4678.00,1.57
4677.00,1.57
4676.00,1.57
4675.00,1.57
4674.00,1.57
4673.00,1.57
4672.00,1.57
4671.00,1.57
4670.00,1.57
4669.00,1.58
4668.00,1.58
4667.00,1.58
4666.00,1.58
4665.00,1.58
4664.00,1.58
4663.00,1.58
4662.00,1.59
4661.00,1.59
4660.00,1.59
4659.00,1.59
4658.00,1.60
4657.00,1.60
4656.00,1.60
4655.00,1.60
4654.00,1.61
4653.00,1.61
4652.00,1.61
4651.00,1.61
4650.00,1.62
4649.00,1.62
4648.00,1.62
4647.00,1.62
4646.00,1.62
4645.00,1.62
4644.00,1.63
4643.00,1.63
4642.00,1.63
4641.00,1.63
4640.00,1.63
4639.00,1.63
4638.00,1.63
4637.00,1.63
4636.00,1.64
4635.00,1.64
4634.00,1.64
4633.00,1.64
4632.00,1.64
4631.00,1.64
4630.00,1.65
4629.00,1.65
4628.00,1.65
4627.00,1.65
4626.00,1.65
4625.00,1.65
4624.00,1.66
4623.00,1.66
4622.00,1.66
4621.00,1.66
4620.00,1.66
4619.00,1.67
4618.00,1.67
4617.00,1.67
4616.00,1.67
4615.00,1.67
4614.00,1.67
4613.00,1.67
4612.00,1.68
4611.00,1.68
4610.00,1.68
4609.00,1.68
4608.00,1.68
4607.00,1.68
4606.00,1.68
4605.00,1.68
4604.00,1.68
4603.00,1.68
4602.00,1.68
4601.00,1.69
4600.00,1.69
4599.00,1.69
4598.00,1.69
4597.00,1.69
4596.00,1.69
4595.00,1.69
4594.00,1.69
4593.00,1.69
4592.00,1.69
4591.00,1.69
4590.00,1.69
4589.00,1.69
4588.00,1.69
4587.00,1.69
4586.00,1.70
4585.00,1.70
4584.00,1.70
4583.00,1.70
4582.00,1.70
4581.00,1.70
4580.00,1.70
4579.00,1.71
4578.00,1.71
4577.00,1.71
4576.00,1.71
4575.00,1.71
4574.00,1.71
4573.00,1.71
4572.00,1.71
4571.00,1.71
4570.00,1.71
4569.00,1.71
4568.00,1.71
4567.00,1.72
4566.00,1.72
4565.00,1.72
4564.00,1.72
4563.00,1.72
4562.00,1.71
4561.00,1.71
4560.00,1.71
4559.00,1.71
4558.00,1.71
4557.00,1.71
4556.00,1.71
4555.00,1.71
4554.00,1.71
4553.00,1.71
4552.00,1.71
4551.00,1.71
4550.00,1.71
4549.00,1.71
4548.00,1.71
4547.00,1.71
4546.00,1.71
4545.00,1.71
4544.00,1.71
4543.00,1.71
4542.00,1.71
4541.00,1.71
4540.00,1.72
4539.00,1.72
4538.00,1.72
4537.00,1.72
4536.00,1.72
4535.00,1.72
4534.00,1.72
4533.00,1.73
4532.00,1.73
4531.00,1.73
4530.00,1.73
4529.00,1.73
4528.00,1.73
4527.00,1.73
4526.00,1.73
4525.00,1.73
4524.00,1.73
4523.00,1.73
4522.00,1.73
4521.00,1.73
4520.00,1.72
4519.00,1.72
4518.00,1.72
4517.00,1.72
4516.00,1.72
4515.00,1.72
4514.00,1.72
4513.00,1.72
4512.00,1.72
4511.00,1.71
4510.00,1.71
4509.00,1.71
4508.00,1.71
4507.00,1.71
4506.00,1.71
4505.00,1.71
4504.00,1.71
4503.00,1.71
4502.00,1.71
4501.00,1.71
4500.00,1.71
4499.00,1.72
4498.00,1.72
4497.00,1.72
4496.00,1.72
4495.00,1.72
4494.00,1.72
4493.00,1.72
4492.00,1.72
4491.00,1.72
4490.00,1.72
4489.00,1.72
4488.00,1.73
4487.00,1.73
4486.00,1.73
4485.00,1.73
4484.00,1.73
4483.00,1.73
4482.00,1.73
4481.00,1.73
4480.00,1.73
4479.00,1.73
4478.00,1.72
4477.00,1.72
4476.00,1.72
4475.00,1.72
4474.00,1.72
4473.00,1.72
4472.00,1.71
4471.00,1.71
4470.00,1.71
4469.00,1.71
4468.00,1.71
4467.00,1.71
4466.00,1.70
4465.00,1.70
4464.00,1.70
4463.00,1.70
4462.00,1.70
4461.00,1.69
4460.00,1.69
4459.00,1.69
4458.00,1.69
4457.00,1.68
4456.00,1.68
4455.00,1.68
4454.00,1.67
4453.00,1.67
4452.00,1.67
4451.00,1.66
4450.00,1.66
4449.00,1.65
4448.00,1.65
4447.00,1.64
4446.00,1.64
4445.00,1.63
4444.00,1.62
4443.00,1.62
4442.00,1.61
4441.00,1.60
4440.00,1.59
4439.00,1.58
4438.00,1.58
4437.00,1.57
4436.00,1.56
4435.00,1.55
4434.00,1.54
4433.00,1.54
4432.00,1.53
4431.00,1.52
4430.00,1.51
4429.00,1.50
4428.00,1.50
4427.00,1.49
4426.00,1.48
4425.00,1.47
4424.00,1.46
4423.00,1.46
4422.00,1.45
4421.00,1.45
4420.00,1.44
4419.00,1.44
4418.00,1.43
4417.00,1.43
4416.00,1.43
4415.00,1.43
4414.00,1.43
4413.00,1.42
4412.00,1.42
4411.00,1.42
4410.00,1.42
4409.00,1.42
4408.00,1.42
4407.00,1.42
4406.00,1.42
4405.00,1.42
4404.00,1.42
4403.00,1.43
4402.00,1.43
4401.00,1.43
4400.00,1.44
4399.00,1.44
4398.00,1.44
4397.00,1.45
4396.00,1.46
4395.00,1.46
4394.00,1.47
4393.00,1.47
4392.00,1.48
4391.00,1.48
4390.00,1.49
4389.00,1.49
4388.00,1.50
4387.00,1.50
4386.00,1.51
4385.00,1.51
4384.00,1.52
4383.00,1.52
4382.00,1.52
4381.00,1.53
4380.00,1.53
4379.00,1.54
4378.00,1.54
4377.00,1.54
4376.00,1.55
4375.00,1.55
4374.00,1.55
4373.00,1.56
4372.00,1.56
4371.00,1.56
4370.00,1.56
4369.00,1.56
4368.00,1.56
4367.00,1.56
4366.00,1.56
4365.00,1.55
4364.00,1.55
4363.00,1.55
4362.00,1.55
4361.00,1.55
4360.00,1.55
4359.00,1.54
4358.00,1.54
4357.00,1.54
4356.00,1.54
4355.00,1.53
4354.00,1.53
4353.00,1.53
4352.00,1.52
4351.00,1.52
4350.00,1.52
4349.00,1.51
4348.00,1.51
4347.00,1.50
4346.00,1.50
4345.00,1.50
4344.00,1.50
4343.00,1.49
4342.00,1.49
4341.00,1.49
4340.00,1.49
4339.00,1.49
4338.00,1.49
4337.00,1.48
4336.00,1.48
4335.00,1.49
4334.00,1.49
4333.00,1.49
4332.00,1.49
4331.00,1.49
4330.00,1.49
4329.00,1.50
4328.00,1.50
4327.00,1.51
4326.00,1.51
4325.00,1.52
4324.00,1.52
4323.00,1.53
4322.00,1.54
4321.00,1.54
4320.00,1.55
4319.00,1.56
4318.00,1.57
4317.00,1.57
4316.00,1.58
4315.00,1.59
4314.00,1.59
4313.00,1.60
4312.00,1.61
4311.00,1.61
4310.00,1.62
4309.00,1.62
4308.00,1.63
4307.00,1.64
4306.00,1.64
4305.00,1.65
4304.00,1.65
4303.00,1.66
4302.00,1.66
4301.00,1.66
4300.00,1.66
4299.00,1.67
4298.00,1.67
4297.00,1.67
4296.00,1.67
4295.00,1.67
4294.00,1.67
4293.00,1.67
4292.00,1.67
4291.00,1.67
4290.00,1.67
4289.00,1.67
4288.00,1.66
4287.00,1.66
4286.00,1.66
4285.00,1.66
4284.00,1.66
4283.00,1.66
4282.00,1.65
4281.00,1.65
4280.00,1.65
4279.00,1.65
4278.00,1.65
4277.00,1.64
4276.00,1.64
4275.00,1.64
4274.00,1.64
4273.00,1.64
4272.00,1.64
4271.00,1.64
4270.00,1.64
4269.00,1.64
4268.00,1.64
4267.00,1.64
4266.00,1.64
4265.00,1.64
4264.00,1.64
4263.00,1.65
4262.00,1.65
4261.00,1.65
4260.00,1.65
4259.00,1.65
4258.00,1.65
4257.00,1.65
4256.00,1.66
4255.00,1.66
4254.00,1.66
4253.00,1.66
4252.00,1.67
4251.00,1.67
4250.00,1.67
4249.00,1.67
4248.00,1.67
4247.00,1.67
4246.00,1.68
4245.00,1.68
4244.00,1.68
4243.00,1.67
4242.00,1.67
4241.00,1.67
4240.00,1.67
4239.00,1.67
4238.00,1.67
4237.00,1.67
4236.00,1.66
4235.00,1.66
4234.00,1.66
4233.00,1.66
4232.00,1.66
4231.00,1.65
4230.00,1.65
4229.00,1.65
4228.00,1.65
4227.00,1.65
4226.00,1.64
4225.00,1.64
4224.00,1.64
4223.00,1.64
4222.00,1.64
4221.00,1.64
4220.00,1.64
4219.00,1.64
4218.00,1.64
4217.00,1.64
4216.00,1.64
4215.00,1.64
4214.00,1.64
4213.00,1.64
4212.00,1.64
4211.00,1.64
4210.00,1.64
4209.00,1.64
4208.00,1.65
4207.00,1.65
4206.00,1.65
4205.00,1.65
4204.00,1.66
4203.00,1.66
4202.00,1.66
4201.00,1.67
4200.00,1.67
4199.00,1.67
4198.00,1.68
4197.00,1.68
4196.00,1.68
4195.00,1.68
4194.00,1.69
4193.00,1.69
4192.00,1.69
4191.00,1.69
4190.00,1.70
4189.00,1.70
4188.00,1.70
4187.00,1.70
4186.00,1.70
4185.00,1.71
4184.00,1.71
4183.00,1.71
4182.00,1.71
4181.00,1.71
4180.00,1.71
4179.00,1.71
4178.00,1.71
4177.00,1.71
4176.00,1.71
4175.00,1.71
4174.00,1.70
4173.00,1.70
4172.00,1.70
4171.00,1.70
4170.00,1.69
4169.00,1.69
4168.00,1.69
4167.00,1.69
4166.00,1.69
4165.00,1.68
4164.00,1.68
4163.00,1.68
4162.00,1.68
4161.00,1.67
4160.00,1.67
4159.00,1.67
4158.00,1.66
4157.00,1.66
4156.00,1.66
4155.00,1.66
4154.00,1.65
4153.00,1.65
4152.00,1.65
4151.00,1.65
4150.00,1.64
4149.00,1.64
4148.00,1.64
4147.00,1.64
4146.00,1.64
4145.00,1.64
4144.00,1.64
4143.00,1.64
4142.00,1.64
4141.00,1.64
4140.00,1.64
4139.00,1.64
4138.00,1.63
4137.00,1.63
4136.00,1.63
4135.00,1.64
4134.00,1.64
4133.00,1.64
4132.00,1.64
4131.00,1.64
4130.00,1.64
4129.00,1.64
4128.00,1.64
4127.00,1.65
4126.00,1.65
4125.00,1.65
4124.00,1.66
4123.00,1.66
4122.00,1.66
4121.00,1.66
4120.00,1.66
4119.00,1.67
4118.00,1.67
4117.00,1.67
4116.00,1.67
4115.00,1.67
4114.00,1.68
4113.00,1.68
4112.00,1.68
4111.00,1.68
4110.00,1.68
4109.00,1.68
4108.00,1.68
4107.00,1.68
4106.00,1.68
4105.00,1.68
4104.00,1.68
4103.00,1.68
4102.00,1.68
4101.00,1.67
4100.00,1.67
4099.00,1.67
4098.00,1.66
4097.00,1.66
4096.00,1.65
4095.00,1.65
4094.00,1.64
4093.00,1.64
4092.00,1.64
4091.00,1.63
4090.00,1.63
4089.00,1.62
4088.00,1.62
4087.00,1.62
4086.00,1.61
4085.00,1.61
4084.00,1.60
4083.00,1.60
4082.00,1.60
4081.00,1.59
4080.00,1.59
4079.00,1.58
4078.00,1.58
4077.00,1.58
4076.00,1.58
4075.00,1.58
4074.00,1.57
4073.00,1.57
4072.00,1.57
4071.00,1.57
4070.00,1.57
4069.00,1.58
4068.00,1.58
4067.00,1.58
4066.00,1.58
4065.00,1.58
4064.00,1.58
4063.00,1.58
4062.00,1.58
4061.00,1.58
4060.00,1.58
4059.00,1.58
4058.00,1.58
4057.00,1.58
4056.00,1.58
4055.00,1.58
4054.00,1.58
4053.00,1.58
4052.00,1.58
4051.00,1.58
4050.00,1.58
4049.00,1.58
4048.00,1.58
4047.00,1.58
4046.00,1.58
4045.00,1.58
4044.00,1.58
4043.00,1.57
4042.00,1.57
4041.00,1.57
4040.00,1.57
4039.00,1.57
4038.00,1.57
4037.00,1.57
4036.00,1.57
4035.00,1.57
4034.00,1.57
4033.00,1.58
4032.00,1.58
4031.00,1.58
4030.00,1.59
4029.00,1.59
4028.00,1.60
4027.00,1.60
4026.00,1.61
4025.00,1.62
4024.00,1.62
4023.00,1.63
4022.00,1.63
4021.00,1.63
4020.00,1.64
4019.00,1.65
4018.00,1.65
4017.00,1.66
4016.00,1.67
4015.00,1.67
4014.00,1.68
4013.00,1.69
4012.00,1.69
4011.00,1.69
4010.00,1.70
4009.00,1.70
4008.00,1.70
4007.00,1.71
4006.00,1.71
4005.00,1.71
4004.00,1.71
4003.00,1.72
4002.00,1.72
4001.00,1.72
4000.00,1.72
