创建为新数据集,样品 084 用户 Administrator 日期 星期五, 七月 26 2019
cm-1,%T
10000.00,2.40
9999.00,2.36
9998.00,2.33
9997.00,2.30
9996.00,2.27
9995.00,2.24
9994.00,2.21
9993.00,2.18
9992.00,2.15
9991.00,2.12
9990.00,2.10
9989.00,2.07
9988.00,2.05
9987.00,2.03
9986.00,2.01
9985.00,1.99
9984.00,1.98
9983.00,1.97
9982.00,1.95
9981.00,1.95
9980.00,1.94
9979.00,1.93
9978.00,1.92
9977.00,1.92
9976.00,1.91
9975.00,1.91
9974.00,1.90
9973.00,1.90
9972.00,1.90
9971.00,1.89
9970.00,1.89
9969.00,1.88
9968.00,1.88
9967.00,1.88
9966.00,1.87
9965.00,1.87
9964.00,1.87
9963.00,1.86
9962.00,1.86
9961.00,1.85
9960.00,1.85
9959.00,1.84
9958.00,1.84
9957.00,1.83
9956.00,1.83
9955.00,1.82
9954.00,1.81
9953.00,1.81
9952.00,1.80
9951.00,1.79
9950.00,1.79
9949.00,1.78
9948.00,1.77
9947.00,1.77
9946.00,1.76
9945.00,1.76
9944.00,1.76
9943.00,1.75
9942.00,1.75
9941.00,1.75
9940.00,1.75
9939.00,1.75
9938.00,1.75
9937.00,1.76
9936.00,1.76
9935.00,1.76
9934.00,1.77
9933.00,1.77
9932.00,1.78
9931.00,1.78
9930.00,1.79
9929.00,1.79
9928.00,1.80
9927.00,1.80
9926.00,1.80
9925.00,1.81
9924.00,1.81
9923.00,1.82
9922.00,1.82
9921.00,1.82
9920.00,1.83
9919.00,1.83
9918.00,1.83
9917.00,1.84
9916.00,1.84
9915.00,1.84
9914.00,1.84
9913.00,1.84
9912.00,1.84
9911.00,1.83
9910.00,1.83
9909.00,1.82
9908.00,1.82
9907.00,1.81
9906.00,1.81
9905.00,1.80
9904.00,1.80
9903.00,1.79
9902.00,1.78
9901.00,1.78
9900.00,1.77
9899.00,1.77
9898.00,1.76
9897.00,1.76
9896.00,1.75
9895.00,1.75
9894.00,1.74
9893.00,1.73
9892.00,1.73
9891.00,1.72
9890.00,1.72
9889.00,1.71
9888.00,1.71
9887.00,1.70
9886.00,1.70
9885.00,1.69
9884.00,1.69
9883.00,1.69
9882.00,1.68
9881.00,1.68
9880.00,1.68
9879.00,1.68
9878.00,1.68
9877.00,1.67
9876.00,1.67
9875.00,1.67
9874.00,1.67
9873.00,1.67
9872.00,1.66
9871.00,1.66
9870.00,1.66
9869.00,1.66
9868.00,1.65
9867.00,1.65
9866.00,1.65
9865.00,1.65
9864.00,1.65
9863.00,1.65
9862.00,1.65
9861.00,1.64
9860.00,1.64
9859.00,1.64
9858.00,1.64
9857.00,1.64
9856.00,1.64
9855.00,1.64
9854.00,1.64
9853.00,1.64
9852.00,1.64
9851.00,1.64
9850.00,1.64
9849.00,1.65
9848.00,1.65
9847.00,1.65
9846.00,1.65
9845.00,1.66
9844.00,1.66
9843.00,1.67
9842.00,1.67
9841.00,1.67
9840.00,1.68
9839.00,1.68
9838.00,1.68
9837.00,1.68
9836.00,1.69
9835.00,1.69
9834.00,1.69
9833.00,1.69
9832.00,1.69
9831.00,1.69
9830.00,1.69
9829.00,1.70
9828.00,1.70
9827.00,1.70
9826.00,1.70
9825.00,1.70
9824.00,1.70
9823.00,1.70
9822.00,1.71
9821.00,1.71
9820.00,1.71
9819.00,1.71
9818.00,1.71
9817.00,1.71
9816.00,1.71
9815.00,1.72
9814.00,1.72
9813.00,1.72
9812.00,1.72
9811.00,1.73
9810.00,1.73
9809.00,1.74
9808.00,1.74
9807.00,1.75
9806.00,1.76
9805.00,1.76
9804.00,1.77
9803.00,1.77
9802.00,1.78
9801.00,1.78
9800.00,1.78
9799.00,1.78
9798.00,1.78
9797.00,1.78
9796.00,1.78
9795.00,1.78
9794.00,1.78
9793.00,1.78
9792.00,1.77
9791.00,1.77
9790.00,1.77
9789.00,1.77
9788.00,1.76
9787.00,1.76
9786.00,1.76
9785.00,1.76
9784.00,1.76
9783.00,1.76
9782.00,1.75
9781.00,1.75
9780.00,1.75
9779.00,1.75
9778.00,1.75
9777.00,1.75
9776.00,1.75
9775.00,1.75
9774.00,1.75
9773.00,1.75
9772.00,1.76
9771.00,1.77
9770.00,1.77
9769.00,1.78
9768.00,1.79
9767.00,1.79
9766.00,1.80
9765.00,1.81
9764.00,1.81
9763.00,1.82
9762.00,1.82
9761.00,1.82
9760.00,1.82
9759.00,1.83
9758.00,1.83
9757.00,1.83
9756.00,1.83
9755.00,1.83
9754.00,1.83
9753.00,1.83
9752.00,1.82
9751.00,1.82
9750.00,1.82
9749.00,1.82
9748.00,1.82
9747.00,1.81
9746.00,1.81
9745.00,1.80
9744.00,1.80
9743.00,1.79
9742.00,1.79
9741.00,1.79
9740.00,1.78
9739.00,1.78
9738.00,1.78
9737.00,1.78
9736.00,1.77
9735.00,1.77
9734.00,1.77
9733.00,1.77
9732.00,1.77
9731.00,1.78
9730.00,1.78
9729.00,1.78
9728.00,1.78
9727.00,1.78
9726.00,1.78
9725.00,1.78
9724.00,1.78
9723.00,1.79
9722.00,1.79
9721.00,1.78
9720.00,1.78
9719.00,1.78
9718.00,1.78
9717.00,1.78
9716.00,1.77
9715.00,1.77
9714.00,1.76
9713.00,1.76
9712.00,1.75
9711.00,1.75
9710.00,1.74
9709.00,1.74
9708.00,1.74
9707.00,1.74
9706.00,1.73
9705.00,1.73
9704.00,1.73
9703.00,1.73
9702.00,1.72
9701.00,1.72
9700.00,1.72
9699.00,1.72
9698.00,1.71
9697.00,1.71
9696.00,1.71
9695.00,1.71
9694.00,1.71
9693.00,1.71
9692.00,1.72
9691.00,1.72
9690.00,1.73
9689.00,1.73
9688.00,1.74
9687.00,1.74
9686.00,1.74
9685.00,1.75
9684.00,1.75
9683.00,1.75
9682.00,1.75
9681.00,1.75
9680.00,1.75
9679.00,1.75
9678.00,1.75
9677.00,1.74
9676.00,1.74
9675.00,1.74
9674.00,1.74
9673.00,1.73
9672.00,1.73
9671.00,1.73
9670.00,1.72
9669.00,1.72
9668.00,1.71
9667.00,1.70
9666.00,1.70
9665.00,1.69
9664.00,1.68
9663.00,1.67
9662.00,1.67
9661.00,1.66
9660.00,1.66
9659.00,1.65
9658.00,1.65
9657.00,1.65
9656.00,1.65
9655.00,1.64
9654.00,1.64
9653.00,1.64
9652.00,1.64
9651.00,1.64
9650.00,1.64
9649.00,1.64
9648.00,1.64
9647.00,1.64
9646.00,1.64
9645.00,1.64
9644.00,1.64
9643.00,1.65
9642.00,1.65
9641.00,1.66
9640.00,1.66
9639.00,1.67
9638.00,1.67
9637.00,1.68
9636.00,1.68
9635.00,1.68
9634.00,1.69
9633.00,1.69
9632.00,1.69
9631.00,1.70
9630.00,1.70
9629.00,1.70
9628.00,1.71
9627.00,1.71
9626.00,1.72
9625.00,1.72
9624.00,1.73
9623.00,1.73
9622.00,1.74
9621.00,1.74
9620.00,1.75
9619.00,1.76
9618.00,1.76
9617.00,1.76
9616.00,1.77
9615.00,1.77
9614.00,1.78
9613.00,1.78
9612.00,1.78
9611.00,1.79
9610.00,1.79
9609.00,1.79
9608.00,1.80
9607.00,1.80
9606.00,1.80
9605.00,1.81
9604.00,1.81
9603.00,1.81
9602.00,1.81
9601.00,1.81
9600.00,1.81
9599.00,1.81
9598.00,1.81
9597.00,1.81
9596.00,1.81
9595.00,1.81
9594.00,1.80
9593.00,1.80
9592.00,1.80
9591.00,1.80
9590.00,1.80
9589.00,1.79
9588.00,1.79
9587.00,1.79
9586.00,1.78
9585.00,1.78
9584.00,1.78
9583.00,1.77
9582.00,1.77
9581.00,1.76
9580.00,1.76
9579.00,1.75
9578.00,1.75
9577.00,1.74
9576.00,1.74
9575.00,1.74
9574.00,1.74
9573.00,1.74
9572.00,1.73
9571.00,1.73
9570.00,1.73
9569.00,1.73
9568.00,1.73
9567.00,1.73
9566.00,1.72
9565.00,1.72
9564.00,1.72
9563.00,1.72
9562.00,1.71
9561.00,1.71
9560.00,1.71
9559.00,1.71
9558.00,1.71
9557.00,1.71
9556.00,1.70
9555.00,1.70
9554.00,1.70
9553.00,1.70
9552.00,1.70
9551.00,1.70
9550.00,1.69
9549.00,1.69
9548.00,1.69
9547.00,1.68
9546.00,1.68
9545.00,1.67
9544.00,1.67
9543.00,1.66
9542.00,1.66
9541.00,1.65
9540.00,1.65
9539.00,1.64
9538.00,1.64
9537.00,1.64
9536.00,1.63
9535.00,1.63
9534.00,1.63
9533.00,1.63
9532.00,1.63
9531.00,1.63
9530.00,1.63
9529.00,1.63
9528.00,1.63
9527.00,1.64
9526.00,1.64
9525.00,1.64
9524.00,1.65
9523.00,1.65
9522.00,1.66
9521.00,1.66
9520.00,1.67
9519.00,1.67
9518.00,1.68
9517.00,1.69
9516.00,1.69
9515.00,1.70
9514.00,1.71
9513.00,1.71
9512.00,1.72
9511.00,1.73
9510.00,1.73
9509.00,1.74
9508.00,1.75
9507.00,1.75
9506.00,1.75
9505.00,1.76
9504.00,1.76
9503.00,1.76
9502.00,1.77
9501.00,1.77
9500.00,1.77
9499.00,1.77
9498.00,1.78
9497.00,1.78
9496.00,1.78
9495.00,1.79
9494.00,1.79
9493.00,1.80
9492.00,1.80
9491.00,1.81
9490.00,1.81
9489.00,1.82
9488.00,1.82
9487.00,1.83
9486.00,1.83
9485.00,1.83
9484.00,1.84
9483.00,1.84
9482.00,1.84
9481.00,1.85
9480.00,1.85
9479.00,1.85
9478.00,1.86
9477.00,1.86
9476.00,1.86
9475.00,1.86
9474.00,1.86
9473.00,1.86
9472.00,1.86
9471.00,1.86
9470.00,1.86
9469.00,1.85
9468.00,1.85
9467.00,1.84
9466.00,1.83
9465.00,1.83
9464.00,1.82
9463.00,1.81
9462.00,1.80
9461.00,1.79
9460.00,1.79
9459.00,1.78
9458.00,1.77
9457.00,1.76
9456.00,1.76
9455.00,1.75
9454.00,1.74
9453.00,1.74
9452.00,1.73
9451.00,1.73
9450.00,1.72
9449.00,1.72
9448.00,1.72
9447.00,1.71
9446.00,1.71
9445.00,1.72
9444.00,1.72
9443.00,1.72
9442.00,1.72
9441.00,1.73
9440.00,1.74
9439.00,1.74
9438.00,1.75
9437.00,1.76
9436.00,1.77
9435.00,1.78
9434.00,1.78
9433.00,1.79
9432.00,1.80
9431.00,1.81
9430.00,1.82
9429.00,1.82
9428.00,1.83
9427.00,1.83
9426.00,1.84
9425.00,1.84
9424.00,1.84
9423.00,1.85
9422.00,1.85
9421.00,1.85
9420.00,1.85
9419.00,1.85
9418.00,1.84
9417.00,1.84
9416.00,1.84
9415.00,1.83
9414.00,1.83
9413.00,1.82
9412.00,1.82
9411.00,1.81
9410.00,1.80
9409.00,1.79
9408.00,1.78
9407.00,1.77
9406.00,1.76
9405.00,1.75
9404.00,1.74
9403.00,1.73
9402.00,1.72
9401.00,1.72
9400.00,1.71
9399.00,1.70
9398.00,1.70
9397.00,1.70
9396.00,1.70
9395.00,1.70
9394.00,1.70
9393.00,1.70
9392.00,1.70
9391.00,1.71
9390.00,1.71
9389.00,1.71
9388.00,1.72
9387.00,1.73
9386.00,1.73
9385.00,1.74
9384.00,1.75
9383.00,1.76
9382.00,1.77
9381.00,1.78
9380.00,1.79
9379.00,1.80
9378.00,1.81
9377.00,1.82
9376.00,1.83
9375.00,1.84
9374.00,1.85
9373.00,1.86
9372.00,1.87
9371.00,1.87
9370.00,1.88
9369.00,1.88
9368.00,1.88
9367.00,1.88
9366.00,1.88
9365.00,1.88
9364.00,1.88
9363.00,1.88
9362.00,1.88
9361.00,1.87
9360.00,1.87
9359.00,1.86
9358.00,1.86
9357.00,1.85
9356.00,1.85
9355.00,1.84
9354.00,1.84
9353.00,1.83
9352.00,1.83
9351.00,1.83
9350.00,1.82
9349.00,1.82
9348.00,1.82
9347.00,1.82
9346.00,1.82
9345.00,1.81
9344.00,1.81
9343.00,1.81
9342.00,1.81
9341.00,1.81
9340.00,1.81
9339.00,1.81
9338.00,1.81
9337.00,1.81
9336.00,1.81
9335.00,1.81
9334.00,1.81
9333.00,1.81
9332.00,1.81
9331.00,1.81
9330.00,1.81
9329.00,1.81
9328.00,1.81
9327.00,1.81
9326.00,1.81
9325.00,1.81
9324.00,1.81
9323.00,1.81
9322.00,1.81
9321.00,1.81
9320.00,1.80
9319.00,1.80
9318.00,1.80
9317.00,1.80
9316.00,1.80
9315.00,1.80
9314.00,1.80
9313.00,1.80
9312.00,1.80
9311.00,1.80
9310.00,1.80
9309.00,1.80
9308.00,1.80
9307.00,1.80
9306.00,1.80
9305.00,1.80
9304.00,1.79
9303.00,1.79
9302.00,1.78
9301.00,1.78
9300.00,1.77
9299.00,1.77
9298.00,1.76
9297.00,1.76
9296.00,1.75
9295.00,1.74
9294.00,1.74
9293.00,1.73
9292.00,1.73
9291.00,1.72
9290.00,1.72
9289.00,1.71
9288.00,1.70
9287.00,1.70
9286.00,1.69
9285.00,1.69
9284.00,1.68
9283.00,1.68
9282.00,1.67
9281.00,1.67
9280.00,1.66
9279.00,1.66
9278.00,1.66
9277.00,1.66
9276.00,1.66
9275.00,1.66
9274.00,1.66
9273.00,1.66
9272.00,1.66
9271.00,1.66
9270.00,1.67
9269.00,1.67
9268.00,1.67
9267.00,1.67
9266.00,1.68
9265.00,1.68
9264.00,1.68
9263.00,1.69
9262.00,1.69
9261.00,1.69
9260.00,1.70
9259.00,1.70
9258.00,1.70
9257.00,1.71
9256.00,1.71
9255.00,1.72
9254.00,1.72
9253.00,1.73
9252.00,1.73
9251.00,1.73
9250.00,1.74
9249.00,1.74
9248.00,1.75
9247.00,1.75
9246.00,1.76
9245.00,1.76
9244.00,1.77
9243.00,1.77
9242.00,1.77
9241.00,1.78
9240.00,1.78
9239.00,1.78
9238.00,1.78
9237.00,1.78
9236.00,1.78
9235.00,1.78
9234.00,1.78
9233.00,1.78
9232.00,1.78
9231.00,1.78
9230.00,1.78
9229.00,1.78
9228.00,1.78
9227.00,1.78
9226.00,1.78
9225.00,1.78
9224.00,1.78
9223.00,1.77
9222.00,1.77
9221.00,1.77
9220.00,1.77
9219.00,1.76
9218.00,1.76
9217.00,1.76
9216.00,1.76
9215.00,1.76
9214.00,1.76
9213.00,1.76
9212.00,1.76
9211.00,1.76
9210.00,1.77
9209.00,1.77
9208.00,1.77
9207.00,1.78
9206.00,1.78
9205.00,1.78
9204.00,1.79
9203.00,1.79
9202.00,1.80
9201.00,1.80
9200.00,1.80
9199.00,1.81
9198.00,1.81
9197.00,1.81
9196.00,1.82
9195.00,1.82
9194.00,1.82
9193.00,1.82
9192.00,1.83
9191.00,1.83
9190.00,1.83
9189.00,1.83
9188.00,1.83
9187.00,1.83
9186.00,1.83
9185.00,1.83
9184.00,1.83
9183.00,1.83
9182.00,1.83
9181.00,1.83
9180.00,1.83
9179.00,1.83
9178.00,1.83
9177.00,1.83
9176.00,1.83
9175.00,1.83
9174.00,1.83
9173.00,1.83
9172.00,1.83
9171.00,1.83
9170.00,1.83
9169.00,1.83
9168.00,1.83
9167.00,1.83
9166.00,1.83
9165.00,1.84
9164.00,1.84
9163.00,1.84
9162.00,1.84
9161.00,1.84
9160.00,1.84
9159.00,1.84
9158.00,1.84
9157.00,1.84
9156.00,1.84
9155.00,1.84
9154.00,1.84
9153.00,1.83
9152.00,1.83
9151.00,1.83
9150.00,1.83
9149.00,1.82
9148.00,1.82
9147.00,1.82
9146.00,1.81
9145.00,1.81
9144.00,1.81
9143.00,1.80
9142.00,1.80
9141.00,1.80
9140.00,1.79
9139.00,1.79
9138.00,1.78
9137.00,1.78
9136.00,1.78
9135.00,1.77
9134.00,1.77
9133.00,1.77
9132.00,1.76
9131.00,1.76
9130.00,1.76
9129.00,1.76
9128.00,1.75
9127.00,1.75
9126.00,1.75
9125.00,1.75
9124.00,1.75
9123.00,1.74
9122.00,1.74
9121.00,1.74
9120.00,1.74
9119.00,1.74
9118.00,1.74
9117.00,1.74
9116.00,1.74
9115.00,1.74
9114.00,1.74
9113.00,1.74
9112.00,1.74
9111.00,1.74
9110.00,1.74
9109.00,1.74
9108.00,1.74
9107.00,1.74
9106.00,1.74
9105.00,1.74
9104.00,1.74
9103.00,1.74
9102.00,1.74
9101.00,1.74
9100.00,1.74
9099.00,1.74
9098.00,1.73
9097.00,1.73
9096.00,1.73
9095.00,1.73
9094.00,1.73
9093.00,1.73
9092.00,1.72
9091.00,1.72
9090.00,1.72
9089.00,1.71
9088.00,1.71
9087.00,1.70
9086.00,1.70
9085.00,1.69
9084.00,1.69
9083.00,1.68
9082.00,1.68
9081.00,1.67
9080.00,1.67
9079.00,1.66
9078.00,1.66
9077.00,1.65
9076.00,1.65
9075.00,1.65
9074.00,1.64
9073.00,1.64
9072.00,1.64
9071.00,1.64
9070.00,1.63
9069.00,1.63
9068.00,1.63
9067.00,1.63
9066.00,1.64
9065.00,1.64
9064.00,1.64
9063.00,1.64
9062.00,1.64
9061.00,1.64
9060.00,1.65
9059.00,1.65
9058.00,1.65
9057.00,1.66
9056.00,1.66
9055.00,1.66
9054.00,1.66
9053.00,1.66
9052.00,1.67
9051.00,1.67
9050.00,1.67
9049.00,1.67
9048.00,1.67
9047.00,1.67
9046.00,1.68
9045.00,1.68
9044.00,1.68
9043.00,1.68
9042.00,1.68
9041.00,1.68
9040.00,1.67
9039.00,1.67
9038.00,1.67
9037.00,1.67
9036.00,1.67
9035.00,1.67
9034.00,1.67
9033.00,1.67
9032.00,1.67
9031.00,1.67
9030.00,1.67
9029.00,1.67
9028.00,1.67
9027.00,1.67
9026.00,1.67
9025.00,1.67
9024.00,1.67
9023.00,1.68
9022.00,1.68
9021.00,1.68
9020.00,1.68
9019.00,1.69
9018.00,1.69
9017.00,1.69
9016.00,1.69
9015.00,1.70
9014.00,1.70
9013.00,1.70
9012.00,1.70
9011.00,1.71
9010.00,1.71
9009.00,1.71
9008.00,1.72
9007.00,1.72
9006.00,1.72
9005.00,1.72
9004.00,1.73
9003.00,1.73
9002.00,1.73
9001.00,1.74
9000.00,1.74
8999.00,1.74
8998.00,1.74
8997.00,1.75
8996.00,1.75
8995.00,1.75
8994.00,1.76
8993.00,1.76
8992.00,1.76
8991.00,1.76
8990.00,1.77
8989.00,1.77
8988.00,1.77
8987.00,1.77
8986.00,1.78
8985.00,1.78
8984.00,1.78
8983.00,1.78
8982.00,1.78
8981.00,1.79
8980.00,1.79
8979.00,1.79
8978.00,1.79
8977.00,1.79
8976.00,1.79
8975.00,1.79
8974.00,1.78
8973.00,1.78
8972.00,1.78
8971.00,1.77
8970.00,1.77
8969.00,1.77
8968.00,1.77
8967.00,1.76
8966.00,1.76
8965.00,1.76
8964.00,1.76
8963.00,1.76
8962.00,1.75
8961.00,1.75
8960.00,1.75
8959.00,1.75
8958.00,1.74
8957.00,1.74
8956.00,1.74
8955.00,1.73
8954.00,1.73
8953.00,1.73
8952.00,1.72
8951.00,1.72
8950.00,1.72
8949.00,1.72
8948.00,1.72
8947.00,1.72
8946.00,1.72
8945.00,1.71
8944.00,1.71
8943.00,1.71
8942.00,1.71
8941.00,1.71
8940.00,1.70
8939.00,1.70
8938.00,1.70
8937.00,1.69
8936.00,1.69
8935.00,1.68
8934.00,1.68
8933.00,1.67
8932.00,1.67
8931.00,1.67
8930.00,1.66
8929.00,1.66
8928.00,1.66
8927.00,1.66
8926.00,1.65
8925.00,1.65
8924.00,1.65
8923.00,1.65
8922.00,1.64
8921.00,1.64
8920.00,1.64
8919.00,1.64
8918.00,1.64
8917.00,1.64
8916.00,1.64
8915.00,1.64
8914.00,1.64
8913.00,1.65
8912.00,1.65
8911.00,1.65
8910.00,1.66
8909.00,1.66
8908.00,1.67
8907.00,1.67
8906.00,1.68
8905.00,1.69
8904.00,1.69
8903.00,1.70
8902.00,1.70
8901.00,1.71
8900.00,1.72
8899.00,1.72
8898.00,1.73
8897.00,1.74
8896.00,1.74
8895.00,1.75
8894.00,1.76
8893.00,1.76
8892.00,1.77
8891.00,1.77
8890.00,1.77
8889.00,1.78
8888.00,1.78
8887.00,1.78
8886.00,1.78
8885.00,1.78
8884.00,1.78
8883.00,1.79
8882.00,1.79
8881.00,1.79
8880.00,1.78
8879.00,1.78
8878.00,1.78
8877.00,1.78
8876.00,1.78
8875.00,1.78
8874.00,1.78
8873.00,1.78
8872.00,1.78
8871.00,1.78
8870.00,1.78
8869.00,1.78
8868.00,1.78
8867.00,1.78
8866.00,1.78
8865.00,1.78
8864.00,1.79
8863.00,1.79
8862.00,1.79
8861.00,1.79
8860.00,1.79
8859.00,1.80
8858.00,1.80
8857.00,1.80
8856.00,1.80
8855.00,1.80
8854.00,1.80
8853.00,1.80
8852.00,1.80
8851.00,1.80
8850.00,1.80
8849.00,1.80
8848.00,1.79
8847.00,1.79
8846.00,1.79
8845.00,1.78
8844.00,1.78
8843.00,1.77
8842.00,1.77
8841.00,1.77
8840.00,1.76
8839.00,1.76
8838.00,1.75
8837.00,1.75
8836.00,1.74
8835.00,1.74
8834.00,1.73
8833.00,1.73
8832.00,1.73
8831.00,1.72
8830.00,1.72
8829.00,1.71
8828.00,1.71
8827.00,1.71
8826.00,1.70
8825.00,1.70
8824.00,1.70
8823.00,1.70
8822.00,1.70
8821.00,1.71
8820.00,1.71
8819.00,1.71
8818.00,1.71
8817.00,1.71
8816.00,1.71
8815.00,1.72
8814.00,1.72
8813.00,1.72
8812.00,1.72
8811.00,1.72
8810.00,1.72
8809.00,1.72
8808.00,1.72
8807.00,1.71
8806.00,1.71
8805.00,1.71
8804.00,1.71
8803.00,1.71
8802.00,1.71
8801.00,1.71
8800.00,1.70
8799.00,1.70
8798.00,1.70
8797.00,1.69
8796.00,1.69
8795.00,1.69
8794.00,1.68
8793.00,1.68
8792.00,1.67
8791.00,1.67
8790.00,1.67
8789.00,1.66
8788.00,1.66
8787.00,1.66
8786.00,1.65
8785.00,1.65
8784.00,1.65
8783.00,1.64
8782.00,1.64
8781.00,1.64
8780.00,1.64
8779.00,1.64
8778.00,1.63
8777.00,1.63
8776.00,1.63
8775.00,1.63
8774.00,1.63
8773.00,1.63
8772.00,1.63
8771.00,1.63
8770.00,1.63
8769.00,1.63
8768.00,1.63
8767.00,1.63
8766.00,1.63
8765.00,1.64
8764.00,1.64
8763.00,1.64
8762.00,1.64
8761.00,1.64
8760.00,1.64
8759.00,1.65
8758.00,1.65
8757.00,1.65
8756.00,1.65
8755.00,1.66
8754.00,1.66
8753.00,1.66
8752.00,1.66
8751.00,1.67
8750.00,1.67
8749.00,1.67
8748.00,1.68
8747.00,1.68
8746.00,1.68
8745.00,1.69
8744.00,1.69
8743.00,1.69
8742.00,1.69
8741.00,1.69
8740.00,1.69
8739.00,1.69
8738.00,1.69
8737.00,1.69
8736.00,1.69
8735.00,1.69
8734.00,1.69
8733.00,1.69
8732.00,1.69
8731.00,1.69
8730.00,1.69
8729.00,1.69
8728.00,1.69
8727.00,1.69
8726.00,1.69
8725.00,1.69
8724.00,1.69
8723.00,1.68
8722.00,1.68
8721.00,1.68
8720.00,1.68
8719.00,1.68
8718.00,1.68
8717.00,1.68
8716.00,1.68
8715.00,1.68
8714.00,1.68
8713.00,1.69
8712.00,1.69
8711.00,1.69
8710.00,1.69
8709.00,1.70
8708.00,1.70
8707.00,1.70
8706.00,1.70
8705.00,1.71
8704.00,1.71
8703.00,1.71
8702.00,1.72
8701.00,1.72
8700.00,1.72
8699.00,1.72
8698.00,1.72
8697.00,1.73
8696.00,1.73
8695.00,1.73
8694.00,1.73
8693.00,1.73
8692.00,1.74
8691.00,1.74
8690.00,1.74
8689.00,1.75
8688.00,1.75
8687.00,1.75
8686.00,1.76
8685.00,1.76
8684.00,1.76
8683.00,1.76
8682.00,1.77
8681.00,1.77
8680.00,1.77
8679.00,1.77
8678.00,1.76
8677.00,1.76
8676.00,1.76
8675.00,1.76
8674.00,1.76
8673.00,1.76
8672.00,1.76
8671.00,1.76
8670.00,1.76
8669.00,1.76
8668.00,1.76
8667.00,1.76
8666.00,1.76
8665.00,1.75
8664.00,1.75
8663.00,1.74
8662.00,1.74
8661.00,1.73
8660.00,1.73
8659.00,1.72
8658.00,1.72
8657.00,1.71
8656.00,1.71
8655.00,1.71
8654.00,1.70
8653.00,1.70
8652.00,1.70
8651.00,1.70
8650.00,1.69
8649.00,1.69
8648.00,1.69
8647.00,1.69
8646.00,1.69
8645.00,1.68
8644.00,1.68
8643.00,1.68
8642.00,1.68
8641.00,1.68
8640.00,1.68
8639.00,1.68
8638.00,1.68
8637.00,1.68
8636.00,1.68
8635.00,1.68
8634.00,1.68
8633.00,1.68
8632.00,1.68
8631.00,1.68
8630.00,1.69
8629.00,1.69
8628.00,1.69
8627.00,1.69
8626.00,1.68
8625.00,1.68
8624.00,1.68
8623.00,1.68
8622.00,1.68
8621.00,1.68
8620.00,1.68
8619.00,1.68
8618.00,1.68
8617.00,1.67
8616.00,1.67
8615.00,1.67
8614.00,1.67
8613.00,1.66
8612.00,1.66
8611.00,1.66
8610.00,1.66
8609.00,1.66
8608.00,1.65
8607.00,1.65
8606.00,1.65
8605.00,1.65
8604.00,1.65
8603.00,1.65
8602.00,1.65
8601.00,1.64
8600.00,1.64
8599.00,1.64
8598.00,1.64
8597.00,1.64
8596.00,1.65
8595.00,1.65
8594.00,1.65
8593.00,1.65
8592.00,1.65
8591.00,1.65
8590.00,1.66
8589.00,1.66
8588.00,1.66
8587.00,1.67
8586.00,1.67
8585.00,1.67
8584.00,1.68
8583.00,1.68
8582.00,1.68
8581.00,1.68
8580.00,1.69
8579.00,1.69
8578.00,1.69
8577.00,1.70
8576.00,1.70
8575.00,1.70
8574.00,1.70
8573.00,1.70
8572.00,1.70
8571.00,1.70
8570.00,1.70
8569.00,1.70
8568.00,1.70
8567.00,1.70
8566.00,1.69
8565.00,1.69
8564.00,1.69
8563.00,1.68
8562.00,1.68
8561.00,1.68
8560.00,1.68
8559.00,1.67
8558.00,1.67
8557.00,1.67
8556.00,1.66
8555.00,1.66
8554.00,1.66
8553.00,1.66
8552.00,1.66
8551.00,1.65
8550.00,1.65
8549.00,1.65
8548.00,1.65
8547.00,1.64
8546.00,1.64
8545.00,1.64
8544.00,1.64
8543.00,1.64
8542.00,1.64
8541.00,1.64
8540.00,1.65
8539.00,1.65
8538.00,1.65
8537.00,1.65
8536.00,1.65
8535.00,1.65
8534.00,1.65
8533.00,1.65
8532.00,1.65
8531.00,1.66
8530.00,1.66
8529.00,1.66
8528.00,1.66
8527.00,1.66
8526.00,1.66
8525.00,1.66
8524.00,1.66
8523.00,1.66
8522.00,1.66
8521.00,1.66
8520.00,1.66
8519.00,1.66
8518.00,1.66
8517.00,1.66
8516.00,1.66
8515.00,1.67
8514.00,1.67
8513.00,1.67
8512.00,1.67
8511.00,1.67
8510.00,1.67
8509.00,1.67
8508.00,1.67
8507.00,1.67
8506.00,1.67
8505.00,1.67
8504.00,1.67
8503.00,1.67
8502.00,1.67
8501.00,1.68
8500.00,1.68
8499.00,1.68
8498.00,1.68
8497.00,1.68
8496.00,1.68
8495.00,1.69
8494.00,1.69
8493.00,1.69
8492.00,1.69
8491.00,1.69
8490.00,1.70
8489.00,1.70
8488.00,1.70
8487.00,1.70
8486.00,1.70
8485.00,1.71
8484.00,1.71
8483.00,1.71
8482.00,1.71
8481.00,1.71
8480.00,1.72
8479.00,1.72
8478.00,1.72
8477.00,1.72
8476.00,1.72
8475.00,1.72
8474.00,1.72
8473.00,1.72
8472.00,1.72
8471.00,1.72
8470.00,1.72
8469.00,1.72
8468.00,1.72
8467.00,1.72
8466.00,1.72
8465.00,1.72
8464.00,1.72
8463.00,1.72
8462.00,1.71
8461.00,1.71
8460.00,1.71
8459.00,1.71
8458.00,1.71
8457.00,1.71
8456.00,1.71
8455.00,1.71
8454.00,1.70
8453.00,1.70
8452.00,1.70
8451.00,1.70
8450.00,1.71
8449.00,1.71
8448.00,1.71
8447.00,1.71
8446.00,1.71
8445.00,1.71
8444.00,1.71
8443.00,1.72
8442.00,1.72
8441.00,1.72
8440.00,1.73
8439.00,1.73
8438.00,1.73
8437.00,1.74
8436.00,1.74
8435.00,1.74
8434.00,1.75
8433.00,1.75
8432.00,1.75
8431.00,1.75
8430.00,1.75
8429.00,1.75
8428.00,1.75
8427.00,1.75
8426.00,1.75
8425.00,1.75
8424.00,1.75
8423.00,1.75
8422.00,1.75
8421.00,1.74
8420.00,1.74
8419.00,1.74
8418.00,1.74
8417.00,1.73
8416.00,1.73
8415.00,1.73
8414.00,1.72
8413.00,1.72
8412.00,1.72
8411.00,1.72
8410.00,1.71
8409.00,1.71
8408.00,1.71
8407.00,1.71
8406.00,1.70
8405.00,1.70
8404.00,1.71
8403.00,1.71
8402.00,1.71
8401.00,1.71
8400.00,1.72
8399.00,1.72
8398.00,1.73
8397.00,1.73
8396.00,1.74
8395.00,1.74
8394.00,1.75
8393.00,1.75
8392.00,1.76
8391.00,1.76
8390.00,1.77
8389.00,1.77
8388.00,1.78
8387.00,1.78
8386.00,1.79
8385.00,1.79
8384.00,1.79
8383.00,1.80
8382.00,1.80
8381.00,1.80
8380.00,1.80
8379.00,1.80
8378.00,1.80
8377.00,1.80
8376.00,1.80
8375.00,1.80
8374.00,1.80
8373.00,1.79
8372.00,1.79
8371.00,1.79
8370.00,1.78
8369.00,1.78
8368.00,1.77
8367.00,1.77
8366.00,1.76
8365.00,1.76
8364.00,1.75
8363.00,1.75
8362.00,1.75
8361.00,1.74
8360.00,1.74
8359.00,1.73
8358.00,1.73
8357.00,1.73
8356.00,1.73
8355.00,1.72
8354.00,1.72
8353.00,1.72
8352.00,1.72
8351.00,1.71
8350.00,1.71
8349.00,1.71
8348.00,1.70
8347.00,1.70
8346.00,1.70
8345.00,1.70
8344.00,1.69
8343.00,1.69
8342.00,1.69
8341.00,1.69
8340.00,1.68
8339.00,1.68
8338.00,1.68
8337.00,1.68
8336.00,1.68
8335.00,1.68
8334.00,1.68
8333.00,1.68
8332.00,1.68
8331.00,1.68
8330.00,1.67
8329.00,1.67
8328.00,1.67
8327.00,1.67
8326.00,1.67
8325.00,1.68
8324.00,1.68
8323.00,1.68
8322.00,1.68
8321.00,1.69
8320.00,1.69
8319.00,1.70
8318.00,1.70
8317.00,1.70
8316.00,1.71
8315.00,1.71
8314.00,1.72
8313.00,1.72
8312.00,1.72
8311.00,1.73
8310.00,1.73
8309.00,1.73
8308.00,1.73
8307.00,1.73
8306.00,1.74
8305.00,1.74
8304.00,1.74
8303.00,1.74
8302.00,1.74
8301.00,1.74
8300.00,1.74
8299.00,1.74
8298.00,1.74
8297.00,1.75
8296.00,1.75
8295.00,1.74
8294.00,1.74
8293.00,1.74
8292.00,1.74
8291.00,1.74
8290.00,1.74
8289.00,1.74
8288.00,1.74
8287.00,1.73
8286.00,1.73
8285.00,1.73
8284.00,1.73
8283.00,1.73
8282.00,1.74
8281.00,1.74
8280.00,1.74
8279.00,1.74
8278.00,1.74
8277.00,1.74
8276.00,1.74
8275.00,1.74
8274.00,1.74
8273.00,1.74
8272.00,1.74
8271.00,1.74
8270.00,1.74
8269.00,1.74
8268.00,1.74
8267.00,1.73
8266.00,1.73
8265.00,1.73
8264.00,1.73
8263.00,1.73
8262.00,1.73
8261.00,1.73
8260.00,1.73
8259.00,1.73
8258.00,1.73
8257.00,1.73
8256.00,1.73
8255.00,1.73
8254.00,1.73
8253.00,1.73
8252.00,1.73
8251.00,1.73
8250.00,1.74
8249.00,1.74
8248.00,1.74
8247.00,1.74
8246.00,1.74
8245.00,1.74
8244.00,1.75
8243.00,1.75
8242.00,1.75
8241.00,1.75
8240.00,1.76
8239.00,1.76
8238.00,1.76
8237.00,1.77
8236.00,1.77
8235.00,1.77
8234.00,1.78
8233.00,1.78
8232.00,1.78
8231.00,1.78
8230.00,1.79
8229.00,1.79
8228.00,1.79
8227.00,1.79
8226.00,1.79
8225.00,1.79
8224.00,1.79
8223.00,1.79
8222.00,1.80
8221.00,1.80
8220.00,1.80
8219.00,1.80
8218.00,1.80
8217.00,1.80
8216.00,1.80
8215.00,1.79
8214.00,1.79
8213.00,1.79
8212.00,1.79
8211.00,1.79
8210.00,1.79
8209.00,1.79
8208.00,1.79
8207.00,1.78
8206.00,1.78
8205.00,1.78
8204.00,1.78
8203.00,1.78
8202.00,1.78
8201.00,1.78
8200.00,1.78
8199.00,1.78
8198.00,1.78
8197.00,1.78
8196.00,1.78
8195.00,1.78
8194.00,1.78
8193.00,1.78
8192.00,1.78
8191.00,1.78
8190.00,1.78
8189.00,1.78
8188.00,1.79
8187.00,1.79
8186.00,1.79
8185.00,1.79
8184.00,1.79
8183.00,1.79
8182.00,1.80
8181.00,1.80
8180.00,1.80
8179.00,1.80
8178.00,1.81
8177.00,1.81
8176.00,1.81
8175.00,1.81
8174.00,1.81
8173.00,1.82
8172.00,1.82
8171.00,1.82
8170.00,1.82
8169.00,1.82
8168.00,1.82
8167.00,1.82
8166.00,1.81
8165.00,1.81
8164.00,1.81
8163.00,1.80
8162.00,1.80
8161.00,1.80
8160.00,1.79
8159.00,1.79
8158.00,1.79
8157.00,1.78
8156.00,1.78
8155.00,1.77
8154.00,1.77
8153.00,1.77
8152.00,1.76
8151.00,1.76
8150.00,1.75
8149.00,1.75
8148.00,1.75
8147.00,1.74
8146.00,1.74
8145.00,1.73
8144.00,1.73
8143.00,1.72
8142.00,1.72
8141.00,1.72
8140.00,1.72
8139.00,1.72
8138.00,1.71
8137.00,1.71
8136.00,1.71
8135.00,1.71
8134.00,1.71
8133.00,1.72
8132.00,1.72
8131.00,1.72
8130.00,1.72
8129.00,1.72
8128.00,1.72
8127.00,1.72
8126.00,1.72
8125.00,1.72
8124.00,1.72
8123.00,1.72
8122.00,1.72
8121.00,1.73
8120.00,1.73
8119.00,1.73
8118.00,1.73
8117.00,1.73
8116.00,1.74
8115.00,1.74
8114.00,1.74
8113.00,1.74
8112.00,1.74
8111.00,1.74
8110.00,1.75
8109.00,1.75
8108.00,1.75
8107.00,1.75
8106.00,1.75
8105.00,1.75
8104.00,1.76
8103.00,1.76
8102.00,1.76
8101.00,1.76
8100.00,1.77
8099.00,1.77
8098.00,1.77
8097.00,1.77
8096.00,1.78
8095.00,1.78
8094.00,1.78
8093.00,1.78
8092.00,1.79
8091.00,1.79
8090.00,1.79
8089.00,1.79
8088.00,1.79
8087.00,1.80
8086.00,1.80
8085.00,1.80
8084.00,1.80
8083.00,1.80
8082.00,1.80
8081.00,1.80
8080.00,1.80
8079.00,1.79
8078.00,1.79
8077.00,1.79
8076.00,1.79
8075.00,1.79
8074.00,1.79
8073.00,1.79
8072.00,1.78
8071.00,1.78
8070.00,1.78
8069.00,1.78
8068.00,1.78
8067.00,1.77
8066.00,1.77
8065.00,1.77
8064.00,1.77
8063.00,1.77
8062.00,1.77
8061.00,1.76
8060.00,1.76
8059.00,1.76
8058.00,1.76
8057.00,1.76
8056.00,1.76
8055.00,1.76
8054.00,1.76
8053.00,1.76
8052.00,1.76
8051.00,1.76
8050.00,1.76
8049.00,1.76
8048.00,1.76
8047.00,1.76
8046.00,1.77
8045.00,1.77
8044.00,1.77
8043.00,1.77
8042.00,1.77
8041.00,1.77
8040.00,1.77
8039.00,1.77
8038.00,1.77
8037.00,1.77
8036.00,1.77
8035.00,1.77
8034.00,1.77
8033.00,1.77
8032.00,1.78
8031.00,1.78
8030.00,1.78
8029.00,1.78
8028.00,1.78
8027.00,1.78
8026.00,1.78
8025.00,1.78
8024.00,1.79
8023.00,1.79
8022.00,1.79
8021.00,1.79
8020.00,1.80
8019.00,1.80
8018.00,1.80
8017.00,1.80
8016.00,1.80
8015.00,1.81
8014.00,1.81
8013.00,1.81
8012.00,1.81
8011.00,1.81
8010.00,1.81
8009.00,1.81
8008.00,1.81
8007.00,1.81
8006.00,1.81
8005.00,1.81
8004.00,1.81
8003.00,1.81
8002.00,1.81
8001.00,1.81
8000.00,1.81
7999.00,1.81
7998.00,1.81
7997.00,1.81
7996.00,1.80
7995.00,1.80
7994.00,1.80
7993.00,1.80
7992.00,1.80
7991.00,1.80
7990.00,1.80
7989.00,1.80
7988.00,1.80
7987.00,1.80
7986.00,1.80
7985.00,1.80
7984.00,1.80
7983.00,1.80
7982.00,1.80
7981.00,1.80
7980.00,1.80
7979.00,1.80
7978.00,1.81
7977.00,1.81
7976.00,1.81
7975.00,1.81
7974.00,1.81
7973.00,1.81
7972.00,1.81
7971.00,1.81
7970.00,1.81
7969.00,1.81
7968.00,1.81
7967.00,1.81
7966.00,1.81
7965.00,1.81
7964.00,1.81
7963.00,1.81
7962.00,1.81
7961.00,1.81
7960.00,1.81
7959.00,1.81
7958.00,1.81
7957.00,1.81
7956.00,1.81
7955.00,1.81
7954.00,1.81
7953.00,1.81
7952.00,1.81
7951.00,1.81
7950.00,1.81
7949.00,1.81
7948.00,1.81
7947.00,1.82
7946.00,1.82
7945.00,1.82
7944.00,1.82
7943.00,1.82
7942.00,1.82
7941.00,1.82
7940.00,1.83
7939.00,1.83
7938.00,1.83
7937.00,1.83
7936.00,1.83
7935.00,1.84
7934.00,1.84
7933.00,1.84
7932.00,1.84
7931.00,1.84
7930.00,1.84
7929.00,1.84
7928.00,1.84
7927.00,1.84
7926.00,1.84
7925.00,1.84
7924.00,1.84
7923.00,1.84
7922.00,1.84
7921.00,1.83
7920.00,1.83
7919.00,1.83
7918.00,1.83
7917.00,1.83
7916.00,1.82
7915.00,1.82
7914.00,1.82
7913.00,1.82
7912.00,1.81
7911.00,1.81
7910.00,1.81
7909.00,1.80
7908.00,1.80
7907.00,1.79
7906.00,1.79
7905.00,1.79
7904.00,1.78
7903.00,1.78
7902.00,1.78
7901.00,1.77
7900.00,1.77
7899.00,1.77
7898.00,1.77
7897.00,1.76
7896.00,1.76
7895.00,1.76
7894.00,1.76
7893.00,1.75
7892.00,1.75
7891.00,1.75
7890.00,1.75
7889.00,1.75
7888.00,1.74
7887.00,1.74
7886.00,1.74
7885.00,1.74
7884.00,1.74
7883.00,1.74
7882.00,1.74
7881.00,1.74
7880.00,1.74
7879.00,1.74
7878.00,1.74
7877.00,1.74
7876.00,1.74
7875.00,1.74
7874.00,1.74
7873.00,1.74
7872.00,1.74
7871.00,1.75
7870.00,1.75
7869.00,1.75
7868.00,1.75
7867.00,1.76
7866.00,1.76
7865.00,1.76
7864.00,1.77
7863.00,1.77
7862.00,1.78
7861.00,1.78
7860.00,1.78
7859.00,1.79
7858.00,1.79
7857.00,1.80
7856.00,1.80
7855.00,1.80
7854.00,1.81
7853.00,1.81
7852.00,1.82
7851.00,1.82
7850.00,1.83
7849.00,1.83
7848.00,1.83
7847.00,1.84
7846.00,1.84
7845.00,1.85
7844.00,1.85
7843.00,1.85
7842.00,1.85
7841.00,1.86
7840.00,1.86
7839.00,1.86
7838.00,1.86
7837.00,1.86
7836.00,1.86
7835.00,1.86
7834.00,1.86
7833.00,1.86
7832.00,1.86
7831.00,1.86
7830.00,1.86
7829.00,1.86
7828.00,1.86
7827.00,1.86
7826.00,1.86
7825.00,1.86
7824.00,1.86
7823.00,1.86
7822.00,1.86
7821.00,1.86
7820.00,1.86
7819.00,1.86
7818.00,1.85
7817.00,1.85
7816.00,1.85
7815.00,1.85
7814.00,1.85
7813.00,1.85
7812.00,1.85
7811.00,1.85
7810.00,1.85
7809.00,1.85
7808.00,1.85
7807.00,1.85
7806.00,1.85
7805.00,1.85
7804.00,1.85
7803.00,1.85
7802.00,1.85
7801.00,1.85
7800.00,1.85
7799.00,1.84
7798.00,1.84
7797.00,1.84
7796.00,1.84
7795.00,1.84
7794.00,1.84
7793.00,1.84
7792.00,1.84
7791.00,1.84
7790.00,1.84
7789.00,1.84
7788.00,1.84
7787.00,1.84
7786.00,1.84
7785.00,1.84
7784.00,1.84
7783.00,1.84
7782.00,1.84
7781.00,1.84
7780.00,1.83
7779.00,1.83
7778.00,1.83
7777.00,1.83
7776.00,1.83
7775.00,1.83
7774.00,1.83
7773.00,1.82
7772.00,1.82
7771.00,1.82
7770.00,1.82
7769.00,1.81
7768.00,1.81
7767.00,1.81
7766.00,1.80
7765.00,1.80
7764.00,1.80
7763.00,1.79
7762.00,1.79
7761.00,1.79
7760.00,1.79
7759.00,1.78
7758.00,1.78
7757.00,1.78
7756.00,1.78
7755.00,1.77
7754.00,1.77
7753.00,1.77
7752.00,1.77
7751.00,1.76
7750.00,1.76
7749.00,1.76
7748.00,1.76
7747.00,1.76
7746.00,1.76
7745.00,1.76
7744.00,1.76
7743.00,1.76
7742.00,1.76
7741.00,1.76
7740.00,1.76
7739.00,1.76
7738.00,1.76
7737.00,1.76
7736.00,1.76
7735.00,1.76
7734.00,1.76
7733.00,1.76
7732.00,1.76
7731.00,1.77
7730.00,1.77
7729.00,1.77
7728.00,1.77
7727.00,1.77
7726.00,1.77
7725.00,1.77
7724.00,1.78
7723.00,1.78
7722.00,1.78
7721.00,1.78
7720.00,1.78
7719.00,1.78
7718.00,1.78
7717.00,1.79
7716.00,1.79
7715.00,1.79
7714.00,1.79
7713.00,1.79
7712.00,1.80
7711.00,1.80
7710.00,1.80
7709.00,1.80
7708.00,1.80
7707.00,1.81
7706.00,1.81
7705.00,1.81
7704.00,1.81
7703.00,1.81
7702.00,1.81
7701.00,1.82
7700.00,1.82
7699.00,1.82
7698.00,1.82
7697.00,1.82
7696.00,1.82
7695.00,1.82
7694.00,1.82
7693.00,1.82
7692.00,1.83
7691.00,1.83
7690.00,1.83
7689.00,1.83
7688.00,1.82
7687.00,1.82
7686.00,1.82
7685.00,1.82
7684.00,1.82
7683.00,1.82
7682.00,1.82
7681.00,1.82
7680.00,1.82
7679.00,1.81
7678.00,1.81
7677.00,1.81
7676.00,1.81
7675.00,1.81
7674.00,1.81
7673.00,1.81
7672.00,1.81
7671.00,1.81
7670.00,1.81
7669.00,1.81
7668.00,1.81
7667.00,1.81
7666.00,1.81
7665.00,1.81
7664.00,1.81
7663.00,1.81
7662.00,1.81
7661.00,1.81
7660.00,1.81
7659.00,1.81
7658.00,1.81
7657.00,1.81
7656.00,1.81
7655.00,1.81
7654.00,1.81
7653.00,1.81
7652.00,1.81
7651.00,1.82
7650.00,1.82
7649.00,1.82
7648.00,1.82
7647.00,1.82
7646.00,1.82
7645.00,1.82
7644.00,1.82
7643.00,1.83
7642.00,1.83
7641.00,1.83
7640.00,1.83
7639.00,1.84
7638.00,1.84
7637.00,1.84
7636.00,1.85
7635.00,1.85
7634.00,1.85
7633.00,1.86
7632.00,1.86
7631.00,1.86
7630.00,1.86
7629.00,1.87
7628.00,1.87
7627.00,1.87
7626.00,1.87
7625.00,1.88
7624.00,1.88
7623.00,1.88
7622.00,1.89
7621.00,1.89
7620.00,1.89
7619.00,1.89
7618.00,1.89
7617.00,1.90
7616.00,1.90
7615.00,1.90
7614.00,1.90
7613.00,1.90
7612.00,1.90
7611.00,1.90
7610.00,1.90
7609.00,1.90
7608.00,1.90
7607.00,1.90
7606.00,1.90
7605.00,1.90
7604.00,1.90
7603.00,1.90
7602.00,1.89
7601.00,1.89
7600.00,1.89
7599.00,1.89
7598.00,1.89
7597.00,1.89
7596.00,1.89
7595.00,1.89
7594.00,1.89
7593.00,1.89
7592.00,1.88
7591.00,1.88
7590.00,1.88
7589.00,1.88
7588.00,1.88
7587.00,1.88
7586.00,1.88
7585.00,1.87
7584.00,1.87
7583.00,1.87
7582.00,1.87
7581.00,1.87
7580.00,1.87
7579.00,1.86
7578.00,1.86
7577.00,1.86
7576.00,1.86
7575.00,1.86
7574.00,1.86
7573.00,1.86
7572.00,1.86
7571.00,1.86
7570.00,1.86
7569.00,1.86
7568.00,1.86
7567.00,1.86
7566.00,1.86
7565.00,1.86
7564.00,1.86
7563.00,1.86
7562.00,1.86
7561.00,1.86
7560.00,1.86
7559.00,1.86
7558.00,1.86
7557.00,1.86
7556.00,1.85
7555.00,1.85
7554.00,1.85
7553.00,1.85
7552.00,1.85
7551.00,1.85
7550.00,1.85
7549.00,1.85
7548.00,1.85
7547.00,1.85
7546.00,1.84
7545.00,1.84
7544.00,1.84
7543.00,1.84
7542.00,1.83
7541.00,1.83
7540.00,1.83
7539.00,1.83
7538.00,1.83
7537.00,1.82
7536.00,1.82
7535.00,1.82
7534.00,1.82
7533.00,1.82
7532.00,1.82
7531.00,1.82
7530.00,1.82
7529.00,1.82
7528.00,1.82
7527.00,1.82
7526.00,1.82
7525.00,1.82
7524.00,1.82
7523.00,1.82
7522.00,1.82
7521.00,1.82
7520.00,1.82
7519.00,1.82
7518.00,1.82
7517.00,1.82
7516.00,1.82
7515.00,1.82
7514.00,1.82
7513.00,1.82
7512.00,1.82
7511.00,1.82
7510.00,1.82
7509.00,1.82
7508.00,1.82
7507.00,1.82
7506.00,1.82
7505.00,1.82
7504.00,1.82
7503.00,1.82
7502.00,1.82
7501.00,1.82
7500.00,1.82
7499.00,1.83
7498.00,1.83
7497.00,1.83
7496.00,1.83
7495.00,1.83
7494.00,1.83
7493.00,1.83
7492.00,1.83
7491.00,1.83
7490.00,1.83
7489.00,1.83
7488.00,1.84
7487.00,1.84
7486.00,1.84
7485.00,1.84
7484.00,1.84
7483.00,1.84
7482.00,1.84
7481.00,1.84
7480.00,1.84
7479.00,1.84
7478.00,1.84
7477.00,1.84
7476.00,1.84
7475.00,1.84
7474.00,1.84
7473.00,1.84
7472.00,1.84
7471.00,1.84
7470.00,1.84
7469.00,1.84
7468.00,1.84
7467.00,1.84
7466.00,1.84
7465.00,1.84
7464.00,1.84
7463.00,1.84
7462.00,1.84
7461.00,1.84
7460.00,1.84
7459.00,1.84
7458.00,1.84
7457.00,1.84
7456.00,1.84
7455.00,1.84
7454.00,1.84
7453.00,1.84
7452.00,1.84
7451.00,1.84
7450.00,1.84
7449.00,1.84
7448.00,1.84
7447.00,1.85
7446.00,1.85
7445.00,1.85
7444.00,1.85
7443.00,1.85
7442.00,1.85
7441.00,1.85
7440.00,1.85
7439.00,1.85
7438.00,1.85
7437.00,1.85
7436.00,1.85
7435.00,1.85
7434.00,1.85
7433.00,1.85
7432.00,1.85
7431.00,1.85
7430.00,1.85
7429.00,1.85
7428.00,1.85
7427.00,1.85
7426.00,1.85
7425.00,1.85
7424.00,1.85
7423.00,1.85
7422.00,1.85
7421.00,1.85
7420.00,1.85
7419.00,1.85
7418.00,1.85
7417.00,1.85
7416.00,1.85
7415.00,1.85
7414.00,1.84
7413.00,1.84
7412.00,1.84
7411.00,1.84
7410.00,1.84
7409.00,1.84
7408.00,1.84
7407.00,1.84
7406.00,1.83
7405.00,1.83
7404.00,1.83
7403.00,1.83
7402.00,1.82
7401.00,1.82
7400.00,1.81
7399.00,1.81
7398.00,1.80
7397.00,1.80
7396.00,1.80
7395.00,1.79
7394.00,1.79
7393.00,1.79
7392.00,1.79
7391.00,1.79
7390.00,1.78
7389.00,1.78
7388.00,1.78
7387.00,1.78
7386.00,1.78
7385.00,1.78
7384.00,1.78
7383.00,1.78
7382.00,1.78
7381.00,1.78
7380.00,1.78
7379.00,1.78
7378.00,1.79
7377.00,1.79
7376.00,1.79
7375.00,1.79
7374.00,1.80
7373.00,1.80
7372.00,1.80
7371.00,1.81
7370.00,1.81
7369.00,1.81
7368.00,1.81
7367.00,1.81
7366.00,1.82
7365.00,1.82
7364.00,1.82
7363.00,1.82
7362.00,1.82
7361.00,1.82
7360.00,1.82
7359.00,1.82
7358.00,1.82
7357.00,1.82
7356.00,1.82
7355.00,1.82
7354.00,1.82
7353.00,1.82
7352.00,1.81
7351.00,1.81
7350.00,1.81
7349.00,1.81
7348.00,1.81
7347.00,1.81
7346.00,1.81
7345.00,1.81
7344.00,1.80
7343.00,1.80
7342.00,1.80
7341.00,1.80
7340.00,1.80
7339.00,1.80
7338.00,1.80
7337.00,1.80
7336.00,1.80
7335.00,1.80
7334.00,1.80
7333.00,1.80
7332.00,1.80
7331.00,1.80
7330.00,1.80
7329.00,1.80
7328.00,1.80
7327.00,1.80
7326.00,1.80
7325.00,1.80
7324.00,1.80
7323.00,1.81
7322.00,1.81
7321.00,1.81
7320.00,1.81
7319.00,1.81
7318.00,1.81
7317.00,1.81
7316.00,1.81
7315.00,1.81
7314.00,1.80
7313.00,1.80
7312.00,1.80
7311.00,1.80
7310.00,1.80
7309.00,1.80
7308.00,1.80
7307.00,1.80
7306.00,1.79
7305.00,1.79
7304.00,1.79
7303.00,1.79
7302.00,1.78
7301.00,1.78
7300.00,1.77
7299.00,1.77
7298.00,1.77
7297.00,1.76
7296.00,1.76
7295.00,1.76
7294.00,1.75
7293.00,1.75
7292.00,1.75
7291.00,1.75
7290.00,1.75
7289.00,1.75
7288.00,1.74
7287.00,1.74
7286.00,1.74
7285.00,1.74
7284.00,1.74
7283.00,1.74
7282.00,1.74
7281.00,1.74
7280.00,1.74
7279.00,1.74
7278.00,1.74
7277.00,1.74
7276.00,1.74
7275.00,1.75
7274.00,1.75
7273.00,1.75
7272.00,1.75
7271.00,1.75
7270.00,1.75
7269.00,1.75
7268.00,1.75
7267.00,1.75
7266.00,1.75
7265.00,1.75
7264.00,1.75
7263.00,1.75
7262.00,1.75
7261.00,1.75
7260.00,1.76
7259.00,1.76
7258.00,1.76
7257.00,1.76
7256.00,1.76
7255.00,1.76
7254.00,1.76
7253.00,1.76
7252.00,1.76
7251.00,1.77
7250.00,1.77
7249.00,1.77
7248.00,1.77
7247.00,1.78
7246.00,1.78
7245.00,1.78
7244.00,1.78
7243.00,1.79
7242.00,1.79
7241.00,1.79
7240.00,1.79
7239.00,1.79
7238.00,1.80
7237.00,1.80
7236.00,1.80
7235.00,1.80
7234.00,1.80
7233.00,1.80
7232.00,1.80
7231.00,1.80
7230.00,1.79
7229.00,1.79
7228.00,1.79
7227.00,1.79
7226.00,1.78
7225.00,1.78
7224.00,1.78
7223.00,1.77
7222.00,1.77
7221.00,1.77
7220.00,1.76
7219.00,1.76
7218.00,1.75
7217.00,1.75
7216.00,1.74
7215.00,1.74
7214.00,1.73
7213.00,1.73
7212.00,1.72
7211.00,1.72
7210.00,1.71
7209.00,1.71
7208.00,1.70
7207.00,1.70
7206.00,1.70
7205.00,1.69
7204.00,1.69
7203.00,1.69
7202.00,1.69
7201.00,1.69
7200.00,1.68
7199.00,1.68
7198.00,1.68
7197.00,1.68
7196.00,1.68
7195.00,1.68
7194.00,1.68
7193.00,1.68
7192.00,1.68
7191.00,1.68
7190.00,1.68
7189.00,1.68
7188.00,1.68
7187.00,1.68
7186.00,1.68
7185.00,1.68
7184.00,1.68
7183.00,1.68
7182.00,1.68
7181.00,1.68
7180.00,1.68
7179.00,1.68
7178.00,1.68
7177.00,1.67
7176.00,1.67
7175.00,1.67
7174.00,1.67
7173.00,1.66
7172.00,1.66
7171.00,1.66
7170.00,1.65
7169.00,1.65
7168.00,1.65
7167.00,1.64
7166.00,1.64
7165.00,1.64
7164.00,1.63
7163.00,1.63
7162.00,1.63
7161.00,1.63
7160.00,1.62
7159.00,1.62
7158.00,1.62
7157.00,1.62
7156.00,1.61
7155.00,1.61
7154.00,1.61
7153.00,1.61
7152.00,1.61
7151.00,1.61
7150.00,1.61
7149.00,1.61
7148.00,1.61
7147.00,1.61
7146.00,1.61
7145.00,1.61
7144.00,1.61
7143.00,1.61
7142.00,1.61
7141.00,1.61
7140.00,1.61
7139.00,1.61
7138.00,1.61
7137.00,1.61
7136.00,1.61
7135.00,1.61
7134.00,1.60
7133.00,1.60
7132.00,1.60
7131.00,1.60
7130.00,1.60
7129.00,1.60
7128.00,1.59
7127.00,1.59
7126.00,1.59
7125.00,1.58
7124.00,1.58
7123.00,1.58
7122.00,1.58
7121.00,1.57
7120.00,1.57
7119.00,1.57
7118.00,1.57
7117.00,1.56
7116.00,1.56
7115.00,1.56
7114.00,1.56
7113.00,1.56
7112.00,1.56
7111.00,1.56
7110.00,1.55
7109.00,1.55
7108.00,1.55
7107.00,1.55
7106.00,1.55
7105.00,1.55
7104.00,1.55
7103.00,1.55
7102.00,1.55
7101.00,1.55
7100.00,1.55
7099.00,1.55
7098.00,1.55
7097.00,1.55
7096.00,1.55
7095.00,1.55
7094.00,1.55
7093.00,1.55
7092.00,1.54
7091.00,1.54
7090.00,1.54
7089.00,1.54
7088.00,1.54
7087.00,1.54
7086.00,1.54
7085.00,1.53
7084.00,1.53
7083.00,1.53
7082.00,1.53
7081.00,1.53
7080.00,1.52
7079.00,1.52
7078.00,1.52
7077.00,1.52
7076.00,1.52
7075.00,1.51
7074.00,1.51
7073.00,1.51
7072.00,1.51
7071.00,1.50
7070.00,1.50
7069.00,1.50
7068.00,1.50
7067.00,1.49
7066.00,1.49
7065.00,1.49
7064.00,1.49
7063.00,1.49
7062.00,1.49
7061.00,1.48
7060.00,1.48
7059.00,1.48
7058.00,1.48
7057.00,1.48
7056.00,1.48
7055.00,1.48
7054.00,1.48
7053.00,1.48
7052.00,1.48
7051.00,1.47
7050.00,1.47
7049.00,1.47
7048.00,1.47
7047.00,1.47
7046.00,1.47
7045.00,1.47
7044.00,1.47
7043.00,1.47
7042.00,1.47
7041.00,1.47
7040.00,1.47
7039.00,1.47
7038.00,1.46
7037.00,1.46
7036.00,1.46
7035.00,1.46
7034.00,1.46
7033.00,1.45
7032.00,1.45
7031.00,1.45
7030.00,1.45
7029.00,1.45
7028.00,1.44
7027.00,1.44
7026.00,1.44
7025.00,1.44
7024.00,1.44
7023.00,1.44
7022.00,1.44
7021.00,1.43
7020.00,1.43
7019.00,1.43
7018.00,1.43
7017.00,1.43
7016.00,1.43
7015.00,1.43
7014.00,1.44
7013.00,1.44
7012.00,1.44
7011.00,1.44
7010.00,1.44
7009.00,1.44
7008.00,1.44
7007.00,1.45
7006.00,1.45
7005.00,1.45
7004.00,1.45
7003.00,1.45
7002.00,1.45
7001.00,1.45
7000.00,1.45
6999.00,1.45
6998.00,1.45
6997.00,1.45
6996.00,1.45
6995.00,1.45
6994.00,1.45
6993.00,1.45
6992.00,1.45
6991.00,1.44
6990.00,1.44
6989.00,1.44
6988.00,1.44
6987.00,1.44
6986.00,1.44
6985.00,1.43
6984.00,1.43
6983.00,1.43
6982.00,1.43
6981.00,1.43
6980.00,1.42
6979.00,1.42
6978.00,1.42
6977.00,1.42
6976.00,1.42
6975.00,1.42
6974.00,1.42
6973.00,1.42
6972.00,1.42
6971.00,1.42
6970.00,1.42
6969.00,1.42
6968.00,1.42
6967.00,1.42
6966.00,1.42
6965.00,1.42
6964.00,1.42
6963.00,1.42
6962.00,1.42
6961.00,1.42
6960.00,1.42
6959.00,1.42
6958.00,1.42
6957.00,1.42
6956.00,1.42
6955.00,1.42
6954.00,1.43
6953.00,1.43
6952.00,1.43
6951.00,1.43
6950.00,1.43
6949.00,1.43
6948.00,1.43
6947.00,1.43
6946.00,1.43
6945.00,1.43
6944.00,1.43
6943.00,1.43
6942.00,1.43
6941.00,1.43
6940.00,1.43
6939.00,1.43
6938.00,1.43
6937.00,1.43
6936.00,1.43
6935.00,1.43
6934.00,1.43
6933.00,1.43
6932.00,1.44
6931.00,1.44
6930.00,1.44
6929.00,1.44
6928.00,1.44
6927.00,1.44
6926.00,1.44
6925.00,1.44
6924.00,1.44
6923.00,1.44
6922.00,1.44
6921.00,1.44
6920.00,1.44
6919.00,1.44
6918.00,1.44
6917.00,1.44
6916.00,1.44
6915.00,1.44
6914.00,1.44
6913.00,1.44
6912.00,1.44
6911.00,1.44
6910.00,1.44
6909.00,1.44
6908.00,1.44
6907.00,1.44
6906.00,1.45
6905.00,1.45
6904.00,1.45
6903.00,1.45
6902.00,1.45
6901.00,1.45
6900.00,1.46
6899.00,1.46
6898.00,1.46
6897.00,1.46
6896.00,1.46
6895.00,1.46
6894.00,1.46
6893.00,1.47
6892.00,1.47
6891.00,1.47
6890.00,1.47
6889.00,1.47
6888.00,1.47
6887.00,1.47
6886.00,1.47
6885.00,1.47
6884.00,1.47
6883.00,1.47
6882.00,1.47
6881.00,1.47
6880.00,1.47
6879.00,1.47
6878.00,1.47
6877.00,1.47
6876.00,1.47
6875.00,1.47
6874.00,1.47
6873.00,1.46
6872.00,1.46
6871.00,1.46
6870.00,1.46
6869.00,1.46
6868.00,1.46
6867.00,1.46
6866.00,1.46
6865.00,1.46
6864.00,1.46
6863.00,1.46
6862.00,1.46
6861.00,1.46
6860.00,1.46
6859.00,1.46
6858.00,1.46
6857.00,1.46
6856.00,1.46
6855.00,1.45
6854.00,1.45
6853.00,1.45
6852.00,1.45
6851.00,1.45
6850.00,1.45
6849.00,1.45
6848.00,1.45
6847.00,1.45
6846.00,1.44
6845.00,1.44
6844.00,1.44
6843.00,1.44
6842.00,1.44
6841.00,1.44
6840.00,1.44
6839.00,1.44
6838.00,1.44
6837.00,1.44
6836.00,1.43
6835.00,1.43
6834.00,1.43
6833.00,1.43
6832.00,1.43
6831.00,1.43
6830.00,1.43
6829.00,1.43
6828.00,1.43
6827.00,1.43
6826.00,1.43
6825.00,1.43
6824.00,1.43
6823.00,1.43
6822.00,1.43
6821.00,1.43
6820.00,1.43
6819.00,1.43
6818.00,1.43
6817.00,1.43
6816.00,1.43
6815.00,1.43
6814.00,1.43
6813.00,1.43
6812.00,1.43
6811.00,1.43
6810.00,1.43
6809.00,1.42
6808.00,1.42
6807.00,1.42
6806.00,1.42
6805.00,1.42
6804.00,1.42
6803.00,1.42
6802.00,1.42
6801.00,1.42
6800.00,1.42
6799.00,1.42
6798.00,1.42
6797.00,1.42
6796.00,1.42
6795.00,1.42
6794.00,1.42
6793.00,1.42
6792.00,1.42
6791.00,1.42
6790.00,1.43
6789.00,1.43
6788.00,1.43
6787.00,1.43
6786.00,1.43
6785.00,1.43
6784.00,1.43
6783.00,1.44
6782.00,1.44
6781.00,1.44
6780.00,1.44
6779.00,1.44
6778.00,1.44
6777.00,1.44
6776.00,1.44
6775.00,1.44
6774.00,1.44
6773.00,1.45
6772.00,1.45
6771.00,1.45
6770.00,1.45
6769.00,1.45
6768.00,1.45
6767.00,1.45
6766.00,1.45
6765.00,1.45
6764.00,1.45
6763.00,1.45
6762.00,1.45
6761.00,1.45
6760.00,1.45
6759.00,1.45
6758.00,1.45
6757.00,1.45
6756.00,1.45
6755.00,1.45
6754.00,1.45
6753.00,1.45
6752.00,1.45
6751.00,1.45
6750.00,1.45
6749.00,1.45
6748.00,1.45
6747.00,1.45
6746.00,1.45
6745.00,1.46
6744.00,1.46
6743.00,1.46
6742.00,1.46
6741.00,1.46
6740.00,1.46
6739.00,1.46
6738.00,1.47
6737.00,1.47
6736.00,1.47
6735.00,1.47
6734.00,1.47
6733.00,1.47
6732.00,1.48
6731.00,1.48
6730.00,1.48
6729.00,1.48
6728.00,1.48
6727.00,1.48
6726.00,1.48
6725.00,1.48
6724.00,1.48
6723.00,1.49
6722.00,1.49
6721.00,1.49
6720.00,1.49
6719.00,1.49
6718.00,1.49
6717.00,1.50
6716.00,1.50
6715.00,1.50
6714.00,1.50
6713.00,1.50
6712.00,1.50
6711.00,1.50
6710.00,1.50
6709.00,1.50
6708.00,1.50
6707.00,1.50
6706.00,1.50
6705.00,1.50
6704.00,1.50
6703.00,1.51
6702.00,1.51
6701.00,1.51
6700.00,1.51
6699.00,1.51
6698.00,1.51
6697.00,1.51
6696.00,1.51
6695.00,1.52
6694.00,1.52
6693.00,1.52
6692.00,1.52
6691.00,1.52
6690.00,1.52
6689.00,1.52
6688.00,1.52
6687.00,1.52
6686.00,1.52
6685.00,1.52
6684.00,1.52
6683.00,1.52
6682.00,1.52
6681.00,1.52
6680.00,1.52
6679.00,1.52
6678.00,1.52
6677.00,1.52
6676.00,1.52
6675.00,1.52
6674.00,1.52
6673.00,1.52
6672.00,1.52
6671.00,1.52
6670.00,1.52
6669.00,1.52
6668.00,1.52
6667.00,1.53
6666.00,1.53
6665.00,1.53
6664.00,1.53
6663.00,1.53
6662.00,1.53
6661.00,1.53
6660.00,1.54
6659.00,1.54
6658.00,1.54
6657.00,1.54
6656.00,1.54
6655.00,1.55
6654.00,1.55
6653.00,1.55
6652.00,1.55
6651.00,1.55
6650.00,1.55
6649.00,1.56
6648.00,1.56
6647.00,1.56
6646.00,1.56
6645.00,1.56
6644.00,1.56
6643.00,1.56
6642.00,1.56
6641.00,1.56
6640.00,1.57
6639.00,1.57
6638.00,1.57
6637.00,1.57
6636.00,1.57
6635.00,1.57
6634.00,1.57
6633.00,1.57
6632.00,1.57
6631.00,1.57
6630.00,1.57
6629.00,1.57
6628.00,1.57
6627.00,1.57
6626.00,1.57
6625.00,1.57
6624.00,1.57
6623.00,1.57
6622.00,1.57
6621.00,1.57
6620.00,1.57
6619.00,1.57
6618.00,1.57
6617.00,1.57
6616.00,1.58
6615.00,1.58
6614.00,1.58
6613.00,1.58
6612.00,1.58
6611.00,1.58
6610.00,1.58
6609.00,1.59
6608.00,1.59
6607.00,1.59
6606.00,1.59
6605.00,1.59
6604.00,1.59
6603.00,1.60
6602.00,1.60
6601.00,1.60
6600.00,1.60
6599.00,1.60
6598.00,1.61
6597.00,1.61
6596.00,1.61
6595.00,1.61
6594.00,1.61
6593.00,1.61
6592.00,1.61
6591.00,1.62
6590.00,1.62
6589.00,1.62
6588.00,1.62
6587.00,1.62
6586.00,1.62
6585.00,1.62
6584.00,1.62
6583.00,1.62
6582.00,1.63
6581.00,1.63
6580.00,1.63
6579.00,1.63
6578.00,1.63
6577.00,1.63
6576.00,1.63
6575.00,1.63
6574.00,1.63
6573.00,1.63
6572.00,1.63
6571.00,1.63
6570.00,1.63
6569.00,1.63
6568.00,1.63
6567.00,1.63
6566.00,1.63
6565.00,1.63
6564.00,1.63
6563.00,1.63
6562.00,1.63
6561.00,1.63
6560.00,1.63
6559.00,1.63
6558.00,1.63
6557.00,1.63
6556.00,1.63
6555.00,1.63
6554.00,1.63
6553.00,1.63
6552.00,1.63
6551.00,1.63
6550.00,1.63
6549.00,1.63
6548.00,1.63
6547.00,1.63
6546.00,1.63
6545.00,1.63
6544.00,1.63
6543.00,1.63
6542.00,1.63
6541.00,1.63
6540.00,1.63
6539.00,1.63
6538.00,1.64
6537.00,1.64
6536.00,1.64
6535.00,1.64
6534.00,1.64
6533.00,1.64
6532.00,1.64
6531.00,1.64
6530.00,1.64
6529.00,1.64
6528.00,1.64
6527.00,1.64
6526.00,1.64
6525.00,1.65
6524.00,1.65
6523.00,1.65
6522.00,1.65
6521.00,1.65
6520.00,1.65
6519.00,1.65
6518.00,1.65
6517.00,1.65
6516.00,1.65
6515.00,1.65
6514.00,1.65
6513.00,1.65
6512.00,1.65
6511.00,1.65
6510.00,1.65
6509.00,1.65
6508.00,1.65
6507.00,1.65
6506.00,1.65
6505.00,1.65
6504.00,1.66
6503.00,1.66
6502.00,1.66
6501.00,1.66
6500.00,1.66
6499.00,1.66
6498.00,1.66
6497.00,1.66
6496.00,1.67
6495.00,1.67
6494.00,1.67
6493.00,1.67
6492.00,1.67
6491.00,1.67
6490.00,1.68
6489.00,1.68
6488.00,1.68
6487.00,1.68
6486.00,1.68
6485.00,1.68
6484.00,1.68
6483.00,1.68
6482.00,1.68
6481.00,1.68
6480.00,1.68
6479.00,1.68
6478.00,1.68
6477.00,1.68
6476.00,1.68
6475.00,1.68
6474.00,1.68
6473.00,1.68
6472.00,1.68
6471.00,1.68
6470.00,1.68
6469.00,1.68
6468.00,1.68
6467.00,1.68
6466.00,1.68
6465.00,1.68
6464.00,1.68
6463.00,1.68
6462.00,1.68
6461.00,1.67
6460.00,1.67
6459.00,1.67
6458.00,1.67
6457.00,1.67
6456.00,1.67
6455.00,1.67
6454.00,1.67
6453.00,1.67
6452.00,1.67
6451.00,1.67
6450.00,1.67
6449.00,1.67
6448.00,1.68
6447.00,1.68
6446.00,1.68
6445.00,1.68
6444.00,1.68
6443.00,1.68
6442.00,1.68
6441.00,1.68
6440.00,1.68
6439.00,1.68
6438.00,1.68
6437.00,1.68
6436.00,1.68
6435.00,1.68
6434.00,1.68
6433.00,1.68
6432.00,1.69
6431.00,1.69
6430.00,1.69
6429.00,1.69
6428.00,1.69
6427.00,1.69
6426.00,1.69
6425.00,1.69
6424.00,1.69
6423.00,1.69
6422.00,1.69
6421.00,1.69
6420.00,1.70
6419.00,1.70
6418.00,1.70
6417.00,1.70
6416.00,1.70
6415.00,1.70
6414.00,1.70
6413.00,1.70
6412.00,1.70
6411.00,1.70
6410.00,1.70
6409.00,1.70
6408.00,1.70
6407.00,1.70
6406.00,1.70
6405.00,1.70
6404.00,1.70
6403.00,1.70
6402.00,1.70
6401.00,1.70
6400.00,1.70
6399.00,1.70
6398.00,1.70
6397.00,1.70
6396.00,1.70
6395.00,1.70
6394.00,1.70
6393.00,1.70
6392.00,1.70
6391.00,1.69
6390.00,1.69
6389.00,1.70
6388.00,1.70
6387.00,1.70
6386.00,1.70
6385.00,1.70
6384.00,1.70
6383.00,1.70
6382.00,1.70
6381.00,1.70
6380.00,1.71
6379.00,1.71
6378.00,1.71
6377.00,1.71
6376.00,1.71
6375.00,1.72
6374.00,1.72
6373.00,1.72
6372.00,1.72
6371.00,1.72
6370.00,1.72
6369.00,1.72
6368.00,1.72
6367.00,1.72
6366.00,1.73
6365.00,1.73
6364.00,1.73
6363.00,1.73
6362.00,1.73
6361.00,1.73
6360.00,1.73
6359.00,1.73
6358.00,1.73
6357.00,1.73
6356.00,1.73
6355.00,1.73
6354.00,1.73
6353.00,1.73
6352.00,1.73
6351.00,1.73
6350.00,1.73
6349.00,1.73
6348.00,1.73
6347.00,1.73
6346.00,1.73
6345.00,1.73
6344.00,1.73
6343.00,1.73
6342.00,1.74
6341.00,1.74
6340.00,1.74
6339.00,1.74
6338.00,1.74
6337.00,1.74
6336.00,1.74
6335.00,1.74
6334.00,1.74
6333.00,1.74
6332.00,1.74
6331.00,1.74
6330.00,1.74
6329.00,1.74
6328.00,1.74
6327.00,1.74
6326.00,1.74
6325.00,1.74
6324.00,1.74
6323.00,1.74
6322.00,1.74
6321.00,1.74
6320.00,1.74
6319.00,1.74
6318.00,1.74
6317.00,1.75
6316.00,1.75
6315.00,1.75
6314.00,1.75
6313.00,1.75
6312.00,1.75
6311.00,1.75
6310.00,1.75
6309.00,1.75
6308.00,1.75
6307.00,1.76
6306.00,1.76
6305.00,1.76
6304.00,1.76
6303.00,1.76
6302.00,1.76
6301.00,1.76
6300.00,1.76
6299.00,1.76
6298.00,1.76
6297.00,1.76
6296.00,1.76
6295.00,1.76
6294.00,1.76
6293.00,1.76
6292.00,1.76
6291.00,1.76
6290.00,1.76
6289.00,1.76
6288.00,1.76
6287.00,1.76
6286.00,1.76
6285.00,1.76
6284.00,1.76
6283.00,1.76
6282.00,1.76
6281.00,1.76
6280.00,1.76
6279.00,1.76
6278.00,1.76
6277.00,1.76
6276.00,1.76
6275.00,1.76
6274.00,1.76
6273.00,1.76
6272.00,1.76
6271.00,1.76
6270.00,1.76
6269.00,1.76
6268.00,1.77
6267.00,1.77
6266.00,1.77
6265.00,1.77
6264.00,1.77
6263.00,1.78
6262.00,1.78
6261.00,1.78
6260.00,1.78
6259.00,1.79
6258.00,1.79
6257.00,1.79
6256.00,1.79
6255.00,1.80
6254.00,1.80
6253.00,1.80
6252.00,1.80
6251.00,1.81
6250.00,1.81
6249.00,1.81
6248.00,1.81
6247.00,1.81
6246.00,1.82
6245.00,1.82
6244.00,1.82
6243.00,1.82
6242.00,1.82
6241.00,1.82
6240.00,1.82
6239.00,1.82
6238.00,1.82
6237.00,1.82
6236.00,1.82
6235.00,1.82
6234.00,1.82
6233.00,1.82
6232.00,1.82
6231.00,1.82
6230.00,1.82
6229.00,1.82
6228.00,1.82
6227.00,1.82
6226.00,1.82
6225.00,1.82
6224.00,1.82
6223.00,1.82
6222.00,1.82
6221.00,1.82
6220.00,1.82
6219.00,1.82
6218.00,1.82
6217.00,1.82
6216.00,1.82
6215.00,1.82
6214.00,1.82
6213.00,1.82
6212.00,1.82
6211.00,1.82
6210.00,1.82
6209.00,1.83
6208.00,1.83
6207.00,1.83
6206.00,1.83
6205.00,1.84
6204.00,1.84
6203.00,1.84
6202.00,1.85
6201.00,1.85
6200.00,1.85
6199.00,1.85
6198.00,1.86
6197.00,1.86
6196.00,1.86
6195.00,1.86
6194.00,1.86
6193.00,1.87
6192.00,1.87
6191.00,1.87
6190.00,1.87
6189.00,1.87
6188.00,1.88
6187.00,1.88
6186.00,1.88
6185.00,1.88
6184.00,1.88
6183.00,1.88
6182.00,1.88
6181.00,1.88
6180.00,1.87
6179.00,1.87
6178.00,1.87
6177.00,1.87
6176.00,1.87
6175.00,1.86
6174.00,1.86
6173.00,1.86
6172.00,1.86
6171.00,1.86
6170.00,1.85
6169.00,1.85
6168.00,1.85
6167.00,1.85
6166.00,1.84
6165.00,1.84
6164.00,1.84
6163.00,1.84
6162.00,1.83
6161.00,1.83
6160.00,1.83
6159.00,1.83
6158.00,1.83
6157.00,1.82
6156.00,1.82
6155.00,1.82
6154.00,1.82
6153.00,1.82
6152.00,1.82
6151.00,1.82
6150.00,1.81
6149.00,1.81
6148.00,1.81
6147.00,1.81
6146.00,1.81
6145.00,1.81
6144.00,1.81
6143.00,1.81
6142.00,1.82
6141.00,1.82
6140.00,1.82
6139.00,1.82
6138.00,1.82
6137.00,1.82
6136.00,1.82
6135.00,1.82
6134.00,1.83
6133.00,1.83
6132.00,1.83
6131.00,1.83
6130.00,1.83
6129.00,1.84
6128.00,1.84
6127.00,1.84
6126.00,1.84
6125.00,1.85
6124.00,1.85
6123.00,1.85
6122.00,1.86
6121.00,1.86
6120.00,1.86
6119.00,1.86
6118.00,1.87
6117.00,1.87
6116.00,1.87
6115.00,1.87
6114.00,1.87
6113.00,1.88
6112.00,1.88
6111.00,1.88
6110.00,1.88
6109.00,1.89
6108.00,1.89
6107.00,1.89
6106.00,1.89
6105.00,1.89
6104.00,1.90
6103.00,1.90
6102.00,1.90
6101.00,1.90
6100.00,1.90
6099.00,1.90
6098.00,1.90
6097.00,1.90
6096.00,1.91
6095.00,1.91
6094.00,1.91
6093.00,1.91
6092.00,1.91
6091.00,1.91
6090.00,1.91
6089.00,1.91
6088.00,1.91
6087.00,1.92
6086.00,1.92
6085.00,1.92
6084.00,1.92
6083.00,1.92
6082.00,1.92
6081.00,1.92
6080.00,1.92
6079.00,1.92
6078.00,1.92
6077.00,1.92
6076.00,1.91
6075.00,1.91
6074.00,1.91
6073.00,1.91
6072.00,1.91
6071.00,1.91
6070.00,1.91
6069.00,1.91
6068.00,1.91
6067.00,1.91
6066.00,1.91
6065.00,1.91
6064.00,1.90
6063.00,1.90
6062.00,1.90
6061.00,1.90
6060.00,1.90
6059.00,1.90
6058.00,1.90
6057.00,1.90
6056.00,1.90
6055.00,1.90
6054.00,1.90
6053.00,1.90
6052.00,1.90
6051.00,1.90
6050.00,1.90
6049.00,1.90
6048.00,1.90
6047.00,1.90
6046.00,1.90
6045.00,1.90
6044.00,1.90
6043.00,1.90
6042.00,1.90
6041.00,1.90
6040.00,1.90
6039.00,1.90
6038.00,1.91
6037.00,1.91
6036.00,1.91
6035.00,1.91
6034.00,1.91
6033.00,1.91
6032.00,1.91
6031.00,1.91
6030.00,1.91
6029.00,1.91
6028.00,1.91
6027.00,1.91
6026.00,1.91
6025.00,1.91
6024.00,1.91
6023.00,1.91
6022.00,1.91
6021.00,1.91
6020.00,1.91
6019.00,1.91
6018.00,1.91
6017.00,1.91
6016.00,1.91
6015.00,1.91
6014.00,1.91
6013.00,1.91
6012.00,1.91
6011.00,1.90
6010.00,1.90
6009.00,1.90
6008.00,1.90
6007.00,1.90
6006.00,1.90
6005.00,1.90
6004.00,1.90
6003.00,1.90
6002.00,1.90
6001.00,1.90
6000.00,1.90
5999.00,1.90
5998.00,1.90
5997.00,1.90
5996.00,1.90
5995.00,1.90
5994.00,1.90
5993.00,1.90
5992.00,1.90
5991.00,1.90
5990.00,1.90
5989.00,1.90
5988.00,1.90
5987.00,1.90
5986.00,1.90
5985.00,1.90
5984.00,1.90
5983.00,1.90
5982.00,1.90
5981.00,1.90
5980.00,1.90
5979.00,1.90
5978.00,1.90
5977.00,1.90
5976.00,1.90
5975.00,1.90
5974.00,1.90
5973.00,1.90
5972.00,1.89
5971.00,1.89
5970.00,1.89
5969.00,1.89
5968.00,1.89
5967.00,1.88
5966.00,1.88
5965.00,1.88
5964.00,1.87
5963.00,1.87
5962.00,1.87
5961.00,1.86
5960.00,1.86
5959.00,1.86
5958.00,1.85
5957.00,1.85
5956.00,1.85
5955.00,1.84
5954.00,1.84
5953.00,1.84
5952.00,1.84
5951.00,1.83
5950.00,1.83
5949.00,1.83
5948.00,1.83
5947.00,1.83
5946.00,1.83
5945.00,1.82
5944.00,1.82
5943.00,1.82
5942.00,1.82
5941.00,1.82
5940.00,1.82
5939.00,1.82
5938.00,1.82
5937.00,1.82
5936.00,1.82
5935.00,1.82
5934.00,1.82
5933.00,1.82
5932.00,1.82
5931.00,1.82
5930.00,1.82
5929.00,1.82
5928.00,1.82
5927.00,1.82
5926.00,1.82
5925.00,1.82
5924.00,1.82
5923.00,1.81
5922.00,1.81
5921.00,1.81
5920.00,1.81
5919.00,1.81
5918.00,1.81
5917.00,1.81
5916.00,1.81
5915.00,1.81
5914.00,1.81
5913.00,1.81
5912.00,1.81
5911.00,1.81
5910.00,1.80
5909.00,1.80
5908.00,1.80
5907.00,1.80
5906.00,1.80
5905.00,1.80
5904.00,1.80
5903.00,1.80
5902.00,1.80
5901.00,1.79
5900.00,1.79
5899.00,1.79
5898.00,1.79
5897.00,1.79
5896.00,1.79
5895.00,1.79
5894.00,1.79
5893.00,1.79
5892.00,1.79
5891.00,1.80
5890.00,1.80
5889.00,1.80
5888.00,1.80
5887.00,1.80
5886.00,1.80
5885.00,1.80
5884.00,1.80
5883.00,1.80
5882.00,1.80
5881.00,1.80
5880.00,1.80
5879.00,1.80
5878.00,1.81
5877.00,1.81
5876.00,1.81
5875.00,1.81
5874.00,1.81
5873.00,1.81
5872.00,1.81
5871.00,1.82
5870.00,1.82
5869.00,1.82
5868.00,1.82
5867.00,1.82
5866.00,1.82
5865.00,1.82
5864.00,1.82
5863.00,1.83
5862.00,1.83
5861.00,1.83
5860.00,1.83
5859.00,1.83
5858.00,1.83
5857.00,1.83
5856.00,1.83
5855.00,1.83
5854.00,1.83
5853.00,1.83
5852.00,1.83
5851.00,1.83
5850.00,1.83
5849.00,1.83
5848.00,1.83
5847.00,1.83
5846.00,1.83
5845.00,1.83
5844.00,1.82
5843.00,1.82
5842.00,1.82
5841.00,1.82
5840.00,1.82
5839.00,1.82
5838.00,1.82
5837.00,1.82
5836.00,1.81
5835.00,1.81
5834.00,1.81
5833.00,1.81
5832.00,1.81
5831.00,1.81
5830.00,1.81
5829.00,1.82
5828.00,1.82
5827.00,1.82
5826.00,1.82
5825.00,1.82
5824.00,1.82
5823.00,1.82
5822.00,1.82
5821.00,1.82
5820.00,1.82
5819.00,1.82
5818.00,1.82
5817.00,1.82
5816.00,1.82
5815.00,1.83
5814.00,1.83
5813.00,1.83
5812.00,1.83
5811.00,1.83
5810.00,1.83
5809.00,1.83
5808.00,1.83
5807.00,1.82
5806.00,1.82
5805.00,1.82
5804.00,1.82
5803.00,1.82
5802.00,1.82
5801.00,1.82
5800.00,1.82
5799.00,1.82
5798.00,1.81
5797.00,1.81
5796.00,1.81
5795.00,1.81
5794.00,1.81
5793.00,1.81
5792.00,1.81
5791.00,1.81
5790.00,1.81
5789.00,1.81
5788.00,1.81
5787.00,1.81
5786.00,1.81
5785.00,1.81
5784.00,1.81
5783.00,1.81
5782.00,1.81
5781.00,1.81
5780.00,1.81
5779.00,1.81
5778.00,1.81
5777.00,1.81
5776.00,1.81
5775.00,1.81
5774.00,1.81
5773.00,1.81
5772.00,1.81
5771.00,1.81
5770.00,1.81
5769.00,1.81
5768.00,1.81
5767.00,1.81
5766.00,1.81
5765.00,1.81
5764.00,1.81
5763.00,1.81
5762.00,1.81
5761.00,1.81
5760.00,1.81
5759.00,1.81
5758.00,1.81
5757.00,1.81
5756.00,1.81
5755.00,1.81
5754.00,1.81
5753.00,1.81
5752.00,1.81
5751.00,1.81
5750.00,1.81
5749.00,1.81
5748.00,1.81
5747.00,1.81
5746.00,1.81
5745.00,1.81
5744.00,1.82
5743.00,1.82
5742.00,1.82
5741.00,1.82
5740.00,1.82
5739.00,1.82
5738.00,1.82
5737.00,1.82
5736.00,1.82
5735.00,1.82
5734.00,1.82
5733.00,1.82
5732.00,1.82
5731.00,1.82
5730.00,1.82
5729.00,1.82
5728.00,1.82
5727.00,1.82
5726.00,1.82
5725.00,1.82
5724.00,1.82
5723.00,1.82
5722.00,1.82
5721.00,1.82
5720.00,1.82
5719.00,1.82
5718.00,1.82
5717.00,1.83
5716.00,1.83
5715.00,1.83
5714.00,1.83
5713.00,1.83
5712.00,1.83
5711.00,1.83
5710.00,1.83
5709.00,1.83
5708.00,1.83
5707.00,1.83
5706.00,1.83
5705.00,1.83
5704.00,1.83
5703.00,1.83
5702.00,1.83
5701.00,1.83
5700.00,1.83
5699.00,1.83
5698.00,1.83
5697.00,1.83
5696.00,1.83
5695.00,1.83
5694.00,1.83
5693.00,1.82
5692.00,1.82
5691.00,1.82
5690.00,1.82
5689.00,1.82
5688.00,1.82
5687.00,1.82
5686.00,1.81
5685.00,1.81
5684.00,1.81
5683.00,1.81
5682.00,1.81
5681.00,1.81
5680.00,1.81
5679.00,1.80
5678.00,1.80
5677.00,1.80
5676.00,1.80
5675.00,1.80
5674.00,1.80
5673.00,1.80
5672.00,1.80
5671.00,1.81
5670.00,1.81
5669.00,1.81
5668.00,1.81
5667.00,1.81
5666.00,1.81
5665.00,1.81
5664.00,1.81
5663.00,1.82
5662.00,1.82
5661.00,1.82
5660.00,1.82
5659.00,1.82
5658.00,1.83
5657.00,1.83
5656.00,1.83
5655.00,1.83
5654.00,1.83
5653.00,1.84
5652.00,1.84
5651.00,1.84
5650.00,1.84
5649.00,1.84
5648.00,1.85
5647.00,1.85
5646.00,1.85
5645.00,1.85
5644.00,1.85
5643.00,1.85
5642.00,1.85
5641.00,1.86
5640.00,1.86
5639.00,1.86
5638.00,1.86
5637.00,1.86
5636.00,1.86
5635.00,1.86
5634.00,1.86
5633.00,1.86
5632.00,1.86
5631.00,1.86
5630.00,1.86
5629.00,1.86
5628.00,1.86
5627.00,1.86
5626.00,1.86
5625.00,1.86
5624.00,1.86
5623.00,1.86
5622.00,1.86
5621.00,1.86
5620.00,1.86
5619.00,1.86
5618.00,1.86
5617.00,1.86
5616.00,1.86
5615.00,1.86
5614.00,1.85
5613.00,1.86
5612.00,1.86
5611.00,1.86
5610.00,1.86
5609.00,1.86
5608.00,1.86
5607.00,1.86
5606.00,1.86
5605.00,1.86
5604.00,1.86
5603.00,1.86
5602.00,1.86
5601.00,1.86
5600.00,1.86
5599.00,1.86
5598.00,1.86
5597.00,1.86
5596.00,1.86
5595.00,1.86
5594.00,1.86
5593.00,1.87
5592.00,1.87
5591.00,1.87
5590.00,1.87
5589.00,1.87
5588.00,1.87
5587.00,1.87
5586.00,1.87
5585.00,1.87
5584.00,1.87
5583.00,1.87
5582.00,1.87
5581.00,1.87
5580.00,1.88
5579.00,1.88
5578.00,1.88
5577.00,1.88
5576.00,1.88
5575.00,1.88
5574.00,1.88
5573.00,1.88
5572.00,1.88
5571.00,1.88
5570.00,1.88
5569.00,1.88
5568.00,1.88
5567.00,1.88
5566.00,1.88
5565.00,1.88
5564.00,1.88
5563.00,1.88
5562.00,1.88
5561.00,1.88
5560.00,1.88
5559.00,1.88
5558.00,1.88
5557.00,1.88
5556.00,1.88
5555.00,1.88
5554.00,1.88
5553.00,1.88
5552.00,1.88
5551.00,1.88
5550.00,1.87
5549.00,1.87
5548.00,1.87
5547.00,1.87
5546.00,1.87
5545.00,1.87
5544.00,1.87
5543.00,1.87
5542.00,1.87
5541.00,1.87
5540.00,1.87
5539.00,1.87
5538.00,1.87
5537.00,1.87
5536.00,1.87
5535.00,1.87
5534.00,1.87
5533.00,1.87
5532.00,1.87
5531.00,1.88
5530.00,1.88
5529.00,1.88
5528.00,1.88
5527.00,1.88
5526.00,1.88
5525.00,1.89
5524.00,1.89
5523.00,1.89
5522.00,1.89
5521.00,1.89
5520.00,1.90
5519.00,1.90
5518.00,1.90
5517.00,1.90
5516.00,1.90
5515.00,1.91
5514.00,1.91
5513.00,1.91
5512.00,1.91
5511.00,1.91
5510.00,1.91
5509.00,1.92
5508.00,1.92
5507.00,1.92
5506.00,1.92
5505.00,1.92
5504.00,1.92
5503.00,1.92
5502.00,1.92
5501.00,1.92
5500.00,1.92
5499.00,1.92
5498.00,1.92
5497.00,1.92
5496.00,1.92
5495.00,1.92
5494.00,1.92
5493.00,1.92
5492.00,1.92
5491.00,1.92
5490.00,1.92
5489.00,1.92
5488.00,1.92
5487.00,1.92
5486.00,1.92
5485.00,1.92
5484.00,1.92
5483.00,1.92
5482.00,1.92
5481.00,1.92
5480.00,1.92
5479.00,1.92
5478.00,1.92
5477.00,1.92
5476.00,1.92
5475.00,1.92
5474.00,1.92
5473.00,1.92
5472.00,1.92
5471.00,1.92
5470.00,1.92
5469.00,1.92
5468.00,1.92
5467.00,1.92
5466.00,1.92
5465.00,1.92
5464.00,1.92
5463.00,1.92
5462.00,1.92
5461.00,1.92
5460.00,1.92
5459.00,1.93
5458.00,1.93
5457.00,1.93
5456.00,1.93
5455.00,1.93
5454.00,1.93
5453.00,1.92
5452.00,1.92
5451.00,1.92
5450.00,1.92
5449.00,1.92
5448.00,1.92
5447.00,1.92
5446.00,1.92
5445.00,1.92
5444.00,1.92
5443.00,1.92
5442.00,1.91
5441.00,1.91
5440.00,1.91
5439.00,1.91
5438.00,1.91
5437.00,1.91
5436.00,1.91
5435.00,1.91
5434.00,1.91
5433.00,1.90
5432.00,1.90
5431.00,1.90
5430.00,1.90
5429.00,1.90
5428.00,1.90
5427.00,1.90
5426.00,1.90
5425.00,1.90
5424.00,1.90
5423.00,1.90
5422.00,1.90
5421.00,1.90
5420.00,1.90
5419.00,1.90
5418.00,1.90
5417.00,1.90
5416.00,1.90
5415.00,1.90
5414.00,1.90
5413.00,1.90
5412.00,1.90
5411.00,1.90
5410.00,1.90
5409.00,1.90
5408.00,1.90
5407.00,1.90
5406.00,1.90
5405.00,1.90
5404.00,1.90
5403.00,1.90
5402.00,1.90
5401.00,1.90
5400.00,1.90
5399.00,1.90
5398.00,1.90
5397.00,1.90
5396.00,1.90
5395.00,1.90
5394.00,1.90
5393.00,1.90
5392.00,1.90
5391.00,1.90
5390.00,1.90
5389.00,1.90
5388.00,1.90
5387.00,1.90
5386.00,1.90
5385.00,1.90
5384.00,1.90
5383.00,1.90
5382.00,1.90
5381.00,1.90
5380.00,1.90
5379.00,1.90
5378.00,1.90
5377.00,1.90
5376.00,1.90
5375.00,1.90
5374.00,1.90
5373.00,1.89
5372.00,1.89
5371.00,1.89
5370.00,1.89
5369.00,1.89
5368.00,1.89
5367.00,1.89
5366.00,1.89
5365.00,1.89
5364.00,1.89
5363.00,1.89
5362.00,1.89
5361.00,1.88
5360.00,1.88
5359.00,1.88
5358.00,1.87
5357.00,1.87
5356.00,1.87
5355.00,1.86
5354.00,1.86
5353.00,1.85
5352.00,1.85
5351.00,1.84
5350.00,1.84
5349.00,1.83
5348.00,1.83
5347.00,1.82
5346.00,1.81
5345.00,1.81
5344.00,1.80
5343.00,1.80
5342.00,1.79
5341.00,1.78
5340.00,1.77
5339.00,1.77
5338.00,1.76
5337.00,1.75
5336.00,1.75
5335.00,1.74
5334.00,1.74
5333.00,1.73
5332.00,1.72
5331.00,1.72
5330.00,1.71
5329.00,1.70
5328.00,1.70
5327.00,1.69
5326.00,1.68
5325.00,1.68
5324.00,1.67
5323.00,1.66
5322.00,1.66
5321.00,1.65
5320.00,1.64
5319.00,1.63
5318.00,1.62
5317.00,1.62
5316.00,1.61
5315.00,1.60
5314.00,1.59
5313.00,1.58
5312.00,1.57
5311.00,1.56
5310.00,1.56
5309.00,1.55
5308.00,1.54
5307.00,1.53
5306.00,1.52
5305.00,1.51
5304.00,1.50
5303.00,1.48
5302.00,1.47
5301.00,1.46
5300.00,1.45
5299.00,1.44
5298.00,1.44
5297.00,1.43
5296.00,1.42
5295.00,1.41
5294.00,1.40
5293.00,1.39
5292.00,1.38
5291.00,1.37
5290.00,1.36
5289.00,1.35
5288.00,1.34
5287.00,1.33
5286.00,1.33
5285.00,1.32
5284.00,1.31
5283.00,1.30
5282.00,1.29
5281.00,1.29
5280.00,1.28
5279.00,1.27
5278.00,1.26
5277.00,1.26
5276.00,1.25
5275.00,1.24
5274.00,1.24
5273.00,1.23
5272.00,1.22
5271.00,1.21
5270.00,1.21
5269.00,1.20
5268.00,1.20
5267.00,1.19
5266.00,1.18
5265.00,1.18
5264.00,1.17
5263.00,1.17
5262.00,1.16
5261.00,1.16
5260.00,1.15
5259.00,1.15
5258.00,1.14
5257.00,1.14
5256.00,1.13
5255.00,1.13
5254.00,1.12
5253.00,1.12
5252.00,1.11
5251.00,1.11
5250.00,1.11
5249.00,1.10
5248.00,1.10
5247.00,1.10
5246.00,1.09
5245.00,1.09
5244.00,1.09
5243.00,1.08
5242.00,1.08
5241.00,1.08
5240.00,1.08
5239.00,1.07
5238.00,1.07
5237.00,1.07
5236.00,1.06
5235.00,1.06
5234.00,1.06
5233.00,1.06
5232.00,1.05
5231.00,1.05
5230.00,1.05
5229.00,1.04
5228.00,1.04
5227.00,1.04
5226.00,1.03
5225.00,1.03
5224.00,1.03
5223.00,1.03
5222.00,1.02
5221.00,1.02
5220.00,1.02
5219.00,1.02
5218.00,1.01
5217.00,1.01
5216.00,1.01
5215.00,1.01
5214.00,1.00
5213.00,1.00
5212.00,1.00
5211.00,1.00
5210.00,1.00
5209.00,0.99
5208.00,0.99
5207.00,0.99
5206.00,0.99
5205.00,0.99
5204.00,0.99
5203.00,0.99
5202.00,0.99
5201.00,0.99
5200.00,0.98
5199.00,0.98
5198.00,0.98
5197.00,0.98
5196.00,0.98
5195.00,0.98
5194.00,0.98
5193.00,0.98
5192.00,0.98
5191.00,0.97
5190.00,0.97
5189.00,0.97
5188.00,0.97
5187.00,0.97
5186.00,0.97
5185.00,0.97
5184.00,0.97
5183.00,0.97
5182.00,0.97
5181.00,0.97
5180.00,0.97
5179.00,0.97
5178.00,0.97
5177.00,0.97
5176.00,0.97
5175.00,0.97
5174.00,0.97
5173.00,0.97
5172.00,0.97
5171.00,0.97
5170.00,0.97
5169.00,0.97
5168.00,0.97
5167.00,0.98
5166.00,0.98
5165.00,0.98
5164.00,0.98
5163.00,0.98
5162.00,0.98
5161.00,0.98
5160.00,0.98
5159.00,0.99
5158.00,0.99
5157.00,0.99
5156.00,0.99
5155.00,0.99
5154.00,0.99
5153.00,0.99
5152.00,0.99
5151.00,1.00
5150.00,1.00
5149.00,1.00
5148.00,1.00
5147.00,1.00
5146.00,1.00
5145.00,1.00
5144.00,1.00
5143.00,1.01
5142.00,1.01
5141.00,1.01
5140.00,1.01
5139.00,1.01
5138.00,1.02
5137.00,1.02
5136.00,1.02
5135.00,1.02
5134.00,1.02
5133.00,1.03
5132.00,1.03
5131.00,1.03
5130.00,1.03
5129.00,1.04
5128.00,1.04
5127.00,1.04
5126.00,1.04
5125.00,1.04
5124.00,1.05
5123.00,1.05
5122.00,1.05
5121.00,1.05
5120.00,1.06
5119.00,1.06
5118.00,1.06
5117.00,1.06
5116.00,1.06
5115.00,1.07
5114.00,1.07
5113.00,1.07
5112.00,1.07
5111.00,1.07
5110.00,1.07
5109.00,1.08
5108.00,1.08
5107.00,1.08
5106.00,1.08
5105.00,1.08
5104.00,1.09
5103.00,1.09
5102.00,1.09
5101.00,1.09
5100.00,1.09
5099.00,1.10
5098.00,1.10
5097.00,1.10
5096.00,1.10
5095.00,1.11
5094.00,1.11
5093.00,1.11
5092.00,1.11
5091.00,1.12
5090.00,1.12
5089.00,1.12
5088.00,1.12
5087.00,1.12
5086.00,1.13
5085.00,1.13
5084.00,1.13
5083.00,1.14
5082.00,1.14
5081.00,1.14
5080.00,1.14
5079.00,1.15
5078.00,1.15
5077.00,1.15
5076.00,1.15
5075.00,1.16
5074.00,1.16
5073.00,1.16
5072.00,1.16
5071.00,1.16
5070.00,1.17
5069.00,1.17
5068.00,1.17
5067.00,1.17
5066.00,1.18
5065.00,1.18
5064.00,1.18
5063.00,1.18
5062.00,1.19
5061.00,1.19
5060.00,1.19
5059.00,1.20
5058.00,1.20
5057.00,1.20
5056.00,1.20
5055.00,1.20
5054.00,1.21
5053.00,1.21
5052.00,1.21
5051.00,1.21
5050.00,1.21
5049.00,1.21
5048.00,1.22
5047.00,1.22
5046.00,1.22
5045.00,1.22
5044.00,1.22
5043.00,1.23
5042.00,1.23
5041.00,1.23
5040.00,1.23
5039.00,1.23
5038.00,1.23
5037.00,1.23
5036.00,1.24
5035.00,1.24
5034.00,1.24
5033.00,1.24
5032.00,1.24
5031.00,1.24
5030.00,1.25
5029.00,1.25
5028.00,1.25
5027.00,1.25
5026.00,1.26
5025.00,1.26
5024.00,1.26
5023.00,1.26
5022.00,1.27
5021.00,1.27
5020.00,1.27
5019.00,1.27
5018.00,1.28
5017.00,1.28
5016.00,1.28
5015.00,1.29
5014.00,1.29
5013.00,1.29
5012.00,1.30
5011.00,1.30
5010.00,1.30
5009.00,1.30
5008.00,1.31
5007.00,1.31
5006.00,1.31
5005.00,1.32
5004.00,1.32
5003.00,1.32
5002.00,1.33
5001.00,1.33
5000.00,1.33
4999.00,1.33
4998.00,1.34
4997.00,1.34
4996.00,1.34
4995.00,1.35
4994.00,1.35
4993.00,1.35
4992.00,1.35
4991.00,1.36
4990.00,1.36
4989.00,1.36
4988.00,1.37
4987.00,1.37
4986.00,1.37
4985.00,1.37
4984.00,1.38
4983.00,1.38
4982.00,1.38
4981.00,1.39
4980.00,1.39
4979.00,1.39
4978.00,1.39
4977.00,1.40
4976.00,1.40
4975.00,1.40
4974.00,1.40
4973.00,1.41
4972.00,1.41
4971.00,1.41
4970.00,1.41
4969.00,1.41
4968.00,1.42
4967.00,1.42
4966.00,1.42
4965.00,1.42
4964.00,1.42
4963.00,1.42
4962.00,1.43
4961.00,1.43
4960.00,1.43
4959.00,1.43
4958.00,1.43
4957.00,1.43
4956.00,1.44
4955.00,1.44
4954.00,1.44
4953.00,1.44
4952.00,1.44
4951.00,1.44
4950.00,1.44
4949.00,1.44
4948.00,1.44
4947.00,1.45
4946.00,1.45
4945.00,1.45
4944.00,1.45
4943.00,1.45
4942.00,1.45
4941.00,1.45
4940.00,1.45
4939.00,1.45
4938.00,1.45
4937.00,1.46
4936.00,1.46
4935.00,1.46
4934.00,1.46
4933.00,1.46
4932.00,1.46
4931.00,1.46
4930.00,1.46
4929.00,1.46
4928.00,1.46
4927.00,1.47
4926.00,1.47
4925.00,1.47
4924.00,1.47
4923.00,1.47
4922.00,1.47
4921.00,1.48
4920.00,1.48
4919.00,1.48
4918.00,1.48
4917.00,1.48
4916.00,1.49
4915.00,1.49
4914.00,1.49
4913.00,1.49
4912.00,1.49
4911.00,1.50
4910.00,1.50
4909.00,1.50
4908.00,1.50
4907.00,1.50
4906.00,1.50
4905.00,1.51
4904.00,1.51
4903.00,1.51
4902.00,1.51
4901.00,1.51
4900.00,1.51
4899.00,1.51
4898.00,1.51
4897.00,1.51
4896.00,1.51
4895.00,1.51
4894.00,1.51
4893.00,1.51
4892.00,1.51
4891.00,1.51
4890.00,1.51
4889.00,1.51
4888.00,1.51
4887.00,1.51
4886.00,1.51
4885.00,1.51
4884.00,1.51
4883.00,1.52
4882.00,1.52
4881.00,1.52
4880.00,1.52
4879.00,1.52
4878.00,1.52
4877.00,1.52
4876.00,1.52
4875.00,1.52
4874.00,1.53
4873.00,1.53
4872.00,1.53
4871.00,1.53
4870.00,1.53
4869.00,1.53
4868.00,1.54
4867.00,1.54
4866.00,1.54
4865.00,1.54
4864.00,1.54
4863.00,1.54
4862.00,1.54
4861.00,1.55
4860.00,1.55
4859.00,1.55
4858.00,1.55
4857.00,1.55
4856.00,1.55
4855.00,1.55
4854.00,1.55
4853.00,1.55
4852.00,1.55
4851.00,1.56
4850.00,1.56
4849.00,1.56
4848.00,1.56
4847.00,1.56
4846.00,1.56
4845.00,1.56
4844.00,1.56
4843.00,1.56
4842.00,1.56
4841.00,1.56
4840.00,1.57
4839.00,1.57
4838.00,1.57
4837.00,1.57
4836.00,1.57
4835.00,1.57
4834.00,1.58
4833.00,1.58
4832.00,1.58
4831.00,1.58
4830.00,1.58
4829.00,1.59
4828.00,1.59
4827.00,1.59
4826.00,1.59
4825.00,1.59
4824.00,1.60
4823.00,1.60
4822.00,1.60
4821.00,1.60
4820.00,1.61
4819.00,1.61
4818.00,1.61
4817.00,1.61
4816.00,1.61
4815.00,1.61
4814.00,1.61
4813.00,1.62
4812.00,1.62
4811.00,1.62
4810.00,1.62
4809.00,1.62
4808.00,1.62
4807.00,1.62
4806.00,1.63
4805.00,1.63
4804.00,1.63
4803.00,1.63
4802.00,1.63
4801.00,1.63
4800.00,1.63
4799.00,1.63
4798.00,1.64
4797.00,1.64
4796.00,1.64
4795.00,1.64
4794.00,1.64
4793.00,1.64
4792.00,1.64
4791.00,1.65
4790.00,1.65
4789.00,1.65
4788.00,1.65
4787.00,1.65
4786.00,1.65
4785.00,1.66
4784.00,1.66
4783.00,1.66
4782.00,1.66
4781.00,1.66
4780.00,1.67
4779.00,1.67
4778.00,1.67
4777.00,1.67
4776.00,1.67
4775.00,1.67
4774.00,1.68
4773.00,1.68
4772.00,1.68
4771.00,1.68
4770.00,1.69
4769.00,1.69
4768.00,1.69
4767.00,1.69
4766.00,1.69
4765.00,1.70
4764.00,1.70
4763.00,1.70
4762.00,1.70
4761.00,1.71
4760.00,1.71
4759.00,1.71
4758.00,1.71
4757.00,1.72
4756.00,1.72
4755.00,1.72
4754.00,1.73
4753.00,1.73
4752.00,1.73
4751.00,1.74
4750.00,1.74
4749.00,1.74
4748.00,1.75
4747.00,1.75
4746.00,1.75
4745.00,1.75
4744.00,1.76
4743.00,1.76
4742.00,1.76
4741.00,1.77
4740.00,1.77
4739.00,1.77
4738.00,1.77
4737.00,1.78
4736.00,1.78
4735.00,1.78
4734.00,1.78
4733.00,1.79
4732.00,1.79
4731.00,1.79
4730.00,1.79
4729.00,1.79
4728.00,1.79
4727.00,1.79
4726.00,1.79
4725.00,1.79
4724.00,1.79
4723.00,1.79
4722.00,1.80
4721.00,1.80
4720.00,1.80
4719.00,1.80
4718.00,1.80
4717.00,1.80
4716.00,1.80
4715.00,1.80
4714.00,1.80
4713.00,1.80
4712.00,1.80
4711.00,1.80
4710.00,1.80
4709.00,1.80
4708.00,1.80
4707.00,1.80
4706.00,1.80
4705.00,1.80
4704.00,1.81
4703.00,1.81
4702.00,1.81
4701.00,1.81
4700.00,1.82
4699.00,1.82
4698.00,1.82
4697.00,1.82
4696.00,1.83
4695.00,1.83
4694.00,1.83
4693.00,1.83
4692.00,1.84
4691.00,1.84
4690.00,1.84
4689.00,1.85
4688.00,1.85
4687.00,1.85
4686.00,1.86
4685.00,1.86
4684.00,1.86
4683.00,1.86
4682.00,1.87
4681.00,1.87
4680.00,1.87
4679.00,1.87
4678.00,1.87
4677.00,1.87
4676.00,1.88
4675.00,1.88
4674.00,1.88
4673.00,1.88
4672.00,1.88
4671.00,1.88
4670.00,1.88
4669.00,1.88
4668.00,1.88
4667.00,1.88
4666.00,1.88
4665.00,1.89
4664.00,1.89
4663.00,1.89
4662.00,1.89
4661.00,1.89
4660.00,1.89
4659.00,1.89
4658.00,1.89
4657.00,1.89
4656.00,1.89
4655.00,1.89
4654.00,1.89
4653.00,1.90
4652.00,1.90
4651.00,1.90
4650.00,1.90
4649.00,1.90
4648.00,1.90
4647.00,1.91
4646.00,1.91
4645.00,1.91
4644.00,1.91
4643.00,1.91
4642.00,1.91
4641.00,1.91
4640.00,1.91
4639.00,1.91
4638.00,1.91
4637.00,1.91
4636.00,1.91
4635.00,1.91
4634.00,1.91
4633.00,1.91
4632.00,1.91
4631.00,1.91
4630.00,1.91
4629.00,1.91
4628.00,1.91
4627.00,1.91
4626.00,1.91
4625.00,1.91
4624.00,1.91
4623.00,1.91
4622.00,1.91
4621.00,1.91
4620.00,1.91
4619.00,1.91
4618.00,1.91
4617.00,1.91
4616.00,1.91
4615.00,1.91
4614.00,1.91
4613.00,1.91
4612.00,1.91
4611.00,1.91
4610.00,1.91
4609.00,1.91
4608.00,1.91
4607.00,1.91
4606.00,1.91
4605.00,1.91
4604.00,1.91
4603.00,1.91
4602.00,1.91
4601.00,1.91
4600.00,1.91
4599.00,1.91
4598.00,1.91
4597.00,1.91
4596.00,1.91
4595.00,1.91
4594.00,1.91
4593.00,1.91
4592.00,1.91
4591.00,1.91
4590.00,1.91
4589.00,1.91
4588.00,1.91
4587.00,1.91
4586.00,1.91
4585.00,1.91
4584.00,1.91
4583.00,1.91
4582.00,1.91
4581.00,1.91
4580.00,1.91
4579.00,1.91
4578.00,1.91
4577.00,1.91
4576.00,1.91
4575.00,1.91
4574.00,1.91
4573.00,1.91
4572.00,1.91
4571.00,1.91
4570.00,1.91
4569.00,1.91
4568.00,1.91
4567.00,1.91
4566.00,1.91
4565.00,1.91
4564.00,1.91
4563.00,1.92
4562.00,1.92
4561.00,1.92
4560.00,1.92
4559.00,1.92
4558.00,1.92
4557.00,1.92
4556.00,1.92
4555.00,1.92
4554.00,1.92
4553.00,1.92
4552.00,1.92
4551.00,1.92
4550.00,1.92
4549.00,1.92
4548.00,1.92
4547.00,1.92
4546.00,1.92
4545.00,1.92
4544.00,1.92
4543.00,1.92
4542.00,1.92
4541.00,1.92
4540.00,1.92
4539.00,1.92
4538.00,1.92
4537.00,1.92
4536.00,1.92
4535.00,1.92
4534.00,1.92
4533.00,1.92
4532.00,1.92
4531.00,1.92
4530.00,1.92
4529.00,1.92
4528.00,1.92
4527.00,1.92
4526.00,1.92
4525.00,1.92
4524.00,1.92
4523.00,1.92
4522.00,1.92
4521.00,1.92
4520.00,1.92
4519.00,1.92
4518.00,1.92
4517.00,1.92
4516.00,1.92
4515.00,1.92
4514.00,1.92
4513.00,1.92
4512.00,1.92
4511.00,1.92
4510.00,1.92
4509.00,1.92
4508.00,1.92
4507.00,1.92
4506.00,1.92
4505.00,1.91
4504.00,1.91
4503.00,1.91
4502.00,1.91
4501.00,1.91
4500.00,1.91
4499.00,1.91
4498.00,1.91
4497.00,1.91
4496.00,1.91
4495.00,1.91
4494.00,1.91
4493.00,1.91
4492.00,1.91
4491.00,1.90
4490.00,1.90
4489.00,1.90
4488.00,1.90
4487.00,1.90
4486.00,1.90
4485.00,1.90
4484.00,1.90
4483.00,1.90
4482.00,1.90
4481.00,1.90
4480.00,1.90
4479.00,1.90
4478.00,1.90
4477.00,1.90
4476.00,1.90
4475.00,1.89
4474.00,1.89
4473.00,1.89
4472.00,1.89
4471.00,1.89
4470.00,1.89
4469.00,1.88
4468.00,1.88
4467.00,1.88
4466.00,1.88
4465.00,1.87
4464.00,1.87
4463.00,1.87
4462.00,1.86
4461.00,1.86
4460.00,1.86
4459.00,1.85
4458.00,1.85
4457.00,1.85
4456.00,1.84
4455.00,1.84
4454.00,1.83
4453.00,1.83
4452.00,1.82
4451.00,1.81
4450.00,1.81
4449.00,1.80
4448.00,1.79
4447.00,1.79
4446.00,1.78
4445.00,1.77
4444.00,1.77
4443.00,1.76
4442.00,1.75
4441.00,1.75
4440.00,1.74
4439.00,1.73
4438.00,1.72
4437.00,1.71
4436.00,1.71
4435.00,1.70
4434.00,1.69
4433.00,1.68
4432.00,1.67
4431.00,1.66
4430.00,1.66
4429.00,1.65
4428.00,1.64
4427.00,1.64
4426.00,1.63
4425.00,1.62
4424.00,1.61
4423.00,1.61
4422.00,1.60
4421.00,1.60
4420.00,1.59
4419.00,1.58
4418.00,1.58
4417.00,1.57
4416.00,1.57
4415.00,1.56
4414.00,1.56
4413.00,1.55
4412.00,1.55
4411.00,1.55
4410.00,1.55
4409.00,1.54
4408.00,1.54
4407.00,1.54
4406.00,1.54
4405.00,1.54
4404.00,1.54
4403.00,1.54
4402.00,1.54
4401.00,1.55
4400.00,1.55
4399.00,1.55
4398.00,1.55
4397.00,1.56
4396.00,1.56
4395.00,1.57
4394.00,1.57
4393.00,1.58
4392.00,1.58
4391.00,1.59
4390.00,1.59
4389.00,1.60
4388.00,1.60
4387.00,1.61
4386.00,1.61
4385.00,1.62
4384.00,1.62
4383.00,1.63
4382.00,1.63
4381.00,1.63
4380.00,1.64
4379.00,1.64
4378.00,1.65
4377.00,1.65
4376.00,1.65
4375.00,1.65
4374.00,1.66
4373.00,1.66
4372.00,1.66
4371.00,1.66
4370.00,1.66
4369.00,1.66
4368.00,1.66
4367.00,1.66
4366.00,1.66
4365.00,1.66
4364.00,1.66
4363.00,1.65
4362.00,1.65
4361.00,1.65
4360.00,1.65
4359.00,1.64
4358.00,1.64
4357.00,1.64
4356.00,1.63
4355.00,1.63
4354.00,1.63
4353.00,1.62
4352.00,1.62
4351.00,1.61
4350.00,1.61
4349.00,1.61
4348.00,1.60
4347.00,1.60
4346.00,1.60
4345.00,1.60
4344.00,1.59
4343.00,1.59
4342.00,1.59
4341.00,1.59
4340.00,1.59
4339.00,1.59
4338.00,1.59
4337.00,1.59
4336.00,1.59
4335.00,1.59
4334.00,1.59
4333.00,1.59
4332.00,1.60
4331.00,1.60
4330.00,1.60
4329.00,1.61
4328.00,1.61
4327.00,1.61
4326.00,1.62
4325.00,1.63
4324.00,1.63
4323.00,1.64
4322.00,1.65
4321.00,1.65
4320.00,1.66
4319.00,1.66
4318.00,1.67
4317.00,1.68
4316.00,1.69
4315.00,1.69
4314.00,1.70
4313.00,1.71
4312.00,1.71
4311.00,1.72
4310.00,1.73
4309.00,1.74
4308.00,1.75
4307.00,1.76
4306.00,1.77
4305.00,1.78
4304.00,1.78
4303.00,1.79
4302.00,1.80
4301.00,1.81
4300.00,1.82
4299.00,1.82
4298.00,1.83
4297.00,1.84
4296.00,1.84
4295.00,1.85
4294.00,1.85
4293.00,1.86
4292.00,1.87
4291.00,1.87
4290.00,1.88
4289.00,1.88
4288.00,1.88
4287.00,1.89
4286.00,1.89
4285.00,1.89
4284.00,1.89
4283.00,1.90
4282.00,1.90
4281.00,1.90
4280.00,1.89
4279.00,1.89
4278.00,1.89
4277.00,1.89
4276.00,1.89
4275.00,1.88
4274.00,1.88
4273.00,1.87
4272.00,1.87
4271.00,1.87
4270.00,1.86
4269.00,1.86
4268.00,1.85
4267.00,1.84
4266.00,1.84
4265.00,1.84
4264.00,1.83
4263.00,1.83
4262.00,1.82
4261.00,1.82
4260.00,1.81
4259.00,1.81
4258.00,1.81
4257.00,1.81
4256.00,1.80
4255.00,1.80
4254.00,1.80
4253.00,1.80
4252.00,1.80
4251.00,1.80
4250.00,1.81
4249.00,1.81
4248.00,1.81
4247.00,1.81
4246.00,1.82
4245.00,1.82
4244.00,1.83
4243.00,1.83
4242.00,1.84
4241.00,1.84
4240.00,1.85
4239.00,1.85
4238.00,1.86
4237.00,1.86
4236.00,1.87
4235.00,1.87
4234.00,1.88
4233.00,1.89
4232.00,1.89
4231.00,1.89
4230.00,1.90
4229.00,1.90
4228.00,1.91
4227.00,1.91
4226.00,1.91
4225.00,1.92
4224.00,1.92
4223.00,1.92
4222.00,1.92
4221.00,1.92
4220.00,1.93
4219.00,1.93
4218.00,1.93
4217.00,1.93
4216.00,1.93
4215.00,1.93
4214.00,1.93
4213.00,1.93
4212.00,1.93
4211.00,1.93
4210.00,1.93
4209.00,1.93
4208.00,1.93
4207.00,1.93
4206.00,1.92
4205.00,1.92
4204.00,1.92
4203.00,1.92
4202.00,1.92
4201.00,1.92
4200.00,1.92
4199.00,1.91
4198.00,1.91
4197.00,1.91
4196.00,1.91
4195.00,1.91
4194.00,1.90
4193.00,1.90
4192.00,1.90
4191.00,1.89
4190.00,1.89
4189.00,1.88
4188.00,1.88
4187.00,1.88
4186.00,1.87
4185.00,1.87
4184.00,1.87
4183.00,1.87
4182.00,1.86
4181.00,1.86
4180.00,1.86
4179.00,1.86
4178.00,1.86
4177.00,1.85
4176.00,1.85
4175.00,1.85
4174.00,1.85
4173.00,1.85
4172.00,1.85
4171.00,1.85
4170.00,1.85
4169.00,1.85
4168.00,1.85
4167.00,1.85
4166.00,1.85
4165.00,1.85
4164.00,1.85
4163.00,1.85
4162.00,1.85
4161.00,1.85
4160.00,1.86
4159.00,1.86
4158.00,1.86
4157.00,1.86
4156.00,1.86
4155.00,1.86
4154.00,1.86
4153.00,1.86
4152.00,1.87
4151.00,1.87
4150.00,1.87
4149.00,1.87
4148.00,1.87
4147.00,1.87
4146.00,1.87
4145.00,1.87
4144.00,1.87
4143.00,1.87
4142.00,1.87
4141.00,1.87
4140.00,1.87
4139.00,1.87
4138.00,1.87
4137.00,1.87
4136.00,1.87
4135.00,1.87
4134.00,1.87
4133.00,1.87
4132.00,1.87
4131.00,1.87
4130.00,1.87
4129.00,1.87
4128.00,1.87
4127.00,1.87
4126.00,1.87
4125.00,1.87
4124.00,1.87
4123.00,1.87
4122.00,1.87
4121.00,1.87
4120.00,1.87
4119.00,1.87
4118.00,1.87
4117.00,1.87
4116.00,1.87
4115.00,1.87
4114.00,1.87
4113.00,1.87
4112.00,1.87
4111.00,1.87
4110.00,1.87
4109.00,1.87
4108.00,1.87
4107.00,1.87
4106.00,1.87
4105.00,1.87
4104.00,1.87
4103.00,1.86
4102.00,1.86
4101.00,1.86
4100.00,1.86
4099.00,1.86
4098.00,1.86
4097.00,1.86
4096.00,1.86
4095.00,1.86
4094.00,1.85
4093.00,1.85
4092.00,1.85
4091.00,1.85
4090.00,1.84
4089.00,1.84
4088.00,1.84
4087.00,1.83
4086.00,1.83
4085.00,1.82
4084.00,1.82
4083.00,1.81
4082.00,1.81
4081.00,1.80
4080.00,1.79
4079.00,1.79
4078.00,1.78
4077.00,1.77
4076.00,1.77
4075.00,1.76
4074.00,1.75
4073.00,1.75
4072.00,1.74
4071.00,1.74
4070.00,1.73
4069.00,1.73
4068.00,1.73
4067.00,1.73
4066.00,1.73
4065.00,1.73
4064.00,1.73
4063.00,1.73
4062.00,1.73
4061.00,1.73
4060.00,1.73
4059.00,1.73
4058.00,1.74
4057.00,1.74
4056.00,1.74
4055.00,1.74
4054.00,1.75
4053.00,1.75
4052.00,1.76
4051.00,1.76
4050.00,1.77
4049.00,1.77
4048.00,1.78
4047.00,1.78
4046.00,1.79
4045.00,1.79
4044.00,1.80
4043.00,1.80
4042.00,1.80
4041.00,1.80
4040.00,1.80
4039.00,1.80
4038.00,1.80
4037.00,1.80
4036.00,1.80
4035.00,1.80
4034.00,1.79
4033.00,1.79
4032.00,1.79
4031.00,1.79
4030.00,1.79
4029.00,1.79
4028.00,1.79
4027.00,1.79
4026.00,1.80
4025.00,1.80
4024.00,1.80
4023.00,1.80
4022.00,1.80
4021.00,1.80
4020.00,1.80
4019.00,1.80
4018.00,1.80
4017.00,1.81
4016.00,1.82
4015.00,1.82
4014.00,1.83
4013.00,1.84
4012.00,1.85
4011.00,1.86
4010.00,1.87
4009.00,1.88
4008.00,1.89
4007.00,1.90
4006.00,1.92
4005.00,1.93
4004.00,1.94
4003.00,1.96
4002.00,1.97
4001.00,1.99
4000.00,2.00
