创建为新数据集,样品 855 用户 Administrator 日期 星期一, 七月 29 2019
cm-1,%T
10000.00,1.71
9999.00,1.71
9998.00,1.70
9997.00,1.70
9996.00,1.69
9995.00,1.68
9994.00,1.67
9993.00,1.67
9992.00,1.66
9991.00,1.65
9990.00,1.64
9989.00,1.63
9988.00,1.62
9987.00,1.61
9986.00,1.60
9985.00,1.59
9984.00,1.58
9983.00,1.57
9982.00,1.56
9981.00,1.55
9980.00,1.54
9979.00,1.53
9978.00,1.52
9977.00,1.51
9976.00,1.50
9975.00,1.49
9974.00,1.48
9973.00,1.47
9972.00,1.46
9971.00,1.46
9970.00,1.46
9969.00,1.45
9968.00,1.45
9967.00,1.45
9966.00,1.45
9965.00,1.45
9964.00,1.45
9963.00,1.45
9962.00,1.46
9961.00,1.46
9960.00,1.46
9959.00,1.46
9958.00,1.47
9957.00,1.47
9956.00,1.48
9955.00,1.49
9954.00,1.49
9953.00,1.50
9952.00,1.51
9951.00,1.51
9950.00,1.52
9949.00,1.53
9948.00,1.53
9947.00,1.54
9946.00,1.54
9945.00,1.55
9944.00,1.55
9943.00,1.55
9942.00,1.56
9941.00,1.56
9940.00,1.57
9939.00,1.57
9938.00,1.57
9937.00,1.58
9936.00,1.58
9935.00,1.59
9934.00,1.59
9933.00,1.59
9932.00,1.59
9931.00,1.59
9930.00,1.59
9929.00,1.59
9928.00,1.59
9927.00,1.59
9926.00,1.58
9925.00,1.58
9924.00,1.58
9923.00,1.58
9922.00,1.58
9921.00,1.58
9920.00,1.58
9919.00,1.58
9918.00,1.58
9917.00,1.58
9916.00,1.58
9915.00,1.57
9914.00,1.57
9913.00,1.57
9912.00,1.56
9911.00,1.56
9910.00,1.56
9909.00,1.56
9908.00,1.55
9907.00,1.55
9906.00,1.55
9905.00,1.55
9904.00,1.55
9903.00,1.56
9902.00,1.56
9901.00,1.56
9900.00,1.56
9899.00,1.56
9898.00,1.56
9897.00,1.56
9896.00,1.56
9895.00,1.55
9894.00,1.55
9893.00,1.55
9892.00,1.54
9891.00,1.54
9890.00,1.54
9889.00,1.53
9888.00,1.53
9887.00,1.53
9886.00,1.52
9885.00,1.52
9884.00,1.52
9883.00,1.52
9882.00,1.51
9881.00,1.51
9880.00,1.50
9879.00,1.50
9878.00,1.49
9877.00,1.49
9876.00,1.48
9875.00,1.47
9874.00,1.47
9873.00,1.46
9872.00,1.45
9871.00,1.45
9870.00,1.44
9869.00,1.44
9868.00,1.44
9867.00,1.44
9866.00,1.43
9865.00,1.43
9864.00,1.44
9863.00,1.44
9862.00,1.44
9861.00,1.44
9860.00,1.44
9859.00,1.44
9858.00,1.45
9857.00,1.45
9856.00,1.45
9855.00,1.45
9854.00,1.46
9853.00,1.46
9852.00,1.47
9851.00,1.47
9850.00,1.48
9849.00,1.48
9848.00,1.49
9847.00,1.50
9846.00,1.51
9845.00,1.52
9844.00,1.52
9843.00,1.53
9842.00,1.54
9841.00,1.55
9840.00,1.56
9839.00,1.56
9838.00,1.57
9837.00,1.58
9836.00,1.58
9835.00,1.59
9834.00,1.60
9833.00,1.60
9832.00,1.61
9831.00,1.62
9830.00,1.62
9829.00,1.63
9828.00,1.64
9827.00,1.64
9826.00,1.65
9825.00,1.65
9824.00,1.65
9823.00,1.66
9822.00,1.66
9821.00,1.66
9820.00,1.66
9819.00,1.66
9818.00,1.66
9817.00,1.66
9816.00,1.66
9815.00,1.66
9814.00,1.66
9813.00,1.65
9812.00,1.65
9811.00,1.64
9810.00,1.64
9809.00,1.63
9808.00,1.62
9807.00,1.61
9806.00,1.60
9805.00,1.59
9804.00,1.58
9803.00,1.57
9802.00,1.56
9801.00,1.55
9800.00,1.54
9799.00,1.52
9798.00,1.51
9797.00,1.50
9796.00,1.49
9795.00,1.48
9794.00,1.47
9793.00,1.46
9792.00,1.45
9791.00,1.44
9790.00,1.43
9789.00,1.42
9788.00,1.41
9787.00,1.40
9786.00,1.39
9785.00,1.38
9784.00,1.37
9783.00,1.37
9782.00,1.36
9781.00,1.35
9780.00,1.35
9779.00,1.35
9778.00,1.34
9777.00,1.34
9776.00,1.34
9775.00,1.34
9774.00,1.33
9773.00,1.33
9772.00,1.33
9771.00,1.33
9770.00,1.33
9769.00,1.33
9768.00,1.33
9767.00,1.33
9766.00,1.33
9765.00,1.33
9764.00,1.33
9763.00,1.33
9762.00,1.33
9761.00,1.33
9760.00,1.33
9759.00,1.33
9758.00,1.34
9757.00,1.34
9756.00,1.34
9755.00,1.35
9754.00,1.35
9753.00,1.35
9752.00,1.35
9751.00,1.35
9750.00,1.35
9749.00,1.34
9748.00,1.34
9747.00,1.34
9746.00,1.34
9745.00,1.33
9744.00,1.33
9743.00,1.33
9742.00,1.33
9741.00,1.32
9740.00,1.32
9739.00,1.32
9738.00,1.32
9737.00,1.32
9736.00,1.32
9735.00,1.32
9734.00,1.32
9733.00,1.32
9732.00,1.32
9731.00,1.32
9730.00,1.32
9729.00,1.32
9728.00,1.33
9727.00,1.33
9726.00,1.33
9725.00,1.34
9724.00,1.35
9723.00,1.35
9722.00,1.36
9721.00,1.37
9720.00,1.38
9719.00,1.39
9718.00,1.40
9717.00,1.41
9716.00,1.42
9715.00,1.43
9714.00,1.43
9713.00,1.44
9712.00,1.44
9711.00,1.44
9710.00,1.45
9709.00,1.45
9708.00,1.45
9707.00,1.45
9706.00,1.45
9705.00,1.45
9704.00,1.45
9703.00,1.45
9702.00,1.45
9701.00,1.44
9700.00,1.44
9699.00,1.44
9698.00,1.43
9697.00,1.42
9696.00,1.42
9695.00,1.41
9694.00,1.40
9693.00,1.39
9692.00,1.38
9691.00,1.37
9690.00,1.36
9689.00,1.35
9688.00,1.34
9687.00,1.33
9686.00,1.33
9685.00,1.32
9684.00,1.32
9683.00,1.31
9682.00,1.31
9681.00,1.31
9680.00,1.31
9679.00,1.31
9678.00,1.30
9677.00,1.30
9676.00,1.30
9675.00,1.30
9674.00,1.30
9673.00,1.30
9672.00,1.30
9671.00,1.30
9670.00,1.30
9669.00,1.31
9668.00,1.31
9667.00,1.32
9666.00,1.33
9665.00,1.34
9664.00,1.34
9663.00,1.35
9662.00,1.36
9661.00,1.37
9660.00,1.38
9659.00,1.39
9658.00,1.39
9657.00,1.40
9656.00,1.41
9655.00,1.42
9654.00,1.42
9653.00,1.43
9652.00,1.44
9651.00,1.45
9650.00,1.46
9649.00,1.47
9648.00,1.48
9647.00,1.49
9646.00,1.50
9645.00,1.51
9644.00,1.52
9643.00,1.53
9642.00,1.54
9641.00,1.55
9640.00,1.55
9639.00,1.56
9638.00,1.57
9637.00,1.57
9636.00,1.58
9635.00,1.58
9634.00,1.59
9633.00,1.59
9632.00,1.60
9631.00,1.61
9630.00,1.61
9629.00,1.62
9628.00,1.62
9627.00,1.62
9626.00,1.62
9625.00,1.63
9624.00,1.62
9623.00,1.62
9622.00,1.62
9621.00,1.62
9620.00,1.62
9619.00,1.61
9618.00,1.61
9617.00,1.60
9616.00,1.60
9615.00,1.59
9614.00,1.59
9613.00,1.58
9612.00,1.58
9611.00,1.57
9610.00,1.56
9609.00,1.55
9608.00,1.54
9607.00,1.53
9606.00,1.52
9605.00,1.51
9604.00,1.51
9603.00,1.50
9602.00,1.49
9601.00,1.48
9600.00,1.47
9599.00,1.46
9598.00,1.46
9597.00,1.45
9596.00,1.45
9595.00,1.44
9594.00,1.44
9593.00,1.43
9592.00,1.43
9591.00,1.42
9590.00,1.42
9589.00,1.42
9588.00,1.41
9587.00,1.41
9586.00,1.41
9585.00,1.41
9584.00,1.41
9583.00,1.41
9582.00,1.41
9581.00,1.41
9580.00,1.42
9579.00,1.42
9578.00,1.42
9577.00,1.43
9576.00,1.43
9575.00,1.44
9574.00,1.44
9573.00,1.45
9572.00,1.45
9571.00,1.46
9570.00,1.46
9569.00,1.46
9568.00,1.47
9567.00,1.47
9566.00,1.48
9565.00,1.48
9564.00,1.49
9563.00,1.49
9562.00,1.50
9561.00,1.50
9560.00,1.51
9559.00,1.51
9558.00,1.52
9557.00,1.52
9556.00,1.52
9555.00,1.53
9554.00,1.53
9553.00,1.54
9552.00,1.54
9551.00,1.54
9550.00,1.54
9549.00,1.55
9548.00,1.55
9547.00,1.55
9546.00,1.55
9545.00,1.55
9544.00,1.55
9543.00,1.55
9542.00,1.54
9541.00,1.54
9540.00,1.54
9539.00,1.53
9538.00,1.53
9537.00,1.53
9536.00,1.52
9535.00,1.52
9534.00,1.51
9533.00,1.51
9532.00,1.50
9531.00,1.50
9530.00,1.49
9529.00,1.49
9528.00,1.48
9527.00,1.47
9526.00,1.47
9525.00,1.46
9524.00,1.46
9523.00,1.45
9522.00,1.44
9521.00,1.44
9520.00,1.44
9519.00,1.43
9518.00,1.43
9517.00,1.43
9516.00,1.42
9515.00,1.42
9514.00,1.42
9513.00,1.42
9512.00,1.42
9511.00,1.42
9510.00,1.42
9509.00,1.42
9508.00,1.42
9507.00,1.41
9506.00,1.41
9505.00,1.41
9504.00,1.41
9503.00,1.41
9502.00,1.41
9501.00,1.41
9500.00,1.41
9499.00,1.42
9498.00,1.42
9497.00,1.42
9496.00,1.42
9495.00,1.42
9494.00,1.42
9493.00,1.42
9492.00,1.42
9491.00,1.42
9490.00,1.42
9489.00,1.42
9488.00,1.42
9487.00,1.42
9486.00,1.42
9485.00,1.42
9484.00,1.42
9483.00,1.42
9482.00,1.42
9481.00,1.42
9480.00,1.43
9479.00,1.43
9478.00,1.43
9477.00,1.43
9476.00,1.44
9475.00,1.44
9474.00,1.44
9473.00,1.45
9472.00,1.45
9471.00,1.46
9470.00,1.46
9469.00,1.47
9468.00,1.47
9467.00,1.48
9466.00,1.48
9465.00,1.49
9464.00,1.50
9463.00,1.50
9462.00,1.51
9461.00,1.52
9460.00,1.52
9459.00,1.53
9458.00,1.54
9457.00,1.55
9456.00,1.56
9455.00,1.56
9454.00,1.57
9453.00,1.58
9452.00,1.59
9451.00,1.59
9450.00,1.60
9449.00,1.60
9448.00,1.61
9447.00,1.61
9446.00,1.62
9445.00,1.62
9444.00,1.62
9443.00,1.63
9442.00,1.63
9441.00,1.63
9440.00,1.63
9439.00,1.63
9438.00,1.63
9437.00,1.63
9436.00,1.62
9435.00,1.62
9434.00,1.62
9433.00,1.61
9432.00,1.61
9431.00,1.60
9430.00,1.60
9429.00,1.59
9428.00,1.59
9427.00,1.58
9426.00,1.58
9425.00,1.57
9424.00,1.57
9423.00,1.56
9422.00,1.56
9421.00,1.55
9420.00,1.55
9419.00,1.55
9418.00,1.55
9417.00,1.55
9416.00,1.55
9415.00,1.54
9414.00,1.55
9413.00,1.55
9412.00,1.55
9411.00,1.55
9410.00,1.56
9409.00,1.56
9408.00,1.56
9407.00,1.56
9406.00,1.57
9405.00,1.57
9404.00,1.57
9403.00,1.57
9402.00,1.57
9401.00,1.57
9400.00,1.56
9399.00,1.56
9398.00,1.56
9397.00,1.56
9396.00,1.55
9395.00,1.55
9394.00,1.55
9393.00,1.54
9392.00,1.54
9391.00,1.53
9390.00,1.53
9389.00,1.52
9388.00,1.52
9387.00,1.51
9386.00,1.51
9385.00,1.50
9384.00,1.49
9383.00,1.49
9382.00,1.48
9381.00,1.48
9380.00,1.47
9379.00,1.47
9378.00,1.47
9377.00,1.47
9376.00,1.47
9375.00,1.47
9374.00,1.47
9373.00,1.47
9372.00,1.47
9371.00,1.48
9370.00,1.48
9369.00,1.48
9368.00,1.49
9367.00,1.49
9366.00,1.49
9365.00,1.49
9364.00,1.50
9363.00,1.50
9362.00,1.50
9361.00,1.50
9360.00,1.50
9359.00,1.50
9358.00,1.50
9357.00,1.50
9356.00,1.50
9355.00,1.50
9354.00,1.50
9353.00,1.50
9352.00,1.50
9351.00,1.50
9350.00,1.50
9349.00,1.50
9348.00,1.49
9347.00,1.49
9346.00,1.49
9345.00,1.49
9344.00,1.49
9343.00,1.48
9342.00,1.48
9341.00,1.48
9340.00,1.47
9339.00,1.47
9338.00,1.47
9337.00,1.47
9336.00,1.47
9335.00,1.47
9334.00,1.47
9333.00,1.47
9332.00,1.48
9331.00,1.48
9330.00,1.48
9329.00,1.48
9328.00,1.48
9327.00,1.48
9326.00,1.48
9325.00,1.48
9324.00,1.48
9323.00,1.48
9322.00,1.48
9321.00,1.48
9320.00,1.48
9319.00,1.48
9318.00,1.49
9317.00,1.49
9316.00,1.49
9315.00,1.49
9314.00,1.49
9313.00,1.49
9312.00,1.49
9311.00,1.49
9310.00,1.49
9309.00,1.49
9308.00,1.49
9307.00,1.49
9306.00,1.49
9305.00,1.49
9304.00,1.49
9303.00,1.49
9302.00,1.49
9301.00,1.49
9300.00,1.48
9299.00,1.48
9298.00,1.48
9297.00,1.48
9296.00,1.48
9295.00,1.48
9294.00,1.47
9293.00,1.47
9292.00,1.47
9291.00,1.47
9290.00,1.47
9289.00,1.46
9288.00,1.46
9287.00,1.46
9286.00,1.46
9285.00,1.45
9284.00,1.45
9283.00,1.45
9282.00,1.45
9281.00,1.44
9280.00,1.44
9279.00,1.44
9278.00,1.44
9277.00,1.44
9276.00,1.43
9275.00,1.43
9274.00,1.43
9273.00,1.43
9272.00,1.43
9271.00,1.42
9270.00,1.42
9269.00,1.42
9268.00,1.41
9267.00,1.41
9266.00,1.41
9265.00,1.40
9264.00,1.40
9263.00,1.39
9262.00,1.39
9261.00,1.38
9260.00,1.38
9259.00,1.38
9258.00,1.37
9257.00,1.37
9256.00,1.37
9255.00,1.37
9254.00,1.37
9253.00,1.36
9252.00,1.36
9251.00,1.36
9250.00,1.36
9249.00,1.36
9248.00,1.36
9247.00,1.35
9246.00,1.35
9245.00,1.35
9244.00,1.35
9243.00,1.36
9242.00,1.36
9241.00,1.36
9240.00,1.36
9239.00,1.37
9238.00,1.37
9237.00,1.37
9236.00,1.38
9235.00,1.38
9234.00,1.38
9233.00,1.39
9232.00,1.39
9231.00,1.39
9230.00,1.39
9229.00,1.40
9228.00,1.40
9227.00,1.40
9226.00,1.40
9225.00,1.41
9224.00,1.41
9223.00,1.41
9222.00,1.41
9221.00,1.42
9220.00,1.42
9219.00,1.42
9218.00,1.43
9217.00,1.43
9216.00,1.43
9215.00,1.44
9214.00,1.44
9213.00,1.44
9212.00,1.44
9211.00,1.45
9210.00,1.45
9209.00,1.45
9208.00,1.46
9207.00,1.46
9206.00,1.46
9205.00,1.46
9204.00,1.47
9203.00,1.47
9202.00,1.48
9201.00,1.48
9200.00,1.48
9199.00,1.49
9198.00,1.49
9197.00,1.50
9196.00,1.50
9195.00,1.50
9194.00,1.51
9193.00,1.51
9192.00,1.51
9191.00,1.52
9190.00,1.52
9189.00,1.52
9188.00,1.52
9187.00,1.52
9186.00,1.52
9185.00,1.52
9184.00,1.52
9183.00,1.53
9182.00,1.52
9181.00,1.52
9180.00,1.52
9179.00,1.52
9178.00,1.52
9177.00,1.52
9176.00,1.52
9175.00,1.51
9174.00,1.51
9173.00,1.51
9172.00,1.50
9171.00,1.50
9170.00,1.50
9169.00,1.50
9168.00,1.50
9167.00,1.49
9166.00,1.49
9165.00,1.49
9164.00,1.49
9163.00,1.49
9162.00,1.48
9161.00,1.48
9160.00,1.48
9159.00,1.48
9158.00,1.48
9157.00,1.48
9156.00,1.48
9155.00,1.48
9154.00,1.48
9153.00,1.48
9152.00,1.48
9151.00,1.49
9150.00,1.49
9149.00,1.49
9148.00,1.49
9147.00,1.49
9146.00,1.50
9145.00,1.50
9144.00,1.50
9143.00,1.50
9142.00,1.51
9141.00,1.51
9140.00,1.51
9139.00,1.51
9138.00,1.51
9137.00,1.51
9136.00,1.52
9135.00,1.52
9134.00,1.52
9133.00,1.52
9132.00,1.53
9131.00,1.53
9130.00,1.53
9129.00,1.53
9128.00,1.54
9127.00,1.54
9126.00,1.54
9125.00,1.55
9124.00,1.55
9123.00,1.55
9122.00,1.55
9121.00,1.55
9120.00,1.55
9119.00,1.55
9118.00,1.55
9117.00,1.55
9116.00,1.55
9115.00,1.55
9114.00,1.56
9113.00,1.56
9112.00,1.56
9111.00,1.56
9110.00,1.56
9109.00,1.57
9108.00,1.57
9107.00,1.57
9106.00,1.57
9105.00,1.57
9104.00,1.58
9103.00,1.58
9102.00,1.58
9101.00,1.58
9100.00,1.58
9099.00,1.58
9098.00,1.59
9097.00,1.59
9096.00,1.59
9095.00,1.59
9094.00,1.59
9093.00,1.60
9092.00,1.60
9091.00,1.60
9090.00,1.60
9089.00,1.60
9088.00,1.60
9087.00,1.60
9086.00,1.60
9085.00,1.60
9084.00,1.60
9083.00,1.60
9082.00,1.60
9081.00,1.60
9080.00,1.60
9079.00,1.59
9078.00,1.59
9077.00,1.59
9076.00,1.59
9075.00,1.59
9074.00,1.58
9073.00,1.58
9072.00,1.58
9071.00,1.58
9070.00,1.57
9069.00,1.57
9068.00,1.57
9067.00,1.57
9066.00,1.57
9065.00,1.57
9064.00,1.57
9063.00,1.56
9062.00,1.56
9061.00,1.56
9060.00,1.56
9059.00,1.56
9058.00,1.56
9057.00,1.56
9056.00,1.55
9055.00,1.55
9054.00,1.55
9053.00,1.55
9052.00,1.55
9051.00,1.55
9050.00,1.55
9049.00,1.55
9048.00,1.55
9047.00,1.55
9046.00,1.55
9045.00,1.55
9044.00,1.55
9043.00,1.55
9042.00,1.55
9041.00,1.56
9040.00,1.56
9039.00,1.56
9038.00,1.56
9037.00,1.57
9036.00,1.57
9035.00,1.57
9034.00,1.57
9033.00,1.57
9032.00,1.57
9031.00,1.57
9030.00,1.57
9029.00,1.57
9028.00,1.57
9027.00,1.57
9026.00,1.57
9025.00,1.57
9024.00,1.56
9023.00,1.56
9022.00,1.56
9021.00,1.55
9020.00,1.55
9019.00,1.55
9018.00,1.54
9017.00,1.54
9016.00,1.53
9015.00,1.52
9014.00,1.52
9013.00,1.51
9012.00,1.50
9011.00,1.49
9010.00,1.49
9009.00,1.48
9008.00,1.47
9007.00,1.47
9006.00,1.46
9005.00,1.46
9004.00,1.45
9003.00,1.45
9002.00,1.45
9001.00,1.45
9000.00,1.45
8999.00,1.45
8998.00,1.45
8997.00,1.46
8996.00,1.46
8995.00,1.46
8994.00,1.46
8993.00,1.46
8992.00,1.47
8991.00,1.47
8990.00,1.47
8989.00,1.48
8988.00,1.48
8987.00,1.49
8986.00,1.49
8985.00,1.50
8984.00,1.50
8983.00,1.51
8982.00,1.52
8981.00,1.52
8980.00,1.53
8979.00,1.54
8978.00,1.54
8977.00,1.55
8976.00,1.56
8975.00,1.56
8974.00,1.56
8973.00,1.57
8972.00,1.57
8971.00,1.58
8970.00,1.58
8969.00,1.58
8968.00,1.59
8967.00,1.59
8966.00,1.59
8965.00,1.60
8964.00,1.60
8963.00,1.60
8962.00,1.61
8961.00,1.61
8960.00,1.61
8959.00,1.61
8958.00,1.61
8957.00,1.61
8956.00,1.61
8955.00,1.61
8954.00,1.61
8953.00,1.60
8952.00,1.60
8951.00,1.59
8950.00,1.59
8949.00,1.59
8948.00,1.58
8947.00,1.58
8946.00,1.57
8945.00,1.57
8944.00,1.57
8943.00,1.56
8942.00,1.56
8941.00,1.55
8940.00,1.54
8939.00,1.54
8938.00,1.53
8937.00,1.52
8936.00,1.51
8935.00,1.50
8934.00,1.49
8933.00,1.49
8932.00,1.48
8931.00,1.47
8930.00,1.46
8929.00,1.46
8928.00,1.45
8927.00,1.45
8926.00,1.44
8925.00,1.44
8924.00,1.43
8923.00,1.43
8922.00,1.42
8921.00,1.42
8920.00,1.41
8919.00,1.41
8918.00,1.40
8917.00,1.40
8916.00,1.40
8915.00,1.39
8914.00,1.39
8913.00,1.39
8912.00,1.39
8911.00,1.39
8910.00,1.39
8909.00,1.39
8908.00,1.39
8907.00,1.39
8906.00,1.39
8905.00,1.39
8904.00,1.39
8903.00,1.40
8902.00,1.40
8901.00,1.40
8900.00,1.41
8899.00,1.41
8898.00,1.42
8897.00,1.42
8896.00,1.43
8895.00,1.43
8894.00,1.44
8893.00,1.44
8892.00,1.45
8891.00,1.45
8890.00,1.46
8889.00,1.46
8888.00,1.47
8887.00,1.48
8886.00,1.48
8885.00,1.49
8884.00,1.50
8883.00,1.50
8882.00,1.51
8881.00,1.52
8880.00,1.53
8879.00,1.53
8878.00,1.54
8877.00,1.55
8876.00,1.55
8875.00,1.56
8874.00,1.56
8873.00,1.57
8872.00,1.57
8871.00,1.57
8870.00,1.58
8869.00,1.58
8868.00,1.58
8867.00,1.58
8866.00,1.59
8865.00,1.59
8864.00,1.59
8863.00,1.60
8862.00,1.60
8861.00,1.60
8860.00,1.60
8859.00,1.61
8858.00,1.61
8857.00,1.61
8856.00,1.61
8855.00,1.60
8854.00,1.60
8853.00,1.60
8852.00,1.60
8851.00,1.60
8850.00,1.59
8849.00,1.59
8848.00,1.59
8847.00,1.59
8846.00,1.58
8845.00,1.58
8844.00,1.58
8843.00,1.58
8842.00,1.57
8841.00,1.57
8840.00,1.57
8839.00,1.56
8838.00,1.56
8837.00,1.55
8836.00,1.55
8835.00,1.55
8834.00,1.54
8833.00,1.54
8832.00,1.54
8831.00,1.53
8830.00,1.53
8829.00,1.53
8828.00,1.53
8827.00,1.53
8826.00,1.53
8825.00,1.52
8824.00,1.52
8823.00,1.52
8822.00,1.52
8821.00,1.52
8820.00,1.51
8819.00,1.51
8818.00,1.51
8817.00,1.51
8816.00,1.51
8815.00,1.50
8814.00,1.50
8813.00,1.50
8812.00,1.50
8811.00,1.51
8810.00,1.51
8809.00,1.51
8808.00,1.50
8807.00,1.50
8806.00,1.50
8805.00,1.50
8804.00,1.50
8803.00,1.49
8802.00,1.49
8801.00,1.49
8800.00,1.49
8799.00,1.49
8798.00,1.49
8797.00,1.49
8796.00,1.49
8795.00,1.49
8794.00,1.49
8793.00,1.49
8792.00,1.49
8791.00,1.49
8790.00,1.49
8789.00,1.49
8788.00,1.49
8787.00,1.49
8786.00,1.49
8785.00,1.48
8784.00,1.48
8783.00,1.48
8782.00,1.48
8781.00,1.47
8780.00,1.47
8779.00,1.47
8778.00,1.47
8777.00,1.47
8776.00,1.47
8775.00,1.47
8774.00,1.46
8773.00,1.46
8772.00,1.46
8771.00,1.45
8770.00,1.45
8769.00,1.45
8768.00,1.45
8767.00,1.44
8766.00,1.44
8765.00,1.44
8764.00,1.44
8763.00,1.44
8762.00,1.44
8761.00,1.44
8760.00,1.44
8759.00,1.44
8758.00,1.44
8757.00,1.44
8756.00,1.44
8755.00,1.45
8754.00,1.45
8753.00,1.45
8752.00,1.45
8751.00,1.45
8750.00,1.46
8749.00,1.46
8748.00,1.46
8747.00,1.47
8746.00,1.47
8745.00,1.47
8744.00,1.48
8743.00,1.48
8742.00,1.48
8741.00,1.49
8740.00,1.49
8739.00,1.49
8738.00,1.49
8737.00,1.50
8736.00,1.50
8735.00,1.50
8734.00,1.51
8733.00,1.51
8732.00,1.51
8731.00,1.52
8730.00,1.52
8729.00,1.52
8728.00,1.53
8727.00,1.53
8726.00,1.53
8725.00,1.54
8724.00,1.54
8723.00,1.54
8722.00,1.55
8721.00,1.55
8720.00,1.55
8719.00,1.56
8718.00,1.56
8717.00,1.56
8716.00,1.56
8715.00,1.56
8714.00,1.56
8713.00,1.56
8712.00,1.56
8711.00,1.55
8710.00,1.55
8709.00,1.55
8708.00,1.54
8707.00,1.54
8706.00,1.53
8705.00,1.53
8704.00,1.52
8703.00,1.51
8702.00,1.51
8701.00,1.50
8700.00,1.50
8699.00,1.49
8698.00,1.49
8697.00,1.48
8696.00,1.48
8695.00,1.47
8694.00,1.47
8693.00,1.47
8692.00,1.46
8691.00,1.46
8690.00,1.45
8689.00,1.45
8688.00,1.45
8687.00,1.45
8686.00,1.45
8685.00,1.45
8684.00,1.45
8683.00,1.45
8682.00,1.45
8681.00,1.45
8680.00,1.45
8679.00,1.45
8678.00,1.45
8677.00,1.46
8676.00,1.46
8675.00,1.46
8674.00,1.46
8673.00,1.46
8672.00,1.46
8671.00,1.46
8670.00,1.46
8669.00,1.46
8668.00,1.46
8667.00,1.46
8666.00,1.46
8665.00,1.46
8664.00,1.47
8663.00,1.47
8662.00,1.47
8661.00,1.48
8660.00,1.48
8659.00,1.48
8658.00,1.49
8657.00,1.49
8656.00,1.50
8655.00,1.50
8654.00,1.51
8653.00,1.51
8652.00,1.51
8651.00,1.52
8650.00,1.52
8649.00,1.53
8648.00,1.53
8647.00,1.54
8646.00,1.54
8645.00,1.55
8644.00,1.55
8643.00,1.56
8642.00,1.56
8641.00,1.57
8640.00,1.57
8639.00,1.58
8638.00,1.58
8637.00,1.59
8636.00,1.59
8635.00,1.59
8634.00,1.59
8633.00,1.60
8632.00,1.60
8631.00,1.60
8630.00,1.60
8629.00,1.60
8628.00,1.60
8627.00,1.60
8626.00,1.60
8625.00,1.60
8624.00,1.60
8623.00,1.60
8622.00,1.60
8621.00,1.60
8620.00,1.60
8619.00,1.60
8618.00,1.60
8617.00,1.60
8616.00,1.60
8615.00,1.60
8614.00,1.59
8613.00,1.59
8612.00,1.59
8611.00,1.59
8610.00,1.58
8609.00,1.58
8608.00,1.58
8607.00,1.57
8606.00,1.57
8605.00,1.56
8604.00,1.56
8603.00,1.56
8602.00,1.55
8601.00,1.55
8600.00,1.55
8599.00,1.55
8598.00,1.55
8597.00,1.55
8596.00,1.55
8595.00,1.55
8594.00,1.55
8593.00,1.55
8592.00,1.55
8591.00,1.55
8590.00,1.54
8589.00,1.54
8588.00,1.54
8587.00,1.54
8586.00,1.54
8585.00,1.54
8584.00,1.54
8583.00,1.54
8582.00,1.54
8581.00,1.54
8580.00,1.54
8579.00,1.54
8578.00,1.55
8577.00,1.55
8576.00,1.55
8575.00,1.55
8574.00,1.55
8573.00,1.55
8572.00,1.55
8571.00,1.55
8570.00,1.54
8569.00,1.54
8568.00,1.54
8567.00,1.54
8566.00,1.54
8565.00,1.54
8564.00,1.54
8563.00,1.54
8562.00,1.54
8561.00,1.54
8560.00,1.54
8559.00,1.54
8558.00,1.53
8557.00,1.53
8556.00,1.53
8555.00,1.53
8554.00,1.53
8553.00,1.53
8552.00,1.52
8551.00,1.52
8550.00,1.52
8549.00,1.52
8548.00,1.51
8547.00,1.51
8546.00,1.51
8545.00,1.51
8544.00,1.50
8543.00,1.50
8542.00,1.50
8541.00,1.50
8540.00,1.50
8539.00,1.49
8538.00,1.49
8537.00,1.49
8536.00,1.49
8535.00,1.49
8534.00,1.48
8533.00,1.48
8532.00,1.48
8531.00,1.48
8530.00,1.48
8529.00,1.48
8528.00,1.48
8527.00,1.48
8526.00,1.48
8525.00,1.48
8524.00,1.48
8523.00,1.48
8522.00,1.48
8521.00,1.49
8520.00,1.49
8519.00,1.49
8518.00,1.49
8517.00,1.49
8516.00,1.49
8515.00,1.49
8514.00,1.50
8513.00,1.50
8512.00,1.50
8511.00,1.50
8510.00,1.50
8509.00,1.50
8508.00,1.50
8507.00,1.51
8506.00,1.51
8505.00,1.51
8504.00,1.51
8503.00,1.51
8502.00,1.51
8501.00,1.51
8500.00,1.51
8499.00,1.51
8498.00,1.50
8497.00,1.50
8496.00,1.50
8495.00,1.49
8494.00,1.49
8493.00,1.49
8492.00,1.49
8491.00,1.48
8490.00,1.48
8489.00,1.48
8488.00,1.48
8487.00,1.48
8486.00,1.48
8485.00,1.48
8484.00,1.48
8483.00,1.48
8482.00,1.48
8481.00,1.48
8480.00,1.48
8479.00,1.48
8478.00,1.48
8477.00,1.48
8476.00,1.48
8475.00,1.48
8474.00,1.49
8473.00,1.49
8472.00,1.50
8471.00,1.50
8470.00,1.51
8469.00,1.51
8468.00,1.52
8467.00,1.52
8466.00,1.53
8465.00,1.53
8464.00,1.53
8463.00,1.54
8462.00,1.54
8461.00,1.54
8460.00,1.54
8459.00,1.54
8458.00,1.54
8457.00,1.54
8456.00,1.54
8455.00,1.54
8454.00,1.54
8453.00,1.54
8452.00,1.54
8451.00,1.54
8450.00,1.54
8449.00,1.53
8448.00,1.53
8447.00,1.53
8446.00,1.52
8445.00,1.52
8444.00,1.51
8443.00,1.51
8442.00,1.50
8441.00,1.50
8440.00,1.49
8439.00,1.49
8438.00,1.48
8437.00,1.48
8436.00,1.48
8435.00,1.48
8434.00,1.47
8433.00,1.47
8432.00,1.47
8431.00,1.47
8430.00,1.47
8429.00,1.46
8428.00,1.46
8427.00,1.46
8426.00,1.46
8425.00,1.45
8424.00,1.45
8423.00,1.45
8422.00,1.45
8421.00,1.45
8420.00,1.45
8419.00,1.45
8418.00,1.45
8417.00,1.45
8416.00,1.45
8415.00,1.45
8414.00,1.45
8413.00,1.46
8412.00,1.46
8411.00,1.46
8410.00,1.46
8409.00,1.46
8408.00,1.46
8407.00,1.47
8406.00,1.47
8405.00,1.47
8404.00,1.47
8403.00,1.47
8402.00,1.48
8401.00,1.48
8400.00,1.48
8399.00,1.49
8398.00,1.49
8397.00,1.49
8396.00,1.50
8395.00,1.50
8394.00,1.50
8393.00,1.51
8392.00,1.51
8391.00,1.51
8390.00,1.51
8389.00,1.51
8388.00,1.51
8387.00,1.51
8386.00,1.51
8385.00,1.51
8384.00,1.51
8383.00,1.51
8382.00,1.51
8381.00,1.50
8380.00,1.50
8379.00,1.50
8378.00,1.49
8377.00,1.49
8376.00,1.49
8375.00,1.48
8374.00,1.48
8373.00,1.47
8372.00,1.47
8371.00,1.46
8370.00,1.45
8369.00,1.45
8368.00,1.44
8367.00,1.44
8366.00,1.43
8365.00,1.43
8364.00,1.42
8363.00,1.42
8362.00,1.41
8361.00,1.41
8360.00,1.41
8359.00,1.41
8358.00,1.40
8357.00,1.40
8356.00,1.40
8355.00,1.40
8354.00,1.40
8353.00,1.40
8352.00,1.40
8351.00,1.40
8350.00,1.40
8349.00,1.40
8348.00,1.40
8347.00,1.40
8346.00,1.40
8345.00,1.40
8344.00,1.40
8343.00,1.41
8342.00,1.41
8341.00,1.41
8340.00,1.41
8339.00,1.41
8338.00,1.41
8337.00,1.41
8336.00,1.41
8335.00,1.41
8334.00,1.41
8333.00,1.41
8332.00,1.41
8331.00,1.41
8330.00,1.41
8329.00,1.41
8328.00,1.41
8327.00,1.41
8326.00,1.41
8325.00,1.41
8324.00,1.41
8323.00,1.41
8322.00,1.41
8321.00,1.41
8320.00,1.41
8319.00,1.41
8318.00,1.41
8317.00,1.41
8316.00,1.41
8315.00,1.41
8314.00,1.42
8313.00,1.42
8312.00,1.42
8311.00,1.42
8310.00,1.43
8309.00,1.43
8308.00,1.43
8307.00,1.44
8306.00,1.44
8305.00,1.44
8304.00,1.45
8303.00,1.45
8302.00,1.46
8301.00,1.46
8300.00,1.47
8299.00,1.47
8298.00,1.47
8297.00,1.48
8296.00,1.48
8295.00,1.49
8294.00,1.49
8293.00,1.49
8292.00,1.50
8291.00,1.50
8290.00,1.50
8289.00,1.51
8288.00,1.51
8287.00,1.52
8286.00,1.52
8285.00,1.52
8284.00,1.53
8283.00,1.53
8282.00,1.53
8281.00,1.54
8280.00,1.54
8279.00,1.54
8278.00,1.54
8277.00,1.55
8276.00,1.55
8275.00,1.55
8274.00,1.56
8273.00,1.56
8272.00,1.56
8271.00,1.57
8270.00,1.57
8269.00,1.57
8268.00,1.57
8267.00,1.58
8266.00,1.58
8265.00,1.58
8264.00,1.58
8263.00,1.58
8262.00,1.58
8261.00,1.58
8260.00,1.58
8259.00,1.58
8258.00,1.57
8257.00,1.57
8256.00,1.57
8255.00,1.57
8254.00,1.57
8253.00,1.57
8252.00,1.56
8251.00,1.56
8250.00,1.56
8249.00,1.55
8248.00,1.55
8247.00,1.54
8246.00,1.54
8245.00,1.53
8244.00,1.53
8243.00,1.52
8242.00,1.52
8241.00,1.51
8240.00,1.51
8239.00,1.51
8238.00,1.50
8237.00,1.50
8236.00,1.50
8235.00,1.50
8234.00,1.50
8233.00,1.49
8232.00,1.49
8231.00,1.49
8230.00,1.49
8229.00,1.48
8228.00,1.48
8227.00,1.48
8226.00,1.48
8225.00,1.48
8224.00,1.48
8223.00,1.48
8222.00,1.48
8221.00,1.49
8220.00,1.49
8219.00,1.49
8218.00,1.50
8217.00,1.50
8216.00,1.51
8215.00,1.51
8214.00,1.51
8213.00,1.52
8212.00,1.52
8211.00,1.52
8210.00,1.53
8209.00,1.53
8208.00,1.54
8207.00,1.54
8206.00,1.54
8205.00,1.55
8204.00,1.55
8203.00,1.56
8202.00,1.56
8201.00,1.57
8200.00,1.57
8199.00,1.57
8198.00,1.58
8197.00,1.58
8196.00,1.58
8195.00,1.58
8194.00,1.58
8193.00,1.58
8192.00,1.57
8191.00,1.57
8190.00,1.57
8189.00,1.57
8188.00,1.57
8187.00,1.56
8186.00,1.56
8185.00,1.56
8184.00,1.56
8183.00,1.56
8182.00,1.56
8181.00,1.56
8180.00,1.56
8179.00,1.56
8178.00,1.55
8177.00,1.55
8176.00,1.55
8175.00,1.55
8174.00,1.55
8173.00,1.55
8172.00,1.55
8171.00,1.55
8170.00,1.55
8169.00,1.56
8168.00,1.56
8167.00,1.56
8166.00,1.56
8165.00,1.56
8164.00,1.56
8163.00,1.56
8162.00,1.57
8161.00,1.57
8160.00,1.57
8159.00,1.57
8158.00,1.56
8157.00,1.56
8156.00,1.56
8155.00,1.56
8154.00,1.56
8153.00,1.56
8152.00,1.55
8151.00,1.55
8150.00,1.55
8149.00,1.54
8148.00,1.54
8147.00,1.53
8146.00,1.53
8145.00,1.53
8144.00,1.52
8143.00,1.52
8142.00,1.51
8141.00,1.51
8140.00,1.51
8139.00,1.50
8138.00,1.50
8137.00,1.50
8136.00,1.50
8135.00,1.50
8134.00,1.49
8133.00,1.49
8132.00,1.49
8131.00,1.49
8130.00,1.49
8129.00,1.48
8128.00,1.48
8127.00,1.48
8126.00,1.48
8125.00,1.48
8124.00,1.48
8123.00,1.48
8122.00,1.48
8121.00,1.48
8120.00,1.48
8119.00,1.48
8118.00,1.48
8117.00,1.48
8116.00,1.48
8115.00,1.48
8114.00,1.49
8113.00,1.49
8112.00,1.49
8111.00,1.49
8110.00,1.49
8109.00,1.49
8108.00,1.49
8107.00,1.50
8106.00,1.50
8105.00,1.50
8104.00,1.51
8103.00,1.51
8102.00,1.51
8101.00,1.52
8100.00,1.52
8099.00,1.53
8098.00,1.53
8097.00,1.54
8096.00,1.54
8095.00,1.55
8094.00,1.55
8093.00,1.56
8092.00,1.56
8091.00,1.56
8090.00,1.57
8089.00,1.57
8088.00,1.57
8087.00,1.57
8086.00,1.57
8085.00,1.57
8084.00,1.57
8083.00,1.57
8082.00,1.57
8081.00,1.56
8080.00,1.56
8079.00,1.56
8078.00,1.56
8077.00,1.55
8076.00,1.55
8075.00,1.55
8074.00,1.55
8073.00,1.54
8072.00,1.54
8071.00,1.53
8070.00,1.53
8069.00,1.53
8068.00,1.52
8067.00,1.52
8066.00,1.52
8065.00,1.51
8064.00,1.51
8063.00,1.51
8062.00,1.51
8061.00,1.51
8060.00,1.51
8059.00,1.51
8058.00,1.52
8057.00,1.52
8056.00,1.52
8055.00,1.53
8054.00,1.53
8053.00,1.53
8052.00,1.54
8051.00,1.54
8050.00,1.54
8049.00,1.55
8048.00,1.55
8047.00,1.55
8046.00,1.56
8045.00,1.56
8044.00,1.56
8043.00,1.57
8042.00,1.57
8041.00,1.57
8040.00,1.58
8039.00,1.58
8038.00,1.58
8037.00,1.59
8036.00,1.59
8035.00,1.59
8034.00,1.59
8033.00,1.59
8032.00,1.59
8031.00,1.59
8030.00,1.59
8029.00,1.59
8028.00,1.58
8027.00,1.58
8026.00,1.58
8025.00,1.58
8024.00,1.57
8023.00,1.57
8022.00,1.57
8021.00,1.56
8020.00,1.56
8019.00,1.56
8018.00,1.55
8017.00,1.55
8016.00,1.54
8015.00,1.54
8014.00,1.54
8013.00,1.53
8012.00,1.53
8011.00,1.53
8010.00,1.52
8009.00,1.52
8008.00,1.52
8007.00,1.52
8006.00,1.51
8005.00,1.51
8004.00,1.51
8003.00,1.51
8002.00,1.51
8001.00,1.51
8000.00,1.51
7999.00,1.51
7998.00,1.51
7997.00,1.51
7996.00,1.51
7995.00,1.51
7994.00,1.51
7993.00,1.52
7992.00,1.52
7991.00,1.52
7990.00,1.52
7989.00,1.52
7988.00,1.52
7987.00,1.53
7986.00,1.53
7985.00,1.53
7984.00,1.53
7983.00,1.53
7982.00,1.53
7981.00,1.53
7980.00,1.54
7979.00,1.54
7978.00,1.54
7977.00,1.54
7976.00,1.54
7975.00,1.54
7974.00,1.55
7973.00,1.55
7972.00,1.55
7971.00,1.55
7970.00,1.55
7969.00,1.55
7968.00,1.55
7967.00,1.55
7966.00,1.55
7965.00,1.55
7964.00,1.55
7963.00,1.55
7962.00,1.55
7961.00,1.55
7960.00,1.55
7959.00,1.55
7958.00,1.55
7957.00,1.55
7956.00,1.55
7955.00,1.55
7954.00,1.55
7953.00,1.55
7952.00,1.55
7951.00,1.55
7950.00,1.55
7949.00,1.55
7948.00,1.55
7947.00,1.55
7946.00,1.54
7945.00,1.54
7944.00,1.54
7943.00,1.54
7942.00,1.54
7941.00,1.54
7940.00,1.54
7939.00,1.54
7938.00,1.54
7937.00,1.54
7936.00,1.54
7935.00,1.54
7934.00,1.54
7933.00,1.54
7932.00,1.54
7931.00,1.54
7930.00,1.54
7929.00,1.54
7928.00,1.54
7927.00,1.54
7926.00,1.54
7925.00,1.54
7924.00,1.54
7923.00,1.54
7922.00,1.54
7921.00,1.54
7920.00,1.54
7919.00,1.54
7918.00,1.54
7917.00,1.54
7916.00,1.54
7915.00,1.54
7914.00,1.55
7913.00,1.55
7912.00,1.55
7911.00,1.56
7910.00,1.56
7909.00,1.56
7908.00,1.56
7907.00,1.57
7906.00,1.57
7905.00,1.57
7904.00,1.57
7903.00,1.58
7902.00,1.58
7901.00,1.59
7900.00,1.59
7899.00,1.60
7898.00,1.60
7897.00,1.61
7896.00,1.61
7895.00,1.61
7894.00,1.62
7893.00,1.62
7892.00,1.63
7891.00,1.63
7890.00,1.63
7889.00,1.63
7888.00,1.63
7887.00,1.63
7886.00,1.63
7885.00,1.63
7884.00,1.63
7883.00,1.63
7882.00,1.63
7881.00,1.63
7880.00,1.62
7879.00,1.62
7878.00,1.62
7877.00,1.62
7876.00,1.61
7875.00,1.61
7874.00,1.60
7873.00,1.60
7872.00,1.59
7871.00,1.59
7870.00,1.58
7869.00,1.58
7868.00,1.57
7867.00,1.57
7866.00,1.56
7865.00,1.56
7864.00,1.55
7863.00,1.55
7862.00,1.55
7861.00,1.54
7860.00,1.54
7859.00,1.54
7858.00,1.53
7857.00,1.53
7856.00,1.53
7855.00,1.53
7854.00,1.53
7853.00,1.53
7852.00,1.52
7851.00,1.52
7850.00,1.52
7849.00,1.52
7848.00,1.52
7847.00,1.52
7846.00,1.52
7845.00,1.53
7844.00,1.53
7843.00,1.53
7842.00,1.53
7841.00,1.53
7840.00,1.54
7839.00,1.54
7838.00,1.55
7837.00,1.55
7836.00,1.55
7835.00,1.56
7834.00,1.56
7833.00,1.57
7832.00,1.57
7831.00,1.58
7830.00,1.58
7829.00,1.59
7828.00,1.59
7827.00,1.60
7826.00,1.60
7825.00,1.61
7824.00,1.61
7823.00,1.62
7822.00,1.62
7821.00,1.63
7820.00,1.63
7819.00,1.63
7818.00,1.64
7817.00,1.64
7816.00,1.64
7815.00,1.64
7814.00,1.64
7813.00,1.64
7812.00,1.64
7811.00,1.64
7810.00,1.64
7809.00,1.64
7808.00,1.63
7807.00,1.63
7806.00,1.63
7805.00,1.63
7804.00,1.62
7803.00,1.62
7802.00,1.62
7801.00,1.61
7800.00,1.61
7799.00,1.60
7798.00,1.60
7797.00,1.60
7796.00,1.59
7795.00,1.59
7794.00,1.59
7793.00,1.59
7792.00,1.58
7791.00,1.58
7790.00,1.58
7789.00,1.58
7788.00,1.58
7787.00,1.58
7786.00,1.58
7785.00,1.58
7784.00,1.58
7783.00,1.58
7782.00,1.59
7781.00,1.59
7780.00,1.59
7779.00,1.59
7778.00,1.59
7777.00,1.60
7776.00,1.60
7775.00,1.60
7774.00,1.60
7773.00,1.60
7772.00,1.60
7771.00,1.61
7770.00,1.61
7769.00,1.61
7768.00,1.61
7767.00,1.61
7766.00,1.61
7765.00,1.61
7764.00,1.61
7763.00,1.61
7762.00,1.61
7761.00,1.61
7760.00,1.61
7759.00,1.61
7758.00,1.61
7757.00,1.61
7756.00,1.61
7755.00,1.61
7754.00,1.61
7753.00,1.61
7752.00,1.61
7751.00,1.61
7750.00,1.62
7749.00,1.62
7748.00,1.62
7747.00,1.62
7746.00,1.62
7745.00,1.62
7744.00,1.63
7743.00,1.63
7742.00,1.63
7741.00,1.63
7740.00,1.63
7739.00,1.63
7738.00,1.64
7737.00,1.64
7736.00,1.64
7735.00,1.64
7734.00,1.64
7733.00,1.64
7732.00,1.64
7731.00,1.65
7730.00,1.65
7729.00,1.65
7728.00,1.65
7727.00,1.65
7726.00,1.65
7725.00,1.66
7724.00,1.66
7723.00,1.66
7722.00,1.66
7721.00,1.66
7720.00,1.66
7719.00,1.67
7718.00,1.67
7717.00,1.67
7716.00,1.67
7715.00,1.68
7714.00,1.68
7713.00,1.68
7712.00,1.68
7711.00,1.68
7710.00,1.69
7709.00,1.69
7708.00,1.69
7707.00,1.69
7706.00,1.69
7705.00,1.70
7704.00,1.70
7703.00,1.70
7702.00,1.70
7701.00,1.70
7700.00,1.70
7699.00,1.70
7698.00,1.70
7697.00,1.70
7696.00,1.70
7695.00,1.70
7694.00,1.70
7693.00,1.69
7692.00,1.69
7691.00,1.69
7690.00,1.69
7689.00,1.68
7688.00,1.68
7687.00,1.68
7686.00,1.67
7685.00,1.67
7684.00,1.67
7683.00,1.66
7682.00,1.66
7681.00,1.66
7680.00,1.65
7679.00,1.65
7678.00,1.65
7677.00,1.64
7676.00,1.64
7675.00,1.64
7674.00,1.64
7673.00,1.63
7672.00,1.63
7671.00,1.63
7670.00,1.63
7669.00,1.63
7668.00,1.63
7667.00,1.62
7666.00,1.62
7665.00,1.62
7664.00,1.62
7663.00,1.62
7662.00,1.62
7661.00,1.62
7660.00,1.62
7659.00,1.62
7658.00,1.62
7657.00,1.62
7656.00,1.62
7655.00,1.62
7654.00,1.62
7653.00,1.62
7652.00,1.62
7651.00,1.62
7650.00,1.62
7649.00,1.61
7648.00,1.61
7647.00,1.61
7646.00,1.61
7645.00,1.61
7644.00,1.61
7643.00,1.60
7642.00,1.60
7641.00,1.60
7640.00,1.60
7639.00,1.60
7638.00,1.60
7637.00,1.60
7636.00,1.60
7635.00,1.60
7634.00,1.60
7633.00,1.60
7632.00,1.60
7631.00,1.60
7630.00,1.59
7629.00,1.59
7628.00,1.59
7627.00,1.59
7626.00,1.59
7625.00,1.59
7624.00,1.59
7623.00,1.59
7622.00,1.59
7621.00,1.59
7620.00,1.59
7619.00,1.59
7618.00,1.59
7617.00,1.59
7616.00,1.59
7615.00,1.59
7614.00,1.59
7613.00,1.59
7612.00,1.59
7611.00,1.58
7610.00,1.58
7609.00,1.58
7608.00,1.58
7607.00,1.58
7606.00,1.58
7605.00,1.57
7604.00,1.57
7603.00,1.57
7602.00,1.57
7601.00,1.57
7600.00,1.57
7599.00,1.57
7598.00,1.57
7597.00,1.57
7596.00,1.57
7595.00,1.58
7594.00,1.58
7593.00,1.58
7592.00,1.59
7591.00,1.59
7590.00,1.59
7589.00,1.59
7588.00,1.60
7587.00,1.60
7586.00,1.60
7585.00,1.60
7584.00,1.61
7583.00,1.61
7582.00,1.61
7581.00,1.62
7580.00,1.62
7579.00,1.62
7578.00,1.62
7577.00,1.63
7576.00,1.63
7575.00,1.63
7574.00,1.63
7573.00,1.63
7572.00,1.63
7571.00,1.63
7570.00,1.63
7569.00,1.63
7568.00,1.63
7567.00,1.62
7566.00,1.62
7565.00,1.62
7564.00,1.62
7563.00,1.62
7562.00,1.62
7561.00,1.61
7560.00,1.61
7559.00,1.61
7558.00,1.61
7557.00,1.61
7556.00,1.61
7555.00,1.61
7554.00,1.61
7553.00,1.61
7552.00,1.60
7551.00,1.60
7550.00,1.60
7549.00,1.60
7548.00,1.59
7547.00,1.59
7546.00,1.59
7545.00,1.59
7544.00,1.59
7543.00,1.59
7542.00,1.59
7541.00,1.60
7540.00,1.60
7539.00,1.60
7538.00,1.60
7537.00,1.60
7536.00,1.60
7535.00,1.60
7534.00,1.60
7533.00,1.60
7532.00,1.60
7531.00,1.60
7530.00,1.60
7529.00,1.60
7528.00,1.60
7527.00,1.60
7526.00,1.61
7525.00,1.61
7524.00,1.61
7523.00,1.62
7522.00,1.62
7521.00,1.62
7520.00,1.62
7519.00,1.63
7518.00,1.63
7517.00,1.63
7516.00,1.63
7515.00,1.63
7514.00,1.63
7513.00,1.63
7512.00,1.63
7511.00,1.63
7510.00,1.63
7509.00,1.63
7508.00,1.63
7507.00,1.63
7506.00,1.63
7505.00,1.63
7504.00,1.63
7503.00,1.63
7502.00,1.63
7501.00,1.63
7500.00,1.63
7499.00,1.63
7498.00,1.62
7497.00,1.62
7496.00,1.62
7495.00,1.62
7494.00,1.62
7493.00,1.62
7492.00,1.62
7491.00,1.62
7490.00,1.62
7489.00,1.62
7488.00,1.62
7487.00,1.62
7486.00,1.62
7485.00,1.63
7484.00,1.63
7483.00,1.63
7482.00,1.63
7481.00,1.63
7480.00,1.63
7479.00,1.63
7478.00,1.63
7477.00,1.63
7476.00,1.63
7475.00,1.63
7474.00,1.63
7473.00,1.63
7472.00,1.63
7471.00,1.63
7470.00,1.63
7469.00,1.62
7468.00,1.62
7467.00,1.62
7466.00,1.62
7465.00,1.61
7464.00,1.61
7463.00,1.60
7462.00,1.60
7461.00,1.59
7460.00,1.59
7459.00,1.58
7458.00,1.58
7457.00,1.57
7456.00,1.57
7455.00,1.56
7454.00,1.56
7453.00,1.56
7452.00,1.55
7451.00,1.55
7450.00,1.54
7449.00,1.54
7448.00,1.54
7447.00,1.53
7446.00,1.53
7445.00,1.53
7444.00,1.53
7443.00,1.53
7442.00,1.53
7441.00,1.53
7440.00,1.53
7439.00,1.53
7438.00,1.53
7437.00,1.53
7436.00,1.53
7435.00,1.53
7434.00,1.53
7433.00,1.53
7432.00,1.54
7431.00,1.54
7430.00,1.54
7429.00,1.54
7428.00,1.54
7427.00,1.55
7426.00,1.55
7425.00,1.55
7424.00,1.56
7423.00,1.56
7422.00,1.56
7421.00,1.56
7420.00,1.57
7419.00,1.57
7418.00,1.57
7417.00,1.57
7416.00,1.58
7415.00,1.58
7414.00,1.58
7413.00,1.58
7412.00,1.58
7411.00,1.58
7410.00,1.58
7409.00,1.58
7408.00,1.58
7407.00,1.58
7406.00,1.58
7405.00,1.58
7404.00,1.59
7403.00,1.59
7402.00,1.59
7401.00,1.58
7400.00,1.58
7399.00,1.58
7398.00,1.58
7397.00,1.58
7396.00,1.58
7395.00,1.58
7394.00,1.57
7393.00,1.57
7392.00,1.57
7391.00,1.57
7390.00,1.57
7389.00,1.57
7388.00,1.57
7387.00,1.57
7386.00,1.57
7385.00,1.57
7384.00,1.57
7383.00,1.57
7382.00,1.58
7381.00,1.58
7380.00,1.58
7379.00,1.58
7378.00,1.58
7377.00,1.58
7376.00,1.58
7375.00,1.58
7374.00,1.58
7373.00,1.59
7372.00,1.59
7371.00,1.59
7370.00,1.59
7369.00,1.60
7368.00,1.60
7367.00,1.60
7366.00,1.60
7365.00,1.60
7364.00,1.61
7363.00,1.61
7362.00,1.61
7361.00,1.61
7360.00,1.61
7359.00,1.61
7358.00,1.61
7357.00,1.61
7356.00,1.61
7355.00,1.61
7354.00,1.61
7353.00,1.61
7352.00,1.61
7351.00,1.61
7350.00,1.61
7349.00,1.61
7348.00,1.61
7347.00,1.61
7346.00,1.61
7345.00,1.61
7344.00,1.61
7343.00,1.60
7342.00,1.60
7341.00,1.60
7340.00,1.60
7339.00,1.60
7338.00,1.60
7337.00,1.60
7336.00,1.60
7335.00,1.60
7334.00,1.60
7333.00,1.60
7332.00,1.60
7331.00,1.60
7330.00,1.60
7329.00,1.60
7328.00,1.60
7327.00,1.59
7326.00,1.59
7325.00,1.59
7324.00,1.59
7323.00,1.59
7322.00,1.59
7321.00,1.59
7320.00,1.59
7319.00,1.59
7318.00,1.59
7317.00,1.59
7316.00,1.58
7315.00,1.58
7314.00,1.58
7313.00,1.58
7312.00,1.57
7311.00,1.57
7310.00,1.57
7309.00,1.57
7308.00,1.57
7307.00,1.56
7306.00,1.56
7305.00,1.56
7304.00,1.56
7303.00,1.56
7302.00,1.56
7301.00,1.55
7300.00,1.55
7299.00,1.55
7298.00,1.55
7297.00,1.55
7296.00,1.55
7295.00,1.55
7294.00,1.55
7293.00,1.55
7292.00,1.55
7291.00,1.55
7290.00,1.55
7289.00,1.55
7288.00,1.55
7287.00,1.55
7286.00,1.55
7285.00,1.56
7284.00,1.56
7283.00,1.56
7282.00,1.56
7281.00,1.56
7280.00,1.56
7279.00,1.56
7278.00,1.56
7277.00,1.56
7276.00,1.56
7275.00,1.56
7274.00,1.56
7273.00,1.56
7272.00,1.56
7271.00,1.56
7270.00,1.56
7269.00,1.56
7268.00,1.56
7267.00,1.56
7266.00,1.56
7265.00,1.56
7264.00,1.55
7263.00,1.55
7262.00,1.55
7261.00,1.55
7260.00,1.55
7259.00,1.55
7258.00,1.55
7257.00,1.55
7256.00,1.54
7255.00,1.54
7254.00,1.54
7253.00,1.54
7252.00,1.54
7251.00,1.54
7250.00,1.54
7249.00,1.54
7248.00,1.54
7247.00,1.54
7246.00,1.53
7245.00,1.53
7244.00,1.53
7243.00,1.53
7242.00,1.53
7241.00,1.53
7240.00,1.53
7239.00,1.53
7238.00,1.53
7237.00,1.52
7236.00,1.52
7235.00,1.52
7234.00,1.52
7233.00,1.52
7232.00,1.52
7231.00,1.52
7230.00,1.51
7229.00,1.51
7228.00,1.51
7227.00,1.51
7226.00,1.50
7225.00,1.50
7224.00,1.50
7223.00,1.50
7222.00,1.49
7221.00,1.49
7220.00,1.49
7219.00,1.49
7218.00,1.48
7217.00,1.48
7216.00,1.48
7215.00,1.48
7214.00,1.47
7213.00,1.47
7212.00,1.47
7211.00,1.46
7210.00,1.46
7209.00,1.46
7208.00,1.45
7207.00,1.45
7206.00,1.45
7205.00,1.44
7204.00,1.44
7203.00,1.44
7202.00,1.43
7201.00,1.43
7200.00,1.43
7199.00,1.42
7198.00,1.42
7197.00,1.42
7196.00,1.41
7195.00,1.41
7194.00,1.41
7193.00,1.40
7192.00,1.40
7191.00,1.40
7190.00,1.39
7189.00,1.39
7188.00,1.39
7187.00,1.38
7186.00,1.38
7185.00,1.38
7184.00,1.37
7183.00,1.37
7182.00,1.37
7181.00,1.36
7180.00,1.36
7179.00,1.36
7178.00,1.35
7177.00,1.35
7176.00,1.35
7175.00,1.35
7174.00,1.34
7173.00,1.34
7172.00,1.34
7171.00,1.34
7170.00,1.33
7169.00,1.33
7168.00,1.33
7167.00,1.33
7166.00,1.32
7165.00,1.32
7164.00,1.32
7163.00,1.31
7162.00,1.31
7161.00,1.31
7160.00,1.31
7159.00,1.31
7158.00,1.30
7157.00,1.30
7156.00,1.30
7155.00,1.30
7154.00,1.29
7153.00,1.29
7152.00,1.29
7151.00,1.29
7150.00,1.28
7149.00,1.28
7148.00,1.28
7147.00,1.27
7146.00,1.27
7145.00,1.26
7144.00,1.26
7143.00,1.25
7142.00,1.25
7141.00,1.25
7140.00,1.24
7139.00,1.24
7138.00,1.23
7137.00,1.23
7136.00,1.22
7135.00,1.22
7134.00,1.22
7133.00,1.21
7132.00,1.21
7131.00,1.21
7130.00,1.20
7129.00,1.20
7128.00,1.20
7127.00,1.20
7126.00,1.20
7125.00,1.20
7124.00,1.19
7123.00,1.19
7122.00,1.19
7121.00,1.19
7120.00,1.19
7119.00,1.19
7118.00,1.19
7117.00,1.20
7116.00,1.20
7115.00,1.20
7114.00,1.20
7113.00,1.20
7112.00,1.20
7111.00,1.20
7110.00,1.21
7109.00,1.21
7108.00,1.21
7107.00,1.21
7106.00,1.21
7105.00,1.21
7104.00,1.21
7103.00,1.21
7102.00,1.21
7101.00,1.21
7100.00,1.21
7099.00,1.21
7098.00,1.21
7097.00,1.21
7096.00,1.21
7095.00,1.20
7094.00,1.20
7093.00,1.20
7092.00,1.20
7091.00,1.20
7090.00,1.20
7089.00,1.19
7088.00,1.19
7087.00,1.19
7086.00,1.19
7085.00,1.18
7084.00,1.18
7083.00,1.18
7082.00,1.17
7081.00,1.17
7080.00,1.16
7079.00,1.16
7078.00,1.16
7077.00,1.15
7076.00,1.15
7075.00,1.14
7074.00,1.14
7073.00,1.14
7072.00,1.14
7071.00,1.13
7070.00,1.13
7069.00,1.13
7068.00,1.12
7067.00,1.12
7066.00,1.12
7065.00,1.11
7064.00,1.11
7063.00,1.11
7062.00,1.10
7061.00,1.10
7060.00,1.10
7059.00,1.09
7058.00,1.09
7057.00,1.09
7056.00,1.09
7055.00,1.08
7054.00,1.08
7053.00,1.08
7052.00,1.08
7051.00,1.07
7050.00,1.07
7049.00,1.07
7048.00,1.07
7047.00,1.06
7046.00,1.06
7045.00,1.06
7044.00,1.06
7043.00,1.05
7042.00,1.05
7041.00,1.05
7040.00,1.05
7039.00,1.05
7038.00,1.04
7037.00,1.04
7036.00,1.04
7035.00,1.04
7034.00,1.04
7033.00,1.04
7032.00,1.03
7031.00,1.03
7030.00,1.03
7029.00,1.03
7028.00,1.03
7027.00,1.03
7026.00,1.02
7025.00,1.02
7024.00,1.02
7023.00,1.02
7022.00,1.02
7021.00,1.02
7020.00,1.02
7019.00,1.02
7018.00,1.02
7017.00,1.02
7016.00,1.02
7015.00,1.01
7014.00,1.01
7013.00,1.01
7012.00,1.01
7011.00,1.01
7010.00,1.01
7009.00,1.00
7008.00,1.00
7007.00,1.00
7006.00,1.00
7005.00,1.00
7004.00,0.99
7003.00,0.99
7002.00,0.99
7001.00,0.99
7000.00,0.99
6999.00,0.99
6998.00,0.99
6997.00,0.98
6996.00,0.98
6995.00,0.98
6994.00,0.98
6993.00,0.98
6992.00,0.97
6991.00,0.97
6990.00,0.97
6989.00,0.97
6988.00,0.96
6987.00,0.96
6986.00,0.96
6985.00,0.96
6984.00,0.96
6983.00,0.96
6982.00,0.96
6981.00,0.96
6980.00,0.96
6979.00,0.96
6978.00,0.96
6977.00,0.96
6976.00,0.96
6975.00,0.96
6974.00,0.96
6973.00,0.96
6972.00,0.96
6971.00,0.96
6970.00,0.95
6969.00,0.95
6968.00,0.95
6967.00,0.95
6966.00,0.95
6965.00,0.95
6964.00,0.95
6963.00,0.96
6962.00,0.96
6961.00,0.96
6960.00,0.96
6959.00,0.96
6958.00,0.96
6957.00,0.96
6956.00,0.96
6955.00,0.96
6954.00,0.96
6953.00,0.96
6952.00,0.96
6951.00,0.96
6950.00,0.96
6949.00,0.96
6948.00,0.95
6947.00,0.95
6946.00,0.95
6945.00,0.95
6944.00,0.95
6943.00,0.95
6942.00,0.95
6941.00,0.95
6940.00,0.95
6939.00,0.95
6938.00,0.95
6937.00,0.95
6936.00,0.95
6935.00,0.95
6934.00,0.95
6933.00,0.95
6932.00,0.95
6931.00,0.95
6930.00,0.95
6929.00,0.95
6928.00,0.94
6927.00,0.94
6926.00,0.94
6925.00,0.94
6924.00,0.94
6923.00,0.94
6922.00,0.94
6921.00,0.94
6920.00,0.94
6919.00,0.94
6918.00,0.94
6917.00,0.94
6916.00,0.94
6915.00,0.94
6914.00,0.94
6913.00,0.94
6912.00,0.94
6911.00,0.94
6910.00,0.94
6909.00,0.94
6908.00,0.94
6907.00,0.94
6906.00,0.94
6905.00,0.94
6904.00,0.94
6903.00,0.95
6902.00,0.95
6901.00,0.95
6900.00,0.95
6899.00,0.95
6898.00,0.95
6897.00,0.95
6896.00,0.95
6895.00,0.95
6894.00,0.95
6893.00,0.95
6892.00,0.95
6891.00,0.95
6890.00,0.95
6889.00,0.95
6888.00,0.95
6887.00,0.95
6886.00,0.95
6885.00,0.95
6884.00,0.95
6883.00,0.95
6882.00,0.95
6881.00,0.95
6880.00,0.95
6879.00,0.95
6878.00,0.95
6877.00,0.95
6876.00,0.95
6875.00,0.95
6874.00,0.95
6873.00,0.95
6872.00,0.95
6871.00,0.95
6870.00,0.95
6869.00,0.95
6868.00,0.95
6867.00,0.95
6866.00,0.95
6865.00,0.95
6864.00,0.95
6863.00,0.95
6862.00,0.95
6861.00,0.95
6860.00,0.95
6859.00,0.95
6858.00,0.95
6857.00,0.95
6856.00,0.94
6855.00,0.94
6854.00,0.94
6853.00,0.94
6852.00,0.94
6851.00,0.94
6850.00,0.94
6849.00,0.94
6848.00,0.93
6847.00,0.93
6846.00,0.93
6845.00,0.93
6844.00,0.93
6843.00,0.93
6842.00,0.93
6841.00,0.93
6840.00,0.93
6839.00,0.92
6838.00,0.92
6837.00,0.92
6836.00,0.92
6835.00,0.92
6834.00,0.92
6833.00,0.92
6832.00,0.92
6831.00,0.92
6830.00,0.92
6829.00,0.92
6828.00,0.92
6827.00,0.92
6826.00,0.92
6825.00,0.92
6824.00,0.92
6823.00,0.92
6822.00,0.93
6821.00,0.93
6820.00,0.93
6819.00,0.93
6818.00,0.94
6817.00,0.94
6816.00,0.94
6815.00,0.95
6814.00,0.95
6813.00,0.95
6812.00,0.95
6811.00,0.96
6810.00,0.96
6809.00,0.96
6808.00,0.96
6807.00,0.97
6806.00,0.97
6805.00,0.97
6804.00,0.97
6803.00,0.98
6802.00,0.98
6801.00,0.98
6800.00,0.98
6799.00,0.99
6798.00,0.99
6797.00,0.99
6796.00,0.99
6795.00,0.99
6794.00,0.99
6793.00,0.99
6792.00,0.99
6791.00,0.99
6790.00,0.99
6789.00,0.99
6788.00,0.99
6787.00,0.99
6786.00,0.99
6785.00,0.99
6784.00,0.99
6783.00,0.99
6782.00,1.00
6781.00,1.00
6780.00,1.00
6779.00,1.00
6778.00,1.00
6777.00,1.00
6776.00,1.00
6775.00,1.01
6774.00,1.01
6773.00,1.01
6772.00,1.01
6771.00,1.01
6770.00,1.01
6769.00,1.01
6768.00,1.02
6767.00,1.02
6766.00,1.02
6765.00,1.02
6764.00,1.02
6763.00,1.02
6762.00,1.03
6761.00,1.03
6760.00,1.03
6759.00,1.03
6758.00,1.03
6757.00,1.03
6756.00,1.03
6755.00,1.03
6754.00,1.03
6753.00,1.03
6752.00,1.03
6751.00,1.04
6750.00,1.04
6749.00,1.04
6748.00,1.04
6747.00,1.04
6746.00,1.04
6745.00,1.04
6744.00,1.04
6743.00,1.04
6742.00,1.04
6741.00,1.04
6740.00,1.04
6739.00,1.05
6738.00,1.05
6737.00,1.05
6736.00,1.05
6735.00,1.05
6734.00,1.05
6733.00,1.05
6732.00,1.05
6731.00,1.05
6730.00,1.05
6729.00,1.06
6728.00,1.06
6727.00,1.06
6726.00,1.06
6725.00,1.06
6724.00,1.06
6723.00,1.06
6722.00,1.06
6721.00,1.06
6720.00,1.06
6719.00,1.06
6718.00,1.06
6717.00,1.06
6716.00,1.06
6715.00,1.06
6714.00,1.06
6713.00,1.06
6712.00,1.07
6711.00,1.07
6710.00,1.07
6709.00,1.07
6708.00,1.07
6707.00,1.07
6706.00,1.07
6705.00,1.07
6704.00,1.07
6703.00,1.07
6702.00,1.07
6701.00,1.08
6700.00,1.08
6699.00,1.08
6698.00,1.08
6697.00,1.08
6696.00,1.08
6695.00,1.09
6694.00,1.09
6693.00,1.09
6692.00,1.09
6691.00,1.09
6690.00,1.10
6689.00,1.10
6688.00,1.10
6687.00,1.10
6686.00,1.11
6685.00,1.11
6684.00,1.11
6683.00,1.11
6682.00,1.11
6681.00,1.12
6680.00,1.12
6679.00,1.12
6678.00,1.12
6677.00,1.12
6676.00,1.13
6675.00,1.13
6674.00,1.13
6673.00,1.13
6672.00,1.14
6671.00,1.14
6670.00,1.14
6669.00,1.14
6668.00,1.14
6667.00,1.14
6666.00,1.14
6665.00,1.14
6664.00,1.15
6663.00,1.15
6662.00,1.15
6661.00,1.15
6660.00,1.15
6659.00,1.15
6658.00,1.15
6657.00,1.15
6656.00,1.15
6655.00,1.16
6654.00,1.16
6653.00,1.16
6652.00,1.16
6651.00,1.16
6650.00,1.16
6649.00,1.16
6648.00,1.16
6647.00,1.17
6646.00,1.17
6645.00,1.17
6644.00,1.17
6643.00,1.17
6642.00,1.17
6641.00,1.17
6640.00,1.17
6639.00,1.17
6638.00,1.18
6637.00,1.18
6636.00,1.18
6635.00,1.18
6634.00,1.18
6633.00,1.18
6632.00,1.18
6631.00,1.18
6630.00,1.18
6629.00,1.19
6628.00,1.19
6627.00,1.19
6626.00,1.19
6625.00,1.19
6624.00,1.19
6623.00,1.19
6622.00,1.19
6621.00,1.19
6620.00,1.19
6619.00,1.19
6618.00,1.19
6617.00,1.19
6616.00,1.19
6615.00,1.19
6614.00,1.19
6613.00,1.19
6612.00,1.19
6611.00,1.19
6610.00,1.19
6609.00,1.19
6608.00,1.19
6607.00,1.19
6606.00,1.19
6605.00,1.19
6604.00,1.19
6603.00,1.19
6602.00,1.19
6601.00,1.19
6600.00,1.19
6599.00,1.19
6598.00,1.19
6597.00,1.19
6596.00,1.19
6595.00,1.19
6594.00,1.19
6593.00,1.20
6592.00,1.20
6591.00,1.20
6590.00,1.20
6589.00,1.20
6588.00,1.20
6587.00,1.20
6586.00,1.20
6585.00,1.21
6584.00,1.21
6583.00,1.21
6582.00,1.21
6581.00,1.21
6580.00,1.21
6579.00,1.22
6578.00,1.22
6577.00,1.22
6576.00,1.22
6575.00,1.22
6574.00,1.22
6573.00,1.23
6572.00,1.23
6571.00,1.23
6570.00,1.23
6569.00,1.23
6568.00,1.23
6567.00,1.24
6566.00,1.24
6565.00,1.24
6564.00,1.24
6563.00,1.24
6562.00,1.24
6561.00,1.24
6560.00,1.24
6559.00,1.24
6558.00,1.25
6557.00,1.25
6556.00,1.25
6555.00,1.25
6554.00,1.25
6553.00,1.25
6552.00,1.25
6551.00,1.25
6550.00,1.26
6549.00,1.26
6548.00,1.26
6547.00,1.26
6546.00,1.26
6545.00,1.26
6544.00,1.26
6543.00,1.27
6542.00,1.27
6541.00,1.27
6540.00,1.27
6539.00,1.27
6538.00,1.27
6537.00,1.28
6536.00,1.28
6535.00,1.28
6534.00,1.28
6533.00,1.28
6532.00,1.29
6531.00,1.29
6530.00,1.29
6529.00,1.29
6528.00,1.29
6527.00,1.29
6526.00,1.30
6525.00,1.30
6524.00,1.30
6523.00,1.30
6522.00,1.30
6521.00,1.30
6520.00,1.30
6519.00,1.30
6518.00,1.30
6517.00,1.31
6516.00,1.31
6515.00,1.31
6514.00,1.31
6513.00,1.31
6512.00,1.31
6511.00,1.31
6510.00,1.31
6509.00,1.30
6508.00,1.30
6507.00,1.30
6506.00,1.30
6505.00,1.30
6504.00,1.30
6503.00,1.30
6502.00,1.30
6501.00,1.30
6500.00,1.30
6499.00,1.30
6498.00,1.30
6497.00,1.30
6496.00,1.30
6495.00,1.31
6494.00,1.31
6493.00,1.31
6492.00,1.31
6491.00,1.31
6490.00,1.31
6489.00,1.31
6488.00,1.31
6487.00,1.32
6486.00,1.32
6485.00,1.32
6484.00,1.32
6483.00,1.32
6482.00,1.33
6481.00,1.33
6480.00,1.33
6479.00,1.33
6478.00,1.34
6477.00,1.34
6476.00,1.34
6475.00,1.34
6474.00,1.34
6473.00,1.34
6472.00,1.34
6471.00,1.34
6470.00,1.34
6469.00,1.35
6468.00,1.35
6467.00,1.35
6466.00,1.35
6465.00,1.35
6464.00,1.35
6463.00,1.35
6462.00,1.34
6461.00,1.34
6460.00,1.34
6459.00,1.34
6458.00,1.34
6457.00,1.34
6456.00,1.34
6455.00,1.34
6454.00,1.34
6453.00,1.34
6452.00,1.34
6451.00,1.34
6450.00,1.34
6449.00,1.34
6448.00,1.35
6447.00,1.35
6446.00,1.35
6445.00,1.35
6444.00,1.35
6443.00,1.36
6442.00,1.36
6441.00,1.36
6440.00,1.37
6439.00,1.37
6438.00,1.38
6437.00,1.38
6436.00,1.38
6435.00,1.39
6434.00,1.39
6433.00,1.39
6432.00,1.39
6431.00,1.40
6430.00,1.40
6429.00,1.40
6428.00,1.41
6427.00,1.41
6426.00,1.41
6425.00,1.42
6424.00,1.42
6423.00,1.42
6422.00,1.42
6421.00,1.43
6420.00,1.43
6419.00,1.43
6418.00,1.43
6417.00,1.43
6416.00,1.43
6415.00,1.43
6414.00,1.43
6413.00,1.43
6412.00,1.43
6411.00,1.43
6410.00,1.43
6409.00,1.43
6408.00,1.43
6407.00,1.43
6406.00,1.43
6405.00,1.43
6404.00,1.43
6403.00,1.43
6402.00,1.43
6401.00,1.43
6400.00,1.43
6399.00,1.42
6398.00,1.42
6397.00,1.42
6396.00,1.42
6395.00,1.42
6394.00,1.42
6393.00,1.42
6392.00,1.42
6391.00,1.42
6390.00,1.42
6389.00,1.42
6388.00,1.42
6387.00,1.42
6386.00,1.42
6385.00,1.42
6384.00,1.42
6383.00,1.42
6382.00,1.43
6381.00,1.43
6380.00,1.43
6379.00,1.43
6378.00,1.43
6377.00,1.43
6376.00,1.43
6375.00,1.43
6374.00,1.43
6373.00,1.43
6372.00,1.43
6371.00,1.43
6370.00,1.43
6369.00,1.43
6368.00,1.43
6367.00,1.43
6366.00,1.44
6365.00,1.44
6364.00,1.44
6363.00,1.44
6362.00,1.44
6361.00,1.44
6360.00,1.44
6359.00,1.44
6358.00,1.44
6357.00,1.44
6356.00,1.44
6355.00,1.45
6354.00,1.45
6353.00,1.45
6352.00,1.45
6351.00,1.45
6350.00,1.45
6349.00,1.46
6348.00,1.46
6347.00,1.46
6346.00,1.46
6345.00,1.46
6344.00,1.47
6343.00,1.47
6342.00,1.47
6341.00,1.47
6340.00,1.47
6339.00,1.47
6338.00,1.47
6337.00,1.48
6336.00,1.48
6335.00,1.48
6334.00,1.48
6333.00,1.48
6332.00,1.48
6331.00,1.48
6330.00,1.48
6329.00,1.48
6328.00,1.48
6327.00,1.48
6326.00,1.48
6325.00,1.48
6324.00,1.48
6323.00,1.48
6322.00,1.48
6321.00,1.48
6320.00,1.48
6319.00,1.48
6318.00,1.48
6317.00,1.47
6316.00,1.47
6315.00,1.47
6314.00,1.47
6313.00,1.47
6312.00,1.47
6311.00,1.47
6310.00,1.47
6309.00,1.47
6308.00,1.47
6307.00,1.47
6306.00,1.47
6305.00,1.47
6304.00,1.47
6303.00,1.47
6302.00,1.47
6301.00,1.47
6300.00,1.47
6299.00,1.47
6298.00,1.47
6297.00,1.47
6296.00,1.47
6295.00,1.47
6294.00,1.47
6293.00,1.48
6292.00,1.48
6291.00,1.48
6290.00,1.48
6289.00,1.48
6288.00,1.48
6287.00,1.48
6286.00,1.48
6285.00,1.48
6284.00,1.48
6283.00,1.48
6282.00,1.49
6281.00,1.49
6280.00,1.49
6279.00,1.49
6278.00,1.49
6277.00,1.50
6276.00,1.50
6275.00,1.50
6274.00,1.50
6273.00,1.50
6272.00,1.51
6271.00,1.51
6270.00,1.51
6269.00,1.51
6268.00,1.51
6267.00,1.51
6266.00,1.51
6265.00,1.52
6264.00,1.52
6263.00,1.52
6262.00,1.52
6261.00,1.52
6260.00,1.53
6259.00,1.53
6258.00,1.53
6257.00,1.53
6256.00,1.53
6255.00,1.53
6254.00,1.53
6253.00,1.54
6252.00,1.54
6251.00,1.54
6250.00,1.54
6249.00,1.54
6248.00,1.54
6247.00,1.54
6246.00,1.54
6245.00,1.54
6244.00,1.54
6243.00,1.55
6242.00,1.55
6241.00,1.55
6240.00,1.55
6239.00,1.55
6238.00,1.55
6237.00,1.55
6236.00,1.55
6235.00,1.55
6234.00,1.55
6233.00,1.56
6232.00,1.56
6231.00,1.56
6230.00,1.56
6229.00,1.56
6228.00,1.56
6227.00,1.56
6226.00,1.56
6225.00,1.56
6224.00,1.56
6223.00,1.56
6222.00,1.56
6221.00,1.57
6220.00,1.57
6219.00,1.57
6218.00,1.57
6217.00,1.57
6216.00,1.57
6215.00,1.57
6214.00,1.57
6213.00,1.57
6212.00,1.57
6211.00,1.58
6210.00,1.58
6209.00,1.58
6208.00,1.58
6207.00,1.58
6206.00,1.58
6205.00,1.58
6204.00,1.58
6203.00,1.58
6202.00,1.58
6201.00,1.58
6200.00,1.59
6199.00,1.59
6198.00,1.59
6197.00,1.59
6196.00,1.59
6195.00,1.59
6194.00,1.59
6193.00,1.59
6192.00,1.59
6191.00,1.59
6190.00,1.60
6189.00,1.60
6188.00,1.60
6187.00,1.60
6186.00,1.60
6185.00,1.60
6184.00,1.60
6183.00,1.60
6182.00,1.61
6181.00,1.61
6180.00,1.61
6179.00,1.61
6178.00,1.61
6177.00,1.61
6176.00,1.61
6175.00,1.61
6174.00,1.61
6173.00,1.61
6172.00,1.61
6171.00,1.62
6170.00,1.62
6169.00,1.62
6168.00,1.62
6167.00,1.62
6166.00,1.62
6165.00,1.62
6164.00,1.62
6163.00,1.63
6162.00,1.63
6161.00,1.63
6160.00,1.63
6159.00,1.63
6158.00,1.63
6157.00,1.63
6156.00,1.63
6155.00,1.63
6154.00,1.63
6153.00,1.64
6152.00,1.64
6151.00,1.64
6150.00,1.64
6149.00,1.64
6148.00,1.64
6147.00,1.64
6146.00,1.64
6145.00,1.64
6144.00,1.64
6143.00,1.64
6142.00,1.64
6141.00,1.64
6140.00,1.64
6139.00,1.64
6138.00,1.64
6137.00,1.64
6136.00,1.64
6135.00,1.64
6134.00,1.64
6133.00,1.64
6132.00,1.64
6131.00,1.64
6130.00,1.64
6129.00,1.64
6128.00,1.64
6127.00,1.64
6126.00,1.64
6125.00,1.64
6124.00,1.64
6123.00,1.64
6122.00,1.63
6121.00,1.63
6120.00,1.63
6119.00,1.63
6118.00,1.63
6117.00,1.63
6116.00,1.63
6115.00,1.63
6114.00,1.63
6113.00,1.63
6112.00,1.63
6111.00,1.63
6110.00,1.64
6109.00,1.64
6108.00,1.64
6107.00,1.64
6106.00,1.64
6105.00,1.64
6104.00,1.64
6103.00,1.65
6102.00,1.65
6101.00,1.65
6100.00,1.65
6099.00,1.65
6098.00,1.65
6097.00,1.65
6096.00,1.65
6095.00,1.65
6094.00,1.66
6093.00,1.66
6092.00,1.66
6091.00,1.66
6090.00,1.66
6089.00,1.66
6088.00,1.66
6087.00,1.66
6086.00,1.66
6085.00,1.66
6084.00,1.67
6083.00,1.67
6082.00,1.67
6081.00,1.67
6080.00,1.67
6079.00,1.67
6078.00,1.67
6077.00,1.67
6076.00,1.67
6075.00,1.67
6074.00,1.67
6073.00,1.67
6072.00,1.67
6071.00,1.67
6070.00,1.67
6069.00,1.67
6068.00,1.67
6067.00,1.68
6066.00,1.68
6065.00,1.68
6064.00,1.68
6063.00,1.68
6062.00,1.68
6061.00,1.68
6060.00,1.68
6059.00,1.68
6058.00,1.68
6057.00,1.68
6056.00,1.69
6055.00,1.69
6054.00,1.69
6053.00,1.69
6052.00,1.69
6051.00,1.69
6050.00,1.69
6049.00,1.69
6048.00,1.69
6047.00,1.69
6046.00,1.69
6045.00,1.69
6044.00,1.70
6043.00,1.70
6042.00,1.70
6041.00,1.70
6040.00,1.70
6039.00,1.70
6038.00,1.70
6037.00,1.70
6036.00,1.70
6035.00,1.70
6034.00,1.70
6033.00,1.70
6032.00,1.70
6031.00,1.70
6030.00,1.70
6029.00,1.70
6028.00,1.70
6027.00,1.70
6026.00,1.70
6025.00,1.70
6024.00,1.70
6023.00,1.70
6022.00,1.70
6021.00,1.70
6020.00,1.70
6019.00,1.70
6018.00,1.70
6017.00,1.70
6016.00,1.70
6015.00,1.70
6014.00,1.70
6013.00,1.70
6012.00,1.70
6011.00,1.70
6010.00,1.70
6009.00,1.70
6008.00,1.70
6007.00,1.70
6006.00,1.70
6005.00,1.70
6004.00,1.70
6003.00,1.70
6002.00,1.70
6001.00,1.70
6000.00,1.70
5999.00,1.70
5998.00,1.69
5997.00,1.69
5996.00,1.69
5995.00,1.69
5994.00,1.69
5993.00,1.69
5992.00,1.69
5991.00,1.69
5990.00,1.69
5989.00,1.69
5988.00,1.69
5987.00,1.68
5986.00,1.68
5985.00,1.68
5984.00,1.68
5983.00,1.68
5982.00,1.68
5981.00,1.68
5980.00,1.67
5979.00,1.67
5978.00,1.67
5977.00,1.67
5976.00,1.67
5975.00,1.67
5974.00,1.67
5973.00,1.67
5972.00,1.66
5971.00,1.66
5970.00,1.66
5969.00,1.66
5968.00,1.66
5967.00,1.66
5966.00,1.66
5965.00,1.66
5964.00,1.66
5963.00,1.66
5962.00,1.66
5961.00,1.66
5960.00,1.66
5959.00,1.66
5958.00,1.65
5957.00,1.65
5956.00,1.65
5955.00,1.65
5954.00,1.65
5953.00,1.65
5952.00,1.65
5951.00,1.64
5950.00,1.64
5949.00,1.64
5948.00,1.64
5947.00,1.64
5946.00,1.64
5945.00,1.64
5944.00,1.63
5943.00,1.63
5942.00,1.63
5941.00,1.63
5940.00,1.63
5939.00,1.63
5938.00,1.63
5937.00,1.63
5936.00,1.63
5935.00,1.63
5934.00,1.63
5933.00,1.63
5932.00,1.63
5931.00,1.63
5930.00,1.63
5929.00,1.63
5928.00,1.63
5927.00,1.63
5926.00,1.63
5925.00,1.63
5924.00,1.63
5923.00,1.63
5922.00,1.63
5921.00,1.63
5920.00,1.63
5919.00,1.63
5918.00,1.62
5917.00,1.62
5916.00,1.62
5915.00,1.62
5914.00,1.62
5913.00,1.62
5912.00,1.61
5911.00,1.61
5910.00,1.61
5909.00,1.61
5908.00,1.61
5907.00,1.60
5906.00,1.60
5905.00,1.60
5904.00,1.60
5903.00,1.59
5902.00,1.59
5901.00,1.59
5900.00,1.59
5899.00,1.59
5898.00,1.59
5897.00,1.59
5896.00,1.58
5895.00,1.58
5894.00,1.58
5893.00,1.59
5892.00,1.59
5891.00,1.59
5890.00,1.59
5889.00,1.59
5888.00,1.59
5887.00,1.59
5886.00,1.59
5885.00,1.59
5884.00,1.60
5883.00,1.60
5882.00,1.60
5881.00,1.60
5880.00,1.60
5879.00,1.61
5878.00,1.61
5877.00,1.61
5876.00,1.61
5875.00,1.61
5874.00,1.62
5873.00,1.62
5872.00,1.62
5871.00,1.62
5870.00,1.62
5869.00,1.62
5868.00,1.62
5867.00,1.62
5866.00,1.62
5865.00,1.62
5864.00,1.62
5863.00,1.62
5862.00,1.62
5861.00,1.62
5860.00,1.62
5859.00,1.62
5858.00,1.62
5857.00,1.62
5856.00,1.62
5855.00,1.62
5854.00,1.61
5853.00,1.61
5852.00,1.61
5851.00,1.61
5850.00,1.61
5849.00,1.61
5848.00,1.61
5847.00,1.61
5846.00,1.61
5845.00,1.61
5844.00,1.61
5843.00,1.62
5842.00,1.62
5841.00,1.62
5840.00,1.62
5839.00,1.62
5838.00,1.62
5837.00,1.62
5836.00,1.62
5835.00,1.62
5834.00,1.63
5833.00,1.63
5832.00,1.63
5831.00,1.63
5830.00,1.63
5829.00,1.63
5828.00,1.63
5827.00,1.63
5826.00,1.63
5825.00,1.63
5824.00,1.63
5823.00,1.63
5822.00,1.62
5821.00,1.62
5820.00,1.62
5819.00,1.62
5818.00,1.62
5817.00,1.61
5816.00,1.61
5815.00,1.61
5814.00,1.61
5813.00,1.60
5812.00,1.60
5811.00,1.60
5810.00,1.60
5809.00,1.59
5808.00,1.59
5807.00,1.59
5806.00,1.59
5805.00,1.59
5804.00,1.59
5803.00,1.58
5802.00,1.58
5801.00,1.58
5800.00,1.58
5799.00,1.58
5798.00,1.58
5797.00,1.58
5796.00,1.58
5795.00,1.58
5794.00,1.58
5793.00,1.58
5792.00,1.58
5791.00,1.58
5790.00,1.58
5789.00,1.58
5788.00,1.58
5787.00,1.58
5786.00,1.58
5785.00,1.58
5784.00,1.58
5783.00,1.58
5782.00,1.58
5781.00,1.58
5780.00,1.58
5779.00,1.58
5778.00,1.59
5777.00,1.59
5776.00,1.59
5775.00,1.59
5774.00,1.59
5773.00,1.59
5772.00,1.59
5771.00,1.59
5770.00,1.59
5769.00,1.59
5768.00,1.59
5767.00,1.60
5766.00,1.60
5765.00,1.60
5764.00,1.60
5763.00,1.60
5762.00,1.60
5761.00,1.61
5760.00,1.61
5759.00,1.61
5758.00,1.61
5757.00,1.62
5756.00,1.62
5755.00,1.62
5754.00,1.62
5753.00,1.62
5752.00,1.63
5751.00,1.63
5750.00,1.63
5749.00,1.63
5748.00,1.63
5747.00,1.63
5746.00,1.64
5745.00,1.64
5744.00,1.64
5743.00,1.64
5742.00,1.64
5741.00,1.64
5740.00,1.64
5739.00,1.64
5738.00,1.64
5737.00,1.63
5736.00,1.63
5735.00,1.63
5734.00,1.63
5733.00,1.63
5732.00,1.63
5731.00,1.63
5730.00,1.63
5729.00,1.63
5728.00,1.62
5727.00,1.62
5726.00,1.62
5725.00,1.62
5724.00,1.62
5723.00,1.62
5722.00,1.62
5721.00,1.62
5720.00,1.62
5719.00,1.61
5718.00,1.61
5717.00,1.61
5716.00,1.61
5715.00,1.61
5714.00,1.61
5713.00,1.61
5712.00,1.61
5711.00,1.61
5710.00,1.61
5709.00,1.61
5708.00,1.61
5707.00,1.61
5706.00,1.61
5705.00,1.61
5704.00,1.61
5703.00,1.61
5702.00,1.61
5701.00,1.61
5700.00,1.61
5699.00,1.61
5698.00,1.61
5697.00,1.61
5696.00,1.61
5695.00,1.61
5694.00,1.61
5693.00,1.61
5692.00,1.61
5691.00,1.60
5690.00,1.60
5689.00,1.60
5688.00,1.60
5687.00,1.60
5686.00,1.60
5685.00,1.60
5684.00,1.60
5683.00,1.60
5682.00,1.60
5681.00,1.60
5680.00,1.60
5679.00,1.60
5678.00,1.60
5677.00,1.60
5676.00,1.60
5675.00,1.60
5674.00,1.60
5673.00,1.60
5672.00,1.60
5671.00,1.60
5670.00,1.60
5669.00,1.60
5668.00,1.60
5667.00,1.60
5666.00,1.60
5665.00,1.60
5664.00,1.60
5663.00,1.60
5662.00,1.61
5661.00,1.61
5660.00,1.61
5659.00,1.61
5658.00,1.61
5657.00,1.61
5656.00,1.61
5655.00,1.61
5654.00,1.61
5653.00,1.61
5652.00,1.61
5651.00,1.61
5650.00,1.61
5649.00,1.61
5648.00,1.61
5647.00,1.61
5646.00,1.61
5645.00,1.61
5644.00,1.61
5643.00,1.61
5642.00,1.61
5641.00,1.61
5640.00,1.61
5639.00,1.61
5638.00,1.61
5637.00,1.61
5636.00,1.61
5635.00,1.61
5634.00,1.60
5633.00,1.60
5632.00,1.60
5631.00,1.60
5630.00,1.60
5629.00,1.60
5628.00,1.60
5627.00,1.60
5626.00,1.61
5625.00,1.61
5624.00,1.61
5623.00,1.61
5622.00,1.61
5621.00,1.61
5620.00,1.61
5619.00,1.61
5618.00,1.61
5617.00,1.61
5616.00,1.61
5615.00,1.62
5614.00,1.62
5613.00,1.62
5612.00,1.62
5611.00,1.62
5610.00,1.62
5609.00,1.62
5608.00,1.62
5607.00,1.63
5606.00,1.63
5605.00,1.63
5604.00,1.63
5603.00,1.63
5602.00,1.63
5601.00,1.63
5600.00,1.63
5599.00,1.63
5598.00,1.63
5597.00,1.63
5596.00,1.63
5595.00,1.63
5594.00,1.63
5593.00,1.63
5592.00,1.63
5591.00,1.63
5590.00,1.63
5589.00,1.63
5588.00,1.63
5587.00,1.63
5586.00,1.63
5585.00,1.63
5584.00,1.63
5583.00,1.63
5582.00,1.63
5581.00,1.63
5580.00,1.63
5579.00,1.64
5578.00,1.64
5577.00,1.64
5576.00,1.64
5575.00,1.64
5574.00,1.64
5573.00,1.64
5572.00,1.64
5571.00,1.64
5570.00,1.65
5569.00,1.65
5568.00,1.65
5567.00,1.65
5566.00,1.65
5565.00,1.65
5564.00,1.65
5563.00,1.65
5562.00,1.66
5561.00,1.66
5560.00,1.66
5559.00,1.66
5558.00,1.66
5557.00,1.66
5556.00,1.66
5555.00,1.66
5554.00,1.66
5553.00,1.66
5552.00,1.66
5551.00,1.66
5550.00,1.66
5549.00,1.66
5548.00,1.66
5547.00,1.66
5546.00,1.66
5545.00,1.66
5544.00,1.67
5543.00,1.67
5542.00,1.67
5541.00,1.67
5540.00,1.67
5539.00,1.67
5538.00,1.67
5537.00,1.67
5536.00,1.67
5535.00,1.68
5534.00,1.68
5533.00,1.68
5532.00,1.68
5531.00,1.68
5530.00,1.68
5529.00,1.68
5528.00,1.68
5527.00,1.68
5526.00,1.68
5525.00,1.68
5524.00,1.68
5523.00,1.68
5522.00,1.68
5521.00,1.68
5520.00,1.68
5519.00,1.68
5518.00,1.68
5517.00,1.68
5516.00,1.68
5515.00,1.68
5514.00,1.68
5513.00,1.68
5512.00,1.68
5511.00,1.68
5510.00,1.68
5509.00,1.68
5508.00,1.68
5507.00,1.68
5506.00,1.68
5505.00,1.68
5504.00,1.68
5503.00,1.68
5502.00,1.68
5501.00,1.68
5500.00,1.68
5499.00,1.68
5498.00,1.68
5497.00,1.68
5496.00,1.68
5495.00,1.68
5494.00,1.68
5493.00,1.68
5492.00,1.68
5491.00,1.68
5490.00,1.68
5489.00,1.68
5488.00,1.68
5487.00,1.68
5486.00,1.68
5485.00,1.68
5484.00,1.68
5483.00,1.68
5482.00,1.68
5481.00,1.68
5480.00,1.68
5479.00,1.68
5478.00,1.68
5477.00,1.68
5476.00,1.68
5475.00,1.68
5474.00,1.68
5473.00,1.68
5472.00,1.69
5471.00,1.69
5470.00,1.69
5469.00,1.69
5468.00,1.69
5467.00,1.69
5466.00,1.69
5465.00,1.69
5464.00,1.69
5463.00,1.70
5462.00,1.70
5461.00,1.70
5460.00,1.70
5459.00,1.70
5458.00,1.71
5457.00,1.71
5456.00,1.71
5455.00,1.71
5454.00,1.71
5453.00,1.71
5452.00,1.72
5451.00,1.72
5450.00,1.72
5449.00,1.72
5448.00,1.72
5447.00,1.72
5446.00,1.72
5445.00,1.72
5444.00,1.72
5443.00,1.72
5442.00,1.73
5441.00,1.73
5440.00,1.73
5439.00,1.73
5438.00,1.73
5437.00,1.73
5436.00,1.73
5435.00,1.72
5434.00,1.72
5433.00,1.72
5432.00,1.72
5431.00,1.72
5430.00,1.72
5429.00,1.72
5428.00,1.72
5427.00,1.72
5426.00,1.72
5425.00,1.72
5424.00,1.72
5423.00,1.72
5422.00,1.72
5421.00,1.72
5420.00,1.71
5419.00,1.71
5418.00,1.71
5417.00,1.71
5416.00,1.71
5415.00,1.71
5414.00,1.71
5413.00,1.71
5412.00,1.71
5411.00,1.70
5410.00,1.70
5409.00,1.70
5408.00,1.70
5407.00,1.70
5406.00,1.70
5405.00,1.70
5404.00,1.69
5403.00,1.69
5402.00,1.69
5401.00,1.69
5400.00,1.69
5399.00,1.68
5398.00,1.68
5397.00,1.68
5396.00,1.68
5395.00,1.68
5394.00,1.67
5393.00,1.67
5392.00,1.67
5391.00,1.67
5390.00,1.66
5389.00,1.66
5388.00,1.66
5387.00,1.66
5386.00,1.65
5385.00,1.65
5384.00,1.65
5383.00,1.65
5382.00,1.64
5381.00,1.64
5380.00,1.64
5379.00,1.63
5378.00,1.63
5377.00,1.63
5376.00,1.62
5375.00,1.62
5374.00,1.62
5373.00,1.62
5372.00,1.61
5371.00,1.61
5370.00,1.61
5369.00,1.60
5368.00,1.60
5367.00,1.60
5366.00,1.59
5365.00,1.59
5364.00,1.59
5363.00,1.58
5362.00,1.58
5361.00,1.57
5360.00,1.57
5359.00,1.57
5358.00,1.56
5357.00,1.56
5356.00,1.55
5355.00,1.54
5354.00,1.54
5353.00,1.53
5352.00,1.53
5351.00,1.52
5350.00,1.51
5349.00,1.51
5348.00,1.50
5347.00,1.49
5346.00,1.49
5345.00,1.48
5344.00,1.47
5343.00,1.46
5342.00,1.45
5341.00,1.44
5340.00,1.44
5339.00,1.43
5338.00,1.42
5337.00,1.41
5336.00,1.40
5335.00,1.39
5334.00,1.37
5333.00,1.36
5332.00,1.35
5331.00,1.34
5330.00,1.33
5329.00,1.32
5328.00,1.31
5327.00,1.30
5326.00,1.29
5325.00,1.27
5324.00,1.26
5323.00,1.25
5322.00,1.24
5321.00,1.23
5320.00,1.22
5319.00,1.20
5318.00,1.19
5317.00,1.18
5316.00,1.17
5315.00,1.15
5314.00,1.14
5313.00,1.13
5312.00,1.12
5311.00,1.11
5310.00,1.10
5309.00,1.08
5308.00,1.07
5307.00,1.06
5306.00,1.05
5305.00,1.04
5304.00,1.03
5303.00,1.02
5302.00,1.01
5301.00,1.00
5300.00,0.99
5299.00,0.98
5298.00,0.96
5297.00,0.95
5296.00,0.94
5295.00,0.93
5294.00,0.92
5293.00,0.91
5292.00,0.90
5291.00,0.89
5290.00,0.89
5289.00,0.88
5288.00,0.87
5287.00,0.86
5286.00,0.85
5285.00,0.84
5284.00,0.83
5283.00,0.83
5282.00,0.82
5281.00,0.81
5280.00,0.80
5279.00,0.80
5278.00,0.79
5277.00,0.79
5276.00,0.78
5275.00,0.77
5274.00,0.77
5273.00,0.76
5272.00,0.76
5271.00,0.75
5270.00,0.75
5269.00,0.74
5268.00,0.74
5267.00,0.73
5266.00,0.73
5265.00,0.72
5264.00,0.72
5263.00,0.71
5262.00,0.71
5261.00,0.71
5260.00,0.70
5259.00,0.70
5258.00,0.70
5257.00,0.69
5256.00,0.69
5255.00,0.68
5254.00,0.68
5253.00,0.68
5252.00,0.67
5251.00,0.67
5250.00,0.67
5249.00,0.66
5248.00,0.66
5247.00,0.66
5246.00,0.66
5245.00,0.65
5244.00,0.65
5243.00,0.65
5242.00,0.65
5241.00,0.64
5240.00,0.64
5239.00,0.64
5238.00,0.64
5237.00,0.64
5236.00,0.64
5235.00,0.64
5234.00,0.64
5233.00,0.64
5232.00,0.64
5231.00,0.64
5230.00,0.64
5229.00,0.64
5228.00,0.64
5227.00,0.64
5226.00,0.64
5225.00,0.64
5224.00,0.64
5223.00,0.64
5222.00,0.64
5221.00,0.64
5220.00,0.64
5219.00,0.64
5218.00,0.64
5217.00,0.64
5216.00,0.64
5215.00,0.63
5214.00,0.63
5213.00,0.63
5212.00,0.63
5211.00,0.63
5210.00,0.63
5209.00,0.63
5208.00,0.62
5207.00,0.62
5206.00,0.62
5205.00,0.62
5204.00,0.62
5203.00,0.61
5202.00,0.61
5201.00,0.61
5200.00,0.61
5199.00,0.61
5198.00,0.60
5197.00,0.60
5196.00,0.60
5195.00,0.60
5194.00,0.60
5193.00,0.60
5192.00,0.60
5191.00,0.60
5190.00,0.60
5189.00,0.59
5188.00,0.59
5187.00,0.59
5186.00,0.59
5185.00,0.59
5184.00,0.59
5183.00,0.59
5182.00,0.59
5181.00,0.59
5180.00,0.59
5179.00,0.59
5178.00,0.60
5177.00,0.60
5176.00,0.60
5175.00,0.60
5174.00,0.60
5173.00,0.60
5172.00,0.60
5171.00,0.60
5170.00,0.60
5169.00,0.61
5168.00,0.61
5167.00,0.61
5166.00,0.61
5165.00,0.61
5164.00,0.61
5163.00,0.61
5162.00,0.61
5161.00,0.62
5160.00,0.62
5159.00,0.62
5158.00,0.62
5157.00,0.62
5156.00,0.62
5155.00,0.62
5154.00,0.62
5153.00,0.63
5152.00,0.63
5151.00,0.63
5150.00,0.63
5149.00,0.63
5148.00,0.63
5147.00,0.63
5146.00,0.63
5145.00,0.63
5144.00,0.63
5143.00,0.63
5142.00,0.63
5141.00,0.63
5140.00,0.63
5139.00,0.63
5138.00,0.63
5137.00,0.63
5136.00,0.63
5135.00,0.63
5134.00,0.63
5133.00,0.63
5132.00,0.63
5131.00,0.63
5130.00,0.63
5129.00,0.63
5128.00,0.63
5127.00,0.63
5126.00,0.63
5125.00,0.63
5124.00,0.63
5123.00,0.63
5122.00,0.63
5121.00,0.63
5120.00,0.63
5119.00,0.63
5118.00,0.63
5117.00,0.63
5116.00,0.63
5115.00,0.63
5114.00,0.63
5113.00,0.64
5112.00,0.64
5111.00,0.64
5110.00,0.64
5109.00,0.64
5108.00,0.65
5107.00,0.65
5106.00,0.65
5105.00,0.65
5104.00,0.65
5103.00,0.66
5102.00,0.66
5101.00,0.66
5100.00,0.66
5099.00,0.67
5098.00,0.67
5097.00,0.67
5096.00,0.67
5095.00,0.68
5094.00,0.68
5093.00,0.68
5092.00,0.68
5091.00,0.69
5090.00,0.69
5089.00,0.69
5088.00,0.69
5087.00,0.69
5086.00,0.70
5085.00,0.70
5084.00,0.70
5083.00,0.70
5082.00,0.70
5081.00,0.70
5080.00,0.70
5079.00,0.71
5078.00,0.71
5077.00,0.71
5076.00,0.71
5075.00,0.71
5074.00,0.71
5073.00,0.71
5072.00,0.71
5071.00,0.71
5070.00,0.71
5069.00,0.71
5068.00,0.72
5067.00,0.72
5066.00,0.72
5065.00,0.72
5064.00,0.72
5063.00,0.72
5062.00,0.72
5061.00,0.72
5060.00,0.72
5059.00,0.72
5058.00,0.72
5057.00,0.72
5056.00,0.72
5055.00,0.72
5054.00,0.72
5053.00,0.72
5052.00,0.72
5051.00,0.72
5050.00,0.72
5049.00,0.72
5048.00,0.72
5047.00,0.73
5046.00,0.73
5045.00,0.73
5044.00,0.73
5043.00,0.73
5042.00,0.74
5041.00,0.74
5040.00,0.74
5039.00,0.75
5038.00,0.75
5037.00,0.75
5036.00,0.76
5035.00,0.76
5034.00,0.76
5033.00,0.77
5032.00,0.77
5031.00,0.77
5030.00,0.78
5029.00,0.78
5028.00,0.78
5027.00,0.79
5026.00,0.79
5025.00,0.79
5024.00,0.80
5023.00,0.80
5022.00,0.80
5021.00,0.81
5020.00,0.81
5019.00,0.81
5018.00,0.81
5017.00,0.82
5016.00,0.82
5015.00,0.82
5014.00,0.82
5013.00,0.82
5012.00,0.83
5011.00,0.83
5010.00,0.83
5009.00,0.83
5008.00,0.83
5007.00,0.83
5006.00,0.84
5005.00,0.84
5004.00,0.84
5003.00,0.84
5002.00,0.84
5001.00,0.85
5000.00,0.85
4999.00,0.85
4998.00,0.85
4997.00,0.86
4996.00,0.86
4995.00,0.86
4994.00,0.86
4993.00,0.87
4992.00,0.87
4991.00,0.87
4990.00,0.87
4989.00,0.88
4988.00,0.88
4987.00,0.88
4986.00,0.89
4985.00,0.89
4984.00,0.89
4983.00,0.89
4982.00,0.90
4981.00,0.90
4980.00,0.90
4979.00,0.90
4978.00,0.91
4977.00,0.91
4976.00,0.91
4975.00,0.91
4974.00,0.92
4973.00,0.92
4972.00,0.92
4971.00,0.93
4970.00,0.93
4969.00,0.93
4968.00,0.93
4967.00,0.94
4966.00,0.94
4965.00,0.94
4964.00,0.94
4963.00,0.94
4962.00,0.95
4961.00,0.95
4960.00,0.95
4959.00,0.95
4958.00,0.95
4957.00,0.96
4956.00,0.96
4955.00,0.96
4954.00,0.96
4953.00,0.96
4952.00,0.97
4951.00,0.97
4950.00,0.97
4949.00,0.97
4948.00,0.97
4947.00,0.98
4946.00,0.98
4945.00,0.98
4944.00,0.98
4943.00,0.98
4942.00,0.99
4941.00,0.99
4940.00,0.99
4939.00,0.99
4938.00,0.99
4937.00,1.00
4936.00,1.00
4935.00,1.00
4934.00,1.00
4933.00,1.01
4932.00,1.01
4931.00,1.01
4930.00,1.01
4929.00,1.02
4928.00,1.02
4927.00,1.02
4926.00,1.02
4925.00,1.02
4924.00,1.03
4923.00,1.03
4922.00,1.03
4921.00,1.03
4920.00,1.03
4919.00,1.03
4918.00,1.04
4917.00,1.04
4916.00,1.04
4915.00,1.04
4914.00,1.04
4913.00,1.05
4912.00,1.05
4911.00,1.05
4910.00,1.05
4909.00,1.05
4908.00,1.05
4907.00,1.05
4906.00,1.06
4905.00,1.06
4904.00,1.06
4903.00,1.06
4902.00,1.06
4901.00,1.06
4900.00,1.06
4899.00,1.07
4898.00,1.07
4897.00,1.07
4896.00,1.07
4895.00,1.07
4894.00,1.07
4893.00,1.07
4892.00,1.08
4891.00,1.08
4890.00,1.08
4889.00,1.08
4888.00,1.08
4887.00,1.08
4886.00,1.08
4885.00,1.08
4884.00,1.09
4883.00,1.09
4882.00,1.09
4881.00,1.09
4880.00,1.09
4879.00,1.09
4878.00,1.10
4877.00,1.10
4876.00,1.10
4875.00,1.10
4874.00,1.10
4873.00,1.10
4872.00,1.11
4871.00,1.11
4870.00,1.11
4869.00,1.11
4868.00,1.11
4867.00,1.11
4866.00,1.11
4865.00,1.11
4864.00,1.12
4863.00,1.12
4862.00,1.12
4861.00,1.12
4860.00,1.12
4859.00,1.12
4858.00,1.12
4857.00,1.12
4856.00,1.13
4855.00,1.13
4854.00,1.13
4853.00,1.13
4852.00,1.13
4851.00,1.13
4850.00,1.13
4849.00,1.13
4848.00,1.14
4847.00,1.14
4846.00,1.14
4845.00,1.14
4844.00,1.14
4843.00,1.14
4842.00,1.15
4841.00,1.15
4840.00,1.15
4839.00,1.15
4838.00,1.16
4837.00,1.16
4836.00,1.16
4835.00,1.16
4834.00,1.17
4833.00,1.17
4832.00,1.17
4831.00,1.18
4830.00,1.18
4829.00,1.18
4828.00,1.19
4827.00,1.19
4826.00,1.19
4825.00,1.19
4824.00,1.20
4823.00,1.20
4822.00,1.20
4821.00,1.21
4820.00,1.21
4819.00,1.21
4818.00,1.21
4817.00,1.22
4816.00,1.22
4815.00,1.22
4814.00,1.22
4813.00,1.22
4812.00,1.22
4811.00,1.22
4810.00,1.22
4809.00,1.23
4808.00,1.23
4807.00,1.23
4806.00,1.23
4805.00,1.23
4804.00,1.23
4803.00,1.23
4802.00,1.23
4801.00,1.23
4800.00,1.23
4799.00,1.24
4798.00,1.24
4797.00,1.24
4796.00,1.24
4795.00,1.24
4794.00,1.24
4793.00,1.24
4792.00,1.25
4791.00,1.25
4790.00,1.25
4789.00,1.25
4788.00,1.26
4787.00,1.26
4786.00,1.26
4785.00,1.26
4784.00,1.26
4783.00,1.27
4782.00,1.27
4781.00,1.27
4780.00,1.27
4779.00,1.27
4778.00,1.28
4777.00,1.28
4776.00,1.28
4775.00,1.28
4774.00,1.29
4773.00,1.29
4772.00,1.29
4771.00,1.29
4770.00,1.30
4769.00,1.30
4768.00,1.30
4767.00,1.30
4766.00,1.31
4765.00,1.31
4764.00,1.31
4763.00,1.32
4762.00,1.32
4761.00,1.32
4760.00,1.33
4759.00,1.33
4758.00,1.33
4757.00,1.34
4756.00,1.34
4755.00,1.34
4754.00,1.35
4753.00,1.35
4752.00,1.36
4751.00,1.36
4750.00,1.36
4749.00,1.37
4748.00,1.37
4747.00,1.37
4746.00,1.37
4745.00,1.38
4744.00,1.38
4743.00,1.38
4742.00,1.39
4741.00,1.39
4740.00,1.39
4739.00,1.40
4738.00,1.40
4737.00,1.40
4736.00,1.40
4735.00,1.41
4734.00,1.41
4733.00,1.41
4732.00,1.42
4731.00,1.42
4730.00,1.42
4729.00,1.43
4728.00,1.43
4727.00,1.44
4726.00,1.44
4725.00,1.44
4724.00,1.45
4723.00,1.45
4722.00,1.46
4721.00,1.46
4720.00,1.46
4719.00,1.47
4718.00,1.47
4717.00,1.47
4716.00,1.48
4715.00,1.48
4714.00,1.48
4713.00,1.49
4712.00,1.49
4711.00,1.49
4710.00,1.49
4709.00,1.50
4708.00,1.50
4707.00,1.50
4706.00,1.51
4705.00,1.51
4704.00,1.51
4703.00,1.51
4702.00,1.52
4701.00,1.52
4700.00,1.52
4699.00,1.52
4698.00,1.53
4697.00,1.53
4696.00,1.53
4695.00,1.53
4694.00,1.53
4693.00,1.54
4692.00,1.54
4691.00,1.54
4690.00,1.54
4689.00,1.55
4688.00,1.55
4687.00,1.55
4686.00,1.55
4685.00,1.56
4684.00,1.56
4683.00,1.56
4682.00,1.56
4681.00,1.56
4680.00,1.56
4679.00,1.57
4678.00,1.57
4677.00,1.57
4676.00,1.57
4675.00,1.57
4674.00,1.57
4673.00,1.57
4672.00,1.57
4671.00,1.57
4670.00,1.58
4669.00,1.58
4668.00,1.58
4667.00,1.58
4666.00,1.58
4665.00,1.58
4664.00,1.58
4663.00,1.58
4662.00,1.58
4661.00,1.58
4660.00,1.58
4659.00,1.58
4658.00,1.58
4657.00,1.59
4656.00,1.59
4655.00,1.59
4654.00,1.59
4653.00,1.59
4652.00,1.59
4651.00,1.59
4650.00,1.60
4649.00,1.60
4648.00,1.60
4647.00,1.60
4646.00,1.60
4645.00,1.60
4644.00,1.60
4643.00,1.61
4642.00,1.61
4641.00,1.61
4640.00,1.61
4639.00,1.61
4638.00,1.61
4637.00,1.61
4636.00,1.61
4635.00,1.61
4634.00,1.62
4633.00,1.62
4632.00,1.62
4631.00,1.62
4630.00,1.62
4629.00,1.62
4628.00,1.62
4627.00,1.62
4626.00,1.62
4625.00,1.62
4624.00,1.62
4623.00,1.62
4622.00,1.62
4621.00,1.62
4620.00,1.62
4619.00,1.62
4618.00,1.62
4617.00,1.62
4616.00,1.62
4615.00,1.62
4614.00,1.62
4613.00,1.62
4612.00,1.62
4611.00,1.62
4610.00,1.62
4609.00,1.62
4608.00,1.62
4607.00,1.62
4606.00,1.62
4605.00,1.62
4604.00,1.62
4603.00,1.62
4602.00,1.62
4601.00,1.62
4600.00,1.62
4599.00,1.62
4598.00,1.62
4597.00,1.62
4596.00,1.62
4595.00,1.62
4594.00,1.62
4593.00,1.62
4592.00,1.62
4591.00,1.62
4590.00,1.62
4589.00,1.62
4588.00,1.62
4587.00,1.62
4586.00,1.62
4585.00,1.63
4584.00,1.63
4583.00,1.63
4582.00,1.63
4581.00,1.63
4580.00,1.63
4579.00,1.63
4578.00,1.63
4577.00,1.63
4576.00,1.64
4575.00,1.64
4574.00,1.64
4573.00,1.64
4572.00,1.64
4571.00,1.64
4570.00,1.64
4569.00,1.64
4568.00,1.65
4567.00,1.65
4566.00,1.65
4565.00,1.65
4564.00,1.65
4563.00,1.65
4562.00,1.65
4561.00,1.65
4560.00,1.65
4559.00,1.65
4558.00,1.65
4557.00,1.65
4556.00,1.65
4555.00,1.65
4554.00,1.65
4553.00,1.65
4552.00,1.65
4551.00,1.64
4550.00,1.64
4549.00,1.64
4548.00,1.64
4547.00,1.64
4546.00,1.64
4545.00,1.64
4544.00,1.64
4543.00,1.64
4542.00,1.64
4541.00,1.64
4540.00,1.64
4539.00,1.64
4538.00,1.64
4537.00,1.64
4536.00,1.64
4535.00,1.64
4534.00,1.64
4533.00,1.65
4532.00,1.65
4531.00,1.65
4530.00,1.65
4529.00,1.65
4528.00,1.66
4527.00,1.66
4526.00,1.66
4525.00,1.66
4524.00,1.67
4523.00,1.67
4522.00,1.67
4521.00,1.67
4520.00,1.68
4519.00,1.68
4518.00,1.68
4517.00,1.68
4516.00,1.69
4515.00,1.69
4514.00,1.69
4513.00,1.69
4512.00,1.69
4511.00,1.69
4510.00,1.69
4509.00,1.69
4508.00,1.69
4507.00,1.70
4506.00,1.70
4505.00,1.70
4504.00,1.70
4503.00,1.70
4502.00,1.70
4501.00,1.70
4500.00,1.70
4499.00,1.70
4498.00,1.70
4497.00,1.70
4496.00,1.70
4495.00,1.69
4494.00,1.69
4493.00,1.69
4492.00,1.69
4491.00,1.69
4490.00,1.69
4489.00,1.69
4488.00,1.69
4487.00,1.68
4486.00,1.68
4485.00,1.68
4484.00,1.68
4483.00,1.68
4482.00,1.68
4481.00,1.68
4480.00,1.68
4479.00,1.67
4478.00,1.67
4477.00,1.67
4476.00,1.67
4475.00,1.66
4474.00,1.66
4473.00,1.66
4472.00,1.66
4471.00,1.65
4470.00,1.65
4469.00,1.65
4468.00,1.64
4467.00,1.64
4466.00,1.64
4465.00,1.64
4464.00,1.63
4463.00,1.63
4462.00,1.63
4461.00,1.63
4460.00,1.62
4459.00,1.62
4458.00,1.62
4457.00,1.61
4456.00,1.61
4455.00,1.61
4454.00,1.60
4453.00,1.60
4452.00,1.59
4451.00,1.59
4450.00,1.58
4449.00,1.58
4448.00,1.58
4447.00,1.57
4446.00,1.56
4445.00,1.56
4444.00,1.55
4443.00,1.55
4442.00,1.54
4441.00,1.53
4440.00,1.53
4439.00,1.52
4438.00,1.51
4437.00,1.50
4436.00,1.49
4435.00,1.49
4434.00,1.48
4433.00,1.47
4432.00,1.46
4431.00,1.45
4430.00,1.44
4429.00,1.43
4428.00,1.42
4427.00,1.42
4426.00,1.41
4425.00,1.40
4424.00,1.39
4423.00,1.39
4422.00,1.38
4421.00,1.37
4420.00,1.37
4419.00,1.36
4418.00,1.36
4417.00,1.35
4416.00,1.35
4415.00,1.34
4414.00,1.34
4413.00,1.34
4412.00,1.34
4411.00,1.34
4410.00,1.34
4409.00,1.34
4408.00,1.34
4407.00,1.34
4406.00,1.34
4405.00,1.35
4404.00,1.35
4403.00,1.35
4402.00,1.36
4401.00,1.36
4400.00,1.36
4399.00,1.37
4398.00,1.37
4397.00,1.38
4396.00,1.38
4395.00,1.39
4394.00,1.39
4393.00,1.40
4392.00,1.41
4391.00,1.41
4390.00,1.42
4389.00,1.43
4388.00,1.43
4387.00,1.44
4386.00,1.44
4385.00,1.45
4384.00,1.45
4383.00,1.46
4382.00,1.46
4381.00,1.47
4380.00,1.47
4379.00,1.47
4378.00,1.47
4377.00,1.48
4376.00,1.48
4375.00,1.48
4374.00,1.48
4373.00,1.48
4372.00,1.48
4371.00,1.48
4370.00,1.48
4369.00,1.48
4368.00,1.48
4367.00,1.48
4366.00,1.47
4365.00,1.47
4364.00,1.47
4363.00,1.46
4362.00,1.46
4361.00,1.46
4360.00,1.45
4359.00,1.45
4358.00,1.44
4357.00,1.44
4356.00,1.44
4355.00,1.43
4354.00,1.43
4353.00,1.43
4352.00,1.42
4351.00,1.42
4350.00,1.42
4349.00,1.42
4348.00,1.42
4347.00,1.42
4346.00,1.42
4345.00,1.42
4344.00,1.42
4343.00,1.42
4342.00,1.42
4341.00,1.42
4340.00,1.43
4339.00,1.43
4338.00,1.44
4337.00,1.44
4336.00,1.44
4335.00,1.45
4334.00,1.46
4333.00,1.46
4332.00,1.47
4331.00,1.47
4330.00,1.48
4329.00,1.49
4328.00,1.50
4327.00,1.50
4326.00,1.51
4325.00,1.52
4324.00,1.52
4323.00,1.53
4322.00,1.54
4321.00,1.54
4320.00,1.55
4319.00,1.55
4318.00,1.56
4317.00,1.56
4316.00,1.57
4315.00,1.57
4314.00,1.58
4313.00,1.58
4312.00,1.58
4311.00,1.58
4310.00,1.59
4309.00,1.59
4308.00,1.59
4307.00,1.59
4306.00,1.59
4305.00,1.59
4304.00,1.60
4303.00,1.60
4302.00,1.60
4301.00,1.60
4300.00,1.60
4299.00,1.60
4298.00,1.60
4297.00,1.60
4296.00,1.61
4295.00,1.61
4294.00,1.61
4293.00,1.61
4292.00,1.61
4291.00,1.62
4290.00,1.62
4289.00,1.62
4288.00,1.62
4287.00,1.62
4286.00,1.63
4285.00,1.63
4284.00,1.63
4283.00,1.63
4282.00,1.64
4281.00,1.64
4280.00,1.64
4279.00,1.64
4278.00,1.64
4277.00,1.64
4276.00,1.64
4275.00,1.64
4274.00,1.64
4273.00,1.64
4272.00,1.64
4271.00,1.64
4270.00,1.64
4269.00,1.64
4268.00,1.64
4267.00,1.64
4266.00,1.63
4265.00,1.63
4264.00,1.63
4263.00,1.63
4262.00,1.63
4261.00,1.62
4260.00,1.62
4259.00,1.62
4258.00,1.62
4257.00,1.61
4256.00,1.61
4255.00,1.61
4254.00,1.61
4253.00,1.61
4252.00,1.60
4251.00,1.60
4250.00,1.60
4249.00,1.60
4248.00,1.60
4247.00,1.60
4246.00,1.60
4245.00,1.60
4244.00,1.61
4243.00,1.61
4242.00,1.61
4241.00,1.61
4240.00,1.61
4239.00,1.61
4238.00,1.62
4237.00,1.62
4236.00,1.62
4235.00,1.62
4234.00,1.63
4233.00,1.63
4232.00,1.63
4231.00,1.64
4230.00,1.64
4229.00,1.64
4228.00,1.65
4227.00,1.65
4226.00,1.65
4225.00,1.65
4224.00,1.65
4223.00,1.66
4222.00,1.66
4221.00,1.66
4220.00,1.66
4219.00,1.66
4218.00,1.66
4217.00,1.65
4216.00,1.65
4215.00,1.65
4214.00,1.65
4213.00,1.65
4212.00,1.65
4211.00,1.64
4210.00,1.64
4209.00,1.64
4208.00,1.63
4207.00,1.63
4206.00,1.63
4205.00,1.62
4204.00,1.62
4203.00,1.62
4202.00,1.61
4201.00,1.61
4200.00,1.61
4199.00,1.60
4198.00,1.60
4197.00,1.60
4196.00,1.60
4195.00,1.59
4194.00,1.59
4193.00,1.59
4192.00,1.59
4191.00,1.59
4190.00,1.59
4189.00,1.60
4188.00,1.60
4187.00,1.60
4186.00,1.60
4185.00,1.60
4184.00,1.60
4183.00,1.60
4182.00,1.61
4181.00,1.61
4180.00,1.61
4179.00,1.61
4178.00,1.61
4177.00,1.62
4176.00,1.62
4175.00,1.62
4174.00,1.62
4173.00,1.62
4172.00,1.62
4171.00,1.62
4170.00,1.62
4169.00,1.62
4168.00,1.62
4167.00,1.62
4166.00,1.62
4165.00,1.62
4164.00,1.62
4163.00,1.62
4162.00,1.61
4161.00,1.61
4160.00,1.61
4159.00,1.61
4158.00,1.61
4157.00,1.61
4156.00,1.61
4155.00,1.61
4154.00,1.61
4153.00,1.61
4152.00,1.61
4151.00,1.60
4150.00,1.60
4149.00,1.60
4148.00,1.60
4147.00,1.60
4146.00,1.60
4145.00,1.60
4144.00,1.60
4143.00,1.61
4142.00,1.61
4141.00,1.61
4140.00,1.61
4139.00,1.61
4138.00,1.62
4137.00,1.62
4136.00,1.62
4135.00,1.62
4134.00,1.63
4133.00,1.63
4132.00,1.63
4131.00,1.63
4130.00,1.63
4129.00,1.64
4128.00,1.64
4127.00,1.64
4126.00,1.64
4125.00,1.64
4124.00,1.64
4123.00,1.64
4122.00,1.64
4121.00,1.64
4120.00,1.64
4119.00,1.64
4118.00,1.64
4117.00,1.64
4116.00,1.64
4115.00,1.64
4114.00,1.64
4113.00,1.64
4112.00,1.64
4111.00,1.64
4110.00,1.64
4109.00,1.64
4108.00,1.64
4107.00,1.64
4106.00,1.63
4105.00,1.63
4104.00,1.63
4103.00,1.63
4102.00,1.63
4101.00,1.63
4100.00,1.63
4099.00,1.62
4098.00,1.62
4097.00,1.62
4096.00,1.61
4095.00,1.61
4094.00,1.61
4093.00,1.61
4092.00,1.61
4091.00,1.61
4090.00,1.60
4089.00,1.60
4088.00,1.60
4087.00,1.60
4086.00,1.60
4085.00,1.60
4084.00,1.59
4083.00,1.59
4082.00,1.58
4081.00,1.58
4080.00,1.58
4079.00,1.57
4078.00,1.57
4077.00,1.56
4076.00,1.55
4075.00,1.55
4074.00,1.54
4073.00,1.53
4072.00,1.52
4071.00,1.52
4070.00,1.51
4069.00,1.50
4068.00,1.50
4067.00,1.49
4066.00,1.48
4065.00,1.48
4064.00,1.47
4063.00,1.46
4062.00,1.45
4061.00,1.45
4060.00,1.44
4059.00,1.43
4058.00,1.43
4057.00,1.43
4056.00,1.43
4055.00,1.43
4054.00,1.43
4053.00,1.43
4052.00,1.43
4051.00,1.43
4050.00,1.44
4049.00,1.44
4048.00,1.45
4047.00,1.45
4046.00,1.46
4045.00,1.47
4044.00,1.48
4043.00,1.48
4042.00,1.49
4041.00,1.50
4040.00,1.51
4039.00,1.52
4038.00,1.53
4037.00,1.55
4036.00,1.56
4035.00,1.57
4034.00,1.58
4033.00,1.59
4032.00,1.60
4031.00,1.61
4030.00,1.62
4029.00,1.63
4028.00,1.64
4027.00,1.65
4026.00,1.65
4025.00,1.66
4024.00,1.67
4023.00,1.67
4022.00,1.68
4021.00,1.68
4020.00,1.69
4019.00,1.69
4018.00,1.70
4017.00,1.70
4016.00,1.71
4015.00,1.71
4014.00,1.71
4013.00,1.71
4012.00,1.71
4011.00,1.71
4010.00,1.71
4009.00,1.71
4008.00,1.71
4007.00,1.71
4006.00,1.71
4005.00,1.71
4004.00,1.71
4003.00,1.71
4002.00,1.71
4001.00,1.71
4000.00,1.72
