创建为新数据集,样品 808 用户 Administrator 日期 星期一, 七月 29 2019
cm-1,%T
10000.00,1.06
9999.00,1.08
9998.00,1.09
9997.00,1.11
9996.00,1.12
9995.00,1.13
9994.00,1.15
9993.00,1.16
9992.00,1.17
9991.00,1.18
9990.00,1.19
9989.00,1.19
9988.00,1.20
9987.00,1.21
9986.00,1.21
9985.00,1.22
9984.00,1.22
9983.00,1.22
9982.00,1.22
9981.00,1.23
9980.00,1.23
9979.00,1.23
9978.00,1.23
9977.00,1.23
9976.00,1.23
9975.00,1.23
9974.00,1.24
9973.00,1.24
9972.00,1.24
9971.00,1.25
9970.00,1.25
9969.00,1.26
9968.00,1.26
9967.00,1.27
9966.00,1.28
9965.00,1.29
9964.00,1.30
9963.00,1.31
9962.00,1.32
9961.00,1.33
9960.00,1.34
9959.00,1.35
9958.00,1.36
9957.00,1.37
9956.00,1.39
9955.00,1.40
9954.00,1.41
9953.00,1.42
9952.00,1.43
9951.00,1.44
9950.00,1.45
9949.00,1.46
9948.00,1.47
9947.00,1.48
9946.00,1.48
9945.00,1.49
9944.00,1.50
9943.00,1.50
9942.00,1.51
9941.00,1.52
9940.00,1.52
9939.00,1.53
9938.00,1.53
9937.00,1.53
9936.00,1.54
9935.00,1.54
9934.00,1.54
9933.00,1.53
9932.00,1.53
9931.00,1.53
9930.00,1.53
9929.00,1.52
9928.00,1.52
9927.00,1.51
9926.00,1.51
9925.00,1.50
9924.00,1.50
9923.00,1.49
9922.00,1.48
9921.00,1.47
9920.00,1.46
9919.00,1.45
9918.00,1.44
9917.00,1.43
9916.00,1.42
9915.00,1.41
9914.00,1.40
9913.00,1.39
9912.00,1.38
9911.00,1.36
9910.00,1.35
9909.00,1.34
9908.00,1.33
9907.00,1.32
9906.00,1.31
9905.00,1.30
9904.00,1.29
9903.00,1.28
9902.00,1.26
9901.00,1.25
9900.00,1.24
9899.00,1.23
9898.00,1.23
9897.00,1.22
9896.00,1.21
9895.00,1.20
9894.00,1.20
9893.00,1.19
9892.00,1.19
9891.00,1.19
9890.00,1.19
9889.00,1.19
9888.00,1.19
9887.00,1.19
9886.00,1.19
9885.00,1.19
9884.00,1.19
9883.00,1.20
9882.00,1.20
9881.00,1.20
9880.00,1.21
9879.00,1.21
9878.00,1.22
9877.00,1.22
9876.00,1.23
9875.00,1.23
9874.00,1.24
9873.00,1.24
9872.00,1.25
9871.00,1.25
9870.00,1.26
9869.00,1.26
9868.00,1.26
9867.00,1.26
9866.00,1.26
9865.00,1.26
9864.00,1.26
9863.00,1.25
9862.00,1.25
9861.00,1.24
9860.00,1.24
9859.00,1.23
9858.00,1.22
9857.00,1.21
9856.00,1.21
9855.00,1.20
9854.00,1.19
9853.00,1.19
9852.00,1.18
9851.00,1.18
9850.00,1.17
9849.00,1.17
9848.00,1.17
9847.00,1.16
9846.00,1.16
9845.00,1.16
9844.00,1.15
9843.00,1.15
9842.00,1.15
9841.00,1.15
9840.00,1.15
9839.00,1.15
9838.00,1.15
9837.00,1.16
9836.00,1.16
9835.00,1.16
9834.00,1.17
9833.00,1.17
9832.00,1.18
9831.00,1.19
9830.00,1.19
9829.00,1.20
9828.00,1.21
9827.00,1.21
9826.00,1.22
9825.00,1.22
9824.00,1.23
9823.00,1.23
9822.00,1.23
9821.00,1.24
9820.00,1.24
9819.00,1.24
9818.00,1.25
9817.00,1.25
9816.00,1.26
9815.00,1.26
9814.00,1.27
9813.00,1.27
9812.00,1.28
9811.00,1.29
9810.00,1.29
9809.00,1.30
9808.00,1.31
9807.00,1.31
9806.00,1.32
9805.00,1.33
9804.00,1.33
9803.00,1.34
9802.00,1.34
9801.00,1.34
9800.00,1.35
9799.00,1.35
9798.00,1.36
9797.00,1.36
9796.00,1.37
9795.00,1.37
9794.00,1.37
9793.00,1.38
9792.00,1.38
9791.00,1.38
9790.00,1.38
9789.00,1.38
9788.00,1.38
9787.00,1.38
9786.00,1.38
9785.00,1.38
9784.00,1.38
9783.00,1.38
9782.00,1.37
9781.00,1.37
9780.00,1.37
9779.00,1.37
9778.00,1.36
9777.00,1.36
9776.00,1.36
9775.00,1.35
9774.00,1.35
9773.00,1.35
9772.00,1.34
9771.00,1.34
9770.00,1.34
9769.00,1.34
9768.00,1.34
9767.00,1.34
9766.00,1.34
9765.00,1.34
9764.00,1.34
9763.00,1.34
9762.00,1.34
9761.00,1.34
9760.00,1.35
9759.00,1.35
9758.00,1.35
9757.00,1.35
9756.00,1.35
9755.00,1.36
9754.00,1.36
9753.00,1.36
9752.00,1.36
9751.00,1.36
9750.00,1.36
9749.00,1.36
9748.00,1.37
9747.00,1.37
9746.00,1.37
9745.00,1.37
9744.00,1.37
9743.00,1.37
9742.00,1.37
9741.00,1.37
9740.00,1.36
9739.00,1.36
9738.00,1.36
9737.00,1.36
9736.00,1.35
9735.00,1.35
9734.00,1.35
9733.00,1.34
9732.00,1.34
9731.00,1.34
9730.00,1.33
9729.00,1.33
9728.00,1.33
9727.00,1.32
9726.00,1.32
9725.00,1.32
9724.00,1.32
9723.00,1.32
9722.00,1.32
9721.00,1.32
9720.00,1.32
9719.00,1.32
9718.00,1.32
9717.00,1.32
9716.00,1.32
9715.00,1.32
9714.00,1.32
9713.00,1.32
9712.00,1.32
9711.00,1.31
9710.00,1.31
9709.00,1.31
9708.00,1.30
9707.00,1.30
9706.00,1.30
9705.00,1.29
9704.00,1.29
9703.00,1.28
9702.00,1.27
9701.00,1.27
9700.00,1.26
9699.00,1.25
9698.00,1.25
9697.00,1.24
9696.00,1.23
9695.00,1.22
9694.00,1.21
9693.00,1.20
9692.00,1.20
9691.00,1.19
9690.00,1.18
9689.00,1.17
9688.00,1.16
9687.00,1.16
9686.00,1.15
9685.00,1.15
9684.00,1.14
9683.00,1.14
9682.00,1.13
9681.00,1.13
9680.00,1.13
9679.00,1.13
9678.00,1.13
9677.00,1.13
9676.00,1.13
9675.00,1.13
9674.00,1.14
9673.00,1.14
9672.00,1.14
9671.00,1.14
9670.00,1.14
9669.00,1.15
9668.00,1.15
9667.00,1.15
9666.00,1.15
9665.00,1.15
9664.00,1.15
9663.00,1.15
9662.00,1.16
9661.00,1.16
9660.00,1.16
9659.00,1.17
9658.00,1.17
9657.00,1.17
9656.00,1.18
9655.00,1.18
9654.00,1.18
9653.00,1.19
9652.00,1.19
9651.00,1.19
9650.00,1.19
9649.00,1.20
9648.00,1.20
9647.00,1.20
9646.00,1.21
9645.00,1.21
9644.00,1.21
9643.00,1.22
9642.00,1.22
9641.00,1.23
9640.00,1.23
9639.00,1.23
9638.00,1.24
9637.00,1.24
9636.00,1.24
9635.00,1.25
9634.00,1.25
9633.00,1.25
9632.00,1.25
9631.00,1.26
9630.00,1.26
9629.00,1.26
9628.00,1.27
9627.00,1.27
9626.00,1.27
9625.00,1.27
9624.00,1.28
9623.00,1.28
9622.00,1.28
9621.00,1.28
9620.00,1.29
9619.00,1.29
9618.00,1.29
9617.00,1.29
9616.00,1.29
9615.00,1.30
9614.00,1.30
9613.00,1.30
9612.00,1.31
9611.00,1.31
9610.00,1.31
9609.00,1.32
9608.00,1.32
9607.00,1.32
9606.00,1.33
9605.00,1.33
9604.00,1.33
9603.00,1.33
9602.00,1.33
9601.00,1.33
9600.00,1.32
9599.00,1.32
9598.00,1.32
9597.00,1.32
9596.00,1.32
9595.00,1.31
9594.00,1.31
9593.00,1.31
9592.00,1.31
9591.00,1.30
9590.00,1.30
9589.00,1.29
9588.00,1.29
9587.00,1.28
9586.00,1.28
9585.00,1.27
9584.00,1.26
9583.00,1.26
9582.00,1.25
9581.00,1.24
9580.00,1.24
9579.00,1.23
9578.00,1.23
9577.00,1.22
9576.00,1.22
9575.00,1.22
9574.00,1.21
9573.00,1.21
9572.00,1.21
9571.00,1.20
9570.00,1.20
9569.00,1.20
9568.00,1.19
9567.00,1.19
9566.00,1.19
9565.00,1.19
9564.00,1.19
9563.00,1.18
9562.00,1.18
9561.00,1.18
9560.00,1.18
9559.00,1.18
9558.00,1.18
9557.00,1.17
9556.00,1.17
9555.00,1.17
9554.00,1.17
9553.00,1.17
9552.00,1.17
9551.00,1.17
9550.00,1.17
9549.00,1.18
9548.00,1.18
9547.00,1.18
9546.00,1.18
9545.00,1.18
9544.00,1.19
9543.00,1.19
9542.00,1.19
9541.00,1.19
9540.00,1.19
9539.00,1.20
9538.00,1.20
9537.00,1.20
9536.00,1.21
9535.00,1.21
9534.00,1.22
9533.00,1.22
9532.00,1.23
9531.00,1.23
9530.00,1.24
9529.00,1.25
9528.00,1.25
9527.00,1.26
9526.00,1.27
9525.00,1.27
9524.00,1.28
9523.00,1.28
9522.00,1.29
9521.00,1.29
9520.00,1.29
9519.00,1.30
9518.00,1.30
9517.00,1.31
9516.00,1.32
9515.00,1.32
9514.00,1.33
9513.00,1.33
9512.00,1.34
9511.00,1.35
9510.00,1.35
9509.00,1.36
9508.00,1.37
9507.00,1.37
9506.00,1.38
9505.00,1.38
9504.00,1.38
9503.00,1.39
9502.00,1.39
9501.00,1.39
9500.00,1.40
9499.00,1.40
9498.00,1.41
9497.00,1.41
9496.00,1.41
9495.00,1.42
9494.00,1.42
9493.00,1.42
9492.00,1.42
9491.00,1.42
9490.00,1.42
9489.00,1.42
9488.00,1.42
9487.00,1.41
9486.00,1.41
9485.00,1.40
9484.00,1.40
9483.00,1.39
9482.00,1.38
9481.00,1.37
9480.00,1.37
9479.00,1.36
9478.00,1.35
9477.00,1.34
9476.00,1.33
9475.00,1.32
9474.00,1.31
9473.00,1.30
9472.00,1.29
9471.00,1.28
9470.00,1.27
9469.00,1.25
9468.00,1.24
9467.00,1.23
9466.00,1.22
9465.00,1.21
9464.00,1.20
9463.00,1.19
9462.00,1.19
9461.00,1.18
9460.00,1.17
9459.00,1.17
9458.00,1.16
9457.00,1.16
9456.00,1.15
9455.00,1.15
9454.00,1.14
9453.00,1.14
9452.00,1.13
9451.00,1.13
9450.00,1.13
9449.00,1.12
9448.00,1.12
9447.00,1.12
9446.00,1.12
9445.00,1.12
9444.00,1.12
9443.00,1.12
9442.00,1.12
9441.00,1.12
9440.00,1.12
9439.00,1.11
9438.00,1.11
9437.00,1.11
9436.00,1.11
9435.00,1.11
9434.00,1.10
9433.00,1.10
9432.00,1.10
9431.00,1.10
9430.00,1.10
9429.00,1.10
9428.00,1.10
9427.00,1.10
9426.00,1.11
9425.00,1.11
9424.00,1.11
9423.00,1.12
9422.00,1.12
9421.00,1.13
9420.00,1.13
9419.00,1.14
9418.00,1.14
9417.00,1.15
9416.00,1.15
9415.00,1.16
9414.00,1.16
9413.00,1.17
9412.00,1.18
9411.00,1.19
9410.00,1.19
9409.00,1.20
9408.00,1.21
9407.00,1.22
9406.00,1.23
9405.00,1.23
9404.00,1.24
9403.00,1.25
9402.00,1.25
9401.00,1.26
9400.00,1.26
9399.00,1.27
9398.00,1.27
9397.00,1.27
9396.00,1.27
9395.00,1.27
9394.00,1.27
9393.00,1.27
9392.00,1.27
9391.00,1.27
9390.00,1.27
9389.00,1.27
9388.00,1.27
9387.00,1.27
9386.00,1.27
9385.00,1.27
9384.00,1.27
9383.00,1.26
9382.00,1.26
9381.00,1.26
9380.00,1.25
9379.00,1.25
9378.00,1.24
9377.00,1.24
9376.00,1.23
9375.00,1.23
9374.00,1.23
9373.00,1.22
9372.00,1.22
9371.00,1.21
9370.00,1.21
9369.00,1.21
9368.00,1.21
9367.00,1.20
9366.00,1.20
9365.00,1.20
9364.00,1.19
9363.00,1.19
9362.00,1.18
9361.00,1.18
9360.00,1.18
9359.00,1.17
9358.00,1.17
9357.00,1.16
9356.00,1.16
9355.00,1.16
9354.00,1.15
9353.00,1.15
9352.00,1.15
9351.00,1.15
9350.00,1.15
9349.00,1.15
9348.00,1.15
9347.00,1.15
9346.00,1.14
9345.00,1.14
9344.00,1.14
9343.00,1.14
9342.00,1.14
9341.00,1.15
9340.00,1.15
9339.00,1.15
9338.00,1.15
9337.00,1.15
9336.00,1.15
9335.00,1.15
9334.00,1.16
9333.00,1.16
9332.00,1.16
9331.00,1.17
9330.00,1.17
9329.00,1.18
9328.00,1.18
9327.00,1.19
9326.00,1.19
9325.00,1.19
9324.00,1.20
9323.00,1.20
9322.00,1.20
9321.00,1.21
9320.00,1.21
9319.00,1.21
9318.00,1.21
9317.00,1.22
9316.00,1.22
9315.00,1.23
9314.00,1.23
9313.00,1.23
9312.00,1.24
9311.00,1.24
9310.00,1.25
9309.00,1.26
9308.00,1.26
9307.00,1.27
9306.00,1.27
9305.00,1.28
9304.00,1.28
9303.00,1.28
9302.00,1.29
9301.00,1.29
9300.00,1.29
9299.00,1.30
9298.00,1.30
9297.00,1.30
9296.00,1.31
9295.00,1.31
9294.00,1.32
9293.00,1.32
9292.00,1.32
9291.00,1.33
9290.00,1.33
9289.00,1.33
9288.00,1.33
9287.00,1.33
9286.00,1.33
9285.00,1.32
9284.00,1.32
9283.00,1.32
9282.00,1.31
9281.00,1.31
9280.00,1.30
9279.00,1.30
9278.00,1.29
9277.00,1.29
9276.00,1.29
9275.00,1.28
9274.00,1.28
9273.00,1.28
9272.00,1.27
9271.00,1.27
9270.00,1.27
9269.00,1.27
9268.00,1.27
9267.00,1.26
9266.00,1.26
9265.00,1.26
9264.00,1.26
9263.00,1.25
9262.00,1.25
9261.00,1.25
9260.00,1.25
9259.00,1.25
9258.00,1.25
9257.00,1.25
9256.00,1.24
9255.00,1.24
9254.00,1.24
9253.00,1.24
9252.00,1.24
9251.00,1.24
9250.00,1.24
9249.00,1.24
9248.00,1.23
9247.00,1.23
9246.00,1.23
9245.00,1.22
9244.00,1.22
9243.00,1.21
9242.00,1.21
9241.00,1.20
9240.00,1.20
9239.00,1.20
9238.00,1.19
9237.00,1.19
9236.00,1.19
9235.00,1.19
9234.00,1.19
9233.00,1.20
9232.00,1.20
9231.00,1.20
9230.00,1.21
9229.00,1.22
9228.00,1.22
9227.00,1.23
9226.00,1.24
9225.00,1.24
9224.00,1.25
9223.00,1.26
9222.00,1.26
9221.00,1.27
9220.00,1.28
9219.00,1.29
9218.00,1.30
9217.00,1.31
9216.00,1.32
9215.00,1.32
9214.00,1.33
9213.00,1.34
9212.00,1.34
9211.00,1.35
9210.00,1.35
9209.00,1.36
9208.00,1.36
9207.00,1.36
9206.00,1.35
9205.00,1.35
9204.00,1.35
9203.00,1.34
9202.00,1.34
9201.00,1.33
9200.00,1.32
9199.00,1.32
9198.00,1.31
9197.00,1.30
9196.00,1.30
9195.00,1.29
9194.00,1.28
9193.00,1.28
9192.00,1.27
9191.00,1.27
9190.00,1.26
9189.00,1.25
9188.00,1.24
9187.00,1.24
9186.00,1.23
9185.00,1.23
9184.00,1.22
9183.00,1.22
9182.00,1.22
9181.00,1.21
9180.00,1.21
9179.00,1.22
9178.00,1.22
9177.00,1.22
9176.00,1.22
9175.00,1.22
9174.00,1.23
9173.00,1.23
9172.00,1.23
9171.00,1.24
9170.00,1.24
9169.00,1.24
9168.00,1.24
9167.00,1.24
9166.00,1.25
9165.00,1.25
9164.00,1.25
9163.00,1.25
9162.00,1.25
9161.00,1.25
9160.00,1.26
9159.00,1.26
9158.00,1.26
9157.00,1.26
9156.00,1.26
9155.00,1.26
9154.00,1.26
9153.00,1.26
9152.00,1.26
9151.00,1.26
9150.00,1.26
9149.00,1.26
9148.00,1.26
9147.00,1.26
9146.00,1.26
9145.00,1.26
9144.00,1.26
9143.00,1.26
9142.00,1.26
9141.00,1.26
9140.00,1.26
9139.00,1.26
9138.00,1.26
9137.00,1.27
9136.00,1.27
9135.00,1.27
9134.00,1.27
9133.00,1.27
9132.00,1.27
9131.00,1.28
9130.00,1.28
9129.00,1.28
9128.00,1.28
9127.00,1.28
9126.00,1.28
9125.00,1.28
9124.00,1.28
9123.00,1.28
9122.00,1.28
9121.00,1.28
9120.00,1.28
9119.00,1.29
9118.00,1.29
9117.00,1.29
9116.00,1.29
9115.00,1.29
9114.00,1.30
9113.00,1.30
9112.00,1.30
9111.00,1.30
9110.00,1.30
9109.00,1.30
9108.00,1.30
9107.00,1.30
9106.00,1.30
9105.00,1.30
9104.00,1.30
9103.00,1.30
9102.00,1.30
9101.00,1.29
9100.00,1.29
9099.00,1.29
9098.00,1.29
9097.00,1.29
9096.00,1.28
9095.00,1.28
9094.00,1.27
9093.00,1.27
9092.00,1.26
9091.00,1.26
9090.00,1.25
9089.00,1.25
9088.00,1.24
9087.00,1.24
9086.00,1.23
9085.00,1.23
9084.00,1.22
9083.00,1.22
9082.00,1.21
9081.00,1.21
9080.00,1.21
9079.00,1.20
9078.00,1.20
9077.00,1.20
9076.00,1.20
9075.00,1.20
9074.00,1.20
9073.00,1.20
9072.00,1.20
9071.00,1.20
9070.00,1.21
9069.00,1.21
9068.00,1.21
9067.00,1.22
9066.00,1.22
9065.00,1.23
9064.00,1.24
9063.00,1.24
9062.00,1.25
9061.00,1.26
9060.00,1.26
9059.00,1.27
9058.00,1.27
9057.00,1.28
9056.00,1.29
9055.00,1.29
9054.00,1.30
9053.00,1.30
9052.00,1.31
9051.00,1.31
9050.00,1.32
9049.00,1.32
9048.00,1.32
9047.00,1.33
9046.00,1.33
9045.00,1.33
9044.00,1.33
9043.00,1.33
9042.00,1.33
9041.00,1.32
9040.00,1.32
9039.00,1.32
9038.00,1.31
9037.00,1.31
9036.00,1.30
9035.00,1.30
9034.00,1.29
9033.00,1.29
9032.00,1.29
9031.00,1.28
9030.00,1.28
9029.00,1.28
9028.00,1.27
9027.00,1.27
9026.00,1.27
9025.00,1.27
9024.00,1.27
9023.00,1.27
9022.00,1.27
9021.00,1.27
9020.00,1.27
9019.00,1.27
9018.00,1.27
9017.00,1.27
9016.00,1.28
9015.00,1.28
9014.00,1.29
9013.00,1.29
9012.00,1.29
9011.00,1.30
9010.00,1.30
9009.00,1.30
9008.00,1.30
9007.00,1.31
9006.00,1.31
9005.00,1.31
9004.00,1.31
9003.00,1.31
9002.00,1.30
9001.00,1.30
9000.00,1.30
8999.00,1.30
8998.00,1.30
8997.00,1.29
8996.00,1.29
8995.00,1.28
8994.00,1.28
8993.00,1.27
8992.00,1.27
8991.00,1.26
8990.00,1.26
8989.00,1.25
8988.00,1.25
8987.00,1.24
8986.00,1.24
8985.00,1.24
8984.00,1.23
8983.00,1.23
8982.00,1.23
8981.00,1.22
8980.00,1.22
8979.00,1.22
8978.00,1.22
8977.00,1.22
8976.00,1.22
8975.00,1.22
8974.00,1.21
8973.00,1.21
8972.00,1.22
8971.00,1.22
8970.00,1.22
8969.00,1.22
8968.00,1.22
8967.00,1.22
8966.00,1.22
8965.00,1.22
8964.00,1.22
8963.00,1.22
8962.00,1.22
8961.00,1.22
8960.00,1.22
8959.00,1.22
8958.00,1.21
8957.00,1.21
8956.00,1.21
8955.00,1.21
8954.00,1.21
8953.00,1.21
8952.00,1.22
8951.00,1.22
8950.00,1.22
8949.00,1.22
8948.00,1.21
8947.00,1.21
8946.00,1.21
8945.00,1.21
8944.00,1.21
8943.00,1.21
8942.00,1.21
8941.00,1.21
8940.00,1.21
8939.00,1.21
8938.00,1.22
8937.00,1.22
8936.00,1.22
8935.00,1.22
8934.00,1.23
8933.00,1.23
8932.00,1.23
8931.00,1.23
8930.00,1.23
8929.00,1.23
8928.00,1.23
8927.00,1.23
8926.00,1.23
8925.00,1.23
8924.00,1.23
8923.00,1.23
8922.00,1.23
8921.00,1.23
8920.00,1.23
8919.00,1.23
8918.00,1.23
8917.00,1.23
8916.00,1.23
8915.00,1.23
8914.00,1.23
8913.00,1.23
8912.00,1.23
8911.00,1.23
8910.00,1.23
8909.00,1.22
8908.00,1.22
8907.00,1.22
8906.00,1.22
8905.00,1.22
8904.00,1.22
8903.00,1.22
8902.00,1.21
8901.00,1.21
8900.00,1.21
8899.00,1.21
8898.00,1.21
8897.00,1.21
8896.00,1.21
8895.00,1.21
8894.00,1.20
8893.00,1.20
8892.00,1.20
8891.00,1.20
8890.00,1.20
8889.00,1.19
8888.00,1.19
8887.00,1.19
8886.00,1.19
8885.00,1.18
8884.00,1.18
8883.00,1.18
8882.00,1.18
8881.00,1.17
8880.00,1.17
8879.00,1.17
8878.00,1.17
8877.00,1.17
8876.00,1.17
8875.00,1.17
8874.00,1.17
8873.00,1.17
8872.00,1.17
8871.00,1.17
8870.00,1.17
8869.00,1.18
8868.00,1.18
8867.00,1.18
8866.00,1.18
8865.00,1.18
8864.00,1.19
8863.00,1.19
8862.00,1.19
8861.00,1.19
8860.00,1.19
8859.00,1.19
8858.00,1.19
8857.00,1.20
8856.00,1.20
8855.00,1.20
8854.00,1.20
8853.00,1.20
8852.00,1.21
8851.00,1.21
8850.00,1.21
8849.00,1.21
8848.00,1.21
8847.00,1.21
8846.00,1.21
8845.00,1.21
8844.00,1.22
8843.00,1.22
8842.00,1.22
8841.00,1.22
8840.00,1.22
8839.00,1.22
8838.00,1.22
8837.00,1.22
8836.00,1.22
8835.00,1.22
8834.00,1.23
8833.00,1.23
8832.00,1.24
8831.00,1.24
8830.00,1.24
8829.00,1.25
8828.00,1.25
8827.00,1.26
8826.00,1.26
8825.00,1.26
8824.00,1.27
8823.00,1.27
8822.00,1.27
8821.00,1.27
8820.00,1.28
8819.00,1.28
8818.00,1.28
8817.00,1.28
8816.00,1.28
8815.00,1.29
8814.00,1.29
8813.00,1.29
8812.00,1.29
8811.00,1.29
8810.00,1.29
8809.00,1.29
8808.00,1.29
8807.00,1.28
8806.00,1.28
8805.00,1.28
8804.00,1.28
8803.00,1.27
8802.00,1.27
8801.00,1.27
8800.00,1.26
8799.00,1.26
8798.00,1.26
8797.00,1.26
8796.00,1.25
8795.00,1.25
8794.00,1.25
8793.00,1.25
8792.00,1.25
8791.00,1.25
8790.00,1.25
8789.00,1.25
8788.00,1.25
8787.00,1.26
8786.00,1.26
8785.00,1.26
8784.00,1.26
8783.00,1.27
8782.00,1.27
8781.00,1.28
8780.00,1.28
8779.00,1.28
8778.00,1.29
8777.00,1.29
8776.00,1.29
8775.00,1.30
8774.00,1.30
8773.00,1.30
8772.00,1.30
8771.00,1.30
8770.00,1.30
8769.00,1.30
8768.00,1.30
8767.00,1.30
8766.00,1.30
8765.00,1.29
8764.00,1.29
8763.00,1.29
8762.00,1.28
8761.00,1.28
8760.00,1.27
8759.00,1.27
8758.00,1.26
8757.00,1.25
8756.00,1.25
8755.00,1.24
8754.00,1.23
8753.00,1.22
8752.00,1.22
8751.00,1.21
8750.00,1.20
8749.00,1.19
8748.00,1.19
8747.00,1.18
8746.00,1.18
8745.00,1.17
8744.00,1.17
8743.00,1.16
8742.00,1.16
8741.00,1.16
8740.00,1.15
8739.00,1.15
8738.00,1.15
8737.00,1.15
8736.00,1.15
8735.00,1.15
8734.00,1.15
8733.00,1.15
8732.00,1.15
8731.00,1.15
8730.00,1.15
8729.00,1.15
8728.00,1.16
8727.00,1.16
8726.00,1.17
8725.00,1.17
8724.00,1.18
8723.00,1.18
8722.00,1.19
8721.00,1.19
8720.00,1.20
8719.00,1.21
8718.00,1.21
8717.00,1.22
8716.00,1.22
8715.00,1.23
8714.00,1.23
8713.00,1.24
8712.00,1.25
8711.00,1.25
8710.00,1.26
8709.00,1.26
8708.00,1.27
8707.00,1.27
8706.00,1.27
8705.00,1.28
8704.00,1.28
8703.00,1.28
8702.00,1.28
8701.00,1.28
8700.00,1.29
8699.00,1.29
8698.00,1.29
8697.00,1.29
8696.00,1.29
8695.00,1.29
8694.00,1.29
8693.00,1.29
8692.00,1.29
8691.00,1.29
8690.00,1.29
8689.00,1.29
8688.00,1.29
8687.00,1.28
8686.00,1.28
8685.00,1.28
8684.00,1.28
8683.00,1.28
8682.00,1.28
8681.00,1.28
8680.00,1.28
8679.00,1.28
8678.00,1.28
8677.00,1.28
8676.00,1.28
8675.00,1.28
8674.00,1.28
8673.00,1.28
8672.00,1.28
8671.00,1.28
8670.00,1.29
8669.00,1.29
8668.00,1.29
8667.00,1.29
8666.00,1.29
8665.00,1.29
8664.00,1.29
8663.00,1.29
8662.00,1.29
8661.00,1.30
8660.00,1.30
8659.00,1.30
8658.00,1.30
8657.00,1.30
8656.00,1.30
8655.00,1.31
8654.00,1.31
8653.00,1.31
8652.00,1.31
8651.00,1.31
8650.00,1.31
8649.00,1.31
8648.00,1.31
8647.00,1.31
8646.00,1.31
8645.00,1.31
8644.00,1.31
8643.00,1.30
8642.00,1.30
8641.00,1.30
8640.00,1.30
8639.00,1.29
8638.00,1.29
8637.00,1.29
8636.00,1.29
8635.00,1.28
8634.00,1.28
8633.00,1.28
8632.00,1.28
8631.00,1.27
8630.00,1.27
8629.00,1.27
8628.00,1.26
8627.00,1.26
8626.00,1.26
8625.00,1.25
8624.00,1.25
8623.00,1.25
8622.00,1.24
8621.00,1.24
8620.00,1.24
8619.00,1.24
8618.00,1.24
8617.00,1.24
8616.00,1.24
8615.00,1.24
8614.00,1.23
8613.00,1.23
8612.00,1.23
8611.00,1.23
8610.00,1.24
8609.00,1.24
8608.00,1.24
8607.00,1.24
8606.00,1.24
8605.00,1.24
8604.00,1.24
8603.00,1.24
8602.00,1.24
8601.00,1.24
8600.00,1.24
8599.00,1.24
8598.00,1.24
8597.00,1.24
8596.00,1.24
8595.00,1.25
8594.00,1.25
8593.00,1.25
8592.00,1.25
8591.00,1.25
8590.00,1.25
8589.00,1.26
8588.00,1.26
8587.00,1.26
8586.00,1.26
8585.00,1.26
8584.00,1.26
8583.00,1.26
8582.00,1.26
8581.00,1.26
8580.00,1.27
8579.00,1.27
8578.00,1.27
8577.00,1.27
8576.00,1.27
8575.00,1.27
8574.00,1.27
8573.00,1.26
8572.00,1.26
8571.00,1.26
8570.00,1.26
8569.00,1.26
8568.00,1.26
8567.00,1.25
8566.00,1.25
8565.00,1.25
8564.00,1.25
8563.00,1.24
8562.00,1.24
8561.00,1.24
8560.00,1.24
8559.00,1.24
8558.00,1.24
8557.00,1.24
8556.00,1.24
8555.00,1.23
8554.00,1.23
8553.00,1.24
8552.00,1.24
8551.00,1.24
8550.00,1.24
8549.00,1.24
8548.00,1.24
8547.00,1.25
8546.00,1.25
8545.00,1.26
8544.00,1.26
8543.00,1.27
8542.00,1.27
8541.00,1.28
8540.00,1.29
8539.00,1.29
8538.00,1.30
8537.00,1.30
8536.00,1.31
8535.00,1.32
8534.00,1.32
8533.00,1.33
8532.00,1.33
8531.00,1.34
8530.00,1.35
8529.00,1.35
8528.00,1.36
8527.00,1.36
8526.00,1.36
8525.00,1.37
8524.00,1.37
8523.00,1.37
8522.00,1.37
8521.00,1.37
8520.00,1.38
8519.00,1.38
8518.00,1.38
8517.00,1.38
8516.00,1.38
8515.00,1.38
8514.00,1.38
8513.00,1.38
8512.00,1.37
8511.00,1.37
8510.00,1.37
8509.00,1.37
8508.00,1.37
8507.00,1.37
8506.00,1.37
8505.00,1.36
8504.00,1.36
8503.00,1.36
8502.00,1.36
8501.00,1.36
8500.00,1.36
8499.00,1.36
8498.00,1.35
8497.00,1.35
8496.00,1.35
8495.00,1.35
8494.00,1.35
8493.00,1.35
8492.00,1.34
8491.00,1.34
8490.00,1.34
8489.00,1.33
8488.00,1.33
8487.00,1.33
8486.00,1.32
8485.00,1.32
8484.00,1.31
8483.00,1.31
8482.00,1.31
8481.00,1.30
8480.00,1.30
8479.00,1.29
8478.00,1.29
8477.00,1.28
8476.00,1.28
8475.00,1.27
8474.00,1.27
8473.00,1.27
8472.00,1.26
8471.00,1.26
8470.00,1.26
8469.00,1.26
8468.00,1.25
8467.00,1.25
8466.00,1.25
8465.00,1.25
8464.00,1.25
8463.00,1.25
8462.00,1.25
8461.00,1.25
8460.00,1.25
8459.00,1.25
8458.00,1.25
8457.00,1.25
8456.00,1.25
8455.00,1.25
8454.00,1.25
8453.00,1.25
8452.00,1.25
8451.00,1.25
8450.00,1.25
8449.00,1.25
8448.00,1.25
8447.00,1.25
8446.00,1.25
8445.00,1.24
8444.00,1.24
8443.00,1.24
8442.00,1.24
8441.00,1.24
8440.00,1.23
8439.00,1.23
8438.00,1.23
8437.00,1.23
8436.00,1.23
8435.00,1.22
8434.00,1.22
8433.00,1.22
8432.00,1.22
8431.00,1.21
8430.00,1.21
8429.00,1.21
8428.00,1.21
8427.00,1.21
8426.00,1.21
8425.00,1.21
8424.00,1.21
8423.00,1.21
8422.00,1.21
8421.00,1.21
8420.00,1.21
8419.00,1.21
8418.00,1.20
8417.00,1.20
8416.00,1.20
8415.00,1.20
8414.00,1.20
8413.00,1.20
8412.00,1.20
8411.00,1.20
8410.00,1.20
8409.00,1.20
8408.00,1.20
8407.00,1.20
8406.00,1.20
8405.00,1.20
8404.00,1.20
8403.00,1.20
8402.00,1.20
8401.00,1.20
8400.00,1.20
8399.00,1.20
8398.00,1.20
8397.00,1.19
8396.00,1.19
8395.00,1.19
8394.00,1.19
8393.00,1.19
8392.00,1.19
8391.00,1.19
8390.00,1.19
8389.00,1.19
8388.00,1.19
8387.00,1.19
8386.00,1.19
8385.00,1.19
8384.00,1.19
8383.00,1.20
8382.00,1.20
8381.00,1.20
8380.00,1.20
8379.00,1.20
8378.00,1.20
8377.00,1.20
8376.00,1.20
8375.00,1.20
8374.00,1.20
8373.00,1.20
8372.00,1.20
8371.00,1.20
8370.00,1.20
8369.00,1.20
8368.00,1.20
8367.00,1.20
8366.00,1.20
8365.00,1.20
8364.00,1.20
8363.00,1.20
8362.00,1.20
8361.00,1.20
8360.00,1.21
8359.00,1.21
8358.00,1.21
8357.00,1.21
8356.00,1.21
8355.00,1.21
8354.00,1.21
8353.00,1.21
8352.00,1.21
8351.00,1.21
8350.00,1.21
8349.00,1.21
8348.00,1.22
8347.00,1.22
8346.00,1.22
8345.00,1.22
8344.00,1.22
8343.00,1.22
8342.00,1.22
8341.00,1.23
8340.00,1.23
8339.00,1.23
8338.00,1.23
8337.00,1.24
8336.00,1.24
8335.00,1.24
8334.00,1.24
8333.00,1.24
8332.00,1.23
8331.00,1.23
8330.00,1.23
8329.00,1.23
8328.00,1.23
8327.00,1.23
8326.00,1.23
8325.00,1.23
8324.00,1.23
8323.00,1.23
8322.00,1.23
8321.00,1.23
8320.00,1.23
8319.00,1.23
8318.00,1.23
8317.00,1.23
8316.00,1.23
8315.00,1.23
8314.00,1.22
8313.00,1.22
8312.00,1.22
8311.00,1.22
8310.00,1.22
8309.00,1.22
8308.00,1.22
8307.00,1.22
8306.00,1.22
8305.00,1.22
8304.00,1.22
8303.00,1.22
8302.00,1.22
8301.00,1.23
8300.00,1.23
8299.00,1.23
8298.00,1.23
8297.00,1.23
8296.00,1.23
8295.00,1.23
8294.00,1.23
8293.00,1.23
8292.00,1.24
8291.00,1.24
8290.00,1.24
8289.00,1.24
8288.00,1.24
8287.00,1.25
8286.00,1.25
8285.00,1.25
8284.00,1.25
8283.00,1.25
8282.00,1.26
8281.00,1.26
8280.00,1.26
8279.00,1.26
8278.00,1.26
8277.00,1.27
8276.00,1.27
8275.00,1.27
8274.00,1.27
8273.00,1.27
8272.00,1.28
8271.00,1.28
8270.00,1.28
8269.00,1.28
8268.00,1.28
8267.00,1.28
8266.00,1.27
8265.00,1.27
8264.00,1.27
8263.00,1.27
8262.00,1.27
8261.00,1.26
8260.00,1.26
8259.00,1.26
8258.00,1.26
8257.00,1.26
8256.00,1.25
8255.00,1.25
8254.00,1.25
8253.00,1.25
8252.00,1.25
8251.00,1.25
8250.00,1.24
8249.00,1.24
8248.00,1.24
8247.00,1.24
8246.00,1.24
8245.00,1.23
8244.00,1.23
8243.00,1.23
8242.00,1.23
8241.00,1.23
8240.00,1.23
8239.00,1.23
8238.00,1.22
8237.00,1.22
8236.00,1.22
8235.00,1.22
8234.00,1.22
8233.00,1.22
8232.00,1.21
8231.00,1.21
8230.00,1.21
8229.00,1.20
8228.00,1.20
8227.00,1.20
8226.00,1.20
8225.00,1.19
8224.00,1.19
8223.00,1.19
8222.00,1.19
8221.00,1.19
8220.00,1.19
8219.00,1.19
8218.00,1.19
8217.00,1.19
8216.00,1.19
8215.00,1.19
8214.00,1.20
8213.00,1.20
8212.00,1.20
8211.00,1.21
8210.00,1.21
8209.00,1.22
8208.00,1.22
8207.00,1.22
8206.00,1.23
8205.00,1.24
8204.00,1.24
8203.00,1.25
8202.00,1.25
8201.00,1.26
8200.00,1.27
8199.00,1.27
8198.00,1.28
8197.00,1.28
8196.00,1.28
8195.00,1.29
8194.00,1.29
8193.00,1.29
8192.00,1.30
8191.00,1.30
8190.00,1.30
8189.00,1.30
8188.00,1.30
8187.00,1.30
8186.00,1.31
8185.00,1.31
8184.00,1.31
8183.00,1.31
8182.00,1.31
8181.00,1.30
8180.00,1.30
8179.00,1.30
8178.00,1.30
8177.00,1.30
8176.00,1.30
8175.00,1.30
8174.00,1.30
8173.00,1.30
8172.00,1.30
8171.00,1.30
8170.00,1.30
8169.00,1.30
8168.00,1.30
8167.00,1.30
8166.00,1.30
8165.00,1.30
8164.00,1.30
8163.00,1.30
8162.00,1.30
8161.00,1.30
8160.00,1.30
8159.00,1.31
8158.00,1.31
8157.00,1.31
8156.00,1.31
8155.00,1.31
8154.00,1.32
8153.00,1.32
8152.00,1.32
8151.00,1.32
8150.00,1.32
8149.00,1.32
8148.00,1.32
8147.00,1.32
8146.00,1.32
8145.00,1.32
8144.00,1.32
8143.00,1.32
8142.00,1.32
8141.00,1.32
8140.00,1.31
8139.00,1.31
8138.00,1.31
8137.00,1.31
8136.00,1.31
8135.00,1.31
8134.00,1.31
8133.00,1.31
8132.00,1.31
8131.00,1.31
8130.00,1.30
8129.00,1.30
8128.00,1.30
8127.00,1.31
8126.00,1.31
8125.00,1.31
8124.00,1.31
8123.00,1.31
8122.00,1.31
8121.00,1.31
8120.00,1.32
8119.00,1.32
8118.00,1.32
8117.00,1.32
8116.00,1.32
8115.00,1.32
8114.00,1.33
8113.00,1.33
8112.00,1.33
8111.00,1.33
8110.00,1.33
8109.00,1.33
8108.00,1.33
8107.00,1.33
8106.00,1.33
8105.00,1.33
8104.00,1.33
8103.00,1.33
8102.00,1.33
8101.00,1.33
8100.00,1.32
8099.00,1.32
8098.00,1.32
8097.00,1.31
8096.00,1.31
8095.00,1.31
8094.00,1.30
8093.00,1.30
8092.00,1.30
8091.00,1.30
8090.00,1.29
8089.00,1.29
8088.00,1.29
8087.00,1.29
8086.00,1.29
8085.00,1.29
8084.00,1.29
8083.00,1.29
8082.00,1.29
8081.00,1.29
8080.00,1.30
8079.00,1.30
8078.00,1.30
8077.00,1.30
8076.00,1.31
8075.00,1.31
8074.00,1.31
8073.00,1.32
8072.00,1.32
8071.00,1.33
8070.00,1.33
8069.00,1.34
8068.00,1.34
8067.00,1.35
8066.00,1.35
8065.00,1.36
8064.00,1.36
8063.00,1.36
8062.00,1.36
8061.00,1.37
8060.00,1.37
8059.00,1.37
8058.00,1.37
8057.00,1.37
8056.00,1.37
8055.00,1.37
8054.00,1.37
8053.00,1.37
8052.00,1.36
8051.00,1.36
8050.00,1.36
8049.00,1.36
8048.00,1.35
8047.00,1.35
8046.00,1.35
8045.00,1.34
8044.00,1.34
8043.00,1.33
8042.00,1.33
8041.00,1.33
8040.00,1.32
8039.00,1.32
8038.00,1.32
8037.00,1.32
8036.00,1.32
8035.00,1.31
8034.00,1.31
8033.00,1.31
8032.00,1.31
8031.00,1.31
8030.00,1.30
8029.00,1.30
8028.00,1.30
8027.00,1.30
8026.00,1.30
8025.00,1.30
8024.00,1.30
8023.00,1.30
8022.00,1.30
8021.00,1.30
8020.00,1.30
8019.00,1.30
8018.00,1.30
8017.00,1.30
8016.00,1.30
8015.00,1.30
8014.00,1.29
8013.00,1.29
8012.00,1.29
8011.00,1.29
8010.00,1.29
8009.00,1.29
8008.00,1.29
8007.00,1.29
8006.00,1.29
8005.00,1.29
8004.00,1.29
8003.00,1.30
8002.00,1.30
8001.00,1.30
8000.00,1.30
7999.00,1.30
7998.00,1.30
7997.00,1.31
7996.00,1.31
7995.00,1.31
7994.00,1.32
7993.00,1.32
7992.00,1.32
7991.00,1.32
7990.00,1.33
7989.00,1.33
7988.00,1.33
7987.00,1.33
7986.00,1.33
7985.00,1.33
7984.00,1.34
7983.00,1.34
7982.00,1.34
7981.00,1.34
7980.00,1.34
7979.00,1.34
7978.00,1.34
7977.00,1.34
7976.00,1.34
7975.00,1.34
7974.00,1.33
7973.00,1.33
7972.00,1.33
7971.00,1.33
7970.00,1.33
7969.00,1.33
7968.00,1.33
7967.00,1.33
7966.00,1.33
7965.00,1.33
7964.00,1.33
7963.00,1.33
7962.00,1.33
7961.00,1.33
7960.00,1.33
7959.00,1.33
7958.00,1.34
7957.00,1.34
7956.00,1.34
7955.00,1.34
7954.00,1.35
7953.00,1.35
7952.00,1.35
7951.00,1.36
7950.00,1.36
7949.00,1.36
7948.00,1.37
7947.00,1.37
7946.00,1.37
7945.00,1.38
7944.00,1.38
7943.00,1.38
7942.00,1.38
7941.00,1.39
7940.00,1.39
7939.00,1.39
7938.00,1.39
7937.00,1.39
7936.00,1.39
7935.00,1.39
7934.00,1.39
7933.00,1.38
7932.00,1.38
7931.00,1.38
7930.00,1.38
7929.00,1.38
7928.00,1.37
7927.00,1.37
7926.00,1.37
7925.00,1.36
7924.00,1.36
7923.00,1.36
7922.00,1.35
7921.00,1.35
7920.00,1.35
7919.00,1.34
7918.00,1.34
7917.00,1.34
7916.00,1.33
7915.00,1.33
7914.00,1.33
7913.00,1.33
7912.00,1.33
7911.00,1.33
7910.00,1.33
7909.00,1.33
7908.00,1.33
7907.00,1.33
7906.00,1.33
7905.00,1.33
7904.00,1.33
7903.00,1.33
7902.00,1.33
7901.00,1.33
7900.00,1.33
7899.00,1.33
7898.00,1.33
7897.00,1.33
7896.00,1.33
7895.00,1.33
7894.00,1.33
7893.00,1.34
7892.00,1.34
7891.00,1.34
7890.00,1.34
7889.00,1.34
7888.00,1.34
7887.00,1.34
7886.00,1.34
7885.00,1.34
7884.00,1.34
7883.00,1.34
7882.00,1.34
7881.00,1.34
7880.00,1.34
7879.00,1.35
7878.00,1.35
7877.00,1.35
7876.00,1.35
7875.00,1.35
7874.00,1.35
7873.00,1.35
7872.00,1.35
7871.00,1.35
7870.00,1.35
7869.00,1.35
7868.00,1.35
7867.00,1.35
7866.00,1.35
7865.00,1.35
7864.00,1.35
7863.00,1.35
7862.00,1.35
7861.00,1.35
7860.00,1.35
7859.00,1.35
7858.00,1.35
7857.00,1.35
7856.00,1.35
7855.00,1.35
7854.00,1.35
7853.00,1.35
7852.00,1.35
7851.00,1.35
7850.00,1.35
7849.00,1.35
7848.00,1.35
7847.00,1.35
7846.00,1.35
7845.00,1.34
7844.00,1.34
7843.00,1.34
7842.00,1.34
7841.00,1.34
7840.00,1.34
7839.00,1.33
7838.00,1.33
7837.00,1.33
7836.00,1.33
7835.00,1.33
7834.00,1.32
7833.00,1.32
7832.00,1.32
7831.00,1.32
7830.00,1.32
7829.00,1.32
7828.00,1.32
7827.00,1.32
7826.00,1.32
7825.00,1.32
7824.00,1.32
7823.00,1.32
7822.00,1.32
7821.00,1.32
7820.00,1.32
7819.00,1.32
7818.00,1.32
7817.00,1.32
7816.00,1.32
7815.00,1.33
7814.00,1.33
7813.00,1.33
7812.00,1.33
7811.00,1.34
7810.00,1.34
7809.00,1.34
7808.00,1.35
7807.00,1.35
7806.00,1.35
7805.00,1.35
7804.00,1.36
7803.00,1.36
7802.00,1.36
7801.00,1.36
7800.00,1.37
7799.00,1.37
7798.00,1.37
7797.00,1.37
7796.00,1.37
7795.00,1.37
7794.00,1.38
7793.00,1.38
7792.00,1.38
7791.00,1.38
7790.00,1.38
7789.00,1.39
7788.00,1.39
7787.00,1.39
7786.00,1.39
7785.00,1.39
7784.00,1.39
7783.00,1.39
7782.00,1.39
7781.00,1.38
7780.00,1.38
7779.00,1.38
7778.00,1.38
7777.00,1.38
7776.00,1.38
7775.00,1.38
7774.00,1.38
7773.00,1.38
7772.00,1.38
7771.00,1.38
7770.00,1.38
7769.00,1.38
7768.00,1.38
7767.00,1.38
7766.00,1.38
7765.00,1.37
7764.00,1.37
7763.00,1.37
7762.00,1.37
7761.00,1.36
7760.00,1.36
7759.00,1.36
7758.00,1.36
7757.00,1.35
7756.00,1.35
7755.00,1.35
7754.00,1.35
7753.00,1.35
7752.00,1.34
7751.00,1.34
7750.00,1.34
7749.00,1.33
7748.00,1.33
7747.00,1.33
7746.00,1.32
7745.00,1.32
7744.00,1.31
7743.00,1.31
7742.00,1.31
7741.00,1.31
7740.00,1.31
7739.00,1.31
7738.00,1.31
7737.00,1.31
7736.00,1.31
7735.00,1.31
7734.00,1.31
7733.00,1.32
7732.00,1.32
7731.00,1.32
7730.00,1.32
7729.00,1.33
7728.00,1.33
7727.00,1.33
7726.00,1.33
7725.00,1.34
7724.00,1.34
7723.00,1.34
7722.00,1.35
7721.00,1.35
7720.00,1.35
7719.00,1.36
7718.00,1.36
7717.00,1.37
7716.00,1.37
7715.00,1.37
7714.00,1.38
7713.00,1.38
7712.00,1.38
7711.00,1.38
7710.00,1.38
7709.00,1.38
7708.00,1.38
7707.00,1.38
7706.00,1.38
7705.00,1.38
7704.00,1.38
7703.00,1.38
7702.00,1.38
7701.00,1.38
7700.00,1.38
7699.00,1.38
7698.00,1.39
7697.00,1.39
7696.00,1.39
7695.00,1.39
7694.00,1.38
7693.00,1.38
7692.00,1.38
7691.00,1.38
7690.00,1.38
7689.00,1.38
7688.00,1.38
7687.00,1.37
7686.00,1.37
7685.00,1.37
7684.00,1.37
7683.00,1.37
7682.00,1.37
7681.00,1.37
7680.00,1.36
7679.00,1.36
7678.00,1.36
7677.00,1.36
7676.00,1.35
7675.00,1.35
7674.00,1.35
7673.00,1.35
7672.00,1.34
7671.00,1.34
7670.00,1.34
7669.00,1.34
7668.00,1.34
7667.00,1.34
7666.00,1.34
7665.00,1.34
7664.00,1.34
7663.00,1.34
7662.00,1.34
7661.00,1.35
7660.00,1.35
7659.00,1.35
7658.00,1.35
7657.00,1.35
7656.00,1.35
7655.00,1.35
7654.00,1.36
7653.00,1.36
7652.00,1.36
7651.00,1.36
7650.00,1.37
7649.00,1.37
7648.00,1.37
7647.00,1.37
7646.00,1.37
7645.00,1.37
7644.00,1.37
7643.00,1.38
7642.00,1.38
7641.00,1.38
7640.00,1.38
7639.00,1.38
7638.00,1.38
7637.00,1.38
7636.00,1.38
7635.00,1.38
7634.00,1.38
7633.00,1.39
7632.00,1.39
7631.00,1.39
7630.00,1.39
7629.00,1.39
7628.00,1.39
7627.00,1.39
7626.00,1.39
7625.00,1.39
7624.00,1.39
7623.00,1.39
7622.00,1.39
7621.00,1.40
7620.00,1.40
7619.00,1.40
7618.00,1.40
7617.00,1.40
7616.00,1.40
7615.00,1.40
7614.00,1.40
7613.00,1.40
7612.00,1.40
7611.00,1.39
7610.00,1.39
7609.00,1.39
7608.00,1.39
7607.00,1.39
7606.00,1.39
7605.00,1.38
7604.00,1.38
7603.00,1.38
7602.00,1.38
7601.00,1.38
7600.00,1.38
7599.00,1.38
7598.00,1.37
7597.00,1.37
7596.00,1.37
7595.00,1.37
7594.00,1.37
7593.00,1.37
7592.00,1.37
7591.00,1.37
7590.00,1.37
7589.00,1.37
7588.00,1.37
7587.00,1.36
7586.00,1.36
7585.00,1.36
7584.00,1.36
7583.00,1.36
7582.00,1.36
7581.00,1.36
7580.00,1.35
7579.00,1.35
7578.00,1.35
7577.00,1.35
7576.00,1.35
7575.00,1.34
7574.00,1.34
7573.00,1.34
7572.00,1.34
7571.00,1.33
7570.00,1.33
7569.00,1.33
7568.00,1.33
7567.00,1.33
7566.00,1.33
7565.00,1.33
7564.00,1.33
7563.00,1.33
7562.00,1.33
7561.00,1.33
7560.00,1.33
7559.00,1.33
7558.00,1.33
7557.00,1.33
7556.00,1.34
7555.00,1.34
7554.00,1.34
7553.00,1.35
7552.00,1.35
7551.00,1.36
7550.00,1.36
7549.00,1.36
7548.00,1.37
7547.00,1.37
7546.00,1.37
7545.00,1.38
7544.00,1.38
7543.00,1.38
7542.00,1.39
7541.00,1.39
7540.00,1.39
7539.00,1.40
7538.00,1.40
7537.00,1.40
7536.00,1.40
7535.00,1.40
7534.00,1.40
7533.00,1.40
7532.00,1.40
7531.00,1.40
7530.00,1.40
7529.00,1.40
7528.00,1.40
7527.00,1.40
7526.00,1.40
7525.00,1.40
7524.00,1.40
7523.00,1.40
7522.00,1.39
7521.00,1.39
7520.00,1.39
7519.00,1.39
7518.00,1.39
7517.00,1.39
7516.00,1.39
7515.00,1.39
7514.00,1.39
7513.00,1.39
7512.00,1.39
7511.00,1.39
7510.00,1.39
7509.00,1.39
7508.00,1.39
7507.00,1.39
7506.00,1.39
7505.00,1.39
7504.00,1.39
7503.00,1.38
7502.00,1.38
7501.00,1.38
7500.00,1.38
7499.00,1.38
7498.00,1.38
7497.00,1.38
7496.00,1.38
7495.00,1.38
7494.00,1.37
7493.00,1.37
7492.00,1.37
7491.00,1.37
7490.00,1.37
7489.00,1.36
7488.00,1.36
7487.00,1.36
7486.00,1.36
7485.00,1.35
7484.00,1.35
7483.00,1.35
7482.00,1.35
7481.00,1.34
7480.00,1.34
7479.00,1.34
7478.00,1.34
7477.00,1.34
7476.00,1.34
7475.00,1.33
7474.00,1.33
7473.00,1.33
7472.00,1.33
7471.00,1.33
7470.00,1.33
7469.00,1.33
7468.00,1.33
7467.00,1.33
7466.00,1.33
7465.00,1.33
7464.00,1.33
7463.00,1.33
7462.00,1.33
7461.00,1.33
7460.00,1.33
7459.00,1.33
7458.00,1.33
7457.00,1.34
7456.00,1.34
7455.00,1.34
7454.00,1.34
7453.00,1.34
7452.00,1.34
7451.00,1.34
7450.00,1.34
7449.00,1.34
7448.00,1.35
7447.00,1.35
7446.00,1.35
7445.00,1.35
7444.00,1.35
7443.00,1.35
7442.00,1.35
7441.00,1.35
7440.00,1.35
7439.00,1.35
7438.00,1.35
7437.00,1.35
7436.00,1.35
7435.00,1.35
7434.00,1.35
7433.00,1.35
7432.00,1.35
7431.00,1.34
7430.00,1.34
7429.00,1.34
7428.00,1.34
7427.00,1.33
7426.00,1.33
7425.00,1.33
7424.00,1.32
7423.00,1.32
7422.00,1.32
7421.00,1.31
7420.00,1.31
7419.00,1.31
7418.00,1.30
7417.00,1.30
7416.00,1.30
7415.00,1.30
7414.00,1.29
7413.00,1.29
7412.00,1.29
7411.00,1.29
7410.00,1.29
7409.00,1.29
7408.00,1.28
7407.00,1.28
7406.00,1.28
7405.00,1.28
7404.00,1.28
7403.00,1.28
7402.00,1.28
7401.00,1.28
7400.00,1.29
7399.00,1.29
7398.00,1.29
7397.00,1.29
7396.00,1.29
7395.00,1.29
7394.00,1.29
7393.00,1.29
7392.00,1.30
7391.00,1.30
7390.00,1.30
7389.00,1.30
7388.00,1.30
7387.00,1.30
7386.00,1.31
7385.00,1.31
7384.00,1.31
7383.00,1.31
7382.00,1.31
7381.00,1.31
7380.00,1.31
7379.00,1.31
7378.00,1.31
7377.00,1.32
7376.00,1.32
7375.00,1.32
7374.00,1.32
7373.00,1.32
7372.00,1.32
7371.00,1.32
7370.00,1.32
7369.00,1.32
7368.00,1.32
7367.00,1.32
7366.00,1.32
7365.00,1.31
7364.00,1.31
7363.00,1.31
7362.00,1.31
7361.00,1.31
7360.00,1.31
7359.00,1.31
7358.00,1.31
7357.00,1.31
7356.00,1.31
7355.00,1.30
7354.00,1.30
7353.00,1.30
7352.00,1.30
7351.00,1.30
7350.00,1.30
7349.00,1.29
7348.00,1.29
7347.00,1.29
7346.00,1.29
7345.00,1.29
7344.00,1.29
7343.00,1.29
7342.00,1.29
7341.00,1.28
7340.00,1.28
7339.00,1.28
7338.00,1.28
7337.00,1.28
7336.00,1.28
7335.00,1.28
7334.00,1.28
7333.00,1.28
7332.00,1.28
7331.00,1.28
7330.00,1.28
7329.00,1.28
7328.00,1.28
7327.00,1.28
7326.00,1.28
7325.00,1.28
7324.00,1.28
7323.00,1.28
7322.00,1.29
7321.00,1.29
7320.00,1.29
7319.00,1.29
7318.00,1.29
7317.00,1.29
7316.00,1.29
7315.00,1.29
7314.00,1.29
7313.00,1.29
7312.00,1.29
7311.00,1.29
7310.00,1.29
7309.00,1.29
7308.00,1.29
7307.00,1.29
7306.00,1.29
7305.00,1.29
7304.00,1.29
7303.00,1.29
7302.00,1.29
7301.00,1.29
7300.00,1.29
7299.00,1.29
7298.00,1.29
7297.00,1.29
7296.00,1.28
7295.00,1.29
7294.00,1.29
7293.00,1.29
7292.00,1.29
7291.00,1.29
7290.00,1.29
7289.00,1.29
7288.00,1.29
7287.00,1.29
7286.00,1.30
7285.00,1.30
7284.00,1.30
7283.00,1.30
7282.00,1.30
7281.00,1.30
7280.00,1.30
7279.00,1.30
7278.00,1.30
7277.00,1.30
7276.00,1.30
7275.00,1.30
7274.00,1.30
7273.00,1.30
7272.00,1.30
7271.00,1.30
7270.00,1.30
7269.00,1.30
7268.00,1.30
7267.00,1.30
7266.00,1.30
7265.00,1.29
7264.00,1.29
7263.00,1.29
7262.00,1.28
7261.00,1.28
7260.00,1.27
7259.00,1.27
7258.00,1.26
7257.00,1.26
7256.00,1.25
7255.00,1.25
7254.00,1.25
7253.00,1.24
7252.00,1.24
7251.00,1.23
7250.00,1.23
7249.00,1.23
7248.00,1.22
7247.00,1.22
7246.00,1.22
7245.00,1.21
7244.00,1.21
7243.00,1.21
7242.00,1.20
7241.00,1.20
7240.00,1.20
7239.00,1.20
7238.00,1.19
7237.00,1.19
7236.00,1.19
7235.00,1.19
7234.00,1.19
7233.00,1.19
7232.00,1.19
7231.00,1.19
7230.00,1.19
7229.00,1.19
7228.00,1.19
7227.00,1.19
7226.00,1.19
7225.00,1.19
7224.00,1.19
7223.00,1.19
7222.00,1.19
7221.00,1.18
7220.00,1.18
7219.00,1.18
7218.00,1.18
7217.00,1.18
7216.00,1.18
7215.00,1.17
7214.00,1.17
7213.00,1.17
7212.00,1.17
7211.00,1.17
7210.00,1.17
7209.00,1.17
7208.00,1.17
7207.00,1.16
7206.00,1.16
7205.00,1.16
7204.00,1.16
7203.00,1.16
7202.00,1.16
7201.00,1.16
7200.00,1.15
7199.00,1.15
7198.00,1.15
7197.00,1.15
7196.00,1.15
7195.00,1.15
7194.00,1.15
7193.00,1.15
7192.00,1.14
7191.00,1.14
7190.00,1.14
7189.00,1.14
7188.00,1.14
7187.00,1.13
7186.00,1.13
7185.00,1.13
7184.00,1.13
7183.00,1.12
7182.00,1.12
7181.00,1.12
7180.00,1.11
7179.00,1.11
7178.00,1.11
7177.00,1.10
7176.00,1.10
7175.00,1.10
7174.00,1.09
7173.00,1.09
7172.00,1.08
7171.00,1.08
7170.00,1.08
7169.00,1.07
7168.00,1.07
7167.00,1.07
7166.00,1.06
7165.00,1.06
7164.00,1.05
7163.00,1.05
7162.00,1.05
7161.00,1.04
7160.00,1.04
7159.00,1.04
7158.00,1.03
7157.00,1.03
7156.00,1.02
7155.00,1.02
7154.00,1.01
7153.00,1.01
7152.00,1.01
7151.00,1.00
7150.00,1.00
7149.00,0.99
7148.00,0.99
7147.00,0.98
7146.00,0.98
7145.00,0.98
7144.00,0.97
7143.00,0.97
7142.00,0.97
7141.00,0.97
7140.00,0.96
7139.00,0.96
7138.00,0.96
7137.00,0.96
7136.00,0.95
7135.00,0.95
7134.00,0.95
7133.00,0.95
7132.00,0.95
7131.00,0.94
7130.00,0.94
7129.00,0.94
7128.00,0.94
7127.00,0.94
7126.00,0.94
7125.00,0.94
7124.00,0.94
7123.00,0.94
7122.00,0.94
7121.00,0.94
7120.00,0.94
7119.00,0.94
7118.00,0.94
7117.00,0.94
7116.00,0.94
7115.00,0.94
7114.00,0.94
7113.00,0.94
7112.00,0.93
7111.00,0.93
7110.00,0.93
7109.00,0.93
7108.00,0.93
7107.00,0.92
7106.00,0.92
7105.00,0.92
7104.00,0.92
7103.00,0.91
7102.00,0.91
7101.00,0.91
7100.00,0.90
7099.00,0.90
7098.00,0.90
7097.00,0.89
7096.00,0.89
7095.00,0.88
7094.00,0.88
7093.00,0.88
7092.00,0.87
7091.00,0.87
7090.00,0.87
7089.00,0.86
7088.00,0.86
7087.00,0.86
7086.00,0.85
7085.00,0.85
7084.00,0.85
7083.00,0.85
7082.00,0.84
7081.00,0.84
7080.00,0.84
7079.00,0.83
7078.00,0.83
7077.00,0.83
7076.00,0.82
7075.00,0.82
7074.00,0.82
7073.00,0.82
7072.00,0.81
7071.00,0.81
7070.00,0.81
7069.00,0.81
7068.00,0.81
7067.00,0.81
7066.00,0.81
7065.00,0.81
7064.00,0.81
7063.00,0.81
7062.00,0.81
7061.00,0.81
7060.00,0.81
7059.00,0.81
7058.00,0.81
7057.00,0.81
7056.00,0.81
7055.00,0.81
7054.00,0.81
7053.00,0.81
7052.00,0.81
7051.00,0.81
7050.00,0.81
7049.00,0.81
7048.00,0.81
7047.00,0.81
7046.00,0.81
7045.00,0.81
7044.00,0.81
7043.00,0.81
7042.00,0.81
7041.00,0.81
7040.00,0.81
7039.00,0.81
7038.00,0.81
7037.00,0.81
7036.00,0.80
7035.00,0.80
7034.00,0.80
7033.00,0.80
7032.00,0.79
7031.00,0.79
7030.00,0.79
7029.00,0.79
7028.00,0.78
7027.00,0.78
7026.00,0.78
7025.00,0.78
7024.00,0.78
7023.00,0.78
7022.00,0.77
7021.00,0.77
7020.00,0.77
7019.00,0.77
7018.00,0.77
7017.00,0.76
7016.00,0.76
7015.00,0.76
7014.00,0.76
7013.00,0.76
7012.00,0.76
7011.00,0.75
7010.00,0.75
7009.00,0.75
7008.00,0.75
7007.00,0.75
7006.00,0.75
7005.00,0.75
7004.00,0.75
7003.00,0.75
7002.00,0.75
7001.00,0.75
7000.00,0.75
6999.00,0.75
6998.00,0.75
6997.00,0.75
6996.00,0.75
6995.00,0.74
6994.00,0.74
6993.00,0.74
6992.00,0.74
6991.00,0.74
6990.00,0.74
6989.00,0.74
6988.00,0.73
6987.00,0.73
6986.00,0.73
6985.00,0.73
6984.00,0.73
6983.00,0.73
6982.00,0.73
6981.00,0.73
6980.00,0.73
6979.00,0.73
6978.00,0.73
6977.00,0.73
6976.00,0.73
6975.00,0.73
6974.00,0.73
6973.00,0.73
6972.00,0.73
6971.00,0.73
6970.00,0.74
6969.00,0.74
6968.00,0.74
6967.00,0.74
6966.00,0.75
6965.00,0.75
6964.00,0.75
6963.00,0.75
6962.00,0.76
6961.00,0.76
6960.00,0.76
6959.00,0.76
6958.00,0.77
6957.00,0.77
6956.00,0.77
6955.00,0.77
6954.00,0.78
6953.00,0.78
6952.00,0.78
6951.00,0.78
6950.00,0.78
6949.00,0.78
6948.00,0.78
6947.00,0.78
6946.00,0.78
6945.00,0.78
6944.00,0.78
6943.00,0.78
6942.00,0.77
6941.00,0.77
6940.00,0.77
6939.00,0.77
6938.00,0.77
6937.00,0.77
6936.00,0.77
6935.00,0.76
6934.00,0.76
6933.00,0.76
6932.00,0.76
6931.00,0.76
6930.00,0.75
6929.00,0.75
6928.00,0.75
6927.00,0.75
6926.00,0.74
6925.00,0.74
6924.00,0.74
6923.00,0.74
6922.00,0.73
6921.00,0.73
6920.00,0.73
6919.00,0.73
6918.00,0.73
6917.00,0.72
6916.00,0.72
6915.00,0.72
6914.00,0.72
6913.00,0.72
6912.00,0.71
6911.00,0.71
6910.00,0.71
6909.00,0.71
6908.00,0.71
6907.00,0.70
6906.00,0.70
6905.00,0.70
6904.00,0.70
6903.00,0.70
6902.00,0.70
6901.00,0.70
6900.00,0.70
6899.00,0.70
6898.00,0.70
6897.00,0.69
6896.00,0.69
6895.00,0.69
6894.00,0.69
6893.00,0.69
6892.00,0.69
6891.00,0.69
6890.00,0.69
6889.00,0.70
6888.00,0.70
6887.00,0.70
6886.00,0.70
6885.00,0.69
6884.00,0.69
6883.00,0.69
6882.00,0.69
6881.00,0.69
6880.00,0.69
6879.00,0.69
6878.00,0.69
6877.00,0.69
6876.00,0.69
6875.00,0.69
6874.00,0.69
6873.00,0.69
6872.00,0.69
6871.00,0.69
6870.00,0.69
6869.00,0.69
6868.00,0.69
6867.00,0.68
6866.00,0.68
6865.00,0.68
6864.00,0.68
6863.00,0.68
6862.00,0.68
6861.00,0.68
6860.00,0.68
6859.00,0.68
6858.00,0.68
6857.00,0.68
6856.00,0.68
6855.00,0.68
6854.00,0.68
6853.00,0.68
6852.00,0.68
6851.00,0.68
6850.00,0.68
6849.00,0.68
6848.00,0.68
6847.00,0.68
6846.00,0.68
6845.00,0.68
6844.00,0.68
6843.00,0.68
6842.00,0.68
6841.00,0.68
6840.00,0.68
6839.00,0.68
6838.00,0.68
6837.00,0.68
6836.00,0.68
6835.00,0.68
6834.00,0.68
6833.00,0.68
6832.00,0.68
6831.00,0.68
6830.00,0.68
6829.00,0.68
6828.00,0.68
6827.00,0.68
6826.00,0.68
6825.00,0.68
6824.00,0.68
6823.00,0.68
6822.00,0.68
6821.00,0.68
6820.00,0.68
6819.00,0.68
6818.00,0.68
6817.00,0.68
6816.00,0.69
6815.00,0.69
6814.00,0.69
6813.00,0.69
6812.00,0.69
6811.00,0.70
6810.00,0.70
6809.00,0.70
6808.00,0.70
6807.00,0.70
6806.00,0.70
6805.00,0.70
6804.00,0.71
6803.00,0.71
6802.00,0.71
6801.00,0.71
6800.00,0.71
6799.00,0.71
6798.00,0.71
6797.00,0.72
6796.00,0.72
6795.00,0.72
6794.00,0.72
6793.00,0.72
6792.00,0.72
6791.00,0.73
6790.00,0.73
6789.00,0.73
6788.00,0.73
6787.00,0.73
6786.00,0.73
6785.00,0.74
6784.00,0.74
6783.00,0.74
6782.00,0.74
6781.00,0.74
6780.00,0.75
6779.00,0.75
6778.00,0.75
6777.00,0.75
6776.00,0.75
6775.00,0.75
6774.00,0.76
6773.00,0.76
6772.00,0.76
6771.00,0.76
6770.00,0.76
6769.00,0.76
6768.00,0.76
6767.00,0.76
6766.00,0.76
6765.00,0.76
6764.00,0.76
6763.00,0.76
6762.00,0.76
6761.00,0.76
6760.00,0.76
6759.00,0.76
6758.00,0.76
6757.00,0.76
6756.00,0.76
6755.00,0.76
6754.00,0.76
6753.00,0.76
6752.00,0.76
6751.00,0.76
6750.00,0.76
6749.00,0.76
6748.00,0.75
6747.00,0.75
6746.00,0.75
6745.00,0.75
6744.00,0.75
6743.00,0.75
6742.00,0.75
6741.00,0.75
6740.00,0.75
6739.00,0.75
6738.00,0.75
6737.00,0.75
6736.00,0.75
6735.00,0.75
6734.00,0.75
6733.00,0.75
6732.00,0.75
6731.00,0.75
6730.00,0.76
6729.00,0.76
6728.00,0.76
6727.00,0.76
6726.00,0.76
6725.00,0.76
6724.00,0.76
6723.00,0.76
6722.00,0.76
6721.00,0.76
6720.00,0.76
6719.00,0.77
6718.00,0.77
6717.00,0.77
6716.00,0.77
6715.00,0.77
6714.00,0.77
6713.00,0.78
6712.00,0.78
6711.00,0.78
6710.00,0.78
6709.00,0.78
6708.00,0.79
6707.00,0.79
6706.00,0.79
6705.00,0.79
6704.00,0.80
6703.00,0.80
6702.00,0.80
6701.00,0.81
6700.00,0.81
6699.00,0.81
6698.00,0.82
6697.00,0.82
6696.00,0.82
6695.00,0.83
6694.00,0.83
6693.00,0.83
6692.00,0.83
6691.00,0.84
6690.00,0.84
6689.00,0.84
6688.00,0.84
6687.00,0.84
6686.00,0.84
6685.00,0.84
6684.00,0.84
6683.00,0.84
6682.00,0.84
6681.00,0.84
6680.00,0.84
6679.00,0.84
6678.00,0.84
6677.00,0.84
6676.00,0.84
6675.00,0.84
6674.00,0.84
6673.00,0.84
6672.00,0.84
6671.00,0.84
6670.00,0.84
6669.00,0.84
6668.00,0.84
6667.00,0.84
6666.00,0.84
6665.00,0.84
6664.00,0.84
6663.00,0.84
6662.00,0.84
6661.00,0.84
6660.00,0.84
6659.00,0.84
6658.00,0.84
6657.00,0.84
6656.00,0.84
6655.00,0.85
6654.00,0.85
6653.00,0.85
6652.00,0.85
6651.00,0.85
6650.00,0.85
6649.00,0.85
6648.00,0.85
6647.00,0.85
6646.00,0.85
6645.00,0.85
6644.00,0.85
6643.00,0.85
6642.00,0.85
6641.00,0.85
6640.00,0.84
6639.00,0.84
6638.00,0.84
6637.00,0.84
6636.00,0.84
6635.00,0.84
6634.00,0.84
6633.00,0.84
6632.00,0.84
6631.00,0.84
6630.00,0.84
6629.00,0.84
6628.00,0.84
6627.00,0.84
6626.00,0.84
6625.00,0.84
6624.00,0.85
6623.00,0.85
6622.00,0.85
6621.00,0.85
6620.00,0.85
6619.00,0.85
6618.00,0.86
6617.00,0.86
6616.00,0.86
6615.00,0.86
6614.00,0.87
6613.00,0.87
6612.00,0.87
6611.00,0.87
6610.00,0.87
6609.00,0.88
6608.00,0.88
6607.00,0.88
6606.00,0.88
6605.00,0.88
6604.00,0.88
6603.00,0.88
6602.00,0.89
6601.00,0.89
6600.00,0.89
6599.00,0.89
6598.00,0.89
6597.00,0.89
6596.00,0.89
6595.00,0.89
6594.00,0.90
6593.00,0.90
6592.00,0.90
6591.00,0.90
6590.00,0.90
6589.00,0.90
6588.00,0.90
6587.00,0.90
6586.00,0.91
6585.00,0.91
6584.00,0.91
6583.00,0.91
6582.00,0.92
6581.00,0.92
6580.00,0.92
6579.00,0.93
6578.00,0.93
6577.00,0.93
6576.00,0.94
6575.00,0.94
6574.00,0.94
6573.00,0.95
6572.00,0.95
6571.00,0.95
6570.00,0.96
6569.00,0.96
6568.00,0.96
6567.00,0.96
6566.00,0.97
6565.00,0.97
6564.00,0.97
6563.00,0.97
6562.00,0.98
6561.00,0.98
6560.00,0.98
6559.00,0.98
6558.00,0.98
6557.00,0.98
6556.00,0.98
6555.00,0.99
6554.00,0.99
6553.00,0.99
6552.00,0.99
6551.00,0.99
6550.00,0.99
6549.00,0.99
6548.00,1.00
6547.00,1.00
6546.00,1.00
6545.00,1.00
6544.00,1.00
6543.00,1.01
6542.00,1.01
6541.00,1.01
6540.00,1.01
6539.00,1.01
6538.00,1.02
6537.00,1.02
6536.00,1.02
6535.00,1.02
6534.00,1.02
6533.00,1.02
6532.00,1.02
6531.00,1.03
6530.00,1.03
6529.00,1.03
6528.00,1.03
6527.00,1.03
6526.00,1.03
6525.00,1.03
6524.00,1.03
6523.00,1.03
6522.00,1.03
6521.00,1.03
6520.00,1.02
6519.00,1.02
6518.00,1.02
6517.00,1.02
6516.00,1.02
6515.00,1.01
6514.00,1.01
6513.00,1.01
6512.00,1.01
6511.00,1.01
6510.00,1.01
6509.00,1.00
6508.00,1.00
6507.00,1.00
6506.00,1.00
6505.00,1.00
6504.00,1.00
6503.00,1.00
6502.00,1.00
6501.00,0.99
6500.00,0.99
6499.00,0.99
6498.00,0.99
6497.00,0.99
6496.00,0.99
6495.00,0.99
6494.00,0.99
6493.00,0.99
6492.00,0.99
6491.00,0.99
6490.00,0.99
6489.00,1.00
6488.00,1.00
6487.00,1.00
6486.00,1.00
6485.00,1.00
6484.00,1.00
6483.00,1.00
6482.00,1.01
6481.00,1.01
6480.00,1.01
6479.00,1.01
6478.00,1.01
6477.00,1.01
6476.00,1.02
6475.00,1.02
6474.00,1.02
6473.00,1.02
6472.00,1.03
6471.00,1.03
6470.00,1.03
6469.00,1.03
6468.00,1.03
6467.00,1.04
6466.00,1.04
6465.00,1.04
6464.00,1.04
6463.00,1.05
6462.00,1.05
6461.00,1.05
6460.00,1.05
6459.00,1.06
6458.00,1.06
6457.00,1.06
6456.00,1.06
6455.00,1.07
6454.00,1.07
6453.00,1.07
6452.00,1.07
6451.00,1.07
6450.00,1.07
6449.00,1.08
6448.00,1.08
6447.00,1.08
6446.00,1.08
6445.00,1.08
6444.00,1.08
6443.00,1.08
6442.00,1.08
6441.00,1.08
6440.00,1.08
6439.00,1.08
6438.00,1.08
6437.00,1.08
6436.00,1.08
6435.00,1.08
6434.00,1.08
6433.00,1.08
6432.00,1.08
6431.00,1.07
6430.00,1.07
6429.00,1.07
6428.00,1.07
6427.00,1.07
6426.00,1.07
6425.00,1.07
6424.00,1.07
6423.00,1.07
6422.00,1.07
6421.00,1.08
6420.00,1.08
6419.00,1.08
6418.00,1.08
6417.00,1.08
6416.00,1.08
6415.00,1.08
6414.00,1.09
6413.00,1.09
6412.00,1.09
6411.00,1.09
6410.00,1.09
6409.00,1.10
6408.00,1.10
6407.00,1.10
6406.00,1.10
6405.00,1.11
6404.00,1.11
6403.00,1.11
6402.00,1.11
6401.00,1.11
6400.00,1.11
6399.00,1.12
6398.00,1.12
6397.00,1.12
6396.00,1.12
6395.00,1.12
6394.00,1.12
6393.00,1.12
6392.00,1.12
6391.00,1.12
6390.00,1.12
6389.00,1.12
6388.00,1.12
6387.00,1.12
6386.00,1.12
6385.00,1.12
6384.00,1.12
6383.00,1.11
6382.00,1.11
6381.00,1.11
6380.00,1.11
6379.00,1.11
6378.00,1.11
6377.00,1.11
6376.00,1.11
6375.00,1.11
6374.00,1.11
6373.00,1.10
6372.00,1.10
6371.00,1.10
6370.00,1.10
6369.00,1.10
6368.00,1.10
6367.00,1.10
6366.00,1.10
6365.00,1.10
6364.00,1.10
6363.00,1.10
6362.00,1.10
6361.00,1.10
6360.00,1.10
6359.00,1.10
6358.00,1.11
6357.00,1.11
6356.00,1.11
6355.00,1.11
6354.00,1.11
6353.00,1.11
6352.00,1.12
6351.00,1.12
6350.00,1.12
6349.00,1.12
6348.00,1.13
6347.00,1.13
6346.00,1.13
6345.00,1.13
6344.00,1.14
6343.00,1.14
6342.00,1.14
6341.00,1.14
6340.00,1.15
6339.00,1.15
6338.00,1.15
6337.00,1.15
6336.00,1.15
6335.00,1.16
6334.00,1.16
6333.00,1.16
6332.00,1.16
6331.00,1.16
6330.00,1.16
6329.00,1.16
6328.00,1.17
6327.00,1.17
6326.00,1.17
6325.00,1.17
6324.00,1.17
6323.00,1.17
6322.00,1.17
6321.00,1.17
6320.00,1.17
6319.00,1.17
6318.00,1.17
6317.00,1.17
6316.00,1.17
6315.00,1.18
6314.00,1.18
6313.00,1.18
6312.00,1.18
6311.00,1.18
6310.00,1.18
6309.00,1.18
6308.00,1.18
6307.00,1.18
6306.00,1.19
6305.00,1.19
6304.00,1.19
6303.00,1.19
6302.00,1.19
6301.00,1.19
6300.00,1.20
6299.00,1.20
6298.00,1.20
6297.00,1.20
6296.00,1.20
6295.00,1.20
6294.00,1.21
6293.00,1.21
6292.00,1.21
6291.00,1.21
6290.00,1.21
6289.00,1.21
6288.00,1.22
6287.00,1.22
6286.00,1.22
6285.00,1.22
6284.00,1.22
6283.00,1.22
6282.00,1.22
6281.00,1.22
6280.00,1.22
6279.00,1.22
6278.00,1.23
6277.00,1.23
6276.00,1.23
6275.00,1.23
6274.00,1.23
6273.00,1.23
6272.00,1.23
6271.00,1.23
6270.00,1.23
6269.00,1.23
6268.00,1.23
6267.00,1.23
6266.00,1.23
6265.00,1.23
6264.00,1.23
6263.00,1.23
6262.00,1.23
6261.00,1.23
6260.00,1.23
6259.00,1.23
6258.00,1.23
6257.00,1.23
6256.00,1.23
6255.00,1.23
6254.00,1.23
6253.00,1.23
6252.00,1.23
6251.00,1.23
6250.00,1.22
6249.00,1.22
6248.00,1.22
6247.00,1.22
6246.00,1.22
6245.00,1.23
6244.00,1.23
6243.00,1.23
6242.00,1.23
6241.00,1.23
6240.00,1.23
6239.00,1.23
6238.00,1.23
6237.00,1.23
6236.00,1.24
6235.00,1.24
6234.00,1.24
6233.00,1.24
6232.00,1.24
6231.00,1.24
6230.00,1.24
6229.00,1.24
6228.00,1.24
6227.00,1.25
6226.00,1.25
6225.00,1.25
6224.00,1.25
6223.00,1.25
6222.00,1.25
6221.00,1.25
6220.00,1.25
6219.00,1.26
6218.00,1.26
6217.00,1.26
6216.00,1.26
6215.00,1.26
6214.00,1.26
6213.00,1.26
6212.00,1.26
6211.00,1.26
6210.00,1.26
6209.00,1.26
6208.00,1.26
6207.00,1.27
6206.00,1.27
6205.00,1.27
6204.00,1.27
6203.00,1.27
6202.00,1.27
6201.00,1.27
6200.00,1.28
6199.00,1.28
6198.00,1.28
6197.00,1.28
6196.00,1.28
6195.00,1.29
6194.00,1.29
6193.00,1.29
6192.00,1.29
6191.00,1.30
6190.00,1.30
6189.00,1.30
6188.00,1.30
6187.00,1.30
6186.00,1.31
6185.00,1.31
6184.00,1.31
6183.00,1.31
6182.00,1.31
6181.00,1.31
6180.00,1.31
6179.00,1.31
6178.00,1.32
6177.00,1.32
6176.00,1.32
6175.00,1.32
6174.00,1.32
6173.00,1.32
6172.00,1.32
6171.00,1.32
6170.00,1.32
6169.00,1.32
6168.00,1.32
6167.00,1.32
6166.00,1.31
6165.00,1.31
6164.00,1.31
6163.00,1.31
6162.00,1.31
6161.00,1.31
6160.00,1.31
6159.00,1.31
6158.00,1.31
6157.00,1.31
6156.00,1.31
6155.00,1.31
6154.00,1.31
6153.00,1.31
6152.00,1.31
6151.00,1.31
6150.00,1.31
6149.00,1.31
6148.00,1.31
6147.00,1.31
6146.00,1.31
6145.00,1.31
6144.00,1.31
6143.00,1.31
6142.00,1.31
6141.00,1.31
6140.00,1.31
6139.00,1.31
6138.00,1.31
6137.00,1.31
6136.00,1.31
6135.00,1.31
6134.00,1.31
6133.00,1.31
6132.00,1.31
6131.00,1.32
6130.00,1.32
6129.00,1.32
6128.00,1.32
6127.00,1.32
6126.00,1.32
6125.00,1.33
6124.00,1.33
6123.00,1.33
6122.00,1.33
6121.00,1.34
6120.00,1.34
6119.00,1.34
6118.00,1.34
6117.00,1.35
6116.00,1.35
6115.00,1.35
6114.00,1.35
6113.00,1.35
6112.00,1.36
6111.00,1.36
6110.00,1.36
6109.00,1.36
6108.00,1.36
6107.00,1.36
6106.00,1.36
6105.00,1.37
6104.00,1.37
6103.00,1.37
6102.00,1.37
6101.00,1.37
6100.00,1.37
6099.00,1.36
6098.00,1.36
6097.00,1.36
6096.00,1.36
6095.00,1.36
6094.00,1.36
6093.00,1.36
6092.00,1.36
6091.00,1.36
6090.00,1.36
6089.00,1.36
6088.00,1.36
6087.00,1.36
6086.00,1.36
6085.00,1.36
6084.00,1.37
6083.00,1.37
6082.00,1.37
6081.00,1.37
6080.00,1.37
6079.00,1.37
6078.00,1.37
6077.00,1.38
6076.00,1.38
6075.00,1.38
6074.00,1.39
6073.00,1.39
6072.00,1.39
6071.00,1.39
6070.00,1.40
6069.00,1.40
6068.00,1.40
6067.00,1.40
6066.00,1.40
6065.00,1.41
6064.00,1.41
6063.00,1.41
6062.00,1.41
6061.00,1.42
6060.00,1.42
6059.00,1.42
6058.00,1.42
6057.00,1.42
6056.00,1.43
6055.00,1.43
6054.00,1.43
6053.00,1.43
6052.00,1.43
6051.00,1.43
6050.00,1.43
6049.00,1.43
6048.00,1.44
6047.00,1.44
6046.00,1.44
6045.00,1.44
6044.00,1.44
6043.00,1.44
6042.00,1.44
6041.00,1.44
6040.00,1.44
6039.00,1.44
6038.00,1.44
6037.00,1.44
6036.00,1.44
6035.00,1.44
6034.00,1.44
6033.00,1.44
6032.00,1.44
6031.00,1.44
6030.00,1.44
6029.00,1.44
6028.00,1.44
6027.00,1.44
6026.00,1.44
6025.00,1.43
6024.00,1.43
6023.00,1.43
6022.00,1.43
6021.00,1.43
6020.00,1.43
6019.00,1.43
6018.00,1.43
6017.00,1.43
6016.00,1.42
6015.00,1.42
6014.00,1.42
6013.00,1.42
6012.00,1.42
6011.00,1.42
6010.00,1.42
6009.00,1.42
6008.00,1.42
6007.00,1.41
6006.00,1.41
6005.00,1.41
6004.00,1.41
6003.00,1.41
6002.00,1.41
6001.00,1.41
6000.00,1.41
5999.00,1.41
5998.00,1.41
5997.00,1.41
5996.00,1.41
5995.00,1.41
5994.00,1.41
5993.00,1.41
5992.00,1.41
5991.00,1.41
5990.00,1.41
5989.00,1.41
5988.00,1.41
5987.00,1.40
5986.00,1.40
5985.00,1.40
5984.00,1.40
5983.00,1.40
5982.00,1.40
5981.00,1.40
5980.00,1.39
5979.00,1.39
5978.00,1.39
5977.00,1.39
5976.00,1.38
5975.00,1.38
5974.00,1.37
5973.00,1.37
5972.00,1.37
5971.00,1.36
5970.00,1.36
5969.00,1.35
5968.00,1.35
5967.00,1.35
5966.00,1.34
5965.00,1.34
5964.00,1.33
5963.00,1.33
5962.00,1.32
5961.00,1.32
5960.00,1.31
5959.00,1.31
5958.00,1.30
5957.00,1.30
5956.00,1.29
5955.00,1.29
5954.00,1.29
5953.00,1.28
5952.00,1.28
5951.00,1.28
5950.00,1.27
5949.00,1.27
5948.00,1.27
5947.00,1.27
5946.00,1.26
5945.00,1.26
5944.00,1.26
5943.00,1.26
5942.00,1.26
5941.00,1.25
5940.00,1.25
5939.00,1.25
5938.00,1.25
5937.00,1.25
5936.00,1.25
5935.00,1.25
5934.00,1.25
5933.00,1.25
5932.00,1.25
5931.00,1.25
5930.00,1.25
5929.00,1.25
5928.00,1.25
5927.00,1.25
5926.00,1.25
5925.00,1.25
5924.00,1.25
5923.00,1.25
5922.00,1.25
5921.00,1.25
5920.00,1.25
5919.00,1.25
5918.00,1.26
5917.00,1.26
5916.00,1.26
5915.00,1.26
5914.00,1.26
5913.00,1.26
5912.00,1.26
5911.00,1.26
5910.00,1.26
5909.00,1.26
5908.00,1.26
5907.00,1.26
5906.00,1.27
5905.00,1.27
5904.00,1.27
5903.00,1.27
5902.00,1.27
5901.00,1.27
5900.00,1.27
5899.00,1.28
5898.00,1.28
5897.00,1.28
5896.00,1.28
5895.00,1.28
5894.00,1.28
5893.00,1.28
5892.00,1.28
5891.00,1.28
5890.00,1.28
5889.00,1.28
5888.00,1.28
5887.00,1.28
5886.00,1.28
5885.00,1.28
5884.00,1.28
5883.00,1.28
5882.00,1.28
5881.00,1.28
5880.00,1.28
5879.00,1.28
5878.00,1.28
5877.00,1.28
5876.00,1.28
5875.00,1.28
5874.00,1.27
5873.00,1.27
5872.00,1.27
5871.00,1.27
5870.00,1.27
5869.00,1.27
5868.00,1.28
5867.00,1.28
5866.00,1.28
5865.00,1.28
5864.00,1.28
5863.00,1.28
5862.00,1.28
5861.00,1.28
5860.00,1.28
5859.00,1.28
5858.00,1.29
5857.00,1.29
5856.00,1.29
5855.00,1.29
5854.00,1.29
5853.00,1.30
5852.00,1.30
5851.00,1.30
5850.00,1.30
5849.00,1.30
5848.00,1.31
5847.00,1.31
5846.00,1.31
5845.00,1.31
5844.00,1.31
5843.00,1.31
5842.00,1.31
5841.00,1.32
5840.00,1.32
5839.00,1.32
5838.00,1.32
5837.00,1.32
5836.00,1.32
5835.00,1.32
5834.00,1.32
5833.00,1.32
5832.00,1.32
5831.00,1.32
5830.00,1.32
5829.00,1.31
5828.00,1.31
5827.00,1.31
5826.00,1.31
5825.00,1.31
5824.00,1.31
5823.00,1.31
5822.00,1.31
5821.00,1.30
5820.00,1.30
5819.00,1.30
5818.00,1.30
5817.00,1.30
5816.00,1.29
5815.00,1.29
5814.00,1.29
5813.00,1.29
5812.00,1.29
5811.00,1.28
5810.00,1.28
5809.00,1.28
5808.00,1.28
5807.00,1.28
5806.00,1.27
5805.00,1.27
5804.00,1.27
5803.00,1.27
5802.00,1.27
5801.00,1.27
5800.00,1.27
5799.00,1.26
5798.00,1.26
5797.00,1.26
5796.00,1.26
5795.00,1.26
5794.00,1.26
5793.00,1.26
5792.00,1.26
5791.00,1.26
5790.00,1.26
5789.00,1.26
5788.00,1.26
5787.00,1.26
5786.00,1.26
5785.00,1.26
5784.00,1.26
5783.00,1.26
5782.00,1.26
5781.00,1.26
5780.00,1.26
5779.00,1.26
5778.00,1.26
5777.00,1.26
5776.00,1.26
5775.00,1.26
5774.00,1.26
5773.00,1.27
5772.00,1.27
5771.00,1.27
5770.00,1.27
5769.00,1.27
5768.00,1.27
5767.00,1.27
5766.00,1.27
5765.00,1.28
5764.00,1.28
5763.00,1.28
5762.00,1.28
5761.00,1.28
5760.00,1.28
5759.00,1.28
5758.00,1.29
5757.00,1.29
5756.00,1.29
5755.00,1.29
5754.00,1.29
5753.00,1.29
5752.00,1.29
5751.00,1.29
5750.00,1.29
5749.00,1.29
5748.00,1.29
5747.00,1.29
5746.00,1.29
5745.00,1.30
5744.00,1.30
5743.00,1.30
5742.00,1.30
5741.00,1.30
5740.00,1.30
5739.00,1.30
5738.00,1.30
5737.00,1.30
5736.00,1.30
5735.00,1.30
5734.00,1.30
5733.00,1.30
5732.00,1.30
5731.00,1.31
5730.00,1.31
5729.00,1.31
5728.00,1.31
5727.00,1.31
5726.00,1.31
5725.00,1.31
5724.00,1.32
5723.00,1.32
5722.00,1.32
5721.00,1.32
5720.00,1.32
5719.00,1.32
5718.00,1.32
5717.00,1.32
5716.00,1.32
5715.00,1.32
5714.00,1.32
5713.00,1.32
5712.00,1.32
5711.00,1.32
5710.00,1.32
5709.00,1.32
5708.00,1.32
5707.00,1.32
5706.00,1.32
5705.00,1.31
5704.00,1.31
5703.00,1.31
5702.00,1.31
5701.00,1.31
5700.00,1.30
5699.00,1.30
5698.00,1.30
5697.00,1.30
5696.00,1.30
5695.00,1.29
5694.00,1.29
5693.00,1.29
5692.00,1.29
5691.00,1.29
5690.00,1.28
5689.00,1.28
5688.00,1.28
5687.00,1.28
5686.00,1.28
5685.00,1.27
5684.00,1.27
5683.00,1.27
5682.00,1.27
5681.00,1.27
5680.00,1.27
5679.00,1.27
5678.00,1.27
5677.00,1.27
5676.00,1.27
5675.00,1.27
5674.00,1.27
5673.00,1.27
5672.00,1.27
5671.00,1.27
5670.00,1.27
5669.00,1.27
5668.00,1.27
5667.00,1.27
5666.00,1.27
5665.00,1.27
5664.00,1.27
5663.00,1.27
5662.00,1.28
5661.00,1.28
5660.00,1.28
5659.00,1.28
5658.00,1.28
5657.00,1.28
5656.00,1.28
5655.00,1.28
5654.00,1.28
5653.00,1.28
5652.00,1.28
5651.00,1.29
5650.00,1.29
5649.00,1.29
5648.00,1.29
5647.00,1.29
5646.00,1.29
5645.00,1.29
5644.00,1.29
5643.00,1.29
5642.00,1.29
5641.00,1.29
5640.00,1.29
5639.00,1.29
5638.00,1.29
5637.00,1.30
5636.00,1.30
5635.00,1.30
5634.00,1.30
5633.00,1.30
5632.00,1.30
5631.00,1.30
5630.00,1.30
5629.00,1.30
5628.00,1.30
5627.00,1.31
5626.00,1.31
5625.00,1.31
5624.00,1.31
5623.00,1.31
5622.00,1.31
5621.00,1.31
5620.00,1.31
5619.00,1.31
5618.00,1.31
5617.00,1.31
5616.00,1.31
5615.00,1.32
5614.00,1.32
5613.00,1.32
5612.00,1.32
5611.00,1.32
5610.00,1.32
5609.00,1.32
5608.00,1.32
5607.00,1.32
5606.00,1.32
5605.00,1.33
5604.00,1.33
5603.00,1.33
5602.00,1.33
5601.00,1.33
5600.00,1.34
5599.00,1.34
5598.00,1.34
5597.00,1.34
5596.00,1.34
5595.00,1.35
5594.00,1.35
5593.00,1.35
5592.00,1.35
5591.00,1.35
5590.00,1.36
5589.00,1.36
5588.00,1.36
5587.00,1.36
5586.00,1.36
5585.00,1.37
5584.00,1.37
5583.00,1.37
5582.00,1.37
5581.00,1.37
5580.00,1.37
5579.00,1.37
5578.00,1.37
5577.00,1.37
5576.00,1.37
5575.00,1.37
5574.00,1.37
5573.00,1.37
5572.00,1.37
5571.00,1.37
5570.00,1.37
5569.00,1.37
5568.00,1.37
5567.00,1.37
5566.00,1.37
5565.00,1.37
5564.00,1.37
5563.00,1.37
5562.00,1.37
5561.00,1.37
5560.00,1.37
5559.00,1.37
5558.00,1.37
5557.00,1.37
5556.00,1.37
5555.00,1.37
5554.00,1.37
5553.00,1.37
5552.00,1.37
5551.00,1.37
5550.00,1.37
5549.00,1.37
5548.00,1.37
5547.00,1.37
5546.00,1.38
5545.00,1.38
5544.00,1.38
5543.00,1.38
5542.00,1.38
5541.00,1.38
5540.00,1.38
5539.00,1.38
5538.00,1.38
5537.00,1.38
5536.00,1.38
5535.00,1.38
5534.00,1.38
5533.00,1.38
5532.00,1.38
5531.00,1.38
5530.00,1.38
5529.00,1.38
5528.00,1.38
5527.00,1.38
5526.00,1.38
5525.00,1.38
5524.00,1.38
5523.00,1.38
5522.00,1.38
5521.00,1.38
5520.00,1.38
5519.00,1.38
5518.00,1.38
5517.00,1.38
5516.00,1.38
5515.00,1.38
5514.00,1.38
5513.00,1.38
5512.00,1.38
5511.00,1.38
5510.00,1.38
5509.00,1.38
5508.00,1.38
5507.00,1.38
5506.00,1.38
5505.00,1.38
5504.00,1.38
5503.00,1.37
5502.00,1.37
5501.00,1.37
5500.00,1.37
5499.00,1.37
5498.00,1.37
5497.00,1.37
5496.00,1.38
5495.00,1.38
5494.00,1.38
5493.00,1.38
5492.00,1.38
5491.00,1.38
5490.00,1.38
5489.00,1.38
5488.00,1.39
5487.00,1.39
5486.00,1.39
5485.00,1.39
5484.00,1.39
5483.00,1.39
5482.00,1.40
5481.00,1.40
5480.00,1.40
5479.00,1.40
5478.00,1.40
5477.00,1.40
5476.00,1.41
5475.00,1.41
5474.00,1.41
5473.00,1.41
5472.00,1.41
5471.00,1.41
5470.00,1.41
5469.00,1.41
5468.00,1.42
5467.00,1.42
5466.00,1.42
5465.00,1.42
5464.00,1.42
5463.00,1.42
5462.00,1.42
5461.00,1.42
5460.00,1.42
5459.00,1.42
5458.00,1.42
5457.00,1.42
5456.00,1.42
5455.00,1.42
5454.00,1.42
5453.00,1.42
5452.00,1.42
5451.00,1.42
5450.00,1.42
5449.00,1.42
5448.00,1.42
5447.00,1.42
5446.00,1.42
5445.00,1.42
5444.00,1.43
5443.00,1.43
5442.00,1.43
5441.00,1.43
5440.00,1.43
5439.00,1.43
5438.00,1.43
5437.00,1.43
5436.00,1.43
5435.00,1.43
5434.00,1.43
5433.00,1.43
5432.00,1.43
5431.00,1.43
5430.00,1.43
5429.00,1.43
5428.00,1.43
5427.00,1.43
5426.00,1.43
5425.00,1.43
5424.00,1.43
5423.00,1.43
5422.00,1.43
5421.00,1.43
5420.00,1.43
5419.00,1.43
5418.00,1.43
5417.00,1.43
5416.00,1.43
5415.00,1.43
5414.00,1.42
5413.00,1.42
5412.00,1.42
5411.00,1.42
5410.00,1.42
5409.00,1.42
5408.00,1.42
5407.00,1.42
5406.00,1.42
5405.00,1.43
5404.00,1.43
5403.00,1.43
5402.00,1.43
5401.00,1.43
5400.00,1.43
5399.00,1.43
5398.00,1.43
5397.00,1.43
5396.00,1.42
5395.00,1.42
5394.00,1.42
5393.00,1.42
5392.00,1.42
5391.00,1.42
5390.00,1.42
5389.00,1.42
5388.00,1.41
5387.00,1.41
5386.00,1.41
5385.00,1.41
5384.00,1.41
5383.00,1.41
5382.00,1.40
5381.00,1.40
5380.00,1.40
5379.00,1.39
5378.00,1.39
5377.00,1.39
5376.00,1.38
5375.00,1.38
5374.00,1.38
5373.00,1.37
5372.00,1.37
5371.00,1.36
5370.00,1.36
5369.00,1.35
5368.00,1.35
5367.00,1.34
5366.00,1.34
5365.00,1.33
5364.00,1.33
5363.00,1.32
5362.00,1.31
5361.00,1.31
5360.00,1.30
5359.00,1.29
5358.00,1.29
5357.00,1.28
5356.00,1.27
5355.00,1.26
5354.00,1.26
5353.00,1.25
5352.00,1.24
5351.00,1.23
5350.00,1.23
5349.00,1.22
5348.00,1.21
5347.00,1.20
5346.00,1.20
5345.00,1.19
5344.00,1.18
5343.00,1.17
5342.00,1.16
5341.00,1.15
5340.00,1.15
5339.00,1.14
5338.00,1.13
5337.00,1.12
5336.00,1.11
5335.00,1.10
5334.00,1.09
5333.00,1.08
5332.00,1.08
5331.00,1.07
5330.00,1.06
5329.00,1.05
5328.00,1.04
5327.00,1.03
5326.00,1.02
5325.00,1.01
5324.00,1.00
5323.00,0.99
5322.00,0.98
5321.00,0.97
5320.00,0.96
5319.00,0.95
5318.00,0.94
5317.00,0.92
5316.00,0.91
5315.00,0.90
5314.00,0.89
5313.00,0.88
5312.00,0.87
5311.00,0.86
5310.00,0.85
5309.00,0.83
5308.00,0.82
5307.00,0.81
5306.00,0.80
5305.00,0.79
5304.00,0.78
5303.00,0.77
5302.00,0.76
5301.00,0.75
5300.00,0.74
5299.00,0.74
5298.00,0.73
5297.00,0.72
5296.00,0.71
5295.00,0.70
5294.00,0.70
5293.00,0.69
5292.00,0.69
5291.00,0.68
5290.00,0.67
5289.00,0.67
5288.00,0.67
5287.00,0.66
5286.00,0.66
5285.00,0.65
5284.00,0.65
5283.00,0.65
5282.00,0.64
5281.00,0.64
5280.00,0.64
5279.00,0.63
5278.00,0.63
5277.00,0.63
5276.00,0.62
5275.00,0.62
5274.00,0.62
5273.00,0.61
5272.00,0.61
5271.00,0.61
5270.00,0.61
5269.00,0.61
5268.00,0.60
5267.00,0.60
5266.00,0.60
5265.00,0.60
5264.00,0.59
5263.00,0.59
5262.00,0.59
5261.00,0.59
5260.00,0.58
5259.00,0.58
5258.00,0.58
5257.00,0.58
5256.00,0.58
5255.00,0.57
5254.00,0.57
5253.00,0.57
5252.00,0.57
5251.00,0.57
5250.00,0.56
5249.00,0.56
5248.00,0.56
5247.00,0.56
5246.00,0.56
5245.00,0.55
5244.00,0.55
5243.00,0.55
5242.00,0.55
5241.00,0.54
5240.00,0.54
5239.00,0.54
5238.00,0.54
5237.00,0.54
5236.00,0.53
5235.00,0.53
5234.00,0.53
5233.00,0.53
5232.00,0.52
5231.00,0.52
5230.00,0.52
5229.00,0.52
5228.00,0.52
5227.00,0.51
5226.00,0.51
5225.00,0.51
5224.00,0.51
5223.00,0.51
5222.00,0.51
5221.00,0.50
5220.00,0.50
5219.00,0.50
5218.00,0.50
5217.00,0.50
5216.00,0.50
5215.00,0.50
5214.00,0.49
5213.00,0.49
5212.00,0.49
5211.00,0.49
5210.00,0.49
5209.00,0.49
5208.00,0.49
5207.00,0.49
5206.00,0.49
5205.00,0.49
5204.00,0.49
5203.00,0.49
5202.00,0.49
5201.00,0.49
5200.00,0.49
5199.00,0.49
5198.00,0.49
5197.00,0.49
5196.00,0.49
5195.00,0.49
5194.00,0.49
5193.00,0.49
5192.00,0.49
5191.00,0.49
5190.00,0.49
5189.00,0.49
5188.00,0.49
5187.00,0.50
5186.00,0.50
5185.00,0.50
5184.00,0.50
5183.00,0.50
5182.00,0.51
5181.00,0.51
5180.00,0.51
5179.00,0.52
5178.00,0.52
5177.00,0.52
5176.00,0.52
5175.00,0.53
5174.00,0.53
5173.00,0.53
5172.00,0.53
5171.00,0.54
5170.00,0.54
5169.00,0.54
5168.00,0.54
5167.00,0.55
5166.00,0.55
5165.00,0.55
5164.00,0.55
5163.00,0.55
5162.00,0.55
5161.00,0.55
5160.00,0.55
5159.00,0.55
5158.00,0.55
5157.00,0.55
5156.00,0.55
5155.00,0.55
5154.00,0.55
5153.00,0.55
5152.00,0.54
5151.00,0.54
5150.00,0.54
5149.00,0.54
5148.00,0.54
5147.00,0.54
5146.00,0.54
5145.00,0.54
5144.00,0.54
5143.00,0.53
5142.00,0.53
5141.00,0.53
5140.00,0.53
5139.00,0.53
5138.00,0.53
5137.00,0.53
5136.00,0.53
5135.00,0.53
5134.00,0.53
5133.00,0.53
5132.00,0.53
5131.00,0.53
5130.00,0.54
5129.00,0.54
5128.00,0.54
5127.00,0.54
5126.00,0.54
5125.00,0.54
5124.00,0.54
5123.00,0.54
5122.00,0.54
5121.00,0.54
5120.00,0.54
5119.00,0.54
5118.00,0.55
5117.00,0.55
5116.00,0.55
5115.00,0.55
5114.00,0.55
5113.00,0.55
5112.00,0.55
5111.00,0.55
5110.00,0.55
5109.00,0.55
5108.00,0.55
5107.00,0.55
5106.00,0.55
5105.00,0.55
5104.00,0.55
5103.00,0.55
5102.00,0.55
5101.00,0.55
5100.00,0.55
5099.00,0.55
5098.00,0.55
5097.00,0.55
5096.00,0.55
5095.00,0.55
5094.00,0.55
5093.00,0.56
5092.00,0.56
5091.00,0.56
5090.00,0.56
5089.00,0.56
5088.00,0.56
5087.00,0.56
5086.00,0.56
5085.00,0.56
5084.00,0.57
5083.00,0.57
5082.00,0.57
5081.00,0.57
5080.00,0.57
5079.00,0.57
5078.00,0.57
5077.00,0.57
5076.00,0.57
5075.00,0.58
5074.00,0.58
5073.00,0.58
5072.00,0.58
5071.00,0.58
5070.00,0.58
5069.00,0.58
5068.00,0.59
5067.00,0.59
5066.00,0.59
5065.00,0.59
5064.00,0.59
5063.00,0.59
5062.00,0.60
5061.00,0.60
5060.00,0.60
5059.00,0.60
5058.00,0.60
5057.00,0.60
5056.00,0.61
5055.00,0.61
5054.00,0.61
5053.00,0.61
5052.00,0.61
5051.00,0.62
5050.00,0.62
5049.00,0.62
5048.00,0.62
5047.00,0.62
5046.00,0.63
5045.00,0.63
5044.00,0.63
5043.00,0.63
5042.00,0.63
5041.00,0.63
5040.00,0.63
5039.00,0.63
5038.00,0.63
5037.00,0.64
5036.00,0.64
5035.00,0.64
5034.00,0.64
5033.00,0.64
5032.00,0.64
5031.00,0.64
5030.00,0.64
5029.00,0.64
5028.00,0.64
5027.00,0.64
5026.00,0.64
5025.00,0.64
5024.00,0.64
5023.00,0.64
5022.00,0.65
5021.00,0.65
5020.00,0.65
5019.00,0.65
5018.00,0.65
5017.00,0.65
5016.00,0.65
5015.00,0.65
5014.00,0.65
5013.00,0.65
5012.00,0.65
5011.00,0.66
5010.00,0.66
5009.00,0.66
5008.00,0.66
5007.00,0.66
5006.00,0.66
5005.00,0.66
5004.00,0.67
5003.00,0.67
5002.00,0.67
5001.00,0.67
5000.00,0.67
4999.00,0.68
4998.00,0.68
4997.00,0.68
4996.00,0.68
4995.00,0.69
4994.00,0.69
4993.00,0.69
4992.00,0.69
4991.00,0.70
4990.00,0.70
4989.00,0.70
4988.00,0.70
4987.00,0.71
4986.00,0.71
4985.00,0.71
4984.00,0.72
4983.00,0.72
4982.00,0.72
4981.00,0.73
4980.00,0.73
4979.00,0.73
4978.00,0.74
4977.00,0.74
4976.00,0.74
4975.00,0.74
4974.00,0.75
4973.00,0.75
4972.00,0.75
4971.00,0.75
4970.00,0.76
4969.00,0.76
4968.00,0.76
4967.00,0.76
4966.00,0.77
4965.00,0.77
4964.00,0.77
4963.00,0.77
4962.00,0.77
4961.00,0.77
4960.00,0.78
4959.00,0.78
4958.00,0.78
4957.00,0.78
4956.00,0.78
4955.00,0.78
4954.00,0.78
4953.00,0.79
4952.00,0.79
4951.00,0.79
4950.00,0.79
4949.00,0.79
4948.00,0.79
4947.00,0.80
4946.00,0.80
4945.00,0.80
4944.00,0.80
4943.00,0.80
4942.00,0.81
4941.00,0.81
4940.00,0.81
4939.00,0.81
4938.00,0.82
4937.00,0.82
4936.00,0.82
4935.00,0.82
4934.00,0.83
4933.00,0.83
4932.00,0.83
4931.00,0.83
4930.00,0.83
4929.00,0.84
4928.00,0.84
4927.00,0.84
4926.00,0.84
4925.00,0.84
4924.00,0.84
4923.00,0.84
4922.00,0.84
4921.00,0.84
4920.00,0.85
4919.00,0.85
4918.00,0.85
4917.00,0.85
4916.00,0.85
4915.00,0.85
4914.00,0.85
4913.00,0.85
4912.00,0.85
4911.00,0.85
4910.00,0.85
4909.00,0.85
4908.00,0.85
4907.00,0.85
4906.00,0.85
4905.00,0.85
4904.00,0.85
4903.00,0.85
4902.00,0.85
4901.00,0.85
4900.00,0.85
4899.00,0.85
4898.00,0.85
4897.00,0.86
4896.00,0.86
4895.00,0.86
4894.00,0.86
4893.00,0.86
4892.00,0.86
4891.00,0.86
4890.00,0.86
4889.00,0.86
4888.00,0.86
4887.00,0.87
4886.00,0.87
4885.00,0.87
4884.00,0.87
4883.00,0.87
4882.00,0.88
4881.00,0.88
4880.00,0.88
4879.00,0.88
4878.00,0.88
4877.00,0.89
4876.00,0.89
4875.00,0.89
4874.00,0.89
4873.00,0.89
4872.00,0.90
4871.00,0.90
4870.00,0.90
4869.00,0.90
4868.00,0.90
4867.00,0.90
4866.00,0.90
4865.00,0.90
4864.00,0.90
4863.00,0.91
4862.00,0.91
4861.00,0.91
4860.00,0.91
4859.00,0.91
4858.00,0.91
4857.00,0.91
4856.00,0.91
4855.00,0.91
4854.00,0.91
4853.00,0.91
4852.00,0.91
4851.00,0.91
4850.00,0.91
4849.00,0.91
4848.00,0.91
4847.00,0.91
4846.00,0.91
4845.00,0.92
4844.00,0.92
4843.00,0.92
4842.00,0.92
4841.00,0.92
4840.00,0.92
4839.00,0.92
4838.00,0.92
4837.00,0.92
4836.00,0.92
4835.00,0.93
4834.00,0.93
4833.00,0.93
4832.00,0.93
4831.00,0.93
4830.00,0.93
4829.00,0.93
4828.00,0.94
4827.00,0.94
4826.00,0.94
4825.00,0.94
4824.00,0.95
4823.00,0.95
4822.00,0.95
4821.00,0.95
4820.00,0.96
4819.00,0.96
4818.00,0.96
4817.00,0.96
4816.00,0.97
4815.00,0.97
4814.00,0.97
4813.00,0.98
4812.00,0.98
4811.00,0.98
4810.00,0.98
4809.00,0.99
4808.00,0.99
4807.00,0.99
4806.00,1.00
4805.00,1.00
4804.00,1.00
4803.00,1.01
4802.00,1.01
4801.00,1.01
4800.00,1.02
4799.00,1.02
4798.00,1.02
4797.00,1.03
4796.00,1.03
4795.00,1.03
4794.00,1.03
4793.00,1.04
4792.00,1.04
4791.00,1.04
4790.00,1.05
4789.00,1.05
4788.00,1.05
4787.00,1.05
4786.00,1.05
4785.00,1.06
4784.00,1.06
4783.00,1.06
4782.00,1.06
4781.00,1.06
4780.00,1.06
4779.00,1.07
4778.00,1.07
4777.00,1.07
4776.00,1.07
4775.00,1.07
4774.00,1.07
4773.00,1.07
4772.00,1.07
4771.00,1.07
4770.00,1.07
4769.00,1.07
4768.00,1.07
4767.00,1.07
4766.00,1.07
4765.00,1.07
4764.00,1.06
4763.00,1.06
4762.00,1.06
4761.00,1.06
4760.00,1.07
4759.00,1.07
4758.00,1.07
4757.00,1.07
4756.00,1.07
4755.00,1.07
4754.00,1.07
4753.00,1.07
4752.00,1.07
4751.00,1.07
4750.00,1.08
4749.00,1.08
4748.00,1.08
4747.00,1.08
4746.00,1.08
4745.00,1.09
4744.00,1.09
4743.00,1.09
4742.00,1.10
4741.00,1.10
4740.00,1.10
4739.00,1.10
4738.00,1.11
4737.00,1.11
4736.00,1.11
4735.00,1.12
4734.00,1.12
4733.00,1.12
4732.00,1.13
4731.00,1.13
4730.00,1.13
4729.00,1.13
4728.00,1.14
4727.00,1.14
4726.00,1.14
4725.00,1.15
4724.00,1.15
4723.00,1.15
4722.00,1.16
4721.00,1.16
4720.00,1.17
4719.00,1.17
4718.00,1.17
4717.00,1.18
4716.00,1.18
4715.00,1.19
4714.00,1.19
4713.00,1.19
4712.00,1.20
4711.00,1.20
4710.00,1.20
4709.00,1.21
4708.00,1.21
4707.00,1.21
4706.00,1.22
4705.00,1.22
4704.00,1.23
4703.00,1.23
4702.00,1.23
4701.00,1.23
4700.00,1.24
4699.00,1.24
4698.00,1.24
4697.00,1.24
4696.00,1.25
4695.00,1.25
4694.00,1.25
4693.00,1.25
4692.00,1.25
4691.00,1.25
4690.00,1.25
4689.00,1.25
4688.00,1.25
4687.00,1.26
4686.00,1.26
4685.00,1.26
4684.00,1.26
4683.00,1.26
4682.00,1.26
4681.00,1.26
4680.00,1.26
4679.00,1.26
4678.00,1.26
4677.00,1.27
4676.00,1.27
4675.00,1.27
4674.00,1.27
4673.00,1.27
4672.00,1.28
4671.00,1.28
4670.00,1.28
4669.00,1.28
4668.00,1.28
4667.00,1.29
4666.00,1.29
4665.00,1.29
4664.00,1.29
4663.00,1.30
4662.00,1.30
4661.00,1.30
4660.00,1.31
4659.00,1.31
4658.00,1.31
4657.00,1.32
4656.00,1.32
4655.00,1.32
4654.00,1.33
4653.00,1.33
4652.00,1.33
4651.00,1.34
4650.00,1.34
4649.00,1.34
4648.00,1.34
4647.00,1.35
4646.00,1.35
4645.00,1.35
4644.00,1.35
4643.00,1.36
4642.00,1.36
4641.00,1.36
4640.00,1.36
4639.00,1.36
4638.00,1.37
4637.00,1.37
4636.00,1.37
4635.00,1.37
4634.00,1.37
4633.00,1.37
4632.00,1.37
4631.00,1.37
4630.00,1.37
4629.00,1.37
4628.00,1.37
4627.00,1.38
4626.00,1.38
4625.00,1.38
4624.00,1.38
4623.00,1.38
4622.00,1.38
4621.00,1.38
4620.00,1.38
4619.00,1.38
4618.00,1.38
4617.00,1.38
4616.00,1.39
4615.00,1.39
4614.00,1.39
4613.00,1.39
4612.00,1.39
4611.00,1.39
4610.00,1.39
4609.00,1.39
4608.00,1.39
4607.00,1.40
4606.00,1.40
4605.00,1.40
4604.00,1.40
4603.00,1.40
4602.00,1.40
4601.00,1.40
4600.00,1.40
4599.00,1.40
4598.00,1.40
4597.00,1.41
4596.00,1.41
4595.00,1.41
4594.00,1.41
4593.00,1.41
4592.00,1.41
4591.00,1.41
4590.00,1.42
4589.00,1.42
4588.00,1.42
4587.00,1.42
4586.00,1.42
4585.00,1.42
4584.00,1.42
4583.00,1.42
4582.00,1.42
4581.00,1.43
4580.00,1.43
4579.00,1.43
4578.00,1.43
4577.00,1.43
4576.00,1.43
4575.00,1.43
4574.00,1.44
4573.00,1.44
4572.00,1.44
4571.00,1.44
4570.00,1.44
4569.00,1.44
4568.00,1.44
4567.00,1.44
4566.00,1.44
4565.00,1.44
4564.00,1.44
4563.00,1.44
4562.00,1.44
4561.00,1.44
4560.00,1.44
4559.00,1.44
4558.00,1.44
4557.00,1.44
4556.00,1.44
4555.00,1.44
4554.00,1.44
4553.00,1.44
4552.00,1.44
4551.00,1.43
4550.00,1.43
4549.00,1.43
4548.00,1.43
4547.00,1.43
4546.00,1.43
4545.00,1.43
4544.00,1.43
4543.00,1.43
4542.00,1.43
4541.00,1.43
4540.00,1.43
4539.00,1.43
4538.00,1.43
4537.00,1.42
4536.00,1.42
4535.00,1.42
4534.00,1.42
4533.00,1.42
4532.00,1.42
4531.00,1.42
4530.00,1.42
4529.00,1.42
4528.00,1.42
4527.00,1.42
4526.00,1.42
4525.00,1.42
4524.00,1.42
4523.00,1.42
4522.00,1.42
4521.00,1.43
4520.00,1.43
4519.00,1.43
4518.00,1.43
4517.00,1.43
4516.00,1.44
4515.00,1.44
4514.00,1.44
4513.00,1.44
4512.00,1.44
4511.00,1.44
4510.00,1.44
4509.00,1.44
4508.00,1.44
4507.00,1.44
4506.00,1.44
4505.00,1.44
4504.00,1.44
4503.00,1.44
4502.00,1.44
4501.00,1.44
4500.00,1.44
4499.00,1.44
4498.00,1.44
4497.00,1.43
4496.00,1.43
4495.00,1.43
4494.00,1.43
4493.00,1.43
4492.00,1.42
4491.00,1.42
4490.00,1.42
4489.00,1.42
4488.00,1.42
4487.00,1.42
4486.00,1.42
4485.00,1.41
4484.00,1.41
4483.00,1.41
4482.00,1.41
4481.00,1.41
4480.00,1.41
4479.00,1.41
4478.00,1.41
4477.00,1.41
4476.00,1.41
4475.00,1.41
4474.00,1.41
4473.00,1.41
4472.00,1.41
4471.00,1.41
4470.00,1.41
4469.00,1.40
4468.00,1.40
4467.00,1.40
4466.00,1.40
4465.00,1.39
4464.00,1.39
4463.00,1.39
4462.00,1.38
4461.00,1.38
4460.00,1.37
4459.00,1.37
4458.00,1.36
4457.00,1.36
4456.00,1.35
4455.00,1.34
4454.00,1.34
4453.00,1.33
4452.00,1.32
4451.00,1.31
4450.00,1.31
4449.00,1.30
4448.00,1.29
4447.00,1.28
4446.00,1.27
4445.00,1.27
4444.00,1.26
4443.00,1.25
4442.00,1.24
4441.00,1.23
4440.00,1.22
4439.00,1.21
4438.00,1.21
4437.00,1.20
4436.00,1.19
4435.00,1.18
4434.00,1.17
4433.00,1.16
4432.00,1.15
4431.00,1.14
4430.00,1.13
4429.00,1.12
4428.00,1.12
4427.00,1.11
4426.00,1.10
4425.00,1.09
4424.00,1.09
4423.00,1.08
4422.00,1.07
4421.00,1.07
4420.00,1.06
4419.00,1.06
4418.00,1.05
4417.00,1.05
4416.00,1.05
4415.00,1.04
4414.00,1.04
4413.00,1.04
4412.00,1.04
4411.00,1.04
4410.00,1.04
4409.00,1.04
4408.00,1.04
4407.00,1.05
4406.00,1.05
4405.00,1.05
4404.00,1.06
4403.00,1.06
4402.00,1.06
4401.00,1.07
4400.00,1.07
4399.00,1.08
4398.00,1.09
4397.00,1.09
4396.00,1.10
4395.00,1.11
4394.00,1.11
4393.00,1.12
4392.00,1.13
4391.00,1.13
4390.00,1.14
4389.00,1.14
4388.00,1.15
4387.00,1.15
4386.00,1.16
4385.00,1.16
4384.00,1.17
4383.00,1.17
4382.00,1.18
4381.00,1.18
4380.00,1.18
4379.00,1.19
4378.00,1.19
4377.00,1.19
4376.00,1.19
4375.00,1.19
4374.00,1.19
4373.00,1.19
4372.00,1.19
4371.00,1.19
4370.00,1.19
4369.00,1.19
4368.00,1.19
4367.00,1.19
4366.00,1.18
4365.00,1.18
4364.00,1.18
4363.00,1.18
4362.00,1.17
4361.00,1.17
4360.00,1.16
4359.00,1.16
4358.00,1.16
4357.00,1.15
4356.00,1.15
4355.00,1.14
4354.00,1.14
4353.00,1.14
4352.00,1.13
4351.00,1.13
4350.00,1.13
4349.00,1.12
4348.00,1.12
4347.00,1.12
4346.00,1.12
4345.00,1.11
4344.00,1.11
4343.00,1.11
4342.00,1.11
4341.00,1.11
4340.00,1.12
4339.00,1.12
4338.00,1.12
4337.00,1.12
4336.00,1.12
4335.00,1.13
4334.00,1.13
4333.00,1.13
4332.00,1.14
4331.00,1.14
4330.00,1.15
4329.00,1.15
4328.00,1.16
4327.00,1.16
4326.00,1.17
4325.00,1.18
4324.00,1.18
4323.00,1.19
4322.00,1.20
4321.00,1.21
4320.00,1.21
4319.00,1.22
4318.00,1.23
4317.00,1.23
4316.00,1.24
4315.00,1.24
4314.00,1.25
4313.00,1.26
4312.00,1.26
4311.00,1.27
4310.00,1.27
4309.00,1.28
4308.00,1.29
4307.00,1.29
4306.00,1.30
4305.00,1.30
4304.00,1.31
4303.00,1.31
4302.00,1.31
4301.00,1.32
4300.00,1.32
4299.00,1.32
4298.00,1.32
4297.00,1.33
4296.00,1.33
4295.00,1.33
4294.00,1.33
4293.00,1.33
4292.00,1.33
4291.00,1.33
4290.00,1.34
4289.00,1.34
4288.00,1.34
4287.00,1.34
4286.00,1.34
4285.00,1.34
4284.00,1.34
4283.00,1.34
4282.00,1.33
4281.00,1.33
4280.00,1.33
4279.00,1.33
4278.00,1.33
4277.00,1.32
4276.00,1.32
4275.00,1.32
4274.00,1.32
4273.00,1.32
4272.00,1.31
4271.00,1.31
4270.00,1.31
4269.00,1.31
4268.00,1.30
4267.00,1.30
4266.00,1.30
4265.00,1.30
4264.00,1.29
4263.00,1.29
4262.00,1.29
4261.00,1.28
4260.00,1.28
4259.00,1.28
4258.00,1.27
4257.00,1.27
4256.00,1.27
4255.00,1.26
4254.00,1.26
4253.00,1.26
4252.00,1.26
4251.00,1.25
4250.00,1.25
4249.00,1.25
4248.00,1.25
4247.00,1.25
4246.00,1.24
4245.00,1.24
4244.00,1.24
4243.00,1.24
4242.00,1.24
4241.00,1.24
4240.00,1.23
4239.00,1.23
4238.00,1.23
4237.00,1.23
4236.00,1.23
4235.00,1.23
4234.00,1.24
4233.00,1.24
4232.00,1.24
4231.00,1.24
4230.00,1.24
4229.00,1.24
4228.00,1.24
4227.00,1.25
4226.00,1.25
4225.00,1.25
4224.00,1.26
4223.00,1.26
4222.00,1.26
4221.00,1.27
4220.00,1.27
4219.00,1.27
4218.00,1.28
4217.00,1.28
4216.00,1.28
4215.00,1.29
4214.00,1.29
4213.00,1.30
4212.00,1.30
4211.00,1.30
4210.00,1.31
4209.00,1.31
4208.00,1.31
4207.00,1.32
4206.00,1.32
4205.00,1.32
4204.00,1.33
4203.00,1.33
4202.00,1.33
4201.00,1.34
4200.00,1.34
4199.00,1.34
4198.00,1.34
4197.00,1.34
4196.00,1.34
4195.00,1.35
4194.00,1.35
4193.00,1.35
4192.00,1.35
4191.00,1.35
4190.00,1.35
4189.00,1.35
4188.00,1.35
4187.00,1.34
4186.00,1.34
4185.00,1.34
4184.00,1.34
4183.00,1.34
4182.00,1.34
4181.00,1.33
4180.00,1.33
4179.00,1.33
4178.00,1.32
4177.00,1.32
4176.00,1.32
4175.00,1.31
4174.00,1.31
4173.00,1.30
4172.00,1.30
4171.00,1.30
4170.00,1.29
4169.00,1.29
4168.00,1.29
4167.00,1.28
4166.00,1.28
4165.00,1.28
4164.00,1.27
4163.00,1.27
4162.00,1.26
4161.00,1.26
4160.00,1.26
4159.00,1.25
4158.00,1.25
4157.00,1.25
4156.00,1.25
4155.00,1.24
4154.00,1.24
4153.00,1.24
4152.00,1.24
4151.00,1.23
4150.00,1.23
4149.00,1.23
4148.00,1.23
4147.00,1.23
4146.00,1.23
4145.00,1.23
4144.00,1.23
4143.00,1.23
4142.00,1.23
4141.00,1.23
4140.00,1.23
4139.00,1.23
4138.00,1.22
4137.00,1.22
4136.00,1.22
4135.00,1.22
4134.00,1.22
4133.00,1.22
4132.00,1.22
4131.00,1.22
4130.00,1.22
4129.00,1.22
4128.00,1.22
4127.00,1.23
4126.00,1.23
4125.00,1.23
4124.00,1.23
4123.00,1.23
4122.00,1.24
4121.00,1.24
4120.00,1.24
4119.00,1.24
4118.00,1.24
4117.00,1.24
4116.00,1.24
4115.00,1.24
4114.00,1.24
4113.00,1.24
4112.00,1.24
4111.00,1.24
4110.00,1.25
4109.00,1.25
4108.00,1.25
4107.00,1.25
4106.00,1.26
4105.00,1.26
4104.00,1.26
4103.00,1.26
4102.00,1.26
4101.00,1.26
4100.00,1.26
4099.00,1.26
4098.00,1.26
4097.00,1.26
4096.00,1.26
4095.00,1.26
4094.00,1.25
4093.00,1.25
4092.00,1.25
4091.00,1.25
4090.00,1.25
4089.00,1.25
4088.00,1.25
4087.00,1.24
4086.00,1.24
4085.00,1.24
4084.00,1.24
4083.00,1.24
4082.00,1.24
4081.00,1.23
4080.00,1.23
4079.00,1.23
4078.00,1.23
4077.00,1.22
4076.00,1.22
4075.00,1.22
4074.00,1.21
4073.00,1.21
4072.00,1.21
4071.00,1.21
4070.00,1.21
4069.00,1.21
4068.00,1.21
4067.00,1.21
4066.00,1.21
4065.00,1.21
4064.00,1.21
4063.00,1.21
4062.00,1.22
4061.00,1.22
4060.00,1.22
4059.00,1.22
4058.00,1.22
4057.00,1.23
4056.00,1.23
4055.00,1.23
4054.00,1.23
4053.00,1.24
4052.00,1.24
4051.00,1.24
4050.00,1.25
4049.00,1.25
4048.00,1.26
4047.00,1.27
4046.00,1.27
4045.00,1.28
4044.00,1.28
4043.00,1.29
4042.00,1.30
4041.00,1.30
4040.00,1.31
4039.00,1.31
4038.00,1.32
4037.00,1.32
4036.00,1.33
4035.00,1.33
4034.00,1.34
4033.00,1.34
4032.00,1.34
4031.00,1.35
4030.00,1.35
4029.00,1.36
4028.00,1.36
4027.00,1.37
4026.00,1.37
4025.00,1.37
4024.00,1.37
4023.00,1.38
4022.00,1.38
4021.00,1.38
4020.00,1.38
4019.00,1.38
4018.00,1.38
4017.00,1.39
4016.00,1.39
4015.00,1.39
4014.00,1.40
4013.00,1.40
4012.00,1.40
4011.00,1.41
4010.00,1.41
4009.00,1.41
4008.00,1.42
4007.00,1.42
4006.00,1.43
4005.00,1.43
4004.00,1.44
4003.00,1.44
4002.00,1.45
4001.00,1.46
4000.00,1.46
