创建为新数据集,样品 049 用户 Administrator 日期 星期五, 七月 26 2019
cm-1,%T
10000.00,1.73
9999.00,1.72
9998.00,1.72
9997.00,1.71
9996.00,1.70
9995.00,1.70
9994.00,1.69
9993.00,1.69
9992.00,1.68
9991.00,1.68
9990.00,1.67
9989.00,1.67
9988.00,1.66
9987.00,1.66
9986.00,1.65
9985.00,1.65
9984.00,1.64
9983.00,1.63
9982.00,1.63
9981.00,1.62
9980.00,1.62
9979.00,1.62
9978.00,1.61
9977.00,1.61
9976.00,1.61
9975.00,1.61
9974.00,1.60
9973.00,1.60
9972.00,1.60
9971.00,1.60
9970.00,1.60
9969.00,1.60
9968.00,1.60
9967.00,1.59
9966.00,1.59
9965.00,1.59
9964.00,1.59
9963.00,1.59
9962.00,1.59
9961.00,1.59
9960.00,1.59
9959.00,1.60
9958.00,1.60
9957.00,1.60
9956.00,1.60
9955.00,1.60
9954.00,1.60
9953.00,1.60
9952.00,1.60
9951.00,1.59
9950.00,1.59
9949.00,1.58
9948.00,1.58
9947.00,1.57
9946.00,1.57
9945.00,1.56
9944.00,1.55
9943.00,1.55
9942.00,1.54
9941.00,1.53
9940.00,1.53
9939.00,1.52
9938.00,1.51
9937.00,1.51
9936.00,1.50
9935.00,1.49
9934.00,1.49
9933.00,1.48
9932.00,1.47
9931.00,1.47
9930.00,1.47
9929.00,1.46
9928.00,1.46
9927.00,1.46
9926.00,1.46
9925.00,1.47
9924.00,1.47
9923.00,1.48
9922.00,1.48
9921.00,1.49
9920.00,1.50
9919.00,1.50
9918.00,1.51
9917.00,1.52
9916.00,1.53
9915.00,1.53
9914.00,1.54
9913.00,1.55
9912.00,1.56
9911.00,1.57
9910.00,1.57
9909.00,1.58
9908.00,1.59
9907.00,1.60
9906.00,1.61
9905.00,1.61
9904.00,1.62
9903.00,1.62
9902.00,1.63
9901.00,1.63
9900.00,1.63
9899.00,1.64
9898.00,1.64
9897.00,1.64
9896.00,1.64
9895.00,1.64
9894.00,1.64
9893.00,1.64
9892.00,1.64
9891.00,1.64
9890.00,1.65
9889.00,1.65
9888.00,1.65
9887.00,1.65
9886.00,1.65
9885.00,1.65
9884.00,1.66
9883.00,1.66
9882.00,1.66
9881.00,1.66
9880.00,1.66
9879.00,1.66
9878.00,1.66
9877.00,1.66
9876.00,1.66
9875.00,1.67
9874.00,1.67
9873.00,1.67
9872.00,1.67
9871.00,1.67
9870.00,1.67
9869.00,1.67
9868.00,1.67
9867.00,1.67
9866.00,1.67
9865.00,1.67
9864.00,1.67
9863.00,1.66
9862.00,1.66
9861.00,1.66
9860.00,1.66
9859.00,1.66
9858.00,1.66
9857.00,1.65
9856.00,1.65
9855.00,1.65
9854.00,1.65
9853.00,1.65
9852.00,1.65
9851.00,1.65
9850.00,1.65
9849.00,1.65
9848.00,1.65
9847.00,1.65
9846.00,1.66
9845.00,1.66
9844.00,1.66
9843.00,1.66
9842.00,1.66
9841.00,1.66
9840.00,1.65
9839.00,1.65
9838.00,1.65
9837.00,1.65
9836.00,1.65
9835.00,1.65
9834.00,1.65
9833.00,1.65
9832.00,1.65
9831.00,1.65
9830.00,1.65
9829.00,1.64
9828.00,1.64
9827.00,1.64
9826.00,1.64
9825.00,1.63
9824.00,1.63
9823.00,1.63
9822.00,1.63
9821.00,1.62
9820.00,1.62
9819.00,1.62
9818.00,1.61
9817.00,1.61
9816.00,1.61
9815.00,1.60
9814.00,1.60
9813.00,1.59
9812.00,1.59
9811.00,1.58
9810.00,1.58
9809.00,1.57
9808.00,1.57
9807.00,1.56
9806.00,1.56
9805.00,1.55
9804.00,1.55
9803.00,1.54
9802.00,1.54
9801.00,1.53
9800.00,1.53
9799.00,1.52
9798.00,1.52
9797.00,1.52
9796.00,1.51
9795.00,1.51
9794.00,1.51
9793.00,1.50
9792.00,1.50
9791.00,1.50
9790.00,1.50
9789.00,1.50
9788.00,1.50
9787.00,1.50
9786.00,1.50
9785.00,1.50
9784.00,1.51
9783.00,1.51
9782.00,1.51
9781.00,1.51
9780.00,1.52
9779.00,1.52
9778.00,1.52
9777.00,1.52
9776.00,1.52
9775.00,1.53
9774.00,1.53
9773.00,1.53
9772.00,1.53
9771.00,1.53
9770.00,1.53
9769.00,1.53
9768.00,1.53
9767.00,1.53
9766.00,1.53
9765.00,1.53
9764.00,1.53
9763.00,1.53
9762.00,1.53
9761.00,1.53
9760.00,1.53
9759.00,1.52
9758.00,1.52
9757.00,1.52
9756.00,1.52
9755.00,1.52
9754.00,1.52
9753.00,1.52
9752.00,1.52
9751.00,1.52
9750.00,1.52
9749.00,1.51
9748.00,1.51
9747.00,1.51
9746.00,1.51
9745.00,1.51
9744.00,1.51
9743.00,1.51
9742.00,1.51
9741.00,1.51
9740.00,1.51
9739.00,1.51
9738.00,1.50
9737.00,1.50
9736.00,1.50
9735.00,1.50
9734.00,1.49
9733.00,1.49
9732.00,1.49
9731.00,1.48
9730.00,1.48
9729.00,1.47
9728.00,1.47
9727.00,1.47
9726.00,1.46
9725.00,1.46
9724.00,1.45
9723.00,1.45
9722.00,1.45
9721.00,1.44
9720.00,1.44
9719.00,1.44
9718.00,1.44
9717.00,1.43
9716.00,1.43
9715.00,1.43
9714.00,1.43
9713.00,1.43
9712.00,1.43
9711.00,1.43
9710.00,1.43
9709.00,1.43
9708.00,1.43
9707.00,1.43
9706.00,1.43
9705.00,1.43
9704.00,1.44
9703.00,1.44
9702.00,1.44
9701.00,1.44
9700.00,1.45
9699.00,1.45
9698.00,1.45
9697.00,1.46
9696.00,1.46
9695.00,1.46
9694.00,1.46
9693.00,1.47
9692.00,1.47
9691.00,1.47
9690.00,1.47
9689.00,1.47
9688.00,1.47
9687.00,1.47
9686.00,1.47
9685.00,1.48
9684.00,1.48
9683.00,1.48
9682.00,1.48
9681.00,1.49
9680.00,1.49
9679.00,1.49
9678.00,1.50
9677.00,1.50
9676.00,1.50
9675.00,1.51
9674.00,1.51
9673.00,1.51
9672.00,1.51
9671.00,1.52
9670.00,1.52
9669.00,1.52
9668.00,1.52
9667.00,1.53
9666.00,1.53
9665.00,1.53
9664.00,1.54
9663.00,1.54
9662.00,1.54
9661.00,1.54
9660.00,1.54
9659.00,1.54
9658.00,1.54
9657.00,1.54
9656.00,1.54
9655.00,1.54
9654.00,1.53
9653.00,1.53
9652.00,1.53
9651.00,1.52
9650.00,1.52
9649.00,1.51
9648.00,1.51
9647.00,1.51
9646.00,1.50
9645.00,1.50
9644.00,1.49
9643.00,1.49
9642.00,1.49
9641.00,1.48
9640.00,1.48
9639.00,1.47
9638.00,1.47
9637.00,1.46
9636.00,1.46
9635.00,1.46
9634.00,1.45
9633.00,1.45
9632.00,1.45
9631.00,1.45
9630.00,1.45
9629.00,1.46
9628.00,1.46
9627.00,1.46
9626.00,1.47
9625.00,1.47
9624.00,1.48
9623.00,1.48
9622.00,1.49
9621.00,1.50
9620.00,1.50
9619.00,1.51
9618.00,1.52
9617.00,1.53
9616.00,1.53
9615.00,1.54
9614.00,1.55
9613.00,1.56
9612.00,1.56
9611.00,1.57
9610.00,1.58
9609.00,1.58
9608.00,1.59
9607.00,1.59
9606.00,1.60
9605.00,1.60
9604.00,1.60
9603.00,1.60
9602.00,1.60
9601.00,1.60
9600.00,1.60
9599.00,1.60
9598.00,1.60
9597.00,1.59
9596.00,1.59
9595.00,1.58
9594.00,1.58
9593.00,1.57
9592.00,1.56
9591.00,1.56
9590.00,1.55
9589.00,1.54
9588.00,1.53
9587.00,1.53
9586.00,1.52
9585.00,1.51
9584.00,1.50
9583.00,1.50
9582.00,1.49
9581.00,1.49
9580.00,1.48
9579.00,1.48
9578.00,1.47
9577.00,1.47
9576.00,1.47
9575.00,1.46
9574.00,1.46
9573.00,1.46
9572.00,1.45
9571.00,1.45
9570.00,1.45
9569.00,1.45
9568.00,1.45
9567.00,1.45
9566.00,1.45
9565.00,1.45
9564.00,1.45
9563.00,1.45
9562.00,1.45
9561.00,1.45
9560.00,1.45
9559.00,1.45
9558.00,1.46
9557.00,1.46
9556.00,1.46
9555.00,1.46
9554.00,1.46
9553.00,1.46
9552.00,1.46
9551.00,1.46
9550.00,1.46
9549.00,1.46
9548.00,1.46
9547.00,1.46
9546.00,1.46
9545.00,1.46
9544.00,1.47
9543.00,1.47
9542.00,1.47
9541.00,1.47
9540.00,1.47
9539.00,1.47
9538.00,1.47
9537.00,1.48
9536.00,1.48
9535.00,1.48
9534.00,1.48
9533.00,1.49
9532.00,1.49
9531.00,1.49
9530.00,1.50
9529.00,1.50
9528.00,1.50
9527.00,1.50
9526.00,1.51
9525.00,1.51
9524.00,1.51
9523.00,1.52
9522.00,1.52
9521.00,1.52
9520.00,1.53
9519.00,1.53
9518.00,1.53
9517.00,1.53
9516.00,1.54
9515.00,1.54
9514.00,1.54
9513.00,1.54
9512.00,1.54
9511.00,1.54
9510.00,1.54
9509.00,1.54
9508.00,1.54
9507.00,1.54
9506.00,1.54
9505.00,1.54
9504.00,1.54
9503.00,1.54
9502.00,1.54
9501.00,1.54
9500.00,1.53
9499.00,1.53
9498.00,1.53
9497.00,1.52
9496.00,1.52
9495.00,1.52
9494.00,1.51
9493.00,1.51
9492.00,1.50
9491.00,1.50
9490.00,1.50
9489.00,1.50
9488.00,1.49
9487.00,1.49
9486.00,1.49
9485.00,1.49
9484.00,1.49
9483.00,1.49
9482.00,1.49
9481.00,1.49
9480.00,1.49
9479.00,1.49
9478.00,1.49
9477.00,1.50
9476.00,1.50
9475.00,1.50
9474.00,1.50
9473.00,1.51
9472.00,1.51
9471.00,1.52
9470.00,1.52
9469.00,1.53
9468.00,1.53
9467.00,1.54
9466.00,1.54
9465.00,1.55
9464.00,1.55
9463.00,1.55
9462.00,1.56
9461.00,1.56
9460.00,1.56
9459.00,1.56
9458.00,1.56
9457.00,1.56
9456.00,1.55
9455.00,1.55
9454.00,1.55
9453.00,1.55
9452.00,1.54
9451.00,1.54
9450.00,1.54
9449.00,1.53
9448.00,1.52
9447.00,1.52
9446.00,1.51
9445.00,1.51
9444.00,1.50
9443.00,1.49
9442.00,1.49
9441.00,1.48
9440.00,1.48
9439.00,1.48
9438.00,1.48
9437.00,1.47
9436.00,1.47
9435.00,1.47
9434.00,1.47
9433.00,1.47
9432.00,1.47
9431.00,1.47
9430.00,1.47
9429.00,1.47
9428.00,1.47
9427.00,1.48
9426.00,1.48
9425.00,1.48
9424.00,1.49
9423.00,1.49
9422.00,1.49
9421.00,1.50
9420.00,1.50
9419.00,1.50
9418.00,1.51
9417.00,1.51
9416.00,1.51
9415.00,1.52
9414.00,1.52
9413.00,1.52
9412.00,1.52
9411.00,1.52
9410.00,1.52
9409.00,1.52
9408.00,1.52
9407.00,1.52
9406.00,1.52
9405.00,1.52
9404.00,1.52
9403.00,1.52
9402.00,1.52
9401.00,1.52
9400.00,1.52
9399.00,1.52
9398.00,1.52
9397.00,1.52
9396.00,1.52
9395.00,1.52
9394.00,1.52
9393.00,1.53
9392.00,1.53
9391.00,1.53
9390.00,1.53
9389.00,1.54
9388.00,1.54
9387.00,1.54
9386.00,1.54
9385.00,1.54
9384.00,1.54
9383.00,1.55
9382.00,1.55
9381.00,1.55
9380.00,1.55
9379.00,1.55
9378.00,1.56
9377.00,1.56
9376.00,1.56
9375.00,1.56
9374.00,1.57
9373.00,1.57
9372.00,1.57
9371.00,1.57
9370.00,1.57
9369.00,1.56
9368.00,1.56
9367.00,1.56
9366.00,1.56
9365.00,1.56
9364.00,1.55
9363.00,1.55
9362.00,1.55
9361.00,1.55
9360.00,1.55
9359.00,1.54
9358.00,1.54
9357.00,1.54
9356.00,1.54
9355.00,1.54
9354.00,1.53
9353.00,1.53
9352.00,1.53
9351.00,1.53
9350.00,1.53
9349.00,1.53
9348.00,1.53
9347.00,1.53
9346.00,1.53
9345.00,1.53
9344.00,1.53
9343.00,1.53
9342.00,1.53
9341.00,1.54
9340.00,1.54
9339.00,1.54
9338.00,1.54
9337.00,1.55
9336.00,1.55
9335.00,1.55
9334.00,1.56
9333.00,1.56
9332.00,1.56
9331.00,1.57
9330.00,1.57
9329.00,1.57
9328.00,1.57
9327.00,1.58
9326.00,1.58
9325.00,1.58
9324.00,1.58
9323.00,1.58
9322.00,1.58
9321.00,1.58
9320.00,1.58
9319.00,1.58
9318.00,1.57
9317.00,1.57
9316.00,1.57
9315.00,1.57
9314.00,1.57
9313.00,1.56
9312.00,1.56
9311.00,1.56
9310.00,1.56
9309.00,1.55
9308.00,1.55
9307.00,1.55
9306.00,1.55
9305.00,1.55
9304.00,1.55
9303.00,1.54
9302.00,1.54
9301.00,1.54
9300.00,1.55
9299.00,1.55
9298.00,1.55
9297.00,1.55
9296.00,1.55
9295.00,1.55
9294.00,1.55
9293.00,1.55
9292.00,1.56
9291.00,1.56
9290.00,1.56
9289.00,1.56
9288.00,1.56
9287.00,1.56
9286.00,1.57
9285.00,1.57
9284.00,1.57
9283.00,1.57
9282.00,1.57
9281.00,1.57
9280.00,1.57
9279.00,1.57
9278.00,1.56
9277.00,1.56
9276.00,1.56
9275.00,1.55
9274.00,1.55
9273.00,1.55
9272.00,1.54
9271.00,1.54
9270.00,1.54
9269.00,1.53
9268.00,1.53
9267.00,1.52
9266.00,1.52
9265.00,1.52
9264.00,1.51
9263.00,1.51
9262.00,1.50
9261.00,1.49
9260.00,1.49
9259.00,1.48
9258.00,1.47
9257.00,1.47
9256.00,1.46
9255.00,1.46
9254.00,1.45
9253.00,1.45
9252.00,1.45
9251.00,1.44
9250.00,1.44
9249.00,1.44
9248.00,1.44
9247.00,1.44
9246.00,1.44
9245.00,1.43
9244.00,1.43
9243.00,1.43
9242.00,1.43
9241.00,1.43
9240.00,1.44
9239.00,1.44
9238.00,1.44
9237.00,1.45
9236.00,1.46
9235.00,1.46
9234.00,1.47
9233.00,1.48
9232.00,1.49
9231.00,1.50
9230.00,1.51
9229.00,1.52
9228.00,1.52
9227.00,1.53
9226.00,1.54
9225.00,1.54
9224.00,1.55
9223.00,1.56
9222.00,1.56
9221.00,1.57
9220.00,1.57
9219.00,1.58
9218.00,1.58
9217.00,1.58
9216.00,1.59
9215.00,1.59
9214.00,1.59
9213.00,1.59
9212.00,1.59
9211.00,1.59
9210.00,1.59
9209.00,1.58
9208.00,1.58
9207.00,1.58
9206.00,1.57
9205.00,1.57
9204.00,1.56
9203.00,1.56
9202.00,1.56
9201.00,1.55
9200.00,1.55
9199.00,1.55
9198.00,1.55
9197.00,1.54
9196.00,1.54
9195.00,1.54
9194.00,1.54
9193.00,1.54
9192.00,1.53
9191.00,1.53
9190.00,1.53
9189.00,1.53
9188.00,1.53
9187.00,1.53
9186.00,1.53
9185.00,1.54
9184.00,1.54
9183.00,1.54
9182.00,1.54
9181.00,1.54
9180.00,1.55
9179.00,1.55
9178.00,1.55
9177.00,1.56
9176.00,1.56
9175.00,1.56
9174.00,1.57
9173.00,1.57
9172.00,1.58
9171.00,1.59
9170.00,1.59
9169.00,1.60
9168.00,1.61
9167.00,1.61
9166.00,1.62
9165.00,1.63
9164.00,1.63
9163.00,1.64
9162.00,1.64
9161.00,1.65
9160.00,1.65
9159.00,1.66
9158.00,1.66
9157.00,1.67
9156.00,1.67
9155.00,1.68
9154.00,1.68
9153.00,1.68
9152.00,1.68
9151.00,1.68
9150.00,1.68
9149.00,1.68
9148.00,1.68
9147.00,1.67
9146.00,1.67
9145.00,1.66
9144.00,1.66
9143.00,1.65
9142.00,1.64
9141.00,1.63
9140.00,1.63
9139.00,1.62
9138.00,1.61
9137.00,1.60
9136.00,1.59
9135.00,1.58
9134.00,1.57
9133.00,1.56
9132.00,1.56
9131.00,1.55
9130.00,1.54
9129.00,1.53
9128.00,1.52
9127.00,1.52
9126.00,1.51
9125.00,1.50
9124.00,1.50
9123.00,1.49
9122.00,1.49
9121.00,1.48
9120.00,1.48
9119.00,1.48
9118.00,1.47
9117.00,1.47
9116.00,1.47
9115.00,1.47
9114.00,1.47
9113.00,1.47
9112.00,1.47
9111.00,1.47
9110.00,1.47
9109.00,1.47
9108.00,1.47
9107.00,1.47
9106.00,1.47
9105.00,1.47
9104.00,1.47
9103.00,1.47
9102.00,1.47
9101.00,1.47
9100.00,1.47
9099.00,1.47
9098.00,1.48
9097.00,1.48
9096.00,1.48
9095.00,1.48
9094.00,1.48
9093.00,1.48
9092.00,1.48
9091.00,1.49
9090.00,1.49
9089.00,1.49
9088.00,1.49
9087.00,1.49
9086.00,1.49
9085.00,1.49
9084.00,1.49
9083.00,1.49
9082.00,1.49
9081.00,1.49
9080.00,1.49
9079.00,1.49
9078.00,1.49
9077.00,1.50
9076.00,1.50
9075.00,1.50
9074.00,1.50
9073.00,1.50
9072.00,1.50
9071.00,1.50
9070.00,1.50
9069.00,1.51
9068.00,1.51
9067.00,1.51
9066.00,1.51
9065.00,1.51
9064.00,1.51
9063.00,1.51
9062.00,1.51
9061.00,1.52
9060.00,1.52
9059.00,1.52
9058.00,1.52
9057.00,1.52
9056.00,1.52
9055.00,1.52
9054.00,1.52
9053.00,1.51
9052.00,1.51
9051.00,1.51
9050.00,1.51
9049.00,1.51
9048.00,1.51
9047.00,1.50
9046.00,1.50
9045.00,1.50
9044.00,1.50
9043.00,1.50
9042.00,1.50
9041.00,1.49
9040.00,1.49
9039.00,1.49
9038.00,1.49
9037.00,1.49
9036.00,1.49
9035.00,1.49
9034.00,1.49
9033.00,1.49
9032.00,1.49
9031.00,1.50
9030.00,1.50
9029.00,1.50
9028.00,1.51
9027.00,1.51
9026.00,1.52
9025.00,1.52
9024.00,1.53
9023.00,1.53
9022.00,1.54
9021.00,1.54
9020.00,1.55
9019.00,1.56
9018.00,1.57
9017.00,1.57
9016.00,1.58
9015.00,1.59
9014.00,1.59
9013.00,1.60
9012.00,1.60
9011.00,1.61
9010.00,1.62
9009.00,1.62
9008.00,1.63
9007.00,1.63
9006.00,1.64
9005.00,1.65
9004.00,1.65
9003.00,1.66
9002.00,1.66
9001.00,1.67
9000.00,1.67
8999.00,1.67
8998.00,1.68
8997.00,1.68
8996.00,1.68
8995.00,1.68
8994.00,1.68
8993.00,1.68
8992.00,1.68
8991.00,1.68
8990.00,1.68
8989.00,1.68
8988.00,1.68
8987.00,1.68
8986.00,1.68
8985.00,1.68
8984.00,1.68
8983.00,1.68
8982.00,1.68
8981.00,1.68
8980.00,1.68
8979.00,1.68
8978.00,1.68
8977.00,1.67
8976.00,1.67
8975.00,1.67
8974.00,1.67
8973.00,1.66
8972.00,1.66
8971.00,1.66
8970.00,1.66
8969.00,1.66
8968.00,1.65
8967.00,1.65
8966.00,1.65
8965.00,1.65
8964.00,1.65
8963.00,1.64
8962.00,1.64
8961.00,1.64
8960.00,1.64
8959.00,1.63
8958.00,1.63
8957.00,1.63
8956.00,1.62
8955.00,1.62
8954.00,1.62
8953.00,1.61
8952.00,1.61
8951.00,1.61
8950.00,1.60
8949.00,1.60
8948.00,1.59
8947.00,1.59
8946.00,1.58
8945.00,1.58
8944.00,1.58
8943.00,1.57
8942.00,1.57
8941.00,1.57
8940.00,1.56
8939.00,1.56
8938.00,1.55
8937.00,1.55
8936.00,1.55
8935.00,1.54
8934.00,1.54
8933.00,1.54
8932.00,1.53
8931.00,1.53
8930.00,1.53
8929.00,1.53
8928.00,1.52
8927.00,1.52
8926.00,1.52
8925.00,1.52
8924.00,1.52
8923.00,1.52
8922.00,1.52
8921.00,1.52
8920.00,1.52
8919.00,1.52
8918.00,1.52
8917.00,1.52
8916.00,1.52
8915.00,1.52
8914.00,1.52
8913.00,1.52
8912.00,1.52
8911.00,1.52
8910.00,1.52
8909.00,1.52
8908.00,1.52
8907.00,1.52
8906.00,1.52
8905.00,1.52
8904.00,1.52
8903.00,1.52
8902.00,1.52
8901.00,1.52
8900.00,1.52
8899.00,1.52
8898.00,1.52
8897.00,1.52
8896.00,1.52
8895.00,1.52
8894.00,1.52
8893.00,1.51
8892.00,1.51
8891.00,1.51
8890.00,1.51
8889.00,1.50
8888.00,1.50
8887.00,1.50
8886.00,1.50
8885.00,1.50
8884.00,1.50
8883.00,1.50
8882.00,1.50
8881.00,1.50
8880.00,1.49
8879.00,1.49
8878.00,1.49
8877.00,1.48
8876.00,1.48
8875.00,1.48
8874.00,1.48
8873.00,1.48
8872.00,1.48
8871.00,1.48
8870.00,1.48
8869.00,1.48
8868.00,1.48
8867.00,1.48
8866.00,1.48
8865.00,1.48
8864.00,1.48
8863.00,1.49
8862.00,1.49
8861.00,1.49
8860.00,1.49
8859.00,1.49
8858.00,1.49
8857.00,1.50
8856.00,1.50
8855.00,1.50
8854.00,1.50
8853.00,1.51
8852.00,1.51
8851.00,1.51
8850.00,1.52
8849.00,1.52
8848.00,1.52
8847.00,1.52
8846.00,1.52
8845.00,1.52
8844.00,1.53
8843.00,1.53
8842.00,1.53
8841.00,1.53
8840.00,1.53
8839.00,1.53
8838.00,1.53
8837.00,1.53
8836.00,1.53
8835.00,1.53
8834.00,1.53
8833.00,1.53
8832.00,1.53
8831.00,1.53
8830.00,1.53
8829.00,1.53
8828.00,1.53
8827.00,1.53
8826.00,1.53
8825.00,1.53
8824.00,1.53
8823.00,1.53
8822.00,1.53
8821.00,1.53
8820.00,1.53
8819.00,1.52
8818.00,1.52
8817.00,1.52
8816.00,1.52
8815.00,1.52
8814.00,1.51
8813.00,1.51
8812.00,1.51
8811.00,1.51
8810.00,1.51
8809.00,1.51
8808.00,1.50
8807.00,1.50
8806.00,1.50
8805.00,1.50
8804.00,1.50
8803.00,1.50
8802.00,1.50
8801.00,1.50
8800.00,1.49
8799.00,1.49
8798.00,1.49
8797.00,1.49
8796.00,1.50
8795.00,1.50
8794.00,1.50
8793.00,1.50
8792.00,1.50
8791.00,1.51
8790.00,1.51
8789.00,1.51
8788.00,1.51
8787.00,1.52
8786.00,1.52
8785.00,1.52
8784.00,1.52
8783.00,1.52
8782.00,1.52
8781.00,1.52
8780.00,1.52
8779.00,1.52
8778.00,1.51
8777.00,1.51
8776.00,1.51
8775.00,1.51
8774.00,1.51
8773.00,1.51
8772.00,1.51
8771.00,1.50
8770.00,1.50
8769.00,1.50
8768.00,1.50
8767.00,1.49
8766.00,1.49
8765.00,1.49
8764.00,1.48
8763.00,1.48
8762.00,1.48
8761.00,1.47
8760.00,1.47
8759.00,1.47
8758.00,1.47
8757.00,1.46
8756.00,1.46
8755.00,1.46
8754.00,1.46
8753.00,1.46
8752.00,1.46
8751.00,1.46
8750.00,1.45
8749.00,1.45
8748.00,1.45
8747.00,1.45
8746.00,1.45
8745.00,1.45
8744.00,1.45
8743.00,1.45
8742.00,1.46
8741.00,1.46
8740.00,1.46
8739.00,1.46
8738.00,1.46
8737.00,1.47
8736.00,1.47
8735.00,1.47
8734.00,1.48
8733.00,1.48
8732.00,1.48
8731.00,1.48
8730.00,1.48
8729.00,1.49
8728.00,1.49
8727.00,1.49
8726.00,1.49
8725.00,1.49
8724.00,1.49
8723.00,1.49
8722.00,1.49
8721.00,1.49
8720.00,1.49
8719.00,1.49
8718.00,1.49
8717.00,1.49
8716.00,1.48
8715.00,1.48
8714.00,1.48
8713.00,1.47
8712.00,1.47
8711.00,1.46
8710.00,1.46
8709.00,1.45
8708.00,1.45
8707.00,1.44
8706.00,1.44
8705.00,1.43
8704.00,1.43
8703.00,1.43
8702.00,1.43
8701.00,1.42
8700.00,1.42
8699.00,1.42
8698.00,1.42
8697.00,1.43
8696.00,1.43
8695.00,1.43
8694.00,1.43
8693.00,1.43
8692.00,1.44
8691.00,1.44
8690.00,1.44
8689.00,1.45
8688.00,1.45
8687.00,1.46
8686.00,1.46
8685.00,1.47
8684.00,1.47
8683.00,1.48
8682.00,1.48
8681.00,1.49
8680.00,1.49
8679.00,1.50
8678.00,1.50
8677.00,1.51
8676.00,1.51
8675.00,1.51
8674.00,1.52
8673.00,1.52
8672.00,1.52
8671.00,1.53
8670.00,1.53
8669.00,1.53
8668.00,1.53
8667.00,1.54
8666.00,1.54
8665.00,1.54
8664.00,1.55
8663.00,1.55
8662.00,1.55
8661.00,1.56
8660.00,1.56
8659.00,1.56
8658.00,1.57
8657.00,1.57
8656.00,1.57
8655.00,1.57
8654.00,1.58
8653.00,1.58
8652.00,1.58
8651.00,1.59
8650.00,1.59
8649.00,1.59
8648.00,1.60
8647.00,1.60
8646.00,1.60
8645.00,1.60
8644.00,1.60
8643.00,1.60
8642.00,1.60
8641.00,1.60
8640.00,1.60
8639.00,1.60
8638.00,1.59
8637.00,1.59
8636.00,1.59
8635.00,1.59
8634.00,1.58
8633.00,1.58
8632.00,1.58
8631.00,1.57
8630.00,1.57
8629.00,1.56
8628.00,1.56
8627.00,1.56
8626.00,1.55
8625.00,1.54
8624.00,1.54
8623.00,1.53
8622.00,1.53
8621.00,1.52
8620.00,1.52
8619.00,1.51
8618.00,1.51
8617.00,1.51
8616.00,1.50
8615.00,1.50
8614.00,1.49
8613.00,1.49
8612.00,1.48
8611.00,1.48
8610.00,1.47
8609.00,1.47
8608.00,1.46
8607.00,1.46
8606.00,1.45
8605.00,1.45
8604.00,1.44
8603.00,1.44
8602.00,1.43
8601.00,1.43
8600.00,1.42
8599.00,1.42
8598.00,1.41
8597.00,1.41
8596.00,1.41
8595.00,1.40
8594.00,1.40
8593.00,1.40
8592.00,1.40
8591.00,1.39
8590.00,1.39
8589.00,1.39
8588.00,1.38
8587.00,1.38
8586.00,1.38
8585.00,1.38
8584.00,1.38
8583.00,1.37
8582.00,1.37
8581.00,1.37
8580.00,1.37
8579.00,1.37
8578.00,1.37
8577.00,1.37
8576.00,1.38
8575.00,1.38
8574.00,1.38
8573.00,1.38
8572.00,1.38
8571.00,1.38
8570.00,1.38
8569.00,1.38
8568.00,1.38
8567.00,1.38
8566.00,1.38
8565.00,1.38
8564.00,1.38
8563.00,1.38
8562.00,1.38
8561.00,1.38
8560.00,1.39
8559.00,1.39
8558.00,1.39
8557.00,1.39
8556.00,1.39
8555.00,1.39
8554.00,1.40
8553.00,1.40
8552.00,1.40
8551.00,1.40
8550.00,1.40
8549.00,1.40
8548.00,1.40
8547.00,1.40
8546.00,1.40
8545.00,1.40
8544.00,1.40
8543.00,1.41
8542.00,1.41
8541.00,1.41
8540.00,1.41
8539.00,1.41
8538.00,1.42
8537.00,1.42
8536.00,1.42
8535.00,1.43
8534.00,1.43
8533.00,1.43
8532.00,1.44
8531.00,1.44
8530.00,1.44
8529.00,1.45
8528.00,1.45
8527.00,1.45
8526.00,1.45
8525.00,1.46
8524.00,1.46
8523.00,1.46
8522.00,1.46
8521.00,1.47
8520.00,1.47
8519.00,1.47
8518.00,1.47
8517.00,1.48
8516.00,1.48
8515.00,1.48
8514.00,1.48
8513.00,1.49
8512.00,1.49
8511.00,1.49
8510.00,1.49
8509.00,1.49
8508.00,1.48
8507.00,1.48
8506.00,1.48
8505.00,1.47
8504.00,1.47
8503.00,1.47
8502.00,1.47
8501.00,1.46
8500.00,1.46
8499.00,1.46
8498.00,1.46
8497.00,1.46
8496.00,1.46
8495.00,1.46
8494.00,1.46
8493.00,1.46
8492.00,1.46
8491.00,1.45
8490.00,1.45
8489.00,1.45
8488.00,1.45
8487.00,1.44
8486.00,1.44
8485.00,1.44
8484.00,1.44
8483.00,1.44
8482.00,1.44
8481.00,1.44
8480.00,1.44
8479.00,1.44
8478.00,1.44
8477.00,1.44
8476.00,1.44
8475.00,1.44
8474.00,1.44
8473.00,1.44
8472.00,1.44
8471.00,1.44
8470.00,1.44
8469.00,1.44
8468.00,1.44
8467.00,1.43
8466.00,1.43
8465.00,1.43
8464.00,1.43
8463.00,1.43
8462.00,1.43
8461.00,1.43
8460.00,1.43
8459.00,1.43
8458.00,1.43
8457.00,1.43
8456.00,1.42
8455.00,1.42
8454.00,1.42
8453.00,1.42
8452.00,1.42
8451.00,1.42
8450.00,1.42
8449.00,1.42
8448.00,1.42
8447.00,1.42
8446.00,1.42
8445.00,1.42
8444.00,1.42
8443.00,1.43
8442.00,1.43
8441.00,1.43
8440.00,1.43
8439.00,1.44
8438.00,1.44
8437.00,1.44
8436.00,1.44
8435.00,1.44
8434.00,1.45
8433.00,1.45
8432.00,1.45
8431.00,1.45
8430.00,1.46
8429.00,1.46
8428.00,1.46
8427.00,1.46
8426.00,1.46
8425.00,1.46
8424.00,1.46
8423.00,1.47
8422.00,1.47
8421.00,1.47
8420.00,1.47
8419.00,1.47
8418.00,1.47
8417.00,1.47
8416.00,1.47
8415.00,1.47
8414.00,1.47
8413.00,1.47
8412.00,1.47
8411.00,1.47
8410.00,1.47
8409.00,1.47
8408.00,1.47
8407.00,1.47
8406.00,1.47
8405.00,1.47
8404.00,1.47
8403.00,1.47
8402.00,1.48
8401.00,1.48
8400.00,1.48
8399.00,1.48
8398.00,1.48
8397.00,1.49
8396.00,1.49
8395.00,1.49
8394.00,1.50
8393.00,1.50
8392.00,1.50
8391.00,1.51
8390.00,1.51
8389.00,1.51
8388.00,1.51
8387.00,1.52
8386.00,1.52
8385.00,1.52
8384.00,1.53
8383.00,1.53
8382.00,1.53
8381.00,1.53
8380.00,1.54
8379.00,1.54
8378.00,1.54
8377.00,1.54
8376.00,1.55
8375.00,1.55
8374.00,1.55
8373.00,1.55
8372.00,1.55
8371.00,1.55
8370.00,1.55
8369.00,1.55
8368.00,1.55
8367.00,1.55
8366.00,1.55
8365.00,1.54
8364.00,1.54
8363.00,1.54
8362.00,1.54
8361.00,1.53
8360.00,1.53
8359.00,1.53
8358.00,1.52
8357.00,1.51
8356.00,1.51
8355.00,1.50
8354.00,1.50
8353.00,1.49
8352.00,1.49
8351.00,1.48
8350.00,1.47
8349.00,1.47
8348.00,1.46
8347.00,1.46
8346.00,1.45
8345.00,1.45
8344.00,1.44
8343.00,1.44
8342.00,1.43
8341.00,1.43
8340.00,1.42
8339.00,1.42
8338.00,1.41
8337.00,1.41
8336.00,1.41
8335.00,1.40
8334.00,1.40
8333.00,1.40
8332.00,1.39
8331.00,1.39
8330.00,1.39
8329.00,1.39
8328.00,1.39
8327.00,1.39
8326.00,1.39
8325.00,1.39
8324.00,1.39
8323.00,1.39
8322.00,1.38
8321.00,1.38
8320.00,1.38
8319.00,1.38
8318.00,1.38
8317.00,1.39
8316.00,1.39
8315.00,1.39
8314.00,1.39
8313.00,1.39
8312.00,1.40
8311.00,1.40
8310.00,1.41
8309.00,1.41
8308.00,1.42
8307.00,1.42
8306.00,1.43
8305.00,1.44
8304.00,1.44
8303.00,1.45
8302.00,1.45
8301.00,1.46
8300.00,1.47
8299.00,1.47
8298.00,1.48
8297.00,1.49
8296.00,1.49
8295.00,1.50
8294.00,1.50
8293.00,1.51
8292.00,1.52
8291.00,1.52
8290.00,1.52
8289.00,1.53
8288.00,1.53
8287.00,1.53
8286.00,1.54
8285.00,1.54
8284.00,1.54
8283.00,1.54
8282.00,1.53
8281.00,1.53
8280.00,1.53
8279.00,1.53
8278.00,1.52
8277.00,1.52
8276.00,1.52
8275.00,1.52
8274.00,1.51
8273.00,1.51
8272.00,1.51
8271.00,1.51
8270.00,1.50
8269.00,1.50
8268.00,1.50
8267.00,1.49
8266.00,1.49
8265.00,1.49
8264.00,1.48
8263.00,1.48
8262.00,1.48
8261.00,1.47
8260.00,1.47
8259.00,1.47
8258.00,1.47
8257.00,1.47
8256.00,1.47
8255.00,1.47
8254.00,1.48
8253.00,1.48
8252.00,1.48
8251.00,1.48
8250.00,1.48
8249.00,1.47
8248.00,1.47
8247.00,1.47
8246.00,1.47
8245.00,1.47
8244.00,1.47
8243.00,1.47
8242.00,1.47
8241.00,1.47
8240.00,1.47
8239.00,1.47
8238.00,1.47
8237.00,1.47
8236.00,1.47
8235.00,1.48
8234.00,1.47
8233.00,1.47
8232.00,1.47
8231.00,1.47
8230.00,1.47
8229.00,1.47
8228.00,1.47
8227.00,1.47
8226.00,1.47
8225.00,1.47
8224.00,1.47
8223.00,1.47
8222.00,1.47
8221.00,1.47
8220.00,1.47
8219.00,1.46
8218.00,1.46
8217.00,1.46
8216.00,1.46
8215.00,1.46
8214.00,1.46
8213.00,1.46
8212.00,1.46
8211.00,1.46
8210.00,1.45
8209.00,1.45
8208.00,1.45
8207.00,1.45
8206.00,1.45
8205.00,1.44
8204.00,1.44
8203.00,1.44
8202.00,1.44
8201.00,1.44
8200.00,1.44
8199.00,1.44
8198.00,1.44
8197.00,1.44
8196.00,1.44
8195.00,1.45
8194.00,1.45
8193.00,1.45
8192.00,1.45
8191.00,1.45
8190.00,1.46
8189.00,1.46
8188.00,1.46
8187.00,1.47
8186.00,1.47
8185.00,1.47
8184.00,1.48
8183.00,1.48
8182.00,1.49
8181.00,1.49
8180.00,1.50
8179.00,1.50
8178.00,1.51
8177.00,1.51
8176.00,1.52
8175.00,1.52
8174.00,1.52
8173.00,1.53
8172.00,1.53
8171.00,1.53
8170.00,1.53
8169.00,1.54
8168.00,1.54
8167.00,1.54
8166.00,1.54
8165.00,1.54
8164.00,1.54
8163.00,1.53
8162.00,1.53
8161.00,1.53
8160.00,1.53
8159.00,1.53
8158.00,1.52
8157.00,1.52
8156.00,1.52
8155.00,1.52
8154.00,1.51
8153.00,1.51
8152.00,1.50
8151.00,1.50
8150.00,1.49
8149.00,1.49
8148.00,1.48
8147.00,1.48
8146.00,1.47
8145.00,1.47
8144.00,1.46
8143.00,1.46
8142.00,1.46
8141.00,1.45
8140.00,1.45
8139.00,1.45
8138.00,1.44
8137.00,1.44
8136.00,1.44
8135.00,1.44
8134.00,1.44
8133.00,1.44
8132.00,1.44
8131.00,1.44
8130.00,1.45
8129.00,1.45
8128.00,1.45
8127.00,1.45
8126.00,1.46
8125.00,1.46
8124.00,1.47
8123.00,1.47
8122.00,1.48
8121.00,1.49
8120.00,1.49
8119.00,1.50
8118.00,1.51
8117.00,1.52
8116.00,1.53
8115.00,1.54
8114.00,1.55
8113.00,1.55
8112.00,1.56
8111.00,1.57
8110.00,1.58
8109.00,1.58
8108.00,1.59
8107.00,1.59
8106.00,1.60
8105.00,1.60
8104.00,1.60
8103.00,1.61
8102.00,1.61
8101.00,1.61
8100.00,1.61
8099.00,1.61
8098.00,1.61
8097.00,1.61
8096.00,1.61
8095.00,1.61
8094.00,1.61
8093.00,1.61
8092.00,1.61
8091.00,1.60
8090.00,1.60
8089.00,1.60
8088.00,1.59
8087.00,1.59
8086.00,1.59
8085.00,1.58
8084.00,1.58
8083.00,1.58
8082.00,1.58
8081.00,1.57
8080.00,1.57
8079.00,1.57
8078.00,1.57
8077.00,1.57
8076.00,1.57
8075.00,1.57
8074.00,1.57
8073.00,1.57
8072.00,1.58
8071.00,1.58
8070.00,1.58
8069.00,1.58
8068.00,1.58
8067.00,1.58
8066.00,1.58
8065.00,1.58
8064.00,1.58
8063.00,1.59
8062.00,1.59
8061.00,1.59
8060.00,1.59
8059.00,1.59
8058.00,1.59
8057.00,1.60
8056.00,1.60
8055.00,1.60
8054.00,1.60
8053.00,1.60
8052.00,1.60
8051.00,1.60
8050.00,1.60
8049.00,1.60
8048.00,1.60
8047.00,1.60
8046.00,1.60
8045.00,1.60
8044.00,1.60
8043.00,1.60
8042.00,1.60
8041.00,1.60
8040.00,1.60
8039.00,1.60
8038.00,1.60
8037.00,1.60
8036.00,1.60
8035.00,1.60
8034.00,1.60
8033.00,1.59
8032.00,1.59
8031.00,1.59
8030.00,1.59
8029.00,1.58
8028.00,1.58
8027.00,1.58
8026.00,1.58
8025.00,1.58
8024.00,1.58
8023.00,1.57
8022.00,1.57
8021.00,1.57
8020.00,1.57
8019.00,1.57
8018.00,1.57
8017.00,1.57
8016.00,1.57
8015.00,1.57
8014.00,1.57
8013.00,1.57
8012.00,1.57
8011.00,1.57
8010.00,1.58
8009.00,1.58
8008.00,1.58
8007.00,1.59
8006.00,1.59
8005.00,1.59
8004.00,1.60
8003.00,1.60
8002.00,1.60
8001.00,1.61
8000.00,1.61
7999.00,1.61
7998.00,1.62
7997.00,1.62
7996.00,1.62
7995.00,1.63
7994.00,1.63
7993.00,1.63
7992.00,1.63
7991.00,1.63
7990.00,1.63
7989.00,1.63
7988.00,1.63
7987.00,1.63
7986.00,1.63
7985.00,1.63
7984.00,1.63
7983.00,1.63
7982.00,1.62
7981.00,1.62
7980.00,1.62
7979.00,1.62
7978.00,1.61
7977.00,1.61
7976.00,1.61
7975.00,1.61
7974.00,1.61
7973.00,1.60
7972.00,1.60
7971.00,1.60
7970.00,1.59
7969.00,1.59
7968.00,1.59
7967.00,1.59
7966.00,1.59
7965.00,1.58
7964.00,1.58
7963.00,1.58
7962.00,1.58
7961.00,1.58
7960.00,1.58
7959.00,1.58
7958.00,1.58
7957.00,1.58
7956.00,1.58
7955.00,1.58
7954.00,1.58
7953.00,1.58
7952.00,1.58
7951.00,1.58
7950.00,1.58
7949.00,1.58
7948.00,1.58
7947.00,1.58
7946.00,1.57
7945.00,1.57
7944.00,1.57
7943.00,1.57
7942.00,1.57
7941.00,1.57
7940.00,1.57
7939.00,1.57
7938.00,1.57
7937.00,1.57
7936.00,1.57
7935.00,1.56
7934.00,1.56
7933.00,1.56
7932.00,1.56
7931.00,1.56
7930.00,1.56
7929.00,1.57
7928.00,1.57
7927.00,1.57
7926.00,1.57
7925.00,1.57
7924.00,1.57
7923.00,1.57
7922.00,1.58
7921.00,1.58
7920.00,1.58
7919.00,1.58
7918.00,1.59
7917.00,1.59
7916.00,1.59
7915.00,1.60
7914.00,1.60
7913.00,1.60
7912.00,1.61
7911.00,1.61
7910.00,1.61
7909.00,1.61
7908.00,1.62
7907.00,1.62
7906.00,1.62
7905.00,1.63
7904.00,1.63
7903.00,1.63
7902.00,1.64
7901.00,1.64
7900.00,1.64
7899.00,1.64
7898.00,1.64
7897.00,1.65
7896.00,1.65
7895.00,1.65
7894.00,1.65
7893.00,1.65
7892.00,1.65
7891.00,1.65
7890.00,1.65
7889.00,1.65
7888.00,1.65
7887.00,1.65
7886.00,1.65
7885.00,1.65
7884.00,1.65
7883.00,1.65
7882.00,1.65
7881.00,1.65
7880.00,1.65
7879.00,1.65
7878.00,1.65
7877.00,1.65
7876.00,1.64
7875.00,1.64
7874.00,1.64
7873.00,1.64
7872.00,1.64
7871.00,1.64
7870.00,1.64
7869.00,1.64
7868.00,1.64
7867.00,1.63
7866.00,1.63
7865.00,1.63
7864.00,1.63
7863.00,1.63
7862.00,1.63
7861.00,1.63
7860.00,1.63
7859.00,1.63
7858.00,1.63
7857.00,1.63
7856.00,1.63
7855.00,1.63
7854.00,1.63
7853.00,1.62
7852.00,1.62
7851.00,1.62
7850.00,1.62
7849.00,1.62
7848.00,1.62
7847.00,1.62
7846.00,1.62
7845.00,1.62
7844.00,1.62
7843.00,1.62
7842.00,1.62
7841.00,1.62
7840.00,1.62
7839.00,1.62
7838.00,1.62
7837.00,1.62
7836.00,1.62
7835.00,1.62
7834.00,1.62
7833.00,1.62
7832.00,1.62
7831.00,1.62
7830.00,1.62
7829.00,1.62
7828.00,1.62
7827.00,1.62
7826.00,1.62
7825.00,1.62
7824.00,1.62
7823.00,1.62
7822.00,1.62
7821.00,1.62
7820.00,1.61
7819.00,1.61
7818.00,1.61
7817.00,1.61
7816.00,1.60
7815.00,1.60
7814.00,1.60
7813.00,1.60
7812.00,1.59
7811.00,1.59
7810.00,1.59
7809.00,1.59
7808.00,1.58
7807.00,1.58
7806.00,1.58
7805.00,1.58
7804.00,1.58
7803.00,1.58
7802.00,1.58
7801.00,1.57
7800.00,1.57
7799.00,1.58
7798.00,1.58
7797.00,1.58
7796.00,1.58
7795.00,1.58
7794.00,1.59
7793.00,1.59
7792.00,1.59
7791.00,1.60
7790.00,1.60
7789.00,1.61
7788.00,1.61
7787.00,1.61
7786.00,1.61
7785.00,1.62
7784.00,1.62
7783.00,1.62
7782.00,1.62
7781.00,1.62
7780.00,1.63
7779.00,1.63
7778.00,1.63
7777.00,1.63
7776.00,1.63
7775.00,1.63
7774.00,1.63
7773.00,1.63
7772.00,1.63
7771.00,1.63
7770.00,1.63
7769.00,1.63
7768.00,1.63
7767.00,1.63
7766.00,1.62
7765.00,1.62
7764.00,1.62
7763.00,1.62
7762.00,1.62
7761.00,1.62
7760.00,1.62
7759.00,1.62
7758.00,1.62
7757.00,1.62
7756.00,1.62
7755.00,1.62
7754.00,1.62
7753.00,1.62
7752.00,1.62
7751.00,1.62
7750.00,1.62
7749.00,1.62
7748.00,1.62
7747.00,1.62
7746.00,1.62
7745.00,1.63
7744.00,1.63
7743.00,1.63
7742.00,1.63
7741.00,1.63
7740.00,1.63
7739.00,1.63
7738.00,1.63
7737.00,1.63
7736.00,1.63
7735.00,1.64
7734.00,1.64
7733.00,1.64
7732.00,1.64
7731.00,1.64
7730.00,1.64
7729.00,1.64
7728.00,1.64
7727.00,1.64
7726.00,1.64
7725.00,1.64
7724.00,1.64
7723.00,1.64
7722.00,1.64
7721.00,1.64
7720.00,1.64
7719.00,1.64
7718.00,1.64
7717.00,1.64
7716.00,1.64
7715.00,1.64
7714.00,1.64
7713.00,1.64
7712.00,1.63
7711.00,1.63
7710.00,1.63
7709.00,1.63
7708.00,1.63
7707.00,1.63
7706.00,1.63
7705.00,1.63
7704.00,1.63
7703.00,1.63
7702.00,1.63
7701.00,1.64
7700.00,1.64
7699.00,1.64
7698.00,1.64
7697.00,1.64
7696.00,1.64
7695.00,1.65
7694.00,1.65
7693.00,1.65
7692.00,1.65
7691.00,1.65
7690.00,1.66
7689.00,1.66
7688.00,1.66
7687.00,1.66
7686.00,1.67
7685.00,1.67
7684.00,1.67
7683.00,1.67
7682.00,1.67
7681.00,1.68
7680.00,1.68
7679.00,1.68
7678.00,1.68
7677.00,1.68
7676.00,1.68
7675.00,1.68
7674.00,1.68
7673.00,1.68
7672.00,1.68
7671.00,1.68
7670.00,1.68
7669.00,1.68
7668.00,1.68
7667.00,1.68
7666.00,1.68
7665.00,1.67
7664.00,1.67
7663.00,1.67
7662.00,1.67
7661.00,1.67
7660.00,1.66
7659.00,1.66
7658.00,1.66
7657.00,1.66
7656.00,1.65
7655.00,1.65
7654.00,1.65
7653.00,1.65
7652.00,1.65
7651.00,1.64
7650.00,1.64
7649.00,1.64
7648.00,1.64
7647.00,1.64
7646.00,1.64
7645.00,1.64
7644.00,1.64
7643.00,1.64
7642.00,1.64
7641.00,1.64
7640.00,1.64
7639.00,1.64
7638.00,1.64
7637.00,1.64
7636.00,1.64
7635.00,1.64
7634.00,1.64
7633.00,1.64
7632.00,1.64
7631.00,1.64
7630.00,1.64
7629.00,1.65
7628.00,1.65
7627.00,1.65
7626.00,1.65
7625.00,1.65
7624.00,1.65
7623.00,1.65
7622.00,1.64
7621.00,1.64
7620.00,1.64
7619.00,1.64
7618.00,1.64
7617.00,1.64
7616.00,1.64
7615.00,1.64
7614.00,1.64
7613.00,1.63
7612.00,1.63
7611.00,1.63
7610.00,1.63
7609.00,1.62
7608.00,1.62
7607.00,1.62
7606.00,1.62
7605.00,1.62
7604.00,1.62
7603.00,1.62
7602.00,1.62
7601.00,1.61
7600.00,1.61
7599.00,1.61
7598.00,1.61
7597.00,1.61
7596.00,1.61
7595.00,1.61
7594.00,1.61
7593.00,1.61
7592.00,1.62
7591.00,1.62
7590.00,1.62
7589.00,1.62
7588.00,1.62
7587.00,1.62
7586.00,1.62
7585.00,1.63
7584.00,1.63
7583.00,1.63
7582.00,1.63
7581.00,1.63
7580.00,1.63
7579.00,1.64
7578.00,1.64
7577.00,1.64
7576.00,1.64
7575.00,1.64
7574.00,1.65
7573.00,1.65
7572.00,1.65
7571.00,1.65
7570.00,1.65
7569.00,1.65
7568.00,1.65
7567.00,1.65
7566.00,1.65
7565.00,1.65
7564.00,1.65
7563.00,1.65
7562.00,1.65
7561.00,1.65
7560.00,1.65
7559.00,1.65
7558.00,1.65
7557.00,1.65
7556.00,1.65
7555.00,1.65
7554.00,1.65
7553.00,1.65
7552.00,1.65
7551.00,1.65
7550.00,1.65
7549.00,1.65
7548.00,1.65
7547.00,1.65
7546.00,1.65
7545.00,1.65
7544.00,1.65
7543.00,1.65
7542.00,1.65
7541.00,1.65
7540.00,1.65
7539.00,1.66
7538.00,1.66
7537.00,1.66
7536.00,1.66
7535.00,1.66
7534.00,1.66
7533.00,1.66
7532.00,1.67
7531.00,1.67
7530.00,1.67
7529.00,1.67
7528.00,1.67
7527.00,1.67
7526.00,1.68
7525.00,1.68
7524.00,1.68
7523.00,1.68
7522.00,1.68
7521.00,1.68
7520.00,1.68
7519.00,1.67
7518.00,1.67
7517.00,1.67
7516.00,1.67
7515.00,1.66
7514.00,1.66
7513.00,1.66
7512.00,1.65
7511.00,1.65
7510.00,1.65
7509.00,1.64
7508.00,1.64
7507.00,1.64
7506.00,1.63
7505.00,1.63
7504.00,1.63
7503.00,1.62
7502.00,1.62
7501.00,1.62
7500.00,1.62
7499.00,1.61
7498.00,1.61
7497.00,1.61
7496.00,1.61
7495.00,1.61
7494.00,1.61
7493.00,1.61
7492.00,1.61
7491.00,1.61
7490.00,1.61
7489.00,1.61
7488.00,1.61
7487.00,1.61
7486.00,1.61
7485.00,1.62
7484.00,1.62
7483.00,1.62
7482.00,1.62
7481.00,1.62
7480.00,1.63
7479.00,1.63
7478.00,1.63
7477.00,1.63
7476.00,1.63
7475.00,1.63
7474.00,1.63
7473.00,1.63
7472.00,1.63
7471.00,1.63
7470.00,1.63
7469.00,1.63
7468.00,1.63
7467.00,1.63
7466.00,1.62
7465.00,1.62
7464.00,1.62
7463.00,1.62
7462.00,1.62
7461.00,1.61
7460.00,1.61
7459.00,1.61
7458.00,1.61
7457.00,1.60
7456.00,1.60
7455.00,1.60
7454.00,1.60
7453.00,1.59
7452.00,1.59
7451.00,1.59
7450.00,1.59
7449.00,1.59
7448.00,1.59
7447.00,1.59
7446.00,1.59
7445.00,1.59
7444.00,1.59
7443.00,1.59
7442.00,1.59
7441.00,1.59
7440.00,1.59
7439.00,1.59
7438.00,1.59
7437.00,1.59
7436.00,1.59
7435.00,1.59
7434.00,1.59
7433.00,1.59
7432.00,1.59
7431.00,1.59
7430.00,1.59
7429.00,1.59
7428.00,1.59
7427.00,1.59
7426.00,1.59
7425.00,1.59
7424.00,1.59
7423.00,1.59
7422.00,1.59
7421.00,1.59
7420.00,1.59
7419.00,1.59
7418.00,1.59
7417.00,1.59
7416.00,1.58
7415.00,1.58
7414.00,1.58
7413.00,1.58
7412.00,1.58
7411.00,1.58
7410.00,1.58
7409.00,1.58
7408.00,1.58
7407.00,1.58
7406.00,1.57
7405.00,1.57
7404.00,1.57
7403.00,1.57
7402.00,1.57
7401.00,1.56
7400.00,1.56
7399.00,1.56
7398.00,1.56
7397.00,1.55
7396.00,1.55
7395.00,1.55
7394.00,1.55
7393.00,1.55
7392.00,1.54
7391.00,1.54
7390.00,1.54
7389.00,1.54
7388.00,1.54
7387.00,1.54
7386.00,1.54
7385.00,1.53
7384.00,1.53
7383.00,1.53
7382.00,1.53
7381.00,1.53
7380.00,1.53
7379.00,1.53
7378.00,1.53
7377.00,1.53
7376.00,1.53
7375.00,1.53
7374.00,1.53
7373.00,1.53
7372.00,1.53
7371.00,1.54
7370.00,1.54
7369.00,1.54
7368.00,1.54
7367.00,1.54
7366.00,1.54
7365.00,1.54
7364.00,1.54
7363.00,1.54
7362.00,1.54
7361.00,1.54
7360.00,1.54
7359.00,1.54
7358.00,1.54
7357.00,1.54
7356.00,1.54
7355.00,1.53
7354.00,1.53
7353.00,1.53
7352.00,1.53
7351.00,1.53
7350.00,1.53
7349.00,1.52
7348.00,1.52
7347.00,1.52
7346.00,1.52
7345.00,1.51
7344.00,1.51
7343.00,1.51
7342.00,1.51
7341.00,1.50
7340.00,1.50
7339.00,1.50
7338.00,1.50
7337.00,1.50
7336.00,1.50
7335.00,1.50
7334.00,1.49
7333.00,1.49
7332.00,1.49
7331.00,1.49
7330.00,1.49
7329.00,1.49
7328.00,1.49
7327.00,1.49
7326.00,1.50
7325.00,1.50
7324.00,1.50
7323.00,1.50
7322.00,1.50
7321.00,1.50
7320.00,1.50
7319.00,1.51
7318.00,1.51
7317.00,1.51
7316.00,1.51
7315.00,1.52
7314.00,1.52
7313.00,1.52
7312.00,1.53
7311.00,1.53
7310.00,1.53
7309.00,1.54
7308.00,1.54
7307.00,1.54
7306.00,1.55
7305.00,1.55
7304.00,1.55
7303.00,1.55
7302.00,1.55
7301.00,1.55
7300.00,1.55
7299.00,1.55
7298.00,1.55
7297.00,1.54
7296.00,1.54
7295.00,1.54
7294.00,1.54
7293.00,1.54
7292.00,1.53
7291.00,1.53
7290.00,1.53
7289.00,1.52
7288.00,1.52
7287.00,1.51
7286.00,1.51
7285.00,1.50
7284.00,1.50
7283.00,1.49
7282.00,1.49
7281.00,1.48
7280.00,1.48
7279.00,1.47
7278.00,1.47
7277.00,1.46
7276.00,1.46
7275.00,1.45
7274.00,1.45
7273.00,1.45
7272.00,1.44
7271.00,1.44
7270.00,1.44
7269.00,1.43
7268.00,1.43
7267.00,1.43
7266.00,1.42
7265.00,1.42
7264.00,1.42
7263.00,1.41
7262.00,1.41
7261.00,1.41
7260.00,1.40
7259.00,1.40
7258.00,1.40
7257.00,1.39
7256.00,1.39
7255.00,1.39
7254.00,1.39
7253.00,1.39
7252.00,1.38
7251.00,1.38
7250.00,1.38
7249.00,1.38
7248.00,1.38
7247.00,1.37
7246.00,1.37
7245.00,1.37
7244.00,1.36
7243.00,1.36
7242.00,1.36
7241.00,1.36
7240.00,1.35
7239.00,1.35
7238.00,1.35
7237.00,1.35
7236.00,1.34
7235.00,1.34
7234.00,1.34
7233.00,1.34
7232.00,1.34
7231.00,1.33
7230.00,1.33
7229.00,1.33
7228.00,1.32
7227.00,1.32
7226.00,1.32
7225.00,1.31
7224.00,1.31
7223.00,1.31
7222.00,1.30
7221.00,1.30
7220.00,1.30
7219.00,1.29
7218.00,1.29
7217.00,1.29
7216.00,1.28
7215.00,1.28
7214.00,1.28
7213.00,1.27
7212.00,1.27
7211.00,1.27
7210.00,1.27
7209.00,1.26
7208.00,1.26
7207.00,1.26
7206.00,1.26
7205.00,1.25
7204.00,1.25
7203.00,1.25
7202.00,1.25
7201.00,1.25
7200.00,1.25
7199.00,1.24
7198.00,1.24
7197.00,1.24
7196.00,1.24
7195.00,1.24
7194.00,1.23
7193.00,1.23
7192.00,1.23
7191.00,1.22
7190.00,1.22
7189.00,1.22
7188.00,1.21
7187.00,1.21
7186.00,1.21
7185.00,1.20
7184.00,1.20
7183.00,1.19
7182.00,1.19
7181.00,1.18
7180.00,1.18
7179.00,1.17
7178.00,1.16
7177.00,1.16
7176.00,1.15
7175.00,1.15
7174.00,1.14
7173.00,1.13
7172.00,1.13
7171.00,1.12
7170.00,1.12
7169.00,1.11
7168.00,1.11
7167.00,1.11
7166.00,1.10
7165.00,1.10
7164.00,1.10
7163.00,1.09
7162.00,1.09
7161.00,1.09
7160.00,1.08
7159.00,1.08
7158.00,1.08
7157.00,1.08
7156.00,1.08
7155.00,1.07
7154.00,1.07
7153.00,1.07
7152.00,1.07
7151.00,1.07
7150.00,1.07
7149.00,1.07
7148.00,1.06
7147.00,1.06
7146.00,1.06
7145.00,1.06
7144.00,1.05
7143.00,1.05
7142.00,1.05
7141.00,1.04
7140.00,1.04
7139.00,1.04
7138.00,1.03
7137.00,1.03
7136.00,1.03
7135.00,1.02
7134.00,1.02
7133.00,1.01
7132.00,1.01
7131.00,1.01
7130.00,1.00
7129.00,1.00
7128.00,1.00
7127.00,0.99
7126.00,0.99
7125.00,0.98
7124.00,0.98
7123.00,0.98
7122.00,0.97
7121.00,0.97
7120.00,0.97
7119.00,0.97
7118.00,0.96
7117.00,0.96
7116.00,0.96
7115.00,0.96
7114.00,0.95
7113.00,0.95
7112.00,0.95
7111.00,0.95
7110.00,0.94
7109.00,0.94
7108.00,0.93
7107.00,0.93
7106.00,0.92
7105.00,0.92
7104.00,0.91
7103.00,0.91
7102.00,0.90
7101.00,0.90
7100.00,0.89
7099.00,0.89
7098.00,0.88
7097.00,0.88
7096.00,0.87
7095.00,0.87
7094.00,0.86
7093.00,0.86
7092.00,0.85
7091.00,0.85
7090.00,0.84
7089.00,0.84
7088.00,0.83
7087.00,0.83
7086.00,0.83
7085.00,0.82
7084.00,0.82
7083.00,0.82
7082.00,0.82
7081.00,0.82
7080.00,0.82
7079.00,0.81
7078.00,0.81
7077.00,0.81
7076.00,0.81
7075.00,0.81
7074.00,0.81
7073.00,0.81
7072.00,0.81
7071.00,0.81
7070.00,0.81
7069.00,0.81
7068.00,0.81
7067.00,0.81
7066.00,0.81
7065.00,0.81
7064.00,0.81
7063.00,0.80
7062.00,0.80
7061.00,0.80
7060.00,0.80
7059.00,0.80
7058.00,0.80
7057.00,0.79
7056.00,0.79
7055.00,0.79
7054.00,0.79
7053.00,0.79
7052.00,0.79
7051.00,0.78
7050.00,0.78
7049.00,0.78
7048.00,0.78
7047.00,0.78
7046.00,0.78
7045.00,0.78
7044.00,0.78
7043.00,0.78
7042.00,0.78
7041.00,0.78
7040.00,0.78
7039.00,0.79
7038.00,0.79
7037.00,0.79
7036.00,0.79
7035.00,0.79
7034.00,0.80
7033.00,0.80
7032.00,0.80
7031.00,0.80
7030.00,0.81
7029.00,0.81
7028.00,0.81
7027.00,0.81
7026.00,0.81
7025.00,0.81
7024.00,0.81
7023.00,0.81
7022.00,0.81
7021.00,0.81
7020.00,0.81
7019.00,0.81
7018.00,0.81
7017.00,0.81
7016.00,0.81
7015.00,0.81
7014.00,0.80
7013.00,0.80
7012.00,0.80
7011.00,0.79
7010.00,0.79
7009.00,0.79
7008.00,0.79
7007.00,0.78
7006.00,0.78
7005.00,0.77
7004.00,0.77
7003.00,0.77
7002.00,0.77
7001.00,0.76
7000.00,0.76
6999.00,0.76
6998.00,0.76
6997.00,0.76
6996.00,0.76
6995.00,0.76
6994.00,0.76
6993.00,0.76
6992.00,0.76
6991.00,0.76
6990.00,0.76
6989.00,0.76
6988.00,0.76
6987.00,0.76
6986.00,0.77
6985.00,0.77
6984.00,0.77
6983.00,0.77
6982.00,0.77
6981.00,0.77
6980.00,0.77
6979.00,0.77
6978.00,0.77
6977.00,0.77
6976.00,0.77
6975.00,0.77
6974.00,0.77
6973.00,0.77
6972.00,0.77
6971.00,0.77
6970.00,0.77
6969.00,0.76
6968.00,0.76
6967.00,0.76
6966.00,0.76
6965.00,0.76
6964.00,0.76
6963.00,0.76
6962.00,0.76
6961.00,0.75
6960.00,0.75
6959.00,0.75
6958.00,0.75
6957.00,0.75
6956.00,0.75
6955.00,0.75
6954.00,0.75
6953.00,0.75
6952.00,0.74
6951.00,0.74
6950.00,0.74
6949.00,0.74
6948.00,0.74
6947.00,0.74
6946.00,0.75
6945.00,0.75
6944.00,0.75
6943.00,0.75
6942.00,0.75
6941.00,0.75
6940.00,0.75
6939.00,0.75
6938.00,0.75
6937.00,0.75
6936.00,0.75
6935.00,0.75
6934.00,0.75
6933.00,0.75
6932.00,0.75
6931.00,0.75
6930.00,0.75
6929.00,0.75
6928.00,0.75
6927.00,0.75
6926.00,0.76
6925.00,0.76
6924.00,0.76
6923.00,0.75
6922.00,0.75
6921.00,0.75
6920.00,0.75
6919.00,0.75
6918.00,0.75
6917.00,0.75
6916.00,0.75
6915.00,0.75
6914.00,0.75
6913.00,0.75
6912.00,0.75
6911.00,0.75
6910.00,0.74
6909.00,0.74
6908.00,0.74
6907.00,0.74
6906.00,0.74
6905.00,0.74
6904.00,0.74
6903.00,0.74
6902.00,0.74
6901.00,0.74
6900.00,0.74
6899.00,0.74
6898.00,0.73
6897.00,0.73
6896.00,0.73
6895.00,0.73
6894.00,0.73
6893.00,0.73
6892.00,0.74
6891.00,0.74
6890.00,0.74
6889.00,0.74
6888.00,0.74
6887.00,0.74
6886.00,0.74
6885.00,0.74
6884.00,0.74
6883.00,0.75
6882.00,0.75
6881.00,0.75
6880.00,0.75
6879.00,0.75
6878.00,0.75
6877.00,0.75
6876.00,0.75
6875.00,0.75
6874.00,0.75
6873.00,0.75
6872.00,0.75
6871.00,0.75
6870.00,0.75
6869.00,0.75
6868.00,0.75
6867.00,0.75
6866.00,0.75
6865.00,0.75
6864.00,0.75
6863.00,0.75
6862.00,0.75
6861.00,0.74
6860.00,0.74
6859.00,0.74
6858.00,0.74
6857.00,0.74
6856.00,0.74
6855.00,0.74
6854.00,0.74
6853.00,0.73
6852.00,0.73
6851.00,0.73
6850.00,0.73
6849.00,0.73
6848.00,0.73
6847.00,0.73
6846.00,0.73
6845.00,0.73
6844.00,0.73
6843.00,0.73
6842.00,0.73
6841.00,0.73
6840.00,0.73
6839.00,0.73
6838.00,0.73
6837.00,0.73
6836.00,0.73
6835.00,0.73
6834.00,0.73
6833.00,0.74
6832.00,0.74
6831.00,0.74
6830.00,0.74
6829.00,0.74
6828.00,0.74
6827.00,0.75
6826.00,0.75
6825.00,0.75
6824.00,0.75
6823.00,0.75
6822.00,0.75
6821.00,0.75
6820.00,0.75
6819.00,0.75
6818.00,0.75
6817.00,0.75
6816.00,0.75
6815.00,0.75
6814.00,0.76
6813.00,0.76
6812.00,0.76
6811.00,0.76
6810.00,0.76
6809.00,0.76
6808.00,0.76
6807.00,0.76
6806.00,0.76
6805.00,0.75
6804.00,0.75
6803.00,0.75
6802.00,0.75
6801.00,0.75
6800.00,0.75
6799.00,0.75
6798.00,0.75
6797.00,0.75
6796.00,0.75
6795.00,0.75
6794.00,0.75
6793.00,0.75
6792.00,0.75
6791.00,0.75
6790.00,0.75
6789.00,0.75
6788.00,0.75
6787.00,0.75
6786.00,0.75
6785.00,0.75
6784.00,0.75
6783.00,0.75
6782.00,0.75
6781.00,0.75
6780.00,0.75
6779.00,0.75
6778.00,0.75
6777.00,0.75
6776.00,0.75
6775.00,0.75
6774.00,0.75
6773.00,0.75
6772.00,0.75
6771.00,0.75
6770.00,0.75
6769.00,0.75
6768.00,0.75
6767.00,0.75
6766.00,0.75
6765.00,0.75
6764.00,0.75
6763.00,0.75
6762.00,0.75
6761.00,0.75
6760.00,0.75
6759.00,0.75
6758.00,0.75
6757.00,0.75
6756.00,0.75
6755.00,0.75
6754.00,0.75
6753.00,0.75
6752.00,0.75
6751.00,0.75
6750.00,0.76
6749.00,0.76
6748.00,0.76
6747.00,0.76
6746.00,0.76
6745.00,0.76
6744.00,0.76
6743.00,0.76
6742.00,0.76
6741.00,0.76
6740.00,0.76
6739.00,0.76
6738.00,0.76
6737.00,0.76
6736.00,0.76
6735.00,0.76
6734.00,0.77
6733.00,0.77
6732.00,0.77
6731.00,0.77
6730.00,0.77
6729.00,0.77
6728.00,0.77
6727.00,0.77
6726.00,0.77
6725.00,0.77
6724.00,0.77
6723.00,0.77
6722.00,0.77
6721.00,0.77
6720.00,0.77
6719.00,0.77
6718.00,0.78
6717.00,0.78
6716.00,0.78
6715.00,0.78
6714.00,0.78
6713.00,0.79
6712.00,0.79
6711.00,0.79
6710.00,0.79
6709.00,0.79
6708.00,0.80
6707.00,0.80
6706.00,0.80
6705.00,0.80
6704.00,0.81
6703.00,0.81
6702.00,0.81
6701.00,0.81
6700.00,0.82
6699.00,0.82
6698.00,0.82
6697.00,0.82
6696.00,0.82
6695.00,0.83
6694.00,0.83
6693.00,0.83
6692.00,0.83
6691.00,0.83
6690.00,0.83
6689.00,0.83
6688.00,0.83
6687.00,0.83
6686.00,0.84
6685.00,0.84
6684.00,0.84
6683.00,0.84
6682.00,0.84
6681.00,0.84
6680.00,0.84
6679.00,0.84
6678.00,0.84
6677.00,0.84
6676.00,0.84
6675.00,0.84
6674.00,0.84
6673.00,0.84
6672.00,0.84
6671.00,0.84
6670.00,0.85
6669.00,0.85
6668.00,0.85
6667.00,0.85
6666.00,0.85
6665.00,0.85
6664.00,0.85
6663.00,0.85
6662.00,0.85
6661.00,0.85
6660.00,0.85
6659.00,0.86
6658.00,0.86
6657.00,0.86
6656.00,0.86
6655.00,0.86
6654.00,0.86
6653.00,0.86
6652.00,0.87
6651.00,0.87
6650.00,0.87
6649.00,0.87
6648.00,0.87
6647.00,0.88
6646.00,0.88
6645.00,0.88
6644.00,0.89
6643.00,0.89
6642.00,0.89
6641.00,0.90
6640.00,0.90
6639.00,0.90
6638.00,0.90
6637.00,0.91
6636.00,0.91
6635.00,0.91
6634.00,0.92
6633.00,0.92
6632.00,0.92
6631.00,0.92
6630.00,0.93
6629.00,0.93
6628.00,0.93
6627.00,0.93
6626.00,0.94
6625.00,0.94
6624.00,0.94
6623.00,0.94
6622.00,0.94
6621.00,0.95
6620.00,0.95
6619.00,0.95
6618.00,0.95
6617.00,0.95
6616.00,0.95
6615.00,0.95
6614.00,0.95
6613.00,0.95
6612.00,0.95
6611.00,0.95
6610.00,0.95
6609.00,0.95
6608.00,0.95
6607.00,0.95
6606.00,0.94
6605.00,0.94
6604.00,0.94
6603.00,0.94
6602.00,0.94
6601.00,0.94
6600.00,0.94
6599.00,0.94
6598.00,0.94
6597.00,0.94
6596.00,0.94
6595.00,0.94
6594.00,0.94
6593.00,0.94
6592.00,0.94
6591.00,0.94
6590.00,0.94
6589.00,0.94
6588.00,0.94
6587.00,0.94
6586.00,0.94
6585.00,0.95
6584.00,0.95
6583.00,0.95
6582.00,0.95
6581.00,0.95
6580.00,0.96
6579.00,0.96
6578.00,0.96
6577.00,0.97
6576.00,0.97
6575.00,0.97
6574.00,0.97
6573.00,0.98
6572.00,0.98
6571.00,0.98
6570.00,0.98
6569.00,0.98
6568.00,0.99
6567.00,0.99
6566.00,0.99
6565.00,0.99
6564.00,0.99
6563.00,1.00
6562.00,1.00
6561.00,1.00
6560.00,1.00
6559.00,1.00
6558.00,1.01
6557.00,1.01
6556.00,1.01
6555.00,1.01
6554.00,1.01
6553.00,1.01
6552.00,1.01
6551.00,1.02
6550.00,1.02
6549.00,1.02
6548.00,1.02
6547.00,1.02
6546.00,1.02
6545.00,1.02
6544.00,1.02
6543.00,1.02
6542.00,1.02
6541.00,1.02
6540.00,1.02
6539.00,1.02
6538.00,1.02
6537.00,1.02
6536.00,1.02
6535.00,1.02
6534.00,1.02
6533.00,1.02
6532.00,1.02
6531.00,1.02
6530.00,1.02
6529.00,1.02
6528.00,1.02
6527.00,1.02
6526.00,1.02
6525.00,1.02
6524.00,1.02
6523.00,1.02
6522.00,1.02
6521.00,1.02
6520.00,1.02
6519.00,1.02
6518.00,1.02
6517.00,1.02
6516.00,1.02
6515.00,1.03
6514.00,1.03
6513.00,1.03
6512.00,1.03
6511.00,1.03
6510.00,1.03
6509.00,1.04
6508.00,1.04
6507.00,1.04
6506.00,1.04
6505.00,1.04
6504.00,1.04
6503.00,1.05
6502.00,1.05
6501.00,1.05
6500.00,1.05
6499.00,1.05
6498.00,1.06
6497.00,1.06
6496.00,1.06
6495.00,1.06
6494.00,1.06
6493.00,1.06
6492.00,1.07
6491.00,1.07
6490.00,1.07
6489.00,1.07
6488.00,1.07
6487.00,1.07
6486.00,1.07
6485.00,1.07
6484.00,1.07
6483.00,1.07
6482.00,1.07
6481.00,1.07
6480.00,1.08
6479.00,1.08
6478.00,1.08
6477.00,1.08
6476.00,1.08
6475.00,1.08
6474.00,1.08
6473.00,1.08
6472.00,1.09
6471.00,1.09
6470.00,1.09
6469.00,1.09
6468.00,1.09
6467.00,1.09
6466.00,1.09
6465.00,1.10
6464.00,1.10
6463.00,1.10
6462.00,1.10
6461.00,1.10
6460.00,1.10
6459.00,1.10
6458.00,1.11
6457.00,1.11
6456.00,1.11
6455.00,1.11
6454.00,1.11
6453.00,1.11
6452.00,1.11
6451.00,1.11
6450.00,1.11
6449.00,1.11
6448.00,1.11
6447.00,1.11
6446.00,1.11
6445.00,1.11
6444.00,1.11
6443.00,1.11
6442.00,1.10
6441.00,1.10
6440.00,1.10
6439.00,1.10
6438.00,1.10
6437.00,1.10
6436.00,1.10
6435.00,1.10
6434.00,1.09
6433.00,1.09
6432.00,1.09
6431.00,1.09
6430.00,1.09
6429.00,1.09
6428.00,1.09
6427.00,1.09
6426.00,1.09
6425.00,1.09
6424.00,1.08
6423.00,1.08
6422.00,1.08
6421.00,1.08
6420.00,1.08
6419.00,1.08
6418.00,1.08
6417.00,1.08
6416.00,1.09
6415.00,1.09
6414.00,1.09
6413.00,1.09
6412.00,1.09
6411.00,1.09
6410.00,1.09
6409.00,1.09
6408.00,1.09
6407.00,1.09
6406.00,1.10
6405.00,1.10
6404.00,1.10
6403.00,1.10
6402.00,1.10
6401.00,1.11
6400.00,1.11
6399.00,1.11
6398.00,1.11
6397.00,1.11
6396.00,1.11
6395.00,1.12
6394.00,1.12
6393.00,1.12
6392.00,1.12
6391.00,1.12
6390.00,1.12
6389.00,1.13
6388.00,1.13
6387.00,1.13
6386.00,1.13
6385.00,1.13
6384.00,1.13
6383.00,1.13
6382.00,1.13
6381.00,1.13
6380.00,1.13
6379.00,1.13
6378.00,1.13
6377.00,1.14
6376.00,1.14
6375.00,1.14
6374.00,1.14
6373.00,1.14
6372.00,1.14
6371.00,1.14
6370.00,1.14
6369.00,1.14
6368.00,1.14
6367.00,1.14
6366.00,1.14
6365.00,1.14
6364.00,1.15
6363.00,1.15
6362.00,1.15
6361.00,1.15
6360.00,1.15
6359.00,1.15
6358.00,1.15
6357.00,1.15
6356.00,1.15
6355.00,1.15
6354.00,1.16
6353.00,1.16
6352.00,1.16
6351.00,1.16
6350.00,1.16
6349.00,1.16
6348.00,1.16
6347.00,1.16
6346.00,1.16
6345.00,1.16
6344.00,1.16
6343.00,1.16
6342.00,1.16
6341.00,1.16
6340.00,1.16
6339.00,1.16
6338.00,1.16
6337.00,1.16
6336.00,1.16
6335.00,1.16
6334.00,1.16
6333.00,1.16
6332.00,1.16
6331.00,1.16
6330.00,1.16
6329.00,1.16
6328.00,1.16
6327.00,1.16
6326.00,1.16
6325.00,1.16
6324.00,1.16
6323.00,1.16
6322.00,1.16
6321.00,1.16
6320.00,1.16
6319.00,1.16
6318.00,1.16
6317.00,1.16
6316.00,1.16
6315.00,1.16
6314.00,1.16
6313.00,1.16
6312.00,1.16
6311.00,1.17
6310.00,1.17
6309.00,1.17
6308.00,1.17
6307.00,1.17
6306.00,1.17
6305.00,1.17
6304.00,1.18
6303.00,1.18
6302.00,1.18
6301.00,1.18
6300.00,1.18
6299.00,1.19
6298.00,1.19
6297.00,1.19
6296.00,1.19
6295.00,1.20
6294.00,1.20
6293.00,1.20
6292.00,1.20
6291.00,1.21
6290.00,1.21
6289.00,1.21
6288.00,1.21
6287.00,1.22
6286.00,1.22
6285.00,1.22
6284.00,1.22
6283.00,1.23
6282.00,1.23
6281.00,1.23
6280.00,1.24
6279.00,1.24
6278.00,1.24
6277.00,1.24
6276.00,1.24
6275.00,1.24
6274.00,1.24
6273.00,1.25
6272.00,1.25
6271.00,1.25
6270.00,1.25
6269.00,1.25
6268.00,1.25
6267.00,1.25
6266.00,1.25
6265.00,1.25
6264.00,1.25
6263.00,1.25
6262.00,1.25
6261.00,1.25
6260.00,1.25
6259.00,1.25
6258.00,1.26
6257.00,1.26
6256.00,1.26
6255.00,1.26
6254.00,1.26
6253.00,1.26
6252.00,1.26
6251.00,1.26
6250.00,1.26
6249.00,1.27
6248.00,1.27
6247.00,1.27
6246.00,1.28
6245.00,1.28
6244.00,1.28
6243.00,1.29
6242.00,1.29
6241.00,1.29
6240.00,1.30
6239.00,1.30
6238.00,1.31
6237.00,1.31
6236.00,1.31
6235.00,1.32
6234.00,1.32
6233.00,1.32
6232.00,1.32
6231.00,1.32
6230.00,1.33
6229.00,1.33
6228.00,1.33
6227.00,1.33
6226.00,1.33
6225.00,1.33
6224.00,1.33
6223.00,1.33
6222.00,1.33
6221.00,1.33
6220.00,1.33
6219.00,1.33
6218.00,1.33
6217.00,1.33
6216.00,1.33
6215.00,1.33
6214.00,1.33
6213.00,1.33
6212.00,1.33
6211.00,1.33
6210.00,1.33
6209.00,1.33
6208.00,1.33
6207.00,1.33
6206.00,1.33
6205.00,1.33
6204.00,1.33
6203.00,1.34
6202.00,1.34
6201.00,1.34
6200.00,1.34
6199.00,1.35
6198.00,1.35
6197.00,1.35
6196.00,1.35
6195.00,1.36
6194.00,1.36
6193.00,1.36
6192.00,1.36
6191.00,1.37
6190.00,1.37
6189.00,1.37
6188.00,1.38
6187.00,1.38
6186.00,1.38
6185.00,1.39
6184.00,1.39
6183.00,1.39
6182.00,1.39
6181.00,1.39
6180.00,1.40
6179.00,1.40
6178.00,1.40
6177.00,1.40
6176.00,1.40
6175.00,1.40
6174.00,1.40
6173.00,1.40
6172.00,1.40
6171.00,1.40
6170.00,1.40
6169.00,1.40
6168.00,1.40
6167.00,1.40
6166.00,1.40
6165.00,1.40
6164.00,1.40
6163.00,1.40
6162.00,1.40
6161.00,1.40
6160.00,1.40
6159.00,1.40
6158.00,1.40
6157.00,1.40
6156.00,1.40
6155.00,1.40
6154.00,1.40
6153.00,1.41
6152.00,1.41
6151.00,1.41
6150.00,1.41
6149.00,1.41
6148.00,1.41
6147.00,1.41
6146.00,1.42
6145.00,1.42
6144.00,1.42
6143.00,1.42
6142.00,1.42
6141.00,1.42
6140.00,1.42
6139.00,1.42
6138.00,1.42
6137.00,1.43
6136.00,1.43
6135.00,1.43
6134.00,1.43
6133.00,1.43
6132.00,1.43
6131.00,1.43
6130.00,1.43
6129.00,1.43
6128.00,1.43
6127.00,1.43
6126.00,1.43
6125.00,1.43
6124.00,1.44
6123.00,1.44
6122.00,1.44
6121.00,1.44
6120.00,1.44
6119.00,1.44
6118.00,1.44
6117.00,1.45
6116.00,1.45
6115.00,1.45
6114.00,1.45
6113.00,1.45
6112.00,1.46
6111.00,1.46
6110.00,1.46
6109.00,1.46
6108.00,1.47
6107.00,1.47
6106.00,1.47
6105.00,1.47
6104.00,1.48
6103.00,1.48
6102.00,1.48
6101.00,1.48
6100.00,1.48
6099.00,1.48
6098.00,1.49
6097.00,1.49
6096.00,1.49
6095.00,1.49
6094.00,1.49
6093.00,1.49
6092.00,1.50
6091.00,1.50
6090.00,1.50
6089.00,1.50
6088.00,1.50
6087.00,1.50
6086.00,1.51
6085.00,1.51
6084.00,1.51
6083.00,1.51
6082.00,1.51
6081.00,1.51
6080.00,1.51
6079.00,1.51
6078.00,1.51
6077.00,1.51
6076.00,1.52
6075.00,1.52
6074.00,1.52
6073.00,1.52
6072.00,1.52
6071.00,1.52
6070.00,1.53
6069.00,1.53
6068.00,1.53
6067.00,1.53
6066.00,1.53
6065.00,1.53
6064.00,1.54
6063.00,1.54
6062.00,1.54
6061.00,1.54
6060.00,1.54
6059.00,1.54
6058.00,1.54
6057.00,1.54
6056.00,1.55
6055.00,1.55
6054.00,1.55
6053.00,1.55
6052.00,1.55
6051.00,1.55
6050.00,1.56
6049.00,1.56
6048.00,1.56
6047.00,1.56
6046.00,1.56
6045.00,1.56
6044.00,1.56
6043.00,1.56
6042.00,1.57
6041.00,1.57
6040.00,1.57
6039.00,1.57
6038.00,1.57
6037.00,1.57
6036.00,1.57
6035.00,1.57
6034.00,1.57
6033.00,1.57
6032.00,1.57
6031.00,1.57
6030.00,1.57
6029.00,1.57
6028.00,1.57
6027.00,1.57
6026.00,1.57
6025.00,1.57
6024.00,1.57
6023.00,1.57
6022.00,1.57
6021.00,1.57
6020.00,1.57
6019.00,1.57
6018.00,1.57
6017.00,1.57
6016.00,1.57
6015.00,1.57
6014.00,1.57
6013.00,1.57
6012.00,1.57
6011.00,1.57
6010.00,1.57
6009.00,1.56
6008.00,1.56
6007.00,1.56
6006.00,1.56
6005.00,1.56
6004.00,1.57
6003.00,1.57
6002.00,1.57
6001.00,1.57
6000.00,1.57
5999.00,1.57
5998.00,1.57
5997.00,1.57
5996.00,1.57
5995.00,1.57
5994.00,1.56
5993.00,1.56
5992.00,1.56
5991.00,1.56
5990.00,1.56
5989.00,1.55
5988.00,1.55
5987.00,1.55
5986.00,1.55
5985.00,1.54
5984.00,1.54
5983.00,1.54
5982.00,1.54
5981.00,1.53
5980.00,1.53
5979.00,1.52
5978.00,1.52
5977.00,1.52
5976.00,1.51
5975.00,1.50
5974.00,1.50
5973.00,1.49
5972.00,1.49
5971.00,1.48
5970.00,1.48
5969.00,1.47
5968.00,1.46
5967.00,1.46
5966.00,1.45
5965.00,1.44
5964.00,1.44
5963.00,1.43
5962.00,1.42
5961.00,1.42
5960.00,1.41
5959.00,1.40
5958.00,1.40
5957.00,1.39
5956.00,1.39
5955.00,1.38
5954.00,1.37
5953.00,1.37
5952.00,1.36
5951.00,1.36
5950.00,1.35
5949.00,1.34
5948.00,1.34
5947.00,1.33
5946.00,1.33
5945.00,1.33
5944.00,1.32
5943.00,1.32
5942.00,1.31
5941.00,1.31
5940.00,1.31
5939.00,1.31
5938.00,1.30
5937.00,1.30
5936.00,1.30
5935.00,1.29
5934.00,1.29
5933.00,1.29
5932.00,1.29
5931.00,1.28
5930.00,1.28
5929.00,1.28
5928.00,1.28
5927.00,1.27
5926.00,1.27
5925.00,1.27
5924.00,1.27
5923.00,1.27
5922.00,1.27
5921.00,1.27
5920.00,1.26
5919.00,1.26
5918.00,1.26
5917.00,1.26
5916.00,1.26
5915.00,1.26
5914.00,1.26
5913.00,1.25
5912.00,1.25
5911.00,1.25
5910.00,1.25
5909.00,1.25
5908.00,1.25
5907.00,1.25
5906.00,1.25
5905.00,1.25
5904.00,1.25
5903.00,1.25
5902.00,1.25
5901.00,1.25
5900.00,1.25
5899.00,1.25
5898.00,1.25
5897.00,1.25
5896.00,1.25
5895.00,1.25
5894.00,1.25
5893.00,1.25
5892.00,1.25
5891.00,1.25
5890.00,1.25
5889.00,1.25
5888.00,1.25
5887.00,1.25
5886.00,1.26
5885.00,1.26
5884.00,1.26
5883.00,1.26
5882.00,1.26
5881.00,1.27
5880.00,1.27
5879.00,1.27
5878.00,1.28
5877.00,1.28
5876.00,1.28
5875.00,1.28
5874.00,1.29
5873.00,1.29
5872.00,1.29
5871.00,1.30
5870.00,1.30
5869.00,1.30
5868.00,1.30
5867.00,1.31
5866.00,1.31
5865.00,1.31
5864.00,1.31
5863.00,1.32
5862.00,1.32
5861.00,1.32
5860.00,1.32
5859.00,1.32
5858.00,1.33
5857.00,1.33
5856.00,1.33
5855.00,1.33
5854.00,1.33
5853.00,1.33
5852.00,1.33
5851.00,1.34
5850.00,1.34
5849.00,1.34
5848.00,1.34
5847.00,1.34
5846.00,1.34
5845.00,1.34
5844.00,1.34
5843.00,1.34
5842.00,1.34
5841.00,1.34
5840.00,1.35
5839.00,1.35
5838.00,1.35
5837.00,1.35
5836.00,1.35
5835.00,1.35
5834.00,1.35
5833.00,1.35
5832.00,1.35
5831.00,1.35
5830.00,1.35
5829.00,1.35
5828.00,1.35
5827.00,1.35
5826.00,1.35
5825.00,1.35
5824.00,1.35
5823.00,1.35
5822.00,1.35
5821.00,1.35
5820.00,1.35
5819.00,1.35
5818.00,1.36
5817.00,1.36
5816.00,1.36
5815.00,1.36
5814.00,1.36
5813.00,1.36
5812.00,1.36
5811.00,1.36
5810.00,1.36
5809.00,1.36
5808.00,1.36
5807.00,1.36
5806.00,1.36
5805.00,1.36
5804.00,1.36
5803.00,1.36
5802.00,1.37
5801.00,1.37
5800.00,1.37
5799.00,1.37
5798.00,1.36
5797.00,1.36
5796.00,1.36
5795.00,1.36
5794.00,1.36
5793.00,1.36
5792.00,1.36
5791.00,1.36
5790.00,1.36
5789.00,1.35
5788.00,1.35
5787.00,1.35
5786.00,1.35
5785.00,1.34
5784.00,1.34
5783.00,1.34
5782.00,1.34
5781.00,1.33
5780.00,1.33
5779.00,1.33
5778.00,1.33
5777.00,1.33
5776.00,1.32
5775.00,1.32
5774.00,1.32
5773.00,1.32
5772.00,1.32
5771.00,1.32
5770.00,1.32
5769.00,1.32
5768.00,1.32
5767.00,1.32
5766.00,1.32
5765.00,1.32
5764.00,1.33
5763.00,1.33
5762.00,1.33
5761.00,1.33
5760.00,1.33
5759.00,1.33
5758.00,1.34
5757.00,1.34
5756.00,1.34
5755.00,1.35
5754.00,1.35
5753.00,1.35
5752.00,1.36
5751.00,1.36
5750.00,1.36
5749.00,1.37
5748.00,1.37
5747.00,1.37
5746.00,1.38
5745.00,1.38
5744.00,1.38
5743.00,1.39
5742.00,1.39
5741.00,1.39
5740.00,1.39
5739.00,1.40
5738.00,1.40
5737.00,1.40
5736.00,1.40
5735.00,1.41
5734.00,1.41
5733.00,1.41
5732.00,1.41
5731.00,1.42
5730.00,1.42
5729.00,1.42
5728.00,1.42
5727.00,1.42
5726.00,1.42
5725.00,1.42
5724.00,1.42
5723.00,1.42
5722.00,1.42
5721.00,1.42
5720.00,1.42
5719.00,1.42
5718.00,1.42
5717.00,1.42
5716.00,1.42
5715.00,1.42
5714.00,1.42
5713.00,1.42
5712.00,1.41
5711.00,1.41
5710.00,1.41
5709.00,1.41
5708.00,1.41
5707.00,1.41
5706.00,1.40
5705.00,1.40
5704.00,1.40
5703.00,1.40
5702.00,1.39
5701.00,1.39
5700.00,1.39
5699.00,1.39
5698.00,1.39
5697.00,1.38
5696.00,1.38
5695.00,1.38
5694.00,1.38
5693.00,1.38
5692.00,1.37
5691.00,1.37
5690.00,1.37
5689.00,1.37
5688.00,1.36
5687.00,1.36
5686.00,1.36
5685.00,1.36
5684.00,1.36
5683.00,1.36
5682.00,1.36
5681.00,1.35
5680.00,1.35
5679.00,1.35
5678.00,1.35
5677.00,1.35
5676.00,1.35
5675.00,1.35
5674.00,1.35
5673.00,1.35
5672.00,1.35
5671.00,1.35
5670.00,1.35
5669.00,1.35
5668.00,1.35
5667.00,1.36
5666.00,1.36
5665.00,1.36
5664.00,1.36
5663.00,1.36
5662.00,1.36
5661.00,1.36
5660.00,1.36
5659.00,1.37
5658.00,1.37
5657.00,1.37
5656.00,1.37
5655.00,1.37
5654.00,1.37
5653.00,1.38
5652.00,1.38
5651.00,1.38
5650.00,1.38
5649.00,1.38
5648.00,1.38
5647.00,1.38
5646.00,1.39
5645.00,1.39
5644.00,1.39
5643.00,1.39
5642.00,1.39
5641.00,1.39
5640.00,1.39
5639.00,1.39
5638.00,1.40
5637.00,1.40
5636.00,1.40
5635.00,1.40
5634.00,1.40
5633.00,1.40
5632.00,1.40
5631.00,1.41
5630.00,1.41
5629.00,1.41
5628.00,1.41
5627.00,1.41
5626.00,1.41
5625.00,1.41
5624.00,1.42
5623.00,1.42
5622.00,1.42
5621.00,1.42
5620.00,1.42
5619.00,1.43
5618.00,1.43
5617.00,1.43
5616.00,1.43
5615.00,1.44
5614.00,1.44
5613.00,1.44
5612.00,1.44
5611.00,1.45
5610.00,1.45
5609.00,1.45
5608.00,1.45
5607.00,1.45
5606.00,1.46
5605.00,1.46
5604.00,1.46
5603.00,1.46
5602.00,1.46
5601.00,1.47
5600.00,1.47
5599.00,1.47
5598.00,1.47
5597.00,1.47
5596.00,1.47
5595.00,1.47
5594.00,1.47
5593.00,1.47
5592.00,1.47
5591.00,1.48
5590.00,1.48
5589.00,1.48
5588.00,1.48
5587.00,1.48
5586.00,1.48
5585.00,1.48
5584.00,1.48
5583.00,1.48
5582.00,1.48
5581.00,1.48
5580.00,1.49
5579.00,1.49
5578.00,1.49
5577.00,1.49
5576.00,1.49
5575.00,1.49
5574.00,1.50
5573.00,1.50
5572.00,1.50
5571.00,1.50
5570.00,1.51
5569.00,1.51
5568.00,1.51
5567.00,1.51
5566.00,1.52
5565.00,1.52
5564.00,1.52
5563.00,1.52
5562.00,1.53
5561.00,1.53
5560.00,1.53
5559.00,1.53
5558.00,1.53
5557.00,1.53
5556.00,1.54
5555.00,1.54
5554.00,1.54
5553.00,1.54
5552.00,1.54
5551.00,1.54
5550.00,1.54
5549.00,1.54
5548.00,1.55
5547.00,1.55
5546.00,1.55
5545.00,1.55
5544.00,1.55
5543.00,1.55
5542.00,1.55
5541.00,1.55
5540.00,1.55
5539.00,1.55
5538.00,1.55
5537.00,1.55
5536.00,1.55
5535.00,1.55
5534.00,1.55
5533.00,1.55
5532.00,1.55
5531.00,1.55
5530.00,1.55
5529.00,1.56
5528.00,1.56
5527.00,1.56
5526.00,1.56
5525.00,1.56
5524.00,1.56
5523.00,1.56
5522.00,1.56
5521.00,1.57
5520.00,1.57
5519.00,1.57
5518.00,1.57
5517.00,1.57
5516.00,1.57
5515.00,1.58
5514.00,1.58
5513.00,1.58
5512.00,1.58
5511.00,1.58
5510.00,1.58
5509.00,1.59
5508.00,1.59
5507.00,1.59
5506.00,1.59
5505.00,1.59
5504.00,1.59
5503.00,1.59
5502.00,1.60
5501.00,1.60
5500.00,1.60
5499.00,1.60
5498.00,1.60
5497.00,1.60
5496.00,1.60
5495.00,1.60
5494.00,1.60
5493.00,1.60
5492.00,1.60
5491.00,1.60
5490.00,1.60
5489.00,1.60
5488.00,1.61
5487.00,1.61
5486.00,1.61
5485.00,1.61
5484.00,1.61
5483.00,1.61
5482.00,1.61
5481.00,1.61
5480.00,1.61
5479.00,1.61
5478.00,1.61
5477.00,1.61
5476.00,1.61
5475.00,1.61
5474.00,1.61
5473.00,1.61
5472.00,1.61
5471.00,1.62
5470.00,1.62
5469.00,1.62
5468.00,1.62
5467.00,1.62
5466.00,1.62
5465.00,1.62
5464.00,1.62
5463.00,1.63
5462.00,1.63
5461.00,1.63
5460.00,1.63
5459.00,1.64
5458.00,1.64
5457.00,1.64
5456.00,1.65
5455.00,1.65
5454.00,1.65
5453.00,1.65
5452.00,1.66
5451.00,1.66
5450.00,1.66
5449.00,1.67
5448.00,1.67
5447.00,1.67
5446.00,1.68
5445.00,1.68
5444.00,1.68
5443.00,1.69
5442.00,1.69
5441.00,1.69
5440.00,1.70
5439.00,1.70
5438.00,1.70
5437.00,1.70
5436.00,1.70
5435.00,1.71
5434.00,1.71
5433.00,1.71
5432.00,1.71
5431.00,1.71
5430.00,1.71
5429.00,1.71
5428.00,1.71
5427.00,1.71
5426.00,1.71
5425.00,1.71
5424.00,1.71
5423.00,1.71
5422.00,1.71
5421.00,1.71
5420.00,1.71
5419.00,1.70
5418.00,1.70
5417.00,1.70
5416.00,1.70
5415.00,1.70
5414.00,1.70
5413.00,1.70
5412.00,1.69
5411.00,1.69
5410.00,1.69
5409.00,1.69
5408.00,1.69
5407.00,1.69
5406.00,1.69
5405.00,1.69
5404.00,1.69
5403.00,1.69
5402.00,1.69
5401.00,1.69
5400.00,1.69
5399.00,1.69
5398.00,1.68
5397.00,1.68
5396.00,1.68
5395.00,1.68
5394.00,1.67
5393.00,1.67
5392.00,1.67
5391.00,1.67
5390.00,1.67
5389.00,1.66
5388.00,1.66
5387.00,1.66
5386.00,1.66
5385.00,1.65
5384.00,1.65
5383.00,1.65
5382.00,1.64
5381.00,1.64
5380.00,1.63
5379.00,1.63
5378.00,1.62
5377.00,1.62
5376.00,1.61
5375.00,1.61
5374.00,1.60
5373.00,1.60
5372.00,1.59
5371.00,1.59
5370.00,1.58
5369.00,1.58
5368.00,1.57
5367.00,1.56
5366.00,1.56
5365.00,1.55
5364.00,1.55
5363.00,1.54
5362.00,1.53
5361.00,1.52
5360.00,1.52
5359.00,1.51
5358.00,1.50
5357.00,1.49
5356.00,1.48
5355.00,1.48
5354.00,1.47
5353.00,1.46
5352.00,1.45
5351.00,1.45
5350.00,1.44
5349.00,1.43
5348.00,1.42
5347.00,1.41
5346.00,1.40
5345.00,1.39
5344.00,1.38
5343.00,1.37
5342.00,1.35
5341.00,1.34
5340.00,1.33
5339.00,1.32
5338.00,1.31
5337.00,1.30
5336.00,1.28
5335.00,1.27
5334.00,1.26
5333.00,1.25
5332.00,1.24
5331.00,1.23
5330.00,1.21
5329.00,1.20
5328.00,1.19
5327.00,1.18
5326.00,1.16
5325.00,1.15
5324.00,1.14
5323.00,1.13
5322.00,1.12
5321.00,1.10
5320.00,1.09
5319.00,1.08
5318.00,1.07
5317.00,1.06
5316.00,1.05
5315.00,1.04
5314.00,1.03
5313.00,1.02
5312.00,1.02
5311.00,1.01
5310.00,1.00
5309.00,0.99
5308.00,0.98
5307.00,0.98
5306.00,0.97
5305.00,0.96
5304.00,0.95
5303.00,0.95
5302.00,0.94
5301.00,0.94
5300.00,0.93
5299.00,0.93
5298.00,0.92
5297.00,0.92
5296.00,0.91
5295.00,0.91
5294.00,0.90
5293.00,0.90
5292.00,0.89
5291.00,0.89
5290.00,0.88
5289.00,0.88
5288.00,0.88
5287.00,0.87
5286.00,0.87
5285.00,0.87
5284.00,0.87
5283.00,0.86
5282.00,0.86
5281.00,0.86
5280.00,0.86
5279.00,0.86
5278.00,0.86
5277.00,0.85
5276.00,0.85
5275.00,0.85
5274.00,0.85
5273.00,0.85
5272.00,0.85
5271.00,0.85
5270.00,0.85
5269.00,0.85
5268.00,0.85
5267.00,0.85
5266.00,0.84
5265.00,0.84
5264.00,0.84
5263.00,0.84
5262.00,0.84
5261.00,0.84
5260.00,0.84
5259.00,0.84
5258.00,0.84
5257.00,0.84
5256.00,0.84
5255.00,0.83
5254.00,0.83
5253.00,0.83
5252.00,0.83
5251.00,0.83
5250.00,0.83
5249.00,0.82
5248.00,0.82
5247.00,0.82
5246.00,0.82
5245.00,0.82
5244.00,0.82
5243.00,0.82
5242.00,0.82
5241.00,0.82
5240.00,0.82
5239.00,0.82
5238.00,0.82
5237.00,0.82
5236.00,0.82
5235.00,0.82
5234.00,0.82
5233.00,0.82
5232.00,0.82
5231.00,0.82
5230.00,0.82
5229.00,0.82
5228.00,0.83
5227.00,0.83
5226.00,0.83
5225.00,0.83
5224.00,0.83
5223.00,0.83
5222.00,0.84
5221.00,0.84
5220.00,0.84
5219.00,0.84
5218.00,0.84
5217.00,0.84
5216.00,0.84
5215.00,0.84
5214.00,0.84
5213.00,0.84
5212.00,0.84
5211.00,0.84
5210.00,0.84
5209.00,0.84
5208.00,0.84
5207.00,0.84
5206.00,0.84
5205.00,0.84
5204.00,0.84
5203.00,0.84
5202.00,0.84
5201.00,0.84
5200.00,0.84
5199.00,0.84
5198.00,0.84
5197.00,0.84
5196.00,0.85
5195.00,0.85
5194.00,0.85
5193.00,0.85
5192.00,0.85
5191.00,0.85
5190.00,0.85
5189.00,0.85
5188.00,0.85
5187.00,0.86
5186.00,0.86
5185.00,0.86
5184.00,0.86
5183.00,0.86
5182.00,0.86
5181.00,0.87
5180.00,0.87
5179.00,0.87
5178.00,0.87
5177.00,0.87
5176.00,0.87
5175.00,0.87
5174.00,0.87
5173.00,0.86
5172.00,0.86
5171.00,0.86
5170.00,0.86
5169.00,0.86
5168.00,0.86
5167.00,0.86
5166.00,0.85
5165.00,0.85
5164.00,0.85
5163.00,0.85
5162.00,0.85
5161.00,0.84
5160.00,0.84
5159.00,0.84
5158.00,0.84
5157.00,0.83
5156.00,0.83
5155.00,0.83
5154.00,0.83
5153.00,0.83
5152.00,0.83
5151.00,0.83
5150.00,0.83
5149.00,0.83
5148.00,0.83
5147.00,0.83
5146.00,0.83
5145.00,0.83
5144.00,0.84
5143.00,0.84
5142.00,0.84
5141.00,0.84
5140.00,0.84
5139.00,0.85
5138.00,0.85
5137.00,0.85
5136.00,0.85
5135.00,0.85
5134.00,0.86
5133.00,0.86
5132.00,0.86
5131.00,0.86
5130.00,0.86
5129.00,0.86
5128.00,0.86
5127.00,0.87
5126.00,0.87
5125.00,0.87
5124.00,0.87
5123.00,0.87
5122.00,0.87
5121.00,0.87
5120.00,0.87
5119.00,0.87
5118.00,0.87
5117.00,0.87
5116.00,0.87
5115.00,0.87
5114.00,0.87
5113.00,0.87
5112.00,0.87
5111.00,0.87
5110.00,0.88
5109.00,0.88
5108.00,0.88
5107.00,0.88
5106.00,0.88
5105.00,0.88
5104.00,0.88
5103.00,0.88
5102.00,0.89
5101.00,0.89
5100.00,0.89
5099.00,0.89
5098.00,0.89
5097.00,0.89
5096.00,0.89
5095.00,0.89
5094.00,0.89
5093.00,0.89
5092.00,0.89
5091.00,0.89
5090.00,0.89
5089.00,0.89
5088.00,0.89
5087.00,0.89
5086.00,0.89
5085.00,0.89
5084.00,0.88
5083.00,0.88
5082.00,0.88
5081.00,0.88
5080.00,0.88
5079.00,0.88
5078.00,0.88
5077.00,0.88
5076.00,0.88
5075.00,0.88
5074.00,0.88
5073.00,0.88
5072.00,0.88
5071.00,0.88
5070.00,0.88
5069.00,0.88
5068.00,0.88
5067.00,0.88
5066.00,0.88
5065.00,0.88
5064.00,0.88
5063.00,0.88
5062.00,0.88
5061.00,0.88
5060.00,0.88
5059.00,0.88
5058.00,0.88
5057.00,0.88
5056.00,0.88
5055.00,0.88
5054.00,0.88
5053.00,0.88
5052.00,0.88
5051.00,0.88
5050.00,0.88
5049.00,0.88
5048.00,0.89
5047.00,0.89
5046.00,0.89
5045.00,0.89
5044.00,0.89
5043.00,0.89
5042.00,0.89
5041.00,0.89
5040.00,0.89
5039.00,0.89
5038.00,0.89
5037.00,0.90
5036.00,0.90
5035.00,0.90
5034.00,0.90
5033.00,0.90
5032.00,0.91
5031.00,0.91
5030.00,0.91
5029.00,0.91
5028.00,0.91
5027.00,0.92
5026.00,0.92
5025.00,0.92
5024.00,0.92
5023.00,0.92
5022.00,0.92
5021.00,0.92
5020.00,0.92
5019.00,0.92
5018.00,0.93
5017.00,0.93
5016.00,0.93
5015.00,0.93
5014.00,0.93
5013.00,0.93
5012.00,0.93
5011.00,0.93
5010.00,0.93
5009.00,0.93
5008.00,0.93
5007.00,0.93
5006.00,0.93
5005.00,0.93
5004.00,0.93
5003.00,0.93
5002.00,0.93
5001.00,0.93
5000.00,0.93
4999.00,0.94
4998.00,0.94
4997.00,0.94
4996.00,0.94
4995.00,0.94
4994.00,0.94
4993.00,0.94
4992.00,0.94
4991.00,0.94
4990.00,0.94
4989.00,0.94
4988.00,0.94
4987.00,0.94
4986.00,0.94
4985.00,0.94
4984.00,0.94
4983.00,0.94
4982.00,0.94
4981.00,0.94
4980.00,0.94
4979.00,0.94
4978.00,0.94
4977.00,0.94
4976.00,0.94
4975.00,0.94
4974.00,0.94
4973.00,0.94
4972.00,0.94
4971.00,0.95
4970.00,0.95
4969.00,0.95
4968.00,0.95
4967.00,0.95
4966.00,0.95
4965.00,0.95
4964.00,0.95
4963.00,0.95
4962.00,0.95
4961.00,0.95
4960.00,0.95
4959.00,0.95
4958.00,0.95
4957.00,0.95
4956.00,0.95
4955.00,0.95
4954.00,0.95
4953.00,0.95
4952.00,0.95
4951.00,0.95
4950.00,0.95
4949.00,0.95
4948.00,0.96
4947.00,0.96
4946.00,0.96
4945.00,0.96
4944.00,0.96
4943.00,0.96
4942.00,0.97
4941.00,0.97
4940.00,0.97
4939.00,0.97
4938.00,0.97
4937.00,0.98
4936.00,0.98
4935.00,0.98
4934.00,0.98
4933.00,0.98
4932.00,0.98
4931.00,0.99
4930.00,0.99
4929.00,0.99
4928.00,0.99
4927.00,0.99
4926.00,0.99
4925.00,1.00
4924.00,1.00
4923.00,1.00
4922.00,1.00
4921.00,1.00
4920.00,1.00
4919.00,1.00
4918.00,1.01
4917.00,1.01
4916.00,1.01
4915.00,1.01
4914.00,1.01
4913.00,1.01
4912.00,1.01
4911.00,1.01
4910.00,1.02
4909.00,1.02
4908.00,1.02
4907.00,1.02
4906.00,1.03
4905.00,1.03
4904.00,1.03
4903.00,1.03
4902.00,1.04
4901.00,1.04
4900.00,1.04
4899.00,1.04
4898.00,1.05
4897.00,1.05
4896.00,1.05
4895.00,1.05
4894.00,1.05
4893.00,1.05
4892.00,1.05
4891.00,1.05
4890.00,1.05
4889.00,1.06
4888.00,1.06
4887.00,1.06
4886.00,1.06
4885.00,1.06
4884.00,1.06
4883.00,1.07
4882.00,1.07
4881.00,1.07
4880.00,1.07
4879.00,1.07
4878.00,1.07
4877.00,1.07
4876.00,1.07
4875.00,1.06
4874.00,1.06
4873.00,1.06
4872.00,1.06
4871.00,1.06
4870.00,1.06
4869.00,1.06
4868.00,1.06
4867.00,1.06
4866.00,1.06
4865.00,1.06
4864.00,1.06
4863.00,1.06
4862.00,1.06
4861.00,1.06
4860.00,1.06
4859.00,1.06
4858.00,1.06
4857.00,1.06
4856.00,1.06
4855.00,1.06
4854.00,1.06
4853.00,1.06
4852.00,1.06
4851.00,1.06
4850.00,1.06
4849.00,1.06
4848.00,1.06
4847.00,1.06
4846.00,1.06
4845.00,1.07
4844.00,1.07
4843.00,1.07
4842.00,1.07
4841.00,1.07
4840.00,1.07
4839.00,1.07
4838.00,1.07
4837.00,1.08
4836.00,1.08
4835.00,1.08
4834.00,1.08
4833.00,1.08
4832.00,1.09
4831.00,1.09
4830.00,1.09
4829.00,1.09
4828.00,1.09
4827.00,1.09
4826.00,1.10
4825.00,1.10
4824.00,1.10
4823.00,1.10
4822.00,1.10
4821.00,1.10
4820.00,1.10
4819.00,1.10
4818.00,1.10
4817.00,1.11
4816.00,1.11
4815.00,1.11
4814.00,1.11
4813.00,1.11
4812.00,1.11
4811.00,1.11
4810.00,1.11
4809.00,1.11
4808.00,1.11
4807.00,1.11
4806.00,1.11
4805.00,1.12
4804.00,1.12
4803.00,1.12
4802.00,1.12
4801.00,1.12
4800.00,1.12
4799.00,1.12
4798.00,1.12
4797.00,1.12
4796.00,1.13
4795.00,1.13
4794.00,1.13
4793.00,1.13
4792.00,1.13
4791.00,1.13
4790.00,1.14
4789.00,1.14
4788.00,1.14
4787.00,1.15
4786.00,1.15
4785.00,1.15
4784.00,1.15
4783.00,1.16
4782.00,1.16
4781.00,1.16
4780.00,1.16
4779.00,1.16
4778.00,1.16
4777.00,1.16
4776.00,1.16
4775.00,1.17
4774.00,1.17
4773.00,1.17
4772.00,1.17
4771.00,1.17
4770.00,1.17
4769.00,1.17
4768.00,1.17
4767.00,1.17
4766.00,1.17
4765.00,1.17
4764.00,1.17
4763.00,1.16
4762.00,1.16
4761.00,1.16
4760.00,1.16
4759.00,1.16
4758.00,1.16
4757.00,1.15
4756.00,1.15
4755.00,1.15
4754.00,1.15
4753.00,1.15
4752.00,1.15
4751.00,1.15
4750.00,1.15
4749.00,1.15
4748.00,1.15
4747.00,1.15
4746.00,1.15
4745.00,1.15
4744.00,1.15
4743.00,1.15
4742.00,1.15
4741.00,1.16
4740.00,1.16
4739.00,1.16
4738.00,1.16
4737.00,1.16
4736.00,1.17
4735.00,1.17
4734.00,1.17
4733.00,1.17
4732.00,1.17
4731.00,1.18
4730.00,1.18
4729.00,1.18
4728.00,1.18
4727.00,1.18
4726.00,1.18
4725.00,1.18
4724.00,1.18
4723.00,1.18
4722.00,1.18
4721.00,1.19
4720.00,1.19
4719.00,1.19
4718.00,1.19
4717.00,1.19
4716.00,1.19
4715.00,1.19
4714.00,1.19
4713.00,1.19
4712.00,1.19
4711.00,1.19
4710.00,1.19
4709.00,1.19
4708.00,1.19
4707.00,1.19
4706.00,1.20
4705.00,1.20
4704.00,1.20
4703.00,1.20
4702.00,1.20
4701.00,1.20
4700.00,1.20
4699.00,1.20
4698.00,1.21
4697.00,1.21
4696.00,1.21
4695.00,1.21
4694.00,1.22
4693.00,1.22
4692.00,1.23
4691.00,1.23
4690.00,1.23
4689.00,1.24
4688.00,1.24
4687.00,1.24
4686.00,1.25
4685.00,1.25
4684.00,1.26
4683.00,1.26
4682.00,1.27
4681.00,1.27
4680.00,1.28
4679.00,1.28
4678.00,1.28
4677.00,1.29
4676.00,1.29
4675.00,1.30
4674.00,1.30
4673.00,1.30
4672.00,1.31
4671.00,1.31
4670.00,1.31
4669.00,1.31
4668.00,1.31
4667.00,1.31
4666.00,1.31
4665.00,1.31
4664.00,1.31
4663.00,1.31
4662.00,1.31
4661.00,1.31
4660.00,1.30
4659.00,1.30
4658.00,1.30
4657.00,1.30
4656.00,1.30
4655.00,1.29
4654.00,1.29
4653.00,1.29
4652.00,1.29
4651.00,1.29
4650.00,1.29
4649.00,1.29
4648.00,1.28
4647.00,1.28
4646.00,1.28
4645.00,1.28
4644.00,1.28
4643.00,1.29
4642.00,1.29
4641.00,1.29
4640.00,1.29
4639.00,1.29
4638.00,1.30
4637.00,1.30
4636.00,1.30
4635.00,1.30
4634.00,1.31
4633.00,1.31
4632.00,1.31
4631.00,1.31
4630.00,1.32
4629.00,1.32
4628.00,1.32
4627.00,1.32
4626.00,1.33
4625.00,1.33
4624.00,1.33
4623.00,1.34
4622.00,1.34
4621.00,1.34
4620.00,1.34
4619.00,1.34
4618.00,1.34
4617.00,1.35
4616.00,1.35
4615.00,1.35
4614.00,1.35
4613.00,1.35
4612.00,1.35
4611.00,1.35
4610.00,1.35
4609.00,1.35
4608.00,1.35
4607.00,1.35
4606.00,1.36
4605.00,1.36
4604.00,1.36
4603.00,1.36
4602.00,1.36
4601.00,1.36
4600.00,1.36
4599.00,1.36
4598.00,1.36
4597.00,1.36
4596.00,1.36
4595.00,1.36
4594.00,1.37
4593.00,1.37
4592.00,1.37
4591.00,1.37
4590.00,1.37
4589.00,1.37
4588.00,1.38
4587.00,1.38
4586.00,1.38
4585.00,1.38
4584.00,1.38
4583.00,1.39
4582.00,1.39
4581.00,1.39
4580.00,1.39
4579.00,1.39
4578.00,1.39
4577.00,1.39
4576.00,1.39
4575.00,1.39
4574.00,1.39
4573.00,1.39
4572.00,1.40
4571.00,1.40
4570.00,1.40
4569.00,1.40
4568.00,1.40
4567.00,1.40
4566.00,1.41
4565.00,1.41
4564.00,1.41
4563.00,1.41
4562.00,1.41
4561.00,1.41
4560.00,1.41
4559.00,1.41
4558.00,1.41
4557.00,1.41
4556.00,1.41
4555.00,1.41
4554.00,1.41
4553.00,1.41
4552.00,1.41
4551.00,1.41
4550.00,1.41
4549.00,1.40
4548.00,1.40
4547.00,1.40
4546.00,1.40
4545.00,1.40
4544.00,1.40
4543.00,1.40
4542.00,1.40
4541.00,1.39
4540.00,1.39
4539.00,1.39
4538.00,1.39
4537.00,1.39
4536.00,1.38
4535.00,1.38
4534.00,1.38
4533.00,1.38
4532.00,1.38
4531.00,1.38
4530.00,1.38
4529.00,1.38
4528.00,1.38
4527.00,1.37
4526.00,1.38
4525.00,1.38
4524.00,1.38
4523.00,1.38
4522.00,1.38
4521.00,1.38
4520.00,1.38
4519.00,1.38
4518.00,1.38
4517.00,1.38
4516.00,1.38
4515.00,1.39
4514.00,1.39
4513.00,1.39
4512.00,1.40
4511.00,1.40
4510.00,1.40
4509.00,1.40
4508.00,1.41
4507.00,1.41
4506.00,1.41
4505.00,1.42
4504.00,1.42
4503.00,1.42
4502.00,1.42
4501.00,1.43
4500.00,1.43
4499.00,1.43
4498.00,1.43
4497.00,1.43
4496.00,1.43
4495.00,1.43
4494.00,1.43
4493.00,1.43
4492.00,1.43
4491.00,1.43
4490.00,1.43
4489.00,1.42
4488.00,1.42
4487.00,1.42
4486.00,1.42
4485.00,1.41
4484.00,1.41
4483.00,1.41
4482.00,1.40
4481.00,1.40
4480.00,1.40
4479.00,1.39
4478.00,1.39
4477.00,1.39
4476.00,1.38
4475.00,1.38
4474.00,1.38
4473.00,1.37
4472.00,1.37
4471.00,1.36
4470.00,1.36
4469.00,1.36
4468.00,1.35
4467.00,1.35
4466.00,1.35
4465.00,1.35
4464.00,1.34
4463.00,1.34
4462.00,1.34
4461.00,1.33
4460.00,1.33
4459.00,1.32
4458.00,1.32
4457.00,1.32
4456.00,1.31
4455.00,1.31
4454.00,1.31
4453.00,1.30
4452.00,1.30
4451.00,1.30
4450.00,1.29
4449.00,1.29
4448.00,1.29
4447.00,1.28
4446.00,1.28
4445.00,1.28
4444.00,1.27
4443.00,1.27
4442.00,1.27
4441.00,1.26
4440.00,1.26
4439.00,1.26
4438.00,1.25
4437.00,1.25
4436.00,1.25
4435.00,1.25
4434.00,1.24
4433.00,1.24
4432.00,1.24
4431.00,1.24
4430.00,1.23
4429.00,1.23
4428.00,1.23
4427.00,1.23
4426.00,1.23
4425.00,1.22
4424.00,1.22
4423.00,1.22
4422.00,1.22
4421.00,1.21
4420.00,1.21
4419.00,1.21
4418.00,1.21
4417.00,1.21
4416.00,1.21
4415.00,1.21
4414.00,1.21
4413.00,1.21
4412.00,1.21
4411.00,1.21
4410.00,1.21
4409.00,1.21
4408.00,1.21
4407.00,1.21
4406.00,1.21
4405.00,1.21
4404.00,1.21
4403.00,1.21
4402.00,1.21
4401.00,1.21
4400.00,1.22
4399.00,1.22
4398.00,1.22
4397.00,1.22
4396.00,1.23
4395.00,1.23
4394.00,1.23
4393.00,1.24
4392.00,1.24
4391.00,1.24
4390.00,1.25
4389.00,1.25
4388.00,1.25
4387.00,1.25
4386.00,1.25
4385.00,1.26
4384.00,1.26
4383.00,1.26
4382.00,1.26
4381.00,1.26
4380.00,1.26
4379.00,1.27
4378.00,1.27
4377.00,1.27
4376.00,1.27
4375.00,1.27
4374.00,1.27
4373.00,1.27
4372.00,1.27
4371.00,1.27
4370.00,1.27
4369.00,1.27
4368.00,1.27
4367.00,1.26
4366.00,1.26
4365.00,1.26
4364.00,1.25
4363.00,1.25
4362.00,1.24
4361.00,1.24
4360.00,1.24
4359.00,1.24
4358.00,1.23
4357.00,1.23
4356.00,1.23
4355.00,1.23
4354.00,1.22
4353.00,1.22
4352.00,1.22
4351.00,1.22
4350.00,1.21
4349.00,1.21
4348.00,1.21
4347.00,1.21
4346.00,1.20
4345.00,1.20
4344.00,1.20
4343.00,1.20
4342.00,1.21
4341.00,1.21
4340.00,1.21
4339.00,1.21
4338.00,1.21
4337.00,1.22
4336.00,1.22
4335.00,1.22
4334.00,1.22
4333.00,1.23
4332.00,1.23
4331.00,1.23
4330.00,1.24
4329.00,1.24
4328.00,1.24
4327.00,1.24
4326.00,1.25
4325.00,1.25
4324.00,1.25
4323.00,1.25
4322.00,1.26
4321.00,1.26
4320.00,1.26
4319.00,1.27
4318.00,1.27
4317.00,1.27
4316.00,1.28
4315.00,1.28
4314.00,1.28
4313.00,1.28
4312.00,1.28
4311.00,1.28
4310.00,1.28
4309.00,1.28
4308.00,1.28
4307.00,1.29
4306.00,1.29
4305.00,1.29
4304.00,1.29
4303.00,1.29
4302.00,1.30
4301.00,1.30
4300.00,1.30
4299.00,1.30
4298.00,1.30
4297.00,1.31
4296.00,1.31
4295.00,1.31
4294.00,1.31
4293.00,1.31
4292.00,1.31
4291.00,1.31
4290.00,1.31
4289.00,1.31
4288.00,1.31
4287.00,1.31
4286.00,1.31
4285.00,1.31
4284.00,1.31
4283.00,1.31
4282.00,1.31
4281.00,1.31
4280.00,1.32
4279.00,1.32
4278.00,1.32
4277.00,1.31
4276.00,1.31
4275.00,1.31
4274.00,1.31
4273.00,1.31
4272.00,1.31
4271.00,1.31
4270.00,1.31
4269.00,1.31
4268.00,1.31
4267.00,1.31
4266.00,1.31
4265.00,1.31
4264.00,1.31
4263.00,1.31
4262.00,1.31
4261.00,1.31
4260.00,1.31
4259.00,1.30
4258.00,1.30
4257.00,1.30
4256.00,1.30
4255.00,1.30
4254.00,1.30
4253.00,1.30
4252.00,1.29
4251.00,1.29
4250.00,1.29
4249.00,1.29
4248.00,1.29
4247.00,1.29
4246.00,1.29
4245.00,1.28
4244.00,1.28
4243.00,1.28
4242.00,1.28
4241.00,1.28
4240.00,1.28
4239.00,1.28
4238.00,1.29
4237.00,1.29
4236.00,1.29
4235.00,1.29
4234.00,1.29
4233.00,1.29
4232.00,1.29
4231.00,1.30
4230.00,1.30
4229.00,1.30
4228.00,1.30
4227.00,1.30
4226.00,1.30
4225.00,1.31
4224.00,1.31
4223.00,1.31
4222.00,1.31
4221.00,1.31
4220.00,1.32
4219.00,1.32
4218.00,1.32
4217.00,1.32
4216.00,1.33
4215.00,1.33
4214.00,1.33
4213.00,1.33
4212.00,1.33
4211.00,1.33
4210.00,1.33
4209.00,1.34
4208.00,1.34
4207.00,1.34
4206.00,1.34
4205.00,1.34
4204.00,1.34
4203.00,1.34
4202.00,1.34
4201.00,1.34
4200.00,1.34
4199.00,1.34
4198.00,1.34
4197.00,1.34
4196.00,1.33
4195.00,1.33
4194.00,1.33
4193.00,1.33
4192.00,1.32
4191.00,1.32
4190.00,1.32
4189.00,1.31
4188.00,1.31
4187.00,1.31
4186.00,1.31
4185.00,1.30
4184.00,1.30
4183.00,1.30
4182.00,1.30
4181.00,1.30
4180.00,1.29
4179.00,1.29
4178.00,1.29
4177.00,1.29
4176.00,1.29
4175.00,1.29
4174.00,1.29
4173.00,1.30
4172.00,1.30
4171.00,1.30
4170.00,1.30
4169.00,1.30
4168.00,1.31
4167.00,1.31
4166.00,1.31
4165.00,1.32
4164.00,1.32
4163.00,1.33
4162.00,1.33
4161.00,1.33
4160.00,1.34
4159.00,1.34
4158.00,1.34
4157.00,1.35
4156.00,1.35
4155.00,1.35
4154.00,1.35
4153.00,1.36
4152.00,1.36
4151.00,1.36
4150.00,1.36
4149.00,1.36
4148.00,1.36
4147.00,1.36
4146.00,1.37
4145.00,1.37
4144.00,1.37
4143.00,1.37
4142.00,1.37
4141.00,1.38
4140.00,1.38
4139.00,1.38
4138.00,1.38
4137.00,1.38
4136.00,1.39
4135.00,1.39
4134.00,1.39
4133.00,1.39
4132.00,1.39
4131.00,1.39
4130.00,1.40
4129.00,1.40
4128.00,1.40
4127.00,1.40
4126.00,1.40
4125.00,1.40
4124.00,1.41
4123.00,1.41
4122.00,1.41
4121.00,1.41
4120.00,1.41
4119.00,1.41
4118.00,1.41
4117.00,1.41
4116.00,1.41
4115.00,1.40
4114.00,1.40
4113.00,1.40
4112.00,1.40
4111.00,1.40
4110.00,1.39
4109.00,1.39
4108.00,1.39
4107.00,1.39
4106.00,1.38
4105.00,1.38
4104.00,1.38
4103.00,1.38
4102.00,1.38
4101.00,1.38
4100.00,1.38
4099.00,1.38
4098.00,1.38
4097.00,1.38
4096.00,1.38
4095.00,1.38
4094.00,1.39
4093.00,1.39
4092.00,1.39
4091.00,1.39
4090.00,1.40
4089.00,1.40
4088.00,1.41
4087.00,1.41
4086.00,1.42
4085.00,1.42
4084.00,1.43
4083.00,1.43
4082.00,1.44
4081.00,1.44
4080.00,1.45
4079.00,1.45
4078.00,1.45
4077.00,1.46
4076.00,1.46
4075.00,1.46
4074.00,1.46
4073.00,1.46
4072.00,1.46
4071.00,1.46
4070.00,1.46
4069.00,1.46
4068.00,1.46
4067.00,1.46
4066.00,1.45
4065.00,1.45
4064.00,1.45
4063.00,1.44
4062.00,1.44
4061.00,1.43
4060.00,1.42
4059.00,1.42
4058.00,1.41
4057.00,1.41
4056.00,1.40
4055.00,1.40
4054.00,1.39
4053.00,1.39
4052.00,1.38
4051.00,1.38
4050.00,1.37
4049.00,1.37
4048.00,1.37
4047.00,1.37
4046.00,1.37
4045.00,1.37
4044.00,1.38
4043.00,1.38
4042.00,1.39
4041.00,1.39
4040.00,1.40
4039.00,1.41
4038.00,1.42
4037.00,1.42
4036.00,1.43
4035.00,1.44
4034.00,1.44
4033.00,1.45
4032.00,1.46
4031.00,1.47
4030.00,1.48
4029.00,1.49
4028.00,1.51
4027.00,1.52
4026.00,1.53
4025.00,1.54
4024.00,1.55
4023.00,1.57
4022.00,1.57
4021.00,1.58
4020.00,1.59
4019.00,1.59
4018.00,1.59
4017.00,1.59
4016.00,1.60
4015.00,1.60
4014.00,1.60
4013.00,1.60
4012.00,1.61
4011.00,1.61
4010.00,1.62
4009.00,1.63
4008.00,1.63
4007.00,1.64
4006.00,1.65
4005.00,1.65
4004.00,1.65
4003.00,1.65
4002.00,1.65
4001.00,1.65
4000.00,1.65
