创建为新数据集,样品 225 用户 Administrator 日期 星期六, 七月 27 2019
cm-1,%T
10000.00,2.63
9999.00,2.57
9998.00,2.51
9997.00,2.46
9996.00,2.40
9995.00,2.34
9994.00,2.29
9993.00,2.24
9992.00,2.19
9991.00,2.14
9990.00,2.09
9989.00,2.05
9988.00,2.01
9987.00,1.97
9986.00,1.94
9985.00,1.91
9984.00,1.88
9983.00,1.85
9982.00,1.83
9981.00,1.81
9980.00,1.79
9979.00,1.77
9978.00,1.75
9977.00,1.73
9976.00,1.72
9975.00,1.71
9974.00,1.69
9973.00,1.68
9972.00,1.67
9971.00,1.67
9970.00,1.66
9969.00,1.65
9968.00,1.65
9967.00,1.65
9966.00,1.64
9965.00,1.64
9964.00,1.63
9963.00,1.63
9962.00,1.62
9961.00,1.62
9960.00,1.61
9959.00,1.60
9958.00,1.59
9957.00,1.59
9956.00,1.58
9955.00,1.57
9954.00,1.57
9953.00,1.56
9952.00,1.56
9951.00,1.56
9950.00,1.56
9949.00,1.55
9948.00,1.55
9947.00,1.56
9946.00,1.56
9945.00,1.56
9944.00,1.56
9943.00,1.56
9942.00,1.56
9941.00,1.57
9940.00,1.57
9939.00,1.57
9938.00,1.58
9937.00,1.58
9936.00,1.59
9935.00,1.59
9934.00,1.60
9933.00,1.60
9932.00,1.61
9931.00,1.61
9930.00,1.61
9929.00,1.61
9928.00,1.61
9927.00,1.61
9926.00,1.61
9925.00,1.61
9924.00,1.61
9923.00,1.61
9922.00,1.60
9921.00,1.60
9920.00,1.59
9919.00,1.59
9918.00,1.58
9917.00,1.57
9916.00,1.57
9915.00,1.56
9914.00,1.55
9913.00,1.54
9912.00,1.53
9911.00,1.52
9910.00,1.52
9909.00,1.51
9908.00,1.50
9907.00,1.49
9906.00,1.48
9905.00,1.48
9904.00,1.47
9903.00,1.47
9902.00,1.47
9901.00,1.46
9900.00,1.46
9899.00,1.47
9898.00,1.47
9897.00,1.47
9896.00,1.47
9895.00,1.47
9894.00,1.48
9893.00,1.48
9892.00,1.48
9891.00,1.49
9890.00,1.49
9889.00,1.49
9888.00,1.50
9887.00,1.50
9886.00,1.50
9885.00,1.51
9884.00,1.51
9883.00,1.52
9882.00,1.52
9881.00,1.52
9880.00,1.52
9879.00,1.53
9878.00,1.53
9877.00,1.53
9876.00,1.53
9875.00,1.52
9874.00,1.52
9873.00,1.51
9872.00,1.51
9871.00,1.50
9870.00,1.49
9869.00,1.49
9868.00,1.48
9867.00,1.47
9866.00,1.46
9865.00,1.46
9864.00,1.45
9863.00,1.44
9862.00,1.44
9861.00,1.43
9860.00,1.43
9859.00,1.42
9858.00,1.42
9857.00,1.41
9856.00,1.41
9855.00,1.41
9854.00,1.41
9853.00,1.41
9852.00,1.40
9851.00,1.41
9850.00,1.41
9849.00,1.41
9848.00,1.41
9847.00,1.42
9846.00,1.42
9845.00,1.43
9844.00,1.43
9843.00,1.44
9842.00,1.45
9841.00,1.45
9840.00,1.46
9839.00,1.47
9838.00,1.47
9837.00,1.48
9836.00,1.48
9835.00,1.48
9834.00,1.49
9833.00,1.49
9832.00,1.49
9831.00,1.49
9830.00,1.49
9829.00,1.49
9828.00,1.49
9827.00,1.49
9826.00,1.49
9825.00,1.49
9824.00,1.49
9823.00,1.49
9822.00,1.49
9821.00,1.49
9820.00,1.49
9819.00,1.49
9818.00,1.49
9817.00,1.49
9816.00,1.49
9815.00,1.49
9814.00,1.50
9813.00,1.50
9812.00,1.50
9811.00,1.50
9810.00,1.50
9809.00,1.51
9808.00,1.51
9807.00,1.52
9806.00,1.52
9805.00,1.53
9804.00,1.53
9803.00,1.54
9802.00,1.54
9801.00,1.55
9800.00,1.55
9799.00,1.55
9798.00,1.56
9797.00,1.56
9796.00,1.56
9795.00,1.57
9794.00,1.57
9793.00,1.57
9792.00,1.57
9791.00,1.56
9790.00,1.56
9789.00,1.56
9788.00,1.55
9787.00,1.55
9786.00,1.55
9785.00,1.54
9784.00,1.54
9783.00,1.53
9782.00,1.53
9781.00,1.52
9780.00,1.51
9779.00,1.51
9778.00,1.50
9777.00,1.49
9776.00,1.48
9775.00,1.47
9774.00,1.46
9773.00,1.45
9772.00,1.44
9771.00,1.43
9770.00,1.42
9769.00,1.41
9768.00,1.40
9767.00,1.40
9766.00,1.39
9765.00,1.38
9764.00,1.38
9763.00,1.37
9762.00,1.37
9761.00,1.36
9760.00,1.36
9759.00,1.36
9758.00,1.35
9757.00,1.35
9756.00,1.35
9755.00,1.35
9754.00,1.35
9753.00,1.34
9752.00,1.34
9751.00,1.34
9750.00,1.34
9749.00,1.34
9748.00,1.34
9747.00,1.35
9746.00,1.35
9745.00,1.35
9744.00,1.35
9743.00,1.36
9742.00,1.36
9741.00,1.36
9740.00,1.36
9739.00,1.36
9738.00,1.36
9737.00,1.37
9736.00,1.37
9735.00,1.37
9734.00,1.37
9733.00,1.37
9732.00,1.37
9731.00,1.38
9730.00,1.38
9729.00,1.38
9728.00,1.39
9727.00,1.39
9726.00,1.40
9725.00,1.40
9724.00,1.41
9723.00,1.42
9722.00,1.42
9721.00,1.43
9720.00,1.44
9719.00,1.44
9718.00,1.45
9717.00,1.45
9716.00,1.46
9715.00,1.47
9714.00,1.47
9713.00,1.48
9712.00,1.49
9711.00,1.50
9710.00,1.51
9709.00,1.51
9708.00,1.52
9707.00,1.53
9706.00,1.53
9705.00,1.54
9704.00,1.54
9703.00,1.54
9702.00,1.54
9701.00,1.54
9700.00,1.54
9699.00,1.54
9698.00,1.54
9697.00,1.54
9696.00,1.54
9695.00,1.53
9694.00,1.53
9693.00,1.53
9692.00,1.53
9691.00,1.52
9690.00,1.52
9689.00,1.52
9688.00,1.51
9687.00,1.51
9686.00,1.50
9685.00,1.49
9684.00,1.49
9683.00,1.48
9682.00,1.47
9681.00,1.46
9680.00,1.45
9679.00,1.44
9678.00,1.43
9677.00,1.43
9676.00,1.42
9675.00,1.42
9674.00,1.41
9673.00,1.41
9672.00,1.41
9671.00,1.40
9670.00,1.40
9669.00,1.40
9668.00,1.40
9667.00,1.40
9666.00,1.39
9665.00,1.39
9664.00,1.39
9663.00,1.39
9662.00,1.40
9661.00,1.40
9660.00,1.40
9659.00,1.41
9658.00,1.41
9657.00,1.42
9656.00,1.43
9655.00,1.43
9654.00,1.44
9653.00,1.45
9652.00,1.46
9651.00,1.46
9650.00,1.47
9649.00,1.48
9648.00,1.48
9647.00,1.49
9646.00,1.49
9645.00,1.49
9644.00,1.50
9643.00,1.50
9642.00,1.50
9641.00,1.50
9640.00,1.50
9639.00,1.50
9638.00,1.50
9637.00,1.50
9636.00,1.50
9635.00,1.50
9634.00,1.50
9633.00,1.50
9632.00,1.49
9631.00,1.49
9630.00,1.49
9629.00,1.49
9628.00,1.49
9627.00,1.48
9626.00,1.48
9625.00,1.48
9624.00,1.47
9623.00,1.47
9622.00,1.47
9621.00,1.47
9620.00,1.46
9619.00,1.46
9618.00,1.46
9617.00,1.46
9616.00,1.46
9615.00,1.46
9614.00,1.45
9613.00,1.45
9612.00,1.45
9611.00,1.45
9610.00,1.45
9609.00,1.44
9608.00,1.44
9607.00,1.44
9606.00,1.44
9605.00,1.43
9604.00,1.43
9603.00,1.42
9602.00,1.42
9601.00,1.42
9600.00,1.42
9599.00,1.41
9598.00,1.41
9597.00,1.41
9596.00,1.41
9595.00,1.41
9594.00,1.41
9593.00,1.42
9592.00,1.42
9591.00,1.42
9590.00,1.43
9589.00,1.43
9588.00,1.44
9587.00,1.45
9586.00,1.45
9585.00,1.46
9584.00,1.47
9583.00,1.48
9582.00,1.48
9581.00,1.49
9580.00,1.50
9579.00,1.51
9578.00,1.51
9577.00,1.52
9576.00,1.53
9575.00,1.53
9574.00,1.54
9573.00,1.55
9572.00,1.55
9571.00,1.55
9570.00,1.56
9569.00,1.56
9568.00,1.56
9567.00,1.57
9566.00,1.57
9565.00,1.57
9564.00,1.56
9563.00,1.56
9562.00,1.56
9561.00,1.55
9560.00,1.55
9559.00,1.54
9558.00,1.54
9557.00,1.53
9556.00,1.53
9555.00,1.52
9554.00,1.52
9553.00,1.51
9552.00,1.51
9551.00,1.51
9550.00,1.50
9549.00,1.50
9548.00,1.49
9547.00,1.49
9546.00,1.49
9545.00,1.48
9544.00,1.48
9543.00,1.47
9542.00,1.47
9541.00,1.46
9540.00,1.46
9539.00,1.45
9538.00,1.45
9537.00,1.44
9536.00,1.44
9535.00,1.43
9534.00,1.42
9533.00,1.42
9532.00,1.41
9531.00,1.41
9530.00,1.40
9529.00,1.39
9528.00,1.38
9527.00,1.38
9526.00,1.37
9525.00,1.36
9524.00,1.35
9523.00,1.34
9522.00,1.34
9521.00,1.33
9520.00,1.32
9519.00,1.31
9518.00,1.30
9517.00,1.30
9516.00,1.29
9515.00,1.28
9514.00,1.28
9513.00,1.27
9512.00,1.27
9511.00,1.26
9510.00,1.26
9509.00,1.26
9508.00,1.26
9507.00,1.26
9506.00,1.26
9505.00,1.26
9504.00,1.27
9503.00,1.27
9502.00,1.28
9501.00,1.28
9500.00,1.29
9499.00,1.30
9498.00,1.30
9497.00,1.31
9496.00,1.32
9495.00,1.33
9494.00,1.33
9493.00,1.34
9492.00,1.35
9491.00,1.36
9490.00,1.37
9489.00,1.38
9488.00,1.39
9487.00,1.40
9486.00,1.41
9485.00,1.41
9484.00,1.42
9483.00,1.43
9482.00,1.43
9481.00,1.44
9480.00,1.44
9479.00,1.45
9478.00,1.45
9477.00,1.45
9476.00,1.45
9475.00,1.45
9474.00,1.45
9473.00,1.45
9472.00,1.45
9471.00,1.45
9470.00,1.45
9469.00,1.45
9468.00,1.45
9467.00,1.45
9466.00,1.45
9465.00,1.45
9464.00,1.45
9463.00,1.45
9462.00,1.44
9461.00,1.44
9460.00,1.44
9459.00,1.43
9458.00,1.43
9457.00,1.43
9456.00,1.42
9455.00,1.42
9454.00,1.42
9453.00,1.42
9452.00,1.42
9451.00,1.41
9450.00,1.41
9449.00,1.41
9448.00,1.41
9447.00,1.41
9446.00,1.41
9445.00,1.41
9444.00,1.41
9443.00,1.41
9442.00,1.40
9441.00,1.40
9440.00,1.40
9439.00,1.40
9438.00,1.40
9437.00,1.40
9436.00,1.40
9435.00,1.40
9434.00,1.40
9433.00,1.40
9432.00,1.41
9431.00,1.41
9430.00,1.41
9429.00,1.41
9428.00,1.41
9427.00,1.42
9426.00,1.42
9425.00,1.42
9424.00,1.42
9423.00,1.42
9422.00,1.42
9421.00,1.42
9420.00,1.43
9419.00,1.43
9418.00,1.43
9417.00,1.43
9416.00,1.43
9415.00,1.44
9414.00,1.44
9413.00,1.44
9412.00,1.45
9411.00,1.45
9410.00,1.45
9409.00,1.46
9408.00,1.46
9407.00,1.47
9406.00,1.47
9405.00,1.48
9404.00,1.48
9403.00,1.48
9402.00,1.49
9401.00,1.49
9400.00,1.49
9399.00,1.50
9398.00,1.50
9397.00,1.50
9396.00,1.51
9395.00,1.51
9394.00,1.51
9393.00,1.52
9392.00,1.52
9391.00,1.52
9390.00,1.52
9389.00,1.53
9388.00,1.53
9387.00,1.53
9386.00,1.53
9385.00,1.52
9384.00,1.52
9383.00,1.52
9382.00,1.52
9381.00,1.51
9380.00,1.51
9379.00,1.50
9378.00,1.50
9377.00,1.49
9376.00,1.49
9375.00,1.49
9374.00,1.49
9373.00,1.48
9372.00,1.48
9371.00,1.48
9370.00,1.48
9369.00,1.48
9368.00,1.47
9367.00,1.47
9366.00,1.47
9365.00,1.47
9364.00,1.47
9363.00,1.46
9362.00,1.46
9361.00,1.46
9360.00,1.46
9359.00,1.46
9358.00,1.47
9357.00,1.47
9356.00,1.47
9355.00,1.48
9354.00,1.48
9353.00,1.49
9352.00,1.50
9351.00,1.50
9350.00,1.51
9349.00,1.51
9348.00,1.52
9347.00,1.52
9346.00,1.52
9345.00,1.53
9344.00,1.53
9343.00,1.53
9342.00,1.53
9341.00,1.53
9340.00,1.53
9339.00,1.53
9338.00,1.53
9337.00,1.53
9336.00,1.53
9335.00,1.53
9334.00,1.53
9333.00,1.53
9332.00,1.52
9331.00,1.52
9330.00,1.51
9329.00,1.51
9328.00,1.50
9327.00,1.49
9326.00,1.48
9325.00,1.48
9324.00,1.47
9323.00,1.46
9322.00,1.45
9321.00,1.44
9320.00,1.43
9319.00,1.42
9318.00,1.41
9317.00,1.40
9316.00,1.39
9315.00,1.38
9314.00,1.38
9313.00,1.37
9312.00,1.36
9311.00,1.36
9310.00,1.36
9309.00,1.35
9308.00,1.35
9307.00,1.35
9306.00,1.34
9305.00,1.34
9304.00,1.34
9303.00,1.34
9302.00,1.34
9301.00,1.33
9300.00,1.33
9299.00,1.33
9298.00,1.33
9297.00,1.33
9296.00,1.33
9295.00,1.34
9294.00,1.34
9293.00,1.34
9292.00,1.34
9291.00,1.34
9290.00,1.34
9289.00,1.35
9288.00,1.35
9287.00,1.35
9286.00,1.35
9285.00,1.35
9284.00,1.35
9283.00,1.35
9282.00,1.35
9281.00,1.35
9280.00,1.35
9279.00,1.34
9278.00,1.34
9277.00,1.35
9276.00,1.35
9275.00,1.35
9274.00,1.35
9273.00,1.35
9272.00,1.35
9271.00,1.35
9270.00,1.36
9269.00,1.36
9268.00,1.36
9267.00,1.37
9266.00,1.37
9265.00,1.37
9264.00,1.37
9263.00,1.38
9262.00,1.38
9261.00,1.38
9260.00,1.39
9259.00,1.39
9258.00,1.40
9257.00,1.40
9256.00,1.40
9255.00,1.41
9254.00,1.41
9253.00,1.41
9252.00,1.42
9251.00,1.42
9250.00,1.42
9249.00,1.42
9248.00,1.42
9247.00,1.43
9246.00,1.43
9245.00,1.43
9244.00,1.43
9243.00,1.43
9242.00,1.43
9241.00,1.43
9240.00,1.43
9239.00,1.43
9238.00,1.43
9237.00,1.43
9236.00,1.43
9235.00,1.43
9234.00,1.43
9233.00,1.43
9232.00,1.43
9231.00,1.43
9230.00,1.43
9229.00,1.43
9228.00,1.44
9227.00,1.44
9226.00,1.44
9225.00,1.44
9224.00,1.44
9223.00,1.45
9222.00,1.45
9221.00,1.45
9220.00,1.45
9219.00,1.45
9218.00,1.46
9217.00,1.46
9216.00,1.46
9215.00,1.46
9214.00,1.46
9213.00,1.46
9212.00,1.47
9211.00,1.47
9210.00,1.47
9209.00,1.47
9208.00,1.46
9207.00,1.46
9206.00,1.46
9205.00,1.46
9204.00,1.45
9203.00,1.45
9202.00,1.44
9201.00,1.44
9200.00,1.43
9199.00,1.43
9198.00,1.42
9197.00,1.42
9196.00,1.41
9195.00,1.40
9194.00,1.40
9193.00,1.39
9192.00,1.39
9191.00,1.38
9190.00,1.38
9189.00,1.37
9188.00,1.37
9187.00,1.37
9186.00,1.36
9185.00,1.36
9184.00,1.36
9183.00,1.36
9182.00,1.35
9181.00,1.35
9180.00,1.35
9179.00,1.35
9178.00,1.36
9177.00,1.36
9176.00,1.36
9175.00,1.36
9174.00,1.36
9173.00,1.37
9172.00,1.37
9171.00,1.37
9170.00,1.38
9169.00,1.38
9168.00,1.39
9167.00,1.39
9166.00,1.39
9165.00,1.40
9164.00,1.40
9163.00,1.41
9162.00,1.41
9161.00,1.41
9160.00,1.41
9159.00,1.42
9158.00,1.42
9157.00,1.42
9156.00,1.42
9155.00,1.42
9154.00,1.42
9153.00,1.42
9152.00,1.42
9151.00,1.42
9150.00,1.42
9149.00,1.42
9148.00,1.42
9147.00,1.42
9146.00,1.42
9145.00,1.42
9144.00,1.42
9143.00,1.42
9142.00,1.42
9141.00,1.42
9140.00,1.42
9139.00,1.42
9138.00,1.42
9137.00,1.42
9136.00,1.42
9135.00,1.42
9134.00,1.42
9133.00,1.42
9132.00,1.42
9131.00,1.42
9130.00,1.43
9129.00,1.43
9128.00,1.43
9127.00,1.43
9126.00,1.44
9125.00,1.44
9124.00,1.44
9123.00,1.45
9122.00,1.45
9121.00,1.46
9120.00,1.46
9119.00,1.46
9118.00,1.47
9117.00,1.47
9116.00,1.48
9115.00,1.48
9114.00,1.49
9113.00,1.49
9112.00,1.50
9111.00,1.50
9110.00,1.50
9109.00,1.50
9108.00,1.50
9107.00,1.50
9106.00,1.50
9105.00,1.50
9104.00,1.50
9103.00,1.50
9102.00,1.50
9101.00,1.50
9100.00,1.50
9099.00,1.50
9098.00,1.50
9097.00,1.50
9096.00,1.49
9095.00,1.49
9094.00,1.49
9093.00,1.49
9092.00,1.49
9091.00,1.48
9090.00,1.48
9089.00,1.48
9088.00,1.47
9087.00,1.47
9086.00,1.47
9085.00,1.47
9084.00,1.47
9083.00,1.46
9082.00,1.46
9081.00,1.46
9080.00,1.46
9079.00,1.46
9078.00,1.46
9077.00,1.46
9076.00,1.46
9075.00,1.46
9074.00,1.46
9073.00,1.45
9072.00,1.45
9071.00,1.45
9070.00,1.45
9069.00,1.45
9068.00,1.45
9067.00,1.44
9066.00,1.44
9065.00,1.44
9064.00,1.44
9063.00,1.44
9062.00,1.44
9061.00,1.44
9060.00,1.43
9059.00,1.43
9058.00,1.43
9057.00,1.43
9056.00,1.43
9055.00,1.43
9054.00,1.43
9053.00,1.43
9052.00,1.43
9051.00,1.44
9050.00,1.44
9049.00,1.44
9048.00,1.44
9047.00,1.45
9046.00,1.45
9045.00,1.45
9044.00,1.45
9043.00,1.46
9042.00,1.46
9041.00,1.46
9040.00,1.46
9039.00,1.46
9038.00,1.46
9037.00,1.46
9036.00,1.46
9035.00,1.46
9034.00,1.46
9033.00,1.46
9032.00,1.46
9031.00,1.46
9030.00,1.46
9029.00,1.46
9028.00,1.46
9027.00,1.46
9026.00,1.45
9025.00,1.45
9024.00,1.45
9023.00,1.44
9022.00,1.44
9021.00,1.43
9020.00,1.43
9019.00,1.42
9018.00,1.42
9017.00,1.41
9016.00,1.41
9015.00,1.41
9014.00,1.41
9013.00,1.41
9012.00,1.41
9011.00,1.41
9010.00,1.41
9009.00,1.41
9008.00,1.41
9007.00,1.41
9006.00,1.41
9005.00,1.42
9004.00,1.42
9003.00,1.42
9002.00,1.42
9001.00,1.43
9000.00,1.43
8999.00,1.43
8998.00,1.44
8997.00,1.44
8996.00,1.45
8995.00,1.45
8994.00,1.46
8993.00,1.46
8992.00,1.47
8991.00,1.47
8990.00,1.48
8989.00,1.48
8988.00,1.48
8987.00,1.48
8986.00,1.49
8985.00,1.49
8984.00,1.49
8983.00,1.49
8982.00,1.49
8981.00,1.49
8980.00,1.49
8979.00,1.50
8978.00,1.50
8977.00,1.50
8976.00,1.50
8975.00,1.50
8974.00,1.50
8973.00,1.49
8972.00,1.49
8971.00,1.49
8970.00,1.49
8969.00,1.49
8968.00,1.49
8967.00,1.49
8966.00,1.48
8965.00,1.48
8964.00,1.48
8963.00,1.48
8962.00,1.48
8961.00,1.48
8960.00,1.47
8959.00,1.47
8958.00,1.47
8957.00,1.47
8956.00,1.47
8955.00,1.46
8954.00,1.46
8953.00,1.46
8952.00,1.45
8951.00,1.45
8950.00,1.44
8949.00,1.44
8948.00,1.44
8947.00,1.43
8946.00,1.43
8945.00,1.43
8944.00,1.42
8943.00,1.42
8942.00,1.42
8941.00,1.41
8940.00,1.41
8939.00,1.41
8938.00,1.40
8937.00,1.40
8936.00,1.40
8935.00,1.39
8934.00,1.39
8933.00,1.39
8932.00,1.39
8931.00,1.39
8930.00,1.39
8929.00,1.39
8928.00,1.39
8927.00,1.39
8926.00,1.39
8925.00,1.40
8924.00,1.40
8923.00,1.40
8922.00,1.41
8921.00,1.41
8920.00,1.41
8919.00,1.42
8918.00,1.42
8917.00,1.42
8916.00,1.43
8915.00,1.43
8914.00,1.44
8913.00,1.44
8912.00,1.45
8911.00,1.45
8910.00,1.45
8909.00,1.46
8908.00,1.46
8907.00,1.46
8906.00,1.46
8905.00,1.47
8904.00,1.47
8903.00,1.47
8902.00,1.47
8901.00,1.47
8900.00,1.46
8899.00,1.46
8898.00,1.46
8897.00,1.46
8896.00,1.46
8895.00,1.46
8894.00,1.46
8893.00,1.45
8892.00,1.45
8891.00,1.45
8890.00,1.45
8889.00,1.45
8888.00,1.45
8887.00,1.45
8886.00,1.45
8885.00,1.44
8884.00,1.44
8883.00,1.44
8882.00,1.44
8881.00,1.44
8880.00,1.45
8879.00,1.45
8878.00,1.45
8877.00,1.45
8876.00,1.45
8875.00,1.45
8874.00,1.45
8873.00,1.45
8872.00,1.45
8871.00,1.46
8870.00,1.46
8869.00,1.46
8868.00,1.46
8867.00,1.46
8866.00,1.47
8865.00,1.47
8864.00,1.47
8863.00,1.48
8862.00,1.48
8861.00,1.48
8860.00,1.49
8859.00,1.49
8858.00,1.50
8857.00,1.50
8856.00,1.50
8855.00,1.51
8854.00,1.51
8853.00,1.51
8852.00,1.52
8851.00,1.52
8850.00,1.53
8849.00,1.53
8848.00,1.53
8847.00,1.54
8846.00,1.54
8845.00,1.55
8844.00,1.55
8843.00,1.56
8842.00,1.56
8841.00,1.57
8840.00,1.57
8839.00,1.57
8838.00,1.57
8837.00,1.57
8836.00,1.57
8835.00,1.57
8834.00,1.57
8833.00,1.57
8832.00,1.57
8831.00,1.56
8830.00,1.56
8829.00,1.55
8828.00,1.55
8827.00,1.55
8826.00,1.54
8825.00,1.54
8824.00,1.53
8823.00,1.53
8822.00,1.52
8821.00,1.51
8820.00,1.51
8819.00,1.50
8818.00,1.49
8817.00,1.49
8816.00,1.48
8815.00,1.47
8814.00,1.47
8813.00,1.46
8812.00,1.45
8811.00,1.45
8810.00,1.44
8809.00,1.44
8808.00,1.44
8807.00,1.44
8806.00,1.44
8805.00,1.43
8804.00,1.43
8803.00,1.43
8802.00,1.43
8801.00,1.44
8800.00,1.44
8799.00,1.44
8798.00,1.44
8797.00,1.44
8796.00,1.44
8795.00,1.44
8794.00,1.44
8793.00,1.44
8792.00,1.45
8791.00,1.45
8790.00,1.45
8789.00,1.45
8788.00,1.46
8787.00,1.46
8786.00,1.46
8785.00,1.46
8784.00,1.46
8783.00,1.46
8782.00,1.46
8781.00,1.46
8780.00,1.46
8779.00,1.46
8778.00,1.46
8777.00,1.46
8776.00,1.46
8775.00,1.46
8774.00,1.46
8773.00,1.45
8772.00,1.45
8771.00,1.45
8770.00,1.45
8769.00,1.44
8768.00,1.44
8767.00,1.44
8766.00,1.43
8765.00,1.43
8764.00,1.43
8763.00,1.42
8762.00,1.42
8761.00,1.42
8760.00,1.41
8759.00,1.41
8758.00,1.41
8757.00,1.41
8756.00,1.40
8755.00,1.40
8754.00,1.40
8753.00,1.40
8752.00,1.40
8751.00,1.40
8750.00,1.40
8749.00,1.40
8748.00,1.40
8747.00,1.40
8746.00,1.40
8745.00,1.41
8744.00,1.41
8743.00,1.41
8742.00,1.42
8741.00,1.42
8740.00,1.43
8739.00,1.43
8738.00,1.43
8737.00,1.44
8736.00,1.44
8735.00,1.44
8734.00,1.45
8733.00,1.45
8732.00,1.46
8731.00,1.46
8730.00,1.46
8729.00,1.47
8728.00,1.47
8727.00,1.47
8726.00,1.47
8725.00,1.47
8724.00,1.47
8723.00,1.48
8722.00,1.47
8721.00,1.47
8720.00,1.47
8719.00,1.47
8718.00,1.47
8717.00,1.47
8716.00,1.47
8715.00,1.47
8714.00,1.46
8713.00,1.46
8712.00,1.46
8711.00,1.46
8710.00,1.46
8709.00,1.46
8708.00,1.46
8707.00,1.47
8706.00,1.47
8705.00,1.47
8704.00,1.47
8703.00,1.47
8702.00,1.48
8701.00,1.48
8700.00,1.48
8699.00,1.48
8698.00,1.48
8697.00,1.49
8696.00,1.49
8695.00,1.49
8694.00,1.49
8693.00,1.50
8692.00,1.50
8691.00,1.50
8690.00,1.50
8689.00,1.50
8688.00,1.50
8687.00,1.50
8686.00,1.50
8685.00,1.50
8684.00,1.50
8683.00,1.50
8682.00,1.50
8681.00,1.50
8680.00,1.50
8679.00,1.50
8678.00,1.50
8677.00,1.50
8676.00,1.50
8675.00,1.50
8674.00,1.50
8673.00,1.50
8672.00,1.50
8671.00,1.49
8670.00,1.49
8669.00,1.49
8668.00,1.49
8667.00,1.49
8666.00,1.49
8665.00,1.49
8664.00,1.49
8663.00,1.49
8662.00,1.49
8661.00,1.49
8660.00,1.49
8659.00,1.49
8658.00,1.49
8657.00,1.49
8656.00,1.49
8655.00,1.49
8654.00,1.49
8653.00,1.48
8652.00,1.48
8651.00,1.48
8650.00,1.48
8649.00,1.48
8648.00,1.48
8647.00,1.48
8646.00,1.48
8645.00,1.48
8644.00,1.48
8643.00,1.48
8642.00,1.48
8641.00,1.48
8640.00,1.48
8639.00,1.48
8638.00,1.48
8637.00,1.48
8636.00,1.48
8635.00,1.48
8634.00,1.48
8633.00,1.47
8632.00,1.47
8631.00,1.47
8630.00,1.47
8629.00,1.47
8628.00,1.47
8627.00,1.47
8626.00,1.46
8625.00,1.46
8624.00,1.46
8623.00,1.46
8622.00,1.46
8621.00,1.46
8620.00,1.45
8619.00,1.45
8618.00,1.45
8617.00,1.44
8616.00,1.44
8615.00,1.44
8614.00,1.43
8613.00,1.43
8612.00,1.43
8611.00,1.42
8610.00,1.42
8609.00,1.42
8608.00,1.42
8607.00,1.42
8606.00,1.42
8605.00,1.42
8604.00,1.42
8603.00,1.42
8602.00,1.42
8601.00,1.42
8600.00,1.42
8599.00,1.42
8598.00,1.42
8597.00,1.42
8596.00,1.42
8595.00,1.42
8594.00,1.42
8593.00,1.42
8592.00,1.42
8591.00,1.42
8590.00,1.42
8589.00,1.42
8588.00,1.43
8587.00,1.43
8586.00,1.43
8585.00,1.43
8584.00,1.43
8583.00,1.43
8582.00,1.43
8581.00,1.43
8580.00,1.43
8579.00,1.43
8578.00,1.43
8577.00,1.43
8576.00,1.43
8575.00,1.43
8574.00,1.43
8573.00,1.43
8572.00,1.43
8571.00,1.43
8570.00,1.43
8569.00,1.43
8568.00,1.42
8567.00,1.42
8566.00,1.42
8565.00,1.42
8564.00,1.42
8563.00,1.42
8562.00,1.42
8561.00,1.42
8560.00,1.42
8559.00,1.42
8558.00,1.42
8557.00,1.42
8556.00,1.41
8555.00,1.41
8554.00,1.41
8553.00,1.41
8552.00,1.41
8551.00,1.41
8550.00,1.41
8549.00,1.41
8548.00,1.41
8547.00,1.41
8546.00,1.41
8545.00,1.41
8544.00,1.41
8543.00,1.41
8542.00,1.41
8541.00,1.41
8540.00,1.41
8539.00,1.41
8538.00,1.41
8537.00,1.41
8536.00,1.40
8535.00,1.40
8534.00,1.40
8533.00,1.40
8532.00,1.40
8531.00,1.40
8530.00,1.40
8529.00,1.40
8528.00,1.40
8527.00,1.40
8526.00,1.40
8525.00,1.41
8524.00,1.41
8523.00,1.41
8522.00,1.41
8521.00,1.41
8520.00,1.41
8519.00,1.41
8518.00,1.41
8517.00,1.41
8516.00,1.41
8515.00,1.41
8514.00,1.42
8513.00,1.42
8512.00,1.42
8511.00,1.42
8510.00,1.42
8509.00,1.42
8508.00,1.42
8507.00,1.42
8506.00,1.42
8505.00,1.42
8504.00,1.42
8503.00,1.42
8502.00,1.42
8501.00,1.42
8500.00,1.42
8499.00,1.42
8498.00,1.42
8497.00,1.42
8496.00,1.41
8495.00,1.41
8494.00,1.41
8493.00,1.41
8492.00,1.41
8491.00,1.41
8490.00,1.41
8489.00,1.42
8488.00,1.42
8487.00,1.42
8486.00,1.42
8485.00,1.42
8484.00,1.42
8483.00,1.42
8482.00,1.42
8481.00,1.42
8480.00,1.43
8479.00,1.43
8478.00,1.43
8477.00,1.43
8476.00,1.43
8475.00,1.43
8474.00,1.43
8473.00,1.43
8472.00,1.43
8471.00,1.42
8470.00,1.42
8469.00,1.42
8468.00,1.42
8467.00,1.42
8466.00,1.42
8465.00,1.41
8464.00,1.41
8463.00,1.41
8462.00,1.41
8461.00,1.40
8460.00,1.40
8459.00,1.40
8458.00,1.40
8457.00,1.39
8456.00,1.39
8455.00,1.39
8454.00,1.39
8453.00,1.39
8452.00,1.39
8451.00,1.39
8450.00,1.39
8449.00,1.39
8448.00,1.39
8447.00,1.39
8446.00,1.39
8445.00,1.39
8444.00,1.39
8443.00,1.40
8442.00,1.40
8441.00,1.40
8440.00,1.41
8439.00,1.41
8438.00,1.41
8437.00,1.42
8436.00,1.42
8435.00,1.42
8434.00,1.43
8433.00,1.43
8432.00,1.44
8431.00,1.44
8430.00,1.44
8429.00,1.44
8428.00,1.45
8427.00,1.45
8426.00,1.45
8425.00,1.45
8424.00,1.45
8423.00,1.45
8422.00,1.45
8421.00,1.45
8420.00,1.45
8419.00,1.45
8418.00,1.45
8417.00,1.44
8416.00,1.44
8415.00,1.44
8414.00,1.43
8413.00,1.43
8412.00,1.43
8411.00,1.42
8410.00,1.42
8409.00,1.41
8408.00,1.41
8407.00,1.40
8406.00,1.40
8405.00,1.40
8404.00,1.39
8403.00,1.39
8402.00,1.39
8401.00,1.38
8400.00,1.38
8399.00,1.38
8398.00,1.38
8397.00,1.37
8396.00,1.37
8395.00,1.37
8394.00,1.37
8393.00,1.37
8392.00,1.37
8391.00,1.37
8390.00,1.37
8389.00,1.38
8388.00,1.38
8387.00,1.38
8386.00,1.38
8385.00,1.38
8384.00,1.39
8383.00,1.39
8382.00,1.39
8381.00,1.40
8380.00,1.40
8379.00,1.41
8378.00,1.41
8377.00,1.41
8376.00,1.42
8375.00,1.42
8374.00,1.43
8373.00,1.43
8372.00,1.43
8371.00,1.44
8370.00,1.44
8369.00,1.44
8368.00,1.44
8367.00,1.45
8366.00,1.45
8365.00,1.45
8364.00,1.45
8363.00,1.45
8362.00,1.46
8361.00,1.46
8360.00,1.46
8359.00,1.46
8358.00,1.46
8357.00,1.46
8356.00,1.46
8355.00,1.46
8354.00,1.46
8353.00,1.45
8352.00,1.45
8351.00,1.45
8350.00,1.45
8349.00,1.44
8348.00,1.44
8347.00,1.44
8346.00,1.43
8345.00,1.43
8344.00,1.43
8343.00,1.42
8342.00,1.42
8341.00,1.42
8340.00,1.41
8339.00,1.41
8338.00,1.40
8337.00,1.40
8336.00,1.40
8335.00,1.39
8334.00,1.39
8333.00,1.38
8332.00,1.38
8331.00,1.38
8330.00,1.37
8329.00,1.37
8328.00,1.37
8327.00,1.37
8326.00,1.37
8325.00,1.37
8324.00,1.37
8323.00,1.37
8322.00,1.37
8321.00,1.37
8320.00,1.37
8319.00,1.37
8318.00,1.37
8317.00,1.37
8316.00,1.37
8315.00,1.38
8314.00,1.38
8313.00,1.38
8312.00,1.38
8311.00,1.38
8310.00,1.38
8309.00,1.39
8308.00,1.39
8307.00,1.39
8306.00,1.39
8305.00,1.40
8304.00,1.40
8303.00,1.40
8302.00,1.40
8301.00,1.41
8300.00,1.41
8299.00,1.41
8298.00,1.41
8297.00,1.42
8296.00,1.42
8295.00,1.42
8294.00,1.42
8293.00,1.43
8292.00,1.43
8291.00,1.43
8290.00,1.44
8289.00,1.44
8288.00,1.44
8287.00,1.45
8286.00,1.45
8285.00,1.46
8284.00,1.46
8283.00,1.46
8282.00,1.47
8281.00,1.47
8280.00,1.47
8279.00,1.48
8278.00,1.48
8277.00,1.48
8276.00,1.48
8275.00,1.48
8274.00,1.48
8273.00,1.48
8272.00,1.48
8271.00,1.48
8270.00,1.48
8269.00,1.48
8268.00,1.48
8267.00,1.48
8266.00,1.48
8265.00,1.48
8264.00,1.48
8263.00,1.48
8262.00,1.48
8261.00,1.47
8260.00,1.47
8259.00,1.47
8258.00,1.46
8257.00,1.46
8256.00,1.46
8255.00,1.46
8254.00,1.46
8253.00,1.45
8252.00,1.45
8251.00,1.45
8250.00,1.46
8249.00,1.46
8248.00,1.46
8247.00,1.46
8246.00,1.46
8245.00,1.46
8244.00,1.47
8243.00,1.47
8242.00,1.47
8241.00,1.47
8240.00,1.47
8239.00,1.47
8238.00,1.48
8237.00,1.48
8236.00,1.48
8235.00,1.48
8234.00,1.49
8233.00,1.49
8232.00,1.50
8231.00,1.50
8230.00,1.50
8229.00,1.51
8228.00,1.51
8227.00,1.51
8226.00,1.51
8225.00,1.51
8224.00,1.51
8223.00,1.51
8222.00,1.51
8221.00,1.51
8220.00,1.50
8219.00,1.50
8218.00,1.50
8217.00,1.50
8216.00,1.50
8215.00,1.50
8214.00,1.50
8213.00,1.50
8212.00,1.50
8211.00,1.49
8210.00,1.49
8209.00,1.49
8208.00,1.48
8207.00,1.48
8206.00,1.48
8205.00,1.47
8204.00,1.47
8203.00,1.47
8202.00,1.46
8201.00,1.46
8200.00,1.46
8199.00,1.46
8198.00,1.45
8197.00,1.45
8196.00,1.45
8195.00,1.45
8194.00,1.45
8193.00,1.44
8192.00,1.44
8191.00,1.44
8190.00,1.44
8189.00,1.44
8188.00,1.44
8187.00,1.44
8186.00,1.44
8185.00,1.44
8184.00,1.44
8183.00,1.44
8182.00,1.44
8181.00,1.44
8180.00,1.44
8179.00,1.44
8178.00,1.45
8177.00,1.45
8176.00,1.45
8175.00,1.45
8174.00,1.45
8173.00,1.45
8172.00,1.45
8171.00,1.45
8170.00,1.45
8169.00,1.45
8168.00,1.45
8167.00,1.45
8166.00,1.45
8165.00,1.45
8164.00,1.44
8163.00,1.44
8162.00,1.44
8161.00,1.44
8160.00,1.44
8159.00,1.43
8158.00,1.43
8157.00,1.43
8156.00,1.43
8155.00,1.43
8154.00,1.43
8153.00,1.43
8152.00,1.43
8151.00,1.43
8150.00,1.43
8149.00,1.43
8148.00,1.43
8147.00,1.43
8146.00,1.43
8145.00,1.43
8144.00,1.43
8143.00,1.43
8142.00,1.43
8141.00,1.43
8140.00,1.43
8139.00,1.43
8138.00,1.44
8137.00,1.44
8136.00,1.44
8135.00,1.44
8134.00,1.44
8133.00,1.44
8132.00,1.44
8131.00,1.45
8130.00,1.45
8129.00,1.45
8128.00,1.45
8127.00,1.45
8126.00,1.45
8125.00,1.45
8124.00,1.45
8123.00,1.45
8122.00,1.45
8121.00,1.45
8120.00,1.45
8119.00,1.45
8118.00,1.45
8117.00,1.44
8116.00,1.44
8115.00,1.44
8114.00,1.44
8113.00,1.44
8112.00,1.44
8111.00,1.44
8110.00,1.44
8109.00,1.43
8108.00,1.43
8107.00,1.43
8106.00,1.43
8105.00,1.43
8104.00,1.43
8103.00,1.43
8102.00,1.43
8101.00,1.43
8100.00,1.43
8099.00,1.43
8098.00,1.42
8097.00,1.42
8096.00,1.42
8095.00,1.42
8094.00,1.42
8093.00,1.42
8092.00,1.42
8091.00,1.41
8090.00,1.41
8089.00,1.41
8088.00,1.41
8087.00,1.41
8086.00,1.41
8085.00,1.41
8084.00,1.41
8083.00,1.41
8082.00,1.41
8081.00,1.41
8080.00,1.41
8079.00,1.41
8078.00,1.41
8077.00,1.41
8076.00,1.41
8075.00,1.42
8074.00,1.42
8073.00,1.42
8072.00,1.43
8071.00,1.43
8070.00,1.43
8069.00,1.44
8068.00,1.44
8067.00,1.45
8066.00,1.46
8065.00,1.46
8064.00,1.47
8063.00,1.48
8062.00,1.48
8061.00,1.49
8060.00,1.49
8059.00,1.50
8058.00,1.51
8057.00,1.51
8056.00,1.51
8055.00,1.52
8054.00,1.52
8053.00,1.52
8052.00,1.52
8051.00,1.53
8050.00,1.53
8049.00,1.53
8048.00,1.53
8047.00,1.53
8046.00,1.53
8045.00,1.53
8044.00,1.53
8043.00,1.53
8042.00,1.53
8041.00,1.53
8040.00,1.53
8039.00,1.52
8038.00,1.52
8037.00,1.52
8036.00,1.52
8035.00,1.52
8034.00,1.51
8033.00,1.51
8032.00,1.51
8031.00,1.51
8030.00,1.51
8029.00,1.51
8028.00,1.51
8027.00,1.52
8026.00,1.52
8025.00,1.52
8024.00,1.52
8023.00,1.52
8022.00,1.52
8021.00,1.52
8020.00,1.53
8019.00,1.53
8018.00,1.53
8017.00,1.53
8016.00,1.53
8015.00,1.53
8014.00,1.53
8013.00,1.53
8012.00,1.53
8011.00,1.53
8010.00,1.53
8009.00,1.53
8008.00,1.53
8007.00,1.53
8006.00,1.53
8005.00,1.53
8004.00,1.52
8003.00,1.52
8002.00,1.52
8001.00,1.51
8000.00,1.51
7999.00,1.51
7998.00,1.50
7997.00,1.50
7996.00,1.49
7995.00,1.49
7994.00,1.49
7993.00,1.48
7992.00,1.48
7991.00,1.48
7990.00,1.48
7989.00,1.47
7988.00,1.47
7987.00,1.47
7986.00,1.47
7985.00,1.47
7984.00,1.47
7983.00,1.47
7982.00,1.47
7981.00,1.47
7980.00,1.47
7979.00,1.47
7978.00,1.47
7977.00,1.47
7976.00,1.47
7975.00,1.47
7974.00,1.47
7973.00,1.47
7972.00,1.46
7971.00,1.46
7970.00,1.46
7969.00,1.46
7968.00,1.46
7967.00,1.46
7966.00,1.46
7965.00,1.46
7964.00,1.46
7963.00,1.46
7962.00,1.46
7961.00,1.46
7960.00,1.46
7959.00,1.46
7958.00,1.46
7957.00,1.46
7956.00,1.46
7955.00,1.46
7954.00,1.46
7953.00,1.46
7952.00,1.46
7951.00,1.47
7950.00,1.47
7949.00,1.47
7948.00,1.47
7947.00,1.47
7946.00,1.47
7945.00,1.47
7944.00,1.48
7943.00,1.48
7942.00,1.48
7941.00,1.48
7940.00,1.48
7939.00,1.49
7938.00,1.49
7937.00,1.49
7936.00,1.49
7935.00,1.49
7934.00,1.49
7933.00,1.49
7932.00,1.49
7931.00,1.49
7930.00,1.49
7929.00,1.49
7928.00,1.49
7927.00,1.49
7926.00,1.49
7925.00,1.49
7924.00,1.49
7923.00,1.49
7922.00,1.49
7921.00,1.49
7920.00,1.48
7919.00,1.48
7918.00,1.48
7917.00,1.48
7916.00,1.48
7915.00,1.47
7914.00,1.47
7913.00,1.47
7912.00,1.46
7911.00,1.46
7910.00,1.46
7909.00,1.46
7908.00,1.46
7907.00,1.46
7906.00,1.45
7905.00,1.45
7904.00,1.45
7903.00,1.45
7902.00,1.45
7901.00,1.45
7900.00,1.45
7899.00,1.45
7898.00,1.45
7897.00,1.45
7896.00,1.45
7895.00,1.45
7894.00,1.45
7893.00,1.45
7892.00,1.45
7891.00,1.45
7890.00,1.46
7889.00,1.46
7888.00,1.46
7887.00,1.46
7886.00,1.46
7885.00,1.47
7884.00,1.47
7883.00,1.47
7882.00,1.47
7881.00,1.48
7880.00,1.48
7879.00,1.48
7878.00,1.48
7877.00,1.48
7876.00,1.49
7875.00,1.49
7874.00,1.49
7873.00,1.49
7872.00,1.49
7871.00,1.49
7870.00,1.50
7869.00,1.50
7868.00,1.50
7867.00,1.50
7866.00,1.50
7865.00,1.50
7864.00,1.51
7863.00,1.51
7862.00,1.51
7861.00,1.51
7860.00,1.51
7859.00,1.51
7858.00,1.52
7857.00,1.52
7856.00,1.52
7855.00,1.52
7854.00,1.52
7853.00,1.52
7852.00,1.52
7851.00,1.52
7850.00,1.52
7849.00,1.52
7848.00,1.53
7847.00,1.53
7846.00,1.53
7845.00,1.54
7844.00,1.54
7843.00,1.54
7842.00,1.54
7841.00,1.55
7840.00,1.55
7839.00,1.55
7838.00,1.55
7837.00,1.56
7836.00,1.56
7835.00,1.56
7834.00,1.56
7833.00,1.56
7832.00,1.56
7831.00,1.57
7830.00,1.57
7829.00,1.57
7828.00,1.57
7827.00,1.57
7826.00,1.58
7825.00,1.58
7824.00,1.58
7823.00,1.58
7822.00,1.58
7821.00,1.58
7820.00,1.58
7819.00,1.58
7818.00,1.57
7817.00,1.57
7816.00,1.57
7815.00,1.57
7814.00,1.56
7813.00,1.56
7812.00,1.56
7811.00,1.55
7810.00,1.55
7809.00,1.55
7808.00,1.54
7807.00,1.54
7806.00,1.54
7805.00,1.53
7804.00,1.53
7803.00,1.53
7802.00,1.52
7801.00,1.52
7800.00,1.52
7799.00,1.51
7798.00,1.51
7797.00,1.51
7796.00,1.51
7795.00,1.51
7794.00,1.50
7793.00,1.50
7792.00,1.50
7791.00,1.50
7790.00,1.50
7789.00,1.50
7788.00,1.50
7787.00,1.50
7786.00,1.50
7785.00,1.50
7784.00,1.50
7783.00,1.50
7782.00,1.50
7781.00,1.50
7780.00,1.50
7779.00,1.50
7778.00,1.50
7777.00,1.51
7776.00,1.51
7775.00,1.51
7774.00,1.51
7773.00,1.51
7772.00,1.51
7771.00,1.51
7770.00,1.51
7769.00,1.51
7768.00,1.51
7767.00,1.51
7766.00,1.51
7765.00,1.51
7764.00,1.51
7763.00,1.51
7762.00,1.51
7761.00,1.51
7760.00,1.51
7759.00,1.51
7758.00,1.51
7757.00,1.51
7756.00,1.51
7755.00,1.51
7754.00,1.51
7753.00,1.51
7752.00,1.51
7751.00,1.51
7750.00,1.51
7749.00,1.50
7748.00,1.50
7747.00,1.50
7746.00,1.50
7745.00,1.50
7744.00,1.50
7743.00,1.50
7742.00,1.50
7741.00,1.50
7740.00,1.50
7739.00,1.50
7738.00,1.50
7737.00,1.50
7736.00,1.50
7735.00,1.50
7734.00,1.50
7733.00,1.50
7732.00,1.50
7731.00,1.50
7730.00,1.50
7729.00,1.50
7728.00,1.50
7727.00,1.50
7726.00,1.50
7725.00,1.50
7724.00,1.50
7723.00,1.50
7722.00,1.50
7721.00,1.50
7720.00,1.50
7719.00,1.50
7718.00,1.50
7717.00,1.51
7716.00,1.51
7715.00,1.51
7714.00,1.51
7713.00,1.51
7712.00,1.51
7711.00,1.52
7710.00,1.52
7709.00,1.52
7708.00,1.52
7707.00,1.52
7706.00,1.52
7705.00,1.52
7704.00,1.52
7703.00,1.53
7702.00,1.53
7701.00,1.52
7700.00,1.52
7699.00,1.52
7698.00,1.52
7697.00,1.52
7696.00,1.52
7695.00,1.52
7694.00,1.52
7693.00,1.51
7692.00,1.51
7691.00,1.51
7690.00,1.51
7689.00,1.51
7688.00,1.50
7687.00,1.50
7686.00,1.50
7685.00,1.50
7684.00,1.49
7683.00,1.49
7682.00,1.49
7681.00,1.49
7680.00,1.49
7679.00,1.49
7678.00,1.48
7677.00,1.48
7676.00,1.48
7675.00,1.48
7674.00,1.48
7673.00,1.49
7672.00,1.49
7671.00,1.49
7670.00,1.49
7669.00,1.50
7668.00,1.50
7667.00,1.50
7666.00,1.51
7665.00,1.51
7664.00,1.51
7663.00,1.52
7662.00,1.52
7661.00,1.52
7660.00,1.53
7659.00,1.53
7658.00,1.53
7657.00,1.54
7656.00,1.54
7655.00,1.54
7654.00,1.54
7653.00,1.55
7652.00,1.55
7651.00,1.55
7650.00,1.55
7649.00,1.56
7648.00,1.56
7647.00,1.56
7646.00,1.56
7645.00,1.56
7644.00,1.56
7643.00,1.56
7642.00,1.56
7641.00,1.56
7640.00,1.55
7639.00,1.55
7638.00,1.55
7637.00,1.55
7636.00,1.55
7635.00,1.55
7634.00,1.55
7633.00,1.55
7632.00,1.55
7631.00,1.55
7630.00,1.55
7629.00,1.55
7628.00,1.55
7627.00,1.55
7626.00,1.55
7625.00,1.55
7624.00,1.55
7623.00,1.55
7622.00,1.55
7621.00,1.55
7620.00,1.55
7619.00,1.55
7618.00,1.56
7617.00,1.56
7616.00,1.56
7615.00,1.56
7614.00,1.56
7613.00,1.56
7612.00,1.57
7611.00,1.57
7610.00,1.57
7609.00,1.57
7608.00,1.57
7607.00,1.57
7606.00,1.57
7605.00,1.57
7604.00,1.57
7603.00,1.58
7602.00,1.58
7601.00,1.58
7600.00,1.58
7599.00,1.58
7598.00,1.58
7597.00,1.57
7596.00,1.57
7595.00,1.57
7594.00,1.57
7593.00,1.57
7592.00,1.57
7591.00,1.57
7590.00,1.56
7589.00,1.56
7588.00,1.56
7587.00,1.56
7586.00,1.56
7585.00,1.56
7584.00,1.56
7583.00,1.55
7582.00,1.55
7581.00,1.55
7580.00,1.55
7579.00,1.55
7578.00,1.55
7577.00,1.55
7576.00,1.55
7575.00,1.55
7574.00,1.55
7573.00,1.55
7572.00,1.55
7571.00,1.55
7570.00,1.55
7569.00,1.56
7568.00,1.56
7567.00,1.56
7566.00,1.56
7565.00,1.56
7564.00,1.56
7563.00,1.56
7562.00,1.56
7561.00,1.56
7560.00,1.56
7559.00,1.56
7558.00,1.56
7557.00,1.56
7556.00,1.56
7555.00,1.56
7554.00,1.56
7553.00,1.56
7552.00,1.55
7551.00,1.55
7550.00,1.55
7549.00,1.55
7548.00,1.55
7547.00,1.54
7546.00,1.54
7545.00,1.54
7544.00,1.54
7543.00,1.54
7542.00,1.54
7541.00,1.53
7540.00,1.53
7539.00,1.53
7538.00,1.53
7537.00,1.53
7536.00,1.53
7535.00,1.53
7534.00,1.52
7533.00,1.52
7532.00,1.52
7531.00,1.52
7530.00,1.52
7529.00,1.52
7528.00,1.52
7527.00,1.52
7526.00,1.52
7525.00,1.52
7524.00,1.52
7523.00,1.52
7522.00,1.52
7521.00,1.52
7520.00,1.52
7519.00,1.52
7518.00,1.52
7517.00,1.52
7516.00,1.53
7515.00,1.53
7514.00,1.53
7513.00,1.53
7512.00,1.53
7511.00,1.53
7510.00,1.54
7509.00,1.54
7508.00,1.54
7507.00,1.54
7506.00,1.55
7505.00,1.55
7504.00,1.55
7503.00,1.55
7502.00,1.55
7501.00,1.56
7500.00,1.56
7499.00,1.56
7498.00,1.56
7497.00,1.56
7496.00,1.56
7495.00,1.56
7494.00,1.56
7493.00,1.56
7492.00,1.56
7491.00,1.56
7490.00,1.56
7489.00,1.56
7488.00,1.56
7487.00,1.56
7486.00,1.56
7485.00,1.55
7484.00,1.55
7483.00,1.55
7482.00,1.55
7481.00,1.54
7480.00,1.54
7479.00,1.54
7478.00,1.54
7477.00,1.53
7476.00,1.53
7475.00,1.53
7474.00,1.52
7473.00,1.52
7472.00,1.52
7471.00,1.52
7470.00,1.51
7469.00,1.51
7468.00,1.51
7467.00,1.50
7466.00,1.50
7465.00,1.50
7464.00,1.50
7463.00,1.50
7462.00,1.50
7461.00,1.50
7460.00,1.50
7459.00,1.50
7458.00,1.50
7457.00,1.50
7456.00,1.51
7455.00,1.51
7454.00,1.51
7453.00,1.51
7452.00,1.52
7451.00,1.52
7450.00,1.52
7449.00,1.52
7448.00,1.53
7447.00,1.53
7446.00,1.53
7445.00,1.54
7444.00,1.54
7443.00,1.54
7442.00,1.55
7441.00,1.55
7440.00,1.55
7439.00,1.56
7438.00,1.56
7437.00,1.56
7436.00,1.56
7435.00,1.57
7434.00,1.57
7433.00,1.57
7432.00,1.57
7431.00,1.57
7430.00,1.57
7429.00,1.56
7428.00,1.56
7427.00,1.56
7426.00,1.56
7425.00,1.56
7424.00,1.56
7423.00,1.55
7422.00,1.55
7421.00,1.55
7420.00,1.55
7419.00,1.55
7418.00,1.54
7417.00,1.54
7416.00,1.54
7415.00,1.53
7414.00,1.53
7413.00,1.53
7412.00,1.52
7411.00,1.52
7410.00,1.52
7409.00,1.52
7408.00,1.52
7407.00,1.51
7406.00,1.51
7405.00,1.51
7404.00,1.51
7403.00,1.51
7402.00,1.51
7401.00,1.51
7400.00,1.51
7399.00,1.51
7398.00,1.51
7397.00,1.51
7396.00,1.51
7395.00,1.51
7394.00,1.52
7393.00,1.52
7392.00,1.52
7391.00,1.52
7390.00,1.52
7389.00,1.52
7388.00,1.52
7387.00,1.52
7386.00,1.53
7385.00,1.53
7384.00,1.53
7383.00,1.53
7382.00,1.54
7381.00,1.54
7380.00,1.54
7379.00,1.54
7378.00,1.54
7377.00,1.54
7376.00,1.54
7375.00,1.54
7374.00,1.54
7373.00,1.54
7372.00,1.54
7371.00,1.54
7370.00,1.54
7369.00,1.54
7368.00,1.54
7367.00,1.54
7366.00,1.54
7365.00,1.54
7364.00,1.54
7363.00,1.54
7362.00,1.54
7361.00,1.54
7360.00,1.54
7359.00,1.54
7358.00,1.54
7357.00,1.54
7356.00,1.53
7355.00,1.53
7354.00,1.53
7353.00,1.53
7352.00,1.53
7351.00,1.53
7350.00,1.53
7349.00,1.53
7348.00,1.54
7347.00,1.54
7346.00,1.54
7345.00,1.54
7344.00,1.54
7343.00,1.55
7342.00,1.55
7341.00,1.55
7340.00,1.55
7339.00,1.55
7338.00,1.56
7337.00,1.56
7336.00,1.56
7335.00,1.56
7334.00,1.56
7333.00,1.57
7332.00,1.57
7331.00,1.57
7330.00,1.57
7329.00,1.57
7328.00,1.57
7327.00,1.58
7326.00,1.58
7325.00,1.58
7324.00,1.58
7323.00,1.58
7322.00,1.58
7321.00,1.58
7320.00,1.58
7319.00,1.58
7318.00,1.58
7317.00,1.58
7316.00,1.58
7315.00,1.58
7314.00,1.58
7313.00,1.58
7312.00,1.58
7311.00,1.58
7310.00,1.58
7309.00,1.58
7308.00,1.58
7307.00,1.58
7306.00,1.57
7305.00,1.57
7304.00,1.57
7303.00,1.57
7302.00,1.57
7301.00,1.57
7300.00,1.57
7299.00,1.57
7298.00,1.57
7297.00,1.57
7296.00,1.56
7295.00,1.56
7294.00,1.56
7293.00,1.56
7292.00,1.56
7291.00,1.56
7290.00,1.56
7289.00,1.56
7288.00,1.56
7287.00,1.55
7286.00,1.55
7285.00,1.55
7284.00,1.55
7283.00,1.55
7282.00,1.55
7281.00,1.55
7280.00,1.55
7279.00,1.55
7278.00,1.55
7277.00,1.55
7276.00,1.55
7275.00,1.54
7274.00,1.54
7273.00,1.54
7272.00,1.54
7271.00,1.54
7270.00,1.54
7269.00,1.54
7268.00,1.53
7267.00,1.53
7266.00,1.53
7265.00,1.53
7264.00,1.53
7263.00,1.53
7262.00,1.53
7261.00,1.53
7260.00,1.53
7259.00,1.52
7258.00,1.52
7257.00,1.52
7256.00,1.52
7255.00,1.52
7254.00,1.52
7253.00,1.51
7252.00,1.51
7251.00,1.51
7250.00,1.51
7249.00,1.51
7248.00,1.51
7247.00,1.51
7246.00,1.51
7245.00,1.50
7244.00,1.50
7243.00,1.50
7242.00,1.50
7241.00,1.50
7240.00,1.50
7239.00,1.50
7238.00,1.50
7237.00,1.50
7236.00,1.50
7235.00,1.50
7234.00,1.49
7233.00,1.49
7232.00,1.49
7231.00,1.49
7230.00,1.49
7229.00,1.49
7228.00,1.49
7227.00,1.48
7226.00,1.48
7225.00,1.48
7224.00,1.48
7223.00,1.48
7222.00,1.48
7221.00,1.47
7220.00,1.47
7219.00,1.47
7218.00,1.47
7217.00,1.46
7216.00,1.46
7215.00,1.46
7214.00,1.46
7213.00,1.45
7212.00,1.45
7211.00,1.45
7210.00,1.44
7209.00,1.44
7208.00,1.44
7207.00,1.43
7206.00,1.43
7205.00,1.43
7204.00,1.43
7203.00,1.42
7202.00,1.42
7201.00,1.42
7200.00,1.42
7199.00,1.41
7198.00,1.41
7197.00,1.41
7196.00,1.40
7195.00,1.40
7194.00,1.40
7193.00,1.40
7192.00,1.40
7191.00,1.39
7190.00,1.39
7189.00,1.39
7188.00,1.39
7187.00,1.39
7186.00,1.38
7185.00,1.38
7184.00,1.38
7183.00,1.38
7182.00,1.38
7181.00,1.37
7180.00,1.37
7179.00,1.37
7178.00,1.37
7177.00,1.37
7176.00,1.36
7175.00,1.36
7174.00,1.36
7173.00,1.36
7172.00,1.36
7171.00,1.36
7170.00,1.35
7169.00,1.35
7168.00,1.35
7167.00,1.35
7166.00,1.35
7165.00,1.35
7164.00,1.35
7163.00,1.35
7162.00,1.35
7161.00,1.35
7160.00,1.35
7159.00,1.35
7158.00,1.35
7157.00,1.35
7156.00,1.35
7155.00,1.35
7154.00,1.35
7153.00,1.35
7152.00,1.35
7151.00,1.35
7150.00,1.36
7149.00,1.36
7148.00,1.36
7147.00,1.36
7146.00,1.36
7145.00,1.36
7144.00,1.37
7143.00,1.37
7142.00,1.37
7141.00,1.37
7140.00,1.37
7139.00,1.37
7138.00,1.37
7137.00,1.37
7136.00,1.37
7135.00,1.37
7134.00,1.37
7133.00,1.37
7132.00,1.37
7131.00,1.37
7130.00,1.37
7129.00,1.37
7128.00,1.36
7127.00,1.36
7126.00,1.36
7125.00,1.36
7124.00,1.35
7123.00,1.35
7122.00,1.35
7121.00,1.34
7120.00,1.34
7119.00,1.33
7118.00,1.33
7117.00,1.33
7116.00,1.32
7115.00,1.32
7114.00,1.31
7113.00,1.31
7112.00,1.31
7111.00,1.30
7110.00,1.30
7109.00,1.30
7108.00,1.30
7107.00,1.29
7106.00,1.29
7105.00,1.29
7104.00,1.28
7103.00,1.28
7102.00,1.28
7101.00,1.28
7100.00,1.28
7099.00,1.28
7098.00,1.28
7097.00,1.28
7096.00,1.28
7095.00,1.28
7094.00,1.28
7093.00,1.28
7092.00,1.28
7091.00,1.28
7090.00,1.28
7089.00,1.28
7088.00,1.28
7087.00,1.28
7086.00,1.29
7085.00,1.29
7084.00,1.29
7083.00,1.29
7082.00,1.29
7081.00,1.29
7080.00,1.29
7079.00,1.29
7078.00,1.29
7077.00,1.30
7076.00,1.30
7075.00,1.30
7074.00,1.30
7073.00,1.30
7072.00,1.30
7071.00,1.30
7070.00,1.30
7069.00,1.29
7068.00,1.29
7067.00,1.29
7066.00,1.29
7065.00,1.29
7064.00,1.29
7063.00,1.28
7062.00,1.28
7061.00,1.28
7060.00,1.28
7059.00,1.27
7058.00,1.27
7057.00,1.27
7056.00,1.27
7055.00,1.26
7054.00,1.26
7053.00,1.26
7052.00,1.25
7051.00,1.25
7050.00,1.25
7049.00,1.24
7048.00,1.24
7047.00,1.23
7046.00,1.23
7045.00,1.23
7044.00,1.22
7043.00,1.22
7042.00,1.22
7041.00,1.22
7040.00,1.22
7039.00,1.22
7038.00,1.21
7037.00,1.21
7036.00,1.21
7035.00,1.21
7034.00,1.21
7033.00,1.21
7032.00,1.21
7031.00,1.21
7030.00,1.21
7029.00,1.21
7028.00,1.20
7027.00,1.20
7026.00,1.20
7025.00,1.20
7024.00,1.20
7023.00,1.20
7022.00,1.20
7021.00,1.20
7020.00,1.20
7019.00,1.21
7018.00,1.21
7017.00,1.20
7016.00,1.20
7015.00,1.20
7014.00,1.20
7013.00,1.20
7012.00,1.20
7011.00,1.20
7010.00,1.20
7009.00,1.20
7008.00,1.19
7007.00,1.19
7006.00,1.19
7005.00,1.19
7004.00,1.19
7003.00,1.19
7002.00,1.18
7001.00,1.18
7000.00,1.18
6999.00,1.18
6998.00,1.18
6997.00,1.18
6996.00,1.18
6995.00,1.18
6994.00,1.18
6993.00,1.18
6992.00,1.18
6991.00,1.18
6990.00,1.18
6989.00,1.18
6988.00,1.18
6987.00,1.17
6986.00,1.17
6985.00,1.17
6984.00,1.17
6983.00,1.17
6982.00,1.17
6981.00,1.18
6980.00,1.18
6979.00,1.18
6978.00,1.18
6977.00,1.18
6976.00,1.18
6975.00,1.18
6974.00,1.18
6973.00,1.18
6972.00,1.18
6971.00,1.18
6970.00,1.18
6969.00,1.18
6968.00,1.17
6967.00,1.17
6966.00,1.17
6965.00,1.17
6964.00,1.17
6963.00,1.17
6962.00,1.17
6961.00,1.17
6960.00,1.17
6959.00,1.17
6958.00,1.17
6957.00,1.17
6956.00,1.17
6955.00,1.17
6954.00,1.17
6953.00,1.17
6952.00,1.17
6951.00,1.17
6950.00,1.17
6949.00,1.17
6948.00,1.16
6947.00,1.16
6946.00,1.16
6945.00,1.16
6944.00,1.16
6943.00,1.16
6942.00,1.16
6941.00,1.16
6940.00,1.16
6939.00,1.16
6938.00,1.16
6937.00,1.16
6936.00,1.16
6935.00,1.16
6934.00,1.16
6933.00,1.16
6932.00,1.16
6931.00,1.16
6930.00,1.16
6929.00,1.16
6928.00,1.16
6927.00,1.16
6926.00,1.16
6925.00,1.16
6924.00,1.16
6923.00,1.16
6922.00,1.16
6921.00,1.16
6920.00,1.17
6919.00,1.17
6918.00,1.17
6917.00,1.17
6916.00,1.17
6915.00,1.17
6914.00,1.17
6913.00,1.17
6912.00,1.17
6911.00,1.17
6910.00,1.17
6909.00,1.17
6908.00,1.17
6907.00,1.17
6906.00,1.17
6905.00,1.18
6904.00,1.18
6903.00,1.18
6902.00,1.18
6901.00,1.18
6900.00,1.18
6899.00,1.18
6898.00,1.19
6897.00,1.19
6896.00,1.19
6895.00,1.19
6894.00,1.19
6893.00,1.19
6892.00,1.19
6891.00,1.20
6890.00,1.20
6889.00,1.20
6888.00,1.20
6887.00,1.20
6886.00,1.20
6885.00,1.20
6884.00,1.20
6883.00,1.21
6882.00,1.21
6881.00,1.21
6880.00,1.21
6879.00,1.21
6878.00,1.20
6877.00,1.20
6876.00,1.20
6875.00,1.20
6874.00,1.20
6873.00,1.20
6872.00,1.20
6871.00,1.20
6870.00,1.20
6869.00,1.20
6868.00,1.20
6867.00,1.20
6866.00,1.20
6865.00,1.20
6864.00,1.20
6863.00,1.20
6862.00,1.20
6861.00,1.20
6860.00,1.20
6859.00,1.19
6858.00,1.19
6857.00,1.19
6856.00,1.19
6855.00,1.19
6854.00,1.19
6853.00,1.19
6852.00,1.19
6851.00,1.19
6850.00,1.19
6849.00,1.19
6848.00,1.19
6847.00,1.19
6846.00,1.18
6845.00,1.18
6844.00,1.18
6843.00,1.18
6842.00,1.18
6841.00,1.18
6840.00,1.18
6839.00,1.18
6838.00,1.17
6837.00,1.17
6836.00,1.17
6835.00,1.17
6834.00,1.17
6833.00,1.17
6832.00,1.17
6831.00,1.17
6830.00,1.17
6829.00,1.17
6828.00,1.17
6827.00,1.18
6826.00,1.18
6825.00,1.18
6824.00,1.18
6823.00,1.18
6822.00,1.18
6821.00,1.19
6820.00,1.19
6819.00,1.19
6818.00,1.19
6817.00,1.20
6816.00,1.20
6815.00,1.20
6814.00,1.20
6813.00,1.20
6812.00,1.20
6811.00,1.21
6810.00,1.21
6809.00,1.21
6808.00,1.21
6807.00,1.21
6806.00,1.21
6805.00,1.21
6804.00,1.21
6803.00,1.21
6802.00,1.21
6801.00,1.21
6800.00,1.21
6799.00,1.21
6798.00,1.21
6797.00,1.21
6796.00,1.21
6795.00,1.21
6794.00,1.21
6793.00,1.21
6792.00,1.21
6791.00,1.21
6790.00,1.21
6789.00,1.21
6788.00,1.21
6787.00,1.21
6786.00,1.21
6785.00,1.21
6784.00,1.21
6783.00,1.21
6782.00,1.21
6781.00,1.21
6780.00,1.21
6779.00,1.21
6778.00,1.21
6777.00,1.21
6776.00,1.21
6775.00,1.21
6774.00,1.21
6773.00,1.21
6772.00,1.21
6771.00,1.21
6770.00,1.22
6769.00,1.22
6768.00,1.22
6767.00,1.22
6766.00,1.22
6765.00,1.23
6764.00,1.23
6763.00,1.23
6762.00,1.23
6761.00,1.24
6760.00,1.24
6759.00,1.24
6758.00,1.25
6757.00,1.25
6756.00,1.25
6755.00,1.25
6754.00,1.26
6753.00,1.26
6752.00,1.26
6751.00,1.27
6750.00,1.27
6749.00,1.27
6748.00,1.28
6747.00,1.28
6746.00,1.28
6745.00,1.29
6744.00,1.29
6743.00,1.29
6742.00,1.29
6741.00,1.30
6740.00,1.30
6739.00,1.30
6738.00,1.30
6737.00,1.30
6736.00,1.30
6735.00,1.30
6734.00,1.30
6733.00,1.30
6732.00,1.31
6731.00,1.31
6730.00,1.31
6729.00,1.31
6728.00,1.31
6727.00,1.31
6726.00,1.31
6725.00,1.30
6724.00,1.30
6723.00,1.30
6722.00,1.30
6721.00,1.30
6720.00,1.30
6719.00,1.30
6718.00,1.29
6717.00,1.29
6716.00,1.29
6715.00,1.29
6714.00,1.29
6713.00,1.28
6712.00,1.28
6711.00,1.28
6710.00,1.28
6709.00,1.28
6708.00,1.28
6707.00,1.27
6706.00,1.27
6705.00,1.27
6704.00,1.27
6703.00,1.27
6702.00,1.26
6701.00,1.26
6700.00,1.26
6699.00,1.26
6698.00,1.26
6697.00,1.26
6696.00,1.26
6695.00,1.25
6694.00,1.25
6693.00,1.25
6692.00,1.25
6691.00,1.25
6690.00,1.25
6689.00,1.25
6688.00,1.25
6687.00,1.25
6686.00,1.25
6685.00,1.25
6684.00,1.25
6683.00,1.25
6682.00,1.25
6681.00,1.25
6680.00,1.25
6679.00,1.25
6678.00,1.25
6677.00,1.26
6676.00,1.26
6675.00,1.26
6674.00,1.26
6673.00,1.26
6672.00,1.26
6671.00,1.26
6670.00,1.26
6669.00,1.26
6668.00,1.27
6667.00,1.27
6666.00,1.27
6665.00,1.27
6664.00,1.27
6663.00,1.27
6662.00,1.28
6661.00,1.28
6660.00,1.28
6659.00,1.28
6658.00,1.28
6657.00,1.28
6656.00,1.29
6655.00,1.29
6654.00,1.29
6653.00,1.29
6652.00,1.29
6651.00,1.29
6650.00,1.29
6649.00,1.30
6648.00,1.30
6647.00,1.30
6646.00,1.30
6645.00,1.30
6644.00,1.30
6643.00,1.30
6642.00,1.30
6641.00,1.31
6640.00,1.31
6639.00,1.31
6638.00,1.31
6637.00,1.31
6636.00,1.31
6635.00,1.31
6634.00,1.32
6633.00,1.32
6632.00,1.32
6631.00,1.32
6630.00,1.32
6629.00,1.32
6628.00,1.32
6627.00,1.33
6626.00,1.33
6625.00,1.33
6624.00,1.33
6623.00,1.33
6622.00,1.33
6621.00,1.33
6620.00,1.33
6619.00,1.33
6618.00,1.34
6617.00,1.34
6616.00,1.34
6615.00,1.34
6614.00,1.34
6613.00,1.34
6612.00,1.34
6611.00,1.34
6610.00,1.35
6609.00,1.35
6608.00,1.35
6607.00,1.35
6606.00,1.35
6605.00,1.36
6604.00,1.36
6603.00,1.36
6602.00,1.36
6601.00,1.37
6600.00,1.37
6599.00,1.37
6598.00,1.37
6597.00,1.38
6596.00,1.38
6595.00,1.38
6594.00,1.38
6593.00,1.39
6592.00,1.39
6591.00,1.39
6590.00,1.40
6589.00,1.40
6588.00,1.40
6587.00,1.40
6586.00,1.40
6585.00,1.41
6584.00,1.41
6583.00,1.41
6582.00,1.41
6581.00,1.41
6580.00,1.41
6579.00,1.41
6578.00,1.41
6577.00,1.41
6576.00,1.41
6575.00,1.41
6574.00,1.41
6573.00,1.41
6572.00,1.41
6571.00,1.41
6570.00,1.41
6569.00,1.41
6568.00,1.41
6567.00,1.41
6566.00,1.41
6565.00,1.41
6564.00,1.41
6563.00,1.40
6562.00,1.40
6561.00,1.40
6560.00,1.40
6559.00,1.40
6558.00,1.40
6557.00,1.40
6556.00,1.39
6555.00,1.39
6554.00,1.39
6553.00,1.39
6552.00,1.39
6551.00,1.38
6550.00,1.38
6549.00,1.38
6548.00,1.38
6547.00,1.38
6546.00,1.37
6545.00,1.37
6544.00,1.37
6543.00,1.37
6542.00,1.37
6541.00,1.37
6540.00,1.37
6539.00,1.37
6538.00,1.37
6537.00,1.37
6536.00,1.37
6535.00,1.37
6534.00,1.37
6533.00,1.38
6532.00,1.38
6531.00,1.38
6530.00,1.38
6529.00,1.38
6528.00,1.38
6527.00,1.38
6526.00,1.38
6525.00,1.39
6524.00,1.39
6523.00,1.39
6522.00,1.39
6521.00,1.39
6520.00,1.40
6519.00,1.40
6518.00,1.40
6517.00,1.40
6516.00,1.40
6515.00,1.40
6514.00,1.40
6513.00,1.40
6512.00,1.40
6511.00,1.40
6510.00,1.40
6509.00,1.40
6508.00,1.40
6507.00,1.40
6506.00,1.40
6505.00,1.40
6504.00,1.40
6503.00,1.40
6502.00,1.40
6501.00,1.40
6500.00,1.40
6499.00,1.40
6498.00,1.40
6497.00,1.40
6496.00,1.40
6495.00,1.40
6494.00,1.40
6493.00,1.40
6492.00,1.39
6491.00,1.39
6490.00,1.40
6489.00,1.40
6488.00,1.40
6487.00,1.40
6486.00,1.40
6485.00,1.40
6484.00,1.40
6483.00,1.40
6482.00,1.40
6481.00,1.41
6480.00,1.41
6479.00,1.41
6478.00,1.41
6477.00,1.41
6476.00,1.41
6475.00,1.42
6474.00,1.42
6473.00,1.42
6472.00,1.42
6471.00,1.42
6470.00,1.43
6469.00,1.43
6468.00,1.43
6467.00,1.43
6466.00,1.43
6465.00,1.44
6464.00,1.44
6463.00,1.44
6462.00,1.44
6461.00,1.44
6460.00,1.45
6459.00,1.45
6458.00,1.45
6457.00,1.45
6456.00,1.45
6455.00,1.45
6454.00,1.45
6453.00,1.45
6452.00,1.45
6451.00,1.45
6450.00,1.45
6449.00,1.45
6448.00,1.45
6447.00,1.45
6446.00,1.45
6445.00,1.45
6444.00,1.45
6443.00,1.45
6442.00,1.45
6441.00,1.45
6440.00,1.45
6439.00,1.45
6438.00,1.45
6437.00,1.45
6436.00,1.45
6435.00,1.45
6434.00,1.45
6433.00,1.45
6432.00,1.45
6431.00,1.45
6430.00,1.46
6429.00,1.46
6428.00,1.46
6427.00,1.46
6426.00,1.46
6425.00,1.46
6424.00,1.46
6423.00,1.47
6422.00,1.47
6421.00,1.47
6420.00,1.47
6419.00,1.48
6418.00,1.48
6417.00,1.48
6416.00,1.48
6415.00,1.48
6414.00,1.49
6413.00,1.49
6412.00,1.49
6411.00,1.49
6410.00,1.49
6409.00,1.50
6408.00,1.50
6407.00,1.50
6406.00,1.50
6405.00,1.50
6404.00,1.50
6403.00,1.50
6402.00,1.51
6401.00,1.51
6400.00,1.51
6399.00,1.51
6398.00,1.51
6397.00,1.51
6396.00,1.51
6395.00,1.51
6394.00,1.51
6393.00,1.52
6392.00,1.52
6391.00,1.52
6390.00,1.52
6389.00,1.52
6388.00,1.52
6387.00,1.52
6386.00,1.52
6385.00,1.52
6384.00,1.52
6383.00,1.52
6382.00,1.52
6381.00,1.52
6380.00,1.52
6379.00,1.52
6378.00,1.52
6377.00,1.52
6376.00,1.52
6375.00,1.52
6374.00,1.52
6373.00,1.52
6372.00,1.51
6371.00,1.51
6370.00,1.51
6369.00,1.51
6368.00,1.51
6367.00,1.51
6366.00,1.51
6365.00,1.51
6364.00,1.51
6363.00,1.51
6362.00,1.51
6361.00,1.51
6360.00,1.51
6359.00,1.52
6358.00,1.52
6357.00,1.52
6356.00,1.52
6355.00,1.52
6354.00,1.52
6353.00,1.52
6352.00,1.52
6351.00,1.52
6350.00,1.52
6349.00,1.52
6348.00,1.52
6347.00,1.52
6346.00,1.52
6345.00,1.51
6344.00,1.51
6343.00,1.51
6342.00,1.51
6341.00,1.51
6340.00,1.51
6339.00,1.51
6338.00,1.51
6337.00,1.51
6336.00,1.51
6335.00,1.50
6334.00,1.50
6333.00,1.50
6332.00,1.50
6331.00,1.50
6330.00,1.50
6329.00,1.50
6328.00,1.50
6327.00,1.50
6326.00,1.50
6325.00,1.50
6324.00,1.50
6323.00,1.50
6322.00,1.50
6321.00,1.50
6320.00,1.50
6319.00,1.50
6318.00,1.50
6317.00,1.50
6316.00,1.50
6315.00,1.50
6314.00,1.51
6313.00,1.51
6312.00,1.51
6311.00,1.51
6310.00,1.51
6309.00,1.52
6308.00,1.52
6307.00,1.52
6306.00,1.52
6305.00,1.52
6304.00,1.53
6303.00,1.53
6302.00,1.53
6301.00,1.53
6300.00,1.54
6299.00,1.54
6298.00,1.54
6297.00,1.54
6296.00,1.54
6295.00,1.55
6294.00,1.55
6293.00,1.55
6292.00,1.55
6291.00,1.55
6290.00,1.55
6289.00,1.56
6288.00,1.56
6287.00,1.56
6286.00,1.56
6285.00,1.56
6284.00,1.56
6283.00,1.56
6282.00,1.56
6281.00,1.56
6280.00,1.56
6279.00,1.56
6278.00,1.56
6277.00,1.56
6276.00,1.56
6275.00,1.56
6274.00,1.56
6273.00,1.56
6272.00,1.56
6271.00,1.56
6270.00,1.56
6269.00,1.55
6268.00,1.55
6267.00,1.55
6266.00,1.55
6265.00,1.55
6264.00,1.55
6263.00,1.55
6262.00,1.54
6261.00,1.54
6260.00,1.54
6259.00,1.54
6258.00,1.54
6257.00,1.54
6256.00,1.53
6255.00,1.53
6254.00,1.53
6253.00,1.53
6252.00,1.53
6251.00,1.53
6250.00,1.53
6249.00,1.53
6248.00,1.53
6247.00,1.53
6246.00,1.53
6245.00,1.53
6244.00,1.53
6243.00,1.53
6242.00,1.53
6241.00,1.53
6240.00,1.53
6239.00,1.53
6238.00,1.53
6237.00,1.53
6236.00,1.54
6235.00,1.54
6234.00,1.54
6233.00,1.54
6232.00,1.54
6231.00,1.54
6230.00,1.54
6229.00,1.54
6228.00,1.55
6227.00,1.55
6226.00,1.55
6225.00,1.55
6224.00,1.55
6223.00,1.55
6222.00,1.55
6221.00,1.55
6220.00,1.55
6219.00,1.56
6218.00,1.56
6217.00,1.56
6216.00,1.56
6215.00,1.56
6214.00,1.56
6213.00,1.56
6212.00,1.56
6211.00,1.57
6210.00,1.57
6209.00,1.57
6208.00,1.57
6207.00,1.57
6206.00,1.57
6205.00,1.57
6204.00,1.57
6203.00,1.57
6202.00,1.57
6201.00,1.58
6200.00,1.58
6199.00,1.58
6198.00,1.58
6197.00,1.58
6196.00,1.58
6195.00,1.58
6194.00,1.58
6193.00,1.58
6192.00,1.58
6191.00,1.59
6190.00,1.59
6189.00,1.59
6188.00,1.59
6187.00,1.59
6186.00,1.59
6185.00,1.59
6184.00,1.59
6183.00,1.59
6182.00,1.59
6181.00,1.59
6180.00,1.59
6179.00,1.59
6178.00,1.59
6177.00,1.59
6176.00,1.59
6175.00,1.59
6174.00,1.59
6173.00,1.59
6172.00,1.59
6171.00,1.59
6170.00,1.58
6169.00,1.58
6168.00,1.58
6167.00,1.58
6166.00,1.58
6165.00,1.58
6164.00,1.58
6163.00,1.58
6162.00,1.58
6161.00,1.58
6160.00,1.58
6159.00,1.58
6158.00,1.58
6157.00,1.58
6156.00,1.58
6155.00,1.58
6154.00,1.58
6153.00,1.58
6152.00,1.58
6151.00,1.58
6150.00,1.58
6149.00,1.58
6148.00,1.58
6147.00,1.58
6146.00,1.58
6145.00,1.58
6144.00,1.58
6143.00,1.58
6142.00,1.58
6141.00,1.58
6140.00,1.59
6139.00,1.59
6138.00,1.59
6137.00,1.59
6136.00,1.59
6135.00,1.59
6134.00,1.59
6133.00,1.60
6132.00,1.60
6131.00,1.60
6130.00,1.60
6129.00,1.60
6128.00,1.61
6127.00,1.61
6126.00,1.61
6125.00,1.61
6124.00,1.62
6123.00,1.62
6122.00,1.62
6121.00,1.62
6120.00,1.62
6119.00,1.62
6118.00,1.62
6117.00,1.62
6116.00,1.63
6115.00,1.63
6114.00,1.63
6113.00,1.63
6112.00,1.63
6111.00,1.63
6110.00,1.63
6109.00,1.63
6108.00,1.63
6107.00,1.63
6106.00,1.63
6105.00,1.63
6104.00,1.63
6103.00,1.63
6102.00,1.63
6101.00,1.63
6100.00,1.63
6099.00,1.63
6098.00,1.63
6097.00,1.63
6096.00,1.63
6095.00,1.63
6094.00,1.63
6093.00,1.63
6092.00,1.63
6091.00,1.63
6090.00,1.63
6089.00,1.63
6088.00,1.63
6087.00,1.63
6086.00,1.63
6085.00,1.63
6084.00,1.63
6083.00,1.64
6082.00,1.64
6081.00,1.64
6080.00,1.64
6079.00,1.64
6078.00,1.64
6077.00,1.64
6076.00,1.64
6075.00,1.64
6074.00,1.64
6073.00,1.63
6072.00,1.63
6071.00,1.63
6070.00,1.63
6069.00,1.63
6068.00,1.63
6067.00,1.63
6066.00,1.63
6065.00,1.63
6064.00,1.63
6063.00,1.63
6062.00,1.63
6061.00,1.63
6060.00,1.63
6059.00,1.63
6058.00,1.63
6057.00,1.63
6056.00,1.63
6055.00,1.63
6054.00,1.63
6053.00,1.63
6052.00,1.63
6051.00,1.63
6050.00,1.63
6049.00,1.63
6048.00,1.63
6047.00,1.63
6046.00,1.63
6045.00,1.63
6044.00,1.64
6043.00,1.64
6042.00,1.64
6041.00,1.64
6040.00,1.64
6039.00,1.64
6038.00,1.64
6037.00,1.64
6036.00,1.64
6035.00,1.64
6034.00,1.64
6033.00,1.64
6032.00,1.64
6031.00,1.64
6030.00,1.65
6029.00,1.65
6028.00,1.65
6027.00,1.65
6026.00,1.65
6025.00,1.65
6024.00,1.65
6023.00,1.65
6022.00,1.65
6021.00,1.65
6020.00,1.65
6019.00,1.65
6018.00,1.65
6017.00,1.65
6016.00,1.65
6015.00,1.65
6014.00,1.65
6013.00,1.65
6012.00,1.65
6011.00,1.65
6010.00,1.65
6009.00,1.65
6008.00,1.65
6007.00,1.64
6006.00,1.64
6005.00,1.64
6004.00,1.64
6003.00,1.64
6002.00,1.64
6001.00,1.64
6000.00,1.64
5999.00,1.64
5998.00,1.64
5997.00,1.64
5996.00,1.64
5995.00,1.64
5994.00,1.64
5993.00,1.64
5992.00,1.64
5991.00,1.63
5990.00,1.63
5989.00,1.63
5988.00,1.63
5987.00,1.64
5986.00,1.64
5985.00,1.64
5984.00,1.64
5983.00,1.64
5982.00,1.64
5981.00,1.64
5980.00,1.64
5979.00,1.64
5978.00,1.64
5977.00,1.64
5976.00,1.64
5975.00,1.64
5974.00,1.64
5973.00,1.64
5972.00,1.64
5971.00,1.64
5970.00,1.64
5969.00,1.64
5968.00,1.64
5967.00,1.64
5966.00,1.63
5965.00,1.63
5964.00,1.63
5963.00,1.63
5962.00,1.63
5961.00,1.63
5960.00,1.63
5959.00,1.63
5958.00,1.63
5957.00,1.63
5956.00,1.63
5955.00,1.62
5954.00,1.62
5953.00,1.62
5952.00,1.62
5951.00,1.62
5950.00,1.62
5949.00,1.62
5948.00,1.62
5947.00,1.62
5946.00,1.62
5945.00,1.62
5944.00,1.62
5943.00,1.62
5942.00,1.62
5941.00,1.62
5940.00,1.62
5939.00,1.61
5938.00,1.61
5937.00,1.61
5936.00,1.61
5935.00,1.61
5934.00,1.61
5933.00,1.61
5932.00,1.61
5931.00,1.61
5930.00,1.61
5929.00,1.61
5928.00,1.61
5927.00,1.61
5926.00,1.60
5925.00,1.60
5924.00,1.60
5923.00,1.60
5922.00,1.60
5921.00,1.60
5920.00,1.60
5919.00,1.60
5918.00,1.60
5917.00,1.60
5916.00,1.61
5915.00,1.61
5914.00,1.61
5913.00,1.61
5912.00,1.61
5911.00,1.61
5910.00,1.61
5909.00,1.61
5908.00,1.61
5907.00,1.61
5906.00,1.61
5905.00,1.61
5904.00,1.61
5903.00,1.61
5902.00,1.62
5901.00,1.62
5900.00,1.62
5899.00,1.62
5898.00,1.62
5897.00,1.62
5896.00,1.62
5895.00,1.62
5894.00,1.62
5893.00,1.62
5892.00,1.62
5891.00,1.62
5890.00,1.63
5889.00,1.63
5888.00,1.63
5887.00,1.63
5886.00,1.63
5885.00,1.63
5884.00,1.63
5883.00,1.63
5882.00,1.63
5881.00,1.63
5880.00,1.63
5879.00,1.63
5878.00,1.63
5877.00,1.63
5876.00,1.63
5875.00,1.63
5874.00,1.63
5873.00,1.63
5872.00,1.63
5871.00,1.63
5870.00,1.63
5869.00,1.63
5868.00,1.63
5867.00,1.63
5866.00,1.63
5865.00,1.63
5864.00,1.63
5863.00,1.63
5862.00,1.63
5861.00,1.63
5860.00,1.63
5859.00,1.63
5858.00,1.63
5857.00,1.63
5856.00,1.63
5855.00,1.62
5854.00,1.62
5853.00,1.62
5852.00,1.62
5851.00,1.62
5850.00,1.62
5849.00,1.62
5848.00,1.62
5847.00,1.62
5846.00,1.62
5845.00,1.62
5844.00,1.62
5843.00,1.62
5842.00,1.62
5841.00,1.61
5840.00,1.61
5839.00,1.61
5838.00,1.61
5837.00,1.61
5836.00,1.61
5835.00,1.61
5834.00,1.61
5833.00,1.62
5832.00,1.62
5831.00,1.62
5830.00,1.62
5829.00,1.62
5828.00,1.62
5827.00,1.62
5826.00,1.62
5825.00,1.62
5824.00,1.62
5823.00,1.62
5822.00,1.62
5821.00,1.62
5820.00,1.62
5819.00,1.62
5818.00,1.62
5817.00,1.63
5816.00,1.63
5815.00,1.63
5814.00,1.63
5813.00,1.63
5812.00,1.63
5811.00,1.63
5810.00,1.63
5809.00,1.63
5808.00,1.63
5807.00,1.63
5806.00,1.63
5805.00,1.63
5804.00,1.63
5803.00,1.63
5802.00,1.63
5801.00,1.63
5800.00,1.63
5799.00,1.63
5798.00,1.63
5797.00,1.63
5796.00,1.62
5795.00,1.62
5794.00,1.62
5793.00,1.62
5792.00,1.62
5791.00,1.62
5790.00,1.62
5789.00,1.62
5788.00,1.62
5787.00,1.63
5786.00,1.63
5785.00,1.63
5784.00,1.63
5783.00,1.63
5782.00,1.63
5781.00,1.63
5780.00,1.63
5779.00,1.63
5778.00,1.63
5777.00,1.63
5776.00,1.63
5775.00,1.63
5774.00,1.63
5773.00,1.63
5772.00,1.63
5771.00,1.63
5770.00,1.63
5769.00,1.63
5768.00,1.63
5767.00,1.63
5766.00,1.63
5765.00,1.62
5764.00,1.62
5763.00,1.62
5762.00,1.62
5761.00,1.62
5760.00,1.62
5759.00,1.62
5758.00,1.62
5757.00,1.62
5756.00,1.62
5755.00,1.62
5754.00,1.62
5753.00,1.62
5752.00,1.62
5751.00,1.62
5750.00,1.61
5749.00,1.61
5748.00,1.61
5747.00,1.61
5746.00,1.61
5745.00,1.61
5744.00,1.61
5743.00,1.61
5742.00,1.62
5741.00,1.62
5740.00,1.62
5739.00,1.62
5738.00,1.62
5737.00,1.62
5736.00,1.62
5735.00,1.62
5734.00,1.62
5733.00,1.62
5732.00,1.62
5731.00,1.62
5730.00,1.62
5729.00,1.62
5728.00,1.62
5727.00,1.62
5726.00,1.62
5725.00,1.62
5724.00,1.62
5723.00,1.62
5722.00,1.62
5721.00,1.61
5720.00,1.61
5719.00,1.61
5718.00,1.61
5717.00,1.61
5716.00,1.61
5715.00,1.61
5714.00,1.61
5713.00,1.61
5712.00,1.61
5711.00,1.61
5710.00,1.60
5709.00,1.60
5708.00,1.60
5707.00,1.60
5706.00,1.60
5705.00,1.60
5704.00,1.60
5703.00,1.60
5702.00,1.60
5701.00,1.60
5700.00,1.60
5699.00,1.60
5698.00,1.60
5697.00,1.60
5696.00,1.60
5695.00,1.60
5694.00,1.60
5693.00,1.60
5692.00,1.60
5691.00,1.60
5690.00,1.60
5689.00,1.60
5688.00,1.60
5687.00,1.60
5686.00,1.60
5685.00,1.60
5684.00,1.60
5683.00,1.60
5682.00,1.60
5681.00,1.60
5680.00,1.60
5679.00,1.60
5678.00,1.60
5677.00,1.60
5676.00,1.60
5675.00,1.60
5674.00,1.60
5673.00,1.60
5672.00,1.59
5671.00,1.59
5670.00,1.59
5669.00,1.59
5668.00,1.59
5667.00,1.59
5666.00,1.59
5665.00,1.59
5664.00,1.59
5663.00,1.59
5662.00,1.59
5661.00,1.59
5660.00,1.59
5659.00,1.59
5658.00,1.59
5657.00,1.60
5656.00,1.60
5655.00,1.60
5654.00,1.60
5653.00,1.60
5652.00,1.60
5651.00,1.60
5650.00,1.60
5649.00,1.60
5648.00,1.60
5647.00,1.60
5646.00,1.60
5645.00,1.60
5644.00,1.60
5643.00,1.60
5642.00,1.60
5641.00,1.60
5640.00,1.60
5639.00,1.60
5638.00,1.60
5637.00,1.60
5636.00,1.60
5635.00,1.60
5634.00,1.60
5633.00,1.60
5632.00,1.60
5631.00,1.60
5630.00,1.60
5629.00,1.60
5628.00,1.60
5627.00,1.60
5626.00,1.60
5625.00,1.60
5624.00,1.60
5623.00,1.60
5622.00,1.60
5621.00,1.60
5620.00,1.60
5619.00,1.60
5618.00,1.60
5617.00,1.60
5616.00,1.60
5615.00,1.60
5614.00,1.60
5613.00,1.60
5612.00,1.60
5611.00,1.60
5610.00,1.60
5609.00,1.60
5608.00,1.60
5607.00,1.60
5606.00,1.60
5605.00,1.60
5604.00,1.60
5603.00,1.61
5602.00,1.61
5601.00,1.61
5600.00,1.61
5599.00,1.61
5598.00,1.61
5597.00,1.61
5596.00,1.61
5595.00,1.62
5594.00,1.62
5593.00,1.62
5592.00,1.62
5591.00,1.62
5590.00,1.62
5589.00,1.62
5588.00,1.63
5587.00,1.63
5586.00,1.63
5585.00,1.63
5584.00,1.63
5583.00,1.63
5582.00,1.63
5581.00,1.63
5580.00,1.63
5579.00,1.63
5578.00,1.63
5577.00,1.63
5576.00,1.63
5575.00,1.63
5574.00,1.63
5573.00,1.63
5572.00,1.63
5571.00,1.63
5570.00,1.63
5569.00,1.63
5568.00,1.63
5567.00,1.63
5566.00,1.63
5565.00,1.63
5564.00,1.63
5563.00,1.63
5562.00,1.63
5561.00,1.63
5560.00,1.63
5559.00,1.63
5558.00,1.63
5557.00,1.63
5556.00,1.63
5555.00,1.63
5554.00,1.63
5553.00,1.63
5552.00,1.63
5551.00,1.63
5550.00,1.63
5549.00,1.63
5548.00,1.63
5547.00,1.63
5546.00,1.63
5545.00,1.63
5544.00,1.63
5543.00,1.63
5542.00,1.63
5541.00,1.63
5540.00,1.63
5539.00,1.63
5538.00,1.63
5537.00,1.63
5536.00,1.63
5535.00,1.63
5534.00,1.63
5533.00,1.63
5532.00,1.63
5531.00,1.63
5530.00,1.63
5529.00,1.63
5528.00,1.63
5527.00,1.63
5526.00,1.63
5525.00,1.63
5524.00,1.63
5523.00,1.63
5522.00,1.63
5521.00,1.63
5520.00,1.63
5519.00,1.63
5518.00,1.63
5517.00,1.63
5516.00,1.63
5515.00,1.63
5514.00,1.63
5513.00,1.63
5512.00,1.63
5511.00,1.63
5510.00,1.63
5509.00,1.64
5508.00,1.64
5507.00,1.64
5506.00,1.64
5505.00,1.64
5504.00,1.64
5503.00,1.64
5502.00,1.64
5501.00,1.64
5500.00,1.65
5499.00,1.65
5498.00,1.65
5497.00,1.65
5496.00,1.65
5495.00,1.65
5494.00,1.65
5493.00,1.65
5492.00,1.65
5491.00,1.65
5490.00,1.65
5489.00,1.65
5488.00,1.65
5487.00,1.66
5486.00,1.66
5485.00,1.66
5484.00,1.66
5483.00,1.66
5482.00,1.66
5481.00,1.66
5480.00,1.66
5479.00,1.66
5478.00,1.66
5477.00,1.66
5476.00,1.66
5475.00,1.66
5474.00,1.66
5473.00,1.66
5472.00,1.66
5471.00,1.66
5470.00,1.66
5469.00,1.66
5468.00,1.66
5467.00,1.66
5466.00,1.66
5465.00,1.66
5464.00,1.66
5463.00,1.66
5462.00,1.66
5461.00,1.66
5460.00,1.66
5459.00,1.66
5458.00,1.66
5457.00,1.66
5456.00,1.66
5455.00,1.66
5454.00,1.66
5453.00,1.66
5452.00,1.66
5451.00,1.66
5450.00,1.66
5449.00,1.66
5448.00,1.66
5447.00,1.66
5446.00,1.66
5445.00,1.66
5444.00,1.66
5443.00,1.66
5442.00,1.66
5441.00,1.66
5440.00,1.66
5439.00,1.66
5438.00,1.66
5437.00,1.66
5436.00,1.66
5435.00,1.66
5434.00,1.66
5433.00,1.66
5432.00,1.66
5431.00,1.66
5430.00,1.66
5429.00,1.66
5428.00,1.66
5427.00,1.66
5426.00,1.66
5425.00,1.66
5424.00,1.66
5423.00,1.66
5422.00,1.66
5421.00,1.66
5420.00,1.66
5419.00,1.66
5418.00,1.66
5417.00,1.66
5416.00,1.66
5415.00,1.66
5414.00,1.66
5413.00,1.66
5412.00,1.66
5411.00,1.66
5410.00,1.66
5409.00,1.66
5408.00,1.66
5407.00,1.66
5406.00,1.66
5405.00,1.66
5404.00,1.66
5403.00,1.66
5402.00,1.66
5401.00,1.66
5400.00,1.66
5399.00,1.66
5398.00,1.66
5397.00,1.66
5396.00,1.66
5395.00,1.66
5394.00,1.66
5393.00,1.65
5392.00,1.65
5391.00,1.65
5390.00,1.65
5389.00,1.65
5388.00,1.65
5387.00,1.65
5386.00,1.65
5385.00,1.64
5384.00,1.64
5383.00,1.64
5382.00,1.64
5381.00,1.64
5380.00,1.63
5379.00,1.63
5378.00,1.63
5377.00,1.63
5376.00,1.62
5375.00,1.62
5374.00,1.62
5373.00,1.61
5372.00,1.61
5371.00,1.61
5370.00,1.61
5369.00,1.60
5368.00,1.60
5367.00,1.60
5366.00,1.60
5365.00,1.60
5364.00,1.59
5363.00,1.59
5362.00,1.59
5361.00,1.59
5360.00,1.59
5359.00,1.58
5358.00,1.58
5357.00,1.58
5356.00,1.58
5355.00,1.57
5354.00,1.57
5353.00,1.57
5352.00,1.56
5351.00,1.56
5350.00,1.56
5349.00,1.55
5348.00,1.55
5347.00,1.55
5346.00,1.54
5345.00,1.54
5344.00,1.53
5343.00,1.53
5342.00,1.52
5341.00,1.52
5340.00,1.51
5339.00,1.51
5338.00,1.50
5337.00,1.49
5336.00,1.49
5335.00,1.48
5334.00,1.47
5333.00,1.47
5332.00,1.46
5331.00,1.45
5330.00,1.44
5329.00,1.44
5328.00,1.43
5327.00,1.42
5326.00,1.41
5325.00,1.40
5324.00,1.40
5323.00,1.39
5322.00,1.38
5321.00,1.37
5320.00,1.36
5319.00,1.36
5318.00,1.35
5317.00,1.34
5316.00,1.33
5315.00,1.32
5314.00,1.32
5313.00,1.31
5312.00,1.30
5311.00,1.29
5310.00,1.28
5309.00,1.28
5308.00,1.27
5307.00,1.26
5306.00,1.25
5305.00,1.24
5304.00,1.23
5303.00,1.23
5302.00,1.22
5301.00,1.21
5300.00,1.20
5299.00,1.20
5298.00,1.19
5297.00,1.18
5296.00,1.17
5295.00,1.17
5294.00,1.16
5293.00,1.15
5292.00,1.15
5291.00,1.14
5290.00,1.13
5289.00,1.13
5288.00,1.12
5287.00,1.11
5286.00,1.11
5285.00,1.10
5284.00,1.09
5283.00,1.09
5282.00,1.08
5281.00,1.08
5280.00,1.07
5279.00,1.07
5278.00,1.06
5277.00,1.06
5276.00,1.05
5275.00,1.05
5274.00,1.04
5273.00,1.04
5272.00,1.03
5271.00,1.03
5270.00,1.02
5269.00,1.02
5268.00,1.01
5267.00,1.01
5266.00,1.00
5265.00,1.00
5264.00,1.00
5263.00,0.99
5262.00,0.99
5261.00,0.98
5260.00,0.98
5259.00,0.98
5258.00,0.97
5257.00,0.97
5256.00,0.97
5255.00,0.96
5254.00,0.96
5253.00,0.96
5252.00,0.95
5251.00,0.95
5250.00,0.95
5249.00,0.94
5248.00,0.94
5247.00,0.94
5246.00,0.93
5245.00,0.93
5244.00,0.93
5243.00,0.93
5242.00,0.92
5241.00,0.92
5240.00,0.92
5239.00,0.92
5238.00,0.92
5237.00,0.92
5236.00,0.91
5235.00,0.91
5234.00,0.91
5233.00,0.91
5232.00,0.91
5231.00,0.91
5230.00,0.90
5229.00,0.90
5228.00,0.90
5227.00,0.90
5226.00,0.90
5225.00,0.89
5224.00,0.89
5223.00,0.89
5222.00,0.89
5221.00,0.89
5220.00,0.89
5219.00,0.89
5218.00,0.89
5217.00,0.88
5216.00,0.88
5215.00,0.88
5214.00,0.88
5213.00,0.88
5212.00,0.88
5211.00,0.88
5210.00,0.88
5209.00,0.88
5208.00,0.88
5207.00,0.88
5206.00,0.88
5205.00,0.87
5204.00,0.87
5203.00,0.87
5202.00,0.87
5201.00,0.87
5200.00,0.87
5199.00,0.87
5198.00,0.87
5197.00,0.87
5196.00,0.87
5195.00,0.87
5194.00,0.87
5193.00,0.87
5192.00,0.87
5191.00,0.87
5190.00,0.87
5189.00,0.87
5188.00,0.87
5187.00,0.87
5186.00,0.87
5185.00,0.86
5184.00,0.86
5183.00,0.86
5182.00,0.86
5181.00,0.86
5180.00,0.86
5179.00,0.86
5178.00,0.86
5177.00,0.86
5176.00,0.86
5175.00,0.86
5174.00,0.86
5173.00,0.86
5172.00,0.86
5171.00,0.86
5170.00,0.86
5169.00,0.86
5168.00,0.86
5167.00,0.86
5166.00,0.86
5165.00,0.86
5164.00,0.86
5163.00,0.86
5162.00,0.86
5161.00,0.86
5160.00,0.86
5159.00,0.86
5158.00,0.86
5157.00,0.86
5156.00,0.86
5155.00,0.86
5154.00,0.86
5153.00,0.86
5152.00,0.86
5151.00,0.86
5150.00,0.86
5149.00,0.86
5148.00,0.86
5147.00,0.87
5146.00,0.87
5145.00,0.87
5144.00,0.87
5143.00,0.87
5142.00,0.87
5141.00,0.87
5140.00,0.87
5139.00,0.87
5138.00,0.87
5137.00,0.88
5136.00,0.88
5135.00,0.88
5134.00,0.88
5133.00,0.88
5132.00,0.88
5131.00,0.88
5130.00,0.88
5129.00,0.88
5128.00,0.88
5127.00,0.88
5126.00,0.88
5125.00,0.88
5124.00,0.89
5123.00,0.89
5122.00,0.89
5121.00,0.89
5120.00,0.89
5119.00,0.89
5118.00,0.89
5117.00,0.89
5116.00,0.89
5115.00,0.90
5114.00,0.90
5113.00,0.90
5112.00,0.90
5111.00,0.90
5110.00,0.90
5109.00,0.90
5108.00,0.90
5107.00,0.91
5106.00,0.91
5105.00,0.91
5104.00,0.91
5103.00,0.91
5102.00,0.91
5101.00,0.92
5100.00,0.92
5099.00,0.92
5098.00,0.92
5097.00,0.92
5096.00,0.92
5095.00,0.93
5094.00,0.93
5093.00,0.93
5092.00,0.93
5091.00,0.93
5090.00,0.94
5089.00,0.94
5088.00,0.94
5087.00,0.94
5086.00,0.95
5085.00,0.95
5084.00,0.95
5083.00,0.95
5082.00,0.96
5081.00,0.96
5080.00,0.96
5079.00,0.96
5078.00,0.97
5077.00,0.97
5076.00,0.97
5075.00,0.97
5074.00,0.98
5073.00,0.98
5072.00,0.98
5071.00,0.98
5070.00,0.98
5069.00,0.99
5068.00,0.99
5067.00,0.99
5066.00,0.99
5065.00,1.00
5064.00,1.00
5063.00,1.00
5062.00,1.00
5061.00,1.00
5060.00,1.00
5059.00,1.01
5058.00,1.01
5057.00,1.01
5056.00,1.01
5055.00,1.01
5054.00,1.01
5053.00,1.01
5052.00,1.02
5051.00,1.02
5050.00,1.02
5049.00,1.02
5048.00,1.02
5047.00,1.02
5046.00,1.03
5045.00,1.03
5044.00,1.03
5043.00,1.03
5042.00,1.03
5041.00,1.03
5040.00,1.03
5039.00,1.04
5038.00,1.04
5037.00,1.04
5036.00,1.04
5035.00,1.04
5034.00,1.05
5033.00,1.05
5032.00,1.05
5031.00,1.05
5030.00,1.05
5029.00,1.05
5028.00,1.05
5027.00,1.06
5026.00,1.06
5025.00,1.06
5024.00,1.06
5023.00,1.06
5022.00,1.06
5021.00,1.06
5020.00,1.06
5019.00,1.06
5018.00,1.06
5017.00,1.06
5016.00,1.07
5015.00,1.07
5014.00,1.07
5013.00,1.07
5012.00,1.07
5011.00,1.07
5010.00,1.07
5009.00,1.08
5008.00,1.08
5007.00,1.08
5006.00,1.08
5005.00,1.08
5004.00,1.08
5003.00,1.09
5002.00,1.09
5001.00,1.09
5000.00,1.09
4999.00,1.09
4998.00,1.09
4997.00,1.09
4996.00,1.10
4995.00,1.10
4994.00,1.10
4993.00,1.10
4992.00,1.10
4991.00,1.11
4990.00,1.11
4989.00,1.11
4988.00,1.11
4987.00,1.11
4986.00,1.11
4985.00,1.12
4984.00,1.12
4983.00,1.12
4982.00,1.12
4981.00,1.12
4980.00,1.12
4979.00,1.13
4978.00,1.13
4977.00,1.13
4976.00,1.13
4975.00,1.13
4974.00,1.14
4973.00,1.14
4972.00,1.14
4971.00,1.14
4970.00,1.14
4969.00,1.15
4968.00,1.15
4967.00,1.15
4966.00,1.15
4965.00,1.16
4964.00,1.16
4963.00,1.16
4962.00,1.16
4961.00,1.17
4960.00,1.17
4959.00,1.17
4958.00,1.17
4957.00,1.18
4956.00,1.18
4955.00,1.18
4954.00,1.18
4953.00,1.19
4952.00,1.19
4951.00,1.19
4950.00,1.19
4949.00,1.19
4948.00,1.19
4947.00,1.19
4946.00,1.20
4945.00,1.20
4944.00,1.20
4943.00,1.20
4942.00,1.20
4941.00,1.20
4940.00,1.20
4939.00,1.21
4938.00,1.21
4937.00,1.21
4936.00,1.21
4935.00,1.21
4934.00,1.21
4933.00,1.21
4932.00,1.22
4931.00,1.22
4930.00,1.22
4929.00,1.22
4928.00,1.23
4927.00,1.23
4926.00,1.23
4925.00,1.23
4924.00,1.24
4923.00,1.24
4922.00,1.24
4921.00,1.25
4920.00,1.25
4919.00,1.25
4918.00,1.26
4917.00,1.26
4916.00,1.26
4915.00,1.27
4914.00,1.27
4913.00,1.27
4912.00,1.27
4911.00,1.28
4910.00,1.28
4909.00,1.28
4908.00,1.28
4907.00,1.29
4906.00,1.29
4905.00,1.29
4904.00,1.29
4903.00,1.29
4902.00,1.30
4901.00,1.30
4900.00,1.30
4899.00,1.30
4898.00,1.30
4897.00,1.30
4896.00,1.30
4895.00,1.30
4894.00,1.30
4893.00,1.30
4892.00,1.30
4891.00,1.30
4890.00,1.30
4889.00,1.31
4888.00,1.31
4887.00,1.31
4886.00,1.31
4885.00,1.31
4884.00,1.31
4883.00,1.31
4882.00,1.31
4881.00,1.31
4880.00,1.31
4879.00,1.31
4878.00,1.31
4877.00,1.31
4876.00,1.32
4875.00,1.32
4874.00,1.32
4873.00,1.32
4872.00,1.32
4871.00,1.32
4870.00,1.32
4869.00,1.32
4868.00,1.32
4867.00,1.32
4866.00,1.33
4865.00,1.33
4864.00,1.33
4863.00,1.33
4862.00,1.33
4861.00,1.33
4860.00,1.33
4859.00,1.33
4858.00,1.33
4857.00,1.34
4856.00,1.34
4855.00,1.34
4854.00,1.34
4853.00,1.34
4852.00,1.34
4851.00,1.34
4850.00,1.35
4849.00,1.35
4848.00,1.35
4847.00,1.35
4846.00,1.35
4845.00,1.35
4844.00,1.35
4843.00,1.36
4842.00,1.36
4841.00,1.36
4840.00,1.36
4839.00,1.36
4838.00,1.36
4837.00,1.37
4836.00,1.37
4835.00,1.37
4834.00,1.37
4833.00,1.37
4832.00,1.37
4831.00,1.38
4830.00,1.38
4829.00,1.38
4828.00,1.38
4827.00,1.38
4826.00,1.38
4825.00,1.39
4824.00,1.39
4823.00,1.39
4822.00,1.39
4821.00,1.39
4820.00,1.39
4819.00,1.40
4818.00,1.40
4817.00,1.40
4816.00,1.40
4815.00,1.40
4814.00,1.41
4813.00,1.41
4812.00,1.41
4811.00,1.41
4810.00,1.41
4809.00,1.42
4808.00,1.42
4807.00,1.42
4806.00,1.42
4805.00,1.42
4804.00,1.43
4803.00,1.43
4802.00,1.43
4801.00,1.43
4800.00,1.44
4799.00,1.44
4798.00,1.44
4797.00,1.44
4796.00,1.45
4795.00,1.45
4794.00,1.45
4793.00,1.45
4792.00,1.46
4791.00,1.46
4790.00,1.46
4789.00,1.46
4788.00,1.47
4787.00,1.47
4786.00,1.47
4785.00,1.47
4784.00,1.47
4783.00,1.48
4782.00,1.48
4781.00,1.48
4780.00,1.48
4779.00,1.48
4778.00,1.48
4777.00,1.48
4776.00,1.49
4775.00,1.49
4774.00,1.49
4773.00,1.49
4772.00,1.49
4771.00,1.49
4770.00,1.49
4769.00,1.49
4768.00,1.49
4767.00,1.49
4766.00,1.49
4765.00,1.49
4764.00,1.49
4763.00,1.49
4762.00,1.49
4761.00,1.49
4760.00,1.49
4759.00,1.49
4758.00,1.49
4757.00,1.49
4756.00,1.49
4755.00,1.49
4754.00,1.49
4753.00,1.49
4752.00,1.49
4751.00,1.49
4750.00,1.49
4749.00,1.50
4748.00,1.50
4747.00,1.50
4746.00,1.50
4745.00,1.50
4744.00,1.50
4743.00,1.50
4742.00,1.51
4741.00,1.51
4740.00,1.51
4739.00,1.51
4738.00,1.52
4737.00,1.52
4736.00,1.52
4735.00,1.53
4734.00,1.53
4733.00,1.53
4732.00,1.54
4731.00,1.54
4730.00,1.54
4729.00,1.55
4728.00,1.55
4727.00,1.55
4726.00,1.55
4725.00,1.56
4724.00,1.56
4723.00,1.56
4722.00,1.56
4721.00,1.56
4720.00,1.57
4719.00,1.57
4718.00,1.57
4717.00,1.57
4716.00,1.57
4715.00,1.57
4714.00,1.57
4713.00,1.57
4712.00,1.57
4711.00,1.57
4710.00,1.57
4709.00,1.57
4708.00,1.57
4707.00,1.57
4706.00,1.57
4705.00,1.57
4704.00,1.57
4703.00,1.57
4702.00,1.57
4701.00,1.57
4700.00,1.58
4699.00,1.58
4698.00,1.58
4697.00,1.58
4696.00,1.58
4695.00,1.58
4694.00,1.58
4693.00,1.58
4692.00,1.59
4691.00,1.59
4690.00,1.59
4689.00,1.59
4688.00,1.59
4687.00,1.59
4686.00,1.60
4685.00,1.60
4684.00,1.60
4683.00,1.60
4682.00,1.60
4681.00,1.61
4680.00,1.61
4679.00,1.61
4678.00,1.61
4677.00,1.61
4676.00,1.62
4675.00,1.62
4674.00,1.62
4673.00,1.62
4672.00,1.62
4671.00,1.62
4670.00,1.63
4669.00,1.63
4668.00,1.63
4667.00,1.63
4666.00,1.63
4665.00,1.63
4664.00,1.63
4663.00,1.63
4662.00,1.64
4661.00,1.64
4660.00,1.64
4659.00,1.64
4658.00,1.64
4657.00,1.64
4656.00,1.64
4655.00,1.64
4654.00,1.64
4653.00,1.64
4652.00,1.64
4651.00,1.65
4650.00,1.65
4649.00,1.65
4648.00,1.65
4647.00,1.65
4646.00,1.65
4645.00,1.65
4644.00,1.65
4643.00,1.65
4642.00,1.65
4641.00,1.65
4640.00,1.65
4639.00,1.65
4638.00,1.65
4637.00,1.65
4636.00,1.65
4635.00,1.65
4634.00,1.65
4633.00,1.65
4632.00,1.65
4631.00,1.64
4630.00,1.64
4629.00,1.64
4628.00,1.64
4627.00,1.64
4626.00,1.64
4625.00,1.64
4624.00,1.64
4623.00,1.64
4622.00,1.64
4621.00,1.63
4620.00,1.63
4619.00,1.63
4618.00,1.63
4617.00,1.63
4616.00,1.63
4615.00,1.63
4614.00,1.63
4613.00,1.63
4612.00,1.63
4611.00,1.63
4610.00,1.63
4609.00,1.63
4608.00,1.63
4607.00,1.63
4606.00,1.63
4605.00,1.63
4604.00,1.63
4603.00,1.63
4602.00,1.63
4601.00,1.64
4600.00,1.64
4599.00,1.64
4598.00,1.64
4597.00,1.64
4596.00,1.64
4595.00,1.64
4594.00,1.64
4593.00,1.65
4592.00,1.65
4591.00,1.65
4590.00,1.65
4589.00,1.65
4588.00,1.65
4587.00,1.65
4586.00,1.65
4585.00,1.66
4584.00,1.66
4583.00,1.66
4582.00,1.66
4581.00,1.66
4580.00,1.66
4579.00,1.66
4578.00,1.66
4577.00,1.66
4576.00,1.66
4575.00,1.66
4574.00,1.66
4573.00,1.66
4572.00,1.66
4571.00,1.65
4570.00,1.65
4569.00,1.65
4568.00,1.65
4567.00,1.65
4566.00,1.65
4565.00,1.65
4564.00,1.65
4563.00,1.64
4562.00,1.64
4561.00,1.64
4560.00,1.64
4559.00,1.64
4558.00,1.63
4557.00,1.63
4556.00,1.63
4555.00,1.63
4554.00,1.62
4553.00,1.62
4552.00,1.62
4551.00,1.62
4550.00,1.62
4549.00,1.62
4548.00,1.61
4547.00,1.61
4546.00,1.61
4545.00,1.61
4544.00,1.61
4543.00,1.61
4542.00,1.61
4541.00,1.61
4540.00,1.62
4539.00,1.62
4538.00,1.62
4537.00,1.62
4536.00,1.62
4535.00,1.62
4534.00,1.62
4533.00,1.63
4532.00,1.63
4531.00,1.63
4530.00,1.63
4529.00,1.63
4528.00,1.63
4527.00,1.64
4526.00,1.64
4525.00,1.64
4524.00,1.64
4523.00,1.64
4522.00,1.64
4521.00,1.65
4520.00,1.65
4519.00,1.65
4518.00,1.65
4517.00,1.65
4516.00,1.65
4515.00,1.65
4514.00,1.65
4513.00,1.65
4512.00,1.64
4511.00,1.64
4510.00,1.64
4509.00,1.64
4508.00,1.64
4507.00,1.64
4506.00,1.64
4505.00,1.64
4504.00,1.63
4503.00,1.63
4502.00,1.63
4501.00,1.63
4500.00,1.63
4499.00,1.63
4498.00,1.63
4497.00,1.63
4496.00,1.63
4495.00,1.63
4494.00,1.62
4493.00,1.62
4492.00,1.62
4491.00,1.62
4490.00,1.62
4489.00,1.62
4488.00,1.62
4487.00,1.62
4486.00,1.62
4485.00,1.63
4484.00,1.63
4483.00,1.63
4482.00,1.63
4481.00,1.63
4480.00,1.63
4479.00,1.63
4478.00,1.63
4477.00,1.63
4476.00,1.63
4475.00,1.63
4474.00,1.63
4473.00,1.63
4472.00,1.63
4471.00,1.63
4470.00,1.63
4469.00,1.63
4468.00,1.63
4467.00,1.63
4466.00,1.63
4465.00,1.63
4464.00,1.63
4463.00,1.63
4462.00,1.63
4461.00,1.62
4460.00,1.62
4459.00,1.62
4458.00,1.62
4457.00,1.62
4456.00,1.61
4455.00,1.61
4454.00,1.61
4453.00,1.61
4452.00,1.60
4451.00,1.60
4450.00,1.60
4449.00,1.60
4448.00,1.60
4447.00,1.59
4446.00,1.59
4445.00,1.59
4444.00,1.58
4443.00,1.58
4442.00,1.58
4441.00,1.57
4440.00,1.57
4439.00,1.57
4438.00,1.56
4437.00,1.56
4436.00,1.56
4435.00,1.56
4434.00,1.55
4433.00,1.55
4432.00,1.55
4431.00,1.54
4430.00,1.54
4429.00,1.54
4428.00,1.53
4427.00,1.53
4426.00,1.53
4425.00,1.52
4424.00,1.52
4423.00,1.52
4422.00,1.52
4421.00,1.51
4420.00,1.51
4419.00,1.51
4418.00,1.51
4417.00,1.51
4416.00,1.51
4415.00,1.51
4414.00,1.50
4413.00,1.50
4412.00,1.50
4411.00,1.50
4410.00,1.50
4409.00,1.50
4408.00,1.50
4407.00,1.50
4406.00,1.50
4405.00,1.51
4404.00,1.51
4403.00,1.51
4402.00,1.51
4401.00,1.51
4400.00,1.51
4399.00,1.52
4398.00,1.52
4397.00,1.52
4396.00,1.52
4395.00,1.52
4394.00,1.53
4393.00,1.53
4392.00,1.53
4391.00,1.53
4390.00,1.53
4389.00,1.54
4388.00,1.54
4387.00,1.54
4386.00,1.54
4385.00,1.55
4384.00,1.55
4383.00,1.55
4382.00,1.55
4381.00,1.55
4380.00,1.55
4379.00,1.55
4378.00,1.55
4377.00,1.55
4376.00,1.55
4375.00,1.55
4374.00,1.55
4373.00,1.55
4372.00,1.55
4371.00,1.55
4370.00,1.55
4369.00,1.55
4368.00,1.55
4367.00,1.55
4366.00,1.54
4365.00,1.54
4364.00,1.54
4363.00,1.54
4362.00,1.53
4361.00,1.53
4360.00,1.53
4359.00,1.52
4358.00,1.52
4357.00,1.52
4356.00,1.52
4355.00,1.52
4354.00,1.51
4353.00,1.51
4352.00,1.51
4351.00,1.51
4350.00,1.51
4349.00,1.50
4348.00,1.50
4347.00,1.50
4346.00,1.50
4345.00,1.50
4344.00,1.50
4343.00,1.50
4342.00,1.50
4341.00,1.50
4340.00,1.50
4339.00,1.50
4338.00,1.50
4337.00,1.51
4336.00,1.51
4335.00,1.51
4334.00,1.51
4333.00,1.52
4332.00,1.52
4331.00,1.52
4330.00,1.52
4329.00,1.53
4328.00,1.53
4327.00,1.53
4326.00,1.54
4325.00,1.54
4324.00,1.54
4323.00,1.55
4322.00,1.55
4321.00,1.55
4320.00,1.56
4319.00,1.56
4318.00,1.57
4317.00,1.57
4316.00,1.57
4315.00,1.58
4314.00,1.58
4313.00,1.59
4312.00,1.59
4311.00,1.59
4310.00,1.60
4309.00,1.60
4308.00,1.60
4307.00,1.60
4306.00,1.61
4305.00,1.61
4304.00,1.61
4303.00,1.61
4302.00,1.62
4301.00,1.62
4300.00,1.62
4299.00,1.62
4298.00,1.62
4297.00,1.63
4296.00,1.63
4295.00,1.63
4294.00,1.63
4293.00,1.63
4292.00,1.63
4291.00,1.63
4290.00,1.63
4289.00,1.63
4288.00,1.63
4287.00,1.62
4286.00,1.62
4285.00,1.62
4284.00,1.62
4283.00,1.62
4282.00,1.62
4281.00,1.62
4280.00,1.62
4279.00,1.62
4278.00,1.61
4277.00,1.61
4276.00,1.61
4275.00,1.61
4274.00,1.61
4273.00,1.61
4272.00,1.61
4271.00,1.61
4270.00,1.61
4269.00,1.61
4268.00,1.60
4267.00,1.60
4266.00,1.60
4265.00,1.60
4264.00,1.60
4263.00,1.60
4262.00,1.60
4261.00,1.60
4260.00,1.60
4259.00,1.60
4258.00,1.60
4257.00,1.60
4256.00,1.60
4255.00,1.61
4254.00,1.61
4253.00,1.61
4252.00,1.61
4251.00,1.61
4250.00,1.61
4249.00,1.61
4248.00,1.61
4247.00,1.61
4246.00,1.60
4245.00,1.60
4244.00,1.60
4243.00,1.60
4242.00,1.60
4241.00,1.60
4240.00,1.59
4239.00,1.59
4238.00,1.59
4237.00,1.59
4236.00,1.59
4235.00,1.58
4234.00,1.58
4233.00,1.58
4232.00,1.58
4231.00,1.58
4230.00,1.58
4229.00,1.57
4228.00,1.57
4227.00,1.57
4226.00,1.57
4225.00,1.57
4224.00,1.57
4223.00,1.57
4222.00,1.57
4221.00,1.57
4220.00,1.57
4219.00,1.57
4218.00,1.57
4217.00,1.57
4216.00,1.57
4215.00,1.57
4214.00,1.57
4213.00,1.58
4212.00,1.58
4211.00,1.58
4210.00,1.59
4209.00,1.59
4208.00,1.60
4207.00,1.60
4206.00,1.60
4205.00,1.61
4204.00,1.61
4203.00,1.61
4202.00,1.61
4201.00,1.62
4200.00,1.62
4199.00,1.62
4198.00,1.62
4197.00,1.62
4196.00,1.62
4195.00,1.63
4194.00,1.63
4193.00,1.63
4192.00,1.63
4191.00,1.63
4190.00,1.63
4189.00,1.63
4188.00,1.62
4187.00,1.62
4186.00,1.62
4185.00,1.62
4184.00,1.62
4183.00,1.61
4182.00,1.61
4181.00,1.61
4180.00,1.60
4179.00,1.60
4178.00,1.60
4177.00,1.59
4176.00,1.59
4175.00,1.58
4174.00,1.58
4173.00,1.58
4172.00,1.57
4171.00,1.57
4170.00,1.57
4169.00,1.56
4168.00,1.56
4167.00,1.56
4166.00,1.55
4165.00,1.55
4164.00,1.55
4163.00,1.54
4162.00,1.54
4161.00,1.54
4160.00,1.53
4159.00,1.53
4158.00,1.53
4157.00,1.52
4156.00,1.52
4155.00,1.52
4154.00,1.52
4153.00,1.51
4152.00,1.51
4151.00,1.51
4150.00,1.51
4149.00,1.51
4148.00,1.51
4147.00,1.51
4146.00,1.51
4145.00,1.51
4144.00,1.51
4143.00,1.51
4142.00,1.50
4141.00,1.50
4140.00,1.50
4139.00,1.51
4138.00,1.51
4137.00,1.51
4136.00,1.51
4135.00,1.51
4134.00,1.51
4133.00,1.51
4132.00,1.52
4131.00,1.52
4130.00,1.52
4129.00,1.53
4128.00,1.53
4127.00,1.53
4126.00,1.54
4125.00,1.54
4124.00,1.55
4123.00,1.55
4122.00,1.56
4121.00,1.56
4120.00,1.57
4119.00,1.57
4118.00,1.57
4117.00,1.58
4116.00,1.58
4115.00,1.59
4114.00,1.59
4113.00,1.59
4112.00,1.59
4111.00,1.60
4110.00,1.60
4109.00,1.60
4108.00,1.60
4107.00,1.61
4106.00,1.61
4105.00,1.61
4104.00,1.61
4103.00,1.61
4102.00,1.61
4101.00,1.61
4100.00,1.61
4099.00,1.60
4098.00,1.60
4097.00,1.60
4096.00,1.60
4095.00,1.60
4094.00,1.59
4093.00,1.59
4092.00,1.59
4091.00,1.58
4090.00,1.58
4089.00,1.58
4088.00,1.57
4087.00,1.57
4086.00,1.57
4085.00,1.57
4084.00,1.56
4083.00,1.56
4082.00,1.56
4081.00,1.56
4080.00,1.56
4079.00,1.55
4078.00,1.55
4077.00,1.55
4076.00,1.55
4075.00,1.55
4074.00,1.56
4073.00,1.56
4072.00,1.56
4071.00,1.56
4070.00,1.56
4069.00,1.56
4068.00,1.56
4067.00,1.56
4066.00,1.56
4065.00,1.57
4064.00,1.57
4063.00,1.57
4062.00,1.57
4061.00,1.57
4060.00,1.58
4059.00,1.58
4058.00,1.58
4057.00,1.58
4056.00,1.58
4055.00,1.58
4054.00,1.59
4053.00,1.59
4052.00,1.59
4051.00,1.59
4050.00,1.59
4049.00,1.58
4048.00,1.58
4047.00,1.58
4046.00,1.57
4045.00,1.57
4044.00,1.56
4043.00,1.56
4042.00,1.55
4041.00,1.55
4040.00,1.54
4039.00,1.54
4038.00,1.53
4037.00,1.53
4036.00,1.52
4035.00,1.52
4034.00,1.51
4033.00,1.51
4032.00,1.50
4031.00,1.50
4030.00,1.49
4029.00,1.49
4028.00,1.48
4027.00,1.48
4026.00,1.47
4025.00,1.47
4024.00,1.47
4023.00,1.46
4022.00,1.46
4021.00,1.47
4020.00,1.47
4019.00,1.47
4018.00,1.48
4017.00,1.49
4016.00,1.49
4015.00,1.50
4014.00,1.51
4013.00,1.52
4012.00,1.54
4011.00,1.55
4010.00,1.56
4009.00,1.57
4008.00,1.59
4007.00,1.60
4006.00,1.62
4005.00,1.64
4004.00,1.65
4003.00,1.67
4002.00,1.69
4001.00,1.71
4000.00,1.73
