创建为新数据集,样品 828 用户 Administrator 日期 星期一, 七月 29 2019
cm-1,%T
10000.00,1.88
9999.00,1.87
9998.00,1.85
9997.00,1.83
9996.00,1.81
9995.00,1.79
9994.00,1.78
9993.00,1.76
9992.00,1.74
9991.00,1.73
9990.00,1.71
9989.00,1.70
9988.00,1.68
9987.00,1.67
9986.00,1.66
9985.00,1.64
9984.00,1.63
9983.00,1.62
9982.00,1.61
9981.00,1.61
9980.00,1.60
9979.00,1.59
9978.00,1.58
9977.00,1.58
9976.00,1.57
9975.00,1.57
9974.00,1.57
9973.00,1.57
9972.00,1.57
9971.00,1.57
9970.00,1.57
9969.00,1.57
9968.00,1.57
9967.00,1.58
9966.00,1.58
9965.00,1.58
9964.00,1.59
9963.00,1.59
9962.00,1.59
9961.00,1.60
9960.00,1.60
9959.00,1.60
9958.00,1.60
9957.00,1.60
9956.00,1.60
9955.00,1.60
9954.00,1.60
9953.00,1.60
9952.00,1.60
9951.00,1.60
9950.00,1.60
9949.00,1.60
9948.00,1.60
9947.00,1.59
9946.00,1.59
9945.00,1.59
9944.00,1.59
9943.00,1.59
9942.00,1.58
9941.00,1.58
9940.00,1.58
9939.00,1.58
9938.00,1.58
9937.00,1.58
9936.00,1.58
9935.00,1.58
9934.00,1.58
9933.00,1.58
9932.00,1.58
9931.00,1.59
9930.00,1.59
9929.00,1.59
9928.00,1.59
9927.00,1.59
9926.00,1.60
9925.00,1.60
9924.00,1.60
9923.00,1.60
9922.00,1.60
9921.00,1.60
9920.00,1.60
9919.00,1.60
9918.00,1.60
9917.00,1.60
9916.00,1.60
9915.00,1.59
9914.00,1.59
9913.00,1.58
9912.00,1.58
9911.00,1.57
9910.00,1.57
9909.00,1.56
9908.00,1.56
9907.00,1.56
9906.00,1.55
9905.00,1.55
9904.00,1.54
9903.00,1.54
9902.00,1.53
9901.00,1.53
9900.00,1.53
9899.00,1.52
9898.00,1.52
9897.00,1.52
9896.00,1.52
9895.00,1.51
9894.00,1.51
9893.00,1.51
9892.00,1.51
9891.00,1.51
9890.00,1.51
9889.00,1.51
9888.00,1.52
9887.00,1.52
9886.00,1.52
9885.00,1.52
9884.00,1.52
9883.00,1.52
9882.00,1.52
9881.00,1.52
9880.00,1.52
9879.00,1.52
9878.00,1.52
9877.00,1.51
9876.00,1.51
9875.00,1.51
9874.00,1.50
9873.00,1.50
9872.00,1.50
9871.00,1.49
9870.00,1.49
9869.00,1.48
9868.00,1.47
9867.00,1.47
9866.00,1.46
9865.00,1.45
9864.00,1.45
9863.00,1.44
9862.00,1.43
9861.00,1.43
9860.00,1.42
9859.00,1.42
9858.00,1.41
9857.00,1.41
9856.00,1.40
9855.00,1.40
9854.00,1.39
9853.00,1.39
9852.00,1.38
9851.00,1.38
9850.00,1.38
9849.00,1.38
9848.00,1.38
9847.00,1.38
9846.00,1.38
9845.00,1.38
9844.00,1.38
9843.00,1.38
9842.00,1.38
9841.00,1.38
9840.00,1.38
9839.00,1.39
9838.00,1.39
9837.00,1.39
9836.00,1.39
9835.00,1.40
9834.00,1.40
9833.00,1.40
9832.00,1.41
9831.00,1.41
9830.00,1.41
9829.00,1.42
9828.00,1.42
9827.00,1.42
9826.00,1.42
9825.00,1.42
9824.00,1.42
9823.00,1.42
9822.00,1.42
9821.00,1.42
9820.00,1.42
9819.00,1.42
9818.00,1.42
9817.00,1.41
9816.00,1.41
9815.00,1.41
9814.00,1.40
9813.00,1.40
9812.00,1.39
9811.00,1.39
9810.00,1.38
9809.00,1.38
9808.00,1.37
9807.00,1.36
9806.00,1.35
9805.00,1.34
9804.00,1.33
9803.00,1.33
9802.00,1.32
9801.00,1.31
9800.00,1.30
9799.00,1.29
9798.00,1.29
9797.00,1.28
9796.00,1.27
9795.00,1.27
9794.00,1.26
9793.00,1.26
9792.00,1.26
9791.00,1.26
9790.00,1.26
9789.00,1.26
9788.00,1.26
9787.00,1.26
9786.00,1.26
9785.00,1.27
9784.00,1.27
9783.00,1.28
9782.00,1.28
9781.00,1.29
9780.00,1.30
9779.00,1.31
9778.00,1.32
9777.00,1.33
9776.00,1.34
9775.00,1.35
9774.00,1.36
9773.00,1.37
9772.00,1.38
9771.00,1.39
9770.00,1.40
9769.00,1.40
9768.00,1.41
9767.00,1.41
9766.00,1.42
9765.00,1.42
9764.00,1.42
9763.00,1.42
9762.00,1.42
9761.00,1.42
9760.00,1.42
9759.00,1.42
9758.00,1.41
9757.00,1.41
9756.00,1.41
9755.00,1.41
9754.00,1.41
9753.00,1.41
9752.00,1.41
9751.00,1.41
9750.00,1.41
9749.00,1.41
9748.00,1.41
9747.00,1.42
9746.00,1.42
9745.00,1.43
9744.00,1.44
9743.00,1.45
9742.00,1.46
9741.00,1.47
9740.00,1.48
9739.00,1.50
9738.00,1.51
9737.00,1.53
9736.00,1.54
9735.00,1.56
9734.00,1.57
9733.00,1.58
9732.00,1.60
9731.00,1.61
9730.00,1.62
9729.00,1.63
9728.00,1.63
9727.00,1.64
9726.00,1.64
9725.00,1.64
9724.00,1.65
9723.00,1.64
9722.00,1.64
9721.00,1.63
9720.00,1.63
9719.00,1.62
9718.00,1.61
9717.00,1.59
9716.00,1.58
9715.00,1.56
9714.00,1.54
9713.00,1.53
9712.00,1.51
9711.00,1.49
9710.00,1.48
9709.00,1.46
9708.00,1.44
9707.00,1.43
9706.00,1.41
9705.00,1.39
9704.00,1.38
9703.00,1.36
9702.00,1.35
9701.00,1.34
9700.00,1.33
9699.00,1.32
9698.00,1.31
9697.00,1.30
9696.00,1.30
9695.00,1.30
9694.00,1.29
9693.00,1.29
9692.00,1.29
9691.00,1.30
9690.00,1.30
9689.00,1.31
9688.00,1.31
9687.00,1.32
9686.00,1.33
9685.00,1.33
9684.00,1.34
9683.00,1.35
9682.00,1.35
9681.00,1.36
9680.00,1.37
9679.00,1.38
9678.00,1.39
9677.00,1.40
9676.00,1.40
9675.00,1.41
9674.00,1.42
9673.00,1.43
9672.00,1.43
9671.00,1.44
9670.00,1.44
9669.00,1.45
9668.00,1.45
9667.00,1.45
9666.00,1.45
9665.00,1.46
9664.00,1.46
9663.00,1.46
9662.00,1.46
9661.00,1.46
9660.00,1.46
9659.00,1.45
9658.00,1.45
9657.00,1.45
9656.00,1.45
9655.00,1.44
9654.00,1.44
9653.00,1.44
9652.00,1.44
9651.00,1.43
9650.00,1.43
9649.00,1.43
9648.00,1.43
9647.00,1.43
9646.00,1.43
9645.00,1.44
9644.00,1.44
9643.00,1.44
9642.00,1.44
9641.00,1.44
9640.00,1.45
9639.00,1.45
9638.00,1.45
9637.00,1.45
9636.00,1.45
9635.00,1.46
9634.00,1.46
9633.00,1.46
9632.00,1.47
9631.00,1.47
9630.00,1.48
9629.00,1.48
9628.00,1.48
9627.00,1.49
9626.00,1.49
9625.00,1.49
9624.00,1.49
9623.00,1.50
9622.00,1.49
9621.00,1.49
9620.00,1.49
9619.00,1.49
9618.00,1.49
9617.00,1.48
9616.00,1.48
9615.00,1.47
9614.00,1.47
9613.00,1.46
9612.00,1.46
9611.00,1.45
9610.00,1.45
9609.00,1.44
9608.00,1.43
9607.00,1.43
9606.00,1.42
9605.00,1.41
9604.00,1.40
9603.00,1.39
9602.00,1.38
9601.00,1.37
9600.00,1.36
9599.00,1.35
9598.00,1.34
9597.00,1.33
9596.00,1.32
9595.00,1.32
9594.00,1.31
9593.00,1.30
9592.00,1.30
9591.00,1.29
9590.00,1.29
9589.00,1.29
9588.00,1.28
9587.00,1.28
9586.00,1.28
9585.00,1.28
9584.00,1.28
9583.00,1.28
9582.00,1.28
9581.00,1.29
9580.00,1.29
9579.00,1.30
9578.00,1.30
9577.00,1.31
9576.00,1.32
9575.00,1.33
9574.00,1.35
9573.00,1.36
9572.00,1.37
9571.00,1.38
9570.00,1.39
9569.00,1.41
9568.00,1.42
9567.00,1.43
9566.00,1.44
9565.00,1.45
9564.00,1.46
9563.00,1.47
9562.00,1.47
9561.00,1.48
9560.00,1.49
9559.00,1.50
9558.00,1.51
9557.00,1.51
9556.00,1.52
9555.00,1.52
9554.00,1.53
9553.00,1.53
9552.00,1.53
9551.00,1.53
9550.00,1.53
9549.00,1.53
9548.00,1.53
9547.00,1.52
9546.00,1.52
9545.00,1.52
9544.00,1.52
9543.00,1.52
9542.00,1.52
9541.00,1.52
9540.00,1.52
9539.00,1.52
9538.00,1.52
9537.00,1.52
9536.00,1.52
9535.00,1.52
9534.00,1.52
9533.00,1.52
9532.00,1.52
9531.00,1.52
9530.00,1.52
9529.00,1.52
9528.00,1.52
9527.00,1.52
9526.00,1.52
9525.00,1.52
9524.00,1.52
9523.00,1.52
9522.00,1.52
9521.00,1.52
9520.00,1.52
9519.00,1.51
9518.00,1.51
9517.00,1.51
9516.00,1.50
9515.00,1.50
9514.00,1.49
9513.00,1.49
9512.00,1.48
9511.00,1.48
9510.00,1.47
9509.00,1.47
9508.00,1.46
9507.00,1.46
9506.00,1.46
9505.00,1.46
9504.00,1.45
9503.00,1.45
9502.00,1.45
9501.00,1.45
9500.00,1.44
9499.00,1.44
9498.00,1.44
9497.00,1.44
9496.00,1.44
9495.00,1.44
9494.00,1.44
9493.00,1.44
9492.00,1.44
9491.00,1.45
9490.00,1.45
9489.00,1.45
9488.00,1.46
9487.00,1.46
9486.00,1.46
9485.00,1.47
9484.00,1.47
9483.00,1.47
9482.00,1.48
9481.00,1.48
9480.00,1.48
9479.00,1.48
9478.00,1.49
9477.00,1.49
9476.00,1.49
9475.00,1.49
9474.00,1.50
9473.00,1.50
9472.00,1.50
9471.00,1.51
9470.00,1.51
9469.00,1.52
9468.00,1.52
9467.00,1.53
9466.00,1.53
9465.00,1.54
9464.00,1.54
9463.00,1.55
9462.00,1.55
9461.00,1.55
9460.00,1.56
9459.00,1.56
9458.00,1.56
9457.00,1.57
9456.00,1.57
9455.00,1.57
9454.00,1.57
9453.00,1.57
9452.00,1.57
9451.00,1.57
9450.00,1.57
9449.00,1.56
9448.00,1.56
9447.00,1.55
9446.00,1.55
9445.00,1.54
9444.00,1.53
9443.00,1.53
9442.00,1.52
9441.00,1.51
9440.00,1.50
9439.00,1.49
9438.00,1.48
9437.00,1.47
9436.00,1.46
9435.00,1.45
9434.00,1.44
9433.00,1.43
9432.00,1.42
9431.00,1.41
9430.00,1.40
9429.00,1.40
9428.00,1.39
9427.00,1.38
9426.00,1.37
9425.00,1.37
9424.00,1.36
9423.00,1.36
9422.00,1.36
9421.00,1.35
9420.00,1.35
9419.00,1.35
9418.00,1.34
9417.00,1.34
9416.00,1.34
9415.00,1.33
9414.00,1.33
9413.00,1.33
9412.00,1.32
9411.00,1.32
9410.00,1.32
9409.00,1.32
9408.00,1.31
9407.00,1.31
9406.00,1.31
9405.00,1.31
9404.00,1.30
9403.00,1.30
9402.00,1.30
9401.00,1.30
9400.00,1.30
9399.00,1.30
9398.00,1.30
9397.00,1.30
9396.00,1.31
9395.00,1.31
9394.00,1.31
9393.00,1.31
9392.00,1.32
9391.00,1.32
9390.00,1.32
9389.00,1.33
9388.00,1.34
9387.00,1.34
9386.00,1.35
9385.00,1.36
9384.00,1.36
9383.00,1.37
9382.00,1.38
9381.00,1.39
9380.00,1.40
9379.00,1.41
9378.00,1.41
9377.00,1.42
9376.00,1.43
9375.00,1.43
9374.00,1.43
9373.00,1.44
9372.00,1.44
9371.00,1.45
9370.00,1.45
9369.00,1.45
9368.00,1.46
9367.00,1.46
9366.00,1.47
9365.00,1.47
9364.00,1.47
9363.00,1.48
9362.00,1.48
9361.00,1.48
9360.00,1.48
9359.00,1.48
9358.00,1.48
9357.00,1.48
9356.00,1.48
9355.00,1.47
9354.00,1.47
9353.00,1.47
9352.00,1.47
9351.00,1.47
9350.00,1.47
9349.00,1.47
9348.00,1.48
9347.00,1.48
9346.00,1.48
9345.00,1.48
9344.00,1.48
9343.00,1.48
9342.00,1.48
9341.00,1.48
9340.00,1.48
9339.00,1.48
9338.00,1.48
9337.00,1.48
9336.00,1.48
9335.00,1.48
9334.00,1.48
9333.00,1.48
9332.00,1.48
9331.00,1.48
9330.00,1.48
9329.00,1.48
9328.00,1.49
9327.00,1.49
9326.00,1.49
9325.00,1.49
9324.00,1.48
9323.00,1.48
9322.00,1.48
9321.00,1.49
9320.00,1.49
9319.00,1.48
9318.00,1.48
9317.00,1.48
9316.00,1.48
9315.00,1.48
9314.00,1.48
9313.00,1.48
9312.00,1.48
9311.00,1.48
9310.00,1.48
9309.00,1.47
9308.00,1.47
9307.00,1.47
9306.00,1.47
9305.00,1.47
9304.00,1.47
9303.00,1.48
9302.00,1.48
9301.00,1.48
9300.00,1.48
9299.00,1.48
9298.00,1.48
9297.00,1.48
9296.00,1.48
9295.00,1.48
9294.00,1.48
9293.00,1.48
9292.00,1.48
9291.00,1.48
9290.00,1.48
9289.00,1.48
9288.00,1.48
9287.00,1.49
9286.00,1.49
9285.00,1.49
9284.00,1.50
9283.00,1.50
9282.00,1.50
9281.00,1.51
9280.00,1.51
9279.00,1.51
9278.00,1.51
9277.00,1.51
9276.00,1.51
9275.00,1.51
9274.00,1.51
9273.00,1.52
9272.00,1.52
9271.00,1.52
9270.00,1.52
9269.00,1.52
9268.00,1.52
9267.00,1.53
9266.00,1.53
9265.00,1.53
9264.00,1.53
9263.00,1.53
9262.00,1.53
9261.00,1.53
9260.00,1.53
9259.00,1.53
9258.00,1.53
9257.00,1.53
9256.00,1.53
9255.00,1.53
9254.00,1.53
9253.00,1.53
9252.00,1.53
9251.00,1.53
9250.00,1.53
9249.00,1.53
9248.00,1.54
9247.00,1.54
9246.00,1.54
9245.00,1.54
9244.00,1.54
9243.00,1.54
9242.00,1.54
9241.00,1.54
9240.00,1.54
9239.00,1.54
9238.00,1.54
9237.00,1.54
9236.00,1.54
9235.00,1.54
9234.00,1.54
9233.00,1.54
9232.00,1.54
9231.00,1.54
9230.00,1.54
9229.00,1.54
9228.00,1.54
9227.00,1.54
9226.00,1.54
9225.00,1.54
9224.00,1.54
9223.00,1.54
9222.00,1.54
9221.00,1.54
9220.00,1.54
9219.00,1.54
9218.00,1.54
9217.00,1.53
9216.00,1.53
9215.00,1.53
9214.00,1.53
9213.00,1.52
9212.00,1.52
9211.00,1.52
9210.00,1.52
9209.00,1.52
9208.00,1.51
9207.00,1.51
9206.00,1.51
9205.00,1.51
9204.00,1.50
9203.00,1.50
9202.00,1.50
9201.00,1.49
9200.00,1.49
9199.00,1.49
9198.00,1.48
9197.00,1.48
9196.00,1.48
9195.00,1.48
9194.00,1.48
9193.00,1.48
9192.00,1.48
9191.00,1.49
9190.00,1.49
9189.00,1.49
9188.00,1.50
9187.00,1.50
9186.00,1.51
9185.00,1.51
9184.00,1.52
9183.00,1.52
9182.00,1.53
9181.00,1.53
9180.00,1.54
9179.00,1.54
9178.00,1.55
9177.00,1.56
9176.00,1.56
9175.00,1.57
9174.00,1.57
9173.00,1.58
9172.00,1.58
9171.00,1.59
9170.00,1.59
9169.00,1.60
9168.00,1.60
9167.00,1.60
9166.00,1.60
9165.00,1.61
9164.00,1.61
9163.00,1.61
9162.00,1.60
9161.00,1.60
9160.00,1.60
9159.00,1.60
9158.00,1.60
9157.00,1.60
9156.00,1.60
9155.00,1.59
9154.00,1.59
9153.00,1.59
9152.00,1.58
9151.00,1.58
9150.00,1.58
9149.00,1.57
9148.00,1.57
9147.00,1.56
9146.00,1.56
9145.00,1.55
9144.00,1.55
9143.00,1.54
9142.00,1.54
9141.00,1.53
9140.00,1.53
9139.00,1.52
9138.00,1.52
9137.00,1.51
9136.00,1.50
9135.00,1.50
9134.00,1.49
9133.00,1.48
9132.00,1.47
9131.00,1.47
9130.00,1.46
9129.00,1.45
9128.00,1.45
9127.00,1.44
9126.00,1.44
9125.00,1.44
9124.00,1.44
9123.00,1.43
9122.00,1.43
9121.00,1.43
9120.00,1.43
9119.00,1.43
9118.00,1.43
9117.00,1.42
9116.00,1.42
9115.00,1.42
9114.00,1.42
9113.00,1.41
9112.00,1.41
9111.00,1.41
9110.00,1.41
9109.00,1.41
9108.00,1.41
9107.00,1.41
9106.00,1.42
9105.00,1.42
9104.00,1.42
9103.00,1.43
9102.00,1.43
9101.00,1.43
9100.00,1.43
9099.00,1.44
9098.00,1.44
9097.00,1.44
9096.00,1.44
9095.00,1.44
9094.00,1.44
9093.00,1.45
9092.00,1.45
9091.00,1.46
9090.00,1.46
9089.00,1.47
9088.00,1.48
9087.00,1.49
9086.00,1.49
9085.00,1.50
9084.00,1.50
9083.00,1.51
9082.00,1.51
9081.00,1.52
9080.00,1.52
9079.00,1.52
9078.00,1.52
9077.00,1.53
9076.00,1.53
9075.00,1.53
9074.00,1.53
9073.00,1.53
9072.00,1.53
9071.00,1.53
9070.00,1.53
9069.00,1.53
9068.00,1.53
9067.00,1.53
9066.00,1.53
9065.00,1.52
9064.00,1.52
9063.00,1.52
9062.00,1.51
9061.00,1.50
9060.00,1.50
9059.00,1.50
9058.00,1.49
9057.00,1.49
9056.00,1.49
9055.00,1.48
9054.00,1.48
9053.00,1.48
9052.00,1.48
9051.00,1.48
9050.00,1.48
9049.00,1.48
9048.00,1.48
9047.00,1.48
9046.00,1.48
9045.00,1.48
9044.00,1.48
9043.00,1.48
9042.00,1.48
9041.00,1.47
9040.00,1.47
9039.00,1.47
9038.00,1.47
9037.00,1.48
9036.00,1.48
9035.00,1.48
9034.00,1.48
9033.00,1.48
9032.00,1.48
9031.00,1.48
9030.00,1.49
9029.00,1.49
9028.00,1.48
9027.00,1.48
9026.00,1.48
9025.00,1.48
9024.00,1.48
9023.00,1.47
9022.00,1.47
9021.00,1.47
9020.00,1.47
9019.00,1.47
9018.00,1.47
9017.00,1.47
9016.00,1.47
9015.00,1.47
9014.00,1.47
9013.00,1.47
9012.00,1.47
9011.00,1.47
9010.00,1.47
9009.00,1.47
9008.00,1.47
9007.00,1.47
9006.00,1.47
9005.00,1.48
9004.00,1.48
9003.00,1.48
9002.00,1.48
9001.00,1.49
9000.00,1.49
8999.00,1.50
8998.00,1.50
8997.00,1.51
8996.00,1.51
8995.00,1.52
8994.00,1.52
8993.00,1.53
8992.00,1.53
8991.00,1.54
8990.00,1.54
8989.00,1.55
8988.00,1.55
8987.00,1.55
8986.00,1.55
8985.00,1.56
8984.00,1.56
8983.00,1.56
8982.00,1.56
8981.00,1.56
8980.00,1.56
8979.00,1.56
8978.00,1.56
8977.00,1.56
8976.00,1.56
8975.00,1.56
8974.00,1.56
8973.00,1.57
8972.00,1.57
8971.00,1.57
8970.00,1.57
8969.00,1.57
8968.00,1.57
8967.00,1.57
8966.00,1.57
8965.00,1.58
8964.00,1.58
8963.00,1.58
8962.00,1.59
8961.00,1.59
8960.00,1.60
8959.00,1.60
8958.00,1.61
8957.00,1.61
8956.00,1.62
8955.00,1.63
8954.00,1.63
8953.00,1.64
8952.00,1.65
8951.00,1.65
8950.00,1.66
8949.00,1.67
8948.00,1.67
8947.00,1.67
8946.00,1.67
8945.00,1.68
8944.00,1.68
8943.00,1.68
8942.00,1.68
8941.00,1.67
8940.00,1.67
8939.00,1.67
8938.00,1.67
8937.00,1.66
8936.00,1.66
8935.00,1.65
8934.00,1.65
8933.00,1.64
8932.00,1.64
8931.00,1.63
8930.00,1.63
8929.00,1.62
8928.00,1.61
8927.00,1.61
8926.00,1.60
8925.00,1.59
8924.00,1.58
8923.00,1.58
8922.00,1.57
8921.00,1.57
8920.00,1.56
8919.00,1.56
8918.00,1.56
8917.00,1.56
8916.00,1.56
8915.00,1.56
8914.00,1.56
8913.00,1.56
8912.00,1.56
8911.00,1.57
8910.00,1.57
8909.00,1.57
8908.00,1.58
8907.00,1.58
8906.00,1.58
8905.00,1.59
8904.00,1.59
8903.00,1.59
8902.00,1.59
8901.00,1.60
8900.00,1.60
8899.00,1.60
8898.00,1.60
8897.00,1.60
8896.00,1.60
8895.00,1.60
8894.00,1.59
8893.00,1.59
8892.00,1.59
8891.00,1.58
8890.00,1.57
8889.00,1.57
8888.00,1.56
8887.00,1.55
8886.00,1.54
8885.00,1.53
8884.00,1.52
8883.00,1.51
8882.00,1.50
8881.00,1.49
8880.00,1.48
8879.00,1.47
8878.00,1.47
8877.00,1.46
8876.00,1.46
8875.00,1.45
8874.00,1.45
8873.00,1.45
8872.00,1.44
8871.00,1.44
8870.00,1.44
8869.00,1.44
8868.00,1.44
8867.00,1.45
8866.00,1.45
8865.00,1.45
8864.00,1.46
8863.00,1.46
8862.00,1.47
8861.00,1.47
8860.00,1.48
8859.00,1.48
8858.00,1.49
8857.00,1.49
8856.00,1.50
8855.00,1.50
8854.00,1.51
8853.00,1.51
8852.00,1.51
8851.00,1.51
8850.00,1.51
8849.00,1.51
8848.00,1.51
8847.00,1.50
8846.00,1.50
8845.00,1.50
8844.00,1.50
8843.00,1.50
8842.00,1.49
8841.00,1.49
8840.00,1.49
8839.00,1.48
8838.00,1.48
8837.00,1.47
8836.00,1.46
8835.00,1.46
8834.00,1.45
8833.00,1.44
8832.00,1.44
8831.00,1.43
8830.00,1.43
8829.00,1.42
8828.00,1.42
8827.00,1.42
8826.00,1.41
8825.00,1.41
8824.00,1.41
8823.00,1.41
8822.00,1.40
8821.00,1.40
8820.00,1.40
8819.00,1.40
8818.00,1.39
8817.00,1.39
8816.00,1.39
8815.00,1.39
8814.00,1.39
8813.00,1.39
8812.00,1.40
8811.00,1.40
8810.00,1.41
8809.00,1.42
8808.00,1.43
8807.00,1.43
8806.00,1.44
8805.00,1.45
8804.00,1.46
8803.00,1.47
8802.00,1.49
8801.00,1.50
8800.00,1.51
8799.00,1.52
8798.00,1.53
8797.00,1.54
8796.00,1.55
8795.00,1.57
8794.00,1.58
8793.00,1.59
8792.00,1.60
8791.00,1.61
8790.00,1.62
8789.00,1.63
8788.00,1.64
8787.00,1.65
8786.00,1.65
8785.00,1.65
8784.00,1.66
8783.00,1.66
8782.00,1.66
8781.00,1.66
8780.00,1.66
8779.00,1.66
8778.00,1.66
8777.00,1.65
8776.00,1.65
8775.00,1.65
8774.00,1.64
8773.00,1.64
8772.00,1.63
8771.00,1.63
8770.00,1.63
8769.00,1.62
8768.00,1.62
8767.00,1.62
8766.00,1.62
8765.00,1.62
8764.00,1.62
8763.00,1.62
8762.00,1.62
8761.00,1.62
8760.00,1.62
8759.00,1.62
8758.00,1.62
8757.00,1.62
8756.00,1.62
8755.00,1.62
8754.00,1.62
8753.00,1.62
8752.00,1.62
8751.00,1.62
8750.00,1.62
8749.00,1.62
8748.00,1.62
8747.00,1.62
8746.00,1.62
8745.00,1.62
8744.00,1.62
8743.00,1.62
8742.00,1.61
8741.00,1.61
8740.00,1.61
8739.00,1.60
8738.00,1.60
8737.00,1.60
8736.00,1.59
8735.00,1.59
8734.00,1.58
8733.00,1.58
8732.00,1.58
8731.00,1.57
8730.00,1.57
8729.00,1.57
8728.00,1.56
8727.00,1.56
8726.00,1.56
8725.00,1.55
8724.00,1.55
8723.00,1.55
8722.00,1.55
8721.00,1.55
8720.00,1.55
8719.00,1.55
8718.00,1.54
8717.00,1.54
8716.00,1.54
8715.00,1.54
8714.00,1.53
8713.00,1.53
8712.00,1.53
8711.00,1.52
8710.00,1.52
8709.00,1.52
8708.00,1.51
8707.00,1.51
8706.00,1.51
8705.00,1.51
8704.00,1.50
8703.00,1.50
8702.00,1.50
8701.00,1.49
8700.00,1.49
8699.00,1.49
8698.00,1.48
8697.00,1.48
8696.00,1.47
8695.00,1.47
8694.00,1.47
8693.00,1.47
8692.00,1.46
8691.00,1.46
8690.00,1.46
8689.00,1.46
8688.00,1.46
8687.00,1.46
8686.00,1.46
8685.00,1.46
8684.00,1.46
8683.00,1.46
8682.00,1.46
8681.00,1.46
8680.00,1.46
8679.00,1.46
8678.00,1.46
8677.00,1.46
8676.00,1.46
8675.00,1.47
8674.00,1.47
8673.00,1.48
8672.00,1.48
8671.00,1.49
8670.00,1.49
8669.00,1.50
8668.00,1.51
8667.00,1.51
8666.00,1.52
8665.00,1.53
8664.00,1.54
8663.00,1.55
8662.00,1.56
8661.00,1.57
8660.00,1.58
8659.00,1.59
8658.00,1.60
8657.00,1.61
8656.00,1.61
8655.00,1.62
8654.00,1.63
8653.00,1.64
8652.00,1.65
8651.00,1.65
8650.00,1.66
8649.00,1.66
8648.00,1.66
8647.00,1.66
8646.00,1.67
8645.00,1.67
8644.00,1.66
8643.00,1.66
8642.00,1.66
8641.00,1.66
8640.00,1.65
8639.00,1.65
8638.00,1.64
8637.00,1.63
8636.00,1.63
8635.00,1.62
8634.00,1.61
8633.00,1.60
8632.00,1.59
8631.00,1.59
8630.00,1.58
8629.00,1.57
8628.00,1.57
8627.00,1.56
8626.00,1.55
8625.00,1.55
8624.00,1.55
8623.00,1.54
8622.00,1.54
8621.00,1.54
8620.00,1.53
8619.00,1.53
8618.00,1.53
8617.00,1.53
8616.00,1.53
8615.00,1.54
8614.00,1.54
8613.00,1.54
8612.00,1.54
8611.00,1.55
8610.00,1.55
8609.00,1.56
8608.00,1.56
8607.00,1.57
8606.00,1.58
8605.00,1.58
8604.00,1.59
8603.00,1.59
8602.00,1.60
8601.00,1.60
8600.00,1.61
8599.00,1.61
8598.00,1.62
8597.00,1.62
8596.00,1.63
8595.00,1.63
8594.00,1.64
8593.00,1.64
8592.00,1.65
8591.00,1.65
8590.00,1.65
8589.00,1.65
8588.00,1.66
8587.00,1.66
8586.00,1.66
8585.00,1.66
8584.00,1.66
8583.00,1.65
8582.00,1.65
8581.00,1.65
8580.00,1.64
8579.00,1.64
8578.00,1.63
8577.00,1.63
8576.00,1.62
8575.00,1.62
8574.00,1.61
8573.00,1.61
8572.00,1.60
8571.00,1.60
8570.00,1.59
8569.00,1.59
8568.00,1.59
8567.00,1.58
8566.00,1.58
8565.00,1.57
8564.00,1.57
8563.00,1.57
8562.00,1.56
8561.00,1.56
8560.00,1.56
8559.00,1.56
8558.00,1.56
8557.00,1.56
8556.00,1.57
8555.00,1.57
8554.00,1.57
8553.00,1.57
8552.00,1.58
8551.00,1.58
8550.00,1.58
8549.00,1.58
8548.00,1.59
8547.00,1.59
8546.00,1.59
8545.00,1.59
8544.00,1.59
8543.00,1.59
8542.00,1.60
8541.00,1.60
8540.00,1.60
8539.00,1.60
8538.00,1.60
8537.00,1.60
8536.00,1.60
8535.00,1.60
8534.00,1.60
8533.00,1.60
8532.00,1.60
8531.00,1.59
8530.00,1.59
8529.00,1.59
8528.00,1.58
8527.00,1.58
8526.00,1.57
8525.00,1.57
8524.00,1.57
8523.00,1.57
8522.00,1.56
8521.00,1.56
8520.00,1.56
8519.00,1.55
8518.00,1.55
8517.00,1.55
8516.00,1.54
8515.00,1.54
8514.00,1.53
8513.00,1.53
8512.00,1.53
8511.00,1.52
8510.00,1.52
8509.00,1.51
8508.00,1.51
8507.00,1.51
8506.00,1.50
8505.00,1.50
8504.00,1.50
8503.00,1.50
8502.00,1.50
8501.00,1.50
8500.00,1.50
8499.00,1.49
8498.00,1.49
8497.00,1.49
8496.00,1.49
8495.00,1.49
8494.00,1.49
8493.00,1.50
8492.00,1.50
8491.00,1.50
8490.00,1.50
8489.00,1.50
8488.00,1.50
8487.00,1.50
8486.00,1.50
8485.00,1.50
8484.00,1.50
8483.00,1.50
8482.00,1.50
8481.00,1.50
8480.00,1.50
8479.00,1.50
8478.00,1.51
8477.00,1.51
8476.00,1.51
8475.00,1.51
8474.00,1.51
8473.00,1.51
8472.00,1.51
8471.00,1.51
8470.00,1.51
8469.00,1.52
8468.00,1.52
8467.00,1.52
8466.00,1.52
8465.00,1.52
8464.00,1.53
8463.00,1.53
8462.00,1.53
8461.00,1.54
8460.00,1.54
8459.00,1.55
8458.00,1.55
8457.00,1.55
8456.00,1.56
8455.00,1.56
8454.00,1.57
8453.00,1.57
8452.00,1.57
8451.00,1.58
8450.00,1.58
8449.00,1.59
8448.00,1.59
8447.00,1.60
8446.00,1.60
8445.00,1.60
8444.00,1.61
8443.00,1.61
8442.00,1.61
8441.00,1.62
8440.00,1.62
8439.00,1.62
8438.00,1.62
8437.00,1.62
8436.00,1.63
8435.00,1.63
8434.00,1.63
8433.00,1.63
8432.00,1.63
8431.00,1.62
8430.00,1.62
8429.00,1.62
8428.00,1.62
8427.00,1.61
8426.00,1.61
8425.00,1.60
8424.00,1.60
8423.00,1.59
8422.00,1.58
8421.00,1.58
8420.00,1.57
8419.00,1.56
8418.00,1.55
8417.00,1.55
8416.00,1.54
8415.00,1.53
8414.00,1.53
8413.00,1.52
8412.00,1.51
8411.00,1.51
8410.00,1.50
8409.00,1.49
8408.00,1.49
8407.00,1.48
8406.00,1.48
8405.00,1.48
8404.00,1.48
8403.00,1.48
8402.00,1.48
8401.00,1.48
8400.00,1.48
8399.00,1.48
8398.00,1.48
8397.00,1.49
8396.00,1.49
8395.00,1.49
8394.00,1.50
8393.00,1.50
8392.00,1.50
8391.00,1.50
8390.00,1.51
8389.00,1.51
8388.00,1.51
8387.00,1.52
8386.00,1.52
8385.00,1.52
8384.00,1.53
8383.00,1.53
8382.00,1.54
8381.00,1.54
8380.00,1.55
8379.00,1.55
8378.00,1.56
8377.00,1.56
8376.00,1.57
8375.00,1.57
8374.00,1.58
8373.00,1.58
8372.00,1.58
8371.00,1.58
8370.00,1.59
8369.00,1.59
8368.00,1.59
8367.00,1.60
8366.00,1.60
8365.00,1.60
8364.00,1.61
8363.00,1.61
8362.00,1.62
8361.00,1.62
8360.00,1.63
8359.00,1.63
8358.00,1.63
8357.00,1.63
8356.00,1.63
8355.00,1.63
8354.00,1.63
8353.00,1.63
8352.00,1.63
8351.00,1.62
8350.00,1.62
8349.00,1.62
8348.00,1.61
8347.00,1.61
8346.00,1.61
8345.00,1.61
8344.00,1.61
8343.00,1.61
8342.00,1.60
8341.00,1.60
8340.00,1.60
8339.00,1.60
8338.00,1.60
8337.00,1.60
8336.00,1.60
8335.00,1.59
8334.00,1.59
8333.00,1.59
8332.00,1.59
8331.00,1.59
8330.00,1.59
8329.00,1.59
8328.00,1.59
8327.00,1.59
8326.00,1.59
8325.00,1.59
8324.00,1.60
8323.00,1.60
8322.00,1.60
8321.00,1.60
8320.00,1.60
8319.00,1.60
8318.00,1.60
8317.00,1.60
8316.00,1.59
8315.00,1.59
8314.00,1.59
8313.00,1.58
8312.00,1.58
8311.00,1.57
8310.00,1.57
8309.00,1.57
8308.00,1.56
8307.00,1.55
8306.00,1.55
8305.00,1.54
8304.00,1.54
8303.00,1.53
8302.00,1.53
8301.00,1.52
8300.00,1.52
8299.00,1.51
8298.00,1.51
8297.00,1.50
8296.00,1.50
8295.00,1.49
8294.00,1.49
8293.00,1.48
8292.00,1.48
8291.00,1.48
8290.00,1.48
8289.00,1.48
8288.00,1.47
8287.00,1.47
8286.00,1.47
8285.00,1.48
8284.00,1.48
8283.00,1.48
8282.00,1.48
8281.00,1.48
8280.00,1.49
8279.00,1.49
8278.00,1.49
8277.00,1.50
8276.00,1.50
8275.00,1.51
8274.00,1.51
8273.00,1.51
8272.00,1.52
8271.00,1.52
8270.00,1.53
8269.00,1.53
8268.00,1.54
8267.00,1.54
8266.00,1.55
8265.00,1.55
8264.00,1.56
8263.00,1.56
8262.00,1.56
8261.00,1.57
8260.00,1.57
8259.00,1.57
8258.00,1.57
8257.00,1.57
8256.00,1.58
8255.00,1.58
8254.00,1.58
8253.00,1.58
8252.00,1.58
8251.00,1.58
8250.00,1.58
8249.00,1.58
8248.00,1.58
8247.00,1.58
8246.00,1.58
8245.00,1.58
8244.00,1.59
8243.00,1.59
8242.00,1.59
8241.00,1.59
8240.00,1.60
8239.00,1.60
8238.00,1.61
8237.00,1.61
8236.00,1.62
8235.00,1.62
8234.00,1.63
8233.00,1.63
8232.00,1.64
8231.00,1.65
8230.00,1.65
8229.00,1.66
8228.00,1.67
8227.00,1.67
8226.00,1.68
8225.00,1.69
8224.00,1.70
8223.00,1.70
8222.00,1.71
8221.00,1.72
8220.00,1.72
8219.00,1.73
8218.00,1.73
8217.00,1.74
8216.00,1.74
8215.00,1.75
8214.00,1.75
8213.00,1.75
8212.00,1.75
8211.00,1.76
8210.00,1.76
8209.00,1.76
8208.00,1.76
8207.00,1.76
8206.00,1.76
8205.00,1.75
8204.00,1.75
8203.00,1.75
8202.00,1.75
8201.00,1.75
8200.00,1.74
8199.00,1.74
8198.00,1.74
8197.00,1.73
8196.00,1.73
8195.00,1.72
8194.00,1.72
8193.00,1.71
8192.00,1.71
8191.00,1.70
8190.00,1.70
8189.00,1.69
8188.00,1.69
8187.00,1.68
8186.00,1.68
8185.00,1.67
8184.00,1.67
8183.00,1.66
8182.00,1.66
8181.00,1.66
8180.00,1.65
8179.00,1.65
8178.00,1.65
8177.00,1.64
8176.00,1.64
8175.00,1.64
8174.00,1.64
8173.00,1.63
8172.00,1.63
8171.00,1.63
8170.00,1.63
8169.00,1.62
8168.00,1.62
8167.00,1.62
8166.00,1.62
8165.00,1.62
8164.00,1.62
8163.00,1.62
8162.00,1.62
8161.00,1.62
8160.00,1.62
8159.00,1.62
8158.00,1.63
8157.00,1.63
8156.00,1.63
8155.00,1.63
8154.00,1.63
8153.00,1.64
8152.00,1.64
8151.00,1.64
8150.00,1.64
8149.00,1.64
8148.00,1.65
8147.00,1.65
8146.00,1.65
8145.00,1.65
8144.00,1.66
8143.00,1.66
8142.00,1.66
8141.00,1.66
8140.00,1.66
8139.00,1.66
8138.00,1.66
8137.00,1.66
8136.00,1.66
8135.00,1.66
8134.00,1.66
8133.00,1.66
8132.00,1.66
8131.00,1.66
8130.00,1.66
8129.00,1.66
8128.00,1.66
8127.00,1.66
8126.00,1.66
8125.00,1.66
8124.00,1.66
8123.00,1.66
8122.00,1.66
8121.00,1.66
8120.00,1.66
8119.00,1.66
8118.00,1.66
8117.00,1.66
8116.00,1.66
8115.00,1.66
8114.00,1.66
8113.00,1.66
8112.00,1.66
8111.00,1.66
8110.00,1.66
8109.00,1.67
8108.00,1.67
8107.00,1.67
8106.00,1.67
8105.00,1.66
8104.00,1.66
8103.00,1.66
8102.00,1.66
8101.00,1.66
8100.00,1.65
8099.00,1.65
8098.00,1.65
8097.00,1.64
8096.00,1.64
8095.00,1.64
8094.00,1.63
8093.00,1.63
8092.00,1.63
8091.00,1.63
8090.00,1.62
8089.00,1.62
8088.00,1.62
8087.00,1.61
8086.00,1.61
8085.00,1.61
8084.00,1.61
8083.00,1.60
8082.00,1.60
8081.00,1.60
8080.00,1.60
8079.00,1.60
8078.00,1.60
8077.00,1.60
8076.00,1.60
8075.00,1.60
8074.00,1.60
8073.00,1.60
8072.00,1.61
8071.00,1.61
8070.00,1.61
8069.00,1.61
8068.00,1.62
8067.00,1.62
8066.00,1.62
8065.00,1.62
8064.00,1.62
8063.00,1.62
8062.00,1.62
8061.00,1.62
8060.00,1.62
8059.00,1.62
8058.00,1.63
8057.00,1.63
8056.00,1.63
8055.00,1.64
8054.00,1.64
8053.00,1.65
8052.00,1.65
8051.00,1.66
8050.00,1.66
8049.00,1.66
8048.00,1.67
8047.00,1.67
8046.00,1.67
8045.00,1.68
8044.00,1.68
8043.00,1.68
8042.00,1.69
8041.00,1.69
8040.00,1.70
8039.00,1.70
8038.00,1.71
8037.00,1.71
8036.00,1.72
8035.00,1.72
8034.00,1.73
8033.00,1.73
8032.00,1.73
8031.00,1.73
8030.00,1.74
8029.00,1.74
8028.00,1.74
8027.00,1.74
8026.00,1.74
8025.00,1.74
8024.00,1.74
8023.00,1.74
8022.00,1.74
8021.00,1.74
8020.00,1.74
8019.00,1.74
8018.00,1.74
8017.00,1.73
8016.00,1.73
8015.00,1.73
8014.00,1.73
8013.00,1.72
8012.00,1.72
8011.00,1.72
8010.00,1.72
8009.00,1.72
8008.00,1.71
8007.00,1.71
8006.00,1.71
8005.00,1.71
8004.00,1.71
8003.00,1.70
8002.00,1.70
8001.00,1.70
8000.00,1.70
7999.00,1.70
7998.00,1.70
7997.00,1.70
7996.00,1.70
7995.00,1.70
7994.00,1.70
7993.00,1.70
7992.00,1.70
7991.00,1.71
7990.00,1.71
7989.00,1.71
7988.00,1.71
7987.00,1.72
7986.00,1.72
7985.00,1.72
7984.00,1.73
7983.00,1.73
7982.00,1.73
7981.00,1.73
7980.00,1.74
7979.00,1.74
7978.00,1.74
7977.00,1.74
7976.00,1.75
7975.00,1.75
7974.00,1.75
7973.00,1.75
7972.00,1.75
7971.00,1.75
7970.00,1.75
7969.00,1.75
7968.00,1.75
7967.00,1.75
7966.00,1.75
7965.00,1.75
7964.00,1.75
7963.00,1.75
7962.00,1.75
7961.00,1.75
7960.00,1.75
7959.00,1.74
7958.00,1.74
7957.00,1.74
7956.00,1.74
7955.00,1.74
7954.00,1.73
7953.00,1.73
7952.00,1.73
7951.00,1.73
7950.00,1.73
7949.00,1.73
7948.00,1.73
7947.00,1.73
7946.00,1.73
7945.00,1.73
7944.00,1.73
7943.00,1.73
7942.00,1.73
7941.00,1.73
7940.00,1.73
7939.00,1.73
7938.00,1.73
7937.00,1.73
7936.00,1.73
7935.00,1.73
7934.00,1.72
7933.00,1.72
7932.00,1.72
7931.00,1.72
7930.00,1.72
7929.00,1.71
7928.00,1.71
7927.00,1.71
7926.00,1.71
7925.00,1.70
7924.00,1.70
7923.00,1.69
7922.00,1.69
7921.00,1.68
7920.00,1.68
7919.00,1.68
7918.00,1.67
7917.00,1.67
7916.00,1.67
7915.00,1.66
7914.00,1.66
7913.00,1.66
7912.00,1.65
7911.00,1.65
7910.00,1.65
7909.00,1.65
7908.00,1.65
7907.00,1.65
7906.00,1.65
7905.00,1.65
7904.00,1.65
7903.00,1.65
7902.00,1.65
7901.00,1.65
7900.00,1.65
7899.00,1.66
7898.00,1.66
7897.00,1.66
7896.00,1.66
7895.00,1.67
7894.00,1.67
7893.00,1.67
7892.00,1.68
7891.00,1.68
7890.00,1.68
7889.00,1.69
7888.00,1.69
7887.00,1.69
7886.00,1.69
7885.00,1.70
7884.00,1.70
7883.00,1.70
7882.00,1.71
7881.00,1.71
7880.00,1.71
7879.00,1.72
7878.00,1.72
7877.00,1.72
7876.00,1.72
7875.00,1.72
7874.00,1.72
7873.00,1.73
7872.00,1.73
7871.00,1.73
7870.00,1.73
7869.00,1.73
7868.00,1.73
7867.00,1.73
7866.00,1.73
7865.00,1.73
7864.00,1.74
7863.00,1.74
7862.00,1.74
7861.00,1.74
7860.00,1.74
7859.00,1.74
7858.00,1.74
7857.00,1.74
7856.00,1.74
7855.00,1.75
7854.00,1.75
7853.00,1.75
7852.00,1.75
7851.00,1.75
7850.00,1.76
7849.00,1.76
7848.00,1.76
7847.00,1.76
7846.00,1.76
7845.00,1.76
7844.00,1.76
7843.00,1.76
7842.00,1.77
7841.00,1.77
7840.00,1.77
7839.00,1.76
7838.00,1.76
7837.00,1.76
7836.00,1.76
7835.00,1.76
7834.00,1.76
7833.00,1.75
7832.00,1.75
7831.00,1.75
7830.00,1.75
7829.00,1.74
7828.00,1.74
7827.00,1.74
7826.00,1.73
7825.00,1.73
7824.00,1.72
7823.00,1.72
7822.00,1.72
7821.00,1.71
7820.00,1.71
7819.00,1.71
7818.00,1.70
7817.00,1.70
7816.00,1.70
7815.00,1.69
7814.00,1.69
7813.00,1.69
7812.00,1.69
7811.00,1.69
7810.00,1.69
7809.00,1.69
7808.00,1.69
7807.00,1.69
7806.00,1.69
7805.00,1.69
7804.00,1.69
7803.00,1.69
7802.00,1.69
7801.00,1.70
7800.00,1.70
7799.00,1.70
7798.00,1.70
7797.00,1.70
7796.00,1.71
7795.00,1.71
7794.00,1.71
7793.00,1.72
7792.00,1.72
7791.00,1.73
7790.00,1.73
7789.00,1.74
7788.00,1.74
7787.00,1.75
7786.00,1.75
7785.00,1.76
7784.00,1.76
7783.00,1.76
7782.00,1.77
7781.00,1.77
7780.00,1.77
7779.00,1.78
7778.00,1.78
7777.00,1.78
7776.00,1.78
7775.00,1.78
7774.00,1.78
7773.00,1.78
7772.00,1.78
7771.00,1.78
7770.00,1.78
7769.00,1.78
7768.00,1.78
7767.00,1.78
7766.00,1.78
7765.00,1.77
7764.00,1.77
7763.00,1.76
7762.00,1.76
7761.00,1.76
7760.00,1.75
7759.00,1.75
7758.00,1.74
7757.00,1.74
7756.00,1.73
7755.00,1.73
7754.00,1.72
7753.00,1.72
7752.00,1.72
7751.00,1.72
7750.00,1.71
7749.00,1.71
7748.00,1.71
7747.00,1.71
7746.00,1.71
7745.00,1.71
7744.00,1.71
7743.00,1.71
7742.00,1.71
7741.00,1.71
7740.00,1.71
7739.00,1.71
7738.00,1.71
7737.00,1.71
7736.00,1.71
7735.00,1.71
7734.00,1.71
7733.00,1.71
7732.00,1.71
7731.00,1.71
7730.00,1.71
7729.00,1.71
7728.00,1.71
7727.00,1.71
7726.00,1.71
7725.00,1.71
7724.00,1.71
7723.00,1.71
7722.00,1.71
7721.00,1.71
7720.00,1.71
7719.00,1.71
7718.00,1.71
7717.00,1.70
7716.00,1.70
7715.00,1.70
7714.00,1.71
7713.00,1.71
7712.00,1.71
7711.00,1.71
7710.00,1.71
7709.00,1.72
7708.00,1.72
7707.00,1.72
7706.00,1.72
7705.00,1.73
7704.00,1.73
7703.00,1.73
7702.00,1.73
7701.00,1.74
7700.00,1.74
7699.00,1.74
7698.00,1.74
7697.00,1.74
7696.00,1.75
7695.00,1.75
7694.00,1.75
7693.00,1.75
7692.00,1.75
7691.00,1.75
7690.00,1.75
7689.00,1.75
7688.00,1.75
7687.00,1.75
7686.00,1.75
7685.00,1.75
7684.00,1.75
7683.00,1.75
7682.00,1.75
7681.00,1.75
7680.00,1.75
7679.00,1.75
7678.00,1.75
7677.00,1.75
7676.00,1.75
7675.00,1.75
7674.00,1.75
7673.00,1.75
7672.00,1.75
7671.00,1.75
7670.00,1.75
7669.00,1.75
7668.00,1.75
7667.00,1.75
7666.00,1.75
7665.00,1.75
7664.00,1.76
7663.00,1.76
7662.00,1.76
7661.00,1.76
7660.00,1.76
7659.00,1.76
7658.00,1.77
7657.00,1.77
7656.00,1.77
7655.00,1.76
7654.00,1.76
7653.00,1.76
7652.00,1.76
7651.00,1.76
7650.00,1.76
7649.00,1.75
7648.00,1.75
7647.00,1.75
7646.00,1.75
7645.00,1.75
7644.00,1.75
7643.00,1.75
7642.00,1.75
7641.00,1.75
7640.00,1.74
7639.00,1.74
7638.00,1.74
7637.00,1.74
7636.00,1.74
7635.00,1.74
7634.00,1.73
7633.00,1.73
7632.00,1.73
7631.00,1.73
7630.00,1.73
7629.00,1.73
7628.00,1.73
7627.00,1.73
7626.00,1.74
7625.00,1.74
7624.00,1.74
7623.00,1.74
7622.00,1.74
7621.00,1.74
7620.00,1.74
7619.00,1.74
7618.00,1.74
7617.00,1.74
7616.00,1.74
7615.00,1.73
7614.00,1.73
7613.00,1.73
7612.00,1.73
7611.00,1.73
7610.00,1.73
7609.00,1.73
7608.00,1.72
7607.00,1.72
7606.00,1.72
7605.00,1.72
7604.00,1.72
7603.00,1.71
7602.00,1.71
7601.00,1.71
7600.00,1.71
7599.00,1.71
7598.00,1.71
7597.00,1.71
7596.00,1.71
7595.00,1.71
7594.00,1.71
7593.00,1.71
7592.00,1.71
7591.00,1.71
7590.00,1.71
7589.00,1.72
7588.00,1.72
7587.00,1.72
7586.00,1.72
7585.00,1.72
7584.00,1.73
7583.00,1.73
7582.00,1.73
7581.00,1.73
7580.00,1.73
7579.00,1.73
7578.00,1.74
7577.00,1.74
7576.00,1.74
7575.00,1.74
7574.00,1.74
7573.00,1.74
7572.00,1.74
7571.00,1.74
7570.00,1.74
7569.00,1.74
7568.00,1.74
7567.00,1.74
7566.00,1.73
7565.00,1.73
7564.00,1.73
7563.00,1.72
7562.00,1.72
7561.00,1.72
7560.00,1.72
7559.00,1.71
7558.00,1.71
7557.00,1.71
7556.00,1.71
7555.00,1.71
7554.00,1.71
7553.00,1.71
7552.00,1.71
7551.00,1.71
7550.00,1.70
7549.00,1.70
7548.00,1.70
7547.00,1.70
7546.00,1.70
7545.00,1.70
7544.00,1.70
7543.00,1.70
7542.00,1.70
7541.00,1.70
7540.00,1.70
7539.00,1.70
7538.00,1.70
7537.00,1.70
7536.00,1.71
7535.00,1.71
7534.00,1.71
7533.00,1.71
7532.00,1.71
7531.00,1.71
7530.00,1.71
7529.00,1.71
7528.00,1.71
7527.00,1.71
7526.00,1.70
7525.00,1.70
7524.00,1.70
7523.00,1.70
7522.00,1.70
7521.00,1.70
7520.00,1.70
7519.00,1.70
7518.00,1.70
7517.00,1.71
7516.00,1.71
7515.00,1.71
7514.00,1.71
7513.00,1.71
7512.00,1.71
7511.00,1.71
7510.00,1.71
7509.00,1.71
7508.00,1.71
7507.00,1.71
7506.00,1.71
7505.00,1.71
7504.00,1.71
7503.00,1.72
7502.00,1.72
7501.00,1.72
7500.00,1.72
7499.00,1.72
7498.00,1.72
7497.00,1.73
7496.00,1.73
7495.00,1.73
7494.00,1.73
7493.00,1.74
7492.00,1.74
7491.00,1.74
7490.00,1.75
7489.00,1.75
7488.00,1.75
7487.00,1.76
7486.00,1.76
7485.00,1.76
7484.00,1.77
7483.00,1.77
7482.00,1.77
7481.00,1.78
7480.00,1.78
7479.00,1.78
7478.00,1.78
7477.00,1.79
7476.00,1.79
7475.00,1.79
7474.00,1.79
7473.00,1.79
7472.00,1.80
7471.00,1.80
7470.00,1.80
7469.00,1.80
7468.00,1.80
7467.00,1.80
7466.00,1.80
7465.00,1.80
7464.00,1.80
7463.00,1.80
7462.00,1.80
7461.00,1.80
7460.00,1.80
7459.00,1.79
7458.00,1.79
7457.00,1.79
7456.00,1.79
7455.00,1.79
7454.00,1.78
7453.00,1.78
7452.00,1.78
7451.00,1.78
7450.00,1.77
7449.00,1.77
7448.00,1.77
7447.00,1.76
7446.00,1.76
7445.00,1.76
7444.00,1.75
7443.00,1.75
7442.00,1.74
7441.00,1.74
7440.00,1.73
7439.00,1.73
7438.00,1.72
7437.00,1.72
7436.00,1.71
7435.00,1.71
7434.00,1.70
7433.00,1.70
7432.00,1.69
7431.00,1.69
7430.00,1.68
7429.00,1.68
7428.00,1.67
7427.00,1.67
7426.00,1.67
7425.00,1.66
7424.00,1.66
7423.00,1.65
7422.00,1.65
7421.00,1.65
7420.00,1.65
7419.00,1.65
7418.00,1.65
7417.00,1.65
7416.00,1.65
7415.00,1.65
7414.00,1.65
7413.00,1.65
7412.00,1.65
7411.00,1.65
7410.00,1.65
7409.00,1.65
7408.00,1.65
7407.00,1.65
7406.00,1.65
7405.00,1.65
7404.00,1.65
7403.00,1.66
7402.00,1.66
7401.00,1.66
7400.00,1.66
7399.00,1.67
7398.00,1.67
7397.00,1.67
7396.00,1.68
7395.00,1.68
7394.00,1.68
7393.00,1.68
7392.00,1.68
7391.00,1.69
7390.00,1.69
7389.00,1.69
7388.00,1.69
7387.00,1.69
7386.00,1.69
7385.00,1.69
7384.00,1.69
7383.00,1.69
7382.00,1.69
7381.00,1.69
7380.00,1.70
7379.00,1.70
7378.00,1.70
7377.00,1.70
7376.00,1.70
7375.00,1.70
7374.00,1.70
7373.00,1.70
7372.00,1.70
7371.00,1.69
7370.00,1.69
7369.00,1.69
7368.00,1.69
7367.00,1.69
7366.00,1.69
7365.00,1.68
7364.00,1.68
7363.00,1.68
7362.00,1.68
7361.00,1.68
7360.00,1.68
7359.00,1.68
7358.00,1.68
7357.00,1.68
7356.00,1.68
7355.00,1.68
7354.00,1.69
7353.00,1.69
7352.00,1.69
7351.00,1.69
7350.00,1.69
7349.00,1.69
7348.00,1.70
7347.00,1.70
7346.00,1.70
7345.00,1.70
7344.00,1.70
7343.00,1.71
7342.00,1.71
7341.00,1.71
7340.00,1.72
7339.00,1.72
7338.00,1.72
7337.00,1.73
7336.00,1.73
7335.00,1.73
7334.00,1.73
7333.00,1.74
7332.00,1.74
7331.00,1.74
7330.00,1.74
7329.00,1.74
7328.00,1.74
7327.00,1.74
7326.00,1.74
7325.00,1.74
7324.00,1.74
7323.00,1.74
7322.00,1.73
7321.00,1.73
7320.00,1.73
7319.00,1.73
7318.00,1.73
7317.00,1.73
7316.00,1.72
7315.00,1.72
7314.00,1.72
7313.00,1.72
7312.00,1.72
7311.00,1.72
7310.00,1.72
7309.00,1.71
7308.00,1.71
7307.00,1.71
7306.00,1.71
7305.00,1.71
7304.00,1.71
7303.00,1.71
7302.00,1.71
7301.00,1.70
7300.00,1.70
7299.00,1.70
7298.00,1.70
7297.00,1.70
7296.00,1.70
7295.00,1.70
7294.00,1.70
7293.00,1.70
7292.00,1.69
7291.00,1.69
7290.00,1.69
7289.00,1.69
7288.00,1.69
7287.00,1.69
7286.00,1.69
7285.00,1.68
7284.00,1.68
7283.00,1.68
7282.00,1.67
7281.00,1.67
7280.00,1.67
7279.00,1.67
7278.00,1.66
7277.00,1.66
7276.00,1.66
7275.00,1.66
7274.00,1.66
7273.00,1.66
7272.00,1.66
7271.00,1.66
7270.00,1.66
7269.00,1.67
7268.00,1.67
7267.00,1.67
7266.00,1.67
7265.00,1.67
7264.00,1.67
7263.00,1.67
7262.00,1.67
7261.00,1.68
7260.00,1.68
7259.00,1.68
7258.00,1.69
7257.00,1.69
7256.00,1.69
7255.00,1.70
7254.00,1.70
7253.00,1.71
7252.00,1.71
7251.00,1.71
7250.00,1.71
7249.00,1.71
7248.00,1.71
7247.00,1.71
7246.00,1.71
7245.00,1.71
7244.00,1.71
7243.00,1.71
7242.00,1.70
7241.00,1.70
7240.00,1.70
7239.00,1.69
7238.00,1.69
7237.00,1.69
7236.00,1.68
7235.00,1.68
7234.00,1.67
7233.00,1.66
7232.00,1.66
7231.00,1.65
7230.00,1.64
7229.00,1.64
7228.00,1.63
7227.00,1.62
7226.00,1.62
7225.00,1.61
7224.00,1.60
7223.00,1.60
7222.00,1.59
7221.00,1.59
7220.00,1.58
7219.00,1.57
7218.00,1.57
7217.00,1.57
7216.00,1.56
7215.00,1.56
7214.00,1.55
7213.00,1.55
7212.00,1.54
7211.00,1.54
7210.00,1.53
7209.00,1.53
7208.00,1.53
7207.00,1.52
7206.00,1.52
7205.00,1.52
7204.00,1.51
7203.00,1.51
7202.00,1.51
7201.00,1.50
7200.00,1.50
7199.00,1.50
7198.00,1.49
7197.00,1.49
7196.00,1.49
7195.00,1.49
7194.00,1.48
7193.00,1.48
7192.00,1.48
7191.00,1.47
7190.00,1.47
7189.00,1.47
7188.00,1.46
7187.00,1.46
7186.00,1.46
7185.00,1.46
7184.00,1.46
7183.00,1.46
7182.00,1.45
7181.00,1.45
7180.00,1.45
7179.00,1.45
7178.00,1.44
7177.00,1.44
7176.00,1.44
7175.00,1.43
7174.00,1.43
7173.00,1.43
7172.00,1.42
7171.00,1.42
7170.00,1.42
7169.00,1.41
7168.00,1.41
7167.00,1.41
7166.00,1.40
7165.00,1.40
7164.00,1.40
7163.00,1.39
7162.00,1.39
7161.00,1.38
7160.00,1.38
7159.00,1.38
7158.00,1.37
7157.00,1.37
7156.00,1.36
7155.00,1.36
7154.00,1.36
7153.00,1.35
7152.00,1.35
7151.00,1.34
7150.00,1.34
7149.00,1.34
7148.00,1.33
7147.00,1.33
7146.00,1.33
7145.00,1.32
7144.00,1.32
7143.00,1.32
7142.00,1.32
7141.00,1.31
7140.00,1.31
7139.00,1.31
7138.00,1.31
7137.00,1.31
7136.00,1.31
7135.00,1.31
7134.00,1.31
7133.00,1.31
7132.00,1.31
7131.00,1.30
7130.00,1.30
7129.00,1.30
7128.00,1.30
7127.00,1.30
7126.00,1.30
7125.00,1.30
7124.00,1.31
7123.00,1.31
7122.00,1.31
7121.00,1.31
7120.00,1.31
7119.00,1.31
7118.00,1.31
7117.00,1.31
7116.00,1.31
7115.00,1.30
7114.00,1.30
7113.00,1.30
7112.00,1.29
7111.00,1.29
7110.00,1.28
7109.00,1.28
7108.00,1.27
7107.00,1.27
7106.00,1.26
7105.00,1.25
7104.00,1.25
7103.00,1.24
7102.00,1.24
7101.00,1.23
7100.00,1.22
7099.00,1.21
7098.00,1.21
7097.00,1.20
7096.00,1.19
7095.00,1.18
7094.00,1.18
7093.00,1.17
7092.00,1.16
7091.00,1.15
7090.00,1.15
7089.00,1.14
7088.00,1.14
7087.00,1.13
7086.00,1.13
7085.00,1.13
7084.00,1.12
7083.00,1.12
7082.00,1.12
7081.00,1.12
7080.00,1.12
7079.00,1.12
7078.00,1.12
7077.00,1.12
7076.00,1.12
7075.00,1.12
7074.00,1.12
7073.00,1.12
7072.00,1.12
7071.00,1.12
7070.00,1.12
7069.00,1.12
7068.00,1.13
7067.00,1.13
7066.00,1.13
7065.00,1.13
7064.00,1.13
7063.00,1.13
7062.00,1.13
7061.00,1.13
7060.00,1.12
7059.00,1.12
7058.00,1.12
7057.00,1.12
7056.00,1.12
7055.00,1.11
7054.00,1.11
7053.00,1.11
7052.00,1.11
7051.00,1.10
7050.00,1.10
7049.00,1.10
7048.00,1.09
7047.00,1.09
7046.00,1.09
7045.00,1.08
7044.00,1.08
7043.00,1.08
7042.00,1.07
7041.00,1.07
7040.00,1.07
7039.00,1.07
7038.00,1.06
7037.00,1.06
7036.00,1.06
7035.00,1.06
7034.00,1.06
7033.00,1.06
7032.00,1.06
7031.00,1.06
7030.00,1.06
7029.00,1.05
7028.00,1.05
7027.00,1.05
7026.00,1.05
7025.00,1.05
7024.00,1.05
7023.00,1.05
7022.00,1.05
7021.00,1.05
7020.00,1.05
7019.00,1.05
7018.00,1.05
7017.00,1.05
7016.00,1.05
7015.00,1.05
7014.00,1.05
7013.00,1.05
7012.00,1.05
7011.00,1.05
7010.00,1.05
7009.00,1.05
7008.00,1.05
7007.00,1.05
7006.00,1.05
7005.00,1.05
7004.00,1.05
7003.00,1.05
7002.00,1.05
7001.00,1.05
7000.00,1.05
6999.00,1.05
6998.00,1.05
6997.00,1.04
6996.00,1.04
6995.00,1.04
6994.00,1.04
6993.00,1.04
6992.00,1.04
6991.00,1.04
6990.00,1.04
6989.00,1.04
6988.00,1.03
6987.00,1.03
6986.00,1.03
6985.00,1.03
6984.00,1.03
6983.00,1.03
6982.00,1.03
6981.00,1.03
6980.00,1.03
6979.00,1.02
6978.00,1.02
6977.00,1.02
6976.00,1.02
6975.00,1.02
6974.00,1.02
6973.00,1.02
6972.00,1.02
6971.00,1.02
6970.00,1.02
6969.00,1.02
6968.00,1.02
6967.00,1.02
6966.00,1.02
6965.00,1.02
6964.00,1.02
6963.00,1.02
6962.00,1.02
6961.00,1.02
6960.00,1.02
6959.00,1.02
6958.00,1.02
6957.00,1.02
6956.00,1.02
6955.00,1.02
6954.00,1.02
6953.00,1.02
6952.00,1.01
6951.00,1.01
6950.00,1.01
6949.00,1.01
6948.00,1.01
6947.00,1.00
6946.00,1.00
6945.00,1.00
6944.00,1.00
6943.00,0.99
6942.00,0.99
6941.00,0.99
6940.00,0.99
6939.00,0.99
6938.00,0.99
6937.00,0.99
6936.00,0.98
6935.00,0.98
6934.00,0.98
6933.00,0.98
6932.00,0.98
6931.00,0.98
6930.00,0.98
6929.00,0.98
6928.00,0.98
6927.00,0.98
6926.00,0.98
6925.00,0.98
6924.00,0.98
6923.00,0.98
6922.00,0.98
6921.00,0.98
6920.00,0.98
6919.00,0.98
6918.00,0.98
6917.00,0.98
6916.00,0.98
6915.00,0.98
6914.00,0.98
6913.00,0.97
6912.00,0.97
6911.00,0.96
6910.00,0.96
6909.00,0.96
6908.00,0.95
6907.00,0.95
6906.00,0.94
6905.00,0.94
6904.00,0.94
6903.00,0.93
6902.00,0.93
6901.00,0.93
6900.00,0.92
6899.00,0.92
6898.00,0.92
6897.00,0.92
6896.00,0.92
6895.00,0.91
6894.00,0.91
6893.00,0.91
6892.00,0.91
6891.00,0.91
6890.00,0.91
6889.00,0.91
6888.00,0.91
6887.00,0.92
6886.00,0.92
6885.00,0.92
6884.00,0.92
6883.00,0.93
6882.00,0.93
6881.00,0.93
6880.00,0.94
6879.00,0.94
6878.00,0.94
6877.00,0.95
6876.00,0.95
6875.00,0.95
6874.00,0.95
6873.00,0.95
6872.00,0.95
6871.00,0.96
6870.00,0.96
6869.00,0.96
6868.00,0.96
6867.00,0.96
6866.00,0.96
6865.00,0.96
6864.00,0.96
6863.00,0.96
6862.00,0.96
6861.00,0.96
6860.00,0.96
6859.00,0.96
6858.00,0.96
6857.00,0.95
6856.00,0.95
6855.00,0.95
6854.00,0.95
6853.00,0.95
6852.00,0.95
6851.00,0.94
6850.00,0.94
6849.00,0.94
6848.00,0.94
6847.00,0.94
6846.00,0.94
6845.00,0.94
6844.00,0.94
6843.00,0.94
6842.00,0.94
6841.00,0.94
6840.00,0.94
6839.00,0.94
6838.00,0.94
6837.00,0.94
6836.00,0.94
6835.00,0.94
6834.00,0.94
6833.00,0.94
6832.00,0.95
6831.00,0.95
6830.00,0.95
6829.00,0.95
6828.00,0.95
6827.00,0.96
6826.00,0.96
6825.00,0.96
6824.00,0.96
6823.00,0.97
6822.00,0.97
6821.00,0.97
6820.00,0.97
6819.00,0.97
6818.00,0.97
6817.00,0.97
6816.00,0.97
6815.00,0.98
6814.00,0.98
6813.00,0.98
6812.00,0.98
6811.00,0.98
6810.00,0.98
6809.00,0.98
6808.00,0.98
6807.00,0.98
6806.00,0.98
6805.00,0.98
6804.00,0.98
6803.00,0.98
6802.00,0.98
6801.00,0.98
6800.00,0.98
6799.00,0.98
6798.00,0.98
6797.00,0.98
6796.00,0.99
6795.00,0.99
6794.00,0.99
6793.00,0.99
6792.00,0.99
6791.00,0.99
6790.00,1.00
6789.00,1.00
6788.00,1.00
6787.00,1.00
6786.00,1.00
6785.00,1.01
6784.00,1.01
6783.00,1.01
6782.00,1.01
6781.00,1.02
6780.00,1.02
6779.00,1.02
6778.00,1.02
6777.00,1.02
6776.00,1.02
6775.00,1.03
6774.00,1.03
6773.00,1.03
6772.00,1.03
6771.00,1.03
6770.00,1.03
6769.00,1.03
6768.00,1.03
6767.00,1.03
6766.00,1.03
6765.00,1.03
6764.00,1.03
6763.00,1.03
6762.00,1.03
6761.00,1.03
6760.00,1.03
6759.00,1.03
6758.00,1.03
6757.00,1.03
6756.00,1.03
6755.00,1.03
6754.00,1.03
6753.00,1.03
6752.00,1.03
6751.00,1.03
6750.00,1.03
6749.00,1.03
6748.00,1.03
6747.00,1.03
6746.00,1.03
6745.00,1.03
6744.00,1.03
6743.00,1.04
6742.00,1.04
6741.00,1.04
6740.00,1.04
6739.00,1.04
6738.00,1.04
6737.00,1.04
6736.00,1.04
6735.00,1.04
6734.00,1.04
6733.00,1.04
6732.00,1.04
6731.00,1.04
6730.00,1.05
6729.00,1.05
6728.00,1.05
6727.00,1.05
6726.00,1.05
6725.00,1.05
6724.00,1.05
6723.00,1.05
6722.00,1.05
6721.00,1.06
6720.00,1.06
6719.00,1.06
6718.00,1.06
6717.00,1.06
6716.00,1.06
6715.00,1.06
6714.00,1.06
6713.00,1.06
6712.00,1.06
6711.00,1.07
6710.00,1.07
6709.00,1.07
6708.00,1.07
6707.00,1.07
6706.00,1.07
6705.00,1.07
6704.00,1.07
6703.00,1.07
6702.00,1.07
6701.00,1.07
6700.00,1.07
6699.00,1.07
6698.00,1.07
6697.00,1.07
6696.00,1.07
6695.00,1.07
6694.00,1.07
6693.00,1.07
6692.00,1.07
6691.00,1.07
6690.00,1.07
6689.00,1.07
6688.00,1.07
6687.00,1.07
6686.00,1.07
6685.00,1.08
6684.00,1.08
6683.00,1.08
6682.00,1.08
6681.00,1.08
6680.00,1.09
6679.00,1.09
6678.00,1.09
6677.00,1.09
6676.00,1.10
6675.00,1.10
6674.00,1.10
6673.00,1.10
6672.00,1.10
6671.00,1.10
6670.00,1.11
6669.00,1.11
6668.00,1.11
6667.00,1.11
6666.00,1.11
6665.00,1.12
6664.00,1.12
6663.00,1.13
6662.00,1.13
6661.00,1.13
6660.00,1.14
6659.00,1.14
6658.00,1.14
6657.00,1.14
6656.00,1.15
6655.00,1.15
6654.00,1.15
6653.00,1.15
6652.00,1.15
6651.00,1.15
6650.00,1.16
6649.00,1.16
6648.00,1.16
6647.00,1.16
6646.00,1.17
6645.00,1.17
6644.00,1.17
6643.00,1.17
6642.00,1.18
6641.00,1.18
6640.00,1.18
6639.00,1.18
6638.00,1.18
6637.00,1.18
6636.00,1.19
6635.00,1.19
6634.00,1.19
6633.00,1.19
6632.00,1.19
6631.00,1.19
6630.00,1.19
6629.00,1.19
6628.00,1.19
6627.00,1.19
6626.00,1.19
6625.00,1.19
6624.00,1.19
6623.00,1.19
6622.00,1.19
6621.00,1.19
6620.00,1.20
6619.00,1.20
6618.00,1.20
6617.00,1.20
6616.00,1.20
6615.00,1.20
6614.00,1.20
6613.00,1.20
6612.00,1.20
6611.00,1.20
6610.00,1.21
6609.00,1.21
6608.00,1.21
6607.00,1.21
6606.00,1.22
6605.00,1.22
6604.00,1.22
6603.00,1.22
6602.00,1.23
6601.00,1.23
6600.00,1.23
6599.00,1.24
6598.00,1.24
6597.00,1.24
6596.00,1.24
6595.00,1.24
6594.00,1.25
6593.00,1.25
6592.00,1.25
6591.00,1.25
6590.00,1.25
6589.00,1.25
6588.00,1.25
6587.00,1.25
6586.00,1.25
6585.00,1.25
6584.00,1.25
6583.00,1.25
6582.00,1.25
6581.00,1.25
6580.00,1.24
6579.00,1.24
6578.00,1.24
6577.00,1.24
6576.00,1.24
6575.00,1.23
6574.00,1.23
6573.00,1.23
6572.00,1.23
6571.00,1.23
6570.00,1.22
6569.00,1.22
6568.00,1.22
6567.00,1.22
6566.00,1.22
6565.00,1.22
6564.00,1.22
6563.00,1.23
6562.00,1.23
6561.00,1.23
6560.00,1.23
6559.00,1.23
6558.00,1.23
6557.00,1.24
6556.00,1.24
6555.00,1.24
6554.00,1.25
6553.00,1.25
6552.00,1.25
6551.00,1.26
6550.00,1.26
6549.00,1.27
6548.00,1.27
6547.00,1.27
6546.00,1.28
6545.00,1.28
6544.00,1.29
6543.00,1.29
6542.00,1.29
6541.00,1.30
6540.00,1.30
6539.00,1.30
6538.00,1.30
6537.00,1.30
6536.00,1.31
6535.00,1.31
6534.00,1.31
6533.00,1.31
6532.00,1.31
6531.00,1.31
6530.00,1.31
6529.00,1.31
6528.00,1.31
6527.00,1.31
6526.00,1.31
6525.00,1.31
6524.00,1.31
6523.00,1.30
6522.00,1.30
6521.00,1.30
6520.00,1.30
6519.00,1.30
6518.00,1.30
6517.00,1.30
6516.00,1.29
6515.00,1.29
6514.00,1.29
6513.00,1.29
6512.00,1.29
6511.00,1.29
6510.00,1.29
6509.00,1.29
6508.00,1.28
6507.00,1.28
6506.00,1.28
6505.00,1.29
6504.00,1.29
6503.00,1.29
6502.00,1.29
6501.00,1.29
6500.00,1.29
6499.00,1.29
6498.00,1.30
6497.00,1.30
6496.00,1.30
6495.00,1.30
6494.00,1.30
6493.00,1.30
6492.00,1.30
6491.00,1.31
6490.00,1.31
6489.00,1.31
6488.00,1.32
6487.00,1.32
6486.00,1.32
6485.00,1.32
6484.00,1.33
6483.00,1.33
6482.00,1.33
6481.00,1.33
6480.00,1.33
6479.00,1.33
6478.00,1.33
6477.00,1.34
6476.00,1.34
6475.00,1.34
6474.00,1.34
6473.00,1.34
6472.00,1.34
6471.00,1.34
6470.00,1.34
6469.00,1.34
6468.00,1.34
6467.00,1.34
6466.00,1.34
6465.00,1.34
6464.00,1.34
6463.00,1.34
6462.00,1.34
6461.00,1.34
6460.00,1.34
6459.00,1.34
6458.00,1.34
6457.00,1.34
6456.00,1.34
6455.00,1.35
6454.00,1.35
6453.00,1.35
6452.00,1.35
6451.00,1.35
6450.00,1.35
6449.00,1.35
6448.00,1.35
6447.00,1.35
6446.00,1.35
6445.00,1.35
6444.00,1.35
6443.00,1.35
6442.00,1.35
6441.00,1.35
6440.00,1.35
6439.00,1.35
6438.00,1.35
6437.00,1.35
6436.00,1.35
6435.00,1.35
6434.00,1.35
6433.00,1.35
6432.00,1.35
6431.00,1.35
6430.00,1.35
6429.00,1.35
6428.00,1.35
6427.00,1.35
6426.00,1.35
6425.00,1.35
6424.00,1.35
6423.00,1.35
6422.00,1.36
6421.00,1.36
6420.00,1.36
6419.00,1.36
6418.00,1.36
6417.00,1.36
6416.00,1.36
6415.00,1.36
6414.00,1.37
6413.00,1.37
6412.00,1.37
6411.00,1.37
6410.00,1.37
6409.00,1.37
6408.00,1.38
6407.00,1.38
6406.00,1.38
6405.00,1.38
6404.00,1.38
6403.00,1.38
6402.00,1.38
6401.00,1.38
6400.00,1.39
6399.00,1.39
6398.00,1.39
6397.00,1.39
6396.00,1.39
6395.00,1.39
6394.00,1.39
6393.00,1.39
6392.00,1.39
6391.00,1.39
6390.00,1.39
6389.00,1.39
6388.00,1.39
6387.00,1.39
6386.00,1.39
6385.00,1.39
6384.00,1.39
6383.00,1.39
6382.00,1.39
6381.00,1.39
6380.00,1.39
6379.00,1.39
6378.00,1.39
6377.00,1.39
6376.00,1.39
6375.00,1.39
6374.00,1.39
6373.00,1.39
6372.00,1.40
6371.00,1.40
6370.00,1.40
6369.00,1.40
6368.00,1.40
6367.00,1.40
6366.00,1.40
6365.00,1.40
6364.00,1.41
6363.00,1.41
6362.00,1.41
6361.00,1.41
6360.00,1.41
6359.00,1.41
6358.00,1.42
6357.00,1.42
6356.00,1.42
6355.00,1.42
6354.00,1.43
6353.00,1.43
6352.00,1.43
6351.00,1.43
6350.00,1.43
6349.00,1.44
6348.00,1.44
6347.00,1.44
6346.00,1.44
6345.00,1.44
6344.00,1.44
6343.00,1.44
6342.00,1.44
6341.00,1.44
6340.00,1.44
6339.00,1.45
6338.00,1.45
6337.00,1.45
6336.00,1.45
6335.00,1.45
6334.00,1.45
6333.00,1.45
6332.00,1.45
6331.00,1.45
6330.00,1.45
6329.00,1.45
6328.00,1.45
6327.00,1.46
6326.00,1.46
6325.00,1.46
6324.00,1.46
6323.00,1.46
6322.00,1.46
6321.00,1.46
6320.00,1.46
6319.00,1.46
6318.00,1.46
6317.00,1.47
6316.00,1.47
6315.00,1.47
6314.00,1.47
6313.00,1.47
6312.00,1.47
6311.00,1.47
6310.00,1.47
6309.00,1.47
6308.00,1.48
6307.00,1.48
6306.00,1.48
6305.00,1.48
6304.00,1.48
6303.00,1.48
6302.00,1.48
6301.00,1.48
6300.00,1.48
6299.00,1.49
6298.00,1.49
6297.00,1.49
6296.00,1.49
6295.00,1.49
6294.00,1.49
6293.00,1.49
6292.00,1.49
6291.00,1.49
6290.00,1.49
6289.00,1.49
6288.00,1.49
6287.00,1.50
6286.00,1.50
6285.00,1.50
6284.00,1.50
6283.00,1.50
6282.00,1.50
6281.00,1.50
6280.00,1.50
6279.00,1.50
6278.00,1.50
6277.00,1.50
6276.00,1.50
6275.00,1.50
6274.00,1.50
6273.00,1.50
6272.00,1.50
6271.00,1.50
6270.00,1.50
6269.00,1.50
6268.00,1.50
6267.00,1.50
6266.00,1.50
6265.00,1.50
6264.00,1.50
6263.00,1.50
6262.00,1.50
6261.00,1.50
6260.00,1.50
6259.00,1.50
6258.00,1.50
6257.00,1.51
6256.00,1.51
6255.00,1.51
6254.00,1.51
6253.00,1.51
6252.00,1.51
6251.00,1.51
6250.00,1.52
6249.00,1.52
6248.00,1.52
6247.00,1.52
6246.00,1.52
6245.00,1.52
6244.00,1.53
6243.00,1.53
6242.00,1.53
6241.00,1.53
6240.00,1.53
6239.00,1.54
6238.00,1.54
6237.00,1.54
6236.00,1.54
6235.00,1.54
6234.00,1.54
6233.00,1.55
6232.00,1.55
6231.00,1.55
6230.00,1.55
6229.00,1.55
6228.00,1.55
6227.00,1.55
6226.00,1.55
6225.00,1.55
6224.00,1.55
6223.00,1.55
6222.00,1.55
6221.00,1.55
6220.00,1.55
6219.00,1.55
6218.00,1.55
6217.00,1.55
6216.00,1.55
6215.00,1.55
6214.00,1.55
6213.00,1.55
6212.00,1.55
6211.00,1.55
6210.00,1.55
6209.00,1.55
6208.00,1.55
6207.00,1.55
6206.00,1.55
6205.00,1.54
6204.00,1.54
6203.00,1.54
6202.00,1.54
6201.00,1.54
6200.00,1.54
6199.00,1.54
6198.00,1.54
6197.00,1.54
6196.00,1.54
6195.00,1.55
6194.00,1.55
6193.00,1.55
6192.00,1.55
6191.00,1.56
6190.00,1.56
6189.00,1.56
6188.00,1.57
6187.00,1.57
6186.00,1.57
6185.00,1.58
6184.00,1.58
6183.00,1.58
6182.00,1.59
6181.00,1.59
6180.00,1.60
6179.00,1.60
6178.00,1.60
6177.00,1.61
6176.00,1.61
6175.00,1.62
6174.00,1.62
6173.00,1.63
6172.00,1.63
6171.00,1.63
6170.00,1.64
6169.00,1.64
6168.00,1.64
6167.00,1.64
6166.00,1.64
6165.00,1.65
6164.00,1.65
6163.00,1.65
6162.00,1.65
6161.00,1.65
6160.00,1.65
6159.00,1.65
6158.00,1.65
6157.00,1.65
6156.00,1.65
6155.00,1.65
6154.00,1.65
6153.00,1.65
6152.00,1.65
6151.00,1.65
6150.00,1.65
6149.00,1.65
6148.00,1.65
6147.00,1.65
6146.00,1.65
6145.00,1.65
6144.00,1.65
6143.00,1.65
6142.00,1.65
6141.00,1.65
6140.00,1.64
6139.00,1.64
6138.00,1.64
6137.00,1.64
6136.00,1.64
6135.00,1.64
6134.00,1.64
6133.00,1.64
6132.00,1.64
6131.00,1.64
6130.00,1.64
6129.00,1.64
6128.00,1.64
6127.00,1.64
6126.00,1.64
6125.00,1.64
6124.00,1.64
6123.00,1.64
6122.00,1.64
6121.00,1.64
6120.00,1.64
6119.00,1.64
6118.00,1.64
6117.00,1.64
6116.00,1.65
6115.00,1.65
6114.00,1.65
6113.00,1.65
6112.00,1.65
6111.00,1.65
6110.00,1.65
6109.00,1.66
6108.00,1.66
6107.00,1.66
6106.00,1.66
6105.00,1.66
6104.00,1.67
6103.00,1.67
6102.00,1.67
6101.00,1.67
6100.00,1.67
6099.00,1.67
6098.00,1.68
6097.00,1.68
6096.00,1.68
6095.00,1.68
6094.00,1.68
6093.00,1.69
6092.00,1.69
6091.00,1.69
6090.00,1.69
6089.00,1.69
6088.00,1.69
6087.00,1.69
6086.00,1.69
6085.00,1.70
6084.00,1.70
6083.00,1.70
6082.00,1.70
6081.00,1.70
6080.00,1.70
6079.00,1.70
6078.00,1.70
6077.00,1.70
6076.00,1.70
6075.00,1.70
6074.00,1.70
6073.00,1.70
6072.00,1.70
6071.00,1.70
6070.00,1.70
6069.00,1.70
6068.00,1.70
6067.00,1.70
6066.00,1.70
6065.00,1.70
6064.00,1.70
6063.00,1.70
6062.00,1.70
6061.00,1.70
6060.00,1.70
6059.00,1.70
6058.00,1.69
6057.00,1.69
6056.00,1.69
6055.00,1.69
6054.00,1.69
6053.00,1.69
6052.00,1.69
6051.00,1.69
6050.00,1.69
6049.00,1.69
6048.00,1.69
6047.00,1.69
6046.00,1.69
6045.00,1.69
6044.00,1.70
6043.00,1.70
6042.00,1.70
6041.00,1.70
6040.00,1.70
6039.00,1.70
6038.00,1.70
6037.00,1.70
6036.00,1.71
6035.00,1.71
6034.00,1.71
6033.00,1.71
6032.00,1.71
6031.00,1.71
6030.00,1.71
6029.00,1.72
6028.00,1.72
6027.00,1.72
6026.00,1.72
6025.00,1.72
6024.00,1.72
6023.00,1.72
6022.00,1.72
6021.00,1.73
6020.00,1.73
6019.00,1.73
6018.00,1.73
6017.00,1.73
6016.00,1.73
6015.00,1.73
6014.00,1.73
6013.00,1.73
6012.00,1.73
6011.00,1.73
6010.00,1.72
6009.00,1.72
6008.00,1.72
6007.00,1.72
6006.00,1.72
6005.00,1.72
6004.00,1.72
6003.00,1.71
6002.00,1.71
6001.00,1.71
6000.00,1.71
5999.00,1.71
5998.00,1.71
5997.00,1.71
5996.00,1.71
5995.00,1.70
5994.00,1.70
5993.00,1.70
5992.00,1.70
5991.00,1.70
5990.00,1.70
5989.00,1.70
5988.00,1.69
5987.00,1.69
5986.00,1.69
5985.00,1.69
5984.00,1.69
5983.00,1.69
5982.00,1.69
5981.00,1.69
5980.00,1.69
5979.00,1.68
5978.00,1.68
5977.00,1.68
5976.00,1.68
5975.00,1.68
5974.00,1.67
5973.00,1.67
5972.00,1.67
5971.00,1.66
5970.00,1.66
5969.00,1.66
5968.00,1.65
5967.00,1.65
5966.00,1.65
5965.00,1.64
5964.00,1.64
5963.00,1.64
5962.00,1.63
5961.00,1.63
5960.00,1.62
5959.00,1.62
5958.00,1.62
5957.00,1.61
5956.00,1.61
5955.00,1.60
5954.00,1.60
5953.00,1.60
5952.00,1.59
5951.00,1.59
5950.00,1.58
5949.00,1.58
5948.00,1.58
5947.00,1.57
5946.00,1.57
5945.00,1.57
5944.00,1.57
5943.00,1.56
5942.00,1.56
5941.00,1.56
5940.00,1.56
5939.00,1.56
5938.00,1.55
5937.00,1.55
5936.00,1.55
5935.00,1.55
5934.00,1.55
5933.00,1.55
5932.00,1.55
5931.00,1.55
5930.00,1.55
5929.00,1.55
5928.00,1.55
5927.00,1.55
5926.00,1.55
5925.00,1.55
5924.00,1.55
5923.00,1.55
5922.00,1.55
5921.00,1.55
5920.00,1.55
5919.00,1.54
5918.00,1.54
5917.00,1.54
5916.00,1.54
5915.00,1.54
5914.00,1.54
5913.00,1.54
5912.00,1.54
5911.00,1.54
5910.00,1.54
5909.00,1.54
5908.00,1.54
5907.00,1.54
5906.00,1.54
5905.00,1.54
5904.00,1.53
5903.00,1.53
5902.00,1.53
5901.00,1.53
5900.00,1.53
5899.00,1.53
5898.00,1.53
5897.00,1.53
5896.00,1.53
5895.00,1.53
5894.00,1.53
5893.00,1.53
5892.00,1.53
5891.00,1.53
5890.00,1.53
5889.00,1.53
5888.00,1.53
5887.00,1.53
5886.00,1.54
5885.00,1.54
5884.00,1.54
5883.00,1.54
5882.00,1.54
5881.00,1.54
5880.00,1.55
5879.00,1.55
5878.00,1.55
5877.00,1.55
5876.00,1.55
5875.00,1.56
5874.00,1.56
5873.00,1.56
5872.00,1.56
5871.00,1.57
5870.00,1.57
5869.00,1.57
5868.00,1.57
5867.00,1.57
5866.00,1.57
5865.00,1.58
5864.00,1.58
5863.00,1.58
5862.00,1.58
5861.00,1.58
5860.00,1.58
5859.00,1.59
5858.00,1.59
5857.00,1.59
5856.00,1.59
5855.00,1.59
5854.00,1.59
5853.00,1.59
5852.00,1.60
5851.00,1.60
5850.00,1.60
5849.00,1.60
5848.00,1.60
5847.00,1.60
5846.00,1.60
5845.00,1.61
5844.00,1.61
5843.00,1.61
5842.00,1.61
5841.00,1.61
5840.00,1.61
5839.00,1.62
5838.00,1.62
5837.00,1.62
5836.00,1.62
5835.00,1.62
5834.00,1.62
5833.00,1.63
5832.00,1.63
5831.00,1.63
5830.00,1.63
5829.00,1.63
5828.00,1.63
5827.00,1.63
5826.00,1.63
5825.00,1.63
5824.00,1.63
5823.00,1.63
5822.00,1.63
5821.00,1.63
5820.00,1.63
5819.00,1.63
5818.00,1.63
5817.00,1.63
5816.00,1.63
5815.00,1.63
5814.00,1.63
5813.00,1.63
5812.00,1.63
5811.00,1.63
5810.00,1.63
5809.00,1.63
5808.00,1.63
5807.00,1.63
5806.00,1.63
5805.00,1.62
5804.00,1.62
5803.00,1.62
5802.00,1.62
5801.00,1.62
5800.00,1.62
5799.00,1.61
5798.00,1.61
5797.00,1.61
5796.00,1.61
5795.00,1.60
5794.00,1.60
5793.00,1.60
5792.00,1.60
5791.00,1.59
5790.00,1.59
5789.00,1.59
5788.00,1.59
5787.00,1.58
5786.00,1.58
5785.00,1.58
5784.00,1.58
5783.00,1.58
5782.00,1.58
5781.00,1.58
5780.00,1.57
5779.00,1.57
5778.00,1.57
5777.00,1.57
5776.00,1.57
5775.00,1.57
5774.00,1.57
5773.00,1.57
5772.00,1.57
5771.00,1.57
5770.00,1.58
5769.00,1.58
5768.00,1.58
5767.00,1.58
5766.00,1.58
5765.00,1.59
5764.00,1.59
5763.00,1.59
5762.00,1.59
5761.00,1.59
5760.00,1.60
5759.00,1.60
5758.00,1.60
5757.00,1.60
5756.00,1.60
5755.00,1.60
5754.00,1.60
5753.00,1.61
5752.00,1.61
5751.00,1.61
5750.00,1.61
5749.00,1.61
5748.00,1.61
5747.00,1.61
5746.00,1.61
5745.00,1.61
5744.00,1.61
5743.00,1.61
5742.00,1.61
5741.00,1.61
5740.00,1.61
5739.00,1.61
5738.00,1.60
5737.00,1.60
5736.00,1.60
5735.00,1.60
5734.00,1.60
5733.00,1.60
5732.00,1.60
5731.00,1.59
5730.00,1.59
5729.00,1.59
5728.00,1.59
5727.00,1.59
5726.00,1.59
5725.00,1.59
5724.00,1.59
5723.00,1.59
5722.00,1.59
5721.00,1.59
5720.00,1.59
5719.00,1.59
5718.00,1.59
5717.00,1.59
5716.00,1.59
5715.00,1.59
5714.00,1.59
5713.00,1.60
5712.00,1.60
5711.00,1.60
5710.00,1.60
5709.00,1.60
5708.00,1.60
5707.00,1.61
5706.00,1.61
5705.00,1.61
5704.00,1.61
5703.00,1.61
5702.00,1.61
5701.00,1.61
5700.00,1.61
5699.00,1.61
5698.00,1.61
5697.00,1.61
5696.00,1.61
5695.00,1.61
5694.00,1.61
5693.00,1.61
5692.00,1.61
5691.00,1.61
5690.00,1.61
5689.00,1.61
5688.00,1.60
5687.00,1.60
5686.00,1.60
5685.00,1.60
5684.00,1.60
5683.00,1.60
5682.00,1.59
5681.00,1.59
5680.00,1.59
5679.00,1.59
5678.00,1.59
5677.00,1.59
5676.00,1.59
5675.00,1.58
5674.00,1.58
5673.00,1.58
5672.00,1.58
5671.00,1.58
5670.00,1.58
5669.00,1.58
5668.00,1.58
5667.00,1.58
5666.00,1.58
5665.00,1.58
5664.00,1.58
5663.00,1.58
5662.00,1.58
5661.00,1.58
5660.00,1.58
5659.00,1.58
5658.00,1.58
5657.00,1.58
5656.00,1.58
5655.00,1.58
5654.00,1.58
5653.00,1.59
5652.00,1.58
5651.00,1.58
5650.00,1.58
5649.00,1.58
5648.00,1.58
5647.00,1.58
5646.00,1.58
5645.00,1.58
5644.00,1.58
5643.00,1.58
5642.00,1.58
5641.00,1.58
5640.00,1.58
5639.00,1.58
5638.00,1.59
5637.00,1.59
5636.00,1.59
5635.00,1.59
5634.00,1.59
5633.00,1.59
5632.00,1.59
5631.00,1.60
5630.00,1.60
5629.00,1.60
5628.00,1.60
5627.00,1.60
5626.00,1.60
5625.00,1.61
5624.00,1.61
5623.00,1.61
5622.00,1.61
5621.00,1.62
5620.00,1.62
5619.00,1.62
5618.00,1.62
5617.00,1.62
5616.00,1.63
5615.00,1.63
5614.00,1.63
5613.00,1.63
5612.00,1.63
5611.00,1.63
5610.00,1.63
5609.00,1.64
5608.00,1.64
5607.00,1.64
5606.00,1.64
5605.00,1.64
5604.00,1.64
5603.00,1.64
5602.00,1.65
5601.00,1.65
5600.00,1.65
5599.00,1.65
5598.00,1.65
5597.00,1.65
5596.00,1.65
5595.00,1.65
5594.00,1.65
5593.00,1.65
5592.00,1.65
5591.00,1.65
5590.00,1.66
5589.00,1.66
5588.00,1.66
5587.00,1.66
5586.00,1.66
5585.00,1.66
5584.00,1.66
5583.00,1.66
5582.00,1.66
5581.00,1.66
5580.00,1.66
5579.00,1.65
5578.00,1.65
5577.00,1.65
5576.00,1.65
5575.00,1.65
5574.00,1.65
5573.00,1.65
5572.00,1.65
5571.00,1.65
5570.00,1.65
5569.00,1.65
5568.00,1.65
5567.00,1.65
5566.00,1.65
5565.00,1.65
5564.00,1.65
5563.00,1.65
5562.00,1.65
5561.00,1.65
5560.00,1.65
5559.00,1.66
5558.00,1.66
5557.00,1.66
5556.00,1.66
5555.00,1.66
5554.00,1.66
5553.00,1.66
5552.00,1.67
5551.00,1.67
5550.00,1.67
5549.00,1.67
5548.00,1.67
5547.00,1.67
5546.00,1.67
5545.00,1.67
5544.00,1.68
5543.00,1.68
5542.00,1.68
5541.00,1.68
5540.00,1.68
5539.00,1.68
5538.00,1.68
5537.00,1.69
5536.00,1.69
5535.00,1.69
5534.00,1.69
5533.00,1.69
5532.00,1.69
5531.00,1.69
5530.00,1.69
5529.00,1.69
5528.00,1.70
5527.00,1.70
5526.00,1.70
5525.00,1.70
5524.00,1.70
5523.00,1.71
5522.00,1.71
5521.00,1.71
5520.00,1.71
5519.00,1.71
5518.00,1.72
5517.00,1.72
5516.00,1.72
5515.00,1.72
5514.00,1.72
5513.00,1.72
5512.00,1.72
5511.00,1.73
5510.00,1.73
5509.00,1.73
5508.00,1.73
5507.00,1.73
5506.00,1.73
5505.00,1.73
5504.00,1.74
5503.00,1.74
5502.00,1.74
5501.00,1.74
5500.00,1.74
5499.00,1.74
5498.00,1.74
5497.00,1.74
5496.00,1.74
5495.00,1.74
5494.00,1.74
5493.00,1.74
5492.00,1.75
5491.00,1.75
5490.00,1.75
5489.00,1.75
5488.00,1.75
5487.00,1.75
5486.00,1.75
5485.00,1.75
5484.00,1.75
5483.00,1.75
5482.00,1.75
5481.00,1.75
5480.00,1.75
5479.00,1.75
5478.00,1.75
5477.00,1.75
5476.00,1.75
5475.00,1.76
5474.00,1.76
5473.00,1.76
5472.00,1.76
5471.00,1.76
5470.00,1.76
5469.00,1.76
5468.00,1.76
5467.00,1.76
5466.00,1.76
5465.00,1.76
5464.00,1.76
5463.00,1.76
5462.00,1.76
5461.00,1.76
5460.00,1.76
5459.00,1.76
5458.00,1.77
5457.00,1.77
5456.00,1.77
5455.00,1.77
5454.00,1.77
5453.00,1.77
5452.00,1.77
5451.00,1.78
5450.00,1.78
5449.00,1.78
5448.00,1.78
5447.00,1.78
5446.00,1.79
5445.00,1.79
5444.00,1.79
5443.00,1.79
5442.00,1.79
5441.00,1.80
5440.00,1.80
5439.00,1.80
5438.00,1.80
5437.00,1.80
5436.00,1.80
5435.00,1.80
5434.00,1.80
5433.00,1.81
5432.00,1.81
5431.00,1.81
5430.00,1.81
5429.00,1.81
5428.00,1.81
5427.00,1.81
5426.00,1.81
5425.00,1.81
5424.00,1.81
5423.00,1.81
5422.00,1.80
5421.00,1.80
5420.00,1.80
5419.00,1.80
5418.00,1.80
5417.00,1.80
5416.00,1.80
5415.00,1.80
5414.00,1.80
5413.00,1.80
5412.00,1.80
5411.00,1.81
5410.00,1.81
5409.00,1.81
5408.00,1.81
5407.00,1.81
5406.00,1.81
5405.00,1.81
5404.00,1.81
5403.00,1.81
5402.00,1.80
5401.00,1.80
5400.00,1.80
5399.00,1.80
5398.00,1.80
5397.00,1.80
5396.00,1.80
5395.00,1.80
5394.00,1.80
5393.00,1.80
5392.00,1.79
5391.00,1.79
5390.00,1.79
5389.00,1.78
5388.00,1.78
5387.00,1.78
5386.00,1.77
5385.00,1.77
5384.00,1.76
5383.00,1.76
5382.00,1.75
5381.00,1.75
5380.00,1.75
5379.00,1.74
5378.00,1.74
5377.00,1.73
5376.00,1.73
5375.00,1.72
5374.00,1.72
5373.00,1.71
5372.00,1.71
5371.00,1.70
5370.00,1.70
5369.00,1.69
5368.00,1.69
5367.00,1.68
5366.00,1.68
5365.00,1.68
5364.00,1.67
5363.00,1.67
5362.00,1.66
5361.00,1.66
5360.00,1.65
5359.00,1.65
5358.00,1.64
5357.00,1.64
5356.00,1.63
5355.00,1.63
5354.00,1.62
5353.00,1.62
5352.00,1.61
5351.00,1.61
5350.00,1.60
5349.00,1.60
5348.00,1.59
5347.00,1.58
5346.00,1.57
5345.00,1.57
5344.00,1.56
5343.00,1.55
5342.00,1.54
5341.00,1.53
5340.00,1.52
5339.00,1.51
5338.00,1.50
5337.00,1.48
5336.00,1.47
5335.00,1.46
5334.00,1.45
5333.00,1.44
5332.00,1.42
5331.00,1.41
5330.00,1.40
5329.00,1.38
5328.00,1.37
5327.00,1.35
5326.00,1.34
5325.00,1.33
5324.00,1.31
5323.00,1.30
5322.00,1.28
5321.00,1.27
5320.00,1.25
5319.00,1.24
5318.00,1.23
5317.00,1.21
5316.00,1.20
5315.00,1.19
5314.00,1.17
5313.00,1.16
5312.00,1.15
5311.00,1.14
5310.00,1.13
5309.00,1.11
5308.00,1.10
5307.00,1.09
5306.00,1.08
5305.00,1.07
5304.00,1.06
5303.00,1.05
5302.00,1.04
5301.00,1.03
5300.00,1.02
5299.00,1.01
5298.00,1.00
5297.00,0.99
5296.00,0.98
5295.00,0.97
5294.00,0.97
5293.00,0.96
5292.00,0.95
5291.00,0.94
5290.00,0.94
5289.00,0.93
5288.00,0.92
5287.00,0.92
5286.00,0.91
5285.00,0.90
5284.00,0.90
5283.00,0.89
5282.00,0.89
5281.00,0.88
5280.00,0.88
5279.00,0.87
5278.00,0.87
5277.00,0.87
5276.00,0.86
5275.00,0.86
5274.00,0.86
5273.00,0.85
5272.00,0.85
5271.00,0.85
5270.00,0.85
5269.00,0.84
5268.00,0.84
5267.00,0.84
5266.00,0.84
5265.00,0.83
5264.00,0.83
5263.00,0.83
5262.00,0.83
5261.00,0.83
5260.00,0.83
5259.00,0.83
5258.00,0.83
5257.00,0.83
5256.00,0.83
5255.00,0.83
5254.00,0.83
5253.00,0.83
5252.00,0.82
5251.00,0.82
5250.00,0.82
5249.00,0.82
5248.00,0.82
5247.00,0.82
5246.00,0.81
5245.00,0.81
5244.00,0.81
5243.00,0.81
5242.00,0.81
5241.00,0.80
5240.00,0.80
5239.00,0.80
5238.00,0.80
5237.00,0.79
5236.00,0.79
5235.00,0.79
5234.00,0.79
5233.00,0.79
5232.00,0.78
5231.00,0.78
5230.00,0.78
5229.00,0.78
5228.00,0.77
5227.00,0.77
5226.00,0.77
5225.00,0.77
5224.00,0.77
5223.00,0.77
5222.00,0.77
5221.00,0.77
5220.00,0.77
5219.00,0.77
5218.00,0.77
5217.00,0.77
5216.00,0.77
5215.00,0.77
5214.00,0.77
5213.00,0.78
5212.00,0.78
5211.00,0.78
5210.00,0.78
5209.00,0.78
5208.00,0.78
5207.00,0.78
5206.00,0.78
5205.00,0.79
5204.00,0.79
5203.00,0.79
5202.00,0.79
5201.00,0.79
5200.00,0.79
5199.00,0.79
5198.00,0.79
5197.00,0.79
5196.00,0.79
5195.00,0.79
5194.00,0.79
5193.00,0.79
5192.00,0.79
5191.00,0.79
5190.00,0.79
5189.00,0.79
5188.00,0.79
5187.00,0.79
5186.00,0.79
5185.00,0.79
5184.00,0.79
5183.00,0.78
5182.00,0.78
5181.00,0.78
5180.00,0.78
5179.00,0.78
5178.00,0.78
5177.00,0.78
5176.00,0.78
5175.00,0.78
5174.00,0.78
5173.00,0.78
5172.00,0.78
5171.00,0.78
5170.00,0.78
5169.00,0.78
5168.00,0.78
5167.00,0.78
5166.00,0.78
5165.00,0.78
5164.00,0.79
5163.00,0.79
5162.00,0.79
5161.00,0.79
5160.00,0.79
5159.00,0.79
5158.00,0.79
5157.00,0.79
5156.00,0.79
5155.00,0.79
5154.00,0.79
5153.00,0.79
5152.00,0.79
5151.00,0.79
5150.00,0.79
5149.00,0.79
5148.00,0.79
5147.00,0.79
5146.00,0.79
5145.00,0.79
5144.00,0.79
5143.00,0.79
5142.00,0.79
5141.00,0.79
5140.00,0.79
5139.00,0.79
5138.00,0.79
5137.00,0.79
5136.00,0.79
5135.00,0.79
5134.00,0.79
5133.00,0.79
5132.00,0.79
5131.00,0.79
5130.00,0.79
5129.00,0.79
5128.00,0.79
5127.00,0.79
5126.00,0.79
5125.00,0.79
5124.00,0.79
5123.00,0.79
5122.00,0.79
5121.00,0.79
5120.00,0.79
5119.00,0.79
5118.00,0.79
5117.00,0.79
5116.00,0.79
5115.00,0.80
5114.00,0.80
5113.00,0.80
5112.00,0.80
5111.00,0.80
5110.00,0.81
5109.00,0.81
5108.00,0.81
5107.00,0.81
5106.00,0.82
5105.00,0.82
5104.00,0.82
5103.00,0.82
5102.00,0.82
5101.00,0.82
5100.00,0.83
5099.00,0.83
5098.00,0.83
5097.00,0.83
5096.00,0.83
5095.00,0.84
5094.00,0.84
5093.00,0.84
5092.00,0.84
5091.00,0.84
5090.00,0.84
5089.00,0.84
5088.00,0.84
5087.00,0.84
5086.00,0.84
5085.00,0.84
5084.00,0.84
5083.00,0.84
5082.00,0.84
5081.00,0.84
5080.00,0.84
5079.00,0.84
5078.00,0.84
5077.00,0.84
5076.00,0.84
5075.00,0.84
5074.00,0.84
5073.00,0.84
5072.00,0.84
5071.00,0.84
5070.00,0.84
5069.00,0.84
5068.00,0.84
5067.00,0.85
5066.00,0.85
5065.00,0.85
5064.00,0.85
5063.00,0.85
5062.00,0.85
5061.00,0.86
5060.00,0.86
5059.00,0.86
5058.00,0.86
5057.00,0.87
5056.00,0.87
5055.00,0.87
5054.00,0.88
5053.00,0.88
5052.00,0.88
5051.00,0.88
5050.00,0.89
5049.00,0.89
5048.00,0.89
5047.00,0.89
5046.00,0.90
5045.00,0.90
5044.00,0.90
5043.00,0.90
5042.00,0.91
5041.00,0.91
5040.00,0.91
5039.00,0.91
5038.00,0.91
5037.00,0.92
5036.00,0.92
5035.00,0.92
5034.00,0.92
5033.00,0.92
5032.00,0.92
5031.00,0.93
5030.00,0.93
5029.00,0.93
5028.00,0.93
5027.00,0.93
5026.00,0.93
5025.00,0.93
5024.00,0.94
5023.00,0.94
5022.00,0.94
5021.00,0.94
5020.00,0.94
5019.00,0.94
5018.00,0.95
5017.00,0.95
5016.00,0.95
5015.00,0.95
5014.00,0.95
5013.00,0.96
5012.00,0.96
5011.00,0.96
5010.00,0.96
5009.00,0.97
5008.00,0.97
5007.00,0.97
5006.00,0.97
5005.00,0.98
5004.00,0.98
5003.00,0.98
5002.00,0.98
5001.00,0.99
5000.00,0.99
4999.00,0.99
4998.00,0.99
4997.00,1.00
4996.00,1.00
4995.00,1.00
4994.00,1.00
4993.00,1.00
4992.00,1.01
4991.00,1.01
4990.00,1.01
4989.00,1.01
4988.00,1.02
4987.00,1.02
4986.00,1.02
4985.00,1.02
4984.00,1.02
4983.00,1.03
4982.00,1.03
4981.00,1.03
4980.00,1.03
4979.00,1.03
4978.00,1.03
4977.00,1.04
4976.00,1.04
4975.00,1.04
4974.00,1.04
4973.00,1.04
4972.00,1.04
4971.00,1.05
4970.00,1.05
4969.00,1.05
4968.00,1.05
4967.00,1.06
4966.00,1.06
4965.00,1.06
4964.00,1.06
4963.00,1.06
4962.00,1.07
4961.00,1.07
4960.00,1.07
4959.00,1.07
4958.00,1.08
4957.00,1.08
4956.00,1.08
4955.00,1.08
4954.00,1.09
4953.00,1.09
4952.00,1.09
4951.00,1.09
4950.00,1.09
4949.00,1.09
4948.00,1.10
4947.00,1.10
4946.00,1.10
4945.00,1.10
4944.00,1.10
4943.00,1.10
4942.00,1.10
4941.00,1.11
4940.00,1.11
4939.00,1.11
4938.00,1.11
4937.00,1.11
4936.00,1.11
4935.00,1.11
4934.00,1.11
4933.00,1.12
4932.00,1.12
4931.00,1.12
4930.00,1.12
4929.00,1.12
4928.00,1.12
4927.00,1.12
4926.00,1.12
4925.00,1.13
4924.00,1.13
4923.00,1.13
4922.00,1.13
4921.00,1.13
4920.00,1.13
4919.00,1.13
4918.00,1.13
4917.00,1.13
4916.00,1.13
4915.00,1.13
4914.00,1.12
4913.00,1.12
4912.00,1.12
4911.00,1.12
4910.00,1.12
4909.00,1.12
4908.00,1.12
4907.00,1.12
4906.00,1.11
4905.00,1.11
4904.00,1.11
4903.00,1.11
4902.00,1.11
4901.00,1.11
4900.00,1.11
4899.00,1.11
4898.00,1.11
4897.00,1.11
4896.00,1.11
4895.00,1.11
4894.00,1.11
4893.00,1.11
4892.00,1.11
4891.00,1.12
4890.00,1.12
4889.00,1.12
4888.00,1.12
4887.00,1.13
4886.00,1.13
4885.00,1.13
4884.00,1.14
4883.00,1.14
4882.00,1.14
4881.00,1.15
4880.00,1.15
4879.00,1.15
4878.00,1.16
4877.00,1.16
4876.00,1.16
4875.00,1.17
4874.00,1.17
4873.00,1.18
4872.00,1.18
4871.00,1.18
4870.00,1.19
4869.00,1.19
4868.00,1.19
4867.00,1.20
4866.00,1.20
4865.00,1.21
4864.00,1.21
4863.00,1.21
4862.00,1.22
4861.00,1.22
4860.00,1.23
4859.00,1.23
4858.00,1.23
4857.00,1.24
4856.00,1.24
4855.00,1.24
4854.00,1.25
4853.00,1.25
4852.00,1.25
4851.00,1.26
4850.00,1.26
4849.00,1.26
4848.00,1.26
4847.00,1.26
4846.00,1.26
4845.00,1.27
4844.00,1.27
4843.00,1.27
4842.00,1.27
4841.00,1.27
4840.00,1.27
4839.00,1.27
4838.00,1.27
4837.00,1.27
4836.00,1.27
4835.00,1.27
4834.00,1.27
4833.00,1.27
4832.00,1.27
4831.00,1.27
4830.00,1.27
4829.00,1.27
4828.00,1.27
4827.00,1.27
4826.00,1.27
4825.00,1.26
4824.00,1.26
4823.00,1.26
4822.00,1.26
4821.00,1.26
4820.00,1.26
4819.00,1.26
4818.00,1.26
4817.00,1.26
4816.00,1.26
4815.00,1.26
4814.00,1.26
4813.00,1.26
4812.00,1.26
4811.00,1.26
4810.00,1.26
4809.00,1.26
4808.00,1.26
4807.00,1.26
4806.00,1.26
4805.00,1.26
4804.00,1.26
4803.00,1.26
4802.00,1.26
4801.00,1.27
4800.00,1.27
4799.00,1.27
4798.00,1.28
4797.00,1.28
4796.00,1.28
4795.00,1.29
4794.00,1.29
4793.00,1.29
4792.00,1.30
4791.00,1.30
4790.00,1.31
4789.00,1.31
4788.00,1.32
4787.00,1.32
4786.00,1.32
4785.00,1.33
4784.00,1.33
4783.00,1.34
4782.00,1.34
4781.00,1.34
4780.00,1.35
4779.00,1.35
4778.00,1.36
4777.00,1.36
4776.00,1.36
4775.00,1.37
4774.00,1.37
4773.00,1.37
4772.00,1.37
4771.00,1.38
4770.00,1.38
4769.00,1.38
4768.00,1.39
4767.00,1.39
4766.00,1.39
4765.00,1.39
4764.00,1.39
4763.00,1.40
4762.00,1.40
4761.00,1.40
4760.00,1.40
4759.00,1.40
4758.00,1.41
4757.00,1.41
4756.00,1.41
4755.00,1.41
4754.00,1.42
4753.00,1.42
4752.00,1.42
4751.00,1.42
4750.00,1.43
4749.00,1.43
4748.00,1.43
4747.00,1.43
4746.00,1.43
4745.00,1.43
4744.00,1.44
4743.00,1.44
4742.00,1.44
4741.00,1.44
4740.00,1.44
4739.00,1.44
4738.00,1.45
4737.00,1.45
4736.00,1.45
4735.00,1.45
4734.00,1.45
4733.00,1.45
4732.00,1.45
4731.00,1.45
4730.00,1.45
4729.00,1.46
4728.00,1.46
4727.00,1.46
4726.00,1.46
4725.00,1.46
4724.00,1.46
4723.00,1.46
4722.00,1.46
4721.00,1.46
4720.00,1.47
4719.00,1.47
4718.00,1.47
4717.00,1.47
4716.00,1.47
4715.00,1.47
4714.00,1.47
4713.00,1.47
4712.00,1.47
4711.00,1.48
4710.00,1.48
4709.00,1.48
4708.00,1.48
4707.00,1.48
4706.00,1.48
4705.00,1.48
4704.00,1.49
4703.00,1.49
4702.00,1.49
4701.00,1.49
4700.00,1.49
4699.00,1.49
4698.00,1.49
4697.00,1.49
4696.00,1.50
4695.00,1.50
4694.00,1.50
4693.00,1.50
4692.00,1.50
4691.00,1.51
4690.00,1.51
4689.00,1.51
4688.00,1.51
4687.00,1.52
4686.00,1.52
4685.00,1.52
4684.00,1.53
4683.00,1.53
4682.00,1.53
4681.00,1.53
4680.00,1.54
4679.00,1.54
4678.00,1.54
4677.00,1.55
4676.00,1.55
4675.00,1.55
4674.00,1.56
4673.00,1.56
4672.00,1.56
4671.00,1.57
4670.00,1.57
4669.00,1.58
4668.00,1.58
4667.00,1.58
4666.00,1.59
4665.00,1.59
4664.00,1.60
4663.00,1.60
4662.00,1.60
4661.00,1.60
4660.00,1.61
4659.00,1.61
4658.00,1.61
4657.00,1.61
4656.00,1.62
4655.00,1.62
4654.00,1.63
4653.00,1.63
4652.00,1.63
4651.00,1.64
4650.00,1.64
4649.00,1.64
4648.00,1.65
4647.00,1.65
4646.00,1.65
4645.00,1.65
4644.00,1.65
4643.00,1.66
4642.00,1.66
4641.00,1.66
4640.00,1.66
4639.00,1.66
4638.00,1.66
4637.00,1.66
4636.00,1.66
4635.00,1.66
4634.00,1.66
4633.00,1.66
4632.00,1.66
4631.00,1.66
4630.00,1.66
4629.00,1.66
4628.00,1.66
4627.00,1.66
4626.00,1.66
4625.00,1.66
4624.00,1.66
4623.00,1.66
4622.00,1.65
4621.00,1.65
4620.00,1.65
4619.00,1.65
4618.00,1.65
4617.00,1.65
4616.00,1.65
4615.00,1.65
4614.00,1.65
4613.00,1.65
4612.00,1.65
4611.00,1.65
4610.00,1.65
4609.00,1.66
4608.00,1.66
4607.00,1.66
4606.00,1.66
4605.00,1.66
4604.00,1.66
4603.00,1.66
4602.00,1.66
4601.00,1.67
4600.00,1.67
4599.00,1.67
4598.00,1.67
4597.00,1.67
4596.00,1.68
4595.00,1.68
4594.00,1.68
4593.00,1.68
4592.00,1.68
4591.00,1.69
4590.00,1.69
4589.00,1.69
4588.00,1.69
4587.00,1.69
4586.00,1.69
4585.00,1.69
4584.00,1.69
4583.00,1.70
4582.00,1.70
4581.00,1.70
4580.00,1.70
4579.00,1.70
4578.00,1.70
4577.00,1.70
4576.00,1.71
4575.00,1.71
4574.00,1.71
4573.00,1.71
4572.00,1.71
4571.00,1.71
4570.00,1.71
4569.00,1.72
4568.00,1.72
4567.00,1.72
4566.00,1.72
4565.00,1.72
4564.00,1.72
4563.00,1.72
4562.00,1.72
4561.00,1.72
4560.00,1.72
4559.00,1.72
4558.00,1.73
4557.00,1.73
4556.00,1.73
4555.00,1.73
4554.00,1.73
4553.00,1.73
4552.00,1.73
4551.00,1.74
4550.00,1.74
4549.00,1.74
4548.00,1.74
4547.00,1.74
4546.00,1.74
4545.00,1.74
4544.00,1.75
4543.00,1.75
4542.00,1.75
4541.00,1.75
4540.00,1.75
4539.00,1.75
4538.00,1.75
4537.00,1.75
4536.00,1.75
4535.00,1.76
4534.00,1.76
4533.00,1.76
4532.00,1.76
4531.00,1.76
4530.00,1.76
4529.00,1.76
4528.00,1.76
4527.00,1.76
4526.00,1.76
4525.00,1.77
4524.00,1.77
4523.00,1.77
4522.00,1.77
4521.00,1.77
4520.00,1.77
4519.00,1.77
4518.00,1.77
4517.00,1.77
4516.00,1.78
4515.00,1.78
4514.00,1.78
4513.00,1.78
4512.00,1.78
4511.00,1.79
4510.00,1.79
4509.00,1.79
4508.00,1.79
4507.00,1.79
4506.00,1.79
4505.00,1.80
4504.00,1.80
4503.00,1.80
4502.00,1.80
4501.00,1.80
4500.00,1.80
4499.00,1.80
4498.00,1.80
4497.00,1.80
4496.00,1.80
4495.00,1.80
4494.00,1.80
4493.00,1.80
4492.00,1.80
4491.00,1.80
4490.00,1.80
4489.00,1.79
4488.00,1.79
4487.00,1.79
4486.00,1.79
4485.00,1.78
4484.00,1.78
4483.00,1.78
4482.00,1.77
4481.00,1.77
4480.00,1.77
4479.00,1.76
4478.00,1.76
4477.00,1.75
4476.00,1.75
4475.00,1.74
4474.00,1.74
4473.00,1.73
4472.00,1.73
4471.00,1.73
4470.00,1.72
4469.00,1.72
4468.00,1.71
4467.00,1.71
4466.00,1.70
4465.00,1.70
4464.00,1.69
4463.00,1.69
4462.00,1.68
4461.00,1.68
4460.00,1.67
4459.00,1.67
4458.00,1.66
4457.00,1.66
4456.00,1.66
4455.00,1.65
4454.00,1.65
4453.00,1.64
4452.00,1.64
4451.00,1.63
4450.00,1.63
4449.00,1.62
4448.00,1.62
4447.00,1.61
4446.00,1.61
4445.00,1.60
4444.00,1.59
4443.00,1.59
4442.00,1.58
4441.00,1.58
4440.00,1.57
4439.00,1.56
4438.00,1.56
4437.00,1.55
4436.00,1.55
4435.00,1.54
4434.00,1.53
4433.00,1.52
4432.00,1.52
4431.00,1.51
4430.00,1.50
4429.00,1.50
4428.00,1.49
4427.00,1.48
4426.00,1.47
4425.00,1.46
4424.00,1.46
4423.00,1.45
4422.00,1.44
4421.00,1.43
4420.00,1.43
4419.00,1.42
4418.00,1.42
4417.00,1.41
4416.00,1.40
4415.00,1.40
4414.00,1.39
4413.00,1.39
4412.00,1.39
4411.00,1.38
4410.00,1.38
4409.00,1.38
4408.00,1.38
4407.00,1.38
4406.00,1.38
4405.00,1.38
4404.00,1.38
4403.00,1.38
4402.00,1.39
4401.00,1.39
4400.00,1.39
4399.00,1.40
4398.00,1.40
4397.00,1.41
4396.00,1.41
4395.00,1.42
4394.00,1.42
4393.00,1.43
4392.00,1.44
4391.00,1.44
4390.00,1.45
4389.00,1.45
4388.00,1.46
4387.00,1.47
4386.00,1.47
4385.00,1.48
4384.00,1.48
4383.00,1.49
4382.00,1.49
4381.00,1.49
4380.00,1.50
4379.00,1.50
4378.00,1.50
4377.00,1.50
4376.00,1.50
4375.00,1.50
4374.00,1.50
4373.00,1.50
4372.00,1.50
4371.00,1.50
4370.00,1.50
4369.00,1.49
4368.00,1.49
4367.00,1.48
4366.00,1.48
4365.00,1.48
4364.00,1.47
4363.00,1.47
4362.00,1.46
4361.00,1.46
4360.00,1.45
4359.00,1.44
4358.00,1.44
4357.00,1.44
4356.00,1.43
4355.00,1.43
4354.00,1.42
4353.00,1.42
4352.00,1.42
4351.00,1.41
4350.00,1.41
4349.00,1.41
4348.00,1.41
4347.00,1.40
4346.00,1.40
4345.00,1.40
4344.00,1.40
4343.00,1.40
4342.00,1.41
4341.00,1.41
4340.00,1.41
4339.00,1.41
4338.00,1.42
4337.00,1.42
4336.00,1.42
4335.00,1.43
4334.00,1.43
4333.00,1.44
4332.00,1.44
4331.00,1.45
4330.00,1.45
4329.00,1.46
4328.00,1.46
4327.00,1.47
4326.00,1.47
4325.00,1.48
4324.00,1.49
4323.00,1.49
4322.00,1.50
4321.00,1.51
4320.00,1.52
4319.00,1.52
4318.00,1.53
4317.00,1.54
4316.00,1.55
4315.00,1.55
4314.00,1.56
4313.00,1.57
4312.00,1.58
4311.00,1.59
4310.00,1.60
4309.00,1.60
4308.00,1.61
4307.00,1.62
4306.00,1.63
4305.00,1.64
4304.00,1.65
4303.00,1.65
4302.00,1.66
4301.00,1.67
4300.00,1.68
4299.00,1.69
4298.00,1.69
4297.00,1.70
4296.00,1.71
4295.00,1.71
4294.00,1.72
4293.00,1.72
4292.00,1.72
4291.00,1.73
4290.00,1.73
4289.00,1.73
4288.00,1.73
4287.00,1.74
4286.00,1.74
4285.00,1.74
4284.00,1.74
4283.00,1.74
4282.00,1.74
4281.00,1.73
4280.00,1.73
4279.00,1.73
4278.00,1.73
4277.00,1.72
4276.00,1.72
4275.00,1.72
4274.00,1.71
4273.00,1.71
4272.00,1.71
4271.00,1.70
4270.00,1.70
4269.00,1.70
4268.00,1.69
4267.00,1.69
4266.00,1.69
4265.00,1.69
4264.00,1.69
4263.00,1.68
4262.00,1.68
4261.00,1.68
4260.00,1.68
4259.00,1.68
4258.00,1.68
4257.00,1.68
4256.00,1.69
4255.00,1.69
4254.00,1.69
4253.00,1.69
4252.00,1.69
4251.00,1.70
4250.00,1.70
4249.00,1.70
4248.00,1.70
4247.00,1.71
4246.00,1.71
4245.00,1.71
4244.00,1.71
4243.00,1.72
4242.00,1.72
4241.00,1.72
4240.00,1.72
4239.00,1.72
4238.00,1.72
4237.00,1.72
4236.00,1.72
4235.00,1.72
4234.00,1.72
4233.00,1.72
4232.00,1.72
4231.00,1.72
4230.00,1.73
4229.00,1.73
4228.00,1.73
4227.00,1.73
4226.00,1.73
4225.00,1.73
4224.00,1.73
4223.00,1.73
4222.00,1.73
4221.00,1.73
4220.00,1.74
4219.00,1.74
4218.00,1.74
4217.00,1.74
4216.00,1.74
4215.00,1.75
4214.00,1.75
4213.00,1.75
4212.00,1.75
4211.00,1.76
4210.00,1.76
4209.00,1.76
4208.00,1.77
4207.00,1.77
4206.00,1.77
4205.00,1.77
4204.00,1.78
4203.00,1.78
4202.00,1.78
4201.00,1.78
4200.00,1.78
4199.00,1.78
4198.00,1.78
4197.00,1.78
4196.00,1.77
4195.00,1.77
4194.00,1.77
4193.00,1.77
4192.00,1.77
4191.00,1.76
4190.00,1.76
4189.00,1.76
4188.00,1.76
4187.00,1.75
4186.00,1.75
4185.00,1.74
4184.00,1.74
4183.00,1.74
4182.00,1.73
4181.00,1.73
4180.00,1.72
4179.00,1.72
4178.00,1.71
4177.00,1.71
4176.00,1.70
4175.00,1.70
4174.00,1.69
4173.00,1.69
4172.00,1.68
4171.00,1.68
4170.00,1.67
4169.00,1.67
4168.00,1.67
4167.00,1.66
4166.00,1.66
4165.00,1.65
4164.00,1.65
4163.00,1.64
4162.00,1.64
4161.00,1.64
4160.00,1.63
4159.00,1.63
4158.00,1.63
4157.00,1.62
4156.00,1.62
4155.00,1.62
4154.00,1.61
4153.00,1.61
4152.00,1.61
4151.00,1.61
4150.00,1.61
4149.00,1.61
4148.00,1.61
4147.00,1.61
4146.00,1.61
4145.00,1.61
4144.00,1.62
4143.00,1.62
4142.00,1.62
4141.00,1.62
4140.00,1.63
4139.00,1.63
4138.00,1.63
4137.00,1.63
4136.00,1.64
4135.00,1.64
4134.00,1.64
4133.00,1.64
4132.00,1.65
4131.00,1.65
4130.00,1.65
4129.00,1.66
4128.00,1.66
4127.00,1.66
4126.00,1.67
4125.00,1.67
4124.00,1.68
4123.00,1.68
4122.00,1.68
4121.00,1.68
4120.00,1.68
4119.00,1.68
4118.00,1.69
4117.00,1.69
4116.00,1.69
4115.00,1.69
4114.00,1.69
4113.00,1.69
4112.00,1.69
4111.00,1.69
4110.00,1.69
4109.00,1.69
4108.00,1.69
4107.00,1.69
4106.00,1.69
4105.00,1.69
4104.00,1.69
4103.00,1.69
4102.00,1.69
4101.00,1.68
4100.00,1.68
4099.00,1.68
4098.00,1.67
4097.00,1.67
4096.00,1.67
4095.00,1.66
4094.00,1.66
4093.00,1.66
4092.00,1.66
4091.00,1.65
4090.00,1.65
4089.00,1.65
4088.00,1.64
4087.00,1.64
4086.00,1.64
4085.00,1.63
4084.00,1.63
4083.00,1.62
4082.00,1.62
4081.00,1.62
4080.00,1.61
4079.00,1.61
4078.00,1.61
4077.00,1.61
4076.00,1.60
4075.00,1.60
4074.00,1.60
4073.00,1.60
4072.00,1.61
4071.00,1.61
4070.00,1.61
4069.00,1.61
4068.00,1.62
4067.00,1.62
4066.00,1.63
4065.00,1.63
4064.00,1.64
4063.00,1.64
4062.00,1.64
4061.00,1.65
4060.00,1.65
4059.00,1.66
4058.00,1.66
4057.00,1.67
4056.00,1.67
4055.00,1.68
4054.00,1.69
4053.00,1.69
4052.00,1.70
4051.00,1.70
4050.00,1.70
4049.00,1.71
4048.00,1.71
4047.00,1.71
4046.00,1.71
4045.00,1.72
4044.00,1.71
4043.00,1.71
4042.00,1.71
4041.00,1.71
4040.00,1.71
4039.00,1.71
4038.00,1.71
4037.00,1.70
4036.00,1.70
4035.00,1.70
4034.00,1.70
4033.00,1.70
4032.00,1.71
4031.00,1.71
4030.00,1.71
4029.00,1.71
4028.00,1.71
4027.00,1.72
4026.00,1.72
4025.00,1.72
4024.00,1.72
4023.00,1.73
4022.00,1.73
4021.00,1.73
4020.00,1.74
4019.00,1.74
4018.00,1.75
4017.00,1.76
4016.00,1.76
4015.00,1.77
4014.00,1.78
4013.00,1.79
4012.00,1.80
4011.00,1.81
4010.00,1.82
4009.00,1.83
4008.00,1.84
4007.00,1.85
4006.00,1.86
4005.00,1.87
4004.00,1.88
4003.00,1.89
4002.00,1.90
4001.00,1.91
4000.00,1.92
