创建为新数据集,样品 066 用户 Administrator 日期 星期五, 七月 26 2019
cm-1,%T
10000.00,1.90
9999.00,1.89
9998.00,1.88
9997.00,1.87
9996.00,1.86
9995.00,1.85
9994.00,1.84
9993.00,1.83
9992.00,1.81
9991.00,1.80
9990.00,1.79
9989.00,1.78
9988.00,1.77
9987.00,1.76
9986.00,1.75
9985.00,1.74
9984.00,1.73
9983.00,1.72
9982.00,1.71
9981.00,1.70
9980.00,1.70
9979.00,1.69
9978.00,1.68
9977.00,1.67
9976.00,1.67
9975.00,1.66
9974.00,1.65
9973.00,1.64
9972.00,1.63
9971.00,1.63
9970.00,1.62
9969.00,1.62
9968.00,1.61
9967.00,1.61
9966.00,1.61
9965.00,1.61
9964.00,1.61
9963.00,1.61
9962.00,1.61
9961.00,1.61
9960.00,1.61
9959.00,1.62
9958.00,1.62
9957.00,1.62
9956.00,1.62
9955.00,1.62
9954.00,1.62
9953.00,1.63
9952.00,1.63
9951.00,1.64
9950.00,1.64
9949.00,1.65
9948.00,1.66
9947.00,1.66
9946.00,1.67
9945.00,1.68
9944.00,1.68
9943.00,1.69
9942.00,1.70
9941.00,1.70
9940.00,1.70
9939.00,1.71
9938.00,1.71
9937.00,1.71
9936.00,1.72
9935.00,1.72
9934.00,1.72
9933.00,1.72
9932.00,1.72
9931.00,1.72
9930.00,1.72
9929.00,1.72
9928.00,1.72
9927.00,1.72
9926.00,1.71
9925.00,1.71
9924.00,1.71
9923.00,1.70
9922.00,1.70
9921.00,1.70
9920.00,1.69
9919.00,1.69
9918.00,1.69
9917.00,1.69
9916.00,1.69
9915.00,1.69
9914.00,1.69
9913.00,1.69
9912.00,1.68
9911.00,1.68
9910.00,1.68
9909.00,1.68
9908.00,1.67
9907.00,1.67
9906.00,1.67
9905.00,1.66
9904.00,1.66
9903.00,1.66
9902.00,1.66
9901.00,1.66
9900.00,1.66
9899.00,1.66
9898.00,1.65
9897.00,1.65
9896.00,1.65
9895.00,1.65
9894.00,1.65
9893.00,1.64
9892.00,1.64
9891.00,1.63
9890.00,1.63
9889.00,1.62
9888.00,1.62
9887.00,1.62
9886.00,1.62
9885.00,1.61
9884.00,1.61
9883.00,1.61
9882.00,1.62
9881.00,1.62
9880.00,1.62
9879.00,1.62
9878.00,1.62
9877.00,1.63
9876.00,1.63
9875.00,1.63
9874.00,1.64
9873.00,1.64
9872.00,1.64
9871.00,1.65
9870.00,1.66
9869.00,1.66
9868.00,1.67
9867.00,1.68
9866.00,1.68
9865.00,1.69
9864.00,1.70
9863.00,1.70
9862.00,1.71
9861.00,1.71
9860.00,1.72
9859.00,1.72
9858.00,1.73
9857.00,1.73
9856.00,1.73
9855.00,1.73
9854.00,1.74
9853.00,1.74
9852.00,1.74
9851.00,1.74
9850.00,1.74
9849.00,1.74
9848.00,1.74
9847.00,1.74
9846.00,1.74
9845.00,1.74
9844.00,1.74
9843.00,1.73
9842.00,1.73
9841.00,1.72
9840.00,1.71
9839.00,1.71
9838.00,1.70
9837.00,1.70
9836.00,1.69
9835.00,1.69
9834.00,1.69
9833.00,1.69
9832.00,1.68
9831.00,1.68
9830.00,1.68
9829.00,1.68
9828.00,1.68
9827.00,1.67
9826.00,1.67
9825.00,1.67
9824.00,1.67
9823.00,1.67
9822.00,1.67
9821.00,1.67
9820.00,1.66
9819.00,1.66
9818.00,1.66
9817.00,1.67
9816.00,1.67
9815.00,1.67
9814.00,1.67
9813.00,1.67
9812.00,1.67
9811.00,1.67
9810.00,1.67
9809.00,1.67
9808.00,1.67
9807.00,1.67
9806.00,1.67
9805.00,1.67
9804.00,1.66
9803.00,1.66
9802.00,1.66
9801.00,1.66
9800.00,1.66
9799.00,1.66
9798.00,1.66
9797.00,1.66
9796.00,1.66
9795.00,1.66
9794.00,1.66
9793.00,1.66
9792.00,1.66
9791.00,1.66
9790.00,1.66
9789.00,1.66
9788.00,1.66
9787.00,1.66
9786.00,1.66
9785.00,1.66
9784.00,1.67
9783.00,1.67
9782.00,1.67
9781.00,1.68
9780.00,1.68
9779.00,1.69
9778.00,1.69
9777.00,1.69
9776.00,1.70
9775.00,1.70
9774.00,1.71
9773.00,1.71
9772.00,1.71
9771.00,1.72
9770.00,1.72
9769.00,1.73
9768.00,1.73
9767.00,1.74
9766.00,1.74
9765.00,1.74
9764.00,1.75
9763.00,1.75
9762.00,1.76
9761.00,1.76
9760.00,1.76
9759.00,1.76
9758.00,1.76
9757.00,1.77
9756.00,1.77
9755.00,1.77
9754.00,1.77
9753.00,1.77
9752.00,1.77
9751.00,1.76
9750.00,1.76
9749.00,1.76
9748.00,1.76
9747.00,1.75
9746.00,1.75
9745.00,1.74
9744.00,1.74
9743.00,1.73
9742.00,1.73
9741.00,1.72
9740.00,1.72
9739.00,1.71
9738.00,1.71
9737.00,1.70
9736.00,1.70
9735.00,1.69
9734.00,1.69
9733.00,1.68
9732.00,1.67
9731.00,1.66
9730.00,1.65
9729.00,1.64
9728.00,1.63
9727.00,1.62
9726.00,1.61
9725.00,1.60
9724.00,1.60
9723.00,1.59
9722.00,1.58
9721.00,1.58
9720.00,1.57
9719.00,1.56
9718.00,1.56
9717.00,1.55
9716.00,1.54
9715.00,1.54
9714.00,1.53
9713.00,1.52
9712.00,1.51
9711.00,1.51
9710.00,1.50
9709.00,1.50
9708.00,1.49
9707.00,1.49
9706.00,1.49
9705.00,1.49
9704.00,1.50
9703.00,1.50
9702.00,1.51
9701.00,1.51
9700.00,1.52
9699.00,1.52
9698.00,1.53
9697.00,1.54
9696.00,1.54
9695.00,1.55
9694.00,1.56
9693.00,1.56
9692.00,1.57
9691.00,1.58
9690.00,1.59
9689.00,1.59
9688.00,1.60
9687.00,1.61
9686.00,1.62
9685.00,1.63
9684.00,1.64
9683.00,1.65
9682.00,1.66
9681.00,1.66
9680.00,1.67
9679.00,1.68
9678.00,1.68
9677.00,1.68
9676.00,1.69
9675.00,1.69
9674.00,1.69
9673.00,1.69
9672.00,1.69
9671.00,1.70
9670.00,1.70
9669.00,1.70
9668.00,1.70
9667.00,1.70
9666.00,1.70
9665.00,1.70
9664.00,1.70
9663.00,1.70
9662.00,1.70
9661.00,1.70
9660.00,1.70
9659.00,1.70
9658.00,1.70
9657.00,1.70
9656.00,1.70
9655.00,1.70
9654.00,1.70
9653.00,1.70
9652.00,1.70
9651.00,1.70
9650.00,1.70
9649.00,1.70
9648.00,1.70
9647.00,1.70
9646.00,1.69
9645.00,1.69
9644.00,1.69
9643.00,1.69
9642.00,1.69
9641.00,1.68
9640.00,1.68
9639.00,1.68
9638.00,1.68
9637.00,1.68
9636.00,1.67
9635.00,1.67
9634.00,1.67
9633.00,1.67
9632.00,1.66
9631.00,1.66
9630.00,1.66
9629.00,1.65
9628.00,1.65
9627.00,1.65
9626.00,1.65
9625.00,1.65
9624.00,1.65
9623.00,1.65
9622.00,1.65
9621.00,1.66
9620.00,1.66
9619.00,1.67
9618.00,1.67
9617.00,1.67
9616.00,1.68
9615.00,1.68
9614.00,1.68
9613.00,1.69
9612.00,1.69
9611.00,1.69
9610.00,1.69
9609.00,1.70
9608.00,1.70
9607.00,1.70
9606.00,1.70
9605.00,1.70
9604.00,1.71
9603.00,1.71
9602.00,1.71
9601.00,1.71
9600.00,1.71
9599.00,1.71
9598.00,1.71
9597.00,1.71
9596.00,1.71
9595.00,1.71
9594.00,1.71
9593.00,1.71
9592.00,1.72
9591.00,1.72
9590.00,1.72
9589.00,1.72
9588.00,1.72
9587.00,1.72
9586.00,1.73
9585.00,1.73
9584.00,1.73
9583.00,1.73
9582.00,1.74
9581.00,1.74
9580.00,1.74
9579.00,1.74
9578.00,1.75
9577.00,1.75
9576.00,1.75
9575.00,1.75
9574.00,1.76
9573.00,1.76
9572.00,1.76
9571.00,1.76
9570.00,1.77
9569.00,1.77
9568.00,1.77
9567.00,1.77
9566.00,1.77
9565.00,1.76
9564.00,1.76
9563.00,1.75
9562.00,1.75
9561.00,1.74
9560.00,1.73
9559.00,1.72
9558.00,1.71
9557.00,1.71
9556.00,1.70
9555.00,1.69
9554.00,1.68
9553.00,1.67
9552.00,1.66
9551.00,1.65
9550.00,1.65
9549.00,1.64
9548.00,1.63
9547.00,1.62
9546.00,1.62
9545.00,1.61
9544.00,1.61
9543.00,1.60
9542.00,1.60
9541.00,1.59
9540.00,1.59
9539.00,1.59
9538.00,1.58
9537.00,1.58
9536.00,1.58
9535.00,1.58
9534.00,1.59
9533.00,1.59
9532.00,1.60
9531.00,1.60
9530.00,1.61
9529.00,1.61
9528.00,1.62
9527.00,1.63
9526.00,1.64
9525.00,1.64
9524.00,1.65
9523.00,1.66
9522.00,1.66
9521.00,1.66
9520.00,1.67
9519.00,1.67
9518.00,1.67
9517.00,1.67
9516.00,1.68
9515.00,1.68
9514.00,1.68
9513.00,1.68
9512.00,1.69
9511.00,1.69
9510.00,1.69
9509.00,1.70
9508.00,1.70
9507.00,1.70
9506.00,1.71
9505.00,1.71
9504.00,1.71
9503.00,1.71
9502.00,1.71
9501.00,1.71
9500.00,1.71
9499.00,1.71
9498.00,1.71
9497.00,1.72
9496.00,1.72
9495.00,1.72
9494.00,1.72
9493.00,1.72
9492.00,1.73
9491.00,1.73
9490.00,1.73
9489.00,1.73
9488.00,1.73
9487.00,1.74
9486.00,1.74
9485.00,1.74
9484.00,1.73
9483.00,1.73
9482.00,1.73
9481.00,1.73
9480.00,1.73
9479.00,1.73
9478.00,1.73
9477.00,1.73
9476.00,1.72
9475.00,1.72
9474.00,1.72
9473.00,1.72
9472.00,1.72
9471.00,1.72
9470.00,1.72
9469.00,1.72
9468.00,1.72
9467.00,1.71
9466.00,1.71
9465.00,1.71
9464.00,1.71
9463.00,1.71
9462.00,1.71
9461.00,1.71
9460.00,1.71
9459.00,1.71
9458.00,1.71
9457.00,1.71
9456.00,1.71
9455.00,1.71
9454.00,1.71
9453.00,1.71
9452.00,1.71
9451.00,1.71
9450.00,1.71
9449.00,1.71
9448.00,1.71
9447.00,1.71
9446.00,1.71
9445.00,1.71
9444.00,1.71
9443.00,1.71
9442.00,1.71
9441.00,1.72
9440.00,1.72
9439.00,1.72
9438.00,1.72
9437.00,1.73
9436.00,1.73
9435.00,1.73
9434.00,1.73
9433.00,1.74
9432.00,1.74
9431.00,1.74
9430.00,1.75
9429.00,1.75
9428.00,1.75
9427.00,1.76
9426.00,1.76
9425.00,1.76
9424.00,1.77
9423.00,1.77
9422.00,1.77
9421.00,1.78
9420.00,1.78
9419.00,1.78
9418.00,1.78
9417.00,1.79
9416.00,1.79
9415.00,1.79
9414.00,1.79
9413.00,1.79
9412.00,1.79
9411.00,1.79
9410.00,1.79
9409.00,1.78
9408.00,1.78
9407.00,1.78
9406.00,1.78
9405.00,1.77
9404.00,1.77
9403.00,1.77
9402.00,1.76
9401.00,1.76
9400.00,1.76
9399.00,1.75
9398.00,1.75
9397.00,1.75
9396.00,1.75
9395.00,1.75
9394.00,1.74
9393.00,1.74
9392.00,1.74
9391.00,1.73
9390.00,1.73
9389.00,1.72
9388.00,1.72
9387.00,1.72
9386.00,1.71
9385.00,1.71
9384.00,1.71
9383.00,1.70
9382.00,1.70
9381.00,1.70
9380.00,1.70
9379.00,1.70
9378.00,1.70
9377.00,1.70
9376.00,1.70
9375.00,1.70
9374.00,1.70
9373.00,1.70
9372.00,1.70
9371.00,1.70
9370.00,1.69
9369.00,1.69
9368.00,1.69
9367.00,1.69
9366.00,1.69
9365.00,1.69
9364.00,1.69
9363.00,1.69
9362.00,1.70
9361.00,1.70
9360.00,1.70
9359.00,1.70
9358.00,1.71
9357.00,1.71
9356.00,1.71
9355.00,1.71
9354.00,1.71
9353.00,1.71
9352.00,1.71
9351.00,1.71
9350.00,1.71
9349.00,1.71
9348.00,1.71
9347.00,1.70
9346.00,1.70
9345.00,1.70
9344.00,1.71
9343.00,1.71
9342.00,1.71
9341.00,1.71
9340.00,1.71
9339.00,1.70
9338.00,1.70
9337.00,1.70
9336.00,1.70
9335.00,1.70
9334.00,1.69
9333.00,1.69
9332.00,1.69
9331.00,1.68
9330.00,1.68
9329.00,1.68
9328.00,1.67
9327.00,1.67
9326.00,1.67
9325.00,1.67
9324.00,1.67
9323.00,1.66
9322.00,1.66
9321.00,1.66
9320.00,1.66
9319.00,1.66
9318.00,1.66
9317.00,1.66
9316.00,1.66
9315.00,1.67
9314.00,1.67
9313.00,1.67
9312.00,1.67
9311.00,1.67
9310.00,1.68
9309.00,1.68
9308.00,1.68
9307.00,1.69
9306.00,1.69
9305.00,1.70
9304.00,1.70
9303.00,1.71
9302.00,1.72
9301.00,1.72
9300.00,1.73
9299.00,1.73
9298.00,1.74
9297.00,1.74
9296.00,1.75
9295.00,1.75
9294.00,1.76
9293.00,1.76
9292.00,1.76
9291.00,1.77
9290.00,1.77
9289.00,1.77
9288.00,1.77
9287.00,1.77
9286.00,1.77
9285.00,1.77
9284.00,1.77
9283.00,1.76
9282.00,1.76
9281.00,1.76
9280.00,1.75
9279.00,1.74
9278.00,1.74
9277.00,1.73
9276.00,1.72
9275.00,1.72
9274.00,1.71
9273.00,1.70
9272.00,1.69
9271.00,1.69
9270.00,1.68
9269.00,1.67
9268.00,1.67
9267.00,1.66
9266.00,1.66
9265.00,1.65
9264.00,1.64
9263.00,1.64
9262.00,1.63
9261.00,1.62
9260.00,1.62
9259.00,1.62
9258.00,1.61
9257.00,1.61
9256.00,1.61
9255.00,1.61
9254.00,1.61
9253.00,1.62
9252.00,1.62
9251.00,1.62
9250.00,1.63
9249.00,1.63
9248.00,1.63
9247.00,1.64
9246.00,1.64
9245.00,1.64
9244.00,1.65
9243.00,1.65
9242.00,1.65
9241.00,1.65
9240.00,1.65
9239.00,1.66
9238.00,1.66
9237.00,1.66
9236.00,1.66
9235.00,1.66
9234.00,1.66
9233.00,1.66
9232.00,1.66
9231.00,1.66
9230.00,1.66
9229.00,1.66
9228.00,1.66
9227.00,1.65
9226.00,1.65
9225.00,1.65
9224.00,1.64
9223.00,1.64
9222.00,1.64
9221.00,1.64
9220.00,1.64
9219.00,1.64
9218.00,1.64
9217.00,1.64
9216.00,1.64
9215.00,1.64
9214.00,1.64
9213.00,1.64
9212.00,1.65
9211.00,1.65
9210.00,1.66
9209.00,1.66
9208.00,1.67
9207.00,1.68
9206.00,1.68
9205.00,1.69
9204.00,1.70
9203.00,1.71
9202.00,1.71
9201.00,1.72
9200.00,1.73
9199.00,1.73
9198.00,1.74
9197.00,1.75
9196.00,1.76
9195.00,1.76
9194.00,1.77
9193.00,1.78
9192.00,1.78
9191.00,1.79
9190.00,1.80
9189.00,1.80
9188.00,1.80
9187.00,1.81
9186.00,1.81
9185.00,1.81
9184.00,1.81
9183.00,1.81
9182.00,1.81
9181.00,1.81
9180.00,1.81
9179.00,1.81
9178.00,1.81
9177.00,1.81
9176.00,1.81
9175.00,1.81
9174.00,1.81
9173.00,1.81
9172.00,1.80
9171.00,1.80
9170.00,1.80
9169.00,1.80
9168.00,1.79
9167.00,1.79
9166.00,1.79
9165.00,1.79
9164.00,1.79
9163.00,1.79
9162.00,1.79
9161.00,1.79
9160.00,1.79
9159.00,1.79
9158.00,1.79
9157.00,1.79
9156.00,1.79
9155.00,1.78
9154.00,1.78
9153.00,1.78
9152.00,1.78
9151.00,1.78
9150.00,1.78
9149.00,1.78
9148.00,1.78
9147.00,1.77
9146.00,1.77
9145.00,1.77
9144.00,1.77
9143.00,1.77
9142.00,1.77
9141.00,1.76
9140.00,1.76
9139.00,1.76
9138.00,1.76
9137.00,1.75
9136.00,1.75
9135.00,1.75
9134.00,1.75
9133.00,1.74
9132.00,1.74
9131.00,1.74
9130.00,1.74
9129.00,1.74
9128.00,1.74
9127.00,1.74
9126.00,1.73
9125.00,1.73
9124.00,1.73
9123.00,1.73
9122.00,1.73
9121.00,1.73
9120.00,1.73
9119.00,1.73
9118.00,1.73
9117.00,1.73
9116.00,1.73
9115.00,1.73
9114.00,1.73
9113.00,1.73
9112.00,1.73
9111.00,1.73
9110.00,1.72
9109.00,1.72
9108.00,1.72
9107.00,1.72
9106.00,1.72
9105.00,1.72
9104.00,1.72
9103.00,1.72
9102.00,1.72
9101.00,1.72
9100.00,1.72
9099.00,1.71
9098.00,1.71
9097.00,1.71
9096.00,1.71
9095.00,1.71
9094.00,1.71
9093.00,1.71
9092.00,1.71
9091.00,1.71
9090.00,1.71
9089.00,1.71
9088.00,1.71
9087.00,1.71
9086.00,1.71
9085.00,1.71
9084.00,1.71
9083.00,1.70
9082.00,1.70
9081.00,1.70
9080.00,1.70
9079.00,1.69
9078.00,1.69
9077.00,1.68
9076.00,1.68
9075.00,1.67
9074.00,1.67
9073.00,1.66
9072.00,1.65
9071.00,1.65
9070.00,1.64
9069.00,1.64
9068.00,1.63
9067.00,1.62
9066.00,1.62
9065.00,1.61
9064.00,1.61
9063.00,1.60
9062.00,1.60
9061.00,1.59
9060.00,1.59
9059.00,1.59
9058.00,1.58
9057.00,1.58
9056.00,1.58
9055.00,1.58
9054.00,1.58
9053.00,1.58
9052.00,1.58
9051.00,1.59
9050.00,1.59
9049.00,1.60
9048.00,1.61
9047.00,1.61
9046.00,1.62
9045.00,1.63
9044.00,1.64
9043.00,1.65
9042.00,1.66
9041.00,1.66
9040.00,1.67
9039.00,1.68
9038.00,1.69
9037.00,1.70
9036.00,1.70
9035.00,1.71
9034.00,1.71
9033.00,1.72
9032.00,1.73
9031.00,1.73
9030.00,1.73
9029.00,1.74
9028.00,1.74
9027.00,1.75
9026.00,1.75
9025.00,1.75
9024.00,1.75
9023.00,1.75
9022.00,1.75
9021.00,1.75
9020.00,1.75
9019.00,1.75
9018.00,1.74
9017.00,1.74
9016.00,1.74
9015.00,1.73
9014.00,1.73
9013.00,1.73
9012.00,1.73
9011.00,1.73
9010.00,1.72
9009.00,1.72
9008.00,1.72
9007.00,1.72
9006.00,1.72
9005.00,1.72
9004.00,1.72
9003.00,1.73
9002.00,1.73
9001.00,1.73
9000.00,1.73
8999.00,1.73
8998.00,1.73
8997.00,1.73
8996.00,1.73
8995.00,1.74
8994.00,1.74
8993.00,1.74
8992.00,1.74
8991.00,1.75
8990.00,1.75
8989.00,1.75
8988.00,1.75
8987.00,1.76
8986.00,1.76
8985.00,1.76
8984.00,1.76
8983.00,1.76
8982.00,1.76
8981.00,1.75
8980.00,1.75
8979.00,1.75
8978.00,1.75
8977.00,1.74
8976.00,1.74
8975.00,1.73
8974.00,1.73
8973.00,1.72
8972.00,1.72
8971.00,1.71
8970.00,1.70
8969.00,1.69
8968.00,1.68
8967.00,1.68
8966.00,1.67
8965.00,1.66
8964.00,1.65
8963.00,1.64
8962.00,1.63
8961.00,1.62
8960.00,1.62
8959.00,1.61
8958.00,1.60
8957.00,1.60
8956.00,1.60
8955.00,1.59
8954.00,1.59
8953.00,1.59
8952.00,1.59
8951.00,1.59
8950.00,1.59
8949.00,1.59
8948.00,1.59
8947.00,1.59
8946.00,1.59
8945.00,1.59
8944.00,1.60
8943.00,1.60
8942.00,1.60
8941.00,1.61
8940.00,1.61
8939.00,1.61
8938.00,1.62
8937.00,1.62
8936.00,1.62
8935.00,1.63
8934.00,1.63
8933.00,1.63
8932.00,1.63
8931.00,1.63
8930.00,1.63
8929.00,1.63
8928.00,1.63
8927.00,1.63
8926.00,1.62
8925.00,1.62
8924.00,1.62
8923.00,1.62
8922.00,1.61
8921.00,1.61
8920.00,1.61
8919.00,1.61
8918.00,1.60
8917.00,1.60
8916.00,1.60
8915.00,1.60
8914.00,1.59
8913.00,1.59
8912.00,1.59
8911.00,1.59
8910.00,1.59
8909.00,1.59
8908.00,1.59
8907.00,1.59
8906.00,1.59
8905.00,1.59
8904.00,1.60
8903.00,1.60
8902.00,1.61
8901.00,1.61
8900.00,1.62
8899.00,1.62
8898.00,1.63
8897.00,1.63
8896.00,1.64
8895.00,1.64
8894.00,1.65
8893.00,1.65
8892.00,1.66
8891.00,1.66
8890.00,1.67
8889.00,1.67
8888.00,1.67
8887.00,1.68
8886.00,1.68
8885.00,1.69
8884.00,1.69
8883.00,1.69
8882.00,1.69
8881.00,1.70
8880.00,1.70
8879.00,1.70
8878.00,1.70
8877.00,1.70
8876.00,1.70
8875.00,1.70
8874.00,1.69
8873.00,1.69
8872.00,1.69
8871.00,1.69
8870.00,1.68
8869.00,1.68
8868.00,1.68
8867.00,1.68
8866.00,1.68
8865.00,1.68
8864.00,1.68
8863.00,1.68
8862.00,1.68
8861.00,1.68
8860.00,1.68
8859.00,1.68
8858.00,1.68
8857.00,1.68
8856.00,1.68
8855.00,1.68
8854.00,1.68
8853.00,1.68
8852.00,1.69
8851.00,1.69
8850.00,1.69
8849.00,1.69
8848.00,1.69
8847.00,1.69
8846.00,1.69
8845.00,1.69
8844.00,1.70
8843.00,1.70
8842.00,1.70
8841.00,1.70
8840.00,1.70
8839.00,1.70
8838.00,1.70
8837.00,1.70
8836.00,1.69
8835.00,1.69
8834.00,1.69
8833.00,1.69
8832.00,1.69
8831.00,1.69
8830.00,1.68
8829.00,1.68
8828.00,1.68
8827.00,1.68
8826.00,1.68
8825.00,1.67
8824.00,1.67
8823.00,1.67
8822.00,1.67
8821.00,1.67
8820.00,1.66
8819.00,1.66
8818.00,1.66
8817.00,1.66
8816.00,1.66
8815.00,1.65
8814.00,1.65
8813.00,1.65
8812.00,1.64
8811.00,1.64
8810.00,1.64
8809.00,1.63
8808.00,1.63
8807.00,1.63
8806.00,1.62
8805.00,1.62
8804.00,1.62
8803.00,1.62
8802.00,1.62
8801.00,1.62
8800.00,1.62
8799.00,1.62
8798.00,1.62
8797.00,1.62
8796.00,1.62
8795.00,1.62
8794.00,1.62
8793.00,1.63
8792.00,1.63
8791.00,1.63
8790.00,1.63
8789.00,1.63
8788.00,1.63
8787.00,1.63
8786.00,1.64
8785.00,1.64
8784.00,1.64
8783.00,1.64
8782.00,1.65
8781.00,1.65
8780.00,1.65
8779.00,1.65
8778.00,1.65
8777.00,1.65
8776.00,1.64
8775.00,1.64
8774.00,1.64
8773.00,1.64
8772.00,1.64
8771.00,1.64
8770.00,1.64
8769.00,1.64
8768.00,1.63
8767.00,1.63
8766.00,1.63
8765.00,1.63
8764.00,1.63
8763.00,1.63
8762.00,1.62
8761.00,1.62
8760.00,1.62
8759.00,1.62
8758.00,1.62
8757.00,1.62
8756.00,1.62
8755.00,1.62
8754.00,1.62
8753.00,1.62
8752.00,1.62
8751.00,1.62
8750.00,1.62
8749.00,1.62
8748.00,1.62
8747.00,1.62
8746.00,1.63
8745.00,1.63
8744.00,1.63
8743.00,1.63
8742.00,1.63
8741.00,1.63
8740.00,1.63
8739.00,1.64
8738.00,1.64
8737.00,1.64
8736.00,1.64
8735.00,1.65
8734.00,1.65
8733.00,1.65
8732.00,1.65
8731.00,1.66
8730.00,1.66
8729.00,1.66
8728.00,1.66
8727.00,1.66
8726.00,1.66
8725.00,1.66
8724.00,1.67
8723.00,1.67
8722.00,1.67
8721.00,1.67
8720.00,1.68
8719.00,1.68
8718.00,1.68
8717.00,1.68
8716.00,1.68
8715.00,1.68
8714.00,1.68
8713.00,1.68
8712.00,1.68
8711.00,1.68
8710.00,1.68
8709.00,1.67
8708.00,1.67
8707.00,1.67
8706.00,1.67
8705.00,1.67
8704.00,1.67
8703.00,1.67
8702.00,1.67
8701.00,1.67
8700.00,1.67
8699.00,1.67
8698.00,1.67
8697.00,1.66
8696.00,1.66
8695.00,1.66
8694.00,1.66
8693.00,1.65
8692.00,1.65
8691.00,1.65
8690.00,1.65
8689.00,1.65
8688.00,1.65
8687.00,1.66
8686.00,1.66
8685.00,1.66
8684.00,1.66
8683.00,1.66
8682.00,1.67
8681.00,1.67
8680.00,1.67
8679.00,1.67
8678.00,1.67
8677.00,1.67
8676.00,1.68
8675.00,1.68
8674.00,1.68
8673.00,1.68
8672.00,1.69
8671.00,1.69
8670.00,1.69
8669.00,1.70
8668.00,1.70
8667.00,1.70
8666.00,1.70
8665.00,1.71
8664.00,1.71
8663.00,1.71
8662.00,1.71
8661.00,1.71
8660.00,1.71
8659.00,1.71
8658.00,1.71
8657.00,1.71
8656.00,1.71
8655.00,1.71
8654.00,1.71
8653.00,1.71
8652.00,1.71
8651.00,1.71
8650.00,1.71
8649.00,1.71
8648.00,1.70
8647.00,1.70
8646.00,1.70
8645.00,1.70
8644.00,1.69
8643.00,1.69
8642.00,1.69
8641.00,1.68
8640.00,1.68
8639.00,1.68
8638.00,1.67
8637.00,1.67
8636.00,1.67
8635.00,1.66
8634.00,1.66
8633.00,1.65
8632.00,1.65
8631.00,1.65
8630.00,1.64
8629.00,1.64
8628.00,1.63
8627.00,1.63
8626.00,1.62
8625.00,1.62
8624.00,1.62
8623.00,1.61
8622.00,1.61
8621.00,1.61
8620.00,1.60
8619.00,1.60
8618.00,1.60
8617.00,1.60
8616.00,1.59
8615.00,1.59
8614.00,1.59
8613.00,1.59
8612.00,1.59
8611.00,1.59
8610.00,1.59
8609.00,1.59
8608.00,1.59
8607.00,1.59
8606.00,1.60
8605.00,1.60
8604.00,1.60
8603.00,1.60
8602.00,1.60
8601.00,1.60
8600.00,1.61
8599.00,1.61
8598.00,1.61
8597.00,1.62
8596.00,1.62
8595.00,1.62
8594.00,1.63
8593.00,1.63
8592.00,1.63
8591.00,1.63
8590.00,1.64
8589.00,1.64
8588.00,1.64
8587.00,1.64
8586.00,1.65
8585.00,1.65
8584.00,1.65
8583.00,1.65
8582.00,1.65
8581.00,1.65
8580.00,1.65
8579.00,1.66
8578.00,1.66
8577.00,1.66
8576.00,1.66
8575.00,1.66
8574.00,1.66
8573.00,1.67
8572.00,1.67
8571.00,1.67
8570.00,1.67
8569.00,1.67
8568.00,1.67
8567.00,1.67
8566.00,1.66
8565.00,1.66
8564.00,1.66
8563.00,1.66
8562.00,1.66
8561.00,1.66
8560.00,1.66
8559.00,1.66
8558.00,1.66
8557.00,1.66
8556.00,1.66
8555.00,1.66
8554.00,1.66
8553.00,1.66
8552.00,1.66
8551.00,1.66
8550.00,1.66
8549.00,1.66
8548.00,1.65
8547.00,1.65
8546.00,1.65
8545.00,1.64
8544.00,1.64
8543.00,1.64
8542.00,1.64
8541.00,1.64
8540.00,1.64
8539.00,1.64
8538.00,1.63
8537.00,1.63
8536.00,1.63
8535.00,1.63
8534.00,1.63
8533.00,1.63
8532.00,1.63
8531.00,1.63
8530.00,1.62
8529.00,1.62
8528.00,1.62
8527.00,1.62
8526.00,1.62
8525.00,1.62
8524.00,1.62
8523.00,1.62
8522.00,1.62
8521.00,1.62
8520.00,1.63
8519.00,1.63
8518.00,1.64
8517.00,1.64
8516.00,1.65
8515.00,1.65
8514.00,1.65
8513.00,1.66
8512.00,1.66
8511.00,1.66
8510.00,1.66
8509.00,1.67
8508.00,1.67
8507.00,1.67
8506.00,1.67
8505.00,1.67
8504.00,1.68
8503.00,1.68
8502.00,1.68
8501.00,1.68
8500.00,1.68
8499.00,1.68
8498.00,1.68
8497.00,1.68
8496.00,1.68
8495.00,1.68
8494.00,1.68
8493.00,1.67
8492.00,1.67
8491.00,1.67
8490.00,1.66
8489.00,1.66
8488.00,1.66
8487.00,1.65
8486.00,1.65
8485.00,1.65
8484.00,1.64
8483.00,1.64
8482.00,1.64
8481.00,1.64
8480.00,1.63
8479.00,1.63
8478.00,1.63
8477.00,1.62
8476.00,1.62
8475.00,1.62
8474.00,1.62
8473.00,1.61
8472.00,1.61
8471.00,1.61
8470.00,1.61
8469.00,1.61
8468.00,1.61
8467.00,1.61
8466.00,1.61
8465.00,1.61
8464.00,1.61
8463.00,1.61
8462.00,1.61
8461.00,1.62
8460.00,1.62
8459.00,1.62
8458.00,1.62
8457.00,1.62
8456.00,1.63
8455.00,1.63
8454.00,1.63
8453.00,1.64
8452.00,1.64
8451.00,1.64
8450.00,1.65
8449.00,1.65
8448.00,1.66
8447.00,1.66
8446.00,1.66
8445.00,1.66
8444.00,1.67
8443.00,1.67
8442.00,1.67
8441.00,1.67
8440.00,1.67
8439.00,1.67
8438.00,1.67
8437.00,1.67
8436.00,1.67
8435.00,1.67
8434.00,1.67
8433.00,1.68
8432.00,1.68
8431.00,1.68
8430.00,1.68
8429.00,1.68
8428.00,1.68
8427.00,1.68
8426.00,1.68
8425.00,1.68
8424.00,1.68
8423.00,1.68
8422.00,1.68
8421.00,1.68
8420.00,1.68
8419.00,1.68
8418.00,1.68
8417.00,1.69
8416.00,1.69
8415.00,1.69
8414.00,1.69
8413.00,1.70
8412.00,1.70
8411.00,1.70
8410.00,1.70
8409.00,1.71
8408.00,1.71
8407.00,1.71
8406.00,1.71
8405.00,1.71
8404.00,1.71
8403.00,1.71
8402.00,1.71
8401.00,1.72
8400.00,1.72
8399.00,1.72
8398.00,1.72
8397.00,1.72
8396.00,1.72
8395.00,1.73
8394.00,1.73
8393.00,1.73
8392.00,1.73
8391.00,1.73
8390.00,1.73
8389.00,1.73
8388.00,1.73
8387.00,1.73
8386.00,1.73
8385.00,1.73
8384.00,1.73
8383.00,1.73
8382.00,1.73
8381.00,1.73
8380.00,1.73
8379.00,1.73
8378.00,1.73
8377.00,1.73
8376.00,1.73
8375.00,1.73
8374.00,1.73
8373.00,1.73
8372.00,1.73
8371.00,1.72
8370.00,1.72
8369.00,1.72
8368.00,1.72
8367.00,1.72
8366.00,1.71
8365.00,1.71
8364.00,1.71
8363.00,1.71
8362.00,1.71
8361.00,1.70
8360.00,1.70
8359.00,1.70
8358.00,1.70
8357.00,1.70
8356.00,1.70
8355.00,1.69
8354.00,1.69
8353.00,1.69
8352.00,1.69
8351.00,1.69
8350.00,1.69
8349.00,1.69
8348.00,1.69
8347.00,1.68
8346.00,1.68
8345.00,1.68
8344.00,1.68
8343.00,1.68
8342.00,1.68
8341.00,1.68
8340.00,1.68
8339.00,1.68
8338.00,1.68
8337.00,1.68
8336.00,1.68
8335.00,1.68
8334.00,1.67
8333.00,1.67
8332.00,1.67
8331.00,1.67
8330.00,1.67
8329.00,1.66
8328.00,1.66
8327.00,1.66
8326.00,1.66
8325.00,1.66
8324.00,1.65
8323.00,1.65
8322.00,1.65
8321.00,1.64
8320.00,1.64
8319.00,1.63
8318.00,1.63
8317.00,1.62
8316.00,1.62
8315.00,1.61
8314.00,1.61
8313.00,1.61
8312.00,1.60
8311.00,1.60
8310.00,1.60
8309.00,1.59
8308.00,1.59
8307.00,1.59
8306.00,1.59
8305.00,1.59
8304.00,1.59
8303.00,1.59
8302.00,1.58
8301.00,1.58
8300.00,1.58
8299.00,1.58
8298.00,1.58
8297.00,1.58
8296.00,1.59
8295.00,1.59
8294.00,1.59
8293.00,1.59
8292.00,1.60
8291.00,1.60
8290.00,1.60
8289.00,1.61
8288.00,1.61
8287.00,1.61
8286.00,1.61
8285.00,1.62
8284.00,1.62
8283.00,1.62
8282.00,1.62
8281.00,1.63
8280.00,1.63
8279.00,1.63
8278.00,1.63
8277.00,1.64
8276.00,1.64
8275.00,1.64
8274.00,1.65
8273.00,1.65
8272.00,1.65
8271.00,1.66
8270.00,1.66
8269.00,1.66
8268.00,1.67
8267.00,1.67
8266.00,1.67
8265.00,1.67
8264.00,1.68
8263.00,1.68
8262.00,1.68
8261.00,1.69
8260.00,1.69
8259.00,1.69
8258.00,1.70
8257.00,1.70
8256.00,1.70
8255.00,1.70
8254.00,1.70
8253.00,1.70
8252.00,1.70
8251.00,1.70
8250.00,1.70
8249.00,1.70
8248.00,1.69
8247.00,1.69
8246.00,1.69
8245.00,1.69
8244.00,1.68
8243.00,1.68
8242.00,1.68
8241.00,1.68
8240.00,1.67
8239.00,1.67
8238.00,1.67
8237.00,1.66
8236.00,1.66
8235.00,1.66
8234.00,1.66
8233.00,1.65
8232.00,1.65
8231.00,1.65
8230.00,1.65
8229.00,1.65
8228.00,1.65
8227.00,1.65
8226.00,1.65
8225.00,1.65
8224.00,1.65
8223.00,1.65
8222.00,1.65
8221.00,1.66
8220.00,1.66
8219.00,1.66
8218.00,1.66
8217.00,1.66
8216.00,1.66
8215.00,1.67
8214.00,1.67
8213.00,1.67
8212.00,1.67
8211.00,1.67
8210.00,1.67
8209.00,1.67
8208.00,1.67
8207.00,1.67
8206.00,1.68
8205.00,1.68
8204.00,1.68
8203.00,1.68
8202.00,1.68
8201.00,1.68
8200.00,1.68
8199.00,1.67
8198.00,1.67
8197.00,1.67
8196.00,1.67
8195.00,1.67
8194.00,1.67
8193.00,1.67
8192.00,1.66
8191.00,1.66
8190.00,1.66
8189.00,1.66
8188.00,1.66
8187.00,1.65
8186.00,1.65
8185.00,1.65
8184.00,1.65
8183.00,1.65
8182.00,1.65
8181.00,1.65
8180.00,1.64
8179.00,1.64
8178.00,1.64
8177.00,1.64
8176.00,1.64
8175.00,1.64
8174.00,1.64
8173.00,1.64
8172.00,1.64
8171.00,1.64
8170.00,1.64
8169.00,1.64
8168.00,1.64
8167.00,1.64
8166.00,1.65
8165.00,1.65
8164.00,1.65
8163.00,1.65
8162.00,1.65
8161.00,1.65
8160.00,1.65
8159.00,1.66
8158.00,1.66
8157.00,1.66
8156.00,1.66
8155.00,1.67
8154.00,1.67
8153.00,1.67
8152.00,1.67
8151.00,1.68
8150.00,1.68
8149.00,1.68
8148.00,1.68
8147.00,1.69
8146.00,1.69
8145.00,1.69
8144.00,1.69
8143.00,1.70
8142.00,1.70
8141.00,1.70
8140.00,1.71
8139.00,1.71
8138.00,1.71
8137.00,1.72
8136.00,1.72
8135.00,1.72
8134.00,1.72
8133.00,1.73
8132.00,1.73
8131.00,1.73
8130.00,1.73
8129.00,1.73
8128.00,1.73
8127.00,1.73
8126.00,1.73
8125.00,1.73
8124.00,1.73
8123.00,1.73
8122.00,1.73
8121.00,1.73
8120.00,1.72
8119.00,1.72
8118.00,1.72
8117.00,1.72
8116.00,1.72
8115.00,1.72
8114.00,1.72
8113.00,1.72
8112.00,1.72
8111.00,1.71
8110.00,1.71
8109.00,1.71
8108.00,1.71
8107.00,1.71
8106.00,1.71
8105.00,1.71
8104.00,1.71
8103.00,1.71
8102.00,1.71
8101.00,1.71
8100.00,1.71
8099.00,1.71
8098.00,1.71
8097.00,1.71
8096.00,1.71
8095.00,1.71
8094.00,1.71
8093.00,1.71
8092.00,1.71
8091.00,1.71
8090.00,1.71
8089.00,1.71
8088.00,1.71
8087.00,1.71
8086.00,1.71
8085.00,1.71
8084.00,1.71
8083.00,1.71
8082.00,1.71
8081.00,1.71
8080.00,1.71
8079.00,1.71
8078.00,1.71
8077.00,1.72
8076.00,1.72
8075.00,1.72
8074.00,1.72
8073.00,1.72
8072.00,1.72
8071.00,1.72
8070.00,1.72
8069.00,1.72
8068.00,1.72
8067.00,1.73
8066.00,1.73
8065.00,1.73
8064.00,1.73
8063.00,1.73
8062.00,1.73
8061.00,1.73
8060.00,1.73
8059.00,1.73
8058.00,1.73
8057.00,1.73
8056.00,1.73
8055.00,1.73
8054.00,1.72
8053.00,1.72
8052.00,1.72
8051.00,1.72
8050.00,1.71
8049.00,1.71
8048.00,1.71
8047.00,1.70
8046.00,1.70
8045.00,1.70
8044.00,1.70
8043.00,1.69
8042.00,1.69
8041.00,1.69
8040.00,1.69
8039.00,1.69
8038.00,1.69
8037.00,1.69
8036.00,1.69
8035.00,1.69
8034.00,1.69
8033.00,1.69
8032.00,1.70
8031.00,1.70
8030.00,1.70
8029.00,1.70
8028.00,1.71
8027.00,1.71
8026.00,1.71
8025.00,1.72
8024.00,1.72
8023.00,1.73
8022.00,1.73
8021.00,1.74
8020.00,1.74
8019.00,1.75
8018.00,1.75
8017.00,1.76
8016.00,1.76
8015.00,1.77
8014.00,1.77
8013.00,1.77
8012.00,1.78
8011.00,1.78
8010.00,1.78
8009.00,1.78
8008.00,1.78
8007.00,1.78
8006.00,1.78
8005.00,1.78
8004.00,1.78
8003.00,1.78
8002.00,1.78
8001.00,1.78
8000.00,1.78
7999.00,1.78
7998.00,1.78
7997.00,1.78
7996.00,1.78
7995.00,1.78
7994.00,1.77
7993.00,1.77
7992.00,1.77
7991.00,1.77
7990.00,1.77
7989.00,1.77
7988.00,1.77
7987.00,1.77
7986.00,1.77
7985.00,1.77
7984.00,1.77
7983.00,1.77
7982.00,1.77
7981.00,1.78
7980.00,1.78
7979.00,1.78
7978.00,1.78
7977.00,1.78
7976.00,1.78
7975.00,1.78
7974.00,1.78
7973.00,1.78
7972.00,1.78
7971.00,1.78
7970.00,1.78
7969.00,1.79
7968.00,1.79
7967.00,1.79
7966.00,1.79
7965.00,1.79
7964.00,1.79
7963.00,1.79
7962.00,1.79
7961.00,1.78
7960.00,1.78
7959.00,1.78
7958.00,1.78
7957.00,1.78
7956.00,1.77
7955.00,1.77
7954.00,1.77
7953.00,1.77
7952.00,1.77
7951.00,1.77
7950.00,1.76
7949.00,1.76
7948.00,1.76
7947.00,1.76
7946.00,1.76
7945.00,1.76
7944.00,1.76
7943.00,1.76
7942.00,1.76
7941.00,1.76
7940.00,1.76
7939.00,1.76
7938.00,1.76
7937.00,1.76
7936.00,1.76
7935.00,1.76
7934.00,1.76
7933.00,1.76
7932.00,1.76
7931.00,1.76
7930.00,1.76
7929.00,1.76
7928.00,1.76
7927.00,1.76
7926.00,1.76
7925.00,1.76
7924.00,1.76
7923.00,1.76
7922.00,1.75
7921.00,1.75
7920.00,1.75
7919.00,1.75
7918.00,1.75
7917.00,1.74
7916.00,1.74
7915.00,1.74
7914.00,1.74
7913.00,1.74
7912.00,1.74
7911.00,1.74
7910.00,1.74
7909.00,1.74
7908.00,1.74
7907.00,1.74
7906.00,1.74
7905.00,1.74
7904.00,1.74
7903.00,1.74
7902.00,1.74
7901.00,1.74
7900.00,1.75
7899.00,1.75
7898.00,1.75
7897.00,1.75
7896.00,1.76
7895.00,1.76
7894.00,1.76
7893.00,1.77
7892.00,1.77
7891.00,1.77
7890.00,1.78
7889.00,1.78
7888.00,1.78
7887.00,1.79
7886.00,1.79
7885.00,1.79
7884.00,1.79
7883.00,1.80
7882.00,1.80
7881.00,1.80
7880.00,1.80
7879.00,1.80
7878.00,1.80
7877.00,1.80
7876.00,1.80
7875.00,1.80
7874.00,1.80
7873.00,1.80
7872.00,1.80
7871.00,1.80
7870.00,1.80
7869.00,1.80
7868.00,1.79
7867.00,1.79
7866.00,1.79
7865.00,1.79
7864.00,1.79
7863.00,1.79
7862.00,1.78
7861.00,1.78
7860.00,1.78
7859.00,1.78
7858.00,1.78
7857.00,1.78
7856.00,1.78
7855.00,1.78
7854.00,1.78
7853.00,1.78
7852.00,1.78
7851.00,1.78
7850.00,1.78
7849.00,1.78
7848.00,1.78
7847.00,1.78
7846.00,1.78
7845.00,1.78
7844.00,1.78
7843.00,1.78
7842.00,1.78
7841.00,1.78
7840.00,1.79
7839.00,1.79
7838.00,1.79
7837.00,1.79
7836.00,1.79
7835.00,1.79
7834.00,1.79
7833.00,1.79
7832.00,1.79
7831.00,1.79
7830.00,1.79
7829.00,1.79
7828.00,1.79
7827.00,1.79
7826.00,1.79
7825.00,1.79
7824.00,1.79
7823.00,1.79
7822.00,1.79
7821.00,1.79
7820.00,1.79
7819.00,1.79
7818.00,1.79
7817.00,1.78
7816.00,1.78
7815.00,1.78
7814.00,1.78
7813.00,1.78
7812.00,1.78
7811.00,1.78
7810.00,1.78
7809.00,1.78
7808.00,1.78
7807.00,1.77
7806.00,1.77
7805.00,1.77
7804.00,1.77
7803.00,1.77
7802.00,1.77
7801.00,1.78
7800.00,1.78
7799.00,1.78
7798.00,1.78
7797.00,1.78
7796.00,1.79
7795.00,1.79
7794.00,1.79
7793.00,1.79
7792.00,1.80
7791.00,1.80
7790.00,1.80
7789.00,1.80
7788.00,1.81
7787.00,1.81
7786.00,1.81
7785.00,1.81
7784.00,1.82
7783.00,1.82
7782.00,1.82
7781.00,1.82
7780.00,1.82
7779.00,1.82
7778.00,1.82
7777.00,1.83
7776.00,1.83
7775.00,1.83
7774.00,1.83
7773.00,1.83
7772.00,1.83
7771.00,1.83
7770.00,1.83
7769.00,1.83
7768.00,1.83
7767.00,1.83
7766.00,1.82
7765.00,1.82
7764.00,1.82
7763.00,1.82
7762.00,1.82
7761.00,1.81
7760.00,1.81
7759.00,1.81
7758.00,1.81
7757.00,1.80
7756.00,1.80
7755.00,1.80
7754.00,1.80
7753.00,1.80
7752.00,1.80
7751.00,1.79
7750.00,1.79
7749.00,1.79
7748.00,1.79
7747.00,1.79
7746.00,1.79
7745.00,1.79
7744.00,1.79
7743.00,1.79
7742.00,1.79
7741.00,1.79
7740.00,1.79
7739.00,1.79
7738.00,1.79
7737.00,1.79
7736.00,1.79
7735.00,1.79
7734.00,1.79
7733.00,1.79
7732.00,1.80
7731.00,1.80
7730.00,1.80
7729.00,1.80
7728.00,1.80
7727.00,1.80
7726.00,1.80
7725.00,1.81
7724.00,1.81
7723.00,1.81
7722.00,1.81
7721.00,1.81
7720.00,1.81
7719.00,1.81
7718.00,1.81
7717.00,1.81
7716.00,1.81
7715.00,1.81
7714.00,1.82
7713.00,1.82
7712.00,1.82
7711.00,1.82
7710.00,1.82
7709.00,1.82
7708.00,1.82
7707.00,1.82
7706.00,1.82
7705.00,1.82
7704.00,1.82
7703.00,1.82
7702.00,1.82
7701.00,1.82
7700.00,1.82
7699.00,1.82
7698.00,1.82
7697.00,1.82
7696.00,1.82
7695.00,1.82
7694.00,1.82
7693.00,1.82
7692.00,1.82
7691.00,1.82
7690.00,1.82
7689.00,1.82
7688.00,1.82
7687.00,1.82
7686.00,1.82
7685.00,1.82
7684.00,1.82
7683.00,1.82
7682.00,1.82
7681.00,1.82
7680.00,1.82
7679.00,1.82
7678.00,1.82
7677.00,1.82
7676.00,1.82
7675.00,1.82
7674.00,1.82
7673.00,1.82
7672.00,1.82
7671.00,1.82
7670.00,1.82
7669.00,1.82
7668.00,1.81
7667.00,1.81
7666.00,1.81
7665.00,1.81
7664.00,1.81
7663.00,1.81
7662.00,1.81
7661.00,1.81
7660.00,1.81
7659.00,1.81
7658.00,1.81
7657.00,1.80
7656.00,1.80
7655.00,1.80
7654.00,1.80
7653.00,1.80
7652.00,1.80
7651.00,1.80
7650.00,1.80
7649.00,1.79
7648.00,1.79
7647.00,1.79
7646.00,1.79
7645.00,1.79
7644.00,1.78
7643.00,1.78
7642.00,1.78
7641.00,1.78
7640.00,1.78
7639.00,1.78
7638.00,1.78
7637.00,1.78
7636.00,1.78
7635.00,1.78
7634.00,1.77
7633.00,1.77
7632.00,1.77
7631.00,1.77
7630.00,1.77
7629.00,1.77
7628.00,1.77
7627.00,1.77
7626.00,1.77
7625.00,1.77
7624.00,1.77
7623.00,1.77
7622.00,1.77
7621.00,1.77
7620.00,1.77
7619.00,1.77
7618.00,1.77
7617.00,1.77
7616.00,1.77
7615.00,1.77
7614.00,1.77
7613.00,1.77
7612.00,1.77
7611.00,1.77
7610.00,1.77
7609.00,1.77
7608.00,1.77
7607.00,1.77
7606.00,1.77
7605.00,1.77
7604.00,1.77
7603.00,1.77
7602.00,1.78
7601.00,1.78
7600.00,1.78
7599.00,1.78
7598.00,1.78
7597.00,1.79
7596.00,1.79
7595.00,1.79
7594.00,1.79
7593.00,1.79
7592.00,1.80
7591.00,1.80
7590.00,1.80
7589.00,1.80
7588.00,1.80
7587.00,1.80
7586.00,1.80
7585.00,1.80
7584.00,1.81
7583.00,1.81
7582.00,1.81
7581.00,1.81
7580.00,1.80
7579.00,1.80
7578.00,1.80
7577.00,1.80
7576.00,1.80
7575.00,1.80
7574.00,1.79
7573.00,1.79
7572.00,1.79
7571.00,1.79
7570.00,1.78
7569.00,1.78
7568.00,1.78
7567.00,1.78
7566.00,1.77
7565.00,1.77
7564.00,1.77
7563.00,1.77
7562.00,1.76
7561.00,1.76
7560.00,1.76
7559.00,1.76
7558.00,1.76
7557.00,1.76
7556.00,1.76
7555.00,1.76
7554.00,1.76
7553.00,1.76
7552.00,1.76
7551.00,1.76
7550.00,1.76
7549.00,1.76
7548.00,1.77
7547.00,1.77
7546.00,1.77
7545.00,1.77
7544.00,1.78
7543.00,1.78
7542.00,1.79
7541.00,1.79
7540.00,1.79
7539.00,1.80
7538.00,1.80
7537.00,1.80
7536.00,1.81
7535.00,1.81
7534.00,1.82
7533.00,1.82
7532.00,1.82
7531.00,1.83
7530.00,1.83
7529.00,1.83
7528.00,1.84
7527.00,1.84
7526.00,1.84
7525.00,1.84
7524.00,1.84
7523.00,1.84
7522.00,1.84
7521.00,1.84
7520.00,1.84
7519.00,1.84
7518.00,1.83
7517.00,1.83
7516.00,1.83
7515.00,1.83
7514.00,1.83
7513.00,1.83
7512.00,1.83
7511.00,1.83
7510.00,1.82
7509.00,1.82
7508.00,1.82
7507.00,1.82
7506.00,1.81
7505.00,1.81
7504.00,1.81
7503.00,1.81
7502.00,1.81
7501.00,1.81
7500.00,1.80
7499.00,1.80
7498.00,1.80
7497.00,1.80
7496.00,1.80
7495.00,1.80
7494.00,1.80
7493.00,1.80
7492.00,1.80
7491.00,1.80
7490.00,1.80
7489.00,1.79
7488.00,1.79
7487.00,1.79
7486.00,1.79
7485.00,1.79
7484.00,1.78
7483.00,1.78
7482.00,1.78
7481.00,1.78
7480.00,1.78
7479.00,1.77
7478.00,1.77
7477.00,1.77
7476.00,1.77
7475.00,1.76
7474.00,1.76
7473.00,1.76
7472.00,1.76
7471.00,1.75
7470.00,1.75
7469.00,1.75
7468.00,1.75
7467.00,1.74
7466.00,1.74
7465.00,1.74
7464.00,1.74
7463.00,1.74
7462.00,1.74
7461.00,1.74
7460.00,1.74
7459.00,1.74
7458.00,1.75
7457.00,1.75
7456.00,1.75
7455.00,1.75
7454.00,1.75
7453.00,1.75
7452.00,1.75
7451.00,1.75
7450.00,1.76
7449.00,1.76
7448.00,1.76
7447.00,1.76
7446.00,1.77
7445.00,1.77
7444.00,1.77
7443.00,1.77
7442.00,1.78
7441.00,1.78
7440.00,1.78
7439.00,1.78
7438.00,1.78
7437.00,1.78
7436.00,1.78
7435.00,1.78
7434.00,1.78
7433.00,1.78
7432.00,1.78
7431.00,1.78
7430.00,1.78
7429.00,1.78
7428.00,1.78
7427.00,1.77
7426.00,1.77
7425.00,1.77
7424.00,1.77
7423.00,1.77
7422.00,1.76
7421.00,1.76
7420.00,1.76
7419.00,1.76
7418.00,1.75
7417.00,1.75
7416.00,1.75
7415.00,1.74
7414.00,1.74
7413.00,1.74
7412.00,1.74
7411.00,1.74
7410.00,1.74
7409.00,1.74
7408.00,1.74
7407.00,1.74
7406.00,1.74
7405.00,1.74
7404.00,1.73
7403.00,1.73
7402.00,1.73
7401.00,1.73
7400.00,1.73
7399.00,1.73
7398.00,1.73
7397.00,1.73
7396.00,1.74
7395.00,1.74
7394.00,1.74
7393.00,1.74
7392.00,1.74
7391.00,1.74
7390.00,1.74
7389.00,1.74
7388.00,1.74
7387.00,1.75
7386.00,1.75
7385.00,1.75
7384.00,1.75
7383.00,1.75
7382.00,1.75
7381.00,1.75
7380.00,1.76
7379.00,1.76
7378.00,1.76
7377.00,1.76
7376.00,1.76
7375.00,1.76
7374.00,1.77
7373.00,1.77
7372.00,1.77
7371.00,1.77
7370.00,1.77
7369.00,1.78
7368.00,1.78
7367.00,1.78
7366.00,1.78
7365.00,1.78
7364.00,1.79
7363.00,1.79
7362.00,1.79
7361.00,1.79
7360.00,1.79
7359.00,1.79
7358.00,1.79
7357.00,1.79
7356.00,1.79
7355.00,1.79
7354.00,1.79
7353.00,1.79
7352.00,1.79
7351.00,1.79
7350.00,1.79
7349.00,1.79
7348.00,1.79
7347.00,1.79
7346.00,1.79
7345.00,1.79
7344.00,1.79
7343.00,1.78
7342.00,1.78
7341.00,1.78
7340.00,1.78
7339.00,1.77
7338.00,1.77
7337.00,1.77
7336.00,1.76
7335.00,1.76
7334.00,1.76
7333.00,1.76
7332.00,1.75
7331.00,1.75
7330.00,1.75
7329.00,1.75
7328.00,1.75
7327.00,1.74
7326.00,1.74
7325.00,1.74
7324.00,1.74
7323.00,1.74
7322.00,1.74
7321.00,1.74
7320.00,1.74
7319.00,1.74
7318.00,1.74
7317.00,1.74
7316.00,1.75
7315.00,1.75
7314.00,1.75
7313.00,1.75
7312.00,1.76
7311.00,1.76
7310.00,1.76
7309.00,1.77
7308.00,1.77
7307.00,1.77
7306.00,1.77
7305.00,1.78
7304.00,1.78
7303.00,1.78
7302.00,1.78
7301.00,1.78
7300.00,1.78
7299.00,1.79
7298.00,1.79
7297.00,1.79
7296.00,1.79
7295.00,1.79
7294.00,1.79
7293.00,1.79
7292.00,1.79
7291.00,1.79
7290.00,1.79
7289.00,1.79
7288.00,1.79
7287.00,1.78
7286.00,1.78
7285.00,1.78
7284.00,1.78
7283.00,1.78
7282.00,1.77
7281.00,1.77
7280.00,1.77
7279.00,1.77
7278.00,1.76
7277.00,1.76
7276.00,1.76
7275.00,1.76
7274.00,1.76
7273.00,1.76
7272.00,1.75
7271.00,1.75
7270.00,1.75
7269.00,1.75
7268.00,1.75
7267.00,1.74
7266.00,1.74
7265.00,1.74
7264.00,1.74
7263.00,1.73
7262.00,1.73
7261.00,1.73
7260.00,1.73
7259.00,1.72
7258.00,1.72
7257.00,1.72
7256.00,1.72
7255.00,1.72
7254.00,1.72
7253.00,1.71
7252.00,1.71
7251.00,1.71
7250.00,1.71
7249.00,1.71
7248.00,1.71
7247.00,1.71
7246.00,1.70
7245.00,1.70
7244.00,1.70
7243.00,1.70
7242.00,1.70
7241.00,1.70
7240.00,1.70
7239.00,1.70
7238.00,1.69
7237.00,1.69
7236.00,1.69
7235.00,1.69
7234.00,1.69
7233.00,1.69
7232.00,1.69
7231.00,1.68
7230.00,1.68
7229.00,1.68
7228.00,1.68
7227.00,1.68
7226.00,1.67
7225.00,1.67
7224.00,1.67
7223.00,1.66
7222.00,1.66
7221.00,1.66
7220.00,1.65
7219.00,1.65
7218.00,1.64
7217.00,1.64
7216.00,1.63
7215.00,1.63
7214.00,1.62
7213.00,1.62
7212.00,1.61
7211.00,1.60
7210.00,1.60
7209.00,1.59
7208.00,1.59
7207.00,1.58
7206.00,1.58
7205.00,1.57
7204.00,1.57
7203.00,1.57
7202.00,1.56
7201.00,1.56
7200.00,1.55
7199.00,1.55
7198.00,1.54
7197.00,1.54
7196.00,1.54
7195.00,1.53
7194.00,1.53
7193.00,1.53
7192.00,1.52
7191.00,1.52
7190.00,1.52
7189.00,1.52
7188.00,1.52
7187.00,1.51
7186.00,1.51
7185.00,1.51
7184.00,1.51
7183.00,1.51
7182.00,1.51
7181.00,1.51
7180.00,1.50
7179.00,1.50
7178.00,1.50
7177.00,1.49
7176.00,1.49
7175.00,1.49
7174.00,1.48
7173.00,1.48
7172.00,1.48
7171.00,1.48
7170.00,1.47
7169.00,1.47
7168.00,1.47
7167.00,1.46
7166.00,1.46
7165.00,1.46
7164.00,1.45
7163.00,1.45
7162.00,1.45
7161.00,1.44
7160.00,1.44
7159.00,1.44
7158.00,1.44
7157.00,1.43
7156.00,1.43
7155.00,1.43
7154.00,1.43
7153.00,1.42
7152.00,1.42
7151.00,1.42
7150.00,1.42
7149.00,1.42
7148.00,1.41
7147.00,1.41
7146.00,1.41
7145.00,1.41
7144.00,1.41
7143.00,1.41
7142.00,1.41
7141.00,1.41
7140.00,1.40
7139.00,1.40
7138.00,1.40
7137.00,1.40
7136.00,1.40
7135.00,1.40
7134.00,1.39
7133.00,1.39
7132.00,1.39
7131.00,1.39
7130.00,1.38
7129.00,1.38
7128.00,1.38
7127.00,1.37
7126.00,1.37
7125.00,1.37
7124.00,1.37
7123.00,1.36
7122.00,1.36
7121.00,1.36
7120.00,1.36
7119.00,1.35
7118.00,1.35
7117.00,1.35
7116.00,1.35
7115.00,1.34
7114.00,1.34
7113.00,1.34
7112.00,1.33
7111.00,1.33
7110.00,1.33
7109.00,1.33
7108.00,1.33
7107.00,1.33
7106.00,1.33
7105.00,1.32
7104.00,1.32
7103.00,1.32
7102.00,1.32
7101.00,1.32
7100.00,1.31
7099.00,1.31
7098.00,1.31
7097.00,1.31
7096.00,1.30
7095.00,1.30
7094.00,1.30
7093.00,1.30
7092.00,1.29
7091.00,1.29
7090.00,1.29
7089.00,1.28
7088.00,1.28
7087.00,1.28
7086.00,1.27
7085.00,1.27
7084.00,1.27
7083.00,1.26
7082.00,1.26
7081.00,1.26
7080.00,1.25
7079.00,1.25
7078.00,1.24
7077.00,1.24
7076.00,1.24
7075.00,1.24
7074.00,1.23
7073.00,1.23
7072.00,1.23
7071.00,1.22
7070.00,1.22
7069.00,1.22
7068.00,1.22
7067.00,1.21
7066.00,1.21
7065.00,1.21
7064.00,1.21
7063.00,1.20
7062.00,1.20
7061.00,1.20
7060.00,1.20
7059.00,1.20
7058.00,1.19
7057.00,1.19
7056.00,1.19
7055.00,1.19
7054.00,1.19
7053.00,1.19
7052.00,1.19
7051.00,1.19
7050.00,1.19
7049.00,1.18
7048.00,1.18
7047.00,1.18
7046.00,1.18
7045.00,1.18
7044.00,1.18
7043.00,1.18
7042.00,1.18
7041.00,1.18
7040.00,1.18
7039.00,1.17
7038.00,1.17
7037.00,1.17
7036.00,1.17
7035.00,1.17
7034.00,1.17
7033.00,1.17
7032.00,1.17
7031.00,1.16
7030.00,1.16
7029.00,1.16
7028.00,1.16
7027.00,1.15
7026.00,1.15
7025.00,1.15
7024.00,1.14
7023.00,1.14
7022.00,1.14
7021.00,1.14
7020.00,1.13
7019.00,1.13
7018.00,1.13
7017.00,1.12
7016.00,1.12
7015.00,1.12
7014.00,1.11
7013.00,1.11
7012.00,1.11
7011.00,1.11
7010.00,1.10
7009.00,1.10
7008.00,1.10
7007.00,1.10
7006.00,1.10
7005.00,1.09
7004.00,1.09
7003.00,1.09
7002.00,1.09
7001.00,1.09
7000.00,1.09
6999.00,1.09
6998.00,1.09
6997.00,1.09
6996.00,1.09
6995.00,1.09
6994.00,1.09
6993.00,1.09
6992.00,1.09
6991.00,1.09
6990.00,1.09
6989.00,1.09
6988.00,1.09
6987.00,1.09
6986.00,1.09
6985.00,1.09
6984.00,1.09
6983.00,1.09
6982.00,1.09
6981.00,1.09
6980.00,1.09
6979.00,1.09
6978.00,1.09
6977.00,1.09
6976.00,1.09
6975.00,1.09
6974.00,1.09
6973.00,1.09
6972.00,1.10
6971.00,1.10
6970.00,1.10
6969.00,1.10
6968.00,1.10
6967.00,1.10
6966.00,1.10
6965.00,1.11
6964.00,1.11
6963.00,1.11
6962.00,1.11
6961.00,1.11
6960.00,1.11
6959.00,1.11
6958.00,1.11
6957.00,1.11
6956.00,1.11
6955.00,1.11
6954.00,1.11
6953.00,1.11
6952.00,1.11
6951.00,1.11
6950.00,1.11
6949.00,1.11
6948.00,1.11
6947.00,1.11
6946.00,1.11
6945.00,1.11
6944.00,1.11
6943.00,1.10
6942.00,1.10
6941.00,1.10
6940.00,1.10
6939.00,1.10
6938.00,1.10
6937.00,1.09
6936.00,1.09
6935.00,1.09
6934.00,1.09
6933.00,1.09
6932.00,1.09
6931.00,1.09
6930.00,1.08
6929.00,1.08
6928.00,1.08
6927.00,1.08
6926.00,1.08
6925.00,1.08
6924.00,1.08
6923.00,1.07
6922.00,1.07
6921.00,1.07
6920.00,1.07
6919.00,1.07
6918.00,1.07
6917.00,1.07
6916.00,1.07
6915.00,1.07
6914.00,1.07
6913.00,1.07
6912.00,1.07
6911.00,1.07
6910.00,1.07
6909.00,1.07
6908.00,1.07
6907.00,1.07
6906.00,1.07
6905.00,1.07
6904.00,1.07
6903.00,1.07
6902.00,1.07
6901.00,1.07
6900.00,1.07
6899.00,1.07
6898.00,1.08
6897.00,1.08
6896.00,1.07
6895.00,1.07
6894.00,1.07
6893.00,1.07
6892.00,1.07
6891.00,1.07
6890.00,1.07
6889.00,1.07
6888.00,1.07
6887.00,1.07
6886.00,1.07
6885.00,1.07
6884.00,1.07
6883.00,1.06
6882.00,1.06
6881.00,1.06
6880.00,1.06
6879.00,1.06
6878.00,1.06
6877.00,1.06
6876.00,1.06
6875.00,1.06
6874.00,1.06
6873.00,1.06
6872.00,1.06
6871.00,1.06
6870.00,1.06
6869.00,1.06
6868.00,1.06
6867.00,1.06
6866.00,1.06
6865.00,1.06
6864.00,1.06
6863.00,1.06
6862.00,1.06
6861.00,1.07
6860.00,1.07
6859.00,1.07
6858.00,1.07
6857.00,1.07
6856.00,1.07
6855.00,1.07
6854.00,1.07
6853.00,1.07
6852.00,1.08
6851.00,1.08
6850.00,1.08
6849.00,1.08
6848.00,1.08
6847.00,1.08
6846.00,1.08
6845.00,1.08
6844.00,1.09
6843.00,1.09
6842.00,1.09
6841.00,1.09
6840.00,1.09
6839.00,1.09
6838.00,1.09
6837.00,1.09
6836.00,1.09
6835.00,1.09
6834.00,1.09
6833.00,1.08
6832.00,1.08
6831.00,1.08
6830.00,1.08
6829.00,1.08
6828.00,1.08
6827.00,1.08
6826.00,1.07
6825.00,1.07
6824.00,1.07
6823.00,1.07
6822.00,1.07
6821.00,1.07
6820.00,1.07
6819.00,1.07
6818.00,1.06
6817.00,1.06
6816.00,1.06
6815.00,1.06
6814.00,1.06
6813.00,1.06
6812.00,1.06
6811.00,1.06
6810.00,1.06
6809.00,1.06
6808.00,1.06
6807.00,1.06
6806.00,1.06
6805.00,1.07
6804.00,1.07
6803.00,1.07
6802.00,1.07
6801.00,1.07
6800.00,1.07
6799.00,1.07
6798.00,1.07
6797.00,1.08
6796.00,1.08
6795.00,1.08
6794.00,1.08
6793.00,1.08
6792.00,1.08
6791.00,1.08
6790.00,1.08
6789.00,1.08
6788.00,1.08
6787.00,1.08
6786.00,1.08
6785.00,1.08
6784.00,1.08
6783.00,1.09
6782.00,1.09
6781.00,1.09
6780.00,1.09
6779.00,1.09
6778.00,1.09
6777.00,1.09
6776.00,1.09
6775.00,1.09
6774.00,1.09
6773.00,1.09
6772.00,1.09
6771.00,1.09
6770.00,1.09
6769.00,1.09
6768.00,1.09
6767.00,1.09
6766.00,1.09
6765.00,1.09
6764.00,1.09
6763.00,1.10
6762.00,1.10
6761.00,1.10
6760.00,1.10
6759.00,1.10
6758.00,1.10
6757.00,1.10
6756.00,1.10
6755.00,1.10
6754.00,1.10
6753.00,1.10
6752.00,1.10
6751.00,1.10
6750.00,1.10
6749.00,1.10
6748.00,1.10
6747.00,1.10
6746.00,1.10
6745.00,1.10
6744.00,1.10
6743.00,1.10
6742.00,1.10
6741.00,1.10
6740.00,1.10
6739.00,1.10
6738.00,1.10
6737.00,1.10
6736.00,1.11
6735.00,1.11
6734.00,1.11
6733.00,1.11
6732.00,1.11
6731.00,1.12
6730.00,1.12
6729.00,1.12
6728.00,1.13
6727.00,1.13
6726.00,1.13
6725.00,1.13
6724.00,1.14
6723.00,1.14
6722.00,1.14
6721.00,1.15
6720.00,1.15
6719.00,1.15
6718.00,1.16
6717.00,1.16
6716.00,1.16
6715.00,1.17
6714.00,1.17
6713.00,1.17
6712.00,1.18
6711.00,1.18
6710.00,1.18
6709.00,1.19
6708.00,1.19
6707.00,1.19
6706.00,1.20
6705.00,1.20
6704.00,1.20
6703.00,1.20
6702.00,1.20
6701.00,1.20
6700.00,1.21
6699.00,1.21
6698.00,1.21
6697.00,1.21
6696.00,1.21
6695.00,1.21
6694.00,1.21
6693.00,1.21
6692.00,1.21
6691.00,1.21
6690.00,1.21
6689.00,1.21
6688.00,1.21
6687.00,1.21
6686.00,1.21
6685.00,1.21
6684.00,1.21
6683.00,1.21
6682.00,1.21
6681.00,1.21
6680.00,1.21
6679.00,1.21
6678.00,1.21
6677.00,1.21
6676.00,1.21
6675.00,1.21
6674.00,1.21
6673.00,1.21
6672.00,1.21
6671.00,1.22
6670.00,1.22
6669.00,1.22
6668.00,1.22
6667.00,1.22
6666.00,1.23
6665.00,1.23
6664.00,1.23
6663.00,1.23
6662.00,1.24
6661.00,1.24
6660.00,1.24
6659.00,1.24
6658.00,1.24
6657.00,1.25
6656.00,1.25
6655.00,1.25
6654.00,1.25
6653.00,1.25
6652.00,1.25
6651.00,1.25
6650.00,1.25
6649.00,1.25
6648.00,1.25
6647.00,1.25
6646.00,1.25
6645.00,1.25
6644.00,1.25
6643.00,1.25
6642.00,1.25
6641.00,1.25
6640.00,1.25
6639.00,1.25
6638.00,1.25
6637.00,1.25
6636.00,1.25
6635.00,1.25
6634.00,1.25
6633.00,1.25
6632.00,1.25
6631.00,1.25
6630.00,1.25
6629.00,1.25
6628.00,1.25
6627.00,1.25
6626.00,1.25
6625.00,1.25
6624.00,1.25
6623.00,1.26
6622.00,1.26
6621.00,1.26
6620.00,1.26
6619.00,1.26
6618.00,1.26
6617.00,1.26
6616.00,1.26
6615.00,1.26
6614.00,1.26
6613.00,1.27
6612.00,1.27
6611.00,1.27
6610.00,1.27
6609.00,1.27
6608.00,1.28
6607.00,1.28
6606.00,1.28
6605.00,1.28
6604.00,1.28
6603.00,1.28
6602.00,1.28
6601.00,1.29
6600.00,1.29
6599.00,1.29
6598.00,1.29
6597.00,1.29
6596.00,1.29
6595.00,1.29
6594.00,1.30
6593.00,1.30
6592.00,1.30
6591.00,1.30
6590.00,1.30
6589.00,1.31
6588.00,1.31
6587.00,1.31
6586.00,1.31
6585.00,1.31
6584.00,1.31
6583.00,1.32
6582.00,1.32
6581.00,1.32
6580.00,1.32
6579.00,1.32
6578.00,1.32
6577.00,1.32
6576.00,1.33
6575.00,1.33
6574.00,1.33
6573.00,1.33
6572.00,1.33
6571.00,1.34
6570.00,1.34
6569.00,1.34
6568.00,1.34
6567.00,1.35
6566.00,1.35
6565.00,1.35
6564.00,1.36
6563.00,1.36
6562.00,1.36
6561.00,1.36
6560.00,1.37
6559.00,1.37
6558.00,1.37
6557.00,1.37
6556.00,1.37
6555.00,1.38
6554.00,1.38
6553.00,1.38
6552.00,1.38
6551.00,1.38
6550.00,1.38
6549.00,1.39
6548.00,1.39
6547.00,1.39
6546.00,1.39
6545.00,1.39
6544.00,1.39
6543.00,1.39
6542.00,1.39
6541.00,1.39
6540.00,1.39
6539.00,1.38
6538.00,1.38
6537.00,1.38
6536.00,1.38
6535.00,1.38
6534.00,1.38
6533.00,1.38
6532.00,1.38
6531.00,1.38
6530.00,1.38
6529.00,1.38
6528.00,1.38
6527.00,1.38
6526.00,1.38
6525.00,1.38
6524.00,1.38
6523.00,1.38
6522.00,1.38
6521.00,1.38
6520.00,1.38
6519.00,1.38
6518.00,1.38
6517.00,1.38
6516.00,1.38
6515.00,1.38
6514.00,1.38
6513.00,1.38
6512.00,1.38
6511.00,1.38
6510.00,1.38
6509.00,1.38
6508.00,1.38
6507.00,1.38
6506.00,1.38
6505.00,1.38
6504.00,1.38
6503.00,1.38
6502.00,1.38
6501.00,1.38
6500.00,1.38
6499.00,1.38
6498.00,1.38
6497.00,1.38
6496.00,1.38
6495.00,1.38
6494.00,1.38
6493.00,1.39
6492.00,1.39
6491.00,1.39
6490.00,1.39
6489.00,1.39
6488.00,1.39
6487.00,1.40
6486.00,1.40
6485.00,1.40
6484.00,1.40
6483.00,1.40
6482.00,1.40
6481.00,1.40
6480.00,1.41
6479.00,1.41
6478.00,1.41
6477.00,1.41
6476.00,1.41
6475.00,1.41
6474.00,1.42
6473.00,1.42
6472.00,1.42
6471.00,1.42
6470.00,1.42
6469.00,1.42
6468.00,1.43
6467.00,1.43
6466.00,1.43
6465.00,1.43
6464.00,1.43
6463.00,1.44
6462.00,1.44
6461.00,1.44
6460.00,1.44
6459.00,1.44
6458.00,1.44
6457.00,1.45
6456.00,1.45
6455.00,1.45
6454.00,1.45
6453.00,1.45
6452.00,1.45
6451.00,1.45
6450.00,1.46
6449.00,1.46
6448.00,1.46
6447.00,1.46
6446.00,1.46
6445.00,1.46
6444.00,1.46
6443.00,1.46
6442.00,1.46
6441.00,1.46
6440.00,1.46
6439.00,1.46
6438.00,1.45
6437.00,1.45
6436.00,1.45
6435.00,1.45
6434.00,1.45
6433.00,1.45
6432.00,1.45
6431.00,1.44
6430.00,1.44
6429.00,1.44
6428.00,1.44
6427.00,1.44
6426.00,1.44
6425.00,1.44
6424.00,1.44
6423.00,1.43
6422.00,1.43
6421.00,1.43
6420.00,1.43
6419.00,1.43
6418.00,1.43
6417.00,1.43
6416.00,1.43
6415.00,1.44
6414.00,1.44
6413.00,1.44
6412.00,1.44
6411.00,1.44
6410.00,1.44
6409.00,1.44
6408.00,1.44
6407.00,1.44
6406.00,1.44
6405.00,1.44
6404.00,1.45
6403.00,1.45
6402.00,1.45
6401.00,1.45
6400.00,1.45
6399.00,1.45
6398.00,1.45
6397.00,1.45
6396.00,1.45
6395.00,1.45
6394.00,1.46
6393.00,1.46
6392.00,1.46
6391.00,1.46
6390.00,1.46
6389.00,1.46
6388.00,1.46
6387.00,1.47
6386.00,1.47
6385.00,1.47
6384.00,1.47
6383.00,1.47
6382.00,1.47
6381.00,1.47
6380.00,1.48
6379.00,1.48
6378.00,1.48
6377.00,1.48
6376.00,1.49
6375.00,1.49
6374.00,1.49
6373.00,1.49
6372.00,1.50
6371.00,1.50
6370.00,1.50
6369.00,1.50
6368.00,1.51
6367.00,1.51
6366.00,1.51
6365.00,1.51
6364.00,1.51
6363.00,1.52
6362.00,1.52
6361.00,1.52
6360.00,1.52
6359.00,1.52
6358.00,1.52
6357.00,1.52
6356.00,1.53
6355.00,1.53
6354.00,1.53
6353.00,1.53
6352.00,1.53
6351.00,1.53
6350.00,1.53
6349.00,1.53
6348.00,1.53
6347.00,1.53
6346.00,1.53
6345.00,1.53
6344.00,1.53
6343.00,1.53
6342.00,1.53
6341.00,1.53
6340.00,1.53
6339.00,1.53
6338.00,1.52
6337.00,1.52
6336.00,1.52
6335.00,1.52
6334.00,1.52
6333.00,1.52
6332.00,1.52
6331.00,1.52
6330.00,1.52
6329.00,1.52
6328.00,1.52
6327.00,1.52
6326.00,1.52
6325.00,1.52
6324.00,1.52
6323.00,1.52
6322.00,1.52
6321.00,1.52
6320.00,1.52
6319.00,1.52
6318.00,1.52
6317.00,1.52
6316.00,1.52
6315.00,1.52
6314.00,1.53
6313.00,1.53
6312.00,1.53
6311.00,1.53
6310.00,1.53
6309.00,1.53
6308.00,1.54
6307.00,1.54
6306.00,1.54
6305.00,1.54
6304.00,1.55
6303.00,1.55
6302.00,1.55
6301.00,1.55
6300.00,1.56
6299.00,1.56
6298.00,1.56
6297.00,1.56
6296.00,1.57
6295.00,1.57
6294.00,1.57
6293.00,1.57
6292.00,1.57
6291.00,1.57
6290.00,1.58
6289.00,1.58
6288.00,1.58
6287.00,1.58
6286.00,1.58
6285.00,1.58
6284.00,1.58
6283.00,1.58
6282.00,1.58
6281.00,1.58
6280.00,1.58
6279.00,1.58
6278.00,1.58
6277.00,1.59
6276.00,1.59
6275.00,1.59
6274.00,1.59
6273.00,1.59
6272.00,1.59
6271.00,1.59
6270.00,1.59
6269.00,1.59
6268.00,1.59
6267.00,1.59
6266.00,1.59
6265.00,1.59
6264.00,1.60
6263.00,1.60
6262.00,1.60
6261.00,1.60
6260.00,1.60
6259.00,1.60
6258.00,1.61
6257.00,1.61
6256.00,1.61
6255.00,1.61
6254.00,1.61
6253.00,1.61
6252.00,1.61
6251.00,1.62
6250.00,1.62
6249.00,1.62
6248.00,1.62
6247.00,1.62
6246.00,1.62
6245.00,1.62
6244.00,1.62
6243.00,1.62
6242.00,1.62
6241.00,1.62
6240.00,1.62
6239.00,1.62
6238.00,1.62
6237.00,1.62
6236.00,1.62
6235.00,1.62
6234.00,1.62
6233.00,1.62
6232.00,1.62
6231.00,1.62
6230.00,1.61
6229.00,1.61
6228.00,1.61
6227.00,1.61
6226.00,1.61
6225.00,1.61
6224.00,1.61
6223.00,1.61
6222.00,1.60
6221.00,1.60
6220.00,1.60
6219.00,1.60
6218.00,1.60
6217.00,1.60
6216.00,1.60
6215.00,1.60
6214.00,1.60
6213.00,1.60
6212.00,1.60
6211.00,1.60
6210.00,1.60
6209.00,1.60
6208.00,1.60
6207.00,1.60
6206.00,1.60
6205.00,1.61
6204.00,1.61
6203.00,1.61
6202.00,1.61
6201.00,1.61
6200.00,1.62
6199.00,1.62
6198.00,1.62
6197.00,1.62
6196.00,1.63
6195.00,1.63
6194.00,1.63
6193.00,1.63
6192.00,1.63
6191.00,1.64
6190.00,1.64
6189.00,1.64
6188.00,1.64
6187.00,1.64
6186.00,1.65
6185.00,1.65
6184.00,1.65
6183.00,1.65
6182.00,1.65
6181.00,1.65
6180.00,1.65
6179.00,1.65
6178.00,1.65
6177.00,1.66
6176.00,1.66
6175.00,1.66
6174.00,1.66
6173.00,1.66
6172.00,1.65
6171.00,1.65
6170.00,1.65
6169.00,1.65
6168.00,1.66
6167.00,1.66
6166.00,1.66
6165.00,1.66
6164.00,1.66
6163.00,1.66
6162.00,1.66
6161.00,1.66
6160.00,1.67
6159.00,1.67
6158.00,1.67
6157.00,1.67
6156.00,1.67
6155.00,1.67
6154.00,1.68
6153.00,1.68
6152.00,1.68
6151.00,1.68
6150.00,1.68
6149.00,1.69
6148.00,1.69
6147.00,1.69
6146.00,1.69
6145.00,1.69
6144.00,1.70
6143.00,1.70
6142.00,1.70
6141.00,1.70
6140.00,1.70
6139.00,1.71
6138.00,1.71
6137.00,1.71
6136.00,1.71
6135.00,1.71
6134.00,1.71
6133.00,1.71
6132.00,1.71
6131.00,1.72
6130.00,1.72
6129.00,1.72
6128.00,1.72
6127.00,1.72
6126.00,1.72
6125.00,1.72
6124.00,1.72
6123.00,1.72
6122.00,1.72
6121.00,1.72
6120.00,1.72
6119.00,1.72
6118.00,1.72
6117.00,1.72
6116.00,1.73
6115.00,1.73
6114.00,1.73
6113.00,1.73
6112.00,1.73
6111.00,1.73
6110.00,1.73
6109.00,1.73
6108.00,1.73
6107.00,1.73
6106.00,1.73
6105.00,1.73
6104.00,1.73
6103.00,1.73
6102.00,1.73
6101.00,1.73
6100.00,1.73
6099.00,1.73
6098.00,1.73
6097.00,1.73
6096.00,1.73
6095.00,1.74
6094.00,1.74
6093.00,1.74
6092.00,1.74
6091.00,1.74
6090.00,1.74
6089.00,1.74
6088.00,1.74
6087.00,1.74
6086.00,1.74
6085.00,1.74
6084.00,1.74
6083.00,1.74
6082.00,1.74
6081.00,1.74
6080.00,1.74
6079.00,1.74
6078.00,1.74
6077.00,1.74
6076.00,1.74
6075.00,1.74
6074.00,1.74
6073.00,1.74
6072.00,1.75
6071.00,1.75
6070.00,1.75
6069.00,1.75
6068.00,1.75
6067.00,1.75
6066.00,1.75
6065.00,1.75
6064.00,1.75
6063.00,1.76
6062.00,1.76
6061.00,1.76
6060.00,1.76
6059.00,1.76
6058.00,1.76
6057.00,1.76
6056.00,1.76
6055.00,1.76
6054.00,1.76
6053.00,1.76
6052.00,1.76
6051.00,1.76
6050.00,1.76
6049.00,1.76
6048.00,1.77
6047.00,1.77
6046.00,1.77
6045.00,1.77
6044.00,1.77
6043.00,1.77
6042.00,1.77
6041.00,1.77
6040.00,1.77
6039.00,1.77
6038.00,1.77
6037.00,1.77
6036.00,1.77
6035.00,1.77
6034.00,1.77
6033.00,1.77
6032.00,1.77
6031.00,1.77
6030.00,1.77
6029.00,1.77
6028.00,1.77
6027.00,1.77
6026.00,1.77
6025.00,1.78
6024.00,1.78
6023.00,1.78
6022.00,1.78
6021.00,1.78
6020.00,1.78
6019.00,1.78
6018.00,1.78
6017.00,1.78
6016.00,1.78
6015.00,1.78
6014.00,1.78
6013.00,1.77
6012.00,1.77
6011.00,1.77
6010.00,1.77
6009.00,1.77
6008.00,1.77
6007.00,1.77
6006.00,1.77
6005.00,1.77
6004.00,1.77
6003.00,1.77
6002.00,1.77
6001.00,1.77
6000.00,1.77
5999.00,1.77
5998.00,1.77
5997.00,1.77
5996.00,1.76
5995.00,1.76
5994.00,1.76
5993.00,1.76
5992.00,1.76
5991.00,1.76
5990.00,1.76
5989.00,1.76
5988.00,1.76
5987.00,1.76
5986.00,1.76
5985.00,1.76
5984.00,1.76
5983.00,1.76
5982.00,1.76
5981.00,1.76
5980.00,1.76
5979.00,1.76
5978.00,1.76
5977.00,1.75
5976.00,1.75
5975.00,1.75
5974.00,1.75
5973.00,1.74
5972.00,1.74
5971.00,1.74
5970.00,1.73
5969.00,1.73
5968.00,1.72
5967.00,1.72
5966.00,1.72
5965.00,1.71
5964.00,1.71
5963.00,1.70
5962.00,1.70
5961.00,1.69
5960.00,1.69
5959.00,1.68
5958.00,1.68
5957.00,1.67
5956.00,1.67
5955.00,1.66
5954.00,1.66
5953.00,1.65
5952.00,1.65
5951.00,1.65
5950.00,1.64
5949.00,1.64
5948.00,1.63
5947.00,1.63
5946.00,1.63
5945.00,1.63
5944.00,1.62
5943.00,1.62
5942.00,1.62
5941.00,1.62
5940.00,1.62
5939.00,1.62
5938.00,1.62
5937.00,1.61
5936.00,1.61
5935.00,1.61
5934.00,1.61
5933.00,1.61
5932.00,1.61
5931.00,1.61
5930.00,1.61
5929.00,1.60
5928.00,1.60
5927.00,1.60
5926.00,1.60
5925.00,1.60
5924.00,1.60
5923.00,1.60
5922.00,1.59
5921.00,1.59
5920.00,1.59
5919.00,1.59
5918.00,1.59
5917.00,1.58
5916.00,1.58
5915.00,1.58
5914.00,1.58
5913.00,1.58
5912.00,1.57
5911.00,1.57
5910.00,1.57
5909.00,1.57
5908.00,1.57
5907.00,1.57
5906.00,1.57
5905.00,1.57
5904.00,1.57
5903.00,1.57
5902.00,1.57
5901.00,1.57
5900.00,1.57
5899.00,1.57
5898.00,1.57
5897.00,1.57
5896.00,1.58
5895.00,1.58
5894.00,1.58
5893.00,1.58
5892.00,1.58
5891.00,1.59
5890.00,1.59
5889.00,1.59
5888.00,1.59
5887.00,1.60
5886.00,1.60
5885.00,1.60
5884.00,1.60
5883.00,1.61
5882.00,1.61
5881.00,1.61
5880.00,1.62
5879.00,1.62
5878.00,1.62
5877.00,1.62
5876.00,1.63
5875.00,1.63
5874.00,1.63
5873.00,1.63
5872.00,1.63
5871.00,1.64
5870.00,1.64
5869.00,1.64
5868.00,1.64
5867.00,1.64
5866.00,1.64
5865.00,1.65
5864.00,1.65
5863.00,1.65
5862.00,1.65
5861.00,1.65
5860.00,1.65
5859.00,1.65
5858.00,1.65
5857.00,1.65
5856.00,1.65
5855.00,1.65
5854.00,1.65
5853.00,1.65
5852.00,1.65
5851.00,1.65
5850.00,1.65
5849.00,1.64
5848.00,1.64
5847.00,1.64
5846.00,1.64
5845.00,1.64
5844.00,1.64
5843.00,1.64
5842.00,1.64
5841.00,1.64
5840.00,1.64
5839.00,1.64
5838.00,1.64
5837.00,1.64
5836.00,1.64
5835.00,1.64
5834.00,1.64
5833.00,1.64
5832.00,1.64
5831.00,1.64
5830.00,1.64
5829.00,1.64
5828.00,1.64
5827.00,1.64
5826.00,1.64
5825.00,1.64
5824.00,1.64
5823.00,1.64
5822.00,1.64
5821.00,1.64
5820.00,1.64
5819.00,1.64
5818.00,1.64
5817.00,1.64
5816.00,1.64
5815.00,1.64
5814.00,1.64
5813.00,1.64
5812.00,1.64
5811.00,1.64
5810.00,1.64
5809.00,1.64
5808.00,1.64
5807.00,1.64
5806.00,1.64
5805.00,1.63
5804.00,1.63
5803.00,1.63
5802.00,1.63
5801.00,1.63
5800.00,1.63
5799.00,1.63
5798.00,1.63
5797.00,1.63
5796.00,1.63
5795.00,1.63
5794.00,1.63
5793.00,1.63
5792.00,1.63
5791.00,1.63
5790.00,1.63
5789.00,1.63
5788.00,1.63
5787.00,1.62
5786.00,1.62
5785.00,1.62
5784.00,1.62
5783.00,1.62
5782.00,1.62
5781.00,1.62
5780.00,1.62
5779.00,1.62
5778.00,1.62
5777.00,1.62
5776.00,1.62
5775.00,1.62
5774.00,1.62
5773.00,1.62
5772.00,1.62
5771.00,1.62
5770.00,1.62
5769.00,1.62
5768.00,1.63
5767.00,1.63
5766.00,1.63
5765.00,1.63
5764.00,1.63
5763.00,1.63
5762.00,1.63
5761.00,1.63
5760.00,1.63
5759.00,1.63
5758.00,1.63
5757.00,1.63
5756.00,1.63
5755.00,1.63
5754.00,1.63
5753.00,1.63
5752.00,1.64
5751.00,1.64
5750.00,1.64
5749.00,1.64
5748.00,1.64
5747.00,1.64
5746.00,1.64
5745.00,1.64
5744.00,1.64
5743.00,1.64
5742.00,1.64
5741.00,1.64
5740.00,1.64
5739.00,1.64
5738.00,1.64
5737.00,1.65
5736.00,1.65
5735.00,1.65
5734.00,1.65
5733.00,1.65
5732.00,1.65
5731.00,1.65
5730.00,1.66
5729.00,1.66
5728.00,1.66
5727.00,1.66
5726.00,1.66
5725.00,1.66
5724.00,1.66
5723.00,1.67
5722.00,1.67
5721.00,1.67
5720.00,1.67
5719.00,1.67
5718.00,1.67
5717.00,1.67
5716.00,1.68
5715.00,1.68
5714.00,1.68
5713.00,1.68
5712.00,1.68
5711.00,1.68
5710.00,1.68
5709.00,1.68
5708.00,1.68
5707.00,1.68
5706.00,1.68
5705.00,1.67
5704.00,1.67
5703.00,1.67
5702.00,1.67
5701.00,1.67
5700.00,1.67
5699.00,1.66
5698.00,1.66
5697.00,1.66
5696.00,1.66
5695.00,1.66
5694.00,1.65
5693.00,1.65
5692.00,1.65
5691.00,1.65
5690.00,1.64
5689.00,1.64
5688.00,1.64
5687.00,1.64
5686.00,1.64
5685.00,1.64
5684.00,1.64
5683.00,1.64
5682.00,1.63
5681.00,1.63
5680.00,1.63
5679.00,1.63
5678.00,1.64
5677.00,1.64
5676.00,1.64
5675.00,1.64
5674.00,1.64
5673.00,1.64
5672.00,1.64
5671.00,1.64
5670.00,1.64
5669.00,1.65
5668.00,1.65
5667.00,1.65
5666.00,1.65
5665.00,1.65
5664.00,1.65
5663.00,1.65
5662.00,1.66
5661.00,1.66
5660.00,1.66
5659.00,1.66
5658.00,1.66
5657.00,1.66
5656.00,1.66
5655.00,1.66
5654.00,1.66
5653.00,1.66
5652.00,1.67
5651.00,1.67
5650.00,1.67
5649.00,1.67
5648.00,1.67
5647.00,1.67
5646.00,1.67
5645.00,1.67
5644.00,1.67
5643.00,1.67
5642.00,1.67
5641.00,1.67
5640.00,1.67
5639.00,1.67
5638.00,1.67
5637.00,1.67
5636.00,1.68
5635.00,1.68
5634.00,1.68
5633.00,1.68
5632.00,1.68
5631.00,1.68
5630.00,1.68
5629.00,1.68
5628.00,1.69
5627.00,1.69
5626.00,1.69
5625.00,1.69
5624.00,1.69
5623.00,1.69
5622.00,1.70
5621.00,1.70
5620.00,1.70
5619.00,1.70
5618.00,1.70
5617.00,1.70
5616.00,1.71
5615.00,1.71
5614.00,1.71
5613.00,1.71
5612.00,1.71
5611.00,1.71
5610.00,1.71
5609.00,1.72
5608.00,1.72
5607.00,1.72
5606.00,1.72
5605.00,1.72
5604.00,1.72
5603.00,1.72
5602.00,1.72
5601.00,1.72
5600.00,1.72
5599.00,1.72
5598.00,1.72
5597.00,1.72
5596.00,1.72
5595.00,1.72
5594.00,1.72
5593.00,1.72
5592.00,1.72
5591.00,1.72
5590.00,1.72
5589.00,1.72
5588.00,1.72
5587.00,1.72
5586.00,1.72
5585.00,1.72
5584.00,1.72
5583.00,1.72
5582.00,1.72
5581.00,1.72
5580.00,1.72
5579.00,1.72
5578.00,1.72
5577.00,1.72
5576.00,1.72
5575.00,1.73
5574.00,1.73
5573.00,1.73
5572.00,1.73
5571.00,1.73
5570.00,1.73
5569.00,1.74
5568.00,1.74
5567.00,1.74
5566.00,1.74
5565.00,1.74
5564.00,1.75
5563.00,1.75
5562.00,1.75
5561.00,1.75
5560.00,1.76
5559.00,1.76
5558.00,1.76
5557.00,1.76
5556.00,1.76
5555.00,1.76
5554.00,1.76
5553.00,1.76
5552.00,1.76
5551.00,1.77
5550.00,1.77
5549.00,1.77
5548.00,1.77
5547.00,1.76
5546.00,1.76
5545.00,1.76
5544.00,1.76
5543.00,1.76
5542.00,1.76
5541.00,1.76
5540.00,1.76
5539.00,1.76
5538.00,1.76
5537.00,1.76
5536.00,1.76
5535.00,1.76
5534.00,1.76
5533.00,1.76
5532.00,1.76
5531.00,1.75
5530.00,1.75
5529.00,1.75
5528.00,1.75
5527.00,1.75
5526.00,1.75
5525.00,1.75
5524.00,1.75
5523.00,1.75
5522.00,1.75
5521.00,1.75
5520.00,1.75
5519.00,1.75
5518.00,1.75
5517.00,1.75
5516.00,1.75
5515.00,1.75
5514.00,1.76
5513.00,1.76
5512.00,1.76
5511.00,1.76
5510.00,1.76
5509.00,1.76
5508.00,1.76
5507.00,1.76
5506.00,1.76
5505.00,1.77
5504.00,1.77
5503.00,1.77
5502.00,1.77
5501.00,1.77
5500.00,1.77
5499.00,1.77
5498.00,1.77
5497.00,1.78
5496.00,1.78
5495.00,1.78
5494.00,1.78
5493.00,1.78
5492.00,1.78
5491.00,1.78
5490.00,1.78
5489.00,1.79
5488.00,1.79
5487.00,1.79
5486.00,1.79
5485.00,1.79
5484.00,1.79
5483.00,1.79
5482.00,1.79
5481.00,1.80
5480.00,1.80
5479.00,1.80
5478.00,1.80
5477.00,1.80
5476.00,1.80
5475.00,1.80
5474.00,1.81
5473.00,1.81
5472.00,1.81
5471.00,1.81
5470.00,1.81
5469.00,1.81
5468.00,1.81
5467.00,1.82
5466.00,1.82
5465.00,1.82
5464.00,1.82
5463.00,1.82
5462.00,1.82
5461.00,1.82
5460.00,1.82
5459.00,1.83
5458.00,1.83
5457.00,1.83
5456.00,1.83
5455.00,1.83
5454.00,1.83
5453.00,1.83
5452.00,1.83
5451.00,1.84
5450.00,1.84
5449.00,1.84
5448.00,1.84
5447.00,1.84
5446.00,1.84
5445.00,1.84
5444.00,1.85
5443.00,1.85
5442.00,1.85
5441.00,1.85
5440.00,1.85
5439.00,1.85
5438.00,1.85
5437.00,1.85
5436.00,1.85
5435.00,1.85
5434.00,1.86
5433.00,1.86
5432.00,1.86
5431.00,1.86
5430.00,1.86
5429.00,1.86
5428.00,1.86
5427.00,1.86
5426.00,1.86
5425.00,1.86
5424.00,1.86
5423.00,1.86
5422.00,1.86
5421.00,1.86
5420.00,1.86
5419.00,1.86
5418.00,1.86
5417.00,1.86
5416.00,1.86
5415.00,1.85
5414.00,1.85
5413.00,1.85
5412.00,1.85
5411.00,1.85
5410.00,1.85
5409.00,1.85
5408.00,1.85
5407.00,1.85
5406.00,1.85
5405.00,1.85
5404.00,1.85
5403.00,1.84
5402.00,1.84
5401.00,1.84
5400.00,1.84
5399.00,1.84
5398.00,1.84
5397.00,1.83
5396.00,1.83
5395.00,1.83
5394.00,1.83
5393.00,1.83
5392.00,1.83
5391.00,1.83
5390.00,1.82
5389.00,1.82
5388.00,1.82
5387.00,1.82
5386.00,1.82
5385.00,1.81
5384.00,1.81
5383.00,1.81
5382.00,1.81
5381.00,1.80
5380.00,1.80
5379.00,1.80
5378.00,1.80
5377.00,1.79
5376.00,1.79
5375.00,1.79
5374.00,1.78
5373.00,1.78
5372.00,1.78
5371.00,1.77
5370.00,1.77
5369.00,1.76
5368.00,1.76
5367.00,1.75
5366.00,1.75
5365.00,1.74
5364.00,1.74
5363.00,1.73
5362.00,1.73
5361.00,1.72
5360.00,1.72
5359.00,1.71
5358.00,1.70
5357.00,1.70
5356.00,1.69
5355.00,1.69
5354.00,1.68
5353.00,1.67
5352.00,1.67
5351.00,1.66
5350.00,1.65
5349.00,1.65
5348.00,1.64
5347.00,1.63
5346.00,1.63
5345.00,1.62
5344.00,1.61
5343.00,1.60
5342.00,1.59
5341.00,1.59
5340.00,1.58
5339.00,1.57
5338.00,1.56
5337.00,1.55
5336.00,1.54
5335.00,1.53
5334.00,1.52
5333.00,1.51
5332.00,1.50
5331.00,1.49
5330.00,1.48
5329.00,1.47
5328.00,1.45
5327.00,1.44
5326.00,1.43
5325.00,1.42
5324.00,1.40
5323.00,1.39
5322.00,1.38
5321.00,1.37
5320.00,1.35
5319.00,1.34
5318.00,1.33
5317.00,1.31
5316.00,1.30
5315.00,1.29
5314.00,1.27
5313.00,1.26
5312.00,1.24
5311.00,1.23
5310.00,1.21
5309.00,1.20
5308.00,1.19
5307.00,1.17
5306.00,1.16
5305.00,1.15
5304.00,1.13
5303.00,1.12
5302.00,1.11
5301.00,1.09
5300.00,1.08
5299.00,1.07
5298.00,1.06
5297.00,1.05
5296.00,1.03
5295.00,1.02
5294.00,1.01
5293.00,1.00
5292.00,0.99
5291.00,0.98
5290.00,0.97
5289.00,0.96
5288.00,0.95
5287.00,0.94
5286.00,0.93
5285.00,0.93
5284.00,0.92
5283.00,0.91
5282.00,0.90
5281.00,0.90
5280.00,0.89
5279.00,0.88
5278.00,0.88
5277.00,0.87
5276.00,0.86
5275.00,0.86
5274.00,0.85
5273.00,0.85
5272.00,0.84
5271.00,0.84
5270.00,0.83
5269.00,0.82
5268.00,0.82
5267.00,0.82
5266.00,0.81
5265.00,0.81
5264.00,0.80
5263.00,0.80
5262.00,0.79
5261.00,0.79
5260.00,0.78
5259.00,0.78
5258.00,0.77
5257.00,0.77
5256.00,0.76
5255.00,0.76
5254.00,0.76
5253.00,0.75
5252.00,0.75
5251.00,0.74
5250.00,0.74
5249.00,0.74
5248.00,0.73
5247.00,0.73
5246.00,0.73
5245.00,0.73
5244.00,0.72
5243.00,0.72
5242.00,0.72
5241.00,0.72
5240.00,0.71
5239.00,0.71
5238.00,0.71
5237.00,0.71
5236.00,0.71
5235.00,0.71
5234.00,0.71
5233.00,0.71
5232.00,0.70
5231.00,0.70
5230.00,0.70
5229.00,0.70
5228.00,0.70
5227.00,0.70
5226.00,0.70
5225.00,0.69
5224.00,0.69
5223.00,0.69
5222.00,0.69
5221.00,0.69
5220.00,0.69
5219.00,0.69
5218.00,0.69
5217.00,0.69
5216.00,0.69
5215.00,0.68
5214.00,0.68
5213.00,0.68
5212.00,0.68
5211.00,0.68
5210.00,0.68
5209.00,0.68
5208.00,0.68
5207.00,0.68
5206.00,0.68
5205.00,0.68
5204.00,0.67
5203.00,0.67
5202.00,0.67
5201.00,0.67
5200.00,0.67
5199.00,0.67
5198.00,0.67
5197.00,0.67
5196.00,0.67
5195.00,0.67
5194.00,0.67
5193.00,0.67
5192.00,0.67
5191.00,0.66
5190.00,0.66
5189.00,0.66
5188.00,0.66
5187.00,0.66
5186.00,0.66
5185.00,0.66
5184.00,0.66
5183.00,0.66
5182.00,0.66
5181.00,0.66
5180.00,0.66
5179.00,0.66
5178.00,0.66
5177.00,0.66
5176.00,0.66
5175.00,0.66
5174.00,0.66
5173.00,0.66
5172.00,0.66
5171.00,0.66
5170.00,0.66
5169.00,0.66
5168.00,0.66
5167.00,0.66
5166.00,0.66
5165.00,0.66
5164.00,0.66
5163.00,0.66
5162.00,0.66
5161.00,0.66
5160.00,0.66
5159.00,0.66
5158.00,0.66
5157.00,0.66
5156.00,0.66
5155.00,0.66
5154.00,0.66
5153.00,0.66
5152.00,0.66
5151.00,0.66
5150.00,0.66
5149.00,0.66
5148.00,0.66
5147.00,0.66
5146.00,0.65
5145.00,0.66
5144.00,0.66
5143.00,0.66
5142.00,0.66
5141.00,0.66
5140.00,0.66
5139.00,0.66
5138.00,0.66
5137.00,0.66
5136.00,0.66
5135.00,0.66
5134.00,0.67
5133.00,0.67
5132.00,0.67
5131.00,0.67
5130.00,0.67
5129.00,0.67
5128.00,0.67
5127.00,0.68
5126.00,0.68
5125.00,0.68
5124.00,0.68
5123.00,0.68
5122.00,0.69
5121.00,0.69
5120.00,0.69
5119.00,0.69
5118.00,0.69
5117.00,0.70
5116.00,0.70
5115.00,0.70
5114.00,0.70
5113.00,0.71
5112.00,0.71
5111.00,0.71
5110.00,0.71
5109.00,0.72
5108.00,0.72
5107.00,0.72
5106.00,0.72
5105.00,0.72
5104.00,0.73
5103.00,0.73
5102.00,0.73
5101.00,0.73
5100.00,0.73
5099.00,0.74
5098.00,0.74
5097.00,0.74
5096.00,0.74
5095.00,0.74
5094.00,0.74
5093.00,0.75
5092.00,0.75
5091.00,0.75
5090.00,0.75
5089.00,0.75
5088.00,0.75
5087.00,0.75
5086.00,0.76
5085.00,0.76
5084.00,0.76
5083.00,0.76
5082.00,0.76
5081.00,0.77
5080.00,0.77
5079.00,0.77
5078.00,0.77
5077.00,0.78
5076.00,0.78
5075.00,0.78
5074.00,0.78
5073.00,0.78
5072.00,0.78
5071.00,0.79
5070.00,0.79
5069.00,0.79
5068.00,0.79
5067.00,0.79
5066.00,0.79
5065.00,0.80
5064.00,0.80
5063.00,0.80
5062.00,0.80
5061.00,0.80
5060.00,0.80
5059.00,0.80
5058.00,0.80
5057.00,0.80
5056.00,0.80
5055.00,0.80
5054.00,0.80
5053.00,0.80
5052.00,0.80
5051.00,0.80
5050.00,0.80
5049.00,0.80
5048.00,0.81
5047.00,0.81
5046.00,0.81
5045.00,0.81
5044.00,0.81
5043.00,0.81
5042.00,0.81
5041.00,0.81
5040.00,0.82
5039.00,0.82
5038.00,0.82
5037.00,0.82
5036.00,0.82
5035.00,0.83
5034.00,0.83
5033.00,0.83
5032.00,0.83
5031.00,0.84
5030.00,0.84
5029.00,0.84
5028.00,0.84
5027.00,0.85
5026.00,0.85
5025.00,0.85
5024.00,0.86
5023.00,0.86
5022.00,0.86
5021.00,0.87
5020.00,0.87
5019.00,0.87
5018.00,0.87
5017.00,0.88
5016.00,0.88
5015.00,0.88
5014.00,0.89
5013.00,0.89
5012.00,0.89
5011.00,0.90
5010.00,0.90
5009.00,0.90
5008.00,0.90
5007.00,0.91
5006.00,0.91
5005.00,0.91
5004.00,0.91
5003.00,0.92
5002.00,0.92
5001.00,0.92
5000.00,0.93
4999.00,0.93
4998.00,0.93
4997.00,0.94
4996.00,0.94
4995.00,0.94
4994.00,0.94
4993.00,0.95
4992.00,0.95
4991.00,0.95
4990.00,0.96
4989.00,0.96
4988.00,0.96
4987.00,0.96
4986.00,0.96
4985.00,0.97
4984.00,0.97
4983.00,0.97
4982.00,0.97
4981.00,0.98
4980.00,0.98
4979.00,0.98
4978.00,0.98
4977.00,0.99
4976.00,0.99
4975.00,0.99
4974.00,0.99
4973.00,1.00
4972.00,1.00
4971.00,1.00
4970.00,1.00
4969.00,1.00
4968.00,1.01
4967.00,1.01
4966.00,1.01
4965.00,1.01
4964.00,1.01
4963.00,1.02
4962.00,1.02
4961.00,1.02
4960.00,1.02
4959.00,1.03
4958.00,1.03
4957.00,1.03
4956.00,1.03
4955.00,1.03
4954.00,1.04
4953.00,1.04
4952.00,1.04
4951.00,1.04
4950.00,1.05
4949.00,1.05
4948.00,1.05
4947.00,1.05
4946.00,1.05
4945.00,1.06
4944.00,1.06
4943.00,1.06
4942.00,1.06
4941.00,1.07
4940.00,1.07
4939.00,1.07
4938.00,1.07
4937.00,1.08
4936.00,1.08
4935.00,1.08
4934.00,1.08
4933.00,1.08
4932.00,1.08
4931.00,1.09
4930.00,1.09
4929.00,1.09
4928.00,1.09
4927.00,1.10
4926.00,1.10
4925.00,1.10
4924.00,1.10
4923.00,1.11
4922.00,1.11
4921.00,1.11
4920.00,1.12
4919.00,1.12
4918.00,1.12
4917.00,1.12
4916.00,1.13
4915.00,1.13
4914.00,1.13
4913.00,1.13
4912.00,1.14
4911.00,1.14
4910.00,1.14
4909.00,1.15
4908.00,1.15
4907.00,1.15
4906.00,1.16
4905.00,1.16
4904.00,1.16
4903.00,1.16
4902.00,1.17
4901.00,1.17
4900.00,1.17
4899.00,1.17
4898.00,1.17
4897.00,1.17
4896.00,1.17
4895.00,1.17
4894.00,1.17
4893.00,1.17
4892.00,1.17
4891.00,1.17
4890.00,1.18
4889.00,1.18
4888.00,1.18
4887.00,1.18
4886.00,1.18
4885.00,1.18
4884.00,1.18
4883.00,1.18
4882.00,1.18
4881.00,1.18
4880.00,1.18
4879.00,1.18
4878.00,1.18
4877.00,1.18
4876.00,1.18
4875.00,1.18
4874.00,1.18
4873.00,1.18
4872.00,1.19
4871.00,1.19
4870.00,1.19
4869.00,1.19
4868.00,1.19
4867.00,1.19
4866.00,1.19
4865.00,1.19
4864.00,1.19
4863.00,1.19
4862.00,1.19
4861.00,1.19
4860.00,1.20
4859.00,1.20
4858.00,1.20
4857.00,1.20
4856.00,1.20
4855.00,1.20
4854.00,1.20
4853.00,1.20
4852.00,1.20
4851.00,1.20
4850.00,1.20
4849.00,1.20
4848.00,1.20
4847.00,1.20
4846.00,1.20
4845.00,1.20
4844.00,1.20
4843.00,1.20
4842.00,1.21
4841.00,1.21
4840.00,1.21
4839.00,1.21
4838.00,1.21
4837.00,1.21
4836.00,1.22
4835.00,1.22
4834.00,1.22
4833.00,1.22
4832.00,1.23
4831.00,1.23
4830.00,1.23
4829.00,1.23
4828.00,1.23
4827.00,1.24
4826.00,1.24
4825.00,1.24
4824.00,1.24
4823.00,1.24
4822.00,1.25
4821.00,1.25
4820.00,1.25
4819.00,1.25
4818.00,1.26
4817.00,1.26
4816.00,1.26
4815.00,1.26
4814.00,1.27
4813.00,1.27
4812.00,1.27
4811.00,1.27
4810.00,1.28
4809.00,1.28
4808.00,1.28
4807.00,1.28
4806.00,1.28
4805.00,1.29
4804.00,1.29
4803.00,1.29
4802.00,1.30
4801.00,1.30
4800.00,1.30
4799.00,1.31
4798.00,1.31
4797.00,1.31
4796.00,1.32
4795.00,1.32
4794.00,1.32
4793.00,1.33
4792.00,1.33
4791.00,1.33
4790.00,1.34
4789.00,1.34
4788.00,1.34
4787.00,1.34
4786.00,1.34
4785.00,1.35
4784.00,1.35
4783.00,1.35
4782.00,1.36
4781.00,1.36
4780.00,1.36
4779.00,1.37
4778.00,1.37
4777.00,1.37
4776.00,1.38
4775.00,1.38
4774.00,1.38
4773.00,1.38
4772.00,1.39
4771.00,1.39
4770.00,1.39
4769.00,1.40
4768.00,1.40
4767.00,1.41
4766.00,1.41
4765.00,1.41
4764.00,1.42
4763.00,1.42
4762.00,1.43
4761.00,1.43
4760.00,1.43
4759.00,1.44
4758.00,1.44
4757.00,1.45
4756.00,1.45
4755.00,1.46
4754.00,1.46
4753.00,1.46
4752.00,1.47
4751.00,1.47
4750.00,1.47
4749.00,1.48
4748.00,1.48
4747.00,1.48
4746.00,1.49
4745.00,1.49
4744.00,1.49
4743.00,1.49
4742.00,1.49
4741.00,1.50
4740.00,1.50
4739.00,1.50
4738.00,1.50
4737.00,1.50
4736.00,1.51
4735.00,1.51
4734.00,1.51
4733.00,1.51
4732.00,1.52
4731.00,1.52
4730.00,1.52
4729.00,1.53
4728.00,1.53
4727.00,1.53
4726.00,1.54
4725.00,1.54
4724.00,1.54
4723.00,1.54
4722.00,1.55
4721.00,1.55
4720.00,1.55
4719.00,1.56
4718.00,1.56
4717.00,1.57
4716.00,1.57
4715.00,1.57
4714.00,1.58
4713.00,1.58
4712.00,1.59
4711.00,1.59
4710.00,1.60
4709.00,1.60
4708.00,1.60
4707.00,1.61
4706.00,1.61
4705.00,1.61
4704.00,1.62
4703.00,1.62
4702.00,1.62
4701.00,1.63
4700.00,1.63
4699.00,1.63
4698.00,1.64
4697.00,1.64
4696.00,1.64
4695.00,1.65
4694.00,1.65
4693.00,1.65
4692.00,1.66
4691.00,1.66
4690.00,1.66
4689.00,1.67
4688.00,1.67
4687.00,1.67
4686.00,1.67
4685.00,1.68
4684.00,1.68
4683.00,1.68
4682.00,1.68
4681.00,1.69
4680.00,1.69
4679.00,1.69
4678.00,1.69
4677.00,1.70
4676.00,1.70
4675.00,1.70
4674.00,1.70
4673.00,1.71
4672.00,1.71
4671.00,1.71
4670.00,1.71
4669.00,1.71
4668.00,1.71
4667.00,1.72
4666.00,1.72
4665.00,1.72
4664.00,1.72
4663.00,1.72
4662.00,1.72
4661.00,1.73
4660.00,1.73
4659.00,1.73
4658.00,1.73
4657.00,1.73
4656.00,1.73
4655.00,1.73
4654.00,1.73
4653.00,1.73
4652.00,1.73
4651.00,1.73
4650.00,1.74
4649.00,1.74
4648.00,1.74
4647.00,1.74
4646.00,1.74
4645.00,1.74
4644.00,1.74
4643.00,1.75
4642.00,1.75
4641.00,1.75
4640.00,1.75
4639.00,1.75
4638.00,1.75
4637.00,1.75
4636.00,1.75
4635.00,1.76
4634.00,1.76
4633.00,1.76
4632.00,1.76
4631.00,1.76
4630.00,1.76
4629.00,1.77
4628.00,1.77
4627.00,1.77
4626.00,1.77
4625.00,1.77
4624.00,1.78
4623.00,1.78
4622.00,1.78
4621.00,1.78
4620.00,1.78
4619.00,1.78
4618.00,1.78
4617.00,1.79
4616.00,1.79
4615.00,1.79
4614.00,1.79
4613.00,1.79
4612.00,1.79
4611.00,1.79
4610.00,1.79
4609.00,1.79
4608.00,1.80
4607.00,1.80
4606.00,1.80
4605.00,1.80
4604.00,1.80
4603.00,1.80
4602.00,1.80
4601.00,1.80
4600.00,1.80
4599.00,1.80
4598.00,1.80
4597.00,1.80
4596.00,1.80
4595.00,1.80
4594.00,1.80
4593.00,1.80
4592.00,1.80
4591.00,1.80
4590.00,1.80
4589.00,1.80
4588.00,1.80
4587.00,1.80
4586.00,1.80
4585.00,1.81
4584.00,1.81
4583.00,1.81
4582.00,1.81
4581.00,1.81
4580.00,1.82
4579.00,1.82
4578.00,1.82
4577.00,1.82
4576.00,1.83
4575.00,1.83
4574.00,1.83
4573.00,1.83
4572.00,1.83
4571.00,1.84
4570.00,1.84
4569.00,1.84
4568.00,1.84
4567.00,1.85
4566.00,1.85
4565.00,1.85
4564.00,1.85
4563.00,1.85
4562.00,1.85
4561.00,1.85
4560.00,1.85
4559.00,1.85
4558.00,1.85
4557.00,1.85
4556.00,1.85
4555.00,1.85
4554.00,1.84
4553.00,1.84
4552.00,1.84
4551.00,1.84
4550.00,1.84
4549.00,1.83
4548.00,1.83
4547.00,1.83
4546.00,1.83
4545.00,1.83
4544.00,1.82
4543.00,1.82
4542.00,1.82
4541.00,1.82
4540.00,1.82
4539.00,1.82
4538.00,1.82
4537.00,1.82
4536.00,1.82
4535.00,1.82
4534.00,1.82
4533.00,1.82
4532.00,1.82
4531.00,1.82
4530.00,1.82
4529.00,1.82
4528.00,1.82
4527.00,1.83
4526.00,1.83
4525.00,1.83
4524.00,1.83
4523.00,1.84
4522.00,1.84
4521.00,1.84
4520.00,1.85
4519.00,1.85
4518.00,1.85
4517.00,1.85
4516.00,1.85
4515.00,1.86
4514.00,1.86
4513.00,1.86
4512.00,1.86
4511.00,1.86
4510.00,1.86
4509.00,1.86
4508.00,1.86
4507.00,1.86
4506.00,1.86
4505.00,1.86
4504.00,1.86
4503.00,1.86
4502.00,1.86
4501.00,1.86
4500.00,1.86
4499.00,1.86
4498.00,1.86
4497.00,1.85
4496.00,1.85
4495.00,1.85
4494.00,1.85
4493.00,1.85
4492.00,1.85
4491.00,1.85
4490.00,1.85
4489.00,1.85
4488.00,1.85
4487.00,1.85
4486.00,1.85
4485.00,1.85
4484.00,1.85
4483.00,1.85
4482.00,1.85
4481.00,1.85
4480.00,1.85
4479.00,1.85
4478.00,1.85
4477.00,1.85
4476.00,1.85
4475.00,1.85
4474.00,1.85
4473.00,1.85
4472.00,1.84
4471.00,1.84
4470.00,1.84
4469.00,1.84
4468.00,1.83
4467.00,1.83
4466.00,1.83
4465.00,1.82
4464.00,1.82
4463.00,1.81
4462.00,1.81
4461.00,1.80
4460.00,1.79
4459.00,1.79
4458.00,1.78
4457.00,1.77
4456.00,1.76
4455.00,1.76
4454.00,1.75
4453.00,1.74
4452.00,1.73
4451.00,1.72
4450.00,1.71
4449.00,1.69
4448.00,1.68
4447.00,1.67
4446.00,1.66
4445.00,1.65
4444.00,1.64
4443.00,1.62
4442.00,1.61
4441.00,1.60
4440.00,1.59
4439.00,1.57
4438.00,1.56
4437.00,1.55
4436.00,1.53
4435.00,1.52
4434.00,1.51
4433.00,1.49
4432.00,1.48
4431.00,1.47
4430.00,1.45
4429.00,1.44
4428.00,1.43
4427.00,1.42
4426.00,1.41
4425.00,1.40
4424.00,1.39
4423.00,1.38
4422.00,1.37
4421.00,1.36
4420.00,1.35
4419.00,1.34
4418.00,1.33
4417.00,1.32
4416.00,1.32
4415.00,1.31
4414.00,1.30
4413.00,1.30
4412.00,1.29
4411.00,1.29
4410.00,1.28
4409.00,1.28
4408.00,1.28
4407.00,1.28
4406.00,1.28
4405.00,1.28
4404.00,1.28
4403.00,1.28
4402.00,1.28
4401.00,1.29
4400.00,1.29
4399.00,1.29
4398.00,1.30
4397.00,1.30
4396.00,1.30
4395.00,1.31
4394.00,1.31
4393.00,1.32
4392.00,1.33
4391.00,1.34
4390.00,1.34
4389.00,1.35
4388.00,1.36
4387.00,1.37
4386.00,1.38
4385.00,1.38
4384.00,1.39
4383.00,1.40
4382.00,1.40
4381.00,1.41
4380.00,1.42
4379.00,1.42
4378.00,1.43
4377.00,1.43
4376.00,1.44
4375.00,1.44
4374.00,1.44
4373.00,1.44
4372.00,1.44
4371.00,1.44
4370.00,1.44
4369.00,1.44
4368.00,1.44
4367.00,1.44
4366.00,1.43
4365.00,1.43
4364.00,1.42
4363.00,1.42
4362.00,1.41
4361.00,1.41
4360.00,1.40
4359.00,1.39
4358.00,1.39
4357.00,1.38
4356.00,1.37
4355.00,1.37
4354.00,1.36
4353.00,1.36
4352.00,1.35
4351.00,1.35
4350.00,1.34
4349.00,1.34
4348.00,1.34
4347.00,1.33
4346.00,1.33
4345.00,1.33
4344.00,1.33
4343.00,1.33
4342.00,1.33
4341.00,1.33
4340.00,1.33
4339.00,1.34
4338.00,1.34
4337.00,1.34
4336.00,1.35
4335.00,1.35
4334.00,1.36
4333.00,1.36
4332.00,1.37
4331.00,1.37
4330.00,1.38
4329.00,1.38
4328.00,1.39
4327.00,1.40
4326.00,1.40
4325.00,1.41
4324.00,1.42
4323.00,1.42
4322.00,1.43
4321.00,1.44
4320.00,1.45
4319.00,1.46
4318.00,1.46
4317.00,1.47
4316.00,1.48
4315.00,1.49
4314.00,1.50
4313.00,1.51
4312.00,1.51
4311.00,1.52
4310.00,1.53
4309.00,1.54
4308.00,1.55
4307.00,1.56
4306.00,1.57
4305.00,1.58
4304.00,1.59
4303.00,1.60
4302.00,1.61
4301.00,1.62
4300.00,1.63
4299.00,1.64
4298.00,1.65
4297.00,1.65
4296.00,1.66
4295.00,1.67
4294.00,1.68
4293.00,1.68
4292.00,1.69
4291.00,1.70
4290.00,1.70
4289.00,1.71
4288.00,1.71
4287.00,1.72
4286.00,1.72
4285.00,1.73
4284.00,1.73
4283.00,1.73
4282.00,1.73
4281.00,1.73
4280.00,1.73
4279.00,1.73
4278.00,1.73
4277.00,1.73
4276.00,1.73
4275.00,1.73
4274.00,1.73
4273.00,1.73
4272.00,1.73
4271.00,1.73
4270.00,1.72
4269.00,1.72
4268.00,1.72
4267.00,1.72
4266.00,1.72
4265.00,1.71
4264.00,1.71
4263.00,1.71
4262.00,1.70
4261.00,1.70
4260.00,1.69
4259.00,1.69
4258.00,1.69
4257.00,1.69
4256.00,1.69
4255.00,1.68
4254.00,1.68
4253.00,1.68
4252.00,1.68
4251.00,1.68
4250.00,1.68
4249.00,1.68
4248.00,1.68
4247.00,1.68
4246.00,1.68
4245.00,1.68
4244.00,1.68
4243.00,1.69
4242.00,1.69
4241.00,1.69
4240.00,1.69
4239.00,1.69
4238.00,1.70
4237.00,1.70
4236.00,1.70
4235.00,1.71
4234.00,1.71
4233.00,1.72
4232.00,1.72
4231.00,1.73
4230.00,1.73
4229.00,1.74
4228.00,1.74
4227.00,1.75
4226.00,1.75
4225.00,1.76
4224.00,1.76
4223.00,1.76
4222.00,1.77
4221.00,1.77
4220.00,1.77
4219.00,1.78
4218.00,1.78
4217.00,1.79
4216.00,1.79
4215.00,1.79
4214.00,1.80
4213.00,1.80
4212.00,1.80
4211.00,1.81
4210.00,1.81
4209.00,1.81
4208.00,1.81
4207.00,1.82
4206.00,1.82
4205.00,1.82
4204.00,1.82
4203.00,1.82
4202.00,1.82
4201.00,1.81
4200.00,1.81
4199.00,1.81
4198.00,1.81
4197.00,1.81
4196.00,1.81
4195.00,1.81
4194.00,1.81
4193.00,1.81
4192.00,1.80
4191.00,1.80
4190.00,1.80
4189.00,1.80
4188.00,1.80
4187.00,1.79
4186.00,1.79
4185.00,1.79
4184.00,1.78
4183.00,1.78
4182.00,1.78
4181.00,1.78
4180.00,1.77
4179.00,1.77
4178.00,1.77
4177.00,1.77
4176.00,1.77
4175.00,1.77
4174.00,1.77
4173.00,1.77
4172.00,1.77
4171.00,1.77
4170.00,1.77
4169.00,1.77
4168.00,1.77
4167.00,1.77
4166.00,1.77
4165.00,1.77
4164.00,1.77
4163.00,1.78
4162.00,1.78
4161.00,1.78
4160.00,1.78
4159.00,1.78
4158.00,1.79
4157.00,1.79
4156.00,1.79
4155.00,1.79
4154.00,1.80
4153.00,1.80
4152.00,1.80
4151.00,1.80
4150.00,1.80
4149.00,1.81
4148.00,1.81
4147.00,1.81
4146.00,1.81
4145.00,1.81
4144.00,1.81
4143.00,1.81
4142.00,1.81
4141.00,1.81
4140.00,1.80
4139.00,1.80
4138.00,1.80
4137.00,1.80
4136.00,1.80
4135.00,1.80
4134.00,1.79
4133.00,1.79
4132.00,1.79
4131.00,1.79
4130.00,1.78
4129.00,1.78
4128.00,1.78
4127.00,1.78
4126.00,1.77
4125.00,1.77
4124.00,1.77
4123.00,1.76
4122.00,1.76
4121.00,1.76
4120.00,1.76
4119.00,1.76
4118.00,1.76
4117.00,1.76
4116.00,1.76
4115.00,1.75
4114.00,1.75
4113.00,1.75
4112.00,1.75
4111.00,1.75
4110.00,1.75
4109.00,1.75
4108.00,1.75
4107.00,1.75
4106.00,1.75
4105.00,1.75
4104.00,1.75
4103.00,1.74
4102.00,1.74
4101.00,1.74
4100.00,1.74
4099.00,1.74
4098.00,1.74
4097.00,1.74
4096.00,1.74
4095.00,1.74
4094.00,1.73
4093.00,1.73
4092.00,1.73
4091.00,1.73
4090.00,1.72
4089.00,1.72
4088.00,1.72
4087.00,1.71
4086.00,1.71
4085.00,1.71
4084.00,1.70
4083.00,1.70
4082.00,1.69
4081.00,1.69
4080.00,1.68
4079.00,1.68
4078.00,1.68
4077.00,1.67
4076.00,1.67
4075.00,1.66
4074.00,1.66
4073.00,1.65
4072.00,1.65
4071.00,1.64
4070.00,1.64
4069.00,1.63
4068.00,1.62
4067.00,1.62
4066.00,1.61
4065.00,1.60
4064.00,1.60
4063.00,1.59
4062.00,1.59
4061.00,1.58
4060.00,1.58
4059.00,1.57
4058.00,1.57
4057.00,1.57
4056.00,1.56
4055.00,1.56
4054.00,1.56
4053.00,1.56
4052.00,1.57
4051.00,1.57
4050.00,1.57
4049.00,1.57
4048.00,1.57
4047.00,1.57
4046.00,1.57
4045.00,1.57
4044.00,1.57
4043.00,1.57
4042.00,1.58
4041.00,1.58
4040.00,1.58
4039.00,1.58
4038.00,1.59
4037.00,1.59
4036.00,1.60
4035.00,1.60
4034.00,1.61
4033.00,1.62
4032.00,1.62
4031.00,1.63
4030.00,1.63
4029.00,1.64
4028.00,1.64
4027.00,1.65
4026.00,1.65
4025.00,1.65
4024.00,1.66
4023.00,1.67
4022.00,1.67
4021.00,1.68
4020.00,1.69
4019.00,1.70
4018.00,1.72
4017.00,1.73
4016.00,1.74
4015.00,1.76
4014.00,1.77
4013.00,1.79
4012.00,1.80
4011.00,1.82
4010.00,1.84
4009.00,1.85
4008.00,1.87
4007.00,1.88
4006.00,1.90
4005.00,1.91
4004.00,1.93
4003.00,1.95
4002.00,1.97
4001.00,1.99
4000.00,2.02
