创建为新数据集,样品 052 用户 Administrator 日期 星期五, 七月 26 2019
cm-1,%T
10000.00,1.95
9999.00,1.94
9998.00,1.93
9997.00,1.92
9996.00,1.91
9995.00,1.90
9994.00,1.88
9993.00,1.87
9992.00,1.86
9991.00,1.84
9990.00,1.83
9989.00,1.81
9988.00,1.80
9987.00,1.79
9986.00,1.78
9985.00,1.77
9984.00,1.76
9983.00,1.75
9982.00,1.74
9981.00,1.73
9980.00,1.72
9979.00,1.71
9978.00,1.71
9977.00,1.70
9976.00,1.69
9975.00,1.68
9974.00,1.68
9973.00,1.67
9972.00,1.67
9971.00,1.66
9970.00,1.66
9969.00,1.66
9968.00,1.65
9967.00,1.65
9966.00,1.65
9965.00,1.65
9964.00,1.65
9963.00,1.65
9962.00,1.66
9961.00,1.66
9960.00,1.66
9959.00,1.66
9958.00,1.66
9957.00,1.66
9956.00,1.66
9955.00,1.66
9954.00,1.66
9953.00,1.66
9952.00,1.66
9951.00,1.66
9950.00,1.66
9949.00,1.66
9948.00,1.66
9947.00,1.65
9946.00,1.65
9945.00,1.65
9944.00,1.65
9943.00,1.65
9942.00,1.65
9941.00,1.66
9940.00,1.66
9939.00,1.66
9938.00,1.66
9937.00,1.66
9936.00,1.66
9935.00,1.66
9934.00,1.66
9933.00,1.67
9932.00,1.67
9931.00,1.67
9930.00,1.67
9929.00,1.67
9928.00,1.67
9927.00,1.68
9926.00,1.68
9925.00,1.68
9924.00,1.69
9923.00,1.69
9922.00,1.70
9921.00,1.70
9920.00,1.70
9919.00,1.71
9918.00,1.71
9917.00,1.72
9916.00,1.72
9915.00,1.72
9914.00,1.72
9913.00,1.73
9912.00,1.73
9911.00,1.73
9910.00,1.73
9909.00,1.73
9908.00,1.74
9907.00,1.74
9906.00,1.74
9905.00,1.74
9904.00,1.74
9903.00,1.74
9902.00,1.75
9901.00,1.75
9900.00,1.75
9899.00,1.75
9898.00,1.75
9897.00,1.75
9896.00,1.74
9895.00,1.74
9894.00,1.74
9893.00,1.74
9892.00,1.73
9891.00,1.73
9890.00,1.72
9889.00,1.72
9888.00,1.72
9887.00,1.71
9886.00,1.70
9885.00,1.70
9884.00,1.69
9883.00,1.68
9882.00,1.68
9881.00,1.67
9880.00,1.66
9879.00,1.66
9878.00,1.65
9877.00,1.65
9876.00,1.64
9875.00,1.64
9874.00,1.63
9873.00,1.63
9872.00,1.63
9871.00,1.63
9870.00,1.62
9869.00,1.62
9868.00,1.62
9867.00,1.62
9866.00,1.62
9865.00,1.62
9864.00,1.62
9863.00,1.62
9862.00,1.62
9861.00,1.63
9860.00,1.63
9859.00,1.63
9858.00,1.64
9857.00,1.64
9856.00,1.65
9855.00,1.65
9854.00,1.65
9853.00,1.66
9852.00,1.66
9851.00,1.66
9850.00,1.67
9849.00,1.67
9848.00,1.67
9847.00,1.67
9846.00,1.67
9845.00,1.66
9844.00,1.66
9843.00,1.66
9842.00,1.66
9841.00,1.66
9840.00,1.65
9839.00,1.65
9838.00,1.65
9837.00,1.64
9836.00,1.64
9835.00,1.64
9834.00,1.63
9833.00,1.63
9832.00,1.62
9831.00,1.62
9830.00,1.62
9829.00,1.61
9828.00,1.61
9827.00,1.60
9826.00,1.60
9825.00,1.60
9824.00,1.60
9823.00,1.59
9822.00,1.59
9821.00,1.59
9820.00,1.59
9819.00,1.60
9818.00,1.60
9817.00,1.60
9816.00,1.61
9815.00,1.61
9814.00,1.61
9813.00,1.62
9812.00,1.63
9811.00,1.63
9810.00,1.64
9809.00,1.64
9808.00,1.65
9807.00,1.66
9806.00,1.66
9805.00,1.67
9804.00,1.67
9803.00,1.68
9802.00,1.69
9801.00,1.69
9800.00,1.70
9799.00,1.71
9798.00,1.71
9797.00,1.72
9796.00,1.72
9795.00,1.73
9794.00,1.73
9793.00,1.73
9792.00,1.74
9791.00,1.74
9790.00,1.74
9789.00,1.74
9788.00,1.74
9787.00,1.74
9786.00,1.74
9785.00,1.74
9784.00,1.74
9783.00,1.74
9782.00,1.74
9781.00,1.74
9780.00,1.75
9779.00,1.75
9778.00,1.75
9777.00,1.75
9776.00,1.75
9775.00,1.75
9774.00,1.75
9773.00,1.75
9772.00,1.76
9771.00,1.76
9770.00,1.76
9769.00,1.76
9768.00,1.76
9767.00,1.76
9766.00,1.77
9765.00,1.77
9764.00,1.77
9763.00,1.77
9762.00,1.77
9761.00,1.76
9760.00,1.76
9759.00,1.76
9758.00,1.75
9757.00,1.75
9756.00,1.74
9755.00,1.74
9754.00,1.74
9753.00,1.73
9752.00,1.73
9751.00,1.72
9750.00,1.72
9749.00,1.72
9748.00,1.72
9747.00,1.71
9746.00,1.71
9745.00,1.71
9744.00,1.71
9743.00,1.71
9742.00,1.71
9741.00,1.71
9740.00,1.71
9739.00,1.71
9738.00,1.71
9737.00,1.71
9736.00,1.72
9735.00,1.72
9734.00,1.73
9733.00,1.74
9732.00,1.74
9731.00,1.75
9730.00,1.76
9729.00,1.76
9728.00,1.77
9727.00,1.78
9726.00,1.78
9725.00,1.79
9724.00,1.79
9723.00,1.80
9722.00,1.80
9721.00,1.81
9720.00,1.81
9719.00,1.81
9718.00,1.82
9717.00,1.82
9716.00,1.82
9715.00,1.82
9714.00,1.82
9713.00,1.83
9712.00,1.83
9711.00,1.83
9710.00,1.83
9709.00,1.82
9708.00,1.82
9707.00,1.82
9706.00,1.82
9705.00,1.81
9704.00,1.81
9703.00,1.81
9702.00,1.80
9701.00,1.80
9700.00,1.79
9699.00,1.79
9698.00,1.78
9697.00,1.78
9696.00,1.77
9695.00,1.77
9694.00,1.76
9693.00,1.76
9692.00,1.76
9691.00,1.75
9690.00,1.75
9689.00,1.74
9688.00,1.74
9687.00,1.74
9686.00,1.73
9685.00,1.73
9684.00,1.73
9683.00,1.73
9682.00,1.72
9681.00,1.72
9680.00,1.72
9679.00,1.73
9678.00,1.73
9677.00,1.73
9676.00,1.74
9675.00,1.74
9674.00,1.74
9673.00,1.75
9672.00,1.76
9671.00,1.76
9670.00,1.77
9669.00,1.77
9668.00,1.77
9667.00,1.78
9666.00,1.78
9665.00,1.78
9664.00,1.79
9663.00,1.79
9662.00,1.79
9661.00,1.79
9660.00,1.79
9659.00,1.79
9658.00,1.80
9657.00,1.80
9656.00,1.80
9655.00,1.80
9654.00,1.80
9653.00,1.79
9652.00,1.79
9651.00,1.79
9650.00,1.78
9649.00,1.78
9648.00,1.77
9647.00,1.77
9646.00,1.76
9645.00,1.76
9644.00,1.75
9643.00,1.75
9642.00,1.74
9641.00,1.74
9640.00,1.73
9639.00,1.73
9638.00,1.73
9637.00,1.72
9636.00,1.72
9635.00,1.72
9634.00,1.72
9633.00,1.72
9632.00,1.72
9631.00,1.72
9630.00,1.73
9629.00,1.73
9628.00,1.73
9627.00,1.74
9626.00,1.74
9625.00,1.74
9624.00,1.75
9623.00,1.75
9622.00,1.76
9621.00,1.76
9620.00,1.77
9619.00,1.77
9618.00,1.78
9617.00,1.78
9616.00,1.79
9615.00,1.79
9614.00,1.80
9613.00,1.80
9612.00,1.81
9611.00,1.81
9610.00,1.82
9609.00,1.82
9608.00,1.82
9607.00,1.83
9606.00,1.83
9605.00,1.83
9604.00,1.83
9603.00,1.83
9602.00,1.83
9601.00,1.83
9600.00,1.82
9599.00,1.82
9598.00,1.82
9597.00,1.82
9596.00,1.82
9595.00,1.82
9594.00,1.82
9593.00,1.82
9592.00,1.82
9591.00,1.82
9590.00,1.83
9589.00,1.83
9588.00,1.83
9587.00,1.83
9586.00,1.83
9585.00,1.83
9584.00,1.83
9583.00,1.84
9582.00,1.84
9581.00,1.84
9580.00,1.84
9579.00,1.84
9578.00,1.85
9577.00,1.85
9576.00,1.85
9575.00,1.85
9574.00,1.86
9573.00,1.86
9572.00,1.86
9571.00,1.86
9570.00,1.86
9569.00,1.86
9568.00,1.86
9567.00,1.86
9566.00,1.85
9565.00,1.85
9564.00,1.85
9563.00,1.85
9562.00,1.84
9561.00,1.84
9560.00,1.84
9559.00,1.84
9558.00,1.83
9557.00,1.83
9556.00,1.83
9555.00,1.82
9554.00,1.82
9553.00,1.82
9552.00,1.81
9551.00,1.80
9550.00,1.80
9549.00,1.79
9548.00,1.79
9547.00,1.78
9546.00,1.77
9545.00,1.77
9544.00,1.76
9543.00,1.75
9542.00,1.74
9541.00,1.74
9540.00,1.73
9539.00,1.72
9538.00,1.72
9537.00,1.71
9536.00,1.70
9535.00,1.70
9534.00,1.69
9533.00,1.68
9532.00,1.68
9531.00,1.67
9530.00,1.67
9529.00,1.66
9528.00,1.66
9527.00,1.66
9526.00,1.65
9525.00,1.65
9524.00,1.65
9523.00,1.65
9522.00,1.65
9521.00,1.65
9520.00,1.65
9519.00,1.65
9518.00,1.65
9517.00,1.66
9516.00,1.66
9515.00,1.67
9514.00,1.67
9513.00,1.67
9512.00,1.68
9511.00,1.68
9510.00,1.69
9509.00,1.69
9508.00,1.69
9507.00,1.70
9506.00,1.70
9505.00,1.70
9504.00,1.71
9503.00,1.71
9502.00,1.71
9501.00,1.72
9500.00,1.72
9499.00,1.73
9498.00,1.73
9497.00,1.73
9496.00,1.74
9495.00,1.74
9494.00,1.74
9493.00,1.74
9492.00,1.74
9491.00,1.75
9490.00,1.75
9489.00,1.75
9488.00,1.75
9487.00,1.75
9486.00,1.75
9485.00,1.75
9484.00,1.75
9483.00,1.76
9482.00,1.76
9481.00,1.76
9480.00,1.76
9479.00,1.76
9478.00,1.76
9477.00,1.76
9476.00,1.76
9475.00,1.76
9474.00,1.76
9473.00,1.76
9472.00,1.75
9471.00,1.75
9470.00,1.75
9469.00,1.75
9468.00,1.75
9467.00,1.74
9466.00,1.74
9465.00,1.74
9464.00,1.74
9463.00,1.74
9462.00,1.74
9461.00,1.73
9460.00,1.73
9459.00,1.73
9458.00,1.73
9457.00,1.73
9456.00,1.73
9455.00,1.73
9454.00,1.73
9453.00,1.73
9452.00,1.73
9451.00,1.73
9450.00,1.73
9449.00,1.73
9448.00,1.74
9447.00,1.74
9446.00,1.74
9445.00,1.74
9444.00,1.74
9443.00,1.74
9442.00,1.74
9441.00,1.74
9440.00,1.74
9439.00,1.74
9438.00,1.74
9437.00,1.74
9436.00,1.74
9435.00,1.74
9434.00,1.74
9433.00,1.73
9432.00,1.73
9431.00,1.73
9430.00,1.72
9429.00,1.72
9428.00,1.71
9427.00,1.70
9426.00,1.70
9425.00,1.69
9424.00,1.69
9423.00,1.68
9422.00,1.68
9421.00,1.67
9420.00,1.67
9419.00,1.67
9418.00,1.66
9417.00,1.66
9416.00,1.66
9415.00,1.65
9414.00,1.65
9413.00,1.65
9412.00,1.65
9411.00,1.65
9410.00,1.65
9409.00,1.65
9408.00,1.65
9407.00,1.65
9406.00,1.66
9405.00,1.66
9404.00,1.66
9403.00,1.67
9402.00,1.68
9401.00,1.68
9400.00,1.69
9399.00,1.69
9398.00,1.70
9397.00,1.71
9396.00,1.71
9395.00,1.72
9394.00,1.72
9393.00,1.73
9392.00,1.73
9391.00,1.74
9390.00,1.74
9389.00,1.75
9388.00,1.76
9387.00,1.76
9386.00,1.76
9385.00,1.77
9384.00,1.77
9383.00,1.77
9382.00,1.77
9381.00,1.77
9380.00,1.77
9379.00,1.77
9378.00,1.77
9377.00,1.77
9376.00,1.77
9375.00,1.76
9374.00,1.76
9373.00,1.76
9372.00,1.75
9371.00,1.75
9370.00,1.74
9369.00,1.74
9368.00,1.73
9367.00,1.73
9366.00,1.73
9365.00,1.72
9364.00,1.72
9363.00,1.71
9362.00,1.71
9361.00,1.71
9360.00,1.71
9359.00,1.71
9358.00,1.71
9357.00,1.71
9356.00,1.72
9355.00,1.72
9354.00,1.73
9353.00,1.73
9352.00,1.74
9351.00,1.75
9350.00,1.76
9349.00,1.77
9348.00,1.78
9347.00,1.79
9346.00,1.80
9345.00,1.81
9344.00,1.82
9343.00,1.83
9342.00,1.85
9341.00,1.86
9340.00,1.87
9339.00,1.88
9338.00,1.89
9337.00,1.90
9336.00,1.91
9335.00,1.92
9334.00,1.92
9333.00,1.93
9332.00,1.94
9331.00,1.94
9330.00,1.94
9329.00,1.94
9328.00,1.94
9327.00,1.94
9326.00,1.94
9325.00,1.94
9324.00,1.93
9323.00,1.93
9322.00,1.92
9321.00,1.92
9320.00,1.91
9319.00,1.90
9318.00,1.89
9317.00,1.88
9316.00,1.87
9315.00,1.86
9314.00,1.86
9313.00,1.85
9312.00,1.84
9311.00,1.83
9310.00,1.82
9309.00,1.82
9308.00,1.81
9307.00,1.80
9306.00,1.79
9305.00,1.79
9304.00,1.78
9303.00,1.77
9302.00,1.77
9301.00,1.76
9300.00,1.75
9299.00,1.75
9298.00,1.74
9297.00,1.74
9296.00,1.74
9295.00,1.74
9294.00,1.73
9293.00,1.73
9292.00,1.73
9291.00,1.73
9290.00,1.73
9289.00,1.74
9288.00,1.74
9287.00,1.74
9286.00,1.74
9285.00,1.74
9284.00,1.74
9283.00,1.75
9282.00,1.75
9281.00,1.75
9280.00,1.76
9279.00,1.76
9278.00,1.77
9277.00,1.78
9276.00,1.78
9275.00,1.79
9274.00,1.80
9273.00,1.81
9272.00,1.82
9271.00,1.82
9270.00,1.83
9269.00,1.84
9268.00,1.85
9267.00,1.86
9266.00,1.87
9265.00,1.87
9264.00,1.88
9263.00,1.89
9262.00,1.89
9261.00,1.90
9260.00,1.90
9259.00,1.90
9258.00,1.90
9257.00,1.90
9256.00,1.90
9255.00,1.90
9254.00,1.90
9253.00,1.90
9252.00,1.90
9251.00,1.89
9250.00,1.89
9249.00,1.89
9248.00,1.89
9247.00,1.88
9246.00,1.88
9245.00,1.87
9244.00,1.87
9243.00,1.87
9242.00,1.86
9241.00,1.85
9240.00,1.85
9239.00,1.84
9238.00,1.84
9237.00,1.83
9236.00,1.83
9235.00,1.82
9234.00,1.82
9233.00,1.81
9232.00,1.81
9231.00,1.81
9230.00,1.81
9229.00,1.80
9228.00,1.80
9227.00,1.80
9226.00,1.80
9225.00,1.79
9224.00,1.79
9223.00,1.78
9222.00,1.78
9221.00,1.78
9220.00,1.77
9219.00,1.77
9218.00,1.76
9217.00,1.76
9216.00,1.76
9215.00,1.75
9214.00,1.75
9213.00,1.75
9212.00,1.74
9211.00,1.74
9210.00,1.74
9209.00,1.74
9208.00,1.74
9207.00,1.73
9206.00,1.73
9205.00,1.73
9204.00,1.73
9203.00,1.73
9202.00,1.73
9201.00,1.73
9200.00,1.73
9199.00,1.73
9198.00,1.73
9197.00,1.73
9196.00,1.73
9195.00,1.73
9194.00,1.73
9193.00,1.73
9192.00,1.73
9191.00,1.74
9190.00,1.74
9189.00,1.74
9188.00,1.74
9187.00,1.74
9186.00,1.74
9185.00,1.74
9184.00,1.74
9183.00,1.74
9182.00,1.74
9181.00,1.74
9180.00,1.74
9179.00,1.74
9178.00,1.74
9177.00,1.74
9176.00,1.74
9175.00,1.74
9174.00,1.74
9173.00,1.75
9172.00,1.75
9171.00,1.75
9170.00,1.75
9169.00,1.75
9168.00,1.75
9167.00,1.75
9166.00,1.75
9165.00,1.76
9164.00,1.76
9163.00,1.76
9162.00,1.76
9161.00,1.76
9160.00,1.76
9159.00,1.76
9158.00,1.76
9157.00,1.77
9156.00,1.77
9155.00,1.77
9154.00,1.77
9153.00,1.77
9152.00,1.77
9151.00,1.77
9150.00,1.76
9149.00,1.76
9148.00,1.76
9147.00,1.76
9146.00,1.76
9145.00,1.75
9144.00,1.75
9143.00,1.75
9142.00,1.74
9141.00,1.74
9140.00,1.74
9139.00,1.73
9138.00,1.73
9137.00,1.72
9136.00,1.72
9135.00,1.72
9134.00,1.71
9133.00,1.71
9132.00,1.70
9131.00,1.70
9130.00,1.70
9129.00,1.69
9128.00,1.69
9127.00,1.68
9126.00,1.68
9125.00,1.68
9124.00,1.67
9123.00,1.67
9122.00,1.67
9121.00,1.67
9120.00,1.66
9119.00,1.66
9118.00,1.66
9117.00,1.65
9116.00,1.65
9115.00,1.65
9114.00,1.65
9113.00,1.65
9112.00,1.64
9111.00,1.64
9110.00,1.64
9109.00,1.64
9108.00,1.64
9107.00,1.64
9106.00,1.64
9105.00,1.64
9104.00,1.64
9103.00,1.65
9102.00,1.65
9101.00,1.65
9100.00,1.66
9099.00,1.66
9098.00,1.66
9097.00,1.67
9096.00,1.67
9095.00,1.68
9094.00,1.69
9093.00,1.69
9092.00,1.70
9091.00,1.71
9090.00,1.71
9089.00,1.72
9088.00,1.73
9087.00,1.74
9086.00,1.74
9085.00,1.75
9084.00,1.76
9083.00,1.76
9082.00,1.77
9081.00,1.77
9080.00,1.77
9079.00,1.78
9078.00,1.78
9077.00,1.78
9076.00,1.78
9075.00,1.78
9074.00,1.78
9073.00,1.78
9072.00,1.78
9071.00,1.77
9070.00,1.77
9069.00,1.76
9068.00,1.76
9067.00,1.75
9066.00,1.75
9065.00,1.74
9064.00,1.74
9063.00,1.73
9062.00,1.72
9061.00,1.72
9060.00,1.71
9059.00,1.70
9058.00,1.70
9057.00,1.69
9056.00,1.69
9055.00,1.68
9054.00,1.68
9053.00,1.67
9052.00,1.67
9051.00,1.67
9050.00,1.67
9049.00,1.67
9048.00,1.67
9047.00,1.67
9046.00,1.67
9045.00,1.67
9044.00,1.67
9043.00,1.68
9042.00,1.68
9041.00,1.68
9040.00,1.69
9039.00,1.69
9038.00,1.69
9037.00,1.69
9036.00,1.69
9035.00,1.70
9034.00,1.70
9033.00,1.70
9032.00,1.70
9031.00,1.71
9030.00,1.71
9029.00,1.71
9028.00,1.71
9027.00,1.72
9026.00,1.72
9025.00,1.72
9024.00,1.72
9023.00,1.72
9022.00,1.72
9021.00,1.72
9020.00,1.72
9019.00,1.72
9018.00,1.72
9017.00,1.73
9016.00,1.73
9015.00,1.73
9014.00,1.73
9013.00,1.73
9012.00,1.73
9011.00,1.74
9010.00,1.74
9009.00,1.74
9008.00,1.75
9007.00,1.75
9006.00,1.76
9005.00,1.76
9004.00,1.76
9003.00,1.77
9002.00,1.77
9001.00,1.77
9000.00,1.77
8999.00,1.77
8998.00,1.78
8997.00,1.78
8996.00,1.78
8995.00,1.78
8994.00,1.78
8993.00,1.78
8992.00,1.78
8991.00,1.78
8990.00,1.78
8989.00,1.78
8988.00,1.78
8987.00,1.78
8986.00,1.77
8985.00,1.77
8984.00,1.77
8983.00,1.77
8982.00,1.76
8981.00,1.76
8980.00,1.76
8979.00,1.75
8978.00,1.75
8977.00,1.75
8976.00,1.75
8975.00,1.74
8974.00,1.74
8973.00,1.74
8972.00,1.74
8971.00,1.74
8970.00,1.74
8969.00,1.73
8968.00,1.73
8967.00,1.73
8966.00,1.73
8965.00,1.73
8964.00,1.73
8963.00,1.73
8962.00,1.73
8961.00,1.73
8960.00,1.73
8959.00,1.73
8958.00,1.73
8957.00,1.73
8956.00,1.73
8955.00,1.73
8954.00,1.72
8953.00,1.72
8952.00,1.72
8951.00,1.72
8950.00,1.72
8949.00,1.71
8948.00,1.71
8947.00,1.71
8946.00,1.71
8945.00,1.70
8944.00,1.70
8943.00,1.70
8942.00,1.70
8941.00,1.69
8940.00,1.69
8939.00,1.69
8938.00,1.69
8937.00,1.69
8936.00,1.68
8935.00,1.68
8934.00,1.68
8933.00,1.68
8932.00,1.68
8931.00,1.68
8930.00,1.68
8929.00,1.68
8928.00,1.68
8927.00,1.68
8926.00,1.68
8925.00,1.68
8924.00,1.68
8923.00,1.68
8922.00,1.69
8921.00,1.69
8920.00,1.69
8919.00,1.69
8918.00,1.70
8917.00,1.70
8916.00,1.70
8915.00,1.70
8914.00,1.70
8913.00,1.70
8912.00,1.70
8911.00,1.71
8910.00,1.70
8909.00,1.70
8908.00,1.70
8907.00,1.70
8906.00,1.70
8905.00,1.70
8904.00,1.70
8903.00,1.70
8902.00,1.70
8901.00,1.70
8900.00,1.70
8899.00,1.70
8898.00,1.70
8897.00,1.70
8896.00,1.70
8895.00,1.70
8894.00,1.70
8893.00,1.70
8892.00,1.70
8891.00,1.70
8890.00,1.70
8889.00,1.70
8888.00,1.70
8887.00,1.70
8886.00,1.70
8885.00,1.70
8884.00,1.70
8883.00,1.71
8882.00,1.71
8881.00,1.71
8880.00,1.71
8879.00,1.72
8878.00,1.72
8877.00,1.72
8876.00,1.73
8875.00,1.73
8874.00,1.73
8873.00,1.73
8872.00,1.74
8871.00,1.74
8870.00,1.74
8869.00,1.75
8868.00,1.75
8867.00,1.75
8866.00,1.76
8865.00,1.76
8864.00,1.76
8863.00,1.77
8862.00,1.77
8861.00,1.78
8860.00,1.78
8859.00,1.78
8858.00,1.78
8857.00,1.79
8856.00,1.79
8855.00,1.79
8854.00,1.79
8853.00,1.79
8852.00,1.79
8851.00,1.79
8850.00,1.79
8849.00,1.79
8848.00,1.79
8847.00,1.79
8846.00,1.79
8845.00,1.78
8844.00,1.78
8843.00,1.78
8842.00,1.78
8841.00,1.78
8840.00,1.78
8839.00,1.77
8838.00,1.77
8837.00,1.77
8836.00,1.77
8835.00,1.76
8834.00,1.76
8833.00,1.76
8832.00,1.76
8831.00,1.76
8830.00,1.76
8829.00,1.76
8828.00,1.76
8827.00,1.76
8826.00,1.76
8825.00,1.76
8824.00,1.77
8823.00,1.77
8822.00,1.77
8821.00,1.77
8820.00,1.77
8819.00,1.77
8818.00,1.77
8817.00,1.77
8816.00,1.77
8815.00,1.77
8814.00,1.77
8813.00,1.77
8812.00,1.77
8811.00,1.77
8810.00,1.77
8809.00,1.77
8808.00,1.77
8807.00,1.76
8806.00,1.76
8805.00,1.76
8804.00,1.75
8803.00,1.75
8802.00,1.74
8801.00,1.74
8800.00,1.73
8799.00,1.73
8798.00,1.72
8797.00,1.72
8796.00,1.71
8795.00,1.71
8794.00,1.70
8793.00,1.70
8792.00,1.70
8791.00,1.69
8790.00,1.69
8789.00,1.69
8788.00,1.69
8787.00,1.69
8786.00,1.69
8785.00,1.70
8784.00,1.70
8783.00,1.70
8782.00,1.70
8781.00,1.71
8780.00,1.71
8779.00,1.72
8778.00,1.72
8777.00,1.73
8776.00,1.74
8775.00,1.74
8774.00,1.75
8773.00,1.76
8772.00,1.76
8771.00,1.77
8770.00,1.78
8769.00,1.78
8768.00,1.79
8767.00,1.79
8766.00,1.80
8765.00,1.80
8764.00,1.80
8763.00,1.80
8762.00,1.80
8761.00,1.80
8760.00,1.80
8759.00,1.80
8758.00,1.80
8757.00,1.80
8756.00,1.80
8755.00,1.80
8754.00,1.80
8753.00,1.80
8752.00,1.80
8751.00,1.79
8750.00,1.79
8749.00,1.79
8748.00,1.78
8747.00,1.78
8746.00,1.77
8745.00,1.76
8744.00,1.76
8743.00,1.75
8742.00,1.75
8741.00,1.74
8740.00,1.74
8739.00,1.74
8738.00,1.73
8737.00,1.73
8736.00,1.73
8735.00,1.73
8734.00,1.73
8733.00,1.72
8732.00,1.72
8731.00,1.72
8730.00,1.72
8729.00,1.72
8728.00,1.71
8727.00,1.71
8726.00,1.71
8725.00,1.71
8724.00,1.71
8723.00,1.71
8722.00,1.71
8721.00,1.71
8720.00,1.71
8719.00,1.71
8718.00,1.71
8717.00,1.72
8716.00,1.72
8715.00,1.72
8714.00,1.72
8713.00,1.72
8712.00,1.72
8711.00,1.72
8710.00,1.72
8709.00,1.72
8708.00,1.73
8707.00,1.73
8706.00,1.73
8705.00,1.73
8704.00,1.73
8703.00,1.73
8702.00,1.73
8701.00,1.73
8700.00,1.73
8699.00,1.73
8698.00,1.73
8697.00,1.73
8696.00,1.73
8695.00,1.73
8694.00,1.72
8693.00,1.72
8692.00,1.72
8691.00,1.72
8690.00,1.72
8689.00,1.72
8688.00,1.71
8687.00,1.71
8686.00,1.71
8685.00,1.71
8684.00,1.71
8683.00,1.71
8682.00,1.70
8681.00,1.70
8680.00,1.70
8679.00,1.69
8678.00,1.69
8677.00,1.69
8676.00,1.68
8675.00,1.68
8674.00,1.68
8673.00,1.68
8672.00,1.68
8671.00,1.68
8670.00,1.68
8669.00,1.68
8668.00,1.68
8667.00,1.68
8666.00,1.68
8665.00,1.68
8664.00,1.68
8663.00,1.68
8662.00,1.68
8661.00,1.68
8660.00,1.68
8659.00,1.68
8658.00,1.68
8657.00,1.69
8656.00,1.69
8655.00,1.69
8654.00,1.70
8653.00,1.70
8652.00,1.71
8651.00,1.72
8650.00,1.72
8649.00,1.73
8648.00,1.73
8647.00,1.74
8646.00,1.75
8645.00,1.75
8644.00,1.76
8643.00,1.76
8642.00,1.76
8641.00,1.77
8640.00,1.77
8639.00,1.78
8638.00,1.78
8637.00,1.78
8636.00,1.79
8635.00,1.79
8634.00,1.79
8633.00,1.79
8632.00,1.79
8631.00,1.79
8630.00,1.78
8629.00,1.78
8628.00,1.78
8627.00,1.77
8626.00,1.77
8625.00,1.76
8624.00,1.76
8623.00,1.75
8622.00,1.75
8621.00,1.74
8620.00,1.74
8619.00,1.73
8618.00,1.73
8617.00,1.72
8616.00,1.72
8615.00,1.71
8614.00,1.71
8613.00,1.70
8612.00,1.70
8611.00,1.69
8610.00,1.69
8609.00,1.69
8608.00,1.68
8607.00,1.68
8606.00,1.68
8605.00,1.68
8604.00,1.68
8603.00,1.68
8602.00,1.68
8601.00,1.68
8600.00,1.68
8599.00,1.68
8598.00,1.68
8597.00,1.67
8596.00,1.67
8595.00,1.67
8594.00,1.67
8593.00,1.67
8592.00,1.67
8591.00,1.67
8590.00,1.67
8589.00,1.67
8588.00,1.67
8587.00,1.68
8586.00,1.68
8585.00,1.68
8584.00,1.68
8583.00,1.68
8582.00,1.68
8581.00,1.68
8580.00,1.68
8579.00,1.68
8578.00,1.68
8577.00,1.68
8576.00,1.68
8575.00,1.68
8574.00,1.68
8573.00,1.68
8572.00,1.68
8571.00,1.68
8570.00,1.68
8569.00,1.68
8568.00,1.68
8567.00,1.68
8566.00,1.68
8565.00,1.68
8564.00,1.68
8563.00,1.68
8562.00,1.68
8561.00,1.68
8560.00,1.68
8559.00,1.68
8558.00,1.68
8557.00,1.68
8556.00,1.68
8555.00,1.68
8554.00,1.69
8553.00,1.69
8552.00,1.69
8551.00,1.69
8550.00,1.70
8549.00,1.70
8548.00,1.70
8547.00,1.71
8546.00,1.71
8545.00,1.71
8544.00,1.72
8543.00,1.72
8542.00,1.72
8541.00,1.73
8540.00,1.73
8539.00,1.73
8538.00,1.74
8537.00,1.74
8536.00,1.74
8535.00,1.75
8534.00,1.75
8533.00,1.75
8532.00,1.75
8531.00,1.76
8530.00,1.76
8529.00,1.76
8528.00,1.76
8527.00,1.76
8526.00,1.76
8525.00,1.76
8524.00,1.76
8523.00,1.76
8522.00,1.76
8521.00,1.76
8520.00,1.76
8519.00,1.75
8518.00,1.75
8517.00,1.75
8516.00,1.74
8515.00,1.74
8514.00,1.74
8513.00,1.73
8512.00,1.73
8511.00,1.72
8510.00,1.72
8509.00,1.72
8508.00,1.71
8507.00,1.71
8506.00,1.70
8505.00,1.70
8504.00,1.69
8503.00,1.69
8502.00,1.68
8501.00,1.68
8500.00,1.67
8499.00,1.67
8498.00,1.67
8497.00,1.66
8496.00,1.66
8495.00,1.66
8494.00,1.65
8493.00,1.65
8492.00,1.65
8491.00,1.65
8490.00,1.65
8489.00,1.65
8488.00,1.64
8487.00,1.64
8486.00,1.64
8485.00,1.64
8484.00,1.64
8483.00,1.64
8482.00,1.64
8481.00,1.64
8480.00,1.65
8479.00,1.65
8478.00,1.65
8477.00,1.65
8476.00,1.65
8475.00,1.66
8474.00,1.66
8473.00,1.66
8472.00,1.67
8471.00,1.67
8470.00,1.67
8469.00,1.68
8468.00,1.68
8467.00,1.68
8466.00,1.69
8465.00,1.69
8464.00,1.69
8463.00,1.69
8462.00,1.70
8461.00,1.70
8460.00,1.70
8459.00,1.71
8458.00,1.71
8457.00,1.71
8456.00,1.71
8455.00,1.72
8454.00,1.72
8453.00,1.72
8452.00,1.72
8451.00,1.72
8450.00,1.72
8449.00,1.72
8448.00,1.72
8447.00,1.72
8446.00,1.72
8445.00,1.72
8444.00,1.72
8443.00,1.72
8442.00,1.72
8441.00,1.72
8440.00,1.72
8439.00,1.72
8438.00,1.72
8437.00,1.72
8436.00,1.71
8435.00,1.71
8434.00,1.71
8433.00,1.71
8432.00,1.71
8431.00,1.71
8430.00,1.71
8429.00,1.71
8428.00,1.71
8427.00,1.71
8426.00,1.71
8425.00,1.71
8424.00,1.71
8423.00,1.71
8422.00,1.72
8421.00,1.72
8420.00,1.72
8419.00,1.72
8418.00,1.73
8417.00,1.73
8416.00,1.73
8415.00,1.74
8414.00,1.74
8413.00,1.74
8412.00,1.74
8411.00,1.75
8410.00,1.75
8409.00,1.75
8408.00,1.75
8407.00,1.76
8406.00,1.76
8405.00,1.76
8404.00,1.77
8403.00,1.77
8402.00,1.77
8401.00,1.78
8400.00,1.78
8399.00,1.78
8398.00,1.78
8397.00,1.78
8396.00,1.78
8395.00,1.78
8394.00,1.78
8393.00,1.78
8392.00,1.78
8391.00,1.78
8390.00,1.78
8389.00,1.78
8388.00,1.78
8387.00,1.78
8386.00,1.78
8385.00,1.78
8384.00,1.78
8383.00,1.78
8382.00,1.78
8381.00,1.77
8380.00,1.77
8379.00,1.77
8378.00,1.77
8377.00,1.77
8376.00,1.77
8375.00,1.77
8374.00,1.77
8373.00,1.77
8372.00,1.77
8371.00,1.77
8370.00,1.77
8369.00,1.77
8368.00,1.77
8367.00,1.77
8366.00,1.77
8365.00,1.77
8364.00,1.77
8363.00,1.77
8362.00,1.77
8361.00,1.77
8360.00,1.77
8359.00,1.78
8358.00,1.78
8357.00,1.78
8356.00,1.78
8355.00,1.79
8354.00,1.79
8353.00,1.79
8352.00,1.79
8351.00,1.80
8350.00,1.80
8349.00,1.80
8348.00,1.80
8347.00,1.80
8346.00,1.80
8345.00,1.80
8344.00,1.80
8343.00,1.80
8342.00,1.80
8341.00,1.80
8340.00,1.80
8339.00,1.79
8338.00,1.79
8337.00,1.79
8336.00,1.79
8335.00,1.78
8334.00,1.78
8333.00,1.78
8332.00,1.78
8331.00,1.77
8330.00,1.77
8329.00,1.77
8328.00,1.76
8327.00,1.76
8326.00,1.76
8325.00,1.75
8324.00,1.75
8323.00,1.75
8322.00,1.75
8321.00,1.75
8320.00,1.74
8319.00,1.74
8318.00,1.74
8317.00,1.74
8316.00,1.74
8315.00,1.74
8314.00,1.74
8313.00,1.74
8312.00,1.74
8311.00,1.75
8310.00,1.75
8309.00,1.75
8308.00,1.75
8307.00,1.76
8306.00,1.76
8305.00,1.77
8304.00,1.77
8303.00,1.77
8302.00,1.78
8301.00,1.78
8300.00,1.79
8299.00,1.79
8298.00,1.79
8297.00,1.80
8296.00,1.80
8295.00,1.80
8294.00,1.81
8293.00,1.81
8292.00,1.81
8291.00,1.81
8290.00,1.82
8289.00,1.82
8288.00,1.82
8287.00,1.82
8286.00,1.82
8285.00,1.82
8284.00,1.82
8283.00,1.82
8282.00,1.81
8281.00,1.81
8280.00,1.81
8279.00,1.81
8278.00,1.80
8277.00,1.80
8276.00,1.80
8275.00,1.79
8274.00,1.79
8273.00,1.78
8272.00,1.77
8271.00,1.77
8270.00,1.76
8269.00,1.76
8268.00,1.75
8267.00,1.75
8266.00,1.75
8265.00,1.74
8264.00,1.74
8263.00,1.74
8262.00,1.74
8261.00,1.73
8260.00,1.73
8259.00,1.73
8258.00,1.73
8257.00,1.73
8256.00,1.73
8255.00,1.72
8254.00,1.72
8253.00,1.72
8252.00,1.72
8251.00,1.72
8250.00,1.72
8249.00,1.73
8248.00,1.73
8247.00,1.73
8246.00,1.73
8245.00,1.73
8244.00,1.74
8243.00,1.74
8242.00,1.74
8241.00,1.74
8240.00,1.74
8239.00,1.74
8238.00,1.74
8237.00,1.75
8236.00,1.75
8235.00,1.75
8234.00,1.75
8233.00,1.75
8232.00,1.75
8231.00,1.75
8230.00,1.75
8229.00,1.75
8228.00,1.75
8227.00,1.75
8226.00,1.75
8225.00,1.75
8224.00,1.75
8223.00,1.75
8222.00,1.75
8221.00,1.75
8220.00,1.76
8219.00,1.76
8218.00,1.76
8217.00,1.76
8216.00,1.76
8215.00,1.76
8214.00,1.77
8213.00,1.77
8212.00,1.77
8211.00,1.78
8210.00,1.78
8209.00,1.78
8208.00,1.78
8207.00,1.79
8206.00,1.79
8205.00,1.79
8204.00,1.80
8203.00,1.80
8202.00,1.80
8201.00,1.81
8200.00,1.81
8199.00,1.81
8198.00,1.81
8197.00,1.81
8196.00,1.82
8195.00,1.82
8194.00,1.82
8193.00,1.82
8192.00,1.82
8191.00,1.82
8190.00,1.82
8189.00,1.82
8188.00,1.82
8187.00,1.81
8186.00,1.81
8185.00,1.81
8184.00,1.81
8183.00,1.81
8182.00,1.81
8181.00,1.81
8180.00,1.81
8179.00,1.81
8178.00,1.81
8177.00,1.81
8176.00,1.81
8175.00,1.81
8174.00,1.81
8173.00,1.81
8172.00,1.81
8171.00,1.81
8170.00,1.81
8169.00,1.81
8168.00,1.81
8167.00,1.81
8166.00,1.82
8165.00,1.82
8164.00,1.82
8163.00,1.82
8162.00,1.82
8161.00,1.83
8160.00,1.83
8159.00,1.83
8158.00,1.83
8157.00,1.83
8156.00,1.84
8155.00,1.84
8154.00,1.84
8153.00,1.84
8152.00,1.84
8151.00,1.84
8150.00,1.84
8149.00,1.84
8148.00,1.84
8147.00,1.83
8146.00,1.83
8145.00,1.83
8144.00,1.83
8143.00,1.83
8142.00,1.83
8141.00,1.83
8140.00,1.82
8139.00,1.82
8138.00,1.82
8137.00,1.82
8136.00,1.81
8135.00,1.81
8134.00,1.81
8133.00,1.80
8132.00,1.80
8131.00,1.80
8130.00,1.80
8129.00,1.80
8128.00,1.80
8127.00,1.80
8126.00,1.80
8125.00,1.79
8124.00,1.79
8123.00,1.79
8122.00,1.79
8121.00,1.80
8120.00,1.80
8119.00,1.80
8118.00,1.80
8117.00,1.80
8116.00,1.80
8115.00,1.80
8114.00,1.80
8113.00,1.80
8112.00,1.81
8111.00,1.81
8110.00,1.81
8109.00,1.81
8108.00,1.81
8107.00,1.82
8106.00,1.82
8105.00,1.82
8104.00,1.82
8103.00,1.82
8102.00,1.82
8101.00,1.81
8100.00,1.81
8099.00,1.81
8098.00,1.81
8097.00,1.81
8096.00,1.80
8095.00,1.80
8094.00,1.80
8093.00,1.80
8092.00,1.79
8091.00,1.79
8090.00,1.79
8089.00,1.79
8088.00,1.78
8087.00,1.78
8086.00,1.78
8085.00,1.78
8084.00,1.77
8083.00,1.77
8082.00,1.77
8081.00,1.77
8080.00,1.76
8079.00,1.76
8078.00,1.76
8077.00,1.76
8076.00,1.76
8075.00,1.76
8074.00,1.76
8073.00,1.77
8072.00,1.77
8071.00,1.77
8070.00,1.77
8069.00,1.77
8068.00,1.78
8067.00,1.78
8066.00,1.78
8065.00,1.78
8064.00,1.78
8063.00,1.79
8062.00,1.79
8061.00,1.79
8060.00,1.79
8059.00,1.80
8058.00,1.80
8057.00,1.80
8056.00,1.80
8055.00,1.81
8054.00,1.81
8053.00,1.81
8052.00,1.81
8051.00,1.81
8050.00,1.82
8049.00,1.82
8048.00,1.82
8047.00,1.82
8046.00,1.82
8045.00,1.82
8044.00,1.83
8043.00,1.83
8042.00,1.83
8041.00,1.83
8040.00,1.83
8039.00,1.83
8038.00,1.83
8037.00,1.83
8036.00,1.84
8035.00,1.84
8034.00,1.84
8033.00,1.84
8032.00,1.84
8031.00,1.84
8030.00,1.85
8029.00,1.85
8028.00,1.85
8027.00,1.85
8026.00,1.85
8025.00,1.86
8024.00,1.86
8023.00,1.86
8022.00,1.86
8021.00,1.86
8020.00,1.86
8019.00,1.86
8018.00,1.87
8017.00,1.87
8016.00,1.87
8015.00,1.87
8014.00,1.87
8013.00,1.87
8012.00,1.87
8011.00,1.87
8010.00,1.87
8009.00,1.87
8008.00,1.87
8007.00,1.87
8006.00,1.87
8005.00,1.87
8004.00,1.86
8003.00,1.86
8002.00,1.86
8001.00,1.86
8000.00,1.85
7999.00,1.85
7998.00,1.85
7997.00,1.84
7996.00,1.84
7995.00,1.84
7994.00,1.83
7993.00,1.83
7992.00,1.83
7991.00,1.82
7990.00,1.82
7989.00,1.82
7988.00,1.82
7987.00,1.81
7986.00,1.81
7985.00,1.81
7984.00,1.81
7983.00,1.81
7982.00,1.81
7981.00,1.81
7980.00,1.81
7979.00,1.81
7978.00,1.81
7977.00,1.81
7976.00,1.81
7975.00,1.81
7974.00,1.81
7973.00,1.81
7972.00,1.81
7971.00,1.81
7970.00,1.82
7969.00,1.82
7968.00,1.82
7967.00,1.82
7966.00,1.83
7965.00,1.83
7964.00,1.83
7963.00,1.84
7962.00,1.84
7961.00,1.84
7960.00,1.84
7959.00,1.85
7958.00,1.85
7957.00,1.85
7956.00,1.85
7955.00,1.85
7954.00,1.85
7953.00,1.86
7952.00,1.86
7951.00,1.86
7950.00,1.86
7949.00,1.86
7948.00,1.86
7947.00,1.86
7946.00,1.86
7945.00,1.85
7944.00,1.85
7943.00,1.85
7942.00,1.85
7941.00,1.85
7940.00,1.84
7939.00,1.84
7938.00,1.84
7937.00,1.84
7936.00,1.84
7935.00,1.83
7934.00,1.83
7933.00,1.83
7932.00,1.83
7931.00,1.83
7930.00,1.82
7929.00,1.82
7928.00,1.82
7927.00,1.82
7926.00,1.82
7925.00,1.81
7924.00,1.81
7923.00,1.81
7922.00,1.81
7921.00,1.81
7920.00,1.81
7919.00,1.81
7918.00,1.81
7917.00,1.81
7916.00,1.81
7915.00,1.81
7914.00,1.81
7913.00,1.81
7912.00,1.81
7911.00,1.81
7910.00,1.81
7909.00,1.81
7908.00,1.81
7907.00,1.81
7906.00,1.81
7905.00,1.81
7904.00,1.81
7903.00,1.81
7902.00,1.81
7901.00,1.82
7900.00,1.82
7899.00,1.82
7898.00,1.82
7897.00,1.82
7896.00,1.83
7895.00,1.83
7894.00,1.83
7893.00,1.83
7892.00,1.84
7891.00,1.84
7890.00,1.84
7889.00,1.85
7888.00,1.85
7887.00,1.85
7886.00,1.86
7885.00,1.86
7884.00,1.86
7883.00,1.86
7882.00,1.86
7881.00,1.87
7880.00,1.87
7879.00,1.87
7878.00,1.87
7877.00,1.87
7876.00,1.87
7875.00,1.86
7874.00,1.86
7873.00,1.86
7872.00,1.86
7871.00,1.86
7870.00,1.86
7869.00,1.86
7868.00,1.86
7867.00,1.85
7866.00,1.85
7865.00,1.85
7864.00,1.85
7863.00,1.84
7862.00,1.84
7861.00,1.84
7860.00,1.84
7859.00,1.84
7858.00,1.83
7857.00,1.83
7856.00,1.83
7855.00,1.83
7854.00,1.83
7853.00,1.83
7852.00,1.83
7851.00,1.83
7850.00,1.83
7849.00,1.83
7848.00,1.83
7847.00,1.83
7846.00,1.83
7845.00,1.83
7844.00,1.83
7843.00,1.83
7842.00,1.84
7841.00,1.84
7840.00,1.84
7839.00,1.84
7838.00,1.84
7837.00,1.84
7836.00,1.85
7835.00,1.85
7834.00,1.85
7833.00,1.85
7832.00,1.85
7831.00,1.86
7830.00,1.86
7829.00,1.86
7828.00,1.86
7827.00,1.87
7826.00,1.87
7825.00,1.87
7824.00,1.88
7823.00,1.88
7822.00,1.88
7821.00,1.88
7820.00,1.88
7819.00,1.88
7818.00,1.88
7817.00,1.89
7816.00,1.89
7815.00,1.89
7814.00,1.89
7813.00,1.89
7812.00,1.89
7811.00,1.89
7810.00,1.89
7809.00,1.89
7808.00,1.89
7807.00,1.90
7806.00,1.90
7805.00,1.90
7804.00,1.89
7803.00,1.89
7802.00,1.89
7801.00,1.89
7800.00,1.88
7799.00,1.88
7798.00,1.88
7797.00,1.87
7796.00,1.87
7795.00,1.87
7794.00,1.87
7793.00,1.86
7792.00,1.86
7791.00,1.86
7790.00,1.86
7789.00,1.86
7788.00,1.85
7787.00,1.85
7786.00,1.85
7785.00,1.85
7784.00,1.85
7783.00,1.84
7782.00,1.84
7781.00,1.84
7780.00,1.84
7779.00,1.84
7778.00,1.84
7777.00,1.84
7776.00,1.84
7775.00,1.84
7774.00,1.84
7773.00,1.84
7772.00,1.84
7771.00,1.85
7770.00,1.85
7769.00,1.85
7768.00,1.85
7767.00,1.85
7766.00,1.86
7765.00,1.86
7764.00,1.86
7763.00,1.86
7762.00,1.86
7761.00,1.86
7760.00,1.86
7759.00,1.86
7758.00,1.86
7757.00,1.87
7756.00,1.87
7755.00,1.87
7754.00,1.87
7753.00,1.87
7752.00,1.87
7751.00,1.87
7750.00,1.87
7749.00,1.87
7748.00,1.87
7747.00,1.86
7746.00,1.86
7745.00,1.86
7744.00,1.86
7743.00,1.86
7742.00,1.85
7741.00,1.85
7740.00,1.85
7739.00,1.85
7738.00,1.85
7737.00,1.85
7736.00,1.85
7735.00,1.85
7734.00,1.85
7733.00,1.85
7732.00,1.85
7731.00,1.85
7730.00,1.85
7729.00,1.85
7728.00,1.85
7727.00,1.85
7726.00,1.85
7725.00,1.86
7724.00,1.86
7723.00,1.86
7722.00,1.86
7721.00,1.86
7720.00,1.86
7719.00,1.86
7718.00,1.87
7717.00,1.87
7716.00,1.87
7715.00,1.87
7714.00,1.87
7713.00,1.87
7712.00,1.87
7711.00,1.87
7710.00,1.87
7709.00,1.87
7708.00,1.87
7707.00,1.87
7706.00,1.87
7705.00,1.87
7704.00,1.87
7703.00,1.87
7702.00,1.87
7701.00,1.87
7700.00,1.87
7699.00,1.87
7698.00,1.87
7697.00,1.87
7696.00,1.88
7695.00,1.88
7694.00,1.88
7693.00,1.88
7692.00,1.88
7691.00,1.88
7690.00,1.88
7689.00,1.88
7688.00,1.88
7687.00,1.88
7686.00,1.88
7685.00,1.88
7684.00,1.89
7683.00,1.89
7682.00,1.89
7681.00,1.89
7680.00,1.89
7679.00,1.89
7678.00,1.89
7677.00,1.89
7676.00,1.89
7675.00,1.89
7674.00,1.89
7673.00,1.89
7672.00,1.89
7671.00,1.89
7670.00,1.89
7669.00,1.89
7668.00,1.89
7667.00,1.88
7666.00,1.88
7665.00,1.88
7664.00,1.88
7663.00,1.88
7662.00,1.88
7661.00,1.88
7660.00,1.88
7659.00,1.87
7658.00,1.87
7657.00,1.87
7656.00,1.87
7655.00,1.87
7654.00,1.87
7653.00,1.87
7652.00,1.86
7651.00,1.86
7650.00,1.86
7649.00,1.86
7648.00,1.86
7647.00,1.86
7646.00,1.86
7645.00,1.86
7644.00,1.86
7643.00,1.86
7642.00,1.87
7641.00,1.87
7640.00,1.87
7639.00,1.87
7638.00,1.87
7637.00,1.87
7636.00,1.87
7635.00,1.87
7634.00,1.88
7633.00,1.88
7632.00,1.88
7631.00,1.89
7630.00,1.89
7629.00,1.89
7628.00,1.89
7627.00,1.90
7626.00,1.90
7625.00,1.90
7624.00,1.91
7623.00,1.91
7622.00,1.91
7621.00,1.91
7620.00,1.91
7619.00,1.92
7618.00,1.92
7617.00,1.92
7616.00,1.92
7615.00,1.92
7614.00,1.92
7613.00,1.92
7612.00,1.92
7611.00,1.92
7610.00,1.92
7609.00,1.92
7608.00,1.92
7607.00,1.92
7606.00,1.92
7605.00,1.92
7604.00,1.92
7603.00,1.92
7602.00,1.92
7601.00,1.92
7600.00,1.92
7599.00,1.92
7598.00,1.92
7597.00,1.92
7596.00,1.92
7595.00,1.91
7594.00,1.91
7593.00,1.91
7592.00,1.91
7591.00,1.91
7590.00,1.91
7589.00,1.91
7588.00,1.90
7587.00,1.90
7586.00,1.90
7585.00,1.90
7584.00,1.89
7583.00,1.89
7582.00,1.89
7581.00,1.89
7580.00,1.89
7579.00,1.88
7578.00,1.88
7577.00,1.88
7576.00,1.88
7575.00,1.88
7574.00,1.88
7573.00,1.88
7572.00,1.87
7571.00,1.87
7570.00,1.87
7569.00,1.87
7568.00,1.87
7567.00,1.87
7566.00,1.87
7565.00,1.87
7564.00,1.88
7563.00,1.88
7562.00,1.88
7561.00,1.89
7560.00,1.89
7559.00,1.89
7558.00,1.90
7557.00,1.90
7556.00,1.90
7555.00,1.90
7554.00,1.91
7553.00,1.91
7552.00,1.91
7551.00,1.91
7550.00,1.91
7549.00,1.92
7548.00,1.92
7547.00,1.92
7546.00,1.92
7545.00,1.92
7544.00,1.92
7543.00,1.92
7542.00,1.92
7541.00,1.92
7540.00,1.92
7539.00,1.92
7538.00,1.92
7537.00,1.92
7536.00,1.92
7535.00,1.92
7534.00,1.92
7533.00,1.91
7532.00,1.91
7531.00,1.91
7530.00,1.91
7529.00,1.91
7528.00,1.91
7527.00,1.91
7526.00,1.91
7525.00,1.90
7524.00,1.90
7523.00,1.90
7522.00,1.91
7521.00,1.91
7520.00,1.91
7519.00,1.91
7518.00,1.90
7517.00,1.90
7516.00,1.90
7515.00,1.90
7514.00,1.90
7513.00,1.90
7512.00,1.90
7511.00,1.90
7510.00,1.89
7509.00,1.89
7508.00,1.89
7507.00,1.89
7506.00,1.89
7505.00,1.88
7504.00,1.88
7503.00,1.88
7502.00,1.88
7501.00,1.88
7500.00,1.88
7499.00,1.87
7498.00,1.87
7497.00,1.87
7496.00,1.87
7495.00,1.87
7494.00,1.86
7493.00,1.86
7492.00,1.86
7491.00,1.86
7490.00,1.86
7489.00,1.86
7488.00,1.86
7487.00,1.86
7486.00,1.86
7485.00,1.86
7484.00,1.86
7483.00,1.87
7482.00,1.87
7481.00,1.87
7480.00,1.87
7479.00,1.88
7478.00,1.88
7477.00,1.88
7476.00,1.88
7475.00,1.88
7474.00,1.88
7473.00,1.89
7472.00,1.89
7471.00,1.89
7470.00,1.89
7469.00,1.89
7468.00,1.89
7467.00,1.89
7466.00,1.89
7465.00,1.88
7464.00,1.88
7463.00,1.88
7462.00,1.88
7461.00,1.88
7460.00,1.88
7459.00,1.88
7458.00,1.87
7457.00,1.87
7456.00,1.87
7455.00,1.86
7454.00,1.86
7453.00,1.86
7452.00,1.85
7451.00,1.85
7450.00,1.84
7449.00,1.84
7448.00,1.84
7447.00,1.83
7446.00,1.83
7445.00,1.82
7444.00,1.82
7443.00,1.82
7442.00,1.82
7441.00,1.81
7440.00,1.81
7439.00,1.81
7438.00,1.81
7437.00,1.81
7436.00,1.81
7435.00,1.81
7434.00,1.81
7433.00,1.81
7432.00,1.80
7431.00,1.80
7430.00,1.80
7429.00,1.80
7428.00,1.80
7427.00,1.80
7426.00,1.80
7425.00,1.81
7424.00,1.81
7423.00,1.81
7422.00,1.82
7421.00,1.82
7420.00,1.82
7419.00,1.83
7418.00,1.83
7417.00,1.83
7416.00,1.83
7415.00,1.84
7414.00,1.84
7413.00,1.84
7412.00,1.85
7411.00,1.85
7410.00,1.85
7409.00,1.86
7408.00,1.86
7407.00,1.86
7406.00,1.87
7405.00,1.87
7404.00,1.87
7403.00,1.87
7402.00,1.88
7401.00,1.88
7400.00,1.88
7399.00,1.88
7398.00,1.88
7397.00,1.88
7396.00,1.87
7395.00,1.87
7394.00,1.87
7393.00,1.87
7392.00,1.87
7391.00,1.87
7390.00,1.86
7389.00,1.86
7388.00,1.86
7387.00,1.86
7386.00,1.85
7385.00,1.85
7384.00,1.85
7383.00,1.84
7382.00,1.84
7381.00,1.83
7380.00,1.83
7379.00,1.82
7378.00,1.82
7377.00,1.82
7376.00,1.81
7375.00,1.81
7374.00,1.80
7373.00,1.80
7372.00,1.80
7371.00,1.80
7370.00,1.79
7369.00,1.79
7368.00,1.79
7367.00,1.79
7366.00,1.79
7365.00,1.79
7364.00,1.79
7363.00,1.78
7362.00,1.78
7361.00,1.78
7360.00,1.78
7359.00,1.78
7358.00,1.78
7357.00,1.78
7356.00,1.79
7355.00,1.79
7354.00,1.79
7353.00,1.79
7352.00,1.79
7351.00,1.79
7350.00,1.79
7349.00,1.79
7348.00,1.79
7347.00,1.80
7346.00,1.80
7345.00,1.80
7344.00,1.80
7343.00,1.80
7342.00,1.80
7341.00,1.79
7340.00,1.79
7339.00,1.79
7338.00,1.79
7337.00,1.79
7336.00,1.78
7335.00,1.78
7334.00,1.78
7333.00,1.78
7332.00,1.77
7331.00,1.77
7330.00,1.77
7329.00,1.77
7328.00,1.77
7327.00,1.77
7326.00,1.76
7325.00,1.76
7324.00,1.76
7323.00,1.76
7322.00,1.76
7321.00,1.76
7320.00,1.76
7319.00,1.76
7318.00,1.76
7317.00,1.76
7316.00,1.76
7315.00,1.76
7314.00,1.76
7313.00,1.76
7312.00,1.76
7311.00,1.77
7310.00,1.77
7309.00,1.77
7308.00,1.77
7307.00,1.78
7306.00,1.78
7305.00,1.78
7304.00,1.78
7303.00,1.78
7302.00,1.79
7301.00,1.79
7300.00,1.79
7299.00,1.79
7298.00,1.79
7297.00,1.79
7296.00,1.79
7295.00,1.79
7294.00,1.79
7293.00,1.79
7292.00,1.78
7291.00,1.78
7290.00,1.78
7289.00,1.78
7288.00,1.78
7287.00,1.77
7286.00,1.77
7285.00,1.77
7284.00,1.77
7283.00,1.76
7282.00,1.76
7281.00,1.76
7280.00,1.75
7279.00,1.75
7278.00,1.75
7277.00,1.75
7276.00,1.75
7275.00,1.74
7274.00,1.74
7273.00,1.74
7272.00,1.74
7271.00,1.74
7270.00,1.74
7269.00,1.74
7268.00,1.74
7267.00,1.74
7266.00,1.74
7265.00,1.74
7264.00,1.74
7263.00,1.74
7262.00,1.74
7261.00,1.74
7260.00,1.74
7259.00,1.74
7258.00,1.73
7257.00,1.73
7256.00,1.73
7255.00,1.73
7254.00,1.72
7253.00,1.72
7252.00,1.72
7251.00,1.71
7250.00,1.71
7249.00,1.71
7248.00,1.70
7247.00,1.70
7246.00,1.69
7245.00,1.68
7244.00,1.68
7243.00,1.67
7242.00,1.67
7241.00,1.66
7240.00,1.66
7239.00,1.65
7238.00,1.65
7237.00,1.64
7236.00,1.64
7235.00,1.63
7234.00,1.63
7233.00,1.62
7232.00,1.62
7231.00,1.62
7230.00,1.62
7229.00,1.62
7228.00,1.62
7227.00,1.61
7226.00,1.61
7225.00,1.61
7224.00,1.61
7223.00,1.61
7222.00,1.61
7221.00,1.61
7220.00,1.61
7219.00,1.61
7218.00,1.62
7217.00,1.62
7216.00,1.62
7215.00,1.62
7214.00,1.62
7213.00,1.62
7212.00,1.62
7211.00,1.62
7210.00,1.62
7209.00,1.62
7208.00,1.62
7207.00,1.62
7206.00,1.62
7205.00,1.62
7204.00,1.62
7203.00,1.61
7202.00,1.61
7201.00,1.61
7200.00,1.60
7199.00,1.60
7198.00,1.60
7197.00,1.59
7196.00,1.59
7195.00,1.59
7194.00,1.58
7193.00,1.58
7192.00,1.58
7191.00,1.57
7190.00,1.57
7189.00,1.57
7188.00,1.57
7187.00,1.56
7186.00,1.56
7185.00,1.56
7184.00,1.56
7183.00,1.56
7182.00,1.55
7181.00,1.55
7180.00,1.55
7179.00,1.55
7178.00,1.55
7177.00,1.55
7176.00,1.55
7175.00,1.55
7174.00,1.55
7173.00,1.55
7172.00,1.55
7171.00,1.55
7170.00,1.55
7169.00,1.55
7168.00,1.55
7167.00,1.55
7166.00,1.55
7165.00,1.55
7164.00,1.55
7163.00,1.55
7162.00,1.54
7161.00,1.54
7160.00,1.54
7159.00,1.54
7158.00,1.53
7157.00,1.53
7156.00,1.53
7155.00,1.52
7154.00,1.52
7153.00,1.51
7152.00,1.51
7151.00,1.50
7150.00,1.50
7149.00,1.49
7148.00,1.49
7147.00,1.48
7146.00,1.47
7145.00,1.47
7144.00,1.46
7143.00,1.46
7142.00,1.45
7141.00,1.45
7140.00,1.44
7139.00,1.43
7138.00,1.43
7137.00,1.42
7136.00,1.41
7135.00,1.41
7134.00,1.40
7133.00,1.40
7132.00,1.39
7131.00,1.38
7130.00,1.38
7129.00,1.37
7128.00,1.37
7127.00,1.36
7126.00,1.36
7125.00,1.36
7124.00,1.35
7123.00,1.35
7122.00,1.34
7121.00,1.34
7120.00,1.33
7119.00,1.33
7118.00,1.33
7117.00,1.32
7116.00,1.32
7115.00,1.31
7114.00,1.31
7113.00,1.31
7112.00,1.31
7111.00,1.30
7110.00,1.30
7109.00,1.30
7108.00,1.30
7107.00,1.29
7106.00,1.29
7105.00,1.29
7104.00,1.29
7103.00,1.28
7102.00,1.28
7101.00,1.28
7100.00,1.28
7099.00,1.27
7098.00,1.27
7097.00,1.27
7096.00,1.26
7095.00,1.26
7094.00,1.26
7093.00,1.26
7092.00,1.26
7091.00,1.25
7090.00,1.25
7089.00,1.25
7088.00,1.25
7087.00,1.24
7086.00,1.24
7085.00,1.24
7084.00,1.23
7083.00,1.23
7082.00,1.23
7081.00,1.23
7080.00,1.22
7079.00,1.22
7078.00,1.22
7077.00,1.22
7076.00,1.22
7075.00,1.22
7074.00,1.22
7073.00,1.22
7072.00,1.22
7071.00,1.22
7070.00,1.22
7069.00,1.22
7068.00,1.22
7067.00,1.22
7066.00,1.22
7065.00,1.22
7064.00,1.22
7063.00,1.22
7062.00,1.22
7061.00,1.22
7060.00,1.22
7059.00,1.22
7058.00,1.23
7057.00,1.23
7056.00,1.23
7055.00,1.23
7054.00,1.23
7053.00,1.23
7052.00,1.23
7051.00,1.23
7050.00,1.23
7049.00,1.22
7048.00,1.22
7047.00,1.22
7046.00,1.22
7045.00,1.22
7044.00,1.22
7043.00,1.22
7042.00,1.22
7041.00,1.22
7040.00,1.21
7039.00,1.21
7038.00,1.21
7037.00,1.21
7036.00,1.21
7035.00,1.20
7034.00,1.20
7033.00,1.20
7032.00,1.20
7031.00,1.19
7030.00,1.19
7029.00,1.19
7028.00,1.19
7027.00,1.19
7026.00,1.19
7025.00,1.18
7024.00,1.18
7023.00,1.18
7022.00,1.18
7021.00,1.18
7020.00,1.18
7019.00,1.17
7018.00,1.17
7017.00,1.17
7016.00,1.17
7015.00,1.17
7014.00,1.17
7013.00,1.16
7012.00,1.16
7011.00,1.16
7010.00,1.16
7009.00,1.16
7008.00,1.16
7007.00,1.16
7006.00,1.16
7005.00,1.16
7004.00,1.15
7003.00,1.15
7002.00,1.15
7001.00,1.15
7000.00,1.15
6999.00,1.15
6998.00,1.15
6997.00,1.14
6996.00,1.14
6995.00,1.14
6994.00,1.14
6993.00,1.14
6992.00,1.14
6991.00,1.13
6990.00,1.13
6989.00,1.13
6988.00,1.13
6987.00,1.13
6986.00,1.13
6985.00,1.13
6984.00,1.13
6983.00,1.13
6982.00,1.12
6981.00,1.12
6980.00,1.12
6979.00,1.12
6978.00,1.12
6977.00,1.12
6976.00,1.12
6975.00,1.12
6974.00,1.12
6973.00,1.12
6972.00,1.12
6971.00,1.12
6970.00,1.13
6969.00,1.13
6968.00,1.13
6967.00,1.13
6966.00,1.13
6965.00,1.13
6964.00,1.14
6963.00,1.14
6962.00,1.14
6961.00,1.14
6960.00,1.14
6959.00,1.15
6958.00,1.15
6957.00,1.15
6956.00,1.15
6955.00,1.15
6954.00,1.16
6953.00,1.16
6952.00,1.16
6951.00,1.16
6950.00,1.16
6949.00,1.16
6948.00,1.16
6947.00,1.16
6946.00,1.16
6945.00,1.17
6944.00,1.17
6943.00,1.17
6942.00,1.17
6941.00,1.17
6940.00,1.16
6939.00,1.16
6938.00,1.16
6937.00,1.16
6936.00,1.16
6935.00,1.15
6934.00,1.15
6933.00,1.15
6932.00,1.15
6931.00,1.14
6930.00,1.14
6929.00,1.13
6928.00,1.13
6927.00,1.13
6926.00,1.12
6925.00,1.12
6924.00,1.11
6923.00,1.11
6922.00,1.11
6921.00,1.10
6920.00,1.10
6919.00,1.09
6918.00,1.09
6917.00,1.09
6916.00,1.08
6915.00,1.08
6914.00,1.08
6913.00,1.08
6912.00,1.07
6911.00,1.07
6910.00,1.07
6909.00,1.07
6908.00,1.07
6907.00,1.07
6906.00,1.07
6905.00,1.07
6904.00,1.07
6903.00,1.07
6902.00,1.07
6901.00,1.08
6900.00,1.08
6899.00,1.08
6898.00,1.08
6897.00,1.09
6896.00,1.09
6895.00,1.09
6894.00,1.09
6893.00,1.09
6892.00,1.10
6891.00,1.10
6890.00,1.10
6889.00,1.10
6888.00,1.10
6887.00,1.11
6886.00,1.11
6885.00,1.11
6884.00,1.11
6883.00,1.11
6882.00,1.11
6881.00,1.11
6880.00,1.11
6879.00,1.11
6878.00,1.11
6877.00,1.11
6876.00,1.11
6875.00,1.10
6874.00,1.10
6873.00,1.10
6872.00,1.10
6871.00,1.10
6870.00,1.09
6869.00,1.09
6868.00,1.09
6867.00,1.09
6866.00,1.09
6865.00,1.09
6864.00,1.08
6863.00,1.08
6862.00,1.08
6861.00,1.08
6860.00,1.08
6859.00,1.08
6858.00,1.08
6857.00,1.08
6856.00,1.08
6855.00,1.08
6854.00,1.08
6853.00,1.08
6852.00,1.08
6851.00,1.08
6850.00,1.08
6849.00,1.08
6848.00,1.08
6847.00,1.08
6846.00,1.08
6845.00,1.08
6844.00,1.08
6843.00,1.08
6842.00,1.08
6841.00,1.08
6840.00,1.08
6839.00,1.09
6838.00,1.09
6837.00,1.09
6836.00,1.09
6835.00,1.09
6834.00,1.08
6833.00,1.08
6832.00,1.08
6831.00,1.08
6830.00,1.08
6829.00,1.08
6828.00,1.08
6827.00,1.08
6826.00,1.08
6825.00,1.08
6824.00,1.08
6823.00,1.08
6822.00,1.08
6821.00,1.08
6820.00,1.08
6819.00,1.08
6818.00,1.08
6817.00,1.08
6816.00,1.08
6815.00,1.08
6814.00,1.08
6813.00,1.08
6812.00,1.08
6811.00,1.08
6810.00,1.08
6809.00,1.08
6808.00,1.08
6807.00,1.08
6806.00,1.08
6805.00,1.09
6804.00,1.09
6803.00,1.09
6802.00,1.09
6801.00,1.09
6800.00,1.09
6799.00,1.09
6798.00,1.09
6797.00,1.10
6796.00,1.10
6795.00,1.09
6794.00,1.09
6793.00,1.09
6792.00,1.09
6791.00,1.09
6790.00,1.09
6789.00,1.09
6788.00,1.09
6787.00,1.09
6786.00,1.09
6785.00,1.09
6784.00,1.08
6783.00,1.08
6782.00,1.08
6781.00,1.08
6780.00,1.08
6779.00,1.08
6778.00,1.08
6777.00,1.08
6776.00,1.08
6775.00,1.08
6774.00,1.08
6773.00,1.08
6772.00,1.08
6771.00,1.08
6770.00,1.09
6769.00,1.09
6768.00,1.09
6767.00,1.09
6766.00,1.09
6765.00,1.10
6764.00,1.10
6763.00,1.10
6762.00,1.11
6761.00,1.11
6760.00,1.12
6759.00,1.12
6758.00,1.12
6757.00,1.13
6756.00,1.13
6755.00,1.14
6754.00,1.14
6753.00,1.14
6752.00,1.15
6751.00,1.15
6750.00,1.15
6749.00,1.15
6748.00,1.16
6747.00,1.16
6746.00,1.16
6745.00,1.16
6744.00,1.16
6743.00,1.16
6742.00,1.17
6741.00,1.17
6740.00,1.17
6739.00,1.17
6738.00,1.17
6737.00,1.17
6736.00,1.17
6735.00,1.17
6734.00,1.17
6733.00,1.17
6732.00,1.17
6731.00,1.17
6730.00,1.18
6729.00,1.18
6728.00,1.18
6727.00,1.18
6726.00,1.18
6725.00,1.19
6724.00,1.19
6723.00,1.19
6722.00,1.19
6721.00,1.19
6720.00,1.20
6719.00,1.20
6718.00,1.20
6717.00,1.21
6716.00,1.21
6715.00,1.21
6714.00,1.21
6713.00,1.22
6712.00,1.22
6711.00,1.22
6710.00,1.22
6709.00,1.23
6708.00,1.23
6707.00,1.23
6706.00,1.23
6705.00,1.23
6704.00,1.23
6703.00,1.23
6702.00,1.23
6701.00,1.23
6700.00,1.23
6699.00,1.23
6698.00,1.23
6697.00,1.23
6696.00,1.23
6695.00,1.23
6694.00,1.23
6693.00,1.23
6692.00,1.23
6691.00,1.23
6690.00,1.23
6689.00,1.23
6688.00,1.23
6687.00,1.23
6686.00,1.23
6685.00,1.23
6684.00,1.23
6683.00,1.23
6682.00,1.23
6681.00,1.23
6680.00,1.24
6679.00,1.24
6678.00,1.24
6677.00,1.24
6676.00,1.24
6675.00,1.24
6674.00,1.24
6673.00,1.24
6672.00,1.24
6671.00,1.24
6670.00,1.24
6669.00,1.24
6668.00,1.24
6667.00,1.24
6666.00,1.24
6665.00,1.25
6664.00,1.25
6663.00,1.25
6662.00,1.25
6661.00,1.25
6660.00,1.25
6659.00,1.26
6658.00,1.26
6657.00,1.26
6656.00,1.26
6655.00,1.26
6654.00,1.26
6653.00,1.26
6652.00,1.26
6651.00,1.26
6650.00,1.27
6649.00,1.27
6648.00,1.27
6647.00,1.27
6646.00,1.27
6645.00,1.27
6644.00,1.27
6643.00,1.28
6642.00,1.28
6641.00,1.28
6640.00,1.28
6639.00,1.28
6638.00,1.28
6637.00,1.28
6636.00,1.28
6635.00,1.29
6634.00,1.29
6633.00,1.29
6632.00,1.29
6631.00,1.29
6630.00,1.29
6629.00,1.29
6628.00,1.30
6627.00,1.30
6626.00,1.30
6625.00,1.30
6624.00,1.30
6623.00,1.31
6622.00,1.31
6621.00,1.31
6620.00,1.31
6619.00,1.31
6618.00,1.32
6617.00,1.32
6616.00,1.32
6615.00,1.32
6614.00,1.32
6613.00,1.33
6612.00,1.33
6611.00,1.33
6610.00,1.33
6609.00,1.33
6608.00,1.34
6607.00,1.34
6606.00,1.34
6605.00,1.34
6604.00,1.35
6603.00,1.35
6602.00,1.35
6601.00,1.35
6600.00,1.35
6599.00,1.35
6598.00,1.36
6597.00,1.36
6596.00,1.36
6595.00,1.36
6594.00,1.36
6593.00,1.37
6592.00,1.37
6591.00,1.37
6590.00,1.37
6589.00,1.37
6588.00,1.37
6587.00,1.38
6586.00,1.38
6585.00,1.38
6584.00,1.38
6583.00,1.38
6582.00,1.38
6581.00,1.39
6580.00,1.39
6579.00,1.39
6578.00,1.39
6577.00,1.39
6576.00,1.40
6575.00,1.40
6574.00,1.40
6573.00,1.40
6572.00,1.40
6571.00,1.41
6570.00,1.41
6569.00,1.41
6568.00,1.41
6567.00,1.41
6566.00,1.41
6565.00,1.41
6564.00,1.41
6563.00,1.42
6562.00,1.42
6561.00,1.42
6560.00,1.42
6559.00,1.42
6558.00,1.42
6557.00,1.42
6556.00,1.42
6555.00,1.42
6554.00,1.42
6553.00,1.42
6552.00,1.42
6551.00,1.42
6550.00,1.42
6549.00,1.42
6548.00,1.42
6547.00,1.41
6546.00,1.41
6545.00,1.41
6544.00,1.41
6543.00,1.41
6542.00,1.41
6541.00,1.41
6540.00,1.41
6539.00,1.41
6538.00,1.41
6537.00,1.41
6536.00,1.41
6535.00,1.41
6534.00,1.41
6533.00,1.41
6532.00,1.41
6531.00,1.41
6530.00,1.42
6529.00,1.42
6528.00,1.42
6527.00,1.42
6526.00,1.42
6525.00,1.42
6524.00,1.43
6523.00,1.43
6522.00,1.43
6521.00,1.44
6520.00,1.44
6519.00,1.44
6518.00,1.44
6517.00,1.45
6516.00,1.45
6515.00,1.45
6514.00,1.46
6513.00,1.46
6512.00,1.46
6511.00,1.47
6510.00,1.47
6509.00,1.47
6508.00,1.48
6507.00,1.48
6506.00,1.48
6505.00,1.48
6504.00,1.49
6503.00,1.49
6502.00,1.49
6501.00,1.49
6500.00,1.50
6499.00,1.50
6498.00,1.50
6497.00,1.50
6496.00,1.50
6495.00,1.50
6494.00,1.51
6493.00,1.51
6492.00,1.51
6491.00,1.51
6490.00,1.51
6489.00,1.51
6488.00,1.51
6487.00,1.51
6486.00,1.50
6485.00,1.50
6484.00,1.50
6483.00,1.50
6482.00,1.50
6481.00,1.50
6480.00,1.50
6479.00,1.50
6478.00,1.50
6477.00,1.50
6476.00,1.50
6475.00,1.50
6474.00,1.50
6473.00,1.50
6472.00,1.50
6471.00,1.49
6470.00,1.49
6469.00,1.49
6468.00,1.49
6467.00,1.49
6466.00,1.49
6465.00,1.49
6464.00,1.49
6463.00,1.49
6462.00,1.49
6461.00,1.49
6460.00,1.49
6459.00,1.49
6458.00,1.49
6457.00,1.49
6456.00,1.49
6455.00,1.50
6454.00,1.50
6453.00,1.50
6452.00,1.50
6451.00,1.50
6450.00,1.50
6449.00,1.50
6448.00,1.50
6447.00,1.50
6446.00,1.50
6445.00,1.50
6444.00,1.50
6443.00,1.50
6442.00,1.50
6441.00,1.50
6440.00,1.50
6439.00,1.50
6438.00,1.50
6437.00,1.50
6436.00,1.50
6435.00,1.50
6434.00,1.50
6433.00,1.50
6432.00,1.50
6431.00,1.50
6430.00,1.50
6429.00,1.50
6428.00,1.50
6427.00,1.50
6426.00,1.50
6425.00,1.50
6424.00,1.51
6423.00,1.51
6422.00,1.51
6421.00,1.51
6420.00,1.51
6419.00,1.51
6418.00,1.52
6417.00,1.52
6416.00,1.52
6415.00,1.52
6414.00,1.52
6413.00,1.53
6412.00,1.53
6411.00,1.53
6410.00,1.53
6409.00,1.53
6408.00,1.53
6407.00,1.54
6406.00,1.54
6405.00,1.54
6404.00,1.54
6403.00,1.54
6402.00,1.54
6401.00,1.54
6400.00,1.54
6399.00,1.54
6398.00,1.53
6397.00,1.53
6396.00,1.53
6395.00,1.53
6394.00,1.53
6393.00,1.53
6392.00,1.53
6391.00,1.52
6390.00,1.52
6389.00,1.52
6388.00,1.52
6387.00,1.52
6386.00,1.52
6385.00,1.52
6384.00,1.52
6383.00,1.52
6382.00,1.52
6381.00,1.52
6380.00,1.51
6379.00,1.52
6378.00,1.52
6377.00,1.52
6376.00,1.52
6375.00,1.52
6374.00,1.52
6373.00,1.53
6372.00,1.53
6371.00,1.53
6370.00,1.54
6369.00,1.54
6368.00,1.54
6367.00,1.55
6366.00,1.55
6365.00,1.55
6364.00,1.56
6363.00,1.56
6362.00,1.56
6361.00,1.57
6360.00,1.57
6359.00,1.57
6358.00,1.57
6357.00,1.58
6356.00,1.58
6355.00,1.58
6354.00,1.58
6353.00,1.59
6352.00,1.59
6351.00,1.59
6350.00,1.59
6349.00,1.59
6348.00,1.59
6347.00,1.59
6346.00,1.59
6345.00,1.59
6344.00,1.59
6343.00,1.59
6342.00,1.59
6341.00,1.59
6340.00,1.59
6339.00,1.59
6338.00,1.59
6337.00,1.59
6336.00,1.59
6335.00,1.59
6334.00,1.59
6333.00,1.59
6332.00,1.59
6331.00,1.59
6330.00,1.59
6329.00,1.59
6328.00,1.59
6327.00,1.59
6326.00,1.59
6325.00,1.59
6324.00,1.59
6323.00,1.59
6322.00,1.59
6321.00,1.60
6320.00,1.60
6319.00,1.60
6318.00,1.60
6317.00,1.60
6316.00,1.61
6315.00,1.61
6314.00,1.61
6313.00,1.61
6312.00,1.61
6311.00,1.61
6310.00,1.62
6309.00,1.62
6308.00,1.62
6307.00,1.62
6306.00,1.62
6305.00,1.62
6304.00,1.63
6303.00,1.63
6302.00,1.63
6301.00,1.63
6300.00,1.63
6299.00,1.63
6298.00,1.64
6297.00,1.64
6296.00,1.64
6295.00,1.64
6294.00,1.64
6293.00,1.64
6292.00,1.64
6291.00,1.64
6290.00,1.64
6289.00,1.64
6288.00,1.64
6287.00,1.65
6286.00,1.65
6285.00,1.65
6284.00,1.65
6283.00,1.65
6282.00,1.66
6281.00,1.66
6280.00,1.66
6279.00,1.66
6278.00,1.66
6277.00,1.67
6276.00,1.67
6275.00,1.67
6274.00,1.67
6273.00,1.68
6272.00,1.68
6271.00,1.68
6270.00,1.69
6269.00,1.69
6268.00,1.69
6267.00,1.69
6266.00,1.70
6265.00,1.70
6264.00,1.70
6263.00,1.70
6262.00,1.70
6261.00,1.70
6260.00,1.70
6259.00,1.70
6258.00,1.71
6257.00,1.71
6256.00,1.71
6255.00,1.71
6254.00,1.71
6253.00,1.71
6252.00,1.71
6251.00,1.71
6250.00,1.71
6249.00,1.71
6248.00,1.71
6247.00,1.71
6246.00,1.71
6245.00,1.71
6244.00,1.71
6243.00,1.71
6242.00,1.71
6241.00,1.71
6240.00,1.71
6239.00,1.71
6238.00,1.71
6237.00,1.71
6236.00,1.71
6235.00,1.71
6234.00,1.71
6233.00,1.71
6232.00,1.71
6231.00,1.71
6230.00,1.70
6229.00,1.70
6228.00,1.70
6227.00,1.70
6226.00,1.70
6225.00,1.70
6224.00,1.70
6223.00,1.70
6222.00,1.70
6221.00,1.70
6220.00,1.70
6219.00,1.70
6218.00,1.70
6217.00,1.70
6216.00,1.70
6215.00,1.70
6214.00,1.70
6213.00,1.70
6212.00,1.70
6211.00,1.70
6210.00,1.70
6209.00,1.70
6208.00,1.70
6207.00,1.70
6206.00,1.70
6205.00,1.70
6204.00,1.71
6203.00,1.71
6202.00,1.71
6201.00,1.71
6200.00,1.71
6199.00,1.71
6198.00,1.71
6197.00,1.71
6196.00,1.72
6195.00,1.72
6194.00,1.72
6193.00,1.72
6192.00,1.72
6191.00,1.73
6190.00,1.73
6189.00,1.73
6188.00,1.74
6187.00,1.74
6186.00,1.74
6185.00,1.75
6184.00,1.75
6183.00,1.75
6182.00,1.75
6181.00,1.76
6180.00,1.76
6179.00,1.77
6178.00,1.77
6177.00,1.77
6176.00,1.78
6175.00,1.78
6174.00,1.78
6173.00,1.79
6172.00,1.79
6171.00,1.80
6170.00,1.80
6169.00,1.80
6168.00,1.80
6167.00,1.81
6166.00,1.81
6165.00,1.81
6164.00,1.81
6163.00,1.81
6162.00,1.81
6161.00,1.81
6160.00,1.81
6159.00,1.81
6158.00,1.81
6157.00,1.81
6156.00,1.81
6155.00,1.81
6154.00,1.81
6153.00,1.81
6152.00,1.81
6151.00,1.81
6150.00,1.81
6149.00,1.80
6148.00,1.80
6147.00,1.80
6146.00,1.80
6145.00,1.80
6144.00,1.80
6143.00,1.80
6142.00,1.80
6141.00,1.79
6140.00,1.79
6139.00,1.79
6138.00,1.79
6137.00,1.79
6136.00,1.80
6135.00,1.80
6134.00,1.80
6133.00,1.80
6132.00,1.80
6131.00,1.80
6130.00,1.80
6129.00,1.80
6128.00,1.81
6127.00,1.81
6126.00,1.81
6125.00,1.81
6124.00,1.82
6123.00,1.82
6122.00,1.82
6121.00,1.82
6120.00,1.83
6119.00,1.83
6118.00,1.83
6117.00,1.83
6116.00,1.84
6115.00,1.84
6114.00,1.84
6113.00,1.84
6112.00,1.84
6111.00,1.85
6110.00,1.85
6109.00,1.85
6108.00,1.85
6107.00,1.85
6106.00,1.85
6105.00,1.85
6104.00,1.85
6103.00,1.85
6102.00,1.85
6101.00,1.85
6100.00,1.85
6099.00,1.85
6098.00,1.85
6097.00,1.84
6096.00,1.84
6095.00,1.84
6094.00,1.84
6093.00,1.84
6092.00,1.84
6091.00,1.84
6090.00,1.84
6089.00,1.84
6088.00,1.84
6087.00,1.84
6086.00,1.84
6085.00,1.84
6084.00,1.84
6083.00,1.84
6082.00,1.84
6081.00,1.84
6080.00,1.84
6079.00,1.84
6078.00,1.85
6077.00,1.85
6076.00,1.85
6075.00,1.85
6074.00,1.86
6073.00,1.86
6072.00,1.86
6071.00,1.86
6070.00,1.87
6069.00,1.87
6068.00,1.87
6067.00,1.87
6066.00,1.88
6065.00,1.88
6064.00,1.88
6063.00,1.89
6062.00,1.89
6061.00,1.89
6060.00,1.89
6059.00,1.89
6058.00,1.89
6057.00,1.90
6056.00,1.90
6055.00,1.90
6054.00,1.90
6053.00,1.90
6052.00,1.90
6051.00,1.90
6050.00,1.90
6049.00,1.90
6048.00,1.90
6047.00,1.90
6046.00,1.90
6045.00,1.90
6044.00,1.90
6043.00,1.90
6042.00,1.91
6041.00,1.91
6040.00,1.91
6039.00,1.91
6038.00,1.91
6037.00,1.91
6036.00,1.91
6035.00,1.91
6034.00,1.91
6033.00,1.91
6032.00,1.91
6031.00,1.91
6030.00,1.91
6029.00,1.91
6028.00,1.91
6027.00,1.92
6026.00,1.92
6025.00,1.92
6024.00,1.92
6023.00,1.92
6022.00,1.92
6021.00,1.92
6020.00,1.92
6019.00,1.92
6018.00,1.92
6017.00,1.92
6016.00,1.92
6015.00,1.92
6014.00,1.92
6013.00,1.92
6012.00,1.92
6011.00,1.92
6010.00,1.92
6009.00,1.92
6008.00,1.92
6007.00,1.92
6006.00,1.92
6005.00,1.92
6004.00,1.92
6003.00,1.92
6002.00,1.92
6001.00,1.92
6000.00,1.92
5999.00,1.92
5998.00,1.92
5997.00,1.91
5996.00,1.91
5995.00,1.91
5994.00,1.91
5993.00,1.91
5992.00,1.91
5991.00,1.91
5990.00,1.90
5989.00,1.90
5988.00,1.90
5987.00,1.90
5986.00,1.89
5985.00,1.89
5984.00,1.89
5983.00,1.88
5982.00,1.88
5981.00,1.88
5980.00,1.87
5979.00,1.87
5978.00,1.87
5977.00,1.86
5976.00,1.86
5975.00,1.85
5974.00,1.85
5973.00,1.84
5972.00,1.84
5971.00,1.84
5970.00,1.83
5969.00,1.83
5968.00,1.82
5967.00,1.82
5966.00,1.81
5965.00,1.81
5964.00,1.80
5963.00,1.80
5962.00,1.79
5961.00,1.79
5960.00,1.78
5959.00,1.78
5958.00,1.78
5957.00,1.77
5956.00,1.77
5955.00,1.77
5954.00,1.76
5953.00,1.76
5952.00,1.76
5951.00,1.75
5950.00,1.75
5949.00,1.75
5948.00,1.74
5947.00,1.74
5946.00,1.74
5945.00,1.73
5944.00,1.73
5943.00,1.73
5942.00,1.73
5941.00,1.72
5940.00,1.72
5939.00,1.72
5938.00,1.72
5937.00,1.72
5936.00,1.72
5935.00,1.71
5934.00,1.71
5933.00,1.71
5932.00,1.71
5931.00,1.71
5930.00,1.70
5929.00,1.70
5928.00,1.70
5927.00,1.70
5926.00,1.70
5925.00,1.69
5924.00,1.69
5923.00,1.69
5922.00,1.69
5921.00,1.69
5920.00,1.69
5919.00,1.69
5918.00,1.69
5917.00,1.69
5916.00,1.68
5915.00,1.68
5914.00,1.68
5913.00,1.68
5912.00,1.68
5911.00,1.68
5910.00,1.68
5909.00,1.68
5908.00,1.68
5907.00,1.68
5906.00,1.68
5905.00,1.68
5904.00,1.68
5903.00,1.68
5902.00,1.68
5901.00,1.68
5900.00,1.68
5899.00,1.68
5898.00,1.68
5897.00,1.68
5896.00,1.68
5895.00,1.68
5894.00,1.68
5893.00,1.68
5892.00,1.68
5891.00,1.68
5890.00,1.69
5889.00,1.69
5888.00,1.69
5887.00,1.69
5886.00,1.69
5885.00,1.69
5884.00,1.69
5883.00,1.69
5882.00,1.70
5881.00,1.70
5880.00,1.70
5879.00,1.70
5878.00,1.70
5877.00,1.70
5876.00,1.71
5875.00,1.71
5874.00,1.71
5873.00,1.71
5872.00,1.71
5871.00,1.71
5870.00,1.72
5869.00,1.72
5868.00,1.72
5867.00,1.72
5866.00,1.72
5865.00,1.73
5864.00,1.73
5863.00,1.73
5862.00,1.74
5861.00,1.74
5860.00,1.74
5859.00,1.74
5858.00,1.75
5857.00,1.75
5856.00,1.75
5855.00,1.75
5854.00,1.76
5853.00,1.76
5852.00,1.76
5851.00,1.76
5850.00,1.77
5849.00,1.77
5848.00,1.77
5847.00,1.77
5846.00,1.77
5845.00,1.78
5844.00,1.78
5843.00,1.78
5842.00,1.78
5841.00,1.78
5840.00,1.78
5839.00,1.79
5838.00,1.79
5837.00,1.79
5836.00,1.79
5835.00,1.79
5834.00,1.79
5833.00,1.79
5832.00,1.79
5831.00,1.79
5830.00,1.79
5829.00,1.79
5828.00,1.79
5827.00,1.79
5826.00,1.79
5825.00,1.78
5824.00,1.78
5823.00,1.78
5822.00,1.78
5821.00,1.78
5820.00,1.78
5819.00,1.78
5818.00,1.77
5817.00,1.77
5816.00,1.77
5815.00,1.77
5814.00,1.77
5813.00,1.77
5812.00,1.77
5811.00,1.76
5810.00,1.76
5809.00,1.76
5808.00,1.76
5807.00,1.76
5806.00,1.76
5805.00,1.76
5804.00,1.75
5803.00,1.75
5802.00,1.75
5801.00,1.75
5800.00,1.75
5799.00,1.75
5798.00,1.75
5797.00,1.75
5796.00,1.75
5795.00,1.74
5794.00,1.74
5793.00,1.74
5792.00,1.74
5791.00,1.74
5790.00,1.74
5789.00,1.74
5788.00,1.74
5787.00,1.74
5786.00,1.73
5785.00,1.73
5784.00,1.73
5783.00,1.73
5782.00,1.73
5781.00,1.73
5780.00,1.73
5779.00,1.73
5778.00,1.73
5777.00,1.73
5776.00,1.73
5775.00,1.73
5774.00,1.73
5773.00,1.73
5772.00,1.73
5771.00,1.73
5770.00,1.73
5769.00,1.73
5768.00,1.73
5767.00,1.73
5766.00,1.73
5765.00,1.73
5764.00,1.73
5763.00,1.73
5762.00,1.74
5761.00,1.74
5760.00,1.74
5759.00,1.74
5758.00,1.74
5757.00,1.74
5756.00,1.75
5755.00,1.75
5754.00,1.75
5753.00,1.75
5752.00,1.76
5751.00,1.76
5750.00,1.76
5749.00,1.76
5748.00,1.76
5747.00,1.77
5746.00,1.77
5745.00,1.77
5744.00,1.77
5743.00,1.77
5742.00,1.78
5741.00,1.78
5740.00,1.78
5739.00,1.78
5738.00,1.78
5737.00,1.79
5736.00,1.79
5735.00,1.79
5734.00,1.79
5733.00,1.79
5732.00,1.79
5731.00,1.80
5730.00,1.80
5729.00,1.80
5728.00,1.80
5727.00,1.80
5726.00,1.80
5725.00,1.80
5724.00,1.80
5723.00,1.80
5722.00,1.80
5721.00,1.79
5720.00,1.79
5719.00,1.79
5718.00,1.79
5717.00,1.79
5716.00,1.79
5715.00,1.79
5714.00,1.79
5713.00,1.79
5712.00,1.79
5711.00,1.78
5710.00,1.78
5709.00,1.78
5708.00,1.78
5707.00,1.78
5706.00,1.78
5705.00,1.78
5704.00,1.77
5703.00,1.77
5702.00,1.77
5701.00,1.77
5700.00,1.77
5699.00,1.77
5698.00,1.77
5697.00,1.76
5696.00,1.76
5695.00,1.76
5694.00,1.76
5693.00,1.76
5692.00,1.76
5691.00,1.76
5690.00,1.75
5689.00,1.75
5688.00,1.75
5687.00,1.75
5686.00,1.75
5685.00,1.75
5684.00,1.75
5683.00,1.74
5682.00,1.74
5681.00,1.74
5680.00,1.74
5679.00,1.74
5678.00,1.73
5677.00,1.73
5676.00,1.73
5675.00,1.73
5674.00,1.73
5673.00,1.73
5672.00,1.73
5671.00,1.73
5670.00,1.73
5669.00,1.73
5668.00,1.73
5667.00,1.73
5666.00,1.73
5665.00,1.73
5664.00,1.73
5663.00,1.73
5662.00,1.73
5661.00,1.73
5660.00,1.73
5659.00,1.73
5658.00,1.73
5657.00,1.73
5656.00,1.74
5655.00,1.74
5654.00,1.74
5653.00,1.74
5652.00,1.74
5651.00,1.74
5650.00,1.74
5649.00,1.75
5648.00,1.75
5647.00,1.75
5646.00,1.75
5645.00,1.75
5644.00,1.75
5643.00,1.75
5642.00,1.75
5641.00,1.76
5640.00,1.76
5639.00,1.76
5638.00,1.76
5637.00,1.76
5636.00,1.76
5635.00,1.76
5634.00,1.76
5633.00,1.76
5632.00,1.76
5631.00,1.76
5630.00,1.77
5629.00,1.77
5628.00,1.77
5627.00,1.77
5626.00,1.77
5625.00,1.77
5624.00,1.77
5623.00,1.77
5622.00,1.77
5621.00,1.77
5620.00,1.77
5619.00,1.78
5618.00,1.78
5617.00,1.78
5616.00,1.78
5615.00,1.78
5614.00,1.78
5613.00,1.78
5612.00,1.78
5611.00,1.79
5610.00,1.79
5609.00,1.79
5608.00,1.79
5607.00,1.79
5606.00,1.79
5605.00,1.79
5604.00,1.80
5603.00,1.80
5602.00,1.80
5601.00,1.80
5600.00,1.80
5599.00,1.81
5598.00,1.81
5597.00,1.81
5596.00,1.81
5595.00,1.82
5594.00,1.82
5593.00,1.82
5592.00,1.82
5591.00,1.82
5590.00,1.82
5589.00,1.82
5588.00,1.83
5587.00,1.83
5586.00,1.83
5585.00,1.83
5584.00,1.83
5583.00,1.84
5582.00,1.84
5581.00,1.84
5580.00,1.84
5579.00,1.84
5578.00,1.85
5577.00,1.85
5576.00,1.85
5575.00,1.85
5574.00,1.85
5573.00,1.86
5572.00,1.86
5571.00,1.86
5570.00,1.86
5569.00,1.86
5568.00,1.86
5567.00,1.87
5566.00,1.87
5565.00,1.87
5564.00,1.87
5563.00,1.87
5562.00,1.87
5561.00,1.88
5560.00,1.88
5559.00,1.88
5558.00,1.88
5557.00,1.88
5556.00,1.88
5555.00,1.89
5554.00,1.89
5553.00,1.89
5552.00,1.89
5551.00,1.89
5550.00,1.89
5549.00,1.89
5548.00,1.89
5547.00,1.89
5546.00,1.89
5545.00,1.89
5544.00,1.89
5543.00,1.89
5542.00,1.89
5541.00,1.89
5540.00,1.89
5539.00,1.89
5538.00,1.89
5537.00,1.89
5536.00,1.89
5535.00,1.89
5534.00,1.89
5533.00,1.89
5532.00,1.89
5531.00,1.89
5530.00,1.89
5529.00,1.89
5528.00,1.89
5527.00,1.89
5526.00,1.89
5525.00,1.89
5524.00,1.89
5523.00,1.89
5522.00,1.89
5521.00,1.89
5520.00,1.89
5519.00,1.89
5518.00,1.89
5517.00,1.89
5516.00,1.89
5515.00,1.89
5514.00,1.89
5513.00,1.89
5512.00,1.89
5511.00,1.89
5510.00,1.89
5509.00,1.89
5508.00,1.89
5507.00,1.89
5506.00,1.89
5505.00,1.89
5504.00,1.89
5503.00,1.89
5502.00,1.89
5501.00,1.89
5500.00,1.89
5499.00,1.89
5498.00,1.89
5497.00,1.89
5496.00,1.89
5495.00,1.90
5494.00,1.90
5493.00,1.90
5492.00,1.90
5491.00,1.90
5490.00,1.90
5489.00,1.90
5488.00,1.90
5487.00,1.90
5486.00,1.90
5485.00,1.91
5484.00,1.91
5483.00,1.91
5482.00,1.91
5481.00,1.91
5480.00,1.91
5479.00,1.92
5478.00,1.92
5477.00,1.92
5476.00,1.92
5475.00,1.92
5474.00,1.92
5473.00,1.92
5472.00,1.92
5471.00,1.93
5470.00,1.93
5469.00,1.93
5468.00,1.93
5467.00,1.93
5466.00,1.93
5465.00,1.93
5464.00,1.94
5463.00,1.94
5462.00,1.94
5461.00,1.94
5460.00,1.94
5459.00,1.94
5458.00,1.94
5457.00,1.94
5456.00,1.94
5455.00,1.94
5454.00,1.94
5453.00,1.93
5452.00,1.93
5451.00,1.93
5450.00,1.93
5449.00,1.93
5448.00,1.93
5447.00,1.93
5446.00,1.93
5445.00,1.93
5444.00,1.93
5443.00,1.93
5442.00,1.93
5441.00,1.93
5440.00,1.93
5439.00,1.92
5438.00,1.92
5437.00,1.92
5436.00,1.92
5435.00,1.92
5434.00,1.92
5433.00,1.92
5432.00,1.92
5431.00,1.92
5430.00,1.92
5429.00,1.92
5428.00,1.92
5427.00,1.92
5426.00,1.92
5425.00,1.92
5424.00,1.92
5423.00,1.92
5422.00,1.92
5421.00,1.92
5420.00,1.92
5419.00,1.92
5418.00,1.92
5417.00,1.92
5416.00,1.92
5415.00,1.92
5414.00,1.92
5413.00,1.92
5412.00,1.93
5411.00,1.93
5410.00,1.93
5409.00,1.93
5408.00,1.94
5407.00,1.94
5406.00,1.94
5405.00,1.94
5404.00,1.94
5403.00,1.94
5402.00,1.95
5401.00,1.95
5400.00,1.95
5399.00,1.95
5398.00,1.95
5397.00,1.95
5396.00,1.95
5395.00,1.95
5394.00,1.95
5393.00,1.95
5392.00,1.95
5391.00,1.95
5390.00,1.95
5389.00,1.95
5388.00,1.95
5387.00,1.95
5386.00,1.94
5385.00,1.94
5384.00,1.94
5383.00,1.93
5382.00,1.93
5381.00,1.93
5380.00,1.92
5379.00,1.92
5378.00,1.91
5377.00,1.91
5376.00,1.90
5375.00,1.90
5374.00,1.89
5373.00,1.89
5372.00,1.88
5371.00,1.88
5370.00,1.87
5369.00,1.86
5368.00,1.86
5367.00,1.85
5366.00,1.84
5365.00,1.83
5364.00,1.83
5363.00,1.82
5362.00,1.81
5361.00,1.80
5360.00,1.79
5359.00,1.79
5358.00,1.78
5357.00,1.77
5356.00,1.76
5355.00,1.75
5354.00,1.74
5353.00,1.74
5352.00,1.73
5351.00,1.72
5350.00,1.71
5349.00,1.70
5348.00,1.69
5347.00,1.68
5346.00,1.67
5345.00,1.66
5344.00,1.65
5343.00,1.64
5342.00,1.64
5341.00,1.63
5340.00,1.62
5339.00,1.61
5338.00,1.60
5337.00,1.59
5336.00,1.58
5335.00,1.57
5334.00,1.56
5333.00,1.55
5332.00,1.53
5331.00,1.52
5330.00,1.51
5329.00,1.50
5328.00,1.49
5327.00,1.48
5326.00,1.47
5325.00,1.46
5324.00,1.45
5323.00,1.43
5322.00,1.42
5321.00,1.41
5320.00,1.40
5319.00,1.38
5318.00,1.37
5317.00,1.36
5316.00,1.35
5315.00,1.33
5314.00,1.32
5313.00,1.31
5312.00,1.29
5311.00,1.28
5310.00,1.27
5309.00,1.25
5308.00,1.24
5307.00,1.23
5306.00,1.21
5305.00,1.20
5304.00,1.18
5303.00,1.17
5302.00,1.16
5301.00,1.14
5300.00,1.13
5299.00,1.12
5298.00,1.10
5297.00,1.09
5296.00,1.08
5295.00,1.07
5294.00,1.06
5293.00,1.05
5292.00,1.04
5291.00,1.03
5290.00,1.02
5289.00,1.01
5288.00,1.00
5287.00,0.99
5286.00,0.98
5285.00,0.97
5284.00,0.96
5283.00,0.96
5282.00,0.95
5281.00,0.94
5280.00,0.94
5279.00,0.93
5278.00,0.92
5277.00,0.92
5276.00,0.91
5275.00,0.91
5274.00,0.90
5273.00,0.90
5272.00,0.89
5271.00,0.89
5270.00,0.88
5269.00,0.88
5268.00,0.87
5267.00,0.87
5266.00,0.86
5265.00,0.86
5264.00,0.85
5263.00,0.85
5262.00,0.85
5261.00,0.84
5260.00,0.84
5259.00,0.83
5258.00,0.83
5257.00,0.83
5256.00,0.82
5255.00,0.82
5254.00,0.82
5253.00,0.81
5252.00,0.81
5251.00,0.81
5250.00,0.80
5249.00,0.80
5248.00,0.80
5247.00,0.80
5246.00,0.79
5245.00,0.79
5244.00,0.79
5243.00,0.79
5242.00,0.79
5241.00,0.78
5240.00,0.78
5239.00,0.78
5238.00,0.78
5237.00,0.78
5236.00,0.78
5235.00,0.77
5234.00,0.77
5233.00,0.77
5232.00,0.77
5231.00,0.77
5230.00,0.77
5229.00,0.76
5228.00,0.76
5227.00,0.76
5226.00,0.76
5225.00,0.76
5224.00,0.75
5223.00,0.75
5222.00,0.75
5221.00,0.75
5220.00,0.75
5219.00,0.75
5218.00,0.75
5217.00,0.75
5216.00,0.74
5215.00,0.74
5214.00,0.74
5213.00,0.74
5212.00,0.74
5211.00,0.74
5210.00,0.74
5209.00,0.74
5208.00,0.74
5207.00,0.74
5206.00,0.74
5205.00,0.74
5204.00,0.74
5203.00,0.75
5202.00,0.75
5201.00,0.75
5200.00,0.75
5199.00,0.75
5198.00,0.75
5197.00,0.75
5196.00,0.75
5195.00,0.75
5194.00,0.76
5193.00,0.76
5192.00,0.76
5191.00,0.76
5190.00,0.76
5189.00,0.76
5188.00,0.76
5187.00,0.76
5186.00,0.76
5185.00,0.77
5184.00,0.77
5183.00,0.77
5182.00,0.77
5181.00,0.77
5180.00,0.77
5179.00,0.77
5178.00,0.77
5177.00,0.77
5176.00,0.76
5175.00,0.76
5174.00,0.76
5173.00,0.76
5172.00,0.76
5171.00,0.76
5170.00,0.76
5169.00,0.76
5168.00,0.76
5167.00,0.76
5166.00,0.76
5165.00,0.76
5164.00,0.76
5163.00,0.76
5162.00,0.76
5161.00,0.76
5160.00,0.75
5159.00,0.75
5158.00,0.75
5157.00,0.75
5156.00,0.75
5155.00,0.75
5154.00,0.75
5153.00,0.75
5152.00,0.75
5151.00,0.75
5150.00,0.75
5149.00,0.75
5148.00,0.75
5147.00,0.75
5146.00,0.75
5145.00,0.75
5144.00,0.75
5143.00,0.75
5142.00,0.76
5141.00,0.76
5140.00,0.76
5139.00,0.76
5138.00,0.76
5137.00,0.76
5136.00,0.76
5135.00,0.76
5134.00,0.77
5133.00,0.77
5132.00,0.77
5131.00,0.77
5130.00,0.77
5129.00,0.77
5128.00,0.78
5127.00,0.78
5126.00,0.78
5125.00,0.78
5124.00,0.78
5123.00,0.79
5122.00,0.79
5121.00,0.79
5120.00,0.79
5119.00,0.79
5118.00,0.79
5117.00,0.79
5116.00,0.79
5115.00,0.80
5114.00,0.80
5113.00,0.80
5112.00,0.80
5111.00,0.80
5110.00,0.80
5109.00,0.80
5108.00,0.80
5107.00,0.81
5106.00,0.81
5105.00,0.81
5104.00,0.81
5103.00,0.81
5102.00,0.82
5101.00,0.82
5100.00,0.82
5099.00,0.82
5098.00,0.82
5097.00,0.83
5096.00,0.83
5095.00,0.83
5094.00,0.83
5093.00,0.83
5092.00,0.84
5091.00,0.84
5090.00,0.84
5089.00,0.84
5088.00,0.85
5087.00,0.85
5086.00,0.85
5085.00,0.85
5084.00,0.85
5083.00,0.86
5082.00,0.86
5081.00,0.86
5080.00,0.86
5079.00,0.86
5078.00,0.87
5077.00,0.87
5076.00,0.87
5075.00,0.87
5074.00,0.87
5073.00,0.88
5072.00,0.88
5071.00,0.88
5070.00,0.88
5069.00,0.88
5068.00,0.89
5067.00,0.89
5066.00,0.89
5065.00,0.89
5064.00,0.90
5063.00,0.90
5062.00,0.90
5061.00,0.90
5060.00,0.91
5059.00,0.91
5058.00,0.91
5057.00,0.91
5056.00,0.92
5055.00,0.92
5054.00,0.92
5053.00,0.92
5052.00,0.93
5051.00,0.93
5050.00,0.93
5049.00,0.93
5048.00,0.94
5047.00,0.94
5046.00,0.94
5045.00,0.94
5044.00,0.94
5043.00,0.95
5042.00,0.95
5041.00,0.95
5040.00,0.95
5039.00,0.95
5038.00,0.96
5037.00,0.96
5036.00,0.96
5035.00,0.96
5034.00,0.97
5033.00,0.97
5032.00,0.97
5031.00,0.97
5030.00,0.98
5029.00,0.98
5028.00,0.98
5027.00,0.99
5026.00,0.99
5025.00,0.99
5024.00,0.99
5023.00,1.00
5022.00,1.00
5021.00,1.00
5020.00,1.01
5019.00,1.01
5018.00,1.01
5017.00,1.02
5016.00,1.02
5015.00,1.02
5014.00,1.03
5013.00,1.03
5012.00,1.03
5011.00,1.04
5010.00,1.04
5009.00,1.04
5008.00,1.04
5007.00,1.05
5006.00,1.05
5005.00,1.05
5004.00,1.05
5003.00,1.05
5002.00,1.06
5001.00,1.06
5000.00,1.06
4999.00,1.06
4998.00,1.06
4997.00,1.06
4996.00,1.06
4995.00,1.06
4994.00,1.07
4993.00,1.07
4992.00,1.07
4991.00,1.07
4990.00,1.07
4989.00,1.07
4988.00,1.07
4987.00,1.07
4986.00,1.07
4985.00,1.07
4984.00,1.07
4983.00,1.07
4982.00,1.07
4981.00,1.07
4980.00,1.07
4979.00,1.07
4978.00,1.07
4977.00,1.07
4976.00,1.07
4975.00,1.07
4974.00,1.07
4973.00,1.07
4972.00,1.07
4971.00,1.07
4970.00,1.08
4969.00,1.08
4968.00,1.08
4967.00,1.08
4966.00,1.08
4965.00,1.08
4964.00,1.09
4963.00,1.09
4962.00,1.09
4961.00,1.09
4960.00,1.10
4959.00,1.10
4958.00,1.10
4957.00,1.10
4956.00,1.11
4955.00,1.11
4954.00,1.11
4953.00,1.12
4952.00,1.12
4951.00,1.12
4950.00,1.13
4949.00,1.13
4948.00,1.13
4947.00,1.14
4946.00,1.14
4945.00,1.14
4944.00,1.15
4943.00,1.15
4942.00,1.15
4941.00,1.15
4940.00,1.16
4939.00,1.16
4938.00,1.16
4937.00,1.16
4936.00,1.17
4935.00,1.17
4934.00,1.17
4933.00,1.17
4932.00,1.18
4931.00,1.18
4930.00,1.18
4929.00,1.18
4928.00,1.18
4927.00,1.19
4926.00,1.19
4925.00,1.19
4924.00,1.19
4923.00,1.19
4922.00,1.19
4921.00,1.19
4920.00,1.20
4919.00,1.20
4918.00,1.20
4917.00,1.20
4916.00,1.20
4915.00,1.20
4914.00,1.20
4913.00,1.21
4912.00,1.21
4911.00,1.21
4910.00,1.21
4909.00,1.21
4908.00,1.21
4907.00,1.21
4906.00,1.21
4905.00,1.22
4904.00,1.22
4903.00,1.22
4902.00,1.22
4901.00,1.22
4900.00,1.22
4899.00,1.22
4898.00,1.23
4897.00,1.23
4896.00,1.23
4895.00,1.23
4894.00,1.23
4893.00,1.23
4892.00,1.23
4891.00,1.23
4890.00,1.23
4889.00,1.23
4888.00,1.23
4887.00,1.23
4886.00,1.24
4885.00,1.24
4884.00,1.24
4883.00,1.24
4882.00,1.24
4881.00,1.24
4880.00,1.24
4879.00,1.24
4878.00,1.24
4877.00,1.25
4876.00,1.25
4875.00,1.25
4874.00,1.25
4873.00,1.25
4872.00,1.25
4871.00,1.25
4870.00,1.25
4869.00,1.25
4868.00,1.25
4867.00,1.26
4866.00,1.26
4865.00,1.26
4864.00,1.26
4863.00,1.26
4862.00,1.27
4861.00,1.27
4860.00,1.27
4859.00,1.27
4858.00,1.27
4857.00,1.27
4856.00,1.28
4855.00,1.28
4854.00,1.28
4853.00,1.28
4852.00,1.29
4851.00,1.29
4850.00,1.29
4849.00,1.29
4848.00,1.29
4847.00,1.30
4846.00,1.30
4845.00,1.30
4844.00,1.30
4843.00,1.30
4842.00,1.31
4841.00,1.31
4840.00,1.31
4839.00,1.31
4838.00,1.32
4837.00,1.32
4836.00,1.32
4835.00,1.32
4834.00,1.33
4833.00,1.33
4832.00,1.33
4831.00,1.34
4830.00,1.34
4829.00,1.35
4828.00,1.35
4827.00,1.35
4826.00,1.36
4825.00,1.36
4824.00,1.37
4823.00,1.37
4822.00,1.37
4821.00,1.38
4820.00,1.38
4819.00,1.39
4818.00,1.39
4817.00,1.40
4816.00,1.40
4815.00,1.40
4814.00,1.41
4813.00,1.41
4812.00,1.42
4811.00,1.42
4810.00,1.42
4809.00,1.42
4808.00,1.43
4807.00,1.43
4806.00,1.43
4805.00,1.43
4804.00,1.43
4803.00,1.43
4802.00,1.43
4801.00,1.43
4800.00,1.43
4799.00,1.43
4798.00,1.43
4797.00,1.43
4796.00,1.43
4795.00,1.43
4794.00,1.43
4793.00,1.43
4792.00,1.43
4791.00,1.43
4790.00,1.43
4789.00,1.43
4788.00,1.43
4787.00,1.43
4786.00,1.43
4785.00,1.43
4784.00,1.43
4783.00,1.43
4782.00,1.43
4781.00,1.43
4780.00,1.43
4779.00,1.44
4778.00,1.44
4777.00,1.44
4776.00,1.44
4775.00,1.45
4774.00,1.45
4773.00,1.45
4772.00,1.45
4771.00,1.46
4770.00,1.46
4769.00,1.46
4768.00,1.47
4767.00,1.47
4766.00,1.47
4765.00,1.48
4764.00,1.48
4763.00,1.48
4762.00,1.49
4761.00,1.49
4760.00,1.50
4759.00,1.50
4758.00,1.50
4757.00,1.51
4756.00,1.51
4755.00,1.51
4754.00,1.52
4753.00,1.52
4752.00,1.53
4751.00,1.53
4750.00,1.53
4749.00,1.54
4748.00,1.54
4747.00,1.54
4746.00,1.55
4745.00,1.55
4744.00,1.55
4743.00,1.56
4742.00,1.56
4741.00,1.56
4740.00,1.57
4739.00,1.57
4738.00,1.57
4737.00,1.58
4736.00,1.58
4735.00,1.58
4734.00,1.59
4733.00,1.59
4732.00,1.60
4731.00,1.60
4730.00,1.61
4729.00,1.61
4728.00,1.61
4727.00,1.62
4726.00,1.62
4725.00,1.63
4724.00,1.63
4723.00,1.63
4722.00,1.64
4721.00,1.64
4720.00,1.65
4719.00,1.65
4718.00,1.65
4717.00,1.66
4716.00,1.66
4715.00,1.67
4714.00,1.67
4713.00,1.67
4712.00,1.68
4711.00,1.68
4710.00,1.68
4709.00,1.69
4708.00,1.69
4707.00,1.69
4706.00,1.70
4705.00,1.70
4704.00,1.70
4703.00,1.70
4702.00,1.71
4701.00,1.71
4700.00,1.71
4699.00,1.72
4698.00,1.72
4697.00,1.72
4696.00,1.72
4695.00,1.73
4694.00,1.73
4693.00,1.73
4692.00,1.73
4691.00,1.74
4690.00,1.74
4689.00,1.74
4688.00,1.75
4687.00,1.75
4686.00,1.76
4685.00,1.76
4684.00,1.76
4683.00,1.77
4682.00,1.77
4681.00,1.78
4680.00,1.78
4679.00,1.78
4678.00,1.79
4677.00,1.79
4676.00,1.79
4675.00,1.80
4674.00,1.80
4673.00,1.80
4672.00,1.81
4671.00,1.81
4670.00,1.81
4669.00,1.82
4668.00,1.82
4667.00,1.82
4666.00,1.82
4665.00,1.82
4664.00,1.83
4663.00,1.83
4662.00,1.83
4661.00,1.83
4660.00,1.83
4659.00,1.83
4658.00,1.83
4657.00,1.83
4656.00,1.83
4655.00,1.83
4654.00,1.83
4653.00,1.83
4652.00,1.84
4651.00,1.84
4650.00,1.84
4649.00,1.84
4648.00,1.84
4647.00,1.84
4646.00,1.84
4645.00,1.85
4644.00,1.85
4643.00,1.85
4642.00,1.85
4641.00,1.86
4640.00,1.86
4639.00,1.86
4638.00,1.86
4637.00,1.87
4636.00,1.87
4635.00,1.87
4634.00,1.88
4633.00,1.88
4632.00,1.88
4631.00,1.88
4630.00,1.89
4629.00,1.89
4628.00,1.89
4627.00,1.89
4626.00,1.90
4625.00,1.90
4624.00,1.90
4623.00,1.90
4622.00,1.91
4621.00,1.91
4620.00,1.91
4619.00,1.91
4618.00,1.91
4617.00,1.91
4616.00,1.91
4615.00,1.91
4614.00,1.92
4613.00,1.92
4612.00,1.92
4611.00,1.92
4610.00,1.92
4609.00,1.92
4608.00,1.91
4607.00,1.91
4606.00,1.91
4605.00,1.91
4604.00,1.91
4603.00,1.91
4602.00,1.91
4601.00,1.90
4600.00,1.90
4599.00,1.90
4598.00,1.90
4597.00,1.90
4596.00,1.89
4595.00,1.89
4594.00,1.89
4593.00,1.89
4592.00,1.89
4591.00,1.89
4590.00,1.89
4589.00,1.89
4588.00,1.89
4587.00,1.89
4586.00,1.89
4585.00,1.89
4584.00,1.89
4583.00,1.89
4582.00,1.89
4581.00,1.89
4580.00,1.90
4579.00,1.90
4578.00,1.90
4577.00,1.90
4576.00,1.91
4575.00,1.91
4574.00,1.91
4573.00,1.92
4572.00,1.92
4571.00,1.92
4570.00,1.93
4569.00,1.93
4568.00,1.93
4567.00,1.93
4566.00,1.94
4565.00,1.94
4564.00,1.94
4563.00,1.94
4562.00,1.94
4561.00,1.94
4560.00,1.94
4559.00,1.94
4558.00,1.95
4557.00,1.95
4556.00,1.95
4555.00,1.95
4554.00,1.95
4553.00,1.95
4552.00,1.95
4551.00,1.94
4550.00,1.94
4549.00,1.94
4548.00,1.94
4547.00,1.94
4546.00,1.94
4545.00,1.94
4544.00,1.94
4543.00,1.94
4542.00,1.94
4541.00,1.94
4540.00,1.94
4539.00,1.94
4538.00,1.94
4537.00,1.94
4536.00,1.94
4535.00,1.94
4534.00,1.94
4533.00,1.94
4532.00,1.94
4531.00,1.94
4530.00,1.94
4529.00,1.95
4528.00,1.95
4527.00,1.95
4526.00,1.95
4525.00,1.95
4524.00,1.95
4523.00,1.95
4522.00,1.95
4521.00,1.95
4520.00,1.95
4519.00,1.95
4518.00,1.95
4517.00,1.95
4516.00,1.95
4515.00,1.95
4514.00,1.95
4513.00,1.94
4512.00,1.94
4511.00,1.94
4510.00,1.94
4509.00,1.94
4508.00,1.93
4507.00,1.93
4506.00,1.93
4505.00,1.93
4504.00,1.93
4503.00,1.93
4502.00,1.93
4501.00,1.93
4500.00,1.92
4499.00,1.92
4498.00,1.92
4497.00,1.92
4496.00,1.92
4495.00,1.92
4494.00,1.92
4493.00,1.93
4492.00,1.93
4491.00,1.93
4490.00,1.93
4489.00,1.93
4488.00,1.93
4487.00,1.93
4486.00,1.93
4485.00,1.93
4484.00,1.93
4483.00,1.93
4482.00,1.93
4481.00,1.93
4480.00,1.93
4479.00,1.93
4478.00,1.93
4477.00,1.93
4476.00,1.93
4475.00,1.93
4474.00,1.93
4473.00,1.92
4472.00,1.92
4471.00,1.92
4470.00,1.92
4469.00,1.91
4468.00,1.91
4467.00,1.91
4466.00,1.90
4465.00,1.90
4464.00,1.89
4463.00,1.89
4462.00,1.88
4461.00,1.88
4460.00,1.87
4459.00,1.86
4458.00,1.86
4457.00,1.85
4456.00,1.84
4455.00,1.84
4454.00,1.83
4453.00,1.82
4452.00,1.81
4451.00,1.80
4450.00,1.79
4449.00,1.79
4448.00,1.78
4447.00,1.76
4446.00,1.75
4445.00,1.74
4444.00,1.73
4443.00,1.72
4442.00,1.70
4441.00,1.69
4440.00,1.68
4439.00,1.67
4438.00,1.65
4437.00,1.64
4436.00,1.62
4435.00,1.61
4434.00,1.60
4433.00,1.58
4432.00,1.57
4431.00,1.56
4430.00,1.54
4429.00,1.53
4428.00,1.52
4427.00,1.51
4426.00,1.49
4425.00,1.48
4424.00,1.47
4423.00,1.46
4422.00,1.45
4421.00,1.44
4420.00,1.43
4419.00,1.42
4418.00,1.41
4417.00,1.40
4416.00,1.40
4415.00,1.39
4414.00,1.38
4413.00,1.38
4412.00,1.37
4411.00,1.37
4410.00,1.37
4409.00,1.36
4408.00,1.36
4407.00,1.36
4406.00,1.36
4405.00,1.36
4404.00,1.36
4403.00,1.36
4402.00,1.36
4401.00,1.36
4400.00,1.37
4399.00,1.37
4398.00,1.38
4397.00,1.38
4396.00,1.39
4395.00,1.39
4394.00,1.40
4393.00,1.41
4392.00,1.41
4391.00,1.42
4390.00,1.43
4389.00,1.44
4388.00,1.44
4387.00,1.45
4386.00,1.46
4385.00,1.47
4384.00,1.48
4383.00,1.49
4382.00,1.50
4381.00,1.51
4380.00,1.52
4379.00,1.52
4378.00,1.53
4377.00,1.54
4376.00,1.54
4375.00,1.55
4374.00,1.55
4373.00,1.55
4372.00,1.56
4371.00,1.56
4370.00,1.56
4369.00,1.55
4368.00,1.55
4367.00,1.55
4366.00,1.55
4365.00,1.54
4364.00,1.54
4363.00,1.53
4362.00,1.52
4361.00,1.52
4360.00,1.51
4359.00,1.50
4358.00,1.49
4357.00,1.48
4356.00,1.47
4355.00,1.46
4354.00,1.45
4353.00,1.44
4352.00,1.43
4351.00,1.42
4350.00,1.41
4349.00,1.40
4348.00,1.39
4347.00,1.39
4346.00,1.38
4345.00,1.38
4344.00,1.38
4343.00,1.37
4342.00,1.37
4341.00,1.37
4340.00,1.37
4339.00,1.38
4338.00,1.38
4337.00,1.38
4336.00,1.39
4335.00,1.39
4334.00,1.40
4333.00,1.40
4332.00,1.41
4331.00,1.42
4330.00,1.43
4329.00,1.44
4328.00,1.44
4327.00,1.45
4326.00,1.46
4325.00,1.47
4324.00,1.48
4323.00,1.49
4322.00,1.50
4321.00,1.51
4320.00,1.52
4319.00,1.53
4318.00,1.54
4317.00,1.55
4316.00,1.56
4315.00,1.57
4314.00,1.58
4313.00,1.59
4312.00,1.60
4311.00,1.61
4310.00,1.61
4309.00,1.62
4308.00,1.63
4307.00,1.64
4306.00,1.65
4305.00,1.66
4304.00,1.67
4303.00,1.67
4302.00,1.68
4301.00,1.69
4300.00,1.70
4299.00,1.71
4298.00,1.72
4297.00,1.73
4296.00,1.74
4295.00,1.75
4294.00,1.75
4293.00,1.76
4292.00,1.77
4291.00,1.77
4290.00,1.78
4289.00,1.78
4288.00,1.79
4287.00,1.79
4286.00,1.80
4285.00,1.80
4284.00,1.80
4283.00,1.80
4282.00,1.80
4281.00,1.80
4280.00,1.80
4279.00,1.80
4278.00,1.80
4277.00,1.79
4276.00,1.79
4275.00,1.78
4274.00,1.78
4273.00,1.77
4272.00,1.77
4271.00,1.76
4270.00,1.76
4269.00,1.75
4268.00,1.75
4267.00,1.74
4266.00,1.73
4265.00,1.73
4264.00,1.72
4263.00,1.71
4262.00,1.71
4261.00,1.70
4260.00,1.70
4259.00,1.70
4258.00,1.69
4257.00,1.69
4256.00,1.69
4255.00,1.69
4254.00,1.69
4253.00,1.69
4252.00,1.69
4251.00,1.69
4250.00,1.70
4249.00,1.70
4248.00,1.70
4247.00,1.70
4246.00,1.71
4245.00,1.71
4244.00,1.71
4243.00,1.71
4242.00,1.72
4241.00,1.72
4240.00,1.72
4239.00,1.73
4238.00,1.73
4237.00,1.74
4236.00,1.74
4235.00,1.75
4234.00,1.75
4233.00,1.76
4232.00,1.76
4231.00,1.77
4230.00,1.77
4229.00,1.78
4228.00,1.78
4227.00,1.78
4226.00,1.78
4225.00,1.79
4224.00,1.79
4223.00,1.79
4222.00,1.80
4221.00,1.80
4220.00,1.80
4219.00,1.81
4218.00,1.81
4217.00,1.81
4216.00,1.82
4215.00,1.82
4214.00,1.83
4213.00,1.83
4212.00,1.84
4211.00,1.84
4210.00,1.85
4209.00,1.85
4208.00,1.85
4207.00,1.86
4206.00,1.86
4205.00,1.86
4204.00,1.87
4203.00,1.87
4202.00,1.87
4201.00,1.88
4200.00,1.88
4199.00,1.89
4198.00,1.89
4197.00,1.90
4196.00,1.90
4195.00,1.90
4194.00,1.91
4193.00,1.91
4192.00,1.91
4191.00,1.92
4190.00,1.92
4189.00,1.92
4188.00,1.92
4187.00,1.92
4186.00,1.92
4185.00,1.91
4184.00,1.91
4183.00,1.91
4182.00,1.91
4181.00,1.91
4180.00,1.90
4179.00,1.90
4178.00,1.90
4177.00,1.90
4176.00,1.89
4175.00,1.89
4174.00,1.89
4173.00,1.88
4172.00,1.88
4171.00,1.87
4170.00,1.87
4169.00,1.86
4168.00,1.86
4167.00,1.85
4166.00,1.85
4165.00,1.84
4164.00,1.84
4163.00,1.84
4162.00,1.83
4161.00,1.83
4160.00,1.83
4159.00,1.83
4158.00,1.83
4157.00,1.83
4156.00,1.83
4155.00,1.82
4154.00,1.82
4153.00,1.82
4152.00,1.82
4151.00,1.82
4150.00,1.83
4149.00,1.83
4148.00,1.83
4147.00,1.83
4146.00,1.83
4145.00,1.83
4144.00,1.83
4143.00,1.84
4142.00,1.84
4141.00,1.85
4140.00,1.85
4139.00,1.85
4138.00,1.86
4137.00,1.86
4136.00,1.86
4135.00,1.87
4134.00,1.87
4133.00,1.88
4132.00,1.88
4131.00,1.89
4130.00,1.89
4129.00,1.89
4128.00,1.90
4127.00,1.90
4126.00,1.90
4125.00,1.90
4124.00,1.91
4123.00,1.91
4122.00,1.91
4121.00,1.91
4120.00,1.90
4119.00,1.90
4118.00,1.90
4117.00,1.90
4116.00,1.89
4115.00,1.89
4114.00,1.88
4113.00,1.88
4112.00,1.88
4111.00,1.87
4110.00,1.87
4109.00,1.87
4108.00,1.86
4107.00,1.86
4106.00,1.85
4105.00,1.84
4104.00,1.84
4103.00,1.83
4102.00,1.83
4101.00,1.82
4100.00,1.82
4099.00,1.82
4098.00,1.82
4097.00,1.81
4096.00,1.81
4095.00,1.81
4094.00,1.81
4093.00,1.81
4092.00,1.82
4091.00,1.82
4090.00,1.82
4089.00,1.82
4088.00,1.83
4087.00,1.83
4086.00,1.83
4085.00,1.83
4084.00,1.83
4083.00,1.83
4082.00,1.83
4081.00,1.83
4080.00,1.83
4079.00,1.83
4078.00,1.83
4077.00,1.82
4076.00,1.82
4075.00,1.82
4074.00,1.81
4073.00,1.81
4072.00,1.80
4071.00,1.79
4070.00,1.79
4069.00,1.78
4068.00,1.77
4067.00,1.77
4066.00,1.76
4065.00,1.75
4064.00,1.75
4063.00,1.74
4062.00,1.74
4061.00,1.73
4060.00,1.73
4059.00,1.73
4058.00,1.72
4057.00,1.72
4056.00,1.72
4055.00,1.72
4054.00,1.72
4053.00,1.72
4052.00,1.73
4051.00,1.73
4050.00,1.74
4049.00,1.74
4048.00,1.75
4047.00,1.76
4046.00,1.77
4045.00,1.78
4044.00,1.79
4043.00,1.80
4042.00,1.80
4041.00,1.81
4040.00,1.82
4039.00,1.83
4038.00,1.84
4037.00,1.84
4036.00,1.85
4035.00,1.86
4034.00,1.86
4033.00,1.87
4032.00,1.87
4031.00,1.87
4030.00,1.88
4029.00,1.88
4028.00,1.89
4027.00,1.89
4026.00,1.90
4025.00,1.90
4024.00,1.90
4023.00,1.90
4022.00,1.90
4021.00,1.91
4020.00,1.91
4019.00,1.91
4018.00,1.91
4017.00,1.91
4016.00,1.91
4015.00,1.91
4014.00,1.91
4013.00,1.91
4012.00,1.92
4011.00,1.92
4010.00,1.92
4009.00,1.93
4008.00,1.93
4007.00,1.94
4006.00,1.94
4005.00,1.95
4004.00,1.95
4003.00,1.95
4002.00,1.96
4001.00,1.96
4000.00,1.96
