创建为新数据集,样品 814 用户 Administrator 日期 星期一, 七月 29 2019
cm-1,%T
10000.00,1.64
9999.00,1.63
9998.00,1.61
9997.00,1.60
9996.00,1.59
9995.00,1.58
9994.00,1.57
9993.00,1.56
9992.00,1.55
9991.00,1.54
9990.00,1.54
9989.00,1.54
9988.00,1.53
9987.00,1.53
9986.00,1.53
9985.00,1.52
9984.00,1.52
9983.00,1.52
9982.00,1.52
9981.00,1.52
9980.00,1.52
9979.00,1.52
9978.00,1.52
9977.00,1.52
9976.00,1.52
9975.00,1.52
9974.00,1.52
9973.00,1.52
9972.00,1.52
9971.00,1.52
9970.00,1.51
9969.00,1.51
9968.00,1.51
9967.00,1.51
9966.00,1.51
9965.00,1.50
9964.00,1.50
9963.00,1.50
9962.00,1.50
9961.00,1.49
9960.00,1.49
9959.00,1.48
9958.00,1.48
9957.00,1.47
9956.00,1.47
9955.00,1.46
9954.00,1.45
9953.00,1.45
9952.00,1.44
9951.00,1.43
9950.00,1.43
9949.00,1.43
9948.00,1.42
9947.00,1.42
9946.00,1.42
9945.00,1.42
9944.00,1.42
9943.00,1.42
9942.00,1.42
9941.00,1.42
9940.00,1.42
9939.00,1.41
9938.00,1.41
9937.00,1.41
9936.00,1.40
9935.00,1.40
9934.00,1.39
9933.00,1.39
9932.00,1.38
9931.00,1.38
9930.00,1.37
9929.00,1.36
9928.00,1.36
9927.00,1.35
9926.00,1.35
9925.00,1.34
9924.00,1.34
9923.00,1.33
9922.00,1.33
9921.00,1.32
9920.00,1.32
9919.00,1.31
9918.00,1.31
9917.00,1.30
9916.00,1.30
9915.00,1.29
9914.00,1.29
9913.00,1.28
9912.00,1.28
9911.00,1.27
9910.00,1.27
9909.00,1.27
9908.00,1.26
9907.00,1.26
9906.00,1.26
9905.00,1.26
9904.00,1.26
9903.00,1.26
9902.00,1.26
9901.00,1.26
9900.00,1.26
9899.00,1.26
9898.00,1.27
9897.00,1.27
9896.00,1.27
9895.00,1.27
9894.00,1.28
9893.00,1.28
9892.00,1.28
9891.00,1.28
9890.00,1.29
9889.00,1.29
9888.00,1.29
9887.00,1.29
9886.00,1.30
9885.00,1.30
9884.00,1.30
9883.00,1.30
9882.00,1.31
9881.00,1.31
9880.00,1.31
9879.00,1.31
9878.00,1.31
9877.00,1.32
9876.00,1.32
9875.00,1.32
9874.00,1.32
9873.00,1.32
9872.00,1.32
9871.00,1.32
9870.00,1.33
9869.00,1.33
9868.00,1.33
9867.00,1.33
9866.00,1.33
9865.00,1.33
9864.00,1.33
9863.00,1.33
9862.00,1.33
9861.00,1.33
9860.00,1.33
9859.00,1.33
9858.00,1.33
9857.00,1.33
9856.00,1.33
9855.00,1.33
9854.00,1.34
9853.00,1.34
9852.00,1.35
9851.00,1.35
9850.00,1.36
9849.00,1.37
9848.00,1.37
9847.00,1.38
9846.00,1.39
9845.00,1.39
9844.00,1.40
9843.00,1.40
9842.00,1.41
9841.00,1.41
9840.00,1.42
9839.00,1.42
9838.00,1.43
9837.00,1.43
9836.00,1.44
9835.00,1.44
9834.00,1.44
9833.00,1.44
9832.00,1.44
9831.00,1.44
9830.00,1.44
9829.00,1.44
9828.00,1.44
9827.00,1.43
9826.00,1.43
9825.00,1.42
9824.00,1.41
9823.00,1.40
9822.00,1.39
9821.00,1.38
9820.00,1.37
9819.00,1.36
9818.00,1.35
9817.00,1.34
9816.00,1.33
9815.00,1.32
9814.00,1.31
9813.00,1.30
9812.00,1.29
9811.00,1.28
9810.00,1.27
9809.00,1.26
9808.00,1.25
9807.00,1.24
9806.00,1.24
9805.00,1.23
9804.00,1.23
9803.00,1.22
9802.00,1.22
9801.00,1.22
9800.00,1.22
9799.00,1.22
9798.00,1.22
9797.00,1.22
9796.00,1.22
9795.00,1.22
9794.00,1.22
9793.00,1.23
9792.00,1.23
9791.00,1.23
9790.00,1.23
9789.00,1.24
9788.00,1.24
9787.00,1.24
9786.00,1.25
9785.00,1.25
9784.00,1.25
9783.00,1.25
9782.00,1.25
9781.00,1.26
9780.00,1.26
9779.00,1.25
9778.00,1.25
9777.00,1.25
9776.00,1.25
9775.00,1.24
9774.00,1.23
9773.00,1.23
9772.00,1.22
9771.00,1.21
9770.00,1.21
9769.00,1.20
9768.00,1.19
9767.00,1.19
9766.00,1.18
9765.00,1.18
9764.00,1.17
9763.00,1.16
9762.00,1.16
9761.00,1.15
9760.00,1.14
9759.00,1.14
9758.00,1.13
9757.00,1.12
9756.00,1.11
9755.00,1.11
9754.00,1.10
9753.00,1.10
9752.00,1.10
9751.00,1.09
9750.00,1.09
9749.00,1.09
9748.00,1.09
9747.00,1.09
9746.00,1.10
9745.00,1.10
9744.00,1.10
9743.00,1.10
9742.00,1.10
9741.00,1.10
9740.00,1.10
9739.00,1.10
9738.00,1.10
9737.00,1.10
9736.00,1.11
9735.00,1.11
9734.00,1.12
9733.00,1.12
9732.00,1.13
9731.00,1.14
9730.00,1.15
9729.00,1.15
9728.00,1.16
9727.00,1.17
9726.00,1.17
9725.00,1.18
9724.00,1.18
9723.00,1.19
9722.00,1.19
9721.00,1.20
9720.00,1.20
9719.00,1.21
9718.00,1.22
9717.00,1.22
9716.00,1.23
9715.00,1.24
9714.00,1.24
9713.00,1.25
9712.00,1.26
9711.00,1.27
9710.00,1.27
9709.00,1.28
9708.00,1.29
9707.00,1.29
9706.00,1.30
9705.00,1.30
9704.00,1.31
9703.00,1.31
9702.00,1.31
9701.00,1.32
9700.00,1.32
9699.00,1.32
9698.00,1.33
9697.00,1.33
9696.00,1.33
9695.00,1.33
9694.00,1.33
9693.00,1.33
9692.00,1.33
9691.00,1.33
9690.00,1.33
9689.00,1.33
9688.00,1.32
9687.00,1.32
9686.00,1.32
9685.00,1.31
9684.00,1.31
9683.00,1.30
9682.00,1.29
9681.00,1.29
9680.00,1.28
9679.00,1.28
9678.00,1.27
9677.00,1.27
9676.00,1.27
9675.00,1.26
9674.00,1.26
9673.00,1.26
9672.00,1.26
9671.00,1.26
9670.00,1.26
9669.00,1.26
9668.00,1.26
9667.00,1.26
9666.00,1.26
9665.00,1.25
9664.00,1.25
9663.00,1.25
9662.00,1.25
9661.00,1.25
9660.00,1.25
9659.00,1.25
9658.00,1.25
9657.00,1.25
9656.00,1.24
9655.00,1.24
9654.00,1.24
9653.00,1.24
9652.00,1.23
9651.00,1.23
9650.00,1.22
9649.00,1.22
9648.00,1.21
9647.00,1.21
9646.00,1.20
9645.00,1.20
9644.00,1.20
9643.00,1.20
9642.00,1.20
9641.00,1.20
9640.00,1.20
9639.00,1.20
9638.00,1.20
9637.00,1.21
9636.00,1.21
9635.00,1.22
9634.00,1.23
9633.00,1.23
9632.00,1.24
9631.00,1.25
9630.00,1.26
9629.00,1.27
9628.00,1.28
9627.00,1.29
9626.00,1.31
9625.00,1.32
9624.00,1.33
9623.00,1.34
9622.00,1.35
9621.00,1.37
9620.00,1.38
9619.00,1.38
9618.00,1.39
9617.00,1.40
9616.00,1.40
9615.00,1.41
9614.00,1.41
9613.00,1.41
9612.00,1.41
9611.00,1.40
9610.00,1.40
9609.00,1.40
9608.00,1.39
9607.00,1.39
9606.00,1.38
9605.00,1.38
9604.00,1.37
9603.00,1.36
9602.00,1.36
9601.00,1.35
9600.00,1.34
9599.00,1.33
9598.00,1.32
9597.00,1.31
9596.00,1.30
9595.00,1.29
9594.00,1.28
9593.00,1.27
9592.00,1.26
9591.00,1.25
9590.00,1.25
9589.00,1.24
9588.00,1.24
9587.00,1.23
9586.00,1.23
9585.00,1.22
9584.00,1.22
9583.00,1.22
9582.00,1.21
9581.00,1.21
9580.00,1.21
9579.00,1.20
9578.00,1.20
9577.00,1.20
9576.00,1.19
9575.00,1.19
9574.00,1.19
9573.00,1.19
9572.00,1.19
9571.00,1.19
9570.00,1.19
9569.00,1.19
9568.00,1.19
9567.00,1.20
9566.00,1.20
9565.00,1.20
9564.00,1.21
9563.00,1.21
9562.00,1.21
9561.00,1.22
9560.00,1.22
9559.00,1.23
9558.00,1.23
9557.00,1.24
9556.00,1.25
9555.00,1.26
9554.00,1.26
9553.00,1.27
9552.00,1.28
9551.00,1.29
9550.00,1.30
9549.00,1.31
9548.00,1.32
9547.00,1.33
9546.00,1.34
9545.00,1.35
9544.00,1.36
9543.00,1.37
9542.00,1.37
9541.00,1.38
9540.00,1.39
9539.00,1.39
9538.00,1.39
9537.00,1.40
9536.00,1.40
9535.00,1.40
9534.00,1.40
9533.00,1.40
9532.00,1.40
9531.00,1.39
9530.00,1.39
9529.00,1.39
9528.00,1.38
9527.00,1.37
9526.00,1.37
9525.00,1.36
9524.00,1.35
9523.00,1.34
9522.00,1.33
9521.00,1.32
9520.00,1.31
9519.00,1.30
9518.00,1.29
9517.00,1.28
9516.00,1.27
9515.00,1.26
9514.00,1.25
9513.00,1.24
9512.00,1.23
9511.00,1.23
9510.00,1.22
9509.00,1.22
9508.00,1.21
9507.00,1.21
9506.00,1.21
9505.00,1.21
9504.00,1.21
9503.00,1.21
9502.00,1.21
9501.00,1.21
9500.00,1.21
9499.00,1.21
9498.00,1.21
9497.00,1.22
9496.00,1.22
9495.00,1.22
9494.00,1.23
9493.00,1.23
9492.00,1.24
9491.00,1.24
9490.00,1.25
9489.00,1.26
9488.00,1.26
9487.00,1.27
9486.00,1.28
9485.00,1.28
9484.00,1.29
9483.00,1.30
9482.00,1.30
9481.00,1.31
9480.00,1.31
9479.00,1.32
9478.00,1.32
9477.00,1.33
9476.00,1.33
9475.00,1.33
9474.00,1.34
9473.00,1.34
9472.00,1.34
9471.00,1.34
9470.00,1.35
9469.00,1.35
9468.00,1.35
9467.00,1.35
9466.00,1.34
9465.00,1.34
9464.00,1.34
9463.00,1.33
9462.00,1.33
9461.00,1.32
9460.00,1.32
9459.00,1.31
9458.00,1.30
9457.00,1.29
9456.00,1.28
9455.00,1.27
9454.00,1.26
9453.00,1.25
9452.00,1.24
9451.00,1.23
9450.00,1.22
9449.00,1.21
9448.00,1.20
9447.00,1.20
9446.00,1.19
9445.00,1.18
9444.00,1.18
9443.00,1.17
9442.00,1.17
9441.00,1.17
9440.00,1.16
9439.00,1.16
9438.00,1.16
9437.00,1.16
9436.00,1.16
9435.00,1.16
9434.00,1.16
9433.00,1.16
9432.00,1.16
9431.00,1.16
9430.00,1.16
9429.00,1.17
9428.00,1.17
9427.00,1.17
9426.00,1.18
9425.00,1.18
9424.00,1.18
9423.00,1.18
9422.00,1.18
9421.00,1.18
9420.00,1.18
9419.00,1.18
9418.00,1.18
9417.00,1.18
9416.00,1.18
9415.00,1.18
9414.00,1.18
9413.00,1.19
9412.00,1.19
9411.00,1.19
9410.00,1.19
9409.00,1.20
9408.00,1.20
9407.00,1.21
9406.00,1.21
9405.00,1.21
9404.00,1.22
9403.00,1.23
9402.00,1.23
9401.00,1.24
9400.00,1.25
9399.00,1.26
9398.00,1.26
9397.00,1.27
9396.00,1.28
9395.00,1.29
9394.00,1.30
9393.00,1.31
9392.00,1.32
9391.00,1.33
9390.00,1.34
9389.00,1.34
9388.00,1.35
9387.00,1.36
9386.00,1.36
9385.00,1.36
9384.00,1.36
9383.00,1.37
9382.00,1.37
9381.00,1.37
9380.00,1.37
9379.00,1.36
9378.00,1.36
9377.00,1.36
9376.00,1.36
9375.00,1.35
9374.00,1.35
9373.00,1.34
9372.00,1.34
9371.00,1.33
9370.00,1.32
9369.00,1.32
9368.00,1.31
9367.00,1.30
9366.00,1.30
9365.00,1.29
9364.00,1.29
9363.00,1.28
9362.00,1.28
9361.00,1.27
9360.00,1.27
9359.00,1.27
9358.00,1.26
9357.00,1.26
9356.00,1.26
9355.00,1.25
9354.00,1.25
9353.00,1.25
9352.00,1.25
9351.00,1.25
9350.00,1.24
9349.00,1.24
9348.00,1.24
9347.00,1.24
9346.00,1.24
9345.00,1.24
9344.00,1.23
9343.00,1.23
9342.00,1.23
9341.00,1.23
9340.00,1.23
9339.00,1.23
9338.00,1.23
9337.00,1.23
9336.00,1.23
9335.00,1.23
9334.00,1.23
9333.00,1.23
9332.00,1.23
9331.00,1.23
9330.00,1.23
9329.00,1.23
9328.00,1.23
9327.00,1.24
9326.00,1.24
9325.00,1.24
9324.00,1.24
9323.00,1.25
9322.00,1.25
9321.00,1.26
9320.00,1.26
9319.00,1.27
9318.00,1.27
9317.00,1.28
9316.00,1.28
9315.00,1.29
9314.00,1.29
9313.00,1.30
9312.00,1.30
9311.00,1.31
9310.00,1.31
9309.00,1.32
9308.00,1.32
9307.00,1.32
9306.00,1.33
9305.00,1.33
9304.00,1.33
9303.00,1.33
9302.00,1.34
9301.00,1.34
9300.00,1.34
9299.00,1.34
9298.00,1.34
9297.00,1.34
9296.00,1.34
9295.00,1.34
9294.00,1.34
9293.00,1.34
9292.00,1.34
9291.00,1.34
9290.00,1.34
9289.00,1.34
9288.00,1.34
9287.00,1.34
9286.00,1.33
9285.00,1.33
9284.00,1.33
9283.00,1.33
9282.00,1.33
9281.00,1.33
9280.00,1.32
9279.00,1.32
9278.00,1.32
9277.00,1.31
9276.00,1.31
9275.00,1.31
9274.00,1.31
9273.00,1.30
9272.00,1.30
9271.00,1.30
9270.00,1.29
9269.00,1.29
9268.00,1.29
9267.00,1.29
9266.00,1.29
9265.00,1.28
9264.00,1.28
9263.00,1.28
9262.00,1.28
9261.00,1.27
9260.00,1.27
9259.00,1.27
9258.00,1.27
9257.00,1.27
9256.00,1.27
9255.00,1.27
9254.00,1.27
9253.00,1.27
9252.00,1.27
9251.00,1.28
9250.00,1.28
9249.00,1.28
9248.00,1.29
9247.00,1.29
9246.00,1.29
9245.00,1.30
9244.00,1.30
9243.00,1.30
9242.00,1.31
9241.00,1.31
9240.00,1.31
9239.00,1.32
9238.00,1.32
9237.00,1.32
9236.00,1.33
9235.00,1.33
9234.00,1.33
9233.00,1.33
9232.00,1.33
9231.00,1.33
9230.00,1.33
9229.00,1.33
9228.00,1.33
9227.00,1.33
9226.00,1.33
9225.00,1.32
9224.00,1.32
9223.00,1.32
9222.00,1.32
9221.00,1.31
9220.00,1.31
9219.00,1.31
9218.00,1.31
9217.00,1.30
9216.00,1.30
9215.00,1.30
9214.00,1.29
9213.00,1.29
9212.00,1.29
9211.00,1.29
9210.00,1.28
9209.00,1.28
9208.00,1.28
9207.00,1.28
9206.00,1.27
9205.00,1.27
9204.00,1.27
9203.00,1.26
9202.00,1.26
9201.00,1.26
9200.00,1.25
9199.00,1.25
9198.00,1.25
9197.00,1.24
9196.00,1.24
9195.00,1.23
9194.00,1.23
9193.00,1.22
9192.00,1.22
9191.00,1.21
9190.00,1.21
9189.00,1.21
9188.00,1.20
9187.00,1.20
9186.00,1.20
9185.00,1.20
9184.00,1.20
9183.00,1.20
9182.00,1.20
9181.00,1.20
9180.00,1.20
9179.00,1.20
9178.00,1.21
9177.00,1.21
9176.00,1.22
9175.00,1.22
9174.00,1.23
9173.00,1.24
9172.00,1.24
9171.00,1.25
9170.00,1.26
9169.00,1.27
9168.00,1.28
9167.00,1.28
9166.00,1.29
9165.00,1.30
9164.00,1.31
9163.00,1.31
9162.00,1.32
9161.00,1.32
9160.00,1.33
9159.00,1.33
9158.00,1.34
9157.00,1.34
9156.00,1.34
9155.00,1.35
9154.00,1.35
9153.00,1.35
9152.00,1.35
9151.00,1.35
9150.00,1.35
9149.00,1.35
9148.00,1.35
9147.00,1.35
9146.00,1.34
9145.00,1.34
9144.00,1.34
9143.00,1.33
9142.00,1.33
9141.00,1.32
9140.00,1.32
9139.00,1.32
9138.00,1.31
9137.00,1.31
9136.00,1.31
9135.00,1.30
9134.00,1.30
9133.00,1.29
9132.00,1.29
9131.00,1.29
9130.00,1.28
9129.00,1.28
9128.00,1.28
9127.00,1.27
9126.00,1.27
9125.00,1.27
9124.00,1.27
9123.00,1.27
9122.00,1.27
9121.00,1.27
9120.00,1.27
9119.00,1.28
9118.00,1.28
9117.00,1.28
9116.00,1.28
9115.00,1.28
9114.00,1.29
9113.00,1.29
9112.00,1.29
9111.00,1.29
9110.00,1.29
9109.00,1.30
9108.00,1.30
9107.00,1.30
9106.00,1.30
9105.00,1.31
9104.00,1.31
9103.00,1.31
9102.00,1.31
9101.00,1.31
9100.00,1.31
9099.00,1.31
9098.00,1.31
9097.00,1.31
9096.00,1.31
9095.00,1.31
9094.00,1.30
9093.00,1.30
9092.00,1.30
9091.00,1.30
9090.00,1.30
9089.00,1.30
9088.00,1.30
9087.00,1.30
9086.00,1.30
9085.00,1.30
9084.00,1.31
9083.00,1.31
9082.00,1.31
9081.00,1.31
9080.00,1.31
9079.00,1.31
9078.00,1.32
9077.00,1.32
9076.00,1.32
9075.00,1.32
9074.00,1.32
9073.00,1.33
9072.00,1.33
9071.00,1.34
9070.00,1.34
9069.00,1.35
9068.00,1.35
9067.00,1.36
9066.00,1.36
9065.00,1.36
9064.00,1.37
9063.00,1.37
9062.00,1.37
9061.00,1.37
9060.00,1.37
9059.00,1.37
9058.00,1.37
9057.00,1.37
9056.00,1.37
9055.00,1.37
9054.00,1.37
9053.00,1.37
9052.00,1.37
9051.00,1.37
9050.00,1.37
9049.00,1.37
9048.00,1.36
9047.00,1.36
9046.00,1.36
9045.00,1.36
9044.00,1.35
9043.00,1.35
9042.00,1.35
9041.00,1.34
9040.00,1.34
9039.00,1.34
9038.00,1.33
9037.00,1.33
9036.00,1.33
9035.00,1.33
9034.00,1.33
9033.00,1.33
9032.00,1.32
9031.00,1.32
9030.00,1.33
9029.00,1.33
9028.00,1.33
9027.00,1.33
9026.00,1.33
9025.00,1.33
9024.00,1.34
9023.00,1.34
9022.00,1.34
9021.00,1.34
9020.00,1.35
9019.00,1.35
9018.00,1.35
9017.00,1.35
9016.00,1.36
9015.00,1.36
9014.00,1.36
9013.00,1.36
9012.00,1.36
9011.00,1.36
9010.00,1.36
9009.00,1.36
9008.00,1.36
9007.00,1.36
9006.00,1.36
9005.00,1.36
9004.00,1.36
9003.00,1.36
9002.00,1.35
9001.00,1.35
9000.00,1.34
8999.00,1.34
8998.00,1.33
8997.00,1.33
8996.00,1.32
8995.00,1.31
8994.00,1.31
8993.00,1.30
8992.00,1.29
8991.00,1.29
8990.00,1.28
8989.00,1.27
8988.00,1.27
8987.00,1.26
8986.00,1.26
8985.00,1.25
8984.00,1.25
8983.00,1.25
8982.00,1.24
8981.00,1.24
8980.00,1.24
8979.00,1.23
8978.00,1.23
8977.00,1.23
8976.00,1.23
8975.00,1.23
8974.00,1.23
8973.00,1.23
8972.00,1.23
8971.00,1.23
8970.00,1.23
8969.00,1.23
8968.00,1.24
8967.00,1.24
8966.00,1.24
8965.00,1.24
8964.00,1.25
8963.00,1.25
8962.00,1.26
8961.00,1.26
8960.00,1.27
8959.00,1.27
8958.00,1.28
8957.00,1.28
8956.00,1.29
8955.00,1.30
8954.00,1.31
8953.00,1.31
8952.00,1.32
8951.00,1.33
8950.00,1.34
8949.00,1.34
8948.00,1.35
8947.00,1.36
8946.00,1.37
8945.00,1.37
8944.00,1.38
8943.00,1.39
8942.00,1.40
8941.00,1.40
8940.00,1.41
8939.00,1.41
8938.00,1.42
8937.00,1.42
8936.00,1.42
8935.00,1.43
8934.00,1.43
8933.00,1.43
8932.00,1.43
8931.00,1.42
8930.00,1.42
8929.00,1.42
8928.00,1.41
8927.00,1.41
8926.00,1.40
8925.00,1.40
8924.00,1.39
8923.00,1.38
8922.00,1.37
8921.00,1.36
8920.00,1.35
8919.00,1.34
8918.00,1.33
8917.00,1.32
8916.00,1.31
8915.00,1.30
8914.00,1.29
8913.00,1.28
8912.00,1.27
8911.00,1.27
8910.00,1.26
8909.00,1.25
8908.00,1.25
8907.00,1.24
8906.00,1.24
8905.00,1.23
8904.00,1.23
8903.00,1.22
8902.00,1.22
8901.00,1.22
8900.00,1.22
8899.00,1.22
8898.00,1.22
8897.00,1.22
8896.00,1.22
8895.00,1.22
8894.00,1.22
8893.00,1.23
8892.00,1.23
8891.00,1.23
8890.00,1.24
8889.00,1.24
8888.00,1.24
8887.00,1.25
8886.00,1.25
8885.00,1.25
8884.00,1.25
8883.00,1.25
8882.00,1.25
8881.00,1.25
8880.00,1.25
8879.00,1.25
8878.00,1.25
8877.00,1.25
8876.00,1.25
8875.00,1.25
8874.00,1.25
8873.00,1.24
8872.00,1.24
8871.00,1.23
8870.00,1.23
8869.00,1.23
8868.00,1.22
8867.00,1.22
8866.00,1.21
8865.00,1.21
8864.00,1.21
8863.00,1.21
8862.00,1.20
8861.00,1.20
8860.00,1.20
8859.00,1.20
8858.00,1.19
8857.00,1.19
8856.00,1.19
8855.00,1.19
8854.00,1.19
8853.00,1.18
8852.00,1.18
8851.00,1.18
8850.00,1.18
8849.00,1.18
8848.00,1.18
8847.00,1.18
8846.00,1.18
8845.00,1.18
8844.00,1.18
8843.00,1.18
8842.00,1.18
8841.00,1.18
8840.00,1.18
8839.00,1.18
8838.00,1.18
8837.00,1.18
8836.00,1.19
8835.00,1.19
8834.00,1.19
8833.00,1.19
8832.00,1.19
8831.00,1.19
8830.00,1.19
8829.00,1.20
8828.00,1.20
8827.00,1.20
8826.00,1.21
8825.00,1.21
8824.00,1.22
8823.00,1.22
8822.00,1.23
8821.00,1.23
8820.00,1.24
8819.00,1.24
8818.00,1.25
8817.00,1.25
8816.00,1.26
8815.00,1.26
8814.00,1.27
8813.00,1.27
8812.00,1.28
8811.00,1.28
8810.00,1.29
8809.00,1.29
8808.00,1.29
8807.00,1.30
8806.00,1.30
8805.00,1.31
8804.00,1.31
8803.00,1.31
8802.00,1.31
8801.00,1.32
8800.00,1.32
8799.00,1.32
8798.00,1.32
8797.00,1.32
8796.00,1.32
8795.00,1.32
8794.00,1.32
8793.00,1.32
8792.00,1.32
8791.00,1.32
8790.00,1.32
8789.00,1.31
8788.00,1.31
8787.00,1.31
8786.00,1.31
8785.00,1.31
8784.00,1.32
8783.00,1.32
8782.00,1.32
8781.00,1.32
8780.00,1.32
8779.00,1.32
8778.00,1.32
8777.00,1.32
8776.00,1.32
8775.00,1.32
8774.00,1.33
8773.00,1.33
8772.00,1.33
8771.00,1.34
8770.00,1.34
8769.00,1.34
8768.00,1.35
8767.00,1.35
8766.00,1.36
8765.00,1.36
8764.00,1.37
8763.00,1.38
8762.00,1.38
8761.00,1.39
8760.00,1.39
8759.00,1.40
8758.00,1.40
8757.00,1.41
8756.00,1.41
8755.00,1.42
8754.00,1.42
8753.00,1.42
8752.00,1.43
8751.00,1.43
8750.00,1.43
8749.00,1.44
8748.00,1.44
8747.00,1.44
8746.00,1.44
8745.00,1.44
8744.00,1.44
8743.00,1.44
8742.00,1.44
8741.00,1.44
8740.00,1.44
8739.00,1.44
8738.00,1.44
8737.00,1.44
8736.00,1.44
8735.00,1.44
8734.00,1.43
8733.00,1.43
8732.00,1.43
8731.00,1.43
8730.00,1.43
8729.00,1.43
8728.00,1.43
8727.00,1.43
8726.00,1.43
8725.00,1.43
8724.00,1.43
8723.00,1.42
8722.00,1.42
8721.00,1.42
8720.00,1.42
8719.00,1.42
8718.00,1.42
8717.00,1.42
8716.00,1.42
8715.00,1.42
8714.00,1.42
8713.00,1.42
8712.00,1.41
8711.00,1.41
8710.00,1.41
8709.00,1.41
8708.00,1.41
8707.00,1.41
8706.00,1.41
8705.00,1.41
8704.00,1.41
8703.00,1.41
8702.00,1.41
8701.00,1.41
8700.00,1.41
8699.00,1.41
8698.00,1.42
8697.00,1.42
8696.00,1.42
8695.00,1.43
8694.00,1.43
8693.00,1.43
8692.00,1.44
8691.00,1.44
8690.00,1.44
8689.00,1.45
8688.00,1.45
8687.00,1.45
8686.00,1.46
8685.00,1.46
8684.00,1.46
8683.00,1.46
8682.00,1.46
8681.00,1.46
8680.00,1.46
8679.00,1.47
8678.00,1.47
8677.00,1.46
8676.00,1.46
8675.00,1.46
8674.00,1.46
8673.00,1.45
8672.00,1.45
8671.00,1.44
8670.00,1.44
8669.00,1.43
8668.00,1.42
8667.00,1.42
8666.00,1.41
8665.00,1.40
8664.00,1.40
8663.00,1.39
8662.00,1.38
8661.00,1.38
8660.00,1.37
8659.00,1.36
8658.00,1.36
8657.00,1.35
8656.00,1.35
8655.00,1.34
8654.00,1.33
8653.00,1.33
8652.00,1.32
8651.00,1.32
8650.00,1.31
8649.00,1.31
8648.00,1.30
8647.00,1.30
8646.00,1.29
8645.00,1.29
8644.00,1.28
8643.00,1.28
8642.00,1.27
8641.00,1.27
8640.00,1.27
8639.00,1.26
8638.00,1.26
8637.00,1.25
8636.00,1.25
8635.00,1.25
8634.00,1.25
8633.00,1.24
8632.00,1.24
8631.00,1.24
8630.00,1.24
8629.00,1.24
8628.00,1.24
8627.00,1.24
8626.00,1.24
8625.00,1.25
8624.00,1.25
8623.00,1.25
8622.00,1.25
8621.00,1.25
8620.00,1.26
8619.00,1.26
8618.00,1.26
8617.00,1.27
8616.00,1.27
8615.00,1.27
8614.00,1.27
8613.00,1.28
8612.00,1.28
8611.00,1.28
8610.00,1.28
8609.00,1.28
8608.00,1.28
8607.00,1.28
8606.00,1.28
8605.00,1.27
8604.00,1.27
8603.00,1.27
8602.00,1.27
8601.00,1.26
8600.00,1.26
8599.00,1.25
8598.00,1.25
8597.00,1.25
8596.00,1.24
8595.00,1.24
8594.00,1.24
8593.00,1.23
8592.00,1.23
8591.00,1.23
8590.00,1.23
8589.00,1.23
8588.00,1.23
8587.00,1.23
8586.00,1.23
8585.00,1.23
8584.00,1.23
8583.00,1.23
8582.00,1.24
8581.00,1.24
8580.00,1.24
8579.00,1.25
8578.00,1.25
8577.00,1.25
8576.00,1.26
8575.00,1.26
8574.00,1.27
8573.00,1.27
8572.00,1.27
8571.00,1.28
8570.00,1.28
8569.00,1.29
8568.00,1.29
8567.00,1.29
8566.00,1.30
8565.00,1.30
8564.00,1.30
8563.00,1.31
8562.00,1.31
8561.00,1.31
8560.00,1.31
8559.00,1.31
8558.00,1.31
8557.00,1.31
8556.00,1.31
8555.00,1.31
8554.00,1.32
8553.00,1.32
8552.00,1.32
8551.00,1.32
8550.00,1.32
8549.00,1.32
8548.00,1.32
8547.00,1.33
8546.00,1.33
8545.00,1.33
8544.00,1.32
8543.00,1.32
8542.00,1.32
8541.00,1.32
8540.00,1.32
8539.00,1.32
8538.00,1.31
8537.00,1.31
8536.00,1.31
8535.00,1.31
8534.00,1.31
8533.00,1.31
8532.00,1.30
8531.00,1.30
8530.00,1.30
8529.00,1.30
8528.00,1.30
8527.00,1.29
8526.00,1.29
8525.00,1.28
8524.00,1.28
8523.00,1.28
8522.00,1.27
8521.00,1.27
8520.00,1.27
8519.00,1.26
8518.00,1.26
8517.00,1.26
8516.00,1.26
8515.00,1.26
8514.00,1.26
8513.00,1.26
8512.00,1.25
8511.00,1.25
8510.00,1.25
8509.00,1.26
8508.00,1.26
8507.00,1.26
8506.00,1.26
8505.00,1.26
8504.00,1.26
8503.00,1.27
8502.00,1.27
8501.00,1.28
8500.00,1.28
8499.00,1.29
8498.00,1.29
8497.00,1.30
8496.00,1.30
8495.00,1.31
8494.00,1.32
8493.00,1.32
8492.00,1.33
8491.00,1.33
8490.00,1.34
8489.00,1.34
8488.00,1.35
8487.00,1.36
8486.00,1.36
8485.00,1.36
8484.00,1.37
8483.00,1.37
8482.00,1.38
8481.00,1.38
8480.00,1.38
8479.00,1.38
8478.00,1.39
8477.00,1.39
8476.00,1.39
8475.00,1.39
8474.00,1.39
8473.00,1.38
8472.00,1.38
8471.00,1.38
8470.00,1.38
8469.00,1.37
8468.00,1.37
8467.00,1.37
8466.00,1.36
8465.00,1.36
8464.00,1.36
8463.00,1.35
8462.00,1.35
8461.00,1.35
8460.00,1.34
8459.00,1.34
8458.00,1.34
8457.00,1.33
8456.00,1.33
8455.00,1.33
8454.00,1.32
8453.00,1.32
8452.00,1.32
8451.00,1.31
8450.00,1.31
8449.00,1.31
8448.00,1.31
8447.00,1.30
8446.00,1.30
8445.00,1.30
8444.00,1.30
8443.00,1.30
8442.00,1.30
8441.00,1.30
8440.00,1.30
8439.00,1.30
8438.00,1.30
8437.00,1.30
8436.00,1.30
8435.00,1.30
8434.00,1.30
8433.00,1.30
8432.00,1.30
8431.00,1.30
8430.00,1.30
8429.00,1.30
8428.00,1.31
8427.00,1.31
8426.00,1.31
8425.00,1.31
8424.00,1.31
8423.00,1.31
8422.00,1.32
8421.00,1.32
8420.00,1.32
8419.00,1.32
8418.00,1.33
8417.00,1.33
8416.00,1.33
8415.00,1.34
8414.00,1.34
8413.00,1.35
8412.00,1.35
8411.00,1.35
8410.00,1.36
8409.00,1.36
8408.00,1.36
8407.00,1.37
8406.00,1.37
8405.00,1.37
8404.00,1.37
8403.00,1.37
8402.00,1.37
8401.00,1.37
8400.00,1.37
8399.00,1.37
8398.00,1.37
8397.00,1.37
8396.00,1.37
8395.00,1.37
8394.00,1.37
8393.00,1.37
8392.00,1.36
8391.00,1.36
8390.00,1.36
8389.00,1.35
8388.00,1.35
8387.00,1.34
8386.00,1.34
8385.00,1.33
8384.00,1.33
8383.00,1.32
8382.00,1.32
8381.00,1.32
8380.00,1.31
8379.00,1.31
8378.00,1.31
8377.00,1.30
8376.00,1.30
8375.00,1.30
8374.00,1.30
8373.00,1.29
8372.00,1.29
8371.00,1.29
8370.00,1.29
8369.00,1.28
8368.00,1.28
8367.00,1.28
8366.00,1.28
8365.00,1.28
8364.00,1.27
8363.00,1.27
8362.00,1.27
8361.00,1.27
8360.00,1.27
8359.00,1.27
8358.00,1.28
8357.00,1.28
8356.00,1.28
8355.00,1.28
8354.00,1.28
8353.00,1.28
8352.00,1.28
8351.00,1.28
8350.00,1.28
8349.00,1.29
8348.00,1.29
8347.00,1.29
8346.00,1.29
8345.00,1.29
8344.00,1.30
8343.00,1.30
8342.00,1.30
8341.00,1.31
8340.00,1.31
8339.00,1.31
8338.00,1.32
8337.00,1.32
8336.00,1.33
8335.00,1.33
8334.00,1.33
8333.00,1.34
8332.00,1.34
8331.00,1.34
8330.00,1.34
8329.00,1.35
8328.00,1.35
8327.00,1.35
8326.00,1.36
8325.00,1.36
8324.00,1.36
8323.00,1.37
8322.00,1.37
8321.00,1.37
8320.00,1.38
8319.00,1.38
8318.00,1.38
8317.00,1.38
8316.00,1.39
8315.00,1.39
8314.00,1.39
8313.00,1.39
8312.00,1.38
8311.00,1.38
8310.00,1.38
8309.00,1.38
8308.00,1.38
8307.00,1.38
8306.00,1.38
8305.00,1.37
8304.00,1.37
8303.00,1.37
8302.00,1.37
8301.00,1.36
8300.00,1.36
8299.00,1.35
8298.00,1.35
8297.00,1.34
8296.00,1.34
8295.00,1.33
8294.00,1.32
8293.00,1.32
8292.00,1.31
8291.00,1.31
8290.00,1.30
8289.00,1.30
8288.00,1.29
8287.00,1.29
8286.00,1.29
8285.00,1.29
8284.00,1.28
8283.00,1.28
8282.00,1.28
8281.00,1.28
8280.00,1.28
8279.00,1.27
8278.00,1.27
8277.00,1.27
8276.00,1.27
8275.00,1.27
8274.00,1.27
8273.00,1.27
8272.00,1.26
8271.00,1.26
8270.00,1.27
8269.00,1.27
8268.00,1.27
8267.00,1.27
8266.00,1.27
8265.00,1.27
8264.00,1.27
8263.00,1.27
8262.00,1.28
8261.00,1.28
8260.00,1.28
8259.00,1.28
8258.00,1.28
8257.00,1.28
8256.00,1.29
8255.00,1.29
8254.00,1.29
8253.00,1.29
8252.00,1.30
8251.00,1.30
8250.00,1.30
8249.00,1.30
8248.00,1.31
8247.00,1.31
8246.00,1.31
8245.00,1.32
8244.00,1.32
8243.00,1.32
8242.00,1.32
8241.00,1.32
8240.00,1.32
8239.00,1.32
8238.00,1.32
8237.00,1.32
8236.00,1.32
8235.00,1.32
8234.00,1.32
8233.00,1.31
8232.00,1.31
8231.00,1.31
8230.00,1.31
8229.00,1.30
8228.00,1.30
8227.00,1.30
8226.00,1.29
8225.00,1.29
8224.00,1.29
8223.00,1.29
8222.00,1.28
8221.00,1.28
8220.00,1.28
8219.00,1.27
8218.00,1.27
8217.00,1.27
8216.00,1.27
8215.00,1.27
8214.00,1.27
8213.00,1.27
8212.00,1.27
8211.00,1.27
8210.00,1.27
8209.00,1.27
8208.00,1.28
8207.00,1.28
8206.00,1.28
8205.00,1.28
8204.00,1.28
8203.00,1.29
8202.00,1.29
8201.00,1.29
8200.00,1.29
8199.00,1.29
8198.00,1.29
8197.00,1.30
8196.00,1.30
8195.00,1.30
8194.00,1.30
8193.00,1.30
8192.00,1.31
8191.00,1.31
8190.00,1.31
8189.00,1.31
8188.00,1.31
8187.00,1.31
8186.00,1.31
8185.00,1.31
8184.00,1.31
8183.00,1.31
8182.00,1.31
8181.00,1.31
8180.00,1.31
8179.00,1.31
8178.00,1.31
8177.00,1.31
8176.00,1.32
8175.00,1.32
8174.00,1.32
8173.00,1.32
8172.00,1.32
8171.00,1.32
8170.00,1.32
8169.00,1.32
8168.00,1.32
8167.00,1.33
8166.00,1.33
8165.00,1.33
8164.00,1.33
8163.00,1.33
8162.00,1.33
8161.00,1.33
8160.00,1.33
8159.00,1.33
8158.00,1.33
8157.00,1.33
8156.00,1.33
8155.00,1.33
8154.00,1.33
8153.00,1.33
8152.00,1.33
8151.00,1.33
8150.00,1.34
8149.00,1.34
8148.00,1.34
8147.00,1.34
8146.00,1.34
8145.00,1.34
8144.00,1.34
8143.00,1.34
8142.00,1.34
8141.00,1.34
8140.00,1.34
8139.00,1.34
8138.00,1.34
8137.00,1.34
8136.00,1.34
8135.00,1.34
8134.00,1.34
8133.00,1.34
8132.00,1.34
8131.00,1.34
8130.00,1.34
8129.00,1.34
8128.00,1.34
8127.00,1.34
8126.00,1.34
8125.00,1.34
8124.00,1.34
8123.00,1.34
8122.00,1.34
8121.00,1.34
8120.00,1.34
8119.00,1.34
8118.00,1.34
8117.00,1.34
8116.00,1.34
8115.00,1.34
8114.00,1.34
8113.00,1.35
8112.00,1.35
8111.00,1.35
8110.00,1.36
8109.00,1.36
8108.00,1.36
8107.00,1.37
8106.00,1.37
8105.00,1.37
8104.00,1.38
8103.00,1.38
8102.00,1.38
8101.00,1.39
8100.00,1.39
8099.00,1.39
8098.00,1.39
8097.00,1.40
8096.00,1.40
8095.00,1.40
8094.00,1.40
8093.00,1.39
8092.00,1.39
8091.00,1.39
8090.00,1.39
8089.00,1.39
8088.00,1.39
8087.00,1.39
8086.00,1.39
8085.00,1.39
8084.00,1.39
8083.00,1.38
8082.00,1.38
8081.00,1.38
8080.00,1.38
8079.00,1.38
8078.00,1.38
8077.00,1.39
8076.00,1.39
8075.00,1.39
8074.00,1.39
8073.00,1.39
8072.00,1.39
8071.00,1.40
8070.00,1.40
8069.00,1.41
8068.00,1.41
8067.00,1.41
8066.00,1.42
8065.00,1.42
8064.00,1.43
8063.00,1.43
8062.00,1.43
8061.00,1.44
8060.00,1.44
8059.00,1.44
8058.00,1.45
8057.00,1.45
8056.00,1.45
8055.00,1.45
8054.00,1.45
8053.00,1.45
8052.00,1.45
8051.00,1.45
8050.00,1.45
8049.00,1.44
8048.00,1.44
8047.00,1.44
8046.00,1.43
8045.00,1.43
8044.00,1.42
8043.00,1.42
8042.00,1.41
8041.00,1.41
8040.00,1.40
8039.00,1.40
8038.00,1.39
8037.00,1.39
8036.00,1.38
8035.00,1.38
8034.00,1.37
8033.00,1.37
8032.00,1.37
8031.00,1.36
8030.00,1.36
8029.00,1.36
8028.00,1.35
8027.00,1.35
8026.00,1.35
8025.00,1.35
8024.00,1.35
8023.00,1.35
8022.00,1.35
8021.00,1.35
8020.00,1.35
8019.00,1.36
8018.00,1.36
8017.00,1.36
8016.00,1.36
8015.00,1.37
8014.00,1.37
8013.00,1.37
8012.00,1.38
8011.00,1.38
8010.00,1.38
8009.00,1.39
8008.00,1.39
8007.00,1.39
8006.00,1.40
8005.00,1.40
8004.00,1.40
8003.00,1.41
8002.00,1.41
8001.00,1.41
8000.00,1.42
7999.00,1.42
7998.00,1.42
7997.00,1.42
7996.00,1.43
7995.00,1.43
7994.00,1.43
7993.00,1.43
7992.00,1.43
7991.00,1.44
7990.00,1.44
7989.00,1.44
7988.00,1.44
7987.00,1.44
7986.00,1.44
7985.00,1.45
7984.00,1.45
7983.00,1.45
7982.00,1.45
7981.00,1.45
7980.00,1.45
7979.00,1.45
7978.00,1.46
7977.00,1.46
7976.00,1.46
7975.00,1.46
7974.00,1.46
7973.00,1.46
7972.00,1.46
7971.00,1.46
7970.00,1.46
7969.00,1.46
7968.00,1.46
7967.00,1.46
7966.00,1.45
7965.00,1.45
7964.00,1.45
7963.00,1.45
7962.00,1.45
7961.00,1.45
7960.00,1.45
7959.00,1.45
7958.00,1.44
7957.00,1.44
7956.00,1.44
7955.00,1.44
7954.00,1.44
7953.00,1.44
7952.00,1.44
7951.00,1.44
7950.00,1.44
7949.00,1.44
7948.00,1.44
7947.00,1.44
7946.00,1.43
7945.00,1.43
7944.00,1.43
7943.00,1.43
7942.00,1.43
7941.00,1.43
7940.00,1.43
7939.00,1.43
7938.00,1.43
7937.00,1.43
7936.00,1.43
7935.00,1.43
7934.00,1.43
7933.00,1.43
7932.00,1.43
7931.00,1.43
7930.00,1.43
7929.00,1.43
7928.00,1.43
7927.00,1.42
7926.00,1.42
7925.00,1.42
7924.00,1.42
7923.00,1.41
7922.00,1.41
7921.00,1.41
7920.00,1.41
7919.00,1.41
7918.00,1.41
7917.00,1.41
7916.00,1.40
7915.00,1.40
7914.00,1.40
7913.00,1.40
7912.00,1.40
7911.00,1.40
7910.00,1.40
7909.00,1.40
7908.00,1.40
7907.00,1.40
7906.00,1.40
7905.00,1.40
7904.00,1.40
7903.00,1.40
7902.00,1.41
7901.00,1.41
7900.00,1.41
7899.00,1.41
7898.00,1.42
7897.00,1.42
7896.00,1.42
7895.00,1.42
7894.00,1.43
7893.00,1.43
7892.00,1.43
7891.00,1.43
7890.00,1.43
7889.00,1.44
7888.00,1.44
7887.00,1.44
7886.00,1.44
7885.00,1.44
7884.00,1.44
7883.00,1.45
7882.00,1.45
7881.00,1.45
7880.00,1.45
7879.00,1.45
7878.00,1.45
7877.00,1.45
7876.00,1.45
7875.00,1.45
7874.00,1.45
7873.00,1.45
7872.00,1.45
7871.00,1.45
7870.00,1.45
7869.00,1.45
7868.00,1.45
7867.00,1.44
7866.00,1.44
7865.00,1.44
7864.00,1.44
7863.00,1.44
7862.00,1.44
7861.00,1.44
7860.00,1.44
7859.00,1.44
7858.00,1.43
7857.00,1.43
7856.00,1.43
7855.00,1.43
7854.00,1.43
7853.00,1.42
7852.00,1.42
7851.00,1.42
7850.00,1.42
7849.00,1.42
7848.00,1.41
7847.00,1.41
7846.00,1.41
7845.00,1.41
7844.00,1.41
7843.00,1.41
7842.00,1.40
7841.00,1.40
7840.00,1.40
7839.00,1.40
7838.00,1.40
7837.00,1.39
7836.00,1.39
7835.00,1.39
7834.00,1.39
7833.00,1.39
7832.00,1.39
7831.00,1.39
7830.00,1.39
7829.00,1.39
7828.00,1.39
7827.00,1.38
7826.00,1.38
7825.00,1.38
7824.00,1.38
7823.00,1.38
7822.00,1.38
7821.00,1.38
7820.00,1.38
7819.00,1.38
7818.00,1.38
7817.00,1.38
7816.00,1.39
7815.00,1.39
7814.00,1.39
7813.00,1.39
7812.00,1.39
7811.00,1.39
7810.00,1.40
7809.00,1.40
7808.00,1.40
7807.00,1.40
7806.00,1.40
7805.00,1.40
7804.00,1.41
7803.00,1.41
7802.00,1.41
7801.00,1.41
7800.00,1.42
7799.00,1.42
7798.00,1.42
7797.00,1.43
7796.00,1.43
7795.00,1.43
7794.00,1.44
7793.00,1.44
7792.00,1.44
7791.00,1.44
7790.00,1.44
7789.00,1.44
7788.00,1.45
7787.00,1.45
7786.00,1.45
7785.00,1.45
7784.00,1.45
7783.00,1.45
7782.00,1.45
7781.00,1.46
7780.00,1.46
7779.00,1.46
7778.00,1.46
7777.00,1.46
7776.00,1.46
7775.00,1.46
7774.00,1.46
7773.00,1.46
7772.00,1.46
7771.00,1.46
7770.00,1.47
7769.00,1.47
7768.00,1.47
7767.00,1.47
7766.00,1.47
7765.00,1.47
7764.00,1.47
7763.00,1.47
7762.00,1.47
7761.00,1.48
7760.00,1.48
7759.00,1.48
7758.00,1.48
7757.00,1.48
7756.00,1.48
7755.00,1.48
7754.00,1.48
7753.00,1.48
7752.00,1.49
7751.00,1.49
7750.00,1.49
7749.00,1.49
7748.00,1.49
7747.00,1.50
7746.00,1.50
7745.00,1.50
7744.00,1.50
7743.00,1.50
7742.00,1.50
7741.00,1.50
7740.00,1.50
7739.00,1.50
7738.00,1.50
7737.00,1.50
7736.00,1.50
7735.00,1.50
7734.00,1.50
7733.00,1.49
7732.00,1.49
7731.00,1.49
7730.00,1.49
7729.00,1.49
7728.00,1.49
7727.00,1.48
7726.00,1.48
7725.00,1.48
7724.00,1.47
7723.00,1.47
7722.00,1.47
7721.00,1.46
7720.00,1.46
7719.00,1.46
7718.00,1.45
7717.00,1.45
7716.00,1.45
7715.00,1.45
7714.00,1.44
7713.00,1.44
7712.00,1.44
7711.00,1.44
7710.00,1.44
7709.00,1.44
7708.00,1.45
7707.00,1.45
7706.00,1.45
7705.00,1.45
7704.00,1.45
7703.00,1.46
7702.00,1.46
7701.00,1.46
7700.00,1.46
7699.00,1.47
7698.00,1.47
7697.00,1.47
7696.00,1.48
7695.00,1.48
7694.00,1.49
7693.00,1.49
7692.00,1.49
7691.00,1.50
7690.00,1.50
7689.00,1.50
7688.00,1.50
7687.00,1.51
7686.00,1.51
7685.00,1.51
7684.00,1.51
7683.00,1.51
7682.00,1.51
7681.00,1.51
7680.00,1.51
7679.00,1.51
7678.00,1.51
7677.00,1.51
7676.00,1.51
7675.00,1.51
7674.00,1.50
7673.00,1.50
7672.00,1.50
7671.00,1.50
7670.00,1.50
7669.00,1.49
7668.00,1.49
7667.00,1.49
7666.00,1.49
7665.00,1.49
7664.00,1.48
7663.00,1.48
7662.00,1.48
7661.00,1.48
7660.00,1.47
7659.00,1.47
7658.00,1.47
7657.00,1.47
7656.00,1.47
7655.00,1.47
7654.00,1.46
7653.00,1.46
7652.00,1.46
7651.00,1.46
7650.00,1.46
7649.00,1.46
7648.00,1.46
7647.00,1.46
7646.00,1.46
7645.00,1.46
7644.00,1.46
7643.00,1.46
7642.00,1.46
7641.00,1.46
7640.00,1.46
7639.00,1.46
7638.00,1.46
7637.00,1.46
7636.00,1.47
7635.00,1.47
7634.00,1.47
7633.00,1.47
7632.00,1.47
7631.00,1.47
7630.00,1.47
7629.00,1.47
7628.00,1.47
7627.00,1.47
7626.00,1.47
7625.00,1.47
7624.00,1.48
7623.00,1.48
7622.00,1.48
7621.00,1.48
7620.00,1.48
7619.00,1.48
7618.00,1.48
7617.00,1.48
7616.00,1.48
7615.00,1.48
7614.00,1.48
7613.00,1.48
7612.00,1.48
7611.00,1.48
7610.00,1.48
7609.00,1.48
7608.00,1.48
7607.00,1.48
7606.00,1.48
7605.00,1.48
7604.00,1.47
7603.00,1.47
7602.00,1.47
7601.00,1.47
7600.00,1.47
7599.00,1.47
7598.00,1.46
7597.00,1.46
7596.00,1.46
7595.00,1.45
7594.00,1.45
7593.00,1.45
7592.00,1.44
7591.00,1.44
7590.00,1.44
7589.00,1.44
7588.00,1.44
7587.00,1.43
7586.00,1.43
7585.00,1.43
7584.00,1.43
7583.00,1.43
7582.00,1.43
7581.00,1.43
7580.00,1.43
7579.00,1.43
7578.00,1.43
7577.00,1.44
7576.00,1.44
7575.00,1.44
7574.00,1.44
7573.00,1.44
7572.00,1.44
7571.00,1.45
7570.00,1.45
7569.00,1.45
7568.00,1.45
7567.00,1.46
7566.00,1.46
7565.00,1.46
7564.00,1.46
7563.00,1.47
7562.00,1.47
7561.00,1.47
7560.00,1.47
7559.00,1.47
7558.00,1.47
7557.00,1.47
7556.00,1.47
7555.00,1.48
7554.00,1.48
7553.00,1.48
7552.00,1.48
7551.00,1.48
7550.00,1.47
7549.00,1.47
7548.00,1.47
7547.00,1.47
7546.00,1.47
7545.00,1.47
7544.00,1.47
7543.00,1.47
7542.00,1.47
7541.00,1.47
7540.00,1.47
7539.00,1.47
7538.00,1.47
7537.00,1.47
7536.00,1.47
7535.00,1.46
7534.00,1.46
7533.00,1.46
7532.00,1.46
7531.00,1.46
7530.00,1.46
7529.00,1.46
7528.00,1.46
7527.00,1.45
7526.00,1.45
7525.00,1.45
7524.00,1.45
7523.00,1.45
7522.00,1.45
7521.00,1.45
7520.00,1.45
7519.00,1.45
7518.00,1.45
7517.00,1.45
7516.00,1.45
7515.00,1.44
7514.00,1.44
7513.00,1.44
7512.00,1.44
7511.00,1.44
7510.00,1.44
7509.00,1.44
7508.00,1.44
7507.00,1.44
7506.00,1.44
7505.00,1.44
7504.00,1.44
7503.00,1.44
7502.00,1.44
7501.00,1.44
7500.00,1.44
7499.00,1.44
7498.00,1.44
7497.00,1.44
7496.00,1.45
7495.00,1.45
7494.00,1.45
7493.00,1.45
7492.00,1.44
7491.00,1.44
7490.00,1.44
7489.00,1.44
7488.00,1.44
7487.00,1.44
7486.00,1.44
7485.00,1.44
7484.00,1.44
7483.00,1.44
7482.00,1.45
7481.00,1.45
7480.00,1.45
7479.00,1.45
7478.00,1.45
7477.00,1.46
7476.00,1.46
7475.00,1.46
7474.00,1.46
7473.00,1.46
7472.00,1.47
7471.00,1.47
7470.00,1.47
7469.00,1.47
7468.00,1.47
7467.00,1.48
7466.00,1.48
7465.00,1.48
7464.00,1.48
7463.00,1.48
7462.00,1.49
7461.00,1.49
7460.00,1.49
7459.00,1.49
7458.00,1.49
7457.00,1.49
7456.00,1.49
7455.00,1.49
7454.00,1.49
7453.00,1.49
7452.00,1.49
7451.00,1.48
7450.00,1.48
7449.00,1.48
7448.00,1.48
7447.00,1.48
7446.00,1.48
7445.00,1.48
7444.00,1.48
7443.00,1.48
7442.00,1.48
7441.00,1.48
7440.00,1.48
7439.00,1.48
7438.00,1.47
7437.00,1.47
7436.00,1.47
7435.00,1.47
7434.00,1.47
7433.00,1.47
7432.00,1.47
7431.00,1.47
7430.00,1.47
7429.00,1.47
7428.00,1.47
7427.00,1.47
7426.00,1.48
7425.00,1.48
7424.00,1.48
7423.00,1.48
7422.00,1.48
7421.00,1.48
7420.00,1.48
7419.00,1.47
7418.00,1.47
7417.00,1.47
7416.00,1.47
7415.00,1.47
7414.00,1.47
7413.00,1.47
7412.00,1.47
7411.00,1.47
7410.00,1.47
7409.00,1.47
7408.00,1.47
7407.00,1.47
7406.00,1.46
7405.00,1.46
7404.00,1.46
7403.00,1.46
7402.00,1.46
7401.00,1.46
7400.00,1.46
7399.00,1.46
7398.00,1.46
7397.00,1.46
7396.00,1.46
7395.00,1.46
7394.00,1.46
7393.00,1.46
7392.00,1.46
7391.00,1.46
7390.00,1.46
7389.00,1.46
7388.00,1.47
7387.00,1.47
7386.00,1.47
7385.00,1.47
7384.00,1.47
7383.00,1.47
7382.00,1.47
7381.00,1.47
7380.00,1.47
7379.00,1.47
7378.00,1.47
7377.00,1.46
7376.00,1.46
7375.00,1.46
7374.00,1.46
7373.00,1.46
7372.00,1.46
7371.00,1.46
7370.00,1.46
7369.00,1.46
7368.00,1.46
7367.00,1.46
7366.00,1.46
7365.00,1.46
7364.00,1.45
7363.00,1.45
7362.00,1.45
7361.00,1.45
7360.00,1.45
7359.00,1.45
7358.00,1.45
7357.00,1.45
7356.00,1.45
7355.00,1.46
7354.00,1.46
7353.00,1.46
7352.00,1.46
7351.00,1.46
7350.00,1.46
7349.00,1.46
7348.00,1.46
7347.00,1.46
7346.00,1.46
7345.00,1.46
7344.00,1.46
7343.00,1.46
7342.00,1.47
7341.00,1.47
7340.00,1.47
7339.00,1.47
7338.00,1.47
7337.00,1.47
7336.00,1.47
7335.00,1.46
7334.00,1.46
7333.00,1.46
7332.00,1.46
7331.00,1.45
7330.00,1.45
7329.00,1.44
7328.00,1.44
7327.00,1.44
7326.00,1.43
7325.00,1.43
7324.00,1.43
7323.00,1.43
7322.00,1.42
7321.00,1.42
7320.00,1.42
7319.00,1.42
7318.00,1.42
7317.00,1.41
7316.00,1.41
7315.00,1.41
7314.00,1.41
7313.00,1.41
7312.00,1.40
7311.00,1.40
7310.00,1.40
7309.00,1.40
7308.00,1.40
7307.00,1.40
7306.00,1.40
7305.00,1.40
7304.00,1.40
7303.00,1.41
7302.00,1.41
7301.00,1.41
7300.00,1.41
7299.00,1.41
7298.00,1.41
7297.00,1.41
7296.00,1.41
7295.00,1.42
7294.00,1.42
7293.00,1.42
7292.00,1.42
7291.00,1.42
7290.00,1.42
7289.00,1.42
7288.00,1.42
7287.00,1.43
7286.00,1.43
7285.00,1.43
7284.00,1.43
7283.00,1.43
7282.00,1.43
7281.00,1.43
7280.00,1.43
7279.00,1.43
7278.00,1.43
7277.00,1.43
7276.00,1.42
7275.00,1.42
7274.00,1.42
7273.00,1.42
7272.00,1.42
7271.00,1.42
7270.00,1.41
7269.00,1.41
7268.00,1.40
7267.00,1.40
7266.00,1.40
7265.00,1.39
7264.00,1.39
7263.00,1.38
7262.00,1.38
7261.00,1.38
7260.00,1.38
7259.00,1.37
7258.00,1.37
7257.00,1.37
7256.00,1.36
7255.00,1.36
7254.00,1.36
7253.00,1.35
7252.00,1.35
7251.00,1.35
7250.00,1.34
7249.00,1.34
7248.00,1.34
7247.00,1.34
7246.00,1.33
7245.00,1.33
7244.00,1.33
7243.00,1.33
7242.00,1.33
7241.00,1.33
7240.00,1.32
7239.00,1.32
7238.00,1.32
7237.00,1.32
7236.00,1.32
7235.00,1.32
7234.00,1.32
7233.00,1.32
7232.00,1.32
7231.00,1.31
7230.00,1.31
7229.00,1.31
7228.00,1.31
7227.00,1.31
7226.00,1.31
7225.00,1.31
7224.00,1.31
7223.00,1.31
7222.00,1.31
7221.00,1.31
7220.00,1.31
7219.00,1.31
7218.00,1.31
7217.00,1.31
7216.00,1.30
7215.00,1.30
7214.00,1.30
7213.00,1.30
7212.00,1.30
7211.00,1.30
7210.00,1.30
7209.00,1.29
7208.00,1.29
7207.00,1.29
7206.00,1.29
7205.00,1.28
7204.00,1.28
7203.00,1.28
7202.00,1.28
7201.00,1.27
7200.00,1.27
7199.00,1.27
7198.00,1.26
7197.00,1.26
7196.00,1.26
7195.00,1.25
7194.00,1.25
7193.00,1.25
7192.00,1.25
7191.00,1.24
7190.00,1.24
7189.00,1.24
7188.00,1.23
7187.00,1.23
7186.00,1.23
7185.00,1.23
7184.00,1.23
7183.00,1.23
7182.00,1.22
7181.00,1.22
7180.00,1.22
7179.00,1.22
7178.00,1.22
7177.00,1.22
7176.00,1.22
7175.00,1.22
7174.00,1.22
7173.00,1.22
7172.00,1.22
7171.00,1.23
7170.00,1.23
7169.00,1.23
7168.00,1.23
7167.00,1.23
7166.00,1.23
7165.00,1.23
7164.00,1.23
7163.00,1.23
7162.00,1.23
7161.00,1.23
7160.00,1.23
7159.00,1.23
7158.00,1.23
7157.00,1.23
7156.00,1.23
7155.00,1.23
7154.00,1.22
7153.00,1.22
7152.00,1.22
7151.00,1.22
7150.00,1.21
7149.00,1.21
7148.00,1.21
7147.00,1.21
7146.00,1.20
7145.00,1.20
7144.00,1.19
7143.00,1.19
7142.00,1.19
7141.00,1.18
7140.00,1.18
7139.00,1.17
7138.00,1.17
7137.00,1.16
7136.00,1.16
7135.00,1.15
7134.00,1.15
7133.00,1.14
7132.00,1.14
7131.00,1.13
7130.00,1.12
7129.00,1.12
7128.00,1.11
7127.00,1.11
7126.00,1.10
7125.00,1.09
7124.00,1.09
7123.00,1.08
7122.00,1.08
7121.00,1.07
7120.00,1.06
7119.00,1.06
7118.00,1.05
7117.00,1.05
7116.00,1.04
7115.00,1.04
7114.00,1.03
7113.00,1.03
7112.00,1.02
7111.00,1.02
7110.00,1.02
7109.00,1.01
7108.00,1.01
7107.00,1.01
7106.00,1.01
7105.00,1.00
7104.00,1.00
7103.00,1.00
7102.00,1.00
7101.00,1.00
7100.00,1.00
7099.00,1.00
7098.00,1.00
7097.00,1.01
7096.00,1.01
7095.00,1.01
7094.00,1.01
7093.00,1.01
7092.00,1.01
7091.00,1.01
7090.00,1.01
7089.00,1.01
7088.00,1.02
7087.00,1.02
7086.00,1.02
7085.00,1.02
7084.00,1.02
7083.00,1.02
7082.00,1.02
7081.00,1.01
7080.00,1.01
7079.00,1.01
7078.00,1.01
7077.00,1.01
7076.00,1.01
7075.00,1.00
7074.00,1.00
7073.00,1.00
7072.00,0.99
7071.00,0.99
7070.00,0.99
7069.00,0.99
7068.00,0.98
7067.00,0.98
7066.00,0.98
7065.00,0.97
7064.00,0.97
7063.00,0.97
7062.00,0.96
7061.00,0.96
7060.00,0.96
7059.00,0.96
7058.00,0.95
7057.00,0.95
7056.00,0.95
7055.00,0.95
7054.00,0.95
7053.00,0.95
7052.00,0.95
7051.00,0.95
7050.00,0.95
7049.00,0.95
7048.00,0.94
7047.00,0.94
7046.00,0.94
7045.00,0.94
7044.00,0.95
7043.00,0.95
7042.00,0.95
7041.00,0.95
7040.00,0.95
7039.00,0.95
7038.00,0.95
7037.00,0.95
7036.00,0.95
7035.00,0.95
7034.00,0.95
7033.00,0.95
7032.00,0.95
7031.00,0.95
7030.00,0.95
7029.00,0.95
7028.00,0.95
7027.00,0.95
7026.00,0.95
7025.00,0.95
7024.00,0.95
7023.00,0.94
7022.00,0.94
7021.00,0.94
7020.00,0.94
7019.00,0.94
7018.00,0.94
7017.00,0.93
7016.00,0.93
7015.00,0.93
7014.00,0.93
7013.00,0.93
7012.00,0.92
7011.00,0.92
7010.00,0.92
7009.00,0.92
7008.00,0.91
7007.00,0.91
7006.00,0.91
7005.00,0.91
7004.00,0.90
7003.00,0.90
7002.00,0.90
7001.00,0.90
7000.00,0.90
6999.00,0.90
6998.00,0.90
6997.00,0.90
6996.00,0.90
6995.00,0.90
6994.00,0.90
6993.00,0.89
6992.00,0.89
6991.00,0.89
6990.00,0.89
6989.00,0.89
6988.00,0.89
6987.00,0.89
6986.00,0.89
6985.00,0.89
6984.00,0.89
6983.00,0.89
6982.00,0.89
6981.00,0.89
6980.00,0.89
6979.00,0.89
6978.00,0.89
6977.00,0.89
6976.00,0.89
6975.00,0.89
6974.00,0.89
6973.00,0.89
6972.00,0.89
6971.00,0.89
6970.00,0.89
6969.00,0.89
6968.00,0.89
6967.00,0.89
6966.00,0.89
6965.00,0.89
6964.00,0.89
6963.00,0.88
6962.00,0.88
6961.00,0.88
6960.00,0.88
6959.00,0.88
6958.00,0.88
6957.00,0.88
6956.00,0.88
6955.00,0.87
6954.00,0.87
6953.00,0.87
6952.00,0.87
6951.00,0.87
6950.00,0.87
6949.00,0.87
6948.00,0.86
6947.00,0.86
6946.00,0.86
6945.00,0.86
6944.00,0.86
6943.00,0.86
6942.00,0.86
6941.00,0.86
6940.00,0.86
6939.00,0.86
6938.00,0.86
6937.00,0.86
6936.00,0.86
6935.00,0.86
6934.00,0.86
6933.00,0.86
6932.00,0.86
6931.00,0.86
6930.00,0.86
6929.00,0.86
6928.00,0.87
6927.00,0.87
6926.00,0.87
6925.00,0.87
6924.00,0.87
6923.00,0.87
6922.00,0.88
6921.00,0.88
6920.00,0.88
6919.00,0.88
6918.00,0.88
6917.00,0.88
6916.00,0.88
6915.00,0.89
6914.00,0.89
6913.00,0.89
6912.00,0.89
6911.00,0.89
6910.00,0.89
6909.00,0.89
6908.00,0.89
6907.00,0.89
6906.00,0.89
6905.00,0.88
6904.00,0.88
6903.00,0.88
6902.00,0.88
6901.00,0.88
6900.00,0.88
6899.00,0.88
6898.00,0.88
6897.00,0.88
6896.00,0.88
6895.00,0.88
6894.00,0.87
6893.00,0.87
6892.00,0.87
6891.00,0.87
6890.00,0.87
6889.00,0.87
6888.00,0.87
6887.00,0.86
6886.00,0.86
6885.00,0.86
6884.00,0.86
6883.00,0.86
6882.00,0.86
6881.00,0.86
6880.00,0.86
6879.00,0.86
6878.00,0.85
6877.00,0.85
6876.00,0.85
6875.00,0.85
6874.00,0.85
6873.00,0.85
6872.00,0.85
6871.00,0.85
6870.00,0.85
6869.00,0.85
6868.00,0.85
6867.00,0.85
6866.00,0.85
6865.00,0.85
6864.00,0.85
6863.00,0.85
6862.00,0.85
6861.00,0.85
6860.00,0.85
6859.00,0.85
6858.00,0.85
6857.00,0.85
6856.00,0.85
6855.00,0.85
6854.00,0.85
6853.00,0.85
6852.00,0.85
6851.00,0.85
6850.00,0.85
6849.00,0.85
6848.00,0.85
6847.00,0.85
6846.00,0.85
6845.00,0.85
6844.00,0.85
6843.00,0.85
6842.00,0.85
6841.00,0.84
6840.00,0.84
6839.00,0.84
6838.00,0.84
6837.00,0.84
6836.00,0.84
6835.00,0.84
6834.00,0.84
6833.00,0.85
6832.00,0.85
6831.00,0.85
6830.00,0.85
6829.00,0.85
6828.00,0.85
6827.00,0.85
6826.00,0.85
6825.00,0.85
6824.00,0.86
6823.00,0.86
6822.00,0.86
6821.00,0.86
6820.00,0.86
6819.00,0.86
6818.00,0.86
6817.00,0.87
6816.00,0.87
6815.00,0.87
6814.00,0.87
6813.00,0.87
6812.00,0.87
6811.00,0.87
6810.00,0.88
6809.00,0.88
6808.00,0.88
6807.00,0.88
6806.00,0.88
6805.00,0.88
6804.00,0.88
6803.00,0.88
6802.00,0.88
6801.00,0.88
6800.00,0.88
6799.00,0.88
6798.00,0.89
6797.00,0.89
6796.00,0.89
6795.00,0.89
6794.00,0.89
6793.00,0.89
6792.00,0.89
6791.00,0.89
6790.00,0.90
6789.00,0.90
6788.00,0.90
6787.00,0.90
6786.00,0.90
6785.00,0.90
6784.00,0.91
6783.00,0.91
6782.00,0.91
6781.00,0.91
6780.00,0.91
6779.00,0.91
6778.00,0.92
6777.00,0.92
6776.00,0.92
6775.00,0.92
6774.00,0.92
6773.00,0.92
6772.00,0.93
6771.00,0.93
6770.00,0.93
6769.00,0.93
6768.00,0.93
6767.00,0.93
6766.00,0.93
6765.00,0.93
6764.00,0.93
6763.00,0.93
6762.00,0.94
6761.00,0.94
6760.00,0.94
6759.00,0.94
6758.00,0.94
6757.00,0.94
6756.00,0.94
6755.00,0.94
6754.00,0.94
6753.00,0.94
6752.00,0.94
6751.00,0.94
6750.00,0.94
6749.00,0.94
6748.00,0.94
6747.00,0.94
6746.00,0.94
6745.00,0.94
6744.00,0.94
6743.00,0.94
6742.00,0.94
6741.00,0.94
6740.00,0.94
6739.00,0.94
6738.00,0.94
6737.00,0.94
6736.00,0.94
6735.00,0.94
6734.00,0.94
6733.00,0.94
6732.00,0.94
6731.00,0.94
6730.00,0.95
6729.00,0.95
6728.00,0.95
6727.00,0.95
6726.00,0.95
6725.00,0.95
6724.00,0.95
6723.00,0.95
6722.00,0.95
6721.00,0.95
6720.00,0.95
6719.00,0.96
6718.00,0.96
6717.00,0.96
6716.00,0.96
6715.00,0.96
6714.00,0.96
6713.00,0.96
6712.00,0.96
6711.00,0.96
6710.00,0.96
6709.00,0.96
6708.00,0.96
6707.00,0.96
6706.00,0.96
6705.00,0.96
6704.00,0.97
6703.00,0.97
6702.00,0.97
6701.00,0.97
6700.00,0.97
6699.00,0.97
6698.00,0.97
6697.00,0.97
6696.00,0.97
6695.00,0.97
6694.00,0.98
6693.00,0.98
6692.00,0.98
6691.00,0.98
6690.00,0.98
6689.00,0.98
6688.00,0.98
6687.00,0.98
6686.00,0.98
6685.00,0.98
6684.00,0.98
6683.00,0.98
6682.00,0.98
6681.00,0.99
6680.00,0.99
6679.00,0.99
6678.00,0.99
6677.00,0.99
6676.00,0.99
6675.00,0.99
6674.00,0.99
6673.00,0.99
6672.00,0.99
6671.00,0.99
6670.00,0.99
6669.00,0.99
6668.00,0.99
6667.00,0.99
6666.00,0.99
6665.00,0.99
6664.00,0.99
6663.00,0.99
6662.00,0.99
6661.00,0.99
6660.00,1.00
6659.00,1.00
6658.00,1.00
6657.00,1.00
6656.00,1.00
6655.00,1.00
6654.00,1.00
6653.00,1.00
6652.00,1.01
6651.00,1.01
6650.00,1.01
6649.00,1.01
6648.00,1.01
6647.00,1.02
6646.00,1.02
6645.00,1.02
6644.00,1.02
6643.00,1.03
6642.00,1.03
6641.00,1.03
6640.00,1.03
6639.00,1.04
6638.00,1.04
6637.00,1.04
6636.00,1.04
6635.00,1.04
6634.00,1.04
6633.00,1.05
6632.00,1.05
6631.00,1.05
6630.00,1.05
6629.00,1.05
6628.00,1.05
6627.00,1.05
6626.00,1.06
6625.00,1.06
6624.00,1.06
6623.00,1.06
6622.00,1.06
6621.00,1.06
6620.00,1.06
6619.00,1.06
6618.00,1.06
6617.00,1.06
6616.00,1.06
6615.00,1.06
6614.00,1.07
6613.00,1.07
6612.00,1.07
6611.00,1.07
6610.00,1.07
6609.00,1.08
6608.00,1.08
6607.00,1.08
6606.00,1.08
6605.00,1.08
6604.00,1.09
6603.00,1.09
6602.00,1.09
6601.00,1.09
6600.00,1.10
6599.00,1.10
6598.00,1.10
6597.00,1.10
6596.00,1.11
6595.00,1.11
6594.00,1.11
6593.00,1.11
6592.00,1.11
6591.00,1.11
6590.00,1.12
6589.00,1.12
6588.00,1.12
6587.00,1.12
6586.00,1.12
6585.00,1.12
6584.00,1.11
6583.00,1.11
6582.00,1.11
6581.00,1.11
6580.00,1.11
6579.00,1.11
6578.00,1.11
6577.00,1.11
6576.00,1.11
6575.00,1.11
6574.00,1.11
6573.00,1.11
6572.00,1.10
6571.00,1.10
6570.00,1.10
6569.00,1.10
6568.00,1.10
6567.00,1.10
6566.00,1.10
6565.00,1.10
6564.00,1.10
6563.00,1.10
6562.00,1.10
6561.00,1.10
6560.00,1.10
6559.00,1.10
6558.00,1.10
6557.00,1.10
6556.00,1.10
6555.00,1.10
6554.00,1.10
6553.00,1.10
6552.00,1.10
6551.00,1.10
6550.00,1.10
6549.00,1.10
6548.00,1.10
6547.00,1.10
6546.00,1.10
6545.00,1.11
6544.00,1.11
6543.00,1.11
6542.00,1.11
6541.00,1.11
6540.00,1.11
6539.00,1.11
6538.00,1.11
6537.00,1.11
6536.00,1.11
6535.00,1.12
6534.00,1.12
6533.00,1.12
6532.00,1.12
6531.00,1.12
6530.00,1.12
6529.00,1.12
6528.00,1.13
6527.00,1.13
6526.00,1.13
6525.00,1.13
6524.00,1.13
6523.00,1.13
6522.00,1.14
6521.00,1.14
6520.00,1.14
6519.00,1.14
6518.00,1.14
6517.00,1.14
6516.00,1.15
6515.00,1.15
6514.00,1.15
6513.00,1.15
6512.00,1.15
6511.00,1.16
6510.00,1.16
6509.00,1.16
6508.00,1.16
6507.00,1.16
6506.00,1.16
6505.00,1.16
6504.00,1.16
6503.00,1.16
6502.00,1.17
6501.00,1.17
6500.00,1.17
6499.00,1.17
6498.00,1.17
6497.00,1.17
6496.00,1.17
6495.00,1.17
6494.00,1.17
6493.00,1.17
6492.00,1.17
6491.00,1.17
6490.00,1.17
6489.00,1.17
6488.00,1.18
6487.00,1.18
6486.00,1.18
6485.00,1.18
6484.00,1.18
6483.00,1.18
6482.00,1.18
6481.00,1.18
6480.00,1.18
6479.00,1.18
6478.00,1.18
6477.00,1.18
6476.00,1.19
6475.00,1.19
6474.00,1.19
6473.00,1.19
6472.00,1.19
6471.00,1.19
6470.00,1.20
6469.00,1.20
6468.00,1.20
6467.00,1.20
6466.00,1.20
6465.00,1.21
6464.00,1.21
6463.00,1.21
6462.00,1.21
6461.00,1.21
6460.00,1.21
6459.00,1.22
6458.00,1.22
6457.00,1.22
6456.00,1.22
6455.00,1.22
6454.00,1.23
6453.00,1.23
6452.00,1.23
6451.00,1.23
6450.00,1.23
6449.00,1.23
6448.00,1.24
6447.00,1.24
6446.00,1.24
6445.00,1.24
6444.00,1.24
6443.00,1.24
6442.00,1.24
6441.00,1.24
6440.00,1.24
6439.00,1.24
6438.00,1.24
6437.00,1.24
6436.00,1.24
6435.00,1.24
6434.00,1.24
6433.00,1.24
6432.00,1.24
6431.00,1.24
6430.00,1.23
6429.00,1.23
6428.00,1.23
6427.00,1.23
6426.00,1.23
6425.00,1.23
6424.00,1.23
6423.00,1.22
6422.00,1.22
6421.00,1.22
6420.00,1.22
6419.00,1.22
6418.00,1.22
6417.00,1.22
6416.00,1.21
6415.00,1.21
6414.00,1.21
6413.00,1.21
6412.00,1.21
6411.00,1.21
6410.00,1.21
6409.00,1.21
6408.00,1.21
6407.00,1.21
6406.00,1.21
6405.00,1.21
6404.00,1.21
6403.00,1.21
6402.00,1.21
6401.00,1.21
6400.00,1.21
6399.00,1.21
6398.00,1.21
6397.00,1.22
6396.00,1.22
6395.00,1.22
6394.00,1.22
6393.00,1.22
6392.00,1.22
6391.00,1.23
6390.00,1.23
6389.00,1.23
6388.00,1.23
6387.00,1.23
6386.00,1.23
6385.00,1.23
6384.00,1.24
6383.00,1.24
6382.00,1.24
6381.00,1.24
6380.00,1.24
6379.00,1.24
6378.00,1.25
6377.00,1.25
6376.00,1.25
6375.00,1.25
6374.00,1.25
6373.00,1.25
6372.00,1.26
6371.00,1.26
6370.00,1.26
6369.00,1.26
6368.00,1.26
6367.00,1.26
6366.00,1.26
6365.00,1.26
6364.00,1.26
6363.00,1.27
6362.00,1.27
6361.00,1.27
6360.00,1.27
6359.00,1.27
6358.00,1.27
6357.00,1.27
6356.00,1.27
6355.00,1.27
6354.00,1.27
6353.00,1.27
6352.00,1.27
6351.00,1.27
6350.00,1.27
6349.00,1.27
6348.00,1.27
6347.00,1.27
6346.00,1.27
6345.00,1.27
6344.00,1.27
6343.00,1.27
6342.00,1.27
6341.00,1.27
6340.00,1.27
6339.00,1.27
6338.00,1.28
6337.00,1.28
6336.00,1.28
6335.00,1.28
6334.00,1.28
6333.00,1.28
6332.00,1.28
6331.00,1.28
6330.00,1.29
6329.00,1.29
6328.00,1.29
6327.00,1.29
6326.00,1.29
6325.00,1.29
6324.00,1.29
6323.00,1.30
6322.00,1.30
6321.00,1.30
6320.00,1.30
6319.00,1.30
6318.00,1.30
6317.00,1.30
6316.00,1.30
6315.00,1.30
6314.00,1.31
6313.00,1.31
6312.00,1.31
6311.00,1.31
6310.00,1.31
6309.00,1.31
6308.00,1.31
6307.00,1.31
6306.00,1.31
6305.00,1.31
6304.00,1.30
6303.00,1.30
6302.00,1.30
6301.00,1.30
6300.00,1.30
6299.00,1.30
6298.00,1.30
6297.00,1.31
6296.00,1.31
6295.00,1.31
6294.00,1.31
6293.00,1.31
6292.00,1.31
6291.00,1.31
6290.00,1.31
6289.00,1.32
6288.00,1.32
6287.00,1.32
6286.00,1.32
6285.00,1.32
6284.00,1.32
6283.00,1.33
6282.00,1.33
6281.00,1.33
6280.00,1.33
6279.00,1.33
6278.00,1.34
6277.00,1.34
6276.00,1.34
6275.00,1.34
6274.00,1.34
6273.00,1.35
6272.00,1.35
6271.00,1.35
6270.00,1.35
6269.00,1.35
6268.00,1.35
6267.00,1.35
6266.00,1.35
6265.00,1.36
6264.00,1.36
6263.00,1.36
6262.00,1.36
6261.00,1.36
6260.00,1.36
6259.00,1.36
6258.00,1.35
6257.00,1.35
6256.00,1.35
6255.00,1.35
6254.00,1.35
6253.00,1.35
6252.00,1.35
6251.00,1.35
6250.00,1.35
6249.00,1.35
6248.00,1.35
6247.00,1.35
6246.00,1.34
6245.00,1.34
6244.00,1.34
6243.00,1.34
6242.00,1.34
6241.00,1.34
6240.00,1.34
6239.00,1.34
6238.00,1.34
6237.00,1.34
6236.00,1.34
6235.00,1.34
6234.00,1.34
6233.00,1.34
6232.00,1.34
6231.00,1.34
6230.00,1.34
6229.00,1.35
6228.00,1.35
6227.00,1.35
6226.00,1.35
6225.00,1.35
6224.00,1.35
6223.00,1.35
6222.00,1.36
6221.00,1.36
6220.00,1.36
6219.00,1.36
6218.00,1.36
6217.00,1.36
6216.00,1.37
6215.00,1.37
6214.00,1.37
6213.00,1.37
6212.00,1.37
6211.00,1.37
6210.00,1.37
6209.00,1.37
6208.00,1.37
6207.00,1.37
6206.00,1.37
6205.00,1.37
6204.00,1.37
6203.00,1.38
6202.00,1.38
6201.00,1.38
6200.00,1.38
6199.00,1.38
6198.00,1.38
6197.00,1.38
6196.00,1.38
6195.00,1.38
6194.00,1.38
6193.00,1.39
6192.00,1.39
6191.00,1.39
6190.00,1.39
6189.00,1.39
6188.00,1.39
6187.00,1.39
6186.00,1.39
6185.00,1.40
6184.00,1.40
6183.00,1.40
6182.00,1.40
6181.00,1.41
6180.00,1.41
6179.00,1.41
6178.00,1.41
6177.00,1.41
6176.00,1.41
6175.00,1.42
6174.00,1.42
6173.00,1.42
6172.00,1.42
6171.00,1.42
6170.00,1.42
6169.00,1.42
6168.00,1.42
6167.00,1.42
6166.00,1.42
6165.00,1.42
6164.00,1.42
6163.00,1.42
6162.00,1.42
6161.00,1.42
6160.00,1.42
6159.00,1.42
6158.00,1.41
6157.00,1.41
6156.00,1.41
6155.00,1.41
6154.00,1.41
6153.00,1.41
6152.00,1.41
6151.00,1.41
6150.00,1.41
6149.00,1.41
6148.00,1.41
6147.00,1.41
6146.00,1.41
6145.00,1.41
6144.00,1.41
6143.00,1.41
6142.00,1.41
6141.00,1.41
6140.00,1.42
6139.00,1.42
6138.00,1.42
6137.00,1.42
6136.00,1.42
6135.00,1.42
6134.00,1.42
6133.00,1.43
6132.00,1.43
6131.00,1.43
6130.00,1.43
6129.00,1.43
6128.00,1.43
6127.00,1.44
6126.00,1.44
6125.00,1.44
6124.00,1.44
6123.00,1.44
6122.00,1.45
6121.00,1.45
6120.00,1.45
6119.00,1.45
6118.00,1.45
6117.00,1.45
6116.00,1.45
6115.00,1.45
6114.00,1.46
6113.00,1.46
6112.00,1.46
6111.00,1.46
6110.00,1.46
6109.00,1.46
6108.00,1.46
6107.00,1.46
6106.00,1.46
6105.00,1.47
6104.00,1.47
6103.00,1.47
6102.00,1.47
6101.00,1.47
6100.00,1.47
6099.00,1.48
6098.00,1.48
6097.00,1.48
6096.00,1.48
6095.00,1.48
6094.00,1.48
6093.00,1.48
6092.00,1.48
6091.00,1.48
6090.00,1.48
6089.00,1.48
6088.00,1.49
6087.00,1.49
6086.00,1.49
6085.00,1.49
6084.00,1.49
6083.00,1.49
6082.00,1.49
6081.00,1.49
6080.00,1.49
6079.00,1.49
6078.00,1.49
6077.00,1.49
6076.00,1.49
6075.00,1.49
6074.00,1.49
6073.00,1.49
6072.00,1.49
6071.00,1.49
6070.00,1.50
6069.00,1.50
6068.00,1.50
6067.00,1.50
6066.00,1.50
6065.00,1.50
6064.00,1.50
6063.00,1.50
6062.00,1.50
6061.00,1.50
6060.00,1.50
6059.00,1.50
6058.00,1.50
6057.00,1.50
6056.00,1.50
6055.00,1.51
6054.00,1.51
6053.00,1.51
6052.00,1.51
6051.00,1.51
6050.00,1.51
6049.00,1.51
6048.00,1.51
6047.00,1.51
6046.00,1.51
6045.00,1.51
6044.00,1.51
6043.00,1.51
6042.00,1.51
6041.00,1.51
6040.00,1.51
6039.00,1.51
6038.00,1.51
6037.00,1.51
6036.00,1.52
6035.00,1.52
6034.00,1.52
6033.00,1.52
6032.00,1.52
6031.00,1.52
6030.00,1.52
6029.00,1.52
6028.00,1.52
6027.00,1.52
6026.00,1.52
6025.00,1.52
6024.00,1.52
6023.00,1.52
6022.00,1.52
6021.00,1.52
6020.00,1.53
6019.00,1.53
6018.00,1.53
6017.00,1.53
6016.00,1.53
6015.00,1.53
6014.00,1.53
6013.00,1.53
6012.00,1.53
6011.00,1.53
6010.00,1.52
6009.00,1.52
6008.00,1.52
6007.00,1.52
6006.00,1.52
6005.00,1.52
6004.00,1.52
6003.00,1.52
6002.00,1.52
6001.00,1.52
6000.00,1.51
5999.00,1.51
5998.00,1.51
5997.00,1.51
5996.00,1.51
5995.00,1.51
5994.00,1.51
5993.00,1.51
5992.00,1.51
5991.00,1.51
5990.00,1.51
5989.00,1.51
5988.00,1.50
5987.00,1.50
5986.00,1.50
5985.00,1.50
5984.00,1.50
5983.00,1.50
5982.00,1.50
5981.00,1.50
5980.00,1.50
5979.00,1.50
5978.00,1.50
5977.00,1.50
5976.00,1.49
5975.00,1.49
5974.00,1.49
5973.00,1.49
5972.00,1.48
5971.00,1.48
5970.00,1.48
5969.00,1.47
5968.00,1.47
5967.00,1.47
5966.00,1.47
5965.00,1.46
5964.00,1.46
5963.00,1.46
5962.00,1.45
5961.00,1.45
5960.00,1.45
5959.00,1.44
5958.00,1.44
5957.00,1.44
5956.00,1.43
5955.00,1.43
5954.00,1.43
5953.00,1.43
5952.00,1.42
5951.00,1.42
5950.00,1.42
5949.00,1.42
5948.00,1.42
5947.00,1.42
5946.00,1.42
5945.00,1.42
5944.00,1.42
5943.00,1.41
5942.00,1.41
5941.00,1.41
5940.00,1.41
5939.00,1.41
5938.00,1.41
5937.00,1.41
5936.00,1.41
5935.00,1.41
5934.00,1.40
5933.00,1.40
5932.00,1.40
5931.00,1.40
5930.00,1.40
5929.00,1.40
5928.00,1.40
5927.00,1.40
5926.00,1.40
5925.00,1.40
5924.00,1.39
5923.00,1.39
5922.00,1.39
5921.00,1.39
5920.00,1.39
5919.00,1.39
5918.00,1.38
5917.00,1.38
5916.00,1.38
5915.00,1.38
5914.00,1.38
5913.00,1.38
5912.00,1.38
5911.00,1.38
5910.00,1.38
5909.00,1.38
5908.00,1.38
5907.00,1.38
5906.00,1.38
5905.00,1.38
5904.00,1.38
5903.00,1.38
5902.00,1.38
5901.00,1.38
5900.00,1.38
5899.00,1.38
5898.00,1.38
5897.00,1.38
5896.00,1.38
5895.00,1.38
5894.00,1.38
5893.00,1.38
5892.00,1.38
5891.00,1.39
5890.00,1.39
5889.00,1.39
5888.00,1.39
5887.00,1.39
5886.00,1.39
5885.00,1.39
5884.00,1.39
5883.00,1.39
5882.00,1.39
5881.00,1.40
5880.00,1.40
5879.00,1.40
5878.00,1.40
5877.00,1.40
5876.00,1.40
5875.00,1.40
5874.00,1.41
5873.00,1.41
5872.00,1.41
5871.00,1.41
5870.00,1.41
5869.00,1.41
5868.00,1.41
5867.00,1.41
5866.00,1.41
5865.00,1.41
5864.00,1.42
5863.00,1.42
5862.00,1.42
5861.00,1.42
5860.00,1.42
5859.00,1.42
5858.00,1.42
5857.00,1.42
5856.00,1.42
5855.00,1.42
5854.00,1.42
5853.00,1.43
5852.00,1.43
5851.00,1.43
5850.00,1.43
5849.00,1.43
5848.00,1.43
5847.00,1.43
5846.00,1.43
5845.00,1.43
5844.00,1.43
5843.00,1.43
5842.00,1.43
5841.00,1.43
5840.00,1.43
5839.00,1.43
5838.00,1.43
5837.00,1.43
5836.00,1.43
5835.00,1.43
5834.00,1.43
5833.00,1.43
5832.00,1.43
5831.00,1.43
5830.00,1.43
5829.00,1.42
5828.00,1.42
5827.00,1.42
5826.00,1.42
5825.00,1.42
5824.00,1.42
5823.00,1.42
5822.00,1.42
5821.00,1.41
5820.00,1.41
5819.00,1.41
5818.00,1.41
5817.00,1.41
5816.00,1.41
5815.00,1.41
5814.00,1.41
5813.00,1.41
5812.00,1.41
5811.00,1.41
5810.00,1.41
5809.00,1.41
5808.00,1.41
5807.00,1.41
5806.00,1.41
5805.00,1.41
5804.00,1.41
5803.00,1.41
5802.00,1.41
5801.00,1.41
5800.00,1.41
5799.00,1.42
5798.00,1.42
5797.00,1.42
5796.00,1.42
5795.00,1.42
5794.00,1.42
5793.00,1.42
5792.00,1.42
5791.00,1.43
5790.00,1.43
5789.00,1.43
5788.00,1.43
5787.00,1.43
5786.00,1.43
5785.00,1.43
5784.00,1.43
5783.00,1.43
5782.00,1.43
5781.00,1.43
5780.00,1.43
5779.00,1.43
5778.00,1.43
5777.00,1.43
5776.00,1.43
5775.00,1.43
5774.00,1.43
5773.00,1.43
5772.00,1.43
5771.00,1.43
5770.00,1.43
5769.00,1.43
5768.00,1.42
5767.00,1.42
5766.00,1.42
5765.00,1.42
5764.00,1.42
5763.00,1.42
5762.00,1.42
5761.00,1.42
5760.00,1.42
5759.00,1.42
5758.00,1.42
5757.00,1.43
5756.00,1.43
5755.00,1.43
5754.00,1.43
5753.00,1.43
5752.00,1.43
5751.00,1.43
5750.00,1.43
5749.00,1.43
5748.00,1.43
5747.00,1.44
5746.00,1.44
5745.00,1.44
5744.00,1.44
5743.00,1.44
5742.00,1.44
5741.00,1.44
5740.00,1.44
5739.00,1.44
5738.00,1.44
5737.00,1.44
5736.00,1.44
5735.00,1.44
5734.00,1.45
5733.00,1.45
5732.00,1.45
5731.00,1.45
5730.00,1.45
5729.00,1.45
5728.00,1.45
5727.00,1.45
5726.00,1.45
5725.00,1.45
5724.00,1.45
5723.00,1.45
5722.00,1.45
5721.00,1.45
5720.00,1.45
5719.00,1.45
5718.00,1.45
5717.00,1.45
5716.00,1.46
5715.00,1.46
5714.00,1.46
5713.00,1.46
5712.00,1.46
5711.00,1.46
5710.00,1.46
5709.00,1.46
5708.00,1.46
5707.00,1.46
5706.00,1.45
5705.00,1.45
5704.00,1.45
5703.00,1.45
5702.00,1.45
5701.00,1.45
5700.00,1.45
5699.00,1.45
5698.00,1.45
5697.00,1.44
5696.00,1.44
5695.00,1.44
5694.00,1.44
5693.00,1.44
5692.00,1.43
5691.00,1.43
5690.00,1.43
5689.00,1.43
5688.00,1.43
5687.00,1.43
5686.00,1.43
5685.00,1.42
5684.00,1.42
5683.00,1.42
5682.00,1.42
5681.00,1.42
5680.00,1.42
5679.00,1.42
5678.00,1.42
5677.00,1.42
5676.00,1.42
5675.00,1.42
5674.00,1.42
5673.00,1.42
5672.00,1.42
5671.00,1.43
5670.00,1.43
5669.00,1.43
5668.00,1.43
5667.00,1.43
5666.00,1.43
5665.00,1.44
5664.00,1.44
5663.00,1.44
5662.00,1.44
5661.00,1.44
5660.00,1.45
5659.00,1.45
5658.00,1.45
5657.00,1.45
5656.00,1.45
5655.00,1.46
5654.00,1.46
5653.00,1.46
5652.00,1.46
5651.00,1.46
5650.00,1.46
5649.00,1.46
5648.00,1.46
5647.00,1.46
5646.00,1.46
5645.00,1.46
5644.00,1.46
5643.00,1.46
5642.00,1.46
5641.00,1.46
5640.00,1.46
5639.00,1.46
5638.00,1.46
5637.00,1.46
5636.00,1.46
5635.00,1.46
5634.00,1.46
5633.00,1.45
5632.00,1.45
5631.00,1.45
5630.00,1.45
5629.00,1.45
5628.00,1.45
5627.00,1.45
5626.00,1.45
5625.00,1.45
5624.00,1.45
5623.00,1.45
5622.00,1.45
5621.00,1.45
5620.00,1.45
5619.00,1.45
5618.00,1.45
5617.00,1.45
5616.00,1.45
5615.00,1.46
5614.00,1.46
5613.00,1.46
5612.00,1.46
5611.00,1.46
5610.00,1.46
5609.00,1.46
5608.00,1.47
5607.00,1.47
5606.00,1.47
5605.00,1.47
5604.00,1.47
5603.00,1.47
5602.00,1.47
5601.00,1.47
5600.00,1.48
5599.00,1.48
5598.00,1.48
5597.00,1.48
5596.00,1.48
5595.00,1.48
5594.00,1.48
5593.00,1.48
5592.00,1.48
5591.00,1.48
5590.00,1.48
5589.00,1.48
5588.00,1.48
5587.00,1.48
5586.00,1.48
5585.00,1.48
5584.00,1.48
5583.00,1.48
5582.00,1.48
5581.00,1.48
5580.00,1.48
5579.00,1.48
5578.00,1.48
5577.00,1.48
5576.00,1.48
5575.00,1.49
5574.00,1.49
5573.00,1.49
5572.00,1.49
5571.00,1.49
5570.00,1.49
5569.00,1.49
5568.00,1.49
5567.00,1.49
5566.00,1.49
5565.00,1.49
5564.00,1.49
5563.00,1.49
5562.00,1.50
5561.00,1.50
5560.00,1.50
5559.00,1.50
5558.00,1.50
5557.00,1.50
5556.00,1.50
5555.00,1.50
5554.00,1.50
5553.00,1.50
5552.00,1.50
5551.00,1.50
5550.00,1.50
5549.00,1.50
5548.00,1.50
5547.00,1.50
5546.00,1.51
5545.00,1.51
5544.00,1.51
5543.00,1.51
5542.00,1.51
5541.00,1.51
5540.00,1.51
5539.00,1.51
5538.00,1.51
5537.00,1.51
5536.00,1.52
5535.00,1.52
5534.00,1.52
5533.00,1.52
5532.00,1.52
5531.00,1.52
5530.00,1.52
5529.00,1.52
5528.00,1.52
5527.00,1.52
5526.00,1.52
5525.00,1.52
5524.00,1.52
5523.00,1.52
5522.00,1.52
5521.00,1.52
5520.00,1.52
5519.00,1.52
5518.00,1.52
5517.00,1.52
5516.00,1.52
5515.00,1.52
5514.00,1.52
5513.00,1.52
5512.00,1.52
5511.00,1.52
5510.00,1.52
5509.00,1.52
5508.00,1.52
5507.00,1.52
5506.00,1.52
5505.00,1.52
5504.00,1.52
5503.00,1.52
5502.00,1.52
5501.00,1.52
5500.00,1.52
5499.00,1.52
5498.00,1.52
5497.00,1.52
5496.00,1.52
5495.00,1.52
5494.00,1.52
5493.00,1.52
5492.00,1.53
5491.00,1.53
5490.00,1.53
5489.00,1.53
5488.00,1.53
5487.00,1.53
5486.00,1.53
5485.00,1.53
5484.00,1.53
5483.00,1.53
5482.00,1.53
5481.00,1.54
5480.00,1.54
5479.00,1.54
5478.00,1.54
5477.00,1.54
5476.00,1.54
5475.00,1.54
5474.00,1.54
5473.00,1.54
5472.00,1.54
5471.00,1.54
5470.00,1.54
5469.00,1.55
5468.00,1.55
5467.00,1.55
5466.00,1.55
5465.00,1.55
5464.00,1.55
5463.00,1.55
5462.00,1.55
5461.00,1.55
5460.00,1.55
5459.00,1.55
5458.00,1.55
5457.00,1.55
5456.00,1.55
5455.00,1.55
5454.00,1.55
5453.00,1.55
5452.00,1.55
5451.00,1.55
5450.00,1.55
5449.00,1.55
5448.00,1.55
5447.00,1.55
5446.00,1.55
5445.00,1.55
5444.00,1.55
5443.00,1.55
5442.00,1.55
5441.00,1.55
5440.00,1.55
5439.00,1.55
5438.00,1.55
5437.00,1.55
5436.00,1.55
5435.00,1.55
5434.00,1.55
5433.00,1.55
5432.00,1.55
5431.00,1.55
5430.00,1.55
5429.00,1.56
5428.00,1.56
5427.00,1.56
5426.00,1.56
5425.00,1.56
5424.00,1.56
5423.00,1.56
5422.00,1.56
5421.00,1.56
5420.00,1.56
5419.00,1.56
5418.00,1.56
5417.00,1.56
5416.00,1.56
5415.00,1.56
5414.00,1.56
5413.00,1.56
5412.00,1.56
5411.00,1.56
5410.00,1.56
5409.00,1.56
5408.00,1.56
5407.00,1.56
5406.00,1.55
5405.00,1.55
5404.00,1.55
5403.00,1.55
5402.00,1.55
5401.00,1.55
5400.00,1.54
5399.00,1.54
5398.00,1.54
5397.00,1.54
5396.00,1.53
5395.00,1.53
5394.00,1.53
5393.00,1.53
5392.00,1.53
5391.00,1.52
5390.00,1.52
5389.00,1.52
5388.00,1.52
5387.00,1.51
5386.00,1.51
5385.00,1.51
5384.00,1.51
5383.00,1.50
5382.00,1.50
5381.00,1.50
5380.00,1.49
5379.00,1.49
5378.00,1.49
5377.00,1.49
5376.00,1.48
5375.00,1.48
5374.00,1.48
5373.00,1.47
5372.00,1.47
5371.00,1.47
5370.00,1.46
5369.00,1.46
5368.00,1.46
5367.00,1.45
5366.00,1.45
5365.00,1.44
5364.00,1.44
5363.00,1.43
5362.00,1.43
5361.00,1.42
5360.00,1.42
5359.00,1.41
5358.00,1.41
5357.00,1.40
5356.00,1.40
5355.00,1.39
5354.00,1.38
5353.00,1.38
5352.00,1.37
5351.00,1.37
5350.00,1.36
5349.00,1.35
5348.00,1.35
5347.00,1.34
5346.00,1.33
5345.00,1.33
5344.00,1.32
5343.00,1.31
5342.00,1.31
5341.00,1.30
5340.00,1.29
5339.00,1.29
5338.00,1.28
5337.00,1.27
5336.00,1.26
5335.00,1.26
5334.00,1.25
5333.00,1.24
5332.00,1.23
5331.00,1.23
5330.00,1.22
5329.00,1.21
5328.00,1.20
5327.00,1.19
5326.00,1.19
5325.00,1.18
5324.00,1.17
5323.00,1.16
5322.00,1.15
5321.00,1.14
5320.00,1.13
5319.00,1.12
5318.00,1.11
5317.00,1.10
5316.00,1.09
5315.00,1.08
5314.00,1.07
5313.00,1.06
5312.00,1.05
5311.00,1.04
5310.00,1.03
5309.00,1.02
5308.00,1.01
5307.00,1.00
5306.00,0.99
5305.00,0.98
5304.00,0.96
5303.00,0.95
5302.00,0.94
5301.00,0.93
5300.00,0.92
5299.00,0.91
5298.00,0.90
5297.00,0.89
5296.00,0.88
5295.00,0.87
5294.00,0.86
5293.00,0.85
5292.00,0.84
5291.00,0.83
5290.00,0.82
5289.00,0.81
5288.00,0.81
5287.00,0.80
5286.00,0.79
5285.00,0.78
5284.00,0.77
5283.00,0.76
5282.00,0.76
5281.00,0.75
5280.00,0.74
5279.00,0.73
5278.00,0.73
5277.00,0.72
5276.00,0.72
5275.00,0.71
5274.00,0.70
5273.00,0.70
5272.00,0.69
5271.00,0.69
5270.00,0.68
5269.00,0.68
5268.00,0.68
5267.00,0.67
5266.00,0.67
5265.00,0.66
5264.00,0.66
5263.00,0.65
5262.00,0.65
5261.00,0.65
5260.00,0.64
5259.00,0.64
5258.00,0.64
5257.00,0.63
5256.00,0.63
5255.00,0.63
5254.00,0.63
5253.00,0.62
5252.00,0.62
5251.00,0.62
5250.00,0.61
5249.00,0.61
5248.00,0.61
5247.00,0.61
5246.00,0.60
5245.00,0.60
5244.00,0.60
5243.00,0.60
5242.00,0.59
5241.00,0.59
5240.00,0.59
5239.00,0.59
5238.00,0.58
5237.00,0.58
5236.00,0.58
5235.00,0.58
5234.00,0.57
5233.00,0.57
5232.00,0.57
5231.00,0.56
5230.00,0.56
5229.00,0.56
5228.00,0.56
5227.00,0.55
5226.00,0.55
5225.00,0.55
5224.00,0.55
5223.00,0.54
5222.00,0.54
5221.00,0.54
5220.00,0.54
5219.00,0.54
5218.00,0.54
5217.00,0.53
5216.00,0.53
5215.00,0.53
5214.00,0.53
5213.00,0.53
5212.00,0.53
5211.00,0.53
5210.00,0.53
5209.00,0.53
5208.00,0.53
5207.00,0.53
5206.00,0.53
5205.00,0.53
5204.00,0.53
5203.00,0.53
5202.00,0.53
5201.00,0.53
5200.00,0.53
5199.00,0.53
5198.00,0.54
5197.00,0.54
5196.00,0.54
5195.00,0.54
5194.00,0.54
5193.00,0.54
5192.00,0.54
5191.00,0.54
5190.00,0.54
5189.00,0.54
5188.00,0.54
5187.00,0.55
5186.00,0.55
5185.00,0.55
5184.00,0.55
5183.00,0.55
5182.00,0.55
5181.00,0.55
5180.00,0.55
5179.00,0.55
5178.00,0.55
5177.00,0.55
5176.00,0.56
5175.00,0.56
5174.00,0.56
5173.00,0.56
5172.00,0.56
5171.00,0.56
5170.00,0.56
5169.00,0.56
5168.00,0.56
5167.00,0.56
5166.00,0.56
5165.00,0.56
5164.00,0.56
5163.00,0.56
5162.00,0.56
5161.00,0.56
5160.00,0.56
5159.00,0.56
5158.00,0.56
5157.00,0.56
5156.00,0.56
5155.00,0.56
5154.00,0.56
5153.00,0.56
5152.00,0.56
5151.00,0.56
5150.00,0.56
5149.00,0.56
5148.00,0.56
5147.00,0.57
5146.00,0.57
5145.00,0.57
5144.00,0.57
5143.00,0.57
5142.00,0.57
5141.00,0.57
5140.00,0.57
5139.00,0.57
5138.00,0.57
5137.00,0.57
5136.00,0.57
5135.00,0.57
5134.00,0.57
5133.00,0.57
5132.00,0.57
5131.00,0.57
5130.00,0.57
5129.00,0.57
5128.00,0.57
5127.00,0.57
5126.00,0.57
5125.00,0.57
5124.00,0.57
5123.00,0.57
5122.00,0.57
5121.00,0.57
5120.00,0.57
5119.00,0.57
5118.00,0.57
5117.00,0.58
5116.00,0.58
5115.00,0.58
5114.00,0.58
5113.00,0.58
5112.00,0.58
5111.00,0.59
5110.00,0.59
5109.00,0.59
5108.00,0.59
5107.00,0.59
5106.00,0.59
5105.00,0.60
5104.00,0.60
5103.00,0.60
5102.00,0.60
5101.00,0.60
5100.00,0.60
5099.00,0.60
5098.00,0.61
5097.00,0.61
5096.00,0.61
5095.00,0.61
5094.00,0.61
5093.00,0.61
5092.00,0.61
5091.00,0.61
5090.00,0.61
5089.00,0.61
5088.00,0.61
5087.00,0.61
5086.00,0.61
5085.00,0.61
5084.00,0.61
5083.00,0.62
5082.00,0.62
5081.00,0.62
5080.00,0.62
5079.00,0.62
5078.00,0.62
5077.00,0.62
5076.00,0.63
5075.00,0.63
5074.00,0.63
5073.00,0.63
5072.00,0.64
5071.00,0.64
5070.00,0.64
5069.00,0.65
5068.00,0.65
5067.00,0.65
5066.00,0.65
5065.00,0.66
5064.00,0.66
5063.00,0.66
5062.00,0.67
5061.00,0.67
5060.00,0.67
5059.00,0.67
5058.00,0.68
5057.00,0.68
5056.00,0.68
5055.00,0.68
5054.00,0.69
5053.00,0.69
5052.00,0.69
5051.00,0.69
5050.00,0.69
5049.00,0.70
5048.00,0.70
5047.00,0.70
5046.00,0.70
5045.00,0.70
5044.00,0.71
5043.00,0.71
5042.00,0.71
5041.00,0.71
5040.00,0.71
5039.00,0.71
5038.00,0.72
5037.00,0.72
5036.00,0.72
5035.00,0.72
5034.00,0.72
5033.00,0.73
5032.00,0.73
5031.00,0.73
5030.00,0.73
5029.00,0.73
5028.00,0.74
5027.00,0.74
5026.00,0.74
5025.00,0.74
5024.00,0.74
5023.00,0.74
5022.00,0.75
5021.00,0.75
5020.00,0.75
5019.00,0.75
5018.00,0.75
5017.00,0.75
5016.00,0.75
5015.00,0.76
5014.00,0.76
5013.00,0.76
5012.00,0.76
5011.00,0.76
5010.00,0.77
5009.00,0.77
5008.00,0.77
5007.00,0.77
5006.00,0.77
5005.00,0.78
5004.00,0.78
5003.00,0.78
5002.00,0.78
5001.00,0.78
5000.00,0.79
4999.00,0.79
4998.00,0.79
4997.00,0.79
4996.00,0.79
4995.00,0.80
4994.00,0.80
4993.00,0.80
4992.00,0.80
4991.00,0.81
4990.00,0.81
4989.00,0.81
4988.00,0.81
4987.00,0.82
4986.00,0.82
4985.00,0.82
4984.00,0.82
4983.00,0.82
4982.00,0.82
4981.00,0.82
4980.00,0.83
4979.00,0.83
4978.00,0.83
4977.00,0.83
4976.00,0.83
4975.00,0.83
4974.00,0.84
4973.00,0.84
4972.00,0.84
4971.00,0.84
4970.00,0.84
4969.00,0.85
4968.00,0.85
4967.00,0.85
4966.00,0.85
4965.00,0.85
4964.00,0.85
4963.00,0.85
4962.00,0.85
4961.00,0.86
4960.00,0.86
4959.00,0.86
4958.00,0.86
4957.00,0.86
4956.00,0.86
4955.00,0.86
4954.00,0.87
4953.00,0.87
4952.00,0.87
4951.00,0.87
4950.00,0.87
4949.00,0.87
4948.00,0.87
4947.00,0.87
4946.00,0.88
4945.00,0.88
4944.00,0.88
4943.00,0.88
4942.00,0.88
4941.00,0.88
4940.00,0.89
4939.00,0.89
4938.00,0.89
4937.00,0.89
4936.00,0.90
4935.00,0.90
4934.00,0.90
4933.00,0.90
4932.00,0.91
4931.00,0.91
4930.00,0.91
4929.00,0.91
4928.00,0.92
4927.00,0.92
4926.00,0.92
4925.00,0.92
4924.00,0.92
4923.00,0.93
4922.00,0.93
4921.00,0.93
4920.00,0.93
4919.00,0.93
4918.00,0.94
4917.00,0.94
4916.00,0.94
4915.00,0.94
4914.00,0.94
4913.00,0.95
4912.00,0.95
4911.00,0.95
4910.00,0.95
4909.00,0.95
4908.00,0.95
4907.00,0.95
4906.00,0.95
4905.00,0.95
4904.00,0.96
4903.00,0.96
4902.00,0.96
4901.00,0.96
4900.00,0.96
4899.00,0.96
4898.00,0.96
4897.00,0.97
4896.00,0.97
4895.00,0.97
4894.00,0.97
4893.00,0.97
4892.00,0.97
4891.00,0.97
4890.00,0.97
4889.00,0.97
4888.00,0.97
4887.00,0.97
4886.00,0.97
4885.00,0.97
4884.00,0.97
4883.00,0.97
4882.00,0.97
4881.00,0.97
4880.00,0.97
4879.00,0.97
4878.00,0.97
4877.00,0.97
4876.00,0.97
4875.00,0.97
4874.00,0.97
4873.00,0.97
4872.00,0.97
4871.00,0.97
4870.00,0.98
4869.00,0.98
4868.00,0.98
4867.00,0.98
4866.00,0.98
4865.00,0.98
4864.00,0.98
4863.00,0.98
4862.00,0.98
4861.00,0.98
4860.00,0.98
4859.00,0.99
4858.00,0.99
4857.00,0.99
4856.00,0.99
4855.00,0.99
4854.00,0.99
4853.00,1.00
4852.00,1.00
4851.00,1.00
4850.00,1.00
4849.00,1.01
4848.00,1.01
4847.00,1.01
4846.00,1.02
4845.00,1.02
4844.00,1.02
4843.00,1.03
4842.00,1.03
4841.00,1.03
4840.00,1.04
4839.00,1.04
4838.00,1.04
4837.00,1.05
4836.00,1.05
4835.00,1.05
4834.00,1.06
4833.00,1.06
4832.00,1.07
4831.00,1.07
4830.00,1.07
4829.00,1.08
4828.00,1.08
4827.00,1.08
4826.00,1.09
4825.00,1.09
4824.00,1.09
4823.00,1.09
4822.00,1.10
4821.00,1.10
4820.00,1.10
4819.00,1.10
4818.00,1.10
4817.00,1.11
4816.00,1.11
4815.00,1.11
4814.00,1.11
4813.00,1.12
4812.00,1.12
4811.00,1.12
4810.00,1.12
4809.00,1.13
4808.00,1.13
4807.00,1.13
4806.00,1.13
4805.00,1.13
4804.00,1.14
4803.00,1.14
4802.00,1.14
4801.00,1.14
4800.00,1.14
4799.00,1.15
4798.00,1.15
4797.00,1.15
4796.00,1.15
4795.00,1.16
4794.00,1.16
4793.00,1.16
4792.00,1.16
4791.00,1.17
4790.00,1.17
4789.00,1.17
4788.00,1.17
4787.00,1.18
4786.00,1.18
4785.00,1.18
4784.00,1.18
4783.00,1.18
4782.00,1.18
4781.00,1.18
4780.00,1.19
4779.00,1.19
4778.00,1.19
4777.00,1.19
4776.00,1.19
4775.00,1.19
4774.00,1.20
4773.00,1.20
4772.00,1.20
4771.00,1.20
4770.00,1.20
4769.00,1.20
4768.00,1.20
4767.00,1.21
4766.00,1.21
4765.00,1.21
4764.00,1.21
4763.00,1.22
4762.00,1.22
4761.00,1.22
4760.00,1.22
4759.00,1.22
4758.00,1.23
4757.00,1.23
4756.00,1.23
4755.00,1.24
4754.00,1.24
4753.00,1.24
4752.00,1.25
4751.00,1.25
4750.00,1.25
4749.00,1.25
4748.00,1.26
4747.00,1.26
4746.00,1.26
4745.00,1.26
4744.00,1.27
4743.00,1.27
4742.00,1.27
4741.00,1.27
4740.00,1.27
4739.00,1.28
4738.00,1.28
4737.00,1.28
4736.00,1.28
4735.00,1.28
4734.00,1.28
4733.00,1.29
4732.00,1.29
4731.00,1.29
4730.00,1.29
4729.00,1.29
4728.00,1.30
4727.00,1.30
4726.00,1.30
4725.00,1.30
4724.00,1.30
4723.00,1.30
4722.00,1.31
4721.00,1.31
4720.00,1.31
4719.00,1.31
4718.00,1.31
4717.00,1.32
4716.00,1.32
4715.00,1.32
4714.00,1.33
4713.00,1.33
4712.00,1.33
4711.00,1.34
4710.00,1.34
4709.00,1.34
4708.00,1.34
4707.00,1.35
4706.00,1.35
4705.00,1.35
4704.00,1.35
4703.00,1.35
4702.00,1.36
4701.00,1.36
4700.00,1.36
4699.00,1.36
4698.00,1.37
4697.00,1.37
4696.00,1.37
4695.00,1.37
4694.00,1.38
4693.00,1.38
4692.00,1.38
4691.00,1.38
4690.00,1.38
4689.00,1.38
4688.00,1.38
4687.00,1.38
4686.00,1.38
4685.00,1.38
4684.00,1.38
4683.00,1.39
4682.00,1.39
4681.00,1.39
4680.00,1.39
4679.00,1.39
4678.00,1.39
4677.00,1.39
4676.00,1.39
4675.00,1.40
4674.00,1.40
4673.00,1.40
4672.00,1.40
4671.00,1.40
4670.00,1.40
4669.00,1.41
4668.00,1.41
4667.00,1.41
4666.00,1.41
4665.00,1.41
4664.00,1.41
4663.00,1.41
4662.00,1.41
4661.00,1.42
4660.00,1.42
4659.00,1.42
4658.00,1.42
4657.00,1.42
4656.00,1.42
4655.00,1.42
4654.00,1.42
4653.00,1.43
4652.00,1.43
4651.00,1.43
4650.00,1.43
4649.00,1.43
4648.00,1.43
4647.00,1.43
4646.00,1.43
4645.00,1.43
4644.00,1.43
4643.00,1.44
4642.00,1.44
4641.00,1.44
4640.00,1.44
4639.00,1.44
4638.00,1.45
4637.00,1.45
4636.00,1.45
4635.00,1.45
4634.00,1.45
4633.00,1.46
4632.00,1.46
4631.00,1.46
4630.00,1.46
4629.00,1.47
4628.00,1.47
4627.00,1.47
4626.00,1.47
4625.00,1.48
4624.00,1.48
4623.00,1.48
4622.00,1.48
4621.00,1.48
4620.00,1.49
4619.00,1.49
4618.00,1.49
4617.00,1.49
4616.00,1.49
4615.00,1.50
4614.00,1.50
4613.00,1.50
4612.00,1.50
4611.00,1.50
4610.00,1.51
4609.00,1.51
4608.00,1.51
4607.00,1.51
4606.00,1.51
4605.00,1.52
4604.00,1.52
4603.00,1.52
4602.00,1.52
4601.00,1.52
4600.00,1.52
4599.00,1.53
4598.00,1.53
4597.00,1.53
4596.00,1.53
4595.00,1.53
4594.00,1.53
4593.00,1.54
4592.00,1.54
4591.00,1.54
4590.00,1.54
4589.00,1.54
4588.00,1.54
4587.00,1.54
4586.00,1.54
4585.00,1.54
4584.00,1.54
4583.00,1.54
4582.00,1.54
4581.00,1.54
4580.00,1.54
4579.00,1.54
4578.00,1.54
4577.00,1.54
4576.00,1.54
4575.00,1.54
4574.00,1.54
4573.00,1.54
4572.00,1.54
4571.00,1.54
4570.00,1.54
4569.00,1.54
4568.00,1.54
4567.00,1.54
4566.00,1.54
4565.00,1.54
4564.00,1.54
4563.00,1.54
4562.00,1.54
4561.00,1.54
4560.00,1.54
4559.00,1.54
4558.00,1.54
4557.00,1.54
4556.00,1.54
4555.00,1.54
4554.00,1.54
4553.00,1.54
4552.00,1.54
4551.00,1.54
4550.00,1.54
4549.00,1.54
4548.00,1.54
4547.00,1.54
4546.00,1.54
4545.00,1.54
4544.00,1.54
4543.00,1.54
4542.00,1.53
4541.00,1.53
4540.00,1.53
4539.00,1.53
4538.00,1.53
4537.00,1.53
4536.00,1.53
4535.00,1.53
4534.00,1.53
4533.00,1.53
4532.00,1.52
4531.00,1.52
4530.00,1.52
4529.00,1.52
4528.00,1.52
4527.00,1.52
4526.00,1.52
4525.00,1.52
4524.00,1.52
4523.00,1.52
4522.00,1.53
4521.00,1.53
4520.00,1.53
4519.00,1.53
4518.00,1.53
4517.00,1.53
4516.00,1.53
4515.00,1.53
4514.00,1.53
4513.00,1.53
4512.00,1.54
4511.00,1.54
4510.00,1.54
4509.00,1.54
4508.00,1.54
4507.00,1.54
4506.00,1.54
4505.00,1.54
4504.00,1.54
4503.00,1.54
4502.00,1.54
4501.00,1.54
4500.00,1.54
4499.00,1.54
4498.00,1.54
4497.00,1.54
4496.00,1.54
4495.00,1.54
4494.00,1.54
4493.00,1.54
4492.00,1.54
4491.00,1.54
4490.00,1.54
4489.00,1.54
4488.00,1.54
4487.00,1.54
4486.00,1.53
4485.00,1.53
4484.00,1.53
4483.00,1.53
4482.00,1.53
4481.00,1.53
4480.00,1.53
4479.00,1.53
4478.00,1.53
4477.00,1.53
4476.00,1.53
4475.00,1.53
4474.00,1.53
4473.00,1.53
4472.00,1.53
4471.00,1.52
4470.00,1.52
4469.00,1.52
4468.00,1.52
4467.00,1.52
4466.00,1.52
4465.00,1.52
4464.00,1.52
4463.00,1.52
4462.00,1.51
4461.00,1.51
4460.00,1.51
4459.00,1.50
4458.00,1.50
4457.00,1.49
4456.00,1.49
4455.00,1.48
4454.00,1.47
4453.00,1.47
4452.00,1.46
4451.00,1.45
4450.00,1.44
4449.00,1.43
4448.00,1.42
4447.00,1.41
4446.00,1.40
4445.00,1.39
4444.00,1.38
4443.00,1.37
4442.00,1.36
4441.00,1.34
4440.00,1.33
4439.00,1.32
4438.00,1.31
4437.00,1.30
4436.00,1.28
4435.00,1.27
4434.00,1.26
4433.00,1.25
4432.00,1.24
4431.00,1.23
4430.00,1.22
4429.00,1.21
4428.00,1.21
4427.00,1.20
4426.00,1.19
4425.00,1.19
4424.00,1.18
4423.00,1.18
4422.00,1.17
4421.00,1.17
4420.00,1.17
4419.00,1.16
4418.00,1.16
4417.00,1.16
4416.00,1.16
4415.00,1.16
4414.00,1.16
4413.00,1.16
4412.00,1.16
4411.00,1.16
4410.00,1.16
4409.00,1.16
4408.00,1.16
4407.00,1.16
4406.00,1.16
4405.00,1.16
4404.00,1.17
4403.00,1.17
4402.00,1.17
4401.00,1.18
4400.00,1.18
4399.00,1.19
4398.00,1.19
4397.00,1.19
4396.00,1.20
4395.00,1.20
4394.00,1.20
4393.00,1.21
4392.00,1.21
4391.00,1.22
4390.00,1.22
4389.00,1.22
4388.00,1.23
4387.00,1.23
4386.00,1.24
4385.00,1.24
4384.00,1.25
4383.00,1.25
4382.00,1.26
4381.00,1.26
4380.00,1.26
4379.00,1.27
4378.00,1.27
4377.00,1.27
4376.00,1.27
4375.00,1.27
4374.00,1.27
4373.00,1.28
4372.00,1.28
4371.00,1.28
4370.00,1.28
4369.00,1.28
4368.00,1.27
4367.00,1.27
4366.00,1.27
4365.00,1.27
4364.00,1.27
4363.00,1.26
4362.00,1.26
4361.00,1.26
4360.00,1.25
4359.00,1.25
4358.00,1.25
4357.00,1.24
4356.00,1.24
4355.00,1.23
4354.00,1.23
4353.00,1.23
4352.00,1.22
4351.00,1.22
4350.00,1.21
4349.00,1.21
4348.00,1.21
4347.00,1.21
4346.00,1.20
4345.00,1.20
4344.00,1.20
4343.00,1.20
4342.00,1.20
4341.00,1.20
4340.00,1.20
4339.00,1.20
4338.00,1.20
4337.00,1.20
4336.00,1.21
4335.00,1.21
4334.00,1.21
4333.00,1.22
4332.00,1.22
4331.00,1.23
4330.00,1.23
4329.00,1.24
4328.00,1.25
4327.00,1.25
4326.00,1.26
4325.00,1.27
4324.00,1.28
4323.00,1.29
4322.00,1.29
4321.00,1.30
4320.00,1.31
4319.00,1.32
4318.00,1.33
4317.00,1.34
4316.00,1.34
4315.00,1.35
4314.00,1.36
4313.00,1.37
4312.00,1.37
4311.00,1.38
4310.00,1.39
4309.00,1.40
4308.00,1.40
4307.00,1.41
4306.00,1.41
4305.00,1.42
4304.00,1.42
4303.00,1.43
4302.00,1.43
4301.00,1.44
4300.00,1.44
4299.00,1.45
4298.00,1.45
4297.00,1.45
4296.00,1.46
4295.00,1.46
4294.00,1.46
4293.00,1.46
4292.00,1.46
4291.00,1.47
4290.00,1.47
4289.00,1.47
4288.00,1.47
4287.00,1.47
4286.00,1.47
4285.00,1.47
4284.00,1.47
4283.00,1.47
4282.00,1.47
4281.00,1.47
4280.00,1.47
4279.00,1.46
4278.00,1.46
4277.00,1.46
4276.00,1.46
4275.00,1.45
4274.00,1.45
4273.00,1.44
4272.00,1.44
4271.00,1.44
4270.00,1.43
4269.00,1.43
4268.00,1.42
4267.00,1.42
4266.00,1.42
4265.00,1.41
4264.00,1.41
4263.00,1.41
4262.00,1.40
4261.00,1.40
4260.00,1.40
4259.00,1.40
4258.00,1.40
4257.00,1.40
4256.00,1.40
4255.00,1.40
4254.00,1.40
4253.00,1.40
4252.00,1.40
4251.00,1.40
4250.00,1.40
4249.00,1.40
4248.00,1.41
4247.00,1.41
4246.00,1.41
4245.00,1.42
4244.00,1.42
4243.00,1.43
4242.00,1.43
4241.00,1.44
4240.00,1.44
4239.00,1.45
4238.00,1.45
4237.00,1.45
4236.00,1.46
4235.00,1.46
4234.00,1.46
4233.00,1.47
4232.00,1.47
4231.00,1.47
4230.00,1.48
4229.00,1.48
4228.00,1.48
4227.00,1.49
4226.00,1.49
4225.00,1.49
4224.00,1.50
4223.00,1.50
4222.00,1.50
4221.00,1.50
4220.00,1.50
4219.00,1.51
4218.00,1.51
4217.00,1.51
4216.00,1.51
4215.00,1.51
4214.00,1.52
4213.00,1.52
4212.00,1.52
4211.00,1.52
4210.00,1.52
4209.00,1.53
4208.00,1.53
4207.00,1.53
4206.00,1.53
4205.00,1.53
4204.00,1.53
4203.00,1.53
4202.00,1.53
4201.00,1.53
4200.00,1.53
4199.00,1.54
4198.00,1.53
4197.00,1.53
4196.00,1.53
4195.00,1.53
4194.00,1.53
4193.00,1.53
4192.00,1.53
4191.00,1.53
4190.00,1.53
4189.00,1.53
4188.00,1.53
4187.00,1.52
4186.00,1.52
4185.00,1.52
4184.00,1.52
4183.00,1.51
4182.00,1.51
4181.00,1.51
4180.00,1.50
4179.00,1.50
4178.00,1.50
4177.00,1.50
4176.00,1.49
4175.00,1.49
4174.00,1.49
4173.00,1.49
4172.00,1.48
4171.00,1.48
4170.00,1.48
4169.00,1.48
4168.00,1.48
4167.00,1.47
4166.00,1.47
4165.00,1.47
4164.00,1.47
4163.00,1.47
4162.00,1.47
4161.00,1.47
4160.00,1.47
4159.00,1.47
4158.00,1.47
4157.00,1.47
4156.00,1.47
4155.00,1.47
4154.00,1.47
4153.00,1.47
4152.00,1.47
4151.00,1.48
4150.00,1.48
4149.00,1.48
4148.00,1.48
4147.00,1.48
4146.00,1.49
4145.00,1.49
4144.00,1.49
4143.00,1.49
4142.00,1.49
4141.00,1.49
4140.00,1.49
4139.00,1.49
4138.00,1.49
4137.00,1.49
4136.00,1.49
4135.00,1.49
4134.00,1.49
4133.00,1.49
4132.00,1.49
4131.00,1.49
4130.00,1.49
4129.00,1.49
4128.00,1.49
4127.00,1.49
4126.00,1.49
4125.00,1.49
4124.00,1.49
4123.00,1.49
4122.00,1.49
4121.00,1.49
4120.00,1.49
4119.00,1.49
4118.00,1.49
4117.00,1.49
4116.00,1.49
4115.00,1.49
4114.00,1.49
4113.00,1.49
4112.00,1.49
4111.00,1.49
4110.00,1.49
4109.00,1.49
4108.00,1.49
4107.00,1.49
4106.00,1.49
4105.00,1.49
4104.00,1.49
4103.00,1.49
4102.00,1.48
4101.00,1.48
4100.00,1.48
4099.00,1.48
4098.00,1.47
4097.00,1.47
4096.00,1.46
4095.00,1.46
4094.00,1.45
4093.00,1.45
4092.00,1.44
4091.00,1.44
4090.00,1.43
4089.00,1.43
4088.00,1.42
4087.00,1.42
4086.00,1.41
4085.00,1.41
4084.00,1.40
4083.00,1.40
4082.00,1.39
4081.00,1.39
4080.00,1.38
4079.00,1.38
4078.00,1.37
4077.00,1.37
4076.00,1.36
4075.00,1.36
4074.00,1.36
4073.00,1.36
4072.00,1.36
4071.00,1.36
4070.00,1.36
4069.00,1.36
4068.00,1.36
4067.00,1.36
4066.00,1.37
4065.00,1.37
4064.00,1.37
4063.00,1.38
4062.00,1.38
4061.00,1.39
4060.00,1.39
4059.00,1.39
4058.00,1.40
4057.00,1.40
4056.00,1.41
4055.00,1.41
4054.00,1.42
4053.00,1.42
4052.00,1.43
4051.00,1.43
4050.00,1.43
4049.00,1.44
4048.00,1.44
4047.00,1.45
4046.00,1.45
4045.00,1.45
4044.00,1.46
4043.00,1.46
4042.00,1.46
4041.00,1.46
4040.00,1.46
4039.00,1.46
4038.00,1.46
4037.00,1.46
4036.00,1.46
4035.00,1.46
4034.00,1.46
4033.00,1.46
4032.00,1.46
4031.00,1.46
4030.00,1.46
4029.00,1.46
4028.00,1.46
4027.00,1.46
4026.00,1.46
4025.00,1.46
4024.00,1.46
4023.00,1.47
4022.00,1.47
4021.00,1.47
4020.00,1.48
4019.00,1.48
4018.00,1.48
4017.00,1.48
4016.00,1.49
4015.00,1.49
4014.00,1.49
4013.00,1.50
4012.00,1.50
4011.00,1.51
4010.00,1.52
4009.00,1.53
4008.00,1.54
4007.00,1.55
4006.00,1.55
4005.00,1.56
4004.00,1.57
4003.00,1.58
4002.00,1.59
4001.00,1.59
4000.00,1.60
