创建为新数据集,样品 222 用户 Administrator 日期 星期六, 七月 27 2019
cm-1,%T
10000.00,1.34
9999.00,1.34
9998.00,1.33
9997.00,1.33
9996.00,1.32
9995.00,1.32
9994.00,1.31
9993.00,1.31
9992.00,1.30
9991.00,1.30
9990.00,1.29
9989.00,1.28
9988.00,1.28
9987.00,1.27
9986.00,1.27
9985.00,1.26
9984.00,1.25
9983.00,1.25
9982.00,1.24
9981.00,1.24
9980.00,1.23
9979.00,1.22
9978.00,1.22
9977.00,1.21
9976.00,1.20
9975.00,1.20
9974.00,1.19
9973.00,1.19
9972.00,1.18
9971.00,1.17
9970.00,1.17
9969.00,1.16
9968.00,1.16
9967.00,1.15
9966.00,1.14
9965.00,1.14
9964.00,1.13
9963.00,1.13
9962.00,1.12
9961.00,1.12
9960.00,1.12
9959.00,1.12
9958.00,1.12
9957.00,1.12
9956.00,1.12
9955.00,1.12
9954.00,1.12
9953.00,1.12
9952.00,1.13
9951.00,1.13
9950.00,1.13
9949.00,1.13
9948.00,1.14
9947.00,1.14
9946.00,1.15
9945.00,1.15
9944.00,1.16
9943.00,1.16
9942.00,1.17
9941.00,1.18
9940.00,1.18
9939.00,1.19
9938.00,1.20
9937.00,1.21
9936.00,1.21
9935.00,1.22
9934.00,1.22
9933.00,1.23
9932.00,1.23
9931.00,1.24
9930.00,1.24
9929.00,1.24
9928.00,1.24
9927.00,1.24
9926.00,1.25
9925.00,1.25
9924.00,1.25
9923.00,1.25
9922.00,1.25
9921.00,1.25
9920.00,1.25
9919.00,1.26
9918.00,1.26
9917.00,1.26
9916.00,1.26
9915.00,1.26
9914.00,1.26
9913.00,1.26
9912.00,1.26
9911.00,1.26
9910.00,1.26
9909.00,1.26
9908.00,1.26
9907.00,1.26
9906.00,1.26
9905.00,1.26
9904.00,1.26
9903.00,1.27
9902.00,1.27
9901.00,1.27
9900.00,1.27
9899.00,1.27
9898.00,1.28
9897.00,1.28
9896.00,1.28
9895.00,1.28
9894.00,1.28
9893.00,1.29
9892.00,1.28
9891.00,1.28
9890.00,1.28
9889.00,1.28
9888.00,1.28
9887.00,1.27
9886.00,1.27
9885.00,1.26
9884.00,1.26
9883.00,1.25
9882.00,1.24
9881.00,1.24
9880.00,1.23
9879.00,1.23
9878.00,1.22
9877.00,1.21
9876.00,1.21
9875.00,1.20
9874.00,1.19
9873.00,1.18
9872.00,1.18
9871.00,1.17
9870.00,1.16
9869.00,1.16
9868.00,1.15
9867.00,1.15
9866.00,1.14
9865.00,1.14
9864.00,1.13
9863.00,1.13
9862.00,1.13
9861.00,1.13
9860.00,1.12
9859.00,1.12
9858.00,1.12
9857.00,1.13
9856.00,1.13
9855.00,1.13
9854.00,1.13
9853.00,1.14
9852.00,1.14
9851.00,1.15
9850.00,1.16
9849.00,1.16
9848.00,1.17
9847.00,1.17
9846.00,1.18
9845.00,1.19
9844.00,1.19
9843.00,1.20
9842.00,1.20
9841.00,1.21
9840.00,1.21
9839.00,1.22
9838.00,1.22
9837.00,1.23
9836.00,1.23
9835.00,1.24
9834.00,1.24
9833.00,1.24
9832.00,1.25
9831.00,1.25
9830.00,1.26
9829.00,1.26
9828.00,1.26
9827.00,1.26
9826.00,1.26
9825.00,1.26
9824.00,1.26
9823.00,1.26
9822.00,1.25
9821.00,1.25
9820.00,1.24
9819.00,1.24
9818.00,1.24
9817.00,1.23
9816.00,1.23
9815.00,1.22
9814.00,1.22
9813.00,1.21
9812.00,1.21
9811.00,1.21
9810.00,1.20
9809.00,1.20
9808.00,1.19
9807.00,1.18
9806.00,1.18
9805.00,1.17
9804.00,1.17
9803.00,1.16
9802.00,1.15
9801.00,1.15
9800.00,1.14
9799.00,1.14
9798.00,1.14
9797.00,1.13
9796.00,1.13
9795.00,1.13
9794.00,1.13
9793.00,1.13
9792.00,1.13
9791.00,1.13
9790.00,1.13
9789.00,1.13
9788.00,1.13
9787.00,1.13
9786.00,1.13
9785.00,1.13
9784.00,1.13
9783.00,1.13
9782.00,1.14
9781.00,1.14
9780.00,1.14
9779.00,1.14
9778.00,1.14
9777.00,1.14
9776.00,1.15
9775.00,1.15
9774.00,1.15
9773.00,1.15
9772.00,1.15
9771.00,1.16
9770.00,1.16
9769.00,1.16
9768.00,1.16
9767.00,1.16
9766.00,1.17
9765.00,1.17
9764.00,1.17
9763.00,1.17
9762.00,1.17
9761.00,1.17
9760.00,1.17
9759.00,1.18
9758.00,1.18
9757.00,1.18
9756.00,1.18
9755.00,1.19
9754.00,1.19
9753.00,1.20
9752.00,1.20
9751.00,1.20
9750.00,1.21
9749.00,1.21
9748.00,1.21
9747.00,1.21
9746.00,1.21
9745.00,1.21
9744.00,1.21
9743.00,1.21
9742.00,1.21
9741.00,1.22
9740.00,1.22
9739.00,1.22
9738.00,1.22
9737.00,1.22
9736.00,1.22
9735.00,1.22
9734.00,1.22
9733.00,1.22
9732.00,1.22
9731.00,1.22
9730.00,1.21
9729.00,1.21
9728.00,1.21
9727.00,1.21
9726.00,1.20
9725.00,1.20
9724.00,1.20
9723.00,1.20
9722.00,1.19
9721.00,1.19
9720.00,1.19
9719.00,1.19
9718.00,1.19
9717.00,1.19
9716.00,1.19
9715.00,1.19
9714.00,1.19
9713.00,1.19
9712.00,1.19
9711.00,1.19
9710.00,1.19
9709.00,1.19
9708.00,1.19
9707.00,1.20
9706.00,1.20
9705.00,1.20
9704.00,1.20
9703.00,1.20
9702.00,1.20
9701.00,1.21
9700.00,1.21
9699.00,1.21
9698.00,1.21
9697.00,1.21
9696.00,1.22
9695.00,1.22
9694.00,1.22
9693.00,1.22
9692.00,1.22
9691.00,1.22
9690.00,1.22
9689.00,1.22
9688.00,1.22
9687.00,1.21
9686.00,1.21
9685.00,1.21
9684.00,1.20
9683.00,1.20
9682.00,1.19
9681.00,1.19
9680.00,1.18
9679.00,1.17
9678.00,1.17
9677.00,1.16
9676.00,1.15
9675.00,1.15
9674.00,1.14
9673.00,1.14
9672.00,1.13
9671.00,1.13
9670.00,1.12
9669.00,1.12
9668.00,1.11
9667.00,1.11
9666.00,1.11
9665.00,1.11
9664.00,1.11
9663.00,1.11
9662.00,1.11
9661.00,1.11
9660.00,1.11
9659.00,1.12
9658.00,1.12
9657.00,1.13
9656.00,1.13
9655.00,1.14
9654.00,1.14
9653.00,1.15
9652.00,1.16
9651.00,1.16
9650.00,1.17
9649.00,1.18
9648.00,1.18
9647.00,1.19
9646.00,1.20
9645.00,1.20
9644.00,1.21
9643.00,1.21
9642.00,1.22
9641.00,1.22
9640.00,1.22
9639.00,1.23
9638.00,1.23
9637.00,1.23
9636.00,1.24
9635.00,1.24
9634.00,1.24
9633.00,1.24
9632.00,1.24
9631.00,1.24
9630.00,1.24
9629.00,1.24
9628.00,1.24
9627.00,1.24
9626.00,1.24
9625.00,1.24
9624.00,1.24
9623.00,1.24
9622.00,1.24
9621.00,1.24
9620.00,1.24
9619.00,1.24
9618.00,1.24
9617.00,1.24
9616.00,1.23
9615.00,1.23
9614.00,1.23
9613.00,1.23
9612.00,1.23
9611.00,1.23
9610.00,1.23
9609.00,1.23
9608.00,1.22
9607.00,1.22
9606.00,1.22
9605.00,1.22
9604.00,1.22
9603.00,1.22
9602.00,1.22
9601.00,1.21
9600.00,1.21
9599.00,1.21
9598.00,1.21
9597.00,1.20
9596.00,1.20
9595.00,1.20
9594.00,1.20
9593.00,1.19
9592.00,1.19
9591.00,1.19
9590.00,1.18
9589.00,1.18
9588.00,1.18
9587.00,1.17
9586.00,1.17
9585.00,1.17
9584.00,1.16
9583.00,1.16
9582.00,1.15
9581.00,1.15
9580.00,1.14
9579.00,1.14
9578.00,1.13
9577.00,1.13
9576.00,1.12
9575.00,1.12
9574.00,1.11
9573.00,1.11
9572.00,1.11
9571.00,1.10
9570.00,1.10
9569.00,1.09
9568.00,1.09
9567.00,1.09
9566.00,1.09
9565.00,1.08
9564.00,1.08
9563.00,1.08
9562.00,1.08
9561.00,1.08
9560.00,1.08
9559.00,1.08
9558.00,1.08
9557.00,1.08
9556.00,1.08
9555.00,1.08
9554.00,1.08
9553.00,1.09
9552.00,1.09
9551.00,1.09
9550.00,1.10
9549.00,1.10
9548.00,1.11
9547.00,1.11
9546.00,1.12
9545.00,1.12
9544.00,1.13
9543.00,1.14
9542.00,1.15
9541.00,1.15
9540.00,1.16
9539.00,1.17
9538.00,1.18
9537.00,1.18
9536.00,1.19
9535.00,1.19
9534.00,1.20
9533.00,1.20
9532.00,1.20
9531.00,1.21
9530.00,1.21
9529.00,1.21
9528.00,1.21
9527.00,1.21
9526.00,1.21
9525.00,1.21
9524.00,1.21
9523.00,1.21
9522.00,1.21
9521.00,1.21
9520.00,1.20
9519.00,1.20
9518.00,1.19
9517.00,1.19
9516.00,1.18
9515.00,1.17
9514.00,1.16
9513.00,1.15
9512.00,1.14
9511.00,1.13
9510.00,1.12
9509.00,1.11
9508.00,1.10
9507.00,1.09
9506.00,1.09
9505.00,1.08
9504.00,1.07
9503.00,1.06
9502.00,1.05
9501.00,1.05
9500.00,1.04
9499.00,1.04
9498.00,1.03
9497.00,1.02
9496.00,1.02
9495.00,1.02
9494.00,1.01
9493.00,1.01
9492.00,1.01
9491.00,1.01
9490.00,1.01
9489.00,1.01
9488.00,1.01
9487.00,1.02
9486.00,1.02
9485.00,1.03
9484.00,1.03
9483.00,1.03
9482.00,1.04
9481.00,1.04
9480.00,1.05
9479.00,1.05
9478.00,1.06
9477.00,1.07
9476.00,1.07
9475.00,1.08
9474.00,1.08
9473.00,1.09
9472.00,1.09
9471.00,1.10
9470.00,1.10
9469.00,1.10
9468.00,1.11
9467.00,1.11
9466.00,1.11
9465.00,1.11
9464.00,1.12
9463.00,1.12
9462.00,1.12
9461.00,1.12
9460.00,1.13
9459.00,1.13
9458.00,1.13
9457.00,1.13
9456.00,1.13
9455.00,1.13
9454.00,1.13
9453.00,1.13
9452.00,1.13
9451.00,1.13
9450.00,1.13
9449.00,1.12
9448.00,1.12
9447.00,1.12
9446.00,1.12
9445.00,1.12
9444.00,1.12
9443.00,1.11
9442.00,1.11
9441.00,1.11
9440.00,1.10
9439.00,1.10
9438.00,1.10
9437.00,1.09
9436.00,1.09
9435.00,1.08
9434.00,1.08
9433.00,1.08
9432.00,1.07
9431.00,1.07
9430.00,1.07
9429.00,1.06
9428.00,1.06
9427.00,1.06
9426.00,1.05
9425.00,1.05
9424.00,1.05
9423.00,1.04
9422.00,1.04
9421.00,1.04
9420.00,1.04
9419.00,1.03
9418.00,1.03
9417.00,1.03
9416.00,1.03
9415.00,1.03
9414.00,1.03
9413.00,1.03
9412.00,1.03
9411.00,1.03
9410.00,1.03
9409.00,1.04
9408.00,1.04
9407.00,1.04
9406.00,1.04
9405.00,1.04
9404.00,1.04
9403.00,1.04
9402.00,1.05
9401.00,1.05
9400.00,1.05
9399.00,1.06
9398.00,1.06
9397.00,1.07
9396.00,1.07
9395.00,1.08
9394.00,1.09
9393.00,1.09
9392.00,1.10
9391.00,1.11
9390.00,1.11
9389.00,1.12
9388.00,1.13
9387.00,1.13
9386.00,1.14
9385.00,1.15
9384.00,1.16
9383.00,1.17
9382.00,1.17
9381.00,1.18
9380.00,1.19
9379.00,1.19
9378.00,1.20
9377.00,1.20
9376.00,1.21
9375.00,1.21
9374.00,1.22
9373.00,1.22
9372.00,1.23
9371.00,1.23
9370.00,1.23
9369.00,1.23
9368.00,1.24
9367.00,1.24
9366.00,1.24
9365.00,1.23
9364.00,1.23
9363.00,1.23
9362.00,1.23
9361.00,1.22
9360.00,1.22
9359.00,1.21
9358.00,1.21
9357.00,1.20
9356.00,1.19
9355.00,1.19
9354.00,1.18
9353.00,1.17
9352.00,1.17
9351.00,1.16
9350.00,1.15
9349.00,1.14
9348.00,1.14
9347.00,1.13
9346.00,1.12
9345.00,1.11
9344.00,1.11
9343.00,1.10
9342.00,1.09
9341.00,1.08
9340.00,1.07
9339.00,1.07
9338.00,1.06
9337.00,1.06
9336.00,1.06
9335.00,1.05
9334.00,1.05
9333.00,1.05
9332.00,1.05
9331.00,1.05
9330.00,1.05
9329.00,1.05
9328.00,1.05
9327.00,1.05
9326.00,1.05
9325.00,1.05
9324.00,1.05
9323.00,1.05
9322.00,1.05
9321.00,1.05
9320.00,1.06
9319.00,1.06
9318.00,1.06
9317.00,1.07
9316.00,1.07
9315.00,1.08
9314.00,1.08
9313.00,1.08
9312.00,1.09
9311.00,1.09
9310.00,1.09
9309.00,1.10
9308.00,1.10
9307.00,1.10
9306.00,1.10
9305.00,1.11
9304.00,1.11
9303.00,1.12
9302.00,1.12
9301.00,1.12
9300.00,1.13
9299.00,1.13
9298.00,1.13
9297.00,1.14
9296.00,1.14
9295.00,1.14
9294.00,1.14
9293.00,1.14
9292.00,1.14
9291.00,1.14
9290.00,1.14
9289.00,1.14
9288.00,1.14
9287.00,1.14
9286.00,1.14
9285.00,1.14
9284.00,1.14
9283.00,1.14
9282.00,1.14
9281.00,1.14
9280.00,1.14
9279.00,1.14
9278.00,1.14
9277.00,1.14
9276.00,1.14
9275.00,1.14
9274.00,1.14
9273.00,1.14
9272.00,1.14
9271.00,1.14
9270.00,1.14
9269.00,1.14
9268.00,1.14
9267.00,1.14
9266.00,1.15
9265.00,1.15
9264.00,1.15
9263.00,1.16
9262.00,1.16
9261.00,1.16
9260.00,1.16
9259.00,1.17
9258.00,1.17
9257.00,1.17
9256.00,1.17
9255.00,1.17
9254.00,1.18
9253.00,1.18
9252.00,1.18
9251.00,1.18
9250.00,1.18
9249.00,1.18
9248.00,1.19
9247.00,1.19
9246.00,1.19
9245.00,1.19
9244.00,1.19
9243.00,1.19
9242.00,1.19
9241.00,1.19
9240.00,1.18
9239.00,1.18
9238.00,1.18
9237.00,1.18
9236.00,1.18
9235.00,1.18
9234.00,1.18
9233.00,1.18
9232.00,1.18
9231.00,1.18
9230.00,1.18
9229.00,1.18
9228.00,1.18
9227.00,1.18
9226.00,1.18
9225.00,1.18
9224.00,1.18
9223.00,1.18
9222.00,1.18
9221.00,1.18
9220.00,1.18
9219.00,1.17
9218.00,1.17
9217.00,1.17
9216.00,1.17
9215.00,1.17
9214.00,1.17
9213.00,1.17
9212.00,1.17
9211.00,1.17
9210.00,1.17
9209.00,1.17
9208.00,1.16
9207.00,1.16
9206.00,1.16
9205.00,1.16
9204.00,1.16
9203.00,1.16
9202.00,1.16
9201.00,1.16
9200.00,1.16
9199.00,1.16
9198.00,1.16
9197.00,1.17
9196.00,1.17
9195.00,1.18
9194.00,1.18
9193.00,1.19
9192.00,1.19
9191.00,1.20
9190.00,1.20
9189.00,1.21
9188.00,1.21
9187.00,1.22
9186.00,1.22
9185.00,1.23
9184.00,1.23
9183.00,1.23
9182.00,1.24
9181.00,1.24
9180.00,1.24
9179.00,1.25
9178.00,1.25
9177.00,1.25
9176.00,1.25
9175.00,1.25
9174.00,1.24
9173.00,1.24
9172.00,1.23
9171.00,1.23
9170.00,1.22
9169.00,1.22
9168.00,1.21
9167.00,1.21
9166.00,1.20
9165.00,1.19
9164.00,1.19
9163.00,1.18
9162.00,1.18
9161.00,1.17
9160.00,1.17
9159.00,1.16
9158.00,1.16
9157.00,1.16
9156.00,1.15
9155.00,1.15
9154.00,1.15
9153.00,1.14
9152.00,1.14
9151.00,1.14
9150.00,1.14
9149.00,1.14
9148.00,1.14
9147.00,1.14
9146.00,1.14
9145.00,1.14
9144.00,1.13
9143.00,1.13
9142.00,1.13
9141.00,1.13
9140.00,1.13
9139.00,1.13
9138.00,1.13
9137.00,1.13
9136.00,1.13
9135.00,1.13
9134.00,1.13
9133.00,1.13
9132.00,1.13
9131.00,1.13
9130.00,1.13
9129.00,1.13
9128.00,1.12
9127.00,1.12
9126.00,1.12
9125.00,1.12
9124.00,1.12
9123.00,1.12
9122.00,1.12
9121.00,1.12
9120.00,1.12
9119.00,1.12
9118.00,1.12
9117.00,1.12
9116.00,1.13
9115.00,1.13
9114.00,1.13
9113.00,1.13
9112.00,1.13
9111.00,1.12
9110.00,1.12
9109.00,1.12
9108.00,1.11
9107.00,1.11
9106.00,1.11
9105.00,1.10
9104.00,1.10
9103.00,1.09
9102.00,1.09
9101.00,1.09
9100.00,1.09
9099.00,1.09
9098.00,1.09
9097.00,1.09
9096.00,1.08
9095.00,1.08
9094.00,1.08
9093.00,1.08
9092.00,1.08
9091.00,1.08
9090.00,1.08
9089.00,1.08
9088.00,1.08
9087.00,1.08
9086.00,1.08
9085.00,1.09
9084.00,1.09
9083.00,1.10
9082.00,1.10
9081.00,1.10
9080.00,1.11
9079.00,1.11
9078.00,1.12
9077.00,1.12
9076.00,1.12
9075.00,1.13
9074.00,1.13
9073.00,1.13
9072.00,1.13
9071.00,1.13
9070.00,1.13
9069.00,1.14
9068.00,1.14
9067.00,1.14
9066.00,1.14
9065.00,1.14
9064.00,1.14
9063.00,1.14
9062.00,1.14
9061.00,1.14
9060.00,1.14
9059.00,1.14
9058.00,1.14
9057.00,1.14
9056.00,1.13
9055.00,1.13
9054.00,1.13
9053.00,1.13
9052.00,1.13
9051.00,1.13
9050.00,1.13
9049.00,1.13
9048.00,1.13
9047.00,1.13
9046.00,1.12
9045.00,1.12
9044.00,1.12
9043.00,1.12
9042.00,1.12
9041.00,1.12
9040.00,1.12
9039.00,1.11
9038.00,1.11
9037.00,1.11
9036.00,1.10
9035.00,1.10
9034.00,1.09
9033.00,1.08
9032.00,1.08
9031.00,1.07
9030.00,1.07
9029.00,1.06
9028.00,1.05
9027.00,1.05
9026.00,1.04
9025.00,1.04
9024.00,1.03
9023.00,1.02
9022.00,1.02
9021.00,1.01
9020.00,1.01
9019.00,1.00
9018.00,1.00
9017.00,1.00
9016.00,0.99
9015.00,0.99
9014.00,0.99
9013.00,0.99
9012.00,0.99
9011.00,0.99
9010.00,1.00
9009.00,1.00
9008.00,1.01
9007.00,1.01
9006.00,1.02
9005.00,1.02
9004.00,1.03
9003.00,1.04
9002.00,1.05
9001.00,1.05
9000.00,1.06
8999.00,1.07
8998.00,1.08
8997.00,1.09
8996.00,1.09
8995.00,1.10
8994.00,1.11
8993.00,1.12
8992.00,1.12
8991.00,1.13
8990.00,1.13
8989.00,1.14
8988.00,1.14
8987.00,1.15
8986.00,1.15
8985.00,1.15
8984.00,1.15
8983.00,1.15
8982.00,1.15
8981.00,1.15
8980.00,1.15
8979.00,1.15
8978.00,1.15
8977.00,1.15
8976.00,1.15
8975.00,1.15
8974.00,1.14
8973.00,1.14
8972.00,1.14
8971.00,1.14
8970.00,1.14
8969.00,1.13
8968.00,1.13
8967.00,1.13
8966.00,1.13
8965.00,1.13
8964.00,1.12
8963.00,1.12
8962.00,1.12
8961.00,1.12
8960.00,1.12
8959.00,1.11
8958.00,1.11
8957.00,1.11
8956.00,1.11
8955.00,1.10
8954.00,1.10
8953.00,1.10
8952.00,1.10
8951.00,1.09
8950.00,1.09
8949.00,1.09
8948.00,1.09
8947.00,1.08
8946.00,1.08
8945.00,1.08
8944.00,1.07
8943.00,1.07
8942.00,1.07
8941.00,1.07
8940.00,1.07
8939.00,1.06
8938.00,1.06
8937.00,1.06
8936.00,1.07
8935.00,1.07
8934.00,1.07
8933.00,1.07
8932.00,1.08
8931.00,1.08
8930.00,1.08
8929.00,1.09
8928.00,1.09
8927.00,1.10
8926.00,1.10
8925.00,1.11
8924.00,1.12
8923.00,1.12
8922.00,1.13
8921.00,1.14
8920.00,1.14
8919.00,1.15
8918.00,1.16
8917.00,1.17
8916.00,1.17
8915.00,1.18
8914.00,1.19
8913.00,1.20
8912.00,1.20
8911.00,1.21
8910.00,1.22
8909.00,1.22
8908.00,1.23
8907.00,1.23
8906.00,1.23
8905.00,1.24
8904.00,1.24
8903.00,1.24
8902.00,1.24
8901.00,1.24
8900.00,1.24
8899.00,1.24
8898.00,1.24
8897.00,1.24
8896.00,1.24
8895.00,1.23
8894.00,1.23
8893.00,1.23
8892.00,1.22
8891.00,1.22
8890.00,1.21
8889.00,1.20
8888.00,1.20
8887.00,1.19
8886.00,1.18
8885.00,1.18
8884.00,1.17
8883.00,1.16
8882.00,1.15
8881.00,1.15
8880.00,1.14
8879.00,1.13
8878.00,1.12
8877.00,1.12
8876.00,1.11
8875.00,1.11
8874.00,1.10
8873.00,1.10
8872.00,1.10
8871.00,1.09
8870.00,1.09
8869.00,1.09
8868.00,1.09
8867.00,1.09
8866.00,1.09
8865.00,1.10
8864.00,1.10
8863.00,1.10
8862.00,1.10
8861.00,1.11
8860.00,1.11
8859.00,1.12
8858.00,1.12
8857.00,1.12
8856.00,1.13
8855.00,1.14
8854.00,1.14
8853.00,1.15
8852.00,1.16
8851.00,1.17
8850.00,1.17
8849.00,1.18
8848.00,1.19
8847.00,1.20
8846.00,1.20
8845.00,1.21
8844.00,1.22
8843.00,1.22
8842.00,1.23
8841.00,1.23
8840.00,1.24
8839.00,1.24
8838.00,1.25
8837.00,1.25
8836.00,1.25
8835.00,1.26
8834.00,1.26
8833.00,1.26
8832.00,1.26
8831.00,1.26
8830.00,1.27
8829.00,1.27
8828.00,1.27
8827.00,1.27
8826.00,1.26
8825.00,1.26
8824.00,1.26
8823.00,1.26
8822.00,1.25
8821.00,1.25
8820.00,1.24
8819.00,1.24
8818.00,1.24
8817.00,1.23
8816.00,1.23
8815.00,1.22
8814.00,1.22
8813.00,1.21
8812.00,1.21
8811.00,1.20
8810.00,1.20
8809.00,1.20
8808.00,1.19
8807.00,1.19
8806.00,1.19
8805.00,1.19
8804.00,1.19
8803.00,1.18
8802.00,1.18
8801.00,1.18
8800.00,1.19
8799.00,1.19
8798.00,1.19
8797.00,1.19
8796.00,1.19
8795.00,1.19
8794.00,1.19
8793.00,1.19
8792.00,1.19
8791.00,1.19
8790.00,1.19
8789.00,1.19
8788.00,1.19
8787.00,1.19
8786.00,1.20
8785.00,1.20
8784.00,1.20
8783.00,1.20
8782.00,1.20
8781.00,1.20
8780.00,1.20
8779.00,1.20
8778.00,1.20
8777.00,1.20
8776.00,1.19
8775.00,1.19
8774.00,1.19
8773.00,1.18
8772.00,1.18
8771.00,1.18
8770.00,1.17
8769.00,1.17
8768.00,1.16
8767.00,1.16
8766.00,1.16
8765.00,1.15
8764.00,1.15
8763.00,1.15
8762.00,1.14
8761.00,1.14
8760.00,1.13
8759.00,1.13
8758.00,1.12
8757.00,1.12
8756.00,1.11
8755.00,1.11
8754.00,1.10
8753.00,1.09
8752.00,1.09
8751.00,1.08
8750.00,1.08
8749.00,1.08
8748.00,1.07
8747.00,1.07
8746.00,1.07
8745.00,1.07
8744.00,1.07
8743.00,1.07
8742.00,1.07
8741.00,1.07
8740.00,1.07
8739.00,1.07
8738.00,1.08
8737.00,1.08
8736.00,1.08
8735.00,1.08
8734.00,1.09
8733.00,1.09
8732.00,1.09
8731.00,1.10
8730.00,1.10
8729.00,1.11
8728.00,1.11
8727.00,1.11
8726.00,1.12
8725.00,1.12
8724.00,1.13
8723.00,1.13
8722.00,1.13
8721.00,1.14
8720.00,1.14
8719.00,1.14
8718.00,1.14
8717.00,1.14
8716.00,1.14
8715.00,1.13
8714.00,1.13
8713.00,1.13
8712.00,1.13
8711.00,1.13
8710.00,1.12
8709.00,1.12
8708.00,1.12
8707.00,1.12
8706.00,1.12
8705.00,1.12
8704.00,1.12
8703.00,1.12
8702.00,1.12
8701.00,1.12
8700.00,1.12
8699.00,1.12
8698.00,1.12
8697.00,1.13
8696.00,1.13
8695.00,1.13
8694.00,1.13
8693.00,1.14
8692.00,1.14
8691.00,1.14
8690.00,1.14
8689.00,1.15
8688.00,1.15
8687.00,1.16
8686.00,1.16
8685.00,1.16
8684.00,1.17
8683.00,1.17
8682.00,1.17
8681.00,1.17
8680.00,1.18
8679.00,1.18
8678.00,1.18
8677.00,1.18
8676.00,1.18
8675.00,1.18
8674.00,1.18
8673.00,1.18
8672.00,1.18
8671.00,1.18
8670.00,1.18
8669.00,1.18
8668.00,1.18
8667.00,1.18
8666.00,1.18
8665.00,1.18
8664.00,1.18
8663.00,1.18
8662.00,1.18
8661.00,1.18
8660.00,1.18
8659.00,1.18
8658.00,1.18
8657.00,1.18
8656.00,1.18
8655.00,1.18
8654.00,1.17
8653.00,1.17
8652.00,1.17
8651.00,1.17
8650.00,1.17
8649.00,1.16
8648.00,1.16
8647.00,1.16
8646.00,1.16
8645.00,1.15
8644.00,1.15
8643.00,1.15
8642.00,1.15
8641.00,1.15
8640.00,1.14
8639.00,1.14
8638.00,1.14
8637.00,1.14
8636.00,1.14
8635.00,1.14
8634.00,1.13
8633.00,1.13
8632.00,1.13
8631.00,1.13
8630.00,1.13
8629.00,1.12
8628.00,1.12
8627.00,1.12
8626.00,1.12
8625.00,1.12
8624.00,1.12
8623.00,1.12
8622.00,1.12
8621.00,1.12
8620.00,1.12
8619.00,1.12
8618.00,1.12
8617.00,1.12
8616.00,1.12
8615.00,1.12
8614.00,1.12
8613.00,1.12
8612.00,1.12
8611.00,1.12
8610.00,1.12
8609.00,1.12
8608.00,1.11
8607.00,1.11
8606.00,1.11
8605.00,1.11
8604.00,1.12
8603.00,1.12
8602.00,1.12
8601.00,1.12
8600.00,1.12
8599.00,1.12
8598.00,1.12
8597.00,1.12
8596.00,1.12
8595.00,1.12
8594.00,1.12
8593.00,1.12
8592.00,1.12
8591.00,1.13
8590.00,1.13
8589.00,1.13
8588.00,1.13
8587.00,1.13
8586.00,1.13
8585.00,1.13
8584.00,1.14
8583.00,1.14
8582.00,1.14
8581.00,1.14
8580.00,1.15
8579.00,1.15
8578.00,1.15
8577.00,1.15
8576.00,1.15
8575.00,1.15
8574.00,1.16
8573.00,1.16
8572.00,1.16
8571.00,1.16
8570.00,1.17
8569.00,1.17
8568.00,1.17
8567.00,1.17
8566.00,1.18
8565.00,1.18
8564.00,1.18
8563.00,1.18
8562.00,1.19
8561.00,1.19
8560.00,1.19
8559.00,1.19
8558.00,1.20
8557.00,1.20
8556.00,1.20
8555.00,1.20
8554.00,1.21
8553.00,1.21
8552.00,1.21
8551.00,1.21
8550.00,1.21
8549.00,1.22
8548.00,1.22
8547.00,1.22
8546.00,1.22
8545.00,1.22
8544.00,1.22
8543.00,1.22
8542.00,1.22
8541.00,1.22
8540.00,1.22
8539.00,1.22
8538.00,1.22
8537.00,1.22
8536.00,1.22
8535.00,1.21
8534.00,1.21
8533.00,1.21
8532.00,1.20
8531.00,1.20
8530.00,1.20
8529.00,1.20
8528.00,1.19
8527.00,1.19
8526.00,1.19
8525.00,1.18
8524.00,1.18
8523.00,1.18
8522.00,1.17
8521.00,1.17
8520.00,1.17
8519.00,1.16
8518.00,1.16
8517.00,1.16
8516.00,1.15
8515.00,1.15
8514.00,1.15
8513.00,1.15
8512.00,1.15
8511.00,1.14
8510.00,1.14
8509.00,1.14
8508.00,1.14
8507.00,1.14
8506.00,1.14
8505.00,1.14
8504.00,1.13
8503.00,1.13
8502.00,1.13
8501.00,1.13
8500.00,1.13
8499.00,1.12
8498.00,1.12
8497.00,1.12
8496.00,1.12
8495.00,1.12
8494.00,1.11
8493.00,1.11
8492.00,1.11
8491.00,1.11
8490.00,1.11
8489.00,1.10
8488.00,1.10
8487.00,1.10
8486.00,1.10
8485.00,1.10
8484.00,1.10
8483.00,1.10
8482.00,1.10
8481.00,1.10
8480.00,1.10
8479.00,1.10
8478.00,1.10
8477.00,1.11
8476.00,1.11
8475.00,1.11
8474.00,1.11
8473.00,1.12
8472.00,1.12
8471.00,1.12
8470.00,1.13
8469.00,1.13
8468.00,1.14
8467.00,1.14
8466.00,1.15
8465.00,1.15
8464.00,1.16
8463.00,1.16
8462.00,1.17
8461.00,1.17
8460.00,1.18
8459.00,1.18
8458.00,1.19
8457.00,1.19
8456.00,1.19
8455.00,1.19
8454.00,1.19
8453.00,1.19
8452.00,1.19
8451.00,1.19
8450.00,1.19
8449.00,1.19
8448.00,1.19
8447.00,1.19
8446.00,1.18
8445.00,1.18
8444.00,1.18
8443.00,1.17
8442.00,1.17
8441.00,1.16
8440.00,1.15
8439.00,1.15
8438.00,1.14
8437.00,1.13
8436.00,1.12
8435.00,1.12
8434.00,1.11
8433.00,1.10
8432.00,1.10
8431.00,1.09
8430.00,1.09
8429.00,1.09
8428.00,1.08
8427.00,1.08
8426.00,1.08
8425.00,1.08
8424.00,1.08
8423.00,1.07
8422.00,1.07
8421.00,1.07
8420.00,1.08
8419.00,1.08
8418.00,1.08
8417.00,1.08
8416.00,1.09
8415.00,1.09
8414.00,1.10
8413.00,1.11
8412.00,1.11
8411.00,1.12
8410.00,1.12
8409.00,1.13
8408.00,1.14
8407.00,1.14
8406.00,1.15
8405.00,1.15
8404.00,1.15
8403.00,1.16
8402.00,1.16
8401.00,1.16
8400.00,1.16
8399.00,1.17
8398.00,1.17
8397.00,1.17
8396.00,1.17
8395.00,1.17
8394.00,1.17
8393.00,1.17
8392.00,1.17
8391.00,1.17
8390.00,1.17
8389.00,1.17
8388.00,1.17
8387.00,1.17
8386.00,1.16
8385.00,1.16
8384.00,1.15
8383.00,1.15
8382.00,1.15
8381.00,1.14
8380.00,1.14
8379.00,1.14
8378.00,1.14
8377.00,1.14
8376.00,1.14
8375.00,1.14
8374.00,1.14
8373.00,1.14
8372.00,1.14
8371.00,1.14
8370.00,1.14
8369.00,1.14
8368.00,1.14
8367.00,1.14
8366.00,1.14
8365.00,1.14
8364.00,1.15
8363.00,1.15
8362.00,1.15
8361.00,1.15
8360.00,1.15
8359.00,1.16
8358.00,1.16
8357.00,1.16
8356.00,1.17
8355.00,1.17
8354.00,1.17
8353.00,1.18
8352.00,1.18
8351.00,1.18
8350.00,1.18
8349.00,1.18
8348.00,1.18
8347.00,1.18
8346.00,1.18
8345.00,1.18
8344.00,1.18
8343.00,1.18
8342.00,1.18
8341.00,1.18
8340.00,1.18
8339.00,1.17
8338.00,1.17
8337.00,1.17
8336.00,1.17
8335.00,1.17
8334.00,1.17
8333.00,1.17
8332.00,1.16
8331.00,1.16
8330.00,1.16
8329.00,1.15
8328.00,1.15
8327.00,1.15
8326.00,1.14
8325.00,1.14
8324.00,1.14
8323.00,1.13
8322.00,1.13
8321.00,1.13
8320.00,1.13
8319.00,1.12
8318.00,1.12
8317.00,1.12
8316.00,1.12
8315.00,1.12
8314.00,1.12
8313.00,1.12
8312.00,1.11
8311.00,1.11
8310.00,1.11
8309.00,1.11
8308.00,1.11
8307.00,1.11
8306.00,1.11
8305.00,1.11
8304.00,1.12
8303.00,1.12
8302.00,1.12
8301.00,1.12
8300.00,1.12
8299.00,1.13
8298.00,1.13
8297.00,1.13
8296.00,1.14
8295.00,1.14
8294.00,1.14
8293.00,1.15
8292.00,1.15
8291.00,1.16
8290.00,1.16
8289.00,1.16
8288.00,1.17
8287.00,1.17
8286.00,1.17
8285.00,1.18
8284.00,1.18
8283.00,1.18
8282.00,1.19
8281.00,1.19
8280.00,1.19
8279.00,1.19
8278.00,1.19
8277.00,1.20
8276.00,1.20
8275.00,1.20
8274.00,1.20
8273.00,1.20
8272.00,1.20
8271.00,1.20
8270.00,1.20
8269.00,1.20
8268.00,1.20
8267.00,1.20
8266.00,1.20
8265.00,1.20
8264.00,1.20
8263.00,1.20
8262.00,1.20
8261.00,1.20
8260.00,1.20
8259.00,1.20
8258.00,1.19
8257.00,1.19
8256.00,1.19
8255.00,1.19
8254.00,1.19
8253.00,1.19
8252.00,1.19
8251.00,1.19
8250.00,1.19
8249.00,1.18
8248.00,1.18
8247.00,1.18
8246.00,1.18
8245.00,1.18
8244.00,1.17
8243.00,1.17
8242.00,1.17
8241.00,1.17
8240.00,1.17
8239.00,1.16
8238.00,1.16
8237.00,1.16
8236.00,1.16
8235.00,1.16
8234.00,1.17
8233.00,1.17
8232.00,1.17
8231.00,1.17
8230.00,1.17
8229.00,1.17
8228.00,1.17
8227.00,1.18
8226.00,1.18
8225.00,1.18
8224.00,1.18
8223.00,1.18
8222.00,1.19
8221.00,1.19
8220.00,1.19
8219.00,1.19
8218.00,1.20
8217.00,1.20
8216.00,1.20
8215.00,1.20
8214.00,1.20
8213.00,1.20
8212.00,1.20
8211.00,1.20
8210.00,1.20
8209.00,1.20
8208.00,1.20
8207.00,1.20
8206.00,1.19
8205.00,1.19
8204.00,1.18
8203.00,1.18
8202.00,1.18
8201.00,1.17
8200.00,1.17
8199.00,1.17
8198.00,1.16
8197.00,1.16
8196.00,1.16
8195.00,1.15
8194.00,1.15
8193.00,1.15
8192.00,1.15
8191.00,1.14
8190.00,1.14
8189.00,1.14
8188.00,1.14
8187.00,1.14
8186.00,1.14
8185.00,1.14
8184.00,1.14
8183.00,1.14
8182.00,1.14
8181.00,1.15
8180.00,1.15
8179.00,1.15
8178.00,1.16
8177.00,1.16
8176.00,1.16
8175.00,1.16
8174.00,1.17
8173.00,1.17
8172.00,1.17
8171.00,1.17
8170.00,1.18
8169.00,1.18
8168.00,1.18
8167.00,1.18
8166.00,1.19
8165.00,1.19
8164.00,1.19
8163.00,1.19
8162.00,1.20
8161.00,1.20
8160.00,1.20
8159.00,1.20
8158.00,1.21
8157.00,1.21
8156.00,1.21
8155.00,1.21
8154.00,1.21
8153.00,1.21
8152.00,1.21
8151.00,1.21
8150.00,1.21
8149.00,1.21
8148.00,1.21
8147.00,1.22
8146.00,1.22
8145.00,1.22
8144.00,1.22
8143.00,1.23
8142.00,1.23
8141.00,1.23
8140.00,1.23
8139.00,1.23
8138.00,1.23
8137.00,1.23
8136.00,1.23
8135.00,1.23
8134.00,1.23
8133.00,1.23
8132.00,1.23
8131.00,1.23
8130.00,1.23
8129.00,1.23
8128.00,1.23
8127.00,1.23
8126.00,1.23
8125.00,1.22
8124.00,1.22
8123.00,1.22
8122.00,1.22
8121.00,1.21
8120.00,1.21
8119.00,1.21
8118.00,1.20
8117.00,1.20
8116.00,1.19
8115.00,1.19
8114.00,1.19
8113.00,1.18
8112.00,1.18
8111.00,1.18
8110.00,1.17
8109.00,1.17
8108.00,1.17
8107.00,1.17
8106.00,1.16
8105.00,1.16
8104.00,1.16
8103.00,1.16
8102.00,1.16
8101.00,1.16
8100.00,1.16
8099.00,1.16
8098.00,1.16
8097.00,1.16
8096.00,1.16
8095.00,1.16
8094.00,1.16
8093.00,1.16
8092.00,1.17
8091.00,1.17
8090.00,1.17
8089.00,1.18
8088.00,1.18
8087.00,1.18
8086.00,1.18
8085.00,1.18
8084.00,1.19
8083.00,1.19
8082.00,1.19
8081.00,1.19
8080.00,1.19
8079.00,1.20
8078.00,1.20
8077.00,1.20
8076.00,1.20
8075.00,1.20
8074.00,1.20
8073.00,1.21
8072.00,1.21
8071.00,1.21
8070.00,1.21
8069.00,1.21
8068.00,1.20
8067.00,1.20
8066.00,1.20
8065.00,1.20
8064.00,1.20
8063.00,1.20
8062.00,1.20
8061.00,1.20
8060.00,1.20
8059.00,1.20
8058.00,1.19
8057.00,1.19
8056.00,1.19
8055.00,1.19
8054.00,1.19
8053.00,1.19
8052.00,1.19
8051.00,1.19
8050.00,1.19
8049.00,1.19
8048.00,1.19
8047.00,1.19
8046.00,1.19
8045.00,1.19
8044.00,1.19
8043.00,1.19
8042.00,1.19
8041.00,1.19
8040.00,1.19
8039.00,1.19
8038.00,1.19
8037.00,1.19
8036.00,1.19
8035.00,1.20
8034.00,1.20
8033.00,1.20
8032.00,1.20
8031.00,1.20
8030.00,1.20
8029.00,1.20
8028.00,1.20
8027.00,1.20
8026.00,1.20
8025.00,1.20
8024.00,1.20
8023.00,1.20
8022.00,1.20
8021.00,1.19
8020.00,1.19
8019.00,1.19
8018.00,1.19
8017.00,1.19
8016.00,1.19
8015.00,1.19
8014.00,1.19
8013.00,1.18
8012.00,1.18
8011.00,1.18
8010.00,1.18
8009.00,1.18
8008.00,1.18
8007.00,1.18
8006.00,1.17
8005.00,1.17
8004.00,1.17
8003.00,1.17
8002.00,1.17
8001.00,1.17
8000.00,1.17
7999.00,1.17
7998.00,1.17
7997.00,1.17
7996.00,1.17
7995.00,1.18
7994.00,1.18
7993.00,1.18
7992.00,1.18
7991.00,1.18
7990.00,1.18
7989.00,1.18
7988.00,1.18
7987.00,1.18
7986.00,1.18
7985.00,1.18
7984.00,1.18
7983.00,1.18
7982.00,1.18
7981.00,1.18
7980.00,1.18
7979.00,1.18
7978.00,1.18
7977.00,1.18
7976.00,1.18
7975.00,1.18
7974.00,1.17
7973.00,1.17
7972.00,1.17
7971.00,1.17
7970.00,1.17
7969.00,1.17
7968.00,1.17
7967.00,1.17
7966.00,1.17
7965.00,1.17
7964.00,1.17
7963.00,1.17
7962.00,1.17
7961.00,1.18
7960.00,1.18
7959.00,1.18
7958.00,1.18
7957.00,1.18
7956.00,1.18
7955.00,1.18
7954.00,1.18
7953.00,1.19
7952.00,1.19
7951.00,1.19
7950.00,1.19
7949.00,1.19
7948.00,1.19
7947.00,1.19
7946.00,1.19
7945.00,1.19
7944.00,1.19
7943.00,1.20
7942.00,1.20
7941.00,1.20
7940.00,1.20
7939.00,1.20
7938.00,1.20
7937.00,1.19
7936.00,1.19
7935.00,1.19
7934.00,1.19
7933.00,1.19
7932.00,1.19
7931.00,1.19
7930.00,1.18
7929.00,1.18
7928.00,1.18
7927.00,1.18
7926.00,1.18
7925.00,1.18
7924.00,1.18
7923.00,1.18
7922.00,1.18
7921.00,1.18
7920.00,1.18
7919.00,1.18
7918.00,1.18
7917.00,1.18
7916.00,1.18
7915.00,1.18
7914.00,1.18
7913.00,1.18
7912.00,1.18
7911.00,1.18
7910.00,1.18
7909.00,1.18
7908.00,1.18
7907.00,1.18
7906.00,1.18
7905.00,1.18
7904.00,1.18
7903.00,1.18
7902.00,1.18
7901.00,1.18
7900.00,1.18
7899.00,1.18
7898.00,1.18
7897.00,1.17
7896.00,1.17
7895.00,1.17
7894.00,1.17
7893.00,1.17
7892.00,1.17
7891.00,1.16
7890.00,1.16
7889.00,1.16
7888.00,1.15
7887.00,1.15
7886.00,1.15
7885.00,1.15
7884.00,1.14
7883.00,1.14
7882.00,1.14
7881.00,1.13
7880.00,1.13
7879.00,1.13
7878.00,1.13
7877.00,1.13
7876.00,1.12
7875.00,1.12
7874.00,1.12
7873.00,1.12
7872.00,1.12
7871.00,1.11
7870.00,1.11
7869.00,1.11
7868.00,1.11
7867.00,1.11
7866.00,1.11
7865.00,1.12
7864.00,1.12
7863.00,1.12
7862.00,1.12
7861.00,1.13
7860.00,1.13
7859.00,1.14
7858.00,1.14
7857.00,1.15
7856.00,1.15
7855.00,1.16
7854.00,1.16
7853.00,1.17
7852.00,1.17
7851.00,1.17
7850.00,1.18
7849.00,1.18
7848.00,1.18
7847.00,1.18
7846.00,1.19
7845.00,1.19
7844.00,1.19
7843.00,1.19
7842.00,1.19
7841.00,1.19
7840.00,1.19
7839.00,1.19
7838.00,1.19
7837.00,1.19
7836.00,1.19
7835.00,1.18
7834.00,1.18
7833.00,1.18
7832.00,1.17
7831.00,1.17
7830.00,1.17
7829.00,1.16
7828.00,1.16
7827.00,1.16
7826.00,1.15
7825.00,1.15
7824.00,1.15
7823.00,1.15
7822.00,1.15
7821.00,1.15
7820.00,1.15
7819.00,1.15
7818.00,1.15
7817.00,1.15
7816.00,1.15
7815.00,1.15
7814.00,1.16
7813.00,1.16
7812.00,1.16
7811.00,1.16
7810.00,1.17
7809.00,1.17
7808.00,1.18
7807.00,1.18
7806.00,1.18
7805.00,1.19
7804.00,1.19
7803.00,1.20
7802.00,1.20
7801.00,1.21
7800.00,1.21
7799.00,1.22
7798.00,1.22
7797.00,1.22
7796.00,1.23
7795.00,1.23
7794.00,1.23
7793.00,1.23
7792.00,1.24
7791.00,1.24
7790.00,1.24
7789.00,1.24
7788.00,1.24
7787.00,1.24
7786.00,1.24
7785.00,1.24
7784.00,1.24
7783.00,1.24
7782.00,1.24
7781.00,1.24
7780.00,1.24
7779.00,1.24
7778.00,1.23
7777.00,1.23
7776.00,1.23
7775.00,1.23
7774.00,1.22
7773.00,1.22
7772.00,1.22
7771.00,1.21
7770.00,1.21
7769.00,1.21
7768.00,1.21
7767.00,1.21
7766.00,1.20
7765.00,1.20
7764.00,1.20
7763.00,1.20
7762.00,1.20
7761.00,1.20
7760.00,1.19
7759.00,1.19
7758.00,1.19
7757.00,1.19
7756.00,1.19
7755.00,1.19
7754.00,1.18
7753.00,1.18
7752.00,1.18
7751.00,1.18
7750.00,1.18
7749.00,1.19
7748.00,1.19
7747.00,1.19
7746.00,1.19
7745.00,1.19
7744.00,1.20
7743.00,1.20
7742.00,1.20
7741.00,1.20
7740.00,1.20
7739.00,1.21
7738.00,1.21
7737.00,1.21
7736.00,1.21
7735.00,1.21
7734.00,1.22
7733.00,1.22
7732.00,1.22
7731.00,1.22
7730.00,1.23
7729.00,1.23
7728.00,1.23
7727.00,1.24
7726.00,1.24
7725.00,1.25
7724.00,1.25
7723.00,1.25
7722.00,1.25
7721.00,1.26
7720.00,1.26
7719.00,1.26
7718.00,1.26
7717.00,1.26
7716.00,1.26
7715.00,1.26
7714.00,1.26
7713.00,1.26
7712.00,1.26
7711.00,1.26
7710.00,1.26
7709.00,1.26
7708.00,1.26
7707.00,1.26
7706.00,1.26
7705.00,1.26
7704.00,1.25
7703.00,1.25
7702.00,1.25
7701.00,1.24
7700.00,1.24
7699.00,1.23
7698.00,1.23
7697.00,1.23
7696.00,1.22
7695.00,1.22
7694.00,1.21
7693.00,1.21
7692.00,1.21
7691.00,1.21
7690.00,1.20
7689.00,1.20
7688.00,1.20
7687.00,1.20
7686.00,1.20
7685.00,1.20
7684.00,1.20
7683.00,1.20
7682.00,1.20
7681.00,1.20
7680.00,1.20
7679.00,1.20
7678.00,1.20
7677.00,1.20
7676.00,1.20
7675.00,1.21
7674.00,1.21
7673.00,1.21
7672.00,1.21
7671.00,1.21
7670.00,1.22
7669.00,1.22
7668.00,1.22
7667.00,1.22
7666.00,1.22
7665.00,1.22
7664.00,1.23
7663.00,1.23
7662.00,1.23
7661.00,1.22
7660.00,1.22
7659.00,1.22
7658.00,1.22
7657.00,1.22
7656.00,1.22
7655.00,1.21
7654.00,1.21
7653.00,1.21
7652.00,1.20
7651.00,1.20
7650.00,1.20
7649.00,1.20
7648.00,1.20
7647.00,1.19
7646.00,1.19
7645.00,1.19
7644.00,1.19
7643.00,1.19
7642.00,1.18
7641.00,1.18
7640.00,1.18
7639.00,1.18
7638.00,1.18
7637.00,1.17
7636.00,1.17
7635.00,1.17
7634.00,1.17
7633.00,1.17
7632.00,1.17
7631.00,1.17
7630.00,1.17
7629.00,1.18
7628.00,1.18
7627.00,1.18
7626.00,1.18
7625.00,1.18
7624.00,1.18
7623.00,1.18
7622.00,1.18
7621.00,1.18
7620.00,1.18
7619.00,1.18
7618.00,1.18
7617.00,1.18
7616.00,1.18
7615.00,1.18
7614.00,1.18
7613.00,1.18
7612.00,1.18
7611.00,1.18
7610.00,1.18
7609.00,1.18
7608.00,1.18
7607.00,1.18
7606.00,1.18
7605.00,1.18
7604.00,1.18
7603.00,1.18
7602.00,1.18
7601.00,1.18
7600.00,1.17
7599.00,1.17
7598.00,1.17
7597.00,1.17
7596.00,1.17
7595.00,1.17
7594.00,1.17
7593.00,1.17
7592.00,1.17
7591.00,1.17
7590.00,1.16
7589.00,1.16
7588.00,1.16
7587.00,1.16
7586.00,1.16
7585.00,1.16
7584.00,1.15
7583.00,1.15
7582.00,1.15
7581.00,1.15
7580.00,1.15
7579.00,1.15
7578.00,1.15
7577.00,1.14
7576.00,1.14
7575.00,1.14
7574.00,1.14
7573.00,1.14
7572.00,1.14
7571.00,1.14
7570.00,1.14
7569.00,1.14
7568.00,1.14
7567.00,1.14
7566.00,1.14
7565.00,1.14
7564.00,1.14
7563.00,1.14
7562.00,1.15
7561.00,1.15
7560.00,1.15
7559.00,1.16
7558.00,1.16
7557.00,1.16
7556.00,1.17
7555.00,1.17
7554.00,1.17
7553.00,1.18
7552.00,1.18
7551.00,1.19
7550.00,1.19
7549.00,1.19
7548.00,1.20
7547.00,1.20
7546.00,1.21
7545.00,1.21
7544.00,1.21
7543.00,1.22
7542.00,1.22
7541.00,1.22
7540.00,1.22
7539.00,1.22
7538.00,1.22
7537.00,1.22
7536.00,1.22
7535.00,1.22
7534.00,1.21
7533.00,1.21
7532.00,1.21
7531.00,1.21
7530.00,1.20
7529.00,1.20
7528.00,1.20
7527.00,1.19
7526.00,1.19
7525.00,1.19
7524.00,1.18
7523.00,1.18
7522.00,1.18
7521.00,1.18
7520.00,1.17
7519.00,1.17
7518.00,1.17
7517.00,1.16
7516.00,1.16
7515.00,1.16
7514.00,1.16
7513.00,1.16
7512.00,1.16
7511.00,1.16
7510.00,1.16
7509.00,1.16
7508.00,1.16
7507.00,1.17
7506.00,1.17
7505.00,1.17
7504.00,1.17
7503.00,1.17
7502.00,1.18
7501.00,1.18
7500.00,1.18
7499.00,1.18
7498.00,1.19
7497.00,1.19
7496.00,1.19
7495.00,1.19
7494.00,1.20
7493.00,1.20
7492.00,1.20
7491.00,1.20
7490.00,1.20
7489.00,1.21
7488.00,1.21
7487.00,1.21
7486.00,1.21
7485.00,1.21
7484.00,1.22
7483.00,1.22
7482.00,1.22
7481.00,1.22
7480.00,1.22
7479.00,1.22
7478.00,1.22
7477.00,1.22
7476.00,1.22
7475.00,1.22
7474.00,1.21
7473.00,1.21
7472.00,1.21
7471.00,1.21
7470.00,1.21
7469.00,1.21
7468.00,1.21
7467.00,1.21
7466.00,1.21
7465.00,1.20
7464.00,1.20
7463.00,1.20
7462.00,1.20
7461.00,1.20
7460.00,1.20
7459.00,1.19
7458.00,1.19
7457.00,1.19
7456.00,1.19
7455.00,1.19
7454.00,1.19
7453.00,1.18
7452.00,1.18
7451.00,1.18
7450.00,1.18
7449.00,1.19
7448.00,1.19
7447.00,1.19
7446.00,1.19
7445.00,1.19
7444.00,1.19
7443.00,1.19
7442.00,1.19
7441.00,1.19
7440.00,1.19
7439.00,1.19
7438.00,1.19
7437.00,1.19
7436.00,1.19
7435.00,1.20
7434.00,1.20
7433.00,1.20
7432.00,1.20
7431.00,1.20
7430.00,1.20
7429.00,1.20
7428.00,1.20
7427.00,1.20
7426.00,1.20
7425.00,1.20
7424.00,1.20
7423.00,1.20
7422.00,1.20
7421.00,1.19
7420.00,1.19
7419.00,1.19
7418.00,1.19
7417.00,1.19
7416.00,1.19
7415.00,1.19
7414.00,1.19
7413.00,1.18
7412.00,1.18
7411.00,1.18
7410.00,1.18
7409.00,1.18
7408.00,1.18
7407.00,1.17
7406.00,1.17
7405.00,1.17
7404.00,1.17
7403.00,1.17
7402.00,1.16
7401.00,1.16
7400.00,1.16
7399.00,1.16
7398.00,1.16
7397.00,1.16
7396.00,1.15
7395.00,1.15
7394.00,1.15
7393.00,1.15
7392.00,1.15
7391.00,1.15
7390.00,1.15
7389.00,1.15
7388.00,1.15
7387.00,1.14
7386.00,1.14
7385.00,1.14
7384.00,1.14
7383.00,1.14
7382.00,1.14
7381.00,1.14
7380.00,1.14
7379.00,1.15
7378.00,1.15
7377.00,1.15
7376.00,1.15
7375.00,1.15
7374.00,1.15
7373.00,1.15
7372.00,1.16
7371.00,1.16
7370.00,1.16
7369.00,1.16
7368.00,1.16
7367.00,1.16
7366.00,1.16
7365.00,1.16
7364.00,1.16
7363.00,1.16
7362.00,1.16
7361.00,1.16
7360.00,1.16
7359.00,1.16
7358.00,1.16
7357.00,1.16
7356.00,1.16
7355.00,1.16
7354.00,1.16
7353.00,1.16
7352.00,1.16
7351.00,1.16
7350.00,1.16
7349.00,1.16
7348.00,1.16
7347.00,1.16
7346.00,1.16
7345.00,1.16
7344.00,1.16
7343.00,1.16
7342.00,1.16
7341.00,1.16
7340.00,1.16
7339.00,1.16
7338.00,1.16
7337.00,1.16
7336.00,1.16
7335.00,1.16
7334.00,1.17
7333.00,1.17
7332.00,1.17
7331.00,1.17
7330.00,1.17
7329.00,1.17
7328.00,1.17
7327.00,1.17
7326.00,1.17
7325.00,1.17
7324.00,1.17
7323.00,1.17
7322.00,1.17
7321.00,1.17
7320.00,1.17
7319.00,1.17
7318.00,1.17
7317.00,1.17
7316.00,1.17
7315.00,1.17
7314.00,1.17
7313.00,1.17
7312.00,1.17
7311.00,1.17
7310.00,1.18
7309.00,1.18
7308.00,1.18
7307.00,1.18
7306.00,1.18
7305.00,1.18
7304.00,1.18
7303.00,1.18
7302.00,1.18
7301.00,1.19
7300.00,1.19
7299.00,1.19
7298.00,1.19
7297.00,1.19
7296.00,1.19
7295.00,1.19
7294.00,1.19
7293.00,1.19
7292.00,1.19
7291.00,1.19
7290.00,1.19
7289.00,1.19
7288.00,1.19
7287.00,1.19
7286.00,1.19
7285.00,1.19
7284.00,1.19
7283.00,1.19
7282.00,1.19
7281.00,1.19
7280.00,1.19
7279.00,1.18
7278.00,1.18
7277.00,1.18
7276.00,1.18
7275.00,1.18
7274.00,1.18
7273.00,1.18
7272.00,1.17
7271.00,1.17
7270.00,1.17
7269.00,1.17
7268.00,1.17
7267.00,1.17
7266.00,1.17
7265.00,1.17
7264.00,1.17
7263.00,1.17
7262.00,1.18
7261.00,1.18
7260.00,1.18
7259.00,1.18
7258.00,1.18
7257.00,1.18
7256.00,1.19
7255.00,1.19
7254.00,1.19
7253.00,1.19
7252.00,1.19
7251.00,1.19
7250.00,1.20
7249.00,1.20
7248.00,1.20
7247.00,1.20
7246.00,1.20
7245.00,1.20
7244.00,1.20
7243.00,1.20
7242.00,1.20
7241.00,1.19
7240.00,1.19
7239.00,1.19
7238.00,1.19
7237.00,1.19
7236.00,1.18
7235.00,1.18
7234.00,1.18
7233.00,1.18
7232.00,1.17
7231.00,1.17
7230.00,1.17
7229.00,1.17
7228.00,1.17
7227.00,1.16
7226.00,1.16
7225.00,1.16
7224.00,1.16
7223.00,1.15
7222.00,1.15
7221.00,1.15
7220.00,1.15
7219.00,1.15
7218.00,1.15
7217.00,1.15
7216.00,1.14
7215.00,1.14
7214.00,1.14
7213.00,1.14
7212.00,1.14
7211.00,1.14
7210.00,1.14
7209.00,1.14
7208.00,1.14
7207.00,1.14
7206.00,1.14
7205.00,1.14
7204.00,1.14
7203.00,1.14
7202.00,1.14
7201.00,1.14
7200.00,1.14
7199.00,1.14
7198.00,1.14
7197.00,1.14
7196.00,1.14
7195.00,1.14
7194.00,1.14
7193.00,1.14
7192.00,1.14
7191.00,1.14
7190.00,1.13
7189.00,1.13
7188.00,1.13
7187.00,1.13
7186.00,1.13
7185.00,1.13
7184.00,1.13
7183.00,1.13
7182.00,1.13
7181.00,1.13
7180.00,1.13
7179.00,1.13
7178.00,1.13
7177.00,1.13
7176.00,1.12
7175.00,1.12
7174.00,1.12
7173.00,1.12
7172.00,1.12
7171.00,1.12
7170.00,1.12
7169.00,1.12
7168.00,1.12
7167.00,1.12
7166.00,1.12
7165.00,1.12
7164.00,1.12
7163.00,1.12
7162.00,1.12
7161.00,1.12
7160.00,1.11
7159.00,1.11
7158.00,1.11
7157.00,1.11
7156.00,1.11
7155.00,1.11
7154.00,1.11
7153.00,1.11
7152.00,1.11
7151.00,1.10
7150.00,1.10
7149.00,1.10
7148.00,1.10
7147.00,1.10
7146.00,1.10
7145.00,1.10
7144.00,1.09
7143.00,1.09
7142.00,1.09
7141.00,1.09
7140.00,1.08
7139.00,1.08
7138.00,1.08
7137.00,1.08
7136.00,1.07
7135.00,1.07
7134.00,1.07
7133.00,1.07
7132.00,1.06
7131.00,1.06
7130.00,1.06
7129.00,1.06
7128.00,1.06
7127.00,1.05
7126.00,1.05
7125.00,1.05
7124.00,1.05
7123.00,1.04
7122.00,1.04
7121.00,1.04
7120.00,1.04
7119.00,1.04
7118.00,1.04
7117.00,1.03
7116.00,1.03
7115.00,1.03
7114.00,1.03
7113.00,1.03
7112.00,1.03
7111.00,1.02
7110.00,1.02
7109.00,1.02
7108.00,1.02
7107.00,1.02
7106.00,1.02
7105.00,1.02
7104.00,1.02
7103.00,1.02
7102.00,1.02
7101.00,1.02
7100.00,1.02
7099.00,1.01
7098.00,1.01
7097.00,1.01
7096.00,1.01
7095.00,1.01
7094.00,1.01
7093.00,1.01
7092.00,1.01
7091.00,1.01
7090.00,1.01
7089.00,1.01
7088.00,1.01
7087.00,1.01
7086.00,1.01
7085.00,1.01
7084.00,1.01
7083.00,1.01
7082.00,1.02
7081.00,1.02
7080.00,1.02
7079.00,1.02
7078.00,1.02
7077.00,1.02
7076.00,1.02
7075.00,1.02
7074.00,1.02
7073.00,1.02
7072.00,1.02
7071.00,1.02
7070.00,1.01
7069.00,1.01
7068.00,1.01
7067.00,1.01
7066.00,1.01
7065.00,1.01
7064.00,1.01
7063.00,1.01
7062.00,1.01
7061.00,1.01
7060.00,1.01
7059.00,1.01
7058.00,1.00
7057.00,1.00
7056.00,1.00
7055.00,1.00
7054.00,1.00
7053.00,0.99
7052.00,0.99
7051.00,0.99
7050.00,0.99
7049.00,0.99
7048.00,0.99
7047.00,0.99
7046.00,0.98
7045.00,0.98
7044.00,0.98
7043.00,0.98
7042.00,0.98
7041.00,0.98
7040.00,0.98
7039.00,0.98
7038.00,0.98
7037.00,0.98
7036.00,0.98
7035.00,0.98
7034.00,0.98
7033.00,0.98
7032.00,0.98
7031.00,0.98
7030.00,0.98
7029.00,0.98
7028.00,0.98
7027.00,0.98
7026.00,0.98
7025.00,0.99
7024.00,0.99
7023.00,0.99
7022.00,0.99
7021.00,0.99
7020.00,0.99
7019.00,0.99
7018.00,0.99
7017.00,0.99
7016.00,1.00
7015.00,1.00
7014.00,1.00
7013.00,1.00
7012.00,1.00
7011.00,1.00
7010.00,1.00
7009.00,1.00
7008.00,1.00
7007.00,1.00
7006.00,1.00
7005.00,1.00
7004.00,1.00
7003.00,1.01
7002.00,1.01
7001.00,1.01
7000.00,1.01
6999.00,1.01
6998.00,1.01
6997.00,1.01
6996.00,1.01
6995.00,1.01
6994.00,1.01
6993.00,1.01
6992.00,1.01
6991.00,1.00
6990.00,1.00
6989.00,1.00
6988.00,1.00
6987.00,1.00
6986.00,1.00
6985.00,1.00
6984.00,0.99
6983.00,0.99
6982.00,0.99
6981.00,0.99
6980.00,0.99
6979.00,0.99
6978.00,0.99
6977.00,0.99
6976.00,0.99
6975.00,0.98
6974.00,0.98
6973.00,0.98
6972.00,0.98
6971.00,0.98
6970.00,0.98
6969.00,0.98
6968.00,0.98
6967.00,0.98
6966.00,0.98
6965.00,0.98
6964.00,0.98
6963.00,0.98
6962.00,0.98
6961.00,0.98
6960.00,0.98
6959.00,0.98
6958.00,0.98
6957.00,0.98
6956.00,0.98
6955.00,0.98
6954.00,0.98
6953.00,0.99
6952.00,0.99
6951.00,0.99
6950.00,0.99
6949.00,0.99
6948.00,0.99
6947.00,0.99
6946.00,0.99
6945.00,0.99
6944.00,0.99
6943.00,0.99
6942.00,0.99
6941.00,0.99
6940.00,0.99
6939.00,0.99
6938.00,0.99
6937.00,0.99
6936.00,0.99
6935.00,0.99
6934.00,0.99
6933.00,0.99
6932.00,0.99
6931.00,0.99
6930.00,0.99
6929.00,0.99
6928.00,0.99
6927.00,0.99
6926.00,0.99
6925.00,0.99
6924.00,0.99
6923.00,0.99
6922.00,0.99
6921.00,0.98
6920.00,0.98
6919.00,0.98
6918.00,0.98
6917.00,0.98
6916.00,0.98
6915.00,0.98
6914.00,0.98
6913.00,0.98
6912.00,0.98
6911.00,0.98
6910.00,0.98
6909.00,0.97
6908.00,0.97
6907.00,0.97
6906.00,0.97
6905.00,0.97
6904.00,0.97
6903.00,0.97
6902.00,0.97
6901.00,0.97
6900.00,0.97
6899.00,0.97
6898.00,0.97
6897.00,0.97
6896.00,0.97
6895.00,0.97
6894.00,0.97
6893.00,0.97
6892.00,0.97
6891.00,0.97
6890.00,0.98
6889.00,0.98
6888.00,0.98
6887.00,0.98
6886.00,0.98
6885.00,0.98
6884.00,0.98
6883.00,0.97
6882.00,0.97
6881.00,0.97
6880.00,0.97
6879.00,0.97
6878.00,0.97
6877.00,0.97
6876.00,0.97
6875.00,0.97
6874.00,0.97
6873.00,0.97
6872.00,0.98
6871.00,0.98
6870.00,0.98
6869.00,0.98
6868.00,0.98
6867.00,0.98
6866.00,0.98
6865.00,0.98
6864.00,0.98
6863.00,0.98
6862.00,0.98
6861.00,0.99
6860.00,0.99
6859.00,0.99
6858.00,0.99
6857.00,0.99
6856.00,1.00
6855.00,1.00
6854.00,1.00
6853.00,1.00
6852.00,1.00
6851.00,1.00
6850.00,1.01
6849.00,1.01
6848.00,1.01
6847.00,1.01
6846.00,1.01
6845.00,1.01
6844.00,1.01
6843.00,1.01
6842.00,1.01
6841.00,1.01
6840.00,1.01
6839.00,1.01
6838.00,1.01
6837.00,1.01
6836.00,1.01
6835.00,1.01
6834.00,1.01
6833.00,1.01
6832.00,1.01
6831.00,1.01
6830.00,1.01
6829.00,1.01
6828.00,1.01
6827.00,1.01
6826.00,1.01
6825.00,1.01
6824.00,1.01
6823.00,1.01
6822.00,1.01
6821.00,1.01
6820.00,1.01
6819.00,1.01
6818.00,1.01
6817.00,1.01
6816.00,1.01
6815.00,1.01
6814.00,1.01
6813.00,1.01
6812.00,1.01
6811.00,1.01
6810.00,1.01
6809.00,1.01
6808.00,1.01
6807.00,1.01
6806.00,1.01
6805.00,1.01
6804.00,1.01
6803.00,1.01
6802.00,1.01
6801.00,1.01
6800.00,1.01
6799.00,1.02
6798.00,1.02
6797.00,1.02
6796.00,1.02
6795.00,1.02
6794.00,1.02
6793.00,1.02
6792.00,1.02
6791.00,1.02
6790.00,1.02
6789.00,1.02
6788.00,1.02
6787.00,1.02
6786.00,1.02
6785.00,1.02
6784.00,1.02
6783.00,1.02
6782.00,1.02
6781.00,1.02
6780.00,1.02
6779.00,1.02
6778.00,1.02
6777.00,1.03
6776.00,1.03
6775.00,1.03
6774.00,1.03
6773.00,1.03
6772.00,1.03
6771.00,1.03
6770.00,1.03
6769.00,1.03
6768.00,1.03
6767.00,1.03
6766.00,1.03
6765.00,1.03
6764.00,1.03
6763.00,1.03
6762.00,1.03
6761.00,1.03
6760.00,1.03
6759.00,1.03
6758.00,1.03
6757.00,1.03
6756.00,1.03
6755.00,1.03
6754.00,1.03
6753.00,1.03
6752.00,1.03
6751.00,1.03
6750.00,1.03
6749.00,1.03
6748.00,1.03
6747.00,1.03
6746.00,1.03
6745.00,1.03
6744.00,1.03
6743.00,1.03
6742.00,1.03
6741.00,1.03
6740.00,1.03
6739.00,1.03
6738.00,1.03
6737.00,1.03
6736.00,1.03
6735.00,1.03
6734.00,1.03
6733.00,1.03
6732.00,1.03
6731.00,1.03
6730.00,1.03
6729.00,1.03
6728.00,1.03
6727.00,1.03
6726.00,1.03
6725.00,1.03
6724.00,1.03
6723.00,1.03
6722.00,1.03
6721.00,1.03
6720.00,1.03
6719.00,1.03
6718.00,1.03
6717.00,1.03
6716.00,1.03
6715.00,1.03
6714.00,1.03
6713.00,1.03
6712.00,1.04
6711.00,1.04
6710.00,1.04
6709.00,1.04
6708.00,1.04
6707.00,1.04
6706.00,1.04
6705.00,1.05
6704.00,1.05
6703.00,1.05
6702.00,1.05
6701.00,1.05
6700.00,1.06
6699.00,1.06
6698.00,1.06
6697.00,1.06
6696.00,1.06
6695.00,1.06
6694.00,1.06
6693.00,1.07
6692.00,1.07
6691.00,1.07
6690.00,1.07
6689.00,1.07
6688.00,1.07
6687.00,1.07
6686.00,1.07
6685.00,1.07
6684.00,1.07
6683.00,1.07
6682.00,1.07
6681.00,1.07
6680.00,1.07
6679.00,1.07
6678.00,1.07
6677.00,1.07
6676.00,1.07
6675.00,1.06
6674.00,1.06
6673.00,1.06
6672.00,1.06
6671.00,1.06
6670.00,1.06
6669.00,1.06
6668.00,1.06
6667.00,1.06
6666.00,1.06
6665.00,1.06
6664.00,1.06
6663.00,1.06
6662.00,1.06
6661.00,1.06
6660.00,1.06
6659.00,1.06
6658.00,1.06
6657.00,1.06
6656.00,1.06
6655.00,1.07
6654.00,1.07
6653.00,1.07
6652.00,1.07
6651.00,1.07
6650.00,1.07
6649.00,1.08
6648.00,1.08
6647.00,1.08
6646.00,1.08
6645.00,1.08
6644.00,1.09
6643.00,1.09
6642.00,1.09
6641.00,1.09
6640.00,1.09
6639.00,1.09
6638.00,1.10
6637.00,1.10
6636.00,1.10
6635.00,1.10
6634.00,1.10
6633.00,1.11
6632.00,1.11
6631.00,1.11
6630.00,1.11
6629.00,1.11
6628.00,1.11
6627.00,1.11
6626.00,1.11
6625.00,1.11
6624.00,1.11
6623.00,1.11
6622.00,1.11
6621.00,1.11
6620.00,1.11
6619.00,1.11
6618.00,1.11
6617.00,1.11
6616.00,1.11
6615.00,1.11
6614.00,1.11
6613.00,1.11
6612.00,1.11
6611.00,1.11
6610.00,1.11
6609.00,1.11
6608.00,1.11
6607.00,1.10
6606.00,1.10
6605.00,1.10
6604.00,1.10
6603.00,1.10
6602.00,1.10
6601.00,1.10
6600.00,1.10
6599.00,1.10
6598.00,1.10
6597.00,1.10
6596.00,1.10
6595.00,1.10
6594.00,1.10
6593.00,1.10
6592.00,1.10
6591.00,1.10
6590.00,1.10
6589.00,1.11
6588.00,1.11
6587.00,1.11
6586.00,1.11
6585.00,1.11
6584.00,1.11
6583.00,1.11
6582.00,1.11
6581.00,1.11
6580.00,1.11
6579.00,1.12
6578.00,1.12
6577.00,1.12
6576.00,1.12
6575.00,1.12
6574.00,1.12
6573.00,1.11
6572.00,1.11
6571.00,1.11
6570.00,1.11
6569.00,1.11
6568.00,1.11
6567.00,1.11
6566.00,1.11
6565.00,1.11
6564.00,1.11
6563.00,1.11
6562.00,1.11
6561.00,1.11
6560.00,1.11
6559.00,1.11
6558.00,1.11
6557.00,1.10
6556.00,1.10
6555.00,1.10
6554.00,1.10
6553.00,1.10
6552.00,1.10
6551.00,1.10
6550.00,1.10
6549.00,1.10
6548.00,1.10
6547.00,1.10
6546.00,1.10
6545.00,1.10
6544.00,1.10
6543.00,1.11
6542.00,1.11
6541.00,1.11
6540.00,1.11
6539.00,1.11
6538.00,1.11
6537.00,1.11
6536.00,1.11
6535.00,1.11
6534.00,1.11
6533.00,1.11
6532.00,1.11
6531.00,1.11
6530.00,1.12
6529.00,1.12
6528.00,1.12
6527.00,1.12
6526.00,1.12
6525.00,1.12
6524.00,1.13
6523.00,1.13
6522.00,1.13
6521.00,1.13
6520.00,1.13
6519.00,1.13
6518.00,1.13
6517.00,1.13
6516.00,1.13
6515.00,1.13
6514.00,1.13
6513.00,1.13
6512.00,1.13
6511.00,1.13
6510.00,1.13
6509.00,1.13
6508.00,1.14
6507.00,1.14
6506.00,1.14
6505.00,1.14
6504.00,1.14
6503.00,1.14
6502.00,1.14
6501.00,1.14
6500.00,1.14
6499.00,1.14
6498.00,1.13
6497.00,1.13
6496.00,1.14
6495.00,1.14
6494.00,1.14
6493.00,1.14
6492.00,1.14
6491.00,1.14
6490.00,1.14
6489.00,1.15
6488.00,1.15
6487.00,1.15
6486.00,1.15
6485.00,1.15
6484.00,1.16
6483.00,1.16
6482.00,1.16
6481.00,1.16
6480.00,1.17
6479.00,1.17
6478.00,1.17
6477.00,1.17
6476.00,1.17
6475.00,1.17
6474.00,1.18
6473.00,1.18
6472.00,1.18
6471.00,1.18
6470.00,1.18
6469.00,1.19
6468.00,1.19
6467.00,1.19
6466.00,1.19
6465.00,1.19
6464.00,1.19
6463.00,1.19
6462.00,1.19
6461.00,1.19
6460.00,1.19
6459.00,1.18
6458.00,1.18
6457.00,1.18
6456.00,1.18
6455.00,1.18
6454.00,1.18
6453.00,1.18
6452.00,1.18
6451.00,1.18
6450.00,1.18
6449.00,1.18
6448.00,1.18
6447.00,1.18
6446.00,1.18
6445.00,1.18
6444.00,1.18
6443.00,1.18
6442.00,1.18
6441.00,1.18
6440.00,1.18
6439.00,1.18
6438.00,1.18
6437.00,1.19
6436.00,1.19
6435.00,1.19
6434.00,1.19
6433.00,1.19
6432.00,1.19
6431.00,1.19
6430.00,1.19
6429.00,1.19
6428.00,1.19
6427.00,1.19
6426.00,1.20
6425.00,1.20
6424.00,1.20
6423.00,1.20
6422.00,1.20
6421.00,1.20
6420.00,1.20
6419.00,1.20
6418.00,1.20
6417.00,1.19
6416.00,1.19
6415.00,1.19
6414.00,1.19
6413.00,1.19
6412.00,1.19
6411.00,1.19
6410.00,1.19
6409.00,1.19
6408.00,1.19
6407.00,1.19
6406.00,1.19
6405.00,1.19
6404.00,1.19
6403.00,1.19
6402.00,1.18
6401.00,1.18
6400.00,1.18
6399.00,1.18
6398.00,1.18
6397.00,1.18
6396.00,1.18
6395.00,1.18
6394.00,1.18
6393.00,1.18
6392.00,1.18
6391.00,1.18
6390.00,1.18
6389.00,1.18
6388.00,1.18
6387.00,1.18
6386.00,1.19
6385.00,1.19
6384.00,1.19
6383.00,1.19
6382.00,1.19
6381.00,1.19
6380.00,1.19
6379.00,1.19
6378.00,1.19
6377.00,1.19
6376.00,1.19
6375.00,1.19
6374.00,1.19
6373.00,1.19
6372.00,1.19
6371.00,1.19
6370.00,1.19
6369.00,1.19
6368.00,1.19
6367.00,1.19
6366.00,1.19
6365.00,1.19
6364.00,1.19
6363.00,1.19
6362.00,1.19
6361.00,1.19
6360.00,1.19
6359.00,1.19
6358.00,1.19
6357.00,1.19
6356.00,1.19
6355.00,1.19
6354.00,1.20
6353.00,1.20
6352.00,1.20
6351.00,1.20
6350.00,1.20
6349.00,1.20
6348.00,1.20
6347.00,1.20
6346.00,1.20
6345.00,1.20
6344.00,1.20
6343.00,1.20
6342.00,1.20
6341.00,1.21
6340.00,1.21
6339.00,1.21
6338.00,1.21
6337.00,1.21
6336.00,1.21
6335.00,1.21
6334.00,1.21
6333.00,1.21
6332.00,1.21
6331.00,1.21
6330.00,1.21
6329.00,1.21
6328.00,1.21
6327.00,1.21
6326.00,1.22
6325.00,1.22
6324.00,1.22
6323.00,1.22
6322.00,1.22
6321.00,1.22
6320.00,1.22
6319.00,1.22
6318.00,1.22
6317.00,1.22
6316.00,1.23
6315.00,1.23
6314.00,1.23
6313.00,1.23
6312.00,1.23
6311.00,1.23
6310.00,1.23
6309.00,1.23
6308.00,1.23
6307.00,1.23
6306.00,1.23
6305.00,1.23
6304.00,1.23
6303.00,1.23
6302.00,1.23
6301.00,1.23
6300.00,1.23
6299.00,1.23
6298.00,1.23
6297.00,1.23
6296.00,1.23
6295.00,1.23
6294.00,1.23
6293.00,1.22
6292.00,1.22
6291.00,1.22
6290.00,1.22
6289.00,1.22
6288.00,1.22
6287.00,1.21
6286.00,1.21
6285.00,1.21
6284.00,1.21
6283.00,1.21
6282.00,1.21
6281.00,1.21
6280.00,1.21
6279.00,1.21
6278.00,1.21
6277.00,1.21
6276.00,1.21
6275.00,1.21
6274.00,1.21
6273.00,1.21
6272.00,1.21
6271.00,1.21
6270.00,1.21
6269.00,1.21
6268.00,1.21
6267.00,1.21
6266.00,1.21
6265.00,1.21
6264.00,1.21
6263.00,1.22
6262.00,1.22
6261.00,1.22
6260.00,1.22
6259.00,1.23
6258.00,1.23
6257.00,1.23
6256.00,1.23
6255.00,1.24
6254.00,1.24
6253.00,1.24
6252.00,1.24
6251.00,1.25
6250.00,1.25
6249.00,1.25
6248.00,1.25
6247.00,1.25
6246.00,1.26
6245.00,1.26
6244.00,1.26
6243.00,1.26
6242.00,1.27
6241.00,1.27
6240.00,1.27
6239.00,1.27
6238.00,1.27
6237.00,1.27
6236.00,1.27
6235.00,1.27
6234.00,1.28
6233.00,1.28
6232.00,1.28
6231.00,1.28
6230.00,1.28
6229.00,1.28
6228.00,1.28
6227.00,1.28
6226.00,1.28
6225.00,1.28
6224.00,1.28
6223.00,1.28
6222.00,1.28
6221.00,1.28
6220.00,1.28
6219.00,1.28
6218.00,1.28
6217.00,1.28
6216.00,1.29
6215.00,1.29
6214.00,1.29
6213.00,1.29
6212.00,1.29
6211.00,1.29
6210.00,1.29
6209.00,1.29
6208.00,1.29
6207.00,1.29
6206.00,1.29
6205.00,1.29
6204.00,1.29
6203.00,1.29
6202.00,1.29
6201.00,1.29
6200.00,1.29
6199.00,1.29
6198.00,1.29
6197.00,1.29
6196.00,1.29
6195.00,1.29
6194.00,1.29
6193.00,1.29
6192.00,1.29
6191.00,1.29
6190.00,1.29
6189.00,1.29
6188.00,1.29
6187.00,1.29
6186.00,1.29
6185.00,1.29
6184.00,1.29
6183.00,1.29
6182.00,1.29
6181.00,1.29
6180.00,1.28
6179.00,1.28
6178.00,1.28
6177.00,1.28
6176.00,1.28
6175.00,1.28
6174.00,1.28
6173.00,1.28
6172.00,1.28
6171.00,1.28
6170.00,1.28
6169.00,1.27
6168.00,1.27
6167.00,1.27
6166.00,1.27
6165.00,1.27
6164.00,1.27
6163.00,1.27
6162.00,1.27
6161.00,1.27
6160.00,1.27
6159.00,1.27
6158.00,1.27
6157.00,1.27
6156.00,1.27
6155.00,1.27
6154.00,1.27
6153.00,1.27
6152.00,1.27
6151.00,1.27
6150.00,1.27
6149.00,1.27
6148.00,1.27
6147.00,1.27
6146.00,1.27
6145.00,1.28
6144.00,1.28
6143.00,1.28
6142.00,1.28
6141.00,1.28
6140.00,1.28
6139.00,1.28
6138.00,1.28
6137.00,1.28
6136.00,1.28
6135.00,1.28
6134.00,1.28
6133.00,1.28
6132.00,1.28
6131.00,1.28
6130.00,1.28
6129.00,1.28
6128.00,1.28
6127.00,1.28
6126.00,1.27
6125.00,1.27
6124.00,1.27
6123.00,1.27
6122.00,1.27
6121.00,1.27
6120.00,1.27
6119.00,1.27
6118.00,1.27
6117.00,1.26
6116.00,1.26
6115.00,1.26
6114.00,1.26
6113.00,1.26
6112.00,1.26
6111.00,1.26
6110.00,1.26
6109.00,1.26
6108.00,1.26
6107.00,1.26
6106.00,1.26
6105.00,1.26
6104.00,1.26
6103.00,1.26
6102.00,1.26
6101.00,1.27
6100.00,1.27
6099.00,1.27
6098.00,1.27
6097.00,1.27
6096.00,1.27
6095.00,1.28
6094.00,1.28
6093.00,1.28
6092.00,1.28
6091.00,1.28
6090.00,1.29
6089.00,1.29
6088.00,1.29
6087.00,1.29
6086.00,1.30
6085.00,1.30
6084.00,1.30
6083.00,1.30
6082.00,1.30
6081.00,1.30
6080.00,1.30
6079.00,1.31
6078.00,1.31
6077.00,1.31
6076.00,1.31
6075.00,1.31
6074.00,1.31
6073.00,1.31
6072.00,1.31
6071.00,1.31
6070.00,1.31
6069.00,1.31
6068.00,1.31
6067.00,1.31
6066.00,1.31
6065.00,1.31
6064.00,1.31
6063.00,1.31
6062.00,1.31
6061.00,1.31
6060.00,1.31
6059.00,1.31
6058.00,1.31
6057.00,1.31
6056.00,1.31
6055.00,1.31
6054.00,1.31
6053.00,1.31
6052.00,1.31
6051.00,1.31
6050.00,1.31
6049.00,1.31
6048.00,1.31
6047.00,1.31
6046.00,1.31
6045.00,1.31
6044.00,1.31
6043.00,1.31
6042.00,1.31
6041.00,1.31
6040.00,1.31
6039.00,1.31
6038.00,1.31
6037.00,1.31
6036.00,1.31
6035.00,1.31
6034.00,1.31
6033.00,1.31
6032.00,1.31
6031.00,1.31
6030.00,1.31
6029.00,1.31
6028.00,1.31
6027.00,1.31
6026.00,1.31
6025.00,1.31
6024.00,1.31
6023.00,1.31
6022.00,1.31
6021.00,1.31
6020.00,1.31
6019.00,1.31
6018.00,1.31
6017.00,1.31
6016.00,1.31
6015.00,1.31
6014.00,1.31
6013.00,1.31
6012.00,1.31
6011.00,1.31
6010.00,1.31
6009.00,1.31
6008.00,1.31
6007.00,1.31
6006.00,1.31
6005.00,1.31
6004.00,1.31
6003.00,1.31
6002.00,1.31
6001.00,1.31
6000.00,1.31
5999.00,1.31
5998.00,1.31
5997.00,1.31
5996.00,1.31
5995.00,1.31
5994.00,1.31
5993.00,1.31
5992.00,1.31
5991.00,1.31
5990.00,1.31
5989.00,1.31
5988.00,1.31
5987.00,1.31
5986.00,1.31
5985.00,1.31
5984.00,1.31
5983.00,1.31
5982.00,1.31
5981.00,1.31
5980.00,1.31
5979.00,1.31
5978.00,1.31
5977.00,1.31
5976.00,1.31
5975.00,1.31
5974.00,1.31
5973.00,1.31
5972.00,1.31
5971.00,1.31
5970.00,1.31
5969.00,1.31
5968.00,1.30
5967.00,1.30
5966.00,1.30
5965.00,1.30
5964.00,1.30
5963.00,1.30
5962.00,1.30
5961.00,1.30
5960.00,1.30
5959.00,1.30
5958.00,1.29
5957.00,1.29
5956.00,1.29
5955.00,1.29
5954.00,1.29
5953.00,1.29
5952.00,1.28
5951.00,1.28
5950.00,1.28
5949.00,1.28
5948.00,1.28
5947.00,1.28
5946.00,1.28
5945.00,1.28
5944.00,1.28
5943.00,1.27
5942.00,1.27
5941.00,1.27
5940.00,1.27
5939.00,1.27
5938.00,1.27
5937.00,1.27
5936.00,1.27
5935.00,1.27
5934.00,1.27
5933.00,1.27
5932.00,1.27
5931.00,1.27
5930.00,1.27
5929.00,1.27
5928.00,1.27
5927.00,1.27
5926.00,1.27
5925.00,1.27
5924.00,1.27
5923.00,1.27
5922.00,1.27
5921.00,1.27
5920.00,1.27
5919.00,1.27
5918.00,1.28
5917.00,1.28
5916.00,1.28
5915.00,1.28
5914.00,1.28
5913.00,1.28
5912.00,1.28
5911.00,1.28
5910.00,1.28
5909.00,1.28
5908.00,1.28
5907.00,1.29
5906.00,1.29
5905.00,1.29
5904.00,1.29
5903.00,1.29
5902.00,1.29
5901.00,1.29
5900.00,1.29
5899.00,1.29
5898.00,1.29
5897.00,1.29
5896.00,1.29
5895.00,1.29
5894.00,1.29
5893.00,1.29
5892.00,1.29
5891.00,1.29
5890.00,1.29
5889.00,1.29
5888.00,1.29
5887.00,1.29
5886.00,1.29
5885.00,1.29
5884.00,1.29
5883.00,1.29
5882.00,1.29
5881.00,1.29
5880.00,1.29
5879.00,1.29
5878.00,1.29
5877.00,1.29
5876.00,1.29
5875.00,1.29
5874.00,1.29
5873.00,1.29
5872.00,1.29
5871.00,1.29
5870.00,1.29
5869.00,1.29
5868.00,1.29
5867.00,1.29
5866.00,1.29
5865.00,1.29
5864.00,1.29
5863.00,1.29
5862.00,1.29
5861.00,1.29
5860.00,1.29
5859.00,1.30
5858.00,1.30
5857.00,1.30
5856.00,1.30
5855.00,1.30
5854.00,1.30
5853.00,1.30
5852.00,1.30
5851.00,1.30
5850.00,1.30
5849.00,1.30
5848.00,1.30
5847.00,1.30
5846.00,1.30
5845.00,1.30
5844.00,1.30
5843.00,1.30
5842.00,1.30
5841.00,1.30
5840.00,1.30
5839.00,1.30
5838.00,1.30
5837.00,1.30
5836.00,1.30
5835.00,1.30
5834.00,1.30
5833.00,1.30
5832.00,1.30
5831.00,1.30
5830.00,1.30
5829.00,1.30
5828.00,1.29
5827.00,1.29
5826.00,1.29
5825.00,1.29
5824.00,1.29
5823.00,1.29
5822.00,1.29
5821.00,1.29
5820.00,1.29
5819.00,1.29
5818.00,1.29
5817.00,1.29
5816.00,1.29
5815.00,1.29
5814.00,1.29
5813.00,1.29
5812.00,1.29
5811.00,1.29
5810.00,1.28
5809.00,1.28
5808.00,1.28
5807.00,1.28
5806.00,1.28
5805.00,1.28
5804.00,1.28
5803.00,1.28
5802.00,1.28
5801.00,1.28
5800.00,1.28
5799.00,1.28
5798.00,1.28
5797.00,1.28
5796.00,1.28
5795.00,1.29
5794.00,1.29
5793.00,1.29
5792.00,1.29
5791.00,1.29
5790.00,1.29
5789.00,1.29
5788.00,1.29
5787.00,1.29
5786.00,1.29
5785.00,1.29
5784.00,1.29
5783.00,1.29
5782.00,1.29
5781.00,1.29
5780.00,1.29
5779.00,1.29
5778.00,1.29
5777.00,1.29
5776.00,1.29
5775.00,1.29
5774.00,1.29
5773.00,1.29
5772.00,1.29
5771.00,1.29
5770.00,1.29
5769.00,1.29
5768.00,1.29
5767.00,1.29
5766.00,1.29
5765.00,1.29
5764.00,1.29
5763.00,1.28
5762.00,1.28
5761.00,1.28
5760.00,1.28
5759.00,1.28
5758.00,1.28
5757.00,1.28
5756.00,1.28
5755.00,1.28
5754.00,1.28
5753.00,1.28
5752.00,1.28
5751.00,1.28
5750.00,1.28
5749.00,1.28
5748.00,1.28
5747.00,1.28
5746.00,1.28
5745.00,1.28
5744.00,1.28
5743.00,1.28
5742.00,1.28
5741.00,1.28
5740.00,1.28
5739.00,1.28
5738.00,1.28
5737.00,1.28
5736.00,1.28
5735.00,1.28
5734.00,1.28
5733.00,1.28
5732.00,1.28
5731.00,1.28
5730.00,1.28
5729.00,1.28
5728.00,1.28
5727.00,1.28
5726.00,1.28
5725.00,1.28
5724.00,1.28
5723.00,1.28
5722.00,1.28
5721.00,1.28
5720.00,1.28
5719.00,1.28
5718.00,1.28
5717.00,1.28
5716.00,1.28
5715.00,1.28
5714.00,1.28
5713.00,1.28
5712.00,1.28
5711.00,1.28
5710.00,1.28
5709.00,1.28
5708.00,1.28
5707.00,1.28
5706.00,1.28
5705.00,1.28
5704.00,1.28
5703.00,1.28
5702.00,1.28
5701.00,1.28
5700.00,1.28
5699.00,1.28
5698.00,1.28
5697.00,1.28
5696.00,1.28
5695.00,1.28
5694.00,1.28
5693.00,1.28
5692.00,1.28
5691.00,1.28
5690.00,1.28
5689.00,1.28
5688.00,1.28
5687.00,1.28
5686.00,1.28
5685.00,1.28
5684.00,1.28
5683.00,1.28
5682.00,1.28
5681.00,1.28
5680.00,1.28
5679.00,1.28
5678.00,1.28
5677.00,1.28
5676.00,1.28
5675.00,1.28
5674.00,1.28
5673.00,1.28
5672.00,1.29
5671.00,1.29
5670.00,1.29
5669.00,1.29
5668.00,1.29
5667.00,1.29
5666.00,1.29
5665.00,1.29
5664.00,1.29
5663.00,1.29
5662.00,1.29
5661.00,1.29
5660.00,1.29
5659.00,1.29
5658.00,1.29
5657.00,1.29
5656.00,1.29
5655.00,1.29
5654.00,1.29
5653.00,1.29
5652.00,1.29
5651.00,1.29
5650.00,1.29
5649.00,1.29
5648.00,1.30
5647.00,1.30
5646.00,1.30
5645.00,1.30
5644.00,1.30
5643.00,1.30
5642.00,1.30
5641.00,1.30
5640.00,1.30
5639.00,1.30
5638.00,1.30
5637.00,1.30
5636.00,1.30
5635.00,1.30
5634.00,1.30
5633.00,1.30
5632.00,1.30
5631.00,1.30
5630.00,1.30
5629.00,1.30
5628.00,1.30
5627.00,1.30
5626.00,1.30
5625.00,1.31
5624.00,1.31
5623.00,1.31
5622.00,1.31
5621.00,1.31
5620.00,1.31
5619.00,1.31
5618.00,1.31
5617.00,1.31
5616.00,1.31
5615.00,1.31
5614.00,1.31
5613.00,1.31
5612.00,1.31
5611.00,1.31
5610.00,1.31
5609.00,1.31
5608.00,1.31
5607.00,1.30
5606.00,1.30
5605.00,1.30
5604.00,1.30
5603.00,1.30
5602.00,1.30
5601.00,1.30
5600.00,1.30
5599.00,1.30
5598.00,1.30
5597.00,1.30
5596.00,1.30
5595.00,1.29
5594.00,1.29
5593.00,1.29
5592.00,1.29
5591.00,1.29
5590.00,1.29
5589.00,1.29
5588.00,1.29
5587.00,1.29
5586.00,1.29
5585.00,1.29
5584.00,1.29
5583.00,1.29
5582.00,1.29
5581.00,1.29
5580.00,1.29
5579.00,1.29
5578.00,1.29
5577.00,1.29
5576.00,1.29
5575.00,1.29
5574.00,1.29
5573.00,1.29
5572.00,1.29
5571.00,1.29
5570.00,1.29
5569.00,1.29
5568.00,1.29
5567.00,1.29
5566.00,1.30
5565.00,1.30
5564.00,1.30
5563.00,1.29
5562.00,1.29
5561.00,1.29
5560.00,1.29
5559.00,1.29
5558.00,1.29
5557.00,1.29
5556.00,1.29
5555.00,1.29
5554.00,1.29
5553.00,1.29
5552.00,1.29
5551.00,1.29
5550.00,1.29
5549.00,1.29
5548.00,1.29
5547.00,1.29
5546.00,1.29
5545.00,1.29
5544.00,1.29
5543.00,1.29
5542.00,1.29
5541.00,1.29
5540.00,1.29
5539.00,1.29
5538.00,1.29
5537.00,1.29
5536.00,1.29
5535.00,1.29
5534.00,1.29
5533.00,1.29
5532.00,1.29
5531.00,1.29
5530.00,1.29
5529.00,1.29
5528.00,1.29
5527.00,1.29
5526.00,1.29
5525.00,1.29
5524.00,1.29
5523.00,1.29
5522.00,1.29
5521.00,1.29
5520.00,1.29
5519.00,1.29
5518.00,1.29
5517.00,1.29
5516.00,1.29
5515.00,1.29
5514.00,1.29
5513.00,1.29
5512.00,1.29
5511.00,1.29
5510.00,1.29
5509.00,1.30
5508.00,1.30
5507.00,1.30
5506.00,1.30
5505.00,1.30
5504.00,1.30
5503.00,1.30
5502.00,1.30
5501.00,1.30
5500.00,1.30
5499.00,1.30
5498.00,1.30
5497.00,1.30
5496.00,1.30
5495.00,1.30
5494.00,1.30
5493.00,1.30
5492.00,1.30
5491.00,1.30
5490.00,1.30
5489.00,1.30
5488.00,1.30
5487.00,1.30
5486.00,1.30
5485.00,1.30
5484.00,1.30
5483.00,1.30
5482.00,1.30
5481.00,1.30
5480.00,1.30
5479.00,1.30
5478.00,1.30
5477.00,1.30
5476.00,1.30
5475.00,1.30
5474.00,1.30
5473.00,1.30
5472.00,1.30
5471.00,1.30
5470.00,1.30
5469.00,1.30
5468.00,1.30
5467.00,1.30
5466.00,1.30
5465.00,1.30
5464.00,1.30
5463.00,1.30
5462.00,1.30
5461.00,1.30
5460.00,1.30
5459.00,1.30
5458.00,1.30
5457.00,1.30
5456.00,1.30
5455.00,1.30
5454.00,1.30
5453.00,1.30
5452.00,1.30
5451.00,1.30
5450.00,1.30
5449.00,1.30
5448.00,1.30
5447.00,1.30
5446.00,1.30
5445.00,1.30
5444.00,1.30
5443.00,1.30
5442.00,1.30
5441.00,1.30
5440.00,1.30
5439.00,1.30
5438.00,1.30
5437.00,1.31
5436.00,1.31
5435.00,1.31
5434.00,1.31
5433.00,1.31
5432.00,1.31
5431.00,1.31
5430.00,1.31
5429.00,1.31
5428.00,1.31
5427.00,1.31
5426.00,1.31
5425.00,1.32
5424.00,1.32
5423.00,1.32
5422.00,1.32
5421.00,1.32
5420.00,1.32
5419.00,1.32
5418.00,1.32
5417.00,1.32
5416.00,1.32
5415.00,1.32
5414.00,1.32
5413.00,1.32
5412.00,1.32
5411.00,1.32
5410.00,1.32
5409.00,1.32
5408.00,1.32
5407.00,1.31
5406.00,1.31
5405.00,1.31
5404.00,1.31
5403.00,1.31
5402.00,1.31
5401.00,1.30
5400.00,1.30
5399.00,1.30
5398.00,1.30
5397.00,1.29
5396.00,1.29
5395.00,1.29
5394.00,1.29
5393.00,1.28
5392.00,1.28
5391.00,1.28
5390.00,1.28
5389.00,1.28
5388.00,1.28
5387.00,1.28
5386.00,1.28
5385.00,1.28
5384.00,1.28
5383.00,1.28
5382.00,1.28
5381.00,1.28
5380.00,1.28
5379.00,1.27
5378.00,1.27
5377.00,1.27
5376.00,1.27
5375.00,1.27
5374.00,1.27
5373.00,1.27
5372.00,1.27
5371.00,1.27
5370.00,1.27
5369.00,1.27
5368.00,1.27
5367.00,1.26
5366.00,1.26
5365.00,1.26
5364.00,1.26
5363.00,1.26
5362.00,1.25
5361.00,1.25
5360.00,1.25
5359.00,1.24
5358.00,1.24
5357.00,1.24
5356.00,1.23
5355.00,1.23
5354.00,1.23
5353.00,1.22
5352.00,1.22
5351.00,1.22
5350.00,1.21
5349.00,1.21
5348.00,1.21
5347.00,1.21
5346.00,1.20
5345.00,1.20
5344.00,1.20
5343.00,1.19
5342.00,1.19
5341.00,1.19
5340.00,1.19
5339.00,1.18
5338.00,1.18
5337.00,1.18
5336.00,1.18
5335.00,1.17
5334.00,1.17
5333.00,1.17
5332.00,1.17
5331.00,1.17
5330.00,1.16
5329.00,1.16
5328.00,1.16
5327.00,1.15
5326.00,1.15
5325.00,1.15
5324.00,1.15
5323.00,1.14
5322.00,1.14
5321.00,1.14
5320.00,1.13
5319.00,1.13
5318.00,1.13
5317.00,1.12
5316.00,1.12
5315.00,1.11
5314.00,1.11
5313.00,1.11
5312.00,1.10
5311.00,1.10
5310.00,1.09
5309.00,1.08
5308.00,1.08
5307.00,1.07
5306.00,1.07
5305.00,1.06
5304.00,1.06
5303.00,1.05
5302.00,1.05
5301.00,1.04
5300.00,1.03
5299.00,1.03
5298.00,1.02
5297.00,1.02
5296.00,1.01
5295.00,1.01
5294.00,1.00
5293.00,0.99
5292.00,0.99
5291.00,0.98
5290.00,0.98
5289.00,0.97
5288.00,0.97
5287.00,0.96
5286.00,0.96
5285.00,0.95
5284.00,0.95
5283.00,0.94
5282.00,0.94
5281.00,0.93
5280.00,0.93
5279.00,0.93
5278.00,0.92
5277.00,0.92
5276.00,0.91
5275.00,0.91
5274.00,0.91
5273.00,0.90
5272.00,0.90
5271.00,0.90
5270.00,0.89
5269.00,0.89
5268.00,0.88
5267.00,0.88
5266.00,0.88
5265.00,0.87
5264.00,0.87
5263.00,0.87
5262.00,0.86
5261.00,0.86
5260.00,0.86
5259.00,0.85
5258.00,0.85
5257.00,0.85
5256.00,0.84
5255.00,0.84
5254.00,0.83
5253.00,0.83
5252.00,0.83
5251.00,0.82
5250.00,0.82
5249.00,0.81
5248.00,0.81
5247.00,0.81
5246.00,0.80
5245.00,0.80
5244.00,0.80
5243.00,0.79
5242.00,0.79
5241.00,0.79
5240.00,0.79
5239.00,0.79
5238.00,0.78
5237.00,0.78
5236.00,0.78
5235.00,0.78
5234.00,0.78
5233.00,0.77
5232.00,0.77
5231.00,0.77
5230.00,0.77
5229.00,0.77
5228.00,0.77
5227.00,0.77
5226.00,0.76
5225.00,0.76
5224.00,0.76
5223.00,0.76
5222.00,0.76
5221.00,0.76
5220.00,0.76
5219.00,0.76
5218.00,0.76
5217.00,0.76
5216.00,0.76
5215.00,0.75
5214.00,0.75
5213.00,0.75
5212.00,0.75
5211.00,0.75
5210.00,0.75
5209.00,0.74
5208.00,0.74
5207.00,0.74
5206.00,0.74
5205.00,0.74
5204.00,0.74
5203.00,0.74
5202.00,0.74
5201.00,0.74
5200.00,0.73
5199.00,0.73
5198.00,0.73
5197.00,0.73
5196.00,0.73
5195.00,0.73
5194.00,0.73
5193.00,0.73
5192.00,0.73
5191.00,0.73
5190.00,0.73
5189.00,0.73
5188.00,0.73
5187.00,0.73
5186.00,0.73
5185.00,0.73
5184.00,0.73
5183.00,0.73
5182.00,0.73
5181.00,0.73
5180.00,0.73
5179.00,0.73
5178.00,0.73
5177.00,0.73
5176.00,0.73
5175.00,0.73
5174.00,0.73
5173.00,0.73
5172.00,0.73
5171.00,0.73
5170.00,0.73
5169.00,0.73
5168.00,0.73
5167.00,0.73
5166.00,0.73
5165.00,0.73
5164.00,0.73
5163.00,0.73
5162.00,0.73
5161.00,0.73
5160.00,0.73
5159.00,0.73
5158.00,0.73
5157.00,0.73
5156.00,0.73
5155.00,0.73
5154.00,0.73
5153.00,0.74
5152.00,0.74
5151.00,0.74
5150.00,0.74
5149.00,0.74
5148.00,0.74
5147.00,0.74
5146.00,0.74
5145.00,0.74
5144.00,0.74
5143.00,0.74
5142.00,0.74
5141.00,0.74
5140.00,0.75
5139.00,0.75
5138.00,0.75
5137.00,0.75
5136.00,0.75
5135.00,0.75
5134.00,0.76
5133.00,0.76
5132.00,0.76
5131.00,0.76
5130.00,0.76
5129.00,0.76
5128.00,0.77
5127.00,0.77
5126.00,0.77
5125.00,0.77
5124.00,0.77
5123.00,0.77
5122.00,0.78
5121.00,0.78
5120.00,0.78
5119.00,0.78
5118.00,0.78
5117.00,0.78
5116.00,0.78
5115.00,0.78
5114.00,0.78
5113.00,0.79
5112.00,0.79
5111.00,0.79
5110.00,0.79
5109.00,0.79
5108.00,0.79
5107.00,0.79
5106.00,0.79
5105.00,0.79
5104.00,0.79
5103.00,0.79
5102.00,0.79
5101.00,0.79
5100.00,0.80
5099.00,0.80
5098.00,0.80
5097.00,0.80
5096.00,0.80
5095.00,0.80
5094.00,0.80
5093.00,0.80
5092.00,0.81
5091.00,0.81
5090.00,0.81
5089.00,0.81
5088.00,0.81
5087.00,0.81
5086.00,0.82
5085.00,0.82
5084.00,0.82
5083.00,0.82
5082.00,0.82
5081.00,0.83
5080.00,0.83
5079.00,0.83
5078.00,0.83
5077.00,0.83
5076.00,0.84
5075.00,0.84
5074.00,0.84
5073.00,0.84
5072.00,0.84
5071.00,0.85
5070.00,0.85
5069.00,0.85
5068.00,0.85
5067.00,0.85
5066.00,0.86
5065.00,0.86
5064.00,0.86
5063.00,0.86
5062.00,0.86
5061.00,0.87
5060.00,0.87
5059.00,0.87
5058.00,0.87
5057.00,0.87
5056.00,0.87
5055.00,0.88
5054.00,0.88
5053.00,0.88
5052.00,0.88
5051.00,0.88
5050.00,0.88
5049.00,0.88
5048.00,0.88
5047.00,0.88
5046.00,0.88
5045.00,0.88
5044.00,0.88
5043.00,0.88
5042.00,0.88
5041.00,0.88
5040.00,0.89
5039.00,0.89
5038.00,0.89
5037.00,0.89
5036.00,0.89
5035.00,0.89
5034.00,0.89
5033.00,0.89
5032.00,0.89
5031.00,0.90
5030.00,0.90
5029.00,0.90
5028.00,0.90
5027.00,0.90
5026.00,0.91
5025.00,0.91
5024.00,0.91
5023.00,0.91
5022.00,0.92
5021.00,0.92
5020.00,0.92
5019.00,0.92
5018.00,0.93
5017.00,0.93
5016.00,0.93
5015.00,0.93
5014.00,0.94
5013.00,0.94
5012.00,0.94
5011.00,0.94
5010.00,0.94
5009.00,0.95
5008.00,0.95
5007.00,0.95
5006.00,0.95
5005.00,0.95
5004.00,0.95
5003.00,0.96
5002.00,0.96
5001.00,0.96
5000.00,0.96
4999.00,0.96
4998.00,0.96
4997.00,0.96
4996.00,0.96
4995.00,0.96
4994.00,0.96
4993.00,0.96
4992.00,0.96
4991.00,0.96
4990.00,0.96
4989.00,0.96
4988.00,0.96
4987.00,0.96
4986.00,0.97
4985.00,0.97
4984.00,0.97
4983.00,0.97
4982.00,0.97
4981.00,0.97
4980.00,0.97
4979.00,0.97
4978.00,0.97
4977.00,0.98
4976.00,0.98
4975.00,0.98
4974.00,0.98
4973.00,0.98
4972.00,0.98
4971.00,0.99
4970.00,0.99
4969.00,0.99
4968.00,0.99
4967.00,0.99
4966.00,1.00
4965.00,1.00
4964.00,1.00
4963.00,1.00
4962.00,1.00
4961.00,1.00
4960.00,1.01
4959.00,1.01
4958.00,1.01
4957.00,1.01
4956.00,1.01
4955.00,1.01
4954.00,1.01
4953.00,1.02
4952.00,1.02
4951.00,1.02
4950.00,1.02
4949.00,1.02
4948.00,1.03
4947.00,1.03
4946.00,1.03
4945.00,1.03
4944.00,1.03
4943.00,1.03
4942.00,1.04
4941.00,1.04
4940.00,1.04
4939.00,1.04
4938.00,1.04
4937.00,1.04
4936.00,1.05
4935.00,1.05
4934.00,1.05
4933.00,1.05
4932.00,1.05
4931.00,1.06
4930.00,1.06
4929.00,1.06
4928.00,1.06
4927.00,1.06
4926.00,1.06
4925.00,1.06
4924.00,1.07
4923.00,1.07
4922.00,1.07
4921.00,1.07
4920.00,1.07
4919.00,1.07
4918.00,1.07
4917.00,1.07
4916.00,1.07
4915.00,1.08
4914.00,1.08
4913.00,1.08
4912.00,1.08
4911.00,1.08
4910.00,1.08
4909.00,1.08
4908.00,1.08
4907.00,1.08
4906.00,1.08
4905.00,1.08
4904.00,1.08
4903.00,1.08
4902.00,1.09
4901.00,1.09
4900.00,1.09
4899.00,1.09
4898.00,1.09
4897.00,1.09
4896.00,1.09
4895.00,1.09
4894.00,1.09
4893.00,1.10
4892.00,1.10
4891.00,1.10
4890.00,1.10
4889.00,1.10
4888.00,1.10
4887.00,1.10
4886.00,1.10
4885.00,1.10
4884.00,1.10
4883.00,1.10
4882.00,1.10
4881.00,1.10
4880.00,1.11
4879.00,1.11
4878.00,1.11
4877.00,1.11
4876.00,1.11
4875.00,1.11
4874.00,1.11
4873.00,1.11
4872.00,1.11
4871.00,1.11
4870.00,1.11
4869.00,1.11
4868.00,1.11
4867.00,1.11
4866.00,1.11
4865.00,1.11
4864.00,1.11
4863.00,1.11
4862.00,1.11
4861.00,1.11
4860.00,1.11
4859.00,1.11
4858.00,1.11
4857.00,1.11
4856.00,1.12
4855.00,1.12
4854.00,1.12
4853.00,1.12
4852.00,1.12
4851.00,1.12
4850.00,1.12
4849.00,1.12
4848.00,1.12
4847.00,1.12
4846.00,1.12
4845.00,1.12
4844.00,1.12
4843.00,1.13
4842.00,1.13
4841.00,1.13
4840.00,1.13
4839.00,1.13
4838.00,1.13
4837.00,1.13
4836.00,1.14
4835.00,1.14
4834.00,1.14
4833.00,1.14
4832.00,1.14
4831.00,1.14
4830.00,1.14
4829.00,1.15
4828.00,1.15
4827.00,1.15
4826.00,1.15
4825.00,1.15
4824.00,1.15
4823.00,1.15
4822.00,1.16
4821.00,1.16
4820.00,1.16
4819.00,1.16
4818.00,1.16
4817.00,1.16
4816.00,1.16
4815.00,1.17
4814.00,1.17
4813.00,1.17
4812.00,1.17
4811.00,1.17
4810.00,1.17
4809.00,1.17
4808.00,1.18
4807.00,1.18
4806.00,1.18
4805.00,1.18
4804.00,1.18
4803.00,1.18
4802.00,1.18
4801.00,1.18
4800.00,1.18
4799.00,1.18
4798.00,1.18
4797.00,1.18
4796.00,1.18
4795.00,1.18
4794.00,1.18
4793.00,1.18
4792.00,1.18
4791.00,1.18
4790.00,1.18
4789.00,1.18
4788.00,1.18
4787.00,1.18
4786.00,1.18
4785.00,1.18
4784.00,1.18
4783.00,1.18
4782.00,1.19
4781.00,1.19
4780.00,1.19
4779.00,1.19
4778.00,1.19
4777.00,1.19
4776.00,1.19
4775.00,1.19
4774.00,1.19
4773.00,1.19
4772.00,1.19
4771.00,1.20
4770.00,1.20
4769.00,1.20
4768.00,1.20
4767.00,1.20
4766.00,1.20
4765.00,1.20
4764.00,1.21
4763.00,1.21
4762.00,1.21
4761.00,1.21
4760.00,1.21
4759.00,1.21
4758.00,1.21
4757.00,1.22
4756.00,1.22
4755.00,1.22
4754.00,1.22
4753.00,1.22
4752.00,1.22
4751.00,1.22
4750.00,1.22
4749.00,1.22
4748.00,1.22
4747.00,1.23
4746.00,1.23
4745.00,1.23
4744.00,1.23
4743.00,1.23
4742.00,1.23
4741.00,1.24
4740.00,1.24
4739.00,1.24
4738.00,1.24
4737.00,1.24
4736.00,1.24
4735.00,1.24
4734.00,1.25
4733.00,1.25
4732.00,1.25
4731.00,1.25
4730.00,1.25
4729.00,1.25
4728.00,1.26
4727.00,1.26
4726.00,1.26
4725.00,1.26
4724.00,1.26
4723.00,1.27
4722.00,1.27
4721.00,1.27
4720.00,1.27
4719.00,1.27
4718.00,1.27
4717.00,1.27
4716.00,1.27
4715.00,1.28
4714.00,1.28
4713.00,1.28
4712.00,1.28
4711.00,1.28
4710.00,1.28
4709.00,1.28
4708.00,1.29
4707.00,1.29
4706.00,1.29
4705.00,1.29
4704.00,1.29
4703.00,1.29
4702.00,1.29
4701.00,1.30
4700.00,1.30
4699.00,1.30
4698.00,1.30
4697.00,1.30
4696.00,1.30
4695.00,1.30
4694.00,1.31
4693.00,1.31
4692.00,1.31
4691.00,1.31
4690.00,1.31
4689.00,1.31
4688.00,1.31
4687.00,1.31
4686.00,1.31
4685.00,1.31
4684.00,1.31
4683.00,1.31
4682.00,1.31
4681.00,1.31
4680.00,1.31
4679.00,1.31
4678.00,1.31
4677.00,1.31
4676.00,1.30
4675.00,1.30
4674.00,1.30
4673.00,1.30
4672.00,1.30
4671.00,1.29
4670.00,1.29
4669.00,1.29
4668.00,1.29
4667.00,1.29
4666.00,1.29
4665.00,1.29
4664.00,1.29
4663.00,1.29
4662.00,1.29
4661.00,1.29
4660.00,1.29
4659.00,1.29
4658.00,1.29
4657.00,1.29
4656.00,1.29
4655.00,1.29
4654.00,1.29
4653.00,1.29
4652.00,1.29
4651.00,1.29
4650.00,1.29
4649.00,1.29
4648.00,1.29
4647.00,1.29
4646.00,1.29
4645.00,1.29
4644.00,1.29
4643.00,1.30
4642.00,1.30
4641.00,1.30
4640.00,1.30
4639.00,1.30
4638.00,1.30
4637.00,1.30
4636.00,1.30
4635.00,1.29
4634.00,1.29
4633.00,1.29
4632.00,1.29
4631.00,1.29
4630.00,1.29
4629.00,1.29
4628.00,1.29
4627.00,1.29
4626.00,1.29
4625.00,1.29
4624.00,1.29
4623.00,1.29
4622.00,1.29
4621.00,1.29
4620.00,1.29
4619.00,1.29
4618.00,1.29
4617.00,1.29
4616.00,1.29
4615.00,1.29
4614.00,1.29
4613.00,1.29
4612.00,1.29
4611.00,1.29
4610.00,1.29
4609.00,1.29
4608.00,1.29
4607.00,1.29
4606.00,1.29
4605.00,1.29
4604.00,1.29
4603.00,1.30
4602.00,1.30
4601.00,1.30
4600.00,1.30
4599.00,1.30
4598.00,1.30
4597.00,1.30
4596.00,1.30
4595.00,1.30
4594.00,1.30
4593.00,1.30
4592.00,1.30
4591.00,1.30
4590.00,1.30
4589.00,1.30
4588.00,1.30
4587.00,1.30
4586.00,1.30
4585.00,1.30
4584.00,1.30
4583.00,1.30
4582.00,1.30
4581.00,1.30
4580.00,1.30
4579.00,1.30
4578.00,1.30
4577.00,1.30
4576.00,1.30
4575.00,1.29
4574.00,1.29
4573.00,1.29
4572.00,1.29
4571.00,1.29
4570.00,1.28
4569.00,1.28
4568.00,1.28
4567.00,1.28
4566.00,1.28
4565.00,1.28
4564.00,1.27
4563.00,1.27
4562.00,1.27
4561.00,1.27
4560.00,1.27
4559.00,1.27
4558.00,1.26
4557.00,1.26
4556.00,1.26
4555.00,1.26
4554.00,1.26
4553.00,1.26
4552.00,1.25
4551.00,1.25
4550.00,1.25
4549.00,1.25
4548.00,1.25
4547.00,1.25
4546.00,1.25
4545.00,1.25
4544.00,1.25
4543.00,1.25
4542.00,1.25
4541.00,1.25
4540.00,1.25
4539.00,1.25
4538.00,1.25
4537.00,1.25
4536.00,1.25
4535.00,1.25
4534.00,1.25
4533.00,1.25
4532.00,1.25
4531.00,1.25
4530.00,1.25
4529.00,1.25
4528.00,1.25
4527.00,1.25
4526.00,1.25
4525.00,1.25
4524.00,1.25
4523.00,1.25
4522.00,1.25
4521.00,1.25
4520.00,1.26
4519.00,1.26
4518.00,1.26
4517.00,1.26
4516.00,1.26
4515.00,1.26
4514.00,1.26
4513.00,1.26
4512.00,1.26
4511.00,1.26
4510.00,1.26
4509.00,1.27
4508.00,1.27
4507.00,1.27
4506.00,1.27
4505.00,1.27
4504.00,1.27
4503.00,1.27
4502.00,1.27
4501.00,1.28
4500.00,1.28
4499.00,1.28
4498.00,1.28
4497.00,1.28
4496.00,1.28
4495.00,1.28
4494.00,1.28
4493.00,1.28
4492.00,1.28
4491.00,1.28
4490.00,1.28
4489.00,1.29
4488.00,1.29
4487.00,1.29
4486.00,1.29
4485.00,1.29
4484.00,1.28
4483.00,1.28
4482.00,1.28
4481.00,1.28
4480.00,1.28
4479.00,1.28
4478.00,1.28
4477.00,1.28
4476.00,1.28
4475.00,1.28
4474.00,1.28
4473.00,1.28
4472.00,1.28
4471.00,1.28
4470.00,1.27
4469.00,1.27
4468.00,1.27
4467.00,1.27
4466.00,1.27
4465.00,1.27
4464.00,1.27
4463.00,1.27
4462.00,1.27
4461.00,1.27
4460.00,1.27
4459.00,1.27
4458.00,1.27
4457.00,1.27
4456.00,1.26
4455.00,1.26
4454.00,1.26
4453.00,1.26
4452.00,1.26
4451.00,1.26
4450.00,1.26
4449.00,1.26
4448.00,1.26
4447.00,1.26
4446.00,1.26
4445.00,1.25
4444.00,1.25
4443.00,1.25
4442.00,1.25
4441.00,1.25
4440.00,1.25
4439.00,1.25
4438.00,1.24
4437.00,1.24
4436.00,1.24
4435.00,1.24
4434.00,1.24
4433.00,1.23
4432.00,1.23
4431.00,1.23
4430.00,1.23
4429.00,1.22
4428.00,1.22
4427.00,1.22
4426.00,1.22
4425.00,1.22
4424.00,1.21
4423.00,1.21
4422.00,1.21
4421.00,1.21
4420.00,1.21
4419.00,1.20
4418.00,1.20
4417.00,1.20
4416.00,1.20
4415.00,1.20
4414.00,1.20
4413.00,1.20
4412.00,1.20
4411.00,1.20
4410.00,1.20
4409.00,1.20
4408.00,1.20
4407.00,1.21
4406.00,1.21
4405.00,1.21
4404.00,1.21
4403.00,1.21
4402.00,1.21
4401.00,1.22
4400.00,1.22
4399.00,1.22
4398.00,1.22
4397.00,1.23
4396.00,1.23
4395.00,1.23
4394.00,1.24
4393.00,1.24
4392.00,1.24
4391.00,1.24
4390.00,1.25
4389.00,1.25
4388.00,1.25
4387.00,1.26
4386.00,1.26
4385.00,1.26
4384.00,1.26
4383.00,1.26
4382.00,1.26
4381.00,1.26
4380.00,1.27
4379.00,1.27
4378.00,1.27
4377.00,1.27
4376.00,1.27
4375.00,1.27
4374.00,1.27
4373.00,1.27
4372.00,1.27
4371.00,1.27
4370.00,1.27
4369.00,1.26
4368.00,1.26
4367.00,1.26
4366.00,1.26
4365.00,1.26
4364.00,1.25
4363.00,1.25
4362.00,1.25
4361.00,1.24
4360.00,1.24
4359.00,1.24
4358.00,1.24
4357.00,1.23
4356.00,1.23
4355.00,1.23
4354.00,1.22
4353.00,1.22
4352.00,1.22
4351.00,1.22
4350.00,1.21
4349.00,1.21
4348.00,1.21
4347.00,1.21
4346.00,1.21
4345.00,1.21
4344.00,1.21
4343.00,1.21
4342.00,1.21
4341.00,1.21
4340.00,1.21
4339.00,1.21
4338.00,1.21
4337.00,1.22
4336.00,1.22
4335.00,1.22
4334.00,1.22
4333.00,1.23
4332.00,1.23
4331.00,1.23
4330.00,1.24
4329.00,1.24
4328.00,1.24
4327.00,1.24
4326.00,1.25
4325.00,1.25
4324.00,1.25
4323.00,1.26
4322.00,1.26
4321.00,1.26
4320.00,1.27
4319.00,1.27
4318.00,1.27
4317.00,1.27
4316.00,1.28
4315.00,1.28
4314.00,1.28
4313.00,1.28
4312.00,1.29
4311.00,1.29
4310.00,1.29
4309.00,1.29
4308.00,1.30
4307.00,1.30
4306.00,1.30
4305.00,1.30
4304.00,1.30
4303.00,1.31
4302.00,1.31
4301.00,1.31
4300.00,1.31
4299.00,1.31
4298.00,1.31
4297.00,1.31
4296.00,1.31
4295.00,1.31
4294.00,1.31
4293.00,1.32
4292.00,1.32
4291.00,1.31
4290.00,1.31
4289.00,1.31
4288.00,1.31
4287.00,1.31
4286.00,1.31
4285.00,1.31
4284.00,1.31
4283.00,1.31
4282.00,1.31
4281.00,1.30
4280.00,1.30
4279.00,1.30
4278.00,1.29
4277.00,1.29
4276.00,1.29
4275.00,1.29
4274.00,1.28
4273.00,1.28
4272.00,1.28
4271.00,1.27
4270.00,1.27
4269.00,1.27
4268.00,1.27
4267.00,1.26
4266.00,1.26
4265.00,1.26
4264.00,1.26
4263.00,1.25
4262.00,1.25
4261.00,1.25
4260.00,1.25
4259.00,1.24
4258.00,1.24
4257.00,1.24
4256.00,1.24
4255.00,1.24
4254.00,1.24
4253.00,1.24
4252.00,1.24
4251.00,1.24
4250.00,1.24
4249.00,1.24
4248.00,1.24
4247.00,1.24
4246.00,1.24
4245.00,1.24
4244.00,1.24
4243.00,1.25
4242.00,1.25
4241.00,1.25
4240.00,1.25
4239.00,1.25
4238.00,1.25
4237.00,1.26
4236.00,1.26
4235.00,1.26
4234.00,1.26
4233.00,1.27
4232.00,1.27
4231.00,1.27
4230.00,1.27
4229.00,1.28
4228.00,1.28
4227.00,1.28
4226.00,1.28
4225.00,1.28
4224.00,1.29
4223.00,1.29
4222.00,1.29
4221.00,1.29
4220.00,1.29
4219.00,1.29
4218.00,1.29
4217.00,1.30
4216.00,1.30
4215.00,1.30
4214.00,1.30
4213.00,1.30
4212.00,1.30
4211.00,1.30
4210.00,1.30
4209.00,1.30
4208.00,1.29
4207.00,1.29
4206.00,1.29
4205.00,1.29
4204.00,1.29
4203.00,1.29
4202.00,1.29
4201.00,1.29
4200.00,1.29
4199.00,1.29
4198.00,1.29
4197.00,1.29
4196.00,1.29
4195.00,1.29
4194.00,1.29
4193.00,1.29
4192.00,1.29
4191.00,1.29
4190.00,1.29
4189.00,1.29
4188.00,1.29
4187.00,1.29
4186.00,1.29
4185.00,1.29
4184.00,1.29
4183.00,1.29
4182.00,1.29
4181.00,1.29
4180.00,1.28
4179.00,1.28
4178.00,1.28
4177.00,1.28
4176.00,1.28
4175.00,1.28
4174.00,1.27
4173.00,1.27
4172.00,1.27
4171.00,1.27
4170.00,1.26
4169.00,1.26
4168.00,1.26
4167.00,1.26
4166.00,1.25
4165.00,1.25
4164.00,1.25
4163.00,1.25
4162.00,1.25
4161.00,1.25
4160.00,1.24
4159.00,1.24
4158.00,1.24
4157.00,1.24
4156.00,1.24
4155.00,1.24
4154.00,1.24
4153.00,1.24
4152.00,1.24
4151.00,1.24
4150.00,1.24
4149.00,1.24
4148.00,1.24
4147.00,1.24
4146.00,1.24
4145.00,1.24
4144.00,1.24
4143.00,1.24
4142.00,1.24
4141.00,1.24
4140.00,1.24
4139.00,1.24
4138.00,1.25
4137.00,1.25
4136.00,1.25
4135.00,1.25
4134.00,1.24
4133.00,1.24
4132.00,1.24
4131.00,1.24
4130.00,1.24
4129.00,1.24
4128.00,1.24
4127.00,1.24
4126.00,1.24
4125.00,1.24
4124.00,1.24
4123.00,1.24
4122.00,1.24
4121.00,1.24
4120.00,1.24
4119.00,1.24
4118.00,1.24
4117.00,1.24
4116.00,1.24
4115.00,1.24
4114.00,1.24
4113.00,1.24
4112.00,1.23
4111.00,1.23
4110.00,1.23
4109.00,1.23
4108.00,1.23
4107.00,1.23
4106.00,1.23
4105.00,1.23
4104.00,1.22
4103.00,1.22
4102.00,1.22
4101.00,1.22
4100.00,1.21
4099.00,1.21
4098.00,1.21
4097.00,1.21
4096.00,1.20
4095.00,1.20
4094.00,1.20
4093.00,1.20
4092.00,1.19
4091.00,1.19
4090.00,1.19
4089.00,1.19
4088.00,1.19
4087.00,1.18
4086.00,1.18
4085.00,1.18
4084.00,1.17
4083.00,1.17
4082.00,1.17
4081.00,1.17
4080.00,1.16
4079.00,1.16
4078.00,1.16
4077.00,1.15
4076.00,1.15
4075.00,1.15
4074.00,1.15
4073.00,1.15
4072.00,1.14
4071.00,1.14
4070.00,1.14
4069.00,1.14
4068.00,1.14
4067.00,1.13
4066.00,1.13
4065.00,1.13
4064.00,1.13
4063.00,1.13
4062.00,1.12
4061.00,1.12
4060.00,1.12
4059.00,1.12
4058.00,1.11
4057.00,1.11
4056.00,1.11
4055.00,1.11
4054.00,1.11
4053.00,1.11
4052.00,1.11
4051.00,1.10
4050.00,1.10
4049.00,1.10
4048.00,1.10
4047.00,1.09
4046.00,1.09
4045.00,1.09
4044.00,1.09
4043.00,1.09
4042.00,1.09
4041.00,1.09
4040.00,1.09
4039.00,1.08
4038.00,1.08
4037.00,1.08
4036.00,1.08
4035.00,1.08
4034.00,1.08
4033.00,1.08
4032.00,1.08
4031.00,1.08
4030.00,1.08
4029.00,1.08
4028.00,1.08
4027.00,1.08
4026.00,1.08
4025.00,1.08
4024.00,1.09
4023.00,1.09
4022.00,1.10
4021.00,1.11
4020.00,1.11
4019.00,1.12
4018.00,1.13
4017.00,1.13
4016.00,1.14
4015.00,1.15
4014.00,1.16
4013.00,1.17
4012.00,1.18
4011.00,1.20
4010.00,1.21
4009.00,1.23
4008.00,1.24
4007.00,1.26
4006.00,1.27
4005.00,1.29
4004.00,1.31
4003.00,1.32
4002.00,1.34
4001.00,1.36
4000.00,1.38
