创建为新数据集,样品 843 用户 Administrator 日期 星期一, 七月 29 2019
cm-1,%T
10000.00,1.53
9999.00,1.51
9998.00,1.49
9997.00,1.47
9996.00,1.45
9995.00,1.44
9994.00,1.42
9993.00,1.41
9992.00,1.39
9991.00,1.38
9990.00,1.37
9989.00,1.36
9988.00,1.36
9987.00,1.36
9986.00,1.35
9985.00,1.36
9984.00,1.36
9983.00,1.36
9982.00,1.37
9981.00,1.38
9980.00,1.39
9979.00,1.40
9978.00,1.41
9977.00,1.42
9976.00,1.43
9975.00,1.43
9974.00,1.44
9973.00,1.45
9972.00,1.46
9971.00,1.46
9970.00,1.46
9969.00,1.46
9968.00,1.46
9967.00,1.46
9966.00,1.45
9965.00,1.45
9964.00,1.44
9963.00,1.43
9962.00,1.41
9961.00,1.40
9960.00,1.38
9959.00,1.37
9958.00,1.35
9957.00,1.33
9956.00,1.31
9955.00,1.29
9954.00,1.26
9953.00,1.24
9952.00,1.22
9951.00,1.21
9950.00,1.19
9949.00,1.17
9948.00,1.16
9947.00,1.15
9946.00,1.13
9945.00,1.13
9944.00,1.12
9943.00,1.11
9942.00,1.11
9941.00,1.11
9940.00,1.11
9939.00,1.11
9938.00,1.11
9937.00,1.12
9936.00,1.13
9935.00,1.14
9934.00,1.15
9933.00,1.16
9932.00,1.17
9931.00,1.18
9930.00,1.19
9929.00,1.21
9928.00,1.22
9927.00,1.23
9926.00,1.24
9925.00,1.25
9924.00,1.26
9923.00,1.27
9922.00,1.28
9921.00,1.28
9920.00,1.29
9919.00,1.29
9918.00,1.29
9917.00,1.29
9916.00,1.28
9915.00,1.28
9914.00,1.28
9913.00,1.27
9912.00,1.27
9911.00,1.26
9910.00,1.25
9909.00,1.25
9908.00,1.24
9907.00,1.24
9906.00,1.23
9905.00,1.23
9904.00,1.22
9903.00,1.22
9902.00,1.22
9901.00,1.21
9900.00,1.21
9899.00,1.21
9898.00,1.21
9897.00,1.21
9896.00,1.21
9895.00,1.21
9894.00,1.22
9893.00,1.22
9892.00,1.23
9891.00,1.23
9890.00,1.24
9889.00,1.24
9888.00,1.25
9887.00,1.26
9886.00,1.27
9885.00,1.27
9884.00,1.28
9883.00,1.29
9882.00,1.29
9881.00,1.30
9880.00,1.30
9879.00,1.31
9878.00,1.31
9877.00,1.31
9876.00,1.31
9875.00,1.32
9874.00,1.32
9873.00,1.32
9872.00,1.32
9871.00,1.32
9870.00,1.32
9869.00,1.32
9868.00,1.32
9867.00,1.32
9866.00,1.32
9865.00,1.32
9864.00,1.32
9863.00,1.33
9862.00,1.33
9861.00,1.33
9860.00,1.33
9859.00,1.34
9858.00,1.34
9857.00,1.34
9856.00,1.35
9855.00,1.35
9854.00,1.36
9853.00,1.37
9852.00,1.37
9851.00,1.38
9850.00,1.38
9849.00,1.38
9848.00,1.39
9847.00,1.39
9846.00,1.39
9845.00,1.39
9844.00,1.39
9843.00,1.39
9842.00,1.39
9841.00,1.39
9840.00,1.39
9839.00,1.38
9838.00,1.38
9837.00,1.37
9836.00,1.36
9835.00,1.36
9834.00,1.35
9833.00,1.34
9832.00,1.33
9831.00,1.32
9830.00,1.31
9829.00,1.30
9828.00,1.29
9827.00,1.28
9826.00,1.27
9825.00,1.26
9824.00,1.25
9823.00,1.24
9822.00,1.23
9821.00,1.23
9820.00,1.22
9819.00,1.22
9818.00,1.22
9817.00,1.22
9816.00,1.22
9815.00,1.22
9814.00,1.22
9813.00,1.23
9812.00,1.23
9811.00,1.24
9810.00,1.24
9809.00,1.25
9808.00,1.26
9807.00,1.26
9806.00,1.27
9805.00,1.28
9804.00,1.28
9803.00,1.29
9802.00,1.30
9801.00,1.31
9800.00,1.31
9799.00,1.32
9798.00,1.33
9797.00,1.34
9796.00,1.34
9795.00,1.35
9794.00,1.36
9793.00,1.36
9792.00,1.37
9791.00,1.37
9790.00,1.38
9789.00,1.38
9788.00,1.38
9787.00,1.38
9786.00,1.39
9785.00,1.39
9784.00,1.39
9783.00,1.39
9782.00,1.39
9781.00,1.39
9780.00,1.39
9779.00,1.39
9778.00,1.39
9777.00,1.39
9776.00,1.39
9775.00,1.39
9774.00,1.39
9773.00,1.39
9772.00,1.39
9771.00,1.39
9770.00,1.39
9769.00,1.39
9768.00,1.39
9767.00,1.39
9766.00,1.38
9765.00,1.38
9764.00,1.38
9763.00,1.37
9762.00,1.37
9761.00,1.37
9760.00,1.36
9759.00,1.36
9758.00,1.36
9757.00,1.36
9756.00,1.35
9755.00,1.35
9754.00,1.35
9753.00,1.35
9752.00,1.35
9751.00,1.35
9750.00,1.35
9749.00,1.35
9748.00,1.35
9747.00,1.35
9746.00,1.35
9745.00,1.35
9744.00,1.35
9743.00,1.35
9742.00,1.35
9741.00,1.35
9740.00,1.35
9739.00,1.34
9738.00,1.34
9737.00,1.34
9736.00,1.34
9735.00,1.34
9734.00,1.34
9733.00,1.34
9732.00,1.34
9731.00,1.34
9730.00,1.34
9729.00,1.34
9728.00,1.34
9727.00,1.33
9726.00,1.33
9725.00,1.33
9724.00,1.32
9723.00,1.32
9722.00,1.32
9721.00,1.31
9720.00,1.31
9719.00,1.31
9718.00,1.30
9717.00,1.30
9716.00,1.30
9715.00,1.30
9714.00,1.30
9713.00,1.30
9712.00,1.29
9711.00,1.29
9710.00,1.29
9709.00,1.29
9708.00,1.29
9707.00,1.29
9706.00,1.29
9705.00,1.29
9704.00,1.29
9703.00,1.30
9702.00,1.30
9701.00,1.30
9700.00,1.30
9699.00,1.30
9698.00,1.30
9697.00,1.30
9696.00,1.29
9695.00,1.29
9694.00,1.29
9693.00,1.29
9692.00,1.29
9691.00,1.29
9690.00,1.29
9689.00,1.28
9688.00,1.28
9687.00,1.28
9686.00,1.28
9685.00,1.27
9684.00,1.27
9683.00,1.27
9682.00,1.26
9681.00,1.26
9680.00,1.26
9679.00,1.25
9678.00,1.25
9677.00,1.25
9676.00,1.25
9675.00,1.24
9674.00,1.24
9673.00,1.24
9672.00,1.24
9671.00,1.24
9670.00,1.24
9669.00,1.24
9668.00,1.25
9667.00,1.25
9666.00,1.25
9665.00,1.26
9664.00,1.26
9663.00,1.26
9662.00,1.27
9661.00,1.27
9660.00,1.27
9659.00,1.28
9658.00,1.28
9657.00,1.28
9656.00,1.28
9655.00,1.29
9654.00,1.29
9653.00,1.29
9652.00,1.29
9651.00,1.29
9650.00,1.29
9649.00,1.29
9648.00,1.29
9647.00,1.29
9646.00,1.29
9645.00,1.29
9644.00,1.29
9643.00,1.29
9642.00,1.28
9641.00,1.28
9640.00,1.28
9639.00,1.28
9638.00,1.28
9637.00,1.28
9636.00,1.28
9635.00,1.28
9634.00,1.28
9633.00,1.28
9632.00,1.28
9631.00,1.29
9630.00,1.29
9629.00,1.29
9628.00,1.30
9627.00,1.30
9626.00,1.30
9625.00,1.31
9624.00,1.31
9623.00,1.32
9622.00,1.32
9621.00,1.32
9620.00,1.33
9619.00,1.33
9618.00,1.34
9617.00,1.34
9616.00,1.34
9615.00,1.34
9614.00,1.35
9613.00,1.35
9612.00,1.35
9611.00,1.35
9610.00,1.35
9609.00,1.35
9608.00,1.34
9607.00,1.34
9606.00,1.34
9605.00,1.34
9604.00,1.34
9603.00,1.33
9602.00,1.33
9601.00,1.33
9600.00,1.33
9599.00,1.33
9598.00,1.33
9597.00,1.33
9596.00,1.33
9595.00,1.33
9594.00,1.33
9593.00,1.33
9592.00,1.33
9591.00,1.33
9590.00,1.32
9589.00,1.32
9588.00,1.32
9587.00,1.32
9586.00,1.32
9585.00,1.31
9584.00,1.31
9583.00,1.31
9582.00,1.31
9581.00,1.31
9580.00,1.31
9579.00,1.31
9578.00,1.31
9577.00,1.31
9576.00,1.31
9575.00,1.31
9574.00,1.30
9573.00,1.30
9572.00,1.30
9571.00,1.29
9570.00,1.29
9569.00,1.28
9568.00,1.28
9567.00,1.27
9566.00,1.27
9565.00,1.27
9564.00,1.26
9563.00,1.26
9562.00,1.25
9561.00,1.25
9560.00,1.25
9559.00,1.24
9558.00,1.24
9557.00,1.24
9556.00,1.23
9555.00,1.23
9554.00,1.22
9553.00,1.22
9552.00,1.21
9551.00,1.20
9550.00,1.20
9549.00,1.19
9548.00,1.18
9547.00,1.17
9546.00,1.17
9545.00,1.16
9544.00,1.16
9543.00,1.15
9542.00,1.15
9541.00,1.15
9540.00,1.15
9539.00,1.15
9538.00,1.15
9537.00,1.15
9536.00,1.15
9535.00,1.16
9534.00,1.16
9533.00,1.16
9532.00,1.17
9531.00,1.17
9530.00,1.18
9529.00,1.19
9528.00,1.19
9527.00,1.20
9526.00,1.21
9525.00,1.22
9524.00,1.23
9523.00,1.24
9522.00,1.25
9521.00,1.26
9520.00,1.27
9519.00,1.28
9518.00,1.29
9517.00,1.30
9516.00,1.31
9515.00,1.32
9514.00,1.33
9513.00,1.33
9512.00,1.34
9511.00,1.35
9510.00,1.35
9509.00,1.35
9508.00,1.36
9507.00,1.36
9506.00,1.35
9505.00,1.35
9504.00,1.35
9503.00,1.34
9502.00,1.34
9501.00,1.34
9500.00,1.33
9499.00,1.33
9498.00,1.33
9497.00,1.32
9496.00,1.32
9495.00,1.32
9494.00,1.31
9493.00,1.31
9492.00,1.30
9491.00,1.29
9490.00,1.29
9489.00,1.28
9488.00,1.27
9487.00,1.26
9486.00,1.26
9485.00,1.25
9484.00,1.25
9483.00,1.24
9482.00,1.24
9481.00,1.24
9480.00,1.24
9479.00,1.23
9478.00,1.23
9477.00,1.23
9476.00,1.23
9475.00,1.23
9474.00,1.22
9473.00,1.22
9472.00,1.21
9471.00,1.21
9470.00,1.20
9469.00,1.19
9468.00,1.19
9467.00,1.18
9466.00,1.18
9465.00,1.17
9464.00,1.17
9463.00,1.16
9462.00,1.16
9461.00,1.16
9460.00,1.15
9459.00,1.15
9458.00,1.15
9457.00,1.15
9456.00,1.14
9455.00,1.14
9454.00,1.14
9453.00,1.14
9452.00,1.14
9451.00,1.15
9450.00,1.15
9449.00,1.15
9448.00,1.16
9447.00,1.16
9446.00,1.17
9445.00,1.17
9444.00,1.18
9443.00,1.19
9442.00,1.20
9441.00,1.20
9440.00,1.21
9439.00,1.22
9438.00,1.23
9437.00,1.24
9436.00,1.25
9435.00,1.25
9434.00,1.26
9433.00,1.27
9432.00,1.27
9431.00,1.28
9430.00,1.28
9429.00,1.28
9428.00,1.29
9427.00,1.29
9426.00,1.29
9425.00,1.29
9424.00,1.29
9423.00,1.29
9422.00,1.30
9421.00,1.30
9420.00,1.30
9419.00,1.30
9418.00,1.30
9417.00,1.30
9416.00,1.31
9415.00,1.31
9414.00,1.31
9413.00,1.31
9412.00,1.31
9411.00,1.32
9410.00,1.32
9409.00,1.32
9408.00,1.32
9407.00,1.33
9406.00,1.33
9405.00,1.33
9404.00,1.34
9403.00,1.34
9402.00,1.34
9401.00,1.34
9400.00,1.35
9399.00,1.35
9398.00,1.35
9397.00,1.35
9396.00,1.35
9395.00,1.35
9394.00,1.34
9393.00,1.34
9392.00,1.34
9391.00,1.33
9390.00,1.33
9389.00,1.32
9388.00,1.32
9387.00,1.31
9386.00,1.30
9385.00,1.29
9384.00,1.28
9383.00,1.27
9382.00,1.26
9381.00,1.25
9380.00,1.24
9379.00,1.23
9378.00,1.23
9377.00,1.22
9376.00,1.21
9375.00,1.20
9374.00,1.19
9373.00,1.19
9372.00,1.18
9371.00,1.18
9370.00,1.17
9369.00,1.17
9368.00,1.16
9367.00,1.16
9366.00,1.16
9365.00,1.16
9364.00,1.16
9363.00,1.16
9362.00,1.17
9361.00,1.17
9360.00,1.18
9359.00,1.18
9358.00,1.19
9357.00,1.20
9356.00,1.21
9355.00,1.22
9354.00,1.23
9353.00,1.25
9352.00,1.26
9351.00,1.27
9350.00,1.28
9349.00,1.29
9348.00,1.31
9347.00,1.32
9346.00,1.33
9345.00,1.34
9344.00,1.35
9343.00,1.36
9342.00,1.37
9341.00,1.38
9340.00,1.38
9339.00,1.39
9338.00,1.40
9337.00,1.40
9336.00,1.40
9335.00,1.40
9334.00,1.40
9333.00,1.40
9332.00,1.40
9331.00,1.40
9330.00,1.39
9329.00,1.38
9328.00,1.38
9327.00,1.37
9326.00,1.36
9325.00,1.35
9324.00,1.34
9323.00,1.33
9322.00,1.33
9321.00,1.32
9320.00,1.31
9319.00,1.30
9318.00,1.30
9317.00,1.29
9316.00,1.28
9315.00,1.28
9314.00,1.27
9313.00,1.27
9312.00,1.27
9311.00,1.27
9310.00,1.26
9309.00,1.26
9308.00,1.26
9307.00,1.26
9306.00,1.26
9305.00,1.26
9304.00,1.26
9303.00,1.27
9302.00,1.27
9301.00,1.27
9300.00,1.28
9299.00,1.28
9298.00,1.29
9297.00,1.29
9296.00,1.29
9295.00,1.30
9294.00,1.30
9293.00,1.30
9292.00,1.30
9291.00,1.30
9290.00,1.30
9289.00,1.30
9288.00,1.30
9287.00,1.30
9286.00,1.30
9285.00,1.30
9284.00,1.30
9283.00,1.30
9282.00,1.30
9281.00,1.30
9280.00,1.30
9279.00,1.30
9278.00,1.30
9277.00,1.30
9276.00,1.30
9275.00,1.30
9274.00,1.30
9273.00,1.30
9272.00,1.30
9271.00,1.30
9270.00,1.30
9269.00,1.30
9268.00,1.30
9267.00,1.30
9266.00,1.30
9265.00,1.30
9264.00,1.31
9263.00,1.31
9262.00,1.31
9261.00,1.32
9260.00,1.32
9259.00,1.32
9258.00,1.33
9257.00,1.33
9256.00,1.34
9255.00,1.34
9254.00,1.34
9253.00,1.34
9252.00,1.34
9251.00,1.35
9250.00,1.35
9249.00,1.34
9248.00,1.34
9247.00,1.34
9246.00,1.34
9245.00,1.34
9244.00,1.34
9243.00,1.34
9242.00,1.34
9241.00,1.33
9240.00,1.33
9239.00,1.33
9238.00,1.33
9237.00,1.32
9236.00,1.32
9235.00,1.31
9234.00,1.31
9233.00,1.30
9232.00,1.29
9231.00,1.29
9230.00,1.28
9229.00,1.27
9228.00,1.27
9227.00,1.26
9226.00,1.25
9225.00,1.25
9224.00,1.24
9223.00,1.24
9222.00,1.24
9221.00,1.23
9220.00,1.23
9219.00,1.23
9218.00,1.23
9217.00,1.22
9216.00,1.22
9215.00,1.22
9214.00,1.22
9213.00,1.22
9212.00,1.22
9211.00,1.22
9210.00,1.22
9209.00,1.22
9208.00,1.22
9207.00,1.23
9206.00,1.23
9205.00,1.23
9204.00,1.23
9203.00,1.24
9202.00,1.24
9201.00,1.24
9200.00,1.24
9199.00,1.24
9198.00,1.24
9197.00,1.24
9196.00,1.24
9195.00,1.24
9194.00,1.24
9193.00,1.24
9192.00,1.24
9191.00,1.24
9190.00,1.24
9189.00,1.24
9188.00,1.23
9187.00,1.23
9186.00,1.23
9185.00,1.23
9184.00,1.23
9183.00,1.23
9182.00,1.23
9181.00,1.23
9180.00,1.23
9179.00,1.23
9178.00,1.24
9177.00,1.24
9176.00,1.24
9175.00,1.24
9174.00,1.24
9173.00,1.25
9172.00,1.25
9171.00,1.25
9170.00,1.26
9169.00,1.26
9168.00,1.26
9167.00,1.27
9166.00,1.27
9165.00,1.28
9164.00,1.28
9163.00,1.28
9162.00,1.28
9161.00,1.29
9160.00,1.29
9159.00,1.29
9158.00,1.29
9157.00,1.29
9156.00,1.29
9155.00,1.29
9154.00,1.29
9153.00,1.29
9152.00,1.29
9151.00,1.29
9150.00,1.29
9149.00,1.29
9148.00,1.29
9147.00,1.29
9146.00,1.29
9145.00,1.29
9144.00,1.29
9143.00,1.29
9142.00,1.29
9141.00,1.29
9140.00,1.28
9139.00,1.28
9138.00,1.28
9137.00,1.28
9136.00,1.28
9135.00,1.28
9134.00,1.27
9133.00,1.27
9132.00,1.27
9131.00,1.27
9130.00,1.27
9129.00,1.26
9128.00,1.26
9127.00,1.26
9126.00,1.25
9125.00,1.25
9124.00,1.24
9123.00,1.24
9122.00,1.23
9121.00,1.23
9120.00,1.22
9119.00,1.21
9118.00,1.21
9117.00,1.20
9116.00,1.20
9115.00,1.19
9114.00,1.18
9113.00,1.18
9112.00,1.17
9111.00,1.17
9110.00,1.16
9109.00,1.16
9108.00,1.16
9107.00,1.15
9106.00,1.15
9105.00,1.15
9104.00,1.14
9103.00,1.14
9102.00,1.14
9101.00,1.14
9100.00,1.14
9099.00,1.14
9098.00,1.14
9097.00,1.14
9096.00,1.14
9095.00,1.14
9094.00,1.14
9093.00,1.15
9092.00,1.15
9091.00,1.15
9090.00,1.16
9089.00,1.16
9088.00,1.16
9087.00,1.17
9086.00,1.17
9085.00,1.17
9084.00,1.18
9083.00,1.18
9082.00,1.18
9081.00,1.19
9080.00,1.19
9079.00,1.19
9078.00,1.19
9077.00,1.19
9076.00,1.20
9075.00,1.20
9074.00,1.20
9073.00,1.20
9072.00,1.20
9071.00,1.20
9070.00,1.20
9069.00,1.20
9068.00,1.21
9067.00,1.21
9066.00,1.21
9065.00,1.21
9064.00,1.21
9063.00,1.21
9062.00,1.21
9061.00,1.21
9060.00,1.21
9059.00,1.21
9058.00,1.21
9057.00,1.21
9056.00,1.21
9055.00,1.21
9054.00,1.21
9053.00,1.22
9052.00,1.22
9051.00,1.22
9050.00,1.22
9049.00,1.22
9048.00,1.22
9047.00,1.23
9046.00,1.23
9045.00,1.23
9044.00,1.23
9043.00,1.23
9042.00,1.23
9041.00,1.23
9040.00,1.23
9039.00,1.23
9038.00,1.23
9037.00,1.23
9036.00,1.23
9035.00,1.23
9034.00,1.23
9033.00,1.23
9032.00,1.23
9031.00,1.23
9030.00,1.24
9029.00,1.24
9028.00,1.24
9027.00,1.24
9026.00,1.24
9025.00,1.25
9024.00,1.25
9023.00,1.25
9022.00,1.25
9021.00,1.25
9020.00,1.25
9019.00,1.25
9018.00,1.25
9017.00,1.26
9016.00,1.26
9015.00,1.26
9014.00,1.26
9013.00,1.27
9012.00,1.27
9011.00,1.27
9010.00,1.28
9009.00,1.28
9008.00,1.28
9007.00,1.28
9006.00,1.28
9005.00,1.28
9004.00,1.28
9003.00,1.28
9002.00,1.28
9001.00,1.28
9000.00,1.27
8999.00,1.27
8998.00,1.27
8997.00,1.27
8996.00,1.27
8995.00,1.26
8994.00,1.26
8993.00,1.26
8992.00,1.26
8991.00,1.26
8990.00,1.25
8989.00,1.25
8988.00,1.25
8987.00,1.24
8986.00,1.24
8985.00,1.23
8984.00,1.23
8983.00,1.22
8982.00,1.22
8981.00,1.21
8980.00,1.21
8979.00,1.21
8978.00,1.20
8977.00,1.20
8976.00,1.20
8975.00,1.19
8974.00,1.19
8973.00,1.19
8972.00,1.19
8971.00,1.19
8970.00,1.18
8969.00,1.18
8968.00,1.18
8967.00,1.18
8966.00,1.18
8965.00,1.18
8964.00,1.18
8963.00,1.18
8962.00,1.19
8961.00,1.19
8960.00,1.19
8959.00,1.19
8958.00,1.20
8957.00,1.20
8956.00,1.20
8955.00,1.21
8954.00,1.21
8953.00,1.21
8952.00,1.22
8951.00,1.22
8950.00,1.23
8949.00,1.24
8948.00,1.24
8947.00,1.25
8946.00,1.25
8945.00,1.25
8944.00,1.26
8943.00,1.26
8942.00,1.26
8941.00,1.27
8940.00,1.27
8939.00,1.27
8938.00,1.27
8937.00,1.27
8936.00,1.28
8935.00,1.28
8934.00,1.28
8933.00,1.28
8932.00,1.28
8931.00,1.28
8930.00,1.28
8929.00,1.28
8928.00,1.28
8927.00,1.28
8926.00,1.28
8925.00,1.27
8924.00,1.27
8923.00,1.26
8922.00,1.26
8921.00,1.26
8920.00,1.25
8919.00,1.25
8918.00,1.24
8917.00,1.24
8916.00,1.23
8915.00,1.23
8914.00,1.22
8913.00,1.22
8912.00,1.21
8911.00,1.21
8910.00,1.20
8909.00,1.20
8908.00,1.19
8907.00,1.18
8906.00,1.18
8905.00,1.17
8904.00,1.17
8903.00,1.16
8902.00,1.16
8901.00,1.16
8900.00,1.16
8899.00,1.16
8898.00,1.16
8897.00,1.16
8896.00,1.16
8895.00,1.16
8894.00,1.16
8893.00,1.16
8892.00,1.16
8891.00,1.16
8890.00,1.16
8889.00,1.16
8888.00,1.17
8887.00,1.17
8886.00,1.17
8885.00,1.18
8884.00,1.19
8883.00,1.19
8882.00,1.20
8881.00,1.21
8880.00,1.22
8879.00,1.22
8878.00,1.23
8877.00,1.24
8876.00,1.25
8875.00,1.25
8874.00,1.26
8873.00,1.27
8872.00,1.27
8871.00,1.28
8870.00,1.28
8869.00,1.29
8868.00,1.30
8867.00,1.30
8866.00,1.31
8865.00,1.32
8864.00,1.33
8863.00,1.34
8862.00,1.35
8861.00,1.35
8860.00,1.36
8859.00,1.37
8858.00,1.38
8857.00,1.38
8856.00,1.39
8855.00,1.39
8854.00,1.39
8853.00,1.40
8852.00,1.40
8851.00,1.40
8850.00,1.40
8849.00,1.40
8848.00,1.40
8847.00,1.40
8846.00,1.40
8845.00,1.40
8844.00,1.39
8843.00,1.39
8842.00,1.39
8841.00,1.39
8840.00,1.38
8839.00,1.38
8838.00,1.37
8837.00,1.37
8836.00,1.36
8835.00,1.35
8834.00,1.34
8833.00,1.33
8832.00,1.32
8831.00,1.32
8830.00,1.31
8829.00,1.30
8828.00,1.29
8827.00,1.29
8826.00,1.28
8825.00,1.28
8824.00,1.27
8823.00,1.27
8822.00,1.27
8821.00,1.27
8820.00,1.27
8819.00,1.27
8818.00,1.27
8817.00,1.26
8816.00,1.26
8815.00,1.26
8814.00,1.26
8813.00,1.26
8812.00,1.26
8811.00,1.25
8810.00,1.25
8809.00,1.25
8808.00,1.25
8807.00,1.25
8806.00,1.24
8805.00,1.24
8804.00,1.24
8803.00,1.24
8802.00,1.24
8801.00,1.23
8800.00,1.23
8799.00,1.22
8798.00,1.22
8797.00,1.21
8796.00,1.21
8795.00,1.20
8794.00,1.20
8793.00,1.19
8792.00,1.19
8791.00,1.18
8790.00,1.18
8789.00,1.18
8788.00,1.18
8787.00,1.18
8786.00,1.18
8785.00,1.18
8784.00,1.18
8783.00,1.18
8782.00,1.19
8781.00,1.19
8780.00,1.20
8779.00,1.20
8778.00,1.21
8777.00,1.22
8776.00,1.22
8775.00,1.23
8774.00,1.24
8773.00,1.25
8772.00,1.25
8771.00,1.26
8770.00,1.27
8769.00,1.27
8768.00,1.28
8767.00,1.28
8766.00,1.29
8765.00,1.29
8764.00,1.30
8763.00,1.30
8762.00,1.31
8761.00,1.31
8760.00,1.31
8759.00,1.31
8758.00,1.31
8757.00,1.31
8756.00,1.31
8755.00,1.31
8754.00,1.31
8753.00,1.30
8752.00,1.30
8751.00,1.29
8750.00,1.29
8749.00,1.28
8748.00,1.28
8747.00,1.27
8746.00,1.27
8745.00,1.26
8744.00,1.26
8743.00,1.26
8742.00,1.25
8741.00,1.25
8740.00,1.25
8739.00,1.24
8738.00,1.24
8737.00,1.24
8736.00,1.24
8735.00,1.24
8734.00,1.24
8733.00,1.23
8732.00,1.23
8731.00,1.23
8730.00,1.23
8729.00,1.23
8728.00,1.23
8727.00,1.23
8726.00,1.23
8725.00,1.23
8724.00,1.23
8723.00,1.23
8722.00,1.23
8721.00,1.23
8720.00,1.23
8719.00,1.23
8718.00,1.23
8717.00,1.23
8716.00,1.24
8715.00,1.24
8714.00,1.24
8713.00,1.24
8712.00,1.24
8711.00,1.24
8710.00,1.24
8709.00,1.24
8708.00,1.24
8707.00,1.25
8706.00,1.25
8705.00,1.25
8704.00,1.25
8703.00,1.25
8702.00,1.25
8701.00,1.26
8700.00,1.26
8699.00,1.26
8698.00,1.26
8697.00,1.26
8696.00,1.26
8695.00,1.26
8694.00,1.26
8693.00,1.26
8692.00,1.26
8691.00,1.26
8690.00,1.25
8689.00,1.25
8688.00,1.25
8687.00,1.25
8686.00,1.25
8685.00,1.25
8684.00,1.24
8683.00,1.24
8682.00,1.24
8681.00,1.23
8680.00,1.23
8679.00,1.23
8678.00,1.22
8677.00,1.22
8676.00,1.22
8675.00,1.22
8674.00,1.22
8673.00,1.21
8672.00,1.21
8671.00,1.22
8670.00,1.22
8669.00,1.22
8668.00,1.22
8667.00,1.22
8666.00,1.22
8665.00,1.22
8664.00,1.23
8663.00,1.23
8662.00,1.23
8661.00,1.23
8660.00,1.24
8659.00,1.24
8658.00,1.24
8657.00,1.24
8656.00,1.25
8655.00,1.25
8654.00,1.25
8653.00,1.26
8652.00,1.26
8651.00,1.26
8650.00,1.26
8649.00,1.26
8648.00,1.27
8647.00,1.27
8646.00,1.27
8645.00,1.27
8644.00,1.27
8643.00,1.27
8642.00,1.27
8641.00,1.27
8640.00,1.27
8639.00,1.27
8638.00,1.27
8637.00,1.28
8636.00,1.28
8635.00,1.28
8634.00,1.28
8633.00,1.28
8632.00,1.28
8631.00,1.28
8630.00,1.27
8629.00,1.27
8628.00,1.27
8627.00,1.27
8626.00,1.27
8625.00,1.27
8624.00,1.27
8623.00,1.27
8622.00,1.27
8621.00,1.27
8620.00,1.27
8619.00,1.27
8618.00,1.27
8617.00,1.27
8616.00,1.27
8615.00,1.26
8614.00,1.26
8613.00,1.26
8612.00,1.26
8611.00,1.26
8610.00,1.26
8609.00,1.25
8608.00,1.25
8607.00,1.25
8606.00,1.25
8605.00,1.25
8604.00,1.25
8603.00,1.25
8602.00,1.25
8601.00,1.25
8600.00,1.25
8599.00,1.25
8598.00,1.25
8597.00,1.25
8596.00,1.25
8595.00,1.25
8594.00,1.24
8593.00,1.24
8592.00,1.24
8591.00,1.24
8590.00,1.24
8589.00,1.24
8588.00,1.24
8587.00,1.23
8586.00,1.23
8585.00,1.23
8584.00,1.23
8583.00,1.23
8582.00,1.23
8581.00,1.23
8580.00,1.23
8579.00,1.23
8578.00,1.23
8577.00,1.23
8576.00,1.23
8575.00,1.23
8574.00,1.23
8573.00,1.23
8572.00,1.23
8571.00,1.23
8570.00,1.23
8569.00,1.24
8568.00,1.24
8567.00,1.24
8566.00,1.25
8565.00,1.25
8564.00,1.26
8563.00,1.26
8562.00,1.27
8561.00,1.27
8560.00,1.28
8559.00,1.29
8558.00,1.29
8557.00,1.30
8556.00,1.30
8555.00,1.31
8554.00,1.31
8553.00,1.32
8552.00,1.32
8551.00,1.33
8550.00,1.33
8549.00,1.33
8548.00,1.34
8547.00,1.34
8546.00,1.34
8545.00,1.34
8544.00,1.34
8543.00,1.33
8542.00,1.33
8541.00,1.33
8540.00,1.32
8539.00,1.32
8538.00,1.31
8537.00,1.31
8536.00,1.30
8535.00,1.30
8534.00,1.29
8533.00,1.29
8532.00,1.28
8531.00,1.27
8530.00,1.27
8529.00,1.26
8528.00,1.26
8527.00,1.25
8526.00,1.25
8525.00,1.24
8524.00,1.24
8523.00,1.23
8522.00,1.23
8521.00,1.23
8520.00,1.22
8519.00,1.22
8518.00,1.22
8517.00,1.22
8516.00,1.22
8515.00,1.22
8514.00,1.22
8513.00,1.23
8512.00,1.23
8511.00,1.23
8510.00,1.24
8509.00,1.24
8508.00,1.24
8507.00,1.25
8506.00,1.25
8505.00,1.25
8504.00,1.26
8503.00,1.26
8502.00,1.27
8501.00,1.27
8500.00,1.27
8499.00,1.28
8498.00,1.28
8497.00,1.29
8496.00,1.29
8495.00,1.29
8494.00,1.30
8493.00,1.30
8492.00,1.30
8491.00,1.30
8490.00,1.31
8489.00,1.31
8488.00,1.31
8487.00,1.31
8486.00,1.30
8485.00,1.30
8484.00,1.30
8483.00,1.30
8482.00,1.29
8481.00,1.29
8480.00,1.28
8479.00,1.28
8478.00,1.28
8477.00,1.27
8476.00,1.27
8475.00,1.26
8474.00,1.26
8473.00,1.25
8472.00,1.25
8471.00,1.25
8470.00,1.25
8469.00,1.24
8468.00,1.24
8467.00,1.24
8466.00,1.24
8465.00,1.24
8464.00,1.25
8463.00,1.25
8462.00,1.25
8461.00,1.25
8460.00,1.26
8459.00,1.26
8458.00,1.27
8457.00,1.27
8456.00,1.27
8455.00,1.28
8454.00,1.29
8453.00,1.29
8452.00,1.30
8451.00,1.30
8450.00,1.31
8449.00,1.31
8448.00,1.32
8447.00,1.32
8446.00,1.33
8445.00,1.33
8444.00,1.33
8443.00,1.34
8442.00,1.34
8441.00,1.34
8440.00,1.34
8439.00,1.34
8438.00,1.33
8437.00,1.33
8436.00,1.33
8435.00,1.33
8434.00,1.32
8433.00,1.32
8432.00,1.32
8431.00,1.32
8430.00,1.31
8429.00,1.31
8428.00,1.31
8427.00,1.31
8426.00,1.31
8425.00,1.31
8424.00,1.31
8423.00,1.30
8422.00,1.30
8421.00,1.30
8420.00,1.30
8419.00,1.30
8418.00,1.30
8417.00,1.30
8416.00,1.30
8415.00,1.30
8414.00,1.31
8413.00,1.31
8412.00,1.31
8411.00,1.32
8410.00,1.32
8409.00,1.32
8408.00,1.33
8407.00,1.33
8406.00,1.33
8405.00,1.33
8404.00,1.33
8403.00,1.34
8402.00,1.34
8401.00,1.34
8400.00,1.33
8399.00,1.33
8398.00,1.33
8397.00,1.33
8396.00,1.33
8395.00,1.33
8394.00,1.33
8393.00,1.32
8392.00,1.32
8391.00,1.32
8390.00,1.32
8389.00,1.31
8388.00,1.31
8387.00,1.30
8386.00,1.30
8385.00,1.29
8384.00,1.28
8383.00,1.28
8382.00,1.27
8381.00,1.26
8380.00,1.26
8379.00,1.25
8378.00,1.24
8377.00,1.24
8376.00,1.23
8375.00,1.23
8374.00,1.23
8373.00,1.22
8372.00,1.22
8371.00,1.21
8370.00,1.21
8369.00,1.21
8368.00,1.21
8367.00,1.21
8366.00,1.21
8365.00,1.21
8364.00,1.21
8363.00,1.21
8362.00,1.21
8361.00,1.21
8360.00,1.21
8359.00,1.22
8358.00,1.22
8357.00,1.23
8356.00,1.23
8355.00,1.24
8354.00,1.24
8353.00,1.25
8352.00,1.26
8351.00,1.26
8350.00,1.27
8349.00,1.27
8348.00,1.28
8347.00,1.29
8346.00,1.29
8345.00,1.30
8344.00,1.30
8343.00,1.31
8342.00,1.31
8341.00,1.31
8340.00,1.32
8339.00,1.32
8338.00,1.32
8337.00,1.32
8336.00,1.32
8335.00,1.32
8334.00,1.32
8333.00,1.32
8332.00,1.32
8331.00,1.32
8330.00,1.32
8329.00,1.31
8328.00,1.31
8327.00,1.31
8326.00,1.31
8325.00,1.30
8324.00,1.30
8323.00,1.30
8322.00,1.29
8321.00,1.29
8320.00,1.29
8319.00,1.28
8318.00,1.28
8317.00,1.27
8316.00,1.27
8315.00,1.26
8314.00,1.26
8313.00,1.26
8312.00,1.25
8311.00,1.25
8310.00,1.25
8309.00,1.25
8308.00,1.25
8307.00,1.25
8306.00,1.25
8305.00,1.25
8304.00,1.25
8303.00,1.25
8302.00,1.25
8301.00,1.25
8300.00,1.25
8299.00,1.25
8298.00,1.25
8297.00,1.25
8296.00,1.25
8295.00,1.25
8294.00,1.25
8293.00,1.25
8292.00,1.25
8291.00,1.25
8290.00,1.25
8289.00,1.25
8288.00,1.25
8287.00,1.25
8286.00,1.25
8285.00,1.25
8284.00,1.25
8283.00,1.25
8282.00,1.25
8281.00,1.25
8280.00,1.25
8279.00,1.25
8278.00,1.25
8277.00,1.25
8276.00,1.25
8275.00,1.25
8274.00,1.25
8273.00,1.25
8272.00,1.25
8271.00,1.25
8270.00,1.25
8269.00,1.25
8268.00,1.25
8267.00,1.25
8266.00,1.25
8265.00,1.25
8264.00,1.25
8263.00,1.25
8262.00,1.26
8261.00,1.26
8260.00,1.26
8259.00,1.26
8258.00,1.26
8257.00,1.26
8256.00,1.27
8255.00,1.27
8254.00,1.27
8253.00,1.27
8252.00,1.27
8251.00,1.28
8250.00,1.28
8249.00,1.29
8248.00,1.29
8247.00,1.29
8246.00,1.30
8245.00,1.30
8244.00,1.31
8243.00,1.31
8242.00,1.31
8241.00,1.32
8240.00,1.32
8239.00,1.32
8238.00,1.32
8237.00,1.32
8236.00,1.32
8235.00,1.33
8234.00,1.33
8233.00,1.33
8232.00,1.33
8231.00,1.33
8230.00,1.33
8229.00,1.33
8228.00,1.33
8227.00,1.33
8226.00,1.33
8225.00,1.33
8224.00,1.33
8223.00,1.33
8222.00,1.33
8221.00,1.33
8220.00,1.33
8219.00,1.33
8218.00,1.33
8217.00,1.33
8216.00,1.33
8215.00,1.33
8214.00,1.33
8213.00,1.33
8212.00,1.33
8211.00,1.33
8210.00,1.33
8209.00,1.33
8208.00,1.33
8207.00,1.33
8206.00,1.33
8205.00,1.33
8204.00,1.33
8203.00,1.32
8202.00,1.32
8201.00,1.32
8200.00,1.32
8199.00,1.32
8198.00,1.32
8197.00,1.32
8196.00,1.31
8195.00,1.31
8194.00,1.31
8193.00,1.30
8192.00,1.30
8191.00,1.29
8190.00,1.29
8189.00,1.29
8188.00,1.28
8187.00,1.28
8186.00,1.28
8185.00,1.27
8184.00,1.27
8183.00,1.27
8182.00,1.27
8181.00,1.27
8180.00,1.26
8179.00,1.26
8178.00,1.26
8177.00,1.26
8176.00,1.26
8175.00,1.26
8174.00,1.26
8173.00,1.26
8172.00,1.26
8171.00,1.26
8170.00,1.26
8169.00,1.26
8168.00,1.26
8167.00,1.26
8166.00,1.26
8165.00,1.26
8164.00,1.27
8163.00,1.27
8162.00,1.27
8161.00,1.27
8160.00,1.27
8159.00,1.27
8158.00,1.27
8157.00,1.27
8156.00,1.27
8155.00,1.28
8154.00,1.28
8153.00,1.28
8152.00,1.28
8151.00,1.28
8150.00,1.27
8149.00,1.27
8148.00,1.27
8147.00,1.27
8146.00,1.27
8145.00,1.27
8144.00,1.27
8143.00,1.28
8142.00,1.28
8141.00,1.28
8140.00,1.28
8139.00,1.28
8138.00,1.28
8137.00,1.28
8136.00,1.28
8135.00,1.28
8134.00,1.28
8133.00,1.28
8132.00,1.28
8131.00,1.28
8130.00,1.28
8129.00,1.28
8128.00,1.28
8127.00,1.27
8126.00,1.27
8125.00,1.27
8124.00,1.27
8123.00,1.27
8122.00,1.27
8121.00,1.27
8120.00,1.27
8119.00,1.27
8118.00,1.27
8117.00,1.27
8116.00,1.27
8115.00,1.27
8114.00,1.27
8113.00,1.27
8112.00,1.26
8111.00,1.26
8110.00,1.26
8109.00,1.26
8108.00,1.26
8107.00,1.26
8106.00,1.25
8105.00,1.25
8104.00,1.25
8103.00,1.25
8102.00,1.25
8101.00,1.24
8100.00,1.24
8099.00,1.24
8098.00,1.24
8097.00,1.24
8096.00,1.24
8095.00,1.24
8094.00,1.24
8093.00,1.24
8092.00,1.25
8091.00,1.25
8090.00,1.25
8089.00,1.25
8088.00,1.26
8087.00,1.26
8086.00,1.26
8085.00,1.27
8084.00,1.27
8083.00,1.28
8082.00,1.28
8081.00,1.28
8080.00,1.29
8079.00,1.29
8078.00,1.30
8077.00,1.30
8076.00,1.30
8075.00,1.31
8074.00,1.31
8073.00,1.32
8072.00,1.32
8071.00,1.32
8070.00,1.32
8069.00,1.33
8068.00,1.33
8067.00,1.33
8066.00,1.33
8065.00,1.33
8064.00,1.32
8063.00,1.32
8062.00,1.32
8061.00,1.32
8060.00,1.32
8059.00,1.31
8058.00,1.31
8057.00,1.30
8056.00,1.30
8055.00,1.30
8054.00,1.29
8053.00,1.29
8052.00,1.28
8051.00,1.28
8050.00,1.27
8049.00,1.27
8048.00,1.27
8047.00,1.26
8046.00,1.26
8045.00,1.26
8044.00,1.25
8043.00,1.25
8042.00,1.25
8041.00,1.25
8040.00,1.25
8039.00,1.25
8038.00,1.25
8037.00,1.25
8036.00,1.25
8035.00,1.25
8034.00,1.26
8033.00,1.26
8032.00,1.26
8031.00,1.27
8030.00,1.27
8029.00,1.27
8028.00,1.28
8027.00,1.28
8026.00,1.29
8025.00,1.30
8024.00,1.30
8023.00,1.31
8022.00,1.31
8021.00,1.32
8020.00,1.32
8019.00,1.33
8018.00,1.33
8017.00,1.34
8016.00,1.34
8015.00,1.35
8014.00,1.35
8013.00,1.35
8012.00,1.36
8011.00,1.36
8010.00,1.36
8009.00,1.36
8008.00,1.36
8007.00,1.36
8006.00,1.37
8005.00,1.37
8004.00,1.37
8003.00,1.37
8002.00,1.37
8001.00,1.37
8000.00,1.37
7999.00,1.36
7998.00,1.36
7997.00,1.36
7996.00,1.36
7995.00,1.35
7994.00,1.35
7993.00,1.35
7992.00,1.34
7991.00,1.34
7990.00,1.34
7989.00,1.34
7988.00,1.33
7987.00,1.33
7986.00,1.33
7985.00,1.33
7984.00,1.33
7983.00,1.32
7982.00,1.32
7981.00,1.32
7980.00,1.32
7979.00,1.31
7978.00,1.31
7977.00,1.31
7976.00,1.31
7975.00,1.30
7974.00,1.30
7973.00,1.30
7972.00,1.30
7971.00,1.30
7970.00,1.30
7969.00,1.30
7968.00,1.30
7967.00,1.30
7966.00,1.30
7965.00,1.30
7964.00,1.30
7963.00,1.30
7962.00,1.30
7961.00,1.30
7960.00,1.30
7959.00,1.30
7958.00,1.30
7957.00,1.30
7956.00,1.30
7955.00,1.30
7954.00,1.30
7953.00,1.30
7952.00,1.30
7951.00,1.30
7950.00,1.30
7949.00,1.31
7948.00,1.31
7947.00,1.31
7946.00,1.31
7945.00,1.31
7944.00,1.31
7943.00,1.31
7942.00,1.31
7941.00,1.31
7940.00,1.31
7939.00,1.32
7938.00,1.32
7937.00,1.32
7936.00,1.32
7935.00,1.32
7934.00,1.32
7933.00,1.32
7932.00,1.32
7931.00,1.32
7930.00,1.32
7929.00,1.32
7928.00,1.32
7927.00,1.32
7926.00,1.33
7925.00,1.33
7924.00,1.33
7923.00,1.33
7922.00,1.34
7921.00,1.34
7920.00,1.34
7919.00,1.35
7918.00,1.35
7917.00,1.35
7916.00,1.35
7915.00,1.35
7914.00,1.35
7913.00,1.35
7912.00,1.35
7911.00,1.35
7910.00,1.35
7909.00,1.36
7908.00,1.36
7907.00,1.36
7906.00,1.36
7905.00,1.36
7904.00,1.36
7903.00,1.37
7902.00,1.37
7901.00,1.37
7900.00,1.37
7899.00,1.37
7898.00,1.36
7897.00,1.36
7896.00,1.36
7895.00,1.36
7894.00,1.36
7893.00,1.35
7892.00,1.35
7891.00,1.35
7890.00,1.35
7889.00,1.35
7888.00,1.35
7887.00,1.35
7886.00,1.36
7885.00,1.36
7884.00,1.36
7883.00,1.36
7882.00,1.36
7881.00,1.36
7880.00,1.36
7879.00,1.36
7878.00,1.36
7877.00,1.36
7876.00,1.36
7875.00,1.36
7874.00,1.36
7873.00,1.36
7872.00,1.36
7871.00,1.36
7870.00,1.36
7869.00,1.36
7868.00,1.36
7867.00,1.36
7866.00,1.36
7865.00,1.36
7864.00,1.36
7863.00,1.36
7862.00,1.36
7861.00,1.36
7860.00,1.36
7859.00,1.36
7858.00,1.36
7857.00,1.35
7856.00,1.35
7855.00,1.35
7854.00,1.35
7853.00,1.35
7852.00,1.35
7851.00,1.35
7850.00,1.36
7849.00,1.36
7848.00,1.36
7847.00,1.36
7846.00,1.36
7845.00,1.36
7844.00,1.37
7843.00,1.37
7842.00,1.37
7841.00,1.37
7840.00,1.38
7839.00,1.38
7838.00,1.38
7837.00,1.38
7836.00,1.38
7835.00,1.38
7834.00,1.38
7833.00,1.38
7832.00,1.38
7831.00,1.38
7830.00,1.38
7829.00,1.38
7828.00,1.38
7827.00,1.38
7826.00,1.38
7825.00,1.38
7824.00,1.38
7823.00,1.38
7822.00,1.38
7821.00,1.37
7820.00,1.37
7819.00,1.37
7818.00,1.37
7817.00,1.36
7816.00,1.36
7815.00,1.36
7814.00,1.35
7813.00,1.35
7812.00,1.35
7811.00,1.35
7810.00,1.35
7809.00,1.34
7808.00,1.34
7807.00,1.34
7806.00,1.34
7805.00,1.34
7804.00,1.34
7803.00,1.34
7802.00,1.35
7801.00,1.35
7800.00,1.35
7799.00,1.35
7798.00,1.35
7797.00,1.35
7796.00,1.35
7795.00,1.36
7794.00,1.36
7793.00,1.36
7792.00,1.36
7791.00,1.36
7790.00,1.36
7789.00,1.37
7788.00,1.37
7787.00,1.37
7786.00,1.37
7785.00,1.38
7784.00,1.38
7783.00,1.38
7782.00,1.38
7781.00,1.39
7780.00,1.39
7779.00,1.39
7778.00,1.39
7777.00,1.39
7776.00,1.39
7775.00,1.39
7774.00,1.39
7773.00,1.39
7772.00,1.39
7771.00,1.39
7770.00,1.39
7769.00,1.39
7768.00,1.40
7767.00,1.40
7766.00,1.40
7765.00,1.40
7764.00,1.40
7763.00,1.40
7762.00,1.40
7761.00,1.40
7760.00,1.40
7759.00,1.40
7758.00,1.40
7757.00,1.39
7756.00,1.39
7755.00,1.39
7754.00,1.39
7753.00,1.39
7752.00,1.39
7751.00,1.39
7750.00,1.39
7749.00,1.39
7748.00,1.39
7747.00,1.39
7746.00,1.39
7745.00,1.39
7744.00,1.39
7743.00,1.39
7742.00,1.39
7741.00,1.39
7740.00,1.39
7739.00,1.39
7738.00,1.39
7737.00,1.39
7736.00,1.39
7735.00,1.39
7734.00,1.38
7733.00,1.38
7732.00,1.38
7731.00,1.38
7730.00,1.38
7729.00,1.38
7728.00,1.37
7727.00,1.37
7726.00,1.37
7725.00,1.37
7724.00,1.36
7723.00,1.36
7722.00,1.36
7721.00,1.35
7720.00,1.35
7719.00,1.34
7718.00,1.34
7717.00,1.34
7716.00,1.33
7715.00,1.33
7714.00,1.32
7713.00,1.32
7712.00,1.32
7711.00,1.32
7710.00,1.32
7709.00,1.32
7708.00,1.32
7707.00,1.32
7706.00,1.32
7705.00,1.32
7704.00,1.32
7703.00,1.32
7702.00,1.32
7701.00,1.33
7700.00,1.33
7699.00,1.33
7698.00,1.33
7697.00,1.34
7696.00,1.34
7695.00,1.35
7694.00,1.35
7693.00,1.36
7692.00,1.36
7691.00,1.36
7690.00,1.37
7689.00,1.37
7688.00,1.38
7687.00,1.38
7686.00,1.38
7685.00,1.38
7684.00,1.38
7683.00,1.38
7682.00,1.38
7681.00,1.38
7680.00,1.38
7679.00,1.38
7678.00,1.38
7677.00,1.38
7676.00,1.38
7675.00,1.38
7674.00,1.38
7673.00,1.38
7672.00,1.38
7671.00,1.38
7670.00,1.38
7669.00,1.37
7668.00,1.37
7667.00,1.37
7666.00,1.37
7665.00,1.37
7664.00,1.37
7663.00,1.37
7662.00,1.37
7661.00,1.37
7660.00,1.37
7659.00,1.37
7658.00,1.37
7657.00,1.37
7656.00,1.37
7655.00,1.37
7654.00,1.37
7653.00,1.37
7652.00,1.37
7651.00,1.37
7650.00,1.37
7649.00,1.37
7648.00,1.37
7647.00,1.37
7646.00,1.37
7645.00,1.37
7644.00,1.37
7643.00,1.37
7642.00,1.37
7641.00,1.37
7640.00,1.37
7639.00,1.37
7638.00,1.37
7637.00,1.37
7636.00,1.37
7635.00,1.37
7634.00,1.37
7633.00,1.37
7632.00,1.37
7631.00,1.37
7630.00,1.37
7629.00,1.37
7628.00,1.37
7627.00,1.37
7626.00,1.37
7625.00,1.37
7624.00,1.37
7623.00,1.37
7622.00,1.37
7621.00,1.38
7620.00,1.38
7619.00,1.38
7618.00,1.38
7617.00,1.38
7616.00,1.38
7615.00,1.38
7614.00,1.38
7613.00,1.38
7612.00,1.38
7611.00,1.38
7610.00,1.38
7609.00,1.38
7608.00,1.38
7607.00,1.38
7606.00,1.38
7605.00,1.38
7604.00,1.38
7603.00,1.38
7602.00,1.38
7601.00,1.37
7600.00,1.37
7599.00,1.37
7598.00,1.37
7597.00,1.37
7596.00,1.36
7595.00,1.36
7594.00,1.36
7593.00,1.36
7592.00,1.36
7591.00,1.36
7590.00,1.36
7589.00,1.35
7588.00,1.35
7587.00,1.35
7586.00,1.35
7585.00,1.35
7584.00,1.35
7583.00,1.35
7582.00,1.35
7581.00,1.35
7580.00,1.35
7579.00,1.36
7578.00,1.36
7577.00,1.36
7576.00,1.36
7575.00,1.36
7574.00,1.36
7573.00,1.36
7572.00,1.36
7571.00,1.36
7570.00,1.36
7569.00,1.36
7568.00,1.36
7567.00,1.36
7566.00,1.36
7565.00,1.36
7564.00,1.36
7563.00,1.36
7562.00,1.36
7561.00,1.36
7560.00,1.36
7559.00,1.36
7558.00,1.36
7557.00,1.36
7556.00,1.36
7555.00,1.36
7554.00,1.35
7553.00,1.35
7552.00,1.35
7551.00,1.35
7550.00,1.35
7549.00,1.35
7548.00,1.35
7547.00,1.35
7546.00,1.35
7545.00,1.35
7544.00,1.35
7543.00,1.34
7542.00,1.34
7541.00,1.34
7540.00,1.34
7539.00,1.34
7538.00,1.34
7537.00,1.34
7536.00,1.34
7535.00,1.35
7534.00,1.35
7533.00,1.35
7532.00,1.35
7531.00,1.35
7530.00,1.35
7529.00,1.35
7528.00,1.35
7527.00,1.35
7526.00,1.35
7525.00,1.35
7524.00,1.36
7523.00,1.36
7522.00,1.36
7521.00,1.36
7520.00,1.36
7519.00,1.36
7518.00,1.36
7517.00,1.36
7516.00,1.36
7515.00,1.36
7514.00,1.36
7513.00,1.37
7512.00,1.37
7511.00,1.37
7510.00,1.37
7509.00,1.37
7508.00,1.36
7507.00,1.36
7506.00,1.36
7505.00,1.36
7504.00,1.36
7503.00,1.36
7502.00,1.36
7501.00,1.36
7500.00,1.36
7499.00,1.36
7498.00,1.36
7497.00,1.36
7496.00,1.35
7495.00,1.35
7494.00,1.35
7493.00,1.35
7492.00,1.35
7491.00,1.35
7490.00,1.35
7489.00,1.35
7488.00,1.35
7487.00,1.35
7486.00,1.35
7485.00,1.35
7484.00,1.35
7483.00,1.35
7482.00,1.35
7481.00,1.35
7480.00,1.35
7479.00,1.35
7478.00,1.35
7477.00,1.35
7476.00,1.36
7475.00,1.36
7474.00,1.36
7473.00,1.36
7472.00,1.36
7471.00,1.36
7470.00,1.36
7469.00,1.36
7468.00,1.36
7467.00,1.36
7466.00,1.36
7465.00,1.37
7464.00,1.37
7463.00,1.37
7462.00,1.37
7461.00,1.37
7460.00,1.37
7459.00,1.37
7458.00,1.37
7457.00,1.37
7456.00,1.37
7455.00,1.37
7454.00,1.37
7453.00,1.36
7452.00,1.36
7451.00,1.36
7450.00,1.36
7449.00,1.36
7448.00,1.36
7447.00,1.36
7446.00,1.36
7445.00,1.35
7444.00,1.35
7443.00,1.35
7442.00,1.35
7441.00,1.35
7440.00,1.35
7439.00,1.35
7438.00,1.34
7437.00,1.34
7436.00,1.34
7435.00,1.34
7434.00,1.34
7433.00,1.33
7432.00,1.33
7431.00,1.33
7430.00,1.33
7429.00,1.32
7428.00,1.32
7427.00,1.32
7426.00,1.32
7425.00,1.32
7424.00,1.31
7423.00,1.31
7422.00,1.31
7421.00,1.31
7420.00,1.31
7419.00,1.31
7418.00,1.31
7417.00,1.31
7416.00,1.30
7415.00,1.30
7414.00,1.30
7413.00,1.30
7412.00,1.30
7411.00,1.30
7410.00,1.30
7409.00,1.30
7408.00,1.30
7407.00,1.30
7406.00,1.30
7405.00,1.30
7404.00,1.31
7403.00,1.31
7402.00,1.31
7401.00,1.31
7400.00,1.31
7399.00,1.31
7398.00,1.31
7397.00,1.31
7396.00,1.31
7395.00,1.32
7394.00,1.32
7393.00,1.32
7392.00,1.32
7391.00,1.32
7390.00,1.32
7389.00,1.32
7388.00,1.32
7387.00,1.32
7386.00,1.32
7385.00,1.31
7384.00,1.31
7383.00,1.31
7382.00,1.31
7381.00,1.31
7380.00,1.31
7379.00,1.31
7378.00,1.31
7377.00,1.31
7376.00,1.31
7375.00,1.31
7374.00,1.31
7373.00,1.31
7372.00,1.31
7371.00,1.31
7370.00,1.31
7369.00,1.31
7368.00,1.31
7367.00,1.31
7366.00,1.31
7365.00,1.31
7364.00,1.31
7363.00,1.31
7362.00,1.31
7361.00,1.31
7360.00,1.31
7359.00,1.31
7358.00,1.31
7357.00,1.31
7356.00,1.31
7355.00,1.31
7354.00,1.31
7353.00,1.31
7352.00,1.31
7351.00,1.31
7350.00,1.31
7349.00,1.31
7348.00,1.31
7347.00,1.31
7346.00,1.31
7345.00,1.31
7344.00,1.31
7343.00,1.31
7342.00,1.31
7341.00,1.30
7340.00,1.30
7339.00,1.30
7338.00,1.30
7337.00,1.30
7336.00,1.30
7335.00,1.30
7334.00,1.30
7333.00,1.30
7332.00,1.30
7331.00,1.30
7330.00,1.31
7329.00,1.31
7328.00,1.31
7327.00,1.31
7326.00,1.31
7325.00,1.31
7324.00,1.31
7323.00,1.31
7322.00,1.31
7321.00,1.32
7320.00,1.32
7319.00,1.32
7318.00,1.32
7317.00,1.32
7316.00,1.32
7315.00,1.32
7314.00,1.32
7313.00,1.33
7312.00,1.33
7311.00,1.33
7310.00,1.33
7309.00,1.33
7308.00,1.33
7307.00,1.33
7306.00,1.32
7305.00,1.32
7304.00,1.32
7303.00,1.32
7302.00,1.32
7301.00,1.32
7300.00,1.31
7299.00,1.31
7298.00,1.31
7297.00,1.31
7296.00,1.31
7295.00,1.31
7294.00,1.31
7293.00,1.31
7292.00,1.31
7291.00,1.30
7290.00,1.30
7289.00,1.30
7288.00,1.30
7287.00,1.30
7286.00,1.29
7285.00,1.29
7284.00,1.29
7283.00,1.29
7282.00,1.29
7281.00,1.29
7280.00,1.29
7279.00,1.29
7278.00,1.29
7277.00,1.29
7276.00,1.29
7275.00,1.29
7274.00,1.29
7273.00,1.29
7272.00,1.29
7271.00,1.30
7270.00,1.30
7269.00,1.30
7268.00,1.30
7267.00,1.30
7266.00,1.30
7265.00,1.30
7264.00,1.31
7263.00,1.31
7262.00,1.31
7261.00,1.31
7260.00,1.32
7259.00,1.32
7258.00,1.32
7257.00,1.32
7256.00,1.33
7255.00,1.33
7254.00,1.33
7253.00,1.33
7252.00,1.34
7251.00,1.34
7250.00,1.34
7249.00,1.34
7248.00,1.34
7247.00,1.34
7246.00,1.34
7245.00,1.34
7244.00,1.34
7243.00,1.34
7242.00,1.34
7241.00,1.35
7240.00,1.35
7239.00,1.35
7238.00,1.35
7237.00,1.35
7236.00,1.34
7235.00,1.34
7234.00,1.34
7233.00,1.34
7232.00,1.34
7231.00,1.34
7230.00,1.33
7229.00,1.33
7228.00,1.33
7227.00,1.33
7226.00,1.32
7225.00,1.32
7224.00,1.32
7223.00,1.31
7222.00,1.31
7221.00,1.31
7220.00,1.30
7219.00,1.30
7218.00,1.29
7217.00,1.29
7216.00,1.28
7215.00,1.28
7214.00,1.28
7213.00,1.27
7212.00,1.27
7211.00,1.26
7210.00,1.26
7209.00,1.26
7208.00,1.25
7207.00,1.25
7206.00,1.25
7205.00,1.25
7204.00,1.24
7203.00,1.24
7202.00,1.24
7201.00,1.24
7200.00,1.24
7199.00,1.24
7198.00,1.24
7197.00,1.23
7196.00,1.23
7195.00,1.23
7194.00,1.23
7193.00,1.23
7192.00,1.23
7191.00,1.23
7190.00,1.23
7189.00,1.22
7188.00,1.22
7187.00,1.22
7186.00,1.22
7185.00,1.22
7184.00,1.22
7183.00,1.22
7182.00,1.22
7181.00,1.21
7180.00,1.21
7179.00,1.21
7178.00,1.21
7177.00,1.21
7176.00,1.21
7175.00,1.21
7174.00,1.21
7173.00,1.21
7172.00,1.21
7171.00,1.21
7170.00,1.21
7169.00,1.20
7168.00,1.20
7167.00,1.20
7166.00,1.20
7165.00,1.21
7164.00,1.21
7163.00,1.21
7162.00,1.21
7161.00,1.21
7160.00,1.21
7159.00,1.21
7158.00,1.21
7157.00,1.21
7156.00,1.21
7155.00,1.21
7154.00,1.20
7153.00,1.20
7152.00,1.20
7151.00,1.20
7150.00,1.20
7149.00,1.20
7148.00,1.19
7147.00,1.19
7146.00,1.19
7145.00,1.19
7144.00,1.19
7143.00,1.18
7142.00,1.18
7141.00,1.18
7140.00,1.18
7139.00,1.18
7138.00,1.18
7137.00,1.18
7136.00,1.18
7135.00,1.18
7134.00,1.17
7133.00,1.17
7132.00,1.17
7131.00,1.17
7130.00,1.17
7129.00,1.17
7128.00,1.17
7127.00,1.17
7126.00,1.17
7125.00,1.17
7124.00,1.17
7123.00,1.17
7122.00,1.17
7121.00,1.17
7120.00,1.17
7119.00,1.18
7118.00,1.18
7117.00,1.18
7116.00,1.18
7115.00,1.18
7114.00,1.17
7113.00,1.17
7112.00,1.17
7111.00,1.17
7110.00,1.17
7109.00,1.17
7108.00,1.17
7107.00,1.16
7106.00,1.16
7105.00,1.16
7104.00,1.16
7103.00,1.16
7102.00,1.16
7101.00,1.15
7100.00,1.15
7099.00,1.15
7098.00,1.15
7097.00,1.15
7096.00,1.14
7095.00,1.14
7094.00,1.14
7093.00,1.14
7092.00,1.14
7091.00,1.13
7090.00,1.13
7089.00,1.13
7088.00,1.13
7087.00,1.13
7086.00,1.12
7085.00,1.12
7084.00,1.12
7083.00,1.12
7082.00,1.12
7081.00,1.11
7080.00,1.11
7079.00,1.11
7078.00,1.11
7077.00,1.11
7076.00,1.11
7075.00,1.10
7074.00,1.10
7073.00,1.10
7072.00,1.10
7071.00,1.10
7070.00,1.10
7069.00,1.10
7068.00,1.10
7067.00,1.10
7066.00,1.10
7065.00,1.10
7064.00,1.10
7063.00,1.09
7062.00,1.09
7061.00,1.09
7060.00,1.09
7059.00,1.09
7058.00,1.09
7057.00,1.09
7056.00,1.09
7055.00,1.09
7054.00,1.09
7053.00,1.09
7052.00,1.09
7051.00,1.09
7050.00,1.09
7049.00,1.09
7048.00,1.09
7047.00,1.08
7046.00,1.08
7045.00,1.08
7044.00,1.08
7043.00,1.07
7042.00,1.07
7041.00,1.07
7040.00,1.07
7039.00,1.06
7038.00,1.06
7037.00,1.06
7036.00,1.06
7035.00,1.05
7034.00,1.05
7033.00,1.05
7032.00,1.04
7031.00,1.04
7030.00,1.04
7029.00,1.04
7028.00,1.03
7027.00,1.03
7026.00,1.03
7025.00,1.03
7024.00,1.02
7023.00,1.02
7022.00,1.02
7021.00,1.01
7020.00,1.01
7019.00,1.01
7018.00,1.00
7017.00,1.00
7016.00,1.00
7015.00,1.00
7014.00,0.99
7013.00,0.99
7012.00,0.99
7011.00,0.99
7010.00,0.99
7009.00,0.99
7008.00,0.99
7007.00,0.98
7006.00,0.98
7005.00,0.98
7004.00,0.98
7003.00,0.98
7002.00,0.98
7001.00,0.98
7000.00,0.98
6999.00,0.98
6998.00,0.98
6997.00,0.98
6996.00,0.98
6995.00,0.98
6994.00,0.98
6993.00,0.98
6992.00,0.99
6991.00,0.99
6990.00,0.99
6989.00,0.99
6988.00,0.99
6987.00,0.99
6986.00,0.99
6985.00,0.99
6984.00,0.99
6983.00,0.99
6982.00,1.00
6981.00,1.00
6980.00,1.00
6979.00,1.00
6978.00,1.00
6977.00,1.00
6976.00,1.00
6975.00,1.00
6974.00,1.00
6973.00,1.01
6972.00,1.01
6971.00,1.01
6970.00,1.01
6969.00,1.00
6968.00,1.00
6967.00,1.00
6966.00,1.00
6965.00,1.00
6964.00,1.00
6963.00,1.00
6962.00,1.00
6961.00,1.00
6960.00,1.00
6959.00,1.00
6958.00,1.00
6957.00,1.00
6956.00,1.00
6955.00,1.00
6954.00,1.00
6953.00,1.00
6952.00,1.00
6951.00,1.00
6950.00,1.00
6949.00,1.00
6948.00,1.00
6947.00,1.00
6946.00,1.00
6945.00,1.00
6944.00,1.00
6943.00,1.01
6942.00,1.01
6941.00,1.01
6940.00,1.01
6939.00,1.01
6938.00,1.01
6937.00,1.01
6936.00,1.01
6935.00,1.01
6934.00,1.01
6933.00,1.02
6932.00,1.02
6931.00,1.02
6930.00,1.02
6929.00,1.02
6928.00,1.02
6927.00,1.02
6926.00,1.02
6925.00,1.02
6924.00,1.02
6923.00,1.02
6922.00,1.01
6921.00,1.01
6920.00,1.01
6919.00,1.01
6918.00,1.01
6917.00,1.01
6916.00,1.00
6915.00,1.00
6914.00,1.00
6913.00,1.00
6912.00,1.00
6911.00,0.99
6910.00,0.99
6909.00,0.99
6908.00,0.99
6907.00,0.99
6906.00,0.99
6905.00,0.99
6904.00,0.99
6903.00,0.99
6902.00,0.99
6901.00,0.99
6900.00,0.98
6899.00,0.98
6898.00,0.99
6897.00,0.99
6896.00,0.99
6895.00,0.99
6894.00,0.99
6893.00,0.99
6892.00,0.99
6891.00,0.99
6890.00,0.99
6889.00,0.99
6888.00,0.99
6887.00,0.99
6886.00,0.99
6885.00,0.99
6884.00,0.99
6883.00,0.99
6882.00,1.00
6881.00,1.00
6880.00,1.00
6879.00,1.00
6878.00,1.00
6877.00,1.00
6876.00,1.00
6875.00,1.00
6874.00,1.00
6873.00,1.00
6872.00,1.00
6871.00,1.00
6870.00,1.00
6869.00,1.00
6868.00,1.00
6867.00,1.00
6866.00,1.00
6865.00,1.00
6864.00,1.00
6863.00,1.00
6862.00,1.00
6861.00,1.00
6860.00,1.00
6859.00,1.00
6858.00,1.00
6857.00,1.00
6856.00,1.00
6855.00,1.00
6854.00,1.01
6853.00,1.01
6852.00,1.01
6851.00,1.01
6850.00,1.01
6849.00,1.01
6848.00,1.01
6847.00,1.00
6846.00,1.00
6845.00,1.00
6844.00,1.00
6843.00,1.01
6842.00,1.01
6841.00,1.01
6840.00,1.01
6839.00,1.01
6838.00,1.01
6837.00,1.01
6836.00,1.01
6835.00,1.01
6834.00,1.02
6833.00,1.02
6832.00,1.02
6831.00,1.02
6830.00,1.02
6829.00,1.02
6828.00,1.02
6827.00,1.02
6826.00,1.02
6825.00,1.02
6824.00,1.02
6823.00,1.02
6822.00,1.02
6821.00,1.02
6820.00,1.03
6819.00,1.03
6818.00,1.03
6817.00,1.03
6816.00,1.02
6815.00,1.02
6814.00,1.02
6813.00,1.02
6812.00,1.02
6811.00,1.02
6810.00,1.02
6809.00,1.02
6808.00,1.02
6807.00,1.01
6806.00,1.01
6805.00,1.01
6804.00,1.01
6803.00,1.01
6802.00,1.01
6801.00,1.00
6800.00,1.00
6799.00,1.00
6798.00,1.00
6797.00,1.00
6796.00,1.00
6795.00,1.00
6794.00,0.99
6793.00,0.99
6792.00,0.99
6791.00,0.99
6790.00,0.99
6789.00,0.99
6788.00,0.99
6787.00,0.99
6786.00,0.99
6785.00,0.99
6784.00,0.99
6783.00,0.99
6782.00,0.99
6781.00,0.99
6780.00,0.99
6779.00,0.99
6778.00,0.99
6777.00,0.99
6776.00,0.99
6775.00,0.99
6774.00,0.99
6773.00,1.00
6772.00,1.00
6771.00,1.00
6770.00,1.00
6769.00,1.01
6768.00,1.01
6767.00,1.01
6766.00,1.01
6765.00,1.02
6764.00,1.02
6763.00,1.02
6762.00,1.02
6761.00,1.03
6760.00,1.03
6759.00,1.03
6758.00,1.03
6757.00,1.04
6756.00,1.04
6755.00,1.04
6754.00,1.04
6753.00,1.05
6752.00,1.05
6751.00,1.05
6750.00,1.05
6749.00,1.06
6748.00,1.06
6747.00,1.06
6746.00,1.06
6745.00,1.06
6744.00,1.06
6743.00,1.06
6742.00,1.07
6741.00,1.07
6740.00,1.07
6739.00,1.07
6738.00,1.07
6737.00,1.07
6736.00,1.07
6735.00,1.07
6734.00,1.07
6733.00,1.07
6732.00,1.07
6731.00,1.07
6730.00,1.07
6729.00,1.07
6728.00,1.07
6727.00,1.07
6726.00,1.07
6725.00,1.07
6724.00,1.07
6723.00,1.07
6722.00,1.07
6721.00,1.07
6720.00,1.07
6719.00,1.06
6718.00,1.06
6717.00,1.06
6716.00,1.06
6715.00,1.06
6714.00,1.06
6713.00,1.06
6712.00,1.06
6711.00,1.06
6710.00,1.06
6709.00,1.06
6708.00,1.06
6707.00,1.06
6706.00,1.06
6705.00,1.06
6704.00,1.06
6703.00,1.06
6702.00,1.06
6701.00,1.06
6700.00,1.06
6699.00,1.06
6698.00,1.06
6697.00,1.06
6696.00,1.06
6695.00,1.06
6694.00,1.07
6693.00,1.07
6692.00,1.07
6691.00,1.07
6690.00,1.07
6689.00,1.07
6688.00,1.07
6687.00,1.07
6686.00,1.08
6685.00,1.08
6684.00,1.08
6683.00,1.08
6682.00,1.08
6681.00,1.08
6680.00,1.08
6679.00,1.08
6678.00,1.08
6677.00,1.08
6676.00,1.08
6675.00,1.08
6674.00,1.08
6673.00,1.09
6672.00,1.09
6671.00,1.09
6670.00,1.09
6669.00,1.09
6668.00,1.09
6667.00,1.10
6666.00,1.10
6665.00,1.10
6664.00,1.10
6663.00,1.10
6662.00,1.11
6661.00,1.11
6660.00,1.11
6659.00,1.12
6658.00,1.12
6657.00,1.12
6656.00,1.13
6655.00,1.13
6654.00,1.13
6653.00,1.14
6652.00,1.14
6651.00,1.14
6650.00,1.15
6649.00,1.15
6648.00,1.15
6647.00,1.15
6646.00,1.15
6645.00,1.15
6644.00,1.15
6643.00,1.15
6642.00,1.15
6641.00,1.15
6640.00,1.15
6639.00,1.15
6638.00,1.15
6637.00,1.15
6636.00,1.15
6635.00,1.15
6634.00,1.15
6633.00,1.15
6632.00,1.15
6631.00,1.15
6630.00,1.15
6629.00,1.14
6628.00,1.14
6627.00,1.14
6626.00,1.14
6625.00,1.14
6624.00,1.14
6623.00,1.13
6622.00,1.13
6621.00,1.13
6620.00,1.13
6619.00,1.13
6618.00,1.13
6617.00,1.13
6616.00,1.14
6615.00,1.14
6614.00,1.14
6613.00,1.14
6612.00,1.14
6611.00,1.14
6610.00,1.14
6609.00,1.14
6608.00,1.14
6607.00,1.14
6606.00,1.14
6605.00,1.14
6604.00,1.14
6603.00,1.14
6602.00,1.14
6601.00,1.14
6600.00,1.15
6599.00,1.15
6598.00,1.15
6597.00,1.15
6596.00,1.15
6595.00,1.15
6594.00,1.15
6593.00,1.16
6592.00,1.16
6591.00,1.16
6590.00,1.16
6589.00,1.16
6588.00,1.16
6587.00,1.15
6586.00,1.15
6585.00,1.15
6584.00,1.15
6583.00,1.15
6582.00,1.15
6581.00,1.15
6580.00,1.15
6579.00,1.15
6578.00,1.15
6577.00,1.15
6576.00,1.15
6575.00,1.15
6574.00,1.15
6573.00,1.15
6572.00,1.15
6571.00,1.15
6570.00,1.15
6569.00,1.15
6568.00,1.15
6567.00,1.15
6566.00,1.15
6565.00,1.15
6564.00,1.15
6563.00,1.15
6562.00,1.15
6561.00,1.15
6560.00,1.15
6559.00,1.15
6558.00,1.15
6557.00,1.16
6556.00,1.16
6555.00,1.16
6554.00,1.16
6553.00,1.17
6552.00,1.17
6551.00,1.17
6550.00,1.18
6549.00,1.18
6548.00,1.18
6547.00,1.18
6546.00,1.18
6545.00,1.19
6544.00,1.19
6543.00,1.19
6542.00,1.19
6541.00,1.19
6540.00,1.19
6539.00,1.19
6538.00,1.19
6537.00,1.19
6536.00,1.19
6535.00,1.19
6534.00,1.19
6533.00,1.19
6532.00,1.19
6531.00,1.19
6530.00,1.19
6529.00,1.19
6528.00,1.18
6527.00,1.18
6526.00,1.18
6525.00,1.18
6524.00,1.18
6523.00,1.18
6522.00,1.18
6521.00,1.18
6520.00,1.18
6519.00,1.18
6518.00,1.18
6517.00,1.18
6516.00,1.18
6515.00,1.18
6514.00,1.18
6513.00,1.18
6512.00,1.18
6511.00,1.19
6510.00,1.19
6509.00,1.19
6508.00,1.19
6507.00,1.19
6506.00,1.20
6505.00,1.20
6504.00,1.20
6503.00,1.20
6502.00,1.21
6501.00,1.21
6500.00,1.21
6499.00,1.21
6498.00,1.22
6497.00,1.22
6496.00,1.22
6495.00,1.22
6494.00,1.23
6493.00,1.23
6492.00,1.23
6491.00,1.23
6490.00,1.24
6489.00,1.24
6488.00,1.24
6487.00,1.24
6486.00,1.24
6485.00,1.24
6484.00,1.24
6483.00,1.24
6482.00,1.24
6481.00,1.24
6480.00,1.25
6479.00,1.25
6478.00,1.25
6477.00,1.25
6476.00,1.25
6475.00,1.25
6474.00,1.25
6473.00,1.25
6472.00,1.25
6471.00,1.25
6470.00,1.25
6469.00,1.25
6468.00,1.25
6467.00,1.25
6466.00,1.25
6465.00,1.25
6464.00,1.25
6463.00,1.25
6462.00,1.26
6461.00,1.26
6460.00,1.26
6459.00,1.26
6458.00,1.26
6457.00,1.26
6456.00,1.26
6455.00,1.26
6454.00,1.26
6453.00,1.26
6452.00,1.26
6451.00,1.26
6450.00,1.26
6449.00,1.26
6448.00,1.26
6447.00,1.26
6446.00,1.26
6445.00,1.27
6444.00,1.27
6443.00,1.27
6442.00,1.27
6441.00,1.27
6440.00,1.27
6439.00,1.27
6438.00,1.27
6437.00,1.27
6436.00,1.27
6435.00,1.27
6434.00,1.27
6433.00,1.27
6432.00,1.26
6431.00,1.26
6430.00,1.26
6429.00,1.26
6428.00,1.26
6427.00,1.26
6426.00,1.26
6425.00,1.26
6424.00,1.26
6423.00,1.26
6422.00,1.26
6421.00,1.26
6420.00,1.26
6419.00,1.26
6418.00,1.26
6417.00,1.26
6416.00,1.26
6415.00,1.26
6414.00,1.26
6413.00,1.26
6412.00,1.26
6411.00,1.26
6410.00,1.26
6409.00,1.26
6408.00,1.26
6407.00,1.26
6406.00,1.26
6405.00,1.26
6404.00,1.26
6403.00,1.26
6402.00,1.26
6401.00,1.26
6400.00,1.26
6399.00,1.26
6398.00,1.26
6397.00,1.26
6396.00,1.26
6395.00,1.26
6394.00,1.26
6393.00,1.26
6392.00,1.26
6391.00,1.26
6390.00,1.26
6389.00,1.26
6388.00,1.26
6387.00,1.27
6386.00,1.27
6385.00,1.27
6384.00,1.27
6383.00,1.27
6382.00,1.27
6381.00,1.27
6380.00,1.27
6379.00,1.27
6378.00,1.28
6377.00,1.28
6376.00,1.28
6375.00,1.28
6374.00,1.28
6373.00,1.28
6372.00,1.28
6371.00,1.28
6370.00,1.29
6369.00,1.29
6368.00,1.29
6367.00,1.29
6366.00,1.29
6365.00,1.29
6364.00,1.29
6363.00,1.29
6362.00,1.29
6361.00,1.29
6360.00,1.29
6359.00,1.29
6358.00,1.29
6357.00,1.30
6356.00,1.30
6355.00,1.30
6354.00,1.30
6353.00,1.30
6352.00,1.30
6351.00,1.30
6350.00,1.30
6349.00,1.30
6348.00,1.30
6347.00,1.30
6346.00,1.30
6345.00,1.30
6344.00,1.30
6343.00,1.30
6342.00,1.30
6341.00,1.30
6340.00,1.30
6339.00,1.30
6338.00,1.30
6337.00,1.30
6336.00,1.31
6335.00,1.31
6334.00,1.31
6333.00,1.31
6332.00,1.31
6331.00,1.31
6330.00,1.31
6329.00,1.32
6328.00,1.32
6327.00,1.32
6326.00,1.32
6325.00,1.32
6324.00,1.32
6323.00,1.33
6322.00,1.33
6321.00,1.33
6320.00,1.33
6319.00,1.33
6318.00,1.33
6317.00,1.33
6316.00,1.34
6315.00,1.34
6314.00,1.34
6313.00,1.34
6312.00,1.34
6311.00,1.34
6310.00,1.34
6309.00,1.34
6308.00,1.34
6307.00,1.34
6306.00,1.34
6305.00,1.34
6304.00,1.33
6303.00,1.33
6302.00,1.33
6301.00,1.33
6300.00,1.33
6299.00,1.33
6298.00,1.33
6297.00,1.33
6296.00,1.33
6295.00,1.32
6294.00,1.32
6293.00,1.32
6292.00,1.32
6291.00,1.32
6290.00,1.32
6289.00,1.32
6288.00,1.32
6287.00,1.32
6286.00,1.32
6285.00,1.32
6284.00,1.32
6283.00,1.32
6282.00,1.32
6281.00,1.33
6280.00,1.33
6279.00,1.33
6278.00,1.33
6277.00,1.33
6276.00,1.33
6275.00,1.33
6274.00,1.33
6273.00,1.34
6272.00,1.34
6271.00,1.34
6270.00,1.34
6269.00,1.34
6268.00,1.34
6267.00,1.34
6266.00,1.35
6265.00,1.35
6264.00,1.35
6263.00,1.35
6262.00,1.35
6261.00,1.35
6260.00,1.35
6259.00,1.35
6258.00,1.35
6257.00,1.35
6256.00,1.35
6255.00,1.35
6254.00,1.35
6253.00,1.36
6252.00,1.36
6251.00,1.36
6250.00,1.36
6249.00,1.36
6248.00,1.36
6247.00,1.36
6246.00,1.36
6245.00,1.36
6244.00,1.36
6243.00,1.36
6242.00,1.36
6241.00,1.36
6240.00,1.36
6239.00,1.36
6238.00,1.36
6237.00,1.36
6236.00,1.36
6235.00,1.36
6234.00,1.36
6233.00,1.36
6232.00,1.36
6231.00,1.36
6230.00,1.36
6229.00,1.36
6228.00,1.36
6227.00,1.36
6226.00,1.36
6225.00,1.36
6224.00,1.36
6223.00,1.36
6222.00,1.36
6221.00,1.36
6220.00,1.36
6219.00,1.36
6218.00,1.36
6217.00,1.36
6216.00,1.36
6215.00,1.36
6214.00,1.36
6213.00,1.36
6212.00,1.36
6211.00,1.36
6210.00,1.36
6209.00,1.36
6208.00,1.35
6207.00,1.35
6206.00,1.35
6205.00,1.35
6204.00,1.35
6203.00,1.35
6202.00,1.35
6201.00,1.36
6200.00,1.36
6199.00,1.36
6198.00,1.36
6197.00,1.36
6196.00,1.36
6195.00,1.36
6194.00,1.36
6193.00,1.36
6192.00,1.36
6191.00,1.36
6190.00,1.36
6189.00,1.36
6188.00,1.36
6187.00,1.36
6186.00,1.36
6185.00,1.36
6184.00,1.36
6183.00,1.36
6182.00,1.36
6181.00,1.36
6180.00,1.37
6179.00,1.37
6178.00,1.37
6177.00,1.37
6176.00,1.37
6175.00,1.37
6174.00,1.37
6173.00,1.37
6172.00,1.37
6171.00,1.37
6170.00,1.37
6169.00,1.37
6168.00,1.38
6167.00,1.38
6166.00,1.38
6165.00,1.38
6164.00,1.38
6163.00,1.38
6162.00,1.39
6161.00,1.39
6160.00,1.39
6159.00,1.39
6158.00,1.39
6157.00,1.40
6156.00,1.40
6155.00,1.40
6154.00,1.40
6153.00,1.40
6152.00,1.41
6151.00,1.41
6150.00,1.41
6149.00,1.41
6148.00,1.41
6147.00,1.42
6146.00,1.42
6145.00,1.42
6144.00,1.42
6143.00,1.42
6142.00,1.42
6141.00,1.42
6140.00,1.43
6139.00,1.43
6138.00,1.43
6137.00,1.43
6136.00,1.43
6135.00,1.43
6134.00,1.43
6133.00,1.43
6132.00,1.42
6131.00,1.42
6130.00,1.42
6129.00,1.42
6128.00,1.42
6127.00,1.42
6126.00,1.42
6125.00,1.42
6124.00,1.41
6123.00,1.41
6122.00,1.41
6121.00,1.41
6120.00,1.41
6119.00,1.41
6118.00,1.41
6117.00,1.41
6116.00,1.40
6115.00,1.40
6114.00,1.40
6113.00,1.40
6112.00,1.40
6111.00,1.40
6110.00,1.40
6109.00,1.40
6108.00,1.40
6107.00,1.40
6106.00,1.40
6105.00,1.40
6104.00,1.41
6103.00,1.41
6102.00,1.41
6101.00,1.41
6100.00,1.41
6099.00,1.41
6098.00,1.41
6097.00,1.42
6096.00,1.42
6095.00,1.42
6094.00,1.42
6093.00,1.42
6092.00,1.42
6091.00,1.43
6090.00,1.43
6089.00,1.43
6088.00,1.43
6087.00,1.43
6086.00,1.43
6085.00,1.44
6084.00,1.44
6083.00,1.44
6082.00,1.44
6081.00,1.44
6080.00,1.44
6079.00,1.44
6078.00,1.44
6077.00,1.44
6076.00,1.44
6075.00,1.44
6074.00,1.44
6073.00,1.44
6072.00,1.44
6071.00,1.44
6070.00,1.44
6069.00,1.44
6068.00,1.44
6067.00,1.44
6066.00,1.44
6065.00,1.44
6064.00,1.44
6063.00,1.44
6062.00,1.43
6061.00,1.43
6060.00,1.43
6059.00,1.43
6058.00,1.43
6057.00,1.43
6056.00,1.43
6055.00,1.43
6054.00,1.43
6053.00,1.43
6052.00,1.43
6051.00,1.43
6050.00,1.43
6049.00,1.43
6048.00,1.43
6047.00,1.43
6046.00,1.43
6045.00,1.43
6044.00,1.43
6043.00,1.43
6042.00,1.43
6041.00,1.43
6040.00,1.43
6039.00,1.43
6038.00,1.43
6037.00,1.43
6036.00,1.43
6035.00,1.43
6034.00,1.44
6033.00,1.44
6032.00,1.44
6031.00,1.44
6030.00,1.44
6029.00,1.44
6028.00,1.44
6027.00,1.44
6026.00,1.44
6025.00,1.44
6024.00,1.44
6023.00,1.44
6022.00,1.44
6021.00,1.44
6020.00,1.44
6019.00,1.44
6018.00,1.44
6017.00,1.44
6016.00,1.44
6015.00,1.44
6014.00,1.44
6013.00,1.44
6012.00,1.44
6011.00,1.44
6010.00,1.45
6009.00,1.45
6008.00,1.45
6007.00,1.45
6006.00,1.45
6005.00,1.45
6004.00,1.45
6003.00,1.45
6002.00,1.45
6001.00,1.45
6000.00,1.45
5999.00,1.45
5998.00,1.45
5997.00,1.45
5996.00,1.45
5995.00,1.45
5994.00,1.45
5993.00,1.44
5992.00,1.44
5991.00,1.44
5990.00,1.44
5989.00,1.44
5988.00,1.44
5987.00,1.44
5986.00,1.44
5985.00,1.44
5984.00,1.43
5983.00,1.43
5982.00,1.43
5981.00,1.43
5980.00,1.43
5979.00,1.43
5978.00,1.43
5977.00,1.42
5976.00,1.42
5975.00,1.42
5974.00,1.42
5973.00,1.42
5972.00,1.42
5971.00,1.42
5970.00,1.42
5969.00,1.42
5968.00,1.41
5967.00,1.41
5966.00,1.41
5965.00,1.41
5964.00,1.41
5963.00,1.41
5962.00,1.41
5961.00,1.41
5960.00,1.41
5959.00,1.40
5958.00,1.40
5957.00,1.40
5956.00,1.40
5955.00,1.40
5954.00,1.40
5953.00,1.40
5952.00,1.40
5951.00,1.40
5950.00,1.40
5949.00,1.39
5948.00,1.39
5947.00,1.39
5946.00,1.39
5945.00,1.39
5944.00,1.39
5943.00,1.39
5942.00,1.38
5941.00,1.38
5940.00,1.38
5939.00,1.38
5938.00,1.38
5937.00,1.38
5936.00,1.38
5935.00,1.38
5934.00,1.38
5933.00,1.38
5932.00,1.37
5931.00,1.37
5930.00,1.37
5929.00,1.37
5928.00,1.37
5927.00,1.37
5926.00,1.37
5925.00,1.37
5924.00,1.37
5923.00,1.37
5922.00,1.36
5921.00,1.36
5920.00,1.36
5919.00,1.36
5918.00,1.36
5917.00,1.36
5916.00,1.36
5915.00,1.36
5914.00,1.36
5913.00,1.36
5912.00,1.36
5911.00,1.36
5910.00,1.36
5909.00,1.36
5908.00,1.36
5907.00,1.36
5906.00,1.36
5905.00,1.37
5904.00,1.37
5903.00,1.37
5902.00,1.37
5901.00,1.37
5900.00,1.37
5899.00,1.37
5898.00,1.37
5897.00,1.37
5896.00,1.37
5895.00,1.37
5894.00,1.37
5893.00,1.38
5892.00,1.38
5891.00,1.38
5890.00,1.38
5889.00,1.38
5888.00,1.38
5887.00,1.38
5886.00,1.38
5885.00,1.38
5884.00,1.38
5883.00,1.38
5882.00,1.38
5881.00,1.38
5880.00,1.38
5879.00,1.38
5878.00,1.38
5877.00,1.38
5876.00,1.38
5875.00,1.38
5874.00,1.38
5873.00,1.38
5872.00,1.38
5871.00,1.38
5870.00,1.38
5869.00,1.38
5868.00,1.38
5867.00,1.38
5866.00,1.38
5865.00,1.38
5864.00,1.38
5863.00,1.38
5862.00,1.38
5861.00,1.38
5860.00,1.38
5859.00,1.38
5858.00,1.38
5857.00,1.38
5856.00,1.39
5855.00,1.39
5854.00,1.39
5853.00,1.39
5852.00,1.39
5851.00,1.39
5850.00,1.39
5849.00,1.39
5848.00,1.40
5847.00,1.40
5846.00,1.40
5845.00,1.40
5844.00,1.40
5843.00,1.40
5842.00,1.40
5841.00,1.40
5840.00,1.40
5839.00,1.40
5838.00,1.40
5837.00,1.40
5836.00,1.40
5835.00,1.40
5834.00,1.40
5833.00,1.40
5832.00,1.40
5831.00,1.40
5830.00,1.40
5829.00,1.40
5828.00,1.40
5827.00,1.40
5826.00,1.40
5825.00,1.40
5824.00,1.40
5823.00,1.40
5822.00,1.40
5821.00,1.40
5820.00,1.40
5819.00,1.40
5818.00,1.40
5817.00,1.40
5816.00,1.40
5815.00,1.40
5814.00,1.40
5813.00,1.39
5812.00,1.39
5811.00,1.39
5810.00,1.39
5809.00,1.39
5808.00,1.39
5807.00,1.39
5806.00,1.39
5805.00,1.39
5804.00,1.39
5803.00,1.39
5802.00,1.39
5801.00,1.39
5800.00,1.39
5799.00,1.39
5798.00,1.39
5797.00,1.39
5796.00,1.39
5795.00,1.39
5794.00,1.39
5793.00,1.39
5792.00,1.39
5791.00,1.39
5790.00,1.39
5789.00,1.39
5788.00,1.39
5787.00,1.39
5786.00,1.39
5785.00,1.39
5784.00,1.39
5783.00,1.39
5782.00,1.39
5781.00,1.39
5780.00,1.39
5779.00,1.39
5778.00,1.39
5777.00,1.39
5776.00,1.39
5775.00,1.39
5774.00,1.39
5773.00,1.39
5772.00,1.39
5771.00,1.39
5770.00,1.39
5769.00,1.39
5768.00,1.39
5767.00,1.39
5766.00,1.39
5765.00,1.39
5764.00,1.39
5763.00,1.39
5762.00,1.39
5761.00,1.39
5760.00,1.39
5759.00,1.39
5758.00,1.39
5757.00,1.39
5756.00,1.39
5755.00,1.39
5754.00,1.39
5753.00,1.39
5752.00,1.39
5751.00,1.39
5750.00,1.39
5749.00,1.39
5748.00,1.39
5747.00,1.39
5746.00,1.39
5745.00,1.39
5744.00,1.39
5743.00,1.39
5742.00,1.39
5741.00,1.39
5740.00,1.39
5739.00,1.39
5738.00,1.39
5737.00,1.39
5736.00,1.39
5735.00,1.40
5734.00,1.40
5733.00,1.40
5732.00,1.40
5731.00,1.40
5730.00,1.40
5729.00,1.40
5728.00,1.40
5727.00,1.40
5726.00,1.40
5725.00,1.40
5724.00,1.40
5723.00,1.40
5722.00,1.40
5721.00,1.40
5720.00,1.40
5719.00,1.40
5718.00,1.40
5717.00,1.40
5716.00,1.40
5715.00,1.40
5714.00,1.40
5713.00,1.41
5712.00,1.41
5711.00,1.41
5710.00,1.41
5709.00,1.41
5708.00,1.41
5707.00,1.41
5706.00,1.41
5705.00,1.41
5704.00,1.40
5703.00,1.40
5702.00,1.40
5701.00,1.40
5700.00,1.40
5699.00,1.40
5698.00,1.40
5697.00,1.40
5696.00,1.40
5695.00,1.40
5694.00,1.40
5693.00,1.40
5692.00,1.40
5691.00,1.39
5690.00,1.39
5689.00,1.39
5688.00,1.39
5687.00,1.39
5686.00,1.39
5685.00,1.39
5684.00,1.39
5683.00,1.39
5682.00,1.39
5681.00,1.39
5680.00,1.39
5679.00,1.39
5678.00,1.39
5677.00,1.39
5676.00,1.39
5675.00,1.39
5674.00,1.39
5673.00,1.39
5672.00,1.40
5671.00,1.40
5670.00,1.40
5669.00,1.40
5668.00,1.40
5667.00,1.40
5666.00,1.40
5665.00,1.40
5664.00,1.40
5663.00,1.40
5662.00,1.40
5661.00,1.41
5660.00,1.41
5659.00,1.41
5658.00,1.41
5657.00,1.41
5656.00,1.41
5655.00,1.41
5654.00,1.41
5653.00,1.41
5652.00,1.41
5651.00,1.41
5650.00,1.41
5649.00,1.42
5648.00,1.42
5647.00,1.42
5646.00,1.42
5645.00,1.42
5644.00,1.42
5643.00,1.42
5642.00,1.42
5641.00,1.42
5640.00,1.42
5639.00,1.42
5638.00,1.42
5637.00,1.42
5636.00,1.42
5635.00,1.43
5634.00,1.43
5633.00,1.43
5632.00,1.43
5631.00,1.43
5630.00,1.43
5629.00,1.43
5628.00,1.43
5627.00,1.43
5626.00,1.43
5625.00,1.43
5624.00,1.43
5623.00,1.43
5622.00,1.44
5621.00,1.44
5620.00,1.44
5619.00,1.44
5618.00,1.44
5617.00,1.44
5616.00,1.44
5615.00,1.44
5614.00,1.44
5613.00,1.44
5612.00,1.44
5611.00,1.44
5610.00,1.44
5609.00,1.44
5608.00,1.44
5607.00,1.44
5606.00,1.44
5605.00,1.44
5604.00,1.44
5603.00,1.44
5602.00,1.45
5601.00,1.45
5600.00,1.45
5599.00,1.45
5598.00,1.45
5597.00,1.45
5596.00,1.45
5595.00,1.45
5594.00,1.45
5593.00,1.45
5592.00,1.45
5591.00,1.45
5590.00,1.45
5589.00,1.45
5588.00,1.45
5587.00,1.45
5586.00,1.45
5585.00,1.45
5584.00,1.45
5583.00,1.45
5582.00,1.45
5581.00,1.45
5580.00,1.45
5579.00,1.46
5578.00,1.46
5577.00,1.46
5576.00,1.46
5575.00,1.46
5574.00,1.46
5573.00,1.46
5572.00,1.46
5571.00,1.46
5570.00,1.46
5569.00,1.46
5568.00,1.46
5567.00,1.46
5566.00,1.46
5565.00,1.46
5564.00,1.46
5563.00,1.46
5562.00,1.46
5561.00,1.46
5560.00,1.46
5559.00,1.46
5558.00,1.46
5557.00,1.46
5556.00,1.46
5555.00,1.46
5554.00,1.46
5553.00,1.46
5552.00,1.46
5551.00,1.46
5550.00,1.46
5549.00,1.46
5548.00,1.46
5547.00,1.46
5546.00,1.46
5545.00,1.46
5544.00,1.46
5543.00,1.46
5542.00,1.46
5541.00,1.46
5540.00,1.46
5539.00,1.46
5538.00,1.46
5537.00,1.47
5536.00,1.47
5535.00,1.47
5534.00,1.47
5533.00,1.47
5532.00,1.47
5531.00,1.47
5530.00,1.47
5529.00,1.47
5528.00,1.47
5527.00,1.47
5526.00,1.47
5525.00,1.47
5524.00,1.47
5523.00,1.47
5522.00,1.46
5521.00,1.46
5520.00,1.46
5519.00,1.46
5518.00,1.46
5517.00,1.46
5516.00,1.46
5515.00,1.46
5514.00,1.46
5513.00,1.46
5512.00,1.46
5511.00,1.46
5510.00,1.46
5509.00,1.46
5508.00,1.46
5507.00,1.46
5506.00,1.45
5505.00,1.45
5504.00,1.45
5503.00,1.45
5502.00,1.45
5501.00,1.45
5500.00,1.45
5499.00,1.45
5498.00,1.45
5497.00,1.45
5496.00,1.45
5495.00,1.45
5494.00,1.45
5493.00,1.45
5492.00,1.45
5491.00,1.45
5490.00,1.45
5489.00,1.45
5488.00,1.45
5487.00,1.45
5486.00,1.45
5485.00,1.45
5484.00,1.45
5483.00,1.45
5482.00,1.45
5481.00,1.45
5480.00,1.45
5479.00,1.45
5478.00,1.45
5477.00,1.45
5476.00,1.45
5475.00,1.46
5474.00,1.46
5473.00,1.46
5472.00,1.46
5471.00,1.46
5470.00,1.46
5469.00,1.46
5468.00,1.47
5467.00,1.47
5466.00,1.47
5465.00,1.47
5464.00,1.47
5463.00,1.47
5462.00,1.47
5461.00,1.47
5460.00,1.47
5459.00,1.47
5458.00,1.47
5457.00,1.47
5456.00,1.47
5455.00,1.47
5454.00,1.47
5453.00,1.47
5452.00,1.47
5451.00,1.47
5450.00,1.47
5449.00,1.47
5448.00,1.47
5447.00,1.47
5446.00,1.47
5445.00,1.47
5444.00,1.47
5443.00,1.46
5442.00,1.46
5441.00,1.46
5440.00,1.46
5439.00,1.46
5438.00,1.46
5437.00,1.46
5436.00,1.46
5435.00,1.46
5434.00,1.46
5433.00,1.46
5432.00,1.46
5431.00,1.46
5430.00,1.46
5429.00,1.46
5428.00,1.46
5427.00,1.46
5426.00,1.46
5425.00,1.46
5424.00,1.46
5423.00,1.46
5422.00,1.46
5421.00,1.46
5420.00,1.46
5419.00,1.46
5418.00,1.46
5417.00,1.46
5416.00,1.46
5415.00,1.46
5414.00,1.46
5413.00,1.46
5412.00,1.46
5411.00,1.46
5410.00,1.46
5409.00,1.46
5408.00,1.46
5407.00,1.46
5406.00,1.45
5405.00,1.45
5404.00,1.45
5403.00,1.45
5402.00,1.45
5401.00,1.45
5400.00,1.45
5399.00,1.45
5398.00,1.45
5397.00,1.45
5396.00,1.45
5395.00,1.45
5394.00,1.45
5393.00,1.44
5392.00,1.44
5391.00,1.44
5390.00,1.44
5389.00,1.44
5388.00,1.44
5387.00,1.44
5386.00,1.44
5385.00,1.44
5384.00,1.44
5383.00,1.43
5382.00,1.43
5381.00,1.43
5380.00,1.43
5379.00,1.43
5378.00,1.43
5377.00,1.43
5376.00,1.43
5375.00,1.43
5374.00,1.43
5373.00,1.42
5372.00,1.42
5371.00,1.42
5370.00,1.42
5369.00,1.42
5368.00,1.42
5367.00,1.42
5366.00,1.42
5365.00,1.41
5364.00,1.41
5363.00,1.41
5362.00,1.41
5361.00,1.41
5360.00,1.40
5359.00,1.40
5358.00,1.40
5357.00,1.39
5356.00,1.39
5355.00,1.39
5354.00,1.39
5353.00,1.38
5352.00,1.38
5351.00,1.38
5350.00,1.37
5349.00,1.37
5348.00,1.36
5347.00,1.36
5346.00,1.36
5345.00,1.35
5344.00,1.35
5343.00,1.34
5342.00,1.34
5341.00,1.33
5340.00,1.33
5339.00,1.32
5338.00,1.32
5337.00,1.31
5336.00,1.31
5335.00,1.30
5334.00,1.30
5333.00,1.29
5332.00,1.29
5331.00,1.28
5330.00,1.27
5329.00,1.27
5328.00,1.26
5327.00,1.26
5326.00,1.25
5325.00,1.25
5324.00,1.24
5323.00,1.23
5322.00,1.23
5321.00,1.22
5320.00,1.21
5319.00,1.21
5318.00,1.20
5317.00,1.19
5316.00,1.19
5315.00,1.18
5314.00,1.17
5313.00,1.17
5312.00,1.16
5311.00,1.15
5310.00,1.15
5309.00,1.14
5308.00,1.13
5307.00,1.12
5306.00,1.11
5305.00,1.11
5304.00,1.10
5303.00,1.09
5302.00,1.08
5301.00,1.08
5300.00,1.07
5299.00,1.06
5298.00,1.05
5297.00,1.05
5296.00,1.04
5295.00,1.03
5294.00,1.03
5293.00,1.02
5292.00,1.01
5291.00,1.01
5290.00,1.00
5289.00,0.99
5288.00,0.99
5287.00,0.98
5286.00,0.97
5285.00,0.97
5284.00,0.96
5283.00,0.96
5282.00,0.95
5281.00,0.94
5280.00,0.94
5279.00,0.93
5278.00,0.93
5277.00,0.92
5276.00,0.92
5275.00,0.91
5274.00,0.90
5273.00,0.90
5272.00,0.89
5271.00,0.89
5270.00,0.88
5269.00,0.88
5268.00,0.87
5267.00,0.87
5266.00,0.86
5265.00,0.85
5264.00,0.85
5263.00,0.84
5262.00,0.84
5261.00,0.83
5260.00,0.83
5259.00,0.82
5258.00,0.82
5257.00,0.81
5256.00,0.81
5255.00,0.80
5254.00,0.80
5253.00,0.79
5252.00,0.79
5251.00,0.79
5250.00,0.78
5249.00,0.78
5248.00,0.78
5247.00,0.77
5246.00,0.77
5245.00,0.77
5244.00,0.77
5243.00,0.76
5242.00,0.76
5241.00,0.76
5240.00,0.76
5239.00,0.76
5238.00,0.76
5237.00,0.75
5236.00,0.75
5235.00,0.75
5234.00,0.75
5233.00,0.75
5232.00,0.75
5231.00,0.75
5230.00,0.75
5229.00,0.75
5228.00,0.75
5227.00,0.75
5226.00,0.74
5225.00,0.74
5224.00,0.74
5223.00,0.74
5222.00,0.74
5221.00,0.74
5220.00,0.74
5219.00,0.74
5218.00,0.74
5217.00,0.73
5216.00,0.73
5215.00,0.73
5214.00,0.73
5213.00,0.73
5212.00,0.73
5211.00,0.73
5210.00,0.73
5209.00,0.73
5208.00,0.73
5207.00,0.72
5206.00,0.72
5205.00,0.72
5204.00,0.72
5203.00,0.72
5202.00,0.72
5201.00,0.72
5200.00,0.72
5199.00,0.72
5198.00,0.72
5197.00,0.72
5196.00,0.72
5195.00,0.72
5194.00,0.72
5193.00,0.72
5192.00,0.72
5191.00,0.72
5190.00,0.72
5189.00,0.72
5188.00,0.72
5187.00,0.72
5186.00,0.72
5185.00,0.71
5184.00,0.71
5183.00,0.71
5182.00,0.72
5181.00,0.72
5180.00,0.72
5179.00,0.72
5178.00,0.72
5177.00,0.72
5176.00,0.72
5175.00,0.72
5174.00,0.72
5173.00,0.72
5172.00,0.72
5171.00,0.72
5170.00,0.72
5169.00,0.72
5168.00,0.72
5167.00,0.72
5166.00,0.71
5165.00,0.71
5164.00,0.71
5163.00,0.71
5162.00,0.71
5161.00,0.71
5160.00,0.71
5159.00,0.71
5158.00,0.71
5157.00,0.71
5156.00,0.71
5155.00,0.71
5154.00,0.71
5153.00,0.71
5152.00,0.71
5151.00,0.71
5150.00,0.71
5149.00,0.72
5148.00,0.72
5147.00,0.72
5146.00,0.72
5145.00,0.72
5144.00,0.72
5143.00,0.72
5142.00,0.72
5141.00,0.72
5140.00,0.72
5139.00,0.73
5138.00,0.73
5137.00,0.73
5136.00,0.73
5135.00,0.73
5134.00,0.73
5133.00,0.74
5132.00,0.74
5131.00,0.74
5130.00,0.74
5129.00,0.74
5128.00,0.74
5127.00,0.74
5126.00,0.75
5125.00,0.75
5124.00,0.75
5123.00,0.75
5122.00,0.75
5121.00,0.75
5120.00,0.75
5119.00,0.76
5118.00,0.76
5117.00,0.76
5116.00,0.76
5115.00,0.76
5114.00,0.76
5113.00,0.76
5112.00,0.76
5111.00,0.77
5110.00,0.77
5109.00,0.77
5108.00,0.77
5107.00,0.77
5106.00,0.77
5105.00,0.77
5104.00,0.77
5103.00,0.78
5102.00,0.78
5101.00,0.78
5100.00,0.78
5099.00,0.78
5098.00,0.79
5097.00,0.79
5096.00,0.79
5095.00,0.79
5094.00,0.80
5093.00,0.80
5092.00,0.80
5091.00,0.80
5090.00,0.80
5089.00,0.81
5088.00,0.81
5087.00,0.81
5086.00,0.81
5085.00,0.82
5084.00,0.82
5083.00,0.82
5082.00,0.82
5081.00,0.83
5080.00,0.83
5079.00,0.83
5078.00,0.83
5077.00,0.83
5076.00,0.84
5075.00,0.84
5074.00,0.84
5073.00,0.84
5072.00,0.84
5071.00,0.85
5070.00,0.85
5069.00,0.85
5068.00,0.85
5067.00,0.85
5066.00,0.85
5065.00,0.86
5064.00,0.86
5063.00,0.86
5062.00,0.86
5061.00,0.86
5060.00,0.87
5059.00,0.87
5058.00,0.87
5057.00,0.87
5056.00,0.87
5055.00,0.87
5054.00,0.88
5053.00,0.88
5052.00,0.88
5051.00,0.88
5050.00,0.89
5049.00,0.89
5048.00,0.89
5047.00,0.89
5046.00,0.89
5045.00,0.90
5044.00,0.90
5043.00,0.90
5042.00,0.90
5041.00,0.90
5040.00,0.91
5039.00,0.91
5038.00,0.91
5037.00,0.91
5036.00,0.91
5035.00,0.92
5034.00,0.92
5033.00,0.92
5032.00,0.92
5031.00,0.92
5030.00,0.93
5029.00,0.93
5028.00,0.93
5027.00,0.93
5026.00,0.93
5025.00,0.93
5024.00,0.94
5023.00,0.94
5022.00,0.94
5021.00,0.94
5020.00,0.94
5019.00,0.94
5018.00,0.94
5017.00,0.95
5016.00,0.95
5015.00,0.95
5014.00,0.95
5013.00,0.95
5012.00,0.95
5011.00,0.96
5010.00,0.96
5009.00,0.96
5008.00,0.96
5007.00,0.96
5006.00,0.96
5005.00,0.96
5004.00,0.97
5003.00,0.97
5002.00,0.97
5001.00,0.97
5000.00,0.97
4999.00,0.97
4998.00,0.98
4997.00,0.98
4996.00,0.98
4995.00,0.98
4994.00,0.98
4993.00,0.98
4992.00,0.98
4991.00,0.98
4990.00,0.98
4989.00,0.99
4988.00,0.99
4987.00,0.99
4986.00,0.99
4985.00,0.99
4984.00,0.99
4983.00,0.99
4982.00,0.99
4981.00,0.99
4980.00,0.99
4979.00,0.99
4978.00,1.00
4977.00,1.00
4976.00,1.00
4975.00,1.00
4974.00,1.00
4973.00,1.00
4972.00,1.00
4971.00,1.01
4970.00,1.01
4969.00,1.01
4968.00,1.01
4967.00,1.02
4966.00,1.02
4965.00,1.02
4964.00,1.02
4963.00,1.02
4962.00,1.03
4961.00,1.03
4960.00,1.03
4959.00,1.03
4958.00,1.04
4957.00,1.04
4956.00,1.04
4955.00,1.04
4954.00,1.05
4953.00,1.05
4952.00,1.05
4951.00,1.05
4950.00,1.06
4949.00,1.06
4948.00,1.06
4947.00,1.06
4946.00,1.06
4945.00,1.07
4944.00,1.07
4943.00,1.07
4942.00,1.07
4941.00,1.07
4940.00,1.08
4939.00,1.08
4938.00,1.08
4937.00,1.08
4936.00,1.08
4935.00,1.09
4934.00,1.09
4933.00,1.09
4932.00,1.09
4931.00,1.09
4930.00,1.10
4929.00,1.10
4928.00,1.10
4927.00,1.10
4926.00,1.10
4925.00,1.10
4924.00,1.10
4923.00,1.10
4922.00,1.10
4921.00,1.10
4920.00,1.10
4919.00,1.10
4918.00,1.10
4917.00,1.10
4916.00,1.10
4915.00,1.10
4914.00,1.10
4913.00,1.10
4912.00,1.10
4911.00,1.10
4910.00,1.10
4909.00,1.10
4908.00,1.09
4907.00,1.09
4906.00,1.09
4905.00,1.09
4904.00,1.09
4903.00,1.09
4902.00,1.09
4901.00,1.09
4900.00,1.09
4899.00,1.09
4898.00,1.09
4897.00,1.09
4896.00,1.09
4895.00,1.09
4894.00,1.09
4893.00,1.09
4892.00,1.09
4891.00,1.09
4890.00,1.10
4889.00,1.10
4888.00,1.10
4887.00,1.10
4886.00,1.10
4885.00,1.10
4884.00,1.11
4883.00,1.11
4882.00,1.11
4881.00,1.11
4880.00,1.11
4879.00,1.11
4878.00,1.12
4877.00,1.12
4876.00,1.12
4875.00,1.12
4874.00,1.12
4873.00,1.13
4872.00,1.13
4871.00,1.13
4870.00,1.13
4869.00,1.13
4868.00,1.13
4867.00,1.13
4866.00,1.13
4865.00,1.13
4864.00,1.14
4863.00,1.14
4862.00,1.14
4861.00,1.14
4860.00,1.14
4859.00,1.14
4858.00,1.14
4857.00,1.14
4856.00,1.14
4855.00,1.14
4854.00,1.15
4853.00,1.15
4852.00,1.15
4851.00,1.15
4850.00,1.15
4849.00,1.15
4848.00,1.15
4847.00,1.15
4846.00,1.15
4845.00,1.15
4844.00,1.15
4843.00,1.16
4842.00,1.16
4841.00,1.16
4840.00,1.16
4839.00,1.16
4838.00,1.16
4837.00,1.17
4836.00,1.17
4835.00,1.17
4834.00,1.17
4833.00,1.17
4832.00,1.18
4831.00,1.18
4830.00,1.18
4829.00,1.18
4828.00,1.18
4827.00,1.19
4826.00,1.19
4825.00,1.19
4824.00,1.19
4823.00,1.20
4822.00,1.20
4821.00,1.20
4820.00,1.20
4819.00,1.21
4818.00,1.21
4817.00,1.21
4816.00,1.21
4815.00,1.21
4814.00,1.21
4813.00,1.22
4812.00,1.22
4811.00,1.22
4810.00,1.22
4809.00,1.22
4808.00,1.22
4807.00,1.23
4806.00,1.23
4805.00,1.23
4804.00,1.23
4803.00,1.23
4802.00,1.23
4801.00,1.23
4800.00,1.23
4799.00,1.23
4798.00,1.24
4797.00,1.24
4796.00,1.24
4795.00,1.24
4794.00,1.24
4793.00,1.25
4792.00,1.25
4791.00,1.25
4790.00,1.25
4789.00,1.25
4788.00,1.25
4787.00,1.25
4786.00,1.26
4785.00,1.26
4784.00,1.26
4783.00,1.26
4782.00,1.26
4781.00,1.26
4780.00,1.26
4779.00,1.27
4778.00,1.27
4777.00,1.27
4776.00,1.27
4775.00,1.27
4774.00,1.27
4773.00,1.27
4772.00,1.27
4771.00,1.27
4770.00,1.28
4769.00,1.28
4768.00,1.28
4767.00,1.28
4766.00,1.28
4765.00,1.28
4764.00,1.28
4763.00,1.28
4762.00,1.28
4761.00,1.29
4760.00,1.29
4759.00,1.29
4758.00,1.29
4757.00,1.29
4756.00,1.29
4755.00,1.29
4754.00,1.29
4753.00,1.29
4752.00,1.29
4751.00,1.29
4750.00,1.30
4749.00,1.30
4748.00,1.30
4747.00,1.30
4746.00,1.30
4745.00,1.30
4744.00,1.30
4743.00,1.30
4742.00,1.30
4741.00,1.30
4740.00,1.30
4739.00,1.30
4738.00,1.30
4737.00,1.30
4736.00,1.31
4735.00,1.31
4734.00,1.31
4733.00,1.31
4732.00,1.31
4731.00,1.31
4730.00,1.31
4729.00,1.31
4728.00,1.31
4727.00,1.31
4726.00,1.31
4725.00,1.31
4724.00,1.31
4723.00,1.31
4722.00,1.31
4721.00,1.31
4720.00,1.31
4719.00,1.31
4718.00,1.31
4717.00,1.31
4716.00,1.31
4715.00,1.31
4714.00,1.31
4713.00,1.31
4712.00,1.31
4711.00,1.31
4710.00,1.31
4709.00,1.31
4708.00,1.31
4707.00,1.31
4706.00,1.31
4705.00,1.31
4704.00,1.31
4703.00,1.31
4702.00,1.31
4701.00,1.31
4700.00,1.31
4699.00,1.31
4698.00,1.32
4697.00,1.32
4696.00,1.32
4695.00,1.32
4694.00,1.32
4693.00,1.32
4692.00,1.32
4691.00,1.33
4690.00,1.33
4689.00,1.33
4688.00,1.33
4687.00,1.34
4686.00,1.34
4685.00,1.34
4684.00,1.34
4683.00,1.35
4682.00,1.35
4681.00,1.35
4680.00,1.35
4679.00,1.36
4678.00,1.36
4677.00,1.36
4676.00,1.36
4675.00,1.36
4674.00,1.36
4673.00,1.36
4672.00,1.37
4671.00,1.37
4670.00,1.37
4669.00,1.37
4668.00,1.37
4667.00,1.37
4666.00,1.37
4665.00,1.37
4664.00,1.38
4663.00,1.38
4662.00,1.38
4661.00,1.38
4660.00,1.38
4659.00,1.38
4658.00,1.38
4657.00,1.38
4656.00,1.38
4655.00,1.38
4654.00,1.38
4653.00,1.38
4652.00,1.38
4651.00,1.38
4650.00,1.39
4649.00,1.39
4648.00,1.39
4647.00,1.39
4646.00,1.39
4645.00,1.39
4644.00,1.39
4643.00,1.40
4642.00,1.40
4641.00,1.40
4640.00,1.40
4639.00,1.40
4638.00,1.40
4637.00,1.41
4636.00,1.41
4635.00,1.41
4634.00,1.41
4633.00,1.41
4632.00,1.42
4631.00,1.42
4630.00,1.42
4629.00,1.42
4628.00,1.42
4627.00,1.43
4626.00,1.43
4625.00,1.43
4624.00,1.43
4623.00,1.43
4622.00,1.43
4621.00,1.44
4620.00,1.44
4619.00,1.44
4618.00,1.44
4617.00,1.44
4616.00,1.44
4615.00,1.44
4614.00,1.44
4613.00,1.44
4612.00,1.44
4611.00,1.44
4610.00,1.44
4609.00,1.44
4608.00,1.44
4607.00,1.44
4606.00,1.44
4605.00,1.44
4604.00,1.44
4603.00,1.44
4602.00,1.44
4601.00,1.44
4600.00,1.44
4599.00,1.44
4598.00,1.43
4597.00,1.43
4596.00,1.43
4595.00,1.43
4594.00,1.43
4593.00,1.43
4592.00,1.43
4591.00,1.43
4590.00,1.43
4589.00,1.43
4588.00,1.43
4587.00,1.43
4586.00,1.43
4585.00,1.44
4584.00,1.44
4583.00,1.44
4582.00,1.44
4581.00,1.44
4580.00,1.44
4579.00,1.44
4578.00,1.44
4577.00,1.45
4576.00,1.45
4575.00,1.45
4574.00,1.45
4573.00,1.45
4572.00,1.45
4571.00,1.45
4570.00,1.45
4569.00,1.45
4568.00,1.45
4567.00,1.45
4566.00,1.45
4565.00,1.45
4564.00,1.46
4563.00,1.46
4562.00,1.46
4561.00,1.46
4560.00,1.46
4559.00,1.46
4558.00,1.46
4557.00,1.46
4556.00,1.46
4555.00,1.46
4554.00,1.46
4553.00,1.45
4552.00,1.45
4551.00,1.45
4550.00,1.45
4549.00,1.45
4548.00,1.45
4547.00,1.45
4546.00,1.46
4545.00,1.46
4544.00,1.46
4543.00,1.46
4542.00,1.46
4541.00,1.46
4540.00,1.46
4539.00,1.46
4538.00,1.46
4537.00,1.46
4536.00,1.46
4535.00,1.46
4534.00,1.46
4533.00,1.46
4532.00,1.47
4531.00,1.47
4530.00,1.47
4529.00,1.47
4528.00,1.47
4527.00,1.47
4526.00,1.47
4525.00,1.47
4524.00,1.47
4523.00,1.47
4522.00,1.47
4521.00,1.47
4520.00,1.48
4519.00,1.48
4518.00,1.48
4517.00,1.48
4516.00,1.48
4515.00,1.48
4514.00,1.48
4513.00,1.48
4512.00,1.48
4511.00,1.48
4510.00,1.48
4509.00,1.48
4508.00,1.48
4507.00,1.47
4506.00,1.47
4505.00,1.47
4504.00,1.47
4503.00,1.47
4502.00,1.47
4501.00,1.47
4500.00,1.47
4499.00,1.47
4498.00,1.47
4497.00,1.47
4496.00,1.46
4495.00,1.46
4494.00,1.46
4493.00,1.46
4492.00,1.46
4491.00,1.46
4490.00,1.45
4489.00,1.45
4488.00,1.45
4487.00,1.45
4486.00,1.45
4485.00,1.45
4484.00,1.45
4483.00,1.45
4482.00,1.44
4481.00,1.44
4480.00,1.44
4479.00,1.44
4478.00,1.44
4477.00,1.44
4476.00,1.44
4475.00,1.44
4474.00,1.44
4473.00,1.44
4472.00,1.44
4471.00,1.44
4470.00,1.44
4469.00,1.44
4468.00,1.44
4467.00,1.44
4466.00,1.44
4465.00,1.43
4464.00,1.43
4463.00,1.43
4462.00,1.43
4461.00,1.43
4460.00,1.43
4459.00,1.43
4458.00,1.43
4457.00,1.42
4456.00,1.42
4455.00,1.42
4454.00,1.42
4453.00,1.41
4452.00,1.41
4451.00,1.41
4450.00,1.41
4449.00,1.40
4448.00,1.40
4447.00,1.40
4446.00,1.39
4445.00,1.39
4444.00,1.39
4443.00,1.38
4442.00,1.38
4441.00,1.37
4440.00,1.37
4439.00,1.37
4438.00,1.36
4437.00,1.36
4436.00,1.35
4435.00,1.35
4434.00,1.34
4433.00,1.34
4432.00,1.34
4431.00,1.33
4430.00,1.33
4429.00,1.32
4428.00,1.32
4427.00,1.32
4426.00,1.31
4425.00,1.31
4424.00,1.31
4423.00,1.30
4422.00,1.30
4421.00,1.30
4420.00,1.29
4419.00,1.29
4418.00,1.29
4417.00,1.28
4416.00,1.28
4415.00,1.28
4414.00,1.28
4413.00,1.27
4412.00,1.27
4411.00,1.27
4410.00,1.27
4409.00,1.27
4408.00,1.27
4407.00,1.27
4406.00,1.27
4405.00,1.27
4404.00,1.27
4403.00,1.27
4402.00,1.27
4401.00,1.28
4400.00,1.28
4399.00,1.28
4398.00,1.28
4397.00,1.28
4396.00,1.29
4395.00,1.29
4394.00,1.29
4393.00,1.29
4392.00,1.30
4391.00,1.30
4390.00,1.30
4389.00,1.31
4388.00,1.31
4387.00,1.31
4386.00,1.32
4385.00,1.32
4384.00,1.32
4383.00,1.32
4382.00,1.33
4381.00,1.33
4380.00,1.33
4379.00,1.33
4378.00,1.33
4377.00,1.33
4376.00,1.34
4375.00,1.34
4374.00,1.34
4373.00,1.34
4372.00,1.34
4371.00,1.34
4370.00,1.34
4369.00,1.34
4368.00,1.34
4367.00,1.34
4366.00,1.34
4365.00,1.34
4364.00,1.33
4363.00,1.33
4362.00,1.33
4361.00,1.33
4360.00,1.33
4359.00,1.32
4358.00,1.32
4357.00,1.32
4356.00,1.32
4355.00,1.32
4354.00,1.31
4353.00,1.31
4352.00,1.31
4351.00,1.31
4350.00,1.31
4349.00,1.31
4348.00,1.31
4347.00,1.31
4346.00,1.31
4345.00,1.31
4344.00,1.31
4343.00,1.31
4342.00,1.31
4341.00,1.31
4340.00,1.31
4339.00,1.31
4338.00,1.31
4337.00,1.31
4336.00,1.32
4335.00,1.32
4334.00,1.32
4333.00,1.33
4332.00,1.33
4331.00,1.34
4330.00,1.34
4329.00,1.35
4328.00,1.35
4327.00,1.36
4326.00,1.36
4325.00,1.37
4324.00,1.37
4323.00,1.38
4322.00,1.38
4321.00,1.39
4320.00,1.39
4319.00,1.40
4318.00,1.40
4317.00,1.41
4316.00,1.41
4315.00,1.41
4314.00,1.42
4313.00,1.42
4312.00,1.43
4311.00,1.43
4310.00,1.44
4309.00,1.44
4308.00,1.44
4307.00,1.45
4306.00,1.45
4305.00,1.45
4304.00,1.45
4303.00,1.46
4302.00,1.46
4301.00,1.46
4300.00,1.46
4299.00,1.46
4298.00,1.46
4297.00,1.47
4296.00,1.47
4295.00,1.47
4294.00,1.47
4293.00,1.47
4292.00,1.47
4291.00,1.47
4290.00,1.47
4289.00,1.47
4288.00,1.47
4287.00,1.47
4286.00,1.47
4285.00,1.47
4284.00,1.47
4283.00,1.47
4282.00,1.47
4281.00,1.47
4280.00,1.47
4279.00,1.47
4278.00,1.47
4277.00,1.46
4276.00,1.46
4275.00,1.46
4274.00,1.46
4273.00,1.46
4272.00,1.45
4271.00,1.45
4270.00,1.45
4269.00,1.45
4268.00,1.45
4267.00,1.44
4266.00,1.44
4265.00,1.44
4264.00,1.44
4263.00,1.44
4262.00,1.43
4261.00,1.43
4260.00,1.43
4259.00,1.43
4258.00,1.43
4257.00,1.43
4256.00,1.43
4255.00,1.43
4254.00,1.43
4253.00,1.43
4252.00,1.43
4251.00,1.43
4250.00,1.43
4249.00,1.43
4248.00,1.43
4247.00,1.43
4246.00,1.43
4245.00,1.43
4244.00,1.43
4243.00,1.43
4242.00,1.43
4241.00,1.43
4240.00,1.44
4239.00,1.44
4238.00,1.44
4237.00,1.44
4236.00,1.44
4235.00,1.44
4234.00,1.44
4233.00,1.44
4232.00,1.44
4231.00,1.44
4230.00,1.44
4229.00,1.44
4228.00,1.44
4227.00,1.44
4226.00,1.44
4225.00,1.44
4224.00,1.44
4223.00,1.44
4222.00,1.44
4221.00,1.44
4220.00,1.44
4219.00,1.44
4218.00,1.44
4217.00,1.44
4216.00,1.44
4215.00,1.44
4214.00,1.44
4213.00,1.44
4212.00,1.44
4211.00,1.44
4210.00,1.44
4209.00,1.45
4208.00,1.45
4207.00,1.45
4206.00,1.45
4205.00,1.45
4204.00,1.45
4203.00,1.45
4202.00,1.45
4201.00,1.45
4200.00,1.45
4199.00,1.45
4198.00,1.45
4197.00,1.45
4196.00,1.45
4195.00,1.45
4194.00,1.45
4193.00,1.45
4192.00,1.45
4191.00,1.45
4190.00,1.45
4189.00,1.45
4188.00,1.45
4187.00,1.45
4186.00,1.45
4185.00,1.45
4184.00,1.45
4183.00,1.44
4182.00,1.44
4181.00,1.44
4180.00,1.44
4179.00,1.44
4178.00,1.44
4177.00,1.44
4176.00,1.44
4175.00,1.44
4174.00,1.44
4173.00,1.44
4172.00,1.43
4171.00,1.43
4170.00,1.43
4169.00,1.43
4168.00,1.43
4167.00,1.43
4166.00,1.43
4165.00,1.43
4164.00,1.43
4163.00,1.43
4162.00,1.43
4161.00,1.43
4160.00,1.43
4159.00,1.43
4158.00,1.43
4157.00,1.43
4156.00,1.43
4155.00,1.43
4154.00,1.43
4153.00,1.43
4152.00,1.43
4151.00,1.43
4150.00,1.43
4149.00,1.43
4148.00,1.43
4147.00,1.43
4146.00,1.43
4145.00,1.43
4144.00,1.43
4143.00,1.43
4142.00,1.43
4141.00,1.43
4140.00,1.43
4139.00,1.43
4138.00,1.43
4137.00,1.43
4136.00,1.43
4135.00,1.43
4134.00,1.43
4133.00,1.43
4132.00,1.43
4131.00,1.43
4130.00,1.43
4129.00,1.43
4128.00,1.42
4127.00,1.42
4126.00,1.42
4125.00,1.42
4124.00,1.42
4123.00,1.42
4122.00,1.42
4121.00,1.42
4120.00,1.42
4119.00,1.42
4118.00,1.42
4117.00,1.42
4116.00,1.42
4115.00,1.42
4114.00,1.42
4113.00,1.42
4112.00,1.42
4111.00,1.42
4110.00,1.42
4109.00,1.42
4108.00,1.42
4107.00,1.42
4106.00,1.42
4105.00,1.42
4104.00,1.42
4103.00,1.42
4102.00,1.42
4101.00,1.42
4100.00,1.42
4099.00,1.41
4098.00,1.41
4097.00,1.41
4096.00,1.41
4095.00,1.41
4094.00,1.41
4093.00,1.41
4092.00,1.40
4091.00,1.40
4090.00,1.40
4089.00,1.40
4088.00,1.40
4087.00,1.40
4086.00,1.39
4085.00,1.39
4084.00,1.39
4083.00,1.39
4082.00,1.38
4081.00,1.38
4080.00,1.38
4079.00,1.37
4078.00,1.37
4077.00,1.36
4076.00,1.36
4075.00,1.36
4074.00,1.35
4073.00,1.35
4072.00,1.35
4071.00,1.35
4070.00,1.34
4069.00,1.34
4068.00,1.34
4067.00,1.34
4066.00,1.33
4065.00,1.33
4064.00,1.32
4063.00,1.32
4062.00,1.32
4061.00,1.31
4060.00,1.31
4059.00,1.31
4058.00,1.30
4057.00,1.30
4056.00,1.30
4055.00,1.30
4054.00,1.30
4053.00,1.29
4052.00,1.29
4051.00,1.29
4050.00,1.29
4049.00,1.30
4048.00,1.30
4047.00,1.30
4046.00,1.30
4045.00,1.30
4044.00,1.30
4043.00,1.30
4042.00,1.30
4041.00,1.31
4040.00,1.31
4039.00,1.32
4038.00,1.32
4037.00,1.33
4036.00,1.33
4035.00,1.34
4034.00,1.34
4033.00,1.35
4032.00,1.35
4031.00,1.36
4030.00,1.36
4029.00,1.37
4028.00,1.37
4027.00,1.38
4026.00,1.38
4025.00,1.39
4024.00,1.39
4023.00,1.40
4022.00,1.40
4021.00,1.41
4020.00,1.41
4019.00,1.42
4018.00,1.42
4017.00,1.43
4016.00,1.44
4015.00,1.44
4014.00,1.45
4013.00,1.46
4012.00,1.46
4011.00,1.47
4010.00,1.47
4009.00,1.48
4008.00,1.48
4007.00,1.49
4006.00,1.50
4005.00,1.50
4004.00,1.51
4003.00,1.52
4002.00,1.53
4001.00,1.54
4000.00,1.54
