创建为新数据集,样品 823 用户 Administrator 日期 星期一, 七月 29 2019
cm-1,%T
10000.00,1.39
9999.00,1.38
9998.00,1.37
9997.00,1.37
9996.00,1.36
9995.00,1.35
9994.00,1.35
9993.00,1.34
9992.00,1.33
9991.00,1.33
9990.00,1.32
9989.00,1.31
9988.00,1.30
9987.00,1.29
9986.00,1.28
9985.00,1.27
9984.00,1.26
9983.00,1.25
9982.00,1.23
9981.00,1.22
9980.00,1.21
9979.00,1.20
9978.00,1.19
9977.00,1.19
9976.00,1.18
9975.00,1.18
9974.00,1.17
9973.00,1.17
9972.00,1.17
9971.00,1.17
9970.00,1.17
9969.00,1.17
9968.00,1.17
9967.00,1.17
9966.00,1.17
9965.00,1.18
9964.00,1.18
9963.00,1.18
9962.00,1.19
9961.00,1.19
9960.00,1.20
9959.00,1.20
9958.00,1.21
9957.00,1.22
9956.00,1.22
9955.00,1.23
9954.00,1.24
9953.00,1.24
9952.00,1.25
9951.00,1.25
9950.00,1.25
9949.00,1.25
9948.00,1.25
9947.00,1.25
9946.00,1.25
9945.00,1.25
9944.00,1.25
9943.00,1.24
9942.00,1.24
9941.00,1.24
9940.00,1.24
9939.00,1.24
9938.00,1.23
9937.00,1.23
9936.00,1.23
9935.00,1.23
9934.00,1.23
9933.00,1.23
9932.00,1.22
9931.00,1.22
9930.00,1.22
9929.00,1.22
9928.00,1.21
9927.00,1.21
9926.00,1.21
9925.00,1.21
9924.00,1.21
9923.00,1.21
9922.00,1.21
9921.00,1.21
9920.00,1.21
9919.00,1.21
9918.00,1.21
9917.00,1.21
9916.00,1.21
9915.00,1.21
9914.00,1.21
9913.00,1.21
9912.00,1.21
9911.00,1.21
9910.00,1.21
9909.00,1.21
9908.00,1.21
9907.00,1.21
9906.00,1.21
9905.00,1.21
9904.00,1.20
9903.00,1.20
9902.00,1.20
9901.00,1.20
9900.00,1.20
9899.00,1.19
9898.00,1.19
9897.00,1.19
9896.00,1.18
9895.00,1.18
9894.00,1.18
9893.00,1.17
9892.00,1.17
9891.00,1.17
9890.00,1.16
9889.00,1.16
9888.00,1.16
9887.00,1.16
9886.00,1.15
9885.00,1.15
9884.00,1.15
9883.00,1.14
9882.00,1.14
9881.00,1.13
9880.00,1.13
9879.00,1.12
9878.00,1.12
9877.00,1.11
9876.00,1.11
9875.00,1.10
9874.00,1.10
9873.00,1.10
9872.00,1.10
9871.00,1.10
9870.00,1.10
9869.00,1.11
9868.00,1.11
9867.00,1.11
9866.00,1.12
9865.00,1.12
9864.00,1.12
9863.00,1.13
9862.00,1.13
9861.00,1.14
9860.00,1.14
9859.00,1.15
9858.00,1.16
9857.00,1.17
9856.00,1.18
9855.00,1.19
9854.00,1.21
9853.00,1.22
9852.00,1.23
9851.00,1.25
9850.00,1.26
9849.00,1.27
9848.00,1.28
9847.00,1.29
9846.00,1.30
9845.00,1.31
9844.00,1.32
9843.00,1.32
9842.00,1.33
9841.00,1.33
9840.00,1.34
9839.00,1.34
9838.00,1.35
9837.00,1.35
9836.00,1.35
9835.00,1.36
9834.00,1.36
9833.00,1.36
9832.00,1.36
9831.00,1.36
9830.00,1.35
9829.00,1.35
9828.00,1.34
9827.00,1.34
9826.00,1.33
9825.00,1.32
9824.00,1.31
9823.00,1.31
9822.00,1.30
9821.00,1.29
9820.00,1.28
9819.00,1.28
9818.00,1.27
9817.00,1.26
9816.00,1.25
9815.00,1.25
9814.00,1.24
9813.00,1.23
9812.00,1.23
9811.00,1.22
9810.00,1.21
9809.00,1.20
9808.00,1.20
9807.00,1.19
9806.00,1.18
9805.00,1.18
9804.00,1.17
9803.00,1.17
9802.00,1.16
9801.00,1.16
9800.00,1.16
9799.00,1.15
9798.00,1.15
9797.00,1.15
9796.00,1.14
9795.00,1.14
9794.00,1.14
9793.00,1.14
9792.00,1.14
9791.00,1.14
9790.00,1.14
9789.00,1.14
9788.00,1.14
9787.00,1.13
9786.00,1.13
9785.00,1.13
9784.00,1.13
9783.00,1.13
9782.00,1.12
9781.00,1.12
9780.00,1.11
9779.00,1.11
9778.00,1.10
9777.00,1.10
9776.00,1.09
9775.00,1.08
9774.00,1.08
9773.00,1.07
9772.00,1.06
9771.00,1.05
9770.00,1.05
9769.00,1.04
9768.00,1.03
9767.00,1.02
9766.00,1.02
9765.00,1.01
9764.00,1.00
9763.00,0.99
9762.00,0.98
9761.00,0.97
9760.00,0.97
9759.00,0.96
9758.00,0.95
9757.00,0.95
9756.00,0.94
9755.00,0.93
9754.00,0.93
9753.00,0.92
9752.00,0.92
9751.00,0.92
9750.00,0.91
9749.00,0.91
9748.00,0.91
9747.00,0.91
9746.00,0.90
9745.00,0.90
9744.00,0.90
9743.00,0.90
9742.00,0.90
9741.00,0.90
9740.00,0.90
9739.00,0.90
9738.00,0.89
9737.00,0.89
9736.00,0.89
9735.00,0.89
9734.00,0.89
9733.00,0.90
9732.00,0.90
9731.00,0.90
9730.00,0.90
9729.00,0.90
9728.00,0.90
9727.00,0.91
9726.00,0.91
9725.00,0.91
9724.00,0.91
9723.00,0.92
9722.00,0.92
9721.00,0.92
9720.00,0.93
9719.00,0.93
9718.00,0.94
9717.00,0.94
9716.00,0.94
9715.00,0.95
9714.00,0.95
9713.00,0.96
9712.00,0.97
9711.00,0.97
9710.00,0.98
9709.00,0.99
9708.00,0.99
9707.00,1.00
9706.00,1.01
9705.00,1.02
9704.00,1.02
9703.00,1.03
9702.00,1.03
9701.00,1.04
9700.00,1.04
9699.00,1.05
9698.00,1.05
9697.00,1.06
9696.00,1.06
9695.00,1.07
9694.00,1.07
9693.00,1.08
9692.00,1.08
9691.00,1.09
9690.00,1.09
9689.00,1.10
9688.00,1.10
9687.00,1.11
9686.00,1.11
9685.00,1.11
9684.00,1.11
9683.00,1.12
9682.00,1.12
9681.00,1.12
9680.00,1.13
9679.00,1.13
9678.00,1.13
9677.00,1.14
9676.00,1.15
9675.00,1.15
9674.00,1.16
9673.00,1.17
9672.00,1.17
9671.00,1.18
9670.00,1.19
9669.00,1.20
9668.00,1.20
9667.00,1.21
9666.00,1.22
9665.00,1.22
9664.00,1.23
9663.00,1.23
9662.00,1.24
9661.00,1.25
9660.00,1.25
9659.00,1.26
9658.00,1.26
9657.00,1.27
9656.00,1.27
9655.00,1.28
9654.00,1.28
9653.00,1.28
9652.00,1.29
9651.00,1.29
9650.00,1.29
9649.00,1.28
9648.00,1.28
9647.00,1.28
9646.00,1.27
9645.00,1.27
9644.00,1.26
9643.00,1.25
9642.00,1.24
9641.00,1.24
9640.00,1.23
9639.00,1.22
9638.00,1.21
9637.00,1.20
9636.00,1.20
9635.00,1.19
9634.00,1.18
9633.00,1.17
9632.00,1.16
9631.00,1.15
9630.00,1.14
9629.00,1.13
9628.00,1.12
9627.00,1.11
9626.00,1.10
9625.00,1.10
9624.00,1.09
9623.00,1.08
9622.00,1.07
9621.00,1.07
9620.00,1.06
9619.00,1.06
9618.00,1.06
9617.00,1.05
9616.00,1.05
9615.00,1.05
9614.00,1.05
9613.00,1.04
9612.00,1.04
9611.00,1.03
9610.00,1.03
9609.00,1.02
9608.00,1.02
9607.00,1.01
9606.00,1.01
9605.00,1.01
9604.00,1.00
9603.00,1.00
9602.00,1.00
9601.00,0.99
9600.00,0.99
9599.00,0.99
9598.00,0.98
9597.00,0.98
9596.00,0.98
9595.00,0.98
9594.00,0.97
9593.00,0.97
9592.00,0.97
9591.00,0.97
9590.00,0.97
9589.00,0.96
9588.00,0.96
9587.00,0.97
9586.00,0.97
9585.00,0.97
9584.00,0.98
9583.00,0.98
9582.00,0.99
9581.00,0.99
9580.00,1.00
9579.00,1.01
9578.00,1.02
9577.00,1.02
9576.00,1.03
9575.00,1.04
9574.00,1.05
9573.00,1.06
9572.00,1.06
9571.00,1.07
9570.00,1.08
9569.00,1.09
9568.00,1.10
9567.00,1.10
9566.00,1.11
9565.00,1.12
9564.00,1.12
9563.00,1.13
9562.00,1.13
9561.00,1.13
9560.00,1.14
9559.00,1.14
9558.00,1.14
9557.00,1.14
9556.00,1.13
9555.00,1.13
9554.00,1.13
9553.00,1.12
9552.00,1.12
9551.00,1.12
9550.00,1.11
9549.00,1.11
9548.00,1.10
9547.00,1.09
9546.00,1.09
9545.00,1.08
9544.00,1.07
9543.00,1.06
9542.00,1.05
9541.00,1.05
9540.00,1.04
9539.00,1.03
9538.00,1.03
9537.00,1.02
9536.00,1.02
9535.00,1.01
9534.00,1.01
9533.00,1.01
9532.00,1.01
9531.00,1.00
9530.00,1.00
9529.00,1.00
9528.00,1.00
9527.00,1.00
9526.00,1.01
9525.00,1.01
9524.00,1.01
9523.00,1.01
9522.00,1.02
9521.00,1.02
9520.00,1.02
9519.00,1.03
9518.00,1.03
9517.00,1.04
9516.00,1.04
9515.00,1.05
9514.00,1.05
9513.00,1.05
9512.00,1.06
9511.00,1.06
9510.00,1.06
9509.00,1.07
9508.00,1.07
9507.00,1.07
9506.00,1.07
9505.00,1.07
9504.00,1.07
9503.00,1.07
9502.00,1.07
9501.00,1.07
9500.00,1.07
9499.00,1.06
9498.00,1.06
9497.00,1.06
9496.00,1.06
9495.00,1.05
9494.00,1.05
9493.00,1.05
9492.00,1.05
9491.00,1.04
9490.00,1.04
9489.00,1.04
9488.00,1.04
9487.00,1.04
9486.00,1.03
9485.00,1.03
9484.00,1.03
9483.00,1.03
9482.00,1.03
9481.00,1.03
9480.00,1.03
9479.00,1.03
9478.00,1.03
9477.00,1.03
9476.00,1.03
9475.00,1.04
9474.00,1.04
9473.00,1.04
9472.00,1.05
9471.00,1.05
9470.00,1.06
9469.00,1.06
9468.00,1.07
9467.00,1.07
9466.00,1.08
9465.00,1.08
9464.00,1.09
9463.00,1.10
9462.00,1.10
9461.00,1.11
9460.00,1.11
9459.00,1.12
9458.00,1.13
9457.00,1.13
9456.00,1.14
9455.00,1.14
9454.00,1.15
9453.00,1.15
9452.00,1.15
9451.00,1.15
9450.00,1.16
9449.00,1.16
9448.00,1.16
9447.00,1.16
9446.00,1.17
9445.00,1.17
9444.00,1.17
9443.00,1.17
9442.00,1.17
9441.00,1.17
9440.00,1.18
9439.00,1.18
9438.00,1.18
9437.00,1.18
9436.00,1.18
9435.00,1.18
9434.00,1.17
9433.00,1.17
9432.00,1.17
9431.00,1.17
9430.00,1.17
9429.00,1.17
9428.00,1.18
9427.00,1.18
9426.00,1.18
9425.00,1.18
9424.00,1.18
9423.00,1.18
9422.00,1.18
9421.00,1.18
9420.00,1.18
9419.00,1.18
9418.00,1.18
9417.00,1.17
9416.00,1.17
9415.00,1.16
9414.00,1.16
9413.00,1.15
9412.00,1.15
9411.00,1.14
9410.00,1.14
9409.00,1.14
9408.00,1.13
9407.00,1.13
9406.00,1.13
9405.00,1.12
9404.00,1.12
9403.00,1.12
9402.00,1.11
9401.00,1.11
9400.00,1.11
9399.00,1.10
9398.00,1.10
9397.00,1.09
9396.00,1.09
9395.00,1.09
9394.00,1.09
9393.00,1.09
9392.00,1.09
9391.00,1.09
9390.00,1.10
9389.00,1.10
9388.00,1.10
9387.00,1.10
9386.00,1.11
9385.00,1.11
9384.00,1.11
9383.00,1.11
9382.00,1.11
9381.00,1.11
9380.00,1.11
9379.00,1.11
9378.00,1.10
9377.00,1.10
9376.00,1.09
9375.00,1.09
9374.00,1.09
9373.00,1.08
9372.00,1.08
9371.00,1.07
9370.00,1.07
9369.00,1.06
9368.00,1.05
9367.00,1.05
9366.00,1.04
9365.00,1.03
9364.00,1.02
9363.00,1.01
9362.00,1.01
9361.00,1.00
9360.00,0.99
9359.00,0.98
9358.00,0.98
9357.00,0.98
9356.00,0.97
9355.00,0.97
9354.00,0.97
9353.00,0.97
9352.00,0.97
9351.00,0.97
9350.00,0.98
9349.00,0.98
9348.00,0.98
9347.00,0.99
9346.00,0.99
9345.00,0.99
9344.00,1.00
9343.00,1.00
9342.00,1.01
9341.00,1.02
9340.00,1.02
9339.00,1.03
9338.00,1.03
9337.00,1.04
9336.00,1.04
9335.00,1.05
9334.00,1.05
9333.00,1.06
9332.00,1.06
9331.00,1.07
9330.00,1.07
9329.00,1.07
9328.00,1.07
9327.00,1.07
9326.00,1.07
9325.00,1.07
9324.00,1.07
9323.00,1.07
9322.00,1.07
9321.00,1.06
9320.00,1.06
9319.00,1.06
9318.00,1.05
9317.00,1.05
9316.00,1.05
9315.00,1.04
9314.00,1.04
9313.00,1.04
9312.00,1.03
9311.00,1.03
9310.00,1.03
9309.00,1.02
9308.00,1.02
9307.00,1.02
9306.00,1.02
9305.00,1.01
9304.00,1.01
9303.00,1.01
9302.00,1.01
9301.00,1.01
9300.00,1.00
9299.00,1.00
9298.00,1.00
9297.00,1.00
9296.00,1.00
9295.00,1.00
9294.00,1.00
9293.00,1.00
9292.00,1.00
9291.00,1.00
9290.00,1.00
9289.00,1.00
9288.00,1.00
9287.00,1.00
9286.00,0.99
9285.00,0.99
9284.00,0.99
9283.00,0.99
9282.00,0.99
9281.00,0.99
9280.00,1.00
9279.00,1.00
9278.00,1.00
9277.00,1.00
9276.00,1.00
9275.00,1.00
9274.00,1.01
9273.00,1.01
9272.00,1.01
9271.00,1.01
9270.00,1.01
9269.00,1.02
9268.00,1.02
9267.00,1.03
9266.00,1.03
9265.00,1.04
9264.00,1.04
9263.00,1.05
9262.00,1.06
9261.00,1.07
9260.00,1.08
9259.00,1.08
9258.00,1.09
9257.00,1.10
9256.00,1.11
9255.00,1.13
9254.00,1.14
9253.00,1.15
9252.00,1.16
9251.00,1.17
9250.00,1.18
9249.00,1.19
9248.00,1.20
9247.00,1.21
9246.00,1.22
9245.00,1.23
9244.00,1.24
9243.00,1.25
9242.00,1.26
9241.00,1.27
9240.00,1.28
9239.00,1.28
9238.00,1.29
9237.00,1.29
9236.00,1.30
9235.00,1.30
9234.00,1.30
9233.00,1.30
9232.00,1.30
9231.00,1.30
9230.00,1.29
9229.00,1.29
9228.00,1.29
9227.00,1.28
9226.00,1.28
9225.00,1.27
9224.00,1.27
9223.00,1.26
9222.00,1.26
9221.00,1.25
9220.00,1.25
9219.00,1.24
9218.00,1.24
9217.00,1.23
9216.00,1.23
9215.00,1.23
9214.00,1.22
9213.00,1.22
9212.00,1.22
9211.00,1.22
9210.00,1.22
9209.00,1.22
9208.00,1.22
9207.00,1.22
9206.00,1.22
9205.00,1.22
9204.00,1.23
9203.00,1.23
9202.00,1.23
9201.00,1.23
9200.00,1.24
9199.00,1.24
9198.00,1.24
9197.00,1.24
9196.00,1.25
9195.00,1.25
9194.00,1.25
9193.00,1.25
9192.00,1.25
9191.00,1.24
9190.00,1.24
9189.00,1.24
9188.00,1.23
9187.00,1.23
9186.00,1.23
9185.00,1.22
9184.00,1.22
9183.00,1.21
9182.00,1.21
9181.00,1.21
9180.00,1.20
9179.00,1.20
9178.00,1.19
9177.00,1.19
9176.00,1.18
9175.00,1.17
9174.00,1.17
9173.00,1.16
9172.00,1.16
9171.00,1.15
9170.00,1.15
9169.00,1.15
9168.00,1.14
9167.00,1.14
9166.00,1.14
9165.00,1.14
9164.00,1.15
9163.00,1.15
9162.00,1.15
9161.00,1.16
9160.00,1.16
9159.00,1.16
9158.00,1.17
9157.00,1.17
9156.00,1.18
9155.00,1.18
9154.00,1.18
9153.00,1.19
9152.00,1.19
9151.00,1.19
9150.00,1.19
9149.00,1.19
9148.00,1.20
9147.00,1.20
9146.00,1.20
9145.00,1.20
9144.00,1.20
9143.00,1.20
9142.00,1.19
9141.00,1.19
9140.00,1.19
9139.00,1.18
9138.00,1.17
9137.00,1.17
9136.00,1.16
9135.00,1.15
9134.00,1.14
9133.00,1.13
9132.00,1.13
9131.00,1.12
9130.00,1.11
9129.00,1.10
9128.00,1.09
9127.00,1.09
9126.00,1.08
9125.00,1.07
9124.00,1.06
9123.00,1.06
9122.00,1.05
9121.00,1.05
9120.00,1.04
9119.00,1.04
9118.00,1.04
9117.00,1.04
9116.00,1.04
9115.00,1.04
9114.00,1.04
9113.00,1.04
9112.00,1.04
9111.00,1.04
9110.00,1.04
9109.00,1.04
9108.00,1.04
9107.00,1.04
9106.00,1.04
9105.00,1.05
9104.00,1.05
9103.00,1.05
9102.00,1.05
9101.00,1.05
9100.00,1.05
9099.00,1.04
9098.00,1.04
9097.00,1.04
9096.00,1.04
9095.00,1.04
9094.00,1.04
9093.00,1.04
9092.00,1.03
9091.00,1.03
9090.00,1.03
9089.00,1.02
9088.00,1.02
9087.00,1.01
9086.00,1.01
9085.00,1.01
9084.00,1.00
9083.00,1.00
9082.00,1.00
9081.00,1.00
9080.00,1.00
9079.00,1.00
9078.00,1.00
9077.00,1.01
9076.00,1.01
9075.00,1.01
9074.00,1.01
9073.00,1.02
9072.00,1.02
9071.00,1.02
9070.00,1.03
9069.00,1.03
9068.00,1.03
9067.00,1.04
9066.00,1.04
9065.00,1.04
9064.00,1.05
9063.00,1.06
9062.00,1.06
9061.00,1.07
9060.00,1.08
9059.00,1.08
9058.00,1.09
9057.00,1.09
9056.00,1.09
9055.00,1.10
9054.00,1.10
9053.00,1.10
9052.00,1.10
9051.00,1.09
9050.00,1.09
9049.00,1.09
9048.00,1.09
9047.00,1.09
9046.00,1.08
9045.00,1.08
9044.00,1.08
9043.00,1.08
9042.00,1.08
9041.00,1.07
9040.00,1.07
9039.00,1.07
9038.00,1.07
9037.00,1.06
9036.00,1.06
9035.00,1.06
9034.00,1.05
9033.00,1.05
9032.00,1.05
9031.00,1.04
9030.00,1.04
9029.00,1.04
9028.00,1.04
9027.00,1.04
9026.00,1.05
9025.00,1.05
9024.00,1.05
9023.00,1.06
9022.00,1.06
9021.00,1.06
9020.00,1.07
9019.00,1.07
9018.00,1.07
9017.00,1.08
9016.00,1.08
9015.00,1.09
9014.00,1.09
9013.00,1.10
9012.00,1.10
9011.00,1.11
9010.00,1.11
9009.00,1.12
9008.00,1.12
9007.00,1.13
9006.00,1.13
9005.00,1.13
9004.00,1.14
9003.00,1.14
9002.00,1.14
9001.00,1.15
9000.00,1.15
8999.00,1.15
8998.00,1.15
8997.00,1.15
8996.00,1.15
8995.00,1.16
8994.00,1.16
8993.00,1.16
8992.00,1.16
8991.00,1.16
8990.00,1.16
8989.00,1.17
8988.00,1.17
8987.00,1.17
8986.00,1.17
8985.00,1.17
8984.00,1.17
8983.00,1.17
8982.00,1.17
8981.00,1.17
8980.00,1.17
8979.00,1.17
8978.00,1.17
8977.00,1.17
8976.00,1.18
8975.00,1.18
8974.00,1.18
8973.00,1.18
8972.00,1.18
8971.00,1.18
8970.00,1.18
8969.00,1.18
8968.00,1.18
8967.00,1.17
8966.00,1.17
8965.00,1.17
8964.00,1.16
8963.00,1.16
8962.00,1.15
8961.00,1.15
8960.00,1.15
8959.00,1.14
8958.00,1.14
8957.00,1.14
8956.00,1.13
8955.00,1.13
8954.00,1.13
8953.00,1.12
8952.00,1.12
8951.00,1.12
8950.00,1.11
8949.00,1.11
8948.00,1.11
8947.00,1.11
8946.00,1.11
8945.00,1.11
8944.00,1.11
8943.00,1.11
8942.00,1.11
8941.00,1.11
8940.00,1.11
8939.00,1.12
8938.00,1.12
8937.00,1.12
8936.00,1.13
8935.00,1.13
8934.00,1.14
8933.00,1.14
8932.00,1.14
8931.00,1.15
8930.00,1.15
8929.00,1.16
8928.00,1.16
8927.00,1.16
8926.00,1.17
8925.00,1.17
8924.00,1.17
8923.00,1.17
8922.00,1.17
8921.00,1.17
8920.00,1.17
8919.00,1.17
8918.00,1.17
8917.00,1.16
8916.00,1.16
8915.00,1.16
8914.00,1.16
8913.00,1.16
8912.00,1.15
8911.00,1.15
8910.00,1.15
8909.00,1.15
8908.00,1.15
8907.00,1.15
8906.00,1.14
8905.00,1.14
8904.00,1.14
8903.00,1.14
8902.00,1.14
8901.00,1.14
8900.00,1.14
8899.00,1.14
8898.00,1.14
8897.00,1.14
8896.00,1.14
8895.00,1.14
8894.00,1.14
8893.00,1.14
8892.00,1.15
8891.00,1.15
8890.00,1.15
8889.00,1.15
8888.00,1.15
8887.00,1.16
8886.00,1.16
8885.00,1.16
8884.00,1.16
8883.00,1.16
8882.00,1.16
8881.00,1.16
8880.00,1.16
8879.00,1.16
8878.00,1.15
8877.00,1.15
8876.00,1.15
8875.00,1.15
8874.00,1.15
8873.00,1.14
8872.00,1.14
8871.00,1.15
8870.00,1.15
8869.00,1.15
8868.00,1.15
8867.00,1.15
8866.00,1.16
8865.00,1.16
8864.00,1.16
8863.00,1.17
8862.00,1.17
8861.00,1.17
8860.00,1.17
8859.00,1.18
8858.00,1.18
8857.00,1.18
8856.00,1.18
8855.00,1.18
8854.00,1.18
8853.00,1.19
8852.00,1.19
8851.00,1.19
8850.00,1.19
8849.00,1.19
8848.00,1.19
8847.00,1.19
8846.00,1.19
8845.00,1.18
8844.00,1.18
8843.00,1.18
8842.00,1.17
8841.00,1.17
8840.00,1.16
8839.00,1.16
8838.00,1.15
8837.00,1.15
8836.00,1.14
8835.00,1.14
8834.00,1.13
8833.00,1.12
8832.00,1.12
8831.00,1.11
8830.00,1.11
8829.00,1.11
8828.00,1.11
8827.00,1.10
8826.00,1.10
8825.00,1.10
8824.00,1.10
8823.00,1.11
8822.00,1.11
8821.00,1.11
8820.00,1.11
8819.00,1.12
8818.00,1.12
8817.00,1.12
8816.00,1.12
8815.00,1.12
8814.00,1.13
8813.00,1.13
8812.00,1.13
8811.00,1.13
8810.00,1.14
8809.00,1.14
8808.00,1.14
8807.00,1.14
8806.00,1.15
8805.00,1.15
8804.00,1.15
8803.00,1.16
8802.00,1.16
8801.00,1.16
8800.00,1.16
8799.00,1.16
8798.00,1.15
8797.00,1.15
8796.00,1.15
8795.00,1.15
8794.00,1.14
8793.00,1.14
8792.00,1.14
8791.00,1.14
8790.00,1.14
8789.00,1.14
8788.00,1.14
8787.00,1.14
8786.00,1.14
8785.00,1.14
8784.00,1.14
8783.00,1.15
8782.00,1.15
8781.00,1.15
8780.00,1.16
8779.00,1.16
8778.00,1.16
8777.00,1.17
8776.00,1.17
8775.00,1.17
8774.00,1.18
8773.00,1.18
8772.00,1.19
8771.00,1.19
8770.00,1.20
8769.00,1.20
8768.00,1.21
8767.00,1.21
8766.00,1.21
8765.00,1.22
8764.00,1.22
8763.00,1.22
8762.00,1.22
8761.00,1.22
8760.00,1.22
8759.00,1.22
8758.00,1.22
8757.00,1.22
8756.00,1.22
8755.00,1.22
8754.00,1.21
8753.00,1.21
8752.00,1.21
8751.00,1.20
8750.00,1.20
8749.00,1.20
8748.00,1.20
8747.00,1.19
8746.00,1.19
8745.00,1.18
8744.00,1.18
8743.00,1.18
8742.00,1.18
8741.00,1.17
8740.00,1.17
8739.00,1.17
8738.00,1.17
8737.00,1.17
8736.00,1.17
8735.00,1.17
8734.00,1.18
8733.00,1.18
8732.00,1.18
8731.00,1.18
8730.00,1.18
8729.00,1.18
8728.00,1.18
8727.00,1.17
8726.00,1.17
8725.00,1.17
8724.00,1.17
8723.00,1.17
8722.00,1.17
8721.00,1.16
8720.00,1.16
8719.00,1.16
8718.00,1.16
8717.00,1.16
8716.00,1.16
8715.00,1.15
8714.00,1.15
8713.00,1.15
8712.00,1.14
8711.00,1.14
8710.00,1.13
8709.00,1.13
8708.00,1.12
8707.00,1.12
8706.00,1.11
8705.00,1.11
8704.00,1.11
8703.00,1.10
8702.00,1.10
8701.00,1.10
8700.00,1.10
8699.00,1.10
8698.00,1.10
8697.00,1.10
8696.00,1.10
8695.00,1.09
8694.00,1.09
8693.00,1.09
8692.00,1.09
8691.00,1.09
8690.00,1.09
8689.00,1.09
8688.00,1.09
8687.00,1.10
8686.00,1.10
8685.00,1.10
8684.00,1.10
8683.00,1.11
8682.00,1.11
8681.00,1.11
8680.00,1.12
8679.00,1.12
8678.00,1.12
8677.00,1.13
8676.00,1.13
8675.00,1.13
8674.00,1.14
8673.00,1.14
8672.00,1.14
8671.00,1.14
8670.00,1.15
8669.00,1.15
8668.00,1.15
8667.00,1.15
8666.00,1.16
8665.00,1.16
8664.00,1.16
8663.00,1.16
8662.00,1.16
8661.00,1.16
8660.00,1.16
8659.00,1.16
8658.00,1.16
8657.00,1.16
8656.00,1.16
8655.00,1.16
8654.00,1.16
8653.00,1.16
8652.00,1.16
8651.00,1.16
8650.00,1.16
8649.00,1.16
8648.00,1.16
8647.00,1.16
8646.00,1.16
8645.00,1.16
8644.00,1.16
8643.00,1.16
8642.00,1.17
8641.00,1.17
8640.00,1.17
8639.00,1.17
8638.00,1.17
8637.00,1.17
8636.00,1.17
8635.00,1.17
8634.00,1.17
8633.00,1.17
8632.00,1.17
8631.00,1.17
8630.00,1.17
8629.00,1.18
8628.00,1.17
8627.00,1.17
8626.00,1.17
8625.00,1.17
8624.00,1.17
8623.00,1.17
8622.00,1.17
8621.00,1.16
8620.00,1.16
8619.00,1.16
8618.00,1.15
8617.00,1.15
8616.00,1.14
8615.00,1.14
8614.00,1.13
8613.00,1.13
8612.00,1.12
8611.00,1.12
8610.00,1.12
8609.00,1.11
8608.00,1.11
8607.00,1.11
8606.00,1.11
8605.00,1.11
8604.00,1.11
8603.00,1.11
8602.00,1.11
8601.00,1.11
8600.00,1.11
8599.00,1.11
8598.00,1.11
8597.00,1.11
8596.00,1.11
8595.00,1.11
8594.00,1.11
8593.00,1.11
8592.00,1.11
8591.00,1.11
8590.00,1.12
8589.00,1.12
8588.00,1.12
8587.00,1.12
8586.00,1.13
8585.00,1.13
8584.00,1.13
8583.00,1.14
8582.00,1.14
8581.00,1.14
8580.00,1.14
8579.00,1.14
8578.00,1.15
8577.00,1.15
8576.00,1.15
8575.00,1.15
8574.00,1.15
8573.00,1.15
8572.00,1.15
8571.00,1.15
8570.00,1.15
8569.00,1.15
8568.00,1.16
8567.00,1.16
8566.00,1.16
8565.00,1.16
8564.00,1.16
8563.00,1.17
8562.00,1.17
8561.00,1.17
8560.00,1.17
8559.00,1.17
8558.00,1.17
8557.00,1.18
8556.00,1.18
8555.00,1.18
8554.00,1.18
8553.00,1.18
8552.00,1.18
8551.00,1.18
8550.00,1.18
8549.00,1.18
8548.00,1.18
8547.00,1.18
8546.00,1.18
8545.00,1.19
8544.00,1.19
8543.00,1.19
8542.00,1.19
8541.00,1.19
8540.00,1.19
8539.00,1.19
8538.00,1.19
8537.00,1.19
8536.00,1.19
8535.00,1.19
8534.00,1.19
8533.00,1.19
8532.00,1.19
8531.00,1.19
8530.00,1.19
8529.00,1.19
8528.00,1.19
8527.00,1.19
8526.00,1.19
8525.00,1.19
8524.00,1.19
8523.00,1.19
8522.00,1.19
8521.00,1.19
8520.00,1.19
8519.00,1.18
8518.00,1.18
8517.00,1.18
8516.00,1.18
8515.00,1.18
8514.00,1.18
8513.00,1.18
8512.00,1.18
8511.00,1.18
8510.00,1.18
8509.00,1.18
8508.00,1.18
8507.00,1.18
8506.00,1.18
8505.00,1.18
8504.00,1.17
8503.00,1.17
8502.00,1.17
8501.00,1.17
8500.00,1.17
8499.00,1.16
8498.00,1.16
8497.00,1.16
8496.00,1.15
8495.00,1.15
8494.00,1.15
8493.00,1.14
8492.00,1.14
8491.00,1.14
8490.00,1.13
8489.00,1.13
8488.00,1.12
8487.00,1.12
8486.00,1.12
8485.00,1.11
8484.00,1.11
8483.00,1.11
8482.00,1.10
8481.00,1.10
8480.00,1.10
8479.00,1.10
8478.00,1.09
8477.00,1.09
8476.00,1.09
8475.00,1.10
8474.00,1.10
8473.00,1.10
8472.00,1.10
8471.00,1.10
8470.00,1.11
8469.00,1.11
8468.00,1.11
8467.00,1.11
8466.00,1.11
8465.00,1.11
8464.00,1.11
8463.00,1.11
8462.00,1.12
8461.00,1.12
8460.00,1.12
8459.00,1.12
8458.00,1.12
8457.00,1.12
8456.00,1.12
8455.00,1.12
8454.00,1.12
8453.00,1.12
8452.00,1.11
8451.00,1.11
8450.00,1.11
8449.00,1.11
8448.00,1.10
8447.00,1.10
8446.00,1.10
8445.00,1.09
8444.00,1.09
8443.00,1.09
8442.00,1.08
8441.00,1.08
8440.00,1.08
8439.00,1.08
8438.00,1.08
8437.00,1.08
8436.00,1.08
8435.00,1.08
8434.00,1.09
8433.00,1.09
8432.00,1.09
8431.00,1.10
8430.00,1.10
8429.00,1.10
8428.00,1.11
8427.00,1.11
8426.00,1.11
8425.00,1.12
8424.00,1.12
8423.00,1.12
8422.00,1.13
8421.00,1.13
8420.00,1.14
8419.00,1.14
8418.00,1.14
8417.00,1.15
8416.00,1.15
8415.00,1.15
8414.00,1.16
8413.00,1.16
8412.00,1.16
8411.00,1.16
8410.00,1.16
8409.00,1.16
8408.00,1.16
8407.00,1.16
8406.00,1.16
8405.00,1.16
8404.00,1.16
8403.00,1.16
8402.00,1.16
8401.00,1.16
8400.00,1.16
8399.00,1.16
8398.00,1.16
8397.00,1.16
8396.00,1.16
8395.00,1.16
8394.00,1.16
8393.00,1.16
8392.00,1.16
8391.00,1.16
8390.00,1.16
8389.00,1.16
8388.00,1.16
8387.00,1.16
8386.00,1.16
8385.00,1.16
8384.00,1.15
8383.00,1.15
8382.00,1.15
8381.00,1.15
8380.00,1.15
8379.00,1.15
8378.00,1.15
8377.00,1.15
8376.00,1.15
8375.00,1.15
8374.00,1.15
8373.00,1.15
8372.00,1.15
8371.00,1.14
8370.00,1.14
8369.00,1.14
8368.00,1.14
8367.00,1.14
8366.00,1.14
8365.00,1.14
8364.00,1.14
8363.00,1.15
8362.00,1.15
8361.00,1.15
8360.00,1.15
8359.00,1.15
8358.00,1.16
8357.00,1.16
8356.00,1.17
8355.00,1.17
8354.00,1.18
8353.00,1.18
8352.00,1.19
8351.00,1.19
8350.00,1.20
8349.00,1.20
8348.00,1.21
8347.00,1.21
8346.00,1.22
8345.00,1.22
8344.00,1.22
8343.00,1.23
8342.00,1.23
8341.00,1.23
8340.00,1.23
8339.00,1.23
8338.00,1.24
8337.00,1.24
8336.00,1.24
8335.00,1.24
8334.00,1.24
8333.00,1.24
8332.00,1.24
8331.00,1.24
8330.00,1.24
8329.00,1.24
8328.00,1.23
8327.00,1.23
8326.00,1.23
8325.00,1.22
8324.00,1.22
8323.00,1.21
8322.00,1.21
8321.00,1.20
8320.00,1.20
8319.00,1.19
8318.00,1.19
8317.00,1.19
8316.00,1.18
8315.00,1.18
8314.00,1.18
8313.00,1.17
8312.00,1.17
8311.00,1.16
8310.00,1.16
8309.00,1.16
8308.00,1.15
8307.00,1.15
8306.00,1.14
8305.00,1.13
8304.00,1.13
8303.00,1.12
8302.00,1.12
8301.00,1.11
8300.00,1.11
8299.00,1.11
8298.00,1.11
8297.00,1.10
8296.00,1.10
8295.00,1.10
8294.00,1.10
8293.00,1.10
8292.00,1.10
8291.00,1.10
8290.00,1.10
8289.00,1.10
8288.00,1.10
8287.00,1.10
8286.00,1.10
8285.00,1.11
8284.00,1.11
8283.00,1.11
8282.00,1.11
8281.00,1.12
8280.00,1.12
8279.00,1.13
8278.00,1.13
8277.00,1.13
8276.00,1.14
8275.00,1.14
8274.00,1.15
8273.00,1.15
8272.00,1.15
8271.00,1.16
8270.00,1.16
8269.00,1.16
8268.00,1.17
8267.00,1.17
8266.00,1.18
8265.00,1.18
8264.00,1.18
8263.00,1.18
8262.00,1.19
8261.00,1.19
8260.00,1.19
8259.00,1.19
8258.00,1.19
8257.00,1.19
8256.00,1.19
8255.00,1.20
8254.00,1.20
8253.00,1.20
8252.00,1.20
8251.00,1.20
8250.00,1.20
8249.00,1.20
8248.00,1.20
8247.00,1.20
8246.00,1.21
8245.00,1.21
8244.00,1.21
8243.00,1.21
8242.00,1.21
8241.00,1.22
8240.00,1.22
8239.00,1.22
8238.00,1.22
8237.00,1.22
8236.00,1.22
8235.00,1.22
8234.00,1.22
8233.00,1.22
8232.00,1.22
8231.00,1.22
8230.00,1.22
8229.00,1.22
8228.00,1.22
8227.00,1.22
8226.00,1.22
8225.00,1.22
8224.00,1.22
8223.00,1.22
8222.00,1.22
8221.00,1.22
8220.00,1.22
8219.00,1.22
8218.00,1.21
8217.00,1.21
8216.00,1.21
8215.00,1.21
8214.00,1.20
8213.00,1.20
8212.00,1.20
8211.00,1.20
8210.00,1.20
8209.00,1.20
8208.00,1.19
8207.00,1.19
8206.00,1.19
8205.00,1.19
8204.00,1.19
8203.00,1.19
8202.00,1.19
8201.00,1.19
8200.00,1.19
8199.00,1.19
8198.00,1.19
8197.00,1.19
8196.00,1.19
8195.00,1.19
8194.00,1.19
8193.00,1.19
8192.00,1.19
8191.00,1.19
8190.00,1.19
8189.00,1.19
8188.00,1.19
8187.00,1.19
8186.00,1.19
8185.00,1.20
8184.00,1.20
8183.00,1.20
8182.00,1.20
8181.00,1.20
8180.00,1.21
8179.00,1.21
8178.00,1.21
8177.00,1.21
8176.00,1.21
8175.00,1.22
8174.00,1.22
8173.00,1.22
8172.00,1.22
8171.00,1.22
8170.00,1.22
8169.00,1.22
8168.00,1.22
8167.00,1.23
8166.00,1.23
8165.00,1.23
8164.00,1.22
8163.00,1.22
8162.00,1.22
8161.00,1.22
8160.00,1.22
8159.00,1.22
8158.00,1.22
8157.00,1.22
8156.00,1.21
8155.00,1.21
8154.00,1.21
8153.00,1.20
8152.00,1.20
8151.00,1.20
8150.00,1.19
8149.00,1.19
8148.00,1.19
8147.00,1.18
8146.00,1.18
8145.00,1.18
8144.00,1.17
8143.00,1.17
8142.00,1.17
8141.00,1.17
8140.00,1.17
8139.00,1.17
8138.00,1.17
8137.00,1.17
8136.00,1.17
8135.00,1.17
8134.00,1.17
8133.00,1.17
8132.00,1.18
8131.00,1.18
8130.00,1.18
8129.00,1.18
8128.00,1.19
8127.00,1.19
8126.00,1.19
8125.00,1.20
8124.00,1.20
8123.00,1.20
8122.00,1.21
8121.00,1.21
8120.00,1.21
8119.00,1.22
8118.00,1.22
8117.00,1.22
8116.00,1.22
8115.00,1.22
8114.00,1.22
8113.00,1.22
8112.00,1.22
8111.00,1.22
8110.00,1.22
8109.00,1.22
8108.00,1.22
8107.00,1.22
8106.00,1.22
8105.00,1.22
8104.00,1.22
8103.00,1.21
8102.00,1.21
8101.00,1.21
8100.00,1.21
8099.00,1.21
8098.00,1.20
8097.00,1.20
8096.00,1.20
8095.00,1.20
8094.00,1.19
8093.00,1.19
8092.00,1.19
8091.00,1.19
8090.00,1.19
8089.00,1.18
8088.00,1.18
8087.00,1.18
8086.00,1.18
8085.00,1.18
8084.00,1.18
8083.00,1.18
8082.00,1.18
8081.00,1.18
8080.00,1.18
8079.00,1.18
8078.00,1.18
8077.00,1.18
8076.00,1.18
8075.00,1.18
8074.00,1.18
8073.00,1.18
8072.00,1.17
8071.00,1.17
8070.00,1.18
8069.00,1.18
8068.00,1.18
8067.00,1.18
8066.00,1.18
8065.00,1.18
8064.00,1.18
8063.00,1.19
8062.00,1.19
8061.00,1.19
8060.00,1.19
8059.00,1.19
8058.00,1.20
8057.00,1.20
8056.00,1.20
8055.00,1.20
8054.00,1.21
8053.00,1.21
8052.00,1.21
8051.00,1.22
8050.00,1.22
8049.00,1.23
8048.00,1.23
8047.00,1.24
8046.00,1.24
8045.00,1.25
8044.00,1.25
8043.00,1.26
8042.00,1.26
8041.00,1.27
8040.00,1.27
8039.00,1.28
8038.00,1.28
8037.00,1.29
8036.00,1.29
8035.00,1.30
8034.00,1.30
8033.00,1.30
8032.00,1.31
8031.00,1.31
8030.00,1.32
8029.00,1.32
8028.00,1.32
8027.00,1.32
8026.00,1.33
8025.00,1.33
8024.00,1.33
8023.00,1.33
8022.00,1.33
8021.00,1.33
8020.00,1.33
8019.00,1.33
8018.00,1.33
8017.00,1.33
8016.00,1.33
8015.00,1.33
8014.00,1.32
8013.00,1.32
8012.00,1.32
8011.00,1.32
8010.00,1.32
8009.00,1.32
8008.00,1.32
8007.00,1.32
8006.00,1.32
8005.00,1.32
8004.00,1.32
8003.00,1.31
8002.00,1.31
8001.00,1.31
8000.00,1.31
7999.00,1.31
7998.00,1.31
7997.00,1.30
7996.00,1.30
7995.00,1.30
7994.00,1.29
7993.00,1.29
7992.00,1.29
7991.00,1.28
7990.00,1.28
7989.00,1.28
7988.00,1.27
7987.00,1.27
7986.00,1.26
7985.00,1.25
7984.00,1.25
7983.00,1.24
7982.00,1.24
7981.00,1.23
7980.00,1.23
7979.00,1.22
7978.00,1.22
7977.00,1.21
7976.00,1.21
7975.00,1.21
7974.00,1.20
7973.00,1.20
7972.00,1.20
7971.00,1.20
7970.00,1.20
7969.00,1.20
7968.00,1.20
7967.00,1.20
7966.00,1.20
7965.00,1.20
7964.00,1.20
7963.00,1.20
7962.00,1.20
7961.00,1.21
7960.00,1.21
7959.00,1.21
7958.00,1.21
7957.00,1.22
7956.00,1.22
7955.00,1.23
7954.00,1.23
7953.00,1.23
7952.00,1.24
7951.00,1.24
7950.00,1.25
7949.00,1.25
7948.00,1.25
7947.00,1.26
7946.00,1.26
7945.00,1.26
7944.00,1.26
7943.00,1.26
7942.00,1.27
7941.00,1.27
7940.00,1.27
7939.00,1.27
7938.00,1.27
7937.00,1.27
7936.00,1.28
7935.00,1.28
7934.00,1.28
7933.00,1.28
7932.00,1.28
7931.00,1.28
7930.00,1.28
7929.00,1.28
7928.00,1.28
7927.00,1.28
7926.00,1.28
7925.00,1.28
7924.00,1.28
7923.00,1.27
7922.00,1.27
7921.00,1.27
7920.00,1.27
7919.00,1.27
7918.00,1.27
7917.00,1.27
7916.00,1.26
7915.00,1.26
7914.00,1.26
7913.00,1.26
7912.00,1.26
7911.00,1.26
7910.00,1.26
7909.00,1.26
7908.00,1.26
7907.00,1.26
7906.00,1.26
7905.00,1.26
7904.00,1.26
7903.00,1.26
7902.00,1.26
7901.00,1.26
7900.00,1.26
7899.00,1.26
7898.00,1.26
7897.00,1.26
7896.00,1.26
7895.00,1.26
7894.00,1.26
7893.00,1.26
7892.00,1.26
7891.00,1.26
7890.00,1.26
7889.00,1.26
7888.00,1.26
7887.00,1.26
7886.00,1.26
7885.00,1.26
7884.00,1.26
7883.00,1.26
7882.00,1.26
7881.00,1.26
7880.00,1.26
7879.00,1.26
7878.00,1.25
7877.00,1.25
7876.00,1.25
7875.00,1.25
7874.00,1.25
7873.00,1.25
7872.00,1.25
7871.00,1.25
7870.00,1.25
7869.00,1.25
7868.00,1.25
7867.00,1.25
7866.00,1.26
7865.00,1.26
7864.00,1.26
7863.00,1.26
7862.00,1.26
7861.00,1.26
7860.00,1.26
7859.00,1.27
7858.00,1.27
7857.00,1.27
7856.00,1.27
7855.00,1.27
7854.00,1.28
7853.00,1.28
7852.00,1.28
7851.00,1.28
7850.00,1.29
7849.00,1.29
7848.00,1.29
7847.00,1.29
7846.00,1.30
7845.00,1.30
7844.00,1.30
7843.00,1.30
7842.00,1.30
7841.00,1.30
7840.00,1.30
7839.00,1.30
7838.00,1.30
7837.00,1.30
7836.00,1.30
7835.00,1.30
7834.00,1.31
7833.00,1.31
7832.00,1.31
7831.00,1.31
7830.00,1.31
7829.00,1.31
7828.00,1.32
7827.00,1.32
7826.00,1.32
7825.00,1.32
7824.00,1.32
7823.00,1.32
7822.00,1.32
7821.00,1.32
7820.00,1.32
7819.00,1.32
7818.00,1.32
7817.00,1.32
7816.00,1.32
7815.00,1.32
7814.00,1.32
7813.00,1.32
7812.00,1.32
7811.00,1.32
7810.00,1.32
7809.00,1.32
7808.00,1.31
7807.00,1.31
7806.00,1.31
7805.00,1.31
7804.00,1.30
7803.00,1.30
7802.00,1.29
7801.00,1.29
7800.00,1.29
7799.00,1.28
7798.00,1.28
7797.00,1.28
7796.00,1.28
7795.00,1.28
7794.00,1.27
7793.00,1.27
7792.00,1.27
7791.00,1.27
7790.00,1.27
7789.00,1.27
7788.00,1.27
7787.00,1.27
7786.00,1.27
7785.00,1.27
7784.00,1.27
7783.00,1.27
7782.00,1.27
7781.00,1.27
7780.00,1.27
7779.00,1.27
7778.00,1.28
7777.00,1.28
7776.00,1.28
7775.00,1.28
7774.00,1.28
7773.00,1.28
7772.00,1.29
7771.00,1.29
7770.00,1.29
7769.00,1.29
7768.00,1.29
7767.00,1.29
7766.00,1.28
7765.00,1.28
7764.00,1.28
7763.00,1.28
7762.00,1.28
7761.00,1.28
7760.00,1.28
7759.00,1.27
7758.00,1.27
7757.00,1.27
7756.00,1.27
7755.00,1.27
7754.00,1.27
7753.00,1.27
7752.00,1.27
7751.00,1.27
7750.00,1.27
7749.00,1.27
7748.00,1.27
7747.00,1.27
7746.00,1.27
7745.00,1.27
7744.00,1.27
7743.00,1.27
7742.00,1.27
7741.00,1.27
7740.00,1.27
7739.00,1.27
7738.00,1.27
7737.00,1.27
7736.00,1.27
7735.00,1.27
7734.00,1.27
7733.00,1.27
7732.00,1.27
7731.00,1.27
7730.00,1.27
7729.00,1.28
7728.00,1.28
7727.00,1.27
7726.00,1.27
7725.00,1.27
7724.00,1.27
7723.00,1.27
7722.00,1.27
7721.00,1.27
7720.00,1.27
7719.00,1.26
7718.00,1.26
7717.00,1.26
7716.00,1.26
7715.00,1.26
7714.00,1.26
7713.00,1.26
7712.00,1.26
7711.00,1.26
7710.00,1.26
7709.00,1.26
7708.00,1.26
7707.00,1.26
7706.00,1.26
7705.00,1.26
7704.00,1.26
7703.00,1.27
7702.00,1.27
7701.00,1.27
7700.00,1.27
7699.00,1.27
7698.00,1.27
7697.00,1.27
7696.00,1.28
7695.00,1.28
7694.00,1.28
7693.00,1.28
7692.00,1.29
7691.00,1.29
7690.00,1.29
7689.00,1.30
7688.00,1.30
7687.00,1.30
7686.00,1.31
7685.00,1.31
7684.00,1.31
7683.00,1.31
7682.00,1.31
7681.00,1.32
7680.00,1.32
7679.00,1.32
7678.00,1.32
7677.00,1.32
7676.00,1.32
7675.00,1.33
7674.00,1.33
7673.00,1.33
7672.00,1.33
7671.00,1.33
7670.00,1.33
7669.00,1.33
7668.00,1.33
7667.00,1.33
7666.00,1.33
7665.00,1.33
7664.00,1.32
7663.00,1.32
7662.00,1.32
7661.00,1.32
7660.00,1.32
7659.00,1.32
7658.00,1.32
7657.00,1.31
7656.00,1.31
7655.00,1.31
7654.00,1.31
7653.00,1.31
7652.00,1.31
7651.00,1.31
7650.00,1.31
7649.00,1.31
7648.00,1.31
7647.00,1.31
7646.00,1.31
7645.00,1.31
7644.00,1.31
7643.00,1.31
7642.00,1.31
7641.00,1.31
7640.00,1.31
7639.00,1.32
7638.00,1.32
7637.00,1.32
7636.00,1.32
7635.00,1.32
7634.00,1.32
7633.00,1.32
7632.00,1.32
7631.00,1.32
7630.00,1.32
7629.00,1.32
7628.00,1.32
7627.00,1.32
7626.00,1.32
7625.00,1.32
7624.00,1.32
7623.00,1.32
7622.00,1.32
7621.00,1.32
7620.00,1.32
7619.00,1.32
7618.00,1.32
7617.00,1.32
7616.00,1.32
7615.00,1.31
7614.00,1.31
7613.00,1.31
7612.00,1.31
7611.00,1.31
7610.00,1.31
7609.00,1.31
7608.00,1.32
7607.00,1.32
7606.00,1.32
7605.00,1.32
7604.00,1.32
7603.00,1.32
7602.00,1.32
7601.00,1.33
7600.00,1.33
7599.00,1.33
7598.00,1.33
7597.00,1.34
7596.00,1.34
7595.00,1.34
7594.00,1.34
7593.00,1.35
7592.00,1.35
7591.00,1.35
7590.00,1.35
7589.00,1.36
7588.00,1.36
7587.00,1.36
7586.00,1.36
7585.00,1.36
7584.00,1.36
7583.00,1.36
7582.00,1.36
7581.00,1.36
7580.00,1.36
7579.00,1.36
7578.00,1.36
7577.00,1.36
7576.00,1.36
7575.00,1.36
7574.00,1.35
7573.00,1.35
7572.00,1.35
7571.00,1.35
7570.00,1.35
7569.00,1.35
7568.00,1.34
7567.00,1.34
7566.00,1.34
7565.00,1.33
7564.00,1.33
7563.00,1.33
7562.00,1.32
7561.00,1.32
7560.00,1.32
7559.00,1.31
7558.00,1.31
7557.00,1.31
7556.00,1.30
7555.00,1.30
7554.00,1.30
7553.00,1.30
7552.00,1.30
7551.00,1.29
7550.00,1.29
7549.00,1.29
7548.00,1.29
7547.00,1.29
7546.00,1.29
7545.00,1.28
7544.00,1.28
7543.00,1.28
7542.00,1.28
7541.00,1.28
7540.00,1.28
7539.00,1.28
7538.00,1.28
7537.00,1.28
7536.00,1.28
7535.00,1.28
7534.00,1.28
7533.00,1.28
7532.00,1.28
7531.00,1.28
7530.00,1.28
7529.00,1.28
7528.00,1.28
7527.00,1.27
7526.00,1.27
7525.00,1.27
7524.00,1.27
7523.00,1.27
7522.00,1.27
7521.00,1.27
7520.00,1.27
7519.00,1.27
7518.00,1.26
7517.00,1.26
7516.00,1.26
7515.00,1.26
7514.00,1.26
7513.00,1.26
7512.00,1.26
7511.00,1.26
7510.00,1.26
7509.00,1.27
7508.00,1.27
7507.00,1.27
7506.00,1.27
7505.00,1.27
7504.00,1.28
7503.00,1.28
7502.00,1.28
7501.00,1.29
7500.00,1.29
7499.00,1.30
7498.00,1.30
7497.00,1.30
7496.00,1.30
7495.00,1.31
7494.00,1.31
7493.00,1.31
7492.00,1.31
7491.00,1.32
7490.00,1.32
7489.00,1.32
7488.00,1.32
7487.00,1.32
7486.00,1.33
7485.00,1.33
7484.00,1.33
7483.00,1.33
7482.00,1.33
7481.00,1.33
7480.00,1.33
7479.00,1.33
7478.00,1.32
7477.00,1.32
7476.00,1.32
7475.00,1.32
7474.00,1.32
7473.00,1.31
7472.00,1.31
7471.00,1.31
7470.00,1.30
7469.00,1.30
7468.00,1.30
7467.00,1.29
7466.00,1.29
7465.00,1.29
7464.00,1.28
7463.00,1.28
7462.00,1.28
7461.00,1.27
7460.00,1.27
7459.00,1.27
7458.00,1.27
7457.00,1.27
7456.00,1.26
7455.00,1.26
7454.00,1.26
7453.00,1.26
7452.00,1.26
7451.00,1.26
7450.00,1.26
7449.00,1.26
7448.00,1.26
7447.00,1.26
7446.00,1.26
7445.00,1.26
7444.00,1.26
7443.00,1.26
7442.00,1.26
7441.00,1.26
7440.00,1.26
7439.00,1.26
7438.00,1.26
7437.00,1.26
7436.00,1.26
7435.00,1.26
7434.00,1.26
7433.00,1.26
7432.00,1.26
7431.00,1.25
7430.00,1.25
7429.00,1.25
7428.00,1.25
7427.00,1.25
7426.00,1.25
7425.00,1.25
7424.00,1.25
7423.00,1.25
7422.00,1.25
7421.00,1.24
7420.00,1.24
7419.00,1.24
7418.00,1.24
7417.00,1.24
7416.00,1.24
7415.00,1.24
7414.00,1.24
7413.00,1.24
7412.00,1.24
7411.00,1.25
7410.00,1.25
7409.00,1.25
7408.00,1.25
7407.00,1.25
7406.00,1.26
7405.00,1.26
7404.00,1.26
7403.00,1.27
7402.00,1.27
7401.00,1.27
7400.00,1.28
7399.00,1.28
7398.00,1.28
7397.00,1.29
7396.00,1.29
7395.00,1.30
7394.00,1.30
7393.00,1.30
7392.00,1.31
7391.00,1.31
7390.00,1.31
7389.00,1.31
7388.00,1.31
7387.00,1.32
7386.00,1.32
7385.00,1.32
7384.00,1.32
7383.00,1.32
7382.00,1.32
7381.00,1.32
7380.00,1.32
7379.00,1.31
7378.00,1.31
7377.00,1.31
7376.00,1.31
7375.00,1.30
7374.00,1.30
7373.00,1.29
7372.00,1.29
7371.00,1.29
7370.00,1.28
7369.00,1.28
7368.00,1.28
7367.00,1.27
7366.00,1.27
7365.00,1.27
7364.00,1.27
7363.00,1.26
7362.00,1.26
7361.00,1.26
7360.00,1.25
7359.00,1.25
7358.00,1.25
7357.00,1.24
7356.00,1.24
7355.00,1.24
7354.00,1.24
7353.00,1.24
7352.00,1.24
7351.00,1.24
7350.00,1.24
7349.00,1.24
7348.00,1.24
7347.00,1.24
7346.00,1.24
7345.00,1.24
7344.00,1.24
7343.00,1.24
7342.00,1.24
7341.00,1.24
7340.00,1.24
7339.00,1.24
7338.00,1.24
7337.00,1.24
7336.00,1.25
7335.00,1.25
7334.00,1.25
7333.00,1.25
7332.00,1.25
7331.00,1.25
7330.00,1.25
7329.00,1.25
7328.00,1.25
7327.00,1.25
7326.00,1.25
7325.00,1.25
7324.00,1.25
7323.00,1.25
7322.00,1.25
7321.00,1.25
7320.00,1.25
7319.00,1.25
7318.00,1.25
7317.00,1.25
7316.00,1.25
7315.00,1.24
7314.00,1.24
7313.00,1.24
7312.00,1.24
7311.00,1.23
7310.00,1.23
7309.00,1.23
7308.00,1.22
7307.00,1.22
7306.00,1.22
7305.00,1.22
7304.00,1.22
7303.00,1.21
7302.00,1.21
7301.00,1.21
7300.00,1.21
7299.00,1.21
7298.00,1.21
7297.00,1.21
7296.00,1.21
7295.00,1.21
7294.00,1.21
7293.00,1.21
7292.00,1.21
7291.00,1.21
7290.00,1.21
7289.00,1.21
7288.00,1.21
7287.00,1.21
7286.00,1.21
7285.00,1.21
7284.00,1.22
7283.00,1.22
7282.00,1.22
7281.00,1.22
7280.00,1.22
7279.00,1.23
7278.00,1.23
7277.00,1.23
7276.00,1.23
7275.00,1.23
7274.00,1.23
7273.00,1.23
7272.00,1.23
7271.00,1.23
7270.00,1.23
7269.00,1.23
7268.00,1.24
7267.00,1.24
7266.00,1.24
7265.00,1.24
7264.00,1.24
7263.00,1.24
7262.00,1.24
7261.00,1.24
7260.00,1.24
7259.00,1.23
7258.00,1.23
7257.00,1.23
7256.00,1.23
7255.00,1.23
7254.00,1.23
7253.00,1.23
7252.00,1.23
7251.00,1.22
7250.00,1.22
7249.00,1.22
7248.00,1.22
7247.00,1.22
7246.00,1.21
7245.00,1.21
7244.00,1.21
7243.00,1.20
7242.00,1.20
7241.00,1.19
7240.00,1.19
7239.00,1.18
7238.00,1.18
7237.00,1.17
7236.00,1.17
7235.00,1.16
7234.00,1.16
7233.00,1.15
7232.00,1.14
7231.00,1.14
7230.00,1.13
7229.00,1.13
7228.00,1.12
7227.00,1.12
7226.00,1.11
7225.00,1.11
7224.00,1.10
7223.00,1.10
7222.00,1.09
7221.00,1.09
7220.00,1.08
7219.00,1.08
7218.00,1.08
7217.00,1.07
7216.00,1.07
7215.00,1.07
7214.00,1.06
7213.00,1.06
7212.00,1.06
7211.00,1.06
7210.00,1.06
7209.00,1.06
7208.00,1.05
7207.00,1.05
7206.00,1.05
7205.00,1.05
7204.00,1.05
7203.00,1.05
7202.00,1.05
7201.00,1.05
7200.00,1.05
7199.00,1.05
7198.00,1.05
7197.00,1.04
7196.00,1.04
7195.00,1.04
7194.00,1.04
7193.00,1.04
7192.00,1.04
7191.00,1.04
7190.00,1.03
7189.00,1.03
7188.00,1.03
7187.00,1.03
7186.00,1.03
7185.00,1.02
7184.00,1.02
7183.00,1.02
7182.00,1.02
7181.00,1.02
7180.00,1.01
7179.00,1.01
7178.00,1.01
7177.00,1.01
7176.00,1.00
7175.00,1.00
7174.00,1.00
7173.00,1.00
7172.00,1.00
7171.00,0.99
7170.00,0.99
7169.00,0.99
7168.00,0.99
7167.00,0.98
7166.00,0.98
7165.00,0.98
7164.00,0.98
7163.00,0.97
7162.00,0.97
7161.00,0.97
7160.00,0.96
7159.00,0.96
7158.00,0.96
7157.00,0.95
7156.00,0.95
7155.00,0.94
7154.00,0.94
7153.00,0.94
7152.00,0.93
7151.00,0.93
7150.00,0.92
7149.00,0.92
7148.00,0.92
7147.00,0.91
7146.00,0.91
7145.00,0.91
7144.00,0.90
7143.00,0.90
7142.00,0.90
7141.00,0.89
7140.00,0.89
7139.00,0.89
7138.00,0.89
7137.00,0.89
7136.00,0.89
7135.00,0.89
7134.00,0.89
7133.00,0.89
7132.00,0.89
7131.00,0.89
7130.00,0.89
7129.00,0.89
7128.00,0.89
7127.00,0.89
7126.00,0.89
7125.00,0.89
7124.00,0.89
7123.00,0.89
7122.00,0.89
7121.00,0.89
7120.00,0.89
7119.00,0.89
7118.00,0.89
7117.00,0.89
7116.00,0.88
7115.00,0.88
7114.00,0.88
7113.00,0.88
7112.00,0.88
7111.00,0.87
7110.00,0.87
7109.00,0.87
7108.00,0.87
7107.00,0.86
7106.00,0.86
7105.00,0.85
7104.00,0.85
7103.00,0.84
7102.00,0.84
7101.00,0.83
7100.00,0.83
7099.00,0.82
7098.00,0.82
7097.00,0.81
7096.00,0.81
7095.00,0.80
7094.00,0.80
7093.00,0.80
7092.00,0.79
7091.00,0.79
7090.00,0.79
7089.00,0.78
7088.00,0.78
7087.00,0.78
7086.00,0.78
7085.00,0.78
7084.00,0.77
7083.00,0.77
7082.00,0.77
7081.00,0.77
7080.00,0.77
7079.00,0.77
7078.00,0.77
7077.00,0.77
7076.00,0.77
7075.00,0.77
7074.00,0.77
7073.00,0.77
7072.00,0.77
7071.00,0.77
7070.00,0.77
7069.00,0.77
7068.00,0.77
7067.00,0.77
7066.00,0.77
7065.00,0.77
7064.00,0.77
7063.00,0.77
7062.00,0.77
7061.00,0.77
7060.00,0.77
7059.00,0.77
7058.00,0.77
7057.00,0.76
7056.00,0.76
7055.00,0.76
7054.00,0.76
7053.00,0.76
7052.00,0.76
7051.00,0.76
7050.00,0.76
7049.00,0.76
7048.00,0.76
7047.00,0.76
7046.00,0.76
7045.00,0.76
7044.00,0.76
7043.00,0.76
7042.00,0.76
7041.00,0.76
7040.00,0.76
7039.00,0.76
7038.00,0.76
7037.00,0.76
7036.00,0.76
7035.00,0.76
7034.00,0.76
7033.00,0.76
7032.00,0.76
7031.00,0.76
7030.00,0.76
7029.00,0.76
7028.00,0.76
7027.00,0.76
7026.00,0.76
7025.00,0.76
7024.00,0.76
7023.00,0.76
7022.00,0.76
7021.00,0.76
7020.00,0.76
7019.00,0.76
7018.00,0.76
7017.00,0.76
7016.00,0.76
7015.00,0.76
7014.00,0.76
7013.00,0.76
7012.00,0.76
7011.00,0.76
7010.00,0.76
7009.00,0.75
7008.00,0.75
7007.00,0.75
7006.00,0.75
7005.00,0.75
7004.00,0.74
7003.00,0.74
7002.00,0.74
7001.00,0.74
7000.00,0.74
6999.00,0.73
6998.00,0.73
6997.00,0.73
6996.00,0.72
6995.00,0.72
6994.00,0.72
6993.00,0.71
6992.00,0.71
6991.00,0.70
6990.00,0.70
6989.00,0.70
6988.00,0.69
6987.00,0.69
6986.00,0.68
6985.00,0.68
6984.00,0.68
6983.00,0.67
6982.00,0.67
6981.00,0.67
6980.00,0.67
6979.00,0.66
6978.00,0.66
6977.00,0.66
6976.00,0.66
6975.00,0.65
6974.00,0.65
6973.00,0.65
6972.00,0.65
6971.00,0.64
6970.00,0.64
6969.00,0.64
6968.00,0.64
6967.00,0.64
6966.00,0.64
6965.00,0.64
6964.00,0.64
6963.00,0.65
6962.00,0.65
6961.00,0.65
6960.00,0.65
6959.00,0.65
6958.00,0.65
6957.00,0.65
6956.00,0.65
6955.00,0.65
6954.00,0.65
6953.00,0.65
6952.00,0.65
6951.00,0.65
6950.00,0.65
6949.00,0.65
6948.00,0.65
6947.00,0.66
6946.00,0.66
6945.00,0.66
6944.00,0.66
6943.00,0.66
6942.00,0.66
6941.00,0.66
6940.00,0.67
6939.00,0.67
6938.00,0.67
6937.00,0.67
6936.00,0.67
6935.00,0.67
6934.00,0.67
6933.00,0.67
6932.00,0.68
6931.00,0.68
6930.00,0.68
6929.00,0.68
6928.00,0.69
6927.00,0.69
6926.00,0.69
6925.00,0.70
6924.00,0.70
6923.00,0.70
6922.00,0.71
6921.00,0.71
6920.00,0.71
6919.00,0.71
6918.00,0.71
6917.00,0.71
6916.00,0.71
6915.00,0.72
6914.00,0.72
6913.00,0.72
6912.00,0.72
6911.00,0.72
6910.00,0.72
6909.00,0.72
6908.00,0.72
6907.00,0.72
6906.00,0.73
6905.00,0.73
6904.00,0.73
6903.00,0.73
6902.00,0.73
6901.00,0.72
6900.00,0.72
6899.00,0.72
6898.00,0.72
6897.00,0.72
6896.00,0.72
6895.00,0.72
6894.00,0.72
6893.00,0.72
6892.00,0.72
6891.00,0.72
6890.00,0.72
6889.00,0.72
6888.00,0.72
6887.00,0.72
6886.00,0.72
6885.00,0.72
6884.00,0.71
6883.00,0.71
6882.00,0.71
6881.00,0.71
6880.00,0.71
6879.00,0.71
6878.00,0.70
6877.00,0.70
6876.00,0.70
6875.00,0.70
6874.00,0.70
6873.00,0.69
6872.00,0.69
6871.00,0.69
6870.00,0.69
6869.00,0.68
6868.00,0.68
6867.00,0.68
6866.00,0.67
6865.00,0.67
6864.00,0.67
6863.00,0.66
6862.00,0.66
6861.00,0.66
6860.00,0.66
6859.00,0.65
6858.00,0.65
6857.00,0.65
6856.00,0.65
6855.00,0.65
6854.00,0.65
6853.00,0.64
6852.00,0.64
6851.00,0.64
6850.00,0.64
6849.00,0.64
6848.00,0.65
6847.00,0.65
6846.00,0.65
6845.00,0.65
6844.00,0.65
6843.00,0.65
6842.00,0.66
6841.00,0.66
6840.00,0.66
6839.00,0.67
6838.00,0.67
6837.00,0.67
6836.00,0.67
6835.00,0.68
6834.00,0.68
6833.00,0.68
6832.00,0.69
6831.00,0.69
6830.00,0.69
6829.00,0.69
6828.00,0.69
6827.00,0.70
6826.00,0.70
6825.00,0.70
6824.00,0.70
6823.00,0.70
6822.00,0.70
6821.00,0.70
6820.00,0.70
6819.00,0.70
6818.00,0.70
6817.00,0.70
6816.00,0.70
6815.00,0.70
6814.00,0.70
6813.00,0.69
6812.00,0.69
6811.00,0.69
6810.00,0.69
6809.00,0.69
6808.00,0.69
6807.00,0.69
6806.00,0.69
6805.00,0.70
6804.00,0.70
6803.00,0.70
6802.00,0.70
6801.00,0.70
6800.00,0.70
6799.00,0.70
6798.00,0.70
6797.00,0.71
6796.00,0.71
6795.00,0.71
6794.00,0.71
6793.00,0.71
6792.00,0.72
6791.00,0.72
6790.00,0.72
6789.00,0.72
6788.00,0.73
6787.00,0.73
6786.00,0.73
6785.00,0.73
6784.00,0.73
6783.00,0.73
6782.00,0.73
6781.00,0.73
6780.00,0.73
6779.00,0.73
6778.00,0.73
6777.00,0.73
6776.00,0.73
6775.00,0.72
6774.00,0.72
6773.00,0.72
6772.00,0.72
6771.00,0.72
6770.00,0.72
6769.00,0.72
6768.00,0.72
6767.00,0.72
6766.00,0.72
6765.00,0.72
6764.00,0.72
6763.00,0.71
6762.00,0.71
6761.00,0.71
6760.00,0.71
6759.00,0.71
6758.00,0.71
6757.00,0.71
6756.00,0.72
6755.00,0.72
6754.00,0.72
6753.00,0.72
6752.00,0.72
6751.00,0.72
6750.00,0.72
6749.00,0.73
6748.00,0.73
6747.00,0.73
6746.00,0.73
6745.00,0.73
6744.00,0.73
6743.00,0.73
6742.00,0.74
6741.00,0.74
6740.00,0.74
6739.00,0.74
6738.00,0.75
6737.00,0.75
6736.00,0.75
6735.00,0.75
6734.00,0.76
6733.00,0.76
6732.00,0.76
6731.00,0.76
6730.00,0.77
6729.00,0.77
6728.00,0.77
6727.00,0.77
6726.00,0.78
6725.00,0.78
6724.00,0.78
6723.00,0.78
6722.00,0.78
6721.00,0.79
6720.00,0.79
6719.00,0.79
6718.00,0.79
6717.00,0.79
6716.00,0.79
6715.00,0.79
6714.00,0.80
6713.00,0.80
6712.00,0.80
6711.00,0.80
6710.00,0.80
6709.00,0.80
6708.00,0.80
6707.00,0.80
6706.00,0.80
6705.00,0.80
6704.00,0.80
6703.00,0.80
6702.00,0.80
6701.00,0.79
6700.00,0.79
6699.00,0.79
6698.00,0.79
6697.00,0.79
6696.00,0.79
6695.00,0.79
6694.00,0.79
6693.00,0.79
6692.00,0.79
6691.00,0.79
6690.00,0.79
6689.00,0.79
6688.00,0.79
6687.00,0.79
6686.00,0.79
6685.00,0.80
6684.00,0.80
6683.00,0.80
6682.00,0.80
6681.00,0.80
6680.00,0.80
6679.00,0.81
6678.00,0.81
6677.00,0.81
6676.00,0.81
6675.00,0.82
6674.00,0.82
6673.00,0.82
6672.00,0.82
6671.00,0.83
6670.00,0.83
6669.00,0.83
6668.00,0.83
6667.00,0.83
6666.00,0.84
6665.00,0.84
6664.00,0.84
6663.00,0.84
6662.00,0.84
6661.00,0.84
6660.00,0.84
6659.00,0.84
6658.00,0.84
6657.00,0.84
6656.00,0.84
6655.00,0.85
6654.00,0.85
6653.00,0.85
6652.00,0.85
6651.00,0.85
6650.00,0.85
6649.00,0.85
6648.00,0.85
6647.00,0.85
6646.00,0.85
6645.00,0.85
6644.00,0.85
6643.00,0.85
6642.00,0.85
6641.00,0.85
6640.00,0.85
6639.00,0.85
6638.00,0.85
6637.00,0.85
6636.00,0.85
6635.00,0.85
6634.00,0.85
6633.00,0.85
6632.00,0.85
6631.00,0.85
6630.00,0.85
6629.00,0.85
6628.00,0.85
6627.00,0.85
6626.00,0.85
6625.00,0.85
6624.00,0.85
6623.00,0.85
6622.00,0.85
6621.00,0.85
6620.00,0.85
6619.00,0.85
6618.00,0.85
6617.00,0.85
6616.00,0.85
6615.00,0.86
6614.00,0.86
6613.00,0.86
6612.00,0.86
6611.00,0.86
6610.00,0.86
6609.00,0.87
6608.00,0.87
6607.00,0.87
6606.00,0.87
6605.00,0.87
6604.00,0.88
6603.00,0.88
6602.00,0.88
6601.00,0.88
6600.00,0.89
6599.00,0.89
6598.00,0.89
6597.00,0.89
6596.00,0.89
6595.00,0.90
6594.00,0.90
6593.00,0.90
6592.00,0.90
6591.00,0.90
6590.00,0.90
6589.00,0.90
6588.00,0.90
6587.00,0.90
6586.00,0.90
6585.00,0.90
6584.00,0.90
6583.00,0.90
6582.00,0.90
6581.00,0.90
6580.00,0.90
6579.00,0.90
6578.00,0.90
6577.00,0.90
6576.00,0.90
6575.00,0.90
6574.00,0.90
6573.00,0.90
6572.00,0.90
6571.00,0.90
6570.00,0.90
6569.00,0.90
6568.00,0.90
6567.00,0.90
6566.00,0.90
6565.00,0.90
6564.00,0.90
6563.00,0.90
6562.00,0.90
6561.00,0.90
6560.00,0.90
6559.00,0.91
6558.00,0.91
6557.00,0.91
6556.00,0.91
6555.00,0.91
6554.00,0.92
6553.00,0.92
6552.00,0.92
6551.00,0.92
6550.00,0.92
6549.00,0.92
6548.00,0.92
6547.00,0.92
6546.00,0.92
6545.00,0.92
6544.00,0.93
6543.00,0.93
6542.00,0.93
6541.00,0.93
6540.00,0.93
6539.00,0.93
6538.00,0.93
6537.00,0.93
6536.00,0.94
6535.00,0.94
6534.00,0.94
6533.00,0.94
6532.00,0.94
6531.00,0.93
6530.00,0.93
6529.00,0.93
6528.00,0.93
6527.00,0.93
6526.00,0.93
6525.00,0.93
6524.00,0.93
6523.00,0.93
6522.00,0.93
6521.00,0.93
6520.00,0.93
6519.00,0.93
6518.00,0.93
6517.00,0.93
6516.00,0.93
6515.00,0.93
6514.00,0.93
6513.00,0.93
6512.00,0.93
6511.00,0.93
6510.00,0.93
6509.00,0.93
6508.00,0.93
6507.00,0.94
6506.00,0.94
6505.00,0.94
6504.00,0.94
6503.00,0.94
6502.00,0.94
6501.00,0.94
6500.00,0.95
6499.00,0.95
6498.00,0.95
6497.00,0.95
6496.00,0.95
6495.00,0.95
6494.00,0.95
6493.00,0.95
6492.00,0.95
6491.00,0.95
6490.00,0.95
6489.00,0.95
6488.00,0.95
6487.00,0.95
6486.00,0.95
6485.00,0.95
6484.00,0.95
6483.00,0.95
6482.00,0.95
6481.00,0.95
6480.00,0.95
6479.00,0.95
6478.00,0.95
6477.00,0.95
6476.00,0.95
6475.00,0.95
6474.00,0.95
6473.00,0.95
6472.00,0.95
6471.00,0.95
6470.00,0.95
6469.00,0.95
6468.00,0.95
6467.00,0.95
6466.00,0.96
6465.00,0.96
6464.00,0.96
6463.00,0.96
6462.00,0.96
6461.00,0.96
6460.00,0.96
6459.00,0.96
6458.00,0.96
6457.00,0.96
6456.00,0.96
6455.00,0.96
6454.00,0.96
6453.00,0.96
6452.00,0.96
6451.00,0.96
6450.00,0.96
6449.00,0.96
6448.00,0.96
6447.00,0.96
6446.00,0.96
6445.00,0.96
6444.00,0.96
6443.00,0.96
6442.00,0.96
6441.00,0.96
6440.00,0.96
6439.00,0.96
6438.00,0.96
6437.00,0.96
6436.00,0.96
6435.00,0.96
6434.00,0.96
6433.00,0.96
6432.00,0.96
6431.00,0.96
6430.00,0.97
6429.00,0.97
6428.00,0.97
6427.00,0.97
6426.00,0.98
6425.00,0.98
6424.00,0.98
6423.00,0.99
6422.00,0.99
6421.00,0.99
6420.00,1.00
6419.00,1.00
6418.00,1.00
6417.00,1.01
6416.00,1.01
6415.00,1.01
6414.00,1.01
6413.00,1.02
6412.00,1.02
6411.00,1.02
6410.00,1.02
6409.00,1.02
6408.00,1.02
6407.00,1.03
6406.00,1.03
6405.00,1.03
6404.00,1.03
6403.00,1.03
6402.00,1.03
6401.00,1.03
6400.00,1.03
6399.00,1.03
6398.00,1.03
6397.00,1.03
6396.00,1.03
6395.00,1.02
6394.00,1.02
6393.00,1.02
6392.00,1.02
6391.00,1.02
6390.00,1.02
6389.00,1.03
6388.00,1.03
6387.00,1.03
6386.00,1.03
6385.00,1.03
6384.00,1.03
6383.00,1.03
6382.00,1.03
6381.00,1.03
6380.00,1.04
6379.00,1.04
6378.00,1.04
6377.00,1.04
6376.00,1.04
6375.00,1.04
6374.00,1.04
6373.00,1.04
6372.00,1.05
6371.00,1.05
6370.00,1.05
6369.00,1.05
6368.00,1.05
6367.00,1.05
6366.00,1.05
6365.00,1.06
6364.00,1.06
6363.00,1.06
6362.00,1.06
6361.00,1.06
6360.00,1.06
6359.00,1.06
6358.00,1.06
6357.00,1.06
6356.00,1.06
6355.00,1.06
6354.00,1.06
6353.00,1.06
6352.00,1.06
6351.00,1.06
6350.00,1.07
6349.00,1.07
6348.00,1.07
6347.00,1.07
6346.00,1.07
6345.00,1.07
6344.00,1.07
6343.00,1.07
6342.00,1.07
6341.00,1.07
6340.00,1.07
6339.00,1.07
6338.00,1.07
6337.00,1.07
6336.00,1.06
6335.00,1.06
6334.00,1.06
6333.00,1.06
6332.00,1.06
6331.00,1.06
6330.00,1.06
6329.00,1.06
6328.00,1.06
6327.00,1.06
6326.00,1.06
6325.00,1.06
6324.00,1.06
6323.00,1.06
6322.00,1.07
6321.00,1.07
6320.00,1.07
6319.00,1.07
6318.00,1.07
6317.00,1.07
6316.00,1.07
6315.00,1.07
6314.00,1.08
6313.00,1.08
6312.00,1.08
6311.00,1.08
6310.00,1.09
6309.00,1.09
6308.00,1.09
6307.00,1.10
6306.00,1.10
6305.00,1.10
6304.00,1.10
6303.00,1.11
6302.00,1.11
6301.00,1.11
6300.00,1.11
6299.00,1.11
6298.00,1.12
6297.00,1.12
6296.00,1.12
6295.00,1.12
6294.00,1.12
6293.00,1.13
6292.00,1.13
6291.00,1.13
6290.00,1.14
6289.00,1.14
6288.00,1.14
6287.00,1.14
6286.00,1.15
6285.00,1.15
6284.00,1.15
6283.00,1.15
6282.00,1.15
6281.00,1.15
6280.00,1.16
6279.00,1.16
6278.00,1.16
6277.00,1.16
6276.00,1.17
6275.00,1.17
6274.00,1.17
6273.00,1.17
6272.00,1.17
6271.00,1.17
6270.00,1.18
6269.00,1.18
6268.00,1.18
6267.00,1.18
6266.00,1.18
6265.00,1.18
6264.00,1.18
6263.00,1.18
6262.00,1.18
6261.00,1.17
6260.00,1.17
6259.00,1.17
6258.00,1.17
6257.00,1.17
6256.00,1.17
6255.00,1.17
6254.00,1.16
6253.00,1.16
6252.00,1.16
6251.00,1.16
6250.00,1.16
6249.00,1.15
6248.00,1.15
6247.00,1.15
6246.00,1.15
6245.00,1.15
6244.00,1.15
6243.00,1.15
6242.00,1.15
6241.00,1.15
6240.00,1.14
6239.00,1.15
6238.00,1.15
6237.00,1.15
6236.00,1.15
6235.00,1.15
6234.00,1.15
6233.00,1.15
6232.00,1.15
6231.00,1.15
6230.00,1.16
6229.00,1.16
6228.00,1.16
6227.00,1.16
6226.00,1.16
6225.00,1.17
6224.00,1.17
6223.00,1.17
6222.00,1.17
6221.00,1.18
6220.00,1.18
6219.00,1.18
6218.00,1.18
6217.00,1.18
6216.00,1.19
6215.00,1.19
6214.00,1.19
6213.00,1.19
6212.00,1.19
6211.00,1.20
6210.00,1.20
6209.00,1.20
6208.00,1.20
6207.00,1.20
6206.00,1.20
6205.00,1.21
6204.00,1.21
6203.00,1.21
6202.00,1.21
6201.00,1.21
6200.00,1.21
6199.00,1.21
6198.00,1.21
6197.00,1.22
6196.00,1.22
6195.00,1.22
6194.00,1.22
6193.00,1.22
6192.00,1.22
6191.00,1.22
6190.00,1.22
6189.00,1.22
6188.00,1.23
6187.00,1.23
6186.00,1.23
6185.00,1.23
6184.00,1.23
6183.00,1.23
6182.00,1.23
6181.00,1.23
6180.00,1.23
6179.00,1.24
6178.00,1.24
6177.00,1.24
6176.00,1.24
6175.00,1.24
6174.00,1.25
6173.00,1.25
6172.00,1.25
6171.00,1.25
6170.00,1.25
6169.00,1.25
6168.00,1.26
6167.00,1.26
6166.00,1.26
6165.00,1.26
6164.00,1.26
6163.00,1.27
6162.00,1.27
6161.00,1.27
6160.00,1.27
6159.00,1.27
6158.00,1.28
6157.00,1.28
6156.00,1.28
6155.00,1.28
6154.00,1.28
6153.00,1.28
6152.00,1.28
6151.00,1.28
6150.00,1.28
6149.00,1.28
6148.00,1.28
6147.00,1.28
6146.00,1.28
6145.00,1.28
6144.00,1.28
6143.00,1.28
6142.00,1.28
6141.00,1.29
6140.00,1.29
6139.00,1.29
6138.00,1.29
6137.00,1.29
6136.00,1.29
6135.00,1.29
6134.00,1.29
6133.00,1.29
6132.00,1.29
6131.00,1.29
6130.00,1.29
6129.00,1.30
6128.00,1.30
6127.00,1.30
6126.00,1.30
6125.00,1.30
6124.00,1.30
6123.00,1.31
6122.00,1.31
6121.00,1.31
6120.00,1.31
6119.00,1.31
6118.00,1.31
6117.00,1.31
6116.00,1.31
6115.00,1.31
6114.00,1.31
6113.00,1.31
6112.00,1.31
6111.00,1.31
6110.00,1.31
6109.00,1.31
6108.00,1.31
6107.00,1.31
6106.00,1.31
6105.00,1.30
6104.00,1.30
6103.00,1.30
6102.00,1.30
6101.00,1.30
6100.00,1.30
6099.00,1.30
6098.00,1.30
6097.00,1.30
6096.00,1.30
6095.00,1.30
6094.00,1.30
6093.00,1.30
6092.00,1.30
6091.00,1.30
6090.00,1.30
6089.00,1.30
6088.00,1.30
6087.00,1.30
6086.00,1.30
6085.00,1.30
6084.00,1.30
6083.00,1.30
6082.00,1.30
6081.00,1.31
6080.00,1.31
6079.00,1.31
6078.00,1.31
6077.00,1.31
6076.00,1.31
6075.00,1.31
6074.00,1.31
6073.00,1.31
6072.00,1.31
6071.00,1.31
6070.00,1.31
6069.00,1.31
6068.00,1.31
6067.00,1.31
6066.00,1.31
6065.00,1.31
6064.00,1.31
6063.00,1.32
6062.00,1.32
6061.00,1.32
6060.00,1.32
6059.00,1.32
6058.00,1.32
6057.00,1.32
6056.00,1.32
6055.00,1.32
6054.00,1.32
6053.00,1.32
6052.00,1.32
6051.00,1.32
6050.00,1.32
6049.00,1.32
6048.00,1.32
6047.00,1.32
6046.00,1.32
6045.00,1.32
6044.00,1.32
6043.00,1.32
6042.00,1.32
6041.00,1.32
6040.00,1.32
6039.00,1.32
6038.00,1.32
6037.00,1.32
6036.00,1.32
6035.00,1.32
6034.00,1.31
6033.00,1.31
6032.00,1.31
6031.00,1.31
6030.00,1.31
6029.00,1.31
6028.00,1.31
6027.00,1.31
6026.00,1.31
6025.00,1.31
6024.00,1.31
6023.00,1.31
6022.00,1.31
6021.00,1.31
6020.00,1.31
6019.00,1.31
6018.00,1.31
6017.00,1.31
6016.00,1.31
6015.00,1.31
6014.00,1.32
6013.00,1.32
6012.00,1.32
6011.00,1.32
6010.00,1.32
6009.00,1.33
6008.00,1.33
6007.00,1.33
6006.00,1.34
6005.00,1.34
6004.00,1.34
6003.00,1.34
6002.00,1.35
6001.00,1.35
6000.00,1.35
5999.00,1.36
5998.00,1.36
5997.00,1.36
5996.00,1.37
5995.00,1.37
5994.00,1.37
5993.00,1.37
5992.00,1.38
5991.00,1.38
5990.00,1.38
5989.00,1.38
5988.00,1.39
5987.00,1.39
5986.00,1.39
5985.00,1.39
5984.00,1.39
5983.00,1.39
5982.00,1.39
5981.00,1.38
5980.00,1.38
5979.00,1.38
5978.00,1.38
5977.00,1.37
5976.00,1.37
5975.00,1.36
5974.00,1.36
5973.00,1.35
5972.00,1.35
5971.00,1.34
5970.00,1.34
5969.00,1.33
5968.00,1.32
5967.00,1.32
5966.00,1.31
5965.00,1.30
5964.00,1.29
5963.00,1.29
5962.00,1.28
5961.00,1.27
5960.00,1.26
5959.00,1.26
5958.00,1.25
5957.00,1.24
5956.00,1.24
5955.00,1.23
5954.00,1.22
5953.00,1.22
5952.00,1.21
5951.00,1.21
5950.00,1.21
5949.00,1.20
5948.00,1.20
5947.00,1.20
5946.00,1.20
5945.00,1.20
5944.00,1.20
5943.00,1.19
5942.00,1.19
5941.00,1.19
5940.00,1.19
5939.00,1.19
5938.00,1.19
5937.00,1.19
5936.00,1.19
5935.00,1.20
5934.00,1.20
5933.00,1.20
5932.00,1.20
5931.00,1.20
5930.00,1.20
5929.00,1.20
5928.00,1.20
5927.00,1.20
5926.00,1.20
5925.00,1.20
5924.00,1.20
5923.00,1.20
5922.00,1.20
5921.00,1.20
5920.00,1.20
5919.00,1.20
5918.00,1.20
5917.00,1.19
5916.00,1.19
5915.00,1.19
5914.00,1.19
5913.00,1.19
5912.00,1.19
5911.00,1.18
5910.00,1.18
5909.00,1.18
5908.00,1.18
5907.00,1.18
5906.00,1.18
5905.00,1.18
5904.00,1.18
5903.00,1.18
5902.00,1.17
5901.00,1.17
5900.00,1.17
5899.00,1.17
5898.00,1.17
5897.00,1.17
5896.00,1.17
5895.00,1.17
5894.00,1.18
5893.00,1.18
5892.00,1.18
5891.00,1.18
5890.00,1.18
5889.00,1.19
5888.00,1.19
5887.00,1.19
5886.00,1.20
5885.00,1.20
5884.00,1.20
5883.00,1.20
5882.00,1.21
5881.00,1.21
5880.00,1.21
5879.00,1.21
5878.00,1.22
5877.00,1.22
5876.00,1.22
5875.00,1.23
5874.00,1.23
5873.00,1.23
5872.00,1.24
5871.00,1.24
5870.00,1.24
5869.00,1.24
5868.00,1.24
5867.00,1.25
5866.00,1.25
5865.00,1.25
5864.00,1.25
5863.00,1.25
5862.00,1.25
5861.00,1.25
5860.00,1.25
5859.00,1.25
5858.00,1.25
5857.00,1.25
5856.00,1.25
5855.00,1.26
5854.00,1.26
5853.00,1.26
5852.00,1.26
5851.00,1.26
5850.00,1.26
5849.00,1.26
5848.00,1.26
5847.00,1.26
5846.00,1.26
5845.00,1.26
5844.00,1.26
5843.00,1.26
5842.00,1.26
5841.00,1.26
5840.00,1.26
5839.00,1.26
5838.00,1.26
5837.00,1.26
5836.00,1.26
5835.00,1.26
5834.00,1.26
5833.00,1.26
5832.00,1.26
5831.00,1.26
5830.00,1.26
5829.00,1.26
5828.00,1.26
5827.00,1.26
5826.00,1.26
5825.00,1.26
5824.00,1.26
5823.00,1.25
5822.00,1.25
5821.00,1.25
5820.00,1.25
5819.00,1.25
5818.00,1.25
5817.00,1.25
5816.00,1.25
5815.00,1.25
5814.00,1.25
5813.00,1.25
5812.00,1.25
5811.00,1.25
5810.00,1.25
5809.00,1.24
5808.00,1.24
5807.00,1.24
5806.00,1.24
5805.00,1.24
5804.00,1.24
5803.00,1.24
5802.00,1.23
5801.00,1.23
5800.00,1.23
5799.00,1.23
5798.00,1.23
5797.00,1.23
5796.00,1.23
5795.00,1.22
5794.00,1.22
5793.00,1.22
5792.00,1.22
5791.00,1.22
5790.00,1.22
5789.00,1.22
5788.00,1.22
5787.00,1.22
5786.00,1.22
5785.00,1.22
5784.00,1.22
5783.00,1.22
5782.00,1.22
5781.00,1.22
5780.00,1.22
5779.00,1.22
5778.00,1.22
5777.00,1.22
5776.00,1.23
5775.00,1.23
5774.00,1.23
5773.00,1.23
5772.00,1.23
5771.00,1.23
5770.00,1.23
5769.00,1.23
5768.00,1.23
5767.00,1.23
5766.00,1.23
5765.00,1.23
5764.00,1.23
5763.00,1.23
5762.00,1.23
5761.00,1.23
5760.00,1.23
5759.00,1.24
5758.00,1.24
5757.00,1.24
5756.00,1.24
5755.00,1.24
5754.00,1.24
5753.00,1.24
5752.00,1.24
5751.00,1.24
5750.00,1.24
5749.00,1.24
5748.00,1.24
5747.00,1.24
5746.00,1.25
5745.00,1.25
5744.00,1.25
5743.00,1.25
5742.00,1.25
5741.00,1.25
5740.00,1.25
5739.00,1.25
5738.00,1.26
5737.00,1.26
5736.00,1.26
5735.00,1.26
5734.00,1.26
5733.00,1.26
5732.00,1.27
5731.00,1.27
5730.00,1.27
5729.00,1.27
5728.00,1.27
5727.00,1.27
5726.00,1.27
5725.00,1.27
5724.00,1.28
5723.00,1.28
5722.00,1.28
5721.00,1.28
5720.00,1.28
5719.00,1.28
5718.00,1.28
5717.00,1.28
5716.00,1.28
5715.00,1.28
5714.00,1.28
5713.00,1.28
5712.00,1.28
5711.00,1.28
5710.00,1.28
5709.00,1.28
5708.00,1.28
5707.00,1.27
5706.00,1.27
5705.00,1.27
5704.00,1.27
5703.00,1.27
5702.00,1.27
5701.00,1.27
5700.00,1.27
5699.00,1.27
5698.00,1.26
5697.00,1.26
5696.00,1.26
5695.00,1.26
5694.00,1.26
5693.00,1.26
5692.00,1.26
5691.00,1.26
5690.00,1.25
5689.00,1.25
5688.00,1.25
5687.00,1.25
5686.00,1.25
5685.00,1.25
5684.00,1.25
5683.00,1.25
5682.00,1.25
5681.00,1.25
5680.00,1.25
5679.00,1.25
5678.00,1.25
5677.00,1.25
5676.00,1.25
5675.00,1.25
5674.00,1.25
5673.00,1.25
5672.00,1.25
5671.00,1.25
5670.00,1.25
5669.00,1.26
5668.00,1.26
5667.00,1.26
5666.00,1.26
5665.00,1.26
5664.00,1.26
5663.00,1.26
5662.00,1.27
5661.00,1.27
5660.00,1.27
5659.00,1.27
5658.00,1.27
5657.00,1.27
5656.00,1.27
5655.00,1.28
5654.00,1.28
5653.00,1.28
5652.00,1.28
5651.00,1.28
5650.00,1.28
5649.00,1.29
5648.00,1.29
5647.00,1.29
5646.00,1.29
5645.00,1.29
5644.00,1.30
5643.00,1.30
5642.00,1.30
5641.00,1.30
5640.00,1.30
5639.00,1.30
5638.00,1.31
5637.00,1.31
5636.00,1.31
5635.00,1.31
5634.00,1.31
5633.00,1.31
5632.00,1.31
5631.00,1.31
5630.00,1.31
5629.00,1.31
5628.00,1.31
5627.00,1.31
5626.00,1.31
5625.00,1.31
5624.00,1.31
5623.00,1.31
5622.00,1.31
5621.00,1.32
5620.00,1.32
5619.00,1.32
5618.00,1.32
5617.00,1.32
5616.00,1.31
5615.00,1.31
5614.00,1.31
5613.00,1.31
5612.00,1.31
5611.00,1.32
5610.00,1.32
5609.00,1.32
5608.00,1.32
5607.00,1.32
5606.00,1.32
5605.00,1.32
5604.00,1.32
5603.00,1.32
5602.00,1.32
5601.00,1.33
5600.00,1.33
5599.00,1.33
5598.00,1.33
5597.00,1.33
5596.00,1.33
5595.00,1.33
5594.00,1.33
5593.00,1.33
5592.00,1.34
5591.00,1.34
5590.00,1.34
5589.00,1.34
5588.00,1.34
5587.00,1.34
5586.00,1.34
5585.00,1.35
5584.00,1.35
5583.00,1.35
5582.00,1.35
5581.00,1.35
5580.00,1.35
5579.00,1.35
5578.00,1.35
5577.00,1.36
5576.00,1.36
5575.00,1.36
5574.00,1.36
5573.00,1.36
5572.00,1.36
5571.00,1.36
5570.00,1.36
5569.00,1.36
5568.00,1.37
5567.00,1.37
5566.00,1.37
5565.00,1.37
5564.00,1.37
5563.00,1.37
5562.00,1.37
5561.00,1.37
5560.00,1.37
5559.00,1.37
5558.00,1.37
5557.00,1.37
5556.00,1.37
5555.00,1.38
5554.00,1.38
5553.00,1.38
5552.00,1.38
5551.00,1.38
5550.00,1.38
5549.00,1.38
5548.00,1.38
5547.00,1.38
5546.00,1.38
5545.00,1.38
5544.00,1.38
5543.00,1.38
5542.00,1.38
5541.00,1.38
5540.00,1.38
5539.00,1.38
5538.00,1.38
5537.00,1.38
5536.00,1.38
5535.00,1.39
5534.00,1.39
5533.00,1.39
5532.00,1.39
5531.00,1.39
5530.00,1.39
5529.00,1.39
5528.00,1.39
5527.00,1.39
5526.00,1.39
5525.00,1.39
5524.00,1.39
5523.00,1.39
5522.00,1.39
5521.00,1.39
5520.00,1.39
5519.00,1.39
5518.00,1.39
5517.00,1.39
5516.00,1.40
5515.00,1.40
5514.00,1.40
5513.00,1.40
5512.00,1.39
5511.00,1.39
5510.00,1.39
5509.00,1.39
5508.00,1.39
5507.00,1.39
5506.00,1.39
5505.00,1.39
5504.00,1.39
5503.00,1.39
5502.00,1.39
5501.00,1.40
5500.00,1.40
5499.00,1.40
5498.00,1.40
5497.00,1.40
5496.00,1.40
5495.00,1.40
5494.00,1.40
5493.00,1.40
5492.00,1.40
5491.00,1.40
5490.00,1.40
5489.00,1.40
5488.00,1.40
5487.00,1.40
5486.00,1.40
5485.00,1.40
5484.00,1.39
5483.00,1.39
5482.00,1.39
5481.00,1.39
5480.00,1.39
5479.00,1.39
5478.00,1.39
5477.00,1.39
5476.00,1.39
5475.00,1.39
5474.00,1.39
5473.00,1.39
5472.00,1.39
5471.00,1.39
5470.00,1.39
5469.00,1.39
5468.00,1.39
5467.00,1.39
5466.00,1.38
5465.00,1.38
5464.00,1.38
5463.00,1.38
5462.00,1.38
5461.00,1.38
5460.00,1.38
5459.00,1.38
5458.00,1.38
5457.00,1.38
5456.00,1.38
5455.00,1.38
5454.00,1.38
5453.00,1.38
5452.00,1.38
5451.00,1.38
5450.00,1.38
5449.00,1.38
5448.00,1.38
5447.00,1.38
5446.00,1.38
5445.00,1.38
5444.00,1.38
5443.00,1.38
5442.00,1.38
5441.00,1.38
5440.00,1.38
5439.00,1.38
5438.00,1.38
5437.00,1.38
5436.00,1.38
5435.00,1.38
5434.00,1.39
5433.00,1.39
5432.00,1.39
5431.00,1.39
5430.00,1.39
5429.00,1.39
5428.00,1.39
5427.00,1.39
5426.00,1.39
5425.00,1.39
5424.00,1.39
5423.00,1.40
5422.00,1.40
5421.00,1.40
5420.00,1.40
5419.00,1.40
5418.00,1.40
5417.00,1.40
5416.00,1.40
5415.00,1.40
5414.00,1.40
5413.00,1.40
5412.00,1.40
5411.00,1.41
5410.00,1.41
5409.00,1.41
5408.00,1.41
5407.00,1.41
5406.00,1.41
5405.00,1.41
5404.00,1.41
5403.00,1.41
5402.00,1.41
5401.00,1.41
5400.00,1.41
5399.00,1.41
5398.00,1.41
5397.00,1.41
5396.00,1.41
5395.00,1.41
5394.00,1.41
5393.00,1.41
5392.00,1.41
5391.00,1.40
5390.00,1.40
5389.00,1.40
5388.00,1.40
5387.00,1.39
5386.00,1.39
5385.00,1.39
5384.00,1.39
5383.00,1.38
5382.00,1.38
5381.00,1.37
5380.00,1.37
5379.00,1.37
5378.00,1.36
5377.00,1.36
5376.00,1.35
5375.00,1.35
5374.00,1.34
5373.00,1.34
5372.00,1.34
5371.00,1.33
5370.00,1.33
5369.00,1.32
5368.00,1.32
5367.00,1.31
5366.00,1.31
5365.00,1.30
5364.00,1.30
5363.00,1.29
5362.00,1.29
5361.00,1.28
5360.00,1.28
5359.00,1.27
5358.00,1.26
5357.00,1.26
5356.00,1.25
5355.00,1.24
5354.00,1.24
5353.00,1.23
5352.00,1.22
5351.00,1.22
5350.00,1.21
5349.00,1.20
5348.00,1.19
5347.00,1.19
5346.00,1.18
5345.00,1.17
5344.00,1.16
5343.00,1.15
5342.00,1.14
5341.00,1.13
5340.00,1.13
5339.00,1.12
5338.00,1.11
5337.00,1.10
5336.00,1.09
5335.00,1.08
5334.00,1.07
5333.00,1.07
5332.00,1.06
5331.00,1.05
5330.00,1.04
5329.00,1.03
5328.00,1.02
5327.00,1.01
5326.00,1.00
5325.00,1.00
5324.00,0.99
5323.00,0.98
5322.00,0.97
5321.00,0.96
5320.00,0.95
5319.00,0.95
5318.00,0.94
5317.00,0.93
5316.00,0.92
5315.00,0.91
5314.00,0.91
5313.00,0.90
5312.00,0.89
5311.00,0.88
5310.00,0.88
5309.00,0.87
5308.00,0.86
5307.00,0.86
5306.00,0.85
5305.00,0.84
5304.00,0.84
5303.00,0.83
5302.00,0.83
5301.00,0.82
5300.00,0.82
5299.00,0.81
5298.00,0.81
5297.00,0.80
5296.00,0.80
5295.00,0.79
5294.00,0.79
5293.00,0.78
5292.00,0.78
5291.00,0.77
5290.00,0.77
5289.00,0.77
5288.00,0.76
5287.00,0.76
5286.00,0.75
5285.00,0.75
5284.00,0.74
5283.00,0.74
5282.00,0.73
5281.00,0.73
5280.00,0.73
5279.00,0.72
5278.00,0.72
5277.00,0.71
5276.00,0.71
5275.00,0.70
5274.00,0.70
5273.00,0.69
5272.00,0.69
5271.00,0.68
5270.00,0.68
5269.00,0.68
5268.00,0.67
5267.00,0.67
5266.00,0.67
5265.00,0.66
5264.00,0.66
5263.00,0.66
5262.00,0.66
5261.00,0.65
5260.00,0.65
5259.00,0.65
5258.00,0.65
5257.00,0.65
5256.00,0.65
5255.00,0.65
5254.00,0.65
5253.00,0.65
5252.00,0.65
5251.00,0.64
5250.00,0.64
5249.00,0.64
5248.00,0.64
5247.00,0.64
5246.00,0.64
5245.00,0.64
5244.00,0.64
5243.00,0.64
5242.00,0.64
5241.00,0.64
5240.00,0.64
5239.00,0.64
5238.00,0.64
5237.00,0.64
5236.00,0.64
5235.00,0.64
5234.00,0.64
5233.00,0.65
5232.00,0.65
5231.00,0.65
5230.00,0.65
5229.00,0.65
5228.00,0.65
5227.00,0.65
5226.00,0.65
5225.00,0.65
5224.00,0.65
5223.00,0.65
5222.00,0.65
5221.00,0.65
5220.00,0.65
5219.00,0.65
5218.00,0.65
5217.00,0.65
5216.00,0.65
5215.00,0.65
5214.00,0.65
5213.00,0.65
5212.00,0.65
5211.00,0.65
5210.00,0.65
5209.00,0.65
5208.00,0.66
5207.00,0.66
5206.00,0.66
5205.00,0.66
5204.00,0.66
5203.00,0.66
5202.00,0.66
5201.00,0.66
5200.00,0.66
5199.00,0.66
5198.00,0.66
5197.00,0.66
5196.00,0.66
5195.00,0.67
5194.00,0.67
5193.00,0.67
5192.00,0.67
5191.00,0.67
5190.00,0.67
5189.00,0.67
5188.00,0.67
5187.00,0.67
5186.00,0.67
5185.00,0.67
5184.00,0.67
5183.00,0.67
5182.00,0.67
5181.00,0.67
5180.00,0.67
5179.00,0.67
5178.00,0.67
5177.00,0.67
5176.00,0.67
5175.00,0.67
5174.00,0.67
5173.00,0.67
5172.00,0.67
5171.00,0.67
5170.00,0.67
5169.00,0.67
5168.00,0.67
5167.00,0.67
5166.00,0.67
5165.00,0.67
5164.00,0.66
5163.00,0.66
5162.00,0.66
5161.00,0.66
5160.00,0.66
5159.00,0.66
5158.00,0.66
5157.00,0.66
5156.00,0.66
5155.00,0.66
5154.00,0.66
5153.00,0.66
5152.00,0.66
5151.00,0.66
5150.00,0.66
5149.00,0.66
5148.00,0.66
5147.00,0.66
5146.00,0.66
5145.00,0.66
5144.00,0.66
5143.00,0.66
5142.00,0.66
5141.00,0.66
5140.00,0.66
5139.00,0.66
5138.00,0.66
5137.00,0.66
5136.00,0.66
5135.00,0.67
5134.00,0.67
5133.00,0.67
5132.00,0.67
5131.00,0.67
5130.00,0.67
5129.00,0.67
5128.00,0.67
5127.00,0.67
5126.00,0.67
5125.00,0.67
5124.00,0.67
5123.00,0.67
5122.00,0.67
5121.00,0.67
5120.00,0.67
5119.00,0.67
5118.00,0.67
5117.00,0.67
5116.00,0.67
5115.00,0.67
5114.00,0.67
5113.00,0.68
5112.00,0.68
5111.00,0.68
5110.00,0.68
5109.00,0.68
5108.00,0.68
5107.00,0.68
5106.00,0.68
5105.00,0.68
5104.00,0.68
5103.00,0.68
5102.00,0.68
5101.00,0.68
5100.00,0.68
5099.00,0.69
5098.00,0.69
5097.00,0.69
5096.00,0.69
5095.00,0.69
5094.00,0.69
5093.00,0.70
5092.00,0.70
5091.00,0.70
5090.00,0.70
5089.00,0.71
5088.00,0.71
5087.00,0.71
5086.00,0.71
5085.00,0.71
5084.00,0.72
5083.00,0.72
5082.00,0.72
5081.00,0.72
5080.00,0.73
5079.00,0.73
5078.00,0.73
5077.00,0.73
5076.00,0.73
5075.00,0.73
5074.00,0.74
5073.00,0.74
5072.00,0.74
5071.00,0.74
5070.00,0.74
5069.00,0.75
5068.00,0.75
5067.00,0.75
5066.00,0.75
5065.00,0.75
5064.00,0.75
5063.00,0.75
5062.00,0.75
5061.00,0.75
5060.00,0.75
5059.00,0.75
5058.00,0.75
5057.00,0.75
5056.00,0.75
5055.00,0.75
5054.00,0.75
5053.00,0.75
5052.00,0.75
5051.00,0.75
5050.00,0.75
5049.00,0.74
5048.00,0.74
5047.00,0.74
5046.00,0.74
5045.00,0.74
5044.00,0.74
5043.00,0.74
5042.00,0.74
5041.00,0.74
5040.00,0.74
5039.00,0.74
5038.00,0.74
5037.00,0.74
5036.00,0.74
5035.00,0.74
5034.00,0.74
5033.00,0.74
5032.00,0.74
5031.00,0.74
5030.00,0.74
5029.00,0.74
5028.00,0.75
5027.00,0.75
5026.00,0.75
5025.00,0.75
5024.00,0.75
5023.00,0.75
5022.00,0.75
5021.00,0.76
5020.00,0.76
5019.00,0.76
5018.00,0.76
5017.00,0.77
5016.00,0.77
5015.00,0.77
5014.00,0.78
5013.00,0.78
5012.00,0.78
5011.00,0.79
5010.00,0.79
5009.00,0.79
5008.00,0.79
5007.00,0.80
5006.00,0.80
5005.00,0.80
5004.00,0.80
5003.00,0.80
5002.00,0.81
5001.00,0.81
5000.00,0.81
4999.00,0.81
4998.00,0.81
4997.00,0.82
4996.00,0.82
4995.00,0.82
4994.00,0.82
4993.00,0.83
4992.00,0.83
4991.00,0.83
4990.00,0.83
4989.00,0.83
4988.00,0.83
4987.00,0.83
4986.00,0.83
4985.00,0.83
4984.00,0.83
4983.00,0.83
4982.00,0.83
4981.00,0.83
4980.00,0.83
4979.00,0.83
4978.00,0.84
4977.00,0.84
4976.00,0.84
4975.00,0.84
4974.00,0.84
4973.00,0.84
4972.00,0.84
4971.00,0.84
4970.00,0.84
4969.00,0.84
4968.00,0.84
4967.00,0.85
4966.00,0.85
4965.00,0.85
4964.00,0.85
4963.00,0.85
4962.00,0.85
4961.00,0.85
4960.00,0.86
4959.00,0.86
4958.00,0.86
4957.00,0.86
4956.00,0.86
4955.00,0.87
4954.00,0.87
4953.00,0.87
4952.00,0.87
4951.00,0.87
4950.00,0.87
4949.00,0.87
4948.00,0.87
4947.00,0.87
4946.00,0.87
4945.00,0.88
4944.00,0.88
4943.00,0.88
4942.00,0.88
4941.00,0.88
4940.00,0.88
4939.00,0.88
4938.00,0.88
4937.00,0.88
4936.00,0.88
4935.00,0.88
4934.00,0.88
4933.00,0.88
4932.00,0.88
4931.00,0.88
4930.00,0.88
4929.00,0.88
4928.00,0.88
4927.00,0.88
4926.00,0.88
4925.00,0.88
4924.00,0.88
4923.00,0.89
4922.00,0.89
4921.00,0.89
4920.00,0.89
4919.00,0.89
4918.00,0.89
4917.00,0.89
4916.00,0.89
4915.00,0.89
4914.00,0.89
4913.00,0.89
4912.00,0.89
4911.00,0.90
4910.00,0.90
4909.00,0.90
4908.00,0.90
4907.00,0.90
4906.00,0.90
4905.00,0.90
4904.00,0.90
4903.00,0.91
4902.00,0.91
4901.00,0.91
4900.00,0.91
4899.00,0.91
4898.00,0.91
4897.00,0.91
4896.00,0.91
4895.00,0.91
4894.00,0.91
4893.00,0.92
4892.00,0.92
4891.00,0.92
4890.00,0.92
4889.00,0.92
4888.00,0.92
4887.00,0.92
4886.00,0.92
4885.00,0.93
4884.00,0.93
4883.00,0.93
4882.00,0.93
4881.00,0.93
4880.00,0.93
4879.00,0.93
4878.00,0.93
4877.00,0.93
4876.00,0.93
4875.00,0.93
4874.00,0.93
4873.00,0.93
4872.00,0.93
4871.00,0.93
4870.00,0.93
4869.00,0.93
4868.00,0.93
4867.00,0.93
4866.00,0.93
4865.00,0.93
4864.00,0.92
4863.00,0.92
4862.00,0.92
4861.00,0.92
4860.00,0.92
4859.00,0.92
4858.00,0.92
4857.00,0.92
4856.00,0.91
4855.00,0.91
4854.00,0.91
4853.00,0.91
4852.00,0.91
4851.00,0.91
4850.00,0.91
4849.00,0.91
4848.00,0.92
4847.00,0.92
4846.00,0.92
4845.00,0.92
4844.00,0.92
4843.00,0.92
4842.00,0.93
4841.00,0.93
4840.00,0.93
4839.00,0.93
4838.00,0.93
4837.00,0.94
4836.00,0.94
4835.00,0.94
4834.00,0.95
4833.00,0.95
4832.00,0.95
4831.00,0.96
4830.00,0.96
4829.00,0.97
4828.00,0.97
4827.00,0.97
4826.00,0.98
4825.00,0.98
4824.00,0.98
4823.00,0.98
4822.00,0.98
4821.00,0.99
4820.00,0.99
4819.00,0.99
4818.00,0.99
4817.00,1.00
4816.00,1.00
4815.00,1.00
4814.00,1.00
4813.00,1.01
4812.00,1.01
4811.00,1.01
4810.00,1.01
4809.00,1.01
4808.00,1.01
4807.00,1.01
4806.00,1.01
4805.00,1.01
4804.00,1.01
4803.00,1.01
4802.00,1.01
4801.00,1.02
4800.00,1.02
4799.00,1.02
4798.00,1.02
4797.00,1.02
4796.00,1.02
4795.00,1.02
4794.00,1.02
4793.00,1.02
4792.00,1.02
4791.00,1.02
4790.00,1.02
4789.00,1.02
4788.00,1.02
4787.00,1.02
4786.00,1.02
4785.00,1.03
4784.00,1.03
4783.00,1.03
4782.00,1.03
4781.00,1.03
4780.00,1.03
4779.00,1.03
4778.00,1.04
4777.00,1.04
4776.00,1.04
4775.00,1.04
4774.00,1.04
4773.00,1.05
4772.00,1.05
4771.00,1.05
4770.00,1.05
4769.00,1.06
4768.00,1.06
4767.00,1.06
4766.00,1.07
4765.00,1.07
4764.00,1.07
4763.00,1.08
4762.00,1.08
4761.00,1.08
4760.00,1.08
4759.00,1.09
4758.00,1.09
4757.00,1.09
4756.00,1.09
4755.00,1.10
4754.00,1.10
4753.00,1.10
4752.00,1.10
4751.00,1.11
4750.00,1.11
4749.00,1.11
4748.00,1.11
4747.00,1.11
4746.00,1.12
4745.00,1.12
4744.00,1.12
4743.00,1.12
4742.00,1.12
4741.00,1.12
4740.00,1.12
4739.00,1.13
4738.00,1.13
4737.00,1.13
4736.00,1.13
4735.00,1.13
4734.00,1.13
4733.00,1.13
4732.00,1.13
4731.00,1.13
4730.00,1.13
4729.00,1.14
4728.00,1.14
4727.00,1.14
4726.00,1.14
4725.00,1.14
4724.00,1.14
4723.00,1.14
4722.00,1.14
4721.00,1.14
4720.00,1.14
4719.00,1.14
4718.00,1.14
4717.00,1.14
4716.00,1.14
4715.00,1.14
4714.00,1.14
4713.00,1.14
4712.00,1.15
4711.00,1.15
4710.00,1.15
4709.00,1.15
4708.00,1.16
4707.00,1.16
4706.00,1.16
4705.00,1.17
4704.00,1.17
4703.00,1.17
4702.00,1.18
4701.00,1.18
4700.00,1.18
4699.00,1.19
4698.00,1.19
4697.00,1.20
4696.00,1.20
4695.00,1.21
4694.00,1.21
4693.00,1.22
4692.00,1.22
4691.00,1.22
4690.00,1.23
4689.00,1.23
4688.00,1.24
4687.00,1.24
4686.00,1.24
4685.00,1.24
4684.00,1.25
4683.00,1.25
4682.00,1.25
4681.00,1.25
4680.00,1.25
4679.00,1.26
4678.00,1.26
4677.00,1.26
4676.00,1.26
4675.00,1.26
4674.00,1.26
4673.00,1.26
4672.00,1.27
4671.00,1.27
4670.00,1.27
4669.00,1.27
4668.00,1.27
4667.00,1.27
4666.00,1.27
4665.00,1.27
4664.00,1.27
4663.00,1.27
4662.00,1.27
4661.00,1.27
4660.00,1.28
4659.00,1.28
4658.00,1.28
4657.00,1.28
4656.00,1.28
4655.00,1.28
4654.00,1.29
4653.00,1.29
4652.00,1.29
4651.00,1.29
4650.00,1.29
4649.00,1.29
4648.00,1.29
4647.00,1.29
4646.00,1.30
4645.00,1.30
4644.00,1.30
4643.00,1.30
4642.00,1.30
4641.00,1.31
4640.00,1.31
4639.00,1.31
4638.00,1.31
4637.00,1.31
4636.00,1.32
4635.00,1.32
4634.00,1.32
4633.00,1.32
4632.00,1.32
4631.00,1.32
4630.00,1.32
4629.00,1.32
4628.00,1.32
4627.00,1.32
4626.00,1.32
4625.00,1.32
4624.00,1.32
4623.00,1.32
4622.00,1.32
4621.00,1.32
4620.00,1.32
4619.00,1.32
4618.00,1.32
4617.00,1.32
4616.00,1.32
4615.00,1.32
4614.00,1.32
4613.00,1.32
4612.00,1.32
4611.00,1.32
4610.00,1.32
4609.00,1.32
4608.00,1.32
4607.00,1.32
4606.00,1.32
4605.00,1.32
4604.00,1.32
4603.00,1.33
4602.00,1.33
4601.00,1.33
4600.00,1.34
4599.00,1.34
4598.00,1.34
4597.00,1.34
4596.00,1.34
4595.00,1.34
4594.00,1.35
4593.00,1.35
4592.00,1.35
4591.00,1.35
4590.00,1.35
4589.00,1.35
4588.00,1.36
4587.00,1.36
4586.00,1.36
4585.00,1.36
4584.00,1.36
4583.00,1.36
4582.00,1.36
4581.00,1.36
4580.00,1.36
4579.00,1.36
4578.00,1.36
4577.00,1.36
4576.00,1.36
4575.00,1.35
4574.00,1.35
4573.00,1.35
4572.00,1.35
4571.00,1.35
4570.00,1.35
4569.00,1.35
4568.00,1.35
4567.00,1.35
4566.00,1.35
4565.00,1.35
4564.00,1.35
4563.00,1.35
4562.00,1.35
4561.00,1.35
4560.00,1.35
4559.00,1.35
4558.00,1.36
4557.00,1.36
4556.00,1.36
4555.00,1.36
4554.00,1.36
4553.00,1.36
4552.00,1.37
4551.00,1.37
4550.00,1.37
4549.00,1.37
4548.00,1.37
4547.00,1.37
4546.00,1.37
4545.00,1.38
4544.00,1.38
4543.00,1.38
4542.00,1.38
4541.00,1.38
4540.00,1.38
4539.00,1.38
4538.00,1.38
4537.00,1.38
4536.00,1.38
4535.00,1.38
4534.00,1.38
4533.00,1.38
4532.00,1.38
4531.00,1.38
4530.00,1.38
4529.00,1.38
4528.00,1.38
4527.00,1.38
4526.00,1.38
4525.00,1.38
4524.00,1.38
4523.00,1.38
4522.00,1.38
4521.00,1.38
4520.00,1.38
4519.00,1.38
4518.00,1.38
4517.00,1.38
4516.00,1.38
4515.00,1.38
4514.00,1.38
4513.00,1.38
4512.00,1.38
4511.00,1.38
4510.00,1.38
4509.00,1.38
4508.00,1.38
4507.00,1.38
4506.00,1.38
4505.00,1.38
4504.00,1.38
4503.00,1.38
4502.00,1.38
4501.00,1.38
4500.00,1.38
4499.00,1.38
4498.00,1.38
4497.00,1.38
4496.00,1.38
4495.00,1.38
4494.00,1.38
4493.00,1.38
4492.00,1.38
4491.00,1.38
4490.00,1.38
4489.00,1.38
4488.00,1.38
4487.00,1.37
4486.00,1.37
4485.00,1.37
4484.00,1.37
4483.00,1.37
4482.00,1.37
4481.00,1.37
4480.00,1.37
4479.00,1.36
4478.00,1.36
4477.00,1.36
4476.00,1.36
4475.00,1.36
4474.00,1.35
4473.00,1.35
4472.00,1.35
4471.00,1.35
4470.00,1.34
4469.00,1.34
4468.00,1.34
4467.00,1.33
4466.00,1.33
4465.00,1.33
4464.00,1.33
4463.00,1.32
4462.00,1.32
4461.00,1.32
4460.00,1.31
4459.00,1.31
4458.00,1.31
4457.00,1.30
4456.00,1.30
4455.00,1.29
4454.00,1.29
4453.00,1.28
4452.00,1.28
4451.00,1.27
4450.00,1.27
4449.00,1.26
4448.00,1.25
4447.00,1.25
4446.00,1.24
4445.00,1.23
4444.00,1.23
4443.00,1.22
4442.00,1.21
4441.00,1.20
4440.00,1.20
4439.00,1.19
4438.00,1.18
4437.00,1.18
4436.00,1.17
4435.00,1.16
4434.00,1.16
4433.00,1.15
4432.00,1.14
4431.00,1.14
4430.00,1.13
4429.00,1.12
4428.00,1.12
4427.00,1.11
4426.00,1.11
4425.00,1.11
4424.00,1.10
4423.00,1.10
4422.00,1.10
4421.00,1.10
4420.00,1.10
4419.00,1.10
4418.00,1.10
4417.00,1.10
4416.00,1.10
4415.00,1.10
4414.00,1.10
4413.00,1.10
4412.00,1.10
4411.00,1.10
4410.00,1.10
4409.00,1.10
4408.00,1.10
4407.00,1.10
4406.00,1.11
4405.00,1.11
4404.00,1.11
4403.00,1.11
4402.00,1.11
4401.00,1.11
4400.00,1.11
4399.00,1.11
4398.00,1.11
4397.00,1.11
4396.00,1.11
4395.00,1.11
4394.00,1.11
4393.00,1.11
4392.00,1.11
4391.00,1.11
4390.00,1.11
4389.00,1.11
4388.00,1.11
4387.00,1.11
4386.00,1.11
4385.00,1.11
4384.00,1.11
4383.00,1.11
4382.00,1.12
4381.00,1.12
4380.00,1.12
4379.00,1.12
4378.00,1.12
4377.00,1.12
4376.00,1.12
4375.00,1.13
4374.00,1.13
4373.00,1.13
4372.00,1.13
4371.00,1.13
4370.00,1.13
4369.00,1.14
4368.00,1.14
4367.00,1.14
4366.00,1.14
4365.00,1.14
4364.00,1.14
4363.00,1.14
4362.00,1.14
4361.00,1.14
4360.00,1.14
4359.00,1.14
4358.00,1.14
4357.00,1.14
4356.00,1.13
4355.00,1.13
4354.00,1.13
4353.00,1.13
4352.00,1.12
4351.00,1.12
4350.00,1.12
4349.00,1.12
4348.00,1.11
4347.00,1.11
4346.00,1.11
4345.00,1.11
4344.00,1.11
4343.00,1.10
4342.00,1.10
4341.00,1.10
4340.00,1.10
4339.00,1.10
4338.00,1.10
4337.00,1.09
4336.00,1.09
4335.00,1.09
4334.00,1.10
4333.00,1.10
4332.00,1.10
4331.00,1.10
4330.00,1.11
4329.00,1.11
4328.00,1.11
4327.00,1.12
4326.00,1.12
4325.00,1.13
4324.00,1.13
4323.00,1.13
4322.00,1.14
4321.00,1.15
4320.00,1.15
4319.00,1.16
4318.00,1.16
4317.00,1.17
4316.00,1.17
4315.00,1.18
4314.00,1.19
4313.00,1.19
4312.00,1.20
4311.00,1.21
4310.00,1.22
4309.00,1.22
4308.00,1.23
4307.00,1.24
4306.00,1.24
4305.00,1.25
4304.00,1.26
4303.00,1.26
4302.00,1.27
4301.00,1.28
4300.00,1.28
4299.00,1.29
4298.00,1.29
4297.00,1.30
4296.00,1.30
4295.00,1.30
4294.00,1.31
4293.00,1.31
4292.00,1.31
4291.00,1.31
4290.00,1.32
4289.00,1.32
4288.00,1.32
4287.00,1.32
4286.00,1.32
4285.00,1.32
4284.00,1.32
4283.00,1.32
4282.00,1.31
4281.00,1.31
4280.00,1.31
4279.00,1.31
4278.00,1.30
4277.00,1.30
4276.00,1.30
4275.00,1.29
4274.00,1.29
4273.00,1.29
4272.00,1.28
4271.00,1.28
4270.00,1.27
4269.00,1.27
4268.00,1.26
4267.00,1.26
4266.00,1.26
4265.00,1.25
4264.00,1.25
4263.00,1.25
4262.00,1.25
4261.00,1.24
4260.00,1.24
4259.00,1.24
4258.00,1.24
4257.00,1.24
4256.00,1.23
4255.00,1.23
4254.00,1.23
4253.00,1.23
4252.00,1.23
4251.00,1.23
4250.00,1.22
4249.00,1.22
4248.00,1.22
4247.00,1.23
4246.00,1.23
4245.00,1.23
4244.00,1.23
4243.00,1.23
4242.00,1.24
4241.00,1.24
4240.00,1.24
4239.00,1.24
4238.00,1.24
4237.00,1.25
4236.00,1.25
4235.00,1.25
4234.00,1.25
4233.00,1.26
4232.00,1.26
4231.00,1.26
4230.00,1.27
4229.00,1.27
4228.00,1.27
4227.00,1.28
4226.00,1.28
4225.00,1.28
4224.00,1.29
4223.00,1.29
4222.00,1.29
4221.00,1.29
4220.00,1.29
4219.00,1.29
4218.00,1.29
4217.00,1.29
4216.00,1.29
4215.00,1.29
4214.00,1.29
4213.00,1.29
4212.00,1.29
4211.00,1.29
4210.00,1.29
4209.00,1.29
4208.00,1.28
4207.00,1.28
4206.00,1.28
4205.00,1.27
4204.00,1.27
4203.00,1.26
4202.00,1.26
4201.00,1.26
4200.00,1.25
4199.00,1.25
4198.00,1.25
4197.00,1.24
4196.00,1.24
4195.00,1.24
4194.00,1.24
4193.00,1.23
4192.00,1.23
4191.00,1.23
4190.00,1.23
4189.00,1.23
4188.00,1.23
4187.00,1.23
4186.00,1.23
4185.00,1.23
4184.00,1.23
4183.00,1.23
4182.00,1.24
4181.00,1.24
4180.00,1.24
4179.00,1.24
4178.00,1.25
4177.00,1.25
4176.00,1.26
4175.00,1.26
4174.00,1.26
4173.00,1.27
4172.00,1.27
4171.00,1.27
4170.00,1.28
4169.00,1.28
4168.00,1.28
4167.00,1.29
4166.00,1.30
4165.00,1.30
4164.00,1.31
4163.00,1.31
4162.00,1.32
4161.00,1.32
4160.00,1.32
4159.00,1.33
4158.00,1.33
4157.00,1.34
4156.00,1.34
4155.00,1.34
4154.00,1.35
4153.00,1.35
4152.00,1.35
4151.00,1.35
4150.00,1.36
4149.00,1.36
4148.00,1.36
4147.00,1.36
4146.00,1.37
4145.00,1.37
4144.00,1.37
4143.00,1.37
4142.00,1.38
4141.00,1.38
4140.00,1.38
4139.00,1.38
4138.00,1.38
4137.00,1.37
4136.00,1.37
4135.00,1.37
4134.00,1.37
4133.00,1.37
4132.00,1.36
4131.00,1.36
4130.00,1.35
4129.00,1.35
4128.00,1.34
4127.00,1.34
4126.00,1.33
4125.00,1.33
4124.00,1.32
4123.00,1.32
4122.00,1.31
4121.00,1.31
4120.00,1.30
4119.00,1.29
4118.00,1.28
4117.00,1.28
4116.00,1.27
4115.00,1.26
4114.00,1.25
4113.00,1.24
4112.00,1.23
4111.00,1.23
4110.00,1.22
4109.00,1.21
4108.00,1.21
4107.00,1.20
4106.00,1.20
4105.00,1.20
4104.00,1.19
4103.00,1.19
4102.00,1.19
4101.00,1.19
4100.00,1.19
4099.00,1.19
4098.00,1.19
4097.00,1.19
4096.00,1.19
4095.00,1.19
4094.00,1.19
4093.00,1.19
4092.00,1.20
4091.00,1.20
4090.00,1.21
4089.00,1.21
4088.00,1.22
4087.00,1.22
4086.00,1.23
4085.00,1.24
4084.00,1.24
4083.00,1.25
4082.00,1.26
4081.00,1.27
4080.00,1.27
4079.00,1.28
4078.00,1.29
4077.00,1.29
4076.00,1.30
4075.00,1.31
4074.00,1.31
4073.00,1.32
4072.00,1.32
4071.00,1.32
4070.00,1.33
4069.00,1.33
4068.00,1.33
4067.00,1.34
4066.00,1.34
4065.00,1.34
4064.00,1.34
4063.00,1.35
4062.00,1.35
4061.00,1.35
4060.00,1.35
4059.00,1.35
4058.00,1.35
4057.00,1.35
4056.00,1.35
4055.00,1.35
4054.00,1.35
4053.00,1.35
4052.00,1.35
4051.00,1.35
4050.00,1.34
4049.00,1.34
4048.00,1.34
4047.00,1.34
4046.00,1.34
4045.00,1.34
4044.00,1.34
4043.00,1.35
4042.00,1.35
4041.00,1.35
4040.00,1.35
4039.00,1.35
4038.00,1.35
4037.00,1.35
4036.00,1.35
4035.00,1.35
4034.00,1.35
4033.00,1.36
4032.00,1.36
4031.00,1.36
4030.00,1.36
4029.00,1.36
4028.00,1.36
4027.00,1.36
4026.00,1.37
4025.00,1.37
4024.00,1.38
4023.00,1.38
4022.00,1.39
4021.00,1.40
4020.00,1.41
4019.00,1.42
4018.00,1.42
4017.00,1.43
4016.00,1.44
4015.00,1.45
4014.00,1.47
4013.00,1.48
4012.00,1.49
4011.00,1.50
4010.00,1.52
4009.00,1.53
4008.00,1.55
4007.00,1.56
4006.00,1.58
4005.00,1.60
4004.00,1.61
4003.00,1.63
4002.00,1.65
4001.00,1.68
4000.00,1.70
