创建为新数据集,样品 058 用户 Administrator 日期 星期五, 七月 26 2019
cm-1,%T
10000.00,1.89
9999.00,1.89
9998.00,1.89
9997.00,1.89
9996.00,1.88
9995.00,1.88
9994.00,1.87
9993.00,1.87
9992.00,1.86
9991.00,1.86
9990.00,1.85
9989.00,1.85
9988.00,1.84
9987.00,1.84
9986.00,1.83
9985.00,1.83
9984.00,1.83
9983.00,1.83
9982.00,1.83
9981.00,1.83
9980.00,1.83
9979.00,1.83
9978.00,1.83
9977.00,1.83
9976.00,1.83
9975.00,1.83
9974.00,1.82
9973.00,1.82
9972.00,1.82
9971.00,1.81
9970.00,1.81
9969.00,1.81
9968.00,1.81
9967.00,1.81
9966.00,1.81
9965.00,1.81
9964.00,1.82
9963.00,1.82
9962.00,1.83
9961.00,1.83
9960.00,1.84
9959.00,1.84
9958.00,1.85
9957.00,1.85
9956.00,1.85
9955.00,1.85
9954.00,1.86
9953.00,1.86
9952.00,1.86
9951.00,1.86
9950.00,1.87
9949.00,1.87
9948.00,1.87
9947.00,1.88
9946.00,1.88
9945.00,1.89
9944.00,1.89
9943.00,1.90
9942.00,1.90
9941.00,1.90
9940.00,1.90
9939.00,1.90
9938.00,1.90
9937.00,1.90
9936.00,1.89
9935.00,1.89
9934.00,1.88
9933.00,1.88
9932.00,1.87
9931.00,1.87
9930.00,1.86
9929.00,1.86
9928.00,1.85
9927.00,1.84
9926.00,1.83
9925.00,1.83
9924.00,1.82
9923.00,1.81
9922.00,1.80
9921.00,1.79
9920.00,1.78
9919.00,1.77
9918.00,1.75
9917.00,1.74
9916.00,1.73
9915.00,1.71
9914.00,1.70
9913.00,1.69
9912.00,1.67
9911.00,1.66
9910.00,1.65
9909.00,1.63
9908.00,1.62
9907.00,1.60
9906.00,1.59
9905.00,1.58
9904.00,1.56
9903.00,1.55
9902.00,1.54
9901.00,1.53
9900.00,1.52
9899.00,1.51
9898.00,1.50
9897.00,1.50
9896.00,1.49
9895.00,1.49
9894.00,1.49
9893.00,1.49
9892.00,1.48
9891.00,1.49
9890.00,1.49
9889.00,1.49
9888.00,1.49
9887.00,1.50
9886.00,1.51
9885.00,1.51
9884.00,1.52
9883.00,1.53
9882.00,1.54
9881.00,1.55
9880.00,1.56
9879.00,1.57
9878.00,1.58
9877.00,1.59
9876.00,1.60
9875.00,1.61
9874.00,1.62
9873.00,1.63
9872.00,1.64
9871.00,1.65
9870.00,1.65
9869.00,1.66
9868.00,1.66
9867.00,1.67
9866.00,1.67
9865.00,1.68
9864.00,1.68
9863.00,1.68
9862.00,1.68
9861.00,1.69
9860.00,1.69
9859.00,1.69
9858.00,1.69
9857.00,1.68
9856.00,1.68
9855.00,1.68
9854.00,1.68
9853.00,1.68
9852.00,1.68
9851.00,1.68
9850.00,1.68
9849.00,1.68
9848.00,1.68
9847.00,1.68
9846.00,1.68
9845.00,1.68
9844.00,1.69
9843.00,1.69
9842.00,1.69
9841.00,1.70
9840.00,1.70
9839.00,1.70
9838.00,1.71
9837.00,1.71
9836.00,1.72
9835.00,1.72
9834.00,1.73
9833.00,1.73
9832.00,1.74
9831.00,1.74
9830.00,1.75
9829.00,1.75
9828.00,1.75
9827.00,1.75
9826.00,1.76
9825.00,1.76
9824.00,1.76
9823.00,1.76
9822.00,1.76
9821.00,1.76
9820.00,1.75
9819.00,1.75
9818.00,1.75
9817.00,1.75
9816.00,1.74
9815.00,1.74
9814.00,1.74
9813.00,1.74
9812.00,1.73
9811.00,1.73
9810.00,1.73
9809.00,1.73
9808.00,1.73
9807.00,1.73
9806.00,1.73
9805.00,1.73
9804.00,1.73
9803.00,1.73
9802.00,1.73
9801.00,1.74
9800.00,1.74
9799.00,1.74
9798.00,1.75
9797.00,1.76
9796.00,1.76
9795.00,1.77
9794.00,1.78
9793.00,1.78
9792.00,1.79
9791.00,1.80
9790.00,1.80
9789.00,1.81
9788.00,1.81
9787.00,1.82
9786.00,1.82
9785.00,1.82
9784.00,1.83
9783.00,1.83
9782.00,1.83
9781.00,1.83
9780.00,1.83
9779.00,1.83
9778.00,1.83
9777.00,1.83
9776.00,1.83
9775.00,1.82
9774.00,1.82
9773.00,1.81
9772.00,1.81
9771.00,1.80
9770.00,1.79
9769.00,1.78
9768.00,1.78
9767.00,1.77
9766.00,1.76
9765.00,1.75
9764.00,1.75
9763.00,1.74
9762.00,1.73
9761.00,1.72
9760.00,1.72
9759.00,1.71
9758.00,1.70
9757.00,1.70
9756.00,1.69
9755.00,1.69
9754.00,1.68
9753.00,1.68
9752.00,1.68
9751.00,1.67
9750.00,1.67
9749.00,1.67
9748.00,1.67
9747.00,1.67
9746.00,1.67
9745.00,1.67
9744.00,1.67
9743.00,1.67
9742.00,1.67
9741.00,1.67
9740.00,1.68
9739.00,1.68
9738.00,1.68
9737.00,1.68
9736.00,1.68
9735.00,1.68
9734.00,1.69
9733.00,1.69
9732.00,1.69
9731.00,1.69
9730.00,1.70
9729.00,1.70
9728.00,1.70
9727.00,1.71
9726.00,1.71
9725.00,1.71
9724.00,1.71
9723.00,1.71
9722.00,1.72
9721.00,1.72
9720.00,1.72
9719.00,1.73
9718.00,1.73
9717.00,1.74
9716.00,1.74
9715.00,1.75
9714.00,1.76
9713.00,1.76
9712.00,1.77
9711.00,1.78
9710.00,1.78
9709.00,1.79
9708.00,1.80
9707.00,1.80
9706.00,1.80
9705.00,1.81
9704.00,1.81
9703.00,1.82
9702.00,1.82
9701.00,1.82
9700.00,1.83
9699.00,1.83
9698.00,1.83
9697.00,1.83
9696.00,1.83
9695.00,1.83
9694.00,1.82
9693.00,1.82
9692.00,1.82
9691.00,1.82
9690.00,1.81
9689.00,1.81
9688.00,1.80
9687.00,1.80
9686.00,1.80
9685.00,1.79
9684.00,1.79
9683.00,1.78
9682.00,1.78
9681.00,1.78
9680.00,1.78
9679.00,1.77
9678.00,1.77
9677.00,1.77
9676.00,1.77
9675.00,1.77
9674.00,1.77
9673.00,1.77
9672.00,1.77
9671.00,1.77
9670.00,1.76
9669.00,1.76
9668.00,1.76
9667.00,1.76
9666.00,1.76
9665.00,1.76
9664.00,1.76
9663.00,1.76
9662.00,1.75
9661.00,1.75
9660.00,1.75
9659.00,1.74
9658.00,1.74
9657.00,1.74
9656.00,1.73
9655.00,1.73
9654.00,1.72
9653.00,1.71
9652.00,1.71
9651.00,1.70
9650.00,1.69
9649.00,1.69
9648.00,1.68
9647.00,1.67
9646.00,1.66
9645.00,1.65
9644.00,1.65
9643.00,1.64
9642.00,1.63
9641.00,1.63
9640.00,1.62
9639.00,1.62
9638.00,1.62
9637.00,1.62
9636.00,1.61
9635.00,1.61
9634.00,1.61
9633.00,1.61
9632.00,1.61
9631.00,1.61
9630.00,1.62
9629.00,1.62
9628.00,1.62
9627.00,1.63
9626.00,1.63
9625.00,1.64
9624.00,1.64
9623.00,1.65
9622.00,1.66
9621.00,1.67
9620.00,1.68
9619.00,1.69
9618.00,1.70
9617.00,1.71
9616.00,1.72
9615.00,1.72
9614.00,1.73
9613.00,1.74
9612.00,1.75
9611.00,1.75
9610.00,1.76
9609.00,1.77
9608.00,1.77
9607.00,1.78
9606.00,1.78
9605.00,1.79
9604.00,1.79
9603.00,1.79
9602.00,1.80
9601.00,1.80
9600.00,1.80
9599.00,1.80
9598.00,1.80
9597.00,1.79
9596.00,1.79
9595.00,1.79
9594.00,1.78
9593.00,1.78
9592.00,1.77
9591.00,1.77
9590.00,1.76
9589.00,1.76
9588.00,1.76
9587.00,1.75
9586.00,1.75
9585.00,1.74
9584.00,1.74
9583.00,1.74
9582.00,1.73
9581.00,1.73
9580.00,1.72
9579.00,1.72
9578.00,1.72
9577.00,1.71
9576.00,1.71
9575.00,1.71
9574.00,1.71
9573.00,1.71
9572.00,1.71
9571.00,1.71
9570.00,1.71
9569.00,1.71
9568.00,1.72
9567.00,1.72
9566.00,1.72
9565.00,1.73
9564.00,1.73
9563.00,1.73
9562.00,1.73
9561.00,1.74
9560.00,1.74
9559.00,1.74
9558.00,1.74
9557.00,1.74
9556.00,1.74
9555.00,1.75
9554.00,1.75
9553.00,1.75
9552.00,1.75
9551.00,1.75
9550.00,1.75
9549.00,1.75
9548.00,1.74
9547.00,1.74
9546.00,1.74
9545.00,1.74
9544.00,1.73
9543.00,1.73
9542.00,1.72
9541.00,1.72
9540.00,1.71
9539.00,1.71
9538.00,1.70
9537.00,1.69
9536.00,1.69
9535.00,1.68
9534.00,1.67
9533.00,1.67
9532.00,1.66
9531.00,1.66
9530.00,1.65
9529.00,1.65
9528.00,1.64
9527.00,1.64
9526.00,1.63
9525.00,1.63
9524.00,1.63
9523.00,1.62
9522.00,1.62
9521.00,1.62
9520.00,1.62
9519.00,1.62
9518.00,1.62
9517.00,1.62
9516.00,1.62
9515.00,1.62
9514.00,1.63
9513.00,1.63
9512.00,1.63
9511.00,1.64
9510.00,1.64
9509.00,1.65
9508.00,1.65
9507.00,1.66
9506.00,1.67
9505.00,1.67
9504.00,1.68
9503.00,1.68
9502.00,1.69
9501.00,1.69
9500.00,1.70
9499.00,1.70
9498.00,1.71
9497.00,1.71
9496.00,1.71
9495.00,1.72
9494.00,1.72
9493.00,1.72
9492.00,1.73
9491.00,1.73
9490.00,1.73
9489.00,1.73
9488.00,1.73
9487.00,1.73
9486.00,1.73
9485.00,1.73
9484.00,1.73
9483.00,1.72
9482.00,1.72
9481.00,1.72
9480.00,1.71
9479.00,1.71
9478.00,1.71
9477.00,1.70
9476.00,1.70
9475.00,1.69
9474.00,1.69
9473.00,1.68
9472.00,1.68
9471.00,1.68
9470.00,1.67
9469.00,1.67
9468.00,1.66
9467.00,1.66
9466.00,1.65
9465.00,1.65
9464.00,1.64
9463.00,1.63
9462.00,1.63
9461.00,1.62
9460.00,1.61
9459.00,1.60
9458.00,1.59
9457.00,1.59
9456.00,1.58
9455.00,1.57
9454.00,1.57
9453.00,1.56
9452.00,1.55
9451.00,1.55
9450.00,1.54
9449.00,1.54
9448.00,1.53
9447.00,1.53
9446.00,1.52
9445.00,1.52
9444.00,1.52
9443.00,1.51
9442.00,1.51
9441.00,1.51
9440.00,1.50
9439.00,1.50
9438.00,1.50
9437.00,1.50
9436.00,1.49
9435.00,1.49
9434.00,1.49
9433.00,1.49
9432.00,1.49
9431.00,1.49
9430.00,1.49
9429.00,1.49
9428.00,1.49
9427.00,1.49
9426.00,1.49
9425.00,1.50
9424.00,1.50
9423.00,1.50
9422.00,1.50
9421.00,1.50
9420.00,1.50
9419.00,1.50
9418.00,1.50
9417.00,1.50
9416.00,1.51
9415.00,1.51
9414.00,1.51
9413.00,1.51
9412.00,1.51
9411.00,1.52
9410.00,1.52
9409.00,1.53
9408.00,1.53
9407.00,1.54
9406.00,1.54
9405.00,1.55
9404.00,1.56
9403.00,1.56
9402.00,1.57
9401.00,1.57
9400.00,1.58
9399.00,1.58
9398.00,1.59
9397.00,1.59
9396.00,1.60
9395.00,1.60
9394.00,1.61
9393.00,1.61
9392.00,1.61
9391.00,1.62
9390.00,1.62
9389.00,1.63
9388.00,1.63
9387.00,1.63
9386.00,1.64
9385.00,1.64
9384.00,1.64
9383.00,1.64
9382.00,1.64
9381.00,1.65
9380.00,1.65
9379.00,1.65
9378.00,1.65
9377.00,1.65
9376.00,1.65
9375.00,1.64
9374.00,1.64
9373.00,1.64
9372.00,1.64
9371.00,1.64
9370.00,1.64
9369.00,1.64
9368.00,1.64
9367.00,1.64
9366.00,1.64
9365.00,1.64
9364.00,1.64
9363.00,1.64
9362.00,1.64
9361.00,1.64
9360.00,1.64
9359.00,1.64
9358.00,1.64
9357.00,1.64
9356.00,1.64
9355.00,1.64
9354.00,1.65
9353.00,1.65
9352.00,1.65
9351.00,1.65
9350.00,1.65
9349.00,1.65
9348.00,1.66
9347.00,1.66
9346.00,1.66
9345.00,1.66
9344.00,1.67
9343.00,1.67
9342.00,1.67
9341.00,1.67
9340.00,1.67
9339.00,1.67
9338.00,1.67
9337.00,1.67
9336.00,1.67
9335.00,1.67
9334.00,1.67
9333.00,1.67
9332.00,1.66
9331.00,1.66
9330.00,1.66
9329.00,1.66
9328.00,1.66
9327.00,1.65
9326.00,1.65
9325.00,1.65
9324.00,1.65
9323.00,1.64
9322.00,1.64
9321.00,1.64
9320.00,1.64
9319.00,1.64
9318.00,1.63
9317.00,1.63
9316.00,1.63
9315.00,1.63
9314.00,1.63
9313.00,1.63
9312.00,1.63
9311.00,1.63
9310.00,1.63
9309.00,1.63
9308.00,1.63
9307.00,1.63
9306.00,1.63
9305.00,1.62
9304.00,1.62
9303.00,1.62
9302.00,1.62
9301.00,1.62
9300.00,1.63
9299.00,1.63
9298.00,1.63
9297.00,1.63
9296.00,1.63
9295.00,1.64
9294.00,1.64
9293.00,1.64
9292.00,1.64
9291.00,1.65
9290.00,1.65
9289.00,1.65
9288.00,1.66
9287.00,1.66
9286.00,1.66
9285.00,1.67
9284.00,1.67
9283.00,1.68
9282.00,1.68
9281.00,1.69
9280.00,1.70
9279.00,1.71
9278.00,1.71
9277.00,1.72
9276.00,1.73
9275.00,1.74
9274.00,1.74
9273.00,1.75
9272.00,1.75
9271.00,1.76
9270.00,1.76
9269.00,1.77
9268.00,1.77
9267.00,1.77
9266.00,1.77
9265.00,1.77
9264.00,1.78
9263.00,1.78
9262.00,1.77
9261.00,1.77
9260.00,1.77
9259.00,1.77
9258.00,1.76
9257.00,1.76
9256.00,1.75
9255.00,1.75
9254.00,1.74
9253.00,1.73
9252.00,1.73
9251.00,1.72
9250.00,1.71
9249.00,1.70
9248.00,1.70
9247.00,1.69
9246.00,1.68
9245.00,1.67
9244.00,1.67
9243.00,1.66
9242.00,1.66
9241.00,1.65
9240.00,1.65
9239.00,1.65
9238.00,1.64
9237.00,1.64
9236.00,1.64
9235.00,1.64
9234.00,1.64
9233.00,1.64
9232.00,1.64
9231.00,1.64
9230.00,1.64
9229.00,1.64
9228.00,1.64
9227.00,1.65
9226.00,1.65
9225.00,1.65
9224.00,1.65
9223.00,1.65
9222.00,1.65
9221.00,1.66
9220.00,1.66
9219.00,1.66
9218.00,1.66
9217.00,1.66
9216.00,1.66
9215.00,1.66
9214.00,1.66
9213.00,1.67
9212.00,1.67
9211.00,1.67
9210.00,1.67
9209.00,1.67
9208.00,1.67
9207.00,1.67
9206.00,1.67
9205.00,1.67
9204.00,1.67
9203.00,1.67
9202.00,1.66
9201.00,1.66
9200.00,1.66
9199.00,1.66
9198.00,1.66
9197.00,1.66
9196.00,1.66
9195.00,1.66
9194.00,1.66
9193.00,1.66
9192.00,1.66
9191.00,1.66
9190.00,1.66
9189.00,1.66
9188.00,1.66
9187.00,1.66
9186.00,1.66
9185.00,1.66
9184.00,1.66
9183.00,1.67
9182.00,1.67
9181.00,1.67
9180.00,1.67
9179.00,1.67
9178.00,1.67
9177.00,1.68
9176.00,1.68
9175.00,1.69
9174.00,1.69
9173.00,1.69
9172.00,1.70
9171.00,1.70
9170.00,1.71
9169.00,1.71
9168.00,1.72
9167.00,1.72
9166.00,1.73
9165.00,1.74
9164.00,1.74
9163.00,1.75
9162.00,1.76
9161.00,1.76
9160.00,1.77
9159.00,1.78
9158.00,1.79
9157.00,1.79
9156.00,1.80
9155.00,1.81
9154.00,1.81
9153.00,1.82
9152.00,1.82
9151.00,1.83
9150.00,1.83
9149.00,1.84
9148.00,1.84
9147.00,1.84
9146.00,1.85
9145.00,1.85
9144.00,1.85
9143.00,1.85
9142.00,1.85
9141.00,1.85
9140.00,1.85
9139.00,1.85
9138.00,1.84
9137.00,1.84
9136.00,1.84
9135.00,1.83
9134.00,1.83
9133.00,1.82
9132.00,1.82
9131.00,1.81
9130.00,1.80
9129.00,1.79
9128.00,1.79
9127.00,1.78
9126.00,1.77
9125.00,1.76
9124.00,1.75
9123.00,1.74
9122.00,1.73
9121.00,1.72
9120.00,1.71
9119.00,1.70
9118.00,1.69
9117.00,1.68
9116.00,1.67
9115.00,1.66
9114.00,1.65
9113.00,1.64
9112.00,1.64
9111.00,1.63
9110.00,1.62
9109.00,1.61
9108.00,1.61
9107.00,1.60
9106.00,1.59
9105.00,1.59
9104.00,1.58
9103.00,1.58
9102.00,1.58
9101.00,1.57
9100.00,1.57
9099.00,1.57
9098.00,1.57
9097.00,1.57
9096.00,1.57
9095.00,1.58
9094.00,1.58
9093.00,1.59
9092.00,1.59
9091.00,1.60
9090.00,1.61
9089.00,1.61
9088.00,1.62
9087.00,1.63
9086.00,1.64
9085.00,1.64
9084.00,1.65
9083.00,1.66
9082.00,1.66
9081.00,1.67
9080.00,1.67
9079.00,1.68
9078.00,1.68
9077.00,1.69
9076.00,1.69
9075.00,1.70
9074.00,1.70
9073.00,1.70
9072.00,1.70
9071.00,1.70
9070.00,1.70
9069.00,1.70
9068.00,1.70
9067.00,1.70
9066.00,1.69
9065.00,1.69
9064.00,1.68
9063.00,1.68
9062.00,1.67
9061.00,1.67
9060.00,1.66
9059.00,1.66
9058.00,1.65
9057.00,1.65
9056.00,1.65
9055.00,1.65
9054.00,1.64
9053.00,1.64
9052.00,1.64
9051.00,1.65
9050.00,1.65
9049.00,1.65
9048.00,1.65
9047.00,1.66
9046.00,1.66
9045.00,1.67
9044.00,1.68
9043.00,1.69
9042.00,1.70
9041.00,1.71
9040.00,1.72
9039.00,1.73
9038.00,1.74
9037.00,1.75
9036.00,1.76
9035.00,1.76
9034.00,1.77
9033.00,1.78
9032.00,1.78
9031.00,1.79
9030.00,1.79
9029.00,1.80
9028.00,1.80
9027.00,1.80
9026.00,1.80
9025.00,1.80
9024.00,1.80
9023.00,1.80
9022.00,1.80
9021.00,1.80
9020.00,1.79
9019.00,1.79
9018.00,1.78
9017.00,1.78
9016.00,1.77
9015.00,1.76
9014.00,1.75
9013.00,1.75
9012.00,1.74
9011.00,1.73
9010.00,1.73
9009.00,1.72
9008.00,1.71
9007.00,1.71
9006.00,1.71
9005.00,1.70
9004.00,1.70
9003.00,1.70
9002.00,1.70
9001.00,1.70
9000.00,1.70
8999.00,1.70
8998.00,1.70
8997.00,1.70
8996.00,1.70
8995.00,1.71
8994.00,1.71
8993.00,1.71
8992.00,1.72
8991.00,1.72
8990.00,1.72
8989.00,1.73
8988.00,1.73
8987.00,1.74
8986.00,1.74
8985.00,1.75
8984.00,1.75
8983.00,1.76
8982.00,1.76
8981.00,1.77
8980.00,1.77
8979.00,1.78
8978.00,1.78
8977.00,1.78
8976.00,1.79
8975.00,1.79
8974.00,1.79
8973.00,1.79
8972.00,1.79
8971.00,1.79
8970.00,1.79
8969.00,1.79
8968.00,1.79
8967.00,1.79
8966.00,1.78
8965.00,1.78
8964.00,1.78
8963.00,1.78
8962.00,1.78
8961.00,1.78
8960.00,1.77
8959.00,1.77
8958.00,1.77
8957.00,1.76
8956.00,1.76
8955.00,1.76
8954.00,1.75
8953.00,1.75
8952.00,1.74
8951.00,1.74
8950.00,1.73
8949.00,1.73
8948.00,1.73
8947.00,1.72
8946.00,1.72
8945.00,1.71
8944.00,1.71
8943.00,1.71
8942.00,1.70
8941.00,1.70
8940.00,1.69
8939.00,1.69
8938.00,1.68
8937.00,1.68
8936.00,1.67
8935.00,1.67
8934.00,1.66
8933.00,1.66
8932.00,1.66
8931.00,1.65
8930.00,1.65
8929.00,1.65
8928.00,1.65
8927.00,1.65
8926.00,1.65
8925.00,1.65
8924.00,1.65
8923.00,1.65
8922.00,1.65
8921.00,1.65
8920.00,1.64
8919.00,1.64
8918.00,1.64
8917.00,1.64
8916.00,1.64
8915.00,1.64
8914.00,1.65
8913.00,1.65
8912.00,1.65
8911.00,1.65
8910.00,1.65
8909.00,1.66
8908.00,1.66
8907.00,1.66
8906.00,1.66
8905.00,1.66
8904.00,1.66
8903.00,1.66
8902.00,1.66
8901.00,1.66
8900.00,1.66
8899.00,1.66
8898.00,1.66
8897.00,1.66
8896.00,1.65
8895.00,1.65
8894.00,1.65
8893.00,1.65
8892.00,1.65
8891.00,1.65
8890.00,1.65
8889.00,1.65
8888.00,1.65
8887.00,1.64
8886.00,1.64
8885.00,1.64
8884.00,1.63
8883.00,1.63
8882.00,1.63
8881.00,1.62
8880.00,1.62
8879.00,1.62
8878.00,1.61
8877.00,1.61
8876.00,1.61
8875.00,1.61
8874.00,1.61
8873.00,1.61
8872.00,1.61
8871.00,1.61
8870.00,1.61
8869.00,1.61
8868.00,1.61
8867.00,1.61
8866.00,1.61
8865.00,1.61
8864.00,1.61
8863.00,1.61
8862.00,1.61
8861.00,1.61
8860.00,1.62
8859.00,1.62
8858.00,1.62
8857.00,1.63
8856.00,1.63
8855.00,1.63
8854.00,1.64
8853.00,1.64
8852.00,1.64
8851.00,1.65
8850.00,1.65
8849.00,1.65
8848.00,1.65
8847.00,1.66
8846.00,1.66
8845.00,1.66
8844.00,1.67
8843.00,1.67
8842.00,1.67
8841.00,1.67
8840.00,1.68
8839.00,1.68
8838.00,1.68
8837.00,1.68
8836.00,1.69
8835.00,1.69
8834.00,1.69
8833.00,1.69
8832.00,1.69
8831.00,1.69
8830.00,1.69
8829.00,1.69
8828.00,1.69
8827.00,1.69
8826.00,1.69
8825.00,1.69
8824.00,1.68
8823.00,1.68
8822.00,1.68
8821.00,1.68
8820.00,1.68
8819.00,1.68
8818.00,1.67
8817.00,1.67
8816.00,1.67
8815.00,1.67
8814.00,1.66
8813.00,1.66
8812.00,1.66
8811.00,1.65
8810.00,1.65
8809.00,1.65
8808.00,1.65
8807.00,1.65
8806.00,1.64
8805.00,1.64
8804.00,1.64
8803.00,1.64
8802.00,1.64
8801.00,1.64
8800.00,1.65
8799.00,1.65
8798.00,1.65
8797.00,1.65
8796.00,1.65
8795.00,1.65
8794.00,1.65
8793.00,1.65
8792.00,1.66
8791.00,1.66
8790.00,1.66
8789.00,1.67
8788.00,1.67
8787.00,1.68
8786.00,1.69
8785.00,1.69
8784.00,1.70
8783.00,1.70
8782.00,1.71
8781.00,1.71
8780.00,1.72
8779.00,1.72
8778.00,1.72
8777.00,1.73
8776.00,1.73
8775.00,1.74
8774.00,1.74
8773.00,1.74
8772.00,1.75
8771.00,1.75
8770.00,1.75
8769.00,1.75
8768.00,1.76
8767.00,1.76
8766.00,1.76
8765.00,1.76
8764.00,1.76
8763.00,1.76
8762.00,1.76
8761.00,1.76
8760.00,1.75
8759.00,1.75
8758.00,1.75
8757.00,1.74
8756.00,1.74
8755.00,1.74
8754.00,1.73
8753.00,1.73
8752.00,1.73
8751.00,1.72
8750.00,1.72
8749.00,1.72
8748.00,1.72
8747.00,1.71
8746.00,1.71
8745.00,1.71
8744.00,1.71
8743.00,1.71
8742.00,1.70
8741.00,1.70
8740.00,1.70
8739.00,1.70
8738.00,1.70
8737.00,1.70
8736.00,1.70
8735.00,1.70
8734.00,1.70
8733.00,1.70
8732.00,1.71
8731.00,1.71
8730.00,1.71
8729.00,1.71
8728.00,1.72
8727.00,1.72
8726.00,1.72
8725.00,1.72
8724.00,1.72
8723.00,1.72
8722.00,1.72
8721.00,1.72
8720.00,1.72
8719.00,1.72
8718.00,1.72
8717.00,1.72
8716.00,1.72
8715.00,1.72
8714.00,1.72
8713.00,1.72
8712.00,1.72
8711.00,1.72
8710.00,1.72
8709.00,1.72
8708.00,1.72
8707.00,1.72
8706.00,1.71
8705.00,1.71
8704.00,1.71
8703.00,1.71
8702.00,1.70
8701.00,1.70
8700.00,1.70
8699.00,1.70
8698.00,1.69
8697.00,1.69
8696.00,1.69
8695.00,1.69
8694.00,1.69
8693.00,1.69
8692.00,1.69
8691.00,1.69
8690.00,1.69
8689.00,1.69
8688.00,1.69
8687.00,1.69
8686.00,1.69
8685.00,1.69
8684.00,1.69
8683.00,1.69
8682.00,1.69
8681.00,1.69
8680.00,1.69
8679.00,1.69
8678.00,1.70
8677.00,1.70
8676.00,1.70
8675.00,1.70
8674.00,1.70
8673.00,1.70
8672.00,1.70
8671.00,1.70
8670.00,1.71
8669.00,1.71
8668.00,1.71
8667.00,1.71
8666.00,1.71
8665.00,1.71
8664.00,1.71
8663.00,1.71
8662.00,1.71
8661.00,1.71
8660.00,1.71
8659.00,1.71
8658.00,1.71
8657.00,1.71
8656.00,1.71
8655.00,1.70
8654.00,1.70
8653.00,1.70
8652.00,1.70
8651.00,1.70
8650.00,1.69
8649.00,1.69
8648.00,1.69
8647.00,1.69
8646.00,1.69
8645.00,1.69
8644.00,1.68
8643.00,1.68
8642.00,1.68
8641.00,1.68
8640.00,1.67
8639.00,1.67
8638.00,1.67
8637.00,1.66
8636.00,1.66
8635.00,1.66
8634.00,1.66
8633.00,1.65
8632.00,1.65
8631.00,1.65
8630.00,1.65
8629.00,1.65
8628.00,1.65
8627.00,1.64
8626.00,1.64
8625.00,1.64
8624.00,1.64
8623.00,1.64
8622.00,1.64
8621.00,1.64
8620.00,1.64
8619.00,1.64
8618.00,1.64
8617.00,1.64
8616.00,1.64
8615.00,1.64
8614.00,1.64
8613.00,1.64
8612.00,1.64
8611.00,1.64
8610.00,1.64
8609.00,1.65
8608.00,1.65
8607.00,1.65
8606.00,1.65
8605.00,1.65
8604.00,1.65
8603.00,1.65
8602.00,1.66
8601.00,1.66
8600.00,1.66
8599.00,1.66
8598.00,1.66
8597.00,1.66
8596.00,1.67
8595.00,1.67
8594.00,1.67
8593.00,1.67
8592.00,1.68
8591.00,1.68
8590.00,1.68
8589.00,1.68
8588.00,1.69
8587.00,1.69
8586.00,1.69
8585.00,1.69
8584.00,1.69
8583.00,1.69
8582.00,1.69
8581.00,1.69
8580.00,1.69
8579.00,1.69
8578.00,1.69
8577.00,1.70
8576.00,1.70
8575.00,1.70
8574.00,1.70
8573.00,1.70
8572.00,1.70
8571.00,1.70
8570.00,1.70
8569.00,1.70
8568.00,1.70
8567.00,1.69
8566.00,1.69
8565.00,1.69
8564.00,1.69
8563.00,1.68
8562.00,1.68
8561.00,1.68
8560.00,1.67
8559.00,1.67
8558.00,1.67
8557.00,1.66
8556.00,1.66
8555.00,1.66
8554.00,1.65
8553.00,1.65
8552.00,1.65
8551.00,1.65
8550.00,1.65
8549.00,1.64
8548.00,1.64
8547.00,1.64
8546.00,1.64
8545.00,1.64
8544.00,1.64
8543.00,1.64
8542.00,1.64
8541.00,1.64
8540.00,1.64
8539.00,1.64
8538.00,1.64
8537.00,1.64
8536.00,1.64
8535.00,1.65
8534.00,1.65
8533.00,1.65
8532.00,1.66
8531.00,1.66
8530.00,1.66
8529.00,1.67
8528.00,1.67
8527.00,1.67
8526.00,1.67
8525.00,1.68
8524.00,1.68
8523.00,1.68
8522.00,1.68
8521.00,1.68
8520.00,1.68
8519.00,1.68
8518.00,1.68
8517.00,1.67
8516.00,1.67
8515.00,1.67
8514.00,1.67
8513.00,1.67
8512.00,1.67
8511.00,1.67
8510.00,1.67
8509.00,1.67
8508.00,1.67
8507.00,1.67
8506.00,1.67
8505.00,1.67
8504.00,1.67
8503.00,1.66
8502.00,1.66
8501.00,1.66
8500.00,1.65
8499.00,1.65
8498.00,1.64
8497.00,1.64
8496.00,1.64
8495.00,1.64
8494.00,1.63
8493.00,1.63
8492.00,1.63
8491.00,1.63
8490.00,1.62
8489.00,1.62
8488.00,1.62
8487.00,1.61
8486.00,1.61
8485.00,1.61
8484.00,1.60
8483.00,1.60
8482.00,1.60
8481.00,1.59
8480.00,1.59
8479.00,1.59
8478.00,1.59
8477.00,1.59
8476.00,1.59
8475.00,1.59
8474.00,1.59
8473.00,1.59
8472.00,1.59
8471.00,1.59
8470.00,1.59
8469.00,1.60
8468.00,1.60
8467.00,1.60
8466.00,1.60
8465.00,1.60
8464.00,1.60
8463.00,1.61
8462.00,1.61
8461.00,1.61
8460.00,1.61
8459.00,1.61
8458.00,1.61
8457.00,1.61
8456.00,1.61
8455.00,1.61
8454.00,1.61
8453.00,1.61
8452.00,1.60
8451.00,1.60
8450.00,1.60
8449.00,1.60
8448.00,1.59
8447.00,1.59
8446.00,1.59
8445.00,1.59
8444.00,1.58
8443.00,1.58
8442.00,1.58
8441.00,1.57
8440.00,1.57
8439.00,1.56
8438.00,1.56
8437.00,1.56
8436.00,1.55
8435.00,1.55
8434.00,1.55
8433.00,1.55
8432.00,1.54
8431.00,1.54
8430.00,1.54
8429.00,1.54
8428.00,1.55
8427.00,1.55
8426.00,1.55
8425.00,1.55
8424.00,1.55
8423.00,1.56
8422.00,1.56
8421.00,1.56
8420.00,1.57
8419.00,1.57
8418.00,1.57
8417.00,1.58
8416.00,1.58
8415.00,1.59
8414.00,1.59
8413.00,1.60
8412.00,1.60
8411.00,1.61
8410.00,1.61
8409.00,1.62
8408.00,1.63
8407.00,1.63
8406.00,1.64
8405.00,1.64
8404.00,1.64
8403.00,1.65
8402.00,1.65
8401.00,1.66
8400.00,1.66
8399.00,1.66
8398.00,1.66
8397.00,1.67
8396.00,1.67
8395.00,1.67
8394.00,1.67
8393.00,1.68
8392.00,1.68
8391.00,1.68
8390.00,1.68
8389.00,1.68
8388.00,1.68
8387.00,1.67
8386.00,1.67
8385.00,1.67
8384.00,1.67
8383.00,1.66
8382.00,1.66
8381.00,1.66
8380.00,1.66
8379.00,1.65
8378.00,1.65
8377.00,1.65
8376.00,1.64
8375.00,1.64
8374.00,1.64
8373.00,1.64
8372.00,1.63
8371.00,1.63
8370.00,1.63
8369.00,1.63
8368.00,1.63
8367.00,1.63
8366.00,1.63
8365.00,1.63
8364.00,1.63
8363.00,1.63
8362.00,1.63
8361.00,1.64
8360.00,1.64
8359.00,1.64
8358.00,1.65
8357.00,1.65
8356.00,1.65
8355.00,1.66
8354.00,1.66
8353.00,1.67
8352.00,1.67
8351.00,1.68
8350.00,1.68
8349.00,1.69
8348.00,1.69
8347.00,1.70
8346.00,1.70
8345.00,1.71
8344.00,1.71
8343.00,1.71
8342.00,1.71
8341.00,1.72
8340.00,1.72
8339.00,1.72
8338.00,1.72
8337.00,1.72
8336.00,1.72
8335.00,1.72
8334.00,1.72
8333.00,1.71
8332.00,1.71
8331.00,1.71
8330.00,1.71
8329.00,1.71
8328.00,1.71
8327.00,1.70
8326.00,1.70
8325.00,1.70
8324.00,1.70
8323.00,1.69
8322.00,1.69
8321.00,1.68
8320.00,1.68
8319.00,1.67
8318.00,1.67
8317.00,1.67
8316.00,1.66
8315.00,1.66
8314.00,1.66
8313.00,1.65
8312.00,1.65
8311.00,1.65
8310.00,1.64
8309.00,1.64
8308.00,1.64
8307.00,1.64
8306.00,1.64
8305.00,1.63
8304.00,1.63
8303.00,1.63
8302.00,1.63
8301.00,1.63
8300.00,1.62
8299.00,1.62
8298.00,1.62
8297.00,1.62
8296.00,1.62
8295.00,1.62
8294.00,1.63
8293.00,1.63
8292.00,1.63
8291.00,1.63
8290.00,1.63
8289.00,1.63
8288.00,1.64
8287.00,1.64
8286.00,1.64
8285.00,1.64
8284.00,1.65
8283.00,1.65
8282.00,1.65
8281.00,1.66
8280.00,1.66
8279.00,1.66
8278.00,1.67
8277.00,1.67
8276.00,1.67
8275.00,1.68
8274.00,1.68
8273.00,1.68
8272.00,1.69
8271.00,1.69
8270.00,1.69
8269.00,1.70
8268.00,1.70
8267.00,1.70
8266.00,1.70
8265.00,1.70
8264.00,1.70
8263.00,1.70
8262.00,1.70
8261.00,1.70
8260.00,1.70
8259.00,1.70
8258.00,1.70
8257.00,1.70
8256.00,1.70
8255.00,1.70
8254.00,1.69
8253.00,1.69
8252.00,1.68
8251.00,1.68
8250.00,1.68
8249.00,1.67
8248.00,1.67
8247.00,1.67
8246.00,1.66
8245.00,1.66
8244.00,1.66
8243.00,1.66
8242.00,1.66
8241.00,1.65
8240.00,1.65
8239.00,1.65
8238.00,1.65
8237.00,1.65
8236.00,1.65
8235.00,1.65
8234.00,1.65
8233.00,1.65
8232.00,1.66
8231.00,1.66
8230.00,1.66
8229.00,1.66
8228.00,1.66
8227.00,1.67
8226.00,1.67
8225.00,1.67
8224.00,1.68
8223.00,1.68
8222.00,1.68
8221.00,1.69
8220.00,1.69
8219.00,1.69
8218.00,1.69
8217.00,1.69
8216.00,1.69
8215.00,1.69
8214.00,1.69
8213.00,1.69
8212.00,1.69
8211.00,1.69
8210.00,1.69
8209.00,1.69
8208.00,1.69
8207.00,1.69
8206.00,1.69
8205.00,1.69
8204.00,1.68
8203.00,1.68
8202.00,1.68
8201.00,1.68
8200.00,1.68
8199.00,1.68
8198.00,1.68
8197.00,1.68
8196.00,1.68
8195.00,1.68
8194.00,1.68
8193.00,1.68
8192.00,1.68
8191.00,1.68
8190.00,1.68
8189.00,1.68
8188.00,1.68
8187.00,1.68
8186.00,1.68
8185.00,1.68
8184.00,1.68
8183.00,1.68
8182.00,1.68
8181.00,1.69
8180.00,1.69
8179.00,1.69
8178.00,1.70
8177.00,1.70
8176.00,1.70
8175.00,1.71
8174.00,1.71
8173.00,1.71
8172.00,1.72
8171.00,1.72
8170.00,1.72
8169.00,1.73
8168.00,1.73
8167.00,1.73
8166.00,1.74
8165.00,1.74
8164.00,1.74
8163.00,1.75
8162.00,1.75
8161.00,1.75
8160.00,1.75
8159.00,1.75
8158.00,1.75
8157.00,1.75
8156.00,1.75
8155.00,1.75
8154.00,1.75
8153.00,1.75
8152.00,1.75
8151.00,1.75
8150.00,1.75
8149.00,1.75
8148.00,1.74
8147.00,1.74
8146.00,1.74
8145.00,1.74
8144.00,1.74
8143.00,1.74
8142.00,1.74
8141.00,1.74
8140.00,1.74
8139.00,1.74
8138.00,1.74
8137.00,1.74
8136.00,1.74
8135.00,1.74
8134.00,1.75
8133.00,1.75
8132.00,1.75
8131.00,1.75
8130.00,1.76
8129.00,1.76
8128.00,1.76
8127.00,1.77
8126.00,1.77
8125.00,1.77
8124.00,1.77
8123.00,1.78
8122.00,1.78
8121.00,1.78
8120.00,1.78
8119.00,1.79
8118.00,1.79
8117.00,1.79
8116.00,1.79
8115.00,1.79
8114.00,1.79
8113.00,1.79
8112.00,1.79
8111.00,1.79
8110.00,1.79
8109.00,1.79
8108.00,1.79
8107.00,1.79
8106.00,1.78
8105.00,1.78
8104.00,1.78
8103.00,1.78
8102.00,1.78
8101.00,1.77
8100.00,1.77
8099.00,1.77
8098.00,1.77
8097.00,1.77
8096.00,1.77
8095.00,1.76
8094.00,1.76
8093.00,1.76
8092.00,1.76
8091.00,1.76
8090.00,1.76
8089.00,1.76
8088.00,1.76
8087.00,1.76
8086.00,1.76
8085.00,1.76
8084.00,1.76
8083.00,1.76
8082.00,1.76
8081.00,1.76
8080.00,1.76
8079.00,1.76
8078.00,1.75
8077.00,1.75
8076.00,1.75
8075.00,1.75
8074.00,1.75
8073.00,1.75
8072.00,1.75
8071.00,1.75
8070.00,1.74
8069.00,1.74
8068.00,1.74
8067.00,1.74
8066.00,1.73
8065.00,1.73
8064.00,1.73
8063.00,1.73
8062.00,1.73
8061.00,1.72
8060.00,1.72
8059.00,1.72
8058.00,1.72
8057.00,1.72
8056.00,1.72
8055.00,1.72
8054.00,1.72
8053.00,1.72
8052.00,1.72
8051.00,1.72
8050.00,1.72
8049.00,1.72
8048.00,1.73
8047.00,1.73
8046.00,1.73
8045.00,1.73
8044.00,1.73
8043.00,1.73
8042.00,1.73
8041.00,1.73
8040.00,1.74
8039.00,1.74
8038.00,1.74
8037.00,1.74
8036.00,1.74
8035.00,1.74
8034.00,1.74
8033.00,1.73
8032.00,1.73
8031.00,1.73
8030.00,1.73
8029.00,1.73
8028.00,1.73
8027.00,1.72
8026.00,1.72
8025.00,1.72
8024.00,1.72
8023.00,1.71
8022.00,1.71
8021.00,1.71
8020.00,1.71
8019.00,1.71
8018.00,1.71
8017.00,1.70
8016.00,1.70
8015.00,1.70
8014.00,1.70
8013.00,1.70
8012.00,1.70
8011.00,1.70
8010.00,1.70
8009.00,1.71
8008.00,1.71
8007.00,1.71
8006.00,1.71
8005.00,1.72
8004.00,1.72
8003.00,1.72
8002.00,1.73
8001.00,1.73
8000.00,1.74
7999.00,1.74
7998.00,1.74
7997.00,1.75
7996.00,1.75
7995.00,1.76
7994.00,1.76
7993.00,1.77
7992.00,1.77
7991.00,1.78
7990.00,1.78
7989.00,1.79
7988.00,1.79
7987.00,1.80
7986.00,1.80
7985.00,1.80
7984.00,1.81
7983.00,1.81
7982.00,1.81
7981.00,1.81
7980.00,1.81
7979.00,1.81
7978.00,1.81
7977.00,1.81
7976.00,1.81
7975.00,1.81
7974.00,1.81
7973.00,1.81
7972.00,1.81
7971.00,1.81
7970.00,1.80
7969.00,1.80
7968.00,1.80
7967.00,1.79
7966.00,1.79
7965.00,1.79
7964.00,1.78
7963.00,1.78
7962.00,1.77
7961.00,1.77
7960.00,1.77
7959.00,1.76
7958.00,1.76
7957.00,1.76
7956.00,1.75
7955.00,1.75
7954.00,1.75
7953.00,1.75
7952.00,1.75
7951.00,1.75
7950.00,1.75
7949.00,1.75
7948.00,1.75
7947.00,1.75
7946.00,1.75
7945.00,1.75
7944.00,1.75
7943.00,1.75
7942.00,1.75
7941.00,1.75
7940.00,1.75
7939.00,1.76
7938.00,1.76
7937.00,1.76
7936.00,1.76
7935.00,1.77
7934.00,1.77
7933.00,1.77
7932.00,1.77
7931.00,1.78
7930.00,1.78
7929.00,1.78
7928.00,1.78
7927.00,1.79
7926.00,1.79
7925.00,1.79
7924.00,1.79
7923.00,1.79
7922.00,1.80
7921.00,1.80
7920.00,1.80
7919.00,1.81
7918.00,1.81
7917.00,1.81
7916.00,1.82
7915.00,1.82
7914.00,1.82
7913.00,1.82
7912.00,1.82
7911.00,1.82
7910.00,1.83
7909.00,1.83
7908.00,1.83
7907.00,1.83
7906.00,1.83
7905.00,1.82
7904.00,1.82
7903.00,1.82
7902.00,1.82
7901.00,1.82
7900.00,1.82
7899.00,1.81
7898.00,1.81
7897.00,1.81
7896.00,1.80
7895.00,1.80
7894.00,1.80
7893.00,1.79
7892.00,1.79
7891.00,1.78
7890.00,1.78
7889.00,1.78
7888.00,1.77
7887.00,1.77
7886.00,1.77
7885.00,1.76
7884.00,1.76
7883.00,1.76
7882.00,1.76
7881.00,1.75
7880.00,1.75
7879.00,1.75
7878.00,1.75
7877.00,1.75
7876.00,1.75
7875.00,1.75
7874.00,1.75
7873.00,1.75
7872.00,1.75
7871.00,1.76
7870.00,1.76
7869.00,1.76
7868.00,1.77
7867.00,1.77
7866.00,1.77
7865.00,1.78
7864.00,1.78
7863.00,1.78
7862.00,1.78
7861.00,1.79
7860.00,1.79
7859.00,1.79
7858.00,1.79
7857.00,1.80
7856.00,1.80
7855.00,1.81
7854.00,1.81
7853.00,1.81
7852.00,1.82
7851.00,1.82
7850.00,1.82
7849.00,1.83
7848.00,1.83
7847.00,1.83
7846.00,1.83
7845.00,1.84
7844.00,1.84
7843.00,1.84
7842.00,1.84
7841.00,1.84
7840.00,1.84
7839.00,1.85
7838.00,1.85
7837.00,1.85
7836.00,1.85
7835.00,1.85
7834.00,1.86
7833.00,1.86
7832.00,1.86
7831.00,1.86
7830.00,1.86
7829.00,1.86
7828.00,1.86
7827.00,1.86
7826.00,1.86
7825.00,1.86
7824.00,1.86
7823.00,1.86
7822.00,1.86
7821.00,1.86
7820.00,1.85
7819.00,1.85
7818.00,1.85
7817.00,1.85
7816.00,1.85
7815.00,1.84
7814.00,1.84
7813.00,1.84
7812.00,1.83
7811.00,1.83
7810.00,1.83
7809.00,1.82
7808.00,1.82
7807.00,1.82
7806.00,1.81
7805.00,1.81
7804.00,1.81
7803.00,1.80
7802.00,1.80
7801.00,1.80
7800.00,1.79
7799.00,1.79
7798.00,1.78
7797.00,1.78
7796.00,1.78
7795.00,1.78
7794.00,1.77
7793.00,1.77
7792.00,1.77
7791.00,1.77
7790.00,1.77
7789.00,1.76
7788.00,1.76
7787.00,1.76
7786.00,1.76
7785.00,1.76
7784.00,1.76
7783.00,1.76
7782.00,1.76
7781.00,1.76
7780.00,1.76
7779.00,1.76
7778.00,1.76
7777.00,1.76
7776.00,1.76
7775.00,1.76
7774.00,1.76
7773.00,1.77
7772.00,1.77
7771.00,1.77
7770.00,1.77
7769.00,1.77
7768.00,1.77
7767.00,1.77
7766.00,1.77
7765.00,1.77
7764.00,1.77
7763.00,1.78
7762.00,1.78
7761.00,1.78
7760.00,1.78
7759.00,1.78
7758.00,1.78
7757.00,1.78
7756.00,1.78
7755.00,1.78
7754.00,1.78
7753.00,1.78
7752.00,1.78
7751.00,1.78
7750.00,1.78
7749.00,1.78
7748.00,1.78
7747.00,1.78
7746.00,1.78
7745.00,1.78
7744.00,1.78
7743.00,1.79
7742.00,1.79
7741.00,1.79
7740.00,1.79
7739.00,1.79
7738.00,1.79
7737.00,1.79
7736.00,1.79
7735.00,1.79
7734.00,1.79
7733.00,1.79
7732.00,1.79
7731.00,1.79
7730.00,1.79
7729.00,1.79
7728.00,1.80
7727.00,1.80
7726.00,1.80
7725.00,1.80
7724.00,1.81
7723.00,1.81
7722.00,1.81
7721.00,1.81
7720.00,1.81
7719.00,1.82
7718.00,1.82
7717.00,1.82
7716.00,1.82
7715.00,1.82
7714.00,1.82
7713.00,1.82
7712.00,1.82
7711.00,1.82
7710.00,1.83
7709.00,1.83
7708.00,1.83
7707.00,1.83
7706.00,1.83
7705.00,1.83
7704.00,1.82
7703.00,1.82
7702.00,1.82
7701.00,1.82
7700.00,1.82
7699.00,1.82
7698.00,1.82
7697.00,1.82
7696.00,1.82
7695.00,1.82
7694.00,1.82
7693.00,1.81
7692.00,1.81
7691.00,1.81
7690.00,1.81
7689.00,1.81
7688.00,1.81
7687.00,1.81
7686.00,1.81
7685.00,1.81
7684.00,1.81
7683.00,1.81
7682.00,1.81
7681.00,1.81
7680.00,1.81
7679.00,1.81
7678.00,1.81
7677.00,1.81
7676.00,1.81
7675.00,1.81
7674.00,1.81
7673.00,1.81
7672.00,1.81
7671.00,1.81
7670.00,1.81
7669.00,1.82
7668.00,1.82
7667.00,1.82
7666.00,1.82
7665.00,1.82
7664.00,1.82
7663.00,1.83
7662.00,1.83
7661.00,1.83
7660.00,1.83
7659.00,1.84
7658.00,1.84
7657.00,1.84
7656.00,1.84
7655.00,1.85
7654.00,1.85
7653.00,1.85
7652.00,1.86
7651.00,1.86
7650.00,1.86
7649.00,1.86
7648.00,1.87
7647.00,1.87
7646.00,1.87
7645.00,1.87
7644.00,1.87
7643.00,1.87
7642.00,1.87
7641.00,1.87
7640.00,1.88
7639.00,1.88
7638.00,1.88
7637.00,1.88
7636.00,1.87
7635.00,1.87
7634.00,1.87
7633.00,1.87
7632.00,1.87
7631.00,1.87
7630.00,1.87
7629.00,1.86
7628.00,1.86
7627.00,1.86
7626.00,1.86
7625.00,1.86
7624.00,1.86
7623.00,1.86
7622.00,1.86
7621.00,1.86
7620.00,1.85
7619.00,1.85
7618.00,1.85
7617.00,1.85
7616.00,1.85
7615.00,1.85
7614.00,1.85
7613.00,1.85
7612.00,1.85
7611.00,1.85
7610.00,1.85
7609.00,1.85
7608.00,1.85
7607.00,1.85
7606.00,1.85
7605.00,1.85
7604.00,1.85
7603.00,1.85
7602.00,1.85
7601.00,1.85
7600.00,1.85
7599.00,1.85
7598.00,1.85
7597.00,1.84
7596.00,1.84
7595.00,1.84
7594.00,1.84
7593.00,1.84
7592.00,1.84
7591.00,1.84
7590.00,1.84
7589.00,1.84
7588.00,1.84
7587.00,1.84
7586.00,1.84
7585.00,1.83
7584.00,1.83
7583.00,1.83
7582.00,1.83
7581.00,1.83
7580.00,1.83
7579.00,1.83
7578.00,1.83
7577.00,1.83
7576.00,1.83
7575.00,1.83
7574.00,1.83
7573.00,1.84
7572.00,1.84
7571.00,1.84
7570.00,1.84
7569.00,1.84
7568.00,1.84
7567.00,1.84
7566.00,1.84
7565.00,1.85
7564.00,1.85
7563.00,1.85
7562.00,1.85
7561.00,1.85
7560.00,1.86
7559.00,1.86
7558.00,1.86
7557.00,1.86
7556.00,1.86
7555.00,1.86
7554.00,1.87
7553.00,1.87
7552.00,1.87
7551.00,1.87
7550.00,1.87
7549.00,1.87
7548.00,1.88
7547.00,1.88
7546.00,1.88
7545.00,1.88
7544.00,1.88
7543.00,1.88
7542.00,1.88
7541.00,1.88
7540.00,1.88
7539.00,1.88
7538.00,1.88
7537.00,1.88
7536.00,1.88
7535.00,1.88
7534.00,1.88
7533.00,1.88
7532.00,1.88
7531.00,1.88
7530.00,1.87
7529.00,1.87
7528.00,1.87
7527.00,1.87
7526.00,1.86
7525.00,1.86
7524.00,1.86
7523.00,1.85
7522.00,1.85
7521.00,1.85
7520.00,1.84
7519.00,1.84
7518.00,1.83
7517.00,1.83
7516.00,1.83
7515.00,1.83
7514.00,1.83
7513.00,1.82
7512.00,1.82
7511.00,1.82
7510.00,1.82
7509.00,1.82
7508.00,1.82
7507.00,1.81
7506.00,1.81
7505.00,1.81
7504.00,1.81
7503.00,1.81
7502.00,1.81
7501.00,1.81
7500.00,1.81
7499.00,1.82
7498.00,1.82
7497.00,1.82
7496.00,1.82
7495.00,1.83
7494.00,1.83
7493.00,1.83
7492.00,1.84
7491.00,1.84
7490.00,1.84
7489.00,1.84
7488.00,1.84
7487.00,1.85
7486.00,1.85
7485.00,1.85
7484.00,1.85
7483.00,1.85
7482.00,1.85
7481.00,1.85
7480.00,1.85
7479.00,1.85
7478.00,1.85
7477.00,1.85
7476.00,1.85
7475.00,1.85
7474.00,1.85
7473.00,1.85
7472.00,1.85
7471.00,1.85
7470.00,1.85
7469.00,1.85
7468.00,1.85
7467.00,1.85
7466.00,1.84
7465.00,1.84
7464.00,1.84
7463.00,1.84
7462.00,1.84
7461.00,1.84
7460.00,1.83
7459.00,1.83
7458.00,1.83
7457.00,1.83
7456.00,1.83
7455.00,1.82
7454.00,1.82
7453.00,1.82
7452.00,1.82
7451.00,1.82
7450.00,1.81
7449.00,1.81
7448.00,1.81
7447.00,1.81
7446.00,1.80
7445.00,1.80
7444.00,1.80
7443.00,1.80
7442.00,1.79
7441.00,1.79
7440.00,1.79
7439.00,1.79
7438.00,1.78
7437.00,1.78
7436.00,1.78
7435.00,1.78
7434.00,1.78
7433.00,1.78
7432.00,1.77
7431.00,1.77
7430.00,1.77
7429.00,1.77
7428.00,1.77
7427.00,1.77
7426.00,1.77
7425.00,1.77
7424.00,1.77
7423.00,1.76
7422.00,1.76
7421.00,1.76
7420.00,1.76
7419.00,1.76
7418.00,1.76
7417.00,1.76
7416.00,1.76
7415.00,1.76
7414.00,1.76
7413.00,1.76
7412.00,1.76
7411.00,1.76
7410.00,1.76
7409.00,1.75
7408.00,1.75
7407.00,1.75
7406.00,1.75
7405.00,1.75
7404.00,1.75
7403.00,1.75
7402.00,1.74
7401.00,1.74
7400.00,1.74
7399.00,1.74
7398.00,1.74
7397.00,1.73
7396.00,1.73
7395.00,1.73
7394.00,1.72
7393.00,1.72
7392.00,1.72
7391.00,1.71
7390.00,1.71
7389.00,1.71
7388.00,1.70
7387.00,1.70
7386.00,1.70
7385.00,1.70
7384.00,1.69
7383.00,1.69
7382.00,1.69
7381.00,1.69
7380.00,1.69
7379.00,1.69
7378.00,1.68
7377.00,1.68
7376.00,1.68
7375.00,1.68
7374.00,1.68
7373.00,1.68
7372.00,1.68
7371.00,1.68
7370.00,1.68
7369.00,1.68
7368.00,1.68
7367.00,1.68
7366.00,1.69
7365.00,1.69
7364.00,1.69
7363.00,1.69
7362.00,1.69
7361.00,1.69
7360.00,1.69
7359.00,1.69
7358.00,1.70
7357.00,1.70
7356.00,1.70
7355.00,1.70
7354.00,1.70
7353.00,1.70
7352.00,1.70
7351.00,1.70
7350.00,1.70
7349.00,1.70
7348.00,1.70
7347.00,1.70
7346.00,1.70
7345.00,1.70
7344.00,1.71
7343.00,1.71
7342.00,1.71
7341.00,1.71
7340.00,1.71
7339.00,1.71
7338.00,1.71
7337.00,1.72
7336.00,1.72
7335.00,1.72
7334.00,1.72
7333.00,1.72
7332.00,1.73
7331.00,1.73
7330.00,1.73
7329.00,1.73
7328.00,1.74
7327.00,1.74
7326.00,1.74
7325.00,1.75
7324.00,1.75
7323.00,1.75
7322.00,1.75
7321.00,1.76
7320.00,1.76
7319.00,1.76
7318.00,1.76
7317.00,1.76
7316.00,1.76
7315.00,1.76
7314.00,1.76
7313.00,1.76
7312.00,1.76
7311.00,1.76
7310.00,1.76
7309.00,1.76
7308.00,1.76
7307.00,1.76
7306.00,1.75
7305.00,1.75
7304.00,1.75
7303.00,1.75
7302.00,1.74
7301.00,1.74
7300.00,1.74
7299.00,1.74
7298.00,1.73
7297.00,1.73
7296.00,1.73
7295.00,1.73
7294.00,1.73
7293.00,1.72
7292.00,1.72
7291.00,1.72
7290.00,1.72
7289.00,1.72
7288.00,1.72
7287.00,1.71
7286.00,1.71
7285.00,1.71
7284.00,1.71
7283.00,1.71
7282.00,1.71
7281.00,1.71
7280.00,1.71
7279.00,1.71
7278.00,1.71
7277.00,1.71
7276.00,1.71
7275.00,1.71
7274.00,1.71
7273.00,1.71
7272.00,1.71
7271.00,1.71
7270.00,1.71
7269.00,1.71
7268.00,1.71
7267.00,1.71
7266.00,1.71
7265.00,1.71
7264.00,1.71
7263.00,1.71
7262.00,1.71
7261.00,1.71
7260.00,1.71
7259.00,1.71
7258.00,1.71
7257.00,1.70
7256.00,1.70
7255.00,1.70
7254.00,1.70
7253.00,1.70
7252.00,1.70
7251.00,1.70
7250.00,1.70
7249.00,1.70
7248.00,1.70
7247.00,1.70
7246.00,1.69
7245.00,1.69
7244.00,1.69
7243.00,1.69
7242.00,1.69
7241.00,1.69
7240.00,1.68
7239.00,1.68
7238.00,1.68
7237.00,1.68
7236.00,1.67
7235.00,1.67
7234.00,1.66
7233.00,1.66
7232.00,1.66
7231.00,1.65
7230.00,1.65
7229.00,1.64
7228.00,1.64
7227.00,1.63
7226.00,1.63
7225.00,1.62
7224.00,1.62
7223.00,1.61
7222.00,1.61
7221.00,1.60
7220.00,1.59
7219.00,1.59
7218.00,1.58
7217.00,1.57
7216.00,1.57
7215.00,1.56
7214.00,1.55
7213.00,1.55
7212.00,1.54
7211.00,1.54
7210.00,1.53
7209.00,1.53
7208.00,1.52
7207.00,1.52
7206.00,1.51
7205.00,1.51
7204.00,1.51
7203.00,1.51
7202.00,1.50
7201.00,1.50
7200.00,1.50
7199.00,1.50
7198.00,1.50
7197.00,1.50
7196.00,1.49
7195.00,1.49
7194.00,1.49
7193.00,1.49
7192.00,1.49
7191.00,1.49
7190.00,1.50
7189.00,1.50
7188.00,1.50
7187.00,1.50
7186.00,1.50
7185.00,1.50
7184.00,1.50
7183.00,1.50
7182.00,1.50
7181.00,1.50
7180.00,1.50
7179.00,1.50
7178.00,1.50
7177.00,1.49
7176.00,1.49
7175.00,1.49
7174.00,1.48
7173.00,1.48
7172.00,1.48
7171.00,1.47
7170.00,1.47
7169.00,1.47
7168.00,1.46
7167.00,1.46
7166.00,1.45
7165.00,1.45
7164.00,1.44
7163.00,1.44
7162.00,1.43
7161.00,1.42
7160.00,1.42
7159.00,1.41
7158.00,1.41
7157.00,1.40
7156.00,1.40
7155.00,1.39
7154.00,1.38
7153.00,1.38
7152.00,1.37
7151.00,1.37
7150.00,1.36
7149.00,1.36
7148.00,1.36
7147.00,1.35
7146.00,1.35
7145.00,1.34
7144.00,1.34
7143.00,1.33
7142.00,1.33
7141.00,1.32
7140.00,1.32
7139.00,1.32
7138.00,1.31
7137.00,1.31
7136.00,1.31
7135.00,1.31
7134.00,1.30
7133.00,1.30
7132.00,1.30
7131.00,1.30
7130.00,1.30
7129.00,1.29
7128.00,1.29
7127.00,1.29
7126.00,1.29
7125.00,1.28
7124.00,1.28
7123.00,1.28
7122.00,1.28
7121.00,1.28
7120.00,1.28
7119.00,1.27
7118.00,1.27
7117.00,1.27
7116.00,1.27
7115.00,1.27
7114.00,1.27
7113.00,1.27
7112.00,1.26
7111.00,1.26
7110.00,1.26
7109.00,1.26
7108.00,1.26
7107.00,1.25
7106.00,1.25
7105.00,1.25
7104.00,1.25
7103.00,1.24
7102.00,1.24
7101.00,1.24
7100.00,1.23
7099.00,1.23
7098.00,1.23
7097.00,1.22
7096.00,1.22
7095.00,1.22
7094.00,1.21
7093.00,1.21
7092.00,1.21
7091.00,1.20
7090.00,1.20
7089.00,1.20
7088.00,1.19
7087.00,1.19
7086.00,1.19
7085.00,1.18
7084.00,1.18
7083.00,1.18
7082.00,1.18
7081.00,1.17
7080.00,1.17
7079.00,1.17
7078.00,1.16
7077.00,1.16
7076.00,1.16
7075.00,1.15
7074.00,1.15
7073.00,1.15
7072.00,1.14
7071.00,1.14
7070.00,1.14
7069.00,1.13
7068.00,1.13
7067.00,1.12
7066.00,1.12
7065.00,1.12
7064.00,1.11
7063.00,1.11
7062.00,1.11
7061.00,1.10
7060.00,1.10
7059.00,1.10
7058.00,1.09
7057.00,1.09
7056.00,1.09
7055.00,1.09
7054.00,1.08
7053.00,1.08
7052.00,1.08
7051.00,1.08
7050.00,1.08
7049.00,1.08
7048.00,1.07
7047.00,1.07
7046.00,1.07
7045.00,1.07
7044.00,1.07
7043.00,1.07
7042.00,1.08
7041.00,1.08
7040.00,1.08
7039.00,1.08
7038.00,1.08
7037.00,1.08
7036.00,1.08
7035.00,1.08
7034.00,1.08
7033.00,1.08
7032.00,1.08
7031.00,1.08
7030.00,1.08
7029.00,1.08
7028.00,1.08
7027.00,1.09
7026.00,1.09
7025.00,1.09
7024.00,1.09
7023.00,1.09
7022.00,1.08
7021.00,1.08
7020.00,1.08
7019.00,1.08
7018.00,1.08
7017.00,1.08
7016.00,1.08
7015.00,1.08
7014.00,1.08
7013.00,1.08
7012.00,1.08
7011.00,1.08
7010.00,1.07
7009.00,1.07
7008.00,1.07
7007.00,1.07
7006.00,1.07
7005.00,1.06
7004.00,1.06
7003.00,1.06
7002.00,1.06
7001.00,1.06
7000.00,1.06
6999.00,1.06
6998.00,1.05
6997.00,1.05
6996.00,1.05
6995.00,1.05
6994.00,1.05
6993.00,1.05
6992.00,1.05
6991.00,1.04
6990.00,1.04
6989.00,1.04
6988.00,1.04
6987.00,1.04
6986.00,1.03
6985.00,1.03
6984.00,1.03
6983.00,1.03
6982.00,1.03
6981.00,1.03
6980.00,1.03
6979.00,1.03
6978.00,1.03
6977.00,1.03
6976.00,1.03
6975.00,1.03
6974.00,1.02
6973.00,1.02
6972.00,1.02
6971.00,1.02
6970.00,1.02
6969.00,1.02
6968.00,1.02
6967.00,1.02
6966.00,1.01
6965.00,1.01
6964.00,1.01
6963.00,1.01
6962.00,1.01
6961.00,1.01
6960.00,1.01
6959.00,1.01
6958.00,1.01
6957.00,1.00
6956.00,1.00
6955.00,1.00
6954.00,1.00
6953.00,0.99
6952.00,0.99
6951.00,0.99
6950.00,0.98
6949.00,0.98
6948.00,0.98
6947.00,0.97
6946.00,0.97
6945.00,0.97
6944.00,0.97
6943.00,0.96
6942.00,0.96
6941.00,0.96
6940.00,0.96
6939.00,0.95
6938.00,0.95
6937.00,0.95
6936.00,0.95
6935.00,0.95
6934.00,0.95
6933.00,0.95
6932.00,0.95
6931.00,0.95
6930.00,0.95
6929.00,0.95
6928.00,0.95
6927.00,0.95
6926.00,0.95
6925.00,0.95
6924.00,0.96
6923.00,0.96
6922.00,0.96
6921.00,0.96
6920.00,0.97
6919.00,0.97
6918.00,0.97
6917.00,0.97
6916.00,0.97
6915.00,0.97
6914.00,0.98
6913.00,0.98
6912.00,0.98
6911.00,0.98
6910.00,0.98
6909.00,0.98
6908.00,0.98
6907.00,0.99
6906.00,0.99
6905.00,0.99
6904.00,0.99
6903.00,0.99
6902.00,0.99
6901.00,0.99
6900.00,0.99
6899.00,0.99
6898.00,0.99
6897.00,0.99
6896.00,0.99
6895.00,0.99
6894.00,0.99
6893.00,0.99
6892.00,0.99
6891.00,0.99
6890.00,0.99
6889.00,0.99
6888.00,0.99
6887.00,1.00
6886.00,1.00
6885.00,1.00
6884.00,1.00
6883.00,1.00
6882.00,1.00
6881.00,1.00
6880.00,1.00
6879.00,1.00
6878.00,1.00
6877.00,1.00
6876.00,1.00
6875.00,1.00
6874.00,1.00
6873.00,1.00
6872.00,1.00
6871.00,1.00
6870.00,1.00
6869.00,1.00
6868.00,1.00
6867.00,1.00
6866.00,1.00
6865.00,1.00
6864.00,1.00
6863.00,1.00
6862.00,1.00
6861.00,0.99
6860.00,0.99
6859.00,0.99
6858.00,0.99
6857.00,0.99
6856.00,0.99
6855.00,0.99
6854.00,0.99
6853.00,0.98
6852.00,0.98
6851.00,0.98
6850.00,0.98
6849.00,0.98
6848.00,0.98
6847.00,0.98
6846.00,0.98
6845.00,0.98
6844.00,0.98
6843.00,0.98
6842.00,0.98
6841.00,0.98
6840.00,0.98
6839.00,0.98
6838.00,0.98
6837.00,0.98
6836.00,0.98
6835.00,0.98
6834.00,0.98
6833.00,0.98
6832.00,0.98
6831.00,0.98
6830.00,0.98
6829.00,0.98
6828.00,0.98
6827.00,0.98
6826.00,0.98
6825.00,0.98
6824.00,0.98
6823.00,0.98
6822.00,0.98
6821.00,0.98
6820.00,0.98
6819.00,0.98
6818.00,0.98
6817.00,0.98
6816.00,0.98
6815.00,0.98
6814.00,0.98
6813.00,0.98
6812.00,0.98
6811.00,0.98
6810.00,0.98
6809.00,0.99
6808.00,0.99
6807.00,0.99
6806.00,0.99
6805.00,1.00
6804.00,1.00
6803.00,1.00
6802.00,1.00
6801.00,1.01
6800.00,1.01
6799.00,1.01
6798.00,1.02
6797.00,1.02
6796.00,1.02
6795.00,1.02
6794.00,1.02
6793.00,1.03
6792.00,1.03
6791.00,1.03
6790.00,1.03
6789.00,1.03
6788.00,1.03
6787.00,1.03
6786.00,1.04
6785.00,1.04
6784.00,1.04
6783.00,1.04
6782.00,1.04
6781.00,1.04
6780.00,1.04
6779.00,1.04
6778.00,1.04
6777.00,1.04
6776.00,1.04
6775.00,1.04
6774.00,1.04
6773.00,1.04
6772.00,1.04
6771.00,1.04
6770.00,1.04
6769.00,1.04
6768.00,1.05
6767.00,1.05
6766.00,1.05
6765.00,1.05
6764.00,1.05
6763.00,1.05
6762.00,1.05
6761.00,1.05
6760.00,1.05
6759.00,1.05
6758.00,1.06
6757.00,1.06
6756.00,1.06
6755.00,1.06
6754.00,1.06
6753.00,1.06
6752.00,1.06
6751.00,1.06
6750.00,1.06
6749.00,1.06
6748.00,1.06
6747.00,1.07
6746.00,1.07
6745.00,1.07
6744.00,1.07
6743.00,1.07
6742.00,1.08
6741.00,1.08
6740.00,1.08
6739.00,1.08
6738.00,1.08
6737.00,1.09
6736.00,1.09
6735.00,1.09
6734.00,1.09
6733.00,1.09
6732.00,1.10
6731.00,1.10
6730.00,1.10
6729.00,1.11
6728.00,1.11
6727.00,1.11
6726.00,1.11
6725.00,1.12
6724.00,1.12
6723.00,1.12
6722.00,1.12
6721.00,1.12
6720.00,1.12
6719.00,1.12
6718.00,1.12
6717.00,1.12
6716.00,1.12
6715.00,1.12
6714.00,1.12
6713.00,1.12
6712.00,1.12
6711.00,1.12
6710.00,1.12
6709.00,1.12
6708.00,1.12
6707.00,1.12
6706.00,1.12
6705.00,1.12
6704.00,1.12
6703.00,1.12
6702.00,1.12
6701.00,1.12
6700.00,1.12
6699.00,1.12
6698.00,1.12
6697.00,1.12
6696.00,1.12
6695.00,1.12
6694.00,1.12
6693.00,1.12
6692.00,1.12
6691.00,1.12
6690.00,1.12
6689.00,1.13
6688.00,1.13
6687.00,1.13
6686.00,1.13
6685.00,1.13
6684.00,1.13
6683.00,1.13
6682.00,1.13
6681.00,1.13
6680.00,1.13
6679.00,1.13
6678.00,1.13
6677.00,1.13
6676.00,1.13
6675.00,1.13
6674.00,1.13
6673.00,1.13
6672.00,1.13
6671.00,1.13
6670.00,1.13
6669.00,1.13
6668.00,1.13
6667.00,1.13
6666.00,1.13
6665.00,1.13
6664.00,1.13
6663.00,1.13
6662.00,1.13
6661.00,1.13
6660.00,1.13
6659.00,1.13
6658.00,1.13
6657.00,1.13
6656.00,1.13
6655.00,1.14
6654.00,1.14
6653.00,1.14
6652.00,1.14
6651.00,1.14
6650.00,1.14
6649.00,1.14
6648.00,1.15
6647.00,1.15
6646.00,1.15
6645.00,1.15
6644.00,1.16
6643.00,1.16
6642.00,1.16
6641.00,1.16
6640.00,1.16
6639.00,1.17
6638.00,1.17
6637.00,1.17
6636.00,1.17
6635.00,1.18
6634.00,1.18
6633.00,1.18
6632.00,1.18
6631.00,1.19
6630.00,1.19
6629.00,1.19
6628.00,1.19
6627.00,1.20
6626.00,1.20
6625.00,1.20
6624.00,1.20
6623.00,1.21
6622.00,1.21
6621.00,1.21
6620.00,1.21
6619.00,1.21
6618.00,1.21
6617.00,1.21
6616.00,1.22
6615.00,1.22
6614.00,1.22
6613.00,1.22
6612.00,1.22
6611.00,1.22
6610.00,1.22
6609.00,1.22
6608.00,1.22
6607.00,1.22
6606.00,1.22
6605.00,1.22
6604.00,1.22
6603.00,1.22
6602.00,1.22
6601.00,1.22
6600.00,1.22
6599.00,1.22
6598.00,1.22
6597.00,1.22
6596.00,1.22
6595.00,1.23
6594.00,1.23
6593.00,1.23
6592.00,1.23
6591.00,1.23
6590.00,1.23
6589.00,1.23
6588.00,1.24
6587.00,1.24
6586.00,1.24
6585.00,1.24
6584.00,1.25
6583.00,1.25
6582.00,1.25
6581.00,1.26
6580.00,1.26
6579.00,1.26
6578.00,1.26
6577.00,1.27
6576.00,1.27
6575.00,1.27
6574.00,1.27
6573.00,1.27
6572.00,1.28
6571.00,1.28
6570.00,1.28
6569.00,1.28
6568.00,1.28
6567.00,1.28
6566.00,1.29
6565.00,1.29
6564.00,1.29
6563.00,1.29
6562.00,1.29
6561.00,1.29
6560.00,1.29
6559.00,1.29
6558.00,1.29
6557.00,1.29
6556.00,1.29
6555.00,1.29
6554.00,1.29
6553.00,1.29
6552.00,1.29
6551.00,1.29
6550.00,1.30
6549.00,1.30
6548.00,1.30
6547.00,1.30
6546.00,1.30
6545.00,1.30
6544.00,1.30
6543.00,1.31
6542.00,1.31
6541.00,1.31
6540.00,1.31
6539.00,1.31
6538.00,1.31
6537.00,1.32
6536.00,1.32
6535.00,1.32
6534.00,1.32
6533.00,1.32
6532.00,1.33
6531.00,1.33
6530.00,1.33
6529.00,1.33
6528.00,1.33
6527.00,1.34
6526.00,1.34
6525.00,1.34
6524.00,1.34
6523.00,1.34
6522.00,1.34
6521.00,1.34
6520.00,1.34
6519.00,1.34
6518.00,1.34
6517.00,1.34
6516.00,1.34
6515.00,1.34
6514.00,1.34
6513.00,1.34
6512.00,1.34
6511.00,1.34
6510.00,1.34
6509.00,1.34
6508.00,1.34
6507.00,1.34
6506.00,1.34
6505.00,1.34
6504.00,1.34
6503.00,1.34
6502.00,1.34
6501.00,1.34
6500.00,1.34
6499.00,1.34
6498.00,1.34
6497.00,1.34
6496.00,1.34
6495.00,1.34
6494.00,1.34
6493.00,1.34
6492.00,1.34
6491.00,1.34
6490.00,1.34
6489.00,1.34
6488.00,1.34
6487.00,1.34
6486.00,1.34
6485.00,1.34
6484.00,1.34
6483.00,1.34
6482.00,1.34
6481.00,1.34
6480.00,1.34
6479.00,1.34
6478.00,1.34
6477.00,1.34
6476.00,1.34
6475.00,1.34
6474.00,1.34
6473.00,1.34
6472.00,1.34
6471.00,1.34
6470.00,1.34
6469.00,1.34
6468.00,1.34
6467.00,1.34
6466.00,1.34
6465.00,1.34
6464.00,1.34
6463.00,1.34
6462.00,1.34
6461.00,1.34
6460.00,1.34
6459.00,1.34
6458.00,1.34
6457.00,1.34
6456.00,1.33
6455.00,1.33
6454.00,1.33
6453.00,1.33
6452.00,1.33
6451.00,1.33
6450.00,1.33
6449.00,1.33
6448.00,1.33
6447.00,1.33
6446.00,1.33
6445.00,1.33
6444.00,1.33
6443.00,1.33
6442.00,1.33
6441.00,1.33
6440.00,1.33
6439.00,1.33
6438.00,1.33
6437.00,1.33
6436.00,1.33
6435.00,1.33
6434.00,1.33
6433.00,1.33
6432.00,1.33
6431.00,1.33
6430.00,1.33
6429.00,1.33
6428.00,1.33
6427.00,1.33
6426.00,1.34
6425.00,1.34
6424.00,1.34
6423.00,1.34
6422.00,1.34
6421.00,1.35
6420.00,1.35
6419.00,1.35
6418.00,1.35
6417.00,1.35
6416.00,1.35
6415.00,1.35
6414.00,1.35
6413.00,1.36
6412.00,1.36
6411.00,1.36
6410.00,1.36
6409.00,1.36
6408.00,1.36
6407.00,1.36
6406.00,1.37
6405.00,1.37
6404.00,1.37
6403.00,1.37
6402.00,1.37
6401.00,1.37
6400.00,1.37
6399.00,1.38
6398.00,1.38
6397.00,1.38
6396.00,1.38
6395.00,1.38
6394.00,1.38
6393.00,1.39
6392.00,1.39
6391.00,1.39
6390.00,1.39
6389.00,1.40
6388.00,1.40
6387.00,1.40
6386.00,1.40
6385.00,1.41
6384.00,1.41
6383.00,1.41
6382.00,1.41
6381.00,1.42
6380.00,1.42
6379.00,1.42
6378.00,1.43
6377.00,1.43
6376.00,1.43
6375.00,1.43
6374.00,1.44
6373.00,1.44
6372.00,1.44
6371.00,1.44
6370.00,1.44
6369.00,1.44
6368.00,1.44
6367.00,1.44
6366.00,1.44
6365.00,1.44
6364.00,1.44
6363.00,1.44
6362.00,1.44
6361.00,1.44
6360.00,1.44
6359.00,1.44
6358.00,1.44
6357.00,1.44
6356.00,1.44
6355.00,1.44
6354.00,1.43
6353.00,1.43
6352.00,1.43
6351.00,1.43
6350.00,1.43
6349.00,1.43
6348.00,1.43
6347.00,1.43
6346.00,1.43
6345.00,1.43
6344.00,1.43
6343.00,1.43
6342.00,1.43
6341.00,1.43
6340.00,1.44
6339.00,1.44
6338.00,1.44
6337.00,1.44
6336.00,1.44
6335.00,1.44
6334.00,1.44
6333.00,1.45
6332.00,1.45
6331.00,1.45
6330.00,1.45
6329.00,1.45
6328.00,1.46
6327.00,1.46
6326.00,1.46
6325.00,1.46
6324.00,1.46
6323.00,1.47
6322.00,1.47
6321.00,1.47
6320.00,1.48
6319.00,1.48
6318.00,1.48
6317.00,1.48
6316.00,1.48
6315.00,1.49
6314.00,1.49
6313.00,1.49
6312.00,1.49
6311.00,1.50
6310.00,1.50
6309.00,1.50
6308.00,1.50
6307.00,1.50
6306.00,1.50
6305.00,1.51
6304.00,1.51
6303.00,1.51
6302.00,1.51
6301.00,1.51
6300.00,1.51
6299.00,1.51
6298.00,1.51
6297.00,1.51
6296.00,1.52
6295.00,1.52
6294.00,1.52
6293.00,1.52
6292.00,1.52
6291.00,1.52
6290.00,1.52
6289.00,1.52
6288.00,1.52
6287.00,1.52
6286.00,1.52
6285.00,1.52
6284.00,1.52
6283.00,1.52
6282.00,1.52
6281.00,1.52
6280.00,1.52
6279.00,1.52
6278.00,1.52
6277.00,1.52
6276.00,1.52
6275.00,1.52
6274.00,1.53
6273.00,1.53
6272.00,1.53
6271.00,1.53
6270.00,1.53
6269.00,1.53
6268.00,1.53
6267.00,1.54
6266.00,1.54
6265.00,1.54
6264.00,1.54
6263.00,1.54
6262.00,1.54
6261.00,1.54
6260.00,1.54
6259.00,1.55
6258.00,1.55
6257.00,1.55
6256.00,1.55
6255.00,1.56
6254.00,1.56
6253.00,1.56
6252.00,1.56
6251.00,1.57
6250.00,1.57
6249.00,1.57
6248.00,1.57
6247.00,1.57
6246.00,1.57
6245.00,1.57
6244.00,1.58
6243.00,1.58
6242.00,1.58
6241.00,1.58
6240.00,1.58
6239.00,1.58
6238.00,1.58
6237.00,1.59
6236.00,1.59
6235.00,1.59
6234.00,1.59
6233.00,1.59
6232.00,1.59
6231.00,1.59
6230.00,1.59
6229.00,1.59
6228.00,1.59
6227.00,1.59
6226.00,1.59
6225.00,1.59
6224.00,1.59
6223.00,1.59
6222.00,1.59
6221.00,1.59
6220.00,1.59
6219.00,1.59
6218.00,1.59
6217.00,1.59
6216.00,1.59
6215.00,1.59
6214.00,1.59
6213.00,1.59
6212.00,1.59
6211.00,1.59
6210.00,1.59
6209.00,1.59
6208.00,1.59
6207.00,1.60
6206.00,1.60
6205.00,1.60
6204.00,1.60
6203.00,1.60
6202.00,1.60
6201.00,1.61
6200.00,1.61
6199.00,1.61
6198.00,1.61
6197.00,1.61
6196.00,1.61
6195.00,1.61
6194.00,1.61
6193.00,1.62
6192.00,1.62
6191.00,1.62
6190.00,1.62
6189.00,1.62
6188.00,1.62
6187.00,1.63
6186.00,1.63
6185.00,1.63
6184.00,1.63
6183.00,1.63
6182.00,1.63
6181.00,1.64
6180.00,1.64
6179.00,1.64
6178.00,1.64
6177.00,1.64
6176.00,1.64
6175.00,1.64
6174.00,1.64
6173.00,1.64
6172.00,1.64
6171.00,1.64
6170.00,1.64
6169.00,1.64
6168.00,1.64
6167.00,1.65
6166.00,1.65
6165.00,1.65
6164.00,1.65
6163.00,1.65
6162.00,1.65
6161.00,1.65
6160.00,1.65
6159.00,1.65
6158.00,1.65
6157.00,1.65
6156.00,1.65
6155.00,1.65
6154.00,1.65
6153.00,1.66
6152.00,1.66
6151.00,1.66
6150.00,1.66
6149.00,1.66
6148.00,1.66
6147.00,1.66
6146.00,1.66
6145.00,1.67
6144.00,1.67
6143.00,1.67
6142.00,1.67
6141.00,1.67
6140.00,1.67
6139.00,1.68
6138.00,1.68
6137.00,1.68
6136.00,1.68
6135.00,1.68
6134.00,1.68
6133.00,1.68
6132.00,1.69
6131.00,1.69
6130.00,1.69
6129.00,1.69
6128.00,1.69
6127.00,1.69
6126.00,1.69
6125.00,1.69
6124.00,1.69
6123.00,1.69
6122.00,1.69
6121.00,1.69
6120.00,1.69
6119.00,1.70
6118.00,1.70
6117.00,1.70
6116.00,1.70
6115.00,1.70
6114.00,1.70
6113.00,1.70
6112.00,1.70
6111.00,1.70
6110.00,1.70
6109.00,1.70
6108.00,1.70
6107.00,1.70
6106.00,1.70
6105.00,1.70
6104.00,1.70
6103.00,1.71
6102.00,1.71
6101.00,1.71
6100.00,1.71
6099.00,1.71
6098.00,1.71
6097.00,1.71
6096.00,1.71
6095.00,1.71
6094.00,1.71
6093.00,1.71
6092.00,1.72
6091.00,1.72
6090.00,1.72
6089.00,1.72
6088.00,1.72
6087.00,1.72
6086.00,1.72
6085.00,1.72
6084.00,1.72
6083.00,1.72
6082.00,1.72
6081.00,1.72
6080.00,1.72
6079.00,1.73
6078.00,1.73
6077.00,1.73
6076.00,1.73
6075.00,1.73
6074.00,1.73
6073.00,1.73
6072.00,1.73
6071.00,1.73
6070.00,1.74
6069.00,1.74
6068.00,1.74
6067.00,1.74
6066.00,1.75
6065.00,1.75
6064.00,1.75
6063.00,1.75
6062.00,1.76
6061.00,1.76
6060.00,1.76
6059.00,1.76
6058.00,1.76
6057.00,1.77
6056.00,1.77
6055.00,1.77
6054.00,1.77
6053.00,1.78
6052.00,1.78
6051.00,1.78
6050.00,1.78
6049.00,1.78
6048.00,1.79
6047.00,1.79
6046.00,1.79
6045.00,1.79
6044.00,1.79
6043.00,1.79
6042.00,1.80
6041.00,1.80
6040.00,1.80
6039.00,1.80
6038.00,1.80
6037.00,1.80
6036.00,1.80
6035.00,1.80
6034.00,1.80
6033.00,1.80
6032.00,1.80
6031.00,1.81
6030.00,1.81
6029.00,1.81
6028.00,1.81
6027.00,1.81
6026.00,1.81
6025.00,1.81
6024.00,1.81
6023.00,1.80
6022.00,1.80
6021.00,1.80
6020.00,1.80
6019.00,1.80
6018.00,1.80
6017.00,1.80
6016.00,1.80
6015.00,1.79
6014.00,1.79
6013.00,1.79
6012.00,1.79
6011.00,1.79
6010.00,1.79
6009.00,1.79
6008.00,1.79
6007.00,1.78
6006.00,1.78
6005.00,1.78
6004.00,1.78
6003.00,1.78
6002.00,1.78
6001.00,1.78
6000.00,1.78
5999.00,1.78
5998.00,1.78
5997.00,1.79
5996.00,1.79
5995.00,1.79
5994.00,1.79
5993.00,1.79
5992.00,1.79
5991.00,1.79
5990.00,1.79
5989.00,1.79
5988.00,1.79
5987.00,1.79
5986.00,1.79
5985.00,1.79
5984.00,1.79
5983.00,1.79
5982.00,1.79
5981.00,1.79
5980.00,1.78
5979.00,1.78
5978.00,1.78
5977.00,1.78
5976.00,1.77
5975.00,1.77
5974.00,1.77
5973.00,1.76
5972.00,1.76
5971.00,1.76
5970.00,1.75
5969.00,1.75
5968.00,1.74
5967.00,1.74
5966.00,1.73
5965.00,1.73
5964.00,1.72
5963.00,1.72
5962.00,1.71
5961.00,1.70
5960.00,1.70
5959.00,1.69
5958.00,1.69
5957.00,1.68
5956.00,1.67
5955.00,1.67
5954.00,1.66
5953.00,1.65
5952.00,1.65
5951.00,1.64
5950.00,1.63
5949.00,1.63
5948.00,1.62
5947.00,1.62
5946.00,1.61
5945.00,1.60
5944.00,1.60
5943.00,1.59
5942.00,1.59
5941.00,1.58
5940.00,1.58
5939.00,1.58
5938.00,1.57
5937.00,1.57
5936.00,1.56
5935.00,1.56
5934.00,1.56
5933.00,1.56
5932.00,1.55
5931.00,1.55
5930.00,1.55
5929.00,1.55
5928.00,1.54
5927.00,1.54
5926.00,1.54
5925.00,1.54
5924.00,1.53
5923.00,1.53
5922.00,1.53
5921.00,1.53
5920.00,1.53
5919.00,1.53
5918.00,1.52
5917.00,1.52
5916.00,1.52
5915.00,1.52
5914.00,1.52
5913.00,1.52
5912.00,1.52
5911.00,1.52
5910.00,1.52
5909.00,1.52
5908.00,1.52
5907.00,1.52
5906.00,1.52
5905.00,1.52
5904.00,1.52
5903.00,1.52
5902.00,1.52
5901.00,1.52
5900.00,1.52
5899.00,1.52
5898.00,1.52
5897.00,1.53
5896.00,1.53
5895.00,1.53
5894.00,1.53
5893.00,1.54
5892.00,1.54
5891.00,1.54
5890.00,1.54
5889.00,1.55
5888.00,1.55
5887.00,1.55
5886.00,1.56
5885.00,1.56
5884.00,1.56
5883.00,1.57
5882.00,1.57
5881.00,1.57
5880.00,1.58
5879.00,1.58
5878.00,1.58
5877.00,1.59
5876.00,1.59
5875.00,1.59
5874.00,1.60
5873.00,1.60
5872.00,1.60
5871.00,1.60
5870.00,1.61
5869.00,1.61
5868.00,1.61
5867.00,1.61
5866.00,1.61
5865.00,1.61
5864.00,1.62
5863.00,1.62
5862.00,1.62
5861.00,1.62
5860.00,1.62
5859.00,1.62
5858.00,1.62
5857.00,1.62
5856.00,1.62
5855.00,1.62
5854.00,1.62
5853.00,1.62
5852.00,1.62
5851.00,1.62
5850.00,1.62
5849.00,1.62
5848.00,1.62
5847.00,1.62
5846.00,1.62
5845.00,1.62
5844.00,1.62
5843.00,1.62
5842.00,1.62
5841.00,1.61
5840.00,1.61
5839.00,1.61
5838.00,1.61
5837.00,1.61
5836.00,1.61
5835.00,1.61
5834.00,1.61
5833.00,1.61
5832.00,1.61
5831.00,1.61
5830.00,1.61
5829.00,1.61
5828.00,1.61
5827.00,1.61
5826.00,1.61
5825.00,1.61
5824.00,1.61
5823.00,1.61
5822.00,1.61
5821.00,1.61
5820.00,1.61
5819.00,1.61
5818.00,1.61
5817.00,1.61
5816.00,1.61
5815.00,1.61
5814.00,1.61
5813.00,1.61
5812.00,1.61
5811.00,1.61
5810.00,1.61
5809.00,1.61
5808.00,1.61
5807.00,1.61
5806.00,1.61
5805.00,1.61
5804.00,1.61
5803.00,1.61
5802.00,1.61
5801.00,1.61
5800.00,1.61
5799.00,1.61
5798.00,1.61
5797.00,1.61
5796.00,1.61
5795.00,1.61
5794.00,1.61
5793.00,1.60
5792.00,1.60
5791.00,1.60
5790.00,1.60
5789.00,1.60
5788.00,1.59
5787.00,1.59
5786.00,1.59
5785.00,1.59
5784.00,1.59
5783.00,1.59
5782.00,1.59
5781.00,1.58
5780.00,1.58
5779.00,1.58
5778.00,1.58
5777.00,1.58
5776.00,1.58
5775.00,1.57
5774.00,1.57
5773.00,1.57
5772.00,1.57
5771.00,1.57
5770.00,1.57
5769.00,1.57
5768.00,1.57
5767.00,1.57
5766.00,1.58
5765.00,1.58
5764.00,1.58
5763.00,1.58
5762.00,1.58
5761.00,1.58
5760.00,1.59
5759.00,1.59
5758.00,1.59
5757.00,1.59
5756.00,1.59
5755.00,1.60
5754.00,1.60
5753.00,1.60
5752.00,1.60
5751.00,1.61
5750.00,1.61
5749.00,1.61
5748.00,1.61
5747.00,1.61
5746.00,1.62
5745.00,1.62
5744.00,1.62
5743.00,1.62
5742.00,1.63
5741.00,1.63
5740.00,1.63
5739.00,1.63
5738.00,1.63
5737.00,1.63
5736.00,1.63
5735.00,1.64
5734.00,1.64
5733.00,1.64
5732.00,1.64
5731.00,1.64
5730.00,1.65
5729.00,1.65
5728.00,1.65
5727.00,1.65
5726.00,1.65
5725.00,1.65
5724.00,1.66
5723.00,1.66
5722.00,1.66
5721.00,1.66
5720.00,1.66
5719.00,1.66
5718.00,1.66
5717.00,1.67
5716.00,1.67
5715.00,1.67
5714.00,1.67
5713.00,1.67
5712.00,1.67
5711.00,1.67
5710.00,1.67
5709.00,1.67
5708.00,1.66
5707.00,1.66
5706.00,1.66
5705.00,1.66
5704.00,1.66
5703.00,1.65
5702.00,1.65
5701.00,1.65
5700.00,1.65
5699.00,1.64
5698.00,1.64
5697.00,1.64
5696.00,1.64
5695.00,1.63
5694.00,1.63
5693.00,1.63
5692.00,1.62
5691.00,1.62
5690.00,1.62
5689.00,1.62
5688.00,1.61
5687.00,1.61
5686.00,1.61
5685.00,1.61
5684.00,1.61
5683.00,1.61
5682.00,1.60
5681.00,1.60
5680.00,1.60
5679.00,1.60
5678.00,1.60
5677.00,1.60
5676.00,1.60
5675.00,1.60
5674.00,1.60
5673.00,1.60
5672.00,1.60
5671.00,1.60
5670.00,1.60
5669.00,1.60
5668.00,1.60
5667.00,1.60
5666.00,1.61
5665.00,1.61
5664.00,1.61
5663.00,1.61
5662.00,1.61
5661.00,1.61
5660.00,1.61
5659.00,1.61
5658.00,1.61
5657.00,1.61
5656.00,1.61
5655.00,1.61
5654.00,1.61
5653.00,1.61
5652.00,1.61
5651.00,1.61
5650.00,1.61
5649.00,1.61
5648.00,1.61
5647.00,1.61
5646.00,1.61
5645.00,1.61
5644.00,1.61
5643.00,1.61
5642.00,1.61
5641.00,1.62
5640.00,1.62
5639.00,1.62
5638.00,1.62
5637.00,1.62
5636.00,1.62
5635.00,1.63
5634.00,1.63
5633.00,1.63
5632.00,1.63
5631.00,1.63
5630.00,1.64
5629.00,1.64
5628.00,1.64
5627.00,1.64
5626.00,1.65
5625.00,1.65
5624.00,1.65
5623.00,1.65
5622.00,1.66
5621.00,1.66
5620.00,1.66
5619.00,1.66
5618.00,1.67
5617.00,1.67
5616.00,1.67
5615.00,1.67
5614.00,1.67
5613.00,1.68
5612.00,1.68
5611.00,1.68
5610.00,1.68
5609.00,1.68
5608.00,1.68
5607.00,1.69
5606.00,1.69
5605.00,1.69
5604.00,1.69
5603.00,1.69
5602.00,1.69
5601.00,1.69
5600.00,1.70
5599.00,1.70
5598.00,1.70
5597.00,1.70
5596.00,1.70
5595.00,1.70
5594.00,1.70
5593.00,1.70
5592.00,1.70
5591.00,1.71
5590.00,1.71
5589.00,1.71
5588.00,1.71
5587.00,1.71
5586.00,1.71
5585.00,1.71
5584.00,1.71
5583.00,1.71
5582.00,1.71
5581.00,1.71
5580.00,1.71
5579.00,1.71
5578.00,1.71
5577.00,1.71
5576.00,1.71
5575.00,1.71
5574.00,1.71
5573.00,1.71
5572.00,1.71
5571.00,1.71
5570.00,1.71
5569.00,1.71
5568.00,1.71
5567.00,1.71
5566.00,1.72
5565.00,1.72
5564.00,1.72
5563.00,1.72
5562.00,1.72
5561.00,1.72
5560.00,1.72
5559.00,1.72
5558.00,1.72
5557.00,1.72
5556.00,1.73
5555.00,1.73
5554.00,1.73
5553.00,1.73
5552.00,1.73
5551.00,1.73
5550.00,1.73
5549.00,1.74
5548.00,1.74
5547.00,1.74
5546.00,1.74
5545.00,1.74
5544.00,1.74
5543.00,1.74
5542.00,1.74
5541.00,1.74
5540.00,1.74
5539.00,1.74
5538.00,1.74
5537.00,1.74
5536.00,1.74
5535.00,1.74
5534.00,1.74
5533.00,1.74
5532.00,1.74
5531.00,1.74
5530.00,1.74
5529.00,1.74
5528.00,1.74
5527.00,1.74
5526.00,1.74
5525.00,1.74
5524.00,1.74
5523.00,1.74
5522.00,1.75
5521.00,1.75
5520.00,1.75
5519.00,1.75
5518.00,1.75
5517.00,1.75
5516.00,1.75
5515.00,1.75
5514.00,1.75
5513.00,1.76
5512.00,1.76
5511.00,1.76
5510.00,1.76
5509.00,1.76
5508.00,1.76
5507.00,1.77
5506.00,1.77
5505.00,1.77
5504.00,1.77
5503.00,1.77
5502.00,1.77
5501.00,1.77
5500.00,1.78
5499.00,1.78
5498.00,1.78
5497.00,1.78
5496.00,1.78
5495.00,1.78
5494.00,1.79
5493.00,1.79
5492.00,1.79
5491.00,1.79
5490.00,1.79
5489.00,1.80
5488.00,1.80
5487.00,1.80
5486.00,1.80
5485.00,1.80
5484.00,1.80
5483.00,1.81
5482.00,1.81
5481.00,1.81
5480.00,1.81
5479.00,1.81
5478.00,1.82
5477.00,1.82
5476.00,1.82
5475.00,1.82
5474.00,1.82
5473.00,1.83
5472.00,1.83
5471.00,1.83
5470.00,1.83
5469.00,1.83
5468.00,1.84
5467.00,1.84
5466.00,1.84
5465.00,1.84
5464.00,1.84
5463.00,1.84
5462.00,1.84
5461.00,1.84
5460.00,1.85
5459.00,1.85
5458.00,1.85
5457.00,1.85
5456.00,1.85
5455.00,1.85
5454.00,1.85
5453.00,1.85
5452.00,1.86
5451.00,1.86
5450.00,1.86
5449.00,1.86
5448.00,1.86
5447.00,1.86
5446.00,1.86
5445.00,1.87
5444.00,1.87
5443.00,1.87
5442.00,1.87
5441.00,1.87
5440.00,1.87
5439.00,1.87
5438.00,1.88
5437.00,1.88
5436.00,1.88
5435.00,1.88
5434.00,1.88
5433.00,1.89
5432.00,1.89
5431.00,1.89
5430.00,1.89
5429.00,1.89
5428.00,1.89
5427.00,1.89
5426.00,1.89
5425.00,1.89
5424.00,1.89
5423.00,1.89
5422.00,1.89
5421.00,1.89
5420.00,1.89
5419.00,1.89
5418.00,1.89
5417.00,1.89
5416.00,1.89
5415.00,1.89
5414.00,1.89
5413.00,1.89
5412.00,1.89
5411.00,1.89
5410.00,1.89
5409.00,1.89
5408.00,1.89
5407.00,1.89
5406.00,1.88
5405.00,1.88
5404.00,1.88
5403.00,1.88
5402.00,1.88
5401.00,1.88
5400.00,1.88
5399.00,1.87
5398.00,1.87
5397.00,1.87
5396.00,1.87
5395.00,1.87
5394.00,1.86
5393.00,1.86
5392.00,1.85
5391.00,1.85
5390.00,1.85
5389.00,1.84
5388.00,1.84
5387.00,1.83
5386.00,1.83
5385.00,1.83
5384.00,1.82
5383.00,1.82
5382.00,1.81
5381.00,1.81
5380.00,1.81
5379.00,1.80
5378.00,1.80
5377.00,1.79
5376.00,1.79
5375.00,1.78
5374.00,1.78
5373.00,1.77
5372.00,1.76
5371.00,1.76
5370.00,1.75
5369.00,1.75
5368.00,1.74
5367.00,1.73
5366.00,1.73
5365.00,1.72
5364.00,1.72
5363.00,1.71
5362.00,1.70
5361.00,1.70
5360.00,1.69
5359.00,1.68
5358.00,1.68
5357.00,1.67
5356.00,1.66
5355.00,1.65
5354.00,1.64
5353.00,1.64
5352.00,1.63
5351.00,1.62
5350.00,1.61
5349.00,1.60
5348.00,1.59
5347.00,1.58
5346.00,1.57
5345.00,1.56
5344.00,1.56
5343.00,1.55
5342.00,1.54
5341.00,1.53
5340.00,1.52
5339.00,1.51
5338.00,1.50
5337.00,1.49
5336.00,1.48
5335.00,1.47
5334.00,1.46
5333.00,1.44
5332.00,1.43
5331.00,1.42
5330.00,1.41
5329.00,1.40
5328.00,1.39
5327.00,1.37
5326.00,1.36
5325.00,1.35
5324.00,1.33
5323.00,1.32
5322.00,1.30
5321.00,1.29
5320.00,1.28
5319.00,1.26
5318.00,1.25
5317.00,1.23
5316.00,1.22
5315.00,1.20
5314.00,1.18
5313.00,1.17
5312.00,1.16
5311.00,1.14
5310.00,1.13
5309.00,1.11
5308.00,1.10
5307.00,1.08
5306.00,1.07
5305.00,1.05
5304.00,1.04
5303.00,1.03
5302.00,1.01
5301.00,1.00
5300.00,0.99
5299.00,0.98
5298.00,0.97
5297.00,0.96
5296.00,0.95
5295.00,0.94
5294.00,0.93
5293.00,0.92
5292.00,0.91
5291.00,0.91
5290.00,0.90
5289.00,0.89
5288.00,0.89
5287.00,0.88
5286.00,0.87
5285.00,0.87
5284.00,0.86
5283.00,0.85
5282.00,0.85
5281.00,0.84
5280.00,0.84
5279.00,0.83
5278.00,0.83
5277.00,0.83
5276.00,0.82
5275.00,0.82
5274.00,0.81
5273.00,0.81
5272.00,0.80
5271.00,0.80
5270.00,0.80
5269.00,0.79
5268.00,0.79
5267.00,0.79
5266.00,0.78
5265.00,0.78
5264.00,0.77
5263.00,0.77
5262.00,0.77
5261.00,0.76
5260.00,0.76
5259.00,0.76
5258.00,0.76
5257.00,0.75
5256.00,0.75
5255.00,0.75
5254.00,0.75
5253.00,0.74
5252.00,0.74
5251.00,0.74
5250.00,0.74
5249.00,0.74
5248.00,0.74
5247.00,0.73
5246.00,0.73
5245.00,0.73
5244.00,0.73
5243.00,0.73
5242.00,0.73
5241.00,0.72
5240.00,0.72
5239.00,0.72
5238.00,0.72
5237.00,0.72
5236.00,0.72
5235.00,0.71
5234.00,0.71
5233.00,0.71
5232.00,0.71
5231.00,0.71
5230.00,0.70
5229.00,0.70
5228.00,0.70
5227.00,0.70
5226.00,0.70
5225.00,0.69
5224.00,0.69
5223.00,0.69
5222.00,0.69
5221.00,0.69
5220.00,0.68
5219.00,0.68
5218.00,0.68
5217.00,0.68
5216.00,0.68
5215.00,0.68
5214.00,0.68
5213.00,0.68
5212.00,0.67
5211.00,0.67
5210.00,0.67
5209.00,0.67
5208.00,0.67
5207.00,0.67
5206.00,0.67
5205.00,0.67
5204.00,0.67
5203.00,0.67
5202.00,0.67
5201.00,0.67
5200.00,0.67
5199.00,0.67
5198.00,0.67
5197.00,0.67
5196.00,0.67
5195.00,0.67
5194.00,0.67
5193.00,0.67
5192.00,0.67
5191.00,0.67
5190.00,0.67
5189.00,0.67
5188.00,0.67
5187.00,0.67
5186.00,0.67
5185.00,0.67
5184.00,0.67
5183.00,0.67
5182.00,0.67
5181.00,0.67
5180.00,0.67
5179.00,0.67
5178.00,0.67
5177.00,0.67
5176.00,0.67
5175.00,0.67
5174.00,0.67
5173.00,0.67
5172.00,0.67
5171.00,0.67
5170.00,0.67
5169.00,0.67
5168.00,0.67
5167.00,0.67
5166.00,0.67
5165.00,0.67
5164.00,0.67
5163.00,0.67
5162.00,0.67
5161.00,0.67
5160.00,0.67
5159.00,0.67
5158.00,0.67
5157.00,0.67
5156.00,0.67
5155.00,0.67
5154.00,0.67
5153.00,0.67
5152.00,0.67
5151.00,0.67
5150.00,0.67
5149.00,0.67
5148.00,0.67
5147.00,0.67
5146.00,0.67
5145.00,0.68
5144.00,0.68
5143.00,0.68
5142.00,0.68
5141.00,0.68
5140.00,0.68
5139.00,0.68
5138.00,0.69
5137.00,0.69
5136.00,0.69
5135.00,0.69
5134.00,0.69
5133.00,0.69
5132.00,0.70
5131.00,0.70
5130.00,0.70
5129.00,0.70
5128.00,0.70
5127.00,0.71
5126.00,0.71
5125.00,0.71
5124.00,0.71
5123.00,0.71
5122.00,0.71
5121.00,0.72
5120.00,0.72
5119.00,0.72
5118.00,0.72
5117.00,0.72
5116.00,0.72
5115.00,0.73
5114.00,0.73
5113.00,0.73
5112.00,0.73
5111.00,0.73
5110.00,0.73
5109.00,0.73
5108.00,0.73
5107.00,0.73
5106.00,0.73
5105.00,0.73
5104.00,0.74
5103.00,0.74
5102.00,0.74
5101.00,0.74
5100.00,0.74
5099.00,0.74
5098.00,0.74
5097.00,0.74
5096.00,0.74
5095.00,0.74
5094.00,0.74
5093.00,0.74
5092.00,0.74
5091.00,0.74
5090.00,0.74
5089.00,0.75
5088.00,0.75
5087.00,0.75
5086.00,0.75
5085.00,0.75
5084.00,0.75
5083.00,0.75
5082.00,0.76
5081.00,0.76
5080.00,0.76
5079.00,0.76
5078.00,0.76
5077.00,0.76
5076.00,0.77
5075.00,0.77
5074.00,0.77
5073.00,0.77
5072.00,0.77
5071.00,0.77
5070.00,0.78
5069.00,0.78
5068.00,0.78
5067.00,0.78
5066.00,0.78
5065.00,0.78
5064.00,0.78
5063.00,0.78
5062.00,0.79
5061.00,0.79
5060.00,0.79
5059.00,0.79
5058.00,0.79
5057.00,0.79
5056.00,0.79
5055.00,0.79
5054.00,0.79
5053.00,0.79
5052.00,0.80
5051.00,0.80
5050.00,0.80
5049.00,0.80
5048.00,0.80
5047.00,0.81
5046.00,0.81
5045.00,0.81
5044.00,0.81
5043.00,0.81
5042.00,0.81
5041.00,0.82
5040.00,0.82
5039.00,0.82
5038.00,0.82
5037.00,0.82
5036.00,0.83
5035.00,0.83
5034.00,0.83
5033.00,0.83
5032.00,0.83
5031.00,0.83
5030.00,0.84
5029.00,0.84
5028.00,0.84
5027.00,0.84
5026.00,0.84
5025.00,0.84
5024.00,0.84
5023.00,0.85
5022.00,0.85
5021.00,0.85
5020.00,0.85
5019.00,0.85
5018.00,0.86
5017.00,0.86
5016.00,0.86
5015.00,0.86
5014.00,0.87
5013.00,0.87
5012.00,0.87
5011.00,0.87
5010.00,0.88
5009.00,0.88
5008.00,0.89
5007.00,0.89
5006.00,0.89
5005.00,0.90
5004.00,0.90
5003.00,0.91
5002.00,0.91
5001.00,0.91
5000.00,0.92
4999.00,0.92
4998.00,0.93
4997.00,0.93
4996.00,0.93
4995.00,0.94
4994.00,0.94
4993.00,0.95
4992.00,0.95
4991.00,0.95
4990.00,0.96
4989.00,0.96
4988.00,0.96
4987.00,0.96
4986.00,0.96
4985.00,0.97
4984.00,0.97
4983.00,0.97
4982.00,0.97
4981.00,0.97
4980.00,0.97
4979.00,0.98
4978.00,0.98
4977.00,0.98
4976.00,0.98
4975.00,0.98
4974.00,0.98
4973.00,0.98
4972.00,0.98
4971.00,0.98
4970.00,0.99
4969.00,0.99
4968.00,0.99
4967.00,0.99
4966.00,0.99
4965.00,0.99
4964.00,0.99
4963.00,1.00
4962.00,1.00
4961.00,1.00
4960.00,1.00
4959.00,1.00
4958.00,1.01
4957.00,1.01
4956.00,1.01
4955.00,1.01
4954.00,1.02
4953.00,1.02
4952.00,1.02
4951.00,1.02
4950.00,1.03
4949.00,1.03
4948.00,1.03
4947.00,1.03
4946.00,1.03
4945.00,1.04
4944.00,1.04
4943.00,1.04
4942.00,1.04
4941.00,1.04
4940.00,1.05
4939.00,1.05
4938.00,1.05
4937.00,1.05
4936.00,1.05
4935.00,1.05
4934.00,1.06
4933.00,1.06
4932.00,1.06
4931.00,1.06
4930.00,1.06
4929.00,1.06
4928.00,1.06
4927.00,1.06
4926.00,1.06
4925.00,1.06
4924.00,1.06
4923.00,1.06
4922.00,1.06
4921.00,1.06
4920.00,1.06
4919.00,1.06
4918.00,1.06
4917.00,1.06
4916.00,1.06
4915.00,1.06
4914.00,1.07
4913.00,1.07
4912.00,1.07
4911.00,1.07
4910.00,1.07
4909.00,1.07
4908.00,1.07
4907.00,1.07
4906.00,1.07
4905.00,1.07
4904.00,1.07
4903.00,1.07
4902.00,1.07
4901.00,1.07
4900.00,1.07
4899.00,1.07
4898.00,1.07
4897.00,1.07
4896.00,1.08
4895.00,1.08
4894.00,1.08
4893.00,1.08
4892.00,1.08
4891.00,1.08
4890.00,1.08
4889.00,1.08
4888.00,1.09
4887.00,1.09
4886.00,1.09
4885.00,1.09
4884.00,1.09
4883.00,1.09
4882.00,1.10
4881.00,1.10
4880.00,1.10
4879.00,1.10
4878.00,1.10
4877.00,1.11
4876.00,1.11
4875.00,1.11
4874.00,1.11
4873.00,1.12
4872.00,1.12
4871.00,1.12
4870.00,1.13
4869.00,1.13
4868.00,1.13
4867.00,1.14
4866.00,1.14
4865.00,1.14
4864.00,1.14
4863.00,1.15
4862.00,1.15
4861.00,1.15
4860.00,1.15
4859.00,1.16
4858.00,1.16
4857.00,1.16
4856.00,1.16
4855.00,1.16
4854.00,1.16
4853.00,1.16
4852.00,1.17
4851.00,1.17
4850.00,1.17
4849.00,1.17
4848.00,1.17
4847.00,1.17
4846.00,1.17
4845.00,1.17
4844.00,1.17
4843.00,1.17
4842.00,1.17
4841.00,1.17
4840.00,1.17
4839.00,1.17
4838.00,1.17
4837.00,1.17
4836.00,1.17
4835.00,1.17
4834.00,1.17
4833.00,1.17
4832.00,1.17
4831.00,1.17
4830.00,1.17
4829.00,1.17
4828.00,1.17
4827.00,1.17
4826.00,1.17
4825.00,1.17
4824.00,1.17
4823.00,1.17
4822.00,1.17
4821.00,1.17
4820.00,1.18
4819.00,1.18
4818.00,1.18
4817.00,1.18
4816.00,1.18
4815.00,1.18
4814.00,1.18
4813.00,1.18
4812.00,1.19
4811.00,1.19
4810.00,1.19
4809.00,1.19
4808.00,1.20
4807.00,1.20
4806.00,1.20
4805.00,1.21
4804.00,1.21
4803.00,1.21
4802.00,1.22
4801.00,1.22
4800.00,1.22
4799.00,1.23
4798.00,1.23
4797.00,1.23
4796.00,1.24
4795.00,1.24
4794.00,1.24
4793.00,1.25
4792.00,1.25
4791.00,1.26
4790.00,1.26
4789.00,1.26
4788.00,1.27
4787.00,1.27
4786.00,1.28
4785.00,1.28
4784.00,1.29
4783.00,1.29
4782.00,1.29
4781.00,1.30
4780.00,1.30
4779.00,1.31
4778.00,1.31
4777.00,1.31
4776.00,1.32
4775.00,1.32
4774.00,1.33
4773.00,1.33
4772.00,1.34
4771.00,1.34
4770.00,1.34
4769.00,1.35
4768.00,1.35
4767.00,1.36
4766.00,1.36
4765.00,1.36
4764.00,1.37
4763.00,1.37
4762.00,1.37
4761.00,1.37
4760.00,1.38
4759.00,1.38
4758.00,1.38
4757.00,1.38
4756.00,1.39
4755.00,1.39
4754.00,1.39
4753.00,1.40
4752.00,1.40
4751.00,1.40
4750.00,1.40
4749.00,1.40
4748.00,1.40
4747.00,1.41
4746.00,1.41
4745.00,1.41
4744.00,1.41
4743.00,1.41
4742.00,1.41
4741.00,1.41
4740.00,1.41
4739.00,1.41
4738.00,1.42
4737.00,1.42
4736.00,1.42
4735.00,1.42
4734.00,1.43
4733.00,1.43
4732.00,1.43
4731.00,1.44
4730.00,1.44
4729.00,1.44
4728.00,1.45
4727.00,1.45
4726.00,1.45
4725.00,1.46
4724.00,1.46
4723.00,1.47
4722.00,1.47
4721.00,1.48
4720.00,1.48
4719.00,1.49
4718.00,1.49
4717.00,1.50
4716.00,1.50
4715.00,1.51
4714.00,1.51
4713.00,1.52
4712.00,1.52
4711.00,1.53
4710.00,1.53
4709.00,1.54
4708.00,1.54
4707.00,1.54
4706.00,1.55
4705.00,1.55
4704.00,1.55
4703.00,1.55
4702.00,1.55
4701.00,1.56
4700.00,1.56
4699.00,1.56
4698.00,1.56
4697.00,1.56
4696.00,1.56
4695.00,1.57
4694.00,1.57
4693.00,1.57
4692.00,1.57
4691.00,1.58
4690.00,1.58
4689.00,1.58
4688.00,1.58
4687.00,1.59
4686.00,1.59
4685.00,1.59
4684.00,1.60
4683.00,1.60
4682.00,1.61
4681.00,1.61
4680.00,1.62
4679.00,1.63
4678.00,1.63
4677.00,1.64
4676.00,1.64
4675.00,1.65
4674.00,1.66
4673.00,1.66
4672.00,1.67
4671.00,1.68
4670.00,1.68
4669.00,1.69
4668.00,1.69
4667.00,1.70
4666.00,1.70
4665.00,1.71
4664.00,1.71
4663.00,1.71
4662.00,1.72
4661.00,1.72
4660.00,1.72
4659.00,1.73
4658.00,1.73
4657.00,1.73
4656.00,1.73
4655.00,1.73
4654.00,1.73
4653.00,1.74
4652.00,1.74
4651.00,1.74
4650.00,1.74
4649.00,1.74
4648.00,1.74
4647.00,1.74
4646.00,1.74
4645.00,1.74
4644.00,1.74
4643.00,1.74
4642.00,1.74
4641.00,1.75
4640.00,1.75
4639.00,1.75
4638.00,1.75
4637.00,1.75
4636.00,1.76
4635.00,1.76
4634.00,1.76
4633.00,1.77
4632.00,1.77
4631.00,1.77
4630.00,1.77
4629.00,1.77
4628.00,1.77
4627.00,1.78
4626.00,1.78
4625.00,1.78
4624.00,1.78
4623.00,1.78
4622.00,1.78
4621.00,1.79
4620.00,1.79
4619.00,1.79
4618.00,1.79
4617.00,1.79
4616.00,1.79
4615.00,1.79
4614.00,1.80
4613.00,1.80
4612.00,1.80
4611.00,1.80
4610.00,1.80
4609.00,1.80
4608.00,1.80
4607.00,1.80
4606.00,1.80
4605.00,1.80
4604.00,1.80
4603.00,1.80
4602.00,1.80
4601.00,1.80
4600.00,1.80
4599.00,1.80
4598.00,1.80
4597.00,1.80
4596.00,1.80
4595.00,1.80
4594.00,1.80
4593.00,1.81
4592.00,1.81
4591.00,1.81
4590.00,1.81
4589.00,1.81
4588.00,1.81
4587.00,1.81
4586.00,1.81
4585.00,1.81
4584.00,1.81
4583.00,1.82
4582.00,1.82
4581.00,1.82
4580.00,1.82
4579.00,1.82
4578.00,1.83
4577.00,1.83
4576.00,1.83
4575.00,1.83
4574.00,1.84
4573.00,1.84
4572.00,1.84
4571.00,1.84
4570.00,1.85
4569.00,1.85
4568.00,1.85
4567.00,1.85
4566.00,1.86
4565.00,1.86
4564.00,1.86
4563.00,1.86
4562.00,1.87
4561.00,1.87
4560.00,1.87
4559.00,1.88
4558.00,1.88
4557.00,1.88
4556.00,1.88
4555.00,1.88
4554.00,1.89
4553.00,1.89
4552.00,1.89
4551.00,1.89
4550.00,1.89
4549.00,1.89
4548.00,1.89
4547.00,1.89
4546.00,1.89
4545.00,1.89
4544.00,1.88
4543.00,1.88
4542.00,1.88
4541.00,1.88
4540.00,1.88
4539.00,1.88
4538.00,1.88
4537.00,1.88
4536.00,1.88
4535.00,1.87
4534.00,1.87
4533.00,1.87
4532.00,1.87
4531.00,1.87
4530.00,1.86
4529.00,1.86
4528.00,1.86
4527.00,1.86
4526.00,1.86
4525.00,1.86
4524.00,1.85
4523.00,1.85
4522.00,1.85
4521.00,1.85
4520.00,1.85
4519.00,1.85
4518.00,1.85
4517.00,1.85
4516.00,1.84
4515.00,1.84
4514.00,1.84
4513.00,1.84
4512.00,1.84
4511.00,1.84
4510.00,1.84
4509.00,1.84
4508.00,1.84
4507.00,1.84
4506.00,1.84
4505.00,1.84
4504.00,1.84
4503.00,1.85
4502.00,1.85
4501.00,1.85
4500.00,1.85
4499.00,1.85
4498.00,1.86
4497.00,1.86
4496.00,1.86
4495.00,1.86
4494.00,1.86
4493.00,1.87
4492.00,1.87
4491.00,1.87
4490.00,1.87
4489.00,1.87
4488.00,1.87
4487.00,1.87
4486.00,1.87
4485.00,1.87
4484.00,1.87
4483.00,1.87
4482.00,1.87
4481.00,1.87
4480.00,1.87
4479.00,1.86
4478.00,1.86
4477.00,1.86
4476.00,1.85
4475.00,1.85
4474.00,1.84
4473.00,1.84
4472.00,1.83
4471.00,1.83
4470.00,1.82
4469.00,1.81
4468.00,1.81
4467.00,1.80
4466.00,1.79
4465.00,1.79
4464.00,1.78
4463.00,1.77
4462.00,1.76
4461.00,1.75
4460.00,1.74
4459.00,1.74
4458.00,1.73
4457.00,1.72
4456.00,1.71
4455.00,1.69
4454.00,1.68
4453.00,1.67
4452.00,1.66
4451.00,1.65
4450.00,1.63
4449.00,1.62
4448.00,1.61
4447.00,1.60
4446.00,1.58
4445.00,1.57
4444.00,1.56
4443.00,1.54
4442.00,1.53
4441.00,1.52
4440.00,1.50
4439.00,1.49
4438.00,1.48
4437.00,1.46
4436.00,1.45
4435.00,1.44
4434.00,1.43
4433.00,1.41
4432.00,1.40
4431.00,1.39
4430.00,1.38
4429.00,1.37
4428.00,1.36
4427.00,1.35
4426.00,1.35
4425.00,1.34
4424.00,1.33
4423.00,1.33
4422.00,1.32
4421.00,1.32
4420.00,1.31
4419.00,1.31
4418.00,1.30
4417.00,1.30
4416.00,1.30
4415.00,1.30
4414.00,1.29
4413.00,1.29
4412.00,1.29
4411.00,1.29
4410.00,1.29
4409.00,1.29
4408.00,1.29
4407.00,1.29
4406.00,1.29
4405.00,1.30
4404.00,1.30
4403.00,1.30
4402.00,1.30
4401.00,1.30
4400.00,1.30
4399.00,1.31
4398.00,1.31
4397.00,1.31
4396.00,1.31
4395.00,1.31
4394.00,1.32
4393.00,1.32
4392.00,1.32
4391.00,1.33
4390.00,1.33
4389.00,1.33
4388.00,1.34
4387.00,1.34
4386.00,1.34
4385.00,1.35
4384.00,1.35
4383.00,1.35
4382.00,1.35
4381.00,1.36
4380.00,1.36
4379.00,1.36
4378.00,1.36
4377.00,1.36
4376.00,1.36
4375.00,1.36
4374.00,1.36
4373.00,1.36
4372.00,1.37
4371.00,1.37
4370.00,1.36
4369.00,1.36
4368.00,1.36
4367.00,1.36
4366.00,1.36
4365.00,1.36
4364.00,1.36
4363.00,1.36
4362.00,1.35
4361.00,1.35
4360.00,1.34
4359.00,1.34
4358.00,1.34
4357.00,1.33
4356.00,1.33
4355.00,1.33
4354.00,1.33
4353.00,1.32
4352.00,1.32
4351.00,1.32
4350.00,1.32
4349.00,1.32
4348.00,1.32
4347.00,1.31
4346.00,1.31
4345.00,1.31
4344.00,1.31
4343.00,1.31
4342.00,1.31
4341.00,1.32
4340.00,1.32
4339.00,1.32
4338.00,1.32
4337.00,1.33
4336.00,1.33
4335.00,1.33
4334.00,1.34
4333.00,1.34
4332.00,1.34
4331.00,1.35
4330.00,1.36
4329.00,1.36
4328.00,1.37
4327.00,1.37
4326.00,1.38
4325.00,1.39
4324.00,1.40
4323.00,1.40
4322.00,1.41
4321.00,1.42
4320.00,1.43
4319.00,1.44
4318.00,1.44
4317.00,1.45
4316.00,1.46
4315.00,1.47
4314.00,1.47
4313.00,1.48
4312.00,1.49
4311.00,1.50
4310.00,1.50
4309.00,1.51
4308.00,1.52
4307.00,1.53
4306.00,1.54
4305.00,1.55
4304.00,1.56
4303.00,1.56
4302.00,1.57
4301.00,1.58
4300.00,1.58
4299.00,1.59
4298.00,1.59
4297.00,1.60
4296.00,1.60
4295.00,1.61
4294.00,1.61
4293.00,1.62
4292.00,1.62
4291.00,1.62
4290.00,1.63
4289.00,1.63
4288.00,1.63
4287.00,1.64
4286.00,1.64
4285.00,1.64
4284.00,1.64
4283.00,1.64
4282.00,1.64
4281.00,1.64
4280.00,1.64
4279.00,1.63
4278.00,1.63
4277.00,1.63
4276.00,1.63
4275.00,1.62
4274.00,1.62
4273.00,1.62
4272.00,1.61
4271.00,1.61
4270.00,1.61
4269.00,1.61
4268.00,1.60
4267.00,1.60
4266.00,1.60
4265.00,1.59
4264.00,1.59
4263.00,1.59
4262.00,1.58
4261.00,1.58
4260.00,1.58
4259.00,1.58
4258.00,1.58
4257.00,1.58
4256.00,1.57
4255.00,1.57
4254.00,1.57
4253.00,1.57
4252.00,1.57
4251.00,1.57
4250.00,1.57
4249.00,1.57
4248.00,1.58
4247.00,1.58
4246.00,1.58
4245.00,1.58
4244.00,1.59
4243.00,1.59
4242.00,1.59
4241.00,1.60
4240.00,1.60
4239.00,1.61
4238.00,1.61
4237.00,1.61
4236.00,1.62
4235.00,1.62
4234.00,1.62
4233.00,1.63
4232.00,1.63
4231.00,1.63
4230.00,1.64
4229.00,1.64
4228.00,1.64
4227.00,1.65
4226.00,1.65
4225.00,1.66
4224.00,1.66
4223.00,1.67
4222.00,1.67
4221.00,1.68
4220.00,1.68
4219.00,1.68
4218.00,1.68
4217.00,1.69
4216.00,1.69
4215.00,1.69
4214.00,1.69
4213.00,1.69
4212.00,1.69
4211.00,1.70
4210.00,1.70
4209.00,1.70
4208.00,1.71
4207.00,1.71
4206.00,1.71
4205.00,1.72
4204.00,1.72
4203.00,1.72
4202.00,1.72
4201.00,1.72
4200.00,1.72
4199.00,1.72
4198.00,1.72
4197.00,1.72
4196.00,1.72
4195.00,1.72
4194.00,1.72
4193.00,1.72
4192.00,1.72
4191.00,1.72
4190.00,1.72
4189.00,1.72
4188.00,1.72
4187.00,1.71
4186.00,1.71
4185.00,1.71
4184.00,1.71
4183.00,1.71
4182.00,1.70
4181.00,1.70
4180.00,1.70
4179.00,1.69
4178.00,1.69
4177.00,1.69
4176.00,1.69
4175.00,1.69
4174.00,1.69
4173.00,1.69
4172.00,1.69
4171.00,1.69
4170.00,1.69
4169.00,1.69
4168.00,1.69
4167.00,1.69
4166.00,1.69
4165.00,1.69
4164.00,1.69
4163.00,1.68
4162.00,1.68
4161.00,1.68
4160.00,1.68
4159.00,1.68
4158.00,1.68
4157.00,1.68
4156.00,1.68
4155.00,1.67
4154.00,1.67
4153.00,1.67
4152.00,1.66
4151.00,1.66
4150.00,1.65
4149.00,1.65
4148.00,1.64
4147.00,1.64
4146.00,1.63
4145.00,1.63
4144.00,1.62
4143.00,1.61
4142.00,1.61
4141.00,1.61
4140.00,1.60
4139.00,1.60
4138.00,1.60
4137.00,1.59
4136.00,1.59
4135.00,1.59
4134.00,1.59
4133.00,1.58
4132.00,1.58
4131.00,1.58
4130.00,1.58
4129.00,1.58
4128.00,1.58
4127.00,1.58
4126.00,1.59
4125.00,1.59
4124.00,1.59
4123.00,1.60
4122.00,1.60
4121.00,1.61
4120.00,1.61
4119.00,1.62
4118.00,1.63
4117.00,1.64
4116.00,1.65
4115.00,1.65
4114.00,1.66
4113.00,1.67
4112.00,1.67
4111.00,1.68
4110.00,1.69
4109.00,1.69
4108.00,1.70
4107.00,1.71
4106.00,1.72
4105.00,1.73
4104.00,1.73
4103.00,1.74
4102.00,1.75
4101.00,1.75
4100.00,1.76
4099.00,1.76
4098.00,1.77
4097.00,1.77
4096.00,1.78
4095.00,1.78
4094.00,1.78
4093.00,1.78
4092.00,1.78
4091.00,1.78
4090.00,1.78
4089.00,1.78
4088.00,1.78
4087.00,1.77
4086.00,1.77
4085.00,1.76
4084.00,1.76
4083.00,1.75
4082.00,1.75
4081.00,1.74
4080.00,1.73
4079.00,1.73
4078.00,1.72
4077.00,1.71
4076.00,1.70
4075.00,1.69
4074.00,1.69
4073.00,1.68
4072.00,1.67
4071.00,1.66
4070.00,1.65
4069.00,1.65
4068.00,1.64
4067.00,1.63
4066.00,1.63
4065.00,1.62
4064.00,1.61
4063.00,1.61
4062.00,1.60
4061.00,1.60
4060.00,1.60
4059.00,1.60
4058.00,1.60
4057.00,1.60
4056.00,1.60
4055.00,1.61
4054.00,1.61
4053.00,1.61
4052.00,1.62
4051.00,1.62
4050.00,1.63
4049.00,1.63
4048.00,1.64
4047.00,1.65
4046.00,1.65
4045.00,1.66
4044.00,1.66
4043.00,1.67
4042.00,1.68
4041.00,1.68
4040.00,1.69
4039.00,1.70
4038.00,1.71
4037.00,1.72
4036.00,1.72
4035.00,1.73
4034.00,1.74
4033.00,1.74
4032.00,1.74
4031.00,1.74
4030.00,1.74
4029.00,1.74
4028.00,1.75
4027.00,1.75
4026.00,1.75
4025.00,1.75
4024.00,1.75
4023.00,1.75
4022.00,1.75
4021.00,1.76
4020.00,1.76
4019.00,1.77
4018.00,1.77
4017.00,1.78
4016.00,1.79
4015.00,1.79
4014.00,1.80
4013.00,1.81
4012.00,1.82
4011.00,1.83
4010.00,1.84
4009.00,1.85
4008.00,1.87
4007.00,1.88
4006.00,1.90
4005.00,1.92
4004.00,1.94
4003.00,1.96
4002.00,1.98
4001.00,2.00
4000.00,2.02
