创建为新数据集,样品 1259 用户 Administrator 日期 星期六, 八月 17 2019
cm-1,%T
10000.00,1.46
9998.00,1.46
9996.00,1.46
9994.00,1.46
9992.00,1.46
9990.00,1.46
9988.00,1.46
9986.00,1.46
9984.00,1.46
9982.00,1.46
9980.00,1.46
9978.00,1.46
9976.00,1.46
9974.00,1.46
9972.00,1.46
9970.00,1.46
9968.00,1.46
9966.00,1.46
9964.00,1.46
9962.00,1.46
9960.00,1.46
9958.00,1.46
9956.00,1.46
9954.00,1.45
9952.00,1.45
9950.00,1.45
9948.00,1.45
9946.00,1.45
9944.00,1.45
9942.00,1.45
9940.00,1.45
9938.00,1.45
9936.00,1.45
9934.00,1.45
9932.00,1.45
9930.00,1.45
9928.00,1.45
9926.00,1.45
9924.00,1.45
9922.00,1.45
9920.00,1.45
9918.00,1.45
9916.00,1.45
9914.00,1.45
9912.00,1.45
9910.00,1.45
9908.00,1.45
9906.00,1.45
9904.00,1.45
9902.00,1.44
9900.00,1.44
9898.00,1.44
9896.00,1.44
9894.00,1.44
9892.00,1.44
9890.00,1.43
9888.00,1.43
9886.00,1.43
9884.00,1.43
9882.00,1.43
9880.00,1.43
9878.00,1.43
9876.00,1.43
9874.00,1.43
9872.00,1.43
9870.00,1.43
9868.00,1.43
9866.00,1.43
9864.00,1.44
9862.00,1.44
9860.00,1.44
9858.00,1.44
9856.00,1.44
9854.00,1.44
9852.00,1.45
9850.00,1.45
9848.00,1.45
9846.00,1.45
9844.00,1.45
9842.00,1.45
9840.00,1.45
9838.00,1.45
9836.00,1.45
9834.00,1.46
9832.00,1.46
9830.00,1.46
9828.00,1.46
9826.00,1.46
9824.00,1.46
9822.00,1.46
9820.00,1.46
9818.00,1.46
9816.00,1.45
9814.00,1.45
9812.00,1.45
9810.00,1.45
9808.00,1.45
9806.00,1.45
9804.00,1.45
9802.00,1.45
9800.00,1.45
9798.00,1.44
9796.00,1.44
9794.00,1.44
9792.00,1.44
9790.00,1.44
9788.00,1.44
9786.00,1.43
9784.00,1.43
9782.00,1.43
9780.00,1.43
9778.00,1.43
9776.00,1.43
9774.00,1.43
9772.00,1.42
9770.00,1.42
9768.00,1.42
9766.00,1.42
9764.00,1.42
9762.00,1.42
9760.00,1.42
9758.00,1.42
9756.00,1.42
9754.00,1.42
9752.00,1.42
9750.00,1.42
9748.00,1.42
9746.00,1.42
9744.00,1.42
9742.00,1.42
9740.00,1.42
9738.00,1.43
9736.00,1.43
9734.00,1.43
9732.00,1.43
9730.00,1.43
9728.00,1.43
9726.00,1.43
9724.00,1.43
9722.00,1.43
9720.00,1.43
9718.00,1.43
9716.00,1.43
9714.00,1.43
9712.00,1.43
9710.00,1.43
9708.00,1.44
9706.00,1.44
9704.00,1.44
9702.00,1.44
9700.00,1.44
9698.00,1.44
9696.00,1.44
9694.00,1.44
9692.00,1.44
9690.00,1.44
9688.00,1.44
9686.00,1.44
9684.00,1.44
9682.00,1.44
9680.00,1.44
9678.00,1.44
9676.00,1.44
9674.00,1.44
9672.00,1.44
9670.00,1.44
9668.00,1.44
9666.00,1.44
9664.00,1.44
9662.00,1.44
9660.00,1.44
9658.00,1.44
9656.00,1.44
9654.00,1.44
9652.00,1.44
9650.00,1.44
9648.00,1.44
9646.00,1.44
9644.00,1.44
9642.00,1.44
9640.00,1.44
9638.00,1.44
9636.00,1.44
9634.00,1.44
9632.00,1.44
9630.00,1.44
9628.00,1.44
9626.00,1.44
9624.00,1.44
9622.00,1.44
9620.00,1.44
9618.00,1.44
9616.00,1.44
9614.00,1.43
9612.00,1.43
9610.00,1.43
9608.00,1.43
9606.00,1.43
9604.00,1.43
9602.00,1.43
9600.00,1.43
9598.00,1.43
9596.00,1.43
9594.00,1.43
9592.00,1.43
9590.00,1.43
9588.00,1.43
9586.00,1.44
9584.00,1.44
9582.00,1.44
9580.00,1.44
9578.00,1.44
9576.00,1.44
9574.00,1.45
9572.00,1.45
9570.00,1.45
9568.00,1.45
9566.00,1.45
9564.00,1.45
9562.00,1.45
9560.00,1.45
9558.00,1.45
9556.00,1.45
9554.00,1.45
9552.00,1.45
9550.00,1.45
9548.00,1.45
9546.00,1.45
9544.00,1.45
9542.00,1.44
9540.00,1.44
9538.00,1.44
9536.00,1.44
9534.00,1.44
9532.00,1.44
9530.00,1.44
9528.00,1.44
9526.00,1.43
9524.00,1.43
9522.00,1.43
9520.00,1.43
9518.00,1.43
9516.00,1.43
9514.00,1.43
9512.00,1.43
9510.00,1.43
9508.00,1.43
9506.00,1.42
9504.00,1.42
9502.00,1.42
9500.00,1.42
9498.00,1.42
9496.00,1.42
9494.00,1.42
9492.00,1.42
9490.00,1.43
9488.00,1.43
9486.00,1.43
9484.00,1.43
9482.00,1.43
9480.00,1.43
9478.00,1.43
9476.00,1.43
9474.00,1.43
9472.00,1.43
9470.00,1.43
9468.00,1.43
9466.00,1.43
9464.00,1.43
9462.00,1.43
9460.00,1.43
9458.00,1.43
9456.00,1.43
9454.00,1.43
9452.00,1.43
9450.00,1.43
9448.00,1.43
9446.00,1.43
9444.00,1.44
9442.00,1.44
9440.00,1.44
9438.00,1.44
9436.00,1.44
9434.00,1.44
9432.00,1.44
9430.00,1.45
9428.00,1.45
9426.00,1.45
9424.00,1.45
9422.00,1.45
9420.00,1.45
9418.00,1.45
9416.00,1.45
9414.00,1.45
9412.00,1.45
9410.00,1.45
9408.00,1.46
9406.00,1.46
9404.00,1.46
9402.00,1.46
9400.00,1.46
9398.00,1.46
9396.00,1.46
9394.00,1.46
9392.00,1.46
9390.00,1.46
9388.00,1.46
9386.00,1.46
9384.00,1.46
9382.00,1.45
9380.00,1.45
9378.00,1.45
9376.00,1.45
9374.00,1.45
9372.00,1.45
9370.00,1.45
9368.00,1.45
9366.00,1.45
9364.00,1.45
9362.00,1.45
9360.00,1.44
9358.00,1.44
9356.00,1.44
9354.00,1.44
9352.00,1.44
9350.00,1.44
9348.00,1.44
9346.00,1.44
9344.00,1.44
9342.00,1.44
9340.00,1.44
9338.00,1.44
9336.00,1.44
9334.00,1.44
9332.00,1.44
9330.00,1.44
9328.00,1.44
9326.00,1.44
9324.00,1.44
9322.00,1.44
9320.00,1.44
9318.00,1.44
9316.00,1.44
9314.00,1.44
9312.00,1.44
9310.00,1.45
9308.00,1.45
9306.00,1.45
9304.00,1.45
9302.00,1.45
9300.00,1.45
9298.00,1.45
9296.00,1.45
9294.00,1.45
9292.00,1.45
9290.00,1.44
9288.00,1.44
9286.00,1.44
9284.00,1.44
9282.00,1.44
9280.00,1.44
9278.00,1.44
9276.00,1.43
9274.00,1.43
9272.00,1.43
9270.00,1.43
9268.00,1.43
9266.00,1.43
9264.00,1.43
9262.00,1.42
9260.00,1.42
9258.00,1.42
9256.00,1.42
9254.00,1.42
9252.00,1.42
9250.00,1.42
9248.00,1.42
9246.00,1.42
9244.00,1.42
9242.00,1.42
9240.00,1.42
9238.00,1.42
9236.00,1.42
9234.00,1.42
9232.00,1.42
9230.00,1.42
9228.00,1.42
9226.00,1.42
9224.00,1.42
9222.00,1.42
9220.00,1.42
9218.00,1.42
9216.00,1.42
9214.00,1.42
9212.00,1.42
9210.00,1.42
9208.00,1.42
9206.00,1.42
9204.00,1.42
9202.00,1.42
9200.00,1.42
9198.00,1.42
9196.00,1.42
9194.00,1.43
9192.00,1.43
9190.00,1.43
9188.00,1.43
9186.00,1.43
9184.00,1.43
9182.00,1.44
9180.00,1.44
9178.00,1.44
9176.00,1.44
9174.00,1.44
9172.00,1.44
9170.00,1.44
9168.00,1.44
9166.00,1.45
9164.00,1.45
9162.00,1.45
9160.00,1.45
9158.00,1.45
9156.00,1.45
9154.00,1.45
9152.00,1.45
9150.00,1.45
9148.00,1.45
9146.00,1.45
9144.00,1.45
9142.00,1.45
9140.00,1.45
9138.00,1.45
9136.00,1.45
9134.00,1.45
9132.00,1.45
9130.00,1.44
9128.00,1.44
9126.00,1.44
9124.00,1.44
9122.00,1.44
9120.00,1.43
9118.00,1.43
9116.00,1.43
9114.00,1.43
9112.00,1.43
9110.00,1.43
9108.00,1.42
9106.00,1.42
9104.00,1.42
9102.00,1.42
9100.00,1.42
9098.00,1.42
9096.00,1.42
9094.00,1.43
9092.00,1.43
9090.00,1.43
9088.00,1.43
9086.00,1.43
9084.00,1.43
9082.00,1.43
9080.00,1.44
9078.00,1.44
9076.00,1.44
9074.00,1.44
9072.00,1.44
9070.00,1.44
9068.00,1.44
9066.00,1.45
9064.00,1.45
9062.00,1.45
9060.00,1.45
9058.00,1.45
9056.00,1.45
9054.00,1.45
9052.00,1.45
9050.00,1.45
9048.00,1.45
9046.00,1.45
9044.00,1.44
9042.00,1.44
9040.00,1.44
9038.00,1.44
9036.00,1.44
9034.00,1.44
9032.00,1.44
9030.00,1.44
9028.00,1.44
9026.00,1.44
9024.00,1.44
9022.00,1.44
9020.00,1.44
9018.00,1.44
9016.00,1.44
9014.00,1.44
9012.00,1.44
9010.00,1.44
9008.00,1.44
9006.00,1.44
9004.00,1.44
9002.00,1.44
9000.00,1.44
8998.00,1.44
8996.00,1.44
8994.00,1.44
8992.00,1.44
8990.00,1.44
8988.00,1.44
8986.00,1.44
8984.00,1.44
8982.00,1.44
8980.00,1.44
8978.00,1.44
8976.00,1.44
8974.00,1.44
8972.00,1.44
8970.00,1.44
8968.00,1.44
8966.00,1.44
8964.00,1.44
8962.00,1.44
8960.00,1.44
8958.00,1.43
8956.00,1.43
8954.00,1.43
8952.00,1.43
8950.00,1.43
8948.00,1.43
8946.00,1.43
8944.00,1.43
8942.00,1.43
8940.00,1.43
8938.00,1.43
8936.00,1.44
8934.00,1.44
8932.00,1.44
8930.00,1.44
8928.00,1.44
8926.00,1.44
8924.00,1.44
8922.00,1.44
8920.00,1.44
8918.00,1.44
8916.00,1.44
8914.00,1.44
8912.00,1.44
8910.00,1.44
8908.00,1.44
8906.00,1.44
8904.00,1.44
8902.00,1.44
8900.00,1.44
8898.00,1.44
8896.00,1.44
8894.00,1.44
8892.00,1.44
8890.00,1.44
8888.00,1.44
8886.00,1.44
8884.00,1.44
8882.00,1.44
8880.00,1.44
8878.00,1.44
8876.00,1.44
8874.00,1.44
8872.00,1.44
8870.00,1.44
8868.00,1.44
8866.00,1.44
8864.00,1.44
8862.00,1.44
8860.00,1.44
8858.00,1.44
8856.00,1.44
8854.00,1.44
8852.00,1.44
8850.00,1.44
8848.00,1.44
8846.00,1.44
8844.00,1.44
8842.00,1.44
8840.00,1.44
8838.00,1.44
8836.00,1.44
8834.00,1.44
8832.00,1.44
8830.00,1.44
8828.00,1.44
8826.00,1.44
8824.00,1.44
8822.00,1.44
8820.00,1.44
8818.00,1.44
8816.00,1.44
8814.00,1.44
8812.00,1.44
8810.00,1.44
8808.00,1.44
8806.00,1.44
8804.00,1.44
8802.00,1.44
8800.00,1.44
8798.00,1.44
8796.00,1.44
8794.00,1.44
8792.00,1.44
8790.00,1.45
8788.00,1.45
8786.00,1.45
8784.00,1.44
8782.00,1.44
8780.00,1.44
8778.00,1.44
8776.00,1.44
8774.00,1.44
8772.00,1.44
8770.00,1.44
8768.00,1.44
8766.00,1.43
8764.00,1.43
8762.00,1.43
8760.00,1.43
8758.00,1.43
8756.00,1.43
8754.00,1.43
8752.00,1.42
8750.00,1.42
8748.00,1.42
8746.00,1.42
8744.00,1.42
8742.00,1.42
8740.00,1.42
8738.00,1.43
8736.00,1.43
8734.00,1.43
8732.00,1.43
8730.00,1.43
8728.00,1.43
8726.00,1.43
8724.00,1.43
8722.00,1.43
8720.00,1.43
8718.00,1.43
8716.00,1.42
8714.00,1.42
8712.00,1.42
8710.00,1.42
8708.00,1.42
8706.00,1.42
8704.00,1.42
8702.00,1.42
8700.00,1.42
8698.00,1.42
8696.00,1.42
8694.00,1.42
8692.00,1.41
8690.00,1.41
8688.00,1.41
8686.00,1.41
8684.00,1.41
8682.00,1.41
8680.00,1.41
8678.00,1.41
8676.00,1.41
8674.00,1.41
8672.00,1.41
8670.00,1.41
8668.00,1.41
8666.00,1.41
8664.00,1.41
8662.00,1.41
8660.00,1.41
8658.00,1.41
8656.00,1.41
8654.00,1.41
8652.00,1.41
8650.00,1.41
8648.00,1.41
8646.00,1.41
8644.00,1.41
8642.00,1.41
8640.00,1.41
8638.00,1.41
8636.00,1.41
8634.00,1.41
8632.00,1.42
8630.00,1.42
8628.00,1.42
8626.00,1.42
8624.00,1.42
8622.00,1.42
8620.00,1.42
8618.00,1.43
8616.00,1.43
8614.00,1.43
8612.00,1.43
8610.00,1.43
8608.00,1.43
8606.00,1.43
8604.00,1.43
8602.00,1.43
8600.00,1.43
8598.00,1.43
8596.00,1.43
8594.00,1.43
8592.00,1.43
8590.00,1.43
8588.00,1.42
8586.00,1.42
8584.00,1.42
8582.00,1.42
8580.00,1.42
8578.00,1.42
8576.00,1.42
8574.00,1.42
8572.00,1.42
8570.00,1.42
8568.00,1.42
8566.00,1.42
8564.00,1.42
8562.00,1.42
8560.00,1.42
8558.00,1.42
8556.00,1.42
8554.00,1.42
8552.00,1.42
8550.00,1.42
8548.00,1.42
8546.00,1.42
8544.00,1.42
8542.00,1.42
8540.00,1.42
8538.00,1.43
8536.00,1.43
8534.00,1.42
8532.00,1.42
8530.00,1.42
8528.00,1.42
8526.00,1.42
8524.00,1.42
8522.00,1.42
8520.00,1.42
8518.00,1.42
8516.00,1.42
8514.00,1.42
8512.00,1.42
8510.00,1.42
8508.00,1.42
8506.00,1.42
8504.00,1.41
8502.00,1.41
8500.00,1.41
8498.00,1.41
8496.00,1.41
8494.00,1.41
8492.00,1.41
8490.00,1.40
8488.00,1.40
8486.00,1.40
8484.00,1.40
8482.00,1.40
8480.00,1.40
8478.00,1.40
8476.00,1.40
8474.00,1.40
8472.00,1.40
8470.00,1.40
8468.00,1.39
8466.00,1.39
8464.00,1.39
8462.00,1.39
8460.00,1.39
8458.00,1.39
8456.00,1.39
8454.00,1.39
8452.00,1.39
8450.00,1.39
8448.00,1.40
8446.00,1.40
8444.00,1.40
8442.00,1.40
8440.00,1.40
8438.00,1.40
8436.00,1.40
8434.00,1.40
8432.00,1.40
8430.00,1.40
8428.00,1.40
8426.00,1.40
8424.00,1.40
8422.00,1.40
8420.00,1.40
8418.00,1.40
8416.00,1.40
8414.00,1.40
8412.00,1.40
8410.00,1.41
8408.00,1.41
8406.00,1.41
8404.00,1.41
8402.00,1.41
8400.00,1.41
8398.00,1.41
8396.00,1.41
8394.00,1.41
8392.00,1.41
8390.00,1.41
8388.00,1.41
8386.00,1.42
8384.00,1.42
8382.00,1.42
8380.00,1.42
8378.00,1.42
8376.00,1.42
8374.00,1.42
8372.00,1.42
8370.00,1.42
8368.00,1.42
8366.00,1.42
8364.00,1.42
8362.00,1.42
8360.00,1.42
8358.00,1.42
8356.00,1.42
8354.00,1.42
8352.00,1.42
8350.00,1.42
8348.00,1.42
8346.00,1.42
8344.00,1.42
8342.00,1.42
8340.00,1.42
8338.00,1.42
8336.00,1.42
8334.00,1.42
8332.00,1.42
8330.00,1.42
8328.00,1.42
8326.00,1.42
8324.00,1.42
8322.00,1.42
8320.00,1.41
8318.00,1.41
8316.00,1.41
8314.00,1.41
8312.00,1.41
8310.00,1.41
8308.00,1.41
8306.00,1.41
8304.00,1.41
8302.00,1.41
8300.00,1.41
8298.00,1.41
8296.00,1.40
8294.00,1.40
8292.00,1.40
8290.00,1.40
8288.00,1.40
8286.00,1.40
8284.00,1.40
8282.00,1.40
8280.00,1.40
8278.00,1.40
8276.00,1.41
8274.00,1.41
8272.00,1.41
8270.00,1.41
8268.00,1.41
8266.00,1.41
8264.00,1.41
8262.00,1.41
8260.00,1.41
8258.00,1.41
8256.00,1.41
8254.00,1.42
8252.00,1.42
8250.00,1.42
8248.00,1.42
8246.00,1.42
8244.00,1.42
8242.00,1.42
8240.00,1.42
8238.00,1.42
8236.00,1.43
8234.00,1.43
8232.00,1.43
8230.00,1.43
8228.00,1.43
8226.00,1.43
8224.00,1.43
8222.00,1.43
8220.00,1.43
8218.00,1.43
8216.00,1.43
8214.00,1.43
8212.00,1.43
8210.00,1.43
8208.00,1.43
8206.00,1.43
8204.00,1.43
8202.00,1.43
8200.00,1.43
8198.00,1.42
8196.00,1.42
8194.00,1.42
8192.00,1.42
8190.00,1.42
8188.00,1.42
8186.00,1.42
8184.00,1.42
8182.00,1.42
8180.00,1.42
8178.00,1.42
8176.00,1.42
8174.00,1.42
8172.00,1.42
8170.00,1.42
8168.00,1.42
8166.00,1.42
8164.00,1.42
8162.00,1.42
8160.00,1.42
8158.00,1.42
8156.00,1.42
8154.00,1.42
8152.00,1.42
8150.00,1.42
8148.00,1.42
8146.00,1.42
8144.00,1.42
8142.00,1.42
8140.00,1.42
8138.00,1.42
8136.00,1.42
8134.00,1.42
8132.00,1.42
8130.00,1.42
8128.00,1.42
8126.00,1.43
8124.00,1.43
8122.00,1.43
8120.00,1.43
8118.00,1.43
8116.00,1.43
8114.00,1.43
8112.00,1.43
8110.00,1.43
8108.00,1.43
8106.00,1.43
8104.00,1.43
8102.00,1.43
8100.00,1.43
8098.00,1.43
8096.00,1.43
8094.00,1.43
8092.00,1.43
8090.00,1.43
8088.00,1.43
8086.00,1.43
8084.00,1.43
8082.00,1.43
8080.00,1.43
8078.00,1.43
8076.00,1.43
8074.00,1.43
8072.00,1.43
8070.00,1.43
8068.00,1.43
8066.00,1.43
8064.00,1.43
8062.00,1.43
8060.00,1.43
8058.00,1.43
8056.00,1.43
8054.00,1.43
8052.00,1.43
8050.00,1.43
8048.00,1.43
8046.00,1.43
8044.00,1.43
8042.00,1.43
8040.00,1.43
8038.00,1.43
8036.00,1.43
8034.00,1.43
8032.00,1.43
8030.00,1.43
8028.00,1.43
8026.00,1.43
8024.00,1.43
8022.00,1.44
8020.00,1.44
8018.00,1.44
8016.00,1.44
8014.00,1.44
8012.00,1.44
8010.00,1.44
8008.00,1.44
8006.00,1.44
8004.00,1.44
8002.00,1.44
8000.00,1.44
7998.00,1.44
7996.00,1.44
7994.00,1.44
7992.00,1.44
7990.00,1.44
7988.00,1.44
7986.00,1.44
7984.00,1.44
7982.00,1.44
7980.00,1.44
7978.00,1.44
7976.00,1.44
7974.00,1.44
7972.00,1.43
7970.00,1.43
7968.00,1.43
7966.00,1.43
7964.00,1.43
7962.00,1.43
7960.00,1.43
7958.00,1.43
7956.00,1.43
7954.00,1.43
7952.00,1.43
7950.00,1.43
7948.00,1.42
7946.00,1.42
7944.00,1.42
7942.00,1.42
7940.00,1.42
7938.00,1.43
7936.00,1.43
7934.00,1.43
7932.00,1.43
7930.00,1.43
7928.00,1.43
7926.00,1.43
7924.00,1.43
7922.00,1.44
7920.00,1.44
7918.00,1.44
7916.00,1.44
7914.00,1.44
7912.00,1.45
7910.00,1.45
7908.00,1.45
7906.00,1.45
7904.00,1.45
7902.00,1.45
7900.00,1.45
7898.00,1.45
7896.00,1.45
7894.00,1.45
7892.00,1.45
7890.00,1.45
7888.00,1.44
7886.00,1.44
7884.00,1.44
7882.00,1.44
7880.00,1.44
7878.00,1.44
7876.00,1.44
7874.00,1.44
7872.00,1.44
7870.00,1.44
7868.00,1.44
7866.00,1.44
7864.00,1.44
7862.00,1.44
7860.00,1.44
7858.00,1.44
7856.00,1.44
7854.00,1.44
7852.00,1.44
7850.00,1.44
7848.00,1.44
7846.00,1.44
7844.00,1.44
7842.00,1.44
7840.00,1.44
7838.00,1.44
7836.00,1.44
7834.00,1.44
7832.00,1.44
7830.00,1.44
7828.00,1.44
7826.00,1.44
7824.00,1.45
7822.00,1.45
7820.00,1.45
7818.00,1.45
7816.00,1.45
7814.00,1.45
7812.00,1.45
7810.00,1.45
7808.00,1.45
7806.00,1.45
7804.00,1.45
7802.00,1.45
7800.00,1.45
7798.00,1.45
7796.00,1.45
7794.00,1.45
7792.00,1.45
7790.00,1.45
7788.00,1.45
7786.00,1.45
7784.00,1.45
7782.00,1.45
7780.00,1.45
7778.00,1.45
7776.00,1.45
7774.00,1.45
7772.00,1.45
7770.00,1.45
7768.00,1.45
7766.00,1.45
7764.00,1.45
7762.00,1.45
7760.00,1.45
7758.00,1.45
7756.00,1.45
7754.00,1.45
7752.00,1.45
7750.00,1.45
7748.00,1.45
7746.00,1.45
7744.00,1.45
7742.00,1.45
7740.00,1.45
7738.00,1.45
7736.00,1.45
7734.00,1.44
7732.00,1.44
7730.00,1.45
7728.00,1.45
7726.00,1.45
7724.00,1.45
7722.00,1.45
7720.00,1.45
7718.00,1.45
7716.00,1.45
7714.00,1.45
7712.00,1.45
7710.00,1.45
7708.00,1.45
7706.00,1.45
7704.00,1.45
7702.00,1.45
7700.00,1.45
7698.00,1.45
7696.00,1.45
7694.00,1.45
7692.00,1.45
7690.00,1.45
7688.00,1.45
7686.00,1.45
7684.00,1.45
7682.00,1.45
7680.00,1.45
7678.00,1.45
7676.00,1.45
7674.00,1.45
7672.00,1.45
7670.00,1.45
7668.00,1.45
7666.00,1.45
7664.00,1.45
7662.00,1.45
7660.00,1.45
7658.00,1.45
7656.00,1.45
7654.00,1.45
7652.00,1.45
7650.00,1.45
7648.00,1.45
7646.00,1.45
7644.00,1.45
7642.00,1.45
7640.00,1.45
7638.00,1.45
7636.00,1.45
7634.00,1.45
7632.00,1.45
7630.00,1.45
7628.00,1.45
7626.00,1.45
7624.00,1.45
7622.00,1.45
7620.00,1.45
7618.00,1.45
7616.00,1.45
7614.00,1.45
7612.00,1.45
7610.00,1.45
7608.00,1.45
7606.00,1.45
7604.00,1.45
7602.00,1.45
7600.00,1.45
7598.00,1.45
7596.00,1.45
7594.00,1.45
7592.00,1.45
7590.00,1.45
7588.00,1.45
7586.00,1.45
7584.00,1.45
7582.00,1.45
7580.00,1.45
7578.00,1.45
7576.00,1.45
7574.00,1.45
7572.00,1.45
7570.00,1.45
7568.00,1.45
7566.00,1.45
7564.00,1.45
7562.00,1.45
7560.00,1.45
7558.00,1.45
7556.00,1.45
7554.00,1.45
7552.00,1.45
7550.00,1.45
7548.00,1.45
7546.00,1.45
7544.00,1.45
7542.00,1.45
7540.00,1.45
7538.00,1.45
7536.00,1.45
7534.00,1.45
7532.00,1.45
7530.00,1.45
7528.00,1.45
7526.00,1.45
7524.00,1.45
7522.00,1.45
7520.00,1.44
7518.00,1.44
7516.00,1.44
7514.00,1.44
7512.00,1.44
7510.00,1.44
7508.00,1.44
7506.00,1.44
7504.00,1.44
7502.00,1.44
7500.00,1.44
7498.00,1.44
7496.00,1.44
7494.00,1.44
7492.00,1.44
7490.00,1.44
7488.00,1.44
7486.00,1.44
7484.00,1.44
7482.00,1.44
7480.00,1.44
7478.00,1.44
7476.00,1.44
7474.00,1.44
7472.00,1.44
7470.00,1.44
7468.00,1.44
7466.00,1.44
7464.00,1.45
7462.00,1.45
7460.00,1.45
7458.00,1.45
7456.00,1.45
7454.00,1.45
7452.00,1.44
7450.00,1.44
7448.00,1.44
7446.00,1.44
7444.00,1.44
7442.00,1.44
7440.00,1.44
7438.00,1.44
7436.00,1.44
7434.00,1.44
7432.00,1.44
7430.00,1.44
7428.00,1.44
7426.00,1.44
7424.00,1.44
7422.00,1.44
7420.00,1.44
7418.00,1.44
7416.00,1.44
7414.00,1.44
7412.00,1.44
7410.00,1.44
7408.00,1.44
7406.00,1.43
7404.00,1.43
7402.00,1.43
7400.00,1.43
7398.00,1.43
7396.00,1.43
7394.00,1.43
7392.00,1.43
7390.00,1.43
7388.00,1.43
7386.00,1.43
7384.00,1.43
7382.00,1.43
7380.00,1.43
7378.00,1.43
7376.00,1.42
7374.00,1.42
7372.00,1.42
7370.00,1.42
7368.00,1.42
7366.00,1.42
7364.00,1.42
7362.00,1.42
7360.00,1.42
7358.00,1.42
7356.00,1.42
7354.00,1.42
7352.00,1.42
7350.00,1.42
7348.00,1.42
7346.00,1.42
7344.00,1.42
7342.00,1.42
7340.00,1.42
7338.00,1.42
7336.00,1.42
7334.00,1.42
7332.00,1.43
7330.00,1.43
7328.00,1.43
7326.00,1.43
7324.00,1.43
7322.00,1.43
7320.00,1.43
7318.00,1.43
7316.00,1.43
7314.00,1.43
7312.00,1.43
7310.00,1.43
7308.00,1.43
7306.00,1.43
7304.00,1.43
7302.00,1.43
7300.00,1.43
7298.00,1.43
7296.00,1.42
7294.00,1.42
7292.00,1.42
7290.00,1.42
7288.00,1.42
7286.00,1.42
7284.00,1.42
7282.00,1.42
7280.00,1.41
7278.00,1.41
7276.00,1.41
7274.00,1.41
7272.00,1.41
7270.00,1.41
7268.00,1.41
7266.00,1.40
7264.00,1.40
7262.00,1.40
7260.00,1.40
7258.00,1.40
7256.00,1.40
7254.00,1.39
7252.00,1.39
7250.00,1.39
7248.00,1.39
7246.00,1.39
7244.00,1.38
7242.00,1.38
7240.00,1.38
7238.00,1.38
7236.00,1.38
7234.00,1.37
7232.00,1.37
7230.00,1.37
7228.00,1.37
7226.00,1.36
7224.00,1.36
7222.00,1.36
7220.00,1.36
7218.00,1.35
7216.00,1.35
7214.00,1.35
7212.00,1.35
7210.00,1.34
7208.00,1.34
7206.00,1.34
7204.00,1.34
7202.00,1.34
7200.00,1.34
7198.00,1.33
7196.00,1.33
7194.00,1.33
7192.00,1.33
7190.00,1.33
7188.00,1.32
7186.00,1.32
7184.00,1.32
7182.00,1.32
7180.00,1.31
7178.00,1.31
7176.00,1.31
7174.00,1.31
7172.00,1.30
7170.00,1.30
7168.00,1.30
7166.00,1.29
7164.00,1.29
7162.00,1.29
7160.00,1.28
7158.00,1.28
7156.00,1.28
7154.00,1.28
7152.00,1.27
7150.00,1.27
7148.00,1.27
7146.00,1.27
7144.00,1.26
7142.00,1.26
7140.00,1.26
7138.00,1.26
7136.00,1.25
7134.00,1.25
7132.00,1.25
7130.00,1.24
7128.00,1.24
7126.00,1.24
7124.00,1.24
7122.00,1.23
7120.00,1.23
7118.00,1.23
7116.00,1.22
7114.00,1.22
7112.00,1.22
7110.00,1.22
7108.00,1.21
7106.00,1.21
7104.00,1.21
7102.00,1.21
7100.00,1.20
7098.00,1.20
7096.00,1.20
7094.00,1.20
7092.00,1.20
7090.00,1.19
7088.00,1.19
7086.00,1.19
7084.00,1.19
7082.00,1.19
7080.00,1.18
7078.00,1.18
7076.00,1.18
7074.00,1.18
7072.00,1.18
7070.00,1.17
7068.00,1.17
7066.00,1.17
7064.00,1.17
7062.00,1.16
7060.00,1.16
7058.00,1.16
7056.00,1.16
7054.00,1.15
7052.00,1.15
7050.00,1.15
7048.00,1.15
7046.00,1.14
7044.00,1.14
7042.00,1.14
7040.00,1.14
7038.00,1.14
7036.00,1.14
7034.00,1.14
7032.00,1.13
7030.00,1.13
7028.00,1.13
7026.00,1.13
7024.00,1.13
7022.00,1.13
7020.00,1.13
7018.00,1.13
7016.00,1.13
7014.00,1.13
7012.00,1.13
7010.00,1.13
7008.00,1.13
7006.00,1.13
7004.00,1.13
7002.00,1.13
7000.00,1.12
6998.00,1.12
6996.00,1.12
6994.00,1.12
6992.00,1.12
6990.00,1.12
6988.00,1.12
6986.00,1.12
6984.00,1.11
6982.00,1.11
6980.00,1.11
6978.00,1.11
6976.00,1.11
6974.00,1.11
6972.00,1.11
6970.00,1.11
6968.00,1.11
6966.00,1.11
6964.00,1.10
6962.00,1.10
6960.00,1.10
6958.00,1.10
6956.00,1.10
6954.00,1.10
6952.00,1.10
6950.00,1.10
6948.00,1.10
6946.00,1.10
6944.00,1.10
6942.00,1.10
6940.00,1.09
6938.00,1.09
6936.00,1.09
6934.00,1.09
6932.00,1.09
6930.00,1.09
6928.00,1.09
6926.00,1.09
6924.00,1.09
6922.00,1.09
6920.00,1.09
6918.00,1.08
6916.00,1.08
6914.00,1.08
6912.00,1.08
6910.00,1.08
6908.00,1.08
6906.00,1.08
6904.00,1.08
6902.00,1.08
6900.00,1.08
6898.00,1.08
6896.00,1.08
6894.00,1.08
6892.00,1.08
6890.00,1.08
6888.00,1.08
6886.00,1.08
6884.00,1.08
6882.00,1.08
6880.00,1.08
6878.00,1.08
6876.00,1.08
6874.00,1.08
6872.00,1.08
6870.00,1.08
6868.00,1.08
6866.00,1.08
6864.00,1.08
6862.00,1.08
6860.00,1.08
6858.00,1.08
6856.00,1.08
6854.00,1.08
6852.00,1.09
6850.00,1.09
6848.00,1.09
6846.00,1.09
6844.00,1.09
6842.00,1.09
6840.00,1.09
6838.00,1.09
6836.00,1.09
6834.00,1.09
6832.00,1.09
6830.00,1.09
6828.00,1.09
6826.00,1.09
6824.00,1.09
6822.00,1.09
6820.00,1.09
6818.00,1.09
6816.00,1.09
6814.00,1.09
6812.00,1.09
6810.00,1.09
6808.00,1.09
6806.00,1.09
6804.00,1.10
6802.00,1.10
6800.00,1.10
6798.00,1.10
6796.00,1.10
6794.00,1.10
6792.00,1.10
6790.00,1.10
6788.00,1.10
6786.00,1.11
6784.00,1.11
6782.00,1.11
6780.00,1.11
6778.00,1.11
6776.00,1.11
6774.00,1.11
6772.00,1.11
6770.00,1.11
6768.00,1.11
6766.00,1.12
6764.00,1.12
6762.00,1.12
6760.00,1.12
6758.00,1.12
6756.00,1.12
6754.00,1.12
6752.00,1.12
6750.00,1.13
6748.00,1.13
6746.00,1.13
6744.00,1.13
6742.00,1.13
6740.00,1.13
6738.00,1.13
6736.00,1.14
6734.00,1.14
6732.00,1.14
6730.00,1.14
6728.00,1.14
6726.00,1.14
6724.00,1.14
6722.00,1.14
6720.00,1.14
6718.00,1.14
6716.00,1.15
6714.00,1.15
6712.00,1.15
6710.00,1.15
6708.00,1.15
6706.00,1.15
6704.00,1.15
6702.00,1.15
6700.00,1.15
6698.00,1.16
6696.00,1.16
6694.00,1.16
6692.00,1.16
6690.00,1.16
6688.00,1.16
6686.00,1.17
6684.00,1.17
6682.00,1.17
6680.00,1.17
6678.00,1.17
6676.00,1.18
6674.00,1.18
6672.00,1.18
6670.00,1.18
6668.00,1.18
6666.00,1.19
6664.00,1.19
6662.00,1.19
6660.00,1.19
6658.00,1.19
6656.00,1.19
6654.00,1.19
6652.00,1.20
6650.00,1.20
6648.00,1.20
6646.00,1.20
6644.00,1.20
6642.00,1.20
6640.00,1.20
6638.00,1.20
6636.00,1.20
6634.00,1.21
6632.00,1.21
6630.00,1.21
6628.00,1.21
6626.00,1.21
6624.00,1.21
6622.00,1.21
6620.00,1.22
6618.00,1.22
6616.00,1.22
6614.00,1.22
6612.00,1.22
6610.00,1.22
6608.00,1.22
6606.00,1.22
6604.00,1.23
6602.00,1.23
6600.00,1.23
6598.00,1.23
6596.00,1.23
6594.00,1.23
6592.00,1.23
6590.00,1.23
6588.00,1.23
6586.00,1.23
6584.00,1.23
6582.00,1.24
6580.00,1.24
6578.00,1.24
6576.00,1.24
6574.00,1.24
6572.00,1.24
6570.00,1.24
6568.00,1.24
6566.00,1.24
6564.00,1.25
6562.00,1.25
6560.00,1.25
6558.00,1.25
6556.00,1.25
6554.00,1.25
6552.00,1.25
6550.00,1.26
6548.00,1.26
6546.00,1.26
6544.00,1.26
6542.00,1.26
6540.00,1.26
6538.00,1.26
6536.00,1.26
6534.00,1.27
6532.00,1.27
6530.00,1.27
6528.00,1.27
6526.00,1.27
6524.00,1.27
6522.00,1.27
6520.00,1.27
6518.00,1.27
6516.00,1.28
6514.00,1.28
6512.00,1.28
6510.00,1.28
6508.00,1.28
6506.00,1.28
6504.00,1.28
6502.00,1.29
6500.00,1.29
6498.00,1.29
6496.00,1.29
6494.00,1.29
6492.00,1.29
6490.00,1.29
6488.00,1.29
6486.00,1.29
6484.00,1.30
6482.00,1.30
6480.00,1.30
6478.00,1.30
6476.00,1.30
6474.00,1.30
6472.00,1.30
6470.00,1.30
6468.00,1.30
6466.00,1.30
6464.00,1.30
6462.00,1.30
6460.00,1.30
6458.00,1.30
6456.00,1.30
6454.00,1.31
6452.00,1.31
6450.00,1.31
6448.00,1.31
6446.00,1.31
6444.00,1.31
6442.00,1.31
6440.00,1.31
6438.00,1.31
6436.00,1.31
6434.00,1.31
6432.00,1.31
6430.00,1.31
6428.00,1.31
6426.00,1.32
6424.00,1.32
6422.00,1.32
6420.00,1.32
6418.00,1.32
6416.00,1.32
6414.00,1.32
6412.00,1.32
6410.00,1.32
6408.00,1.32
6406.00,1.32
6404.00,1.32
6402.00,1.32
6400.00,1.32
6398.00,1.32
6396.00,1.32
6394.00,1.32
6392.00,1.32
6390.00,1.32
6388.00,1.33
6386.00,1.33
6384.00,1.33
6382.00,1.33
6380.00,1.33
6378.00,1.33
6376.00,1.33
6374.00,1.33
6372.00,1.33
6370.00,1.33
6368.00,1.33
6366.00,1.33
6364.00,1.34
6362.00,1.34
6360.00,1.34
6358.00,1.34
6356.00,1.34
6354.00,1.34
6352.00,1.34
6350.00,1.34
6348.00,1.34
6346.00,1.34
6344.00,1.34
6342.00,1.35
6340.00,1.35
6338.00,1.35
6336.00,1.35
6334.00,1.35
6332.00,1.35
6330.00,1.35
6328.00,1.35
6326.00,1.35
6324.00,1.35
6322.00,1.35
6320.00,1.36
6318.00,1.36
6316.00,1.36
6314.00,1.36
6312.00,1.36
6310.00,1.36
6308.00,1.36
6306.00,1.36
6304.00,1.36
6302.00,1.36
6300.00,1.36
6298.00,1.36
6296.00,1.37
6294.00,1.37
6292.00,1.37
6290.00,1.37
6288.00,1.37
6286.00,1.37
6284.00,1.37
6282.00,1.37
6280.00,1.37
6278.00,1.37
6276.00,1.37
6274.00,1.37
6272.00,1.37
6270.00,1.37
6268.00,1.37
6266.00,1.37
6264.00,1.38
6262.00,1.38
6260.00,1.38
6258.00,1.38
6256.00,1.38
6254.00,1.38
6252.00,1.38
6250.00,1.38
6248.00,1.38
6246.00,1.38
6244.00,1.38
6242.00,1.38
6240.00,1.39
6238.00,1.39
6236.00,1.39
6234.00,1.39
6232.00,1.39
6230.00,1.39
6228.00,1.39
6226.00,1.39
6224.00,1.40
6222.00,1.40
6220.00,1.40
6218.00,1.40
6216.00,1.40
6214.00,1.40
6212.00,1.40
6210.00,1.41
6208.00,1.41
6206.00,1.41
6204.00,1.41
6202.00,1.41
6200.00,1.41
6198.00,1.41
6196.00,1.41
6194.00,1.41
6192.00,1.41
6190.00,1.41
6188.00,1.41
6186.00,1.41
6184.00,1.41
6182.00,1.41
6180.00,1.42
6178.00,1.42
6176.00,1.42
6174.00,1.42
6172.00,1.42
6170.00,1.42
6168.00,1.42
6166.00,1.42
6164.00,1.42
6162.00,1.42
6160.00,1.42
6158.00,1.42
6156.00,1.42
6154.00,1.43
6152.00,1.43
6150.00,1.43
6148.00,1.43
6146.00,1.43
6144.00,1.43
6142.00,1.43
6140.00,1.43
6138.00,1.43
6136.00,1.43
6134.00,1.43
6132.00,1.43
6130.00,1.43
6128.00,1.44
6126.00,1.44
6124.00,1.44
6122.00,1.44
6120.00,1.44
6118.00,1.44
6116.00,1.44
6114.00,1.44
6112.00,1.44
6110.00,1.45
6108.00,1.45
6106.00,1.45
6104.00,1.45
6102.00,1.45
6100.00,1.45
6098.00,1.45
6096.00,1.45
6094.00,1.45
6092.00,1.45
6090.00,1.45
6088.00,1.45
6086.00,1.45
6084.00,1.45
6082.00,1.45
6080.00,1.45
6078.00,1.45
6076.00,1.45
6074.00,1.45
6072.00,1.45
6070.00,1.45
6068.00,1.45
6066.00,1.45
6064.00,1.45
6062.00,1.45
6060.00,1.46
6058.00,1.46
6056.00,1.46
6054.00,1.46
6052.00,1.46
6050.00,1.46
6048.00,1.46
6046.00,1.46
6044.00,1.46
6042.00,1.46
6040.00,1.46
6038.00,1.46
6036.00,1.46
6034.00,1.46
6032.00,1.46
6030.00,1.46
6028.00,1.46
6026.00,1.46
6024.00,1.46
6022.00,1.46
6020.00,1.46
6018.00,1.46
6016.00,1.46
6014.00,1.46
6012.00,1.46
6010.00,1.46
6008.00,1.46
6006.00,1.46
6004.00,1.46
6002.00,1.46
6000.00,1.46
5998.00,1.46
5996.00,1.46
5994.00,1.46
5992.00,1.46
5990.00,1.46
5988.00,1.46
5986.00,1.46
5984.00,1.45
5982.00,1.45
5980.00,1.45
5978.00,1.45
5976.00,1.45
5974.00,1.45
5972.00,1.44
5970.00,1.44
5968.00,1.44
5966.00,1.44
5964.00,1.43
5962.00,1.43
5960.00,1.43
5958.00,1.43
5956.00,1.43
5954.00,1.42
5952.00,1.42
5950.00,1.42
5948.00,1.42
5946.00,1.41
5944.00,1.41
5942.00,1.41
5940.00,1.41
5938.00,1.41
5936.00,1.40
5934.00,1.40
5932.00,1.40
5930.00,1.40
5928.00,1.40
5926.00,1.40
5924.00,1.40
5922.00,1.40
5920.00,1.39
5918.00,1.39
5916.00,1.39
5914.00,1.39
5912.00,1.39
5910.00,1.39
5908.00,1.39
5906.00,1.39
5904.00,1.39
5902.00,1.39
5900.00,1.39
5898.00,1.39
5896.00,1.39
5894.00,1.39
5892.00,1.40
5890.00,1.40
5888.00,1.40
5886.00,1.40
5884.00,1.40
5882.00,1.40
5880.00,1.40
5878.00,1.40
5876.00,1.41
5874.00,1.41
5872.00,1.41
5870.00,1.41
5868.00,1.41
5866.00,1.41
5864.00,1.41
5862.00,1.41
5860.00,1.42
5858.00,1.42
5856.00,1.42
5854.00,1.42
5852.00,1.42
5850.00,1.42
5848.00,1.42
5846.00,1.42
5844.00,1.42
5842.00,1.42
5840.00,1.42
5838.00,1.42
5836.00,1.42
5834.00,1.42
5832.00,1.42
5830.00,1.42
5828.00,1.42
5826.00,1.42
5824.00,1.42
5822.00,1.42
5820.00,1.42
5818.00,1.42
5816.00,1.42
5814.00,1.42
5812.00,1.42
5810.00,1.42
5808.00,1.42
5806.00,1.41
5804.00,1.41
5802.00,1.41
5800.00,1.41
5798.00,1.41
5796.00,1.41
5794.00,1.41
5792.00,1.41
5790.00,1.41
5788.00,1.41
5786.00,1.41
5784.00,1.40
5782.00,1.40
5780.00,1.40
5778.00,1.40
5776.00,1.40
5774.00,1.40
5772.00,1.40
5770.00,1.40
5768.00,1.40
5766.00,1.40
5764.00,1.40
5762.00,1.40
5760.00,1.41
5758.00,1.41
5756.00,1.41
5754.00,1.41
5752.00,1.41
5750.00,1.41
5748.00,1.41
5746.00,1.41
5744.00,1.41
5742.00,1.42
5740.00,1.42
5738.00,1.42
5736.00,1.42
5734.00,1.42
5732.00,1.42
5730.00,1.42
5728.00,1.42
5726.00,1.42
5724.00,1.42
5722.00,1.42
5720.00,1.42
5718.00,1.42
5716.00,1.42
5714.00,1.42
5712.00,1.42
5710.00,1.42
5708.00,1.42
5706.00,1.42
5704.00,1.42
5702.00,1.42
5700.00,1.42
5698.00,1.42
5696.00,1.41
5694.00,1.41
5692.00,1.41
5690.00,1.41
5688.00,1.41
5686.00,1.41
5684.00,1.41
5682.00,1.41
5680.00,1.41
5678.00,1.41
5676.00,1.41
5674.00,1.41
5672.00,1.41
5670.00,1.41
5668.00,1.41
5666.00,1.41
5664.00,1.41
5662.00,1.41
5660.00,1.41
5658.00,1.41
5656.00,1.41
5654.00,1.41
5652.00,1.41
5650.00,1.41
5648.00,1.41
5646.00,1.42
5644.00,1.42
5642.00,1.42
5640.00,1.42
5638.00,1.42
5636.00,1.42
5634.00,1.42
5632.00,1.42
5630.00,1.42
5628.00,1.42
5626.00,1.42
5624.00,1.43
5622.00,1.43
5620.00,1.43
5618.00,1.43
5616.00,1.43
5614.00,1.43
5612.00,1.43
5610.00,1.43
5608.00,1.43
5606.00,1.43
5604.00,1.43
5602.00,1.43
5600.00,1.44
5598.00,1.44
5596.00,1.44
5594.00,1.44
5592.00,1.44
5590.00,1.44
5588.00,1.44
5586.00,1.44
5584.00,1.44
5582.00,1.44
5580.00,1.44
5578.00,1.44
5576.00,1.44
5574.00,1.44
5572.00,1.44
5570.00,1.44
5568.00,1.44
5566.00,1.44
5564.00,1.44
5562.00,1.44
5560.00,1.45
5558.00,1.45
5556.00,1.45
5554.00,1.45
5552.00,1.45
5550.00,1.45
5548.00,1.45
5546.00,1.45
5544.00,1.45
5542.00,1.45
5540.00,1.45
5538.00,1.45
5536.00,1.45
5534.00,1.45
5532.00,1.45
5530.00,1.45
5528.00,1.45
5526.00,1.45
5524.00,1.45
5522.00,1.45
5520.00,1.45
5518.00,1.45
5516.00,1.45
5514.00,1.45
5512.00,1.45
5510.00,1.45
5508.00,1.46
5506.00,1.46
5504.00,1.46
5502.00,1.46
5500.00,1.46
5498.00,1.46
5496.00,1.46
5494.00,1.46
5492.00,1.46
5490.00,1.46
5488.00,1.46
5486.00,1.46
5484.00,1.46
5482.00,1.46
5480.00,1.46
5478.00,1.46
5476.00,1.46
5474.00,1.46
5472.00,1.46
5470.00,1.46
5468.00,1.46
5466.00,1.46
5464.00,1.46
5462.00,1.46
5460.00,1.46
5458.00,1.46
5456.00,1.46
5454.00,1.46
5452.00,1.46
5450.00,1.46
5448.00,1.46
5446.00,1.46
5444.00,1.46
5442.00,1.46
5440.00,1.46
5438.00,1.46
5436.00,1.46
5434.00,1.46
5432.00,1.46
5430.00,1.47
5428.00,1.47
5426.00,1.47
5424.00,1.47
5422.00,1.47
5420.00,1.47
5418.00,1.47
5416.00,1.46
5414.00,1.46
5412.00,1.46
5410.00,1.46
5408.00,1.46
5406.00,1.46
5404.00,1.46
5402.00,1.46
5400.00,1.46
5398.00,1.46
5396.00,1.46
5394.00,1.46
5392.00,1.46
5390.00,1.45
5388.00,1.45
5386.00,1.45
5384.00,1.45
5382.00,1.45
5380.00,1.44
5378.00,1.44
5376.00,1.44
5374.00,1.44
5372.00,1.43
5370.00,1.43
5368.00,1.42
5366.00,1.42
5364.00,1.41
5362.00,1.41
5360.00,1.40
5358.00,1.40
5356.00,1.39
5354.00,1.38
5352.00,1.38
5350.00,1.37
5348.00,1.36
5346.00,1.35
5344.00,1.35
5342.00,1.34
5340.00,1.33
5338.00,1.32
5336.00,1.31
5334.00,1.30
5332.00,1.29
5330.00,1.28
5328.00,1.26
5326.00,1.25
5324.00,1.24
5322.00,1.23
5320.00,1.21
5318.00,1.20
5316.00,1.19
5314.00,1.17
5312.00,1.16
5310.00,1.15
5308.00,1.13
5306.00,1.12
5304.00,1.10
5302.00,1.09
5300.00,1.08
5298.00,1.06
5296.00,1.05
5294.00,1.03
5292.00,1.02
5290.00,1.01
5288.00,0.99
5286.00,0.98
5284.00,0.97
5282.00,0.96
5280.00,0.95
5278.00,0.94
5276.00,0.92
5274.00,0.91
5272.00,0.91
5270.00,0.90
5268.00,0.89
5266.00,0.88
5264.00,0.87
5262.00,0.86
5260.00,0.86
5258.00,0.85
5256.00,0.84
5254.00,0.83
5252.00,0.83
5250.00,0.82
5248.00,0.82
5246.00,0.81
5244.00,0.81
5242.00,0.80
5240.00,0.80
5238.00,0.79
5236.00,0.79
5234.00,0.78
5232.00,0.78
5230.00,0.78
5228.00,0.77
5226.00,0.77
5224.00,0.77
5222.00,0.76
5220.00,0.76
5218.00,0.76
5216.00,0.75
5214.00,0.75
5212.00,0.75
5210.00,0.74
5208.00,0.74
5206.00,0.74
5204.00,0.74
5202.00,0.74
5200.00,0.73
5198.00,0.73
5196.00,0.73
5194.00,0.73
5192.00,0.73
5190.00,0.73
5188.00,0.73
5186.00,0.73
5184.00,0.73
5182.00,0.73
5180.00,0.73
5178.00,0.73
5176.00,0.73
5174.00,0.73
5172.00,0.73
5170.00,0.73
5168.00,0.73
5166.00,0.73
5164.00,0.73
5162.00,0.73
5160.00,0.73
5158.00,0.73
5156.00,0.73
5154.00,0.74
5152.00,0.74
5150.00,0.74
5148.00,0.74
5146.00,0.74
5144.00,0.74
5142.00,0.75
5140.00,0.75
5138.00,0.75
5136.00,0.75
5134.00,0.75
5132.00,0.76
5130.00,0.76
5128.00,0.76
5126.00,0.76
5124.00,0.77
5122.00,0.77
5120.00,0.77
5118.00,0.78
5116.00,0.78
5114.00,0.78
5112.00,0.78
5110.00,0.79
5108.00,0.79
5106.00,0.79
5104.00,0.80
5102.00,0.80
5100.00,0.80
5098.00,0.81
5096.00,0.81
5094.00,0.81
5092.00,0.81
5090.00,0.82
5088.00,0.82
5086.00,0.82
5084.00,0.83
5082.00,0.83
5080.00,0.83
5078.00,0.84
5076.00,0.84
5074.00,0.84
5072.00,0.85
5070.00,0.85
5068.00,0.86
5066.00,0.86
5064.00,0.86
5062.00,0.87
5060.00,0.87
5058.00,0.87
5056.00,0.88
5054.00,0.88
5052.00,0.88
5050.00,0.89
5048.00,0.89
5046.00,0.90
5044.00,0.90
5042.00,0.90
5040.00,0.91
5038.00,0.91
5036.00,0.91
5034.00,0.92
5032.00,0.92
5030.00,0.93
5028.00,0.93
5026.00,0.93
5024.00,0.94
5022.00,0.94
5020.00,0.94
5018.00,0.95
5016.00,0.95
5014.00,0.96
5012.00,0.96
5010.00,0.96
5008.00,0.97
5006.00,0.97
5004.00,0.97
5002.00,0.98
5000.00,0.98
4998.00,0.99
4996.00,0.99
4994.00,0.99
4992.00,1.00
4990.00,1.00
4988.00,1.00
4986.00,1.01
4984.00,1.01
4982.00,1.01
4980.00,1.02
4978.00,1.02
4976.00,1.02
4974.00,1.03
4972.00,1.03
4970.00,1.03
4968.00,1.04
4966.00,1.04
4964.00,1.04
4962.00,1.05
4960.00,1.05
4958.00,1.05
4956.00,1.05
4954.00,1.06
4952.00,1.06
4950.00,1.06
4948.00,1.06
4946.00,1.07
4944.00,1.07
4942.00,1.07
4940.00,1.07
4938.00,1.08
4936.00,1.08
4934.00,1.08
4932.00,1.08
4930.00,1.09
4928.00,1.09
4926.00,1.09
4924.00,1.09
4922.00,1.10
4920.00,1.10
4918.00,1.10
4916.00,1.10
4914.00,1.11
4912.00,1.11
4910.00,1.11
4908.00,1.11
4906.00,1.12
4904.00,1.12
4902.00,1.12
4900.00,1.12
4898.00,1.12
4896.00,1.13
4894.00,1.13
4892.00,1.13
4890.00,1.13
4888.00,1.13
4886.00,1.14
4884.00,1.14
4882.00,1.14
4880.00,1.14
4878.00,1.14
4876.00,1.15
4874.00,1.15
4872.00,1.15
4870.00,1.15
4868.00,1.15
4866.00,1.16
4864.00,1.16
4862.00,1.16
4860.00,1.16
4858.00,1.16
4856.00,1.17
4854.00,1.17
4852.00,1.17
4850.00,1.17
4848.00,1.18
4846.00,1.18
4844.00,1.18
4842.00,1.18
4840.00,1.18
4838.00,1.19
4836.00,1.19
4834.00,1.19
4832.00,1.19
4830.00,1.20
4828.00,1.20
4826.00,1.20
4824.00,1.20
4822.00,1.20
4820.00,1.21
4818.00,1.21
4816.00,1.21
4814.00,1.21
4812.00,1.21
4810.00,1.22
4808.00,1.22
4806.00,1.22
4804.00,1.23
4802.00,1.23
4800.00,1.23
4798.00,1.23
4796.00,1.24
4794.00,1.24
4792.00,1.24
4790.00,1.25
4788.00,1.25
4786.00,1.25
4784.00,1.25
4782.00,1.26
4780.00,1.26
4778.00,1.26
4776.00,1.27
4774.00,1.27
4772.00,1.27
4770.00,1.28
4768.00,1.28
4766.00,1.28
4764.00,1.28
4762.00,1.29
4760.00,1.29
4758.00,1.29
4756.00,1.30
4754.00,1.30
4752.00,1.30
4750.00,1.31
4748.00,1.31
4746.00,1.31
4744.00,1.31
4742.00,1.32
4740.00,1.32
4738.00,1.32
4736.00,1.33
4734.00,1.33
4732.00,1.33
4730.00,1.33
4728.00,1.34
4726.00,1.34
4724.00,1.34
4722.00,1.34
4720.00,1.34
4718.00,1.35
4716.00,1.35
4714.00,1.35
4712.00,1.35
4710.00,1.36
4708.00,1.36
4706.00,1.36
4704.00,1.36
4702.00,1.36
4700.00,1.37
4698.00,1.37
4696.00,1.37
4694.00,1.37
4692.00,1.38
4690.00,1.38
4688.00,1.38
4686.00,1.38
4684.00,1.39
4682.00,1.39
4680.00,1.39
4678.00,1.39
4676.00,1.40
4674.00,1.40
4672.00,1.40
4670.00,1.40
4668.00,1.40
4666.00,1.41
4664.00,1.41
4662.00,1.41
4660.00,1.41
4658.00,1.41
4656.00,1.42
4654.00,1.42
4652.00,1.42
4650.00,1.42
4648.00,1.42
4646.00,1.42
4644.00,1.42
4642.00,1.42
4640.00,1.42
4638.00,1.43
4636.00,1.43
4634.00,1.43
4632.00,1.43
4630.00,1.43
4628.00,1.43
4626.00,1.43
4624.00,1.43
4622.00,1.43
4620.00,1.44
4618.00,1.44
4616.00,1.44
4614.00,1.44
4612.00,1.44
4610.00,1.44
4608.00,1.44
4606.00,1.44
4604.00,1.44
4602.00,1.44
4600.00,1.44
4598.00,1.44
4596.00,1.44
4594.00,1.45
4592.00,1.45
4590.00,1.45
4588.00,1.45
4586.00,1.45
4584.00,1.45
4582.00,1.45
4580.00,1.45
4578.00,1.45
4576.00,1.45
4574.00,1.45
4572.00,1.45
4570.00,1.45
4568.00,1.45
4566.00,1.45
4564.00,1.45
4562.00,1.45
4560.00,1.45
4558.00,1.45
4556.00,1.45
4554.00,1.45
4552.00,1.46
4550.00,1.46
4548.00,1.46
4546.00,1.46
4544.00,1.46
4542.00,1.46
4540.00,1.46
4538.00,1.46
4536.00,1.46
4534.00,1.46
4532.00,1.46
4530.00,1.46
4528.00,1.46
4526.00,1.46
4524.00,1.46
4522.00,1.46
4520.00,1.46
4518.00,1.47
4516.00,1.47
4514.00,1.47
4512.00,1.47
4510.00,1.47
4508.00,1.47
4506.00,1.47
4504.00,1.47
4502.00,1.47
4500.00,1.47
4498.00,1.47
4496.00,1.46
4494.00,1.46
4492.00,1.46
4490.00,1.46
4488.00,1.46
4486.00,1.46
4484.00,1.46
4482.00,1.46
4480.00,1.46
4478.00,1.45
4476.00,1.45
4474.00,1.45
4472.00,1.45
4470.00,1.44
4468.00,1.44
4466.00,1.44
4464.00,1.43
4462.00,1.43
4460.00,1.42
4458.00,1.42
4456.00,1.41
4454.00,1.40
4452.00,1.40
4450.00,1.39
4448.00,1.38
4446.00,1.37
4444.00,1.36
4442.00,1.35
4440.00,1.34
4438.00,1.33
4436.00,1.32
4434.00,1.31
4432.00,1.30
4430.00,1.29
4428.00,1.28
4426.00,1.27
4424.00,1.26
4422.00,1.26
4420.00,1.25
4418.00,1.24
4416.00,1.24
4414.00,1.23
4412.00,1.23
4410.00,1.23
4408.00,1.23
4406.00,1.23
4404.00,1.23
4402.00,1.23
4400.00,1.24
4398.00,1.24
4396.00,1.24
4394.00,1.25
4392.00,1.25
4390.00,1.26
4388.00,1.26
4386.00,1.27
4384.00,1.27
4382.00,1.28
4380.00,1.28
4378.00,1.29
4376.00,1.29
4374.00,1.29
4372.00,1.29
4370.00,1.29
4368.00,1.29
4366.00,1.29
4364.00,1.29
4362.00,1.28
4360.00,1.28
4358.00,1.28
4356.00,1.28
4354.00,1.27
4352.00,1.27
4350.00,1.27
4348.00,1.27
4346.00,1.26
4344.00,1.26
4342.00,1.26
4340.00,1.26
4338.00,1.26
4336.00,1.27
4334.00,1.27
4332.00,1.27
4330.00,1.28
4328.00,1.28
4326.00,1.29
4324.00,1.30
4322.00,1.31
4320.00,1.31
4318.00,1.32
4316.00,1.33
4314.00,1.34
4312.00,1.35
4310.00,1.36
4308.00,1.37
4306.00,1.37
4304.00,1.38
4302.00,1.39
4300.00,1.39
4298.00,1.40
4296.00,1.41
4294.00,1.41
4292.00,1.42
4290.00,1.42
4288.00,1.42
4286.00,1.42
4284.00,1.42
4282.00,1.42
4280.00,1.43
4278.00,1.42
4276.00,1.42
4274.00,1.42
4272.00,1.42
4270.00,1.42
4268.00,1.42
4266.00,1.42
4264.00,1.42
4262.00,1.41
4260.00,1.41
4258.00,1.41
4256.00,1.41
4254.00,1.41
4252.00,1.41
4250.00,1.42
4248.00,1.42
4246.00,1.42
4244.00,1.42
4242.00,1.42
4240.00,1.43
4238.00,1.43
4236.00,1.43
4234.00,1.44
4232.00,1.44
4230.00,1.44
4228.00,1.45
4226.00,1.45
4224.00,1.45
4222.00,1.45
4220.00,1.46
4218.00,1.46
4216.00,1.46
4214.00,1.46
4212.00,1.46
4210.00,1.46
4208.00,1.46
4206.00,1.46
4204.00,1.46
4202.00,1.46
4200.00,1.46
4198.00,1.46
4196.00,1.46
4194.00,1.46
4192.00,1.46
4190.00,1.46
4188.00,1.46
4186.00,1.46
4184.00,1.46
4182.00,1.46
4180.00,1.46
4178.00,1.45
4176.00,1.45
4174.00,1.45
4172.00,1.45
4170.00,1.45
4168.00,1.45
4166.00,1.45
4164.00,1.45
4162.00,1.45
4160.00,1.45
4158.00,1.45
4156.00,1.45
4154.00,1.45
4152.00,1.45
4150.00,1.45
4148.00,1.45
4146.00,1.45
4144.00,1.45
4142.00,1.45
4140.00,1.45
4138.00,1.45
4136.00,1.45
4134.00,1.45
4132.00,1.45
4130.00,1.45
4128.00,1.45
4126.00,1.45
4124.00,1.45
4122.00,1.45
4120.00,1.44
4118.00,1.44
4116.00,1.44
4114.00,1.44
4112.00,1.44
4110.00,1.44
4108.00,1.44
4106.00,1.44
4104.00,1.43
4102.00,1.43
4100.00,1.43
4098.00,1.43
4096.00,1.42
4094.00,1.42
4092.00,1.42
4090.00,1.42
4088.00,1.41
4086.00,1.41
4084.00,1.41
4082.00,1.41
4080.00,1.40
4078.00,1.40
4076.00,1.40
4074.00,1.40
4072.00,1.40
4070.00,1.40
4068.00,1.40
4066.00,1.40
4064.00,1.40
4062.00,1.40
4060.00,1.40
4058.00,1.40
4056.00,1.40
4054.00,1.40
4052.00,1.40
4050.00,1.40
4048.00,1.40
4046.00,1.40
4044.00,1.40
4042.00,1.41
4040.00,1.41
4038.00,1.41
4036.00,1.41
4034.00,1.41
4032.00,1.41
4030.00,1.41
4028.00,1.42
4026.00,1.42
4024.00,1.42
4022.00,1.42
4020.00,1.43
4018.00,1.43
4016.00,1.43
4014.00,1.44
4012.00,1.44
4010.00,1.44
4008.00,1.45
4006.00,1.45
4004.00,1.46
4002.00,1.46
4000.00,1.47
