创建为新数据集,样品 799 用户 Administrator 日期 星期一, 七月 29 2019
cm-1,%T
10000.00,2.34
9999.00,2.32
9998.00,2.30
9997.00,2.28
9996.00,2.26
9995.00,2.25
9994.00,2.23
9993.00,2.21
9992.00,2.19
9991.00,2.17
9990.00,2.16
9989.00,2.14
9988.00,2.11
9987.00,2.09
9986.00,2.07
9985.00,2.04
9984.00,2.02
9983.00,1.99
9982.00,1.97
9981.00,1.94
9980.00,1.92
9979.00,1.90
9978.00,1.88
9977.00,1.86
9976.00,1.84
9975.00,1.82
9974.00,1.80
9973.00,1.78
9972.00,1.77
9971.00,1.75
9970.00,1.73
9969.00,1.72
9968.00,1.71
9967.00,1.69
9966.00,1.68
9965.00,1.67
9964.00,1.66
9963.00,1.65
9962.00,1.64
9961.00,1.64
9960.00,1.63
9959.00,1.63
9958.00,1.62
9957.00,1.61
9956.00,1.60
9955.00,1.60
9954.00,1.59
9953.00,1.58
9952.00,1.57
9951.00,1.56
9950.00,1.55
9949.00,1.54
9948.00,1.53
9947.00,1.52
9946.00,1.51
9945.00,1.50
9944.00,1.49
9943.00,1.48
9942.00,1.47
9941.00,1.46
9940.00,1.45
9939.00,1.44
9938.00,1.42
9937.00,1.41
9936.00,1.40
9935.00,1.38
9934.00,1.37
9933.00,1.36
9932.00,1.35
9931.00,1.34
9930.00,1.33
9929.00,1.33
9928.00,1.32
9927.00,1.32
9926.00,1.31
9925.00,1.31
9924.00,1.30
9923.00,1.30
9922.00,1.30
9921.00,1.29
9920.00,1.29
9919.00,1.29
9918.00,1.28
9917.00,1.28
9916.00,1.28
9915.00,1.28
9914.00,1.28
9913.00,1.28
9912.00,1.29
9911.00,1.29
9910.00,1.30
9909.00,1.30
9908.00,1.31
9907.00,1.31
9906.00,1.32
9905.00,1.32
9904.00,1.33
9903.00,1.33
9902.00,1.34
9901.00,1.34
9900.00,1.34
9899.00,1.35
9898.00,1.35
9897.00,1.35
9896.00,1.36
9895.00,1.36
9894.00,1.36
9893.00,1.36
9892.00,1.37
9891.00,1.37
9890.00,1.37
9889.00,1.37
9888.00,1.37
9887.00,1.37
9886.00,1.37
9885.00,1.37
9884.00,1.36
9883.00,1.36
9882.00,1.36
9881.00,1.36
9880.00,1.35
9879.00,1.35
9878.00,1.35
9877.00,1.34
9876.00,1.34
9875.00,1.34
9874.00,1.33
9873.00,1.33
9872.00,1.33
9871.00,1.32
9870.00,1.32
9869.00,1.31
9868.00,1.31
9867.00,1.30
9866.00,1.30
9865.00,1.29
9864.00,1.29
9863.00,1.29
9862.00,1.29
9861.00,1.28
9860.00,1.28
9859.00,1.28
9858.00,1.28
9857.00,1.28
9856.00,1.28
9855.00,1.27
9854.00,1.27
9853.00,1.27
9852.00,1.27
9851.00,1.27
9850.00,1.27
9849.00,1.27
9848.00,1.27
9847.00,1.27
9846.00,1.27
9845.00,1.27
9844.00,1.27
9843.00,1.27
9842.00,1.27
9841.00,1.27
9840.00,1.27
9839.00,1.27
9838.00,1.27
9837.00,1.27
9836.00,1.27
9835.00,1.27
9834.00,1.27
9833.00,1.27
9832.00,1.27
9831.00,1.27
9830.00,1.27
9829.00,1.26
9828.00,1.26
9827.00,1.26
9826.00,1.26
9825.00,1.26
9824.00,1.26
9823.00,1.26
9822.00,1.26
9821.00,1.26
9820.00,1.26
9819.00,1.26
9818.00,1.26
9817.00,1.26
9816.00,1.26
9815.00,1.25
9814.00,1.26
9813.00,1.26
9812.00,1.26
9811.00,1.26
9810.00,1.26
9809.00,1.26
9808.00,1.26
9807.00,1.26
9806.00,1.26
9805.00,1.27
9804.00,1.27
9803.00,1.27
9802.00,1.27
9801.00,1.27
9800.00,1.27
9799.00,1.27
9798.00,1.27
9797.00,1.27
9796.00,1.27
9795.00,1.27
9794.00,1.27
9793.00,1.27
9792.00,1.27
9791.00,1.27
9790.00,1.28
9789.00,1.28
9788.00,1.28
9787.00,1.28
9786.00,1.29
9785.00,1.29
9784.00,1.29
9783.00,1.29
9782.00,1.30
9781.00,1.30
9780.00,1.30
9779.00,1.30
9778.00,1.31
9777.00,1.31
9776.00,1.31
9775.00,1.31
9774.00,1.32
9773.00,1.32
9772.00,1.32
9771.00,1.32
9770.00,1.33
9769.00,1.33
9768.00,1.33
9767.00,1.33
9766.00,1.33
9765.00,1.33
9764.00,1.32
9763.00,1.32
9762.00,1.32
9761.00,1.32
9760.00,1.31
9759.00,1.31
9758.00,1.31
9757.00,1.30
9756.00,1.30
9755.00,1.30
9754.00,1.29
9753.00,1.29
9752.00,1.29
9751.00,1.29
9750.00,1.29
9749.00,1.29
9748.00,1.29
9747.00,1.29
9746.00,1.30
9745.00,1.30
9744.00,1.31
9743.00,1.31
9742.00,1.32
9741.00,1.32
9740.00,1.33
9739.00,1.34
9738.00,1.34
9737.00,1.35
9736.00,1.36
9735.00,1.37
9734.00,1.38
9733.00,1.39
9732.00,1.41
9731.00,1.42
9730.00,1.43
9729.00,1.45
9728.00,1.46
9727.00,1.47
9726.00,1.49
9725.00,1.50
9724.00,1.51
9723.00,1.52
9722.00,1.53
9721.00,1.53
9720.00,1.54
9719.00,1.55
9718.00,1.55
9717.00,1.56
9716.00,1.56
9715.00,1.56
9714.00,1.56
9713.00,1.56
9712.00,1.56
9711.00,1.56
9710.00,1.56
9709.00,1.56
9708.00,1.55
9707.00,1.55
9706.00,1.54
9705.00,1.53
9704.00,1.52
9703.00,1.52
9702.00,1.51
9701.00,1.50
9700.00,1.49
9699.00,1.48
9698.00,1.47
9697.00,1.46
9696.00,1.45
9695.00,1.44
9694.00,1.43
9693.00,1.42
9692.00,1.41
9691.00,1.40
9690.00,1.39
9689.00,1.39
9688.00,1.38
9687.00,1.37
9686.00,1.37
9685.00,1.36
9684.00,1.36
9683.00,1.36
9682.00,1.36
9681.00,1.35
9680.00,1.35
9679.00,1.35
9678.00,1.35
9677.00,1.35
9676.00,1.35
9675.00,1.35
9674.00,1.35
9673.00,1.35
9672.00,1.35
9671.00,1.35
9670.00,1.35
9669.00,1.35
9668.00,1.36
9667.00,1.36
9666.00,1.36
9665.00,1.37
9664.00,1.37
9663.00,1.37
9662.00,1.38
9661.00,1.38
9660.00,1.38
9659.00,1.38
9658.00,1.38
9657.00,1.39
9656.00,1.39
9655.00,1.39
9654.00,1.39
9653.00,1.40
9652.00,1.40
9651.00,1.41
9650.00,1.41
9649.00,1.41
9648.00,1.42
9647.00,1.42
9646.00,1.43
9645.00,1.43
9644.00,1.44
9643.00,1.44
9642.00,1.45
9641.00,1.45
9640.00,1.46
9639.00,1.46
9638.00,1.47
9637.00,1.47
9636.00,1.48
9635.00,1.48
9634.00,1.48
9633.00,1.49
9632.00,1.49
9631.00,1.49
9630.00,1.49
9629.00,1.50
9628.00,1.50
9627.00,1.50
9626.00,1.50
9625.00,1.50
9624.00,1.49
9623.00,1.49
9622.00,1.49
9621.00,1.48
9620.00,1.48
9619.00,1.47
9618.00,1.47
9617.00,1.46
9616.00,1.45
9615.00,1.45
9614.00,1.44
9613.00,1.43
9612.00,1.43
9611.00,1.42
9610.00,1.42
9609.00,1.41
9608.00,1.41
9607.00,1.41
9606.00,1.40
9605.00,1.40
9604.00,1.40
9603.00,1.39
9602.00,1.39
9601.00,1.39
9600.00,1.38
9599.00,1.38
9598.00,1.38
9597.00,1.38
9596.00,1.38
9595.00,1.38
9594.00,1.38
9593.00,1.38
9592.00,1.38
9591.00,1.39
9590.00,1.39
9589.00,1.40
9588.00,1.40
9587.00,1.40
9586.00,1.40
9585.00,1.40
9584.00,1.40
9583.00,1.40
9582.00,1.40
9581.00,1.39
9580.00,1.39
9579.00,1.38
9578.00,1.38
9577.00,1.38
9576.00,1.37
9575.00,1.37
9574.00,1.36
9573.00,1.36
9572.00,1.35
9571.00,1.35
9570.00,1.34
9569.00,1.33
9568.00,1.33
9567.00,1.32
9566.00,1.31
9565.00,1.31
9564.00,1.30
9563.00,1.29
9562.00,1.29
9561.00,1.28
9560.00,1.28
9559.00,1.28
9558.00,1.28
9557.00,1.27
9556.00,1.28
9555.00,1.28
9554.00,1.28
9553.00,1.28
9552.00,1.29
9551.00,1.29
9550.00,1.30
9549.00,1.31
9548.00,1.31
9547.00,1.32
9546.00,1.33
9545.00,1.33
9544.00,1.34
9543.00,1.35
9542.00,1.35
9541.00,1.36
9540.00,1.37
9539.00,1.37
9538.00,1.38
9537.00,1.38
9536.00,1.39
9535.00,1.39
9534.00,1.40
9533.00,1.40
9532.00,1.40
9531.00,1.40
9530.00,1.41
9529.00,1.41
9528.00,1.41
9527.00,1.41
9526.00,1.40
9525.00,1.40
9524.00,1.40
9523.00,1.39
9522.00,1.39
9521.00,1.38
9520.00,1.38
9519.00,1.37
9518.00,1.37
9517.00,1.36
9516.00,1.36
9515.00,1.35
9514.00,1.35
9513.00,1.34
9512.00,1.34
9511.00,1.33
9510.00,1.33
9509.00,1.33
9508.00,1.32
9507.00,1.32
9506.00,1.32
9505.00,1.31
9504.00,1.31
9503.00,1.31
9502.00,1.31
9501.00,1.31
9500.00,1.31
9499.00,1.31
9498.00,1.31
9497.00,1.31
9496.00,1.31
9495.00,1.31
9494.00,1.32
9493.00,1.32
9492.00,1.32
9491.00,1.33
9490.00,1.33
9489.00,1.33
9488.00,1.34
9487.00,1.34
9486.00,1.34
9485.00,1.35
9484.00,1.35
9483.00,1.35
9482.00,1.36
9481.00,1.36
9480.00,1.36
9479.00,1.37
9478.00,1.37
9477.00,1.38
9476.00,1.38
9475.00,1.39
9474.00,1.39
9473.00,1.39
9472.00,1.40
9471.00,1.40
9470.00,1.40
9469.00,1.40
9468.00,1.40
9467.00,1.40
9466.00,1.40
9465.00,1.40
9464.00,1.40
9463.00,1.40
9462.00,1.40
9461.00,1.40
9460.00,1.40
9459.00,1.40
9458.00,1.40
9457.00,1.40
9456.00,1.40
9455.00,1.40
9454.00,1.40
9453.00,1.39
9452.00,1.39
9451.00,1.38
9450.00,1.38
9449.00,1.37
9448.00,1.37
9447.00,1.37
9446.00,1.36
9445.00,1.36
9444.00,1.36
9443.00,1.36
9442.00,1.36
9441.00,1.35
9440.00,1.35
9439.00,1.35
9438.00,1.35
9437.00,1.35
9436.00,1.34
9435.00,1.34
9434.00,1.34
9433.00,1.33
9432.00,1.33
9431.00,1.33
9430.00,1.33
9429.00,1.32
9428.00,1.32
9427.00,1.32
9426.00,1.32
9425.00,1.32
9424.00,1.32
9423.00,1.32
9422.00,1.32
9421.00,1.32
9420.00,1.32
9419.00,1.32
9418.00,1.32
9417.00,1.32
9416.00,1.32
9415.00,1.32
9414.00,1.32
9413.00,1.32
9412.00,1.32
9411.00,1.31
9410.00,1.31
9409.00,1.31
9408.00,1.31
9407.00,1.31
9406.00,1.31
9405.00,1.31
9404.00,1.31
9403.00,1.31
9402.00,1.31
9401.00,1.31
9400.00,1.30
9399.00,1.30
9398.00,1.30
9397.00,1.30
9396.00,1.30
9395.00,1.29
9394.00,1.29
9393.00,1.29
9392.00,1.28
9391.00,1.28
9390.00,1.28
9389.00,1.27
9388.00,1.27
9387.00,1.27
9386.00,1.26
9385.00,1.26
9384.00,1.25
9383.00,1.25
9382.00,1.25
9381.00,1.24
9380.00,1.24
9379.00,1.24
9378.00,1.23
9377.00,1.23
9376.00,1.23
9375.00,1.23
9374.00,1.23
9373.00,1.22
9372.00,1.22
9371.00,1.22
9370.00,1.22
9369.00,1.22
9368.00,1.22
9367.00,1.22
9366.00,1.22
9365.00,1.22
9364.00,1.22
9363.00,1.23
9362.00,1.23
9361.00,1.23
9360.00,1.24
9359.00,1.24
9358.00,1.25
9357.00,1.25
9356.00,1.25
9355.00,1.25
9354.00,1.26
9353.00,1.26
9352.00,1.26
9351.00,1.26
9350.00,1.26
9349.00,1.27
9348.00,1.27
9347.00,1.27
9346.00,1.27
9345.00,1.28
9344.00,1.28
9343.00,1.29
9342.00,1.29
9341.00,1.29
9340.00,1.30
9339.00,1.30
9338.00,1.30
9337.00,1.31
9336.00,1.31
9335.00,1.31
9334.00,1.32
9333.00,1.32
9332.00,1.32
9331.00,1.33
9330.00,1.33
9329.00,1.34
9328.00,1.34
9327.00,1.35
9326.00,1.35
9325.00,1.36
9324.00,1.37
9323.00,1.37
9322.00,1.38
9321.00,1.38
9320.00,1.39
9319.00,1.39
9318.00,1.39
9317.00,1.40
9316.00,1.40
9315.00,1.40
9314.00,1.40
9313.00,1.40
9312.00,1.41
9311.00,1.41
9310.00,1.41
9309.00,1.41
9308.00,1.41
9307.00,1.41
9306.00,1.41
9305.00,1.41
9304.00,1.41
9303.00,1.41
9302.00,1.41
9301.00,1.41
9300.00,1.41
9299.00,1.41
9298.00,1.41
9297.00,1.41
9296.00,1.41
9295.00,1.40
9294.00,1.40
9293.00,1.40
9292.00,1.40
9291.00,1.40
9290.00,1.40
9289.00,1.40
9288.00,1.39
9287.00,1.39
9286.00,1.39
9285.00,1.39
9284.00,1.39
9283.00,1.39
9282.00,1.39
9281.00,1.38
9280.00,1.38
9279.00,1.38
9278.00,1.37
9277.00,1.37
9276.00,1.37
9275.00,1.36
9274.00,1.36
9273.00,1.36
9272.00,1.35
9271.00,1.35
9270.00,1.34
9269.00,1.34
9268.00,1.34
9267.00,1.33
9266.00,1.33
9265.00,1.32
9264.00,1.32
9263.00,1.31
9262.00,1.31
9261.00,1.31
9260.00,1.30
9259.00,1.30
9258.00,1.29
9257.00,1.29
9256.00,1.29
9255.00,1.28
9254.00,1.28
9253.00,1.28
9252.00,1.27
9251.00,1.27
9250.00,1.27
9249.00,1.27
9248.00,1.27
9247.00,1.27
9246.00,1.27
9245.00,1.27
9244.00,1.28
9243.00,1.28
9242.00,1.28
9241.00,1.29
9240.00,1.29
9239.00,1.30
9238.00,1.30
9237.00,1.31
9236.00,1.32
9235.00,1.32
9234.00,1.33
9233.00,1.34
9232.00,1.34
9231.00,1.35
9230.00,1.36
9229.00,1.36
9228.00,1.37
9227.00,1.38
9226.00,1.39
9225.00,1.39
9224.00,1.40
9223.00,1.40
9222.00,1.41
9221.00,1.41
9220.00,1.41
9219.00,1.42
9218.00,1.42
9217.00,1.42
9216.00,1.42
9215.00,1.42
9214.00,1.41
9213.00,1.41
9212.00,1.41
9211.00,1.41
9210.00,1.41
9209.00,1.40
9208.00,1.40
9207.00,1.40
9206.00,1.39
9205.00,1.39
9204.00,1.38
9203.00,1.38
9202.00,1.37
9201.00,1.37
9200.00,1.37
9199.00,1.36
9198.00,1.36
9197.00,1.36
9196.00,1.35
9195.00,1.35
9194.00,1.35
9193.00,1.35
9192.00,1.35
9191.00,1.35
9190.00,1.35
9189.00,1.35
9188.00,1.35
9187.00,1.36
9186.00,1.36
9185.00,1.36
9184.00,1.36
9183.00,1.37
9182.00,1.37
9181.00,1.37
9180.00,1.38
9179.00,1.38
9178.00,1.39
9177.00,1.39
9176.00,1.40
9175.00,1.40
9174.00,1.41
9173.00,1.42
9172.00,1.42
9171.00,1.43
9170.00,1.43
9169.00,1.44
9168.00,1.45
9167.00,1.45
9166.00,1.46
9165.00,1.46
9164.00,1.47
9163.00,1.47
9162.00,1.48
9161.00,1.48
9160.00,1.48
9159.00,1.48
9158.00,1.49
9157.00,1.49
9156.00,1.49
9155.00,1.49
9154.00,1.49
9153.00,1.49
9152.00,1.49
9151.00,1.49
9150.00,1.49
9149.00,1.48
9148.00,1.48
9147.00,1.47
9146.00,1.47
9145.00,1.46
9144.00,1.46
9143.00,1.45
9142.00,1.44
9141.00,1.44
9140.00,1.44
9139.00,1.43
9138.00,1.43
9137.00,1.43
9136.00,1.43
9135.00,1.43
9134.00,1.43
9133.00,1.43
9132.00,1.43
9131.00,1.43
9130.00,1.43
9129.00,1.43
9128.00,1.43
9127.00,1.43
9126.00,1.43
9125.00,1.43
9124.00,1.44
9123.00,1.44
9122.00,1.45
9121.00,1.46
9120.00,1.46
9119.00,1.47
9118.00,1.48
9117.00,1.49
9116.00,1.49
9115.00,1.50
9114.00,1.50
9113.00,1.51
9112.00,1.51
9111.00,1.51
9110.00,1.51
9109.00,1.51
9108.00,1.51
9107.00,1.51
9106.00,1.51
9105.00,1.51
9104.00,1.51
9103.00,1.51
9102.00,1.50
9101.00,1.50
9100.00,1.50
9099.00,1.50
9098.00,1.50
9097.00,1.50
9096.00,1.49
9095.00,1.49
9094.00,1.49
9093.00,1.48
9092.00,1.48
9091.00,1.47
9090.00,1.47
9089.00,1.46
9088.00,1.45
9087.00,1.45
9086.00,1.44
9085.00,1.44
9084.00,1.43
9083.00,1.43
9082.00,1.43
9081.00,1.42
9080.00,1.42
9079.00,1.42
9078.00,1.41
9077.00,1.41
9076.00,1.41
9075.00,1.41
9074.00,1.40
9073.00,1.40
9072.00,1.40
9071.00,1.40
9070.00,1.39
9069.00,1.39
9068.00,1.39
9067.00,1.39
9066.00,1.39
9065.00,1.38
9064.00,1.38
9063.00,1.38
9062.00,1.38
9061.00,1.39
9060.00,1.39
9059.00,1.39
9058.00,1.39
9057.00,1.40
9056.00,1.40
9055.00,1.40
9054.00,1.41
9053.00,1.41
9052.00,1.41
9051.00,1.42
9050.00,1.42
9049.00,1.42
9048.00,1.42
9047.00,1.43
9046.00,1.43
9045.00,1.43
9044.00,1.43
9043.00,1.43
9042.00,1.44
9041.00,1.44
9040.00,1.44
9039.00,1.44
9038.00,1.44
9037.00,1.45
9036.00,1.45
9035.00,1.45
9034.00,1.45
9033.00,1.45
9032.00,1.45
9031.00,1.45
9030.00,1.45
9029.00,1.45
9028.00,1.45
9027.00,1.45
9026.00,1.45
9025.00,1.45
9024.00,1.45
9023.00,1.45
9022.00,1.44
9021.00,1.44
9020.00,1.44
9019.00,1.44
9018.00,1.44
9017.00,1.44
9016.00,1.44
9015.00,1.44
9014.00,1.43
9013.00,1.43
9012.00,1.43
9011.00,1.43
9010.00,1.43
9009.00,1.43
9008.00,1.42
9007.00,1.42
9006.00,1.42
9005.00,1.42
9004.00,1.42
9003.00,1.42
9002.00,1.42
9001.00,1.42
9000.00,1.42
8999.00,1.42
8998.00,1.42
8997.00,1.42
8996.00,1.42
8995.00,1.43
8994.00,1.43
8993.00,1.43
8992.00,1.42
8991.00,1.42
8990.00,1.42
8989.00,1.42
8988.00,1.42
8987.00,1.42
8986.00,1.42
8985.00,1.42
8984.00,1.42
8983.00,1.42
8982.00,1.41
8981.00,1.41
8980.00,1.41
8979.00,1.41
8978.00,1.40
8977.00,1.40
8976.00,1.40
8975.00,1.39
8974.00,1.39
8973.00,1.38
8972.00,1.38
8971.00,1.38
8970.00,1.37
8969.00,1.37
8968.00,1.37
8967.00,1.36
8966.00,1.36
8965.00,1.36
8964.00,1.36
8963.00,1.36
8962.00,1.36
8961.00,1.36
8960.00,1.35
8959.00,1.35
8958.00,1.35
8957.00,1.35
8956.00,1.35
8955.00,1.35
8954.00,1.35
8953.00,1.35
8952.00,1.35
8951.00,1.35
8950.00,1.35
8949.00,1.35
8948.00,1.36
8947.00,1.36
8946.00,1.36
8945.00,1.36
8944.00,1.36
8943.00,1.37
8942.00,1.37
8941.00,1.37
8940.00,1.37
8939.00,1.38
8938.00,1.38
8937.00,1.38
8936.00,1.38
8935.00,1.39
8934.00,1.39
8933.00,1.39
8932.00,1.40
8931.00,1.40
8930.00,1.41
8929.00,1.41
8928.00,1.42
8927.00,1.43
8926.00,1.43
8925.00,1.44
8924.00,1.44
8923.00,1.45
8922.00,1.46
8921.00,1.46
8920.00,1.47
8919.00,1.47
8918.00,1.48
8917.00,1.49
8916.00,1.49
8915.00,1.50
8914.00,1.51
8913.00,1.51
8912.00,1.52
8911.00,1.53
8910.00,1.53
8909.00,1.54
8908.00,1.54
8907.00,1.54
8906.00,1.54
8905.00,1.55
8904.00,1.55
8903.00,1.55
8902.00,1.55
8901.00,1.55
8900.00,1.55
8899.00,1.55
8898.00,1.55
8897.00,1.55
8896.00,1.55
8895.00,1.55
8894.00,1.55
8893.00,1.54
8892.00,1.54
8891.00,1.54
8890.00,1.53
8889.00,1.53
8888.00,1.53
8887.00,1.52
8886.00,1.52
8885.00,1.52
8884.00,1.51
8883.00,1.51
8882.00,1.51
8881.00,1.50
8880.00,1.50
8879.00,1.50
8878.00,1.50
8877.00,1.50
8876.00,1.49
8875.00,1.49
8874.00,1.49
8873.00,1.48
8872.00,1.48
8871.00,1.48
8870.00,1.47
8869.00,1.47
8868.00,1.47
8867.00,1.46
8866.00,1.46
8865.00,1.46
8864.00,1.45
8863.00,1.45
8862.00,1.45
8861.00,1.44
8860.00,1.44
8859.00,1.43
8858.00,1.43
8857.00,1.42
8856.00,1.42
8855.00,1.41
8854.00,1.40
8853.00,1.40
8852.00,1.39
8851.00,1.39
8850.00,1.38
8849.00,1.37
8848.00,1.37
8847.00,1.36
8846.00,1.36
8845.00,1.36
8844.00,1.35
8843.00,1.35
8842.00,1.35
8841.00,1.34
8840.00,1.34
8839.00,1.34
8838.00,1.34
8837.00,1.34
8836.00,1.34
8835.00,1.34
8834.00,1.34
8833.00,1.34
8832.00,1.34
8831.00,1.35
8830.00,1.35
8829.00,1.35
8828.00,1.36
8827.00,1.36
8826.00,1.37
8825.00,1.37
8824.00,1.38
8823.00,1.38
8822.00,1.39
8821.00,1.40
8820.00,1.40
8819.00,1.41
8818.00,1.41
8817.00,1.42
8816.00,1.42
8815.00,1.42
8814.00,1.43
8813.00,1.43
8812.00,1.43
8811.00,1.43
8810.00,1.44
8809.00,1.44
8808.00,1.44
8807.00,1.44
8806.00,1.44
8805.00,1.44
8804.00,1.45
8803.00,1.45
8802.00,1.45
8801.00,1.45
8800.00,1.45
8799.00,1.45
8798.00,1.45
8797.00,1.45
8796.00,1.45
8795.00,1.45
8794.00,1.45
8793.00,1.45
8792.00,1.45
8791.00,1.46
8790.00,1.46
8789.00,1.46
8788.00,1.47
8787.00,1.47
8786.00,1.47
8785.00,1.48
8784.00,1.48
8783.00,1.48
8782.00,1.49
8781.00,1.49
8780.00,1.49
8779.00,1.49
8778.00,1.50
8777.00,1.50
8776.00,1.50
8775.00,1.50
8774.00,1.50
8773.00,1.51
8772.00,1.51
8771.00,1.51
8770.00,1.51
8769.00,1.51
8768.00,1.51
8767.00,1.51
8766.00,1.51
8765.00,1.51
8764.00,1.50
8763.00,1.50
8762.00,1.50
8761.00,1.50
8760.00,1.50
8759.00,1.50
8758.00,1.49
8757.00,1.49
8756.00,1.49
8755.00,1.49
8754.00,1.49
8753.00,1.49
8752.00,1.48
8751.00,1.48
8750.00,1.48
8749.00,1.48
8748.00,1.47
8747.00,1.47
8746.00,1.47
8745.00,1.47
8744.00,1.47
8743.00,1.46
8742.00,1.46
8741.00,1.46
8740.00,1.46
8739.00,1.46
8738.00,1.46
8737.00,1.45
8736.00,1.45
8735.00,1.45
8734.00,1.45
8733.00,1.44
8732.00,1.44
8731.00,1.44
8730.00,1.43
8729.00,1.43
8728.00,1.43
8727.00,1.42
8726.00,1.42
8725.00,1.42
8724.00,1.41
8723.00,1.41
8722.00,1.41
8721.00,1.41
8720.00,1.40
8719.00,1.40
8718.00,1.40
8717.00,1.40
8716.00,1.40
8715.00,1.39
8714.00,1.39
8713.00,1.39
8712.00,1.39
8711.00,1.39
8710.00,1.39
8709.00,1.39
8708.00,1.39
8707.00,1.39
8706.00,1.39
8705.00,1.39
8704.00,1.40
8703.00,1.40
8702.00,1.40
8701.00,1.41
8700.00,1.41
8699.00,1.41
8698.00,1.41
8697.00,1.42
8696.00,1.42
8695.00,1.42
8694.00,1.42
8693.00,1.42
8692.00,1.42
8691.00,1.42
8690.00,1.42
8689.00,1.42
8688.00,1.42
8687.00,1.42
8686.00,1.42
8685.00,1.42
8684.00,1.42
8683.00,1.42
8682.00,1.42
8681.00,1.41
8680.00,1.41
8679.00,1.41
8678.00,1.40
8677.00,1.40
8676.00,1.39
8675.00,1.39
8674.00,1.38
8673.00,1.38
8672.00,1.37
8671.00,1.37
8670.00,1.37
8669.00,1.36
8668.00,1.36
8667.00,1.36
8666.00,1.36
8665.00,1.36
8664.00,1.36
8663.00,1.37
8662.00,1.37
8661.00,1.37
8660.00,1.38
8659.00,1.38
8658.00,1.39
8657.00,1.40
8656.00,1.40
8655.00,1.41
8654.00,1.42
8653.00,1.42
8652.00,1.43
8651.00,1.44
8650.00,1.44
8649.00,1.45
8648.00,1.46
8647.00,1.46
8646.00,1.47
8645.00,1.47
8644.00,1.48
8643.00,1.48
8642.00,1.48
8641.00,1.49
8640.00,1.49
8639.00,1.49
8638.00,1.49
8637.00,1.49
8636.00,1.49
8635.00,1.49
8634.00,1.48
8633.00,1.48
8632.00,1.47
8631.00,1.47
8630.00,1.46
8629.00,1.46
8628.00,1.45
8627.00,1.45
8626.00,1.44
8625.00,1.44
8624.00,1.43
8623.00,1.43
8622.00,1.42
8621.00,1.42
8620.00,1.42
8619.00,1.42
8618.00,1.41
8617.00,1.41
8616.00,1.41
8615.00,1.41
8614.00,1.40
8613.00,1.40
8612.00,1.40
8611.00,1.40
8610.00,1.40
8609.00,1.40
8608.00,1.39
8607.00,1.39
8606.00,1.39
8605.00,1.39
8604.00,1.39
8603.00,1.40
8602.00,1.40
8601.00,1.40
8600.00,1.40
8599.00,1.40
8598.00,1.40
8597.00,1.40
8596.00,1.39
8595.00,1.39
8594.00,1.39
8593.00,1.39
8592.00,1.39
8591.00,1.39
8590.00,1.38
8589.00,1.38
8588.00,1.38
8587.00,1.38
8586.00,1.38
8585.00,1.38
8584.00,1.38
8583.00,1.37
8582.00,1.37
8581.00,1.37
8580.00,1.37
8579.00,1.37
8578.00,1.37
8577.00,1.36
8576.00,1.36
8575.00,1.36
8574.00,1.36
8573.00,1.36
8572.00,1.36
8571.00,1.36
8570.00,1.36
8569.00,1.36
8568.00,1.36
8567.00,1.36
8566.00,1.36
8565.00,1.37
8564.00,1.37
8563.00,1.37
8562.00,1.37
8561.00,1.37
8560.00,1.37
8559.00,1.38
8558.00,1.38
8557.00,1.38
8556.00,1.39
8555.00,1.39
8554.00,1.39
8553.00,1.39
8552.00,1.40
8551.00,1.40
8550.00,1.40
8549.00,1.40
8548.00,1.41
8547.00,1.41
8546.00,1.41
8545.00,1.41
8544.00,1.41
8543.00,1.41
8542.00,1.41
8541.00,1.40
8540.00,1.40
8539.00,1.40
8538.00,1.40
8537.00,1.39
8536.00,1.39
8535.00,1.38
8534.00,1.38
8533.00,1.37
8532.00,1.37
8531.00,1.37
8530.00,1.36
8529.00,1.36
8528.00,1.35
8527.00,1.35
8526.00,1.35
8525.00,1.35
8524.00,1.34
8523.00,1.34
8522.00,1.34
8521.00,1.33
8520.00,1.33
8519.00,1.33
8518.00,1.33
8517.00,1.33
8516.00,1.33
8515.00,1.33
8514.00,1.33
8513.00,1.33
8512.00,1.34
8511.00,1.34
8510.00,1.35
8509.00,1.35
8508.00,1.36
8507.00,1.37
8506.00,1.37
8505.00,1.38
8504.00,1.38
8503.00,1.38
8502.00,1.39
8501.00,1.39
8500.00,1.39
8499.00,1.39
8498.00,1.40
8497.00,1.40
8496.00,1.40
8495.00,1.40
8494.00,1.40
8493.00,1.40
8492.00,1.40
8491.00,1.40
8490.00,1.40
8489.00,1.40
8488.00,1.40
8487.00,1.40
8486.00,1.40
8485.00,1.39
8484.00,1.39
8483.00,1.38
8482.00,1.38
8481.00,1.37
8480.00,1.37
8479.00,1.36
8478.00,1.36
8477.00,1.36
8476.00,1.35
8475.00,1.35
8474.00,1.35
8473.00,1.35
8472.00,1.34
8471.00,1.34
8470.00,1.34
8469.00,1.34
8468.00,1.34
8467.00,1.34
8466.00,1.34
8465.00,1.33
8464.00,1.33
8463.00,1.33
8462.00,1.33
8461.00,1.33
8460.00,1.33
8459.00,1.33
8458.00,1.33
8457.00,1.33
8456.00,1.34
8455.00,1.34
8454.00,1.34
8453.00,1.34
8452.00,1.34
8451.00,1.35
8450.00,1.35
8449.00,1.35
8448.00,1.35
8447.00,1.35
8446.00,1.35
8445.00,1.35
8444.00,1.35
8443.00,1.35
8442.00,1.35
8441.00,1.35
8440.00,1.36
8439.00,1.36
8438.00,1.36
8437.00,1.36
8436.00,1.36
8435.00,1.36
8434.00,1.36
8433.00,1.36
8432.00,1.36
8431.00,1.35
8430.00,1.35
8429.00,1.35
8428.00,1.35
8427.00,1.35
8426.00,1.34
8425.00,1.34
8424.00,1.34
8423.00,1.34
8422.00,1.34
8421.00,1.34
8420.00,1.34
8419.00,1.33
8418.00,1.33
8417.00,1.34
8416.00,1.34
8415.00,1.34
8414.00,1.34
8413.00,1.34
8412.00,1.34
8411.00,1.34
8410.00,1.34
8409.00,1.35
8408.00,1.35
8407.00,1.35
8406.00,1.36
8405.00,1.36
8404.00,1.37
8403.00,1.37
8402.00,1.38
8401.00,1.38
8400.00,1.39
8399.00,1.39
8398.00,1.40
8397.00,1.41
8396.00,1.41
8395.00,1.42
8394.00,1.42
8393.00,1.43
8392.00,1.43
8391.00,1.43
8390.00,1.44
8389.00,1.44
8388.00,1.44
8387.00,1.45
8386.00,1.45
8385.00,1.45
8384.00,1.46
8383.00,1.46
8382.00,1.46
8381.00,1.47
8380.00,1.47
8379.00,1.47
8378.00,1.47
8377.00,1.48
8376.00,1.48
8375.00,1.48
8374.00,1.48
8373.00,1.48
8372.00,1.48
8371.00,1.48
8370.00,1.48
8369.00,1.48
8368.00,1.47
8367.00,1.47
8366.00,1.47
8365.00,1.47
8364.00,1.47
8363.00,1.47
8362.00,1.48
8361.00,1.48
8360.00,1.48
8359.00,1.47
8358.00,1.47
8357.00,1.47
8356.00,1.47
8355.00,1.47
8354.00,1.47
8353.00,1.46
8352.00,1.46
8351.00,1.46
8350.00,1.46
8349.00,1.46
8348.00,1.46
8347.00,1.45
8346.00,1.45
8345.00,1.45
8344.00,1.45
8343.00,1.45
8342.00,1.45
8341.00,1.45
8340.00,1.45
8339.00,1.44
8338.00,1.44
8337.00,1.44
8336.00,1.44
8335.00,1.43
8334.00,1.43
8333.00,1.43
8332.00,1.42
8331.00,1.42
8330.00,1.41
8329.00,1.41
8328.00,1.40
8327.00,1.40
8326.00,1.40
8325.00,1.39
8324.00,1.39
8323.00,1.39
8322.00,1.38
8321.00,1.38
8320.00,1.38
8319.00,1.38
8318.00,1.38
8317.00,1.37
8316.00,1.37
8315.00,1.37
8314.00,1.37
8313.00,1.37
8312.00,1.37
8311.00,1.37
8310.00,1.37
8309.00,1.37
8308.00,1.37
8307.00,1.37
8306.00,1.38
8305.00,1.38
8304.00,1.39
8303.00,1.39
8302.00,1.40
8301.00,1.40
8300.00,1.41
8299.00,1.41
8298.00,1.42
8297.00,1.42
8296.00,1.42
8295.00,1.43
8294.00,1.43
8293.00,1.43
8292.00,1.43
8291.00,1.44
8290.00,1.44
8289.00,1.44
8288.00,1.45
8287.00,1.45
8286.00,1.46
8285.00,1.46
8284.00,1.47
8283.00,1.47
8282.00,1.48
8281.00,1.48
8280.00,1.49
8279.00,1.49
8278.00,1.50
8277.00,1.50
8276.00,1.50
8275.00,1.50
8274.00,1.51
8273.00,1.51
8272.00,1.51
8271.00,1.52
8270.00,1.52
8269.00,1.52
8268.00,1.52
8267.00,1.53
8266.00,1.53
8265.00,1.53
8264.00,1.53
8263.00,1.54
8262.00,1.54
8261.00,1.54
8260.00,1.54
8259.00,1.54
8258.00,1.54
8257.00,1.53
8256.00,1.53
8255.00,1.53
8254.00,1.53
8253.00,1.53
8252.00,1.52
8251.00,1.52
8250.00,1.52
8249.00,1.52
8248.00,1.52
8247.00,1.52
8246.00,1.52
8245.00,1.52
8244.00,1.52
8243.00,1.51
8242.00,1.51
8241.00,1.51
8240.00,1.51
8239.00,1.51
8238.00,1.51
8237.00,1.51
8236.00,1.51
8235.00,1.51
8234.00,1.51
8233.00,1.51
8232.00,1.51
8231.00,1.50
8230.00,1.50
8229.00,1.50
8228.00,1.50
8227.00,1.50
8226.00,1.49
8225.00,1.49
8224.00,1.49
8223.00,1.49
8222.00,1.48
8221.00,1.48
8220.00,1.48
8219.00,1.47
8218.00,1.47
8217.00,1.47
8216.00,1.46
8215.00,1.46
8214.00,1.46
8213.00,1.46
8212.00,1.45
8211.00,1.45
8210.00,1.45
8209.00,1.45
8208.00,1.45
8207.00,1.44
8206.00,1.44
8205.00,1.44
8204.00,1.44
8203.00,1.44
8202.00,1.44
8201.00,1.44
8200.00,1.44
8199.00,1.44
8198.00,1.44
8197.00,1.44
8196.00,1.44
8195.00,1.44
8194.00,1.44
8193.00,1.44
8192.00,1.44
8191.00,1.44
8190.00,1.44
8189.00,1.44
8188.00,1.43
8187.00,1.43
8186.00,1.43
8185.00,1.43
8184.00,1.43
8183.00,1.43
8182.00,1.43
8181.00,1.43
8180.00,1.43
8179.00,1.43
8178.00,1.43
8177.00,1.43
8176.00,1.43
8175.00,1.43
8174.00,1.43
8173.00,1.43
8172.00,1.43
8171.00,1.43
8170.00,1.43
8169.00,1.44
8168.00,1.44
8167.00,1.44
8166.00,1.44
8165.00,1.44
8164.00,1.44
8163.00,1.44
8162.00,1.44
8161.00,1.45
8160.00,1.45
8159.00,1.45
8158.00,1.45
8157.00,1.45
8156.00,1.46
8155.00,1.46
8154.00,1.46
8153.00,1.46
8152.00,1.46
8151.00,1.46
8150.00,1.46
8149.00,1.46
8148.00,1.46
8147.00,1.46
8146.00,1.46
8145.00,1.46
8144.00,1.46
8143.00,1.47
8142.00,1.47
8141.00,1.47
8140.00,1.47
8139.00,1.47
8138.00,1.47
8137.00,1.47
8136.00,1.47
8135.00,1.48
8134.00,1.48
8133.00,1.48
8132.00,1.48
8131.00,1.47
8130.00,1.47
8129.00,1.47
8128.00,1.47
8127.00,1.47
8126.00,1.47
8125.00,1.47
8124.00,1.47
8123.00,1.47
8122.00,1.47
8121.00,1.46
8120.00,1.46
8119.00,1.46
8118.00,1.46
8117.00,1.45
8116.00,1.45
8115.00,1.45
8114.00,1.45
8113.00,1.45
8112.00,1.44
8111.00,1.44
8110.00,1.44
8109.00,1.44
8108.00,1.44
8107.00,1.44
8106.00,1.44
8105.00,1.44
8104.00,1.44
8103.00,1.43
8102.00,1.43
8101.00,1.43
8100.00,1.43
8099.00,1.43
8098.00,1.43
8097.00,1.43
8096.00,1.43
8095.00,1.43
8094.00,1.43
8093.00,1.43
8092.00,1.43
8091.00,1.43
8090.00,1.44
8089.00,1.44
8088.00,1.44
8087.00,1.44
8086.00,1.44
8085.00,1.44
8084.00,1.44
8083.00,1.44
8082.00,1.44
8081.00,1.44
8080.00,1.44
8079.00,1.44
8078.00,1.44
8077.00,1.44
8076.00,1.44
8075.00,1.45
8074.00,1.45
8073.00,1.45
8072.00,1.45
8071.00,1.45
8070.00,1.45
8069.00,1.45
8068.00,1.45
8067.00,1.45
8066.00,1.45
8065.00,1.45
8064.00,1.45
8063.00,1.45
8062.00,1.45
8061.00,1.45
8060.00,1.45
8059.00,1.45
8058.00,1.45
8057.00,1.45
8056.00,1.45
8055.00,1.45
8054.00,1.45
8053.00,1.46
8052.00,1.46
8051.00,1.46
8050.00,1.46
8049.00,1.46
8048.00,1.46
8047.00,1.46
8046.00,1.46
8045.00,1.46
8044.00,1.46
8043.00,1.46
8042.00,1.46
8041.00,1.46
8040.00,1.46
8039.00,1.46
8038.00,1.46
8037.00,1.46
8036.00,1.46
8035.00,1.46
8034.00,1.46
8033.00,1.46
8032.00,1.46
8031.00,1.46
8030.00,1.46
8029.00,1.46
8028.00,1.45
8027.00,1.45
8026.00,1.45
8025.00,1.45
8024.00,1.45
8023.00,1.45
8022.00,1.44
8021.00,1.44
8020.00,1.44
8019.00,1.44
8018.00,1.44
8017.00,1.44
8016.00,1.44
8015.00,1.44
8014.00,1.44
8013.00,1.44
8012.00,1.44
8011.00,1.44
8010.00,1.44
8009.00,1.44
8008.00,1.44
8007.00,1.44
8006.00,1.44
8005.00,1.44
8004.00,1.44
8003.00,1.44
8002.00,1.44
8001.00,1.45
8000.00,1.45
7999.00,1.45
7998.00,1.45
7997.00,1.45
7996.00,1.45
7995.00,1.45
7994.00,1.46
7993.00,1.46
7992.00,1.46
7991.00,1.46
7990.00,1.46
7989.00,1.46
7988.00,1.46
7987.00,1.46
7986.00,1.47
7985.00,1.47
7984.00,1.47
7983.00,1.47
7982.00,1.48
7981.00,1.48
7980.00,1.48
7979.00,1.49
7978.00,1.49
7977.00,1.49
7976.00,1.50
7975.00,1.50
7974.00,1.50
7973.00,1.50
7972.00,1.50
7971.00,1.50
7970.00,1.51
7969.00,1.51
7968.00,1.51
7967.00,1.51
7966.00,1.51
7965.00,1.51
7964.00,1.50
7963.00,1.50
7962.00,1.50
7961.00,1.50
7960.00,1.50
7959.00,1.50
7958.00,1.50
7957.00,1.49
7956.00,1.49
7955.00,1.49
7954.00,1.49
7953.00,1.49
7952.00,1.49
7951.00,1.49
7950.00,1.49
7949.00,1.49
7948.00,1.49
7947.00,1.49
7946.00,1.49
7945.00,1.49
7944.00,1.49
7943.00,1.49
7942.00,1.49
7941.00,1.49
7940.00,1.50
7939.00,1.50
7938.00,1.50
7937.00,1.50
7936.00,1.50
7935.00,1.51
7934.00,1.51
7933.00,1.51
7932.00,1.51
7931.00,1.51
7930.00,1.51
7929.00,1.51
7928.00,1.52
7927.00,1.52
7926.00,1.52
7925.00,1.52
7924.00,1.52
7923.00,1.52
7922.00,1.52
7921.00,1.51
7920.00,1.51
7919.00,1.51
7918.00,1.51
7917.00,1.51
7916.00,1.51
7915.00,1.50
7914.00,1.50
7913.00,1.50
7912.00,1.49
7911.00,1.49
7910.00,1.49
7909.00,1.49
7908.00,1.49
7907.00,1.48
7906.00,1.48
7905.00,1.48
7904.00,1.48
7903.00,1.48
7902.00,1.48
7901.00,1.48
7900.00,1.47
7899.00,1.47
7898.00,1.47
7897.00,1.47
7896.00,1.47
7895.00,1.47
7894.00,1.47
7893.00,1.47
7892.00,1.47
7891.00,1.47
7890.00,1.47
7889.00,1.48
7888.00,1.48
7887.00,1.48
7886.00,1.48
7885.00,1.48
7884.00,1.48
7883.00,1.48
7882.00,1.48
7881.00,1.48
7880.00,1.48
7879.00,1.48
7878.00,1.48
7877.00,1.48
7876.00,1.48
7875.00,1.48
7874.00,1.48
7873.00,1.48
7872.00,1.48
7871.00,1.48
7870.00,1.48
7869.00,1.48
7868.00,1.48
7867.00,1.48
7866.00,1.48
7865.00,1.48
7864.00,1.48
7863.00,1.48
7862.00,1.48
7861.00,1.48
7860.00,1.48
7859.00,1.48
7858.00,1.48
7857.00,1.49
7856.00,1.49
7855.00,1.49
7854.00,1.49
7853.00,1.50
7852.00,1.50
7851.00,1.50
7850.00,1.51
7849.00,1.51
7848.00,1.51
7847.00,1.52
7846.00,1.52
7845.00,1.52
7844.00,1.52
7843.00,1.52
7842.00,1.53
7841.00,1.53
7840.00,1.53
7839.00,1.53
7838.00,1.53
7837.00,1.53
7836.00,1.53
7835.00,1.53
7834.00,1.53
7833.00,1.53
7832.00,1.53
7831.00,1.53
7830.00,1.53
7829.00,1.53
7828.00,1.53
7827.00,1.53
7826.00,1.52
7825.00,1.52
7824.00,1.52
7823.00,1.52
7822.00,1.51
7821.00,1.51
7820.00,1.51
7819.00,1.51
7818.00,1.51
7817.00,1.51
7816.00,1.51
7815.00,1.51
7814.00,1.51
7813.00,1.51
7812.00,1.51
7811.00,1.51
7810.00,1.51
7809.00,1.51
7808.00,1.51
7807.00,1.51
7806.00,1.51
7805.00,1.51
7804.00,1.51
7803.00,1.51
7802.00,1.51
7801.00,1.51
7800.00,1.51
7799.00,1.51
7798.00,1.51
7797.00,1.51
7796.00,1.51
7795.00,1.51
7794.00,1.51
7793.00,1.51
7792.00,1.51
7791.00,1.51
7790.00,1.51
7789.00,1.51
7788.00,1.50
7787.00,1.50
7786.00,1.50
7785.00,1.50
7784.00,1.49
7783.00,1.49
7782.00,1.49
7781.00,1.49
7780.00,1.49
7779.00,1.48
7778.00,1.48
7777.00,1.48
7776.00,1.48
7775.00,1.48
7774.00,1.48
7773.00,1.48
7772.00,1.48
7771.00,1.48
7770.00,1.48
7769.00,1.48
7768.00,1.48
7767.00,1.48
7766.00,1.48
7765.00,1.48
7764.00,1.48
7763.00,1.48
7762.00,1.49
7761.00,1.49
7760.00,1.49
7759.00,1.49
7758.00,1.49
7757.00,1.49
7756.00,1.50
7755.00,1.50
7754.00,1.50
7753.00,1.50
7752.00,1.50
7751.00,1.50
7750.00,1.50
7749.00,1.50
7748.00,1.50
7747.00,1.50
7746.00,1.51
7745.00,1.51
7744.00,1.51
7743.00,1.51
7742.00,1.51
7741.00,1.51
7740.00,1.51
7739.00,1.51
7738.00,1.51
7737.00,1.51
7736.00,1.51
7735.00,1.51
7734.00,1.51
7733.00,1.51
7732.00,1.51
7731.00,1.51
7730.00,1.52
7729.00,1.52
7728.00,1.52
7727.00,1.52
7726.00,1.52
7725.00,1.53
7724.00,1.53
7723.00,1.53
7722.00,1.53
7721.00,1.54
7720.00,1.54
7719.00,1.54
7718.00,1.54
7717.00,1.54
7716.00,1.55
7715.00,1.55
7714.00,1.55
7713.00,1.55
7712.00,1.56
7711.00,1.56
7710.00,1.56
7709.00,1.56
7708.00,1.56
7707.00,1.56
7706.00,1.56
7705.00,1.57
7704.00,1.57
7703.00,1.57
7702.00,1.57
7701.00,1.57
7700.00,1.57
7699.00,1.57
7698.00,1.57
7697.00,1.57
7696.00,1.57
7695.00,1.57
7694.00,1.57
7693.00,1.57
7692.00,1.57
7691.00,1.57
7690.00,1.57
7689.00,1.57
7688.00,1.57
7687.00,1.57
7686.00,1.57
7685.00,1.57
7684.00,1.57
7683.00,1.57
7682.00,1.57
7681.00,1.57
7680.00,1.57
7679.00,1.57
7678.00,1.57
7677.00,1.57
7676.00,1.57
7675.00,1.57
7674.00,1.57
7673.00,1.56
7672.00,1.56
7671.00,1.56
7670.00,1.56
7669.00,1.55
7668.00,1.55
7667.00,1.55
7666.00,1.54
7665.00,1.54
7664.00,1.53
7663.00,1.53
7662.00,1.52
7661.00,1.52
7660.00,1.51
7659.00,1.51
7658.00,1.50
7657.00,1.50
7656.00,1.49
7655.00,1.49
7654.00,1.49
7653.00,1.49
7652.00,1.49
7651.00,1.49
7650.00,1.48
7649.00,1.48
7648.00,1.48
7647.00,1.48
7646.00,1.48
7645.00,1.48
7644.00,1.48
7643.00,1.49
7642.00,1.49
7641.00,1.49
7640.00,1.49
7639.00,1.50
7638.00,1.50
7637.00,1.51
7636.00,1.51
7635.00,1.51
7634.00,1.52
7633.00,1.52
7632.00,1.52
7631.00,1.53
7630.00,1.53
7629.00,1.53
7628.00,1.54
7627.00,1.54
7626.00,1.54
7625.00,1.54
7624.00,1.54
7623.00,1.55
7622.00,1.55
7621.00,1.55
7620.00,1.55
7619.00,1.55
7618.00,1.55
7617.00,1.55
7616.00,1.55
7615.00,1.55
7614.00,1.55
7613.00,1.55
7612.00,1.55
7611.00,1.55
7610.00,1.54
7609.00,1.54
7608.00,1.54
7607.00,1.54
7606.00,1.54
7605.00,1.53
7604.00,1.53
7603.00,1.53
7602.00,1.53
7601.00,1.52
7600.00,1.52
7599.00,1.52
7598.00,1.52
7597.00,1.52
7596.00,1.52
7595.00,1.52
7594.00,1.52
7593.00,1.52
7592.00,1.52
7591.00,1.52
7590.00,1.52
7589.00,1.52
7588.00,1.52
7587.00,1.52
7586.00,1.52
7585.00,1.52
7584.00,1.53
7583.00,1.53
7582.00,1.53
7581.00,1.53
7580.00,1.54
7579.00,1.54
7578.00,1.54
7577.00,1.55
7576.00,1.55
7575.00,1.55
7574.00,1.55
7573.00,1.56
7572.00,1.56
7571.00,1.56
7570.00,1.56
7569.00,1.56
7568.00,1.56
7567.00,1.56
7566.00,1.56
7565.00,1.56
7564.00,1.56
7563.00,1.55
7562.00,1.55
7561.00,1.55
7560.00,1.55
7559.00,1.55
7558.00,1.55
7557.00,1.54
7556.00,1.54
7555.00,1.54
7554.00,1.53
7553.00,1.53
7552.00,1.53
7551.00,1.53
7550.00,1.52
7549.00,1.52
7548.00,1.52
7547.00,1.51
7546.00,1.51
7545.00,1.51
7544.00,1.51
7543.00,1.51
7542.00,1.51
7541.00,1.51
7540.00,1.50
7539.00,1.50
7538.00,1.50
7537.00,1.50
7536.00,1.50
7535.00,1.50
7534.00,1.50
7533.00,1.50
7532.00,1.50
7531.00,1.50
7530.00,1.50
7529.00,1.50
7528.00,1.49
7527.00,1.49
7526.00,1.49
7525.00,1.49
7524.00,1.49
7523.00,1.49
7522.00,1.49
7521.00,1.49
7520.00,1.49
7519.00,1.49
7518.00,1.49
7517.00,1.49
7516.00,1.49
7515.00,1.49
7514.00,1.49
7513.00,1.49
7512.00,1.49
7511.00,1.49
7510.00,1.49
7509.00,1.50
7508.00,1.50
7507.00,1.50
7506.00,1.50
7505.00,1.50
7504.00,1.50
7503.00,1.51
7502.00,1.51
7501.00,1.51
7500.00,1.51
7499.00,1.51
7498.00,1.52
7497.00,1.52
7496.00,1.52
7495.00,1.52
7494.00,1.52
7493.00,1.53
7492.00,1.53
7491.00,1.53
7490.00,1.53
7489.00,1.53
7488.00,1.53
7487.00,1.53
7486.00,1.54
7485.00,1.54
7484.00,1.54
7483.00,1.54
7482.00,1.54
7481.00,1.54
7480.00,1.54
7479.00,1.54
7478.00,1.54
7477.00,1.54
7476.00,1.54
7475.00,1.54
7474.00,1.54
7473.00,1.54
7472.00,1.54
7471.00,1.53
7470.00,1.53
7469.00,1.53
7468.00,1.53
7467.00,1.53
7466.00,1.53
7465.00,1.53
7464.00,1.53
7463.00,1.53
7462.00,1.53
7461.00,1.53
7460.00,1.53
7459.00,1.52
7458.00,1.52
7457.00,1.52
7456.00,1.52
7455.00,1.52
7454.00,1.52
7453.00,1.52
7452.00,1.52
7451.00,1.51
7450.00,1.51
7449.00,1.51
7448.00,1.51
7447.00,1.51
7446.00,1.51
7445.00,1.51
7444.00,1.51
7443.00,1.51
7442.00,1.51
7441.00,1.51
7440.00,1.50
7439.00,1.50
7438.00,1.50
7437.00,1.50
7436.00,1.50
7435.00,1.49
7434.00,1.49
7433.00,1.49
7432.00,1.49
7431.00,1.49
7430.00,1.49
7429.00,1.48
7428.00,1.48
7427.00,1.48
7426.00,1.48
7425.00,1.48
7424.00,1.48
7423.00,1.48
7422.00,1.48
7421.00,1.48
7420.00,1.47
7419.00,1.47
7418.00,1.47
7417.00,1.47
7416.00,1.47
7415.00,1.47
7414.00,1.47
7413.00,1.47
7412.00,1.47
7411.00,1.48
7410.00,1.48
7409.00,1.48
7408.00,1.48
7407.00,1.48
7406.00,1.48
7405.00,1.48
7404.00,1.48
7403.00,1.49
7402.00,1.49
7401.00,1.49
7400.00,1.49
7399.00,1.49
7398.00,1.49
7397.00,1.49
7396.00,1.49
7395.00,1.49
7394.00,1.49
7393.00,1.49
7392.00,1.49
7391.00,1.49
7390.00,1.49
7389.00,1.49
7388.00,1.48
7387.00,1.48
7386.00,1.48
7385.00,1.48
7384.00,1.48
7383.00,1.47
7382.00,1.47
7381.00,1.47
7380.00,1.47
7379.00,1.46
7378.00,1.46
7377.00,1.46
7376.00,1.46
7375.00,1.46
7374.00,1.46
7373.00,1.46
7372.00,1.46
7371.00,1.46
7370.00,1.46
7369.00,1.46
7368.00,1.46
7367.00,1.46
7366.00,1.46
7365.00,1.46
7364.00,1.46
7363.00,1.46
7362.00,1.46
7361.00,1.46
7360.00,1.47
7359.00,1.47
7358.00,1.47
7357.00,1.47
7356.00,1.48
7355.00,1.48
7354.00,1.49
7353.00,1.49
7352.00,1.49
7351.00,1.50
7350.00,1.50
7349.00,1.50
7348.00,1.50
7347.00,1.50
7346.00,1.51
7345.00,1.51
7344.00,1.51
7343.00,1.51
7342.00,1.52
7341.00,1.52
7340.00,1.52
7339.00,1.52
7338.00,1.52
7337.00,1.53
7336.00,1.53
7335.00,1.53
7334.00,1.53
7333.00,1.53
7332.00,1.52
7331.00,1.52
7330.00,1.52
7329.00,1.52
7328.00,1.51
7327.00,1.51
7326.00,1.50
7325.00,1.50
7324.00,1.49
7323.00,1.49
7322.00,1.48
7321.00,1.48
7320.00,1.47
7319.00,1.47
7318.00,1.46
7317.00,1.45
7316.00,1.45
7315.00,1.44
7314.00,1.43
7313.00,1.43
7312.00,1.42
7311.00,1.41
7310.00,1.41
7309.00,1.40
7308.00,1.40
7307.00,1.39
7306.00,1.39
7305.00,1.38
7304.00,1.38
7303.00,1.37
7302.00,1.37
7301.00,1.37
7300.00,1.37
7299.00,1.37
7298.00,1.37
7297.00,1.37
7296.00,1.37
7295.00,1.37
7294.00,1.37
7293.00,1.37
7292.00,1.37
7291.00,1.37
7290.00,1.37
7289.00,1.37
7288.00,1.37
7287.00,1.37
7286.00,1.38
7285.00,1.38
7284.00,1.38
7283.00,1.38
7282.00,1.38
7281.00,1.39
7280.00,1.39
7279.00,1.39
7278.00,1.39
7277.00,1.40
7276.00,1.40
7275.00,1.40
7274.00,1.40
7273.00,1.40
7272.00,1.40
7271.00,1.41
7270.00,1.41
7269.00,1.41
7268.00,1.41
7267.00,1.41
7266.00,1.42
7265.00,1.42
7264.00,1.42
7263.00,1.42
7262.00,1.42
7261.00,1.42
7260.00,1.43
7259.00,1.43
7258.00,1.43
7257.00,1.43
7256.00,1.43
7255.00,1.43
7254.00,1.43
7253.00,1.43
7252.00,1.43
7251.00,1.43
7250.00,1.43
7249.00,1.43
7248.00,1.43
7247.00,1.43
7246.00,1.43
7245.00,1.43
7244.00,1.43
7243.00,1.43
7242.00,1.42
7241.00,1.42
7240.00,1.42
7239.00,1.42
7238.00,1.41
7237.00,1.41
7236.00,1.41
7235.00,1.40
7234.00,1.40
7233.00,1.40
7232.00,1.39
7231.00,1.39
7230.00,1.39
7229.00,1.38
7228.00,1.38
7227.00,1.38
7226.00,1.37
7225.00,1.37
7224.00,1.36
7223.00,1.36
7222.00,1.35
7221.00,1.35
7220.00,1.35
7219.00,1.34
7218.00,1.34
7217.00,1.34
7216.00,1.33
7215.00,1.33
7214.00,1.32
7213.00,1.32
7212.00,1.32
7211.00,1.31
7210.00,1.31
7209.00,1.31
7208.00,1.31
7207.00,1.30
7206.00,1.30
7205.00,1.30
7204.00,1.29
7203.00,1.29
7202.00,1.29
7201.00,1.28
7200.00,1.28
7199.00,1.28
7198.00,1.27
7197.00,1.27
7196.00,1.27
7195.00,1.26
7194.00,1.26
7193.00,1.26
7192.00,1.25
7191.00,1.25
7190.00,1.25
7189.00,1.24
7188.00,1.24
7187.00,1.24
7186.00,1.23
7185.00,1.23
7184.00,1.23
7183.00,1.23
7182.00,1.22
7181.00,1.22
7180.00,1.22
7179.00,1.22
7178.00,1.22
7177.00,1.21
7176.00,1.21
7175.00,1.21
7174.00,1.21
7173.00,1.21
7172.00,1.21
7171.00,1.21
7170.00,1.21
7169.00,1.21
7168.00,1.21
7167.00,1.21
7166.00,1.22
7165.00,1.22
7164.00,1.22
7163.00,1.22
7162.00,1.22
7161.00,1.23
7160.00,1.23
7159.00,1.23
7158.00,1.23
7157.00,1.24
7156.00,1.24
7155.00,1.24
7154.00,1.24
7153.00,1.24
7152.00,1.24
7151.00,1.24
7150.00,1.24
7149.00,1.25
7148.00,1.25
7147.00,1.25
7146.00,1.25
7145.00,1.25
7144.00,1.24
7143.00,1.24
7142.00,1.24
7141.00,1.24
7140.00,1.23
7139.00,1.23
7138.00,1.23
7137.00,1.22
7136.00,1.22
7135.00,1.22
7134.00,1.21
7133.00,1.21
7132.00,1.20
7131.00,1.20
7130.00,1.20
7129.00,1.19
7128.00,1.19
7127.00,1.18
7126.00,1.18
7125.00,1.17
7124.00,1.17
7123.00,1.17
7122.00,1.16
7121.00,1.16
7120.00,1.15
7119.00,1.15
7118.00,1.14
7117.00,1.14
7116.00,1.14
7115.00,1.13
7114.00,1.13
7113.00,1.13
7112.00,1.12
7111.00,1.12
7110.00,1.12
7109.00,1.11
7108.00,1.11
7107.00,1.10
7106.00,1.10
7105.00,1.10
7104.00,1.09
7103.00,1.09
7102.00,1.08
7101.00,1.08
7100.00,1.08
7099.00,1.07
7098.00,1.07
7097.00,1.06
7096.00,1.06
7095.00,1.06
7094.00,1.05
7093.00,1.05
7092.00,1.04
7091.00,1.04
7090.00,1.04
7089.00,1.04
7088.00,1.03
7087.00,1.03
7086.00,1.03
7085.00,1.03
7084.00,1.03
7083.00,1.03
7082.00,1.03
7081.00,1.03
7080.00,1.03
7079.00,1.03
7078.00,1.03
7077.00,1.03
7076.00,1.03
7075.00,1.03
7074.00,1.03
7073.00,1.03
7072.00,1.03
7071.00,1.03
7070.00,1.03
7069.00,1.03
7068.00,1.03
7067.00,1.03
7066.00,1.03
7065.00,1.03
7064.00,1.03
7063.00,1.03
7062.00,1.03
7061.00,1.03
7060.00,1.02
7059.00,1.02
7058.00,1.02
7057.00,1.02
7056.00,1.01
7055.00,1.01
7054.00,1.01
7053.00,1.01
7052.00,1.00
7051.00,1.00
7050.00,1.00
7049.00,0.99
7048.00,0.99
7047.00,0.99
7046.00,0.99
7045.00,0.99
7044.00,0.98
7043.00,0.98
7042.00,0.98
7041.00,0.98
7040.00,0.98
7039.00,0.97
7038.00,0.97
7037.00,0.97
7036.00,0.97
7035.00,0.97
7034.00,0.97
7033.00,0.97
7032.00,0.97
7031.00,0.97
7030.00,0.97
7029.00,0.97
7028.00,0.97
7027.00,0.96
7026.00,0.96
7025.00,0.96
7024.00,0.96
7023.00,0.96
7022.00,0.96
7021.00,0.96
7020.00,0.96
7019.00,0.96
7018.00,0.96
7017.00,0.96
7016.00,0.96
7015.00,0.96
7014.00,0.96
7013.00,0.96
7012.00,0.96
7011.00,0.96
7010.00,0.96
7009.00,0.96
7008.00,0.96
7007.00,0.96
7006.00,0.96
7005.00,0.96
7004.00,0.96
7003.00,0.96
7002.00,0.96
7001.00,0.96
7000.00,0.96
6999.00,0.96
6998.00,0.95
6997.00,0.95
6996.00,0.95
6995.00,0.95
6994.00,0.95
6993.00,0.95
6992.00,0.95
6991.00,0.95
6990.00,0.94
6989.00,0.94
6988.00,0.94
6987.00,0.94
6986.00,0.94
6985.00,0.94
6984.00,0.94
6983.00,0.94
6982.00,0.94
6981.00,0.94
6980.00,0.94
6979.00,0.94
6978.00,0.94
6977.00,0.94
6976.00,0.94
6975.00,0.94
6974.00,0.94
6973.00,0.93
6972.00,0.93
6971.00,0.93
6970.00,0.93
6969.00,0.93
6968.00,0.93
6967.00,0.93
6966.00,0.93
6965.00,0.93
6964.00,0.92
6963.00,0.92
6962.00,0.92
6961.00,0.92
6960.00,0.92
6959.00,0.92
6958.00,0.91
6957.00,0.91
6956.00,0.91
6955.00,0.91
6954.00,0.91
6953.00,0.91
6952.00,0.90
6951.00,0.90
6950.00,0.90
6949.00,0.90
6948.00,0.90
6947.00,0.90
6946.00,0.89
6945.00,0.89
6944.00,0.89
6943.00,0.89
6942.00,0.89
6941.00,0.89
6940.00,0.89
6939.00,0.89
6938.00,0.89
6937.00,0.89
6936.00,0.89
6935.00,0.89
6934.00,0.89
6933.00,0.89
6932.00,0.89
6931.00,0.89
6930.00,0.89
6929.00,0.89
6928.00,0.89
6927.00,0.88
6926.00,0.88
6925.00,0.88
6924.00,0.88
6923.00,0.88
6922.00,0.89
6921.00,0.89
6920.00,0.89
6919.00,0.89
6918.00,0.89
6917.00,0.89
6916.00,0.89
6915.00,0.89
6914.00,0.89
6913.00,0.89
6912.00,0.90
6911.00,0.90
6910.00,0.90
6909.00,0.90
6908.00,0.90
6907.00,0.90
6906.00,0.90
6905.00,0.90
6904.00,0.90
6903.00,0.90
6902.00,0.90
6901.00,0.90
6900.00,0.90
6899.00,0.90
6898.00,0.90
6897.00,0.90
6896.00,0.90
6895.00,0.90
6894.00,0.90
6893.00,0.90
6892.00,0.90
6891.00,0.90
6890.00,0.90
6889.00,0.90
6888.00,0.89
6887.00,0.89
6886.00,0.89
6885.00,0.89
6884.00,0.89
6883.00,0.89
6882.00,0.89
6881.00,0.89
6880.00,0.89
6879.00,0.89
6878.00,0.89
6877.00,0.89
6876.00,0.89
6875.00,0.89
6874.00,0.89
6873.00,0.89
6872.00,0.89
6871.00,0.89
6870.00,0.89
6869.00,0.89
6868.00,0.89
6867.00,0.89
6866.00,0.89
6865.00,0.89
6864.00,0.89
6863.00,0.89
6862.00,0.89
6861.00,0.89
6860.00,0.89
6859.00,0.89
6858.00,0.89
6857.00,0.89
6856.00,0.89
6855.00,0.88
6854.00,0.88
6853.00,0.88
6852.00,0.88
6851.00,0.88
6850.00,0.88
6849.00,0.87
6848.00,0.87
6847.00,0.87
6846.00,0.87
6845.00,0.87
6844.00,0.87
6843.00,0.86
6842.00,0.86
6841.00,0.86
6840.00,0.86
6839.00,0.86
6838.00,0.86
6837.00,0.86
6836.00,0.87
6835.00,0.87
6834.00,0.87
6833.00,0.87
6832.00,0.87
6831.00,0.87
6830.00,0.87
6829.00,0.87
6828.00,0.88
6827.00,0.88
6826.00,0.88
6825.00,0.88
6824.00,0.88
6823.00,0.88
6822.00,0.89
6821.00,0.89
6820.00,0.89
6819.00,0.89
6818.00,0.89
6817.00,0.89
6816.00,0.89
6815.00,0.90
6814.00,0.90
6813.00,0.90
6812.00,0.90
6811.00,0.90
6810.00,0.90
6809.00,0.89
6808.00,0.89
6807.00,0.89
6806.00,0.89
6805.00,0.89
6804.00,0.89
6803.00,0.89
6802.00,0.89
6801.00,0.89
6800.00,0.89
6799.00,0.89
6798.00,0.89
6797.00,0.90
6796.00,0.90
6795.00,0.90
6794.00,0.90
6793.00,0.90
6792.00,0.90
6791.00,0.90
6790.00,0.90
6789.00,0.90
6788.00,0.91
6787.00,0.91
6786.00,0.91
6785.00,0.91
6784.00,0.91
6783.00,0.92
6782.00,0.92
6781.00,0.92
6780.00,0.92
6779.00,0.93
6778.00,0.93
6777.00,0.93
6776.00,0.93
6775.00,0.94
6774.00,0.94
6773.00,0.94
6772.00,0.94
6771.00,0.95
6770.00,0.95
6769.00,0.95
6768.00,0.95
6767.00,0.96
6766.00,0.96
6765.00,0.96
6764.00,0.96
6763.00,0.96
6762.00,0.97
6761.00,0.97
6760.00,0.97
6759.00,0.97
6758.00,0.97
6757.00,0.97
6756.00,0.98
6755.00,0.98
6754.00,0.98
6753.00,0.98
6752.00,0.98
6751.00,0.98
6750.00,0.99
6749.00,0.99
6748.00,0.99
6747.00,0.99
6746.00,0.99
6745.00,0.99
6744.00,0.99
6743.00,0.99
6742.00,0.99
6741.00,0.99
6740.00,0.99
6739.00,0.99
6738.00,0.99
6737.00,0.99
6736.00,0.99
6735.00,0.99
6734.00,0.99
6733.00,0.99
6732.00,0.99
6731.00,0.98
6730.00,0.98
6729.00,0.98
6728.00,0.98
6727.00,0.98
6726.00,0.98
6725.00,0.98
6724.00,0.97
6723.00,0.97
6722.00,0.97
6721.00,0.97
6720.00,0.97
6719.00,0.97
6718.00,0.97
6717.00,0.97
6716.00,0.97
6715.00,0.97
6714.00,0.97
6713.00,0.96
6712.00,0.96
6711.00,0.96
6710.00,0.96
6709.00,0.96
6708.00,0.96
6707.00,0.96
6706.00,0.96
6705.00,0.96
6704.00,0.96
6703.00,0.96
6702.00,0.96
6701.00,0.96
6700.00,0.96
6699.00,0.96
6698.00,0.96
6697.00,0.96
6696.00,0.96
6695.00,0.96
6694.00,0.96
6693.00,0.96
6692.00,0.96
6691.00,0.97
6690.00,0.97
6689.00,0.97
6688.00,0.97
6687.00,0.97
6686.00,0.97
6685.00,0.97
6684.00,0.97
6683.00,0.98
6682.00,0.98
6681.00,0.98
6680.00,0.98
6679.00,0.99
6678.00,0.99
6677.00,0.99
6676.00,0.99
6675.00,1.00
6674.00,1.00
6673.00,1.00
6672.00,1.00
6671.00,1.00
6670.00,1.01
6669.00,1.01
6668.00,1.01
6667.00,1.01
6666.00,1.02
6665.00,1.02
6664.00,1.02
6663.00,1.02
6662.00,1.03
6661.00,1.03
6660.00,1.03
6659.00,1.03
6658.00,1.03
6657.00,1.03
6656.00,1.04
6655.00,1.04
6654.00,1.04
6653.00,1.04
6652.00,1.04
6651.00,1.04
6650.00,1.04
6649.00,1.04
6648.00,1.05
6647.00,1.05
6646.00,1.05
6645.00,1.05
6644.00,1.05
6643.00,1.05
6642.00,1.05
6641.00,1.05
6640.00,1.05
6639.00,1.05
6638.00,1.05
6637.00,1.06
6636.00,1.06
6635.00,1.06
6634.00,1.06
6633.00,1.06
6632.00,1.06
6631.00,1.06
6630.00,1.06
6629.00,1.06
6628.00,1.07
6627.00,1.07
6626.00,1.07
6625.00,1.07
6624.00,1.07
6623.00,1.08
6622.00,1.08
6621.00,1.08
6620.00,1.08
6619.00,1.09
6618.00,1.09
6617.00,1.09
6616.00,1.09
6615.00,1.10
6614.00,1.10
6613.00,1.10
6612.00,1.10
6611.00,1.11
6610.00,1.11
6609.00,1.11
6608.00,1.11
6607.00,1.11
6606.00,1.11
6605.00,1.11
6604.00,1.12
6603.00,1.12
6602.00,1.12
6601.00,1.12
6600.00,1.12
6599.00,1.12
6598.00,1.12
6597.00,1.12
6596.00,1.12
6595.00,1.13
6594.00,1.13
6593.00,1.13
6592.00,1.13
6591.00,1.13
6590.00,1.13
6589.00,1.12
6588.00,1.12
6587.00,1.12
6586.00,1.12
6585.00,1.12
6584.00,1.12
6583.00,1.12
6582.00,1.12
6581.00,1.12
6580.00,1.12
6579.00,1.12
6578.00,1.12
6577.00,1.12
6576.00,1.12
6575.00,1.12
6574.00,1.12
6573.00,1.12
6572.00,1.12
6571.00,1.12
6570.00,1.12
6569.00,1.12
6568.00,1.12
6567.00,1.12
6566.00,1.12
6565.00,1.12
6564.00,1.12
6563.00,1.12
6562.00,1.13
6561.00,1.13
6560.00,1.13
6559.00,1.13
6558.00,1.13
6557.00,1.13
6556.00,1.13
6555.00,1.14
6554.00,1.14
6553.00,1.14
6552.00,1.14
6551.00,1.14
6550.00,1.14
6549.00,1.14
6548.00,1.14
6547.00,1.14
6546.00,1.14
6545.00,1.14
6544.00,1.14
6543.00,1.14
6542.00,1.14
6541.00,1.15
6540.00,1.15
6539.00,1.15
6538.00,1.15
6537.00,1.15
6536.00,1.15
6535.00,1.15
6534.00,1.15
6533.00,1.15
6532.00,1.15
6531.00,1.15
6530.00,1.15
6529.00,1.15
6528.00,1.15
6527.00,1.15
6526.00,1.16
6525.00,1.16
6524.00,1.16
6523.00,1.16
6522.00,1.16
6521.00,1.16
6520.00,1.16
6519.00,1.16
6518.00,1.16
6517.00,1.16
6516.00,1.16
6515.00,1.16
6514.00,1.16
6513.00,1.16
6512.00,1.16
6511.00,1.16
6510.00,1.17
6509.00,1.17
6508.00,1.17
6507.00,1.17
6506.00,1.17
6505.00,1.18
6504.00,1.18
6503.00,1.18
6502.00,1.18
6501.00,1.19
6500.00,1.19
6499.00,1.19
6498.00,1.19
6497.00,1.20
6496.00,1.20
6495.00,1.20
6494.00,1.21
6493.00,1.21
6492.00,1.21
6491.00,1.22
6490.00,1.22
6489.00,1.22
6488.00,1.22
6487.00,1.23
6486.00,1.23
6485.00,1.23
6484.00,1.23
6483.00,1.23
6482.00,1.24
6481.00,1.24
6480.00,1.24
6479.00,1.24
6478.00,1.24
6477.00,1.24
6476.00,1.24
6475.00,1.24
6474.00,1.23
6473.00,1.23
6472.00,1.23
6471.00,1.23
6470.00,1.23
6469.00,1.23
6468.00,1.23
6467.00,1.23
6466.00,1.22
6465.00,1.22
6464.00,1.22
6463.00,1.22
6462.00,1.22
6461.00,1.21
6460.00,1.21
6459.00,1.21
6458.00,1.21
6457.00,1.20
6456.00,1.20
6455.00,1.20
6454.00,1.20
6453.00,1.20
6452.00,1.20
6451.00,1.20
6450.00,1.20
6449.00,1.19
6448.00,1.19
6447.00,1.19
6446.00,1.19
6445.00,1.19
6444.00,1.19
6443.00,1.20
6442.00,1.20
6441.00,1.20
6440.00,1.20
6439.00,1.20
6438.00,1.20
6437.00,1.20
6436.00,1.20
6435.00,1.21
6434.00,1.21
6433.00,1.21
6432.00,1.21
6431.00,1.21
6430.00,1.22
6429.00,1.22
6428.00,1.22
6427.00,1.22
6426.00,1.23
6425.00,1.23
6424.00,1.23
6423.00,1.23
6422.00,1.24
6421.00,1.24
6420.00,1.24
6419.00,1.24
6418.00,1.24
6417.00,1.25
6416.00,1.25
6415.00,1.25
6414.00,1.25
6413.00,1.25
6412.00,1.26
6411.00,1.26
6410.00,1.26
6409.00,1.26
6408.00,1.26
6407.00,1.26
6406.00,1.27
6405.00,1.27
6404.00,1.27
6403.00,1.27
6402.00,1.27
6401.00,1.28
6400.00,1.28
6399.00,1.28
6398.00,1.28
6397.00,1.28
6396.00,1.28
6395.00,1.29
6394.00,1.29
6393.00,1.29
6392.00,1.29
6391.00,1.29
6390.00,1.29
6389.00,1.29
6388.00,1.29
6387.00,1.29
6386.00,1.29
6385.00,1.29
6384.00,1.29
6383.00,1.29
6382.00,1.29
6381.00,1.29
6380.00,1.29
6379.00,1.29
6378.00,1.29
6377.00,1.29
6376.00,1.29
6375.00,1.29
6374.00,1.29
6373.00,1.29
6372.00,1.29
6371.00,1.29
6370.00,1.29
6369.00,1.29
6368.00,1.29
6367.00,1.29
6366.00,1.29
6365.00,1.29
6364.00,1.29
6363.00,1.29
6362.00,1.29
6361.00,1.29
6360.00,1.29
6359.00,1.29
6358.00,1.29
6357.00,1.29
6356.00,1.29
6355.00,1.29
6354.00,1.29
6353.00,1.30
6352.00,1.30
6351.00,1.30
6350.00,1.30
6349.00,1.30
6348.00,1.30
6347.00,1.30
6346.00,1.30
6345.00,1.30
6344.00,1.30
6343.00,1.30
6342.00,1.30
6341.00,1.30
6340.00,1.30
6339.00,1.31
6338.00,1.31
6337.00,1.31
6336.00,1.31
6335.00,1.31
6334.00,1.31
6333.00,1.31
6332.00,1.31
6331.00,1.32
6330.00,1.32
6329.00,1.32
6328.00,1.32
6327.00,1.32
6326.00,1.32
6325.00,1.32
6324.00,1.32
6323.00,1.32
6322.00,1.32
6321.00,1.32
6320.00,1.32
6319.00,1.32
6318.00,1.32
6317.00,1.32
6316.00,1.32
6315.00,1.33
6314.00,1.33
6313.00,1.33
6312.00,1.33
6311.00,1.33
6310.00,1.33
6309.00,1.33
6308.00,1.33
6307.00,1.33
6306.00,1.33
6305.00,1.33
6304.00,1.33
6303.00,1.33
6302.00,1.33
6301.00,1.33
6300.00,1.33
6299.00,1.33
6298.00,1.33
6297.00,1.33
6296.00,1.33
6295.00,1.33
6294.00,1.33
6293.00,1.33
6292.00,1.33
6291.00,1.34
6290.00,1.34
6289.00,1.34
6288.00,1.34
6287.00,1.34
6286.00,1.34
6285.00,1.34
6284.00,1.34
6283.00,1.34
6282.00,1.34
6281.00,1.34
6280.00,1.34
6279.00,1.34
6278.00,1.35
6277.00,1.35
6276.00,1.35
6275.00,1.35
6274.00,1.35
6273.00,1.35
6272.00,1.35
6271.00,1.35
6270.00,1.35
6269.00,1.35
6268.00,1.35
6267.00,1.36
6266.00,1.36
6265.00,1.36
6264.00,1.36
6263.00,1.36
6262.00,1.36
6261.00,1.36
6260.00,1.36
6259.00,1.36
6258.00,1.36
6257.00,1.36
6256.00,1.37
6255.00,1.37
6254.00,1.37
6253.00,1.37
6252.00,1.37
6251.00,1.37
6250.00,1.37
6249.00,1.37
6248.00,1.37
6247.00,1.37
6246.00,1.37
6245.00,1.37
6244.00,1.37
6243.00,1.38
6242.00,1.38
6241.00,1.38
6240.00,1.38
6239.00,1.38
6238.00,1.39
6237.00,1.39
6236.00,1.39
6235.00,1.39
6234.00,1.40
6233.00,1.40
6232.00,1.40
6231.00,1.40
6230.00,1.40
6229.00,1.41
6228.00,1.41
6227.00,1.41
6226.00,1.41
6225.00,1.41
6224.00,1.41
6223.00,1.42
6222.00,1.42
6221.00,1.42
6220.00,1.42
6219.00,1.42
6218.00,1.42
6217.00,1.42
6216.00,1.42
6215.00,1.42
6214.00,1.42
6213.00,1.42
6212.00,1.42
6211.00,1.42
6210.00,1.42
6209.00,1.42
6208.00,1.42
6207.00,1.42
6206.00,1.42
6205.00,1.42
6204.00,1.42
6203.00,1.42
6202.00,1.43
6201.00,1.43
6200.00,1.43
6199.00,1.43
6198.00,1.43
6197.00,1.44
6196.00,1.44
6195.00,1.44
6194.00,1.44
6193.00,1.45
6192.00,1.45
6191.00,1.45
6190.00,1.45
6189.00,1.46
6188.00,1.46
6187.00,1.46
6186.00,1.46
6185.00,1.46
6184.00,1.46
6183.00,1.47
6182.00,1.47
6181.00,1.47
6180.00,1.47
6179.00,1.47
6178.00,1.47
6177.00,1.47
6176.00,1.47
6175.00,1.47
6174.00,1.47
6173.00,1.47
6172.00,1.46
6171.00,1.46
6170.00,1.46
6169.00,1.46
6168.00,1.46
6167.00,1.46
6166.00,1.46
6165.00,1.45
6164.00,1.45
6163.00,1.45
6162.00,1.45
6161.00,1.45
6160.00,1.45
6159.00,1.45
6158.00,1.45
6157.00,1.45
6156.00,1.45
6155.00,1.45
6154.00,1.45
6153.00,1.45
6152.00,1.45
6151.00,1.45
6150.00,1.45
6149.00,1.45
6148.00,1.45
6147.00,1.45
6146.00,1.45
6145.00,1.45
6144.00,1.45
6143.00,1.45
6142.00,1.45
6141.00,1.45
6140.00,1.45
6139.00,1.45
6138.00,1.45
6137.00,1.45
6136.00,1.45
6135.00,1.45
6134.00,1.45
6133.00,1.45
6132.00,1.45
6131.00,1.45
6130.00,1.45
6129.00,1.46
6128.00,1.46
6127.00,1.46
6126.00,1.46
6125.00,1.46
6124.00,1.46
6123.00,1.46
6122.00,1.46
6121.00,1.47
6120.00,1.47
6119.00,1.47
6118.00,1.47
6117.00,1.47
6116.00,1.47
6115.00,1.48
6114.00,1.48
6113.00,1.48
6112.00,1.48
6111.00,1.49
6110.00,1.49
6109.00,1.49
6108.00,1.49
6107.00,1.50
6106.00,1.50
6105.00,1.50
6104.00,1.50
6103.00,1.51
6102.00,1.51
6101.00,1.51
6100.00,1.51
6099.00,1.51
6098.00,1.51
6097.00,1.52
6096.00,1.52
6095.00,1.52
6094.00,1.52
6093.00,1.52
6092.00,1.52
6091.00,1.53
6090.00,1.53
6089.00,1.53
6088.00,1.53
6087.00,1.53
6086.00,1.53
6085.00,1.53
6084.00,1.53
6083.00,1.53
6082.00,1.53
6081.00,1.53
6080.00,1.53
6079.00,1.53
6078.00,1.53
6077.00,1.53
6076.00,1.53
6075.00,1.54
6074.00,1.54
6073.00,1.54
6072.00,1.54
6071.00,1.54
6070.00,1.54
6069.00,1.54
6068.00,1.53
6067.00,1.53
6066.00,1.53
6065.00,1.53
6064.00,1.53
6063.00,1.53
6062.00,1.53
6061.00,1.53
6060.00,1.53
6059.00,1.54
6058.00,1.54
6057.00,1.54
6056.00,1.54
6055.00,1.54
6054.00,1.54
6053.00,1.54
6052.00,1.54
6051.00,1.55
6050.00,1.55
6049.00,1.55
6048.00,1.55
6047.00,1.55
6046.00,1.56
6045.00,1.56
6044.00,1.56
6043.00,1.56
6042.00,1.56
6041.00,1.57
6040.00,1.57
6039.00,1.57
6038.00,1.57
6037.00,1.57
6036.00,1.57
6035.00,1.57
6034.00,1.58
6033.00,1.58
6032.00,1.58
6031.00,1.58
6030.00,1.58
6029.00,1.58
6028.00,1.58
6027.00,1.58
6026.00,1.58
6025.00,1.58
6024.00,1.58
6023.00,1.58
6022.00,1.58
6021.00,1.58
6020.00,1.58
6019.00,1.58
6018.00,1.58
6017.00,1.58
6016.00,1.57
6015.00,1.57
6014.00,1.57
6013.00,1.57
6012.00,1.57
6011.00,1.57
6010.00,1.57
6009.00,1.57
6008.00,1.57
6007.00,1.57
6006.00,1.57
6005.00,1.56
6004.00,1.56
6003.00,1.56
6002.00,1.56
6001.00,1.56
6000.00,1.56
5999.00,1.56
5998.00,1.56
5997.00,1.56
5996.00,1.56
5995.00,1.56
5994.00,1.56
5993.00,1.56
5992.00,1.56
5991.00,1.56
5990.00,1.56
5989.00,1.56
5988.00,1.56
5987.00,1.56
5986.00,1.56
5985.00,1.56
5984.00,1.55
5983.00,1.55
5982.00,1.55
5981.00,1.55
5980.00,1.55
5979.00,1.55
5978.00,1.55
5977.00,1.54
5976.00,1.54
5975.00,1.54
5974.00,1.54
5973.00,1.53
5972.00,1.53
5971.00,1.53
5970.00,1.53
5969.00,1.52
5968.00,1.52
5967.00,1.51
5966.00,1.51
5965.00,1.50
5964.00,1.50
5963.00,1.49
5962.00,1.49
5961.00,1.48
5960.00,1.48
5959.00,1.48
5958.00,1.47
5957.00,1.47
5956.00,1.46
5955.00,1.46
5954.00,1.45
5953.00,1.45
5952.00,1.45
5951.00,1.44
5950.00,1.44
5949.00,1.43
5948.00,1.43
5947.00,1.43
5946.00,1.42
5945.00,1.42
5944.00,1.42
5943.00,1.42
5942.00,1.42
5941.00,1.42
5940.00,1.42
5939.00,1.42
5938.00,1.42
5937.00,1.42
5936.00,1.42
5935.00,1.42
5934.00,1.42
5933.00,1.42
5932.00,1.42
5931.00,1.42
5930.00,1.42
5929.00,1.42
5928.00,1.42
5927.00,1.42
5926.00,1.42
5925.00,1.42
5924.00,1.43
5923.00,1.43
5922.00,1.43
5921.00,1.43
5920.00,1.43
5919.00,1.43
5918.00,1.43
5917.00,1.43
5916.00,1.43
5915.00,1.43
5914.00,1.43
5913.00,1.43
5912.00,1.42
5911.00,1.42
5910.00,1.42
5909.00,1.42
5908.00,1.42
5907.00,1.42
5906.00,1.42
5905.00,1.42
5904.00,1.42
5903.00,1.42
5902.00,1.42
5901.00,1.42
5900.00,1.42
5899.00,1.42
5898.00,1.42
5897.00,1.42
5896.00,1.42
5895.00,1.42
5894.00,1.42
5893.00,1.42
5892.00,1.42
5891.00,1.42
5890.00,1.43
5889.00,1.43
5888.00,1.43
5887.00,1.43
5886.00,1.43
5885.00,1.44
5884.00,1.44
5883.00,1.44
5882.00,1.44
5881.00,1.45
5880.00,1.45
5879.00,1.45
5878.00,1.45
5877.00,1.45
5876.00,1.46
5875.00,1.46
5874.00,1.46
5873.00,1.46
5872.00,1.46
5871.00,1.46
5870.00,1.46
5869.00,1.46
5868.00,1.47
5867.00,1.47
5866.00,1.47
5865.00,1.47
5864.00,1.47
5863.00,1.47
5862.00,1.47
5861.00,1.47
5860.00,1.47
5859.00,1.47
5858.00,1.47
5857.00,1.47
5856.00,1.47
5855.00,1.47
5854.00,1.47
5853.00,1.47
5852.00,1.47
5851.00,1.47
5850.00,1.47
5849.00,1.47
5848.00,1.47
5847.00,1.47
5846.00,1.47
5845.00,1.47
5844.00,1.48
5843.00,1.48
5842.00,1.48
5841.00,1.48
5840.00,1.48
5839.00,1.48
5838.00,1.48
5837.00,1.48
5836.00,1.48
5835.00,1.48
5834.00,1.48
5833.00,1.48
5832.00,1.48
5831.00,1.48
5830.00,1.48
5829.00,1.47
5828.00,1.47
5827.00,1.47
5826.00,1.47
5825.00,1.47
5824.00,1.47
5823.00,1.47
5822.00,1.47
5821.00,1.47
5820.00,1.47
5819.00,1.47
5818.00,1.47
5817.00,1.46
5816.00,1.46
5815.00,1.46
5814.00,1.46
5813.00,1.46
5812.00,1.46
5811.00,1.46
5810.00,1.46
5809.00,1.46
5808.00,1.46
5807.00,1.46
5806.00,1.46
5805.00,1.47
5804.00,1.47
5803.00,1.47
5802.00,1.47
5801.00,1.47
5800.00,1.47
5799.00,1.47
5798.00,1.47
5797.00,1.47
5796.00,1.47
5795.00,1.47
5794.00,1.47
5793.00,1.47
5792.00,1.47
5791.00,1.47
5790.00,1.47
5789.00,1.47
5788.00,1.47
5787.00,1.46
5786.00,1.46
5785.00,1.46
5784.00,1.46
5783.00,1.46
5782.00,1.46
5781.00,1.45
5780.00,1.45
5779.00,1.45
5778.00,1.45
5777.00,1.45
5776.00,1.44
5775.00,1.44
5774.00,1.44
5773.00,1.44
5772.00,1.44
5771.00,1.44
5770.00,1.44
5769.00,1.44
5768.00,1.43
5767.00,1.43
5766.00,1.43
5765.00,1.43
5764.00,1.43
5763.00,1.43
5762.00,1.43
5761.00,1.43
5760.00,1.43
5759.00,1.43
5758.00,1.43
5757.00,1.44
5756.00,1.44
5755.00,1.44
5754.00,1.44
5753.00,1.44
5752.00,1.44
5751.00,1.44
5750.00,1.45
5749.00,1.45
5748.00,1.45
5747.00,1.45
5746.00,1.45
5745.00,1.45
5744.00,1.46
5743.00,1.46
5742.00,1.46
5741.00,1.46
5740.00,1.46
5739.00,1.46
5738.00,1.47
5737.00,1.47
5736.00,1.47
5735.00,1.47
5734.00,1.47
5733.00,1.47
5732.00,1.47
5731.00,1.48
5730.00,1.48
5729.00,1.48
5728.00,1.48
5727.00,1.48
5726.00,1.48
5725.00,1.48
5724.00,1.48
5723.00,1.48
5722.00,1.48
5721.00,1.49
5720.00,1.49
5719.00,1.49
5718.00,1.49
5717.00,1.49
5716.00,1.49
5715.00,1.49
5714.00,1.49
5713.00,1.49
5712.00,1.49
5711.00,1.49
5710.00,1.49
5709.00,1.49
5708.00,1.49
5707.00,1.49
5706.00,1.49
5705.00,1.49
5704.00,1.49
5703.00,1.49
5702.00,1.48
5701.00,1.48
5700.00,1.48
5699.00,1.48
5698.00,1.48
5697.00,1.48
5696.00,1.48
5695.00,1.48
5694.00,1.48
5693.00,1.48
5692.00,1.48
5691.00,1.47
5690.00,1.47
5689.00,1.47
5688.00,1.47
5687.00,1.47
5686.00,1.47
5685.00,1.47
5684.00,1.47
5683.00,1.47
5682.00,1.47
5681.00,1.47
5680.00,1.47
5679.00,1.47
5678.00,1.47
5677.00,1.47
5676.00,1.47
5675.00,1.47
5674.00,1.48
5673.00,1.48
5672.00,1.48
5671.00,1.48
5670.00,1.48
5669.00,1.48
5668.00,1.48
5667.00,1.48
5666.00,1.48
5665.00,1.49
5664.00,1.49
5663.00,1.49
5662.00,1.49
5661.00,1.49
5660.00,1.49
5659.00,1.49
5658.00,1.49
5657.00,1.49
5656.00,1.50
5655.00,1.50
5654.00,1.50
5653.00,1.50
5652.00,1.50
5651.00,1.50
5650.00,1.50
5649.00,1.51
5648.00,1.51
5647.00,1.51
5646.00,1.51
5645.00,1.51
5644.00,1.51
5643.00,1.51
5642.00,1.51
5641.00,1.51
5640.00,1.51
5639.00,1.52
5638.00,1.52
5637.00,1.52
5636.00,1.52
5635.00,1.52
5634.00,1.52
5633.00,1.52
5632.00,1.52
5631.00,1.52
5630.00,1.52
5629.00,1.52
5628.00,1.52
5627.00,1.52
5626.00,1.52
5625.00,1.52
5624.00,1.52
5623.00,1.52
5622.00,1.52
5621.00,1.52
5620.00,1.51
5619.00,1.51
5618.00,1.51
5617.00,1.51
5616.00,1.51
5615.00,1.51
5614.00,1.51
5613.00,1.51
5612.00,1.51
5611.00,1.51
5610.00,1.51
5609.00,1.51
5608.00,1.51
5607.00,1.51
5606.00,1.51
5605.00,1.51
5604.00,1.51
5603.00,1.51
5602.00,1.51
5601.00,1.51
5600.00,1.52
5599.00,1.52
5598.00,1.52
5597.00,1.52
5596.00,1.52
5595.00,1.53
5594.00,1.53
5593.00,1.53
5592.00,1.53
5591.00,1.54
5590.00,1.54
5589.00,1.54
5588.00,1.54
5587.00,1.55
5586.00,1.55
5585.00,1.55
5584.00,1.55
5583.00,1.55
5582.00,1.56
5581.00,1.56
5580.00,1.56
5579.00,1.56
5578.00,1.57
5577.00,1.57
5576.00,1.57
5575.00,1.57
5574.00,1.57
5573.00,1.58
5572.00,1.58
5571.00,1.58
5570.00,1.58
5569.00,1.58
5568.00,1.58
5567.00,1.59
5566.00,1.59
5565.00,1.59
5564.00,1.59
5563.00,1.59
5562.00,1.59
5561.00,1.59
5560.00,1.59
5559.00,1.60
5558.00,1.60
5557.00,1.60
5556.00,1.60
5555.00,1.60
5554.00,1.60
5553.00,1.60
5552.00,1.60
5551.00,1.60
5550.00,1.60
5549.00,1.60
5548.00,1.60
5547.00,1.60
5546.00,1.60
5545.00,1.60
5544.00,1.60
5543.00,1.60
5542.00,1.60
5541.00,1.60
5540.00,1.60
5539.00,1.60
5538.00,1.60
5537.00,1.60
5536.00,1.60
5535.00,1.60
5534.00,1.60
5533.00,1.60
5532.00,1.60
5531.00,1.60
5530.00,1.60
5529.00,1.60
5528.00,1.59
5527.00,1.59
5526.00,1.59
5525.00,1.59
5524.00,1.59
5523.00,1.59
5522.00,1.59
5521.00,1.59
5520.00,1.59
5519.00,1.59
5518.00,1.59
5517.00,1.59
5516.00,1.59
5515.00,1.59
5514.00,1.59
5513.00,1.59
5512.00,1.59
5511.00,1.59
5510.00,1.58
5509.00,1.58
5508.00,1.58
5507.00,1.58
5506.00,1.58
5505.00,1.58
5504.00,1.58
5503.00,1.58
5502.00,1.58
5501.00,1.58
5500.00,1.58
5499.00,1.58
5498.00,1.58
5497.00,1.58
5496.00,1.59
5495.00,1.59
5494.00,1.59
5493.00,1.59
5492.00,1.59
5491.00,1.59
5490.00,1.60
5489.00,1.60
5488.00,1.60
5487.00,1.60
5486.00,1.61
5485.00,1.61
5484.00,1.61
5483.00,1.61
5482.00,1.61
5481.00,1.62
5480.00,1.62
5479.00,1.62
5478.00,1.62
5477.00,1.62
5476.00,1.63
5475.00,1.63
5474.00,1.63
5473.00,1.63
5472.00,1.63
5471.00,1.63
5470.00,1.63
5469.00,1.63
5468.00,1.63
5467.00,1.63
5466.00,1.63
5465.00,1.63
5464.00,1.63
5463.00,1.63
5462.00,1.63
5461.00,1.63
5460.00,1.62
5459.00,1.62
5458.00,1.62
5457.00,1.62
5456.00,1.62
5455.00,1.62
5454.00,1.62
5453.00,1.62
5452.00,1.62
5451.00,1.62
5450.00,1.62
5449.00,1.62
5448.00,1.62
5447.00,1.62
5446.00,1.62
5445.00,1.62
5444.00,1.62
5443.00,1.62
5442.00,1.62
5441.00,1.62
5440.00,1.62
5439.00,1.62
5438.00,1.62
5437.00,1.62
5436.00,1.62
5435.00,1.62
5434.00,1.62
5433.00,1.63
5432.00,1.63
5431.00,1.63
5430.00,1.63
5429.00,1.63
5428.00,1.63
5427.00,1.63
5426.00,1.63
5425.00,1.63
5424.00,1.63
5423.00,1.63
5422.00,1.63
5421.00,1.63
5420.00,1.64
5419.00,1.64
5418.00,1.64
5417.00,1.64
5416.00,1.64
5415.00,1.63
5414.00,1.63
5413.00,1.63
5412.00,1.63
5411.00,1.63
5410.00,1.63
5409.00,1.63
5408.00,1.63
5407.00,1.63
5406.00,1.62
5405.00,1.62
5404.00,1.62
5403.00,1.62
5402.00,1.62
5401.00,1.62
5400.00,1.62
5399.00,1.61
5398.00,1.61
5397.00,1.61
5396.00,1.61
5395.00,1.61
5394.00,1.61
5393.00,1.61
5392.00,1.60
5391.00,1.60
5390.00,1.60
5389.00,1.60
5388.00,1.60
5387.00,1.60
5386.00,1.59
5385.00,1.59
5384.00,1.59
5383.00,1.59
5382.00,1.59
5381.00,1.59
5380.00,1.58
5379.00,1.58
5378.00,1.58
5377.00,1.58
5376.00,1.57
5375.00,1.57
5374.00,1.57
5373.00,1.57
5372.00,1.56
5371.00,1.56
5370.00,1.55
5369.00,1.55
5368.00,1.55
5367.00,1.54
5366.00,1.54
5365.00,1.53
5364.00,1.53
5363.00,1.52
5362.00,1.51
5361.00,1.51
5360.00,1.50
5359.00,1.50
5358.00,1.49
5357.00,1.49
5356.00,1.48
5355.00,1.47
5354.00,1.47
5353.00,1.46
5352.00,1.45
5351.00,1.45
5350.00,1.44
5349.00,1.44
5348.00,1.43
5347.00,1.42
5346.00,1.42
5345.00,1.41
5344.00,1.40
5343.00,1.40
5342.00,1.39
5341.00,1.38
5340.00,1.37
5339.00,1.37
5338.00,1.36
5337.00,1.35
5336.00,1.35
5335.00,1.34
5334.00,1.33
5333.00,1.32
5332.00,1.31
5331.00,1.30
5330.00,1.30
5329.00,1.29
5328.00,1.28
5327.00,1.27
5326.00,1.26
5325.00,1.25
5324.00,1.24
5323.00,1.23
5322.00,1.21
5321.00,1.20
5320.00,1.19
5319.00,1.18
5318.00,1.17
5317.00,1.16
5316.00,1.14
5315.00,1.13
5314.00,1.12
5313.00,1.11
5312.00,1.09
5311.00,1.08
5310.00,1.07
5309.00,1.06
5308.00,1.04
5307.00,1.03
5306.00,1.02
5305.00,1.01
5304.00,1.00
5303.00,0.98
5302.00,0.97
5301.00,0.96
5300.00,0.95
5299.00,0.94
5298.00,0.93
5297.00,0.92
5296.00,0.91
5295.00,0.90
5294.00,0.90
5293.00,0.89
5292.00,0.88
5291.00,0.87
5290.00,0.87
5289.00,0.86
5288.00,0.86
5287.00,0.85
5286.00,0.85
5285.00,0.84
5284.00,0.84
5283.00,0.83
5282.00,0.83
5281.00,0.83
5280.00,0.82
5279.00,0.82
5278.00,0.81
5277.00,0.81
5276.00,0.81
5275.00,0.81
5274.00,0.80
5273.00,0.80
5272.00,0.80
5271.00,0.79
5270.00,0.79
5269.00,0.79
5268.00,0.78
5267.00,0.78
5266.00,0.78
5265.00,0.77
5264.00,0.77
5263.00,0.77
5262.00,0.76
5261.00,0.76
5260.00,0.76
5259.00,0.75
5258.00,0.75
5257.00,0.75
5256.00,0.75
5255.00,0.74
5254.00,0.74
5253.00,0.74
5252.00,0.74
5251.00,0.73
5250.00,0.73
5249.00,0.73
5248.00,0.73
5247.00,0.73
5246.00,0.73
5245.00,0.73
5244.00,0.73
5243.00,0.73
5242.00,0.73
5241.00,0.73
5240.00,0.72
5239.00,0.72
5238.00,0.72
5237.00,0.73
5236.00,0.73
5235.00,0.73
5234.00,0.73
5233.00,0.73
5232.00,0.73
5231.00,0.73
5230.00,0.73
5229.00,0.72
5228.00,0.72
5227.00,0.72
5226.00,0.72
5225.00,0.72
5224.00,0.72
5223.00,0.72
5222.00,0.72
5221.00,0.71
5220.00,0.71
5219.00,0.71
5218.00,0.71
5217.00,0.71
5216.00,0.71
5215.00,0.71
5214.00,0.70
5213.00,0.70
5212.00,0.70
5211.00,0.70
5210.00,0.70
5209.00,0.69
5208.00,0.69
5207.00,0.69
5206.00,0.69
5205.00,0.69
5204.00,0.69
5203.00,0.69
5202.00,0.69
5201.00,0.69
5200.00,0.69
5199.00,0.69
5198.00,0.69
5197.00,0.69
5196.00,0.69
5195.00,0.69
5194.00,0.69
5193.00,0.69
5192.00,0.70
5191.00,0.70
5190.00,0.70
5189.00,0.70
5188.00,0.70
5187.00,0.70
5186.00,0.71
5185.00,0.71
5184.00,0.71
5183.00,0.71
5182.00,0.71
5181.00,0.72
5180.00,0.72
5179.00,0.72
5178.00,0.72
5177.00,0.72
5176.00,0.73
5175.00,0.73
5174.00,0.73
5173.00,0.73
5172.00,0.73
5171.00,0.73
5170.00,0.74
5169.00,0.74
5168.00,0.74
5167.00,0.74
5166.00,0.74
5165.00,0.74
5164.00,0.74
5163.00,0.74
5162.00,0.74
5161.00,0.74
5160.00,0.74
5159.00,0.75
5158.00,0.75
5157.00,0.75
5156.00,0.75
5155.00,0.75
5154.00,0.75
5153.00,0.75
5152.00,0.75
5151.00,0.75
5150.00,0.75
5149.00,0.75
5148.00,0.75
5147.00,0.75
5146.00,0.75
5145.00,0.75
5144.00,0.75
5143.00,0.75
5142.00,0.75
5141.00,0.75
5140.00,0.75
5139.00,0.75
5138.00,0.75
5137.00,0.75
5136.00,0.75
5135.00,0.75
5134.00,0.75
5133.00,0.75
5132.00,0.75
5131.00,0.75
5130.00,0.75
5129.00,0.75
5128.00,0.75
5127.00,0.76
5126.00,0.76
5125.00,0.76
5124.00,0.76
5123.00,0.76
5122.00,0.76
5121.00,0.76
5120.00,0.77
5119.00,0.77
5118.00,0.77
5117.00,0.77
5116.00,0.77
5115.00,0.77
5114.00,0.77
5113.00,0.77
5112.00,0.77
5111.00,0.78
5110.00,0.78
5109.00,0.78
5108.00,0.78
5107.00,0.78
5106.00,0.78
5105.00,0.78
5104.00,0.78
5103.00,0.78
5102.00,0.78
5101.00,0.78
5100.00,0.78
5099.00,0.78
5098.00,0.78
5097.00,0.78
5096.00,0.78
5095.00,0.77
5094.00,0.77
5093.00,0.77
5092.00,0.77
5091.00,0.77
5090.00,0.77
5089.00,0.77
5088.00,0.77
5087.00,0.77
5086.00,0.77
5085.00,0.77
5084.00,0.77
5083.00,0.77
5082.00,0.77
5081.00,0.77
5080.00,0.77
5079.00,0.78
5078.00,0.78
5077.00,0.78
5076.00,0.78
5075.00,0.78
5074.00,0.78
5073.00,0.79
5072.00,0.79
5071.00,0.79
5070.00,0.79
5069.00,0.79
5068.00,0.79
5067.00,0.80
5066.00,0.80
5065.00,0.80
5064.00,0.80
5063.00,0.80
5062.00,0.81
5061.00,0.81
5060.00,0.81
5059.00,0.81
5058.00,0.82
5057.00,0.82
5056.00,0.82
5055.00,0.83
5054.00,0.83
5053.00,0.83
5052.00,0.83
5051.00,0.83
5050.00,0.84
5049.00,0.84
5048.00,0.84
5047.00,0.84
5046.00,0.84
5045.00,0.84
5044.00,0.84
5043.00,0.84
5042.00,0.85
5041.00,0.85
5040.00,0.85
5039.00,0.85
5038.00,0.85
5037.00,0.85
5036.00,0.85
5035.00,0.86
5034.00,0.86
5033.00,0.86
5032.00,0.86
5031.00,0.86
5030.00,0.86
5029.00,0.86
5028.00,0.86
5027.00,0.86
5026.00,0.86
5025.00,0.86
5024.00,0.86
5023.00,0.86
5022.00,0.86
5021.00,0.87
5020.00,0.87
5019.00,0.87
5018.00,0.87
5017.00,0.87
5016.00,0.87
5015.00,0.87
5014.00,0.87
5013.00,0.87
5012.00,0.87
5011.00,0.87
5010.00,0.87
5009.00,0.87
5008.00,0.87
5007.00,0.87
5006.00,0.87
5005.00,0.88
5004.00,0.88
5003.00,0.88
5002.00,0.88
5001.00,0.88
5000.00,0.88
4999.00,0.88
4998.00,0.88
4997.00,0.88
4996.00,0.88
4995.00,0.88
4994.00,0.88
4993.00,0.88
4992.00,0.88
4991.00,0.88
4990.00,0.88
4989.00,0.88
4988.00,0.89
4987.00,0.89
4986.00,0.89
4985.00,0.89
4984.00,0.90
4983.00,0.90
4982.00,0.90
4981.00,0.91
4980.00,0.91
4979.00,0.91
4978.00,0.92
4977.00,0.92
4976.00,0.92
4975.00,0.93
4974.00,0.93
4973.00,0.94
4972.00,0.94
4971.00,0.95
4970.00,0.95
4969.00,0.95
4968.00,0.96
4967.00,0.96
4966.00,0.97
4965.00,0.97
4964.00,0.97
4963.00,0.97
4962.00,0.98
4961.00,0.98
4960.00,0.98
4959.00,0.98
4958.00,0.98
4957.00,0.99
4956.00,0.99
4955.00,0.99
4954.00,0.99
4953.00,0.99
4952.00,0.99
4951.00,0.99
4950.00,0.99
4949.00,0.99
4948.00,0.99
4947.00,0.99
4946.00,0.98
4945.00,0.98
4944.00,0.98
4943.00,0.98
4942.00,0.98
4941.00,0.98
4940.00,0.98
4939.00,0.98
4938.00,0.98
4937.00,0.98
4936.00,0.98
4935.00,0.98
4934.00,0.98
4933.00,0.97
4932.00,0.97
4931.00,0.97
4930.00,0.97
4929.00,0.97
4928.00,0.97
4927.00,0.97
4926.00,0.97
4925.00,0.97
4924.00,0.97
4923.00,0.98
4922.00,0.98
4921.00,0.98
4920.00,0.98
4919.00,0.98
4918.00,0.98
4917.00,0.98
4916.00,0.98
4915.00,0.98
4914.00,0.99
4913.00,0.99
4912.00,0.99
4911.00,0.99
4910.00,0.99
4909.00,0.99
4908.00,1.00
4907.00,1.00
4906.00,1.00
4905.00,1.01
4904.00,1.01
4903.00,1.01
4902.00,1.01
4901.00,1.02
4900.00,1.02
4899.00,1.02
4898.00,1.03
4897.00,1.03
4896.00,1.03
4895.00,1.03
4894.00,1.04
4893.00,1.04
4892.00,1.04
4891.00,1.04
4890.00,1.05
4889.00,1.05
4888.00,1.05
4887.00,1.05
4886.00,1.05
4885.00,1.05
4884.00,1.05
4883.00,1.05
4882.00,1.05
4881.00,1.06
4880.00,1.06
4879.00,1.06
4878.00,1.06
4877.00,1.05
4876.00,1.05
4875.00,1.05
4874.00,1.05
4873.00,1.05
4872.00,1.05
4871.00,1.06
4870.00,1.06
4869.00,1.06
4868.00,1.06
4867.00,1.06
4866.00,1.06
4865.00,1.06
4864.00,1.06
4863.00,1.06
4862.00,1.06
4861.00,1.06
4860.00,1.06
4859.00,1.07
4858.00,1.07
4857.00,1.07
4856.00,1.08
4855.00,1.08
4854.00,1.08
4853.00,1.09
4852.00,1.09
4851.00,1.09
4850.00,1.10
4849.00,1.10
4848.00,1.10
4847.00,1.10
4846.00,1.11
4845.00,1.11
4844.00,1.11
4843.00,1.11
4842.00,1.12
4841.00,1.12
4840.00,1.12
4839.00,1.12
4838.00,1.13
4837.00,1.13
4836.00,1.13
4835.00,1.13
4834.00,1.13
4833.00,1.13
4832.00,1.13
4831.00,1.13
4830.00,1.13
4829.00,1.13
4828.00,1.13
4827.00,1.13
4826.00,1.13
4825.00,1.13
4824.00,1.13
4823.00,1.13
4822.00,1.13
4821.00,1.13
4820.00,1.13
4819.00,1.13
4818.00,1.14
4817.00,1.14
4816.00,1.14
4815.00,1.14
4814.00,1.14
4813.00,1.14
4812.00,1.14
4811.00,1.14
4810.00,1.14
4809.00,1.14
4808.00,1.14
4807.00,1.14
4806.00,1.14
4805.00,1.14
4804.00,1.15
4803.00,1.15
4802.00,1.15
4801.00,1.16
4800.00,1.16
4799.00,1.16
4798.00,1.17
4797.00,1.17
4796.00,1.17
4795.00,1.18
4794.00,1.18
4793.00,1.19
4792.00,1.19
4791.00,1.20
4790.00,1.20
4789.00,1.21
4788.00,1.21
4787.00,1.22
4786.00,1.22
4785.00,1.23
4784.00,1.23
4783.00,1.24
4782.00,1.25
4781.00,1.25
4780.00,1.26
4779.00,1.26
4778.00,1.27
4777.00,1.27
4776.00,1.28
4775.00,1.28
4774.00,1.28
4773.00,1.29
4772.00,1.29
4771.00,1.29
4770.00,1.30
4769.00,1.30
4768.00,1.30
4767.00,1.30
4766.00,1.31
4765.00,1.31
4764.00,1.31
4763.00,1.31
4762.00,1.31
4761.00,1.31
4760.00,1.31
4759.00,1.31
4758.00,1.31
4757.00,1.31
4756.00,1.31
4755.00,1.31
4754.00,1.31
4753.00,1.31
4752.00,1.31
4751.00,1.31
4750.00,1.31
4749.00,1.31
4748.00,1.31
4747.00,1.31
4746.00,1.32
4745.00,1.32
4744.00,1.32
4743.00,1.32
4742.00,1.32
4741.00,1.32
4740.00,1.32
4739.00,1.32
4738.00,1.32
4737.00,1.32
4736.00,1.32
4735.00,1.32
4734.00,1.32
4733.00,1.32
4732.00,1.32
4731.00,1.32
4730.00,1.32
4729.00,1.32
4728.00,1.32
4727.00,1.32
4726.00,1.32
4725.00,1.31
4724.00,1.31
4723.00,1.31
4722.00,1.31
4721.00,1.31
4720.00,1.31
4719.00,1.31
4718.00,1.31
4717.00,1.31
4716.00,1.31
4715.00,1.31
4714.00,1.31
4713.00,1.31
4712.00,1.32
4711.00,1.32
4710.00,1.32
4709.00,1.32
4708.00,1.32
4707.00,1.32
4706.00,1.33
4705.00,1.33
4704.00,1.33
4703.00,1.34
4702.00,1.34
4701.00,1.34
4700.00,1.35
4699.00,1.35
4698.00,1.35
4697.00,1.36
4696.00,1.36
4695.00,1.37
4694.00,1.37
4693.00,1.37
4692.00,1.38
4691.00,1.38
4690.00,1.39
4689.00,1.39
4688.00,1.39
4687.00,1.40
4686.00,1.40
4685.00,1.40
4684.00,1.41
4683.00,1.41
4682.00,1.42
4681.00,1.42
4680.00,1.43
4679.00,1.43
4678.00,1.43
4677.00,1.44
4676.00,1.44
4675.00,1.45
4674.00,1.45
4673.00,1.45
4672.00,1.46
4671.00,1.46
4670.00,1.46
4669.00,1.47
4668.00,1.47
4667.00,1.47
4666.00,1.47
4665.00,1.47
4664.00,1.48
4663.00,1.48
4662.00,1.48
4661.00,1.48
4660.00,1.48
4659.00,1.48
4658.00,1.48
4657.00,1.48
4656.00,1.49
4655.00,1.49
4654.00,1.49
4653.00,1.49
4652.00,1.49
4651.00,1.48
4650.00,1.48
4649.00,1.48
4648.00,1.48
4647.00,1.48
4646.00,1.48
4645.00,1.48
4644.00,1.48
4643.00,1.48
4642.00,1.48
4641.00,1.48
4640.00,1.48
4639.00,1.48
4638.00,1.48
4637.00,1.48
4636.00,1.48
4635.00,1.48
4634.00,1.48
4633.00,1.48
4632.00,1.48
4631.00,1.48
4630.00,1.48
4629.00,1.48
4628.00,1.48
4627.00,1.48
4626.00,1.48
4625.00,1.48
4624.00,1.48
4623.00,1.48
4622.00,1.49
4621.00,1.49
4620.00,1.49
4619.00,1.49
4618.00,1.49
4617.00,1.50
4616.00,1.50
4615.00,1.50
4614.00,1.51
4613.00,1.51
4612.00,1.51
4611.00,1.51
4610.00,1.52
4609.00,1.52
4608.00,1.52
4607.00,1.52
4606.00,1.53
4605.00,1.53
4604.00,1.53
4603.00,1.54
4602.00,1.54
4601.00,1.54
4600.00,1.55
4599.00,1.55
4598.00,1.55
4597.00,1.55
4596.00,1.55
4595.00,1.55
4594.00,1.56
4593.00,1.56
4592.00,1.56
4591.00,1.56
4590.00,1.56
4589.00,1.56
4588.00,1.56
4587.00,1.56
4586.00,1.56
4585.00,1.55
4584.00,1.55
4583.00,1.55
4582.00,1.55
4581.00,1.55
4580.00,1.55
4579.00,1.55
4578.00,1.55
4577.00,1.55
4576.00,1.54
4575.00,1.54
4574.00,1.54
4573.00,1.54
4572.00,1.54
4571.00,1.54
4570.00,1.54
4569.00,1.54
4568.00,1.54
4567.00,1.54
4566.00,1.54
4565.00,1.54
4564.00,1.54
4563.00,1.54
4562.00,1.55
4561.00,1.55
4560.00,1.55
4559.00,1.55
4558.00,1.55
4557.00,1.55
4556.00,1.56
4555.00,1.56
4554.00,1.56
4553.00,1.56
4552.00,1.56
4551.00,1.56
4550.00,1.57
4549.00,1.57
4548.00,1.57
4547.00,1.57
4546.00,1.57
4545.00,1.58
4544.00,1.58
4543.00,1.58
4542.00,1.58
4541.00,1.58
4540.00,1.59
4539.00,1.59
4538.00,1.59
4537.00,1.59
4536.00,1.59
4535.00,1.59
4534.00,1.59
4533.00,1.59
4532.00,1.59
4531.00,1.59
4530.00,1.59
4529.00,1.59
4528.00,1.59
4527.00,1.60
4526.00,1.60
4525.00,1.60
4524.00,1.60
4523.00,1.60
4522.00,1.61
4521.00,1.61
4520.00,1.61
4519.00,1.61
4518.00,1.61
4517.00,1.61
4516.00,1.61
4515.00,1.62
4514.00,1.62
4513.00,1.62
4512.00,1.62
4511.00,1.62
4510.00,1.62
4509.00,1.62
4508.00,1.63
4507.00,1.63
4506.00,1.63
4505.00,1.63
4504.00,1.63
4503.00,1.63
4502.00,1.63
4501.00,1.63
4500.00,1.63
4499.00,1.63
4498.00,1.63
4497.00,1.63
4496.00,1.63
4495.00,1.62
4494.00,1.62
4493.00,1.62
4492.00,1.62
4491.00,1.62
4490.00,1.62
4489.00,1.61
4488.00,1.61
4487.00,1.61
4486.00,1.61
4485.00,1.61
4484.00,1.60
4483.00,1.60
4482.00,1.60
4481.00,1.59
4480.00,1.59
4479.00,1.59
4478.00,1.58
4477.00,1.58
4476.00,1.58
4475.00,1.58
4474.00,1.57
4473.00,1.57
4472.00,1.57
4471.00,1.56
4470.00,1.56
4469.00,1.55
4468.00,1.55
4467.00,1.55
4466.00,1.54
4465.00,1.54
4464.00,1.53
4463.00,1.53
4462.00,1.53
4461.00,1.52
4460.00,1.52
4459.00,1.51
4458.00,1.51
4457.00,1.50
4456.00,1.50
4455.00,1.50
4454.00,1.49
4453.00,1.49
4452.00,1.48
4451.00,1.47
4450.00,1.47
4449.00,1.46
4448.00,1.45
4447.00,1.45
4446.00,1.44
4445.00,1.43
4444.00,1.42
4443.00,1.42
4442.00,1.41
4441.00,1.40
4440.00,1.39
4439.00,1.39
4438.00,1.38
4437.00,1.37
4436.00,1.36
4435.00,1.36
4434.00,1.35
4433.00,1.34
4432.00,1.33
4431.00,1.32
4430.00,1.32
4429.00,1.31
4428.00,1.30
4427.00,1.30
4426.00,1.29
4425.00,1.29
4424.00,1.28
4423.00,1.28
4422.00,1.28
4421.00,1.28
4420.00,1.27
4419.00,1.27
4418.00,1.27
4417.00,1.27
4416.00,1.27
4415.00,1.27
4414.00,1.27
4413.00,1.27
4412.00,1.27
4411.00,1.27
4410.00,1.27
4409.00,1.28
4408.00,1.28
4407.00,1.28
4406.00,1.28
4405.00,1.29
4404.00,1.29
4403.00,1.29
4402.00,1.30
4401.00,1.30
4400.00,1.30
4399.00,1.30
4398.00,1.31
4397.00,1.31
4396.00,1.31
4395.00,1.31
4394.00,1.31
4393.00,1.32
4392.00,1.32
4391.00,1.32
4390.00,1.32
4389.00,1.33
4388.00,1.33
4387.00,1.33
4386.00,1.33
4385.00,1.34
4384.00,1.34
4383.00,1.34
4382.00,1.34
4381.00,1.34
4380.00,1.34
4379.00,1.34
4378.00,1.34
4377.00,1.34
4376.00,1.33
4375.00,1.33
4374.00,1.33
4373.00,1.33
4372.00,1.33
4371.00,1.33
4370.00,1.33
4369.00,1.32
4368.00,1.32
4367.00,1.32
4366.00,1.32
4365.00,1.32
4364.00,1.31
4363.00,1.31
4362.00,1.31
4361.00,1.30
4360.00,1.30
4359.00,1.29
4358.00,1.29
4357.00,1.28
4356.00,1.28
4355.00,1.28
4354.00,1.27
4353.00,1.27
4352.00,1.27
4351.00,1.27
4350.00,1.27
4349.00,1.27
4348.00,1.27
4347.00,1.27
4346.00,1.27
4345.00,1.27
4344.00,1.27
4343.00,1.27
4342.00,1.27
4341.00,1.27
4340.00,1.27
4339.00,1.27
4338.00,1.28
4337.00,1.28
4336.00,1.28
4335.00,1.28
4334.00,1.29
4333.00,1.29
4332.00,1.30
4331.00,1.30
4330.00,1.31
4329.00,1.31
4328.00,1.32
4327.00,1.32
4326.00,1.33
4325.00,1.34
4324.00,1.34
4323.00,1.35
4322.00,1.35
4321.00,1.36
4320.00,1.36
4319.00,1.37
4318.00,1.37
4317.00,1.38
4316.00,1.39
4315.00,1.39
4314.00,1.40
4313.00,1.40
4312.00,1.41
4311.00,1.42
4310.00,1.42
4309.00,1.43
4308.00,1.43
4307.00,1.43
4306.00,1.44
4305.00,1.44
4304.00,1.45
4303.00,1.45
4302.00,1.45
4301.00,1.46
4300.00,1.46
4299.00,1.46
4298.00,1.47
4297.00,1.47
4296.00,1.47
4295.00,1.47
4294.00,1.47
4293.00,1.48
4292.00,1.48
4291.00,1.48
4290.00,1.48
4289.00,1.48
4288.00,1.48
4287.00,1.48
4286.00,1.49
4285.00,1.49
4284.00,1.49
4283.00,1.49
4282.00,1.49
4281.00,1.49
4280.00,1.49
4279.00,1.49
4278.00,1.49
4277.00,1.49
4276.00,1.49
4275.00,1.49
4274.00,1.49
4273.00,1.49
4272.00,1.49
4271.00,1.49
4270.00,1.49
4269.00,1.49
4268.00,1.49
4267.00,1.49
4266.00,1.49
4265.00,1.49
4264.00,1.49
4263.00,1.49
4262.00,1.49
4261.00,1.49
4260.00,1.49
4259.00,1.49
4258.00,1.49
4257.00,1.48
4256.00,1.48
4255.00,1.48
4254.00,1.48
4253.00,1.48
4252.00,1.48
4251.00,1.47
4250.00,1.47
4249.00,1.47
4248.00,1.47
4247.00,1.47
4246.00,1.47
4245.00,1.47
4244.00,1.47
4243.00,1.46
4242.00,1.46
4241.00,1.46
4240.00,1.46
4239.00,1.46
4238.00,1.46
4237.00,1.46
4236.00,1.46
4235.00,1.46
4234.00,1.46
4233.00,1.46
4232.00,1.46
4231.00,1.47
4230.00,1.47
4229.00,1.47
4228.00,1.47
4227.00,1.47
4226.00,1.48
4225.00,1.48
4224.00,1.48
4223.00,1.48
4222.00,1.48
4221.00,1.48
4220.00,1.48
4219.00,1.49
4218.00,1.49
4217.00,1.49
4216.00,1.49
4215.00,1.49
4214.00,1.49
4213.00,1.49
4212.00,1.49
4211.00,1.49
4210.00,1.49
4209.00,1.49
4208.00,1.49
4207.00,1.49
4206.00,1.49
4205.00,1.49
4204.00,1.49
4203.00,1.48
4202.00,1.48
4201.00,1.48
4200.00,1.48
4199.00,1.48
4198.00,1.48
4197.00,1.48
4196.00,1.48
4195.00,1.48
4194.00,1.49
4193.00,1.49
4192.00,1.49
4191.00,1.49
4190.00,1.49
4189.00,1.49
4188.00,1.50
4187.00,1.50
4186.00,1.50
4185.00,1.50
4184.00,1.51
4183.00,1.51
4182.00,1.51
4181.00,1.51
4180.00,1.52
4179.00,1.52
4178.00,1.52
4177.00,1.52
4176.00,1.52
4175.00,1.52
4174.00,1.52
4173.00,1.52
4172.00,1.53
4171.00,1.53
4170.00,1.53
4169.00,1.53
4168.00,1.53
4167.00,1.53
4166.00,1.53
4165.00,1.53
4164.00,1.53
4163.00,1.52
4162.00,1.52
4161.00,1.52
4160.00,1.52
4159.00,1.52
4158.00,1.51
4157.00,1.51
4156.00,1.51
4155.00,1.51
4154.00,1.51
4153.00,1.50
4152.00,1.50
4151.00,1.50
4150.00,1.50
4149.00,1.51
4148.00,1.51
4147.00,1.51
4146.00,1.51
4145.00,1.51
4144.00,1.51
4143.00,1.51
4142.00,1.51
4141.00,1.51
4140.00,1.52
4139.00,1.52
4138.00,1.52
4137.00,1.52
4136.00,1.52
4135.00,1.52
4134.00,1.53
4133.00,1.53
4132.00,1.53
4131.00,1.53
4130.00,1.53
4129.00,1.53
4128.00,1.53
4127.00,1.53
4126.00,1.53
4125.00,1.53
4124.00,1.53
4123.00,1.53
4122.00,1.53
4121.00,1.52
4120.00,1.52
4119.00,1.52
4118.00,1.51
4117.00,1.51
4116.00,1.51
4115.00,1.50
4114.00,1.50
4113.00,1.50
4112.00,1.50
4111.00,1.49
4110.00,1.49
4109.00,1.49
4108.00,1.49
4107.00,1.49
4106.00,1.49
4105.00,1.49
4104.00,1.49
4103.00,1.49
4102.00,1.48
4101.00,1.48
4100.00,1.48
4099.00,1.48
4098.00,1.48
4097.00,1.48
4096.00,1.47
4095.00,1.47
4094.00,1.47
4093.00,1.47
4092.00,1.46
4091.00,1.46
4090.00,1.46
4089.00,1.46
4088.00,1.46
4087.00,1.46
4086.00,1.46
4085.00,1.46
4084.00,1.46
4083.00,1.45
4082.00,1.45
4081.00,1.45
4080.00,1.45
4079.00,1.45
4078.00,1.45
4077.00,1.45
4076.00,1.45
4075.00,1.45
4074.00,1.45
4073.00,1.45
4072.00,1.45
4071.00,1.46
4070.00,1.46
4069.00,1.47
4068.00,1.47
4067.00,1.48
4066.00,1.48
4065.00,1.49
4064.00,1.49
4063.00,1.49
4062.00,1.50
4061.00,1.50
4060.00,1.50
4059.00,1.51
4058.00,1.51
4057.00,1.52
4056.00,1.52
4055.00,1.52
4054.00,1.53
4053.00,1.53
4052.00,1.53
4051.00,1.54
4050.00,1.54
4049.00,1.54
4048.00,1.54
4047.00,1.54
4046.00,1.54
4045.00,1.54
4044.00,1.54
4043.00,1.53
4042.00,1.53
4041.00,1.53
4040.00,1.52
4039.00,1.52
4038.00,1.51
4037.00,1.51
4036.00,1.50
4035.00,1.50
4034.00,1.50
4033.00,1.50
4032.00,1.49
4031.00,1.49
4030.00,1.49
4029.00,1.48
4028.00,1.48
4027.00,1.48
4026.00,1.48
4025.00,1.48
4024.00,1.48
4023.00,1.48
4022.00,1.48
4021.00,1.48
4020.00,1.48
4019.00,1.48
4018.00,1.48
4017.00,1.49
4016.00,1.49
4015.00,1.49
4014.00,1.50
4013.00,1.51
4012.00,1.51
4011.00,1.52
4010.00,1.53
4009.00,1.54
4008.00,1.55
4007.00,1.55
4006.00,1.56
4005.00,1.57
4004.00,1.58
4003.00,1.58
4002.00,1.59
4001.00,1.60
4000.00,1.61
