创建为新数据集,样品 864 用户 Administrator 日期 星期一, 七月 29 2019
cm-1,%T
10000.00,1.79
9999.00,1.78
9998.00,1.78
9997.00,1.77
9996.00,1.76
9995.00,1.76
9994.00,1.75
9993.00,1.75
9992.00,1.75
9991.00,1.75
9990.00,1.74
9989.00,1.74
9988.00,1.74
9987.00,1.73
9986.00,1.72
9985.00,1.72
9984.00,1.71
9983.00,1.70
9982.00,1.69
9981.00,1.68
9980.00,1.67
9979.00,1.66
9978.00,1.65
9977.00,1.64
9976.00,1.64
9975.00,1.63
9974.00,1.62
9973.00,1.61
9972.00,1.61
9971.00,1.60
9970.00,1.59
9969.00,1.58
9968.00,1.57
9967.00,1.56
9966.00,1.55
9965.00,1.54
9964.00,1.54
9963.00,1.53
9962.00,1.52
9961.00,1.51
9960.00,1.51
9959.00,1.50
9958.00,1.50
9957.00,1.49
9956.00,1.49
9955.00,1.49
9954.00,1.49
9953.00,1.49
9952.00,1.50
9951.00,1.50
9950.00,1.50
9949.00,1.50
9948.00,1.51
9947.00,1.51
9946.00,1.52
9945.00,1.52
9944.00,1.53
9943.00,1.53
9942.00,1.54
9941.00,1.55
9940.00,1.55
9939.00,1.56
9938.00,1.56
9937.00,1.57
9936.00,1.57
9935.00,1.58
9934.00,1.58
9933.00,1.59
9932.00,1.59
9931.00,1.59
9930.00,1.59
9929.00,1.59
9928.00,1.59
9927.00,1.59
9926.00,1.58
9925.00,1.58
9924.00,1.58
9923.00,1.57
9922.00,1.57
9921.00,1.57
9920.00,1.56
9919.00,1.56
9918.00,1.56
9917.00,1.55
9916.00,1.55
9915.00,1.55
9914.00,1.55
9913.00,1.55
9912.00,1.54
9911.00,1.54
9910.00,1.54
9909.00,1.55
9908.00,1.55
9907.00,1.55
9906.00,1.55
9905.00,1.55
9904.00,1.55
9903.00,1.55
9902.00,1.56
9901.00,1.56
9900.00,1.56
9899.00,1.56
9898.00,1.56
9897.00,1.57
9896.00,1.57
9895.00,1.57
9894.00,1.56
9893.00,1.56
9892.00,1.56
9891.00,1.56
9890.00,1.56
9889.00,1.55
9888.00,1.55
9887.00,1.54
9886.00,1.54
9885.00,1.53
9884.00,1.53
9883.00,1.52
9882.00,1.51
9881.00,1.51
9880.00,1.50
9879.00,1.50
9878.00,1.49
9877.00,1.48
9876.00,1.47
9875.00,1.47
9874.00,1.46
9873.00,1.45
9872.00,1.44
9871.00,1.43
9870.00,1.43
9869.00,1.42
9868.00,1.41
9867.00,1.40
9866.00,1.39
9865.00,1.38
9864.00,1.37
9863.00,1.37
9862.00,1.36
9861.00,1.35
9860.00,1.35
9859.00,1.34
9858.00,1.34
9857.00,1.33
9856.00,1.33
9855.00,1.33
9854.00,1.32
9853.00,1.32
9852.00,1.32
9851.00,1.31
9850.00,1.31
9849.00,1.31
9848.00,1.31
9847.00,1.32
9846.00,1.32
9845.00,1.32
9844.00,1.33
9843.00,1.33
9842.00,1.34
9841.00,1.35
9840.00,1.36
9839.00,1.37
9838.00,1.38
9837.00,1.38
9836.00,1.39
9835.00,1.40
9834.00,1.41
9833.00,1.42
9832.00,1.42
9831.00,1.43
9830.00,1.43
9829.00,1.44
9828.00,1.44
9827.00,1.44
9826.00,1.45
9825.00,1.45
9824.00,1.46
9823.00,1.46
9822.00,1.46
9821.00,1.47
9820.00,1.47
9819.00,1.47
9818.00,1.48
9817.00,1.48
9816.00,1.48
9815.00,1.48
9814.00,1.48
9813.00,1.48
9812.00,1.49
9811.00,1.48
9810.00,1.48
9809.00,1.48
9808.00,1.48
9807.00,1.48
9806.00,1.48
9805.00,1.48
9804.00,1.48
9803.00,1.48
9802.00,1.48
9801.00,1.47
9800.00,1.47
9799.00,1.47
9798.00,1.47
9797.00,1.47
9796.00,1.47
9795.00,1.47
9794.00,1.47
9793.00,1.47
9792.00,1.47
9791.00,1.47
9790.00,1.47
9789.00,1.47
9788.00,1.47
9787.00,1.47
9786.00,1.46
9785.00,1.46
9784.00,1.47
9783.00,1.47
9782.00,1.47
9781.00,1.47
9780.00,1.47
9779.00,1.48
9778.00,1.48
9777.00,1.49
9776.00,1.49
9775.00,1.50
9774.00,1.51
9773.00,1.52
9772.00,1.52
9771.00,1.53
9770.00,1.54
9769.00,1.54
9768.00,1.55
9767.00,1.55
9766.00,1.55
9765.00,1.56
9764.00,1.56
9763.00,1.56
9762.00,1.56
9761.00,1.56
9760.00,1.56
9759.00,1.56
9758.00,1.56
9757.00,1.55
9756.00,1.55
9755.00,1.55
9754.00,1.55
9753.00,1.54
9752.00,1.54
9751.00,1.53
9750.00,1.52
9749.00,1.51
9748.00,1.50
9747.00,1.49
9746.00,1.48
9745.00,1.47
9744.00,1.46
9743.00,1.45
9742.00,1.44
9741.00,1.43
9740.00,1.42
9739.00,1.41
9738.00,1.41
9737.00,1.40
9736.00,1.40
9735.00,1.39
9734.00,1.39
9733.00,1.39
9732.00,1.38
9731.00,1.38
9730.00,1.38
9729.00,1.38
9728.00,1.37
9727.00,1.37
9726.00,1.38
9725.00,1.38
9724.00,1.38
9723.00,1.39
9722.00,1.39
9721.00,1.40
9720.00,1.40
9719.00,1.41
9718.00,1.42
9717.00,1.43
9716.00,1.43
9715.00,1.44
9714.00,1.44
9713.00,1.45
9712.00,1.45
9711.00,1.46
9710.00,1.46
9709.00,1.46
9708.00,1.47
9707.00,1.47
9706.00,1.48
9705.00,1.49
9704.00,1.49
9703.00,1.50
9702.00,1.51
9701.00,1.51
9700.00,1.52
9699.00,1.53
9698.00,1.53
9697.00,1.54
9696.00,1.54
9695.00,1.54
9694.00,1.55
9693.00,1.55
9692.00,1.55
9691.00,1.55
9690.00,1.56
9689.00,1.56
9688.00,1.57
9687.00,1.57
9686.00,1.57
9685.00,1.58
9684.00,1.58
9683.00,1.58
9682.00,1.58
9681.00,1.58
9680.00,1.57
9679.00,1.57
9678.00,1.56
9677.00,1.56
9676.00,1.55
9675.00,1.54
9674.00,1.53
9673.00,1.52
9672.00,1.51
9671.00,1.50
9670.00,1.48
9669.00,1.47
9668.00,1.46
9667.00,1.45
9666.00,1.44
9665.00,1.42
9664.00,1.41
9663.00,1.40
9662.00,1.39
9661.00,1.38
9660.00,1.36
9659.00,1.35
9658.00,1.35
9657.00,1.34
9656.00,1.33
9655.00,1.32
9654.00,1.32
9653.00,1.32
9652.00,1.31
9651.00,1.31
9650.00,1.31
9649.00,1.32
9648.00,1.32
9647.00,1.32
9646.00,1.33
9645.00,1.33
9644.00,1.34
9643.00,1.35
9642.00,1.35
9641.00,1.36
9640.00,1.37
9639.00,1.38
9638.00,1.38
9637.00,1.39
9636.00,1.40
9635.00,1.41
9634.00,1.42
9633.00,1.43
9632.00,1.44
9631.00,1.45
9630.00,1.46
9629.00,1.46
9628.00,1.47
9627.00,1.48
9626.00,1.49
9625.00,1.50
9624.00,1.50
9623.00,1.51
9622.00,1.51
9621.00,1.52
9620.00,1.52
9619.00,1.52
9618.00,1.53
9617.00,1.53
9616.00,1.53
9615.00,1.54
9614.00,1.54
9613.00,1.54
9612.00,1.54
9611.00,1.55
9610.00,1.55
9609.00,1.55
9608.00,1.55
9607.00,1.55
9606.00,1.54
9605.00,1.54
9604.00,1.53
9603.00,1.53
9602.00,1.52
9601.00,1.52
9600.00,1.51
9599.00,1.51
9598.00,1.51
9597.00,1.50
9596.00,1.50
9595.00,1.50
9594.00,1.50
9593.00,1.50
9592.00,1.50
9591.00,1.50
9590.00,1.49
9589.00,1.49
9588.00,1.49
9587.00,1.49
9586.00,1.49
9585.00,1.48
9584.00,1.48
9583.00,1.48
9582.00,1.48
9581.00,1.48
9580.00,1.48
9579.00,1.48
9578.00,1.48
9577.00,1.48
9576.00,1.49
9575.00,1.49
9574.00,1.49
9573.00,1.49
9572.00,1.49
9571.00,1.49
9570.00,1.49
9569.00,1.49
9568.00,1.48
9567.00,1.48
9566.00,1.48
9565.00,1.47
9564.00,1.47
9563.00,1.47
9562.00,1.46
9561.00,1.46
9560.00,1.46
9559.00,1.46
9558.00,1.46
9557.00,1.46
9556.00,1.45
9555.00,1.45
9554.00,1.45
9553.00,1.44
9552.00,1.44
9551.00,1.43
9550.00,1.43
9549.00,1.42
9548.00,1.42
9547.00,1.42
9546.00,1.41
9545.00,1.41
9544.00,1.41
9543.00,1.40
9542.00,1.40
9541.00,1.40
9540.00,1.40
9539.00,1.39
9538.00,1.39
9537.00,1.39
9536.00,1.39
9535.00,1.38
9534.00,1.38
9533.00,1.38
9532.00,1.37
9531.00,1.37
9530.00,1.37
9529.00,1.37
9528.00,1.37
9527.00,1.37
9526.00,1.37
9525.00,1.37
9524.00,1.38
9523.00,1.38
9522.00,1.38
9521.00,1.39
9520.00,1.39
9519.00,1.39
9518.00,1.40
9517.00,1.40
9516.00,1.41
9515.00,1.41
9514.00,1.41
9513.00,1.42
9512.00,1.42
9511.00,1.43
9510.00,1.43
9509.00,1.44
9508.00,1.45
9507.00,1.45
9506.00,1.46
9505.00,1.46
9504.00,1.46
9503.00,1.46
9502.00,1.47
9501.00,1.47
9500.00,1.47
9499.00,1.46
9498.00,1.46
9497.00,1.46
9496.00,1.46
9495.00,1.47
9494.00,1.47
9493.00,1.47
9492.00,1.47
9491.00,1.47
9490.00,1.48
9489.00,1.48
9488.00,1.48
9487.00,1.48
9486.00,1.48
9485.00,1.48
9484.00,1.48
9483.00,1.49
9482.00,1.49
9481.00,1.49
9480.00,1.49
9479.00,1.49
9478.00,1.49
9477.00,1.49
9476.00,1.49
9475.00,1.49
9474.00,1.50
9473.00,1.50
9472.00,1.50
9471.00,1.50
9470.00,1.50
9469.00,1.49
9468.00,1.49
9467.00,1.48
9466.00,1.47
9465.00,1.47
9464.00,1.46
9463.00,1.45
9462.00,1.45
9461.00,1.44
9460.00,1.43
9459.00,1.43
9458.00,1.42
9457.00,1.42
9456.00,1.41
9455.00,1.41
9454.00,1.40
9453.00,1.40
9452.00,1.40
9451.00,1.39
9450.00,1.39
9449.00,1.39
9448.00,1.39
9447.00,1.39
9446.00,1.39
9445.00,1.39
9444.00,1.39
9443.00,1.39
9442.00,1.39
9441.00,1.40
9440.00,1.40
9439.00,1.40
9438.00,1.40
9437.00,1.41
9436.00,1.41
9435.00,1.41
9434.00,1.41
9433.00,1.41
9432.00,1.40
9431.00,1.40
9430.00,1.40
9429.00,1.40
9428.00,1.39
9427.00,1.39
9426.00,1.39
9425.00,1.38
9424.00,1.38
9423.00,1.38
9422.00,1.37
9421.00,1.37
9420.00,1.37
9419.00,1.36
9418.00,1.36
9417.00,1.36
9416.00,1.35
9415.00,1.35
9414.00,1.35
9413.00,1.35
9412.00,1.35
9411.00,1.35
9410.00,1.35
9409.00,1.35
9408.00,1.36
9407.00,1.36
9406.00,1.36
9405.00,1.37
9404.00,1.37
9403.00,1.38
9402.00,1.38
9401.00,1.39
9400.00,1.39
9399.00,1.40
9398.00,1.40
9397.00,1.41
9396.00,1.41
9395.00,1.42
9394.00,1.42
9393.00,1.42
9392.00,1.43
9391.00,1.43
9390.00,1.43
9389.00,1.43
9388.00,1.43
9387.00,1.43
9386.00,1.43
9385.00,1.43
9384.00,1.42
9383.00,1.42
9382.00,1.42
9381.00,1.41
9380.00,1.41
9379.00,1.40
9378.00,1.39
9377.00,1.39
9376.00,1.38
9375.00,1.38
9374.00,1.37
9373.00,1.36
9372.00,1.36
9371.00,1.35
9370.00,1.34
9369.00,1.34
9368.00,1.33
9367.00,1.33
9366.00,1.32
9365.00,1.32
9364.00,1.32
9363.00,1.32
9362.00,1.32
9361.00,1.32
9360.00,1.32
9359.00,1.32
9358.00,1.33
9357.00,1.33
9356.00,1.34
9355.00,1.34
9354.00,1.35
9353.00,1.36
9352.00,1.36
9351.00,1.37
9350.00,1.38
9349.00,1.38
9348.00,1.39
9347.00,1.39
9346.00,1.40
9345.00,1.40
9344.00,1.40
9343.00,1.41
9342.00,1.41
9341.00,1.41
9340.00,1.41
9339.00,1.41
9338.00,1.41
9337.00,1.41
9336.00,1.41
9335.00,1.41
9334.00,1.41
9333.00,1.40
9332.00,1.40
9331.00,1.40
9330.00,1.39
9329.00,1.39
9328.00,1.38
9327.00,1.38
9326.00,1.38
9325.00,1.37
9324.00,1.37
9323.00,1.37
9322.00,1.37
9321.00,1.37
9320.00,1.37
9319.00,1.37
9318.00,1.37
9317.00,1.37
9316.00,1.38
9315.00,1.38
9314.00,1.39
9313.00,1.40
9312.00,1.40
9311.00,1.41
9310.00,1.42
9309.00,1.43
9308.00,1.43
9307.00,1.44
9306.00,1.45
9305.00,1.45
9304.00,1.46
9303.00,1.47
9302.00,1.47
9301.00,1.48
9300.00,1.48
9299.00,1.48
9298.00,1.49
9297.00,1.49
9296.00,1.49
9295.00,1.50
9294.00,1.50
9293.00,1.50
9292.00,1.50
9291.00,1.50
9290.00,1.50
9289.00,1.50
9288.00,1.50
9287.00,1.50
9286.00,1.50
9285.00,1.49
9284.00,1.49
9283.00,1.49
9282.00,1.49
9281.00,1.48
9280.00,1.48
9279.00,1.48
9278.00,1.48
9277.00,1.48
9276.00,1.47
9275.00,1.47
9274.00,1.47
9273.00,1.47
9272.00,1.47
9271.00,1.47
9270.00,1.47
9269.00,1.47
9268.00,1.47
9267.00,1.47
9266.00,1.47
9265.00,1.46
9264.00,1.46
9263.00,1.46
9262.00,1.46
9261.00,1.46
9260.00,1.45
9259.00,1.45
9258.00,1.45
9257.00,1.44
9256.00,1.44
9255.00,1.44
9254.00,1.43
9253.00,1.43
9252.00,1.43
9251.00,1.42
9250.00,1.42
9249.00,1.42
9248.00,1.42
9247.00,1.41
9246.00,1.41
9245.00,1.41
9244.00,1.40
9243.00,1.40
9242.00,1.40
9241.00,1.39
9240.00,1.39
9239.00,1.39
9238.00,1.38
9237.00,1.38
9236.00,1.38
9235.00,1.38
9234.00,1.38
9233.00,1.38
9232.00,1.38
9231.00,1.39
9230.00,1.39
9229.00,1.39
9228.00,1.40
9227.00,1.40
9226.00,1.40
9225.00,1.40
9224.00,1.41
9223.00,1.41
9222.00,1.41
9221.00,1.42
9220.00,1.42
9219.00,1.43
9218.00,1.43
9217.00,1.44
9216.00,1.45
9215.00,1.45
9214.00,1.46
9213.00,1.47
9212.00,1.47
9211.00,1.48
9210.00,1.48
9209.00,1.49
9208.00,1.49
9207.00,1.50
9206.00,1.50
9205.00,1.50
9204.00,1.50
9203.00,1.51
9202.00,1.51
9201.00,1.51
9200.00,1.51
9199.00,1.52
9198.00,1.52
9197.00,1.52
9196.00,1.52
9195.00,1.52
9194.00,1.53
9193.00,1.53
9192.00,1.53
9191.00,1.53
9190.00,1.53
9189.00,1.52
9188.00,1.52
9187.00,1.52
9186.00,1.52
9185.00,1.52
9184.00,1.52
9183.00,1.52
9182.00,1.52
9181.00,1.52
9180.00,1.52
9179.00,1.53
9178.00,1.53
9177.00,1.53
9176.00,1.53
9175.00,1.53
9174.00,1.53
9173.00,1.53
9172.00,1.53
9171.00,1.53
9170.00,1.53
9169.00,1.53
9168.00,1.53
9167.00,1.53
9166.00,1.53
9165.00,1.53
9164.00,1.53
9163.00,1.52
9162.00,1.52
9161.00,1.52
9160.00,1.51
9159.00,1.51
9158.00,1.50
9157.00,1.50
9156.00,1.49
9155.00,1.48
9154.00,1.48
9153.00,1.47
9152.00,1.46
9151.00,1.45
9150.00,1.44
9149.00,1.44
9148.00,1.43
9147.00,1.42
9146.00,1.41
9145.00,1.40
9144.00,1.40
9143.00,1.39
9142.00,1.39
9141.00,1.38
9140.00,1.38
9139.00,1.37
9138.00,1.37
9137.00,1.37
9136.00,1.37
9135.00,1.36
9134.00,1.36
9133.00,1.36
9132.00,1.36
9131.00,1.37
9130.00,1.37
9129.00,1.37
9128.00,1.37
9127.00,1.38
9126.00,1.38
9125.00,1.38
9124.00,1.39
9123.00,1.39
9122.00,1.40
9121.00,1.40
9120.00,1.40
9119.00,1.41
9118.00,1.41
9117.00,1.42
9116.00,1.42
9115.00,1.42
9114.00,1.43
9113.00,1.43
9112.00,1.44
9111.00,1.44
9110.00,1.44
9109.00,1.45
9108.00,1.45
9107.00,1.46
9106.00,1.46
9105.00,1.46
9104.00,1.47
9103.00,1.47
9102.00,1.47
9101.00,1.47
9100.00,1.47
9099.00,1.47
9098.00,1.47
9097.00,1.47
9096.00,1.47
9095.00,1.47
9094.00,1.46
9093.00,1.46
9092.00,1.46
9091.00,1.46
9090.00,1.46
9089.00,1.46
9088.00,1.46
9087.00,1.45
9086.00,1.45
9085.00,1.45
9084.00,1.45
9083.00,1.44
9082.00,1.44
9081.00,1.44
9080.00,1.43
9079.00,1.43
9078.00,1.43
9077.00,1.42
9076.00,1.42
9075.00,1.42
9074.00,1.42
9073.00,1.42
9072.00,1.42
9071.00,1.42
9070.00,1.42
9069.00,1.42
9068.00,1.42
9067.00,1.42
9066.00,1.41
9065.00,1.41
9064.00,1.41
9063.00,1.41
9062.00,1.41
9061.00,1.40
9060.00,1.40
9059.00,1.40
9058.00,1.40
9057.00,1.39
9056.00,1.39
9055.00,1.39
9054.00,1.39
9053.00,1.38
9052.00,1.38
9051.00,1.38
9050.00,1.38
9049.00,1.38
9048.00,1.38
9047.00,1.38
9046.00,1.37
9045.00,1.37
9044.00,1.37
9043.00,1.37
9042.00,1.38
9041.00,1.38
9040.00,1.38
9039.00,1.38
9038.00,1.38
9037.00,1.38
9036.00,1.38
9035.00,1.38
9034.00,1.38
9033.00,1.39
9032.00,1.39
9031.00,1.39
9030.00,1.39
9029.00,1.39
9028.00,1.39
9027.00,1.39
9026.00,1.39
9025.00,1.38
9024.00,1.38
9023.00,1.38
9022.00,1.37
9021.00,1.37
9020.00,1.36
9019.00,1.36
9018.00,1.35
9017.00,1.35
9016.00,1.34
9015.00,1.33
9014.00,1.33
9013.00,1.32
9012.00,1.32
9011.00,1.31
9010.00,1.31
9009.00,1.30
9008.00,1.30
9007.00,1.30
9006.00,1.30
9005.00,1.30
9004.00,1.30
9003.00,1.30
9002.00,1.30
9001.00,1.30
9000.00,1.30
8999.00,1.30
8998.00,1.30
8997.00,1.30
8996.00,1.30
8995.00,1.31
8994.00,1.31
8993.00,1.31
8992.00,1.32
8991.00,1.33
8990.00,1.34
8989.00,1.34
8988.00,1.35
8987.00,1.36
8986.00,1.37
8985.00,1.38
8984.00,1.39
8983.00,1.39
8982.00,1.40
8981.00,1.41
8980.00,1.41
8979.00,1.42
8978.00,1.42
8977.00,1.43
8976.00,1.44
8975.00,1.44
8974.00,1.45
8973.00,1.46
8972.00,1.47
8971.00,1.48
8970.00,1.49
8969.00,1.49
8968.00,1.50
8967.00,1.51
8966.00,1.52
8965.00,1.52
8964.00,1.52
8963.00,1.53
8962.00,1.53
8961.00,1.53
8960.00,1.53
8959.00,1.53
8958.00,1.53
8957.00,1.53
8956.00,1.53
8955.00,1.53
8954.00,1.53
8953.00,1.53
8952.00,1.53
8951.00,1.53
8950.00,1.53
8949.00,1.53
8948.00,1.53
8947.00,1.52
8946.00,1.52
8945.00,1.51
8944.00,1.51
8943.00,1.50
8942.00,1.49
8941.00,1.49
8940.00,1.48
8939.00,1.47
8938.00,1.47
8937.00,1.46
8936.00,1.46
8935.00,1.45
8934.00,1.45
8933.00,1.44
8932.00,1.44
8931.00,1.43
8930.00,1.43
8929.00,1.42
8928.00,1.42
8927.00,1.41
8926.00,1.41
8925.00,1.40
8924.00,1.39
8923.00,1.39
8922.00,1.38
8921.00,1.38
8920.00,1.37
8919.00,1.37
8918.00,1.36
8917.00,1.36
8916.00,1.36
8915.00,1.35
8914.00,1.35
8913.00,1.35
8912.00,1.35
8911.00,1.34
8910.00,1.34
8909.00,1.34
8908.00,1.35
8907.00,1.35
8906.00,1.35
8905.00,1.35
8904.00,1.36
8903.00,1.36
8902.00,1.37
8901.00,1.37
8900.00,1.38
8899.00,1.38
8898.00,1.39
8897.00,1.39
8896.00,1.40
8895.00,1.41
8894.00,1.42
8893.00,1.42
8892.00,1.43
8891.00,1.44
8890.00,1.44
8889.00,1.45
8888.00,1.46
8887.00,1.46
8886.00,1.47
8885.00,1.47
8884.00,1.48
8883.00,1.48
8882.00,1.48
8881.00,1.48
8880.00,1.48
8879.00,1.48
8878.00,1.48
8877.00,1.48
8876.00,1.48
8875.00,1.48
8874.00,1.48
8873.00,1.47
8872.00,1.47
8871.00,1.47
8870.00,1.47
8869.00,1.47
8868.00,1.46
8867.00,1.46
8866.00,1.46
8865.00,1.46
8864.00,1.46
8863.00,1.46
8862.00,1.46
8861.00,1.46
8860.00,1.46
8859.00,1.46
8858.00,1.46
8857.00,1.46
8856.00,1.46
8855.00,1.46
8854.00,1.46
8853.00,1.46
8852.00,1.46
8851.00,1.46
8850.00,1.46
8849.00,1.46
8848.00,1.46
8847.00,1.47
8846.00,1.47
8845.00,1.47
8844.00,1.47
8843.00,1.47
8842.00,1.47
8841.00,1.47
8840.00,1.47
8839.00,1.47
8838.00,1.47
8837.00,1.47
8836.00,1.47
8835.00,1.47
8834.00,1.46
8833.00,1.46
8832.00,1.46
8831.00,1.46
8830.00,1.45
8829.00,1.45
8828.00,1.45
8827.00,1.44
8826.00,1.44
8825.00,1.44
8824.00,1.44
8823.00,1.43
8822.00,1.43
8821.00,1.43
8820.00,1.42
8819.00,1.42
8818.00,1.42
8817.00,1.41
8816.00,1.41
8815.00,1.41
8814.00,1.40
8813.00,1.40
8812.00,1.40
8811.00,1.40
8810.00,1.40
8809.00,1.40
8808.00,1.40
8807.00,1.40
8806.00,1.40
8805.00,1.40
8804.00,1.40
8803.00,1.40
8802.00,1.40
8801.00,1.41
8800.00,1.41
8799.00,1.41
8798.00,1.42
8797.00,1.42
8796.00,1.42
8795.00,1.43
8794.00,1.43
8793.00,1.43
8792.00,1.44
8791.00,1.44
8790.00,1.44
8789.00,1.44
8788.00,1.44
8787.00,1.44
8786.00,1.44
8785.00,1.44
8784.00,1.44
8783.00,1.43
8782.00,1.43
8781.00,1.43
8780.00,1.43
8779.00,1.43
8778.00,1.42
8777.00,1.42
8776.00,1.42
8775.00,1.41
8774.00,1.41
8773.00,1.41
8772.00,1.40
8771.00,1.40
8770.00,1.40
8769.00,1.39
8768.00,1.39
8767.00,1.39
8766.00,1.38
8765.00,1.38
8764.00,1.38
8763.00,1.38
8762.00,1.38
8761.00,1.38
8760.00,1.38
8759.00,1.38
8758.00,1.38
8757.00,1.38
8756.00,1.38
8755.00,1.38
8754.00,1.38
8753.00,1.38
8752.00,1.39
8751.00,1.39
8750.00,1.39
8749.00,1.39
8748.00,1.39
8747.00,1.39
8746.00,1.40
8745.00,1.40
8744.00,1.41
8743.00,1.41
8742.00,1.41
8741.00,1.42
8740.00,1.42
8739.00,1.43
8738.00,1.43
8737.00,1.43
8736.00,1.44
8735.00,1.44
8734.00,1.45
8733.00,1.45
8732.00,1.45
8731.00,1.46
8730.00,1.46
8729.00,1.46
8728.00,1.47
8727.00,1.47
8726.00,1.47
8725.00,1.47
8724.00,1.48
8723.00,1.48
8722.00,1.48
8721.00,1.48
8720.00,1.48
8719.00,1.49
8718.00,1.49
8717.00,1.49
8716.00,1.49
8715.00,1.49
8714.00,1.50
8713.00,1.50
8712.00,1.50
8711.00,1.51
8710.00,1.51
8709.00,1.51
8708.00,1.52
8707.00,1.52
8706.00,1.53
8705.00,1.53
8704.00,1.54
8703.00,1.54
8702.00,1.54
8701.00,1.55
8700.00,1.55
8699.00,1.56
8698.00,1.56
8697.00,1.57
8696.00,1.57
8695.00,1.57
8694.00,1.58
8693.00,1.58
8692.00,1.58
8691.00,1.58
8690.00,1.58
8689.00,1.58
8688.00,1.58
8687.00,1.58
8686.00,1.58
8685.00,1.58
8684.00,1.58
8683.00,1.57
8682.00,1.57
8681.00,1.57
8680.00,1.56
8679.00,1.56
8678.00,1.55
8677.00,1.55
8676.00,1.55
8675.00,1.54
8674.00,1.54
8673.00,1.54
8672.00,1.53
8671.00,1.53
8670.00,1.53
8669.00,1.52
8668.00,1.52
8667.00,1.52
8666.00,1.51
8665.00,1.51
8664.00,1.51
8663.00,1.51
8662.00,1.51
8661.00,1.50
8660.00,1.50
8659.00,1.50
8658.00,1.50
8657.00,1.50
8656.00,1.50
8655.00,1.50
8654.00,1.50
8653.00,1.50
8652.00,1.50
8651.00,1.49
8650.00,1.49
8649.00,1.49
8648.00,1.48
8647.00,1.48
8646.00,1.47
8645.00,1.47
8644.00,1.46
8643.00,1.46
8642.00,1.46
8641.00,1.45
8640.00,1.45
8639.00,1.44
8638.00,1.44
8637.00,1.44
8636.00,1.43
8635.00,1.43
8634.00,1.43
8633.00,1.42
8632.00,1.42
8631.00,1.42
8630.00,1.41
8629.00,1.41
8628.00,1.41
8627.00,1.41
8626.00,1.41
8625.00,1.40
8624.00,1.40
8623.00,1.41
8622.00,1.41
8621.00,1.41
8620.00,1.41
8619.00,1.41
8618.00,1.42
8617.00,1.42
8616.00,1.42
8615.00,1.43
8614.00,1.43
8613.00,1.44
8612.00,1.44
8611.00,1.44
8610.00,1.45
8609.00,1.45
8608.00,1.45
8607.00,1.46
8606.00,1.46
8605.00,1.46
8604.00,1.47
8603.00,1.47
8602.00,1.47
8601.00,1.47
8600.00,1.48
8599.00,1.48
8598.00,1.48
8597.00,1.48
8596.00,1.49
8595.00,1.49
8594.00,1.49
8593.00,1.49
8592.00,1.49
8591.00,1.49
8590.00,1.48
8589.00,1.48
8588.00,1.48
8587.00,1.47
8586.00,1.47
8585.00,1.47
8584.00,1.46
8583.00,1.46
8582.00,1.46
8581.00,1.46
8580.00,1.45
8579.00,1.45
8578.00,1.45
8577.00,1.45
8576.00,1.45
8575.00,1.45
8574.00,1.45
8573.00,1.45
8572.00,1.44
8571.00,1.44
8570.00,1.44
8569.00,1.44
8568.00,1.45
8567.00,1.45
8566.00,1.45
8565.00,1.45
8564.00,1.45
8563.00,1.45
8562.00,1.46
8561.00,1.46
8560.00,1.47
8559.00,1.47
8558.00,1.47
8557.00,1.48
8556.00,1.48
8555.00,1.48
8554.00,1.48
8553.00,1.49
8552.00,1.49
8551.00,1.49
8550.00,1.49
8549.00,1.48
8548.00,1.48
8547.00,1.48
8546.00,1.48
8545.00,1.47
8544.00,1.47
8543.00,1.47
8542.00,1.46
8541.00,1.46
8540.00,1.46
8539.00,1.45
8538.00,1.45
8537.00,1.45
8536.00,1.44
8535.00,1.44
8534.00,1.43
8533.00,1.43
8532.00,1.43
8531.00,1.42
8530.00,1.42
8529.00,1.42
8528.00,1.41
8527.00,1.41
8526.00,1.41
8525.00,1.40
8524.00,1.40
8523.00,1.40
8522.00,1.40
8521.00,1.40
8520.00,1.40
8519.00,1.41
8518.00,1.41
8517.00,1.41
8516.00,1.42
8515.00,1.42
8514.00,1.42
8513.00,1.43
8512.00,1.43
8511.00,1.43
8510.00,1.44
8509.00,1.44
8508.00,1.44
8507.00,1.44
8506.00,1.45
8505.00,1.45
8504.00,1.45
8503.00,1.46
8502.00,1.46
8501.00,1.47
8500.00,1.47
8499.00,1.47
8498.00,1.48
8497.00,1.48
8496.00,1.48
8495.00,1.49
8494.00,1.49
8493.00,1.49
8492.00,1.49
8491.00,1.49
8490.00,1.49
8489.00,1.48
8488.00,1.48
8487.00,1.48
8486.00,1.48
8485.00,1.48
8484.00,1.47
8483.00,1.47
8482.00,1.47
8481.00,1.47
8480.00,1.46
8479.00,1.46
8478.00,1.46
8477.00,1.46
8476.00,1.45
8475.00,1.45
8474.00,1.44
8473.00,1.44
8472.00,1.44
8471.00,1.43
8470.00,1.43
8469.00,1.43
8468.00,1.42
8467.00,1.42
8466.00,1.42
8465.00,1.42
8464.00,1.42
8463.00,1.42
8462.00,1.42
8461.00,1.42
8460.00,1.42
8459.00,1.42
8458.00,1.42
8457.00,1.42
8456.00,1.43
8455.00,1.43
8454.00,1.43
8453.00,1.43
8452.00,1.44
8451.00,1.44
8450.00,1.44
8449.00,1.45
8448.00,1.45
8447.00,1.45
8446.00,1.46
8445.00,1.46
8444.00,1.46
8443.00,1.47
8442.00,1.47
8441.00,1.47
8440.00,1.47
8439.00,1.47
8438.00,1.47
8437.00,1.47
8436.00,1.47
8435.00,1.47
8434.00,1.47
8433.00,1.47
8432.00,1.47
8431.00,1.47
8430.00,1.47
8429.00,1.46
8428.00,1.46
8427.00,1.46
8426.00,1.45
8425.00,1.45
8424.00,1.44
8423.00,1.44
8422.00,1.43
8421.00,1.43
8420.00,1.42
8419.00,1.42
8418.00,1.42
8417.00,1.41
8416.00,1.41
8415.00,1.41
8414.00,1.41
8413.00,1.41
8412.00,1.41
8411.00,1.41
8410.00,1.41
8409.00,1.41
8408.00,1.41
8407.00,1.41
8406.00,1.41
8405.00,1.41
8404.00,1.42
8403.00,1.42
8402.00,1.42
8401.00,1.42
8400.00,1.43
8399.00,1.43
8398.00,1.44
8397.00,1.44
8396.00,1.45
8395.00,1.45
8394.00,1.46
8393.00,1.46
8392.00,1.46
8391.00,1.46
8390.00,1.46
8389.00,1.46
8388.00,1.46
8387.00,1.46
8386.00,1.46
8385.00,1.46
8384.00,1.45
8383.00,1.45
8382.00,1.45
8381.00,1.44
8380.00,1.44
8379.00,1.44
8378.00,1.43
8377.00,1.43
8376.00,1.43
8375.00,1.43
8374.00,1.42
8373.00,1.42
8372.00,1.42
8371.00,1.41
8370.00,1.41
8369.00,1.41
8368.00,1.40
8367.00,1.40
8366.00,1.40
8365.00,1.40
8364.00,1.40
8363.00,1.40
8362.00,1.41
8361.00,1.41
8360.00,1.41
8359.00,1.42
8358.00,1.42
8357.00,1.43
8356.00,1.43
8355.00,1.44
8354.00,1.45
8353.00,1.45
8352.00,1.46
8351.00,1.46
8350.00,1.47
8349.00,1.47
8348.00,1.48
8347.00,1.48
8346.00,1.49
8345.00,1.49
8344.00,1.49
8343.00,1.50
8342.00,1.50
8341.00,1.50
8340.00,1.50
8339.00,1.50
8338.00,1.50
8337.00,1.50
8336.00,1.50
8335.00,1.50
8334.00,1.50
8333.00,1.50
8332.00,1.50
8331.00,1.49
8330.00,1.49
8329.00,1.49
8328.00,1.48
8327.00,1.48
8326.00,1.47
8325.00,1.47
8324.00,1.46
8323.00,1.45
8322.00,1.45
8321.00,1.45
8320.00,1.44
8319.00,1.44
8318.00,1.43
8317.00,1.43
8316.00,1.43
8315.00,1.43
8314.00,1.43
8313.00,1.42
8312.00,1.42
8311.00,1.42
8310.00,1.42
8309.00,1.42
8308.00,1.42
8307.00,1.42
8306.00,1.42
8305.00,1.42
8304.00,1.42
8303.00,1.43
8302.00,1.43
8301.00,1.43
8300.00,1.44
8299.00,1.44
8298.00,1.45
8297.00,1.45
8296.00,1.45
8295.00,1.46
8294.00,1.46
8293.00,1.47
8292.00,1.47
8291.00,1.47
8290.00,1.47
8289.00,1.47
8288.00,1.47
8287.00,1.47
8286.00,1.47
8285.00,1.47
8284.00,1.47
8283.00,1.47
8282.00,1.47
8281.00,1.48
8280.00,1.48
8279.00,1.48
8278.00,1.48
8277.00,1.48
8276.00,1.48
8275.00,1.48
8274.00,1.47
8273.00,1.47
8272.00,1.47
8271.00,1.47
8270.00,1.46
8269.00,1.46
8268.00,1.46
8267.00,1.46
8266.00,1.46
8265.00,1.46
8264.00,1.46
8263.00,1.46
8262.00,1.46
8261.00,1.46
8260.00,1.46
8259.00,1.46
8258.00,1.46
8257.00,1.46
8256.00,1.46
8255.00,1.46
8254.00,1.46
8253.00,1.46
8252.00,1.46
8251.00,1.46
8250.00,1.46
8249.00,1.46
8248.00,1.46
8247.00,1.46
8246.00,1.46
8245.00,1.47
8244.00,1.47
8243.00,1.47
8242.00,1.47
8241.00,1.47
8240.00,1.47
8239.00,1.47
8238.00,1.47
8237.00,1.47
8236.00,1.47
8235.00,1.47
8234.00,1.47
8233.00,1.46
8232.00,1.46
8231.00,1.46
8230.00,1.46
8229.00,1.46
8228.00,1.46
8227.00,1.46
8226.00,1.46
8225.00,1.46
8224.00,1.46
8223.00,1.46
8222.00,1.47
8221.00,1.47
8220.00,1.47
8219.00,1.48
8218.00,1.48
8217.00,1.48
8216.00,1.49
8215.00,1.49
8214.00,1.49
8213.00,1.50
8212.00,1.50
8211.00,1.51
8210.00,1.51
8209.00,1.51
8208.00,1.52
8207.00,1.52
8206.00,1.53
8205.00,1.53
8204.00,1.54
8203.00,1.54
8202.00,1.55
8201.00,1.55
8200.00,1.55
8199.00,1.56
8198.00,1.56
8197.00,1.57
8196.00,1.57
8195.00,1.57
8194.00,1.57
8193.00,1.58
8192.00,1.58
8191.00,1.58
8190.00,1.58
8189.00,1.58
8188.00,1.58
8187.00,1.58
8186.00,1.58
8185.00,1.58
8184.00,1.58
8183.00,1.58
8182.00,1.58
8181.00,1.58
8180.00,1.58
8179.00,1.57
8178.00,1.57
8177.00,1.57
8176.00,1.57
8175.00,1.57
8174.00,1.56
8173.00,1.56
8172.00,1.56
8171.00,1.55
8170.00,1.55
8169.00,1.55
8168.00,1.54
8167.00,1.54
8166.00,1.54
8165.00,1.53
8164.00,1.53
8163.00,1.53
8162.00,1.52
8161.00,1.52
8160.00,1.52
8159.00,1.52
8158.00,1.52
8157.00,1.51
8156.00,1.51
8155.00,1.51
8154.00,1.51
8153.00,1.51
8152.00,1.51
8151.00,1.51
8150.00,1.51
8149.00,1.51
8148.00,1.51
8147.00,1.51
8146.00,1.51
8145.00,1.51
8144.00,1.51
8143.00,1.51
8142.00,1.51
8141.00,1.51
8140.00,1.51
8139.00,1.51
8138.00,1.51
8137.00,1.51
8136.00,1.51
8135.00,1.51
8134.00,1.51
8133.00,1.51
8132.00,1.51
8131.00,1.51
8130.00,1.51
8129.00,1.51
8128.00,1.51
8127.00,1.51
8126.00,1.51
8125.00,1.51
8124.00,1.51
8123.00,1.51
8122.00,1.50
8121.00,1.50
8120.00,1.50
8119.00,1.50
8118.00,1.50
8117.00,1.50
8116.00,1.50
8115.00,1.50
8114.00,1.50
8113.00,1.50
8112.00,1.50
8111.00,1.50
8110.00,1.51
8109.00,1.51
8108.00,1.51
8107.00,1.51
8106.00,1.51
8105.00,1.52
8104.00,1.52
8103.00,1.52
8102.00,1.52
8101.00,1.52
8100.00,1.53
8099.00,1.53
8098.00,1.53
8097.00,1.53
8096.00,1.54
8095.00,1.54
8094.00,1.54
8093.00,1.54
8092.00,1.54
8091.00,1.54
8090.00,1.54
8089.00,1.54
8088.00,1.54
8087.00,1.54
8086.00,1.54
8085.00,1.54
8084.00,1.53
8083.00,1.53
8082.00,1.53
8081.00,1.52
8080.00,1.52
8079.00,1.52
8078.00,1.51
8077.00,1.51
8076.00,1.50
8075.00,1.50
8074.00,1.49
8073.00,1.49
8072.00,1.48
8071.00,1.48
8070.00,1.48
8069.00,1.47
8068.00,1.47
8067.00,1.47
8066.00,1.47
8065.00,1.47
8064.00,1.47
8063.00,1.47
8062.00,1.47
8061.00,1.47
8060.00,1.47
8059.00,1.47
8058.00,1.47
8057.00,1.47
8056.00,1.48
8055.00,1.48
8054.00,1.48
8053.00,1.49
8052.00,1.49
8051.00,1.50
8050.00,1.50
8049.00,1.50
8048.00,1.51
8047.00,1.51
8046.00,1.52
8045.00,1.52
8044.00,1.52
8043.00,1.53
8042.00,1.53
8041.00,1.53
8040.00,1.53
8039.00,1.54
8038.00,1.54
8037.00,1.54
8036.00,1.54
8035.00,1.54
8034.00,1.54
8033.00,1.54
8032.00,1.54
8031.00,1.55
8030.00,1.55
8029.00,1.55
8028.00,1.55
8027.00,1.55
8026.00,1.55
8025.00,1.55
8024.00,1.56
8023.00,1.56
8022.00,1.56
8021.00,1.56
8020.00,1.56
8019.00,1.56
8018.00,1.56
8017.00,1.56
8016.00,1.57
8015.00,1.57
8014.00,1.57
8013.00,1.57
8012.00,1.58
8011.00,1.58
8010.00,1.58
8009.00,1.58
8008.00,1.59
8007.00,1.59
8006.00,1.59
8005.00,1.59
8004.00,1.59
8003.00,1.58
8002.00,1.58
8001.00,1.58
8000.00,1.58
7999.00,1.58
7998.00,1.58
7997.00,1.57
7996.00,1.57
7995.00,1.57
7994.00,1.57
7993.00,1.57
7992.00,1.56
7991.00,1.56
7990.00,1.56
7989.00,1.56
7988.00,1.55
7987.00,1.55
7986.00,1.55
7985.00,1.55
7984.00,1.54
7983.00,1.54
7982.00,1.54
7981.00,1.54
7980.00,1.54
7979.00,1.54
7978.00,1.54
7977.00,1.54
7976.00,1.54
7975.00,1.54
7974.00,1.55
7973.00,1.55
7972.00,1.55
7971.00,1.55
7970.00,1.55
7969.00,1.55
7968.00,1.55
7967.00,1.55
7966.00,1.55
7965.00,1.55
7964.00,1.55
7963.00,1.55
7962.00,1.55
7961.00,1.55
7960.00,1.55
7959.00,1.55
7958.00,1.55
7957.00,1.55
7956.00,1.55
7955.00,1.55
7954.00,1.55
7953.00,1.55
7952.00,1.55
7951.00,1.55
7950.00,1.54
7949.00,1.54
7948.00,1.54
7947.00,1.54
7946.00,1.54
7945.00,1.53
7944.00,1.53
7943.00,1.53
7942.00,1.53
7941.00,1.53
7940.00,1.53
7939.00,1.53
7938.00,1.53
7937.00,1.53
7936.00,1.53
7935.00,1.53
7934.00,1.53
7933.00,1.53
7932.00,1.54
7931.00,1.54
7930.00,1.54
7929.00,1.54
7928.00,1.55
7927.00,1.55
7926.00,1.55
7925.00,1.56
7924.00,1.56
7923.00,1.56
7922.00,1.57
7921.00,1.57
7920.00,1.58
7919.00,1.58
7918.00,1.58
7917.00,1.59
7916.00,1.59
7915.00,1.60
7914.00,1.60
7913.00,1.60
7912.00,1.61
7911.00,1.61
7910.00,1.62
7909.00,1.62
7908.00,1.62
7907.00,1.62
7906.00,1.62
7905.00,1.63
7904.00,1.63
7903.00,1.63
7902.00,1.62
7901.00,1.62
7900.00,1.62
7899.00,1.62
7898.00,1.62
7897.00,1.62
7896.00,1.61
7895.00,1.61
7894.00,1.61
7893.00,1.60
7892.00,1.60
7891.00,1.60
7890.00,1.60
7889.00,1.59
7888.00,1.59
7887.00,1.59
7886.00,1.58
7885.00,1.58
7884.00,1.58
7883.00,1.57
7882.00,1.57
7881.00,1.57
7880.00,1.57
7879.00,1.56
7878.00,1.56
7877.00,1.56
7876.00,1.56
7875.00,1.56
7874.00,1.56
7873.00,1.56
7872.00,1.56
7871.00,1.56
7870.00,1.57
7869.00,1.57
7868.00,1.57
7867.00,1.57
7866.00,1.57
7865.00,1.58
7864.00,1.58
7863.00,1.58
7862.00,1.58
7861.00,1.58
7860.00,1.58
7859.00,1.59
7858.00,1.59
7857.00,1.59
7856.00,1.59
7855.00,1.59
7854.00,1.59
7853.00,1.59
7852.00,1.58
7851.00,1.58
7850.00,1.58
7849.00,1.58
7848.00,1.58
7847.00,1.58
7846.00,1.57
7845.00,1.57
7844.00,1.56
7843.00,1.56
7842.00,1.56
7841.00,1.55
7840.00,1.55
7839.00,1.54
7838.00,1.54
7837.00,1.54
7836.00,1.53
7835.00,1.53
7834.00,1.53
7833.00,1.53
7832.00,1.53
7831.00,1.53
7830.00,1.53
7829.00,1.53
7828.00,1.53
7827.00,1.53
7826.00,1.53
7825.00,1.53
7824.00,1.53
7823.00,1.53
7822.00,1.53
7821.00,1.53
7820.00,1.54
7819.00,1.54
7818.00,1.54
7817.00,1.54
7816.00,1.55
7815.00,1.55
7814.00,1.55
7813.00,1.55
7812.00,1.55
7811.00,1.56
7810.00,1.56
7809.00,1.56
7808.00,1.56
7807.00,1.56
7806.00,1.56
7805.00,1.56
7804.00,1.55
7803.00,1.55
7802.00,1.55
7801.00,1.55
7800.00,1.55
7799.00,1.55
7798.00,1.54
7797.00,1.54
7796.00,1.54
7795.00,1.54
7794.00,1.54
7793.00,1.54
7792.00,1.54
7791.00,1.54
7790.00,1.54
7789.00,1.54
7788.00,1.54
7787.00,1.54
7786.00,1.54
7785.00,1.54
7784.00,1.54
7783.00,1.54
7782.00,1.54
7781.00,1.54
7780.00,1.55
7779.00,1.55
7778.00,1.55
7777.00,1.55
7776.00,1.56
7775.00,1.56
7774.00,1.56
7773.00,1.57
7772.00,1.57
7771.00,1.57
7770.00,1.57
7769.00,1.57
7768.00,1.58
7767.00,1.58
7766.00,1.58
7765.00,1.58
7764.00,1.58
7763.00,1.58
7762.00,1.58
7761.00,1.58
7760.00,1.58
7759.00,1.58
7758.00,1.58
7757.00,1.58
7756.00,1.58
7755.00,1.58
7754.00,1.58
7753.00,1.58
7752.00,1.58
7751.00,1.58
7750.00,1.58
7749.00,1.58
7748.00,1.58
7747.00,1.58
7746.00,1.58
7745.00,1.58
7744.00,1.58
7743.00,1.58
7742.00,1.59
7741.00,1.59
7740.00,1.59
7739.00,1.59
7738.00,1.59
7737.00,1.59
7736.00,1.59
7735.00,1.59
7734.00,1.59
7733.00,1.59
7732.00,1.59
7731.00,1.59
7730.00,1.59
7729.00,1.59
7728.00,1.59
7727.00,1.59
7726.00,1.59
7725.00,1.59
7724.00,1.59
7723.00,1.59
7722.00,1.59
7721.00,1.59
7720.00,1.59
7719.00,1.59
7718.00,1.59
7717.00,1.59
7716.00,1.58
7715.00,1.58
7714.00,1.58
7713.00,1.58
7712.00,1.57
7711.00,1.57
7710.00,1.57
7709.00,1.57
7708.00,1.57
7707.00,1.57
7706.00,1.57
7705.00,1.56
7704.00,1.56
7703.00,1.56
7702.00,1.56
7701.00,1.56
7700.00,1.55
7699.00,1.55
7698.00,1.55
7697.00,1.54
7696.00,1.54
7695.00,1.54
7694.00,1.53
7693.00,1.53
7692.00,1.53
7691.00,1.53
7690.00,1.52
7689.00,1.52
7688.00,1.52
7687.00,1.52
7686.00,1.52
7685.00,1.51
7684.00,1.51
7683.00,1.51
7682.00,1.51
7681.00,1.51
7680.00,1.51
7679.00,1.51
7678.00,1.50
7677.00,1.50
7676.00,1.50
7675.00,1.50
7674.00,1.50
7673.00,1.50
7672.00,1.50
7671.00,1.50
7670.00,1.51
7669.00,1.51
7668.00,1.51
7667.00,1.51
7666.00,1.51
7665.00,1.51
7664.00,1.51
7663.00,1.52
7662.00,1.52
7661.00,1.52
7660.00,1.52
7659.00,1.52
7658.00,1.52
7657.00,1.53
7656.00,1.53
7655.00,1.53
7654.00,1.54
7653.00,1.54
7652.00,1.54
7651.00,1.54
7650.00,1.55
7649.00,1.55
7648.00,1.55
7647.00,1.55
7646.00,1.56
7645.00,1.56
7644.00,1.56
7643.00,1.57
7642.00,1.57
7641.00,1.57
7640.00,1.58
7639.00,1.58
7638.00,1.58
7637.00,1.58
7636.00,1.58
7635.00,1.58
7634.00,1.59
7633.00,1.59
7632.00,1.59
7631.00,1.59
7630.00,1.59
7629.00,1.59
7628.00,1.59
7627.00,1.60
7626.00,1.60
7625.00,1.60
7624.00,1.60
7623.00,1.60
7622.00,1.60
7621.00,1.60
7620.00,1.60
7619.00,1.60
7618.00,1.61
7617.00,1.61
7616.00,1.61
7615.00,1.61
7614.00,1.61
7613.00,1.61
7612.00,1.61
7611.00,1.61
7610.00,1.61
7609.00,1.61
7608.00,1.61
7607.00,1.61
7606.00,1.61
7605.00,1.61
7604.00,1.61
7603.00,1.60
7602.00,1.60
7601.00,1.60
7600.00,1.60
7599.00,1.59
7598.00,1.59
7597.00,1.58
7596.00,1.58
7595.00,1.57
7594.00,1.57
7593.00,1.56
7592.00,1.56
7591.00,1.56
7590.00,1.55
7589.00,1.55
7588.00,1.55
7587.00,1.54
7586.00,1.54
7585.00,1.54
7584.00,1.53
7583.00,1.53
7582.00,1.53
7581.00,1.53
7580.00,1.52
7579.00,1.52
7578.00,1.52
7577.00,1.52
7576.00,1.52
7575.00,1.52
7574.00,1.52
7573.00,1.52
7572.00,1.52
7571.00,1.52
7570.00,1.53
7569.00,1.53
7568.00,1.53
7567.00,1.53
7566.00,1.54
7565.00,1.54
7564.00,1.54
7563.00,1.54
7562.00,1.55
7561.00,1.55
7560.00,1.55
7559.00,1.55
7558.00,1.55
7557.00,1.56
7556.00,1.56
7555.00,1.56
7554.00,1.56
7553.00,1.57
7552.00,1.57
7551.00,1.57
7550.00,1.57
7549.00,1.57
7548.00,1.58
7547.00,1.58
7546.00,1.58
7545.00,1.58
7544.00,1.58
7543.00,1.58
7542.00,1.59
7541.00,1.59
7540.00,1.59
7539.00,1.59
7538.00,1.59
7537.00,1.59
7536.00,1.59
7535.00,1.60
7534.00,1.60
7533.00,1.60
7532.00,1.60
7531.00,1.60
7530.00,1.61
7529.00,1.61
7528.00,1.61
7527.00,1.61
7526.00,1.61
7525.00,1.61
7524.00,1.62
7523.00,1.62
7522.00,1.62
7521.00,1.62
7520.00,1.62
7519.00,1.62
7518.00,1.62
7517.00,1.62
7516.00,1.62
7515.00,1.62
7514.00,1.62
7513.00,1.61
7512.00,1.61
7511.00,1.61
7510.00,1.61
7509.00,1.61
7508.00,1.61
7507.00,1.61
7506.00,1.61
7505.00,1.61
7504.00,1.61
7503.00,1.60
7502.00,1.60
7501.00,1.60
7500.00,1.60
7499.00,1.60
7498.00,1.59
7497.00,1.59
7496.00,1.59
7495.00,1.59
7494.00,1.59
7493.00,1.59
7492.00,1.59
7491.00,1.59
7490.00,1.59
7489.00,1.59
7488.00,1.59
7487.00,1.59
7486.00,1.59
7485.00,1.59
7484.00,1.59
7483.00,1.59
7482.00,1.59
7481.00,1.59
7480.00,1.59
7479.00,1.59
7478.00,1.59
7477.00,1.58
7476.00,1.58
7475.00,1.58
7474.00,1.58
7473.00,1.58
7472.00,1.58
7471.00,1.58
7470.00,1.59
7469.00,1.59
7468.00,1.59
7467.00,1.59
7466.00,1.58
7465.00,1.58
7464.00,1.58
7463.00,1.58
7462.00,1.58
7461.00,1.58
7460.00,1.58
7459.00,1.58
7458.00,1.58
7457.00,1.58
7456.00,1.58
7455.00,1.58
7454.00,1.58
7453.00,1.58
7452.00,1.58
7451.00,1.58
7450.00,1.58
7449.00,1.58
7448.00,1.58
7447.00,1.58
7446.00,1.58
7445.00,1.58
7444.00,1.58
7443.00,1.58
7442.00,1.58
7441.00,1.58
7440.00,1.58
7439.00,1.58
7438.00,1.58
7437.00,1.58
7436.00,1.58
7435.00,1.58
7434.00,1.58
7433.00,1.58
7432.00,1.58
7431.00,1.58
7430.00,1.57
7429.00,1.57
7428.00,1.57
7427.00,1.57
7426.00,1.57
7425.00,1.57
7424.00,1.57
7423.00,1.57
7422.00,1.57
7421.00,1.57
7420.00,1.57
7419.00,1.57
7418.00,1.57
7417.00,1.57
7416.00,1.57
7415.00,1.57
7414.00,1.57
7413.00,1.57
7412.00,1.57
7411.00,1.57
7410.00,1.57
7409.00,1.57
7408.00,1.57
7407.00,1.57
7406.00,1.57
7405.00,1.57
7404.00,1.58
7403.00,1.58
7402.00,1.58
7401.00,1.58
7400.00,1.58
7399.00,1.58
7398.00,1.58
7397.00,1.58
7396.00,1.58
7395.00,1.58
7394.00,1.58
7393.00,1.58
7392.00,1.58
7391.00,1.58
7390.00,1.58
7389.00,1.58
7388.00,1.58
7387.00,1.57
7386.00,1.57
7385.00,1.57
7384.00,1.57
7383.00,1.57
7382.00,1.57
7381.00,1.57
7380.00,1.57
7379.00,1.56
7378.00,1.56
7377.00,1.56
7376.00,1.56
7375.00,1.56
7374.00,1.56
7373.00,1.56
7372.00,1.56
7371.00,1.55
7370.00,1.55
7369.00,1.55
7368.00,1.55
7367.00,1.55
7366.00,1.55
7365.00,1.55
7364.00,1.55
7363.00,1.55
7362.00,1.54
7361.00,1.54
7360.00,1.54
7359.00,1.54
7358.00,1.54
7357.00,1.54
7356.00,1.54
7355.00,1.54
7354.00,1.54
7353.00,1.54
7352.00,1.54
7351.00,1.54
7350.00,1.54
7349.00,1.54
7348.00,1.54
7347.00,1.54
7346.00,1.54
7345.00,1.54
7344.00,1.54
7343.00,1.54
7342.00,1.54
7341.00,1.54
7340.00,1.54
7339.00,1.54
7338.00,1.54
7337.00,1.54
7336.00,1.54
7335.00,1.54
7334.00,1.54
7333.00,1.54
7332.00,1.54
7331.00,1.54
7330.00,1.54
7329.00,1.54
7328.00,1.54
7327.00,1.54
7326.00,1.54
7325.00,1.54
7324.00,1.54
7323.00,1.54
7322.00,1.54
7321.00,1.54
7320.00,1.54
7319.00,1.54
7318.00,1.54
7317.00,1.54
7316.00,1.54
7315.00,1.54
7314.00,1.54
7313.00,1.54
7312.00,1.54
7311.00,1.54
7310.00,1.55
7309.00,1.55
7308.00,1.55
7307.00,1.55
7306.00,1.55
7305.00,1.55
7304.00,1.56
7303.00,1.56
7302.00,1.56
7301.00,1.56
7300.00,1.56
7299.00,1.57
7298.00,1.57
7297.00,1.57
7296.00,1.57
7295.00,1.57
7294.00,1.57
7293.00,1.57
7292.00,1.57
7291.00,1.57
7290.00,1.57
7289.00,1.57
7288.00,1.57
7287.00,1.57
7286.00,1.57
7285.00,1.57
7284.00,1.57
7283.00,1.57
7282.00,1.57
7281.00,1.57
7280.00,1.57
7279.00,1.56
7278.00,1.56
7277.00,1.56
7276.00,1.56
7275.00,1.56
7274.00,1.55
7273.00,1.55
7272.00,1.55
7271.00,1.55
7270.00,1.55
7269.00,1.55
7268.00,1.55
7267.00,1.55
7266.00,1.55
7265.00,1.55
7264.00,1.55
7263.00,1.55
7262.00,1.55
7261.00,1.55
7260.00,1.55
7259.00,1.55
7258.00,1.55
7257.00,1.55
7256.00,1.55
7255.00,1.55
7254.00,1.55
7253.00,1.55
7252.00,1.55
7251.00,1.55
7250.00,1.55
7249.00,1.55
7248.00,1.55
7247.00,1.55
7246.00,1.55
7245.00,1.54
7244.00,1.54
7243.00,1.54
7242.00,1.54
7241.00,1.54
7240.00,1.53
7239.00,1.53
7238.00,1.53
7237.00,1.52
7236.00,1.52
7235.00,1.51
7234.00,1.51
7233.00,1.51
7232.00,1.50
7231.00,1.50
7230.00,1.49
7229.00,1.49
7228.00,1.49
7227.00,1.48
7226.00,1.48
7225.00,1.47
7224.00,1.47
7223.00,1.47
7222.00,1.46
7221.00,1.46
7220.00,1.46
7219.00,1.46
7218.00,1.46
7217.00,1.45
7216.00,1.45
7215.00,1.45
7214.00,1.45
7213.00,1.45
7212.00,1.45
7211.00,1.45
7210.00,1.45
7209.00,1.45
7208.00,1.45
7207.00,1.45
7206.00,1.45
7205.00,1.45
7204.00,1.45
7203.00,1.45
7202.00,1.44
7201.00,1.44
7200.00,1.44
7199.00,1.44
7198.00,1.44
7197.00,1.44
7196.00,1.44
7195.00,1.44
7194.00,1.44
7193.00,1.44
7192.00,1.43
7191.00,1.43
7190.00,1.43
7189.00,1.43
7188.00,1.42
7187.00,1.42
7186.00,1.41
7185.00,1.41
7184.00,1.40
7183.00,1.40
7182.00,1.39
7181.00,1.39
7180.00,1.38
7179.00,1.38
7178.00,1.37
7177.00,1.37
7176.00,1.36
7175.00,1.36
7174.00,1.35
7173.00,1.35
7172.00,1.34
7171.00,1.34
7170.00,1.33
7169.00,1.33
7168.00,1.33
7167.00,1.32
7166.00,1.32
7165.00,1.32
7164.00,1.31
7163.00,1.31
7162.00,1.31
7161.00,1.30
7160.00,1.30
7159.00,1.30
7158.00,1.30
7157.00,1.30
7156.00,1.29
7155.00,1.29
7154.00,1.29
7153.00,1.29
7152.00,1.29
7151.00,1.28
7150.00,1.28
7149.00,1.28
7148.00,1.28
7147.00,1.27
7146.00,1.27
7145.00,1.27
7144.00,1.27
7143.00,1.26
7142.00,1.26
7141.00,1.26
7140.00,1.25
7139.00,1.25
7138.00,1.25
7137.00,1.24
7136.00,1.24
7135.00,1.24
7134.00,1.24
7133.00,1.23
7132.00,1.23
7131.00,1.23
7130.00,1.22
7129.00,1.22
7128.00,1.22
7127.00,1.22
7126.00,1.22
7125.00,1.21
7124.00,1.21
7123.00,1.21
7122.00,1.21
7121.00,1.21
7120.00,1.20
7119.00,1.20
7118.00,1.20
7117.00,1.20
7116.00,1.20
7115.00,1.20
7114.00,1.19
7113.00,1.19
7112.00,1.19
7111.00,1.19
7110.00,1.19
7109.00,1.19
7108.00,1.19
7107.00,1.19
7106.00,1.19
7105.00,1.19
7104.00,1.19
7103.00,1.19
7102.00,1.19
7101.00,1.19
7100.00,1.20
7099.00,1.20
7098.00,1.20
7097.00,1.20
7096.00,1.20
7095.00,1.20
7094.00,1.20
7093.00,1.20
7092.00,1.20
7091.00,1.20
7090.00,1.20
7089.00,1.20
7088.00,1.20
7087.00,1.20
7086.00,1.20
7085.00,1.20
7084.00,1.20
7083.00,1.20
7082.00,1.19
7081.00,1.19
7080.00,1.19
7079.00,1.19
7078.00,1.19
7077.00,1.19
7076.00,1.18
7075.00,1.18
7074.00,1.18
7073.00,1.18
7072.00,1.17
7071.00,1.17
7070.00,1.17
7069.00,1.17
7068.00,1.17
7067.00,1.17
7066.00,1.16
7065.00,1.16
7064.00,1.16
7063.00,1.16
7062.00,1.16
7061.00,1.16
7060.00,1.16
7059.00,1.16
7058.00,1.16
7057.00,1.16
7056.00,1.16
7055.00,1.15
7054.00,1.15
7053.00,1.15
7052.00,1.15
7051.00,1.15
7050.00,1.14
7049.00,1.14
7048.00,1.14
7047.00,1.14
7046.00,1.14
7045.00,1.13
7044.00,1.13
7043.00,1.13
7042.00,1.13
7041.00,1.13
7040.00,1.13
7039.00,1.12
7038.00,1.12
7037.00,1.12
7036.00,1.12
7035.00,1.11
7034.00,1.11
7033.00,1.11
7032.00,1.11
7031.00,1.11
7030.00,1.11
7029.00,1.11
7028.00,1.11
7027.00,1.10
7026.00,1.10
7025.00,1.11
7024.00,1.11
7023.00,1.11
7022.00,1.11
7021.00,1.11
7020.00,1.11
7019.00,1.11
7018.00,1.11
7017.00,1.11
7016.00,1.11
7015.00,1.11
7014.00,1.11
7013.00,1.11
7012.00,1.12
7011.00,1.12
7010.00,1.12
7009.00,1.12
7008.00,1.12
7007.00,1.12
7006.00,1.12
7005.00,1.12
7004.00,1.12
7003.00,1.12
7002.00,1.12
7001.00,1.12
7000.00,1.12
6999.00,1.12
6998.00,1.12
6997.00,1.12
6996.00,1.12
6995.00,1.12
6994.00,1.12
6993.00,1.11
6992.00,1.11
6991.00,1.11
6990.00,1.11
6989.00,1.11
6988.00,1.11
6987.00,1.11
6986.00,1.11
6985.00,1.11
6984.00,1.11
6983.00,1.11
6982.00,1.10
6981.00,1.10
6980.00,1.10
6979.00,1.10
6978.00,1.10
6977.00,1.10
6976.00,1.10
6975.00,1.10
6974.00,1.10
6973.00,1.10
6972.00,1.10
6971.00,1.10
6970.00,1.10
6969.00,1.10
6968.00,1.10
6967.00,1.10
6966.00,1.10
6965.00,1.10
6964.00,1.10
6963.00,1.10
6962.00,1.10
6961.00,1.10
6960.00,1.10
6959.00,1.10
6958.00,1.10
6957.00,1.10
6956.00,1.10
6955.00,1.10
6954.00,1.10
6953.00,1.10
6952.00,1.10
6951.00,1.10
6950.00,1.10
6949.00,1.10
6948.00,1.10
6947.00,1.10
6946.00,1.10
6945.00,1.10
6944.00,1.10
6943.00,1.09
6942.00,1.09
6941.00,1.09
6940.00,1.09
6939.00,1.09
6938.00,1.09
6937.00,1.09
6936.00,1.09
6935.00,1.09
6934.00,1.09
6933.00,1.08
6932.00,1.08
6931.00,1.08
6930.00,1.08
6929.00,1.08
6928.00,1.08
6927.00,1.08
6926.00,1.07
6925.00,1.07
6924.00,1.07
6923.00,1.07
6922.00,1.07
6921.00,1.07
6920.00,1.07
6919.00,1.07
6918.00,1.07
6917.00,1.06
6916.00,1.06
6915.00,1.06
6914.00,1.06
6913.00,1.06
6912.00,1.06
6911.00,1.06
6910.00,1.06
6909.00,1.06
6908.00,1.06
6907.00,1.06
6906.00,1.06
6905.00,1.06
6904.00,1.06
6903.00,1.05
6902.00,1.05
6901.00,1.05
6900.00,1.05
6899.00,1.05
6898.00,1.05
6897.00,1.05
6896.00,1.05
6895.00,1.05
6894.00,1.06
6893.00,1.06
6892.00,1.06
6891.00,1.06
6890.00,1.06
6889.00,1.06
6888.00,1.06
6887.00,1.06
6886.00,1.06
6885.00,1.06
6884.00,1.06
6883.00,1.06
6882.00,1.06
6881.00,1.06
6880.00,1.06
6879.00,1.06
6878.00,1.06
6877.00,1.06
6876.00,1.06
6875.00,1.06
6874.00,1.06
6873.00,1.06
6872.00,1.06
6871.00,1.06
6870.00,1.06
6869.00,1.06
6868.00,1.06
6867.00,1.05
6866.00,1.05
6865.00,1.05
6864.00,1.05
6863.00,1.05
6862.00,1.05
6861.00,1.05
6860.00,1.04
6859.00,1.04
6858.00,1.04
6857.00,1.04
6856.00,1.04
6855.00,1.03
6854.00,1.03
6853.00,1.03
6852.00,1.03
6851.00,1.02
6850.00,1.02
6849.00,1.02
6848.00,1.02
6847.00,1.02
6846.00,1.02
6845.00,1.01
6844.00,1.01
6843.00,1.01
6842.00,1.01
6841.00,1.01
6840.00,1.01
6839.00,1.01
6838.00,1.01
6837.00,1.01
6836.00,1.01
6835.00,1.01
6834.00,1.01
6833.00,1.01
6832.00,1.02
6831.00,1.02
6830.00,1.02
6829.00,1.02
6828.00,1.02
6827.00,1.02
6826.00,1.03
6825.00,1.03
6824.00,1.03
6823.00,1.03
6822.00,1.03
6821.00,1.03
6820.00,1.04
6819.00,1.04
6818.00,1.04
6817.00,1.04
6816.00,1.04
6815.00,1.04
6814.00,1.04
6813.00,1.04
6812.00,1.04
6811.00,1.05
6810.00,1.05
6809.00,1.05
6808.00,1.05
6807.00,1.04
6806.00,1.04
6805.00,1.04
6804.00,1.04
6803.00,1.04
6802.00,1.04
6801.00,1.04
6800.00,1.04
6799.00,1.04
6798.00,1.04
6797.00,1.04
6796.00,1.04
6795.00,1.05
6794.00,1.05
6793.00,1.05
6792.00,1.05
6791.00,1.05
6790.00,1.05
6789.00,1.05
6788.00,1.05
6787.00,1.05
6786.00,1.05
6785.00,1.06
6784.00,1.06
6783.00,1.06
6782.00,1.06
6781.00,1.06
6780.00,1.07
6779.00,1.07
6778.00,1.07
6777.00,1.08
6776.00,1.08
6775.00,1.08
6774.00,1.08
6773.00,1.08
6772.00,1.09
6771.00,1.09
6770.00,1.09
6769.00,1.09
6768.00,1.09
6767.00,1.09
6766.00,1.10
6765.00,1.10
6764.00,1.10
6763.00,1.10
6762.00,1.10
6761.00,1.10
6760.00,1.11
6759.00,1.11
6758.00,1.11
6757.00,1.11
6756.00,1.11
6755.00,1.11
6754.00,1.12
6753.00,1.12
6752.00,1.12
6751.00,1.12
6750.00,1.12
6749.00,1.12
6748.00,1.12
6747.00,1.12
6746.00,1.12
6745.00,1.13
6744.00,1.13
6743.00,1.13
6742.00,1.13
6741.00,1.13
6740.00,1.13
6739.00,1.13
6738.00,1.14
6737.00,1.14
6736.00,1.14
6735.00,1.14
6734.00,1.14
6733.00,1.14
6732.00,1.14
6731.00,1.14
6730.00,1.15
6729.00,1.15
6728.00,1.15
6727.00,1.15
6726.00,1.15
6725.00,1.15
6724.00,1.15
6723.00,1.15
6722.00,1.15
6721.00,1.16
6720.00,1.16
6719.00,1.16
6718.00,1.16
6717.00,1.16
6716.00,1.16
6715.00,1.16
6714.00,1.16
6713.00,1.17
6712.00,1.17
6711.00,1.17
6710.00,1.17
6709.00,1.17
6708.00,1.17
6707.00,1.17
6706.00,1.17
6705.00,1.17
6704.00,1.17
6703.00,1.17
6702.00,1.17
6701.00,1.17
6700.00,1.17
6699.00,1.17
6698.00,1.17
6697.00,1.17
6696.00,1.17
6695.00,1.17
6694.00,1.17
6693.00,1.17
6692.00,1.17
6691.00,1.17
6690.00,1.17
6689.00,1.17
6688.00,1.17
6687.00,1.17
6686.00,1.17
6685.00,1.17
6684.00,1.17
6683.00,1.18
6682.00,1.18
6681.00,1.18
6680.00,1.18
6679.00,1.18
6678.00,1.19
6677.00,1.19
6676.00,1.19
6675.00,1.19
6674.00,1.20
6673.00,1.20
6672.00,1.20
6671.00,1.20
6670.00,1.20
6669.00,1.20
6668.00,1.21
6667.00,1.21
6666.00,1.21
6665.00,1.21
6664.00,1.21
6663.00,1.21
6662.00,1.21
6661.00,1.21
6660.00,1.21
6659.00,1.21
6658.00,1.21
6657.00,1.21
6656.00,1.21
6655.00,1.21
6654.00,1.21
6653.00,1.21
6652.00,1.21
6651.00,1.21
6650.00,1.21
6649.00,1.21
6648.00,1.21
6647.00,1.21
6646.00,1.21
6645.00,1.21
6644.00,1.20
6643.00,1.20
6642.00,1.20
6641.00,1.20
6640.00,1.20
6639.00,1.20
6638.00,1.21
6637.00,1.21
6636.00,1.21
6635.00,1.21
6634.00,1.21
6633.00,1.21
6632.00,1.21
6631.00,1.22
6630.00,1.22
6629.00,1.22
6628.00,1.22
6627.00,1.22
6626.00,1.22
6625.00,1.23
6624.00,1.23
6623.00,1.23
6622.00,1.23
6621.00,1.23
6620.00,1.24
6619.00,1.24
6618.00,1.24
6617.00,1.24
6616.00,1.24
6615.00,1.25
6614.00,1.25
6613.00,1.25
6612.00,1.25
6611.00,1.25
6610.00,1.25
6609.00,1.26
6608.00,1.26
6607.00,1.26
6606.00,1.26
6605.00,1.26
6604.00,1.26
6603.00,1.26
6602.00,1.26
6601.00,1.26
6600.00,1.26
6599.00,1.26
6598.00,1.27
6597.00,1.27
6596.00,1.27
6595.00,1.27
6594.00,1.27
6593.00,1.27
6592.00,1.27
6591.00,1.27
6590.00,1.27
6589.00,1.28
6588.00,1.28
6587.00,1.28
6586.00,1.28
6585.00,1.28
6584.00,1.28
6583.00,1.28
6582.00,1.28
6581.00,1.28
6580.00,1.28
6579.00,1.28
6578.00,1.28
6577.00,1.28
6576.00,1.28
6575.00,1.28
6574.00,1.28
6573.00,1.28
6572.00,1.28
6571.00,1.28
6570.00,1.28
6569.00,1.28
6568.00,1.28
6567.00,1.28
6566.00,1.28
6565.00,1.28
6564.00,1.28
6563.00,1.28
6562.00,1.28
6561.00,1.28
6560.00,1.29
6559.00,1.29
6558.00,1.29
6557.00,1.29
6556.00,1.29
6555.00,1.29
6554.00,1.29
6553.00,1.29
6552.00,1.29
6551.00,1.29
6550.00,1.30
6549.00,1.30
6548.00,1.30
6547.00,1.30
6546.00,1.30
6545.00,1.30
6544.00,1.31
6543.00,1.31
6542.00,1.31
6541.00,1.31
6540.00,1.31
6539.00,1.31
6538.00,1.31
6537.00,1.31
6536.00,1.31
6535.00,1.31
6534.00,1.32
6533.00,1.32
6532.00,1.32
6531.00,1.32
6530.00,1.32
6529.00,1.32
6528.00,1.32
6527.00,1.32
6526.00,1.32
6525.00,1.33
6524.00,1.33
6523.00,1.33
6522.00,1.33
6521.00,1.33
6520.00,1.33
6519.00,1.33
6518.00,1.33
6517.00,1.33
6516.00,1.33
6515.00,1.33
6514.00,1.34
6513.00,1.34
6512.00,1.34
6511.00,1.34
6510.00,1.35
6509.00,1.35
6508.00,1.35
6507.00,1.35
6506.00,1.35
6505.00,1.36
6504.00,1.36
6503.00,1.36
6502.00,1.36
6501.00,1.36
6500.00,1.37
6499.00,1.37
6498.00,1.37
6497.00,1.38
6496.00,1.38
6495.00,1.38
6494.00,1.38
6493.00,1.39
6492.00,1.39
6491.00,1.39
6490.00,1.39
6489.00,1.39
6488.00,1.39
6487.00,1.39
6486.00,1.40
6485.00,1.40
6484.00,1.40
6483.00,1.40
6482.00,1.40
6481.00,1.40
6480.00,1.40
6479.00,1.40
6478.00,1.41
6477.00,1.41
6476.00,1.41
6475.00,1.41
6474.00,1.41
6473.00,1.41
6472.00,1.41
6471.00,1.41
6470.00,1.41
6469.00,1.41
6468.00,1.42
6467.00,1.42
6466.00,1.42
6465.00,1.42
6464.00,1.42
6463.00,1.42
6462.00,1.42
6461.00,1.43
6460.00,1.43
6459.00,1.43
6458.00,1.43
6457.00,1.43
6456.00,1.43
6455.00,1.43
6454.00,1.44
6453.00,1.44
6452.00,1.44
6451.00,1.44
6450.00,1.44
6449.00,1.44
6448.00,1.44
6447.00,1.44
6446.00,1.44
6445.00,1.44
6444.00,1.44
6443.00,1.44
6442.00,1.44
6441.00,1.44
6440.00,1.44
6439.00,1.44
6438.00,1.44
6437.00,1.44
6436.00,1.44
6435.00,1.44
6434.00,1.44
6433.00,1.44
6432.00,1.44
6431.00,1.44
6430.00,1.44
6429.00,1.44
6428.00,1.44
6427.00,1.44
6426.00,1.44
6425.00,1.43
6424.00,1.43
6423.00,1.43
6422.00,1.43
6421.00,1.43
6420.00,1.43
6419.00,1.43
6418.00,1.43
6417.00,1.42
6416.00,1.42
6415.00,1.42
6414.00,1.42
6413.00,1.42
6412.00,1.42
6411.00,1.42
6410.00,1.42
6409.00,1.42
6408.00,1.42
6407.00,1.42
6406.00,1.42
6405.00,1.41
6404.00,1.41
6403.00,1.41
6402.00,1.41
6401.00,1.41
6400.00,1.41
6399.00,1.41
6398.00,1.41
6397.00,1.41
6396.00,1.41
6395.00,1.41
6394.00,1.42
6393.00,1.42
6392.00,1.42
6391.00,1.42
6390.00,1.42
6389.00,1.42
6388.00,1.42
6387.00,1.42
6386.00,1.43
6385.00,1.43
6384.00,1.43
6383.00,1.43
6382.00,1.43
6381.00,1.43
6380.00,1.43
6379.00,1.44
6378.00,1.44
6377.00,1.44
6376.00,1.44
6375.00,1.44
6374.00,1.44
6373.00,1.44
6372.00,1.44
6371.00,1.44
6370.00,1.44
6369.00,1.44
6368.00,1.45
6367.00,1.45
6366.00,1.45
6365.00,1.45
6364.00,1.45
6363.00,1.45
6362.00,1.45
6361.00,1.45
6360.00,1.45
6359.00,1.45
6358.00,1.45
6357.00,1.45
6356.00,1.45
6355.00,1.45
6354.00,1.45
6353.00,1.45
6352.00,1.45
6351.00,1.45
6350.00,1.45
6349.00,1.45
6348.00,1.45
6347.00,1.45
6346.00,1.45
6345.00,1.45
6344.00,1.45
6343.00,1.45
6342.00,1.45
6341.00,1.45
6340.00,1.45
6339.00,1.45
6338.00,1.45
6337.00,1.45
6336.00,1.45
6335.00,1.45
6334.00,1.45
6333.00,1.45
6332.00,1.45
6331.00,1.45
6330.00,1.45
6329.00,1.45
6328.00,1.45
6327.00,1.45
6326.00,1.45
6325.00,1.45
6324.00,1.45
6323.00,1.45
6322.00,1.46
6321.00,1.46
6320.00,1.46
6319.00,1.46
6318.00,1.46
6317.00,1.47
6316.00,1.47
6315.00,1.47
6314.00,1.47
6313.00,1.47
6312.00,1.47
6311.00,1.48
6310.00,1.48
6309.00,1.48
6308.00,1.48
6307.00,1.48
6306.00,1.48
6305.00,1.48
6304.00,1.49
6303.00,1.49
6302.00,1.49
6301.00,1.49
6300.00,1.49
6299.00,1.49
6298.00,1.49
6297.00,1.49
6296.00,1.49
6295.00,1.49
6294.00,1.49
6293.00,1.49
6292.00,1.49
6291.00,1.49
6290.00,1.49
6289.00,1.49
6288.00,1.49
6287.00,1.49
6286.00,1.49
6285.00,1.49
6284.00,1.49
6283.00,1.49
6282.00,1.49
6281.00,1.49
6280.00,1.49
6279.00,1.49
6278.00,1.50
6277.00,1.50
6276.00,1.50
6275.00,1.50
6274.00,1.50
6273.00,1.50
6272.00,1.50
6271.00,1.50
6270.00,1.51
6269.00,1.51
6268.00,1.51
6267.00,1.51
6266.00,1.51
6265.00,1.52
6264.00,1.52
6263.00,1.52
6262.00,1.52
6261.00,1.52
6260.00,1.52
6259.00,1.53
6258.00,1.53
6257.00,1.53
6256.00,1.53
6255.00,1.53
6254.00,1.53
6253.00,1.53
6252.00,1.53
6251.00,1.54
6250.00,1.54
6249.00,1.54
6248.00,1.54
6247.00,1.54
6246.00,1.54
6245.00,1.54
6244.00,1.54
6243.00,1.54
6242.00,1.54
6241.00,1.54
6240.00,1.54
6239.00,1.54
6238.00,1.54
6237.00,1.55
6236.00,1.55
6235.00,1.55
6234.00,1.55
6233.00,1.55
6232.00,1.55
6231.00,1.55
6230.00,1.55
6229.00,1.55
6228.00,1.55
6227.00,1.55
6226.00,1.55
6225.00,1.55
6224.00,1.56
6223.00,1.56
6222.00,1.56
6221.00,1.56
6220.00,1.56
6219.00,1.56
6218.00,1.56
6217.00,1.56
6216.00,1.56
6215.00,1.56
6214.00,1.56
6213.00,1.56
6212.00,1.56
6211.00,1.56
6210.00,1.56
6209.00,1.56
6208.00,1.56
6207.00,1.56
6206.00,1.56
6205.00,1.56
6204.00,1.56
6203.00,1.56
6202.00,1.55
6201.00,1.55
6200.00,1.55
6199.00,1.56
6198.00,1.56
6197.00,1.56
6196.00,1.56
6195.00,1.56
6194.00,1.56
6193.00,1.56
6192.00,1.56
6191.00,1.56
6190.00,1.57
6189.00,1.57
6188.00,1.57
6187.00,1.57
6186.00,1.58
6185.00,1.58
6184.00,1.58
6183.00,1.58
6182.00,1.59
6181.00,1.59
6180.00,1.59
6179.00,1.60
6178.00,1.60
6177.00,1.60
6176.00,1.60
6175.00,1.61
6174.00,1.61
6173.00,1.61
6172.00,1.61
6171.00,1.61
6170.00,1.61
6169.00,1.62
6168.00,1.62
6167.00,1.62
6166.00,1.62
6165.00,1.62
6164.00,1.62
6163.00,1.62
6162.00,1.62
6161.00,1.61
6160.00,1.61
6159.00,1.61
6158.00,1.61
6157.00,1.61
6156.00,1.61
6155.00,1.61
6154.00,1.61
6153.00,1.60
6152.00,1.60
6151.00,1.60
6150.00,1.60
6149.00,1.60
6148.00,1.60
6147.00,1.60
6146.00,1.60
6145.00,1.60
6144.00,1.60
6143.00,1.60
6142.00,1.60
6141.00,1.60
6140.00,1.60
6139.00,1.60
6138.00,1.60
6137.00,1.60
6136.00,1.60
6135.00,1.60
6134.00,1.61
6133.00,1.61
6132.00,1.61
6131.00,1.61
6130.00,1.61
6129.00,1.61
6128.00,1.61
6127.00,1.62
6126.00,1.62
6125.00,1.62
6124.00,1.62
6123.00,1.62
6122.00,1.62
6121.00,1.62
6120.00,1.62
6119.00,1.62
6118.00,1.62
6117.00,1.62
6116.00,1.62
6115.00,1.62
6114.00,1.62
6113.00,1.62
6112.00,1.62
6111.00,1.62
6110.00,1.62
6109.00,1.62
6108.00,1.62
6107.00,1.62
6106.00,1.62
6105.00,1.62
6104.00,1.62
6103.00,1.62
6102.00,1.62
6101.00,1.62
6100.00,1.62
6099.00,1.62
6098.00,1.62
6097.00,1.62
6096.00,1.62
6095.00,1.62
6094.00,1.62
6093.00,1.62
6092.00,1.62
6091.00,1.62
6090.00,1.62
6089.00,1.62
6088.00,1.62
6087.00,1.63
6086.00,1.63
6085.00,1.63
6084.00,1.63
6083.00,1.63
6082.00,1.63
6081.00,1.64
6080.00,1.64
6079.00,1.64
6078.00,1.64
6077.00,1.64
6076.00,1.65
6075.00,1.65
6074.00,1.65
6073.00,1.65
6072.00,1.65
6071.00,1.65
6070.00,1.65
6069.00,1.65
6068.00,1.65
6067.00,1.65
6066.00,1.65
6065.00,1.65
6064.00,1.65
6063.00,1.65
6062.00,1.65
6061.00,1.65
6060.00,1.65
6059.00,1.65
6058.00,1.65
6057.00,1.65
6056.00,1.65
6055.00,1.65
6054.00,1.65
6053.00,1.65
6052.00,1.65
6051.00,1.65
6050.00,1.65
6049.00,1.65
6048.00,1.65
6047.00,1.65
6046.00,1.66
6045.00,1.66
6044.00,1.66
6043.00,1.66
6042.00,1.66
6041.00,1.66
6040.00,1.66
6039.00,1.66
6038.00,1.67
6037.00,1.67
6036.00,1.67
6035.00,1.67
6034.00,1.67
6033.00,1.67
6032.00,1.67
6031.00,1.67
6030.00,1.67
6029.00,1.67
6028.00,1.67
6027.00,1.67
6026.00,1.67
6025.00,1.67
6024.00,1.67
6023.00,1.67
6022.00,1.67
6021.00,1.67
6020.00,1.67
6019.00,1.67
6018.00,1.67
6017.00,1.67
6016.00,1.67
6015.00,1.67
6014.00,1.67
6013.00,1.67
6012.00,1.67
6011.00,1.67
6010.00,1.67
6009.00,1.68
6008.00,1.68
6007.00,1.68
6006.00,1.68
6005.00,1.68
6004.00,1.68
6003.00,1.68
6002.00,1.68
6001.00,1.68
6000.00,1.68
5999.00,1.68
5998.00,1.68
5997.00,1.68
5996.00,1.68
5995.00,1.68
5994.00,1.68
5993.00,1.67
5992.00,1.67
5991.00,1.67
5990.00,1.67
5989.00,1.67
5988.00,1.67
5987.00,1.67
5986.00,1.66
5985.00,1.66
5984.00,1.66
5983.00,1.66
5982.00,1.66
5981.00,1.66
5980.00,1.65
5979.00,1.65
5978.00,1.65
5977.00,1.65
5976.00,1.65
5975.00,1.65
5974.00,1.64
5973.00,1.64
5972.00,1.64
5971.00,1.64
5970.00,1.64
5969.00,1.63
5968.00,1.63
5967.00,1.63
5966.00,1.63
5965.00,1.63
5964.00,1.63
5963.00,1.62
5962.00,1.62
5961.00,1.62
5960.00,1.62
5959.00,1.62
5958.00,1.61
5957.00,1.61
5956.00,1.61
5955.00,1.61
5954.00,1.61
5953.00,1.60
5952.00,1.60
5951.00,1.60
5950.00,1.60
5949.00,1.60
5948.00,1.60
5947.00,1.60
5946.00,1.60
5945.00,1.60
5944.00,1.60
5943.00,1.60
5942.00,1.60
5941.00,1.60
5940.00,1.60
5939.00,1.60
5938.00,1.60
5937.00,1.60
5936.00,1.60
5935.00,1.60
5934.00,1.60
5933.00,1.60
5932.00,1.60
5931.00,1.60
5930.00,1.60
5929.00,1.60
5928.00,1.60
5927.00,1.60
5926.00,1.60
5925.00,1.60
5924.00,1.59
5923.00,1.59
5922.00,1.59
5921.00,1.59
5920.00,1.59
5919.00,1.59
5918.00,1.58
5917.00,1.58
5916.00,1.58
5915.00,1.58
5914.00,1.58
5913.00,1.57
5912.00,1.57
5911.00,1.57
5910.00,1.57
5909.00,1.57
5908.00,1.57
5907.00,1.56
5906.00,1.56
5905.00,1.56
5904.00,1.56
5903.00,1.56
5902.00,1.56
5901.00,1.56
5900.00,1.57
5899.00,1.57
5898.00,1.57
5897.00,1.57
5896.00,1.57
5895.00,1.57
5894.00,1.57
5893.00,1.57
5892.00,1.58
5891.00,1.58
5890.00,1.58
5889.00,1.58
5888.00,1.59
5887.00,1.59
5886.00,1.59
5885.00,1.59
5884.00,1.60
5883.00,1.60
5882.00,1.60
5881.00,1.60
5880.00,1.61
5879.00,1.61
5878.00,1.61
5877.00,1.61
5876.00,1.62
5875.00,1.62
5874.00,1.62
5873.00,1.62
5872.00,1.62
5871.00,1.62
5870.00,1.63
5869.00,1.63
5868.00,1.63
5867.00,1.63
5866.00,1.63
5865.00,1.63
5864.00,1.63
5863.00,1.63
5862.00,1.63
5861.00,1.63
5860.00,1.63
5859.00,1.63
5858.00,1.63
5857.00,1.63
5856.00,1.63
5855.00,1.63
5854.00,1.63
5853.00,1.63
5852.00,1.64
5851.00,1.64
5850.00,1.64
5849.00,1.64
5848.00,1.64
5847.00,1.64
5846.00,1.64
5845.00,1.63
5844.00,1.64
5843.00,1.64
5842.00,1.64
5841.00,1.64
5840.00,1.64
5839.00,1.64
5838.00,1.64
5837.00,1.64
5836.00,1.64
5835.00,1.64
5834.00,1.64
5833.00,1.64
5832.00,1.64
5831.00,1.64
5830.00,1.64
5829.00,1.64
5828.00,1.64
5827.00,1.64
5826.00,1.64
5825.00,1.64
5824.00,1.64
5823.00,1.64
5822.00,1.64
5821.00,1.64
5820.00,1.64
5819.00,1.64
5818.00,1.65
5817.00,1.65
5816.00,1.65
5815.00,1.65
5814.00,1.65
5813.00,1.65
5812.00,1.65
5811.00,1.64
5810.00,1.64
5809.00,1.64
5808.00,1.64
5807.00,1.64
5806.00,1.64
5805.00,1.64
5804.00,1.64
5803.00,1.64
5802.00,1.64
5801.00,1.63
5800.00,1.63
5799.00,1.63
5798.00,1.63
5797.00,1.63
5796.00,1.63
5795.00,1.63
5794.00,1.63
5793.00,1.63
5792.00,1.62
5791.00,1.62
5790.00,1.62
5789.00,1.62
5788.00,1.62
5787.00,1.62
5786.00,1.62
5785.00,1.62
5784.00,1.62
5783.00,1.61
5782.00,1.61
5781.00,1.61
5780.00,1.61
5779.00,1.61
5778.00,1.61
5777.00,1.61
5776.00,1.61
5775.00,1.61
5774.00,1.61
5773.00,1.61
5772.00,1.61
5771.00,1.61
5770.00,1.60
5769.00,1.60
5768.00,1.60
5767.00,1.60
5766.00,1.60
5765.00,1.60
5764.00,1.60
5763.00,1.60
5762.00,1.60
5761.00,1.60
5760.00,1.60
5759.00,1.60
5758.00,1.60
5757.00,1.60
5756.00,1.60
5755.00,1.60
5754.00,1.60
5753.00,1.60
5752.00,1.60
5751.00,1.60
5750.00,1.60
5749.00,1.60
5748.00,1.60
5747.00,1.61
5746.00,1.61
5745.00,1.61
5744.00,1.61
5743.00,1.61
5742.00,1.61
5741.00,1.62
5740.00,1.62
5739.00,1.62
5738.00,1.62
5737.00,1.62
5736.00,1.62
5735.00,1.63
5734.00,1.63
5733.00,1.63
5732.00,1.63
5731.00,1.63
5730.00,1.63
5729.00,1.63
5728.00,1.63
5727.00,1.63
5726.00,1.64
5725.00,1.64
5724.00,1.64
5723.00,1.64
5722.00,1.64
5721.00,1.64
5720.00,1.64
5719.00,1.64
5718.00,1.64
5717.00,1.64
5716.00,1.63
5715.00,1.63
5714.00,1.63
5713.00,1.63
5712.00,1.63
5711.00,1.63
5710.00,1.63
5709.00,1.63
5708.00,1.62
5707.00,1.62
5706.00,1.62
5705.00,1.62
5704.00,1.62
5703.00,1.62
5702.00,1.62
5701.00,1.62
5700.00,1.62
5699.00,1.62
5698.00,1.61
5697.00,1.61
5696.00,1.61
5695.00,1.61
5694.00,1.61
5693.00,1.61
5692.00,1.61
5691.00,1.61
5690.00,1.61
5689.00,1.61
5688.00,1.61
5687.00,1.61
5686.00,1.61
5685.00,1.61
5684.00,1.61
5683.00,1.61
5682.00,1.61
5681.00,1.61
5680.00,1.60
5679.00,1.60
5678.00,1.60
5677.00,1.60
5676.00,1.60
5675.00,1.60
5674.00,1.60
5673.00,1.60
5672.00,1.60
5671.00,1.60
5670.00,1.60
5669.00,1.60
5668.00,1.60
5667.00,1.60
5666.00,1.60
5665.00,1.60
5664.00,1.60
5663.00,1.60
5662.00,1.60
5661.00,1.60
5660.00,1.60
5659.00,1.60
5658.00,1.60
5657.00,1.60
5656.00,1.60
5655.00,1.60
5654.00,1.60
5653.00,1.60
5652.00,1.60
5651.00,1.60
5650.00,1.60
5649.00,1.60
5648.00,1.60
5647.00,1.60
5646.00,1.60
5645.00,1.60
5644.00,1.60
5643.00,1.60
5642.00,1.60
5641.00,1.60
5640.00,1.60
5639.00,1.60
5638.00,1.60
5637.00,1.60
5636.00,1.60
5635.00,1.61
5634.00,1.61
5633.00,1.61
5632.00,1.61
5631.00,1.61
5630.00,1.61
5629.00,1.61
5628.00,1.61
5627.00,1.61
5626.00,1.61
5625.00,1.62
5624.00,1.62
5623.00,1.62
5622.00,1.62
5621.00,1.62
5620.00,1.62
5619.00,1.62
5618.00,1.62
5617.00,1.63
5616.00,1.63
5615.00,1.63
5614.00,1.63
5613.00,1.63
5612.00,1.63
5611.00,1.63
5610.00,1.63
5609.00,1.63
5608.00,1.63
5607.00,1.63
5606.00,1.63
5605.00,1.63
5604.00,1.63
5603.00,1.63
5602.00,1.63
5601.00,1.63
5600.00,1.63
5599.00,1.63
5598.00,1.63
5597.00,1.63
5596.00,1.63
5595.00,1.63
5594.00,1.63
5593.00,1.63
5592.00,1.63
5591.00,1.63
5590.00,1.63
5589.00,1.63
5588.00,1.63
5587.00,1.63
5586.00,1.63
5585.00,1.63
5584.00,1.63
5583.00,1.63
5582.00,1.63
5581.00,1.63
5580.00,1.63
5579.00,1.63
5578.00,1.63
5577.00,1.63
5576.00,1.63
5575.00,1.63
5574.00,1.64
5573.00,1.64
5572.00,1.64
5571.00,1.64
5570.00,1.64
5569.00,1.64
5568.00,1.64
5567.00,1.64
5566.00,1.64
5565.00,1.64
5564.00,1.65
5563.00,1.65
5562.00,1.65
5561.00,1.65
5560.00,1.65
5559.00,1.65
5558.00,1.65
5557.00,1.65
5556.00,1.65
5555.00,1.65
5554.00,1.65
5553.00,1.65
5552.00,1.65
5551.00,1.66
5550.00,1.66
5549.00,1.66
5548.00,1.66
5547.00,1.66
5546.00,1.66
5545.00,1.66
5544.00,1.66
5543.00,1.66
5542.00,1.66
5541.00,1.66
5540.00,1.66
5539.00,1.66
5538.00,1.66
5537.00,1.66
5536.00,1.66
5535.00,1.66
5534.00,1.66
5533.00,1.66
5532.00,1.66
5531.00,1.66
5530.00,1.66
5529.00,1.66
5528.00,1.66
5527.00,1.66
5526.00,1.66
5525.00,1.66
5524.00,1.66
5523.00,1.67
5522.00,1.67
5521.00,1.67
5520.00,1.67
5519.00,1.67
5518.00,1.67
5517.00,1.67
5516.00,1.67
5515.00,1.67
5514.00,1.67
5513.00,1.67
5512.00,1.67
5511.00,1.67
5510.00,1.67
5509.00,1.67
5508.00,1.67
5507.00,1.68
5506.00,1.68
5505.00,1.68
5504.00,1.68
5503.00,1.68
5502.00,1.68
5501.00,1.68
5500.00,1.67
5499.00,1.67
5498.00,1.67
5497.00,1.67
5496.00,1.67
5495.00,1.67
5494.00,1.67
5493.00,1.67
5492.00,1.67
5491.00,1.67
5490.00,1.67
5489.00,1.67
5488.00,1.67
5487.00,1.67
5486.00,1.67
5485.00,1.67
5484.00,1.67
5483.00,1.67
5482.00,1.67
5481.00,1.68
5480.00,1.68
5479.00,1.68
5478.00,1.68
5477.00,1.68
5476.00,1.68
5475.00,1.68
5474.00,1.68
5473.00,1.68
5472.00,1.68
5471.00,1.69
5470.00,1.69
5469.00,1.69
5468.00,1.69
5467.00,1.69
5466.00,1.69
5465.00,1.69
5464.00,1.70
5463.00,1.70
5462.00,1.70
5461.00,1.70
5460.00,1.70
5459.00,1.70
5458.00,1.70
5457.00,1.70
5456.00,1.70
5455.00,1.70
5454.00,1.71
5453.00,1.71
5452.00,1.71
5451.00,1.71
5450.00,1.71
5449.00,1.71
5448.00,1.71
5447.00,1.71
5446.00,1.71
5445.00,1.71
5444.00,1.71
5443.00,1.71
5442.00,1.71
5441.00,1.71
5440.00,1.71
5439.00,1.71
5438.00,1.71
5437.00,1.71
5436.00,1.71
5435.00,1.71
5434.00,1.70
5433.00,1.70
5432.00,1.70
5431.00,1.70
5430.00,1.70
5429.00,1.70
5428.00,1.70
5427.00,1.70
5426.00,1.70
5425.00,1.70
5424.00,1.70
5423.00,1.70
5422.00,1.70
5421.00,1.70
5420.00,1.70
5419.00,1.70
5418.00,1.69
5417.00,1.69
5416.00,1.69
5415.00,1.69
5414.00,1.69
5413.00,1.69
5412.00,1.69
5411.00,1.69
5410.00,1.69
5409.00,1.69
5408.00,1.69
5407.00,1.69
5406.00,1.69
5405.00,1.69
5404.00,1.69
5403.00,1.69
5402.00,1.69
5401.00,1.69
5400.00,1.69
5399.00,1.69
5398.00,1.69
5397.00,1.69
5396.00,1.69
5395.00,1.69
5394.00,1.69
5393.00,1.69
5392.00,1.69
5391.00,1.68
5390.00,1.68
5389.00,1.68
5388.00,1.68
5387.00,1.68
5386.00,1.67
5385.00,1.67
5384.00,1.67
5383.00,1.67
5382.00,1.67
5381.00,1.66
5380.00,1.66
5379.00,1.66
5378.00,1.66
5377.00,1.65
5376.00,1.65
5375.00,1.65
5374.00,1.65
5373.00,1.64
5372.00,1.64
5371.00,1.64
5370.00,1.64
5369.00,1.63
5368.00,1.63
5367.00,1.63
5366.00,1.63
5365.00,1.63
5364.00,1.62
5363.00,1.62
5362.00,1.62
5361.00,1.62
5360.00,1.61
5359.00,1.61
5358.00,1.61
5357.00,1.61
5356.00,1.60
5355.00,1.60
5354.00,1.59
5353.00,1.59
5352.00,1.58
5351.00,1.58
5350.00,1.57
5349.00,1.57
5348.00,1.56
5347.00,1.55
5346.00,1.55
5345.00,1.54
5344.00,1.53
5343.00,1.52
5342.00,1.52
5341.00,1.51
5340.00,1.50
5339.00,1.49
5338.00,1.48
5337.00,1.47
5336.00,1.46
5335.00,1.45
5334.00,1.44
5333.00,1.43
5332.00,1.42
5331.00,1.41
5330.00,1.40
5329.00,1.39
5328.00,1.38
5327.00,1.37
5326.00,1.36
5325.00,1.35
5324.00,1.34
5323.00,1.33
5322.00,1.32
5321.00,1.31
5320.00,1.30
5319.00,1.29
5318.00,1.29
5317.00,1.28
5316.00,1.27
5315.00,1.26
5314.00,1.25
5313.00,1.24
5312.00,1.23
5311.00,1.22
5310.00,1.21
5309.00,1.20
5308.00,1.19
5307.00,1.18
5306.00,1.17
5305.00,1.17
5304.00,1.16
5303.00,1.15
5302.00,1.14
5301.00,1.13
5300.00,1.12
5299.00,1.12
5298.00,1.11
5297.00,1.10
5296.00,1.09
5295.00,1.08
5294.00,1.08
5293.00,1.07
5292.00,1.06
5291.00,1.05
5290.00,1.04
5289.00,1.04
5288.00,1.03
5287.00,1.02
5286.00,1.01
5285.00,1.01
5284.00,1.00
5283.00,0.99
5282.00,0.99
5281.00,0.98
5280.00,0.97
5279.00,0.97
5278.00,0.96
5277.00,0.95
5276.00,0.95
5275.00,0.94
5274.00,0.94
5273.00,0.93
5272.00,0.92
5271.00,0.92
5270.00,0.91
5269.00,0.91
5268.00,0.90
5267.00,0.90
5266.00,0.89
5265.00,0.89
5264.00,0.88
5263.00,0.87
5262.00,0.87
5261.00,0.87
5260.00,0.86
5259.00,0.86
5258.00,0.85
5257.00,0.85
5256.00,0.84
5255.00,0.84
5254.00,0.83
5253.00,0.83
5252.00,0.83
5251.00,0.82
5250.00,0.82
5249.00,0.81
5248.00,0.81
5247.00,0.80
5246.00,0.80
5245.00,0.80
5244.00,0.79
5243.00,0.79
5242.00,0.79
5241.00,0.78
5240.00,0.78
5239.00,0.78
5238.00,0.78
5237.00,0.77
5236.00,0.77
5235.00,0.77
5234.00,0.77
5233.00,0.76
5232.00,0.76
5231.00,0.76
5230.00,0.76
5229.00,0.75
5228.00,0.75
5227.00,0.75
5226.00,0.75
5225.00,0.74
5224.00,0.74
5223.00,0.74
5222.00,0.74
5221.00,0.74
5220.00,0.73
5219.00,0.73
5218.00,0.73
5217.00,0.73
5216.00,0.73
5215.00,0.72
5214.00,0.72
5213.00,0.72
5212.00,0.72
5211.00,0.72
5210.00,0.71
5209.00,0.71
5208.00,0.71
5207.00,0.71
5206.00,0.71
5205.00,0.70
5204.00,0.70
5203.00,0.70
5202.00,0.70
5201.00,0.70
5200.00,0.70
5199.00,0.70
5198.00,0.70
5197.00,0.69
5196.00,0.69
5195.00,0.69
5194.00,0.69
5193.00,0.69
5192.00,0.69
5191.00,0.69
5190.00,0.69
5189.00,0.69
5188.00,0.69
5187.00,0.69
5186.00,0.69
5185.00,0.69
5184.00,0.69
5183.00,0.69
5182.00,0.69
5181.00,0.69
5180.00,0.70
5179.00,0.70
5178.00,0.70
5177.00,0.70
5176.00,0.70
5175.00,0.70
5174.00,0.70
5173.00,0.70
5172.00,0.70
5171.00,0.70
5170.00,0.71
5169.00,0.71
5168.00,0.71
5167.00,0.71
5166.00,0.71
5165.00,0.71
5164.00,0.72
5163.00,0.72
5162.00,0.72
5161.00,0.72
5160.00,0.72
5159.00,0.72
5158.00,0.73
5157.00,0.73
5156.00,0.73
5155.00,0.73
5154.00,0.73
5153.00,0.73
5152.00,0.73
5151.00,0.73
5150.00,0.74
5149.00,0.74
5148.00,0.74
5147.00,0.74
5146.00,0.74
5145.00,0.74
5144.00,0.74
5143.00,0.74
5142.00,0.74
5141.00,0.74
5140.00,0.74
5139.00,0.74
5138.00,0.74
5137.00,0.75
5136.00,0.75
5135.00,0.75
5134.00,0.75
5133.00,0.75
5132.00,0.75
5131.00,0.75
5130.00,0.75
5129.00,0.75
5128.00,0.75
5127.00,0.75
5126.00,0.75
5125.00,0.75
5124.00,0.76
5123.00,0.76
5122.00,0.76
5121.00,0.76
5120.00,0.76
5119.00,0.76
5118.00,0.76
5117.00,0.76
5116.00,0.76
5115.00,0.77
5114.00,0.77
5113.00,0.77
5112.00,0.77
5111.00,0.77
5110.00,0.77
5109.00,0.78
5108.00,0.78
5107.00,0.78
5106.00,0.78
5105.00,0.78
5104.00,0.78
5103.00,0.79
5102.00,0.79
5101.00,0.79
5100.00,0.79
5099.00,0.79
5098.00,0.79
5097.00,0.79
5096.00,0.79
5095.00,0.79
5094.00,0.80
5093.00,0.80
5092.00,0.80
5091.00,0.80
5090.00,0.80
5089.00,0.80
5088.00,0.80
5087.00,0.81
5086.00,0.81
5085.00,0.81
5084.00,0.81
5083.00,0.81
5082.00,0.81
5081.00,0.81
5080.00,0.82
5079.00,0.82
5078.00,0.82
5077.00,0.82
5076.00,0.82
5075.00,0.83
5074.00,0.83
5073.00,0.83
5072.00,0.83
5071.00,0.84
5070.00,0.84
5069.00,0.84
5068.00,0.84
5067.00,0.85
5066.00,0.85
5065.00,0.85
5064.00,0.85
5063.00,0.86
5062.00,0.86
5061.00,0.86
5060.00,0.86
5059.00,0.86
5058.00,0.87
5057.00,0.87
5056.00,0.87
5055.00,0.87
5054.00,0.87
5053.00,0.88
5052.00,0.88
5051.00,0.88
5050.00,0.88
5049.00,0.88
5048.00,0.89
5047.00,0.89
5046.00,0.89
5045.00,0.89
5044.00,0.89
5043.00,0.90
5042.00,0.90
5041.00,0.90
5040.00,0.90
5039.00,0.90
5038.00,0.91
5037.00,0.91
5036.00,0.91
5035.00,0.91
5034.00,0.92
5033.00,0.92
5032.00,0.92
5031.00,0.92
5030.00,0.92
5029.00,0.93
5028.00,0.93
5027.00,0.93
5026.00,0.93
5025.00,0.93
5024.00,0.93
5023.00,0.94
5022.00,0.94
5021.00,0.94
5020.00,0.94
5019.00,0.94
5018.00,0.95
5017.00,0.95
5016.00,0.95
5015.00,0.96
5014.00,0.96
5013.00,0.96
5012.00,0.96
5011.00,0.97
5010.00,0.97
5009.00,0.97
5008.00,0.98
5007.00,0.98
5006.00,0.98
5005.00,0.98
5004.00,0.99
5003.00,0.99
5002.00,0.99
5001.00,1.00
5000.00,1.00
4999.00,1.00
4998.00,1.01
4997.00,1.01
4996.00,1.01
4995.00,1.02
4994.00,1.02
4993.00,1.02
4992.00,1.03
4991.00,1.03
4990.00,1.03
4989.00,1.03
4988.00,1.04
4987.00,1.04
4986.00,1.04
4985.00,1.04
4984.00,1.04
4983.00,1.05
4982.00,1.05
4981.00,1.05
4980.00,1.05
4979.00,1.05
4978.00,1.05
4977.00,1.06
4976.00,1.06
4975.00,1.06
4974.00,1.06
4973.00,1.06
4972.00,1.06
4971.00,1.06
4970.00,1.06
4969.00,1.07
4968.00,1.07
4967.00,1.07
4966.00,1.07
4965.00,1.07
4964.00,1.07
4963.00,1.07
4962.00,1.07
4961.00,1.08
4960.00,1.08
4959.00,1.08
4958.00,1.08
4957.00,1.08
4956.00,1.08
4955.00,1.08
4954.00,1.08
4953.00,1.08
4952.00,1.09
4951.00,1.09
4950.00,1.09
4949.00,1.09
4948.00,1.09
4947.00,1.09
4946.00,1.10
4945.00,1.10
4944.00,1.10
4943.00,1.10
4942.00,1.10
4941.00,1.10
4940.00,1.11
4939.00,1.11
4938.00,1.11
4937.00,1.11
4936.00,1.12
4935.00,1.12
4934.00,1.12
4933.00,1.12
4932.00,1.13
4931.00,1.13
4930.00,1.13
4929.00,1.13
4928.00,1.14
4927.00,1.14
4926.00,1.14
4925.00,1.14
4924.00,1.15
4923.00,1.15
4922.00,1.15
4921.00,1.15
4920.00,1.16
4919.00,1.16
4918.00,1.16
4917.00,1.16
4916.00,1.16
4915.00,1.16
4914.00,1.16
4913.00,1.17
4912.00,1.17
4911.00,1.17
4910.00,1.17
4909.00,1.17
4908.00,1.17
4907.00,1.17
4906.00,1.17
4905.00,1.17
4904.00,1.18
4903.00,1.18
4902.00,1.18
4901.00,1.18
4900.00,1.18
4899.00,1.18
4898.00,1.19
4897.00,1.19
4896.00,1.19
4895.00,1.19
4894.00,1.19
4893.00,1.20
4892.00,1.20
4891.00,1.20
4890.00,1.20
4889.00,1.21
4888.00,1.21
4887.00,1.21
4886.00,1.22
4885.00,1.22
4884.00,1.22
4883.00,1.22
4882.00,1.23
4881.00,1.23
4880.00,1.23
4879.00,1.23
4878.00,1.24
4877.00,1.24
4876.00,1.24
4875.00,1.24
4874.00,1.24
4873.00,1.25
4872.00,1.25
4871.00,1.25
4870.00,1.25
4869.00,1.25
4868.00,1.25
4867.00,1.26
4866.00,1.26
4865.00,1.26
4864.00,1.26
4863.00,1.26
4862.00,1.26
4861.00,1.26
4860.00,1.26
4859.00,1.27
4858.00,1.27
4857.00,1.27
4856.00,1.27
4855.00,1.27
4854.00,1.27
4853.00,1.27
4852.00,1.27
4851.00,1.27
4850.00,1.28
4849.00,1.28
4848.00,1.28
4847.00,1.28
4846.00,1.28
4845.00,1.28
4844.00,1.28
4843.00,1.28
4842.00,1.28
4841.00,1.28
4840.00,1.28
4839.00,1.28
4838.00,1.28
4837.00,1.28
4836.00,1.28
4835.00,1.28
4834.00,1.29
4833.00,1.29
4832.00,1.29
4831.00,1.29
4830.00,1.29
4829.00,1.29
4828.00,1.29
4827.00,1.30
4826.00,1.30
4825.00,1.30
4824.00,1.30
4823.00,1.30
4822.00,1.30
4821.00,1.30
4820.00,1.31
4819.00,1.31
4818.00,1.31
4817.00,1.31
4816.00,1.32
4815.00,1.32
4814.00,1.32
4813.00,1.33
4812.00,1.33
4811.00,1.33
4810.00,1.33
4809.00,1.34
4808.00,1.34
4807.00,1.34
4806.00,1.35
4805.00,1.35
4804.00,1.35
4803.00,1.35
4802.00,1.36
4801.00,1.36
4800.00,1.36
4799.00,1.37
4798.00,1.37
4797.00,1.37
4796.00,1.38
4795.00,1.38
4794.00,1.38
4793.00,1.38
4792.00,1.39
4791.00,1.39
4790.00,1.39
4789.00,1.39
4788.00,1.40
4787.00,1.40
4786.00,1.40
4785.00,1.40
4784.00,1.41
4783.00,1.41
4782.00,1.41
4781.00,1.41
4780.00,1.41
4779.00,1.42
4778.00,1.42
4777.00,1.42
4776.00,1.42
4775.00,1.43
4774.00,1.43
4773.00,1.43
4772.00,1.43
4771.00,1.43
4770.00,1.44
4769.00,1.44
4768.00,1.44
4767.00,1.44
4766.00,1.44
4765.00,1.45
4764.00,1.45
4763.00,1.45
4762.00,1.45
4761.00,1.45
4760.00,1.45
4759.00,1.46
4758.00,1.46
4757.00,1.46
4756.00,1.46
4755.00,1.46
4754.00,1.47
4753.00,1.47
4752.00,1.47
4751.00,1.47
4750.00,1.47
4749.00,1.48
4748.00,1.48
4747.00,1.48
4746.00,1.48
4745.00,1.48
4744.00,1.49
4743.00,1.49
4742.00,1.49
4741.00,1.49
4740.00,1.49
4739.00,1.49
4738.00,1.49
4737.00,1.49
4736.00,1.50
4735.00,1.50
4734.00,1.50
4733.00,1.50
4732.00,1.50
4731.00,1.50
4730.00,1.51
4729.00,1.51
4728.00,1.51
4727.00,1.51
4726.00,1.51
4725.00,1.51
4724.00,1.52
4723.00,1.52
4722.00,1.52
4721.00,1.52
4720.00,1.52
4719.00,1.52
4718.00,1.53
4717.00,1.53
4716.00,1.53
4715.00,1.53
4714.00,1.54
4713.00,1.54
4712.00,1.54
4711.00,1.54
4710.00,1.55
4709.00,1.55
4708.00,1.55
4707.00,1.56
4706.00,1.56
4705.00,1.56
4704.00,1.57
4703.00,1.57
4702.00,1.57
4701.00,1.57
4700.00,1.57
4699.00,1.58
4698.00,1.58
4697.00,1.58
4696.00,1.58
4695.00,1.59
4694.00,1.59
4693.00,1.59
4692.00,1.59
4691.00,1.59
4690.00,1.59
4689.00,1.60
4688.00,1.60
4687.00,1.60
4686.00,1.60
4685.00,1.60
4684.00,1.60
4683.00,1.60
4682.00,1.60
4681.00,1.60
4680.00,1.60
4679.00,1.61
4678.00,1.61
4677.00,1.61
4676.00,1.61
4675.00,1.61
4674.00,1.61
4673.00,1.61
4672.00,1.61
4671.00,1.61
4670.00,1.61
4669.00,1.61
4668.00,1.62
4667.00,1.62
4666.00,1.62
4665.00,1.62
4664.00,1.62
4663.00,1.62
4662.00,1.62
4661.00,1.62
4660.00,1.62
4659.00,1.63
4658.00,1.63
4657.00,1.63
4656.00,1.63
4655.00,1.63
4654.00,1.64
4653.00,1.64
4652.00,1.64
4651.00,1.64
4650.00,1.65
4649.00,1.65
4648.00,1.65
4647.00,1.65
4646.00,1.66
4645.00,1.66
4644.00,1.66
4643.00,1.66
4642.00,1.66
4641.00,1.67
4640.00,1.67
4639.00,1.67
4638.00,1.67
4637.00,1.67
4636.00,1.67
4635.00,1.68
4634.00,1.68
4633.00,1.68
4632.00,1.68
4631.00,1.68
4630.00,1.68
4629.00,1.68
4628.00,1.68
4627.00,1.68
4626.00,1.68
4625.00,1.68
4624.00,1.68
4623.00,1.68
4622.00,1.68
4621.00,1.68
4620.00,1.68
4619.00,1.68
4618.00,1.68
4617.00,1.68
4616.00,1.68
4615.00,1.68
4614.00,1.68
4613.00,1.68
4612.00,1.68
4611.00,1.68
4610.00,1.68
4609.00,1.68
4608.00,1.68
4607.00,1.68
4606.00,1.67
4605.00,1.67
4604.00,1.67
4603.00,1.67
4602.00,1.67
4601.00,1.67
4600.00,1.67
4599.00,1.67
4598.00,1.66
4597.00,1.66
4596.00,1.66
4595.00,1.66
4594.00,1.66
4593.00,1.66
4592.00,1.65
4591.00,1.65
4590.00,1.65
4589.00,1.65
4588.00,1.65
4587.00,1.65
4586.00,1.65
4585.00,1.65
4584.00,1.64
4583.00,1.64
4582.00,1.64
4581.00,1.64
4580.00,1.64
4579.00,1.64
4578.00,1.64
4577.00,1.65
4576.00,1.65
4575.00,1.65
4574.00,1.65
4573.00,1.65
4572.00,1.65
4571.00,1.66
4570.00,1.66
4569.00,1.66
4568.00,1.66
4567.00,1.67
4566.00,1.67
4565.00,1.67
4564.00,1.67
4563.00,1.67
4562.00,1.68
4561.00,1.68
4560.00,1.68
4559.00,1.68
4558.00,1.68
4557.00,1.68
4556.00,1.68
4555.00,1.68
4554.00,1.68
4553.00,1.68
4552.00,1.68
4551.00,1.68
4550.00,1.68
4549.00,1.68
4548.00,1.68
4547.00,1.68
4546.00,1.68
4545.00,1.68
4544.00,1.68
4543.00,1.68
4542.00,1.68
4541.00,1.68
4540.00,1.68
4539.00,1.68
4538.00,1.68
4537.00,1.68
4536.00,1.68
4535.00,1.68
4534.00,1.68
4533.00,1.68
4532.00,1.68
4531.00,1.68
4530.00,1.67
4529.00,1.67
4528.00,1.67
4527.00,1.67
4526.00,1.67
4525.00,1.67
4524.00,1.67
4523.00,1.67
4522.00,1.67
4521.00,1.68
4520.00,1.68
4519.00,1.68
4518.00,1.68
4517.00,1.68
4516.00,1.68
4515.00,1.68
4514.00,1.68
4513.00,1.68
4512.00,1.68
4511.00,1.68
4510.00,1.68
4509.00,1.68
4508.00,1.68
4507.00,1.68
4506.00,1.68
4505.00,1.68
4504.00,1.68
4503.00,1.68
4502.00,1.68
4501.00,1.68
4500.00,1.68
4499.00,1.68
4498.00,1.68
4497.00,1.69
4496.00,1.69
4495.00,1.69
4494.00,1.69
4493.00,1.69
4492.00,1.69
4491.00,1.69
4490.00,1.69
4489.00,1.69
4488.00,1.69
4487.00,1.69
4486.00,1.69
4485.00,1.69
4484.00,1.69
4483.00,1.69
4482.00,1.69
4481.00,1.69
4480.00,1.69
4479.00,1.69
4478.00,1.68
4477.00,1.68
4476.00,1.68
4475.00,1.68
4474.00,1.68
4473.00,1.68
4472.00,1.67
4471.00,1.67
4470.00,1.67
4469.00,1.67
4468.00,1.67
4467.00,1.67
4466.00,1.66
4465.00,1.66
4464.00,1.66
4463.00,1.66
4462.00,1.66
4461.00,1.65
4460.00,1.65
4459.00,1.65
4458.00,1.65
4457.00,1.64
4456.00,1.64
4455.00,1.64
4454.00,1.63
4453.00,1.63
4452.00,1.63
4451.00,1.62
4450.00,1.62
4449.00,1.61
4448.00,1.61
4447.00,1.60
4446.00,1.60
4445.00,1.59
4444.00,1.58
4443.00,1.58
4442.00,1.57
4441.00,1.56
4440.00,1.55
4439.00,1.54
4438.00,1.54
4437.00,1.53
4436.00,1.52
4435.00,1.51
4434.00,1.50
4433.00,1.50
4432.00,1.49
4431.00,1.48
4430.00,1.47
4429.00,1.47
4428.00,1.46
4427.00,1.45
4426.00,1.45
4425.00,1.44
4424.00,1.44
4423.00,1.43
4422.00,1.43
4421.00,1.43
4420.00,1.42
4419.00,1.42
4418.00,1.42
4417.00,1.42
4416.00,1.41
4415.00,1.41
4414.00,1.41
4413.00,1.42
4412.00,1.42
4411.00,1.42
4410.00,1.42
4409.00,1.42
4408.00,1.42
4407.00,1.43
4406.00,1.43
4405.00,1.43
4404.00,1.43
4403.00,1.44
4402.00,1.44
4401.00,1.44
4400.00,1.45
4399.00,1.45
4398.00,1.45
4397.00,1.46
4396.00,1.46
4395.00,1.47
4394.00,1.47
4393.00,1.48
4392.00,1.48
4391.00,1.49
4390.00,1.49
4389.00,1.49
4388.00,1.50
4387.00,1.50
4386.00,1.51
4385.00,1.51
4384.00,1.51
4383.00,1.52
4382.00,1.52
4381.00,1.52
4380.00,1.52
4379.00,1.53
4378.00,1.53
4377.00,1.53
4376.00,1.53
4375.00,1.53
4374.00,1.53
4373.00,1.53
4372.00,1.53
4371.00,1.53
4370.00,1.53
4369.00,1.52
4368.00,1.52
4367.00,1.52
4366.00,1.52
4365.00,1.52
4364.00,1.51
4363.00,1.51
4362.00,1.51
4361.00,1.50
4360.00,1.50
4359.00,1.49
4358.00,1.49
4357.00,1.49
4356.00,1.48
4355.00,1.48
4354.00,1.48
4353.00,1.47
4352.00,1.47
4351.00,1.47
4350.00,1.47
4349.00,1.47
4348.00,1.47
4347.00,1.47
4346.00,1.46
4345.00,1.46
4344.00,1.46
4343.00,1.46
4342.00,1.46
4341.00,1.47
4340.00,1.47
4339.00,1.47
4338.00,1.47
4337.00,1.48
4336.00,1.48
4335.00,1.49
4334.00,1.49
4333.00,1.50
4332.00,1.50
4331.00,1.51
4330.00,1.51
4329.00,1.52
4328.00,1.53
4327.00,1.53
4326.00,1.54
4325.00,1.55
4324.00,1.55
4323.00,1.56
4322.00,1.57
4321.00,1.57
4320.00,1.58
4319.00,1.59
4318.00,1.59
4317.00,1.60
4316.00,1.61
4315.00,1.61
4314.00,1.62
4313.00,1.62
4312.00,1.63
4311.00,1.63
4310.00,1.64
4309.00,1.64
4308.00,1.64
4307.00,1.65
4306.00,1.65
4305.00,1.65
4304.00,1.65
4303.00,1.66
4302.00,1.66
4301.00,1.66
4300.00,1.66
4299.00,1.66
4298.00,1.66
4297.00,1.66
4296.00,1.67
4295.00,1.67
4294.00,1.67
4293.00,1.67
4292.00,1.67
4291.00,1.67
4290.00,1.67
4289.00,1.67
4288.00,1.68
4287.00,1.68
4286.00,1.68
4285.00,1.68
4284.00,1.68
4283.00,1.68
4282.00,1.68
4281.00,1.68
4280.00,1.68
4279.00,1.68
4278.00,1.68
4277.00,1.68
4276.00,1.67
4275.00,1.67
4274.00,1.67
4273.00,1.67
4272.00,1.67
4271.00,1.66
4270.00,1.66
4269.00,1.66
4268.00,1.65
4267.00,1.65
4266.00,1.64
4265.00,1.64
4264.00,1.64
4263.00,1.63
4262.00,1.63
4261.00,1.63
4260.00,1.62
4259.00,1.62
4258.00,1.62
4257.00,1.61
4256.00,1.61
4255.00,1.61
4254.00,1.61
4253.00,1.61
4252.00,1.61
4251.00,1.61
4250.00,1.61
4249.00,1.61
4248.00,1.61
4247.00,1.61
4246.00,1.61
4245.00,1.62
4244.00,1.62
4243.00,1.62
4242.00,1.62
4241.00,1.62
4240.00,1.63
4239.00,1.63
4238.00,1.63
4237.00,1.63
4236.00,1.63
4235.00,1.63
4234.00,1.63
4233.00,1.63
4232.00,1.63
4231.00,1.63
4230.00,1.63
4229.00,1.63
4228.00,1.63
4227.00,1.63
4226.00,1.63
4225.00,1.63
4224.00,1.63
4223.00,1.63
4222.00,1.63
4221.00,1.63
4220.00,1.63
4219.00,1.63
4218.00,1.63
4217.00,1.63
4216.00,1.63
4215.00,1.63
4214.00,1.63
4213.00,1.63
4212.00,1.63
4211.00,1.63
4210.00,1.63
4209.00,1.63
4208.00,1.63
4207.00,1.63
4206.00,1.64
4205.00,1.64
4204.00,1.64
4203.00,1.64
4202.00,1.64
4201.00,1.64
4200.00,1.64
4199.00,1.65
4198.00,1.65
4197.00,1.65
4196.00,1.64
4195.00,1.64
4194.00,1.64
4193.00,1.64
4192.00,1.64
4191.00,1.64
4190.00,1.64
4189.00,1.64
4188.00,1.64
4187.00,1.64
4186.00,1.63
4185.00,1.63
4184.00,1.63
4183.00,1.63
4182.00,1.63
4181.00,1.63
4180.00,1.63
4179.00,1.63
4178.00,1.62
4177.00,1.62
4176.00,1.62
4175.00,1.62
4174.00,1.61
4173.00,1.61
4172.00,1.61
4171.00,1.61
4170.00,1.61
4169.00,1.61
4168.00,1.61
4167.00,1.61
4166.00,1.61
4165.00,1.62
4164.00,1.62
4163.00,1.62
4162.00,1.62
4161.00,1.62
4160.00,1.62
4159.00,1.62
4158.00,1.62
4157.00,1.62
4156.00,1.63
4155.00,1.63
4154.00,1.63
4153.00,1.63
4152.00,1.63
4151.00,1.63
4150.00,1.64
4149.00,1.64
4148.00,1.64
4147.00,1.65
4146.00,1.65
4145.00,1.65
4144.00,1.65
4143.00,1.65
4142.00,1.65
4141.00,1.65
4140.00,1.65
4139.00,1.65
4138.00,1.64
4137.00,1.64
4136.00,1.64
4135.00,1.64
4134.00,1.64
4133.00,1.63
4132.00,1.63
4131.00,1.63
4130.00,1.63
4129.00,1.62
4128.00,1.62
4127.00,1.62
4126.00,1.61
4125.00,1.61
4124.00,1.61
4123.00,1.60
4122.00,1.60
4121.00,1.60
4120.00,1.59
4119.00,1.59
4118.00,1.59
4117.00,1.59
4116.00,1.59
4115.00,1.59
4114.00,1.59
4113.00,1.59
4112.00,1.58
4111.00,1.58
4110.00,1.58
4109.00,1.59
4108.00,1.59
4107.00,1.59
4106.00,1.59
4105.00,1.59
4104.00,1.59
4103.00,1.59
4102.00,1.59
4101.00,1.59
4100.00,1.59
4099.00,1.59
4098.00,1.59
4097.00,1.59
4096.00,1.59
4095.00,1.59
4094.00,1.59
4093.00,1.59
4092.00,1.58
4091.00,1.58
4090.00,1.58
4089.00,1.58
4088.00,1.57
4087.00,1.57
4086.00,1.57
4085.00,1.57
4084.00,1.57
4083.00,1.57
4082.00,1.57
4081.00,1.57
4080.00,1.56
4079.00,1.56
4078.00,1.56
4077.00,1.56
4076.00,1.56
4075.00,1.56
4074.00,1.56
4073.00,1.56
4072.00,1.55
4071.00,1.55
4070.00,1.55
4069.00,1.55
4068.00,1.55
4067.00,1.55
4066.00,1.54
4065.00,1.54
4064.00,1.54
4063.00,1.54
4062.00,1.54
4061.00,1.54
4060.00,1.54
4059.00,1.53
4058.00,1.53
4057.00,1.53
4056.00,1.53
4055.00,1.52
4054.00,1.52
4053.00,1.51
4052.00,1.51
4051.00,1.51
4050.00,1.50
4049.00,1.50
4048.00,1.50
4047.00,1.50
4046.00,1.49
4045.00,1.49
4044.00,1.50
4043.00,1.50
4042.00,1.50
4041.00,1.50
4040.00,1.50
4039.00,1.50
4038.00,1.50
4037.00,1.50
4036.00,1.51
4035.00,1.51
4034.00,1.51
4033.00,1.51
4032.00,1.51
4031.00,1.51
4030.00,1.51
4029.00,1.51
4028.00,1.51
4027.00,1.52
4026.00,1.52
4025.00,1.52
4024.00,1.53
4023.00,1.53
4022.00,1.54
4021.00,1.54
4020.00,1.54
4019.00,1.55
4018.00,1.55
4017.00,1.56
4016.00,1.56
4015.00,1.57
4014.00,1.58
4013.00,1.58
4012.00,1.59
4011.00,1.60
4010.00,1.62
4009.00,1.63
4008.00,1.64
4007.00,1.66
4006.00,1.67
4005.00,1.69
4004.00,1.71
4003.00,1.72
4002.00,1.74
4001.00,1.75
4000.00,1.77
