创建为新数据集,样品 104 用户 Administrator 日期 星期五, 七月 26 2019
cm-1,%T
10000.00,1.04
9999.00,1.06
9998.00,1.09
9997.00,1.11
9996.00,1.14
9995.00,1.16
9994.00,1.19
9993.00,1.21
9992.00,1.23
9991.00,1.26
9990.00,1.28
9989.00,1.30
9988.00,1.32
9987.00,1.33
9986.00,1.35
9985.00,1.37
9984.00,1.38
9983.00,1.39
9982.00,1.41
9981.00,1.42
9980.00,1.43
9979.00,1.44
9978.00,1.45
9977.00,1.45
9976.00,1.46
9975.00,1.47
9974.00,1.47
9973.00,1.48
9972.00,1.48
9971.00,1.48
9970.00,1.49
9969.00,1.49
9968.00,1.49
9967.00,1.49
9966.00,1.49
9965.00,1.49
9964.00,1.49
9963.00,1.49
9962.00,1.49
9961.00,1.48
9960.00,1.48
9959.00,1.48
9958.00,1.48
9957.00,1.48
9956.00,1.47
9955.00,1.47
9954.00,1.47
9953.00,1.47
9952.00,1.46
9951.00,1.46
9950.00,1.45
9949.00,1.45
9948.00,1.45
9947.00,1.44
9946.00,1.44
9945.00,1.43
9944.00,1.43
9943.00,1.42
9942.00,1.42
9941.00,1.41
9940.00,1.41
9939.00,1.40
9938.00,1.40
9937.00,1.39
9936.00,1.39
9935.00,1.38
9934.00,1.38
9933.00,1.37
9932.00,1.37
9931.00,1.36
9930.00,1.36
9929.00,1.36
9928.00,1.35
9927.00,1.35
9926.00,1.35
9925.00,1.35
9924.00,1.35
9923.00,1.35
9922.00,1.35
9921.00,1.35
9920.00,1.35
9919.00,1.35
9918.00,1.35
9917.00,1.35
9916.00,1.35
9915.00,1.35
9914.00,1.35
9913.00,1.35
9912.00,1.36
9911.00,1.36
9910.00,1.36
9909.00,1.36
9908.00,1.36
9907.00,1.37
9906.00,1.37
9905.00,1.37
9904.00,1.38
9903.00,1.38
9902.00,1.38
9901.00,1.39
9900.00,1.39
9899.00,1.39
9898.00,1.39
9897.00,1.39
9896.00,1.40
9895.00,1.40
9894.00,1.40
9893.00,1.40
9892.00,1.40
9891.00,1.40
9890.00,1.40
9889.00,1.41
9888.00,1.41
9887.00,1.41
9886.00,1.42
9885.00,1.42
9884.00,1.43
9883.00,1.43
9882.00,1.43
9881.00,1.44
9880.00,1.44
9879.00,1.45
9878.00,1.45
9877.00,1.46
9876.00,1.46
9875.00,1.46
9874.00,1.47
9873.00,1.47
9872.00,1.48
9871.00,1.48
9870.00,1.48
9869.00,1.49
9868.00,1.49
9867.00,1.50
9866.00,1.50
9865.00,1.50
9864.00,1.50
9863.00,1.51
9862.00,1.51
9861.00,1.51
9860.00,1.51
9859.00,1.51
9858.00,1.51
9857.00,1.51
9856.00,1.51
9855.00,1.51
9854.00,1.50
9853.00,1.50
9852.00,1.50
9851.00,1.49
9850.00,1.49
9849.00,1.48
9848.00,1.48
9847.00,1.47
9846.00,1.46
9845.00,1.46
9844.00,1.45
9843.00,1.44
9842.00,1.43
9841.00,1.43
9840.00,1.42
9839.00,1.41
9838.00,1.40
9837.00,1.40
9836.00,1.39
9835.00,1.38
9834.00,1.37
9833.00,1.36
9832.00,1.36
9831.00,1.35
9830.00,1.34
9829.00,1.33
9828.00,1.32
9827.00,1.31
9826.00,1.31
9825.00,1.30
9824.00,1.30
9823.00,1.29
9822.00,1.29
9821.00,1.28
9820.00,1.28
9819.00,1.28
9818.00,1.28
9817.00,1.27
9816.00,1.27
9815.00,1.27
9814.00,1.27
9813.00,1.26
9812.00,1.26
9811.00,1.26
9810.00,1.26
9809.00,1.26
9808.00,1.26
9807.00,1.26
9806.00,1.26
9805.00,1.27
9804.00,1.27
9803.00,1.28
9802.00,1.28
9801.00,1.28
9800.00,1.29
9799.00,1.29
9798.00,1.29
9797.00,1.30
9796.00,1.30
9795.00,1.30
9794.00,1.30
9793.00,1.31
9792.00,1.31
9791.00,1.32
9790.00,1.32
9789.00,1.33
9788.00,1.33
9787.00,1.34
9786.00,1.34
9785.00,1.35
9784.00,1.35
9783.00,1.35
9782.00,1.35
9781.00,1.36
9780.00,1.36
9779.00,1.35
9778.00,1.35
9777.00,1.35
9776.00,1.35
9775.00,1.35
9774.00,1.34
9773.00,1.34
9772.00,1.34
9771.00,1.34
9770.00,1.34
9769.00,1.34
9768.00,1.34
9767.00,1.34
9766.00,1.34
9765.00,1.33
9764.00,1.33
9763.00,1.33
9762.00,1.33
9761.00,1.32
9760.00,1.32
9759.00,1.32
9758.00,1.32
9757.00,1.32
9756.00,1.32
9755.00,1.32
9754.00,1.33
9753.00,1.33
9752.00,1.33
9751.00,1.34
9750.00,1.34
9749.00,1.35
9748.00,1.35
9747.00,1.36
9746.00,1.36
9745.00,1.37
9744.00,1.37
9743.00,1.37
9742.00,1.38
9741.00,1.38
9740.00,1.38
9739.00,1.39
9738.00,1.39
9737.00,1.40
9736.00,1.40
9735.00,1.40
9734.00,1.41
9733.00,1.41
9732.00,1.41
9731.00,1.42
9730.00,1.42
9729.00,1.42
9728.00,1.42
9727.00,1.42
9726.00,1.42
9725.00,1.42
9724.00,1.42
9723.00,1.42
9722.00,1.42
9721.00,1.42
9720.00,1.42
9719.00,1.42
9718.00,1.42
9717.00,1.41
9716.00,1.41
9715.00,1.41
9714.00,1.41
9713.00,1.41
9712.00,1.40
9711.00,1.40
9710.00,1.40
9709.00,1.39
9708.00,1.39
9707.00,1.38
9706.00,1.38
9705.00,1.38
9704.00,1.37
9703.00,1.37
9702.00,1.37
9701.00,1.37
9700.00,1.36
9699.00,1.36
9698.00,1.36
9697.00,1.37
9696.00,1.37
9695.00,1.37
9694.00,1.37
9693.00,1.38
9692.00,1.38
9691.00,1.38
9690.00,1.39
9689.00,1.39
9688.00,1.40
9687.00,1.40
9686.00,1.41
9685.00,1.42
9684.00,1.42
9683.00,1.43
9682.00,1.43
9681.00,1.44
9680.00,1.45
9679.00,1.45
9678.00,1.46
9677.00,1.46
9676.00,1.47
9675.00,1.47
9674.00,1.47
9673.00,1.47
9672.00,1.47
9671.00,1.47
9670.00,1.47
9669.00,1.46
9668.00,1.46
9667.00,1.46
9666.00,1.45
9665.00,1.45
9664.00,1.44
9663.00,1.44
9662.00,1.43
9661.00,1.42
9660.00,1.42
9659.00,1.41
9658.00,1.41
9657.00,1.40
9656.00,1.40
9655.00,1.39
9654.00,1.39
9653.00,1.39
9652.00,1.38
9651.00,1.38
9650.00,1.38
9649.00,1.37
9648.00,1.37
9647.00,1.37
9646.00,1.37
9645.00,1.37
9644.00,1.38
9643.00,1.38
9642.00,1.38
9641.00,1.38
9640.00,1.38
9639.00,1.38
9638.00,1.38
9637.00,1.37
9636.00,1.37
9635.00,1.37
9634.00,1.37
9633.00,1.37
9632.00,1.36
9631.00,1.36
9630.00,1.36
9629.00,1.35
9628.00,1.35
9627.00,1.34
9626.00,1.34
9625.00,1.34
9624.00,1.33
9623.00,1.33
9622.00,1.32
9621.00,1.32
9620.00,1.31
9619.00,1.30
9618.00,1.30
9617.00,1.29
9616.00,1.28
9615.00,1.28
9614.00,1.28
9613.00,1.27
9612.00,1.27
9611.00,1.27
9610.00,1.27
9609.00,1.27
9608.00,1.27
9607.00,1.27
9606.00,1.27
9605.00,1.27
9604.00,1.27
9603.00,1.27
9602.00,1.28
9601.00,1.28
9600.00,1.28
9599.00,1.28
9598.00,1.29
9597.00,1.29
9596.00,1.29
9595.00,1.30
9594.00,1.30
9593.00,1.31
9592.00,1.32
9591.00,1.32
9590.00,1.33
9589.00,1.34
9588.00,1.34
9587.00,1.35
9586.00,1.35
9585.00,1.36
9584.00,1.36
9583.00,1.37
9582.00,1.37
9581.00,1.38
9580.00,1.38
9579.00,1.39
9578.00,1.39
9577.00,1.40
9576.00,1.40
9575.00,1.41
9574.00,1.41
9573.00,1.41
9572.00,1.42
9571.00,1.42
9570.00,1.42
9569.00,1.42
9568.00,1.42
9567.00,1.41
9566.00,1.41
9565.00,1.41
9564.00,1.40
9563.00,1.40
9562.00,1.39
9561.00,1.38
9560.00,1.38
9559.00,1.37
9558.00,1.36
9557.00,1.36
9556.00,1.35
9555.00,1.34
9554.00,1.33
9553.00,1.32
9552.00,1.31
9551.00,1.30
9550.00,1.30
9549.00,1.29
9548.00,1.28
9547.00,1.27
9546.00,1.27
9545.00,1.26
9544.00,1.26
9543.00,1.25
9542.00,1.25
9541.00,1.25
9540.00,1.25
9539.00,1.25
9538.00,1.24
9537.00,1.24
9536.00,1.24
9535.00,1.24
9534.00,1.24
9533.00,1.25
9532.00,1.25
9531.00,1.25
9530.00,1.25
9529.00,1.26
9528.00,1.26
9527.00,1.26
9526.00,1.27
9525.00,1.27
9524.00,1.27
9523.00,1.28
9522.00,1.28
9521.00,1.28
9520.00,1.28
9519.00,1.28
9518.00,1.28
9517.00,1.28
9516.00,1.28
9515.00,1.28
9514.00,1.28
9513.00,1.28
9512.00,1.28
9511.00,1.28
9510.00,1.28
9509.00,1.29
9508.00,1.29
9507.00,1.29
9506.00,1.29
9505.00,1.30
9504.00,1.30
9503.00,1.30
9502.00,1.30
9501.00,1.30
9500.00,1.31
9499.00,1.31
9498.00,1.31
9497.00,1.31
9496.00,1.32
9495.00,1.32
9494.00,1.32
9493.00,1.33
9492.00,1.33
9491.00,1.34
9490.00,1.34
9489.00,1.34
9488.00,1.34
9487.00,1.35
9486.00,1.35
9485.00,1.35
9484.00,1.35
9483.00,1.35
9482.00,1.34
9481.00,1.34
9480.00,1.34
9479.00,1.34
9478.00,1.34
9477.00,1.34
9476.00,1.34
9475.00,1.34
9474.00,1.34
9473.00,1.33
9472.00,1.33
9471.00,1.33
9470.00,1.33
9469.00,1.33
9468.00,1.33
9467.00,1.33
9466.00,1.33
9465.00,1.34
9464.00,1.34
9463.00,1.34
9462.00,1.34
9461.00,1.35
9460.00,1.35
9459.00,1.36
9458.00,1.36
9457.00,1.36
9456.00,1.37
9455.00,1.37
9454.00,1.38
9453.00,1.38
9452.00,1.39
9451.00,1.39
9450.00,1.39
9449.00,1.39
9448.00,1.39
9447.00,1.40
9446.00,1.40
9445.00,1.40
9444.00,1.40
9443.00,1.40
9442.00,1.40
9441.00,1.40
9440.00,1.40
9439.00,1.39
9438.00,1.39
9437.00,1.39
9436.00,1.39
9435.00,1.38
9434.00,1.38
9433.00,1.38
9432.00,1.37
9431.00,1.37
9430.00,1.37
9429.00,1.36
9428.00,1.36
9427.00,1.36
9426.00,1.35
9425.00,1.35
9424.00,1.35
9423.00,1.35
9422.00,1.35
9421.00,1.35
9420.00,1.34
9419.00,1.34
9418.00,1.34
9417.00,1.34
9416.00,1.34
9415.00,1.34
9414.00,1.34
9413.00,1.33
9412.00,1.33
9411.00,1.33
9410.00,1.33
9409.00,1.33
9408.00,1.33
9407.00,1.33
9406.00,1.33
9405.00,1.33
9404.00,1.33
9403.00,1.33
9402.00,1.33
9401.00,1.33
9400.00,1.34
9399.00,1.34
9398.00,1.34
9397.00,1.34
9396.00,1.35
9395.00,1.35
9394.00,1.35
9393.00,1.36
9392.00,1.36
9391.00,1.37
9390.00,1.37
9389.00,1.37
9388.00,1.38
9387.00,1.38
9386.00,1.39
9385.00,1.39
9384.00,1.39
9383.00,1.40
9382.00,1.40
9381.00,1.41
9380.00,1.41
9379.00,1.41
9378.00,1.42
9377.00,1.42
9376.00,1.42
9375.00,1.43
9374.00,1.43
9373.00,1.43
9372.00,1.43
9371.00,1.43
9370.00,1.43
9369.00,1.43
9368.00,1.43
9367.00,1.43
9366.00,1.42
9365.00,1.42
9364.00,1.42
9363.00,1.42
9362.00,1.42
9361.00,1.42
9360.00,1.42
9359.00,1.42
9358.00,1.42
9357.00,1.42
9356.00,1.41
9355.00,1.41
9354.00,1.41
9353.00,1.41
9352.00,1.40
9351.00,1.40
9350.00,1.40
9349.00,1.39
9348.00,1.39
9347.00,1.39
9346.00,1.38
9345.00,1.38
9344.00,1.38
9343.00,1.37
9342.00,1.37
9341.00,1.37
9340.00,1.37
9339.00,1.36
9338.00,1.36
9337.00,1.36
9336.00,1.36
9335.00,1.35
9334.00,1.35
9333.00,1.35
9332.00,1.35
9331.00,1.34
9330.00,1.34
9329.00,1.34
9328.00,1.34
9327.00,1.34
9326.00,1.34
9325.00,1.34
9324.00,1.34
9323.00,1.35
9322.00,1.35
9321.00,1.35
9320.00,1.35
9319.00,1.36
9318.00,1.36
9317.00,1.36
9316.00,1.36
9315.00,1.36
9314.00,1.37
9313.00,1.37
9312.00,1.37
9311.00,1.37
9310.00,1.37
9309.00,1.37
9308.00,1.38
9307.00,1.38
9306.00,1.38
9305.00,1.38
9304.00,1.39
9303.00,1.39
9302.00,1.39
9301.00,1.39
9300.00,1.40
9299.00,1.40
9298.00,1.40
9297.00,1.40
9296.00,1.40
9295.00,1.40
9294.00,1.40
9293.00,1.41
9292.00,1.41
9291.00,1.41
9290.00,1.42
9289.00,1.42
9288.00,1.42
9287.00,1.43
9286.00,1.43
9285.00,1.43
9284.00,1.44
9283.00,1.44
9282.00,1.44
9281.00,1.44
9280.00,1.44
9279.00,1.44
9278.00,1.43
9277.00,1.43
9276.00,1.43
9275.00,1.43
9274.00,1.43
9273.00,1.42
9272.00,1.42
9271.00,1.42
9270.00,1.42
9269.00,1.42
9268.00,1.42
9267.00,1.41
9266.00,1.41
9265.00,1.41
9264.00,1.41
9263.00,1.41
9262.00,1.41
9261.00,1.40
9260.00,1.40
9259.00,1.40
9258.00,1.40
9257.00,1.40
9256.00,1.39
9255.00,1.39
9254.00,1.39
9253.00,1.39
9252.00,1.39
9251.00,1.39
9250.00,1.39
9249.00,1.39
9248.00,1.39
9247.00,1.39
9246.00,1.39
9245.00,1.39
9244.00,1.39
9243.00,1.38
9242.00,1.38
9241.00,1.38
9240.00,1.38
9239.00,1.37
9238.00,1.37
9237.00,1.36
9236.00,1.36
9235.00,1.35
9234.00,1.35
9233.00,1.35
9232.00,1.34
9231.00,1.34
9230.00,1.33
9229.00,1.33
9228.00,1.33
9227.00,1.33
9226.00,1.32
9225.00,1.32
9224.00,1.32
9223.00,1.32
9222.00,1.32
9221.00,1.32
9220.00,1.32
9219.00,1.32
9218.00,1.32
9217.00,1.32
9216.00,1.33
9215.00,1.33
9214.00,1.33
9213.00,1.34
9212.00,1.34
9211.00,1.35
9210.00,1.35
9209.00,1.36
9208.00,1.36
9207.00,1.37
9206.00,1.38
9205.00,1.38
9204.00,1.39
9203.00,1.39
9202.00,1.40
9201.00,1.40
9200.00,1.41
9199.00,1.41
9198.00,1.42
9197.00,1.42
9196.00,1.42
9195.00,1.42
9194.00,1.42
9193.00,1.42
9192.00,1.43
9191.00,1.42
9190.00,1.42
9189.00,1.42
9188.00,1.42
9187.00,1.42
9186.00,1.42
9185.00,1.41
9184.00,1.41
9183.00,1.41
9182.00,1.41
9181.00,1.41
9180.00,1.40
9179.00,1.40
9178.00,1.40
9177.00,1.40
9176.00,1.40
9175.00,1.40
9174.00,1.39
9173.00,1.39
9172.00,1.39
9171.00,1.39
9170.00,1.39
9169.00,1.38
9168.00,1.38
9167.00,1.38
9166.00,1.38
9165.00,1.38
9164.00,1.37
9163.00,1.37
9162.00,1.37
9161.00,1.37
9160.00,1.37
9159.00,1.37
9158.00,1.37
9157.00,1.37
9156.00,1.36
9155.00,1.36
9154.00,1.36
9153.00,1.36
9152.00,1.36
9151.00,1.36
9150.00,1.36
9149.00,1.36
9148.00,1.35
9147.00,1.35
9146.00,1.35
9145.00,1.35
9144.00,1.35
9143.00,1.35
9142.00,1.35
9141.00,1.35
9140.00,1.36
9139.00,1.36
9138.00,1.36
9137.00,1.36
9136.00,1.37
9135.00,1.37
9134.00,1.37
9133.00,1.38
9132.00,1.38
9131.00,1.38
9130.00,1.38
9129.00,1.38
9128.00,1.38
9127.00,1.38
9126.00,1.38
9125.00,1.38
9124.00,1.38
9123.00,1.38
9122.00,1.38
9121.00,1.38
9120.00,1.38
9119.00,1.39
9118.00,1.39
9117.00,1.39
9116.00,1.39
9115.00,1.40
9114.00,1.40
9113.00,1.40
9112.00,1.40
9111.00,1.40
9110.00,1.41
9109.00,1.41
9108.00,1.41
9107.00,1.41
9106.00,1.41
9105.00,1.41
9104.00,1.41
9103.00,1.41
9102.00,1.41
9101.00,1.42
9100.00,1.42
9099.00,1.42
9098.00,1.43
9097.00,1.43
9096.00,1.43
9095.00,1.44
9094.00,1.44
9093.00,1.44
9092.00,1.45
9091.00,1.45
9090.00,1.45
9089.00,1.45
9088.00,1.45
9087.00,1.44
9086.00,1.44
9085.00,1.44
9084.00,1.44
9083.00,1.44
9082.00,1.44
9081.00,1.44
9080.00,1.44
9079.00,1.44
9078.00,1.44
9077.00,1.44
9076.00,1.45
9075.00,1.45
9074.00,1.45
9073.00,1.45
9072.00,1.45
9071.00,1.46
9070.00,1.46
9069.00,1.46
9068.00,1.46
9067.00,1.46
9066.00,1.46
9065.00,1.46
9064.00,1.46
9063.00,1.46
9062.00,1.46
9061.00,1.46
9060.00,1.46
9059.00,1.46
9058.00,1.47
9057.00,1.47
9056.00,1.47
9055.00,1.47
9054.00,1.47
9053.00,1.47
9052.00,1.47
9051.00,1.47
9050.00,1.46
9049.00,1.46
9048.00,1.46
9047.00,1.45
9046.00,1.45
9045.00,1.44
9044.00,1.44
9043.00,1.43
9042.00,1.43
9041.00,1.42
9040.00,1.42
9039.00,1.41
9038.00,1.41
9037.00,1.41
9036.00,1.40
9035.00,1.40
9034.00,1.39
9033.00,1.39
9032.00,1.38
9031.00,1.38
9030.00,1.37
9029.00,1.37
9028.00,1.36
9027.00,1.36
9026.00,1.35
9025.00,1.35
9024.00,1.35
9023.00,1.34
9022.00,1.34
9021.00,1.34
9020.00,1.33
9019.00,1.33
9018.00,1.33
9017.00,1.33
9016.00,1.33
9015.00,1.33
9014.00,1.33
9013.00,1.33
9012.00,1.33
9011.00,1.33
9010.00,1.33
9009.00,1.33
9008.00,1.33
9007.00,1.33
9006.00,1.33
9005.00,1.33
9004.00,1.32
9003.00,1.32
9002.00,1.32
9001.00,1.32
9000.00,1.32
8999.00,1.32
8998.00,1.32
8997.00,1.32
8996.00,1.32
8995.00,1.32
8994.00,1.31
8993.00,1.31
8992.00,1.31
8991.00,1.31
8990.00,1.31
8989.00,1.31
8988.00,1.31
8987.00,1.31
8986.00,1.30
8985.00,1.30
8984.00,1.30
8983.00,1.30
8982.00,1.30
8981.00,1.29
8980.00,1.29
8979.00,1.29
8978.00,1.28
8977.00,1.28
8976.00,1.28
8975.00,1.28
8974.00,1.27
8973.00,1.27
8972.00,1.27
8971.00,1.27
8970.00,1.27
8969.00,1.27
8968.00,1.26
8967.00,1.26
8966.00,1.26
8965.00,1.26
8964.00,1.25
8963.00,1.25
8962.00,1.24
8961.00,1.23
8960.00,1.23
8959.00,1.22
8958.00,1.22
8957.00,1.21
8956.00,1.21
8955.00,1.21
8954.00,1.20
8953.00,1.20
8952.00,1.20
8951.00,1.20
8950.00,1.20
8949.00,1.20
8948.00,1.20
8947.00,1.20
8946.00,1.20
8945.00,1.20
8944.00,1.20
8943.00,1.20
8942.00,1.20
8941.00,1.20
8940.00,1.20
8939.00,1.20
8938.00,1.20
8937.00,1.20
8936.00,1.21
8935.00,1.21
8934.00,1.22
8933.00,1.22
8932.00,1.23
8931.00,1.24
8930.00,1.25
8929.00,1.25
8928.00,1.26
8927.00,1.27
8926.00,1.28
8925.00,1.28
8924.00,1.29
8923.00,1.30
8922.00,1.30
8921.00,1.31
8920.00,1.32
8919.00,1.32
8918.00,1.33
8917.00,1.34
8916.00,1.34
8915.00,1.35
8914.00,1.36
8913.00,1.36
8912.00,1.37
8911.00,1.37
8910.00,1.38
8909.00,1.38
8908.00,1.38
8907.00,1.39
8906.00,1.39
8905.00,1.39
8904.00,1.38
8903.00,1.38
8902.00,1.38
8901.00,1.38
8900.00,1.37
8899.00,1.37
8898.00,1.37
8897.00,1.36
8896.00,1.36
8895.00,1.36
8894.00,1.35
8893.00,1.35
8892.00,1.35
8891.00,1.34
8890.00,1.34
8889.00,1.34
8888.00,1.33
8887.00,1.33
8886.00,1.32
8885.00,1.32
8884.00,1.32
8883.00,1.32
8882.00,1.32
8881.00,1.32
8880.00,1.32
8879.00,1.32
8878.00,1.32
8877.00,1.32
8876.00,1.33
8875.00,1.33
8874.00,1.33
8873.00,1.34
8872.00,1.34
8871.00,1.35
8870.00,1.35
8869.00,1.35
8868.00,1.36
8867.00,1.36
8866.00,1.37
8865.00,1.37
8864.00,1.37
8863.00,1.38
8862.00,1.38
8861.00,1.38
8860.00,1.39
8859.00,1.39
8858.00,1.39
8857.00,1.39
8856.00,1.40
8855.00,1.40
8854.00,1.40
8853.00,1.40
8852.00,1.40
8851.00,1.40
8850.00,1.40
8849.00,1.40
8848.00,1.40
8847.00,1.40
8846.00,1.40
8845.00,1.40
8844.00,1.39
8843.00,1.39
8842.00,1.39
8841.00,1.39
8840.00,1.39
8839.00,1.39
8838.00,1.39
8837.00,1.39
8836.00,1.39
8835.00,1.38
8834.00,1.38
8833.00,1.38
8832.00,1.38
8831.00,1.38
8830.00,1.38
8829.00,1.37
8828.00,1.37
8827.00,1.37
8826.00,1.37
8825.00,1.36
8824.00,1.36
8823.00,1.36
8822.00,1.36
8821.00,1.35
8820.00,1.35
8819.00,1.35
8818.00,1.35
8817.00,1.35
8816.00,1.35
8815.00,1.34
8814.00,1.34
8813.00,1.34
8812.00,1.34
8811.00,1.34
8810.00,1.34
8809.00,1.34
8808.00,1.34
8807.00,1.34
8806.00,1.35
8805.00,1.35
8804.00,1.35
8803.00,1.35
8802.00,1.36
8801.00,1.36
8800.00,1.36
8799.00,1.36
8798.00,1.36
8797.00,1.37
8796.00,1.37
8795.00,1.37
8794.00,1.37
8793.00,1.37
8792.00,1.37
8791.00,1.37
8790.00,1.37
8789.00,1.38
8788.00,1.38
8787.00,1.38
8786.00,1.38
8785.00,1.38
8784.00,1.38
8783.00,1.39
8782.00,1.39
8781.00,1.38
8780.00,1.38
8779.00,1.38
8778.00,1.38
8777.00,1.38
8776.00,1.37
8775.00,1.37
8774.00,1.37
8773.00,1.37
8772.00,1.37
8771.00,1.36
8770.00,1.36
8769.00,1.36
8768.00,1.36
8767.00,1.36
8766.00,1.36
8765.00,1.36
8764.00,1.35
8763.00,1.35
8762.00,1.35
8761.00,1.34
8760.00,1.34
8759.00,1.34
8758.00,1.33
8757.00,1.33
8756.00,1.32
8755.00,1.32
8754.00,1.31
8753.00,1.31
8752.00,1.31
8751.00,1.31
8750.00,1.31
8749.00,1.31
8748.00,1.31
8747.00,1.30
8746.00,1.30
8745.00,1.30
8744.00,1.30
8743.00,1.30
8742.00,1.29
8741.00,1.29
8740.00,1.29
8739.00,1.29
8738.00,1.28
8737.00,1.28
8736.00,1.28
8735.00,1.28
8734.00,1.28
8733.00,1.28
8732.00,1.28
8731.00,1.28
8730.00,1.28
8729.00,1.28
8728.00,1.28
8727.00,1.28
8726.00,1.28
8725.00,1.28
8724.00,1.28
8723.00,1.28
8722.00,1.28
8721.00,1.28
8720.00,1.29
8719.00,1.29
8718.00,1.29
8717.00,1.30
8716.00,1.30
8715.00,1.31
8714.00,1.31
8713.00,1.32
8712.00,1.32
8711.00,1.33
8710.00,1.33
8709.00,1.34
8708.00,1.34
8707.00,1.35
8706.00,1.35
8705.00,1.36
8704.00,1.36
8703.00,1.37
8702.00,1.37
8701.00,1.38
8700.00,1.39
8699.00,1.39
8698.00,1.40
8697.00,1.41
8696.00,1.41
8695.00,1.42
8694.00,1.43
8693.00,1.43
8692.00,1.44
8691.00,1.44
8690.00,1.44
8689.00,1.44
8688.00,1.44
8687.00,1.44
8686.00,1.44
8685.00,1.45
8684.00,1.45
8683.00,1.45
8682.00,1.45
8681.00,1.45
8680.00,1.45
8679.00,1.45
8678.00,1.44
8677.00,1.44
8676.00,1.44
8675.00,1.44
8674.00,1.44
8673.00,1.43
8672.00,1.43
8671.00,1.43
8670.00,1.42
8669.00,1.42
8668.00,1.41
8667.00,1.41
8666.00,1.41
8665.00,1.40
8664.00,1.40
8663.00,1.40
8662.00,1.40
8661.00,1.39
8660.00,1.39
8659.00,1.39
8658.00,1.39
8657.00,1.38
8656.00,1.38
8655.00,1.38
8654.00,1.37
8653.00,1.37
8652.00,1.37
8651.00,1.36
8650.00,1.36
8649.00,1.36
8648.00,1.35
8647.00,1.35
8646.00,1.35
8645.00,1.35
8644.00,1.34
8643.00,1.34
8642.00,1.33
8641.00,1.33
8640.00,1.33
8639.00,1.32
8638.00,1.32
8637.00,1.32
8636.00,1.31
8635.00,1.31
8634.00,1.31
8633.00,1.31
8632.00,1.30
8631.00,1.30
8630.00,1.30
8629.00,1.30
8628.00,1.30
8627.00,1.30
8626.00,1.30
8625.00,1.30
8624.00,1.30
8623.00,1.30
8622.00,1.30
8621.00,1.30
8620.00,1.30
8619.00,1.30
8618.00,1.30
8617.00,1.31
8616.00,1.31
8615.00,1.31
8614.00,1.31
8613.00,1.31
8612.00,1.32
8611.00,1.32
8610.00,1.32
8609.00,1.32
8608.00,1.32
8607.00,1.32
8606.00,1.32
8605.00,1.32
8604.00,1.32
8603.00,1.32
8602.00,1.32
8601.00,1.32
8600.00,1.32
8599.00,1.32
8598.00,1.32
8597.00,1.33
8596.00,1.33
8595.00,1.33
8594.00,1.33
8593.00,1.33
8592.00,1.33
8591.00,1.33
8590.00,1.34
8589.00,1.34
8588.00,1.34
8587.00,1.34
8586.00,1.34
8585.00,1.34
8584.00,1.34
8583.00,1.34
8582.00,1.34
8581.00,1.34
8580.00,1.34
8579.00,1.34
8578.00,1.34
8577.00,1.34
8576.00,1.34
8575.00,1.34
8574.00,1.34
8573.00,1.33
8572.00,1.33
8571.00,1.33
8570.00,1.32
8569.00,1.32
8568.00,1.31
8567.00,1.31
8566.00,1.30
8565.00,1.30
8564.00,1.29
8563.00,1.29
8562.00,1.28
8561.00,1.28
8560.00,1.28
8559.00,1.27
8558.00,1.27
8557.00,1.26
8556.00,1.26
8555.00,1.26
8554.00,1.25
8553.00,1.25
8552.00,1.25
8551.00,1.24
8550.00,1.24
8549.00,1.24
8548.00,1.24
8547.00,1.24
8546.00,1.23
8545.00,1.23
8544.00,1.23
8543.00,1.23
8542.00,1.23
8541.00,1.23
8540.00,1.23
8539.00,1.24
8538.00,1.24
8537.00,1.24
8536.00,1.24
8535.00,1.24
8534.00,1.24
8533.00,1.24
8532.00,1.25
8531.00,1.25
8530.00,1.25
8529.00,1.25
8528.00,1.26
8527.00,1.26
8526.00,1.26
8525.00,1.27
8524.00,1.27
8523.00,1.28
8522.00,1.28
8521.00,1.28
8520.00,1.29
8519.00,1.29
8518.00,1.29
8517.00,1.30
8516.00,1.30
8515.00,1.30
8514.00,1.30
8513.00,1.30
8512.00,1.31
8511.00,1.31
8510.00,1.31
8509.00,1.31
8508.00,1.31
8507.00,1.31
8506.00,1.31
8505.00,1.31
8504.00,1.31
8503.00,1.30
8502.00,1.30
8501.00,1.30
8500.00,1.30
8499.00,1.29
8498.00,1.29
8497.00,1.28
8496.00,1.28
8495.00,1.27
8494.00,1.27
8493.00,1.26
8492.00,1.26
8491.00,1.25
8490.00,1.25
8489.00,1.25
8488.00,1.24
8487.00,1.24
8486.00,1.24
8485.00,1.23
8484.00,1.23
8483.00,1.23
8482.00,1.23
8481.00,1.23
8480.00,1.23
8479.00,1.23
8478.00,1.23
8477.00,1.23
8476.00,1.23
8475.00,1.24
8474.00,1.24
8473.00,1.24
8472.00,1.25
8471.00,1.25
8470.00,1.26
8469.00,1.26
8468.00,1.27
8467.00,1.27
8466.00,1.28
8465.00,1.29
8464.00,1.29
8463.00,1.30
8462.00,1.31
8461.00,1.32
8460.00,1.32
8459.00,1.33
8458.00,1.33
8457.00,1.34
8456.00,1.34
8455.00,1.35
8454.00,1.35
8453.00,1.36
8452.00,1.36
8451.00,1.36
8450.00,1.37
8449.00,1.37
8448.00,1.37
8447.00,1.37
8446.00,1.38
8445.00,1.38
8444.00,1.38
8443.00,1.39
8442.00,1.39
8441.00,1.39
8440.00,1.39
8439.00,1.39
8438.00,1.39
8437.00,1.39
8436.00,1.39
8435.00,1.39
8434.00,1.39
8433.00,1.39
8432.00,1.39
8431.00,1.39
8430.00,1.39
8429.00,1.39
8428.00,1.39
8427.00,1.39
8426.00,1.39
8425.00,1.39
8424.00,1.39
8423.00,1.39
8422.00,1.39
8421.00,1.38
8420.00,1.38
8419.00,1.38
8418.00,1.37
8417.00,1.37
8416.00,1.36
8415.00,1.36
8414.00,1.35
8413.00,1.35
8412.00,1.35
8411.00,1.34
8410.00,1.34
8409.00,1.34
8408.00,1.34
8407.00,1.33
8406.00,1.33
8405.00,1.33
8404.00,1.33
8403.00,1.32
8402.00,1.32
8401.00,1.32
8400.00,1.32
8399.00,1.31
8398.00,1.31
8397.00,1.31
8396.00,1.31
8395.00,1.31
8394.00,1.31
8393.00,1.31
8392.00,1.31
8391.00,1.31
8390.00,1.32
8389.00,1.32
8388.00,1.32
8387.00,1.32
8386.00,1.32
8385.00,1.32
8384.00,1.32
8383.00,1.32
8382.00,1.32
8381.00,1.32
8380.00,1.31
8379.00,1.31
8378.00,1.31
8377.00,1.31
8376.00,1.31
8375.00,1.31
8374.00,1.31
8373.00,1.31
8372.00,1.31
8371.00,1.31
8370.00,1.31
8369.00,1.31
8368.00,1.31
8367.00,1.31
8366.00,1.31
8365.00,1.30
8364.00,1.30
8363.00,1.30
8362.00,1.30
8361.00,1.30
8360.00,1.30
8359.00,1.30
8358.00,1.30
8357.00,1.30
8356.00,1.30
8355.00,1.30
8354.00,1.30
8353.00,1.30
8352.00,1.30
8351.00,1.30
8350.00,1.30
8349.00,1.29
8348.00,1.29
8347.00,1.29
8346.00,1.29
8345.00,1.29
8344.00,1.29
8343.00,1.29
8342.00,1.29
8341.00,1.28
8340.00,1.28
8339.00,1.28
8338.00,1.28
8337.00,1.27
8336.00,1.27
8335.00,1.27
8334.00,1.27
8333.00,1.27
8332.00,1.26
8331.00,1.26
8330.00,1.26
8329.00,1.26
8328.00,1.26
8327.00,1.27
8326.00,1.27
8325.00,1.27
8324.00,1.27
8323.00,1.27
8322.00,1.27
8321.00,1.27
8320.00,1.28
8319.00,1.28
8318.00,1.28
8317.00,1.28
8316.00,1.28
8315.00,1.28
8314.00,1.28
8313.00,1.29
8312.00,1.29
8311.00,1.29
8310.00,1.29
8309.00,1.30
8308.00,1.30
8307.00,1.31
8306.00,1.31
8305.00,1.31
8304.00,1.32
8303.00,1.32
8302.00,1.32
8301.00,1.32
8300.00,1.32
8299.00,1.33
8298.00,1.33
8297.00,1.33
8296.00,1.33
8295.00,1.33
8294.00,1.34
8293.00,1.34
8292.00,1.34
8291.00,1.35
8290.00,1.35
8289.00,1.35
8288.00,1.35
8287.00,1.36
8286.00,1.36
8285.00,1.36
8284.00,1.36
8283.00,1.36
8282.00,1.36
8281.00,1.36
8280.00,1.36
8279.00,1.36
8278.00,1.36
8277.00,1.36
8276.00,1.36
8275.00,1.36
8274.00,1.36
8273.00,1.36
8272.00,1.36
8271.00,1.36
8270.00,1.36
8269.00,1.35
8268.00,1.35
8267.00,1.35
8266.00,1.35
8265.00,1.35
8264.00,1.35
8263.00,1.35
8262.00,1.34
8261.00,1.34
8260.00,1.34
8259.00,1.34
8258.00,1.33
8257.00,1.33
8256.00,1.33
8255.00,1.33
8254.00,1.33
8253.00,1.33
8252.00,1.33
8251.00,1.33
8250.00,1.33
8249.00,1.33
8248.00,1.33
8247.00,1.33
8246.00,1.34
8245.00,1.34
8244.00,1.34
8243.00,1.34
8242.00,1.35
8241.00,1.35
8240.00,1.35
8239.00,1.35
8238.00,1.36
8237.00,1.36
8236.00,1.36
8235.00,1.37
8234.00,1.37
8233.00,1.38
8232.00,1.38
8231.00,1.38
8230.00,1.39
8229.00,1.39
8228.00,1.40
8227.00,1.40
8226.00,1.41
8225.00,1.41
8224.00,1.41
8223.00,1.41
8222.00,1.41
8221.00,1.41
8220.00,1.41
8219.00,1.41
8218.00,1.41
8217.00,1.40
8216.00,1.40
8215.00,1.40
8214.00,1.39
8213.00,1.39
8212.00,1.39
8211.00,1.38
8210.00,1.38
8209.00,1.37
8208.00,1.37
8207.00,1.36
8206.00,1.36
8205.00,1.35
8204.00,1.34
8203.00,1.34
8202.00,1.33
8201.00,1.33
8200.00,1.32
8199.00,1.31
8198.00,1.31
8197.00,1.30
8196.00,1.30
8195.00,1.30
8194.00,1.29
8193.00,1.29
8192.00,1.29
8191.00,1.29
8190.00,1.29
8189.00,1.29
8188.00,1.29
8187.00,1.30
8186.00,1.30
8185.00,1.30
8184.00,1.31
8183.00,1.31
8182.00,1.32
8181.00,1.32
8180.00,1.33
8179.00,1.33
8178.00,1.34
8177.00,1.34
8176.00,1.35
8175.00,1.35
8174.00,1.36
8173.00,1.37
8172.00,1.37
8171.00,1.38
8170.00,1.38
8169.00,1.38
8168.00,1.39
8167.00,1.39
8166.00,1.40
8165.00,1.40
8164.00,1.40
8163.00,1.40
8162.00,1.41
8161.00,1.41
8160.00,1.41
8159.00,1.41
8158.00,1.41
8157.00,1.40
8156.00,1.40
8155.00,1.40
8154.00,1.40
8153.00,1.39
8152.00,1.39
8151.00,1.39
8150.00,1.38
8149.00,1.38
8148.00,1.38
8147.00,1.38
8146.00,1.38
8145.00,1.38
8144.00,1.38
8143.00,1.37
8142.00,1.37
8141.00,1.37
8140.00,1.37
8139.00,1.37
8138.00,1.37
8137.00,1.37
8136.00,1.37
8135.00,1.37
8134.00,1.37
8133.00,1.37
8132.00,1.37
8131.00,1.37
8130.00,1.37
8129.00,1.37
8128.00,1.38
8127.00,1.38
8126.00,1.38
8125.00,1.38
8124.00,1.39
8123.00,1.39
8122.00,1.39
8121.00,1.39
8120.00,1.40
8119.00,1.40
8118.00,1.40
8117.00,1.40
8116.00,1.40
8115.00,1.40
8114.00,1.40
8113.00,1.41
8112.00,1.41
8111.00,1.41
8110.00,1.41
8109.00,1.41
8108.00,1.41
8107.00,1.41
8106.00,1.41
8105.00,1.42
8104.00,1.42
8103.00,1.42
8102.00,1.42
8101.00,1.42
8100.00,1.41
8099.00,1.41
8098.00,1.41
8097.00,1.41
8096.00,1.41
8095.00,1.40
8094.00,1.40
8093.00,1.40
8092.00,1.39
8091.00,1.39
8090.00,1.39
8089.00,1.39
8088.00,1.38
8087.00,1.38
8086.00,1.38
8085.00,1.38
8084.00,1.37
8083.00,1.37
8082.00,1.37
8081.00,1.37
8080.00,1.37
8079.00,1.37
8078.00,1.36
8077.00,1.36
8076.00,1.36
8075.00,1.36
8074.00,1.36
8073.00,1.36
8072.00,1.37
8071.00,1.37
8070.00,1.37
8069.00,1.37
8068.00,1.37
8067.00,1.37
8066.00,1.38
8065.00,1.38
8064.00,1.38
8063.00,1.38
8062.00,1.38
8061.00,1.38
8060.00,1.38
8059.00,1.38
8058.00,1.38
8057.00,1.38
8056.00,1.38
8055.00,1.38
8054.00,1.38
8053.00,1.38
8052.00,1.37
8051.00,1.37
8050.00,1.37
8049.00,1.37
8048.00,1.36
8047.00,1.36
8046.00,1.36
8045.00,1.35
8044.00,1.35
8043.00,1.35
8042.00,1.34
8041.00,1.34
8040.00,1.34
8039.00,1.34
8038.00,1.33
8037.00,1.33
8036.00,1.33
8035.00,1.33
8034.00,1.33
8033.00,1.33
8032.00,1.33
8031.00,1.33
8030.00,1.33
8029.00,1.33
8028.00,1.33
8027.00,1.33
8026.00,1.33
8025.00,1.33
8024.00,1.33
8023.00,1.33
8022.00,1.33
8021.00,1.34
8020.00,1.34
8019.00,1.34
8018.00,1.34
8017.00,1.34
8016.00,1.34
8015.00,1.35
8014.00,1.35
8013.00,1.35
8012.00,1.35
8011.00,1.36
8010.00,1.36
8009.00,1.36
8008.00,1.36
8007.00,1.36
8006.00,1.37
8005.00,1.37
8004.00,1.37
8003.00,1.37
8002.00,1.38
8001.00,1.38
8000.00,1.38
7999.00,1.39
7998.00,1.39
7997.00,1.39
7996.00,1.40
7995.00,1.40
7994.00,1.40
7993.00,1.41
7992.00,1.41
7991.00,1.41
7990.00,1.42
7989.00,1.42
7988.00,1.42
7987.00,1.43
7986.00,1.43
7985.00,1.43
7984.00,1.44
7983.00,1.44
7982.00,1.44
7981.00,1.44
7980.00,1.44
7979.00,1.45
7978.00,1.45
7977.00,1.45
7976.00,1.45
7975.00,1.45
7974.00,1.45
7973.00,1.45
7972.00,1.45
7971.00,1.45
7970.00,1.45
7969.00,1.45
7968.00,1.45
7967.00,1.45
7966.00,1.45
7965.00,1.45
7964.00,1.44
7963.00,1.44
7962.00,1.44
7961.00,1.44
7960.00,1.43
7959.00,1.43
7958.00,1.43
7957.00,1.43
7956.00,1.43
7955.00,1.42
7954.00,1.42
7953.00,1.42
7952.00,1.42
7951.00,1.42
7950.00,1.42
7949.00,1.42
7948.00,1.42
7947.00,1.41
7946.00,1.41
7945.00,1.41
7944.00,1.41
7943.00,1.41
7942.00,1.41
7941.00,1.41
7940.00,1.42
7939.00,1.42
7938.00,1.42
7937.00,1.42
7936.00,1.42
7935.00,1.42
7934.00,1.42
7933.00,1.43
7932.00,1.43
7931.00,1.43
7930.00,1.43
7929.00,1.43
7928.00,1.43
7927.00,1.44
7926.00,1.44
7925.00,1.44
7924.00,1.44
7923.00,1.44
7922.00,1.44
7921.00,1.45
7920.00,1.45
7919.00,1.45
7918.00,1.45
7917.00,1.45
7916.00,1.45
7915.00,1.45
7914.00,1.46
7913.00,1.46
7912.00,1.46
7911.00,1.46
7910.00,1.46
7909.00,1.46
7908.00,1.46
7907.00,1.46
7906.00,1.46
7905.00,1.46
7904.00,1.46
7903.00,1.46
7902.00,1.46
7901.00,1.46
7900.00,1.46
7899.00,1.46
7898.00,1.46
7897.00,1.46
7896.00,1.46
7895.00,1.46
7894.00,1.46
7893.00,1.46
7892.00,1.46
7891.00,1.46
7890.00,1.46
7889.00,1.46
7888.00,1.46
7887.00,1.46
7886.00,1.46
7885.00,1.45
7884.00,1.45
7883.00,1.45
7882.00,1.45
7881.00,1.45
7880.00,1.45
7879.00,1.45
7878.00,1.45
7877.00,1.45
7876.00,1.45
7875.00,1.44
7874.00,1.44
7873.00,1.44
7872.00,1.44
7871.00,1.44
7870.00,1.44
7869.00,1.44
7868.00,1.44
7867.00,1.43
7866.00,1.43
7865.00,1.43
7864.00,1.43
7863.00,1.43
7862.00,1.43
7861.00,1.42
7860.00,1.42
7859.00,1.42
7858.00,1.42
7857.00,1.42
7856.00,1.42
7855.00,1.42
7854.00,1.42
7853.00,1.42
7852.00,1.42
7851.00,1.42
7850.00,1.42
7849.00,1.42
7848.00,1.42
7847.00,1.42
7846.00,1.42
7845.00,1.42
7844.00,1.42
7843.00,1.42
7842.00,1.42
7841.00,1.43
7840.00,1.43
7839.00,1.43
7838.00,1.43
7837.00,1.44
7836.00,1.44
7835.00,1.44
7834.00,1.45
7833.00,1.45
7832.00,1.45
7831.00,1.45
7830.00,1.46
7829.00,1.46
7828.00,1.46
7827.00,1.46
7826.00,1.47
7825.00,1.47
7824.00,1.47
7823.00,1.47
7822.00,1.47
7821.00,1.47
7820.00,1.47
7819.00,1.47
7818.00,1.47
7817.00,1.47
7816.00,1.47
7815.00,1.47
7814.00,1.47
7813.00,1.47
7812.00,1.46
7811.00,1.46
7810.00,1.46
7809.00,1.45
7808.00,1.45
7807.00,1.45
7806.00,1.44
7805.00,1.44
7804.00,1.43
7803.00,1.43
7802.00,1.43
7801.00,1.42
7800.00,1.42
7799.00,1.42
7798.00,1.42
7797.00,1.41
7796.00,1.41
7795.00,1.41
7794.00,1.41
7793.00,1.41
7792.00,1.41
7791.00,1.41
7790.00,1.42
7789.00,1.42
7788.00,1.42
7787.00,1.42
7786.00,1.42
7785.00,1.43
7784.00,1.43
7783.00,1.43
7782.00,1.44
7781.00,1.44
7780.00,1.45
7779.00,1.45
7778.00,1.46
7777.00,1.47
7776.00,1.47
7775.00,1.47
7774.00,1.48
7773.00,1.48
7772.00,1.49
7771.00,1.49
7770.00,1.49
7769.00,1.49
7768.00,1.50
7767.00,1.50
7766.00,1.50
7765.00,1.50
7764.00,1.50
7763.00,1.50
7762.00,1.50
7761.00,1.50
7760.00,1.51
7759.00,1.51
7758.00,1.51
7757.00,1.51
7756.00,1.51
7755.00,1.50
7754.00,1.50
7753.00,1.50
7752.00,1.50
7751.00,1.50
7750.00,1.50
7749.00,1.50
7748.00,1.49
7747.00,1.49
7746.00,1.49
7745.00,1.49
7744.00,1.49
7743.00,1.49
7742.00,1.49
7741.00,1.49
7740.00,1.49
7739.00,1.49
7738.00,1.48
7737.00,1.48
7736.00,1.48
7735.00,1.48
7734.00,1.48
7733.00,1.48
7732.00,1.48
7731.00,1.48
7730.00,1.48
7729.00,1.48
7728.00,1.47
7727.00,1.47
7726.00,1.47
7725.00,1.47
7724.00,1.47
7723.00,1.47
7722.00,1.47
7721.00,1.47
7720.00,1.47
7719.00,1.47
7718.00,1.47
7717.00,1.47
7716.00,1.47
7715.00,1.47
7714.00,1.47
7713.00,1.47
7712.00,1.47
7711.00,1.48
7710.00,1.48
7709.00,1.48
7708.00,1.48
7707.00,1.48
7706.00,1.48
7705.00,1.48
7704.00,1.48
7703.00,1.48
7702.00,1.48
7701.00,1.48
7700.00,1.48
7699.00,1.48
7698.00,1.48
7697.00,1.49
7696.00,1.49
7695.00,1.49
7694.00,1.49
7693.00,1.49
7692.00,1.49
7691.00,1.48
7690.00,1.48
7689.00,1.48
7688.00,1.48
7687.00,1.48
7686.00,1.47
7685.00,1.47
7684.00,1.47
7683.00,1.46
7682.00,1.46
7681.00,1.46
7680.00,1.46
7679.00,1.46
7678.00,1.45
7677.00,1.45
7676.00,1.45
7675.00,1.45
7674.00,1.45
7673.00,1.44
7672.00,1.44
7671.00,1.44
7670.00,1.44
7669.00,1.44
7668.00,1.44
7667.00,1.43
7666.00,1.43
7665.00,1.43
7664.00,1.43
7663.00,1.43
7662.00,1.43
7661.00,1.44
7660.00,1.44
7659.00,1.44
7658.00,1.44
7657.00,1.44
7656.00,1.44
7655.00,1.45
7654.00,1.45
7653.00,1.45
7652.00,1.45
7651.00,1.45
7650.00,1.45
7649.00,1.45
7648.00,1.45
7647.00,1.45
7646.00,1.45
7645.00,1.45
7644.00,1.45
7643.00,1.46
7642.00,1.46
7641.00,1.46
7640.00,1.46
7639.00,1.46
7638.00,1.46
7637.00,1.47
7636.00,1.47
7635.00,1.47
7634.00,1.47
7633.00,1.47
7632.00,1.47
7631.00,1.47
7630.00,1.47
7629.00,1.47
7628.00,1.48
7627.00,1.48
7626.00,1.48
7625.00,1.48
7624.00,1.48
7623.00,1.48
7622.00,1.48
7621.00,1.48
7620.00,1.48
7619.00,1.48
7618.00,1.48
7617.00,1.48
7616.00,1.49
7615.00,1.49
7614.00,1.49
7613.00,1.49
7612.00,1.48
7611.00,1.48
7610.00,1.48
7609.00,1.48
7608.00,1.48
7607.00,1.48
7606.00,1.47
7605.00,1.47
7604.00,1.47
7603.00,1.47
7602.00,1.47
7601.00,1.47
7600.00,1.47
7599.00,1.47
7598.00,1.47
7597.00,1.47
7596.00,1.47
7595.00,1.47
7594.00,1.47
7593.00,1.47
7592.00,1.46
7591.00,1.46
7590.00,1.46
7589.00,1.46
7588.00,1.46
7587.00,1.46
7586.00,1.46
7585.00,1.45
7584.00,1.45
7583.00,1.45
7582.00,1.45
7581.00,1.45
7580.00,1.45
7579.00,1.45
7578.00,1.45
7577.00,1.44
7576.00,1.44
7575.00,1.44
7574.00,1.44
7573.00,1.44
7572.00,1.43
7571.00,1.43
7570.00,1.43
7569.00,1.43
7568.00,1.42
7567.00,1.42
7566.00,1.42
7565.00,1.42
7564.00,1.42
7563.00,1.42
7562.00,1.42
7561.00,1.42
7560.00,1.42
7559.00,1.42
7558.00,1.42
7557.00,1.42
7556.00,1.42
7555.00,1.42
7554.00,1.42
7553.00,1.42
7552.00,1.42
7551.00,1.42
7550.00,1.42
7549.00,1.42
7548.00,1.42
7547.00,1.43
7546.00,1.43
7545.00,1.43
7544.00,1.43
7543.00,1.43
7542.00,1.44
7541.00,1.44
7540.00,1.44
7539.00,1.44
7538.00,1.44
7537.00,1.45
7536.00,1.45
7535.00,1.45
7534.00,1.45
7533.00,1.45
7532.00,1.45
7531.00,1.45
7530.00,1.45
7529.00,1.46
7528.00,1.46
7527.00,1.46
7526.00,1.46
7525.00,1.46
7524.00,1.46
7523.00,1.46
7522.00,1.46
7521.00,1.46
7520.00,1.46
7519.00,1.45
7518.00,1.45
7517.00,1.45
7516.00,1.45
7515.00,1.45
7514.00,1.44
7513.00,1.44
7512.00,1.44
7511.00,1.44
7510.00,1.43
7509.00,1.43
7508.00,1.43
7507.00,1.42
7506.00,1.42
7505.00,1.42
7504.00,1.42
7503.00,1.41
7502.00,1.41
7501.00,1.41
7500.00,1.41
7499.00,1.41
7498.00,1.40
7497.00,1.40
7496.00,1.40
7495.00,1.40
7494.00,1.40
7493.00,1.40
7492.00,1.40
7491.00,1.40
7490.00,1.40
7489.00,1.40
7488.00,1.40
7487.00,1.40
7486.00,1.40
7485.00,1.40
7484.00,1.41
7483.00,1.41
7482.00,1.41
7481.00,1.41
7480.00,1.42
7479.00,1.42
7478.00,1.42
7477.00,1.42
7476.00,1.42
7475.00,1.42
7474.00,1.43
7473.00,1.43
7472.00,1.43
7471.00,1.43
7470.00,1.43
7469.00,1.43
7468.00,1.43
7467.00,1.43
7466.00,1.43
7465.00,1.43
7464.00,1.43
7463.00,1.43
7462.00,1.42
7461.00,1.42
7460.00,1.42
7459.00,1.42
7458.00,1.42
7457.00,1.42
7456.00,1.42
7455.00,1.41
7454.00,1.41
7453.00,1.41
7452.00,1.41
7451.00,1.41
7450.00,1.40
7449.00,1.40
7448.00,1.40
7447.00,1.40
7446.00,1.40
7445.00,1.40
7444.00,1.40
7443.00,1.40
7442.00,1.40
7441.00,1.39
7440.00,1.39
7439.00,1.39
7438.00,1.39
7437.00,1.39
7436.00,1.39
7435.00,1.38
7434.00,1.38
7433.00,1.38
7432.00,1.38
7431.00,1.38
7430.00,1.37
7429.00,1.37
7428.00,1.37
7427.00,1.37
7426.00,1.36
7425.00,1.36
7424.00,1.36
7423.00,1.36
7422.00,1.36
7421.00,1.36
7420.00,1.36
7419.00,1.36
7418.00,1.36
7417.00,1.36
7416.00,1.36
7415.00,1.36
7414.00,1.36
7413.00,1.36
7412.00,1.36
7411.00,1.36
7410.00,1.36
7409.00,1.36
7408.00,1.36
7407.00,1.36
7406.00,1.36
7405.00,1.36
7404.00,1.36
7403.00,1.36
7402.00,1.36
7401.00,1.36
7400.00,1.36
7399.00,1.36
7398.00,1.36
7397.00,1.36
7396.00,1.36
7395.00,1.36
7394.00,1.36
7393.00,1.36
7392.00,1.36
7391.00,1.36
7390.00,1.36
7389.00,1.36
7388.00,1.36
7387.00,1.36
7386.00,1.36
7385.00,1.36
7384.00,1.36
7383.00,1.36
7382.00,1.36
7381.00,1.36
7380.00,1.36
7379.00,1.36
7378.00,1.37
7377.00,1.37
7376.00,1.37
7375.00,1.37
7374.00,1.37
7373.00,1.38
7372.00,1.38
7371.00,1.38
7370.00,1.38
7369.00,1.38
7368.00,1.38
7367.00,1.38
7366.00,1.38
7365.00,1.38
7364.00,1.38
7363.00,1.38
7362.00,1.38
7361.00,1.38
7360.00,1.38
7359.00,1.38
7358.00,1.38
7357.00,1.38
7356.00,1.38
7355.00,1.38
7354.00,1.38
7353.00,1.38
7352.00,1.38
7351.00,1.38
7350.00,1.38
7349.00,1.37
7348.00,1.37
7347.00,1.37
7346.00,1.37
7345.00,1.37
7344.00,1.37
7343.00,1.37
7342.00,1.37
7341.00,1.36
7340.00,1.36
7339.00,1.36
7338.00,1.36
7337.00,1.36
7336.00,1.36
7335.00,1.36
7334.00,1.36
7333.00,1.35
7332.00,1.35
7331.00,1.35
7330.00,1.35
7329.00,1.35
7328.00,1.35
7327.00,1.34
7326.00,1.34
7325.00,1.34
7324.00,1.34
7323.00,1.33
7322.00,1.33
7321.00,1.33
7320.00,1.33
7319.00,1.33
7318.00,1.32
7317.00,1.32
7316.00,1.32
7315.00,1.32
7314.00,1.32
7313.00,1.32
7312.00,1.32
7311.00,1.32
7310.00,1.32
7309.00,1.32
7308.00,1.32
7307.00,1.32
7306.00,1.32
7305.00,1.32
7304.00,1.32
7303.00,1.32
7302.00,1.33
7301.00,1.33
7300.00,1.33
7299.00,1.33
7298.00,1.33
7297.00,1.34
7296.00,1.34
7295.00,1.34
7294.00,1.34
7293.00,1.34
7292.00,1.34
7291.00,1.34
7290.00,1.35
7289.00,1.35
7288.00,1.35
7287.00,1.34
7286.00,1.34
7285.00,1.34
7284.00,1.34
7283.00,1.34
7282.00,1.34
7281.00,1.34
7280.00,1.33
7279.00,1.33
7278.00,1.33
7277.00,1.33
7276.00,1.32
7275.00,1.32
7274.00,1.32
7273.00,1.31
7272.00,1.31
7271.00,1.31
7270.00,1.30
7269.00,1.30
7268.00,1.29
7267.00,1.29
7266.00,1.29
7265.00,1.28
7264.00,1.28
7263.00,1.28
7262.00,1.28
7261.00,1.27
7260.00,1.27
7259.00,1.27
7258.00,1.27
7257.00,1.27
7256.00,1.26
7255.00,1.26
7254.00,1.26
7253.00,1.26
7252.00,1.26
7251.00,1.26
7250.00,1.26
7249.00,1.26
7248.00,1.26
7247.00,1.25
7246.00,1.25
7245.00,1.25
7244.00,1.25
7243.00,1.25
7242.00,1.24
7241.00,1.24
7240.00,1.24
7239.00,1.24
7238.00,1.23
7237.00,1.23
7236.00,1.23
7235.00,1.22
7234.00,1.22
7233.00,1.21
7232.00,1.21
7231.00,1.21
7230.00,1.20
7229.00,1.20
7228.00,1.19
7227.00,1.18
7226.00,1.18
7225.00,1.17
7224.00,1.17
7223.00,1.16
7222.00,1.15
7221.00,1.15
7220.00,1.14
7219.00,1.14
7218.00,1.13
7217.00,1.13
7216.00,1.12
7215.00,1.12
7214.00,1.11
7213.00,1.11
7212.00,1.10
7211.00,1.10
7210.00,1.10
7209.00,1.09
7208.00,1.09
7207.00,1.08
7206.00,1.08
7205.00,1.07
7204.00,1.07
7203.00,1.06
7202.00,1.06
7201.00,1.06
7200.00,1.05
7199.00,1.05
7198.00,1.05
7197.00,1.04
7196.00,1.04
7195.00,1.04
7194.00,1.03
7193.00,1.03
7192.00,1.03
7191.00,1.02
7190.00,1.02
7189.00,1.02
7188.00,1.01
7187.00,1.01
7186.00,1.00
7185.00,1.00
7184.00,1.00
7183.00,1.00
7182.00,1.00
7181.00,0.99
7180.00,0.99
7179.00,0.99
7178.00,0.99
7177.00,0.99
7176.00,0.99
7175.00,0.99
7174.00,0.98
7173.00,0.98
7172.00,0.98
7171.00,0.98
7170.00,0.98
7169.00,0.98
7168.00,0.97
7167.00,0.97
7166.00,0.97
7165.00,0.97
7164.00,0.97
7163.00,0.97
7162.00,0.97
7161.00,0.97
7160.00,0.96
7159.00,0.96
7158.00,0.96
7157.00,0.96
7156.00,0.95
7155.00,0.95
7154.00,0.95
7153.00,0.94
7152.00,0.94
7151.00,0.94
7150.00,0.93
7149.00,0.93
7148.00,0.93
7147.00,0.92
7146.00,0.92
7145.00,0.92
7144.00,0.92
7143.00,0.91
7142.00,0.91
7141.00,0.91
7140.00,0.91
7139.00,0.91
7138.00,0.90
7137.00,0.90
7136.00,0.90
7135.00,0.90
7134.00,0.90
7133.00,0.90
7132.00,0.90
7131.00,0.89
7130.00,0.89
7129.00,0.89
7128.00,0.89
7127.00,0.89
7126.00,0.89
7125.00,0.90
7124.00,0.90
7123.00,0.90
7122.00,0.90
7121.00,0.89
7120.00,0.89
7119.00,0.89
7118.00,0.89
7117.00,0.89
7116.00,0.89
7115.00,0.89
7114.00,0.89
7113.00,0.89
7112.00,0.89
7111.00,0.88
7110.00,0.88
7109.00,0.88
7108.00,0.88
7107.00,0.87
7106.00,0.87
7105.00,0.87
7104.00,0.86
7103.00,0.86
7102.00,0.85
7101.00,0.85
7100.00,0.85
7099.00,0.84
7098.00,0.84
7097.00,0.84
7096.00,0.83
7095.00,0.83
7094.00,0.82
7093.00,0.82
7092.00,0.82
7091.00,0.81
7090.00,0.81
7089.00,0.81
7088.00,0.80
7087.00,0.80
7086.00,0.79
7085.00,0.79
7084.00,0.79
7083.00,0.78
7082.00,0.78
7081.00,0.78
7080.00,0.78
7079.00,0.78
7078.00,0.77
7077.00,0.77
7076.00,0.77
7075.00,0.77
7074.00,0.76
7073.00,0.76
7072.00,0.76
7071.00,0.76
7070.00,0.75
7069.00,0.75
7068.00,0.75
7067.00,0.74
7066.00,0.74
7065.00,0.74
7064.00,0.74
7063.00,0.74
7062.00,0.74
7061.00,0.73
7060.00,0.73
7059.00,0.73
7058.00,0.73
7057.00,0.72
7056.00,0.72
7055.00,0.72
7054.00,0.72
7053.00,0.71
7052.00,0.71
7051.00,0.71
7050.00,0.71
7049.00,0.71
7048.00,0.71
7047.00,0.71
7046.00,0.70
7045.00,0.70
7044.00,0.70
7043.00,0.70
7042.00,0.70
7041.00,0.70
7040.00,0.70
7039.00,0.69
7038.00,0.69
7037.00,0.69
7036.00,0.69
7035.00,0.69
7034.00,0.68
7033.00,0.68
7032.00,0.68
7031.00,0.68
7030.00,0.68
7029.00,0.68
7028.00,0.68
7027.00,0.68
7026.00,0.68
7025.00,0.68
7024.00,0.68
7023.00,0.68
7022.00,0.68
7021.00,0.68
7020.00,0.68
7019.00,0.68
7018.00,0.68
7017.00,0.68
7016.00,0.68
7015.00,0.68
7014.00,0.68
7013.00,0.68
7012.00,0.68
7011.00,0.68
7010.00,0.68
7009.00,0.68
7008.00,0.68
7007.00,0.68
7006.00,0.68
7005.00,0.68
7004.00,0.68
7003.00,0.68
7002.00,0.68
7001.00,0.68
7000.00,0.68
6999.00,0.68
6998.00,0.68
6997.00,0.68
6996.00,0.68
6995.00,0.68
6994.00,0.68
6993.00,0.68
6992.00,0.68
6991.00,0.68
6990.00,0.69
6989.00,0.69
6988.00,0.69
6987.00,0.69
6986.00,0.69
6985.00,0.69
6984.00,0.69
6983.00,0.70
6982.00,0.70
6981.00,0.70
6980.00,0.70
6979.00,0.70
6978.00,0.70
6977.00,0.70
6976.00,0.70
6975.00,0.70
6974.00,0.70
6973.00,0.70
6972.00,0.70
6971.00,0.70
6970.00,0.70
6969.00,0.70
6968.00,0.70
6967.00,0.70
6966.00,0.70
6965.00,0.70
6964.00,0.69
6963.00,0.69
6962.00,0.69
6961.00,0.69
6960.00,0.69
6959.00,0.68
6958.00,0.68
6957.00,0.68
6956.00,0.68
6955.00,0.67
6954.00,0.67
6953.00,0.67
6952.00,0.67
6951.00,0.67
6950.00,0.67
6949.00,0.66
6948.00,0.66
6947.00,0.66
6946.00,0.66
6945.00,0.66
6944.00,0.66
6943.00,0.66
6942.00,0.65
6941.00,0.65
6940.00,0.65
6939.00,0.65
6938.00,0.65
6937.00,0.65
6936.00,0.65
6935.00,0.65
6934.00,0.65
6933.00,0.65
6932.00,0.65
6931.00,0.65
6930.00,0.65
6929.00,0.65
6928.00,0.65
6927.00,0.65
6926.00,0.65
6925.00,0.65
6924.00,0.65
6923.00,0.65
6922.00,0.65
6921.00,0.66
6920.00,0.66
6919.00,0.66
6918.00,0.66
6917.00,0.66
6916.00,0.66
6915.00,0.66
6914.00,0.66
6913.00,0.66
6912.00,0.66
6911.00,0.66
6910.00,0.66
6909.00,0.66
6908.00,0.66
6907.00,0.66
6906.00,0.66
6905.00,0.65
6904.00,0.65
6903.00,0.65
6902.00,0.65
6901.00,0.65
6900.00,0.65
6899.00,0.65
6898.00,0.65
6897.00,0.65
6896.00,0.65
6895.00,0.65
6894.00,0.65
6893.00,0.65
6892.00,0.65
6891.00,0.64
6890.00,0.64
6889.00,0.64
6888.00,0.64
6887.00,0.64
6886.00,0.64
6885.00,0.64
6884.00,0.63
6883.00,0.63
6882.00,0.63
6881.00,0.63
6880.00,0.63
6879.00,0.63
6878.00,0.63
6877.00,0.63
6876.00,0.63
6875.00,0.63
6874.00,0.63
6873.00,0.63
6872.00,0.63
6871.00,0.63
6870.00,0.63
6869.00,0.63
6868.00,0.63
6867.00,0.63
6866.00,0.63
6865.00,0.63
6864.00,0.63
6863.00,0.63
6862.00,0.63
6861.00,0.63
6860.00,0.63
6859.00,0.63
6858.00,0.64
6857.00,0.64
6856.00,0.64
6855.00,0.64
6854.00,0.64
6853.00,0.64
6852.00,0.64
6851.00,0.64
6850.00,0.64
6849.00,0.65
6848.00,0.65
6847.00,0.65
6846.00,0.65
6845.00,0.65
6844.00,0.65
6843.00,0.65
6842.00,0.66
6841.00,0.66
6840.00,0.66
6839.00,0.66
6838.00,0.66
6837.00,0.66
6836.00,0.66
6835.00,0.67
6834.00,0.67
6833.00,0.67
6832.00,0.67
6831.00,0.67
6830.00,0.68
6829.00,0.68
6828.00,0.68
6827.00,0.68
6826.00,0.69
6825.00,0.69
6824.00,0.69
6823.00,0.69
6822.00,0.69
6821.00,0.70
6820.00,0.70
6819.00,0.70
6818.00,0.70
6817.00,0.71
6816.00,0.71
6815.00,0.71
6814.00,0.71
6813.00,0.72
6812.00,0.72
6811.00,0.72
6810.00,0.72
6809.00,0.73
6808.00,0.73
6807.00,0.73
6806.00,0.73
6805.00,0.73
6804.00,0.73
6803.00,0.73
6802.00,0.73
6801.00,0.73
6800.00,0.73
6799.00,0.72
6798.00,0.72
6797.00,0.72
6796.00,0.72
6795.00,0.72
6794.00,0.72
6793.00,0.72
6792.00,0.71
6791.00,0.71
6790.00,0.71
6789.00,0.71
6788.00,0.71
6787.00,0.70
6786.00,0.70
6785.00,0.70
6784.00,0.70
6783.00,0.70
6782.00,0.70
6781.00,0.70
6780.00,0.70
6779.00,0.70
6778.00,0.70
6777.00,0.70
6776.00,0.70
6775.00,0.70
6774.00,0.70
6773.00,0.70
6772.00,0.70
6771.00,0.70
6770.00,0.71
6769.00,0.71
6768.00,0.71
6767.00,0.71
6766.00,0.71
6765.00,0.72
6764.00,0.72
6763.00,0.72
6762.00,0.72
6761.00,0.72
6760.00,0.73
6759.00,0.73
6758.00,0.73
6757.00,0.73
6756.00,0.73
6755.00,0.73
6754.00,0.74
6753.00,0.74
6752.00,0.74
6751.00,0.74
6750.00,0.74
6749.00,0.74
6748.00,0.74
6747.00,0.75
6746.00,0.75
6745.00,0.75
6744.00,0.75
6743.00,0.75
6742.00,0.75
6741.00,0.75
6740.00,0.75
6739.00,0.75
6738.00,0.75
6737.00,0.76
6736.00,0.76
6735.00,0.76
6734.00,0.76
6733.00,0.76
6732.00,0.76
6731.00,0.76
6730.00,0.75
6729.00,0.75
6728.00,0.75
6727.00,0.75
6726.00,0.75
6725.00,0.75
6724.00,0.75
6723.00,0.75
6722.00,0.75
6721.00,0.75
6720.00,0.75
6719.00,0.74
6718.00,0.74
6717.00,0.74
6716.00,0.74
6715.00,0.74
6714.00,0.74
6713.00,0.74
6712.00,0.74
6711.00,0.74
6710.00,0.74
6709.00,0.74
6708.00,0.74
6707.00,0.74
6706.00,0.74
6705.00,0.74
6704.00,0.74
6703.00,0.74
6702.00,0.74
6701.00,0.74
6700.00,0.74
6699.00,0.74
6698.00,0.74
6697.00,0.75
6696.00,0.75
6695.00,0.75
6694.00,0.75
6693.00,0.75
6692.00,0.75
6691.00,0.76
6690.00,0.76
6689.00,0.76
6688.00,0.76
6687.00,0.76
6686.00,0.76
6685.00,0.76
6684.00,0.76
6683.00,0.77
6682.00,0.77
6681.00,0.77
6680.00,0.77
6679.00,0.77
6678.00,0.77
6677.00,0.77
6676.00,0.77
6675.00,0.77
6674.00,0.77
6673.00,0.77
6672.00,0.77
6671.00,0.77
6670.00,0.77
6669.00,0.77
6668.00,0.77
6667.00,0.77
6666.00,0.77
6665.00,0.77
6664.00,0.77
6663.00,0.77
6662.00,0.77
6661.00,0.77
6660.00,0.77
6659.00,0.77
6658.00,0.77
6657.00,0.77
6656.00,0.77
6655.00,0.77
6654.00,0.77
6653.00,0.77
6652.00,0.77
6651.00,0.77
6650.00,0.77
6649.00,0.77
6648.00,0.77
6647.00,0.77
6646.00,0.78
6645.00,0.78
6644.00,0.78
6643.00,0.78
6642.00,0.78
6641.00,0.78
6640.00,0.78
6639.00,0.78
6638.00,0.79
6637.00,0.79
6636.00,0.79
6635.00,0.79
6634.00,0.79
6633.00,0.79
6632.00,0.79
6631.00,0.79
6630.00,0.80
6629.00,0.80
6628.00,0.80
6627.00,0.80
6626.00,0.80
6625.00,0.80
6624.00,0.80
6623.00,0.80
6622.00,0.80
6621.00,0.80
6620.00,0.80
6619.00,0.80
6618.00,0.80
6617.00,0.81
6616.00,0.81
6615.00,0.81
6614.00,0.81
6613.00,0.81
6612.00,0.81
6611.00,0.82
6610.00,0.82
6609.00,0.82
6608.00,0.83
6607.00,0.83
6606.00,0.83
6605.00,0.83
6604.00,0.84
6603.00,0.84
6602.00,0.84
6601.00,0.84
6600.00,0.85
6599.00,0.85
6598.00,0.85
6597.00,0.85
6596.00,0.86
6595.00,0.86
6594.00,0.86
6593.00,0.86
6592.00,0.86
6591.00,0.86
6590.00,0.86
6589.00,0.87
6588.00,0.87
6587.00,0.87
6586.00,0.87
6585.00,0.86
6584.00,0.86
6583.00,0.86
6582.00,0.86
6581.00,0.86
6580.00,0.86
6579.00,0.86
6578.00,0.87
6577.00,0.87
6576.00,0.87
6575.00,0.87
6574.00,0.87
6573.00,0.87
6572.00,0.87
6571.00,0.87
6570.00,0.87
6569.00,0.87
6568.00,0.88
6567.00,0.88
6566.00,0.88
6565.00,0.88
6564.00,0.88
6563.00,0.89
6562.00,0.89
6561.00,0.89
6560.00,0.90
6559.00,0.90
6558.00,0.90
6557.00,0.91
6556.00,0.91
6555.00,0.91
6554.00,0.92
6553.00,0.92
6552.00,0.92
6551.00,0.92
6550.00,0.92
6549.00,0.92
6548.00,0.92
6547.00,0.92
6546.00,0.92
6545.00,0.92
6544.00,0.92
6543.00,0.92
6542.00,0.92
6541.00,0.92
6540.00,0.92
6539.00,0.92
6538.00,0.92
6537.00,0.92
6536.00,0.91
6535.00,0.91
6534.00,0.91
6533.00,0.91
6532.00,0.91
6531.00,0.91
6530.00,0.91
6529.00,0.91
6528.00,0.91
6527.00,0.91
6526.00,0.91
6525.00,0.91
6524.00,0.91
6523.00,0.91
6522.00,0.91
6521.00,0.92
6520.00,0.92
6519.00,0.92
6518.00,0.93
6517.00,0.93
6516.00,0.93
6515.00,0.94
6514.00,0.94
6513.00,0.94
6512.00,0.95
6511.00,0.95
6510.00,0.95
6509.00,0.96
6508.00,0.96
6507.00,0.96
6506.00,0.96
6505.00,0.97
6504.00,0.97
6503.00,0.97
6502.00,0.97
6501.00,0.97
6500.00,0.97
6499.00,0.97
6498.00,0.97
6497.00,0.97
6496.00,0.97
6495.00,0.97
6494.00,0.97
6493.00,0.97
6492.00,0.97
6491.00,0.96
6490.00,0.96
6489.00,0.96
6488.00,0.96
6487.00,0.96
6486.00,0.96
6485.00,0.96
6484.00,0.96
6483.00,0.96
6482.00,0.96
6481.00,0.96
6480.00,0.96
6479.00,0.96
6478.00,0.96
6477.00,0.96
6476.00,0.96
6475.00,0.96
6474.00,0.96
6473.00,0.96
6472.00,0.96
6471.00,0.96
6470.00,0.96
6469.00,0.96
6468.00,0.96
6467.00,0.97
6466.00,0.97
6465.00,0.97
6464.00,0.97
6463.00,0.97
6462.00,0.96
6461.00,0.96
6460.00,0.96
6459.00,0.96
6458.00,0.96
6457.00,0.96
6456.00,0.96
6455.00,0.96
6454.00,0.96
6453.00,0.97
6452.00,0.97
6451.00,0.97
6450.00,0.97
6449.00,0.97
6448.00,0.97
6447.00,0.98
6446.00,0.98
6445.00,0.98
6444.00,0.98
6443.00,0.98
6442.00,0.98
6441.00,0.98
6440.00,0.98
6439.00,0.99
6438.00,0.99
6437.00,0.99
6436.00,0.99
6435.00,0.99
6434.00,0.99
6433.00,0.99
6432.00,1.00
6431.00,1.00
6430.00,1.00
6429.00,1.00
6428.00,1.00
6427.00,1.00
6426.00,1.00
6425.00,1.00
6424.00,1.00
6423.00,1.00
6422.00,1.00
6421.00,1.00
6420.00,1.00
6419.00,0.99
6418.00,0.99
6417.00,0.99
6416.00,0.99
6415.00,0.99
6414.00,0.99
6413.00,0.99
6412.00,0.99
6411.00,0.99
6410.00,0.99
6409.00,0.99
6408.00,1.00
6407.00,1.00
6406.00,1.00
6405.00,1.00
6404.00,1.00
6403.00,1.00
6402.00,1.00
6401.00,1.01
6400.00,1.01
6399.00,1.01
6398.00,1.01
6397.00,1.01
6396.00,1.01
6395.00,1.01
6394.00,1.01
6393.00,1.01
6392.00,1.02
6391.00,1.02
6390.00,1.02
6389.00,1.02
6388.00,1.02
6387.00,1.02
6386.00,1.02
6385.00,1.03
6384.00,1.03
6383.00,1.03
6382.00,1.03
6381.00,1.03
6380.00,1.03
6379.00,1.03
6378.00,1.03
6377.00,1.02
6376.00,1.02
6375.00,1.02
6374.00,1.02
6373.00,1.02
6372.00,1.02
6371.00,1.02
6370.00,1.02
6369.00,1.02
6368.00,1.03
6367.00,1.03
6366.00,1.03
6365.00,1.03
6364.00,1.03
6363.00,1.03
6362.00,1.03
6361.00,1.03
6360.00,1.03
6359.00,1.03
6358.00,1.03
6357.00,1.03
6356.00,1.03
6355.00,1.03
6354.00,1.04
6353.00,1.04
6352.00,1.04
6351.00,1.04
6350.00,1.05
6349.00,1.05
6348.00,1.05
6347.00,1.06
6346.00,1.06
6345.00,1.06
6344.00,1.06
6343.00,1.07
6342.00,1.07
6341.00,1.07
6340.00,1.07
6339.00,1.07
6338.00,1.08
6337.00,1.08
6336.00,1.08
6335.00,1.08
6334.00,1.09
6333.00,1.09
6332.00,1.09
6331.00,1.09
6330.00,1.10
6329.00,1.10
6328.00,1.10
6327.00,1.10
6326.00,1.11
6325.00,1.11
6324.00,1.11
6323.00,1.11
6322.00,1.11
6321.00,1.11
6320.00,1.11
6319.00,1.11
6318.00,1.11
6317.00,1.11
6316.00,1.11
6315.00,1.11
6314.00,1.11
6313.00,1.11
6312.00,1.11
6311.00,1.12
6310.00,1.12
6309.00,1.12
6308.00,1.12
6307.00,1.12
6306.00,1.12
6305.00,1.12
6304.00,1.12
6303.00,1.12
6302.00,1.12
6301.00,1.12
6300.00,1.12
6299.00,1.12
6298.00,1.12
6297.00,1.12
6296.00,1.12
6295.00,1.12
6294.00,1.12
6293.00,1.12
6292.00,1.12
6291.00,1.12
6290.00,1.12
6289.00,1.13
6288.00,1.13
6287.00,1.13
6286.00,1.13
6285.00,1.13
6284.00,1.13
6283.00,1.13
6282.00,1.13
6281.00,1.13
6280.00,1.13
6279.00,1.14
6278.00,1.14
6277.00,1.14
6276.00,1.14
6275.00,1.14
6274.00,1.14
6273.00,1.14
6272.00,1.15
6271.00,1.15
6270.00,1.15
6269.00,1.15
6268.00,1.15
6267.00,1.15
6266.00,1.15
6265.00,1.15
6264.00,1.16
6263.00,1.16
6262.00,1.16
6261.00,1.16
6260.00,1.16
6259.00,1.16
6258.00,1.16
6257.00,1.17
6256.00,1.17
6255.00,1.17
6254.00,1.17
6253.00,1.17
6252.00,1.17
6251.00,1.17
6250.00,1.17
6249.00,1.17
6248.00,1.17
6247.00,1.17
6246.00,1.17
6245.00,1.17
6244.00,1.17
6243.00,1.17
6242.00,1.17
6241.00,1.17
6240.00,1.17
6239.00,1.17
6238.00,1.17
6237.00,1.17
6236.00,1.17
6235.00,1.17
6234.00,1.17
6233.00,1.17
6232.00,1.17
6231.00,1.17
6230.00,1.17
6229.00,1.17
6228.00,1.17
6227.00,1.17
6226.00,1.17
6225.00,1.17
6224.00,1.17
6223.00,1.17
6222.00,1.17
6221.00,1.17
6220.00,1.17
6219.00,1.17
6218.00,1.17
6217.00,1.17
6216.00,1.17
6215.00,1.17
6214.00,1.17
6213.00,1.17
6212.00,1.18
6211.00,1.18
6210.00,1.18
6209.00,1.18
6208.00,1.18
6207.00,1.18
6206.00,1.19
6205.00,1.19
6204.00,1.19
6203.00,1.19
6202.00,1.19
6201.00,1.19
6200.00,1.19
6199.00,1.20
6198.00,1.20
6197.00,1.20
6196.00,1.20
6195.00,1.20
6194.00,1.20
6193.00,1.20
6192.00,1.21
6191.00,1.21
6190.00,1.21
6189.00,1.21
6188.00,1.21
6187.00,1.21
6186.00,1.21
6185.00,1.21
6184.00,1.22
6183.00,1.22
6182.00,1.22
6181.00,1.22
6180.00,1.22
6179.00,1.22
6178.00,1.23
6177.00,1.23
6176.00,1.23
6175.00,1.23
6174.00,1.23
6173.00,1.23
6172.00,1.24
6171.00,1.24
6170.00,1.24
6169.00,1.24
6168.00,1.24
6167.00,1.25
6166.00,1.25
6165.00,1.25
6164.00,1.25
6163.00,1.26
6162.00,1.26
6161.00,1.26
6160.00,1.26
6159.00,1.27
6158.00,1.27
6157.00,1.27
6156.00,1.28
6155.00,1.28
6154.00,1.28
6153.00,1.29
6152.00,1.29
6151.00,1.29
6150.00,1.30
6149.00,1.30
6148.00,1.30
6147.00,1.31
6146.00,1.31
6145.00,1.32
6144.00,1.32
6143.00,1.32
6142.00,1.33
6141.00,1.33
6140.00,1.33
6139.00,1.34
6138.00,1.34
6137.00,1.34
6136.00,1.35
6135.00,1.35
6134.00,1.35
6133.00,1.35
6132.00,1.36
6131.00,1.36
6130.00,1.36
6129.00,1.36
6128.00,1.36
6127.00,1.36
6126.00,1.36
6125.00,1.37
6124.00,1.37
6123.00,1.37
6122.00,1.37
6121.00,1.37
6120.00,1.37
6119.00,1.37
6118.00,1.37
6117.00,1.37
6116.00,1.37
6115.00,1.37
6114.00,1.37
6113.00,1.37
6112.00,1.37
6111.00,1.37
6110.00,1.37
6109.00,1.37
6108.00,1.38
6107.00,1.38
6106.00,1.38
6105.00,1.38
6104.00,1.38
6103.00,1.38
6102.00,1.39
6101.00,1.39
6100.00,1.39
6099.00,1.39
6098.00,1.39
6097.00,1.40
6096.00,1.40
6095.00,1.40
6094.00,1.40
6093.00,1.40
6092.00,1.41
6091.00,1.41
6090.00,1.41
6089.00,1.41
6088.00,1.41
6087.00,1.41
6086.00,1.41
6085.00,1.42
6084.00,1.42
6083.00,1.42
6082.00,1.42
6081.00,1.42
6080.00,1.42
6079.00,1.42
6078.00,1.42
6077.00,1.42
6076.00,1.42
6075.00,1.42
6074.00,1.42
6073.00,1.42
6072.00,1.42
6071.00,1.42
6070.00,1.42
6069.00,1.42
6068.00,1.42
6067.00,1.41
6066.00,1.41
6065.00,1.41
6064.00,1.41
6063.00,1.41
6062.00,1.41
6061.00,1.41
6060.00,1.41
6059.00,1.41
6058.00,1.41
6057.00,1.41
6056.00,1.41
6055.00,1.41
6054.00,1.41
6053.00,1.41
6052.00,1.41
6051.00,1.41
6050.00,1.41
6049.00,1.41
6048.00,1.41
6047.00,1.41
6046.00,1.41
6045.00,1.41
6044.00,1.41
6043.00,1.41
6042.00,1.41
6041.00,1.41
6040.00,1.41
6039.00,1.42
6038.00,1.42
6037.00,1.42
6036.00,1.42
6035.00,1.42
6034.00,1.42
6033.00,1.42
6032.00,1.43
6031.00,1.43
6030.00,1.43
6029.00,1.43
6028.00,1.43
6027.00,1.43
6026.00,1.43
6025.00,1.44
6024.00,1.44
6023.00,1.44
6022.00,1.44
6021.00,1.44
6020.00,1.44
6019.00,1.44
6018.00,1.44
6017.00,1.44
6016.00,1.44
6015.00,1.44
6014.00,1.44
6013.00,1.45
6012.00,1.45
6011.00,1.45
6010.00,1.45
6009.00,1.45
6008.00,1.45
6007.00,1.45
6006.00,1.45
6005.00,1.45
6004.00,1.45
6003.00,1.45
6002.00,1.45
6001.00,1.45
6000.00,1.45
5999.00,1.45
5998.00,1.45
5997.00,1.45
5996.00,1.45
5995.00,1.45
5994.00,1.45
5993.00,1.45
5992.00,1.45
5991.00,1.45
5990.00,1.44
5989.00,1.44
5988.00,1.44
5987.00,1.44
5986.00,1.44
5985.00,1.44
5984.00,1.44
5983.00,1.43
5982.00,1.43
5981.00,1.43
5980.00,1.43
5979.00,1.42
5978.00,1.42
5977.00,1.42
5976.00,1.41
5975.00,1.41
5974.00,1.40
5973.00,1.40
5972.00,1.40
5971.00,1.39
5970.00,1.39
5969.00,1.38
5968.00,1.37
5967.00,1.37
5966.00,1.36
5965.00,1.36
5964.00,1.35
5963.00,1.35
5962.00,1.34
5961.00,1.33
5960.00,1.33
5959.00,1.32
5958.00,1.32
5957.00,1.31
5956.00,1.31
5955.00,1.30
5954.00,1.29
5953.00,1.29
5952.00,1.28
5951.00,1.28
5950.00,1.27
5949.00,1.27
5948.00,1.27
5947.00,1.26
5946.00,1.26
5945.00,1.26
5944.00,1.25
5943.00,1.25
5942.00,1.25
5941.00,1.24
5940.00,1.24
5939.00,1.24
5938.00,1.24
5937.00,1.23
5936.00,1.23
5935.00,1.23
5934.00,1.23
5933.00,1.22
5932.00,1.22
5931.00,1.22
5930.00,1.22
5929.00,1.21
5928.00,1.21
5927.00,1.21
5926.00,1.20
5925.00,1.20
5924.00,1.20
5923.00,1.20
5922.00,1.19
5921.00,1.19
5920.00,1.19
5919.00,1.19
5918.00,1.18
5917.00,1.18
5916.00,1.18
5915.00,1.17
5914.00,1.17
5913.00,1.17
5912.00,1.17
5911.00,1.17
5910.00,1.16
5909.00,1.16
5908.00,1.16
5907.00,1.16
5906.00,1.16
5905.00,1.16
5904.00,1.17
5903.00,1.17
5902.00,1.17
5901.00,1.17
5900.00,1.17
5899.00,1.18
5898.00,1.18
5897.00,1.18
5896.00,1.18
5895.00,1.18
5894.00,1.19
5893.00,1.19
5892.00,1.19
5891.00,1.19
5890.00,1.20
5889.00,1.20
5888.00,1.20
5887.00,1.21
5886.00,1.21
5885.00,1.21
5884.00,1.22
5883.00,1.22
5882.00,1.22
5881.00,1.22
5880.00,1.22
5879.00,1.23
5878.00,1.23
5877.00,1.23
5876.00,1.23
5875.00,1.23
5874.00,1.23
5873.00,1.23
5872.00,1.24
5871.00,1.24
5870.00,1.24
5869.00,1.24
5868.00,1.25
5867.00,1.25
5866.00,1.25
5865.00,1.25
5864.00,1.26
5863.00,1.26
5862.00,1.26
5861.00,1.26
5860.00,1.26
5859.00,1.27
5858.00,1.27
5857.00,1.27
5856.00,1.27
5855.00,1.28
5854.00,1.28
5853.00,1.28
5852.00,1.28
5851.00,1.29
5850.00,1.29
5849.00,1.29
5848.00,1.29
5847.00,1.29
5846.00,1.29
5845.00,1.29
5844.00,1.29
5843.00,1.29
5842.00,1.29
5841.00,1.29
5840.00,1.29
5839.00,1.29
5838.00,1.29
5837.00,1.28
5836.00,1.28
5835.00,1.28
5834.00,1.28
5833.00,1.28
5832.00,1.28
5831.00,1.28
5830.00,1.27
5829.00,1.27
5828.00,1.27
5827.00,1.27
5826.00,1.27
5825.00,1.27
5824.00,1.26
5823.00,1.26
5822.00,1.26
5821.00,1.26
5820.00,1.26
5819.00,1.26
5818.00,1.26
5817.00,1.26
5816.00,1.26
5815.00,1.26
5814.00,1.26
5813.00,1.26
5812.00,1.26
5811.00,1.26
5810.00,1.26
5809.00,1.26
5808.00,1.26
5807.00,1.26
5806.00,1.25
5805.00,1.25
5804.00,1.25
5803.00,1.25
5802.00,1.25
5801.00,1.25
5800.00,1.25
5799.00,1.25
5798.00,1.25
5797.00,1.25
5796.00,1.24
5795.00,1.24
5794.00,1.24
5793.00,1.24
5792.00,1.24
5791.00,1.24
5790.00,1.23
5789.00,1.23
5788.00,1.23
5787.00,1.23
5786.00,1.23
5785.00,1.22
5784.00,1.22
5783.00,1.22
5782.00,1.22
5781.00,1.22
5780.00,1.22
5779.00,1.22
5778.00,1.22
5777.00,1.22
5776.00,1.22
5775.00,1.22
5774.00,1.22
5773.00,1.22
5772.00,1.21
5771.00,1.21
5770.00,1.21
5769.00,1.21
5768.00,1.21
5767.00,1.21
5766.00,1.22
5765.00,1.22
5764.00,1.22
5763.00,1.22
5762.00,1.22
5761.00,1.22
5760.00,1.22
5759.00,1.22
5758.00,1.23
5757.00,1.23
5756.00,1.23
5755.00,1.23
5754.00,1.23
5753.00,1.24
5752.00,1.24
5751.00,1.24
5750.00,1.24
5749.00,1.25
5748.00,1.25
5747.00,1.25
5746.00,1.25
5745.00,1.26
5744.00,1.26
5743.00,1.26
5742.00,1.27
5741.00,1.27
5740.00,1.27
5739.00,1.28
5738.00,1.28
5737.00,1.28
5736.00,1.29
5735.00,1.29
5734.00,1.29
5733.00,1.30
5732.00,1.30
5731.00,1.30
5730.00,1.31
5729.00,1.31
5728.00,1.31
5727.00,1.31
5726.00,1.32
5725.00,1.32
5724.00,1.32
5723.00,1.32
5722.00,1.33
5721.00,1.33
5720.00,1.33
5719.00,1.33
5718.00,1.33
5717.00,1.33
5716.00,1.33
5715.00,1.33
5714.00,1.33
5713.00,1.33
5712.00,1.33
5711.00,1.33
5710.00,1.33
5709.00,1.32
5708.00,1.32
5707.00,1.32
5706.00,1.32
5705.00,1.32
5704.00,1.32
5703.00,1.31
5702.00,1.31
5701.00,1.31
5700.00,1.31
5699.00,1.31
5698.00,1.30
5697.00,1.30
5696.00,1.30
5695.00,1.30
5694.00,1.30
5693.00,1.29
5692.00,1.29
5691.00,1.29
5690.00,1.29
5689.00,1.28
5688.00,1.28
5687.00,1.28
5686.00,1.28
5685.00,1.28
5684.00,1.27
5683.00,1.27
5682.00,1.27
5681.00,1.27
5680.00,1.26
5679.00,1.26
5678.00,1.26
5677.00,1.26
5676.00,1.26
5675.00,1.25
5674.00,1.25
5673.00,1.25
5672.00,1.25
5671.00,1.25
5670.00,1.25
5669.00,1.24
5668.00,1.24
5667.00,1.24
5666.00,1.24
5665.00,1.24
5664.00,1.24
5663.00,1.24
5662.00,1.24
5661.00,1.25
5660.00,1.25
5659.00,1.25
5658.00,1.25
5657.00,1.25
5656.00,1.25
5655.00,1.25
5654.00,1.26
5653.00,1.26
5652.00,1.26
5651.00,1.26
5650.00,1.26
5649.00,1.27
5648.00,1.27
5647.00,1.27
5646.00,1.27
5645.00,1.27
5644.00,1.28
5643.00,1.28
5642.00,1.28
5641.00,1.28
5640.00,1.28
5639.00,1.29
5638.00,1.29
5637.00,1.29
5636.00,1.29
5635.00,1.29
5634.00,1.30
5633.00,1.30
5632.00,1.30
5631.00,1.30
5630.00,1.30
5629.00,1.31
5628.00,1.31
5627.00,1.31
5626.00,1.31
5625.00,1.31
5624.00,1.32
5623.00,1.32
5622.00,1.32
5621.00,1.32
5620.00,1.33
5619.00,1.33
5618.00,1.33
5617.00,1.33
5616.00,1.33
5615.00,1.34
5614.00,1.34
5613.00,1.34
5612.00,1.34
5611.00,1.34
5610.00,1.34
5609.00,1.35
5608.00,1.35
5607.00,1.35
5606.00,1.35
5605.00,1.35
5604.00,1.35
5603.00,1.35
5602.00,1.35
5601.00,1.35
5600.00,1.36
5599.00,1.36
5598.00,1.36
5597.00,1.36
5596.00,1.36
5595.00,1.36
5594.00,1.36
5593.00,1.36
5592.00,1.37
5591.00,1.37
5590.00,1.37
5589.00,1.37
5588.00,1.37
5587.00,1.37
5586.00,1.37
5585.00,1.38
5584.00,1.38
5583.00,1.38
5582.00,1.38
5581.00,1.38
5580.00,1.38
5579.00,1.39
5578.00,1.39
5577.00,1.39
5576.00,1.39
5575.00,1.39
5574.00,1.39
5573.00,1.40
5572.00,1.40
5571.00,1.40
5570.00,1.40
5569.00,1.40
5568.00,1.40
5567.00,1.40
5566.00,1.41
5565.00,1.41
5564.00,1.41
5563.00,1.41
5562.00,1.41
5561.00,1.41
5560.00,1.41
5559.00,1.41
5558.00,1.41
5557.00,1.41
5556.00,1.41
5555.00,1.42
5554.00,1.42
5553.00,1.42
5552.00,1.42
5551.00,1.42
5550.00,1.42
5549.00,1.42
5548.00,1.42
5547.00,1.42
5546.00,1.42
5545.00,1.42
5544.00,1.42
5543.00,1.42
5542.00,1.42
5541.00,1.42
5540.00,1.42
5539.00,1.42
5538.00,1.42
5537.00,1.42
5536.00,1.42
5535.00,1.42
5534.00,1.42
5533.00,1.42
5532.00,1.42
5531.00,1.42
5530.00,1.42
5529.00,1.42
5528.00,1.42
5527.00,1.42
5526.00,1.42
5525.00,1.42
5524.00,1.42
5523.00,1.42
5522.00,1.42
5521.00,1.42
5520.00,1.42
5519.00,1.42
5518.00,1.43
5517.00,1.43
5516.00,1.43
5515.00,1.43
5514.00,1.43
5513.00,1.43
5512.00,1.43
5511.00,1.43
5510.00,1.43
5509.00,1.44
5508.00,1.44
5507.00,1.44
5506.00,1.44
5505.00,1.44
5504.00,1.44
5503.00,1.44
5502.00,1.45
5501.00,1.45
5500.00,1.45
5499.00,1.45
5498.00,1.45
5497.00,1.45
5496.00,1.45
5495.00,1.45
5494.00,1.45
5493.00,1.45
5492.00,1.46
5491.00,1.46
5490.00,1.46
5489.00,1.46
5488.00,1.46
5487.00,1.46
5486.00,1.46
5485.00,1.46
5484.00,1.46
5483.00,1.46
5482.00,1.46
5481.00,1.47
5480.00,1.47
5479.00,1.47
5478.00,1.47
5477.00,1.47
5476.00,1.47
5475.00,1.47
5474.00,1.47
5473.00,1.47
5472.00,1.47
5471.00,1.47
5470.00,1.48
5469.00,1.48
5468.00,1.48
5467.00,1.48
5466.00,1.48
5465.00,1.48
5464.00,1.48
5463.00,1.49
5462.00,1.49
5461.00,1.49
5460.00,1.49
5459.00,1.49
5458.00,1.49
5457.00,1.49
5456.00,1.50
5455.00,1.50
5454.00,1.50
5453.00,1.50
5452.00,1.50
5451.00,1.50
5450.00,1.51
5449.00,1.51
5448.00,1.51
5447.00,1.51
5446.00,1.51
5445.00,1.51
5444.00,1.51
5443.00,1.51
5442.00,1.52
5441.00,1.52
5440.00,1.52
5439.00,1.52
5438.00,1.52
5437.00,1.52
5436.00,1.52
5435.00,1.52
5434.00,1.52
5433.00,1.52
5432.00,1.52
5431.00,1.52
5430.00,1.52
5429.00,1.51
5428.00,1.51
5427.00,1.51
5426.00,1.51
5425.00,1.51
5424.00,1.51
5423.00,1.51
5422.00,1.51
5421.00,1.50
5420.00,1.50
5419.00,1.50
5418.00,1.50
5417.00,1.50
5416.00,1.50
5415.00,1.49
5414.00,1.49
5413.00,1.49
5412.00,1.49
5411.00,1.48
5410.00,1.48
5409.00,1.48
5408.00,1.48
5407.00,1.48
5406.00,1.47
5405.00,1.47
5404.00,1.47
5403.00,1.47
5402.00,1.47
5401.00,1.47
5400.00,1.46
5399.00,1.46
5398.00,1.46
5397.00,1.46
5396.00,1.46
5395.00,1.46
5394.00,1.45
5393.00,1.45
5392.00,1.45
5391.00,1.45
5390.00,1.45
5389.00,1.44
5388.00,1.44
5387.00,1.44
5386.00,1.44
5385.00,1.44
5384.00,1.44
5383.00,1.44
5382.00,1.44
5381.00,1.43
5380.00,1.43
5379.00,1.43
5378.00,1.43
5377.00,1.43
5376.00,1.43
5375.00,1.42
5374.00,1.42
5373.00,1.42
5372.00,1.41
5371.00,1.41
5370.00,1.41
5369.00,1.40
5368.00,1.40
5367.00,1.40
5366.00,1.39
5365.00,1.39
5364.00,1.38
5363.00,1.38
5362.00,1.37
5361.00,1.37
5360.00,1.36
5359.00,1.35
5358.00,1.35
5357.00,1.34
5356.00,1.33
5355.00,1.32
5354.00,1.31
5353.00,1.30
5352.00,1.30
5351.00,1.29
5350.00,1.28
5349.00,1.27
5348.00,1.26
5347.00,1.25
5346.00,1.24
5345.00,1.23
5344.00,1.22
5343.00,1.21
5342.00,1.20
5341.00,1.19
5340.00,1.18
5339.00,1.17
5338.00,1.16
5337.00,1.15
5336.00,1.14
5335.00,1.13
5334.00,1.12
5333.00,1.11
5332.00,1.10
5331.00,1.09
5330.00,1.08
5329.00,1.07
5328.00,1.06
5327.00,1.05
5326.00,1.04
5325.00,1.03
5324.00,1.02
5323.00,1.01
5322.00,1.00
5321.00,0.99
5320.00,0.98
5319.00,0.97
5318.00,0.96
5317.00,0.95
5316.00,0.95
5315.00,0.94
5314.00,0.93
5313.00,0.92
5312.00,0.92
5311.00,0.91
5310.00,0.90
5309.00,0.89
5308.00,0.89
5307.00,0.88
5306.00,0.88
5305.00,0.87
5304.00,0.86
5303.00,0.86
5302.00,0.85
5301.00,0.85
5300.00,0.84
5299.00,0.84
5298.00,0.83
5297.00,0.83
5296.00,0.83
5295.00,0.82
5294.00,0.82
5293.00,0.82
5292.00,0.82
5291.00,0.81
5290.00,0.81
5289.00,0.81
5288.00,0.81
5287.00,0.80
5286.00,0.80
5285.00,0.80
5284.00,0.80
5283.00,0.80
5282.00,0.79
5281.00,0.79
5280.00,0.79
5279.00,0.79
5278.00,0.79
5277.00,0.79
5276.00,0.79
5275.00,0.79
5274.00,0.79
5273.00,0.79
5272.00,0.79
5271.00,0.79
5270.00,0.79
5269.00,0.79
5268.00,0.79
5267.00,0.79
5266.00,0.79
5265.00,0.79
5264.00,0.79
5263.00,0.79
5262.00,0.80
5261.00,0.80
5260.00,0.80
5259.00,0.80
5258.00,0.80
5257.00,0.81
5256.00,0.81
5255.00,0.81
5254.00,0.81
5253.00,0.81
5252.00,0.81
5251.00,0.81
5250.00,0.81
5249.00,0.81
5248.00,0.81
5247.00,0.81
5246.00,0.81
5245.00,0.81
5244.00,0.81
5243.00,0.81
5242.00,0.81
5241.00,0.81
5240.00,0.81
5239.00,0.80
5238.00,0.80
5237.00,0.80
5236.00,0.80
5235.00,0.80
5234.00,0.79
5233.00,0.79
5232.00,0.79
5231.00,0.79
5230.00,0.79
5229.00,0.79
5228.00,0.78
5227.00,0.78
5226.00,0.78
5225.00,0.78
5224.00,0.78
5223.00,0.78
5222.00,0.78
5221.00,0.78
5220.00,0.78
5219.00,0.78
5218.00,0.78
5217.00,0.78
5216.00,0.79
5215.00,0.79
5214.00,0.79
5213.00,0.79
5212.00,0.79
5211.00,0.79
5210.00,0.79
5209.00,0.79
5208.00,0.79
5207.00,0.79
5206.00,0.79
5205.00,0.80
5204.00,0.80
5203.00,0.80
5202.00,0.80
5201.00,0.80
5200.00,0.80
5199.00,0.80
5198.00,0.80
5197.00,0.80
5196.00,0.80
5195.00,0.81
5194.00,0.81
5193.00,0.81
5192.00,0.81
5191.00,0.81
5190.00,0.81
5189.00,0.81
5188.00,0.82
5187.00,0.82
5186.00,0.82
5185.00,0.82
5184.00,0.82
5183.00,0.83
5182.00,0.83
5181.00,0.83
5180.00,0.83
5179.00,0.83
5178.00,0.83
5177.00,0.84
5176.00,0.84
5175.00,0.84
5174.00,0.84
5173.00,0.84
5172.00,0.84
5171.00,0.84
5170.00,0.84
5169.00,0.84
5168.00,0.84
5167.00,0.84
5166.00,0.84
5165.00,0.84
5164.00,0.84
5163.00,0.84
5162.00,0.84
5161.00,0.84
5160.00,0.84
5159.00,0.84
5158.00,0.84
5157.00,0.84
5156.00,0.84
5155.00,0.83
5154.00,0.83
5153.00,0.83
5152.00,0.83
5151.00,0.83
5150.00,0.83
5149.00,0.83
5148.00,0.83
5147.00,0.83
5146.00,0.83
5145.00,0.83
5144.00,0.83
5143.00,0.83
5142.00,0.83
5141.00,0.83
5140.00,0.83
5139.00,0.83
5138.00,0.83
5137.00,0.83
5136.00,0.83
5135.00,0.83
5134.00,0.83
5133.00,0.83
5132.00,0.83
5131.00,0.82
5130.00,0.82
5129.00,0.82
5128.00,0.82
5127.00,0.82
5126.00,0.81
5125.00,0.81
5124.00,0.81
5123.00,0.81
5122.00,0.81
5121.00,0.81
5120.00,0.81
5119.00,0.81
5118.00,0.81
5117.00,0.81
5116.00,0.80
5115.00,0.80
5114.00,0.80
5113.00,0.80
5112.00,0.80
5111.00,0.81
5110.00,0.81
5109.00,0.81
5108.00,0.81
5107.00,0.81
5106.00,0.81
5105.00,0.82
5104.00,0.82
5103.00,0.82
5102.00,0.83
5101.00,0.83
5100.00,0.83
5099.00,0.83
5098.00,0.84
5097.00,0.84
5096.00,0.84
5095.00,0.85
5094.00,0.85
5093.00,0.85
5092.00,0.85
5091.00,0.86
5090.00,0.86
5089.00,0.86
5088.00,0.86
5087.00,0.87
5086.00,0.87
5085.00,0.87
5084.00,0.87
5083.00,0.87
5082.00,0.87
5081.00,0.87
5080.00,0.87
5079.00,0.87
5078.00,0.87
5077.00,0.88
5076.00,0.88
5075.00,0.88
5074.00,0.88
5073.00,0.88
5072.00,0.88
5071.00,0.88
5070.00,0.88
5069.00,0.88
5068.00,0.88
5067.00,0.88
5066.00,0.88
5065.00,0.88
5064.00,0.88
5063.00,0.88
5062.00,0.88
5061.00,0.89
5060.00,0.89
5059.00,0.89
5058.00,0.89
5057.00,0.89
5056.00,0.89
5055.00,0.89
5054.00,0.89
5053.00,0.89
5052.00,0.89
5051.00,0.89
5050.00,0.89
5049.00,0.89
5048.00,0.90
5047.00,0.90
5046.00,0.90
5045.00,0.90
5044.00,0.90
5043.00,0.90
5042.00,0.89
5041.00,0.89
5040.00,0.89
5039.00,0.89
5038.00,0.89
5037.00,0.89
5036.00,0.89
5035.00,0.89
5034.00,0.89
5033.00,0.89
5032.00,0.89
5031.00,0.89
5030.00,0.88
5029.00,0.88
5028.00,0.88
5027.00,0.88
5026.00,0.88
5025.00,0.88
5024.00,0.88
5023.00,0.88
5022.00,0.88
5021.00,0.88
5020.00,0.88
5019.00,0.88
5018.00,0.89
5017.00,0.89
5016.00,0.89
5015.00,0.89
5014.00,0.89
5013.00,0.89
5012.00,0.89
5011.00,0.89
5010.00,0.90
5009.00,0.90
5008.00,0.90
5007.00,0.90
5006.00,0.91
5005.00,0.91
5004.00,0.91
5003.00,0.91
5002.00,0.92
5001.00,0.92
5000.00,0.92
4999.00,0.92
4998.00,0.92
4997.00,0.93
4996.00,0.93
4995.00,0.93
4994.00,0.93
4993.00,0.93
4992.00,0.93
4991.00,0.93
4990.00,0.93
4989.00,0.94
4988.00,0.94
4987.00,0.94
4986.00,0.94
4985.00,0.94
4984.00,0.94
4983.00,0.94
4982.00,0.94
4981.00,0.94
4980.00,0.93
4979.00,0.93
4978.00,0.93
4977.00,0.93
4976.00,0.93
4975.00,0.93
4974.00,0.93
4973.00,0.93
4972.00,0.92
4971.00,0.92
4970.00,0.92
4969.00,0.92
4968.00,0.92
4967.00,0.92
4966.00,0.92
4965.00,0.92
4964.00,0.93
4963.00,0.93
4962.00,0.93
4961.00,0.93
4960.00,0.93
4959.00,0.93
4958.00,0.93
4957.00,0.93
4956.00,0.93
4955.00,0.93
4954.00,0.93
4953.00,0.94
4952.00,0.94
4951.00,0.94
4950.00,0.94
4949.00,0.94
4948.00,0.94
4947.00,0.94
4946.00,0.94
4945.00,0.95
4944.00,0.95
4943.00,0.95
4942.00,0.95
4941.00,0.95
4940.00,0.95
4939.00,0.95
4938.00,0.95
4937.00,0.95
4936.00,0.95
4935.00,0.95
4934.00,0.95
4933.00,0.95
4932.00,0.95
4931.00,0.95
4930.00,0.95
4929.00,0.95
4928.00,0.96
4927.00,0.96
4926.00,0.96
4925.00,0.96
4924.00,0.96
4923.00,0.96
4922.00,0.96
4921.00,0.97
4920.00,0.97
4919.00,0.97
4918.00,0.97
4917.00,0.97
4916.00,0.97
4915.00,0.98
4914.00,0.98
4913.00,0.98
4912.00,0.98
4911.00,0.98
4910.00,0.98
4909.00,0.98
4908.00,0.98
4907.00,0.98
4906.00,0.99
4905.00,0.99
4904.00,0.99
4903.00,0.99
4902.00,0.99
4901.00,0.99
4900.00,0.99
4899.00,0.99
4898.00,0.99
4897.00,0.99
4896.00,0.99
4895.00,0.99
4894.00,0.99
4893.00,0.99
4892.00,0.99
4891.00,0.99
4890.00,0.99
4889.00,0.99
4888.00,0.99
4887.00,0.99
4886.00,0.99
4885.00,0.99
4884.00,0.99
4883.00,0.99
4882.00,1.00
4881.00,1.00
4880.00,1.00
4879.00,1.00
4878.00,1.00
4877.00,1.00
4876.00,1.00
4875.00,1.01
4874.00,1.01
4873.00,1.01
4872.00,1.01
4871.00,1.01
4870.00,1.01
4869.00,1.01
4868.00,1.01
4867.00,1.01
4866.00,1.00
4865.00,1.00
4864.00,1.00
4863.00,1.00
4862.00,1.00
4861.00,1.00
4860.00,1.00
4859.00,1.00
4858.00,1.00
4857.00,1.00
4856.00,1.00
4855.00,1.00
4854.00,0.99
4853.00,0.99
4852.00,0.99
4851.00,0.99
4850.00,0.99
4849.00,0.99
4848.00,0.99
4847.00,0.99
4846.00,0.99
4845.00,0.99
4844.00,1.00
4843.00,1.00
4842.00,1.00
4841.00,1.00
4840.00,1.00
4839.00,1.01
4838.00,1.01
4837.00,1.01
4836.00,1.01
4835.00,1.02
4834.00,1.02
4833.00,1.02
4832.00,1.02
4831.00,1.03
4830.00,1.03
4829.00,1.03
4828.00,1.04
4827.00,1.04
4826.00,1.04
4825.00,1.05
4824.00,1.05
4823.00,1.05
4822.00,1.06
4821.00,1.06
4820.00,1.06
4819.00,1.06
4818.00,1.07
4817.00,1.07
4816.00,1.07
4815.00,1.07
4814.00,1.07
4813.00,1.08
4812.00,1.08
4811.00,1.08
4810.00,1.08
4809.00,1.08
4808.00,1.08
4807.00,1.08
4806.00,1.08
4805.00,1.08
4804.00,1.08
4803.00,1.08
4802.00,1.08
4801.00,1.08
4800.00,1.08
4799.00,1.08
4798.00,1.08
4797.00,1.08
4796.00,1.08
4795.00,1.08
4794.00,1.08
4793.00,1.08
4792.00,1.08
4791.00,1.08
4790.00,1.08
4789.00,1.08
4788.00,1.08
4787.00,1.08
4786.00,1.08
4785.00,1.08
4784.00,1.08
4783.00,1.08
4782.00,1.08
4781.00,1.08
4780.00,1.09
4779.00,1.09
4778.00,1.09
4777.00,1.09
4776.00,1.09
4775.00,1.09
4774.00,1.09
4773.00,1.09
4772.00,1.10
4771.00,1.10
4770.00,1.10
4769.00,1.10
4768.00,1.10
4767.00,1.10
4766.00,1.10
4765.00,1.11
4764.00,1.11
4763.00,1.11
4762.00,1.11
4761.00,1.11
4760.00,1.11
4759.00,1.11
4758.00,1.11
4757.00,1.11
4756.00,1.11
4755.00,1.12
4754.00,1.12
4753.00,1.12
4752.00,1.12
4751.00,1.12
4750.00,1.12
4749.00,1.12
4748.00,1.13
4747.00,1.13
4746.00,1.13
4745.00,1.13
4744.00,1.13
4743.00,1.14
4742.00,1.14
4741.00,1.14
4740.00,1.14
4739.00,1.14
4738.00,1.15
4737.00,1.15
4736.00,1.15
4735.00,1.15
4734.00,1.16
4733.00,1.16
4732.00,1.16
4731.00,1.16
4730.00,1.16
4729.00,1.17
4728.00,1.17
4727.00,1.17
4726.00,1.17
4725.00,1.17
4724.00,1.17
4723.00,1.17
4722.00,1.18
4721.00,1.18
4720.00,1.18
4719.00,1.18
4718.00,1.18
4717.00,1.18
4716.00,1.18
4715.00,1.18
4714.00,1.18
4713.00,1.18
4712.00,1.18
4711.00,1.18
4710.00,1.18
4709.00,1.18
4708.00,1.18
4707.00,1.18
4706.00,1.18
4705.00,1.18
4704.00,1.17
4703.00,1.17
4702.00,1.17
4701.00,1.18
4700.00,1.18
4699.00,1.18
4698.00,1.18
4697.00,1.18
4696.00,1.18
4695.00,1.18
4694.00,1.18
4693.00,1.18
4692.00,1.18
4691.00,1.18
4690.00,1.18
4689.00,1.18
4688.00,1.18
4687.00,1.18
4686.00,1.18
4685.00,1.19
4684.00,1.19
4683.00,1.19
4682.00,1.20
4681.00,1.20
4680.00,1.20
4679.00,1.21
4678.00,1.21
4677.00,1.21
4676.00,1.22
4675.00,1.22
4674.00,1.23
4673.00,1.23
4672.00,1.23
4671.00,1.24
4670.00,1.24
4669.00,1.25
4668.00,1.25
4667.00,1.26
4666.00,1.26
4665.00,1.27
4664.00,1.27
4663.00,1.27
4662.00,1.28
4661.00,1.28
4660.00,1.28
4659.00,1.29
4658.00,1.29
4657.00,1.29
4656.00,1.29
4655.00,1.29
4654.00,1.30
4653.00,1.30
4652.00,1.30
4651.00,1.30
4650.00,1.30
4649.00,1.30
4648.00,1.30
4647.00,1.31
4646.00,1.31
4645.00,1.31
4644.00,1.31
4643.00,1.31
4642.00,1.31
4641.00,1.31
4640.00,1.31
4639.00,1.31
4638.00,1.31
4637.00,1.31
4636.00,1.32
4635.00,1.32
4634.00,1.32
4633.00,1.32
4632.00,1.32
4631.00,1.32
4630.00,1.32
4629.00,1.32
4628.00,1.33
4627.00,1.33
4626.00,1.33
4625.00,1.33
4624.00,1.33
4623.00,1.34
4622.00,1.34
4621.00,1.34
4620.00,1.34
4619.00,1.34
4618.00,1.34
4617.00,1.34
4616.00,1.34
4615.00,1.34
4614.00,1.35
4613.00,1.35
4612.00,1.35
4611.00,1.35
4610.00,1.35
4609.00,1.35
4608.00,1.35
4607.00,1.35
4606.00,1.35
4605.00,1.35
4604.00,1.35
4603.00,1.35
4602.00,1.35
4601.00,1.35
4600.00,1.35
4599.00,1.35
4598.00,1.35
4597.00,1.35
4596.00,1.35
4595.00,1.35
4594.00,1.35
4593.00,1.35
4592.00,1.35
4591.00,1.35
4590.00,1.35
4589.00,1.35
4588.00,1.35
4587.00,1.35
4586.00,1.35
4585.00,1.34
4584.00,1.34
4583.00,1.34
4582.00,1.34
4581.00,1.34
4580.00,1.35
4579.00,1.35
4578.00,1.35
4577.00,1.35
4576.00,1.35
4575.00,1.35
4574.00,1.35
4573.00,1.35
4572.00,1.35
4571.00,1.34
4570.00,1.34
4569.00,1.34
4568.00,1.34
4567.00,1.34
4566.00,1.34
4565.00,1.34
4564.00,1.34
4563.00,1.34
4562.00,1.34
4561.00,1.34
4560.00,1.34
4559.00,1.34
4558.00,1.34
4557.00,1.34
4556.00,1.35
4555.00,1.35
4554.00,1.35
4553.00,1.35
4552.00,1.35
4551.00,1.35
4550.00,1.36
4549.00,1.36
4548.00,1.36
4547.00,1.36
4546.00,1.37
4545.00,1.37
4544.00,1.37
4543.00,1.38
4542.00,1.38
4541.00,1.38
4540.00,1.39
4539.00,1.39
4538.00,1.40
4537.00,1.40
4536.00,1.40
4535.00,1.40
4534.00,1.41
4533.00,1.41
4532.00,1.41
4531.00,1.41
4530.00,1.41
4529.00,1.41
4528.00,1.41
4527.00,1.41
4526.00,1.41
4525.00,1.41
4524.00,1.41
4523.00,1.41
4522.00,1.41
4521.00,1.41
4520.00,1.40
4519.00,1.40
4518.00,1.40
4517.00,1.40
4516.00,1.39
4515.00,1.39
4514.00,1.39
4513.00,1.39
4512.00,1.38
4511.00,1.38
4510.00,1.38
4509.00,1.37
4508.00,1.37
4507.00,1.37
4506.00,1.37
4505.00,1.36
4504.00,1.36
4503.00,1.36
4502.00,1.35
4501.00,1.35
4500.00,1.35
4499.00,1.34
4498.00,1.34
4497.00,1.34
4496.00,1.33
4495.00,1.33
4494.00,1.33
4493.00,1.33
4492.00,1.32
4491.00,1.32
4490.00,1.32
4489.00,1.32
4488.00,1.32
4487.00,1.32
4486.00,1.32
4485.00,1.32
4484.00,1.32
4483.00,1.32
4482.00,1.32
4481.00,1.32
4480.00,1.32
4479.00,1.32
4478.00,1.32
4477.00,1.32
4476.00,1.32
4475.00,1.32
4474.00,1.32
4473.00,1.32
4472.00,1.32
4471.00,1.32
4470.00,1.32
4469.00,1.32
4468.00,1.32
4467.00,1.32
4466.00,1.32
4465.00,1.32
4464.00,1.32
4463.00,1.32
4462.00,1.32
4461.00,1.31
4460.00,1.31
4459.00,1.31
4458.00,1.31
4457.00,1.31
4456.00,1.30
4455.00,1.30
4454.00,1.30
4453.00,1.29
4452.00,1.29
4451.00,1.29
4450.00,1.28
4449.00,1.28
4448.00,1.28
4447.00,1.27
4446.00,1.27
4445.00,1.26
4444.00,1.26
4443.00,1.26
4442.00,1.25
4441.00,1.25
4440.00,1.24
4439.00,1.24
4438.00,1.23
4437.00,1.23
4436.00,1.22
4435.00,1.22
4434.00,1.22
4433.00,1.21
4432.00,1.21
4431.00,1.21
4430.00,1.20
4429.00,1.20
4428.00,1.20
4427.00,1.20
4426.00,1.20
4425.00,1.20
4424.00,1.20
4423.00,1.20
4422.00,1.20
4421.00,1.20
4420.00,1.20
4419.00,1.21
4418.00,1.21
4417.00,1.21
4416.00,1.21
4415.00,1.22
4414.00,1.22
4413.00,1.22
4412.00,1.22
4411.00,1.22
4410.00,1.22
4409.00,1.23
4408.00,1.23
4407.00,1.23
4406.00,1.23
4405.00,1.24
4404.00,1.24
4403.00,1.24
4402.00,1.24
4401.00,1.24
4400.00,1.24
4399.00,1.24
4398.00,1.24
4397.00,1.24
4396.00,1.24
4395.00,1.24
4394.00,1.24
4393.00,1.24
4392.00,1.24
4391.00,1.23
4390.00,1.23
4389.00,1.23
4388.00,1.23
4387.00,1.23
4386.00,1.23
4385.00,1.23
4384.00,1.23
4383.00,1.23
4382.00,1.22
4381.00,1.22
4380.00,1.22
4379.00,1.22
4378.00,1.22
4377.00,1.22
4376.00,1.22
4375.00,1.21
4374.00,1.21
4373.00,1.21
4372.00,1.21
4371.00,1.21
4370.00,1.21
4369.00,1.21
4368.00,1.21
4367.00,1.21
4366.00,1.21
4365.00,1.22
4364.00,1.22
4363.00,1.22
4362.00,1.22
4361.00,1.22
4360.00,1.22
4359.00,1.22
4358.00,1.22
4357.00,1.22
4356.00,1.22
4355.00,1.22
4354.00,1.22
4353.00,1.22
4352.00,1.22
4351.00,1.22
4350.00,1.22
4349.00,1.22
4348.00,1.22
4347.00,1.22
4346.00,1.22
4345.00,1.22
4344.00,1.22
4343.00,1.22
4342.00,1.22
4341.00,1.22
4340.00,1.22
4339.00,1.22
4338.00,1.22
4337.00,1.22
4336.00,1.22
4335.00,1.22
4334.00,1.21
4333.00,1.21
4332.00,1.21
4331.00,1.21
4330.00,1.21
4329.00,1.21
4328.00,1.21
4327.00,1.21
4326.00,1.21
4325.00,1.21
4324.00,1.21
4323.00,1.22
4322.00,1.22
4321.00,1.22
4320.00,1.22
4319.00,1.23
4318.00,1.23
4317.00,1.23
4316.00,1.23
4315.00,1.24
4314.00,1.24
4313.00,1.24
4312.00,1.25
4311.00,1.25
4310.00,1.26
4309.00,1.26
4308.00,1.26
4307.00,1.27
4306.00,1.27
4305.00,1.28
4304.00,1.28
4303.00,1.28
4302.00,1.29
4301.00,1.29
4300.00,1.29
4299.00,1.30
4298.00,1.30
4297.00,1.30
4296.00,1.30
4295.00,1.30
4294.00,1.31
4293.00,1.31
4292.00,1.31
4291.00,1.31
4290.00,1.31
4289.00,1.31
4288.00,1.31
4287.00,1.31
4286.00,1.31
4285.00,1.31
4284.00,1.31
4283.00,1.30
4282.00,1.30
4281.00,1.30
4280.00,1.30
4279.00,1.30
4278.00,1.30
4277.00,1.30
4276.00,1.30
4275.00,1.30
4274.00,1.30
4273.00,1.30
4272.00,1.30
4271.00,1.30
4270.00,1.30
4269.00,1.30
4268.00,1.30
4267.00,1.30
4266.00,1.30
4265.00,1.30
4264.00,1.31
4263.00,1.31
4262.00,1.31
4261.00,1.31
4260.00,1.31
4259.00,1.32
4258.00,1.32
4257.00,1.33
4256.00,1.33
4255.00,1.33
4254.00,1.34
4253.00,1.34
4252.00,1.34
4251.00,1.34
4250.00,1.35
4249.00,1.35
4248.00,1.35
4247.00,1.35
4246.00,1.35
4245.00,1.35
4244.00,1.35
4243.00,1.36
4242.00,1.36
4241.00,1.36
4240.00,1.36
4239.00,1.36
4238.00,1.36
4237.00,1.36
4236.00,1.36
4235.00,1.36
4234.00,1.36
4233.00,1.36
4232.00,1.36
4231.00,1.35
4230.00,1.35
4229.00,1.35
4228.00,1.35
4227.00,1.34
4226.00,1.34
4225.00,1.34
4224.00,1.33
4223.00,1.33
4222.00,1.33
4221.00,1.32
4220.00,1.32
4219.00,1.32
4218.00,1.31
4217.00,1.31
4216.00,1.31
4215.00,1.30
4214.00,1.30
4213.00,1.30
4212.00,1.29
4211.00,1.29
4210.00,1.29
4209.00,1.29
4208.00,1.29
4207.00,1.29
4206.00,1.29
4205.00,1.29
4204.00,1.29
4203.00,1.29
4202.00,1.29
4201.00,1.29
4200.00,1.30
4199.00,1.30
4198.00,1.30
4197.00,1.30
4196.00,1.30
4195.00,1.30
4194.00,1.31
4193.00,1.31
4192.00,1.31
4191.00,1.32
4190.00,1.32
4189.00,1.33
4188.00,1.33
4187.00,1.34
4186.00,1.34
4185.00,1.34
4184.00,1.34
4183.00,1.35
4182.00,1.35
4181.00,1.35
4180.00,1.35
4179.00,1.35
4178.00,1.35
4177.00,1.35
4176.00,1.35
4175.00,1.35
4174.00,1.35
4173.00,1.35
4172.00,1.36
4171.00,1.36
4170.00,1.36
4169.00,1.36
4168.00,1.36
4167.00,1.36
4166.00,1.36
4165.00,1.36
4164.00,1.36
4163.00,1.36
4162.00,1.36
4161.00,1.36
4160.00,1.36
4159.00,1.36
4158.00,1.36
4157.00,1.37
4156.00,1.37
4155.00,1.37
4154.00,1.37
4153.00,1.38
4152.00,1.38
4151.00,1.38
4150.00,1.38
4149.00,1.39
4148.00,1.39
4147.00,1.39
4146.00,1.39
4145.00,1.39
4144.00,1.39
4143.00,1.39
4142.00,1.39
4141.00,1.39
4140.00,1.39
4139.00,1.39
4138.00,1.39
4137.00,1.39
4136.00,1.39
4135.00,1.39
4134.00,1.39
4133.00,1.39
4132.00,1.39
4131.00,1.39
4130.00,1.38
4129.00,1.38
4128.00,1.38
4127.00,1.38
4126.00,1.38
4125.00,1.38
4124.00,1.38
4123.00,1.38
4122.00,1.38
4121.00,1.39
4120.00,1.39
4119.00,1.39
4118.00,1.39
4117.00,1.39
4116.00,1.39
4115.00,1.39
4114.00,1.39
4113.00,1.39
4112.00,1.39
4111.00,1.39
4110.00,1.39
4109.00,1.39
4108.00,1.39
4107.00,1.39
4106.00,1.39
4105.00,1.40
4104.00,1.40
4103.00,1.40
4102.00,1.40
4101.00,1.40
4100.00,1.40
4099.00,1.40
4098.00,1.40
4097.00,1.40
4096.00,1.40
4095.00,1.41
4094.00,1.41
4093.00,1.41
4092.00,1.41
4091.00,1.41
4090.00,1.41
4089.00,1.42
4088.00,1.42
4087.00,1.42
4086.00,1.42
4085.00,1.42
4084.00,1.42
4083.00,1.42
4082.00,1.43
4081.00,1.43
4080.00,1.43
4079.00,1.43
4078.00,1.43
4077.00,1.43
4076.00,1.42
4075.00,1.42
4074.00,1.42
4073.00,1.42
4072.00,1.41
4071.00,1.41
4070.00,1.41
4069.00,1.40
4068.00,1.40
4067.00,1.39
4066.00,1.39
4065.00,1.38
4064.00,1.38
4063.00,1.37
4062.00,1.37
4061.00,1.36
4060.00,1.35
4059.00,1.35
4058.00,1.34
4057.00,1.34
4056.00,1.33
4055.00,1.33
4054.00,1.33
4053.00,1.32
4052.00,1.32
4051.00,1.32
4050.00,1.32
4049.00,1.32
4048.00,1.32
4047.00,1.32
4046.00,1.32
4045.00,1.32
4044.00,1.33
4043.00,1.33
4042.00,1.33
4041.00,1.33
4040.00,1.33
4039.00,1.33
4038.00,1.34
4037.00,1.34
4036.00,1.34
4035.00,1.35
4034.00,1.35
4033.00,1.36
4032.00,1.37
4031.00,1.37
4030.00,1.38
4029.00,1.39
4028.00,1.39
4027.00,1.40
4026.00,1.40
4025.00,1.41
4024.00,1.41
4023.00,1.41
4022.00,1.42
4021.00,1.42
4020.00,1.43
4019.00,1.43
4018.00,1.44
4017.00,1.44
4016.00,1.45
4015.00,1.46
4014.00,1.46
4013.00,1.47
4012.00,1.48
4011.00,1.49
4010.00,1.50
4009.00,1.51
4008.00,1.52
4007.00,1.53
4006.00,1.54
4005.00,1.55
4004.00,1.56
4003.00,1.57
4002.00,1.58
4001.00,1.59
4000.00,1.60
