创建为新数据集,样品 217 用户 Administrator 日期 星期六, 七月 27 2019
cm-1,%T
10000.00,1.73
9999.00,1.72
9998.00,1.72
9997.00,1.72
9996.00,1.71
9995.00,1.71
9994.00,1.70
9993.00,1.70
9992.00,1.70
9991.00,1.69
9990.00,1.69
9989.00,1.69
9988.00,1.68
9987.00,1.68
9986.00,1.67
9985.00,1.67
9984.00,1.66
9983.00,1.65
9982.00,1.65
9981.00,1.64
9980.00,1.64
9979.00,1.63
9978.00,1.63
9977.00,1.63
9976.00,1.62
9975.00,1.62
9974.00,1.62
9973.00,1.62
9972.00,1.61
9971.00,1.61
9970.00,1.61
9969.00,1.60
9968.00,1.60
9967.00,1.59
9966.00,1.59
9965.00,1.58
9964.00,1.58
9963.00,1.58
9962.00,1.57
9961.00,1.57
9960.00,1.58
9959.00,1.58
9958.00,1.58
9957.00,1.59
9956.00,1.60
9955.00,1.60
9954.00,1.61
9953.00,1.62
9952.00,1.63
9951.00,1.63
9950.00,1.64
9949.00,1.64
9948.00,1.65
9947.00,1.65
9946.00,1.65
9945.00,1.66
9944.00,1.66
9943.00,1.66
9942.00,1.67
9941.00,1.67
9940.00,1.67
9939.00,1.68
9938.00,1.68
9937.00,1.68
9936.00,1.69
9935.00,1.69
9934.00,1.69
9933.00,1.68
9932.00,1.68
9931.00,1.68
9930.00,1.67
9929.00,1.66
9928.00,1.65
9927.00,1.64
9926.00,1.64
9925.00,1.63
9924.00,1.62
9923.00,1.62
9922.00,1.61
9921.00,1.61
9920.00,1.61
9919.00,1.61
9918.00,1.61
9917.00,1.61
9916.00,1.61
9915.00,1.61
9914.00,1.61
9913.00,1.61
9912.00,1.61
9911.00,1.61
9910.00,1.61
9909.00,1.61
9908.00,1.60
9907.00,1.60
9906.00,1.60
9905.00,1.60
9904.00,1.60
9903.00,1.60
9902.00,1.60
9901.00,1.61
9900.00,1.61
9899.00,1.60
9898.00,1.60
9897.00,1.60
9896.00,1.60
9895.00,1.59
9894.00,1.59
9893.00,1.59
9892.00,1.58
9891.00,1.57
9890.00,1.57
9889.00,1.56
9888.00,1.56
9887.00,1.55
9886.00,1.55
9885.00,1.55
9884.00,1.55
9883.00,1.55
9882.00,1.55
9881.00,1.55
9880.00,1.55
9879.00,1.55
9878.00,1.56
9877.00,1.56
9876.00,1.56
9875.00,1.57
9874.00,1.57
9873.00,1.57
9872.00,1.58
9871.00,1.58
9870.00,1.58
9869.00,1.58
9868.00,1.59
9867.00,1.59
9866.00,1.59
9865.00,1.59
9864.00,1.59
9863.00,1.59
9862.00,1.59
9861.00,1.59
9860.00,1.59
9859.00,1.58
9858.00,1.58
9857.00,1.58
9856.00,1.57
9855.00,1.57
9854.00,1.56
9853.00,1.55
9852.00,1.55
9851.00,1.54
9850.00,1.53
9849.00,1.53
9848.00,1.52
9847.00,1.52
9846.00,1.52
9845.00,1.52
9844.00,1.52
9843.00,1.52
9842.00,1.52
9841.00,1.53
9840.00,1.53
9839.00,1.53
9838.00,1.54
9837.00,1.54
9836.00,1.55
9835.00,1.55
9834.00,1.56
9833.00,1.56
9832.00,1.57
9831.00,1.58
9830.00,1.59
9829.00,1.59
9828.00,1.60
9827.00,1.61
9826.00,1.62
9825.00,1.62
9824.00,1.63
9823.00,1.63
9822.00,1.64
9821.00,1.64
9820.00,1.65
9819.00,1.65
9818.00,1.65
9817.00,1.65
9816.00,1.66
9815.00,1.66
9814.00,1.66
9813.00,1.67
9812.00,1.67
9811.00,1.67
9810.00,1.68
9809.00,1.68
9808.00,1.68
9807.00,1.68
9806.00,1.69
9805.00,1.69
9804.00,1.69
9803.00,1.69
9802.00,1.69
9801.00,1.70
9800.00,1.70
9799.00,1.70
9798.00,1.70
9797.00,1.70
9796.00,1.70
9795.00,1.71
9794.00,1.71
9793.00,1.70
9792.00,1.70
9791.00,1.70
9790.00,1.70
9789.00,1.69
9788.00,1.68
9787.00,1.68
9786.00,1.67
9785.00,1.66
9784.00,1.65
9783.00,1.64
9782.00,1.63
9781.00,1.62
9780.00,1.61
9779.00,1.60
9778.00,1.59
9777.00,1.58
9776.00,1.57
9775.00,1.56
9774.00,1.55
9773.00,1.55
9772.00,1.54
9771.00,1.53
9770.00,1.52
9769.00,1.51
9768.00,1.51
9767.00,1.50
9766.00,1.50
9765.00,1.49
9764.00,1.49
9763.00,1.49
9762.00,1.49
9761.00,1.49
9760.00,1.49
9759.00,1.49
9758.00,1.49
9757.00,1.49
9756.00,1.50
9755.00,1.50
9754.00,1.50
9753.00,1.50
9752.00,1.50
9751.00,1.50
9750.00,1.51
9749.00,1.51
9748.00,1.51
9747.00,1.51
9746.00,1.51
9745.00,1.51
9744.00,1.51
9743.00,1.51
9742.00,1.51
9741.00,1.51
9740.00,1.51
9739.00,1.51
9738.00,1.51
9737.00,1.51
9736.00,1.51
9735.00,1.51
9734.00,1.50
9733.00,1.50
9732.00,1.50
9731.00,1.49
9730.00,1.48
9729.00,1.48
9728.00,1.47
9727.00,1.47
9726.00,1.46
9725.00,1.46
9724.00,1.46
9723.00,1.45
9722.00,1.45
9721.00,1.45
9720.00,1.45
9719.00,1.44
9718.00,1.44
9717.00,1.44
9716.00,1.44
9715.00,1.44
9714.00,1.44
9713.00,1.44
9712.00,1.45
9711.00,1.45
9710.00,1.45
9709.00,1.45
9708.00,1.45
9707.00,1.45
9706.00,1.45
9705.00,1.46
9704.00,1.46
9703.00,1.46
9702.00,1.46
9701.00,1.47
9700.00,1.47
9699.00,1.47
9698.00,1.47
9697.00,1.47
9696.00,1.47
9695.00,1.47
9694.00,1.47
9693.00,1.47
9692.00,1.47
9691.00,1.47
9690.00,1.46
9689.00,1.46
9688.00,1.46
9687.00,1.45
9686.00,1.45
9685.00,1.45
9684.00,1.45
9683.00,1.44
9682.00,1.44
9681.00,1.44
9680.00,1.44
9679.00,1.44
9678.00,1.44
9677.00,1.44
9676.00,1.45
9675.00,1.45
9674.00,1.45
9673.00,1.45
9672.00,1.46
9671.00,1.46
9670.00,1.47
9669.00,1.47
9668.00,1.48
9667.00,1.48
9666.00,1.49
9665.00,1.50
9664.00,1.50
9663.00,1.51
9662.00,1.51
9661.00,1.52
9660.00,1.52
9659.00,1.52
9658.00,1.53
9657.00,1.53
9656.00,1.53
9655.00,1.54
9654.00,1.54
9653.00,1.54
9652.00,1.54
9651.00,1.54
9650.00,1.54
9649.00,1.54
9648.00,1.54
9647.00,1.54
9646.00,1.54
9645.00,1.54
9644.00,1.54
9643.00,1.54
9642.00,1.54
9641.00,1.54
9640.00,1.54
9639.00,1.54
9638.00,1.54
9637.00,1.54
9636.00,1.54
9635.00,1.55
9634.00,1.55
9633.00,1.55
9632.00,1.55
9631.00,1.56
9630.00,1.56
9629.00,1.56
9628.00,1.56
9627.00,1.56
9626.00,1.57
9625.00,1.57
9624.00,1.57
9623.00,1.57
9622.00,1.57
9621.00,1.58
9620.00,1.58
9619.00,1.58
9618.00,1.58
9617.00,1.58
9616.00,1.59
9615.00,1.59
9614.00,1.59
9613.00,1.58
9612.00,1.58
9611.00,1.58
9610.00,1.58
9609.00,1.58
9608.00,1.58
9607.00,1.58
9606.00,1.58
9605.00,1.58
9604.00,1.58
9603.00,1.58
9602.00,1.58
9601.00,1.58
9600.00,1.58
9599.00,1.59
9598.00,1.59
9597.00,1.59
9596.00,1.59
9595.00,1.59
9594.00,1.59
9593.00,1.59
9592.00,1.59
9591.00,1.58
9590.00,1.58
9589.00,1.58
9588.00,1.58
9587.00,1.57
9586.00,1.57
9585.00,1.57
9584.00,1.57
9583.00,1.57
9582.00,1.57
9581.00,1.56
9580.00,1.56
9579.00,1.56
9578.00,1.55
9577.00,1.55
9576.00,1.54
9575.00,1.53
9574.00,1.53
9573.00,1.52
9572.00,1.51
9571.00,1.51
9570.00,1.50
9569.00,1.50
9568.00,1.49
9567.00,1.49
9566.00,1.49
9565.00,1.48
9564.00,1.48
9563.00,1.48
9562.00,1.48
9561.00,1.47
9560.00,1.47
9559.00,1.47
9558.00,1.47
9557.00,1.47
9556.00,1.46
9555.00,1.46
9554.00,1.46
9553.00,1.46
9552.00,1.46
9551.00,1.46
9550.00,1.46
9549.00,1.46
9548.00,1.46
9547.00,1.47
9546.00,1.47
9545.00,1.47
9544.00,1.47
9543.00,1.47
9542.00,1.48
9541.00,1.48
9540.00,1.48
9539.00,1.49
9538.00,1.49
9537.00,1.50
9536.00,1.50
9535.00,1.51
9534.00,1.52
9533.00,1.52
9532.00,1.53
9531.00,1.53
9530.00,1.54
9529.00,1.54
9528.00,1.55
9527.00,1.55
9526.00,1.55
9525.00,1.56
9524.00,1.56
9523.00,1.57
9522.00,1.57
9521.00,1.57
9520.00,1.57
9519.00,1.58
9518.00,1.58
9517.00,1.58
9516.00,1.58
9515.00,1.58
9514.00,1.57
9513.00,1.57
9512.00,1.57
9511.00,1.56
9510.00,1.56
9509.00,1.55
9508.00,1.54
9507.00,1.54
9506.00,1.53
9505.00,1.53
9504.00,1.52
9503.00,1.52
9502.00,1.51
9501.00,1.51
9500.00,1.50
9499.00,1.50
9498.00,1.49
9497.00,1.49
9496.00,1.48
9495.00,1.48
9494.00,1.47
9493.00,1.47
9492.00,1.46
9491.00,1.46
9490.00,1.46
9489.00,1.46
9488.00,1.46
9487.00,1.46
9486.00,1.45
9485.00,1.45
9484.00,1.46
9483.00,1.46
9482.00,1.46
9481.00,1.46
9480.00,1.46
9479.00,1.46
9478.00,1.46
9477.00,1.46
9476.00,1.46
9475.00,1.46
9474.00,1.47
9473.00,1.47
9472.00,1.47
9471.00,1.47
9470.00,1.48
9469.00,1.48
9468.00,1.49
9467.00,1.49
9466.00,1.49
9465.00,1.50
9464.00,1.50
9463.00,1.51
9462.00,1.51
9461.00,1.51
9460.00,1.52
9459.00,1.52
9458.00,1.53
9457.00,1.54
9456.00,1.54
9455.00,1.55
9454.00,1.55
9453.00,1.56
9452.00,1.57
9451.00,1.57
9450.00,1.58
9449.00,1.58
9448.00,1.59
9447.00,1.59
9446.00,1.60
9445.00,1.60
9444.00,1.61
9443.00,1.61
9442.00,1.61
9441.00,1.61
9440.00,1.62
9439.00,1.62
9438.00,1.62
9437.00,1.63
9436.00,1.63
9435.00,1.63
9434.00,1.64
9433.00,1.64
9432.00,1.64
9431.00,1.64
9430.00,1.65
9429.00,1.65
9428.00,1.65
9427.00,1.65
9426.00,1.65
9425.00,1.65
9424.00,1.65
9423.00,1.64
9422.00,1.64
9421.00,1.64
9420.00,1.64
9419.00,1.64
9418.00,1.63
9417.00,1.63
9416.00,1.63
9415.00,1.63
9414.00,1.62
9413.00,1.62
9412.00,1.62
9411.00,1.61
9410.00,1.61
9409.00,1.61
9408.00,1.60
9407.00,1.60
9406.00,1.59
9405.00,1.59
9404.00,1.58
9403.00,1.58
9402.00,1.57
9401.00,1.57
9400.00,1.57
9399.00,1.57
9398.00,1.56
9397.00,1.56
9396.00,1.56
9395.00,1.56
9394.00,1.56
9393.00,1.56
9392.00,1.57
9391.00,1.57
9390.00,1.57
9389.00,1.57
9388.00,1.58
9387.00,1.58
9386.00,1.59
9385.00,1.59
9384.00,1.59
9383.00,1.60
9382.00,1.60
9381.00,1.60
9380.00,1.61
9379.00,1.61
9378.00,1.61
9377.00,1.62
9376.00,1.62
9375.00,1.62
9374.00,1.62
9373.00,1.63
9372.00,1.63
9371.00,1.63
9370.00,1.63
9369.00,1.62
9368.00,1.62
9367.00,1.62
9366.00,1.61
9365.00,1.61
9364.00,1.60
9363.00,1.59
9362.00,1.58
9361.00,1.58
9360.00,1.57
9359.00,1.56
9358.00,1.55
9357.00,1.55
9356.00,1.54
9355.00,1.53
9354.00,1.52
9353.00,1.51
9352.00,1.50
9351.00,1.50
9350.00,1.49
9349.00,1.48
9348.00,1.47
9347.00,1.46
9346.00,1.45
9345.00,1.45
9344.00,1.44
9343.00,1.44
9342.00,1.44
9341.00,1.43
9340.00,1.43
9339.00,1.43
9338.00,1.43
9337.00,1.43
9336.00,1.43
9335.00,1.43
9334.00,1.43
9333.00,1.43
9332.00,1.43
9331.00,1.43
9330.00,1.43
9329.00,1.44
9328.00,1.44
9327.00,1.44
9326.00,1.45
9325.00,1.45
9324.00,1.46
9323.00,1.47
9322.00,1.47
9321.00,1.48
9320.00,1.48
9319.00,1.49
9318.00,1.50
9317.00,1.50
9316.00,1.50
9315.00,1.51
9314.00,1.51
9313.00,1.52
9312.00,1.52
9311.00,1.53
9310.00,1.53
9309.00,1.54
9308.00,1.55
9307.00,1.55
9306.00,1.56
9305.00,1.56
9304.00,1.57
9303.00,1.57
9302.00,1.57
9301.00,1.58
9300.00,1.58
9299.00,1.58
9298.00,1.58
9297.00,1.58
9296.00,1.58
9295.00,1.59
9294.00,1.59
9293.00,1.59
9292.00,1.59
9291.00,1.59
9290.00,1.59
9289.00,1.59
9288.00,1.59
9287.00,1.59
9286.00,1.59
9285.00,1.59
9284.00,1.59
9283.00,1.59
9282.00,1.59
9281.00,1.58
9280.00,1.58
9279.00,1.57
9278.00,1.57
9277.00,1.57
9276.00,1.56
9275.00,1.56
9274.00,1.55
9273.00,1.55
9272.00,1.54
9271.00,1.53
9270.00,1.53
9269.00,1.52
9268.00,1.52
9267.00,1.51
9266.00,1.50
9265.00,1.50
9264.00,1.49
9263.00,1.48
9262.00,1.48
9261.00,1.47
9260.00,1.47
9259.00,1.47
9258.00,1.46
9257.00,1.46
9256.00,1.46
9255.00,1.46
9254.00,1.46
9253.00,1.46
9252.00,1.46
9251.00,1.46
9250.00,1.46
9249.00,1.46
9248.00,1.46
9247.00,1.46
9246.00,1.47
9245.00,1.47
9244.00,1.47
9243.00,1.48
9242.00,1.49
9241.00,1.49
9240.00,1.50
9239.00,1.50
9238.00,1.51
9237.00,1.51
9236.00,1.52
9235.00,1.52
9234.00,1.53
9233.00,1.53
9232.00,1.53
9231.00,1.53
9230.00,1.53
9229.00,1.54
9228.00,1.54
9227.00,1.54
9226.00,1.54
9225.00,1.54
9224.00,1.54
9223.00,1.54
9222.00,1.54
9221.00,1.54
9220.00,1.54
9219.00,1.54
9218.00,1.53
9217.00,1.53
9216.00,1.53
9215.00,1.53
9214.00,1.52
9213.00,1.52
9212.00,1.52
9211.00,1.52
9210.00,1.52
9209.00,1.52
9208.00,1.52
9207.00,1.52
9206.00,1.52
9205.00,1.53
9204.00,1.53
9203.00,1.53
9202.00,1.54
9201.00,1.54
9200.00,1.55
9199.00,1.55
9198.00,1.56
9197.00,1.56
9196.00,1.57
9195.00,1.57
9194.00,1.58
9193.00,1.58
9192.00,1.59
9191.00,1.59
9190.00,1.59
9189.00,1.60
9188.00,1.60
9187.00,1.60
9186.00,1.60
9185.00,1.61
9184.00,1.61
9183.00,1.60
9182.00,1.60
9181.00,1.60
9180.00,1.60
9179.00,1.59
9178.00,1.59
9177.00,1.59
9176.00,1.58
9175.00,1.57
9174.00,1.57
9173.00,1.56
9172.00,1.56
9171.00,1.55
9170.00,1.54
9169.00,1.54
9168.00,1.53
9167.00,1.53
9166.00,1.52
9165.00,1.52
9164.00,1.52
9163.00,1.51
9162.00,1.51
9161.00,1.51
9160.00,1.51
9159.00,1.51
9158.00,1.51
9157.00,1.51
9156.00,1.51
9155.00,1.52
9154.00,1.52
9153.00,1.52
9152.00,1.53
9151.00,1.53
9150.00,1.53
9149.00,1.54
9148.00,1.54
9147.00,1.54
9146.00,1.55
9145.00,1.55
9144.00,1.55
9143.00,1.55
9142.00,1.56
9141.00,1.56
9140.00,1.56
9139.00,1.56
9138.00,1.56
9137.00,1.56
9136.00,1.56
9135.00,1.56
9134.00,1.56
9133.00,1.56
9132.00,1.56
9131.00,1.56
9130.00,1.55
9129.00,1.55
9128.00,1.55
9127.00,1.55
9126.00,1.54
9125.00,1.54
9124.00,1.54
9123.00,1.54
9122.00,1.54
9121.00,1.54
9120.00,1.54
9119.00,1.54
9118.00,1.54
9117.00,1.54
9116.00,1.54
9115.00,1.54
9114.00,1.54
9113.00,1.54
9112.00,1.55
9111.00,1.55
9110.00,1.55
9109.00,1.55
9108.00,1.55
9107.00,1.55
9106.00,1.55
9105.00,1.55
9104.00,1.55
9103.00,1.55
9102.00,1.55
9101.00,1.55
9100.00,1.55
9099.00,1.55
9098.00,1.55
9097.00,1.55
9096.00,1.55
9095.00,1.55
9094.00,1.55
9093.00,1.55
9092.00,1.55
9091.00,1.55
9090.00,1.55
9089.00,1.55
9088.00,1.56
9087.00,1.56
9086.00,1.56
9085.00,1.56
9084.00,1.57
9083.00,1.57
9082.00,1.57
9081.00,1.57
9080.00,1.58
9079.00,1.58
9078.00,1.58
9077.00,1.59
9076.00,1.59
9075.00,1.60
9074.00,1.60
9073.00,1.61
9072.00,1.61
9071.00,1.61
9070.00,1.62
9069.00,1.62
9068.00,1.62
9067.00,1.62
9066.00,1.63
9065.00,1.63
9064.00,1.63
9063.00,1.63
9062.00,1.63
9061.00,1.63
9060.00,1.63
9059.00,1.63
9058.00,1.63
9057.00,1.63
9056.00,1.63
9055.00,1.63
9054.00,1.63
9053.00,1.63
9052.00,1.62
9051.00,1.62
9050.00,1.61
9049.00,1.61
9048.00,1.60
9047.00,1.60
9046.00,1.59
9045.00,1.58
9044.00,1.58
9043.00,1.57
9042.00,1.57
9041.00,1.56
9040.00,1.56
9039.00,1.55
9038.00,1.55
9037.00,1.54
9036.00,1.53
9035.00,1.53
9034.00,1.52
9033.00,1.52
9032.00,1.51
9031.00,1.51
9030.00,1.50
9029.00,1.50
9028.00,1.50
9027.00,1.50
9026.00,1.50
9025.00,1.50
9024.00,1.50
9023.00,1.50
9022.00,1.50
9021.00,1.50
9020.00,1.50
9019.00,1.51
9018.00,1.51
9017.00,1.51
9016.00,1.52
9015.00,1.52
9014.00,1.52
9013.00,1.53
9012.00,1.53
9011.00,1.53
9010.00,1.53
9009.00,1.54
9008.00,1.54
9007.00,1.54
9006.00,1.54
9005.00,1.55
9004.00,1.55
9003.00,1.55
9002.00,1.55
9001.00,1.55
9000.00,1.55
8999.00,1.55
8998.00,1.55
8997.00,1.55
8996.00,1.55
8995.00,1.55
8994.00,1.55
8993.00,1.55
8992.00,1.55
8991.00,1.56
8990.00,1.56
8989.00,1.56
8988.00,1.56
8987.00,1.56
8986.00,1.56
8985.00,1.56
8984.00,1.57
8983.00,1.57
8982.00,1.57
8981.00,1.57
8980.00,1.57
8979.00,1.58
8978.00,1.58
8977.00,1.58
8976.00,1.59
8975.00,1.59
8974.00,1.59
8973.00,1.59
8972.00,1.59
8971.00,1.60
8970.00,1.60
8969.00,1.60
8968.00,1.59
8967.00,1.59
8966.00,1.59
8965.00,1.59
8964.00,1.58
8963.00,1.58
8962.00,1.58
8961.00,1.57
8960.00,1.57
8959.00,1.57
8958.00,1.56
8957.00,1.56
8956.00,1.56
8955.00,1.55
8954.00,1.55
8953.00,1.54
8952.00,1.54
8951.00,1.53
8950.00,1.53
8949.00,1.52
8948.00,1.52
8947.00,1.51
8946.00,1.51
8945.00,1.51
8944.00,1.50
8943.00,1.50
8942.00,1.50
8941.00,1.50
8940.00,1.50
8939.00,1.50
8938.00,1.50
8937.00,1.50
8936.00,1.50
8935.00,1.50
8934.00,1.50
8933.00,1.51
8932.00,1.51
8931.00,1.51
8930.00,1.51
8929.00,1.52
8928.00,1.52
8927.00,1.52
8926.00,1.53
8925.00,1.53
8924.00,1.54
8923.00,1.54
8922.00,1.55
8921.00,1.55
8920.00,1.56
8919.00,1.56
8918.00,1.57
8917.00,1.57
8916.00,1.58
8915.00,1.58
8914.00,1.58
8913.00,1.58
8912.00,1.58
8911.00,1.59
8910.00,1.59
8909.00,1.58
8908.00,1.58
8907.00,1.58
8906.00,1.58
8905.00,1.58
8904.00,1.57
8903.00,1.57
8902.00,1.57
8901.00,1.57
8900.00,1.56
8899.00,1.56
8898.00,1.55
8897.00,1.55
8896.00,1.55
8895.00,1.54
8894.00,1.54
8893.00,1.53
8892.00,1.52
8891.00,1.52
8890.00,1.51
8889.00,1.51
8888.00,1.50
8887.00,1.50
8886.00,1.49
8885.00,1.49
8884.00,1.49
8883.00,1.48
8882.00,1.48
8881.00,1.48
8880.00,1.48
8879.00,1.48
8878.00,1.48
8877.00,1.48
8876.00,1.48
8875.00,1.48
8874.00,1.48
8873.00,1.48
8872.00,1.48
8871.00,1.48
8870.00,1.48
8869.00,1.48
8868.00,1.49
8867.00,1.49
8866.00,1.49
8865.00,1.49
8864.00,1.49
8863.00,1.50
8862.00,1.50
8861.00,1.50
8860.00,1.51
8859.00,1.51
8858.00,1.52
8857.00,1.52
8856.00,1.52
8855.00,1.53
8854.00,1.53
8853.00,1.53
8852.00,1.54
8851.00,1.54
8850.00,1.54
8849.00,1.55
8848.00,1.55
8847.00,1.55
8846.00,1.55
8845.00,1.55
8844.00,1.55
8843.00,1.55
8842.00,1.55
8841.00,1.55
8840.00,1.55
8839.00,1.55
8838.00,1.55
8837.00,1.55
8836.00,1.55
8835.00,1.54
8834.00,1.54
8833.00,1.54
8832.00,1.53
8831.00,1.53
8830.00,1.52
8829.00,1.52
8828.00,1.51
8827.00,1.51
8826.00,1.50
8825.00,1.50
8824.00,1.49
8823.00,1.49
8822.00,1.49
8821.00,1.48
8820.00,1.48
8819.00,1.48
8818.00,1.48
8817.00,1.48
8816.00,1.48
8815.00,1.48
8814.00,1.48
8813.00,1.48
8812.00,1.48
8811.00,1.48
8810.00,1.48
8809.00,1.48
8808.00,1.49
8807.00,1.49
8806.00,1.49
8805.00,1.49
8804.00,1.49
8803.00,1.49
8802.00,1.49
8801.00,1.49
8800.00,1.50
8799.00,1.50
8798.00,1.50
8797.00,1.50
8796.00,1.50
8795.00,1.50
8794.00,1.50
8793.00,1.49
8792.00,1.49
8791.00,1.49
8790.00,1.49
8789.00,1.48
8788.00,1.48
8787.00,1.48
8786.00,1.48
8785.00,1.47
8784.00,1.47
8783.00,1.47
8782.00,1.47
8781.00,1.47
8780.00,1.47
8779.00,1.47
8778.00,1.47
8777.00,1.47
8776.00,1.48
8775.00,1.48
8774.00,1.48
8773.00,1.48
8772.00,1.48
8771.00,1.48
8770.00,1.48
8769.00,1.48
8768.00,1.48
8767.00,1.48
8766.00,1.48
8765.00,1.48
8764.00,1.48
8763.00,1.48
8762.00,1.48
8761.00,1.48
8760.00,1.48
8759.00,1.48
8758.00,1.48
8757.00,1.48
8756.00,1.48
8755.00,1.48
8754.00,1.48
8753.00,1.48
8752.00,1.48
8751.00,1.48
8750.00,1.48
8749.00,1.48
8748.00,1.48
8747.00,1.48
8746.00,1.48
8745.00,1.48
8744.00,1.48
8743.00,1.48
8742.00,1.48
8741.00,1.49
8740.00,1.49
8739.00,1.49
8738.00,1.50
8737.00,1.50
8736.00,1.51
8735.00,1.51
8734.00,1.51
8733.00,1.52
8732.00,1.52
8731.00,1.53
8730.00,1.53
8729.00,1.53
8728.00,1.53
8727.00,1.54
8726.00,1.54
8725.00,1.54
8724.00,1.54
8723.00,1.54
8722.00,1.55
8721.00,1.55
8720.00,1.55
8719.00,1.55
8718.00,1.55
8717.00,1.55
8716.00,1.55
8715.00,1.55
8714.00,1.55
8713.00,1.54
8712.00,1.54
8711.00,1.54
8710.00,1.53
8709.00,1.53
8708.00,1.52
8707.00,1.52
8706.00,1.51
8705.00,1.51
8704.00,1.50
8703.00,1.50
8702.00,1.49
8701.00,1.49
8700.00,1.48
8699.00,1.48
8698.00,1.48
8697.00,1.47
8696.00,1.47
8695.00,1.47
8694.00,1.47
8693.00,1.47
8692.00,1.47
8691.00,1.47
8690.00,1.47
8689.00,1.47
8688.00,1.47
8687.00,1.47
8686.00,1.48
8685.00,1.48
8684.00,1.49
8683.00,1.50
8682.00,1.50
8681.00,1.51
8680.00,1.52
8679.00,1.52
8678.00,1.53
8677.00,1.54
8676.00,1.55
8675.00,1.55
8674.00,1.56
8673.00,1.57
8672.00,1.57
8671.00,1.58
8670.00,1.59
8669.00,1.59
8668.00,1.60
8667.00,1.60
8666.00,1.60
8665.00,1.61
8664.00,1.61
8663.00,1.61
8662.00,1.61
8661.00,1.61
8660.00,1.61
8659.00,1.61
8658.00,1.61
8657.00,1.61
8656.00,1.61
8655.00,1.61
8654.00,1.60
8653.00,1.60
8652.00,1.60
8651.00,1.60
8650.00,1.59
8649.00,1.59
8648.00,1.59
8647.00,1.58
8646.00,1.58
8645.00,1.58
8644.00,1.57
8643.00,1.57
8642.00,1.57
8641.00,1.56
8640.00,1.56
8639.00,1.55
8638.00,1.55
8637.00,1.54
8636.00,1.54
8635.00,1.54
8634.00,1.53
8633.00,1.53
8632.00,1.52
8631.00,1.52
8630.00,1.52
8629.00,1.51
8628.00,1.51
8627.00,1.51
8626.00,1.50
8625.00,1.50
8624.00,1.50
8623.00,1.50
8622.00,1.50
8621.00,1.50
8620.00,1.50
8619.00,1.50
8618.00,1.50
8617.00,1.50
8616.00,1.50
8615.00,1.50
8614.00,1.50
8613.00,1.50
8612.00,1.50
8611.00,1.50
8610.00,1.51
8609.00,1.51
8608.00,1.51
8607.00,1.51
8606.00,1.52
8605.00,1.52
8604.00,1.52
8603.00,1.53
8602.00,1.53
8601.00,1.54
8600.00,1.54
8599.00,1.54
8598.00,1.54
8597.00,1.55
8596.00,1.55
8595.00,1.55
8594.00,1.55
8593.00,1.56
8592.00,1.56
8591.00,1.56
8590.00,1.56
8589.00,1.56
8588.00,1.56
8587.00,1.57
8586.00,1.57
8585.00,1.57
8584.00,1.57
8583.00,1.57
8582.00,1.58
8581.00,1.58
8580.00,1.58
8579.00,1.58
8578.00,1.58
8577.00,1.58
8576.00,1.59
8575.00,1.59
8574.00,1.59
8573.00,1.59
8572.00,1.59
8571.00,1.59
8570.00,1.59
8569.00,1.59
8568.00,1.59
8567.00,1.58
8566.00,1.58
8565.00,1.58
8564.00,1.58
8563.00,1.58
8562.00,1.58
8561.00,1.58
8560.00,1.58
8559.00,1.58
8558.00,1.57
8557.00,1.57
8556.00,1.57
8555.00,1.57
8554.00,1.56
8553.00,1.56
8552.00,1.56
8551.00,1.55
8550.00,1.55
8549.00,1.55
8548.00,1.54
8547.00,1.54
8546.00,1.54
8545.00,1.54
8544.00,1.54
8543.00,1.54
8542.00,1.54
8541.00,1.53
8540.00,1.53
8539.00,1.53
8538.00,1.54
8537.00,1.54
8536.00,1.54
8535.00,1.54
8534.00,1.54
8533.00,1.54
8532.00,1.54
8531.00,1.54
8530.00,1.54
8529.00,1.54
8528.00,1.55
8527.00,1.55
8526.00,1.55
8525.00,1.55
8524.00,1.55
8523.00,1.56
8522.00,1.56
8521.00,1.56
8520.00,1.56
8519.00,1.56
8518.00,1.56
8517.00,1.56
8516.00,1.56
8515.00,1.57
8514.00,1.57
8513.00,1.57
8512.00,1.57
8511.00,1.57
8510.00,1.58
8509.00,1.58
8508.00,1.58
8507.00,1.58
8506.00,1.59
8505.00,1.59
8504.00,1.59
8503.00,1.60
8502.00,1.60
8501.00,1.60
8500.00,1.61
8499.00,1.61
8498.00,1.61
8497.00,1.62
8496.00,1.62
8495.00,1.62
8494.00,1.63
8493.00,1.63
8492.00,1.63
8491.00,1.63
8490.00,1.63
8489.00,1.63
8488.00,1.63
8487.00,1.63
8486.00,1.62
8485.00,1.62
8484.00,1.62
8483.00,1.61
8482.00,1.60
8481.00,1.60
8480.00,1.59
8479.00,1.59
8478.00,1.58
8477.00,1.57
8476.00,1.57
8475.00,1.56
8474.00,1.55
8473.00,1.54
8472.00,1.54
8471.00,1.53
8470.00,1.52
8469.00,1.51
8468.00,1.51
8467.00,1.50
8466.00,1.49
8465.00,1.49
8464.00,1.48
8463.00,1.48
8462.00,1.48
8461.00,1.47
8460.00,1.47
8459.00,1.47
8458.00,1.47
8457.00,1.47
8456.00,1.47
8455.00,1.47
8454.00,1.47
8453.00,1.47
8452.00,1.47
8451.00,1.47
8450.00,1.47
8449.00,1.47
8448.00,1.48
8447.00,1.48
8446.00,1.48
8445.00,1.48
8444.00,1.48
8443.00,1.49
8442.00,1.49
8441.00,1.49
8440.00,1.50
8439.00,1.50
8438.00,1.50
8437.00,1.51
8436.00,1.51
8435.00,1.52
8434.00,1.52
8433.00,1.52
8432.00,1.53
8431.00,1.53
8430.00,1.53
8429.00,1.53
8428.00,1.54
8427.00,1.54
8426.00,1.54
8425.00,1.54
8424.00,1.55
8423.00,1.55
8422.00,1.55
8421.00,1.55
8420.00,1.56
8419.00,1.56
8418.00,1.56
8417.00,1.56
8416.00,1.56
8415.00,1.56
8414.00,1.56
8413.00,1.57
8412.00,1.57
8411.00,1.56
8410.00,1.56
8409.00,1.56
8408.00,1.56
8407.00,1.56
8406.00,1.56
8405.00,1.56
8404.00,1.56
8403.00,1.56
8402.00,1.56
8401.00,1.56
8400.00,1.56
8399.00,1.56
8398.00,1.56
8397.00,1.56
8396.00,1.56
8395.00,1.56
8394.00,1.56
8393.00,1.55
8392.00,1.55
8391.00,1.55
8390.00,1.55
8389.00,1.54
8388.00,1.54
8387.00,1.54
8386.00,1.54
8385.00,1.54
8384.00,1.54
8383.00,1.54
8382.00,1.54
8381.00,1.54
8380.00,1.54
8379.00,1.53
8378.00,1.53
8377.00,1.53
8376.00,1.53
8375.00,1.53
8374.00,1.53
8373.00,1.54
8372.00,1.54
8371.00,1.54
8370.00,1.54
8369.00,1.54
8368.00,1.55
8367.00,1.55
8366.00,1.55
8365.00,1.55
8364.00,1.55
8363.00,1.56
8362.00,1.56
8361.00,1.56
8360.00,1.56
8359.00,1.56
8358.00,1.56
8357.00,1.56
8356.00,1.56
8355.00,1.56
8354.00,1.56
8353.00,1.56
8352.00,1.56
8351.00,1.56
8350.00,1.56
8349.00,1.56
8348.00,1.56
8347.00,1.56
8346.00,1.56
8345.00,1.55
8344.00,1.55
8343.00,1.55
8342.00,1.55
8341.00,1.55
8340.00,1.55
8339.00,1.55
8338.00,1.54
8337.00,1.54
8336.00,1.54
8335.00,1.54
8334.00,1.54
8333.00,1.54
8332.00,1.53
8331.00,1.53
8330.00,1.53
8329.00,1.53
8328.00,1.53
8327.00,1.52
8326.00,1.52
8325.00,1.52
8324.00,1.51
8323.00,1.51
8322.00,1.51
8321.00,1.51
8320.00,1.50
8319.00,1.50
8318.00,1.50
8317.00,1.50
8316.00,1.49
8315.00,1.49
8314.00,1.49
8313.00,1.49
8312.00,1.48
8311.00,1.48
8310.00,1.48
8309.00,1.48
8308.00,1.47
8307.00,1.47
8306.00,1.47
8305.00,1.47
8304.00,1.48
8303.00,1.48
8302.00,1.48
8301.00,1.48
8300.00,1.49
8299.00,1.49
8298.00,1.49
8297.00,1.50
8296.00,1.50
8295.00,1.51
8294.00,1.51
8293.00,1.51
8292.00,1.52
8291.00,1.52
8290.00,1.52
8289.00,1.52
8288.00,1.53
8287.00,1.53
8286.00,1.53
8285.00,1.53
8284.00,1.54
8283.00,1.54
8282.00,1.54
8281.00,1.54
8280.00,1.54
8279.00,1.54
8278.00,1.54
8277.00,1.54
8276.00,1.54
8275.00,1.54
8274.00,1.54
8273.00,1.54
8272.00,1.54
8271.00,1.54
8270.00,1.54
8269.00,1.54
8268.00,1.53
8267.00,1.53
8266.00,1.53
8265.00,1.53
8264.00,1.53
8263.00,1.53
8262.00,1.53
8261.00,1.53
8260.00,1.53
8259.00,1.53
8258.00,1.53
8257.00,1.53
8256.00,1.53
8255.00,1.53
8254.00,1.53
8253.00,1.53
8252.00,1.53
8251.00,1.53
8250.00,1.53
8249.00,1.53
8248.00,1.53
8247.00,1.54
8246.00,1.54
8245.00,1.54
8244.00,1.55
8243.00,1.55
8242.00,1.55
8241.00,1.56
8240.00,1.56
8239.00,1.56
8238.00,1.57
8237.00,1.57
8236.00,1.57
8235.00,1.58
8234.00,1.58
8233.00,1.58
8232.00,1.59
8231.00,1.59
8230.00,1.59
8229.00,1.60
8228.00,1.60
8227.00,1.61
8226.00,1.61
8225.00,1.61
8224.00,1.62
8223.00,1.62
8222.00,1.63
8221.00,1.63
8220.00,1.63
8219.00,1.63
8218.00,1.63
8217.00,1.63
8216.00,1.63
8215.00,1.63
8214.00,1.63
8213.00,1.63
8212.00,1.63
8211.00,1.62
8210.00,1.62
8209.00,1.62
8208.00,1.62
8207.00,1.61
8206.00,1.61
8205.00,1.61
8204.00,1.60
8203.00,1.60
8202.00,1.59
8201.00,1.59
8200.00,1.58
8199.00,1.58
8198.00,1.57
8197.00,1.57
8196.00,1.56
8195.00,1.56
8194.00,1.56
8193.00,1.55
8192.00,1.55
8191.00,1.54
8190.00,1.54
8189.00,1.54
8188.00,1.54
8187.00,1.53
8186.00,1.53
8185.00,1.53
8184.00,1.53
8183.00,1.53
8182.00,1.53
8181.00,1.53
8180.00,1.53
8179.00,1.53
8178.00,1.53
8177.00,1.53
8176.00,1.53
8175.00,1.53
8174.00,1.53
8173.00,1.53
8172.00,1.53
8171.00,1.53
8170.00,1.54
8169.00,1.54
8168.00,1.54
8167.00,1.54
8166.00,1.54
8165.00,1.55
8164.00,1.55
8163.00,1.55
8162.00,1.56
8161.00,1.56
8160.00,1.56
8159.00,1.56
8158.00,1.57
8157.00,1.57
8156.00,1.57
8155.00,1.58
8154.00,1.58
8153.00,1.58
8152.00,1.58
8151.00,1.59
8150.00,1.59
8149.00,1.59
8148.00,1.59
8147.00,1.59
8146.00,1.60
8145.00,1.60
8144.00,1.60
8143.00,1.60
8142.00,1.60
8141.00,1.60
8140.00,1.60
8139.00,1.61
8138.00,1.61
8137.00,1.60
8136.00,1.60
8135.00,1.60
8134.00,1.60
8133.00,1.60
8132.00,1.60
8131.00,1.60
8130.00,1.60
8129.00,1.60
8128.00,1.60
8127.00,1.60
8126.00,1.60
8125.00,1.59
8124.00,1.59
8123.00,1.59
8122.00,1.59
8121.00,1.59
8120.00,1.59
8119.00,1.59
8118.00,1.59
8117.00,1.59
8116.00,1.59
8115.00,1.59
8114.00,1.59
8113.00,1.59
8112.00,1.59
8111.00,1.59
8110.00,1.59
8109.00,1.59
8108.00,1.59
8107.00,1.59
8106.00,1.59
8105.00,1.59
8104.00,1.59
8103.00,1.59
8102.00,1.59
8101.00,1.59
8100.00,1.59
8099.00,1.59
8098.00,1.60
8097.00,1.60
8096.00,1.60
8095.00,1.60
8094.00,1.60
8093.00,1.60
8092.00,1.60
8091.00,1.60
8090.00,1.60
8089.00,1.60
8088.00,1.60
8087.00,1.60
8086.00,1.60
8085.00,1.60
8084.00,1.60
8083.00,1.60
8082.00,1.60
8081.00,1.60
8080.00,1.60
8079.00,1.60
8078.00,1.60
8077.00,1.60
8076.00,1.60
8075.00,1.60
8074.00,1.60
8073.00,1.60
8072.00,1.60
8071.00,1.61
8070.00,1.61
8069.00,1.61
8068.00,1.61
8067.00,1.61
8066.00,1.61
8065.00,1.61
8064.00,1.61
8063.00,1.61
8062.00,1.61
8061.00,1.62
8060.00,1.62
8059.00,1.62
8058.00,1.62
8057.00,1.62
8056.00,1.62
8055.00,1.62
8054.00,1.62
8053.00,1.62
8052.00,1.61
8051.00,1.61
8050.00,1.61
8049.00,1.61
8048.00,1.61
8047.00,1.60
8046.00,1.60
8045.00,1.60
8044.00,1.60
8043.00,1.59
8042.00,1.59
8041.00,1.58
8040.00,1.58
8039.00,1.57
8038.00,1.57
8037.00,1.56
8036.00,1.56
8035.00,1.55
8034.00,1.55
8033.00,1.55
8032.00,1.54
8031.00,1.54
8030.00,1.54
8029.00,1.54
8028.00,1.54
8027.00,1.53
8026.00,1.53
8025.00,1.53
8024.00,1.53
8023.00,1.54
8022.00,1.54
8021.00,1.54
8020.00,1.54
8019.00,1.54
8018.00,1.54
8017.00,1.54
8016.00,1.54
8015.00,1.55
8014.00,1.55
8013.00,1.55
8012.00,1.55
8011.00,1.56
8010.00,1.56
8009.00,1.56
8008.00,1.56
8007.00,1.56
8006.00,1.56
8005.00,1.56
8004.00,1.56
8003.00,1.56
8002.00,1.56
8001.00,1.55
8000.00,1.55
7999.00,1.55
7998.00,1.55
7997.00,1.55
7996.00,1.55
7995.00,1.54
7994.00,1.54
7993.00,1.54
7992.00,1.54
7991.00,1.53
7990.00,1.53
7989.00,1.53
7988.00,1.53
7987.00,1.53
7986.00,1.53
7985.00,1.53
7984.00,1.53
7983.00,1.54
7982.00,1.54
7981.00,1.54
7980.00,1.55
7979.00,1.55
7978.00,1.56
7977.00,1.56
7976.00,1.57
7975.00,1.57
7974.00,1.57
7973.00,1.58
7972.00,1.58
7971.00,1.59
7970.00,1.59
7969.00,1.59
7968.00,1.60
7967.00,1.60
7966.00,1.60
7965.00,1.61
7964.00,1.61
7963.00,1.61
7962.00,1.61
7961.00,1.61
7960.00,1.61
7959.00,1.61
7958.00,1.61
7957.00,1.61
7956.00,1.61
7955.00,1.61
7954.00,1.60
7953.00,1.60
7952.00,1.60
7951.00,1.59
7950.00,1.59
7949.00,1.59
7948.00,1.59
7947.00,1.59
7946.00,1.58
7945.00,1.58
7944.00,1.58
7943.00,1.58
7942.00,1.58
7941.00,1.58
7940.00,1.58
7939.00,1.59
7938.00,1.59
7937.00,1.59
7936.00,1.59
7935.00,1.59
7934.00,1.59
7933.00,1.59
7932.00,1.60
7931.00,1.60
7930.00,1.60
7929.00,1.60
7928.00,1.61
7927.00,1.61
7926.00,1.61
7925.00,1.61
7924.00,1.62
7923.00,1.62
7922.00,1.62
7921.00,1.62
7920.00,1.63
7919.00,1.63
7918.00,1.63
7917.00,1.63
7916.00,1.63
7915.00,1.63
7914.00,1.64
7913.00,1.64
7912.00,1.64
7911.00,1.64
7910.00,1.64
7909.00,1.65
7908.00,1.65
7907.00,1.65
7906.00,1.65
7905.00,1.66
7904.00,1.66
7903.00,1.66
7902.00,1.66
7901.00,1.66
7900.00,1.66
7899.00,1.66
7898.00,1.66
7897.00,1.66
7896.00,1.66
7895.00,1.66
7894.00,1.66
7893.00,1.66
7892.00,1.66
7891.00,1.66
7890.00,1.65
7889.00,1.65
7888.00,1.65
7887.00,1.65
7886.00,1.65
7885.00,1.64
7884.00,1.64
7883.00,1.64
7882.00,1.63
7881.00,1.63
7880.00,1.63
7879.00,1.63
7878.00,1.62
7877.00,1.62
7876.00,1.62
7875.00,1.62
7874.00,1.62
7873.00,1.62
7872.00,1.62
7871.00,1.62
7870.00,1.62
7869.00,1.62
7868.00,1.62
7867.00,1.62
7866.00,1.62
7865.00,1.63
7864.00,1.63
7863.00,1.63
7862.00,1.63
7861.00,1.63
7860.00,1.63
7859.00,1.64
7858.00,1.64
7857.00,1.64
7856.00,1.64
7855.00,1.64
7854.00,1.65
7853.00,1.65
7852.00,1.65
7851.00,1.65
7850.00,1.65
7849.00,1.65
7848.00,1.65
7847.00,1.65
7846.00,1.65
7845.00,1.64
7844.00,1.64
7843.00,1.64
7842.00,1.64
7841.00,1.64
7840.00,1.64
7839.00,1.63
7838.00,1.63
7837.00,1.63
7836.00,1.63
7835.00,1.62
7834.00,1.62
7833.00,1.62
7832.00,1.62
7831.00,1.61
7830.00,1.61
7829.00,1.61
7828.00,1.61
7827.00,1.61
7826.00,1.60
7825.00,1.60
7824.00,1.60
7823.00,1.60
7822.00,1.60
7821.00,1.60
7820.00,1.60
7819.00,1.60
7818.00,1.60
7817.00,1.60
7816.00,1.61
7815.00,1.61
7814.00,1.61
7813.00,1.61
7812.00,1.61
7811.00,1.62
7810.00,1.62
7809.00,1.62
7808.00,1.62
7807.00,1.62
7806.00,1.63
7805.00,1.63
7804.00,1.63
7803.00,1.63
7802.00,1.63
7801.00,1.64
7800.00,1.64
7799.00,1.64
7798.00,1.64
7797.00,1.64
7796.00,1.64
7795.00,1.64
7794.00,1.64
7793.00,1.65
7792.00,1.65
7791.00,1.65
7790.00,1.65
7789.00,1.65
7788.00,1.65
7787.00,1.65
7786.00,1.65
7785.00,1.64
7784.00,1.64
7783.00,1.64
7782.00,1.64
7781.00,1.64
7780.00,1.64
7779.00,1.64
7778.00,1.64
7777.00,1.64
7776.00,1.64
7775.00,1.64
7774.00,1.63
7773.00,1.63
7772.00,1.63
7771.00,1.63
7770.00,1.63
7769.00,1.63
7768.00,1.63
7767.00,1.63
7766.00,1.63
7765.00,1.63
7764.00,1.63
7763.00,1.63
7762.00,1.63
7761.00,1.63
7760.00,1.63
7759.00,1.63
7758.00,1.63
7757.00,1.63
7756.00,1.63
7755.00,1.63
7754.00,1.63
7753.00,1.63
7752.00,1.63
7751.00,1.63
7750.00,1.63
7749.00,1.63
7748.00,1.63
7747.00,1.63
7746.00,1.63
7745.00,1.63
7744.00,1.63
7743.00,1.63
7742.00,1.63
7741.00,1.63
7740.00,1.63
7739.00,1.63
7738.00,1.63
7737.00,1.63
7736.00,1.63
7735.00,1.63
7734.00,1.63
7733.00,1.63
7732.00,1.63
7731.00,1.63
7730.00,1.63
7729.00,1.63
7728.00,1.64
7727.00,1.64
7726.00,1.64
7725.00,1.64
7724.00,1.64
7723.00,1.64
7722.00,1.64
7721.00,1.64
7720.00,1.64
7719.00,1.64
7718.00,1.64
7717.00,1.64
7716.00,1.64
7715.00,1.64
7714.00,1.64
7713.00,1.64
7712.00,1.64
7711.00,1.64
7710.00,1.64
7709.00,1.64
7708.00,1.64
7707.00,1.64
7706.00,1.64
7705.00,1.64
7704.00,1.64
7703.00,1.64
7702.00,1.64
7701.00,1.64
7700.00,1.64
7699.00,1.64
7698.00,1.64
7697.00,1.64
7696.00,1.64
7695.00,1.64
7694.00,1.64
7693.00,1.65
7692.00,1.65
7691.00,1.65
7690.00,1.65
7689.00,1.65
7688.00,1.64
7687.00,1.64
7686.00,1.64
7685.00,1.64
7684.00,1.64
7683.00,1.64
7682.00,1.64
7681.00,1.64
7680.00,1.63
7679.00,1.63
7678.00,1.63
7677.00,1.63
7676.00,1.63
7675.00,1.63
7674.00,1.63
7673.00,1.62
7672.00,1.62
7671.00,1.62
7670.00,1.62
7669.00,1.62
7668.00,1.62
7667.00,1.62
7666.00,1.62
7665.00,1.62
7664.00,1.62
7663.00,1.62
7662.00,1.62
7661.00,1.62
7660.00,1.62
7659.00,1.62
7658.00,1.62
7657.00,1.62
7656.00,1.62
7655.00,1.62
7654.00,1.63
7653.00,1.63
7652.00,1.63
7651.00,1.63
7650.00,1.64
7649.00,1.64
7648.00,1.64
7647.00,1.65
7646.00,1.65
7645.00,1.66
7644.00,1.66
7643.00,1.66
7642.00,1.67
7641.00,1.67
7640.00,1.68
7639.00,1.68
7638.00,1.69
7637.00,1.69
7636.00,1.70
7635.00,1.70
7634.00,1.70
7633.00,1.71
7632.00,1.71
7631.00,1.71
7630.00,1.71
7629.00,1.71
7628.00,1.72
7627.00,1.72
7626.00,1.72
7625.00,1.72
7624.00,1.72
7623.00,1.72
7622.00,1.72
7621.00,1.72
7620.00,1.72
7619.00,1.72
7618.00,1.71
7617.00,1.71
7616.00,1.71
7615.00,1.71
7614.00,1.70
7613.00,1.70
7612.00,1.69
7611.00,1.69
7610.00,1.69
7609.00,1.68
7608.00,1.68
7607.00,1.67
7606.00,1.67
7605.00,1.67
7604.00,1.66
7603.00,1.66
7602.00,1.66
7601.00,1.65
7600.00,1.65
7599.00,1.65
7598.00,1.64
7597.00,1.64
7596.00,1.64
7595.00,1.63
7594.00,1.63
7593.00,1.63
7592.00,1.63
7591.00,1.63
7590.00,1.62
7589.00,1.62
7588.00,1.62
7587.00,1.62
7586.00,1.62
7585.00,1.62
7584.00,1.63
7583.00,1.63
7582.00,1.63
7581.00,1.63
7580.00,1.63
7579.00,1.63
7578.00,1.63
7577.00,1.63
7576.00,1.63
7575.00,1.63
7574.00,1.63
7573.00,1.63
7572.00,1.64
7571.00,1.64
7570.00,1.64
7569.00,1.64
7568.00,1.64
7567.00,1.64
7566.00,1.64
7565.00,1.64
7564.00,1.64
7563.00,1.64
7562.00,1.64
7561.00,1.64
7560.00,1.64
7559.00,1.64
7558.00,1.64
7557.00,1.65
7556.00,1.65
7555.00,1.65
7554.00,1.65
7553.00,1.65
7552.00,1.65
7551.00,1.65
7550.00,1.65
7549.00,1.66
7548.00,1.66
7547.00,1.66
7546.00,1.66
7545.00,1.66
7544.00,1.67
7543.00,1.67
7542.00,1.67
7541.00,1.67
7540.00,1.67
7539.00,1.67
7538.00,1.68
7537.00,1.68
7536.00,1.68
7535.00,1.68
7534.00,1.68
7533.00,1.68
7532.00,1.68
7531.00,1.68
7530.00,1.68
7529.00,1.68
7528.00,1.68
7527.00,1.68
7526.00,1.68
7525.00,1.68
7524.00,1.67
7523.00,1.67
7522.00,1.67
7521.00,1.67
7520.00,1.67
7519.00,1.67
7518.00,1.66
7517.00,1.66
7516.00,1.66
7515.00,1.66
7514.00,1.65
7513.00,1.65
7512.00,1.65
7511.00,1.64
7510.00,1.64
7509.00,1.64
7508.00,1.64
7507.00,1.63
7506.00,1.63
7505.00,1.63
7504.00,1.63
7503.00,1.63
7502.00,1.62
7501.00,1.62
7500.00,1.62
7499.00,1.62
7498.00,1.62
7497.00,1.61
7496.00,1.61
7495.00,1.61
7494.00,1.61
7493.00,1.61
7492.00,1.61
7491.00,1.60
7490.00,1.60
7489.00,1.60
7488.00,1.60
7487.00,1.60
7486.00,1.60
7485.00,1.60
7484.00,1.60
7483.00,1.60
7482.00,1.60
7481.00,1.60
7480.00,1.60
7479.00,1.60
7478.00,1.60
7477.00,1.60
7476.00,1.60
7475.00,1.60
7474.00,1.60
7473.00,1.60
7472.00,1.60
7471.00,1.60
7470.00,1.60
7469.00,1.60
7468.00,1.60
7467.00,1.60
7466.00,1.61
7465.00,1.61
7464.00,1.61
7463.00,1.61
7462.00,1.61
7461.00,1.61
7460.00,1.61
7459.00,1.61
7458.00,1.61
7457.00,1.61
7456.00,1.61
7455.00,1.61
7454.00,1.62
7453.00,1.62
7452.00,1.62
7451.00,1.62
7450.00,1.62
7449.00,1.62
7448.00,1.62
7447.00,1.62
7446.00,1.62
7445.00,1.62
7444.00,1.62
7443.00,1.62
7442.00,1.62
7441.00,1.62
7440.00,1.62
7439.00,1.62
7438.00,1.62
7437.00,1.62
7436.00,1.62
7435.00,1.62
7434.00,1.62
7433.00,1.62
7432.00,1.62
7431.00,1.62
7430.00,1.62
7429.00,1.62
7428.00,1.62
7427.00,1.62
7426.00,1.62
7425.00,1.62
7424.00,1.62
7423.00,1.62
7422.00,1.62
7421.00,1.62
7420.00,1.62
7419.00,1.62
7418.00,1.62
7417.00,1.62
7416.00,1.62
7415.00,1.62
7414.00,1.62
7413.00,1.62
7412.00,1.62
7411.00,1.62
7410.00,1.62
7409.00,1.62
7408.00,1.62
7407.00,1.62
7406.00,1.62
7405.00,1.62
7404.00,1.62
7403.00,1.62
7402.00,1.62
7401.00,1.62
7400.00,1.62
7399.00,1.62
7398.00,1.62
7397.00,1.62
7396.00,1.62
7395.00,1.62
7394.00,1.62
7393.00,1.62
7392.00,1.62
7391.00,1.62
7390.00,1.62
7389.00,1.62
7388.00,1.62
7387.00,1.62
7386.00,1.62
7385.00,1.62
7384.00,1.62
7383.00,1.62
7382.00,1.62
7381.00,1.62
7380.00,1.62
7379.00,1.62
7378.00,1.62
7377.00,1.62
7376.00,1.62
7375.00,1.62
7374.00,1.62
7373.00,1.62
7372.00,1.62
7371.00,1.62
7370.00,1.62
7369.00,1.62
7368.00,1.62
7367.00,1.62
7366.00,1.61
7365.00,1.61
7364.00,1.61
7363.00,1.61
7362.00,1.61
7361.00,1.61
7360.00,1.60
7359.00,1.60
7358.00,1.60
7357.00,1.60
7356.00,1.60
7355.00,1.60
7354.00,1.59
7353.00,1.59
7352.00,1.59
7351.00,1.59
7350.00,1.58
7349.00,1.58
7348.00,1.58
7347.00,1.58
7346.00,1.57
7345.00,1.57
7344.00,1.57
7343.00,1.57
7342.00,1.57
7341.00,1.56
7340.00,1.56
7339.00,1.56
7338.00,1.56
7337.00,1.56
7336.00,1.56
7335.00,1.56
7334.00,1.56
7333.00,1.56
7332.00,1.56
7331.00,1.56
7330.00,1.55
7329.00,1.55
7328.00,1.55
7327.00,1.55
7326.00,1.55
7325.00,1.55
7324.00,1.55
7323.00,1.55
7322.00,1.55
7321.00,1.55
7320.00,1.55
7319.00,1.55
7318.00,1.54
7317.00,1.54
7316.00,1.54
7315.00,1.54
7314.00,1.54
7313.00,1.54
7312.00,1.54
7311.00,1.53
7310.00,1.53
7309.00,1.53
7308.00,1.53
7307.00,1.53
7306.00,1.53
7305.00,1.53
7304.00,1.53
7303.00,1.53
7302.00,1.53
7301.00,1.53
7300.00,1.53
7299.00,1.53
7298.00,1.53
7297.00,1.53
7296.00,1.53
7295.00,1.53
7294.00,1.53
7293.00,1.53
7292.00,1.53
7291.00,1.53
7290.00,1.53
7289.00,1.53
7288.00,1.53
7287.00,1.53
7286.00,1.53
7285.00,1.53
7284.00,1.53
7283.00,1.54
7282.00,1.54
7281.00,1.54
7280.00,1.54
7279.00,1.54
7278.00,1.55
7277.00,1.55
7276.00,1.55
7275.00,1.55
7274.00,1.55
7273.00,1.55
7272.00,1.56
7271.00,1.56
7270.00,1.56
7269.00,1.56
7268.00,1.56
7267.00,1.57
7266.00,1.57
7265.00,1.57
7264.00,1.57
7263.00,1.57
7262.00,1.58
7261.00,1.58
7260.00,1.58
7259.00,1.58
7258.00,1.58
7257.00,1.58
7256.00,1.58
7255.00,1.58
7254.00,1.58
7253.00,1.58
7252.00,1.58
7251.00,1.58
7250.00,1.58
7249.00,1.58
7248.00,1.58
7247.00,1.58
7246.00,1.58
7245.00,1.57
7244.00,1.57
7243.00,1.57
7242.00,1.57
7241.00,1.56
7240.00,1.56
7239.00,1.56
7238.00,1.56
7237.00,1.55
7236.00,1.55
7235.00,1.55
7234.00,1.54
7233.00,1.54
7232.00,1.54
7231.00,1.53
7230.00,1.53
7229.00,1.53
7228.00,1.53
7227.00,1.52
7226.00,1.52
7225.00,1.52
7224.00,1.52
7223.00,1.52
7222.00,1.52
7221.00,1.52
7220.00,1.52
7219.00,1.51
7218.00,1.51
7217.00,1.51
7216.00,1.51
7215.00,1.51
7214.00,1.51
7213.00,1.51
7212.00,1.51
7211.00,1.51
7210.00,1.51
7209.00,1.51
7208.00,1.51
7207.00,1.51
7206.00,1.51
7205.00,1.51
7204.00,1.51
7203.00,1.51
7202.00,1.51
7201.00,1.51
7200.00,1.50
7199.00,1.50
7198.00,1.50
7197.00,1.50
7196.00,1.50
7195.00,1.49
7194.00,1.49
7193.00,1.49
7192.00,1.49
7191.00,1.48
7190.00,1.48
7189.00,1.48
7188.00,1.48
7187.00,1.47
7186.00,1.47
7185.00,1.47
7184.00,1.47
7183.00,1.46
7182.00,1.46
7181.00,1.46
7180.00,1.46
7179.00,1.45
7178.00,1.45
7177.00,1.45
7176.00,1.45
7175.00,1.44
7174.00,1.44
7173.00,1.44
7172.00,1.44
7171.00,1.44
7170.00,1.43
7169.00,1.43
7168.00,1.43
7167.00,1.43
7166.00,1.42
7165.00,1.42
7164.00,1.42
7163.00,1.42
7162.00,1.42
7161.00,1.41
7160.00,1.41
7159.00,1.41
7158.00,1.41
7157.00,1.40
7156.00,1.40
7155.00,1.40
7154.00,1.40
7153.00,1.40
7152.00,1.39
7151.00,1.39
7150.00,1.39
7149.00,1.39
7148.00,1.39
7147.00,1.39
7146.00,1.39
7145.00,1.38
7144.00,1.38
7143.00,1.38
7142.00,1.38
7141.00,1.38
7140.00,1.38
7139.00,1.38
7138.00,1.38
7137.00,1.38
7136.00,1.38
7135.00,1.38
7134.00,1.38
7133.00,1.38
7132.00,1.38
7131.00,1.38
7130.00,1.38
7129.00,1.38
7128.00,1.37
7127.00,1.37
7126.00,1.37
7125.00,1.37
7124.00,1.37
7123.00,1.36
7122.00,1.36
7121.00,1.36
7120.00,1.36
7119.00,1.35
7118.00,1.35
7117.00,1.35
7116.00,1.34
7115.00,1.34
7114.00,1.33
7113.00,1.33
7112.00,1.33
7111.00,1.32
7110.00,1.32
7109.00,1.31
7108.00,1.31
7107.00,1.30
7106.00,1.30
7105.00,1.29
7104.00,1.29
7103.00,1.29
7102.00,1.28
7101.00,1.28
7100.00,1.28
7099.00,1.27
7098.00,1.27
7097.00,1.27
7096.00,1.27
7095.00,1.27
7094.00,1.26
7093.00,1.26
7092.00,1.26
7091.00,1.26
7090.00,1.26
7089.00,1.26
7088.00,1.25
7087.00,1.25
7086.00,1.25
7085.00,1.25
7084.00,1.25
7083.00,1.25
7082.00,1.25
7081.00,1.25
7080.00,1.25
7079.00,1.24
7078.00,1.24
7077.00,1.24
7076.00,1.24
7075.00,1.24
7074.00,1.24
7073.00,1.24
7072.00,1.24
7071.00,1.24
7070.00,1.23
7069.00,1.23
7068.00,1.23
7067.00,1.23
7066.00,1.23
7065.00,1.23
7064.00,1.23
7063.00,1.23
7062.00,1.23
7061.00,1.23
7060.00,1.23
7059.00,1.22
7058.00,1.22
7057.00,1.22
7056.00,1.22
7055.00,1.22
7054.00,1.22
7053.00,1.23
7052.00,1.23
7051.00,1.23
7050.00,1.23
7049.00,1.23
7048.00,1.23
7047.00,1.23
7046.00,1.23
7045.00,1.23
7044.00,1.23
7043.00,1.23
7042.00,1.23
7041.00,1.23
7040.00,1.23
7039.00,1.23
7038.00,1.23
7037.00,1.23
7036.00,1.23
7035.00,1.23
7034.00,1.23
7033.00,1.23
7032.00,1.23
7031.00,1.23
7030.00,1.23
7029.00,1.23
7028.00,1.23
7027.00,1.22
7026.00,1.22
7025.00,1.22
7024.00,1.22
7023.00,1.22
7022.00,1.22
7021.00,1.22
7020.00,1.22
7019.00,1.22
7018.00,1.22
7017.00,1.22
7016.00,1.22
7015.00,1.22
7014.00,1.22
7013.00,1.22
7012.00,1.22
7011.00,1.22
7010.00,1.22
7009.00,1.22
7008.00,1.22
7007.00,1.22
7006.00,1.23
7005.00,1.23
7004.00,1.23
7003.00,1.23
7002.00,1.23
7001.00,1.23
7000.00,1.23
6999.00,1.23
6998.00,1.23
6997.00,1.23
6996.00,1.23
6995.00,1.24
6994.00,1.24
6993.00,1.24
6992.00,1.24
6991.00,1.24
6990.00,1.24
6989.00,1.24
6988.00,1.24
6987.00,1.24
6986.00,1.24
6985.00,1.24
6984.00,1.24
6983.00,1.24
6982.00,1.24
6981.00,1.24
6980.00,1.24
6979.00,1.24
6978.00,1.24
6977.00,1.24
6976.00,1.24
6975.00,1.24
6974.00,1.24
6973.00,1.24
6972.00,1.24
6971.00,1.23
6970.00,1.23
6969.00,1.23
6968.00,1.23
6967.00,1.23
6966.00,1.22
6965.00,1.22
6964.00,1.22
6963.00,1.21
6962.00,1.21
6961.00,1.21
6960.00,1.21
6959.00,1.20
6958.00,1.20
6957.00,1.20
6956.00,1.20
6955.00,1.19
6954.00,1.19
6953.00,1.19
6952.00,1.19
6951.00,1.18
6950.00,1.18
6949.00,1.18
6948.00,1.18
6947.00,1.17
6946.00,1.17
6945.00,1.17
6944.00,1.17
6943.00,1.17
6942.00,1.17
6941.00,1.17
6940.00,1.17
6939.00,1.17
6938.00,1.17
6937.00,1.17
6936.00,1.17
6935.00,1.17
6934.00,1.17
6933.00,1.17
6932.00,1.17
6931.00,1.17
6930.00,1.17
6929.00,1.17
6928.00,1.17
6927.00,1.17
6926.00,1.17
6925.00,1.17
6924.00,1.18
6923.00,1.18
6922.00,1.18
6921.00,1.18
6920.00,1.18
6919.00,1.18
6918.00,1.18
6917.00,1.18
6916.00,1.18
6915.00,1.18
6914.00,1.18
6913.00,1.17
6912.00,1.17
6911.00,1.17
6910.00,1.17
6909.00,1.17
6908.00,1.17
6907.00,1.17
6906.00,1.17
6905.00,1.17
6904.00,1.17
6903.00,1.17
6902.00,1.17
6901.00,1.17
6900.00,1.17
6899.00,1.16
6898.00,1.16
6897.00,1.16
6896.00,1.16
6895.00,1.16
6894.00,1.16
6893.00,1.16
6892.00,1.16
6891.00,1.16
6890.00,1.16
6889.00,1.16
6888.00,1.16
6887.00,1.16
6886.00,1.16
6885.00,1.16
6884.00,1.16
6883.00,1.16
6882.00,1.16
6881.00,1.16
6880.00,1.16
6879.00,1.16
6878.00,1.16
6877.00,1.16
6876.00,1.16
6875.00,1.16
6874.00,1.16
6873.00,1.16
6872.00,1.16
6871.00,1.17
6870.00,1.17
6869.00,1.17
6868.00,1.17
6867.00,1.17
6866.00,1.18
6865.00,1.18
6864.00,1.18
6863.00,1.18
6862.00,1.19
6861.00,1.19
6860.00,1.19
6859.00,1.19
6858.00,1.19
6857.00,1.19
6856.00,1.20
6855.00,1.20
6854.00,1.20
6853.00,1.20
6852.00,1.20
6851.00,1.20
6850.00,1.20
6849.00,1.20
6848.00,1.20
6847.00,1.20
6846.00,1.20
6845.00,1.20
6844.00,1.20
6843.00,1.20
6842.00,1.20
6841.00,1.20
6840.00,1.20
6839.00,1.20
6838.00,1.20
6837.00,1.20
6836.00,1.20
6835.00,1.20
6834.00,1.20
6833.00,1.20
6832.00,1.20
6831.00,1.20
6830.00,1.20
6829.00,1.20
6828.00,1.20
6827.00,1.20
6826.00,1.20
6825.00,1.20
6824.00,1.21
6823.00,1.21
6822.00,1.21
6821.00,1.20
6820.00,1.20
6819.00,1.20
6818.00,1.20
6817.00,1.20
6816.00,1.20
6815.00,1.20
6814.00,1.20
6813.00,1.20
6812.00,1.20
6811.00,1.19
6810.00,1.19
6809.00,1.19
6808.00,1.19
6807.00,1.18
6806.00,1.18
6805.00,1.18
6804.00,1.18
6803.00,1.18
6802.00,1.18
6801.00,1.18
6800.00,1.17
6799.00,1.17
6798.00,1.17
6797.00,1.17
6796.00,1.17
6795.00,1.17
6794.00,1.18
6793.00,1.18
6792.00,1.18
6791.00,1.18
6790.00,1.18
6789.00,1.18
6788.00,1.19
6787.00,1.19
6786.00,1.19
6785.00,1.19
6784.00,1.20
6783.00,1.20
6782.00,1.20
6781.00,1.20
6780.00,1.21
6779.00,1.21
6778.00,1.21
6777.00,1.21
6776.00,1.21
6775.00,1.22
6774.00,1.22
6773.00,1.22
6772.00,1.22
6771.00,1.22
6770.00,1.22
6769.00,1.22
6768.00,1.22
6767.00,1.22
6766.00,1.22
6765.00,1.22
6764.00,1.23
6763.00,1.23
6762.00,1.23
6761.00,1.23
6760.00,1.23
6759.00,1.23
6758.00,1.23
6757.00,1.23
6756.00,1.23
6755.00,1.23
6754.00,1.23
6753.00,1.23
6752.00,1.23
6751.00,1.23
6750.00,1.23
6749.00,1.23
6748.00,1.23
6747.00,1.24
6746.00,1.24
6745.00,1.24
6744.00,1.24
6743.00,1.24
6742.00,1.24
6741.00,1.24
6740.00,1.24
6739.00,1.24
6738.00,1.24
6737.00,1.24
6736.00,1.24
6735.00,1.23
6734.00,1.23
6733.00,1.23
6732.00,1.23
6731.00,1.23
6730.00,1.23
6729.00,1.23
6728.00,1.23
6727.00,1.23
6726.00,1.23
6725.00,1.23
6724.00,1.23
6723.00,1.23
6722.00,1.23
6721.00,1.23
6720.00,1.23
6719.00,1.23
6718.00,1.23
6717.00,1.23
6716.00,1.23
6715.00,1.23
6714.00,1.23
6713.00,1.24
6712.00,1.24
6711.00,1.24
6710.00,1.24
6709.00,1.24
6708.00,1.24
6707.00,1.24
6706.00,1.24
6705.00,1.25
6704.00,1.25
6703.00,1.25
6702.00,1.25
6701.00,1.25
6700.00,1.25
6699.00,1.25
6698.00,1.25
6697.00,1.25
6696.00,1.25
6695.00,1.25
6694.00,1.25
6693.00,1.25
6692.00,1.25
6691.00,1.25
6690.00,1.25
6689.00,1.25
6688.00,1.25
6687.00,1.25
6686.00,1.25
6685.00,1.25
6684.00,1.25
6683.00,1.25
6682.00,1.25
6681.00,1.25
6680.00,1.25
6679.00,1.26
6678.00,1.26
6677.00,1.26
6676.00,1.26
6675.00,1.27
6674.00,1.27
6673.00,1.27
6672.00,1.27
6671.00,1.28
6670.00,1.28
6669.00,1.29
6668.00,1.29
6667.00,1.29
6666.00,1.30
6665.00,1.30
6664.00,1.31
6663.00,1.31
6662.00,1.32
6661.00,1.32
6660.00,1.33
6659.00,1.33
6658.00,1.34
6657.00,1.34
6656.00,1.34
6655.00,1.35
6654.00,1.35
6653.00,1.36
6652.00,1.36
6651.00,1.36
6650.00,1.36
6649.00,1.37
6648.00,1.37
6647.00,1.37
6646.00,1.37
6645.00,1.37
6644.00,1.37
6643.00,1.38
6642.00,1.38
6641.00,1.38
6640.00,1.38
6639.00,1.38
6638.00,1.38
6637.00,1.38
6636.00,1.38
6635.00,1.38
6634.00,1.37
6633.00,1.37
6632.00,1.37
6631.00,1.37
6630.00,1.37
6629.00,1.37
6628.00,1.37
6627.00,1.37
6626.00,1.37
6625.00,1.37
6624.00,1.37
6623.00,1.37
6622.00,1.37
6621.00,1.37
6620.00,1.37
6619.00,1.37
6618.00,1.36
6617.00,1.36
6616.00,1.36
6615.00,1.36
6614.00,1.36
6613.00,1.36
6612.00,1.36
6611.00,1.36
6610.00,1.36
6609.00,1.36
6608.00,1.36
6607.00,1.36
6606.00,1.36
6605.00,1.36
6604.00,1.36
6603.00,1.36
6602.00,1.36
6601.00,1.36
6600.00,1.36
6599.00,1.36
6598.00,1.36
6597.00,1.36
6596.00,1.36
6595.00,1.36
6594.00,1.36
6593.00,1.36
6592.00,1.36
6591.00,1.36
6590.00,1.37
6589.00,1.37
6588.00,1.37
6587.00,1.37
6586.00,1.37
6585.00,1.37
6584.00,1.37
6583.00,1.38
6582.00,1.38
6581.00,1.38
6580.00,1.38
6579.00,1.38
6578.00,1.39
6577.00,1.39
6576.00,1.39
6575.00,1.40
6574.00,1.40
6573.00,1.40
6572.00,1.40
6571.00,1.41
6570.00,1.41
6569.00,1.41
6568.00,1.41
6567.00,1.41
6566.00,1.42
6565.00,1.42
6564.00,1.42
6563.00,1.42
6562.00,1.43
6561.00,1.43
6560.00,1.43
6559.00,1.43
6558.00,1.43
6557.00,1.44
6556.00,1.44
6555.00,1.44
6554.00,1.44
6553.00,1.44
6552.00,1.44
6551.00,1.44
6550.00,1.44
6549.00,1.44
6548.00,1.44
6547.00,1.44
6546.00,1.44
6545.00,1.44
6544.00,1.44
6543.00,1.44
6542.00,1.44
6541.00,1.44
6540.00,1.44
6539.00,1.44
6538.00,1.44
6537.00,1.44
6536.00,1.44
6535.00,1.44
6534.00,1.44
6533.00,1.44
6532.00,1.44
6531.00,1.44
6530.00,1.45
6529.00,1.45
6528.00,1.45
6527.00,1.45
6526.00,1.45
6525.00,1.46
6524.00,1.46
6523.00,1.46
6522.00,1.46
6521.00,1.46
6520.00,1.47
6519.00,1.47
6518.00,1.47
6517.00,1.47
6516.00,1.47
6515.00,1.47
6514.00,1.48
6513.00,1.48
6512.00,1.48
6511.00,1.48
6510.00,1.48
6509.00,1.48
6508.00,1.48
6507.00,1.48
6506.00,1.48
6505.00,1.48
6504.00,1.48
6503.00,1.48
6502.00,1.48
6501.00,1.48
6500.00,1.48
6499.00,1.48
6498.00,1.48
6497.00,1.48
6496.00,1.48
6495.00,1.48
6494.00,1.48
6493.00,1.48
6492.00,1.48
6491.00,1.48
6490.00,1.48
6489.00,1.47
6488.00,1.47
6487.00,1.47
6486.00,1.47
6485.00,1.47
6484.00,1.47
6483.00,1.47
6482.00,1.47
6481.00,1.47
6480.00,1.48
6479.00,1.48
6478.00,1.48
6477.00,1.48
6476.00,1.48
6475.00,1.47
6474.00,1.47
6473.00,1.47
6472.00,1.47
6471.00,1.47
6470.00,1.47
6469.00,1.47
6468.00,1.47
6467.00,1.47
6466.00,1.47
6465.00,1.47
6464.00,1.47
6463.00,1.47
6462.00,1.47
6461.00,1.47
6460.00,1.47
6459.00,1.47
6458.00,1.47
6457.00,1.47
6456.00,1.47
6455.00,1.46
6454.00,1.46
6453.00,1.46
6452.00,1.46
6451.00,1.46
6450.00,1.46
6449.00,1.46
6448.00,1.46
6447.00,1.46
6446.00,1.46
6445.00,1.46
6444.00,1.46
6443.00,1.47
6442.00,1.47
6441.00,1.47
6440.00,1.47
6439.00,1.47
6438.00,1.47
6437.00,1.48
6436.00,1.48
6435.00,1.48
6434.00,1.48
6433.00,1.48
6432.00,1.48
6431.00,1.49
6430.00,1.49
6429.00,1.49
6428.00,1.49
6427.00,1.50
6426.00,1.50
6425.00,1.50
6424.00,1.50
6423.00,1.50
6422.00,1.51
6421.00,1.51
6420.00,1.51
6419.00,1.51
6418.00,1.51
6417.00,1.51
6416.00,1.51
6415.00,1.51
6414.00,1.51
6413.00,1.51
6412.00,1.51
6411.00,1.51
6410.00,1.52
6409.00,1.52
6408.00,1.52
6407.00,1.52
6406.00,1.52
6405.00,1.52
6404.00,1.53
6403.00,1.53
6402.00,1.53
6401.00,1.53
6400.00,1.53
6399.00,1.53
6398.00,1.53
6397.00,1.53
6396.00,1.53
6395.00,1.53
6394.00,1.54
6393.00,1.54
6392.00,1.54
6391.00,1.54
6390.00,1.54
6389.00,1.54
6388.00,1.54
6387.00,1.54
6386.00,1.54
6385.00,1.54
6384.00,1.54
6383.00,1.54
6382.00,1.54
6381.00,1.54
6380.00,1.54
6379.00,1.54
6378.00,1.54
6377.00,1.54
6376.00,1.54
6375.00,1.54
6374.00,1.54
6373.00,1.54
6372.00,1.54
6371.00,1.54
6370.00,1.54
6369.00,1.54
6368.00,1.54
6367.00,1.54
6366.00,1.55
6365.00,1.55
6364.00,1.55
6363.00,1.55
6362.00,1.55
6361.00,1.55
6360.00,1.55
6359.00,1.56
6358.00,1.56
6357.00,1.56
6356.00,1.56
6355.00,1.57
6354.00,1.57
6353.00,1.57
6352.00,1.57
6351.00,1.58
6350.00,1.58
6349.00,1.58
6348.00,1.58
6347.00,1.58
6346.00,1.58
6345.00,1.59
6344.00,1.59
6343.00,1.59
6342.00,1.59
6341.00,1.59
6340.00,1.59
6339.00,1.59
6338.00,1.60
6337.00,1.60
6336.00,1.60
6335.00,1.60
6334.00,1.60
6333.00,1.60
6332.00,1.60
6331.00,1.60
6330.00,1.60
6329.00,1.60
6328.00,1.60
6327.00,1.60
6326.00,1.60
6325.00,1.60
6324.00,1.60
6323.00,1.60
6322.00,1.60
6321.00,1.60
6320.00,1.60
6319.00,1.60
6318.00,1.60
6317.00,1.60
6316.00,1.60
6315.00,1.60
6314.00,1.60
6313.00,1.60
6312.00,1.60
6311.00,1.60
6310.00,1.60
6309.00,1.60
6308.00,1.60
6307.00,1.60
6306.00,1.60
6305.00,1.60
6304.00,1.60
6303.00,1.60
6302.00,1.60
6301.00,1.60
6300.00,1.60
6299.00,1.60
6298.00,1.60
6297.00,1.60
6296.00,1.61
6295.00,1.61
6294.00,1.61
6293.00,1.61
6292.00,1.61
6291.00,1.61
6290.00,1.61
6289.00,1.61
6288.00,1.61
6287.00,1.61
6286.00,1.61
6285.00,1.61
6284.00,1.61
6283.00,1.61
6282.00,1.61
6281.00,1.61
6280.00,1.61
6279.00,1.61
6278.00,1.61
6277.00,1.61
6276.00,1.61
6275.00,1.61
6274.00,1.61
6273.00,1.61
6272.00,1.61
6271.00,1.61
6270.00,1.61
6269.00,1.61
6268.00,1.61
6267.00,1.61
6266.00,1.61
6265.00,1.61
6264.00,1.61
6263.00,1.61
6262.00,1.61
6261.00,1.61
6260.00,1.61
6259.00,1.61
6258.00,1.61
6257.00,1.61
6256.00,1.61
6255.00,1.61
6254.00,1.62
6253.00,1.62
6252.00,1.62
6251.00,1.62
6250.00,1.62
6249.00,1.62
6248.00,1.62
6247.00,1.62
6246.00,1.62
6245.00,1.62
6244.00,1.62
6243.00,1.62
6242.00,1.62
6241.00,1.62
6240.00,1.62
6239.00,1.62
6238.00,1.62
6237.00,1.62
6236.00,1.62
6235.00,1.62
6234.00,1.62
6233.00,1.62
6232.00,1.62
6231.00,1.62
6230.00,1.62
6229.00,1.62
6228.00,1.62
6227.00,1.61
6226.00,1.61
6225.00,1.61
6224.00,1.61
6223.00,1.61
6222.00,1.61
6221.00,1.61
6220.00,1.61
6219.00,1.61
6218.00,1.61
6217.00,1.61
6216.00,1.61
6215.00,1.61
6214.00,1.61
6213.00,1.61
6212.00,1.61
6211.00,1.61
6210.00,1.61
6209.00,1.61
6208.00,1.62
6207.00,1.62
6206.00,1.62
6205.00,1.62
6204.00,1.62
6203.00,1.62
6202.00,1.62
6201.00,1.62
6200.00,1.62
6199.00,1.63
6198.00,1.63
6197.00,1.63
6196.00,1.63
6195.00,1.63
6194.00,1.63
6193.00,1.63
6192.00,1.64
6191.00,1.64
6190.00,1.64
6189.00,1.64
6188.00,1.64
6187.00,1.64
6186.00,1.64
6185.00,1.64
6184.00,1.64
6183.00,1.64
6182.00,1.65
6181.00,1.65
6180.00,1.65
6179.00,1.65
6178.00,1.65
6177.00,1.65
6176.00,1.65
6175.00,1.65
6174.00,1.65
6173.00,1.65
6172.00,1.65
6171.00,1.65
6170.00,1.65
6169.00,1.66
6168.00,1.66
6167.00,1.66
6166.00,1.66
6165.00,1.66
6164.00,1.65
6163.00,1.65
6162.00,1.65
6161.00,1.65
6160.00,1.65
6159.00,1.65
6158.00,1.65
6157.00,1.65
6156.00,1.66
6155.00,1.66
6154.00,1.66
6153.00,1.66
6152.00,1.66
6151.00,1.66
6150.00,1.66
6149.00,1.66
6148.00,1.66
6147.00,1.66
6146.00,1.66
6145.00,1.66
6144.00,1.66
6143.00,1.66
6142.00,1.66
6141.00,1.66
6140.00,1.66
6139.00,1.66
6138.00,1.66
6137.00,1.66
6136.00,1.67
6135.00,1.67
6134.00,1.67
6133.00,1.67
6132.00,1.67
6131.00,1.67
6130.00,1.67
6129.00,1.67
6128.00,1.67
6127.00,1.67
6126.00,1.67
6125.00,1.67
6124.00,1.67
6123.00,1.67
6122.00,1.67
6121.00,1.67
6120.00,1.67
6119.00,1.67
6118.00,1.67
6117.00,1.67
6116.00,1.67
6115.00,1.67
6114.00,1.67
6113.00,1.67
6112.00,1.67
6111.00,1.67
6110.00,1.67
6109.00,1.67
6108.00,1.67
6107.00,1.67
6106.00,1.67
6105.00,1.67
6104.00,1.67
6103.00,1.67
6102.00,1.67
6101.00,1.67
6100.00,1.67
6099.00,1.67
6098.00,1.67
6097.00,1.67
6096.00,1.67
6095.00,1.67
6094.00,1.67
6093.00,1.67
6092.00,1.67
6091.00,1.67
6090.00,1.67
6089.00,1.67
6088.00,1.67
6087.00,1.67
6086.00,1.67
6085.00,1.67
6084.00,1.67
6083.00,1.68
6082.00,1.68
6081.00,1.68
6080.00,1.68
6079.00,1.68
6078.00,1.68
6077.00,1.68
6076.00,1.69
6075.00,1.69
6074.00,1.69
6073.00,1.69
6072.00,1.69
6071.00,1.69
6070.00,1.70
6069.00,1.70
6068.00,1.70
6067.00,1.70
6066.00,1.70
6065.00,1.70
6064.00,1.70
6063.00,1.70
6062.00,1.70
6061.00,1.70
6060.00,1.70
6059.00,1.70
6058.00,1.70
6057.00,1.70
6056.00,1.70
6055.00,1.70
6054.00,1.70
6053.00,1.70
6052.00,1.70
6051.00,1.70
6050.00,1.70
6049.00,1.70
6048.00,1.70
6047.00,1.70
6046.00,1.70
6045.00,1.69
6044.00,1.69
6043.00,1.69
6042.00,1.69
6041.00,1.69
6040.00,1.69
6039.00,1.69
6038.00,1.69
6037.00,1.69
6036.00,1.69
6035.00,1.69
6034.00,1.69
6033.00,1.69
6032.00,1.69
6031.00,1.69
6030.00,1.70
6029.00,1.70
6028.00,1.70
6027.00,1.70
6026.00,1.70
6025.00,1.70
6024.00,1.70
6023.00,1.70
6022.00,1.71
6021.00,1.71
6020.00,1.71
6019.00,1.71
6018.00,1.71
6017.00,1.71
6016.00,1.71
6015.00,1.71
6014.00,1.71
6013.00,1.72
6012.00,1.72
6011.00,1.72
6010.00,1.72
6009.00,1.72
6008.00,1.72
6007.00,1.72
6006.00,1.72
6005.00,1.72
6004.00,1.72
6003.00,1.72
6002.00,1.72
6001.00,1.72
6000.00,1.72
5999.00,1.72
5998.00,1.72
5997.00,1.72
5996.00,1.72
5995.00,1.71
5994.00,1.71
5993.00,1.71
5992.00,1.71
5991.00,1.71
5990.00,1.71
5989.00,1.71
5988.00,1.71
5987.00,1.71
5986.00,1.71
5985.00,1.71
5984.00,1.70
5983.00,1.70
5982.00,1.70
5981.00,1.70
5980.00,1.70
5979.00,1.70
5978.00,1.70
5977.00,1.70
5976.00,1.70
5975.00,1.70
5974.00,1.70
5973.00,1.70
5972.00,1.69
5971.00,1.69
5970.00,1.69
5969.00,1.69
5968.00,1.69
5967.00,1.69
5966.00,1.69
5965.00,1.69
5964.00,1.69
5963.00,1.69
5962.00,1.69
5961.00,1.69
5960.00,1.69
5959.00,1.69
5958.00,1.69
5957.00,1.69
5956.00,1.68
5955.00,1.68
5954.00,1.68
5953.00,1.68
5952.00,1.68
5951.00,1.68
5950.00,1.68
5949.00,1.68
5948.00,1.68
5947.00,1.68
5946.00,1.68
5945.00,1.67
5944.00,1.67
5943.00,1.67
5942.00,1.67
5941.00,1.67
5940.00,1.67
5939.00,1.67
5938.00,1.67
5937.00,1.67
5936.00,1.67
5935.00,1.67
5934.00,1.66
5933.00,1.66
5932.00,1.66
5931.00,1.66
5930.00,1.66
5929.00,1.66
5928.00,1.66
5927.00,1.66
5926.00,1.66
5925.00,1.66
5924.00,1.66
5923.00,1.66
5922.00,1.66
5921.00,1.66
5920.00,1.67
5919.00,1.67
5918.00,1.67
5917.00,1.67
5916.00,1.67
5915.00,1.67
5914.00,1.67
5913.00,1.67
5912.00,1.67
5911.00,1.67
5910.00,1.67
5909.00,1.67
5908.00,1.67
5907.00,1.67
5906.00,1.67
5905.00,1.68
5904.00,1.68
5903.00,1.68
5902.00,1.68
5901.00,1.68
5900.00,1.68
5899.00,1.68
5898.00,1.68
5897.00,1.68
5896.00,1.68
5895.00,1.68
5894.00,1.68
5893.00,1.68
5892.00,1.68
5891.00,1.68
5890.00,1.68
5889.00,1.68
5888.00,1.69
5887.00,1.69
5886.00,1.69
5885.00,1.69
5884.00,1.69
5883.00,1.69
5882.00,1.69
5881.00,1.69
5880.00,1.69
5879.00,1.69
5878.00,1.69
5877.00,1.69
5876.00,1.69
5875.00,1.69
5874.00,1.69
5873.00,1.69
5872.00,1.69
5871.00,1.69
5870.00,1.69
5869.00,1.69
5868.00,1.69
5867.00,1.69
5866.00,1.69
5865.00,1.69
5864.00,1.69
5863.00,1.69
5862.00,1.69
5861.00,1.69
5860.00,1.70
5859.00,1.70
5858.00,1.70
5857.00,1.70
5856.00,1.70
5855.00,1.70
5854.00,1.70
5853.00,1.70
5852.00,1.70
5851.00,1.70
5850.00,1.70
5849.00,1.70
5848.00,1.70
5847.00,1.70
5846.00,1.70
5845.00,1.70
5844.00,1.70
5843.00,1.70
5842.00,1.70
5841.00,1.70
5840.00,1.70
5839.00,1.70
5838.00,1.70
5837.00,1.70
5836.00,1.70
5835.00,1.70
5834.00,1.70
5833.00,1.70
5832.00,1.70
5831.00,1.70
5830.00,1.70
5829.00,1.70
5828.00,1.70
5827.00,1.70
5826.00,1.70
5825.00,1.70
5824.00,1.70
5823.00,1.70
5822.00,1.70
5821.00,1.70
5820.00,1.70
5819.00,1.70
5818.00,1.70
5817.00,1.70
5816.00,1.70
5815.00,1.70
5814.00,1.69
5813.00,1.69
5812.00,1.69
5811.00,1.69
5810.00,1.69
5809.00,1.69
5808.00,1.68
5807.00,1.68
5806.00,1.68
5805.00,1.68
5804.00,1.68
5803.00,1.68
5802.00,1.67
5801.00,1.67
5800.00,1.67
5799.00,1.67
5798.00,1.67
5797.00,1.67
5796.00,1.67
5795.00,1.66
5794.00,1.66
5793.00,1.66
5792.00,1.66
5791.00,1.66
5790.00,1.66
5789.00,1.67
5788.00,1.67
5787.00,1.67
5786.00,1.67
5785.00,1.67
5784.00,1.67
5783.00,1.67
5782.00,1.67
5781.00,1.68
5780.00,1.68
5779.00,1.68
5778.00,1.68
5777.00,1.68
5776.00,1.68
5775.00,1.69
5774.00,1.69
5773.00,1.69
5772.00,1.69
5771.00,1.69
5770.00,1.69
5769.00,1.70
5768.00,1.70
5767.00,1.70
5766.00,1.70
5765.00,1.70
5764.00,1.70
5763.00,1.70
5762.00,1.70
5761.00,1.70
5760.00,1.70
5759.00,1.70
5758.00,1.70
5757.00,1.70
5756.00,1.71
5755.00,1.71
5754.00,1.71
5753.00,1.71
5752.00,1.71
5751.00,1.71
5750.00,1.71
5749.00,1.71
5748.00,1.71
5747.00,1.71
5746.00,1.71
5745.00,1.71
5744.00,1.71
5743.00,1.71
5742.00,1.70
5741.00,1.70
5740.00,1.70
5739.00,1.70
5738.00,1.70
5737.00,1.70
5736.00,1.70
5735.00,1.70
5734.00,1.70
5733.00,1.70
5732.00,1.70
5731.00,1.70
5730.00,1.69
5729.00,1.69
5728.00,1.69
5727.00,1.69
5726.00,1.69
5725.00,1.69
5724.00,1.69
5723.00,1.68
5722.00,1.68
5721.00,1.68
5720.00,1.68
5719.00,1.68
5718.00,1.68
5717.00,1.67
5716.00,1.67
5715.00,1.67
5714.00,1.67
5713.00,1.67
5712.00,1.67
5711.00,1.67
5710.00,1.67
5709.00,1.67
5708.00,1.67
5707.00,1.67
5706.00,1.67
5705.00,1.67
5704.00,1.67
5703.00,1.68
5702.00,1.68
5701.00,1.68
5700.00,1.68
5699.00,1.68
5698.00,1.68
5697.00,1.68
5696.00,1.68
5695.00,1.68
5694.00,1.68
5693.00,1.69
5692.00,1.69
5691.00,1.69
5690.00,1.69
5689.00,1.69
5688.00,1.69
5687.00,1.69
5686.00,1.69
5685.00,1.69
5684.00,1.69
5683.00,1.69
5682.00,1.69
5681.00,1.69
5680.00,1.69
5679.00,1.69
5678.00,1.69
5677.00,1.69
5676.00,1.69
5675.00,1.69
5674.00,1.69
5673.00,1.69
5672.00,1.68
5671.00,1.68
5670.00,1.68
5669.00,1.68
5668.00,1.68
5667.00,1.68
5666.00,1.68
5665.00,1.68
5664.00,1.68
5663.00,1.68
5662.00,1.68
5661.00,1.68
5660.00,1.67
5659.00,1.67
5658.00,1.67
5657.00,1.67
5656.00,1.67
5655.00,1.67
5654.00,1.67
5653.00,1.67
5652.00,1.68
5651.00,1.68
5650.00,1.68
5649.00,1.68
5648.00,1.68
5647.00,1.68
5646.00,1.68
5645.00,1.68
5644.00,1.69
5643.00,1.69
5642.00,1.69
5641.00,1.69
5640.00,1.69
5639.00,1.69
5638.00,1.69
5637.00,1.70
5636.00,1.70
5635.00,1.70
5634.00,1.70
5633.00,1.70
5632.00,1.70
5631.00,1.70
5630.00,1.70
5629.00,1.70
5628.00,1.70
5627.00,1.70
5626.00,1.70
5625.00,1.70
5624.00,1.70
5623.00,1.70
5622.00,1.71
5621.00,1.71
5620.00,1.71
5619.00,1.71
5618.00,1.71
5617.00,1.71
5616.00,1.71
5615.00,1.71
5614.00,1.71
5613.00,1.71
5612.00,1.71
5611.00,1.71
5610.00,1.71
5609.00,1.71
5608.00,1.71
5607.00,1.71
5606.00,1.71
5605.00,1.71
5604.00,1.71
5603.00,1.71
5602.00,1.71
5601.00,1.71
5600.00,1.71
5599.00,1.71
5598.00,1.71
5597.00,1.71
5596.00,1.71
5595.00,1.71
5594.00,1.71
5593.00,1.71
5592.00,1.71
5591.00,1.71
5590.00,1.71
5589.00,1.71
5588.00,1.71
5587.00,1.71
5586.00,1.71
5585.00,1.71
5584.00,1.71
5583.00,1.71
5582.00,1.71
5581.00,1.71
5580.00,1.71
5579.00,1.71
5578.00,1.71
5577.00,1.71
5576.00,1.71
5575.00,1.71
5574.00,1.72
5573.00,1.72
5572.00,1.72
5571.00,1.72
5570.00,1.72
5569.00,1.72
5568.00,1.72
5567.00,1.72
5566.00,1.72
5565.00,1.72
5564.00,1.72
5563.00,1.72
5562.00,1.72
5561.00,1.72
5560.00,1.72
5559.00,1.72
5558.00,1.72
5557.00,1.72
5556.00,1.72
5555.00,1.72
5554.00,1.72
5553.00,1.72
5552.00,1.72
5551.00,1.72
5550.00,1.72
5549.00,1.72
5548.00,1.71
5547.00,1.71
5546.00,1.71
5545.00,1.71
5544.00,1.71
5543.00,1.71
5542.00,1.71
5541.00,1.70
5540.00,1.70
5539.00,1.70
5538.00,1.70
5537.00,1.70
5536.00,1.70
5535.00,1.70
5534.00,1.70
5533.00,1.70
5532.00,1.70
5531.00,1.70
5530.00,1.70
5529.00,1.70
5528.00,1.70
5527.00,1.70
5526.00,1.70
5525.00,1.70
5524.00,1.70
5523.00,1.70
5522.00,1.70
5521.00,1.70
5520.00,1.70
5519.00,1.70
5518.00,1.70
5517.00,1.70
5516.00,1.70
5515.00,1.70
5514.00,1.70
5513.00,1.70
5512.00,1.71
5511.00,1.71
5510.00,1.71
5509.00,1.71
5508.00,1.71
5507.00,1.71
5506.00,1.71
5505.00,1.71
5504.00,1.71
5503.00,1.71
5502.00,1.71
5501.00,1.71
5500.00,1.71
5499.00,1.71
5498.00,1.71
5497.00,1.71
5496.00,1.71
5495.00,1.71
5494.00,1.71
5493.00,1.71
5492.00,1.71
5491.00,1.71
5490.00,1.70
5489.00,1.70
5488.00,1.70
5487.00,1.70
5486.00,1.70
5485.00,1.70
5484.00,1.70
5483.00,1.70
5482.00,1.70
5481.00,1.70
5480.00,1.70
5479.00,1.70
5478.00,1.70
5477.00,1.70
5476.00,1.70
5475.00,1.70
5474.00,1.70
5473.00,1.70
5472.00,1.70
5471.00,1.70
5470.00,1.70
5469.00,1.70
5468.00,1.70
5467.00,1.70
5466.00,1.70
5465.00,1.70
5464.00,1.70
5463.00,1.71
5462.00,1.71
5461.00,1.71
5460.00,1.71
5459.00,1.71
5458.00,1.71
5457.00,1.71
5456.00,1.71
5455.00,1.71
5454.00,1.71
5453.00,1.71
5452.00,1.71
5451.00,1.71
5450.00,1.71
5449.00,1.71
5448.00,1.71
5447.00,1.71
5446.00,1.71
5445.00,1.71
5444.00,1.71
5443.00,1.71
5442.00,1.71
5441.00,1.71
5440.00,1.71
5439.00,1.71
5438.00,1.71
5437.00,1.71
5436.00,1.70
5435.00,1.70
5434.00,1.70
5433.00,1.70
5432.00,1.70
5431.00,1.70
5430.00,1.70
5429.00,1.70
5428.00,1.70
5427.00,1.69
5426.00,1.69
5425.00,1.69
5424.00,1.69
5423.00,1.69
5422.00,1.69
5421.00,1.69
5420.00,1.69
5419.00,1.69
5418.00,1.69
5417.00,1.69
5416.00,1.69
5415.00,1.69
5414.00,1.69
5413.00,1.69
5412.00,1.69
5411.00,1.69
5410.00,1.69
5409.00,1.69
5408.00,1.69
5407.00,1.69
5406.00,1.69
5405.00,1.69
5404.00,1.69
5403.00,1.69
5402.00,1.69
5401.00,1.69
5400.00,1.69
5399.00,1.69
5398.00,1.70
5397.00,1.70
5396.00,1.70
5395.00,1.70
5394.00,1.69
5393.00,1.69
5392.00,1.69
5391.00,1.69
5390.00,1.69
5389.00,1.69
5388.00,1.69
5387.00,1.69
5386.00,1.69
5385.00,1.69
5384.00,1.69
5383.00,1.69
5382.00,1.68
5381.00,1.68
5380.00,1.68
5379.00,1.68
5378.00,1.68
5377.00,1.68
5376.00,1.67
5375.00,1.67
5374.00,1.67
5373.00,1.67
5372.00,1.66
5371.00,1.66
5370.00,1.66
5369.00,1.66
5368.00,1.65
5367.00,1.65
5366.00,1.65
5365.00,1.64
5364.00,1.64
5363.00,1.64
5362.00,1.63
5361.00,1.63
5360.00,1.62
5359.00,1.62
5358.00,1.61
5357.00,1.61
5356.00,1.60
5355.00,1.60
5354.00,1.59
5353.00,1.59
5352.00,1.58
5351.00,1.58
5350.00,1.57
5349.00,1.56
5348.00,1.56
5347.00,1.55
5346.00,1.55
5345.00,1.54
5344.00,1.53
5343.00,1.53
5342.00,1.52
5341.00,1.51
5340.00,1.51
5339.00,1.50
5338.00,1.49
5337.00,1.49
5336.00,1.48
5335.00,1.48
5334.00,1.47
5333.00,1.47
5332.00,1.46
5331.00,1.45
5330.00,1.45
5329.00,1.44
5328.00,1.43
5327.00,1.43
5326.00,1.42
5325.00,1.41
5324.00,1.41
5323.00,1.40
5322.00,1.39
5321.00,1.38
5320.00,1.38
5319.00,1.37
5318.00,1.36
5317.00,1.35
5316.00,1.35
5315.00,1.34
5314.00,1.33
5313.00,1.32
5312.00,1.31
5311.00,1.30
5310.00,1.29
5309.00,1.29
5308.00,1.28
5307.00,1.27
5306.00,1.26
5305.00,1.25
5304.00,1.24
5303.00,1.23
5302.00,1.23
5301.00,1.22
5300.00,1.21
5299.00,1.20
5298.00,1.20
5297.00,1.19
5296.00,1.18
5295.00,1.17
5294.00,1.16
5293.00,1.16
5292.00,1.15
5291.00,1.14
5290.00,1.13
5289.00,1.13
5288.00,1.12
5287.00,1.11
5286.00,1.11
5285.00,1.10
5284.00,1.09
5283.00,1.09
5282.00,1.08
5281.00,1.07
5280.00,1.07
5279.00,1.06
5278.00,1.05
5277.00,1.05
5276.00,1.04
5275.00,1.03
5274.00,1.03
5273.00,1.02
5272.00,1.02
5271.00,1.01
5270.00,1.01
5269.00,1.00
5268.00,1.00
5267.00,0.99
5266.00,0.99
5265.00,0.98
5264.00,0.98
5263.00,0.98
5262.00,0.97
5261.00,0.97
5260.00,0.97
5259.00,0.96
5258.00,0.96
5257.00,0.96
5256.00,0.96
5255.00,0.95
5254.00,0.95
5253.00,0.95
5252.00,0.95
5251.00,0.94
5250.00,0.94
5249.00,0.94
5248.00,0.94
5247.00,0.94
5246.00,0.94
5245.00,0.93
5244.00,0.93
5243.00,0.93
5242.00,0.93
5241.00,0.93
5240.00,0.93
5239.00,0.92
5238.00,0.92
5237.00,0.92
5236.00,0.92
5235.00,0.92
5234.00,0.92
5233.00,0.91
5232.00,0.91
5231.00,0.91
5230.00,0.91
5229.00,0.91
5228.00,0.91
5227.00,0.91
5226.00,0.90
5225.00,0.90
5224.00,0.90
5223.00,0.90
5222.00,0.90
5221.00,0.90
5220.00,0.90
5219.00,0.89
5218.00,0.89
5217.00,0.89
5216.00,0.89
5215.00,0.89
5214.00,0.89
5213.00,0.89
5212.00,0.89
5211.00,0.89
5210.00,0.89
5209.00,0.89
5208.00,0.89
5207.00,0.88
5206.00,0.88
5205.00,0.88
5204.00,0.88
5203.00,0.88
5202.00,0.88
5201.00,0.88
5200.00,0.88
5199.00,0.88
5198.00,0.88
5197.00,0.88
5196.00,0.89
5195.00,0.89
5194.00,0.89
5193.00,0.89
5192.00,0.89
5191.00,0.89
5190.00,0.89
5189.00,0.89
5188.00,0.89
5187.00,0.88
5186.00,0.88
5185.00,0.88
5184.00,0.88
5183.00,0.88
5182.00,0.89
5181.00,0.89
5180.00,0.89
5179.00,0.89
5178.00,0.89
5177.00,0.89
5176.00,0.88
5175.00,0.88
5174.00,0.88
5173.00,0.88
5172.00,0.88
5171.00,0.88
5170.00,0.88
5169.00,0.88
5168.00,0.88
5167.00,0.88
5166.00,0.88
5165.00,0.88
5164.00,0.88
5163.00,0.88
5162.00,0.88
5161.00,0.87
5160.00,0.87
5159.00,0.87
5158.00,0.87
5157.00,0.87
5156.00,0.87
5155.00,0.87
5154.00,0.87
5153.00,0.87
5152.00,0.87
5151.00,0.88
5150.00,0.88
5149.00,0.88
5148.00,0.88
5147.00,0.88
5146.00,0.88
5145.00,0.88
5144.00,0.88
5143.00,0.88
5142.00,0.89
5141.00,0.89
5140.00,0.89
5139.00,0.89
5138.00,0.89
5137.00,0.89
5136.00,0.90
5135.00,0.90
5134.00,0.90
5133.00,0.90
5132.00,0.90
5131.00,0.90
5130.00,0.90
5129.00,0.90
5128.00,0.91
5127.00,0.91
5126.00,0.91
5125.00,0.91
5124.00,0.91
5123.00,0.91
5122.00,0.91
5121.00,0.91
5120.00,0.91
5119.00,0.91
5118.00,0.91
5117.00,0.91
5116.00,0.91
5115.00,0.91
5114.00,0.91
5113.00,0.91
5112.00,0.91
5111.00,0.92
5110.00,0.92
5109.00,0.92
5108.00,0.92
5107.00,0.92
5106.00,0.92
5105.00,0.92
5104.00,0.92
5103.00,0.93
5102.00,0.93
5101.00,0.93
5100.00,0.93
5099.00,0.93
5098.00,0.93
5097.00,0.93
5096.00,0.94
5095.00,0.94
5094.00,0.94
5093.00,0.94
5092.00,0.94
5091.00,0.95
5090.00,0.95
5089.00,0.95
5088.00,0.95
5087.00,0.95
5086.00,0.95
5085.00,0.96
5084.00,0.96
5083.00,0.96
5082.00,0.96
5081.00,0.96
5080.00,0.96
5079.00,0.97
5078.00,0.97
5077.00,0.97
5076.00,0.97
5075.00,0.97
5074.00,0.97
5073.00,0.97
5072.00,0.97
5071.00,0.98
5070.00,0.98
5069.00,0.98
5068.00,0.98
5067.00,0.98
5066.00,0.98
5065.00,0.98
5064.00,0.98
5063.00,0.99
5062.00,0.99
5061.00,0.99
5060.00,0.99
5059.00,0.99
5058.00,0.99
5057.00,0.99
5056.00,0.99
5055.00,0.99
5054.00,1.00
5053.00,1.00
5052.00,1.00
5051.00,1.00
5050.00,1.00
5049.00,1.00
5048.00,1.01
5047.00,1.01
5046.00,1.01
5045.00,1.01
5044.00,1.01
5043.00,1.02
5042.00,1.02
5041.00,1.02
5040.00,1.02
5039.00,1.02
5038.00,1.02
5037.00,1.03
5036.00,1.03
5035.00,1.03
5034.00,1.03
5033.00,1.04
5032.00,1.04
5031.00,1.04
5030.00,1.04
5029.00,1.05
5028.00,1.05
5027.00,1.05
5026.00,1.05
5025.00,1.06
5024.00,1.06
5023.00,1.06
5022.00,1.06
5021.00,1.07
5020.00,1.07
5019.00,1.07
5018.00,1.07
5017.00,1.08
5016.00,1.08
5015.00,1.08
5014.00,1.08
5013.00,1.09
5012.00,1.09
5011.00,1.09
5010.00,1.09
5009.00,1.10
5008.00,1.10
5007.00,1.10
5006.00,1.10
5005.00,1.11
5004.00,1.11
5003.00,1.11
5002.00,1.11
5001.00,1.11
5000.00,1.11
4999.00,1.11
4998.00,1.11
4997.00,1.11
4996.00,1.11
4995.00,1.11
4994.00,1.11
4993.00,1.11
4992.00,1.11
4991.00,1.11
4990.00,1.11
4989.00,1.11
4988.00,1.12
4987.00,1.12
4986.00,1.12
4985.00,1.12
4984.00,1.12
4983.00,1.12
4982.00,1.12
4981.00,1.12
4980.00,1.12
4979.00,1.12
4978.00,1.13
4977.00,1.13
4976.00,1.13
4975.00,1.13
4974.00,1.13
4973.00,1.14
4972.00,1.14
4971.00,1.14
4970.00,1.14
4969.00,1.15
4968.00,1.15
4967.00,1.15
4966.00,1.16
4965.00,1.16
4964.00,1.16
4963.00,1.16
4962.00,1.17
4961.00,1.17
4960.00,1.17
4959.00,1.17
4958.00,1.17
4957.00,1.18
4956.00,1.18
4955.00,1.18
4954.00,1.18
4953.00,1.18
4952.00,1.19
4951.00,1.19
4950.00,1.19
4949.00,1.19
4948.00,1.20
4947.00,1.20
4946.00,1.20
4945.00,1.21
4944.00,1.21
4943.00,1.21
4942.00,1.21
4941.00,1.22
4940.00,1.22
4939.00,1.22
4938.00,1.22
4937.00,1.23
4936.00,1.23
4935.00,1.23
4934.00,1.23
4933.00,1.24
4932.00,1.24
4931.00,1.24
4930.00,1.25
4929.00,1.25
4928.00,1.25
4927.00,1.26
4926.00,1.26
4925.00,1.26
4924.00,1.26
4923.00,1.26
4922.00,1.27
4921.00,1.27
4920.00,1.27
4919.00,1.27
4918.00,1.27
4917.00,1.28
4916.00,1.28
4915.00,1.28
4914.00,1.28
4913.00,1.28
4912.00,1.29
4911.00,1.29
4910.00,1.29
4909.00,1.29
4908.00,1.30
4907.00,1.30
4906.00,1.30
4905.00,1.30
4904.00,1.31
4903.00,1.31
4902.00,1.31
4901.00,1.31
4900.00,1.31
4899.00,1.32
4898.00,1.32
4897.00,1.32
4896.00,1.32
4895.00,1.33
4894.00,1.33
4893.00,1.33
4892.00,1.33
4891.00,1.33
4890.00,1.34
4889.00,1.34
4888.00,1.34
4887.00,1.34
4886.00,1.34
4885.00,1.34
4884.00,1.35
4883.00,1.35
4882.00,1.35
4881.00,1.35
4880.00,1.35
4879.00,1.35
4878.00,1.35
4877.00,1.35
4876.00,1.35
4875.00,1.35
4874.00,1.35
4873.00,1.35
4872.00,1.36
4871.00,1.36
4870.00,1.36
4869.00,1.36
4868.00,1.36
4867.00,1.36
4866.00,1.36
4865.00,1.37
4864.00,1.37
4863.00,1.37
4862.00,1.37
4861.00,1.37
4860.00,1.37
4859.00,1.38
4858.00,1.38
4857.00,1.38
4856.00,1.38
4855.00,1.38
4854.00,1.38
4853.00,1.39
4852.00,1.39
4851.00,1.39
4850.00,1.39
4849.00,1.39
4848.00,1.40
4847.00,1.40
4846.00,1.40
4845.00,1.40
4844.00,1.40
4843.00,1.40
4842.00,1.40
4841.00,1.41
4840.00,1.41
4839.00,1.41
4838.00,1.41
4837.00,1.41
4836.00,1.41
4835.00,1.41
4834.00,1.41
4833.00,1.42
4832.00,1.42
4831.00,1.42
4830.00,1.42
4829.00,1.43
4828.00,1.43
4827.00,1.43
4826.00,1.43
4825.00,1.44
4824.00,1.44
4823.00,1.44
4822.00,1.44
4821.00,1.45
4820.00,1.45
4819.00,1.45
4818.00,1.45
4817.00,1.46
4816.00,1.46
4815.00,1.46
4814.00,1.47
4813.00,1.47
4812.00,1.47
4811.00,1.47
4810.00,1.48
4809.00,1.48
4808.00,1.48
4807.00,1.48
4806.00,1.48
4805.00,1.49
4804.00,1.49
4803.00,1.49
4802.00,1.49
4801.00,1.49
4800.00,1.49
4799.00,1.49
4798.00,1.50
4797.00,1.50
4796.00,1.50
4795.00,1.50
4794.00,1.50
4793.00,1.50
4792.00,1.51
4791.00,1.51
4790.00,1.51
4789.00,1.51
4788.00,1.51
4787.00,1.52
4786.00,1.52
4785.00,1.52
4784.00,1.52
4783.00,1.53
4782.00,1.53
4781.00,1.53
4780.00,1.54
4779.00,1.54
4778.00,1.54
4777.00,1.55
4776.00,1.55
4775.00,1.55
4774.00,1.55
4773.00,1.56
4772.00,1.56
4771.00,1.56
4770.00,1.57
4769.00,1.57
4768.00,1.57
4767.00,1.57
4766.00,1.57
4765.00,1.58
4764.00,1.58
4763.00,1.58
4762.00,1.58
4761.00,1.58
4760.00,1.58
4759.00,1.59
4758.00,1.59
4757.00,1.59
4756.00,1.59
4755.00,1.59
4754.00,1.59
4753.00,1.59
4752.00,1.60
4751.00,1.60
4750.00,1.60
4749.00,1.60
4748.00,1.60
4747.00,1.60
4746.00,1.60
4745.00,1.60
4744.00,1.61
4743.00,1.61
4742.00,1.61
4741.00,1.61
4740.00,1.61
4739.00,1.61
4738.00,1.61
4737.00,1.61
4736.00,1.61
4735.00,1.61
4734.00,1.61
4733.00,1.61
4732.00,1.61
4731.00,1.61
4730.00,1.61
4729.00,1.61
4728.00,1.61
4727.00,1.62
4726.00,1.62
4725.00,1.62
4724.00,1.62
4723.00,1.62
4722.00,1.62
4721.00,1.62
4720.00,1.62
4719.00,1.62
4718.00,1.62
4717.00,1.62
4716.00,1.62
4715.00,1.62
4714.00,1.62
4713.00,1.62
4712.00,1.63
4711.00,1.63
4710.00,1.63
4709.00,1.63
4708.00,1.63
4707.00,1.64
4706.00,1.64
4705.00,1.64
4704.00,1.64
4703.00,1.64
4702.00,1.65
4701.00,1.65
4700.00,1.65
4699.00,1.66
4698.00,1.66
4697.00,1.66
4696.00,1.67
4695.00,1.67
4694.00,1.67
4693.00,1.67
4692.00,1.68
4691.00,1.68
4690.00,1.68
4689.00,1.68
4688.00,1.69
4687.00,1.69
4686.00,1.69
4685.00,1.69
4684.00,1.70
4683.00,1.70
4682.00,1.70
4681.00,1.70
4680.00,1.71
4679.00,1.71
4678.00,1.71
4677.00,1.71
4676.00,1.71
4675.00,1.71
4674.00,1.71
4673.00,1.71
4672.00,1.71
4671.00,1.71
4670.00,1.71
4669.00,1.71
4668.00,1.71
4667.00,1.71
4666.00,1.71
4665.00,1.71
4664.00,1.71
4663.00,1.71
4662.00,1.71
4661.00,1.71
4660.00,1.71
4659.00,1.71
4658.00,1.71
4657.00,1.71
4656.00,1.70
4655.00,1.70
4654.00,1.70
4653.00,1.70
4652.00,1.70
4651.00,1.70
4650.00,1.70
4649.00,1.70
4648.00,1.70
4647.00,1.70
4646.00,1.70
4645.00,1.70
4644.00,1.70
4643.00,1.70
4642.00,1.70
4641.00,1.70
4640.00,1.70
4639.00,1.70
4638.00,1.70
4637.00,1.70
4636.00,1.70
4635.00,1.70
4634.00,1.71
4633.00,1.71
4632.00,1.71
4631.00,1.71
4630.00,1.71
4629.00,1.71
4628.00,1.71
4627.00,1.71
4626.00,1.71
4625.00,1.71
4624.00,1.71
4623.00,1.71
4622.00,1.71
4621.00,1.71
4620.00,1.70
4619.00,1.70
4618.00,1.70
4617.00,1.70
4616.00,1.70
4615.00,1.70
4614.00,1.69
4613.00,1.69
4612.00,1.69
4611.00,1.69
4610.00,1.69
4609.00,1.69
4608.00,1.69
4607.00,1.68
4606.00,1.68
4605.00,1.68
4604.00,1.68
4603.00,1.68
4602.00,1.68
4601.00,1.68
4600.00,1.68
4599.00,1.68
4598.00,1.68
4597.00,1.68
4596.00,1.68
4595.00,1.68
4594.00,1.68
4593.00,1.68
4592.00,1.69
4591.00,1.69
4590.00,1.69
4589.00,1.69
4588.00,1.69
4587.00,1.69
4586.00,1.70
4585.00,1.70
4584.00,1.70
4583.00,1.70
4582.00,1.70
4581.00,1.71
4580.00,1.71
4579.00,1.71
4578.00,1.71
4577.00,1.71
4576.00,1.72
4575.00,1.72
4574.00,1.72
4573.00,1.72
4572.00,1.72
4571.00,1.72
4570.00,1.72
4569.00,1.72
4568.00,1.72
4567.00,1.72
4566.00,1.72
4565.00,1.72
4564.00,1.72
4563.00,1.72
4562.00,1.72
4561.00,1.72
4560.00,1.72
4559.00,1.72
4558.00,1.71
4557.00,1.71
4556.00,1.71
4555.00,1.71
4554.00,1.71
4553.00,1.71
4552.00,1.71
4551.00,1.71
4550.00,1.71
4549.00,1.70
4548.00,1.70
4547.00,1.70
4546.00,1.70
4545.00,1.70
4544.00,1.70
4543.00,1.70
4542.00,1.70
4541.00,1.70
4540.00,1.70
4539.00,1.70
4538.00,1.70
4537.00,1.70
4536.00,1.70
4535.00,1.70
4534.00,1.70
4533.00,1.70
4532.00,1.70
4531.00,1.70
4530.00,1.70
4529.00,1.70
4528.00,1.70
4527.00,1.70
4526.00,1.70
4525.00,1.70
4524.00,1.70
4523.00,1.70
4522.00,1.71
4521.00,1.71
4520.00,1.71
4519.00,1.71
4518.00,1.71
4517.00,1.71
4516.00,1.71
4515.00,1.71
4514.00,1.71
4513.00,1.71
4512.00,1.71
4511.00,1.72
4510.00,1.72
4509.00,1.72
4508.00,1.72
4507.00,1.72
4506.00,1.72
4505.00,1.72
4504.00,1.72
4503.00,1.72
4502.00,1.72
4501.00,1.72
4500.00,1.72
4499.00,1.72
4498.00,1.72
4497.00,1.72
4496.00,1.72
4495.00,1.72
4494.00,1.72
4493.00,1.72
4492.00,1.72
4491.00,1.72
4490.00,1.72
4489.00,1.72
4488.00,1.72
4487.00,1.72
4486.00,1.72
4485.00,1.72
4484.00,1.72
4483.00,1.72
4482.00,1.72
4481.00,1.72
4480.00,1.71
4479.00,1.71
4478.00,1.71
4477.00,1.71
4476.00,1.71
4475.00,1.71
4474.00,1.71
4473.00,1.70
4472.00,1.70
4471.00,1.70
4470.00,1.70
4469.00,1.70
4468.00,1.69
4467.00,1.69
4466.00,1.69
4465.00,1.69
4464.00,1.68
4463.00,1.68
4462.00,1.68
4461.00,1.68
4460.00,1.67
4459.00,1.67
4458.00,1.67
4457.00,1.66
4456.00,1.66
4455.00,1.66
4454.00,1.65
4453.00,1.65
4452.00,1.65
4451.00,1.64
4450.00,1.64
4449.00,1.64
4448.00,1.64
4447.00,1.63
4446.00,1.63
4445.00,1.63
4444.00,1.63
4443.00,1.62
4442.00,1.62
4441.00,1.62
4440.00,1.62
4439.00,1.61
4438.00,1.61
4437.00,1.61
4436.00,1.61
4435.00,1.60
4434.00,1.60
4433.00,1.60
4432.00,1.59
4431.00,1.59
4430.00,1.59
4429.00,1.58
4428.00,1.58
4427.00,1.58
4426.00,1.58
4425.00,1.57
4424.00,1.57
4423.00,1.57
4422.00,1.56
4421.00,1.56
4420.00,1.56
4419.00,1.56
4418.00,1.56
4417.00,1.55
4416.00,1.55
4415.00,1.55
4414.00,1.55
4413.00,1.55
4412.00,1.55
4411.00,1.55
4410.00,1.55
4409.00,1.55
4408.00,1.55
4407.00,1.55
4406.00,1.56
4405.00,1.56
4404.00,1.56
4403.00,1.56
4402.00,1.57
4401.00,1.57
4400.00,1.57
4399.00,1.58
4398.00,1.58
4397.00,1.58
4396.00,1.59
4395.00,1.59
4394.00,1.60
4393.00,1.60
4392.00,1.60
4391.00,1.61
4390.00,1.61
4389.00,1.62
4388.00,1.62
4387.00,1.62
4386.00,1.63
4385.00,1.63
4384.00,1.64
4383.00,1.64
4382.00,1.64
4381.00,1.64
4380.00,1.64
4379.00,1.65
4378.00,1.65
4377.00,1.65
4376.00,1.65
4375.00,1.65
4374.00,1.65
4373.00,1.65
4372.00,1.65
4371.00,1.65
4370.00,1.65
4369.00,1.65
4368.00,1.65
4367.00,1.65
4366.00,1.64
4365.00,1.64
4364.00,1.64
4363.00,1.64
4362.00,1.63
4361.00,1.63
4360.00,1.63
4359.00,1.62
4358.00,1.62
4357.00,1.62
4356.00,1.62
4355.00,1.61
4354.00,1.61
4353.00,1.61
4352.00,1.61
4351.00,1.61
4350.00,1.61
4349.00,1.60
4348.00,1.60
4347.00,1.60
4346.00,1.60
4345.00,1.60
4344.00,1.60
4343.00,1.60
4342.00,1.60
4341.00,1.60
4340.00,1.61
4339.00,1.61
4338.00,1.61
4337.00,1.61
4336.00,1.61
4335.00,1.61
4334.00,1.62
4333.00,1.62
4332.00,1.62
4331.00,1.63
4330.00,1.63
4329.00,1.63
4328.00,1.63
4327.00,1.64
4326.00,1.64
4325.00,1.64
4324.00,1.64
4323.00,1.65
4322.00,1.65
4321.00,1.65
4320.00,1.65
4319.00,1.65
4318.00,1.66
4317.00,1.66
4316.00,1.66
4315.00,1.66
4314.00,1.66
4313.00,1.67
4312.00,1.67
4311.00,1.67
4310.00,1.67
4309.00,1.68
4308.00,1.68
4307.00,1.68
4306.00,1.68
4305.00,1.69
4304.00,1.69
4303.00,1.69
4302.00,1.69
4301.00,1.70
4300.00,1.70
4299.00,1.70
4298.00,1.70
4297.00,1.71
4296.00,1.71
4295.00,1.71
4294.00,1.71
4293.00,1.72
4292.00,1.72
4291.00,1.72
4290.00,1.72
4289.00,1.73
4288.00,1.73
4287.00,1.73
4286.00,1.73
4285.00,1.73
4284.00,1.73
4283.00,1.73
4282.00,1.73
4281.00,1.73
4280.00,1.73
4279.00,1.73
4278.00,1.73
4277.00,1.73
4276.00,1.73
4275.00,1.73
4274.00,1.73
4273.00,1.73
4272.00,1.72
4271.00,1.72
4270.00,1.72
4269.00,1.72
4268.00,1.71
4267.00,1.71
4266.00,1.71
4265.00,1.70
4264.00,1.70
4263.00,1.70
4262.00,1.69
4261.00,1.69
4260.00,1.69
4259.00,1.68
4258.00,1.68
4257.00,1.68
4256.00,1.68
4255.00,1.67
4254.00,1.67
4253.00,1.67
4252.00,1.67
4251.00,1.66
4250.00,1.66
4249.00,1.66
4248.00,1.66
4247.00,1.66
4246.00,1.66
4245.00,1.66
4244.00,1.66
4243.00,1.66
4242.00,1.66
4241.00,1.66
4240.00,1.66
4239.00,1.66
4238.00,1.67
4237.00,1.67
4236.00,1.67
4235.00,1.67
4234.00,1.67
4233.00,1.67
4232.00,1.68
4231.00,1.68
4230.00,1.68
4229.00,1.68
4228.00,1.68
4227.00,1.68
4226.00,1.69
4225.00,1.69
4224.00,1.69
4223.00,1.69
4222.00,1.69
4221.00,1.70
4220.00,1.70
4219.00,1.70
4218.00,1.70
4217.00,1.70
4216.00,1.70
4215.00,1.70
4214.00,1.70
4213.00,1.70
4212.00,1.70
4211.00,1.70
4210.00,1.70
4209.00,1.70
4208.00,1.70
4207.00,1.70
4206.00,1.70
4205.00,1.69
4204.00,1.69
4203.00,1.69
4202.00,1.69
4201.00,1.69
4200.00,1.69
4199.00,1.69
4198.00,1.68
4197.00,1.68
4196.00,1.68
4195.00,1.68
4194.00,1.67
4193.00,1.67
4192.00,1.67
4191.00,1.67
4190.00,1.66
4189.00,1.66
4188.00,1.66
4187.00,1.66
4186.00,1.66
4185.00,1.66
4184.00,1.66
4183.00,1.66
4182.00,1.66
4181.00,1.66
4180.00,1.66
4179.00,1.66
4178.00,1.66
4177.00,1.66
4176.00,1.66
4175.00,1.66
4174.00,1.66
4173.00,1.66
4172.00,1.66
4171.00,1.66
4170.00,1.66
4169.00,1.66
4168.00,1.67
4167.00,1.67
4166.00,1.67
4165.00,1.67
4164.00,1.67
4163.00,1.67
4162.00,1.67
4161.00,1.67
4160.00,1.67
4159.00,1.67
4158.00,1.67
4157.00,1.67
4156.00,1.67
4155.00,1.67
4154.00,1.67
4153.00,1.67
4152.00,1.67
4151.00,1.67
4150.00,1.67
4149.00,1.67
4148.00,1.67
4147.00,1.67
4146.00,1.67
4145.00,1.67
4144.00,1.67
4143.00,1.67
4142.00,1.67
4141.00,1.67
4140.00,1.66
4139.00,1.66
4138.00,1.66
4137.00,1.66
4136.00,1.66
4135.00,1.66
4134.00,1.66
4133.00,1.66
4132.00,1.66
4131.00,1.66
4130.00,1.66
4129.00,1.66
4128.00,1.66
4127.00,1.66
4126.00,1.66
4125.00,1.66
4124.00,1.66
4123.00,1.66
4122.00,1.66
4121.00,1.66
4120.00,1.66
4119.00,1.66
4118.00,1.67
4117.00,1.67
4116.00,1.67
4115.00,1.67
4114.00,1.67
4113.00,1.67
4112.00,1.67
4111.00,1.68
4110.00,1.68
4109.00,1.68
4108.00,1.68
4107.00,1.68
4106.00,1.68
4105.00,1.69
4104.00,1.69
4103.00,1.69
4102.00,1.69
4101.00,1.69
4100.00,1.69
4099.00,1.69
4098.00,1.69
4097.00,1.69
4096.00,1.69
4095.00,1.69
4094.00,1.69
4093.00,1.69
4092.00,1.69
4091.00,1.68
4090.00,1.68
4089.00,1.68
4088.00,1.68
4087.00,1.68
4086.00,1.68
4085.00,1.68
4084.00,1.68
4083.00,1.68
4082.00,1.68
4081.00,1.68
4080.00,1.68
4079.00,1.68
4078.00,1.68
4077.00,1.68
4076.00,1.68
4075.00,1.68
4074.00,1.67
4073.00,1.67
4072.00,1.67
4071.00,1.67
4070.00,1.67
4069.00,1.67
4068.00,1.67
4067.00,1.67
4066.00,1.67
4065.00,1.67
4064.00,1.67
4063.00,1.67
4062.00,1.67
4061.00,1.67
4060.00,1.67
4059.00,1.67
4058.00,1.67
4057.00,1.67
4056.00,1.67
4055.00,1.66
4054.00,1.66
4053.00,1.66
4052.00,1.66
4051.00,1.66
4050.00,1.65
4049.00,1.65
4048.00,1.65
4047.00,1.65
4046.00,1.65
4045.00,1.64
4044.00,1.64
4043.00,1.64
4042.00,1.64
4041.00,1.64
4040.00,1.64
4039.00,1.63
4038.00,1.63
4037.00,1.63
4036.00,1.62
4035.00,1.62
4034.00,1.62
4033.00,1.61
4032.00,1.61
4031.00,1.61
4030.00,1.61
4029.00,1.61
4028.00,1.61
4027.00,1.61
4026.00,1.61
4025.00,1.61
4024.00,1.61
4023.00,1.61
4022.00,1.62
4021.00,1.62
4020.00,1.63
4019.00,1.63
4018.00,1.63
4017.00,1.64
4016.00,1.64
4015.00,1.65
4014.00,1.66
4013.00,1.67
4012.00,1.67
4011.00,1.68
4010.00,1.69
4009.00,1.71
4008.00,1.72
4007.00,1.73
4006.00,1.74
4005.00,1.75
4004.00,1.76
4003.00,1.78
4002.00,1.79
4001.00,1.80
4000.00,1.82
