创建为新数据集,样品 069 用户 Administrator 日期 星期五, 七月 26 2019
cm-1,%T
10000.00,1.72
9999.00,1.72
9998.00,1.72
9997.00,1.72
9996.00,1.72
9995.00,1.72
9994.00,1.72
9993.00,1.72
9992.00,1.72
9991.00,1.72
9990.00,1.72
9989.00,1.72
9988.00,1.72
9987.00,1.72
9986.00,1.72
9985.00,1.72
9984.00,1.71
9983.00,1.71
9982.00,1.71
9981.00,1.71
9980.00,1.70
9979.00,1.70
9978.00,1.69
9977.00,1.69
9976.00,1.68
9975.00,1.68
9974.00,1.67
9973.00,1.66
9972.00,1.66
9971.00,1.65
9970.00,1.65
9969.00,1.64
9968.00,1.64
9967.00,1.64
9966.00,1.63
9965.00,1.63
9964.00,1.62
9963.00,1.62
9962.00,1.62
9961.00,1.61
9960.00,1.61
9959.00,1.60
9958.00,1.60
9957.00,1.60
9956.00,1.59
9955.00,1.59
9954.00,1.59
9953.00,1.59
9952.00,1.59
9951.00,1.59
9950.00,1.59
9949.00,1.60
9948.00,1.60
9947.00,1.60
9946.00,1.61
9945.00,1.61
9944.00,1.61
9943.00,1.61
9942.00,1.61
9941.00,1.61
9940.00,1.61
9939.00,1.61
9938.00,1.60
9937.00,1.60
9936.00,1.60
9935.00,1.60
9934.00,1.59
9933.00,1.59
9932.00,1.59
9931.00,1.59
9930.00,1.59
9929.00,1.59
9928.00,1.59
9927.00,1.58
9926.00,1.58
9925.00,1.58
9924.00,1.58
9923.00,1.57
9922.00,1.57
9921.00,1.57
9920.00,1.57
9919.00,1.56
9918.00,1.56
9917.00,1.56
9916.00,1.56
9915.00,1.56
9914.00,1.57
9913.00,1.57
9912.00,1.57
9911.00,1.58
9910.00,1.58
9909.00,1.59
9908.00,1.59
9907.00,1.60
9906.00,1.60
9905.00,1.60
9904.00,1.61
9903.00,1.61
9902.00,1.62
9901.00,1.62
9900.00,1.62
9899.00,1.63
9898.00,1.63
9897.00,1.63
9896.00,1.63
9895.00,1.63
9894.00,1.63
9893.00,1.63
9892.00,1.62
9891.00,1.62
9890.00,1.62
9889.00,1.61
9888.00,1.60
9887.00,1.60
9886.00,1.59
9885.00,1.58
9884.00,1.57
9883.00,1.57
9882.00,1.56
9881.00,1.55
9880.00,1.54
9879.00,1.53
9878.00,1.52
9877.00,1.52
9876.00,1.51
9875.00,1.50
9874.00,1.50
9873.00,1.49
9872.00,1.48
9871.00,1.48
9870.00,1.47
9869.00,1.47
9868.00,1.47
9867.00,1.46
9866.00,1.46
9865.00,1.46
9864.00,1.46
9863.00,1.47
9862.00,1.47
9861.00,1.47
9860.00,1.47
9859.00,1.47
9858.00,1.48
9857.00,1.48
9856.00,1.48
9855.00,1.49
9854.00,1.49
9853.00,1.49
9852.00,1.50
9851.00,1.50
9850.00,1.50
9849.00,1.50
9848.00,1.51
9847.00,1.51
9846.00,1.51
9845.00,1.51
9844.00,1.52
9843.00,1.52
9842.00,1.52
9841.00,1.52
9840.00,1.52
9839.00,1.53
9838.00,1.53
9837.00,1.53
9836.00,1.53
9835.00,1.53
9834.00,1.53
9833.00,1.53
9832.00,1.53
9831.00,1.53
9830.00,1.53
9829.00,1.53
9828.00,1.53
9827.00,1.53
9826.00,1.53
9825.00,1.53
9824.00,1.53
9823.00,1.53
9822.00,1.53
9821.00,1.53
9820.00,1.53
9819.00,1.53
9818.00,1.52
9817.00,1.52
9816.00,1.52
9815.00,1.52
9814.00,1.52
9813.00,1.52
9812.00,1.51
9811.00,1.51
9810.00,1.51
9809.00,1.51
9808.00,1.51
9807.00,1.51
9806.00,1.51
9805.00,1.50
9804.00,1.50
9803.00,1.50
9802.00,1.50
9801.00,1.50
9800.00,1.49
9799.00,1.49
9798.00,1.49
9797.00,1.49
9796.00,1.49
9795.00,1.49
9794.00,1.49
9793.00,1.49
9792.00,1.50
9791.00,1.50
9790.00,1.50
9789.00,1.50
9788.00,1.51
9787.00,1.51
9786.00,1.51
9785.00,1.51
9784.00,1.51
9783.00,1.51
9782.00,1.52
9781.00,1.52
9780.00,1.52
9779.00,1.52
9778.00,1.52
9777.00,1.53
9776.00,1.53
9775.00,1.53
9774.00,1.53
9773.00,1.54
9772.00,1.54
9771.00,1.54
9770.00,1.54
9769.00,1.55
9768.00,1.55
9767.00,1.55
9766.00,1.55
9765.00,1.55
9764.00,1.55
9763.00,1.55
9762.00,1.55
9761.00,1.54
9760.00,1.54
9759.00,1.54
9758.00,1.54
9757.00,1.53
9756.00,1.53
9755.00,1.52
9754.00,1.52
9753.00,1.51
9752.00,1.51
9751.00,1.50
9750.00,1.50
9749.00,1.49
9748.00,1.49
9747.00,1.48
9746.00,1.48
9745.00,1.47
9744.00,1.47
9743.00,1.46
9742.00,1.46
9741.00,1.45
9740.00,1.45
9739.00,1.45
9738.00,1.44
9737.00,1.44
9736.00,1.44
9735.00,1.43
9734.00,1.43
9733.00,1.43
9732.00,1.43
9731.00,1.43
9730.00,1.44
9729.00,1.44
9728.00,1.44
9727.00,1.45
9726.00,1.45
9725.00,1.46
9724.00,1.46
9723.00,1.47
9722.00,1.47
9721.00,1.48
9720.00,1.48
9719.00,1.49
9718.00,1.49
9717.00,1.50
9716.00,1.50
9715.00,1.51
9714.00,1.51
9713.00,1.52
9712.00,1.52
9711.00,1.52
9710.00,1.53
9709.00,1.53
9708.00,1.54
9707.00,1.54
9706.00,1.55
9705.00,1.55
9704.00,1.56
9703.00,1.57
9702.00,1.57
9701.00,1.58
9700.00,1.58
9699.00,1.59
9698.00,1.59
9697.00,1.59
9696.00,1.60
9695.00,1.60
9694.00,1.60
9693.00,1.61
9692.00,1.61
9691.00,1.61
9690.00,1.62
9689.00,1.62
9688.00,1.62
9687.00,1.63
9686.00,1.63
9685.00,1.63
9684.00,1.63
9683.00,1.64
9682.00,1.64
9681.00,1.64
9680.00,1.64
9679.00,1.64
9678.00,1.63
9677.00,1.63
9676.00,1.63
9675.00,1.62
9674.00,1.62
9673.00,1.61
9672.00,1.61
9671.00,1.60
9670.00,1.59
9669.00,1.58
9668.00,1.58
9667.00,1.57
9666.00,1.56
9665.00,1.55
9664.00,1.54
9663.00,1.54
9662.00,1.53
9661.00,1.52
9660.00,1.51
9659.00,1.50
9658.00,1.50
9657.00,1.49
9656.00,1.48
9655.00,1.48
9654.00,1.47
9653.00,1.47
9652.00,1.46
9651.00,1.46
9650.00,1.45
9649.00,1.45
9648.00,1.45
9647.00,1.45
9646.00,1.45
9645.00,1.45
9644.00,1.45
9643.00,1.45
9642.00,1.45
9641.00,1.46
9640.00,1.46
9639.00,1.46
9638.00,1.47
9637.00,1.47
9636.00,1.47
9635.00,1.48
9634.00,1.48
9633.00,1.48
9632.00,1.49
9631.00,1.49
9630.00,1.49
9629.00,1.49
9628.00,1.49
9627.00,1.50
9626.00,1.50
9625.00,1.50
9624.00,1.50
9623.00,1.50
9622.00,1.51
9621.00,1.51
9620.00,1.51
9619.00,1.51
9618.00,1.51
9617.00,1.52
9616.00,1.52
9615.00,1.52
9614.00,1.53
9613.00,1.53
9612.00,1.53
9611.00,1.54
9610.00,1.54
9609.00,1.55
9608.00,1.55
9607.00,1.56
9606.00,1.56
9605.00,1.57
9604.00,1.58
9603.00,1.58
9602.00,1.59
9601.00,1.59
9600.00,1.60
9599.00,1.61
9598.00,1.61
9597.00,1.62
9596.00,1.62
9595.00,1.63
9594.00,1.64
9593.00,1.64
9592.00,1.65
9591.00,1.65
9590.00,1.66
9589.00,1.66
9588.00,1.66
9587.00,1.67
9586.00,1.67
9585.00,1.67
9584.00,1.67
9583.00,1.66
9582.00,1.66
9581.00,1.66
9580.00,1.66
9579.00,1.66
9578.00,1.66
9577.00,1.65
9576.00,1.65
9575.00,1.65
9574.00,1.65
9573.00,1.64
9572.00,1.64
9571.00,1.64
9570.00,1.63
9569.00,1.63
9568.00,1.63
9567.00,1.62
9566.00,1.61
9565.00,1.61
9564.00,1.60
9563.00,1.60
9562.00,1.59
9561.00,1.59
9560.00,1.58
9559.00,1.58
9558.00,1.58
9557.00,1.57
9556.00,1.57
9555.00,1.57
9554.00,1.56
9553.00,1.56
9552.00,1.56
9551.00,1.55
9550.00,1.55
9549.00,1.55
9548.00,1.55
9547.00,1.54
9546.00,1.54
9545.00,1.54
9544.00,1.54
9543.00,1.53
9542.00,1.53
9541.00,1.53
9540.00,1.53
9539.00,1.53
9538.00,1.52
9537.00,1.52
9536.00,1.52
9535.00,1.52
9534.00,1.51
9533.00,1.51
9532.00,1.51
9531.00,1.50
9530.00,1.50
9529.00,1.50
9528.00,1.50
9527.00,1.50
9526.00,1.50
9525.00,1.50
9524.00,1.51
9523.00,1.51
9522.00,1.51
9521.00,1.51
9520.00,1.51
9519.00,1.51
9518.00,1.51
9517.00,1.51
9516.00,1.51
9515.00,1.51
9514.00,1.51
9513.00,1.51
9512.00,1.52
9511.00,1.52
9510.00,1.52
9509.00,1.53
9508.00,1.53
9507.00,1.54
9506.00,1.54
9505.00,1.54
9504.00,1.54
9503.00,1.54
9502.00,1.54
9501.00,1.54
9500.00,1.54
9499.00,1.54
9498.00,1.53
9497.00,1.53
9496.00,1.53
9495.00,1.52
9494.00,1.52
9493.00,1.51
9492.00,1.51
9491.00,1.51
9490.00,1.50
9489.00,1.50
9488.00,1.49
9487.00,1.49
9486.00,1.48
9485.00,1.48
9484.00,1.47
9483.00,1.47
9482.00,1.47
9481.00,1.46
9480.00,1.46
9479.00,1.46
9478.00,1.46
9477.00,1.46
9476.00,1.46
9475.00,1.46
9474.00,1.46
9473.00,1.47
9472.00,1.47
9471.00,1.47
9470.00,1.48
9469.00,1.48
9468.00,1.49
9467.00,1.49
9466.00,1.49
9465.00,1.50
9464.00,1.50
9463.00,1.51
9462.00,1.51
9461.00,1.51
9460.00,1.52
9459.00,1.52
9458.00,1.53
9457.00,1.53
9456.00,1.53
9455.00,1.53
9454.00,1.53
9453.00,1.53
9452.00,1.53
9451.00,1.53
9450.00,1.53
9449.00,1.52
9448.00,1.52
9447.00,1.52
9446.00,1.52
9445.00,1.51
9444.00,1.51
9443.00,1.51
9442.00,1.51
9441.00,1.51
9440.00,1.51
9439.00,1.50
9438.00,1.50
9437.00,1.50
9436.00,1.50
9435.00,1.50
9434.00,1.50
9433.00,1.49
9432.00,1.49
9431.00,1.49
9430.00,1.49
9429.00,1.49
9428.00,1.49
9427.00,1.49
9426.00,1.49
9425.00,1.49
9424.00,1.49
9423.00,1.49
9422.00,1.49
9421.00,1.50
9420.00,1.50
9419.00,1.50
9418.00,1.50
9417.00,1.50
9416.00,1.49
9415.00,1.49
9414.00,1.49
9413.00,1.49
9412.00,1.49
9411.00,1.48
9410.00,1.48
9409.00,1.48
9408.00,1.48
9407.00,1.48
9406.00,1.48
9405.00,1.48
9404.00,1.48
9403.00,1.49
9402.00,1.49
9401.00,1.49
9400.00,1.49
9399.00,1.49
9398.00,1.49
9397.00,1.49
9396.00,1.49
9395.00,1.49
9394.00,1.49
9393.00,1.49
9392.00,1.50
9391.00,1.50
9390.00,1.50
9389.00,1.50
9388.00,1.50
9387.00,1.50
9386.00,1.51
9385.00,1.51
9384.00,1.51
9383.00,1.51
9382.00,1.52
9381.00,1.52
9380.00,1.52
9379.00,1.51
9378.00,1.51
9377.00,1.51
9376.00,1.51
9375.00,1.50
9374.00,1.50
9373.00,1.50
9372.00,1.50
9371.00,1.49
9370.00,1.49
9369.00,1.49
9368.00,1.49
9367.00,1.49
9366.00,1.49
9365.00,1.49
9364.00,1.49
9363.00,1.49
9362.00,1.49
9361.00,1.49
9360.00,1.49
9359.00,1.49
9358.00,1.49
9357.00,1.49
9356.00,1.49
9355.00,1.49
9354.00,1.49
9353.00,1.50
9352.00,1.50
9351.00,1.51
9350.00,1.51
9349.00,1.52
9348.00,1.52
9347.00,1.53
9346.00,1.53
9345.00,1.54
9344.00,1.54
9343.00,1.55
9342.00,1.55
9341.00,1.56
9340.00,1.56
9339.00,1.57
9338.00,1.57
9337.00,1.57
9336.00,1.58
9335.00,1.58
9334.00,1.59
9333.00,1.59
9332.00,1.59
9331.00,1.60
9330.00,1.60
9329.00,1.60
9328.00,1.60
9327.00,1.61
9326.00,1.61
9325.00,1.60
9324.00,1.60
9323.00,1.60
9322.00,1.60
9321.00,1.59
9320.00,1.59
9319.00,1.58
9318.00,1.58
9317.00,1.58
9316.00,1.57
9315.00,1.57
9314.00,1.57
9313.00,1.56
9312.00,1.56
9311.00,1.56
9310.00,1.55
9309.00,1.55
9308.00,1.55
9307.00,1.55
9306.00,1.54
9305.00,1.54
9304.00,1.54
9303.00,1.54
9302.00,1.54
9301.00,1.54
9300.00,1.55
9299.00,1.55
9298.00,1.55
9297.00,1.55
9296.00,1.56
9295.00,1.56
9294.00,1.57
9293.00,1.57
9292.00,1.57
9291.00,1.58
9290.00,1.58
9289.00,1.58
9288.00,1.58
9287.00,1.59
9286.00,1.59
9285.00,1.59
9284.00,1.59
9283.00,1.59
9282.00,1.59
9281.00,1.59
9280.00,1.59
9279.00,1.59
9278.00,1.58
9277.00,1.58
9276.00,1.58
9275.00,1.57
9274.00,1.57
9273.00,1.57
9272.00,1.56
9271.00,1.56
9270.00,1.55
9269.00,1.55
9268.00,1.54
9267.00,1.54
9266.00,1.54
9265.00,1.53
9264.00,1.53
9263.00,1.52
9262.00,1.52
9261.00,1.51
9260.00,1.51
9259.00,1.50
9258.00,1.50
9257.00,1.50
9256.00,1.50
9255.00,1.49
9254.00,1.49
9253.00,1.49
9252.00,1.49
9251.00,1.49
9250.00,1.49
9249.00,1.49
9248.00,1.49
9247.00,1.49
9246.00,1.50
9245.00,1.50
9244.00,1.50
9243.00,1.50
9242.00,1.50
9241.00,1.50
9240.00,1.50
9239.00,1.50
9238.00,1.50
9237.00,1.50
9236.00,1.51
9235.00,1.51
9234.00,1.51
9233.00,1.51
9232.00,1.51
9231.00,1.51
9230.00,1.51
9229.00,1.51
9228.00,1.51
9227.00,1.51
9226.00,1.51
9225.00,1.51
9224.00,1.51
9223.00,1.50
9222.00,1.50
9221.00,1.50
9220.00,1.50
9219.00,1.50
9218.00,1.50
9217.00,1.50
9216.00,1.50
9215.00,1.50
9214.00,1.50
9213.00,1.51
9212.00,1.51
9211.00,1.51
9210.00,1.52
9209.00,1.52
9208.00,1.52
9207.00,1.53
9206.00,1.53
9205.00,1.54
9204.00,1.54
9203.00,1.55
9202.00,1.55
9201.00,1.56
9200.00,1.56
9199.00,1.57
9198.00,1.57
9197.00,1.58
9196.00,1.58
9195.00,1.59
9194.00,1.59
9193.00,1.59
9192.00,1.59
9191.00,1.59
9190.00,1.59
9189.00,1.59
9188.00,1.59
9187.00,1.58
9186.00,1.58
9185.00,1.57
9184.00,1.57
9183.00,1.56
9182.00,1.56
9181.00,1.55
9180.00,1.55
9179.00,1.54
9178.00,1.54
9177.00,1.53
9176.00,1.53
9175.00,1.52
9174.00,1.52
9173.00,1.51
9172.00,1.51
9171.00,1.50
9170.00,1.50
9169.00,1.50
9168.00,1.50
9167.00,1.49
9166.00,1.49
9165.00,1.49
9164.00,1.49
9163.00,1.49
9162.00,1.50
9161.00,1.50
9160.00,1.50
9159.00,1.50
9158.00,1.50
9157.00,1.50
9156.00,1.50
9155.00,1.50
9154.00,1.50
9153.00,1.50
9152.00,1.50
9151.00,1.50
9150.00,1.49
9149.00,1.49
9148.00,1.49
9147.00,1.49
9146.00,1.49
9145.00,1.49
9144.00,1.49
9143.00,1.49
9142.00,1.49
9141.00,1.49
9140.00,1.49
9139.00,1.49
9138.00,1.49
9137.00,1.49
9136.00,1.49
9135.00,1.49
9134.00,1.49
9133.00,1.49
9132.00,1.49
9131.00,1.49
9130.00,1.49
9129.00,1.49
9128.00,1.49
9127.00,1.49
9126.00,1.49
9125.00,1.49
9124.00,1.49
9123.00,1.49
9122.00,1.49
9121.00,1.49
9120.00,1.49
9119.00,1.49
9118.00,1.49
9117.00,1.49
9116.00,1.49
9115.00,1.49
9114.00,1.49
9113.00,1.49
9112.00,1.49
9111.00,1.49
9110.00,1.49
9109.00,1.49
9108.00,1.49
9107.00,1.49
9106.00,1.49
9105.00,1.49
9104.00,1.50
9103.00,1.50
9102.00,1.51
9101.00,1.51
9100.00,1.52
9099.00,1.52
9098.00,1.53
9097.00,1.53
9096.00,1.54
9095.00,1.54
9094.00,1.55
9093.00,1.55
9092.00,1.56
9091.00,1.56
9090.00,1.57
9089.00,1.57
9088.00,1.57
9087.00,1.57
9086.00,1.58
9085.00,1.58
9084.00,1.58
9083.00,1.58
9082.00,1.58
9081.00,1.58
9080.00,1.57
9079.00,1.57
9078.00,1.57
9077.00,1.56
9076.00,1.56
9075.00,1.56
9074.00,1.55
9073.00,1.54
9072.00,1.54
9071.00,1.53
9070.00,1.53
9069.00,1.52
9068.00,1.51
9067.00,1.51
9066.00,1.50
9065.00,1.50
9064.00,1.49
9063.00,1.48
9062.00,1.48
9061.00,1.47
9060.00,1.47
9059.00,1.47
9058.00,1.46
9057.00,1.46
9056.00,1.45
9055.00,1.45
9054.00,1.44
9053.00,1.44
9052.00,1.43
9051.00,1.43
9050.00,1.42
9049.00,1.42
9048.00,1.41
9047.00,1.41
9046.00,1.40
9045.00,1.40
9044.00,1.40
9043.00,1.39
9042.00,1.39
9041.00,1.39
9040.00,1.39
9039.00,1.39
9038.00,1.39
9037.00,1.39
9036.00,1.40
9035.00,1.40
9034.00,1.40
9033.00,1.40
9032.00,1.40
9031.00,1.41
9030.00,1.41
9029.00,1.41
9028.00,1.42
9027.00,1.42
9026.00,1.43
9025.00,1.43
9024.00,1.44
9023.00,1.45
9022.00,1.45
9021.00,1.46
9020.00,1.47
9019.00,1.47
9018.00,1.48
9017.00,1.48
9016.00,1.49
9015.00,1.49
9014.00,1.49
9013.00,1.49
9012.00,1.50
9011.00,1.50
9010.00,1.50
9009.00,1.50
9008.00,1.50
9007.00,1.50
9006.00,1.50
9005.00,1.50
9004.00,1.50
9003.00,1.51
9002.00,1.51
9001.00,1.51
9000.00,1.51
8999.00,1.51
8998.00,1.51
8997.00,1.52
8996.00,1.52
8995.00,1.52
8994.00,1.52
8993.00,1.52
8992.00,1.53
8991.00,1.53
8990.00,1.53
8989.00,1.54
8988.00,1.54
8987.00,1.54
8986.00,1.55
8985.00,1.55
8984.00,1.55
8983.00,1.56
8982.00,1.56
8981.00,1.56
8980.00,1.56
8979.00,1.56
8978.00,1.57
8977.00,1.57
8976.00,1.57
8975.00,1.57
8974.00,1.56
8973.00,1.56
8972.00,1.56
8971.00,1.56
8970.00,1.55
8969.00,1.55
8968.00,1.55
8967.00,1.54
8966.00,1.54
8965.00,1.53
8964.00,1.53
8963.00,1.52
8962.00,1.52
8961.00,1.51
8960.00,1.51
8959.00,1.50
8958.00,1.50
8957.00,1.50
8956.00,1.50
8955.00,1.49
8954.00,1.49
8953.00,1.49
8952.00,1.49
8951.00,1.49
8950.00,1.49
8949.00,1.49
8948.00,1.49
8947.00,1.49
8946.00,1.49
8945.00,1.49
8944.00,1.50
8943.00,1.50
8942.00,1.51
8941.00,1.51
8940.00,1.52
8939.00,1.52
8938.00,1.53
8937.00,1.53
8936.00,1.54
8935.00,1.54
8934.00,1.55
8933.00,1.55
8932.00,1.56
8931.00,1.56
8930.00,1.56
8929.00,1.56
8928.00,1.56
8927.00,1.56
8926.00,1.56
8925.00,1.56
8924.00,1.56
8923.00,1.56
8922.00,1.56
8921.00,1.56
8920.00,1.55
8919.00,1.55
8918.00,1.55
8917.00,1.54
8916.00,1.53
8915.00,1.53
8914.00,1.52
8913.00,1.51
8912.00,1.51
8911.00,1.50
8910.00,1.49
8909.00,1.48
8908.00,1.48
8907.00,1.47
8906.00,1.46
8905.00,1.46
8904.00,1.45
8903.00,1.44
8902.00,1.44
8901.00,1.43
8900.00,1.43
8899.00,1.42
8898.00,1.42
8897.00,1.42
8896.00,1.41
8895.00,1.41
8894.00,1.41
8893.00,1.41
8892.00,1.40
8891.00,1.40
8890.00,1.40
8889.00,1.40
8888.00,1.41
8887.00,1.41
8886.00,1.41
8885.00,1.41
8884.00,1.41
8883.00,1.42
8882.00,1.42
8881.00,1.42
8880.00,1.43
8879.00,1.43
8878.00,1.44
8877.00,1.44
8876.00,1.45
8875.00,1.45
8874.00,1.46
8873.00,1.47
8872.00,1.47
8871.00,1.48
8870.00,1.48
8869.00,1.49
8868.00,1.49
8867.00,1.49
8866.00,1.50
8865.00,1.50
8864.00,1.51
8863.00,1.51
8862.00,1.51
8861.00,1.52
8860.00,1.52
8859.00,1.52
8858.00,1.53
8857.00,1.53
8856.00,1.53
8855.00,1.53
8854.00,1.53
8853.00,1.53
8852.00,1.53
8851.00,1.53
8850.00,1.53
8849.00,1.53
8848.00,1.53
8847.00,1.53
8846.00,1.53
8845.00,1.53
8844.00,1.52
8843.00,1.52
8842.00,1.52
8841.00,1.52
8840.00,1.52
8839.00,1.53
8838.00,1.53
8837.00,1.53
8836.00,1.53
8835.00,1.53
8834.00,1.53
8833.00,1.53
8832.00,1.53
8831.00,1.53
8830.00,1.53
8829.00,1.54
8828.00,1.54
8827.00,1.54
8826.00,1.54
8825.00,1.55
8824.00,1.55
8823.00,1.55
8822.00,1.55
8821.00,1.56
8820.00,1.56
8819.00,1.56
8818.00,1.56
8817.00,1.57
8816.00,1.57
8815.00,1.57
8814.00,1.57
8813.00,1.57
8812.00,1.57
8811.00,1.57
8810.00,1.57
8809.00,1.56
8808.00,1.56
8807.00,1.56
8806.00,1.56
8805.00,1.55
8804.00,1.55
8803.00,1.54
8802.00,1.54
8801.00,1.54
8800.00,1.53
8799.00,1.53
8798.00,1.53
8797.00,1.52
8796.00,1.52
8795.00,1.51
8794.00,1.51
8793.00,1.51
8792.00,1.50
8791.00,1.50
8790.00,1.50
8789.00,1.50
8788.00,1.50
8787.00,1.50
8786.00,1.50
8785.00,1.50
8784.00,1.50
8783.00,1.50
8782.00,1.50
8781.00,1.50
8780.00,1.50
8779.00,1.50
8778.00,1.50
8777.00,1.50
8776.00,1.50
8775.00,1.50
8774.00,1.50
8773.00,1.50
8772.00,1.51
8771.00,1.51
8770.00,1.51
8769.00,1.51
8768.00,1.52
8767.00,1.52
8766.00,1.52
8765.00,1.52
8764.00,1.52
8763.00,1.52
8762.00,1.53
8761.00,1.53
8760.00,1.53
8759.00,1.53
8758.00,1.53
8757.00,1.54
8756.00,1.54
8755.00,1.55
8754.00,1.55
8753.00,1.55
8752.00,1.56
8751.00,1.56
8750.00,1.57
8749.00,1.57
8748.00,1.58
8747.00,1.58
8746.00,1.59
8745.00,1.59
8744.00,1.59
8743.00,1.60
8742.00,1.60
8741.00,1.60
8740.00,1.60
8739.00,1.61
8738.00,1.61
8737.00,1.61
8736.00,1.61
8735.00,1.62
8734.00,1.62
8733.00,1.61
8732.00,1.61
8731.00,1.61
8730.00,1.61
8729.00,1.61
8728.00,1.60
8727.00,1.60
8726.00,1.60
8725.00,1.59
8724.00,1.59
8723.00,1.59
8722.00,1.58
8721.00,1.58
8720.00,1.58
8719.00,1.57
8718.00,1.57
8717.00,1.56
8716.00,1.56
8715.00,1.55
8714.00,1.55
8713.00,1.54
8712.00,1.54
8711.00,1.54
8710.00,1.53
8709.00,1.53
8708.00,1.52
8707.00,1.52
8706.00,1.52
8705.00,1.51
8704.00,1.51
8703.00,1.51
8702.00,1.50
8701.00,1.50
8700.00,1.50
8699.00,1.49
8698.00,1.49
8697.00,1.49
8696.00,1.48
8695.00,1.48
8694.00,1.48
8693.00,1.47
8692.00,1.47
8691.00,1.47
8690.00,1.47
8689.00,1.47
8688.00,1.47
8687.00,1.47
8686.00,1.47
8685.00,1.47
8684.00,1.47
8683.00,1.47
8682.00,1.47
8681.00,1.47
8680.00,1.48
8679.00,1.48
8678.00,1.48
8677.00,1.48
8676.00,1.48
8675.00,1.49
8674.00,1.49
8673.00,1.49
8672.00,1.50
8671.00,1.50
8670.00,1.50
8669.00,1.50
8668.00,1.51
8667.00,1.51
8666.00,1.51
8665.00,1.51
8664.00,1.51
8663.00,1.51
8662.00,1.51
8661.00,1.51
8660.00,1.51
8659.00,1.50
8658.00,1.50
8657.00,1.50
8656.00,1.50
8655.00,1.49
8654.00,1.49
8653.00,1.48
8652.00,1.48
8651.00,1.48
8650.00,1.47
8649.00,1.47
8648.00,1.47
8647.00,1.46
8646.00,1.46
8645.00,1.46
8644.00,1.45
8643.00,1.45
8642.00,1.45
8641.00,1.45
8640.00,1.45
8639.00,1.44
8638.00,1.44
8637.00,1.44
8636.00,1.44
8635.00,1.43
8634.00,1.43
8633.00,1.43
8632.00,1.42
8631.00,1.42
8630.00,1.42
8629.00,1.42
8628.00,1.41
8627.00,1.41
8626.00,1.41
8625.00,1.41
8624.00,1.40
8623.00,1.40
8622.00,1.40
8621.00,1.40
8620.00,1.39
8619.00,1.39
8618.00,1.39
8617.00,1.39
8616.00,1.39
8615.00,1.39
8614.00,1.39
8613.00,1.38
8612.00,1.38
8611.00,1.38
8610.00,1.39
8609.00,1.39
8608.00,1.39
8607.00,1.39
8606.00,1.39
8605.00,1.40
8604.00,1.40
8603.00,1.41
8602.00,1.41
8601.00,1.41
8600.00,1.42
8599.00,1.43
8598.00,1.43
8597.00,1.44
8596.00,1.44
8595.00,1.45
8594.00,1.45
8593.00,1.46
8592.00,1.46
8591.00,1.47
8590.00,1.47
8589.00,1.48
8588.00,1.48
8587.00,1.48
8586.00,1.49
8585.00,1.49
8584.00,1.49
8583.00,1.49
8582.00,1.49
8581.00,1.50
8580.00,1.50
8579.00,1.50
8578.00,1.50
8577.00,1.50
8576.00,1.50
8575.00,1.51
8574.00,1.51
8573.00,1.51
8572.00,1.51
8571.00,1.51
8570.00,1.51
8569.00,1.51
8568.00,1.51
8567.00,1.51
8566.00,1.51
8565.00,1.51
8564.00,1.51
8563.00,1.51
8562.00,1.51
8561.00,1.51
8560.00,1.51
8559.00,1.51
8558.00,1.51
8557.00,1.51
8556.00,1.52
8555.00,1.52
8554.00,1.52
8553.00,1.52
8552.00,1.52
8551.00,1.52
8550.00,1.51
8549.00,1.51
8548.00,1.51
8547.00,1.51
8546.00,1.51
8545.00,1.50
8544.00,1.50
8543.00,1.50
8542.00,1.49
8541.00,1.49
8540.00,1.48
8539.00,1.48
8538.00,1.47
8537.00,1.47
8536.00,1.47
8535.00,1.46
8534.00,1.46
8533.00,1.45
8532.00,1.45
8531.00,1.44
8530.00,1.44
8529.00,1.44
8528.00,1.43
8527.00,1.43
8526.00,1.43
8525.00,1.43
8524.00,1.43
8523.00,1.43
8522.00,1.43
8521.00,1.43
8520.00,1.43
8519.00,1.44
8518.00,1.44
8517.00,1.44
8516.00,1.45
8515.00,1.45
8514.00,1.46
8513.00,1.46
8512.00,1.47
8511.00,1.47
8510.00,1.48
8509.00,1.48
8508.00,1.49
8507.00,1.49
8506.00,1.49
8505.00,1.50
8504.00,1.50
8503.00,1.50
8502.00,1.50
8501.00,1.50
8500.00,1.51
8499.00,1.51
8498.00,1.50
8497.00,1.50
8496.00,1.50
8495.00,1.50
8494.00,1.50
8493.00,1.49
8492.00,1.49
8491.00,1.49
8490.00,1.48
8489.00,1.48
8488.00,1.47
8487.00,1.47
8486.00,1.46
8485.00,1.46
8484.00,1.45
8483.00,1.45
8482.00,1.44
8481.00,1.44
8480.00,1.44
8479.00,1.43
8478.00,1.43
8477.00,1.42
8476.00,1.42
8475.00,1.42
8474.00,1.41
8473.00,1.41
8472.00,1.41
8471.00,1.41
8470.00,1.41
8469.00,1.41
8468.00,1.41
8467.00,1.41
8466.00,1.41
8465.00,1.41
8464.00,1.41
8463.00,1.41
8462.00,1.42
8461.00,1.42
8460.00,1.42
8459.00,1.42
8458.00,1.42
8457.00,1.43
8456.00,1.43
8455.00,1.43
8454.00,1.43
8453.00,1.43
8452.00,1.43
8451.00,1.44
8450.00,1.44
8449.00,1.44
8448.00,1.44
8447.00,1.44
8446.00,1.44
8445.00,1.44
8444.00,1.44
8443.00,1.44
8442.00,1.44
8441.00,1.44
8440.00,1.44
8439.00,1.44
8438.00,1.44
8437.00,1.43
8436.00,1.43
8435.00,1.43
8434.00,1.43
8433.00,1.42
8432.00,1.42
8431.00,1.42
8430.00,1.42
8429.00,1.41
8428.00,1.41
8427.00,1.41
8426.00,1.41
8425.00,1.40
8424.00,1.40
8423.00,1.40
8422.00,1.40
8421.00,1.40
8420.00,1.39
8419.00,1.39
8418.00,1.39
8417.00,1.39
8416.00,1.39
8415.00,1.39
8414.00,1.39
8413.00,1.39
8412.00,1.39
8411.00,1.39
8410.00,1.39
8409.00,1.39
8408.00,1.39
8407.00,1.39
8406.00,1.39
8405.00,1.39
8404.00,1.39
8403.00,1.39
8402.00,1.39
8401.00,1.39
8400.00,1.39
8399.00,1.39
8398.00,1.39
8397.00,1.39
8396.00,1.39
8395.00,1.39
8394.00,1.39
8393.00,1.40
8392.00,1.40
8391.00,1.40
8390.00,1.40
8389.00,1.40
8388.00,1.40
8387.00,1.40
8386.00,1.40
8385.00,1.40
8384.00,1.40
8383.00,1.40
8382.00,1.40
8381.00,1.41
8380.00,1.41
8379.00,1.41
8378.00,1.41
8377.00,1.41
8376.00,1.41
8375.00,1.41
8374.00,1.42
8373.00,1.42
8372.00,1.42
8371.00,1.42
8370.00,1.42
8369.00,1.42
8368.00,1.42
8367.00,1.41
8366.00,1.41
8365.00,1.41
8364.00,1.41
8363.00,1.41
8362.00,1.41
8361.00,1.41
8360.00,1.41
8359.00,1.42
8358.00,1.42
8357.00,1.42
8356.00,1.42
8355.00,1.42
8354.00,1.42
8353.00,1.42
8352.00,1.43
8351.00,1.43
8350.00,1.43
8349.00,1.43
8348.00,1.43
8347.00,1.43
8346.00,1.43
8345.00,1.43
8344.00,1.43
8343.00,1.43
8342.00,1.43
8341.00,1.43
8340.00,1.43
8339.00,1.43
8338.00,1.43
8337.00,1.43
8336.00,1.43
8335.00,1.43
8334.00,1.43
8333.00,1.43
8332.00,1.43
8331.00,1.42
8330.00,1.42
8329.00,1.42
8328.00,1.42
8327.00,1.42
8326.00,1.42
8325.00,1.42
8324.00,1.42
8323.00,1.43
8322.00,1.43
8321.00,1.43
8320.00,1.43
8319.00,1.44
8318.00,1.44
8317.00,1.44
8316.00,1.45
8315.00,1.45
8314.00,1.45
8313.00,1.45
8312.00,1.46
8311.00,1.46
8310.00,1.46
8309.00,1.47
8308.00,1.47
8307.00,1.47
8306.00,1.47
8305.00,1.48
8304.00,1.48
8303.00,1.48
8302.00,1.49
8301.00,1.49
8300.00,1.49
8299.00,1.49
8298.00,1.49
8297.00,1.49
8296.00,1.49
8295.00,1.49
8294.00,1.49
8293.00,1.49
8292.00,1.49
8291.00,1.49
8290.00,1.49
8289.00,1.49
8288.00,1.49
8287.00,1.49
8286.00,1.49
8285.00,1.50
8284.00,1.50
8283.00,1.50
8282.00,1.50
8281.00,1.51
8280.00,1.51
8279.00,1.51
8278.00,1.52
8277.00,1.52
8276.00,1.52
8275.00,1.53
8274.00,1.53
8273.00,1.53
8272.00,1.54
8271.00,1.54
8270.00,1.54
8269.00,1.55
8268.00,1.55
8267.00,1.55
8266.00,1.55
8265.00,1.55
8264.00,1.55
8263.00,1.56
8262.00,1.56
8261.00,1.56
8260.00,1.56
8259.00,1.56
8258.00,1.56
8257.00,1.56
8256.00,1.56
8255.00,1.56
8254.00,1.56
8253.00,1.56
8252.00,1.56
8251.00,1.56
8250.00,1.55
8249.00,1.55
8248.00,1.55
8247.00,1.55
8246.00,1.55
8245.00,1.55
8244.00,1.55
8243.00,1.55
8242.00,1.55
8241.00,1.55
8240.00,1.55
8239.00,1.55
8238.00,1.54
8237.00,1.54
8236.00,1.54
8235.00,1.54
8234.00,1.54
8233.00,1.54
8232.00,1.54
8231.00,1.54
8230.00,1.54
8229.00,1.54
8228.00,1.54
8227.00,1.54
8226.00,1.54
8225.00,1.54
8224.00,1.54
8223.00,1.54
8222.00,1.54
8221.00,1.54
8220.00,1.54
8219.00,1.54
8218.00,1.54
8217.00,1.54
8216.00,1.54
8215.00,1.54
8214.00,1.53
8213.00,1.53
8212.00,1.53
8211.00,1.53
8210.00,1.53
8209.00,1.53
8208.00,1.53
8207.00,1.53
8206.00,1.53
8205.00,1.52
8204.00,1.52
8203.00,1.52
8202.00,1.52
8201.00,1.51
8200.00,1.51
8199.00,1.51
8198.00,1.51
8197.00,1.50
8196.00,1.50
8195.00,1.49
8194.00,1.49
8193.00,1.49
8192.00,1.48
8191.00,1.48
8190.00,1.48
8189.00,1.47
8188.00,1.47
8187.00,1.47
8186.00,1.46
8185.00,1.46
8184.00,1.46
8183.00,1.46
8182.00,1.45
8181.00,1.45
8180.00,1.45
8179.00,1.45
8178.00,1.45
8177.00,1.45
8176.00,1.45
8175.00,1.45
8174.00,1.45
8173.00,1.45
8172.00,1.45
8171.00,1.45
8170.00,1.46
8169.00,1.46
8168.00,1.46
8167.00,1.46
8166.00,1.46
8165.00,1.46
8164.00,1.47
8163.00,1.47
8162.00,1.47
8161.00,1.47
8160.00,1.48
8159.00,1.48
8158.00,1.48
8157.00,1.48
8156.00,1.49
8155.00,1.49
8154.00,1.49
8153.00,1.50
8152.00,1.50
8151.00,1.50
8150.00,1.50
8149.00,1.50
8148.00,1.51
8147.00,1.51
8146.00,1.51
8145.00,1.51
8144.00,1.51
8143.00,1.51
8142.00,1.52
8141.00,1.52
8140.00,1.52
8139.00,1.52
8138.00,1.53
8137.00,1.53
8136.00,1.53
8135.00,1.53
8134.00,1.53
8133.00,1.53
8132.00,1.54
8131.00,1.54
8130.00,1.54
8129.00,1.54
8128.00,1.54
8127.00,1.54
8126.00,1.54
8125.00,1.55
8124.00,1.55
8123.00,1.55
8122.00,1.55
8121.00,1.56
8120.00,1.56
8119.00,1.56
8118.00,1.56
8117.00,1.57
8116.00,1.57
8115.00,1.57
8114.00,1.57
8113.00,1.57
8112.00,1.57
8111.00,1.57
8110.00,1.57
8109.00,1.57
8108.00,1.57
8107.00,1.57
8106.00,1.57
8105.00,1.56
8104.00,1.56
8103.00,1.56
8102.00,1.56
8101.00,1.55
8100.00,1.55
8099.00,1.55
8098.00,1.55
8097.00,1.54
8096.00,1.54
8095.00,1.54
8094.00,1.54
8093.00,1.53
8092.00,1.53
8091.00,1.53
8090.00,1.53
8089.00,1.52
8088.00,1.52
8087.00,1.52
8086.00,1.52
8085.00,1.52
8084.00,1.53
8083.00,1.53
8082.00,1.53
8081.00,1.53
8080.00,1.54
8079.00,1.54
8078.00,1.54
8077.00,1.55
8076.00,1.55
8075.00,1.55
8074.00,1.55
8073.00,1.56
8072.00,1.56
8071.00,1.56
8070.00,1.56
8069.00,1.56
8068.00,1.57
8067.00,1.57
8066.00,1.57
8065.00,1.57
8064.00,1.57
8063.00,1.57
8062.00,1.57
8061.00,1.57
8060.00,1.57
8059.00,1.57
8058.00,1.57
8057.00,1.57
8056.00,1.56
8055.00,1.56
8054.00,1.56
8053.00,1.56
8052.00,1.56
8051.00,1.56
8050.00,1.55
8049.00,1.55
8048.00,1.55
8047.00,1.55
8046.00,1.55
8045.00,1.55
8044.00,1.55
8043.00,1.55
8042.00,1.55
8041.00,1.55
8040.00,1.55
8039.00,1.55
8038.00,1.55
8037.00,1.55
8036.00,1.55
8035.00,1.55
8034.00,1.55
8033.00,1.55
8032.00,1.55
8031.00,1.55
8030.00,1.55
8029.00,1.55
8028.00,1.55
8027.00,1.55
8026.00,1.55
8025.00,1.55
8024.00,1.55
8023.00,1.55
8022.00,1.55
8021.00,1.55
8020.00,1.55
8019.00,1.55
8018.00,1.55
8017.00,1.55
8016.00,1.55
8015.00,1.55
8014.00,1.55
8013.00,1.55
8012.00,1.55
8011.00,1.55
8010.00,1.55
8009.00,1.56
8008.00,1.56
8007.00,1.56
8006.00,1.56
8005.00,1.56
8004.00,1.56
8003.00,1.56
8002.00,1.56
8001.00,1.56
8000.00,1.57
7999.00,1.57
7998.00,1.57
7997.00,1.57
7996.00,1.57
7995.00,1.57
7994.00,1.57
7993.00,1.57
7992.00,1.57
7991.00,1.57
7990.00,1.57
7989.00,1.57
7988.00,1.57
7987.00,1.57
7986.00,1.57
7985.00,1.57
7984.00,1.57
7983.00,1.57
7982.00,1.57
7981.00,1.57
7980.00,1.57
7979.00,1.57
7978.00,1.57
7977.00,1.56
7976.00,1.56
7975.00,1.56
7974.00,1.56
7973.00,1.55
7972.00,1.55
7971.00,1.55
7970.00,1.55
7969.00,1.54
7968.00,1.54
7967.00,1.54
7966.00,1.54
7965.00,1.54
7964.00,1.54
7963.00,1.53
7962.00,1.53
7961.00,1.53
7960.00,1.53
7959.00,1.53
7958.00,1.52
7957.00,1.52
7956.00,1.52
7955.00,1.52
7954.00,1.52
7953.00,1.51
7952.00,1.51
7951.00,1.51
7950.00,1.51
7949.00,1.51
7948.00,1.51
7947.00,1.51
7946.00,1.51
7945.00,1.51
7944.00,1.51
7943.00,1.51
7942.00,1.51
7941.00,1.51
7940.00,1.51
7939.00,1.51
7938.00,1.51
7937.00,1.51
7936.00,1.51
7935.00,1.51
7934.00,1.51
7933.00,1.51
7932.00,1.51
7931.00,1.51
7930.00,1.51
7929.00,1.51
7928.00,1.52
7927.00,1.52
7926.00,1.52
7925.00,1.52
7924.00,1.52
7923.00,1.53
7922.00,1.53
7921.00,1.53
7920.00,1.53
7919.00,1.54
7918.00,1.54
7917.00,1.54
7916.00,1.55
7915.00,1.55
7914.00,1.55
7913.00,1.56
7912.00,1.56
7911.00,1.56
7910.00,1.57
7909.00,1.57
7908.00,1.58
7907.00,1.58
7906.00,1.58
7905.00,1.59
7904.00,1.59
7903.00,1.59
7902.00,1.60
7901.00,1.60
7900.00,1.60
7899.00,1.61
7898.00,1.61
7897.00,1.61
7896.00,1.61
7895.00,1.61
7894.00,1.62
7893.00,1.62
7892.00,1.62
7891.00,1.62
7890.00,1.62
7889.00,1.62
7888.00,1.62
7887.00,1.62
7886.00,1.62
7885.00,1.62
7884.00,1.62
7883.00,1.61
7882.00,1.61
7881.00,1.61
7880.00,1.61
7879.00,1.60
7878.00,1.60
7877.00,1.60
7876.00,1.60
7875.00,1.59
7874.00,1.59
7873.00,1.59
7872.00,1.58
7871.00,1.58
7870.00,1.58
7869.00,1.57
7868.00,1.57
7867.00,1.57
7866.00,1.57
7865.00,1.56
7864.00,1.56
7863.00,1.56
7862.00,1.56
7861.00,1.55
7860.00,1.55
7859.00,1.55
7858.00,1.55
7857.00,1.55
7856.00,1.54
7855.00,1.54
7854.00,1.54
7853.00,1.54
7852.00,1.54
7851.00,1.54
7850.00,1.54
7849.00,1.54
7848.00,1.54
7847.00,1.54
7846.00,1.55
7845.00,1.55
7844.00,1.55
7843.00,1.55
7842.00,1.55
7841.00,1.55
7840.00,1.55
7839.00,1.55
7838.00,1.55
7837.00,1.55
7836.00,1.55
7835.00,1.55
7834.00,1.55
7833.00,1.55
7832.00,1.56
7831.00,1.56
7830.00,1.56
7829.00,1.56
7828.00,1.56
7827.00,1.56
7826.00,1.56
7825.00,1.57
7824.00,1.57
7823.00,1.57
7822.00,1.57
7821.00,1.57
7820.00,1.57
7819.00,1.57
7818.00,1.57
7817.00,1.58
7816.00,1.58
7815.00,1.58
7814.00,1.58
7813.00,1.58
7812.00,1.58
7811.00,1.59
7810.00,1.59
7809.00,1.59
7808.00,1.59
7807.00,1.60
7806.00,1.60
7805.00,1.60
7804.00,1.60
7803.00,1.61
7802.00,1.61
7801.00,1.61
7800.00,1.61
7799.00,1.61
7798.00,1.61
7797.00,1.62
7796.00,1.62
7795.00,1.62
7794.00,1.62
7793.00,1.62
7792.00,1.62
7791.00,1.62
7790.00,1.62
7789.00,1.62
7788.00,1.62
7787.00,1.62
7786.00,1.62
7785.00,1.62
7784.00,1.62
7783.00,1.62
7782.00,1.62
7781.00,1.62
7780.00,1.62
7779.00,1.62
7778.00,1.62
7777.00,1.62
7776.00,1.62
7775.00,1.62
7774.00,1.62
7773.00,1.62
7772.00,1.62
7771.00,1.62
7770.00,1.62
7769.00,1.62
7768.00,1.62
7767.00,1.62
7766.00,1.62
7765.00,1.62
7764.00,1.62
7763.00,1.62
7762.00,1.62
7761.00,1.62
7760.00,1.62
7759.00,1.62
7758.00,1.62
7757.00,1.62
7756.00,1.62
7755.00,1.62
7754.00,1.61
7753.00,1.61
7752.00,1.61
7751.00,1.61
7750.00,1.60
7749.00,1.60
7748.00,1.60
7747.00,1.59
7746.00,1.59
7745.00,1.59
7744.00,1.59
7743.00,1.58
7742.00,1.58
7741.00,1.58
7740.00,1.58
7739.00,1.58
7738.00,1.57
7737.00,1.57
7736.00,1.57
7735.00,1.57
7734.00,1.57
7733.00,1.57
7732.00,1.57
7731.00,1.57
7730.00,1.57
7729.00,1.57
7728.00,1.57
7727.00,1.57
7726.00,1.57
7725.00,1.57
7724.00,1.57
7723.00,1.57
7722.00,1.57
7721.00,1.58
7720.00,1.58
7719.00,1.58
7718.00,1.58
7717.00,1.58
7716.00,1.59
7715.00,1.59
7714.00,1.59
7713.00,1.59
7712.00,1.59
7711.00,1.60
7710.00,1.60
7709.00,1.60
7708.00,1.60
7707.00,1.61
7706.00,1.61
7705.00,1.61
7704.00,1.61
7703.00,1.61
7702.00,1.61
7701.00,1.61
7700.00,1.61
7699.00,1.61
7698.00,1.61
7697.00,1.61
7696.00,1.61
7695.00,1.60
7694.00,1.60
7693.00,1.60
7692.00,1.60
7691.00,1.60
7690.00,1.60
7689.00,1.59
7688.00,1.59
7687.00,1.59
7686.00,1.59
7685.00,1.58
7684.00,1.58
7683.00,1.58
7682.00,1.58
7681.00,1.58
7680.00,1.57
7679.00,1.57
7678.00,1.57
7677.00,1.57
7676.00,1.57
7675.00,1.57
7674.00,1.57
7673.00,1.57
7672.00,1.57
7671.00,1.57
7670.00,1.57
7669.00,1.57
7668.00,1.57
7667.00,1.57
7666.00,1.57
7665.00,1.57
7664.00,1.57
7663.00,1.58
7662.00,1.58
7661.00,1.58
7660.00,1.58
7659.00,1.58
7658.00,1.58
7657.00,1.58
7656.00,1.58
7655.00,1.58
7654.00,1.58
7653.00,1.59
7652.00,1.59
7651.00,1.59
7650.00,1.59
7649.00,1.59
7648.00,1.60
7647.00,1.60
7646.00,1.60
7645.00,1.60
7644.00,1.60
7643.00,1.61
7642.00,1.61
7641.00,1.61
7640.00,1.61
7639.00,1.61
7638.00,1.61
7637.00,1.62
7636.00,1.62
7635.00,1.62
7634.00,1.62
7633.00,1.62
7632.00,1.62
7631.00,1.63
7630.00,1.63
7629.00,1.63
7628.00,1.63
7627.00,1.63
7626.00,1.63
7625.00,1.64
7624.00,1.64
7623.00,1.64
7622.00,1.64
7621.00,1.64
7620.00,1.64
7619.00,1.63
7618.00,1.63
7617.00,1.63
7616.00,1.63
7615.00,1.63
7614.00,1.63
7613.00,1.63
7612.00,1.63
7611.00,1.63
7610.00,1.63
7609.00,1.63
7608.00,1.63
7607.00,1.63
7606.00,1.63
7605.00,1.62
7604.00,1.62
7603.00,1.62
7602.00,1.62
7601.00,1.62
7600.00,1.61
7599.00,1.61
7598.00,1.61
7597.00,1.61
7596.00,1.61
7595.00,1.61
7594.00,1.61
7593.00,1.61
7592.00,1.61
7591.00,1.61
7590.00,1.61
7589.00,1.61
7588.00,1.61
7587.00,1.61
7586.00,1.61
7585.00,1.61
7584.00,1.61
7583.00,1.61
7582.00,1.61
7581.00,1.61
7580.00,1.61
7579.00,1.61
7578.00,1.61
7577.00,1.62
7576.00,1.62
7575.00,1.62
7574.00,1.62
7573.00,1.63
7572.00,1.63
7571.00,1.63
7570.00,1.63
7569.00,1.63
7568.00,1.63
7567.00,1.63
7566.00,1.64
7565.00,1.64
7564.00,1.64
7563.00,1.64
7562.00,1.63
7561.00,1.63
7560.00,1.63
7559.00,1.63
7558.00,1.63
7557.00,1.63
7556.00,1.63
7555.00,1.63
7554.00,1.62
7553.00,1.62
7552.00,1.62
7551.00,1.62
7550.00,1.61
7549.00,1.61
7548.00,1.61
7547.00,1.61
7546.00,1.61
7545.00,1.60
7544.00,1.60
7543.00,1.60
7542.00,1.60
7541.00,1.60
7540.00,1.60
7539.00,1.60
7538.00,1.60
7537.00,1.60
7536.00,1.60
7535.00,1.60
7534.00,1.60
7533.00,1.60
7532.00,1.60
7531.00,1.60
7530.00,1.60
7529.00,1.61
7528.00,1.61
7527.00,1.61
7526.00,1.61
7525.00,1.61
7524.00,1.61
7523.00,1.61
7522.00,1.61
7521.00,1.61
7520.00,1.61
7519.00,1.61
7518.00,1.60
7517.00,1.60
7516.00,1.60
7515.00,1.60
7514.00,1.60
7513.00,1.60
7512.00,1.60
7511.00,1.60
7510.00,1.59
7509.00,1.59
7508.00,1.59
7507.00,1.59
7506.00,1.59
7505.00,1.59
7504.00,1.59
7503.00,1.58
7502.00,1.58
7501.00,1.58
7500.00,1.58
7499.00,1.58
7498.00,1.58
7497.00,1.59
7496.00,1.59
7495.00,1.59
7494.00,1.59
7493.00,1.59
7492.00,1.59
7491.00,1.59
7490.00,1.59
7489.00,1.60
7488.00,1.60
7487.00,1.60
7486.00,1.60
7485.00,1.60
7484.00,1.60
7483.00,1.61
7482.00,1.61
7481.00,1.61
7480.00,1.61
7479.00,1.61
7478.00,1.61
7477.00,1.61
7476.00,1.61
7475.00,1.61
7474.00,1.61
7473.00,1.61
7472.00,1.60
7471.00,1.60
7470.00,1.60
7469.00,1.60
7468.00,1.60
7467.00,1.60
7466.00,1.59
7465.00,1.59
7464.00,1.59
7463.00,1.59
7462.00,1.58
7461.00,1.58
7460.00,1.58
7459.00,1.58
7458.00,1.58
7457.00,1.58
7456.00,1.57
7455.00,1.57
7454.00,1.57
7453.00,1.57
7452.00,1.57
7451.00,1.57
7450.00,1.57
7449.00,1.57
7448.00,1.57
7447.00,1.57
7446.00,1.58
7445.00,1.58
7444.00,1.58
7443.00,1.58
7442.00,1.58
7441.00,1.58
7440.00,1.58
7439.00,1.59
7438.00,1.59
7437.00,1.59
7436.00,1.59
7435.00,1.59
7434.00,1.59
7433.00,1.59
7432.00,1.59
7431.00,1.60
7430.00,1.60
7429.00,1.60
7428.00,1.60
7427.00,1.60
7426.00,1.60
7425.00,1.60
7424.00,1.60
7423.00,1.61
7422.00,1.61
7421.00,1.61
7420.00,1.61
7419.00,1.61
7418.00,1.61
7417.00,1.61
7416.00,1.61
7415.00,1.61
7414.00,1.61
7413.00,1.61
7412.00,1.61
7411.00,1.61
7410.00,1.61
7409.00,1.61
7408.00,1.61
7407.00,1.61
7406.00,1.61
7405.00,1.61
7404.00,1.61
7403.00,1.61
7402.00,1.61
7401.00,1.61
7400.00,1.61
7399.00,1.61
7398.00,1.61
7397.00,1.61
7396.00,1.61
7395.00,1.61
7394.00,1.61
7393.00,1.61
7392.00,1.61
7391.00,1.62
7390.00,1.62
7389.00,1.62
7388.00,1.62
7387.00,1.63
7386.00,1.63
7385.00,1.63
7384.00,1.63
7383.00,1.63
7382.00,1.64
7381.00,1.64
7380.00,1.64
7379.00,1.64
7378.00,1.65
7377.00,1.65
7376.00,1.65
7375.00,1.65
7374.00,1.65
7373.00,1.65
7372.00,1.65
7371.00,1.65
7370.00,1.65
7369.00,1.65
7368.00,1.65
7367.00,1.65
7366.00,1.65
7365.00,1.65
7364.00,1.65
7363.00,1.65
7362.00,1.65
7361.00,1.64
7360.00,1.64
7359.00,1.64
7358.00,1.64
7357.00,1.63
7356.00,1.63
7355.00,1.63
7354.00,1.62
7353.00,1.62
7352.00,1.62
7351.00,1.62
7350.00,1.61
7349.00,1.61
7348.00,1.61
7347.00,1.60
7346.00,1.60
7345.00,1.60
7344.00,1.59
7343.00,1.59
7342.00,1.58
7341.00,1.58
7340.00,1.57
7339.00,1.57
7338.00,1.57
7337.00,1.56
7336.00,1.56
7335.00,1.56
7334.00,1.56
7333.00,1.56
7332.00,1.56
7331.00,1.56
7330.00,1.55
7329.00,1.55
7328.00,1.55
7327.00,1.55
7326.00,1.55
7325.00,1.55
7324.00,1.55
7323.00,1.55
7322.00,1.55
7321.00,1.55
7320.00,1.55
7319.00,1.55
7318.00,1.55
7317.00,1.55
7316.00,1.55
7315.00,1.55
7314.00,1.55
7313.00,1.55
7312.00,1.54
7311.00,1.54
7310.00,1.54
7309.00,1.54
7308.00,1.54
7307.00,1.54
7306.00,1.53
7305.00,1.53
7304.00,1.53
7303.00,1.53
7302.00,1.53
7301.00,1.52
7300.00,1.52
7299.00,1.52
7298.00,1.52
7297.00,1.52
7296.00,1.52
7295.00,1.52
7294.00,1.52
7293.00,1.52
7292.00,1.51
7291.00,1.51
7290.00,1.51
7289.00,1.51
7288.00,1.51
7287.00,1.51
7286.00,1.51
7285.00,1.51
7284.00,1.51
7283.00,1.50
7282.00,1.50
7281.00,1.50
7280.00,1.50
7279.00,1.50
7278.00,1.50
7277.00,1.49
7276.00,1.49
7275.00,1.49
7274.00,1.49
7273.00,1.49
7272.00,1.49
7271.00,1.49
7270.00,1.48
7269.00,1.48
7268.00,1.48
7267.00,1.48
7266.00,1.48
7265.00,1.48
7264.00,1.48
7263.00,1.48
7262.00,1.48
7261.00,1.48
7260.00,1.48
7259.00,1.48
7258.00,1.48
7257.00,1.48
7256.00,1.49
7255.00,1.49
7254.00,1.49
7253.00,1.49
7252.00,1.49
7251.00,1.49
7250.00,1.50
7249.00,1.50
7248.00,1.50
7247.00,1.50
7246.00,1.50
7245.00,1.50
7244.00,1.50
7243.00,1.51
7242.00,1.51
7241.00,1.51
7240.00,1.51
7239.00,1.51
7238.00,1.51
7237.00,1.52
7236.00,1.52
7235.00,1.52
7234.00,1.52
7233.00,1.52
7232.00,1.52
7231.00,1.52
7230.00,1.52
7229.00,1.52
7228.00,1.52
7227.00,1.52
7226.00,1.52
7225.00,1.52
7224.00,1.52
7223.00,1.52
7222.00,1.52
7221.00,1.52
7220.00,1.51
7219.00,1.51
7218.00,1.51
7217.00,1.51
7216.00,1.50
7215.00,1.50
7214.00,1.49
7213.00,1.49
7212.00,1.48
7211.00,1.48
7210.00,1.47
7209.00,1.47
7208.00,1.46
7207.00,1.46
7206.00,1.45
7205.00,1.45
7204.00,1.45
7203.00,1.44
7202.00,1.44
7201.00,1.43
7200.00,1.43
7199.00,1.43
7198.00,1.42
7197.00,1.42
7196.00,1.42
7195.00,1.41
7194.00,1.41
7193.00,1.41
7192.00,1.41
7191.00,1.40
7190.00,1.40
7189.00,1.40
7188.00,1.40
7187.00,1.40
7186.00,1.40
7185.00,1.40
7184.00,1.40
7183.00,1.40
7182.00,1.40
7181.00,1.39
7180.00,1.39
7179.00,1.39
7178.00,1.39
7177.00,1.38
7176.00,1.38
7175.00,1.38
7174.00,1.38
7173.00,1.37
7172.00,1.37
7171.00,1.37
7170.00,1.36
7169.00,1.36
7168.00,1.36
7167.00,1.35
7166.00,1.35
7165.00,1.35
7164.00,1.34
7163.00,1.34
7162.00,1.33
7161.00,1.33
7160.00,1.32
7159.00,1.32
7158.00,1.31
7157.00,1.31
7156.00,1.30
7155.00,1.30
7154.00,1.29
7153.00,1.29
7152.00,1.29
7151.00,1.28
7150.00,1.28
7149.00,1.28
7148.00,1.27
7147.00,1.27
7146.00,1.27
7145.00,1.26
7144.00,1.26
7143.00,1.25
7142.00,1.25
7141.00,1.25
7140.00,1.24
7139.00,1.24
7138.00,1.24
7137.00,1.23
7136.00,1.23
7135.00,1.22
7134.00,1.22
7133.00,1.22
7132.00,1.21
7131.00,1.21
7130.00,1.20
7129.00,1.20
7128.00,1.19
7127.00,1.19
7126.00,1.18
7125.00,1.18
7124.00,1.18
7123.00,1.17
7122.00,1.17
7121.00,1.17
7120.00,1.16
7119.00,1.16
7118.00,1.16
7117.00,1.15
7116.00,1.15
7115.00,1.15
7114.00,1.15
7113.00,1.14
7112.00,1.14
7111.00,1.14
7110.00,1.14
7109.00,1.13
7108.00,1.13
7107.00,1.13
7106.00,1.13
7105.00,1.13
7104.00,1.13
7103.00,1.13
7102.00,1.13
7101.00,1.13
7100.00,1.13
7099.00,1.12
7098.00,1.12
7097.00,1.12
7096.00,1.12
7095.00,1.12
7094.00,1.12
7093.00,1.12
7092.00,1.12
7091.00,1.11
7090.00,1.11
7089.00,1.11
7088.00,1.11
7087.00,1.11
7086.00,1.10
7085.00,1.10
7084.00,1.10
7083.00,1.10
7082.00,1.09
7081.00,1.09
7080.00,1.09
7079.00,1.09
7078.00,1.08
7077.00,1.08
7076.00,1.08
7075.00,1.08
7074.00,1.07
7073.00,1.07
7072.00,1.07
7071.00,1.07
7070.00,1.06
7069.00,1.06
7068.00,1.06
7067.00,1.05
7066.00,1.05
7065.00,1.05
7064.00,1.05
7063.00,1.04
7062.00,1.04
7061.00,1.04
7060.00,1.04
7059.00,1.04
7058.00,1.03
7057.00,1.03
7056.00,1.03
7055.00,1.03
7054.00,1.02
7053.00,1.02
7052.00,1.02
7051.00,1.02
7050.00,1.01
7049.00,1.01
7048.00,1.00
7047.00,1.00
7046.00,1.00
7045.00,0.99
7044.00,0.99
7043.00,0.99
7042.00,0.99
7041.00,0.98
7040.00,0.98
7039.00,0.98
7038.00,0.98
7037.00,0.97
7036.00,0.97
7035.00,0.97
7034.00,0.97
7033.00,0.97
7032.00,0.96
7031.00,0.96
7030.00,0.96
7029.00,0.96
7028.00,0.96
7027.00,0.96
7026.00,0.96
7025.00,0.96
7024.00,0.96
7023.00,0.96
7022.00,0.96
7021.00,0.97
7020.00,0.97
7019.00,0.97
7018.00,0.97
7017.00,0.97
7016.00,0.97
7015.00,0.97
7014.00,0.96
7013.00,0.96
7012.00,0.96
7011.00,0.96
7010.00,0.96
7009.00,0.96
7008.00,0.96
7007.00,0.96
7006.00,0.96
7005.00,0.96
7004.00,0.95
7003.00,0.95
7002.00,0.95
7001.00,0.95
7000.00,0.95
6999.00,0.94
6998.00,0.94
6997.00,0.94
6996.00,0.94
6995.00,0.94
6994.00,0.94
6993.00,0.93
6992.00,0.93
6991.00,0.93
6990.00,0.93
6989.00,0.93
6988.00,0.93
6987.00,0.93
6986.00,0.93
6985.00,0.93
6984.00,0.93
6983.00,0.93
6982.00,0.93
6981.00,0.93
6980.00,0.93
6979.00,0.93
6978.00,0.93
6977.00,0.93
6976.00,0.93
6975.00,0.92
6974.00,0.92
6973.00,0.92
6972.00,0.92
6971.00,0.92
6970.00,0.91
6969.00,0.91
6968.00,0.91
6967.00,0.91
6966.00,0.90
6965.00,0.90
6964.00,0.90
6963.00,0.90
6962.00,0.90
6961.00,0.89
6960.00,0.89
6959.00,0.89
6958.00,0.89
6957.00,0.89
6956.00,0.89
6955.00,0.89
6954.00,0.89
6953.00,0.89
6952.00,0.89
6951.00,0.89
6950.00,0.89
6949.00,0.89
6948.00,0.89
6947.00,0.89
6946.00,0.89
6945.00,0.89
6944.00,0.89
6943.00,0.89
6942.00,0.89
6941.00,0.89
6940.00,0.89
6939.00,0.89
6938.00,0.89
6937.00,0.89
6936.00,0.89
6935.00,0.89
6934.00,0.89
6933.00,0.88
6932.00,0.88
6931.00,0.88
6930.00,0.88
6929.00,0.88
6928.00,0.88
6927.00,0.87
6926.00,0.87
6925.00,0.87
6924.00,0.87
6923.00,0.87
6922.00,0.87
6921.00,0.87
6920.00,0.87
6919.00,0.87
6918.00,0.87
6917.00,0.87
6916.00,0.87
6915.00,0.88
6914.00,0.88
6913.00,0.88
6912.00,0.88
6911.00,0.88
6910.00,0.88
6909.00,0.89
6908.00,0.89
6907.00,0.89
6906.00,0.89
6905.00,0.89
6904.00,0.89
6903.00,0.90
6902.00,0.90
6901.00,0.90
6900.00,0.90
6899.00,0.90
6898.00,0.90
6897.00,0.90
6896.00,0.90
6895.00,0.90
6894.00,0.90
6893.00,0.90
6892.00,0.90
6891.00,0.90
6890.00,0.90
6889.00,0.90
6888.00,0.90
6887.00,0.90
6886.00,0.89
6885.00,0.89
6884.00,0.89
6883.00,0.89
6882.00,0.89
6881.00,0.89
6880.00,0.89
6879.00,0.89
6878.00,0.89
6877.00,0.89
6876.00,0.89
6875.00,0.89
6874.00,0.89
6873.00,0.89
6872.00,0.89
6871.00,0.89
6870.00,0.89
6869.00,0.89
6868.00,0.89
6867.00,0.89
6866.00,0.89
6865.00,0.89
6864.00,0.88
6863.00,0.88
6862.00,0.88
6861.00,0.88
6860.00,0.88
6859.00,0.88
6858.00,0.88
6857.00,0.87
6856.00,0.87
6855.00,0.87
6854.00,0.87
6853.00,0.87
6852.00,0.87
6851.00,0.86
6850.00,0.86
6849.00,0.86
6848.00,0.86
6847.00,0.86
6846.00,0.86
6845.00,0.86
6844.00,0.86
6843.00,0.86
6842.00,0.86
6841.00,0.85
6840.00,0.85
6839.00,0.85
6838.00,0.85
6837.00,0.85
6836.00,0.86
6835.00,0.86
6834.00,0.86
6833.00,0.86
6832.00,0.86
6831.00,0.86
6830.00,0.86
6829.00,0.86
6828.00,0.86
6827.00,0.87
6826.00,0.87
6825.00,0.87
6824.00,0.87
6823.00,0.88
6822.00,0.88
6821.00,0.88
6820.00,0.89
6819.00,0.89
6818.00,0.89
6817.00,0.90
6816.00,0.90
6815.00,0.90
6814.00,0.91
6813.00,0.91
6812.00,0.92
6811.00,0.92
6810.00,0.92
6809.00,0.93
6808.00,0.93
6807.00,0.93
6806.00,0.94
6805.00,0.94
6804.00,0.94
6803.00,0.95
6802.00,0.95
6801.00,0.95
6800.00,0.96
6799.00,0.96
6798.00,0.96
6797.00,0.96
6796.00,0.96
6795.00,0.96
6794.00,0.96
6793.00,0.96
6792.00,0.96
6791.00,0.96
6790.00,0.96
6789.00,0.96
6788.00,0.96
6787.00,0.96
6786.00,0.96
6785.00,0.96
6784.00,0.96
6783.00,0.96
6782.00,0.96
6781.00,0.96
6780.00,0.96
6779.00,0.96
6778.00,0.96
6777.00,0.96
6776.00,0.96
6775.00,0.96
6774.00,0.96
6773.00,0.96
6772.00,0.96
6771.00,0.96
6770.00,0.96
6769.00,0.96
6768.00,0.96
6767.00,0.96
6766.00,0.96
6765.00,0.96
6764.00,0.96
6763.00,0.96
6762.00,0.96
6761.00,0.96
6760.00,0.96
6759.00,0.97
6758.00,0.97
6757.00,0.97
6756.00,0.97
6755.00,0.97
6754.00,0.97
6753.00,0.97
6752.00,0.97
6751.00,0.97
6750.00,0.97
6749.00,0.98
6748.00,0.98
6747.00,0.98
6746.00,0.98
6745.00,0.98
6744.00,0.98
6743.00,0.98
6742.00,0.99
6741.00,0.99
6740.00,0.99
6739.00,0.99
6738.00,0.99
6737.00,0.99
6736.00,0.99
6735.00,1.00
6734.00,1.00
6733.00,1.00
6732.00,1.00
6731.00,1.00
6730.00,1.00
6729.00,1.00
6728.00,1.00
6727.00,1.01
6726.00,1.01
6725.00,1.01
6724.00,1.01
6723.00,1.01
6722.00,1.01
6721.00,1.01
6720.00,1.01
6719.00,1.02
6718.00,1.02
6717.00,1.02
6716.00,1.02
6715.00,1.02
6714.00,1.02
6713.00,1.02
6712.00,1.02
6711.00,1.02
6710.00,1.02
6709.00,1.02
6708.00,1.02
6707.00,1.02
6706.00,1.02
6705.00,1.02
6704.00,1.02
6703.00,1.02
6702.00,1.02
6701.00,1.02
6700.00,1.01
6699.00,1.01
6698.00,1.01
6697.00,1.01
6696.00,1.01
6695.00,1.01
6694.00,1.01
6693.00,1.01
6692.00,1.01
6691.00,1.01
6690.00,1.01
6689.00,1.01
6688.00,1.01
6687.00,1.01
6686.00,1.01
6685.00,1.02
6684.00,1.02
6683.00,1.02
6682.00,1.02
6681.00,1.02
6680.00,1.02
6679.00,1.02
6678.00,1.03
6677.00,1.03
6676.00,1.03
6675.00,1.03
6674.00,1.03
6673.00,1.04
6672.00,1.04
6671.00,1.04
6670.00,1.05
6669.00,1.05
6668.00,1.05
6667.00,1.05
6666.00,1.05
6665.00,1.06
6664.00,1.06
6663.00,1.06
6662.00,1.06
6661.00,1.06
6660.00,1.06
6659.00,1.06
6658.00,1.06
6657.00,1.06
6656.00,1.06
6655.00,1.06
6654.00,1.06
6653.00,1.06
6652.00,1.06
6651.00,1.06
6650.00,1.05
6649.00,1.05
6648.00,1.05
6647.00,1.05
6646.00,1.05
6645.00,1.04
6644.00,1.04
6643.00,1.04
6642.00,1.04
6641.00,1.04
6640.00,1.04
6639.00,1.03
6638.00,1.03
6637.00,1.03
6636.00,1.03
6635.00,1.03
6634.00,1.03
6633.00,1.04
6632.00,1.04
6631.00,1.04
6630.00,1.04
6629.00,1.04
6628.00,1.05
6627.00,1.05
6626.00,1.05
6625.00,1.05
6624.00,1.06
6623.00,1.06
6622.00,1.06
6621.00,1.07
6620.00,1.07
6619.00,1.08
6618.00,1.08
6617.00,1.08
6616.00,1.09
6615.00,1.09
6614.00,1.09
6613.00,1.10
6612.00,1.10
6611.00,1.10
6610.00,1.10
6609.00,1.11
6608.00,1.11
6607.00,1.11
6606.00,1.11
6605.00,1.11
6604.00,1.11
6603.00,1.11
6602.00,1.11
6601.00,1.11
6600.00,1.11
6599.00,1.11
6598.00,1.11
6597.00,1.11
6596.00,1.11
6595.00,1.11
6594.00,1.10
6593.00,1.10
6592.00,1.10
6591.00,1.10
6590.00,1.10
6589.00,1.10
6588.00,1.10
6587.00,1.10
6586.00,1.10
6585.00,1.09
6584.00,1.09
6583.00,1.09
6582.00,1.09
6581.00,1.09
6580.00,1.09
6579.00,1.09
6578.00,1.09
6577.00,1.10
6576.00,1.10
6575.00,1.10
6574.00,1.10
6573.00,1.10
6572.00,1.10
6571.00,1.10
6570.00,1.11
6569.00,1.11
6568.00,1.11
6567.00,1.12
6566.00,1.12
6565.00,1.12
6564.00,1.13
6563.00,1.13
6562.00,1.13
6561.00,1.13
6560.00,1.14
6559.00,1.14
6558.00,1.14
6557.00,1.15
6556.00,1.15
6555.00,1.16
6554.00,1.16
6553.00,1.16
6552.00,1.17
6551.00,1.17
6550.00,1.18
6549.00,1.18
6548.00,1.18
6547.00,1.18
6546.00,1.19
6545.00,1.19
6544.00,1.19
6543.00,1.19
6542.00,1.19
6541.00,1.19
6540.00,1.19
6539.00,1.19
6538.00,1.19
6537.00,1.19
6536.00,1.19
6535.00,1.19
6534.00,1.19
6533.00,1.19
6532.00,1.19
6531.00,1.19
6530.00,1.19
6529.00,1.18
6528.00,1.18
6527.00,1.18
6526.00,1.18
6525.00,1.17
6524.00,1.17
6523.00,1.17
6522.00,1.17
6521.00,1.17
6520.00,1.16
6519.00,1.16
6518.00,1.16
6517.00,1.16
6516.00,1.16
6515.00,1.16
6514.00,1.16
6513.00,1.16
6512.00,1.17
6511.00,1.17
6510.00,1.17
6509.00,1.17
6508.00,1.17
6507.00,1.17
6506.00,1.17
6505.00,1.18
6504.00,1.18
6503.00,1.18
6502.00,1.19
6501.00,1.19
6500.00,1.19
6499.00,1.19
6498.00,1.20
6497.00,1.20
6496.00,1.20
6495.00,1.21
6494.00,1.21
6493.00,1.21
6492.00,1.21
6491.00,1.22
6490.00,1.22
6489.00,1.22
6488.00,1.22
6487.00,1.22
6486.00,1.22
6485.00,1.22
6484.00,1.22
6483.00,1.23
6482.00,1.23
6481.00,1.23
6480.00,1.23
6479.00,1.23
6478.00,1.23
6477.00,1.23
6476.00,1.23
6475.00,1.23
6474.00,1.24
6473.00,1.24
6472.00,1.24
6471.00,1.24
6470.00,1.24
6469.00,1.24
6468.00,1.24
6467.00,1.25
6466.00,1.25
6465.00,1.25
6464.00,1.25
6463.00,1.25
6462.00,1.25
6461.00,1.26
6460.00,1.26
6459.00,1.26
6458.00,1.26
6457.00,1.26
6456.00,1.27
6455.00,1.27
6454.00,1.27
6453.00,1.27
6452.00,1.27
6451.00,1.28
6450.00,1.28
6449.00,1.28
6448.00,1.28
6447.00,1.28
6446.00,1.28
6445.00,1.28
6444.00,1.28
6443.00,1.28
6442.00,1.28
6441.00,1.28
6440.00,1.28
6439.00,1.28
6438.00,1.28
6437.00,1.28
6436.00,1.28
6435.00,1.28
6434.00,1.28
6433.00,1.28
6432.00,1.28
6431.00,1.28
6430.00,1.28
6429.00,1.28
6428.00,1.28
6427.00,1.28
6426.00,1.28
6425.00,1.28
6424.00,1.28
6423.00,1.28
6422.00,1.28
6421.00,1.29
6420.00,1.29
6419.00,1.29
6418.00,1.29
6417.00,1.29
6416.00,1.29
6415.00,1.29
6414.00,1.29
6413.00,1.29
6412.00,1.29
6411.00,1.29
6410.00,1.29
6409.00,1.29
6408.00,1.29
6407.00,1.29
6406.00,1.29
6405.00,1.29
6404.00,1.29
6403.00,1.29
6402.00,1.29
6401.00,1.29
6400.00,1.29
6399.00,1.29
6398.00,1.29
6397.00,1.29
6396.00,1.29
6395.00,1.29
6394.00,1.29
6393.00,1.29
6392.00,1.29
6391.00,1.29
6390.00,1.29
6389.00,1.29
6388.00,1.30
6387.00,1.30
6386.00,1.30
6385.00,1.30
6384.00,1.30
6383.00,1.31
6382.00,1.31
6381.00,1.31
6380.00,1.31
6379.00,1.31
6378.00,1.32
6377.00,1.32
6376.00,1.32
6375.00,1.32
6374.00,1.32
6373.00,1.33
6372.00,1.33
6371.00,1.33
6370.00,1.33
6369.00,1.33
6368.00,1.33
6367.00,1.33
6366.00,1.34
6365.00,1.34
6364.00,1.33
6363.00,1.33
6362.00,1.33
6361.00,1.33
6360.00,1.33
6359.00,1.33
6358.00,1.33
6357.00,1.33
6356.00,1.33
6355.00,1.32
6354.00,1.32
6353.00,1.32
6352.00,1.32
6351.00,1.32
6350.00,1.32
6349.00,1.31
6348.00,1.31
6347.00,1.31
6346.00,1.31
6345.00,1.31
6344.00,1.31
6343.00,1.31
6342.00,1.31
6341.00,1.31
6340.00,1.31
6339.00,1.31
6338.00,1.31
6337.00,1.31
6336.00,1.31
6335.00,1.31
6334.00,1.31
6333.00,1.31
6332.00,1.31
6331.00,1.32
6330.00,1.32
6329.00,1.32
6328.00,1.32
6327.00,1.32
6326.00,1.32
6325.00,1.33
6324.00,1.33
6323.00,1.33
6322.00,1.33
6321.00,1.33
6320.00,1.33
6319.00,1.34
6318.00,1.34
6317.00,1.34
6316.00,1.34
6315.00,1.34
6314.00,1.34
6313.00,1.34
6312.00,1.34
6311.00,1.34
6310.00,1.34
6309.00,1.34
6308.00,1.34
6307.00,1.34
6306.00,1.34
6305.00,1.33
6304.00,1.33
6303.00,1.33
6302.00,1.33
6301.00,1.33
6300.00,1.33
6299.00,1.33
6298.00,1.33
6297.00,1.33
6296.00,1.33
6295.00,1.33
6294.00,1.33
6293.00,1.33
6292.00,1.33
6291.00,1.33
6290.00,1.33
6289.00,1.33
6288.00,1.33
6287.00,1.34
6286.00,1.34
6285.00,1.34
6284.00,1.35
6283.00,1.35
6282.00,1.35
6281.00,1.36
6280.00,1.36
6279.00,1.36
6278.00,1.37
6277.00,1.37
6276.00,1.38
6275.00,1.38
6274.00,1.38
6273.00,1.39
6272.00,1.39
6271.00,1.39
6270.00,1.40
6269.00,1.40
6268.00,1.40
6267.00,1.41
6266.00,1.41
6265.00,1.41
6264.00,1.42
6263.00,1.42
6262.00,1.42
6261.00,1.42
6260.00,1.42
6259.00,1.42
6258.00,1.42
6257.00,1.42
6256.00,1.42
6255.00,1.42
6254.00,1.42
6253.00,1.42
6252.00,1.42
6251.00,1.42
6250.00,1.42
6249.00,1.42
6248.00,1.42
6247.00,1.42
6246.00,1.43
6245.00,1.43
6244.00,1.43
6243.00,1.43
6242.00,1.43
6241.00,1.43
6240.00,1.43
6239.00,1.43
6238.00,1.43
6237.00,1.43
6236.00,1.43
6235.00,1.44
6234.00,1.44
6233.00,1.44
6232.00,1.44
6231.00,1.44
6230.00,1.45
6229.00,1.45
6228.00,1.45
6227.00,1.45
6226.00,1.46
6225.00,1.46
6224.00,1.46
6223.00,1.46
6222.00,1.46
6221.00,1.46
6220.00,1.46
6219.00,1.46
6218.00,1.46
6217.00,1.46
6216.00,1.46
6215.00,1.46
6214.00,1.46
6213.00,1.46
6212.00,1.46
6211.00,1.46
6210.00,1.46
6209.00,1.46
6208.00,1.46
6207.00,1.46
6206.00,1.46
6205.00,1.46
6204.00,1.46
6203.00,1.46
6202.00,1.46
6201.00,1.46
6200.00,1.45
6199.00,1.45
6198.00,1.45
6197.00,1.45
6196.00,1.45
6195.00,1.45
6194.00,1.45
6193.00,1.45
6192.00,1.45
6191.00,1.45
6190.00,1.45
6189.00,1.45
6188.00,1.45
6187.00,1.45
6186.00,1.45
6185.00,1.45
6184.00,1.45
6183.00,1.46
6182.00,1.46
6181.00,1.46
6180.00,1.46
6179.00,1.46
6178.00,1.46
6177.00,1.46
6176.00,1.47
6175.00,1.47
6174.00,1.47
6173.00,1.47
6172.00,1.47
6171.00,1.47
6170.00,1.47
6169.00,1.48
6168.00,1.48
6167.00,1.48
6166.00,1.48
6165.00,1.48
6164.00,1.49
6163.00,1.49
6162.00,1.49
6161.00,1.49
6160.00,1.49
6159.00,1.50
6158.00,1.50
6157.00,1.50
6156.00,1.50
6155.00,1.51
6154.00,1.51
6153.00,1.51
6152.00,1.51
6151.00,1.51
6150.00,1.52
6149.00,1.52
6148.00,1.52
6147.00,1.52
6146.00,1.52
6145.00,1.52
6144.00,1.52
6143.00,1.53
6142.00,1.53
6141.00,1.53
6140.00,1.53
6139.00,1.53
6138.00,1.53
6137.00,1.53
6136.00,1.53
6135.00,1.53
6134.00,1.53
6133.00,1.53
6132.00,1.53
6131.00,1.53
6130.00,1.53
6129.00,1.53
6128.00,1.53
6127.00,1.53
6126.00,1.53
6125.00,1.53
6124.00,1.53
6123.00,1.53
6122.00,1.53
6121.00,1.53
6120.00,1.53
6119.00,1.53
6118.00,1.54
6117.00,1.54
6116.00,1.54
6115.00,1.54
6114.00,1.54
6113.00,1.54
6112.00,1.54
6111.00,1.55
6110.00,1.55
6109.00,1.55
6108.00,1.55
6107.00,1.55
6106.00,1.55
6105.00,1.56
6104.00,1.56
6103.00,1.56
6102.00,1.56
6101.00,1.57
6100.00,1.57
6099.00,1.57
6098.00,1.57
6097.00,1.57
6096.00,1.58
6095.00,1.58
6094.00,1.58
6093.00,1.58
6092.00,1.58
6091.00,1.58
6090.00,1.58
6089.00,1.58
6088.00,1.58
6087.00,1.58
6086.00,1.58
6085.00,1.59
6084.00,1.59
6083.00,1.59
6082.00,1.59
6081.00,1.59
6080.00,1.59
6079.00,1.59
6078.00,1.59
6077.00,1.59
6076.00,1.59
6075.00,1.59
6074.00,1.59
6073.00,1.58
6072.00,1.58
6071.00,1.58
6070.00,1.58
6069.00,1.58
6068.00,1.58
6067.00,1.58
6066.00,1.58
6065.00,1.59
6064.00,1.59
6063.00,1.59
6062.00,1.59
6061.00,1.59
6060.00,1.59
6059.00,1.59
6058.00,1.59
6057.00,1.59
6056.00,1.59
6055.00,1.59
6054.00,1.59
6053.00,1.60
6052.00,1.60
6051.00,1.60
6050.00,1.60
6049.00,1.60
6048.00,1.60
6047.00,1.60
6046.00,1.60
6045.00,1.60
6044.00,1.60
6043.00,1.61
6042.00,1.61
6041.00,1.61
6040.00,1.61
6039.00,1.61
6038.00,1.61
6037.00,1.61
6036.00,1.61
6035.00,1.61
6034.00,1.61
6033.00,1.61
6032.00,1.62
6031.00,1.62
6030.00,1.62
6029.00,1.62
6028.00,1.62
6027.00,1.62
6026.00,1.62
6025.00,1.62
6024.00,1.62
6023.00,1.62
6022.00,1.62
6021.00,1.62
6020.00,1.62
6019.00,1.62
6018.00,1.62
6017.00,1.62
6016.00,1.63
6015.00,1.63
6014.00,1.63
6013.00,1.63
6012.00,1.63
6011.00,1.63
6010.00,1.62
6009.00,1.62
6008.00,1.62
6007.00,1.62
6006.00,1.62
6005.00,1.62
6004.00,1.62
6003.00,1.62
6002.00,1.62
6001.00,1.62
6000.00,1.62
5999.00,1.61
5998.00,1.61
5997.00,1.61
5996.00,1.61
5995.00,1.60
5994.00,1.60
5993.00,1.60
5992.00,1.60
5991.00,1.59
5990.00,1.59
5989.00,1.58
5988.00,1.58
5987.00,1.58
5986.00,1.57
5985.00,1.57
5984.00,1.57
5983.00,1.56
5982.00,1.56
5981.00,1.55
5980.00,1.55
5979.00,1.55
5978.00,1.54
5977.00,1.54
5976.00,1.53
5975.00,1.53
5974.00,1.52
5973.00,1.52
5972.00,1.51
5971.00,1.51
5970.00,1.50
5969.00,1.50
5968.00,1.49
5967.00,1.49
5966.00,1.48
5965.00,1.48
5964.00,1.47
5963.00,1.47
5962.00,1.46
5961.00,1.46
5960.00,1.46
5959.00,1.45
5958.00,1.45
5957.00,1.44
5956.00,1.44
5955.00,1.44
5954.00,1.43
5953.00,1.43
5952.00,1.42
5951.00,1.42
5950.00,1.42
5949.00,1.42
5948.00,1.41
5947.00,1.41
5946.00,1.41
5945.00,1.41
5944.00,1.41
5943.00,1.40
5942.00,1.40
5941.00,1.40
5940.00,1.40
5939.00,1.40
5938.00,1.40
5937.00,1.40
5936.00,1.40
5935.00,1.40
5934.00,1.40
5933.00,1.40
5932.00,1.40
5931.00,1.40
5930.00,1.40
5929.00,1.40
5928.00,1.40
5927.00,1.40
5926.00,1.40
5925.00,1.40
5924.00,1.40
5923.00,1.40
5922.00,1.39
5921.00,1.39
5920.00,1.39
5919.00,1.39
5918.00,1.39
5917.00,1.39
5916.00,1.39
5915.00,1.39
5914.00,1.39
5913.00,1.39
5912.00,1.39
5911.00,1.39
5910.00,1.39
5909.00,1.39
5908.00,1.39
5907.00,1.39
5906.00,1.39
5905.00,1.39
5904.00,1.39
5903.00,1.39
5902.00,1.39
5901.00,1.39
5900.00,1.39
5899.00,1.39
5898.00,1.39
5897.00,1.39
5896.00,1.39
5895.00,1.40
5894.00,1.40
5893.00,1.40
5892.00,1.40
5891.00,1.40
5890.00,1.40
5889.00,1.40
5888.00,1.40
5887.00,1.41
5886.00,1.41
5885.00,1.41
5884.00,1.41
5883.00,1.41
5882.00,1.41
5881.00,1.41
5880.00,1.41
5879.00,1.41
5878.00,1.42
5877.00,1.42
5876.00,1.42
5875.00,1.42
5874.00,1.42
5873.00,1.42
5872.00,1.42
5871.00,1.43
5870.00,1.43
5869.00,1.43
5868.00,1.43
5867.00,1.43
5866.00,1.43
5865.00,1.43
5864.00,1.43
5863.00,1.43
5862.00,1.43
5861.00,1.43
5860.00,1.44
5859.00,1.44
5858.00,1.44
5857.00,1.44
5856.00,1.44
5855.00,1.44
5854.00,1.44
5853.00,1.44
5852.00,1.44
5851.00,1.44
5850.00,1.44
5849.00,1.44
5848.00,1.44
5847.00,1.44
5846.00,1.44
5845.00,1.44
5844.00,1.44
5843.00,1.44
5842.00,1.44
5841.00,1.44
5840.00,1.44
5839.00,1.44
5838.00,1.44
5837.00,1.44
5836.00,1.44
5835.00,1.44
5834.00,1.44
5833.00,1.44
5832.00,1.44
5831.00,1.44
5830.00,1.44
5829.00,1.44
5828.00,1.44
5827.00,1.44
5826.00,1.44
5825.00,1.44
5824.00,1.44
5823.00,1.43
5822.00,1.43
5821.00,1.43
5820.00,1.43
5819.00,1.43
5818.00,1.43
5817.00,1.43
5816.00,1.43
5815.00,1.43
5814.00,1.43
5813.00,1.43
5812.00,1.43
5811.00,1.43
5810.00,1.43
5809.00,1.43
5808.00,1.43
5807.00,1.43
5806.00,1.43
5805.00,1.43
5804.00,1.43
5803.00,1.43
5802.00,1.43
5801.00,1.43
5800.00,1.43
5799.00,1.43
5798.00,1.43
5797.00,1.43
5796.00,1.43
5795.00,1.42
5794.00,1.42
5793.00,1.42
5792.00,1.42
5791.00,1.42
5790.00,1.42
5789.00,1.42
5788.00,1.42
5787.00,1.42
5786.00,1.42
5785.00,1.42
5784.00,1.42
5783.00,1.42
5782.00,1.41
5781.00,1.41
5780.00,1.41
5779.00,1.41
5778.00,1.41
5777.00,1.41
5776.00,1.41
5775.00,1.41
5774.00,1.41
5773.00,1.41
5772.00,1.41
5771.00,1.40
5770.00,1.40
5769.00,1.40
5768.00,1.40
5767.00,1.41
5766.00,1.41
5765.00,1.41
5764.00,1.41
5763.00,1.41
5762.00,1.41
5761.00,1.41
5760.00,1.41
5759.00,1.41
5758.00,1.41
5757.00,1.41
5756.00,1.42
5755.00,1.42
5754.00,1.42
5753.00,1.42
5752.00,1.43
5751.00,1.43
5750.00,1.43
5749.00,1.43
5748.00,1.44
5747.00,1.44
5746.00,1.44
5745.00,1.44
5744.00,1.45
5743.00,1.45
5742.00,1.45
5741.00,1.45
5740.00,1.45
5739.00,1.46
5738.00,1.46
5737.00,1.46
5736.00,1.46
5735.00,1.46
5734.00,1.47
5733.00,1.47
5732.00,1.47
5731.00,1.47
5730.00,1.47
5729.00,1.47
5728.00,1.47
5727.00,1.48
5726.00,1.48
5725.00,1.48
5724.00,1.48
5723.00,1.48
5722.00,1.48
5721.00,1.48
5720.00,1.48
5719.00,1.49
5718.00,1.49
5717.00,1.49
5716.00,1.49
5715.00,1.49
5714.00,1.49
5713.00,1.49
5712.00,1.49
5711.00,1.49
5710.00,1.49
5709.00,1.48
5708.00,1.48
5707.00,1.48
5706.00,1.48
5705.00,1.48
5704.00,1.48
5703.00,1.48
5702.00,1.48
5701.00,1.48
5700.00,1.48
5699.00,1.48
5698.00,1.47
5697.00,1.47
5696.00,1.47
5695.00,1.47
5694.00,1.47
5693.00,1.47
5692.00,1.47
5691.00,1.46
5690.00,1.46
5689.00,1.46
5688.00,1.46
5687.00,1.46
5686.00,1.46
5685.00,1.46
5684.00,1.46
5683.00,1.46
5682.00,1.46
5681.00,1.46
5680.00,1.46
5679.00,1.46
5678.00,1.46
5677.00,1.46
5676.00,1.46
5675.00,1.46
5674.00,1.46
5673.00,1.46
5672.00,1.46
5671.00,1.46
5670.00,1.46
5669.00,1.46
5668.00,1.46
5667.00,1.46
5666.00,1.46
5665.00,1.47
5664.00,1.47
5663.00,1.47
5662.00,1.47
5661.00,1.47
5660.00,1.47
5659.00,1.47
5658.00,1.47
5657.00,1.47
5656.00,1.47
5655.00,1.47
5654.00,1.48
5653.00,1.48
5652.00,1.48
5651.00,1.48
5650.00,1.48
5649.00,1.48
5648.00,1.48
5647.00,1.48
5646.00,1.48
5645.00,1.49
5644.00,1.49
5643.00,1.49
5642.00,1.49
5641.00,1.49
5640.00,1.49
5639.00,1.49
5638.00,1.49
5637.00,1.49
5636.00,1.49
5635.00,1.49
5634.00,1.49
5633.00,1.49
5632.00,1.49
5631.00,1.49
5630.00,1.49
5629.00,1.50
5628.00,1.50
5627.00,1.50
5626.00,1.50
5625.00,1.50
5624.00,1.50
5623.00,1.50
5622.00,1.50
5621.00,1.50
5620.00,1.50
5619.00,1.51
5618.00,1.51
5617.00,1.51
5616.00,1.51
5615.00,1.51
5614.00,1.51
5613.00,1.51
5612.00,1.51
5611.00,1.52
5610.00,1.52
5609.00,1.52
5608.00,1.52
5607.00,1.52
5606.00,1.52
5605.00,1.53
5604.00,1.53
5603.00,1.53
5602.00,1.53
5601.00,1.53
5600.00,1.54
5599.00,1.54
5598.00,1.54
5597.00,1.54
5596.00,1.54
5595.00,1.54
5594.00,1.55
5593.00,1.55
5592.00,1.55
5591.00,1.55
5590.00,1.55
5589.00,1.56
5588.00,1.56
5587.00,1.56
5586.00,1.56
5585.00,1.56
5584.00,1.56
5583.00,1.57
5582.00,1.57
5581.00,1.57
5580.00,1.57
5579.00,1.57
5578.00,1.57
5577.00,1.57
5576.00,1.57
5575.00,1.58
5574.00,1.58
5573.00,1.58
5572.00,1.58
5571.00,1.58
5570.00,1.58
5569.00,1.58
5568.00,1.58
5567.00,1.59
5566.00,1.59
5565.00,1.59
5564.00,1.59
5563.00,1.59
5562.00,1.59
5561.00,1.59
5560.00,1.59
5559.00,1.60
5558.00,1.60
5557.00,1.60
5556.00,1.60
5555.00,1.60
5554.00,1.60
5553.00,1.60
5552.00,1.60
5551.00,1.60
5550.00,1.60
5549.00,1.61
5548.00,1.61
5547.00,1.61
5546.00,1.61
5545.00,1.61
5544.00,1.61
5543.00,1.61
5542.00,1.61
5541.00,1.62
5540.00,1.62
5539.00,1.62
5538.00,1.62
5537.00,1.62
5536.00,1.62
5535.00,1.62
5534.00,1.62
5533.00,1.62
5532.00,1.63
5531.00,1.63
5530.00,1.63
5529.00,1.63
5528.00,1.63
5527.00,1.63
5526.00,1.64
5525.00,1.64
5524.00,1.64
5523.00,1.64
5522.00,1.64
5521.00,1.64
5520.00,1.64
5519.00,1.64
5518.00,1.64
5517.00,1.64
5516.00,1.64
5515.00,1.64
5514.00,1.65
5513.00,1.65
5512.00,1.65
5511.00,1.65
5510.00,1.65
5509.00,1.65
5508.00,1.65
5507.00,1.65
5506.00,1.65
5505.00,1.65
5504.00,1.65
5503.00,1.65
5502.00,1.65
5501.00,1.65
5500.00,1.65
5499.00,1.65
5498.00,1.65
5497.00,1.65
5496.00,1.65
5495.00,1.65
5494.00,1.65
5493.00,1.65
5492.00,1.65
5491.00,1.65
5490.00,1.65
5489.00,1.65
5488.00,1.65
5487.00,1.65
5486.00,1.65
5485.00,1.65
5484.00,1.65
5483.00,1.65
5482.00,1.66
5481.00,1.66
5480.00,1.66
5479.00,1.66
5478.00,1.66
5477.00,1.66
5476.00,1.67
5475.00,1.67
5474.00,1.67
5473.00,1.67
5472.00,1.67
5471.00,1.67
5470.00,1.67
5469.00,1.68
5468.00,1.68
5467.00,1.68
5466.00,1.68
5465.00,1.68
5464.00,1.68
5463.00,1.68
5462.00,1.68
5461.00,1.69
5460.00,1.69
5459.00,1.69
5458.00,1.69
5457.00,1.69
5456.00,1.69
5455.00,1.69
5454.00,1.69
5453.00,1.69
5452.00,1.69
5451.00,1.70
5450.00,1.70
5449.00,1.70
5448.00,1.70
5447.00,1.70
5446.00,1.70
5445.00,1.70
5444.00,1.70
5443.00,1.70
5442.00,1.70
5441.00,1.70
5440.00,1.70
5439.00,1.70
5438.00,1.70
5437.00,1.70
5436.00,1.70
5435.00,1.69
5434.00,1.69
5433.00,1.69
5432.00,1.69
5431.00,1.69
5430.00,1.69
5429.00,1.69
5428.00,1.69
5427.00,1.69
5426.00,1.69
5425.00,1.69
5424.00,1.68
5423.00,1.68
5422.00,1.68
5421.00,1.68
5420.00,1.68
5419.00,1.68
5418.00,1.68
5417.00,1.68
5416.00,1.68
5415.00,1.68
5414.00,1.68
5413.00,1.68
5412.00,1.68
5411.00,1.68
5410.00,1.68
5409.00,1.68
5408.00,1.68
5407.00,1.68
5406.00,1.68
5405.00,1.68
5404.00,1.68
5403.00,1.67
5402.00,1.67
5401.00,1.67
5400.00,1.67
5399.00,1.67
5398.00,1.67
5397.00,1.67
5396.00,1.67
5395.00,1.66
5394.00,1.66
5393.00,1.66
5392.00,1.66
5391.00,1.66
5390.00,1.65
5389.00,1.65
5388.00,1.65
5387.00,1.65
5386.00,1.64
5385.00,1.64
5384.00,1.64
5383.00,1.63
5382.00,1.63
5381.00,1.63
5380.00,1.63
5379.00,1.62
5378.00,1.62
5377.00,1.62
5376.00,1.62
5375.00,1.62
5374.00,1.62
5373.00,1.62
5372.00,1.61
5371.00,1.61
5370.00,1.61
5369.00,1.61
5368.00,1.61
5367.00,1.60
5366.00,1.60
5365.00,1.60
5364.00,1.60
5363.00,1.59
5362.00,1.59
5361.00,1.59
5360.00,1.59
5359.00,1.58
5358.00,1.58
5357.00,1.58
5356.00,1.57
5355.00,1.57
5354.00,1.56
5353.00,1.56
5352.00,1.55
5351.00,1.55
5350.00,1.54
5349.00,1.53
5348.00,1.52
5347.00,1.52
5346.00,1.51
5345.00,1.50
5344.00,1.49
5343.00,1.48
5342.00,1.47
5341.00,1.46
5340.00,1.45
5339.00,1.44
5338.00,1.43
5337.00,1.42
5336.00,1.41
5335.00,1.39
5334.00,1.38
5333.00,1.37
5332.00,1.36
5331.00,1.34
5330.00,1.33
5329.00,1.32
5328.00,1.30
5327.00,1.29
5326.00,1.28
5325.00,1.26
5324.00,1.25
5323.00,1.24
5322.00,1.22
5321.00,1.21
5320.00,1.20
5319.00,1.18
5318.00,1.17
5317.00,1.16
5316.00,1.15
5315.00,1.13
5314.00,1.12
5313.00,1.11
5312.00,1.09
5311.00,1.08
5310.00,1.07
5309.00,1.06
5308.00,1.04
5307.00,1.03
5306.00,1.02
5305.00,1.01
5304.00,1.00
5303.00,0.99
5302.00,0.98
5301.00,0.97
5300.00,0.96
5299.00,0.95
5298.00,0.94
5297.00,0.93
5296.00,0.92
5295.00,0.91
5294.00,0.90
5293.00,0.89
5292.00,0.89
5291.00,0.88
5290.00,0.87
5289.00,0.87
5288.00,0.86
5287.00,0.85
5286.00,0.85
5285.00,0.84
5284.00,0.84
5283.00,0.83
5282.00,0.83
5281.00,0.82
5280.00,0.82
5279.00,0.81
5278.00,0.81
5277.00,0.80
5276.00,0.80
5275.00,0.80
5274.00,0.79
5273.00,0.79
5272.00,0.79
5271.00,0.78
5270.00,0.78
5269.00,0.77
5268.00,0.77
5267.00,0.77
5266.00,0.77
5265.00,0.76
5264.00,0.76
5263.00,0.76
5262.00,0.75
5261.00,0.75
5260.00,0.75
5259.00,0.75
5258.00,0.74
5257.00,0.74
5256.00,0.74
5255.00,0.74
5254.00,0.73
5253.00,0.73
5252.00,0.73
5251.00,0.73
5250.00,0.73
5249.00,0.73
5248.00,0.72
5247.00,0.72
5246.00,0.72
5245.00,0.72
5244.00,0.72
5243.00,0.72
5242.00,0.72
5241.00,0.71
5240.00,0.71
5239.00,0.71
5238.00,0.71
5237.00,0.71
5236.00,0.71
5235.00,0.71
5234.00,0.71
5233.00,0.71
5232.00,0.71
5231.00,0.70
5230.00,0.70
5229.00,0.70
5228.00,0.70
5227.00,0.70
5226.00,0.69
5225.00,0.69
5224.00,0.69
5223.00,0.69
5222.00,0.69
5221.00,0.69
5220.00,0.68
5219.00,0.68
5218.00,0.68
5217.00,0.68
5216.00,0.68
5215.00,0.68
5214.00,0.68
5213.00,0.68
5212.00,0.68
5211.00,0.68
5210.00,0.68
5209.00,0.68
5208.00,0.68
5207.00,0.68
5206.00,0.68
5205.00,0.68
5204.00,0.68
5203.00,0.68
5202.00,0.68
5201.00,0.69
5200.00,0.69
5199.00,0.69
5198.00,0.69
5197.00,0.70
5196.00,0.70
5195.00,0.70
5194.00,0.70
5193.00,0.70
5192.00,0.70
5191.00,0.71
5190.00,0.71
5189.00,0.71
5188.00,0.71
5187.00,0.71
5186.00,0.71
5185.00,0.71
5184.00,0.71
5183.00,0.71
5182.00,0.71
5181.00,0.71
5180.00,0.71
5179.00,0.71
5178.00,0.71
5177.00,0.71
5176.00,0.71
5175.00,0.71
5174.00,0.71
5173.00,0.71
5172.00,0.71
5171.00,0.71
5170.00,0.71
5169.00,0.71
5168.00,0.71
5167.00,0.71
5166.00,0.71
5165.00,0.71
5164.00,0.71
5163.00,0.71
5162.00,0.71
5161.00,0.71
5160.00,0.71
5159.00,0.71
5158.00,0.71
5157.00,0.71
5156.00,0.71
5155.00,0.71
5154.00,0.71
5153.00,0.71
5152.00,0.71
5151.00,0.71
5150.00,0.71
5149.00,0.71
5148.00,0.71
5147.00,0.71
5146.00,0.71
5145.00,0.71
5144.00,0.71
5143.00,0.72
5142.00,0.72
5141.00,0.72
5140.00,0.72
5139.00,0.72
5138.00,0.72
5137.00,0.72
5136.00,0.72
5135.00,0.72
5134.00,0.72
5133.00,0.72
5132.00,0.72
5131.00,0.72
5130.00,0.72
5129.00,0.72
5128.00,0.72
5127.00,0.72
5126.00,0.72
5125.00,0.72
5124.00,0.72
5123.00,0.72
5122.00,0.72
5121.00,0.72
5120.00,0.73
5119.00,0.73
5118.00,0.73
5117.00,0.73
5116.00,0.73
5115.00,0.73
5114.00,0.73
5113.00,0.74
5112.00,0.74
5111.00,0.74
5110.00,0.74
5109.00,0.74
5108.00,0.74
5107.00,0.75
5106.00,0.75
5105.00,0.75
5104.00,0.75
5103.00,0.75
5102.00,0.75
5101.00,0.76
5100.00,0.76
5099.00,0.76
5098.00,0.76
5097.00,0.76
5096.00,0.76
5095.00,0.76
5094.00,0.77
5093.00,0.77
5092.00,0.77
5091.00,0.77
5090.00,0.77
5089.00,0.77
5088.00,0.77
5087.00,0.77
5086.00,0.77
5085.00,0.77
5084.00,0.78
5083.00,0.78
5082.00,0.78
5081.00,0.78
5080.00,0.78
5079.00,0.78
5078.00,0.78
5077.00,0.78
5076.00,0.79
5075.00,0.79
5074.00,0.79
5073.00,0.79
5072.00,0.79
5071.00,0.79
5070.00,0.80
5069.00,0.80
5068.00,0.80
5067.00,0.80
5066.00,0.80
5065.00,0.81
5064.00,0.81
5063.00,0.81
5062.00,0.81
5061.00,0.82
5060.00,0.82
5059.00,0.82
5058.00,0.82
5057.00,0.83
5056.00,0.83
5055.00,0.83
5054.00,0.83
5053.00,0.84
5052.00,0.84
5051.00,0.84
5050.00,0.84
5049.00,0.84
5048.00,0.85
5047.00,0.85
5046.00,0.85
5045.00,0.85
5044.00,0.85
5043.00,0.86
5042.00,0.86
5041.00,0.86
5040.00,0.86
5039.00,0.86
5038.00,0.86
5037.00,0.86
5036.00,0.86
5035.00,0.86
5034.00,0.86
5033.00,0.86
5032.00,0.86
5031.00,0.86
5030.00,0.86
5029.00,0.86
5028.00,0.86
5027.00,0.86
5026.00,0.86
5025.00,0.86
5024.00,0.86
5023.00,0.86
5022.00,0.86
5021.00,0.86
5020.00,0.86
5019.00,0.86
5018.00,0.86
5017.00,0.87
5016.00,0.87
5015.00,0.87
5014.00,0.87
5013.00,0.87
5012.00,0.88
5011.00,0.88
5010.00,0.88
5009.00,0.88
5008.00,0.89
5007.00,0.89
5006.00,0.89
5005.00,0.89
5004.00,0.90
5003.00,0.90
5002.00,0.90
5001.00,0.90
5000.00,0.91
4999.00,0.91
4998.00,0.91
4997.00,0.91
4996.00,0.91
4995.00,0.92
4994.00,0.92
4993.00,0.92
4992.00,0.92
4991.00,0.92
4990.00,0.92
4989.00,0.92
4988.00,0.92
4987.00,0.92
4986.00,0.92
4985.00,0.92
4984.00,0.92
4983.00,0.92
4982.00,0.92
4981.00,0.92
4980.00,0.92
4979.00,0.92
4978.00,0.92
4977.00,0.92
4976.00,0.92
4975.00,0.92
4974.00,0.92
4973.00,0.92
4972.00,0.92
4971.00,0.92
4970.00,0.92
4969.00,0.92
4968.00,0.92
4967.00,0.93
4966.00,0.93
4965.00,0.93
4964.00,0.93
4963.00,0.93
4962.00,0.94
4961.00,0.94
4960.00,0.94
4959.00,0.94
4958.00,0.95
4957.00,0.95
4956.00,0.95
4955.00,0.96
4954.00,0.96
4953.00,0.96
4952.00,0.97
4951.00,0.97
4950.00,0.97
4949.00,0.98
4948.00,0.98
4947.00,0.98
4946.00,0.99
4945.00,0.99
4944.00,0.99
4943.00,0.99
4942.00,1.00
4941.00,1.00
4940.00,1.00
4939.00,1.00
4938.00,1.01
4937.00,1.01
4936.00,1.01
4935.00,1.01
4934.00,1.01
4933.00,1.02
4932.00,1.02
4931.00,1.02
4930.00,1.02
4929.00,1.02
4928.00,1.02
4927.00,1.02
4926.00,1.02
4925.00,1.02
4924.00,1.02
4923.00,1.02
4922.00,1.03
4921.00,1.03
4920.00,1.03
4919.00,1.03
4918.00,1.03
4917.00,1.03
4916.00,1.03
4915.00,1.03
4914.00,1.03
4913.00,1.03
4912.00,1.03
4911.00,1.03
4910.00,1.03
4909.00,1.03
4908.00,1.03
4907.00,1.04
4906.00,1.04
4905.00,1.04
4904.00,1.04
4903.00,1.04
4902.00,1.04
4901.00,1.04
4900.00,1.04
4899.00,1.05
4898.00,1.05
4897.00,1.05
4896.00,1.05
4895.00,1.05
4894.00,1.05
4893.00,1.05
4892.00,1.06
4891.00,1.06
4890.00,1.06
4889.00,1.06
4888.00,1.07
4887.00,1.07
4886.00,1.07
4885.00,1.07
4884.00,1.08
4883.00,1.08
4882.00,1.08
4881.00,1.09
4880.00,1.09
4879.00,1.09
4878.00,1.09
4877.00,1.10
4876.00,1.10
4875.00,1.10
4874.00,1.10
4873.00,1.10
4872.00,1.11
4871.00,1.11
4870.00,1.11
4869.00,1.11
4868.00,1.11
4867.00,1.11
4866.00,1.12
4865.00,1.12
4864.00,1.12
4863.00,1.12
4862.00,1.12
4861.00,1.12
4860.00,1.12
4859.00,1.12
4858.00,1.12
4857.00,1.12
4856.00,1.12
4855.00,1.12
4854.00,1.12
4853.00,1.12
4852.00,1.12
4851.00,1.12
4850.00,1.12
4849.00,1.12
4848.00,1.12
4847.00,1.12
4846.00,1.12
4845.00,1.12
4844.00,1.12
4843.00,1.12
4842.00,1.12
4841.00,1.12
4840.00,1.12
4839.00,1.12
4838.00,1.13
4837.00,1.13
4836.00,1.13
4835.00,1.13
4834.00,1.14
4833.00,1.14
4832.00,1.14
4831.00,1.14
4830.00,1.14
4829.00,1.14
4828.00,1.15
4827.00,1.15
4826.00,1.15
4825.00,1.15
4824.00,1.15
4823.00,1.15
4822.00,1.15
4821.00,1.16
4820.00,1.16
4819.00,1.16
4818.00,1.16
4817.00,1.16
4816.00,1.16
4815.00,1.17
4814.00,1.17
4813.00,1.17
4812.00,1.17
4811.00,1.17
4810.00,1.17
4809.00,1.17
4808.00,1.17
4807.00,1.17
4806.00,1.18
4805.00,1.18
4804.00,1.18
4803.00,1.18
4802.00,1.18
4801.00,1.19
4800.00,1.19
4799.00,1.19
4798.00,1.19
4797.00,1.20
4796.00,1.20
4795.00,1.20
4794.00,1.20
4793.00,1.20
4792.00,1.21
4791.00,1.21
4790.00,1.21
4789.00,1.21
4788.00,1.21
4787.00,1.22
4786.00,1.22
4785.00,1.22
4784.00,1.22
4783.00,1.23
4782.00,1.23
4781.00,1.23
4780.00,1.23
4779.00,1.24
4778.00,1.24
4777.00,1.24
4776.00,1.24
4775.00,1.25
4774.00,1.25
4773.00,1.25
4772.00,1.25
4771.00,1.25
4770.00,1.25
4769.00,1.26
4768.00,1.26
4767.00,1.26
4766.00,1.26
4765.00,1.27
4764.00,1.27
4763.00,1.27
4762.00,1.27
4761.00,1.28
4760.00,1.28
4759.00,1.28
4758.00,1.28
4757.00,1.28
4756.00,1.29
4755.00,1.29
4754.00,1.29
4753.00,1.29
4752.00,1.29
4751.00,1.30
4750.00,1.30
4749.00,1.30
4748.00,1.30
4747.00,1.31
4746.00,1.31
4745.00,1.31
4744.00,1.31
4743.00,1.31
4742.00,1.32
4741.00,1.32
4740.00,1.32
4739.00,1.32
4738.00,1.32
4737.00,1.32
4736.00,1.33
4735.00,1.33
4734.00,1.33
4733.00,1.33
4732.00,1.34
4731.00,1.34
4730.00,1.34
4729.00,1.34
4728.00,1.35
4727.00,1.35
4726.00,1.35
4725.00,1.36
4724.00,1.36
4723.00,1.36
4722.00,1.37
4721.00,1.37
4720.00,1.37
4719.00,1.38
4718.00,1.38
4717.00,1.38
4716.00,1.39
4715.00,1.39
4714.00,1.40
4713.00,1.40
4712.00,1.41
4711.00,1.41
4710.00,1.42
4709.00,1.42
4708.00,1.42
4707.00,1.43
4706.00,1.43
4705.00,1.43
4704.00,1.43
4703.00,1.44
4702.00,1.44
4701.00,1.44
4700.00,1.44
4699.00,1.45
4698.00,1.45
4697.00,1.45
4696.00,1.46
4695.00,1.46
4694.00,1.46
4693.00,1.46
4692.00,1.47
4691.00,1.47
4690.00,1.47
4689.00,1.47
4688.00,1.47
4687.00,1.47
4686.00,1.47
4685.00,1.47
4684.00,1.48
4683.00,1.48
4682.00,1.48
4681.00,1.48
4680.00,1.48
4679.00,1.48
4678.00,1.48
4677.00,1.49
4676.00,1.49
4675.00,1.49
4674.00,1.49
4673.00,1.49
4672.00,1.49
4671.00,1.49
4670.00,1.49
4669.00,1.49
4668.00,1.49
4667.00,1.49
4666.00,1.49
4665.00,1.49
4664.00,1.49
4663.00,1.49
4662.00,1.49
4661.00,1.49
4660.00,1.49
4659.00,1.49
4658.00,1.49
4657.00,1.49
4656.00,1.49
4655.00,1.49
4654.00,1.50
4653.00,1.50
4652.00,1.50
4651.00,1.50
4650.00,1.50
4649.00,1.50
4648.00,1.50
4647.00,1.50
4646.00,1.50
4645.00,1.51
4644.00,1.51
4643.00,1.51
4642.00,1.51
4641.00,1.52
4640.00,1.52
4639.00,1.52
4638.00,1.52
4637.00,1.52
4636.00,1.53
4635.00,1.53
4634.00,1.53
4633.00,1.53
4632.00,1.54
4631.00,1.54
4630.00,1.54
4629.00,1.55
4628.00,1.55
4627.00,1.55
4626.00,1.56
4625.00,1.56
4624.00,1.57
4623.00,1.57
4622.00,1.57
4621.00,1.57
4620.00,1.58
4619.00,1.58
4618.00,1.58
4617.00,1.58
4616.00,1.59
4615.00,1.59
4614.00,1.59
4613.00,1.60
4612.00,1.60
4611.00,1.60
4610.00,1.60
4609.00,1.61
4608.00,1.61
4607.00,1.61
4606.00,1.61
4605.00,1.62
4604.00,1.62
4603.00,1.62
4602.00,1.62
4601.00,1.62
4600.00,1.62
4599.00,1.62
4598.00,1.63
4597.00,1.63
4596.00,1.63
4595.00,1.63
4594.00,1.63
4593.00,1.63
4592.00,1.63
4591.00,1.63
4590.00,1.64
4589.00,1.64
4588.00,1.64
4587.00,1.64
4586.00,1.64
4585.00,1.64
4584.00,1.64
4583.00,1.64
4582.00,1.64
4581.00,1.64
4580.00,1.64
4579.00,1.64
4578.00,1.64
4577.00,1.64
4576.00,1.64
4575.00,1.64
4574.00,1.64
4573.00,1.64
4572.00,1.64
4571.00,1.64
4570.00,1.65
4569.00,1.65
4568.00,1.65
4567.00,1.65
4566.00,1.65
4565.00,1.65
4564.00,1.65
4563.00,1.65
4562.00,1.65
4561.00,1.65
4560.00,1.65
4559.00,1.66
4558.00,1.66
4557.00,1.66
4556.00,1.66
4555.00,1.66
4554.00,1.66
4553.00,1.67
4552.00,1.67
4551.00,1.67
4550.00,1.67
4549.00,1.67
4548.00,1.68
4547.00,1.68
4546.00,1.68
4545.00,1.68
4544.00,1.68
4543.00,1.68
4542.00,1.69
4541.00,1.69
4540.00,1.69
4539.00,1.69
4538.00,1.69
4537.00,1.69
4536.00,1.69
4535.00,1.70
4534.00,1.70
4533.00,1.70
4532.00,1.70
4531.00,1.70
4530.00,1.70
4529.00,1.70
4528.00,1.70
4527.00,1.70
4526.00,1.70
4525.00,1.70
4524.00,1.70
4523.00,1.70
4522.00,1.70
4521.00,1.70
4520.00,1.70
4519.00,1.70
4518.00,1.70
4517.00,1.70
4516.00,1.70
4515.00,1.70
4514.00,1.70
4513.00,1.70
4512.00,1.70
4511.00,1.70
4510.00,1.70
4509.00,1.69
4508.00,1.69
4507.00,1.69
4506.00,1.69
4505.00,1.69
4504.00,1.69
4503.00,1.68
4502.00,1.68
4501.00,1.68
4500.00,1.68
4499.00,1.68
4498.00,1.68
4497.00,1.67
4496.00,1.67
4495.00,1.67
4494.00,1.67
4493.00,1.67
4492.00,1.67
4491.00,1.66
4490.00,1.66
4489.00,1.66
4488.00,1.66
4487.00,1.65
4486.00,1.65
4485.00,1.65
4484.00,1.65
4483.00,1.65
4482.00,1.65
4481.00,1.64
4480.00,1.64
4479.00,1.64
4478.00,1.64
4477.00,1.64
4476.00,1.63
4475.00,1.63
4474.00,1.63
4473.00,1.63
4472.00,1.62
4471.00,1.62
4470.00,1.62
4469.00,1.61
4468.00,1.61
4467.00,1.61
4466.00,1.60
4465.00,1.60
4464.00,1.59
4463.00,1.59
4462.00,1.58
4461.00,1.58
4460.00,1.57
4459.00,1.56
4458.00,1.56
4457.00,1.55
4456.00,1.54
4455.00,1.53
4454.00,1.53
4453.00,1.52
4452.00,1.51
4451.00,1.50
4450.00,1.49
4449.00,1.48
4448.00,1.48
4447.00,1.47
4446.00,1.46
4445.00,1.45
4444.00,1.44
4443.00,1.43
4442.00,1.42
4441.00,1.41
4440.00,1.40
4439.00,1.40
4438.00,1.39
4437.00,1.38
4436.00,1.37
4435.00,1.36
4434.00,1.35
4433.00,1.35
4432.00,1.34
4431.00,1.33
4430.00,1.32
4429.00,1.32
4428.00,1.31
4427.00,1.30
4426.00,1.30
4425.00,1.29
4424.00,1.28
4423.00,1.28
4422.00,1.27
4421.00,1.27
4420.00,1.26
4419.00,1.26
4418.00,1.25
4417.00,1.25
4416.00,1.24
4415.00,1.24
4414.00,1.23
4413.00,1.23
4412.00,1.23
4411.00,1.23
4410.00,1.22
4409.00,1.22
4408.00,1.22
4407.00,1.22
4406.00,1.22
4405.00,1.22
4404.00,1.22
4403.00,1.22
4402.00,1.22
4401.00,1.23
4400.00,1.23
4399.00,1.23
4398.00,1.23
4397.00,1.24
4396.00,1.24
4395.00,1.24
4394.00,1.24
4393.00,1.25
4392.00,1.25
4391.00,1.26
4390.00,1.26
4389.00,1.27
4388.00,1.27
4387.00,1.28
4386.00,1.28
4385.00,1.28
4384.00,1.29
4383.00,1.29
4382.00,1.30
4381.00,1.30
4380.00,1.30
4379.00,1.31
4378.00,1.31
4377.00,1.31
4376.00,1.31
4375.00,1.31
4374.00,1.31
4373.00,1.31
4372.00,1.32
4371.00,1.32
4370.00,1.32
4369.00,1.32
4368.00,1.32
4367.00,1.32
4366.00,1.32
4365.00,1.32
4364.00,1.31
4363.00,1.31
4362.00,1.31
4361.00,1.31
4360.00,1.30
4359.00,1.30
4358.00,1.30
4357.00,1.29
4356.00,1.29
4355.00,1.29
4354.00,1.29
4353.00,1.28
4352.00,1.28
4351.00,1.28
4350.00,1.28
4349.00,1.27
4348.00,1.27
4347.00,1.27
4346.00,1.27
4345.00,1.27
4344.00,1.27
4343.00,1.27
4342.00,1.27
4341.00,1.27
4340.00,1.27
4339.00,1.27
4338.00,1.27
4337.00,1.28
4336.00,1.28
4335.00,1.28
4334.00,1.28
4333.00,1.29
4332.00,1.29
4331.00,1.29
4330.00,1.30
4329.00,1.30
4328.00,1.30
4327.00,1.31
4326.00,1.31
4325.00,1.32
4324.00,1.32
4323.00,1.33
4322.00,1.33
4321.00,1.34
4320.00,1.34
4319.00,1.35
4318.00,1.35
4317.00,1.36
4316.00,1.36
4315.00,1.37
4314.00,1.37
4313.00,1.37
4312.00,1.38
4311.00,1.38
4310.00,1.39
4309.00,1.40
4308.00,1.40
4307.00,1.41
4306.00,1.41
4305.00,1.42
4304.00,1.42
4303.00,1.43
4302.00,1.43
4301.00,1.44
4300.00,1.45
4299.00,1.45
4298.00,1.46
4297.00,1.46
4296.00,1.47
4295.00,1.47
4294.00,1.47
4293.00,1.48
4292.00,1.48
4291.00,1.48
4290.00,1.49
4289.00,1.49
4288.00,1.49
4287.00,1.49
4286.00,1.49
4285.00,1.49
4284.00,1.50
4283.00,1.50
4282.00,1.50
4281.00,1.49
4280.00,1.49
4279.00,1.49
4278.00,1.49
4277.00,1.49
4276.00,1.49
4275.00,1.49
4274.00,1.49
4273.00,1.48
4272.00,1.48
4271.00,1.48
4270.00,1.48
4269.00,1.47
4268.00,1.47
4267.00,1.46
4266.00,1.46
4265.00,1.46
4264.00,1.45
4263.00,1.45
4262.00,1.44
4261.00,1.44
4260.00,1.44
4259.00,1.43
4258.00,1.43
4257.00,1.42
4256.00,1.42
4255.00,1.42
4254.00,1.41
4253.00,1.41
4252.00,1.41
4251.00,1.41
4250.00,1.40
4249.00,1.40
4248.00,1.40
4247.00,1.40
4246.00,1.40
4245.00,1.40
4244.00,1.40
4243.00,1.40
4242.00,1.40
4241.00,1.40
4240.00,1.41
4239.00,1.41
4238.00,1.41
4237.00,1.41
4236.00,1.42
4235.00,1.42
4234.00,1.42
4233.00,1.43
4232.00,1.43
4231.00,1.43
4230.00,1.44
4229.00,1.44
4228.00,1.45
4227.00,1.45
4226.00,1.46
4225.00,1.46
4224.00,1.46
4223.00,1.47
4222.00,1.47
4221.00,1.47
4220.00,1.48
4219.00,1.48
4218.00,1.48
4217.00,1.49
4216.00,1.49
4215.00,1.49
4214.00,1.49
4213.00,1.49
4212.00,1.50
4211.00,1.50
4210.00,1.50
4209.00,1.50
4208.00,1.51
4207.00,1.51
4206.00,1.51
4205.00,1.52
4204.00,1.52
4203.00,1.52
4202.00,1.52
4201.00,1.52
4200.00,1.52
4199.00,1.52
4198.00,1.52
4197.00,1.53
4196.00,1.53
4195.00,1.53
4194.00,1.53
4193.00,1.53
4192.00,1.53
4191.00,1.53
4190.00,1.53
4189.00,1.53
4188.00,1.53
4187.00,1.53
4186.00,1.53
4185.00,1.53
4184.00,1.53
4183.00,1.53
4182.00,1.53
4181.00,1.53
4180.00,1.53
4179.00,1.52
4178.00,1.52
4177.00,1.52
4176.00,1.52
4175.00,1.52
4174.00,1.52
4173.00,1.52
4172.00,1.51
4171.00,1.51
4170.00,1.51
4169.00,1.51
4168.00,1.51
4167.00,1.51
4166.00,1.51
4165.00,1.51
4164.00,1.51
4163.00,1.51
4162.00,1.51
4161.00,1.50
4160.00,1.50
4159.00,1.50
4158.00,1.50
4157.00,1.50
4156.00,1.50
4155.00,1.50
4154.00,1.50
4153.00,1.50
4152.00,1.50
4151.00,1.50
4150.00,1.50
4149.00,1.51
4148.00,1.51
4147.00,1.51
4146.00,1.51
4145.00,1.51
4144.00,1.51
4143.00,1.51
4142.00,1.51
4141.00,1.51
4140.00,1.51
4139.00,1.51
4138.00,1.51
4137.00,1.51
4136.00,1.51
4135.00,1.51
4134.00,1.51
4133.00,1.51
4132.00,1.51
4131.00,1.51
4130.00,1.51
4129.00,1.51
4128.00,1.51
4127.00,1.51
4126.00,1.51
4125.00,1.51
4124.00,1.51
4123.00,1.51
4122.00,1.51
4121.00,1.50
4120.00,1.50
4119.00,1.50
4118.00,1.50
4117.00,1.50
4116.00,1.50
4115.00,1.50
4114.00,1.50
4113.00,1.50
4112.00,1.50
4111.00,1.50
4110.00,1.50
4109.00,1.49
4108.00,1.49
4107.00,1.49
4106.00,1.49
4105.00,1.49
4104.00,1.48
4103.00,1.48
4102.00,1.48
4101.00,1.48
4100.00,1.48
4099.00,1.47
4098.00,1.47
4097.00,1.47
4096.00,1.47
4095.00,1.47
4094.00,1.47
4093.00,1.46
4092.00,1.46
4091.00,1.46
4090.00,1.46
4089.00,1.46
4088.00,1.45
4087.00,1.45
4086.00,1.45
4085.00,1.45
4084.00,1.44
4083.00,1.44
4082.00,1.44
4081.00,1.43
4080.00,1.43
4079.00,1.43
4078.00,1.43
4077.00,1.43
4076.00,1.42
4075.00,1.42
4074.00,1.42
4073.00,1.42
4072.00,1.42
4071.00,1.41
4070.00,1.41
4069.00,1.41
4068.00,1.40
4067.00,1.40
4066.00,1.39
4065.00,1.39
4064.00,1.39
4063.00,1.38
4062.00,1.38
4061.00,1.37
4060.00,1.37
4059.00,1.37
4058.00,1.36
4057.00,1.36
4056.00,1.36
4055.00,1.36
4054.00,1.36
4053.00,1.35
4052.00,1.35
4051.00,1.34
4050.00,1.34
4049.00,1.34
4048.00,1.34
4047.00,1.34
4046.00,1.34
4045.00,1.34
4044.00,1.34
4043.00,1.35
4042.00,1.35
4041.00,1.36
4040.00,1.37
4039.00,1.38
4038.00,1.39
4037.00,1.40
4036.00,1.41
4035.00,1.42
4034.00,1.43
4033.00,1.44
4032.00,1.45
4031.00,1.45
4030.00,1.46
4029.00,1.47
4028.00,1.48
4027.00,1.49
4026.00,1.51
4025.00,1.52
4024.00,1.53
4023.00,1.55
4022.00,1.56
4021.00,1.57
4020.00,1.58
4019.00,1.59
4018.00,1.60
4017.00,1.61
4016.00,1.62
4015.00,1.63
4014.00,1.64
4013.00,1.64
4012.00,1.65
4011.00,1.66
4010.00,1.66
4009.00,1.67
4008.00,1.68
4007.00,1.69
4006.00,1.70
4005.00,1.70
4004.00,1.71
4003.00,1.72
4002.00,1.73
4001.00,1.74
4000.00,1.75
