创建为新数据集,样品 160 用户 Administrator 日期 星期六, 七月 27 2019
cm-1,%T
10000.00,1.87
9999.00,1.87
9998.00,1.86
9997.00,1.86
9996.00,1.85
9995.00,1.85
9994.00,1.85
9993.00,1.84
9992.00,1.84
9991.00,1.83
9990.00,1.83
9989.00,1.82
9988.00,1.82
9987.00,1.81
9986.00,1.80
9985.00,1.79
9984.00,1.78
9983.00,1.77
9982.00,1.76
9981.00,1.75
9980.00,1.73
9979.00,1.72
9978.00,1.71
9977.00,1.70
9976.00,1.69
9975.00,1.68
9974.00,1.68
9973.00,1.67
9972.00,1.66
9971.00,1.66
9970.00,1.65
9969.00,1.65
9968.00,1.64
9967.00,1.64
9966.00,1.63
9965.00,1.63
9964.00,1.63
9963.00,1.63
9962.00,1.62
9961.00,1.62
9960.00,1.62
9959.00,1.62
9958.00,1.62
9957.00,1.62
9956.00,1.62
9955.00,1.62
9954.00,1.62
9953.00,1.62
9952.00,1.62
9951.00,1.62
9950.00,1.62
9949.00,1.62
9948.00,1.61
9947.00,1.61
9946.00,1.61
9945.00,1.60
9944.00,1.60
9943.00,1.59
9942.00,1.58
9941.00,1.58
9940.00,1.57
9939.00,1.56
9938.00,1.55
9937.00,1.54
9936.00,1.53
9935.00,1.52
9934.00,1.51
9933.00,1.50
9932.00,1.49
9931.00,1.48
9930.00,1.47
9929.00,1.46
9928.00,1.45
9927.00,1.44
9926.00,1.43
9925.00,1.42
9924.00,1.41
9923.00,1.40
9922.00,1.39
9921.00,1.38
9920.00,1.37
9919.00,1.36
9918.00,1.36
9917.00,1.35
9916.00,1.35
9915.00,1.34
9914.00,1.34
9913.00,1.34
9912.00,1.34
9911.00,1.34
9910.00,1.34
9909.00,1.34
9908.00,1.34
9907.00,1.34
9906.00,1.34
9905.00,1.34
9904.00,1.34
9903.00,1.34
9902.00,1.34
9901.00,1.35
9900.00,1.35
9899.00,1.35
9898.00,1.35
9897.00,1.36
9896.00,1.36
9895.00,1.36
9894.00,1.36
9893.00,1.37
9892.00,1.37
9891.00,1.37
9890.00,1.37
9889.00,1.36
9888.00,1.36
9887.00,1.36
9886.00,1.36
9885.00,1.36
9884.00,1.35
9883.00,1.35
9882.00,1.35
9881.00,1.35
9880.00,1.35
9879.00,1.35
9878.00,1.35
9877.00,1.35
9876.00,1.35
9875.00,1.36
9874.00,1.36
9873.00,1.36
9872.00,1.37
9871.00,1.38
9870.00,1.38
9869.00,1.39
9868.00,1.40
9867.00,1.41
9866.00,1.42
9865.00,1.43
9864.00,1.44
9863.00,1.45
9862.00,1.46
9861.00,1.47
9860.00,1.48
9859.00,1.48
9858.00,1.49
9857.00,1.49
9856.00,1.49
9855.00,1.49
9854.00,1.49
9853.00,1.49
9852.00,1.49
9851.00,1.48
9850.00,1.48
9849.00,1.47
9848.00,1.46
9847.00,1.45
9846.00,1.44
9845.00,1.42
9844.00,1.41
9843.00,1.39
9842.00,1.38
9841.00,1.36
9840.00,1.34
9839.00,1.32
9838.00,1.30
9837.00,1.29
9836.00,1.27
9835.00,1.25
9834.00,1.24
9833.00,1.22
9832.00,1.21
9831.00,1.20
9830.00,1.19
9829.00,1.18
9828.00,1.17
9827.00,1.16
9826.00,1.15
9825.00,1.14
9824.00,1.14
9823.00,1.13
9822.00,1.13
9821.00,1.13
9820.00,1.12
9819.00,1.12
9818.00,1.12
9817.00,1.12
9816.00,1.11
9815.00,1.11
9814.00,1.11
9813.00,1.10
9812.00,1.10
9811.00,1.10
9810.00,1.09
9809.00,1.09
9808.00,1.09
9807.00,1.09
9806.00,1.09
9805.00,1.10
9804.00,1.10
9803.00,1.10
9802.00,1.10
9801.00,1.11
9800.00,1.11
9799.00,1.11
9798.00,1.12
9797.00,1.12
9796.00,1.13
9795.00,1.13
9794.00,1.14
9793.00,1.15
9792.00,1.15
9791.00,1.16
9790.00,1.18
9789.00,1.19
9788.00,1.20
9787.00,1.21
9786.00,1.23
9785.00,1.24
9784.00,1.25
9783.00,1.27
9782.00,1.28
9781.00,1.29
9780.00,1.29
9779.00,1.30
9778.00,1.31
9777.00,1.32
9776.00,1.32
9775.00,1.33
9774.00,1.33
9773.00,1.34
9772.00,1.34
9771.00,1.35
9770.00,1.35
9769.00,1.35
9768.00,1.35
9767.00,1.36
9766.00,1.36
9765.00,1.36
9764.00,1.36
9763.00,1.36
9762.00,1.36
9761.00,1.36
9760.00,1.36
9759.00,1.36
9758.00,1.36
9757.00,1.36
9756.00,1.37
9755.00,1.37
9754.00,1.37
9753.00,1.38
9752.00,1.38
9751.00,1.39
9750.00,1.39
9749.00,1.40
9748.00,1.40
9747.00,1.41
9746.00,1.41
9745.00,1.42
9744.00,1.42
9743.00,1.42
9742.00,1.43
9741.00,1.43
9740.00,1.43
9739.00,1.44
9738.00,1.44
9737.00,1.44
9736.00,1.44
9735.00,1.44
9734.00,1.44
9733.00,1.44
9732.00,1.44
9731.00,1.43
9730.00,1.43
9729.00,1.42
9728.00,1.41
9727.00,1.41
9726.00,1.40
9725.00,1.39
9724.00,1.39
9723.00,1.38
9722.00,1.37
9721.00,1.36
9720.00,1.36
9719.00,1.35
9718.00,1.35
9717.00,1.34
9716.00,1.33
9715.00,1.33
9714.00,1.32
9713.00,1.31
9712.00,1.31
9711.00,1.30
9710.00,1.30
9709.00,1.29
9708.00,1.29
9707.00,1.28
9706.00,1.28
9705.00,1.28
9704.00,1.28
9703.00,1.28
9702.00,1.28
9701.00,1.28
9700.00,1.28
9699.00,1.28
9698.00,1.28
9697.00,1.28
9696.00,1.28
9695.00,1.28
9694.00,1.28
9693.00,1.28
9692.00,1.28
9691.00,1.28
9690.00,1.28
9689.00,1.28
9688.00,1.29
9687.00,1.29
9686.00,1.30
9685.00,1.30
9684.00,1.31
9683.00,1.31
9682.00,1.32
9681.00,1.32
9680.00,1.33
9679.00,1.33
9678.00,1.34
9677.00,1.34
9676.00,1.34
9675.00,1.35
9674.00,1.35
9673.00,1.36
9672.00,1.36
9671.00,1.37
9670.00,1.37
9669.00,1.38
9668.00,1.38
9667.00,1.39
9666.00,1.39
9665.00,1.40
9664.00,1.40
9663.00,1.40
9662.00,1.41
9661.00,1.41
9660.00,1.41
9659.00,1.41
9658.00,1.41
9657.00,1.41
9656.00,1.40
9655.00,1.40
9654.00,1.40
9653.00,1.40
9652.00,1.40
9651.00,1.40
9650.00,1.40
9649.00,1.39
9648.00,1.39
9647.00,1.39
9646.00,1.39
9645.00,1.39
9644.00,1.39
9643.00,1.39
9642.00,1.39
9641.00,1.39
9640.00,1.39
9639.00,1.39
9638.00,1.39
9637.00,1.38
9636.00,1.38
9635.00,1.38
9634.00,1.38
9633.00,1.37
9632.00,1.37
9631.00,1.37
9630.00,1.37
9629.00,1.37
9628.00,1.37
9627.00,1.37
9626.00,1.37
9625.00,1.37
9624.00,1.36
9623.00,1.36
9622.00,1.36
9621.00,1.36
9620.00,1.36
9619.00,1.36
9618.00,1.36
9617.00,1.36
9616.00,1.36
9615.00,1.36
9614.00,1.36
9613.00,1.36
9612.00,1.36
9611.00,1.36
9610.00,1.37
9609.00,1.37
9608.00,1.37
9607.00,1.37
9606.00,1.38
9605.00,1.38
9604.00,1.38
9603.00,1.39
9602.00,1.39
9601.00,1.39
9600.00,1.40
9599.00,1.40
9598.00,1.40
9597.00,1.40
9596.00,1.40
9595.00,1.40
9594.00,1.40
9593.00,1.40
9592.00,1.40
9591.00,1.40
9590.00,1.40
9589.00,1.40
9588.00,1.40
9587.00,1.40
9586.00,1.40
9585.00,1.40
9584.00,1.39
9583.00,1.39
9582.00,1.39
9581.00,1.39
9580.00,1.38
9579.00,1.38
9578.00,1.38
9577.00,1.37
9576.00,1.37
9575.00,1.37
9574.00,1.36
9573.00,1.36
9572.00,1.36
9571.00,1.35
9570.00,1.35
9569.00,1.35
9568.00,1.34
9567.00,1.34
9566.00,1.33
9565.00,1.33
9564.00,1.33
9563.00,1.32
9562.00,1.32
9561.00,1.31
9560.00,1.31
9559.00,1.30
9558.00,1.30
9557.00,1.29
9556.00,1.29
9555.00,1.28
9554.00,1.28
9553.00,1.27
9552.00,1.27
9551.00,1.27
9550.00,1.26
9549.00,1.26
9548.00,1.25
9547.00,1.25
9546.00,1.24
9545.00,1.23
9544.00,1.23
9543.00,1.22
9542.00,1.22
9541.00,1.21
9540.00,1.21
9539.00,1.20
9538.00,1.20
9537.00,1.20
9536.00,1.19
9535.00,1.19
9534.00,1.19
9533.00,1.19
9532.00,1.19
9531.00,1.19
9530.00,1.19
9529.00,1.19
9528.00,1.20
9527.00,1.20
9526.00,1.20
9525.00,1.21
9524.00,1.21
9523.00,1.22
9522.00,1.22
9521.00,1.23
9520.00,1.24
9519.00,1.25
9518.00,1.25
9517.00,1.26
9516.00,1.27
9515.00,1.28
9514.00,1.29
9513.00,1.30
9512.00,1.31
9511.00,1.32
9510.00,1.33
9509.00,1.34
9508.00,1.34
9507.00,1.35
9506.00,1.36
9505.00,1.36
9504.00,1.37
9503.00,1.37
9502.00,1.38
9501.00,1.38
9500.00,1.38
9499.00,1.39
9498.00,1.39
9497.00,1.39
9496.00,1.39
9495.00,1.39
9494.00,1.39
9493.00,1.39
9492.00,1.39
9491.00,1.39
9490.00,1.39
9489.00,1.39
9488.00,1.39
9487.00,1.39
9486.00,1.39
9485.00,1.38
9484.00,1.38
9483.00,1.38
9482.00,1.38
9481.00,1.38
9480.00,1.38
9479.00,1.38
9478.00,1.39
9477.00,1.39
9476.00,1.39
9475.00,1.39
9474.00,1.40
9473.00,1.40
9472.00,1.41
9471.00,1.41
9470.00,1.41
9469.00,1.42
9468.00,1.42
9467.00,1.43
9466.00,1.43
9465.00,1.44
9464.00,1.44
9463.00,1.44
9462.00,1.45
9461.00,1.45
9460.00,1.45
9459.00,1.46
9458.00,1.46
9457.00,1.46
9456.00,1.46
9455.00,1.46
9454.00,1.46
9453.00,1.46
9452.00,1.46
9451.00,1.46
9450.00,1.46
9449.00,1.45
9448.00,1.45
9447.00,1.44
9446.00,1.44
9445.00,1.43
9444.00,1.42
9443.00,1.41
9442.00,1.41
9441.00,1.40
9440.00,1.39
9439.00,1.38
9438.00,1.37
9437.00,1.37
9436.00,1.36
9435.00,1.35
9434.00,1.34
9433.00,1.34
9432.00,1.33
9431.00,1.33
9430.00,1.32
9429.00,1.32
9428.00,1.31
9427.00,1.31
9426.00,1.30
9425.00,1.30
9424.00,1.30
9423.00,1.30
9422.00,1.30
9421.00,1.30
9420.00,1.31
9419.00,1.31
9418.00,1.32
9417.00,1.32
9416.00,1.33
9415.00,1.34
9414.00,1.35
9413.00,1.35
9412.00,1.36
9411.00,1.37
9410.00,1.38
9409.00,1.38
9408.00,1.39
9407.00,1.40
9406.00,1.40
9405.00,1.41
9404.00,1.41
9403.00,1.42
9402.00,1.42
9401.00,1.43
9400.00,1.43
9399.00,1.44
9398.00,1.44
9397.00,1.44
9396.00,1.44
9395.00,1.44
9394.00,1.44
9393.00,1.44
9392.00,1.44
9391.00,1.43
9390.00,1.43
9389.00,1.43
9388.00,1.42
9387.00,1.42
9386.00,1.41
9385.00,1.41
9384.00,1.40
9383.00,1.40
9382.00,1.39
9381.00,1.39
9380.00,1.38
9379.00,1.37
9378.00,1.37
9377.00,1.36
9376.00,1.36
9375.00,1.35
9374.00,1.35
9373.00,1.34
9372.00,1.34
9371.00,1.34
9370.00,1.33
9369.00,1.33
9368.00,1.33
9367.00,1.32
9366.00,1.32
9365.00,1.32
9364.00,1.32
9363.00,1.31
9362.00,1.31
9361.00,1.31
9360.00,1.31
9359.00,1.31
9358.00,1.30
9357.00,1.30
9356.00,1.30
9355.00,1.30
9354.00,1.31
9353.00,1.31
9352.00,1.31
9351.00,1.31
9350.00,1.31
9349.00,1.32
9348.00,1.32
9347.00,1.32
9346.00,1.32
9345.00,1.33
9344.00,1.33
9343.00,1.33
9342.00,1.33
9341.00,1.33
9340.00,1.34
9339.00,1.34
9338.00,1.34
9337.00,1.34
9336.00,1.34
9335.00,1.34
9334.00,1.35
9333.00,1.35
9332.00,1.35
9331.00,1.35
9330.00,1.35
9329.00,1.35
9328.00,1.35
9327.00,1.35
9326.00,1.35
9325.00,1.35
9324.00,1.35
9323.00,1.35
9322.00,1.35
9321.00,1.35
9320.00,1.35
9319.00,1.35
9318.00,1.35
9317.00,1.35
9316.00,1.35
9315.00,1.35
9314.00,1.35
9313.00,1.35
9312.00,1.35
9311.00,1.36
9310.00,1.36
9309.00,1.36
9308.00,1.37
9307.00,1.37
9306.00,1.37
9305.00,1.37
9304.00,1.37
9303.00,1.37
9302.00,1.37
9301.00,1.37
9300.00,1.37
9299.00,1.37
9298.00,1.37
9297.00,1.37
9296.00,1.37
9295.00,1.37
9294.00,1.38
9293.00,1.38
9292.00,1.38
9291.00,1.38
9290.00,1.38
9289.00,1.38
9288.00,1.38
9287.00,1.38
9286.00,1.38
9285.00,1.38
9284.00,1.38
9283.00,1.37
9282.00,1.37
9281.00,1.37
9280.00,1.37
9279.00,1.37
9278.00,1.37
9277.00,1.37
9276.00,1.37
9275.00,1.37
9274.00,1.37
9273.00,1.37
9272.00,1.37
9271.00,1.37
9270.00,1.37
9269.00,1.37
9268.00,1.36
9267.00,1.36
9266.00,1.36
9265.00,1.36
9264.00,1.36
9263.00,1.36
9262.00,1.36
9261.00,1.36
9260.00,1.36
9259.00,1.36
9258.00,1.36
9257.00,1.36
9256.00,1.36
9255.00,1.36
9254.00,1.36
9253.00,1.36
9252.00,1.36
9251.00,1.36
9250.00,1.36
9249.00,1.36
9248.00,1.36
9247.00,1.36
9246.00,1.36
9245.00,1.37
9244.00,1.37
9243.00,1.37
9242.00,1.37
9241.00,1.37
9240.00,1.37
9239.00,1.37
9238.00,1.37
9237.00,1.37
9236.00,1.37
9235.00,1.37
9234.00,1.37
9233.00,1.37
9232.00,1.37
9231.00,1.37
9230.00,1.36
9229.00,1.36
9228.00,1.36
9227.00,1.36
9226.00,1.36
9225.00,1.36
9224.00,1.36
9223.00,1.36
9222.00,1.36
9221.00,1.36
9220.00,1.36
9219.00,1.36
9218.00,1.36
9217.00,1.36
9216.00,1.36
9215.00,1.35
9214.00,1.35
9213.00,1.35
9212.00,1.35
9211.00,1.34
9210.00,1.34
9209.00,1.34
9208.00,1.34
9207.00,1.33
9206.00,1.33
9205.00,1.32
9204.00,1.32
9203.00,1.31
9202.00,1.31
9201.00,1.30
9200.00,1.30
9199.00,1.29
9198.00,1.29
9197.00,1.28
9196.00,1.27
9195.00,1.27
9194.00,1.26
9193.00,1.26
9192.00,1.26
9191.00,1.25
9190.00,1.25
9189.00,1.25
9188.00,1.25
9187.00,1.25
9186.00,1.25
9185.00,1.26
9184.00,1.26
9183.00,1.26
9182.00,1.26
9181.00,1.26
9180.00,1.27
9179.00,1.27
9178.00,1.27
9177.00,1.27
9176.00,1.28
9175.00,1.28
9174.00,1.28
9173.00,1.29
9172.00,1.29
9171.00,1.30
9170.00,1.30
9169.00,1.30
9168.00,1.31
9167.00,1.31
9166.00,1.31
9165.00,1.31
9164.00,1.31
9163.00,1.31
9162.00,1.31
9161.00,1.31
9160.00,1.32
9159.00,1.32
9158.00,1.32
9157.00,1.32
9156.00,1.32
9155.00,1.32
9154.00,1.33
9153.00,1.33
9152.00,1.33
9151.00,1.34
9150.00,1.34
9149.00,1.34
9148.00,1.35
9147.00,1.35
9146.00,1.36
9145.00,1.36
9144.00,1.36
9143.00,1.36
9142.00,1.37
9141.00,1.37
9140.00,1.38
9139.00,1.38
9138.00,1.38
9137.00,1.39
9136.00,1.39
9135.00,1.40
9134.00,1.40
9133.00,1.41
9132.00,1.41
9131.00,1.42
9130.00,1.42
9129.00,1.42
9128.00,1.43
9127.00,1.43
9126.00,1.43
9125.00,1.43
9124.00,1.44
9123.00,1.44
9122.00,1.44
9121.00,1.44
9120.00,1.45
9119.00,1.45
9118.00,1.45
9117.00,1.46
9116.00,1.46
9115.00,1.46
9114.00,1.46
9113.00,1.47
9112.00,1.47
9111.00,1.47
9110.00,1.47
9109.00,1.47
9108.00,1.47
9107.00,1.47
9106.00,1.46
9105.00,1.46
9104.00,1.46
9103.00,1.45
9102.00,1.45
9101.00,1.45
9100.00,1.44
9099.00,1.44
9098.00,1.43
9097.00,1.43
9096.00,1.43
9095.00,1.42
9094.00,1.42
9093.00,1.41
9092.00,1.41
9091.00,1.40
9090.00,1.40
9089.00,1.39
9088.00,1.39
9087.00,1.38
9086.00,1.38
9085.00,1.38
9084.00,1.37
9083.00,1.37
9082.00,1.36
9081.00,1.36
9080.00,1.36
9079.00,1.35
9078.00,1.35
9077.00,1.35
9076.00,1.34
9075.00,1.34
9074.00,1.34
9073.00,1.33
9072.00,1.33
9071.00,1.33
9070.00,1.32
9069.00,1.32
9068.00,1.32
9067.00,1.31
9066.00,1.31
9065.00,1.31
9064.00,1.30
9063.00,1.30
9062.00,1.30
9061.00,1.30
9060.00,1.29
9059.00,1.29
9058.00,1.28
9057.00,1.28
9056.00,1.28
9055.00,1.27
9054.00,1.27
9053.00,1.26
9052.00,1.26
9051.00,1.26
9050.00,1.26
9049.00,1.25
9048.00,1.25
9047.00,1.25
9046.00,1.24
9045.00,1.24
9044.00,1.24
9043.00,1.24
9042.00,1.23
9041.00,1.23
9040.00,1.23
9039.00,1.22
9038.00,1.22
9037.00,1.22
9036.00,1.22
9035.00,1.21
9034.00,1.21
9033.00,1.21
9032.00,1.22
9031.00,1.22
9030.00,1.22
9029.00,1.22
9028.00,1.23
9027.00,1.23
9026.00,1.24
9025.00,1.24
9024.00,1.25
9023.00,1.25
9022.00,1.26
9021.00,1.27
9020.00,1.27
9019.00,1.28
9018.00,1.29
9017.00,1.30
9016.00,1.31
9015.00,1.32
9014.00,1.33
9013.00,1.34
9012.00,1.36
9011.00,1.37
9010.00,1.38
9009.00,1.39
9008.00,1.39
9007.00,1.40
9006.00,1.41
9005.00,1.42
9004.00,1.42
9003.00,1.43
9002.00,1.43
9001.00,1.44
9000.00,1.44
8999.00,1.45
8998.00,1.45
8997.00,1.45
8996.00,1.46
8995.00,1.46
8994.00,1.46
8993.00,1.46
8992.00,1.46
8991.00,1.46
8990.00,1.46
8989.00,1.46
8988.00,1.46
8987.00,1.45
8986.00,1.45
8985.00,1.45
8984.00,1.45
8983.00,1.45
8982.00,1.45
8981.00,1.44
8980.00,1.44
8979.00,1.44
8978.00,1.44
8977.00,1.44
8976.00,1.44
8975.00,1.44
8974.00,1.44
8973.00,1.44
8972.00,1.44
8971.00,1.44
8970.00,1.43
8969.00,1.43
8968.00,1.43
8967.00,1.43
8966.00,1.42
8965.00,1.42
8964.00,1.41
8963.00,1.41
8962.00,1.41
8961.00,1.40
8960.00,1.40
8959.00,1.39
8958.00,1.39
8957.00,1.38
8956.00,1.38
8955.00,1.37
8954.00,1.37
8953.00,1.36
8952.00,1.36
8951.00,1.36
8950.00,1.35
8949.00,1.35
8948.00,1.35
8947.00,1.34
8946.00,1.34
8945.00,1.34
8944.00,1.34
8943.00,1.34
8942.00,1.34
8941.00,1.34
8940.00,1.34
8939.00,1.34
8938.00,1.35
8937.00,1.35
8936.00,1.36
8935.00,1.36
8934.00,1.37
8933.00,1.37
8932.00,1.38
8931.00,1.39
8930.00,1.39
8929.00,1.40
8928.00,1.41
8927.00,1.41
8926.00,1.42
8925.00,1.42
8924.00,1.43
8923.00,1.43
8922.00,1.43
8921.00,1.44
8920.00,1.44
8919.00,1.44
8918.00,1.44
8917.00,1.44
8916.00,1.44
8915.00,1.44
8914.00,1.44
8913.00,1.43
8912.00,1.43
8911.00,1.43
8910.00,1.42
8909.00,1.42
8908.00,1.41
8907.00,1.41
8906.00,1.40
8905.00,1.40
8904.00,1.39
8903.00,1.38
8902.00,1.37
8901.00,1.36
8900.00,1.35
8899.00,1.34
8898.00,1.33
8897.00,1.32
8896.00,1.32
8895.00,1.31
8894.00,1.30
8893.00,1.30
8892.00,1.29
8891.00,1.29
8890.00,1.28
8889.00,1.28
8888.00,1.28
8887.00,1.28
8886.00,1.28
8885.00,1.28
8884.00,1.27
8883.00,1.27
8882.00,1.27
8881.00,1.27
8880.00,1.27
8879.00,1.28
8878.00,1.28
8877.00,1.28
8876.00,1.28
8875.00,1.29
8874.00,1.29
8873.00,1.30
8872.00,1.30
8871.00,1.31
8870.00,1.31
8869.00,1.32
8868.00,1.32
8867.00,1.32
8866.00,1.33
8865.00,1.33
8864.00,1.33
8863.00,1.34
8862.00,1.34
8861.00,1.34
8860.00,1.34
8859.00,1.34
8858.00,1.34
8857.00,1.35
8856.00,1.35
8855.00,1.35
8854.00,1.35
8853.00,1.35
8852.00,1.35
8851.00,1.35
8850.00,1.35
8849.00,1.35
8848.00,1.35
8847.00,1.35
8846.00,1.35
8845.00,1.35
8844.00,1.35
8843.00,1.35
8842.00,1.35
8841.00,1.35
8840.00,1.35
8839.00,1.35
8838.00,1.35
8837.00,1.35
8836.00,1.34
8835.00,1.34
8834.00,1.34
8833.00,1.34
8832.00,1.34
8831.00,1.35
8830.00,1.35
8829.00,1.35
8828.00,1.35
8827.00,1.35
8826.00,1.36
8825.00,1.36
8824.00,1.37
8823.00,1.37
8822.00,1.38
8821.00,1.38
8820.00,1.39
8819.00,1.40
8818.00,1.40
8817.00,1.41
8816.00,1.42
8815.00,1.43
8814.00,1.43
8813.00,1.44
8812.00,1.45
8811.00,1.46
8810.00,1.47
8809.00,1.47
8808.00,1.48
8807.00,1.49
8806.00,1.50
8805.00,1.50
8804.00,1.51
8803.00,1.52
8802.00,1.52
8801.00,1.53
8800.00,1.53
8799.00,1.54
8798.00,1.54
8797.00,1.54
8796.00,1.54
8795.00,1.55
8794.00,1.55
8793.00,1.55
8792.00,1.55
8791.00,1.55
8790.00,1.55
8789.00,1.55
8788.00,1.55
8787.00,1.54
8786.00,1.54
8785.00,1.54
8784.00,1.53
8783.00,1.53
8782.00,1.52
8781.00,1.52
8780.00,1.51
8779.00,1.50
8778.00,1.50
8777.00,1.49
8776.00,1.48
8775.00,1.47
8774.00,1.46
8773.00,1.45
8772.00,1.44
8771.00,1.43
8770.00,1.42
8769.00,1.41
8768.00,1.40
8767.00,1.39
8766.00,1.38
8765.00,1.37
8764.00,1.36
8763.00,1.35
8762.00,1.34
8761.00,1.34
8760.00,1.33
8759.00,1.32
8758.00,1.32
8757.00,1.31
8756.00,1.31
8755.00,1.30
8754.00,1.30
8753.00,1.30
8752.00,1.30
8751.00,1.30
8750.00,1.30
8749.00,1.31
8748.00,1.31
8747.00,1.31
8746.00,1.32
8745.00,1.32
8744.00,1.33
8743.00,1.33
8742.00,1.34
8741.00,1.34
8740.00,1.35
8739.00,1.35
8738.00,1.36
8737.00,1.36
8736.00,1.37
8735.00,1.37
8734.00,1.37
8733.00,1.38
8732.00,1.38
8731.00,1.38
8730.00,1.39
8729.00,1.39
8728.00,1.39
8727.00,1.39
8726.00,1.39
8725.00,1.40
8724.00,1.40
8723.00,1.40
8722.00,1.40
8721.00,1.40
8720.00,1.40
8719.00,1.40
8718.00,1.40
8717.00,1.41
8716.00,1.41
8715.00,1.41
8714.00,1.41
8713.00,1.42
8712.00,1.42
8711.00,1.42
8710.00,1.43
8709.00,1.43
8708.00,1.43
8707.00,1.43
8706.00,1.44
8705.00,1.44
8704.00,1.44
8703.00,1.44
8702.00,1.44
8701.00,1.44
8700.00,1.45
8699.00,1.45
8698.00,1.45
8697.00,1.44
8696.00,1.44
8695.00,1.44
8694.00,1.44
8693.00,1.43
8692.00,1.43
8691.00,1.42
8690.00,1.42
8689.00,1.41
8688.00,1.41
8687.00,1.40
8686.00,1.39
8685.00,1.39
8684.00,1.38
8683.00,1.37
8682.00,1.36
8681.00,1.36
8680.00,1.35
8679.00,1.34
8678.00,1.33
8677.00,1.33
8676.00,1.32
8675.00,1.31
8674.00,1.31
8673.00,1.30
8672.00,1.29
8671.00,1.29
8670.00,1.28
8669.00,1.28
8668.00,1.28
8667.00,1.27
8666.00,1.27
8665.00,1.27
8664.00,1.27
8663.00,1.27
8662.00,1.27
8661.00,1.27
8660.00,1.27
8659.00,1.27
8658.00,1.27
8657.00,1.28
8656.00,1.28
8655.00,1.28
8654.00,1.29
8653.00,1.29
8652.00,1.30
8651.00,1.31
8650.00,1.31
8649.00,1.32
8648.00,1.33
8647.00,1.33
8646.00,1.34
8645.00,1.34
8644.00,1.35
8643.00,1.35
8642.00,1.36
8641.00,1.36
8640.00,1.37
8639.00,1.37
8638.00,1.38
8637.00,1.38
8636.00,1.39
8635.00,1.39
8634.00,1.40
8633.00,1.41
8632.00,1.41
8631.00,1.41
8630.00,1.42
8629.00,1.42
8628.00,1.43
8627.00,1.43
8626.00,1.43
8625.00,1.44
8624.00,1.44
8623.00,1.44
8622.00,1.44
8621.00,1.45
8620.00,1.45
8619.00,1.45
8618.00,1.46
8617.00,1.46
8616.00,1.47
8615.00,1.47
8614.00,1.47
8613.00,1.48
8612.00,1.48
8611.00,1.48
8610.00,1.48
8609.00,1.48
8608.00,1.48
8607.00,1.48
8606.00,1.48
8605.00,1.48
8604.00,1.48
8603.00,1.48
8602.00,1.48
8601.00,1.48
8600.00,1.48
8599.00,1.48
8598.00,1.47
8597.00,1.47
8596.00,1.47
8595.00,1.46
8594.00,1.46
8593.00,1.45
8592.00,1.45
8591.00,1.45
8590.00,1.44
8589.00,1.44
8588.00,1.43
8587.00,1.43
8586.00,1.42
8585.00,1.42
8584.00,1.41
8583.00,1.41
8582.00,1.40
8581.00,1.40
8580.00,1.40
8579.00,1.39
8578.00,1.39
8577.00,1.38
8576.00,1.38
8575.00,1.38
8574.00,1.37
8573.00,1.37
8572.00,1.37
8571.00,1.37
8570.00,1.37
8569.00,1.37
8568.00,1.37
8567.00,1.37
8566.00,1.37
8565.00,1.38
8564.00,1.38
8563.00,1.38
8562.00,1.38
8561.00,1.38
8560.00,1.38
8559.00,1.39
8558.00,1.39
8557.00,1.39
8556.00,1.40
8555.00,1.40
8554.00,1.40
8553.00,1.41
8552.00,1.41
8551.00,1.42
8550.00,1.42
8549.00,1.42
8548.00,1.42
8547.00,1.42
8546.00,1.42
8545.00,1.43
8544.00,1.42
8543.00,1.42
8542.00,1.42
8541.00,1.42
8540.00,1.42
8539.00,1.42
8538.00,1.42
8537.00,1.41
8536.00,1.41
8535.00,1.41
8534.00,1.41
8533.00,1.40
8532.00,1.40
8531.00,1.40
8530.00,1.39
8529.00,1.39
8528.00,1.38
8527.00,1.38
8526.00,1.38
8525.00,1.38
8524.00,1.37
8523.00,1.37
8522.00,1.37
8521.00,1.37
8520.00,1.37
8519.00,1.37
8518.00,1.37
8517.00,1.37
8516.00,1.37
8515.00,1.37
8514.00,1.37
8513.00,1.37
8512.00,1.37
8511.00,1.37
8510.00,1.37
8509.00,1.37
8508.00,1.37
8507.00,1.37
8506.00,1.37
8505.00,1.37
8504.00,1.37
8503.00,1.37
8502.00,1.37
8501.00,1.37
8500.00,1.36
8499.00,1.36
8498.00,1.36
8497.00,1.36
8496.00,1.35
8495.00,1.35
8494.00,1.34
8493.00,1.34
8492.00,1.34
8491.00,1.33
8490.00,1.33
8489.00,1.33
8488.00,1.33
8487.00,1.32
8486.00,1.32
8485.00,1.32
8484.00,1.32
8483.00,1.32
8482.00,1.31
8481.00,1.31
8480.00,1.31
8479.00,1.31
8478.00,1.32
8477.00,1.32
8476.00,1.32
8475.00,1.32
8474.00,1.33
8473.00,1.33
8472.00,1.34
8471.00,1.34
8470.00,1.35
8469.00,1.35
8468.00,1.36
8467.00,1.36
8466.00,1.37
8465.00,1.37
8464.00,1.38
8463.00,1.38
8462.00,1.39
8461.00,1.39
8460.00,1.40
8459.00,1.40
8458.00,1.41
8457.00,1.41
8456.00,1.41
8455.00,1.41
8454.00,1.41
8453.00,1.41
8452.00,1.41
8451.00,1.41
8450.00,1.41
8449.00,1.41
8448.00,1.41
8447.00,1.40
8446.00,1.40
8445.00,1.40
8444.00,1.40
8443.00,1.39
8442.00,1.39
8441.00,1.39
8440.00,1.38
8439.00,1.38
8438.00,1.38
8437.00,1.37
8436.00,1.37
8435.00,1.37
8434.00,1.36
8433.00,1.36
8432.00,1.36
8431.00,1.36
8430.00,1.36
8429.00,1.36
8428.00,1.35
8427.00,1.35
8426.00,1.36
8425.00,1.36
8424.00,1.36
8423.00,1.36
8422.00,1.36
8421.00,1.36
8420.00,1.36
8419.00,1.36
8418.00,1.36
8417.00,1.36
8416.00,1.36
8415.00,1.36
8414.00,1.36
8413.00,1.36
8412.00,1.36
8411.00,1.35
8410.00,1.35
8409.00,1.35
8408.00,1.35
8407.00,1.35
8406.00,1.35
8405.00,1.35
8404.00,1.35
8403.00,1.35
8402.00,1.35
8401.00,1.35
8400.00,1.35
8399.00,1.34
8398.00,1.34
8397.00,1.34
8396.00,1.34
8395.00,1.34
8394.00,1.34
8393.00,1.35
8392.00,1.35
8391.00,1.35
8390.00,1.35
8389.00,1.36
8388.00,1.36
8387.00,1.37
8386.00,1.38
8385.00,1.38
8384.00,1.39
8383.00,1.39
8382.00,1.40
8381.00,1.41
8380.00,1.41
8379.00,1.42
8378.00,1.42
8377.00,1.43
8376.00,1.43
8375.00,1.44
8374.00,1.44
8373.00,1.44
8372.00,1.45
8371.00,1.45
8370.00,1.45
8369.00,1.46
8368.00,1.46
8367.00,1.46
8366.00,1.46
8365.00,1.46
8364.00,1.46
8363.00,1.46
8362.00,1.46
8361.00,1.46
8360.00,1.45
8359.00,1.45
8358.00,1.45
8357.00,1.44
8356.00,1.44
8355.00,1.43
8354.00,1.43
8353.00,1.42
8352.00,1.42
8351.00,1.41
8350.00,1.41
8349.00,1.40
8348.00,1.40
8347.00,1.39
8346.00,1.39
8345.00,1.39
8344.00,1.39
8343.00,1.38
8342.00,1.38
8341.00,1.38
8340.00,1.38
8339.00,1.38
8338.00,1.38
8337.00,1.38
8336.00,1.37
8335.00,1.37
8334.00,1.37
8333.00,1.37
8332.00,1.37
8331.00,1.37
8330.00,1.37
8329.00,1.37
8328.00,1.37
8327.00,1.37
8326.00,1.37
8325.00,1.38
8324.00,1.38
8323.00,1.38
8322.00,1.38
8321.00,1.38
8320.00,1.38
8319.00,1.38
8318.00,1.38
8317.00,1.38
8316.00,1.38
8315.00,1.38
8314.00,1.38
8313.00,1.38
8312.00,1.38
8311.00,1.38
8310.00,1.38
8309.00,1.37
8308.00,1.37
8307.00,1.37
8306.00,1.37
8305.00,1.38
8304.00,1.38
8303.00,1.38
8302.00,1.38
8301.00,1.38
8300.00,1.38
8299.00,1.38
8298.00,1.38
8297.00,1.39
8296.00,1.39
8295.00,1.39
8294.00,1.39
8293.00,1.39
8292.00,1.39
8291.00,1.39
8290.00,1.39
8289.00,1.39
8288.00,1.39
8287.00,1.39
8286.00,1.39
8285.00,1.39
8284.00,1.40
8283.00,1.40
8282.00,1.40
8281.00,1.40
8280.00,1.40
8279.00,1.41
8278.00,1.41
8277.00,1.41
8276.00,1.41
8275.00,1.41
8274.00,1.42
8273.00,1.42
8272.00,1.42
8271.00,1.42
8270.00,1.43
8269.00,1.43
8268.00,1.43
8267.00,1.44
8266.00,1.44
8265.00,1.45
8264.00,1.45
8263.00,1.45
8262.00,1.46
8261.00,1.46
8260.00,1.46
8259.00,1.47
8258.00,1.47
8257.00,1.47
8256.00,1.47
8255.00,1.48
8254.00,1.48
8253.00,1.48
8252.00,1.48
8251.00,1.48
8250.00,1.48
8249.00,1.48
8248.00,1.48
8247.00,1.48
8246.00,1.48
8245.00,1.48
8244.00,1.48
8243.00,1.47
8242.00,1.47
8241.00,1.47
8240.00,1.46
8239.00,1.46
8238.00,1.46
8237.00,1.45
8236.00,1.45
8235.00,1.44
8234.00,1.44
8233.00,1.44
8232.00,1.43
8231.00,1.43
8230.00,1.43
8229.00,1.42
8228.00,1.42
8227.00,1.41
8226.00,1.41
8225.00,1.41
8224.00,1.40
8223.00,1.40
8222.00,1.39
8221.00,1.39
8220.00,1.38
8219.00,1.38
8218.00,1.38
8217.00,1.37
8216.00,1.37
8215.00,1.37
8214.00,1.37
8213.00,1.37
8212.00,1.37
8211.00,1.37
8210.00,1.37
8209.00,1.37
8208.00,1.37
8207.00,1.37
8206.00,1.37
8205.00,1.37
8204.00,1.38
8203.00,1.38
8202.00,1.39
8201.00,1.39
8200.00,1.40
8199.00,1.40
8198.00,1.41
8197.00,1.42
8196.00,1.43
8195.00,1.43
8194.00,1.44
8193.00,1.45
8192.00,1.46
8191.00,1.47
8190.00,1.48
8189.00,1.49
8188.00,1.50
8187.00,1.51
8186.00,1.51
8185.00,1.52
8184.00,1.53
8183.00,1.53
8182.00,1.54
8181.00,1.54
8180.00,1.55
8179.00,1.55
8178.00,1.55
8177.00,1.56
8176.00,1.56
8175.00,1.56
8174.00,1.55
8173.00,1.55
8172.00,1.55
8171.00,1.55
8170.00,1.54
8169.00,1.54
8168.00,1.53
8167.00,1.53
8166.00,1.52
8165.00,1.52
8164.00,1.51
8163.00,1.51
8162.00,1.50
8161.00,1.50
8160.00,1.49
8159.00,1.49
8158.00,1.49
8157.00,1.48
8156.00,1.48
8155.00,1.48
8154.00,1.48
8153.00,1.47
8152.00,1.47
8151.00,1.47
8150.00,1.47
8149.00,1.47
8148.00,1.47
8147.00,1.47
8146.00,1.47
8145.00,1.47
8144.00,1.47
8143.00,1.47
8142.00,1.48
8141.00,1.48
8140.00,1.48
8139.00,1.48
8138.00,1.48
8137.00,1.49
8136.00,1.49
8135.00,1.49
8134.00,1.49
8133.00,1.49
8132.00,1.48
8131.00,1.48
8130.00,1.48
8129.00,1.48
8128.00,1.48
8127.00,1.48
8126.00,1.48
8125.00,1.48
8124.00,1.47
8123.00,1.47
8122.00,1.47
8121.00,1.47
8120.00,1.47
8119.00,1.47
8118.00,1.46
8117.00,1.46
8116.00,1.46
8115.00,1.46
8114.00,1.45
8113.00,1.45
8112.00,1.45
8111.00,1.45
8110.00,1.44
8109.00,1.44
8108.00,1.44
8107.00,1.44
8106.00,1.43
8105.00,1.43
8104.00,1.43
8103.00,1.43
8102.00,1.43
8101.00,1.43
8100.00,1.43
8099.00,1.43
8098.00,1.43
8097.00,1.43
8096.00,1.43
8095.00,1.43
8094.00,1.43
8093.00,1.42
8092.00,1.42
8091.00,1.42
8090.00,1.42
8089.00,1.42
8088.00,1.42
8087.00,1.42
8086.00,1.42
8085.00,1.42
8084.00,1.42
8083.00,1.42
8082.00,1.42
8081.00,1.42
8080.00,1.42
8079.00,1.42
8078.00,1.42
8077.00,1.42
8076.00,1.42
8075.00,1.42
8074.00,1.42
8073.00,1.42
8072.00,1.42
8071.00,1.42
8070.00,1.42
8069.00,1.42
8068.00,1.42
8067.00,1.42
8066.00,1.43
8065.00,1.43
8064.00,1.43
8063.00,1.43
8062.00,1.43
8061.00,1.43
8060.00,1.43
8059.00,1.43
8058.00,1.44
8057.00,1.44
8056.00,1.44
8055.00,1.44
8054.00,1.44
8053.00,1.44
8052.00,1.44
8051.00,1.44
8050.00,1.44
8049.00,1.44
8048.00,1.44
8047.00,1.45
8046.00,1.45
8045.00,1.45
8044.00,1.45
8043.00,1.45
8042.00,1.46
8041.00,1.46
8040.00,1.46
8039.00,1.46
8038.00,1.46
8037.00,1.46
8036.00,1.46
8035.00,1.46
8034.00,1.46
8033.00,1.47
8032.00,1.47
8031.00,1.47
8030.00,1.47
8029.00,1.47
8028.00,1.48
8027.00,1.48
8026.00,1.48
8025.00,1.48
8024.00,1.48
8023.00,1.48
8022.00,1.48
8021.00,1.48
8020.00,1.48
8019.00,1.48
8018.00,1.48
8017.00,1.48
8016.00,1.48
8015.00,1.48
8014.00,1.47
8013.00,1.47
8012.00,1.47
8011.00,1.47
8010.00,1.47
8009.00,1.47
8008.00,1.47
8007.00,1.46
8006.00,1.46
8005.00,1.46
8004.00,1.46
8003.00,1.46
8002.00,1.45
8001.00,1.45
8000.00,1.45
7999.00,1.45
7998.00,1.44
7997.00,1.44
7996.00,1.44
7995.00,1.44
7994.00,1.44
7993.00,1.44
7992.00,1.44
7991.00,1.44
7990.00,1.44
7989.00,1.44
7988.00,1.44
7987.00,1.44
7986.00,1.44
7985.00,1.44
7984.00,1.44
7983.00,1.45
7982.00,1.45
7981.00,1.45
7980.00,1.45
7979.00,1.45
7978.00,1.45
7977.00,1.46
7976.00,1.46
7975.00,1.46
7974.00,1.46
7973.00,1.46
7972.00,1.46
7971.00,1.46
7970.00,1.46
7969.00,1.46
7968.00,1.46
7967.00,1.46
7966.00,1.46
7965.00,1.46
7964.00,1.46
7963.00,1.46
7962.00,1.46
7961.00,1.46
7960.00,1.46
7959.00,1.45
7958.00,1.45
7957.00,1.45
7956.00,1.45
7955.00,1.45
7954.00,1.45
7953.00,1.45
7952.00,1.45
7951.00,1.45
7950.00,1.45
7949.00,1.45
7948.00,1.45
7947.00,1.45
7946.00,1.45
7945.00,1.45
7944.00,1.45
7943.00,1.46
7942.00,1.46
7941.00,1.46
7940.00,1.46
7939.00,1.46
7938.00,1.47
7937.00,1.47
7936.00,1.47
7935.00,1.47
7934.00,1.47
7933.00,1.47
7932.00,1.47
7931.00,1.47
7930.00,1.47
7929.00,1.47
7928.00,1.47
7927.00,1.47
7926.00,1.47
7925.00,1.47
7924.00,1.47
7923.00,1.47
7922.00,1.47
7921.00,1.47
7920.00,1.47
7919.00,1.47
7918.00,1.47
7917.00,1.47
7916.00,1.47
7915.00,1.47
7914.00,1.47
7913.00,1.47
7912.00,1.47
7911.00,1.47
7910.00,1.47
7909.00,1.47
7908.00,1.47
7907.00,1.47
7906.00,1.47
7905.00,1.47
7904.00,1.47
7903.00,1.47
7902.00,1.47
7901.00,1.47
7900.00,1.47
7899.00,1.47
7898.00,1.47
7897.00,1.47
7896.00,1.47
7895.00,1.47
7894.00,1.47
7893.00,1.47
7892.00,1.47
7891.00,1.47
7890.00,1.47
7889.00,1.47
7888.00,1.47
7887.00,1.47
7886.00,1.47
7885.00,1.47
7884.00,1.47
7883.00,1.47
7882.00,1.47
7881.00,1.47
7880.00,1.48
7879.00,1.48
7878.00,1.48
7877.00,1.48
7876.00,1.48
7875.00,1.48
7874.00,1.49
7873.00,1.49
7872.00,1.49
7871.00,1.49
7870.00,1.50
7869.00,1.50
7868.00,1.50
7867.00,1.51
7866.00,1.51
7865.00,1.51
7864.00,1.51
7863.00,1.51
7862.00,1.52
7861.00,1.52
7860.00,1.52
7859.00,1.52
7858.00,1.52
7857.00,1.52
7856.00,1.52
7855.00,1.52
7854.00,1.51
7853.00,1.51
7852.00,1.51
7851.00,1.51
7850.00,1.51
7849.00,1.50
7848.00,1.50
7847.00,1.50
7846.00,1.49
7845.00,1.49
7844.00,1.48
7843.00,1.48
7842.00,1.48
7841.00,1.47
7840.00,1.47
7839.00,1.46
7838.00,1.46
7837.00,1.45
7836.00,1.45
7835.00,1.45
7834.00,1.45
7833.00,1.45
7832.00,1.45
7831.00,1.44
7830.00,1.44
7829.00,1.44
7828.00,1.44
7827.00,1.45
7826.00,1.45
7825.00,1.45
7824.00,1.45
7823.00,1.45
7822.00,1.45
7821.00,1.46
7820.00,1.46
7819.00,1.46
7818.00,1.47
7817.00,1.47
7816.00,1.47
7815.00,1.48
7814.00,1.48
7813.00,1.49
7812.00,1.49
7811.00,1.49
7810.00,1.49
7809.00,1.50
7808.00,1.50
7807.00,1.50
7806.00,1.50
7805.00,1.50
7804.00,1.50
7803.00,1.50
7802.00,1.50
7801.00,1.50
7800.00,1.49
7799.00,1.49
7798.00,1.49
7797.00,1.49
7796.00,1.48
7795.00,1.48
7794.00,1.48
7793.00,1.47
7792.00,1.47
7791.00,1.46
7790.00,1.46
7789.00,1.46
7788.00,1.45
7787.00,1.45
7786.00,1.45
7785.00,1.44
7784.00,1.44
7783.00,1.44
7782.00,1.44
7781.00,1.44
7780.00,1.43
7779.00,1.43
7778.00,1.43
7777.00,1.43
7776.00,1.43
7775.00,1.43
7774.00,1.43
7773.00,1.43
7772.00,1.43
7771.00,1.43
7770.00,1.43
7769.00,1.43
7768.00,1.43
7767.00,1.43
7766.00,1.43
7765.00,1.44
7764.00,1.44
7763.00,1.44
7762.00,1.44
7761.00,1.44
7760.00,1.44
7759.00,1.44
7758.00,1.44
7757.00,1.44
7756.00,1.43
7755.00,1.43
7754.00,1.43
7753.00,1.43
7752.00,1.43
7751.00,1.43
7750.00,1.43
7749.00,1.43
7748.00,1.43
7747.00,1.43
7746.00,1.43
7745.00,1.43
7744.00,1.43
7743.00,1.43
7742.00,1.43
7741.00,1.43
7740.00,1.43
7739.00,1.43
7738.00,1.43
7737.00,1.43
7736.00,1.43
7735.00,1.43
7734.00,1.43
7733.00,1.44
7732.00,1.44
7731.00,1.44
7730.00,1.44
7729.00,1.44
7728.00,1.45
7727.00,1.45
7726.00,1.45
7725.00,1.45
7724.00,1.45
7723.00,1.45
7722.00,1.45
7721.00,1.45
7720.00,1.45
7719.00,1.46
7718.00,1.46
7717.00,1.46
7716.00,1.46
7715.00,1.46
7714.00,1.46
7713.00,1.46
7712.00,1.47
7711.00,1.47
7710.00,1.47
7709.00,1.47
7708.00,1.48
7707.00,1.48
7706.00,1.48
7705.00,1.48
7704.00,1.49
7703.00,1.49
7702.00,1.49
7701.00,1.49
7700.00,1.50
7699.00,1.50
7698.00,1.50
7697.00,1.50
7696.00,1.50
7695.00,1.51
7694.00,1.51
7693.00,1.51
7692.00,1.51
7691.00,1.51
7690.00,1.51
7689.00,1.51
7688.00,1.51
7687.00,1.51
7686.00,1.51
7685.00,1.51
7684.00,1.51
7683.00,1.51
7682.00,1.51
7681.00,1.51
7680.00,1.50
7679.00,1.50
7678.00,1.50
7677.00,1.50
7676.00,1.50
7675.00,1.50
7674.00,1.50
7673.00,1.49
7672.00,1.49
7671.00,1.49
7670.00,1.49
7669.00,1.49
7668.00,1.49
7667.00,1.49
7666.00,1.49
7665.00,1.49
7664.00,1.49
7663.00,1.49
7662.00,1.49
7661.00,1.50
7660.00,1.50
7659.00,1.50
7658.00,1.50
7657.00,1.50
7656.00,1.50
7655.00,1.50
7654.00,1.49
7653.00,1.49
7652.00,1.49
7651.00,1.49
7650.00,1.49
7649.00,1.49
7648.00,1.49
7647.00,1.48
7646.00,1.48
7645.00,1.48
7644.00,1.48
7643.00,1.48
7642.00,1.48
7641.00,1.48
7640.00,1.48
7639.00,1.48
7638.00,1.48
7637.00,1.48
7636.00,1.47
7635.00,1.47
7634.00,1.47
7633.00,1.47
7632.00,1.47
7631.00,1.47
7630.00,1.47
7629.00,1.47
7628.00,1.47
7627.00,1.48
7626.00,1.48
7625.00,1.48
7624.00,1.48
7623.00,1.48
7622.00,1.48
7621.00,1.48
7620.00,1.49
7619.00,1.49
7618.00,1.49
7617.00,1.49
7616.00,1.49
7615.00,1.49
7614.00,1.49
7613.00,1.49
7612.00,1.49
7611.00,1.49
7610.00,1.49
7609.00,1.49
7608.00,1.49
7607.00,1.49
7606.00,1.49
7605.00,1.49
7604.00,1.49
7603.00,1.49
7602.00,1.48
7601.00,1.48
7600.00,1.48
7599.00,1.48
7598.00,1.48
7597.00,1.48
7596.00,1.48
7595.00,1.47
7594.00,1.47
7593.00,1.47
7592.00,1.47
7591.00,1.47
7590.00,1.47
7589.00,1.47
7588.00,1.47
7587.00,1.47
7586.00,1.46
7585.00,1.46
7584.00,1.46
7583.00,1.46
7582.00,1.46
7581.00,1.46
7580.00,1.46
7579.00,1.46
7578.00,1.46
7577.00,1.46
7576.00,1.46
7575.00,1.46
7574.00,1.46
7573.00,1.46
7572.00,1.46
7571.00,1.47
7570.00,1.47
7569.00,1.47
7568.00,1.47
7567.00,1.47
7566.00,1.47
7565.00,1.48
7564.00,1.48
7563.00,1.48
7562.00,1.48
7561.00,1.48
7560.00,1.48
7559.00,1.48
7558.00,1.48
7557.00,1.48
7556.00,1.48
7555.00,1.48
7554.00,1.48
7553.00,1.48
7552.00,1.48
7551.00,1.47
7550.00,1.47
7549.00,1.47
7548.00,1.47
7547.00,1.47
7546.00,1.46
7545.00,1.46
7544.00,1.46
7543.00,1.46
7542.00,1.45
7541.00,1.45
7540.00,1.45
7539.00,1.45
7538.00,1.44
7537.00,1.44
7536.00,1.44
7535.00,1.44
7534.00,1.43
7533.00,1.43
7532.00,1.43
7531.00,1.42
7530.00,1.42
7529.00,1.42
7528.00,1.42
7527.00,1.42
7526.00,1.42
7525.00,1.41
7524.00,1.41
7523.00,1.41
7522.00,1.41
7521.00,1.41
7520.00,1.41
7519.00,1.41
7518.00,1.42
7517.00,1.42
7516.00,1.42
7515.00,1.42
7514.00,1.42
7513.00,1.42
7512.00,1.42
7511.00,1.42
7510.00,1.42
7509.00,1.42
7508.00,1.42
7507.00,1.43
7506.00,1.43
7505.00,1.43
7504.00,1.43
7503.00,1.43
7502.00,1.44
7501.00,1.44
7500.00,1.44
7499.00,1.44
7498.00,1.44
7497.00,1.44
7496.00,1.44
7495.00,1.44
7494.00,1.44
7493.00,1.44
7492.00,1.44
7491.00,1.44
7490.00,1.44
7489.00,1.44
7488.00,1.44
7487.00,1.44
7486.00,1.44
7485.00,1.44
7484.00,1.44
7483.00,1.44
7482.00,1.44
7481.00,1.44
7480.00,1.45
7479.00,1.45
7478.00,1.45
7477.00,1.45
7476.00,1.45
7475.00,1.45
7474.00,1.45
7473.00,1.45
7472.00,1.46
7471.00,1.46
7470.00,1.46
7469.00,1.46
7468.00,1.46
7467.00,1.46
7466.00,1.47
7465.00,1.47
7464.00,1.47
7463.00,1.47
7462.00,1.47
7461.00,1.47
7460.00,1.47
7459.00,1.47
7458.00,1.48
7457.00,1.48
7456.00,1.48
7455.00,1.48
7454.00,1.48
7453.00,1.48
7452.00,1.48
7451.00,1.48
7450.00,1.48
7449.00,1.48
7448.00,1.48
7447.00,1.48
7446.00,1.48
7445.00,1.48
7444.00,1.48
7443.00,1.48
7442.00,1.48
7441.00,1.48
7440.00,1.48
7439.00,1.48
7438.00,1.48
7437.00,1.48
7436.00,1.49
7435.00,1.49
7434.00,1.49
7433.00,1.49
7432.00,1.49
7431.00,1.50
7430.00,1.50
7429.00,1.50
7428.00,1.50
7427.00,1.50
7426.00,1.50
7425.00,1.50
7424.00,1.51
7423.00,1.51
7422.00,1.51
7421.00,1.51
7420.00,1.51
7419.00,1.51
7418.00,1.51
7417.00,1.51
7416.00,1.51
7415.00,1.51
7414.00,1.51
7413.00,1.51
7412.00,1.51
7411.00,1.50
7410.00,1.50
7409.00,1.50
7408.00,1.50
7407.00,1.50
7406.00,1.50
7405.00,1.50
7404.00,1.50
7403.00,1.50
7402.00,1.49
7401.00,1.49
7400.00,1.49
7399.00,1.49
7398.00,1.49
7397.00,1.49
7396.00,1.49
7395.00,1.49
7394.00,1.49
7393.00,1.49
7392.00,1.50
7391.00,1.50
7390.00,1.50
7389.00,1.50
7388.00,1.50
7387.00,1.50
7386.00,1.50
7385.00,1.50
7384.00,1.50
7383.00,1.50
7382.00,1.50
7381.00,1.50
7380.00,1.50
7379.00,1.50
7378.00,1.50
7377.00,1.50
7376.00,1.50
7375.00,1.50
7374.00,1.50
7373.00,1.50
7372.00,1.50
7371.00,1.50
7370.00,1.50
7369.00,1.50
7368.00,1.50
7367.00,1.50
7366.00,1.49
7365.00,1.49
7364.00,1.49
7363.00,1.49
7362.00,1.49
7361.00,1.49
7360.00,1.49
7359.00,1.49
7358.00,1.49
7357.00,1.49
7356.00,1.49
7355.00,1.49
7354.00,1.49
7353.00,1.49
7352.00,1.49
7351.00,1.49
7350.00,1.49
7349.00,1.49
7348.00,1.49
7347.00,1.49
7346.00,1.49
7345.00,1.49
7344.00,1.49
7343.00,1.49
7342.00,1.49
7341.00,1.49
7340.00,1.49
7339.00,1.49
7338.00,1.49
7337.00,1.49
7336.00,1.49
7335.00,1.49
7334.00,1.49
7333.00,1.49
7332.00,1.49
7331.00,1.49
7330.00,1.49
7329.00,1.49
7328.00,1.49
7327.00,1.49
7326.00,1.49
7325.00,1.49
7324.00,1.49
7323.00,1.49
7322.00,1.49
7321.00,1.49
7320.00,1.49
7319.00,1.49
7318.00,1.48
7317.00,1.48
7316.00,1.48
7315.00,1.48
7314.00,1.48
7313.00,1.47
7312.00,1.47
7311.00,1.47
7310.00,1.47
7309.00,1.46
7308.00,1.46
7307.00,1.46
7306.00,1.46
7305.00,1.46
7304.00,1.46
7303.00,1.46
7302.00,1.46
7301.00,1.46
7300.00,1.46
7299.00,1.46
7298.00,1.46
7297.00,1.46
7296.00,1.46
7295.00,1.46
7294.00,1.46
7293.00,1.46
7292.00,1.46
7291.00,1.46
7290.00,1.46
7289.00,1.47
7288.00,1.47
7287.00,1.47
7286.00,1.47
7285.00,1.48
7284.00,1.48
7283.00,1.48
7282.00,1.48
7281.00,1.49
7280.00,1.49
7279.00,1.49
7278.00,1.49
7277.00,1.50
7276.00,1.50
7275.00,1.50
7274.00,1.50
7273.00,1.50
7272.00,1.51
7271.00,1.51
7270.00,1.51
7269.00,1.51
7268.00,1.51
7267.00,1.51
7266.00,1.51
7265.00,1.52
7264.00,1.52
7263.00,1.52
7262.00,1.52
7261.00,1.52
7260.00,1.52
7259.00,1.52
7258.00,1.51
7257.00,1.51
7256.00,1.51
7255.00,1.51
7254.00,1.51
7253.00,1.51
7252.00,1.50
7251.00,1.50
7250.00,1.50
7249.00,1.50
7248.00,1.49
7247.00,1.49
7246.00,1.49
7245.00,1.48
7244.00,1.48
7243.00,1.48
7242.00,1.47
7241.00,1.47
7240.00,1.47
7239.00,1.47
7238.00,1.46
7237.00,1.46
7236.00,1.46
7235.00,1.46
7234.00,1.46
7233.00,1.46
7232.00,1.46
7231.00,1.46
7230.00,1.46
7229.00,1.46
7228.00,1.46
7227.00,1.46
7226.00,1.47
7225.00,1.47
7224.00,1.47
7223.00,1.47
7222.00,1.48
7221.00,1.48
7220.00,1.48
7219.00,1.49
7218.00,1.49
7217.00,1.49
7216.00,1.49
7215.00,1.50
7214.00,1.50
7213.00,1.50
7212.00,1.50
7211.00,1.50
7210.00,1.50
7209.00,1.50
7208.00,1.50
7207.00,1.50
7206.00,1.50
7205.00,1.49
7204.00,1.49
7203.00,1.49
7202.00,1.49
7201.00,1.49
7200.00,1.49
7199.00,1.48
7198.00,1.48
7197.00,1.48
7196.00,1.48
7195.00,1.47
7194.00,1.47
7193.00,1.47
7192.00,1.47
7191.00,1.46
7190.00,1.46
7189.00,1.45
7188.00,1.45
7187.00,1.45
7186.00,1.45
7185.00,1.44
7184.00,1.44
7183.00,1.44
7182.00,1.44
7181.00,1.44
7180.00,1.44
7179.00,1.43
7178.00,1.43
7177.00,1.43
7176.00,1.43
7175.00,1.43
7174.00,1.43
7173.00,1.42
7172.00,1.42
7171.00,1.42
7170.00,1.42
7169.00,1.41
7168.00,1.41
7167.00,1.41
7166.00,1.41
7165.00,1.41
7164.00,1.40
7163.00,1.40
7162.00,1.40
7161.00,1.40
7160.00,1.40
7159.00,1.40
7158.00,1.40
7157.00,1.39
7156.00,1.39
7155.00,1.39
7154.00,1.39
7153.00,1.38
7152.00,1.38
7151.00,1.38
7150.00,1.38
7149.00,1.37
7148.00,1.37
7147.00,1.37
7146.00,1.37
7145.00,1.37
7144.00,1.37
7143.00,1.37
7142.00,1.37
7141.00,1.37
7140.00,1.37
7139.00,1.37
7138.00,1.37
7137.00,1.37
7136.00,1.37
7135.00,1.37
7134.00,1.38
7133.00,1.38
7132.00,1.38
7131.00,1.38
7130.00,1.38
7129.00,1.38
7128.00,1.39
7127.00,1.39
7126.00,1.39
7125.00,1.39
7124.00,1.39
7123.00,1.40
7122.00,1.40
7121.00,1.40
7120.00,1.40
7119.00,1.40
7118.00,1.40
7117.00,1.40
7116.00,1.40
7115.00,1.40
7114.00,1.40
7113.00,1.40
7112.00,1.40
7111.00,1.40
7110.00,1.40
7109.00,1.40
7108.00,1.40
7107.00,1.40
7106.00,1.40
7105.00,1.40
7104.00,1.40
7103.00,1.40
7102.00,1.39
7101.00,1.39
7100.00,1.39
7099.00,1.39
7098.00,1.39
7097.00,1.39
7096.00,1.38
7095.00,1.38
7094.00,1.38
7093.00,1.38
7092.00,1.38
7091.00,1.38
7090.00,1.38
7089.00,1.38
7088.00,1.38
7087.00,1.38
7086.00,1.37
7085.00,1.37
7084.00,1.37
7083.00,1.37
7082.00,1.37
7081.00,1.37
7080.00,1.37
7079.00,1.37
7078.00,1.37
7077.00,1.37
7076.00,1.37
7075.00,1.37
7074.00,1.37
7073.00,1.37
7072.00,1.37
7071.00,1.37
7070.00,1.37
7069.00,1.37
7068.00,1.37
7067.00,1.38
7066.00,1.38
7065.00,1.38
7064.00,1.38
7063.00,1.38
7062.00,1.38
7061.00,1.38
7060.00,1.38
7059.00,1.38
7058.00,1.38
7057.00,1.38
7056.00,1.38
7055.00,1.38
7054.00,1.38
7053.00,1.38
7052.00,1.38
7051.00,1.38
7050.00,1.38
7049.00,1.38
7048.00,1.38
7047.00,1.38
7046.00,1.37
7045.00,1.37
7044.00,1.37
7043.00,1.37
7042.00,1.37
7041.00,1.36
7040.00,1.36
7039.00,1.36
7038.00,1.35
7037.00,1.35
7036.00,1.35
7035.00,1.35
7034.00,1.34
7033.00,1.34
7032.00,1.34
7031.00,1.34
7030.00,1.33
7029.00,1.33
7028.00,1.33
7027.00,1.33
7026.00,1.33
7025.00,1.33
7024.00,1.33
7023.00,1.33
7022.00,1.32
7021.00,1.32
7020.00,1.32
7019.00,1.32
7018.00,1.32
7017.00,1.32
7016.00,1.32
7015.00,1.32
7014.00,1.32
7013.00,1.32
7012.00,1.32
7011.00,1.32
7010.00,1.32
7009.00,1.32
7008.00,1.32
7007.00,1.32
7006.00,1.32
7005.00,1.32
7004.00,1.32
7003.00,1.32
7002.00,1.32
7001.00,1.32
7000.00,1.33
6999.00,1.33
6998.00,1.33
6997.00,1.33
6996.00,1.33
6995.00,1.33
6994.00,1.33
6993.00,1.33
6992.00,1.33
6991.00,1.34
6990.00,1.34
6989.00,1.34
6988.00,1.34
6987.00,1.34
6986.00,1.34
6985.00,1.34
6984.00,1.34
6983.00,1.34
6982.00,1.34
6981.00,1.34
6980.00,1.34
6979.00,1.34
6978.00,1.34
6977.00,1.33
6976.00,1.33
6975.00,1.33
6974.00,1.33
6973.00,1.33
6972.00,1.32
6971.00,1.32
6970.00,1.32
6969.00,1.32
6968.00,1.31
6967.00,1.31
6966.00,1.31
6965.00,1.31
6964.00,1.31
6963.00,1.30
6962.00,1.30
6961.00,1.30
6960.00,1.30
6959.00,1.30
6958.00,1.29
6957.00,1.29
6956.00,1.29
6955.00,1.29
6954.00,1.29
6953.00,1.29
6952.00,1.29
6951.00,1.29
6950.00,1.29
6949.00,1.29
6948.00,1.29
6947.00,1.29
6946.00,1.29
6945.00,1.29
6944.00,1.29
6943.00,1.29
6942.00,1.29
6941.00,1.29
6940.00,1.29
6939.00,1.29
6938.00,1.30
6937.00,1.30
6936.00,1.30
6935.00,1.30
6934.00,1.30
6933.00,1.30
6932.00,1.30
6931.00,1.30
6930.00,1.30
6929.00,1.30
6928.00,1.30
6927.00,1.30
6926.00,1.30
6925.00,1.30
6924.00,1.30
6923.00,1.30
6922.00,1.30
6921.00,1.30
6920.00,1.30
6919.00,1.30
6918.00,1.30
6917.00,1.30
6916.00,1.30
6915.00,1.31
6914.00,1.31
6913.00,1.31
6912.00,1.31
6911.00,1.31
6910.00,1.31
6909.00,1.31
6908.00,1.31
6907.00,1.32
6906.00,1.32
6905.00,1.32
6904.00,1.32
6903.00,1.32
6902.00,1.32
6901.00,1.32
6900.00,1.32
6899.00,1.32
6898.00,1.32
6897.00,1.32
6896.00,1.32
6895.00,1.32
6894.00,1.32
6893.00,1.32
6892.00,1.32
6891.00,1.32
6890.00,1.32
6889.00,1.32
6888.00,1.31
6887.00,1.31
6886.00,1.31
6885.00,1.31
6884.00,1.30
6883.00,1.30
6882.00,1.30
6881.00,1.29
6880.00,1.29
6879.00,1.29
6878.00,1.28
6877.00,1.28
6876.00,1.28
6875.00,1.28
6874.00,1.27
6873.00,1.27
6872.00,1.27
6871.00,1.27
6870.00,1.27
6869.00,1.27
6868.00,1.27
6867.00,1.27
6866.00,1.27
6865.00,1.28
6864.00,1.28
6863.00,1.28
6862.00,1.28
6861.00,1.28
6860.00,1.29
6859.00,1.29
6858.00,1.29
6857.00,1.30
6856.00,1.30
6855.00,1.31
6854.00,1.31
6853.00,1.32
6852.00,1.32
6851.00,1.32
6850.00,1.33
6849.00,1.33
6848.00,1.34
6847.00,1.34
6846.00,1.34
6845.00,1.34
6844.00,1.34
6843.00,1.34
6842.00,1.34
6841.00,1.34
6840.00,1.34
6839.00,1.34
6838.00,1.34
6837.00,1.34
6836.00,1.34
6835.00,1.34
6834.00,1.33
6833.00,1.33
6832.00,1.33
6831.00,1.33
6830.00,1.32
6829.00,1.32
6828.00,1.32
6827.00,1.31
6826.00,1.31
6825.00,1.30
6824.00,1.30
6823.00,1.30
6822.00,1.29
6821.00,1.29
6820.00,1.29
6819.00,1.29
6818.00,1.29
6817.00,1.29
6816.00,1.29
6815.00,1.29
6814.00,1.29
6813.00,1.29
6812.00,1.29
6811.00,1.29
6810.00,1.29
6809.00,1.29
6808.00,1.29
6807.00,1.29
6806.00,1.30
6805.00,1.30
6804.00,1.30
6803.00,1.30
6802.00,1.30
6801.00,1.31
6800.00,1.31
6799.00,1.31
6798.00,1.32
6797.00,1.32
6796.00,1.32
6795.00,1.32
6794.00,1.33
6793.00,1.33
6792.00,1.33
6791.00,1.33
6790.00,1.34
6789.00,1.34
6788.00,1.34
6787.00,1.34
6786.00,1.34
6785.00,1.34
6784.00,1.34
6783.00,1.34
6782.00,1.34
6781.00,1.34
6780.00,1.34
6779.00,1.34
6778.00,1.34
6777.00,1.33
6776.00,1.33
6775.00,1.33
6774.00,1.33
6773.00,1.33
6772.00,1.33
6771.00,1.33
6770.00,1.32
6769.00,1.32
6768.00,1.32
6767.00,1.32
6766.00,1.32
6765.00,1.32
6764.00,1.32
6763.00,1.32
6762.00,1.32
6761.00,1.32
6760.00,1.32
6759.00,1.32
6758.00,1.32
6757.00,1.32
6756.00,1.32
6755.00,1.32
6754.00,1.33
6753.00,1.33
6752.00,1.33
6751.00,1.33
6750.00,1.34
6749.00,1.34
6748.00,1.34
6747.00,1.34
6746.00,1.35
6745.00,1.35
6744.00,1.35
6743.00,1.35
6742.00,1.35
6741.00,1.36
6740.00,1.36
6739.00,1.36
6738.00,1.36
6737.00,1.36
6736.00,1.36
6735.00,1.36
6734.00,1.36
6733.00,1.36
6732.00,1.36
6731.00,1.37
6730.00,1.37
6729.00,1.37
6728.00,1.37
6727.00,1.37
6726.00,1.37
6725.00,1.37
6724.00,1.36
6723.00,1.36
6722.00,1.36
6721.00,1.36
6720.00,1.36
6719.00,1.36
6718.00,1.36
6717.00,1.36
6716.00,1.36
6715.00,1.36
6714.00,1.37
6713.00,1.37
6712.00,1.37
6711.00,1.37
6710.00,1.37
6709.00,1.37
6708.00,1.37
6707.00,1.37
6706.00,1.37
6705.00,1.37
6704.00,1.37
6703.00,1.37
6702.00,1.37
6701.00,1.37
6700.00,1.37
6699.00,1.37
6698.00,1.38
6697.00,1.38
6696.00,1.38
6695.00,1.38
6694.00,1.38
6693.00,1.38
6692.00,1.38
6691.00,1.39
6690.00,1.39
6689.00,1.39
6688.00,1.39
6687.00,1.39
6686.00,1.39
6685.00,1.40
6684.00,1.40
6683.00,1.40
6682.00,1.40
6681.00,1.40
6680.00,1.40
6679.00,1.41
6678.00,1.41
6677.00,1.41
6676.00,1.41
6675.00,1.41
6674.00,1.41
6673.00,1.41
6672.00,1.41
6671.00,1.41
6670.00,1.41
6669.00,1.41
6668.00,1.41
6667.00,1.41
6666.00,1.41
6665.00,1.41
6664.00,1.41
6663.00,1.41
6662.00,1.41
6661.00,1.40
6660.00,1.40
6659.00,1.40
6658.00,1.40
6657.00,1.40
6656.00,1.40
6655.00,1.40
6654.00,1.40
6653.00,1.40
6652.00,1.40
6651.00,1.40
6650.00,1.40
6649.00,1.40
6648.00,1.40
6647.00,1.40
6646.00,1.40
6645.00,1.40
6644.00,1.40
6643.00,1.40
6642.00,1.41
6641.00,1.41
6640.00,1.41
6639.00,1.41
6638.00,1.41
6637.00,1.41
6636.00,1.41
6635.00,1.41
6634.00,1.41
6633.00,1.41
6632.00,1.41
6631.00,1.41
6630.00,1.41
6629.00,1.41
6628.00,1.41
6627.00,1.41
6626.00,1.40
6625.00,1.40
6624.00,1.40
6623.00,1.40
6622.00,1.40
6621.00,1.40
6620.00,1.40
6619.00,1.40
6618.00,1.40
6617.00,1.40
6616.00,1.40
6615.00,1.40
6614.00,1.40
6613.00,1.40
6612.00,1.40
6611.00,1.40
6610.00,1.40
6609.00,1.40
6608.00,1.40
6607.00,1.40
6606.00,1.40
6605.00,1.40
6604.00,1.40
6603.00,1.40
6602.00,1.40
6601.00,1.40
6600.00,1.40
6599.00,1.40
6598.00,1.40
6597.00,1.40
6596.00,1.40
6595.00,1.41
6594.00,1.41
6593.00,1.41
6592.00,1.41
6591.00,1.41
6590.00,1.41
6589.00,1.41
6588.00,1.41
6587.00,1.41
6586.00,1.41
6585.00,1.42
6584.00,1.42
6583.00,1.42
6582.00,1.42
6581.00,1.42
6580.00,1.42
6579.00,1.42
6578.00,1.43
6577.00,1.43
6576.00,1.43
6575.00,1.43
6574.00,1.43
6573.00,1.43
6572.00,1.43
6571.00,1.43
6570.00,1.43
6569.00,1.43
6568.00,1.43
6567.00,1.43
6566.00,1.43
6565.00,1.43
6564.00,1.43
6563.00,1.43
6562.00,1.43
6561.00,1.43
6560.00,1.43
6559.00,1.43
6558.00,1.43
6557.00,1.43
6556.00,1.43
6555.00,1.43
6554.00,1.43
6553.00,1.43
6552.00,1.43
6551.00,1.43
6550.00,1.43
6549.00,1.43
6548.00,1.43
6547.00,1.43
6546.00,1.43
6545.00,1.43
6544.00,1.43
6543.00,1.44
6542.00,1.44
6541.00,1.44
6540.00,1.44
6539.00,1.44
6538.00,1.44
6537.00,1.44
6536.00,1.44
6535.00,1.45
6534.00,1.45
6533.00,1.45
6532.00,1.45
6531.00,1.45
6530.00,1.45
6529.00,1.45
6528.00,1.45
6527.00,1.45
6526.00,1.45
6525.00,1.45
6524.00,1.45
6523.00,1.46
6522.00,1.46
6521.00,1.46
6520.00,1.46
6519.00,1.46
6518.00,1.46
6517.00,1.46
6516.00,1.46
6515.00,1.46
6514.00,1.46
6513.00,1.46
6512.00,1.46
6511.00,1.47
6510.00,1.47
6509.00,1.47
6508.00,1.47
6507.00,1.47
6506.00,1.47
6505.00,1.47
6504.00,1.47
6503.00,1.47
6502.00,1.47
6501.00,1.47
6500.00,1.47
6499.00,1.47
6498.00,1.47
6497.00,1.47
6496.00,1.47
6495.00,1.47
6494.00,1.47
6493.00,1.47
6492.00,1.47
6491.00,1.47
6490.00,1.46
6489.00,1.46
6488.00,1.46
6487.00,1.46
6486.00,1.46
6485.00,1.46
6484.00,1.45
6483.00,1.45
6482.00,1.45
6481.00,1.45
6480.00,1.44
6479.00,1.44
6478.00,1.44
6477.00,1.44
6476.00,1.44
6475.00,1.43
6474.00,1.43
6473.00,1.43
6472.00,1.43
6471.00,1.43
6470.00,1.43
6469.00,1.43
6468.00,1.43
6467.00,1.43
6466.00,1.43
6465.00,1.43
6464.00,1.43
6463.00,1.43
6462.00,1.43
6461.00,1.43
6460.00,1.43
6459.00,1.43
6458.00,1.44
6457.00,1.44
6456.00,1.44
6455.00,1.44
6454.00,1.45
6453.00,1.45
6452.00,1.45
6451.00,1.45
6450.00,1.46
6449.00,1.46
6448.00,1.46
6447.00,1.46
6446.00,1.47
6445.00,1.47
6444.00,1.47
6443.00,1.47
6442.00,1.47
6441.00,1.48
6440.00,1.48
6439.00,1.48
6438.00,1.49
6437.00,1.49
6436.00,1.49
6435.00,1.49
6434.00,1.50
6433.00,1.50
6432.00,1.50
6431.00,1.50
6430.00,1.50
6429.00,1.50
6428.00,1.50
6427.00,1.51
6426.00,1.51
6425.00,1.51
6424.00,1.51
6423.00,1.51
6422.00,1.51
6421.00,1.51
6420.00,1.51
6419.00,1.51
6418.00,1.50
6417.00,1.50
6416.00,1.50
6415.00,1.50
6414.00,1.50
6413.00,1.50
6412.00,1.50
6411.00,1.50
6410.00,1.50
6409.00,1.50
6408.00,1.50
6407.00,1.50
6406.00,1.50
6405.00,1.50
6404.00,1.50
6403.00,1.50
6402.00,1.50
6401.00,1.50
6400.00,1.50
6399.00,1.50
6398.00,1.50
6397.00,1.50
6396.00,1.50
6395.00,1.50
6394.00,1.50
6393.00,1.50
6392.00,1.50
6391.00,1.51
6390.00,1.51
6389.00,1.51
6388.00,1.51
6387.00,1.51
6386.00,1.51
6385.00,1.51
6384.00,1.51
6383.00,1.51
6382.00,1.52
6381.00,1.52
6380.00,1.52
6379.00,1.52
6378.00,1.52
6377.00,1.52
6376.00,1.52
6375.00,1.52
6374.00,1.52
6373.00,1.53
6372.00,1.53
6371.00,1.53
6370.00,1.53
6369.00,1.53
6368.00,1.53
6367.00,1.53
6366.00,1.53
6365.00,1.54
6364.00,1.54
6363.00,1.54
6362.00,1.54
6361.00,1.54
6360.00,1.54
6359.00,1.54
6358.00,1.54
6357.00,1.54
6356.00,1.54
6355.00,1.54
6354.00,1.54
6353.00,1.54
6352.00,1.54
6351.00,1.54
6350.00,1.54
6349.00,1.55
6348.00,1.55
6347.00,1.55
6346.00,1.55
6345.00,1.55
6344.00,1.55
6343.00,1.55
6342.00,1.54
6341.00,1.54
6340.00,1.54
6339.00,1.54
6338.00,1.54
6337.00,1.54
6336.00,1.54
6335.00,1.54
6334.00,1.54
6333.00,1.54
6332.00,1.54
6331.00,1.54
6330.00,1.54
6329.00,1.54
6328.00,1.54
6327.00,1.54
6326.00,1.54
6325.00,1.54
6324.00,1.54
6323.00,1.54
6322.00,1.54
6321.00,1.54
6320.00,1.54
6319.00,1.54
6318.00,1.54
6317.00,1.54
6316.00,1.54
6315.00,1.54
6314.00,1.54
6313.00,1.53
6312.00,1.53
6311.00,1.53
6310.00,1.53
6309.00,1.53
6308.00,1.53
6307.00,1.53
6306.00,1.53
6305.00,1.53
6304.00,1.53
6303.00,1.53
6302.00,1.53
6301.00,1.53
6300.00,1.53
6299.00,1.53
6298.00,1.53
6297.00,1.53
6296.00,1.52
6295.00,1.52
6294.00,1.52
6293.00,1.52
6292.00,1.52
6291.00,1.52
6290.00,1.52
6289.00,1.52
6288.00,1.52
6287.00,1.53
6286.00,1.53
6285.00,1.53
6284.00,1.53
6283.00,1.53
6282.00,1.53
6281.00,1.53
6280.00,1.53
6279.00,1.53
6278.00,1.53
6277.00,1.53
6276.00,1.53
6275.00,1.53
6274.00,1.53
6273.00,1.53
6272.00,1.54
6271.00,1.54
6270.00,1.54
6269.00,1.54
6268.00,1.54
6267.00,1.54
6266.00,1.55
6265.00,1.55
6264.00,1.55
6263.00,1.55
6262.00,1.55
6261.00,1.55
6260.00,1.55
6259.00,1.55
6258.00,1.55
6257.00,1.54
6256.00,1.54
6255.00,1.54
6254.00,1.54
6253.00,1.54
6252.00,1.54
6251.00,1.54
6250.00,1.54
6249.00,1.54
6248.00,1.54
6247.00,1.54
6246.00,1.54
6245.00,1.53
6244.00,1.53
6243.00,1.53
6242.00,1.53
6241.00,1.53
6240.00,1.53
6239.00,1.53
6238.00,1.53
6237.00,1.53
6236.00,1.53
6235.00,1.53
6234.00,1.53
6233.00,1.53
6232.00,1.53
6231.00,1.54
6230.00,1.54
6229.00,1.54
6228.00,1.54
6227.00,1.54
6226.00,1.54
6225.00,1.54
6224.00,1.55
6223.00,1.55
6222.00,1.55
6221.00,1.55
6220.00,1.55
6219.00,1.55
6218.00,1.55
6217.00,1.56
6216.00,1.56
6215.00,1.56
6214.00,1.56
6213.00,1.56
6212.00,1.56
6211.00,1.56
6210.00,1.56
6209.00,1.56
6208.00,1.55
6207.00,1.55
6206.00,1.55
6205.00,1.55
6204.00,1.55
6203.00,1.55
6202.00,1.55
6201.00,1.55
6200.00,1.55
6199.00,1.54
6198.00,1.54
6197.00,1.54
6196.00,1.54
6195.00,1.54
6194.00,1.54
6193.00,1.54
6192.00,1.54
6191.00,1.54
6190.00,1.54
6189.00,1.54
6188.00,1.54
6187.00,1.54
6186.00,1.54
6185.00,1.54
6184.00,1.54
6183.00,1.54
6182.00,1.54
6181.00,1.54
6180.00,1.54
6179.00,1.55
6178.00,1.55
6177.00,1.55
6176.00,1.55
6175.00,1.55
6174.00,1.55
6173.00,1.55
6172.00,1.55
6171.00,1.55
6170.00,1.55
6169.00,1.55
6168.00,1.56
6167.00,1.56
6166.00,1.56
6165.00,1.56
6164.00,1.56
6163.00,1.56
6162.00,1.56
6161.00,1.56
6160.00,1.56
6159.00,1.56
6158.00,1.56
6157.00,1.56
6156.00,1.57
6155.00,1.57
6154.00,1.57
6153.00,1.57
6152.00,1.57
6151.00,1.57
6150.00,1.57
6149.00,1.57
6148.00,1.57
6147.00,1.57
6146.00,1.57
6145.00,1.57
6144.00,1.57
6143.00,1.57
6142.00,1.57
6141.00,1.57
6140.00,1.57
6139.00,1.57
6138.00,1.57
6137.00,1.57
6136.00,1.57
6135.00,1.57
6134.00,1.57
6133.00,1.57
6132.00,1.57
6131.00,1.57
6130.00,1.57
6129.00,1.57
6128.00,1.58
6127.00,1.58
6126.00,1.58
6125.00,1.58
6124.00,1.58
6123.00,1.58
6122.00,1.58
6121.00,1.58
6120.00,1.58
6119.00,1.58
6118.00,1.59
6117.00,1.59
6116.00,1.59
6115.00,1.59
6114.00,1.59
6113.00,1.59
6112.00,1.59
6111.00,1.59
6110.00,1.60
6109.00,1.60
6108.00,1.60
6107.00,1.60
6106.00,1.60
6105.00,1.60
6104.00,1.60
6103.00,1.60
6102.00,1.60
6101.00,1.60
6100.00,1.60
6099.00,1.60
6098.00,1.60
6097.00,1.60
6096.00,1.60
6095.00,1.60
6094.00,1.60
6093.00,1.60
6092.00,1.60
6091.00,1.60
6090.00,1.60
6089.00,1.59
6088.00,1.59
6087.00,1.59
6086.00,1.59
6085.00,1.59
6084.00,1.59
6083.00,1.59
6082.00,1.59
6081.00,1.59
6080.00,1.59
6079.00,1.59
6078.00,1.59
6077.00,1.59
6076.00,1.59
6075.00,1.59
6074.00,1.59
6073.00,1.59
6072.00,1.60
6071.00,1.60
6070.00,1.60
6069.00,1.60
6068.00,1.60
6067.00,1.60
6066.00,1.60
6065.00,1.60
6064.00,1.60
6063.00,1.61
6062.00,1.61
6061.00,1.61
6060.00,1.61
6059.00,1.61
6058.00,1.61
6057.00,1.61
6056.00,1.62
6055.00,1.62
6054.00,1.62
6053.00,1.62
6052.00,1.62
6051.00,1.62
6050.00,1.62
6049.00,1.62
6048.00,1.62
6047.00,1.62
6046.00,1.62
6045.00,1.62
6044.00,1.62
6043.00,1.61
6042.00,1.61
6041.00,1.61
6040.00,1.61
6039.00,1.61
6038.00,1.61
6037.00,1.61
6036.00,1.60
6035.00,1.60
6034.00,1.60
6033.00,1.60
6032.00,1.60
6031.00,1.60
6030.00,1.60
6029.00,1.59
6028.00,1.59
6027.00,1.59
6026.00,1.59
6025.00,1.59
6024.00,1.59
6023.00,1.59
6022.00,1.59
6021.00,1.59
6020.00,1.59
6019.00,1.59
6018.00,1.59
6017.00,1.59
6016.00,1.59
6015.00,1.59
6014.00,1.59
6013.00,1.60
6012.00,1.60
6011.00,1.60
6010.00,1.60
6009.00,1.60
6008.00,1.60
6007.00,1.60
6006.00,1.60
6005.00,1.60
6004.00,1.60
6003.00,1.60
6002.00,1.60
6001.00,1.60
6000.00,1.60
5999.00,1.60
5998.00,1.60
5997.00,1.60
5996.00,1.60
5995.00,1.60
5994.00,1.60
5993.00,1.60
5992.00,1.60
5991.00,1.60
5990.00,1.60
5989.00,1.60
5988.00,1.60
5987.00,1.60
5986.00,1.60
5985.00,1.59
5984.00,1.59
5983.00,1.59
5982.00,1.59
5981.00,1.59
5980.00,1.59
5979.00,1.59
5978.00,1.59
5977.00,1.58
5976.00,1.58
5975.00,1.58
5974.00,1.58
5973.00,1.58
5972.00,1.58
5971.00,1.58
5970.00,1.58
5969.00,1.58
5968.00,1.58
5967.00,1.58
5966.00,1.58
5965.00,1.58
5964.00,1.58
5963.00,1.58
5962.00,1.58
5961.00,1.58
5960.00,1.59
5959.00,1.59
5958.00,1.59
5957.00,1.59
5956.00,1.59
5955.00,1.59
5954.00,1.59
5953.00,1.59
5952.00,1.59
5951.00,1.60
5950.00,1.60
5949.00,1.60
5948.00,1.60
5947.00,1.60
5946.00,1.60
5945.00,1.60
5944.00,1.60
5943.00,1.61
5942.00,1.61
5941.00,1.61
5940.00,1.61
5939.00,1.61
5938.00,1.61
5937.00,1.61
5936.00,1.61
5935.00,1.61
5934.00,1.61
5933.00,1.61
5932.00,1.61
5931.00,1.61
5930.00,1.61
5929.00,1.61
5928.00,1.61
5927.00,1.62
5926.00,1.62
5925.00,1.62
5924.00,1.62
5923.00,1.62
5922.00,1.62
5921.00,1.62
5920.00,1.61
5919.00,1.61
5918.00,1.61
5917.00,1.61
5916.00,1.61
5915.00,1.61
5914.00,1.61
5913.00,1.61
5912.00,1.61
5911.00,1.61
5910.00,1.61
5909.00,1.60
5908.00,1.60
5907.00,1.60
5906.00,1.60
5905.00,1.60
5904.00,1.60
5903.00,1.60
5902.00,1.60
5901.00,1.60
5900.00,1.60
5899.00,1.60
5898.00,1.60
5897.00,1.60
5896.00,1.60
5895.00,1.60
5894.00,1.60
5893.00,1.60
5892.00,1.60
5891.00,1.60
5890.00,1.61
5889.00,1.61
5888.00,1.61
5887.00,1.61
5886.00,1.61
5885.00,1.61
5884.00,1.61
5883.00,1.61
5882.00,1.61
5881.00,1.61
5880.00,1.61
5879.00,1.61
5878.00,1.61
5877.00,1.61
5876.00,1.61
5875.00,1.61
5874.00,1.61
5873.00,1.60
5872.00,1.60
5871.00,1.60
5870.00,1.60
5869.00,1.60
5868.00,1.60
5867.00,1.60
5866.00,1.60
5865.00,1.60
5864.00,1.60
5863.00,1.60
5862.00,1.59
5861.00,1.59
5860.00,1.59
5859.00,1.59
5858.00,1.59
5857.00,1.59
5856.00,1.59
5855.00,1.59
5854.00,1.59
5853.00,1.59
5852.00,1.59
5851.00,1.59
5850.00,1.59
5849.00,1.59
5848.00,1.59
5847.00,1.59
5846.00,1.59
5845.00,1.59
5844.00,1.59
5843.00,1.59
5842.00,1.59
5841.00,1.59
5840.00,1.59
5839.00,1.59
5838.00,1.59
5837.00,1.60
5836.00,1.60
5835.00,1.60
5834.00,1.60
5833.00,1.60
5832.00,1.60
5831.00,1.60
5830.00,1.60
5829.00,1.60
5828.00,1.60
5827.00,1.60
5826.00,1.60
5825.00,1.61
5824.00,1.61
5823.00,1.61
5822.00,1.61
5821.00,1.61
5820.00,1.61
5819.00,1.61
5818.00,1.62
5817.00,1.62
5816.00,1.62
5815.00,1.62
5814.00,1.62
5813.00,1.62
5812.00,1.62
5811.00,1.62
5810.00,1.62
5809.00,1.62
5808.00,1.62
5807.00,1.62
5806.00,1.62
5805.00,1.62
5804.00,1.62
5803.00,1.62
5802.00,1.62
5801.00,1.62
5800.00,1.62
5799.00,1.62
5798.00,1.62
5797.00,1.62
5796.00,1.61
5795.00,1.61
5794.00,1.61
5793.00,1.61
5792.00,1.61
5791.00,1.61
5790.00,1.60
5789.00,1.60
5788.00,1.60
5787.00,1.60
5786.00,1.60
5785.00,1.60
5784.00,1.60
5783.00,1.60
5782.00,1.60
5781.00,1.60
5780.00,1.59
5779.00,1.59
5778.00,1.59
5777.00,1.59
5776.00,1.59
5775.00,1.59
5774.00,1.59
5773.00,1.60
5772.00,1.60
5771.00,1.60
5770.00,1.60
5769.00,1.60
5768.00,1.60
5767.00,1.60
5766.00,1.60
5765.00,1.60
5764.00,1.60
5763.00,1.60
5762.00,1.60
5761.00,1.61
5760.00,1.61
5759.00,1.61
5758.00,1.61
5757.00,1.61
5756.00,1.61
5755.00,1.61
5754.00,1.61
5753.00,1.61
5752.00,1.61
5751.00,1.61
5750.00,1.61
5749.00,1.62
5748.00,1.62
5747.00,1.62
5746.00,1.62
5745.00,1.62
5744.00,1.62
5743.00,1.62
5742.00,1.62
5741.00,1.62
5740.00,1.62
5739.00,1.62
5738.00,1.62
5737.00,1.62
5736.00,1.62
5735.00,1.62
5734.00,1.62
5733.00,1.62
5732.00,1.62
5731.00,1.62
5730.00,1.62
5729.00,1.61
5728.00,1.61
5727.00,1.61
5726.00,1.61
5725.00,1.61
5724.00,1.61
5723.00,1.60
5722.00,1.60
5721.00,1.60
5720.00,1.60
5719.00,1.60
5718.00,1.60
5717.00,1.60
5716.00,1.59
5715.00,1.59
5714.00,1.59
5713.00,1.59
5712.00,1.59
5711.00,1.59
5710.00,1.59
5709.00,1.59
5708.00,1.59
5707.00,1.59
5706.00,1.59
5705.00,1.59
5704.00,1.59
5703.00,1.59
5702.00,1.59
5701.00,1.59
5700.00,1.59
5699.00,1.60
5698.00,1.60
5697.00,1.60
5696.00,1.60
5695.00,1.60
5694.00,1.60
5693.00,1.60
5692.00,1.60
5691.00,1.60
5690.00,1.60
5689.00,1.60
5688.00,1.60
5687.00,1.60
5686.00,1.60
5685.00,1.60
5684.00,1.60
5683.00,1.60
5682.00,1.60
5681.00,1.60
5680.00,1.60
5679.00,1.60
5678.00,1.60
5677.00,1.60
5676.00,1.60
5675.00,1.60
5674.00,1.60
5673.00,1.60
5672.00,1.60
5671.00,1.60
5670.00,1.60
5669.00,1.60
5668.00,1.60
5667.00,1.60
5666.00,1.60
5665.00,1.60
5664.00,1.60
5663.00,1.60
5662.00,1.60
5661.00,1.60
5660.00,1.60
5659.00,1.60
5658.00,1.60
5657.00,1.60
5656.00,1.60
5655.00,1.60
5654.00,1.60
5653.00,1.61
5652.00,1.61
5651.00,1.61
5650.00,1.61
5649.00,1.61
5648.00,1.61
5647.00,1.61
5646.00,1.61
5645.00,1.61
5644.00,1.61
5643.00,1.61
5642.00,1.61
5641.00,1.61
5640.00,1.61
5639.00,1.61
5638.00,1.61
5637.00,1.61
5636.00,1.61
5635.00,1.61
5634.00,1.61
5633.00,1.61
5632.00,1.61
5631.00,1.61
5630.00,1.61
5629.00,1.62
5628.00,1.62
5627.00,1.62
5626.00,1.62
5625.00,1.62
5624.00,1.62
5623.00,1.62
5622.00,1.62
5621.00,1.62
5620.00,1.62
5619.00,1.62
5618.00,1.62
5617.00,1.62
5616.00,1.62
5615.00,1.61
5614.00,1.61
5613.00,1.61
5612.00,1.61
5611.00,1.61
5610.00,1.61
5609.00,1.61
5608.00,1.61
5607.00,1.61
5606.00,1.61
5605.00,1.61
5604.00,1.61
5603.00,1.61
5602.00,1.61
5601.00,1.61
5600.00,1.61
5599.00,1.61
5598.00,1.61
5597.00,1.62
5596.00,1.62
5595.00,1.62
5594.00,1.62
5593.00,1.62
5592.00,1.62
5591.00,1.62
5590.00,1.62
5589.00,1.62
5588.00,1.62
5587.00,1.62
5586.00,1.62
5585.00,1.62
5584.00,1.62
5583.00,1.62
5582.00,1.62
5581.00,1.62
5580.00,1.62
5579.00,1.62
5578.00,1.62
5577.00,1.62
5576.00,1.62
5575.00,1.62
5574.00,1.62
5573.00,1.62
5572.00,1.62
5571.00,1.62
5570.00,1.62
5569.00,1.62
5568.00,1.62
5567.00,1.62
5566.00,1.62
5565.00,1.62
5564.00,1.62
5563.00,1.62
5562.00,1.62
5561.00,1.62
5560.00,1.62
5559.00,1.62
5558.00,1.62
5557.00,1.62
5556.00,1.62
5555.00,1.62
5554.00,1.62
5553.00,1.62
5552.00,1.62
5551.00,1.62
5550.00,1.62
5549.00,1.61
5548.00,1.61
5547.00,1.61
5546.00,1.61
5545.00,1.61
5544.00,1.61
5543.00,1.61
5542.00,1.61
5541.00,1.61
5540.00,1.61
5539.00,1.61
5538.00,1.61
5537.00,1.61
5536.00,1.61
5535.00,1.62
5534.00,1.62
5533.00,1.62
5532.00,1.62
5531.00,1.62
5530.00,1.62
5529.00,1.62
5528.00,1.62
5527.00,1.62
5526.00,1.63
5525.00,1.63
5524.00,1.63
5523.00,1.63
5522.00,1.63
5521.00,1.63
5520.00,1.64
5519.00,1.64
5518.00,1.64
5517.00,1.64
5516.00,1.64
5515.00,1.64
5514.00,1.64
5513.00,1.65
5512.00,1.65
5511.00,1.65
5510.00,1.65
5509.00,1.65
5508.00,1.65
5507.00,1.65
5506.00,1.65
5505.00,1.65
5504.00,1.65
5503.00,1.65
5502.00,1.65
5501.00,1.65
5500.00,1.64
5499.00,1.64
5498.00,1.64
5497.00,1.64
5496.00,1.64
5495.00,1.64
5494.00,1.64
5493.00,1.63
5492.00,1.63
5491.00,1.63
5490.00,1.63
5489.00,1.63
5488.00,1.62
5487.00,1.62
5486.00,1.62
5485.00,1.62
5484.00,1.62
5483.00,1.62
5482.00,1.62
5481.00,1.62
5480.00,1.62
5479.00,1.62
5478.00,1.62
5477.00,1.62
5476.00,1.62
5475.00,1.62
5474.00,1.62
5473.00,1.62
5472.00,1.62
5471.00,1.62
5470.00,1.62
5469.00,1.62
5468.00,1.62
5467.00,1.62
5466.00,1.62
5465.00,1.62
5464.00,1.62
5463.00,1.62
5462.00,1.62
5461.00,1.62
5460.00,1.62
5459.00,1.62
5458.00,1.62
5457.00,1.62
5456.00,1.62
5455.00,1.62
5454.00,1.62
5453.00,1.62
5452.00,1.62
5451.00,1.62
5450.00,1.62
5449.00,1.62
5448.00,1.62
5447.00,1.62
5446.00,1.62
5445.00,1.62
5444.00,1.62
5443.00,1.62
5442.00,1.62
5441.00,1.62
5440.00,1.62
5439.00,1.62
5438.00,1.62
5437.00,1.62
5436.00,1.62
5435.00,1.62
5434.00,1.62
5433.00,1.62
5432.00,1.62
5431.00,1.62
5430.00,1.62
5429.00,1.62
5428.00,1.62
5427.00,1.62
5426.00,1.62
5425.00,1.62
5424.00,1.62
5423.00,1.62
5422.00,1.62
5421.00,1.62
5420.00,1.62
5419.00,1.62
5418.00,1.62
5417.00,1.62
5416.00,1.62
5415.00,1.62
5414.00,1.62
5413.00,1.62
5412.00,1.62
5411.00,1.62
5410.00,1.62
5409.00,1.62
5408.00,1.61
5407.00,1.61
5406.00,1.61
5405.00,1.61
5404.00,1.61
5403.00,1.61
5402.00,1.61
5401.00,1.61
5400.00,1.61
5399.00,1.61
5398.00,1.61
5397.00,1.61
5396.00,1.61
5395.00,1.61
5394.00,1.61
5393.00,1.61
5392.00,1.61
5391.00,1.62
5390.00,1.62
5389.00,1.62
5388.00,1.62
5387.00,1.62
5386.00,1.62
5385.00,1.62
5384.00,1.62
5383.00,1.62
5382.00,1.62
5381.00,1.62
5380.00,1.62
5379.00,1.63
5378.00,1.63
5377.00,1.63
5376.00,1.63
5375.00,1.63
5374.00,1.63
5373.00,1.63
5372.00,1.63
5371.00,1.63
5370.00,1.63
5369.00,1.63
5368.00,1.63
5367.00,1.63
5366.00,1.63
5365.00,1.62
5364.00,1.62
5363.00,1.62
5362.00,1.62
5361.00,1.62
5360.00,1.61
5359.00,1.61
5358.00,1.61
5357.00,1.60
5356.00,1.60
5355.00,1.60
5354.00,1.59
5353.00,1.59
5352.00,1.59
5351.00,1.58
5350.00,1.58
5349.00,1.57
5348.00,1.57
5347.00,1.57
5346.00,1.56
5345.00,1.56
5344.00,1.55
5343.00,1.55
5342.00,1.54
5341.00,1.54
5340.00,1.54
5339.00,1.53
5338.00,1.53
5337.00,1.52
5336.00,1.52
5335.00,1.52
5334.00,1.51
5333.00,1.51
5332.00,1.51
5331.00,1.50
5330.00,1.50
5329.00,1.50
5328.00,1.50
5327.00,1.49
5326.00,1.49
5325.00,1.49
5324.00,1.48
5323.00,1.48
5322.00,1.48
5321.00,1.48
5320.00,1.47
5319.00,1.47
5318.00,1.47
5317.00,1.46
5316.00,1.46
5315.00,1.46
5314.00,1.45
5313.00,1.45
5312.00,1.44
5311.00,1.44
5310.00,1.44
5309.00,1.43
5308.00,1.43
5307.00,1.42
5306.00,1.42
5305.00,1.41
5304.00,1.41
5303.00,1.40
5302.00,1.40
5301.00,1.40
5300.00,1.39
5299.00,1.39
5298.00,1.38
5297.00,1.38
5296.00,1.37
5295.00,1.37
5294.00,1.36
5293.00,1.36
5292.00,1.36
5291.00,1.35
5290.00,1.35
5289.00,1.34
5288.00,1.34
5287.00,1.34
5286.00,1.33
5285.00,1.33
5284.00,1.32
5283.00,1.32
5282.00,1.32
5281.00,1.31
5280.00,1.31
5279.00,1.31
5278.00,1.30
5277.00,1.30
5276.00,1.30
5275.00,1.29
5274.00,1.29
5273.00,1.29
5272.00,1.28
5271.00,1.28
5270.00,1.28
5269.00,1.28
5268.00,1.27
5267.00,1.27
5266.00,1.27
5265.00,1.27
5264.00,1.26
5263.00,1.26
5262.00,1.26
5261.00,1.26
5260.00,1.25
5259.00,1.25
5258.00,1.25
5257.00,1.25
5256.00,1.25
5255.00,1.25
5254.00,1.24
5253.00,1.24
5252.00,1.24
5251.00,1.24
5250.00,1.24
5249.00,1.24
5248.00,1.23
5247.00,1.23
5246.00,1.23
5245.00,1.23
5244.00,1.23
5243.00,1.22
5242.00,1.22
5241.00,1.22
5240.00,1.22
5239.00,1.22
5238.00,1.22
5237.00,1.21
5236.00,1.21
5235.00,1.21
5234.00,1.21
5233.00,1.21
5232.00,1.20
5231.00,1.20
5230.00,1.20
5229.00,1.20
5228.00,1.20
5227.00,1.19
5226.00,1.19
5225.00,1.19
5224.00,1.19
5223.00,1.18
5222.00,1.18
5221.00,1.18
5220.00,1.18
5219.00,1.17
5218.00,1.17
5217.00,1.17
5216.00,1.17
5215.00,1.17
5214.00,1.16
5213.00,1.16
5212.00,1.16
5211.00,1.15
5210.00,1.15
5209.00,1.15
5208.00,1.15
5207.00,1.15
5206.00,1.14
5205.00,1.14
5204.00,1.14
5203.00,1.14
5202.00,1.14
5201.00,1.14
5200.00,1.14
5199.00,1.14
5198.00,1.14
5197.00,1.14
5196.00,1.14
5195.00,1.14
5194.00,1.13
5193.00,1.13
5192.00,1.13
5191.00,1.13
5190.00,1.13
5189.00,1.13
5188.00,1.13
5187.00,1.14
5186.00,1.14
5185.00,1.14
5184.00,1.14
5183.00,1.14
5182.00,1.14
5181.00,1.14
5180.00,1.14
5179.00,1.14
5178.00,1.14
5177.00,1.14
5176.00,1.14
5175.00,1.14
5174.00,1.14
5173.00,1.14
5172.00,1.14
5171.00,1.14
5170.00,1.14
5169.00,1.14
5168.00,1.14
5167.00,1.14
5166.00,1.14
5165.00,1.14
5164.00,1.14
5163.00,1.14
5162.00,1.14
5161.00,1.15
5160.00,1.15
5159.00,1.15
5158.00,1.15
5157.00,1.15
5156.00,1.15
5155.00,1.15
5154.00,1.15
5153.00,1.15
5152.00,1.15
5151.00,1.15
5150.00,1.15
5149.00,1.15
5148.00,1.15
5147.00,1.15
5146.00,1.15
5145.00,1.15
5144.00,1.16
5143.00,1.16
5142.00,1.16
5141.00,1.16
5140.00,1.16
5139.00,1.16
5138.00,1.16
5137.00,1.16
5136.00,1.16
5135.00,1.16
5134.00,1.16
5133.00,1.16
5132.00,1.16
5131.00,1.16
5130.00,1.16
5129.00,1.17
5128.00,1.17
5127.00,1.17
5126.00,1.17
5125.00,1.17
5124.00,1.17
5123.00,1.17
5122.00,1.17
5121.00,1.17
5120.00,1.17
5119.00,1.17
5118.00,1.17
5117.00,1.17
5116.00,1.17
5115.00,1.17
5114.00,1.17
5113.00,1.17
5112.00,1.17
5111.00,1.18
5110.00,1.18
5109.00,1.18
5108.00,1.18
5107.00,1.18
5106.00,1.18
5105.00,1.18
5104.00,1.18
5103.00,1.18
5102.00,1.18
5101.00,1.19
5100.00,1.19
5099.00,1.19
5098.00,1.19
5097.00,1.19
5096.00,1.19
5095.00,1.19
5094.00,1.20
5093.00,1.20
5092.00,1.20
5091.00,1.20
5090.00,1.20
5089.00,1.21
5088.00,1.21
5087.00,1.21
5086.00,1.21
5085.00,1.21
5084.00,1.21
5083.00,1.22
5082.00,1.22
5081.00,1.22
5080.00,1.22
5079.00,1.22
5078.00,1.22
5077.00,1.22
5076.00,1.23
5075.00,1.23
5074.00,1.23
5073.00,1.23
5072.00,1.23
5071.00,1.23
5070.00,1.23
5069.00,1.23
5068.00,1.23
5067.00,1.23
5066.00,1.23
5065.00,1.23
5064.00,1.24
5063.00,1.24
5062.00,1.24
5061.00,1.24
5060.00,1.24
5059.00,1.24
5058.00,1.24
5057.00,1.24
5056.00,1.24
5055.00,1.24
5054.00,1.25
5053.00,1.25
5052.00,1.25
5051.00,1.25
5050.00,1.25
5049.00,1.25
5048.00,1.25
5047.00,1.26
5046.00,1.26
5045.00,1.26
5044.00,1.26
5043.00,1.26
5042.00,1.27
5041.00,1.27
5040.00,1.27
5039.00,1.27
5038.00,1.27
5037.00,1.28
5036.00,1.28
5035.00,1.28
5034.00,1.28
5033.00,1.28
5032.00,1.28
5031.00,1.29
5030.00,1.29
5029.00,1.29
5028.00,1.29
5027.00,1.29
5026.00,1.29
5025.00,1.29
5024.00,1.29
5023.00,1.30
5022.00,1.30
5021.00,1.30
5020.00,1.30
5019.00,1.30
5018.00,1.30
5017.00,1.30
5016.00,1.30
5015.00,1.30
5014.00,1.30
5013.00,1.30
5012.00,1.30
5011.00,1.30
5010.00,1.30
5009.00,1.30
5008.00,1.30
5007.00,1.30
5006.00,1.30
5005.00,1.31
5004.00,1.31
5003.00,1.31
5002.00,1.31
5001.00,1.31
5000.00,1.31
4999.00,1.31
4998.00,1.31
4997.00,1.31
4996.00,1.31
4995.00,1.32
4994.00,1.32
4993.00,1.32
4992.00,1.32
4991.00,1.32
4990.00,1.32
4989.00,1.32
4988.00,1.32
4987.00,1.33
4986.00,1.33
4985.00,1.33
4984.00,1.33
4983.00,1.33
4982.00,1.33
4981.00,1.33
4980.00,1.34
4979.00,1.34
4978.00,1.34
4977.00,1.34
4976.00,1.34
4975.00,1.34
4974.00,1.35
4973.00,1.35
4972.00,1.35
4971.00,1.35
4970.00,1.35
4969.00,1.36
4968.00,1.36
4967.00,1.36
4966.00,1.36
4965.00,1.36
4964.00,1.36
4963.00,1.37
4962.00,1.37
4961.00,1.37
4960.00,1.37
4959.00,1.38
4958.00,1.38
4957.00,1.38
4956.00,1.38
4955.00,1.38
4954.00,1.39
4953.00,1.39
4952.00,1.39
4951.00,1.39
4950.00,1.39
4949.00,1.39
4948.00,1.40
4947.00,1.40
4946.00,1.40
4945.00,1.40
4944.00,1.40
4943.00,1.40
4942.00,1.40
4941.00,1.40
4940.00,1.40
4939.00,1.40
4938.00,1.41
4937.00,1.41
4936.00,1.41
4935.00,1.41
4934.00,1.41
4933.00,1.41
4932.00,1.41
4931.00,1.41
4930.00,1.41
4929.00,1.41
4928.00,1.41
4927.00,1.41
4926.00,1.41
4925.00,1.41
4924.00,1.42
4923.00,1.42
4922.00,1.42
4921.00,1.42
4920.00,1.42
4919.00,1.42
4918.00,1.42
4917.00,1.42
4916.00,1.42
4915.00,1.42
4914.00,1.43
4913.00,1.43
4912.00,1.43
4911.00,1.43
4910.00,1.43
4909.00,1.43
4908.00,1.43
4907.00,1.43
4906.00,1.44
4905.00,1.44
4904.00,1.44
4903.00,1.44
4902.00,1.44
4901.00,1.44
4900.00,1.44
4899.00,1.45
4898.00,1.45
4897.00,1.45
4896.00,1.45
4895.00,1.45
4894.00,1.45
4893.00,1.45
4892.00,1.45
4891.00,1.46
4890.00,1.46
4889.00,1.46
4888.00,1.46
4887.00,1.46
4886.00,1.46
4885.00,1.46
4884.00,1.46
4883.00,1.46
4882.00,1.46
4881.00,1.46
4880.00,1.46
4879.00,1.46
4878.00,1.46
4877.00,1.46
4876.00,1.46
4875.00,1.46
4874.00,1.46
4873.00,1.45
4872.00,1.45
4871.00,1.45
4870.00,1.45
4869.00,1.45
4868.00,1.45
4867.00,1.45
4866.00,1.45
4865.00,1.45
4864.00,1.45
4863.00,1.45
4862.00,1.45
4861.00,1.45
4860.00,1.45
4859.00,1.45
4858.00,1.45
4857.00,1.45
4856.00,1.45
4855.00,1.45
4854.00,1.45
4853.00,1.45
4852.00,1.45
4851.00,1.45
4850.00,1.45
4849.00,1.46
4848.00,1.46
4847.00,1.46
4846.00,1.46
4845.00,1.46
4844.00,1.47
4843.00,1.47
4842.00,1.47
4841.00,1.47
4840.00,1.47
4839.00,1.47
4838.00,1.48
4837.00,1.48
4836.00,1.48
4835.00,1.48
4834.00,1.48
4833.00,1.48
4832.00,1.48
4831.00,1.49
4830.00,1.49
4829.00,1.49
4828.00,1.49
4827.00,1.49
4826.00,1.49
4825.00,1.49
4824.00,1.49
4823.00,1.49
4822.00,1.49
4821.00,1.49
4820.00,1.50
4819.00,1.50
4818.00,1.50
4817.00,1.50
4816.00,1.50
4815.00,1.50
4814.00,1.50
4813.00,1.50
4812.00,1.50
4811.00,1.50
4810.00,1.50
4809.00,1.50
4808.00,1.50
4807.00,1.50
4806.00,1.50
4805.00,1.50
4804.00,1.50
4803.00,1.51
4802.00,1.51
4801.00,1.51
4800.00,1.51
4799.00,1.51
4798.00,1.51
4797.00,1.51
4796.00,1.51
4795.00,1.51
4794.00,1.51
4793.00,1.51
4792.00,1.51
4791.00,1.51
4790.00,1.51
4789.00,1.51
4788.00,1.51
4787.00,1.51
4786.00,1.51
4785.00,1.51
4784.00,1.51
4783.00,1.51
4782.00,1.51
4781.00,1.52
4780.00,1.52
4779.00,1.52
4778.00,1.52
4777.00,1.52
4776.00,1.52
4775.00,1.52
4774.00,1.52
4773.00,1.52
4772.00,1.52
4771.00,1.52
4770.00,1.52
4769.00,1.52
4768.00,1.53
4767.00,1.53
4766.00,1.53
4765.00,1.53
4764.00,1.53
4763.00,1.53
4762.00,1.53
4761.00,1.54
4760.00,1.54
4759.00,1.54
4758.00,1.54
4757.00,1.54
4756.00,1.54
4755.00,1.54
4754.00,1.54
4753.00,1.54
4752.00,1.54
4751.00,1.55
4750.00,1.55
4749.00,1.55
4748.00,1.55
4747.00,1.55
4746.00,1.55
4745.00,1.55
4744.00,1.56
4743.00,1.56
4742.00,1.56
4741.00,1.56
4740.00,1.56
4739.00,1.56
4738.00,1.56
4737.00,1.57
4736.00,1.57
4735.00,1.57
4734.00,1.57
4733.00,1.57
4732.00,1.57
4731.00,1.57
4730.00,1.57
4729.00,1.57
4728.00,1.58
4727.00,1.58
4726.00,1.58
4725.00,1.58
4724.00,1.58
4723.00,1.58
4722.00,1.59
4721.00,1.59
4720.00,1.59
4719.00,1.59
4718.00,1.59
4717.00,1.59
4716.00,1.59
4715.00,1.59
4714.00,1.59
4713.00,1.59
4712.00,1.59
4711.00,1.59
4710.00,1.59
4709.00,1.59
4708.00,1.59
4707.00,1.60
4706.00,1.60
4705.00,1.60
4704.00,1.60
4703.00,1.60
4702.00,1.60
4701.00,1.60
4700.00,1.60
4699.00,1.60
4698.00,1.60
4697.00,1.60
4696.00,1.60
4695.00,1.60
4694.00,1.60
4693.00,1.60
4692.00,1.60
4691.00,1.60
4690.00,1.60
4689.00,1.60
4688.00,1.60
4687.00,1.60
4686.00,1.60
4685.00,1.60
4684.00,1.60
4683.00,1.60
4682.00,1.60
4681.00,1.60
4680.00,1.60
4679.00,1.60
4678.00,1.60
4677.00,1.60
4676.00,1.60
4675.00,1.60
4674.00,1.60
4673.00,1.60
4672.00,1.60
4671.00,1.60
4670.00,1.61
4669.00,1.61
4668.00,1.61
4667.00,1.61
4666.00,1.61
4665.00,1.61
4664.00,1.61
4663.00,1.61
4662.00,1.61
4661.00,1.61
4660.00,1.61
4659.00,1.62
4658.00,1.62
4657.00,1.62
4656.00,1.62
4655.00,1.62
4654.00,1.62
4653.00,1.62
4652.00,1.62
4651.00,1.63
4650.00,1.63
4649.00,1.63
4648.00,1.63
4647.00,1.63
4646.00,1.63
4645.00,1.63
4644.00,1.63
4643.00,1.63
4642.00,1.63
4641.00,1.63
4640.00,1.63
4639.00,1.63
4638.00,1.64
4637.00,1.64
4636.00,1.64
4635.00,1.64
4634.00,1.64
4633.00,1.64
4632.00,1.64
4631.00,1.64
4630.00,1.64
4629.00,1.64
4628.00,1.64
4627.00,1.64
4626.00,1.64
4625.00,1.65
4624.00,1.65
4623.00,1.65
4622.00,1.65
4621.00,1.65
4620.00,1.65
4619.00,1.65
4618.00,1.65
4617.00,1.65
4616.00,1.65
4615.00,1.64
4614.00,1.64
4613.00,1.64
4612.00,1.64
4611.00,1.64
4610.00,1.64
4609.00,1.64
4608.00,1.64
4607.00,1.64
4606.00,1.63
4605.00,1.63
4604.00,1.63
4603.00,1.63
4602.00,1.63
4601.00,1.63
4600.00,1.63
4599.00,1.63
4598.00,1.63
4597.00,1.63
4596.00,1.63
4595.00,1.62
4594.00,1.62
4593.00,1.62
4592.00,1.62
4591.00,1.62
4590.00,1.62
4589.00,1.62
4588.00,1.62
4587.00,1.63
4586.00,1.63
4585.00,1.63
4584.00,1.63
4583.00,1.63
4582.00,1.63
4581.00,1.63
4580.00,1.63
4579.00,1.63
4578.00,1.63
4577.00,1.63
4576.00,1.63
4575.00,1.64
4574.00,1.64
4573.00,1.64
4572.00,1.64
4571.00,1.64
4570.00,1.64
4569.00,1.64
4568.00,1.64
4567.00,1.64
4566.00,1.64
4565.00,1.64
4564.00,1.64
4563.00,1.64
4562.00,1.64
4561.00,1.63
4560.00,1.63
4559.00,1.63
4558.00,1.63
4557.00,1.63
4556.00,1.63
4555.00,1.63
4554.00,1.63
4553.00,1.63
4552.00,1.63
4551.00,1.63
4550.00,1.63
4549.00,1.62
4548.00,1.62
4547.00,1.62
4546.00,1.62
4545.00,1.62
4544.00,1.62
4543.00,1.62
4542.00,1.62
4541.00,1.62
4540.00,1.62
4539.00,1.62
4538.00,1.62
4537.00,1.62
4536.00,1.62
4535.00,1.62
4534.00,1.62
4533.00,1.62
4532.00,1.62
4531.00,1.62
4530.00,1.62
4529.00,1.62
4528.00,1.62
4527.00,1.62
4526.00,1.62
4525.00,1.62
4524.00,1.62
4523.00,1.62
4522.00,1.62
4521.00,1.62
4520.00,1.62
4519.00,1.62
4518.00,1.62
4517.00,1.63
4516.00,1.63
4515.00,1.63
4514.00,1.63
4513.00,1.63
4512.00,1.63
4511.00,1.63
4510.00,1.63
4509.00,1.63
4508.00,1.63
4507.00,1.63
4506.00,1.63
4505.00,1.64
4504.00,1.64
4503.00,1.64
4502.00,1.64
4501.00,1.64
4500.00,1.64
4499.00,1.64
4498.00,1.64
4497.00,1.64
4496.00,1.64
4495.00,1.64
4494.00,1.64
4493.00,1.64
4492.00,1.64
4491.00,1.64
4490.00,1.64
4489.00,1.64
4488.00,1.64
4487.00,1.64
4486.00,1.64
4485.00,1.64
4484.00,1.64
4483.00,1.64
4482.00,1.64
4481.00,1.64
4480.00,1.64
4479.00,1.64
4478.00,1.63
4477.00,1.63
4476.00,1.63
4475.00,1.63
4474.00,1.63
4473.00,1.63
4472.00,1.63
4471.00,1.63
4470.00,1.63
4469.00,1.63
4468.00,1.63
4467.00,1.63
4466.00,1.63
4465.00,1.63
4464.00,1.63
4463.00,1.63
4462.00,1.63
4461.00,1.63
4460.00,1.63
4459.00,1.63
4458.00,1.63
4457.00,1.62
4456.00,1.62
4455.00,1.62
4454.00,1.62
4453.00,1.62
4452.00,1.61
4451.00,1.61
4450.00,1.61
4449.00,1.61
4448.00,1.61
4447.00,1.60
4446.00,1.60
4445.00,1.60
4444.00,1.59
4443.00,1.59
4442.00,1.59
4441.00,1.58
4440.00,1.58
4439.00,1.58
4438.00,1.58
4437.00,1.57
4436.00,1.57
4435.00,1.57
4434.00,1.56
4433.00,1.56
4432.00,1.56
4431.00,1.56
4430.00,1.55
4429.00,1.55
4428.00,1.55
4427.00,1.55
4426.00,1.54
4425.00,1.54
4424.00,1.54
4423.00,1.54
4422.00,1.54
4421.00,1.53
4420.00,1.53
4419.00,1.53
4418.00,1.53
4417.00,1.53
4416.00,1.53
4415.00,1.53
4414.00,1.53
4413.00,1.53
4412.00,1.53
4411.00,1.53
4410.00,1.53
4409.00,1.53
4408.00,1.53
4407.00,1.53
4406.00,1.53
4405.00,1.53
4404.00,1.53
4403.00,1.53
4402.00,1.53
4401.00,1.53
4400.00,1.53
4399.00,1.53
4398.00,1.54
4397.00,1.54
4396.00,1.54
4395.00,1.54
4394.00,1.54
4393.00,1.55
4392.00,1.55
4391.00,1.55
4390.00,1.55
4389.00,1.55
4388.00,1.55
4387.00,1.56
4386.00,1.56
4385.00,1.56
4384.00,1.56
4383.00,1.56
4382.00,1.56
4381.00,1.57
4380.00,1.57
4379.00,1.57
4378.00,1.57
4377.00,1.57
4376.00,1.57
4375.00,1.58
4374.00,1.58
4373.00,1.58
4372.00,1.58
4371.00,1.58
4370.00,1.58
4369.00,1.58
4368.00,1.58
4367.00,1.58
4366.00,1.58
4365.00,1.57
4364.00,1.57
4363.00,1.57
4362.00,1.57
4361.00,1.57
4360.00,1.57
4359.00,1.56
4358.00,1.56
4357.00,1.56
4356.00,1.56
4355.00,1.56
4354.00,1.55
4353.00,1.55
4352.00,1.55
4351.00,1.55
4350.00,1.55
4349.00,1.54
4348.00,1.54
4347.00,1.54
4346.00,1.54
4345.00,1.54
4344.00,1.54
4343.00,1.54
4342.00,1.54
4341.00,1.54
4340.00,1.54
4339.00,1.54
4338.00,1.54
4337.00,1.54
4336.00,1.54
4335.00,1.54
4334.00,1.54
4333.00,1.54
4332.00,1.54
4331.00,1.55
4330.00,1.55
4329.00,1.55
4328.00,1.55
4327.00,1.56
4326.00,1.56
4325.00,1.56
4324.00,1.56
4323.00,1.57
4322.00,1.57
4321.00,1.57
4320.00,1.58
4319.00,1.58
4318.00,1.59
4317.00,1.59
4316.00,1.59
4315.00,1.60
4314.00,1.60
4313.00,1.60
4312.00,1.61
4311.00,1.61
4310.00,1.61
4309.00,1.62
4308.00,1.62
4307.00,1.62
4306.00,1.62
4305.00,1.62
4304.00,1.62
4303.00,1.63
4302.00,1.63
4301.00,1.63
4300.00,1.63
4299.00,1.63
4298.00,1.63
4297.00,1.63
4296.00,1.63
4295.00,1.63
4294.00,1.63
4293.00,1.63
4292.00,1.63
4291.00,1.63
4290.00,1.63
4289.00,1.63
4288.00,1.63
4287.00,1.63
4286.00,1.63
4285.00,1.63
4284.00,1.63
4283.00,1.62
4282.00,1.62
4281.00,1.62
4280.00,1.62
4279.00,1.62
4278.00,1.62
4277.00,1.62
4276.00,1.62
4275.00,1.62
4274.00,1.62
4273.00,1.62
4272.00,1.62
4271.00,1.62
4270.00,1.62
4269.00,1.62
4268.00,1.62
4267.00,1.62
4266.00,1.62
4265.00,1.62
4264.00,1.62
4263.00,1.62
4262.00,1.62
4261.00,1.62
4260.00,1.62
4259.00,1.62
4258.00,1.62
4257.00,1.62
4256.00,1.62
4255.00,1.62
4254.00,1.62
4253.00,1.62
4252.00,1.62
4251.00,1.62
4250.00,1.62
4249.00,1.62
4248.00,1.62
4247.00,1.62
4246.00,1.62
4245.00,1.62
4244.00,1.62
4243.00,1.62
4242.00,1.62
4241.00,1.62
4240.00,1.62
4239.00,1.62
4238.00,1.62
4237.00,1.62
4236.00,1.62
4235.00,1.62
4234.00,1.62
4233.00,1.62
4232.00,1.62
4231.00,1.61
4230.00,1.61
4229.00,1.61
4228.00,1.61
4227.00,1.61
4226.00,1.61
4225.00,1.61
4224.00,1.61
4223.00,1.61
4222.00,1.61
4221.00,1.61
4220.00,1.60
4219.00,1.60
4218.00,1.60
4217.00,1.60
4216.00,1.60
4215.00,1.60
4214.00,1.60
4213.00,1.60
4212.00,1.60
4211.00,1.60
4210.00,1.60
4209.00,1.60
4208.00,1.60
4207.00,1.60
4206.00,1.60
4205.00,1.60
4204.00,1.60
4203.00,1.60
4202.00,1.60
4201.00,1.60
4200.00,1.60
4199.00,1.60
4198.00,1.60
4197.00,1.60
4196.00,1.60
4195.00,1.60
4194.00,1.59
4193.00,1.59
4192.00,1.59
4191.00,1.59
4190.00,1.59
4189.00,1.59
4188.00,1.59
4187.00,1.58
4186.00,1.58
4185.00,1.58
4184.00,1.58
4183.00,1.58
4182.00,1.58
4181.00,1.58
4180.00,1.57
4179.00,1.57
4178.00,1.57
4177.00,1.57
4176.00,1.57
4175.00,1.57
4174.00,1.57
4173.00,1.57
4172.00,1.57
4171.00,1.57
4170.00,1.57
4169.00,1.57
4168.00,1.57
4167.00,1.57
4166.00,1.57
4165.00,1.57
4164.00,1.57
4163.00,1.57
4162.00,1.57
4161.00,1.57
4160.00,1.58
4159.00,1.58
4158.00,1.58
4157.00,1.58
4156.00,1.58
4155.00,1.58
4154.00,1.58
4153.00,1.58
4152.00,1.58
4151.00,1.58
4150.00,1.58
4149.00,1.58
4148.00,1.58
4147.00,1.58
4146.00,1.58
4145.00,1.58
4144.00,1.58
4143.00,1.58
4142.00,1.58
4141.00,1.58
4140.00,1.58
4139.00,1.58
4138.00,1.58
4137.00,1.58
4136.00,1.59
4135.00,1.59
4134.00,1.59
4133.00,1.59
4132.00,1.59
4131.00,1.59
4130.00,1.59
4129.00,1.60
4128.00,1.60
4127.00,1.60
4126.00,1.60
4125.00,1.60
4124.00,1.60
4123.00,1.60
4122.00,1.61
4121.00,1.61
4120.00,1.61
4119.00,1.61
4118.00,1.61
4117.00,1.61
4116.00,1.61
4115.00,1.61
4114.00,1.61
4113.00,1.61
4112.00,1.61
4111.00,1.61
4110.00,1.61
4109.00,1.61
4108.00,1.61
4107.00,1.61
4106.00,1.61
4105.00,1.60
4104.00,1.60
4103.00,1.60
4102.00,1.60
4101.00,1.59
4100.00,1.59
4099.00,1.59
4098.00,1.58
4097.00,1.58
4096.00,1.58
4095.00,1.57
4094.00,1.57
4093.00,1.57
4092.00,1.56
4091.00,1.56
4090.00,1.56
4089.00,1.55
4088.00,1.55
4087.00,1.55
4086.00,1.54
4085.00,1.54
4084.00,1.54
4083.00,1.54
4082.00,1.53
4081.00,1.53
4080.00,1.53
4079.00,1.53
4078.00,1.53
4077.00,1.53
4076.00,1.53
4075.00,1.53
4074.00,1.53
4073.00,1.53
4072.00,1.53
4071.00,1.53
4070.00,1.53
4069.00,1.53
4068.00,1.53
4067.00,1.53
4066.00,1.53
4065.00,1.53
4064.00,1.53
4063.00,1.53
4062.00,1.53
4061.00,1.54
4060.00,1.54
4059.00,1.54
4058.00,1.54
4057.00,1.54
4056.00,1.54
4055.00,1.54
4054.00,1.55
4053.00,1.55
4052.00,1.55
4051.00,1.55
4050.00,1.55
4049.00,1.56
4048.00,1.56
4047.00,1.56
4046.00,1.56
4045.00,1.57
4044.00,1.57
4043.00,1.57
4042.00,1.57
4041.00,1.57
4040.00,1.57
4039.00,1.57
4038.00,1.58
4037.00,1.58
4036.00,1.58
4035.00,1.58
4034.00,1.58
4033.00,1.58
4032.00,1.59
4031.00,1.59
4030.00,1.59
4029.00,1.59
4028.00,1.59
4027.00,1.60
4026.00,1.60
4025.00,1.60
4024.00,1.60
4023.00,1.60
4022.00,1.60
4021.00,1.61
4020.00,1.61
4019.00,1.61
4018.00,1.62
4017.00,1.62
4016.00,1.63
4015.00,1.63
4014.00,1.64
4013.00,1.64
4012.00,1.65
4011.00,1.65
4010.00,1.65
4009.00,1.66
4008.00,1.66
4007.00,1.67
4006.00,1.67
4005.00,1.68
4004.00,1.68
4003.00,1.69
4002.00,1.70
4001.00,1.71
4000.00,1.71
