创建为新数据集,样品 164 用户 Administrator 日期 星期六, 七月 27 2019
cm-1,%T
10000.00,2.05
9999.00,2.03
9998.00,2.01
9997.00,1.99
9996.00,1.97
9995.00,1.95
9994.00,1.94
9993.00,1.92
9992.00,1.90
9991.00,1.88
9990.00,1.87
9989.00,1.85
9988.00,1.84
9987.00,1.82
9986.00,1.81
9985.00,1.80
9984.00,1.79
9983.00,1.79
9982.00,1.78
9981.00,1.77
9980.00,1.77
9979.00,1.76
9978.00,1.76
9977.00,1.75
9976.00,1.75
9975.00,1.74
9974.00,1.74
9973.00,1.74
9972.00,1.74
9971.00,1.74
9970.00,1.74
9969.00,1.74
9968.00,1.74
9967.00,1.74
9966.00,1.74
9965.00,1.74
9964.00,1.74
9963.00,1.74
9962.00,1.74
9961.00,1.74
9960.00,1.74
9959.00,1.74
9958.00,1.73
9957.00,1.73
9956.00,1.72
9955.00,1.72
9954.00,1.72
9953.00,1.71
9952.00,1.71
9951.00,1.71
9950.00,1.71
9949.00,1.71
9948.00,1.71
9947.00,1.71
9946.00,1.71
9945.00,1.71
9944.00,1.72
9943.00,1.72
9942.00,1.72
9941.00,1.73
9940.00,1.73
9939.00,1.74
9938.00,1.74
9937.00,1.75
9936.00,1.75
9935.00,1.76
9934.00,1.77
9933.00,1.78
9932.00,1.78
9931.00,1.79
9930.00,1.81
9929.00,1.82
9928.00,1.83
9927.00,1.84
9926.00,1.85
9925.00,1.86
9924.00,1.87
9923.00,1.89
9922.00,1.90
9921.00,1.90
9920.00,1.91
9919.00,1.92
9918.00,1.93
9917.00,1.94
9916.00,1.94
9915.00,1.95
9914.00,1.95
9913.00,1.96
9912.00,1.96
9911.00,1.97
9910.00,1.97
9909.00,1.98
9908.00,1.98
9907.00,1.99
9906.00,1.99
9905.00,1.99
9904.00,2.00
9903.00,2.00
9902.00,1.99
9901.00,1.99
9900.00,1.99
9899.00,1.99
9898.00,1.98
9897.00,1.98
9896.00,1.97
9895.00,1.97
9894.00,1.96
9893.00,1.96
9892.00,1.95
9891.00,1.95
9890.00,1.94
9889.00,1.94
9888.00,1.93
9887.00,1.93
9886.00,1.92
9885.00,1.92
9884.00,1.92
9883.00,1.91
9882.00,1.91
9881.00,1.90
9880.00,1.89
9879.00,1.89
9878.00,1.88
9877.00,1.88
9876.00,1.88
9875.00,1.87
9874.00,1.87
9873.00,1.87
9872.00,1.87
9871.00,1.86
9870.00,1.86
9869.00,1.86
9868.00,1.86
9867.00,1.86
9866.00,1.86
9865.00,1.86
9864.00,1.86
9863.00,1.86
9862.00,1.86
9861.00,1.86
9860.00,1.86
9859.00,1.87
9858.00,1.87
9857.00,1.87
9856.00,1.87
9855.00,1.88
9854.00,1.88
9853.00,1.88
9852.00,1.89
9851.00,1.89
9850.00,1.90
9849.00,1.90
9848.00,1.91
9847.00,1.91
9846.00,1.91
9845.00,1.92
9844.00,1.92
9843.00,1.92
9842.00,1.92
9841.00,1.92
9840.00,1.92
9839.00,1.92
9838.00,1.92
9837.00,1.92
9836.00,1.92
9835.00,1.92
9834.00,1.92
9833.00,1.91
9832.00,1.91
9831.00,1.90
9830.00,1.90
9829.00,1.89
9828.00,1.89
9827.00,1.88
9826.00,1.88
9825.00,1.87
9824.00,1.86
9823.00,1.86
9822.00,1.85
9821.00,1.85
9820.00,1.84
9819.00,1.84
9818.00,1.83
9817.00,1.83
9816.00,1.82
9815.00,1.82
9814.00,1.82
9813.00,1.82
9812.00,1.82
9811.00,1.82
9810.00,1.81
9809.00,1.81
9808.00,1.81
9807.00,1.81
9806.00,1.81
9805.00,1.81
9804.00,1.82
9803.00,1.82
9802.00,1.82
9801.00,1.82
9800.00,1.82
9799.00,1.82
9798.00,1.82
9797.00,1.83
9796.00,1.83
9795.00,1.83
9794.00,1.83
9793.00,1.84
9792.00,1.84
9791.00,1.84
9790.00,1.84
9789.00,1.85
9788.00,1.85
9787.00,1.85
9786.00,1.85
9785.00,1.86
9784.00,1.86
9783.00,1.86
9782.00,1.86
9781.00,1.86
9780.00,1.87
9779.00,1.87
9778.00,1.87
9777.00,1.87
9776.00,1.87
9775.00,1.87
9774.00,1.87
9773.00,1.87
9772.00,1.87
9771.00,1.87
9770.00,1.86
9769.00,1.86
9768.00,1.86
9767.00,1.86
9766.00,1.85
9765.00,1.85
9764.00,1.85
9763.00,1.85
9762.00,1.84
9761.00,1.84
9760.00,1.84
9759.00,1.83
9758.00,1.83
9757.00,1.83
9756.00,1.82
9755.00,1.82
9754.00,1.81
9753.00,1.81
9752.00,1.81
9751.00,1.81
9750.00,1.81
9749.00,1.80
9748.00,1.80
9747.00,1.80
9746.00,1.80
9745.00,1.80
9744.00,1.80
9743.00,1.80
9742.00,1.80
9741.00,1.80
9740.00,1.80
9739.00,1.80
9738.00,1.80
9737.00,1.80
9736.00,1.79
9735.00,1.79
9734.00,1.79
9733.00,1.79
9732.00,1.78
9731.00,1.78
9730.00,1.78
9729.00,1.78
9728.00,1.77
9727.00,1.77
9726.00,1.76
9725.00,1.76
9724.00,1.75
9723.00,1.74
9722.00,1.73
9721.00,1.72
9720.00,1.72
9719.00,1.71
9718.00,1.70
9717.00,1.70
9716.00,1.69
9715.00,1.69
9714.00,1.68
9713.00,1.68
9712.00,1.68
9711.00,1.68
9710.00,1.68
9709.00,1.68
9708.00,1.68
9707.00,1.68
9706.00,1.68
9705.00,1.69
9704.00,1.69
9703.00,1.70
9702.00,1.70
9701.00,1.71
9700.00,1.72
9699.00,1.73
9698.00,1.74
9697.00,1.75
9696.00,1.76
9695.00,1.78
9694.00,1.79
9693.00,1.81
9692.00,1.82
9691.00,1.83
9690.00,1.85
9689.00,1.86
9688.00,1.87
9687.00,1.88
9686.00,1.89
9685.00,1.90
9684.00,1.91
9683.00,1.92
9682.00,1.92
9681.00,1.92
9680.00,1.93
9679.00,1.93
9678.00,1.93
9677.00,1.93
9676.00,1.93
9675.00,1.93
9674.00,1.93
9673.00,1.93
9672.00,1.92
9671.00,1.92
9670.00,1.92
9669.00,1.91
9668.00,1.91
9667.00,1.90
9666.00,1.90
9665.00,1.89
9664.00,1.89
9663.00,1.88
9662.00,1.87
9661.00,1.87
9660.00,1.86
9659.00,1.86
9658.00,1.85
9657.00,1.85
9656.00,1.85
9655.00,1.85
9654.00,1.85
9653.00,1.85
9652.00,1.86
9651.00,1.86
9650.00,1.86
9649.00,1.87
9648.00,1.87
9647.00,1.87
9646.00,1.87
9645.00,1.87
9644.00,1.87
9643.00,1.87
9642.00,1.87
9641.00,1.87
9640.00,1.87
9639.00,1.87
9638.00,1.87
9637.00,1.88
9636.00,1.88
9635.00,1.88
9634.00,1.88
9633.00,1.88
9632.00,1.88
9631.00,1.88
9630.00,1.88
9629.00,1.88
9628.00,1.87
9627.00,1.87
9626.00,1.87
9625.00,1.86
9624.00,1.86
9623.00,1.86
9622.00,1.86
9621.00,1.85
9620.00,1.85
9619.00,1.85
9618.00,1.85
9617.00,1.85
9616.00,1.84
9615.00,1.84
9614.00,1.84
9613.00,1.84
9612.00,1.84
9611.00,1.83
9610.00,1.83
9609.00,1.83
9608.00,1.83
9607.00,1.83
9606.00,1.82
9605.00,1.82
9604.00,1.82
9603.00,1.82
9602.00,1.82
9601.00,1.82
9600.00,1.82
9599.00,1.82
9598.00,1.82
9597.00,1.82
9596.00,1.82
9595.00,1.82
9594.00,1.82
9593.00,1.82
9592.00,1.82
9591.00,1.82
9590.00,1.83
9589.00,1.83
9588.00,1.84
9587.00,1.84
9586.00,1.85
9585.00,1.86
9584.00,1.87
9583.00,1.87
9582.00,1.88
9581.00,1.89
9580.00,1.89
9579.00,1.90
9578.00,1.91
9577.00,1.91
9576.00,1.92
9575.00,1.93
9574.00,1.93
9573.00,1.94
9572.00,1.95
9571.00,1.96
9570.00,1.96
9569.00,1.97
9568.00,1.98
9567.00,1.98
9566.00,1.99
9565.00,1.99
9564.00,1.99
9563.00,2.00
9562.00,2.00
9561.00,2.00
9560.00,1.99
9559.00,1.99
9558.00,1.99
9557.00,1.99
9556.00,1.99
9555.00,1.99
9554.00,1.98
9553.00,1.98
9552.00,1.98
9551.00,1.97
9550.00,1.97
9549.00,1.97
9548.00,1.96
9547.00,1.96
9546.00,1.95
9545.00,1.95
9544.00,1.94
9543.00,1.94
9542.00,1.93
9541.00,1.93
9540.00,1.92
9539.00,1.92
9538.00,1.91
9537.00,1.91
9536.00,1.90
9535.00,1.90
9534.00,1.90
9533.00,1.90
9532.00,1.90
9531.00,1.89
9530.00,1.89
9529.00,1.89
9528.00,1.89
9527.00,1.89
9526.00,1.89
9525.00,1.89
9524.00,1.88
9523.00,1.88
9522.00,1.88
9521.00,1.88
9520.00,1.88
9519.00,1.88
9518.00,1.88
9517.00,1.88
9516.00,1.88
9515.00,1.87
9514.00,1.87
9513.00,1.87
9512.00,1.87
9511.00,1.86
9510.00,1.86
9509.00,1.86
9508.00,1.85
9507.00,1.85
9506.00,1.84
9505.00,1.84
9504.00,1.83
9503.00,1.83
9502.00,1.82
9501.00,1.82
9500.00,1.82
9499.00,1.81
9498.00,1.81
9497.00,1.80
9496.00,1.80
9495.00,1.80
9494.00,1.80
9493.00,1.79
9492.00,1.79
9491.00,1.79
9490.00,1.79
9489.00,1.79
9488.00,1.79
9487.00,1.79
9486.00,1.80
9485.00,1.80
9484.00,1.81
9483.00,1.81
9482.00,1.82
9481.00,1.82
9480.00,1.83
9479.00,1.83
9478.00,1.84
9477.00,1.84
9476.00,1.84
9475.00,1.85
9474.00,1.85
9473.00,1.85
9472.00,1.86
9471.00,1.86
9470.00,1.86
9469.00,1.87
9468.00,1.87
9467.00,1.87
9466.00,1.88
9465.00,1.88
9464.00,1.88
9463.00,1.88
9462.00,1.88
9461.00,1.88
9460.00,1.88
9459.00,1.87
9458.00,1.87
9457.00,1.87
9456.00,1.86
9455.00,1.86
9454.00,1.86
9453.00,1.85
9452.00,1.85
9451.00,1.85
9450.00,1.85
9449.00,1.85
9448.00,1.85
9447.00,1.85
9446.00,1.85
9445.00,1.85
9444.00,1.85
9443.00,1.85
9442.00,1.86
9441.00,1.86
9440.00,1.86
9439.00,1.86
9438.00,1.86
9437.00,1.86
9436.00,1.86
9435.00,1.86
9434.00,1.86
9433.00,1.86
9432.00,1.86
9431.00,1.87
9430.00,1.87
9429.00,1.87
9428.00,1.87
9427.00,1.87
9426.00,1.87
9425.00,1.86
9424.00,1.86
9423.00,1.86
9422.00,1.85
9421.00,1.85
9420.00,1.84
9419.00,1.84
9418.00,1.83
9417.00,1.82
9416.00,1.81
9415.00,1.80
9414.00,1.80
9413.00,1.79
9412.00,1.78
9411.00,1.77
9410.00,1.77
9409.00,1.76
9408.00,1.75
9407.00,1.75
9406.00,1.74
9405.00,1.74
9404.00,1.73
9403.00,1.73
9402.00,1.72
9401.00,1.72
9400.00,1.72
9399.00,1.72
9398.00,1.72
9397.00,1.73
9396.00,1.73
9395.00,1.73
9394.00,1.74
9393.00,1.74
9392.00,1.75
9391.00,1.76
9390.00,1.77
9389.00,1.77
9388.00,1.78
9387.00,1.79
9386.00,1.80
9385.00,1.81
9384.00,1.81
9383.00,1.82
9382.00,1.83
9381.00,1.84
9380.00,1.84
9379.00,1.85
9378.00,1.85
9377.00,1.85
9376.00,1.86
9375.00,1.86
9374.00,1.85
9373.00,1.85
9372.00,1.85
9371.00,1.84
9370.00,1.84
9369.00,1.83
9368.00,1.82
9367.00,1.82
9366.00,1.81
9365.00,1.80
9364.00,1.79
9363.00,1.79
9362.00,1.78
9361.00,1.77
9360.00,1.76
9359.00,1.75
9358.00,1.75
9357.00,1.74
9356.00,1.73
9355.00,1.72
9354.00,1.72
9353.00,1.71
9352.00,1.71
9351.00,1.70
9350.00,1.70
9349.00,1.69
9348.00,1.69
9347.00,1.69
9346.00,1.69
9345.00,1.69
9344.00,1.69
9343.00,1.70
9342.00,1.70
9341.00,1.70
9340.00,1.70
9339.00,1.70
9338.00,1.71
9337.00,1.71
9336.00,1.71
9335.00,1.71
9334.00,1.71
9333.00,1.71
9332.00,1.71
9331.00,1.72
9330.00,1.72
9329.00,1.72
9328.00,1.72
9327.00,1.72
9326.00,1.72
9325.00,1.73
9324.00,1.73
9323.00,1.73
9322.00,1.73
9321.00,1.73
9320.00,1.74
9319.00,1.74
9318.00,1.74
9317.00,1.74
9316.00,1.74
9315.00,1.74
9314.00,1.74
9313.00,1.74
9312.00,1.75
9311.00,1.75
9310.00,1.75
9309.00,1.75
9308.00,1.75
9307.00,1.76
9306.00,1.76
9305.00,1.76
9304.00,1.76
9303.00,1.76
9302.00,1.76
9301.00,1.77
9300.00,1.77
9299.00,1.77
9298.00,1.77
9297.00,1.77
9296.00,1.77
9295.00,1.77
9294.00,1.77
9293.00,1.77
9292.00,1.77
9291.00,1.77
9290.00,1.77
9289.00,1.77
9288.00,1.77
9287.00,1.77
9286.00,1.76
9285.00,1.76
9284.00,1.76
9283.00,1.76
9282.00,1.75
9281.00,1.75
9280.00,1.74
9279.00,1.74
9278.00,1.73
9277.00,1.73
9276.00,1.72
9275.00,1.72
9274.00,1.71
9273.00,1.71
9272.00,1.70
9271.00,1.70
9270.00,1.69
9269.00,1.69
9268.00,1.68
9267.00,1.68
9266.00,1.68
9265.00,1.67
9264.00,1.67
9263.00,1.67
9262.00,1.67
9261.00,1.67
9260.00,1.67
9259.00,1.67
9258.00,1.67
9257.00,1.67
9256.00,1.68
9255.00,1.68
9254.00,1.69
9253.00,1.70
9252.00,1.71
9251.00,1.72
9250.00,1.73
9249.00,1.74
9248.00,1.75
9247.00,1.76
9246.00,1.77
9245.00,1.78
9244.00,1.79
9243.00,1.80
9242.00,1.81
9241.00,1.82
9240.00,1.83
9239.00,1.83
9238.00,1.84
9237.00,1.84
9236.00,1.85
9235.00,1.85
9234.00,1.86
9233.00,1.86
9232.00,1.86
9231.00,1.86
9230.00,1.87
9229.00,1.87
9228.00,1.87
9227.00,1.87
9226.00,1.86
9225.00,1.86
9224.00,1.86
9223.00,1.85
9222.00,1.85
9221.00,1.85
9220.00,1.84
9219.00,1.84
9218.00,1.84
9217.00,1.84
9216.00,1.84
9215.00,1.84
9214.00,1.84
9213.00,1.84
9212.00,1.84
9211.00,1.84
9210.00,1.84
9209.00,1.84
9208.00,1.84
9207.00,1.84
9206.00,1.84
9205.00,1.85
9204.00,1.85
9203.00,1.85
9202.00,1.85
9201.00,1.85
9200.00,1.85
9199.00,1.85
9198.00,1.85
9197.00,1.85
9196.00,1.85
9195.00,1.85
9194.00,1.85
9193.00,1.85
9192.00,1.85
9191.00,1.85
9190.00,1.85
9189.00,1.85
9188.00,1.85
9187.00,1.85
9186.00,1.85
9185.00,1.85
9184.00,1.85
9183.00,1.84
9182.00,1.84
9181.00,1.84
9180.00,1.84
9179.00,1.84
9178.00,1.83
9177.00,1.83
9176.00,1.83
9175.00,1.83
9174.00,1.82
9173.00,1.82
9172.00,1.82
9171.00,1.82
9170.00,1.81
9169.00,1.81
9168.00,1.81
9167.00,1.81
9166.00,1.81
9165.00,1.81
9164.00,1.81
9163.00,1.80
9162.00,1.80
9161.00,1.80
9160.00,1.80
9159.00,1.80
9158.00,1.80
9157.00,1.80
9156.00,1.80
9155.00,1.80
9154.00,1.80
9153.00,1.81
9152.00,1.81
9151.00,1.81
9150.00,1.81
9149.00,1.82
9148.00,1.82
9147.00,1.82
9146.00,1.83
9145.00,1.83
9144.00,1.83
9143.00,1.84
9142.00,1.84
9141.00,1.85
9140.00,1.85
9139.00,1.85
9138.00,1.86
9137.00,1.86
9136.00,1.86
9135.00,1.86
9134.00,1.87
9133.00,1.87
9132.00,1.87
9131.00,1.87
9130.00,1.88
9129.00,1.88
9128.00,1.88
9127.00,1.88
9126.00,1.88
9125.00,1.88
9124.00,1.88
9123.00,1.88
9122.00,1.88
9121.00,1.89
9120.00,1.89
9119.00,1.89
9118.00,1.89
9117.00,1.89
9116.00,1.89
9115.00,1.89
9114.00,1.89
9113.00,1.89
9112.00,1.89
9111.00,1.89
9110.00,1.89
9109.00,1.89
9108.00,1.89
9107.00,1.90
9106.00,1.90
9105.00,1.90
9104.00,1.90
9103.00,1.90
9102.00,1.90
9101.00,1.90
9100.00,1.90
9099.00,1.91
9098.00,1.91
9097.00,1.91
9096.00,1.91
9095.00,1.91
9094.00,1.91
9093.00,1.91
9092.00,1.90
9091.00,1.90
9090.00,1.90
9089.00,1.90
9088.00,1.90
9087.00,1.90
9086.00,1.89
9085.00,1.89
9084.00,1.89
9083.00,1.89
9082.00,1.89
9081.00,1.88
9080.00,1.88
9079.00,1.88
9078.00,1.88
9077.00,1.87
9076.00,1.87
9075.00,1.87
9074.00,1.86
9073.00,1.86
9072.00,1.86
9071.00,1.85
9070.00,1.85
9069.00,1.85
9068.00,1.85
9067.00,1.85
9066.00,1.85
9065.00,1.84
9064.00,1.84
9063.00,1.84
9062.00,1.84
9061.00,1.83
9060.00,1.83
9059.00,1.83
9058.00,1.82
9057.00,1.82
9056.00,1.82
9055.00,1.81
9054.00,1.81
9053.00,1.80
9052.00,1.80
9051.00,1.80
9050.00,1.79
9049.00,1.79
9048.00,1.78
9047.00,1.78
9046.00,1.78
9045.00,1.77
9044.00,1.77
9043.00,1.77
9042.00,1.76
9041.00,1.76
9040.00,1.76
9039.00,1.76
9038.00,1.76
9037.00,1.76
9036.00,1.76
9035.00,1.76
9034.00,1.76
9033.00,1.76
9032.00,1.76
9031.00,1.77
9030.00,1.77
9029.00,1.77
9028.00,1.78
9027.00,1.78
9026.00,1.79
9025.00,1.80
9024.00,1.80
9023.00,1.81
9022.00,1.82
9021.00,1.83
9020.00,1.83
9019.00,1.84
9018.00,1.85
9017.00,1.85
9016.00,1.86
9015.00,1.86
9014.00,1.87
9013.00,1.87
9012.00,1.87
9011.00,1.87
9010.00,1.87
9009.00,1.87
9008.00,1.88
9007.00,1.88
9006.00,1.88
9005.00,1.88
9004.00,1.88
9003.00,1.87
9002.00,1.87
9001.00,1.87
9000.00,1.87
8999.00,1.86
8998.00,1.86
8997.00,1.85
8996.00,1.84
8995.00,1.84
8994.00,1.83
8993.00,1.83
8992.00,1.82
8991.00,1.82
8990.00,1.81
8989.00,1.81
8988.00,1.80
8987.00,1.80
8986.00,1.80
8985.00,1.79
8984.00,1.79
8983.00,1.79
8982.00,1.78
8981.00,1.78
8980.00,1.78
8979.00,1.77
8978.00,1.77
8977.00,1.77
8976.00,1.77
8975.00,1.76
8974.00,1.76
8973.00,1.76
8972.00,1.76
8971.00,1.75
8970.00,1.75
8969.00,1.75
8968.00,1.75
8967.00,1.75
8966.00,1.75
8965.00,1.75
8964.00,1.75
8963.00,1.74
8962.00,1.74
8961.00,1.74
8960.00,1.74
8959.00,1.74
8958.00,1.74
8957.00,1.74
8956.00,1.74
8955.00,1.74
8954.00,1.74
8953.00,1.74
8952.00,1.74
8951.00,1.74
8950.00,1.74
8949.00,1.75
8948.00,1.75
8947.00,1.75
8946.00,1.76
8945.00,1.76
8944.00,1.76
8943.00,1.77
8942.00,1.77
8941.00,1.78
8940.00,1.78
8939.00,1.79
8938.00,1.80
8937.00,1.80
8936.00,1.81
8935.00,1.81
8934.00,1.82
8933.00,1.83
8932.00,1.83
8931.00,1.84
8930.00,1.84
8929.00,1.85
8928.00,1.86
8927.00,1.86
8926.00,1.87
8925.00,1.87
8924.00,1.88
8923.00,1.88
8922.00,1.89
8921.00,1.89
8920.00,1.89
8919.00,1.89
8918.00,1.89
8917.00,1.89
8916.00,1.89
8915.00,1.89
8914.00,1.89
8913.00,1.88
8912.00,1.88
8911.00,1.88
8910.00,1.88
8909.00,1.88
8908.00,1.88
8907.00,1.87
8906.00,1.87
8905.00,1.87
8904.00,1.86
8903.00,1.86
8902.00,1.86
8901.00,1.85
8900.00,1.85
8899.00,1.85
8898.00,1.84
8897.00,1.84
8896.00,1.84
8895.00,1.83
8894.00,1.83
8893.00,1.83
8892.00,1.83
8891.00,1.83
8890.00,1.83
8889.00,1.83
8888.00,1.83
8887.00,1.83
8886.00,1.83
8885.00,1.83
8884.00,1.82
8883.00,1.82
8882.00,1.82
8881.00,1.82
8880.00,1.82
8879.00,1.82
8878.00,1.82
8877.00,1.82
8876.00,1.82
8875.00,1.82
8874.00,1.82
8873.00,1.82
8872.00,1.82
8871.00,1.82
8870.00,1.82
8869.00,1.83
8868.00,1.83
8867.00,1.83
8866.00,1.83
8865.00,1.83
8864.00,1.84
8863.00,1.84
8862.00,1.84
8861.00,1.84
8860.00,1.84
8859.00,1.85
8858.00,1.85
8857.00,1.85
8856.00,1.85
8855.00,1.86
8854.00,1.86
8853.00,1.86
8852.00,1.86
8851.00,1.86
8850.00,1.86
8849.00,1.86
8848.00,1.85
8847.00,1.85
8846.00,1.85
8845.00,1.85
8844.00,1.84
8843.00,1.84
8842.00,1.84
8841.00,1.83
8840.00,1.83
8839.00,1.82
8838.00,1.82
8837.00,1.81
8836.00,1.81
8835.00,1.80
8834.00,1.80
8833.00,1.79
8832.00,1.79
8831.00,1.78
8830.00,1.78
8829.00,1.77
8828.00,1.77
8827.00,1.77
8826.00,1.76
8825.00,1.76
8824.00,1.76
8823.00,1.76
8822.00,1.76
8821.00,1.76
8820.00,1.76
8819.00,1.76
8818.00,1.76
8817.00,1.76
8816.00,1.76
8815.00,1.76
8814.00,1.77
8813.00,1.77
8812.00,1.78
8811.00,1.78
8810.00,1.79
8809.00,1.79
8808.00,1.80
8807.00,1.80
8806.00,1.81
8805.00,1.82
8804.00,1.82
8803.00,1.83
8802.00,1.83
8801.00,1.84
8800.00,1.84
8799.00,1.85
8798.00,1.86
8797.00,1.86
8796.00,1.87
8795.00,1.87
8794.00,1.88
8793.00,1.88
8792.00,1.89
8791.00,1.89
8790.00,1.90
8789.00,1.90
8788.00,1.90
8787.00,1.90
8786.00,1.90
8785.00,1.90
8784.00,1.90
8783.00,1.90
8782.00,1.90
8781.00,1.90
8780.00,1.90
8779.00,1.90
8778.00,1.90
8777.00,1.90
8776.00,1.90
8775.00,1.89
8774.00,1.89
8773.00,1.89
8772.00,1.89
8771.00,1.88
8770.00,1.88
8769.00,1.88
8768.00,1.87
8767.00,1.87
8766.00,1.86
8765.00,1.86
8764.00,1.85
8763.00,1.85
8762.00,1.85
8761.00,1.84
8760.00,1.84
8759.00,1.83
8758.00,1.83
8757.00,1.83
8756.00,1.82
8755.00,1.82
8754.00,1.81
8753.00,1.81
8752.00,1.81
8751.00,1.80
8750.00,1.80
8749.00,1.80
8748.00,1.79
8747.00,1.79
8746.00,1.79
8745.00,1.79
8744.00,1.79
8743.00,1.79
8742.00,1.79
8741.00,1.79
8740.00,1.79
8739.00,1.79
8738.00,1.79
8737.00,1.80
8736.00,1.80
8735.00,1.80
8734.00,1.81
8733.00,1.81
8732.00,1.81
8731.00,1.82
8730.00,1.82
8729.00,1.83
8728.00,1.83
8727.00,1.84
8726.00,1.84
8725.00,1.84
8724.00,1.85
8723.00,1.85
8722.00,1.86
8721.00,1.86
8720.00,1.86
8719.00,1.87
8718.00,1.87
8717.00,1.87
8716.00,1.88
8715.00,1.88
8714.00,1.88
8713.00,1.88
8712.00,1.88
8711.00,1.88
8710.00,1.88
8709.00,1.88
8708.00,1.87
8707.00,1.87
8706.00,1.87
8705.00,1.86
8704.00,1.86
8703.00,1.86
8702.00,1.86
8701.00,1.85
8700.00,1.85
8699.00,1.85
8698.00,1.84
8697.00,1.84
8696.00,1.84
8695.00,1.83
8694.00,1.83
8693.00,1.83
8692.00,1.82
8691.00,1.82
8690.00,1.82
8689.00,1.81
8688.00,1.81
8687.00,1.81
8686.00,1.80
8685.00,1.80
8684.00,1.80
8683.00,1.80
8682.00,1.80
8681.00,1.80
8680.00,1.80
8679.00,1.80
8678.00,1.80
8677.00,1.80
8676.00,1.80
8675.00,1.80
8674.00,1.80
8673.00,1.80
8672.00,1.80
8671.00,1.80
8670.00,1.80
8669.00,1.80
8668.00,1.80
8667.00,1.80
8666.00,1.81
8665.00,1.81
8664.00,1.81
8663.00,1.81
8662.00,1.81
8661.00,1.82
8660.00,1.82
8659.00,1.82
8658.00,1.82
8657.00,1.82
8656.00,1.83
8655.00,1.83
8654.00,1.83
8653.00,1.83
8652.00,1.82
8651.00,1.82
8650.00,1.82
8649.00,1.82
8648.00,1.82
8647.00,1.82
8646.00,1.82
8645.00,1.81
8644.00,1.81
8643.00,1.81
8642.00,1.81
8641.00,1.81
8640.00,1.81
8639.00,1.81
8638.00,1.81
8637.00,1.81
8636.00,1.81
8635.00,1.80
8634.00,1.80
8633.00,1.80
8632.00,1.80
8631.00,1.80
8630.00,1.79
8629.00,1.79
8628.00,1.79
8627.00,1.79
8626.00,1.79
8625.00,1.79
8624.00,1.79
8623.00,1.80
8622.00,1.80
8621.00,1.80
8620.00,1.80
8619.00,1.80
8618.00,1.81
8617.00,1.81
8616.00,1.81
8615.00,1.81
8614.00,1.81
8613.00,1.81
8612.00,1.81
8611.00,1.82
8610.00,1.82
8609.00,1.82
8608.00,1.82
8607.00,1.82
8606.00,1.83
8605.00,1.83
8604.00,1.83
8603.00,1.84
8602.00,1.84
8601.00,1.84
8600.00,1.85
8599.00,1.85
8598.00,1.85
8597.00,1.85
8596.00,1.86
8595.00,1.86
8594.00,1.86
8593.00,1.86
8592.00,1.86
8591.00,1.87
8590.00,1.87
8589.00,1.87
8588.00,1.87
8587.00,1.87
8586.00,1.88
8585.00,1.88
8584.00,1.88
8583.00,1.88
8582.00,1.88
8581.00,1.88
8580.00,1.88
8579.00,1.88
8578.00,1.88
8577.00,1.87
8576.00,1.87
8575.00,1.87
8574.00,1.87
8573.00,1.87
8572.00,1.87
8571.00,1.87
8570.00,1.86
8569.00,1.86
8568.00,1.86
8567.00,1.86
8566.00,1.86
8565.00,1.86
8564.00,1.86
8563.00,1.85
8562.00,1.85
8561.00,1.85
8560.00,1.85
8559.00,1.85
8558.00,1.85
8557.00,1.85
8556.00,1.85
8555.00,1.85
8554.00,1.85
8553.00,1.85
8552.00,1.84
8551.00,1.84
8550.00,1.84
8549.00,1.84
8548.00,1.84
8547.00,1.83
8546.00,1.83
8545.00,1.83
8544.00,1.83
8543.00,1.82
8542.00,1.82
8541.00,1.82
8540.00,1.81
8539.00,1.81
8538.00,1.80
8537.00,1.80
8536.00,1.80
8535.00,1.79
8534.00,1.79
8533.00,1.78
8532.00,1.78
8531.00,1.77
8530.00,1.77
8529.00,1.76
8528.00,1.76
8527.00,1.76
8526.00,1.75
8525.00,1.75
8524.00,1.75
8523.00,1.75
8522.00,1.75
8521.00,1.75
8520.00,1.75
8519.00,1.75
8518.00,1.76
8517.00,1.76
8516.00,1.76
8515.00,1.76
8514.00,1.76
8513.00,1.77
8512.00,1.77
8511.00,1.77
8510.00,1.78
8509.00,1.78
8508.00,1.79
8507.00,1.79
8506.00,1.80
8505.00,1.80
8504.00,1.81
8503.00,1.82
8502.00,1.82
8501.00,1.83
8500.00,1.83
8499.00,1.84
8498.00,1.84
8497.00,1.85
8496.00,1.85
8495.00,1.85
8494.00,1.85
8493.00,1.86
8492.00,1.86
8491.00,1.86
8490.00,1.86
8489.00,1.87
8488.00,1.87
8487.00,1.87
8486.00,1.87
8485.00,1.87
8484.00,1.88
8483.00,1.88
8482.00,1.87
8481.00,1.87
8480.00,1.87
8479.00,1.87
8478.00,1.87
8477.00,1.86
8476.00,1.86
8475.00,1.86
8474.00,1.85
8473.00,1.85
8472.00,1.84
8471.00,1.84
8470.00,1.84
8469.00,1.83
8468.00,1.83
8467.00,1.83
8466.00,1.82
8465.00,1.82
8464.00,1.81
8463.00,1.81
8462.00,1.81
8461.00,1.80
8460.00,1.80
8459.00,1.80
8458.00,1.79
8457.00,1.79
8456.00,1.79
8455.00,1.79
8454.00,1.79
8453.00,1.79
8452.00,1.79
8451.00,1.79
8450.00,1.79
8449.00,1.79
8448.00,1.79
8447.00,1.79
8446.00,1.79
8445.00,1.80
8444.00,1.80
8443.00,1.80
8442.00,1.80
8441.00,1.80
8440.00,1.80
8439.00,1.80
8438.00,1.80
8437.00,1.81
8436.00,1.81
8435.00,1.81
8434.00,1.81
8433.00,1.80
8432.00,1.80
8431.00,1.80
8430.00,1.80
8429.00,1.80
8428.00,1.80
8427.00,1.80
8426.00,1.80
8425.00,1.79
8424.00,1.79
8423.00,1.79
8422.00,1.79
8421.00,1.78
8420.00,1.78
8419.00,1.78
8418.00,1.77
8417.00,1.77
8416.00,1.77
8415.00,1.77
8414.00,1.76
8413.00,1.76
8412.00,1.76
8411.00,1.76
8410.00,1.76
8409.00,1.75
8408.00,1.75
8407.00,1.75
8406.00,1.76
8405.00,1.76
8404.00,1.76
8403.00,1.76
8402.00,1.76
8401.00,1.76
8400.00,1.77
8399.00,1.77
8398.00,1.77
8397.00,1.77
8396.00,1.78
8395.00,1.78
8394.00,1.78
8393.00,1.79
8392.00,1.79
8391.00,1.79
8390.00,1.80
8389.00,1.80
8388.00,1.80
8387.00,1.80
8386.00,1.81
8385.00,1.81
8384.00,1.81
8383.00,1.81
8382.00,1.81
8381.00,1.82
8380.00,1.82
8379.00,1.82
8378.00,1.82
8377.00,1.82
8376.00,1.82
8375.00,1.82
8374.00,1.82
8373.00,1.82
8372.00,1.81
8371.00,1.81
8370.00,1.81
8369.00,1.81
8368.00,1.81
8367.00,1.81
8366.00,1.81
8365.00,1.81
8364.00,1.82
8363.00,1.82
8362.00,1.82
8361.00,1.82
8360.00,1.83
8359.00,1.83
8358.00,1.83
8357.00,1.84
8356.00,1.84
8355.00,1.84
8354.00,1.85
8353.00,1.85
8352.00,1.86
8351.00,1.86
8350.00,1.87
8349.00,1.87
8348.00,1.88
8347.00,1.88
8346.00,1.88
8345.00,1.89
8344.00,1.89
8343.00,1.89
8342.00,1.89
8341.00,1.89
8340.00,1.89
8339.00,1.89
8338.00,1.89
8337.00,1.89
8336.00,1.89
8335.00,1.88
8334.00,1.88
8333.00,1.88
8332.00,1.88
8331.00,1.88
8330.00,1.87
8329.00,1.87
8328.00,1.87
8327.00,1.87
8326.00,1.87
8325.00,1.87
8324.00,1.86
8323.00,1.86
8322.00,1.86
8321.00,1.86
8320.00,1.86
8319.00,1.86
8318.00,1.86
8317.00,1.86
8316.00,1.86
8315.00,1.86
8314.00,1.86
8313.00,1.86
8312.00,1.86
8311.00,1.87
8310.00,1.87
8309.00,1.87
8308.00,1.87
8307.00,1.87
8306.00,1.87
8305.00,1.88
8304.00,1.88
8303.00,1.87
8302.00,1.87
8301.00,1.87
8300.00,1.87
8299.00,1.87
8298.00,1.87
8297.00,1.87
8296.00,1.87
8295.00,1.87
8294.00,1.87
8293.00,1.87
8292.00,1.87
8291.00,1.87
8290.00,1.87
8289.00,1.87
8288.00,1.87
8287.00,1.87
8286.00,1.87
8285.00,1.87
8284.00,1.86
8283.00,1.86
8282.00,1.86
8281.00,1.86
8280.00,1.86
8279.00,1.86
8278.00,1.86
8277.00,1.86
8276.00,1.86
8275.00,1.86
8274.00,1.86
8273.00,1.85
8272.00,1.85
8271.00,1.85
8270.00,1.85
8269.00,1.85
8268.00,1.85
8267.00,1.85
8266.00,1.85
8265.00,1.84
8264.00,1.84
8263.00,1.84
8262.00,1.84
8261.00,1.84
8260.00,1.84
8259.00,1.84
8258.00,1.84
8257.00,1.84
8256.00,1.84
8255.00,1.84
8254.00,1.84
8253.00,1.84
8252.00,1.84
8251.00,1.84
8250.00,1.84
8249.00,1.84
8248.00,1.84
8247.00,1.84
8246.00,1.85
8245.00,1.85
8244.00,1.85
8243.00,1.85
8242.00,1.85
8241.00,1.86
8240.00,1.86
8239.00,1.86
8238.00,1.86
8237.00,1.87
8236.00,1.87
8235.00,1.87
8234.00,1.87
8233.00,1.88
8232.00,1.88
8231.00,1.88
8230.00,1.88
8229.00,1.89
8228.00,1.89
8227.00,1.89
8226.00,1.89
8225.00,1.89
8224.00,1.89
8223.00,1.90
8222.00,1.90
8221.00,1.90
8220.00,1.90
8219.00,1.90
8218.00,1.90
8217.00,1.90
8216.00,1.89
8215.00,1.89
8214.00,1.89
8213.00,1.89
8212.00,1.89
8211.00,1.89
8210.00,1.89
8209.00,1.89
8208.00,1.88
8207.00,1.88
8206.00,1.88
8205.00,1.88
8204.00,1.88
8203.00,1.88
8202.00,1.88
8201.00,1.87
8200.00,1.87
8199.00,1.87
8198.00,1.87
8197.00,1.87
8196.00,1.87
8195.00,1.87
8194.00,1.87
8193.00,1.87
8192.00,1.87
8191.00,1.87
8190.00,1.87
8189.00,1.87
8188.00,1.87
8187.00,1.87
8186.00,1.87
8185.00,1.88
8184.00,1.88
8183.00,1.88
8182.00,1.88
8181.00,1.88
8180.00,1.88
8179.00,1.88
8178.00,1.88
8177.00,1.88
8176.00,1.88
8175.00,1.88
8174.00,1.87
8173.00,1.87
8172.00,1.87
8171.00,1.87
8170.00,1.87
8169.00,1.87
8168.00,1.86
8167.00,1.86
8166.00,1.86
8165.00,1.85
8164.00,1.85
8163.00,1.85
8162.00,1.84
8161.00,1.84
8160.00,1.83
8159.00,1.83
8158.00,1.83
8157.00,1.82
8156.00,1.82
8155.00,1.82
8154.00,1.82
8153.00,1.81
8152.00,1.81
8151.00,1.81
8150.00,1.81
8149.00,1.81
8148.00,1.81
8147.00,1.81
8146.00,1.81
8145.00,1.81
8144.00,1.81
8143.00,1.81
8142.00,1.81
8141.00,1.81
8140.00,1.81
8139.00,1.81
8138.00,1.81
8137.00,1.82
8136.00,1.82
8135.00,1.82
8134.00,1.82
8133.00,1.82
8132.00,1.82
8131.00,1.82
8130.00,1.82
8129.00,1.82
8128.00,1.82
8127.00,1.82
8126.00,1.82
8125.00,1.82
8124.00,1.82
8123.00,1.82
8122.00,1.82
8121.00,1.82
8120.00,1.82
8119.00,1.82
8118.00,1.83
8117.00,1.83
8116.00,1.83
8115.00,1.83
8114.00,1.83
8113.00,1.83
8112.00,1.83
8111.00,1.83
8110.00,1.83
8109.00,1.83
8108.00,1.84
8107.00,1.84
8106.00,1.84
8105.00,1.84
8104.00,1.84
8103.00,1.84
8102.00,1.85
8101.00,1.85
8100.00,1.85
8099.00,1.85
8098.00,1.85
8097.00,1.84
8096.00,1.84
8095.00,1.84
8094.00,1.84
8093.00,1.84
8092.00,1.83
8091.00,1.83
8090.00,1.83
8089.00,1.83
8088.00,1.82
8087.00,1.82
8086.00,1.82
8085.00,1.82
8084.00,1.81
8083.00,1.81
8082.00,1.81
8081.00,1.81
8080.00,1.80
8079.00,1.80
8078.00,1.80
8077.00,1.80
8076.00,1.80
8075.00,1.80
8074.00,1.80
8073.00,1.80
8072.00,1.81
8071.00,1.81
8070.00,1.81
8069.00,1.82
8068.00,1.82
8067.00,1.82
8066.00,1.83
8065.00,1.83
8064.00,1.84
8063.00,1.84
8062.00,1.85
8061.00,1.85
8060.00,1.86
8059.00,1.86
8058.00,1.87
8057.00,1.87
8056.00,1.88
8055.00,1.88
8054.00,1.89
8053.00,1.89
8052.00,1.90
8051.00,1.90
8050.00,1.90
8049.00,1.90
8048.00,1.91
8047.00,1.91
8046.00,1.91
8045.00,1.91
8044.00,1.91
8043.00,1.90
8042.00,1.90
8041.00,1.90
8040.00,1.90
8039.00,1.90
8038.00,1.90
8037.00,1.90
8036.00,1.90
8035.00,1.90
8034.00,1.90
8033.00,1.89
8032.00,1.89
8031.00,1.89
8030.00,1.89
8029.00,1.89
8028.00,1.88
8027.00,1.88
8026.00,1.88
8025.00,1.88
8024.00,1.88
8023.00,1.88
8022.00,1.88
8021.00,1.88
8020.00,1.88
8019.00,1.88
8018.00,1.88
8017.00,1.88
8016.00,1.88
8015.00,1.88
8014.00,1.88
8013.00,1.88
8012.00,1.88
8011.00,1.88
8010.00,1.88
8009.00,1.88
8008.00,1.88
8007.00,1.88
8006.00,1.88
8005.00,1.88
8004.00,1.87
8003.00,1.87
8002.00,1.87
8001.00,1.87
8000.00,1.87
7999.00,1.87
7998.00,1.87
7997.00,1.86
7996.00,1.86
7995.00,1.86
7994.00,1.86
7993.00,1.86
7992.00,1.86
7991.00,1.85
7990.00,1.85
7989.00,1.85
7988.00,1.85
7987.00,1.85
7986.00,1.85
7985.00,1.85
7984.00,1.85
7983.00,1.85
7982.00,1.85
7981.00,1.85
7980.00,1.85
7979.00,1.85
7978.00,1.85
7977.00,1.85
7976.00,1.85
7975.00,1.85
7974.00,1.85
7973.00,1.85
7972.00,1.85
7971.00,1.85
7970.00,1.85
7969.00,1.86
7968.00,1.86
7967.00,1.86
7966.00,1.86
7965.00,1.86
7964.00,1.86
7963.00,1.86
7962.00,1.87
7961.00,1.87
7960.00,1.87
7959.00,1.87
7958.00,1.87
7957.00,1.88
7956.00,1.88
7955.00,1.88
7954.00,1.88
7953.00,1.88
7952.00,1.89
7951.00,1.89
7950.00,1.89
7949.00,1.90
7948.00,1.90
7947.00,1.90
7946.00,1.91
7945.00,1.91
7944.00,1.91
7943.00,1.92
7942.00,1.92
7941.00,1.92
7940.00,1.92
7939.00,1.93
7938.00,1.93
7937.00,1.93
7936.00,1.94
7935.00,1.94
7934.00,1.94
7933.00,1.94
7932.00,1.95
7931.00,1.95
7930.00,1.95
7929.00,1.95
7928.00,1.95
7927.00,1.95
7926.00,1.95
7925.00,1.95
7924.00,1.95
7923.00,1.95
7922.00,1.95
7921.00,1.94
7920.00,1.94
7919.00,1.94
7918.00,1.94
7917.00,1.94
7916.00,1.93
7915.00,1.93
7914.00,1.93
7913.00,1.93
7912.00,1.93
7911.00,1.92
7910.00,1.92
7909.00,1.92
7908.00,1.92
7907.00,1.92
7906.00,1.91
7905.00,1.91
7904.00,1.91
7903.00,1.91
7902.00,1.91
7901.00,1.91
7900.00,1.91
7899.00,1.91
7898.00,1.91
7897.00,1.91
7896.00,1.91
7895.00,1.91
7894.00,1.91
7893.00,1.92
7892.00,1.92
7891.00,1.92
7890.00,1.92
7889.00,1.92
7888.00,1.92
7887.00,1.93
7886.00,1.93
7885.00,1.93
7884.00,1.93
7883.00,1.94
7882.00,1.94
7881.00,1.94
7880.00,1.95
7879.00,1.95
7878.00,1.95
7877.00,1.96
7876.00,1.96
7875.00,1.96
7874.00,1.96
7873.00,1.97
7872.00,1.97
7871.00,1.97
7870.00,1.97
7869.00,1.97
7868.00,1.97
7867.00,1.98
7866.00,1.98
7865.00,1.98
7864.00,1.98
7863.00,1.98
7862.00,1.98
7861.00,1.98
7860.00,1.98
7859.00,1.98
7858.00,1.98
7857.00,1.98
7856.00,1.98
7855.00,1.98
7854.00,1.98
7853.00,1.98
7852.00,1.97
7851.00,1.97
7850.00,1.97
7849.00,1.97
7848.00,1.97
7847.00,1.97
7846.00,1.96
7845.00,1.96
7844.00,1.96
7843.00,1.96
7842.00,1.96
7841.00,1.96
7840.00,1.96
7839.00,1.95
7838.00,1.95
7837.00,1.95
7836.00,1.95
7835.00,1.95
7834.00,1.94
7833.00,1.94
7832.00,1.94
7831.00,1.94
7830.00,1.94
7829.00,1.94
7828.00,1.94
7827.00,1.93
7826.00,1.93
7825.00,1.93
7824.00,1.93
7823.00,1.94
7822.00,1.94
7821.00,1.94
7820.00,1.94
7819.00,1.94
7818.00,1.94
7817.00,1.94
7816.00,1.94
7815.00,1.94
7814.00,1.94
7813.00,1.94
7812.00,1.94
7811.00,1.94
7810.00,1.95
7809.00,1.95
7808.00,1.95
7807.00,1.95
7806.00,1.95
7805.00,1.95
7804.00,1.96
7803.00,1.96
7802.00,1.96
7801.00,1.96
7800.00,1.96
7799.00,1.96
7798.00,1.96
7797.00,1.96
7796.00,1.96
7795.00,1.96
7794.00,1.96
7793.00,1.96
7792.00,1.96
7791.00,1.96
7790.00,1.96
7789.00,1.96
7788.00,1.96
7787.00,1.96
7786.00,1.96
7785.00,1.96
7784.00,1.97
7783.00,1.97
7782.00,1.97
7781.00,1.97
7780.00,1.97
7779.00,1.97
7778.00,1.97
7777.00,1.97
7776.00,1.97
7775.00,1.97
7774.00,1.97
7773.00,1.97
7772.00,1.97
7771.00,1.97
7770.00,1.97
7769.00,1.97
7768.00,1.97
7767.00,1.97
7766.00,1.97
7765.00,1.97
7764.00,1.97
7763.00,1.97
7762.00,1.97
7761.00,1.97
7760.00,1.97
7759.00,1.97
7758.00,1.97
7757.00,1.97
7756.00,1.97
7755.00,1.97
7754.00,1.97
7753.00,1.97
7752.00,1.97
7751.00,1.97
7750.00,1.97
7749.00,1.97
7748.00,1.97
7747.00,1.97
7746.00,1.98
7745.00,1.98
7744.00,1.98
7743.00,1.98
7742.00,1.98
7741.00,1.98
7740.00,1.98
7739.00,1.98
7738.00,1.98
7737.00,1.98
7736.00,1.98
7735.00,1.97
7734.00,1.97
7733.00,1.97
7732.00,1.97
7731.00,1.97
7730.00,1.97
7729.00,1.97
7728.00,1.97
7727.00,1.97
7726.00,1.97
7725.00,1.97
7724.00,1.97
7723.00,1.97
7722.00,1.97
7721.00,1.97
7720.00,1.97
7719.00,1.97
7718.00,1.97
7717.00,1.97
7716.00,1.96
7715.00,1.96
7714.00,1.96
7713.00,1.96
7712.00,1.96
7711.00,1.96
7710.00,1.96
7709.00,1.96
7708.00,1.96
7707.00,1.95
7706.00,1.95
7705.00,1.95
7704.00,1.95
7703.00,1.95
7702.00,1.94
7701.00,1.94
7700.00,1.94
7699.00,1.93
7698.00,1.93
7697.00,1.93
7696.00,1.92
7695.00,1.92
7694.00,1.92
7693.00,1.92
7692.00,1.92
7691.00,1.91
7690.00,1.91
7689.00,1.91
7688.00,1.91
7687.00,1.91
7686.00,1.91
7685.00,1.91
7684.00,1.91
7683.00,1.91
7682.00,1.91
7681.00,1.91
7680.00,1.91
7679.00,1.91
7678.00,1.91
7677.00,1.91
7676.00,1.92
7675.00,1.92
7674.00,1.92
7673.00,1.92
7672.00,1.92
7671.00,1.93
7670.00,1.93
7669.00,1.93
7668.00,1.93
7667.00,1.94
7666.00,1.94
7665.00,1.94
7664.00,1.94
7663.00,1.95
7662.00,1.95
7661.00,1.95
7660.00,1.95
7659.00,1.96
7658.00,1.96
7657.00,1.96
7656.00,1.96
7655.00,1.96
7654.00,1.96
7653.00,1.96
7652.00,1.97
7651.00,1.97
7650.00,1.97
7649.00,1.97
7648.00,1.97
7647.00,1.97
7646.00,1.98
7645.00,1.98
7644.00,1.98
7643.00,1.98
7642.00,1.98
7641.00,1.98
7640.00,1.99
7639.00,1.99
7638.00,1.99
7637.00,1.99
7636.00,1.99
7635.00,1.99
7634.00,1.99
7633.00,1.99
7632.00,1.99
7631.00,1.99
7630.00,1.99
7629.00,1.99
7628.00,1.99
7627.00,1.99
7626.00,1.99
7625.00,1.99
7624.00,1.99
7623.00,1.99
7622.00,1.99
7621.00,1.99
7620.00,1.99
7619.00,1.99
7618.00,1.98
7617.00,1.98
7616.00,1.98
7615.00,1.98
7614.00,1.98
7613.00,1.98
7612.00,1.97
7611.00,1.97
7610.00,1.97
7609.00,1.97
7608.00,1.97
7607.00,1.97
7606.00,1.97
7605.00,1.97
7604.00,1.97
7603.00,1.97
7602.00,1.97
7601.00,1.98
7600.00,1.98
7599.00,1.98
7598.00,1.98
7597.00,1.98
7596.00,1.98
7595.00,1.98
7594.00,1.98
7593.00,1.98
7592.00,1.98
7591.00,1.99
7590.00,1.99
7589.00,1.99
7588.00,1.99
7587.00,1.99
7586.00,1.99
7585.00,1.98
7584.00,1.98
7583.00,1.98
7582.00,1.98
7581.00,1.98
7580.00,1.97
7579.00,1.97
7578.00,1.97
7577.00,1.97
7576.00,1.96
7575.00,1.96
7574.00,1.96
7573.00,1.96
7572.00,1.95
7571.00,1.95
7570.00,1.95
7569.00,1.94
7568.00,1.94
7567.00,1.94
7566.00,1.93
7565.00,1.93
7564.00,1.93
7563.00,1.93
7562.00,1.92
7561.00,1.92
7560.00,1.92
7559.00,1.92
7558.00,1.92
7557.00,1.92
7556.00,1.92
7555.00,1.92
7554.00,1.92
7553.00,1.92
7552.00,1.92
7551.00,1.92
7550.00,1.93
7549.00,1.93
7548.00,1.93
7547.00,1.93
7546.00,1.93
7545.00,1.93
7544.00,1.93
7543.00,1.93
7542.00,1.93
7541.00,1.94
7540.00,1.94
7539.00,1.94
7538.00,1.94
7537.00,1.94
7536.00,1.94
7535.00,1.94
7534.00,1.94
7533.00,1.94
7532.00,1.94
7531.00,1.94
7530.00,1.94
7529.00,1.94
7528.00,1.94
7527.00,1.94
7526.00,1.93
7525.00,1.93
7524.00,1.93
7523.00,1.93
7522.00,1.93
7521.00,1.93
7520.00,1.93
7519.00,1.93
7518.00,1.93
7517.00,1.92
7516.00,1.92
7515.00,1.92
7514.00,1.92
7513.00,1.92
7512.00,1.92
7511.00,1.92
7510.00,1.92
7509.00,1.92
7508.00,1.91
7507.00,1.91
7506.00,1.91
7505.00,1.91
7504.00,1.91
7503.00,1.91
7502.00,1.91
7501.00,1.91
7500.00,1.91
7499.00,1.92
7498.00,1.92
7497.00,1.92
7496.00,1.92
7495.00,1.92
7494.00,1.92
7493.00,1.92
7492.00,1.92
7491.00,1.92
7490.00,1.92
7489.00,1.92
7488.00,1.92
7487.00,1.92
7486.00,1.92
7485.00,1.92
7484.00,1.92
7483.00,1.92
7482.00,1.93
7481.00,1.93
7480.00,1.93
7479.00,1.93
7478.00,1.93
7477.00,1.93
7476.00,1.93
7475.00,1.93
7474.00,1.93
7473.00,1.93
7472.00,1.93
7471.00,1.93
7470.00,1.93
7469.00,1.93
7468.00,1.93
7467.00,1.93
7466.00,1.93
7465.00,1.93
7464.00,1.93
7463.00,1.93
7462.00,1.93
7461.00,1.93
7460.00,1.92
7459.00,1.92
7458.00,1.92
7457.00,1.92
7456.00,1.92
7455.00,1.92
7454.00,1.91
7453.00,1.91
7452.00,1.91
7451.00,1.91
7450.00,1.91
7449.00,1.91
7448.00,1.91
7447.00,1.91
7446.00,1.91
7445.00,1.91
7444.00,1.91
7443.00,1.91
7442.00,1.91
7441.00,1.91
7440.00,1.91
7439.00,1.91
7438.00,1.91
7437.00,1.91
7436.00,1.91
7435.00,1.91
7434.00,1.92
7433.00,1.92
7432.00,1.92
7431.00,1.92
7430.00,1.92
7429.00,1.92
7428.00,1.93
7427.00,1.93
7426.00,1.93
7425.00,1.93
7424.00,1.93
7423.00,1.93
7422.00,1.93
7421.00,1.93
7420.00,1.93
7419.00,1.93
7418.00,1.93
7417.00,1.93
7416.00,1.93
7415.00,1.93
7414.00,1.93
7413.00,1.93
7412.00,1.93
7411.00,1.93
7410.00,1.93
7409.00,1.93
7408.00,1.92
7407.00,1.92
7406.00,1.92
7405.00,1.92
7404.00,1.92
7403.00,1.92
7402.00,1.92
7401.00,1.92
7400.00,1.92
7399.00,1.92
7398.00,1.91
7397.00,1.91
7396.00,1.91
7395.00,1.91
7394.00,1.91
7393.00,1.91
7392.00,1.91
7391.00,1.91
7390.00,1.91
7389.00,1.91
7388.00,1.91
7387.00,1.91
7386.00,1.91
7385.00,1.91
7384.00,1.90
7383.00,1.90
7382.00,1.90
7381.00,1.90
7380.00,1.90
7379.00,1.90
7378.00,1.90
7377.00,1.90
7376.00,1.89
7375.00,1.89
7374.00,1.89
7373.00,1.89
7372.00,1.89
7371.00,1.89
7370.00,1.89
7369.00,1.88
7368.00,1.88
7367.00,1.88
7366.00,1.88
7365.00,1.88
7364.00,1.88
7363.00,1.88
7362.00,1.88
7361.00,1.88
7360.00,1.88
7359.00,1.88
7358.00,1.88
7357.00,1.88
7356.00,1.88
7355.00,1.88
7354.00,1.88
7353.00,1.88
7352.00,1.88
7351.00,1.88
7350.00,1.89
7349.00,1.89
7348.00,1.89
7347.00,1.89
7346.00,1.90
7345.00,1.90
7344.00,1.90
7343.00,1.90
7342.00,1.91
7341.00,1.91
7340.00,1.91
7339.00,1.91
7338.00,1.92
7337.00,1.92
7336.00,1.92
7335.00,1.92
7334.00,1.93
7333.00,1.93
7332.00,1.93
7331.00,1.93
7330.00,1.93
7329.00,1.93
7328.00,1.93
7327.00,1.94
7326.00,1.94
7325.00,1.94
7324.00,1.93
7323.00,1.93
7322.00,1.93
7321.00,1.93
7320.00,1.93
7319.00,1.92
7318.00,1.92
7317.00,1.92
7316.00,1.91
7315.00,1.91
7314.00,1.91
7313.00,1.90
7312.00,1.90
7311.00,1.90
7310.00,1.89
7309.00,1.89
7308.00,1.88
7307.00,1.88
7306.00,1.88
7305.00,1.87
7304.00,1.87
7303.00,1.86
7302.00,1.86
7301.00,1.86
7300.00,1.85
7299.00,1.85
7298.00,1.85
7297.00,1.85
7296.00,1.84
7295.00,1.84
7294.00,1.84
7293.00,1.84
7292.00,1.84
7291.00,1.84
7290.00,1.84
7289.00,1.84
7288.00,1.84
7287.00,1.84
7286.00,1.84
7285.00,1.84
7284.00,1.84
7283.00,1.84
7282.00,1.85
7281.00,1.85
7280.00,1.85
7279.00,1.85
7278.00,1.85
7277.00,1.85
7276.00,1.86
7275.00,1.86
7274.00,1.86
7273.00,1.86
7272.00,1.86
7271.00,1.86
7270.00,1.86
7269.00,1.86
7268.00,1.86
7267.00,1.86
7266.00,1.86
7265.00,1.86
7264.00,1.86
7263.00,1.86
7262.00,1.86
7261.00,1.86
7260.00,1.86
7259.00,1.86
7258.00,1.86
7257.00,1.86
7256.00,1.86
7255.00,1.86
7254.00,1.86
7253.00,1.86
7252.00,1.86
7251.00,1.86
7250.00,1.86
7249.00,1.86
7248.00,1.86
7247.00,1.86
7246.00,1.85
7245.00,1.85
7244.00,1.85
7243.00,1.85
7242.00,1.85
7241.00,1.85
7240.00,1.84
7239.00,1.84
7238.00,1.84
7237.00,1.84
7236.00,1.83
7235.00,1.83
7234.00,1.83
7233.00,1.82
7232.00,1.82
7231.00,1.81
7230.00,1.81
7229.00,1.80
7228.00,1.80
7227.00,1.80
7226.00,1.79
7225.00,1.79
7224.00,1.78
7223.00,1.78
7222.00,1.78
7221.00,1.77
7220.00,1.77
7219.00,1.77
7218.00,1.76
7217.00,1.76
7216.00,1.75
7215.00,1.75
7214.00,1.75
7213.00,1.74
7212.00,1.74
7211.00,1.74
7210.00,1.73
7209.00,1.73
7208.00,1.73
7207.00,1.73
7206.00,1.73
7205.00,1.72
7204.00,1.72
7203.00,1.72
7202.00,1.72
7201.00,1.72
7200.00,1.72
7199.00,1.71
7198.00,1.71
7197.00,1.71
7196.00,1.71
7195.00,1.71
7194.00,1.71
7193.00,1.70
7192.00,1.70
7191.00,1.70
7190.00,1.70
7189.00,1.70
7188.00,1.70
7187.00,1.70
7186.00,1.70
7185.00,1.69
7184.00,1.69
7183.00,1.69
7182.00,1.69
7181.00,1.69
7180.00,1.68
7179.00,1.68
7178.00,1.68
7177.00,1.68
7176.00,1.67
7175.00,1.67
7174.00,1.67
7173.00,1.66
7172.00,1.66
7171.00,1.66
7170.00,1.65
7169.00,1.65
7168.00,1.65
7167.00,1.64
7166.00,1.64
7165.00,1.64
7164.00,1.64
7163.00,1.63
7162.00,1.63
7161.00,1.63
7160.00,1.63
7159.00,1.62
7158.00,1.62
7157.00,1.62
7156.00,1.61
7155.00,1.61
7154.00,1.61
7153.00,1.61
7152.00,1.61
7151.00,1.60
7150.00,1.60
7149.00,1.60
7148.00,1.60
7147.00,1.60
7146.00,1.60
7145.00,1.60
7144.00,1.60
7143.00,1.60
7142.00,1.60
7141.00,1.59
7140.00,1.59
7139.00,1.59
7138.00,1.59
7137.00,1.59
7136.00,1.59
7135.00,1.59
7134.00,1.58
7133.00,1.58
7132.00,1.58
7131.00,1.58
7130.00,1.58
7129.00,1.58
7128.00,1.57
7127.00,1.57
7126.00,1.57
7125.00,1.57
7124.00,1.56
7123.00,1.56
7122.00,1.56
7121.00,1.56
7120.00,1.55
7119.00,1.55
7118.00,1.55
7117.00,1.54
7116.00,1.54
7115.00,1.53
7114.00,1.53
7113.00,1.53
7112.00,1.52
7111.00,1.52
7110.00,1.51
7109.00,1.51
7108.00,1.51
7107.00,1.50
7106.00,1.50
7105.00,1.50
7104.00,1.49
7103.00,1.49
7102.00,1.49
7101.00,1.48
7100.00,1.48
7099.00,1.47
7098.00,1.47
7097.00,1.47
7096.00,1.47
7095.00,1.46
7094.00,1.46
7093.00,1.46
7092.00,1.45
7091.00,1.45
7090.00,1.45
7089.00,1.44
7088.00,1.44
7087.00,1.43
7086.00,1.43
7085.00,1.43
7084.00,1.42
7083.00,1.42
7082.00,1.41
7081.00,1.41
7080.00,1.41
7079.00,1.40
7078.00,1.40
7077.00,1.39
7076.00,1.39
7075.00,1.39
7074.00,1.39
7073.00,1.38
7072.00,1.38
7071.00,1.38
7070.00,1.38
7069.00,1.38
7068.00,1.38
7067.00,1.38
7066.00,1.38
7065.00,1.38
7064.00,1.38
7063.00,1.38
7062.00,1.38
7061.00,1.38
7060.00,1.38
7059.00,1.38
7058.00,1.38
7057.00,1.39
7056.00,1.39
7055.00,1.39
7054.00,1.39
7053.00,1.39
7052.00,1.40
7051.00,1.40
7050.00,1.40
7049.00,1.40
7048.00,1.40
7047.00,1.40
7046.00,1.40
7045.00,1.40
7044.00,1.40
7043.00,1.40
7042.00,1.40
7041.00,1.40
7040.00,1.40
7039.00,1.39
7038.00,1.39
7037.00,1.39
7036.00,1.39
7035.00,1.39
7034.00,1.38
7033.00,1.38
7032.00,1.38
7031.00,1.38
7030.00,1.37
7029.00,1.37
7028.00,1.37
7027.00,1.37
7026.00,1.37
7025.00,1.37
7024.00,1.36
7023.00,1.36
7022.00,1.36
7021.00,1.36
7020.00,1.36
7019.00,1.36
7018.00,1.36
7017.00,1.36
7016.00,1.36
7015.00,1.36
7014.00,1.36
7013.00,1.35
7012.00,1.35
7011.00,1.35
7010.00,1.35
7009.00,1.35
7008.00,1.35
7007.00,1.35
7006.00,1.35
7005.00,1.34
7004.00,1.34
7003.00,1.34
7002.00,1.34
7001.00,1.34
7000.00,1.33
6999.00,1.33
6998.00,1.33
6997.00,1.32
6996.00,1.32
6995.00,1.32
6994.00,1.31
6993.00,1.31
6992.00,1.31
6991.00,1.31
6990.00,1.30
6989.00,1.30
6988.00,1.30
6987.00,1.30
6986.00,1.30
6985.00,1.29
6984.00,1.29
6983.00,1.29
6982.00,1.29
6981.00,1.29
6980.00,1.29
6979.00,1.29
6978.00,1.29
6977.00,1.29
6976.00,1.29
6975.00,1.29
6974.00,1.29
6973.00,1.29
6972.00,1.29
6971.00,1.29
6970.00,1.29
6969.00,1.29
6968.00,1.29
6967.00,1.29
6966.00,1.29
6965.00,1.29
6964.00,1.29
6963.00,1.30
6962.00,1.30
6961.00,1.30
6960.00,1.30
6959.00,1.30
6958.00,1.30
6957.00,1.30
6956.00,1.30
6955.00,1.30
6954.00,1.30
6953.00,1.30
6952.00,1.30
6951.00,1.30
6950.00,1.30
6949.00,1.30
6948.00,1.30
6947.00,1.30
6946.00,1.30
6945.00,1.30
6944.00,1.30
6943.00,1.30
6942.00,1.30
6941.00,1.30
6940.00,1.30
6939.00,1.30
6938.00,1.30
6937.00,1.30
6936.00,1.29
6935.00,1.29
6934.00,1.29
6933.00,1.29
6932.00,1.29
6931.00,1.29
6930.00,1.29
6929.00,1.29
6928.00,1.29
6927.00,1.29
6926.00,1.29
6925.00,1.29
6924.00,1.29
6923.00,1.29
6922.00,1.29
6921.00,1.29
6920.00,1.29
6919.00,1.29
6918.00,1.29
6917.00,1.29
6916.00,1.29
6915.00,1.29
6914.00,1.29
6913.00,1.29
6912.00,1.29
6911.00,1.30
6910.00,1.30
6909.00,1.30
6908.00,1.30
6907.00,1.30
6906.00,1.30
6905.00,1.30
6904.00,1.30
6903.00,1.30
6902.00,1.30
6901.00,1.30
6900.00,1.30
6899.00,1.30
6898.00,1.30
6897.00,1.30
6896.00,1.30
6895.00,1.30
6894.00,1.29
6893.00,1.29
6892.00,1.29
6891.00,1.29
6890.00,1.29
6889.00,1.29
6888.00,1.29
6887.00,1.29
6886.00,1.29
6885.00,1.29
6884.00,1.29
6883.00,1.29
6882.00,1.29
6881.00,1.29
6880.00,1.29
6879.00,1.29
6878.00,1.29
6877.00,1.29
6876.00,1.29
6875.00,1.29
6874.00,1.29
6873.00,1.29
6872.00,1.29
6871.00,1.29
6870.00,1.29
6869.00,1.29
6868.00,1.29
6867.00,1.29
6866.00,1.29
6865.00,1.29
6864.00,1.29
6863.00,1.29
6862.00,1.29
6861.00,1.29
6860.00,1.29
6859.00,1.29
6858.00,1.29
6857.00,1.28
6856.00,1.28
6855.00,1.28
6854.00,1.28
6853.00,1.28
6852.00,1.28
6851.00,1.27
6850.00,1.27
6849.00,1.27
6848.00,1.27
6847.00,1.27
6846.00,1.27
6845.00,1.27
6844.00,1.27
6843.00,1.27
6842.00,1.26
6841.00,1.26
6840.00,1.26
6839.00,1.26
6838.00,1.26
6837.00,1.26
6836.00,1.26
6835.00,1.26
6834.00,1.26
6833.00,1.26
6832.00,1.26
6831.00,1.27
6830.00,1.27
6829.00,1.27
6828.00,1.27
6827.00,1.27
6826.00,1.27
6825.00,1.27
6824.00,1.28
6823.00,1.28
6822.00,1.28
6821.00,1.28
6820.00,1.28
6819.00,1.28
6818.00,1.29
6817.00,1.29
6816.00,1.29
6815.00,1.29
6814.00,1.29
6813.00,1.29
6812.00,1.29
6811.00,1.29
6810.00,1.30
6809.00,1.30
6808.00,1.30
6807.00,1.30
6806.00,1.30
6805.00,1.31
6804.00,1.31
6803.00,1.31
6802.00,1.31
6801.00,1.31
6800.00,1.31
6799.00,1.32
6798.00,1.32
6797.00,1.32
6796.00,1.32
6795.00,1.32
6794.00,1.32
6793.00,1.32
6792.00,1.32
6791.00,1.32
6790.00,1.33
6789.00,1.33
6788.00,1.33
6787.00,1.33
6786.00,1.33
6785.00,1.33
6784.00,1.33
6783.00,1.33
6782.00,1.33
6781.00,1.34
6780.00,1.34
6779.00,1.34
6778.00,1.34
6777.00,1.33
6776.00,1.33
6775.00,1.33
6774.00,1.33
6773.00,1.33
6772.00,1.33
6771.00,1.33
6770.00,1.33
6769.00,1.33
6768.00,1.33
6767.00,1.33
6766.00,1.33
6765.00,1.33
6764.00,1.33
6763.00,1.33
6762.00,1.33
6761.00,1.33
6760.00,1.33
6759.00,1.33
6758.00,1.33
6757.00,1.33
6756.00,1.33
6755.00,1.33
6754.00,1.33
6753.00,1.33
6752.00,1.33
6751.00,1.34
6750.00,1.34
6749.00,1.34
6748.00,1.34
6747.00,1.34
6746.00,1.34
6745.00,1.35
6744.00,1.35
6743.00,1.35
6742.00,1.35
6741.00,1.35
6740.00,1.36
6739.00,1.36
6738.00,1.36
6737.00,1.36
6736.00,1.36
6735.00,1.36
6734.00,1.37
6733.00,1.37
6732.00,1.37
6731.00,1.37
6730.00,1.38
6729.00,1.38
6728.00,1.38
6727.00,1.39
6726.00,1.39
6725.00,1.39
6724.00,1.39
6723.00,1.40
6722.00,1.40
6721.00,1.40
6720.00,1.40
6719.00,1.40
6718.00,1.41
6717.00,1.41
6716.00,1.41
6715.00,1.41
6714.00,1.41
6713.00,1.42
6712.00,1.42
6711.00,1.42
6710.00,1.42
6709.00,1.42
6708.00,1.43
6707.00,1.43
6706.00,1.43
6705.00,1.43
6704.00,1.43
6703.00,1.43
6702.00,1.43
6701.00,1.44
6700.00,1.44
6699.00,1.44
6698.00,1.44
6697.00,1.44
6696.00,1.44
6695.00,1.44
6694.00,1.44
6693.00,1.45
6692.00,1.45
6691.00,1.45
6690.00,1.45
6689.00,1.45
6688.00,1.46
6687.00,1.46
6686.00,1.46
6685.00,1.46
6684.00,1.47
6683.00,1.47
6682.00,1.47
6681.00,1.47
6680.00,1.47
6679.00,1.47
6678.00,1.48
6677.00,1.48
6676.00,1.48
6675.00,1.48
6674.00,1.48
6673.00,1.48
6672.00,1.49
6671.00,1.49
6670.00,1.49
6669.00,1.49
6668.00,1.49
6667.00,1.49
6666.00,1.49
6665.00,1.49
6664.00,1.49
6663.00,1.49
6662.00,1.50
6661.00,1.50
6660.00,1.50
6659.00,1.50
6658.00,1.50
6657.00,1.50
6656.00,1.50
6655.00,1.50
6654.00,1.50
6653.00,1.50
6652.00,1.50
6651.00,1.50
6650.00,1.50
6649.00,1.50
6648.00,1.50
6647.00,1.51
6646.00,1.51
6645.00,1.51
6644.00,1.51
6643.00,1.51
6642.00,1.51
6641.00,1.51
6640.00,1.51
6639.00,1.51
6638.00,1.51
6637.00,1.51
6636.00,1.51
6635.00,1.51
6634.00,1.51
6633.00,1.51
6632.00,1.51
6631.00,1.51
6630.00,1.50
6629.00,1.50
6628.00,1.50
6627.00,1.50
6626.00,1.50
6625.00,1.50
6624.00,1.50
6623.00,1.50
6622.00,1.50
6621.00,1.50
6620.00,1.50
6619.00,1.50
6618.00,1.50
6617.00,1.50
6616.00,1.50
6615.00,1.50
6614.00,1.50
6613.00,1.50
6612.00,1.50
6611.00,1.50
6610.00,1.51
6609.00,1.51
6608.00,1.51
6607.00,1.51
6606.00,1.52
6605.00,1.52
6604.00,1.52
6603.00,1.52
6602.00,1.53
6601.00,1.53
6600.00,1.53
6599.00,1.53
6598.00,1.54
6597.00,1.54
6596.00,1.54
6595.00,1.54
6594.00,1.54
6593.00,1.54
6592.00,1.54
6591.00,1.55
6590.00,1.55
6589.00,1.55
6588.00,1.55
6587.00,1.55
6586.00,1.55
6585.00,1.55
6584.00,1.55
6583.00,1.55
6582.00,1.55
6581.00,1.55
6580.00,1.55
6579.00,1.55
6578.00,1.55
6577.00,1.55
6576.00,1.55
6575.00,1.55
6574.00,1.55
6573.00,1.55
6572.00,1.55
6571.00,1.55
6570.00,1.55
6569.00,1.55
6568.00,1.55
6567.00,1.55
6566.00,1.56
6565.00,1.56
6564.00,1.56
6563.00,1.56
6562.00,1.56
6561.00,1.56
6560.00,1.56
6559.00,1.56
6558.00,1.57
6557.00,1.57
6556.00,1.57
6555.00,1.57
6554.00,1.57
6553.00,1.57
6552.00,1.58
6551.00,1.58
6550.00,1.58
6549.00,1.58
6548.00,1.58
6547.00,1.58
6546.00,1.58
6545.00,1.58
6544.00,1.58
6543.00,1.58
6542.00,1.58
6541.00,1.59
6540.00,1.59
6539.00,1.59
6538.00,1.59
6537.00,1.59
6536.00,1.59
6535.00,1.59
6534.00,1.59
6533.00,1.59
6532.00,1.59
6531.00,1.59
6530.00,1.59
6529.00,1.59
6528.00,1.59
6527.00,1.59
6526.00,1.59
6525.00,1.59
6524.00,1.59
6523.00,1.59
6522.00,1.59
6521.00,1.59
6520.00,1.60
6519.00,1.60
6518.00,1.60
6517.00,1.60
6516.00,1.60
6515.00,1.60
6514.00,1.60
6513.00,1.60
6512.00,1.60
6511.00,1.61
6510.00,1.61
6509.00,1.61
6508.00,1.61
6507.00,1.61
6506.00,1.61
6505.00,1.62
6504.00,1.62
6503.00,1.62
6502.00,1.62
6501.00,1.62
6500.00,1.63
6499.00,1.63
6498.00,1.63
6497.00,1.63
6496.00,1.63
6495.00,1.63
6494.00,1.63
6493.00,1.63
6492.00,1.64
6491.00,1.64
6490.00,1.64
6489.00,1.64
6488.00,1.64
6487.00,1.64
6486.00,1.65
6485.00,1.65
6484.00,1.65
6483.00,1.65
6482.00,1.65
6481.00,1.66
6480.00,1.66
6479.00,1.66
6478.00,1.66
6477.00,1.66
6476.00,1.66
6475.00,1.67
6474.00,1.67
6473.00,1.67
6472.00,1.67
6471.00,1.68
6470.00,1.68
6469.00,1.68
6468.00,1.68
6467.00,1.69
6466.00,1.69
6465.00,1.69
6464.00,1.69
6463.00,1.70
6462.00,1.70
6461.00,1.70
6460.00,1.70
6459.00,1.70
6458.00,1.70
6457.00,1.70
6456.00,1.70
6455.00,1.70
6454.00,1.71
6453.00,1.71
6452.00,1.71
6451.00,1.71
6450.00,1.71
6449.00,1.71
6448.00,1.71
6447.00,1.71
6446.00,1.71
6445.00,1.71
6444.00,1.71
6443.00,1.71
6442.00,1.71
6441.00,1.71
6440.00,1.71
6439.00,1.71
6438.00,1.72
6437.00,1.72
6436.00,1.72
6435.00,1.72
6434.00,1.72
6433.00,1.72
6432.00,1.72
6431.00,1.72
6430.00,1.72
6429.00,1.72
6428.00,1.72
6427.00,1.72
6426.00,1.72
6425.00,1.72
6424.00,1.72
6423.00,1.72
6422.00,1.72
6421.00,1.72
6420.00,1.72
6419.00,1.72
6418.00,1.73
6417.00,1.73
6416.00,1.73
6415.00,1.73
6414.00,1.73
6413.00,1.73
6412.00,1.73
6411.00,1.73
6410.00,1.73
6409.00,1.73
6408.00,1.73
6407.00,1.73
6406.00,1.73
6405.00,1.73
6404.00,1.73
6403.00,1.73
6402.00,1.73
6401.00,1.73
6400.00,1.73
6399.00,1.73
6398.00,1.74
6397.00,1.74
6396.00,1.74
6395.00,1.74
6394.00,1.74
6393.00,1.74
6392.00,1.74
6391.00,1.73
6390.00,1.73
6389.00,1.73
6388.00,1.73
6387.00,1.73
6386.00,1.73
6385.00,1.73
6384.00,1.73
6383.00,1.73
6382.00,1.74
6381.00,1.74
6380.00,1.74
6379.00,1.74
6378.00,1.74
6377.00,1.74
6376.00,1.74
6375.00,1.74
6374.00,1.74
6373.00,1.74
6372.00,1.74
6371.00,1.74
6370.00,1.75
6369.00,1.75
6368.00,1.75
6367.00,1.75
6366.00,1.75
6365.00,1.75
6364.00,1.76
6363.00,1.76
6362.00,1.76
6361.00,1.76
6360.00,1.76
6359.00,1.77
6358.00,1.77
6357.00,1.77
6356.00,1.77
6355.00,1.77
6354.00,1.78
6353.00,1.78
6352.00,1.78
6351.00,1.78
6350.00,1.78
6349.00,1.79
6348.00,1.79
6347.00,1.79
6346.00,1.79
6345.00,1.79
6344.00,1.79
6343.00,1.80
6342.00,1.80
6341.00,1.80
6340.00,1.80
6339.00,1.80
6338.00,1.80
6337.00,1.81
6336.00,1.81
6335.00,1.81
6334.00,1.81
6333.00,1.81
6332.00,1.82
6331.00,1.82
6330.00,1.82
6329.00,1.82
6328.00,1.82
6327.00,1.82
6326.00,1.82
6325.00,1.82
6324.00,1.82
6323.00,1.83
6322.00,1.83
6321.00,1.83
6320.00,1.83
6319.00,1.83
6318.00,1.83
6317.00,1.83
6316.00,1.83
6315.00,1.83
6314.00,1.83
6313.00,1.84
6312.00,1.84
6311.00,1.84
6310.00,1.84
6309.00,1.84
6308.00,1.84
6307.00,1.84
6306.00,1.84
6305.00,1.84
6304.00,1.84
6303.00,1.84
6302.00,1.84
6301.00,1.84
6300.00,1.84
6299.00,1.84
6298.00,1.84
6297.00,1.85
6296.00,1.85
6295.00,1.85
6294.00,1.85
6293.00,1.85
6292.00,1.85
6291.00,1.85
6290.00,1.85
6289.00,1.85
6288.00,1.85
6287.00,1.85
6286.00,1.85
6285.00,1.85
6284.00,1.86
6283.00,1.86
6282.00,1.86
6281.00,1.86
6280.00,1.86
6279.00,1.86
6278.00,1.86
6277.00,1.86
6276.00,1.86
6275.00,1.86
6274.00,1.86
6273.00,1.86
6272.00,1.86
6271.00,1.86
6270.00,1.86
6269.00,1.86
6268.00,1.86
6267.00,1.86
6266.00,1.86
6265.00,1.86
6264.00,1.86
6263.00,1.86
6262.00,1.86
6261.00,1.86
6260.00,1.86
6259.00,1.86
6258.00,1.87
6257.00,1.87
6256.00,1.87
6255.00,1.87
6254.00,1.87
6253.00,1.87
6252.00,1.88
6251.00,1.88
6250.00,1.88
6249.00,1.88
6248.00,1.88
6247.00,1.88
6246.00,1.89
6245.00,1.89
6244.00,1.89
6243.00,1.89
6242.00,1.89
6241.00,1.89
6240.00,1.90
6239.00,1.90
6238.00,1.90
6237.00,1.90
6236.00,1.90
6235.00,1.90
6234.00,1.90
6233.00,1.91
6232.00,1.91
6231.00,1.91
6230.00,1.91
6229.00,1.91
6228.00,1.91
6227.00,1.91
6226.00,1.91
6225.00,1.91
6224.00,1.91
6223.00,1.91
6222.00,1.91
6221.00,1.91
6220.00,1.91
6219.00,1.91
6218.00,1.91
6217.00,1.91
6216.00,1.91
6215.00,1.91
6214.00,1.91
6213.00,1.91
6212.00,1.91
6211.00,1.91
6210.00,1.91
6209.00,1.91
6208.00,1.91
6207.00,1.91
6206.00,1.91
6205.00,1.91
6204.00,1.91
6203.00,1.91
6202.00,1.91
6201.00,1.92
6200.00,1.92
6199.00,1.92
6198.00,1.92
6197.00,1.92
6196.00,1.93
6195.00,1.93
6194.00,1.93
6193.00,1.93
6192.00,1.93
6191.00,1.93
6190.00,1.93
6189.00,1.94
6188.00,1.94
6187.00,1.94
6186.00,1.94
6185.00,1.94
6184.00,1.94
6183.00,1.94
6182.00,1.94
6181.00,1.94
6180.00,1.94
6179.00,1.94
6178.00,1.94
6177.00,1.94
6176.00,1.94
6175.00,1.94
6174.00,1.94
6173.00,1.94
6172.00,1.94
6171.00,1.94
6170.00,1.94
6169.00,1.94
6168.00,1.94
6167.00,1.94
6166.00,1.94
6165.00,1.94
6164.00,1.94
6163.00,1.94
6162.00,1.94
6161.00,1.94
6160.00,1.94
6159.00,1.94
6158.00,1.94
6157.00,1.94
6156.00,1.95
6155.00,1.95
6154.00,1.95
6153.00,1.95
6152.00,1.95
6151.00,1.95
6150.00,1.95
6149.00,1.95
6148.00,1.95
6147.00,1.95
6146.00,1.95
6145.00,1.95
6144.00,1.95
6143.00,1.95
6142.00,1.94
6141.00,1.94
6140.00,1.94
6139.00,1.94
6138.00,1.94
6137.00,1.94
6136.00,1.94
6135.00,1.94
6134.00,1.94
6133.00,1.94
6132.00,1.94
6131.00,1.94
6130.00,1.94
6129.00,1.94
6128.00,1.94
6127.00,1.94
6126.00,1.94
6125.00,1.95
6124.00,1.95
6123.00,1.95
6122.00,1.95
6121.00,1.95
6120.00,1.95
6119.00,1.95
6118.00,1.95
6117.00,1.95
6116.00,1.96
6115.00,1.96
6114.00,1.96
6113.00,1.96
6112.00,1.96
6111.00,1.96
6110.00,1.96
6109.00,1.97
6108.00,1.97
6107.00,1.97
6106.00,1.97
6105.00,1.97
6104.00,1.97
6103.00,1.97
6102.00,1.97
6101.00,1.97
6100.00,1.97
6099.00,1.97
6098.00,1.97
6097.00,1.97
6096.00,1.97
6095.00,1.97
6094.00,1.97
6093.00,1.97
6092.00,1.97
6091.00,1.98
6090.00,1.98
6089.00,1.98
6088.00,1.98
6087.00,1.98
6086.00,1.98
6085.00,1.98
6084.00,1.98
6083.00,1.98
6082.00,1.98
6081.00,1.98
6080.00,1.98
6079.00,1.98
6078.00,1.98
6077.00,1.98
6076.00,1.98
6075.00,1.98
6074.00,1.99
6073.00,1.99
6072.00,1.99
6071.00,1.99
6070.00,1.99
6069.00,1.99
6068.00,1.99
6067.00,1.99
6066.00,1.99
6065.00,1.99
6064.00,1.99
6063.00,1.99
6062.00,1.99
6061.00,2.00
6060.00,2.00
6059.00,2.00
6058.00,2.00
6057.00,2.00
6056.00,2.00
6055.00,2.00
6054.00,2.01
6053.00,2.01
6052.00,2.01
6051.00,2.01
6050.00,2.01
6049.00,2.01
6048.00,2.01
6047.00,2.01
6046.00,2.01
6045.00,2.02
6044.00,2.02
6043.00,2.02
6042.00,2.02
6041.00,2.02
6040.00,2.02
6039.00,2.02
6038.00,2.02
6037.00,2.02
6036.00,2.02
6035.00,2.02
6034.00,2.01
6033.00,2.01
6032.00,2.01
6031.00,2.01
6030.00,2.01
6029.00,2.01
6028.00,2.00
6027.00,2.00
6026.00,2.00
6025.00,2.00
6024.00,2.00
6023.00,2.00
6022.00,1.99
6021.00,1.99
6020.00,1.99
6019.00,1.99
6018.00,1.99
6017.00,1.99
6016.00,1.99
6015.00,1.99
6014.00,1.99
6013.00,1.99
6012.00,1.99
6011.00,1.99
6010.00,1.99
6009.00,1.99
6008.00,1.99
6007.00,1.99
6006.00,1.99
6005.00,1.99
6004.00,1.99
6003.00,1.99
6002.00,1.99
6001.00,1.99
6000.00,1.99
5999.00,1.99
5998.00,1.99
5997.00,1.99
5996.00,2.00
5995.00,2.00
5994.00,2.00
5993.00,2.00
5992.00,2.00
5991.00,2.00
5990.00,2.00
5989.00,2.00
5988.00,2.00
5987.00,2.00
5986.00,2.00
5985.00,2.00
5984.00,1.99
5983.00,1.99
5982.00,1.99
5981.00,1.99
5980.00,1.99
5979.00,1.99
5978.00,1.99
5977.00,1.99
5976.00,1.98
5975.00,1.98
5974.00,1.98
5973.00,1.98
5972.00,1.98
5971.00,1.97
5970.00,1.97
5969.00,1.97
5968.00,1.96
5967.00,1.96
5966.00,1.96
5965.00,1.96
5964.00,1.96
5963.00,1.95
5962.00,1.95
5961.00,1.95
5960.00,1.95
5959.00,1.94
5958.00,1.94
5957.00,1.94
5956.00,1.94
5955.00,1.93
5954.00,1.93
5953.00,1.93
5952.00,1.93
5951.00,1.93
5950.00,1.92
5949.00,1.92
5948.00,1.92
5947.00,1.92
5946.00,1.92
5945.00,1.92
5944.00,1.91
5943.00,1.91
5942.00,1.91
5941.00,1.91
5940.00,1.91
5939.00,1.91
5938.00,1.91
5937.00,1.90
5936.00,1.90
5935.00,1.90
5934.00,1.90
5933.00,1.90
5932.00,1.90
5931.00,1.90
5930.00,1.90
5929.00,1.90
5928.00,1.90
5927.00,1.90
5926.00,1.89
5925.00,1.89
5924.00,1.89
5923.00,1.89
5922.00,1.89
5921.00,1.89
5920.00,1.89
5919.00,1.89
5918.00,1.89
5917.00,1.89
5916.00,1.89
5915.00,1.89
5914.00,1.89
5913.00,1.89
5912.00,1.89
5911.00,1.89
5910.00,1.89
5909.00,1.89
5908.00,1.89
5907.00,1.89
5906.00,1.89
5905.00,1.89
5904.00,1.89
5903.00,1.89
5902.00,1.89
5901.00,1.89
5900.00,1.89
5899.00,1.89
5898.00,1.89
5897.00,1.89
5896.00,1.89
5895.00,1.89
5894.00,1.89
5893.00,1.89
5892.00,1.89
5891.00,1.89
5890.00,1.89
5889.00,1.89
5888.00,1.89
5887.00,1.89
5886.00,1.89
5885.00,1.90
5884.00,1.90
5883.00,1.90
5882.00,1.90
5881.00,1.90
5880.00,1.90
5879.00,1.90
5878.00,1.91
5877.00,1.91
5876.00,1.91
5875.00,1.91
5874.00,1.91
5873.00,1.91
5872.00,1.91
5871.00,1.91
5870.00,1.92
5869.00,1.92
5868.00,1.92
5867.00,1.92
5866.00,1.92
5865.00,1.92
5864.00,1.92
5863.00,1.92
5862.00,1.92
5861.00,1.92
5860.00,1.92
5859.00,1.92
5858.00,1.92
5857.00,1.92
5856.00,1.92
5855.00,1.92
5854.00,1.92
5853.00,1.92
5852.00,1.91
5851.00,1.91
5850.00,1.91
5849.00,1.91
5848.00,1.91
5847.00,1.91
5846.00,1.91
5845.00,1.91
5844.00,1.91
5843.00,1.91
5842.00,1.90
5841.00,1.90
5840.00,1.90
5839.00,1.90
5838.00,1.90
5837.00,1.90
5836.00,1.90
5835.00,1.90
5834.00,1.90
5833.00,1.90
5832.00,1.90
5831.00,1.90
5830.00,1.90
5829.00,1.90
5828.00,1.91
5827.00,1.91
5826.00,1.91
5825.00,1.91
5824.00,1.91
5823.00,1.91
5822.00,1.91
5821.00,1.91
5820.00,1.91
5819.00,1.91
5818.00,1.91
5817.00,1.91
5816.00,1.92
5815.00,1.92
5814.00,1.92
5813.00,1.92
5812.00,1.92
5811.00,1.92
5810.00,1.92
5809.00,1.92
5808.00,1.92
5807.00,1.92
5806.00,1.92
5805.00,1.92
5804.00,1.92
5803.00,1.92
5802.00,1.92
5801.00,1.92
5800.00,1.92
5799.00,1.92
5798.00,1.92
5797.00,1.92
5796.00,1.92
5795.00,1.92
5794.00,1.92
5793.00,1.92
5792.00,1.92
5791.00,1.91
5790.00,1.91
5789.00,1.91
5788.00,1.91
5787.00,1.91
5786.00,1.91
5785.00,1.91
5784.00,1.91
5783.00,1.91
5782.00,1.91
5781.00,1.91
5780.00,1.91
5779.00,1.91
5778.00,1.91
5777.00,1.91
5776.00,1.91
5775.00,1.91
5774.00,1.91
5773.00,1.91
5772.00,1.91
5771.00,1.91
5770.00,1.91
5769.00,1.91
5768.00,1.91
5767.00,1.91
5766.00,1.91
5765.00,1.91
5764.00,1.91
5763.00,1.91
5762.00,1.91
5761.00,1.91
5760.00,1.91
5759.00,1.91
5758.00,1.92
5757.00,1.92
5756.00,1.92
5755.00,1.92
5754.00,1.92
5753.00,1.92
5752.00,1.92
5751.00,1.92
5750.00,1.92
5749.00,1.93
5748.00,1.93
5747.00,1.93
5746.00,1.93
5745.00,1.93
5744.00,1.93
5743.00,1.93
5742.00,1.94
5741.00,1.94
5740.00,1.94
5739.00,1.94
5738.00,1.94
5737.00,1.94
5736.00,1.94
5735.00,1.94
5734.00,1.94
5733.00,1.94
5732.00,1.94
5731.00,1.95
5730.00,1.95
5729.00,1.95
5728.00,1.95
5727.00,1.95
5726.00,1.95
5725.00,1.95
5724.00,1.95
5723.00,1.95
5722.00,1.95
5721.00,1.95
5720.00,1.95
5719.00,1.95
5718.00,1.95
5717.00,1.95
5716.00,1.95
5715.00,1.95
5714.00,1.95
5713.00,1.95
5712.00,1.95
5711.00,1.95
5710.00,1.95
5709.00,1.95
5708.00,1.95
5707.00,1.95
5706.00,1.94
5705.00,1.94
5704.00,1.94
5703.00,1.94
5702.00,1.94
5701.00,1.93
5700.00,1.93
5699.00,1.93
5698.00,1.93
5697.00,1.93
5696.00,1.93
5695.00,1.93
5694.00,1.92
5693.00,1.92
5692.00,1.92
5691.00,1.92
5690.00,1.92
5689.00,1.92
5688.00,1.92
5687.00,1.92
5686.00,1.91
5685.00,1.91
5684.00,1.91
5683.00,1.91
5682.00,1.91
5681.00,1.91
5680.00,1.91
5679.00,1.91
5678.00,1.91
5677.00,1.91
5676.00,1.91
5675.00,1.91
5674.00,1.91
5673.00,1.91
5672.00,1.91
5671.00,1.91
5670.00,1.91
5669.00,1.91
5668.00,1.91
5667.00,1.91
5666.00,1.91
5665.00,1.91
5664.00,1.91
5663.00,1.92
5662.00,1.92
5661.00,1.92
5660.00,1.92
5659.00,1.92
5658.00,1.92
5657.00,1.92
5656.00,1.93
5655.00,1.93
5654.00,1.93
5653.00,1.93
5652.00,1.93
5651.00,1.94
5650.00,1.94
5649.00,1.94
5648.00,1.94
5647.00,1.94
5646.00,1.94
5645.00,1.94
5644.00,1.95
5643.00,1.95
5642.00,1.95
5641.00,1.95
5640.00,1.95
5639.00,1.95
5638.00,1.95
5637.00,1.95
5636.00,1.95
5635.00,1.95
5634.00,1.95
5633.00,1.95
5632.00,1.95
5631.00,1.95
5630.00,1.95
5629.00,1.95
5628.00,1.95
5627.00,1.95
5626.00,1.95
5625.00,1.95
5624.00,1.95
5623.00,1.94
5622.00,1.94
5621.00,1.94
5620.00,1.94
5619.00,1.94
5618.00,1.94
5617.00,1.94
5616.00,1.94
5615.00,1.94
5614.00,1.93
5613.00,1.93
5612.00,1.93
5611.00,1.93
5610.00,1.93
5609.00,1.93
5608.00,1.93
5607.00,1.93
5606.00,1.93
5605.00,1.93
5604.00,1.93
5603.00,1.93
5602.00,1.93
5601.00,1.93
5600.00,1.93
5599.00,1.93
5598.00,1.93
5597.00,1.93
5596.00,1.93
5595.00,1.93
5594.00,1.94
5593.00,1.94
5592.00,1.94
5591.00,1.94
5590.00,1.94
5589.00,1.94
5588.00,1.95
5587.00,1.95
5586.00,1.95
5585.00,1.95
5584.00,1.95
5583.00,1.96
5582.00,1.96
5581.00,1.96
5580.00,1.96
5579.00,1.97
5578.00,1.97
5577.00,1.97
5576.00,1.97
5575.00,1.97
5574.00,1.98
5573.00,1.98
5572.00,1.98
5571.00,1.98
5570.00,1.98
5569.00,1.99
5568.00,1.99
5567.00,1.99
5566.00,1.99
5565.00,1.99
5564.00,1.99
5563.00,1.99
5562.00,1.99
5561.00,1.99
5560.00,1.99
5559.00,1.99
5558.00,1.99
5557.00,1.99
5556.00,1.99
5555.00,1.99
5554.00,1.99
5553.00,1.99
5552.00,1.99
5551.00,1.99
5550.00,1.99
5549.00,1.99
5548.00,1.99
5547.00,1.99
5546.00,1.99
5545.00,1.99
5544.00,1.99
5543.00,1.99
5542.00,1.99
5541.00,1.99
5540.00,2.00
5539.00,2.00
5538.00,2.00
5537.00,2.00
5536.00,2.00
5535.00,2.00
5534.00,2.01
5533.00,2.01
5532.00,2.01
5531.00,2.01
5530.00,2.01
5529.00,2.02
5528.00,2.02
5527.00,2.02
5526.00,2.02
5525.00,2.02
5524.00,2.02
5523.00,2.03
5522.00,2.03
5521.00,2.03
5520.00,2.03
5519.00,2.03
5518.00,2.03
5517.00,2.03
5516.00,2.04
5515.00,2.04
5514.00,2.04
5513.00,2.04
5512.00,2.04
5511.00,2.04
5510.00,2.04
5509.00,2.04
5508.00,2.04
5507.00,2.04
5506.00,2.03
5505.00,2.03
5504.00,2.03
5503.00,2.03
5502.00,2.03
5501.00,2.03
5500.00,2.03
5499.00,2.03
5498.00,2.03
5497.00,2.03
5496.00,2.03
5495.00,2.03
5494.00,2.03
5493.00,2.03
5492.00,2.02
5491.00,2.02
5490.00,2.02
5489.00,2.02
5488.00,2.02
5487.00,2.02
5486.00,2.02
5485.00,2.02
5484.00,2.02
5483.00,2.02
5482.00,2.02
5481.00,2.02
5480.00,2.02
5479.00,2.02
5478.00,2.02
5477.00,2.02
5476.00,2.02
5475.00,2.02
5474.00,2.02
5473.00,2.02
5472.00,2.02
5471.00,2.02
5470.00,2.02
5469.00,2.02
5468.00,2.02
5467.00,2.02
5466.00,2.02
5465.00,2.02
5464.00,2.02
5463.00,2.02
5462.00,2.02
5461.00,2.02
5460.00,2.02
5459.00,2.03
5458.00,2.03
5457.00,2.03
5456.00,2.03
5455.00,2.03
5454.00,2.03
5453.00,2.03
5452.00,2.03
5451.00,2.03
5450.00,2.03
5449.00,2.03
5448.00,2.04
5447.00,2.04
5446.00,2.04
5445.00,2.04
5444.00,2.04
5443.00,2.04
5442.00,2.04
5441.00,2.04
5440.00,2.04
5439.00,2.04
5438.00,2.04
5437.00,2.04
5436.00,2.04
5435.00,2.04
5434.00,2.04
5433.00,2.04
5432.00,2.04
5431.00,2.04
5430.00,2.04
5429.00,2.04
5428.00,2.04
5427.00,2.04
5426.00,2.03
5425.00,2.03
5424.00,2.03
5423.00,2.03
5422.00,2.03
5421.00,2.03
5420.00,2.03
5419.00,2.03
5418.00,2.03
5417.00,2.03
5416.00,2.02
5415.00,2.02
5414.00,2.02
5413.00,2.02
5412.00,2.02
5411.00,2.02
5410.00,2.02
5409.00,2.02
5408.00,2.02
5407.00,2.02
5406.00,2.02
5405.00,2.01
5404.00,2.01
5403.00,2.01
5402.00,2.01
5401.00,2.01
5400.00,2.01
5399.00,2.01
5398.00,2.01
5397.00,2.01
5396.00,2.01
5395.00,2.01
5394.00,2.01
5393.00,2.00
5392.00,2.00
5391.00,2.00
5390.00,2.00
5389.00,2.00
5388.00,2.00
5387.00,2.00
5386.00,1.99
5385.00,1.99
5384.00,1.99
5383.00,1.99
5382.00,1.98
5381.00,1.98
5380.00,1.98
5379.00,1.98
5378.00,1.97
5377.00,1.97
5376.00,1.97
5375.00,1.96
5374.00,1.96
5373.00,1.96
5372.00,1.95
5371.00,1.95
5370.00,1.94
5369.00,1.94
5368.00,1.94
5367.00,1.93
5366.00,1.93
5365.00,1.92
5364.00,1.92
5363.00,1.91
5362.00,1.91
5361.00,1.90
5360.00,1.90
5359.00,1.89
5358.00,1.89
5357.00,1.88
5356.00,1.88
5355.00,1.87
5354.00,1.86
5353.00,1.86
5352.00,1.85
5351.00,1.85
5350.00,1.84
5349.00,1.83
5348.00,1.82
5347.00,1.82
5346.00,1.81
5345.00,1.80
5344.00,1.79
5343.00,1.78
5342.00,1.77
5341.00,1.77
5340.00,1.76
5339.00,1.75
5338.00,1.74
5337.00,1.73
5336.00,1.72
5335.00,1.71
5334.00,1.70
5333.00,1.69
5332.00,1.68
5331.00,1.66
5330.00,1.65
5329.00,1.64
5328.00,1.63
5327.00,1.62
5326.00,1.61
5325.00,1.60
5324.00,1.59
5323.00,1.57
5322.00,1.56
5321.00,1.55
5320.00,1.54
5319.00,1.53
5318.00,1.52
5317.00,1.51
5316.00,1.49
5315.00,1.48
5314.00,1.47
5313.00,1.46
5312.00,1.45
5311.00,1.44
5310.00,1.42
5309.00,1.41
5308.00,1.40
5307.00,1.39
5306.00,1.38
5305.00,1.37
5304.00,1.36
5303.00,1.35
5302.00,1.33
5301.00,1.32
5300.00,1.31
5299.00,1.30
5298.00,1.29
5297.00,1.28
5296.00,1.27
5295.00,1.26
5294.00,1.25
5293.00,1.24
5292.00,1.23
5291.00,1.22
5290.00,1.21
5289.00,1.20
5288.00,1.19
5287.00,1.18
5286.00,1.17
5285.00,1.16
5284.00,1.15
5283.00,1.14
5282.00,1.14
5281.00,1.13
5280.00,1.12
5279.00,1.11
5278.00,1.11
5277.00,1.10
5276.00,1.09
5275.00,1.08
5274.00,1.08
5273.00,1.07
5272.00,1.06
5271.00,1.06
5270.00,1.05
5269.00,1.05
5268.00,1.04
5267.00,1.03
5266.00,1.03
5265.00,1.02
5264.00,1.01
5263.00,1.01
5262.00,1.00
5261.00,1.00
5260.00,0.99
5259.00,0.99
5258.00,0.99
5257.00,0.98
5256.00,0.98
5255.00,0.98
5254.00,0.97
5253.00,0.97
5252.00,0.97
5251.00,0.97
5250.00,0.97
5249.00,0.96
5248.00,0.96
5247.00,0.96
5246.00,0.96
5245.00,0.96
5244.00,0.96
5243.00,0.96
5242.00,0.96
5241.00,0.96
5240.00,0.96
5239.00,0.96
5238.00,0.96
5237.00,0.96
5236.00,0.96
5235.00,0.96
5234.00,0.96
5233.00,0.96
5232.00,0.96
5231.00,0.96
5230.00,0.96
5229.00,0.96
5228.00,0.96
5227.00,0.96
5226.00,0.95
5225.00,0.95
5224.00,0.95
5223.00,0.95
5222.00,0.95
5221.00,0.95
5220.00,0.94
5219.00,0.94
5218.00,0.94
5217.00,0.94
5216.00,0.94
5215.00,0.93
5214.00,0.93
5213.00,0.93
5212.00,0.93
5211.00,0.92
5210.00,0.92
5209.00,0.92
5208.00,0.92
5207.00,0.91
5206.00,0.91
5205.00,0.91
5204.00,0.91
5203.00,0.90
5202.00,0.90
5201.00,0.90
5200.00,0.90
5199.00,0.89
5198.00,0.89
5197.00,0.89
5196.00,0.89
5195.00,0.89
5194.00,0.88
5193.00,0.88
5192.00,0.88
5191.00,0.88
5190.00,0.88
5189.00,0.88
5188.00,0.87
5187.00,0.87
5186.00,0.87
5185.00,0.87
5184.00,0.87
5183.00,0.87
5182.00,0.87
5181.00,0.87
5180.00,0.87
5179.00,0.87
5178.00,0.87
5177.00,0.87
5176.00,0.87
5175.00,0.87
5174.00,0.87
5173.00,0.87
5172.00,0.87
5171.00,0.87
5170.00,0.87
5169.00,0.87
5168.00,0.87
5167.00,0.87
5166.00,0.87
5165.00,0.87
5164.00,0.87
5163.00,0.88
5162.00,0.88
5161.00,0.88
5160.00,0.88
5159.00,0.88
5158.00,0.88
5157.00,0.88
5156.00,0.88
5155.00,0.88
5154.00,0.89
5153.00,0.89
5152.00,0.89
5151.00,0.89
5150.00,0.89
5149.00,0.89
5148.00,0.89
5147.00,0.90
5146.00,0.90
5145.00,0.90
5144.00,0.90
5143.00,0.90
5142.00,0.90
5141.00,0.90
5140.00,0.91
5139.00,0.91
5138.00,0.91
5137.00,0.91
5136.00,0.91
5135.00,0.91
5134.00,0.91
5133.00,0.92
5132.00,0.92
5131.00,0.92
5130.00,0.92
5129.00,0.92
5128.00,0.92
5127.00,0.92
5126.00,0.92
5125.00,0.92
5124.00,0.92
5123.00,0.92
5122.00,0.92
5121.00,0.92
5120.00,0.92
5119.00,0.92
5118.00,0.92
5117.00,0.92
5116.00,0.92
5115.00,0.93
5114.00,0.93
5113.00,0.93
5112.00,0.93
5111.00,0.93
5110.00,0.93
5109.00,0.93
5108.00,0.93
5107.00,0.93
5106.00,0.93
5105.00,0.93
5104.00,0.93
5103.00,0.93
5102.00,0.93
5101.00,0.93
5100.00,0.93
5099.00,0.93
5098.00,0.94
5097.00,0.94
5096.00,0.94
5095.00,0.94
5094.00,0.94
5093.00,0.95
5092.00,0.95
5091.00,0.95
5090.00,0.95
5089.00,0.95
5088.00,0.96
5087.00,0.96
5086.00,0.96
5085.00,0.96
5084.00,0.97
5083.00,0.97
5082.00,0.97
5081.00,0.98
5080.00,0.98
5079.00,0.98
5078.00,0.99
5077.00,0.99
5076.00,0.99
5075.00,1.00
5074.00,1.00
5073.00,1.01
5072.00,1.01
5071.00,1.01
5070.00,1.01
5069.00,1.02
5068.00,1.02
5067.00,1.02
5066.00,1.03
5065.00,1.03
5064.00,1.03
5063.00,1.03
5062.00,1.04
5061.00,1.04
5060.00,1.04
5059.00,1.04
5058.00,1.04
5057.00,1.05
5056.00,1.05
5055.00,1.05
5054.00,1.05
5053.00,1.05
5052.00,1.05
5051.00,1.05
5050.00,1.05
5049.00,1.06
5048.00,1.06
5047.00,1.06
5046.00,1.06
5045.00,1.06
5044.00,1.07
5043.00,1.07
5042.00,1.07
5041.00,1.07
5040.00,1.07
5039.00,1.08
5038.00,1.08
5037.00,1.08
5036.00,1.08
5035.00,1.09
5034.00,1.09
5033.00,1.09
5032.00,1.10
5031.00,1.10
5030.00,1.11
5029.00,1.11
5028.00,1.12
5027.00,1.12
5026.00,1.12
5025.00,1.13
5024.00,1.13
5023.00,1.14
5022.00,1.14
5021.00,1.14
5020.00,1.15
5019.00,1.15
5018.00,1.15
5017.00,1.16
5016.00,1.16
5015.00,1.16
5014.00,1.16
5013.00,1.17
5012.00,1.17
5011.00,1.17
5010.00,1.18
5009.00,1.18
5008.00,1.18
5007.00,1.18
5006.00,1.19
5005.00,1.19
5004.00,1.19
5003.00,1.19
5002.00,1.19
5001.00,1.20
5000.00,1.20
4999.00,1.20
4998.00,1.20
4997.00,1.20
4996.00,1.21
4995.00,1.21
4994.00,1.21
4993.00,1.21
4992.00,1.21
4991.00,1.21
4990.00,1.22
4989.00,1.22
4988.00,1.22
4987.00,1.22
4986.00,1.22
4985.00,1.22
4984.00,1.22
4983.00,1.22
4982.00,1.23
4981.00,1.23
4980.00,1.23
4979.00,1.23
4978.00,1.23
4977.00,1.23
4976.00,1.23
4975.00,1.23
4974.00,1.23
4973.00,1.23
4972.00,1.24
4971.00,1.24
4970.00,1.24
4969.00,1.24
4968.00,1.24
4967.00,1.24
4966.00,1.25
4965.00,1.25
4964.00,1.25
4963.00,1.25
4962.00,1.26
4961.00,1.26
4960.00,1.26
4959.00,1.26
4958.00,1.27
4957.00,1.27
4956.00,1.28
4955.00,1.28
4954.00,1.28
4953.00,1.29
4952.00,1.29
4951.00,1.30
4950.00,1.30
4949.00,1.31
4948.00,1.31
4947.00,1.31
4946.00,1.32
4945.00,1.32
4944.00,1.32
4943.00,1.33
4942.00,1.33
4941.00,1.33
4940.00,1.34
4939.00,1.34
4938.00,1.34
4937.00,1.35
4936.00,1.35
4935.00,1.35
4934.00,1.36
4933.00,1.36
4932.00,1.36
4931.00,1.36
4930.00,1.36
4929.00,1.37
4928.00,1.37
4927.00,1.37
4926.00,1.37
4925.00,1.37
4924.00,1.37
4923.00,1.38
4922.00,1.38
4921.00,1.38
4920.00,1.38
4919.00,1.38
4918.00,1.38
4917.00,1.39
4916.00,1.39
4915.00,1.39
4914.00,1.39
4913.00,1.39
4912.00,1.40
4911.00,1.40
4910.00,1.40
4909.00,1.40
4908.00,1.40
4907.00,1.40
4906.00,1.40
4905.00,1.41
4904.00,1.41
4903.00,1.41
4902.00,1.41
4901.00,1.41
4900.00,1.41
4899.00,1.41
4898.00,1.41
4897.00,1.42
4896.00,1.42
4895.00,1.42
4894.00,1.42
4893.00,1.42
4892.00,1.42
4891.00,1.42
4890.00,1.42
4889.00,1.42
4888.00,1.43
4887.00,1.43
4886.00,1.43
4885.00,1.43
4884.00,1.43
4883.00,1.43
4882.00,1.44
4881.00,1.44
4880.00,1.44
4879.00,1.44
4878.00,1.45
4877.00,1.45
4876.00,1.45
4875.00,1.46
4874.00,1.46
4873.00,1.46
4872.00,1.47
4871.00,1.47
4870.00,1.47
4869.00,1.48
4868.00,1.48
4867.00,1.48
4866.00,1.49
4865.00,1.49
4864.00,1.49
4863.00,1.50
4862.00,1.50
4861.00,1.50
4860.00,1.50
4859.00,1.51
4858.00,1.51
4857.00,1.51
4856.00,1.51
4855.00,1.51
4854.00,1.52
4853.00,1.52
4852.00,1.52
4851.00,1.52
4850.00,1.52
4849.00,1.52
4848.00,1.52
4847.00,1.53
4846.00,1.53
4845.00,1.53
4844.00,1.53
4843.00,1.53
4842.00,1.53
4841.00,1.53
4840.00,1.53
4839.00,1.53
4838.00,1.53
4837.00,1.54
4836.00,1.54
4835.00,1.54
4834.00,1.54
4833.00,1.54
4832.00,1.55
4831.00,1.55
4830.00,1.55
4829.00,1.56
4828.00,1.56
4827.00,1.56
4826.00,1.56
4825.00,1.57
4824.00,1.57
4823.00,1.58
4822.00,1.58
4821.00,1.58
4820.00,1.59
4819.00,1.59
4818.00,1.59
4817.00,1.60
4816.00,1.60
4815.00,1.61
4814.00,1.61
4813.00,1.61
4812.00,1.62
4811.00,1.62
4810.00,1.62
4809.00,1.63
4808.00,1.63
4807.00,1.63
4806.00,1.64
4805.00,1.64
4804.00,1.65
4803.00,1.65
4802.00,1.65
4801.00,1.65
4800.00,1.66
4799.00,1.66
4798.00,1.66
4797.00,1.67
4796.00,1.67
4795.00,1.67
4794.00,1.67
4793.00,1.68
4792.00,1.68
4791.00,1.68
4790.00,1.69
4789.00,1.69
4788.00,1.69
4787.00,1.70
4786.00,1.70
4785.00,1.70
4784.00,1.71
4783.00,1.71
4782.00,1.71
4781.00,1.71
4780.00,1.72
4779.00,1.72
4778.00,1.72
4777.00,1.73
4776.00,1.73
4775.00,1.73
4774.00,1.74
4773.00,1.74
4772.00,1.74
4771.00,1.74
4770.00,1.75
4769.00,1.75
4768.00,1.75
4767.00,1.76
4766.00,1.76
4765.00,1.76
4764.00,1.76
4763.00,1.76
4762.00,1.76
4761.00,1.76
4760.00,1.76
4759.00,1.76
4758.00,1.76
4757.00,1.76
4756.00,1.76
4755.00,1.76
4754.00,1.76
4753.00,1.76
4752.00,1.77
4751.00,1.77
4750.00,1.77
4749.00,1.77
4748.00,1.77
4747.00,1.77
4746.00,1.77
4745.00,1.77
4744.00,1.77
4743.00,1.77
4742.00,1.77
4741.00,1.77
4740.00,1.77
4739.00,1.77
4738.00,1.78
4737.00,1.78
4736.00,1.78
4735.00,1.79
4734.00,1.79
4733.00,1.79
4732.00,1.80
4731.00,1.80
4730.00,1.81
4729.00,1.81
4728.00,1.82
4727.00,1.82
4726.00,1.83
4725.00,1.83
4724.00,1.84
4723.00,1.84
4722.00,1.85
4721.00,1.85
4720.00,1.86
4719.00,1.86
4718.00,1.87
4717.00,1.87
4716.00,1.88
4715.00,1.88
4714.00,1.89
4713.00,1.89
4712.00,1.89
4711.00,1.89
4710.00,1.90
4709.00,1.90
4708.00,1.90
4707.00,1.90
4706.00,1.90
4705.00,1.90
4704.00,1.90
4703.00,1.90
4702.00,1.90
4701.00,1.90
4700.00,1.90
4699.00,1.90
4698.00,1.90
4697.00,1.90
4696.00,1.90
4695.00,1.90
4694.00,1.90
4693.00,1.90
4692.00,1.89
4691.00,1.89
4690.00,1.89
4689.00,1.89
4688.00,1.89
4687.00,1.89
4686.00,1.89
4685.00,1.89
4684.00,1.90
4683.00,1.90
4682.00,1.90
4681.00,1.90
4680.00,1.90
4679.00,1.90
4678.00,1.90
4677.00,1.91
4676.00,1.91
4675.00,1.91
4674.00,1.91
4673.00,1.92
4672.00,1.92
4671.00,1.92
4670.00,1.92
4669.00,1.93
4668.00,1.93
4667.00,1.93
4666.00,1.93
4665.00,1.94
4664.00,1.94
4663.00,1.94
4662.00,1.94
4661.00,1.94
4660.00,1.95
4659.00,1.95
4658.00,1.95
4657.00,1.95
4656.00,1.95
4655.00,1.95
4654.00,1.95
4653.00,1.95
4652.00,1.95
4651.00,1.95
4650.00,1.95
4649.00,1.95
4648.00,1.95
4647.00,1.95
4646.00,1.95
4645.00,1.95
4644.00,1.95
4643.00,1.95
4642.00,1.95
4641.00,1.95
4640.00,1.96
4639.00,1.96
4638.00,1.96
4637.00,1.96
4636.00,1.96
4635.00,1.96
4634.00,1.96
4633.00,1.96
4632.00,1.96
4631.00,1.97
4630.00,1.97
4629.00,1.97
4628.00,1.97
4627.00,1.97
4626.00,1.98
4625.00,1.98
4624.00,1.98
4623.00,1.98
4622.00,1.98
4621.00,1.98
4620.00,1.99
4619.00,1.99
4618.00,1.99
4617.00,1.99
4616.00,1.99
4615.00,1.99
4614.00,1.99
4613.00,2.00
4612.00,2.00
4611.00,2.00
4610.00,2.00
4609.00,2.00
4608.00,2.00
4607.00,2.00
4606.00,2.00
4605.00,2.00
4604.00,2.00
4603.00,2.00
4602.00,2.00
4601.00,2.00
4600.00,2.00
4599.00,2.00
4598.00,2.00
4597.00,2.00
4596.00,2.00
4595.00,2.00
4594.00,2.00
4593.00,2.00
4592.00,2.00
4591.00,2.00
4590.00,2.00
4589.00,2.00
4588.00,2.00
4587.00,1.99
4586.00,1.99
4585.00,1.99
4584.00,1.99
4583.00,1.99
4582.00,1.99
4581.00,1.99
4580.00,1.98
4579.00,1.98
4578.00,1.98
4577.00,1.98
4576.00,1.98
4575.00,1.97
4574.00,1.97
4573.00,1.97
4572.00,1.97
4571.00,1.97
4570.00,1.97
4569.00,1.97
4568.00,1.96
4567.00,1.96
4566.00,1.96
4565.00,1.96
4564.00,1.96
4563.00,1.96
4562.00,1.96
4561.00,1.96
4560.00,1.96
4559.00,1.96
4558.00,1.96
4557.00,1.96
4556.00,1.96
4555.00,1.96
4554.00,1.95
4553.00,1.95
4552.00,1.95
4551.00,1.95
4550.00,1.96
4549.00,1.96
4548.00,1.96
4547.00,1.96
4546.00,1.96
4545.00,1.96
4544.00,1.96
4543.00,1.96
4542.00,1.96
4541.00,1.96
4540.00,1.96
4539.00,1.96
4538.00,1.97
4537.00,1.97
4536.00,1.97
4535.00,1.97
4534.00,1.97
4533.00,1.97
4532.00,1.97
4531.00,1.98
4530.00,1.98
4529.00,1.98
4528.00,1.98
4527.00,1.98
4526.00,1.98
4525.00,1.98
4524.00,1.98
4523.00,1.98
4522.00,1.98
4521.00,1.99
4520.00,1.99
4519.00,1.99
4518.00,1.99
4517.00,1.99
4516.00,1.99
4515.00,1.99
4514.00,1.99
4513.00,1.99
4512.00,1.99
4511.00,1.99
4510.00,1.99
4509.00,1.99
4508.00,1.99
4507.00,1.99
4506.00,2.00
4505.00,2.00
4504.00,2.00
4503.00,2.00
4502.00,2.00
4501.00,2.00
4500.00,2.01
4499.00,2.01
4498.00,2.01
4497.00,2.01
4496.00,2.01
4495.00,2.02
4494.00,2.02
4493.00,2.02
4492.00,2.02
4491.00,2.02
4490.00,2.02
4489.00,2.02
4488.00,2.02
4487.00,2.02
4486.00,2.02
4485.00,2.02
4484.00,2.02
4483.00,2.02
4482.00,2.02
4481.00,2.02
4480.00,2.02
4479.00,2.02
4478.00,2.02
4477.00,2.02
4476.00,2.01
4475.00,2.01
4474.00,2.01
4473.00,2.00
4472.00,2.00
4471.00,2.00
4470.00,1.99
4469.00,1.99
4468.00,1.99
4467.00,1.98
4466.00,1.98
4465.00,1.97
4464.00,1.97
4463.00,1.96
4462.00,1.96
4461.00,1.95
4460.00,1.95
4459.00,1.94
4458.00,1.93
4457.00,1.93
4456.00,1.92
4455.00,1.91
4454.00,1.91
4453.00,1.90
4452.00,1.89
4451.00,1.88
4450.00,1.87
4449.00,1.87
4448.00,1.86
4447.00,1.85
4446.00,1.84
4445.00,1.83
4444.00,1.82
4443.00,1.82
4442.00,1.81
4441.00,1.80
4440.00,1.79
4439.00,1.78
4438.00,1.77
4437.00,1.76
4436.00,1.76
4435.00,1.75
4434.00,1.74
4433.00,1.73
4432.00,1.73
4431.00,1.72
4430.00,1.71
4429.00,1.71
4428.00,1.71
4427.00,1.70
4426.00,1.70
4425.00,1.69
4424.00,1.69
4423.00,1.69
4422.00,1.68
4421.00,1.68
4420.00,1.68
4419.00,1.68
4418.00,1.67
4417.00,1.67
4416.00,1.67
4415.00,1.67
4414.00,1.67
4413.00,1.67
4412.00,1.67
4411.00,1.68
4410.00,1.68
4409.00,1.68
4408.00,1.68
4407.00,1.68
4406.00,1.68
4405.00,1.69
4404.00,1.69
4403.00,1.69
4402.00,1.69
4401.00,1.70
4400.00,1.70
4399.00,1.70
4398.00,1.70
4397.00,1.71
4396.00,1.71
4395.00,1.71
4394.00,1.72
4393.00,1.72
4392.00,1.73
4391.00,1.73
4390.00,1.74
4389.00,1.74
4388.00,1.75
4387.00,1.75
4386.00,1.75
4385.00,1.76
4384.00,1.76
4383.00,1.77
4382.00,1.77
4381.00,1.78
4380.00,1.78
4379.00,1.78
4378.00,1.79
4377.00,1.79
4376.00,1.80
4375.00,1.80
4374.00,1.80
4373.00,1.81
4372.00,1.81
4371.00,1.81
4370.00,1.82
4369.00,1.82
4368.00,1.82
4367.00,1.82
4366.00,1.82
4365.00,1.82
4364.00,1.82
4363.00,1.82
4362.00,1.81
4361.00,1.81
4360.00,1.81
4359.00,1.81
4358.00,1.81
4357.00,1.80
4356.00,1.80
4355.00,1.80
4354.00,1.80
4353.00,1.79
4352.00,1.79
4351.00,1.79
4350.00,1.78
4349.00,1.78
4348.00,1.78
4347.00,1.77
4346.00,1.77
4345.00,1.77
4344.00,1.77
4343.00,1.76
4342.00,1.76
4341.00,1.76
4340.00,1.76
4339.00,1.76
4338.00,1.76
4337.00,1.76
4336.00,1.76
4335.00,1.77
4334.00,1.77
4333.00,1.77
4332.00,1.78
4331.00,1.78
4330.00,1.78
4329.00,1.79
4328.00,1.79
4327.00,1.79
4326.00,1.80
4325.00,1.80
4324.00,1.81
4323.00,1.81
4322.00,1.82
4321.00,1.82
4320.00,1.83
4319.00,1.83
4318.00,1.84
4317.00,1.85
4316.00,1.85
4315.00,1.86
4314.00,1.86
4313.00,1.87
4312.00,1.87
4311.00,1.88
4310.00,1.88
4309.00,1.88
4308.00,1.89
4307.00,1.89
4306.00,1.89
4305.00,1.90
4304.00,1.90
4303.00,1.90
4302.00,1.91
4301.00,1.91
4300.00,1.91
4299.00,1.91
4298.00,1.92
4297.00,1.92
4296.00,1.92
4295.00,1.92
4294.00,1.92
4293.00,1.93
4292.00,1.93
4291.00,1.93
4290.00,1.93
4289.00,1.93
4288.00,1.93
4287.00,1.93
4286.00,1.93
4285.00,1.93
4284.00,1.93
4283.00,1.93
4282.00,1.93
4281.00,1.93
4280.00,1.93
4279.00,1.93
4278.00,1.93
4277.00,1.93
4276.00,1.93
4275.00,1.93
4274.00,1.93
4273.00,1.93
4272.00,1.93
4271.00,1.93
4270.00,1.93
4269.00,1.93
4268.00,1.93
4267.00,1.93
4266.00,1.93
4265.00,1.93
4264.00,1.93
4263.00,1.93
4262.00,1.93
4261.00,1.93
4260.00,1.93
4259.00,1.93
4258.00,1.93
4257.00,1.93
4256.00,1.93
4255.00,1.93
4254.00,1.93
4253.00,1.93
4252.00,1.93
4251.00,1.93
4250.00,1.93
4249.00,1.93
4248.00,1.93
4247.00,1.93
4246.00,1.93
4245.00,1.93
4244.00,1.93
4243.00,1.93
4242.00,1.93
4241.00,1.93
4240.00,1.93
4239.00,1.94
4238.00,1.94
4237.00,1.94
4236.00,1.94
4235.00,1.94
4234.00,1.95
4233.00,1.95
4232.00,1.95
4231.00,1.95
4230.00,1.96
4229.00,1.96
4228.00,1.96
4227.00,1.96
4226.00,1.96
4225.00,1.96
4224.00,1.97
4223.00,1.97
4222.00,1.97
4221.00,1.97
4220.00,1.97
4219.00,1.97
4218.00,1.97
4217.00,1.97
4216.00,1.97
4215.00,1.97
4214.00,1.97
4213.00,1.97
4212.00,1.97
4211.00,1.97
4210.00,1.97
4209.00,1.97
4208.00,1.96
4207.00,1.96
4206.00,1.96
4205.00,1.96
4204.00,1.96
4203.00,1.96
4202.00,1.96
4201.00,1.96
4200.00,1.95
4199.00,1.95
4198.00,1.95
4197.00,1.95
4196.00,1.95
4195.00,1.95
4194.00,1.95
4193.00,1.95
4192.00,1.95
4191.00,1.94
4190.00,1.94
4189.00,1.94
4188.00,1.94
4187.00,1.93
4186.00,1.93
4185.00,1.93
4184.00,1.93
4183.00,1.93
4182.00,1.92
4181.00,1.92
4180.00,1.92
4179.00,1.92
4178.00,1.92
4177.00,1.92
4176.00,1.91
4175.00,1.91
4174.00,1.91
4173.00,1.90
4172.00,1.90
4171.00,1.90
4170.00,1.89
4169.00,1.89
4168.00,1.89
4167.00,1.89
4166.00,1.88
4165.00,1.88
4164.00,1.88
4163.00,1.88
4162.00,1.89
4161.00,1.89
4160.00,1.89
4159.00,1.89
4158.00,1.89
4157.00,1.89
4156.00,1.89
4155.00,1.89
4154.00,1.89
4153.00,1.89
4152.00,1.90
4151.00,1.90
4150.00,1.90
4149.00,1.90
4148.00,1.91
4147.00,1.91
4146.00,1.91
4145.00,1.92
4144.00,1.92
4143.00,1.92
4142.00,1.92
4141.00,1.93
4140.00,1.93
4139.00,1.93
4138.00,1.93
4137.00,1.93
4136.00,1.93
4135.00,1.94
4134.00,1.94
4133.00,1.94
4132.00,1.94
4131.00,1.94
4130.00,1.94
4129.00,1.94
4128.00,1.94
4127.00,1.93
4126.00,1.93
4125.00,1.93
4124.00,1.93
4123.00,1.93
4122.00,1.92
4121.00,1.92
4120.00,1.92
4119.00,1.92
4118.00,1.92
4117.00,1.92
4116.00,1.92
4115.00,1.92
4114.00,1.92
4113.00,1.92
4112.00,1.91
4111.00,1.91
4110.00,1.91
4109.00,1.91
4108.00,1.91
4107.00,1.91
4106.00,1.91
4105.00,1.91
4104.00,1.91
4103.00,1.90
4102.00,1.90
4101.00,1.90
4100.00,1.90
4099.00,1.90
4098.00,1.90
4097.00,1.90
4096.00,1.89
4095.00,1.89
4094.00,1.88
4093.00,1.88
4092.00,1.87
4091.00,1.87
4090.00,1.86
4089.00,1.86
4088.00,1.86
4087.00,1.85
4086.00,1.85
4085.00,1.84
4084.00,1.84
4083.00,1.83
4082.00,1.83
4081.00,1.82
4080.00,1.82
4079.00,1.81
4078.00,1.81
4077.00,1.80
4076.00,1.80
4075.00,1.80
4074.00,1.79
4073.00,1.79
4072.00,1.79
4071.00,1.79
4070.00,1.79
4069.00,1.79
4068.00,1.79
4067.00,1.79
4066.00,1.79
4065.00,1.80
4064.00,1.80
4063.00,1.80
4062.00,1.80
4061.00,1.80
4060.00,1.80
4059.00,1.81
4058.00,1.81
4057.00,1.81
4056.00,1.81
4055.00,1.82
4054.00,1.82
4053.00,1.83
4052.00,1.83
4051.00,1.84
4050.00,1.84
4049.00,1.85
4048.00,1.85
4047.00,1.86
4046.00,1.86
4045.00,1.87
4044.00,1.87
4043.00,1.87
4042.00,1.88
4041.00,1.88
4040.00,1.89
4039.00,1.89
4038.00,1.90
4037.00,1.90
4036.00,1.90
4035.00,1.91
4034.00,1.91
4033.00,1.92
4032.00,1.92
4031.00,1.93
4030.00,1.93
4029.00,1.94
4028.00,1.94
4027.00,1.94
4026.00,1.95
4025.00,1.95
4024.00,1.95
4023.00,1.96
4022.00,1.96
4021.00,1.97
4020.00,1.98
4019.00,1.98
4018.00,1.99
4017.00,2.00
4016.00,2.00
4015.00,2.01
4014.00,2.01
4013.00,2.02
4012.00,2.02
4011.00,2.03
4010.00,2.03
4009.00,2.04
4008.00,2.05
4007.00,2.05
4006.00,2.06
4005.00,2.06
4004.00,2.07
4003.00,2.08
4002.00,2.09
4001.00,2.09
4000.00,2.10
