创建为新数据集,样品 063 用户 Administrator 日期 星期五, 七月 26 2019
cm-1,%T
10000.00,1.86
9999.00,1.85
9998.00,1.84
9997.00,1.84
9996.00,1.83
9995.00,1.82
9994.00,1.81
9993.00,1.81
9992.00,1.80
9991.00,1.80
9990.00,1.79
9989.00,1.79
9988.00,1.79
9987.00,1.78
9986.00,1.78
9985.00,1.78
9984.00,1.77
9983.00,1.77
9982.00,1.77
9981.00,1.76
9980.00,1.76
9979.00,1.76
9978.00,1.75
9977.00,1.75
9976.00,1.74
9975.00,1.74
9974.00,1.73
9973.00,1.73
9972.00,1.72
9971.00,1.72
9970.00,1.71
9969.00,1.71
9968.00,1.70
9967.00,1.70
9966.00,1.69
9965.00,1.68
9964.00,1.67
9963.00,1.66
9962.00,1.65
9961.00,1.64
9960.00,1.63
9959.00,1.62
9958.00,1.60
9957.00,1.59
9956.00,1.58
9955.00,1.57
9954.00,1.56
9953.00,1.55
9952.00,1.54
9951.00,1.54
9950.00,1.53
9949.00,1.53
9948.00,1.53
9947.00,1.53
9946.00,1.53
9945.00,1.53
9944.00,1.53
9943.00,1.53
9942.00,1.53
9941.00,1.54
9940.00,1.54
9939.00,1.54
9938.00,1.55
9937.00,1.55
9936.00,1.56
9935.00,1.57
9934.00,1.58
9933.00,1.59
9932.00,1.60
9931.00,1.61
9930.00,1.62
9929.00,1.63
9928.00,1.64
9927.00,1.65
9926.00,1.66
9925.00,1.67
9924.00,1.67
9923.00,1.68
9922.00,1.68
9921.00,1.69
9920.00,1.69
9919.00,1.70
9918.00,1.70
9917.00,1.70
9916.00,1.71
9915.00,1.71
9914.00,1.71
9913.00,1.72
9912.00,1.72
9911.00,1.72
9910.00,1.72
9909.00,1.73
9908.00,1.73
9907.00,1.73
9906.00,1.73
9905.00,1.73
9904.00,1.72
9903.00,1.72
9902.00,1.72
9901.00,1.71
9900.00,1.71
9899.00,1.71
9898.00,1.70
9897.00,1.70
9896.00,1.69
9895.00,1.69
9894.00,1.68
9893.00,1.67
9892.00,1.66
9891.00,1.65
9890.00,1.64
9889.00,1.63
9888.00,1.62
9887.00,1.61
9886.00,1.60
9885.00,1.58
9884.00,1.57
9883.00,1.56
9882.00,1.54
9881.00,1.53
9880.00,1.51
9879.00,1.50
9878.00,1.49
9877.00,1.48
9876.00,1.46
9875.00,1.45
9874.00,1.44
9873.00,1.43
9872.00,1.42
9871.00,1.41
9870.00,1.40
9869.00,1.39
9868.00,1.38
9867.00,1.37
9866.00,1.36
9865.00,1.35
9864.00,1.35
9863.00,1.34
9862.00,1.34
9861.00,1.33
9860.00,1.33
9859.00,1.33
9858.00,1.33
9857.00,1.33
9856.00,1.32
9855.00,1.32
9854.00,1.32
9853.00,1.32
9852.00,1.32
9851.00,1.32
9850.00,1.32
9849.00,1.33
9848.00,1.33
9847.00,1.33
9846.00,1.34
9845.00,1.34
9844.00,1.35
9843.00,1.35
9842.00,1.36
9841.00,1.36
9840.00,1.37
9839.00,1.37
9838.00,1.38
9837.00,1.39
9836.00,1.39
9835.00,1.40
9834.00,1.41
9833.00,1.42
9832.00,1.42
9831.00,1.43
9830.00,1.44
9829.00,1.44
9828.00,1.45
9827.00,1.46
9826.00,1.46
9825.00,1.47
9824.00,1.47
9823.00,1.47
9822.00,1.48
9821.00,1.48
9820.00,1.48
9819.00,1.48
9818.00,1.48
9817.00,1.48
9816.00,1.48
9815.00,1.48
9814.00,1.48
9813.00,1.48
9812.00,1.48
9811.00,1.48
9810.00,1.47
9809.00,1.47
9808.00,1.47
9807.00,1.46
9806.00,1.46
9805.00,1.46
9804.00,1.46
9803.00,1.45
9802.00,1.45
9801.00,1.45
9800.00,1.45
9799.00,1.45
9798.00,1.46
9797.00,1.46
9796.00,1.46
9795.00,1.47
9794.00,1.48
9793.00,1.48
9792.00,1.49
9791.00,1.50
9790.00,1.51
9789.00,1.51
9788.00,1.52
9787.00,1.53
9786.00,1.54
9785.00,1.55
9784.00,1.55
9783.00,1.56
9782.00,1.57
9781.00,1.57
9780.00,1.58
9779.00,1.59
9778.00,1.59
9777.00,1.60
9776.00,1.60
9775.00,1.61
9774.00,1.61
9773.00,1.61
9772.00,1.62
9771.00,1.62
9770.00,1.62
9769.00,1.62
9768.00,1.62
9767.00,1.62
9766.00,1.62
9765.00,1.62
9764.00,1.62
9763.00,1.62
9762.00,1.62
9761.00,1.61
9760.00,1.61
9759.00,1.61
9758.00,1.61
9757.00,1.61
9756.00,1.61
9755.00,1.61
9754.00,1.61
9753.00,1.60
9752.00,1.60
9751.00,1.60
9750.00,1.60
9749.00,1.61
9748.00,1.61
9747.00,1.61
9746.00,1.61
9745.00,1.61
9744.00,1.61
9743.00,1.61
9742.00,1.61
9741.00,1.60
9740.00,1.60
9739.00,1.60
9738.00,1.60
9737.00,1.60
9736.00,1.60
9735.00,1.60
9734.00,1.60
9733.00,1.60
9732.00,1.60
9731.00,1.60
9730.00,1.60
9729.00,1.60
9728.00,1.60
9727.00,1.61
9726.00,1.60
9725.00,1.60
9724.00,1.60
9723.00,1.60
9722.00,1.60
9721.00,1.60
9720.00,1.60
9719.00,1.60
9718.00,1.60
9717.00,1.60
9716.00,1.59
9715.00,1.59
9714.00,1.59
9713.00,1.59
9712.00,1.59
9711.00,1.59
9710.00,1.59
9709.00,1.59
9708.00,1.58
9707.00,1.58
9706.00,1.58
9705.00,1.58
9704.00,1.57
9703.00,1.57
9702.00,1.57
9701.00,1.56
9700.00,1.56
9699.00,1.56
9698.00,1.55
9697.00,1.55
9696.00,1.55
9695.00,1.54
9694.00,1.54
9693.00,1.54
9692.00,1.53
9691.00,1.53
9690.00,1.53
9689.00,1.53
9688.00,1.53
9687.00,1.53
9686.00,1.53
9685.00,1.53
9684.00,1.53
9683.00,1.53
9682.00,1.53
9681.00,1.53
9680.00,1.53
9679.00,1.53
9678.00,1.53
9677.00,1.53
9676.00,1.53
9675.00,1.53
9674.00,1.54
9673.00,1.54
9672.00,1.54
9671.00,1.54
9670.00,1.55
9669.00,1.55
9668.00,1.55
9667.00,1.56
9666.00,1.56
9665.00,1.56
9664.00,1.57
9663.00,1.57
9662.00,1.57
9661.00,1.57
9660.00,1.57
9659.00,1.57
9658.00,1.56
9657.00,1.56
9656.00,1.56
9655.00,1.55
9654.00,1.55
9653.00,1.55
9652.00,1.55
9651.00,1.54
9650.00,1.54
9649.00,1.54
9648.00,1.54
9647.00,1.54
9646.00,1.55
9645.00,1.55
9644.00,1.55
9643.00,1.55
9642.00,1.56
9641.00,1.56
9640.00,1.56
9639.00,1.56
9638.00,1.57
9637.00,1.57
9636.00,1.57
9635.00,1.58
9634.00,1.58
9633.00,1.59
9632.00,1.59
9631.00,1.59
9630.00,1.60
9629.00,1.60
9628.00,1.60
9627.00,1.61
9626.00,1.61
9625.00,1.61
9624.00,1.61
9623.00,1.60
9622.00,1.60
9621.00,1.59
9620.00,1.59
9619.00,1.58
9618.00,1.57
9617.00,1.56
9616.00,1.54
9615.00,1.53
9614.00,1.52
9613.00,1.50
9612.00,1.49
9611.00,1.48
9610.00,1.47
9609.00,1.45
9608.00,1.44
9607.00,1.43
9606.00,1.42
9605.00,1.41
9604.00,1.40
9603.00,1.39
9602.00,1.39
9601.00,1.38
9600.00,1.38
9599.00,1.37
9598.00,1.37
9597.00,1.36
9596.00,1.36
9595.00,1.36
9594.00,1.36
9593.00,1.36
9592.00,1.37
9591.00,1.37
9590.00,1.38
9589.00,1.38
9588.00,1.39
9587.00,1.39
9586.00,1.40
9585.00,1.41
9584.00,1.41
9583.00,1.42
9582.00,1.42
9581.00,1.43
9580.00,1.43
9579.00,1.44
9578.00,1.44
9577.00,1.44
9576.00,1.45
9575.00,1.45
9574.00,1.45
9573.00,1.46
9572.00,1.46
9571.00,1.46
9570.00,1.47
9569.00,1.47
9568.00,1.47
9567.00,1.48
9566.00,1.48
9565.00,1.48
9564.00,1.49
9563.00,1.49
9562.00,1.49
9561.00,1.49
9560.00,1.49
9559.00,1.49
9558.00,1.49
9557.00,1.49
9556.00,1.49
9555.00,1.49
9554.00,1.49
9553.00,1.49
9552.00,1.49
9551.00,1.49
9550.00,1.49
9549.00,1.50
9548.00,1.50
9547.00,1.50
9546.00,1.50
9545.00,1.50
9544.00,1.50
9543.00,1.50
9542.00,1.50
9541.00,1.50
9540.00,1.50
9539.00,1.50
9538.00,1.50
9537.00,1.51
9536.00,1.51
9535.00,1.51
9534.00,1.52
9533.00,1.52
9532.00,1.52
9531.00,1.53
9530.00,1.53
9529.00,1.54
9528.00,1.54
9527.00,1.54
9526.00,1.55
9525.00,1.55
9524.00,1.55
9523.00,1.55
9522.00,1.55
9521.00,1.55
9520.00,1.55
9519.00,1.54
9518.00,1.54
9517.00,1.54
9516.00,1.53
9515.00,1.53
9514.00,1.52
9513.00,1.52
9512.00,1.51
9511.00,1.50
9510.00,1.50
9509.00,1.49
9508.00,1.49
9507.00,1.48
9506.00,1.47
9505.00,1.47
9504.00,1.46
9503.00,1.45
9502.00,1.45
9501.00,1.44
9500.00,1.44
9499.00,1.43
9498.00,1.43
9497.00,1.43
9496.00,1.43
9495.00,1.42
9494.00,1.42
9493.00,1.43
9492.00,1.43
9491.00,1.43
9490.00,1.43
9489.00,1.44
9488.00,1.44
9487.00,1.45
9486.00,1.45
9485.00,1.45
9484.00,1.46
9483.00,1.46
9482.00,1.47
9481.00,1.47
9480.00,1.47
9479.00,1.48
9478.00,1.48
9477.00,1.48
9476.00,1.48
9475.00,1.49
9474.00,1.49
9473.00,1.49
9472.00,1.49
9471.00,1.49
9470.00,1.49
9469.00,1.50
9468.00,1.50
9467.00,1.50
9466.00,1.50
9465.00,1.50
9464.00,1.50
9463.00,1.50
9462.00,1.49
9461.00,1.49
9460.00,1.49
9459.00,1.49
9458.00,1.48
9457.00,1.48
9456.00,1.48
9455.00,1.47
9454.00,1.47
9453.00,1.47
9452.00,1.47
9451.00,1.47
9450.00,1.47
9449.00,1.47
9448.00,1.47
9447.00,1.47
9446.00,1.47
9445.00,1.48
9444.00,1.48
9443.00,1.49
9442.00,1.49
9441.00,1.50
9440.00,1.50
9439.00,1.50
9438.00,1.51
9437.00,1.51
9436.00,1.52
9435.00,1.52
9434.00,1.52
9433.00,1.53
9432.00,1.53
9431.00,1.54
9430.00,1.54
9429.00,1.55
9428.00,1.55
9427.00,1.56
9426.00,1.56
9425.00,1.56
9424.00,1.57
9423.00,1.57
9422.00,1.57
9421.00,1.57
9420.00,1.57
9419.00,1.57
9418.00,1.57
9417.00,1.57
9416.00,1.57
9415.00,1.56
9414.00,1.56
9413.00,1.56
9412.00,1.56
9411.00,1.55
9410.00,1.55
9409.00,1.55
9408.00,1.55
9407.00,1.55
9406.00,1.55
9405.00,1.55
9404.00,1.55
9403.00,1.54
9402.00,1.54
9401.00,1.54
9400.00,1.54
9399.00,1.54
9398.00,1.54
9397.00,1.54
9396.00,1.54
9395.00,1.54
9394.00,1.54
9393.00,1.54
9392.00,1.54
9391.00,1.54
9390.00,1.54
9389.00,1.54
9388.00,1.54
9387.00,1.55
9386.00,1.55
9385.00,1.55
9384.00,1.55
9383.00,1.56
9382.00,1.56
9381.00,1.56
9380.00,1.56
9379.00,1.56
9378.00,1.57
9377.00,1.57
9376.00,1.57
9375.00,1.57
9374.00,1.58
9373.00,1.58
9372.00,1.58
9371.00,1.58
9370.00,1.58
9369.00,1.59
9368.00,1.59
9367.00,1.59
9366.00,1.59
9365.00,1.59
9364.00,1.58
9363.00,1.58
9362.00,1.58
9361.00,1.58
9360.00,1.57
9359.00,1.57
9358.00,1.56
9357.00,1.56
9356.00,1.55
9355.00,1.55
9354.00,1.54
9353.00,1.54
9352.00,1.53
9351.00,1.53
9350.00,1.53
9349.00,1.52
9348.00,1.52
9347.00,1.51
9346.00,1.51
9345.00,1.50
9344.00,1.50
9343.00,1.50
9342.00,1.49
9341.00,1.49
9340.00,1.49
9339.00,1.49
9338.00,1.49
9337.00,1.49
9336.00,1.49
9335.00,1.49
9334.00,1.49
9333.00,1.50
9332.00,1.50
9331.00,1.51
9330.00,1.51
9329.00,1.51
9328.00,1.52
9327.00,1.52
9326.00,1.53
9325.00,1.53
9324.00,1.53
9323.00,1.54
9322.00,1.54
9321.00,1.55
9320.00,1.55
9319.00,1.55
9318.00,1.56
9317.00,1.56
9316.00,1.56
9315.00,1.57
9314.00,1.57
9313.00,1.57
9312.00,1.57
9311.00,1.57
9310.00,1.58
9309.00,1.58
9308.00,1.58
9307.00,1.58
9306.00,1.58
9305.00,1.58
9304.00,1.58
9303.00,1.58
9302.00,1.58
9301.00,1.58
9300.00,1.58
9299.00,1.58
9298.00,1.57
9297.00,1.57
9296.00,1.57
9295.00,1.57
9294.00,1.57
9293.00,1.57
9292.00,1.57
9291.00,1.56
9290.00,1.56
9289.00,1.56
9288.00,1.56
9287.00,1.56
9286.00,1.56
9285.00,1.56
9284.00,1.56
9283.00,1.56
9282.00,1.56
9281.00,1.56
9280.00,1.56
9279.00,1.56
9278.00,1.56
9277.00,1.56
9276.00,1.56
9275.00,1.56
9274.00,1.56
9273.00,1.56
9272.00,1.56
9271.00,1.56
9270.00,1.56
9269.00,1.56
9268.00,1.56
9267.00,1.56
9266.00,1.56
9265.00,1.56
9264.00,1.57
9263.00,1.57
9262.00,1.57
9261.00,1.57
9260.00,1.58
9259.00,1.58
9258.00,1.58
9257.00,1.58
9256.00,1.58
9255.00,1.58
9254.00,1.58
9253.00,1.58
9252.00,1.59
9251.00,1.59
9250.00,1.59
9249.00,1.59
9248.00,1.59
9247.00,1.59
9246.00,1.60
9245.00,1.60
9244.00,1.60
9243.00,1.61
9242.00,1.61
9241.00,1.61
9240.00,1.61
9239.00,1.62
9238.00,1.62
9237.00,1.62
9236.00,1.62
9235.00,1.62
9234.00,1.62
9233.00,1.62
9232.00,1.62
9231.00,1.62
9230.00,1.62
9229.00,1.62
9228.00,1.62
9227.00,1.63
9226.00,1.63
9225.00,1.63
9224.00,1.63
9223.00,1.63
9222.00,1.63
9221.00,1.62
9220.00,1.62
9219.00,1.62
9218.00,1.62
9217.00,1.61
9216.00,1.61
9215.00,1.61
9214.00,1.60
9213.00,1.60
9212.00,1.60
9211.00,1.60
9210.00,1.59
9209.00,1.59
9208.00,1.59
9207.00,1.59
9206.00,1.59
9205.00,1.59
9204.00,1.59
9203.00,1.59
9202.00,1.59
9201.00,1.59
9200.00,1.59
9199.00,1.59
9198.00,1.59
9197.00,1.59
9196.00,1.59
9195.00,1.59
9194.00,1.59
9193.00,1.59
9192.00,1.60
9191.00,1.60
9190.00,1.60
9189.00,1.60
9188.00,1.60
9187.00,1.60
9186.00,1.60
9185.00,1.60
9184.00,1.60
9183.00,1.59
9182.00,1.59
9181.00,1.59
9180.00,1.58
9179.00,1.58
9178.00,1.57
9177.00,1.57
9176.00,1.56
9175.00,1.56
9174.00,1.55
9173.00,1.55
9172.00,1.54
9171.00,1.53
9170.00,1.53
9169.00,1.52
9168.00,1.52
9167.00,1.51
9166.00,1.51
9165.00,1.51
9164.00,1.50
9163.00,1.50
9162.00,1.50
9161.00,1.50
9160.00,1.49
9159.00,1.49
9158.00,1.49
9157.00,1.50
9156.00,1.50
9155.00,1.50
9154.00,1.50
9153.00,1.50
9152.00,1.51
9151.00,1.51
9150.00,1.51
9149.00,1.51
9148.00,1.52
9147.00,1.52
9146.00,1.52
9145.00,1.53
9144.00,1.53
9143.00,1.53
9142.00,1.54
9141.00,1.54
9140.00,1.54
9139.00,1.55
9138.00,1.55
9137.00,1.55
9136.00,1.55
9135.00,1.55
9134.00,1.55
9133.00,1.55
9132.00,1.55
9131.00,1.55
9130.00,1.55
9129.00,1.55
9128.00,1.55
9127.00,1.55
9126.00,1.55
9125.00,1.55
9124.00,1.54
9123.00,1.54
9122.00,1.54
9121.00,1.54
9120.00,1.53
9119.00,1.53
9118.00,1.53
9117.00,1.53
9116.00,1.53
9115.00,1.52
9114.00,1.52
9113.00,1.52
9112.00,1.52
9111.00,1.52
9110.00,1.51
9109.00,1.51
9108.00,1.51
9107.00,1.51
9106.00,1.50
9105.00,1.50
9104.00,1.50
9103.00,1.50
9102.00,1.49
9101.00,1.49
9100.00,1.49
9099.00,1.49
9098.00,1.49
9097.00,1.49
9096.00,1.48
9095.00,1.48
9094.00,1.48
9093.00,1.48
9092.00,1.48
9091.00,1.48
9090.00,1.48
9089.00,1.48
9088.00,1.48
9087.00,1.47
9086.00,1.47
9085.00,1.47
9084.00,1.47
9083.00,1.48
9082.00,1.48
9081.00,1.48
9080.00,1.48
9079.00,1.48
9078.00,1.48
9077.00,1.48
9076.00,1.48
9075.00,1.48
9074.00,1.49
9073.00,1.49
9072.00,1.49
9071.00,1.49
9070.00,1.49
9069.00,1.49
9068.00,1.50
9067.00,1.50
9066.00,1.50
9065.00,1.50
9064.00,1.50
9063.00,1.50
9062.00,1.50
9061.00,1.51
9060.00,1.51
9059.00,1.51
9058.00,1.51
9057.00,1.51
9056.00,1.51
9055.00,1.51
9054.00,1.51
9053.00,1.51
9052.00,1.51
9051.00,1.51
9050.00,1.52
9049.00,1.52
9048.00,1.52
9047.00,1.52
9046.00,1.52
9045.00,1.52
9044.00,1.53
9043.00,1.53
9042.00,1.53
9041.00,1.53
9040.00,1.54
9039.00,1.54
9038.00,1.54
9037.00,1.55
9036.00,1.55
9035.00,1.55
9034.00,1.56
9033.00,1.56
9032.00,1.57
9031.00,1.57
9030.00,1.58
9029.00,1.58
9028.00,1.59
9027.00,1.59
9026.00,1.60
9025.00,1.60
9024.00,1.61
9023.00,1.61
9022.00,1.61
9021.00,1.62
9020.00,1.62
9019.00,1.62
9018.00,1.63
9017.00,1.63
9016.00,1.64
9015.00,1.64
9014.00,1.64
9013.00,1.65
9012.00,1.65
9011.00,1.65
9010.00,1.65
9009.00,1.65
9008.00,1.65
9007.00,1.65
9006.00,1.65
9005.00,1.65
9004.00,1.65
9003.00,1.65
9002.00,1.65
9001.00,1.64
9000.00,1.64
8999.00,1.64
8998.00,1.64
8997.00,1.64
8996.00,1.64
8995.00,1.63
8994.00,1.63
8993.00,1.63
8992.00,1.63
8991.00,1.62
8990.00,1.62
8989.00,1.62
8988.00,1.62
8987.00,1.61
8986.00,1.61
8985.00,1.61
8984.00,1.61
8983.00,1.61
8982.00,1.61
8981.00,1.61
8980.00,1.60
8979.00,1.60
8978.00,1.60
8977.00,1.60
8976.00,1.60
8975.00,1.60
8974.00,1.60
8973.00,1.60
8972.00,1.60
8971.00,1.60
8970.00,1.59
8969.00,1.59
8968.00,1.59
8967.00,1.59
8966.00,1.59
8965.00,1.58
8964.00,1.58
8963.00,1.58
8962.00,1.58
8961.00,1.57
8960.00,1.57
8959.00,1.57
8958.00,1.57
8957.00,1.57
8956.00,1.56
8955.00,1.56
8954.00,1.56
8953.00,1.56
8952.00,1.55
8951.00,1.55
8950.00,1.55
8949.00,1.54
8948.00,1.54
8947.00,1.54
8946.00,1.53
8945.00,1.53
8944.00,1.53
8943.00,1.53
8942.00,1.53
8941.00,1.53
8940.00,1.52
8939.00,1.52
8938.00,1.52
8937.00,1.52
8936.00,1.53
8935.00,1.53
8934.00,1.53
8933.00,1.53
8932.00,1.53
8931.00,1.53
8930.00,1.53
8929.00,1.53
8928.00,1.53
8927.00,1.53
8926.00,1.54
8925.00,1.54
8924.00,1.54
8923.00,1.54
8922.00,1.54
8921.00,1.55
8920.00,1.55
8919.00,1.55
8918.00,1.55
8917.00,1.55
8916.00,1.56
8915.00,1.56
8914.00,1.56
8913.00,1.56
8912.00,1.56
8911.00,1.56
8910.00,1.56
8909.00,1.56
8908.00,1.56
8907.00,1.56
8906.00,1.55
8905.00,1.55
8904.00,1.55
8903.00,1.55
8902.00,1.54
8901.00,1.54
8900.00,1.54
8899.00,1.54
8898.00,1.54
8897.00,1.54
8896.00,1.54
8895.00,1.53
8894.00,1.53
8893.00,1.53
8892.00,1.53
8891.00,1.53
8890.00,1.53
8889.00,1.54
8888.00,1.54
8887.00,1.54
8886.00,1.54
8885.00,1.54
8884.00,1.54
8883.00,1.54
8882.00,1.54
8881.00,1.55
8880.00,1.55
8879.00,1.55
8878.00,1.56
8877.00,1.56
8876.00,1.56
8875.00,1.57
8874.00,1.57
8873.00,1.57
8872.00,1.57
8871.00,1.57
8870.00,1.58
8869.00,1.58
8868.00,1.58
8867.00,1.58
8866.00,1.58
8865.00,1.58
8864.00,1.58
8863.00,1.57
8862.00,1.57
8861.00,1.57
8860.00,1.57
8859.00,1.56
8858.00,1.56
8857.00,1.56
8856.00,1.56
8855.00,1.56
8854.00,1.55
8853.00,1.55
8852.00,1.55
8851.00,1.55
8850.00,1.55
8849.00,1.55
8848.00,1.55
8847.00,1.55
8846.00,1.55
8845.00,1.55
8844.00,1.55
8843.00,1.55
8842.00,1.55
8841.00,1.55
8840.00,1.55
8839.00,1.56
8838.00,1.56
8837.00,1.56
8836.00,1.56
8835.00,1.56
8834.00,1.57
8833.00,1.57
8832.00,1.57
8831.00,1.57
8830.00,1.57
8829.00,1.57
8828.00,1.57
8827.00,1.57
8826.00,1.58
8825.00,1.58
8824.00,1.58
8823.00,1.58
8822.00,1.58
8821.00,1.58
8820.00,1.58
8819.00,1.58
8818.00,1.58
8817.00,1.58
8816.00,1.58
8815.00,1.57
8814.00,1.57
8813.00,1.57
8812.00,1.57
8811.00,1.57
8810.00,1.57
8809.00,1.57
8808.00,1.57
8807.00,1.57
8806.00,1.57
8805.00,1.57
8804.00,1.58
8803.00,1.58
8802.00,1.58
8801.00,1.58
8800.00,1.58
8799.00,1.58
8798.00,1.59
8797.00,1.59
8796.00,1.59
8795.00,1.59
8794.00,1.59
8793.00,1.59
8792.00,1.59
8791.00,1.59
8790.00,1.59
8789.00,1.59
8788.00,1.59
8787.00,1.59
8786.00,1.59
8785.00,1.59
8784.00,1.59
8783.00,1.59
8782.00,1.59
8781.00,1.59
8780.00,1.59
8779.00,1.59
8778.00,1.59
8777.00,1.59
8776.00,1.58
8775.00,1.58
8774.00,1.58
8773.00,1.58
8772.00,1.57
8771.00,1.57
8770.00,1.57
8769.00,1.56
8768.00,1.56
8767.00,1.55
8766.00,1.55
8765.00,1.55
8764.00,1.54
8763.00,1.54
8762.00,1.54
8761.00,1.53
8760.00,1.53
8759.00,1.53
8758.00,1.53
8757.00,1.52
8756.00,1.52
8755.00,1.52
8754.00,1.52
8753.00,1.51
8752.00,1.51
8751.00,1.51
8750.00,1.51
8749.00,1.51
8748.00,1.50
8747.00,1.50
8746.00,1.50
8745.00,1.50
8744.00,1.51
8743.00,1.51
8742.00,1.51
8741.00,1.52
8740.00,1.52
8739.00,1.53
8738.00,1.54
8737.00,1.54
8736.00,1.55
8735.00,1.56
8734.00,1.56
8733.00,1.57
8732.00,1.58
8731.00,1.58
8730.00,1.59
8729.00,1.59
8728.00,1.60
8727.00,1.61
8726.00,1.61
8725.00,1.62
8724.00,1.63
8723.00,1.63
8722.00,1.64
8721.00,1.65
8720.00,1.65
8719.00,1.66
8718.00,1.66
8717.00,1.66
8716.00,1.66
8715.00,1.66
8714.00,1.66
8713.00,1.66
8712.00,1.65
8711.00,1.65
8710.00,1.64
8709.00,1.64
8708.00,1.63
8707.00,1.63
8706.00,1.62
8705.00,1.62
8704.00,1.61
8703.00,1.61
8702.00,1.60
8701.00,1.60
8700.00,1.59
8699.00,1.59
8698.00,1.58
8697.00,1.58
8696.00,1.57
8695.00,1.57
8694.00,1.57
8693.00,1.56
8692.00,1.56
8691.00,1.56
8690.00,1.55
8689.00,1.55
8688.00,1.55
8687.00,1.55
8686.00,1.55
8685.00,1.55
8684.00,1.55
8683.00,1.55
8682.00,1.55
8681.00,1.55
8680.00,1.56
8679.00,1.56
8678.00,1.56
8677.00,1.57
8676.00,1.57
8675.00,1.57
8674.00,1.57
8673.00,1.58
8672.00,1.58
8671.00,1.58
8670.00,1.58
8669.00,1.58
8668.00,1.59
8667.00,1.59
8666.00,1.59
8665.00,1.59
8664.00,1.59
8663.00,1.60
8662.00,1.60
8661.00,1.61
8660.00,1.61
8659.00,1.61
8658.00,1.62
8657.00,1.62
8656.00,1.62
8655.00,1.62
8654.00,1.62
8653.00,1.62
8652.00,1.62
8651.00,1.62
8650.00,1.62
8649.00,1.62
8648.00,1.62
8647.00,1.62
8646.00,1.61
8645.00,1.61
8644.00,1.61
8643.00,1.61
8642.00,1.60
8641.00,1.60
8640.00,1.60
8639.00,1.59
8638.00,1.59
8637.00,1.58
8636.00,1.58
8635.00,1.57
8634.00,1.57
8633.00,1.56
8632.00,1.56
8631.00,1.55
8630.00,1.55
8629.00,1.55
8628.00,1.54
8627.00,1.54
8626.00,1.54
8625.00,1.54
8624.00,1.54
8623.00,1.53
8622.00,1.53
8621.00,1.53
8620.00,1.53
8619.00,1.53
8618.00,1.54
8617.00,1.54
8616.00,1.54
8615.00,1.54
8614.00,1.55
8613.00,1.55
8612.00,1.55
8611.00,1.56
8610.00,1.56
8609.00,1.56
8608.00,1.56
8607.00,1.57
8606.00,1.57
8605.00,1.57
8604.00,1.57
8603.00,1.58
8602.00,1.58
8601.00,1.58
8600.00,1.58
8599.00,1.58
8598.00,1.58
8597.00,1.58
8596.00,1.58
8595.00,1.58
8594.00,1.58
8593.00,1.58
8592.00,1.58
8591.00,1.58
8590.00,1.58
8589.00,1.58
8588.00,1.57
8587.00,1.57
8586.00,1.57
8585.00,1.57
8584.00,1.57
8583.00,1.57
8582.00,1.57
8581.00,1.57
8580.00,1.57
8579.00,1.57
8578.00,1.57
8577.00,1.57
8576.00,1.57
8575.00,1.57
8574.00,1.57
8573.00,1.57
8572.00,1.57
8571.00,1.57
8570.00,1.57
8569.00,1.57
8568.00,1.57
8567.00,1.58
8566.00,1.58
8565.00,1.58
8564.00,1.58
8563.00,1.58
8562.00,1.58
8561.00,1.58
8560.00,1.57
8559.00,1.57
8558.00,1.57
8557.00,1.57
8556.00,1.57
8555.00,1.57
8554.00,1.56
8553.00,1.56
8552.00,1.56
8551.00,1.56
8550.00,1.55
8549.00,1.55
8548.00,1.55
8547.00,1.54
8546.00,1.54
8545.00,1.53
8544.00,1.53
8543.00,1.53
8542.00,1.52
8541.00,1.52
8540.00,1.51
8539.00,1.51
8538.00,1.51
8537.00,1.51
8536.00,1.51
8535.00,1.51
8534.00,1.51
8533.00,1.51
8532.00,1.51
8531.00,1.51
8530.00,1.51
8529.00,1.51
8528.00,1.51
8527.00,1.52
8526.00,1.52
8525.00,1.52
8524.00,1.52
8523.00,1.52
8522.00,1.53
8521.00,1.53
8520.00,1.53
8519.00,1.54
8518.00,1.54
8517.00,1.54
8516.00,1.54
8515.00,1.55
8514.00,1.55
8513.00,1.55
8512.00,1.55
8511.00,1.55
8510.00,1.55
8509.00,1.55
8508.00,1.55
8507.00,1.55
8506.00,1.55
8505.00,1.55
8504.00,1.55
8503.00,1.55
8502.00,1.55
8501.00,1.55
8500.00,1.55
8499.00,1.54
8498.00,1.54
8497.00,1.54
8496.00,1.54
8495.00,1.54
8494.00,1.53
8493.00,1.53
8492.00,1.53
8491.00,1.53
8490.00,1.53
8489.00,1.53
8488.00,1.52
8487.00,1.52
8486.00,1.52
8485.00,1.52
8484.00,1.52
8483.00,1.52
8482.00,1.52
8481.00,1.52
8480.00,1.52
8479.00,1.52
8478.00,1.52
8477.00,1.52
8476.00,1.52
8475.00,1.52
8474.00,1.52
8473.00,1.52
8472.00,1.52
8471.00,1.52
8470.00,1.52
8469.00,1.53
8468.00,1.53
8467.00,1.53
8466.00,1.53
8465.00,1.54
8464.00,1.54
8463.00,1.54
8462.00,1.55
8461.00,1.55
8460.00,1.56
8459.00,1.56
8458.00,1.57
8457.00,1.57
8456.00,1.57
8455.00,1.58
8454.00,1.58
8453.00,1.58
8452.00,1.59
8451.00,1.59
8450.00,1.59
8449.00,1.59
8448.00,1.60
8447.00,1.60
8446.00,1.60
8445.00,1.61
8444.00,1.61
8443.00,1.61
8442.00,1.61
8441.00,1.61
8440.00,1.61
8439.00,1.61
8438.00,1.61
8437.00,1.61
8436.00,1.60
8435.00,1.60
8434.00,1.60
8433.00,1.60
8432.00,1.59
8431.00,1.59
8430.00,1.59
8429.00,1.59
8428.00,1.59
8427.00,1.59
8426.00,1.58
8425.00,1.58
8424.00,1.58
8423.00,1.58
8422.00,1.57
8421.00,1.57
8420.00,1.57
8419.00,1.56
8418.00,1.56
8417.00,1.56
8416.00,1.56
8415.00,1.56
8414.00,1.56
8413.00,1.56
8412.00,1.56
8411.00,1.56
8410.00,1.56
8409.00,1.56
8408.00,1.56
8407.00,1.55
8406.00,1.55
8405.00,1.55
8404.00,1.55
8403.00,1.55
8402.00,1.55
8401.00,1.55
8400.00,1.55
8399.00,1.55
8398.00,1.55
8397.00,1.55
8396.00,1.55
8395.00,1.55
8394.00,1.56
8393.00,1.56
8392.00,1.56
8391.00,1.56
8390.00,1.56
8389.00,1.56
8388.00,1.56
8387.00,1.56
8386.00,1.56
8385.00,1.56
8384.00,1.56
8383.00,1.55
8382.00,1.56
8381.00,1.56
8380.00,1.56
8379.00,1.56
8378.00,1.56
8377.00,1.56
8376.00,1.56
8375.00,1.56
8374.00,1.56
8373.00,1.56
8372.00,1.56
8371.00,1.56
8370.00,1.56
8369.00,1.56
8368.00,1.56
8367.00,1.56
8366.00,1.56
8365.00,1.56
8364.00,1.56
8363.00,1.56
8362.00,1.56
8361.00,1.56
8360.00,1.56
8359.00,1.56
8358.00,1.56
8357.00,1.56
8356.00,1.56
8355.00,1.56
8354.00,1.56
8353.00,1.56
8352.00,1.56
8351.00,1.56
8350.00,1.56
8349.00,1.56
8348.00,1.56
8347.00,1.56
8346.00,1.56
8345.00,1.57
8344.00,1.57
8343.00,1.57
8342.00,1.57
8341.00,1.57
8340.00,1.57
8339.00,1.57
8338.00,1.57
8337.00,1.57
8336.00,1.57
8335.00,1.57
8334.00,1.57
8333.00,1.57
8332.00,1.57
8331.00,1.57
8330.00,1.57
8329.00,1.57
8328.00,1.57
8327.00,1.57
8326.00,1.57
8325.00,1.57
8324.00,1.57
8323.00,1.57
8322.00,1.57
8321.00,1.56
8320.00,1.56
8319.00,1.56
8318.00,1.56
8317.00,1.56
8316.00,1.56
8315.00,1.56
8314.00,1.56
8313.00,1.56
8312.00,1.55
8311.00,1.55
8310.00,1.55
8309.00,1.55
8308.00,1.56
8307.00,1.56
8306.00,1.56
8305.00,1.56
8304.00,1.56
8303.00,1.56
8302.00,1.56
8301.00,1.56
8300.00,1.56
8299.00,1.56
8298.00,1.57
8297.00,1.57
8296.00,1.57
8295.00,1.57
8294.00,1.57
8293.00,1.57
8292.00,1.58
8291.00,1.58
8290.00,1.58
8289.00,1.58
8288.00,1.58
8287.00,1.58
8286.00,1.58
8285.00,1.58
8284.00,1.58
8283.00,1.58
8282.00,1.58
8281.00,1.58
8280.00,1.57
8279.00,1.57
8278.00,1.57
8277.00,1.57
8276.00,1.57
8275.00,1.56
8274.00,1.56
8273.00,1.56
8272.00,1.56
8271.00,1.56
8270.00,1.55
8269.00,1.55
8268.00,1.55
8267.00,1.55
8266.00,1.55
8265.00,1.55
8264.00,1.55
8263.00,1.55
8262.00,1.54
8261.00,1.54
8260.00,1.54
8259.00,1.54
8258.00,1.54
8257.00,1.54
8256.00,1.54
8255.00,1.54
8254.00,1.55
8253.00,1.55
8252.00,1.55
8251.00,1.55
8250.00,1.55
8249.00,1.55
8248.00,1.55
8247.00,1.56
8246.00,1.56
8245.00,1.56
8244.00,1.56
8243.00,1.56
8242.00,1.56
8241.00,1.57
8240.00,1.57
8239.00,1.57
8238.00,1.57
8237.00,1.58
8236.00,1.58
8235.00,1.58
8234.00,1.58
8233.00,1.59
8232.00,1.59
8231.00,1.59
8230.00,1.60
8229.00,1.60
8228.00,1.60
8227.00,1.60
8226.00,1.61
8225.00,1.61
8224.00,1.61
8223.00,1.62
8222.00,1.62
8221.00,1.62
8220.00,1.62
8219.00,1.63
8218.00,1.63
8217.00,1.63
8216.00,1.63
8215.00,1.64
8214.00,1.64
8213.00,1.64
8212.00,1.64
8211.00,1.64
8210.00,1.64
8209.00,1.64
8208.00,1.64
8207.00,1.64
8206.00,1.64
8205.00,1.64
8204.00,1.64
8203.00,1.63
8202.00,1.63
8201.00,1.63
8200.00,1.63
8199.00,1.63
8198.00,1.62
8197.00,1.62
8196.00,1.62
8195.00,1.62
8194.00,1.62
8193.00,1.61
8192.00,1.61
8191.00,1.61
8190.00,1.61
8189.00,1.60
8188.00,1.60
8187.00,1.60
8186.00,1.60
8185.00,1.60
8184.00,1.60
8183.00,1.59
8182.00,1.59
8181.00,1.59
8180.00,1.59
8179.00,1.59
8178.00,1.59
8177.00,1.59
8176.00,1.58
8175.00,1.58
8174.00,1.58
8173.00,1.58
8172.00,1.58
8171.00,1.58
8170.00,1.58
8169.00,1.58
8168.00,1.58
8167.00,1.58
8166.00,1.58
8165.00,1.58
8164.00,1.57
8163.00,1.57
8162.00,1.57
8161.00,1.57
8160.00,1.57
8159.00,1.57
8158.00,1.57
8157.00,1.57
8156.00,1.57
8155.00,1.57
8154.00,1.57
8153.00,1.57
8152.00,1.58
8151.00,1.58
8150.00,1.58
8149.00,1.58
8148.00,1.58
8147.00,1.59
8146.00,1.59
8145.00,1.59
8144.00,1.60
8143.00,1.60
8142.00,1.60
8141.00,1.61
8140.00,1.61
8139.00,1.62
8138.00,1.62
8137.00,1.62
8136.00,1.63
8135.00,1.63
8134.00,1.64
8133.00,1.64
8132.00,1.65
8131.00,1.65
8130.00,1.65
8129.00,1.66
8128.00,1.66
8127.00,1.67
8126.00,1.67
8125.00,1.68
8124.00,1.68
8123.00,1.68
8122.00,1.69
8121.00,1.69
8120.00,1.69
8119.00,1.70
8118.00,1.70
8117.00,1.70
8116.00,1.70
8115.00,1.70
8114.00,1.71
8113.00,1.71
8112.00,1.70
8111.00,1.70
8110.00,1.70
8109.00,1.70
8108.00,1.70
8107.00,1.70
8106.00,1.70
8105.00,1.70
8104.00,1.69
8103.00,1.69
8102.00,1.69
8101.00,1.68
8100.00,1.68
8099.00,1.67
8098.00,1.67
8097.00,1.66
8096.00,1.66
8095.00,1.65
8094.00,1.65
8093.00,1.64
8092.00,1.63
8091.00,1.63
8090.00,1.62
8089.00,1.62
8088.00,1.61
8087.00,1.61
8086.00,1.60
8085.00,1.60
8084.00,1.60
8083.00,1.59
8082.00,1.59
8081.00,1.59
8080.00,1.58
8079.00,1.58
8078.00,1.58
8077.00,1.58
8076.00,1.58
8075.00,1.58
8074.00,1.58
8073.00,1.58
8072.00,1.58
8071.00,1.59
8070.00,1.59
8069.00,1.59
8068.00,1.60
8067.00,1.60
8066.00,1.60
8065.00,1.61
8064.00,1.61
8063.00,1.62
8062.00,1.62
8061.00,1.62
8060.00,1.63
8059.00,1.63
8058.00,1.63
8057.00,1.64
8056.00,1.64
8055.00,1.65
8054.00,1.65
8053.00,1.65
8052.00,1.65
8051.00,1.66
8050.00,1.66
8049.00,1.66
8048.00,1.67
8047.00,1.67
8046.00,1.67
8045.00,1.67
8044.00,1.67
8043.00,1.67
8042.00,1.67
8041.00,1.67
8040.00,1.67
8039.00,1.67
8038.00,1.67
8037.00,1.67
8036.00,1.67
8035.00,1.67
8034.00,1.67
8033.00,1.67
8032.00,1.67
8031.00,1.67
8030.00,1.67
8029.00,1.67
8028.00,1.67
8027.00,1.67
8026.00,1.67
8025.00,1.66
8024.00,1.66
8023.00,1.66
8022.00,1.66
8021.00,1.65
8020.00,1.65
8019.00,1.65
8018.00,1.64
8017.00,1.64
8016.00,1.64
8015.00,1.63
8014.00,1.63
8013.00,1.63
8012.00,1.63
8011.00,1.62
8010.00,1.62
8009.00,1.62
8008.00,1.62
8007.00,1.62
8006.00,1.61
8005.00,1.61
8004.00,1.61
8003.00,1.61
8002.00,1.61
8001.00,1.61
8000.00,1.61
7999.00,1.62
7998.00,1.62
7997.00,1.62
7996.00,1.62
7995.00,1.62
7994.00,1.62
7993.00,1.62
7992.00,1.62
7991.00,1.62
7990.00,1.62
7989.00,1.63
7988.00,1.63
7987.00,1.63
7986.00,1.63
7985.00,1.63
7984.00,1.63
7983.00,1.63
7982.00,1.63
7981.00,1.63
7980.00,1.63
7979.00,1.63
7978.00,1.63
7977.00,1.63
7976.00,1.63
7975.00,1.63
7974.00,1.63
7973.00,1.63
7972.00,1.63
7971.00,1.63
7970.00,1.63
7969.00,1.63
7968.00,1.63
7967.00,1.63
7966.00,1.63
7965.00,1.63
7964.00,1.63
7963.00,1.63
7962.00,1.63
7961.00,1.63
7960.00,1.63
7959.00,1.63
7958.00,1.63
7957.00,1.63
7956.00,1.63
7955.00,1.64
7954.00,1.64
7953.00,1.64
7952.00,1.64
7951.00,1.65
7950.00,1.65
7949.00,1.65
7948.00,1.66
7947.00,1.66
7946.00,1.66
7945.00,1.66
7944.00,1.66
7943.00,1.67
7942.00,1.67
7941.00,1.67
7940.00,1.67
7939.00,1.67
7938.00,1.67
7937.00,1.67
7936.00,1.67
7935.00,1.67
7934.00,1.68
7933.00,1.68
7932.00,1.68
7931.00,1.68
7930.00,1.68
7929.00,1.68
7928.00,1.68
7927.00,1.68
7926.00,1.67
7925.00,1.67
7924.00,1.67
7923.00,1.67
7922.00,1.67
7921.00,1.67
7920.00,1.67
7919.00,1.67
7918.00,1.67
7917.00,1.67
7916.00,1.67
7915.00,1.68
7914.00,1.68
7913.00,1.68
7912.00,1.68
7911.00,1.68
7910.00,1.68
7909.00,1.68
7908.00,1.68
7907.00,1.68
7906.00,1.68
7905.00,1.68
7904.00,1.68
7903.00,1.68
7902.00,1.68
7901.00,1.68
7900.00,1.68
7899.00,1.68
7898.00,1.68
7897.00,1.68
7896.00,1.68
7895.00,1.68
7894.00,1.68
7893.00,1.67
7892.00,1.67
7891.00,1.67
7890.00,1.67
7889.00,1.67
7888.00,1.67
7887.00,1.67
7886.00,1.67
7885.00,1.67
7884.00,1.67
7883.00,1.67
7882.00,1.67
7881.00,1.67
7880.00,1.67
7879.00,1.67
7878.00,1.67
7877.00,1.67
7876.00,1.67
7875.00,1.67
7874.00,1.67
7873.00,1.67
7872.00,1.68
7871.00,1.68
7870.00,1.68
7869.00,1.68
7868.00,1.68
7867.00,1.68
7866.00,1.68
7865.00,1.68
7864.00,1.68
7863.00,1.68
7862.00,1.68
7861.00,1.68
7860.00,1.68
7859.00,1.68
7858.00,1.68
7857.00,1.68
7856.00,1.68
7855.00,1.68
7854.00,1.68
7853.00,1.68
7852.00,1.68
7851.00,1.68
7850.00,1.67
7849.00,1.67
7848.00,1.67
7847.00,1.67
7846.00,1.67
7845.00,1.66
7844.00,1.66
7843.00,1.66
7842.00,1.66
7841.00,1.65
7840.00,1.65
7839.00,1.65
7838.00,1.64
7837.00,1.64
7836.00,1.64
7835.00,1.64
7834.00,1.63
7833.00,1.63
7832.00,1.63
7831.00,1.63
7830.00,1.63
7829.00,1.63
7828.00,1.63
7827.00,1.63
7826.00,1.63
7825.00,1.63
7824.00,1.63
7823.00,1.63
7822.00,1.63
7821.00,1.64
7820.00,1.64
7819.00,1.64
7818.00,1.64
7817.00,1.65
7816.00,1.65
7815.00,1.65
7814.00,1.66
7813.00,1.66
7812.00,1.66
7811.00,1.66
7810.00,1.67
7809.00,1.67
7808.00,1.67
7807.00,1.67
7806.00,1.67
7805.00,1.68
7804.00,1.68
7803.00,1.68
7802.00,1.68
7801.00,1.68
7800.00,1.68
7799.00,1.68
7798.00,1.68
7797.00,1.68
7796.00,1.68
7795.00,1.68
7794.00,1.68
7793.00,1.68
7792.00,1.67
7791.00,1.67
7790.00,1.67
7789.00,1.67
7788.00,1.67
7787.00,1.67
7786.00,1.67
7785.00,1.67
7784.00,1.67
7783.00,1.67
7782.00,1.67
7781.00,1.67
7780.00,1.67
7779.00,1.67
7778.00,1.67
7777.00,1.67
7776.00,1.67
7775.00,1.67
7774.00,1.67
7773.00,1.67
7772.00,1.67
7771.00,1.67
7770.00,1.67
7769.00,1.67
7768.00,1.67
7767.00,1.67
7766.00,1.68
7765.00,1.68
7764.00,1.68
7763.00,1.68
7762.00,1.68
7761.00,1.67
7760.00,1.67
7759.00,1.67
7758.00,1.67
7757.00,1.67
7756.00,1.66
7755.00,1.66
7754.00,1.66
7753.00,1.66
7752.00,1.65
7751.00,1.65
7750.00,1.65
7749.00,1.65
7748.00,1.65
7747.00,1.65
7746.00,1.65
7745.00,1.65
7744.00,1.64
7743.00,1.64
7742.00,1.64
7741.00,1.64
7740.00,1.64
7739.00,1.64
7738.00,1.64
7737.00,1.64
7736.00,1.64
7735.00,1.64
7734.00,1.64
7733.00,1.65
7732.00,1.65
7731.00,1.65
7730.00,1.65
7729.00,1.66
7728.00,1.66
7727.00,1.66
7726.00,1.66
7725.00,1.66
7724.00,1.67
7723.00,1.67
7722.00,1.67
7721.00,1.67
7720.00,1.67
7719.00,1.67
7718.00,1.67
7717.00,1.68
7716.00,1.68
7715.00,1.68
7714.00,1.68
7713.00,1.68
7712.00,1.67
7711.00,1.67
7710.00,1.67
7709.00,1.67
7708.00,1.67
7707.00,1.66
7706.00,1.66
7705.00,1.66
7704.00,1.66
7703.00,1.66
7702.00,1.66
7701.00,1.65
7700.00,1.65
7699.00,1.65
7698.00,1.65
7697.00,1.65
7696.00,1.65
7695.00,1.65
7694.00,1.65
7693.00,1.65
7692.00,1.65
7691.00,1.65
7690.00,1.66
7689.00,1.66
7688.00,1.66
7687.00,1.66
7686.00,1.66
7685.00,1.66
7684.00,1.67
7683.00,1.67
7682.00,1.67
7681.00,1.67
7680.00,1.68
7679.00,1.68
7678.00,1.68
7677.00,1.68
7676.00,1.68
7675.00,1.68
7674.00,1.68
7673.00,1.68
7672.00,1.68
7671.00,1.68
7670.00,1.68
7669.00,1.68
7668.00,1.68
7667.00,1.68
7666.00,1.68
7665.00,1.68
7664.00,1.67
7663.00,1.67
7662.00,1.67
7661.00,1.67
7660.00,1.67
7659.00,1.67
7658.00,1.67
7657.00,1.66
7656.00,1.66
7655.00,1.66
7654.00,1.66
7653.00,1.66
7652.00,1.66
7651.00,1.65
7650.00,1.65
7649.00,1.65
7648.00,1.65
7647.00,1.65
7646.00,1.65
7645.00,1.65
7644.00,1.66
7643.00,1.66
7642.00,1.66
7641.00,1.66
7640.00,1.66
7639.00,1.66
7638.00,1.66
7637.00,1.66
7636.00,1.66
7635.00,1.66
7634.00,1.66
7633.00,1.66
7632.00,1.66
7631.00,1.66
7630.00,1.66
7629.00,1.66
7628.00,1.67
7627.00,1.67
7626.00,1.67
7625.00,1.67
7624.00,1.67
7623.00,1.67
7622.00,1.67
7621.00,1.67
7620.00,1.67
7619.00,1.67
7618.00,1.67
7617.00,1.67
7616.00,1.67
7615.00,1.67
7614.00,1.67
7613.00,1.68
7612.00,1.68
7611.00,1.68
7610.00,1.68
7609.00,1.68
7608.00,1.68
7607.00,1.68
7606.00,1.68
7605.00,1.68
7604.00,1.68
7603.00,1.68
7602.00,1.68
7601.00,1.68
7600.00,1.68
7599.00,1.68
7598.00,1.68
7597.00,1.68
7596.00,1.68
7595.00,1.68
7594.00,1.68
7593.00,1.68
7592.00,1.68
7591.00,1.68
7590.00,1.68
7589.00,1.68
7588.00,1.67
7587.00,1.67
7586.00,1.67
7585.00,1.67
7584.00,1.67
7583.00,1.67
7582.00,1.67
7581.00,1.67
7580.00,1.67
7579.00,1.67
7578.00,1.66
7577.00,1.66
7576.00,1.66
7575.00,1.66
7574.00,1.66
7573.00,1.66
7572.00,1.66
7571.00,1.66
7570.00,1.66
7569.00,1.66
7568.00,1.66
7567.00,1.66
7566.00,1.66
7565.00,1.67
7564.00,1.67
7563.00,1.67
7562.00,1.67
7561.00,1.67
7560.00,1.68
7559.00,1.68
7558.00,1.68
7557.00,1.68
7556.00,1.68
7555.00,1.68
7554.00,1.68
7553.00,1.68
7552.00,1.68
7551.00,1.69
7550.00,1.69
7549.00,1.69
7548.00,1.69
7547.00,1.69
7546.00,1.69
7545.00,1.69
7544.00,1.69
7543.00,1.69
7542.00,1.69
7541.00,1.69
7540.00,1.69
7539.00,1.68
7538.00,1.68
7537.00,1.68
7536.00,1.68
7535.00,1.68
7534.00,1.67
7533.00,1.67
7532.00,1.67
7531.00,1.67
7530.00,1.67
7529.00,1.66
7528.00,1.66
7527.00,1.66
7526.00,1.66
7525.00,1.66
7524.00,1.66
7523.00,1.65
7522.00,1.65
7521.00,1.65
7520.00,1.65
7519.00,1.65
7518.00,1.65
7517.00,1.65
7516.00,1.65
7515.00,1.65
7514.00,1.65
7513.00,1.65
7512.00,1.65
7511.00,1.65
7510.00,1.65
7509.00,1.65
7508.00,1.65
7507.00,1.65
7506.00,1.65
7505.00,1.65
7504.00,1.65
7503.00,1.65
7502.00,1.66
7501.00,1.66
7500.00,1.66
7499.00,1.66
7498.00,1.66
7497.00,1.66
7496.00,1.66
7495.00,1.66
7494.00,1.66
7493.00,1.66
7492.00,1.66
7491.00,1.66
7490.00,1.66
7489.00,1.66
7488.00,1.65
7487.00,1.65
7486.00,1.65
7485.00,1.65
7484.00,1.65
7483.00,1.65
7482.00,1.65
7481.00,1.64
7480.00,1.64
7479.00,1.64
7478.00,1.64
7477.00,1.64
7476.00,1.63
7475.00,1.63
7474.00,1.63
7473.00,1.63
7472.00,1.63
7471.00,1.63
7470.00,1.62
7469.00,1.62
7468.00,1.62
7467.00,1.62
7466.00,1.62
7465.00,1.61
7464.00,1.61
7463.00,1.61
7462.00,1.61
7461.00,1.61
7460.00,1.60
7459.00,1.60
7458.00,1.60
7457.00,1.60
7456.00,1.60
7455.00,1.60
7454.00,1.60
7453.00,1.60
7452.00,1.60
7451.00,1.60
7450.00,1.60
7449.00,1.59
7448.00,1.59
7447.00,1.59
7446.00,1.59
7445.00,1.60
7444.00,1.60
7443.00,1.60
7442.00,1.60
7441.00,1.60
7440.00,1.61
7439.00,1.61
7438.00,1.61
7437.00,1.62
7436.00,1.62
7435.00,1.63
7434.00,1.63
7433.00,1.64
7432.00,1.64
7431.00,1.65
7430.00,1.65
7429.00,1.66
7428.00,1.66
7427.00,1.66
7426.00,1.67
7425.00,1.67
7424.00,1.68
7423.00,1.68
7422.00,1.68
7421.00,1.69
7420.00,1.69
7419.00,1.69
7418.00,1.69
7417.00,1.69
7416.00,1.70
7415.00,1.70
7414.00,1.70
7413.00,1.70
7412.00,1.70
7411.00,1.70
7410.00,1.70
7409.00,1.70
7408.00,1.70
7407.00,1.70
7406.00,1.70
7405.00,1.70
7404.00,1.69
7403.00,1.69
7402.00,1.69
7401.00,1.69
7400.00,1.68
7399.00,1.68
7398.00,1.68
7397.00,1.68
7396.00,1.68
7395.00,1.67
7394.00,1.67
7393.00,1.67
7392.00,1.67
7391.00,1.67
7390.00,1.67
7389.00,1.67
7388.00,1.66
7387.00,1.66
7386.00,1.66
7385.00,1.66
7384.00,1.66
7383.00,1.65
7382.00,1.65
7381.00,1.65
7380.00,1.65
7379.00,1.65
7378.00,1.65
7377.00,1.65
7376.00,1.65
7375.00,1.65
7374.00,1.66
7373.00,1.66
7372.00,1.66
7371.00,1.66
7370.00,1.67
7369.00,1.67
7368.00,1.67
7367.00,1.67
7366.00,1.68
7365.00,1.68
7364.00,1.68
7363.00,1.68
7362.00,1.69
7361.00,1.69
7360.00,1.69
7359.00,1.69
7358.00,1.70
7357.00,1.70
7356.00,1.70
7355.00,1.70
7354.00,1.70
7353.00,1.70
7352.00,1.70
7351.00,1.70
7350.00,1.70
7349.00,1.70
7348.00,1.69
7347.00,1.69
7346.00,1.69
7345.00,1.68
7344.00,1.68
7343.00,1.68
7342.00,1.67
7341.00,1.67
7340.00,1.66
7339.00,1.66
7338.00,1.65
7337.00,1.65
7336.00,1.64
7335.00,1.64
7334.00,1.63
7333.00,1.63
7332.00,1.63
7331.00,1.62
7330.00,1.62
7329.00,1.61
7328.00,1.61
7327.00,1.61
7326.00,1.61
7325.00,1.61
7324.00,1.60
7323.00,1.60
7322.00,1.60
7321.00,1.60
7320.00,1.60
7319.00,1.60
7318.00,1.60
7317.00,1.60
7316.00,1.60
7315.00,1.60
7314.00,1.60
7313.00,1.60
7312.00,1.60
7311.00,1.60
7310.00,1.60
7309.00,1.60
7308.00,1.60
7307.00,1.60
7306.00,1.60
7305.00,1.60
7304.00,1.60
7303.00,1.59
7302.00,1.59
7301.00,1.59
7300.00,1.59
7299.00,1.59
7298.00,1.59
7297.00,1.59
7296.00,1.59
7295.00,1.59
7294.00,1.59
7293.00,1.59
7292.00,1.59
7291.00,1.59
7290.00,1.59
7289.00,1.59
7288.00,1.59
7287.00,1.59
7286.00,1.59
7285.00,1.59
7284.00,1.59
7283.00,1.60
7282.00,1.60
7281.00,1.60
7280.00,1.60
7279.00,1.60
7278.00,1.60
7277.00,1.60
7276.00,1.60
7275.00,1.60
7274.00,1.61
7273.00,1.61
7272.00,1.61
7271.00,1.61
7270.00,1.61
7269.00,1.61
7268.00,1.61
7267.00,1.61
7266.00,1.60
7265.00,1.60
7264.00,1.60
7263.00,1.60
7262.00,1.60
7261.00,1.60
7260.00,1.59
7259.00,1.59
7258.00,1.59
7257.00,1.59
7256.00,1.59
7255.00,1.58
7254.00,1.58
7253.00,1.58
7252.00,1.57
7251.00,1.57
7250.00,1.57
7249.00,1.56
7248.00,1.56
7247.00,1.56
7246.00,1.55
7245.00,1.55
7244.00,1.55
7243.00,1.55
7242.00,1.54
7241.00,1.54
7240.00,1.54
7239.00,1.54
7238.00,1.53
7237.00,1.53
7236.00,1.53
7235.00,1.53
7234.00,1.52
7233.00,1.52
7232.00,1.52
7231.00,1.52
7230.00,1.52
7229.00,1.51
7228.00,1.51
7227.00,1.51
7226.00,1.51
7225.00,1.51
7224.00,1.51
7223.00,1.51
7222.00,1.51
7221.00,1.51
7220.00,1.51
7219.00,1.51
7218.00,1.51
7217.00,1.51
7216.00,1.50
7215.00,1.50
7214.00,1.50
7213.00,1.50
7212.00,1.50
7211.00,1.50
7210.00,1.50
7209.00,1.50
7208.00,1.50
7207.00,1.50
7206.00,1.50
7205.00,1.50
7204.00,1.50
7203.00,1.50
7202.00,1.50
7201.00,1.50
7200.00,1.50
7199.00,1.50
7198.00,1.49
7197.00,1.49
7196.00,1.49
7195.00,1.49
7194.00,1.49
7193.00,1.49
7192.00,1.49
7191.00,1.48
7190.00,1.48
7189.00,1.48
7188.00,1.48
7187.00,1.48
7186.00,1.48
7185.00,1.48
7184.00,1.48
7183.00,1.48
7182.00,1.48
7181.00,1.48
7180.00,1.48
7179.00,1.48
7178.00,1.47
7177.00,1.47
7176.00,1.47
7175.00,1.47
7174.00,1.47
7173.00,1.46
7172.00,1.46
7171.00,1.46
7170.00,1.46
7169.00,1.46
7168.00,1.46
7167.00,1.45
7166.00,1.45
7165.00,1.45
7164.00,1.45
7163.00,1.45
7162.00,1.44
7161.00,1.44
7160.00,1.44
7159.00,1.43
7158.00,1.43
7157.00,1.43
7156.00,1.42
7155.00,1.42
7154.00,1.41
7153.00,1.41
7152.00,1.41
7151.00,1.40
7150.00,1.40
7149.00,1.40
7148.00,1.39
7147.00,1.39
7146.00,1.39
7145.00,1.38
7144.00,1.38
7143.00,1.38
7142.00,1.37
7141.00,1.37
7140.00,1.37
7139.00,1.36
7138.00,1.36
7137.00,1.36
7136.00,1.36
7135.00,1.35
7134.00,1.35
7133.00,1.35
7132.00,1.35
7131.00,1.35
7130.00,1.35
7129.00,1.35
7128.00,1.35
7127.00,1.35
7126.00,1.35
7125.00,1.35
7124.00,1.35
7123.00,1.35
7122.00,1.35
7121.00,1.35
7120.00,1.34
7119.00,1.34
7118.00,1.34
7117.00,1.34
7116.00,1.34
7115.00,1.34
7114.00,1.34
7113.00,1.34
7112.00,1.34
7111.00,1.34
7110.00,1.34
7109.00,1.34
7108.00,1.33
7107.00,1.33
7106.00,1.33
7105.00,1.33
7104.00,1.33
7103.00,1.32
7102.00,1.32
7101.00,1.32
7100.00,1.31
7099.00,1.31
7098.00,1.31
7097.00,1.30
7096.00,1.30
7095.00,1.29
7094.00,1.29
7093.00,1.29
7092.00,1.28
7091.00,1.28
7090.00,1.28
7089.00,1.27
7088.00,1.27
7087.00,1.27
7086.00,1.26
7085.00,1.26
7084.00,1.26
7083.00,1.26
7082.00,1.25
7081.00,1.25
7080.00,1.25
7079.00,1.25
7078.00,1.24
7077.00,1.24
7076.00,1.24
7075.00,1.24
7074.00,1.24
7073.00,1.23
7072.00,1.23
7071.00,1.23
7070.00,1.23
7069.00,1.23
7068.00,1.23
7067.00,1.22
7066.00,1.22
7065.00,1.22
7064.00,1.22
7063.00,1.22
7062.00,1.22
7061.00,1.22
7060.00,1.22
7059.00,1.22
7058.00,1.21
7057.00,1.21
7056.00,1.21
7055.00,1.21
7054.00,1.21
7053.00,1.21
7052.00,1.21
7051.00,1.21
7050.00,1.21
7049.00,1.21
7048.00,1.21
7047.00,1.21
7046.00,1.21
7045.00,1.21
7044.00,1.21
7043.00,1.21
7042.00,1.20
7041.00,1.20
7040.00,1.20
7039.00,1.20
7038.00,1.20
7037.00,1.19
7036.00,1.19
7035.00,1.19
7034.00,1.19
7033.00,1.19
7032.00,1.19
7031.00,1.18
7030.00,1.18
7029.00,1.18
7028.00,1.18
7027.00,1.18
7026.00,1.18
7025.00,1.17
7024.00,1.17
7023.00,1.17
7022.00,1.17
7021.00,1.17
7020.00,1.17
7019.00,1.17
7018.00,1.17
7017.00,1.16
7016.00,1.17
7015.00,1.17
7014.00,1.17
7013.00,1.17
7012.00,1.17
7011.00,1.17
7010.00,1.17
7009.00,1.17
7008.00,1.18
7007.00,1.18
7006.00,1.18
7005.00,1.18
7004.00,1.18
7003.00,1.19
7002.00,1.19
7001.00,1.19
7000.00,1.19
6999.00,1.19
6998.00,1.19
6997.00,1.19
6996.00,1.19
6995.00,1.20
6994.00,1.20
6993.00,1.20
6992.00,1.20
6991.00,1.20
6990.00,1.20
6989.00,1.20
6988.00,1.20
6987.00,1.20
6986.00,1.20
6985.00,1.19
6984.00,1.19
6983.00,1.19
6982.00,1.19
6981.00,1.19
6980.00,1.19
6979.00,1.19
6978.00,1.19
6977.00,1.19
6976.00,1.18
6975.00,1.18
6974.00,1.18
6973.00,1.18
6972.00,1.18
6971.00,1.18
6970.00,1.18
6969.00,1.18
6968.00,1.18
6967.00,1.18
6966.00,1.18
6965.00,1.18
6964.00,1.17
6963.00,1.17
6962.00,1.17
6961.00,1.17
6960.00,1.17
6959.00,1.17
6958.00,1.17
6957.00,1.17
6956.00,1.17
6955.00,1.16
6954.00,1.16
6953.00,1.16
6952.00,1.16
6951.00,1.16
6950.00,1.16
6949.00,1.16
6948.00,1.16
6947.00,1.16
6946.00,1.16
6945.00,1.16
6944.00,1.16
6943.00,1.16
6942.00,1.16
6941.00,1.16
6940.00,1.16
6939.00,1.16
6938.00,1.16
6937.00,1.16
6936.00,1.16
6935.00,1.16
6934.00,1.17
6933.00,1.17
6932.00,1.17
6931.00,1.17
6930.00,1.17
6929.00,1.17
6928.00,1.18
6927.00,1.18
6926.00,1.18
6925.00,1.18
6924.00,1.18
6923.00,1.18
6922.00,1.19
6921.00,1.19
6920.00,1.19
6919.00,1.19
6918.00,1.18
6917.00,1.18
6916.00,1.18
6915.00,1.18
6914.00,1.18
6913.00,1.18
6912.00,1.18
6911.00,1.18
6910.00,1.17
6909.00,1.17
6908.00,1.17
6907.00,1.17
6906.00,1.17
6905.00,1.16
6904.00,1.16
6903.00,1.16
6902.00,1.16
6901.00,1.16
6900.00,1.16
6899.00,1.15
6898.00,1.15
6897.00,1.15
6896.00,1.15
6895.00,1.15
6894.00,1.14
6893.00,1.14
6892.00,1.14
6891.00,1.14
6890.00,1.14
6889.00,1.14
6888.00,1.14
6887.00,1.14
6886.00,1.14
6885.00,1.14
6884.00,1.14
6883.00,1.14
6882.00,1.14
6881.00,1.14
6880.00,1.14
6879.00,1.13
6878.00,1.13
6877.00,1.13
6876.00,1.13
6875.00,1.13
6874.00,1.13
6873.00,1.13
6872.00,1.13
6871.00,1.13
6870.00,1.13
6869.00,1.13
6868.00,1.13
6867.00,1.13
6866.00,1.13
6865.00,1.13
6864.00,1.13
6863.00,1.13
6862.00,1.13
6861.00,1.13
6860.00,1.13
6859.00,1.13
6858.00,1.13
6857.00,1.13
6856.00,1.13
6855.00,1.13
6854.00,1.13
6853.00,1.13
6852.00,1.13
6851.00,1.13
6850.00,1.13
6849.00,1.13
6848.00,1.13
6847.00,1.13
6846.00,1.13
6845.00,1.13
6844.00,1.13
6843.00,1.13
6842.00,1.13
6841.00,1.13
6840.00,1.13
6839.00,1.13
6838.00,1.13
6837.00,1.13
6836.00,1.13
6835.00,1.13
6834.00,1.13
6833.00,1.13
6832.00,1.12
6831.00,1.12
6830.00,1.12
6829.00,1.12
6828.00,1.12
6827.00,1.12
6826.00,1.12
6825.00,1.12
6824.00,1.12
6823.00,1.12
6822.00,1.11
6821.00,1.11
6820.00,1.11
6819.00,1.11
6818.00,1.11
6817.00,1.11
6816.00,1.11
6815.00,1.11
6814.00,1.11
6813.00,1.11
6812.00,1.12
6811.00,1.12
6810.00,1.12
6809.00,1.12
6808.00,1.12
6807.00,1.12
6806.00,1.12
6805.00,1.13
6804.00,1.13
6803.00,1.13
6802.00,1.13
6801.00,1.13
6800.00,1.14
6799.00,1.14
6798.00,1.14
6797.00,1.14
6796.00,1.15
6795.00,1.15
6794.00,1.15
6793.00,1.15
6792.00,1.15
6791.00,1.15
6790.00,1.16
6789.00,1.16
6788.00,1.16
6787.00,1.16
6786.00,1.16
6785.00,1.16
6784.00,1.16
6783.00,1.17
6782.00,1.17
6781.00,1.17
6780.00,1.17
6779.00,1.17
6778.00,1.17
6777.00,1.17
6776.00,1.17
6775.00,1.17
6774.00,1.17
6773.00,1.17
6772.00,1.17
6771.00,1.17
6770.00,1.17
6769.00,1.17
6768.00,1.17
6767.00,1.17
6766.00,1.17
6765.00,1.17
6764.00,1.17
6763.00,1.17
6762.00,1.17
6761.00,1.17
6760.00,1.17
6759.00,1.17
6758.00,1.17
6757.00,1.17
6756.00,1.17
6755.00,1.17
6754.00,1.17
6753.00,1.17
6752.00,1.17
6751.00,1.17
6750.00,1.17
6749.00,1.16
6748.00,1.16
6747.00,1.16
6746.00,1.16
6745.00,1.16
6744.00,1.16
6743.00,1.16
6742.00,1.16
6741.00,1.16
6740.00,1.16
6739.00,1.15
6738.00,1.15
6737.00,1.15
6736.00,1.15
6735.00,1.15
6734.00,1.15
6733.00,1.16
6732.00,1.16
6731.00,1.16
6730.00,1.16
6729.00,1.16
6728.00,1.16
6727.00,1.16
6726.00,1.16
6725.00,1.16
6724.00,1.16
6723.00,1.17
6722.00,1.17
6721.00,1.17
6720.00,1.17
6719.00,1.17
6718.00,1.18
6717.00,1.18
6716.00,1.19
6715.00,1.19
6714.00,1.19
6713.00,1.20
6712.00,1.20
6711.00,1.21
6710.00,1.21
6709.00,1.21
6708.00,1.22
6707.00,1.22
6706.00,1.22
6705.00,1.22
6704.00,1.23
6703.00,1.23
6702.00,1.23
6701.00,1.23
6700.00,1.24
6699.00,1.24
6698.00,1.24
6697.00,1.24
6696.00,1.24
6695.00,1.24
6694.00,1.24
6693.00,1.24
6692.00,1.24
6691.00,1.24
6690.00,1.24
6689.00,1.24
6688.00,1.24
6687.00,1.24
6686.00,1.24
6685.00,1.24
6684.00,1.24
6683.00,1.24
6682.00,1.23
6681.00,1.23
6680.00,1.23
6679.00,1.23
6678.00,1.23
6677.00,1.23
6676.00,1.24
6675.00,1.24
6674.00,1.24
6673.00,1.24
6672.00,1.24
6671.00,1.24
6670.00,1.24
6669.00,1.24
6668.00,1.24
6667.00,1.24
6666.00,1.25
6665.00,1.25
6664.00,1.25
6663.00,1.25
6662.00,1.25
6661.00,1.25
6660.00,1.26
6659.00,1.26
6658.00,1.26
6657.00,1.26
6656.00,1.26
6655.00,1.26
6654.00,1.26
6653.00,1.26
6652.00,1.27
6651.00,1.27
6650.00,1.27
6649.00,1.27
6648.00,1.27
6647.00,1.27
6646.00,1.26
6645.00,1.26
6644.00,1.26
6643.00,1.26
6642.00,1.26
6641.00,1.26
6640.00,1.27
6639.00,1.27
6638.00,1.27
6637.00,1.27
6636.00,1.27
6635.00,1.27
6634.00,1.27
6633.00,1.27
6632.00,1.27
6631.00,1.27
6630.00,1.27
6629.00,1.27
6628.00,1.27
6627.00,1.27
6626.00,1.27
6625.00,1.27
6624.00,1.28
6623.00,1.28
6622.00,1.28
6621.00,1.28
6620.00,1.28
6619.00,1.28
6618.00,1.28
6617.00,1.28
6616.00,1.28
6615.00,1.28
6614.00,1.28
6613.00,1.29
6612.00,1.29
6611.00,1.29
6610.00,1.29
6609.00,1.29
6608.00,1.29
6607.00,1.29
6606.00,1.29
6605.00,1.29
6604.00,1.29
6603.00,1.29
6602.00,1.29
6601.00,1.29
6600.00,1.30
6599.00,1.30
6598.00,1.30
6597.00,1.30
6596.00,1.30
6595.00,1.30
6594.00,1.30
6593.00,1.30
6592.00,1.30
6591.00,1.30
6590.00,1.30
6589.00,1.30
6588.00,1.31
6587.00,1.31
6586.00,1.31
6585.00,1.31
6584.00,1.31
6583.00,1.31
6582.00,1.31
6581.00,1.31
6580.00,1.31
6579.00,1.32
6578.00,1.32
6577.00,1.32
6576.00,1.32
6575.00,1.32
6574.00,1.32
6573.00,1.33
6572.00,1.33
6571.00,1.33
6570.00,1.33
6569.00,1.33
6568.00,1.33
6567.00,1.34
6566.00,1.34
6565.00,1.34
6564.00,1.34
6563.00,1.34
6562.00,1.35
6561.00,1.35
6560.00,1.35
6559.00,1.35
6558.00,1.35
6557.00,1.35
6556.00,1.36
6555.00,1.36
6554.00,1.36
6553.00,1.36
6552.00,1.36
6551.00,1.37
6550.00,1.37
6549.00,1.37
6548.00,1.37
6547.00,1.37
6546.00,1.38
6545.00,1.38
6544.00,1.38
6543.00,1.38
6542.00,1.38
6541.00,1.38
6540.00,1.38
6539.00,1.38
6538.00,1.38
6537.00,1.39
6536.00,1.39
6535.00,1.39
6534.00,1.39
6533.00,1.39
6532.00,1.39
6531.00,1.39
6530.00,1.39
6529.00,1.39
6528.00,1.39
6527.00,1.39
6526.00,1.39
6525.00,1.39
6524.00,1.39
6523.00,1.39
6522.00,1.39
6521.00,1.39
6520.00,1.39
6519.00,1.39
6518.00,1.39
6517.00,1.39
6516.00,1.39
6515.00,1.39
6514.00,1.39
6513.00,1.39
6512.00,1.39
6511.00,1.39
6510.00,1.39
6509.00,1.39
6508.00,1.39
6507.00,1.39
6506.00,1.40
6505.00,1.40
6504.00,1.40
6503.00,1.40
6502.00,1.40
6501.00,1.40
6500.00,1.40
6499.00,1.40
6498.00,1.40
6497.00,1.41
6496.00,1.41
6495.00,1.41
6494.00,1.41
6493.00,1.41
6492.00,1.41
6491.00,1.41
6490.00,1.41
6489.00,1.41
6488.00,1.41
6487.00,1.41
6486.00,1.41
6485.00,1.41
6484.00,1.41
6483.00,1.41
6482.00,1.41
6481.00,1.42
6480.00,1.42
6479.00,1.42
6478.00,1.42
6477.00,1.42
6476.00,1.42
6475.00,1.42
6474.00,1.42
6473.00,1.42
6472.00,1.42
6471.00,1.42
6470.00,1.42
6469.00,1.42
6468.00,1.42
6467.00,1.43
6466.00,1.43
6465.00,1.43
6464.00,1.43
6463.00,1.43
6462.00,1.43
6461.00,1.43
6460.00,1.43
6459.00,1.43
6458.00,1.43
6457.00,1.43
6456.00,1.43
6455.00,1.43
6454.00,1.43
6453.00,1.43
6452.00,1.43
6451.00,1.43
6450.00,1.43
6449.00,1.43
6448.00,1.43
6447.00,1.43
6446.00,1.43
6445.00,1.44
6444.00,1.44
6443.00,1.44
6442.00,1.44
6441.00,1.44
6440.00,1.44
6439.00,1.44
6438.00,1.45
6437.00,1.45
6436.00,1.45
6435.00,1.45
6434.00,1.46
6433.00,1.46
6432.00,1.46
6431.00,1.46
6430.00,1.46
6429.00,1.47
6428.00,1.47
6427.00,1.47
6426.00,1.47
6425.00,1.48
6424.00,1.48
6423.00,1.48
6422.00,1.48
6421.00,1.48
6420.00,1.48
6419.00,1.48
6418.00,1.48
6417.00,1.48
6416.00,1.48
6415.00,1.48
6414.00,1.48
6413.00,1.48
6412.00,1.48
6411.00,1.48
6410.00,1.48
6409.00,1.47
6408.00,1.47
6407.00,1.47
6406.00,1.47
6405.00,1.47
6404.00,1.47
6403.00,1.47
6402.00,1.46
6401.00,1.46
6400.00,1.46
6399.00,1.46
6398.00,1.46
6397.00,1.46
6396.00,1.46
6395.00,1.46
6394.00,1.46
6393.00,1.45
6392.00,1.45
6391.00,1.45
6390.00,1.45
6389.00,1.45
6388.00,1.45
6387.00,1.45
6386.00,1.45
6385.00,1.45
6384.00,1.45
6383.00,1.45
6382.00,1.45
6381.00,1.45
6380.00,1.45
6379.00,1.45
6378.00,1.45
6377.00,1.45
6376.00,1.45
6375.00,1.45
6374.00,1.45
6373.00,1.45
6372.00,1.45
6371.00,1.45
6370.00,1.45
6369.00,1.45
6368.00,1.46
6367.00,1.46
6366.00,1.46
6365.00,1.46
6364.00,1.46
6363.00,1.46
6362.00,1.47
6361.00,1.47
6360.00,1.47
6359.00,1.47
6358.00,1.47
6357.00,1.47
6356.00,1.47
6355.00,1.47
6354.00,1.47
6353.00,1.47
6352.00,1.47
6351.00,1.47
6350.00,1.47
6349.00,1.47
6348.00,1.47
6347.00,1.47
6346.00,1.47
6345.00,1.47
6344.00,1.47
6343.00,1.47
6342.00,1.47
6341.00,1.47
6340.00,1.47
6339.00,1.46
6338.00,1.46
6337.00,1.46
6336.00,1.46
6335.00,1.46
6334.00,1.46
6333.00,1.46
6332.00,1.46
6331.00,1.46
6330.00,1.46
6329.00,1.46
6328.00,1.46
6327.00,1.46
6326.00,1.46
6325.00,1.46
6324.00,1.46
6323.00,1.46
6322.00,1.46
6321.00,1.46
6320.00,1.46
6319.00,1.46
6318.00,1.47
6317.00,1.47
6316.00,1.47
6315.00,1.47
6314.00,1.47
6313.00,1.47
6312.00,1.48
6311.00,1.48
6310.00,1.48
6309.00,1.48
6308.00,1.48
6307.00,1.49
6306.00,1.49
6305.00,1.49
6304.00,1.50
6303.00,1.50
6302.00,1.50
6301.00,1.51
6300.00,1.51
6299.00,1.51
6298.00,1.51
6297.00,1.52
6296.00,1.52
6295.00,1.52
6294.00,1.52
6293.00,1.53
6292.00,1.53
6291.00,1.53
6290.00,1.53
6289.00,1.53
6288.00,1.54
6287.00,1.54
6286.00,1.54
6285.00,1.54
6284.00,1.55
6283.00,1.55
6282.00,1.55
6281.00,1.55
6280.00,1.55
6279.00,1.55
6278.00,1.56
6277.00,1.56
6276.00,1.56
6275.00,1.56
6274.00,1.56
6273.00,1.56
6272.00,1.56
6271.00,1.56
6270.00,1.56
6269.00,1.56
6268.00,1.56
6267.00,1.56
6266.00,1.56
6265.00,1.56
6264.00,1.56
6263.00,1.56
6262.00,1.56
6261.00,1.57
6260.00,1.57
6259.00,1.57
6258.00,1.57
6257.00,1.57
6256.00,1.57
6255.00,1.57
6254.00,1.57
6253.00,1.57
6252.00,1.57
6251.00,1.57
6250.00,1.57
6249.00,1.57
6248.00,1.57
6247.00,1.57
6246.00,1.57
6245.00,1.57
6244.00,1.57
6243.00,1.57
6242.00,1.57
6241.00,1.57
6240.00,1.57
6239.00,1.57
6238.00,1.57
6237.00,1.57
6236.00,1.57
6235.00,1.57
6234.00,1.57
6233.00,1.57
6232.00,1.57
6231.00,1.57
6230.00,1.57
6229.00,1.57
6228.00,1.57
6227.00,1.57
6226.00,1.57
6225.00,1.57
6224.00,1.57
6223.00,1.57
6222.00,1.57
6221.00,1.57
6220.00,1.57
6219.00,1.57
6218.00,1.57
6217.00,1.58
6216.00,1.58
6215.00,1.58
6214.00,1.58
6213.00,1.58
6212.00,1.58
6211.00,1.58
6210.00,1.59
6209.00,1.59
6208.00,1.59
6207.00,1.59
6206.00,1.59
6205.00,1.59
6204.00,1.60
6203.00,1.60
6202.00,1.60
6201.00,1.60
6200.00,1.60
6199.00,1.60
6198.00,1.60
6197.00,1.60
6196.00,1.61
6195.00,1.61
6194.00,1.61
6193.00,1.61
6192.00,1.61
6191.00,1.61
6190.00,1.61
6189.00,1.60
6188.00,1.60
6187.00,1.60
6186.00,1.60
6185.00,1.60
6184.00,1.60
6183.00,1.60
6182.00,1.60
6181.00,1.60
6180.00,1.60
6179.00,1.60
6178.00,1.60
6177.00,1.60
6176.00,1.60
6175.00,1.60
6174.00,1.60
6173.00,1.60
6172.00,1.60
6171.00,1.60
6170.00,1.60
6169.00,1.60
6168.00,1.61
6167.00,1.61
6166.00,1.61
6165.00,1.61
6164.00,1.61
6163.00,1.61
6162.00,1.61
6161.00,1.62
6160.00,1.62
6159.00,1.62
6158.00,1.62
6157.00,1.62
6156.00,1.62
6155.00,1.62
6154.00,1.62
6153.00,1.62
6152.00,1.62
6151.00,1.63
6150.00,1.63
6149.00,1.63
6148.00,1.63
6147.00,1.63
6146.00,1.63
6145.00,1.63
6144.00,1.63
6143.00,1.63
6142.00,1.63
6141.00,1.63
6140.00,1.63
6139.00,1.63
6138.00,1.63
6137.00,1.63
6136.00,1.63
6135.00,1.63
6134.00,1.63
6133.00,1.64
6132.00,1.64
6131.00,1.64
6130.00,1.64
6129.00,1.64
6128.00,1.64
6127.00,1.64
6126.00,1.64
6125.00,1.64
6124.00,1.65
6123.00,1.65
6122.00,1.65
6121.00,1.65
6120.00,1.65
6119.00,1.65
6118.00,1.65
6117.00,1.66
6116.00,1.66
6115.00,1.66
6114.00,1.66
6113.00,1.66
6112.00,1.66
6111.00,1.67
6110.00,1.67
6109.00,1.67
6108.00,1.67
6107.00,1.67
6106.00,1.67
6105.00,1.68
6104.00,1.68
6103.00,1.68
6102.00,1.68
6101.00,1.68
6100.00,1.68
6099.00,1.68
6098.00,1.68
6097.00,1.68
6096.00,1.68
6095.00,1.68
6094.00,1.68
6093.00,1.68
6092.00,1.68
6091.00,1.68
6090.00,1.68
6089.00,1.68
6088.00,1.68
6087.00,1.68
6086.00,1.68
6085.00,1.68
6084.00,1.68
6083.00,1.68
6082.00,1.68
6081.00,1.68
6080.00,1.68
6079.00,1.68
6078.00,1.68
6077.00,1.67
6076.00,1.67
6075.00,1.67
6074.00,1.67
6073.00,1.67
6072.00,1.67
6071.00,1.67
6070.00,1.67
6069.00,1.67
6068.00,1.67
6067.00,1.67
6066.00,1.67
6065.00,1.67
6064.00,1.67
6063.00,1.67
6062.00,1.67
6061.00,1.67
6060.00,1.68
6059.00,1.68
6058.00,1.68
6057.00,1.68
6056.00,1.68
6055.00,1.68
6054.00,1.68
6053.00,1.68
6052.00,1.68
6051.00,1.68
6050.00,1.69
6049.00,1.69
6048.00,1.69
6047.00,1.69
6046.00,1.69
6045.00,1.69
6044.00,1.69
6043.00,1.69
6042.00,1.69
6041.00,1.69
6040.00,1.69
6039.00,1.70
6038.00,1.69
6037.00,1.69
6036.00,1.69
6035.00,1.69
6034.00,1.69
6033.00,1.69
6032.00,1.69
6031.00,1.69
6030.00,1.69
6029.00,1.69
6028.00,1.69
6027.00,1.69
6026.00,1.69
6025.00,1.69
6024.00,1.69
6023.00,1.69
6022.00,1.69
6021.00,1.69
6020.00,1.69
6019.00,1.69
6018.00,1.69
6017.00,1.68
6016.00,1.68
6015.00,1.68
6014.00,1.68
6013.00,1.69
6012.00,1.69
6011.00,1.69
6010.00,1.69
6009.00,1.69
6008.00,1.69
6007.00,1.69
6006.00,1.69
6005.00,1.69
6004.00,1.69
6003.00,1.69
6002.00,1.70
6001.00,1.70
6000.00,1.70
5999.00,1.70
5998.00,1.70
5997.00,1.70
5996.00,1.71
5995.00,1.71
5994.00,1.71
5993.00,1.71
5992.00,1.71
5991.00,1.71
5990.00,1.71
5989.00,1.71
5988.00,1.71
5987.00,1.71
5986.00,1.71
5985.00,1.71
5984.00,1.71
5983.00,1.71
5982.00,1.71
5981.00,1.70
5980.00,1.70
5979.00,1.70
5978.00,1.70
5977.00,1.70
5976.00,1.69
5975.00,1.69
5974.00,1.69
5973.00,1.68
5972.00,1.68
5971.00,1.68
5970.00,1.67
5969.00,1.67
5968.00,1.67
5967.00,1.66
5966.00,1.66
5965.00,1.65
5964.00,1.65
5963.00,1.65
5962.00,1.64
5961.00,1.64
5960.00,1.64
5959.00,1.64
5958.00,1.63
5957.00,1.63
5956.00,1.63
5955.00,1.63
5954.00,1.62
5953.00,1.62
5952.00,1.62
5951.00,1.62
5950.00,1.62
5949.00,1.61
5948.00,1.61
5947.00,1.61
5946.00,1.61
5945.00,1.61
5944.00,1.61
5943.00,1.61
5942.00,1.61
5941.00,1.61
5940.00,1.61
5939.00,1.61
5938.00,1.60
5937.00,1.60
5936.00,1.60
5935.00,1.60
5934.00,1.60
5933.00,1.60
5932.00,1.60
5931.00,1.60
5930.00,1.59
5929.00,1.59
5928.00,1.59
5927.00,1.59
5926.00,1.59
5925.00,1.58
5924.00,1.58
5923.00,1.58
5922.00,1.58
5921.00,1.58
5920.00,1.57
5919.00,1.57
5918.00,1.57
5917.00,1.57
5916.00,1.56
5915.00,1.56
5914.00,1.56
5913.00,1.56
5912.00,1.55
5911.00,1.55
5910.00,1.55
5909.00,1.54
5908.00,1.54
5907.00,1.54
5906.00,1.54
5905.00,1.54
5904.00,1.54
5903.00,1.53
5902.00,1.53
5901.00,1.53
5900.00,1.53
5899.00,1.53
5898.00,1.53
5897.00,1.53
5896.00,1.53
5895.00,1.53
5894.00,1.53
5893.00,1.53
5892.00,1.54
5891.00,1.54
5890.00,1.54
5889.00,1.54
5888.00,1.54
5887.00,1.54
5886.00,1.54
5885.00,1.55
5884.00,1.55
5883.00,1.55
5882.00,1.55
5881.00,1.56
5880.00,1.56
5879.00,1.56
5878.00,1.56
5877.00,1.56
5876.00,1.57
5875.00,1.57
5874.00,1.57
5873.00,1.57
5872.00,1.57
5871.00,1.57
5870.00,1.57
5869.00,1.57
5868.00,1.57
5867.00,1.57
5866.00,1.57
5865.00,1.57
5864.00,1.57
5863.00,1.58
5862.00,1.58
5861.00,1.58
5860.00,1.58
5859.00,1.58
5858.00,1.57
5857.00,1.57
5856.00,1.57
5855.00,1.57
5854.00,1.57
5853.00,1.57
5852.00,1.57
5851.00,1.57
5850.00,1.57
5849.00,1.57
5848.00,1.57
5847.00,1.57
5846.00,1.57
5845.00,1.57
5844.00,1.57
5843.00,1.57
5842.00,1.57
5841.00,1.57
5840.00,1.57
5839.00,1.57
5838.00,1.57
5837.00,1.57
5836.00,1.57
5835.00,1.57
5834.00,1.57
5833.00,1.57
5832.00,1.57
5831.00,1.56
5830.00,1.56
5829.00,1.56
5828.00,1.56
5827.00,1.56
5826.00,1.56
5825.00,1.56
5824.00,1.56
5823.00,1.56
5822.00,1.56
5821.00,1.56
5820.00,1.56
5819.00,1.56
5818.00,1.56
5817.00,1.56
5816.00,1.56
5815.00,1.56
5814.00,1.56
5813.00,1.56
5812.00,1.56
5811.00,1.56
5810.00,1.56
5809.00,1.56
5808.00,1.56
5807.00,1.56
5806.00,1.56
5805.00,1.56
5804.00,1.56
5803.00,1.56
5802.00,1.56
5801.00,1.56
5800.00,1.56
5799.00,1.56
5798.00,1.56
5797.00,1.56
5796.00,1.56
5795.00,1.56
5794.00,1.56
5793.00,1.56
5792.00,1.55
5791.00,1.55
5790.00,1.55
5789.00,1.55
5788.00,1.55
5787.00,1.55
5786.00,1.55
5785.00,1.55
5784.00,1.54
5783.00,1.54
5782.00,1.54
5781.00,1.54
5780.00,1.54
5779.00,1.54
5778.00,1.54
5777.00,1.53
5776.00,1.53
5775.00,1.53
5774.00,1.53
5773.00,1.53
5772.00,1.53
5771.00,1.53
5770.00,1.53
5769.00,1.53
5768.00,1.53
5767.00,1.53
5766.00,1.53
5765.00,1.53
5764.00,1.54
5763.00,1.54
5762.00,1.54
5761.00,1.54
5760.00,1.54
5759.00,1.54
5758.00,1.54
5757.00,1.55
5756.00,1.55
5755.00,1.55
5754.00,1.56
5753.00,1.56
5752.00,1.56
5751.00,1.56
5750.00,1.57
5749.00,1.57
5748.00,1.57
5747.00,1.58
5746.00,1.58
5745.00,1.58
5744.00,1.58
5743.00,1.58
5742.00,1.59
5741.00,1.59
5740.00,1.59
5739.00,1.59
5738.00,1.59
5737.00,1.59
5736.00,1.59
5735.00,1.60
5734.00,1.60
5733.00,1.60
5732.00,1.60
5731.00,1.60
5730.00,1.60
5729.00,1.60
5728.00,1.60
5727.00,1.60
5726.00,1.60
5725.00,1.60
5724.00,1.60
5723.00,1.61
5722.00,1.61
5721.00,1.61
5720.00,1.61
5719.00,1.61
5718.00,1.61
5717.00,1.61
5716.00,1.61
5715.00,1.61
5714.00,1.61
5713.00,1.62
5712.00,1.62
5711.00,1.62
5710.00,1.62
5709.00,1.62
5708.00,1.62
5707.00,1.62
5706.00,1.62
5705.00,1.62
5704.00,1.62
5703.00,1.62
5702.00,1.62
5701.00,1.63
5700.00,1.63
5699.00,1.63
5698.00,1.62
5697.00,1.62
5696.00,1.62
5695.00,1.62
5694.00,1.62
5693.00,1.62
5692.00,1.62
5691.00,1.62
5690.00,1.62
5689.00,1.62
5688.00,1.62
5687.00,1.62
5686.00,1.62
5685.00,1.62
5684.00,1.62
5683.00,1.62
5682.00,1.61
5681.00,1.61
5680.00,1.61
5679.00,1.61
5678.00,1.61
5677.00,1.61
5676.00,1.61
5675.00,1.61
5674.00,1.61
5673.00,1.61
5672.00,1.61
5671.00,1.61
5670.00,1.61
5669.00,1.61
5668.00,1.61
5667.00,1.60
5666.00,1.60
5665.00,1.60
5664.00,1.60
5663.00,1.60
5662.00,1.60
5661.00,1.60
5660.00,1.60
5659.00,1.60
5658.00,1.60
5657.00,1.60
5656.00,1.60
5655.00,1.60
5654.00,1.60
5653.00,1.60
5652.00,1.60
5651.00,1.60
5650.00,1.60
5649.00,1.60
5648.00,1.60
5647.00,1.60
5646.00,1.60
5645.00,1.61
5644.00,1.61
5643.00,1.61
5642.00,1.61
5641.00,1.61
5640.00,1.61
5639.00,1.61
5638.00,1.61
5637.00,1.61
5636.00,1.62
5635.00,1.62
5634.00,1.62
5633.00,1.62
5632.00,1.62
5631.00,1.62
5630.00,1.63
5629.00,1.63
5628.00,1.63
5627.00,1.63
5626.00,1.63
5625.00,1.63
5624.00,1.64
5623.00,1.64
5622.00,1.64
5621.00,1.64
5620.00,1.64
5619.00,1.64
5618.00,1.64
5617.00,1.64
5616.00,1.65
5615.00,1.65
5614.00,1.65
5613.00,1.65
5612.00,1.65
5611.00,1.65
5610.00,1.65
5609.00,1.65
5608.00,1.65
5607.00,1.65
5606.00,1.65
5605.00,1.65
5604.00,1.65
5603.00,1.65
5602.00,1.65
5601.00,1.65
5600.00,1.65
5599.00,1.65
5598.00,1.65
5597.00,1.65
5596.00,1.65
5595.00,1.66
5594.00,1.66
5593.00,1.66
5592.00,1.66
5591.00,1.66
5590.00,1.66
5589.00,1.66
5588.00,1.66
5587.00,1.67
5586.00,1.67
5585.00,1.67
5584.00,1.67
5583.00,1.67
5582.00,1.67
5581.00,1.68
5580.00,1.68
5579.00,1.68
5578.00,1.68
5577.00,1.68
5576.00,1.69
5575.00,1.69
5574.00,1.69
5573.00,1.69
5572.00,1.69
5571.00,1.69
5570.00,1.70
5569.00,1.70
5568.00,1.70
5567.00,1.70
5566.00,1.70
5565.00,1.70
5564.00,1.70
5563.00,1.70
5562.00,1.70
5561.00,1.70
5560.00,1.70
5559.00,1.71
5558.00,1.71
5557.00,1.71
5556.00,1.71
5555.00,1.71
5554.00,1.71
5553.00,1.70
5552.00,1.70
5551.00,1.70
5550.00,1.70
5549.00,1.70
5548.00,1.70
5547.00,1.70
5546.00,1.70
5545.00,1.70
5544.00,1.70
5543.00,1.70
5542.00,1.70
5541.00,1.70
5540.00,1.70
5539.00,1.70
5538.00,1.70
5537.00,1.70
5536.00,1.70
5535.00,1.70
5534.00,1.70
5533.00,1.70
5532.00,1.70
5531.00,1.70
5530.00,1.70
5529.00,1.70
5528.00,1.70
5527.00,1.70
5526.00,1.70
5525.00,1.70
5524.00,1.70
5523.00,1.70
5522.00,1.70
5521.00,1.70
5520.00,1.70
5519.00,1.70
5518.00,1.70
5517.00,1.70
5516.00,1.71
5515.00,1.71
5514.00,1.71
5513.00,1.71
5512.00,1.71
5511.00,1.71
5510.00,1.71
5509.00,1.72
5508.00,1.72
5507.00,1.72
5506.00,1.72
5505.00,1.72
5504.00,1.72
5503.00,1.72
5502.00,1.72
5501.00,1.73
5500.00,1.73
5499.00,1.73
5498.00,1.73
5497.00,1.73
5496.00,1.73
5495.00,1.73
5494.00,1.73
5493.00,1.74
5492.00,1.74
5491.00,1.74
5490.00,1.74
5489.00,1.74
5488.00,1.74
5487.00,1.74
5486.00,1.74
5485.00,1.74
5484.00,1.74
5483.00,1.74
5482.00,1.74
5481.00,1.75
5480.00,1.75
5479.00,1.75
5478.00,1.75
5477.00,1.75
5476.00,1.75
5475.00,1.75
5474.00,1.75
5473.00,1.75
5472.00,1.75
5471.00,1.75
5470.00,1.75
5469.00,1.75
5468.00,1.75
5467.00,1.75
5466.00,1.75
5465.00,1.75
5464.00,1.75
5463.00,1.75
5462.00,1.75
5461.00,1.75
5460.00,1.75
5459.00,1.75
5458.00,1.75
5457.00,1.75
5456.00,1.75
5455.00,1.75
5454.00,1.75
5453.00,1.75
5452.00,1.75
5451.00,1.75
5450.00,1.75
5449.00,1.75
5448.00,1.75
5447.00,1.75
5446.00,1.75
5445.00,1.75
5444.00,1.75
5443.00,1.75
5442.00,1.75
5441.00,1.75
5440.00,1.75
5439.00,1.75
5438.00,1.75
5437.00,1.75
5436.00,1.75
5435.00,1.75
5434.00,1.75
5433.00,1.75
5432.00,1.75
5431.00,1.75
5430.00,1.75
5429.00,1.75
5428.00,1.75
5427.00,1.75
5426.00,1.75
5425.00,1.75
5424.00,1.75
5423.00,1.75
5422.00,1.75
5421.00,1.75
5420.00,1.75
5419.00,1.75
5418.00,1.75
5417.00,1.75
5416.00,1.75
5415.00,1.75
5414.00,1.75
5413.00,1.75
5412.00,1.75
5411.00,1.75
5410.00,1.75
5409.00,1.75
5408.00,1.76
5407.00,1.76
5406.00,1.76
5405.00,1.76
5404.00,1.76
5403.00,1.76
5402.00,1.76
5401.00,1.76
5400.00,1.76
5399.00,1.76
5398.00,1.76
5397.00,1.76
5396.00,1.76
5395.00,1.76
5394.00,1.76
5393.00,1.76
5392.00,1.76
5391.00,1.76
5390.00,1.76
5389.00,1.75
5388.00,1.75
5387.00,1.75
5386.00,1.75
5385.00,1.75
5384.00,1.75
5383.00,1.74
5382.00,1.74
5381.00,1.74
5380.00,1.74
5379.00,1.73
5378.00,1.73
5377.00,1.73
5376.00,1.73
5375.00,1.72
5374.00,1.72
5373.00,1.72
5372.00,1.72
5371.00,1.72
5370.00,1.71
5369.00,1.71
5368.00,1.71
5367.00,1.71
5366.00,1.70
5365.00,1.70
5364.00,1.70
5363.00,1.70
5362.00,1.69
5361.00,1.69
5360.00,1.69
5359.00,1.69
5358.00,1.68
5357.00,1.68
5356.00,1.67
5355.00,1.67
5354.00,1.67
5353.00,1.66
5352.00,1.66
5351.00,1.65
5350.00,1.64
5349.00,1.64
5348.00,1.63
5347.00,1.62
5346.00,1.62
5345.00,1.61
5344.00,1.60
5343.00,1.59
5342.00,1.58
5341.00,1.57
5340.00,1.56
5339.00,1.55
5338.00,1.54
5337.00,1.53
5336.00,1.52
5335.00,1.51
5334.00,1.50
5333.00,1.49
5332.00,1.48
5331.00,1.47
5330.00,1.46
5329.00,1.45
5328.00,1.43
5327.00,1.42
5326.00,1.41
5325.00,1.40
5324.00,1.39
5323.00,1.38
5322.00,1.37
5321.00,1.36
5320.00,1.35
5319.00,1.34
5318.00,1.33
5317.00,1.32
5316.00,1.31
5315.00,1.30
5314.00,1.29
5313.00,1.28
5312.00,1.27
5311.00,1.26
5310.00,1.25
5309.00,1.24
5308.00,1.23
5307.00,1.22
5306.00,1.21
5305.00,1.20
5304.00,1.19
5303.00,1.18
5302.00,1.17
5301.00,1.16
5300.00,1.15
5299.00,1.14
5298.00,1.14
5297.00,1.13
5296.00,1.12
5295.00,1.11
5294.00,1.10
5293.00,1.09
5292.00,1.08
5291.00,1.08
5290.00,1.07
5289.00,1.06
5288.00,1.05
5287.00,1.04
5286.00,1.04
5285.00,1.03
5284.00,1.02
5283.00,1.02
5282.00,1.01
5281.00,1.00
5280.00,1.00
5279.00,0.99
5278.00,0.99
5277.00,0.98
5276.00,0.98
5275.00,0.97
5274.00,0.97
5273.00,0.96
5272.00,0.96
5271.00,0.95
5270.00,0.95
5269.00,0.94
5268.00,0.94
5267.00,0.94
5266.00,0.93
5265.00,0.93
5264.00,0.93
5263.00,0.92
5262.00,0.92
5261.00,0.92
5260.00,0.91
5259.00,0.91
5258.00,0.91
5257.00,0.90
5256.00,0.90
5255.00,0.90
5254.00,0.90
5253.00,0.89
5252.00,0.89
5251.00,0.89
5250.00,0.89
5249.00,0.88
5248.00,0.88
5247.00,0.88
5246.00,0.88
5245.00,0.87
5244.00,0.87
5243.00,0.87
5242.00,0.86
5241.00,0.86
5240.00,0.86
5239.00,0.86
5238.00,0.86
5237.00,0.86
5236.00,0.85
5235.00,0.85
5234.00,0.85
5233.00,0.85
5232.00,0.85
5231.00,0.85
5230.00,0.85
5229.00,0.85
5228.00,0.85
5227.00,0.85
5226.00,0.85
5225.00,0.85
5224.00,0.85
5223.00,0.85
5222.00,0.85
5221.00,0.85
5220.00,0.85
5219.00,0.85
5218.00,0.85
5217.00,0.85
5216.00,0.85
5215.00,0.85
5214.00,0.85
5213.00,0.85
5212.00,0.85
5211.00,0.85
5210.00,0.85
5209.00,0.84
5208.00,0.84
5207.00,0.84
5206.00,0.84
5205.00,0.84
5204.00,0.84
5203.00,0.84
5202.00,0.84
5201.00,0.83
5200.00,0.83
5199.00,0.83
5198.00,0.83
5197.00,0.83
5196.00,0.82
5195.00,0.82
5194.00,0.82
5193.00,0.82
5192.00,0.81
5191.00,0.81
5190.00,0.81
5189.00,0.81
5188.00,0.80
5187.00,0.80
5186.00,0.80
5185.00,0.80
5184.00,0.80
5183.00,0.79
5182.00,0.79
5181.00,0.79
5180.00,0.79
5179.00,0.79
5178.00,0.78
5177.00,0.78
5176.00,0.78
5175.00,0.78
5174.00,0.78
5173.00,0.77
5172.00,0.77
5171.00,0.77
5170.00,0.77
5169.00,0.77
5168.00,0.77
5167.00,0.77
5166.00,0.77
5165.00,0.77
5164.00,0.77
5163.00,0.77
5162.00,0.77
5161.00,0.77
5160.00,0.77
5159.00,0.77
5158.00,0.77
5157.00,0.77
5156.00,0.77
5155.00,0.77
5154.00,0.77
5153.00,0.77
5152.00,0.77
5151.00,0.77
5150.00,0.77
5149.00,0.77
5148.00,0.77
5147.00,0.78
5146.00,0.78
5145.00,0.78
5144.00,0.78
5143.00,0.78
5142.00,0.78
5141.00,0.79
5140.00,0.79
5139.00,0.79
5138.00,0.79
5137.00,0.79
5136.00,0.80
5135.00,0.80
5134.00,0.80
5133.00,0.80
5132.00,0.80
5131.00,0.81
5130.00,0.81
5129.00,0.81
5128.00,0.81
5127.00,0.82
5126.00,0.82
5125.00,0.82
5124.00,0.82
5123.00,0.82
5122.00,0.82
5121.00,0.83
5120.00,0.83
5119.00,0.83
5118.00,0.83
5117.00,0.83
5116.00,0.83
5115.00,0.83
5114.00,0.84
5113.00,0.84
5112.00,0.84
5111.00,0.84
5110.00,0.84
5109.00,0.84
5108.00,0.84
5107.00,0.84
5106.00,0.84
5105.00,0.84
5104.00,0.84
5103.00,0.84
5102.00,0.84
5101.00,0.84
5100.00,0.84
5099.00,0.84
5098.00,0.85
5097.00,0.85
5096.00,0.85
5095.00,0.85
5094.00,0.85
5093.00,0.85
5092.00,0.85
5091.00,0.85
5090.00,0.85
5089.00,0.86
5088.00,0.86
5087.00,0.86
5086.00,0.86
5085.00,0.87
5084.00,0.87
5083.00,0.87
5082.00,0.87
5081.00,0.88
5080.00,0.88
5079.00,0.89
5078.00,0.89
5077.00,0.89
5076.00,0.90
5075.00,0.90
5074.00,0.91
5073.00,0.91
5072.00,0.91
5071.00,0.92
5070.00,0.92
5069.00,0.93
5068.00,0.93
5067.00,0.93
5066.00,0.94
5065.00,0.94
5064.00,0.94
5063.00,0.95
5062.00,0.95
5061.00,0.95
5060.00,0.96
5059.00,0.96
5058.00,0.96
5057.00,0.96
5056.00,0.97
5055.00,0.97
5054.00,0.97
5053.00,0.97
5052.00,0.97
5051.00,0.98
5050.00,0.98
5049.00,0.98
5048.00,0.98
5047.00,0.99
5046.00,0.99
5045.00,0.99
5044.00,0.99
5043.00,1.00
5042.00,1.00
5041.00,1.00
5040.00,1.01
5039.00,1.01
5038.00,1.01
5037.00,1.01
5036.00,1.02
5035.00,1.02
5034.00,1.02
5033.00,1.02
5032.00,1.03
5031.00,1.03
5030.00,1.03
5029.00,1.04
5028.00,1.04
5027.00,1.04
5026.00,1.04
5025.00,1.04
5024.00,1.05
5023.00,1.05
5022.00,1.05
5021.00,1.05
5020.00,1.05
5019.00,1.05
5018.00,1.06
5017.00,1.06
5016.00,1.06
5015.00,1.06
5014.00,1.06
5013.00,1.06
5012.00,1.06
5011.00,1.07
5010.00,1.07
5009.00,1.07
5008.00,1.07
5007.00,1.07
5006.00,1.07
5005.00,1.08
5004.00,1.08
5003.00,1.08
5002.00,1.08
5001.00,1.09
5000.00,1.09
4999.00,1.09
4998.00,1.09
4997.00,1.10
4996.00,1.10
4995.00,1.10
4994.00,1.10
4993.00,1.11
4992.00,1.11
4991.00,1.11
4990.00,1.11
4989.00,1.11
4988.00,1.12
4987.00,1.12
4986.00,1.12
4985.00,1.12
4984.00,1.12
4983.00,1.12
4982.00,1.12
4981.00,1.13
4980.00,1.13
4979.00,1.13
4978.00,1.13
4977.00,1.13
4976.00,1.13
4975.00,1.14
4974.00,1.14
4973.00,1.14
4972.00,1.14
4971.00,1.14
4970.00,1.14
4969.00,1.15
4968.00,1.15
4967.00,1.15
4966.00,1.15
4965.00,1.15
4964.00,1.16
4963.00,1.16
4962.00,1.16
4961.00,1.17
4960.00,1.17
4959.00,1.17
4958.00,1.18
4957.00,1.18
4956.00,1.18
4955.00,1.18
4954.00,1.19
4953.00,1.19
4952.00,1.19
4951.00,1.20
4950.00,1.20
4949.00,1.20
4948.00,1.20
4947.00,1.21
4946.00,1.21
4945.00,1.21
4944.00,1.21
4943.00,1.22
4942.00,1.22
4941.00,1.22
4940.00,1.23
4939.00,1.23
4938.00,1.23
4937.00,1.23
4936.00,1.23
4935.00,1.23
4934.00,1.24
4933.00,1.24
4932.00,1.24
4931.00,1.24
4930.00,1.24
4929.00,1.24
4928.00,1.24
4927.00,1.24
4926.00,1.24
4925.00,1.25
4924.00,1.25
4923.00,1.25
4922.00,1.25
4921.00,1.25
4920.00,1.25
4919.00,1.25
4918.00,1.25
4917.00,1.25
4916.00,1.25
4915.00,1.25
4914.00,1.25
4913.00,1.25
4912.00,1.25
4911.00,1.25
4910.00,1.25
4909.00,1.25
4908.00,1.25
4907.00,1.25
4906.00,1.25
4905.00,1.25
4904.00,1.25
4903.00,1.25
4902.00,1.25
4901.00,1.25
4900.00,1.25
4899.00,1.25
4898.00,1.25
4897.00,1.24
4896.00,1.24
4895.00,1.24
4894.00,1.24
4893.00,1.24
4892.00,1.24
4891.00,1.24
4890.00,1.24
4889.00,1.24
4888.00,1.24
4887.00,1.24
4886.00,1.24
4885.00,1.24
4884.00,1.24
4883.00,1.24
4882.00,1.24
4881.00,1.24
4880.00,1.24
4879.00,1.24
4878.00,1.24
4877.00,1.24
4876.00,1.24
4875.00,1.25
4874.00,1.25
4873.00,1.25
4872.00,1.25
4871.00,1.25
4870.00,1.25
4869.00,1.25
4868.00,1.26
4867.00,1.26
4866.00,1.26
4865.00,1.26
4864.00,1.26
4863.00,1.26
4862.00,1.26
4861.00,1.26
4860.00,1.26
4859.00,1.26
4858.00,1.26
4857.00,1.27
4856.00,1.27
4855.00,1.27
4854.00,1.27
4853.00,1.27
4852.00,1.27
4851.00,1.27
4850.00,1.27
4849.00,1.27
4848.00,1.27
4847.00,1.27
4846.00,1.27
4845.00,1.27
4844.00,1.27
4843.00,1.27
4842.00,1.27
4841.00,1.27
4840.00,1.27
4839.00,1.27
4838.00,1.27
4837.00,1.27
4836.00,1.28
4835.00,1.28
4834.00,1.28
4833.00,1.28
4832.00,1.28
4831.00,1.28
4830.00,1.28
4829.00,1.28
4828.00,1.29
4827.00,1.29
4826.00,1.29
4825.00,1.29
4824.00,1.29
4823.00,1.30
4822.00,1.30
4821.00,1.30
4820.00,1.30
4819.00,1.30
4818.00,1.30
4817.00,1.30
4816.00,1.30
4815.00,1.31
4814.00,1.31
4813.00,1.31
4812.00,1.31
4811.00,1.31
4810.00,1.31
4809.00,1.31
4808.00,1.31
4807.00,1.31
4806.00,1.31
4805.00,1.31
4804.00,1.31
4803.00,1.31
4802.00,1.31
4801.00,1.31
4800.00,1.31
4799.00,1.31
4798.00,1.31
4797.00,1.31
4796.00,1.31
4795.00,1.31
4794.00,1.32
4793.00,1.32
4792.00,1.32
4791.00,1.32
4790.00,1.32
4789.00,1.32
4788.00,1.33
4787.00,1.33
4786.00,1.33
4785.00,1.34
4784.00,1.34
4783.00,1.34
4782.00,1.35
4781.00,1.35
4780.00,1.35
4779.00,1.36
4778.00,1.36
4777.00,1.37
4776.00,1.37
4775.00,1.38
4774.00,1.38
4773.00,1.38
4772.00,1.39
4771.00,1.39
4770.00,1.40
4769.00,1.40
4768.00,1.41
4767.00,1.41
4766.00,1.42
4765.00,1.42
4764.00,1.42
4763.00,1.43
4762.00,1.43
4761.00,1.43
4760.00,1.44
4759.00,1.44
4758.00,1.44
4757.00,1.44
4756.00,1.45
4755.00,1.45
4754.00,1.45
4753.00,1.45
4752.00,1.45
4751.00,1.46
4750.00,1.46
4749.00,1.46
4748.00,1.46
4747.00,1.46
4746.00,1.46
4745.00,1.46
4744.00,1.46
4743.00,1.47
4742.00,1.47
4741.00,1.47
4740.00,1.47
4739.00,1.47
4738.00,1.47
4737.00,1.47
4736.00,1.47
4735.00,1.48
4734.00,1.48
4733.00,1.48
4732.00,1.48
4731.00,1.48
4730.00,1.48
4729.00,1.48
4728.00,1.49
4727.00,1.49
4726.00,1.49
4725.00,1.49
4724.00,1.49
4723.00,1.49
4722.00,1.50
4721.00,1.50
4720.00,1.50
4719.00,1.50
4718.00,1.50
4717.00,1.50
4716.00,1.50
4715.00,1.50
4714.00,1.50
4713.00,1.50
4712.00,1.50
4711.00,1.51
4710.00,1.51
4709.00,1.51
4708.00,1.51
4707.00,1.51
4706.00,1.51
4705.00,1.51
4704.00,1.52
4703.00,1.52
4702.00,1.52
4701.00,1.52
4700.00,1.52
4699.00,1.53
4698.00,1.53
4697.00,1.53
4696.00,1.53
4695.00,1.54
4694.00,1.54
4693.00,1.54
4692.00,1.55
4691.00,1.55
4690.00,1.55
4689.00,1.56
4688.00,1.56
4687.00,1.56
4686.00,1.57
4685.00,1.57
4684.00,1.57
4683.00,1.58
4682.00,1.58
4681.00,1.58
4680.00,1.59
4679.00,1.59
4678.00,1.59
4677.00,1.60
4676.00,1.60
4675.00,1.60
4674.00,1.60
4673.00,1.61
4672.00,1.61
4671.00,1.61
4670.00,1.61
4669.00,1.61
4668.00,1.61
4667.00,1.62
4666.00,1.62
4665.00,1.62
4664.00,1.62
4663.00,1.62
4662.00,1.63
4661.00,1.63
4660.00,1.63
4659.00,1.63
4658.00,1.63
4657.00,1.63
4656.00,1.63
4655.00,1.63
4654.00,1.64
4653.00,1.64
4652.00,1.64
4651.00,1.64
4650.00,1.64
4649.00,1.64
4648.00,1.64
4647.00,1.64
4646.00,1.64
4645.00,1.64
4644.00,1.64
4643.00,1.64
4642.00,1.64
4641.00,1.64
4640.00,1.64
4639.00,1.64
4638.00,1.64
4637.00,1.64
4636.00,1.64
4635.00,1.64
4634.00,1.65
4633.00,1.65
4632.00,1.65
4631.00,1.65
4630.00,1.65
4629.00,1.65
4628.00,1.65
4627.00,1.65
4626.00,1.65
4625.00,1.65
4624.00,1.65
4623.00,1.65
4622.00,1.65
4621.00,1.65
4620.00,1.65
4619.00,1.65
4618.00,1.65
4617.00,1.65
4616.00,1.65
4615.00,1.66
4614.00,1.66
4613.00,1.66
4612.00,1.66
4611.00,1.66
4610.00,1.65
4609.00,1.65
4608.00,1.65
4607.00,1.65
4606.00,1.65
4605.00,1.65
4604.00,1.65
4603.00,1.65
4602.00,1.65
4601.00,1.64
4600.00,1.64
4599.00,1.64
4598.00,1.64
4597.00,1.64
4596.00,1.64
4595.00,1.64
4594.00,1.64
4593.00,1.64
4592.00,1.64
4591.00,1.64
4590.00,1.64
4589.00,1.65
4588.00,1.65
4587.00,1.65
4586.00,1.65
4585.00,1.65
4584.00,1.65
4583.00,1.65
4582.00,1.65
4581.00,1.66
4580.00,1.66
4579.00,1.66
4578.00,1.66
4577.00,1.67
4576.00,1.67
4575.00,1.67
4574.00,1.67
4573.00,1.68
4572.00,1.68
4571.00,1.68
4570.00,1.69
4569.00,1.69
4568.00,1.69
4567.00,1.69
4566.00,1.69
4565.00,1.70
4564.00,1.70
4563.00,1.70
4562.00,1.70
4561.00,1.70
4560.00,1.70
4559.00,1.71
4558.00,1.71
4557.00,1.71
4556.00,1.71
4555.00,1.71
4554.00,1.72
4553.00,1.72
4552.00,1.72
4551.00,1.72
4550.00,1.72
4549.00,1.72
4548.00,1.72
4547.00,1.73
4546.00,1.73
4545.00,1.73
4544.00,1.73
4543.00,1.73
4542.00,1.73
4541.00,1.74
4540.00,1.74
4539.00,1.74
4538.00,1.74
4537.00,1.74
4536.00,1.75
4535.00,1.75
4534.00,1.75
4533.00,1.75
4532.00,1.75
4531.00,1.75
4530.00,1.75
4529.00,1.75
4528.00,1.75
4527.00,1.75
4526.00,1.75
4525.00,1.75
4524.00,1.75
4523.00,1.75
4522.00,1.75
4521.00,1.75
4520.00,1.75
4519.00,1.75
4518.00,1.75
4517.00,1.75
4516.00,1.75
4515.00,1.74
4514.00,1.74
4513.00,1.74
4512.00,1.74
4511.00,1.73
4510.00,1.73
4509.00,1.73
4508.00,1.73
4507.00,1.72
4506.00,1.72
4505.00,1.72
4504.00,1.72
4503.00,1.72
4502.00,1.71
4501.00,1.71
4500.00,1.71
4499.00,1.71
4498.00,1.71
4497.00,1.70
4496.00,1.70
4495.00,1.70
4494.00,1.70
4493.00,1.70
4492.00,1.70
4491.00,1.70
4490.00,1.70
4489.00,1.70
4488.00,1.70
4487.00,1.70
4486.00,1.70
4485.00,1.70
4484.00,1.70
4483.00,1.71
4482.00,1.71
4481.00,1.71
4480.00,1.71
4479.00,1.71
4478.00,1.71
4477.00,1.71
4476.00,1.71
4475.00,1.72
4474.00,1.72
4473.00,1.72
4472.00,1.72
4471.00,1.72
4470.00,1.72
4469.00,1.71
4468.00,1.71
4467.00,1.71
4466.00,1.71
4465.00,1.71
4464.00,1.71
4463.00,1.70
4462.00,1.70
4461.00,1.70
4460.00,1.70
4459.00,1.69
4458.00,1.69
4457.00,1.69
4456.00,1.68
4455.00,1.68
4454.00,1.67
4453.00,1.66
4452.00,1.66
4451.00,1.65
4450.00,1.64
4449.00,1.64
4448.00,1.63
4447.00,1.62
4446.00,1.62
4445.00,1.61
4444.00,1.60
4443.00,1.59
4442.00,1.58
4441.00,1.57
4440.00,1.56
4439.00,1.55
4438.00,1.54
4437.00,1.53
4436.00,1.52
4435.00,1.51
4434.00,1.50
4433.00,1.48
4432.00,1.47
4431.00,1.46
4430.00,1.45
4429.00,1.44
4428.00,1.43
4427.00,1.42
4426.00,1.41
4425.00,1.40
4424.00,1.39
4423.00,1.38
4422.00,1.37
4421.00,1.36
4420.00,1.35
4419.00,1.35
4418.00,1.34
4417.00,1.33
4416.00,1.33
4415.00,1.32
4414.00,1.32
4413.00,1.32
4412.00,1.31
4411.00,1.31
4410.00,1.31
4409.00,1.31
4408.00,1.31
4407.00,1.31
4406.00,1.31
4405.00,1.31
4404.00,1.31
4403.00,1.32
4402.00,1.32
4401.00,1.32
4400.00,1.33
4399.00,1.33
4398.00,1.33
4397.00,1.34
4396.00,1.34
4395.00,1.35
4394.00,1.35
4393.00,1.36
4392.00,1.36
4391.00,1.37
4390.00,1.38
4389.00,1.38
4388.00,1.39
4387.00,1.39
4386.00,1.39
4385.00,1.40
4384.00,1.40
4383.00,1.41
4382.00,1.41
4381.00,1.42
4380.00,1.42
4379.00,1.42
4378.00,1.43
4377.00,1.43
4376.00,1.43
4375.00,1.43
4374.00,1.44
4373.00,1.44
4372.00,1.44
4371.00,1.44
4370.00,1.44
4369.00,1.43
4368.00,1.43
4367.00,1.43
4366.00,1.43
4365.00,1.42
4364.00,1.42
4363.00,1.41
4362.00,1.41
4361.00,1.40
4360.00,1.40
4359.00,1.39
4358.00,1.39
4357.00,1.38
4356.00,1.38
4355.00,1.37
4354.00,1.37
4353.00,1.36
4352.00,1.36
4351.00,1.35
4350.00,1.35
4349.00,1.34
4348.00,1.34
4347.00,1.34
4346.00,1.33
4345.00,1.33
4344.00,1.33
4343.00,1.33
4342.00,1.33
4341.00,1.33
4340.00,1.33
4339.00,1.33
4338.00,1.33
4337.00,1.33
4336.00,1.34
4335.00,1.34
4334.00,1.34
4333.00,1.35
4332.00,1.35
4331.00,1.36
4330.00,1.36
4329.00,1.37
4328.00,1.38
4327.00,1.38
4326.00,1.39
4325.00,1.39
4324.00,1.40
4323.00,1.41
4322.00,1.41
4321.00,1.42
4320.00,1.43
4319.00,1.43
4318.00,1.44
4317.00,1.45
4316.00,1.45
4315.00,1.46
4314.00,1.47
4313.00,1.47
4312.00,1.48
4311.00,1.48
4310.00,1.49
4309.00,1.49
4308.00,1.50
4307.00,1.50
4306.00,1.51
4305.00,1.51
4304.00,1.52
4303.00,1.52
4302.00,1.53
4301.00,1.53
4300.00,1.54
4299.00,1.54
4298.00,1.55
4297.00,1.55
4296.00,1.55
4295.00,1.56
4294.00,1.56
4293.00,1.56
4292.00,1.57
4291.00,1.57
4290.00,1.57
4289.00,1.58
4288.00,1.58
4287.00,1.58
4286.00,1.59
4285.00,1.59
4284.00,1.59
4283.00,1.59
4282.00,1.59
4281.00,1.60
4280.00,1.60
4279.00,1.60
4278.00,1.60
4277.00,1.60
4276.00,1.60
4275.00,1.60
4274.00,1.60
4273.00,1.60
4272.00,1.60
4271.00,1.60
4270.00,1.60
4269.00,1.60
4268.00,1.59
4267.00,1.59
4266.00,1.59
4265.00,1.59
4264.00,1.59
4263.00,1.58
4262.00,1.58
4261.00,1.58
4260.00,1.58
4259.00,1.58
4258.00,1.57
4257.00,1.57
4256.00,1.57
4255.00,1.57
4254.00,1.57
4253.00,1.57
4252.00,1.57
4251.00,1.57
4250.00,1.57
4249.00,1.57
4248.00,1.57
4247.00,1.57
4246.00,1.57
4245.00,1.57
4244.00,1.57
4243.00,1.57
4242.00,1.57
4241.00,1.57
4240.00,1.58
4239.00,1.58
4238.00,1.58
4237.00,1.58
4236.00,1.59
4235.00,1.59
4234.00,1.59
4233.00,1.60
4232.00,1.60
4231.00,1.60
4230.00,1.61
4229.00,1.61
4228.00,1.61
4227.00,1.61
4226.00,1.62
4225.00,1.62
4224.00,1.62
4223.00,1.63
4222.00,1.63
4221.00,1.63
4220.00,1.63
4219.00,1.64
4218.00,1.64
4217.00,1.64
4216.00,1.64
4215.00,1.65
4214.00,1.65
4213.00,1.65
4212.00,1.65
4211.00,1.66
4210.00,1.66
4209.00,1.66
4208.00,1.66
4207.00,1.66
4206.00,1.66
4205.00,1.66
4204.00,1.67
4203.00,1.67
4202.00,1.67
4201.00,1.67
4200.00,1.67
4199.00,1.67
4198.00,1.68
4197.00,1.68
4196.00,1.68
4195.00,1.69
4194.00,1.69
4193.00,1.69
4192.00,1.70
4191.00,1.70
4190.00,1.70
4189.00,1.70
4188.00,1.70
4187.00,1.70
4186.00,1.70
4185.00,1.70
4184.00,1.70
4183.00,1.70
4182.00,1.70
4181.00,1.70
4180.00,1.70
4179.00,1.70
4178.00,1.70
4177.00,1.70
4176.00,1.69
4175.00,1.69
4174.00,1.69
4173.00,1.68
4172.00,1.68
4171.00,1.67
4170.00,1.67
4169.00,1.66
4168.00,1.65
4167.00,1.65
4166.00,1.64
4165.00,1.64
4164.00,1.63
4163.00,1.63
4162.00,1.62
4161.00,1.62
4160.00,1.62
4159.00,1.61
4158.00,1.61
4157.00,1.61
4156.00,1.60
4155.00,1.60
4154.00,1.60
4153.00,1.60
4152.00,1.59
4151.00,1.59
4150.00,1.59
4149.00,1.59
4148.00,1.59
4147.00,1.59
4146.00,1.59
4145.00,1.59
4144.00,1.59
4143.00,1.60
4142.00,1.60
4141.00,1.60
4140.00,1.60
4139.00,1.60
4138.00,1.60
4137.00,1.60
4136.00,1.61
4135.00,1.61
4134.00,1.61
4133.00,1.61
4132.00,1.61
4131.00,1.61
4130.00,1.61
4129.00,1.61
4128.00,1.61
4127.00,1.61
4126.00,1.61
4125.00,1.61
4124.00,1.61
4123.00,1.62
4122.00,1.62
4121.00,1.61
4120.00,1.61
4119.00,1.61
4118.00,1.61
4117.00,1.61
4116.00,1.61
4115.00,1.62
4114.00,1.62
4113.00,1.62
4112.00,1.62
4111.00,1.62
4110.00,1.62
4109.00,1.62
4108.00,1.62
4107.00,1.62
4106.00,1.62
4105.00,1.62
4104.00,1.62
4103.00,1.62
4102.00,1.62
4101.00,1.62
4100.00,1.62
4099.00,1.62
4098.00,1.62
4097.00,1.63
4096.00,1.63
4095.00,1.63
4094.00,1.63
4093.00,1.63
4092.00,1.63
4091.00,1.64
4090.00,1.64
4089.00,1.64
4088.00,1.64
4087.00,1.64
4086.00,1.64
4085.00,1.65
4084.00,1.65
4083.00,1.65
4082.00,1.65
4081.00,1.66
4080.00,1.66
4079.00,1.67
4078.00,1.67
4077.00,1.68
4076.00,1.68
4075.00,1.68
4074.00,1.69
4073.00,1.69
4072.00,1.70
4071.00,1.70
4070.00,1.70
4069.00,1.70
4068.00,1.71
4067.00,1.71
4066.00,1.71
4065.00,1.71
4064.00,1.71
4063.00,1.71
4062.00,1.71
4061.00,1.71
4060.00,1.71
4059.00,1.71
4058.00,1.71
4057.00,1.71
4056.00,1.71
4055.00,1.71
4054.00,1.71
4053.00,1.71
4052.00,1.71
4051.00,1.70
4050.00,1.70
4049.00,1.69
4048.00,1.69
4047.00,1.68
4046.00,1.68
4045.00,1.68
4044.00,1.67
4043.00,1.67
4042.00,1.67
4041.00,1.66
4040.00,1.66
4039.00,1.66
4038.00,1.66
4037.00,1.65
4036.00,1.65
4035.00,1.65
4034.00,1.64
4033.00,1.64
4032.00,1.64
4031.00,1.63
4030.00,1.63
4029.00,1.62
4028.00,1.62
4027.00,1.61
4026.00,1.61
4025.00,1.61
4024.00,1.61
4023.00,1.60
4022.00,1.61
4021.00,1.61
4020.00,1.61
4019.00,1.62
4018.00,1.62
4017.00,1.63
4016.00,1.64
4015.00,1.64
4014.00,1.65
4013.00,1.66
4012.00,1.67
4011.00,1.68
4010.00,1.69
4009.00,1.71
4008.00,1.72
4007.00,1.74
4006.00,1.76
4005.00,1.78
4004.00,1.80
4003.00,1.82
4002.00,1.84
4001.00,1.87
4000.00,1.89
