创建为新数据集,样品 376 用户 Administrator 日期 星期日, 七月 28 2019
cm-1,%T
10000.00,1.68
9999.00,1.68
9998.00,1.68
9997.00,1.67
9996.00,1.67
9995.00,1.66
9994.00,1.65
9993.00,1.65
9992.00,1.64
9991.00,1.63
9990.00,1.62
9989.00,1.61
9988.00,1.60
9987.00,1.59
9986.00,1.58
9985.00,1.58
9984.00,1.57
9983.00,1.56
9982.00,1.55
9981.00,1.54
9980.00,1.54
9979.00,1.53
9978.00,1.52
9977.00,1.52
9976.00,1.51
9975.00,1.51
9974.00,1.50
9973.00,1.50
9972.00,1.50
9971.00,1.50
9970.00,1.50
9969.00,1.50
9968.00,1.50
9967.00,1.51
9966.00,1.51
9965.00,1.52
9964.00,1.52
9963.00,1.53
9962.00,1.54
9961.00,1.55
9960.00,1.55
9959.00,1.56
9958.00,1.57
9957.00,1.57
9956.00,1.58
9955.00,1.59
9954.00,1.59
9953.00,1.60
9952.00,1.61
9951.00,1.62
9950.00,1.62
9949.00,1.63
9948.00,1.63
9947.00,1.64
9946.00,1.64
9945.00,1.64
9944.00,1.64
9943.00,1.65
9942.00,1.65
9941.00,1.65
9940.00,1.65
9939.00,1.65
9938.00,1.65
9937.00,1.65
9936.00,1.65
9935.00,1.65
9934.00,1.66
9933.00,1.66
9932.00,1.66
9931.00,1.67
9930.00,1.67
9929.00,1.67
9928.00,1.67
9927.00,1.67
9926.00,1.67
9925.00,1.67
9924.00,1.67
9923.00,1.67
9922.00,1.67
9921.00,1.67
9920.00,1.67
9919.00,1.67
9918.00,1.67
9917.00,1.67
9916.00,1.67
9915.00,1.68
9914.00,1.68
9913.00,1.68
9912.00,1.68
9911.00,1.68
9910.00,1.68
9909.00,1.68
9908.00,1.67
9907.00,1.67
9906.00,1.67
9905.00,1.66
9904.00,1.66
9903.00,1.65
9902.00,1.65
9901.00,1.65
9900.00,1.65
9899.00,1.64
9898.00,1.64
9897.00,1.64
9896.00,1.64
9895.00,1.64
9894.00,1.64
9893.00,1.64
9892.00,1.63
9891.00,1.63
9890.00,1.62
9889.00,1.62
9888.00,1.61
9887.00,1.61
9886.00,1.60
9885.00,1.59
9884.00,1.58
9883.00,1.58
9882.00,1.57
9881.00,1.57
9880.00,1.57
9879.00,1.56
9878.00,1.56
9877.00,1.56
9876.00,1.56
9875.00,1.56
9874.00,1.56
9873.00,1.56
9872.00,1.56
9871.00,1.56
9870.00,1.56
9869.00,1.56
9868.00,1.56
9867.00,1.56
9866.00,1.56
9865.00,1.56
9864.00,1.57
9863.00,1.57
9862.00,1.57
9861.00,1.58
9860.00,1.58
9859.00,1.58
9858.00,1.59
9857.00,1.59
9856.00,1.59
9855.00,1.59
9854.00,1.59
9853.00,1.59
9852.00,1.59
9851.00,1.59
9850.00,1.59
9849.00,1.59
9848.00,1.58
9847.00,1.58
9846.00,1.57
9845.00,1.57
9844.00,1.56
9843.00,1.56
9842.00,1.55
9841.00,1.54
9840.00,1.53
9839.00,1.53
9838.00,1.52
9837.00,1.51
9836.00,1.50
9835.00,1.50
9834.00,1.49
9833.00,1.49
9832.00,1.48
9831.00,1.48
9830.00,1.47
9829.00,1.47
9828.00,1.46
9827.00,1.46
9826.00,1.46
9825.00,1.46
9824.00,1.45
9823.00,1.45
9822.00,1.45
9821.00,1.45
9820.00,1.45
9819.00,1.45
9818.00,1.45
9817.00,1.46
9816.00,1.46
9815.00,1.46
9814.00,1.46
9813.00,1.46
9812.00,1.46
9811.00,1.46
9810.00,1.46
9809.00,1.46
9808.00,1.47
9807.00,1.47
9806.00,1.47
9805.00,1.47
9804.00,1.47
9803.00,1.47
9802.00,1.48
9801.00,1.48
9800.00,1.48
9799.00,1.48
9798.00,1.48
9797.00,1.49
9796.00,1.49
9795.00,1.49
9794.00,1.50
9793.00,1.50
9792.00,1.51
9791.00,1.51
9790.00,1.52
9789.00,1.52
9788.00,1.53
9787.00,1.54
9786.00,1.55
9785.00,1.55
9784.00,1.56
9783.00,1.57
9782.00,1.58
9781.00,1.58
9780.00,1.59
9779.00,1.60
9778.00,1.60
9777.00,1.61
9776.00,1.61
9775.00,1.61
9774.00,1.62
9773.00,1.62
9772.00,1.62
9771.00,1.62
9770.00,1.62
9769.00,1.62
9768.00,1.62
9767.00,1.61
9766.00,1.61
9765.00,1.61
9764.00,1.60
9763.00,1.59
9762.00,1.59
9761.00,1.58
9760.00,1.57
9759.00,1.56
9758.00,1.54
9757.00,1.53
9756.00,1.52
9755.00,1.50
9754.00,1.49
9753.00,1.48
9752.00,1.46
9751.00,1.45
9750.00,1.44
9749.00,1.43
9748.00,1.42
9747.00,1.40
9746.00,1.39
9745.00,1.38
9744.00,1.37
9743.00,1.36
9742.00,1.35
9741.00,1.34
9740.00,1.33
9739.00,1.33
9738.00,1.32
9737.00,1.31
9736.00,1.31
9735.00,1.31
9734.00,1.31
9733.00,1.31
9732.00,1.31
9731.00,1.31
9730.00,1.32
9729.00,1.32
9728.00,1.33
9727.00,1.34
9726.00,1.34
9725.00,1.35
9724.00,1.36
9723.00,1.36
9722.00,1.37
9721.00,1.37
9720.00,1.38
9719.00,1.39
9718.00,1.39
9717.00,1.40
9716.00,1.40
9715.00,1.41
9714.00,1.41
9713.00,1.42
9712.00,1.42
9711.00,1.43
9710.00,1.43
9709.00,1.43
9708.00,1.43
9707.00,1.43
9706.00,1.43
9705.00,1.43
9704.00,1.43
9703.00,1.42
9702.00,1.42
9701.00,1.42
9700.00,1.42
9699.00,1.41
9698.00,1.41
9697.00,1.41
9696.00,1.41
9695.00,1.41
9694.00,1.41
9693.00,1.41
9692.00,1.41
9691.00,1.42
9690.00,1.42
9689.00,1.42
9688.00,1.42
9687.00,1.43
9686.00,1.43
9685.00,1.43
9684.00,1.44
9683.00,1.44
9682.00,1.44
9681.00,1.45
9680.00,1.45
9679.00,1.46
9678.00,1.46
9677.00,1.46
9676.00,1.47
9675.00,1.47
9674.00,1.47
9673.00,1.47
9672.00,1.47
9671.00,1.47
9670.00,1.46
9669.00,1.46
9668.00,1.45
9667.00,1.45
9666.00,1.44
9665.00,1.43
9664.00,1.43
9663.00,1.42
9662.00,1.41
9661.00,1.40
9660.00,1.40
9659.00,1.39
9658.00,1.39
9657.00,1.38
9656.00,1.37
9655.00,1.37
9654.00,1.36
9653.00,1.36
9652.00,1.35
9651.00,1.35
9650.00,1.34
9649.00,1.34
9648.00,1.34
9647.00,1.34
9646.00,1.34
9645.00,1.34
9644.00,1.35
9643.00,1.36
9642.00,1.37
9641.00,1.39
9640.00,1.40
9639.00,1.42
9638.00,1.43
9637.00,1.45
9636.00,1.46
9635.00,1.48
9634.00,1.49
9633.00,1.51
9632.00,1.53
9631.00,1.54
9630.00,1.56
9629.00,1.57
9628.00,1.59
9627.00,1.61
9626.00,1.62
9625.00,1.64
9624.00,1.65
9623.00,1.66
9622.00,1.67
9621.00,1.68
9620.00,1.68
9619.00,1.69
9618.00,1.69
9617.00,1.68
9616.00,1.68
9615.00,1.67
9614.00,1.66
9613.00,1.65
9612.00,1.63
9611.00,1.62
9610.00,1.60
9609.00,1.58
9608.00,1.57
9607.00,1.55
9606.00,1.53
9605.00,1.51
9604.00,1.49
9603.00,1.46
9602.00,1.44
9601.00,1.42
9600.00,1.40
9599.00,1.38
9598.00,1.36
9597.00,1.35
9596.00,1.33
9595.00,1.32
9594.00,1.31
9593.00,1.30
9592.00,1.29
9591.00,1.28
9590.00,1.28
9589.00,1.27
9588.00,1.27
9587.00,1.27
9586.00,1.27
9585.00,1.27
9584.00,1.27
9583.00,1.27
9582.00,1.28
9581.00,1.28
9580.00,1.29
9579.00,1.30
9578.00,1.30
9577.00,1.31
9576.00,1.32
9575.00,1.33
9574.00,1.34
9573.00,1.35
9572.00,1.36
9571.00,1.36
9570.00,1.37
9569.00,1.37
9568.00,1.38
9567.00,1.38
9566.00,1.38
9565.00,1.38
9564.00,1.39
9563.00,1.39
9562.00,1.39
9561.00,1.39
9560.00,1.39
9559.00,1.40
9558.00,1.40
9557.00,1.40
9556.00,1.41
9555.00,1.41
9554.00,1.41
9553.00,1.42
9552.00,1.42
9551.00,1.42
9550.00,1.42
9549.00,1.42
9548.00,1.42
9547.00,1.42
9546.00,1.42
9545.00,1.42
9544.00,1.42
9543.00,1.42
9542.00,1.43
9541.00,1.43
9540.00,1.43
9539.00,1.43
9538.00,1.44
9537.00,1.44
9536.00,1.44
9535.00,1.44
9534.00,1.45
9533.00,1.45
9532.00,1.45
9531.00,1.45
9530.00,1.45
9529.00,1.44
9528.00,1.44
9527.00,1.44
9526.00,1.44
9525.00,1.44
9524.00,1.44
9523.00,1.44
9522.00,1.44
9521.00,1.43
9520.00,1.43
9519.00,1.43
9518.00,1.43
9517.00,1.43
9516.00,1.43
9515.00,1.43
9514.00,1.42
9513.00,1.42
9512.00,1.42
9511.00,1.42
9510.00,1.42
9509.00,1.42
9508.00,1.41
9507.00,1.41
9506.00,1.41
9505.00,1.41
9504.00,1.41
9503.00,1.41
9502.00,1.41
9501.00,1.41
9500.00,1.41
9499.00,1.41
9498.00,1.41
9497.00,1.41
9496.00,1.41
9495.00,1.41
9494.00,1.42
9493.00,1.42
9492.00,1.42
9491.00,1.42
9490.00,1.42
9489.00,1.42
9488.00,1.43
9487.00,1.43
9486.00,1.43
9485.00,1.44
9484.00,1.44
9483.00,1.44
9482.00,1.45
9481.00,1.46
9480.00,1.46
9479.00,1.47
9478.00,1.48
9477.00,1.49
9476.00,1.49
9475.00,1.50
9474.00,1.50
9473.00,1.51
9472.00,1.51
9471.00,1.52
9470.00,1.52
9469.00,1.53
9468.00,1.53
9467.00,1.53
9466.00,1.53
9465.00,1.54
9464.00,1.54
9463.00,1.54
9462.00,1.54
9461.00,1.54
9460.00,1.54
9459.00,1.55
9458.00,1.55
9457.00,1.55
9456.00,1.54
9455.00,1.54
9454.00,1.54
9453.00,1.54
9452.00,1.53
9451.00,1.52
9450.00,1.52
9449.00,1.51
9448.00,1.50
9447.00,1.50
9446.00,1.49
9445.00,1.48
9444.00,1.47
9443.00,1.46
9442.00,1.45
9441.00,1.45
9440.00,1.44
9439.00,1.43
9438.00,1.42
9437.00,1.42
9436.00,1.41
9435.00,1.41
9434.00,1.40
9433.00,1.40
9432.00,1.39
9431.00,1.39
9430.00,1.38
9429.00,1.37
9428.00,1.37
9427.00,1.36
9426.00,1.36
9425.00,1.36
9424.00,1.35
9423.00,1.35
9422.00,1.35
9421.00,1.35
9420.00,1.35
9419.00,1.35
9418.00,1.36
9417.00,1.36
9416.00,1.36
9415.00,1.36
9414.00,1.37
9413.00,1.37
9412.00,1.37
9411.00,1.38
9410.00,1.38
9409.00,1.38
9408.00,1.38
9407.00,1.38
9406.00,1.38
9405.00,1.38
9404.00,1.39
9403.00,1.39
9402.00,1.39
9401.00,1.39
9400.00,1.39
9399.00,1.39
9398.00,1.39
9397.00,1.39
9396.00,1.39
9395.00,1.39
9394.00,1.39
9393.00,1.39
9392.00,1.39
9391.00,1.39
9390.00,1.39
9389.00,1.39
9388.00,1.39
9387.00,1.39
9386.00,1.39
9385.00,1.39
9384.00,1.39
9383.00,1.39
9382.00,1.39
9381.00,1.39
9380.00,1.39
9379.00,1.39
9378.00,1.39
9377.00,1.39
9376.00,1.39
9375.00,1.39
9374.00,1.40
9373.00,1.40
9372.00,1.41
9371.00,1.41
9370.00,1.42
9369.00,1.42
9368.00,1.43
9367.00,1.43
9366.00,1.44
9365.00,1.44
9364.00,1.45
9363.00,1.45
9362.00,1.46
9361.00,1.46
9360.00,1.46
9359.00,1.46
9358.00,1.47
9357.00,1.47
9356.00,1.47
9355.00,1.47
9354.00,1.48
9353.00,1.48
9352.00,1.48
9351.00,1.48
9350.00,1.48
9349.00,1.48
9348.00,1.48
9347.00,1.48
9346.00,1.48
9345.00,1.47
9344.00,1.47
9343.00,1.46
9342.00,1.45
9341.00,1.45
9340.00,1.44
9339.00,1.43
9338.00,1.42
9337.00,1.42
9336.00,1.41
9335.00,1.40
9334.00,1.39
9333.00,1.39
9332.00,1.38
9331.00,1.37
9330.00,1.37
9329.00,1.36
9328.00,1.36
9327.00,1.35
9326.00,1.35
9325.00,1.34
9324.00,1.34
9323.00,1.34
9322.00,1.33
9321.00,1.33
9320.00,1.33
9319.00,1.34
9318.00,1.34
9317.00,1.34
9316.00,1.35
9315.00,1.35
9314.00,1.36
9313.00,1.37
9312.00,1.38
9311.00,1.39
9310.00,1.40
9309.00,1.41
9308.00,1.42
9307.00,1.43
9306.00,1.44
9305.00,1.44
9304.00,1.45
9303.00,1.46
9302.00,1.46
9301.00,1.47
9300.00,1.47
9299.00,1.48
9298.00,1.48
9297.00,1.48
9296.00,1.48
9295.00,1.48
9294.00,1.48
9293.00,1.48
9292.00,1.47
9291.00,1.47
9290.00,1.47
9289.00,1.46
9288.00,1.46
9287.00,1.45
9286.00,1.44
9285.00,1.43
9284.00,1.43
9283.00,1.42
9282.00,1.41
9281.00,1.40
9280.00,1.40
9279.00,1.39
9278.00,1.39
9277.00,1.38
9276.00,1.38
9275.00,1.38
9274.00,1.37
9273.00,1.37
9272.00,1.37
9271.00,1.37
9270.00,1.37
9269.00,1.36
9268.00,1.36
9267.00,1.36
9266.00,1.36
9265.00,1.36
9264.00,1.36
9263.00,1.36
9262.00,1.36
9261.00,1.36
9260.00,1.36
9259.00,1.36
9258.00,1.36
9257.00,1.36
9256.00,1.36
9255.00,1.36
9254.00,1.36
9253.00,1.36
9252.00,1.36
9251.00,1.35
9250.00,1.35
9249.00,1.35
9248.00,1.34
9247.00,1.34
9246.00,1.33
9245.00,1.33
9244.00,1.32
9243.00,1.32
9242.00,1.31
9241.00,1.31
9240.00,1.30
9239.00,1.30
9238.00,1.29
9237.00,1.29
9236.00,1.28
9235.00,1.28
9234.00,1.27
9233.00,1.27
9232.00,1.27
9231.00,1.27
9230.00,1.26
9229.00,1.26
9228.00,1.26
9227.00,1.26
9226.00,1.26
9225.00,1.26
9224.00,1.26
9223.00,1.26
9222.00,1.26
9221.00,1.27
9220.00,1.27
9219.00,1.28
9218.00,1.28
9217.00,1.29
9216.00,1.30
9215.00,1.31
9214.00,1.32
9213.00,1.33
9212.00,1.34
9211.00,1.35
9210.00,1.36
9209.00,1.36
9208.00,1.37
9207.00,1.38
9206.00,1.39
9205.00,1.39
9204.00,1.40
9203.00,1.41
9202.00,1.41
9201.00,1.42
9200.00,1.42
9199.00,1.43
9198.00,1.43
9197.00,1.43
9196.00,1.43
9195.00,1.44
9194.00,1.44
9193.00,1.44
9192.00,1.44
9191.00,1.43
9190.00,1.43
9189.00,1.43
9188.00,1.43
9187.00,1.43
9186.00,1.43
9185.00,1.43
9184.00,1.42
9183.00,1.42
9182.00,1.42
9181.00,1.42
9180.00,1.42
9179.00,1.42
9178.00,1.41
9177.00,1.41
9176.00,1.41
9175.00,1.41
9174.00,1.41
9173.00,1.41
9172.00,1.41
9171.00,1.41
9170.00,1.42
9169.00,1.42
9168.00,1.42
9167.00,1.42
9166.00,1.42
9165.00,1.43
9164.00,1.43
9163.00,1.43
9162.00,1.43
9161.00,1.42
9160.00,1.42
9159.00,1.42
9158.00,1.42
9157.00,1.42
9156.00,1.42
9155.00,1.42
9154.00,1.42
9153.00,1.41
9152.00,1.41
9151.00,1.41
9150.00,1.41
9149.00,1.41
9148.00,1.41
9147.00,1.41
9146.00,1.41
9145.00,1.41
9144.00,1.41
9143.00,1.40
9142.00,1.40
9141.00,1.40
9140.00,1.40
9139.00,1.40
9138.00,1.40
9137.00,1.41
9136.00,1.41
9135.00,1.41
9134.00,1.41
9133.00,1.41
9132.00,1.42
9131.00,1.42
9130.00,1.42
9129.00,1.42
9128.00,1.42
9127.00,1.42
9126.00,1.42
9125.00,1.42
9124.00,1.42
9123.00,1.42
9122.00,1.42
9121.00,1.42
9120.00,1.42
9119.00,1.42
9118.00,1.42
9117.00,1.41
9116.00,1.41
9115.00,1.41
9114.00,1.41
9113.00,1.40
9112.00,1.40
9111.00,1.39
9110.00,1.39
9109.00,1.38
9108.00,1.38
9107.00,1.38
9106.00,1.37
9105.00,1.37
9104.00,1.36
9103.00,1.36
9102.00,1.36
9101.00,1.36
9100.00,1.36
9099.00,1.36
9098.00,1.36
9097.00,1.35
9096.00,1.35
9095.00,1.35
9094.00,1.35
9093.00,1.35
9092.00,1.35
9091.00,1.35
9090.00,1.35
9089.00,1.35
9088.00,1.35
9087.00,1.35
9086.00,1.35
9085.00,1.35
9084.00,1.35
9083.00,1.35
9082.00,1.35
9081.00,1.35
9080.00,1.35
9079.00,1.35
9078.00,1.35
9077.00,1.35
9076.00,1.35
9075.00,1.34
9074.00,1.34
9073.00,1.34
9072.00,1.34
9071.00,1.33
9070.00,1.33
9069.00,1.33
9068.00,1.32
9067.00,1.32
9066.00,1.32
9065.00,1.32
9064.00,1.31
9063.00,1.31
9062.00,1.31
9061.00,1.31
9060.00,1.31
9059.00,1.31
9058.00,1.31
9057.00,1.31
9056.00,1.31
9055.00,1.31
9054.00,1.31
9053.00,1.31
9052.00,1.31
9051.00,1.31
9050.00,1.32
9049.00,1.32
9048.00,1.32
9047.00,1.33
9046.00,1.33
9045.00,1.34
9044.00,1.34
9043.00,1.35
9042.00,1.36
9041.00,1.36
9040.00,1.37
9039.00,1.37
9038.00,1.38
9037.00,1.39
9036.00,1.40
9035.00,1.41
9034.00,1.42
9033.00,1.42
9032.00,1.43
9031.00,1.44
9030.00,1.45
9029.00,1.46
9028.00,1.47
9027.00,1.48
9026.00,1.49
9025.00,1.50
9024.00,1.51
9023.00,1.51
9022.00,1.52
9021.00,1.53
9020.00,1.54
9019.00,1.55
9018.00,1.56
9017.00,1.57
9016.00,1.58
9015.00,1.59
9014.00,1.60
9013.00,1.61
9012.00,1.61
9011.00,1.62
9010.00,1.63
9009.00,1.63
9008.00,1.63
9007.00,1.64
9006.00,1.64
9005.00,1.64
9004.00,1.64
9003.00,1.64
9002.00,1.64
9001.00,1.64
9000.00,1.63
8999.00,1.63
8998.00,1.63
8997.00,1.62
8996.00,1.62
8995.00,1.61
8994.00,1.61
8993.00,1.60
8992.00,1.59
8991.00,1.58
8990.00,1.57
8989.00,1.56
8988.00,1.55
8987.00,1.54
8986.00,1.53
8985.00,1.52
8984.00,1.51
8983.00,1.50
8982.00,1.50
8981.00,1.49
8980.00,1.48
8979.00,1.47
8978.00,1.46
8977.00,1.46
8976.00,1.45
8975.00,1.44
8974.00,1.43
8973.00,1.42
8972.00,1.42
8971.00,1.41
8970.00,1.40
8969.00,1.40
8968.00,1.39
8967.00,1.39
8966.00,1.38
8965.00,1.38
8964.00,1.37
8963.00,1.37
8962.00,1.37
8961.00,1.37
8960.00,1.36
8959.00,1.36
8958.00,1.36
8957.00,1.36
8956.00,1.36
8955.00,1.35
8954.00,1.35
8953.00,1.35
8952.00,1.35
8951.00,1.35
8950.00,1.35
8949.00,1.35
8948.00,1.36
8947.00,1.36
8946.00,1.36
8945.00,1.36
8944.00,1.37
8943.00,1.37
8942.00,1.37
8941.00,1.37
8940.00,1.38
8939.00,1.38
8938.00,1.38
8937.00,1.39
8936.00,1.39
8935.00,1.39
8934.00,1.39
8933.00,1.39
8932.00,1.40
8931.00,1.40
8930.00,1.40
8929.00,1.40
8928.00,1.41
8927.00,1.41
8926.00,1.41
8925.00,1.41
8924.00,1.41
8923.00,1.42
8922.00,1.42
8921.00,1.42
8920.00,1.42
8919.00,1.42
8918.00,1.43
8917.00,1.43
8916.00,1.43
8915.00,1.43
8914.00,1.43
8913.00,1.43
8912.00,1.43
8911.00,1.43
8910.00,1.42
8909.00,1.42
8908.00,1.42
8907.00,1.42
8906.00,1.42
8905.00,1.42
8904.00,1.42
8903.00,1.42
8902.00,1.41
8901.00,1.41
8900.00,1.41
8899.00,1.41
8898.00,1.41
8897.00,1.41
8896.00,1.40
8895.00,1.40
8894.00,1.40
8893.00,1.40
8892.00,1.40
8891.00,1.40
8890.00,1.39
8889.00,1.39
8888.00,1.39
8887.00,1.39
8886.00,1.39
8885.00,1.39
8884.00,1.39
8883.00,1.39
8882.00,1.39
8881.00,1.39
8880.00,1.39
8879.00,1.39
8878.00,1.39
8877.00,1.40
8876.00,1.40
8875.00,1.40
8874.00,1.40
8873.00,1.40
8872.00,1.40
8871.00,1.40
8870.00,1.40
8869.00,1.40
8868.00,1.40
8867.00,1.39
8866.00,1.39
8865.00,1.39
8864.00,1.39
8863.00,1.39
8862.00,1.39
8861.00,1.39
8860.00,1.39
8859.00,1.39
8858.00,1.40
8857.00,1.40
8856.00,1.40
8855.00,1.40
8854.00,1.41
8853.00,1.41
8852.00,1.41
8851.00,1.42
8850.00,1.42
8849.00,1.42
8848.00,1.43
8847.00,1.43
8846.00,1.43
8845.00,1.44
8844.00,1.44
8843.00,1.44
8842.00,1.45
8841.00,1.45
8840.00,1.46
8839.00,1.46
8838.00,1.47
8837.00,1.48
8836.00,1.48
8835.00,1.49
8834.00,1.49
8833.00,1.49
8832.00,1.50
8831.00,1.50
8830.00,1.50
8829.00,1.51
8828.00,1.51
8827.00,1.51
8826.00,1.51
8825.00,1.52
8824.00,1.52
8823.00,1.52
8822.00,1.52
8821.00,1.52
8820.00,1.52
8819.00,1.53
8818.00,1.53
8817.00,1.53
8816.00,1.53
8815.00,1.53
8814.00,1.53
8813.00,1.53
8812.00,1.52
8811.00,1.52
8810.00,1.52
8809.00,1.52
8808.00,1.51
8807.00,1.51
8806.00,1.50
8805.00,1.50
8804.00,1.49
8803.00,1.49
8802.00,1.48
8801.00,1.48
8800.00,1.47
8799.00,1.46
8798.00,1.46
8797.00,1.45
8796.00,1.45
8795.00,1.44
8794.00,1.44
8793.00,1.43
8792.00,1.43
8791.00,1.42
8790.00,1.42
8789.00,1.41
8788.00,1.41
8787.00,1.40
8786.00,1.40
8785.00,1.40
8784.00,1.39
8783.00,1.39
8782.00,1.39
8781.00,1.39
8780.00,1.38
8779.00,1.38
8778.00,1.38
8777.00,1.38
8776.00,1.38
8775.00,1.38
8774.00,1.38
8773.00,1.38
8772.00,1.38
8771.00,1.38
8770.00,1.38
8769.00,1.38
8768.00,1.38
8767.00,1.38
8766.00,1.38
8765.00,1.38
8764.00,1.38
8763.00,1.39
8762.00,1.39
8761.00,1.39
8760.00,1.39
8759.00,1.39
8758.00,1.39
8757.00,1.40
8756.00,1.40
8755.00,1.40
8754.00,1.41
8753.00,1.41
8752.00,1.42
8751.00,1.42
8750.00,1.43
8749.00,1.44
8748.00,1.44
8747.00,1.45
8746.00,1.45
8745.00,1.46
8744.00,1.47
8743.00,1.47
8742.00,1.47
8741.00,1.48
8740.00,1.48
8739.00,1.49
8738.00,1.49
8737.00,1.49
8736.00,1.50
8735.00,1.50
8734.00,1.50
8733.00,1.50
8732.00,1.51
8731.00,1.51
8730.00,1.51
8729.00,1.51
8728.00,1.51
8727.00,1.50
8726.00,1.50
8725.00,1.50
8724.00,1.50
8723.00,1.49
8722.00,1.49
8721.00,1.48
8720.00,1.48
8719.00,1.47
8718.00,1.47
8717.00,1.46
8716.00,1.46
8715.00,1.45
8714.00,1.45
8713.00,1.44
8712.00,1.43
8711.00,1.43
8710.00,1.42
8709.00,1.42
8708.00,1.41
8707.00,1.40
8706.00,1.40
8705.00,1.39
8704.00,1.39
8703.00,1.39
8702.00,1.38
8701.00,1.38
8700.00,1.38
8699.00,1.37
8698.00,1.37
8697.00,1.37
8696.00,1.37
8695.00,1.37
8694.00,1.37
8693.00,1.37
8692.00,1.37
8691.00,1.37
8690.00,1.38
8689.00,1.38
8688.00,1.39
8687.00,1.39
8686.00,1.40
8685.00,1.40
8684.00,1.41
8683.00,1.42
8682.00,1.42
8681.00,1.43
8680.00,1.44
8679.00,1.44
8678.00,1.45
8677.00,1.45
8676.00,1.46
8675.00,1.47
8674.00,1.47
8673.00,1.48
8672.00,1.48
8671.00,1.48
8670.00,1.49
8669.00,1.49
8668.00,1.49
8667.00,1.50
8666.00,1.50
8665.00,1.50
8664.00,1.50
8663.00,1.50
8662.00,1.49
8661.00,1.49
8660.00,1.49
8659.00,1.48
8658.00,1.48
8657.00,1.48
8656.00,1.47
8655.00,1.47
8654.00,1.46
8653.00,1.46
8652.00,1.46
8651.00,1.45
8650.00,1.45
8649.00,1.44
8648.00,1.44
8647.00,1.43
8646.00,1.43
8645.00,1.42
8644.00,1.42
8643.00,1.41
8642.00,1.41
8641.00,1.40
8640.00,1.40
8639.00,1.39
8638.00,1.39
8637.00,1.38
8636.00,1.38
8635.00,1.38
8634.00,1.37
8633.00,1.37
8632.00,1.36
8631.00,1.36
8630.00,1.36
8629.00,1.35
8628.00,1.35
8627.00,1.34
8626.00,1.34
8625.00,1.34
8624.00,1.34
8623.00,1.34
8622.00,1.34
8621.00,1.34
8620.00,1.34
8619.00,1.34
8618.00,1.34
8617.00,1.34
8616.00,1.34
8615.00,1.34
8614.00,1.35
8613.00,1.35
8612.00,1.35
8611.00,1.35
8610.00,1.35
8609.00,1.35
8608.00,1.35
8607.00,1.35
8606.00,1.35
8605.00,1.35
8604.00,1.35
8603.00,1.35
8602.00,1.35
8601.00,1.35
8600.00,1.35
8599.00,1.35
8598.00,1.35
8597.00,1.35
8596.00,1.35
8595.00,1.34
8594.00,1.34
8593.00,1.34
8592.00,1.33
8591.00,1.33
8590.00,1.33
8589.00,1.33
8588.00,1.32
8587.00,1.32
8586.00,1.32
8585.00,1.32
8584.00,1.32
8583.00,1.32
8582.00,1.32
8581.00,1.33
8580.00,1.33
8579.00,1.33
8578.00,1.34
8577.00,1.34
8576.00,1.34
8575.00,1.35
8574.00,1.35
8573.00,1.36
8572.00,1.36
8571.00,1.37
8570.00,1.38
8569.00,1.38
8568.00,1.39
8567.00,1.40
8566.00,1.41
8565.00,1.42
8564.00,1.42
8563.00,1.43
8562.00,1.44
8561.00,1.45
8560.00,1.46
8559.00,1.47
8558.00,1.48
8557.00,1.48
8556.00,1.49
8555.00,1.50
8554.00,1.50
8553.00,1.51
8552.00,1.51
8551.00,1.51
8550.00,1.52
8549.00,1.52
8548.00,1.53
8547.00,1.53
8546.00,1.53
8545.00,1.54
8544.00,1.54
8543.00,1.54
8542.00,1.54
8541.00,1.54
8540.00,1.54
8539.00,1.54
8538.00,1.54
8537.00,1.53
8536.00,1.53
8535.00,1.53
8534.00,1.53
8533.00,1.52
8532.00,1.52
8531.00,1.52
8530.00,1.52
8529.00,1.52
8528.00,1.52
8527.00,1.52
8526.00,1.52
8525.00,1.52
8524.00,1.52
8523.00,1.51
8522.00,1.51
8521.00,1.51
8520.00,1.50
8519.00,1.50
8518.00,1.50
8517.00,1.49
8516.00,1.49
8515.00,1.49
8514.00,1.48
8513.00,1.48
8512.00,1.48
8511.00,1.47
8510.00,1.47
8509.00,1.47
8508.00,1.46
8507.00,1.46
8506.00,1.45
8505.00,1.45
8504.00,1.44
8503.00,1.43
8502.00,1.43
8501.00,1.42
8500.00,1.41
8499.00,1.40
8498.00,1.40
8497.00,1.39
8496.00,1.38
8495.00,1.38
8494.00,1.37
8493.00,1.37
8492.00,1.37
8491.00,1.37
8490.00,1.36
8489.00,1.36
8488.00,1.36
8487.00,1.36
8486.00,1.35
8485.00,1.35
8484.00,1.35
8483.00,1.35
8482.00,1.34
8481.00,1.34
8480.00,1.34
8479.00,1.34
8478.00,1.34
8477.00,1.34
8476.00,1.34
8475.00,1.34
8474.00,1.34
8473.00,1.34
8472.00,1.34
8471.00,1.35
8470.00,1.35
8469.00,1.35
8468.00,1.35
8467.00,1.35
8466.00,1.34
8465.00,1.34
8464.00,1.34
8463.00,1.34
8462.00,1.34
8461.00,1.34
8460.00,1.34
8459.00,1.34
8458.00,1.34
8457.00,1.34
8456.00,1.34
8455.00,1.34
8454.00,1.34
8453.00,1.34
8452.00,1.35
8451.00,1.35
8450.00,1.35
8449.00,1.36
8448.00,1.36
8447.00,1.36
8446.00,1.37
8445.00,1.37
8444.00,1.38
8443.00,1.38
8442.00,1.39
8441.00,1.39
8440.00,1.40
8439.00,1.40
8438.00,1.41
8437.00,1.41
8436.00,1.42
8435.00,1.42
8434.00,1.43
8433.00,1.43
8432.00,1.44
8431.00,1.44
8430.00,1.44
8429.00,1.44
8428.00,1.44
8427.00,1.44
8426.00,1.44
8425.00,1.44
8424.00,1.44
8423.00,1.44
8422.00,1.43
8421.00,1.43
8420.00,1.43
8419.00,1.42
8418.00,1.42
8417.00,1.41
8416.00,1.41
8415.00,1.40
8414.00,1.40
8413.00,1.39
8412.00,1.39
8411.00,1.38
8410.00,1.37
8409.00,1.37
8408.00,1.36
8407.00,1.36
8406.00,1.35
8405.00,1.34
8404.00,1.34
8403.00,1.33
8402.00,1.32
8401.00,1.32
8400.00,1.31
8399.00,1.31
8398.00,1.30
8397.00,1.29
8396.00,1.29
8395.00,1.28
8394.00,1.28
8393.00,1.27
8392.00,1.27
8391.00,1.26
8390.00,1.26
8389.00,1.26
8388.00,1.25
8387.00,1.25
8386.00,1.25
8385.00,1.24
8384.00,1.24
8383.00,1.24
8382.00,1.24
8381.00,1.24
8380.00,1.24
8379.00,1.24
8378.00,1.24
8377.00,1.24
8376.00,1.24
8375.00,1.25
8374.00,1.25
8373.00,1.25
8372.00,1.26
8371.00,1.26
8370.00,1.27
8369.00,1.27
8368.00,1.28
8367.00,1.28
8366.00,1.28
8365.00,1.29
8364.00,1.29
8363.00,1.29
8362.00,1.29
8361.00,1.29
8360.00,1.30
8359.00,1.30
8358.00,1.30
8357.00,1.30
8356.00,1.31
8355.00,1.31
8354.00,1.31
8353.00,1.32
8352.00,1.32
8351.00,1.32
8350.00,1.32
8349.00,1.32
8348.00,1.33
8347.00,1.33
8346.00,1.33
8345.00,1.33
8344.00,1.33
8343.00,1.33
8342.00,1.33
8341.00,1.33
8340.00,1.33
8339.00,1.34
8338.00,1.34
8337.00,1.34
8336.00,1.34
8335.00,1.35
8334.00,1.35
8333.00,1.35
8332.00,1.35
8331.00,1.35
8330.00,1.35
8329.00,1.35
8328.00,1.35
8327.00,1.35
8326.00,1.35
8325.00,1.35
8324.00,1.35
8323.00,1.35
8322.00,1.35
8321.00,1.35
8320.00,1.35
8319.00,1.35
8318.00,1.35
8317.00,1.34
8316.00,1.34
8315.00,1.34
8314.00,1.34
8313.00,1.34
8312.00,1.34
8311.00,1.34
8310.00,1.34
8309.00,1.33
8308.00,1.33
8307.00,1.33
8306.00,1.33
8305.00,1.33
8304.00,1.33
8303.00,1.33
8302.00,1.33
8301.00,1.33
8300.00,1.33
8299.00,1.33
8298.00,1.33
8297.00,1.34
8296.00,1.34
8295.00,1.34
8294.00,1.34
8293.00,1.34
8292.00,1.34
8291.00,1.35
8290.00,1.35
8289.00,1.35
8288.00,1.35
8287.00,1.36
8286.00,1.36
8285.00,1.36
8284.00,1.36
8283.00,1.37
8282.00,1.37
8281.00,1.37
8280.00,1.37
8279.00,1.37
8278.00,1.38
8277.00,1.38
8276.00,1.38
8275.00,1.38
8274.00,1.39
8273.00,1.39
8272.00,1.39
8271.00,1.40
8270.00,1.40
8269.00,1.40
8268.00,1.40
8267.00,1.41
8266.00,1.41
8265.00,1.41
8264.00,1.41
8263.00,1.41
8262.00,1.41
8261.00,1.42
8260.00,1.42
8259.00,1.42
8258.00,1.42
8257.00,1.42
8256.00,1.42
8255.00,1.42
8254.00,1.42
8253.00,1.42
8252.00,1.42
8251.00,1.42
8250.00,1.42
8249.00,1.42
8248.00,1.42
8247.00,1.41
8246.00,1.41
8245.00,1.41
8244.00,1.41
8243.00,1.41
8242.00,1.41
8241.00,1.40
8240.00,1.40
8239.00,1.40
8238.00,1.40
8237.00,1.40
8236.00,1.40
8235.00,1.40
8234.00,1.40
8233.00,1.40
8232.00,1.40
8231.00,1.40
8230.00,1.40
8229.00,1.40
8228.00,1.40
8227.00,1.40
8226.00,1.41
8225.00,1.41
8224.00,1.41
8223.00,1.41
8222.00,1.41
8221.00,1.42
8220.00,1.42
8219.00,1.42
8218.00,1.42
8217.00,1.42
8216.00,1.43
8215.00,1.43
8214.00,1.43
8213.00,1.43
8212.00,1.44
8211.00,1.44
8210.00,1.44
8209.00,1.45
8208.00,1.45
8207.00,1.45
8206.00,1.45
8205.00,1.45
8204.00,1.46
8203.00,1.46
8202.00,1.46
8201.00,1.46
8200.00,1.46
8199.00,1.46
8198.00,1.46
8197.00,1.46
8196.00,1.46
8195.00,1.46
8194.00,1.47
8193.00,1.47
8192.00,1.47
8191.00,1.48
8190.00,1.48
8189.00,1.48
8188.00,1.48
8187.00,1.48
8186.00,1.48
8185.00,1.48
8184.00,1.49
8183.00,1.49
8182.00,1.49
8181.00,1.49
8180.00,1.49
8179.00,1.49
8178.00,1.50
8177.00,1.50
8176.00,1.50
8175.00,1.50
8174.00,1.50
8173.00,1.51
8172.00,1.51
8171.00,1.51
8170.00,1.51
8169.00,1.51
8168.00,1.52
8167.00,1.52
8166.00,1.52
8165.00,1.52
8164.00,1.52
8163.00,1.52
8162.00,1.52
8161.00,1.52
8160.00,1.52
8159.00,1.52
8158.00,1.52
8157.00,1.52
8156.00,1.52
8155.00,1.51
8154.00,1.51
8153.00,1.51
8152.00,1.51
8151.00,1.51
8150.00,1.50
8149.00,1.50
8148.00,1.50
8147.00,1.50
8146.00,1.50
8145.00,1.50
8144.00,1.49
8143.00,1.49
8142.00,1.49
8141.00,1.49
8140.00,1.48
8139.00,1.48
8138.00,1.48
8137.00,1.48
8136.00,1.47
8135.00,1.47
8134.00,1.47
8133.00,1.47
8132.00,1.47
8131.00,1.47
8130.00,1.47
8129.00,1.47
8128.00,1.47
8127.00,1.47
8126.00,1.47
8125.00,1.46
8124.00,1.46
8123.00,1.46
8122.00,1.46
8121.00,1.46
8120.00,1.46
8119.00,1.46
8118.00,1.46
8117.00,1.46
8116.00,1.46
8115.00,1.46
8114.00,1.47
8113.00,1.47
8112.00,1.47
8111.00,1.47
8110.00,1.47
8109.00,1.47
8108.00,1.47
8107.00,1.48
8106.00,1.48
8105.00,1.48
8104.00,1.48
8103.00,1.48
8102.00,1.48
8101.00,1.48
8100.00,1.48
8099.00,1.48
8098.00,1.49
8097.00,1.49
8096.00,1.49
8095.00,1.49
8094.00,1.49
8093.00,1.49
8092.00,1.49
8091.00,1.49
8090.00,1.49
8089.00,1.49
8088.00,1.48
8087.00,1.48
8086.00,1.48
8085.00,1.48
8084.00,1.48
8083.00,1.48
8082.00,1.48
8081.00,1.47
8080.00,1.47
8079.00,1.47
8078.00,1.47
8077.00,1.47
8076.00,1.46
8075.00,1.46
8074.00,1.46
8073.00,1.46
8072.00,1.45
8071.00,1.45
8070.00,1.45
8069.00,1.45
8068.00,1.45
8067.00,1.45
8066.00,1.45
8065.00,1.45
8064.00,1.45
8063.00,1.45
8062.00,1.45
8061.00,1.45
8060.00,1.45
8059.00,1.45
8058.00,1.45
8057.00,1.46
8056.00,1.46
8055.00,1.46
8054.00,1.46
8053.00,1.47
8052.00,1.47
8051.00,1.48
8050.00,1.48
8049.00,1.48
8048.00,1.49
8047.00,1.49
8046.00,1.50
8045.00,1.50
8044.00,1.51
8043.00,1.51
8042.00,1.52
8041.00,1.52
8040.00,1.53
8039.00,1.53
8038.00,1.54
8037.00,1.54
8036.00,1.55
8035.00,1.55
8034.00,1.56
8033.00,1.56
8032.00,1.56
8031.00,1.57
8030.00,1.57
8029.00,1.58
8028.00,1.58
8027.00,1.58
8026.00,1.58
8025.00,1.58
8024.00,1.59
8023.00,1.59
8022.00,1.59
8021.00,1.59
8020.00,1.59
8019.00,1.59
8018.00,1.59
8017.00,1.59
8016.00,1.58
8015.00,1.58
8014.00,1.58
8013.00,1.58
8012.00,1.58
8011.00,1.58
8010.00,1.58
8009.00,1.58
8008.00,1.57
8007.00,1.57
8006.00,1.57
8005.00,1.57
8004.00,1.57
8003.00,1.57
8002.00,1.57
8001.00,1.57
8000.00,1.57
7999.00,1.57
7998.00,1.57
7997.00,1.57
7996.00,1.57
7995.00,1.58
7994.00,1.58
7993.00,1.58
7992.00,1.58
7991.00,1.59
7990.00,1.59
7989.00,1.59
7988.00,1.59
7987.00,1.60
7986.00,1.60
7985.00,1.60
7984.00,1.60
7983.00,1.60
7982.00,1.60
7981.00,1.60
7980.00,1.60
7979.00,1.60
7978.00,1.60
7977.00,1.60
7976.00,1.60
7975.00,1.60
7974.00,1.60
7973.00,1.59
7972.00,1.59
7971.00,1.59
7970.00,1.58
7969.00,1.58
7968.00,1.58
7967.00,1.57
7966.00,1.57
7965.00,1.57
7964.00,1.56
7963.00,1.56
7962.00,1.56
7961.00,1.56
7960.00,1.55
7959.00,1.55
7958.00,1.55
7957.00,1.55
7956.00,1.54
7955.00,1.54
7954.00,1.54
7953.00,1.54
7952.00,1.54
7951.00,1.54
7950.00,1.54
7949.00,1.55
7948.00,1.55
7947.00,1.55
7946.00,1.55
7945.00,1.55
7944.00,1.56
7943.00,1.56
7942.00,1.56
7941.00,1.56
7940.00,1.57
7939.00,1.57
7938.00,1.57
7937.00,1.58
7936.00,1.58
7935.00,1.58
7934.00,1.59
7933.00,1.59
7932.00,1.59
7931.00,1.59
7930.00,1.60
7929.00,1.60
7928.00,1.60
7927.00,1.60
7926.00,1.60
7925.00,1.61
7924.00,1.61
7923.00,1.61
7922.00,1.61
7921.00,1.61
7920.00,1.61
7919.00,1.61
7918.00,1.61
7917.00,1.61
7916.00,1.61
7915.00,1.61
7914.00,1.61
7913.00,1.61
7912.00,1.61
7911.00,1.61
7910.00,1.60
7909.00,1.60
7908.00,1.60
7907.00,1.60
7906.00,1.59
7905.00,1.59
7904.00,1.59
7903.00,1.59
7902.00,1.58
7901.00,1.58
7900.00,1.58
7899.00,1.57
7898.00,1.57
7897.00,1.57
7896.00,1.56
7895.00,1.56
7894.00,1.56
7893.00,1.55
7892.00,1.55
7891.00,1.55
7890.00,1.55
7889.00,1.54
7888.00,1.54
7887.00,1.54
7886.00,1.54
7885.00,1.54
7884.00,1.55
7883.00,1.55
7882.00,1.55
7881.00,1.55
7880.00,1.55
7879.00,1.55
7878.00,1.55
7877.00,1.55
7876.00,1.55
7875.00,1.56
7874.00,1.56
7873.00,1.56
7872.00,1.56
7871.00,1.57
7870.00,1.57
7869.00,1.58
7868.00,1.58
7867.00,1.58
7866.00,1.59
7865.00,1.59
7864.00,1.59
7863.00,1.59
7862.00,1.60
7861.00,1.60
7860.00,1.60
7859.00,1.60
7858.00,1.60
7857.00,1.60
7856.00,1.60
7855.00,1.60
7854.00,1.60
7853.00,1.60
7852.00,1.60
7851.00,1.60
7850.00,1.60
7849.00,1.60
7848.00,1.60
7847.00,1.60
7846.00,1.60
7845.00,1.60
7844.00,1.59
7843.00,1.59
7842.00,1.59
7841.00,1.58
7840.00,1.58
7839.00,1.58
7838.00,1.58
7837.00,1.57
7836.00,1.57
7835.00,1.57
7834.00,1.57
7833.00,1.57
7832.00,1.57
7831.00,1.57
7830.00,1.57
7829.00,1.57
7828.00,1.57
7827.00,1.57
7826.00,1.57
7825.00,1.57
7824.00,1.57
7823.00,1.58
7822.00,1.58
7821.00,1.58
7820.00,1.58
7819.00,1.58
7818.00,1.59
7817.00,1.59
7816.00,1.59
7815.00,1.60
7814.00,1.60
7813.00,1.60
7812.00,1.61
7811.00,1.61
7810.00,1.61
7809.00,1.61
7808.00,1.61
7807.00,1.62
7806.00,1.62
7805.00,1.62
7804.00,1.62
7803.00,1.62
7802.00,1.62
7801.00,1.62
7800.00,1.62
7799.00,1.62
7798.00,1.62
7797.00,1.62
7796.00,1.63
7795.00,1.63
7794.00,1.63
7793.00,1.63
7792.00,1.63
7791.00,1.63
7790.00,1.63
7789.00,1.63
7788.00,1.62
7787.00,1.62
7786.00,1.62
7785.00,1.62
7784.00,1.62
7783.00,1.62
7782.00,1.62
7781.00,1.61
7780.00,1.61
7779.00,1.61
7778.00,1.61
7777.00,1.61
7776.00,1.61
7775.00,1.61
7774.00,1.61
7773.00,1.61
7772.00,1.61
7771.00,1.61
7770.00,1.61
7769.00,1.61
7768.00,1.61
7767.00,1.61
7766.00,1.61
7765.00,1.61
7764.00,1.61
7763.00,1.61
7762.00,1.61
7761.00,1.61
7760.00,1.61
7759.00,1.61
7758.00,1.61
7757.00,1.62
7756.00,1.62
7755.00,1.62
7754.00,1.62
7753.00,1.62
7752.00,1.62
7751.00,1.62
7750.00,1.62
7749.00,1.62
7748.00,1.62
7747.00,1.62
7746.00,1.61
7745.00,1.61
7744.00,1.61
7743.00,1.60
7742.00,1.60
7741.00,1.59
7740.00,1.59
7739.00,1.59
7738.00,1.58
7737.00,1.58
7736.00,1.57
7735.00,1.57
7734.00,1.57
7733.00,1.56
7732.00,1.56
7731.00,1.56
7730.00,1.56
7729.00,1.55
7728.00,1.55
7727.00,1.55
7726.00,1.55
7725.00,1.55
7724.00,1.55
7723.00,1.55
7722.00,1.55
7721.00,1.55
7720.00,1.55
7719.00,1.55
7718.00,1.55
7717.00,1.55
7716.00,1.56
7715.00,1.56
7714.00,1.56
7713.00,1.56
7712.00,1.57
7711.00,1.57
7710.00,1.57
7709.00,1.57
7708.00,1.58
7707.00,1.58
7706.00,1.58
7705.00,1.58
7704.00,1.58
7703.00,1.58
7702.00,1.58
7701.00,1.58
7700.00,1.58
7699.00,1.58
7698.00,1.58
7697.00,1.58
7696.00,1.58
7695.00,1.58
7694.00,1.58
7693.00,1.59
7692.00,1.59
7691.00,1.59
7690.00,1.59
7689.00,1.59
7688.00,1.59
7687.00,1.59
7686.00,1.59
7685.00,1.59
7684.00,1.59
7683.00,1.59
7682.00,1.59
7681.00,1.59
7680.00,1.59
7679.00,1.59
7678.00,1.60
7677.00,1.60
7676.00,1.60
7675.00,1.60
7674.00,1.60
7673.00,1.60
7672.00,1.60
7671.00,1.60
7670.00,1.61
7669.00,1.61
7668.00,1.61
7667.00,1.61
7666.00,1.61
7665.00,1.62
7664.00,1.62
7663.00,1.62
7662.00,1.62
7661.00,1.62
7660.00,1.63
7659.00,1.63
7658.00,1.63
7657.00,1.63
7656.00,1.63
7655.00,1.63
7654.00,1.63
7653.00,1.63
7652.00,1.63
7651.00,1.64
7650.00,1.64
7649.00,1.64
7648.00,1.64
7647.00,1.64
7646.00,1.64
7645.00,1.64
7644.00,1.64
7643.00,1.64
7642.00,1.64
7641.00,1.64
7640.00,1.64
7639.00,1.64
7638.00,1.64
7637.00,1.64
7636.00,1.63
7635.00,1.63
7634.00,1.63
7633.00,1.63
7632.00,1.63
7631.00,1.62
7630.00,1.62
7629.00,1.62
7628.00,1.62
7627.00,1.61
7626.00,1.61
7625.00,1.61
7624.00,1.61
7623.00,1.61
7622.00,1.61
7621.00,1.61
7620.00,1.60
7619.00,1.60
7618.00,1.60
7617.00,1.60
7616.00,1.60
7615.00,1.61
7614.00,1.61
7613.00,1.61
7612.00,1.61
7611.00,1.61
7610.00,1.61
7609.00,1.61
7608.00,1.62
7607.00,1.62
7606.00,1.62
7605.00,1.63
7604.00,1.63
7603.00,1.64
7602.00,1.64
7601.00,1.64
7600.00,1.65
7599.00,1.65
7598.00,1.65
7597.00,1.66
7596.00,1.66
7595.00,1.66
7594.00,1.67
7593.00,1.67
7592.00,1.67
7591.00,1.67
7590.00,1.68
7589.00,1.68
7588.00,1.68
7587.00,1.68
7586.00,1.68
7585.00,1.69
7584.00,1.69
7583.00,1.69
7582.00,1.69
7581.00,1.69
7580.00,1.69
7579.00,1.69
7578.00,1.69
7577.00,1.69
7576.00,1.69
7575.00,1.69
7574.00,1.69
7573.00,1.69
7572.00,1.69
7571.00,1.69
7570.00,1.69
7569.00,1.69
7568.00,1.69
7567.00,1.68
7566.00,1.68
7565.00,1.68
7564.00,1.68
7563.00,1.68
7562.00,1.67
7561.00,1.67
7560.00,1.67
7559.00,1.67
7558.00,1.66
7557.00,1.66
7556.00,1.66
7555.00,1.66
7554.00,1.65
7553.00,1.65
7552.00,1.65
7551.00,1.65
7550.00,1.64
7549.00,1.64
7548.00,1.64
7547.00,1.63
7546.00,1.63
7545.00,1.63
7544.00,1.63
7543.00,1.62
7542.00,1.62
7541.00,1.62
7540.00,1.62
7539.00,1.62
7538.00,1.62
7537.00,1.61
7536.00,1.61
7535.00,1.61
7534.00,1.61
7533.00,1.61
7532.00,1.60
7531.00,1.60
7530.00,1.60
7529.00,1.60
7528.00,1.60
7527.00,1.59
7526.00,1.59
7525.00,1.59
7524.00,1.59
7523.00,1.59
7522.00,1.59
7521.00,1.59
7520.00,1.59
7519.00,1.59
7518.00,1.59
7517.00,1.59
7516.00,1.59
7515.00,1.59
7514.00,1.58
7513.00,1.58
7512.00,1.58
7511.00,1.58
7510.00,1.58
7509.00,1.58
7508.00,1.58
7507.00,1.58
7506.00,1.58
7505.00,1.59
7504.00,1.59
7503.00,1.59
7502.00,1.59
7501.00,1.59
7500.00,1.59
7499.00,1.59
7498.00,1.58
7497.00,1.58
7496.00,1.58
7495.00,1.58
7494.00,1.58
7493.00,1.58
7492.00,1.58
7491.00,1.58
7490.00,1.58
7489.00,1.58
7488.00,1.58
7487.00,1.58
7486.00,1.58
7485.00,1.58
7484.00,1.58
7483.00,1.58
7482.00,1.58
7481.00,1.58
7480.00,1.58
7479.00,1.58
7478.00,1.58
7477.00,1.58
7476.00,1.58
7475.00,1.58
7474.00,1.58
7473.00,1.58
7472.00,1.58
7471.00,1.59
7470.00,1.59
7469.00,1.59
7468.00,1.59
7467.00,1.59
7466.00,1.59
7465.00,1.59
7464.00,1.60
7463.00,1.60
7462.00,1.60
7461.00,1.60
7460.00,1.60
7459.00,1.60
7458.00,1.60
7457.00,1.60
7456.00,1.60
7455.00,1.60
7454.00,1.60
7453.00,1.60
7452.00,1.60
7451.00,1.60
7450.00,1.60
7449.00,1.60
7448.00,1.60
7447.00,1.60
7446.00,1.60
7445.00,1.60
7444.00,1.60
7443.00,1.60
7442.00,1.60
7441.00,1.60
7440.00,1.60
7439.00,1.60
7438.00,1.60
7437.00,1.60
7436.00,1.60
7435.00,1.60
7434.00,1.60
7433.00,1.60
7432.00,1.60
7431.00,1.60
7430.00,1.59
7429.00,1.59
7428.00,1.59
7427.00,1.59
7426.00,1.58
7425.00,1.58
7424.00,1.58
7423.00,1.57
7422.00,1.57
7421.00,1.56
7420.00,1.56
7419.00,1.56
7418.00,1.55
7417.00,1.55
7416.00,1.54
7415.00,1.54
7414.00,1.53
7413.00,1.53
7412.00,1.52
7411.00,1.52
7410.00,1.52
7409.00,1.51
7408.00,1.51
7407.00,1.50
7406.00,1.50
7405.00,1.50
7404.00,1.50
7403.00,1.49
7402.00,1.49
7401.00,1.49
7400.00,1.49
7399.00,1.49
7398.00,1.49
7397.00,1.49
7396.00,1.49
7395.00,1.49
7394.00,1.49
7393.00,1.49
7392.00,1.49
7391.00,1.49
7390.00,1.50
7389.00,1.50
7388.00,1.50
7387.00,1.50
7386.00,1.50
7385.00,1.50
7384.00,1.50
7383.00,1.51
7382.00,1.51
7381.00,1.51
7380.00,1.51
7379.00,1.51
7378.00,1.51
7377.00,1.51
7376.00,1.51
7375.00,1.50
7374.00,1.50
7373.00,1.50
7372.00,1.50
7371.00,1.50
7370.00,1.50
7369.00,1.50
7368.00,1.50
7367.00,1.50
7366.00,1.50
7365.00,1.50
7364.00,1.50
7363.00,1.50
7362.00,1.50
7361.00,1.50
7360.00,1.50
7359.00,1.50
7358.00,1.49
7357.00,1.49
7356.00,1.49
7355.00,1.49
7354.00,1.49
7353.00,1.49
7352.00,1.49
7351.00,1.50
7350.00,1.50
7349.00,1.50
7348.00,1.50
7347.00,1.50
7346.00,1.50
7345.00,1.50
7344.00,1.50
7343.00,1.50
7342.00,1.50
7341.00,1.49
7340.00,1.49
7339.00,1.49
7338.00,1.49
7337.00,1.48
7336.00,1.48
7335.00,1.48
7334.00,1.48
7333.00,1.47
7332.00,1.47
7331.00,1.47
7330.00,1.47
7329.00,1.46
7328.00,1.46
7327.00,1.46
7326.00,1.45
7325.00,1.45
7324.00,1.44
7323.00,1.44
7322.00,1.43
7321.00,1.43
7320.00,1.42
7319.00,1.42
7318.00,1.42
7317.00,1.41
7316.00,1.41
7315.00,1.41
7314.00,1.41
7313.00,1.41
7312.00,1.41
7311.00,1.40
7310.00,1.40
7309.00,1.40
7308.00,1.40
7307.00,1.40
7306.00,1.40
7305.00,1.40
7304.00,1.40
7303.00,1.40
7302.00,1.40
7301.00,1.41
7300.00,1.41
7299.00,1.41
7298.00,1.41
7297.00,1.42
7296.00,1.42
7295.00,1.42
7294.00,1.43
7293.00,1.43
7292.00,1.43
7291.00,1.43
7290.00,1.44
7289.00,1.44
7288.00,1.44
7287.00,1.44
7286.00,1.44
7285.00,1.45
7284.00,1.45
7283.00,1.45
7282.00,1.45
7281.00,1.45
7280.00,1.45
7279.00,1.45
7278.00,1.45
7277.00,1.45
7276.00,1.45
7275.00,1.45
7274.00,1.45
7273.00,1.45
7272.00,1.45
7271.00,1.44
7270.00,1.44
7269.00,1.44
7268.00,1.44
7267.00,1.43
7266.00,1.43
7265.00,1.43
7264.00,1.43
7263.00,1.42
7262.00,1.42
7261.00,1.42
7260.00,1.41
7259.00,1.41
7258.00,1.40
7257.00,1.40
7256.00,1.40
7255.00,1.39
7254.00,1.39
7253.00,1.39
7252.00,1.38
7251.00,1.38
7250.00,1.38
7249.00,1.38
7248.00,1.38
7247.00,1.37
7246.00,1.37
7245.00,1.37
7244.00,1.37
7243.00,1.37
7242.00,1.36
7241.00,1.36
7240.00,1.36
7239.00,1.36
7238.00,1.35
7237.00,1.35
7236.00,1.35
7235.00,1.35
7234.00,1.34
7233.00,1.34
7232.00,1.34
7231.00,1.34
7230.00,1.34
7229.00,1.34
7228.00,1.33
7227.00,1.33
7226.00,1.33
7225.00,1.32
7224.00,1.32
7223.00,1.31
7222.00,1.31
7221.00,1.30
7220.00,1.30
7219.00,1.29
7218.00,1.28
7217.00,1.28
7216.00,1.27
7215.00,1.27
7214.00,1.26
7213.00,1.26
7212.00,1.25
7211.00,1.25
7210.00,1.24
7209.00,1.24
7208.00,1.23
7207.00,1.23
7206.00,1.22
7205.00,1.21
7204.00,1.21
7203.00,1.20
7202.00,1.20
7201.00,1.19
7200.00,1.19
7199.00,1.18
7198.00,1.18
7197.00,1.17
7196.00,1.17
7195.00,1.16
7194.00,1.16
7193.00,1.16
7192.00,1.15
7191.00,1.15
7190.00,1.14
7189.00,1.14
7188.00,1.14
7187.00,1.13
7186.00,1.13
7185.00,1.12
7184.00,1.12
7183.00,1.11
7182.00,1.11
7181.00,1.10
7180.00,1.10
7179.00,1.09
7178.00,1.09
7177.00,1.08
7176.00,1.08
7175.00,1.07
7174.00,1.06
7173.00,1.06
7172.00,1.05
7171.00,1.05
7170.00,1.04
7169.00,1.03
7168.00,1.03
7167.00,1.02
7166.00,1.01
7165.00,1.01
7164.00,1.00
7163.00,1.00
7162.00,0.99
7161.00,0.98
7160.00,0.98
7159.00,0.97
7158.00,0.97
7157.00,0.96
7156.00,0.96
7155.00,0.95
7154.00,0.95
7153.00,0.94
7152.00,0.94
7151.00,0.94
7150.00,0.94
7149.00,0.93
7148.00,0.93
7147.00,0.93
7146.00,0.93
7145.00,0.93
7144.00,0.93
7143.00,0.93
7142.00,0.93
7141.00,0.93
7140.00,0.93
7139.00,0.93
7138.00,0.93
7137.00,0.93
7136.00,0.93
7135.00,0.93
7134.00,0.93
7133.00,0.93
7132.00,0.93
7131.00,0.93
7130.00,0.93
7129.00,0.93
7128.00,0.93
7127.00,0.93
7126.00,0.93
7125.00,0.93
7124.00,0.93
7123.00,0.92
7122.00,0.92
7121.00,0.92
7120.00,0.91
7119.00,0.91
7118.00,0.91
7117.00,0.90
7116.00,0.90
7115.00,0.89
7114.00,0.89
7113.00,0.88
7112.00,0.88
7111.00,0.87
7110.00,0.87
7109.00,0.86
7108.00,0.85
7107.00,0.85
7106.00,0.84
7105.00,0.83
7104.00,0.83
7103.00,0.82
7102.00,0.82
7101.00,0.81
7100.00,0.81
7099.00,0.80
7098.00,0.80
7097.00,0.80
7096.00,0.79
7095.00,0.79
7094.00,0.79
7093.00,0.78
7092.00,0.78
7091.00,0.78
7090.00,0.78
7089.00,0.77
7088.00,0.77
7087.00,0.77
7086.00,0.77
7085.00,0.77
7084.00,0.77
7083.00,0.77
7082.00,0.77
7081.00,0.77
7080.00,0.77
7079.00,0.77
7078.00,0.76
7077.00,0.76
7076.00,0.76
7075.00,0.76
7074.00,0.76
7073.00,0.76
7072.00,0.76
7071.00,0.76
7070.00,0.76
7069.00,0.75
7068.00,0.75
7067.00,0.75
7066.00,0.75
7065.00,0.75
7064.00,0.74
7063.00,0.74
7062.00,0.74
7061.00,0.74
7060.00,0.73
7059.00,0.73
7058.00,0.73
7057.00,0.72
7056.00,0.72
7055.00,0.71
7054.00,0.71
7053.00,0.70
7052.00,0.70
7051.00,0.70
7050.00,0.69
7049.00,0.69
7048.00,0.68
7047.00,0.68
7046.00,0.68
7045.00,0.68
7044.00,0.67
7043.00,0.67
7042.00,0.67
7041.00,0.67
7040.00,0.66
7039.00,0.66
7038.00,0.66
7037.00,0.66
7036.00,0.66
7035.00,0.66
7034.00,0.66
7033.00,0.66
7032.00,0.66
7031.00,0.67
7030.00,0.67
7029.00,0.67
7028.00,0.67
7027.00,0.68
7026.00,0.68
7025.00,0.68
7024.00,0.68
7023.00,0.69
7022.00,0.69
7021.00,0.69
7020.00,0.69
7019.00,0.70
7018.00,0.70
7017.00,0.70
7016.00,0.71
7015.00,0.71
7014.00,0.71
7013.00,0.71
7012.00,0.72
7011.00,0.72
7010.00,0.72
7009.00,0.72
7008.00,0.72
7007.00,0.72
7006.00,0.72
7005.00,0.72
7004.00,0.72
7003.00,0.71
7002.00,0.71
7001.00,0.71
7000.00,0.71
6999.00,0.71
6998.00,0.71
6997.00,0.71
6996.00,0.71
6995.00,0.71
6994.00,0.70
6993.00,0.70
6992.00,0.70
6991.00,0.70
6990.00,0.69
6989.00,0.69
6988.00,0.69
6987.00,0.69
6986.00,0.69
6985.00,0.68
6984.00,0.68
6983.00,0.68
6982.00,0.68
6981.00,0.68
6980.00,0.68
6979.00,0.67
6978.00,0.67
6977.00,0.67
6976.00,0.67
6975.00,0.67
6974.00,0.67
6973.00,0.67
6972.00,0.67
6971.00,0.67
6970.00,0.67
6969.00,0.67
6968.00,0.67
6967.00,0.67
6966.00,0.67
6965.00,0.67
6964.00,0.67
6963.00,0.67
6962.00,0.67
6961.00,0.67
6960.00,0.67
6959.00,0.67
6958.00,0.67
6957.00,0.67
6956.00,0.67
6955.00,0.67
6954.00,0.67
6953.00,0.67
6952.00,0.67
6951.00,0.67
6950.00,0.67
6949.00,0.67
6948.00,0.67
6947.00,0.67
6946.00,0.67
6945.00,0.67
6944.00,0.67
6943.00,0.66
6942.00,0.66
6941.00,0.66
6940.00,0.66
6939.00,0.66
6938.00,0.66
6937.00,0.66
6936.00,0.66
6935.00,0.66
6934.00,0.65
6933.00,0.65
6932.00,0.65
6931.00,0.65
6930.00,0.65
6929.00,0.64
6928.00,0.64
6927.00,0.64
6926.00,0.64
6925.00,0.64
6924.00,0.64
6923.00,0.64
6922.00,0.64
6921.00,0.64
6920.00,0.64
6919.00,0.64
6918.00,0.65
6917.00,0.65
6916.00,0.65
6915.00,0.65
6914.00,0.65
6913.00,0.65
6912.00,0.65
6911.00,0.65
6910.00,0.65
6909.00,0.66
6908.00,0.66
6907.00,0.66
6906.00,0.66
6905.00,0.66
6904.00,0.66
6903.00,0.66
6902.00,0.66
6901.00,0.66
6900.00,0.65
6899.00,0.65
6898.00,0.65
6897.00,0.65
6896.00,0.65
6895.00,0.65
6894.00,0.65
6893.00,0.64
6892.00,0.64
6891.00,0.64
6890.00,0.64
6889.00,0.64
6888.00,0.64
6887.00,0.64
6886.00,0.63
6885.00,0.63
6884.00,0.63
6883.00,0.63
6882.00,0.63
6881.00,0.63
6880.00,0.63
6879.00,0.63
6878.00,0.63
6877.00,0.63
6876.00,0.63
6875.00,0.63
6874.00,0.64
6873.00,0.64
6872.00,0.64
6871.00,0.64
6870.00,0.64
6869.00,0.65
6868.00,0.65
6867.00,0.65
6866.00,0.66
6865.00,0.66
6864.00,0.66
6863.00,0.67
6862.00,0.67
6861.00,0.67
6860.00,0.67
6859.00,0.68
6858.00,0.68
6857.00,0.68
6856.00,0.68
6855.00,0.68
6854.00,0.69
6853.00,0.69
6852.00,0.69
6851.00,0.69
6850.00,0.69
6849.00,0.69
6848.00,0.69
6847.00,0.69
6846.00,0.69
6845.00,0.69
6844.00,0.69
6843.00,0.69
6842.00,0.69
6841.00,0.69
6840.00,0.68
6839.00,0.68
6838.00,0.68
6837.00,0.68
6836.00,0.68
6835.00,0.68
6834.00,0.67
6833.00,0.67
6832.00,0.67
6831.00,0.67
6830.00,0.67
6829.00,0.67
6828.00,0.67
6827.00,0.67
6826.00,0.67
6825.00,0.67
6824.00,0.67
6823.00,0.67
6822.00,0.67
6821.00,0.68
6820.00,0.68
6819.00,0.68
6818.00,0.68
6817.00,0.69
6816.00,0.69
6815.00,0.69
6814.00,0.69
6813.00,0.69
6812.00,0.70
6811.00,0.70
6810.00,0.70
6809.00,0.70
6808.00,0.71
6807.00,0.71
6806.00,0.71
6805.00,0.71
6804.00,0.72
6803.00,0.72
6802.00,0.72
6801.00,0.72
6800.00,0.72
6799.00,0.73
6798.00,0.73
6797.00,0.73
6796.00,0.73
6795.00,0.73
6794.00,0.73
6793.00,0.73
6792.00,0.73
6791.00,0.73
6790.00,0.73
6789.00,0.73
6788.00,0.73
6787.00,0.73
6786.00,0.73
6785.00,0.74
6784.00,0.74
6783.00,0.74
6782.00,0.74
6781.00,0.74
6780.00,0.74
6779.00,0.74
6778.00,0.74
6777.00,0.74
6776.00,0.74
6775.00,0.74
6774.00,0.74
6773.00,0.74
6772.00,0.74
6771.00,0.74
6770.00,0.74
6769.00,0.74
6768.00,0.74
6767.00,0.73
6766.00,0.73
6765.00,0.74
6764.00,0.74
6763.00,0.74
6762.00,0.74
6761.00,0.74
6760.00,0.74
6759.00,0.74
6758.00,0.74
6757.00,0.74
6756.00,0.75
6755.00,0.75
6754.00,0.75
6753.00,0.75
6752.00,0.75
6751.00,0.75
6750.00,0.75
6749.00,0.76
6748.00,0.76
6747.00,0.76
6746.00,0.76
6745.00,0.76
6744.00,0.76
6743.00,0.76
6742.00,0.76
6741.00,0.77
6740.00,0.77
6739.00,0.77
6738.00,0.77
6737.00,0.76
6736.00,0.76
6735.00,0.76
6734.00,0.76
6733.00,0.76
6732.00,0.75
6731.00,0.75
6730.00,0.75
6729.00,0.75
6728.00,0.75
6727.00,0.74
6726.00,0.74
6725.00,0.74
6724.00,0.74
6723.00,0.74
6722.00,0.73
6721.00,0.73
6720.00,0.73
6719.00,0.73
6718.00,0.73
6717.00,0.72
6716.00,0.72
6715.00,0.72
6714.00,0.72
6713.00,0.72
6712.00,0.72
6711.00,0.72
6710.00,0.72
6709.00,0.73
6708.00,0.73
6707.00,0.73
6706.00,0.73
6705.00,0.73
6704.00,0.73
6703.00,0.73
6702.00,0.73
6701.00,0.74
6700.00,0.74
6699.00,0.74
6698.00,0.74
6697.00,0.74
6696.00,0.74
6695.00,0.74
6694.00,0.74
6693.00,0.74
6692.00,0.75
6691.00,0.75
6690.00,0.75
6689.00,0.75
6688.00,0.75
6687.00,0.75
6686.00,0.75
6685.00,0.76
6684.00,0.76
6683.00,0.76
6682.00,0.76
6681.00,0.76
6680.00,0.76
6679.00,0.76
6678.00,0.77
6677.00,0.77
6676.00,0.77
6675.00,0.77
6674.00,0.77
6673.00,0.78
6672.00,0.78
6671.00,0.78
6670.00,0.78
6669.00,0.78
6668.00,0.78
6667.00,0.78
6666.00,0.78
6665.00,0.79
6664.00,0.79
6663.00,0.79
6662.00,0.79
6661.00,0.79
6660.00,0.79
6659.00,0.79
6658.00,0.79
6657.00,0.80
6656.00,0.80
6655.00,0.80
6654.00,0.80
6653.00,0.80
6652.00,0.80
6651.00,0.80
6650.00,0.80
6649.00,0.80
6648.00,0.81
6647.00,0.81
6646.00,0.81
6645.00,0.81
6644.00,0.81
6643.00,0.82
6642.00,0.82
6641.00,0.82
6640.00,0.82
6639.00,0.82
6638.00,0.83
6637.00,0.83
6636.00,0.83
6635.00,0.83
6634.00,0.83
6633.00,0.83
6632.00,0.84
6631.00,0.84
6630.00,0.84
6629.00,0.84
6628.00,0.84
6627.00,0.84
6626.00,0.85
6625.00,0.85
6624.00,0.85
6623.00,0.85
6622.00,0.85
6621.00,0.85
6620.00,0.86
6619.00,0.86
6618.00,0.86
6617.00,0.86
6616.00,0.86
6615.00,0.86
6614.00,0.86
6613.00,0.86
6612.00,0.86
6611.00,0.86
6610.00,0.86
6609.00,0.87
6608.00,0.87
6607.00,0.87
6606.00,0.87
6605.00,0.87
6604.00,0.87
6603.00,0.87
6602.00,0.87
6601.00,0.87
6600.00,0.87
6599.00,0.87
6598.00,0.87
6597.00,0.87
6596.00,0.87
6595.00,0.87
6594.00,0.87
6593.00,0.88
6592.00,0.88
6591.00,0.88
6590.00,0.88
6589.00,0.88
6588.00,0.88
6587.00,0.89
6586.00,0.89
6585.00,0.89
6584.00,0.89
6583.00,0.89
6582.00,0.90
6581.00,0.90
6580.00,0.90
6579.00,0.90
6578.00,0.90
6577.00,0.91
6576.00,0.91
6575.00,0.91
6574.00,0.91
6573.00,0.91
6572.00,0.92
6571.00,0.92
6570.00,0.92
6569.00,0.92
6568.00,0.93
6567.00,0.93
6566.00,0.93
6565.00,0.93
6564.00,0.93
6563.00,0.93
6562.00,0.93
6561.00,0.94
6560.00,0.94
6559.00,0.94
6558.00,0.94
6557.00,0.94
6556.00,0.94
6555.00,0.94
6554.00,0.95
6553.00,0.95
6552.00,0.95
6551.00,0.95
6550.00,0.96
6549.00,0.96
6548.00,0.96
6547.00,0.96
6546.00,0.97
6545.00,0.97
6544.00,0.97
6543.00,0.97
6542.00,0.97
6541.00,0.98
6540.00,0.98
6539.00,0.98
6538.00,0.98
6537.00,0.99
6536.00,0.99
6535.00,0.99
6534.00,0.99
6533.00,0.99
6532.00,0.99
6531.00,0.99
6530.00,1.00
6529.00,1.00
6528.00,1.00
6527.00,1.00
6526.00,1.00
6525.00,1.00
6524.00,1.00
6523.00,1.00
6522.00,1.00
6521.00,1.00
6520.00,1.00
6519.00,1.00
6518.00,1.00
6517.00,1.00
6516.00,1.00
6515.00,1.01
6514.00,1.01
6513.00,1.01
6512.00,1.01
6511.00,1.01
6510.00,1.01
6509.00,1.01
6508.00,1.01
6507.00,1.01
6506.00,1.01
6505.00,1.01
6504.00,1.01
6503.00,1.01
6502.00,1.01
6501.00,1.01
6500.00,1.01
6499.00,1.01
6498.00,1.01
6497.00,1.01
6496.00,1.01
6495.00,1.01
6494.00,1.01
6493.00,1.01
6492.00,1.01
6491.00,1.01
6490.00,1.01
6489.00,1.01
6488.00,1.01
6487.00,1.01
6486.00,1.01
6485.00,1.01
6484.00,1.01
6483.00,1.01
6482.00,1.01
6481.00,1.01
6480.00,1.01
6479.00,1.01
6478.00,1.01
6477.00,1.01
6476.00,1.02
6475.00,1.02
6474.00,1.02
6473.00,1.02
6472.00,1.02
6471.00,1.02
6470.00,1.02
6469.00,1.02
6468.00,1.02
6467.00,1.02
6466.00,1.02
6465.00,1.02
6464.00,1.02
6463.00,1.02
6462.00,1.02
6461.00,1.03
6460.00,1.03
6459.00,1.03
6458.00,1.03
6457.00,1.03
6456.00,1.04
6455.00,1.04
6454.00,1.04
6453.00,1.04
6452.00,1.05
6451.00,1.05
6450.00,1.05
6449.00,1.06
6448.00,1.06
6447.00,1.06
6446.00,1.06
6445.00,1.07
6444.00,1.07
6443.00,1.07
6442.00,1.08
6441.00,1.08
6440.00,1.09
6439.00,1.09
6438.00,1.09
6437.00,1.10
6436.00,1.10
6435.00,1.10
6434.00,1.11
6433.00,1.11
6432.00,1.11
6431.00,1.11
6430.00,1.12
6429.00,1.12
6428.00,1.12
6427.00,1.12
6426.00,1.12
6425.00,1.12
6424.00,1.12
6423.00,1.12
6422.00,1.12
6421.00,1.12
6420.00,1.12
6419.00,1.12
6418.00,1.12
6417.00,1.11
6416.00,1.11
6415.00,1.11
6414.00,1.11
6413.00,1.11
6412.00,1.11
6411.00,1.11
6410.00,1.10
6409.00,1.10
6408.00,1.10
6407.00,1.10
6406.00,1.10
6405.00,1.10
6404.00,1.10
6403.00,1.10
6402.00,1.10
6401.00,1.10
6400.00,1.10
6399.00,1.10
6398.00,1.10
6397.00,1.10
6396.00,1.10
6395.00,1.10
6394.00,1.11
6393.00,1.11
6392.00,1.11
6391.00,1.11
6390.00,1.11
6389.00,1.12
6388.00,1.12
6387.00,1.12
6386.00,1.13
6385.00,1.13
6384.00,1.13
6383.00,1.13
6382.00,1.14
6381.00,1.14
6380.00,1.14
6379.00,1.15
6378.00,1.15
6377.00,1.15
6376.00,1.15
6375.00,1.15
6374.00,1.16
6373.00,1.16
6372.00,1.16
6371.00,1.16
6370.00,1.17
6369.00,1.17
6368.00,1.17
6367.00,1.17
6366.00,1.17
6365.00,1.18
6364.00,1.18
6363.00,1.18
6362.00,1.18
6361.00,1.18
6360.00,1.18
6359.00,1.18
6358.00,1.18
6357.00,1.18
6356.00,1.18
6355.00,1.19
6354.00,1.19
6353.00,1.19
6352.00,1.19
6351.00,1.19
6350.00,1.19
6349.00,1.20
6348.00,1.20
6347.00,1.20
6346.00,1.20
6345.00,1.20
6344.00,1.21
6343.00,1.21
6342.00,1.21
6341.00,1.21
6340.00,1.21
6339.00,1.22
6338.00,1.22
6337.00,1.22
6336.00,1.22
6335.00,1.23
6334.00,1.23
6333.00,1.23
6332.00,1.23
6331.00,1.24
6330.00,1.24
6329.00,1.24
6328.00,1.24
6327.00,1.24
6326.00,1.24
6325.00,1.24
6324.00,1.24
6323.00,1.24
6322.00,1.24
6321.00,1.24
6320.00,1.24
6319.00,1.24
6318.00,1.24
6317.00,1.24
6316.00,1.24
6315.00,1.24
6314.00,1.24
6313.00,1.24
6312.00,1.24
6311.00,1.24
6310.00,1.24
6309.00,1.24
6308.00,1.23
6307.00,1.23
6306.00,1.23
6305.00,1.23
6304.00,1.23
6303.00,1.23
6302.00,1.23
6301.00,1.23
6300.00,1.23
6299.00,1.23
6298.00,1.23
6297.00,1.23
6296.00,1.24
6295.00,1.24
6294.00,1.24
6293.00,1.24
6292.00,1.24
6291.00,1.24
6290.00,1.25
6289.00,1.25
6288.00,1.25
6287.00,1.26
6286.00,1.26
6285.00,1.26
6284.00,1.27
6283.00,1.27
6282.00,1.27
6281.00,1.28
6280.00,1.28
6279.00,1.28
6278.00,1.29
6277.00,1.29
6276.00,1.29
6275.00,1.30
6274.00,1.30
6273.00,1.30
6272.00,1.31
6271.00,1.31
6270.00,1.31
6269.00,1.31
6268.00,1.32
6267.00,1.32
6266.00,1.32
6265.00,1.32
6264.00,1.32
6263.00,1.32
6262.00,1.33
6261.00,1.33
6260.00,1.33
6259.00,1.33
6258.00,1.33
6257.00,1.33
6256.00,1.33
6255.00,1.33
6254.00,1.32
6253.00,1.32
6252.00,1.32
6251.00,1.32
6250.00,1.32
6249.00,1.32
6248.00,1.32
6247.00,1.32
6246.00,1.32
6245.00,1.32
6244.00,1.32
6243.00,1.33
6242.00,1.33
6241.00,1.33
6240.00,1.33
6239.00,1.34
6238.00,1.34
6237.00,1.34
6236.00,1.35
6235.00,1.35
6234.00,1.35
6233.00,1.36
6232.00,1.36
6231.00,1.37
6230.00,1.37
6229.00,1.38
6228.00,1.38
6227.00,1.39
6226.00,1.39
6225.00,1.40
6224.00,1.40
6223.00,1.41
6222.00,1.41
6221.00,1.41
6220.00,1.42
6219.00,1.42
6218.00,1.43
6217.00,1.43
6216.00,1.43
6215.00,1.44
6214.00,1.44
6213.00,1.44
6212.00,1.44
6211.00,1.45
6210.00,1.45
6209.00,1.45
6208.00,1.45
6207.00,1.45
6206.00,1.45
6205.00,1.45
6204.00,1.45
6203.00,1.45
6202.00,1.45
6201.00,1.45
6200.00,1.45
6199.00,1.45
6198.00,1.45
6197.00,1.45
6196.00,1.45
6195.00,1.45
6194.00,1.45
6193.00,1.45
6192.00,1.44
6191.00,1.44
6190.00,1.44
6189.00,1.44
6188.00,1.44
6187.00,1.44
6186.00,1.44
6185.00,1.44
6184.00,1.44
6183.00,1.44
6182.00,1.44
6181.00,1.44
6180.00,1.44
6179.00,1.44
6178.00,1.45
6177.00,1.45
6176.00,1.45
6175.00,1.45
6174.00,1.45
6173.00,1.45
6172.00,1.45
6171.00,1.45
6170.00,1.45
6169.00,1.45
6168.00,1.45
6167.00,1.45
6166.00,1.45
6165.00,1.46
6164.00,1.46
6163.00,1.46
6162.00,1.46
6161.00,1.46
6160.00,1.46
6159.00,1.46
6158.00,1.47
6157.00,1.47
6156.00,1.47
6155.00,1.47
6154.00,1.47
6153.00,1.47
6152.00,1.48
6151.00,1.48
6150.00,1.48
6149.00,1.48
6148.00,1.48
6147.00,1.48
6146.00,1.49
6145.00,1.49
6144.00,1.49
6143.00,1.49
6142.00,1.50
6141.00,1.50
6140.00,1.50
6139.00,1.50
6138.00,1.51
6137.00,1.51
6136.00,1.51
6135.00,1.52
6134.00,1.52
6133.00,1.52
6132.00,1.52
6131.00,1.53
6130.00,1.53
6129.00,1.53
6128.00,1.53
6127.00,1.53
6126.00,1.53
6125.00,1.54
6124.00,1.54
6123.00,1.54
6122.00,1.55
6121.00,1.55
6120.00,1.55
6119.00,1.55
6118.00,1.56
6117.00,1.56
6116.00,1.56
6115.00,1.56
6114.00,1.56
6113.00,1.57
6112.00,1.57
6111.00,1.57
6110.00,1.57
6109.00,1.57
6108.00,1.57
6107.00,1.57
6106.00,1.57
6105.00,1.57
6104.00,1.57
6103.00,1.57
6102.00,1.57
6101.00,1.57
6100.00,1.57
6099.00,1.58
6098.00,1.58
6097.00,1.57
6096.00,1.57
6095.00,1.57
6094.00,1.57
6093.00,1.57
6092.00,1.57
6091.00,1.57
6090.00,1.57
6089.00,1.57
6088.00,1.57
6087.00,1.57
6086.00,1.57
6085.00,1.57
6084.00,1.58
6083.00,1.58
6082.00,1.58
6081.00,1.58
6080.00,1.58
6079.00,1.58
6078.00,1.59
6077.00,1.59
6076.00,1.59
6075.00,1.59
6074.00,1.60
6073.00,1.60
6072.00,1.60
6071.00,1.60
6070.00,1.61
6069.00,1.61
6068.00,1.61
6067.00,1.61
6066.00,1.62
6065.00,1.62
6064.00,1.62
6063.00,1.62
6062.00,1.63
6061.00,1.63
6060.00,1.63
6059.00,1.63
6058.00,1.64
6057.00,1.64
6056.00,1.64
6055.00,1.64
6054.00,1.64
6053.00,1.65
6052.00,1.65
6051.00,1.65
6050.00,1.65
6049.00,1.65
6048.00,1.66
6047.00,1.66
6046.00,1.66
6045.00,1.66
6044.00,1.66
6043.00,1.67
6042.00,1.67
6041.00,1.67
6040.00,1.67
6039.00,1.67
6038.00,1.67
6037.00,1.68
6036.00,1.68
6035.00,1.68
6034.00,1.68
6033.00,1.68
6032.00,1.68
6031.00,1.69
6030.00,1.69
6029.00,1.69
6028.00,1.69
6027.00,1.69
6026.00,1.69
6025.00,1.69
6024.00,1.69
6023.00,1.69
6022.00,1.69
6021.00,1.69
6020.00,1.69
6019.00,1.69
6018.00,1.69
6017.00,1.69
6016.00,1.69
6015.00,1.69
6014.00,1.69
6013.00,1.69
6012.00,1.69
6011.00,1.69
6010.00,1.69
6009.00,1.69
6008.00,1.69
6007.00,1.69
6006.00,1.69
6005.00,1.68
6004.00,1.68
6003.00,1.68
6002.00,1.68
6001.00,1.68
6000.00,1.68
5999.00,1.68
5998.00,1.68
5997.00,1.68
5996.00,1.68
5995.00,1.67
5994.00,1.67
5993.00,1.67
5992.00,1.67
5991.00,1.67
5990.00,1.66
5989.00,1.66
5988.00,1.66
5987.00,1.66
5986.00,1.65
5985.00,1.65
5984.00,1.65
5983.00,1.64
5982.00,1.64
5981.00,1.64
5980.00,1.63
5979.00,1.63
5978.00,1.63
5977.00,1.62
5976.00,1.62
5975.00,1.62
5974.00,1.61
5973.00,1.61
5972.00,1.60
5971.00,1.60
5970.00,1.59
5969.00,1.59
5968.00,1.58
5967.00,1.58
5966.00,1.58
5965.00,1.57
5964.00,1.57
5963.00,1.56
5962.00,1.56
5961.00,1.55
5960.00,1.55
5959.00,1.55
5958.00,1.54
5957.00,1.54
5956.00,1.53
5955.00,1.53
5954.00,1.53
5953.00,1.52
5952.00,1.52
5951.00,1.52
5950.00,1.51
5949.00,1.51
5948.00,1.51
5947.00,1.50
5946.00,1.50
5945.00,1.50
5944.00,1.49
5943.00,1.49
5942.00,1.49
5941.00,1.49
5940.00,1.48
5939.00,1.48
5938.00,1.48
5937.00,1.48
5936.00,1.47
5935.00,1.47
5934.00,1.47
5933.00,1.47
5932.00,1.47
5931.00,1.47
5930.00,1.46
5929.00,1.46
5928.00,1.46
5927.00,1.46
5926.00,1.46
5925.00,1.46
5924.00,1.46
5923.00,1.45
5922.00,1.45
5921.00,1.45
5920.00,1.45
5919.00,1.45
5918.00,1.45
5917.00,1.45
5916.00,1.45
5915.00,1.45
5914.00,1.44
5913.00,1.44
5912.00,1.44
5911.00,1.44
5910.00,1.44
5909.00,1.44
5908.00,1.44
5907.00,1.44
5906.00,1.44
5905.00,1.44
5904.00,1.44
5903.00,1.44
5902.00,1.44
5901.00,1.44
5900.00,1.44
5899.00,1.44
5898.00,1.44
5897.00,1.44
5896.00,1.44
5895.00,1.44
5894.00,1.44
5893.00,1.44
5892.00,1.44
5891.00,1.44
5890.00,1.44
5889.00,1.45
5888.00,1.45
5887.00,1.45
5886.00,1.45
5885.00,1.45
5884.00,1.45
5883.00,1.45
5882.00,1.46
5881.00,1.46
5880.00,1.46
5879.00,1.46
5878.00,1.46
5877.00,1.47
5876.00,1.47
5875.00,1.47
5874.00,1.48
5873.00,1.48
5872.00,1.48
5871.00,1.48
5870.00,1.48
5869.00,1.49
5868.00,1.49
5867.00,1.49
5866.00,1.50
5865.00,1.50
5864.00,1.50
5863.00,1.51
5862.00,1.51
5861.00,1.51
5860.00,1.52
5859.00,1.52
5858.00,1.52
5857.00,1.52
5856.00,1.53
5855.00,1.53
5854.00,1.53
5853.00,1.53
5852.00,1.53
5851.00,1.53
5850.00,1.53
5849.00,1.53
5848.00,1.53
5847.00,1.53
5846.00,1.53
5845.00,1.53
5844.00,1.53
5843.00,1.53
5842.00,1.53
5841.00,1.53
5840.00,1.53
5839.00,1.53
5838.00,1.53
5837.00,1.53
5836.00,1.53
5835.00,1.53
5834.00,1.53
5833.00,1.53
5832.00,1.53
5831.00,1.53
5830.00,1.53
5829.00,1.53
5828.00,1.53
5827.00,1.53
5826.00,1.53
5825.00,1.53
5824.00,1.53
5823.00,1.53
5822.00,1.53
5821.00,1.53
5820.00,1.53
5819.00,1.53
5818.00,1.53
5817.00,1.52
5816.00,1.52
5815.00,1.52
5814.00,1.52
5813.00,1.52
5812.00,1.52
5811.00,1.52
5810.00,1.52
5809.00,1.52
5808.00,1.52
5807.00,1.51
5806.00,1.51
5805.00,1.51
5804.00,1.51
5803.00,1.51
5802.00,1.51
5801.00,1.51
5800.00,1.51
5799.00,1.51
5798.00,1.51
5797.00,1.51
5796.00,1.51
5795.00,1.50
5794.00,1.50
5793.00,1.50
5792.00,1.50
5791.00,1.50
5790.00,1.50
5789.00,1.50
5788.00,1.50
5787.00,1.50
5786.00,1.50
5785.00,1.49
5784.00,1.49
5783.00,1.49
5782.00,1.49
5781.00,1.49
5780.00,1.49
5779.00,1.49
5778.00,1.49
5777.00,1.49
5776.00,1.49
5775.00,1.49
5774.00,1.49
5773.00,1.49
5772.00,1.49
5771.00,1.49
5770.00,1.49
5769.00,1.49
5768.00,1.49
5767.00,1.49
5766.00,1.49
5765.00,1.49
5764.00,1.50
5763.00,1.50
5762.00,1.50
5761.00,1.50
5760.00,1.50
5759.00,1.51
5758.00,1.51
5757.00,1.51
5756.00,1.51
5755.00,1.52
5754.00,1.52
5753.00,1.52
5752.00,1.53
5751.00,1.53
5750.00,1.53
5749.00,1.53
5748.00,1.54
5747.00,1.54
5746.00,1.54
5745.00,1.54
5744.00,1.55
5743.00,1.55
5742.00,1.55
5741.00,1.55
5740.00,1.56
5739.00,1.56
5738.00,1.56
5737.00,1.56
5736.00,1.56
5735.00,1.56
5734.00,1.56
5733.00,1.56
5732.00,1.57
5731.00,1.57
5730.00,1.57
5729.00,1.57
5728.00,1.57
5727.00,1.57
5726.00,1.57
5725.00,1.57
5724.00,1.57
5723.00,1.57
5722.00,1.57
5721.00,1.57
5720.00,1.57
5719.00,1.57
5718.00,1.56
5717.00,1.56
5716.00,1.56
5715.00,1.56
5714.00,1.56
5713.00,1.56
5712.00,1.56
5711.00,1.56
5710.00,1.56
5709.00,1.56
5708.00,1.56
5707.00,1.55
5706.00,1.55
5705.00,1.55
5704.00,1.55
5703.00,1.55
5702.00,1.54
5701.00,1.54
5700.00,1.54
5699.00,1.53
5698.00,1.53
5697.00,1.53
5696.00,1.53
5695.00,1.52
5694.00,1.52
5693.00,1.52
5692.00,1.52
5691.00,1.51
5690.00,1.51
5689.00,1.51
5688.00,1.51
5687.00,1.50
5686.00,1.50
5685.00,1.50
5684.00,1.50
5683.00,1.49
5682.00,1.49
5681.00,1.49
5680.00,1.49
5679.00,1.48
5678.00,1.48
5677.00,1.48
5676.00,1.48
5675.00,1.48
5674.00,1.48
5673.00,1.48
5672.00,1.48
5671.00,1.48
5670.00,1.48
5669.00,1.48
5668.00,1.48
5667.00,1.48
5666.00,1.48
5665.00,1.48
5664.00,1.48
5663.00,1.48
5662.00,1.48
5661.00,1.48
5660.00,1.48
5659.00,1.48
5658.00,1.49
5657.00,1.49
5656.00,1.49
5655.00,1.49
5654.00,1.49
5653.00,1.50
5652.00,1.50
5651.00,1.50
5650.00,1.51
5649.00,1.51
5648.00,1.51
5647.00,1.52
5646.00,1.52
5645.00,1.52
5644.00,1.53
5643.00,1.53
5642.00,1.53
5641.00,1.53
5640.00,1.54
5639.00,1.54
5638.00,1.54
5637.00,1.54
5636.00,1.54
5635.00,1.54
5634.00,1.55
5633.00,1.55
5632.00,1.55
5631.00,1.55
5630.00,1.55
5629.00,1.55
5628.00,1.55
5627.00,1.56
5626.00,1.56
5625.00,1.56
5624.00,1.56
5623.00,1.56
5622.00,1.56
5621.00,1.56
5620.00,1.56
5619.00,1.56
5618.00,1.56
5617.00,1.56
5616.00,1.56
5615.00,1.56
5614.00,1.56
5613.00,1.56
5612.00,1.56
5611.00,1.56
5610.00,1.56
5609.00,1.56
5608.00,1.56
5607.00,1.57
5606.00,1.57
5605.00,1.57
5604.00,1.57
5603.00,1.57
5602.00,1.57
5601.00,1.57
5600.00,1.57
5599.00,1.57
5598.00,1.58
5597.00,1.58
5596.00,1.58
5595.00,1.58
5594.00,1.59
5593.00,1.59
5592.00,1.59
5591.00,1.59
5590.00,1.60
5589.00,1.60
5588.00,1.60
5587.00,1.60
5586.00,1.60
5585.00,1.61
5584.00,1.61
5583.00,1.61
5582.00,1.61
5581.00,1.61
5580.00,1.61
5579.00,1.61
5578.00,1.62
5577.00,1.62
5576.00,1.62
5575.00,1.62
5574.00,1.62
5573.00,1.62
5572.00,1.63
5571.00,1.63
5570.00,1.63
5569.00,1.63
5568.00,1.63
5567.00,1.63
5566.00,1.63
5565.00,1.63
5564.00,1.63
5563.00,1.63
5562.00,1.63
5561.00,1.63
5560.00,1.63
5559.00,1.63
5558.00,1.63
5557.00,1.63
5556.00,1.64
5555.00,1.64
5554.00,1.64
5553.00,1.64
5552.00,1.64
5551.00,1.64
5550.00,1.65
5549.00,1.65
5548.00,1.65
5547.00,1.65
5546.00,1.66
5545.00,1.66
5544.00,1.66
5543.00,1.66
5542.00,1.66
5541.00,1.67
5540.00,1.67
5539.00,1.67
5538.00,1.68
5537.00,1.68
5536.00,1.68
5535.00,1.69
5534.00,1.69
5533.00,1.69
5532.00,1.70
5531.00,1.70
5530.00,1.70
5529.00,1.70
5528.00,1.71
5527.00,1.71
5526.00,1.71
5525.00,1.71
5524.00,1.71
5523.00,1.71
5522.00,1.72
5521.00,1.72
5520.00,1.72
5519.00,1.72
5518.00,1.72
5517.00,1.72
5516.00,1.73
5515.00,1.73
5514.00,1.73
5513.00,1.73
5512.00,1.73
5511.00,1.73
5510.00,1.73
5509.00,1.73
5508.00,1.73
5507.00,1.73
5506.00,1.73
5505.00,1.73
5504.00,1.73
5503.00,1.73
5502.00,1.73
5501.00,1.73
5500.00,1.73
5499.00,1.74
5498.00,1.74
5497.00,1.74
5496.00,1.74
5495.00,1.74
5494.00,1.74
5493.00,1.74
5492.00,1.74
5491.00,1.74
5490.00,1.74
5489.00,1.74
5488.00,1.74
5487.00,1.74
5486.00,1.74
5485.00,1.74
5484.00,1.74
5483.00,1.73
5482.00,1.73
5481.00,1.73
5480.00,1.73
5479.00,1.73
5478.00,1.73
5477.00,1.73
5476.00,1.73
5475.00,1.73
5474.00,1.73
5473.00,1.73
5472.00,1.73
5471.00,1.73
5470.00,1.73
5469.00,1.73
5468.00,1.73
5467.00,1.73
5466.00,1.73
5465.00,1.73
5464.00,1.73
5463.00,1.73
5462.00,1.73
5461.00,1.73
5460.00,1.73
5459.00,1.72
5458.00,1.72
5457.00,1.72
5456.00,1.72
5455.00,1.72
5454.00,1.72
5453.00,1.72
5452.00,1.72
5451.00,1.72
5450.00,1.72
5449.00,1.72
5448.00,1.72
5447.00,1.72
5446.00,1.72
5445.00,1.72
5444.00,1.72
5443.00,1.72
5442.00,1.72
5441.00,1.72
5440.00,1.72
5439.00,1.71
5438.00,1.71
5437.00,1.71
5436.00,1.71
5435.00,1.71
5434.00,1.71
5433.00,1.71
5432.00,1.71
5431.00,1.71
5430.00,1.71
5429.00,1.71
5428.00,1.71
5427.00,1.71
5426.00,1.71
5425.00,1.71
5424.00,1.71
5423.00,1.71
5422.00,1.71
5421.00,1.71
5420.00,1.71
5419.00,1.71
5418.00,1.71
5417.00,1.71
5416.00,1.71
5415.00,1.70
5414.00,1.70
5413.00,1.70
5412.00,1.70
5411.00,1.70
5410.00,1.70
5409.00,1.70
5408.00,1.70
5407.00,1.70
5406.00,1.70
5405.00,1.69
5404.00,1.69
5403.00,1.69
5402.00,1.69
5401.00,1.69
5400.00,1.68
5399.00,1.68
5398.00,1.68
5397.00,1.68
5396.00,1.67
5395.00,1.67
5394.00,1.67
5393.00,1.66
5392.00,1.66
5391.00,1.65
5390.00,1.65
5389.00,1.65
5388.00,1.64
5387.00,1.64
5386.00,1.64
5385.00,1.63
5384.00,1.63
5383.00,1.62
5382.00,1.62
5381.00,1.62
5380.00,1.61
5379.00,1.61
5378.00,1.60
5377.00,1.60
5376.00,1.59
5375.00,1.58
5374.00,1.58
5373.00,1.57
5372.00,1.57
5371.00,1.56
5370.00,1.56
5369.00,1.55
5368.00,1.54
5367.00,1.53
5366.00,1.53
5365.00,1.52
5364.00,1.51
5363.00,1.50
5362.00,1.49
5361.00,1.49
5360.00,1.48
5359.00,1.47
5358.00,1.46
5357.00,1.45
5356.00,1.44
5355.00,1.43
5354.00,1.42
5353.00,1.41
5352.00,1.40
5351.00,1.39
5350.00,1.37
5349.00,1.36
5348.00,1.35
5347.00,1.34
5346.00,1.33
5345.00,1.32
5344.00,1.30
5343.00,1.29
5342.00,1.28
5341.00,1.27
5340.00,1.26
5339.00,1.25
5338.00,1.24
5337.00,1.22
5336.00,1.21
5335.00,1.20
5334.00,1.19
5333.00,1.18
5332.00,1.17
5331.00,1.16
5330.00,1.15
5329.00,1.13
5328.00,1.12
5327.00,1.11
5326.00,1.10
5325.00,1.09
5324.00,1.08
5323.00,1.08
5322.00,1.07
5321.00,1.06
5320.00,1.05
5319.00,1.04
5318.00,1.03
5317.00,1.02
5316.00,1.01
5315.00,1.01
5314.00,1.00
5313.00,0.99
5312.00,0.98
5311.00,0.98
5310.00,0.97
5309.00,0.96
5308.00,0.96
5307.00,0.95
5306.00,0.94
5305.00,0.94
5304.00,0.93
5303.00,0.92
5302.00,0.92
5301.00,0.91
5300.00,0.91
5299.00,0.90
5298.00,0.90
5297.00,0.89
5296.00,0.89
5295.00,0.88
5294.00,0.88
5293.00,0.87
5292.00,0.87
5291.00,0.87
5290.00,0.87
5289.00,0.86
5288.00,0.86
5287.00,0.86
5286.00,0.86
5285.00,0.86
5284.00,0.85
5283.00,0.85
5282.00,0.85
5281.00,0.85
5280.00,0.85
5279.00,0.85
5278.00,0.85
5277.00,0.85
5276.00,0.85
5275.00,0.85
5274.00,0.85
5273.00,0.86
5272.00,0.86
5271.00,0.86
5270.00,0.86
5269.00,0.86
5268.00,0.86
5267.00,0.86
5266.00,0.86
5265.00,0.86
5264.00,0.86
5263.00,0.86
5262.00,0.86
5261.00,0.86
5260.00,0.86
5259.00,0.86
5258.00,0.86
5257.00,0.86
5256.00,0.85
5255.00,0.85
5254.00,0.85
5253.00,0.85
5252.00,0.85
5251.00,0.85
5250.00,0.85
5249.00,0.85
5248.00,0.85
5247.00,0.85
5246.00,0.85
5245.00,0.85
5244.00,0.85
5243.00,0.85
5242.00,0.85
5241.00,0.85
5240.00,0.85
5239.00,0.85
5238.00,0.85
5237.00,0.85
5236.00,0.85
5235.00,0.85
5234.00,0.85
5233.00,0.86
5232.00,0.86
5231.00,0.86
5230.00,0.86
5229.00,0.86
5228.00,0.86
5227.00,0.86
5226.00,0.86
5225.00,0.86
5224.00,0.86
5223.00,0.86
5222.00,0.86
5221.00,0.86
5220.00,0.86
5219.00,0.86
5218.00,0.86
5217.00,0.86
5216.00,0.86
5215.00,0.86
5214.00,0.86
5213.00,0.86
5212.00,0.86
5211.00,0.86
5210.00,0.86
5209.00,0.86
5208.00,0.86
5207.00,0.86
5206.00,0.86
5205.00,0.86
5204.00,0.86
5203.00,0.86
5202.00,0.86
5201.00,0.86
5200.00,0.86
5199.00,0.86
5198.00,0.86
5197.00,0.87
5196.00,0.87
5195.00,0.87
5194.00,0.87
5193.00,0.87
5192.00,0.88
5191.00,0.88
5190.00,0.88
5189.00,0.88
5188.00,0.88
5187.00,0.88
5186.00,0.88
5185.00,0.89
5184.00,0.89
5183.00,0.89
5182.00,0.89
5181.00,0.89
5180.00,0.89
5179.00,0.90
5178.00,0.90
5177.00,0.90
5176.00,0.90
5175.00,0.90
5174.00,0.90
5173.00,0.90
5172.00,0.90
5171.00,0.90
5170.00,0.90
5169.00,0.90
5168.00,0.90
5167.00,0.90
5166.00,0.90
5165.00,0.90
5164.00,0.90
5163.00,0.90
5162.00,0.90
5161.00,0.90
5160.00,0.90
5159.00,0.90
5158.00,0.90
5157.00,0.90
5156.00,0.90
5155.00,0.90
5154.00,0.90
5153.00,0.90
5152.00,0.90
5151.00,0.90
5150.00,0.90
5149.00,0.90
5148.00,0.90
5147.00,0.90
5146.00,0.90
5145.00,0.90
5144.00,0.90
5143.00,0.90
5142.00,0.91
5141.00,0.91
5140.00,0.91
5139.00,0.91
5138.00,0.91
5137.00,0.91
5136.00,0.91
5135.00,0.91
5134.00,0.91
5133.00,0.91
5132.00,0.91
5131.00,0.91
5130.00,0.91
5129.00,0.91
5128.00,0.91
5127.00,0.91
5126.00,0.91
5125.00,0.91
5124.00,0.91
5123.00,0.91
5122.00,0.91
5121.00,0.91
5120.00,0.92
5119.00,0.92
5118.00,0.92
5117.00,0.92
5116.00,0.93
5115.00,0.93
5114.00,0.93
5113.00,0.94
5112.00,0.94
5111.00,0.94
5110.00,0.94
5109.00,0.95
5108.00,0.95
5107.00,0.95
5106.00,0.95
5105.00,0.96
5104.00,0.96
5103.00,0.96
5102.00,0.96
5101.00,0.96
5100.00,0.96
5099.00,0.97
5098.00,0.97
5097.00,0.97
5096.00,0.97
5095.00,0.97
5094.00,0.97
5093.00,0.97
5092.00,0.97
5091.00,0.97
5090.00,0.96
5089.00,0.96
5088.00,0.96
5087.00,0.96
5086.00,0.96
5085.00,0.96
5084.00,0.95
5083.00,0.95
5082.00,0.95
5081.00,0.95
5080.00,0.95
5079.00,0.95
5078.00,0.95
5077.00,0.95
5076.00,0.94
5075.00,0.94
5074.00,0.94
5073.00,0.94
5072.00,0.94
5071.00,0.94
5070.00,0.94
5069.00,0.94
5068.00,0.94
5067.00,0.94
5066.00,0.94
5065.00,0.94
5064.00,0.94
5063.00,0.94
5062.00,0.94
5061.00,0.94
5060.00,0.95
5059.00,0.95
5058.00,0.95
5057.00,0.95
5056.00,0.95
5055.00,0.95
5054.00,0.95
5053.00,0.95
5052.00,0.95
5051.00,0.96
5050.00,0.96
5049.00,0.96
5048.00,0.96
5047.00,0.96
5046.00,0.96
5045.00,0.96
5044.00,0.96
5043.00,0.97
5042.00,0.97
5041.00,0.97
5040.00,0.97
5039.00,0.97
5038.00,0.97
5037.00,0.97
5036.00,0.98
5035.00,0.98
5034.00,0.98
5033.00,0.98
5032.00,0.98
5031.00,0.98
5030.00,0.98
5029.00,0.99
5028.00,0.99
5027.00,0.99
5026.00,0.99
5025.00,0.99
5024.00,0.99
5023.00,0.99
5022.00,0.99
5021.00,0.99
5020.00,0.99
5019.00,1.00
5018.00,1.00
5017.00,1.00
5016.00,1.00
5015.00,0.99
5014.00,0.99
5013.00,0.99
5012.00,0.99
5011.00,0.99
5010.00,0.99
5009.00,0.99
5008.00,0.99
5007.00,0.99
5006.00,0.99
5005.00,0.99
5004.00,0.99
5003.00,0.99
5002.00,0.99
5001.00,0.99
5000.00,0.98
4999.00,0.98
4998.00,0.98
4997.00,0.98
4996.00,0.98
4995.00,0.98
4994.00,0.98
4993.00,0.98
4992.00,0.98
4991.00,0.99
4990.00,0.99
4989.00,0.99
4988.00,0.99
4987.00,0.99
4986.00,1.00
4985.00,1.00
4984.00,1.00
4983.00,1.00
4982.00,1.00
4981.00,1.01
4980.00,1.01
4979.00,1.01
4978.00,1.01
4977.00,1.01
4976.00,1.02
4975.00,1.02
4974.00,1.02
4973.00,1.02
4972.00,1.02
4971.00,1.03
4970.00,1.03
4969.00,1.03
4968.00,1.03
4967.00,1.03
4966.00,1.03
4965.00,1.03
4964.00,1.03
4963.00,1.02
4962.00,1.02
4961.00,1.02
4960.00,1.02
4959.00,1.02
4958.00,1.02
4957.00,1.02
4956.00,1.02
4955.00,1.01
4954.00,1.01
4953.00,1.01
4952.00,1.01
4951.00,1.01
4950.00,1.01
4949.00,1.01
4948.00,1.01
4947.00,1.01
4946.00,1.01
4945.00,1.01
4944.00,1.01
4943.00,1.01
4942.00,1.01
4941.00,1.01
4940.00,1.01
4939.00,1.02
4938.00,1.02
4937.00,1.02
4936.00,1.02
4935.00,1.03
4934.00,1.03
4933.00,1.03
4932.00,1.03
4931.00,1.03
4930.00,1.04
4929.00,1.04
4928.00,1.04
4927.00,1.04
4926.00,1.04
4925.00,1.04
4924.00,1.04
4923.00,1.05
4922.00,1.05
4921.00,1.05
4920.00,1.05
4919.00,1.05
4918.00,1.05
4917.00,1.05
4916.00,1.05
4915.00,1.05
4914.00,1.05
4913.00,1.05
4912.00,1.04
4911.00,1.04
4910.00,1.05
4909.00,1.05
4908.00,1.05
4907.00,1.05
4906.00,1.05
4905.00,1.05
4904.00,1.05
4903.00,1.05
4902.00,1.05
4901.00,1.05
4900.00,1.05
4899.00,1.06
4898.00,1.06
4897.00,1.06
4896.00,1.06
4895.00,1.06
4894.00,1.07
4893.00,1.07
4892.00,1.07
4891.00,1.07
4890.00,1.08
4889.00,1.08
4888.00,1.08
4887.00,1.08
4886.00,1.08
4885.00,1.08
4884.00,1.09
4883.00,1.09
4882.00,1.09
4881.00,1.09
4880.00,1.09
4879.00,1.08
4878.00,1.08
4877.00,1.08
4876.00,1.08
4875.00,1.08
4874.00,1.08
4873.00,1.08
4872.00,1.08
4871.00,1.08
4870.00,1.08
4869.00,1.09
4868.00,1.09
4867.00,1.09
4866.00,1.09
4865.00,1.09
4864.00,1.09
4863.00,1.09
4862.00,1.09
4861.00,1.09
4860.00,1.09
4859.00,1.09
4858.00,1.10
4857.00,1.10
4856.00,1.10
4855.00,1.10
4854.00,1.10
4853.00,1.10
4852.00,1.10
4851.00,1.11
4850.00,1.11
4849.00,1.11
4848.00,1.11
4847.00,1.11
4846.00,1.11
4845.00,1.11
4844.00,1.11
4843.00,1.11
4842.00,1.11
4841.00,1.10
4840.00,1.10
4839.00,1.10
4838.00,1.10
4837.00,1.10
4836.00,1.09
4835.00,1.09
4834.00,1.09
4833.00,1.09
4832.00,1.09
4831.00,1.09
4830.00,1.09
4829.00,1.08
4828.00,1.08
4827.00,1.08
4826.00,1.08
4825.00,1.08
4824.00,1.08
4823.00,1.08
4822.00,1.08
4821.00,1.08
4820.00,1.08
4819.00,1.08
4818.00,1.08
4817.00,1.08
4816.00,1.08
4815.00,1.08
4814.00,1.09
4813.00,1.09
4812.00,1.09
4811.00,1.09
4810.00,1.09
4809.00,1.10
4808.00,1.10
4807.00,1.10
4806.00,1.10
4805.00,1.10
4804.00,1.10
4803.00,1.11
4802.00,1.11
4801.00,1.11
4800.00,1.11
4799.00,1.11
4798.00,1.11
4797.00,1.11
4796.00,1.12
4795.00,1.12
4794.00,1.12
4793.00,1.12
4792.00,1.12
4791.00,1.12
4790.00,1.12
4789.00,1.12
4788.00,1.12
4787.00,1.12
4786.00,1.12
4785.00,1.12
4784.00,1.12
4783.00,1.12
4782.00,1.12
4781.00,1.12
4780.00,1.13
4779.00,1.13
4778.00,1.13
4777.00,1.13
4776.00,1.13
4775.00,1.13
4774.00,1.14
4773.00,1.14
4772.00,1.14
4771.00,1.15
4770.00,1.15
4769.00,1.16
4768.00,1.16
4767.00,1.16
4766.00,1.17
4765.00,1.17
4764.00,1.18
4763.00,1.19
4762.00,1.19
4761.00,1.20
4760.00,1.20
4759.00,1.21
4758.00,1.21
4757.00,1.22
4756.00,1.23
4755.00,1.23
4754.00,1.24
4753.00,1.24
4752.00,1.25
4751.00,1.25
4750.00,1.25
4749.00,1.25
4748.00,1.26
4747.00,1.26
4746.00,1.26
4745.00,1.26
4744.00,1.26
4743.00,1.26
4742.00,1.26
4741.00,1.26
4740.00,1.26
4739.00,1.26
4738.00,1.26
4737.00,1.26
4736.00,1.26
4735.00,1.26
4734.00,1.26
4733.00,1.26
4732.00,1.26
4731.00,1.25
4730.00,1.25
4729.00,1.25
4728.00,1.25
4727.00,1.25
4726.00,1.25
4725.00,1.25
4724.00,1.25
4723.00,1.25
4722.00,1.25
4721.00,1.26
4720.00,1.26
4719.00,1.26
4718.00,1.26
4717.00,1.26
4716.00,1.26
4715.00,1.26
4714.00,1.26
4713.00,1.26
4712.00,1.26
4711.00,1.26
4710.00,1.26
4709.00,1.26
4708.00,1.26
4707.00,1.26
4706.00,1.26
4705.00,1.26
4704.00,1.26
4703.00,1.26
4702.00,1.26
4701.00,1.26
4700.00,1.26
4699.00,1.26
4698.00,1.26
4697.00,1.26
4696.00,1.25
4695.00,1.25
4694.00,1.26
4693.00,1.26
4692.00,1.26
4691.00,1.26
4690.00,1.26
4689.00,1.26
4688.00,1.26
4687.00,1.27
4686.00,1.27
4685.00,1.27
4684.00,1.27
4683.00,1.28
4682.00,1.28
4681.00,1.28
4680.00,1.29
4679.00,1.29
4678.00,1.30
4677.00,1.30
4676.00,1.31
4675.00,1.31
4674.00,1.32
4673.00,1.32
4672.00,1.33
4671.00,1.33
4670.00,1.34
4669.00,1.34
4668.00,1.35
4667.00,1.35
4666.00,1.36
4665.00,1.36
4664.00,1.36
4663.00,1.37
4662.00,1.37
4661.00,1.38
4660.00,1.38
4659.00,1.38
4658.00,1.39
4657.00,1.39
4656.00,1.39
4655.00,1.39
4654.00,1.39
4653.00,1.39
4652.00,1.39
4651.00,1.39
4650.00,1.39
4649.00,1.39
4648.00,1.39
4647.00,1.39
4646.00,1.39
4645.00,1.40
4644.00,1.40
4643.00,1.40
4642.00,1.40
4641.00,1.40
4640.00,1.40
4639.00,1.40
4638.00,1.40
4637.00,1.40
4636.00,1.40
4635.00,1.40
4634.00,1.40
4633.00,1.40
4632.00,1.41
4631.00,1.41
4630.00,1.41
4629.00,1.41
4628.00,1.41
4627.00,1.41
4626.00,1.42
4625.00,1.42
4624.00,1.42
4623.00,1.42
4622.00,1.43
4621.00,1.43
4620.00,1.43
4619.00,1.43
4618.00,1.43
4617.00,1.43
4616.00,1.44
4615.00,1.44
4614.00,1.44
4613.00,1.44
4612.00,1.44
4611.00,1.44
4610.00,1.44
4609.00,1.44
4608.00,1.44
4607.00,1.44
4606.00,1.44
4605.00,1.44
4604.00,1.44
4603.00,1.44
4602.00,1.44
4601.00,1.44
4600.00,1.44
4599.00,1.44
4598.00,1.44
4597.00,1.44
4596.00,1.44
4595.00,1.44
4594.00,1.44
4593.00,1.43
4592.00,1.43
4591.00,1.43
4590.00,1.43
4589.00,1.43
4588.00,1.43
4587.00,1.43
4586.00,1.43
4585.00,1.43
4584.00,1.44
4583.00,1.44
4582.00,1.44
4581.00,1.44
4580.00,1.44
4579.00,1.44
4578.00,1.44
4577.00,1.44
4576.00,1.45
4575.00,1.45
4574.00,1.45
4573.00,1.45
4572.00,1.45
4571.00,1.46
4570.00,1.46
4569.00,1.46
4568.00,1.47
4567.00,1.47
4566.00,1.47
4565.00,1.48
4564.00,1.48
4563.00,1.48
4562.00,1.48
4561.00,1.49
4560.00,1.49
4559.00,1.49
4558.00,1.49
4557.00,1.49
4556.00,1.49
4555.00,1.49
4554.00,1.49
4553.00,1.49
4552.00,1.49
4551.00,1.49
4550.00,1.49
4549.00,1.49
4548.00,1.48
4547.00,1.48
4546.00,1.48
4545.00,1.48
4544.00,1.48
4543.00,1.48
4542.00,1.48
4541.00,1.47
4540.00,1.47
4539.00,1.47
4538.00,1.47
4537.00,1.47
4536.00,1.47
4535.00,1.47
4534.00,1.47
4533.00,1.47
4532.00,1.47
4531.00,1.47
4530.00,1.47
4529.00,1.47
4528.00,1.47
4527.00,1.47
4526.00,1.47
4525.00,1.47
4524.00,1.47
4523.00,1.47
4522.00,1.48
4521.00,1.48
4520.00,1.48
4519.00,1.48
4518.00,1.49
4517.00,1.49
4516.00,1.49
4515.00,1.49
4514.00,1.49
4513.00,1.50
4512.00,1.50
4511.00,1.50
4510.00,1.50
4509.00,1.50
4508.00,1.50
4507.00,1.51
4506.00,1.51
4505.00,1.51
4504.00,1.51
4503.00,1.51
4502.00,1.51
4501.00,1.51
4500.00,1.51
4499.00,1.51
4498.00,1.51
4497.00,1.51
4496.00,1.51
4495.00,1.51
4494.00,1.51
4493.00,1.51
4492.00,1.51
4491.00,1.50
4490.00,1.50
4489.00,1.50
4488.00,1.50
4487.00,1.49
4486.00,1.49
4485.00,1.49
4484.00,1.49
4483.00,1.48
4482.00,1.48
4481.00,1.47
4480.00,1.47
4479.00,1.47
4478.00,1.47
4477.00,1.46
4476.00,1.46
4475.00,1.46
4474.00,1.46
4473.00,1.45
4472.00,1.45
4471.00,1.45
4470.00,1.45
4469.00,1.45
4468.00,1.45
4467.00,1.44
4466.00,1.44
4465.00,1.44
4464.00,1.44
4463.00,1.44
4462.00,1.44
4461.00,1.44
4460.00,1.44
4459.00,1.44
4458.00,1.44
4457.00,1.45
4456.00,1.45
4455.00,1.45
4454.00,1.45
4453.00,1.45
4452.00,1.45
4451.00,1.45
4450.00,1.44
4449.00,1.44
4448.00,1.44
4447.00,1.44
4446.00,1.44
4445.00,1.44
4444.00,1.43
4443.00,1.43
4442.00,1.43
4441.00,1.43
4440.00,1.42
4439.00,1.42
4438.00,1.41
4437.00,1.41
4436.00,1.41
4435.00,1.40
4434.00,1.40
4433.00,1.39
4432.00,1.39
4431.00,1.38
4430.00,1.38
4429.00,1.37
4428.00,1.37
4427.00,1.36
4426.00,1.36
4425.00,1.35
4424.00,1.35
4423.00,1.34
4422.00,1.34
4421.00,1.34
4420.00,1.33
4419.00,1.33
4418.00,1.32
4417.00,1.32
4416.00,1.32
4415.00,1.32
4414.00,1.31
4413.00,1.31
4412.00,1.31
4411.00,1.31
4410.00,1.31
4409.00,1.31
4408.00,1.31
4407.00,1.30
4406.00,1.30
4405.00,1.30
4404.00,1.30
4403.00,1.31
4402.00,1.31
4401.00,1.31
4400.00,1.31
4399.00,1.31
4398.00,1.31
4397.00,1.32
4396.00,1.32
4395.00,1.32
4394.00,1.32
4393.00,1.33
4392.00,1.33
4391.00,1.33
4390.00,1.34
4389.00,1.34
4388.00,1.34
4387.00,1.35
4386.00,1.35
4385.00,1.35
4384.00,1.35
4383.00,1.36
4382.00,1.36
4381.00,1.37
4380.00,1.37
4379.00,1.37
4378.00,1.38
4377.00,1.38
4376.00,1.38
4375.00,1.38
4374.00,1.39
4373.00,1.39
4372.00,1.39
4371.00,1.39
4370.00,1.39
4369.00,1.39
4368.00,1.39
4367.00,1.39
4366.00,1.39
4365.00,1.39
4364.00,1.39
4363.00,1.39
4362.00,1.38
4361.00,1.38
4360.00,1.38
4359.00,1.38
4358.00,1.37
4357.00,1.37
4356.00,1.36
4355.00,1.36
4354.00,1.35
4353.00,1.35
4352.00,1.34
4351.00,1.34
4350.00,1.34
4349.00,1.33
4348.00,1.33
4347.00,1.33
4346.00,1.32
4345.00,1.32
4344.00,1.32
4343.00,1.31
4342.00,1.31
4341.00,1.31
4340.00,1.31
4339.00,1.31
4338.00,1.31
4337.00,1.31
4336.00,1.31
4335.00,1.31
4334.00,1.31
4333.00,1.31
4332.00,1.32
4331.00,1.32
4330.00,1.32
4329.00,1.33
4328.00,1.33
4327.00,1.33
4326.00,1.34
4325.00,1.34
4324.00,1.34
4323.00,1.35
4322.00,1.35
4321.00,1.35
4320.00,1.36
4319.00,1.36
4318.00,1.36
4317.00,1.37
4316.00,1.37
4315.00,1.38
4314.00,1.38
4313.00,1.39
4312.00,1.39
4311.00,1.40
4310.00,1.40
4309.00,1.41
4308.00,1.41
4307.00,1.41
4306.00,1.42
4305.00,1.42
4304.00,1.43
4303.00,1.43
4302.00,1.44
4301.00,1.44
4300.00,1.44
4299.00,1.45
4298.00,1.45
4297.00,1.46
4296.00,1.46
4295.00,1.47
4294.00,1.47
4293.00,1.47
4292.00,1.48
4291.00,1.48
4290.00,1.48
4289.00,1.48
4288.00,1.48
4287.00,1.49
4286.00,1.49
4285.00,1.49
4284.00,1.49
4283.00,1.49
4282.00,1.49
4281.00,1.49
4280.00,1.49
4279.00,1.48
4278.00,1.48
4277.00,1.48
4276.00,1.48
4275.00,1.48
4274.00,1.47
4273.00,1.47
4272.00,1.47
4271.00,1.46
4270.00,1.46
4269.00,1.46
4268.00,1.45
4267.00,1.45
4266.00,1.45
4265.00,1.45
4264.00,1.45
4263.00,1.45
4262.00,1.45
4261.00,1.45
4260.00,1.45
4259.00,1.45
4258.00,1.44
4257.00,1.44
4256.00,1.44
4255.00,1.44
4254.00,1.44
4253.00,1.44
4252.00,1.43
4251.00,1.43
4250.00,1.43
4249.00,1.43
4248.00,1.43
4247.00,1.43
4246.00,1.43
4245.00,1.43
4244.00,1.43
4243.00,1.42
4242.00,1.42
4241.00,1.42
4240.00,1.42
4239.00,1.41
4238.00,1.41
4237.00,1.41
4236.00,1.40
4235.00,1.40
4234.00,1.40
4233.00,1.40
4232.00,1.40
4231.00,1.40
4230.00,1.40
4229.00,1.40
4228.00,1.40
4227.00,1.40
4226.00,1.40
4225.00,1.40
4224.00,1.40
4223.00,1.40
4222.00,1.40
4221.00,1.40
4220.00,1.40
4219.00,1.40
4218.00,1.40
4217.00,1.41
4216.00,1.41
4215.00,1.41
4214.00,1.41
4213.00,1.41
4212.00,1.41
4211.00,1.41
4210.00,1.41
4209.00,1.42
4208.00,1.42
4207.00,1.42
4206.00,1.42
4205.00,1.42
4204.00,1.42
4203.00,1.43
4202.00,1.43
4201.00,1.43
4200.00,1.43
4199.00,1.43
4198.00,1.43
4197.00,1.43
4196.00,1.43
4195.00,1.44
4194.00,1.44
4193.00,1.44
4192.00,1.44
4191.00,1.45
4190.00,1.45
4189.00,1.45
4188.00,1.46
4187.00,1.46
4186.00,1.46
4185.00,1.46
4184.00,1.46
4183.00,1.46
4182.00,1.47
4181.00,1.47
4180.00,1.47
4179.00,1.47
4178.00,1.47
4177.00,1.47
4176.00,1.48
4175.00,1.48
4174.00,1.48
4173.00,1.48
4172.00,1.48
4171.00,1.49
4170.00,1.49
4169.00,1.48
4168.00,1.48
4167.00,1.48
4166.00,1.48
4165.00,1.48
4164.00,1.47
4163.00,1.47
4162.00,1.47
4161.00,1.46
4160.00,1.46
4159.00,1.46
4158.00,1.46
4157.00,1.46
4156.00,1.45
4155.00,1.45
4154.00,1.44
4153.00,1.44
4152.00,1.44
4151.00,1.43
4150.00,1.42
4149.00,1.42
4148.00,1.41
4147.00,1.41
4146.00,1.40
4145.00,1.40
4144.00,1.39
4143.00,1.39
4142.00,1.39
4141.00,1.39
4140.00,1.39
4139.00,1.39
4138.00,1.39
4137.00,1.39
4136.00,1.39
4135.00,1.40
4134.00,1.40
4133.00,1.40
4132.00,1.41
4131.00,1.41
4130.00,1.42
4129.00,1.43
4128.00,1.43
4127.00,1.44
4126.00,1.45
4125.00,1.46
4124.00,1.47
4123.00,1.48
4122.00,1.49
4121.00,1.49
4120.00,1.50
4119.00,1.51
4118.00,1.51
4117.00,1.52
4116.00,1.53
4115.00,1.53
4114.00,1.53
4113.00,1.54
4112.00,1.54
4111.00,1.54
4110.00,1.54
4109.00,1.54
4108.00,1.54
4107.00,1.54
4106.00,1.54
4105.00,1.53
4104.00,1.53
4103.00,1.53
4102.00,1.52
4101.00,1.52
4100.00,1.52
4099.00,1.51
4098.00,1.51
4097.00,1.51
4096.00,1.50
4095.00,1.50
4094.00,1.50
4093.00,1.50
4092.00,1.49
4091.00,1.49
4090.00,1.50
4089.00,1.50
4088.00,1.50
4087.00,1.50
4086.00,1.50
4085.00,1.51
4084.00,1.51
4083.00,1.52
4082.00,1.52
4081.00,1.53
4080.00,1.53
4079.00,1.54
4078.00,1.54
4077.00,1.55
4076.00,1.55
4075.00,1.55
4074.00,1.56
4073.00,1.56
4072.00,1.56
4071.00,1.56
4070.00,1.57
4069.00,1.57
4068.00,1.57
4067.00,1.57
4066.00,1.58
4065.00,1.58
4064.00,1.58
4063.00,1.58
4062.00,1.58
4061.00,1.58
4060.00,1.58
4059.00,1.58
4058.00,1.58
4057.00,1.58
4056.00,1.58
4055.00,1.58
4054.00,1.58
4053.00,1.58
4052.00,1.58
4051.00,1.59
4050.00,1.59
4049.00,1.59
4048.00,1.59
4047.00,1.60
4046.00,1.60
4045.00,1.60
4044.00,1.61
4043.00,1.61
4042.00,1.61
4041.00,1.61
4040.00,1.61
4039.00,1.61
4038.00,1.62
4037.00,1.62
4036.00,1.62
4035.00,1.62
4034.00,1.63
4033.00,1.63
4032.00,1.63
4031.00,1.63
4030.00,1.63
4029.00,1.64
4028.00,1.64
4027.00,1.64
4026.00,1.64
4025.00,1.64
4024.00,1.64
4023.00,1.64
4022.00,1.65
4021.00,1.65
4020.00,1.65
4019.00,1.65
4018.00,1.66
4017.00,1.66
4016.00,1.66
4015.00,1.67
4014.00,1.67
4013.00,1.68
4012.00,1.68
4011.00,1.69
4010.00,1.69
4009.00,1.70
4008.00,1.70
4007.00,1.71
4006.00,1.71
4005.00,1.72
4004.00,1.72
4003.00,1.73
4002.00,1.74
4001.00,1.74
4000.00,1.75
