创建为新数据集,样品 396 用户 Administrator 日期 星期日, 七月 28 2019
cm-1,%T
10000.00,2.02
9999.00,2.01
9998.00,1.99
9997.00,1.98
9996.00,1.97
9995.00,1.96
9994.00,1.94
9993.00,1.93
9992.00,1.92
9991.00,1.90
9990.00,1.89
9989.00,1.87
9988.00,1.85
9987.00,1.84
9986.00,1.82
9985.00,1.81
9984.00,1.79
9983.00,1.78
9982.00,1.76
9981.00,1.75
9980.00,1.74
9979.00,1.72
9978.00,1.71
9977.00,1.70
9976.00,1.69
9975.00,1.68
9974.00,1.66
9973.00,1.65
9972.00,1.64
9971.00,1.63
9970.00,1.62
9969.00,1.61
9968.00,1.60
9967.00,1.59
9966.00,1.58
9965.00,1.58
9964.00,1.57
9963.00,1.57
9962.00,1.56
9961.00,1.56
9960.00,1.56
9959.00,1.56
9958.00,1.56
9957.00,1.55
9956.00,1.55
9955.00,1.55
9954.00,1.55
9953.00,1.56
9952.00,1.56
9951.00,1.56
9950.00,1.56
9949.00,1.56
9948.00,1.56
9947.00,1.56
9946.00,1.56
9945.00,1.56
9944.00,1.56
9943.00,1.56
9942.00,1.56
9941.00,1.56
9940.00,1.57
9939.00,1.57
9938.00,1.58
9937.00,1.58
9936.00,1.59
9935.00,1.60
9934.00,1.61
9933.00,1.62
9932.00,1.63
9931.00,1.64
9930.00,1.65
9929.00,1.66
9928.00,1.68
9927.00,1.69
9926.00,1.70
9925.00,1.71
9924.00,1.73
9923.00,1.74
9922.00,1.75
9921.00,1.76
9920.00,1.77
9919.00,1.78
9918.00,1.79
9917.00,1.80
9916.00,1.80
9915.00,1.81
9914.00,1.82
9913.00,1.82
9912.00,1.82
9911.00,1.83
9910.00,1.83
9909.00,1.82
9908.00,1.82
9907.00,1.82
9906.00,1.81
9905.00,1.80
9904.00,1.80
9903.00,1.79
9902.00,1.77
9901.00,1.76
9900.00,1.75
9899.00,1.74
9898.00,1.73
9897.00,1.72
9896.00,1.71
9895.00,1.71
9894.00,1.70
9893.00,1.70
9892.00,1.69
9891.00,1.69
9890.00,1.69
9889.00,1.69
9888.00,1.69
9887.00,1.69
9886.00,1.69
9885.00,1.69
9884.00,1.69
9883.00,1.68
9882.00,1.68
9881.00,1.68
9880.00,1.68
9879.00,1.68
9878.00,1.68
9877.00,1.69
9876.00,1.69
9875.00,1.69
9874.00,1.69
9873.00,1.69
9872.00,1.68
9871.00,1.68
9870.00,1.68
9869.00,1.68
9868.00,1.67
9867.00,1.67
9866.00,1.66
9865.00,1.65
9864.00,1.65
9863.00,1.64
9862.00,1.63
9861.00,1.62
9860.00,1.61
9859.00,1.60
9858.00,1.60
9857.00,1.59
9856.00,1.58
9855.00,1.58
9854.00,1.57
9853.00,1.57
9852.00,1.57
9851.00,1.57
9850.00,1.57
9849.00,1.57
9848.00,1.57
9847.00,1.58
9846.00,1.58
9845.00,1.59
9844.00,1.59
9843.00,1.60
9842.00,1.60
9841.00,1.61
9840.00,1.62
9839.00,1.63
9838.00,1.64
9837.00,1.65
9836.00,1.66
9835.00,1.67
9834.00,1.69
9833.00,1.70
9832.00,1.71
9831.00,1.73
9830.00,1.74
9829.00,1.75
9828.00,1.77
9827.00,1.78
9826.00,1.79
9825.00,1.80
9824.00,1.81
9823.00,1.82
9822.00,1.83
9821.00,1.83
9820.00,1.84
9819.00,1.84
9818.00,1.84
9817.00,1.84
9816.00,1.84
9815.00,1.84
9814.00,1.84
9813.00,1.83
9812.00,1.83
9811.00,1.82
9810.00,1.82
9809.00,1.81
9808.00,1.80
9807.00,1.79
9806.00,1.78
9805.00,1.77
9804.00,1.76
9803.00,1.75
9802.00,1.73
9801.00,1.72
9800.00,1.71
9799.00,1.69
9798.00,1.68
9797.00,1.67
9796.00,1.66
9795.00,1.65
9794.00,1.64
9793.00,1.63
9792.00,1.62
9791.00,1.61
9790.00,1.60
9789.00,1.59
9788.00,1.58
9787.00,1.58
9786.00,1.57
9785.00,1.56
9784.00,1.56
9783.00,1.56
9782.00,1.55
9781.00,1.55
9780.00,1.55
9779.00,1.55
9778.00,1.54
9777.00,1.54
9776.00,1.54
9775.00,1.53
9774.00,1.52
9773.00,1.52
9772.00,1.51
9771.00,1.50
9770.00,1.49
9769.00,1.49
9768.00,1.48
9767.00,1.48
9766.00,1.47
9765.00,1.47
9764.00,1.47
9763.00,1.46
9762.00,1.46
9761.00,1.46
9760.00,1.46
9759.00,1.46
9758.00,1.46
9757.00,1.46
9756.00,1.46
9755.00,1.46
9754.00,1.46
9753.00,1.46
9752.00,1.46
9751.00,1.47
9750.00,1.48
9749.00,1.48
9748.00,1.49
9747.00,1.51
9746.00,1.52
9745.00,1.53
9744.00,1.55
9743.00,1.56
9742.00,1.58
9741.00,1.59
9740.00,1.61
9739.00,1.62
9738.00,1.63
9737.00,1.64
9736.00,1.65
9735.00,1.66
9734.00,1.67
9733.00,1.67
9732.00,1.68
9731.00,1.69
9730.00,1.70
9729.00,1.70
9728.00,1.71
9727.00,1.72
9726.00,1.73
9725.00,1.74
9724.00,1.75
9723.00,1.75
9722.00,1.76
9721.00,1.77
9720.00,1.77
9719.00,1.78
9718.00,1.78
9717.00,1.79
9716.00,1.79
9715.00,1.79
9714.00,1.80
9713.00,1.80
9712.00,1.80
9711.00,1.81
9710.00,1.82
9709.00,1.82
9708.00,1.83
9707.00,1.84
9706.00,1.85
9705.00,1.86
9704.00,1.87
9703.00,1.87
9702.00,1.87
9701.00,1.88
9700.00,1.88
9699.00,1.87
9698.00,1.87
9697.00,1.87
9696.00,1.86
9695.00,1.86
9694.00,1.85
9693.00,1.85
9692.00,1.84
9691.00,1.84
9690.00,1.84
9689.00,1.84
9688.00,1.83
9687.00,1.83
9686.00,1.83
9685.00,1.82
9684.00,1.82
9683.00,1.81
9682.00,1.81
9681.00,1.81
9680.00,1.80
9679.00,1.80
9678.00,1.80
9677.00,1.80
9676.00,1.80
9675.00,1.80
9674.00,1.80
9673.00,1.81
9672.00,1.81
9671.00,1.82
9670.00,1.82
9669.00,1.83
9668.00,1.83
9667.00,1.83
9666.00,1.84
9665.00,1.84
9664.00,1.84
9663.00,1.84
9662.00,1.84
9661.00,1.84
9660.00,1.84
9659.00,1.84
9658.00,1.84
9657.00,1.84
9656.00,1.85
9655.00,1.85
9654.00,1.85
9653.00,1.85
9652.00,1.85
9651.00,1.86
9650.00,1.86
9649.00,1.85
9648.00,1.85
9647.00,1.85
9646.00,1.85
9645.00,1.84
9644.00,1.84
9643.00,1.83
9642.00,1.83
9641.00,1.83
9640.00,1.83
9639.00,1.83
9638.00,1.84
9637.00,1.84
9636.00,1.85
9635.00,1.85
9634.00,1.86
9633.00,1.86
9632.00,1.86
9631.00,1.87
9630.00,1.87
9629.00,1.87
9628.00,1.87
9627.00,1.86
9626.00,1.86
9625.00,1.85
9624.00,1.85
9623.00,1.84
9622.00,1.84
9621.00,1.84
9620.00,1.83
9619.00,1.83
9618.00,1.83
9617.00,1.83
9616.00,1.83
9615.00,1.83
9614.00,1.83
9613.00,1.82
9612.00,1.82
9611.00,1.81
9610.00,1.80
9609.00,1.79
9608.00,1.78
9607.00,1.77
9606.00,1.76
9605.00,1.76
9604.00,1.75
9603.00,1.74
9602.00,1.74
9601.00,1.74
9600.00,1.74
9599.00,1.74
9598.00,1.74
9597.00,1.74
9596.00,1.74
9595.00,1.74
9594.00,1.74
9593.00,1.74
9592.00,1.75
9591.00,1.75
9590.00,1.75
9589.00,1.75
9588.00,1.75
9587.00,1.75
9586.00,1.76
9585.00,1.76
9584.00,1.76
9583.00,1.77
9582.00,1.78
9581.00,1.78
9580.00,1.79
9579.00,1.79
9578.00,1.80
9577.00,1.80
9576.00,1.80
9575.00,1.81
9574.00,1.81
9573.00,1.82
9572.00,1.82
9571.00,1.82
9570.00,1.82
9569.00,1.83
9568.00,1.83
9567.00,1.83
9566.00,1.83
9565.00,1.83
9564.00,1.83
9563.00,1.83
9562.00,1.82
9561.00,1.82
9560.00,1.82
9559.00,1.82
9558.00,1.82
9557.00,1.81
9556.00,1.81
9555.00,1.81
9554.00,1.81
9553.00,1.80
9552.00,1.80
9551.00,1.80
9550.00,1.79
9549.00,1.79
9548.00,1.79
9547.00,1.78
9546.00,1.78
9545.00,1.77
9544.00,1.77
9543.00,1.76
9542.00,1.76
9541.00,1.75
9540.00,1.75
9539.00,1.75
9538.00,1.75
9537.00,1.75
9536.00,1.75
9535.00,1.75
9534.00,1.75
9533.00,1.75
9532.00,1.76
9531.00,1.76
9530.00,1.76
9529.00,1.77
9528.00,1.77
9527.00,1.77
9526.00,1.78
9525.00,1.79
9524.00,1.79
9523.00,1.80
9522.00,1.80
9521.00,1.81
9520.00,1.81
9519.00,1.82
9518.00,1.83
9517.00,1.83
9516.00,1.83
9515.00,1.84
9514.00,1.84
9513.00,1.84
9512.00,1.84
9511.00,1.84
9510.00,1.84
9509.00,1.84
9508.00,1.84
9507.00,1.84
9506.00,1.84
9505.00,1.84
9504.00,1.84
9503.00,1.84
9502.00,1.84
9501.00,1.83
9500.00,1.83
9499.00,1.82
9498.00,1.81
9497.00,1.81
9496.00,1.80
9495.00,1.79
9494.00,1.78
9493.00,1.78
9492.00,1.77
9491.00,1.76
9490.00,1.76
9489.00,1.75
9488.00,1.75
9487.00,1.74
9486.00,1.74
9485.00,1.73
9484.00,1.73
9483.00,1.72
9482.00,1.72
9481.00,1.71
9480.00,1.70
9479.00,1.69
9478.00,1.69
9477.00,1.68
9476.00,1.67
9475.00,1.67
9474.00,1.66
9473.00,1.66
9472.00,1.66
9471.00,1.66
9470.00,1.66
9469.00,1.66
9468.00,1.66
9467.00,1.66
9466.00,1.66
9465.00,1.66
9464.00,1.66
9463.00,1.66
9462.00,1.66
9461.00,1.66
9460.00,1.67
9459.00,1.67
9458.00,1.68
9457.00,1.69
9456.00,1.69
9455.00,1.70
9454.00,1.71
9453.00,1.71
9452.00,1.72
9451.00,1.72
9450.00,1.73
9449.00,1.73
9448.00,1.73
9447.00,1.74
9446.00,1.74
9445.00,1.74
9444.00,1.74
9443.00,1.74
9442.00,1.74
9441.00,1.73
9440.00,1.73
9439.00,1.73
9438.00,1.73
9437.00,1.73
9436.00,1.73
9435.00,1.72
9434.00,1.72
9433.00,1.71
9432.00,1.71
9431.00,1.70
9430.00,1.70
9429.00,1.69
9428.00,1.68
9427.00,1.68
9426.00,1.67
9425.00,1.67
9424.00,1.67
9423.00,1.67
9422.00,1.66
9421.00,1.66
9420.00,1.66
9419.00,1.66
9418.00,1.66
9417.00,1.66
9416.00,1.66
9415.00,1.66
9414.00,1.66
9413.00,1.66
9412.00,1.66
9411.00,1.66
9410.00,1.66
9409.00,1.66
9408.00,1.66
9407.00,1.67
9406.00,1.67
9405.00,1.67
9404.00,1.67
9403.00,1.67
9402.00,1.68
9401.00,1.68
9400.00,1.68
9399.00,1.68
9398.00,1.68
9397.00,1.68
9396.00,1.67
9395.00,1.67
9394.00,1.67
9393.00,1.67
9392.00,1.67
9391.00,1.67
9390.00,1.67
9389.00,1.67
9388.00,1.68
9387.00,1.68
9386.00,1.68
9385.00,1.69
9384.00,1.69
9383.00,1.70
9382.00,1.70
9381.00,1.70
9380.00,1.71
9379.00,1.71
9378.00,1.72
9377.00,1.72
9376.00,1.73
9375.00,1.73
9374.00,1.74
9373.00,1.74
9372.00,1.75
9371.00,1.76
9370.00,1.77
9369.00,1.77
9368.00,1.78
9367.00,1.79
9366.00,1.79
9365.00,1.80
9364.00,1.81
9363.00,1.81
9362.00,1.81
9361.00,1.81
9360.00,1.82
9359.00,1.82
9358.00,1.81
9357.00,1.81
9356.00,1.81
9355.00,1.81
9354.00,1.81
9353.00,1.81
9352.00,1.80
9351.00,1.80
9350.00,1.80
9349.00,1.79
9348.00,1.79
9347.00,1.79
9346.00,1.78
9345.00,1.78
9344.00,1.77
9343.00,1.77
9342.00,1.76
9341.00,1.76
9340.00,1.75
9339.00,1.75
9338.00,1.74
9337.00,1.74
9336.00,1.74
9335.00,1.73
9334.00,1.73
9333.00,1.73
9332.00,1.73
9331.00,1.73
9330.00,1.73
9329.00,1.73
9328.00,1.73
9327.00,1.73
9326.00,1.73
9325.00,1.73
9324.00,1.73
9323.00,1.73
9322.00,1.73
9321.00,1.73
9320.00,1.74
9319.00,1.74
9318.00,1.74
9317.00,1.74
9316.00,1.74
9315.00,1.75
9314.00,1.75
9313.00,1.75
9312.00,1.75
9311.00,1.75
9310.00,1.75
9309.00,1.75
9308.00,1.75
9307.00,1.75
9306.00,1.75
9305.00,1.75
9304.00,1.74
9303.00,1.74
9302.00,1.74
9301.00,1.73
9300.00,1.73
9299.00,1.72
9298.00,1.71
9297.00,1.71
9296.00,1.70
9295.00,1.69
9294.00,1.68
9293.00,1.67
9292.00,1.66
9291.00,1.65
9290.00,1.64
9289.00,1.63
9288.00,1.62
9287.00,1.61
9286.00,1.60
9285.00,1.59
9284.00,1.58
9283.00,1.57
9282.00,1.56
9281.00,1.56
9280.00,1.55
9279.00,1.55
9278.00,1.54
9277.00,1.54
9276.00,1.54
9275.00,1.54
9274.00,1.54
9273.00,1.54
9272.00,1.54
9271.00,1.54
9270.00,1.55
9269.00,1.55
9268.00,1.56
9267.00,1.57
9266.00,1.57
9265.00,1.58
9264.00,1.59
9263.00,1.59
9262.00,1.60
9261.00,1.61
9260.00,1.62
9259.00,1.62
9258.00,1.63
9257.00,1.64
9256.00,1.65
9255.00,1.65
9254.00,1.66
9253.00,1.66
9252.00,1.66
9251.00,1.67
9250.00,1.67
9249.00,1.67
9248.00,1.67
9247.00,1.68
9246.00,1.68
9245.00,1.68
9244.00,1.68
9243.00,1.68
9242.00,1.68
9241.00,1.69
9240.00,1.69
9239.00,1.69
9238.00,1.69
9237.00,1.69
9236.00,1.69
9235.00,1.69
9234.00,1.69
9233.00,1.69
9232.00,1.69
9231.00,1.70
9230.00,1.70
9229.00,1.70
9228.00,1.70
9227.00,1.71
9226.00,1.71
9225.00,1.71
9224.00,1.72
9223.00,1.72
9222.00,1.72
9221.00,1.72
9220.00,1.73
9219.00,1.73
9218.00,1.72
9217.00,1.72
9216.00,1.72
9215.00,1.72
9214.00,1.72
9213.00,1.72
9212.00,1.72
9211.00,1.71
9210.00,1.71
9209.00,1.71
9208.00,1.70
9207.00,1.70
9206.00,1.69
9205.00,1.69
9204.00,1.68
9203.00,1.67
9202.00,1.66
9201.00,1.65
9200.00,1.64
9199.00,1.63
9198.00,1.62
9197.00,1.61
9196.00,1.60
9195.00,1.59
9194.00,1.58
9193.00,1.56
9192.00,1.55
9191.00,1.54
9190.00,1.53
9189.00,1.52
9188.00,1.51
9187.00,1.50
9186.00,1.50
9185.00,1.49
9184.00,1.49
9183.00,1.49
9182.00,1.49
9181.00,1.49
9180.00,1.49
9179.00,1.49
9178.00,1.50
9177.00,1.51
9176.00,1.51
9175.00,1.52
9174.00,1.53
9173.00,1.54
9172.00,1.55
9171.00,1.57
9170.00,1.58
9169.00,1.59
9168.00,1.61
9167.00,1.62
9166.00,1.64
9165.00,1.66
9164.00,1.68
9163.00,1.70
9162.00,1.71
9161.00,1.73
9160.00,1.75
9159.00,1.77
9158.00,1.78
9157.00,1.79
9156.00,1.81
9155.00,1.82
9154.00,1.83
9153.00,1.84
9152.00,1.85
9151.00,1.86
9150.00,1.86
9149.00,1.87
9148.00,1.88
9147.00,1.88
9146.00,1.89
9145.00,1.89
9144.00,1.89
9143.00,1.90
9142.00,1.90
9141.00,1.90
9140.00,1.90
9139.00,1.89
9138.00,1.89
9137.00,1.88
9136.00,1.88
9135.00,1.87
9134.00,1.86
9133.00,1.85
9132.00,1.84
9131.00,1.83
9130.00,1.82
9129.00,1.82
9128.00,1.81
9127.00,1.80
9126.00,1.79
9125.00,1.78
9124.00,1.77
9123.00,1.77
9122.00,1.76
9121.00,1.76
9120.00,1.75
9119.00,1.75
9118.00,1.74
9117.00,1.74
9116.00,1.74
9115.00,1.74
9114.00,1.73
9113.00,1.74
9112.00,1.74
9111.00,1.74
9110.00,1.75
9109.00,1.75
9108.00,1.76
9107.00,1.77
9106.00,1.77
9105.00,1.78
9104.00,1.79
9103.00,1.80
9102.00,1.81
9101.00,1.81
9100.00,1.82
9099.00,1.83
9098.00,1.83
9097.00,1.84
9096.00,1.84
9095.00,1.84
9094.00,1.85
9093.00,1.85
9092.00,1.85
9091.00,1.85
9090.00,1.85
9089.00,1.85
9088.00,1.85
9087.00,1.85
9086.00,1.85
9085.00,1.85
9084.00,1.84
9083.00,1.84
9082.00,1.83
9081.00,1.83
9080.00,1.82
9079.00,1.82
9078.00,1.81
9077.00,1.81
9076.00,1.81
9075.00,1.80
9074.00,1.80
9073.00,1.80
9072.00,1.79
9071.00,1.79
9070.00,1.79
9069.00,1.79
9068.00,1.79
9067.00,1.79
9066.00,1.78
9065.00,1.78
9064.00,1.78
9063.00,1.78
9062.00,1.78
9061.00,1.78
9060.00,1.78
9059.00,1.78
9058.00,1.78
9057.00,1.78
9056.00,1.78
9055.00,1.78
9054.00,1.77
9053.00,1.77
9052.00,1.77
9051.00,1.76
9050.00,1.76
9049.00,1.76
9048.00,1.75
9047.00,1.75
9046.00,1.74
9045.00,1.74
9044.00,1.74
9043.00,1.73
9042.00,1.73
9041.00,1.73
9040.00,1.72
9039.00,1.72
9038.00,1.72
9037.00,1.71
9036.00,1.71
9035.00,1.70
9034.00,1.70
9033.00,1.70
9032.00,1.69
9031.00,1.69
9030.00,1.69
9029.00,1.69
9028.00,1.69
9027.00,1.69
9026.00,1.70
9025.00,1.70
9024.00,1.70
9023.00,1.70
9022.00,1.70
9021.00,1.71
9020.00,1.71
9019.00,1.71
9018.00,1.71
9017.00,1.71
9016.00,1.72
9015.00,1.72
9014.00,1.72
9013.00,1.72
9012.00,1.72
9011.00,1.72
9010.00,1.72
9009.00,1.72
9008.00,1.72
9007.00,1.72
9006.00,1.72
9005.00,1.72
9004.00,1.72
9003.00,1.72
9002.00,1.72
9001.00,1.72
9000.00,1.72
8999.00,1.72
8998.00,1.72
8997.00,1.72
8996.00,1.72
8995.00,1.72
8994.00,1.73
8993.00,1.73
8992.00,1.73
8991.00,1.74
8990.00,1.74
8989.00,1.74
8988.00,1.75
8987.00,1.75
8986.00,1.76
8985.00,1.76
8984.00,1.77
8983.00,1.78
8982.00,1.78
8981.00,1.79
8980.00,1.80
8979.00,1.81
8978.00,1.81
8977.00,1.82
8976.00,1.83
8975.00,1.83
8974.00,1.84
8973.00,1.84
8972.00,1.85
8971.00,1.85
8970.00,1.85
8969.00,1.85
8968.00,1.85
8967.00,1.85
8966.00,1.85
8965.00,1.84
8964.00,1.84
8963.00,1.83
8962.00,1.83
8961.00,1.82
8960.00,1.81
8959.00,1.81
8958.00,1.80
8957.00,1.79
8956.00,1.78
8955.00,1.78
8954.00,1.77
8953.00,1.76
8952.00,1.75
8951.00,1.75
8950.00,1.74
8949.00,1.74
8948.00,1.74
8947.00,1.74
8946.00,1.74
8945.00,1.74
8944.00,1.74
8943.00,1.75
8942.00,1.75
8941.00,1.76
8940.00,1.76
8939.00,1.77
8938.00,1.77
8937.00,1.78
8936.00,1.78
8935.00,1.79
8934.00,1.80
8933.00,1.81
8932.00,1.82
8931.00,1.83
8930.00,1.83
8929.00,1.84
8928.00,1.85
8927.00,1.86
8926.00,1.86
8925.00,1.87
8924.00,1.87
8923.00,1.87
8922.00,1.87
8921.00,1.87
8920.00,1.86
8919.00,1.86
8918.00,1.85
8917.00,1.85
8916.00,1.84
8915.00,1.83
8914.00,1.83
8913.00,1.82
8912.00,1.81
8911.00,1.80
8910.00,1.79
8909.00,1.79
8908.00,1.78
8907.00,1.77
8906.00,1.76
8905.00,1.75
8904.00,1.74
8903.00,1.73
8902.00,1.72
8901.00,1.71
8900.00,1.70
8899.00,1.70
8898.00,1.69
8897.00,1.68
8896.00,1.68
8895.00,1.67
8894.00,1.67
8893.00,1.67
8892.00,1.67
8891.00,1.66
8890.00,1.66
8889.00,1.66
8888.00,1.66
8887.00,1.66
8886.00,1.66
8885.00,1.66
8884.00,1.66
8883.00,1.66
8882.00,1.66
8881.00,1.67
8880.00,1.67
8879.00,1.67
8878.00,1.68
8877.00,1.68
8876.00,1.69
8875.00,1.69
8874.00,1.69
8873.00,1.70
8872.00,1.70
8871.00,1.71
8870.00,1.72
8869.00,1.72
8868.00,1.73
8867.00,1.73
8866.00,1.74
8865.00,1.74
8864.00,1.75
8863.00,1.76
8862.00,1.77
8861.00,1.78
8860.00,1.78
8859.00,1.79
8858.00,1.80
8857.00,1.81
8856.00,1.81
8855.00,1.82
8854.00,1.83
8853.00,1.83
8852.00,1.83
8851.00,1.84
8850.00,1.84
8849.00,1.84
8848.00,1.85
8847.00,1.85
8846.00,1.85
8845.00,1.85
8844.00,1.85
8843.00,1.85
8842.00,1.85
8841.00,1.85
8840.00,1.85
8839.00,1.84
8838.00,1.84
8837.00,1.83
8836.00,1.83
8835.00,1.82
8834.00,1.81
8833.00,1.80
8832.00,1.79
8831.00,1.78
8830.00,1.77
8829.00,1.76
8828.00,1.75
8827.00,1.74
8826.00,1.73
8825.00,1.72
8824.00,1.71
8823.00,1.71
8822.00,1.70
8821.00,1.69
8820.00,1.68
8819.00,1.68
8818.00,1.67
8817.00,1.66
8816.00,1.66
8815.00,1.65
8814.00,1.65
8813.00,1.64
8812.00,1.64
8811.00,1.64
8810.00,1.64
8809.00,1.63
8808.00,1.63
8807.00,1.63
8806.00,1.64
8805.00,1.64
8804.00,1.64
8803.00,1.64
8802.00,1.64
8801.00,1.65
8800.00,1.65
8799.00,1.65
8798.00,1.65
8797.00,1.66
8796.00,1.66
8795.00,1.66
8794.00,1.66
8793.00,1.67
8792.00,1.67
8791.00,1.67
8790.00,1.68
8789.00,1.68
8788.00,1.68
8787.00,1.69
8786.00,1.69
8785.00,1.70
8784.00,1.70
8783.00,1.71
8782.00,1.71
8781.00,1.72
8780.00,1.73
8779.00,1.73
8778.00,1.74
8777.00,1.74
8776.00,1.75
8775.00,1.76
8774.00,1.76
8773.00,1.77
8772.00,1.77
8771.00,1.77
8770.00,1.78
8769.00,1.78
8768.00,1.78
8767.00,1.79
8766.00,1.79
8765.00,1.79
8764.00,1.79
8763.00,1.79
8762.00,1.79
8761.00,1.79
8760.00,1.79
8759.00,1.79
8758.00,1.78
8757.00,1.78
8756.00,1.78
8755.00,1.78
8754.00,1.77
8753.00,1.77
8752.00,1.77
8751.00,1.76
8750.00,1.76
8749.00,1.76
8748.00,1.76
8747.00,1.76
8746.00,1.76
8745.00,1.76
8744.00,1.76
8743.00,1.76
8742.00,1.76
8741.00,1.76
8740.00,1.76
8739.00,1.76
8738.00,1.76
8737.00,1.76
8736.00,1.76
8735.00,1.75
8734.00,1.75
8733.00,1.75
8732.00,1.75
8731.00,1.75
8730.00,1.74
8729.00,1.74
8728.00,1.74
8727.00,1.73
8726.00,1.73
8725.00,1.72
8724.00,1.72
8723.00,1.71
8722.00,1.71
8721.00,1.70
8720.00,1.70
8719.00,1.69
8718.00,1.69
8717.00,1.68
8716.00,1.68
8715.00,1.67
8714.00,1.67
8713.00,1.67
8712.00,1.67
8711.00,1.67
8710.00,1.67
8709.00,1.67
8708.00,1.68
8707.00,1.68
8706.00,1.68
8705.00,1.69
8704.00,1.69
8703.00,1.70
8702.00,1.70
8701.00,1.70
8700.00,1.71
8699.00,1.71
8698.00,1.72
8697.00,1.72
8696.00,1.72
8695.00,1.73
8694.00,1.73
8693.00,1.73
8692.00,1.74
8691.00,1.74
8690.00,1.74
8689.00,1.74
8688.00,1.74
8687.00,1.74
8686.00,1.74
8685.00,1.74
8684.00,1.74
8683.00,1.74
8682.00,1.73
8681.00,1.73
8680.00,1.73
8679.00,1.72
8678.00,1.72
8677.00,1.72
8676.00,1.71
8675.00,1.71
8674.00,1.71
8673.00,1.70
8672.00,1.70
8671.00,1.70
8670.00,1.70
8669.00,1.70
8668.00,1.70
8667.00,1.69
8666.00,1.69
8665.00,1.69
8664.00,1.69
8663.00,1.69
8662.00,1.69
8661.00,1.68
8660.00,1.68
8659.00,1.68
8658.00,1.68
8657.00,1.68
8656.00,1.68
8655.00,1.68
8654.00,1.68
8653.00,1.68
8652.00,1.68
8651.00,1.68
8650.00,1.68
8649.00,1.68
8648.00,1.68
8647.00,1.68
8646.00,1.67
8645.00,1.67
8644.00,1.66
8643.00,1.66
8642.00,1.65
8641.00,1.65
8640.00,1.64
8639.00,1.64
8638.00,1.63
8637.00,1.63
8636.00,1.62
8635.00,1.62
8634.00,1.61
8633.00,1.61
8632.00,1.60
8631.00,1.59
8630.00,1.59
8629.00,1.58
8628.00,1.58
8627.00,1.57
8626.00,1.57
8625.00,1.56
8624.00,1.56
8623.00,1.55
8622.00,1.55
8621.00,1.55
8620.00,1.54
8619.00,1.54
8618.00,1.54
8617.00,1.54
8616.00,1.54
8615.00,1.54
8614.00,1.55
8613.00,1.55
8612.00,1.55
8611.00,1.55
8610.00,1.55
8609.00,1.55
8608.00,1.55
8607.00,1.55
8606.00,1.56
8605.00,1.56
8604.00,1.56
8603.00,1.56
8602.00,1.56
8601.00,1.57
8600.00,1.57
8599.00,1.57
8598.00,1.58
8597.00,1.58
8596.00,1.58
8595.00,1.59
8594.00,1.60
8593.00,1.60
8592.00,1.61
8591.00,1.62
8590.00,1.62
8589.00,1.63
8588.00,1.64
8587.00,1.65
8586.00,1.66
8585.00,1.66
8584.00,1.67
8583.00,1.68
8582.00,1.69
8581.00,1.70
8580.00,1.70
8579.00,1.71
8578.00,1.72
8577.00,1.72
8576.00,1.73
8575.00,1.73
8574.00,1.73
8573.00,1.74
8572.00,1.74
8571.00,1.74
8570.00,1.74
8569.00,1.74
8568.00,1.74
8567.00,1.73
8566.00,1.73
8565.00,1.73
8564.00,1.72
8563.00,1.72
8562.00,1.71
8561.00,1.71
8560.00,1.70
8559.00,1.70
8558.00,1.69
8557.00,1.69
8556.00,1.69
8555.00,1.68
8554.00,1.68
8553.00,1.68
8552.00,1.67
8551.00,1.67
8550.00,1.67
8549.00,1.67
8548.00,1.67
8547.00,1.67
8546.00,1.68
8545.00,1.68
8544.00,1.68
8543.00,1.68
8542.00,1.69
8541.00,1.69
8540.00,1.69
8539.00,1.69
8538.00,1.69
8537.00,1.70
8536.00,1.70
8535.00,1.70
8534.00,1.70
8533.00,1.70
8532.00,1.70
8531.00,1.70
8530.00,1.70
8529.00,1.70
8528.00,1.69
8527.00,1.69
8526.00,1.69
8525.00,1.68
8524.00,1.68
8523.00,1.67
8522.00,1.66
8521.00,1.66
8520.00,1.65
8519.00,1.64
8518.00,1.63
8517.00,1.63
8516.00,1.62
8515.00,1.62
8514.00,1.61
8513.00,1.61
8512.00,1.60
8511.00,1.60
8510.00,1.60
8509.00,1.59
8508.00,1.59
8507.00,1.59
8506.00,1.59
8505.00,1.59
8504.00,1.59
8503.00,1.59
8502.00,1.59
8501.00,1.59
8500.00,1.59
8499.00,1.59
8498.00,1.60
8497.00,1.60
8496.00,1.60
8495.00,1.61
8494.00,1.61
8493.00,1.62
8492.00,1.62
8491.00,1.62
8490.00,1.62
8489.00,1.62
8488.00,1.62
8487.00,1.62
8486.00,1.62
8485.00,1.62
8484.00,1.62
8483.00,1.61
8482.00,1.61
8481.00,1.60
8480.00,1.59
8479.00,1.59
8478.00,1.58
8477.00,1.58
8476.00,1.57
8475.00,1.56
8474.00,1.56
8473.00,1.55
8472.00,1.54
8471.00,1.53
8470.00,1.53
8469.00,1.52
8468.00,1.51
8467.00,1.51
8466.00,1.50
8465.00,1.49
8464.00,1.49
8463.00,1.49
8462.00,1.48
8461.00,1.48
8460.00,1.48
8459.00,1.48
8458.00,1.49
8457.00,1.49
8456.00,1.49
8455.00,1.50
8454.00,1.50
8453.00,1.51
8452.00,1.51
8451.00,1.52
8450.00,1.52
8449.00,1.53
8448.00,1.54
8447.00,1.54
8446.00,1.55
8445.00,1.56
8444.00,1.56
8443.00,1.57
8442.00,1.58
8441.00,1.59
8440.00,1.60
8439.00,1.61
8438.00,1.62
8437.00,1.62
8436.00,1.63
8435.00,1.64
8434.00,1.64
8433.00,1.65
8432.00,1.65
8431.00,1.66
8430.00,1.67
8429.00,1.67
8428.00,1.68
8427.00,1.68
8426.00,1.69
8425.00,1.70
8424.00,1.70
8423.00,1.71
8422.00,1.72
8421.00,1.72
8420.00,1.73
8419.00,1.73
8418.00,1.74
8417.00,1.74
8416.00,1.75
8415.00,1.75
8414.00,1.75
8413.00,1.75
8412.00,1.75
8411.00,1.76
8410.00,1.76
8409.00,1.76
8408.00,1.76
8407.00,1.76
8406.00,1.76
8405.00,1.76
8404.00,1.76
8403.00,1.76
8402.00,1.76
8401.00,1.76
8400.00,1.76
8399.00,1.76
8398.00,1.75
8397.00,1.75
8396.00,1.75
8395.00,1.74
8394.00,1.74
8393.00,1.74
8392.00,1.73
8391.00,1.73
8390.00,1.73
8389.00,1.72
8388.00,1.72
8387.00,1.72
8386.00,1.72
8385.00,1.72
8384.00,1.72
8383.00,1.71
8382.00,1.71
8381.00,1.71
8380.00,1.71
8379.00,1.71
8378.00,1.71
8377.00,1.71
8376.00,1.71
8375.00,1.71
8374.00,1.71
8373.00,1.71
8372.00,1.71
8371.00,1.71
8370.00,1.70
8369.00,1.70
8368.00,1.70
8367.00,1.70
8366.00,1.70
8365.00,1.69
8364.00,1.69
8363.00,1.69
8362.00,1.69
8361.00,1.69
8360.00,1.68
8359.00,1.68
8358.00,1.68
8357.00,1.67
8356.00,1.67
8355.00,1.67
8354.00,1.66
8353.00,1.66
8352.00,1.66
8351.00,1.65
8350.00,1.65
8349.00,1.65
8348.00,1.64
8347.00,1.64
8346.00,1.64
8345.00,1.64
8344.00,1.64
8343.00,1.64
8342.00,1.64
8341.00,1.64
8340.00,1.64
8339.00,1.65
8338.00,1.65
8337.00,1.65
8336.00,1.65
8335.00,1.65
8334.00,1.66
8333.00,1.66
8332.00,1.67
8331.00,1.67
8330.00,1.68
8329.00,1.68
8328.00,1.69
8327.00,1.70
8326.00,1.70
8325.00,1.71
8324.00,1.71
8323.00,1.72
8322.00,1.73
8321.00,1.73
8320.00,1.74
8319.00,1.74
8318.00,1.75
8317.00,1.75
8316.00,1.76
8315.00,1.76
8314.00,1.77
8313.00,1.77
8312.00,1.77
8311.00,1.77
8310.00,1.78
8309.00,1.78
8308.00,1.78
8307.00,1.78
8306.00,1.78
8305.00,1.78
8304.00,1.77
8303.00,1.77
8302.00,1.77
8301.00,1.76
8300.00,1.76
8299.00,1.76
8298.00,1.75
8297.00,1.75
8296.00,1.74
8295.00,1.73
8294.00,1.73
8293.00,1.72
8292.00,1.72
8291.00,1.72
8290.00,1.71
8289.00,1.71
8288.00,1.71
8287.00,1.71
8286.00,1.71
8285.00,1.71
8284.00,1.70
8283.00,1.70
8282.00,1.70
8281.00,1.70
8280.00,1.70
8279.00,1.70
8278.00,1.70
8277.00,1.69
8276.00,1.69
8275.00,1.69
8274.00,1.69
8273.00,1.70
8272.00,1.70
8271.00,1.70
8270.00,1.70
8269.00,1.71
8268.00,1.71
8267.00,1.71
8266.00,1.72
8265.00,1.72
8264.00,1.72
8263.00,1.72
8262.00,1.72
8261.00,1.72
8260.00,1.72
8259.00,1.72
8258.00,1.72
8257.00,1.72
8256.00,1.73
8255.00,1.73
8254.00,1.73
8253.00,1.73
8252.00,1.73
8251.00,1.73
8250.00,1.74
8249.00,1.74
8248.00,1.74
8247.00,1.74
8246.00,1.73
8245.00,1.73
8244.00,1.73
8243.00,1.73
8242.00,1.73
8241.00,1.73
8240.00,1.72
8239.00,1.72
8238.00,1.72
8237.00,1.72
8236.00,1.72
8235.00,1.71
8234.00,1.71
8233.00,1.71
8232.00,1.71
8231.00,1.71
8230.00,1.71
8229.00,1.71
8228.00,1.70
8227.00,1.70
8226.00,1.70
8225.00,1.70
8224.00,1.70
8223.00,1.70
8222.00,1.70
8221.00,1.70
8220.00,1.70
8219.00,1.69
8218.00,1.69
8217.00,1.69
8216.00,1.69
8215.00,1.69
8214.00,1.69
8213.00,1.68
8212.00,1.68
8211.00,1.68
8210.00,1.68
8209.00,1.67
8208.00,1.67
8207.00,1.67
8206.00,1.67
8205.00,1.66
8204.00,1.66
8203.00,1.66
8202.00,1.65
8201.00,1.65
8200.00,1.65
8199.00,1.65
8198.00,1.65
8197.00,1.65
8196.00,1.65
8195.00,1.65
8194.00,1.65
8193.00,1.65
8192.00,1.65
8191.00,1.65
8190.00,1.65
8189.00,1.65
8188.00,1.66
8187.00,1.66
8186.00,1.67
8185.00,1.67
8184.00,1.68
8183.00,1.68
8182.00,1.69
8181.00,1.69
8180.00,1.70
8179.00,1.70
8178.00,1.71
8177.00,1.71
8176.00,1.71
8175.00,1.72
8174.00,1.72
8173.00,1.72
8172.00,1.73
8171.00,1.73
8170.00,1.73
8169.00,1.73
8168.00,1.73
8167.00,1.73
8166.00,1.74
8165.00,1.74
8164.00,1.74
8163.00,1.74
8162.00,1.74
8161.00,1.74
8160.00,1.74
8159.00,1.74
8158.00,1.74
8157.00,1.74
8156.00,1.74
8155.00,1.75
8154.00,1.75
8153.00,1.75
8152.00,1.75
8151.00,1.75
8150.00,1.76
8149.00,1.76
8148.00,1.76
8147.00,1.76
8146.00,1.76
8145.00,1.76
8144.00,1.76
8143.00,1.77
8142.00,1.77
8141.00,1.77
8140.00,1.77
8139.00,1.77
8138.00,1.77
8137.00,1.77
8136.00,1.77
8135.00,1.77
8134.00,1.77
8133.00,1.77
8132.00,1.77
8131.00,1.76
8130.00,1.76
8129.00,1.76
8128.00,1.76
8127.00,1.75
8126.00,1.75
8125.00,1.75
8124.00,1.75
8123.00,1.75
8122.00,1.75
8121.00,1.75
8120.00,1.75
8119.00,1.76
8118.00,1.76
8117.00,1.76
8116.00,1.77
8115.00,1.77
8114.00,1.78
8113.00,1.78
8112.00,1.79
8111.00,1.79
8110.00,1.80
8109.00,1.80
8108.00,1.81
8107.00,1.82
8106.00,1.82
8105.00,1.83
8104.00,1.83
8103.00,1.84
8102.00,1.84
8101.00,1.85
8100.00,1.85
8099.00,1.85
8098.00,1.85
8097.00,1.85
8096.00,1.85
8095.00,1.85
8094.00,1.85
8093.00,1.85
8092.00,1.84
8091.00,1.84
8090.00,1.84
8089.00,1.83
8088.00,1.83
8087.00,1.82
8086.00,1.82
8085.00,1.82
8084.00,1.81
8083.00,1.80
8082.00,1.80
8081.00,1.80
8080.00,1.79
8079.00,1.79
8078.00,1.78
8077.00,1.78
8076.00,1.78
8075.00,1.78
8074.00,1.78
8073.00,1.78
8072.00,1.78
8071.00,1.78
8070.00,1.78
8069.00,1.78
8068.00,1.78
8067.00,1.78
8066.00,1.79
8065.00,1.79
8064.00,1.79
8063.00,1.79
8062.00,1.79
8061.00,1.79
8060.00,1.79
8059.00,1.79
8058.00,1.79
8057.00,1.79
8056.00,1.79
8055.00,1.79
8054.00,1.79
8053.00,1.79
8052.00,1.79
8051.00,1.79
8050.00,1.79
8049.00,1.78
8048.00,1.78
8047.00,1.78
8046.00,1.78
8045.00,1.77
8044.00,1.77
8043.00,1.77
8042.00,1.77
8041.00,1.77
8040.00,1.76
8039.00,1.76
8038.00,1.76
8037.00,1.76
8036.00,1.76
8035.00,1.76
8034.00,1.76
8033.00,1.76
8032.00,1.76
8031.00,1.76
8030.00,1.77
8029.00,1.77
8028.00,1.77
8027.00,1.77
8026.00,1.77
8025.00,1.77
8024.00,1.77
8023.00,1.77
8022.00,1.77
8021.00,1.77
8020.00,1.77
8019.00,1.77
8018.00,1.77
8017.00,1.77
8016.00,1.77
8015.00,1.77
8014.00,1.77
8013.00,1.77
8012.00,1.77
8011.00,1.77
8010.00,1.77
8009.00,1.77
8008.00,1.77
8007.00,1.77
8006.00,1.77
8005.00,1.77
8004.00,1.76
8003.00,1.76
8002.00,1.76
8001.00,1.76
8000.00,1.76
7999.00,1.76
7998.00,1.76
7997.00,1.77
7996.00,1.77
7995.00,1.77
7994.00,1.78
7993.00,1.78
7992.00,1.78
7991.00,1.79
7990.00,1.79
7989.00,1.80
7988.00,1.80
7987.00,1.80
7986.00,1.81
7985.00,1.81
7984.00,1.82
7983.00,1.82
7982.00,1.82
7981.00,1.82
7980.00,1.83
7979.00,1.83
7978.00,1.83
7977.00,1.83
7976.00,1.83
7975.00,1.83
7974.00,1.84
7973.00,1.84
7972.00,1.84
7971.00,1.84
7970.00,1.84
7969.00,1.84
7968.00,1.84
7967.00,1.83
7966.00,1.83
7965.00,1.83
7964.00,1.83
7963.00,1.83
7962.00,1.83
7961.00,1.82
7960.00,1.82
7959.00,1.82
7958.00,1.82
7957.00,1.82
7956.00,1.82
7955.00,1.82
7954.00,1.82
7953.00,1.83
7952.00,1.83
7951.00,1.83
7950.00,1.83
7949.00,1.83
7948.00,1.83
7947.00,1.84
7946.00,1.84
7945.00,1.84
7944.00,1.84
7943.00,1.84
7942.00,1.84
7941.00,1.84
7940.00,1.84
7939.00,1.84
7938.00,1.84
7937.00,1.84
7936.00,1.84
7935.00,1.84
7934.00,1.84
7933.00,1.84
7932.00,1.83
7931.00,1.83
7930.00,1.83
7929.00,1.83
7928.00,1.83
7927.00,1.83
7926.00,1.83
7925.00,1.83
7924.00,1.83
7923.00,1.83
7922.00,1.83
7921.00,1.83
7920.00,1.83
7919.00,1.83
7918.00,1.83
7917.00,1.83
7916.00,1.83
7915.00,1.83
7914.00,1.83
7913.00,1.83
7912.00,1.83
7911.00,1.84
7910.00,1.84
7909.00,1.84
7908.00,1.84
7907.00,1.84
7906.00,1.84
7905.00,1.84
7904.00,1.85
7903.00,1.85
7902.00,1.85
7901.00,1.85
7900.00,1.85
7899.00,1.85
7898.00,1.85
7897.00,1.85
7896.00,1.85
7895.00,1.85
7894.00,1.85
7893.00,1.85
7892.00,1.85
7891.00,1.85
7890.00,1.85
7889.00,1.85
7888.00,1.85
7887.00,1.85
7886.00,1.85
7885.00,1.85
7884.00,1.85
7883.00,1.85
7882.00,1.85
7881.00,1.85
7880.00,1.84
7879.00,1.84
7878.00,1.84
7877.00,1.84
7876.00,1.84
7875.00,1.84
7874.00,1.84
7873.00,1.84
7872.00,1.84
7871.00,1.84
7870.00,1.84
7869.00,1.84
7868.00,1.84
7867.00,1.84
7866.00,1.84
7865.00,1.84
7864.00,1.84
7863.00,1.84
7862.00,1.84
7861.00,1.84
7860.00,1.84
7859.00,1.84
7858.00,1.84
7857.00,1.84
7856.00,1.84
7855.00,1.84
7854.00,1.85
7853.00,1.85
7852.00,1.86
7851.00,1.86
7850.00,1.87
7849.00,1.87
7848.00,1.88
7847.00,1.88
7846.00,1.89
7845.00,1.89
7844.00,1.90
7843.00,1.90
7842.00,1.91
7841.00,1.91
7840.00,1.91
7839.00,1.92
7838.00,1.92
7837.00,1.93
7836.00,1.93
7835.00,1.93
7834.00,1.94
7833.00,1.94
7832.00,1.94
7831.00,1.94
7830.00,1.94
7829.00,1.94
7828.00,1.94
7827.00,1.94
7826.00,1.94
7825.00,1.93
7824.00,1.93
7823.00,1.93
7822.00,1.92
7821.00,1.92
7820.00,1.92
7819.00,1.91
7818.00,1.91
7817.00,1.91
7816.00,1.90
7815.00,1.90
7814.00,1.90
7813.00,1.90
7812.00,1.89
7811.00,1.89
7810.00,1.89
7809.00,1.88
7808.00,1.88
7807.00,1.88
7806.00,1.88
7805.00,1.87
7804.00,1.87
7803.00,1.87
7802.00,1.87
7801.00,1.87
7800.00,1.86
7799.00,1.86
7798.00,1.86
7797.00,1.86
7796.00,1.86
7795.00,1.86
7794.00,1.86
7793.00,1.86
7792.00,1.86
7791.00,1.86
7790.00,1.85
7789.00,1.85
7788.00,1.85
7787.00,1.85
7786.00,1.85
7785.00,1.85
7784.00,1.85
7783.00,1.85
7782.00,1.85
7781.00,1.85
7780.00,1.85
7779.00,1.85
7778.00,1.85
7777.00,1.86
7776.00,1.86
7775.00,1.86
7774.00,1.86
7773.00,1.87
7772.00,1.87
7771.00,1.87
7770.00,1.88
7769.00,1.88
7768.00,1.88
7767.00,1.89
7766.00,1.89
7765.00,1.90
7764.00,1.90
7763.00,1.90
7762.00,1.91
7761.00,1.91
7760.00,1.91
7759.00,1.92
7758.00,1.92
7757.00,1.92
7756.00,1.93
7755.00,1.93
7754.00,1.93
7753.00,1.94
7752.00,1.94
7751.00,1.94
7750.00,1.94
7749.00,1.94
7748.00,1.94
7747.00,1.94
7746.00,1.94
7745.00,1.94
7744.00,1.94
7743.00,1.93
7742.00,1.93
7741.00,1.93
7740.00,1.93
7739.00,1.92
7738.00,1.92
7737.00,1.92
7736.00,1.91
7735.00,1.91
7734.00,1.90
7733.00,1.90
7732.00,1.89
7731.00,1.89
7730.00,1.88
7729.00,1.88
7728.00,1.87
7727.00,1.87
7726.00,1.87
7725.00,1.86
7724.00,1.86
7723.00,1.86
7722.00,1.86
7721.00,1.85
7720.00,1.85
7719.00,1.85
7718.00,1.85
7717.00,1.85
7716.00,1.85
7715.00,1.84
7714.00,1.84
7713.00,1.85
7712.00,1.85
7711.00,1.85
7710.00,1.85
7709.00,1.85
7708.00,1.86
7707.00,1.86
7706.00,1.86
7705.00,1.87
7704.00,1.87
7703.00,1.88
7702.00,1.88
7701.00,1.88
7700.00,1.89
7699.00,1.89
7698.00,1.89
7697.00,1.90
7696.00,1.90
7695.00,1.90
7694.00,1.91
7693.00,1.91
7692.00,1.91
7691.00,1.92
7690.00,1.92
7689.00,1.93
7688.00,1.93
7687.00,1.93
7686.00,1.94
7685.00,1.94
7684.00,1.94
7683.00,1.94
7682.00,1.94
7681.00,1.95
7680.00,1.95
7679.00,1.95
7678.00,1.95
7677.00,1.95
7676.00,1.95
7675.00,1.95
7674.00,1.95
7673.00,1.95
7672.00,1.95
7671.00,1.95
7670.00,1.95
7669.00,1.95
7668.00,1.95
7667.00,1.95
7666.00,1.94
7665.00,1.94
7664.00,1.94
7663.00,1.94
7662.00,1.94
7661.00,1.94
7660.00,1.93
7659.00,1.93
7658.00,1.93
7657.00,1.93
7656.00,1.93
7655.00,1.93
7654.00,1.93
7653.00,1.93
7652.00,1.93
7651.00,1.93
7650.00,1.93
7649.00,1.93
7648.00,1.93
7647.00,1.93
7646.00,1.93
7645.00,1.93
7644.00,1.93
7643.00,1.93
7642.00,1.93
7641.00,1.93
7640.00,1.93
7639.00,1.93
7638.00,1.93
7637.00,1.93
7636.00,1.93
7635.00,1.93
7634.00,1.94
7633.00,1.94
7632.00,1.94
7631.00,1.94
7630.00,1.94
7629.00,1.94
7628.00,1.94
7627.00,1.94
7626.00,1.94
7625.00,1.94
7624.00,1.94
7623.00,1.94
7622.00,1.94
7621.00,1.94
7620.00,1.94
7619.00,1.94
7618.00,1.95
7617.00,1.95
7616.00,1.95
7615.00,1.95
7614.00,1.95
7613.00,1.95
7612.00,1.95
7611.00,1.95
7610.00,1.95
7609.00,1.95
7608.00,1.96
7607.00,1.96
7606.00,1.96
7605.00,1.96
7604.00,1.97
7603.00,1.97
7602.00,1.97
7601.00,1.97
7600.00,1.98
7599.00,1.98
7598.00,1.98
7597.00,1.99
7596.00,1.99
7595.00,1.99
7594.00,1.99
7593.00,1.99
7592.00,1.99
7591.00,1.99
7590.00,1.99
7589.00,1.99
7588.00,1.99
7587.00,1.99
7586.00,1.98
7585.00,1.98
7584.00,1.98
7583.00,1.97
7582.00,1.97
7581.00,1.97
7580.00,1.96
7579.00,1.96
7578.00,1.95
7577.00,1.95
7576.00,1.94
7575.00,1.94
7574.00,1.93
7573.00,1.92
7572.00,1.92
7571.00,1.92
7570.00,1.91
7569.00,1.91
7568.00,1.90
7567.00,1.90
7566.00,1.90
7565.00,1.90
7564.00,1.89
7563.00,1.89
7562.00,1.89
7561.00,1.89
7560.00,1.89
7559.00,1.89
7558.00,1.89
7557.00,1.89
7556.00,1.89
7555.00,1.89
7554.00,1.89
7553.00,1.90
7552.00,1.90
7551.00,1.90
7550.00,1.90
7549.00,1.90
7548.00,1.90
7547.00,1.90
7546.00,1.90
7545.00,1.90
7544.00,1.90
7543.00,1.90
7542.00,1.90
7541.00,1.90
7540.00,1.90
7539.00,1.90
7538.00,1.90
7537.00,1.90
7536.00,1.89
7535.00,1.89
7534.00,1.89
7533.00,1.88
7532.00,1.88
7531.00,1.88
7530.00,1.87
7529.00,1.87
7528.00,1.86
7527.00,1.86
7526.00,1.85
7525.00,1.85
7524.00,1.84
7523.00,1.84
7522.00,1.83
7521.00,1.83
7520.00,1.82
7519.00,1.82
7518.00,1.82
7517.00,1.81
7516.00,1.81
7515.00,1.80
7514.00,1.80
7513.00,1.80
7512.00,1.79
7511.00,1.79
7510.00,1.79
7509.00,1.79
7508.00,1.79
7507.00,1.79
7506.00,1.79
7505.00,1.79
7504.00,1.79
7503.00,1.79
7502.00,1.79
7501.00,1.79
7500.00,1.80
7499.00,1.80
7498.00,1.80
7497.00,1.81
7496.00,1.81
7495.00,1.81
7494.00,1.81
7493.00,1.82
7492.00,1.82
7491.00,1.82
7490.00,1.83
7489.00,1.83
7488.00,1.83
7487.00,1.83
7486.00,1.83
7485.00,1.83
7484.00,1.83
7483.00,1.83
7482.00,1.83
7481.00,1.83
7480.00,1.83
7479.00,1.83
7478.00,1.82
7477.00,1.82
7476.00,1.82
7475.00,1.82
7474.00,1.81
7473.00,1.81
7472.00,1.81
7471.00,1.80
7470.00,1.80
7469.00,1.80
7468.00,1.80
7467.00,1.79
7466.00,1.79
7465.00,1.79
7464.00,1.79
7463.00,1.79
7462.00,1.79
7461.00,1.79
7460.00,1.79
7459.00,1.79
7458.00,1.79
7457.00,1.79
7456.00,1.80
7455.00,1.80
7454.00,1.80
7453.00,1.81
7452.00,1.81
7451.00,1.81
7450.00,1.82
7449.00,1.82
7448.00,1.82
7447.00,1.83
7446.00,1.83
7445.00,1.83
7444.00,1.83
7443.00,1.84
7442.00,1.84
7441.00,1.84
7440.00,1.84
7439.00,1.84
7438.00,1.84
7437.00,1.84
7436.00,1.84
7435.00,1.84
7434.00,1.84
7433.00,1.84
7432.00,1.84
7431.00,1.83
7430.00,1.83
7429.00,1.83
7428.00,1.83
7427.00,1.83
7426.00,1.83
7425.00,1.83
7424.00,1.83
7423.00,1.83
7422.00,1.83
7421.00,1.83
7420.00,1.83
7419.00,1.83
7418.00,1.83
7417.00,1.84
7416.00,1.84
7415.00,1.84
7414.00,1.85
7413.00,1.85
7412.00,1.85
7411.00,1.85
7410.00,1.86
7409.00,1.86
7408.00,1.86
7407.00,1.86
7406.00,1.87
7405.00,1.87
7404.00,1.87
7403.00,1.87
7402.00,1.87
7401.00,1.87
7400.00,1.87
7399.00,1.87
7398.00,1.87
7397.00,1.88
7396.00,1.88
7395.00,1.88
7394.00,1.88
7393.00,1.88
7392.00,1.88
7391.00,1.88
7390.00,1.87
7389.00,1.87
7388.00,1.87
7387.00,1.87
7386.00,1.87
7385.00,1.87
7384.00,1.87
7383.00,1.87
7382.00,1.87
7381.00,1.87
7380.00,1.86
7379.00,1.86
7378.00,1.86
7377.00,1.86
7376.00,1.86
7375.00,1.85
7374.00,1.85
7373.00,1.85
7372.00,1.84
7371.00,1.84
7370.00,1.84
7369.00,1.83
7368.00,1.83
7367.00,1.83
7366.00,1.82
7365.00,1.82
7364.00,1.82
7363.00,1.81
7362.00,1.81
7361.00,1.81
7360.00,1.80
7359.00,1.80
7358.00,1.80
7357.00,1.79
7356.00,1.79
7355.00,1.79
7354.00,1.78
7353.00,1.78
7352.00,1.78
7351.00,1.78
7350.00,1.78
7349.00,1.78
7348.00,1.78
7347.00,1.78
7346.00,1.78
7345.00,1.78
7344.00,1.78
7343.00,1.78
7342.00,1.78
7341.00,1.78
7340.00,1.78
7339.00,1.78
7338.00,1.78
7337.00,1.78
7336.00,1.78
7335.00,1.78
7334.00,1.78
7333.00,1.78
7332.00,1.78
7331.00,1.77
7330.00,1.77
7329.00,1.77
7328.00,1.77
7327.00,1.77
7326.00,1.76
7325.00,1.76
7324.00,1.76
7323.00,1.76
7322.00,1.75
7321.00,1.75
7320.00,1.75
7319.00,1.74
7318.00,1.74
7317.00,1.74
7316.00,1.73
7315.00,1.73
7314.00,1.73
7313.00,1.72
7312.00,1.72
7311.00,1.72
7310.00,1.71
7309.00,1.71
7308.00,1.71
7307.00,1.70
7306.00,1.70
7305.00,1.69
7304.00,1.69
7303.00,1.69
7302.00,1.68
7301.00,1.68
7300.00,1.68
7299.00,1.68
7298.00,1.67
7297.00,1.67
7296.00,1.67
7295.00,1.66
7294.00,1.66
7293.00,1.66
7292.00,1.66
7291.00,1.66
7290.00,1.65
7289.00,1.65
7288.00,1.65
7287.00,1.65
7286.00,1.65
7285.00,1.65
7284.00,1.65
7283.00,1.65
7282.00,1.66
7281.00,1.66
7280.00,1.66
7279.00,1.66
7278.00,1.67
7277.00,1.67
7276.00,1.67
7275.00,1.68
7274.00,1.68
7273.00,1.68
7272.00,1.68
7271.00,1.69
7270.00,1.69
7269.00,1.69
7268.00,1.69
7267.00,1.69
7266.00,1.70
7265.00,1.70
7264.00,1.69
7263.00,1.69
7262.00,1.69
7261.00,1.69
7260.00,1.69
7259.00,1.68
7258.00,1.68
7257.00,1.68
7256.00,1.67
7255.00,1.67
7254.00,1.66
7253.00,1.66
7252.00,1.65
7251.00,1.64
7250.00,1.63
7249.00,1.63
7248.00,1.62
7247.00,1.61
7246.00,1.60
7245.00,1.59
7244.00,1.59
7243.00,1.58
7242.00,1.57
7241.00,1.57
7240.00,1.56
7239.00,1.55
7238.00,1.55
7237.00,1.54
7236.00,1.54
7235.00,1.54
7234.00,1.53
7233.00,1.53
7232.00,1.52
7231.00,1.52
7230.00,1.51
7229.00,1.51
7228.00,1.51
7227.00,1.50
7226.00,1.50
7225.00,1.50
7224.00,1.49
7223.00,1.49
7222.00,1.49
7221.00,1.49
7220.00,1.48
7219.00,1.48
7218.00,1.48
7217.00,1.48
7216.00,1.47
7215.00,1.47
7214.00,1.47
7213.00,1.46
7212.00,1.46
7211.00,1.45
7210.00,1.45
7209.00,1.44
7208.00,1.44
7207.00,1.43
7206.00,1.43
7205.00,1.42
7204.00,1.42
7203.00,1.41
7202.00,1.41
7201.00,1.40
7200.00,1.39
7199.00,1.39
7198.00,1.38
7197.00,1.37
7196.00,1.37
7195.00,1.36
7194.00,1.35
7193.00,1.34
7192.00,1.34
7191.00,1.33
7190.00,1.32
7189.00,1.31
7188.00,1.31
7187.00,1.30
7186.00,1.29
7185.00,1.29
7184.00,1.28
7183.00,1.27
7182.00,1.27
7181.00,1.26
7180.00,1.26
7179.00,1.25
7178.00,1.24
7177.00,1.24
7176.00,1.23
7175.00,1.23
7174.00,1.22
7173.00,1.22
7172.00,1.21
7171.00,1.21
7170.00,1.21
7169.00,1.20
7168.00,1.20
7167.00,1.19
7166.00,1.19
7165.00,1.18
7164.00,1.18
7163.00,1.17
7162.00,1.17
7161.00,1.16
7160.00,1.16
7159.00,1.15
7158.00,1.15
7157.00,1.14
7156.00,1.14
7155.00,1.13
7154.00,1.12
7153.00,1.12
7152.00,1.11
7151.00,1.11
7150.00,1.10
7149.00,1.09
7148.00,1.09
7147.00,1.08
7146.00,1.08
7145.00,1.07
7144.00,1.07
7143.00,1.06
7142.00,1.06
7141.00,1.06
7140.00,1.05
7139.00,1.05
7138.00,1.05
7137.00,1.05
7136.00,1.05
7135.00,1.05
7134.00,1.04
7133.00,1.04
7132.00,1.04
7131.00,1.04
7130.00,1.04
7129.00,1.04
7128.00,1.04
7127.00,1.04
7126.00,1.04
7125.00,1.04
7124.00,1.04
7123.00,1.04
7122.00,1.04
7121.00,1.04
7120.00,1.04
7119.00,1.04
7118.00,1.04
7117.00,1.04
7116.00,1.04
7115.00,1.03
7114.00,1.03
7113.00,1.03
7112.00,1.02
7111.00,1.02
7110.00,1.02
7109.00,1.01
7108.00,1.01
7107.00,1.01
7106.00,1.00
7105.00,1.00
7104.00,0.99
7103.00,0.99
7102.00,0.98
7101.00,0.98
7100.00,0.97
7099.00,0.97
7098.00,0.96
7097.00,0.96
7096.00,0.95
7095.00,0.95
7094.00,0.94
7093.00,0.94
7092.00,0.94
7091.00,0.93
7090.00,0.93
7089.00,0.93
7088.00,0.93
7087.00,0.92
7086.00,0.92
7085.00,0.92
7084.00,0.92
7083.00,0.92
7082.00,0.92
7081.00,0.91
7080.00,0.91
7079.00,0.91
7078.00,0.91
7077.00,0.91
7076.00,0.91
7075.00,0.91
7074.00,0.91
7073.00,0.91
7072.00,0.92
7071.00,0.92
7070.00,0.92
7069.00,0.92
7068.00,0.92
7067.00,0.92
7066.00,0.92
7065.00,0.92
7064.00,0.92
7063.00,0.92
7062.00,0.92
7061.00,0.91
7060.00,0.91
7059.00,0.91
7058.00,0.91
7057.00,0.91
7056.00,0.91
7055.00,0.91
7054.00,0.91
7053.00,0.91
7052.00,0.91
7051.00,0.91
7050.00,0.91
7049.00,0.91
7048.00,0.91
7047.00,0.91
7046.00,0.91
7045.00,0.91
7044.00,0.91
7043.00,0.91
7042.00,0.91
7041.00,0.91
7040.00,0.90
7039.00,0.90
7038.00,0.90
7037.00,0.90
7036.00,0.90
7035.00,0.90
7034.00,0.90
7033.00,0.90
7032.00,0.90
7031.00,0.90
7030.00,0.90
7029.00,0.89
7028.00,0.89
7027.00,0.89
7026.00,0.88
7025.00,0.88
7024.00,0.87
7023.00,0.87
7022.00,0.86
7021.00,0.86
7020.00,0.85
7019.00,0.84
7018.00,0.84
7017.00,0.83
7016.00,0.83
7015.00,0.83
7014.00,0.82
7013.00,0.82
7012.00,0.81
7011.00,0.81
7010.00,0.80
7009.00,0.80
7008.00,0.79
7007.00,0.79
7006.00,0.78
7005.00,0.78
7004.00,0.77
7003.00,0.77
7002.00,0.77
7001.00,0.76
7000.00,0.76
6999.00,0.76
6998.00,0.76
6997.00,0.75
6996.00,0.75
6995.00,0.75
6994.00,0.75
6993.00,0.75
6992.00,0.75
6991.00,0.75
6990.00,0.75
6989.00,0.75
6988.00,0.75
6987.00,0.75
6986.00,0.76
6985.00,0.76
6984.00,0.76
6983.00,0.76
6982.00,0.76
6981.00,0.77
6980.00,0.77
6979.00,0.77
6978.00,0.78
6977.00,0.78
6976.00,0.78
6975.00,0.79
6974.00,0.79
6973.00,0.79
6972.00,0.80
6971.00,0.80
6970.00,0.80
6969.00,0.81
6968.00,0.81
6967.00,0.81
6966.00,0.81
6965.00,0.82
6964.00,0.82
6963.00,0.82
6962.00,0.82
6961.00,0.82
6960.00,0.82
6959.00,0.82
6958.00,0.82
6957.00,0.82
6956.00,0.82
6955.00,0.82
6954.00,0.82
6953.00,0.82
6952.00,0.82
6951.00,0.82
6950.00,0.81
6949.00,0.81
6948.00,0.81
6947.00,0.81
6946.00,0.81
6945.00,0.81
6944.00,0.80
6943.00,0.80
6942.00,0.80
6941.00,0.80
6940.00,0.80
6939.00,0.79
6938.00,0.79
6937.00,0.79
6936.00,0.79
6935.00,0.79
6934.00,0.79
6933.00,0.79
6932.00,0.78
6931.00,0.78
6930.00,0.78
6929.00,0.78
6928.00,0.77
6927.00,0.77
6926.00,0.77
6925.00,0.76
6924.00,0.76
6923.00,0.76
6922.00,0.76
6921.00,0.75
6920.00,0.75
6919.00,0.75
6918.00,0.74
6917.00,0.74
6916.00,0.74
6915.00,0.74
6914.00,0.73
6913.00,0.73
6912.00,0.73
6911.00,0.73
6910.00,0.72
6909.00,0.72
6908.00,0.72
6907.00,0.72
6906.00,0.72
6905.00,0.71
6904.00,0.71
6903.00,0.71
6902.00,0.71
6901.00,0.72
6900.00,0.72
6899.00,0.72
6898.00,0.72
6897.00,0.72
6896.00,0.72
6895.00,0.72
6894.00,0.73
6893.00,0.73
6892.00,0.73
6891.00,0.73
6890.00,0.73
6889.00,0.74
6888.00,0.74
6887.00,0.74
6886.00,0.74
6885.00,0.74
6884.00,0.75
6883.00,0.75
6882.00,0.75
6881.00,0.75
6880.00,0.75
6879.00,0.76
6878.00,0.76
6877.00,0.76
6876.00,0.76
6875.00,0.76
6874.00,0.76
6873.00,0.76
6872.00,0.76
6871.00,0.76
6870.00,0.77
6869.00,0.77
6868.00,0.77
6867.00,0.77
6866.00,0.77
6865.00,0.77
6864.00,0.77
6863.00,0.77
6862.00,0.77
6861.00,0.77
6860.00,0.78
6859.00,0.78
6858.00,0.78
6857.00,0.78
6856.00,0.78
6855.00,0.78
6854.00,0.78
6853.00,0.78
6852.00,0.78
6851.00,0.78
6850.00,0.78
6849.00,0.78
6848.00,0.78
6847.00,0.78
6846.00,0.78
6845.00,0.78
6844.00,0.78
6843.00,0.78
6842.00,0.77
6841.00,0.77
6840.00,0.77
6839.00,0.77
6838.00,0.77
6837.00,0.77
6836.00,0.77
6835.00,0.77
6834.00,0.77
6833.00,0.77
6832.00,0.77
6831.00,0.77
6830.00,0.77
6829.00,0.77
6828.00,0.77
6827.00,0.77
6826.00,0.77
6825.00,0.78
6824.00,0.78
6823.00,0.78
6822.00,0.78
6821.00,0.78
6820.00,0.78
6819.00,0.78
6818.00,0.78
6817.00,0.78
6816.00,0.78
6815.00,0.78
6814.00,0.78
6813.00,0.78
6812.00,0.78
6811.00,0.78
6810.00,0.78
6809.00,0.78
6808.00,0.78
6807.00,0.78
6806.00,0.78
6805.00,0.78
6804.00,0.78
6803.00,0.78
6802.00,0.77
6801.00,0.77
6800.00,0.77
6799.00,0.76
6798.00,0.76
6797.00,0.76
6796.00,0.76
6795.00,0.76
6794.00,0.75
6793.00,0.75
6792.00,0.75
6791.00,0.75
6790.00,0.75
6789.00,0.75
6788.00,0.75
6787.00,0.75
6786.00,0.75
6785.00,0.76
6784.00,0.76
6783.00,0.76
6782.00,0.76
6781.00,0.76
6780.00,0.76
6779.00,0.76
6778.00,0.77
6777.00,0.77
6776.00,0.77
6775.00,0.78
6774.00,0.78
6773.00,0.78
6772.00,0.79
6771.00,0.79
6770.00,0.80
6769.00,0.80
6768.00,0.81
6767.00,0.81
6766.00,0.82
6765.00,0.82
6764.00,0.82
6763.00,0.83
6762.00,0.83
6761.00,0.83
6760.00,0.83
6759.00,0.84
6758.00,0.84
6757.00,0.84
6756.00,0.84
6755.00,0.85
6754.00,0.85
6753.00,0.85
6752.00,0.85
6751.00,0.86
6750.00,0.86
6749.00,0.86
6748.00,0.86
6747.00,0.86
6746.00,0.86
6745.00,0.86
6744.00,0.86
6743.00,0.86
6742.00,0.86
6741.00,0.86
6740.00,0.86
6739.00,0.86
6738.00,0.86
6737.00,0.86
6736.00,0.86
6735.00,0.87
6734.00,0.87
6733.00,0.87
6732.00,0.87
6731.00,0.87
6730.00,0.87
6729.00,0.87
6728.00,0.87
6727.00,0.87
6726.00,0.86
6725.00,0.86
6724.00,0.86
6723.00,0.86
6722.00,0.86
6721.00,0.85
6720.00,0.85
6719.00,0.85
6718.00,0.85
6717.00,0.85
6716.00,0.85
6715.00,0.84
6714.00,0.84
6713.00,0.84
6712.00,0.84
6711.00,0.84
6710.00,0.83
6709.00,0.83
6708.00,0.83
6707.00,0.83
6706.00,0.83
6705.00,0.82
6704.00,0.82
6703.00,0.82
6702.00,0.82
6701.00,0.82
6700.00,0.82
6699.00,0.82
6698.00,0.82
6697.00,0.82
6696.00,0.82
6695.00,0.83
6694.00,0.83
6693.00,0.83
6692.00,0.83
6691.00,0.83
6690.00,0.84
6689.00,0.84
6688.00,0.84
6687.00,0.84
6686.00,0.84
6685.00,0.84
6684.00,0.85
6683.00,0.85
6682.00,0.85
6681.00,0.85
6680.00,0.85
6679.00,0.86
6678.00,0.86
6677.00,0.86
6676.00,0.86
6675.00,0.87
6674.00,0.87
6673.00,0.87
6672.00,0.87
6671.00,0.88
6670.00,0.88
6669.00,0.88
6668.00,0.88
6667.00,0.89
6666.00,0.89
6665.00,0.89
6664.00,0.90
6663.00,0.90
6662.00,0.90
6661.00,0.91
6660.00,0.91
6659.00,0.92
6658.00,0.92
6657.00,0.92
6656.00,0.93
6655.00,0.93
6654.00,0.94
6653.00,0.94
6652.00,0.94
6651.00,0.95
6650.00,0.95
6649.00,0.95
6648.00,0.96
6647.00,0.96
6646.00,0.96
6645.00,0.97
6644.00,0.97
6643.00,0.97
6642.00,0.97
6641.00,0.98
6640.00,0.98
6639.00,0.98
6638.00,0.98
6637.00,0.98
6636.00,0.98
6635.00,0.98
6634.00,0.98
6633.00,0.98
6632.00,0.98
6631.00,0.98
6630.00,0.98
6629.00,0.98
6628.00,0.98
6627.00,0.98
6626.00,0.98
6625.00,0.97
6624.00,0.97
6623.00,0.97
6622.00,0.97
6621.00,0.97
6620.00,0.97
6619.00,0.97
6618.00,0.97
6617.00,0.97
6616.00,0.97
6615.00,0.97
6614.00,0.97
6613.00,0.97
6612.00,0.97
6611.00,0.97
6610.00,0.98
6609.00,0.98
6608.00,0.98
6607.00,0.99
6606.00,0.99
6605.00,0.99
6604.00,0.99
6603.00,1.00
6602.00,1.00
6601.00,1.00
6600.00,1.01
6599.00,1.01
6598.00,1.01
6597.00,1.01
6596.00,1.02
6595.00,1.02
6594.00,1.02
6593.00,1.03
6592.00,1.03
6591.00,1.03
6590.00,1.04
6589.00,1.04
6588.00,1.05
6587.00,1.05
6586.00,1.05
6585.00,1.06
6584.00,1.06
6583.00,1.06
6582.00,1.06
6581.00,1.06
6580.00,1.06
6579.00,1.06
6578.00,1.06
6577.00,1.06
6576.00,1.06
6575.00,1.06
6574.00,1.06
6573.00,1.06
6572.00,1.06
6571.00,1.06
6570.00,1.06
6569.00,1.06
6568.00,1.06
6567.00,1.06
6566.00,1.06
6565.00,1.05
6564.00,1.05
6563.00,1.05
6562.00,1.05
6561.00,1.05
6560.00,1.05
6559.00,1.04
6558.00,1.04
6557.00,1.04
6556.00,1.04
6555.00,1.04
6554.00,1.04
6553.00,1.04
6552.00,1.04
6551.00,1.04
6550.00,1.04
6549.00,1.04
6548.00,1.04
6547.00,1.04
6546.00,1.04
6545.00,1.04
6544.00,1.05
6543.00,1.05
6542.00,1.05
6541.00,1.05
6540.00,1.06
6539.00,1.06
6538.00,1.06
6537.00,1.06
6536.00,1.06
6535.00,1.07
6534.00,1.07
6533.00,1.07
6532.00,1.07
6531.00,1.07
6530.00,1.08
6529.00,1.08
6528.00,1.08
6527.00,1.08
6526.00,1.08
6525.00,1.08
6524.00,1.08
6523.00,1.09
6522.00,1.09
6521.00,1.09
6520.00,1.09
6519.00,1.09
6518.00,1.09
6517.00,1.09
6516.00,1.09
6515.00,1.09
6514.00,1.09
6513.00,1.09
6512.00,1.09
6511.00,1.09
6510.00,1.09
6509.00,1.08
6508.00,1.08
6507.00,1.08
6506.00,1.08
6505.00,1.08
6504.00,1.08
6503.00,1.08
6502.00,1.08
6501.00,1.08
6500.00,1.08
6499.00,1.07
6498.00,1.07
6497.00,1.07
6496.00,1.07
6495.00,1.07
6494.00,1.07
6493.00,1.07
6492.00,1.07
6491.00,1.07
6490.00,1.07
6489.00,1.07
6488.00,1.07
6487.00,1.08
6486.00,1.08
6485.00,1.08
6484.00,1.08
6483.00,1.09
6482.00,1.09
6481.00,1.09
6480.00,1.10
6479.00,1.10
6478.00,1.10
6477.00,1.10
6476.00,1.11
6475.00,1.11
6474.00,1.11
6473.00,1.11
6472.00,1.12
6471.00,1.12
6470.00,1.12
6469.00,1.12
6468.00,1.13
6467.00,1.13
6466.00,1.13
6465.00,1.13
6464.00,1.14
6463.00,1.14
6462.00,1.14
6461.00,1.14
6460.00,1.14
6459.00,1.14
6458.00,1.14
6457.00,1.14
6456.00,1.15
6455.00,1.15
6454.00,1.15
6453.00,1.15
6452.00,1.15
6451.00,1.15
6450.00,1.15
6449.00,1.16
6448.00,1.16
6447.00,1.16
6446.00,1.16
6445.00,1.17
6444.00,1.17
6443.00,1.17
6442.00,1.17
6441.00,1.17
6440.00,1.17
6439.00,1.18
6438.00,1.18
6437.00,1.18
6436.00,1.18
6435.00,1.18
6434.00,1.18
6433.00,1.18
6432.00,1.18
6431.00,1.18
6430.00,1.18
6429.00,1.18
6428.00,1.18
6427.00,1.18
6426.00,1.17
6425.00,1.17
6424.00,1.17
6423.00,1.17
6422.00,1.17
6421.00,1.17
6420.00,1.16
6419.00,1.16
6418.00,1.16
6417.00,1.16
6416.00,1.16
6415.00,1.16
6414.00,1.16
6413.00,1.16
6412.00,1.16
6411.00,1.17
6410.00,1.17
6409.00,1.17
6408.00,1.17
6407.00,1.17
6406.00,1.18
6405.00,1.18
6404.00,1.18
6403.00,1.19
6402.00,1.19
6401.00,1.19
6400.00,1.20
6399.00,1.20
6398.00,1.20
6397.00,1.21
6396.00,1.21
6395.00,1.21
6394.00,1.22
6393.00,1.22
6392.00,1.22
6391.00,1.22
6390.00,1.23
6389.00,1.23
6388.00,1.23
6387.00,1.23
6386.00,1.23
6385.00,1.23
6384.00,1.23
6383.00,1.23
6382.00,1.23
6381.00,1.23
6380.00,1.24
6379.00,1.24
6378.00,1.24
6377.00,1.24
6376.00,1.24
6375.00,1.24
6374.00,1.24
6373.00,1.24
6372.00,1.24
6371.00,1.24
6370.00,1.24
6369.00,1.24
6368.00,1.24
6367.00,1.24
6366.00,1.25
6365.00,1.25
6364.00,1.25
6363.00,1.25
6362.00,1.26
6361.00,1.26
6360.00,1.26
6359.00,1.27
6358.00,1.27
6357.00,1.27
6356.00,1.28
6355.00,1.28
6354.00,1.28
6353.00,1.28
6352.00,1.28
6351.00,1.28
6350.00,1.28
6349.00,1.29
6348.00,1.29
6347.00,1.29
6346.00,1.29
6345.00,1.29
6344.00,1.29
6343.00,1.29
6342.00,1.29
6341.00,1.29
6340.00,1.29
6339.00,1.29
6338.00,1.29
6337.00,1.29
6336.00,1.28
6335.00,1.28
6334.00,1.28
6333.00,1.28
6332.00,1.28
6331.00,1.28
6330.00,1.28
6329.00,1.28
6328.00,1.27
6327.00,1.28
6326.00,1.28
6325.00,1.28
6324.00,1.28
6323.00,1.28
6322.00,1.28
6321.00,1.28
6320.00,1.28
6319.00,1.28
6318.00,1.28
6317.00,1.29
6316.00,1.29
6315.00,1.29
6314.00,1.29
6313.00,1.29
6312.00,1.29
6311.00,1.29
6310.00,1.29
6309.00,1.30
6308.00,1.30
6307.00,1.30
6306.00,1.30
6305.00,1.30
6304.00,1.30
6303.00,1.30
6302.00,1.30
6301.00,1.30
6300.00,1.30
6299.00,1.30
6298.00,1.30
6297.00,1.30
6296.00,1.30
6295.00,1.30
6294.00,1.31
6293.00,1.31
6292.00,1.31
6291.00,1.31
6290.00,1.31
6289.00,1.31
6288.00,1.31
6287.00,1.32
6286.00,1.32
6285.00,1.32
6284.00,1.32
6283.00,1.33
6282.00,1.33
6281.00,1.33
6280.00,1.33
6279.00,1.34
6278.00,1.34
6277.00,1.35
6276.00,1.35
6275.00,1.36
6274.00,1.36
6273.00,1.37
6272.00,1.37
6271.00,1.38
6270.00,1.38
6269.00,1.38
6268.00,1.39
6267.00,1.39
6266.00,1.40
6265.00,1.40
6264.00,1.40
6263.00,1.41
6262.00,1.41
6261.00,1.41
6260.00,1.42
6259.00,1.42
6258.00,1.42
6257.00,1.43
6256.00,1.43
6255.00,1.43
6254.00,1.43
6253.00,1.44
6252.00,1.44
6251.00,1.44
6250.00,1.44
6249.00,1.44
6248.00,1.44
6247.00,1.44
6246.00,1.44
6245.00,1.44
6244.00,1.45
6243.00,1.45
6242.00,1.45
6241.00,1.45
6240.00,1.45
6239.00,1.45
6238.00,1.45
6237.00,1.45
6236.00,1.45
6235.00,1.45
6234.00,1.45
6233.00,1.45
6232.00,1.45
6231.00,1.45
6230.00,1.45
6229.00,1.45
6228.00,1.45
6227.00,1.45
6226.00,1.45
6225.00,1.45
6224.00,1.45
6223.00,1.45
6222.00,1.45
6221.00,1.45
6220.00,1.46
6219.00,1.46
6218.00,1.46
6217.00,1.46
6216.00,1.46
6215.00,1.46
6214.00,1.46
6213.00,1.46
6212.00,1.46
6211.00,1.47
6210.00,1.47
6209.00,1.47
6208.00,1.47
6207.00,1.47
6206.00,1.48
6205.00,1.48
6204.00,1.48
6203.00,1.49
6202.00,1.49
6201.00,1.49
6200.00,1.49
6199.00,1.50
6198.00,1.50
6197.00,1.50
6196.00,1.51
6195.00,1.51
6194.00,1.51
6193.00,1.51
6192.00,1.52
6191.00,1.52
6190.00,1.52
6189.00,1.52
6188.00,1.52
6187.00,1.53
6186.00,1.53
6185.00,1.53
6184.00,1.53
6183.00,1.53
6182.00,1.53
6181.00,1.53
6180.00,1.53
6179.00,1.54
6178.00,1.54
6177.00,1.54
6176.00,1.54
6175.00,1.54
6174.00,1.54
6173.00,1.54
6172.00,1.54
6171.00,1.54
6170.00,1.54
6169.00,1.54
6168.00,1.54
6167.00,1.54
6166.00,1.55
6165.00,1.55
6164.00,1.55
6163.00,1.55
6162.00,1.56
6161.00,1.56
6160.00,1.56
6159.00,1.56
6158.00,1.57
6157.00,1.57
6156.00,1.57
6155.00,1.58
6154.00,1.58
6153.00,1.58
6152.00,1.58
6151.00,1.59
6150.00,1.59
6149.00,1.59
6148.00,1.60
6147.00,1.60
6146.00,1.60
6145.00,1.60
6144.00,1.61
6143.00,1.61
6142.00,1.61
6141.00,1.61
6140.00,1.61
6139.00,1.62
6138.00,1.62
6137.00,1.62
6136.00,1.62
6135.00,1.62
6134.00,1.62
6133.00,1.63
6132.00,1.63
6131.00,1.63
6130.00,1.63
6129.00,1.63
6128.00,1.63
6127.00,1.63
6126.00,1.63
6125.00,1.63
6124.00,1.64
6123.00,1.64
6122.00,1.64
6121.00,1.64
6120.00,1.64
6119.00,1.64
6118.00,1.65
6117.00,1.65
6116.00,1.65
6115.00,1.65
6114.00,1.65
6113.00,1.66
6112.00,1.66
6111.00,1.66
6110.00,1.66
6109.00,1.67
6108.00,1.67
6107.00,1.67
6106.00,1.68
6105.00,1.68
6104.00,1.68
6103.00,1.69
6102.00,1.69
6101.00,1.70
6100.00,1.70
6099.00,1.70
6098.00,1.71
6097.00,1.71
6096.00,1.71
6095.00,1.72
6094.00,1.72
6093.00,1.72
6092.00,1.73
6091.00,1.73
6090.00,1.73
6089.00,1.74
6088.00,1.74
6087.00,1.75
6086.00,1.75
6085.00,1.75
6084.00,1.76
6083.00,1.76
6082.00,1.77
6081.00,1.77
6080.00,1.77
6079.00,1.77
6078.00,1.78
6077.00,1.78
6076.00,1.78
6075.00,1.79
6074.00,1.79
6073.00,1.79
6072.00,1.79
6071.00,1.80
6070.00,1.80
6069.00,1.80
6068.00,1.80
6067.00,1.81
6066.00,1.81
6065.00,1.81
6064.00,1.81
6063.00,1.81
6062.00,1.81
6061.00,1.81
6060.00,1.81
6059.00,1.81
6058.00,1.81
6057.00,1.80
6056.00,1.80
6055.00,1.80
6054.00,1.80
6053.00,1.79
6052.00,1.79
6051.00,1.79
6050.00,1.79
6049.00,1.78
6048.00,1.78
6047.00,1.78
6046.00,1.78
6045.00,1.77
6044.00,1.77
6043.00,1.77
6042.00,1.76
6041.00,1.76
6040.00,1.76
6039.00,1.76
6038.00,1.76
6037.00,1.76
6036.00,1.75
6035.00,1.75
6034.00,1.75
6033.00,1.75
6032.00,1.75
6031.00,1.76
6030.00,1.76
6029.00,1.76
6028.00,1.76
6027.00,1.76
6026.00,1.76
6025.00,1.77
6024.00,1.77
6023.00,1.77
6022.00,1.77
6021.00,1.77
6020.00,1.78
6019.00,1.78
6018.00,1.78
6017.00,1.78
6016.00,1.78
6015.00,1.78
6014.00,1.79
6013.00,1.79
6012.00,1.79
6011.00,1.79
6010.00,1.79
6009.00,1.79
6008.00,1.79
6007.00,1.79
6006.00,1.79
6005.00,1.79
6004.00,1.79
6003.00,1.79
6002.00,1.79
6001.00,1.79
6000.00,1.79
5999.00,1.79
5998.00,1.79
5997.00,1.79
5996.00,1.79
5995.00,1.79
5994.00,1.79
5993.00,1.78
5992.00,1.78
5991.00,1.78
5990.00,1.78
5989.00,1.78
5988.00,1.78
5987.00,1.78
5986.00,1.78
5985.00,1.78
5984.00,1.77
5983.00,1.77
5982.00,1.77
5981.00,1.76
5980.00,1.76
5979.00,1.76
5978.00,1.75
5977.00,1.75
5976.00,1.74
5975.00,1.74
5974.00,1.73
5973.00,1.73
5972.00,1.72
5971.00,1.71
5970.00,1.71
5969.00,1.70
5968.00,1.69
5967.00,1.69
5966.00,1.68
5965.00,1.67
5964.00,1.66
5963.00,1.65
5962.00,1.64
5961.00,1.63
5960.00,1.62
5959.00,1.61
5958.00,1.60
5957.00,1.59
5956.00,1.58
5955.00,1.57
5954.00,1.57
5953.00,1.56
5952.00,1.55
5951.00,1.54
5950.00,1.53
5949.00,1.53
5948.00,1.52
5947.00,1.51
5946.00,1.51
5945.00,1.50
5944.00,1.49
5943.00,1.49
5942.00,1.48
5941.00,1.48
5940.00,1.47
5939.00,1.47
5938.00,1.46
5937.00,1.46
5936.00,1.46
5935.00,1.45
5934.00,1.45
5933.00,1.45
5932.00,1.44
5931.00,1.44
5930.00,1.44
5929.00,1.44
5928.00,1.44
5927.00,1.43
5926.00,1.43
5925.00,1.43
5924.00,1.43
5923.00,1.42
5922.00,1.42
5921.00,1.42
5920.00,1.42
5919.00,1.41
5918.00,1.41
5917.00,1.41
5916.00,1.41
5915.00,1.41
5914.00,1.40
5913.00,1.40
5912.00,1.40
5911.00,1.40
5910.00,1.40
5909.00,1.40
5908.00,1.40
5907.00,1.40
5906.00,1.40
5905.00,1.40
5904.00,1.40
5903.00,1.40
5902.00,1.40
5901.00,1.40
5900.00,1.40
5899.00,1.40
5898.00,1.40
5897.00,1.40
5896.00,1.40
5895.00,1.40
5894.00,1.40
5893.00,1.40
5892.00,1.40
5891.00,1.41
5890.00,1.41
5889.00,1.41
5888.00,1.41
5887.00,1.42
5886.00,1.42
5885.00,1.42
5884.00,1.43
5883.00,1.43
5882.00,1.43
5881.00,1.44
5880.00,1.44
5879.00,1.44
5878.00,1.45
5877.00,1.45
5876.00,1.46
5875.00,1.46
5874.00,1.47
5873.00,1.47
5872.00,1.47
5871.00,1.48
5870.00,1.48
5869.00,1.49
5868.00,1.49
5867.00,1.50
5866.00,1.50
5865.00,1.51
5864.00,1.51
5863.00,1.51
5862.00,1.52
5861.00,1.52
5860.00,1.52
5859.00,1.53
5858.00,1.53
5857.00,1.53
5856.00,1.53
5855.00,1.54
5854.00,1.54
5853.00,1.54
5852.00,1.54
5851.00,1.54
5850.00,1.55
5849.00,1.55
5848.00,1.55
5847.00,1.55
5846.00,1.55
5845.00,1.55
5844.00,1.55
5843.00,1.55
5842.00,1.55
5841.00,1.55
5840.00,1.55
5839.00,1.55
5838.00,1.54
5837.00,1.54
5836.00,1.54
5835.00,1.54
5834.00,1.54
5833.00,1.54
5832.00,1.54
5831.00,1.54
5830.00,1.54
5829.00,1.55
5828.00,1.55
5827.00,1.55
5826.00,1.55
5825.00,1.55
5824.00,1.55
5823.00,1.55
5822.00,1.55
5821.00,1.55
5820.00,1.56
5819.00,1.56
5818.00,1.56
5817.00,1.56
5816.00,1.56
5815.00,1.56
5814.00,1.56
5813.00,1.56
5812.00,1.56
5811.00,1.56
5810.00,1.57
5809.00,1.57
5808.00,1.57
5807.00,1.57
5806.00,1.57
5805.00,1.56
5804.00,1.56
5803.00,1.56
5802.00,1.56
5801.00,1.56
5800.00,1.55
5799.00,1.55
5798.00,1.55
5797.00,1.54
5796.00,1.54
5795.00,1.54
5794.00,1.54
5793.00,1.53
5792.00,1.53
5791.00,1.53
5790.00,1.52
5789.00,1.52
5788.00,1.52
5787.00,1.52
5786.00,1.51
5785.00,1.51
5784.00,1.51
5783.00,1.50
5782.00,1.50
5781.00,1.50
5780.00,1.49
5779.00,1.49
5778.00,1.49
5777.00,1.48
5776.00,1.48
5775.00,1.48
5774.00,1.48
5773.00,1.48
5772.00,1.48
5771.00,1.48
5770.00,1.48
5769.00,1.48
5768.00,1.48
5767.00,1.47
5766.00,1.47
5765.00,1.47
5764.00,1.47
5763.00,1.47
5762.00,1.47
5761.00,1.48
5760.00,1.48
5759.00,1.48
5758.00,1.48
5757.00,1.48
5756.00,1.49
5755.00,1.49
5754.00,1.49
5753.00,1.50
5752.00,1.50
5751.00,1.50
5750.00,1.51
5749.00,1.51
5748.00,1.51
5747.00,1.52
5746.00,1.52
5745.00,1.52
5744.00,1.53
5743.00,1.53
5742.00,1.53
5741.00,1.54
5740.00,1.54
5739.00,1.55
5738.00,1.55
5737.00,1.55
5736.00,1.56
5735.00,1.56
5734.00,1.57
5733.00,1.57
5732.00,1.57
5731.00,1.57
5730.00,1.58
5729.00,1.58
5728.00,1.58
5727.00,1.58
5726.00,1.58
5725.00,1.58
5724.00,1.58
5723.00,1.59
5722.00,1.59
5721.00,1.59
5720.00,1.58
5719.00,1.58
5718.00,1.58
5717.00,1.58
5716.00,1.58
5715.00,1.58
5714.00,1.58
5713.00,1.58
5712.00,1.57
5711.00,1.57
5710.00,1.57
5709.00,1.56
5708.00,1.56
5707.00,1.56
5706.00,1.55
5705.00,1.55
5704.00,1.55
5703.00,1.54
5702.00,1.54
5701.00,1.54
5700.00,1.53
5699.00,1.53
5698.00,1.53
5697.00,1.52
5696.00,1.52
5695.00,1.52
5694.00,1.52
5693.00,1.51
5692.00,1.51
5691.00,1.51
5690.00,1.51
5689.00,1.51
5688.00,1.51
5687.00,1.51
5686.00,1.51
5685.00,1.51
5684.00,1.51
5683.00,1.51
5682.00,1.51
5681.00,1.51
5680.00,1.51
5679.00,1.51
5678.00,1.51
5677.00,1.51
5676.00,1.51
5675.00,1.51
5674.00,1.52
5673.00,1.52
5672.00,1.52
5671.00,1.52
5670.00,1.53
5669.00,1.53
5668.00,1.53
5667.00,1.54
5666.00,1.54
5665.00,1.54
5664.00,1.55
5663.00,1.55
5662.00,1.56
5661.00,1.56
5660.00,1.57
5659.00,1.57
5658.00,1.58
5657.00,1.58
5656.00,1.59
5655.00,1.59
5654.00,1.60
5653.00,1.60
5652.00,1.61
5651.00,1.61
5650.00,1.62
5649.00,1.62
5648.00,1.63
5647.00,1.63
5646.00,1.63
5645.00,1.64
5644.00,1.64
5643.00,1.64
5642.00,1.65
5641.00,1.65
5640.00,1.65
5639.00,1.65
5638.00,1.65
5637.00,1.65
5636.00,1.65
5635.00,1.65
5634.00,1.65
5633.00,1.65
5632.00,1.65
5631.00,1.65
5630.00,1.65
5629.00,1.65
5628.00,1.65
5627.00,1.65
5626.00,1.65
5625.00,1.66
5624.00,1.66
5623.00,1.66
5622.00,1.66
5621.00,1.66
5620.00,1.66
5619.00,1.66
5618.00,1.66
5617.00,1.66
5616.00,1.66
5615.00,1.66
5614.00,1.66
5613.00,1.67
5612.00,1.67
5611.00,1.67
5610.00,1.68
5609.00,1.68
5608.00,1.68
5607.00,1.68
5606.00,1.69
5605.00,1.69
5604.00,1.69
5603.00,1.69
5602.00,1.69
5601.00,1.70
5600.00,1.70
5599.00,1.70
5598.00,1.70
5597.00,1.70
5596.00,1.70
5595.00,1.70
5594.00,1.71
5593.00,1.71
5592.00,1.71
5591.00,1.71
5590.00,1.71
5589.00,1.71
5588.00,1.71
5587.00,1.72
5586.00,1.72
5585.00,1.72
5584.00,1.72
5583.00,1.72
5582.00,1.72
5581.00,1.72
5580.00,1.73
5579.00,1.73
5578.00,1.73
5577.00,1.73
5576.00,1.73
5575.00,1.74
5574.00,1.74
5573.00,1.74
5572.00,1.74
5571.00,1.75
5570.00,1.75
5569.00,1.75
5568.00,1.76
5567.00,1.76
5566.00,1.76
5565.00,1.77
5564.00,1.77
5563.00,1.77
5562.00,1.77
5561.00,1.78
5560.00,1.78
5559.00,1.78
5558.00,1.79
5557.00,1.79
5556.00,1.79
5555.00,1.79
5554.00,1.80
5553.00,1.80
5552.00,1.80
5551.00,1.80
5550.00,1.81
5549.00,1.81
5548.00,1.81
5547.00,1.81
5546.00,1.82
5545.00,1.82
5544.00,1.82
5543.00,1.82
5542.00,1.83
5541.00,1.83
5540.00,1.83
5539.00,1.83
5538.00,1.84
5537.00,1.84
5536.00,1.84
5535.00,1.84
5534.00,1.85
5533.00,1.85
5532.00,1.85
5531.00,1.85
5530.00,1.85
5529.00,1.85
5528.00,1.86
5527.00,1.86
5526.00,1.86
5525.00,1.86
5524.00,1.86
5523.00,1.86
5522.00,1.86
5521.00,1.87
5520.00,1.87
5519.00,1.87
5518.00,1.87
5517.00,1.87
5516.00,1.87
5515.00,1.87
5514.00,1.87
5513.00,1.87
5512.00,1.87
5511.00,1.87
5510.00,1.87
5509.00,1.87
5508.00,1.87
5507.00,1.87
5506.00,1.88
5505.00,1.88
5504.00,1.88
5503.00,1.88
5502.00,1.88
5501.00,1.89
5500.00,1.89
5499.00,1.89
5498.00,1.90
5497.00,1.90
5496.00,1.90
5495.00,1.90
5494.00,1.91
5493.00,1.91
5492.00,1.91
5491.00,1.92
5490.00,1.92
5489.00,1.93
5488.00,1.93
5487.00,1.93
5486.00,1.94
5485.00,1.94
5484.00,1.94
5483.00,1.95
5482.00,1.95
5481.00,1.95
5480.00,1.95
5479.00,1.96
5478.00,1.96
5477.00,1.96
5476.00,1.96
5475.00,1.96
5474.00,1.96
5473.00,1.96
5472.00,1.96
5471.00,1.97
5470.00,1.97
5469.00,1.97
5468.00,1.97
5467.00,1.97
5466.00,1.97
5465.00,1.97
5464.00,1.97
5463.00,1.97
5462.00,1.97
5461.00,1.97
5460.00,1.97
5459.00,1.97
5458.00,1.97
5457.00,1.97
5456.00,1.97
5455.00,1.97
5454.00,1.97
5453.00,1.97
5452.00,1.97
5451.00,1.97
5450.00,1.97
5449.00,1.97
5448.00,1.98
5447.00,1.98
5446.00,1.98
5445.00,1.98
5444.00,1.98
5443.00,1.98
5442.00,1.98
5441.00,1.98
5440.00,1.98
5439.00,1.99
5438.00,1.99
5437.00,1.99
5436.00,1.99
5435.00,1.99
5434.00,1.99
5433.00,1.99
5432.00,2.00
5431.00,2.00
5430.00,2.00
5429.00,2.00
5428.00,2.00
5427.00,2.00
5426.00,2.00
5425.00,2.00
5424.00,2.00
5423.00,2.00
5422.00,2.00
5421.00,2.00
5420.00,2.00
5419.00,2.00
5418.00,2.00
5417.00,1.99
5416.00,1.99
5415.00,1.99
5414.00,1.99
5413.00,1.99
5412.00,1.99
5411.00,1.99
5410.00,1.99
5409.00,1.99
5408.00,1.98
5407.00,1.98
5406.00,1.98
5405.00,1.98
5404.00,1.98
5403.00,1.97
5402.00,1.97
5401.00,1.97
5400.00,1.97
5399.00,1.97
5398.00,1.96
5397.00,1.96
5396.00,1.96
5395.00,1.96
5394.00,1.96
5393.00,1.96
5392.00,1.96
5391.00,1.95
5390.00,1.95
5389.00,1.95
5388.00,1.94
5387.00,1.94
5386.00,1.94
5385.00,1.93
5384.00,1.93
5383.00,1.92
5382.00,1.92
5381.00,1.92
5380.00,1.91
5379.00,1.91
5378.00,1.90
5377.00,1.89
5376.00,1.89
5375.00,1.88
5374.00,1.87
5373.00,1.87
5372.00,1.86
5371.00,1.85
5370.00,1.84
5369.00,1.84
5368.00,1.83
5367.00,1.82
5366.00,1.81
5365.00,1.80
5364.00,1.80
5363.00,1.79
5362.00,1.78
5361.00,1.77
5360.00,1.76
5359.00,1.75
5358.00,1.74
5357.00,1.73
5356.00,1.72
5355.00,1.71
5354.00,1.70
5353.00,1.69
5352.00,1.68
5351.00,1.67
5350.00,1.66
5349.00,1.64
5348.00,1.63
5347.00,1.62
5346.00,1.61
5345.00,1.59
5344.00,1.58
5343.00,1.57
5342.00,1.55
5341.00,1.54
5340.00,1.52
5339.00,1.51
5338.00,1.49
5337.00,1.48
5336.00,1.46
5335.00,1.44
5334.00,1.43
5333.00,1.41
5332.00,1.39
5331.00,1.38
5330.00,1.36
5329.00,1.35
5328.00,1.33
5327.00,1.32
5326.00,1.30
5325.00,1.28
5324.00,1.27
5323.00,1.25
5322.00,1.24
5321.00,1.22
5320.00,1.21
5319.00,1.20
5318.00,1.18
5317.00,1.17
5316.00,1.16
5315.00,1.14
5314.00,1.13
5313.00,1.12
5312.00,1.11
5311.00,1.10
5310.00,1.09
5309.00,1.08
5308.00,1.07
5307.00,1.06
5306.00,1.06
5305.00,1.05
5304.00,1.04
5303.00,1.03
5302.00,1.03
5301.00,1.02
5300.00,1.02
5299.00,1.01
5298.00,1.01
5297.00,1.01
5296.00,1.00
5295.00,1.00
5294.00,1.00
5293.00,0.99
5292.00,0.99
5291.00,0.99
5290.00,0.99
5289.00,0.99
5288.00,0.99
5287.00,0.99
5286.00,0.99
5285.00,0.98
5284.00,0.98
5283.00,0.98
5282.00,0.98
5281.00,0.98
5280.00,0.98
5279.00,0.97
5278.00,0.97
5277.00,0.97
5276.00,0.97
5275.00,0.97
5274.00,0.97
5273.00,0.96
5272.00,0.96
5271.00,0.96
5270.00,0.96
5269.00,0.96
5268.00,0.95
5267.00,0.95
5266.00,0.95
5265.00,0.95
5264.00,0.95
5263.00,0.94
5262.00,0.94
5261.00,0.94
5260.00,0.94
5259.00,0.94
5258.00,0.93
5257.00,0.93
5256.00,0.93
5255.00,0.93
5254.00,0.93
5253.00,0.93
5252.00,0.93
5251.00,0.93
5250.00,0.93
5249.00,0.94
5248.00,0.94
5247.00,0.94
5246.00,0.94
5245.00,0.94
5244.00,0.94
5243.00,0.94
5242.00,0.94
5241.00,0.94
5240.00,0.94
5239.00,0.94
5238.00,0.94
5237.00,0.94
5236.00,0.94
5235.00,0.94
5234.00,0.94
5233.00,0.94
5232.00,0.94
5231.00,0.94
5230.00,0.94
5229.00,0.94
5228.00,0.94
5227.00,0.94
5226.00,0.94
5225.00,0.94
5224.00,0.94
5223.00,0.94
5222.00,0.94
5221.00,0.94
5220.00,0.94
5219.00,0.94
5218.00,0.94
5217.00,0.94
5216.00,0.94
5215.00,0.95
5214.00,0.95
5213.00,0.95
5212.00,0.95
5211.00,0.96
5210.00,0.96
5209.00,0.96
5208.00,0.96
5207.00,0.97
5206.00,0.97
5205.00,0.97
5204.00,0.97
5203.00,0.98
5202.00,0.98
5201.00,0.98
5200.00,0.98
5199.00,0.98
5198.00,0.98
5197.00,0.99
5196.00,0.99
5195.00,0.99
5194.00,0.99
5193.00,0.99
5192.00,0.99
5191.00,0.99
5190.00,0.99
5189.00,0.99
5188.00,0.99
5187.00,0.99
5186.00,0.99
5185.00,0.99
5184.00,0.99
5183.00,0.99
5182.00,0.99
5181.00,0.99
5180.00,0.98
5179.00,0.98
5178.00,0.98
5177.00,0.98
5176.00,0.98
5175.00,0.99
5174.00,0.99
5173.00,0.99
5172.00,0.99
5171.00,0.99
5170.00,0.99
5169.00,0.99
5168.00,1.00
5167.00,1.00
5166.00,1.00
5165.00,1.00
5164.00,1.01
5163.00,1.01
5162.00,1.01
5161.00,1.02
5160.00,1.02
5159.00,1.02
5158.00,1.02
5157.00,1.03
5156.00,1.03
5155.00,1.03
5154.00,1.03
5153.00,1.04
5152.00,1.04
5151.00,1.04
5150.00,1.04
5149.00,1.04
5148.00,1.04
5147.00,1.04
5146.00,1.05
5145.00,1.05
5144.00,1.04
5143.00,1.04
5142.00,1.04
5141.00,1.04
5140.00,1.04
5139.00,1.04
5138.00,1.04
5137.00,1.04
5136.00,1.04
5135.00,1.04
5134.00,1.04
5133.00,1.04
5132.00,1.04
5131.00,1.04
5130.00,1.04
5129.00,1.04
5128.00,1.04
5127.00,1.04
5126.00,1.04
5125.00,1.04
5124.00,1.04
5123.00,1.04
5122.00,1.04
5121.00,1.04
5120.00,1.04
5119.00,1.04
5118.00,1.04
5117.00,1.04
5116.00,1.04
5115.00,1.04
5114.00,1.04
5113.00,1.04
5112.00,1.04
5111.00,1.04
5110.00,1.04
5109.00,1.04
5108.00,1.04
5107.00,1.04
5106.00,1.04
5105.00,1.04
5104.00,1.03
5103.00,1.03
5102.00,1.03
5101.00,1.03
5100.00,1.03
5099.00,1.03
5098.00,1.03
5097.00,1.03
5096.00,1.02
5095.00,1.02
5094.00,1.02
5093.00,1.02
5092.00,1.02
5091.00,1.01
5090.00,1.01
5089.00,1.01
5088.00,1.01
5087.00,1.01
5086.00,1.01
5085.00,1.01
5084.00,1.01
5083.00,1.01
5082.00,1.01
5081.00,1.00
5080.00,1.00
5079.00,1.00
5078.00,1.00
5077.00,1.00
5076.00,1.00
5075.00,1.00
5074.00,1.00
5073.00,1.00
5072.00,1.00
5071.00,1.00
5070.00,1.00
5069.00,1.00
5068.00,1.00
5067.00,1.00
5066.00,1.00
5065.00,1.00
5064.00,1.00
5063.00,1.00
5062.00,1.00
5061.00,1.00
5060.00,1.00
5059.00,1.00
5058.00,1.00
5057.00,1.00
5056.00,1.00
5055.00,1.00
5054.00,1.01
5053.00,1.01
5052.00,1.01
5051.00,1.01
5050.00,1.01
5049.00,1.01
5048.00,1.01
5047.00,1.01
5046.00,1.01
5045.00,1.01
5044.00,1.01
5043.00,1.01
5042.00,1.01
5041.00,1.01
5040.00,1.01
5039.00,1.01
5038.00,1.02
5037.00,1.02
5036.00,1.02
5035.00,1.02
5034.00,1.03
5033.00,1.03
5032.00,1.03
5031.00,1.03
5030.00,1.04
5029.00,1.04
5028.00,1.04
5027.00,1.04
5026.00,1.05
5025.00,1.05
5024.00,1.05
5023.00,1.05
5022.00,1.06
5021.00,1.06
5020.00,1.06
5019.00,1.07
5018.00,1.07
5017.00,1.07
5016.00,1.07
5015.00,1.08
5014.00,1.08
5013.00,1.08
5012.00,1.08
5011.00,1.08
5010.00,1.09
5009.00,1.09
5008.00,1.09
5007.00,1.09
5006.00,1.09
5005.00,1.09
5004.00,1.09
5003.00,1.10
5002.00,1.10
5001.00,1.10
5000.00,1.10
4999.00,1.10
4998.00,1.11
4997.00,1.11
4996.00,1.11
4995.00,1.11
4994.00,1.12
4993.00,1.12
4992.00,1.12
4991.00,1.12
4990.00,1.12
4989.00,1.13
4988.00,1.13
4987.00,1.13
4986.00,1.13
4985.00,1.13
4984.00,1.14
4983.00,1.14
4982.00,1.14
4981.00,1.14
4980.00,1.15
4979.00,1.15
4978.00,1.15
4977.00,1.15
4976.00,1.15
4975.00,1.15
4974.00,1.16
4973.00,1.16
4972.00,1.16
4971.00,1.16
4970.00,1.16
4969.00,1.16
4968.00,1.16
4967.00,1.17
4966.00,1.17
4965.00,1.17
4964.00,1.17
4963.00,1.17
4962.00,1.17
4961.00,1.18
4960.00,1.18
4959.00,1.18
4958.00,1.18
4957.00,1.18
4956.00,1.18
4955.00,1.18
4954.00,1.18
4953.00,1.18
4952.00,1.18
4951.00,1.18
4950.00,1.18
4949.00,1.18
4948.00,1.17
4947.00,1.17
4946.00,1.17
4945.00,1.17
4944.00,1.17
4943.00,1.17
4942.00,1.17
4941.00,1.17
4940.00,1.17
4939.00,1.17
4938.00,1.17
4937.00,1.17
4936.00,1.17
4935.00,1.17
4934.00,1.17
4933.00,1.17
4932.00,1.17
4931.00,1.17
4930.00,1.16
4929.00,1.16
4928.00,1.17
4927.00,1.17
4926.00,1.17
4925.00,1.17
4924.00,1.17
4923.00,1.17
4922.00,1.17
4921.00,1.17
4920.00,1.17
4919.00,1.17
4918.00,1.17
4917.00,1.17
4916.00,1.17
4915.00,1.17
4914.00,1.17
4913.00,1.17
4912.00,1.17
4911.00,1.17
4910.00,1.18
4909.00,1.18
4908.00,1.18
4907.00,1.18
4906.00,1.19
4905.00,1.19
4904.00,1.19
4903.00,1.20
4902.00,1.20
4901.00,1.20
4900.00,1.20
4899.00,1.21
4898.00,1.21
4897.00,1.21
4896.00,1.21
4895.00,1.22
4894.00,1.22
4893.00,1.22
4892.00,1.22
4891.00,1.22
4890.00,1.23
4889.00,1.23
4888.00,1.23
4887.00,1.23
4886.00,1.23
4885.00,1.23
4884.00,1.24
4883.00,1.24
4882.00,1.24
4881.00,1.24
4880.00,1.24
4879.00,1.23
4878.00,1.23
4877.00,1.23
4876.00,1.23
4875.00,1.23
4874.00,1.23
4873.00,1.23
4872.00,1.22
4871.00,1.22
4870.00,1.22
4869.00,1.22
4868.00,1.22
4867.00,1.22
4866.00,1.22
4865.00,1.22
4864.00,1.21
4863.00,1.21
4862.00,1.21
4861.00,1.21
4860.00,1.21
4859.00,1.20
4858.00,1.20
4857.00,1.20
4856.00,1.20
4855.00,1.20
4854.00,1.20
4853.00,1.20
4852.00,1.20
4851.00,1.20
4850.00,1.20
4849.00,1.20
4848.00,1.20
4847.00,1.20
4846.00,1.21
4845.00,1.21
4844.00,1.21
4843.00,1.21
4842.00,1.22
4841.00,1.22
4840.00,1.22
4839.00,1.23
4838.00,1.23
4837.00,1.23
4836.00,1.24
4835.00,1.24
4834.00,1.25
4833.00,1.25
4832.00,1.26
4831.00,1.26
4830.00,1.27
4829.00,1.27
4828.00,1.28
4827.00,1.28
4826.00,1.29
4825.00,1.29
4824.00,1.29
4823.00,1.30
4822.00,1.30
4821.00,1.30
4820.00,1.31
4819.00,1.31
4818.00,1.31
4817.00,1.31
4816.00,1.31
4815.00,1.31
4814.00,1.31
4813.00,1.31
4812.00,1.31
4811.00,1.30
4810.00,1.30
4809.00,1.30
4808.00,1.30
4807.00,1.30
4806.00,1.29
4805.00,1.29
4804.00,1.29
4803.00,1.29
4802.00,1.29
4801.00,1.28
4800.00,1.28
4799.00,1.28
4798.00,1.28
4797.00,1.28
4796.00,1.28
4795.00,1.28
4794.00,1.28
4793.00,1.28
4792.00,1.28
4791.00,1.28
4790.00,1.29
4789.00,1.29
4788.00,1.29
4787.00,1.29
4786.00,1.29
4785.00,1.30
4784.00,1.30
4783.00,1.30
4782.00,1.30
4781.00,1.31
4780.00,1.31
4779.00,1.31
4778.00,1.32
4777.00,1.32
4776.00,1.32
4775.00,1.33
4774.00,1.33
4773.00,1.33
4772.00,1.34
4771.00,1.34
4770.00,1.34
4769.00,1.34
4768.00,1.34
4767.00,1.34
4766.00,1.34
4765.00,1.34
4764.00,1.34
4763.00,1.34
4762.00,1.34
4761.00,1.34
4760.00,1.34
4759.00,1.35
4758.00,1.35
4757.00,1.35
4756.00,1.35
4755.00,1.35
4754.00,1.35
4753.00,1.35
4752.00,1.35
4751.00,1.35
4750.00,1.35
4749.00,1.35
4748.00,1.35
4747.00,1.35
4746.00,1.35
4745.00,1.35
4744.00,1.35
4743.00,1.35
4742.00,1.35
4741.00,1.36
4740.00,1.36
4739.00,1.36
4738.00,1.37
4737.00,1.37
4736.00,1.37
4735.00,1.38
4734.00,1.38
4733.00,1.38
4732.00,1.39
4731.00,1.39
4730.00,1.40
4729.00,1.40
4728.00,1.40
4727.00,1.41
4726.00,1.41
4725.00,1.41
4724.00,1.42
4723.00,1.42
4722.00,1.43
4721.00,1.43
4720.00,1.44
4719.00,1.44
4718.00,1.44
4717.00,1.44
4716.00,1.44
4715.00,1.45
4714.00,1.45
4713.00,1.45
4712.00,1.45
4711.00,1.45
4710.00,1.45
4709.00,1.44
4708.00,1.44
4707.00,1.44
4706.00,1.44
4705.00,1.44
4704.00,1.44
4703.00,1.44
4702.00,1.44
4701.00,1.44
4700.00,1.44
4699.00,1.44
4698.00,1.44
4697.00,1.44
4696.00,1.44
4695.00,1.44
4694.00,1.44
4693.00,1.44
4692.00,1.44
4691.00,1.44
4690.00,1.44
4689.00,1.44
4688.00,1.45
4687.00,1.45
4686.00,1.45
4685.00,1.45
4684.00,1.46
4683.00,1.46
4682.00,1.46
4681.00,1.47
4680.00,1.47
4679.00,1.48
4678.00,1.48
4677.00,1.48
4676.00,1.49
4675.00,1.49
4674.00,1.49
4673.00,1.49
4672.00,1.50
4671.00,1.50
4670.00,1.50
4669.00,1.50
4668.00,1.50
4667.00,1.50
4666.00,1.50
4665.00,1.50
4664.00,1.50
4663.00,1.50
4662.00,1.50
4661.00,1.50
4660.00,1.50
4659.00,1.50
4658.00,1.50
4657.00,1.50
4656.00,1.50
4655.00,1.50
4654.00,1.50
4653.00,1.49
4652.00,1.49
4651.00,1.49
4650.00,1.49
4649.00,1.49
4648.00,1.49
4647.00,1.49
4646.00,1.49
4645.00,1.49
4644.00,1.49
4643.00,1.49
4642.00,1.50
4641.00,1.50
4640.00,1.51
4639.00,1.51
4638.00,1.52
4637.00,1.53
4636.00,1.53
4635.00,1.54
4634.00,1.54
4633.00,1.54
4632.00,1.55
4631.00,1.55
4630.00,1.56
4629.00,1.56
4628.00,1.57
4627.00,1.58
4626.00,1.58
4625.00,1.59
4624.00,1.59
4623.00,1.60
4622.00,1.60
4621.00,1.60
4620.00,1.61
4619.00,1.61
4618.00,1.62
4617.00,1.62
4616.00,1.62
4615.00,1.62
4614.00,1.62
4613.00,1.62
4612.00,1.62
4611.00,1.62
4610.00,1.62
4609.00,1.62
4608.00,1.62
4607.00,1.61
4606.00,1.61
4605.00,1.61
4604.00,1.61
4603.00,1.61
4602.00,1.61
4601.00,1.60
4600.00,1.60
4599.00,1.60
4598.00,1.60
4597.00,1.60
4596.00,1.59
4595.00,1.59
4594.00,1.59
4593.00,1.59
4592.00,1.59
4591.00,1.59
4590.00,1.59
4589.00,1.59
4588.00,1.59
4587.00,1.59
4586.00,1.59
4585.00,1.59
4584.00,1.59
4583.00,1.59
4582.00,1.59
4581.00,1.59
4580.00,1.59
4579.00,1.59
4578.00,1.59
4577.00,1.59
4576.00,1.59
4575.00,1.59
4574.00,1.59
4573.00,1.59
4572.00,1.59
4571.00,1.59
4570.00,1.59
4569.00,1.59
4568.00,1.59
4567.00,1.59
4566.00,1.59
4565.00,1.58
4564.00,1.58
4563.00,1.58
4562.00,1.58
4561.00,1.58
4560.00,1.58
4559.00,1.58
4558.00,1.57
4557.00,1.57
4556.00,1.57
4555.00,1.57
4554.00,1.57
4553.00,1.57
4552.00,1.57
4551.00,1.58
4550.00,1.58
4549.00,1.58
4548.00,1.58
4547.00,1.59
4546.00,1.59
4545.00,1.59
4544.00,1.59
4543.00,1.60
4542.00,1.60
4541.00,1.60
4540.00,1.61
4539.00,1.61
4538.00,1.62
4537.00,1.62
4536.00,1.63
4535.00,1.63
4534.00,1.64
4533.00,1.65
4532.00,1.65
4531.00,1.66
4530.00,1.66
4529.00,1.67
4528.00,1.68
4527.00,1.68
4526.00,1.69
4525.00,1.69
4524.00,1.69
4523.00,1.70
4522.00,1.70
4521.00,1.70
4520.00,1.71
4519.00,1.71
4518.00,1.71
4517.00,1.71
4516.00,1.72
4515.00,1.72
4514.00,1.72
4513.00,1.72
4512.00,1.72
4511.00,1.72
4510.00,1.72
4509.00,1.72
4508.00,1.72
4507.00,1.72
4506.00,1.72
4505.00,1.72
4504.00,1.72
4503.00,1.71
4502.00,1.71
4501.00,1.71
4500.00,1.71
4499.00,1.70
4498.00,1.70
4497.00,1.70
4496.00,1.70
4495.00,1.69
4494.00,1.69
4493.00,1.69
4492.00,1.69
4491.00,1.69
4490.00,1.69
4489.00,1.69
4488.00,1.68
4487.00,1.68
4486.00,1.68
4485.00,1.68
4484.00,1.67
4483.00,1.67
4482.00,1.67
4481.00,1.67
4480.00,1.67
4479.00,1.67
4478.00,1.66
4477.00,1.66
4476.00,1.66
4475.00,1.66
4474.00,1.66
4473.00,1.66
4472.00,1.65
4471.00,1.65
4470.00,1.65
4469.00,1.64
4468.00,1.64
4467.00,1.64
4466.00,1.63
4465.00,1.63
4464.00,1.63
4463.00,1.62
4462.00,1.62
4461.00,1.61
4460.00,1.61
4459.00,1.60
4458.00,1.60
4457.00,1.59
4456.00,1.59
4455.00,1.58
4454.00,1.58
4453.00,1.57
4452.00,1.57
4451.00,1.56
4450.00,1.55
4449.00,1.55
4448.00,1.55
4447.00,1.54
4446.00,1.54
4445.00,1.53
4444.00,1.53
4443.00,1.53
4442.00,1.52
4441.00,1.52
4440.00,1.52
4439.00,1.51
4438.00,1.51
4437.00,1.51
4436.00,1.51
4435.00,1.50
4434.00,1.50
4433.00,1.50
4432.00,1.50
4431.00,1.50
4430.00,1.50
4429.00,1.50
4428.00,1.50
4427.00,1.49
4426.00,1.49
4425.00,1.49
4424.00,1.49
4423.00,1.49
4422.00,1.49
4421.00,1.49
4420.00,1.49
4419.00,1.49
4418.00,1.49
4417.00,1.49
4416.00,1.49
4415.00,1.48
4414.00,1.48
4413.00,1.49
4412.00,1.49
4411.00,1.49
4410.00,1.49
4409.00,1.49
4408.00,1.50
4407.00,1.50
4406.00,1.50
4405.00,1.50
4404.00,1.51
4403.00,1.51
4402.00,1.51
4401.00,1.52
4400.00,1.52
4399.00,1.52
4398.00,1.53
4397.00,1.53
4396.00,1.53
4395.00,1.54
4394.00,1.54
4393.00,1.54
4392.00,1.54
4391.00,1.55
4390.00,1.55
4389.00,1.55
4388.00,1.56
4387.00,1.56
4386.00,1.56
4385.00,1.56
4384.00,1.56
4383.00,1.56
4382.00,1.56
4381.00,1.56
4380.00,1.56
4379.00,1.56
4378.00,1.55
4377.00,1.55
4376.00,1.55
4375.00,1.54
4374.00,1.54
4373.00,1.53
4372.00,1.53
4371.00,1.53
4370.00,1.52
4369.00,1.52
4368.00,1.52
4367.00,1.52
4366.00,1.52
4365.00,1.51
4364.00,1.51
4363.00,1.51
4362.00,1.50
4361.00,1.50
4360.00,1.50
4359.00,1.50
4358.00,1.50
4357.00,1.49
4356.00,1.49
4355.00,1.49
4354.00,1.49
4353.00,1.49
4352.00,1.49
4351.00,1.49
4350.00,1.49
4349.00,1.49
4348.00,1.50
4347.00,1.50
4346.00,1.50
4345.00,1.50
4344.00,1.51
4343.00,1.51
4342.00,1.51
4341.00,1.51
4340.00,1.52
4339.00,1.52
4338.00,1.52
4337.00,1.53
4336.00,1.53
4335.00,1.53
4334.00,1.54
4333.00,1.54
4332.00,1.55
4331.00,1.55
4330.00,1.55
4329.00,1.56
4328.00,1.56
4327.00,1.57
4326.00,1.57
4325.00,1.57
4324.00,1.58
4323.00,1.58
4322.00,1.58
4321.00,1.58
4320.00,1.59
4319.00,1.59
4318.00,1.59
4317.00,1.59
4316.00,1.59
4315.00,1.60
4314.00,1.60
4313.00,1.60
4312.00,1.60
4311.00,1.60
4310.00,1.60
4309.00,1.60
4308.00,1.60
4307.00,1.61
4306.00,1.61
4305.00,1.61
4304.00,1.61
4303.00,1.61
4302.00,1.61
4301.00,1.61
4300.00,1.61
4299.00,1.61
4298.00,1.61
4297.00,1.61
4296.00,1.61
4295.00,1.61
4294.00,1.61
4293.00,1.62
4292.00,1.62
4291.00,1.62
4290.00,1.62
4289.00,1.62
4288.00,1.62
4287.00,1.62
4286.00,1.62
4285.00,1.63
4284.00,1.63
4283.00,1.63
4282.00,1.63
4281.00,1.64
4280.00,1.64
4279.00,1.64
4278.00,1.65
4277.00,1.65
4276.00,1.66
4275.00,1.66
4274.00,1.67
4273.00,1.67
4272.00,1.68
4271.00,1.68
4270.00,1.69
4269.00,1.69
4268.00,1.69
4267.00,1.70
4266.00,1.70
4265.00,1.70
4264.00,1.70
4263.00,1.71
4262.00,1.71
4261.00,1.71
4260.00,1.71
4259.00,1.71
4258.00,1.71
4257.00,1.71
4256.00,1.71
4255.00,1.71
4254.00,1.71
4253.00,1.71
4252.00,1.70
4251.00,1.70
4250.00,1.69
4249.00,1.69
4248.00,1.68
4247.00,1.67
4246.00,1.66
4245.00,1.66
4244.00,1.65
4243.00,1.64
4242.00,1.64
4241.00,1.63
4240.00,1.63
4239.00,1.62
4238.00,1.62
4237.00,1.61
4236.00,1.61
4235.00,1.60
4234.00,1.60
4233.00,1.60
4232.00,1.59
4231.00,1.59
4230.00,1.59
4229.00,1.59
4228.00,1.60
4227.00,1.60
4226.00,1.60
4225.00,1.60
4224.00,1.61
4223.00,1.61
4222.00,1.61
4221.00,1.62
4220.00,1.63
4219.00,1.63
4218.00,1.64
4217.00,1.65
4216.00,1.65
4215.00,1.66
4214.00,1.66
4213.00,1.67
4212.00,1.67
4211.00,1.67
4210.00,1.68
4209.00,1.68
4208.00,1.68
4207.00,1.68
4206.00,1.69
4205.00,1.69
4204.00,1.69
4203.00,1.69
4202.00,1.68
4201.00,1.68
4200.00,1.68
4199.00,1.68
4198.00,1.68
4197.00,1.68
4196.00,1.68
4195.00,1.68
4194.00,1.68
4193.00,1.68
4192.00,1.68
4191.00,1.68
4190.00,1.67
4189.00,1.67
4188.00,1.67
4187.00,1.68
4186.00,1.68
4185.00,1.68
4184.00,1.68
4183.00,1.69
4182.00,1.69
4181.00,1.69
4180.00,1.70
4179.00,1.70
4178.00,1.70
4177.00,1.71
4176.00,1.71
4175.00,1.71
4174.00,1.72
4173.00,1.72
4172.00,1.73
4171.00,1.73
4170.00,1.73
4169.00,1.73
4168.00,1.74
4167.00,1.74
4166.00,1.74
4165.00,1.75
4164.00,1.76
4163.00,1.76
4162.00,1.77
4161.00,1.77
4160.00,1.78
4159.00,1.78
4158.00,1.78
4157.00,1.79
4156.00,1.79
4155.00,1.79
4154.00,1.80
4153.00,1.80
4152.00,1.81
4151.00,1.81
4150.00,1.81
4149.00,1.82
4148.00,1.82
4147.00,1.82
4146.00,1.82
4145.00,1.82
4144.00,1.82
4143.00,1.82
4142.00,1.83
4141.00,1.83
4140.00,1.83
4139.00,1.82
4138.00,1.82
4137.00,1.82
4136.00,1.81
4135.00,1.81
4134.00,1.80
4133.00,1.80
4132.00,1.79
4131.00,1.79
4130.00,1.78
4129.00,1.77
4128.00,1.77
4127.00,1.76
4126.00,1.76
4125.00,1.76
4124.00,1.75
4123.00,1.75
4122.00,1.75
4121.00,1.75
4120.00,1.75
4119.00,1.75
4118.00,1.75
4117.00,1.75
4116.00,1.75
4115.00,1.75
4114.00,1.75
4113.00,1.75
4112.00,1.75
4111.00,1.75
4110.00,1.75
4109.00,1.76
4108.00,1.76
4107.00,1.76
4106.00,1.76
4105.00,1.77
4104.00,1.77
4103.00,1.77
4102.00,1.78
4101.00,1.78
4100.00,1.78
4099.00,1.78
4098.00,1.79
4097.00,1.79
4096.00,1.79
4095.00,1.79
4094.00,1.79
4093.00,1.78
4092.00,1.78
4091.00,1.78
4090.00,1.77
4089.00,1.77
4088.00,1.77
4087.00,1.77
4086.00,1.76
4085.00,1.76
4084.00,1.76
4083.00,1.76
4082.00,1.76
4081.00,1.76
4080.00,1.76
4079.00,1.76
4078.00,1.76
4077.00,1.76
4076.00,1.76
4075.00,1.76
4074.00,1.76
4073.00,1.76
4072.00,1.76
4071.00,1.76
4070.00,1.76
4069.00,1.76
4068.00,1.76
4067.00,1.76
4066.00,1.76
4065.00,1.77
4064.00,1.77
4063.00,1.77
4062.00,1.77
4061.00,1.77
4060.00,1.78
4059.00,1.78
4058.00,1.78
4057.00,1.79
4056.00,1.79
4055.00,1.79
4054.00,1.79
4053.00,1.80
4052.00,1.80
4051.00,1.80
4050.00,1.80
4049.00,1.80
4048.00,1.81
4047.00,1.81
4046.00,1.81
4045.00,1.81
4044.00,1.82
4043.00,1.83
4042.00,1.83
4041.00,1.84
4040.00,1.85
4039.00,1.86
4038.00,1.86
4037.00,1.87
4036.00,1.88
4035.00,1.88
4034.00,1.89
4033.00,1.90
4032.00,1.90
4031.00,1.91
4030.00,1.91
4029.00,1.91
4028.00,1.92
4027.00,1.92
4026.00,1.92
4025.00,1.93
4024.00,1.93
4023.00,1.93
4022.00,1.94
4021.00,1.94
4020.00,1.95
4019.00,1.95
4018.00,1.96
4017.00,1.96
4016.00,1.96
4015.00,1.96
4014.00,1.96
4013.00,1.96
4012.00,1.96
4011.00,1.96
4010.00,1.96
4009.00,1.97
4008.00,1.97
4007.00,1.97
4006.00,1.97
4005.00,1.98
4004.00,1.98
4003.00,1.98
4002.00,1.99
4001.00,1.99
4000.00,1.99
