创建为新数据集,样品 391 用户 Administrator 日期 星期日, 七月 28 2019
cm-1,%T
10000.00,1.47
9999.00,1.46
9998.00,1.46
9997.00,1.46
9996.00,1.46
9995.00,1.45
9994.00,1.45
9993.00,1.45
9992.00,1.44
9991.00,1.44
9990.00,1.44
9989.00,1.44
9988.00,1.43
9987.00,1.43
9986.00,1.43
9985.00,1.42
9984.00,1.42
9983.00,1.42
9982.00,1.41
9981.00,1.41
9980.00,1.40
9979.00,1.40
9978.00,1.39
9977.00,1.39
9976.00,1.39
9975.00,1.38
9974.00,1.38
9973.00,1.38
9972.00,1.38
9971.00,1.38
9970.00,1.38
9969.00,1.38
9968.00,1.38
9967.00,1.37
9966.00,1.37
9965.00,1.37
9964.00,1.37
9963.00,1.37
9962.00,1.36
9961.00,1.36
9960.00,1.36
9959.00,1.35
9958.00,1.35
9957.00,1.35
9956.00,1.35
9955.00,1.34
9954.00,1.34
9953.00,1.34
9952.00,1.34
9951.00,1.33
9950.00,1.33
9949.00,1.33
9948.00,1.32
9947.00,1.32
9946.00,1.31
9945.00,1.31
9944.00,1.30
9943.00,1.30
9942.00,1.30
9941.00,1.29
9940.00,1.29
9939.00,1.29
9938.00,1.29
9937.00,1.29
9936.00,1.29
9935.00,1.29
9934.00,1.29
9933.00,1.29
9932.00,1.29
9931.00,1.29
9930.00,1.29
9929.00,1.29
9928.00,1.29
9927.00,1.28
9926.00,1.28
9925.00,1.28
9924.00,1.28
9923.00,1.28
9922.00,1.29
9921.00,1.29
9920.00,1.29
9919.00,1.29
9918.00,1.29
9917.00,1.29
9916.00,1.29
9915.00,1.29
9914.00,1.28
9913.00,1.28
9912.00,1.28
9911.00,1.28
9910.00,1.28
9909.00,1.28
9908.00,1.28
9907.00,1.28
9906.00,1.28
9905.00,1.29
9904.00,1.29
9903.00,1.29
9902.00,1.29
9901.00,1.29
9900.00,1.29
9899.00,1.29
9898.00,1.29
9897.00,1.30
9896.00,1.30
9895.00,1.31
9894.00,1.31
9893.00,1.32
9892.00,1.32
9891.00,1.33
9890.00,1.34
9889.00,1.35
9888.00,1.35
9887.00,1.36
9886.00,1.36
9885.00,1.37
9884.00,1.37
9883.00,1.37
9882.00,1.37
9881.00,1.37
9880.00,1.37
9879.00,1.37
9878.00,1.37
9877.00,1.37
9876.00,1.37
9875.00,1.37
9874.00,1.37
9873.00,1.37
9872.00,1.36
9871.00,1.36
9870.00,1.35
9869.00,1.35
9868.00,1.34
9867.00,1.33
9866.00,1.32
9865.00,1.31
9864.00,1.30
9863.00,1.29
9862.00,1.28
9861.00,1.26
9860.00,1.25
9859.00,1.24
9858.00,1.23
9857.00,1.23
9856.00,1.22
9855.00,1.21
9854.00,1.21
9853.00,1.20
9852.00,1.20
9851.00,1.20
9850.00,1.19
9849.00,1.19
9848.00,1.19
9847.00,1.18
9846.00,1.18
9845.00,1.18
9844.00,1.18
9843.00,1.18
9842.00,1.18
9841.00,1.18
9840.00,1.18
9839.00,1.18
9838.00,1.19
9837.00,1.19
9836.00,1.19
9835.00,1.20
9834.00,1.20
9833.00,1.20
9832.00,1.21
9831.00,1.21
9830.00,1.21
9829.00,1.21
9828.00,1.21
9827.00,1.21
9826.00,1.21
9825.00,1.21
9824.00,1.22
9823.00,1.22
9822.00,1.22
9821.00,1.23
9820.00,1.23
9819.00,1.24
9818.00,1.24
9817.00,1.24
9816.00,1.25
9815.00,1.25
9814.00,1.25
9813.00,1.25
9812.00,1.25
9811.00,1.26
9810.00,1.26
9809.00,1.26
9808.00,1.26
9807.00,1.26
9806.00,1.27
9805.00,1.27
9804.00,1.27
9803.00,1.28
9802.00,1.28
9801.00,1.29
9800.00,1.29
9799.00,1.30
9798.00,1.30
9797.00,1.31
9796.00,1.31
9795.00,1.32
9794.00,1.32
9793.00,1.33
9792.00,1.33
9791.00,1.34
9790.00,1.35
9789.00,1.35
9788.00,1.36
9787.00,1.36
9786.00,1.37
9785.00,1.37
9784.00,1.38
9783.00,1.38
9782.00,1.39
9781.00,1.39
9780.00,1.39
9779.00,1.40
9778.00,1.40
9777.00,1.40
9776.00,1.40
9775.00,1.40
9774.00,1.40
9773.00,1.40
9772.00,1.39
9771.00,1.39
9770.00,1.38
9769.00,1.37
9768.00,1.37
9767.00,1.36
9766.00,1.34
9765.00,1.33
9764.00,1.32
9763.00,1.31
9762.00,1.29
9761.00,1.28
9760.00,1.27
9759.00,1.25
9758.00,1.24
9757.00,1.22
9756.00,1.21
9755.00,1.20
9754.00,1.19
9753.00,1.18
9752.00,1.17
9751.00,1.16
9750.00,1.15
9749.00,1.14
9748.00,1.14
9747.00,1.13
9746.00,1.13
9745.00,1.12
9744.00,1.12
9743.00,1.12
9742.00,1.11
9741.00,1.11
9740.00,1.11
9739.00,1.11
9738.00,1.11
9737.00,1.11
9736.00,1.11
9735.00,1.11
9734.00,1.11
9733.00,1.11
9732.00,1.11
9731.00,1.12
9730.00,1.12
9729.00,1.12
9728.00,1.13
9727.00,1.13
9726.00,1.13
9725.00,1.14
9724.00,1.14
9723.00,1.15
9722.00,1.15
9721.00,1.15
9720.00,1.16
9719.00,1.16
9718.00,1.17
9717.00,1.17
9716.00,1.18
9715.00,1.18
9714.00,1.19
9713.00,1.19
9712.00,1.20
9711.00,1.20
9710.00,1.21
9709.00,1.22
9708.00,1.22
9707.00,1.23
9706.00,1.24
9705.00,1.24
9704.00,1.25
9703.00,1.26
9702.00,1.26
9701.00,1.26
9700.00,1.27
9699.00,1.27
9698.00,1.27
9697.00,1.27
9696.00,1.27
9695.00,1.27
9694.00,1.26
9693.00,1.26
9692.00,1.26
9691.00,1.25
9690.00,1.25
9689.00,1.25
9688.00,1.24
9687.00,1.24
9686.00,1.24
9685.00,1.23
9684.00,1.23
9683.00,1.23
9682.00,1.23
9681.00,1.23
9680.00,1.22
9679.00,1.22
9678.00,1.22
9677.00,1.22
9676.00,1.22
9675.00,1.22
9674.00,1.23
9673.00,1.23
9672.00,1.23
9671.00,1.23
9670.00,1.23
9669.00,1.23
9668.00,1.24
9667.00,1.24
9666.00,1.24
9665.00,1.24
9664.00,1.25
9663.00,1.25
9662.00,1.25
9661.00,1.25
9660.00,1.25
9659.00,1.25
9658.00,1.25
9657.00,1.25
9656.00,1.25
9655.00,1.25
9654.00,1.25
9653.00,1.24
9652.00,1.24
9651.00,1.24
9650.00,1.23
9649.00,1.23
9648.00,1.23
9647.00,1.23
9646.00,1.23
9645.00,1.23
9644.00,1.23
9643.00,1.23
9642.00,1.23
9641.00,1.23
9640.00,1.23
9639.00,1.24
9638.00,1.24
9637.00,1.24
9636.00,1.25
9635.00,1.25
9634.00,1.25
9633.00,1.26
9632.00,1.26
9631.00,1.26
9630.00,1.26
9629.00,1.27
9628.00,1.27
9627.00,1.27
9626.00,1.28
9625.00,1.28
9624.00,1.28
9623.00,1.28
9622.00,1.28
9621.00,1.28
9620.00,1.28
9619.00,1.28
9618.00,1.27
9617.00,1.27
9616.00,1.27
9615.00,1.26
9614.00,1.26
9613.00,1.25
9612.00,1.25
9611.00,1.25
9610.00,1.24
9609.00,1.24
9608.00,1.24
9607.00,1.23
9606.00,1.23
9605.00,1.23
9604.00,1.23
9603.00,1.23
9602.00,1.23
9601.00,1.23
9600.00,1.23
9599.00,1.23
9598.00,1.23
9597.00,1.23
9596.00,1.23
9595.00,1.23
9594.00,1.23
9593.00,1.23
9592.00,1.23
9591.00,1.23
9590.00,1.23
9589.00,1.23
9588.00,1.24
9587.00,1.24
9586.00,1.24
9585.00,1.24
9584.00,1.25
9583.00,1.25
9582.00,1.25
9581.00,1.25
9580.00,1.25
9579.00,1.26
9578.00,1.26
9577.00,1.26
9576.00,1.26
9575.00,1.26
9574.00,1.26
9573.00,1.25
9572.00,1.25
9571.00,1.25
9570.00,1.26
9569.00,1.26
9568.00,1.26
9567.00,1.26
9566.00,1.26
9565.00,1.26
9564.00,1.26
9563.00,1.25
9562.00,1.25
9561.00,1.25
9560.00,1.25
9559.00,1.24
9558.00,1.24
9557.00,1.23
9556.00,1.23
9555.00,1.22
9554.00,1.21
9553.00,1.21
9552.00,1.20
9551.00,1.20
9550.00,1.19
9549.00,1.18
9548.00,1.18
9547.00,1.17
9546.00,1.16
9545.00,1.16
9544.00,1.15
9543.00,1.15
9542.00,1.14
9541.00,1.13
9540.00,1.13
9539.00,1.12
9538.00,1.12
9537.00,1.11
9536.00,1.11
9535.00,1.10
9534.00,1.10
9533.00,1.10
9532.00,1.09
9531.00,1.09
9530.00,1.09
9529.00,1.10
9528.00,1.10
9527.00,1.11
9526.00,1.11
9525.00,1.12
9524.00,1.13
9523.00,1.13
9522.00,1.14
9521.00,1.15
9520.00,1.16
9519.00,1.17
9518.00,1.18
9517.00,1.19
9516.00,1.20
9515.00,1.21
9514.00,1.23
9513.00,1.24
9512.00,1.25
9511.00,1.27
9510.00,1.28
9509.00,1.29
9508.00,1.31
9507.00,1.32
9506.00,1.33
9505.00,1.34
9504.00,1.35
9503.00,1.36
9502.00,1.36
9501.00,1.37
9500.00,1.37
9499.00,1.38
9498.00,1.38
9497.00,1.39
9496.00,1.39
9495.00,1.39
9494.00,1.40
9493.00,1.40
9492.00,1.40
9491.00,1.40
9490.00,1.40
9489.00,1.40
9488.00,1.40
9487.00,1.40
9486.00,1.40
9485.00,1.39
9484.00,1.39
9483.00,1.38
9482.00,1.38
9481.00,1.37
9480.00,1.37
9479.00,1.36
9478.00,1.36
9477.00,1.36
9476.00,1.35
9475.00,1.35
9474.00,1.35
9473.00,1.34
9472.00,1.34
9471.00,1.33
9470.00,1.33
9469.00,1.32
9468.00,1.32
9467.00,1.31
9466.00,1.31
9465.00,1.30
9464.00,1.29
9463.00,1.29
9462.00,1.28
9461.00,1.28
9460.00,1.27
9459.00,1.27
9458.00,1.27
9457.00,1.27
9456.00,1.26
9455.00,1.26
9454.00,1.26
9453.00,1.26
9452.00,1.26
9451.00,1.26
9450.00,1.26
9449.00,1.26
9448.00,1.26
9447.00,1.25
9446.00,1.25
9445.00,1.25
9444.00,1.24
9443.00,1.24
9442.00,1.23
9441.00,1.23
9440.00,1.22
9439.00,1.22
9438.00,1.22
9437.00,1.21
9436.00,1.21
9435.00,1.21
9434.00,1.20
9433.00,1.20
9432.00,1.20
9431.00,1.20
9430.00,1.20
9429.00,1.20
9428.00,1.19
9427.00,1.19
9426.00,1.19
9425.00,1.19
9424.00,1.19
9423.00,1.19
9422.00,1.19
9421.00,1.19
9420.00,1.19
9419.00,1.19
9418.00,1.20
9417.00,1.20
9416.00,1.20
9415.00,1.21
9414.00,1.21
9413.00,1.21
9412.00,1.22
9411.00,1.22
9410.00,1.23
9409.00,1.23
9408.00,1.23
9407.00,1.23
9406.00,1.23
9405.00,1.23
9404.00,1.23
9403.00,1.23
9402.00,1.23
9401.00,1.23
9400.00,1.22
9399.00,1.22
9398.00,1.22
9397.00,1.21
9396.00,1.21
9395.00,1.21
9394.00,1.20
9393.00,1.20
9392.00,1.20
9391.00,1.19
9390.00,1.19
9389.00,1.19
9388.00,1.19
9387.00,1.18
9386.00,1.18
9385.00,1.18
9384.00,1.18
9383.00,1.18
9382.00,1.18
9381.00,1.18
9380.00,1.18
9379.00,1.18
9378.00,1.18
9377.00,1.18
9376.00,1.19
9375.00,1.19
9374.00,1.20
9373.00,1.20
9372.00,1.20
9371.00,1.21
9370.00,1.21
9369.00,1.22
9368.00,1.22
9367.00,1.23
9366.00,1.23
9365.00,1.24
9364.00,1.24
9363.00,1.25
9362.00,1.25
9361.00,1.26
9360.00,1.26
9359.00,1.27
9358.00,1.27
9357.00,1.28
9356.00,1.28
9355.00,1.29
9354.00,1.29
9353.00,1.29
9352.00,1.29
9351.00,1.30
9350.00,1.30
9349.00,1.30
9348.00,1.30
9347.00,1.30
9346.00,1.30
9345.00,1.30
9344.00,1.30
9343.00,1.30
9342.00,1.30
9341.00,1.30
9340.00,1.30
9339.00,1.30
9338.00,1.30
9337.00,1.30
9336.00,1.30
9335.00,1.29
9334.00,1.29
9333.00,1.29
9332.00,1.29
9331.00,1.29
9330.00,1.29
9329.00,1.29
9328.00,1.29
9327.00,1.30
9326.00,1.30
9325.00,1.30
9324.00,1.30
9323.00,1.30
9322.00,1.30
9321.00,1.30
9320.00,1.30
9319.00,1.30
9318.00,1.31
9317.00,1.31
9316.00,1.31
9315.00,1.31
9314.00,1.32
9313.00,1.32
9312.00,1.32
9311.00,1.32
9310.00,1.32
9309.00,1.32
9308.00,1.32
9307.00,1.32
9306.00,1.32
9305.00,1.32
9304.00,1.31
9303.00,1.31
9302.00,1.31
9301.00,1.31
9300.00,1.31
9299.00,1.30
9298.00,1.30
9297.00,1.30
9296.00,1.30
9295.00,1.30
9294.00,1.30
9293.00,1.30
9292.00,1.30
9291.00,1.29
9290.00,1.29
9289.00,1.29
9288.00,1.29
9287.00,1.29
9286.00,1.29
9285.00,1.29
9284.00,1.30
9283.00,1.30
9282.00,1.30
9281.00,1.30
9280.00,1.30
9279.00,1.31
9278.00,1.31
9277.00,1.31
9276.00,1.32
9275.00,1.32
9274.00,1.32
9273.00,1.32
9272.00,1.32
9271.00,1.33
9270.00,1.33
9269.00,1.33
9268.00,1.33
9267.00,1.33
9266.00,1.33
9265.00,1.33
9264.00,1.32
9263.00,1.32
9262.00,1.32
9261.00,1.32
9260.00,1.32
9259.00,1.31
9258.00,1.31
9257.00,1.31
9256.00,1.30
9255.00,1.30
9254.00,1.30
9253.00,1.29
9252.00,1.29
9251.00,1.28
9250.00,1.28
9249.00,1.27
9248.00,1.27
9247.00,1.26
9246.00,1.26
9245.00,1.26
9244.00,1.26
9243.00,1.25
9242.00,1.25
9241.00,1.25
9240.00,1.25
9239.00,1.25
9238.00,1.25
9237.00,1.25
9236.00,1.25
9235.00,1.25
9234.00,1.25
9233.00,1.25
9232.00,1.25
9231.00,1.25
9230.00,1.25
9229.00,1.25
9228.00,1.25
9227.00,1.25
9226.00,1.25
9225.00,1.25
9224.00,1.25
9223.00,1.25
9222.00,1.25
9221.00,1.25
9220.00,1.25
9219.00,1.25
9218.00,1.24
9217.00,1.24
9216.00,1.24
9215.00,1.23
9214.00,1.23
9213.00,1.23
9212.00,1.22
9211.00,1.22
9210.00,1.21
9209.00,1.21
9208.00,1.21
9207.00,1.20
9206.00,1.20
9205.00,1.19
9204.00,1.19
9203.00,1.19
9202.00,1.19
9201.00,1.19
9200.00,1.19
9199.00,1.19
9198.00,1.20
9197.00,1.20
9196.00,1.20
9195.00,1.21
9194.00,1.21
9193.00,1.22
9192.00,1.22
9191.00,1.23
9190.00,1.23
9189.00,1.24
9188.00,1.24
9187.00,1.25
9186.00,1.25
9185.00,1.26
9184.00,1.26
9183.00,1.27
9182.00,1.27
9181.00,1.28
9180.00,1.28
9179.00,1.29
9178.00,1.29
9177.00,1.30
9176.00,1.30
9175.00,1.30
9174.00,1.30
9173.00,1.30
9172.00,1.30
9171.00,1.29
9170.00,1.29
9169.00,1.29
9168.00,1.28
9167.00,1.28
9166.00,1.28
9165.00,1.27
9164.00,1.27
9163.00,1.27
9162.00,1.27
9161.00,1.26
9160.00,1.26
9159.00,1.26
9158.00,1.26
9157.00,1.25
9156.00,1.25
9155.00,1.25
9154.00,1.25
9153.00,1.24
9152.00,1.24
9151.00,1.24
9150.00,1.24
9149.00,1.24
9148.00,1.23
9147.00,1.23
9146.00,1.23
9145.00,1.23
9144.00,1.23
9143.00,1.23
9142.00,1.23
9141.00,1.22
9140.00,1.22
9139.00,1.22
9138.00,1.22
9137.00,1.22
9136.00,1.21
9135.00,1.21
9134.00,1.21
9133.00,1.20
9132.00,1.20
9131.00,1.19
9130.00,1.19
9129.00,1.18
9128.00,1.18
9127.00,1.17
9126.00,1.17
9125.00,1.16
9124.00,1.16
9123.00,1.15
9122.00,1.15
9121.00,1.15
9120.00,1.14
9119.00,1.14
9118.00,1.14
9117.00,1.14
9116.00,1.14
9115.00,1.14
9114.00,1.15
9113.00,1.15
9112.00,1.15
9111.00,1.15
9110.00,1.16
9109.00,1.16
9108.00,1.17
9107.00,1.17
9106.00,1.18
9105.00,1.19
9104.00,1.20
9103.00,1.21
9102.00,1.22
9101.00,1.23
9100.00,1.24
9099.00,1.25
9098.00,1.26
9097.00,1.28
9096.00,1.29
9095.00,1.30
9094.00,1.31
9093.00,1.31
9092.00,1.32
9091.00,1.33
9090.00,1.34
9089.00,1.34
9088.00,1.35
9087.00,1.35
9086.00,1.35
9085.00,1.36
9084.00,1.36
9083.00,1.36
9082.00,1.36
9081.00,1.36
9080.00,1.36
9079.00,1.36
9078.00,1.36
9077.00,1.36
9076.00,1.36
9075.00,1.35
9074.00,1.35
9073.00,1.34
9072.00,1.34
9071.00,1.33
9070.00,1.33
9069.00,1.32
9068.00,1.32
9067.00,1.31
9066.00,1.31
9065.00,1.30
9064.00,1.30
9063.00,1.30
9062.00,1.30
9061.00,1.30
9060.00,1.30
9059.00,1.29
9058.00,1.29
9057.00,1.29
9056.00,1.29
9055.00,1.29
9054.00,1.29
9053.00,1.29
9052.00,1.29
9051.00,1.29
9050.00,1.28
9049.00,1.28
9048.00,1.28
9047.00,1.28
9046.00,1.28
9045.00,1.28
9044.00,1.28
9043.00,1.28
9042.00,1.28
9041.00,1.28
9040.00,1.28
9039.00,1.28
9038.00,1.28
9037.00,1.28
9036.00,1.27
9035.00,1.27
9034.00,1.27
9033.00,1.26
9032.00,1.26
9031.00,1.26
9030.00,1.26
9029.00,1.26
9028.00,1.26
9027.00,1.26
9026.00,1.26
9025.00,1.26
9024.00,1.26
9023.00,1.26
9022.00,1.26
9021.00,1.26
9020.00,1.27
9019.00,1.27
9018.00,1.27
9017.00,1.28
9016.00,1.28
9015.00,1.29
9014.00,1.29
9013.00,1.30
9012.00,1.30
9011.00,1.31
9010.00,1.32
9009.00,1.32
9008.00,1.33
9007.00,1.33
9006.00,1.34
9005.00,1.34
9004.00,1.35
9003.00,1.35
9002.00,1.35
9001.00,1.36
9000.00,1.36
8999.00,1.36
8998.00,1.36
8997.00,1.36
8996.00,1.36
8995.00,1.36
8994.00,1.36
8993.00,1.36
8992.00,1.36
8991.00,1.35
8990.00,1.35
8989.00,1.35
8988.00,1.34
8987.00,1.33
8986.00,1.33
8985.00,1.32
8984.00,1.31
8983.00,1.31
8982.00,1.30
8981.00,1.29
8980.00,1.29
8979.00,1.28
8978.00,1.28
8977.00,1.28
8976.00,1.27
8975.00,1.27
8974.00,1.27
8973.00,1.26
8972.00,1.26
8971.00,1.26
8970.00,1.26
8969.00,1.25
8968.00,1.25
8967.00,1.25
8966.00,1.25
8965.00,1.25
8964.00,1.25
8963.00,1.25
8962.00,1.25
8961.00,1.26
8960.00,1.26
8959.00,1.26
8958.00,1.26
8957.00,1.27
8956.00,1.27
8955.00,1.27
8954.00,1.27
8953.00,1.27
8952.00,1.27
8951.00,1.27
8950.00,1.27
8949.00,1.27
8948.00,1.27
8947.00,1.27
8946.00,1.27
8945.00,1.27
8944.00,1.27
8943.00,1.27
8942.00,1.27
8941.00,1.27
8940.00,1.27
8939.00,1.27
8938.00,1.27
8937.00,1.27
8936.00,1.27
8935.00,1.27
8934.00,1.27
8933.00,1.26
8932.00,1.26
8931.00,1.26
8930.00,1.26
8929.00,1.26
8928.00,1.27
8927.00,1.27
8926.00,1.27
8925.00,1.27
8924.00,1.28
8923.00,1.28
8922.00,1.28
8921.00,1.29
8920.00,1.29
8919.00,1.30
8918.00,1.30
8917.00,1.30
8916.00,1.31
8915.00,1.31
8914.00,1.32
8913.00,1.32
8912.00,1.32
8911.00,1.33
8910.00,1.33
8909.00,1.33
8908.00,1.34
8907.00,1.34
8906.00,1.34
8905.00,1.34
8904.00,1.35
8903.00,1.35
8902.00,1.35
8901.00,1.35
8900.00,1.35
8899.00,1.34
8898.00,1.34
8897.00,1.34
8896.00,1.33
8895.00,1.33
8894.00,1.32
8893.00,1.32
8892.00,1.31
8891.00,1.31
8890.00,1.30
8889.00,1.30
8888.00,1.29
8887.00,1.28
8886.00,1.28
8885.00,1.27
8884.00,1.26
8883.00,1.26
8882.00,1.25
8881.00,1.24
8880.00,1.24
8879.00,1.23
8878.00,1.23
8877.00,1.23
8876.00,1.23
8875.00,1.22
8874.00,1.22
8873.00,1.22
8872.00,1.23
8871.00,1.23
8870.00,1.23
8869.00,1.23
8868.00,1.24
8867.00,1.24
8866.00,1.24
8865.00,1.25
8864.00,1.25
8863.00,1.26
8862.00,1.26
8861.00,1.27
8860.00,1.27
8859.00,1.28
8858.00,1.28
8857.00,1.29
8856.00,1.29
8855.00,1.30
8854.00,1.30
8853.00,1.31
8852.00,1.31
8851.00,1.31
8850.00,1.31
8849.00,1.32
8848.00,1.32
8847.00,1.32
8846.00,1.32
8845.00,1.32
8844.00,1.32
8843.00,1.32
8842.00,1.31
8841.00,1.31
8840.00,1.31
8839.00,1.31
8838.00,1.31
8837.00,1.31
8836.00,1.30
8835.00,1.30
8834.00,1.30
8833.00,1.30
8832.00,1.29
8831.00,1.29
8830.00,1.29
8829.00,1.28
8828.00,1.28
8827.00,1.28
8826.00,1.27
8825.00,1.27
8824.00,1.27
8823.00,1.26
8822.00,1.26
8821.00,1.26
8820.00,1.26
8819.00,1.26
8818.00,1.25
8817.00,1.25
8816.00,1.25
8815.00,1.25
8814.00,1.24
8813.00,1.24
8812.00,1.24
8811.00,1.23
8810.00,1.23
8809.00,1.23
8808.00,1.22
8807.00,1.22
8806.00,1.22
8805.00,1.22
8804.00,1.22
8803.00,1.23
8802.00,1.23
8801.00,1.23
8800.00,1.24
8799.00,1.24
8798.00,1.24
8797.00,1.25
8796.00,1.25
8795.00,1.25
8794.00,1.26
8793.00,1.26
8792.00,1.26
8791.00,1.27
8790.00,1.27
8789.00,1.28
8788.00,1.29
8787.00,1.29
8786.00,1.30
8785.00,1.31
8784.00,1.32
8783.00,1.33
8782.00,1.33
8781.00,1.34
8780.00,1.35
8779.00,1.36
8778.00,1.36
8777.00,1.37
8776.00,1.37
8775.00,1.37
8774.00,1.38
8773.00,1.38
8772.00,1.38
8771.00,1.38
8770.00,1.38
8769.00,1.38
8768.00,1.38
8767.00,1.38
8766.00,1.38
8765.00,1.38
8764.00,1.38
8763.00,1.38
8762.00,1.38
8761.00,1.38
8760.00,1.38
8759.00,1.37
8758.00,1.37
8757.00,1.37
8756.00,1.36
8755.00,1.36
8754.00,1.35
8753.00,1.35
8752.00,1.34
8751.00,1.34
8750.00,1.33
8749.00,1.33
8748.00,1.33
8747.00,1.32
8746.00,1.32
8745.00,1.32
8744.00,1.31
8743.00,1.31
8742.00,1.31
8741.00,1.30
8740.00,1.30
8739.00,1.30
8738.00,1.30
8737.00,1.30
8736.00,1.29
8735.00,1.29
8734.00,1.29
8733.00,1.29
8732.00,1.28
8731.00,1.28
8730.00,1.28
8729.00,1.28
8728.00,1.28
8727.00,1.28
8726.00,1.28
8725.00,1.27
8724.00,1.27
8723.00,1.28
8722.00,1.28
8721.00,1.28
8720.00,1.28
8719.00,1.28
8718.00,1.28
8717.00,1.28
8716.00,1.28
8715.00,1.29
8714.00,1.29
8713.00,1.29
8712.00,1.29
8711.00,1.30
8710.00,1.30
8709.00,1.31
8708.00,1.31
8707.00,1.32
8706.00,1.32
8705.00,1.33
8704.00,1.33
8703.00,1.33
8702.00,1.34
8701.00,1.34
8700.00,1.34
8699.00,1.35
8698.00,1.35
8697.00,1.35
8696.00,1.35
8695.00,1.34
8694.00,1.34
8693.00,1.34
8692.00,1.33
8691.00,1.33
8690.00,1.32
8689.00,1.32
8688.00,1.31
8687.00,1.30
8686.00,1.29
8685.00,1.29
8684.00,1.28
8683.00,1.27
8682.00,1.26
8681.00,1.25
8680.00,1.24
8679.00,1.22
8678.00,1.21
8677.00,1.20
8676.00,1.20
8675.00,1.19
8674.00,1.18
8673.00,1.17
8672.00,1.16
8671.00,1.16
8670.00,1.15
8669.00,1.15
8668.00,1.15
8667.00,1.15
8666.00,1.15
8665.00,1.15
8664.00,1.15
8663.00,1.15
8662.00,1.16
8661.00,1.16
8660.00,1.16
8659.00,1.17
8658.00,1.17
8657.00,1.18
8656.00,1.18
8655.00,1.18
8654.00,1.19
8653.00,1.19
8652.00,1.20
8651.00,1.20
8650.00,1.21
8649.00,1.21
8648.00,1.22
8647.00,1.23
8646.00,1.23
8645.00,1.24
8644.00,1.24
8643.00,1.25
8642.00,1.25
8641.00,1.25
8640.00,1.25
8639.00,1.26
8638.00,1.26
8637.00,1.26
8636.00,1.26
8635.00,1.26
8634.00,1.26
8633.00,1.26
8632.00,1.26
8631.00,1.27
8630.00,1.27
8629.00,1.27
8628.00,1.27
8627.00,1.28
8626.00,1.28
8625.00,1.28
8624.00,1.28
8623.00,1.28
8622.00,1.28
8621.00,1.28
8620.00,1.28
8619.00,1.28
8618.00,1.28
8617.00,1.28
8616.00,1.29
8615.00,1.29
8614.00,1.29
8613.00,1.29
8612.00,1.29
8611.00,1.29
8610.00,1.29
8609.00,1.30
8608.00,1.30
8607.00,1.30
8606.00,1.30
8605.00,1.30
8604.00,1.30
8603.00,1.30
8602.00,1.29
8601.00,1.29
8600.00,1.29
8599.00,1.29
8598.00,1.29
8597.00,1.29
8596.00,1.28
8595.00,1.28
8594.00,1.28
8593.00,1.27
8592.00,1.27
8591.00,1.26
8590.00,1.25
8589.00,1.25
8588.00,1.24
8587.00,1.23
8586.00,1.22
8585.00,1.22
8584.00,1.21
8583.00,1.20
8582.00,1.19
8581.00,1.19
8580.00,1.18
8579.00,1.17
8578.00,1.17
8577.00,1.16
8576.00,1.16
8575.00,1.15
8574.00,1.15
8573.00,1.15
8572.00,1.14
8571.00,1.14
8570.00,1.14
8569.00,1.14
8568.00,1.15
8567.00,1.15
8566.00,1.15
8565.00,1.15
8564.00,1.16
8563.00,1.16
8562.00,1.17
8561.00,1.17
8560.00,1.18
8559.00,1.19
8558.00,1.20
8557.00,1.21
8556.00,1.22
8555.00,1.23
8554.00,1.24
8553.00,1.25
8552.00,1.26
8551.00,1.27
8550.00,1.28
8549.00,1.29
8548.00,1.30
8547.00,1.31
8546.00,1.31
8545.00,1.32
8544.00,1.33
8543.00,1.33
8542.00,1.34
8541.00,1.35
8540.00,1.35
8539.00,1.36
8538.00,1.37
8537.00,1.37
8536.00,1.38
8535.00,1.39
8534.00,1.39
8533.00,1.40
8532.00,1.40
8531.00,1.40
8530.00,1.40
8529.00,1.40
8528.00,1.40
8527.00,1.40
8526.00,1.39
8525.00,1.39
8524.00,1.39
8523.00,1.39
8522.00,1.38
8521.00,1.38
8520.00,1.38
8519.00,1.37
8518.00,1.37
8517.00,1.36
8516.00,1.36
8515.00,1.36
8514.00,1.35
8513.00,1.34
8512.00,1.34
8511.00,1.33
8510.00,1.33
8509.00,1.32
8508.00,1.32
8507.00,1.31
8506.00,1.31
8505.00,1.30
8504.00,1.30
8503.00,1.30
8502.00,1.30
8501.00,1.30
8500.00,1.30
8499.00,1.30
8498.00,1.30
8497.00,1.30
8496.00,1.30
8495.00,1.30
8494.00,1.30
8493.00,1.30
8492.00,1.30
8491.00,1.30
8490.00,1.30
8489.00,1.30
8488.00,1.31
8487.00,1.31
8486.00,1.31
8485.00,1.31
8484.00,1.31
8483.00,1.31
8482.00,1.32
8481.00,1.32
8480.00,1.32
8479.00,1.32
8478.00,1.32
8477.00,1.32
8476.00,1.32
8475.00,1.32
8474.00,1.32
8473.00,1.32
8472.00,1.31
8471.00,1.31
8470.00,1.31
8469.00,1.30
8468.00,1.30
8467.00,1.30
8466.00,1.29
8465.00,1.29
8464.00,1.29
8463.00,1.28
8462.00,1.28
8461.00,1.27
8460.00,1.27
8459.00,1.27
8458.00,1.26
8457.00,1.26
8456.00,1.25
8455.00,1.25
8454.00,1.24
8453.00,1.24
8452.00,1.23
8451.00,1.23
8450.00,1.22
8449.00,1.22
8448.00,1.21
8447.00,1.21
8446.00,1.21
8445.00,1.20
8444.00,1.20
8443.00,1.20
8442.00,1.20
8441.00,1.19
8440.00,1.19
8439.00,1.19
8438.00,1.19
8437.00,1.19
8436.00,1.19
8435.00,1.19
8434.00,1.19
8433.00,1.19
8432.00,1.19
8431.00,1.20
8430.00,1.20
8429.00,1.20
8428.00,1.20
8427.00,1.21
8426.00,1.21
8425.00,1.21
8424.00,1.21
8423.00,1.22
8422.00,1.22
8421.00,1.22
8420.00,1.22
8419.00,1.23
8418.00,1.23
8417.00,1.23
8416.00,1.23
8415.00,1.24
8414.00,1.24
8413.00,1.24
8412.00,1.24
8411.00,1.24
8410.00,1.24
8409.00,1.24
8408.00,1.24
8407.00,1.24
8406.00,1.24
8405.00,1.23
8404.00,1.23
8403.00,1.23
8402.00,1.23
8401.00,1.22
8400.00,1.22
8399.00,1.22
8398.00,1.22
8397.00,1.21
8396.00,1.21
8395.00,1.21
8394.00,1.21
8393.00,1.21
8392.00,1.21
8391.00,1.21
8390.00,1.21
8389.00,1.21
8388.00,1.21
8387.00,1.21
8386.00,1.21
8385.00,1.21
8384.00,1.21
8383.00,1.21
8382.00,1.22
8381.00,1.22
8380.00,1.22
8379.00,1.23
8378.00,1.23
8377.00,1.24
8376.00,1.25
8375.00,1.25
8374.00,1.26
8373.00,1.26
8372.00,1.27
8371.00,1.27
8370.00,1.28
8369.00,1.28
8368.00,1.29
8367.00,1.29
8366.00,1.30
8365.00,1.30
8364.00,1.30
8363.00,1.31
8362.00,1.31
8361.00,1.31
8360.00,1.31
8359.00,1.31
8358.00,1.32
8357.00,1.32
8356.00,1.32
8355.00,1.32
8354.00,1.32
8353.00,1.32
8352.00,1.32
8351.00,1.32
8350.00,1.32
8349.00,1.32
8348.00,1.32
8347.00,1.32
8346.00,1.32
8345.00,1.32
8344.00,1.32
8343.00,1.33
8342.00,1.33
8341.00,1.33
8340.00,1.33
8339.00,1.34
8338.00,1.34
8337.00,1.34
8336.00,1.35
8335.00,1.35
8334.00,1.35
8333.00,1.36
8332.00,1.36
8331.00,1.37
8330.00,1.37
8329.00,1.37
8328.00,1.37
8327.00,1.38
8326.00,1.38
8325.00,1.38
8324.00,1.38
8323.00,1.38
8322.00,1.38
8321.00,1.39
8320.00,1.39
8319.00,1.39
8318.00,1.39
8317.00,1.38
8316.00,1.38
8315.00,1.38
8314.00,1.38
8313.00,1.38
8312.00,1.37
8311.00,1.37
8310.00,1.36
8309.00,1.36
8308.00,1.36
8307.00,1.35
8306.00,1.35
8305.00,1.35
8304.00,1.34
8303.00,1.34
8302.00,1.34
8301.00,1.33
8300.00,1.33
8299.00,1.33
8298.00,1.33
8297.00,1.32
8296.00,1.32
8295.00,1.32
8294.00,1.32
8293.00,1.31
8292.00,1.31
8291.00,1.31
8290.00,1.31
8289.00,1.31
8288.00,1.31
8287.00,1.30
8286.00,1.30
8285.00,1.30
8284.00,1.31
8283.00,1.31
8282.00,1.31
8281.00,1.31
8280.00,1.31
8279.00,1.31
8278.00,1.31
8277.00,1.31
8276.00,1.31
8275.00,1.31
8274.00,1.31
8273.00,1.31
8272.00,1.32
8271.00,1.32
8270.00,1.32
8269.00,1.32
8268.00,1.33
8267.00,1.33
8266.00,1.33
8265.00,1.33
8264.00,1.34
8263.00,1.34
8262.00,1.34
8261.00,1.34
8260.00,1.35
8259.00,1.35
8258.00,1.35
8257.00,1.35
8256.00,1.35
8255.00,1.35
8254.00,1.35
8253.00,1.35
8252.00,1.35
8251.00,1.35
8250.00,1.35
8249.00,1.35
8248.00,1.35
8247.00,1.35
8246.00,1.35
8245.00,1.35
8244.00,1.35
8243.00,1.34
8242.00,1.34
8241.00,1.34
8240.00,1.34
8239.00,1.34
8238.00,1.33
8237.00,1.33
8236.00,1.33
8235.00,1.33
8234.00,1.33
8233.00,1.33
8232.00,1.33
8231.00,1.33
8230.00,1.33
8229.00,1.33
8228.00,1.33
8227.00,1.33
8226.00,1.33
8225.00,1.33
8224.00,1.34
8223.00,1.34
8222.00,1.34
8221.00,1.34
8220.00,1.34
8219.00,1.34
8218.00,1.34
8217.00,1.35
8216.00,1.35
8215.00,1.35
8214.00,1.35
8213.00,1.35
8212.00,1.35
8211.00,1.36
8210.00,1.36
8209.00,1.36
8208.00,1.36
8207.00,1.36
8206.00,1.36
8205.00,1.37
8204.00,1.37
8203.00,1.37
8202.00,1.36
8201.00,1.36
8200.00,1.36
8199.00,1.36
8198.00,1.36
8197.00,1.36
8196.00,1.35
8195.00,1.35
8194.00,1.35
8193.00,1.35
8192.00,1.35
8191.00,1.35
8190.00,1.35
8189.00,1.35
8188.00,1.36
8187.00,1.36
8186.00,1.36
8185.00,1.36
8184.00,1.36
8183.00,1.36
8182.00,1.36
8181.00,1.36
8180.00,1.36
8179.00,1.35
8178.00,1.35
8177.00,1.35
8176.00,1.35
8175.00,1.35
8174.00,1.35
8173.00,1.35
8172.00,1.35
8171.00,1.35
8170.00,1.35
8169.00,1.35
8168.00,1.34
8167.00,1.34
8166.00,1.34
8165.00,1.34
8164.00,1.33
8163.00,1.33
8162.00,1.33
8161.00,1.32
8160.00,1.32
8159.00,1.31
8158.00,1.31
8157.00,1.31
8156.00,1.30
8155.00,1.30
8154.00,1.29
8153.00,1.29
8152.00,1.29
8151.00,1.28
8150.00,1.28
8149.00,1.28
8148.00,1.28
8147.00,1.28
8146.00,1.28
8145.00,1.28
8144.00,1.28
8143.00,1.27
8142.00,1.27
8141.00,1.27
8140.00,1.27
8139.00,1.27
8138.00,1.27
8137.00,1.27
8136.00,1.27
8135.00,1.27
8134.00,1.27
8133.00,1.27
8132.00,1.27
8131.00,1.27
8130.00,1.27
8129.00,1.27
8128.00,1.27
8127.00,1.28
8126.00,1.28
8125.00,1.28
8124.00,1.28
8123.00,1.28
8122.00,1.28
8121.00,1.28
8120.00,1.28
8119.00,1.28
8118.00,1.28
8117.00,1.28
8116.00,1.28
8115.00,1.29
8114.00,1.29
8113.00,1.30
8112.00,1.30
8111.00,1.31
8110.00,1.31
8109.00,1.32
8108.00,1.32
8107.00,1.33
8106.00,1.33
8105.00,1.33
8104.00,1.34
8103.00,1.34
8102.00,1.34
8101.00,1.35
8100.00,1.35
8099.00,1.35
8098.00,1.35
8097.00,1.35
8096.00,1.36
8095.00,1.36
8094.00,1.36
8093.00,1.36
8092.00,1.36
8091.00,1.36
8090.00,1.37
8089.00,1.36
8088.00,1.36
8087.00,1.36
8086.00,1.36
8085.00,1.35
8084.00,1.35
8083.00,1.35
8082.00,1.34
8081.00,1.34
8080.00,1.33
8079.00,1.33
8078.00,1.32
8077.00,1.32
8076.00,1.32
8075.00,1.31
8074.00,1.31
8073.00,1.31
8072.00,1.31
8071.00,1.31
8070.00,1.30
8069.00,1.30
8068.00,1.30
8067.00,1.30
8066.00,1.30
8065.00,1.30
8064.00,1.30
8063.00,1.30
8062.00,1.29
8061.00,1.29
8060.00,1.29
8059.00,1.30
8058.00,1.30
8057.00,1.30
8056.00,1.30
8055.00,1.30
8054.00,1.30
8053.00,1.31
8052.00,1.31
8051.00,1.31
8050.00,1.31
8049.00,1.32
8048.00,1.32
8047.00,1.32
8046.00,1.32
8045.00,1.32
8044.00,1.33
8043.00,1.33
8042.00,1.33
8041.00,1.33
8040.00,1.33
8039.00,1.33
8038.00,1.33
8037.00,1.33
8036.00,1.33
8035.00,1.33
8034.00,1.33
8033.00,1.32
8032.00,1.32
8031.00,1.32
8030.00,1.32
8029.00,1.31
8028.00,1.31
8027.00,1.31
8026.00,1.30
8025.00,1.30
8024.00,1.30
8023.00,1.29
8022.00,1.29
8021.00,1.28
8020.00,1.28
8019.00,1.28
8018.00,1.27
8017.00,1.27
8016.00,1.27
8015.00,1.27
8014.00,1.27
8013.00,1.27
8012.00,1.27
8011.00,1.27
8010.00,1.27
8009.00,1.27
8008.00,1.27
8007.00,1.27
8006.00,1.27
8005.00,1.27
8004.00,1.27
8003.00,1.28
8002.00,1.28
8001.00,1.28
8000.00,1.28
7999.00,1.29
7998.00,1.29
7997.00,1.29
7996.00,1.29
7995.00,1.30
7994.00,1.30
7993.00,1.30
7992.00,1.31
7991.00,1.31
7990.00,1.31
7989.00,1.31
7988.00,1.32
7987.00,1.32
7986.00,1.32
7985.00,1.32
7984.00,1.32
7983.00,1.32
7982.00,1.33
7981.00,1.33
7980.00,1.33
7979.00,1.34
7978.00,1.34
7977.00,1.34
7976.00,1.35
7975.00,1.35
7974.00,1.35
7973.00,1.35
7972.00,1.36
7971.00,1.36
7970.00,1.36
7969.00,1.37
7968.00,1.37
7967.00,1.37
7966.00,1.37
7965.00,1.37
7964.00,1.38
7963.00,1.38
7962.00,1.38
7961.00,1.38
7960.00,1.38
7959.00,1.38
7958.00,1.38
7957.00,1.38
7956.00,1.38
7955.00,1.38
7954.00,1.38
7953.00,1.37
7952.00,1.37
7951.00,1.37
7950.00,1.37
7949.00,1.36
7948.00,1.36
7947.00,1.36
7946.00,1.35
7945.00,1.35
7944.00,1.35
7943.00,1.34
7942.00,1.34
7941.00,1.34
7940.00,1.34
7939.00,1.33
7938.00,1.33
7937.00,1.33
7936.00,1.33
7935.00,1.33
7934.00,1.33
7933.00,1.32
7932.00,1.32
7931.00,1.32
7930.00,1.32
7929.00,1.32
7928.00,1.32
7927.00,1.32
7926.00,1.32
7925.00,1.32
7924.00,1.32
7923.00,1.33
7922.00,1.33
7921.00,1.33
7920.00,1.33
7919.00,1.34
7918.00,1.34
7917.00,1.34
7916.00,1.34
7915.00,1.34
7914.00,1.35
7913.00,1.35
7912.00,1.35
7911.00,1.35
7910.00,1.35
7909.00,1.35
7908.00,1.35
7907.00,1.35
7906.00,1.35
7905.00,1.35
7904.00,1.35
7903.00,1.35
7902.00,1.35
7901.00,1.35
7900.00,1.35
7899.00,1.35
7898.00,1.35
7897.00,1.34
7896.00,1.34
7895.00,1.34
7894.00,1.34
7893.00,1.34
7892.00,1.34
7891.00,1.34
7890.00,1.33
7889.00,1.33
7888.00,1.33
7887.00,1.33
7886.00,1.33
7885.00,1.33
7884.00,1.33
7883.00,1.33
7882.00,1.33
7881.00,1.33
7880.00,1.33
7879.00,1.33
7878.00,1.33
7877.00,1.33
7876.00,1.33
7875.00,1.33
7874.00,1.33
7873.00,1.33
7872.00,1.33
7871.00,1.33
7870.00,1.33
7869.00,1.33
7868.00,1.33
7867.00,1.33
7866.00,1.33
7865.00,1.33
7864.00,1.33
7863.00,1.33
7862.00,1.33
7861.00,1.33
7860.00,1.33
7859.00,1.34
7858.00,1.34
7857.00,1.34
7856.00,1.34
7855.00,1.34
7854.00,1.35
7853.00,1.35
7852.00,1.35
7851.00,1.35
7850.00,1.36
7849.00,1.36
7848.00,1.36
7847.00,1.36
7846.00,1.36
7845.00,1.37
7844.00,1.37
7843.00,1.37
7842.00,1.37
7841.00,1.38
7840.00,1.38
7839.00,1.38
7838.00,1.38
7837.00,1.38
7836.00,1.38
7835.00,1.39
7834.00,1.39
7833.00,1.39
7832.00,1.39
7831.00,1.39
7830.00,1.38
7829.00,1.38
7828.00,1.38
7827.00,1.38
7826.00,1.38
7825.00,1.38
7824.00,1.38
7823.00,1.37
7822.00,1.37
7821.00,1.37
7820.00,1.37
7819.00,1.37
7818.00,1.37
7817.00,1.36
7816.00,1.36
7815.00,1.36
7814.00,1.36
7813.00,1.35
7812.00,1.35
7811.00,1.35
7810.00,1.35
7809.00,1.35
7808.00,1.34
7807.00,1.34
7806.00,1.34
7805.00,1.34
7804.00,1.33
7803.00,1.33
7802.00,1.33
7801.00,1.33
7800.00,1.33
7799.00,1.33
7798.00,1.32
7797.00,1.32
7796.00,1.32
7795.00,1.32
7794.00,1.32
7793.00,1.32
7792.00,1.32
7791.00,1.32
7790.00,1.32
7789.00,1.32
7788.00,1.32
7787.00,1.32
7786.00,1.32
7785.00,1.32
7784.00,1.32
7783.00,1.32
7782.00,1.32
7781.00,1.33
7780.00,1.33
7779.00,1.33
7778.00,1.34
7777.00,1.34
7776.00,1.34
7775.00,1.35
7774.00,1.35
7773.00,1.35
7772.00,1.36
7771.00,1.36
7770.00,1.36
7769.00,1.36
7768.00,1.37
7767.00,1.37
7766.00,1.37
7765.00,1.37
7764.00,1.37
7763.00,1.37
7762.00,1.38
7761.00,1.38
7760.00,1.38
7759.00,1.38
7758.00,1.38
7757.00,1.38
7756.00,1.38
7755.00,1.39
7754.00,1.39
7753.00,1.39
7752.00,1.38
7751.00,1.38
7750.00,1.38
7749.00,1.38
7748.00,1.38
7747.00,1.38
7746.00,1.38
7745.00,1.38
7744.00,1.38
7743.00,1.38
7742.00,1.38
7741.00,1.38
7740.00,1.38
7739.00,1.38
7738.00,1.39
7737.00,1.39
7736.00,1.39
7735.00,1.39
7734.00,1.39
7733.00,1.39
7732.00,1.39
7731.00,1.39
7730.00,1.39
7729.00,1.39
7728.00,1.39
7727.00,1.39
7726.00,1.39
7725.00,1.39
7724.00,1.39
7723.00,1.39
7722.00,1.39
7721.00,1.39
7720.00,1.39
7719.00,1.39
7718.00,1.39
7717.00,1.39
7716.00,1.39
7715.00,1.38
7714.00,1.38
7713.00,1.38
7712.00,1.38
7711.00,1.38
7710.00,1.37
7709.00,1.37
7708.00,1.37
7707.00,1.37
7706.00,1.37
7705.00,1.37
7704.00,1.37
7703.00,1.36
7702.00,1.36
7701.00,1.36
7700.00,1.36
7699.00,1.35
7698.00,1.35
7697.00,1.35
7696.00,1.35
7695.00,1.34
7694.00,1.34
7693.00,1.34
7692.00,1.34
7691.00,1.34
7690.00,1.34
7689.00,1.33
7688.00,1.33
7687.00,1.33
7686.00,1.33
7685.00,1.33
7684.00,1.33
7683.00,1.32
7682.00,1.32
7681.00,1.32
7680.00,1.32
7679.00,1.32
7678.00,1.32
7677.00,1.32
7676.00,1.32
7675.00,1.32
7674.00,1.32
7673.00,1.32
7672.00,1.32
7671.00,1.32
7670.00,1.32
7669.00,1.32
7668.00,1.32
7667.00,1.33
7666.00,1.33
7665.00,1.33
7664.00,1.34
7663.00,1.34
7662.00,1.34
7661.00,1.35
7660.00,1.35
7659.00,1.36
7658.00,1.36
7657.00,1.37
7656.00,1.37
7655.00,1.37
7654.00,1.38
7653.00,1.38
7652.00,1.38
7651.00,1.38
7650.00,1.39
7649.00,1.39
7648.00,1.39
7647.00,1.39
7646.00,1.39
7645.00,1.39
7644.00,1.39
7643.00,1.39
7642.00,1.39
7641.00,1.39
7640.00,1.39
7639.00,1.39
7638.00,1.39
7637.00,1.38
7636.00,1.38
7635.00,1.38
7634.00,1.37
7633.00,1.37
7632.00,1.37
7631.00,1.37
7630.00,1.37
7629.00,1.37
7628.00,1.36
7627.00,1.36
7626.00,1.36
7625.00,1.37
7624.00,1.37
7623.00,1.37
7622.00,1.37
7621.00,1.37
7620.00,1.37
7619.00,1.37
7618.00,1.37
7617.00,1.37
7616.00,1.37
7615.00,1.38
7614.00,1.38
7613.00,1.38
7612.00,1.38
7611.00,1.38
7610.00,1.39
7609.00,1.39
7608.00,1.39
7607.00,1.39
7606.00,1.39
7605.00,1.39
7604.00,1.39
7603.00,1.39
7602.00,1.39
7601.00,1.39
7600.00,1.39
7599.00,1.39
7598.00,1.39
7597.00,1.39
7596.00,1.39
7595.00,1.39
7594.00,1.39
7593.00,1.39
7592.00,1.39
7591.00,1.39
7590.00,1.39
7589.00,1.39
7588.00,1.39
7587.00,1.39
7586.00,1.39
7585.00,1.38
7584.00,1.38
7583.00,1.38
7582.00,1.38
7581.00,1.38
7580.00,1.38
7579.00,1.38
7578.00,1.38
7577.00,1.38
7576.00,1.39
7575.00,1.39
7574.00,1.39
7573.00,1.39
7572.00,1.39
7571.00,1.39
7570.00,1.39
7569.00,1.39
7568.00,1.39
7567.00,1.39
7566.00,1.38
7565.00,1.38
7564.00,1.38
7563.00,1.38
7562.00,1.38
7561.00,1.38
7560.00,1.38
7559.00,1.38
7558.00,1.38
7557.00,1.37
7556.00,1.37
7555.00,1.37
7554.00,1.37
7553.00,1.37
7552.00,1.37
7551.00,1.37
7550.00,1.37
7549.00,1.36
7548.00,1.36
7547.00,1.36
7546.00,1.36
7545.00,1.36
7544.00,1.36
7543.00,1.36
7542.00,1.37
7541.00,1.37
7540.00,1.37
7539.00,1.37
7538.00,1.37
7537.00,1.38
7536.00,1.38
7535.00,1.38
7534.00,1.38
7533.00,1.39
7532.00,1.39
7531.00,1.39
7530.00,1.39
7529.00,1.39
7528.00,1.40
7527.00,1.40
7526.00,1.40
7525.00,1.40
7524.00,1.40
7523.00,1.41
7522.00,1.41
7521.00,1.41
7520.00,1.41
7519.00,1.41
7518.00,1.41
7517.00,1.41
7516.00,1.41
7515.00,1.41
7514.00,1.41
7513.00,1.41
7512.00,1.41
7511.00,1.41
7510.00,1.41
7509.00,1.41
7508.00,1.41
7507.00,1.41
7506.00,1.40
7505.00,1.40
7504.00,1.40
7503.00,1.40
7502.00,1.40
7501.00,1.40
7500.00,1.40
7499.00,1.40
7498.00,1.40
7497.00,1.40
7496.00,1.40
7495.00,1.40
7494.00,1.40
7493.00,1.40
7492.00,1.40
7491.00,1.40
7490.00,1.40
7489.00,1.40
7488.00,1.40
7487.00,1.40
7486.00,1.40
7485.00,1.41
7484.00,1.41
7483.00,1.41
7482.00,1.41
7481.00,1.41
7480.00,1.41
7479.00,1.41
7478.00,1.41
7477.00,1.41
7476.00,1.41
7475.00,1.41
7474.00,1.41
7473.00,1.41
7472.00,1.41
7471.00,1.41
7470.00,1.41
7469.00,1.41
7468.00,1.41
7467.00,1.41
7466.00,1.41
7465.00,1.40
7464.00,1.40
7463.00,1.40
7462.00,1.39
7461.00,1.39
7460.00,1.39
7459.00,1.39
7458.00,1.38
7457.00,1.38
7456.00,1.38
7455.00,1.38
7454.00,1.37
7453.00,1.37
7452.00,1.37
7451.00,1.36
7450.00,1.36
7449.00,1.36
7448.00,1.36
7447.00,1.36
7446.00,1.35
7445.00,1.35
7444.00,1.35
7443.00,1.35
7442.00,1.35
7441.00,1.35
7440.00,1.35
7439.00,1.35
7438.00,1.35
7437.00,1.35
7436.00,1.35
7435.00,1.36
7434.00,1.36
7433.00,1.36
7432.00,1.36
7431.00,1.36
7430.00,1.37
7429.00,1.37
7428.00,1.37
7427.00,1.37
7426.00,1.37
7425.00,1.37
7424.00,1.38
7423.00,1.38
7422.00,1.38
7421.00,1.38
7420.00,1.38
7419.00,1.38
7418.00,1.38
7417.00,1.39
7416.00,1.39
7415.00,1.39
7414.00,1.39
7413.00,1.39
7412.00,1.40
7411.00,1.40
7410.00,1.40
7409.00,1.40
7408.00,1.40
7407.00,1.40
7406.00,1.39
7405.00,1.39
7404.00,1.39
7403.00,1.39
7402.00,1.39
7401.00,1.39
7400.00,1.39
7399.00,1.39
7398.00,1.39
7397.00,1.39
7396.00,1.39
7395.00,1.39
7394.00,1.39
7393.00,1.39
7392.00,1.39
7391.00,1.39
7390.00,1.39
7389.00,1.39
7388.00,1.38
7387.00,1.38
7386.00,1.38
7385.00,1.38
7384.00,1.38
7383.00,1.38
7382.00,1.38
7381.00,1.38
7380.00,1.38
7379.00,1.38
7378.00,1.38
7377.00,1.39
7376.00,1.39
7375.00,1.39
7374.00,1.39
7373.00,1.39
7372.00,1.39
7371.00,1.39
7370.00,1.38
7369.00,1.38
7368.00,1.38
7367.00,1.38
7366.00,1.38
7365.00,1.37
7364.00,1.37
7363.00,1.37
7362.00,1.37
7361.00,1.36
7360.00,1.36
7359.00,1.36
7358.00,1.36
7357.00,1.35
7356.00,1.35
7355.00,1.35
7354.00,1.35
7353.00,1.34
7352.00,1.34
7351.00,1.34
7350.00,1.34
7349.00,1.33
7348.00,1.33
7347.00,1.33
7346.00,1.33
7345.00,1.33
7344.00,1.33
7343.00,1.33
7342.00,1.33
7341.00,1.33
7340.00,1.33
7339.00,1.33
7338.00,1.34
7337.00,1.34
7336.00,1.34
7335.00,1.34
7334.00,1.34
7333.00,1.34
7332.00,1.35
7331.00,1.35
7330.00,1.35
7329.00,1.35
7328.00,1.34
7327.00,1.34
7326.00,1.34
7325.00,1.34
7324.00,1.34
7323.00,1.34
7322.00,1.34
7321.00,1.34
7320.00,1.34
7319.00,1.34
7318.00,1.34
7317.00,1.33
7316.00,1.33
7315.00,1.33
7314.00,1.33
7313.00,1.32
7312.00,1.32
7311.00,1.32
7310.00,1.32
7309.00,1.32
7308.00,1.31
7307.00,1.31
7306.00,1.31
7305.00,1.31
7304.00,1.31
7303.00,1.31
7302.00,1.31
7301.00,1.31
7300.00,1.31
7299.00,1.31
7298.00,1.31
7297.00,1.32
7296.00,1.32
7295.00,1.32
7294.00,1.32
7293.00,1.32
7292.00,1.32
7291.00,1.32
7290.00,1.33
7289.00,1.33
7288.00,1.33
7287.00,1.33
7286.00,1.33
7285.00,1.33
7284.00,1.33
7283.00,1.33
7282.00,1.33
7281.00,1.33
7280.00,1.33
7279.00,1.33
7278.00,1.33
7277.00,1.33
7276.00,1.33
7275.00,1.33
7274.00,1.33
7273.00,1.33
7272.00,1.33
7271.00,1.33
7270.00,1.33
7269.00,1.32
7268.00,1.32
7267.00,1.32
7266.00,1.32
7265.00,1.32
7264.00,1.31
7263.00,1.31
7262.00,1.31
7261.00,1.31
7260.00,1.31
7259.00,1.30
7258.00,1.30
7257.00,1.30
7256.00,1.30
7255.00,1.30
7254.00,1.30
7253.00,1.29
7252.00,1.29
7251.00,1.29
7250.00,1.29
7249.00,1.28
7248.00,1.28
7247.00,1.28
7246.00,1.27
7245.00,1.27
7244.00,1.27
7243.00,1.27
7242.00,1.26
7241.00,1.26
7240.00,1.26
7239.00,1.26
7238.00,1.26
7237.00,1.26
7236.00,1.26
7235.00,1.26
7234.00,1.26
7233.00,1.25
7232.00,1.25
7231.00,1.25
7230.00,1.25
7229.00,1.25
7228.00,1.25
7227.00,1.25
7226.00,1.26
7225.00,1.26
7224.00,1.26
7223.00,1.26
7222.00,1.26
7221.00,1.26
7220.00,1.26
7219.00,1.26
7218.00,1.26
7217.00,1.26
7216.00,1.26
7215.00,1.26
7214.00,1.26
7213.00,1.26
7212.00,1.26
7211.00,1.26
7210.00,1.26
7209.00,1.26
7208.00,1.25
7207.00,1.25
7206.00,1.25
7205.00,1.25
7204.00,1.24
7203.00,1.24
7202.00,1.24
7201.00,1.23
7200.00,1.23
7199.00,1.23
7198.00,1.22
7197.00,1.22
7196.00,1.22
7195.00,1.22
7194.00,1.21
7193.00,1.21
7192.00,1.21
7191.00,1.20
7190.00,1.20
7189.00,1.20
7188.00,1.20
7187.00,1.19
7186.00,1.19
7185.00,1.19
7184.00,1.19
7183.00,1.19
7182.00,1.19
7181.00,1.18
7180.00,1.18
7179.00,1.18
7178.00,1.18
7177.00,1.18
7176.00,1.18
7175.00,1.18
7174.00,1.17
7173.00,1.17
7172.00,1.17
7171.00,1.17
7170.00,1.17
7169.00,1.16
7168.00,1.16
7167.00,1.16
7166.00,1.16
7165.00,1.16
7164.00,1.16
7163.00,1.15
7162.00,1.15
7161.00,1.15
7160.00,1.15
7159.00,1.15
7158.00,1.14
7157.00,1.14
7156.00,1.14
7155.00,1.14
7154.00,1.14
7153.00,1.14
7152.00,1.14
7151.00,1.14
7150.00,1.13
7149.00,1.13
7148.00,1.13
7147.00,1.13
7146.00,1.13
7145.00,1.13
7144.00,1.13
7143.00,1.13
7142.00,1.13
7141.00,1.13
7140.00,1.13
7139.00,1.13
7138.00,1.13
7137.00,1.13
7136.00,1.13
7135.00,1.13
7134.00,1.13
7133.00,1.13
7132.00,1.13
7131.00,1.13
7130.00,1.14
7129.00,1.14
7128.00,1.14
7127.00,1.14
7126.00,1.14
7125.00,1.14
7124.00,1.13
7123.00,1.13
7122.00,1.13
7121.00,1.13
7120.00,1.13
7119.00,1.13
7118.00,1.13
7117.00,1.13
7116.00,1.13
7115.00,1.13
7114.00,1.13
7113.00,1.13
7112.00,1.13
7111.00,1.13
7110.00,1.12
7109.00,1.12
7108.00,1.12
7107.00,1.12
7106.00,1.12
7105.00,1.11
7104.00,1.11
7103.00,1.11
7102.00,1.11
7101.00,1.11
7100.00,1.11
7099.00,1.10
7098.00,1.10
7097.00,1.10
7096.00,1.10
7095.00,1.10
7094.00,1.10
7093.00,1.10
7092.00,1.10
7091.00,1.09
7090.00,1.09
7089.00,1.09
7088.00,1.09
7087.00,1.09
7086.00,1.08
7085.00,1.08
7084.00,1.08
7083.00,1.08
7082.00,1.07
7081.00,1.07
7080.00,1.07
7079.00,1.07
7078.00,1.06
7077.00,1.06
7076.00,1.06
7075.00,1.05
7074.00,1.05
7073.00,1.04
7072.00,1.04
7071.00,1.04
7070.00,1.03
7069.00,1.03
7068.00,1.02
7067.00,1.02
7066.00,1.02
7065.00,1.01
7064.00,1.01
7063.00,1.01
7062.00,1.00
7061.00,1.00
7060.00,1.00
7059.00,1.00
7058.00,0.99
7057.00,0.99
7056.00,0.99
7055.00,0.99
7054.00,0.99
7053.00,0.99
7052.00,0.99
7051.00,0.99
7050.00,0.99
7049.00,0.99
7048.00,1.00
7047.00,1.00
7046.00,1.00
7045.00,1.00
7044.00,1.00
7043.00,1.00
7042.00,1.00
7041.00,1.01
7040.00,1.01
7039.00,1.01
7038.00,1.01
7037.00,1.01
7036.00,1.01
7035.00,1.01
7034.00,1.01
7033.00,1.01
7032.00,1.01
7031.00,1.01
7030.00,1.01
7029.00,1.01
7028.00,1.01
7027.00,1.00
7026.00,1.00
7025.00,1.00
7024.00,1.00
7023.00,0.99
7022.00,0.99
7021.00,0.98
7020.00,0.98
7019.00,0.98
7018.00,0.97
7017.00,0.97
7016.00,0.97
7015.00,0.97
7014.00,0.96
7013.00,0.96
7012.00,0.96
7011.00,0.96
7010.00,0.95
7009.00,0.95
7008.00,0.95
7007.00,0.95
7006.00,0.94
7005.00,0.94
7004.00,0.94
7003.00,0.94
7002.00,0.93
7001.00,0.93
7000.00,0.93
6999.00,0.93
6998.00,0.93
6997.00,0.93
6996.00,0.94
6995.00,0.94
6994.00,0.94
6993.00,0.94
6992.00,0.94
6991.00,0.94
6990.00,0.94
6989.00,0.94
6988.00,0.94
6987.00,0.94
6986.00,0.94
6985.00,0.94
6984.00,0.94
6983.00,0.94
6982.00,0.94
6981.00,0.94
6980.00,0.94
6979.00,0.94
6978.00,0.94
6977.00,0.95
6976.00,0.95
6975.00,0.95
6974.00,0.95
6973.00,0.95
6972.00,0.95
6971.00,0.95
6970.00,0.95
6969.00,0.95
6968.00,0.95
6967.00,0.95
6966.00,0.95
6965.00,0.95
6964.00,0.95
6963.00,0.95
6962.00,0.95
6961.00,0.95
6960.00,0.95
6959.00,0.95
6958.00,0.95
6957.00,0.94
6956.00,0.94
6955.00,0.94
6954.00,0.94
6953.00,0.94
6952.00,0.94
6951.00,0.93
6950.00,0.93
6949.00,0.93
6948.00,0.93
6947.00,0.93
6946.00,0.93
6945.00,0.93
6944.00,0.92
6943.00,0.92
6942.00,0.92
6941.00,0.92
6940.00,0.92
6939.00,0.91
6938.00,0.91
6937.00,0.91
6936.00,0.91
6935.00,0.91
6934.00,0.90
6933.00,0.90
6932.00,0.90
6931.00,0.90
6930.00,0.90
6929.00,0.90
6928.00,0.90
6927.00,0.89
6926.00,0.89
6925.00,0.89
6924.00,0.89
6923.00,0.89
6922.00,0.89
6921.00,0.89
6920.00,0.88
6919.00,0.88
6918.00,0.88
6917.00,0.88
6916.00,0.88
6915.00,0.88
6914.00,0.87
6913.00,0.87
6912.00,0.87
6911.00,0.87
6910.00,0.87
6909.00,0.87
6908.00,0.87
6907.00,0.87
6906.00,0.87
6905.00,0.87
6904.00,0.87
6903.00,0.86
6902.00,0.86
6901.00,0.86
6900.00,0.86
6899.00,0.86
6898.00,0.86
6897.00,0.86
6896.00,0.86
6895.00,0.85
6894.00,0.85
6893.00,0.85
6892.00,0.85
6891.00,0.85
6890.00,0.85
6889.00,0.85
6888.00,0.85
6887.00,0.85
6886.00,0.84
6885.00,0.84
6884.00,0.84
6883.00,0.84
6882.00,0.84
6881.00,0.84
6880.00,0.84
6879.00,0.84
6878.00,0.84
6877.00,0.84
6876.00,0.85
6875.00,0.85
6874.00,0.85
6873.00,0.85
6872.00,0.85
6871.00,0.86
6870.00,0.86
6869.00,0.86
6868.00,0.87
6867.00,0.87
6866.00,0.87
6865.00,0.88
6864.00,0.88
6863.00,0.89
6862.00,0.89
6861.00,0.89
6860.00,0.90
6859.00,0.90
6858.00,0.90
6857.00,0.91
6856.00,0.91
6855.00,0.91
6854.00,0.92
6853.00,0.92
6852.00,0.92
6851.00,0.92
6850.00,0.92
6849.00,0.93
6848.00,0.93
6847.00,0.93
6846.00,0.93
6845.00,0.93
6844.00,0.93
6843.00,0.93
6842.00,0.93
6841.00,0.93
6840.00,0.92
6839.00,0.92
6838.00,0.92
6837.00,0.92
6836.00,0.92
6835.00,0.92
6834.00,0.92
6833.00,0.92
6832.00,0.92
6831.00,0.92
6830.00,0.92
6829.00,0.92
6828.00,0.92
6827.00,0.92
6826.00,0.92
6825.00,0.92
6824.00,0.92
6823.00,0.92
6822.00,0.92
6821.00,0.92
6820.00,0.92
6819.00,0.92
6818.00,0.92
6817.00,0.92
6816.00,0.92
6815.00,0.93
6814.00,0.93
6813.00,0.93
6812.00,0.93
6811.00,0.93
6810.00,0.93
6809.00,0.93
6808.00,0.93
6807.00,0.93
6806.00,0.93
6805.00,0.93
6804.00,0.93
6803.00,0.93
6802.00,0.93
6801.00,0.93
6800.00,0.93
6799.00,0.93
6798.00,0.93
6797.00,0.93
6796.00,0.93
6795.00,0.93
6794.00,0.93
6793.00,0.93
6792.00,0.93
6791.00,0.93
6790.00,0.93
6789.00,0.92
6788.00,0.92
6787.00,0.92
6786.00,0.92
6785.00,0.92
6784.00,0.92
6783.00,0.92
6782.00,0.92
6781.00,0.91
6780.00,0.91
6779.00,0.91
6778.00,0.91
6777.00,0.91
6776.00,0.91
6775.00,0.91
6774.00,0.91
6773.00,0.90
6772.00,0.90
6771.00,0.90
6770.00,0.90
6769.00,0.90
6768.00,0.90
6767.00,0.90
6766.00,0.90
6765.00,0.90
6764.00,0.90
6763.00,0.90
6762.00,0.90
6761.00,0.90
6760.00,0.90
6759.00,0.90
6758.00,0.90
6757.00,0.90
6756.00,0.90
6755.00,0.91
6754.00,0.91
6753.00,0.91
6752.00,0.91
6751.00,0.91
6750.00,0.92
6749.00,0.92
6748.00,0.92
6747.00,0.92
6746.00,0.93
6745.00,0.93
6744.00,0.93
6743.00,0.93
6742.00,0.94
6741.00,0.94
6740.00,0.94
6739.00,0.95
6738.00,0.95
6737.00,0.96
6736.00,0.96
6735.00,0.96
6734.00,0.97
6733.00,0.97
6732.00,0.97
6731.00,0.98
6730.00,0.98
6729.00,0.98
6728.00,0.99
6727.00,0.99
6726.00,0.99
6725.00,1.00
6724.00,1.00
6723.00,1.00
6722.00,1.00
6721.00,1.00
6720.00,1.00
6719.00,1.01
6718.00,1.01
6717.00,1.01
6716.00,1.01
6715.00,1.01
6714.00,1.01
6713.00,1.01
6712.00,1.01
6711.00,1.01
6710.00,1.01
6709.00,1.01
6708.00,1.01
6707.00,1.01
6706.00,1.01
6705.00,1.01
6704.00,1.01
6703.00,1.01
6702.00,1.01
6701.00,1.01
6700.00,1.01
6699.00,1.01
6698.00,1.01
6697.00,1.01
6696.00,1.01
6695.00,1.01
6694.00,1.01
6693.00,1.01
6692.00,1.01
6691.00,1.01
6690.00,1.01
6689.00,1.01
6688.00,1.01
6687.00,1.01
6686.00,1.01
6685.00,1.02
6684.00,1.02
6683.00,1.02
6682.00,1.02
6681.00,1.02
6680.00,1.02
6679.00,1.02
6678.00,1.02
6677.00,1.02
6676.00,1.02
6675.00,1.02
6674.00,1.02
6673.00,1.03
6672.00,1.03
6671.00,1.03
6670.00,1.03
6669.00,1.03
6668.00,1.03
6667.00,1.03
6666.00,1.04
6665.00,1.04
6664.00,1.04
6663.00,1.04
6662.00,1.04
6661.00,1.04
6660.00,1.04
6659.00,1.04
6658.00,1.04
6657.00,1.04
6656.00,1.04
6655.00,1.04
6654.00,1.05
6653.00,1.05
6652.00,1.05
6651.00,1.05
6650.00,1.05
6649.00,1.05
6648.00,1.05
6647.00,1.05
6646.00,1.05
6645.00,1.05
6644.00,1.05
6643.00,1.05
6642.00,1.05
6641.00,1.05
6640.00,1.05
6639.00,1.05
6638.00,1.05
6637.00,1.05
6636.00,1.05
6635.00,1.05
6634.00,1.05
6633.00,1.05
6632.00,1.05
6631.00,1.06
6630.00,1.06
6629.00,1.06
6628.00,1.06
6627.00,1.06
6626.00,1.06
6625.00,1.06
6624.00,1.06
6623.00,1.06
6622.00,1.06
6621.00,1.06
6620.00,1.06
6619.00,1.06
6618.00,1.06
6617.00,1.06
6616.00,1.06
6615.00,1.06
6614.00,1.06
6613.00,1.06
6612.00,1.06
6611.00,1.06
6610.00,1.06
6609.00,1.06
6608.00,1.06
6607.00,1.06
6606.00,1.06
6605.00,1.06
6604.00,1.06
6603.00,1.06
6602.00,1.06
6601.00,1.06
6600.00,1.05
6599.00,1.05
6598.00,1.05
6597.00,1.05
6596.00,1.05
6595.00,1.05
6594.00,1.06
6593.00,1.06
6592.00,1.06
6591.00,1.06
6590.00,1.06
6589.00,1.06
6588.00,1.06
6587.00,1.06
6586.00,1.07
6585.00,1.07
6584.00,1.07
6583.00,1.07
6582.00,1.07
6581.00,1.07
6580.00,1.08
6579.00,1.08
6578.00,1.08
6577.00,1.08
6576.00,1.08
6575.00,1.08
6574.00,1.09
6573.00,1.09
6572.00,1.09
6571.00,1.09
6570.00,1.09
6569.00,1.09
6568.00,1.09
6567.00,1.10
6566.00,1.10
6565.00,1.10
6564.00,1.10
6563.00,1.10
6562.00,1.10
6561.00,1.10
6560.00,1.11
6559.00,1.11
6558.00,1.11
6557.00,1.11
6556.00,1.11
6555.00,1.11
6554.00,1.11
6553.00,1.11
6552.00,1.11
6551.00,1.12
6550.00,1.12
6549.00,1.12
6548.00,1.12
6547.00,1.12
6546.00,1.12
6545.00,1.12
6544.00,1.12
6543.00,1.12
6542.00,1.13
6541.00,1.13
6540.00,1.13
6539.00,1.13
6538.00,1.13
6537.00,1.13
6536.00,1.13
6535.00,1.13
6534.00,1.13
6533.00,1.13
6532.00,1.13
6531.00,1.13
6530.00,1.13
6529.00,1.13
6528.00,1.13
6527.00,1.13
6526.00,1.13
6525.00,1.13
6524.00,1.13
6523.00,1.13
6522.00,1.13
6521.00,1.13
6520.00,1.13
6519.00,1.13
6518.00,1.13
6517.00,1.13
6516.00,1.13
6515.00,1.13
6514.00,1.13
6513.00,1.13
6512.00,1.13
6511.00,1.13
6510.00,1.13
6509.00,1.13
6508.00,1.14
6507.00,1.14
6506.00,1.14
6505.00,1.14
6504.00,1.14
6503.00,1.14
6502.00,1.14
6501.00,1.14
6500.00,1.14
6499.00,1.14
6498.00,1.14
6497.00,1.14
6496.00,1.14
6495.00,1.14
6494.00,1.15
6493.00,1.15
6492.00,1.15
6491.00,1.15
6490.00,1.15
6489.00,1.15
6488.00,1.15
6487.00,1.15
6486.00,1.15
6485.00,1.15
6484.00,1.16
6483.00,1.16
6482.00,1.16
6481.00,1.16
6480.00,1.16
6479.00,1.16
6478.00,1.16
6477.00,1.16
6476.00,1.16
6475.00,1.16
6474.00,1.16
6473.00,1.16
6472.00,1.16
6471.00,1.16
6470.00,1.16
6469.00,1.16
6468.00,1.16
6467.00,1.17
6466.00,1.17
6465.00,1.17
6464.00,1.17
6463.00,1.17
6462.00,1.17
6461.00,1.17
6460.00,1.17
6459.00,1.17
6458.00,1.17
6457.00,1.17
6456.00,1.17
6455.00,1.17
6454.00,1.18
6453.00,1.18
6452.00,1.18
6451.00,1.18
6450.00,1.18
6449.00,1.18
6448.00,1.18
6447.00,1.18
6446.00,1.18
6445.00,1.18
6444.00,1.18
6443.00,1.18
6442.00,1.18
6441.00,1.18
6440.00,1.18
6439.00,1.18
6438.00,1.18
6437.00,1.18
6436.00,1.18
6435.00,1.18
6434.00,1.18
6433.00,1.18
6432.00,1.18
6431.00,1.18
6430.00,1.18
6429.00,1.18
6428.00,1.18
6427.00,1.18
6426.00,1.19
6425.00,1.19
6424.00,1.19
6423.00,1.19
6422.00,1.19
6421.00,1.19
6420.00,1.19
6419.00,1.19
6418.00,1.19
6417.00,1.19
6416.00,1.20
6415.00,1.20
6414.00,1.20
6413.00,1.20
6412.00,1.20
6411.00,1.20
6410.00,1.20
6409.00,1.20
6408.00,1.20
6407.00,1.20
6406.00,1.20
6405.00,1.20
6404.00,1.19
6403.00,1.19
6402.00,1.19
6401.00,1.19
6400.00,1.19
6399.00,1.19
6398.00,1.19
6397.00,1.19
6396.00,1.18
6395.00,1.18
6394.00,1.18
6393.00,1.18
6392.00,1.18
6391.00,1.18
6390.00,1.18
6389.00,1.18
6388.00,1.18
6387.00,1.18
6386.00,1.18
6385.00,1.18
6384.00,1.18
6383.00,1.18
6382.00,1.18
6381.00,1.18
6380.00,1.18
6379.00,1.18
6378.00,1.18
6377.00,1.18
6376.00,1.18
6375.00,1.18
6374.00,1.18
6373.00,1.18
6372.00,1.19
6371.00,1.19
6370.00,1.19
6369.00,1.19
6368.00,1.19
6367.00,1.20
6366.00,1.20
6365.00,1.20
6364.00,1.20
6363.00,1.20
6362.00,1.21
6361.00,1.21
6360.00,1.21
6359.00,1.22
6358.00,1.22
6357.00,1.22
6356.00,1.23
6355.00,1.23
6354.00,1.23
6353.00,1.24
6352.00,1.24
6351.00,1.24
6350.00,1.24
6349.00,1.25
6348.00,1.25
6347.00,1.25
6346.00,1.26
6345.00,1.26
6344.00,1.26
6343.00,1.26
6342.00,1.27
6341.00,1.27
6340.00,1.27
6339.00,1.27
6338.00,1.27
6337.00,1.27
6336.00,1.27
6335.00,1.27
6334.00,1.27
6333.00,1.27
6332.00,1.27
6331.00,1.27
6330.00,1.27
6329.00,1.27
6328.00,1.27
6327.00,1.27
6326.00,1.27
6325.00,1.27
6324.00,1.27
6323.00,1.27
6322.00,1.27
6321.00,1.27
6320.00,1.27
6319.00,1.27
6318.00,1.27
6317.00,1.27
6316.00,1.27
6315.00,1.27
6314.00,1.27
6313.00,1.27
6312.00,1.27
6311.00,1.27
6310.00,1.27
6309.00,1.27
6308.00,1.27
6307.00,1.27
6306.00,1.27
6305.00,1.28
6304.00,1.28
6303.00,1.28
6302.00,1.28
6301.00,1.28
6300.00,1.28
6299.00,1.28
6298.00,1.28
6297.00,1.28
6296.00,1.28
6295.00,1.28
6294.00,1.28
6293.00,1.28
6292.00,1.28
6291.00,1.28
6290.00,1.28
6289.00,1.28
6288.00,1.28
6287.00,1.28
6286.00,1.28
6285.00,1.28
6284.00,1.28
6283.00,1.28
6282.00,1.28
6281.00,1.28
6280.00,1.28
6279.00,1.28
6278.00,1.28
6277.00,1.28
6276.00,1.28
6275.00,1.28
6274.00,1.28
6273.00,1.29
6272.00,1.29
6271.00,1.29
6270.00,1.29
6269.00,1.29
6268.00,1.29
6267.00,1.29
6266.00,1.30
6265.00,1.30
6264.00,1.30
6263.00,1.30
6262.00,1.30
6261.00,1.30
6260.00,1.30
6259.00,1.30
6258.00,1.30
6257.00,1.30
6256.00,1.30
6255.00,1.30
6254.00,1.30
6253.00,1.30
6252.00,1.30
6251.00,1.30
6250.00,1.30
6249.00,1.29
6248.00,1.29
6247.00,1.29
6246.00,1.29
6245.00,1.29
6244.00,1.29
6243.00,1.28
6242.00,1.28
6241.00,1.28
6240.00,1.28
6239.00,1.28
6238.00,1.28
6237.00,1.28
6236.00,1.27
6235.00,1.27
6234.00,1.27
6233.00,1.27
6232.00,1.27
6231.00,1.27
6230.00,1.27
6229.00,1.27
6228.00,1.27
6227.00,1.28
6226.00,1.28
6225.00,1.28
6224.00,1.28
6223.00,1.28
6222.00,1.28
6221.00,1.28
6220.00,1.28
6219.00,1.28
6218.00,1.28
6217.00,1.28
6216.00,1.29
6215.00,1.29
6214.00,1.29
6213.00,1.29
6212.00,1.29
6211.00,1.29
6210.00,1.29
6209.00,1.29
6208.00,1.29
6207.00,1.29
6206.00,1.29
6205.00,1.29
6204.00,1.30
6203.00,1.30
6202.00,1.30
6201.00,1.30
6200.00,1.30
6199.00,1.30
6198.00,1.30
6197.00,1.30
6196.00,1.30
6195.00,1.30
6194.00,1.31
6193.00,1.31
6192.00,1.31
6191.00,1.31
6190.00,1.31
6189.00,1.31
6188.00,1.31
6187.00,1.31
6186.00,1.32
6185.00,1.32
6184.00,1.32
6183.00,1.32
6182.00,1.32
6181.00,1.32
6180.00,1.32
6179.00,1.32
6178.00,1.33
6177.00,1.33
6176.00,1.33
6175.00,1.33
6174.00,1.33
6173.00,1.33
6172.00,1.33
6171.00,1.33
6170.00,1.33
6169.00,1.33
6168.00,1.33
6167.00,1.33
6166.00,1.33
6165.00,1.33
6164.00,1.33
6163.00,1.33
6162.00,1.34
6161.00,1.34
6160.00,1.34
6159.00,1.34
6158.00,1.34
6157.00,1.34
6156.00,1.34
6155.00,1.34
6154.00,1.34
6153.00,1.34
6152.00,1.35
6151.00,1.35
6150.00,1.35
6149.00,1.35
6148.00,1.35
6147.00,1.35
6146.00,1.35
6145.00,1.35
6144.00,1.35
6143.00,1.36
6142.00,1.36
6141.00,1.36
6140.00,1.36
6139.00,1.36
6138.00,1.36
6137.00,1.36
6136.00,1.36
6135.00,1.37
6134.00,1.37
6133.00,1.37
6132.00,1.37
6131.00,1.37
6130.00,1.36
6129.00,1.36
6128.00,1.36
6127.00,1.36
6126.00,1.36
6125.00,1.36
6124.00,1.36
6123.00,1.36
6122.00,1.35
6121.00,1.35
6120.00,1.35
6119.00,1.35
6118.00,1.35
6117.00,1.35
6116.00,1.35
6115.00,1.35
6114.00,1.35
6113.00,1.35
6112.00,1.34
6111.00,1.34
6110.00,1.34
6109.00,1.34
6108.00,1.35
6107.00,1.35
6106.00,1.35
6105.00,1.35
6104.00,1.35
6103.00,1.35
6102.00,1.35
6101.00,1.36
6100.00,1.36
6099.00,1.36
6098.00,1.36
6097.00,1.37
6096.00,1.37
6095.00,1.37
6094.00,1.37
6093.00,1.38
6092.00,1.38
6091.00,1.38
6090.00,1.38
6089.00,1.39
6088.00,1.39
6087.00,1.39
6086.00,1.39
6085.00,1.39
6084.00,1.39
6083.00,1.39
6082.00,1.40
6081.00,1.40
6080.00,1.40
6079.00,1.40
6078.00,1.40
6077.00,1.40
6076.00,1.40
6075.00,1.40
6074.00,1.40
6073.00,1.40
6072.00,1.40
6071.00,1.40
6070.00,1.40
6069.00,1.40
6068.00,1.40
6067.00,1.40
6066.00,1.40
6065.00,1.40
6064.00,1.40
6063.00,1.40
6062.00,1.40
6061.00,1.40
6060.00,1.40
6059.00,1.40
6058.00,1.40
6057.00,1.40
6056.00,1.40
6055.00,1.40
6054.00,1.40
6053.00,1.40
6052.00,1.40
6051.00,1.40
6050.00,1.40
6049.00,1.39
6048.00,1.39
6047.00,1.39
6046.00,1.39
6045.00,1.39
6044.00,1.39
6043.00,1.39
6042.00,1.39
6041.00,1.39
6040.00,1.39
6039.00,1.39
6038.00,1.39
6037.00,1.39
6036.00,1.39
6035.00,1.39
6034.00,1.39
6033.00,1.39
6032.00,1.39
6031.00,1.39
6030.00,1.39
6029.00,1.39
6028.00,1.39
6027.00,1.39
6026.00,1.39
6025.00,1.39
6024.00,1.39
6023.00,1.39
6022.00,1.39
6021.00,1.39
6020.00,1.39
6019.00,1.39
6018.00,1.39
6017.00,1.39
6016.00,1.39
6015.00,1.39
6014.00,1.39
6013.00,1.39
6012.00,1.39
6011.00,1.39
6010.00,1.39
6009.00,1.39
6008.00,1.39
6007.00,1.39
6006.00,1.39
6005.00,1.39
6004.00,1.39
6003.00,1.39
6002.00,1.39
6001.00,1.39
6000.00,1.39
5999.00,1.39
5998.00,1.39
5997.00,1.39
5996.00,1.39
5995.00,1.39
5994.00,1.39
5993.00,1.39
5992.00,1.39
5991.00,1.40
5990.00,1.40
5989.00,1.40
5988.00,1.40
5987.00,1.40
5986.00,1.40
5985.00,1.40
5984.00,1.40
5983.00,1.40
5982.00,1.40
5981.00,1.40
5980.00,1.40
5979.00,1.40
5978.00,1.39
5977.00,1.39
5976.00,1.39
5975.00,1.39
5974.00,1.39
5973.00,1.39
5972.00,1.39
5971.00,1.39
5970.00,1.39
5969.00,1.39
5968.00,1.39
5967.00,1.39
5966.00,1.39
5965.00,1.39
5964.00,1.38
5963.00,1.38
5962.00,1.38
5961.00,1.38
5960.00,1.37
5959.00,1.37
5958.00,1.37
5957.00,1.36
5956.00,1.36
5955.00,1.36
5954.00,1.35
5953.00,1.35
5952.00,1.35
5951.00,1.34
5950.00,1.34
5949.00,1.34
5948.00,1.33
5947.00,1.33
5946.00,1.33
5945.00,1.33
5944.00,1.32
5943.00,1.32
5942.00,1.32
5941.00,1.31
5940.00,1.31
5939.00,1.31
5938.00,1.31
5937.00,1.30
5936.00,1.30
5935.00,1.30
5934.00,1.30
5933.00,1.30
5932.00,1.30
5931.00,1.29
5930.00,1.29
5929.00,1.29
5928.00,1.29
5927.00,1.29
5926.00,1.29
5925.00,1.29
5924.00,1.29
5923.00,1.29
5922.00,1.29
5921.00,1.29
5920.00,1.29
5919.00,1.28
5918.00,1.28
5917.00,1.28
5916.00,1.28
5915.00,1.28
5914.00,1.28
5913.00,1.28
5912.00,1.27
5911.00,1.27
5910.00,1.27
5909.00,1.27
5908.00,1.27
5907.00,1.27
5906.00,1.27
5905.00,1.27
5904.00,1.27
5903.00,1.27
5902.00,1.27
5901.00,1.27
5900.00,1.27
5899.00,1.26
5898.00,1.26
5897.00,1.26
5896.00,1.26
5895.00,1.26
5894.00,1.27
5893.00,1.27
5892.00,1.27
5891.00,1.27
5890.00,1.27
5889.00,1.27
5888.00,1.28
5887.00,1.28
5886.00,1.28
5885.00,1.28
5884.00,1.28
5883.00,1.29
5882.00,1.29
5881.00,1.29
5880.00,1.29
5879.00,1.29
5878.00,1.30
5877.00,1.30
5876.00,1.30
5875.00,1.30
5874.00,1.30
5873.00,1.31
5872.00,1.31
5871.00,1.31
5870.00,1.31
5869.00,1.32
5868.00,1.32
5867.00,1.32
5866.00,1.32
5865.00,1.32
5864.00,1.32
5863.00,1.33
5862.00,1.33
5861.00,1.33
5860.00,1.33
5859.00,1.33
5858.00,1.33
5857.00,1.33
5856.00,1.33
5855.00,1.33
5854.00,1.33
5853.00,1.33
5852.00,1.33
5851.00,1.33
5850.00,1.33
5849.00,1.33
5848.00,1.33
5847.00,1.33
5846.00,1.33
5845.00,1.33
5844.00,1.33
5843.00,1.33
5842.00,1.33
5841.00,1.33
5840.00,1.33
5839.00,1.33
5838.00,1.33
5837.00,1.33
5836.00,1.33
5835.00,1.33
5834.00,1.33
5833.00,1.33
5832.00,1.33
5831.00,1.33
5830.00,1.33
5829.00,1.33
5828.00,1.33
5827.00,1.33
5826.00,1.33
5825.00,1.33
5824.00,1.33
5823.00,1.33
5822.00,1.32
5821.00,1.32
5820.00,1.32
5819.00,1.32
5818.00,1.32
5817.00,1.32
5816.00,1.32
5815.00,1.32
5814.00,1.32
5813.00,1.32
5812.00,1.32
5811.00,1.32
5810.00,1.32
5809.00,1.32
5808.00,1.32
5807.00,1.32
5806.00,1.32
5805.00,1.32
5804.00,1.32
5803.00,1.32
5802.00,1.32
5801.00,1.31
5800.00,1.31
5799.00,1.31
5798.00,1.31
5797.00,1.31
5796.00,1.31
5795.00,1.31
5794.00,1.31
5793.00,1.31
5792.00,1.31
5791.00,1.31
5790.00,1.31
5789.00,1.31
5788.00,1.31
5787.00,1.31
5786.00,1.31
5785.00,1.31
5784.00,1.31
5783.00,1.31
5782.00,1.31
5781.00,1.30
5780.00,1.30
5779.00,1.30
5778.00,1.30
5777.00,1.30
5776.00,1.30
5775.00,1.30
5774.00,1.30
5773.00,1.30
5772.00,1.30
5771.00,1.30
5770.00,1.30
5769.00,1.30
5768.00,1.30
5767.00,1.30
5766.00,1.30
5765.00,1.30
5764.00,1.30
5763.00,1.30
5762.00,1.30
5761.00,1.30
5760.00,1.30
5759.00,1.30
5758.00,1.30
5757.00,1.30
5756.00,1.30
5755.00,1.30
5754.00,1.31
5753.00,1.31
5752.00,1.31
5751.00,1.31
5750.00,1.31
5749.00,1.31
5748.00,1.31
5747.00,1.31
5746.00,1.32
5745.00,1.32
5744.00,1.32
5743.00,1.32
5742.00,1.32
5741.00,1.32
5740.00,1.32
5739.00,1.32
5738.00,1.32
5737.00,1.32
5736.00,1.32
5735.00,1.32
5734.00,1.32
5733.00,1.32
5732.00,1.32
5731.00,1.32
5730.00,1.32
5729.00,1.32
5728.00,1.32
5727.00,1.32
5726.00,1.32
5725.00,1.32
5724.00,1.32
5723.00,1.32
5722.00,1.32
5721.00,1.32
5720.00,1.32
5719.00,1.32
5718.00,1.32
5717.00,1.32
5716.00,1.32
5715.00,1.32
5714.00,1.32
5713.00,1.31
5712.00,1.31
5711.00,1.31
5710.00,1.31
5709.00,1.31
5708.00,1.31
5707.00,1.31
5706.00,1.31
5705.00,1.31
5704.00,1.31
5703.00,1.31
5702.00,1.31
5701.00,1.31
5700.00,1.31
5699.00,1.31
5698.00,1.31
5697.00,1.31
5696.00,1.31
5695.00,1.31
5694.00,1.31
5693.00,1.31
5692.00,1.31
5691.00,1.31
5690.00,1.31
5689.00,1.31
5688.00,1.31
5687.00,1.31
5686.00,1.31
5685.00,1.31
5684.00,1.31
5683.00,1.31
5682.00,1.31
5681.00,1.31
5680.00,1.32
5679.00,1.32
5678.00,1.32
5677.00,1.32
5676.00,1.32
5675.00,1.32
5674.00,1.32
5673.00,1.32
5672.00,1.33
5671.00,1.33
5670.00,1.33
5669.00,1.33
5668.00,1.33
5667.00,1.33
5666.00,1.33
5665.00,1.34
5664.00,1.34
5663.00,1.34
5662.00,1.34
5661.00,1.34
5660.00,1.34
5659.00,1.34
5658.00,1.34
5657.00,1.35
5656.00,1.35
5655.00,1.35
5654.00,1.35
5653.00,1.35
5652.00,1.35
5651.00,1.35
5650.00,1.35
5649.00,1.35
5648.00,1.35
5647.00,1.35
5646.00,1.35
5645.00,1.35
5644.00,1.35
5643.00,1.35
5642.00,1.35
5641.00,1.35
5640.00,1.35
5639.00,1.35
5638.00,1.35
5637.00,1.35
5636.00,1.35
5635.00,1.35
5634.00,1.34
5633.00,1.34
5632.00,1.34
5631.00,1.34
5630.00,1.34
5629.00,1.34
5628.00,1.34
5627.00,1.34
5626.00,1.34
5625.00,1.34
5624.00,1.34
5623.00,1.34
5622.00,1.35
5621.00,1.35
5620.00,1.35
5619.00,1.35
5618.00,1.35
5617.00,1.35
5616.00,1.35
5615.00,1.35
5614.00,1.35
5613.00,1.35
5612.00,1.36
5611.00,1.36
5610.00,1.36
5609.00,1.36
5608.00,1.36
5607.00,1.36
5606.00,1.36
5605.00,1.36
5604.00,1.37
5603.00,1.37
5602.00,1.37
5601.00,1.37
5600.00,1.37
5599.00,1.37
5598.00,1.37
5597.00,1.37
5596.00,1.37
5595.00,1.38
5594.00,1.38
5593.00,1.38
5592.00,1.38
5591.00,1.38
5590.00,1.38
5589.00,1.38
5588.00,1.38
5587.00,1.38
5586.00,1.38
5585.00,1.38
5584.00,1.38
5583.00,1.38
5582.00,1.38
5581.00,1.38
5580.00,1.38
5579.00,1.38
5578.00,1.38
5577.00,1.38
5576.00,1.38
5575.00,1.38
5574.00,1.38
5573.00,1.38
5572.00,1.38
5571.00,1.38
5570.00,1.38
5569.00,1.38
5568.00,1.38
5567.00,1.39
5566.00,1.39
5565.00,1.39
5564.00,1.39
5563.00,1.39
5562.00,1.39
5561.00,1.39
5560.00,1.39
5559.00,1.39
5558.00,1.40
5557.00,1.40
5556.00,1.40
5555.00,1.40
5554.00,1.40
5553.00,1.40
5552.00,1.40
5551.00,1.41
5550.00,1.41
5549.00,1.41
5548.00,1.41
5547.00,1.41
5546.00,1.41
5545.00,1.41
5544.00,1.41
5543.00,1.41
5542.00,1.41
5541.00,1.41
5540.00,1.42
5539.00,1.42
5538.00,1.42
5537.00,1.42
5536.00,1.42
5535.00,1.42
5534.00,1.42
5533.00,1.42
5532.00,1.42
5531.00,1.42
5530.00,1.41
5529.00,1.41
5528.00,1.41
5527.00,1.41
5526.00,1.41
5525.00,1.41
5524.00,1.41
5523.00,1.41
5522.00,1.41
5521.00,1.41
5520.00,1.41
5519.00,1.41
5518.00,1.41
5517.00,1.41
5516.00,1.41
5515.00,1.41
5514.00,1.41
5513.00,1.41
5512.00,1.41
5511.00,1.41
5510.00,1.41
5509.00,1.41
5508.00,1.41
5507.00,1.41
5506.00,1.42
5505.00,1.42
5504.00,1.42
5503.00,1.42
5502.00,1.42
5501.00,1.42
5500.00,1.43
5499.00,1.43
5498.00,1.43
5497.00,1.43
5496.00,1.44
5495.00,1.44
5494.00,1.44
5493.00,1.44
5492.00,1.44
5491.00,1.45
5490.00,1.45
5489.00,1.45
5488.00,1.45
5487.00,1.45
5486.00,1.45
5485.00,1.45
5484.00,1.46
5483.00,1.46
5482.00,1.46
5481.00,1.46
5480.00,1.46
5479.00,1.46
5478.00,1.46
5477.00,1.46
5476.00,1.46
5475.00,1.46
5474.00,1.46
5473.00,1.46
5472.00,1.46
5471.00,1.46
5470.00,1.46
5469.00,1.46
5468.00,1.45
5467.00,1.45
5466.00,1.45
5465.00,1.45
5464.00,1.45
5463.00,1.45
5462.00,1.45
5461.00,1.45
5460.00,1.45
5459.00,1.45
5458.00,1.45
5457.00,1.45
5456.00,1.45
5455.00,1.45
5454.00,1.45
5453.00,1.45
5452.00,1.45
5451.00,1.45
5450.00,1.45
5449.00,1.45
5448.00,1.45
5447.00,1.45
5446.00,1.45
5445.00,1.45
5444.00,1.45
5443.00,1.45
5442.00,1.45
5441.00,1.45
5440.00,1.45
5439.00,1.45
5438.00,1.45
5437.00,1.44
5436.00,1.44
5435.00,1.44
5434.00,1.44
5433.00,1.44
5432.00,1.44
5431.00,1.43
5430.00,1.43
5429.00,1.43
5428.00,1.43
5427.00,1.43
5426.00,1.43
5425.00,1.43
5424.00,1.43
5423.00,1.42
5422.00,1.42
5421.00,1.42
5420.00,1.42
5419.00,1.42
5418.00,1.42
5417.00,1.42
5416.00,1.42
5415.00,1.42
5414.00,1.42
5413.00,1.42
5412.00,1.42
5411.00,1.42
5410.00,1.42
5409.00,1.42
5408.00,1.42
5407.00,1.42
5406.00,1.42
5405.00,1.42
5404.00,1.42
5403.00,1.42
5402.00,1.42
5401.00,1.43
5400.00,1.43
5399.00,1.43
5398.00,1.43
5397.00,1.43
5396.00,1.43
5395.00,1.43
5394.00,1.43
5393.00,1.43
5392.00,1.43
5391.00,1.43
5390.00,1.43
5389.00,1.43
5388.00,1.43
5387.00,1.43
5386.00,1.43
5385.00,1.43
5384.00,1.43
5383.00,1.43
5382.00,1.43
5381.00,1.43
5380.00,1.43
5379.00,1.43
5378.00,1.43
5377.00,1.43
5376.00,1.43
5375.00,1.43
5374.00,1.43
5373.00,1.42
5372.00,1.42
5371.00,1.42
5370.00,1.42
5369.00,1.42
5368.00,1.41
5367.00,1.41
5366.00,1.41
5365.00,1.41
5364.00,1.41
5363.00,1.40
5362.00,1.40
5361.00,1.40
5360.00,1.39
5359.00,1.39
5358.00,1.38
5357.00,1.38
5356.00,1.38
5355.00,1.37
5354.00,1.37
5353.00,1.36
5352.00,1.36
5351.00,1.35
5350.00,1.35
5349.00,1.34
5348.00,1.34
5347.00,1.33
5346.00,1.33
5345.00,1.32
5344.00,1.31
5343.00,1.31
5342.00,1.30
5341.00,1.29
5340.00,1.29
5339.00,1.28
5338.00,1.27
5337.00,1.27
5336.00,1.26
5335.00,1.25
5334.00,1.24
5333.00,1.24
5332.00,1.23
5331.00,1.22
5330.00,1.21
5329.00,1.21
5328.00,1.20
5327.00,1.19
5326.00,1.18
5325.00,1.18
5324.00,1.17
5323.00,1.16
5322.00,1.15
5321.00,1.14
5320.00,1.13
5319.00,1.12
5318.00,1.12
5317.00,1.11
5316.00,1.10
5315.00,1.09
5314.00,1.08
5313.00,1.07
5312.00,1.07
5311.00,1.06
5310.00,1.05
5309.00,1.04
5308.00,1.03
5307.00,1.03
5306.00,1.02
5305.00,1.01
5304.00,1.00
5303.00,0.99
5302.00,0.99
5301.00,0.98
5300.00,0.97
5299.00,0.96
5298.00,0.96
5297.00,0.95
5296.00,0.94
5295.00,0.93
5294.00,0.93
5293.00,0.92
5292.00,0.91
5291.00,0.91
5290.00,0.90
5289.00,0.89
5288.00,0.89
5287.00,0.88
5286.00,0.87
5285.00,0.86
5284.00,0.86
5283.00,0.85
5282.00,0.84
5281.00,0.84
5280.00,0.83
5279.00,0.82
5278.00,0.82
5277.00,0.81
5276.00,0.81
5275.00,0.80
5274.00,0.79
5273.00,0.79
5272.00,0.78
5271.00,0.78
5270.00,0.77
5269.00,0.77
5268.00,0.76
5267.00,0.76
5266.00,0.75
5265.00,0.75
5264.00,0.74
5263.00,0.74
5262.00,0.73
5261.00,0.73
5260.00,0.72
5259.00,0.72
5258.00,0.72
5257.00,0.71
5256.00,0.71
5255.00,0.70
5254.00,0.70
5253.00,0.70
5252.00,0.70
5251.00,0.69
5250.00,0.69
5249.00,0.69
5248.00,0.69
5247.00,0.68
5246.00,0.68
5245.00,0.68
5244.00,0.68
5243.00,0.68
5242.00,0.67
5241.00,0.67
5240.00,0.67
5239.00,0.67
5238.00,0.67
5237.00,0.67
5236.00,0.67
5235.00,0.66
5234.00,0.66
5233.00,0.66
5232.00,0.66
5231.00,0.66
5230.00,0.66
5229.00,0.66
5228.00,0.66
5227.00,0.66
5226.00,0.65
5225.00,0.65
5224.00,0.65
5223.00,0.65
5222.00,0.65
5221.00,0.65
5220.00,0.65
5219.00,0.65
5218.00,0.65
5217.00,0.64
5216.00,0.64
5215.00,0.64
5214.00,0.64
5213.00,0.64
5212.00,0.64
5211.00,0.64
5210.00,0.64
5209.00,0.64
5208.00,0.64
5207.00,0.64
5206.00,0.64
5205.00,0.64
5204.00,0.64
5203.00,0.64
5202.00,0.63
5201.00,0.63
5200.00,0.63
5199.00,0.63
5198.00,0.63
5197.00,0.63
5196.00,0.63
5195.00,0.63
5194.00,0.63
5193.00,0.63
5192.00,0.63
5191.00,0.63
5190.00,0.63
5189.00,0.63
5188.00,0.63
5187.00,0.63
5186.00,0.63
5185.00,0.63
5184.00,0.63
5183.00,0.63
5182.00,0.63
5181.00,0.63
5180.00,0.63
5179.00,0.63
5178.00,0.63
5177.00,0.63
5176.00,0.63
5175.00,0.63
5174.00,0.64
5173.00,0.64
5172.00,0.64
5171.00,0.64
5170.00,0.64
5169.00,0.64
5168.00,0.64
5167.00,0.64
5166.00,0.64
5165.00,0.64
5164.00,0.64
5163.00,0.64
5162.00,0.64
5161.00,0.65
5160.00,0.65
5159.00,0.65
5158.00,0.65
5157.00,0.65
5156.00,0.65
5155.00,0.65
5154.00,0.65
5153.00,0.65
5152.00,0.65
5151.00,0.65
5150.00,0.65
5149.00,0.65
5148.00,0.65
5147.00,0.65
5146.00,0.65
5145.00,0.66
5144.00,0.66
5143.00,0.66
5142.00,0.66
5141.00,0.66
5140.00,0.66
5139.00,0.66
5138.00,0.66
5137.00,0.66
5136.00,0.65
5135.00,0.66
5134.00,0.66
5133.00,0.66
5132.00,0.66
5131.00,0.66
5130.00,0.66
5129.00,0.66
5128.00,0.66
5127.00,0.66
5126.00,0.66
5125.00,0.66
5124.00,0.66
5123.00,0.66
5122.00,0.66
5121.00,0.66
5120.00,0.66
5119.00,0.66
5118.00,0.67
5117.00,0.67
5116.00,0.67
5115.00,0.67
5114.00,0.67
5113.00,0.67
5112.00,0.67
5111.00,0.67
5110.00,0.67
5109.00,0.68
5108.00,0.68
5107.00,0.68
5106.00,0.68
5105.00,0.68
5104.00,0.68
5103.00,0.68
5102.00,0.68
5101.00,0.68
5100.00,0.69
5099.00,0.69
5098.00,0.69
5097.00,0.69
5096.00,0.69
5095.00,0.69
5094.00,0.70
5093.00,0.70
5092.00,0.70
5091.00,0.70
5090.00,0.70
5089.00,0.71
5088.00,0.71
5087.00,0.71
5086.00,0.71
5085.00,0.72
5084.00,0.72
5083.00,0.72
5082.00,0.72
5081.00,0.73
5080.00,0.73
5079.00,0.73
5078.00,0.73
5077.00,0.73
5076.00,0.74
5075.00,0.74
5074.00,0.74
5073.00,0.74
5072.00,0.75
5071.00,0.75
5070.00,0.75
5069.00,0.75
5068.00,0.75
5067.00,0.75
5066.00,0.76
5065.00,0.76
5064.00,0.76
5063.00,0.76
5062.00,0.76
5061.00,0.76
5060.00,0.76
5059.00,0.76
5058.00,0.76
5057.00,0.76
5056.00,0.76
5055.00,0.76
5054.00,0.76
5053.00,0.76
5052.00,0.77
5051.00,0.77
5050.00,0.77
5049.00,0.77
5048.00,0.77
5047.00,0.77
5046.00,0.77
5045.00,0.77
5044.00,0.77
5043.00,0.77
5042.00,0.77
5041.00,0.77
5040.00,0.77
5039.00,0.78
5038.00,0.78
5037.00,0.78
5036.00,0.78
5035.00,0.78
5034.00,0.78
5033.00,0.78
5032.00,0.78
5031.00,0.79
5030.00,0.79
5029.00,0.79
5028.00,0.79
5027.00,0.79
5026.00,0.80
5025.00,0.80
5024.00,0.80
5023.00,0.80
5022.00,0.81
5021.00,0.81
5020.00,0.81
5019.00,0.81
5018.00,0.82
5017.00,0.82
5016.00,0.82
5015.00,0.82
5014.00,0.83
5013.00,0.83
5012.00,0.83
5011.00,0.84
5010.00,0.84
5009.00,0.84
5008.00,0.85
5007.00,0.85
5006.00,0.85
5005.00,0.86
5004.00,0.86
5003.00,0.86
5002.00,0.86
5001.00,0.87
5000.00,0.87
4999.00,0.87
4998.00,0.87
4997.00,0.87
4996.00,0.87
4995.00,0.88
4994.00,0.88
4993.00,0.88
4992.00,0.88
4991.00,0.88
4990.00,0.88
4989.00,0.88
4988.00,0.88
4987.00,0.89
4986.00,0.89
4985.00,0.89
4984.00,0.89
4983.00,0.89
4982.00,0.89
4981.00,0.89
4980.00,0.89
4979.00,0.89
4978.00,0.89
4977.00,0.89
4976.00,0.89
4975.00,0.89
4974.00,0.89
4973.00,0.89
4972.00,0.89
4971.00,0.89
4970.00,0.89
4969.00,0.89
4968.00,0.90
4967.00,0.90
4966.00,0.90
4965.00,0.90
4964.00,0.90
4963.00,0.90
4962.00,0.90
4961.00,0.91
4960.00,0.91
4959.00,0.91
4958.00,0.91
4957.00,0.91
4956.00,0.92
4955.00,0.92
4954.00,0.92
4953.00,0.92
4952.00,0.93
4951.00,0.93
4950.00,0.93
4949.00,0.93
4948.00,0.93
4947.00,0.94
4946.00,0.94
4945.00,0.94
4944.00,0.94
4943.00,0.95
4942.00,0.95
4941.00,0.95
4940.00,0.95
4939.00,0.95
4938.00,0.96
4937.00,0.96
4936.00,0.96
4935.00,0.96
4934.00,0.96
4933.00,0.96
4932.00,0.97
4931.00,0.97
4930.00,0.97
4929.00,0.97
4928.00,0.97
4927.00,0.97
4926.00,0.98
4925.00,0.98
4924.00,0.98
4923.00,0.98
4922.00,0.98
4921.00,0.98
4920.00,0.99
4919.00,0.99
4918.00,0.99
4917.00,0.99
4916.00,0.99
4915.00,0.99
4914.00,0.99
4913.00,0.99
4912.00,0.99
4911.00,0.99
4910.00,0.99
4909.00,0.99
4908.00,0.99
4907.00,0.99
4906.00,0.99
4905.00,0.99
4904.00,0.99
4903.00,0.99
4902.00,0.99
4901.00,0.99
4900.00,0.99
4899.00,0.99
4898.00,0.99
4897.00,0.99
4896.00,0.99
4895.00,0.99
4894.00,0.98
4893.00,0.98
4892.00,0.98
4891.00,0.98
4890.00,0.98
4889.00,0.98
4888.00,0.98
4887.00,0.98
4886.00,0.98
4885.00,0.98
4884.00,0.99
4883.00,0.99
4882.00,0.99
4881.00,0.99
4880.00,0.99
4879.00,0.99
4878.00,1.00
4877.00,1.00
4876.00,1.00
4875.00,1.00
4874.00,1.00
4873.00,1.00
4872.00,1.01
4871.00,1.01
4870.00,1.01
4869.00,1.01
4868.00,1.01
4867.00,1.02
4866.00,1.02
4865.00,1.02
4864.00,1.02
4863.00,1.02
4862.00,1.03
4861.00,1.03
4860.00,1.03
4859.00,1.03
4858.00,1.03
4857.00,1.03
4856.00,1.03
4855.00,1.04
4854.00,1.04
4853.00,1.04
4852.00,1.04
4851.00,1.04
4850.00,1.04
4849.00,1.04
4848.00,1.04
4847.00,1.05
4846.00,1.05
4845.00,1.05
4844.00,1.05
4843.00,1.05
4842.00,1.05
4841.00,1.05
4840.00,1.06
4839.00,1.06
4838.00,1.06
4837.00,1.06
4836.00,1.06
4835.00,1.06
4834.00,1.07
4833.00,1.07
4832.00,1.07
4831.00,1.07
4830.00,1.07
4829.00,1.07
4828.00,1.07
4827.00,1.07
4826.00,1.08
4825.00,1.08
4824.00,1.08
4823.00,1.08
4822.00,1.08
4821.00,1.08
4820.00,1.08
4819.00,1.08
4818.00,1.08
4817.00,1.08
4816.00,1.08
4815.00,1.08
4814.00,1.08
4813.00,1.08
4812.00,1.08
4811.00,1.07
4810.00,1.07
4809.00,1.07
4808.00,1.07
4807.00,1.07
4806.00,1.07
4805.00,1.07
4804.00,1.07
4803.00,1.07
4802.00,1.07
4801.00,1.07
4800.00,1.07
4799.00,1.07
4798.00,1.07
4797.00,1.07
4796.00,1.08
4795.00,1.08
4794.00,1.08
4793.00,1.08
4792.00,1.08
4791.00,1.09
4790.00,1.09
4789.00,1.09
4788.00,1.09
4787.00,1.10
4786.00,1.10
4785.00,1.10
4784.00,1.11
4783.00,1.11
4782.00,1.12
4781.00,1.12
4780.00,1.12
4779.00,1.13
4778.00,1.13
4777.00,1.13
4776.00,1.13
4775.00,1.14
4774.00,1.14
4773.00,1.14
4772.00,1.14
4771.00,1.15
4770.00,1.15
4769.00,1.15
4768.00,1.15
4767.00,1.15
4766.00,1.15
4765.00,1.15
4764.00,1.15
4763.00,1.15
4762.00,1.15
4761.00,1.15
4760.00,1.16
4759.00,1.16
4758.00,1.16
4757.00,1.16
4756.00,1.16
4755.00,1.16
4754.00,1.16
4753.00,1.16
4752.00,1.16
4751.00,1.16
4750.00,1.16
4749.00,1.16
4748.00,1.16
4747.00,1.17
4746.00,1.17
4745.00,1.17
4744.00,1.17
4743.00,1.17
4742.00,1.18
4741.00,1.18
4740.00,1.18
4739.00,1.19
4738.00,1.19
4737.00,1.19
4736.00,1.20
4735.00,1.20
4734.00,1.20
4733.00,1.20
4732.00,1.21
4731.00,1.21
4730.00,1.21
4729.00,1.21
4728.00,1.22
4727.00,1.22
4726.00,1.22
4725.00,1.22
4724.00,1.23
4723.00,1.23
4722.00,1.23
4721.00,1.23
4720.00,1.24
4719.00,1.24
4718.00,1.24
4717.00,1.24
4716.00,1.24
4715.00,1.25
4714.00,1.25
4713.00,1.25
4712.00,1.25
4711.00,1.25
4710.00,1.25
4709.00,1.25
4708.00,1.26
4707.00,1.26
4706.00,1.26
4705.00,1.26
4704.00,1.27
4703.00,1.27
4702.00,1.27
4701.00,1.27
4700.00,1.27
4699.00,1.28
4698.00,1.28
4697.00,1.28
4696.00,1.28
4695.00,1.28
4694.00,1.28
4693.00,1.29
4692.00,1.29
4691.00,1.29
4690.00,1.29
4689.00,1.29
4688.00,1.29
4687.00,1.30
4686.00,1.30
4685.00,1.30
4684.00,1.30
4683.00,1.30
4682.00,1.30
4681.00,1.31
4680.00,1.31
4679.00,1.31
4678.00,1.31
4677.00,1.31
4676.00,1.31
4675.00,1.31
4674.00,1.31
4673.00,1.32
4672.00,1.32
4671.00,1.32
4670.00,1.32
4669.00,1.32
4668.00,1.33
4667.00,1.33
4666.00,1.33
4665.00,1.33
4664.00,1.33
4663.00,1.33
4662.00,1.34
4661.00,1.34
4660.00,1.34
4659.00,1.34
4658.00,1.34
4657.00,1.35
4656.00,1.35
4655.00,1.35
4654.00,1.35
4653.00,1.36
4652.00,1.36
4651.00,1.36
4650.00,1.36
4649.00,1.37
4648.00,1.37
4647.00,1.37
4646.00,1.37
4645.00,1.38
4644.00,1.38
4643.00,1.38
4642.00,1.38
4641.00,1.38
4640.00,1.39
4639.00,1.39
4638.00,1.39
4637.00,1.39
4636.00,1.39
4635.00,1.39
4634.00,1.39
4633.00,1.39
4632.00,1.39
4631.00,1.39
4630.00,1.40
4629.00,1.40
4628.00,1.40
4627.00,1.40
4626.00,1.40
4625.00,1.39
4624.00,1.39
4623.00,1.39
4622.00,1.39
4621.00,1.39
4620.00,1.39
4619.00,1.39
4618.00,1.39
4617.00,1.39
4616.00,1.39
4615.00,1.39
4614.00,1.38
4613.00,1.38
4612.00,1.38
4611.00,1.38
4610.00,1.38
4609.00,1.38
4608.00,1.38
4607.00,1.38
4606.00,1.38
4605.00,1.37
4604.00,1.37
4603.00,1.37
4602.00,1.37
4601.00,1.37
4600.00,1.37
4599.00,1.37
4598.00,1.37
4597.00,1.36
4596.00,1.36
4595.00,1.36
4594.00,1.36
4593.00,1.36
4592.00,1.36
4591.00,1.36
4590.00,1.37
4589.00,1.37
4588.00,1.37
4587.00,1.37
4586.00,1.37
4585.00,1.37
4584.00,1.37
4583.00,1.37
4582.00,1.37
4581.00,1.38
4580.00,1.38
4579.00,1.38
4578.00,1.38
4577.00,1.38
4576.00,1.38
4575.00,1.39
4574.00,1.39
4573.00,1.39
4572.00,1.40
4571.00,1.40
4570.00,1.40
4569.00,1.40
4568.00,1.40
4567.00,1.41
4566.00,1.41
4565.00,1.41
4564.00,1.41
4563.00,1.41
4562.00,1.41
4561.00,1.41
4560.00,1.41
4559.00,1.41
4558.00,1.41
4557.00,1.42
4556.00,1.42
4555.00,1.42
4554.00,1.42
4553.00,1.42
4552.00,1.42
4551.00,1.42
4550.00,1.42
4549.00,1.42
4548.00,1.42
4547.00,1.42
4546.00,1.42
4545.00,1.42
4544.00,1.42
4543.00,1.43
4542.00,1.43
4541.00,1.43
4540.00,1.43
4539.00,1.43
4538.00,1.43
4537.00,1.43
4536.00,1.43
4535.00,1.43
4534.00,1.44
4533.00,1.44
4532.00,1.44
4531.00,1.44
4530.00,1.44
4529.00,1.44
4528.00,1.44
4527.00,1.44
4526.00,1.44
4525.00,1.44
4524.00,1.44
4523.00,1.44
4522.00,1.44
4521.00,1.44
4520.00,1.45
4519.00,1.45
4518.00,1.45
4517.00,1.45
4516.00,1.45
4515.00,1.45
4514.00,1.45
4513.00,1.45
4512.00,1.45
4511.00,1.45
4510.00,1.46
4509.00,1.46
4508.00,1.46
4507.00,1.46
4506.00,1.46
4505.00,1.46
4504.00,1.46
4503.00,1.46
4502.00,1.46
4501.00,1.46
4500.00,1.46
4499.00,1.46
4498.00,1.46
4497.00,1.46
4496.00,1.46
4495.00,1.46
4494.00,1.45
4493.00,1.45
4492.00,1.45
4491.00,1.45
4490.00,1.45
4489.00,1.45
4488.00,1.45
4487.00,1.45
4486.00,1.44
4485.00,1.44
4484.00,1.44
4483.00,1.44
4482.00,1.43
4481.00,1.43
4480.00,1.43
4479.00,1.42
4478.00,1.42
4477.00,1.42
4476.00,1.41
4475.00,1.41
4474.00,1.41
4473.00,1.41
4472.00,1.41
4471.00,1.41
4470.00,1.41
4469.00,1.40
4468.00,1.40
4467.00,1.40
4466.00,1.40
4465.00,1.40
4464.00,1.39
4463.00,1.39
4462.00,1.39
4461.00,1.38
4460.00,1.38
4459.00,1.38
4458.00,1.37
4457.00,1.37
4456.00,1.36
4455.00,1.36
4454.00,1.36
4453.00,1.35
4452.00,1.35
4451.00,1.34
4450.00,1.33
4449.00,1.33
4448.00,1.32
4447.00,1.31
4446.00,1.30
4445.00,1.29
4444.00,1.28
4443.00,1.27
4442.00,1.26
4441.00,1.25
4440.00,1.24
4439.00,1.23
4438.00,1.22
4437.00,1.21
4436.00,1.20
4435.00,1.19
4434.00,1.18
4433.00,1.17
4432.00,1.16
4431.00,1.15
4430.00,1.14
4429.00,1.14
4428.00,1.13
4427.00,1.12
4426.00,1.11
4425.00,1.10
4424.00,1.10
4423.00,1.09
4422.00,1.09
4421.00,1.08
4420.00,1.08
4419.00,1.07
4418.00,1.07
4417.00,1.06
4416.00,1.06
4415.00,1.06
4414.00,1.06
4413.00,1.06
4412.00,1.06
4411.00,1.06
4410.00,1.06
4409.00,1.06
4408.00,1.07
4407.00,1.07
4406.00,1.07
4405.00,1.08
4404.00,1.08
4403.00,1.08
4402.00,1.09
4401.00,1.09
4400.00,1.10
4399.00,1.10
4398.00,1.11
4397.00,1.11
4396.00,1.12
4395.00,1.12
4394.00,1.13
4393.00,1.13
4392.00,1.14
4391.00,1.14
4390.00,1.15
4389.00,1.15
4388.00,1.15
4387.00,1.16
4386.00,1.16
4385.00,1.17
4384.00,1.17
4383.00,1.17
4382.00,1.17
4381.00,1.18
4380.00,1.18
4379.00,1.18
4378.00,1.18
4377.00,1.19
4376.00,1.19
4375.00,1.19
4374.00,1.19
4373.00,1.19
4372.00,1.19
4371.00,1.20
4370.00,1.20
4369.00,1.20
4368.00,1.20
4367.00,1.20
4366.00,1.20
4365.00,1.20
4364.00,1.20
4363.00,1.20
4362.00,1.20
4361.00,1.20
4360.00,1.20
4359.00,1.19
4358.00,1.19
4357.00,1.19
4356.00,1.19
4355.00,1.19
4354.00,1.19
4353.00,1.19
4352.00,1.19
4351.00,1.18
4350.00,1.18
4349.00,1.18
4348.00,1.18
4347.00,1.18
4346.00,1.18
4345.00,1.17
4344.00,1.17
4343.00,1.17
4342.00,1.17
4341.00,1.17
4340.00,1.17
4339.00,1.17
4338.00,1.17
4337.00,1.17
4336.00,1.17
4335.00,1.16
4334.00,1.16
4333.00,1.17
4332.00,1.17
4331.00,1.17
4330.00,1.17
4329.00,1.17
4328.00,1.17
4327.00,1.17
4326.00,1.17
4325.00,1.18
4324.00,1.18
4323.00,1.18
4322.00,1.18
4321.00,1.19
4320.00,1.19
4319.00,1.19
4318.00,1.20
4317.00,1.20
4316.00,1.21
4315.00,1.21
4314.00,1.22
4313.00,1.22
4312.00,1.23
4311.00,1.23
4310.00,1.24
4309.00,1.24
4308.00,1.25
4307.00,1.25
4306.00,1.26
4305.00,1.27
4304.00,1.27
4303.00,1.28
4302.00,1.28
4301.00,1.29
4300.00,1.30
4299.00,1.30
4298.00,1.31
4297.00,1.31
4296.00,1.32
4295.00,1.33
4294.00,1.33
4293.00,1.34
4292.00,1.34
4291.00,1.35
4290.00,1.35
4289.00,1.36
4288.00,1.36
4287.00,1.37
4286.00,1.37
4285.00,1.37
4284.00,1.38
4283.00,1.38
4282.00,1.38
4281.00,1.39
4280.00,1.39
4279.00,1.39
4278.00,1.39
4277.00,1.39
4276.00,1.39
4275.00,1.39
4274.00,1.39
4273.00,1.39
4272.00,1.39
4271.00,1.38
4270.00,1.38
4269.00,1.38
4268.00,1.38
4267.00,1.37
4266.00,1.37
4265.00,1.36
4264.00,1.36
4263.00,1.36
4262.00,1.35
4261.00,1.35
4260.00,1.34
4259.00,1.34
4258.00,1.34
4257.00,1.33
4256.00,1.33
4255.00,1.33
4254.00,1.32
4253.00,1.32
4252.00,1.32
4251.00,1.32
4250.00,1.32
4249.00,1.32
4248.00,1.32
4247.00,1.33
4246.00,1.33
4245.00,1.33
4244.00,1.33
4243.00,1.33
4242.00,1.34
4241.00,1.34
4240.00,1.35
4239.00,1.35
4238.00,1.35
4237.00,1.36
4236.00,1.36
4235.00,1.37
4234.00,1.37
4233.00,1.38
4232.00,1.38
4231.00,1.39
4230.00,1.39
4229.00,1.39
4228.00,1.40
4227.00,1.40
4226.00,1.40
4225.00,1.40
4224.00,1.41
4223.00,1.41
4222.00,1.41
4221.00,1.41
4220.00,1.41
4219.00,1.42
4218.00,1.42
4217.00,1.42
4216.00,1.42
4215.00,1.42
4214.00,1.43
4213.00,1.43
4212.00,1.43
4211.00,1.43
4210.00,1.43
4209.00,1.43
4208.00,1.43
4207.00,1.43
4206.00,1.43
4205.00,1.43
4204.00,1.44
4203.00,1.44
4202.00,1.44
4201.00,1.44
4200.00,1.44
4199.00,1.44
4198.00,1.44
4197.00,1.44
4196.00,1.44
4195.00,1.44
4194.00,1.44
4193.00,1.43
4192.00,1.43
4191.00,1.43
4190.00,1.43
4189.00,1.43
4188.00,1.42
4187.00,1.42
4186.00,1.42
4185.00,1.42
4184.00,1.42
4183.00,1.41
4182.00,1.41
4181.00,1.41
4180.00,1.41
4179.00,1.40
4178.00,1.40
4177.00,1.40
4176.00,1.39
4175.00,1.39
4174.00,1.39
4173.00,1.39
4172.00,1.39
4171.00,1.39
4170.00,1.38
4169.00,1.38
4168.00,1.38
4167.00,1.38
4166.00,1.38
4165.00,1.38
4164.00,1.37
4163.00,1.37
4162.00,1.37
4161.00,1.36
4160.00,1.36
4159.00,1.36
4158.00,1.35
4157.00,1.35
4156.00,1.34
4155.00,1.34
4154.00,1.34
4153.00,1.33
4152.00,1.33
4151.00,1.33
4150.00,1.32
4149.00,1.32
4148.00,1.32
4147.00,1.32
4146.00,1.31
4145.00,1.31
4144.00,1.31
4143.00,1.31
4142.00,1.31
4141.00,1.31
4140.00,1.31
4139.00,1.31
4138.00,1.31
4137.00,1.31
4136.00,1.31
4135.00,1.31
4134.00,1.32
4133.00,1.32
4132.00,1.33
4131.00,1.33
4130.00,1.33
4129.00,1.34
4128.00,1.34
4127.00,1.34
4126.00,1.35
4125.00,1.35
4124.00,1.36
4123.00,1.36
4122.00,1.37
4121.00,1.37
4120.00,1.37
4119.00,1.38
4118.00,1.38
4117.00,1.38
4116.00,1.38
4115.00,1.38
4114.00,1.38
4113.00,1.38
4112.00,1.38
4111.00,1.39
4110.00,1.39
4109.00,1.39
4108.00,1.38
4107.00,1.38
4106.00,1.38
4105.00,1.38
4104.00,1.38
4103.00,1.38
4102.00,1.38
4101.00,1.38
4100.00,1.38
4099.00,1.38
4098.00,1.38
4097.00,1.37
4096.00,1.37
4095.00,1.37
4094.00,1.37
4093.00,1.36
4092.00,1.36
4091.00,1.36
4090.00,1.36
4089.00,1.36
4088.00,1.35
4087.00,1.35
4086.00,1.35
4085.00,1.35
4084.00,1.35
4083.00,1.35
4082.00,1.35
4081.00,1.35
4080.00,1.35
4079.00,1.35
4078.00,1.34
4077.00,1.34
4076.00,1.34
4075.00,1.34
4074.00,1.34
4073.00,1.34
4072.00,1.34
4071.00,1.33
4070.00,1.33
4069.00,1.33
4068.00,1.33
4067.00,1.33
4066.00,1.33
4065.00,1.32
4064.00,1.32
4063.00,1.32
4062.00,1.32
4061.00,1.31
4060.00,1.31
4059.00,1.31
4058.00,1.31
4057.00,1.30
4056.00,1.30
4055.00,1.29
4054.00,1.29
4053.00,1.28
4052.00,1.28
4051.00,1.28
4050.00,1.27
4049.00,1.27
4048.00,1.27
4047.00,1.26
4046.00,1.26
4045.00,1.26
4044.00,1.26
4043.00,1.26
4042.00,1.25
4041.00,1.25
4040.00,1.25
4039.00,1.25
4038.00,1.25
4037.00,1.26
4036.00,1.26
4035.00,1.26
4034.00,1.26
4033.00,1.26
4032.00,1.27
4031.00,1.27
4030.00,1.27
4029.00,1.27
4028.00,1.28
4027.00,1.28
4026.00,1.29
4025.00,1.29
4024.00,1.30
4023.00,1.30
4022.00,1.31
4021.00,1.32
4020.00,1.32
4019.00,1.33
4018.00,1.34
4017.00,1.35
4016.00,1.36
4015.00,1.37
4014.00,1.38
4013.00,1.39
4012.00,1.41
4011.00,1.42
4010.00,1.43
4009.00,1.45
4008.00,1.46
4007.00,1.47
4006.00,1.49
4005.00,1.50
4004.00,1.52
4003.00,1.54
4002.00,1.56
4001.00,1.58
4000.00,1.59
