创建为新数据集,样品 366 用户 Administrator 日期 星期日, 七月 28 2019
cm-1,%T
10000.00,1.26
9999.00,1.26
9998.00,1.25
9997.00,1.25
9996.00,1.25
9995.00,1.25
9994.00,1.24
9993.00,1.24
9992.00,1.23
9991.00,1.23
9990.00,1.22
9989.00,1.22
9988.00,1.21
9987.00,1.20
9986.00,1.19
9985.00,1.18
9984.00,1.17
9983.00,1.16
9982.00,1.15
9981.00,1.14
9980.00,1.14
9979.00,1.13
9978.00,1.12
9977.00,1.11
9976.00,1.10
9975.00,1.09
9974.00,1.08
9973.00,1.07
9972.00,1.06
9971.00,1.05
9970.00,1.04
9969.00,1.03
9968.00,1.02
9967.00,1.01
9966.00,1.01
9965.00,1.00
9964.00,1.00
9963.00,1.00
9962.00,1.00
9961.00,1.00
9960.00,1.00
9959.00,1.00
9958.00,1.01
9957.00,1.01
9956.00,1.01
9955.00,1.02
9954.00,1.02
9953.00,1.02
9952.00,1.03
9951.00,1.03
9950.00,1.03
9949.00,1.04
9948.00,1.04
9947.00,1.04
9946.00,1.04
9945.00,1.05
9944.00,1.05
9943.00,1.05
9942.00,1.05
9941.00,1.06
9940.00,1.06
9939.00,1.06
9938.00,1.06
9937.00,1.05
9936.00,1.05
9935.00,1.05
9934.00,1.04
9933.00,1.04
9932.00,1.03
9931.00,1.02
9930.00,1.02
9929.00,1.01
9928.00,1.01
9927.00,1.00
9926.00,1.00
9925.00,0.99
9924.00,0.99
9923.00,0.99
9922.00,0.99
9921.00,0.99
9920.00,0.99
9919.00,0.99
9918.00,0.99
9917.00,1.00
9916.00,1.00
9915.00,1.00
9914.00,1.01
9913.00,1.01
9912.00,1.01
9911.00,1.02
9910.00,1.02
9909.00,1.03
9908.00,1.03
9907.00,1.04
9906.00,1.05
9905.00,1.06
9904.00,1.06
9903.00,1.07
9902.00,1.08
9901.00,1.08
9900.00,1.09
9899.00,1.10
9898.00,1.10
9897.00,1.10
9896.00,1.10
9895.00,1.10
9894.00,1.10
9893.00,1.10
9892.00,1.10
9891.00,1.10
9890.00,1.10
9889.00,1.09
9888.00,1.09
9887.00,1.09
9886.00,1.08
9885.00,1.08
9884.00,1.08
9883.00,1.07
9882.00,1.07
9881.00,1.07
9880.00,1.06
9879.00,1.05
9878.00,1.05
9877.00,1.04
9876.00,1.04
9875.00,1.04
9874.00,1.03
9873.00,1.03
9872.00,1.03
9871.00,1.03
9870.00,1.03
9869.00,1.03
9868.00,1.04
9867.00,1.04
9866.00,1.05
9865.00,1.05
9864.00,1.06
9863.00,1.07
9862.00,1.07
9861.00,1.08
9860.00,1.09
9859.00,1.09
9858.00,1.10
9857.00,1.10
9856.00,1.11
9855.00,1.12
9854.00,1.12
9853.00,1.13
9852.00,1.14
9851.00,1.14
9850.00,1.15
9849.00,1.16
9848.00,1.16
9847.00,1.17
9846.00,1.17
9845.00,1.17
9844.00,1.17
9843.00,1.17
9842.00,1.17
9841.00,1.17
9840.00,1.16
9839.00,1.16
9838.00,1.15
9837.00,1.15
9836.00,1.14
9835.00,1.13
9834.00,1.13
9833.00,1.12
9832.00,1.12
9831.00,1.11
9830.00,1.10
9829.00,1.10
9828.00,1.09
9827.00,1.08
9826.00,1.08
9825.00,1.07
9824.00,1.06
9823.00,1.05
9822.00,1.05
9821.00,1.04
9820.00,1.04
9819.00,1.03
9818.00,1.03
9817.00,1.03
9816.00,1.03
9815.00,1.03
9814.00,1.03
9813.00,1.03
9812.00,1.04
9811.00,1.04
9810.00,1.04
9809.00,1.05
9808.00,1.05
9807.00,1.05
9806.00,1.06
9805.00,1.06
9804.00,1.06
9803.00,1.07
9802.00,1.07
9801.00,1.07
9800.00,1.08
9799.00,1.08
9798.00,1.09
9797.00,1.09
9796.00,1.09
9795.00,1.09
9794.00,1.09
9793.00,1.09
9792.00,1.09
9791.00,1.09
9790.00,1.08
9789.00,1.08
9788.00,1.07
9787.00,1.07
9786.00,1.06
9785.00,1.05
9784.00,1.05
9783.00,1.04
9782.00,1.03
9781.00,1.02
9780.00,1.01
9779.00,1.01
9778.00,1.00
9777.00,0.99
9776.00,0.98
9775.00,0.97
9774.00,0.97
9773.00,0.96
9772.00,0.95
9771.00,0.95
9770.00,0.94
9769.00,0.93
9768.00,0.93
9767.00,0.92
9766.00,0.92
9765.00,0.92
9764.00,0.91
9763.00,0.91
9762.00,0.91
9761.00,0.91
9760.00,0.91
9759.00,0.91
9758.00,0.92
9757.00,0.92
9756.00,0.92
9755.00,0.93
9754.00,0.93
9753.00,0.93
9752.00,0.94
9751.00,0.94
9750.00,0.95
9749.00,0.95
9748.00,0.95
9747.00,0.96
9746.00,0.96
9745.00,0.97
9744.00,0.97
9743.00,0.98
9742.00,0.99
9741.00,0.99
9740.00,1.00
9739.00,1.01
9738.00,1.01
9737.00,1.02
9736.00,1.03
9735.00,1.03
9734.00,1.04
9733.00,1.04
9732.00,1.05
9731.00,1.05
9730.00,1.05
9729.00,1.05
9728.00,1.05
9727.00,1.06
9726.00,1.06
9725.00,1.06
9724.00,1.06
9723.00,1.06
9722.00,1.06
9721.00,1.06
9720.00,1.06
9719.00,1.06
9718.00,1.06
9717.00,1.06
9716.00,1.05
9715.00,1.05
9714.00,1.05
9713.00,1.04
9712.00,1.04
9711.00,1.03
9710.00,1.03
9709.00,1.03
9708.00,1.02
9707.00,1.02
9706.00,1.01
9705.00,1.01
9704.00,1.01
9703.00,1.00
9702.00,1.00
9701.00,1.00
9700.00,1.00
9699.00,1.00
9698.00,0.99
9697.00,0.99
9696.00,0.99
9695.00,0.98
9694.00,0.98
9693.00,0.98
9692.00,0.97
9691.00,0.97
9690.00,0.96
9689.00,0.96
9688.00,0.95
9687.00,0.95
9686.00,0.94
9685.00,0.93
9684.00,0.92
9683.00,0.91
9682.00,0.90
9681.00,0.90
9680.00,0.89
9679.00,0.88
9678.00,0.87
9677.00,0.86
9676.00,0.85
9675.00,0.84
9674.00,0.84
9673.00,0.83
9672.00,0.82
9671.00,0.82
9670.00,0.81
9669.00,0.81
9668.00,0.80
9667.00,0.80
9666.00,0.80
9665.00,0.80
9664.00,0.80
9663.00,0.80
9662.00,0.80
9661.00,0.81
9660.00,0.81
9659.00,0.82
9658.00,0.82
9657.00,0.83
9656.00,0.83
9655.00,0.84
9654.00,0.85
9653.00,0.85
9652.00,0.86
9651.00,0.87
9650.00,0.87
9649.00,0.88
9648.00,0.89
9647.00,0.89
9646.00,0.90
9645.00,0.90
9644.00,0.90
9643.00,0.91
9642.00,0.91
9641.00,0.91
9640.00,0.91
9639.00,0.91
9638.00,0.91
9637.00,0.91
9636.00,0.92
9635.00,0.92
9634.00,0.92
9633.00,0.93
9632.00,0.93
9631.00,0.94
9630.00,0.94
9629.00,0.95
9628.00,0.96
9627.00,0.96
9626.00,0.97
9625.00,0.98
9624.00,0.98
9623.00,0.99
9622.00,1.00
9621.00,1.01
9620.00,1.02
9619.00,1.03
9618.00,1.04
9617.00,1.05
9616.00,1.06
9615.00,1.07
9614.00,1.08
9613.00,1.09
9612.00,1.09
9611.00,1.10
9610.00,1.10
9609.00,1.11
9608.00,1.11
9607.00,1.11
9606.00,1.11
9605.00,1.10
9604.00,1.10
9603.00,1.10
9602.00,1.09
9601.00,1.09
9600.00,1.09
9599.00,1.08
9598.00,1.07
9597.00,1.07
9596.00,1.06
9595.00,1.05
9594.00,1.05
9593.00,1.04
9592.00,1.03
9591.00,1.02
9590.00,1.01
9589.00,1.00
9588.00,0.99
9587.00,0.99
9586.00,0.98
9585.00,0.98
9584.00,0.98
9583.00,0.97
9582.00,0.97
9581.00,0.97
9580.00,0.97
9579.00,0.97
9578.00,0.97
9577.00,0.98
9576.00,0.98
9575.00,0.98
9574.00,0.98
9573.00,0.99
9572.00,0.99
9571.00,1.00
9570.00,1.00
9569.00,1.01
9568.00,1.02
9567.00,1.02
9566.00,1.03
9565.00,1.04
9564.00,1.04
9563.00,1.05
9562.00,1.05
9561.00,1.05
9560.00,1.06
9559.00,1.06
9558.00,1.06
9557.00,1.06
9556.00,1.06
9555.00,1.07
9554.00,1.07
9553.00,1.07
9552.00,1.07
9551.00,1.07
9550.00,1.07
9549.00,1.08
9548.00,1.08
9547.00,1.07
9546.00,1.07
9545.00,1.07
9544.00,1.07
9543.00,1.06
9542.00,1.06
9541.00,1.06
9540.00,1.06
9539.00,1.06
9538.00,1.05
9537.00,1.05
9536.00,1.05
9535.00,1.06
9534.00,1.06
9533.00,1.06
9532.00,1.06
9531.00,1.06
9530.00,1.06
9529.00,1.06
9528.00,1.06
9527.00,1.06
9526.00,1.06
9525.00,1.06
9524.00,1.06
9523.00,1.05
9522.00,1.05
9521.00,1.05
9520.00,1.06
9519.00,1.06
9518.00,1.06
9517.00,1.06
9516.00,1.06
9515.00,1.06
9514.00,1.06
9513.00,1.06
9512.00,1.06
9511.00,1.06
9510.00,1.06
9509.00,1.06
9508.00,1.06
9507.00,1.06
9506.00,1.06
9505.00,1.06
9504.00,1.06
9503.00,1.06
9502.00,1.06
9501.00,1.06
9500.00,1.06
9499.00,1.06
9498.00,1.06
9497.00,1.06
9496.00,1.06
9495.00,1.06
9494.00,1.06
9493.00,1.05
9492.00,1.05
9491.00,1.05
9490.00,1.05
9489.00,1.05
9488.00,1.05
9487.00,1.04
9486.00,1.04
9485.00,1.04
9484.00,1.04
9483.00,1.03
9482.00,1.03
9481.00,1.03
9480.00,1.03
9479.00,1.02
9478.00,1.02
9477.00,1.02
9476.00,1.01
9475.00,1.01
9474.00,1.01
9473.00,1.00
9472.00,1.00
9471.00,1.00
9470.00,1.00
9469.00,0.99
9468.00,0.99
9467.00,0.99
9466.00,0.99
9465.00,0.99
9464.00,0.99
9463.00,0.99
9462.00,0.99
9461.00,0.99
9460.00,0.99
9459.00,0.99
9458.00,1.00
9457.00,1.00
9456.00,1.00
9455.00,1.01
9454.00,1.01
9453.00,1.02
9452.00,1.02
9451.00,1.03
9450.00,1.04
9449.00,1.04
9448.00,1.05
9447.00,1.06
9446.00,1.07
9445.00,1.08
9444.00,1.08
9443.00,1.09
9442.00,1.10
9441.00,1.11
9440.00,1.12
9439.00,1.13
9438.00,1.13
9437.00,1.14
9436.00,1.15
9435.00,1.15
9434.00,1.16
9433.00,1.16
9432.00,1.16
9431.00,1.17
9430.00,1.17
9429.00,1.17
9428.00,1.17
9427.00,1.17
9426.00,1.17
9425.00,1.16
9424.00,1.16
9423.00,1.16
9422.00,1.15
9421.00,1.15
9420.00,1.14
9419.00,1.13
9418.00,1.13
9417.00,1.12
9416.00,1.11
9415.00,1.11
9414.00,1.10
9413.00,1.09
9412.00,1.09
9411.00,1.08
9410.00,1.07
9409.00,1.07
9408.00,1.06
9407.00,1.06
9406.00,1.05
9405.00,1.05
9404.00,1.04
9403.00,1.04
9402.00,1.04
9401.00,1.03
9400.00,1.03
9399.00,1.03
9398.00,1.02
9397.00,1.02
9396.00,1.02
9395.00,1.01
9394.00,1.01
9393.00,1.01
9392.00,1.00
9391.00,1.00
9390.00,0.99
9389.00,0.99
9388.00,0.98
9387.00,0.98
9386.00,0.97
9385.00,0.97
9384.00,0.96
9383.00,0.96
9382.00,0.95
9381.00,0.94
9380.00,0.94
9379.00,0.93
9378.00,0.92
9377.00,0.91
9376.00,0.91
9375.00,0.90
9374.00,0.90
9373.00,0.89
9372.00,0.89
9371.00,0.89
9370.00,0.88
9369.00,0.89
9368.00,0.89
9367.00,0.89
9366.00,0.90
9365.00,0.90
9364.00,0.91
9363.00,0.92
9362.00,0.92
9361.00,0.93
9360.00,0.94
9359.00,0.96
9358.00,0.97
9357.00,0.98
9356.00,1.00
9355.00,1.01
9354.00,1.03
9353.00,1.04
9352.00,1.06
9351.00,1.07
9350.00,1.09
9349.00,1.11
9348.00,1.12
9347.00,1.13
9346.00,1.15
9345.00,1.16
9344.00,1.17
9343.00,1.18
9342.00,1.19
9341.00,1.19
9340.00,1.20
9339.00,1.20
9338.00,1.20
9337.00,1.20
9336.00,1.20
9335.00,1.20
9334.00,1.20
9333.00,1.19
9332.00,1.19
9331.00,1.18
9330.00,1.17
9329.00,1.16
9328.00,1.15
9327.00,1.14
9326.00,1.13
9325.00,1.12
9324.00,1.10
9323.00,1.09
9322.00,1.08
9321.00,1.07
9320.00,1.06
9319.00,1.04
9318.00,1.03
9317.00,1.02
9316.00,1.01
9315.00,1.00
9314.00,0.99
9313.00,0.98
9312.00,0.98
9311.00,0.97
9310.00,0.96
9309.00,0.95
9308.00,0.95
9307.00,0.94
9306.00,0.94
9305.00,0.94
9304.00,0.93
9303.00,0.93
9302.00,0.93
9301.00,0.93
9300.00,0.93
9299.00,0.93
9298.00,0.94
9297.00,0.94
9296.00,0.94
9295.00,0.94
9294.00,0.94
9293.00,0.95
9292.00,0.95
9291.00,0.95
9290.00,0.96
9289.00,0.96
9288.00,0.96
9287.00,0.97
9286.00,0.97
9285.00,0.97
9284.00,0.98
9283.00,0.98
9282.00,0.99
9281.00,0.99
9280.00,1.00
9279.00,1.01
9278.00,1.01
9277.00,1.02
9276.00,1.03
9275.00,1.03
9274.00,1.04
9273.00,1.05
9272.00,1.06
9271.00,1.06
9270.00,1.07
9269.00,1.07
9268.00,1.08
9267.00,1.08
9266.00,1.09
9265.00,1.09
9264.00,1.10
9263.00,1.10
9262.00,1.11
9261.00,1.11
9260.00,1.11
9259.00,1.12
9258.00,1.12
9257.00,1.12
9256.00,1.12
9255.00,1.12
9254.00,1.12
9253.00,1.12
9252.00,1.12
9251.00,1.11
9250.00,1.11
9249.00,1.11
9248.00,1.10
9247.00,1.09
9246.00,1.09
9245.00,1.08
9244.00,1.08
9243.00,1.07
9242.00,1.07
9241.00,1.07
9240.00,1.06
9239.00,1.06
9238.00,1.06
9237.00,1.05
9236.00,1.05
9235.00,1.05
9234.00,1.05
9233.00,1.05
9232.00,1.05
9231.00,1.05
9230.00,1.05
9229.00,1.05
9228.00,1.05
9227.00,1.06
9226.00,1.06
9225.00,1.06
9224.00,1.07
9223.00,1.07
9222.00,1.08
9221.00,1.08
9220.00,1.09
9219.00,1.09
9218.00,1.09
9217.00,1.10
9216.00,1.10
9215.00,1.10
9214.00,1.11
9213.00,1.11
9212.00,1.11
9211.00,1.11
9210.00,1.11
9209.00,1.11
9208.00,1.11
9207.00,1.11
9206.00,1.11
9205.00,1.11
9204.00,1.10
9203.00,1.10
9202.00,1.10
9201.00,1.09
9200.00,1.09
9199.00,1.09
9198.00,1.08
9197.00,1.08
9196.00,1.07
9195.00,1.07
9194.00,1.06
9193.00,1.06
9192.00,1.05
9191.00,1.05
9190.00,1.05
9189.00,1.04
9188.00,1.04
9187.00,1.04
9186.00,1.04
9185.00,1.04
9184.00,1.03
9183.00,1.03
9182.00,1.03
9181.00,1.03
9180.00,1.02
9179.00,1.02
9178.00,1.02
9177.00,1.01
9176.00,1.01
9175.00,1.01
9174.00,1.01
9173.00,1.01
9172.00,1.01
9171.00,1.01
9170.00,1.01
9169.00,1.01
9168.00,1.02
9167.00,1.02
9166.00,1.02
9165.00,1.03
9164.00,1.03
9163.00,1.04
9162.00,1.04
9161.00,1.04
9160.00,1.05
9159.00,1.05
9158.00,1.06
9157.00,1.06
9156.00,1.07
9155.00,1.07
9154.00,1.08
9153.00,1.08
9152.00,1.09
9151.00,1.09
9150.00,1.10
9149.00,1.10
9148.00,1.11
9147.00,1.11
9146.00,1.12
9145.00,1.12
9144.00,1.12
9143.00,1.12
9142.00,1.12
9141.00,1.12
9140.00,1.12
9139.00,1.11
9138.00,1.11
9137.00,1.10
9136.00,1.09
9135.00,1.09
9134.00,1.08
9133.00,1.07
9132.00,1.07
9131.00,1.06
9130.00,1.05
9129.00,1.05
9128.00,1.04
9127.00,1.04
9126.00,1.03
9125.00,1.02
9124.00,1.02
9123.00,1.01
9122.00,1.01
9121.00,1.01
9120.00,1.00
9119.00,1.00
9118.00,1.00
9117.00,0.99
9116.00,0.99
9115.00,0.99
9114.00,0.99
9113.00,0.99
9112.00,0.99
9111.00,0.98
9110.00,0.98
9109.00,0.98
9108.00,0.98
9107.00,0.98
9106.00,0.98
9105.00,0.98
9104.00,0.99
9103.00,0.99
9102.00,0.99
9101.00,0.99
9100.00,0.99
9099.00,0.99
9098.00,0.99
9097.00,0.99
9096.00,1.00
9095.00,1.00
9094.00,1.00
9093.00,1.00
9092.00,1.00
9091.00,1.00
9090.00,1.01
9089.00,1.01
9088.00,1.01
9087.00,1.02
9086.00,1.02
9085.00,1.02
9084.00,1.03
9083.00,1.03
9082.00,1.04
9081.00,1.04
9080.00,1.04
9079.00,1.05
9078.00,1.05
9077.00,1.05
9076.00,1.05
9075.00,1.05
9074.00,1.05
9073.00,1.05
9072.00,1.05
9071.00,1.05
9070.00,1.04
9069.00,1.04
9068.00,1.04
9067.00,1.03
9066.00,1.03
9065.00,1.02
9064.00,1.02
9063.00,1.01
9062.00,1.01
9061.00,1.00
9060.00,1.00
9059.00,0.99
9058.00,0.99
9057.00,0.99
9056.00,0.98
9055.00,0.98
9054.00,0.97
9053.00,0.97
9052.00,0.97
9051.00,0.96
9050.00,0.96
9049.00,0.96
9048.00,0.95
9047.00,0.95
9046.00,0.95
9045.00,0.95
9044.00,0.96
9043.00,0.96
9042.00,0.96
9041.00,0.97
9040.00,0.97
9039.00,0.97
9038.00,0.98
9037.00,0.99
9036.00,0.99
9035.00,1.00
9034.00,1.01
9033.00,1.01
9032.00,1.02
9031.00,1.02
9030.00,1.03
9029.00,1.04
9028.00,1.04
9027.00,1.05
9026.00,1.06
9025.00,1.07
9024.00,1.08
9023.00,1.08
9022.00,1.09
9021.00,1.10
9020.00,1.11
9019.00,1.11
9018.00,1.12
9017.00,1.12
9016.00,1.12
9015.00,1.13
9014.00,1.13
9013.00,1.13
9012.00,1.13
9011.00,1.13
9010.00,1.13
9009.00,1.13
9008.00,1.13
9007.00,1.12
9006.00,1.12
9005.00,1.12
9004.00,1.12
9003.00,1.12
9002.00,1.11
9001.00,1.11
9000.00,1.11
8999.00,1.11
8998.00,1.10
8997.00,1.10
8996.00,1.10
8995.00,1.10
8994.00,1.10
8993.00,1.09
8992.00,1.09
8991.00,1.09
8990.00,1.09
8989.00,1.09
8988.00,1.09
8987.00,1.09
8986.00,1.09
8985.00,1.09
8984.00,1.09
8983.00,1.09
8982.00,1.09
8981.00,1.09
8980.00,1.08
8979.00,1.08
8978.00,1.08
8977.00,1.08
8976.00,1.07
8975.00,1.07
8974.00,1.06
8973.00,1.06
8972.00,1.06
8971.00,1.05
8970.00,1.05
8969.00,1.04
8968.00,1.04
8967.00,1.03
8966.00,1.03
8965.00,1.02
8964.00,1.02
8963.00,1.01
8962.00,1.01
8961.00,1.01
8960.00,1.00
8959.00,1.00
8958.00,1.00
8957.00,1.00
8956.00,1.00
8955.00,1.00
8954.00,1.01
8953.00,1.01
8952.00,1.01
8951.00,1.02
8950.00,1.02
8949.00,1.03
8948.00,1.03
8947.00,1.04
8946.00,1.04
8945.00,1.05
8944.00,1.05
8943.00,1.06
8942.00,1.07
8941.00,1.07
8940.00,1.08
8939.00,1.09
8938.00,1.09
8937.00,1.10
8936.00,1.10
8935.00,1.11
8934.00,1.11
8933.00,1.11
8932.00,1.12
8931.00,1.12
8930.00,1.12
8929.00,1.12
8928.00,1.12
8927.00,1.11
8926.00,1.11
8925.00,1.11
8924.00,1.11
8923.00,1.11
8922.00,1.10
8921.00,1.10
8920.00,1.10
8919.00,1.09
8918.00,1.09
8917.00,1.09
8916.00,1.08
8915.00,1.08
8914.00,1.07
8913.00,1.07
8912.00,1.06
8911.00,1.06
8910.00,1.06
8909.00,1.05
8908.00,1.05
8907.00,1.05
8906.00,1.04
8905.00,1.04
8904.00,1.04
8903.00,1.04
8902.00,1.04
8901.00,1.04
8900.00,1.04
8899.00,1.04
8898.00,1.04
8897.00,1.04
8896.00,1.04
8895.00,1.05
8894.00,1.05
8893.00,1.05
8892.00,1.05
8891.00,1.05
8890.00,1.05
8889.00,1.05
8888.00,1.05
8887.00,1.05
8886.00,1.04
8885.00,1.04
8884.00,1.04
8883.00,1.04
8882.00,1.04
8881.00,1.04
8880.00,1.04
8879.00,1.04
8878.00,1.04
8877.00,1.04
8876.00,1.03
8875.00,1.03
8874.00,1.03
8873.00,1.03
8872.00,1.02
8871.00,1.02
8870.00,1.02
8869.00,1.02
8868.00,1.01
8867.00,1.01
8866.00,1.01
8865.00,1.01
8864.00,1.01
8863.00,1.01
8862.00,1.02
8861.00,1.02
8860.00,1.02
8859.00,1.02
8858.00,1.03
8857.00,1.03
8856.00,1.03
8855.00,1.04
8854.00,1.04
8853.00,1.04
8852.00,1.04
8851.00,1.04
8850.00,1.05
8849.00,1.05
8848.00,1.05
8847.00,1.05
8846.00,1.05
8845.00,1.05
8844.00,1.05
8843.00,1.05
8842.00,1.05
8841.00,1.05
8840.00,1.05
8839.00,1.05
8838.00,1.05
8837.00,1.04
8836.00,1.04
8835.00,1.04
8834.00,1.04
8833.00,1.04
8832.00,1.04
8831.00,1.03
8830.00,1.03
8829.00,1.03
8828.00,1.03
8827.00,1.03
8826.00,1.03
8825.00,1.03
8824.00,1.03
8823.00,1.04
8822.00,1.04
8821.00,1.04
8820.00,1.04
8819.00,1.04
8818.00,1.04
8817.00,1.04
8816.00,1.05
8815.00,1.05
8814.00,1.05
8813.00,1.05
8812.00,1.05
8811.00,1.05
8810.00,1.05
8809.00,1.05
8808.00,1.05
8807.00,1.05
8806.00,1.05
8805.00,1.05
8804.00,1.04
8803.00,1.04
8802.00,1.04
8801.00,1.04
8800.00,1.04
8799.00,1.03
8798.00,1.03
8797.00,1.03
8796.00,1.03
8795.00,1.02
8794.00,1.02
8793.00,1.02
8792.00,1.01
8791.00,1.01
8790.00,1.00
8789.00,1.00
8788.00,1.00
8787.00,1.00
8786.00,0.99
8785.00,0.99
8784.00,0.99
8783.00,0.99
8782.00,0.99
8781.00,0.99
8780.00,0.99
8779.00,0.99
8778.00,0.99
8777.00,0.99
8776.00,0.99
8775.00,1.00
8774.00,1.00
8773.00,1.00
8772.00,1.00
8771.00,1.01
8770.00,1.01
8769.00,1.01
8768.00,1.02
8767.00,1.02
8766.00,1.03
8765.00,1.04
8764.00,1.04
8763.00,1.05
8762.00,1.05
8761.00,1.06
8760.00,1.06
8759.00,1.07
8758.00,1.07
8757.00,1.07
8756.00,1.08
8755.00,1.08
8754.00,1.09
8753.00,1.09
8752.00,1.09
8751.00,1.09
8750.00,1.10
8749.00,1.10
8748.00,1.10
8747.00,1.10
8746.00,1.10
8745.00,1.10
8744.00,1.10
8743.00,1.10
8742.00,1.10
8741.00,1.10
8740.00,1.10
8739.00,1.10
8738.00,1.09
8737.00,1.09
8736.00,1.09
8735.00,1.09
8734.00,1.09
8733.00,1.09
8732.00,1.09
8731.00,1.09
8730.00,1.09
8729.00,1.09
8728.00,1.09
8727.00,1.09
8726.00,1.09
8725.00,1.09
8724.00,1.09
8723.00,1.09
8722.00,1.09
8721.00,1.09
8720.00,1.09
8719.00,1.10
8718.00,1.10
8717.00,1.10
8716.00,1.10
8715.00,1.10
8714.00,1.10
8713.00,1.10
8712.00,1.10
8711.00,1.10
8710.00,1.10
8709.00,1.11
8708.00,1.11
8707.00,1.11
8706.00,1.11
8705.00,1.11
8704.00,1.11
8703.00,1.11
8702.00,1.11
8701.00,1.12
8700.00,1.12
8699.00,1.12
8698.00,1.12
8697.00,1.11
8696.00,1.11
8695.00,1.11
8694.00,1.11
8693.00,1.11
8692.00,1.11
8691.00,1.11
8690.00,1.11
8689.00,1.11
8688.00,1.11
8687.00,1.11
8686.00,1.11
8685.00,1.11
8684.00,1.11
8683.00,1.11
8682.00,1.11
8681.00,1.11
8680.00,1.11
8679.00,1.11
8678.00,1.11
8677.00,1.11
8676.00,1.11
8675.00,1.10
8674.00,1.10
8673.00,1.10
8672.00,1.10
8671.00,1.10
8670.00,1.10
8669.00,1.10
8668.00,1.10
8667.00,1.10
8666.00,1.10
8665.00,1.11
8664.00,1.11
8663.00,1.11
8662.00,1.11
8661.00,1.11
8660.00,1.11
8659.00,1.11
8658.00,1.11
8657.00,1.11
8656.00,1.11
8655.00,1.11
8654.00,1.11
8653.00,1.11
8652.00,1.11
8651.00,1.11
8650.00,1.11
8649.00,1.11
8648.00,1.11
8647.00,1.11
8646.00,1.11
8645.00,1.11
8644.00,1.11
8643.00,1.11
8642.00,1.11
8641.00,1.11
8640.00,1.11
8639.00,1.11
8638.00,1.11
8637.00,1.10
8636.00,1.10
8635.00,1.10
8634.00,1.10
8633.00,1.09
8632.00,1.09
8631.00,1.09
8630.00,1.08
8629.00,1.08
8628.00,1.07
8627.00,1.07
8626.00,1.06
8625.00,1.06
8624.00,1.05
8623.00,1.05
8622.00,1.05
8621.00,1.04
8620.00,1.04
8619.00,1.04
8618.00,1.04
8617.00,1.04
8616.00,1.04
8615.00,1.04
8614.00,1.04
8613.00,1.04
8612.00,1.04
8611.00,1.04
8610.00,1.04
8609.00,1.04
8608.00,1.04
8607.00,1.04
8606.00,1.04
8605.00,1.05
8604.00,1.05
8603.00,1.05
8602.00,1.05
8601.00,1.05
8600.00,1.06
8599.00,1.06
8598.00,1.06
8597.00,1.06
8596.00,1.06
8595.00,1.06
8594.00,1.06
8593.00,1.06
8592.00,1.06
8591.00,1.06
8590.00,1.05
8589.00,1.05
8588.00,1.05
8587.00,1.05
8586.00,1.05
8585.00,1.04
8584.00,1.04
8583.00,1.04
8582.00,1.04
8581.00,1.04
8580.00,1.05
8579.00,1.05
8578.00,1.05
8577.00,1.05
8576.00,1.06
8575.00,1.06
8574.00,1.06
8573.00,1.07
8572.00,1.07
8571.00,1.08
8570.00,1.08
8569.00,1.09
8568.00,1.09
8567.00,1.09
8566.00,1.10
8565.00,1.10
8564.00,1.11
8563.00,1.11
8562.00,1.12
8561.00,1.12
8560.00,1.13
8559.00,1.13
8558.00,1.13
8557.00,1.13
8556.00,1.14
8555.00,1.14
8554.00,1.14
8553.00,1.14
8552.00,1.14
8551.00,1.13
8550.00,1.13
8549.00,1.13
8548.00,1.12
8547.00,1.12
8546.00,1.11
8545.00,1.11
8544.00,1.10
8543.00,1.09
8542.00,1.09
8541.00,1.08
8540.00,1.07
8539.00,1.07
8538.00,1.06
8537.00,1.05
8536.00,1.05
8535.00,1.04
8534.00,1.04
8533.00,1.03
8532.00,1.02
8531.00,1.02
8530.00,1.01
8529.00,1.01
8528.00,1.01
8527.00,1.00
8526.00,1.00
8525.00,1.00
8524.00,1.00
8523.00,0.99
8522.00,0.99
8521.00,0.99
8520.00,0.99
8519.00,0.99
8518.00,0.99
8517.00,0.99
8516.00,0.99
8515.00,0.99
8514.00,0.99
8513.00,0.99
8512.00,0.99
8511.00,0.99
8510.00,0.99
8509.00,0.99
8508.00,0.99
8507.00,1.00
8506.00,1.00
8505.00,1.00
8504.00,1.00
8503.00,1.00
8502.00,1.00
8501.00,1.00
8500.00,1.00
8499.00,1.00
8498.00,1.00
8497.00,1.00
8496.00,1.00
8495.00,1.00
8494.00,1.00
8493.00,1.00
8492.00,1.00
8491.00,0.99
8490.00,0.99
8489.00,0.99
8488.00,0.99
8487.00,0.99
8486.00,0.99
8485.00,0.99
8484.00,0.99
8483.00,0.99
8482.00,0.98
8481.00,0.98
8480.00,0.98
8479.00,0.97
8478.00,0.97
8477.00,0.97
8476.00,0.96
8475.00,0.96
8474.00,0.96
8473.00,0.96
8472.00,0.95
8471.00,0.95
8470.00,0.95
8469.00,0.95
8468.00,0.95
8467.00,0.95
8466.00,0.95
8465.00,0.95
8464.00,0.95
8463.00,0.95
8462.00,0.95
8461.00,0.95
8460.00,0.95
8459.00,0.95
8458.00,0.96
8457.00,0.96
8456.00,0.96
8455.00,0.97
8454.00,0.97
8453.00,0.97
8452.00,0.98
8451.00,0.98
8450.00,0.99
8449.00,0.99
8448.00,1.00
8447.00,1.00
8446.00,1.01
8445.00,1.01
8444.00,1.02
8443.00,1.02
8442.00,1.03
8441.00,1.04
8440.00,1.04
8439.00,1.05
8438.00,1.05
8437.00,1.06
8436.00,1.07
8435.00,1.07
8434.00,1.08
8433.00,1.08
8432.00,1.09
8431.00,1.09
8430.00,1.10
8429.00,1.10
8428.00,1.10
8427.00,1.11
8426.00,1.11
8425.00,1.12
8424.00,1.12
8423.00,1.12
8422.00,1.13
8421.00,1.13
8420.00,1.13
8419.00,1.14
8418.00,1.14
8417.00,1.14
8416.00,1.14
8415.00,1.14
8414.00,1.14
8413.00,1.14
8412.00,1.14
8411.00,1.14
8410.00,1.14
8409.00,1.13
8408.00,1.13
8407.00,1.13
8406.00,1.13
8405.00,1.12
8404.00,1.12
8403.00,1.12
8402.00,1.11
8401.00,1.11
8400.00,1.10
8399.00,1.10
8398.00,1.09
8397.00,1.09
8396.00,1.08
8395.00,1.07
8394.00,1.07
8393.00,1.06
8392.00,1.05
8391.00,1.05
8390.00,1.04
8389.00,1.03
8388.00,1.03
8387.00,1.02
8386.00,1.02
8385.00,1.01
8384.00,1.01
8383.00,1.00
8382.00,1.00
8381.00,0.99
8380.00,0.99
8379.00,0.99
8378.00,0.98
8377.00,0.98
8376.00,0.98
8375.00,0.97
8374.00,0.97
8373.00,0.97
8372.00,0.97
8371.00,0.97
8370.00,0.97
8369.00,0.97
8368.00,0.97
8367.00,0.97
8366.00,0.97
8365.00,0.97
8364.00,0.97
8363.00,0.97
8362.00,0.97
8361.00,0.97
8360.00,0.97
8359.00,0.98
8358.00,0.98
8357.00,0.98
8356.00,0.98
8355.00,0.98
8354.00,0.98
8353.00,0.98
8352.00,0.99
8351.00,0.99
8350.00,0.99
8349.00,0.99
8348.00,0.99
8347.00,1.00
8346.00,1.00
8345.00,1.00
8344.00,1.00
8343.00,1.00
8342.00,1.00
8341.00,1.00
8340.00,1.00
8339.00,1.00
8338.00,1.00
8337.00,1.01
8336.00,1.01
8335.00,1.01
8334.00,1.01
8333.00,1.01
8332.00,1.02
8331.00,1.02
8330.00,1.02
8329.00,1.02
8328.00,1.02
8327.00,1.02
8326.00,1.02
8325.00,1.02
8324.00,1.02
8323.00,1.02
8322.00,1.02
8321.00,1.02
8320.00,1.02
8319.00,1.02
8318.00,1.02
8317.00,1.02
8316.00,1.02
8315.00,1.02
8314.00,1.02
8313.00,1.02
8312.00,1.02
8311.00,1.02
8310.00,1.02
8309.00,1.02
8308.00,1.02
8307.00,1.02
8306.00,1.02
8305.00,1.02
8304.00,1.02
8303.00,1.02
8302.00,1.03
8301.00,1.03
8300.00,1.03
8299.00,1.03
8298.00,1.04
8297.00,1.04
8296.00,1.04
8295.00,1.04
8294.00,1.05
8293.00,1.05
8292.00,1.05
8291.00,1.06
8290.00,1.06
8289.00,1.06
8288.00,1.07
8287.00,1.07
8286.00,1.07
8285.00,1.07
8284.00,1.07
8283.00,1.07
8282.00,1.07
8281.00,1.08
8280.00,1.08
8279.00,1.08
8278.00,1.07
8277.00,1.07
8276.00,1.07
8275.00,1.07
8274.00,1.07
8273.00,1.06
8272.00,1.06
8271.00,1.06
8270.00,1.06
8269.00,1.05
8268.00,1.05
8267.00,1.05
8266.00,1.04
8265.00,1.04
8264.00,1.04
8263.00,1.03
8262.00,1.03
8261.00,1.03
8260.00,1.03
8259.00,1.02
8258.00,1.02
8257.00,1.02
8256.00,1.02
8255.00,1.02
8254.00,1.02
8253.00,1.02
8252.00,1.02
8251.00,1.02
8250.00,1.03
8249.00,1.03
8248.00,1.03
8247.00,1.03
8246.00,1.03
8245.00,1.04
8244.00,1.04
8243.00,1.04
8242.00,1.05
8241.00,1.05
8240.00,1.05
8239.00,1.05
8238.00,1.06
8237.00,1.06
8236.00,1.06
8235.00,1.07
8234.00,1.07
8233.00,1.07
8232.00,1.07
8231.00,1.07
8230.00,1.07
8229.00,1.08
8228.00,1.08
8227.00,1.08
8226.00,1.08
8225.00,1.07
8224.00,1.07
8223.00,1.07
8222.00,1.07
8221.00,1.07
8220.00,1.07
8219.00,1.06
8218.00,1.06
8217.00,1.06
8216.00,1.06
8215.00,1.05
8214.00,1.05
8213.00,1.05
8212.00,1.04
8211.00,1.04
8210.00,1.04
8209.00,1.03
8208.00,1.03
8207.00,1.03
8206.00,1.03
8205.00,1.03
8204.00,1.02
8203.00,1.02
8202.00,1.02
8201.00,1.02
8200.00,1.02
8199.00,1.02
8198.00,1.02
8197.00,1.02
8196.00,1.02
8195.00,1.02
8194.00,1.03
8193.00,1.03
8192.00,1.03
8191.00,1.04
8190.00,1.04
8189.00,1.04
8188.00,1.05
8187.00,1.05
8186.00,1.06
8185.00,1.06
8184.00,1.07
8183.00,1.07
8182.00,1.08
8181.00,1.08
8180.00,1.08
8179.00,1.09
8178.00,1.09
8177.00,1.10
8176.00,1.10
8175.00,1.10
8174.00,1.11
8173.00,1.11
8172.00,1.12
8171.00,1.12
8170.00,1.12
8169.00,1.12
8168.00,1.12
8167.00,1.12
8166.00,1.12
8165.00,1.12
8164.00,1.12
8163.00,1.12
8162.00,1.12
8161.00,1.12
8160.00,1.12
8159.00,1.11
8158.00,1.11
8157.00,1.11
8156.00,1.11
8155.00,1.10
8154.00,1.10
8153.00,1.10
8152.00,1.10
8151.00,1.09
8150.00,1.09
8149.00,1.08
8148.00,1.08
8147.00,1.08
8146.00,1.07
8145.00,1.07
8144.00,1.07
8143.00,1.06
8142.00,1.06
8141.00,1.06
8140.00,1.06
8139.00,1.06
8138.00,1.06
8137.00,1.06
8136.00,1.06
8135.00,1.06
8134.00,1.06
8133.00,1.06
8132.00,1.06
8131.00,1.06
8130.00,1.06
8129.00,1.06
8128.00,1.06
8127.00,1.06
8126.00,1.06
8125.00,1.07
8124.00,1.07
8123.00,1.07
8122.00,1.07
8121.00,1.08
8120.00,1.08
8119.00,1.08
8118.00,1.08
8117.00,1.09
8116.00,1.09
8115.00,1.09
8114.00,1.09
8113.00,1.10
8112.00,1.10
8111.00,1.10
8110.00,1.10
8109.00,1.10
8108.00,1.10
8107.00,1.10
8106.00,1.10
8105.00,1.10
8104.00,1.10
8103.00,1.10
8102.00,1.10
8101.00,1.10
8100.00,1.10
8099.00,1.10
8098.00,1.10
8097.00,1.10
8096.00,1.10
8095.00,1.10
8094.00,1.10
8093.00,1.10
8092.00,1.10
8091.00,1.10
8090.00,1.10
8089.00,1.10
8088.00,1.10
8087.00,1.09
8086.00,1.09
8085.00,1.09
8084.00,1.09
8083.00,1.09
8082.00,1.09
8081.00,1.09
8080.00,1.09
8079.00,1.09
8078.00,1.08
8077.00,1.08
8076.00,1.08
8075.00,1.08
8074.00,1.08
8073.00,1.08
8072.00,1.07
8071.00,1.07
8070.00,1.07
8069.00,1.07
8068.00,1.06
8067.00,1.06
8066.00,1.06
8065.00,1.05
8064.00,1.05
8063.00,1.05
8062.00,1.05
8061.00,1.05
8060.00,1.04
8059.00,1.04
8058.00,1.04
8057.00,1.04
8056.00,1.04
8055.00,1.03
8054.00,1.03
8053.00,1.03
8052.00,1.03
8051.00,1.03
8050.00,1.02
8049.00,1.02
8048.00,1.02
8047.00,1.02
8046.00,1.02
8045.00,1.02
8044.00,1.02
8043.00,1.02
8042.00,1.02
8041.00,1.02
8040.00,1.02
8039.00,1.02
8038.00,1.02
8037.00,1.02
8036.00,1.02
8035.00,1.02
8034.00,1.02
8033.00,1.02
8032.00,1.02
8031.00,1.02
8030.00,1.02
8029.00,1.02
8028.00,1.02
8027.00,1.03
8026.00,1.03
8025.00,1.03
8024.00,1.04
8023.00,1.04
8022.00,1.04
8021.00,1.05
8020.00,1.05
8019.00,1.06
8018.00,1.06
8017.00,1.06
8016.00,1.07
8015.00,1.07
8014.00,1.07
8013.00,1.08
8012.00,1.08
8011.00,1.09
8010.00,1.09
8009.00,1.09
8008.00,1.10
8007.00,1.10
8006.00,1.10
8005.00,1.11
8004.00,1.11
8003.00,1.11
8002.00,1.11
8001.00,1.11
8000.00,1.12
7999.00,1.12
7998.00,1.12
7997.00,1.12
7996.00,1.12
7995.00,1.12
7994.00,1.11
7993.00,1.11
7992.00,1.11
7991.00,1.11
7990.00,1.11
7989.00,1.11
7988.00,1.11
7987.00,1.11
7986.00,1.10
7985.00,1.10
7984.00,1.10
7983.00,1.10
7982.00,1.10
7981.00,1.10
7980.00,1.09
7979.00,1.09
7978.00,1.09
7977.00,1.09
7976.00,1.10
7975.00,1.10
7974.00,1.10
7973.00,1.10
7972.00,1.10
7971.00,1.11
7970.00,1.11
7969.00,1.11
7968.00,1.12
7967.00,1.12
7966.00,1.12
7965.00,1.13
7964.00,1.13
7963.00,1.13
7962.00,1.14
7961.00,1.14
7960.00,1.15
7959.00,1.15
7958.00,1.15
7957.00,1.16
7956.00,1.16
7955.00,1.16
7954.00,1.17
7953.00,1.17
7952.00,1.17
7951.00,1.17
7950.00,1.17
7949.00,1.17
7948.00,1.17
7947.00,1.16
7946.00,1.16
7945.00,1.16
7944.00,1.16
7943.00,1.15
7942.00,1.15
7941.00,1.15
7940.00,1.14
7939.00,1.14
7938.00,1.14
7937.00,1.13
7936.00,1.13
7935.00,1.13
7934.00,1.12
7933.00,1.12
7932.00,1.12
7931.00,1.11
7930.00,1.11
7929.00,1.11
7928.00,1.11
7927.00,1.11
7926.00,1.11
7925.00,1.11
7924.00,1.11
7923.00,1.11
7922.00,1.12
7921.00,1.12
7920.00,1.12
7919.00,1.12
7918.00,1.13
7917.00,1.13
7916.00,1.13
7915.00,1.14
7914.00,1.14
7913.00,1.14
7912.00,1.14
7911.00,1.14
7910.00,1.14
7909.00,1.15
7908.00,1.15
7907.00,1.15
7906.00,1.15
7905.00,1.15
7904.00,1.15
7903.00,1.15
7902.00,1.15
7901.00,1.15
7900.00,1.15
7899.00,1.14
7898.00,1.14
7897.00,1.14
7896.00,1.13
7895.00,1.13
7894.00,1.13
7893.00,1.12
7892.00,1.12
7891.00,1.12
7890.00,1.12
7889.00,1.12
7888.00,1.12
7887.00,1.11
7886.00,1.11
7885.00,1.11
7884.00,1.11
7883.00,1.11
7882.00,1.11
7881.00,1.11
7880.00,1.11
7879.00,1.11
7878.00,1.11
7877.00,1.11
7876.00,1.11
7875.00,1.11
7874.00,1.12
7873.00,1.12
7872.00,1.12
7871.00,1.12
7870.00,1.12
7869.00,1.13
7868.00,1.13
7867.00,1.13
7866.00,1.13
7865.00,1.13
7864.00,1.14
7863.00,1.14
7862.00,1.14
7861.00,1.14
7860.00,1.14
7859.00,1.14
7858.00,1.14
7857.00,1.14
7856.00,1.14
7855.00,1.13
7854.00,1.13
7853.00,1.14
7852.00,1.14
7851.00,1.14
7850.00,1.14
7849.00,1.14
7848.00,1.14
7847.00,1.14
7846.00,1.14
7845.00,1.14
7844.00,1.14
7843.00,1.14
7842.00,1.14
7841.00,1.14
7840.00,1.14
7839.00,1.14
7838.00,1.14
7837.00,1.13
7836.00,1.13
7835.00,1.13
7834.00,1.13
7833.00,1.13
7832.00,1.13
7831.00,1.13
7830.00,1.13
7829.00,1.13
7828.00,1.13
7827.00,1.13
7826.00,1.13
7825.00,1.13
7824.00,1.13
7823.00,1.13
7822.00,1.13
7821.00,1.12
7820.00,1.12
7819.00,1.12
7818.00,1.12
7817.00,1.11
7816.00,1.11
7815.00,1.11
7814.00,1.11
7813.00,1.11
7812.00,1.11
7811.00,1.11
7810.00,1.11
7809.00,1.11
7808.00,1.11
7807.00,1.11
7806.00,1.10
7805.00,1.10
7804.00,1.10
7803.00,1.10
7802.00,1.10
7801.00,1.09
7800.00,1.09
7799.00,1.09
7798.00,1.09
7797.00,1.09
7796.00,1.09
7795.00,1.09
7794.00,1.09
7793.00,1.09
7792.00,1.09
7791.00,1.09
7790.00,1.09
7789.00,1.09
7788.00,1.09
7787.00,1.09
7786.00,1.09
7785.00,1.09
7784.00,1.09
7783.00,1.09
7782.00,1.09
7781.00,1.09
7780.00,1.09
7779.00,1.09
7778.00,1.09
7777.00,1.09
7776.00,1.10
7775.00,1.10
7774.00,1.10
7773.00,1.10
7772.00,1.11
7771.00,1.11
7770.00,1.11
7769.00,1.11
7768.00,1.12
7767.00,1.12
7766.00,1.12
7765.00,1.13
7764.00,1.13
7763.00,1.13
7762.00,1.14
7761.00,1.14
7760.00,1.14
7759.00,1.15
7758.00,1.15
7757.00,1.15
7756.00,1.16
7755.00,1.16
7754.00,1.16
7753.00,1.17
7752.00,1.17
7751.00,1.17
7750.00,1.18
7749.00,1.18
7748.00,1.18
7747.00,1.19
7746.00,1.19
7745.00,1.19
7744.00,1.19
7743.00,1.19
7742.00,1.19
7741.00,1.19
7740.00,1.19
7739.00,1.19
7738.00,1.19
7737.00,1.19
7736.00,1.19
7735.00,1.19
7734.00,1.19
7733.00,1.19
7732.00,1.18
7731.00,1.18
7730.00,1.18
7729.00,1.18
7728.00,1.18
7727.00,1.17
7726.00,1.17
7725.00,1.17
7724.00,1.16
7723.00,1.16
7722.00,1.16
7721.00,1.16
7720.00,1.15
7719.00,1.15
7718.00,1.15
7717.00,1.15
7716.00,1.15
7715.00,1.15
7714.00,1.15
7713.00,1.15
7712.00,1.15
7711.00,1.16
7710.00,1.16
7709.00,1.16
7708.00,1.16
7707.00,1.16
7706.00,1.16
7705.00,1.17
7704.00,1.17
7703.00,1.17
7702.00,1.17
7701.00,1.18
7700.00,1.18
7699.00,1.18
7698.00,1.19
7697.00,1.19
7696.00,1.19
7695.00,1.20
7694.00,1.20
7693.00,1.20
7692.00,1.20
7691.00,1.20
7690.00,1.20
7689.00,1.20
7688.00,1.20
7687.00,1.20
7686.00,1.20
7685.00,1.19
7684.00,1.19
7683.00,1.19
7682.00,1.19
7681.00,1.19
7680.00,1.18
7679.00,1.18
7678.00,1.18
7677.00,1.17
7676.00,1.17
7675.00,1.17
7674.00,1.16
7673.00,1.16
7672.00,1.15
7671.00,1.15
7670.00,1.14
7669.00,1.14
7668.00,1.13
7667.00,1.13
7666.00,1.13
7665.00,1.12
7664.00,1.12
7663.00,1.12
7662.00,1.12
7661.00,1.11
7660.00,1.11
7659.00,1.11
7658.00,1.11
7657.00,1.11
7656.00,1.11
7655.00,1.11
7654.00,1.10
7653.00,1.10
7652.00,1.10
7651.00,1.10
7650.00,1.10
7649.00,1.10
7648.00,1.10
7647.00,1.09
7646.00,1.09
7645.00,1.09
7644.00,1.10
7643.00,1.10
7642.00,1.10
7641.00,1.10
7640.00,1.10
7639.00,1.11
7638.00,1.11
7637.00,1.11
7636.00,1.11
7635.00,1.12
7634.00,1.12
7633.00,1.12
7632.00,1.12
7631.00,1.13
7630.00,1.13
7629.00,1.13
7628.00,1.14
7627.00,1.14
7626.00,1.15
7625.00,1.15
7624.00,1.16
7623.00,1.16
7622.00,1.17
7621.00,1.17
7620.00,1.18
7619.00,1.18
7618.00,1.18
7617.00,1.19
7616.00,1.19
7615.00,1.19
7614.00,1.20
7613.00,1.20
7612.00,1.20
7611.00,1.20
7610.00,1.20
7609.00,1.20
7608.00,1.20
7607.00,1.21
7606.00,1.21
7605.00,1.21
7604.00,1.21
7603.00,1.21
7602.00,1.21
7601.00,1.21
7600.00,1.21
7599.00,1.21
7598.00,1.21
7597.00,1.20
7596.00,1.20
7595.00,1.20
7594.00,1.20
7593.00,1.20
7592.00,1.20
7591.00,1.20
7590.00,1.20
7589.00,1.19
7588.00,1.19
7587.00,1.19
7586.00,1.19
7585.00,1.19
7584.00,1.18
7583.00,1.18
7582.00,1.18
7581.00,1.18
7580.00,1.18
7579.00,1.18
7578.00,1.18
7577.00,1.18
7576.00,1.18
7575.00,1.19
7574.00,1.19
7573.00,1.19
7572.00,1.19
7571.00,1.19
7570.00,1.19
7569.00,1.19
7568.00,1.19
7567.00,1.19
7566.00,1.19
7565.00,1.19
7564.00,1.20
7563.00,1.20
7562.00,1.20
7561.00,1.20
7560.00,1.21
7559.00,1.21
7558.00,1.21
7557.00,1.21
7556.00,1.21
7555.00,1.22
7554.00,1.22
7553.00,1.22
7552.00,1.22
7551.00,1.22
7550.00,1.22
7549.00,1.22
7548.00,1.22
7547.00,1.21
7546.00,1.21
7545.00,1.21
7544.00,1.21
7543.00,1.21
7542.00,1.21
7541.00,1.21
7540.00,1.21
7539.00,1.21
7538.00,1.21
7537.00,1.21
7536.00,1.21
7535.00,1.21
7534.00,1.20
7533.00,1.20
7532.00,1.20
7531.00,1.20
7530.00,1.20
7529.00,1.20
7528.00,1.20
7527.00,1.20
7526.00,1.20
7525.00,1.20
7524.00,1.19
7523.00,1.19
7522.00,1.19
7521.00,1.19
7520.00,1.19
7519.00,1.19
7518.00,1.19
7517.00,1.18
7516.00,1.18
7515.00,1.18
7514.00,1.18
7513.00,1.18
7512.00,1.18
7511.00,1.18
7510.00,1.18
7509.00,1.18
7508.00,1.17
7507.00,1.17
7506.00,1.17
7505.00,1.17
7504.00,1.17
7503.00,1.17
7502.00,1.17
7501.00,1.16
7500.00,1.16
7499.00,1.16
7498.00,1.16
7497.00,1.16
7496.00,1.15
7495.00,1.15
7494.00,1.15
7493.00,1.15
7492.00,1.15
7491.00,1.15
7490.00,1.15
7489.00,1.15
7488.00,1.14
7487.00,1.14
7486.00,1.14
7485.00,1.14
7484.00,1.14
7483.00,1.13
7482.00,1.13
7481.00,1.13
7480.00,1.13
7479.00,1.12
7478.00,1.12
7477.00,1.12
7476.00,1.12
7475.00,1.12
7474.00,1.11
7473.00,1.11
7472.00,1.11
7471.00,1.11
7470.00,1.11
7469.00,1.11
7468.00,1.11
7467.00,1.11
7466.00,1.10
7465.00,1.10
7464.00,1.10
7463.00,1.10
7462.00,1.10
7461.00,1.10
7460.00,1.10
7459.00,1.10
7458.00,1.09
7457.00,1.09
7456.00,1.09
7455.00,1.09
7454.00,1.09
7453.00,1.09
7452.00,1.10
7451.00,1.10
7450.00,1.10
7449.00,1.10
7448.00,1.10
7447.00,1.10
7446.00,1.10
7445.00,1.10
7444.00,1.10
7443.00,1.10
7442.00,1.10
7441.00,1.10
7440.00,1.11
7439.00,1.11
7438.00,1.11
7437.00,1.11
7436.00,1.11
7435.00,1.11
7434.00,1.11
7433.00,1.12
7432.00,1.12
7431.00,1.12
7430.00,1.12
7429.00,1.12
7428.00,1.12
7427.00,1.12
7426.00,1.12
7425.00,1.12
7424.00,1.12
7423.00,1.12
7422.00,1.12
7421.00,1.12
7420.00,1.12
7419.00,1.12
7418.00,1.12
7417.00,1.12
7416.00,1.12
7415.00,1.12
7414.00,1.12
7413.00,1.12
7412.00,1.12
7411.00,1.12
7410.00,1.12
7409.00,1.12
7408.00,1.12
7407.00,1.12
7406.00,1.12
7405.00,1.12
7404.00,1.12
7403.00,1.12
7402.00,1.12
7401.00,1.12
7400.00,1.12
7399.00,1.12
7398.00,1.12
7397.00,1.12
7396.00,1.12
7395.00,1.12
7394.00,1.12
7393.00,1.12
7392.00,1.13
7391.00,1.13
7390.00,1.13
7389.00,1.13
7388.00,1.13
7387.00,1.13
7386.00,1.13
7385.00,1.13
7384.00,1.13
7383.00,1.13
7382.00,1.13
7381.00,1.13
7380.00,1.13
7379.00,1.13
7378.00,1.13
7377.00,1.12
7376.00,1.12
7375.00,1.12
7374.00,1.11
7373.00,1.11
7372.00,1.11
7371.00,1.11
7370.00,1.11
7369.00,1.10
7368.00,1.10
7367.00,1.10
7366.00,1.10
7365.00,1.10
7364.00,1.10
7363.00,1.10
7362.00,1.09
7361.00,1.09
7360.00,1.09
7359.00,1.09
7358.00,1.10
7357.00,1.10
7356.00,1.10
7355.00,1.10
7354.00,1.10
7353.00,1.10
7352.00,1.11
7351.00,1.11
7350.00,1.11
7349.00,1.12
7348.00,1.12
7347.00,1.13
7346.00,1.13
7345.00,1.13
7344.00,1.14
7343.00,1.14
7342.00,1.14
7341.00,1.15
7340.00,1.15
7339.00,1.15
7338.00,1.15
7337.00,1.15
7336.00,1.15
7335.00,1.16
7334.00,1.16
7333.00,1.16
7332.00,1.16
7331.00,1.16
7330.00,1.16
7329.00,1.16
7328.00,1.16
7327.00,1.16
7326.00,1.15
7325.00,1.15
7324.00,1.15
7323.00,1.15
7322.00,1.14
7321.00,1.14
7320.00,1.14
7319.00,1.13
7318.00,1.13
7317.00,1.12
7316.00,1.12
7315.00,1.12
7314.00,1.11
7313.00,1.11
7312.00,1.11
7311.00,1.11
7310.00,1.10
7309.00,1.10
7308.00,1.10
7307.00,1.10
7306.00,1.10
7305.00,1.09
7304.00,1.09
7303.00,1.09
7302.00,1.09
7301.00,1.09
7300.00,1.09
7299.00,1.09
7298.00,1.09
7297.00,1.09
7296.00,1.09
7295.00,1.10
7294.00,1.10
7293.00,1.10
7292.00,1.10
7291.00,1.10
7290.00,1.11
7289.00,1.11
7288.00,1.11
7287.00,1.11
7286.00,1.11
7285.00,1.11
7284.00,1.12
7283.00,1.12
7282.00,1.12
7281.00,1.12
7280.00,1.12
7279.00,1.11
7278.00,1.11
7277.00,1.11
7276.00,1.11
7275.00,1.11
7274.00,1.11
7273.00,1.11
7272.00,1.10
7271.00,1.10
7270.00,1.10
7269.00,1.10
7268.00,1.09
7267.00,1.09
7266.00,1.09
7265.00,1.09
7264.00,1.08
7263.00,1.08
7262.00,1.07
7261.00,1.07
7260.00,1.07
7259.00,1.07
7258.00,1.06
7257.00,1.06
7256.00,1.06
7255.00,1.06
7254.00,1.05
7253.00,1.05
7252.00,1.05
7251.00,1.05
7250.00,1.05
7249.00,1.05
7248.00,1.05
7247.00,1.05
7246.00,1.05
7245.00,1.05
7244.00,1.04
7243.00,1.04
7242.00,1.04
7241.00,1.04
7240.00,1.04
7239.00,1.04
7238.00,1.04
7237.00,1.04
7236.00,1.04
7235.00,1.03
7234.00,1.03
7233.00,1.03
7232.00,1.03
7231.00,1.03
7230.00,1.03
7229.00,1.03
7228.00,1.03
7227.00,1.02
7226.00,1.02
7225.00,1.02
7224.00,1.02
7223.00,1.01
7222.00,1.01
7221.00,1.01
7220.00,1.00
7219.00,1.00
7218.00,1.00
7217.00,0.99
7216.00,0.99
7215.00,0.99
7214.00,0.99
7213.00,0.98
7212.00,0.98
7211.00,0.98
7210.00,0.97
7209.00,0.97
7208.00,0.96
7207.00,0.96
7206.00,0.96
7205.00,0.95
7204.00,0.95
7203.00,0.95
7202.00,0.94
7201.00,0.94
7200.00,0.94
7199.00,0.93
7198.00,0.93
7197.00,0.93
7196.00,0.93
7195.00,0.93
7194.00,0.92
7193.00,0.92
7192.00,0.92
7191.00,0.92
7190.00,0.92
7189.00,0.92
7188.00,0.92
7187.00,0.92
7186.00,0.91
7185.00,0.91
7184.00,0.91
7183.00,0.91
7182.00,0.91
7181.00,0.91
7180.00,0.91
7179.00,0.91
7178.00,0.91
7177.00,0.91
7176.00,0.91
7175.00,0.91
7174.00,0.91
7173.00,0.91
7172.00,0.91
7171.00,0.90
7170.00,0.90
7169.00,0.90
7168.00,0.90
7167.00,0.90
7166.00,0.90
7165.00,0.90
7164.00,0.90
7163.00,0.90
7162.00,0.90
7161.00,0.90
7160.00,0.90
7159.00,0.90
7158.00,0.90
7157.00,0.90
7156.00,0.90
7155.00,0.90
7154.00,0.90
7153.00,0.90
7152.00,0.90
7151.00,0.90
7150.00,0.90
7149.00,0.90
7148.00,0.90
7147.00,0.90
7146.00,0.90
7145.00,0.90
7144.00,0.90
7143.00,0.90
7142.00,0.90
7141.00,0.90
7140.00,0.90
7139.00,0.90
7138.00,0.90
7137.00,0.90
7136.00,0.90
7135.00,0.90
7134.00,0.90
7133.00,0.90
7132.00,0.90
7131.00,0.89
7130.00,0.89
7129.00,0.89
7128.00,0.89
7127.00,0.88
7126.00,0.88
7125.00,0.87
7124.00,0.87
7123.00,0.87
7122.00,0.86
7121.00,0.85
7120.00,0.85
7119.00,0.84
7118.00,0.84
7117.00,0.83
7116.00,0.83
7115.00,0.82
7114.00,0.82
7113.00,0.81
7112.00,0.81
7111.00,0.81
7110.00,0.80
7109.00,0.80
7108.00,0.80
7107.00,0.79
7106.00,0.79
7105.00,0.79
7104.00,0.79
7103.00,0.79
7102.00,0.79
7101.00,0.79
7100.00,0.79
7099.00,0.79
7098.00,0.79
7097.00,0.79
7096.00,0.79
7095.00,0.79
7094.00,0.79
7093.00,0.79
7092.00,0.80
7091.00,0.80
7090.00,0.80
7089.00,0.80
7088.00,0.80
7087.00,0.80
7086.00,0.80
7085.00,0.81
7084.00,0.80
7083.00,0.80
7082.00,0.80
7081.00,0.80
7080.00,0.80
7079.00,0.80
7078.00,0.80
7077.00,0.80
7076.00,0.79
7075.00,0.79
7074.00,0.79
7073.00,0.79
7072.00,0.78
7071.00,0.78
7070.00,0.78
7069.00,0.77
7068.00,0.77
7067.00,0.77
7066.00,0.77
7065.00,0.76
7064.00,0.76
7063.00,0.76
7062.00,0.75
7061.00,0.75
7060.00,0.75
7059.00,0.74
7058.00,0.74
7057.00,0.74
7056.00,0.74
7055.00,0.74
7054.00,0.74
7053.00,0.74
7052.00,0.74
7051.00,0.74
7050.00,0.74
7049.00,0.74
7048.00,0.74
7047.00,0.74
7046.00,0.74
7045.00,0.74
7044.00,0.74
7043.00,0.74
7042.00,0.74
7041.00,0.73
7040.00,0.73
7039.00,0.73
7038.00,0.73
7037.00,0.73
7036.00,0.73
7035.00,0.73
7034.00,0.72
7033.00,0.72
7032.00,0.72
7031.00,0.72
7030.00,0.71
7029.00,0.71
7028.00,0.71
7027.00,0.70
7026.00,0.70
7025.00,0.69
7024.00,0.69
7023.00,0.69
7022.00,0.68
7021.00,0.68
7020.00,0.68
7019.00,0.67
7018.00,0.67
7017.00,0.67
7016.00,0.66
7015.00,0.66
7014.00,0.66
7013.00,0.66
7012.00,0.66
7011.00,0.66
7010.00,0.66
7009.00,0.66
7008.00,0.66
7007.00,0.66
7006.00,0.66
7005.00,0.66
7004.00,0.67
7003.00,0.67
7002.00,0.67
7001.00,0.68
7000.00,0.68
6999.00,0.68
6998.00,0.69
6997.00,0.69
6996.00,0.69
6995.00,0.70
6994.00,0.70
6993.00,0.70
6992.00,0.70
6991.00,0.70
6990.00,0.70
6989.00,0.71
6988.00,0.71
6987.00,0.71
6986.00,0.71
6985.00,0.71
6984.00,0.72
6983.00,0.72
6982.00,0.72
6981.00,0.72
6980.00,0.72
6979.00,0.72
6978.00,0.72
6977.00,0.72
6976.00,0.72
6975.00,0.72
6974.00,0.72
6973.00,0.72
6972.00,0.72
6971.00,0.72
6970.00,0.72
6969.00,0.72
6968.00,0.72
6967.00,0.72
6966.00,0.72
6965.00,0.72
6964.00,0.72
6963.00,0.72
6962.00,0.72
6961.00,0.72
6960.00,0.72
6959.00,0.72
6958.00,0.71
6957.00,0.71
6956.00,0.71
6955.00,0.71
6954.00,0.70
6953.00,0.70
6952.00,0.70
6951.00,0.70
6950.00,0.69
6949.00,0.69
6948.00,0.69
6947.00,0.69
6946.00,0.68
6945.00,0.68
6944.00,0.68
6943.00,0.68
6942.00,0.68
6941.00,0.67
6940.00,0.67
6939.00,0.67
6938.00,0.67
6937.00,0.67
6936.00,0.67
6935.00,0.67
6934.00,0.67
6933.00,0.67
6932.00,0.67
6931.00,0.67
6930.00,0.67
6929.00,0.68
6928.00,0.68
6927.00,0.68
6926.00,0.68
6925.00,0.68
6924.00,0.68
6923.00,0.69
6922.00,0.69
6921.00,0.69
6920.00,0.69
6919.00,0.69
6918.00,0.69
6917.00,0.69
6916.00,0.69
6915.00,0.69
6914.00,0.69
6913.00,0.70
6912.00,0.70
6911.00,0.70
6910.00,0.70
6909.00,0.70
6908.00,0.70
6907.00,0.70
6906.00,0.70
6905.00,0.69
6904.00,0.69
6903.00,0.69
6902.00,0.69
6901.00,0.69
6900.00,0.69
6899.00,0.69
6898.00,0.69
6897.00,0.69
6896.00,0.69
6895.00,0.69
6894.00,0.69
6893.00,0.69
6892.00,0.69
6891.00,0.69
6890.00,0.69
6889.00,0.69
6888.00,0.69
6887.00,0.69
6886.00,0.69
6885.00,0.69
6884.00,0.69
6883.00,0.69
6882.00,0.69
6881.00,0.69
6880.00,0.69
6879.00,0.69
6878.00,0.69
6877.00,0.69
6876.00,0.69
6875.00,0.69
6874.00,0.69
6873.00,0.69
6872.00,0.70
6871.00,0.70
6870.00,0.70
6869.00,0.70
6868.00,0.70
6867.00,0.70
6866.00,0.70
6865.00,0.70
6864.00,0.70
6863.00,0.69
6862.00,0.69
6861.00,0.69
6860.00,0.69
6859.00,0.69
6858.00,0.69
6857.00,0.69
6856.00,0.69
6855.00,0.69
6854.00,0.69
6853.00,0.69
6852.00,0.69
6851.00,0.69
6850.00,0.69
6849.00,0.69
6848.00,0.69
6847.00,0.69
6846.00,0.69
6845.00,0.68
6844.00,0.68
6843.00,0.68
6842.00,0.68
6841.00,0.68
6840.00,0.68
6839.00,0.68
6838.00,0.68
6837.00,0.68
6836.00,0.68
6835.00,0.68
6834.00,0.68
6833.00,0.68
6832.00,0.68
6831.00,0.68
6830.00,0.68
6829.00,0.68
6828.00,0.68
6827.00,0.68
6826.00,0.69
6825.00,0.69
6824.00,0.69
6823.00,0.69
6822.00,0.69
6821.00,0.69
6820.00,0.70
6819.00,0.70
6818.00,0.70
6817.00,0.70
6816.00,0.70
6815.00,0.70
6814.00,0.71
6813.00,0.71
6812.00,0.71
6811.00,0.71
6810.00,0.71
6809.00,0.71
6808.00,0.71
6807.00,0.71
6806.00,0.71
6805.00,0.71
6804.00,0.71
6803.00,0.71
6802.00,0.71
6801.00,0.71
6800.00,0.70
6799.00,0.70
6798.00,0.70
6797.00,0.70
6796.00,0.69
6795.00,0.69
6794.00,0.69
6793.00,0.69
6792.00,0.68
6791.00,0.68
6790.00,0.68
6789.00,0.68
6788.00,0.68
6787.00,0.67
6786.00,0.67
6785.00,0.67
6784.00,0.67
6783.00,0.67
6782.00,0.67
6781.00,0.67
6780.00,0.67
6779.00,0.67
6778.00,0.67
6777.00,0.67
6776.00,0.67
6775.00,0.67
6774.00,0.67
6773.00,0.67
6772.00,0.67
6771.00,0.67
6770.00,0.68
6769.00,0.68
6768.00,0.68
6767.00,0.68
6766.00,0.69
6765.00,0.69
6764.00,0.69
6763.00,0.69
6762.00,0.70
6761.00,0.70
6760.00,0.70
6759.00,0.70
6758.00,0.70
6757.00,0.71
6756.00,0.71
6755.00,0.71
6754.00,0.71
6753.00,0.71
6752.00,0.71
6751.00,0.71
6750.00,0.71
6749.00,0.71
6748.00,0.72
6747.00,0.72
6746.00,0.71
6745.00,0.71
6744.00,0.71
6743.00,0.71
6742.00,0.71
6741.00,0.71
6740.00,0.71
6739.00,0.71
6738.00,0.71
6737.00,0.71
6736.00,0.71
6735.00,0.71
6734.00,0.71
6733.00,0.71
6732.00,0.70
6731.00,0.70
6730.00,0.70
6729.00,0.70
6728.00,0.70
6727.00,0.70
6726.00,0.70
6725.00,0.70
6724.00,0.70
6723.00,0.70
6722.00,0.70
6721.00,0.70
6720.00,0.70
6719.00,0.70
6718.00,0.70
6717.00,0.70
6716.00,0.70
6715.00,0.70
6714.00,0.71
6713.00,0.71
6712.00,0.71
6711.00,0.71
6710.00,0.71
6709.00,0.72
6708.00,0.72
6707.00,0.72
6706.00,0.72
6705.00,0.73
6704.00,0.73
6703.00,0.73
6702.00,0.73
6701.00,0.74
6700.00,0.74
6699.00,0.75
6698.00,0.75
6697.00,0.75
6696.00,0.76
6695.00,0.76
6694.00,0.76
6693.00,0.77
6692.00,0.77
6691.00,0.77
6690.00,0.78
6689.00,0.78
6688.00,0.78
6687.00,0.78
6686.00,0.79
6685.00,0.79
6684.00,0.79
6683.00,0.79
6682.00,0.79
6681.00,0.79
6680.00,0.79
6679.00,0.79
6678.00,0.79
6677.00,0.79
6676.00,0.79
6675.00,0.79
6674.00,0.79
6673.00,0.79
6672.00,0.79
6671.00,0.79
6670.00,0.79
6669.00,0.79
6668.00,0.79
6667.00,0.79
6666.00,0.79
6665.00,0.78
6664.00,0.78
6663.00,0.78
6662.00,0.79
6661.00,0.79
6660.00,0.79
6659.00,0.79
6658.00,0.79
6657.00,0.79
6656.00,0.79
6655.00,0.79
6654.00,0.79
6653.00,0.79
6652.00,0.79
6651.00,0.79
6650.00,0.79
6649.00,0.80
6648.00,0.80
6647.00,0.80
6646.00,0.80
6645.00,0.80
6644.00,0.80
6643.00,0.80
6642.00,0.80
6641.00,0.80
6640.00,0.80
6639.00,0.80
6638.00,0.80
6637.00,0.80
6636.00,0.80
6635.00,0.80
6634.00,0.80
6633.00,0.80
6632.00,0.80
6631.00,0.79
6630.00,0.79
6629.00,0.79
6628.00,0.79
6627.00,0.79
6626.00,0.79
6625.00,0.79
6624.00,0.79
6623.00,0.79
6622.00,0.79
6621.00,0.79
6620.00,0.79
6619.00,0.79
6618.00,0.79
6617.00,0.79
6616.00,0.80
6615.00,0.80
6614.00,0.80
6613.00,0.80
6612.00,0.80
6611.00,0.80
6610.00,0.80
6609.00,0.81
6608.00,0.81
6607.00,0.81
6606.00,0.81
6605.00,0.81
6604.00,0.81
6603.00,0.81
6602.00,0.82
6601.00,0.82
6600.00,0.82
6599.00,0.82
6598.00,0.82
6597.00,0.82
6596.00,0.82
6595.00,0.83
6594.00,0.83
6593.00,0.83
6592.00,0.83
6591.00,0.83
6590.00,0.83
6589.00,0.82
6588.00,0.82
6587.00,0.82
6586.00,0.82
6585.00,0.82
6584.00,0.82
6583.00,0.82
6582.00,0.82
6581.00,0.82
6580.00,0.82
6579.00,0.82
6578.00,0.82
6577.00,0.82
6576.00,0.82
6575.00,0.82
6574.00,0.82
6573.00,0.82
6572.00,0.82
6571.00,0.82
6570.00,0.82
6569.00,0.82
6568.00,0.82
6567.00,0.82
6566.00,0.82
6565.00,0.82
6564.00,0.82
6563.00,0.82
6562.00,0.82
6561.00,0.83
6560.00,0.83
6559.00,0.83
6558.00,0.83
6557.00,0.83
6556.00,0.83
6555.00,0.83
6554.00,0.84
6553.00,0.84
6552.00,0.84
6551.00,0.84
6550.00,0.84
6549.00,0.84
6548.00,0.84
6547.00,0.84
6546.00,0.85
6545.00,0.85
6544.00,0.85
6543.00,0.85
6542.00,0.85
6541.00,0.85
6540.00,0.85
6539.00,0.85
6538.00,0.85
6537.00,0.85
6536.00,0.85
6535.00,0.85
6534.00,0.85
6533.00,0.85
6532.00,0.85
6531.00,0.85
6530.00,0.85
6529.00,0.85
6528.00,0.85
6527.00,0.85
6526.00,0.85
6525.00,0.85
6524.00,0.85
6523.00,0.85
6522.00,0.85
6521.00,0.86
6520.00,0.86
6519.00,0.86
6518.00,0.86
6517.00,0.86
6516.00,0.86
6515.00,0.87
6514.00,0.87
6513.00,0.87
6512.00,0.87
6511.00,0.87
6510.00,0.88
6509.00,0.88
6508.00,0.88
6507.00,0.88
6506.00,0.89
6505.00,0.89
6504.00,0.89
6503.00,0.90
6502.00,0.90
6501.00,0.90
6500.00,0.90
6499.00,0.90
6498.00,0.91
6497.00,0.91
6496.00,0.91
6495.00,0.91
6494.00,0.91
6493.00,0.91
6492.00,0.91
6491.00,0.91
6490.00,0.91
6489.00,0.91
6488.00,0.91
6487.00,0.91
6486.00,0.91
6485.00,0.91
6484.00,0.91
6483.00,0.91
6482.00,0.91
6481.00,0.91
6480.00,0.91
6479.00,0.91
6478.00,0.91
6477.00,0.91
6476.00,0.91
6475.00,0.90
6474.00,0.90
6473.00,0.90
6472.00,0.90
6471.00,0.90
6470.00,0.90
6469.00,0.90
6468.00,0.90
6467.00,0.90
6466.00,0.90
6465.00,0.90
6464.00,0.90
6463.00,0.90
6462.00,0.90
6461.00,0.90
6460.00,0.90
6459.00,0.90
6458.00,0.90
6457.00,0.90
6456.00,0.90
6455.00,0.91
6454.00,0.91
6453.00,0.91
6452.00,0.91
6451.00,0.91
6450.00,0.91
6449.00,0.91
6448.00,0.91
6447.00,0.92
6446.00,0.92
6445.00,0.92
6444.00,0.92
6443.00,0.92
6442.00,0.92
6441.00,0.92
6440.00,0.92
6439.00,0.92
6438.00,0.92
6437.00,0.92
6436.00,0.92
6435.00,0.92
6434.00,0.92
6433.00,0.92
6432.00,0.92
6431.00,0.92
6430.00,0.92
6429.00,0.92
6428.00,0.93
6427.00,0.93
6426.00,0.93
6425.00,0.93
6424.00,0.93
6423.00,0.93
6422.00,0.93
6421.00,0.93
6420.00,0.93
6419.00,0.94
6418.00,0.94
6417.00,0.94
6416.00,0.94
6415.00,0.94
6414.00,0.94
6413.00,0.95
6412.00,0.95
6411.00,0.95
6410.00,0.95
6409.00,0.96
6408.00,0.96
6407.00,0.96
6406.00,0.96
6405.00,0.96
6404.00,0.96
6403.00,0.96
6402.00,0.96
6401.00,0.96
6400.00,0.96
6399.00,0.96
6398.00,0.96
6397.00,0.96
6396.00,0.96
6395.00,0.96
6394.00,0.96
6393.00,0.96
6392.00,0.96
6391.00,0.96
6390.00,0.96
6389.00,0.96
6388.00,0.96
6387.00,0.96
6386.00,0.96
6385.00,0.96
6384.00,0.95
6383.00,0.95
6382.00,0.95
6381.00,0.95
6380.00,0.95
6379.00,0.95
6378.00,0.95
6377.00,0.95
6376.00,0.95
6375.00,0.95
6374.00,0.95
6373.00,0.95
6372.00,0.95
6371.00,0.95
6370.00,0.95
6369.00,0.96
6368.00,0.96
6367.00,0.96
6366.00,0.96
6365.00,0.96
6364.00,0.96
6363.00,0.96
6362.00,0.96
6361.00,0.96
6360.00,0.96
6359.00,0.96
6358.00,0.97
6357.00,0.97
6356.00,0.97
6355.00,0.97
6354.00,0.97
6353.00,0.97
6352.00,0.98
6351.00,0.98
6350.00,0.98
6349.00,0.98
6348.00,0.98
6347.00,0.98
6346.00,0.98
6345.00,0.98
6344.00,0.98
6343.00,0.98
6342.00,0.98
6341.00,0.99
6340.00,0.99
6339.00,0.99
6338.00,0.99
6337.00,0.99
6336.00,0.99
6335.00,0.99
6334.00,0.99
6333.00,0.99
6332.00,0.99
6331.00,0.99
6330.00,0.99
6329.00,0.98
6328.00,0.98
6327.00,0.98
6326.00,0.98
6325.00,0.98
6324.00,0.98
6323.00,0.98
6322.00,0.98
6321.00,0.98
6320.00,0.98
6319.00,0.98
6318.00,0.98
6317.00,0.98
6316.00,0.98
6315.00,0.97
6314.00,0.97
6313.00,0.97
6312.00,0.97
6311.00,0.97
6310.00,0.97
6309.00,0.97
6308.00,0.97
6307.00,0.98
6306.00,0.98
6305.00,0.98
6304.00,0.98
6303.00,0.98
6302.00,0.98
6301.00,0.98
6300.00,0.99
6299.00,0.99
6298.00,0.99
6297.00,0.99
6296.00,0.99
6295.00,1.00
6294.00,1.00
6293.00,1.00
6292.00,1.00
6291.00,1.00
6290.00,1.01
6289.00,1.01
6288.00,1.01
6287.00,1.01
6286.00,1.01
6285.00,1.02
6284.00,1.02
6283.00,1.02
6282.00,1.02
6281.00,1.02
6280.00,1.02
6279.00,1.03
6278.00,1.03
6277.00,1.03
6276.00,1.03
6275.00,1.03
6274.00,1.03
6273.00,1.03
6272.00,1.03
6271.00,1.03
6270.00,1.03
6269.00,1.03
6268.00,1.03
6267.00,1.03
6266.00,1.03
6265.00,1.03
6264.00,1.03
6263.00,1.03
6262.00,1.03
6261.00,1.03
6260.00,1.03
6259.00,1.02
6258.00,1.02
6257.00,1.02
6256.00,1.02
6255.00,1.02
6254.00,1.02
6253.00,1.02
6252.00,1.02
6251.00,1.03
6250.00,1.03
6249.00,1.03
6248.00,1.03
6247.00,1.03
6246.00,1.03
6245.00,1.03
6244.00,1.03
6243.00,1.03
6242.00,1.03
6241.00,1.03
6240.00,1.03
6239.00,1.03
6238.00,1.03
6237.00,1.03
6236.00,1.03
6235.00,1.03
6234.00,1.03
6233.00,1.03
6232.00,1.03
6231.00,1.03
6230.00,1.03
6229.00,1.03
6228.00,1.03
6227.00,1.03
6226.00,1.03
6225.00,1.03
6224.00,1.03
6223.00,1.03
6222.00,1.03
6221.00,1.03
6220.00,1.03
6219.00,1.03
6218.00,1.03
6217.00,1.03
6216.00,1.03
6215.00,1.04
6214.00,1.04
6213.00,1.04
6212.00,1.04
6211.00,1.04
6210.00,1.04
6209.00,1.04
6208.00,1.04
6207.00,1.04
6206.00,1.04
6205.00,1.04
6204.00,1.05
6203.00,1.05
6202.00,1.05
6201.00,1.05
6200.00,1.05
6199.00,1.05
6198.00,1.06
6197.00,1.06
6196.00,1.06
6195.00,1.06
6194.00,1.06
6193.00,1.06
6192.00,1.07
6191.00,1.07
6190.00,1.07
6189.00,1.07
6188.00,1.07
6187.00,1.07
6186.00,1.08
6185.00,1.08
6184.00,1.08
6183.00,1.08
6182.00,1.08
6181.00,1.08
6180.00,1.08
6179.00,1.09
6178.00,1.09
6177.00,1.09
6176.00,1.09
6175.00,1.09
6174.00,1.09
6173.00,1.09
6172.00,1.09
6171.00,1.10
6170.00,1.10
6169.00,1.10
6168.00,1.10
6167.00,1.10
6166.00,1.10
6165.00,1.10
6164.00,1.10
6163.00,1.10
6162.00,1.11
6161.00,1.11
6160.00,1.11
6159.00,1.11
6158.00,1.11
6157.00,1.11
6156.00,1.11
6155.00,1.11
6154.00,1.11
6153.00,1.11
6152.00,1.12
6151.00,1.12
6150.00,1.12
6149.00,1.12
6148.00,1.12
6147.00,1.12
6146.00,1.12
6145.00,1.12
6144.00,1.12
6143.00,1.12
6142.00,1.12
6141.00,1.12
6140.00,1.12
6139.00,1.12
6138.00,1.12
6137.00,1.12
6136.00,1.12
6135.00,1.12
6134.00,1.12
6133.00,1.12
6132.00,1.12
6131.00,1.12
6130.00,1.12
6129.00,1.12
6128.00,1.12
6127.00,1.12
6126.00,1.12
6125.00,1.12
6124.00,1.12
6123.00,1.12
6122.00,1.12
6121.00,1.12
6120.00,1.12
6119.00,1.12
6118.00,1.12
6117.00,1.12
6116.00,1.13
6115.00,1.13
6114.00,1.13
6113.00,1.13
6112.00,1.14
6111.00,1.14
6110.00,1.14
6109.00,1.15
6108.00,1.15
6107.00,1.15
6106.00,1.16
6105.00,1.16
6104.00,1.16
6103.00,1.16
6102.00,1.17
6101.00,1.17
6100.00,1.17
6099.00,1.18
6098.00,1.18
6097.00,1.18
6096.00,1.18
6095.00,1.19
6094.00,1.19
6093.00,1.19
6092.00,1.19
6091.00,1.19
6090.00,1.19
6089.00,1.19
6088.00,1.19
6087.00,1.19
6086.00,1.19
6085.00,1.19
6084.00,1.19
6083.00,1.19
6082.00,1.19
6081.00,1.19
6080.00,1.19
6079.00,1.19
6078.00,1.19
6077.00,1.19
6076.00,1.18
6075.00,1.18
6074.00,1.18
6073.00,1.18
6072.00,1.18
6071.00,1.18
6070.00,1.18
6069.00,1.17
6068.00,1.17
6067.00,1.17
6066.00,1.17
6065.00,1.17
6064.00,1.17
6063.00,1.17
6062.00,1.17
6061.00,1.17
6060.00,1.17
6059.00,1.16
6058.00,1.16
6057.00,1.16
6056.00,1.16
6055.00,1.16
6054.00,1.16
6053.00,1.16
6052.00,1.16
6051.00,1.16
6050.00,1.17
6049.00,1.17
6048.00,1.17
6047.00,1.17
6046.00,1.17
6045.00,1.17
6044.00,1.17
6043.00,1.17
6042.00,1.17
6041.00,1.17
6040.00,1.17
6039.00,1.17
6038.00,1.18
6037.00,1.18
6036.00,1.18
6035.00,1.18
6034.00,1.18
6033.00,1.18
6032.00,1.18
6031.00,1.18
6030.00,1.18
6029.00,1.19
6028.00,1.19
6027.00,1.19
6026.00,1.19
6025.00,1.19
6024.00,1.19
6023.00,1.19
6022.00,1.20
6021.00,1.20
6020.00,1.20
6019.00,1.20
6018.00,1.20
6017.00,1.20
6016.00,1.21
6015.00,1.21
6014.00,1.21
6013.00,1.21
6012.00,1.21
6011.00,1.21
6010.00,1.21
6009.00,1.21
6008.00,1.21
6007.00,1.21
6006.00,1.21
6005.00,1.21
6004.00,1.21
6003.00,1.21
6002.00,1.21
6001.00,1.21
6000.00,1.21
5999.00,1.21
5998.00,1.21
5997.00,1.20
5996.00,1.20
5995.00,1.20
5994.00,1.20
5993.00,1.20
5992.00,1.19
5991.00,1.19
5990.00,1.19
5989.00,1.19
5988.00,1.18
5987.00,1.18
5986.00,1.18
5985.00,1.18
5984.00,1.17
5983.00,1.17
5982.00,1.17
5981.00,1.17
5980.00,1.16
5979.00,1.16
5978.00,1.16
5977.00,1.15
5976.00,1.15
5975.00,1.15
5974.00,1.14
5973.00,1.14
5972.00,1.13
5971.00,1.13
5970.00,1.13
5969.00,1.13
5968.00,1.12
5967.00,1.12
5966.00,1.12
5965.00,1.12
5964.00,1.11
5963.00,1.11
5962.00,1.11
5961.00,1.11
5960.00,1.11
5959.00,1.10
5958.00,1.10
5957.00,1.10
5956.00,1.10
5955.00,1.10
5954.00,1.09
5953.00,1.09
5952.00,1.09
5951.00,1.09
5950.00,1.09
5949.00,1.09
5948.00,1.09
5947.00,1.09
5946.00,1.09
5945.00,1.09
5944.00,1.08
5943.00,1.08
5942.00,1.08
5941.00,1.08
5940.00,1.08
5939.00,1.08
5938.00,1.08
5937.00,1.08
5936.00,1.07
5935.00,1.07
5934.00,1.07
5933.00,1.07
5932.00,1.07
5931.00,1.07
5930.00,1.07
5929.00,1.07
5928.00,1.06
5927.00,1.06
5926.00,1.06
5925.00,1.06
5924.00,1.06
5923.00,1.06
5922.00,1.06
5921.00,1.06
5920.00,1.06
5919.00,1.06
5918.00,1.06
5917.00,1.06
5916.00,1.06
5915.00,1.06
5914.00,1.05
5913.00,1.05
5912.00,1.05
5911.00,1.05
5910.00,1.05
5909.00,1.05
5908.00,1.05
5907.00,1.05
5906.00,1.05
5905.00,1.05
5904.00,1.05
5903.00,1.05
5902.00,1.04
5901.00,1.04
5900.00,1.04
5899.00,1.04
5898.00,1.04
5897.00,1.04
5896.00,1.04
5895.00,1.04
5894.00,1.04
5893.00,1.04
5892.00,1.04
5891.00,1.04
5890.00,1.04
5889.00,1.04
5888.00,1.04
5887.00,1.04
5886.00,1.04
5885.00,1.04
5884.00,1.05
5883.00,1.05
5882.00,1.05
5881.00,1.05
5880.00,1.05
5879.00,1.06
5878.00,1.06
5877.00,1.06
5876.00,1.06
5875.00,1.06
5874.00,1.07
5873.00,1.07
5872.00,1.07
5871.00,1.07
5870.00,1.07
5869.00,1.08
5868.00,1.08
5867.00,1.08
5866.00,1.08
5865.00,1.08
5864.00,1.09
5863.00,1.09
5862.00,1.09
5861.00,1.09
5860.00,1.09
5859.00,1.09
5858.00,1.09
5857.00,1.09
5856.00,1.09
5855.00,1.09
5854.00,1.09
5853.00,1.09
5852.00,1.09
5851.00,1.09
5850.00,1.09
5849.00,1.09
5848.00,1.09
5847.00,1.10
5846.00,1.10
5845.00,1.10
5844.00,1.10
5843.00,1.10
5842.00,1.10
5841.00,1.10
5840.00,1.10
5839.00,1.10
5838.00,1.10
5837.00,1.10
5836.00,1.10
5835.00,1.10
5834.00,1.10
5833.00,1.10
5832.00,1.10
5831.00,1.10
5830.00,1.10
5829.00,1.10
5828.00,1.10
5827.00,1.10
5826.00,1.10
5825.00,1.10
5824.00,1.10
5823.00,1.10
5822.00,1.10
5821.00,1.10
5820.00,1.10
5819.00,1.10
5818.00,1.10
5817.00,1.10
5816.00,1.09
5815.00,1.09
5814.00,1.09
5813.00,1.09
5812.00,1.09
5811.00,1.09
5810.00,1.09
5809.00,1.09
5808.00,1.09
5807.00,1.09
5806.00,1.08
5805.00,1.08
5804.00,1.08
5803.00,1.08
5802.00,1.08
5801.00,1.08
5800.00,1.08
5799.00,1.08
5798.00,1.08
5797.00,1.07
5796.00,1.07
5795.00,1.07
5794.00,1.07
5793.00,1.07
5792.00,1.07
5791.00,1.07
5790.00,1.06
5789.00,1.06
5788.00,1.06
5787.00,1.06
5786.00,1.06
5785.00,1.06
5784.00,1.06
5783.00,1.05
5782.00,1.05
5781.00,1.05
5780.00,1.05
5779.00,1.05
5778.00,1.04
5777.00,1.04
5776.00,1.04
5775.00,1.04
5774.00,1.04
5773.00,1.04
5772.00,1.04
5771.00,1.04
5770.00,1.04
5769.00,1.04
5768.00,1.04
5767.00,1.04
5766.00,1.04
5765.00,1.04
5764.00,1.04
5763.00,1.04
5762.00,1.04
5761.00,1.04
5760.00,1.04
5759.00,1.04
5758.00,1.05
5757.00,1.05
5756.00,1.05
5755.00,1.05
5754.00,1.06
5753.00,1.06
5752.00,1.06
5751.00,1.06
5750.00,1.07
5749.00,1.07
5748.00,1.07
5747.00,1.07
5746.00,1.08
5745.00,1.08
5744.00,1.08
5743.00,1.09
5742.00,1.09
5741.00,1.09
5740.00,1.09
5739.00,1.10
5738.00,1.10
5737.00,1.10
5736.00,1.10
5735.00,1.10
5734.00,1.11
5733.00,1.11
5732.00,1.11
5731.00,1.11
5730.00,1.11
5729.00,1.12
5728.00,1.12
5727.00,1.12
5726.00,1.12
5725.00,1.12
5724.00,1.12
5723.00,1.12
5722.00,1.12
5721.00,1.13
5720.00,1.13
5719.00,1.13
5718.00,1.13
5717.00,1.13
5716.00,1.13
5715.00,1.13
5714.00,1.13
5713.00,1.13
5712.00,1.13
5711.00,1.13
5710.00,1.13
5709.00,1.13
5708.00,1.13
5707.00,1.13
5706.00,1.13
5705.00,1.13
5704.00,1.13
5703.00,1.13
5702.00,1.13
5701.00,1.13
5700.00,1.13
5699.00,1.13
5698.00,1.13
5697.00,1.13
5696.00,1.12
5695.00,1.12
5694.00,1.12
5693.00,1.12
5692.00,1.12
5691.00,1.12
5690.00,1.11
5689.00,1.11
5688.00,1.11
5687.00,1.11
5686.00,1.11
5685.00,1.11
5684.00,1.10
5683.00,1.10
5682.00,1.10
5681.00,1.10
5680.00,1.10
5679.00,1.10
5678.00,1.09
5677.00,1.09
5676.00,1.09
5675.00,1.09
5674.00,1.09
5673.00,1.09
5672.00,1.09
5671.00,1.09
5670.00,1.09
5669.00,1.09
5668.00,1.09
5667.00,1.09
5666.00,1.09
5665.00,1.09
5664.00,1.09
5663.00,1.09
5662.00,1.09
5661.00,1.09
5660.00,1.09
5659.00,1.09
5658.00,1.09
5657.00,1.10
5656.00,1.10
5655.00,1.10
5654.00,1.10
5653.00,1.10
5652.00,1.10
5651.00,1.10
5650.00,1.10
5649.00,1.11
5648.00,1.11
5647.00,1.11
5646.00,1.11
5645.00,1.11
5644.00,1.11
5643.00,1.11
5642.00,1.11
5641.00,1.11
5640.00,1.11
5639.00,1.11
5638.00,1.11
5637.00,1.12
5636.00,1.12
5635.00,1.12
5634.00,1.12
5633.00,1.12
5632.00,1.12
5631.00,1.12
5630.00,1.12
5629.00,1.12
5628.00,1.12
5627.00,1.12
5626.00,1.12
5625.00,1.12
5624.00,1.12
5623.00,1.12
5622.00,1.12
5621.00,1.12
5620.00,1.12
5619.00,1.13
5618.00,1.13
5617.00,1.13
5616.00,1.13
5615.00,1.13
5614.00,1.13
5613.00,1.13
5612.00,1.14
5611.00,1.14
5610.00,1.14
5609.00,1.14
5608.00,1.14
5607.00,1.14
5606.00,1.14
5605.00,1.14
5604.00,1.15
5603.00,1.15
5602.00,1.15
5601.00,1.15
5600.00,1.15
5599.00,1.15
5598.00,1.15
5597.00,1.16
5596.00,1.16
5595.00,1.16
5594.00,1.16
5593.00,1.16
5592.00,1.16
5591.00,1.16
5590.00,1.16
5589.00,1.16
5588.00,1.16
5587.00,1.16
5586.00,1.16
5585.00,1.16
5584.00,1.16
5583.00,1.16
5582.00,1.16
5581.00,1.16
5580.00,1.16
5579.00,1.16
5578.00,1.16
5577.00,1.16
5576.00,1.16
5575.00,1.16
5574.00,1.16
5573.00,1.16
5572.00,1.16
5571.00,1.17
5570.00,1.17
5569.00,1.17
5568.00,1.17
5567.00,1.17
5566.00,1.17
5565.00,1.17
5564.00,1.17
5563.00,1.17
5562.00,1.18
5561.00,1.18
5560.00,1.18
5559.00,1.18
5558.00,1.18
5557.00,1.18
5556.00,1.18
5555.00,1.18
5554.00,1.18
5553.00,1.18
5552.00,1.18
5551.00,1.18
5550.00,1.18
5549.00,1.18
5548.00,1.18
5547.00,1.18
5546.00,1.18
5545.00,1.18
5544.00,1.18
5543.00,1.18
5542.00,1.18
5541.00,1.18
5540.00,1.18
5539.00,1.18
5538.00,1.18
5537.00,1.18
5536.00,1.18
5535.00,1.18
5534.00,1.18
5533.00,1.19
5532.00,1.19
5531.00,1.19
5530.00,1.19
5529.00,1.19
5528.00,1.19
5527.00,1.19
5526.00,1.19
5525.00,1.19
5524.00,1.19
5523.00,1.19
5522.00,1.20
5521.00,1.20
5520.00,1.20
5519.00,1.20
5518.00,1.20
5517.00,1.20
5516.00,1.20
5515.00,1.20
5514.00,1.20
5513.00,1.20
5512.00,1.20
5511.00,1.20
5510.00,1.20
5509.00,1.20
5508.00,1.20
5507.00,1.20
5506.00,1.20
5505.00,1.20
5504.00,1.20
5503.00,1.20
5502.00,1.21
5501.00,1.21
5500.00,1.21
5499.00,1.21
5498.00,1.21
5497.00,1.21
5496.00,1.21
5495.00,1.21
5494.00,1.21
5493.00,1.21
5492.00,1.21
5491.00,1.21
5490.00,1.21
5489.00,1.21
5488.00,1.21
5487.00,1.22
5486.00,1.22
5485.00,1.22
5484.00,1.22
5483.00,1.22
5482.00,1.22
5481.00,1.22
5480.00,1.22
5479.00,1.22
5478.00,1.22
5477.00,1.22
5476.00,1.22
5475.00,1.22
5474.00,1.22
5473.00,1.22
5472.00,1.22
5471.00,1.22
5470.00,1.22
5469.00,1.22
5468.00,1.22
5467.00,1.22
5466.00,1.22
5465.00,1.22
5464.00,1.22
5463.00,1.22
5462.00,1.22
5461.00,1.22
5460.00,1.22
5459.00,1.22
5458.00,1.22
5457.00,1.22
5456.00,1.22
5455.00,1.23
5454.00,1.23
5453.00,1.23
5452.00,1.23
5451.00,1.23
5450.00,1.23
5449.00,1.23
5448.00,1.24
5447.00,1.24
5446.00,1.24
5445.00,1.24
5444.00,1.24
5443.00,1.25
5442.00,1.25
5441.00,1.25
5440.00,1.25
5439.00,1.25
5438.00,1.25
5437.00,1.26
5436.00,1.26
5435.00,1.26
5434.00,1.26
5433.00,1.26
5432.00,1.26
5431.00,1.26
5430.00,1.26
5429.00,1.27
5428.00,1.27
5427.00,1.27
5426.00,1.27
5425.00,1.27
5424.00,1.27
5423.00,1.27
5422.00,1.27
5421.00,1.27
5420.00,1.27
5419.00,1.27
5418.00,1.27
5417.00,1.27
5416.00,1.27
5415.00,1.27
5414.00,1.27
5413.00,1.27
5412.00,1.26
5411.00,1.26
5410.00,1.26
5409.00,1.26
5408.00,1.26
5407.00,1.26
5406.00,1.26
5405.00,1.26
5404.00,1.26
5403.00,1.26
5402.00,1.25
5401.00,1.25
5400.00,1.25
5399.00,1.25
5398.00,1.25
5397.00,1.25
5396.00,1.25
5395.00,1.25
5394.00,1.25
5393.00,1.25
5392.00,1.25
5391.00,1.25
5390.00,1.24
5389.00,1.24
5388.00,1.24
5387.00,1.24
5386.00,1.24
5385.00,1.24
5384.00,1.23
5383.00,1.23
5382.00,1.23
5381.00,1.23
5380.00,1.23
5379.00,1.22
5378.00,1.22
5377.00,1.22
5376.00,1.22
5375.00,1.21
5374.00,1.21
5373.00,1.20
5372.00,1.20
5371.00,1.20
5370.00,1.19
5369.00,1.19
5368.00,1.18
5367.00,1.18
5366.00,1.18
5365.00,1.17
5364.00,1.17
5363.00,1.16
5362.00,1.16
5361.00,1.16
5360.00,1.15
5359.00,1.15
5358.00,1.14
5357.00,1.14
5356.00,1.14
5355.00,1.13
5354.00,1.13
5353.00,1.12
5352.00,1.12
5351.00,1.11
5350.00,1.11
5349.00,1.10
5348.00,1.09
5347.00,1.09
5346.00,1.08
5345.00,1.08
5344.00,1.07
5343.00,1.07
5342.00,1.06
5341.00,1.05
5340.00,1.05
5339.00,1.04
5338.00,1.03
5337.00,1.03
5336.00,1.02
5335.00,1.01
5334.00,1.01
5333.00,1.00
5332.00,0.99
5331.00,0.98
5330.00,0.97
5329.00,0.97
5328.00,0.96
5327.00,0.95
5326.00,0.94
5325.00,0.94
5324.00,0.93
5323.00,0.92
5322.00,0.91
5321.00,0.90
5320.00,0.90
5319.00,0.89
5318.00,0.88
5317.00,0.87
5316.00,0.86
5315.00,0.86
5314.00,0.85
5313.00,0.84
5312.00,0.83
5311.00,0.83
5310.00,0.82
5309.00,0.81
5308.00,0.81
5307.00,0.80
5306.00,0.79
5305.00,0.78
5304.00,0.78
5303.00,0.77
5302.00,0.76
5301.00,0.76
5300.00,0.75
5299.00,0.74
5298.00,0.73
5297.00,0.73
5296.00,0.72
5295.00,0.72
5294.00,0.71
5293.00,0.70
5292.00,0.70
5291.00,0.69
5290.00,0.69
5289.00,0.68
5288.00,0.68
5287.00,0.67
5286.00,0.67
5285.00,0.67
5284.00,0.66
5283.00,0.66
5282.00,0.65
5281.00,0.65
5280.00,0.65
5279.00,0.64
5278.00,0.64
5277.00,0.64
5276.00,0.64
5275.00,0.64
5274.00,0.63
5273.00,0.63
5272.00,0.63
5271.00,0.63
5270.00,0.63
5269.00,0.63
5268.00,0.63
5267.00,0.63
5266.00,0.63
5265.00,0.63
5264.00,0.63
5263.00,0.62
5262.00,0.62
5261.00,0.62
5260.00,0.62
5259.00,0.62
5258.00,0.62
5257.00,0.62
5256.00,0.62
5255.00,0.62
5254.00,0.62
5253.00,0.62
5252.00,0.62
5251.00,0.62
5250.00,0.62
5249.00,0.61
5248.00,0.61
5247.00,0.61
5246.00,0.61
5245.00,0.61
5244.00,0.61
5243.00,0.60
5242.00,0.60
5241.00,0.60
5240.00,0.60
5239.00,0.60
5238.00,0.60
5237.00,0.59
5236.00,0.59
5235.00,0.59
5234.00,0.59
5233.00,0.58
5232.00,0.58
5231.00,0.58
5230.00,0.58
5229.00,0.58
5228.00,0.57
5227.00,0.57
5226.00,0.57
5225.00,0.57
5224.00,0.57
5223.00,0.56
5222.00,0.56
5221.00,0.56
5220.00,0.56
5219.00,0.56
5218.00,0.56
5217.00,0.56
5216.00,0.56
5215.00,0.56
5214.00,0.56
5213.00,0.55
5212.00,0.55
5211.00,0.55
5210.00,0.55
5209.00,0.55
5208.00,0.55
5207.00,0.55
5206.00,0.55
5205.00,0.55
5204.00,0.55
5203.00,0.55
5202.00,0.55
5201.00,0.55
5200.00,0.55
5199.00,0.55
5198.00,0.55
5197.00,0.55
5196.00,0.55
5195.00,0.55
5194.00,0.55
5193.00,0.55
5192.00,0.55
5191.00,0.55
5190.00,0.55
5189.00,0.55
5188.00,0.55
5187.00,0.55
5186.00,0.55
5185.00,0.56
5184.00,0.56
5183.00,0.56
5182.00,0.56
5181.00,0.56
5180.00,0.56
5179.00,0.56
5178.00,0.56
5177.00,0.56
5176.00,0.56
5175.00,0.57
5174.00,0.57
5173.00,0.57
5172.00,0.57
5171.00,0.57
5170.00,0.57
5169.00,0.57
5168.00,0.57
5167.00,0.57
5166.00,0.57
5165.00,0.57
5164.00,0.57
5163.00,0.57
5162.00,0.57
5161.00,0.57
5160.00,0.57
5159.00,0.57
5158.00,0.57
5157.00,0.57
5156.00,0.57
5155.00,0.57
5154.00,0.57
5153.00,0.57
5152.00,0.57
5151.00,0.57
5150.00,0.57
5149.00,0.57
5148.00,0.57
5147.00,0.57
5146.00,0.57
5145.00,0.57
5144.00,0.57
5143.00,0.57
5142.00,0.57
5141.00,0.57
5140.00,0.57
5139.00,0.58
5138.00,0.58
5137.00,0.58
5136.00,0.58
5135.00,0.58
5134.00,0.59
5133.00,0.59
5132.00,0.59
5131.00,0.59
5130.00,0.60
5129.00,0.60
5128.00,0.60
5127.00,0.61
5126.00,0.61
5125.00,0.61
5124.00,0.61
5123.00,0.61
5122.00,0.62
5121.00,0.62
5120.00,0.62
5119.00,0.62
5118.00,0.62
5117.00,0.63
5116.00,0.63
5115.00,0.63
5114.00,0.63
5113.00,0.63
5112.00,0.63
5111.00,0.63
5110.00,0.63
5109.00,0.63
5108.00,0.63
5107.00,0.63
5106.00,0.63
5105.00,0.63
5104.00,0.63
5103.00,0.62
5102.00,0.62
5101.00,0.62
5100.00,0.62
5099.00,0.62
5098.00,0.62
5097.00,0.62
5096.00,0.62
5095.00,0.62
5094.00,0.62
5093.00,0.62
5092.00,0.62
5091.00,0.62
5090.00,0.62
5089.00,0.62
5088.00,0.62
5087.00,0.62
5086.00,0.62
5085.00,0.62
5084.00,0.63
5083.00,0.63
5082.00,0.63
5081.00,0.63
5080.00,0.63
5079.00,0.63
5078.00,0.63
5077.00,0.63
5076.00,0.63
5075.00,0.63
5074.00,0.63
5073.00,0.64
5072.00,0.64
5071.00,0.64
5070.00,0.64
5069.00,0.64
5068.00,0.64
5067.00,0.64
5066.00,0.64
5065.00,0.64
5064.00,0.64
5063.00,0.64
5062.00,0.64
5061.00,0.64
5060.00,0.64
5059.00,0.64
5058.00,0.64
5057.00,0.64
5056.00,0.64
5055.00,0.64
5054.00,0.64
5053.00,0.64
5052.00,0.64
5051.00,0.64
5050.00,0.64
5049.00,0.64
5048.00,0.64
5047.00,0.64
5046.00,0.64
5045.00,0.64
5044.00,0.64
5043.00,0.64
5042.00,0.64
5041.00,0.64
5040.00,0.64
5039.00,0.64
5038.00,0.64
5037.00,0.64
5036.00,0.65
5035.00,0.65
5034.00,0.65
5033.00,0.65
5032.00,0.65
5031.00,0.66
5030.00,0.66
5029.00,0.66
5028.00,0.67
5027.00,0.67
5026.00,0.67
5025.00,0.68
5024.00,0.68
5023.00,0.68
5022.00,0.69
5021.00,0.69
5020.00,0.69
5019.00,0.70
5018.00,0.70
5017.00,0.70
5016.00,0.71
5015.00,0.71
5014.00,0.71
5013.00,0.71
5012.00,0.71
5011.00,0.72
5010.00,0.72
5009.00,0.72
5008.00,0.72
5007.00,0.72
5006.00,0.72
5005.00,0.72
5004.00,0.72
5003.00,0.72
5002.00,0.73
5001.00,0.73
5000.00,0.73
4999.00,0.72
4998.00,0.72
4997.00,0.72
4996.00,0.72
4995.00,0.72
4994.00,0.72
4993.00,0.72
4992.00,0.72
4991.00,0.72
4990.00,0.72
4989.00,0.72
4988.00,0.72
4987.00,0.72
4986.00,0.72
4985.00,0.72
4984.00,0.72
4983.00,0.72
4982.00,0.72
4981.00,0.72
4980.00,0.73
4979.00,0.73
4978.00,0.73
4977.00,0.73
4976.00,0.73
4975.00,0.74
4974.00,0.74
4973.00,0.74
4972.00,0.74
4971.00,0.75
4970.00,0.75
4969.00,0.75
4968.00,0.76
4967.00,0.76
4966.00,0.76
4965.00,0.77
4964.00,0.77
4963.00,0.77
4962.00,0.77
4961.00,0.78
4960.00,0.78
4959.00,0.78
4958.00,0.78
4957.00,0.79
4956.00,0.79
4955.00,0.79
4954.00,0.79
4953.00,0.79
4952.00,0.79
4951.00,0.79
4950.00,0.80
4949.00,0.80
4948.00,0.80
4947.00,0.80
4946.00,0.80
4945.00,0.80
4944.00,0.80
4943.00,0.80
4942.00,0.80
4941.00,0.80
4940.00,0.80
4939.00,0.80
4938.00,0.80
4937.00,0.80
4936.00,0.80
4935.00,0.80
4934.00,0.80
4933.00,0.80
4932.00,0.80
4931.00,0.80
4930.00,0.80
4929.00,0.80
4928.00,0.80
4927.00,0.80
4926.00,0.80
4925.00,0.80
4924.00,0.80
4923.00,0.81
4922.00,0.81
4921.00,0.81
4920.00,0.81
4919.00,0.81
4918.00,0.81
4917.00,0.81
4916.00,0.81
4915.00,0.81
4914.00,0.81
4913.00,0.81
4912.00,0.82
4911.00,0.82
4910.00,0.82
4909.00,0.82
4908.00,0.82
4907.00,0.82
4906.00,0.82
4905.00,0.82
4904.00,0.82
4903.00,0.82
4902.00,0.82
4901.00,0.82
4900.00,0.82
4899.00,0.82
4898.00,0.82
4897.00,0.82
4896.00,0.82
4895.00,0.82
4894.00,0.82
4893.00,0.82
4892.00,0.82
4891.00,0.82
4890.00,0.82
4889.00,0.82
4888.00,0.82
4887.00,0.82
4886.00,0.82
4885.00,0.82
4884.00,0.82
4883.00,0.82
4882.00,0.82
4881.00,0.82
4880.00,0.82
4879.00,0.82
4878.00,0.82
4877.00,0.82
4876.00,0.82
4875.00,0.83
4874.00,0.83
4873.00,0.83
4872.00,0.83
4871.00,0.83
4870.00,0.83
4869.00,0.83
4868.00,0.83
4867.00,0.83
4866.00,0.83
4865.00,0.83
4864.00,0.83
4863.00,0.83
4862.00,0.83
4861.00,0.83
4860.00,0.83
4859.00,0.83
4858.00,0.83
4857.00,0.83
4856.00,0.83
4855.00,0.83
4854.00,0.83
4853.00,0.83
4852.00,0.83
4851.00,0.84
4850.00,0.84
4849.00,0.84
4848.00,0.84
4847.00,0.84
4846.00,0.84
4845.00,0.84
4844.00,0.84
4843.00,0.84
4842.00,0.85
4841.00,0.85
4840.00,0.85
4839.00,0.85
4838.00,0.85
4837.00,0.86
4836.00,0.86
4835.00,0.86
4834.00,0.86
4833.00,0.87
4832.00,0.87
4831.00,0.87
4830.00,0.87
4829.00,0.88
4828.00,0.88
4827.00,0.88
4826.00,0.88
4825.00,0.88
4824.00,0.89
4823.00,0.89
4822.00,0.89
4821.00,0.89
4820.00,0.90
4819.00,0.90
4818.00,0.90
4817.00,0.90
4816.00,0.90
4815.00,0.91
4814.00,0.91
4813.00,0.91
4812.00,0.91
4811.00,0.91
4810.00,0.91
4809.00,0.91
4808.00,0.91
4807.00,0.91
4806.00,0.91
4805.00,0.91
4804.00,0.91
4803.00,0.91
4802.00,0.91
4801.00,0.91
4800.00,0.91
4799.00,0.91
4798.00,0.91
4797.00,0.91
4796.00,0.91
4795.00,0.91
4794.00,0.91
4793.00,0.91
4792.00,0.91
4791.00,0.91
4790.00,0.91
4789.00,0.91
4788.00,0.92
4787.00,0.92
4786.00,0.92
4785.00,0.92
4784.00,0.92
4783.00,0.92
4782.00,0.92
4781.00,0.93
4780.00,0.93
4779.00,0.93
4778.00,0.93
4777.00,0.93
4776.00,0.93
4775.00,0.94
4774.00,0.94
4773.00,0.94
4772.00,0.94
4771.00,0.94
4770.00,0.95
4769.00,0.95
4768.00,0.95
4767.00,0.95
4766.00,0.95
4765.00,0.96
4764.00,0.96
4763.00,0.96
4762.00,0.96
4761.00,0.96
4760.00,0.96
4759.00,0.96
4758.00,0.97
4757.00,0.97
4756.00,0.97
4755.00,0.97
4754.00,0.97
4753.00,0.97
4752.00,0.97
4751.00,0.97
4750.00,0.97
4749.00,0.98
4748.00,0.98
4747.00,0.98
4746.00,0.98
4745.00,0.98
4744.00,0.98
4743.00,0.98
4742.00,0.98
4741.00,0.99
4740.00,0.99
4739.00,0.99
4738.00,0.99
4737.00,0.99
4736.00,0.99
4735.00,1.00
4734.00,1.00
4733.00,1.00
4732.00,1.00
4731.00,1.01
4730.00,1.01
4729.00,1.01
4728.00,1.01
4727.00,1.02
4726.00,1.02
4725.00,1.02
4724.00,1.02
4723.00,1.03
4722.00,1.03
4721.00,1.03
4720.00,1.03
4719.00,1.03
4718.00,1.04
4717.00,1.04
4716.00,1.04
4715.00,1.04
4714.00,1.05
4713.00,1.05
4712.00,1.05
4711.00,1.05
4710.00,1.06
4709.00,1.06
4708.00,1.06
4707.00,1.06
4706.00,1.07
4705.00,1.07
4704.00,1.07
4703.00,1.07
4702.00,1.07
4701.00,1.08
4700.00,1.08
4699.00,1.08
4698.00,1.08
4697.00,1.08
4696.00,1.09
4695.00,1.09
4694.00,1.09
4693.00,1.09
4692.00,1.09
4691.00,1.10
4690.00,1.10
4689.00,1.10
4688.00,1.10
4687.00,1.10
4686.00,1.10
4685.00,1.10
4684.00,1.10
4683.00,1.11
4682.00,1.11
4681.00,1.11
4680.00,1.11
4679.00,1.11
4678.00,1.11
4677.00,1.11
4676.00,1.12
4675.00,1.12
4674.00,1.12
4673.00,1.12
4672.00,1.12
4671.00,1.12
4670.00,1.12
4669.00,1.13
4668.00,1.13
4667.00,1.13
4666.00,1.13
4665.00,1.13
4664.00,1.13
4663.00,1.13
4662.00,1.14
4661.00,1.14
4660.00,1.14
4659.00,1.14
4658.00,1.15
4657.00,1.15
4656.00,1.15
4655.00,1.15
4654.00,1.15
4653.00,1.15
4652.00,1.16
4651.00,1.16
4650.00,1.16
4649.00,1.16
4648.00,1.16
4647.00,1.16
4646.00,1.16
4645.00,1.16
4644.00,1.17
4643.00,1.17
4642.00,1.17
4641.00,1.17
4640.00,1.17
4639.00,1.17
4638.00,1.17
4637.00,1.17
4636.00,1.17
4635.00,1.17
4634.00,1.17
4633.00,1.18
4632.00,1.18
4631.00,1.18
4630.00,1.18
4629.00,1.18
4628.00,1.18
4627.00,1.18
4626.00,1.18
4625.00,1.18
4624.00,1.19
4623.00,1.19
4622.00,1.19
4621.00,1.19
4620.00,1.19
4619.00,1.19
4618.00,1.19
4617.00,1.19
4616.00,1.19
4615.00,1.19
4614.00,1.19
4613.00,1.19
4612.00,1.19
4611.00,1.19
4610.00,1.19
4609.00,1.19
4608.00,1.19
4607.00,1.19
4606.00,1.19
4605.00,1.19
4604.00,1.19
4603.00,1.19
4602.00,1.19
4601.00,1.19
4600.00,1.19
4599.00,1.19
4598.00,1.19
4597.00,1.19
4596.00,1.19
4595.00,1.19
4594.00,1.19
4593.00,1.19
4592.00,1.19
4591.00,1.19
4590.00,1.19
4589.00,1.19
4588.00,1.19
4587.00,1.19
4586.00,1.19
4585.00,1.19
4584.00,1.19
4583.00,1.19
4582.00,1.19
4581.00,1.19
4580.00,1.19
4579.00,1.19
4578.00,1.19
4577.00,1.19
4576.00,1.20
4575.00,1.20
4574.00,1.20
4573.00,1.20
4572.00,1.20
4571.00,1.20
4570.00,1.20
4569.00,1.21
4568.00,1.21
4567.00,1.21
4566.00,1.21
4565.00,1.21
4564.00,1.22
4563.00,1.22
4562.00,1.22
4561.00,1.22
4560.00,1.22
4559.00,1.22
4558.00,1.22
4557.00,1.23
4556.00,1.23
4555.00,1.23
4554.00,1.23
4553.00,1.23
4552.00,1.23
4551.00,1.23
4550.00,1.23
4549.00,1.23
4548.00,1.24
4547.00,1.24
4546.00,1.24
4545.00,1.24
4544.00,1.24
4543.00,1.24
4542.00,1.24
4541.00,1.24
4540.00,1.24
4539.00,1.24
4538.00,1.24
4537.00,1.24
4536.00,1.24
4535.00,1.24
4534.00,1.24
4533.00,1.24
4532.00,1.24
4531.00,1.24
4530.00,1.24
4529.00,1.24
4528.00,1.24
4527.00,1.24
4526.00,1.24
4525.00,1.24
4524.00,1.24
4523.00,1.24
4522.00,1.24
4521.00,1.24
4520.00,1.24
4519.00,1.24
4518.00,1.24
4517.00,1.24
4516.00,1.24
4515.00,1.24
4514.00,1.24
4513.00,1.24
4512.00,1.24
4511.00,1.24
4510.00,1.24
4509.00,1.24
4508.00,1.24
4507.00,1.24
4506.00,1.24
4505.00,1.24
4504.00,1.24
4503.00,1.24
4502.00,1.24
4501.00,1.24
4500.00,1.24
4499.00,1.24
4498.00,1.24
4497.00,1.24
4496.00,1.24
4495.00,1.24
4494.00,1.24
4493.00,1.24
4492.00,1.24
4491.00,1.24
4490.00,1.24
4489.00,1.24
4488.00,1.24
4487.00,1.24
4486.00,1.24
4485.00,1.24
4484.00,1.24
4483.00,1.24
4482.00,1.24
4481.00,1.23
4480.00,1.23
4479.00,1.23
4478.00,1.23
4477.00,1.23
4476.00,1.22
4475.00,1.22
4474.00,1.22
4473.00,1.21
4472.00,1.21
4471.00,1.21
4470.00,1.20
4469.00,1.20
4468.00,1.19
4467.00,1.19
4466.00,1.19
4465.00,1.18
4464.00,1.18
4463.00,1.17
4462.00,1.17
4461.00,1.16
4460.00,1.16
4459.00,1.15
4458.00,1.15
4457.00,1.14
4456.00,1.14
4455.00,1.13
4454.00,1.13
4453.00,1.12
4452.00,1.12
4451.00,1.11
4450.00,1.11
4449.00,1.11
4448.00,1.10
4447.00,1.10
4446.00,1.09
4445.00,1.09
4444.00,1.08
4443.00,1.08
4442.00,1.07
4441.00,1.07
4440.00,1.06
4439.00,1.06
4438.00,1.05
4437.00,1.05
4436.00,1.04
4435.00,1.04
4434.00,1.03
4433.00,1.02
4432.00,1.02
4431.00,1.01
4430.00,1.01
4429.00,1.00
4428.00,1.00
4427.00,0.99
4426.00,0.99
4425.00,0.98
4424.00,0.98
4423.00,0.97
4422.00,0.97
4421.00,0.97
4420.00,0.96
4419.00,0.96
4418.00,0.95
4417.00,0.95
4416.00,0.95
4415.00,0.95
4414.00,0.94
4413.00,0.94
4412.00,0.94
4411.00,0.94
4410.00,0.93
4409.00,0.93
4408.00,0.93
4407.00,0.93
4406.00,0.93
4405.00,0.93
4404.00,0.93
4403.00,0.93
4402.00,0.93
4401.00,0.93
4400.00,0.93
4399.00,0.93
4398.00,0.93
4397.00,0.93
4396.00,0.93
4395.00,0.93
4394.00,0.93
4393.00,0.94
4392.00,0.94
4391.00,0.94
4390.00,0.94
4389.00,0.94
4388.00,0.95
4387.00,0.95
4386.00,0.95
4385.00,0.95
4384.00,0.96
4383.00,0.96
4382.00,0.96
4381.00,0.96
4380.00,0.97
4379.00,0.97
4378.00,0.97
4377.00,0.97
4376.00,0.98
4375.00,0.98
4374.00,0.98
4373.00,0.99
4372.00,0.99
4371.00,0.99
4370.00,0.99
4369.00,0.99
4368.00,0.99
4367.00,0.99
4366.00,0.99
4365.00,0.99
4364.00,0.99
4363.00,0.99
4362.00,0.99
4361.00,0.99
4360.00,0.99
4359.00,0.99
4358.00,0.99
4357.00,0.98
4356.00,0.98
4355.00,0.98
4354.00,0.98
4353.00,0.98
4352.00,0.97
4351.00,0.97
4350.00,0.97
4349.00,0.97
4348.00,0.96
4347.00,0.96
4346.00,0.96
4345.00,0.96
4344.00,0.95
4343.00,0.95
4342.00,0.95
4341.00,0.95
4340.00,0.95
4339.00,0.95
4338.00,0.95
4337.00,0.95
4336.00,0.95
4335.00,0.95
4334.00,0.95
4333.00,0.96
4332.00,0.96
4331.00,0.96
4330.00,0.96
4329.00,0.97
4328.00,0.97
4327.00,0.97
4326.00,0.98
4325.00,0.98
4324.00,0.98
4323.00,0.99
4322.00,0.99
4321.00,1.00
4320.00,1.00
4319.00,1.01
4318.00,1.02
4317.00,1.02
4316.00,1.03
4315.00,1.03
4314.00,1.04
4313.00,1.04
4312.00,1.05
4311.00,1.05
4310.00,1.06
4309.00,1.06
4308.00,1.07
4307.00,1.07
4306.00,1.08
4305.00,1.08
4304.00,1.09
4303.00,1.09
4302.00,1.09
4301.00,1.10
4300.00,1.10
4299.00,1.10
4298.00,1.10
4297.00,1.11
4296.00,1.11
4295.00,1.11
4294.00,1.11
4293.00,1.11
4292.00,1.11
4291.00,1.11
4290.00,1.11
4289.00,1.11
4288.00,1.11
4287.00,1.11
4286.00,1.11
4285.00,1.11
4284.00,1.10
4283.00,1.10
4282.00,1.10
4281.00,1.10
4280.00,1.09
4279.00,1.09
4278.00,1.09
4277.00,1.09
4276.00,1.08
4275.00,1.08
4274.00,1.08
4273.00,1.07
4272.00,1.07
4271.00,1.07
4270.00,1.06
4269.00,1.06
4268.00,1.06
4267.00,1.06
4266.00,1.06
4265.00,1.05
4264.00,1.05
4263.00,1.05
4262.00,1.05
4261.00,1.05
4260.00,1.05
4259.00,1.05
4258.00,1.05
4257.00,1.06
4256.00,1.06
4255.00,1.06
4254.00,1.06
4253.00,1.06
4252.00,1.06
4251.00,1.06
4250.00,1.07
4249.00,1.07
4248.00,1.07
4247.00,1.08
4246.00,1.08
4245.00,1.08
4244.00,1.09
4243.00,1.09
4242.00,1.10
4241.00,1.10
4240.00,1.10
4239.00,1.10
4238.00,1.11
4237.00,1.11
4236.00,1.11
4235.00,1.11
4234.00,1.11
4233.00,1.11
4232.00,1.11
4231.00,1.12
4230.00,1.12
4229.00,1.12
4228.00,1.12
4227.00,1.12
4226.00,1.12
4225.00,1.12
4224.00,1.12
4223.00,1.12
4222.00,1.12
4221.00,1.12
4220.00,1.12
4219.00,1.12
4218.00,1.12
4217.00,1.12
4216.00,1.12
4215.00,1.12
4214.00,1.12
4213.00,1.12
4212.00,1.13
4211.00,1.13
4210.00,1.13
4209.00,1.13
4208.00,1.13
4207.00,1.14
4206.00,1.14
4205.00,1.14
4204.00,1.14
4203.00,1.14
4202.00,1.14
4201.00,1.14
4200.00,1.15
4199.00,1.15
4198.00,1.15
4197.00,1.15
4196.00,1.15
4195.00,1.15
4194.00,1.15
4193.00,1.15
4192.00,1.15
4191.00,1.15
4190.00,1.15
4189.00,1.14
4188.00,1.14
4187.00,1.14
4186.00,1.14
4185.00,1.13
4184.00,1.13
4183.00,1.13
4182.00,1.13
4181.00,1.12
4180.00,1.12
4179.00,1.12
4178.00,1.11
4177.00,1.11
4176.00,1.11
4175.00,1.11
4174.00,1.11
4173.00,1.10
4172.00,1.10
4171.00,1.10
4170.00,1.10
4169.00,1.10
4168.00,1.10
4167.00,1.10
4166.00,1.10
4165.00,1.10
4164.00,1.10
4163.00,1.10
4162.00,1.11
4161.00,1.11
4160.00,1.11
4159.00,1.12
4158.00,1.12
4157.00,1.12
4156.00,1.13
4155.00,1.13
4154.00,1.13
4153.00,1.13
4152.00,1.14
4151.00,1.14
4150.00,1.14
4149.00,1.14
4148.00,1.14
4147.00,1.15
4146.00,1.15
4145.00,1.15
4144.00,1.15
4143.00,1.15
4142.00,1.15
4141.00,1.15
4140.00,1.16
4139.00,1.16
4138.00,1.16
4137.00,1.16
4136.00,1.16
4135.00,1.16
4134.00,1.15
4133.00,1.15
4132.00,1.15
4131.00,1.15
4130.00,1.15
4129.00,1.14
4128.00,1.14
4127.00,1.14
4126.00,1.14
4125.00,1.13
4124.00,1.13
4123.00,1.13
4122.00,1.13
4121.00,1.12
4120.00,1.12
4119.00,1.12
4118.00,1.11
4117.00,1.11
4116.00,1.11
4115.00,1.10
4114.00,1.10
4113.00,1.10
4112.00,1.10
4111.00,1.09
4110.00,1.09
4109.00,1.08
4108.00,1.08
4107.00,1.08
4106.00,1.08
4105.00,1.07
4104.00,1.07
4103.00,1.07
4102.00,1.07
4101.00,1.07
4100.00,1.07
4099.00,1.07
4098.00,1.07
4097.00,1.08
4096.00,1.08
4095.00,1.08
4094.00,1.08
4093.00,1.08
4092.00,1.09
4091.00,1.09
4090.00,1.09
4089.00,1.09
4088.00,1.09
4087.00,1.10
4086.00,1.10
4085.00,1.10
4084.00,1.10
4083.00,1.10
4082.00,1.11
4081.00,1.11
4080.00,1.11
4079.00,1.11
4078.00,1.11
4077.00,1.11
4076.00,1.11
4075.00,1.11
4074.00,1.11
4073.00,1.11
4072.00,1.11
4071.00,1.12
4070.00,1.12
4069.00,1.12
4068.00,1.11
4067.00,1.11
4066.00,1.11
4065.00,1.11
4064.00,1.12
4063.00,1.12
4062.00,1.12
4061.00,1.12
4060.00,1.12
4059.00,1.13
4058.00,1.13
4057.00,1.14
4056.00,1.14
4055.00,1.15
4054.00,1.15
4053.00,1.16
4052.00,1.16
4051.00,1.17
4050.00,1.17
4049.00,1.18
4048.00,1.18
4047.00,1.19
4046.00,1.19
4045.00,1.20
4044.00,1.20
4043.00,1.21
4042.00,1.21
4041.00,1.22
4040.00,1.22
4039.00,1.23
4038.00,1.23
4037.00,1.24
4036.00,1.24
4035.00,1.25
4034.00,1.25
4033.00,1.25
4032.00,1.26
4031.00,1.26
4030.00,1.26
4029.00,1.26
4028.00,1.26
4027.00,1.26
4026.00,1.26
4025.00,1.26
4024.00,1.27
4023.00,1.27
4022.00,1.27
4021.00,1.28
4020.00,1.28
4019.00,1.29
4018.00,1.29
4017.00,1.30
4016.00,1.30
4015.00,1.31
4014.00,1.32
4013.00,1.32
4012.00,1.33
4011.00,1.34
4010.00,1.35
4009.00,1.36
4008.00,1.37
4007.00,1.38
4006.00,1.39
4005.00,1.40
4004.00,1.41
4003.00,1.42
4002.00,1.43
4001.00,1.45
4000.00,1.46
