创建为新数据集,样品 372 用户 Administrator 日期 星期日, 七月 28 2019
cm-1,%T
10000.00,1.82
9999.00,1.83
9998.00,1.84
9997.00,1.85
9996.00,1.86
9995.00,1.87
9994.00,1.88
9993.00,1.89
9992.00,1.90
9991.00,1.91
9990.00,1.91
9989.00,1.92
9988.00,1.92
9987.00,1.92
9986.00,1.92
9985.00,1.91
9984.00,1.91
9983.00,1.90
9982.00,1.89
9981.00,1.88
9980.00,1.86
9979.00,1.85
9978.00,1.84
9977.00,1.82
9976.00,1.81
9975.00,1.80
9974.00,1.78
9973.00,1.77
9972.00,1.75
9971.00,1.74
9970.00,1.73
9969.00,1.71
9968.00,1.70
9967.00,1.68
9966.00,1.67
9965.00,1.65
9964.00,1.64
9963.00,1.63
9962.00,1.62
9961.00,1.61
9960.00,1.60
9959.00,1.60
9958.00,1.60
9957.00,1.59
9956.00,1.59
9955.00,1.59
9954.00,1.59
9953.00,1.59
9952.00,1.59
9951.00,1.58
9950.00,1.58
9949.00,1.58
9948.00,1.58
9947.00,1.58
9946.00,1.58
9945.00,1.59
9944.00,1.59
9943.00,1.59
9942.00,1.59
9941.00,1.60
9940.00,1.60
9939.00,1.60
9938.00,1.60
9937.00,1.60
9936.00,1.60
9935.00,1.60
9934.00,1.59
9933.00,1.59
9932.00,1.58
9931.00,1.58
9930.00,1.57
9929.00,1.56
9928.00,1.56
9927.00,1.55
9926.00,1.55
9925.00,1.55
9924.00,1.55
9923.00,1.55
9922.00,1.54
9921.00,1.54
9920.00,1.54
9919.00,1.54
9918.00,1.54
9917.00,1.54
9916.00,1.54
9915.00,1.54
9914.00,1.54
9913.00,1.54
9912.00,1.54
9911.00,1.54
9910.00,1.54
9909.00,1.55
9908.00,1.55
9907.00,1.56
9906.00,1.57
9905.00,1.58
9904.00,1.59
9903.00,1.60
9902.00,1.61
9901.00,1.62
9900.00,1.63
9899.00,1.63
9898.00,1.64
9897.00,1.65
9896.00,1.65
9895.00,1.66
9894.00,1.66
9893.00,1.66
9892.00,1.66
9891.00,1.67
9890.00,1.67
9889.00,1.67
9888.00,1.67
9887.00,1.67
9886.00,1.67
9885.00,1.67
9884.00,1.66
9883.00,1.66
9882.00,1.65
9881.00,1.64
9880.00,1.63
9879.00,1.62
9878.00,1.61
9877.00,1.60
9876.00,1.59
9875.00,1.58
9874.00,1.57
9873.00,1.56
9872.00,1.55
9871.00,1.54
9870.00,1.53
9869.00,1.51
9868.00,1.50
9867.00,1.49
9866.00,1.49
9865.00,1.48
9864.00,1.47
9863.00,1.46
9862.00,1.46
9861.00,1.45
9860.00,1.45
9859.00,1.44
9858.00,1.44
9857.00,1.43
9856.00,1.43
9855.00,1.43
9854.00,1.43
9853.00,1.43
9852.00,1.43
9851.00,1.43
9850.00,1.43
9849.00,1.43
9848.00,1.43
9847.00,1.43
9846.00,1.44
9845.00,1.44
9844.00,1.45
9843.00,1.45
9842.00,1.46
9841.00,1.46
9840.00,1.47
9839.00,1.48
9838.00,1.48
9837.00,1.49
9836.00,1.49
9835.00,1.50
9834.00,1.50
9833.00,1.51
9832.00,1.51
9831.00,1.51
9830.00,1.52
9829.00,1.52
9828.00,1.52
9827.00,1.52
9826.00,1.52
9825.00,1.52
9824.00,1.52
9823.00,1.52
9822.00,1.51
9821.00,1.51
9820.00,1.50
9819.00,1.50
9818.00,1.49
9817.00,1.48
9816.00,1.47
9815.00,1.46
9814.00,1.45
9813.00,1.43
9812.00,1.42
9811.00,1.41
9810.00,1.40
9809.00,1.39
9808.00,1.38
9807.00,1.37
9806.00,1.36
9805.00,1.35
9804.00,1.34
9803.00,1.34
9802.00,1.33
9801.00,1.33
9800.00,1.33
9799.00,1.32
9798.00,1.33
9797.00,1.33
9796.00,1.33
9795.00,1.34
9794.00,1.35
9793.00,1.36
9792.00,1.37
9791.00,1.38
9790.00,1.39
9789.00,1.41
9788.00,1.42
9787.00,1.44
9786.00,1.45
9785.00,1.47
9784.00,1.48
9783.00,1.49
9782.00,1.50
9781.00,1.52
9780.00,1.53
9779.00,1.53
9778.00,1.54
9777.00,1.55
9776.00,1.55
9775.00,1.56
9774.00,1.56
9773.00,1.57
9772.00,1.57
9771.00,1.57
9770.00,1.56
9769.00,1.56
9768.00,1.55
9767.00,1.55
9766.00,1.54
9765.00,1.53
9764.00,1.52
9763.00,1.51
9762.00,1.50
9761.00,1.49
9760.00,1.48
9759.00,1.48
9758.00,1.47
9757.00,1.46
9756.00,1.45
9755.00,1.45
9754.00,1.44
9753.00,1.44
9752.00,1.43
9751.00,1.43
9750.00,1.43
9749.00,1.43
9748.00,1.43
9747.00,1.43
9746.00,1.43
9745.00,1.43
9744.00,1.43
9743.00,1.43
9742.00,1.44
9741.00,1.44
9740.00,1.45
9739.00,1.46
9738.00,1.46
9737.00,1.47
9736.00,1.48
9735.00,1.49
9734.00,1.50
9733.00,1.51
9732.00,1.52
9731.00,1.53
9730.00,1.54
9729.00,1.55
9728.00,1.56
9727.00,1.57
9726.00,1.58
9725.00,1.59
9724.00,1.60
9723.00,1.61
9722.00,1.62
9721.00,1.63
9720.00,1.64
9719.00,1.64
9718.00,1.65
9717.00,1.65
9716.00,1.66
9715.00,1.66
9714.00,1.66
9713.00,1.66
9712.00,1.66
9711.00,1.66
9710.00,1.66
9709.00,1.65
9708.00,1.65
9707.00,1.65
9706.00,1.64
9705.00,1.64
9704.00,1.63
9703.00,1.62
9702.00,1.62
9701.00,1.61
9700.00,1.60
9699.00,1.60
9698.00,1.59
9697.00,1.58
9696.00,1.57
9695.00,1.57
9694.00,1.56
9693.00,1.56
9692.00,1.55
9691.00,1.55
9690.00,1.55
9689.00,1.55
9688.00,1.54
9687.00,1.54
9686.00,1.54
9685.00,1.54
9684.00,1.55
9683.00,1.55
9682.00,1.55
9681.00,1.55
9680.00,1.55
9679.00,1.55
9678.00,1.55
9677.00,1.55
9676.00,1.55
9675.00,1.56
9674.00,1.56
9673.00,1.56
9672.00,1.57
9671.00,1.57
9670.00,1.57
9669.00,1.58
9668.00,1.58
9667.00,1.58
9666.00,1.59
9665.00,1.59
9664.00,1.59
9663.00,1.59
9662.00,1.59
9661.00,1.59
9660.00,1.59
9659.00,1.60
9658.00,1.60
9657.00,1.60
9656.00,1.60
9655.00,1.61
9654.00,1.61
9653.00,1.61
9652.00,1.61
9651.00,1.62
9650.00,1.62
9649.00,1.62
9648.00,1.62
9647.00,1.62
9646.00,1.62
9645.00,1.62
9644.00,1.62
9643.00,1.62
9642.00,1.62
9641.00,1.62
9640.00,1.62
9639.00,1.62
9638.00,1.62
9637.00,1.63
9636.00,1.63
9635.00,1.63
9634.00,1.63
9633.00,1.62
9632.00,1.62
9631.00,1.62
9630.00,1.61
9629.00,1.61
9628.00,1.61
9627.00,1.60
9626.00,1.60
9625.00,1.60
9624.00,1.60
9623.00,1.59
9622.00,1.59
9621.00,1.59
9620.00,1.59
9619.00,1.59
9618.00,1.59
9617.00,1.59
9616.00,1.59
9615.00,1.60
9614.00,1.60
9613.00,1.60
9612.00,1.60
9611.00,1.61
9610.00,1.61
9609.00,1.61
9608.00,1.62
9607.00,1.62
9606.00,1.63
9605.00,1.63
9604.00,1.64
9603.00,1.65
9602.00,1.66
9601.00,1.66
9600.00,1.67
9599.00,1.68
9598.00,1.69
9597.00,1.70
9596.00,1.70
9595.00,1.71
9594.00,1.72
9593.00,1.72
9592.00,1.73
9591.00,1.73
9590.00,1.73
9589.00,1.73
9588.00,1.73
9587.00,1.73
9586.00,1.73
9585.00,1.72
9584.00,1.72
9583.00,1.71
9582.00,1.71
9581.00,1.70
9580.00,1.69
9579.00,1.68
9578.00,1.67
9577.00,1.66
9576.00,1.65
9575.00,1.64
9574.00,1.63
9573.00,1.62
9572.00,1.61
9571.00,1.60
9570.00,1.59
9569.00,1.58
9568.00,1.56
9567.00,1.55
9566.00,1.54
9565.00,1.53
9564.00,1.52
9563.00,1.51
9562.00,1.50
9561.00,1.50
9560.00,1.49
9559.00,1.49
9558.00,1.48
9557.00,1.48
9556.00,1.48
9555.00,1.48
9554.00,1.48
9553.00,1.48
9552.00,1.48
9551.00,1.48
9550.00,1.48
9549.00,1.48
9548.00,1.49
9547.00,1.49
9546.00,1.49
9545.00,1.49
9544.00,1.49
9543.00,1.50
9542.00,1.50
9541.00,1.50
9540.00,1.51
9539.00,1.51
9538.00,1.52
9537.00,1.53
9536.00,1.53
9535.00,1.54
9534.00,1.55
9533.00,1.56
9532.00,1.56
9531.00,1.57
9530.00,1.58
9529.00,1.59
9528.00,1.59
9527.00,1.60
9526.00,1.61
9525.00,1.61
9524.00,1.62
9523.00,1.63
9522.00,1.63
9521.00,1.64
9520.00,1.64
9519.00,1.65
9518.00,1.66
9517.00,1.66
9516.00,1.67
9515.00,1.67
9514.00,1.68
9513.00,1.68
9512.00,1.69
9511.00,1.69
9510.00,1.69
9509.00,1.69
9508.00,1.69
9507.00,1.69
9506.00,1.69
9505.00,1.69
9504.00,1.69
9503.00,1.68
9502.00,1.68
9501.00,1.67
9500.00,1.66
9499.00,1.65
9498.00,1.65
9497.00,1.64
9496.00,1.63
9495.00,1.62
9494.00,1.61
9493.00,1.61
9492.00,1.60
9491.00,1.59
9490.00,1.59
9489.00,1.58
9488.00,1.57
9487.00,1.57
9486.00,1.56
9485.00,1.55
9484.00,1.55
9483.00,1.54
9482.00,1.54
9481.00,1.53
9480.00,1.53
9479.00,1.53
9478.00,1.53
9477.00,1.52
9476.00,1.52
9475.00,1.52
9474.00,1.53
9473.00,1.53
9472.00,1.53
9471.00,1.53
9470.00,1.53
9469.00,1.53
9468.00,1.52
9467.00,1.52
9466.00,1.52
9465.00,1.52
9464.00,1.52
9463.00,1.52
9462.00,1.51
9461.00,1.51
9460.00,1.51
9459.00,1.50
9458.00,1.50
9457.00,1.50
9456.00,1.50
9455.00,1.49
9454.00,1.49
9453.00,1.49
9452.00,1.49
9451.00,1.48
9450.00,1.48
9449.00,1.48
9448.00,1.48
9447.00,1.47
9446.00,1.47
9445.00,1.47
9444.00,1.47
9443.00,1.47
9442.00,1.48
9441.00,1.48
9440.00,1.48
9439.00,1.49
9438.00,1.49
9437.00,1.49
9436.00,1.50
9435.00,1.50
9434.00,1.51
9433.00,1.51
9432.00,1.51
9431.00,1.51
9430.00,1.51
9429.00,1.51
9428.00,1.51
9427.00,1.51
9426.00,1.51
9425.00,1.51
9424.00,1.51
9423.00,1.51
9422.00,1.51
9421.00,1.51
9420.00,1.51
9419.00,1.50
9418.00,1.50
9417.00,1.50
9416.00,1.49
9415.00,1.49
9414.00,1.49
9413.00,1.48
9412.00,1.48
9411.00,1.47
9410.00,1.47
9409.00,1.46
9408.00,1.46
9407.00,1.46
9406.00,1.45
9405.00,1.45
9404.00,1.45
9403.00,1.45
9402.00,1.45
9401.00,1.45
9400.00,1.45
9399.00,1.45
9398.00,1.45
9397.00,1.45
9396.00,1.46
9395.00,1.46
9394.00,1.46
9393.00,1.46
9392.00,1.47
9391.00,1.47
9390.00,1.48
9389.00,1.48
9388.00,1.49
9387.00,1.49
9386.00,1.50
9385.00,1.50
9384.00,1.50
9383.00,1.51
9382.00,1.51
9381.00,1.51
9380.00,1.52
9379.00,1.52
9378.00,1.52
9377.00,1.52
9376.00,1.52
9375.00,1.53
9374.00,1.53
9373.00,1.53
9372.00,1.53
9371.00,1.53
9370.00,1.53
9369.00,1.54
9368.00,1.54
9367.00,1.54
9366.00,1.54
9365.00,1.54
9364.00,1.55
9363.00,1.55
9362.00,1.55
9361.00,1.55
9360.00,1.56
9359.00,1.56
9358.00,1.57
9357.00,1.57
9356.00,1.58
9355.00,1.58
9354.00,1.59
9353.00,1.59
9352.00,1.60
9351.00,1.61
9350.00,1.61
9349.00,1.62
9348.00,1.63
9347.00,1.63
9346.00,1.64
9345.00,1.64
9344.00,1.65
9343.00,1.65
9342.00,1.65
9341.00,1.65
9340.00,1.65
9339.00,1.65
9338.00,1.65
9337.00,1.65
9336.00,1.65
9335.00,1.65
9334.00,1.64
9333.00,1.64
9332.00,1.64
9331.00,1.63
9330.00,1.62
9329.00,1.62
9328.00,1.61
9327.00,1.61
9326.00,1.60
9325.00,1.59
9324.00,1.59
9323.00,1.58
9322.00,1.57
9321.00,1.57
9320.00,1.56
9319.00,1.56
9318.00,1.55
9317.00,1.54
9316.00,1.54
9315.00,1.54
9314.00,1.53
9313.00,1.53
9312.00,1.53
9311.00,1.53
9310.00,1.53
9309.00,1.53
9308.00,1.53
9307.00,1.53
9306.00,1.53
9305.00,1.53
9304.00,1.53
9303.00,1.54
9302.00,1.54
9301.00,1.54
9300.00,1.54
9299.00,1.54
9298.00,1.55
9297.00,1.55
9296.00,1.55
9295.00,1.55
9294.00,1.55
9293.00,1.56
9292.00,1.56
9291.00,1.56
9290.00,1.57
9289.00,1.57
9288.00,1.58
9287.00,1.58
9286.00,1.59
9285.00,1.59
9284.00,1.59
9283.00,1.60
9282.00,1.60
9281.00,1.61
9280.00,1.61
9279.00,1.61
9278.00,1.62
9277.00,1.62
9276.00,1.63
9275.00,1.63
9274.00,1.63
9273.00,1.64
9272.00,1.64
9271.00,1.65
9270.00,1.65
9269.00,1.66
9268.00,1.66
9267.00,1.67
9266.00,1.67
9265.00,1.67
9264.00,1.68
9263.00,1.68
9262.00,1.68
9261.00,1.68
9260.00,1.68
9259.00,1.68
9258.00,1.67
9257.00,1.67
9256.00,1.67
9255.00,1.67
9254.00,1.67
9253.00,1.67
9252.00,1.66
9251.00,1.66
9250.00,1.66
9249.00,1.66
9248.00,1.66
9247.00,1.65
9246.00,1.65
9245.00,1.65
9244.00,1.64
9243.00,1.64
9242.00,1.64
9241.00,1.63
9240.00,1.63
9239.00,1.63
9238.00,1.63
9237.00,1.63
9236.00,1.63
9235.00,1.63
9234.00,1.63
9233.00,1.63
9232.00,1.63
9231.00,1.63
9230.00,1.63
9229.00,1.63
9228.00,1.63
9227.00,1.63
9226.00,1.63
9225.00,1.63
9224.00,1.63
9223.00,1.63
9222.00,1.63
9221.00,1.63
9220.00,1.63
9219.00,1.63
9218.00,1.63
9217.00,1.62
9216.00,1.62
9215.00,1.62
9214.00,1.62
9213.00,1.62
9212.00,1.61
9211.00,1.61
9210.00,1.61
9209.00,1.60
9208.00,1.60
9207.00,1.60
9206.00,1.60
9205.00,1.59
9204.00,1.59
9203.00,1.59
9202.00,1.59
9201.00,1.59
9200.00,1.59
9199.00,1.59
9198.00,1.59
9197.00,1.59
9196.00,1.59
9195.00,1.59
9194.00,1.59
9193.00,1.59
9192.00,1.60
9191.00,1.60
9190.00,1.60
9189.00,1.60
9188.00,1.61
9187.00,1.61
9186.00,1.61
9185.00,1.62
9184.00,1.62
9183.00,1.62
9182.00,1.62
9181.00,1.62
9180.00,1.62
9179.00,1.62
9178.00,1.62
9177.00,1.62
9176.00,1.62
9175.00,1.61
9174.00,1.61
9173.00,1.60
9172.00,1.60
9171.00,1.59
9170.00,1.59
9169.00,1.58
9168.00,1.57
9167.00,1.57
9166.00,1.56
9165.00,1.55
9164.00,1.54
9163.00,1.53
9162.00,1.52
9161.00,1.51
9160.00,1.50
9159.00,1.49
9158.00,1.48
9157.00,1.47
9156.00,1.46
9155.00,1.46
9154.00,1.45
9153.00,1.44
9152.00,1.44
9151.00,1.43
9150.00,1.43
9149.00,1.43
9148.00,1.42
9147.00,1.42
9146.00,1.42
9145.00,1.42
9144.00,1.43
9143.00,1.43
9142.00,1.43
9141.00,1.44
9140.00,1.44
9139.00,1.44
9138.00,1.45
9137.00,1.45
9136.00,1.46
9135.00,1.46
9134.00,1.47
9133.00,1.48
9132.00,1.48
9131.00,1.49
9130.00,1.49
9129.00,1.50
9128.00,1.51
9127.00,1.51
9126.00,1.52
9125.00,1.52
9124.00,1.53
9123.00,1.53
9122.00,1.54
9121.00,1.54
9120.00,1.55
9119.00,1.55
9118.00,1.56
9117.00,1.57
9116.00,1.57
9115.00,1.58
9114.00,1.58
9113.00,1.59
9112.00,1.59
9111.00,1.60
9110.00,1.61
9109.00,1.61
9108.00,1.62
9107.00,1.62
9106.00,1.63
9105.00,1.63
9104.00,1.64
9103.00,1.64
9102.00,1.64
9101.00,1.65
9100.00,1.65
9099.00,1.66
9098.00,1.66
9097.00,1.66
9096.00,1.66
9095.00,1.66
9094.00,1.66
9093.00,1.66
9092.00,1.65
9091.00,1.65
9090.00,1.65
9089.00,1.64
9088.00,1.63
9087.00,1.63
9086.00,1.62
9085.00,1.62
9084.00,1.61
9083.00,1.60
9082.00,1.60
9081.00,1.59
9080.00,1.58
9079.00,1.58
9078.00,1.57
9077.00,1.57
9076.00,1.56
9075.00,1.55
9074.00,1.55
9073.00,1.54
9072.00,1.54
9071.00,1.53
9070.00,1.53
9069.00,1.52
9068.00,1.52
9067.00,1.52
9066.00,1.52
9065.00,1.52
9064.00,1.52
9063.00,1.52
9062.00,1.52
9061.00,1.52
9060.00,1.53
9059.00,1.53
9058.00,1.53
9057.00,1.54
9056.00,1.54
9055.00,1.54
9054.00,1.55
9053.00,1.55
9052.00,1.55
9051.00,1.55
9050.00,1.56
9049.00,1.56
9048.00,1.56
9047.00,1.56
9046.00,1.56
9045.00,1.57
9044.00,1.57
9043.00,1.58
9042.00,1.58
9041.00,1.58
9040.00,1.59
9039.00,1.59
9038.00,1.59
9037.00,1.59
9036.00,1.60
9035.00,1.60
9034.00,1.60
9033.00,1.59
9032.00,1.59
9031.00,1.59
9030.00,1.59
9029.00,1.58
9028.00,1.58
9027.00,1.58
9026.00,1.58
9025.00,1.58
9024.00,1.57
9023.00,1.57
9022.00,1.57
9021.00,1.57
9020.00,1.57
9019.00,1.56
9018.00,1.56
9017.00,1.56
9016.00,1.55
9015.00,1.55
9014.00,1.55
9013.00,1.54
9012.00,1.54
9011.00,1.54
9010.00,1.54
9009.00,1.54
9008.00,1.54
9007.00,1.54
9006.00,1.54
9005.00,1.54
9004.00,1.54
9003.00,1.55
9002.00,1.55
9001.00,1.55
9000.00,1.56
8999.00,1.56
8998.00,1.57
8997.00,1.57
8996.00,1.58
8995.00,1.59
8994.00,1.59
8993.00,1.60
8992.00,1.61
8991.00,1.61
8990.00,1.62
8989.00,1.62
8988.00,1.63
8987.00,1.63
8986.00,1.63
8985.00,1.63
8984.00,1.63
8983.00,1.63
8982.00,1.63
8981.00,1.64
8980.00,1.64
8979.00,1.64
8978.00,1.64
8977.00,1.64
8976.00,1.64
8975.00,1.64
8974.00,1.64
8973.00,1.64
8972.00,1.64
8971.00,1.64
8970.00,1.64
8969.00,1.64
8968.00,1.64
8967.00,1.63
8966.00,1.63
8965.00,1.63
8964.00,1.63
8963.00,1.63
8962.00,1.63
8961.00,1.63
8960.00,1.63
8959.00,1.63
8958.00,1.64
8957.00,1.64
8956.00,1.64
8955.00,1.64
8954.00,1.65
8953.00,1.65
8952.00,1.65
8951.00,1.65
8950.00,1.65
8949.00,1.65
8948.00,1.65
8947.00,1.65
8946.00,1.65
8945.00,1.65
8944.00,1.65
8943.00,1.65
8942.00,1.65
8941.00,1.65
8940.00,1.65
8939.00,1.64
8938.00,1.64
8937.00,1.64
8936.00,1.64
8935.00,1.64
8934.00,1.64
8933.00,1.64
8932.00,1.63
8931.00,1.63
8930.00,1.63
8929.00,1.63
8928.00,1.63
8927.00,1.63
8926.00,1.63
8925.00,1.63
8924.00,1.63
8923.00,1.63
8922.00,1.63
8921.00,1.63
8920.00,1.63
8919.00,1.63
8918.00,1.64
8917.00,1.64
8916.00,1.64
8915.00,1.64
8914.00,1.64
8913.00,1.64
8912.00,1.65
8911.00,1.65
8910.00,1.65
8909.00,1.65
8908.00,1.66
8907.00,1.66
8906.00,1.66
8905.00,1.67
8904.00,1.67
8903.00,1.67
8902.00,1.68
8901.00,1.68
8900.00,1.68
8899.00,1.68
8898.00,1.68
8897.00,1.68
8896.00,1.68
8895.00,1.68
8894.00,1.67
8893.00,1.67
8892.00,1.67
8891.00,1.67
8890.00,1.67
8889.00,1.66
8888.00,1.66
8887.00,1.66
8886.00,1.66
8885.00,1.66
8884.00,1.65
8883.00,1.65
8882.00,1.65
8881.00,1.64
8880.00,1.64
8879.00,1.63
8878.00,1.63
8877.00,1.62
8876.00,1.62
8875.00,1.61
8874.00,1.61
8873.00,1.60
8872.00,1.59
8871.00,1.59
8870.00,1.59
8869.00,1.58
8868.00,1.58
8867.00,1.57
8866.00,1.57
8865.00,1.57
8864.00,1.56
8863.00,1.56
8862.00,1.56
8861.00,1.56
8860.00,1.56
8859.00,1.56
8858.00,1.55
8857.00,1.55
8856.00,1.55
8855.00,1.55
8854.00,1.55
8853.00,1.56
8852.00,1.56
8851.00,1.56
8850.00,1.56
8849.00,1.56
8848.00,1.56
8847.00,1.57
8846.00,1.57
8845.00,1.58
8844.00,1.58
8843.00,1.58
8842.00,1.59
8841.00,1.59
8840.00,1.60
8839.00,1.61
8838.00,1.61
8837.00,1.62
8836.00,1.62
8835.00,1.62
8834.00,1.63
8833.00,1.63
8832.00,1.63
8831.00,1.64
8830.00,1.64
8829.00,1.64
8828.00,1.64
8827.00,1.64
8826.00,1.64
8825.00,1.64
8824.00,1.64
8823.00,1.64
8822.00,1.63
8821.00,1.63
8820.00,1.63
8819.00,1.63
8818.00,1.62
8817.00,1.62
8816.00,1.61
8815.00,1.60
8814.00,1.60
8813.00,1.59
8812.00,1.58
8811.00,1.57
8810.00,1.57
8809.00,1.56
8808.00,1.55
8807.00,1.55
8806.00,1.54
8805.00,1.53
8804.00,1.53
8803.00,1.53
8802.00,1.52
8801.00,1.52
8800.00,1.52
8799.00,1.52
8798.00,1.52
8797.00,1.52
8796.00,1.52
8795.00,1.53
8794.00,1.53
8793.00,1.53
8792.00,1.54
8791.00,1.54
8790.00,1.55
8789.00,1.56
8788.00,1.56
8787.00,1.57
8786.00,1.58
8785.00,1.59
8784.00,1.60
8783.00,1.61
8782.00,1.62
8781.00,1.63
8780.00,1.64
8779.00,1.65
8778.00,1.66
8777.00,1.67
8776.00,1.68
8775.00,1.68
8774.00,1.69
8773.00,1.69
8772.00,1.70
8771.00,1.70
8770.00,1.71
8769.00,1.71
8768.00,1.71
8767.00,1.71
8766.00,1.71
8765.00,1.72
8764.00,1.72
8763.00,1.72
8762.00,1.72
8761.00,1.71
8760.00,1.71
8759.00,1.71
8758.00,1.70
8757.00,1.70
8756.00,1.69
8755.00,1.68
8754.00,1.68
8753.00,1.67
8752.00,1.66
8751.00,1.66
8750.00,1.65
8749.00,1.64
8748.00,1.63
8747.00,1.63
8746.00,1.62
8745.00,1.61
8744.00,1.60
8743.00,1.60
8742.00,1.59
8741.00,1.58
8740.00,1.57
8739.00,1.57
8738.00,1.56
8737.00,1.55
8736.00,1.54
8735.00,1.53
8734.00,1.52
8733.00,1.51
8732.00,1.50
8731.00,1.50
8730.00,1.49
8729.00,1.49
8728.00,1.48
8727.00,1.48
8726.00,1.47
8725.00,1.47
8724.00,1.47
8723.00,1.47
8722.00,1.46
8721.00,1.46
8720.00,1.46
8719.00,1.46
8718.00,1.45
8717.00,1.45
8716.00,1.45
8715.00,1.45
8714.00,1.45
8713.00,1.45
8712.00,1.45
8711.00,1.45
8710.00,1.46
8709.00,1.46
8708.00,1.46
8707.00,1.47
8706.00,1.47
8705.00,1.48
8704.00,1.48
8703.00,1.48
8702.00,1.48
8701.00,1.49
8700.00,1.49
8699.00,1.49
8698.00,1.49
8697.00,1.49
8696.00,1.49
8695.00,1.49
8694.00,1.49
8693.00,1.49
8692.00,1.49
8691.00,1.49
8690.00,1.50
8689.00,1.50
8688.00,1.50
8687.00,1.50
8686.00,1.50
8685.00,1.50
8684.00,1.50
8683.00,1.50
8682.00,1.50
8681.00,1.50
8680.00,1.50
8679.00,1.50
8678.00,1.50
8677.00,1.50
8676.00,1.50
8675.00,1.50
8674.00,1.51
8673.00,1.51
8672.00,1.51
8671.00,1.51
8670.00,1.51
8669.00,1.52
8668.00,1.52
8667.00,1.52
8666.00,1.52
8665.00,1.53
8664.00,1.53
8663.00,1.53
8662.00,1.53
8661.00,1.53
8660.00,1.53
8659.00,1.53
8658.00,1.53
8657.00,1.53
8656.00,1.53
8655.00,1.53
8654.00,1.53
8653.00,1.53
8652.00,1.53
8651.00,1.53
8650.00,1.53
8649.00,1.53
8648.00,1.53
8647.00,1.53
8646.00,1.53
8645.00,1.53
8644.00,1.53
8643.00,1.53
8642.00,1.53
8641.00,1.53
8640.00,1.52
8639.00,1.52
8638.00,1.52
8637.00,1.52
8636.00,1.52
8635.00,1.52
8634.00,1.52
8633.00,1.52
8632.00,1.52
8631.00,1.52
8630.00,1.52
8629.00,1.52
8628.00,1.52
8627.00,1.52
8626.00,1.52
8625.00,1.53
8624.00,1.53
8623.00,1.53
8622.00,1.53
8621.00,1.53
8620.00,1.53
8619.00,1.53
8618.00,1.53
8617.00,1.53
8616.00,1.53
8615.00,1.54
8614.00,1.54
8613.00,1.54
8612.00,1.55
8611.00,1.55
8610.00,1.55
8609.00,1.55
8608.00,1.56
8607.00,1.56
8606.00,1.56
8605.00,1.56
8604.00,1.56
8603.00,1.56
8602.00,1.56
8601.00,1.56
8600.00,1.56
8599.00,1.55
8598.00,1.55
8597.00,1.55
8596.00,1.55
8595.00,1.55
8594.00,1.54
8593.00,1.54
8592.00,1.54
8591.00,1.53
8590.00,1.53
8589.00,1.53
8588.00,1.52
8587.00,1.52
8586.00,1.51
8585.00,1.51
8584.00,1.50
8583.00,1.50
8582.00,1.50
8581.00,1.49
8580.00,1.49
8579.00,1.49
8578.00,1.48
8577.00,1.48
8576.00,1.48
8575.00,1.48
8574.00,1.48
8573.00,1.48
8572.00,1.48
8571.00,1.48
8570.00,1.48
8569.00,1.48
8568.00,1.48
8567.00,1.48
8566.00,1.48
8565.00,1.49
8564.00,1.49
8563.00,1.49
8562.00,1.50
8561.00,1.50
8560.00,1.51
8559.00,1.51
8558.00,1.52
8557.00,1.52
8556.00,1.53
8555.00,1.54
8554.00,1.54
8553.00,1.55
8552.00,1.55
8551.00,1.56
8550.00,1.57
8549.00,1.57
8548.00,1.58
8547.00,1.58
8546.00,1.59
8545.00,1.59
8544.00,1.60
8543.00,1.60
8542.00,1.61
8541.00,1.61
8540.00,1.62
8539.00,1.62
8538.00,1.63
8537.00,1.63
8536.00,1.64
8535.00,1.64
8534.00,1.65
8533.00,1.65
8532.00,1.65
8531.00,1.66
8530.00,1.66
8529.00,1.66
8528.00,1.66
8527.00,1.66
8526.00,1.66
8525.00,1.66
8524.00,1.65
8523.00,1.65
8522.00,1.65
8521.00,1.65
8520.00,1.65
8519.00,1.64
8518.00,1.64
8517.00,1.64
8516.00,1.63
8515.00,1.63
8514.00,1.63
8513.00,1.62
8512.00,1.62
8511.00,1.61
8510.00,1.60
8509.00,1.60
8508.00,1.59
8507.00,1.58
8506.00,1.57
8505.00,1.57
8504.00,1.56
8503.00,1.55
8502.00,1.55
8501.00,1.54
8500.00,1.54
8499.00,1.53
8498.00,1.53
8497.00,1.53
8496.00,1.52
8495.00,1.52
8494.00,1.52
8493.00,1.52
8492.00,1.51
8491.00,1.51
8490.00,1.51
8489.00,1.51
8488.00,1.51
8487.00,1.51
8486.00,1.51
8485.00,1.51
8484.00,1.51
8483.00,1.51
8482.00,1.51
8481.00,1.51
8480.00,1.52
8479.00,1.52
8478.00,1.52
8477.00,1.52
8476.00,1.52
8475.00,1.52
8474.00,1.52
8473.00,1.52
8472.00,1.52
8471.00,1.52
8470.00,1.52
8469.00,1.51
8468.00,1.51
8467.00,1.51
8466.00,1.50
8465.00,1.50
8464.00,1.50
8463.00,1.49
8462.00,1.49
8461.00,1.48
8460.00,1.48
8459.00,1.47
8458.00,1.47
8457.00,1.46
8456.00,1.46
8455.00,1.45
8454.00,1.45
8453.00,1.44
8452.00,1.44
8451.00,1.43
8450.00,1.43
8449.00,1.43
8448.00,1.43
8447.00,1.43
8446.00,1.43
8445.00,1.43
8444.00,1.43
8443.00,1.43
8442.00,1.43
8441.00,1.44
8440.00,1.44
8439.00,1.45
8438.00,1.45
8437.00,1.46
8436.00,1.46
8435.00,1.47
8434.00,1.47
8433.00,1.48
8432.00,1.49
8431.00,1.49
8430.00,1.50
8429.00,1.50
8428.00,1.51
8427.00,1.51
8426.00,1.52
8425.00,1.52
8424.00,1.53
8423.00,1.53
8422.00,1.54
8421.00,1.54
8420.00,1.54
8419.00,1.54
8418.00,1.54
8417.00,1.54
8416.00,1.54
8415.00,1.54
8414.00,1.54
8413.00,1.54
8412.00,1.54
8411.00,1.54
8410.00,1.53
8409.00,1.53
8408.00,1.53
8407.00,1.52
8406.00,1.52
8405.00,1.51
8404.00,1.51
8403.00,1.51
8402.00,1.50
8401.00,1.50
8400.00,1.49
8399.00,1.49
8398.00,1.48
8397.00,1.48
8396.00,1.48
8395.00,1.47
8394.00,1.47
8393.00,1.46
8392.00,1.46
8391.00,1.46
8390.00,1.46
8389.00,1.45
8388.00,1.45
8387.00,1.45
8386.00,1.45
8385.00,1.45
8384.00,1.45
8383.00,1.45
8382.00,1.45
8381.00,1.45
8380.00,1.45
8379.00,1.46
8378.00,1.46
8377.00,1.46
8376.00,1.46
8375.00,1.46
8374.00,1.46
8373.00,1.47
8372.00,1.47
8371.00,1.47
8370.00,1.47
8369.00,1.48
8368.00,1.48
8367.00,1.48
8366.00,1.48
8365.00,1.49
8364.00,1.49
8363.00,1.49
8362.00,1.50
8361.00,1.50
8360.00,1.50
8359.00,1.50
8358.00,1.51
8357.00,1.51
8356.00,1.51
8355.00,1.51
8354.00,1.51
8353.00,1.52
8352.00,1.52
8351.00,1.52
8350.00,1.53
8349.00,1.53
8348.00,1.53
8347.00,1.54
8346.00,1.54
8345.00,1.54
8344.00,1.55
8343.00,1.55
8342.00,1.55
8341.00,1.56
8340.00,1.56
8339.00,1.56
8338.00,1.57
8337.00,1.57
8336.00,1.57
8335.00,1.57
8334.00,1.57
8333.00,1.57
8332.00,1.57
8331.00,1.57
8330.00,1.56
8329.00,1.56
8328.00,1.56
8327.00,1.56
8326.00,1.55
8325.00,1.55
8324.00,1.55
8323.00,1.55
8322.00,1.54
8321.00,1.54
8320.00,1.53
8319.00,1.53
8318.00,1.53
8317.00,1.52
8316.00,1.52
8315.00,1.51
8314.00,1.51
8313.00,1.51
8312.00,1.50
8311.00,1.50
8310.00,1.50
8309.00,1.49
8308.00,1.49
8307.00,1.49
8306.00,1.49
8305.00,1.49
8304.00,1.49
8303.00,1.49
8302.00,1.49
8301.00,1.49
8300.00,1.49
8299.00,1.49
8298.00,1.49
8297.00,1.49
8296.00,1.49
8295.00,1.50
8294.00,1.50
8293.00,1.50
8292.00,1.50
8291.00,1.50
8290.00,1.50
8289.00,1.50
8288.00,1.50
8287.00,1.49
8286.00,1.49
8285.00,1.49
8284.00,1.49
8283.00,1.50
8282.00,1.50
8281.00,1.50
8280.00,1.50
8279.00,1.50
8278.00,1.50
8277.00,1.50
8276.00,1.50
8275.00,1.50
8274.00,1.50
8273.00,1.50
8272.00,1.50
8271.00,1.50
8270.00,1.50
8269.00,1.51
8268.00,1.51
8267.00,1.51
8266.00,1.51
8265.00,1.52
8264.00,1.52
8263.00,1.52
8262.00,1.53
8261.00,1.53
8260.00,1.53
8259.00,1.54
8258.00,1.54
8257.00,1.54
8256.00,1.54
8255.00,1.54
8254.00,1.54
8253.00,1.54
8252.00,1.54
8251.00,1.54
8250.00,1.54
8249.00,1.54
8248.00,1.54
8247.00,1.54
8246.00,1.53
8245.00,1.53
8244.00,1.53
8243.00,1.53
8242.00,1.53
8241.00,1.53
8240.00,1.52
8239.00,1.52
8238.00,1.52
8237.00,1.51
8236.00,1.51
8235.00,1.51
8234.00,1.51
8233.00,1.50
8232.00,1.50
8231.00,1.50
8230.00,1.50
8229.00,1.50
8228.00,1.50
8227.00,1.51
8226.00,1.51
8225.00,1.51
8224.00,1.51
8223.00,1.51
8222.00,1.52
8221.00,1.52
8220.00,1.52
8219.00,1.52
8218.00,1.52
8217.00,1.53
8216.00,1.53
8215.00,1.53
8214.00,1.53
8213.00,1.54
8212.00,1.54
8211.00,1.54
8210.00,1.55
8209.00,1.55
8208.00,1.55
8207.00,1.56
8206.00,1.56
8205.00,1.56
8204.00,1.57
8203.00,1.57
8202.00,1.57
8201.00,1.58
8200.00,1.58
8199.00,1.58
8198.00,1.58
8197.00,1.59
8196.00,1.59
8195.00,1.59
8194.00,1.59
8193.00,1.60
8192.00,1.60
8191.00,1.60
8190.00,1.61
8189.00,1.61
8188.00,1.61
8187.00,1.61
8186.00,1.62
8185.00,1.62
8184.00,1.62
8183.00,1.62
8182.00,1.62
8181.00,1.63
8180.00,1.63
8179.00,1.63
8178.00,1.63
8177.00,1.63
8176.00,1.63
8175.00,1.63
8174.00,1.63
8173.00,1.63
8172.00,1.63
8171.00,1.63
8170.00,1.63
8169.00,1.63
8168.00,1.63
8167.00,1.63
8166.00,1.63
8165.00,1.62
8164.00,1.62
8163.00,1.62
8162.00,1.62
8161.00,1.62
8160.00,1.62
8159.00,1.62
8158.00,1.62
8157.00,1.61
8156.00,1.61
8155.00,1.61
8154.00,1.61
8153.00,1.61
8152.00,1.60
8151.00,1.60
8150.00,1.60
8149.00,1.60
8148.00,1.59
8147.00,1.59
8146.00,1.59
8145.00,1.59
8144.00,1.59
8143.00,1.59
8142.00,1.59
8141.00,1.59
8140.00,1.59
8139.00,1.59
8138.00,1.59
8137.00,1.59
8136.00,1.59
8135.00,1.59
8134.00,1.59
8133.00,1.59
8132.00,1.59
8131.00,1.59
8130.00,1.58
8129.00,1.58
8128.00,1.58
8127.00,1.58
8126.00,1.58
8125.00,1.58
8124.00,1.58
8123.00,1.58
8122.00,1.58
8121.00,1.58
8120.00,1.58
8119.00,1.58
8118.00,1.58
8117.00,1.59
8116.00,1.59
8115.00,1.59
8114.00,1.59
8113.00,1.59
8112.00,1.59
8111.00,1.58
8110.00,1.58
8109.00,1.58
8108.00,1.58
8107.00,1.58
8106.00,1.58
8105.00,1.58
8104.00,1.58
8103.00,1.58
8102.00,1.58
8101.00,1.58
8100.00,1.58
8099.00,1.58
8098.00,1.59
8097.00,1.59
8096.00,1.59
8095.00,1.59
8094.00,1.59
8093.00,1.59
8092.00,1.59
8091.00,1.59
8090.00,1.59
8089.00,1.59
8088.00,1.59
8087.00,1.59
8086.00,1.59
8085.00,1.59
8084.00,1.59
8083.00,1.59
8082.00,1.59
8081.00,1.60
8080.00,1.60
8079.00,1.60
8078.00,1.60
8077.00,1.60
8076.00,1.60
8075.00,1.60
8074.00,1.60
8073.00,1.61
8072.00,1.61
8071.00,1.61
8070.00,1.61
8069.00,1.61
8068.00,1.60
8067.00,1.60
8066.00,1.60
8065.00,1.60
8064.00,1.60
8063.00,1.60
8062.00,1.59
8061.00,1.59
8060.00,1.59
8059.00,1.59
8058.00,1.58
8057.00,1.58
8056.00,1.58
8055.00,1.57
8054.00,1.57
8053.00,1.57
8052.00,1.57
8051.00,1.56
8050.00,1.56
8049.00,1.56
8048.00,1.55
8047.00,1.55
8046.00,1.55
8045.00,1.55
8044.00,1.55
8043.00,1.55
8042.00,1.55
8041.00,1.55
8040.00,1.55
8039.00,1.55
8038.00,1.56
8037.00,1.56
8036.00,1.56
8035.00,1.57
8034.00,1.57
8033.00,1.58
8032.00,1.58
8031.00,1.58
8030.00,1.59
8029.00,1.59
8028.00,1.60
8027.00,1.60
8026.00,1.61
8025.00,1.61
8024.00,1.61
8023.00,1.62
8022.00,1.62
8021.00,1.63
8020.00,1.63
8019.00,1.63
8018.00,1.63
8017.00,1.63
8016.00,1.63
8015.00,1.63
8014.00,1.63
8013.00,1.63
8012.00,1.63
8011.00,1.63
8010.00,1.63
8009.00,1.63
8008.00,1.63
8007.00,1.62
8006.00,1.62
8005.00,1.62
8004.00,1.61
8003.00,1.61
8002.00,1.61
8001.00,1.60
8000.00,1.60
7999.00,1.60
7998.00,1.59
7997.00,1.59
7996.00,1.59
7995.00,1.58
7994.00,1.58
7993.00,1.58
7992.00,1.57
7991.00,1.57
7990.00,1.57
7989.00,1.57
7988.00,1.57
7987.00,1.56
7986.00,1.56
7985.00,1.56
7984.00,1.56
7983.00,1.55
7982.00,1.55
7981.00,1.55
7980.00,1.55
7979.00,1.55
7978.00,1.55
7977.00,1.55
7976.00,1.56
7975.00,1.56
7974.00,1.56
7973.00,1.56
7972.00,1.57
7971.00,1.57
7970.00,1.57
7969.00,1.58
7968.00,1.58
7967.00,1.59
7966.00,1.59
7965.00,1.59
7964.00,1.60
7963.00,1.61
7962.00,1.61
7961.00,1.62
7960.00,1.62
7959.00,1.63
7958.00,1.64
7957.00,1.65
7956.00,1.66
7955.00,1.66
7954.00,1.67
7953.00,1.68
7952.00,1.68
7951.00,1.69
7950.00,1.70
7949.00,1.70
7948.00,1.71
7947.00,1.71
7946.00,1.71
7945.00,1.72
7944.00,1.72
7943.00,1.72
7942.00,1.73
7941.00,1.73
7940.00,1.73
7939.00,1.73
7938.00,1.73
7937.00,1.74
7936.00,1.74
7935.00,1.74
7934.00,1.74
7933.00,1.74
7932.00,1.73
7931.00,1.73
7930.00,1.73
7929.00,1.73
7928.00,1.72
7927.00,1.72
7926.00,1.72
7925.00,1.72
7924.00,1.71
7923.00,1.71
7922.00,1.71
7921.00,1.71
7920.00,1.70
7919.00,1.70
7918.00,1.70
7917.00,1.70
7916.00,1.70
7915.00,1.70
7914.00,1.69
7913.00,1.69
7912.00,1.69
7911.00,1.69
7910.00,1.69
7909.00,1.69
7908.00,1.69
7907.00,1.69
7906.00,1.69
7905.00,1.69
7904.00,1.69
7903.00,1.68
7902.00,1.68
7901.00,1.68
7900.00,1.68
7899.00,1.68
7898.00,1.68
7897.00,1.68
7896.00,1.68
7895.00,1.68
7894.00,1.68
7893.00,1.68
7892.00,1.68
7891.00,1.67
7890.00,1.67
7889.00,1.67
7888.00,1.67
7887.00,1.67
7886.00,1.67
7885.00,1.66
7884.00,1.66
7883.00,1.66
7882.00,1.66
7881.00,1.66
7880.00,1.65
7879.00,1.65
7878.00,1.65
7877.00,1.65
7876.00,1.65
7875.00,1.65
7874.00,1.65
7873.00,1.64
7872.00,1.64
7871.00,1.65
7870.00,1.65
7869.00,1.65
7868.00,1.65
7867.00,1.65
7866.00,1.65
7865.00,1.65
7864.00,1.65
7863.00,1.66
7862.00,1.66
7861.00,1.66
7860.00,1.66
7859.00,1.67
7858.00,1.67
7857.00,1.67
7856.00,1.67
7855.00,1.68
7854.00,1.68
7853.00,1.68
7852.00,1.69
7851.00,1.69
7850.00,1.69
7849.00,1.69
7848.00,1.70
7847.00,1.70
7846.00,1.70
7845.00,1.70
7844.00,1.70
7843.00,1.70
7842.00,1.70
7841.00,1.70
7840.00,1.70
7839.00,1.70
7838.00,1.70
7837.00,1.70
7836.00,1.70
7835.00,1.70
7834.00,1.70
7833.00,1.69
7832.00,1.69
7831.00,1.69
7830.00,1.69
7829.00,1.69
7828.00,1.69
7827.00,1.69
7826.00,1.68
7825.00,1.68
7824.00,1.68
7823.00,1.68
7822.00,1.68
7821.00,1.68
7820.00,1.68
7819.00,1.68
7818.00,1.68
7817.00,1.68
7816.00,1.68
7815.00,1.68
7814.00,1.68
7813.00,1.68
7812.00,1.69
7811.00,1.69
7810.00,1.69
7809.00,1.69
7808.00,1.69
7807.00,1.70
7806.00,1.70
7805.00,1.70
7804.00,1.70
7803.00,1.71
7802.00,1.71
7801.00,1.71
7800.00,1.71
7799.00,1.71
7798.00,1.71
7797.00,1.71
7796.00,1.72
7795.00,1.72
7794.00,1.72
7793.00,1.72
7792.00,1.72
7791.00,1.72
7790.00,1.72
7789.00,1.72
7788.00,1.72
7787.00,1.72
7786.00,1.72
7785.00,1.72
7784.00,1.71
7783.00,1.71
7782.00,1.71
7781.00,1.71
7780.00,1.70
7779.00,1.70
7778.00,1.70
7777.00,1.69
7776.00,1.69
7775.00,1.69
7774.00,1.69
7773.00,1.69
7772.00,1.68
7771.00,1.68
7770.00,1.68
7769.00,1.67
7768.00,1.67
7767.00,1.67
7766.00,1.66
7765.00,1.66
7764.00,1.66
7763.00,1.65
7762.00,1.65
7761.00,1.65
7760.00,1.64
7759.00,1.64
7758.00,1.64
7757.00,1.64
7756.00,1.64
7755.00,1.64
7754.00,1.64
7753.00,1.64
7752.00,1.63
7751.00,1.63
7750.00,1.63
7749.00,1.63
7748.00,1.63
7747.00,1.63
7746.00,1.63
7745.00,1.63
7744.00,1.63
7743.00,1.63
7742.00,1.63
7741.00,1.63
7740.00,1.63
7739.00,1.63
7738.00,1.64
7737.00,1.64
7736.00,1.64
7735.00,1.64
7734.00,1.65
7733.00,1.65
7732.00,1.65
7731.00,1.66
7730.00,1.66
7729.00,1.66
7728.00,1.66
7727.00,1.67
7726.00,1.67
7725.00,1.68
7724.00,1.68
7723.00,1.68
7722.00,1.69
7721.00,1.69
7720.00,1.70
7719.00,1.70
7718.00,1.71
7717.00,1.71
7716.00,1.71
7715.00,1.72
7714.00,1.72
7713.00,1.72
7712.00,1.73
7711.00,1.73
7710.00,1.73
7709.00,1.73
7708.00,1.74
7707.00,1.74
7706.00,1.74
7705.00,1.74
7704.00,1.74
7703.00,1.74
7702.00,1.74
7701.00,1.74
7700.00,1.74
7699.00,1.74
7698.00,1.73
7697.00,1.73
7696.00,1.73
7695.00,1.72
7694.00,1.72
7693.00,1.72
7692.00,1.71
7691.00,1.71
7690.00,1.70
7689.00,1.70
7688.00,1.70
7687.00,1.69
7686.00,1.69
7685.00,1.69
7684.00,1.68
7683.00,1.68
7682.00,1.68
7681.00,1.67
7680.00,1.67
7679.00,1.67
7678.00,1.67
7677.00,1.67
7676.00,1.66
7675.00,1.66
7674.00,1.66
7673.00,1.67
7672.00,1.67
7671.00,1.67
7670.00,1.67
7669.00,1.68
7668.00,1.68
7667.00,1.68
7666.00,1.69
7665.00,1.69
7664.00,1.69
7663.00,1.70
7662.00,1.70
7661.00,1.70
7660.00,1.71
7659.00,1.71
7658.00,1.71
7657.00,1.72
7656.00,1.72
7655.00,1.73
7654.00,1.73
7653.00,1.73
7652.00,1.74
7651.00,1.74
7650.00,1.74
7649.00,1.75
7648.00,1.75
7647.00,1.75
7646.00,1.75
7645.00,1.75
7644.00,1.75
7643.00,1.75
7642.00,1.75
7641.00,1.75
7640.00,1.75
7639.00,1.75
7638.00,1.75
7637.00,1.75
7636.00,1.75
7635.00,1.75
7634.00,1.75
7633.00,1.74
7632.00,1.74
7631.00,1.74
7630.00,1.74
7629.00,1.74
7628.00,1.74
7627.00,1.74
7626.00,1.73
7625.00,1.73
7624.00,1.73
7623.00,1.73
7622.00,1.73
7621.00,1.73
7620.00,1.73
7619.00,1.73
7618.00,1.73
7617.00,1.73
7616.00,1.73
7615.00,1.73
7614.00,1.73
7613.00,1.73
7612.00,1.73
7611.00,1.73
7610.00,1.73
7609.00,1.73
7608.00,1.73
7607.00,1.73
7606.00,1.73
7605.00,1.73
7604.00,1.72
7603.00,1.72
7602.00,1.72
7601.00,1.72
7600.00,1.72
7599.00,1.72
7598.00,1.72
7597.00,1.72
7596.00,1.71
7595.00,1.71
7594.00,1.71
7593.00,1.71
7592.00,1.70
7591.00,1.70
7590.00,1.70
7589.00,1.70
7588.00,1.69
7587.00,1.69
7586.00,1.69
7585.00,1.68
7584.00,1.68
7583.00,1.68
7582.00,1.67
7581.00,1.67
7580.00,1.67
7579.00,1.66
7578.00,1.66
7577.00,1.66
7576.00,1.65
7575.00,1.65
7574.00,1.65
7573.00,1.64
7572.00,1.64
7571.00,1.64
7570.00,1.63
7569.00,1.63
7568.00,1.63
7567.00,1.62
7566.00,1.62
7565.00,1.62
7564.00,1.62
7563.00,1.61
7562.00,1.61
7561.00,1.61
7560.00,1.61
7559.00,1.60
7558.00,1.60
7557.00,1.60
7556.00,1.60
7555.00,1.60
7554.00,1.59
7553.00,1.59
7552.00,1.59
7551.00,1.59
7550.00,1.59
7549.00,1.59
7548.00,1.59
7547.00,1.59
7546.00,1.59
7545.00,1.59
7544.00,1.60
7543.00,1.60
7542.00,1.60
7541.00,1.60
7540.00,1.60
7539.00,1.60
7538.00,1.61
7537.00,1.61
7536.00,1.61
7535.00,1.61
7534.00,1.61
7533.00,1.62
7532.00,1.62
7531.00,1.62
7530.00,1.62
7529.00,1.63
7528.00,1.63
7527.00,1.63
7526.00,1.63
7525.00,1.64
7524.00,1.64
7523.00,1.64
7522.00,1.64
7521.00,1.64
7520.00,1.65
7519.00,1.65
7518.00,1.65
7517.00,1.66
7516.00,1.66
7515.00,1.66
7514.00,1.66
7513.00,1.67
7512.00,1.67
7511.00,1.67
7510.00,1.68
7509.00,1.68
7508.00,1.68
7507.00,1.69
7506.00,1.69
7505.00,1.70
7504.00,1.70
7503.00,1.70
7502.00,1.71
7501.00,1.71
7500.00,1.71
7499.00,1.72
7498.00,1.72
7497.00,1.72
7496.00,1.73
7495.00,1.73
7494.00,1.73
7493.00,1.73
7492.00,1.73
7491.00,1.73
7490.00,1.73
7489.00,1.73
7488.00,1.73
7487.00,1.73
7486.00,1.73
7485.00,1.73
7484.00,1.73
7483.00,1.73
7482.00,1.72
7481.00,1.72
7480.00,1.72
7479.00,1.71
7478.00,1.71
7477.00,1.70
7476.00,1.70
7475.00,1.69
7474.00,1.69
7473.00,1.68
7472.00,1.68
7471.00,1.67
7470.00,1.67
7469.00,1.66
7468.00,1.66
7467.00,1.65
7466.00,1.65
7465.00,1.64
7464.00,1.64
7463.00,1.63
7462.00,1.63
7461.00,1.62
7460.00,1.62
7459.00,1.61
7458.00,1.60
7457.00,1.60
7456.00,1.59
7455.00,1.59
7454.00,1.59
7453.00,1.58
7452.00,1.58
7451.00,1.58
7450.00,1.58
7449.00,1.58
7448.00,1.58
7447.00,1.58
7446.00,1.58
7445.00,1.58
7444.00,1.58
7443.00,1.58
7442.00,1.58
7441.00,1.58
7440.00,1.59
7439.00,1.59
7438.00,1.59
7437.00,1.59
7436.00,1.59
7435.00,1.59
7434.00,1.60
7433.00,1.60
7432.00,1.60
7431.00,1.61
7430.00,1.61
7429.00,1.61
7428.00,1.61
7427.00,1.62
7426.00,1.62
7425.00,1.62
7424.00,1.62
7423.00,1.62
7422.00,1.62
7421.00,1.62
7420.00,1.62
7419.00,1.62
7418.00,1.61
7417.00,1.61
7416.00,1.61
7415.00,1.61
7414.00,1.61
7413.00,1.60
7412.00,1.60
7411.00,1.60
7410.00,1.60
7409.00,1.59
7408.00,1.59
7407.00,1.59
7406.00,1.59
7405.00,1.58
7404.00,1.58
7403.00,1.58
7402.00,1.58
7401.00,1.57
7400.00,1.57
7399.00,1.57
7398.00,1.57
7397.00,1.56
7396.00,1.56
7395.00,1.56
7394.00,1.56
7393.00,1.56
7392.00,1.56
7391.00,1.56
7390.00,1.56
7389.00,1.56
7388.00,1.56
7387.00,1.56
7386.00,1.56
7385.00,1.57
7384.00,1.57
7383.00,1.57
7382.00,1.57
7381.00,1.58
7380.00,1.58
7379.00,1.58
7378.00,1.58
7377.00,1.59
7376.00,1.59
7375.00,1.59
7374.00,1.60
7373.00,1.60
7372.00,1.60
7371.00,1.61
7370.00,1.61
7369.00,1.61
7368.00,1.61
7367.00,1.62
7366.00,1.62
7365.00,1.62
7364.00,1.62
7363.00,1.62
7362.00,1.62
7361.00,1.62
7360.00,1.62
7359.00,1.62
7358.00,1.63
7357.00,1.63
7356.00,1.63
7355.00,1.63
7354.00,1.63
7353.00,1.63
7352.00,1.63
7351.00,1.62
7350.00,1.62
7349.00,1.62
7348.00,1.62
7347.00,1.62
7346.00,1.62
7345.00,1.62
7344.00,1.62
7343.00,1.62
7342.00,1.62
7341.00,1.62
7340.00,1.62
7339.00,1.62
7338.00,1.62
7337.00,1.62
7336.00,1.62
7335.00,1.62
7334.00,1.62
7333.00,1.61
7332.00,1.61
7331.00,1.61
7330.00,1.61
7329.00,1.60
7328.00,1.60
7327.00,1.60
7326.00,1.59
7325.00,1.59
7324.00,1.59
7323.00,1.58
7322.00,1.58
7321.00,1.58
7320.00,1.58
7319.00,1.57
7318.00,1.57
7317.00,1.57
7316.00,1.57
7315.00,1.56
7314.00,1.56
7313.00,1.56
7312.00,1.55
7311.00,1.55
7310.00,1.55
7309.00,1.54
7308.00,1.54
7307.00,1.54
7306.00,1.53
7305.00,1.53
7304.00,1.53
7303.00,1.53
7302.00,1.53
7301.00,1.53
7300.00,1.53
7299.00,1.53
7298.00,1.53
7297.00,1.53
7296.00,1.53
7295.00,1.52
7294.00,1.52
7293.00,1.52
7292.00,1.51
7291.00,1.51
7290.00,1.51
7289.00,1.51
7288.00,1.50
7287.00,1.50
7286.00,1.50
7285.00,1.50
7284.00,1.49
7283.00,1.49
7282.00,1.49
7281.00,1.49
7280.00,1.48
7279.00,1.48
7278.00,1.48
7277.00,1.47
7276.00,1.47
7275.00,1.47
7274.00,1.47
7273.00,1.46
7272.00,1.46
7271.00,1.46
7270.00,1.46
7269.00,1.46
7268.00,1.46
7267.00,1.46
7266.00,1.46
7265.00,1.46
7264.00,1.46
7263.00,1.46
7262.00,1.46
7261.00,1.46
7260.00,1.46
7259.00,1.46
7258.00,1.46
7257.00,1.46
7256.00,1.46
7255.00,1.47
7254.00,1.47
7253.00,1.47
7252.00,1.47
7251.00,1.47
7250.00,1.47
7249.00,1.47
7248.00,1.47
7247.00,1.47
7246.00,1.46
7245.00,1.46
7244.00,1.46
7243.00,1.45
7242.00,1.45
7241.00,1.44
7240.00,1.44
7239.00,1.44
7238.00,1.43
7237.00,1.43
7236.00,1.42
7235.00,1.42
7234.00,1.41
7233.00,1.41
7232.00,1.40
7231.00,1.40
7230.00,1.39
7229.00,1.38
7228.00,1.38
7227.00,1.37
7226.00,1.36
7225.00,1.36
7224.00,1.35
7223.00,1.34
7222.00,1.34
7221.00,1.33
7220.00,1.33
7219.00,1.32
7218.00,1.32
7217.00,1.31
7216.00,1.31
7215.00,1.31
7214.00,1.30
7213.00,1.30
7212.00,1.30
7211.00,1.30
7210.00,1.29
7209.00,1.29
7208.00,1.29
7207.00,1.29
7206.00,1.29
7205.00,1.28
7204.00,1.28
7203.00,1.28
7202.00,1.28
7201.00,1.28
7200.00,1.28
7199.00,1.28
7198.00,1.27
7197.00,1.27
7196.00,1.27
7195.00,1.27
7194.00,1.27
7193.00,1.26
7192.00,1.26
7191.00,1.26
7190.00,1.25
7189.00,1.25
7188.00,1.25
7187.00,1.24
7186.00,1.24
7185.00,1.23
7184.00,1.23
7183.00,1.22
7182.00,1.22
7181.00,1.21
7180.00,1.21
7179.00,1.20
7178.00,1.19
7177.00,1.19
7176.00,1.18
7175.00,1.18
7174.00,1.17
7173.00,1.16
7172.00,1.16
7171.00,1.15
7170.00,1.14
7169.00,1.14
7168.00,1.13
7167.00,1.13
7166.00,1.12
7165.00,1.12
7164.00,1.11
7163.00,1.10
7162.00,1.10
7161.00,1.09
7160.00,1.09
7159.00,1.08
7158.00,1.08
7157.00,1.07
7156.00,1.07
7155.00,1.06
7154.00,1.06
7153.00,1.05
7152.00,1.05
7151.00,1.04
7150.00,1.03
7149.00,1.03
7148.00,1.02
7147.00,1.02
7146.00,1.01
7145.00,1.01
7144.00,1.00
7143.00,1.00
7142.00,0.99
7141.00,0.99
7140.00,0.99
7139.00,0.98
7138.00,0.98
7137.00,0.98
7136.00,0.98
7135.00,0.97
7134.00,0.97
7133.00,0.97
7132.00,0.97
7131.00,0.96
7130.00,0.96
7129.00,0.96
7128.00,0.96
7127.00,0.95
7126.00,0.95
7125.00,0.95
7124.00,0.95
7123.00,0.95
7122.00,0.95
7121.00,0.95
7120.00,0.95
7119.00,0.95
7118.00,0.95
7117.00,0.94
7116.00,0.94
7115.00,0.94
7114.00,0.94
7113.00,0.94
7112.00,0.94
7111.00,0.93
7110.00,0.93
7109.00,0.93
7108.00,0.93
7107.00,0.92
7106.00,0.92
7105.00,0.92
7104.00,0.92
7103.00,0.92
7102.00,0.92
7101.00,0.91
7100.00,0.91
7099.00,0.91
7098.00,0.91
7097.00,0.91
7096.00,0.91
7095.00,0.91
7094.00,0.91
7093.00,0.90
7092.00,0.90
7091.00,0.90
7090.00,0.90
7089.00,0.90
7088.00,0.90
7087.00,0.90
7086.00,0.90
7085.00,0.90
7084.00,0.89
7083.00,0.89
7082.00,0.89
7081.00,0.89
7080.00,0.89
7079.00,0.89
7078.00,0.88
7077.00,0.88
7076.00,0.88
7075.00,0.87
7074.00,0.87
7073.00,0.87
7072.00,0.86
7071.00,0.86
7070.00,0.85
7069.00,0.85
7068.00,0.85
7067.00,0.84
7066.00,0.84
7065.00,0.83
7064.00,0.82
7063.00,0.82
7062.00,0.81
7061.00,0.81
7060.00,0.80
7059.00,0.80
7058.00,0.79
7057.00,0.79
7056.00,0.78
7055.00,0.78
7054.00,0.77
7053.00,0.77
7052.00,0.76
7051.00,0.76
7050.00,0.76
7049.00,0.76
7048.00,0.75
7047.00,0.75
7046.00,0.75
7045.00,0.75
7044.00,0.74
7043.00,0.74
7042.00,0.74
7041.00,0.74
7040.00,0.74
7039.00,0.74
7038.00,0.73
7037.00,0.73
7036.00,0.73
7035.00,0.73
7034.00,0.73
7033.00,0.73
7032.00,0.74
7031.00,0.74
7030.00,0.74
7029.00,0.74
7028.00,0.74
7027.00,0.74
7026.00,0.74
7025.00,0.74
7024.00,0.73
7023.00,0.73
7022.00,0.73
7021.00,0.73
7020.00,0.73
7019.00,0.73
7018.00,0.73
7017.00,0.73
7016.00,0.73
7015.00,0.72
7014.00,0.72
7013.00,0.72
7012.00,0.72
7011.00,0.72
7010.00,0.72
7009.00,0.72
7008.00,0.72
7007.00,0.72
7006.00,0.72
7005.00,0.72
7004.00,0.72
7003.00,0.72
7002.00,0.72
7001.00,0.72
7000.00,0.73
6999.00,0.73
6998.00,0.73
6997.00,0.73
6996.00,0.73
6995.00,0.73
6994.00,0.73
6993.00,0.73
6992.00,0.73
6991.00,0.73
6990.00,0.73
6989.00,0.73
6988.00,0.73
6987.00,0.73
6986.00,0.73
6985.00,0.73
6984.00,0.73
6983.00,0.73
6982.00,0.73
6981.00,0.73
6980.00,0.73
6979.00,0.72
6978.00,0.72
6977.00,0.72
6976.00,0.72
6975.00,0.71
6974.00,0.71
6973.00,0.71
6972.00,0.70
6971.00,0.70
6970.00,0.70
6969.00,0.70
6968.00,0.70
6967.00,0.69
6966.00,0.69
6965.00,0.69
6964.00,0.69
6963.00,0.68
6962.00,0.68
6961.00,0.68
6960.00,0.68
6959.00,0.68
6958.00,0.67
6957.00,0.67
6956.00,0.67
6955.00,0.67
6954.00,0.67
6953.00,0.67
6952.00,0.67
6951.00,0.67
6950.00,0.67
6949.00,0.67
6948.00,0.67
6947.00,0.67
6946.00,0.67
6945.00,0.67
6944.00,0.67
6943.00,0.67
6942.00,0.67
6941.00,0.67
6940.00,0.67
6939.00,0.67
6938.00,0.68
6937.00,0.68
6936.00,0.68
6935.00,0.68
6934.00,0.68
6933.00,0.68
6932.00,0.68
6931.00,0.69
6930.00,0.69
6929.00,0.69
6928.00,0.69
6927.00,0.69
6926.00,0.69
6925.00,0.69
6924.00,0.69
6923.00,0.69
6922.00,0.69
6921.00,0.69
6920.00,0.69
6919.00,0.69
6918.00,0.69
6917.00,0.69
6916.00,0.69
6915.00,0.69
6914.00,0.68
6913.00,0.68
6912.00,0.68
6911.00,0.68
6910.00,0.68
6909.00,0.68
6908.00,0.67
6907.00,0.67
6906.00,0.67
6905.00,0.67
6904.00,0.67
6903.00,0.66
6902.00,0.66
6901.00,0.66
6900.00,0.66
6899.00,0.66
6898.00,0.66
6897.00,0.66
6896.00,0.66
6895.00,0.66
6894.00,0.66
6893.00,0.66
6892.00,0.66
6891.00,0.66
6890.00,0.66
6889.00,0.66
6888.00,0.66
6887.00,0.66
6886.00,0.66
6885.00,0.66
6884.00,0.65
6883.00,0.65
6882.00,0.65
6881.00,0.65
6880.00,0.65
6879.00,0.65
6878.00,0.65
6877.00,0.65
6876.00,0.64
6875.00,0.64
6874.00,0.64
6873.00,0.64
6872.00,0.64
6871.00,0.64
6870.00,0.64
6869.00,0.64
6868.00,0.64
6867.00,0.63
6866.00,0.63
6865.00,0.63
6864.00,0.63
6863.00,0.63
6862.00,0.63
6861.00,0.63
6860.00,0.63
6859.00,0.63
6858.00,0.63
6857.00,0.64
6856.00,0.64
6855.00,0.64
6854.00,0.64
6853.00,0.64
6852.00,0.64
6851.00,0.64
6850.00,0.64
6849.00,0.64
6848.00,0.64
6847.00,0.64
6846.00,0.64
6845.00,0.64
6844.00,0.64
6843.00,0.64
6842.00,0.64
6841.00,0.64
6840.00,0.64
6839.00,0.65
6838.00,0.65
6837.00,0.65
6836.00,0.65
6835.00,0.65
6834.00,0.65
6833.00,0.66
6832.00,0.66
6831.00,0.66
6830.00,0.66
6829.00,0.67
6828.00,0.67
6827.00,0.67
6826.00,0.68
6825.00,0.68
6824.00,0.69
6823.00,0.69
6822.00,0.69
6821.00,0.70
6820.00,0.70
6819.00,0.70
6818.00,0.70
6817.00,0.71
6816.00,0.71
6815.00,0.71
6814.00,0.71
6813.00,0.71
6812.00,0.71
6811.00,0.71
6810.00,0.71
6809.00,0.70
6808.00,0.70
6807.00,0.70
6806.00,0.70
6805.00,0.70
6804.00,0.70
6803.00,0.70
6802.00,0.70
6801.00,0.69
6800.00,0.69
6799.00,0.69
6798.00,0.69
6797.00,0.69
6796.00,0.69
6795.00,0.69
6794.00,0.69
6793.00,0.69
6792.00,0.69
6791.00,0.69
6790.00,0.70
6789.00,0.70
6788.00,0.70
6787.00,0.70
6786.00,0.71
6785.00,0.71
6784.00,0.72
6783.00,0.72
6782.00,0.73
6781.00,0.74
6780.00,0.74
6779.00,0.74
6778.00,0.75
6777.00,0.75
6776.00,0.76
6775.00,0.76
6774.00,0.76
6773.00,0.77
6772.00,0.77
6771.00,0.77
6770.00,0.77
6769.00,0.77
6768.00,0.77
6767.00,0.78
6766.00,0.78
6765.00,0.78
6764.00,0.78
6763.00,0.78
6762.00,0.78
6761.00,0.78
6760.00,0.77
6759.00,0.77
6758.00,0.77
6757.00,0.76
6756.00,0.76
6755.00,0.76
6754.00,0.75
6753.00,0.75
6752.00,0.75
6751.00,0.74
6750.00,0.74
6749.00,0.74
6748.00,0.73
6747.00,0.73
6746.00,0.73
6745.00,0.73
6744.00,0.73
6743.00,0.73
6742.00,0.73
6741.00,0.73
6740.00,0.73
6739.00,0.73
6738.00,0.73
6737.00,0.73
6736.00,0.73
6735.00,0.73
6734.00,0.73
6733.00,0.73
6732.00,0.73
6731.00,0.74
6730.00,0.74
6729.00,0.74
6728.00,0.75
6727.00,0.75
6726.00,0.75
6725.00,0.75
6724.00,0.75
6723.00,0.76
6722.00,0.76
6721.00,0.76
6720.00,0.76
6719.00,0.76
6718.00,0.76
6717.00,0.76
6716.00,0.76
6715.00,0.76
6714.00,0.77
6713.00,0.77
6712.00,0.77
6711.00,0.77
6710.00,0.77
6709.00,0.77
6708.00,0.77
6707.00,0.77
6706.00,0.77
6705.00,0.77
6704.00,0.77
6703.00,0.77
6702.00,0.78
6701.00,0.78
6700.00,0.78
6699.00,0.78
6698.00,0.78
6697.00,0.79
6696.00,0.79
6695.00,0.79
6694.00,0.80
6693.00,0.80
6692.00,0.80
6691.00,0.81
6690.00,0.81
6689.00,0.81
6688.00,0.81
6687.00,0.82
6686.00,0.82
6685.00,0.82
6684.00,0.82
6683.00,0.82
6682.00,0.83
6681.00,0.83
6680.00,0.83
6679.00,0.83
6678.00,0.83
6677.00,0.83
6676.00,0.83
6675.00,0.83
6674.00,0.83
6673.00,0.83
6672.00,0.83
6671.00,0.83
6670.00,0.83
6669.00,0.83
6668.00,0.82
6667.00,0.82
6666.00,0.82
6665.00,0.82
6664.00,0.82
6663.00,0.82
6662.00,0.82
6661.00,0.82
6660.00,0.81
6659.00,0.81
6658.00,0.81
6657.00,0.81
6656.00,0.81
6655.00,0.81
6654.00,0.81
6653.00,0.81
6652.00,0.81
6651.00,0.81
6650.00,0.81
6649.00,0.81
6648.00,0.81
6647.00,0.81
6646.00,0.82
6645.00,0.82
6644.00,0.82
6643.00,0.83
6642.00,0.83
6641.00,0.83
6640.00,0.84
6639.00,0.84
6638.00,0.84
6637.00,0.85
6636.00,0.85
6635.00,0.86
6634.00,0.86
6633.00,0.86
6632.00,0.87
6631.00,0.87
6630.00,0.87
6629.00,0.88
6628.00,0.88
6627.00,0.88
6626.00,0.89
6625.00,0.89
6624.00,0.89
6623.00,0.89
6622.00,0.90
6621.00,0.90
6620.00,0.90
6619.00,0.90
6618.00,0.90
6617.00,0.90
6616.00,0.90
6615.00,0.90
6614.00,0.90
6613.00,0.90
6612.00,0.90
6611.00,0.90
6610.00,0.90
6609.00,0.90
6608.00,0.90
6607.00,0.90
6606.00,0.90
6605.00,0.90
6604.00,0.91
6603.00,0.91
6602.00,0.91
6601.00,0.91
6600.00,0.91
6599.00,0.91
6598.00,0.91
6597.00,0.92
6596.00,0.92
6595.00,0.92
6594.00,0.92
6593.00,0.92
6592.00,0.92
6591.00,0.93
6590.00,0.93
6589.00,0.93
6588.00,0.93
6587.00,0.93
6586.00,0.94
6585.00,0.94
6584.00,0.94
6583.00,0.94
6582.00,0.94
6581.00,0.94
6580.00,0.95
6579.00,0.95
6578.00,0.95
6577.00,0.95
6576.00,0.95
6575.00,0.95
6574.00,0.95
6573.00,0.95
6572.00,0.95
6571.00,0.95
6570.00,0.95
6569.00,0.95
6568.00,0.95
6567.00,0.95
6566.00,0.95
6565.00,0.95
6564.00,0.95
6563.00,0.96
6562.00,0.96
6561.00,0.96
6560.00,0.96
6559.00,0.96
6558.00,0.96
6557.00,0.96
6556.00,0.96
6555.00,0.97
6554.00,0.97
6553.00,0.97
6552.00,0.97
6551.00,0.98
6550.00,0.98
6549.00,0.98
6548.00,0.99
6547.00,0.99
6546.00,0.99
6545.00,1.00
6544.00,1.00
6543.00,1.00
6542.00,1.00
6541.00,1.00
6540.00,1.01
6539.00,1.01
6538.00,1.01
6537.00,1.01
6536.00,1.01
6535.00,1.01
6534.00,1.02
6533.00,1.02
6532.00,1.02
6531.00,1.02
6530.00,1.02
6529.00,1.02
6528.00,1.02
6527.00,1.02
6526.00,1.02
6525.00,1.02
6524.00,1.02
6523.00,1.02
6522.00,1.02
6521.00,1.02
6520.00,1.02
6519.00,1.02
6518.00,1.02
6517.00,1.02
6516.00,1.02
6515.00,1.02
6514.00,1.02
6513.00,1.03
6512.00,1.03
6511.00,1.03
6510.00,1.03
6509.00,1.03
6508.00,1.03
6507.00,1.04
6506.00,1.04
6505.00,1.04
6504.00,1.04
6503.00,1.05
6502.00,1.05
6501.00,1.05
6500.00,1.05
6499.00,1.05
6498.00,1.06
6497.00,1.06
6496.00,1.06
6495.00,1.06
6494.00,1.06
6493.00,1.07
6492.00,1.07
6491.00,1.07
6490.00,1.07
6489.00,1.07
6488.00,1.07
6487.00,1.08
6486.00,1.08
6485.00,1.08
6484.00,1.08
6483.00,1.08
6482.00,1.08
6481.00,1.07
6480.00,1.07
6479.00,1.07
6478.00,1.07
6477.00,1.07
6476.00,1.07
6475.00,1.07
6474.00,1.07
6473.00,1.07
6472.00,1.07
6471.00,1.07
6470.00,1.07
6469.00,1.07
6468.00,1.07
6467.00,1.07
6466.00,1.07
6465.00,1.07
6464.00,1.07
6463.00,1.07
6462.00,1.07
6461.00,1.07
6460.00,1.07
6459.00,1.08
6458.00,1.08
6457.00,1.08
6456.00,1.08
6455.00,1.08
6454.00,1.09
6453.00,1.09
6452.00,1.09
6451.00,1.10
6450.00,1.10
6449.00,1.10
6448.00,1.11
6447.00,1.11
6446.00,1.11
6445.00,1.11
6444.00,1.12
6443.00,1.12
6442.00,1.12
6441.00,1.12
6440.00,1.12
6439.00,1.12
6438.00,1.12
6437.00,1.13
6436.00,1.13
6435.00,1.13
6434.00,1.13
6433.00,1.13
6432.00,1.13
6431.00,1.13
6430.00,1.13
6429.00,1.13
6428.00,1.12
6427.00,1.12
6426.00,1.12
6425.00,1.12
6424.00,1.12
6423.00,1.12
6422.00,1.12
6421.00,1.12
6420.00,1.12
6419.00,1.12
6418.00,1.12
6417.00,1.12
6416.00,1.12
6415.00,1.12
6414.00,1.12
6413.00,1.12
6412.00,1.12
6411.00,1.12
6410.00,1.12
6409.00,1.12
6408.00,1.12
6407.00,1.12
6406.00,1.12
6405.00,1.12
6404.00,1.12
6403.00,1.13
6402.00,1.13
6401.00,1.13
6400.00,1.13
6399.00,1.13
6398.00,1.13
6397.00,1.13
6396.00,1.13
6395.00,1.13
6394.00,1.13
6393.00,1.13
6392.00,1.13
6391.00,1.13
6390.00,1.13
6389.00,1.13
6388.00,1.13
6387.00,1.13
6386.00,1.13
6385.00,1.13
6384.00,1.13
6383.00,1.13
6382.00,1.13
6381.00,1.13
6380.00,1.14
6379.00,1.14
6378.00,1.14
6377.00,1.14
6376.00,1.14
6375.00,1.14
6374.00,1.14
6373.00,1.15
6372.00,1.15
6371.00,1.15
6370.00,1.15
6369.00,1.16
6368.00,1.16
6367.00,1.16
6366.00,1.16
6365.00,1.17
6364.00,1.17
6363.00,1.17
6362.00,1.18
6361.00,1.18
6360.00,1.19
6359.00,1.19
6358.00,1.19
6357.00,1.20
6356.00,1.20
6355.00,1.21
6354.00,1.21
6353.00,1.21
6352.00,1.22
6351.00,1.22
6350.00,1.22
6349.00,1.22
6348.00,1.23
6347.00,1.23
6346.00,1.23
6345.00,1.23
6344.00,1.23
6343.00,1.24
6342.00,1.24
6341.00,1.24
6340.00,1.24
6339.00,1.24
6338.00,1.24
6337.00,1.24
6336.00,1.24
6335.00,1.24
6334.00,1.25
6333.00,1.25
6332.00,1.25
6331.00,1.24
6330.00,1.24
6329.00,1.24
6328.00,1.24
6327.00,1.25
6326.00,1.25
6325.00,1.25
6324.00,1.25
6323.00,1.25
6322.00,1.25
6321.00,1.25
6320.00,1.26
6319.00,1.26
6318.00,1.26
6317.00,1.27
6316.00,1.27
6315.00,1.27
6314.00,1.27
6313.00,1.28
6312.00,1.28
6311.00,1.28
6310.00,1.28
6309.00,1.28
6308.00,1.28
6307.00,1.29
6306.00,1.29
6305.00,1.29
6304.00,1.29
6303.00,1.30
6302.00,1.30
6301.00,1.30
6300.00,1.30
6299.00,1.31
6298.00,1.31
6297.00,1.31
6296.00,1.31
6295.00,1.31
6294.00,1.31
6293.00,1.31
6292.00,1.31
6291.00,1.31
6290.00,1.31
6289.00,1.31
6288.00,1.31
6287.00,1.31
6286.00,1.31
6285.00,1.31
6284.00,1.31
6283.00,1.32
6282.00,1.32
6281.00,1.32
6280.00,1.32
6279.00,1.32
6278.00,1.32
6277.00,1.33
6276.00,1.33
6275.00,1.33
6274.00,1.33
6273.00,1.33
6272.00,1.34
6271.00,1.34
6270.00,1.34
6269.00,1.34
6268.00,1.34
6267.00,1.35
6266.00,1.35
6265.00,1.35
6264.00,1.36
6263.00,1.36
6262.00,1.36
6261.00,1.36
6260.00,1.37
6259.00,1.37
6258.00,1.37
6257.00,1.37
6256.00,1.38
6255.00,1.38
6254.00,1.38
6253.00,1.38
6252.00,1.39
6251.00,1.39
6250.00,1.39
6249.00,1.39
6248.00,1.39
6247.00,1.39
6246.00,1.39
6245.00,1.39
6244.00,1.39
6243.00,1.39
6242.00,1.39
6241.00,1.39
6240.00,1.39
6239.00,1.39
6238.00,1.39
6237.00,1.39
6236.00,1.39
6235.00,1.39
6234.00,1.39
6233.00,1.39
6232.00,1.40
6231.00,1.40
6230.00,1.40
6229.00,1.40
6228.00,1.40
6227.00,1.40
6226.00,1.40
6225.00,1.40
6224.00,1.40
6223.00,1.40
6222.00,1.40
6221.00,1.41
6220.00,1.41
6219.00,1.41
6218.00,1.41
6217.00,1.41
6216.00,1.42
6215.00,1.42
6214.00,1.42
6213.00,1.42
6212.00,1.42
6211.00,1.42
6210.00,1.42
6209.00,1.43
6208.00,1.43
6207.00,1.43
6206.00,1.43
6205.00,1.43
6204.00,1.43
6203.00,1.43
6202.00,1.43
6201.00,1.43
6200.00,1.43
6199.00,1.43
6198.00,1.43
6197.00,1.43
6196.00,1.44
6195.00,1.44
6194.00,1.44
6193.00,1.44
6192.00,1.44
6191.00,1.44
6190.00,1.44
6189.00,1.45
6188.00,1.45
6187.00,1.45
6186.00,1.45
6185.00,1.45
6184.00,1.46
6183.00,1.46
6182.00,1.46
6181.00,1.46
6180.00,1.47
6179.00,1.47
6178.00,1.47
6177.00,1.48
6176.00,1.48
6175.00,1.48
6174.00,1.49
6173.00,1.49
6172.00,1.49
6171.00,1.49
6170.00,1.50
6169.00,1.50
6168.00,1.50
6167.00,1.51
6166.00,1.51
6165.00,1.51
6164.00,1.51
6163.00,1.52
6162.00,1.52
6161.00,1.52
6160.00,1.52
6159.00,1.53
6158.00,1.53
6157.00,1.53
6156.00,1.54
6155.00,1.54
6154.00,1.54
6153.00,1.54
6152.00,1.55
6151.00,1.55
6150.00,1.55
6149.00,1.55
6148.00,1.55
6147.00,1.56
6146.00,1.56
6145.00,1.56
6144.00,1.56
6143.00,1.56
6142.00,1.56
6141.00,1.56
6140.00,1.56
6139.00,1.56
6138.00,1.56
6137.00,1.56
6136.00,1.56
6135.00,1.56
6134.00,1.56
6133.00,1.56
6132.00,1.56
6131.00,1.56
6130.00,1.55
6129.00,1.55
6128.00,1.55
6127.00,1.55
6126.00,1.55
6125.00,1.55
6124.00,1.55
6123.00,1.55
6122.00,1.54
6121.00,1.55
6120.00,1.55
6119.00,1.55
6118.00,1.55
6117.00,1.55
6116.00,1.55
6115.00,1.55
6114.00,1.55
6113.00,1.56
6112.00,1.56
6111.00,1.56
6110.00,1.56
6109.00,1.56
6108.00,1.56
6107.00,1.56
6106.00,1.56
6105.00,1.57
6104.00,1.57
6103.00,1.57
6102.00,1.57
6101.00,1.57
6100.00,1.58
6099.00,1.58
6098.00,1.58
6097.00,1.58
6096.00,1.59
6095.00,1.59
6094.00,1.59
6093.00,1.59
6092.00,1.59
6091.00,1.59
6090.00,1.60
6089.00,1.60
6088.00,1.60
6087.00,1.60
6086.00,1.60
6085.00,1.60
6084.00,1.61
6083.00,1.61
6082.00,1.61
6081.00,1.61
6080.00,1.62
6079.00,1.62
6078.00,1.62
6077.00,1.62
6076.00,1.63
6075.00,1.63
6074.00,1.63
6073.00,1.63
6072.00,1.64
6071.00,1.64
6070.00,1.64
6069.00,1.64
6068.00,1.65
6067.00,1.65
6066.00,1.65
6065.00,1.65
6064.00,1.66
6063.00,1.66
6062.00,1.66
6061.00,1.67
6060.00,1.67
6059.00,1.67
6058.00,1.67
6057.00,1.68
6056.00,1.68
6055.00,1.68
6054.00,1.68
6053.00,1.69
6052.00,1.69
6051.00,1.69
6050.00,1.69
6049.00,1.69
6048.00,1.69
6047.00,1.70
6046.00,1.70
6045.00,1.70
6044.00,1.70
6043.00,1.70
6042.00,1.70
6041.00,1.70
6040.00,1.70
6039.00,1.70
6038.00,1.71
6037.00,1.71
6036.00,1.71
6035.00,1.71
6034.00,1.71
6033.00,1.71
6032.00,1.71
6031.00,1.71
6030.00,1.71
6029.00,1.71
6028.00,1.72
6027.00,1.72
6026.00,1.72
6025.00,1.72
6024.00,1.72
6023.00,1.72
6022.00,1.72
6021.00,1.73
6020.00,1.73
6019.00,1.73
6018.00,1.73
6017.00,1.73
6016.00,1.73
6015.00,1.73
6014.00,1.73
6013.00,1.73
6012.00,1.73
6011.00,1.73
6010.00,1.73
6009.00,1.73
6008.00,1.73
6007.00,1.73
6006.00,1.73
6005.00,1.73
6004.00,1.73
6003.00,1.73
6002.00,1.72
6001.00,1.72
6000.00,1.72
5999.00,1.72
5998.00,1.72
5997.00,1.71
5996.00,1.71
5995.00,1.71
5994.00,1.70
5993.00,1.70
5992.00,1.70
5991.00,1.69
5990.00,1.69
5989.00,1.68
5988.00,1.68
5987.00,1.68
5986.00,1.67
5985.00,1.67
5984.00,1.67
5983.00,1.66
5982.00,1.66
5981.00,1.66
5980.00,1.65
5979.00,1.65
5978.00,1.64
5977.00,1.64
5976.00,1.63
5975.00,1.63
5974.00,1.62
5973.00,1.62
5972.00,1.62
5971.00,1.61
5970.00,1.60
5969.00,1.60
5968.00,1.59
5967.00,1.59
5966.00,1.58
5965.00,1.58
5964.00,1.57
5963.00,1.57
5962.00,1.56
5961.00,1.55
5960.00,1.55
5959.00,1.54
5958.00,1.54
5957.00,1.53
5956.00,1.52
5955.00,1.52
5954.00,1.51
5953.00,1.51
5952.00,1.50
5951.00,1.50
5950.00,1.49
5949.00,1.49
5948.00,1.48
5947.00,1.48
5946.00,1.47
5945.00,1.47
5944.00,1.47
5943.00,1.46
5942.00,1.46
5941.00,1.46
5940.00,1.46
5939.00,1.45
5938.00,1.45
5937.00,1.45
5936.00,1.45
5935.00,1.45
5934.00,1.45
5933.00,1.45
5932.00,1.45
5931.00,1.45
5930.00,1.45
5929.00,1.45
5928.00,1.45
5927.00,1.45
5926.00,1.45
5925.00,1.45
5924.00,1.45
5923.00,1.45
5922.00,1.46
5921.00,1.46
5920.00,1.46
5919.00,1.46
5918.00,1.46
5917.00,1.46
5916.00,1.46
5915.00,1.46
5914.00,1.46
5913.00,1.46
5912.00,1.46
5911.00,1.46
5910.00,1.46
5909.00,1.46
5908.00,1.46
5907.00,1.46
5906.00,1.46
5905.00,1.45
5904.00,1.45
5903.00,1.45
5902.00,1.45
5901.00,1.45
5900.00,1.45
5899.00,1.45
5898.00,1.45
5897.00,1.45
5896.00,1.45
5895.00,1.45
5894.00,1.45
5893.00,1.45
5892.00,1.45
5891.00,1.46
5890.00,1.46
5889.00,1.46
5888.00,1.46
5887.00,1.46
5886.00,1.46
5885.00,1.47
5884.00,1.47
5883.00,1.47
5882.00,1.47
5881.00,1.47
5880.00,1.48
5879.00,1.48
5878.00,1.48
5877.00,1.49
5876.00,1.49
5875.00,1.49
5874.00,1.49
5873.00,1.50
5872.00,1.50
5871.00,1.50
5870.00,1.51
5869.00,1.51
5868.00,1.51
5867.00,1.51
5866.00,1.52
5865.00,1.52
5864.00,1.52
5863.00,1.52
5862.00,1.52
5861.00,1.53
5860.00,1.53
5859.00,1.53
5858.00,1.53
5857.00,1.53
5856.00,1.53
5855.00,1.54
5854.00,1.54
5853.00,1.54
5852.00,1.54
5851.00,1.54
5850.00,1.54
5849.00,1.54
5848.00,1.54
5847.00,1.54
5846.00,1.54
5845.00,1.54
5844.00,1.55
5843.00,1.55
5842.00,1.55
5841.00,1.55
5840.00,1.55
5839.00,1.55
5838.00,1.55
5837.00,1.55
5836.00,1.55
5835.00,1.54
5834.00,1.54
5833.00,1.54
5832.00,1.54
5831.00,1.54
5830.00,1.54
5829.00,1.54
5828.00,1.54
5827.00,1.54
5826.00,1.53
5825.00,1.53
5824.00,1.53
5823.00,1.53
5822.00,1.53
5821.00,1.52
5820.00,1.52
5819.00,1.52
5818.00,1.52
5817.00,1.52
5816.00,1.52
5815.00,1.51
5814.00,1.51
5813.00,1.51
5812.00,1.51
5811.00,1.51
5810.00,1.51
5809.00,1.50
5808.00,1.50
5807.00,1.50
5806.00,1.50
5805.00,1.50
5804.00,1.50
5803.00,1.50
5802.00,1.49
5801.00,1.49
5800.00,1.49
5799.00,1.49
5798.00,1.49
5797.00,1.49
5796.00,1.49
5795.00,1.48
5794.00,1.48
5793.00,1.48
5792.00,1.48
5791.00,1.48
5790.00,1.48
5789.00,1.48
5788.00,1.48
5787.00,1.48
5786.00,1.48
5785.00,1.48
5784.00,1.48
5783.00,1.48
5782.00,1.48
5781.00,1.48
5780.00,1.48
5779.00,1.48
5778.00,1.48
5777.00,1.48
5776.00,1.48
5775.00,1.48
5774.00,1.48
5773.00,1.48
5772.00,1.48
5771.00,1.48
5770.00,1.48
5769.00,1.49
5768.00,1.49
5767.00,1.49
5766.00,1.49
5765.00,1.49
5764.00,1.50
5763.00,1.50
5762.00,1.50
5761.00,1.51
5760.00,1.51
5759.00,1.51
5758.00,1.51
5757.00,1.52
5756.00,1.52
5755.00,1.52
5754.00,1.52
5753.00,1.53
5752.00,1.53
5751.00,1.53
5750.00,1.53
5749.00,1.54
5748.00,1.54
5747.00,1.54
5746.00,1.54
5745.00,1.54
5744.00,1.55
5743.00,1.55
5742.00,1.55
5741.00,1.55
5740.00,1.55
5739.00,1.55
5738.00,1.55
5737.00,1.55
5736.00,1.55
5735.00,1.55
5734.00,1.55
5733.00,1.55
5732.00,1.55
5731.00,1.55
5730.00,1.55
5729.00,1.55
5728.00,1.55
5727.00,1.55
5726.00,1.55
5725.00,1.55
5724.00,1.55
5723.00,1.55
5722.00,1.55
5721.00,1.55
5720.00,1.55
5719.00,1.55
5718.00,1.55
5717.00,1.54
5716.00,1.54
5715.00,1.54
5714.00,1.54
5713.00,1.54
5712.00,1.54
5711.00,1.54
5710.00,1.54
5709.00,1.54
5708.00,1.53
5707.00,1.53
5706.00,1.53
5705.00,1.53
5704.00,1.53
5703.00,1.53
5702.00,1.53
5701.00,1.53
5700.00,1.53
5699.00,1.52
5698.00,1.52
5697.00,1.52
5696.00,1.52
5695.00,1.52
5694.00,1.52
5693.00,1.52
5692.00,1.52
5691.00,1.52
5690.00,1.52
5689.00,1.52
5688.00,1.51
5687.00,1.51
5686.00,1.51
5685.00,1.51
5684.00,1.51
5683.00,1.51
5682.00,1.51
5681.00,1.50
5680.00,1.50
5679.00,1.50
5678.00,1.50
5677.00,1.50
5676.00,1.50
5675.00,1.50
5674.00,1.49
5673.00,1.49
5672.00,1.49
5671.00,1.49
5670.00,1.49
5669.00,1.49
5668.00,1.49
5667.00,1.49
5666.00,1.49
5665.00,1.49
5664.00,1.49
5663.00,1.49
5662.00,1.49
5661.00,1.49
5660.00,1.49
5659.00,1.49
5658.00,1.49
5657.00,1.49
5656.00,1.50
5655.00,1.50
5654.00,1.50
5653.00,1.50
5652.00,1.50
5651.00,1.51
5650.00,1.51
5649.00,1.51
5648.00,1.51
5647.00,1.52
5646.00,1.52
5645.00,1.52
5644.00,1.52
5643.00,1.53
5642.00,1.53
5641.00,1.53
5640.00,1.53
5639.00,1.54
5638.00,1.54
5637.00,1.54
5636.00,1.54
5635.00,1.54
5634.00,1.55
5633.00,1.55
5632.00,1.55
5631.00,1.55
5630.00,1.55
5629.00,1.55
5628.00,1.55
5627.00,1.55
5626.00,1.55
5625.00,1.55
5624.00,1.55
5623.00,1.55
5622.00,1.56
5621.00,1.56
5620.00,1.56
5619.00,1.56
5618.00,1.56
5617.00,1.56
5616.00,1.56
5615.00,1.56
5614.00,1.56
5613.00,1.56
5612.00,1.56
5611.00,1.57
5610.00,1.57
5609.00,1.57
5608.00,1.57
5607.00,1.57
5606.00,1.57
5605.00,1.57
5604.00,1.57
5603.00,1.57
5602.00,1.57
5601.00,1.57
5600.00,1.58
5599.00,1.58
5598.00,1.58
5597.00,1.58
5596.00,1.58
5595.00,1.59
5594.00,1.59
5593.00,1.59
5592.00,1.59
5591.00,1.59
5590.00,1.60
5589.00,1.60
5588.00,1.60
5587.00,1.60
5586.00,1.60
5585.00,1.61
5584.00,1.61
5583.00,1.61
5582.00,1.61
5581.00,1.61
5580.00,1.62
5579.00,1.62
5578.00,1.62
5577.00,1.62
5576.00,1.63
5575.00,1.63
5574.00,1.63
5573.00,1.63
5572.00,1.63
5571.00,1.63
5570.00,1.64
5569.00,1.64
5568.00,1.64
5567.00,1.64
5566.00,1.64
5565.00,1.64
5564.00,1.64
5563.00,1.64
5562.00,1.65
5561.00,1.65
5560.00,1.65
5559.00,1.65
5558.00,1.65
5557.00,1.65
5556.00,1.65
5555.00,1.66
5554.00,1.66
5553.00,1.66
5552.00,1.66
5551.00,1.66
5550.00,1.66
5549.00,1.66
5548.00,1.66
5547.00,1.67
5546.00,1.67
5545.00,1.67
5544.00,1.67
5543.00,1.67
5542.00,1.67
5541.00,1.67
5540.00,1.67
5539.00,1.68
5538.00,1.68
5537.00,1.68
5536.00,1.68
5535.00,1.68
5534.00,1.68
5533.00,1.68
5532.00,1.68
5531.00,1.68
5530.00,1.68
5529.00,1.68
5528.00,1.68
5527.00,1.68
5526.00,1.68
5525.00,1.68
5524.00,1.68
5523.00,1.68
5522.00,1.68
5521.00,1.68
5520.00,1.68
5519.00,1.68
5518.00,1.68
5517.00,1.68
5516.00,1.69
5515.00,1.69
5514.00,1.69
5513.00,1.69
5512.00,1.69
5511.00,1.70
5510.00,1.70
5509.00,1.70
5508.00,1.70
5507.00,1.71
5506.00,1.71
5505.00,1.71
5504.00,1.72
5503.00,1.72
5502.00,1.72
5501.00,1.73
5500.00,1.73
5499.00,1.73
5498.00,1.73
5497.00,1.74
5496.00,1.74
5495.00,1.74
5494.00,1.74
5493.00,1.74
5492.00,1.74
5491.00,1.74
5490.00,1.75
5489.00,1.75
5488.00,1.75
5487.00,1.75
5486.00,1.75
5485.00,1.75
5484.00,1.75
5483.00,1.75
5482.00,1.75
5481.00,1.75
5480.00,1.75
5479.00,1.75
5478.00,1.75
5477.00,1.75
5476.00,1.75
5475.00,1.75
5474.00,1.75
5473.00,1.75
5472.00,1.75
5471.00,1.75
5470.00,1.75
5469.00,1.75
5468.00,1.75
5467.00,1.75
5466.00,1.76
5465.00,1.76
5464.00,1.76
5463.00,1.76
5462.00,1.76
5461.00,1.76
5460.00,1.76
5459.00,1.76
5458.00,1.76
5457.00,1.76
5456.00,1.76
5455.00,1.76
5454.00,1.76
5453.00,1.76
5452.00,1.76
5451.00,1.76
5450.00,1.76
5449.00,1.76
5448.00,1.76
5447.00,1.76
5446.00,1.76
5445.00,1.77
5444.00,1.77
5443.00,1.77
5442.00,1.77
5441.00,1.77
5440.00,1.77
5439.00,1.77
5438.00,1.77
5437.00,1.77
5436.00,1.78
5435.00,1.78
5434.00,1.78
5433.00,1.78
5432.00,1.78
5431.00,1.77
5430.00,1.77
5429.00,1.77
5428.00,1.77
5427.00,1.77
5426.00,1.77
5425.00,1.77
5424.00,1.77
5423.00,1.77
5422.00,1.77
5421.00,1.77
5420.00,1.76
5419.00,1.76
5418.00,1.76
5417.00,1.76
5416.00,1.76
5415.00,1.75
5414.00,1.75
5413.00,1.75
5412.00,1.74
5411.00,1.74
5410.00,1.74
5409.00,1.74
5408.00,1.74
5407.00,1.73
5406.00,1.73
5405.00,1.73
5404.00,1.73
5403.00,1.73
5402.00,1.73
5401.00,1.73
5400.00,1.73
5399.00,1.72
5398.00,1.72
5397.00,1.72
5396.00,1.72
5395.00,1.72
5394.00,1.72
5393.00,1.71
5392.00,1.71
5391.00,1.71
5390.00,1.71
5389.00,1.70
5388.00,1.70
5387.00,1.70
5386.00,1.70
5385.00,1.69
5384.00,1.69
5383.00,1.68
5382.00,1.68
5381.00,1.67
5380.00,1.67
5379.00,1.66
5378.00,1.65
5377.00,1.65
5376.00,1.64
5375.00,1.63
5374.00,1.62
5373.00,1.62
5372.00,1.61
5371.00,1.60
5370.00,1.59
5369.00,1.58
5368.00,1.57
5367.00,1.56
5366.00,1.55
5365.00,1.55
5364.00,1.54
5363.00,1.53
5362.00,1.52
5361.00,1.51
5360.00,1.50
5359.00,1.49
5358.00,1.48
5357.00,1.47
5356.00,1.46
5355.00,1.45
5354.00,1.44
5353.00,1.43
5352.00,1.43
5351.00,1.42
5350.00,1.41
5349.00,1.40
5348.00,1.39
5347.00,1.38
5346.00,1.37
5345.00,1.36
5344.00,1.35
5343.00,1.34
5342.00,1.33
5341.00,1.32
5340.00,1.31
5339.00,1.30
5338.00,1.29
5337.00,1.28
5336.00,1.27
5335.00,1.26
5334.00,1.25
5333.00,1.24
5332.00,1.23
5331.00,1.22
5330.00,1.21
5329.00,1.19
5328.00,1.18
5327.00,1.17
5326.00,1.16
5325.00,1.14
5324.00,1.13
5323.00,1.12
5322.00,1.10
5321.00,1.09
5320.00,1.08
5319.00,1.07
5318.00,1.05
5317.00,1.04
5316.00,1.03
5315.00,1.01
5314.00,1.00
5313.00,0.99
5312.00,0.98
5311.00,0.96
5310.00,0.95
5309.00,0.94
5308.00,0.93
5307.00,0.92
5306.00,0.91
5305.00,0.90
5304.00,0.89
5303.00,0.88
5302.00,0.87
5301.00,0.87
5300.00,0.86
5299.00,0.85
5298.00,0.84
5297.00,0.84
5296.00,0.83
5295.00,0.82
5294.00,0.82
5293.00,0.81
5292.00,0.81
5291.00,0.80
5290.00,0.80
5289.00,0.80
5288.00,0.79
5287.00,0.79
5286.00,0.79
5285.00,0.79
5284.00,0.78
5283.00,0.78
5282.00,0.78
5281.00,0.78
5280.00,0.78
5279.00,0.78
5278.00,0.78
5277.00,0.78
5276.00,0.78
5275.00,0.78
5274.00,0.78
5273.00,0.78
5272.00,0.78
5271.00,0.79
5270.00,0.79
5269.00,0.79
5268.00,0.79
5267.00,0.79
5266.00,0.80
5265.00,0.80
5264.00,0.80
5263.00,0.80
5262.00,0.80
5261.00,0.80
5260.00,0.80
5259.00,0.80
5258.00,0.80
5257.00,0.81
5256.00,0.81
5255.00,0.81
5254.00,0.81
5253.00,0.81
5252.00,0.80
5251.00,0.80
5250.00,0.80
5249.00,0.80
5248.00,0.80
5247.00,0.80
5246.00,0.80
5245.00,0.80
5244.00,0.80
5243.00,0.79
5242.00,0.79
5241.00,0.79
5240.00,0.79
5239.00,0.79
5238.00,0.79
5237.00,0.78
5236.00,0.78
5235.00,0.78
5234.00,0.78
5233.00,0.78
5232.00,0.78
5231.00,0.78
5230.00,0.78
5229.00,0.78
5228.00,0.78
5227.00,0.78
5226.00,0.78
5225.00,0.78
5224.00,0.78
5223.00,0.78
5222.00,0.78
5221.00,0.79
5220.00,0.79
5219.00,0.79
5218.00,0.79
5217.00,0.79
5216.00,0.79
5215.00,0.79
5214.00,0.79
5213.00,0.79
5212.00,0.79
5211.00,0.79
5210.00,0.80
5209.00,0.80
5208.00,0.80
5207.00,0.80
5206.00,0.80
5205.00,0.80
5204.00,0.80
5203.00,0.80
5202.00,0.80
5201.00,0.80
5200.00,0.80
5199.00,0.80
5198.00,0.80
5197.00,0.80
5196.00,0.80
5195.00,0.80
5194.00,0.80
5193.00,0.80
5192.00,0.80
5191.00,0.80
5190.00,0.80
5189.00,0.80
5188.00,0.80
5187.00,0.80
5186.00,0.80
5185.00,0.80
5184.00,0.80
5183.00,0.80
5182.00,0.80
5181.00,0.80
5180.00,0.80
5179.00,0.80
5178.00,0.80
5177.00,0.80
5176.00,0.80
5175.00,0.80
5174.00,0.79
5173.00,0.79
5172.00,0.79
5171.00,0.79
5170.00,0.79
5169.00,0.79
5168.00,0.79
5167.00,0.79
5166.00,0.79
5165.00,0.79
5164.00,0.79
5163.00,0.79
5162.00,0.80
5161.00,0.80
5160.00,0.80
5159.00,0.80
5158.00,0.80
5157.00,0.80
5156.00,0.80
5155.00,0.80
5154.00,0.80
5153.00,0.80
5152.00,0.80
5151.00,0.81
5150.00,0.81
5149.00,0.81
5148.00,0.81
5147.00,0.81
5146.00,0.81
5145.00,0.81
5144.00,0.81
5143.00,0.82
5142.00,0.82
5141.00,0.82
5140.00,0.82
5139.00,0.82
5138.00,0.82
5137.00,0.82
5136.00,0.82
5135.00,0.82
5134.00,0.82
5133.00,0.82
5132.00,0.82
5131.00,0.82
5130.00,0.82
5129.00,0.82
5128.00,0.82
5127.00,0.82
5126.00,0.82
5125.00,0.82
5124.00,0.83
5123.00,0.83
5122.00,0.83
5121.00,0.83
5120.00,0.83
5119.00,0.83
5118.00,0.83
5117.00,0.83
5116.00,0.83
5115.00,0.84
5114.00,0.84
5113.00,0.84
5112.00,0.84
5111.00,0.84
5110.00,0.84
5109.00,0.84
5108.00,0.85
5107.00,0.85
5106.00,0.85
5105.00,0.85
5104.00,0.85
5103.00,0.85
5102.00,0.85
5101.00,0.85
5100.00,0.85
5099.00,0.85
5098.00,0.85
5097.00,0.85
5096.00,0.85
5095.00,0.85
5094.00,0.85
5093.00,0.85
5092.00,0.85
5091.00,0.85
5090.00,0.85
5089.00,0.85
5088.00,0.85
5087.00,0.85
5086.00,0.85
5085.00,0.85
5084.00,0.85
5083.00,0.85
5082.00,0.85
5081.00,0.85
5080.00,0.85
5079.00,0.85
5078.00,0.85
5077.00,0.85
5076.00,0.85
5075.00,0.85
5074.00,0.85
5073.00,0.85
5072.00,0.85
5071.00,0.85
5070.00,0.85
5069.00,0.85
5068.00,0.86
5067.00,0.86
5066.00,0.86
5065.00,0.86
5064.00,0.86
5063.00,0.87
5062.00,0.87
5061.00,0.87
5060.00,0.87
5059.00,0.87
5058.00,0.87
5057.00,0.87
5056.00,0.88
5055.00,0.88
5054.00,0.88
5053.00,0.88
5052.00,0.88
5051.00,0.88
5050.00,0.89
5049.00,0.89
5048.00,0.89
5047.00,0.89
5046.00,0.89
5045.00,0.89
5044.00,0.89
5043.00,0.89
5042.00,0.89
5041.00,0.89
5040.00,0.89
5039.00,0.90
5038.00,0.90
5037.00,0.90
5036.00,0.90
5035.00,0.90
5034.00,0.90
5033.00,0.90
5032.00,0.90
5031.00,0.90
5030.00,0.90
5029.00,0.90
5028.00,0.90
5027.00,0.90
5026.00,0.90
5025.00,0.90
5024.00,0.89
5023.00,0.89
5022.00,0.89
5021.00,0.89
5020.00,0.89
5019.00,0.89
5018.00,0.89
5017.00,0.89
5016.00,0.89
5015.00,0.89
5014.00,0.89
5013.00,0.89
5012.00,0.89
5011.00,0.90
5010.00,0.90
5009.00,0.90
5008.00,0.90
5007.00,0.90
5006.00,0.90
5005.00,0.90
5004.00,0.90
5003.00,0.90
5002.00,0.91
5001.00,0.91
5000.00,0.91
4999.00,0.91
4998.00,0.92
4997.00,0.92
4996.00,0.92
4995.00,0.92
4994.00,0.92
4993.00,0.93
4992.00,0.93
4991.00,0.93
4990.00,0.93
4989.00,0.93
4988.00,0.93
4987.00,0.93
4986.00,0.93
4985.00,0.93
4984.00,0.93
4983.00,0.93
4982.00,0.93
4981.00,0.93
4980.00,0.93
4979.00,0.93
4978.00,0.93
4977.00,0.93
4976.00,0.93
4975.00,0.93
4974.00,0.93
4973.00,0.93
4972.00,0.93
4971.00,0.93
4970.00,0.93
4969.00,0.93
4968.00,0.94
4967.00,0.94
4966.00,0.94
4965.00,0.94
4964.00,0.94
4963.00,0.94
4962.00,0.94
4961.00,0.95
4960.00,0.95
4959.00,0.95
4958.00,0.95
4957.00,0.95
4956.00,0.96
4955.00,0.96
4954.00,0.96
4953.00,0.96
4952.00,0.96
4951.00,0.96
4950.00,0.97
4949.00,0.97
4948.00,0.97
4947.00,0.97
4946.00,0.97
4945.00,0.97
4944.00,0.97
4943.00,0.97
4942.00,0.97
4941.00,0.97
4940.00,0.97
4939.00,0.97
4938.00,0.97
4937.00,0.97
4936.00,0.97
4935.00,0.97
4934.00,0.97
4933.00,0.97
4932.00,0.97
4931.00,0.97
4930.00,0.97
4929.00,0.97
4928.00,0.98
4927.00,0.98
4926.00,0.98
4925.00,0.98
4924.00,0.98
4923.00,0.98
4922.00,0.99
4921.00,0.99
4920.00,0.99
4919.00,0.99
4918.00,0.99
4917.00,1.00
4916.00,1.00
4915.00,1.00
4914.00,1.00
4913.00,1.01
4912.00,1.01
4911.00,1.01
4910.00,1.01
4909.00,1.02
4908.00,1.02
4907.00,1.02
4906.00,1.03
4905.00,1.03
4904.00,1.03
4903.00,1.03
4902.00,1.03
4901.00,1.04
4900.00,1.04
4899.00,1.04
4898.00,1.04
4897.00,1.04
4896.00,1.04
4895.00,1.04
4894.00,1.04
4893.00,1.04
4892.00,1.04
4891.00,1.04
4890.00,1.04
4889.00,1.04
4888.00,1.04
4887.00,1.04
4886.00,1.04
4885.00,1.04
4884.00,1.04
4883.00,1.04
4882.00,1.03
4881.00,1.03
4880.00,1.03
4879.00,1.03
4878.00,1.03
4877.00,1.02
4876.00,1.02
4875.00,1.02
4874.00,1.02
4873.00,1.02
4872.00,1.01
4871.00,1.01
4870.00,1.01
4869.00,1.01
4868.00,1.01
4867.00,1.01
4866.00,1.00
4865.00,1.00
4864.00,1.00
4863.00,1.00
4862.00,1.00
4861.00,1.00
4860.00,1.00
4859.00,1.00
4858.00,1.01
4857.00,1.01
4856.00,1.01
4855.00,1.02
4854.00,1.02
4853.00,1.02
4852.00,1.03
4851.00,1.03
4850.00,1.03
4849.00,1.04
4848.00,1.04
4847.00,1.04
4846.00,1.05
4845.00,1.05
4844.00,1.05
4843.00,1.05
4842.00,1.06
4841.00,1.06
4840.00,1.06
4839.00,1.07
4838.00,1.07
4837.00,1.08
4836.00,1.08
4835.00,1.08
4834.00,1.08
4833.00,1.09
4832.00,1.09
4831.00,1.09
4830.00,1.09
4829.00,1.09
4828.00,1.09
4827.00,1.09
4826.00,1.09
4825.00,1.09
4824.00,1.10
4823.00,1.10
4822.00,1.10
4821.00,1.10
4820.00,1.10
4819.00,1.10
4818.00,1.11
4817.00,1.11
4816.00,1.11
4815.00,1.11
4814.00,1.11
4813.00,1.12
4812.00,1.12
4811.00,1.12
4810.00,1.12
4809.00,1.12
4808.00,1.12
4807.00,1.13
4806.00,1.13
4805.00,1.13
4804.00,1.13
4803.00,1.13
4802.00,1.14
4801.00,1.14
4800.00,1.14
4799.00,1.14
4798.00,1.14
4797.00,1.15
4796.00,1.15
4795.00,1.15
4794.00,1.15
4793.00,1.15
4792.00,1.15
4791.00,1.16
4790.00,1.16
4789.00,1.16
4788.00,1.16
4787.00,1.16
4786.00,1.16
4785.00,1.17
4784.00,1.17
4783.00,1.17
4782.00,1.18
4781.00,1.18
4780.00,1.18
4779.00,1.19
4778.00,1.19
4777.00,1.19
4776.00,1.20
4775.00,1.20
4774.00,1.20
4773.00,1.20
4772.00,1.21
4771.00,1.21
4770.00,1.21
4769.00,1.22
4768.00,1.22
4767.00,1.22
4766.00,1.23
4765.00,1.23
4764.00,1.24
4763.00,1.24
4762.00,1.24
4761.00,1.25
4760.00,1.25
4759.00,1.25
4758.00,1.26
4757.00,1.26
4756.00,1.26
4755.00,1.26
4754.00,1.26
4753.00,1.26
4752.00,1.27
4751.00,1.27
4750.00,1.27
4749.00,1.27
4748.00,1.27
4747.00,1.28
4746.00,1.28
4745.00,1.28
4744.00,1.28
4743.00,1.29
4742.00,1.29
4741.00,1.29
4740.00,1.29
4739.00,1.30
4738.00,1.30
4737.00,1.30
4736.00,1.31
4735.00,1.31
4734.00,1.31
4733.00,1.32
4732.00,1.32
4731.00,1.32
4730.00,1.33
4729.00,1.33
4728.00,1.34
4727.00,1.34
4726.00,1.35
4725.00,1.35
4724.00,1.36
4723.00,1.36
4722.00,1.37
4721.00,1.37
4720.00,1.38
4719.00,1.38
4718.00,1.39
4717.00,1.39
4716.00,1.39
4715.00,1.40
4714.00,1.40
4713.00,1.41
4712.00,1.41
4711.00,1.41
4710.00,1.42
4709.00,1.42
4708.00,1.42
4707.00,1.43
4706.00,1.43
4705.00,1.43
4704.00,1.43
4703.00,1.43
4702.00,1.43
4701.00,1.44
4700.00,1.44
4699.00,1.44
4698.00,1.44
4697.00,1.44
4696.00,1.44
4695.00,1.45
4694.00,1.45
4693.00,1.45
4692.00,1.45
4691.00,1.45
4690.00,1.45
4689.00,1.46
4688.00,1.46
4687.00,1.46
4686.00,1.46
4685.00,1.46
4684.00,1.46
4683.00,1.46
4682.00,1.46
4681.00,1.46
4680.00,1.46
4679.00,1.46
4678.00,1.46
4677.00,1.46
4676.00,1.46
4675.00,1.46
4674.00,1.46
4673.00,1.46
4672.00,1.46
4671.00,1.46
4670.00,1.46
4669.00,1.46
4668.00,1.46
4667.00,1.46
4666.00,1.45
4665.00,1.45
4664.00,1.45
4663.00,1.45
4662.00,1.45
4661.00,1.44
4660.00,1.44
4659.00,1.44
4658.00,1.44
4657.00,1.44
4656.00,1.44
4655.00,1.44
4654.00,1.45
4653.00,1.45
4652.00,1.45
4651.00,1.45
4650.00,1.46
4649.00,1.46
4648.00,1.47
4647.00,1.47
4646.00,1.48
4645.00,1.48
4644.00,1.48
4643.00,1.49
4642.00,1.49
4641.00,1.50
4640.00,1.50
4639.00,1.50
4638.00,1.51
4637.00,1.51
4636.00,1.52
4635.00,1.52
4634.00,1.52
4633.00,1.52
4632.00,1.52
4631.00,1.53
4630.00,1.53
4629.00,1.53
4628.00,1.53
4627.00,1.53
4626.00,1.53
4625.00,1.53
4624.00,1.52
4623.00,1.52
4622.00,1.52
4621.00,1.52
4620.00,1.52
4619.00,1.52
4618.00,1.52
4617.00,1.52
4616.00,1.52
4615.00,1.51
4614.00,1.51
4613.00,1.51
4612.00,1.51
4611.00,1.51
4610.00,1.51
4609.00,1.52
4608.00,1.52
4607.00,1.52
4606.00,1.52
4605.00,1.53
4604.00,1.53
4603.00,1.53
4602.00,1.53
4601.00,1.54
4600.00,1.54
4599.00,1.55
4598.00,1.55
4597.00,1.55
4596.00,1.56
4595.00,1.56
4594.00,1.56
4593.00,1.56
4592.00,1.57
4591.00,1.57
4590.00,1.57
4589.00,1.57
4588.00,1.58
4587.00,1.58
4586.00,1.58
4585.00,1.58
4584.00,1.59
4583.00,1.59
4582.00,1.59
4581.00,1.59
4580.00,1.59
4579.00,1.59
4578.00,1.59
4577.00,1.59
4576.00,1.59
4575.00,1.59
4574.00,1.59
4573.00,1.59
4572.00,1.59
4571.00,1.59
4570.00,1.59
4569.00,1.59
4568.00,1.59
4567.00,1.59
4566.00,1.59
4565.00,1.60
4564.00,1.60
4563.00,1.60
4562.00,1.60
4561.00,1.60
4560.00,1.60
4559.00,1.61
4558.00,1.61
4557.00,1.61
4556.00,1.61
4555.00,1.61
4554.00,1.62
4553.00,1.62
4552.00,1.62
4551.00,1.63
4550.00,1.63
4549.00,1.63
4548.00,1.63
4547.00,1.63
4546.00,1.64
4545.00,1.64
4544.00,1.64
4543.00,1.64
4542.00,1.64
4541.00,1.65
4540.00,1.65
4539.00,1.65
4538.00,1.65
4537.00,1.65
4536.00,1.65
4535.00,1.66
4534.00,1.66
4533.00,1.66
4532.00,1.66
4531.00,1.66
4530.00,1.66
4529.00,1.66
4528.00,1.66
4527.00,1.66
4526.00,1.66
4525.00,1.66
4524.00,1.66
4523.00,1.66
4522.00,1.66
4521.00,1.67
4520.00,1.67
4519.00,1.67
4518.00,1.67
4517.00,1.67
4516.00,1.67
4515.00,1.67
4514.00,1.67
4513.00,1.67
4512.00,1.67
4511.00,1.67
4510.00,1.67
4509.00,1.67
4508.00,1.67
4507.00,1.67
4506.00,1.67
4505.00,1.67
4504.00,1.67
4503.00,1.67
4502.00,1.67
4501.00,1.67
4500.00,1.67
4499.00,1.67
4498.00,1.67
4497.00,1.67
4496.00,1.67
4495.00,1.67
4494.00,1.67
4493.00,1.66
4492.00,1.66
4491.00,1.66
4490.00,1.66
4489.00,1.66
4488.00,1.66
4487.00,1.66
4486.00,1.66
4485.00,1.65
4484.00,1.65
4483.00,1.65
4482.00,1.65
4481.00,1.65
4480.00,1.64
4479.00,1.64
4478.00,1.64
4477.00,1.64
4476.00,1.64
4475.00,1.63
4474.00,1.63
4473.00,1.63
4472.00,1.63
4471.00,1.62
4470.00,1.62
4469.00,1.62
4468.00,1.62
4467.00,1.62
4466.00,1.61
4465.00,1.61
4464.00,1.61
4463.00,1.60
4462.00,1.60
4461.00,1.60
4460.00,1.59
4459.00,1.59
4458.00,1.59
4457.00,1.58
4456.00,1.58
4455.00,1.57
4454.00,1.57
4453.00,1.56
4452.00,1.55
4451.00,1.55
4450.00,1.54
4449.00,1.53
4448.00,1.53
4447.00,1.52
4446.00,1.51
4445.00,1.51
4444.00,1.50
4443.00,1.49
4442.00,1.48
4441.00,1.47
4440.00,1.46
4439.00,1.45
4438.00,1.44
4437.00,1.43
4436.00,1.42
4435.00,1.42
4434.00,1.41
4433.00,1.40
4432.00,1.39
4431.00,1.38
4430.00,1.37
4429.00,1.36
4428.00,1.36
4427.00,1.35
4426.00,1.34
4425.00,1.33
4424.00,1.33
4423.00,1.32
4422.00,1.32
4421.00,1.31
4420.00,1.31
4419.00,1.30
4418.00,1.30
4417.00,1.29
4416.00,1.29
4415.00,1.29
4414.00,1.29
4413.00,1.29
4412.00,1.29
4411.00,1.29
4410.00,1.29
4409.00,1.29
4408.00,1.29
4407.00,1.29
4406.00,1.29
4405.00,1.29
4404.00,1.29
4403.00,1.30
4402.00,1.30
4401.00,1.30
4400.00,1.31
4399.00,1.31
4398.00,1.31
4397.00,1.32
4396.00,1.32
4395.00,1.32
4394.00,1.33
4393.00,1.33
4392.00,1.33
4391.00,1.34
4390.00,1.34
4389.00,1.34
4388.00,1.34
4387.00,1.35
4386.00,1.35
4385.00,1.35
4384.00,1.35
4383.00,1.35
4382.00,1.36
4381.00,1.36
4380.00,1.36
4379.00,1.36
4378.00,1.36
4377.00,1.36
4376.00,1.37
4375.00,1.37
4374.00,1.37
4373.00,1.37
4372.00,1.37
4371.00,1.36
4370.00,1.36
4369.00,1.36
4368.00,1.36
4367.00,1.36
4366.00,1.36
4365.00,1.36
4364.00,1.36
4363.00,1.36
4362.00,1.35
4361.00,1.35
4360.00,1.35
4359.00,1.35
4358.00,1.35
4357.00,1.35
4356.00,1.35
4355.00,1.35
4354.00,1.35
4353.00,1.35
4352.00,1.34
4351.00,1.34
4350.00,1.34
4349.00,1.34
4348.00,1.34
4347.00,1.34
4346.00,1.34
4345.00,1.34
4344.00,1.33
4343.00,1.33
4342.00,1.33
4341.00,1.33
4340.00,1.33
4339.00,1.33
4338.00,1.34
4337.00,1.34
4336.00,1.34
4335.00,1.34
4334.00,1.34
4333.00,1.34
4332.00,1.35
4331.00,1.35
4330.00,1.35
4329.00,1.35
4328.00,1.35
4327.00,1.36
4326.00,1.36
4325.00,1.36
4324.00,1.37
4323.00,1.37
4322.00,1.37
4321.00,1.38
4320.00,1.38
4319.00,1.39
4318.00,1.39
4317.00,1.40
4316.00,1.40
4315.00,1.41
4314.00,1.41
4313.00,1.42
4312.00,1.43
4311.00,1.43
4310.00,1.44
4309.00,1.44
4308.00,1.45
4307.00,1.45
4306.00,1.45
4305.00,1.46
4304.00,1.46
4303.00,1.47
4302.00,1.47
4301.00,1.48
4300.00,1.48
4299.00,1.49
4298.00,1.49
4297.00,1.49
4296.00,1.50
4295.00,1.50
4294.00,1.50
4293.00,1.51
4292.00,1.51
4291.00,1.51
4290.00,1.51
4289.00,1.51
4288.00,1.51
4287.00,1.51
4286.00,1.51
4285.00,1.51
4284.00,1.51
4283.00,1.51
4282.00,1.51
4281.00,1.51
4280.00,1.51
4279.00,1.51
4278.00,1.51
4277.00,1.51
4276.00,1.51
4275.00,1.51
4274.00,1.50
4273.00,1.50
4272.00,1.50
4271.00,1.50
4270.00,1.50
4269.00,1.50
4268.00,1.50
4267.00,1.50
4266.00,1.50
4265.00,1.50
4264.00,1.50
4263.00,1.50
4262.00,1.51
4261.00,1.51
4260.00,1.51
4259.00,1.51
4258.00,1.51
4257.00,1.52
4256.00,1.52
4255.00,1.52
4254.00,1.52
4253.00,1.52
4252.00,1.52
4251.00,1.52
4250.00,1.52
4249.00,1.52
4248.00,1.53
4247.00,1.53
4246.00,1.53
4245.00,1.53
4244.00,1.53
4243.00,1.53
4242.00,1.53
4241.00,1.53
4240.00,1.53
4239.00,1.53
4238.00,1.53
4237.00,1.53
4236.00,1.53
4235.00,1.53
4234.00,1.53
4233.00,1.53
4232.00,1.53
4231.00,1.53
4230.00,1.53
4229.00,1.53
4228.00,1.53
4227.00,1.53
4226.00,1.53
4225.00,1.53
4224.00,1.53
4223.00,1.53
4222.00,1.53
4221.00,1.53
4220.00,1.52
4219.00,1.52
4218.00,1.52
4217.00,1.52
4216.00,1.52
4215.00,1.53
4214.00,1.53
4213.00,1.53
4212.00,1.53
4211.00,1.53
4210.00,1.53
4209.00,1.53
4208.00,1.53
4207.00,1.53
4206.00,1.53
4205.00,1.53
4204.00,1.53
4203.00,1.53
4202.00,1.53
4201.00,1.53
4200.00,1.53
4199.00,1.53
4198.00,1.53
4197.00,1.53
4196.00,1.52
4195.00,1.52
4194.00,1.52
4193.00,1.52
4192.00,1.51
4191.00,1.51
4190.00,1.50
4189.00,1.50
4188.00,1.50
4187.00,1.49
4186.00,1.49
4185.00,1.48
4184.00,1.48
4183.00,1.48
4182.00,1.48
4181.00,1.47
4180.00,1.47
4179.00,1.47
4178.00,1.47
4177.00,1.47
4176.00,1.47
4175.00,1.47
4174.00,1.47
4173.00,1.47
4172.00,1.48
4171.00,1.48
4170.00,1.48
4169.00,1.49
4168.00,1.49
4167.00,1.49
4166.00,1.50
4165.00,1.50
4164.00,1.51
4163.00,1.52
4162.00,1.52
4161.00,1.53
4160.00,1.54
4159.00,1.54
4158.00,1.55
4157.00,1.56
4156.00,1.56
4155.00,1.57
4154.00,1.57
4153.00,1.58
4152.00,1.58
4151.00,1.59
4150.00,1.59
4149.00,1.60
4148.00,1.60
4147.00,1.60
4146.00,1.61
4145.00,1.61
4144.00,1.61
4143.00,1.61
4142.00,1.62
4141.00,1.62
4140.00,1.63
4139.00,1.63
4138.00,1.63
4137.00,1.63
4136.00,1.64
4135.00,1.64
4134.00,1.64
4133.00,1.64
4132.00,1.64
4131.00,1.64
4130.00,1.64
4129.00,1.64
4128.00,1.64
4127.00,1.64
4126.00,1.64
4125.00,1.64
4124.00,1.64
4123.00,1.64
4122.00,1.64
4121.00,1.64
4120.00,1.64
4119.00,1.64
4118.00,1.64
4117.00,1.64
4116.00,1.64
4115.00,1.64
4114.00,1.63
4113.00,1.63
4112.00,1.62
4111.00,1.62
4110.00,1.62
4109.00,1.61
4108.00,1.61
4107.00,1.61
4106.00,1.60
4105.00,1.60
4104.00,1.60
4103.00,1.60
4102.00,1.59
4101.00,1.59
4100.00,1.59
4099.00,1.58
4098.00,1.58
4097.00,1.57
4096.00,1.57
4095.00,1.56
4094.00,1.56
4093.00,1.55
4092.00,1.54
4091.00,1.54
4090.00,1.53
4089.00,1.53
4088.00,1.52
4087.00,1.52
4086.00,1.52
4085.00,1.51
4084.00,1.51
4083.00,1.51
4082.00,1.50
4081.00,1.50
4080.00,1.50
4079.00,1.49
4078.00,1.49
4077.00,1.49
4076.00,1.49
4075.00,1.48
4074.00,1.48
4073.00,1.48
4072.00,1.48
4071.00,1.48
4070.00,1.49
4069.00,1.49
4068.00,1.49
4067.00,1.49
4066.00,1.49
4065.00,1.50
4064.00,1.50
4063.00,1.50
4062.00,1.51
4061.00,1.51
4060.00,1.52
4059.00,1.53
4058.00,1.53
4057.00,1.54
4056.00,1.55
4055.00,1.55
4054.00,1.56
4053.00,1.56
4052.00,1.57
4051.00,1.57
4050.00,1.58
4049.00,1.58
4048.00,1.59
4047.00,1.59
4046.00,1.59
4045.00,1.60
4044.00,1.60
4043.00,1.61
4042.00,1.62
4041.00,1.62
4040.00,1.63
4039.00,1.63
4038.00,1.64
4037.00,1.64
4036.00,1.65
4035.00,1.65
4034.00,1.65
4033.00,1.65
4032.00,1.66
4031.00,1.66
4030.00,1.66
4029.00,1.66
4028.00,1.67
4027.00,1.67
4026.00,1.68
4025.00,1.68
4024.00,1.68
4023.00,1.69
4022.00,1.69
4021.00,1.70
4020.00,1.70
4019.00,1.70
4018.00,1.70
4017.00,1.71
4016.00,1.71
4015.00,1.71
4014.00,1.71
4013.00,1.72
4012.00,1.72
4011.00,1.72
4010.00,1.73
4009.00,1.73
4008.00,1.74
4007.00,1.74
4006.00,1.75
4005.00,1.75
4004.00,1.75
4003.00,1.76
4002.00,1.76
4001.00,1.76
4000.00,1.76
