创建为新数据集,样品 386 用户 Administrator 日期 星期日, 七月 28 2019
cm-1,%T
10000.00,1.25
9999.00,1.27
9998.00,1.29
9997.00,1.31
9996.00,1.33
9995.00,1.35
9994.00,1.37
9993.00,1.39
9992.00,1.41
9991.00,1.43
9990.00,1.45
9989.00,1.46
9988.00,1.48
9987.00,1.49
9986.00,1.50
9985.00,1.52
9984.00,1.53
9983.00,1.54
9982.00,1.55
9981.00,1.56
9980.00,1.56
9979.00,1.57
9978.00,1.58
9977.00,1.58
9976.00,1.59
9975.00,1.59
9974.00,1.59
9973.00,1.60
9972.00,1.60
9971.00,1.60
9970.00,1.60
9969.00,1.60
9968.00,1.60
9967.00,1.60
9966.00,1.60
9965.00,1.60
9964.00,1.60
9963.00,1.60
9962.00,1.60
9961.00,1.60
9960.00,1.60
9959.00,1.60
9958.00,1.60
9957.00,1.60
9956.00,1.59
9955.00,1.59
9954.00,1.59
9953.00,1.58
9952.00,1.58
9951.00,1.57
9950.00,1.57
9949.00,1.56
9948.00,1.56
9947.00,1.55
9946.00,1.54
9945.00,1.54
9944.00,1.53
9943.00,1.52
9942.00,1.52
9941.00,1.51
9940.00,1.50
9939.00,1.49
9938.00,1.48
9937.00,1.47
9936.00,1.47
9935.00,1.46
9934.00,1.45
9933.00,1.44
9932.00,1.44
9931.00,1.44
9930.00,1.43
9929.00,1.43
9928.00,1.43
9927.00,1.43
9926.00,1.43
9925.00,1.43
9924.00,1.43
9923.00,1.43
9922.00,1.43
9921.00,1.44
9920.00,1.44
9919.00,1.44
9918.00,1.45
9917.00,1.45
9916.00,1.45
9915.00,1.46
9914.00,1.46
9913.00,1.47
9912.00,1.47
9911.00,1.47
9910.00,1.48
9909.00,1.48
9908.00,1.48
9907.00,1.48
9906.00,1.48
9905.00,1.47
9904.00,1.47
9903.00,1.47
9902.00,1.46
9901.00,1.46
9900.00,1.45
9899.00,1.45
9898.00,1.44
9897.00,1.43
9896.00,1.42
9895.00,1.41
9894.00,1.40
9893.00,1.39
9892.00,1.38
9891.00,1.37
9890.00,1.36
9889.00,1.35
9888.00,1.34
9887.00,1.33
9886.00,1.32
9885.00,1.32
9884.00,1.31
9883.00,1.30
9882.00,1.30
9881.00,1.29
9880.00,1.28
9879.00,1.28
9878.00,1.27
9877.00,1.27
9876.00,1.26
9875.00,1.26
9874.00,1.26
9873.00,1.25
9872.00,1.25
9871.00,1.25
9870.00,1.26
9869.00,1.26
9868.00,1.26
9867.00,1.27
9866.00,1.27
9865.00,1.28
9864.00,1.28
9863.00,1.29
9862.00,1.29
9861.00,1.30
9860.00,1.30
9859.00,1.31
9858.00,1.32
9857.00,1.32
9856.00,1.33
9855.00,1.34
9854.00,1.35
9853.00,1.36
9852.00,1.38
9851.00,1.39
9850.00,1.40
9849.00,1.41
9848.00,1.42
9847.00,1.43
9846.00,1.45
9845.00,1.46
9844.00,1.47
9843.00,1.48
9842.00,1.49
9841.00,1.50
9840.00,1.51
9839.00,1.52
9838.00,1.53
9837.00,1.54
9836.00,1.55
9835.00,1.56
9834.00,1.57
9833.00,1.57
9832.00,1.58
9831.00,1.58
9830.00,1.58
9829.00,1.58
9828.00,1.58
9827.00,1.58
9826.00,1.58
9825.00,1.58
9824.00,1.58
9823.00,1.58
9822.00,1.58
9821.00,1.58
9820.00,1.57
9819.00,1.57
9818.00,1.57
9817.00,1.57
9816.00,1.56
9815.00,1.55
9814.00,1.55
9813.00,1.54
9812.00,1.53
9811.00,1.52
9810.00,1.51
9809.00,1.50
9808.00,1.49
9807.00,1.48
9806.00,1.47
9805.00,1.46
9804.00,1.45
9803.00,1.44
9802.00,1.42
9801.00,1.41
9800.00,1.40
9799.00,1.39
9798.00,1.38
9797.00,1.36
9796.00,1.35
9795.00,1.34
9794.00,1.32
9793.00,1.31
9792.00,1.29
9791.00,1.28
9790.00,1.27
9789.00,1.25
9788.00,1.24
9787.00,1.23
9786.00,1.21
9785.00,1.20
9784.00,1.19
9783.00,1.19
9782.00,1.18
9781.00,1.17
9780.00,1.17
9779.00,1.16
9778.00,1.16
9777.00,1.16
9776.00,1.16
9775.00,1.16
9774.00,1.16
9773.00,1.17
9772.00,1.17
9771.00,1.18
9770.00,1.18
9769.00,1.19
9768.00,1.19
9767.00,1.20
9766.00,1.21
9765.00,1.22
9764.00,1.23
9763.00,1.24
9762.00,1.26
9761.00,1.27
9760.00,1.28
9759.00,1.29
9758.00,1.30
9757.00,1.31
9756.00,1.31
9755.00,1.32
9754.00,1.32
9753.00,1.33
9752.00,1.33
9751.00,1.33
9750.00,1.33
9749.00,1.33
9748.00,1.33
9747.00,1.33
9746.00,1.33
9745.00,1.33
9744.00,1.32
9743.00,1.32
9742.00,1.31
9741.00,1.31
9740.00,1.30
9739.00,1.29
9738.00,1.29
9737.00,1.28
9736.00,1.27
9735.00,1.26
9734.00,1.25
9733.00,1.25
9732.00,1.24
9731.00,1.23
9730.00,1.23
9729.00,1.22
9728.00,1.22
9727.00,1.22
9726.00,1.21
9725.00,1.21
9724.00,1.21
9723.00,1.20
9722.00,1.20
9721.00,1.20
9720.00,1.20
9719.00,1.20
9718.00,1.21
9717.00,1.21
9716.00,1.21
9715.00,1.22
9714.00,1.22
9713.00,1.23
9712.00,1.23
9711.00,1.24
9710.00,1.25
9709.00,1.25
9708.00,1.26
9707.00,1.27
9706.00,1.28
9705.00,1.28
9704.00,1.29
9703.00,1.30
9702.00,1.31
9701.00,1.31
9700.00,1.32
9699.00,1.33
9698.00,1.34
9697.00,1.35
9696.00,1.36
9695.00,1.36
9694.00,1.37
9693.00,1.38
9692.00,1.39
9691.00,1.40
9690.00,1.40
9689.00,1.41
9688.00,1.41
9687.00,1.42
9686.00,1.42
9685.00,1.43
9684.00,1.43
9683.00,1.44
9682.00,1.44
9681.00,1.44
9680.00,1.45
9679.00,1.45
9678.00,1.46
9677.00,1.46
9676.00,1.46
9675.00,1.47
9674.00,1.47
9673.00,1.47
9672.00,1.48
9671.00,1.48
9670.00,1.48
9669.00,1.48
9668.00,1.48
9667.00,1.48
9666.00,1.48
9665.00,1.48
9664.00,1.48
9663.00,1.48
9662.00,1.48
9661.00,1.48
9660.00,1.48
9659.00,1.48
9658.00,1.48
9657.00,1.48
9656.00,1.48
9655.00,1.48
9654.00,1.48
9653.00,1.48
9652.00,1.48
9651.00,1.48
9650.00,1.49
9649.00,1.49
9648.00,1.49
9647.00,1.49
9646.00,1.49
9645.00,1.49
9644.00,1.49
9643.00,1.50
9642.00,1.50
9641.00,1.50
9640.00,1.50
9639.00,1.50
9638.00,1.50
9637.00,1.50
9636.00,1.50
9635.00,1.50
9634.00,1.50
9633.00,1.50
9632.00,1.50
9631.00,1.50
9630.00,1.50
9629.00,1.50
9628.00,1.50
9627.00,1.50
9626.00,1.50
9625.00,1.50
9624.00,1.50
9623.00,1.50
9622.00,1.50
9621.00,1.49
9620.00,1.49
9619.00,1.49
9618.00,1.49
9617.00,1.48
9616.00,1.48
9615.00,1.48
9614.00,1.48
9613.00,1.47
9612.00,1.47
9611.00,1.47
9610.00,1.47
9609.00,1.47
9608.00,1.47
9607.00,1.47
9606.00,1.47
9605.00,1.47
9604.00,1.47
9603.00,1.47
9602.00,1.47
9601.00,1.46
9600.00,1.46
9599.00,1.46
9598.00,1.46
9597.00,1.45
9596.00,1.45
9595.00,1.45
9594.00,1.45
9593.00,1.44
9592.00,1.44
9591.00,1.44
9590.00,1.44
9589.00,1.45
9588.00,1.45
9587.00,1.45
9586.00,1.45
9585.00,1.45
9584.00,1.45
9583.00,1.45
9582.00,1.45
9581.00,1.44
9580.00,1.44
9579.00,1.44
9578.00,1.44
9577.00,1.44
9576.00,1.43
9575.00,1.43
9574.00,1.43
9573.00,1.42
9572.00,1.42
9571.00,1.42
9570.00,1.41
9569.00,1.41
9568.00,1.40
9567.00,1.40
9566.00,1.39
9565.00,1.39
9564.00,1.38
9563.00,1.38
9562.00,1.37
9561.00,1.37
9560.00,1.36
9559.00,1.36
9558.00,1.36
9557.00,1.35
9556.00,1.35
9555.00,1.35
9554.00,1.35
9553.00,1.35
9552.00,1.35
9551.00,1.35
9550.00,1.35
9549.00,1.35
9548.00,1.35
9547.00,1.35
9546.00,1.35
9545.00,1.36
9544.00,1.36
9543.00,1.37
9542.00,1.37
9541.00,1.38
9540.00,1.39
9539.00,1.39
9538.00,1.40
9537.00,1.40
9536.00,1.41
9535.00,1.42
9534.00,1.42
9533.00,1.42
9532.00,1.43
9531.00,1.43
9530.00,1.43
9529.00,1.44
9528.00,1.44
9527.00,1.44
9526.00,1.44
9525.00,1.44
9524.00,1.44
9523.00,1.44
9522.00,1.44
9521.00,1.44
9520.00,1.44
9519.00,1.44
9518.00,1.44
9517.00,1.44
9516.00,1.43
9515.00,1.43
9514.00,1.42
9513.00,1.42
9512.00,1.41
9511.00,1.40
9510.00,1.40
9509.00,1.39
9508.00,1.38
9507.00,1.38
9506.00,1.37
9505.00,1.36
9504.00,1.36
9503.00,1.35
9502.00,1.34
9501.00,1.34
9500.00,1.33
9499.00,1.32
9498.00,1.32
9497.00,1.32
9496.00,1.31
9495.00,1.31
9494.00,1.31
9493.00,1.31
9492.00,1.30
9491.00,1.30
9490.00,1.30
9489.00,1.30
9488.00,1.31
9487.00,1.31
9486.00,1.31
9485.00,1.31
9484.00,1.31
9483.00,1.31
9482.00,1.32
9481.00,1.32
9480.00,1.32
9479.00,1.33
9478.00,1.33
9477.00,1.34
9476.00,1.34
9475.00,1.34
9474.00,1.35
9473.00,1.35
9472.00,1.35
9471.00,1.35
9470.00,1.35
9469.00,1.35
9468.00,1.35
9467.00,1.35
9466.00,1.34
9465.00,1.34
9464.00,1.34
9463.00,1.34
9462.00,1.34
9461.00,1.33
9460.00,1.33
9459.00,1.33
9458.00,1.33
9457.00,1.33
9456.00,1.32
9455.00,1.32
9454.00,1.32
9453.00,1.32
9452.00,1.31
9451.00,1.31
9450.00,1.31
9449.00,1.31
9448.00,1.30
9447.00,1.30
9446.00,1.30
9445.00,1.30
9444.00,1.30
9443.00,1.30
9442.00,1.30
9441.00,1.31
9440.00,1.31
9439.00,1.31
9438.00,1.31
9437.00,1.32
9436.00,1.32
9435.00,1.32
9434.00,1.32
9433.00,1.32
9432.00,1.32
9431.00,1.33
9430.00,1.33
9429.00,1.33
9428.00,1.33
9427.00,1.33
9426.00,1.33
9425.00,1.33
9424.00,1.33
9423.00,1.33
9422.00,1.33
9421.00,1.33
9420.00,1.33
9419.00,1.34
9418.00,1.34
9417.00,1.34
9416.00,1.33
9415.00,1.33
9414.00,1.33
9413.00,1.33
9412.00,1.33
9411.00,1.33
9410.00,1.33
9409.00,1.32
9408.00,1.32
9407.00,1.32
9406.00,1.32
9405.00,1.32
9404.00,1.31
9403.00,1.31
9402.00,1.31
9401.00,1.31
9400.00,1.31
9399.00,1.31
9398.00,1.31
9397.00,1.31
9396.00,1.31
9395.00,1.31
9394.00,1.30
9393.00,1.30
9392.00,1.30
9391.00,1.30
9390.00,1.31
9389.00,1.31
9388.00,1.31
9387.00,1.31
9386.00,1.31
9385.00,1.32
9384.00,1.32
9383.00,1.33
9382.00,1.33
9381.00,1.34
9380.00,1.34
9379.00,1.35
9378.00,1.35
9377.00,1.36
9376.00,1.36
9375.00,1.37
9374.00,1.37
9373.00,1.38
9372.00,1.39
9371.00,1.39
9370.00,1.40
9369.00,1.40
9368.00,1.41
9367.00,1.41
9366.00,1.42
9365.00,1.42
9364.00,1.43
9363.00,1.43
9362.00,1.43
9361.00,1.44
9360.00,1.44
9359.00,1.44
9358.00,1.44
9357.00,1.44
9356.00,1.44
9355.00,1.44
9354.00,1.44
9353.00,1.44
9352.00,1.44
9351.00,1.44
9350.00,1.44
9349.00,1.44
9348.00,1.44
9347.00,1.43
9346.00,1.43
9345.00,1.43
9344.00,1.43
9343.00,1.42
9342.00,1.42
9341.00,1.42
9340.00,1.41
9339.00,1.41
9338.00,1.40
9337.00,1.40
9336.00,1.39
9335.00,1.39
9334.00,1.38
9333.00,1.38
9332.00,1.37
9331.00,1.37
9330.00,1.36
9329.00,1.36
9328.00,1.35
9327.00,1.34
9326.00,1.34
9325.00,1.33
9324.00,1.33
9323.00,1.32
9322.00,1.31
9321.00,1.31
9320.00,1.30
9319.00,1.30
9318.00,1.30
9317.00,1.29
9316.00,1.29
9315.00,1.29
9314.00,1.29
9313.00,1.29
9312.00,1.29
9311.00,1.30
9310.00,1.30
9309.00,1.30
9308.00,1.31
9307.00,1.31
9306.00,1.32
9305.00,1.32
9304.00,1.33
9303.00,1.34
9302.00,1.34
9301.00,1.35
9300.00,1.36
9299.00,1.37
9298.00,1.38
9297.00,1.38
9296.00,1.39
9295.00,1.40
9294.00,1.41
9293.00,1.42
9292.00,1.43
9291.00,1.44
9290.00,1.44
9289.00,1.45
9288.00,1.46
9287.00,1.46
9286.00,1.46
9285.00,1.47
9284.00,1.47
9283.00,1.47
9282.00,1.47
9281.00,1.47
9280.00,1.47
9279.00,1.47
9278.00,1.47
9277.00,1.47
9276.00,1.47
9275.00,1.47
9274.00,1.47
9273.00,1.47
9272.00,1.47
9271.00,1.47
9270.00,1.47
9269.00,1.46
9268.00,1.46
9267.00,1.46
9266.00,1.45
9265.00,1.45
9264.00,1.44
9263.00,1.44
9262.00,1.43
9261.00,1.43
9260.00,1.42
9259.00,1.42
9258.00,1.41
9257.00,1.41
9256.00,1.40
9255.00,1.40
9254.00,1.40
9253.00,1.40
9252.00,1.39
9251.00,1.39
9250.00,1.39
9249.00,1.39
9248.00,1.39
9247.00,1.39
9246.00,1.38
9245.00,1.38
9244.00,1.39
9243.00,1.39
9242.00,1.39
9241.00,1.39
9240.00,1.39
9239.00,1.40
9238.00,1.40
9237.00,1.40
9236.00,1.41
9235.00,1.41
9234.00,1.42
9233.00,1.42
9232.00,1.42
9231.00,1.43
9230.00,1.43
9229.00,1.43
9228.00,1.44
9227.00,1.44
9226.00,1.44
9225.00,1.44
9224.00,1.44
9223.00,1.44
9222.00,1.44
9221.00,1.43
9220.00,1.43
9219.00,1.42
9218.00,1.41
9217.00,1.41
9216.00,1.40
9215.00,1.39
9214.00,1.38
9213.00,1.37
9212.00,1.37
9211.00,1.36
9210.00,1.35
9209.00,1.34
9208.00,1.33
9207.00,1.33
9206.00,1.32
9205.00,1.31
9204.00,1.31
9203.00,1.30
9202.00,1.30
9201.00,1.29
9200.00,1.29
9199.00,1.28
9198.00,1.28
9197.00,1.28
9196.00,1.28
9195.00,1.28
9194.00,1.28
9193.00,1.28
9192.00,1.28
9191.00,1.28
9190.00,1.29
9189.00,1.29
9188.00,1.29
9187.00,1.30
9186.00,1.30
9185.00,1.30
9184.00,1.31
9183.00,1.31
9182.00,1.31
9181.00,1.32
9180.00,1.32
9179.00,1.32
9178.00,1.32
9177.00,1.32
9176.00,1.33
9175.00,1.33
9174.00,1.33
9173.00,1.33
9172.00,1.34
9171.00,1.34
9170.00,1.34
9169.00,1.34
9168.00,1.35
9167.00,1.35
9166.00,1.35
9165.00,1.36
9164.00,1.36
9163.00,1.36
9162.00,1.37
9161.00,1.37
9160.00,1.37
9159.00,1.38
9158.00,1.38
9157.00,1.39
9156.00,1.39
9155.00,1.40
9154.00,1.40
9153.00,1.41
9152.00,1.41
9151.00,1.42
9150.00,1.42
9149.00,1.42
9148.00,1.43
9147.00,1.43
9146.00,1.43
9145.00,1.43
9144.00,1.43
9143.00,1.43
9142.00,1.42
9141.00,1.42
9140.00,1.41
9139.00,1.41
9138.00,1.40
9137.00,1.40
9136.00,1.39
9135.00,1.39
9134.00,1.38
9133.00,1.38
9132.00,1.37
9131.00,1.37
9130.00,1.36
9129.00,1.36
9128.00,1.35
9127.00,1.35
9126.00,1.34
9125.00,1.34
9124.00,1.33
9123.00,1.33
9122.00,1.32
9121.00,1.32
9120.00,1.32
9119.00,1.31
9118.00,1.31
9117.00,1.31
9116.00,1.31
9115.00,1.31
9114.00,1.32
9113.00,1.32
9112.00,1.32
9111.00,1.33
9110.00,1.33
9109.00,1.33
9108.00,1.34
9107.00,1.34
9106.00,1.34
9105.00,1.34
9104.00,1.34
9103.00,1.33
9102.00,1.33
9101.00,1.33
9100.00,1.32
9099.00,1.32
9098.00,1.32
9097.00,1.32
9096.00,1.31
9095.00,1.31
9094.00,1.31
9093.00,1.31
9092.00,1.31
9091.00,1.31
9090.00,1.30
9089.00,1.30
9088.00,1.30
9087.00,1.29
9086.00,1.29
9085.00,1.28
9084.00,1.28
9083.00,1.27
9082.00,1.27
9081.00,1.26
9080.00,1.26
9079.00,1.26
9078.00,1.26
9077.00,1.25
9076.00,1.25
9075.00,1.25
9074.00,1.25
9073.00,1.25
9072.00,1.25
9071.00,1.25
9070.00,1.24
9069.00,1.24
9068.00,1.24
9067.00,1.24
9066.00,1.23
9065.00,1.23
9064.00,1.23
9063.00,1.22
9062.00,1.22
9061.00,1.22
9060.00,1.22
9059.00,1.21
9058.00,1.21
9057.00,1.21
9056.00,1.21
9055.00,1.21
9054.00,1.21
9053.00,1.21
9052.00,1.21
9051.00,1.20
9050.00,1.20
9049.00,1.20
9048.00,1.20
9047.00,1.20
9046.00,1.19
9045.00,1.19
9044.00,1.19
9043.00,1.19
9042.00,1.19
9041.00,1.19
9040.00,1.19
9039.00,1.20
9038.00,1.20
9037.00,1.20
9036.00,1.20
9035.00,1.20
9034.00,1.20
9033.00,1.21
9032.00,1.21
9031.00,1.21
9030.00,1.21
9029.00,1.21
9028.00,1.22
9027.00,1.22
9026.00,1.22
9025.00,1.22
9024.00,1.23
9023.00,1.23
9022.00,1.23
9021.00,1.24
9020.00,1.24
9019.00,1.24
9018.00,1.25
9017.00,1.25
9016.00,1.26
9015.00,1.26
9014.00,1.26
9013.00,1.27
9012.00,1.27
9011.00,1.27
9010.00,1.28
9009.00,1.28
9008.00,1.28
9007.00,1.28
9006.00,1.28
9005.00,1.28
9004.00,1.28
9003.00,1.28
9002.00,1.28
9001.00,1.28
9000.00,1.28
8999.00,1.28
8998.00,1.28
8997.00,1.28
8996.00,1.28
8995.00,1.28
8994.00,1.28
8993.00,1.28
8992.00,1.29
8991.00,1.29
8990.00,1.29
8989.00,1.29
8988.00,1.29
8987.00,1.29
8986.00,1.29
8985.00,1.30
8984.00,1.30
8983.00,1.30
8982.00,1.30
8981.00,1.31
8980.00,1.31
8979.00,1.32
8978.00,1.32
8977.00,1.33
8976.00,1.33
8975.00,1.34
8974.00,1.34
8973.00,1.35
8972.00,1.35
8971.00,1.36
8970.00,1.36
8969.00,1.37
8968.00,1.37
8967.00,1.37
8966.00,1.38
8965.00,1.38
8964.00,1.38
8963.00,1.38
8962.00,1.38
8961.00,1.39
8960.00,1.39
8959.00,1.39
8958.00,1.39
8957.00,1.39
8956.00,1.39
8955.00,1.39
8954.00,1.39
8953.00,1.39
8952.00,1.39
8951.00,1.39
8950.00,1.39
8949.00,1.39
8948.00,1.39
8947.00,1.39
8946.00,1.39
8945.00,1.39
8944.00,1.39
8943.00,1.38
8942.00,1.38
8941.00,1.38
8940.00,1.38
8939.00,1.38
8938.00,1.38
8937.00,1.38
8936.00,1.38
8935.00,1.38
8934.00,1.38
8933.00,1.38
8932.00,1.38
8931.00,1.39
8930.00,1.39
8929.00,1.39
8928.00,1.39
8927.00,1.40
8926.00,1.40
8925.00,1.40
8924.00,1.41
8923.00,1.41
8922.00,1.41
8921.00,1.42
8920.00,1.42
8919.00,1.43
8918.00,1.43
8917.00,1.44
8916.00,1.44
8915.00,1.45
8914.00,1.45
8913.00,1.46
8912.00,1.46
8911.00,1.47
8910.00,1.47
8909.00,1.47
8908.00,1.47
8907.00,1.47
8906.00,1.47
8905.00,1.47
8904.00,1.47
8903.00,1.47
8902.00,1.47
8901.00,1.47
8900.00,1.46
8899.00,1.46
8898.00,1.45
8897.00,1.45
8896.00,1.44
8895.00,1.44
8894.00,1.43
8893.00,1.43
8892.00,1.42
8891.00,1.42
8890.00,1.41
8889.00,1.41
8888.00,1.40
8887.00,1.40
8886.00,1.40
8885.00,1.39
8884.00,1.39
8883.00,1.39
8882.00,1.39
8881.00,1.39
8880.00,1.38
8879.00,1.38
8878.00,1.38
8877.00,1.38
8876.00,1.38
8875.00,1.38
8874.00,1.38
8873.00,1.39
8872.00,1.39
8871.00,1.39
8870.00,1.39
8869.00,1.39
8868.00,1.39
8867.00,1.39
8866.00,1.40
8865.00,1.40
8864.00,1.40
8863.00,1.40
8862.00,1.39
8861.00,1.39
8860.00,1.39
8859.00,1.39
8858.00,1.38
8857.00,1.38
8856.00,1.38
8855.00,1.37
8854.00,1.37
8853.00,1.36
8852.00,1.36
8851.00,1.35
8850.00,1.35
8849.00,1.34
8848.00,1.33
8847.00,1.32
8846.00,1.32
8845.00,1.31
8844.00,1.30
8843.00,1.29
8842.00,1.29
8841.00,1.28
8840.00,1.28
8839.00,1.27
8838.00,1.27
8837.00,1.26
8836.00,1.26
8835.00,1.26
8834.00,1.26
8833.00,1.26
8832.00,1.26
8831.00,1.26
8830.00,1.27
8829.00,1.27
8828.00,1.27
8827.00,1.28
8826.00,1.29
8825.00,1.30
8824.00,1.30
8823.00,1.31
8822.00,1.32
8821.00,1.33
8820.00,1.35
8819.00,1.36
8818.00,1.37
8817.00,1.38
8816.00,1.39
8815.00,1.40
8814.00,1.41
8813.00,1.42
8812.00,1.43
8811.00,1.43
8810.00,1.44
8809.00,1.44
8808.00,1.45
8807.00,1.45
8806.00,1.45
8805.00,1.45
8804.00,1.45
8803.00,1.45
8802.00,1.45
8801.00,1.45
8800.00,1.44
8799.00,1.43
8798.00,1.43
8797.00,1.42
8796.00,1.41
8795.00,1.40
8794.00,1.39
8793.00,1.38
8792.00,1.37
8791.00,1.36
8790.00,1.35
8789.00,1.34
8788.00,1.33
8787.00,1.32
8786.00,1.31
8785.00,1.30
8784.00,1.29
8783.00,1.29
8782.00,1.28
8781.00,1.28
8780.00,1.27
8779.00,1.27
8778.00,1.27
8777.00,1.26
8776.00,1.26
8775.00,1.26
8774.00,1.26
8773.00,1.26
8772.00,1.26
8771.00,1.27
8770.00,1.27
8769.00,1.28
8768.00,1.28
8767.00,1.29
8766.00,1.29
8765.00,1.29
8764.00,1.30
8763.00,1.30
8762.00,1.31
8761.00,1.31
8760.00,1.31
8759.00,1.31
8758.00,1.31
8757.00,1.31
8756.00,1.31
8755.00,1.31
8754.00,1.31
8753.00,1.31
8752.00,1.31
8751.00,1.30
8750.00,1.30
8749.00,1.30
8748.00,1.29
8747.00,1.29
8746.00,1.29
8745.00,1.28
8744.00,1.27
8743.00,1.27
8742.00,1.26
8741.00,1.26
8740.00,1.25
8739.00,1.25
8738.00,1.24
8737.00,1.24
8736.00,1.23
8735.00,1.23
8734.00,1.23
8733.00,1.22
8732.00,1.22
8731.00,1.22
8730.00,1.22
8729.00,1.22
8728.00,1.22
8727.00,1.22
8726.00,1.22
8725.00,1.22
8724.00,1.23
8723.00,1.23
8722.00,1.23
8721.00,1.23
8720.00,1.23
8719.00,1.23
8718.00,1.23
8717.00,1.23
8716.00,1.24
8715.00,1.24
8714.00,1.24
8713.00,1.24
8712.00,1.24
8711.00,1.24
8710.00,1.24
8709.00,1.24
8708.00,1.24
8707.00,1.24
8706.00,1.24
8705.00,1.24
8704.00,1.24
8703.00,1.24
8702.00,1.24
8701.00,1.24
8700.00,1.23
8699.00,1.23
8698.00,1.23
8697.00,1.23
8696.00,1.22
8695.00,1.22
8694.00,1.22
8693.00,1.22
8692.00,1.21
8691.00,1.21
8690.00,1.21
8689.00,1.21
8688.00,1.21
8687.00,1.21
8686.00,1.22
8685.00,1.22
8684.00,1.22
8683.00,1.22
8682.00,1.22
8681.00,1.22
8680.00,1.22
8679.00,1.22
8678.00,1.22
8677.00,1.22
8676.00,1.22
8675.00,1.22
8674.00,1.22
8673.00,1.22
8672.00,1.22
8671.00,1.23
8670.00,1.23
8669.00,1.23
8668.00,1.24
8667.00,1.24
8666.00,1.24
8665.00,1.24
8664.00,1.25
8663.00,1.25
8662.00,1.25
8661.00,1.25
8660.00,1.25
8659.00,1.25
8658.00,1.25
8657.00,1.26
8656.00,1.26
8655.00,1.26
8654.00,1.27
8653.00,1.27
8652.00,1.28
8651.00,1.28
8650.00,1.29
8649.00,1.29
8648.00,1.30
8647.00,1.30
8646.00,1.31
8645.00,1.31
8644.00,1.32
8643.00,1.32
8642.00,1.32
8641.00,1.33
8640.00,1.33
8639.00,1.34
8638.00,1.34
8637.00,1.34
8636.00,1.35
8635.00,1.35
8634.00,1.36
8633.00,1.36
8632.00,1.36
8631.00,1.36
8630.00,1.36
8629.00,1.36
8628.00,1.36
8627.00,1.36
8626.00,1.36
8625.00,1.36
8624.00,1.35
8623.00,1.35
8622.00,1.35
8621.00,1.34
8620.00,1.34
8619.00,1.34
8618.00,1.34
8617.00,1.33
8616.00,1.33
8615.00,1.33
8614.00,1.33
8613.00,1.33
8612.00,1.32
8611.00,1.32
8610.00,1.32
8609.00,1.32
8608.00,1.32
8607.00,1.32
8606.00,1.32
8605.00,1.32
8604.00,1.32
8603.00,1.32
8602.00,1.32
8601.00,1.32
8600.00,1.32
8599.00,1.32
8598.00,1.32
8597.00,1.32
8596.00,1.32
8595.00,1.32
8594.00,1.32
8593.00,1.32
8592.00,1.32
8591.00,1.31
8590.00,1.31
8589.00,1.31
8588.00,1.31
8587.00,1.31
8586.00,1.31
8585.00,1.30
8584.00,1.30
8583.00,1.30
8582.00,1.29
8581.00,1.29
8580.00,1.29
8579.00,1.29
8578.00,1.28
8577.00,1.28
8576.00,1.28
8575.00,1.28
8574.00,1.28
8573.00,1.28
8572.00,1.28
8571.00,1.28
8570.00,1.29
8569.00,1.29
8568.00,1.29
8567.00,1.29
8566.00,1.29
8565.00,1.29
8564.00,1.30
8563.00,1.30
8562.00,1.30
8561.00,1.30
8560.00,1.30
8559.00,1.30
8558.00,1.30
8557.00,1.31
8556.00,1.31
8555.00,1.31
8554.00,1.31
8553.00,1.31
8552.00,1.31
8551.00,1.31
8550.00,1.31
8549.00,1.31
8548.00,1.31
8547.00,1.31
8546.00,1.31
8545.00,1.31
8544.00,1.31
8543.00,1.31
8542.00,1.30
8541.00,1.30
8540.00,1.30
8539.00,1.30
8538.00,1.29
8537.00,1.29
8536.00,1.29
8535.00,1.29
8534.00,1.29
8533.00,1.29
8532.00,1.29
8531.00,1.28
8530.00,1.28
8529.00,1.28
8528.00,1.28
8527.00,1.28
8526.00,1.28
8525.00,1.28
8524.00,1.28
8523.00,1.28
8522.00,1.27
8521.00,1.27
8520.00,1.27
8519.00,1.27
8518.00,1.27
8517.00,1.27
8516.00,1.26
8515.00,1.26
8514.00,1.26
8513.00,1.26
8512.00,1.25
8511.00,1.25
8510.00,1.25
8509.00,1.25
8508.00,1.25
8507.00,1.24
8506.00,1.24
8505.00,1.24
8504.00,1.23
8503.00,1.23
8502.00,1.23
8501.00,1.23
8500.00,1.22
8499.00,1.22
8498.00,1.22
8497.00,1.21
8496.00,1.21
8495.00,1.21
8494.00,1.21
8493.00,1.20
8492.00,1.20
8491.00,1.20
8490.00,1.20
8489.00,1.20
8488.00,1.19
8487.00,1.19
8486.00,1.19
8485.00,1.19
8484.00,1.19
8483.00,1.19
8482.00,1.18
8481.00,1.18
8480.00,1.18
8479.00,1.18
8478.00,1.18
8477.00,1.17
8476.00,1.17
8475.00,1.17
8474.00,1.17
8473.00,1.17
8472.00,1.17
8471.00,1.17
8470.00,1.17
8469.00,1.17
8468.00,1.17
8467.00,1.17
8466.00,1.17
8465.00,1.17
8464.00,1.18
8463.00,1.18
8462.00,1.18
8461.00,1.18
8460.00,1.19
8459.00,1.19
8458.00,1.19
8457.00,1.20
8456.00,1.20
8455.00,1.20
8454.00,1.21
8453.00,1.21
8452.00,1.21
8451.00,1.22
8450.00,1.22
8449.00,1.22
8448.00,1.23
8447.00,1.23
8446.00,1.23
8445.00,1.24
8444.00,1.24
8443.00,1.24
8442.00,1.25
8441.00,1.25
8440.00,1.25
8439.00,1.25
8438.00,1.26
8437.00,1.26
8436.00,1.26
8435.00,1.27
8434.00,1.27
8433.00,1.27
8432.00,1.28
8431.00,1.28
8430.00,1.28
8429.00,1.29
8428.00,1.29
8427.00,1.29
8426.00,1.30
8425.00,1.30
8424.00,1.30
8423.00,1.30
8422.00,1.31
8421.00,1.31
8420.00,1.31
8419.00,1.32
8418.00,1.32
8417.00,1.32
8416.00,1.32
8415.00,1.32
8414.00,1.33
8413.00,1.33
8412.00,1.33
8411.00,1.33
8410.00,1.33
8409.00,1.33
8408.00,1.34
8407.00,1.34
8406.00,1.34
8405.00,1.34
8404.00,1.34
8403.00,1.34
8402.00,1.35
8401.00,1.35
8400.00,1.35
8399.00,1.35
8398.00,1.36
8397.00,1.36
8396.00,1.36
8395.00,1.36
8394.00,1.37
8393.00,1.37
8392.00,1.37
8391.00,1.37
8390.00,1.37
8389.00,1.38
8388.00,1.38
8387.00,1.38
8386.00,1.38
8385.00,1.38
8384.00,1.38
8383.00,1.38
8382.00,1.38
8381.00,1.38
8380.00,1.38
8379.00,1.37
8378.00,1.37
8377.00,1.37
8376.00,1.37
8375.00,1.36
8374.00,1.36
8373.00,1.36
8372.00,1.35
8371.00,1.35
8370.00,1.35
8369.00,1.34
8368.00,1.34
8367.00,1.34
8366.00,1.33
8365.00,1.33
8364.00,1.33
8363.00,1.32
8362.00,1.32
8361.00,1.32
8360.00,1.32
8359.00,1.32
8358.00,1.32
8357.00,1.32
8356.00,1.31
8355.00,1.31
8354.00,1.31
8353.00,1.31
8352.00,1.31
8351.00,1.31
8350.00,1.31
8349.00,1.30
8348.00,1.30
8347.00,1.30
8346.00,1.30
8345.00,1.29
8344.00,1.29
8343.00,1.29
8342.00,1.28
8341.00,1.28
8340.00,1.28
8339.00,1.28
8338.00,1.27
8337.00,1.27
8336.00,1.27
8335.00,1.26
8334.00,1.26
8333.00,1.26
8332.00,1.25
8331.00,1.25
8330.00,1.25
8329.00,1.24
8328.00,1.24
8327.00,1.24
8326.00,1.24
8325.00,1.24
8324.00,1.24
8323.00,1.24
8322.00,1.24
8321.00,1.24
8320.00,1.24
8319.00,1.24
8318.00,1.24
8317.00,1.24
8316.00,1.24
8315.00,1.25
8314.00,1.25
8313.00,1.25
8312.00,1.25
8311.00,1.25
8310.00,1.26
8309.00,1.26
8308.00,1.26
8307.00,1.26
8306.00,1.26
8305.00,1.26
8304.00,1.27
8303.00,1.27
8302.00,1.27
8301.00,1.27
8300.00,1.28
8299.00,1.28
8298.00,1.28
8297.00,1.28
8296.00,1.29
8295.00,1.29
8294.00,1.29
8293.00,1.29
8292.00,1.29
8291.00,1.29
8290.00,1.29
8289.00,1.29
8288.00,1.30
8287.00,1.30
8286.00,1.30
8285.00,1.30
8284.00,1.30
8283.00,1.30
8282.00,1.30
8281.00,1.30
8280.00,1.31
8279.00,1.31
8278.00,1.31
8277.00,1.31
8276.00,1.31
8275.00,1.32
8274.00,1.32
8273.00,1.32
8272.00,1.32
8271.00,1.32
8270.00,1.32
8269.00,1.32
8268.00,1.33
8267.00,1.33
8266.00,1.33
8265.00,1.33
8264.00,1.34
8263.00,1.34
8262.00,1.34
8261.00,1.34
8260.00,1.35
8259.00,1.35
8258.00,1.35
8257.00,1.35
8256.00,1.36
8255.00,1.36
8254.00,1.36
8253.00,1.36
8252.00,1.36
8251.00,1.36
8250.00,1.36
8249.00,1.36
8248.00,1.36
8247.00,1.36
8246.00,1.35
8245.00,1.35
8244.00,1.35
8243.00,1.35
8242.00,1.35
8241.00,1.35
8240.00,1.34
8239.00,1.34
8238.00,1.34
8237.00,1.33
8236.00,1.33
8235.00,1.32
8234.00,1.32
8233.00,1.31
8232.00,1.31
8231.00,1.30
8230.00,1.30
8229.00,1.29
8228.00,1.29
8227.00,1.29
8226.00,1.28
8225.00,1.28
8224.00,1.28
8223.00,1.27
8222.00,1.27
8221.00,1.27
8220.00,1.27
8219.00,1.27
8218.00,1.26
8217.00,1.26
8216.00,1.26
8215.00,1.26
8214.00,1.26
8213.00,1.26
8212.00,1.26
8211.00,1.27
8210.00,1.27
8209.00,1.27
8208.00,1.27
8207.00,1.27
8206.00,1.27
8205.00,1.27
8204.00,1.28
8203.00,1.28
8202.00,1.28
8201.00,1.28
8200.00,1.28
8199.00,1.28
8198.00,1.29
8197.00,1.29
8196.00,1.29
8195.00,1.29
8194.00,1.29
8193.00,1.30
8192.00,1.30
8191.00,1.30
8190.00,1.30
8189.00,1.30
8188.00,1.31
8187.00,1.31
8186.00,1.31
8185.00,1.31
8184.00,1.32
8183.00,1.32
8182.00,1.32
8181.00,1.32
8180.00,1.33
8179.00,1.33
8178.00,1.33
8177.00,1.34
8176.00,1.34
8175.00,1.34
8174.00,1.35
8173.00,1.35
8172.00,1.36
8171.00,1.36
8170.00,1.36
8169.00,1.37
8168.00,1.37
8167.00,1.37
8166.00,1.38
8165.00,1.38
8164.00,1.38
8163.00,1.38
8162.00,1.38
8161.00,1.38
8160.00,1.38
8159.00,1.38
8158.00,1.38
8157.00,1.38
8156.00,1.38
8155.00,1.38
8154.00,1.38
8153.00,1.38
8152.00,1.38
8151.00,1.38
8150.00,1.38
8149.00,1.38
8148.00,1.37
8147.00,1.37
8146.00,1.37
8145.00,1.37
8144.00,1.37
8143.00,1.36
8142.00,1.36
8141.00,1.36
8140.00,1.36
8139.00,1.36
8138.00,1.36
8137.00,1.36
8136.00,1.36
8135.00,1.36
8134.00,1.36
8133.00,1.37
8132.00,1.37
8131.00,1.37
8130.00,1.37
8129.00,1.37
8128.00,1.37
8127.00,1.37
8126.00,1.37
8125.00,1.37
8124.00,1.37
8123.00,1.37
8122.00,1.37
8121.00,1.37
8120.00,1.37
8119.00,1.38
8118.00,1.38
8117.00,1.38
8116.00,1.38
8115.00,1.38
8114.00,1.39
8113.00,1.39
8112.00,1.39
8111.00,1.39
8110.00,1.39
8109.00,1.39
8108.00,1.39
8107.00,1.39
8106.00,1.39
8105.00,1.40
8104.00,1.40
8103.00,1.40
8102.00,1.40
8101.00,1.40
8100.00,1.40
8099.00,1.40
8098.00,1.41
8097.00,1.41
8096.00,1.41
8095.00,1.41
8094.00,1.41
8093.00,1.41
8092.00,1.41
8091.00,1.41
8090.00,1.41
8089.00,1.41
8088.00,1.41
8087.00,1.41
8086.00,1.41
8085.00,1.41
8084.00,1.41
8083.00,1.41
8082.00,1.41
8081.00,1.41
8080.00,1.41
8079.00,1.41
8078.00,1.41
8077.00,1.41
8076.00,1.40
8075.00,1.40
8074.00,1.40
8073.00,1.40
8072.00,1.40
8071.00,1.40
8070.00,1.39
8069.00,1.39
8068.00,1.39
8067.00,1.39
8066.00,1.39
8065.00,1.39
8064.00,1.39
8063.00,1.39
8062.00,1.39
8061.00,1.39
8060.00,1.39
8059.00,1.39
8058.00,1.39
8057.00,1.39
8056.00,1.39
8055.00,1.39
8054.00,1.39
8053.00,1.40
8052.00,1.40
8051.00,1.40
8050.00,1.40
8049.00,1.41
8048.00,1.41
8047.00,1.41
8046.00,1.42
8045.00,1.42
8044.00,1.43
8043.00,1.43
8042.00,1.44
8041.00,1.44
8040.00,1.44
8039.00,1.45
8038.00,1.45
8037.00,1.45
8036.00,1.46
8035.00,1.46
8034.00,1.47
8033.00,1.47
8032.00,1.47
8031.00,1.47
8030.00,1.47
8029.00,1.47
8028.00,1.48
8027.00,1.48
8026.00,1.48
8025.00,1.47
8024.00,1.47
8023.00,1.47
8022.00,1.47
8021.00,1.47
8020.00,1.47
8019.00,1.46
8018.00,1.46
8017.00,1.46
8016.00,1.46
8015.00,1.45
8014.00,1.45
8013.00,1.45
8012.00,1.44
8011.00,1.44
8010.00,1.43
8009.00,1.43
8008.00,1.43
8007.00,1.42
8006.00,1.42
8005.00,1.42
8004.00,1.41
8003.00,1.41
8002.00,1.41
8001.00,1.41
8000.00,1.40
7999.00,1.40
7998.00,1.40
7997.00,1.40
7996.00,1.40
7995.00,1.40
7994.00,1.40
7993.00,1.40
7992.00,1.41
7991.00,1.41
7990.00,1.41
7989.00,1.41
7988.00,1.42
7987.00,1.42
7986.00,1.42
7985.00,1.43
7984.00,1.43
7983.00,1.44
7982.00,1.44
7981.00,1.44
7980.00,1.45
7979.00,1.45
7978.00,1.45
7977.00,1.46
7976.00,1.46
7975.00,1.46
7974.00,1.46
7973.00,1.47
7972.00,1.47
7971.00,1.47
7970.00,1.47
7969.00,1.47
7968.00,1.47
7967.00,1.47
7966.00,1.46
7965.00,1.46
7964.00,1.46
7963.00,1.46
7962.00,1.45
7961.00,1.45
7960.00,1.44
7959.00,1.44
7958.00,1.44
7957.00,1.43
7956.00,1.43
7955.00,1.42
7954.00,1.42
7953.00,1.42
7952.00,1.41
7951.00,1.41
7950.00,1.41
7949.00,1.41
7948.00,1.40
7947.00,1.40
7946.00,1.40
7945.00,1.40
7944.00,1.40
7943.00,1.40
7942.00,1.40
7941.00,1.40
7940.00,1.40
7939.00,1.40
7938.00,1.40
7937.00,1.41
7936.00,1.41
7935.00,1.41
7934.00,1.41
7933.00,1.41
7932.00,1.42
7931.00,1.42
7930.00,1.42
7929.00,1.42
7928.00,1.43
7927.00,1.43
7926.00,1.43
7925.00,1.43
7924.00,1.43
7923.00,1.44
7922.00,1.44
7921.00,1.44
7920.00,1.44
7919.00,1.44
7918.00,1.44
7917.00,1.44
7916.00,1.44
7915.00,1.44
7914.00,1.44
7913.00,1.44
7912.00,1.44
7911.00,1.43
7910.00,1.43
7909.00,1.43
7908.00,1.43
7907.00,1.43
7906.00,1.43
7905.00,1.43
7904.00,1.43
7903.00,1.43
7902.00,1.43
7901.00,1.43
7900.00,1.43
7899.00,1.43
7898.00,1.43
7897.00,1.43
7896.00,1.43
7895.00,1.43
7894.00,1.43
7893.00,1.43
7892.00,1.43
7891.00,1.43
7890.00,1.43
7889.00,1.44
7888.00,1.44
7887.00,1.44
7886.00,1.44
7885.00,1.45
7884.00,1.45
7883.00,1.45
7882.00,1.45
7881.00,1.45
7880.00,1.46
7879.00,1.46
7878.00,1.46
7877.00,1.46
7876.00,1.46
7875.00,1.46
7874.00,1.46
7873.00,1.46
7872.00,1.46
7871.00,1.46
7870.00,1.46
7869.00,1.46
7868.00,1.46
7867.00,1.46
7866.00,1.46
7865.00,1.46
7864.00,1.45
7863.00,1.45
7862.00,1.45
7861.00,1.45
7860.00,1.45
7859.00,1.45
7858.00,1.44
7857.00,1.44
7856.00,1.44
7855.00,1.44
7854.00,1.44
7853.00,1.44
7852.00,1.44
7851.00,1.44
7850.00,1.44
7849.00,1.44
7848.00,1.44
7847.00,1.45
7846.00,1.45
7845.00,1.45
7844.00,1.45
7843.00,1.46
7842.00,1.46
7841.00,1.46
7840.00,1.46
7839.00,1.47
7838.00,1.47
7837.00,1.47
7836.00,1.47
7835.00,1.48
7834.00,1.48
7833.00,1.48
7832.00,1.49
7831.00,1.49
7830.00,1.49
7829.00,1.50
7828.00,1.50
7827.00,1.50
7826.00,1.51
7825.00,1.51
7824.00,1.51
7823.00,1.51
7822.00,1.52
7821.00,1.52
7820.00,1.52
7819.00,1.52
7818.00,1.52
7817.00,1.52
7816.00,1.52
7815.00,1.52
7814.00,1.52
7813.00,1.52
7812.00,1.52
7811.00,1.53
7810.00,1.53
7809.00,1.53
7808.00,1.52
7807.00,1.52
7806.00,1.52
7805.00,1.52
7804.00,1.52
7803.00,1.51
7802.00,1.51
7801.00,1.51
7800.00,1.50
7799.00,1.50
7798.00,1.49
7797.00,1.49
7796.00,1.49
7795.00,1.48
7794.00,1.48
7793.00,1.47
7792.00,1.47
7791.00,1.47
7790.00,1.46
7789.00,1.46
7788.00,1.46
7787.00,1.45
7786.00,1.45
7785.00,1.45
7784.00,1.44
7783.00,1.44
7782.00,1.44
7781.00,1.43
7780.00,1.43
7779.00,1.43
7778.00,1.43
7777.00,1.42
7776.00,1.42
7775.00,1.42
7774.00,1.42
7773.00,1.42
7772.00,1.42
7771.00,1.42
7770.00,1.41
7769.00,1.41
7768.00,1.41
7767.00,1.41
7766.00,1.41
7765.00,1.41
7764.00,1.40
7763.00,1.40
7762.00,1.40
7761.00,1.40
7760.00,1.40
7759.00,1.39
7758.00,1.39
7757.00,1.39
7756.00,1.39
7755.00,1.39
7754.00,1.39
7753.00,1.39
7752.00,1.39
7751.00,1.40
7750.00,1.40
7749.00,1.40
7748.00,1.40
7747.00,1.41
7746.00,1.41
7745.00,1.41
7744.00,1.42
7743.00,1.42
7742.00,1.42
7741.00,1.43
7740.00,1.43
7739.00,1.44
7738.00,1.44
7737.00,1.45
7736.00,1.45
7735.00,1.45
7734.00,1.46
7733.00,1.46
7732.00,1.46
7731.00,1.47
7730.00,1.47
7729.00,1.47
7728.00,1.47
7727.00,1.48
7726.00,1.48
7725.00,1.48
7724.00,1.48
7723.00,1.48
7722.00,1.48
7721.00,1.48
7720.00,1.48
7719.00,1.47
7718.00,1.47
7717.00,1.47
7716.00,1.47
7715.00,1.47
7714.00,1.47
7713.00,1.47
7712.00,1.47
7711.00,1.47
7710.00,1.47
7709.00,1.47
7708.00,1.47
7707.00,1.47
7706.00,1.47
7705.00,1.47
7704.00,1.47
7703.00,1.47
7702.00,1.47
7701.00,1.47
7700.00,1.48
7699.00,1.48
7698.00,1.48
7697.00,1.48
7696.00,1.48
7695.00,1.48
7694.00,1.48
7693.00,1.48
7692.00,1.48
7691.00,1.48
7690.00,1.48
7689.00,1.48
7688.00,1.48
7687.00,1.48
7686.00,1.48
7685.00,1.48
7684.00,1.49
7683.00,1.49
7682.00,1.49
7681.00,1.49
7680.00,1.49
7679.00,1.49
7678.00,1.49
7677.00,1.50
7676.00,1.50
7675.00,1.50
7674.00,1.50
7673.00,1.50
7672.00,1.51
7671.00,1.51
7670.00,1.51
7669.00,1.51
7668.00,1.51
7667.00,1.52
7666.00,1.52
7665.00,1.52
7664.00,1.52
7663.00,1.52
7662.00,1.52
7661.00,1.52
7660.00,1.53
7659.00,1.53
7658.00,1.53
7657.00,1.53
7656.00,1.53
7655.00,1.53
7654.00,1.53
7653.00,1.53
7652.00,1.53
7651.00,1.53
7650.00,1.53
7649.00,1.53
7648.00,1.53
7647.00,1.53
7646.00,1.53
7645.00,1.52
7644.00,1.52
7643.00,1.52
7642.00,1.52
7641.00,1.52
7640.00,1.52
7639.00,1.51
7638.00,1.51
7637.00,1.51
7636.00,1.51
7635.00,1.51
7634.00,1.50
7633.00,1.50
7632.00,1.50
7631.00,1.50
7630.00,1.49
7629.00,1.49
7628.00,1.49
7627.00,1.48
7626.00,1.48
7625.00,1.48
7624.00,1.47
7623.00,1.47
7622.00,1.47
7621.00,1.46
7620.00,1.46
7619.00,1.46
7618.00,1.46
7617.00,1.45
7616.00,1.45
7615.00,1.45
7614.00,1.45
7613.00,1.45
7612.00,1.45
7611.00,1.45
7610.00,1.45
7609.00,1.44
7608.00,1.44
7607.00,1.44
7606.00,1.44
7605.00,1.44
7604.00,1.44
7603.00,1.44
7602.00,1.44
7601.00,1.45
7600.00,1.45
7599.00,1.45
7598.00,1.45
7597.00,1.45
7596.00,1.45
7595.00,1.45
7594.00,1.45
7593.00,1.46
7592.00,1.46
7591.00,1.46
7590.00,1.46
7589.00,1.46
7588.00,1.46
7587.00,1.46
7586.00,1.46
7585.00,1.46
7584.00,1.46
7583.00,1.46
7582.00,1.46
7581.00,1.46
7580.00,1.46
7579.00,1.46
7578.00,1.46
7577.00,1.45
7576.00,1.45
7575.00,1.45
7574.00,1.45
7573.00,1.45
7572.00,1.45
7571.00,1.45
7570.00,1.45
7569.00,1.45
7568.00,1.44
7567.00,1.44
7566.00,1.44
7565.00,1.44
7564.00,1.44
7563.00,1.43
7562.00,1.43
7561.00,1.43
7560.00,1.43
7559.00,1.43
7558.00,1.43
7557.00,1.43
7556.00,1.42
7555.00,1.42
7554.00,1.42
7553.00,1.42
7552.00,1.42
7551.00,1.42
7550.00,1.42
7549.00,1.42
7548.00,1.42
7547.00,1.42
7546.00,1.42
7545.00,1.42
7544.00,1.42
7543.00,1.42
7542.00,1.42
7541.00,1.43
7540.00,1.43
7539.00,1.44
7538.00,1.44
7537.00,1.45
7536.00,1.45
7535.00,1.46
7534.00,1.46
7533.00,1.47
7532.00,1.47
7531.00,1.48
7530.00,1.48
7529.00,1.49
7528.00,1.49
7527.00,1.50
7526.00,1.50
7525.00,1.51
7524.00,1.51
7523.00,1.52
7522.00,1.52
7521.00,1.53
7520.00,1.53
7519.00,1.53
7518.00,1.54
7517.00,1.54
7516.00,1.54
7515.00,1.54
7514.00,1.54
7513.00,1.54
7512.00,1.54
7511.00,1.54
7510.00,1.54
7509.00,1.53
7508.00,1.53
7507.00,1.53
7506.00,1.53
7505.00,1.52
7504.00,1.52
7503.00,1.52
7502.00,1.51
7501.00,1.51
7500.00,1.51
7499.00,1.50
7498.00,1.50
7497.00,1.49
7496.00,1.49
7495.00,1.48
7494.00,1.48
7493.00,1.48
7492.00,1.47
7491.00,1.47
7490.00,1.47
7489.00,1.47
7488.00,1.46
7487.00,1.46
7486.00,1.46
7485.00,1.46
7484.00,1.45
7483.00,1.45
7482.00,1.45
7481.00,1.45
7480.00,1.45
7479.00,1.44
7478.00,1.44
7477.00,1.44
7476.00,1.44
7475.00,1.44
7474.00,1.44
7473.00,1.44
7472.00,1.44
7471.00,1.44
7470.00,1.44
7469.00,1.44
7468.00,1.43
7467.00,1.43
7466.00,1.43
7465.00,1.43
7464.00,1.43
7463.00,1.43
7462.00,1.43
7461.00,1.43
7460.00,1.43
7459.00,1.43
7458.00,1.43
7457.00,1.43
7456.00,1.43
7455.00,1.43
7454.00,1.43
7453.00,1.43
7452.00,1.43
7451.00,1.43
7450.00,1.43
7449.00,1.43
7448.00,1.43
7447.00,1.43
7446.00,1.43
7445.00,1.43
7444.00,1.43
7443.00,1.43
7442.00,1.43
7441.00,1.43
7440.00,1.43
7439.00,1.43
7438.00,1.43
7437.00,1.43
7436.00,1.43
7435.00,1.43
7434.00,1.42
7433.00,1.42
7432.00,1.42
7431.00,1.41
7430.00,1.41
7429.00,1.40
7428.00,1.40
7427.00,1.39
7426.00,1.39
7425.00,1.39
7424.00,1.38
7423.00,1.38
7422.00,1.37
7421.00,1.37
7420.00,1.36
7419.00,1.36
7418.00,1.36
7417.00,1.35
7416.00,1.35
7415.00,1.34
7414.00,1.34
7413.00,1.34
7412.00,1.34
7411.00,1.33
7410.00,1.33
7409.00,1.33
7408.00,1.33
7407.00,1.33
7406.00,1.33
7405.00,1.33
7404.00,1.33
7403.00,1.33
7402.00,1.34
7401.00,1.34
7400.00,1.34
7399.00,1.34
7398.00,1.34
7397.00,1.34
7396.00,1.34
7395.00,1.34
7394.00,1.34
7393.00,1.34
7392.00,1.34
7391.00,1.34
7390.00,1.34
7389.00,1.34
7388.00,1.34
7387.00,1.34
7386.00,1.34
7385.00,1.33
7384.00,1.33
7383.00,1.33
7382.00,1.33
7381.00,1.32
7380.00,1.32
7379.00,1.32
7378.00,1.32
7377.00,1.31
7376.00,1.31
7375.00,1.31
7374.00,1.30
7373.00,1.30
7372.00,1.30
7371.00,1.30
7370.00,1.29
7369.00,1.29
7368.00,1.29
7367.00,1.29
7366.00,1.29
7365.00,1.28
7364.00,1.28
7363.00,1.28
7362.00,1.27
7361.00,1.27
7360.00,1.27
7359.00,1.27
7358.00,1.27
7357.00,1.27
7356.00,1.27
7355.00,1.26
7354.00,1.26
7353.00,1.26
7352.00,1.26
7351.00,1.26
7350.00,1.26
7349.00,1.26
7348.00,1.26
7347.00,1.26
7346.00,1.26
7345.00,1.26
7344.00,1.26
7343.00,1.27
7342.00,1.27
7341.00,1.27
7340.00,1.27
7339.00,1.27
7338.00,1.27
7337.00,1.27
7336.00,1.28
7335.00,1.28
7334.00,1.28
7333.00,1.28
7332.00,1.28
7331.00,1.29
7330.00,1.29
7329.00,1.29
7328.00,1.29
7327.00,1.29
7326.00,1.30
7325.00,1.30
7324.00,1.30
7323.00,1.30
7322.00,1.30
7321.00,1.30
7320.00,1.31
7319.00,1.31
7318.00,1.31
7317.00,1.31
7316.00,1.31
7315.00,1.31
7314.00,1.31
7313.00,1.31
7312.00,1.31
7311.00,1.31
7310.00,1.31
7309.00,1.31
7308.00,1.31
7307.00,1.31
7306.00,1.31
7305.00,1.31
7304.00,1.31
7303.00,1.31
7302.00,1.31
7301.00,1.31
7300.00,1.31
7299.00,1.30
7298.00,1.30
7297.00,1.30
7296.00,1.30
7295.00,1.30
7294.00,1.30
7293.00,1.30
7292.00,1.30
7291.00,1.29
7290.00,1.29
7289.00,1.29
7288.00,1.29
7287.00,1.29
7286.00,1.29
7285.00,1.29
7284.00,1.29
7283.00,1.29
7282.00,1.29
7281.00,1.29
7280.00,1.29
7279.00,1.29
7278.00,1.29
7277.00,1.29
7276.00,1.29
7275.00,1.29
7274.00,1.29
7273.00,1.29
7272.00,1.29
7271.00,1.29
7270.00,1.29
7269.00,1.29
7268.00,1.29
7267.00,1.29
7266.00,1.29
7265.00,1.29
7264.00,1.29
7263.00,1.29
7262.00,1.29
7261.00,1.29
7260.00,1.29
7259.00,1.29
7258.00,1.29
7257.00,1.29
7256.00,1.29
7255.00,1.29
7254.00,1.28
7253.00,1.28
7252.00,1.28
7251.00,1.28
7250.00,1.27
7249.00,1.27
7248.00,1.27
7247.00,1.27
7246.00,1.26
7245.00,1.26
7244.00,1.26
7243.00,1.26
7242.00,1.26
7241.00,1.25
7240.00,1.25
7239.00,1.25
7238.00,1.25
7237.00,1.25
7236.00,1.25
7235.00,1.24
7234.00,1.24
7233.00,1.24
7232.00,1.24
7231.00,1.23
7230.00,1.23
7229.00,1.23
7228.00,1.23
7227.00,1.22
7226.00,1.22
7225.00,1.22
7224.00,1.21
7223.00,1.21
7222.00,1.21
7221.00,1.21
7220.00,1.20
7219.00,1.20
7218.00,1.20
7217.00,1.20
7216.00,1.19
7215.00,1.19
7214.00,1.19
7213.00,1.18
7212.00,1.18
7211.00,1.17
7210.00,1.17
7209.00,1.16
7208.00,1.16
7207.00,1.15
7206.00,1.15
7205.00,1.15
7204.00,1.14
7203.00,1.14
7202.00,1.13
7201.00,1.13
7200.00,1.13
7199.00,1.12
7198.00,1.12
7197.00,1.12
7196.00,1.12
7195.00,1.11
7194.00,1.11
7193.00,1.11
7192.00,1.11
7191.00,1.10
7190.00,1.10
7189.00,1.10
7188.00,1.09
7187.00,1.09
7186.00,1.09
7185.00,1.08
7184.00,1.08
7183.00,1.08
7182.00,1.07
7181.00,1.07
7180.00,1.07
7179.00,1.07
7178.00,1.06
7177.00,1.06
7176.00,1.06
7175.00,1.06
7174.00,1.05
7173.00,1.05
7172.00,1.05
7171.00,1.05
7170.00,1.04
7169.00,1.04
7168.00,1.03
7167.00,1.03
7166.00,1.02
7165.00,1.02
7164.00,1.01
7163.00,1.01
7162.00,1.00
7161.00,1.00
7160.00,0.99
7159.00,0.99
7158.00,0.98
7157.00,0.98
7156.00,0.98
7155.00,0.97
7154.00,0.97
7153.00,0.96
7152.00,0.95
7151.00,0.95
7150.00,0.94
7149.00,0.94
7148.00,0.93
7147.00,0.92
7146.00,0.92
7145.00,0.91
7144.00,0.91
7143.00,0.90
7142.00,0.90
7141.00,0.89
7140.00,0.89
7139.00,0.89
7138.00,0.88
7137.00,0.88
7136.00,0.88
7135.00,0.87
7134.00,0.87
7133.00,0.87
7132.00,0.86
7131.00,0.86
7130.00,0.86
7129.00,0.86
7128.00,0.85
7127.00,0.85
7126.00,0.85
7125.00,0.84
7124.00,0.84
7123.00,0.84
7122.00,0.84
7121.00,0.83
7120.00,0.83
7119.00,0.83
7118.00,0.82
7117.00,0.82
7116.00,0.82
7115.00,0.81
7114.00,0.81
7113.00,0.80
7112.00,0.80
7111.00,0.80
7110.00,0.79
7109.00,0.79
7108.00,0.78
7107.00,0.78
7106.00,0.78
7105.00,0.77
7104.00,0.77
7103.00,0.77
7102.00,0.76
7101.00,0.76
7100.00,0.76
7099.00,0.76
7098.00,0.75
7097.00,0.75
7096.00,0.75
7095.00,0.75
7094.00,0.75
7093.00,0.75
7092.00,0.75
7091.00,0.75
7090.00,0.75
7089.00,0.75
7088.00,0.75
7087.00,0.75
7086.00,0.75
7085.00,0.75
7084.00,0.75
7083.00,0.75
7082.00,0.75
7081.00,0.76
7080.00,0.76
7079.00,0.76
7078.00,0.76
7077.00,0.76
7076.00,0.76
7075.00,0.76
7074.00,0.76
7073.00,0.76
7072.00,0.76
7071.00,0.76
7070.00,0.76
7069.00,0.76
7068.00,0.76
7067.00,0.76
7066.00,0.76
7065.00,0.76
7064.00,0.76
7063.00,0.76
7062.00,0.76
7061.00,0.76
7060.00,0.76
7059.00,0.76
7058.00,0.76
7057.00,0.76
7056.00,0.76
7055.00,0.76
7054.00,0.76
7053.00,0.76
7052.00,0.76
7051.00,0.76
7050.00,0.76
7049.00,0.76
7048.00,0.76
7047.00,0.77
7046.00,0.77
7045.00,0.77
7044.00,0.77
7043.00,0.77
7042.00,0.77
7041.00,0.77
7040.00,0.77
7039.00,0.77
7038.00,0.77
7037.00,0.77
7036.00,0.76
7035.00,0.76
7034.00,0.76
7033.00,0.76
7032.00,0.76
7031.00,0.76
7030.00,0.76
7029.00,0.75
7028.00,0.75
7027.00,0.75
7026.00,0.75
7025.00,0.74
7024.00,0.74
7023.00,0.74
7022.00,0.73
7021.00,0.73
7020.00,0.73
7019.00,0.72
7018.00,0.72
7017.00,0.72
7016.00,0.72
7015.00,0.71
7014.00,0.71
7013.00,0.71
7012.00,0.71
7011.00,0.71
7010.00,0.70
7009.00,0.70
7008.00,0.70
7007.00,0.70
7006.00,0.70
7005.00,0.70
7004.00,0.70
7003.00,0.70
7002.00,0.70
7001.00,0.70
7000.00,0.70
6999.00,0.70
6998.00,0.70
6997.00,0.70
6996.00,0.70
6995.00,0.70
6994.00,0.70
6993.00,0.70
6992.00,0.70
6991.00,0.70
6990.00,0.70
6989.00,0.70
6988.00,0.70
6987.00,0.70
6986.00,0.70
6985.00,0.70
6984.00,0.70
6983.00,0.70
6982.00,0.69
6981.00,0.69
6980.00,0.69
6979.00,0.69
6978.00,0.69
6977.00,0.68
6976.00,0.68
6975.00,0.68
6974.00,0.68
6973.00,0.68
6972.00,0.67
6971.00,0.67
6970.00,0.67
6969.00,0.67
6968.00,0.67
6967.00,0.66
6966.00,0.66
6965.00,0.66
6964.00,0.66
6963.00,0.66
6962.00,0.66
6961.00,0.66
6960.00,0.66
6959.00,0.66
6958.00,0.66
6957.00,0.66
6956.00,0.66
6955.00,0.66
6954.00,0.66
6953.00,0.66
6952.00,0.67
6951.00,0.67
6950.00,0.67
6949.00,0.67
6948.00,0.67
6947.00,0.67
6946.00,0.67
6945.00,0.67
6944.00,0.67
6943.00,0.67
6942.00,0.67
6941.00,0.67
6940.00,0.67
6939.00,0.67
6938.00,0.67
6937.00,0.67
6936.00,0.67
6935.00,0.67
6934.00,0.67
6933.00,0.67
6932.00,0.67
6931.00,0.67
6930.00,0.67
6929.00,0.67
6928.00,0.67
6927.00,0.67
6926.00,0.67
6925.00,0.67
6924.00,0.67
6923.00,0.67
6922.00,0.67
6921.00,0.67
6920.00,0.67
6919.00,0.67
6918.00,0.67
6917.00,0.67
6916.00,0.67
6915.00,0.67
6914.00,0.67
6913.00,0.67
6912.00,0.67
6911.00,0.67
6910.00,0.67
6909.00,0.67
6908.00,0.67
6907.00,0.67
6906.00,0.67
6905.00,0.67
6904.00,0.67
6903.00,0.67
6902.00,0.67
6901.00,0.67
6900.00,0.67
6899.00,0.67
6898.00,0.67
6897.00,0.67
6896.00,0.67
6895.00,0.67
6894.00,0.67
6893.00,0.67
6892.00,0.67
6891.00,0.67
6890.00,0.66
6889.00,0.66
6888.00,0.66
6887.00,0.66
6886.00,0.66
6885.00,0.67
6884.00,0.67
6883.00,0.67
6882.00,0.67
6881.00,0.67
6880.00,0.67
6879.00,0.67
6878.00,0.67
6877.00,0.68
6876.00,0.68
6875.00,0.68
6874.00,0.68
6873.00,0.68
6872.00,0.68
6871.00,0.68
6870.00,0.69
6869.00,0.69
6868.00,0.69
6867.00,0.69
6866.00,0.69
6865.00,0.69
6864.00,0.69
6863.00,0.69
6862.00,0.70
6861.00,0.70
6860.00,0.69
6859.00,0.69
6858.00,0.69
6857.00,0.69
6856.00,0.69
6855.00,0.69
6854.00,0.69
6853.00,0.69
6852.00,0.69
6851.00,0.69
6850.00,0.69
6849.00,0.69
6848.00,0.68
6847.00,0.68
6846.00,0.68
6845.00,0.68
6844.00,0.68
6843.00,0.68
6842.00,0.68
6841.00,0.68
6840.00,0.67
6839.00,0.67
6838.00,0.67
6837.00,0.67
6836.00,0.67
6835.00,0.67
6834.00,0.67
6833.00,0.67
6832.00,0.67
6831.00,0.67
6830.00,0.67
6829.00,0.67
6828.00,0.68
6827.00,0.68
6826.00,0.68
6825.00,0.68
6824.00,0.68
6823.00,0.68
6822.00,0.68
6821.00,0.68
6820.00,0.68
6819.00,0.68
6818.00,0.68
6817.00,0.68
6816.00,0.68
6815.00,0.68
6814.00,0.69
6813.00,0.69
6812.00,0.69
6811.00,0.69
6810.00,0.69
6809.00,0.69
6808.00,0.69
6807.00,0.69
6806.00,0.70
6805.00,0.70
6804.00,0.70
6803.00,0.70
6802.00,0.70
6801.00,0.70
6800.00,0.71
6799.00,0.71
6798.00,0.71
6797.00,0.71
6796.00,0.71
6795.00,0.71
6794.00,0.71
6793.00,0.72
6792.00,0.72
6791.00,0.72
6790.00,0.72
6789.00,0.72
6788.00,0.72
6787.00,0.72
6786.00,0.72
6785.00,0.72
6784.00,0.72
6783.00,0.72
6782.00,0.72
6781.00,0.72
6780.00,0.72
6779.00,0.72
6778.00,0.72
6777.00,0.72
6776.00,0.72
6775.00,0.72
6774.00,0.72
6773.00,0.72
6772.00,0.72
6771.00,0.72
6770.00,0.72
6769.00,0.72
6768.00,0.72
6767.00,0.72
6766.00,0.72
6765.00,0.72
6764.00,0.72
6763.00,0.73
6762.00,0.73
6761.00,0.73
6760.00,0.73
6759.00,0.73
6758.00,0.74
6757.00,0.74
6756.00,0.74
6755.00,0.74
6754.00,0.75
6753.00,0.75
6752.00,0.75
6751.00,0.76
6750.00,0.76
6749.00,0.76
6748.00,0.76
6747.00,0.77
6746.00,0.77
6745.00,0.77
6744.00,0.77
6743.00,0.77
6742.00,0.77
6741.00,0.77
6740.00,0.77
6739.00,0.77
6738.00,0.77
6737.00,0.77
6736.00,0.77
6735.00,0.77
6734.00,0.77
6733.00,0.76
6732.00,0.76
6731.00,0.76
6730.00,0.76
6729.00,0.76
6728.00,0.76
6727.00,0.76
6726.00,0.76
6725.00,0.76
6724.00,0.76
6723.00,0.76
6722.00,0.76
6721.00,0.76
6720.00,0.76
6719.00,0.76
6718.00,0.76
6717.00,0.76
6716.00,0.76
6715.00,0.77
6714.00,0.77
6713.00,0.77
6712.00,0.77
6711.00,0.77
6710.00,0.78
6709.00,0.78
6708.00,0.78
6707.00,0.78
6706.00,0.79
6705.00,0.79
6704.00,0.79
6703.00,0.79
6702.00,0.79
6701.00,0.79
6700.00,0.79
6699.00,0.79
6698.00,0.79
6697.00,0.79
6696.00,0.79
6695.00,0.79
6694.00,0.79
6693.00,0.79
6692.00,0.79
6691.00,0.79
6690.00,0.79
6689.00,0.79
6688.00,0.79
6687.00,0.79
6686.00,0.79
6685.00,0.79
6684.00,0.79
6683.00,0.79
6682.00,0.80
6681.00,0.80
6680.00,0.80
6679.00,0.80
6678.00,0.80
6677.00,0.80
6676.00,0.80
6675.00,0.80
6674.00,0.81
6673.00,0.81
6672.00,0.81
6671.00,0.81
6670.00,0.81
6669.00,0.81
6668.00,0.82
6667.00,0.82
6666.00,0.82
6665.00,0.82
6664.00,0.82
6663.00,0.82
6662.00,0.83
6661.00,0.83
6660.00,0.83
6659.00,0.83
6658.00,0.83
6657.00,0.83
6656.00,0.83
6655.00,0.83
6654.00,0.83
6653.00,0.83
6652.00,0.83
6651.00,0.83
6650.00,0.84
6649.00,0.84
6648.00,0.84
6647.00,0.84
6646.00,0.84
6645.00,0.85
6644.00,0.85
6643.00,0.85
6642.00,0.85
6641.00,0.85
6640.00,0.85
6639.00,0.86
6638.00,0.86
6637.00,0.86
6636.00,0.86
6635.00,0.86
6634.00,0.86
6633.00,0.86
6632.00,0.87
6631.00,0.87
6630.00,0.87
6629.00,0.87
6628.00,0.87
6627.00,0.87
6626.00,0.87
6625.00,0.86
6624.00,0.86
6623.00,0.86
6622.00,0.86
6621.00,0.86
6620.00,0.86
6619.00,0.85
6618.00,0.85
6617.00,0.85
6616.00,0.85
6615.00,0.85
6614.00,0.85
6613.00,0.85
6612.00,0.85
6611.00,0.84
6610.00,0.84
6609.00,0.84
6608.00,0.84
6607.00,0.85
6606.00,0.85
6605.00,0.85
6604.00,0.85
6603.00,0.85
6602.00,0.85
6601.00,0.86
6600.00,0.86
6599.00,0.86
6598.00,0.87
6597.00,0.87
6596.00,0.88
6595.00,0.88
6594.00,0.89
6593.00,0.89
6592.00,0.90
6591.00,0.90
6590.00,0.90
6589.00,0.91
6588.00,0.91
6587.00,0.92
6586.00,0.92
6585.00,0.92
6584.00,0.92
6583.00,0.93
6582.00,0.93
6581.00,0.93
6580.00,0.93
6579.00,0.93
6578.00,0.93
6577.00,0.93
6576.00,0.93
6575.00,0.93
6574.00,0.93
6573.00,0.93
6572.00,0.93
6571.00,0.92
6570.00,0.92
6569.00,0.92
6568.00,0.92
6567.00,0.91
6566.00,0.91
6565.00,0.91
6564.00,0.90
6563.00,0.90
6562.00,0.90
6561.00,0.90
6560.00,0.90
6559.00,0.90
6558.00,0.89
6557.00,0.89
6556.00,0.89
6555.00,0.89
6554.00,0.89
6553.00,0.89
6552.00,0.89
6551.00,0.90
6550.00,0.90
6549.00,0.90
6548.00,0.90
6547.00,0.90
6546.00,0.91
6545.00,0.91
6544.00,0.91
6543.00,0.92
6542.00,0.92
6541.00,0.92
6540.00,0.93
6539.00,0.93
6538.00,0.93
6537.00,0.94
6536.00,0.94
6535.00,0.94
6534.00,0.95
6533.00,0.95
6532.00,0.95
6531.00,0.96
6530.00,0.96
6529.00,0.96
6528.00,0.96
6527.00,0.96
6526.00,0.96
6525.00,0.96
6524.00,0.96
6523.00,0.96
6522.00,0.96
6521.00,0.96
6520.00,0.96
6519.00,0.96
6518.00,0.96
6517.00,0.96
6516.00,0.96
6515.00,0.95
6514.00,0.95
6513.00,0.95
6512.00,0.96
6511.00,0.96
6510.00,0.96
6509.00,0.96
6508.00,0.96
6507.00,0.96
6506.00,0.96
6505.00,0.96
6504.00,0.96
6503.00,0.96
6502.00,0.96
6501.00,0.97
6500.00,0.97
6499.00,0.97
6498.00,0.97
6497.00,0.97
6496.00,0.98
6495.00,0.98
6494.00,0.98
6493.00,0.98
6492.00,0.99
6491.00,0.99
6490.00,0.99
6489.00,0.99
6488.00,0.99
6487.00,1.00
6486.00,1.00
6485.00,1.00
6484.00,1.00
6483.00,1.00
6482.00,1.00
6481.00,1.00
6480.00,1.00
6479.00,1.00
6478.00,1.00
6477.00,1.00
6476.00,1.00
6475.00,1.00
6474.00,1.00
6473.00,1.00
6472.00,1.00
6471.00,1.00
6470.00,1.00
6469.00,1.00
6468.00,1.00
6467.00,1.00
6466.00,1.01
6465.00,1.01
6464.00,1.01
6463.00,1.01
6462.00,1.01
6461.00,1.01
6460.00,1.01
6459.00,1.01
6458.00,1.01
6457.00,1.02
6456.00,1.02
6455.00,1.02
6454.00,1.02
6453.00,1.02
6452.00,1.03
6451.00,1.03
6450.00,1.03
6449.00,1.03
6448.00,1.03
6447.00,1.03
6446.00,1.03
6445.00,1.03
6444.00,1.03
6443.00,1.03
6442.00,1.03
6441.00,1.03
6440.00,1.03
6439.00,1.03
6438.00,1.03
6437.00,1.03
6436.00,1.03
6435.00,1.03
6434.00,1.03
6433.00,1.03
6432.00,1.03
6431.00,1.03
6430.00,1.03
6429.00,1.03
6428.00,1.03
6427.00,1.03
6426.00,1.03
6425.00,1.03
6424.00,1.03
6423.00,1.03
6422.00,1.03
6421.00,1.03
6420.00,1.03
6419.00,1.03
6418.00,1.03
6417.00,1.03
6416.00,1.03
6415.00,1.03
6414.00,1.04
6413.00,1.04
6412.00,1.04
6411.00,1.04
6410.00,1.04
6409.00,1.05
6408.00,1.05
6407.00,1.05
6406.00,1.05
6405.00,1.05
6404.00,1.05
6403.00,1.05
6402.00,1.06
6401.00,1.06
6400.00,1.06
6399.00,1.06
6398.00,1.06
6397.00,1.06
6396.00,1.06
6395.00,1.06
6394.00,1.07
6393.00,1.07
6392.00,1.07
6391.00,1.07
6390.00,1.07
6389.00,1.07
6388.00,1.07
6387.00,1.07
6386.00,1.07
6385.00,1.07
6384.00,1.08
6383.00,1.08
6382.00,1.08
6381.00,1.08
6380.00,1.08
6379.00,1.09
6378.00,1.09
6377.00,1.09
6376.00,1.09
6375.00,1.09
6374.00,1.10
6373.00,1.10
6372.00,1.10
6371.00,1.10
6370.00,1.11
6369.00,1.11
6368.00,1.11
6367.00,1.11
6366.00,1.11
6365.00,1.11
6364.00,1.12
6363.00,1.12
6362.00,1.12
6361.00,1.12
6360.00,1.12
6359.00,1.12
6358.00,1.12
6357.00,1.12
6356.00,1.12
6355.00,1.12
6354.00,1.12
6353.00,1.12
6352.00,1.13
6351.00,1.13
6350.00,1.13
6349.00,1.13
6348.00,1.13
6347.00,1.13
6346.00,1.14
6345.00,1.14
6344.00,1.14
6343.00,1.15
6342.00,1.15
6341.00,1.15
6340.00,1.16
6339.00,1.16
6338.00,1.16
6337.00,1.17
6336.00,1.17
6335.00,1.17
6334.00,1.18
6333.00,1.18
6332.00,1.18
6331.00,1.19
6330.00,1.19
6329.00,1.19
6328.00,1.20
6327.00,1.20
6326.00,1.20
6325.00,1.20
6324.00,1.20
6323.00,1.20
6322.00,1.20
6321.00,1.20
6320.00,1.20
6319.00,1.20
6318.00,1.20
6317.00,1.20
6316.00,1.19
6315.00,1.19
6314.00,1.19
6313.00,1.19
6312.00,1.18
6311.00,1.18
6310.00,1.18
6309.00,1.18
6308.00,1.18
6307.00,1.17
6306.00,1.17
6305.00,1.17
6304.00,1.17
6303.00,1.17
6302.00,1.17
6301.00,1.17
6300.00,1.17
6299.00,1.17
6298.00,1.17
6297.00,1.17
6296.00,1.17
6295.00,1.17
6294.00,1.17
6293.00,1.17
6292.00,1.17
6291.00,1.17
6290.00,1.18
6289.00,1.18
6288.00,1.18
6287.00,1.18
6286.00,1.18
6285.00,1.19
6284.00,1.19
6283.00,1.19
6282.00,1.19
6281.00,1.19
6280.00,1.19
6279.00,1.19
6278.00,1.20
6277.00,1.20
6276.00,1.20
6275.00,1.20
6274.00,1.20
6273.00,1.20
6272.00,1.20
6271.00,1.20
6270.00,1.20
6269.00,1.20
6268.00,1.20
6267.00,1.20
6266.00,1.20
6265.00,1.20
6264.00,1.20
6263.00,1.20
6262.00,1.20
6261.00,1.20
6260.00,1.20
6259.00,1.20
6258.00,1.20
6257.00,1.20
6256.00,1.20
6255.00,1.20
6254.00,1.20
6253.00,1.20
6252.00,1.21
6251.00,1.21
6250.00,1.21
6249.00,1.21
6248.00,1.22
6247.00,1.22
6246.00,1.22
6245.00,1.22
6244.00,1.23
6243.00,1.23
6242.00,1.23
6241.00,1.24
6240.00,1.24
6239.00,1.25
6238.00,1.25
6237.00,1.25
6236.00,1.26
6235.00,1.26
6234.00,1.26
6233.00,1.27
6232.00,1.27
6231.00,1.27
6230.00,1.28
6229.00,1.28
6228.00,1.28
6227.00,1.29
6226.00,1.29
6225.00,1.29
6224.00,1.29
6223.00,1.30
6222.00,1.30
6221.00,1.30
6220.00,1.30
6219.00,1.31
6218.00,1.31
6217.00,1.31
6216.00,1.31
6215.00,1.31
6214.00,1.31
6213.00,1.32
6212.00,1.32
6211.00,1.32
6210.00,1.32
6209.00,1.32
6208.00,1.32
6207.00,1.32
6206.00,1.32
6205.00,1.32
6204.00,1.32
6203.00,1.32
6202.00,1.32
6201.00,1.32
6200.00,1.32
6199.00,1.32
6198.00,1.32
6197.00,1.32
6196.00,1.32
6195.00,1.32
6194.00,1.32
6193.00,1.32
6192.00,1.32
6191.00,1.32
6190.00,1.32
6189.00,1.32
6188.00,1.32
6187.00,1.32
6186.00,1.32
6185.00,1.32
6184.00,1.32
6183.00,1.32
6182.00,1.33
6181.00,1.33
6180.00,1.33
6179.00,1.33
6178.00,1.33
6177.00,1.33
6176.00,1.33
6175.00,1.34
6174.00,1.34
6173.00,1.34
6172.00,1.34
6171.00,1.34
6170.00,1.35
6169.00,1.35
6168.00,1.35
6167.00,1.35
6166.00,1.35
6165.00,1.36
6164.00,1.36
6163.00,1.36
6162.00,1.36
6161.00,1.36
6160.00,1.36
6159.00,1.37
6158.00,1.37
6157.00,1.37
6156.00,1.37
6155.00,1.37
6154.00,1.37
6153.00,1.38
6152.00,1.38
6151.00,1.38
6150.00,1.38
6149.00,1.38
6148.00,1.39
6147.00,1.39
6146.00,1.39
6145.00,1.39
6144.00,1.39
6143.00,1.40
6142.00,1.40
6141.00,1.40
6140.00,1.40
6139.00,1.40
6138.00,1.40
6137.00,1.41
6136.00,1.41
6135.00,1.41
6134.00,1.41
6133.00,1.41
6132.00,1.41
6131.00,1.42
6130.00,1.42
6129.00,1.42
6128.00,1.42
6127.00,1.42
6126.00,1.42
6125.00,1.42
6124.00,1.42
6123.00,1.42
6122.00,1.42
6121.00,1.42
6120.00,1.42
6119.00,1.42
6118.00,1.42
6117.00,1.42
6116.00,1.42
6115.00,1.42
6114.00,1.42
6113.00,1.42
6112.00,1.42
6111.00,1.42
6110.00,1.42
6109.00,1.42
6108.00,1.42
6107.00,1.42
6106.00,1.43
6105.00,1.43
6104.00,1.43
6103.00,1.43
6102.00,1.43
6101.00,1.43
6100.00,1.43
6099.00,1.43
6098.00,1.43
6097.00,1.43
6096.00,1.44
6095.00,1.44
6094.00,1.44
6093.00,1.44
6092.00,1.44
6091.00,1.44
6090.00,1.44
6089.00,1.44
6088.00,1.45
6087.00,1.45
6086.00,1.45
6085.00,1.45
6084.00,1.45
6083.00,1.45
6082.00,1.46
6081.00,1.46
6080.00,1.46
6079.00,1.46
6078.00,1.47
6077.00,1.47
6076.00,1.47
6075.00,1.48
6074.00,1.48
6073.00,1.48
6072.00,1.48
6071.00,1.49
6070.00,1.49
6069.00,1.49
6068.00,1.49
6067.00,1.50
6066.00,1.50
6065.00,1.50
6064.00,1.50
6063.00,1.51
6062.00,1.51
6061.00,1.51
6060.00,1.51
6059.00,1.51
6058.00,1.51
6057.00,1.51
6056.00,1.51
6055.00,1.51
6054.00,1.51
6053.00,1.51
6052.00,1.51
6051.00,1.51
6050.00,1.51
6049.00,1.51
6048.00,1.50
6047.00,1.50
6046.00,1.50
6045.00,1.50
6044.00,1.50
6043.00,1.49
6042.00,1.49
6041.00,1.49
6040.00,1.49
6039.00,1.49
6038.00,1.48
6037.00,1.48
6036.00,1.48
6035.00,1.48
6034.00,1.48
6033.00,1.48
6032.00,1.48
6031.00,1.48
6030.00,1.48
6029.00,1.48
6028.00,1.48
6027.00,1.48
6026.00,1.48
6025.00,1.48
6024.00,1.48
6023.00,1.48
6022.00,1.48
6021.00,1.48
6020.00,1.48
6019.00,1.48
6018.00,1.48
6017.00,1.48
6016.00,1.49
6015.00,1.49
6014.00,1.49
6013.00,1.49
6012.00,1.49
6011.00,1.49
6010.00,1.49
6009.00,1.49
6008.00,1.49
6007.00,1.49
6006.00,1.49
6005.00,1.49
6004.00,1.49
6003.00,1.49
6002.00,1.49
6001.00,1.49
6000.00,1.49
5999.00,1.49
5998.00,1.49
5997.00,1.49
5996.00,1.49
5995.00,1.49
5994.00,1.49
5993.00,1.49
5992.00,1.49
5991.00,1.49
5990.00,1.49
5989.00,1.49
5988.00,1.49
5987.00,1.49
5986.00,1.49
5985.00,1.49
5984.00,1.49
5983.00,1.49
5982.00,1.49
5981.00,1.48
5980.00,1.48
5979.00,1.48
5978.00,1.48
5977.00,1.47
5976.00,1.47
5975.00,1.47
5974.00,1.46
5973.00,1.46
5972.00,1.45
5971.00,1.45
5970.00,1.44
5969.00,1.44
5968.00,1.43
5967.00,1.43
5966.00,1.42
5965.00,1.42
5964.00,1.42
5963.00,1.41
5962.00,1.41
5961.00,1.40
5960.00,1.40
5959.00,1.39
5958.00,1.39
5957.00,1.38
5956.00,1.38
5955.00,1.38
5954.00,1.38
5953.00,1.37
5952.00,1.37
5951.00,1.37
5950.00,1.37
5949.00,1.37
5948.00,1.36
5947.00,1.36
5946.00,1.36
5945.00,1.36
5944.00,1.36
5943.00,1.36
5942.00,1.36
5941.00,1.36
5940.00,1.36
5939.00,1.36
5938.00,1.35
5937.00,1.35
5936.00,1.35
5935.00,1.35
5934.00,1.35
5933.00,1.35
5932.00,1.35
5931.00,1.35
5930.00,1.35
5929.00,1.35
5928.00,1.35
5927.00,1.35
5926.00,1.35
5925.00,1.35
5924.00,1.35
5923.00,1.35
5922.00,1.35
5921.00,1.35
5920.00,1.35
5919.00,1.35
5918.00,1.35
5917.00,1.36
5916.00,1.36
5915.00,1.36
5914.00,1.36
5913.00,1.36
5912.00,1.36
5911.00,1.36
5910.00,1.36
5909.00,1.36
5908.00,1.36
5907.00,1.36
5906.00,1.36
5905.00,1.36
5904.00,1.36
5903.00,1.36
5902.00,1.36
5901.00,1.36
5900.00,1.36
5899.00,1.36
5898.00,1.36
5897.00,1.36
5896.00,1.36
5895.00,1.36
5894.00,1.36
5893.00,1.36
5892.00,1.36
5891.00,1.36
5890.00,1.36
5889.00,1.37
5888.00,1.37
5887.00,1.37
5886.00,1.37
5885.00,1.37
5884.00,1.37
5883.00,1.37
5882.00,1.37
5881.00,1.37
5880.00,1.37
5879.00,1.37
5878.00,1.38
5877.00,1.38
5876.00,1.38
5875.00,1.38
5874.00,1.38
5873.00,1.38
5872.00,1.38
5871.00,1.38
5870.00,1.38
5869.00,1.39
5868.00,1.39
5867.00,1.39
5866.00,1.39
5865.00,1.39
5864.00,1.39
5863.00,1.40
5862.00,1.40
5861.00,1.40
5860.00,1.40
5859.00,1.40
5858.00,1.40
5857.00,1.40
5856.00,1.40
5855.00,1.40
5854.00,1.40
5853.00,1.40
5852.00,1.40
5851.00,1.40
5850.00,1.40
5849.00,1.40
5848.00,1.40
5847.00,1.40
5846.00,1.40
5845.00,1.40
5844.00,1.40
5843.00,1.40
5842.00,1.40
5841.00,1.40
5840.00,1.39
5839.00,1.39
5838.00,1.39
5837.00,1.39
5836.00,1.39
5835.00,1.39
5834.00,1.39
5833.00,1.39
5832.00,1.39
5831.00,1.39
5830.00,1.39
5829.00,1.40
5828.00,1.40
5827.00,1.40
5826.00,1.40
5825.00,1.40
5824.00,1.40
5823.00,1.40
5822.00,1.40
5821.00,1.40
5820.00,1.40
5819.00,1.41
5818.00,1.41
5817.00,1.41
5816.00,1.41
5815.00,1.41
5814.00,1.41
5813.00,1.41
5812.00,1.41
5811.00,1.42
5810.00,1.42
5809.00,1.42
5808.00,1.42
5807.00,1.42
5806.00,1.42
5805.00,1.41
5804.00,1.41
5803.00,1.41
5802.00,1.41
5801.00,1.41
5800.00,1.41
5799.00,1.41
5798.00,1.41
5797.00,1.40
5796.00,1.40
5795.00,1.40
5794.00,1.40
5793.00,1.39
5792.00,1.39
5791.00,1.39
5790.00,1.39
5789.00,1.38
5788.00,1.38
5787.00,1.38
5786.00,1.38
5785.00,1.38
5784.00,1.37
5783.00,1.37
5782.00,1.37
5781.00,1.37
5780.00,1.37
5779.00,1.36
5778.00,1.36
5777.00,1.36
5776.00,1.36
5775.00,1.36
5774.00,1.36
5773.00,1.36
5772.00,1.36
5771.00,1.36
5770.00,1.36
5769.00,1.36
5768.00,1.36
5767.00,1.36
5766.00,1.37
5765.00,1.37
5764.00,1.37
5763.00,1.37
5762.00,1.37
5761.00,1.38
5760.00,1.38
5759.00,1.38
5758.00,1.39
5757.00,1.39
5756.00,1.39
5755.00,1.40
5754.00,1.40
5753.00,1.41
5752.00,1.41
5751.00,1.41
5750.00,1.42
5749.00,1.42
5748.00,1.42
5747.00,1.43
5746.00,1.43
5745.00,1.43
5744.00,1.44
5743.00,1.44
5742.00,1.44
5741.00,1.44
5740.00,1.45
5739.00,1.45
5738.00,1.45
5737.00,1.45
5736.00,1.45
5735.00,1.45
5734.00,1.45
5733.00,1.45
5732.00,1.45
5731.00,1.45
5730.00,1.45
5729.00,1.45
5728.00,1.45
5727.00,1.44
5726.00,1.44
5725.00,1.44
5724.00,1.44
5723.00,1.44
5722.00,1.43
5721.00,1.43
5720.00,1.43
5719.00,1.43
5718.00,1.42
5717.00,1.42
5716.00,1.42
5715.00,1.42
5714.00,1.41
5713.00,1.41
5712.00,1.41
5711.00,1.41
5710.00,1.41
5709.00,1.41
5708.00,1.40
5707.00,1.40
5706.00,1.40
5705.00,1.40
5704.00,1.40
5703.00,1.40
5702.00,1.40
5701.00,1.40
5700.00,1.40
5699.00,1.40
5698.00,1.40
5697.00,1.40
5696.00,1.40
5695.00,1.40
5694.00,1.40
5693.00,1.40
5692.00,1.40
5691.00,1.40
5690.00,1.40
5689.00,1.40
5688.00,1.40
5687.00,1.40
5686.00,1.40
5685.00,1.40
5684.00,1.40
5683.00,1.40
5682.00,1.40
5681.00,1.40
5680.00,1.40
5679.00,1.40
5678.00,1.40
5677.00,1.40
5676.00,1.40
5675.00,1.40
5674.00,1.40
5673.00,1.40
5672.00,1.40
5671.00,1.40
5670.00,1.40
5669.00,1.40
5668.00,1.40
5667.00,1.40
5666.00,1.40
5665.00,1.40
5664.00,1.40
5663.00,1.40
5662.00,1.40
5661.00,1.40
5660.00,1.40
5659.00,1.40
5658.00,1.40
5657.00,1.39
5656.00,1.39
5655.00,1.40
5654.00,1.40
5653.00,1.40
5652.00,1.40
5651.00,1.40
5650.00,1.40
5649.00,1.40
5648.00,1.40
5647.00,1.40
5646.00,1.40
5645.00,1.40
5644.00,1.40
5643.00,1.40
5642.00,1.40
5641.00,1.41
5640.00,1.41
5639.00,1.41
5638.00,1.41
5637.00,1.41
5636.00,1.41
5635.00,1.41
5634.00,1.42
5633.00,1.42
5632.00,1.42
5631.00,1.42
5630.00,1.42
5629.00,1.42
5628.00,1.42
5627.00,1.42
5626.00,1.42
5625.00,1.42
5624.00,1.42
5623.00,1.42
5622.00,1.42
5621.00,1.42
5620.00,1.42
5619.00,1.42
5618.00,1.42
5617.00,1.42
5616.00,1.42
5615.00,1.42
5614.00,1.42
5613.00,1.42
5612.00,1.42
5611.00,1.42
5610.00,1.42
5609.00,1.42
5608.00,1.42
5607.00,1.42
5606.00,1.42
5605.00,1.42
5604.00,1.42
5603.00,1.42
5602.00,1.42
5601.00,1.42
5600.00,1.42
5599.00,1.43
5598.00,1.43
5597.00,1.43
5596.00,1.43
5595.00,1.43
5594.00,1.43
5593.00,1.43
5592.00,1.44
5591.00,1.44
5590.00,1.44
5589.00,1.44
5588.00,1.44
5587.00,1.45
5586.00,1.45
5585.00,1.45
5584.00,1.45
5583.00,1.45
5582.00,1.46
5581.00,1.46
5580.00,1.46
5579.00,1.46
5578.00,1.47
5577.00,1.47
5576.00,1.47
5575.00,1.47
5574.00,1.48
5573.00,1.48
5572.00,1.48
5571.00,1.49
5570.00,1.49
5569.00,1.49
5568.00,1.49
5567.00,1.49
5566.00,1.49
5565.00,1.50
5564.00,1.50
5563.00,1.50
5562.00,1.50
5561.00,1.50
5560.00,1.50
5559.00,1.50
5558.00,1.50
5557.00,1.50
5556.00,1.50
5555.00,1.50
5554.00,1.50
5553.00,1.50
5552.00,1.50
5551.00,1.50
5550.00,1.50
5549.00,1.50
5548.00,1.50
5547.00,1.50
5546.00,1.50
5545.00,1.50
5544.00,1.50
5543.00,1.50
5542.00,1.50
5541.00,1.50
5540.00,1.51
5539.00,1.51
5538.00,1.51
5537.00,1.51
5536.00,1.51
5535.00,1.51
5534.00,1.51
5533.00,1.51
5532.00,1.51
5531.00,1.51
5530.00,1.51
5529.00,1.51
5528.00,1.51
5527.00,1.52
5526.00,1.52
5525.00,1.52
5524.00,1.52
5523.00,1.52
5522.00,1.52
5521.00,1.52
5520.00,1.52
5519.00,1.52
5518.00,1.52
5517.00,1.52
5516.00,1.52
5515.00,1.52
5514.00,1.52
5513.00,1.52
5512.00,1.52
5511.00,1.52
5510.00,1.52
5509.00,1.52
5508.00,1.52
5507.00,1.52
5506.00,1.52
5505.00,1.52
5504.00,1.52
5503.00,1.51
5502.00,1.51
5501.00,1.51
5500.00,1.51
5499.00,1.51
5498.00,1.51
5497.00,1.51
5496.00,1.51
5495.00,1.51
5494.00,1.51
5493.00,1.51
5492.00,1.51
5491.00,1.51
5490.00,1.51
5489.00,1.51
5488.00,1.51
5487.00,1.51
5486.00,1.52
5485.00,1.52
5484.00,1.52
5483.00,1.52
5482.00,1.52
5481.00,1.52
5480.00,1.52
5479.00,1.52
5478.00,1.52
5477.00,1.52
5476.00,1.53
5475.00,1.53
5474.00,1.53
5473.00,1.53
5472.00,1.53
5471.00,1.53
5470.00,1.53
5469.00,1.54
5468.00,1.54
5467.00,1.54
5466.00,1.54
5465.00,1.54
5464.00,1.54
5463.00,1.54
5462.00,1.55
5461.00,1.55
5460.00,1.55
5459.00,1.55
5458.00,1.55
5457.00,1.55
5456.00,1.55
5455.00,1.56
5454.00,1.56
5453.00,1.56
5452.00,1.56
5451.00,1.56
5450.00,1.56
5449.00,1.56
5448.00,1.56
5447.00,1.56
5446.00,1.56
5445.00,1.56
5444.00,1.56
5443.00,1.56
5442.00,1.55
5441.00,1.55
5440.00,1.55
5439.00,1.55
5438.00,1.55
5437.00,1.55
5436.00,1.54
5435.00,1.54
5434.00,1.54
5433.00,1.54
5432.00,1.54
5431.00,1.53
5430.00,1.53
5429.00,1.53
5428.00,1.53
5427.00,1.52
5426.00,1.52
5425.00,1.52
5424.00,1.52
5423.00,1.52
5422.00,1.52
5421.00,1.52
5420.00,1.51
5419.00,1.51
5418.00,1.51
5417.00,1.51
5416.00,1.51
5415.00,1.51
5414.00,1.51
5413.00,1.52
5412.00,1.52
5411.00,1.52
5410.00,1.52
5409.00,1.52
5408.00,1.52
5407.00,1.52
5406.00,1.52
5405.00,1.52
5404.00,1.52
5403.00,1.52
5402.00,1.52
5401.00,1.52
5400.00,1.52
5399.00,1.52
5398.00,1.52
5397.00,1.52
5396.00,1.52
5395.00,1.52
5394.00,1.52
5393.00,1.52
5392.00,1.52
5391.00,1.51
5390.00,1.51
5389.00,1.51
5388.00,1.50
5387.00,1.50
5386.00,1.50
5385.00,1.49
5384.00,1.49
5383.00,1.48
5382.00,1.48
5381.00,1.47
5380.00,1.47
5379.00,1.46
5378.00,1.46
5377.00,1.45
5376.00,1.45
5375.00,1.44
5374.00,1.44
5373.00,1.43
5372.00,1.43
5371.00,1.42
5370.00,1.41
5369.00,1.41
5368.00,1.40
5367.00,1.39
5366.00,1.38
5365.00,1.38
5364.00,1.37
5363.00,1.36
5362.00,1.35
5361.00,1.34
5360.00,1.34
5359.00,1.33
5358.00,1.32
5357.00,1.31
5356.00,1.30
5355.00,1.29
5354.00,1.28
5353.00,1.27
5352.00,1.26
5351.00,1.25
5350.00,1.24
5349.00,1.23
5348.00,1.22
5347.00,1.21
5346.00,1.20
5345.00,1.19
5344.00,1.18
5343.00,1.17
5342.00,1.16
5341.00,1.15
5340.00,1.14
5339.00,1.13
5338.00,1.13
5337.00,1.12
5336.00,1.11
5335.00,1.11
5334.00,1.10
5333.00,1.10
5332.00,1.09
5331.00,1.08
5330.00,1.08
5329.00,1.07
5328.00,1.07
5327.00,1.06
5326.00,1.06
5325.00,1.05
5324.00,1.05
5323.00,1.04
5322.00,1.04
5321.00,1.03
5320.00,1.02
5319.00,1.02
5318.00,1.01
5317.00,1.01
5316.00,1.00
5315.00,1.00
5314.00,0.99
5313.00,0.99
5312.00,0.98
5311.00,0.98
5310.00,0.97
5309.00,0.97
5308.00,0.96
5307.00,0.96
5306.00,0.95
5305.00,0.95
5304.00,0.94
5303.00,0.94
5302.00,0.93
5301.00,0.93
5300.00,0.92
5299.00,0.92
5298.00,0.92
5297.00,0.91
5296.00,0.91
5295.00,0.91
5294.00,0.91
5293.00,0.91
5292.00,0.90
5291.00,0.90
5290.00,0.90
5289.00,0.90
5288.00,0.90
5287.00,0.89
5286.00,0.89
5285.00,0.89
5284.00,0.89
5283.00,0.88
5282.00,0.88
5281.00,0.88
5280.00,0.88
5279.00,0.88
5278.00,0.88
5277.00,0.88
5276.00,0.87
5275.00,0.87
5274.00,0.87
5273.00,0.87
5272.00,0.87
5271.00,0.87
5270.00,0.87
5269.00,0.87
5268.00,0.87
5267.00,0.87
5266.00,0.86
5265.00,0.86
5264.00,0.86
5263.00,0.86
5262.00,0.86
5261.00,0.86
5260.00,0.86
5259.00,0.85
5258.00,0.85
5257.00,0.85
5256.00,0.85
5255.00,0.85
5254.00,0.85
5253.00,0.85
5252.00,0.85
5251.00,0.85
5250.00,0.85
5249.00,0.84
5248.00,0.84
5247.00,0.84
5246.00,0.84
5245.00,0.84
5244.00,0.84
5243.00,0.84
5242.00,0.83
5241.00,0.83
5240.00,0.83
5239.00,0.83
5238.00,0.83
5237.00,0.83
5236.00,0.83
5235.00,0.83
5234.00,0.83
5233.00,0.83
5232.00,0.83
5231.00,0.83
5230.00,0.83
5229.00,0.83
5228.00,0.83
5227.00,0.83
5226.00,0.83
5225.00,0.83
5224.00,0.82
5223.00,0.82
5222.00,0.82
5221.00,0.82
5220.00,0.82
5219.00,0.82
5218.00,0.82
5217.00,0.82
5216.00,0.82
5215.00,0.82
5214.00,0.82
5213.00,0.82
5212.00,0.82
5211.00,0.82
5210.00,0.82
5209.00,0.82
5208.00,0.82
5207.00,0.82
5206.00,0.82
5205.00,0.82
5204.00,0.82
5203.00,0.82
5202.00,0.83
5201.00,0.83
5200.00,0.83
5199.00,0.83
5198.00,0.83
5197.00,0.84
5196.00,0.84
5195.00,0.84
5194.00,0.84
5193.00,0.84
5192.00,0.84
5191.00,0.85
5190.00,0.85
5189.00,0.85
5188.00,0.85
5187.00,0.85
5186.00,0.85
5185.00,0.85
5184.00,0.85
5183.00,0.85
5182.00,0.86
5181.00,0.86
5180.00,0.86
5179.00,0.86
5178.00,0.86
5177.00,0.86
5176.00,0.86
5175.00,0.86
5174.00,0.86
5173.00,0.86
5172.00,0.86
5171.00,0.86
5170.00,0.86
5169.00,0.86
5168.00,0.86
5167.00,0.86
5166.00,0.86
5165.00,0.86
5164.00,0.86
5163.00,0.87
5162.00,0.87
5161.00,0.87
5160.00,0.87
5159.00,0.87
5158.00,0.87
5157.00,0.87
5156.00,0.87
5155.00,0.88
5154.00,0.88
5153.00,0.88
5152.00,0.88
5151.00,0.88
5150.00,0.88
5149.00,0.88
5148.00,0.88
5147.00,0.89
5146.00,0.89
5145.00,0.89
5144.00,0.89
5143.00,0.89
5142.00,0.89
5141.00,0.89
5140.00,0.89
5139.00,0.89
5138.00,0.89
5137.00,0.89
5136.00,0.90
5135.00,0.90
5134.00,0.90
5133.00,0.90
5132.00,0.90
5131.00,0.90
5130.00,0.90
5129.00,0.90
5128.00,0.90
5127.00,0.90
5126.00,0.90
5125.00,0.90
5124.00,0.90
5123.00,0.90
5122.00,0.90
5121.00,0.89
5120.00,0.89
5119.00,0.89
5118.00,0.89
5117.00,0.89
5116.00,0.89
5115.00,0.89
5114.00,0.89
5113.00,0.89
5112.00,0.89
5111.00,0.89
5110.00,0.89
5109.00,0.89
5108.00,0.89
5107.00,0.89
5106.00,0.89
5105.00,0.89
5104.00,0.89
5103.00,0.89
5102.00,0.89
5101.00,0.89
5100.00,0.89
5099.00,0.89
5098.00,0.89
5097.00,0.89
5096.00,0.89
5095.00,0.89
5094.00,0.89
5093.00,0.89
5092.00,0.89
5091.00,0.89
5090.00,0.90
5089.00,0.90
5088.00,0.90
5087.00,0.90
5086.00,0.90
5085.00,0.90
5084.00,0.90
5083.00,0.90
5082.00,0.90
5081.00,0.90
5080.00,0.90
5079.00,0.90
5078.00,0.90
5077.00,0.90
5076.00,0.90
5075.00,0.90
5074.00,0.90
5073.00,0.90
5072.00,0.90
5071.00,0.90
5070.00,0.90
5069.00,0.90
5068.00,0.90
5067.00,0.90
5066.00,0.90
5065.00,0.90
5064.00,0.90
5063.00,0.90
5062.00,0.90
5061.00,0.90
5060.00,0.90
5059.00,0.90
5058.00,0.90
5057.00,0.90
5056.00,0.91
5055.00,0.91
5054.00,0.91
5053.00,0.91
5052.00,0.91
5051.00,0.91
5050.00,0.91
5049.00,0.91
5048.00,0.91
5047.00,0.91
5046.00,0.91
5045.00,0.91
5044.00,0.91
5043.00,0.91
5042.00,0.91
5041.00,0.91
5040.00,0.91
5039.00,0.91
5038.00,0.91
5037.00,0.91
5036.00,0.91
5035.00,0.92
5034.00,0.92
5033.00,0.92
5032.00,0.92
5031.00,0.92
5030.00,0.92
5029.00,0.92
5028.00,0.92
5027.00,0.92
5026.00,0.92
5025.00,0.92
5024.00,0.92
5023.00,0.93
5022.00,0.93
5021.00,0.93
5020.00,0.93
5019.00,0.93
5018.00,0.93
5017.00,0.93
5016.00,0.94
5015.00,0.94
5014.00,0.94
5013.00,0.94
5012.00,0.94
5011.00,0.94
5010.00,0.94
5009.00,0.95
5008.00,0.95
5007.00,0.95
5006.00,0.95
5005.00,0.95
5004.00,0.95
5003.00,0.95
5002.00,0.95
5001.00,0.96
5000.00,0.96
4999.00,0.96
4998.00,0.96
4997.00,0.96
4996.00,0.96
4995.00,0.96
4994.00,0.97
4993.00,0.97
4992.00,0.97
4991.00,0.97
4990.00,0.97
4989.00,0.97
4988.00,0.97
4987.00,0.97
4986.00,0.97
4985.00,0.97
4984.00,0.97
4983.00,0.97
4982.00,0.97
4981.00,0.97
4980.00,0.97
4979.00,0.97
4978.00,0.97
4977.00,0.97
4976.00,0.97
4975.00,0.97
4974.00,0.97
4973.00,0.97
4972.00,0.97
4971.00,0.97
4970.00,0.97
4969.00,0.97
4968.00,0.97
4967.00,0.97
4966.00,0.97
4965.00,0.97
4964.00,0.97
4963.00,0.97
4962.00,0.97
4961.00,0.97
4960.00,0.97
4959.00,0.97
4958.00,0.97
4957.00,0.97
4956.00,0.97
4955.00,0.97
4954.00,0.97
4953.00,0.97
4952.00,0.97
4951.00,0.97
4950.00,0.97
4949.00,0.98
4948.00,0.98
4947.00,0.98
4946.00,0.98
4945.00,0.98
4944.00,0.98
4943.00,0.98
4942.00,0.98
4941.00,0.98
4940.00,0.99
4939.00,0.99
4938.00,0.99
4937.00,0.99
4936.00,0.99
4935.00,0.99
4934.00,0.99
4933.00,1.00
4932.00,1.00
4931.00,1.00
4930.00,1.00
4929.00,1.00
4928.00,1.00
4927.00,1.00
4926.00,1.01
4925.00,1.01
4924.00,1.01
4923.00,1.01
4922.00,1.01
4921.00,1.01
4920.00,1.01
4919.00,1.01
4918.00,1.01
4917.00,1.02
4916.00,1.02
4915.00,1.02
4914.00,1.02
4913.00,1.02
4912.00,1.02
4911.00,1.02
4910.00,1.03
4909.00,1.03
4908.00,1.03
4907.00,1.03
4906.00,1.03
4905.00,1.03
4904.00,1.03
4903.00,1.03
4902.00,1.03
4901.00,1.03
4900.00,1.03
4899.00,1.03
4898.00,1.03
4897.00,1.03
4896.00,1.03
4895.00,1.04
4894.00,1.04
4893.00,1.04
4892.00,1.04
4891.00,1.04
4890.00,1.04
4889.00,1.04
4888.00,1.04
4887.00,1.04
4886.00,1.04
4885.00,1.04
4884.00,1.04
4883.00,1.04
4882.00,1.04
4881.00,1.04
4880.00,1.04
4879.00,1.04
4878.00,1.04
4877.00,1.04
4876.00,1.04
4875.00,1.04
4874.00,1.04
4873.00,1.04
4872.00,1.04
4871.00,1.04
4870.00,1.04
4869.00,1.04
4868.00,1.04
4867.00,1.04
4866.00,1.04
4865.00,1.04
4864.00,1.04
4863.00,1.04
4862.00,1.04
4861.00,1.04
4860.00,1.04
4859.00,1.04
4858.00,1.04
4857.00,1.04
4856.00,1.03
4855.00,1.03
4854.00,1.03
4853.00,1.03
4852.00,1.03
4851.00,1.03
4850.00,1.03
4849.00,1.03
4848.00,1.03
4847.00,1.02
4846.00,1.02
4845.00,1.02
4844.00,1.02
4843.00,1.02
4842.00,1.02
4841.00,1.02
4840.00,1.02
4839.00,1.03
4838.00,1.03
4837.00,1.03
4836.00,1.03
4835.00,1.03
4834.00,1.03
4833.00,1.03
4832.00,1.03
4831.00,1.03
4830.00,1.04
4829.00,1.04
4828.00,1.04
4827.00,1.04
4826.00,1.04
4825.00,1.05
4824.00,1.05
4823.00,1.05
4822.00,1.05
4821.00,1.05
4820.00,1.05
4819.00,1.06
4818.00,1.06
4817.00,1.06
4816.00,1.06
4815.00,1.06
4814.00,1.07
4813.00,1.07
4812.00,1.07
4811.00,1.07
4810.00,1.08
4809.00,1.08
4808.00,1.08
4807.00,1.08
4806.00,1.08
4805.00,1.09
4804.00,1.09
4803.00,1.09
4802.00,1.09
4801.00,1.10
4800.00,1.10
4799.00,1.10
4798.00,1.11
4797.00,1.11
4796.00,1.11
4795.00,1.11
4794.00,1.12
4793.00,1.12
4792.00,1.12
4791.00,1.12
4790.00,1.12
4789.00,1.13
4788.00,1.13
4787.00,1.13
4786.00,1.13
4785.00,1.13
4784.00,1.13
4783.00,1.13
4782.00,1.13
4781.00,1.13
4780.00,1.13
4779.00,1.13
4778.00,1.12
4777.00,1.12
4776.00,1.12
4775.00,1.12
4774.00,1.12
4773.00,1.12
4772.00,1.11
4771.00,1.11
4770.00,1.11
4769.00,1.11
4768.00,1.11
4767.00,1.10
4766.00,1.10
4765.00,1.10
4764.00,1.10
4763.00,1.10
4762.00,1.10
4761.00,1.10
4760.00,1.10
4759.00,1.10
4758.00,1.10
4757.00,1.10
4756.00,1.10
4755.00,1.10
4754.00,1.11
4753.00,1.11
4752.00,1.11
4751.00,1.11
4750.00,1.12
4749.00,1.12
4748.00,1.12
4747.00,1.13
4746.00,1.13
4745.00,1.13
4744.00,1.14
4743.00,1.14
4742.00,1.14
4741.00,1.15
4740.00,1.15
4739.00,1.15
4738.00,1.16
4737.00,1.16
4736.00,1.16
4735.00,1.17
4734.00,1.17
4733.00,1.17
4732.00,1.17
4731.00,1.17
4730.00,1.18
4729.00,1.18
4728.00,1.18
4727.00,1.18
4726.00,1.18
4725.00,1.18
4724.00,1.19
4723.00,1.19
4722.00,1.19
4721.00,1.19
4720.00,1.19
4719.00,1.20
4718.00,1.20
4717.00,1.20
4716.00,1.20
4715.00,1.20
4714.00,1.20
4713.00,1.20
4712.00,1.20
4711.00,1.20
4710.00,1.20
4709.00,1.20
4708.00,1.21
4707.00,1.21
4706.00,1.21
4705.00,1.21
4704.00,1.21
4703.00,1.21
4702.00,1.21
4701.00,1.22
4700.00,1.22
4699.00,1.22
4698.00,1.22
4697.00,1.22
4696.00,1.22
4695.00,1.22
4694.00,1.22
4693.00,1.22
4692.00,1.22
4691.00,1.22
4690.00,1.22
4689.00,1.23
4688.00,1.23
4687.00,1.23
4686.00,1.23
4685.00,1.23
4684.00,1.24
4683.00,1.24
4682.00,1.24
4681.00,1.24
4680.00,1.24
4679.00,1.24
4678.00,1.24
4677.00,1.25
4676.00,1.25
4675.00,1.25
4674.00,1.25
4673.00,1.25
4672.00,1.25
4671.00,1.25
4670.00,1.25
4669.00,1.25
4668.00,1.25
4667.00,1.25
4666.00,1.26
4665.00,1.26
4664.00,1.26
4663.00,1.26
4662.00,1.26
4661.00,1.26
4660.00,1.26
4659.00,1.26
4658.00,1.26
4657.00,1.26
4656.00,1.26
4655.00,1.26
4654.00,1.26
4653.00,1.26
4652.00,1.26
4651.00,1.26
4650.00,1.26
4649.00,1.26
4648.00,1.26
4647.00,1.26
4646.00,1.26
4645.00,1.26
4644.00,1.26
4643.00,1.26
4642.00,1.26
4641.00,1.26
4640.00,1.26
4639.00,1.26
4638.00,1.26
4637.00,1.26
4636.00,1.26
4635.00,1.26
4634.00,1.26
4633.00,1.26
4632.00,1.26
4631.00,1.26
4630.00,1.26
4629.00,1.26
4628.00,1.26
4627.00,1.26
4626.00,1.26
4625.00,1.26
4624.00,1.26
4623.00,1.26
4622.00,1.26
4621.00,1.26
4620.00,1.26
4619.00,1.26
4618.00,1.26
4617.00,1.26
4616.00,1.26
4615.00,1.26
4614.00,1.26
4613.00,1.26
4612.00,1.26
4611.00,1.26
4610.00,1.27
4609.00,1.27
4608.00,1.27
4607.00,1.27
4606.00,1.27
4605.00,1.27
4604.00,1.28
4603.00,1.28
4602.00,1.28
4601.00,1.28
4600.00,1.28
4599.00,1.28
4598.00,1.28
4597.00,1.28
4596.00,1.29
4595.00,1.29
4594.00,1.29
4593.00,1.29
4592.00,1.29
4591.00,1.30
4590.00,1.30
4589.00,1.30
4588.00,1.30
4587.00,1.31
4586.00,1.31
4585.00,1.31
4584.00,1.32
4583.00,1.32
4582.00,1.32
4581.00,1.32
4580.00,1.33
4579.00,1.33
4578.00,1.33
4577.00,1.33
4576.00,1.33
4575.00,1.34
4574.00,1.34
4573.00,1.34
4572.00,1.34
4571.00,1.34
4570.00,1.35
4569.00,1.35
4568.00,1.35
4567.00,1.35
4566.00,1.35
4565.00,1.36
4564.00,1.36
4563.00,1.36
4562.00,1.36
4561.00,1.36
4560.00,1.36
4559.00,1.36
4558.00,1.36
4557.00,1.36
4556.00,1.36
4555.00,1.36
4554.00,1.36
4553.00,1.37
4552.00,1.37
4551.00,1.37
4550.00,1.37
4549.00,1.37
4548.00,1.37
4547.00,1.38
4546.00,1.38
4545.00,1.38
4544.00,1.38
4543.00,1.38
4542.00,1.38
4541.00,1.38
4540.00,1.39
4539.00,1.39
4538.00,1.39
4537.00,1.39
4536.00,1.39
4535.00,1.39
4534.00,1.39
4533.00,1.39
4532.00,1.39
4531.00,1.40
4530.00,1.40
4529.00,1.40
4528.00,1.40
4527.00,1.40
4526.00,1.40
4525.00,1.40
4524.00,1.40
4523.00,1.39
4522.00,1.39
4521.00,1.39
4520.00,1.39
4519.00,1.39
4518.00,1.39
4517.00,1.39
4516.00,1.39
4515.00,1.39
4514.00,1.39
4513.00,1.39
4512.00,1.39
4511.00,1.39
4510.00,1.39
4509.00,1.39
4508.00,1.39
4507.00,1.39
4506.00,1.39
4505.00,1.39
4504.00,1.39
4503.00,1.39
4502.00,1.39
4501.00,1.39
4500.00,1.39
4499.00,1.39
4498.00,1.39
4497.00,1.39
4496.00,1.39
4495.00,1.39
4494.00,1.39
4493.00,1.39
4492.00,1.39
4491.00,1.39
4490.00,1.39
4489.00,1.39
4488.00,1.39
4487.00,1.38
4486.00,1.38
4485.00,1.38
4484.00,1.38
4483.00,1.38
4482.00,1.38
4481.00,1.37
4480.00,1.37
4479.00,1.37
4478.00,1.37
4477.00,1.36
4476.00,1.36
4475.00,1.36
4474.00,1.35
4473.00,1.35
4472.00,1.35
4471.00,1.34
4470.00,1.34
4469.00,1.34
4468.00,1.33
4467.00,1.33
4466.00,1.33
4465.00,1.32
4464.00,1.32
4463.00,1.32
4462.00,1.32
4461.00,1.31
4460.00,1.31
4459.00,1.31
4458.00,1.30
4457.00,1.30
4456.00,1.30
4455.00,1.30
4454.00,1.29
4453.00,1.29
4452.00,1.28
4451.00,1.28
4450.00,1.27
4449.00,1.27
4448.00,1.26
4447.00,1.26
4446.00,1.25
4445.00,1.25
4444.00,1.24
4443.00,1.24
4442.00,1.23
4441.00,1.23
4440.00,1.22
4439.00,1.21
4438.00,1.21
4437.00,1.20
4436.00,1.19
4435.00,1.19
4434.00,1.18
4433.00,1.18
4432.00,1.17
4431.00,1.16
4430.00,1.16
4429.00,1.15
4428.00,1.15
4427.00,1.15
4426.00,1.14
4425.00,1.14
4424.00,1.13
4423.00,1.13
4422.00,1.13
4421.00,1.13
4420.00,1.13
4419.00,1.12
4418.00,1.13
4417.00,1.13
4416.00,1.13
4415.00,1.13
4414.00,1.13
4413.00,1.13
4412.00,1.14
4411.00,1.14
4410.00,1.14
4409.00,1.15
4408.00,1.15
4407.00,1.15
4406.00,1.16
4405.00,1.16
4404.00,1.17
4403.00,1.17
4402.00,1.18
4401.00,1.18
4400.00,1.19
4399.00,1.20
4398.00,1.20
4397.00,1.21
4396.00,1.21
4395.00,1.22
4394.00,1.22
4393.00,1.23
4392.00,1.23
4391.00,1.24
4390.00,1.24
4389.00,1.24
4388.00,1.25
4387.00,1.25
4386.00,1.25
4385.00,1.26
4384.00,1.26
4383.00,1.26
4382.00,1.26
4381.00,1.26
4380.00,1.26
4379.00,1.26
4378.00,1.26
4377.00,1.26
4376.00,1.26
4375.00,1.26
4374.00,1.26
4373.00,1.26
4372.00,1.26
4371.00,1.26
4370.00,1.25
4369.00,1.25
4368.00,1.25
4367.00,1.25
4366.00,1.24
4365.00,1.24
4364.00,1.24
4363.00,1.23
4362.00,1.23
4361.00,1.22
4360.00,1.22
4359.00,1.21
4358.00,1.21
4357.00,1.21
4356.00,1.20
4355.00,1.20
4354.00,1.20
4353.00,1.19
4352.00,1.19
4351.00,1.19
4350.00,1.19
4349.00,1.19
4348.00,1.19
4347.00,1.18
4346.00,1.18
4345.00,1.18
4344.00,1.18
4343.00,1.18
4342.00,1.18
4341.00,1.18
4340.00,1.18
4339.00,1.18
4338.00,1.18
4337.00,1.18
4336.00,1.19
4335.00,1.19
4334.00,1.19
4333.00,1.19
4332.00,1.20
4331.00,1.20
4330.00,1.20
4329.00,1.20
4328.00,1.20
4327.00,1.20
4326.00,1.21
4325.00,1.21
4324.00,1.21
4323.00,1.21
4322.00,1.21
4321.00,1.21
4320.00,1.21
4319.00,1.21
4318.00,1.21
4317.00,1.22
4316.00,1.22
4315.00,1.22
4314.00,1.22
4313.00,1.22
4312.00,1.22
4311.00,1.23
4310.00,1.23
4309.00,1.23
4308.00,1.23
4307.00,1.23
4306.00,1.24
4305.00,1.24
4304.00,1.24
4303.00,1.25
4302.00,1.25
4301.00,1.25
4300.00,1.26
4299.00,1.26
4298.00,1.27
4297.00,1.27
4296.00,1.28
4295.00,1.28
4294.00,1.29
4293.00,1.29
4292.00,1.30
4291.00,1.30
4290.00,1.31
4289.00,1.31
4288.00,1.31
4287.00,1.31
4286.00,1.32
4285.00,1.32
4284.00,1.32
4283.00,1.32
4282.00,1.32
4281.00,1.32
4280.00,1.32
4279.00,1.32
4278.00,1.32
4277.00,1.32
4276.00,1.32
4275.00,1.32
4274.00,1.32
4273.00,1.32
4272.00,1.32
4271.00,1.31
4270.00,1.31
4269.00,1.31
4268.00,1.30
4267.00,1.30
4266.00,1.30
4265.00,1.29
4264.00,1.29
4263.00,1.29
4262.00,1.29
4261.00,1.29
4260.00,1.29
4259.00,1.29
4258.00,1.29
4257.00,1.29
4256.00,1.29
4255.00,1.29
4254.00,1.29
4253.00,1.29
4252.00,1.29
4251.00,1.28
4250.00,1.28
4249.00,1.28
4248.00,1.28
4247.00,1.28
4246.00,1.29
4245.00,1.29
4244.00,1.29
4243.00,1.29
4242.00,1.29
4241.00,1.29
4240.00,1.29
4239.00,1.29
4238.00,1.30
4237.00,1.30
4236.00,1.30
4235.00,1.30
4234.00,1.30
4233.00,1.29
4232.00,1.29
4231.00,1.29
4230.00,1.29
4229.00,1.29
4228.00,1.29
4227.00,1.29
4226.00,1.29
4225.00,1.29
4224.00,1.28
4223.00,1.28
4222.00,1.28
4221.00,1.28
4220.00,1.28
4219.00,1.28
4218.00,1.27
4217.00,1.27
4216.00,1.27
4215.00,1.27
4214.00,1.27
4213.00,1.26
4212.00,1.26
4211.00,1.26
4210.00,1.26
4209.00,1.26
4208.00,1.26
4207.00,1.26
4206.00,1.26
4205.00,1.26
4204.00,1.27
4203.00,1.27
4202.00,1.27
4201.00,1.27
4200.00,1.27
4199.00,1.28
4198.00,1.28
4197.00,1.28
4196.00,1.29
4195.00,1.29
4194.00,1.30
4193.00,1.30
4192.00,1.31
4191.00,1.32
4190.00,1.32
4189.00,1.33
4188.00,1.33
4187.00,1.34
4186.00,1.34
4185.00,1.35
4184.00,1.35
4183.00,1.35
4182.00,1.36
4181.00,1.36
4180.00,1.36
4179.00,1.36
4178.00,1.36
4177.00,1.36
4176.00,1.36
4175.00,1.36
4174.00,1.36
4173.00,1.36
4172.00,1.35
4171.00,1.35
4170.00,1.35
4169.00,1.34
4168.00,1.34
4167.00,1.33
4166.00,1.33
4165.00,1.32
4164.00,1.32
4163.00,1.31
4162.00,1.31
4161.00,1.30
4160.00,1.30
4159.00,1.29
4158.00,1.29
4157.00,1.28
4156.00,1.28
4155.00,1.28
4154.00,1.27
4153.00,1.27
4152.00,1.27
4151.00,1.27
4150.00,1.28
4149.00,1.28
4148.00,1.28
4147.00,1.28
4146.00,1.28
4145.00,1.29
4144.00,1.29
4143.00,1.29
4142.00,1.29
4141.00,1.29
4140.00,1.30
4139.00,1.30
4138.00,1.30
4137.00,1.30
4136.00,1.30
4135.00,1.31
4134.00,1.31
4133.00,1.31
4132.00,1.31
4131.00,1.31
4130.00,1.31
4129.00,1.31
4128.00,1.31
4127.00,1.31
4126.00,1.31
4125.00,1.31
4124.00,1.31
4123.00,1.30
4122.00,1.30
4121.00,1.30
4120.00,1.29
4119.00,1.29
4118.00,1.28
4117.00,1.28
4116.00,1.28
4115.00,1.27
4114.00,1.27
4113.00,1.27
4112.00,1.27
4111.00,1.27
4110.00,1.26
4109.00,1.26
4108.00,1.26
4107.00,1.26
4106.00,1.26
4105.00,1.26
4104.00,1.26
4103.00,1.26
4102.00,1.26
4101.00,1.26
4100.00,1.26
4099.00,1.26
4098.00,1.26
4097.00,1.26
4096.00,1.26
4095.00,1.26
4094.00,1.27
4093.00,1.27
4092.00,1.27
4091.00,1.27
4090.00,1.27
4089.00,1.27
4088.00,1.28
4087.00,1.28
4086.00,1.28
4085.00,1.28
4084.00,1.28
4083.00,1.28
4082.00,1.28
4081.00,1.28
4080.00,1.28
4079.00,1.28
4078.00,1.28
4077.00,1.28
4076.00,1.28
4075.00,1.28
4074.00,1.28
4073.00,1.28
4072.00,1.28
4071.00,1.28
4070.00,1.28
4069.00,1.29
4068.00,1.29
4067.00,1.29
4066.00,1.29
4065.00,1.29
4064.00,1.29
4063.00,1.29
4062.00,1.29
4061.00,1.29
4060.00,1.29
4059.00,1.29
4058.00,1.29
4057.00,1.29
4056.00,1.30
4055.00,1.30
4054.00,1.30
4053.00,1.31
4052.00,1.31
4051.00,1.31
4050.00,1.31
4049.00,1.31
4048.00,1.31
4047.00,1.32
4046.00,1.32
4045.00,1.32
4044.00,1.32
4043.00,1.32
4042.00,1.32
4041.00,1.32
4040.00,1.32
4039.00,1.33
4038.00,1.33
4037.00,1.33
4036.00,1.33
4035.00,1.33
4034.00,1.34
4033.00,1.34
4032.00,1.34
4031.00,1.34
4030.00,1.34
4029.00,1.34
4028.00,1.34
4027.00,1.34
4026.00,1.35
4025.00,1.35
4024.00,1.35
4023.00,1.35
4022.00,1.36
4021.00,1.37
4020.00,1.37
4019.00,1.38
4018.00,1.39
4017.00,1.39
4016.00,1.40
4015.00,1.41
4014.00,1.43
4013.00,1.44
4012.00,1.45
4011.00,1.47
4010.00,1.49
4009.00,1.50
4008.00,1.52
4007.00,1.54
4006.00,1.56
4005.00,1.58
4004.00,1.61
4003.00,1.63
4002.00,1.65
4001.00,1.67
4000.00,1.70
