创建为新数据集,样品 330 用户 Administrator 日期 星期日, 七月 28 2019
cm-1,%T
10000.00,1.43
9999.00,1.46
9998.00,1.49
9997.00,1.51
9996.00,1.54
9995.00,1.56
9994.00,1.58
9993.00,1.60
9992.00,1.62
9991.00,1.63
9990.00,1.65
9989.00,1.65
9988.00,1.66
9987.00,1.67
9986.00,1.67
9985.00,1.67
9984.00,1.67
9983.00,1.66
9982.00,1.66
9981.00,1.65
9980.00,1.64
9979.00,1.63
9978.00,1.62
9977.00,1.61
9976.00,1.59
9975.00,1.57
9974.00,1.56
9973.00,1.54
9972.00,1.52
9971.00,1.50
9970.00,1.48
9969.00,1.46
9968.00,1.44
9967.00,1.43
9966.00,1.41
9965.00,1.40
9964.00,1.38
9963.00,1.37
9962.00,1.36
9961.00,1.35
9960.00,1.34
9959.00,1.34
9958.00,1.33
9957.00,1.33
9956.00,1.32
9955.00,1.31
9954.00,1.31
9953.00,1.31
9952.00,1.30
9951.00,1.30
9950.00,1.30
9949.00,1.30
9948.00,1.29
9947.00,1.30
9946.00,1.30
9945.00,1.30
9944.00,1.30
9943.00,1.30
9942.00,1.31
9941.00,1.31
9940.00,1.32
9939.00,1.32
9938.00,1.32
9937.00,1.33
9936.00,1.33
9935.00,1.34
9934.00,1.34
9933.00,1.35
9932.00,1.36
9931.00,1.37
9930.00,1.37
9929.00,1.38
9928.00,1.39
9927.00,1.40
9926.00,1.41
9925.00,1.42
9924.00,1.43
9923.00,1.44
9922.00,1.45
9921.00,1.46
9920.00,1.47
9919.00,1.48
9918.00,1.48
9917.00,1.49
9916.00,1.50
9915.00,1.50
9914.00,1.51
9913.00,1.51
9912.00,1.52
9911.00,1.52
9910.00,1.53
9909.00,1.54
9908.00,1.54
9907.00,1.55
9906.00,1.55
9905.00,1.56
9904.00,1.56
9903.00,1.57
9902.00,1.57
9901.00,1.57
9900.00,1.57
9899.00,1.58
9898.00,1.58
9897.00,1.58
9896.00,1.59
9895.00,1.59
9894.00,1.59
9893.00,1.60
9892.00,1.60
9891.00,1.60
9890.00,1.61
9889.00,1.61
9888.00,1.61
9887.00,1.61
9886.00,1.61
9885.00,1.61
9884.00,1.61
9883.00,1.61
9882.00,1.61
9881.00,1.61
9880.00,1.60
9879.00,1.60
9878.00,1.60
9877.00,1.59
9876.00,1.59
9875.00,1.58
9874.00,1.58
9873.00,1.57
9872.00,1.57
9871.00,1.56
9870.00,1.56
9869.00,1.55
9868.00,1.54
9867.00,1.54
9866.00,1.53
9865.00,1.52
9864.00,1.52
9863.00,1.51
9862.00,1.50
9861.00,1.50
9860.00,1.49
9859.00,1.49
9858.00,1.49
9857.00,1.48
9856.00,1.48
9855.00,1.48
9854.00,1.47
9853.00,1.47
9852.00,1.47
9851.00,1.46
9850.00,1.46
9849.00,1.46
9848.00,1.45
9847.00,1.45
9846.00,1.45
9845.00,1.45
9844.00,1.45
9843.00,1.45
9842.00,1.45
9841.00,1.45
9840.00,1.45
9839.00,1.45
9838.00,1.46
9837.00,1.46
9836.00,1.46
9835.00,1.47
9834.00,1.47
9833.00,1.48
9832.00,1.48
9831.00,1.48
9830.00,1.48
9829.00,1.49
9828.00,1.49
9827.00,1.49
9826.00,1.49
9825.00,1.50
9824.00,1.50
9823.00,1.50
9822.00,1.50
9821.00,1.51
9820.00,1.51
9819.00,1.51
9818.00,1.51
9817.00,1.51
9816.00,1.51
9815.00,1.51
9814.00,1.51
9813.00,1.51
9812.00,1.50
9811.00,1.50
9810.00,1.49
9809.00,1.49
9808.00,1.48
9807.00,1.48
9806.00,1.48
9805.00,1.47
9804.00,1.47
9803.00,1.46
9802.00,1.45
9801.00,1.45
9800.00,1.44
9799.00,1.43
9798.00,1.43
9797.00,1.42
9796.00,1.41
9795.00,1.41
9794.00,1.40
9793.00,1.39
9792.00,1.38
9791.00,1.38
9790.00,1.37
9789.00,1.36
9788.00,1.35
9787.00,1.35
9786.00,1.34
9785.00,1.34
9784.00,1.33
9783.00,1.33
9782.00,1.33
9781.00,1.32
9780.00,1.32
9779.00,1.32
9778.00,1.31
9777.00,1.31
9776.00,1.31
9775.00,1.31
9774.00,1.31
9773.00,1.31
9772.00,1.31
9771.00,1.32
9770.00,1.32
9769.00,1.32
9768.00,1.33
9767.00,1.33
9766.00,1.33
9765.00,1.34
9764.00,1.34
9763.00,1.35
9762.00,1.35
9761.00,1.36
9760.00,1.36
9759.00,1.36
9758.00,1.36
9757.00,1.37
9756.00,1.37
9755.00,1.37
9754.00,1.36
9753.00,1.36
9752.00,1.36
9751.00,1.36
9750.00,1.35
9749.00,1.35
9748.00,1.34
9747.00,1.34
9746.00,1.34
9745.00,1.33
9744.00,1.33
9743.00,1.32
9742.00,1.32
9741.00,1.31
9740.00,1.31
9739.00,1.31
9738.00,1.30
9737.00,1.30
9736.00,1.29
9735.00,1.28
9734.00,1.28
9733.00,1.27
9732.00,1.27
9731.00,1.27
9730.00,1.26
9729.00,1.26
9728.00,1.26
9727.00,1.26
9726.00,1.26
9725.00,1.26
9724.00,1.26
9723.00,1.27
9722.00,1.27
9721.00,1.27
9720.00,1.28
9719.00,1.28
9718.00,1.28
9717.00,1.28
9716.00,1.29
9715.00,1.29
9714.00,1.29
9713.00,1.29
9712.00,1.30
9711.00,1.30
9710.00,1.31
9709.00,1.31
9708.00,1.32
9707.00,1.32
9706.00,1.33
9705.00,1.34
9704.00,1.35
9703.00,1.35
9702.00,1.36
9701.00,1.37
9700.00,1.38
9699.00,1.38
9698.00,1.39
9697.00,1.39
9696.00,1.40
9695.00,1.40
9694.00,1.40
9693.00,1.41
9692.00,1.41
9691.00,1.41
9690.00,1.42
9689.00,1.42
9688.00,1.42
9687.00,1.43
9686.00,1.43
9685.00,1.44
9684.00,1.44
9683.00,1.45
9682.00,1.45
9681.00,1.45
9680.00,1.46
9679.00,1.46
9678.00,1.46
9677.00,1.46
9676.00,1.46
9675.00,1.46
9674.00,1.46
9673.00,1.46
9672.00,1.46
9671.00,1.46
9670.00,1.46
9669.00,1.46
9668.00,1.46
9667.00,1.47
9666.00,1.48
9665.00,1.48
9664.00,1.49
9663.00,1.50
9662.00,1.51
9661.00,1.51
9660.00,1.52
9659.00,1.52
9658.00,1.53
9657.00,1.53
9656.00,1.53
9655.00,1.54
9654.00,1.54
9653.00,1.54
9652.00,1.54
9651.00,1.54
9650.00,1.55
9649.00,1.55
9648.00,1.55
9647.00,1.56
9646.00,1.56
9645.00,1.56
9644.00,1.56
9643.00,1.56
9642.00,1.56
9641.00,1.56
9640.00,1.55
9639.00,1.54
9638.00,1.53
9637.00,1.52
9636.00,1.51
9635.00,1.50
9634.00,1.49
9633.00,1.48
9632.00,1.46
9631.00,1.45
9630.00,1.44
9629.00,1.43
9628.00,1.42
9627.00,1.41
9626.00,1.41
9625.00,1.40
9624.00,1.39
9623.00,1.38
9622.00,1.37
9621.00,1.36
9620.00,1.35
9619.00,1.34
9618.00,1.33
9617.00,1.33
9616.00,1.32
9615.00,1.31
9614.00,1.31
9613.00,1.31
9612.00,1.31
9611.00,1.31
9610.00,1.31
9609.00,1.31
9608.00,1.32
9607.00,1.32
9606.00,1.33
9605.00,1.34
9604.00,1.34
9603.00,1.35
9602.00,1.36
9601.00,1.37
9600.00,1.38
9599.00,1.39
9598.00,1.40
9597.00,1.40
9596.00,1.41
9595.00,1.42
9594.00,1.43
9593.00,1.44
9592.00,1.45
9591.00,1.46
9590.00,1.47
9589.00,1.48
9588.00,1.49
9587.00,1.50
9586.00,1.51
9585.00,1.52
9584.00,1.53
9583.00,1.54
9582.00,1.54
9581.00,1.55
9580.00,1.56
9579.00,1.56
9578.00,1.56
9577.00,1.56
9576.00,1.56
9575.00,1.56
9574.00,1.56
9573.00,1.56
9572.00,1.56
9571.00,1.55
9570.00,1.55
9569.00,1.54
9568.00,1.54
9567.00,1.53
9566.00,1.53
9565.00,1.52
9564.00,1.51
9563.00,1.51
9562.00,1.50
9561.00,1.49
9560.00,1.49
9559.00,1.48
9558.00,1.47
9557.00,1.47
9556.00,1.46
9555.00,1.45
9554.00,1.45
9553.00,1.44
9552.00,1.44
9551.00,1.43
9550.00,1.43
9549.00,1.42
9548.00,1.42
9547.00,1.42
9546.00,1.42
9545.00,1.42
9544.00,1.42
9543.00,1.41
9542.00,1.41
9541.00,1.41
9540.00,1.41
9539.00,1.41
9538.00,1.41
9537.00,1.41
9536.00,1.41
9535.00,1.40
9534.00,1.40
9533.00,1.39
9532.00,1.39
9531.00,1.38
9530.00,1.37
9529.00,1.37
9528.00,1.36
9527.00,1.36
9526.00,1.35
9525.00,1.34
9524.00,1.34
9523.00,1.33
9522.00,1.33
9521.00,1.32
9520.00,1.32
9519.00,1.31
9518.00,1.31
9517.00,1.30
9516.00,1.30
9515.00,1.30
9514.00,1.29
9513.00,1.29
9512.00,1.29
9511.00,1.28
9510.00,1.28
9509.00,1.28
9508.00,1.28
9507.00,1.28
9506.00,1.27
9505.00,1.27
9504.00,1.27
9503.00,1.27
9502.00,1.27
9501.00,1.27
9500.00,1.27
9499.00,1.27
9498.00,1.27
9497.00,1.27
9496.00,1.27
9495.00,1.27
9494.00,1.27
9493.00,1.28
9492.00,1.28
9491.00,1.28
9490.00,1.28
9489.00,1.28
9488.00,1.29
9487.00,1.29
9486.00,1.29
9485.00,1.30
9484.00,1.30
9483.00,1.31
9482.00,1.31
9481.00,1.32
9480.00,1.32
9479.00,1.33
9478.00,1.34
9477.00,1.34
9476.00,1.35
9475.00,1.36
9474.00,1.36
9473.00,1.37
9472.00,1.37
9471.00,1.38
9470.00,1.38
9469.00,1.38
9468.00,1.38
9467.00,1.39
9466.00,1.39
9465.00,1.39
9464.00,1.39
9463.00,1.38
9462.00,1.38
9461.00,1.38
9460.00,1.38
9459.00,1.38
9458.00,1.37
9457.00,1.37
9456.00,1.37
9455.00,1.37
9454.00,1.36
9453.00,1.36
9452.00,1.36
9451.00,1.36
9450.00,1.36
9449.00,1.36
9448.00,1.36
9447.00,1.36
9446.00,1.36
9445.00,1.36
9444.00,1.37
9443.00,1.37
9442.00,1.37
9441.00,1.38
9440.00,1.38
9439.00,1.39
9438.00,1.39
9437.00,1.40
9436.00,1.40
9435.00,1.41
9434.00,1.42
9433.00,1.42
9432.00,1.43
9431.00,1.44
9430.00,1.44
9429.00,1.45
9428.00,1.45
9427.00,1.45
9426.00,1.46
9425.00,1.46
9424.00,1.46
9423.00,1.45
9422.00,1.45
9421.00,1.45
9420.00,1.45
9419.00,1.44
9418.00,1.44
9417.00,1.43
9416.00,1.43
9415.00,1.42
9414.00,1.42
9413.00,1.41
9412.00,1.41
9411.00,1.40
9410.00,1.40
9409.00,1.39
9408.00,1.39
9407.00,1.39
9406.00,1.38
9405.00,1.38
9404.00,1.38
9403.00,1.38
9402.00,1.37
9401.00,1.37
9400.00,1.37
9399.00,1.38
9398.00,1.38
9397.00,1.38
9396.00,1.38
9395.00,1.38
9394.00,1.38
9393.00,1.39
9392.00,1.39
9391.00,1.39
9390.00,1.39
9389.00,1.39
9388.00,1.39
9387.00,1.39
9386.00,1.39
9385.00,1.39
9384.00,1.39
9383.00,1.39
9382.00,1.38
9381.00,1.38
9380.00,1.37
9379.00,1.37
9378.00,1.36
9377.00,1.36
9376.00,1.35
9375.00,1.35
9374.00,1.34
9373.00,1.33
9372.00,1.33
9371.00,1.33
9370.00,1.32
9369.00,1.32
9368.00,1.32
9367.00,1.32
9366.00,1.32
9365.00,1.32
9364.00,1.32
9363.00,1.32
9362.00,1.33
9361.00,1.33
9360.00,1.33
9359.00,1.34
9358.00,1.34
9357.00,1.35
9356.00,1.36
9355.00,1.36
9354.00,1.37
9353.00,1.38
9352.00,1.39
9351.00,1.40
9350.00,1.40
9349.00,1.41
9348.00,1.42
9347.00,1.43
9346.00,1.43
9345.00,1.44
9344.00,1.44
9343.00,1.45
9342.00,1.45
9341.00,1.46
9340.00,1.46
9339.00,1.47
9338.00,1.47
9337.00,1.47
9336.00,1.48
9335.00,1.48
9334.00,1.48
9333.00,1.48
9332.00,1.48
9331.00,1.48
9330.00,1.49
9329.00,1.49
9328.00,1.48
9327.00,1.48
9326.00,1.48
9325.00,1.48
9324.00,1.48
9323.00,1.48
9322.00,1.47
9321.00,1.47
9320.00,1.46
9319.00,1.46
9318.00,1.45
9317.00,1.45
9316.00,1.44
9315.00,1.44
9314.00,1.43
9313.00,1.42
9312.00,1.41
9311.00,1.41
9310.00,1.40
9309.00,1.39
9308.00,1.38
9307.00,1.37
9306.00,1.36
9305.00,1.35
9304.00,1.34
9303.00,1.33
9302.00,1.32
9301.00,1.32
9300.00,1.31
9299.00,1.30
9298.00,1.30
9297.00,1.30
9296.00,1.29
9295.00,1.29
9294.00,1.29
9293.00,1.28
9292.00,1.28
9291.00,1.28
9290.00,1.28
9289.00,1.29
9288.00,1.29
9287.00,1.29
9286.00,1.30
9285.00,1.30
9284.00,1.31
9283.00,1.31
9282.00,1.32
9281.00,1.32
9280.00,1.33
9279.00,1.34
9278.00,1.34
9277.00,1.35
9276.00,1.35
9275.00,1.36
9274.00,1.37
9273.00,1.37
9272.00,1.37
9271.00,1.38
9270.00,1.38
9269.00,1.38
9268.00,1.38
9267.00,1.38
9266.00,1.38
9265.00,1.38
9264.00,1.38
9263.00,1.38
9262.00,1.37
9261.00,1.37
9260.00,1.36
9259.00,1.36
9258.00,1.35
9257.00,1.34
9256.00,1.34
9255.00,1.33
9254.00,1.33
9253.00,1.32
9252.00,1.31
9251.00,1.31
9250.00,1.31
9249.00,1.30
9248.00,1.30
9247.00,1.29
9246.00,1.29
9245.00,1.29
9244.00,1.29
9243.00,1.29
9242.00,1.29
9241.00,1.29
9240.00,1.29
9239.00,1.30
9238.00,1.31
9237.00,1.31
9236.00,1.32
9235.00,1.33
9234.00,1.34
9233.00,1.35
9232.00,1.36
9231.00,1.37
9230.00,1.38
9229.00,1.39
9228.00,1.40
9227.00,1.41
9226.00,1.42
9225.00,1.43
9224.00,1.43
9223.00,1.44
9222.00,1.45
9221.00,1.46
9220.00,1.47
9219.00,1.48
9218.00,1.49
9217.00,1.49
9216.00,1.50
9215.00,1.50
9214.00,1.51
9213.00,1.51
9212.00,1.51
9211.00,1.51
9210.00,1.51
9209.00,1.51
9208.00,1.51
9207.00,1.51
9206.00,1.51
9205.00,1.51
9204.00,1.51
9203.00,1.51
9202.00,1.51
9201.00,1.51
9200.00,1.51
9199.00,1.51
9198.00,1.50
9197.00,1.50
9196.00,1.49
9195.00,1.49
9194.00,1.48
9193.00,1.47
9192.00,1.47
9191.00,1.46
9190.00,1.45
9189.00,1.44
9188.00,1.44
9187.00,1.43
9186.00,1.42
9185.00,1.42
9184.00,1.41
9183.00,1.41
9182.00,1.40
9181.00,1.39
9180.00,1.39
9179.00,1.38
9178.00,1.38
9177.00,1.38
9176.00,1.37
9175.00,1.37
9174.00,1.37
9173.00,1.37
9172.00,1.37
9171.00,1.38
9170.00,1.38
9169.00,1.38
9168.00,1.39
9167.00,1.39
9166.00,1.40
9165.00,1.41
9164.00,1.41
9163.00,1.42
9162.00,1.43
9161.00,1.44
9160.00,1.44
9159.00,1.45
9158.00,1.46
9157.00,1.46
9156.00,1.47
9155.00,1.47
9154.00,1.48
9153.00,1.48
9152.00,1.49
9151.00,1.49
9150.00,1.49
9149.00,1.49
9148.00,1.49
9147.00,1.49
9146.00,1.49
9145.00,1.49
9144.00,1.49
9143.00,1.48
9142.00,1.48
9141.00,1.48
9140.00,1.47
9139.00,1.47
9138.00,1.46
9137.00,1.46
9136.00,1.46
9135.00,1.45
9134.00,1.45
9133.00,1.44
9132.00,1.44
9131.00,1.43
9130.00,1.43
9129.00,1.43
9128.00,1.42
9127.00,1.42
9126.00,1.42
9125.00,1.42
9124.00,1.41
9123.00,1.41
9122.00,1.41
9121.00,1.41
9120.00,1.41
9119.00,1.41
9118.00,1.41
9117.00,1.41
9116.00,1.41
9115.00,1.41
9114.00,1.41
9113.00,1.41
9112.00,1.41
9111.00,1.41
9110.00,1.41
9109.00,1.42
9108.00,1.42
9107.00,1.42
9106.00,1.42
9105.00,1.42
9104.00,1.42
9103.00,1.42
9102.00,1.42
9101.00,1.42
9100.00,1.42
9099.00,1.42
9098.00,1.42
9097.00,1.42
9096.00,1.42
9095.00,1.42
9094.00,1.42
9093.00,1.42
9092.00,1.42
9091.00,1.42
9090.00,1.42
9089.00,1.42
9088.00,1.42
9087.00,1.42
9086.00,1.42
9085.00,1.41
9084.00,1.41
9083.00,1.41
9082.00,1.41
9081.00,1.41
9080.00,1.40
9079.00,1.40
9078.00,1.40
9077.00,1.40
9076.00,1.40
9075.00,1.40
9074.00,1.41
9073.00,1.41
9072.00,1.41
9071.00,1.41
9070.00,1.41
9069.00,1.41
9068.00,1.41
9067.00,1.41
9066.00,1.42
9065.00,1.42
9064.00,1.42
9063.00,1.42
9062.00,1.43
9061.00,1.43
9060.00,1.44
9059.00,1.44
9058.00,1.44
9057.00,1.45
9056.00,1.45
9055.00,1.46
9054.00,1.46
9053.00,1.46
9052.00,1.46
9051.00,1.47
9050.00,1.47
9049.00,1.47
9048.00,1.47
9047.00,1.47
9046.00,1.47
9045.00,1.47
9044.00,1.47
9043.00,1.47
9042.00,1.47
9041.00,1.47
9040.00,1.47
9039.00,1.47
9038.00,1.47
9037.00,1.47
9036.00,1.47
9035.00,1.46
9034.00,1.46
9033.00,1.46
9032.00,1.46
9031.00,1.45
9030.00,1.45
9029.00,1.45
9028.00,1.45
9027.00,1.44
9026.00,1.44
9025.00,1.44
9024.00,1.44
9023.00,1.43
9022.00,1.43
9021.00,1.43
9020.00,1.43
9019.00,1.42
9018.00,1.42
9017.00,1.41
9016.00,1.41
9015.00,1.41
9014.00,1.41
9013.00,1.40
9012.00,1.40
9011.00,1.40
9010.00,1.40
9009.00,1.40
9008.00,1.40
9007.00,1.40
9006.00,1.40
9005.00,1.39
9004.00,1.39
9003.00,1.39
9002.00,1.39
9001.00,1.39
9000.00,1.39
8999.00,1.38
8998.00,1.38
8997.00,1.38
8996.00,1.38
8995.00,1.38
8994.00,1.38
8993.00,1.38
8992.00,1.38
8991.00,1.38
8990.00,1.37
8989.00,1.37
8988.00,1.37
8987.00,1.37
8986.00,1.36
8985.00,1.36
8984.00,1.36
8983.00,1.35
8982.00,1.35
8981.00,1.35
8980.00,1.35
8979.00,1.35
8978.00,1.34
8977.00,1.34
8976.00,1.35
8975.00,1.35
8974.00,1.35
8973.00,1.35
8972.00,1.35
8971.00,1.36
8970.00,1.36
8969.00,1.37
8968.00,1.37
8967.00,1.37
8966.00,1.38
8965.00,1.39
8964.00,1.39
8963.00,1.40
8962.00,1.40
8961.00,1.41
8960.00,1.42
8959.00,1.43
8958.00,1.44
8957.00,1.44
8956.00,1.45
8955.00,1.46
8954.00,1.47
8953.00,1.48
8952.00,1.48
8951.00,1.49
8950.00,1.49
8949.00,1.50
8948.00,1.50
8947.00,1.51
8946.00,1.51
8945.00,1.51
8944.00,1.51
8943.00,1.51
8942.00,1.52
8941.00,1.52
8940.00,1.52
8939.00,1.52
8938.00,1.52
8937.00,1.52
8936.00,1.52
8935.00,1.52
8934.00,1.52
8933.00,1.52
8932.00,1.52
8931.00,1.51
8930.00,1.51
8929.00,1.51
8928.00,1.51
8927.00,1.51
8926.00,1.50
8925.00,1.50
8924.00,1.50
8923.00,1.49
8922.00,1.49
8921.00,1.49
8920.00,1.48
8919.00,1.48
8918.00,1.48
8917.00,1.47
8916.00,1.47
8915.00,1.47
8914.00,1.47
8913.00,1.46
8912.00,1.46
8911.00,1.46
8910.00,1.46
8909.00,1.46
8908.00,1.45
8907.00,1.45
8906.00,1.45
8905.00,1.45
8904.00,1.44
8903.00,1.44
8902.00,1.44
8901.00,1.44
8900.00,1.44
8899.00,1.43
8898.00,1.43
8897.00,1.43
8896.00,1.43
8895.00,1.44
8894.00,1.44
8893.00,1.44
8892.00,1.44
8891.00,1.45
8890.00,1.45
8889.00,1.45
8888.00,1.45
8887.00,1.45
8886.00,1.46
8885.00,1.46
8884.00,1.46
8883.00,1.46
8882.00,1.46
8881.00,1.46
8880.00,1.46
8879.00,1.47
8878.00,1.47
8877.00,1.47
8876.00,1.47
8875.00,1.48
8874.00,1.48
8873.00,1.49
8872.00,1.49
8871.00,1.49
8870.00,1.49
8869.00,1.50
8868.00,1.50
8867.00,1.50
8866.00,1.50
8865.00,1.50
8864.00,1.50
8863.00,1.50
8862.00,1.50
8861.00,1.50
8860.00,1.50
8859.00,1.51
8858.00,1.51
8857.00,1.51
8856.00,1.51
8855.00,1.51
8854.00,1.51
8853.00,1.51
8852.00,1.51
8851.00,1.51
8850.00,1.51
8849.00,1.51
8848.00,1.51
8847.00,1.50
8846.00,1.50
8845.00,1.50
8844.00,1.50
8843.00,1.50
8842.00,1.49
8841.00,1.49
8840.00,1.49
8839.00,1.49
8838.00,1.48
8837.00,1.48
8836.00,1.48
8835.00,1.47
8834.00,1.47
8833.00,1.47
8832.00,1.46
8831.00,1.46
8830.00,1.45
8829.00,1.45
8828.00,1.44
8827.00,1.44
8826.00,1.44
8825.00,1.43
8824.00,1.43
8823.00,1.43
8822.00,1.42
8821.00,1.42
8820.00,1.42
8819.00,1.42
8818.00,1.42
8817.00,1.42
8816.00,1.41
8815.00,1.41
8814.00,1.41
8813.00,1.41
8812.00,1.41
8811.00,1.41
8810.00,1.42
8809.00,1.42
8808.00,1.42
8807.00,1.42
8806.00,1.43
8805.00,1.43
8804.00,1.43
8803.00,1.44
8802.00,1.44
8801.00,1.44
8800.00,1.45
8799.00,1.45
8798.00,1.45
8797.00,1.45
8796.00,1.45
8795.00,1.45
8794.00,1.45
8793.00,1.45
8792.00,1.45
8791.00,1.44
8790.00,1.44
8789.00,1.44
8788.00,1.43
8787.00,1.43
8786.00,1.42
8785.00,1.42
8784.00,1.41
8783.00,1.41
8782.00,1.40
8781.00,1.40
8780.00,1.39
8779.00,1.38
8778.00,1.38
8777.00,1.37
8776.00,1.36
8775.00,1.35
8774.00,1.34
8773.00,1.33
8772.00,1.33
8771.00,1.32
8770.00,1.31
8769.00,1.30
8768.00,1.30
8767.00,1.29
8766.00,1.29
8765.00,1.28
8764.00,1.28
8763.00,1.28
8762.00,1.27
8761.00,1.27
8760.00,1.27
8759.00,1.27
8758.00,1.27
8757.00,1.26
8756.00,1.26
8755.00,1.27
8754.00,1.27
8753.00,1.27
8752.00,1.27
8751.00,1.27
8750.00,1.27
8749.00,1.27
8748.00,1.27
8747.00,1.28
8746.00,1.28
8745.00,1.28
8744.00,1.29
8743.00,1.29
8742.00,1.30
8741.00,1.30
8740.00,1.31
8739.00,1.31
8738.00,1.32
8737.00,1.32
8736.00,1.33
8735.00,1.34
8734.00,1.34
8733.00,1.34
8732.00,1.35
8731.00,1.35
8730.00,1.36
8729.00,1.36
8728.00,1.37
8727.00,1.37
8726.00,1.37
8725.00,1.38
8724.00,1.38
8723.00,1.39
8722.00,1.39
8721.00,1.40
8720.00,1.41
8719.00,1.41
8718.00,1.42
8717.00,1.42
8716.00,1.42
8715.00,1.43
8714.00,1.43
8713.00,1.43
8712.00,1.44
8711.00,1.44
8710.00,1.44
8709.00,1.44
8708.00,1.44
8707.00,1.44
8706.00,1.44
8705.00,1.44
8704.00,1.44
8703.00,1.44
8702.00,1.44
8701.00,1.44
8700.00,1.44
8699.00,1.43
8698.00,1.43
8697.00,1.43
8696.00,1.43
8695.00,1.43
8694.00,1.43
8693.00,1.42
8692.00,1.42
8691.00,1.42
8690.00,1.42
8689.00,1.42
8688.00,1.42
8687.00,1.42
8686.00,1.41
8685.00,1.41
8684.00,1.41
8683.00,1.41
8682.00,1.41
8681.00,1.41
8680.00,1.41
8679.00,1.42
8678.00,1.42
8677.00,1.42
8676.00,1.42
8675.00,1.43
8674.00,1.43
8673.00,1.43
8672.00,1.43
8671.00,1.44
8670.00,1.44
8669.00,1.44
8668.00,1.44
8667.00,1.44
8666.00,1.44
8665.00,1.44
8664.00,1.44
8663.00,1.44
8662.00,1.44
8661.00,1.44
8660.00,1.44
8659.00,1.44
8658.00,1.44
8657.00,1.44
8656.00,1.44
8655.00,1.44
8654.00,1.44
8653.00,1.43
8652.00,1.43
8651.00,1.43
8650.00,1.42
8649.00,1.42
8648.00,1.42
8647.00,1.41
8646.00,1.41
8645.00,1.41
8644.00,1.40
8643.00,1.40
8642.00,1.40
8641.00,1.39
8640.00,1.39
8639.00,1.39
8638.00,1.39
8637.00,1.39
8636.00,1.38
8635.00,1.38
8634.00,1.38
8633.00,1.38
8632.00,1.38
8631.00,1.38
8630.00,1.38
8629.00,1.38
8628.00,1.38
8627.00,1.38
8626.00,1.39
8625.00,1.39
8624.00,1.39
8623.00,1.39
8622.00,1.39
8621.00,1.39
8620.00,1.40
8619.00,1.40
8618.00,1.40
8617.00,1.40
8616.00,1.40
8615.00,1.40
8614.00,1.41
8613.00,1.41
8612.00,1.41
8611.00,1.41
8610.00,1.41
8609.00,1.41
8608.00,1.41
8607.00,1.41
8606.00,1.40
8605.00,1.40
8604.00,1.40
8603.00,1.40
8602.00,1.39
8601.00,1.39
8600.00,1.39
8599.00,1.38
8598.00,1.38
8597.00,1.38
8596.00,1.38
8595.00,1.37
8594.00,1.37
8593.00,1.37
8592.00,1.37
8591.00,1.37
8590.00,1.37
8589.00,1.37
8588.00,1.36
8587.00,1.36
8586.00,1.36
8585.00,1.36
8584.00,1.36
8583.00,1.36
8582.00,1.36
8581.00,1.36
8580.00,1.36
8579.00,1.36
8578.00,1.36
8577.00,1.36
8576.00,1.37
8575.00,1.37
8574.00,1.37
8573.00,1.37
8572.00,1.37
8571.00,1.37
8570.00,1.37
8569.00,1.38
8568.00,1.38
8567.00,1.38
8566.00,1.38
8565.00,1.38
8564.00,1.38
8563.00,1.38
8562.00,1.38
8561.00,1.39
8560.00,1.39
8559.00,1.39
8558.00,1.39
8557.00,1.39
8556.00,1.39
8555.00,1.39
8554.00,1.39
8553.00,1.38
8552.00,1.38
8551.00,1.38
8550.00,1.38
8549.00,1.38
8548.00,1.37
8547.00,1.37
8546.00,1.37
8545.00,1.36
8544.00,1.36
8543.00,1.35
8542.00,1.35
8541.00,1.34
8540.00,1.34
8539.00,1.33
8538.00,1.32
8537.00,1.32
8536.00,1.31
8535.00,1.30
8534.00,1.30
8533.00,1.29
8532.00,1.28
8531.00,1.28
8530.00,1.28
8529.00,1.27
8528.00,1.27
8527.00,1.27
8526.00,1.27
8525.00,1.27
8524.00,1.27
8523.00,1.27
8522.00,1.27
8521.00,1.27
8520.00,1.27
8519.00,1.28
8518.00,1.28
8517.00,1.28
8516.00,1.29
8515.00,1.29
8514.00,1.29
8513.00,1.30
8512.00,1.30
8511.00,1.31
8510.00,1.31
8509.00,1.32
8508.00,1.32
8507.00,1.33
8506.00,1.33
8505.00,1.33
8504.00,1.33
8503.00,1.33
8502.00,1.33
8501.00,1.33
8500.00,1.33
8499.00,1.33
8498.00,1.33
8497.00,1.33
8496.00,1.32
8495.00,1.32
8494.00,1.32
8493.00,1.31
8492.00,1.31
8491.00,1.31
8490.00,1.30
8489.00,1.30
8488.00,1.30
8487.00,1.30
8486.00,1.30
8485.00,1.30
8484.00,1.30
8483.00,1.30
8482.00,1.30
8481.00,1.31
8480.00,1.31
8479.00,1.31
8478.00,1.32
8477.00,1.32
8476.00,1.33
8475.00,1.33
8474.00,1.34
8473.00,1.35
8472.00,1.36
8471.00,1.36
8470.00,1.37
8469.00,1.38
8468.00,1.39
8467.00,1.40
8466.00,1.41
8465.00,1.41
8464.00,1.42
8463.00,1.43
8462.00,1.43
8461.00,1.43
8460.00,1.44
8459.00,1.44
8458.00,1.44
8457.00,1.44
8456.00,1.44
8455.00,1.44
8454.00,1.44
8453.00,1.44
8452.00,1.44
8451.00,1.44
8450.00,1.44
8449.00,1.43
8448.00,1.43
8447.00,1.43
8446.00,1.42
8445.00,1.42
8444.00,1.41
8443.00,1.41
8442.00,1.40
8441.00,1.40
8440.00,1.39
8439.00,1.39
8438.00,1.39
8437.00,1.38
8436.00,1.38
8435.00,1.38
8434.00,1.38
8433.00,1.37
8432.00,1.37
8431.00,1.37
8430.00,1.37
8429.00,1.37
8428.00,1.37
8427.00,1.37
8426.00,1.37
8425.00,1.37
8424.00,1.37
8423.00,1.37
8422.00,1.37
8421.00,1.37
8420.00,1.37
8419.00,1.37
8418.00,1.37
8417.00,1.37
8416.00,1.37
8415.00,1.37
8414.00,1.37
8413.00,1.37
8412.00,1.37
8411.00,1.36
8410.00,1.36
8409.00,1.36
8408.00,1.35
8407.00,1.35
8406.00,1.35
8405.00,1.34
8404.00,1.34
8403.00,1.34
8402.00,1.33
8401.00,1.33
8400.00,1.32
8399.00,1.32
8398.00,1.31
8397.00,1.31
8396.00,1.30
8395.00,1.30
8394.00,1.30
8393.00,1.29
8392.00,1.29
8391.00,1.29
8390.00,1.28
8389.00,1.28
8388.00,1.28
8387.00,1.28
8386.00,1.28
8385.00,1.28
8384.00,1.28
8383.00,1.28
8382.00,1.28
8381.00,1.28
8380.00,1.28
8379.00,1.28
8378.00,1.28
8377.00,1.28
8376.00,1.28
8375.00,1.29
8374.00,1.29
8373.00,1.29
8372.00,1.29
8371.00,1.29
8370.00,1.29
8369.00,1.29
8368.00,1.29
8367.00,1.29
8366.00,1.29
8365.00,1.29
8364.00,1.30
8363.00,1.30
8362.00,1.30
8361.00,1.30
8360.00,1.30
8359.00,1.30
8358.00,1.30
8357.00,1.31
8356.00,1.31
8355.00,1.31
8354.00,1.31
8353.00,1.31
8352.00,1.31
8351.00,1.31
8350.00,1.31
8349.00,1.31
8348.00,1.32
8347.00,1.32
8346.00,1.32
8345.00,1.32
8344.00,1.32
8343.00,1.32
8342.00,1.32
8341.00,1.32
8340.00,1.32
8339.00,1.32
8338.00,1.32
8337.00,1.32
8336.00,1.32
8335.00,1.33
8334.00,1.33
8333.00,1.33
8332.00,1.33
8331.00,1.33
8330.00,1.33
8329.00,1.33
8328.00,1.33
8327.00,1.33
8326.00,1.33
8325.00,1.33
8324.00,1.33
8323.00,1.33
8322.00,1.33
8321.00,1.34
8320.00,1.34
8319.00,1.34
8318.00,1.35
8317.00,1.35
8316.00,1.35
8315.00,1.36
8314.00,1.36
8313.00,1.37
8312.00,1.37
8311.00,1.37
8310.00,1.38
8309.00,1.38
8308.00,1.38
8307.00,1.39
8306.00,1.39
8305.00,1.40
8304.00,1.40
8303.00,1.40
8302.00,1.41
8301.00,1.41
8300.00,1.41
8299.00,1.42
8298.00,1.42
8297.00,1.42
8296.00,1.42
8295.00,1.42
8294.00,1.42
8293.00,1.41
8292.00,1.41
8291.00,1.41
8290.00,1.41
8289.00,1.40
8288.00,1.40
8287.00,1.40
8286.00,1.39
8285.00,1.39
8284.00,1.38
8283.00,1.38
8282.00,1.37
8281.00,1.37
8280.00,1.36
8279.00,1.35
8278.00,1.35
8277.00,1.34
8276.00,1.33
8275.00,1.33
8274.00,1.32
8273.00,1.32
8272.00,1.31
8271.00,1.30
8270.00,1.30
8269.00,1.30
8268.00,1.29
8267.00,1.29
8266.00,1.28
8265.00,1.28
8264.00,1.28
8263.00,1.27
8262.00,1.27
8261.00,1.27
8260.00,1.26
8259.00,1.26
8258.00,1.26
8257.00,1.26
8256.00,1.26
8255.00,1.26
8254.00,1.26
8253.00,1.26
8252.00,1.27
8251.00,1.27
8250.00,1.27
8249.00,1.27
8248.00,1.28
8247.00,1.28
8246.00,1.28
8245.00,1.28
8244.00,1.28
8243.00,1.28
8242.00,1.29
8241.00,1.29
8240.00,1.29
8239.00,1.29
8238.00,1.30
8237.00,1.30
8236.00,1.30
8235.00,1.31
8234.00,1.31
8233.00,1.31
8232.00,1.32
8231.00,1.32
8230.00,1.32
8229.00,1.32
8228.00,1.32
8227.00,1.32
8226.00,1.33
8225.00,1.33
8224.00,1.33
8223.00,1.33
8222.00,1.33
8221.00,1.33
8220.00,1.33
8219.00,1.34
8218.00,1.34
8217.00,1.34
8216.00,1.34
8215.00,1.35
8214.00,1.35
8213.00,1.35
8212.00,1.35
8211.00,1.36
8210.00,1.36
8209.00,1.36
8208.00,1.36
8207.00,1.37
8206.00,1.37
8205.00,1.37
8204.00,1.37
8203.00,1.37
8202.00,1.37
8201.00,1.38
8200.00,1.38
8199.00,1.38
8198.00,1.38
8197.00,1.38
8196.00,1.38
8195.00,1.39
8194.00,1.39
8193.00,1.39
8192.00,1.39
8191.00,1.39
8190.00,1.39
8189.00,1.39
8188.00,1.39
8187.00,1.39
8186.00,1.39
8185.00,1.39
8184.00,1.39
8183.00,1.39
8182.00,1.39
8181.00,1.39
8180.00,1.39
8179.00,1.39
8178.00,1.40
8177.00,1.40
8176.00,1.40
8175.00,1.40
8174.00,1.40
8173.00,1.41
8172.00,1.41
8171.00,1.41
8170.00,1.41
8169.00,1.41
8168.00,1.42
8167.00,1.42
8166.00,1.42
8165.00,1.42
8164.00,1.42
8163.00,1.42
8162.00,1.42
8161.00,1.42
8160.00,1.42
8159.00,1.43
8158.00,1.43
8157.00,1.43
8156.00,1.43
8155.00,1.43
8154.00,1.43
8153.00,1.43
8152.00,1.43
8151.00,1.43
8150.00,1.43
8149.00,1.43
8148.00,1.43
8147.00,1.43
8146.00,1.42
8145.00,1.42
8144.00,1.42
8143.00,1.42
8142.00,1.42
8141.00,1.42
8140.00,1.42
8139.00,1.43
8138.00,1.43
8137.00,1.43
8136.00,1.43
8135.00,1.43
8134.00,1.43
8133.00,1.43
8132.00,1.44
8131.00,1.44
8130.00,1.44
8129.00,1.44
8128.00,1.45
8127.00,1.45
8126.00,1.45
8125.00,1.45
8124.00,1.46
8123.00,1.46
8122.00,1.46
8121.00,1.46
8120.00,1.46
8119.00,1.46
8118.00,1.47
8117.00,1.47
8116.00,1.47
8115.00,1.47
8114.00,1.47
8113.00,1.47
8112.00,1.47
8111.00,1.46
8110.00,1.46
8109.00,1.46
8108.00,1.46
8107.00,1.46
8106.00,1.45
8105.00,1.45
8104.00,1.45
8103.00,1.44
8102.00,1.44
8101.00,1.43
8100.00,1.43
8099.00,1.43
8098.00,1.43
8097.00,1.42
8096.00,1.42
8095.00,1.42
8094.00,1.42
8093.00,1.41
8092.00,1.41
8091.00,1.41
8090.00,1.41
8089.00,1.41
8088.00,1.41
8087.00,1.41
8086.00,1.41
8085.00,1.41
8084.00,1.41
8083.00,1.42
8082.00,1.42
8081.00,1.42
8080.00,1.43
8079.00,1.43
8078.00,1.44
8077.00,1.44
8076.00,1.45
8075.00,1.45
8074.00,1.46
8073.00,1.46
8072.00,1.47
8071.00,1.47
8070.00,1.47
8069.00,1.48
8068.00,1.48
8067.00,1.49
8066.00,1.49
8065.00,1.50
8064.00,1.50
8063.00,1.51
8062.00,1.51
8061.00,1.52
8060.00,1.52
8059.00,1.52
8058.00,1.53
8057.00,1.53
8056.00,1.53
8055.00,1.54
8054.00,1.54
8053.00,1.54
8052.00,1.54
8051.00,1.54
8050.00,1.54
8049.00,1.54
8048.00,1.53
8047.00,1.53
8046.00,1.53
8045.00,1.53
8044.00,1.52
8043.00,1.52
8042.00,1.52
8041.00,1.51
8040.00,1.51
8039.00,1.50
8038.00,1.50
8037.00,1.49
8036.00,1.49
8035.00,1.48
8034.00,1.47
8033.00,1.47
8032.00,1.46
8031.00,1.45
8030.00,1.45
8029.00,1.44
8028.00,1.43
8027.00,1.43
8026.00,1.42
8025.00,1.42
8024.00,1.42
8023.00,1.41
8022.00,1.41
8021.00,1.41
8020.00,1.40
8019.00,1.40
8018.00,1.40
8017.00,1.40
8016.00,1.40
8015.00,1.40
8014.00,1.40
8013.00,1.40
8012.00,1.40
8011.00,1.40
8010.00,1.40
8009.00,1.41
8008.00,1.41
8007.00,1.41
8006.00,1.41
8005.00,1.42
8004.00,1.42
8003.00,1.42
8002.00,1.42
8001.00,1.42
8000.00,1.43
7999.00,1.43
7998.00,1.43
7997.00,1.44
7996.00,1.44
7995.00,1.44
7994.00,1.44
7993.00,1.44
7992.00,1.44
7991.00,1.44
7990.00,1.45
7989.00,1.44
7988.00,1.44
7987.00,1.44
7986.00,1.44
7985.00,1.44
7984.00,1.44
7983.00,1.44
7982.00,1.44
7981.00,1.43
7980.00,1.43
7979.00,1.43
7978.00,1.43
7977.00,1.43
7976.00,1.42
7975.00,1.42
7974.00,1.42
7973.00,1.42
7972.00,1.42
7971.00,1.42
7970.00,1.42
7969.00,1.41
7968.00,1.41
7967.00,1.41
7966.00,1.41
7965.00,1.41
7964.00,1.41
7963.00,1.41
7962.00,1.41
7961.00,1.41
7960.00,1.42
7959.00,1.42
7958.00,1.42
7957.00,1.42
7956.00,1.43
7955.00,1.43
7954.00,1.43
7953.00,1.44
7952.00,1.44
7951.00,1.44
7950.00,1.45
7949.00,1.45
7948.00,1.45
7947.00,1.46
7946.00,1.46
7945.00,1.46
7944.00,1.46
7943.00,1.47
7942.00,1.47
7941.00,1.47
7940.00,1.48
7939.00,1.48
7938.00,1.48
7937.00,1.48
7936.00,1.49
7935.00,1.49
7934.00,1.49
7933.00,1.49
7932.00,1.49
7931.00,1.50
7930.00,1.50
7929.00,1.50
7928.00,1.50
7927.00,1.50
7926.00,1.50
7925.00,1.50
7924.00,1.50
7923.00,1.50
7922.00,1.50
7921.00,1.50
7920.00,1.50
7919.00,1.50
7918.00,1.50
7917.00,1.50
7916.00,1.50
7915.00,1.50
7914.00,1.50
7913.00,1.50
7912.00,1.50
7911.00,1.50
7910.00,1.50
7909.00,1.50
7908.00,1.50
7907.00,1.50
7906.00,1.50
7905.00,1.50
7904.00,1.50
7903.00,1.50
7902.00,1.50
7901.00,1.50
7900.00,1.50
7899.00,1.50
7898.00,1.50
7897.00,1.51
7896.00,1.51
7895.00,1.51
7894.00,1.51
7893.00,1.51
7892.00,1.52
7891.00,1.52
7890.00,1.52
7889.00,1.52
7888.00,1.52
7887.00,1.52
7886.00,1.52
7885.00,1.52
7884.00,1.52
7883.00,1.52
7882.00,1.52
7881.00,1.52
7880.00,1.51
7879.00,1.51
7878.00,1.51
7877.00,1.51
7876.00,1.50
7875.00,1.50
7874.00,1.50
7873.00,1.50
7872.00,1.49
7871.00,1.49
7870.00,1.49
7869.00,1.48
7868.00,1.48
7867.00,1.47
7866.00,1.47
7865.00,1.46
7864.00,1.45
7863.00,1.45
7862.00,1.44
7861.00,1.44
7860.00,1.44
7859.00,1.43
7858.00,1.43
7857.00,1.43
7856.00,1.43
7855.00,1.43
7854.00,1.43
7853.00,1.43
7852.00,1.43
7851.00,1.43
7850.00,1.43
7849.00,1.42
7848.00,1.42
7847.00,1.42
7846.00,1.43
7845.00,1.43
7844.00,1.43
7843.00,1.43
7842.00,1.43
7841.00,1.43
7840.00,1.44
7839.00,1.44
7838.00,1.44
7837.00,1.45
7836.00,1.45
7835.00,1.46
7834.00,1.46
7833.00,1.47
7832.00,1.47
7831.00,1.48
7830.00,1.48
7829.00,1.49
7828.00,1.49
7827.00,1.50
7826.00,1.50
7825.00,1.50
7824.00,1.51
7823.00,1.51
7822.00,1.51
7821.00,1.52
7820.00,1.52
7819.00,1.52
7818.00,1.53
7817.00,1.53
7816.00,1.53
7815.00,1.54
7814.00,1.54
7813.00,1.54
7812.00,1.55
7811.00,1.55
7810.00,1.55
7809.00,1.55
7808.00,1.55
7807.00,1.55
7806.00,1.55
7805.00,1.55
7804.00,1.54
7803.00,1.54
7802.00,1.54
7801.00,1.54
7800.00,1.54
7799.00,1.54
7798.00,1.54
7797.00,1.54
7796.00,1.54
7795.00,1.54
7794.00,1.54
7793.00,1.54
7792.00,1.54
7791.00,1.54
7790.00,1.54
7789.00,1.54
7788.00,1.54
7787.00,1.54
7786.00,1.53
7785.00,1.53
7784.00,1.53
7783.00,1.53
7782.00,1.53
7781.00,1.53
7780.00,1.54
7779.00,1.54
7778.00,1.54
7777.00,1.54
7776.00,1.55
7775.00,1.55
7774.00,1.55
7773.00,1.55
7772.00,1.55
7771.00,1.55
7770.00,1.55
7769.00,1.55
7768.00,1.55
7767.00,1.56
7766.00,1.56
7765.00,1.56
7764.00,1.56
7763.00,1.56
7762.00,1.57
7761.00,1.57
7760.00,1.57
7759.00,1.57
7758.00,1.58
7757.00,1.58
7756.00,1.58
7755.00,1.58
7754.00,1.58
7753.00,1.59
7752.00,1.59
7751.00,1.59
7750.00,1.59
7749.00,1.59
7748.00,1.59
7747.00,1.59
7746.00,1.59
7745.00,1.59
7744.00,1.59
7743.00,1.59
7742.00,1.59
7741.00,1.59
7740.00,1.59
7739.00,1.59
7738.00,1.58
7737.00,1.58
7736.00,1.58
7735.00,1.58
7734.00,1.58
7733.00,1.57
7732.00,1.57
7731.00,1.57
7730.00,1.57
7729.00,1.57
7728.00,1.56
7727.00,1.56
7726.00,1.56
7725.00,1.56
7724.00,1.56
7723.00,1.56
7722.00,1.56
7721.00,1.56
7720.00,1.56
7719.00,1.55
7718.00,1.55
7717.00,1.55
7716.00,1.55
7715.00,1.55
7714.00,1.55
7713.00,1.55
7712.00,1.55
7711.00,1.55
7710.00,1.55
7709.00,1.55
7708.00,1.55
7707.00,1.55
7706.00,1.55
7705.00,1.55
7704.00,1.55
7703.00,1.55
7702.00,1.55
7701.00,1.55
7700.00,1.55
7699.00,1.54
7698.00,1.54
7697.00,1.54
7696.00,1.54
7695.00,1.54
7694.00,1.54
7693.00,1.54
7692.00,1.54
7691.00,1.54
7690.00,1.54
7689.00,1.54
7688.00,1.54
7687.00,1.54
7686.00,1.54
7685.00,1.54
7684.00,1.54
7683.00,1.54
7682.00,1.54
7681.00,1.54
7680.00,1.54
7679.00,1.54
7678.00,1.54
7677.00,1.54
7676.00,1.55
7675.00,1.55
7674.00,1.55
7673.00,1.55
7672.00,1.55
7671.00,1.55
7670.00,1.55
7669.00,1.56
7668.00,1.56
7667.00,1.56
7666.00,1.56
7665.00,1.56
7664.00,1.56
7663.00,1.56
7662.00,1.56
7661.00,1.56
7660.00,1.55
7659.00,1.55
7658.00,1.55
7657.00,1.55
7656.00,1.55
7655.00,1.55
7654.00,1.55
7653.00,1.55
7652.00,1.55
7651.00,1.55
7650.00,1.55
7649.00,1.55
7648.00,1.54
7647.00,1.54
7646.00,1.54
7645.00,1.54
7644.00,1.54
7643.00,1.54
7642.00,1.54
7641.00,1.54
7640.00,1.53
7639.00,1.53
7638.00,1.53
7637.00,1.53
7636.00,1.53
7635.00,1.53
7634.00,1.53
7633.00,1.53
7632.00,1.53
7631.00,1.54
7630.00,1.54
7629.00,1.54
7628.00,1.54
7627.00,1.53
7626.00,1.53
7625.00,1.53
7624.00,1.53
7623.00,1.53
7622.00,1.53
7621.00,1.53
7620.00,1.53
7619.00,1.53
7618.00,1.53
7617.00,1.53
7616.00,1.53
7615.00,1.53
7614.00,1.53
7613.00,1.54
7612.00,1.54
7611.00,1.54
7610.00,1.54
7609.00,1.54
7608.00,1.54
7607.00,1.54
7606.00,1.54
7605.00,1.54
7604.00,1.54
7603.00,1.54
7602.00,1.54
7601.00,1.54
7600.00,1.54
7599.00,1.54
7598.00,1.54
7597.00,1.54
7596.00,1.54
7595.00,1.54
7594.00,1.54
7593.00,1.54
7592.00,1.54
7591.00,1.54
7590.00,1.54
7589.00,1.54
7588.00,1.54
7587.00,1.54
7586.00,1.54
7585.00,1.54
7584.00,1.54
7583.00,1.54
7582.00,1.54
7581.00,1.54
7580.00,1.54
7579.00,1.54
7578.00,1.53
7577.00,1.53
7576.00,1.53
7575.00,1.53
7574.00,1.53
7573.00,1.53
7572.00,1.53
7571.00,1.52
7570.00,1.52
7569.00,1.52
7568.00,1.52
7567.00,1.52
7566.00,1.52
7565.00,1.52
7564.00,1.52
7563.00,1.51
7562.00,1.51
7561.00,1.51
7560.00,1.51
7559.00,1.51
7558.00,1.51
7557.00,1.51
7556.00,1.51
7555.00,1.51
7554.00,1.51
7553.00,1.51
7552.00,1.51
7551.00,1.51
7550.00,1.51
7549.00,1.51
7548.00,1.51
7547.00,1.51
7546.00,1.51
7545.00,1.51
7544.00,1.51
7543.00,1.51
7542.00,1.52
7541.00,1.52
7540.00,1.52
7539.00,1.52
7538.00,1.52
7537.00,1.52
7536.00,1.52
7535.00,1.52
7534.00,1.52
7533.00,1.52
7532.00,1.53
7531.00,1.53
7530.00,1.53
7529.00,1.53
7528.00,1.53
7527.00,1.53
7526.00,1.53
7525.00,1.53
7524.00,1.53
7523.00,1.53
7522.00,1.53
7521.00,1.53
7520.00,1.53
7519.00,1.53
7518.00,1.53
7517.00,1.53
7516.00,1.53
7515.00,1.53
7514.00,1.53
7513.00,1.53
7512.00,1.53
7511.00,1.53
7510.00,1.53
7509.00,1.53
7508.00,1.53
7507.00,1.52
7506.00,1.52
7505.00,1.52
7504.00,1.52
7503.00,1.52
7502.00,1.51
7501.00,1.51
7500.00,1.51
7499.00,1.51
7498.00,1.51
7497.00,1.51
7496.00,1.51
7495.00,1.51
7494.00,1.51
7493.00,1.51
7492.00,1.51
7491.00,1.51
7490.00,1.51
7489.00,1.51
7488.00,1.51
7487.00,1.51
7486.00,1.51
7485.00,1.52
7484.00,1.52
7483.00,1.52
7482.00,1.52
7481.00,1.52
7480.00,1.53
7479.00,1.53
7478.00,1.53
7477.00,1.53
7476.00,1.53
7475.00,1.53
7474.00,1.53
7473.00,1.53
7472.00,1.53
7471.00,1.53
7470.00,1.53
7469.00,1.53
7468.00,1.53
7467.00,1.53
7466.00,1.53
7465.00,1.53
7464.00,1.53
7463.00,1.53
7462.00,1.53
7461.00,1.53
7460.00,1.53
7459.00,1.52
7458.00,1.52
7457.00,1.52
7456.00,1.52
7455.00,1.52
7454.00,1.52
7453.00,1.52
7452.00,1.52
7451.00,1.51
7450.00,1.51
7449.00,1.51
7448.00,1.51
7447.00,1.51
7446.00,1.51
7445.00,1.51
7444.00,1.51
7443.00,1.51
7442.00,1.51
7441.00,1.51
7440.00,1.51
7439.00,1.50
7438.00,1.50
7437.00,1.50
7436.00,1.50
7435.00,1.49
7434.00,1.49
7433.00,1.49
7432.00,1.48
7431.00,1.48
7430.00,1.47
7429.00,1.47
7428.00,1.47
7427.00,1.46
7426.00,1.46
7425.00,1.46
7424.00,1.45
7423.00,1.45
7422.00,1.45
7421.00,1.44
7420.00,1.44
7419.00,1.44
7418.00,1.43
7417.00,1.43
7416.00,1.43
7415.00,1.43
7414.00,1.43
7413.00,1.43
7412.00,1.43
7411.00,1.43
7410.00,1.43
7409.00,1.43
7408.00,1.43
7407.00,1.43
7406.00,1.43
7405.00,1.43
7404.00,1.44
7403.00,1.44
7402.00,1.44
7401.00,1.44
7400.00,1.44
7399.00,1.45
7398.00,1.45
7397.00,1.45
7396.00,1.45
7395.00,1.46
7394.00,1.46
7393.00,1.46
7392.00,1.46
7391.00,1.46
7390.00,1.46
7389.00,1.46
7388.00,1.46
7387.00,1.46
7386.00,1.45
7385.00,1.45
7384.00,1.45
7383.00,1.45
7382.00,1.45
7381.00,1.45
7380.00,1.45
7379.00,1.44
7378.00,1.44
7377.00,1.44
7376.00,1.44
7375.00,1.44
7374.00,1.43
7373.00,1.43
7372.00,1.43
7371.00,1.42
7370.00,1.42
7369.00,1.41
7368.00,1.41
7367.00,1.41
7366.00,1.40
7365.00,1.40
7364.00,1.39
7363.00,1.39
7362.00,1.39
7361.00,1.38
7360.00,1.38
7359.00,1.37
7358.00,1.37
7357.00,1.37
7356.00,1.36
7355.00,1.36
7354.00,1.36
7353.00,1.35
7352.00,1.35
7351.00,1.34
7350.00,1.34
7349.00,1.34
7348.00,1.33
7347.00,1.33
7346.00,1.32
7345.00,1.32
7344.00,1.32
7343.00,1.32
7342.00,1.31
7341.00,1.31
7340.00,1.31
7339.00,1.31
7338.00,1.31
7337.00,1.31
7336.00,1.31
7335.00,1.31
7334.00,1.31
7333.00,1.31
7332.00,1.31
7331.00,1.31
7330.00,1.31
7329.00,1.31
7328.00,1.32
7327.00,1.32
7326.00,1.32
7325.00,1.32
7324.00,1.33
7323.00,1.33
7322.00,1.34
7321.00,1.34
7320.00,1.34
7319.00,1.35
7318.00,1.35
7317.00,1.36
7316.00,1.36
7315.00,1.36
7314.00,1.37
7313.00,1.37
7312.00,1.37
7311.00,1.37
7310.00,1.37
7309.00,1.38
7308.00,1.38
7307.00,1.38
7306.00,1.38
7305.00,1.38
7304.00,1.38
7303.00,1.38
7302.00,1.38
7301.00,1.38
7300.00,1.38
7299.00,1.38
7298.00,1.38
7297.00,1.38
7296.00,1.37
7295.00,1.37
7294.00,1.37
7293.00,1.36
7292.00,1.36
7291.00,1.36
7290.00,1.35
7289.00,1.35
7288.00,1.35
7287.00,1.35
7286.00,1.34
7285.00,1.34
7284.00,1.34
7283.00,1.34
7282.00,1.33
7281.00,1.33
7280.00,1.33
7279.00,1.32
7278.00,1.32
7277.00,1.32
7276.00,1.31
7275.00,1.31
7274.00,1.31
7273.00,1.31
7272.00,1.31
7271.00,1.31
7270.00,1.31
7269.00,1.31
7268.00,1.31
7267.00,1.31
7266.00,1.31
7265.00,1.31
7264.00,1.31
7263.00,1.30
7262.00,1.30
7261.00,1.30
7260.00,1.30
7259.00,1.29
7258.00,1.29
7257.00,1.29
7256.00,1.28
7255.00,1.28
7254.00,1.28
7253.00,1.27
7252.00,1.27
7251.00,1.27
7250.00,1.27
7249.00,1.26
7248.00,1.26
7247.00,1.25
7246.00,1.25
7245.00,1.24
7244.00,1.24
7243.00,1.23
7242.00,1.23
7241.00,1.22
7240.00,1.22
7239.00,1.21
7238.00,1.21
7237.00,1.20
7236.00,1.20
7235.00,1.20
7234.00,1.19
7233.00,1.19
7232.00,1.19
7231.00,1.18
7230.00,1.18
7229.00,1.18
7228.00,1.17
7227.00,1.17
7226.00,1.17
7225.00,1.17
7224.00,1.16
7223.00,1.16
7222.00,1.16
7221.00,1.15
7220.00,1.15
7219.00,1.15
7218.00,1.15
7217.00,1.15
7216.00,1.15
7215.00,1.14
7214.00,1.14
7213.00,1.14
7212.00,1.14
7211.00,1.14
7210.00,1.14
7209.00,1.14
7208.00,1.14
7207.00,1.14
7206.00,1.14
7205.00,1.14
7204.00,1.14
7203.00,1.13
7202.00,1.13
7201.00,1.13
7200.00,1.13
7199.00,1.13
7198.00,1.13
7197.00,1.12
7196.00,1.12
7195.00,1.12
7194.00,1.12
7193.00,1.11
7192.00,1.11
7191.00,1.10
7190.00,1.10
7189.00,1.09
7188.00,1.09
7187.00,1.08
7186.00,1.08
7185.00,1.07
7184.00,1.06
7183.00,1.06
7182.00,1.05
7181.00,1.04
7180.00,1.04
7179.00,1.03
7178.00,1.03
7177.00,1.02
7176.00,1.02
7175.00,1.01
7174.00,1.01
7173.00,1.00
7172.00,1.00
7171.00,0.99
7170.00,0.99
7169.00,0.99
7168.00,0.98
7167.00,0.98
7166.00,0.98
7165.00,0.98
7164.00,0.97
7163.00,0.97
7162.00,0.97
7161.00,0.97
7160.00,0.97
7159.00,0.96
7158.00,0.96
7157.00,0.96
7156.00,0.96
7155.00,0.95
7154.00,0.95
7153.00,0.95
7152.00,0.94
7151.00,0.94
7150.00,0.94
7149.00,0.93
7148.00,0.93
7147.00,0.92
7146.00,0.92
7145.00,0.91
7144.00,0.91
7143.00,0.90
7142.00,0.90
7141.00,0.89
7140.00,0.88
7139.00,0.88
7138.00,0.87
7137.00,0.86
7136.00,0.86
7135.00,0.85
7134.00,0.84
7133.00,0.84
7132.00,0.83
7131.00,0.83
7130.00,0.82
7129.00,0.81
7128.00,0.81
7127.00,0.81
7126.00,0.80
7125.00,0.80
7124.00,0.79
7123.00,0.79
7122.00,0.79
7121.00,0.78
7120.00,0.78
7119.00,0.78
7118.00,0.77
7117.00,0.77
7116.00,0.77
7115.00,0.77
7114.00,0.77
7113.00,0.77
7112.00,0.77
7111.00,0.77
7110.00,0.77
7109.00,0.77
7108.00,0.77
7107.00,0.77
7106.00,0.77
7105.00,0.77
7104.00,0.77
7103.00,0.77
7102.00,0.77
7101.00,0.77
7100.00,0.77
7099.00,0.77
7098.00,0.77
7097.00,0.76
7096.00,0.76
7095.00,0.76
7094.00,0.76
7093.00,0.76
7092.00,0.76
7091.00,0.76
7090.00,0.76
7089.00,0.76
7088.00,0.76
7087.00,0.75
7086.00,0.75
7085.00,0.75
7084.00,0.75
7083.00,0.74
7082.00,0.74
7081.00,0.74
7080.00,0.73
7079.00,0.73
7078.00,0.73
7077.00,0.73
7076.00,0.73
7075.00,0.73
7074.00,0.73
7073.00,0.72
7072.00,0.72
7071.00,0.72
7070.00,0.72
7069.00,0.72
7068.00,0.72
7067.00,0.71
7066.00,0.71
7065.00,0.71
7064.00,0.71
7063.00,0.71
7062.00,0.71
7061.00,0.71
7060.00,0.71
7059.00,0.71
7058.00,0.71
7057.00,0.71
7056.00,0.71
7055.00,0.71
7054.00,0.71
7053.00,0.71
7052.00,0.71
7051.00,0.71
7050.00,0.71
7049.00,0.71
7048.00,0.70
7047.00,0.70
7046.00,0.70
7045.00,0.70
7044.00,0.70
7043.00,0.70
7042.00,0.70
7041.00,0.70
7040.00,0.70
7039.00,0.70
7038.00,0.70
7037.00,0.70
7036.00,0.70
7035.00,0.70
7034.00,0.70
7033.00,0.70
7032.00,0.69
7031.00,0.69
7030.00,0.69
7029.00,0.69
7028.00,0.69
7027.00,0.69
7026.00,0.68
7025.00,0.68
7024.00,0.68
7023.00,0.68
7022.00,0.68
7021.00,0.68
7020.00,0.68
7019.00,0.68
7018.00,0.68
7017.00,0.68
7016.00,0.68
7015.00,0.68
7014.00,0.68
7013.00,0.68
7012.00,0.68
7011.00,0.68
7010.00,0.68
7009.00,0.68
7008.00,0.68
7007.00,0.68
7006.00,0.68
7005.00,0.68
7004.00,0.68
7003.00,0.67
7002.00,0.67
7001.00,0.67
7000.00,0.67
6999.00,0.67
6998.00,0.67
6997.00,0.67
6996.00,0.67
6995.00,0.67
6994.00,0.67
6993.00,0.66
6992.00,0.66
6991.00,0.66
6990.00,0.66
6989.00,0.66
6988.00,0.66
6987.00,0.65
6986.00,0.65
6985.00,0.65
6984.00,0.65
6983.00,0.65
6982.00,0.65
6981.00,0.65
6980.00,0.65
6979.00,0.65
6978.00,0.65
6977.00,0.65
6976.00,0.65
6975.00,0.65
6974.00,0.65
6973.00,0.65
6972.00,0.65
6971.00,0.65
6970.00,0.66
6969.00,0.66
6968.00,0.66
6967.00,0.66
6966.00,0.66
6965.00,0.66
6964.00,0.67
6963.00,0.67
6962.00,0.67
6961.00,0.67
6960.00,0.67
6959.00,0.67
6958.00,0.67
6957.00,0.67
6956.00,0.68
6955.00,0.68
6954.00,0.68
6953.00,0.68
6952.00,0.68
6951.00,0.68
6950.00,0.68
6949.00,0.68
6948.00,0.68
6947.00,0.68
6946.00,0.68
6945.00,0.67
6944.00,0.67
6943.00,0.67
6942.00,0.67
6941.00,0.67
6940.00,0.67
6939.00,0.67
6938.00,0.67
6937.00,0.67
6936.00,0.67
6935.00,0.67
6934.00,0.67
6933.00,0.67
6932.00,0.67
6931.00,0.66
6930.00,0.66
6929.00,0.66
6928.00,0.66
6927.00,0.66
6926.00,0.66
6925.00,0.66
6924.00,0.66
6923.00,0.67
6922.00,0.67
6921.00,0.67
6920.00,0.67
6919.00,0.67
6918.00,0.67
6917.00,0.67
6916.00,0.66
6915.00,0.66
6914.00,0.66
6913.00,0.66
6912.00,0.66
6911.00,0.66
6910.00,0.66
6909.00,0.66
6908.00,0.66
6907.00,0.66
6906.00,0.66
6905.00,0.66
6904.00,0.66
6903.00,0.66
6902.00,0.66
6901.00,0.66
6900.00,0.66
6899.00,0.66
6898.00,0.66
6897.00,0.66
6896.00,0.66
6895.00,0.66
6894.00,0.66
6893.00,0.66
6892.00,0.66
6891.00,0.66
6890.00,0.67
6889.00,0.67
6888.00,0.67
6887.00,0.67
6886.00,0.67
6885.00,0.68
6884.00,0.68
6883.00,0.68
6882.00,0.68
6881.00,0.68
6880.00,0.68
6879.00,0.68
6878.00,0.68
6877.00,0.68
6876.00,0.69
6875.00,0.69
6874.00,0.69
6873.00,0.69
6872.00,0.69
6871.00,0.69
6870.00,0.69
6869.00,0.68
6868.00,0.68
6867.00,0.68
6866.00,0.68
6865.00,0.68
6864.00,0.68
6863.00,0.68
6862.00,0.68
6861.00,0.68
6860.00,0.67
6859.00,0.67
6858.00,0.67
6857.00,0.67
6856.00,0.67
6855.00,0.67
6854.00,0.67
6853.00,0.67
6852.00,0.66
6851.00,0.66
6850.00,0.66
6849.00,0.67
6848.00,0.67
6847.00,0.67
6846.00,0.67
6845.00,0.67
6844.00,0.67
6843.00,0.67
6842.00,0.67
6841.00,0.67
6840.00,0.67
6839.00,0.67
6838.00,0.67
6837.00,0.67
6836.00,0.67
6835.00,0.67
6834.00,0.66
6833.00,0.66
6832.00,0.66
6831.00,0.66
6830.00,0.66
6829.00,0.66
6828.00,0.65
6827.00,0.65
6826.00,0.65
6825.00,0.65
6824.00,0.65
6823.00,0.64
6822.00,0.64
6821.00,0.64
6820.00,0.64
6819.00,0.64
6818.00,0.64
6817.00,0.63
6816.00,0.63
6815.00,0.63
6814.00,0.63
6813.00,0.63
6812.00,0.64
6811.00,0.64
6810.00,0.64
6809.00,0.64
6808.00,0.64
6807.00,0.64
6806.00,0.65
6805.00,0.65
6804.00,0.65
6803.00,0.65
6802.00,0.66
6801.00,0.66
6800.00,0.66
6799.00,0.66
6798.00,0.67
6797.00,0.67
6796.00,0.67
6795.00,0.67
6794.00,0.67
6793.00,0.67
6792.00,0.67
6791.00,0.68
6790.00,0.68
6789.00,0.68
6788.00,0.68
6787.00,0.68
6786.00,0.68
6785.00,0.68
6784.00,0.68
6783.00,0.68
6782.00,0.67
6781.00,0.67
6780.00,0.67
6779.00,0.67
6778.00,0.67
6777.00,0.67
6776.00,0.67
6775.00,0.67
6774.00,0.67
6773.00,0.66
6772.00,0.66
6771.00,0.66
6770.00,0.66
6769.00,0.66
6768.00,0.66
6767.00,0.66
6766.00,0.66
6765.00,0.66
6764.00,0.66
6763.00,0.66
6762.00,0.66
6761.00,0.66
6760.00,0.66
6759.00,0.66
6758.00,0.66
6757.00,0.66
6756.00,0.66
6755.00,0.66
6754.00,0.66
6753.00,0.66
6752.00,0.66
6751.00,0.66
6750.00,0.66
6749.00,0.66
6748.00,0.67
6747.00,0.67
6746.00,0.67
6745.00,0.67
6744.00,0.67
6743.00,0.68
6742.00,0.68
6741.00,0.68
6740.00,0.69
6739.00,0.69
6738.00,0.69
6737.00,0.70
6736.00,0.70
6735.00,0.70
6734.00,0.70
6733.00,0.71
6732.00,0.71
6731.00,0.71
6730.00,0.71
6729.00,0.71
6728.00,0.71
6727.00,0.71
6726.00,0.71
6725.00,0.72
6724.00,0.72
6723.00,0.72
6722.00,0.72
6721.00,0.72
6720.00,0.72
6719.00,0.72
6718.00,0.72
6717.00,0.72
6716.00,0.71
6715.00,0.71
6714.00,0.71
6713.00,0.71
6712.00,0.71
6711.00,0.71
6710.00,0.71
6709.00,0.71
6708.00,0.70
6707.00,0.70
6706.00,0.70
6705.00,0.70
6704.00,0.70
6703.00,0.70
6702.00,0.71
6701.00,0.71
6700.00,0.71
6699.00,0.71
6698.00,0.71
6697.00,0.71
6696.00,0.71
6695.00,0.71
6694.00,0.71
6693.00,0.71
6692.00,0.71
6691.00,0.71
6690.00,0.71
6689.00,0.71
6688.00,0.71
6687.00,0.71
6686.00,0.71
6685.00,0.71
6684.00,0.71
6683.00,0.71
6682.00,0.72
6681.00,0.72
6680.00,0.72
6679.00,0.72
6678.00,0.72
6677.00,0.72
6676.00,0.72
6675.00,0.73
6674.00,0.73
6673.00,0.73
6672.00,0.73
6671.00,0.73
6670.00,0.74
6669.00,0.74
6668.00,0.74
6667.00,0.75
6666.00,0.75
6665.00,0.75
6664.00,0.76
6663.00,0.76
6662.00,0.76
6661.00,0.77
6660.00,0.77
6659.00,0.77
6658.00,0.78
6657.00,0.78
6656.00,0.78
6655.00,0.79
6654.00,0.79
6653.00,0.79
6652.00,0.79
6651.00,0.79
6650.00,0.80
6649.00,0.80
6648.00,0.80
6647.00,0.80
6646.00,0.80
6645.00,0.80
6644.00,0.80
6643.00,0.80
6642.00,0.80
6641.00,0.80
6640.00,0.80
6639.00,0.80
6638.00,0.80
6637.00,0.80
6636.00,0.80
6635.00,0.80
6634.00,0.80
6633.00,0.80
6632.00,0.80
6631.00,0.80
6630.00,0.80
6629.00,0.80
6628.00,0.80
6627.00,0.80
6626.00,0.80
6625.00,0.80
6624.00,0.81
6623.00,0.81
6622.00,0.81
6621.00,0.81
6620.00,0.81
6619.00,0.81
6618.00,0.82
6617.00,0.82
6616.00,0.82
6615.00,0.82
6614.00,0.82
6613.00,0.83
6612.00,0.83
6611.00,0.83
6610.00,0.83
6609.00,0.83
6608.00,0.83
6607.00,0.83
6606.00,0.84
6605.00,0.84
6604.00,0.84
6603.00,0.84
6602.00,0.84
6601.00,0.84
6600.00,0.84
6599.00,0.84
6598.00,0.84
6597.00,0.84
6596.00,0.84
6595.00,0.84
6594.00,0.84
6593.00,0.84
6592.00,0.84
6591.00,0.84
6590.00,0.84
6589.00,0.84
6588.00,0.84
6587.00,0.84
6586.00,0.84
6585.00,0.84
6584.00,0.85
6583.00,0.85
6582.00,0.85
6581.00,0.85
6580.00,0.85
6579.00,0.85
6578.00,0.85
6577.00,0.85
6576.00,0.86
6575.00,0.86
6574.00,0.86
6573.00,0.86
6572.00,0.86
6571.00,0.86
6570.00,0.87
6569.00,0.87
6568.00,0.87
6567.00,0.87
6566.00,0.87
6565.00,0.87
6564.00,0.87
6563.00,0.87
6562.00,0.87
6561.00,0.87
6560.00,0.87
6559.00,0.87
6558.00,0.87
6557.00,0.87
6556.00,0.87
6555.00,0.87
6554.00,0.87
6553.00,0.87
6552.00,0.87
6551.00,0.87
6550.00,0.87
6549.00,0.86
6548.00,0.86
6547.00,0.86
6546.00,0.86
6545.00,0.86
6544.00,0.86
6543.00,0.86
6542.00,0.86
6541.00,0.87
6540.00,0.87
6539.00,0.87
6538.00,0.87
6537.00,0.87
6536.00,0.87
6535.00,0.87
6534.00,0.87
6533.00,0.87
6532.00,0.87
6531.00,0.88
6530.00,0.88
6529.00,0.88
6528.00,0.88
6527.00,0.88
6526.00,0.88
6525.00,0.88
6524.00,0.88
6523.00,0.88
6522.00,0.88
6521.00,0.88
6520.00,0.88
6519.00,0.88
6518.00,0.88
6517.00,0.88
6516.00,0.88
6515.00,0.88
6514.00,0.88
6513.00,0.88
6512.00,0.88
6511.00,0.88
6510.00,0.88
6509.00,0.88
6508.00,0.88
6507.00,0.88
6506.00,0.88
6505.00,0.88
6504.00,0.89
6503.00,0.89
6502.00,0.89
6501.00,0.89
6500.00,0.89
6499.00,0.90
6498.00,0.90
6497.00,0.90
6496.00,0.90
6495.00,0.90
6494.00,0.91
6493.00,0.91
6492.00,0.91
6491.00,0.92
6490.00,0.92
6489.00,0.92
6488.00,0.93
6487.00,0.93
6486.00,0.93
6485.00,0.94
6484.00,0.94
6483.00,0.94
6482.00,0.95
6481.00,0.95
6480.00,0.95
6479.00,0.96
6478.00,0.96
6477.00,0.96
6476.00,0.97
6475.00,0.97
6474.00,0.97
6473.00,0.97
6472.00,0.98
6471.00,0.98
6470.00,0.98
6469.00,0.98
6468.00,0.99
6467.00,0.99
6466.00,0.99
6465.00,0.99
6464.00,0.99
6463.00,1.00
6462.00,1.00
6461.00,1.00
6460.00,1.00
6459.00,1.00
6458.00,1.00
6457.00,1.00
6456.00,1.00
6455.00,1.00
6454.00,1.00
6453.00,1.00
6452.00,1.00
6451.00,0.99
6450.00,0.99
6449.00,0.99
6448.00,0.99
6447.00,0.99
6446.00,0.99
6445.00,0.99
6444.00,0.99
6443.00,0.99
6442.00,0.99
6441.00,0.99
6440.00,0.99
6439.00,0.99
6438.00,0.98
6437.00,0.98
6436.00,0.98
6435.00,0.98
6434.00,0.98
6433.00,0.98
6432.00,0.98
6431.00,0.98
6430.00,0.99
6429.00,0.99
6428.00,0.99
6427.00,0.99
6426.00,0.99
6425.00,0.99
6424.00,0.99
6423.00,0.99
6422.00,0.99
6421.00,0.99
6420.00,0.99
6419.00,1.00
6418.00,1.00
6417.00,1.00
6416.00,1.00
6415.00,1.00
6414.00,1.00
6413.00,1.00
6412.00,1.00
6411.00,1.00
6410.00,1.00
6409.00,1.00
6408.00,1.00
6407.00,1.01
6406.00,1.01
6405.00,1.01
6404.00,1.01
6403.00,1.01
6402.00,1.01
6401.00,1.01
6400.00,1.02
6399.00,1.02
6398.00,1.02
6397.00,1.02
6396.00,1.02
6395.00,1.03
6394.00,1.03
6393.00,1.03
6392.00,1.03
6391.00,1.04
6390.00,1.04
6389.00,1.04
6388.00,1.04
6387.00,1.04
6386.00,1.04
6385.00,1.05
6384.00,1.05
6383.00,1.05
6382.00,1.05
6381.00,1.06
6380.00,1.06
6379.00,1.06
6378.00,1.06
6377.00,1.06
6376.00,1.06
6375.00,1.06
6374.00,1.06
6373.00,1.06
6372.00,1.06
6371.00,1.06
6370.00,1.06
6369.00,1.06
6368.00,1.06
6367.00,1.06
6366.00,1.06
6365.00,1.06
6364.00,1.06
6363.00,1.06
6362.00,1.06
6361.00,1.06
6360.00,1.06
6359.00,1.05
6358.00,1.05
6357.00,1.05
6356.00,1.05
6355.00,1.05
6354.00,1.05
6353.00,1.05
6352.00,1.05
6351.00,1.05
6350.00,1.05
6349.00,1.05
6348.00,1.05
6347.00,1.05
6346.00,1.05
6345.00,1.05
6344.00,1.05
6343.00,1.05
6342.00,1.05
6341.00,1.05
6340.00,1.06
6339.00,1.06
6338.00,1.06
6337.00,1.06
6336.00,1.07
6335.00,1.07
6334.00,1.07
6333.00,1.08
6332.00,1.08
6331.00,1.08
6330.00,1.09
6329.00,1.09
6328.00,1.10
6327.00,1.10
6326.00,1.11
6325.00,1.11
6324.00,1.12
6323.00,1.12
6322.00,1.13
6321.00,1.13
6320.00,1.13
6319.00,1.14
6318.00,1.14
6317.00,1.15
6316.00,1.15
6315.00,1.15
6314.00,1.16
6313.00,1.16
6312.00,1.16
6311.00,1.17
6310.00,1.17
6309.00,1.17
6308.00,1.17
6307.00,1.17
6306.00,1.18
6305.00,1.18
6304.00,1.18
6303.00,1.18
6302.00,1.18
6301.00,1.18
6300.00,1.18
6299.00,1.18
6298.00,1.18
6297.00,1.18
6296.00,1.18
6295.00,1.18
6294.00,1.17
6293.00,1.17
6292.00,1.17
6291.00,1.17
6290.00,1.17
6289.00,1.17
6288.00,1.17
6287.00,1.17
6286.00,1.17
6285.00,1.17
6284.00,1.16
6283.00,1.16
6282.00,1.16
6281.00,1.16
6280.00,1.16
6279.00,1.16
6278.00,1.16
6277.00,1.16
6276.00,1.16
6275.00,1.17
6274.00,1.17
6273.00,1.17
6272.00,1.17
6271.00,1.17
6270.00,1.18
6269.00,1.18
6268.00,1.18
6267.00,1.18
6266.00,1.19
6265.00,1.19
6264.00,1.19
6263.00,1.19
6262.00,1.19
6261.00,1.20
6260.00,1.20
6259.00,1.20
6258.00,1.20
6257.00,1.21
6256.00,1.21
6255.00,1.21
6254.00,1.21
6253.00,1.22
6252.00,1.22
6251.00,1.22
6250.00,1.22
6249.00,1.22
6248.00,1.22
6247.00,1.22
6246.00,1.22
6245.00,1.22
6244.00,1.22
6243.00,1.22
6242.00,1.22
6241.00,1.22
6240.00,1.22
6239.00,1.22
6238.00,1.22
6237.00,1.22
6236.00,1.22
6235.00,1.22
6234.00,1.22
6233.00,1.22
6232.00,1.22
6231.00,1.22
6230.00,1.22
6229.00,1.22
6228.00,1.22
6227.00,1.22
6226.00,1.22
6225.00,1.22
6224.00,1.22
6223.00,1.22
6222.00,1.23
6221.00,1.23
6220.00,1.23
6219.00,1.23
6218.00,1.23
6217.00,1.23
6216.00,1.23
6215.00,1.23
6214.00,1.24
6213.00,1.24
6212.00,1.24
6211.00,1.24
6210.00,1.24
6209.00,1.25
6208.00,1.25
6207.00,1.25
6206.00,1.25
6205.00,1.25
6204.00,1.25
6203.00,1.25
6202.00,1.26
6201.00,1.26
6200.00,1.26
6199.00,1.26
6198.00,1.26
6197.00,1.26
6196.00,1.26
6195.00,1.26
6194.00,1.26
6193.00,1.26
6192.00,1.27
6191.00,1.27
6190.00,1.27
6189.00,1.27
6188.00,1.27
6187.00,1.27
6186.00,1.27
6185.00,1.28
6184.00,1.28
6183.00,1.28
6182.00,1.28
6181.00,1.28
6180.00,1.28
6179.00,1.29
6178.00,1.29
6177.00,1.29
6176.00,1.29
6175.00,1.30
6174.00,1.30
6173.00,1.30
6172.00,1.31
6171.00,1.31
6170.00,1.31
6169.00,1.32
6168.00,1.32
6167.00,1.32
6166.00,1.33
6165.00,1.33
6164.00,1.33
6163.00,1.33
6162.00,1.34
6161.00,1.34
6160.00,1.34
6159.00,1.35
6158.00,1.35
6157.00,1.35
6156.00,1.35
6155.00,1.36
6154.00,1.36
6153.00,1.36
6152.00,1.36
6151.00,1.36
6150.00,1.37
6149.00,1.37
6148.00,1.37
6147.00,1.37
6146.00,1.37
6145.00,1.37
6144.00,1.37
6143.00,1.37
6142.00,1.37
6141.00,1.37
6140.00,1.37
6139.00,1.37
6138.00,1.37
6137.00,1.37
6136.00,1.37
6135.00,1.37
6134.00,1.37
6133.00,1.37
6132.00,1.37
6131.00,1.37
6130.00,1.37
6129.00,1.37
6128.00,1.37
6127.00,1.36
6126.00,1.37
6125.00,1.37
6124.00,1.37
6123.00,1.37
6122.00,1.37
6121.00,1.37
6120.00,1.37
6119.00,1.37
6118.00,1.37
6117.00,1.37
6116.00,1.37
6115.00,1.37
6114.00,1.38
6113.00,1.38
6112.00,1.38
6111.00,1.38
6110.00,1.38
6109.00,1.38
6108.00,1.38
6107.00,1.39
6106.00,1.39
6105.00,1.39
6104.00,1.40
6103.00,1.40
6102.00,1.40
6101.00,1.41
6100.00,1.41
6099.00,1.41
6098.00,1.42
6097.00,1.42
6096.00,1.42
6095.00,1.43
6094.00,1.43
6093.00,1.43
6092.00,1.43
6091.00,1.44
6090.00,1.44
6089.00,1.44
6088.00,1.45
6087.00,1.45
6086.00,1.45
6085.00,1.46
6084.00,1.46
6083.00,1.46
6082.00,1.47
6081.00,1.47
6080.00,1.47
6079.00,1.47
6078.00,1.48
6077.00,1.48
6076.00,1.48
6075.00,1.48
6074.00,1.48
6073.00,1.48
6072.00,1.49
6071.00,1.49
6070.00,1.49
6069.00,1.49
6068.00,1.49
6067.00,1.50
6066.00,1.50
6065.00,1.50
6064.00,1.50
6063.00,1.50
6062.00,1.51
6061.00,1.51
6060.00,1.51
6059.00,1.51
6058.00,1.51
6057.00,1.51
6056.00,1.51
6055.00,1.50
6054.00,1.50
6053.00,1.50
6052.00,1.50
6051.00,1.50
6050.00,1.50
6049.00,1.50
6048.00,1.50
6047.00,1.50
6046.00,1.50
6045.00,1.50
6044.00,1.50
6043.00,1.50
6042.00,1.50
6041.00,1.50
6040.00,1.50
6039.00,1.50
6038.00,1.50
6037.00,1.50
6036.00,1.50
6035.00,1.50
6034.00,1.51
6033.00,1.51
6032.00,1.51
6031.00,1.51
6030.00,1.51
6029.00,1.51
6028.00,1.51
6027.00,1.51
6026.00,1.52
6025.00,1.52
6024.00,1.52
6023.00,1.52
6022.00,1.52
6021.00,1.52
6020.00,1.52
6019.00,1.52
6018.00,1.52
6017.00,1.52
6016.00,1.52
6015.00,1.52
6014.00,1.52
6013.00,1.52
6012.00,1.52
6011.00,1.52
6010.00,1.52
6009.00,1.52
6008.00,1.52
6007.00,1.52
6006.00,1.52
6005.00,1.52
6004.00,1.52
6003.00,1.52
6002.00,1.51
6001.00,1.51
6000.00,1.51
5999.00,1.51
5998.00,1.51
5997.00,1.51
5996.00,1.51
5995.00,1.51
5994.00,1.51
5993.00,1.51
5992.00,1.51
5991.00,1.51
5990.00,1.51
5989.00,1.51
5988.00,1.51
5987.00,1.51
5986.00,1.51
5985.00,1.51
5984.00,1.51
5983.00,1.51
5982.00,1.51
5981.00,1.51
5980.00,1.51
5979.00,1.51
5978.00,1.51
5977.00,1.51
5976.00,1.51
5975.00,1.51
5974.00,1.50
5973.00,1.50
5972.00,1.50
5971.00,1.50
5970.00,1.50
5969.00,1.50
5968.00,1.49
5967.00,1.49
5966.00,1.49
5965.00,1.48
5964.00,1.48
5963.00,1.48
5962.00,1.47
5961.00,1.47
5960.00,1.47
5959.00,1.46
5958.00,1.46
5957.00,1.45
5956.00,1.45
5955.00,1.45
5954.00,1.44
5953.00,1.44
5952.00,1.43
5951.00,1.43
5950.00,1.42
5949.00,1.42
5948.00,1.42
5947.00,1.41
5946.00,1.40
5945.00,1.40
5944.00,1.39
5943.00,1.39
5942.00,1.38
5941.00,1.38
5940.00,1.37
5939.00,1.37
5938.00,1.36
5937.00,1.36
5936.00,1.35
5935.00,1.35
5934.00,1.34
5933.00,1.34
5932.00,1.34
5931.00,1.33
5930.00,1.33
5929.00,1.33
5928.00,1.32
5927.00,1.32
5926.00,1.32
5925.00,1.31
5924.00,1.31
5923.00,1.31
5922.00,1.30
5921.00,1.30
5920.00,1.30
5919.00,1.30
5918.00,1.30
5917.00,1.30
5916.00,1.30
5915.00,1.30
5914.00,1.30
5913.00,1.30
5912.00,1.30
5911.00,1.30
5910.00,1.31
5909.00,1.31
5908.00,1.31
5907.00,1.31
5906.00,1.31
5905.00,1.31
5904.00,1.32
5903.00,1.32
5902.00,1.32
5901.00,1.33
5900.00,1.33
5899.00,1.33
5898.00,1.34
5897.00,1.34
5896.00,1.34
5895.00,1.35
5894.00,1.35
5893.00,1.36
5892.00,1.36
5891.00,1.36
5890.00,1.37
5889.00,1.37
5888.00,1.37
5887.00,1.37
5886.00,1.38
5885.00,1.38
5884.00,1.38
5883.00,1.39
5882.00,1.39
5881.00,1.39
5880.00,1.39
5879.00,1.40
5878.00,1.40
5877.00,1.40
5876.00,1.40
5875.00,1.40
5874.00,1.41
5873.00,1.41
5872.00,1.41
5871.00,1.41
5870.00,1.41
5869.00,1.41
5868.00,1.41
5867.00,1.41
5866.00,1.41
5865.00,1.41
5864.00,1.41
5863.00,1.41
5862.00,1.40
5861.00,1.40
5860.00,1.40
5859.00,1.40
5858.00,1.40
5857.00,1.40
5856.00,1.39
5855.00,1.39
5854.00,1.39
5853.00,1.39
5852.00,1.38
5851.00,1.38
5850.00,1.38
5849.00,1.38
5848.00,1.37
5847.00,1.37
5846.00,1.37
5845.00,1.37
5844.00,1.37
5843.00,1.36
5842.00,1.36
5841.00,1.36
5840.00,1.36
5839.00,1.36
5838.00,1.36
5837.00,1.36
5836.00,1.37
5835.00,1.37
5834.00,1.37
5833.00,1.37
5832.00,1.37
5831.00,1.38
5830.00,1.38
5829.00,1.38
5828.00,1.39
5827.00,1.39
5826.00,1.39
5825.00,1.40
5824.00,1.40
5823.00,1.40
5822.00,1.41
5821.00,1.41
5820.00,1.41
5819.00,1.42
5818.00,1.42
5817.00,1.42
5816.00,1.43
5815.00,1.43
5814.00,1.43
5813.00,1.43
5812.00,1.43
5811.00,1.43
5810.00,1.43
5809.00,1.43
5808.00,1.43
5807.00,1.43
5806.00,1.43
5805.00,1.43
5804.00,1.43
5803.00,1.43
5802.00,1.43
5801.00,1.43
5800.00,1.42
5799.00,1.42
5798.00,1.42
5797.00,1.42
5796.00,1.42
5795.00,1.41
5794.00,1.41
5793.00,1.41
5792.00,1.41
5791.00,1.40
5790.00,1.40
5789.00,1.40
5788.00,1.40
5787.00,1.40
5786.00,1.39
5785.00,1.39
5784.00,1.39
5783.00,1.39
5782.00,1.39
5781.00,1.39
5780.00,1.38
5779.00,1.38
5778.00,1.38
5777.00,1.38
5776.00,1.38
5775.00,1.38
5774.00,1.38
5773.00,1.38
5772.00,1.38
5771.00,1.38
5770.00,1.38
5769.00,1.38
5768.00,1.38
5767.00,1.38
5766.00,1.38
5765.00,1.38
5764.00,1.38
5763.00,1.38
5762.00,1.38
5761.00,1.38
5760.00,1.38
5759.00,1.38
5758.00,1.38
5757.00,1.38
5756.00,1.38
5755.00,1.39
5754.00,1.39
5753.00,1.39
5752.00,1.39
5751.00,1.39
5750.00,1.39
5749.00,1.39
5748.00,1.40
5747.00,1.40
5746.00,1.40
5745.00,1.40
5744.00,1.41
5743.00,1.41
5742.00,1.41
5741.00,1.41
5740.00,1.42
5739.00,1.42
5738.00,1.42
5737.00,1.42
5736.00,1.42
5735.00,1.43
5734.00,1.43
5733.00,1.43
5732.00,1.43
5731.00,1.43
5730.00,1.43
5729.00,1.43
5728.00,1.43
5727.00,1.43
5726.00,1.43
5725.00,1.43
5724.00,1.42
5723.00,1.42
5722.00,1.42
5721.00,1.42
5720.00,1.42
5719.00,1.42
5718.00,1.42
5717.00,1.41
5716.00,1.41
5715.00,1.41
5714.00,1.41
5713.00,1.41
5712.00,1.40
5711.00,1.40
5710.00,1.40
5709.00,1.40
5708.00,1.39
5707.00,1.39
5706.00,1.39
5705.00,1.39
5704.00,1.39
5703.00,1.39
5702.00,1.39
5701.00,1.39
5700.00,1.38
5699.00,1.38
5698.00,1.38
5697.00,1.38
5696.00,1.38
5695.00,1.38
5694.00,1.38
5693.00,1.38
5692.00,1.38
5691.00,1.37
5690.00,1.37
5689.00,1.37
5688.00,1.37
5687.00,1.37
5686.00,1.37
5685.00,1.37
5684.00,1.37
5683.00,1.37
5682.00,1.37
5681.00,1.37
5680.00,1.37
5679.00,1.37
5678.00,1.38
5677.00,1.38
5676.00,1.38
5675.00,1.38
5674.00,1.38
5673.00,1.38
5672.00,1.38
5671.00,1.38
5670.00,1.38
5669.00,1.38
5668.00,1.38
5667.00,1.39
5666.00,1.39
5665.00,1.39
5664.00,1.39
5663.00,1.39
5662.00,1.40
5661.00,1.40
5660.00,1.40
5659.00,1.40
5658.00,1.40
5657.00,1.40
5656.00,1.40
5655.00,1.40
5654.00,1.40
5653.00,1.40
5652.00,1.40
5651.00,1.40
5650.00,1.40
5649.00,1.40
5648.00,1.40
5647.00,1.40
5646.00,1.40
5645.00,1.40
5644.00,1.40
5643.00,1.40
5642.00,1.40
5641.00,1.40
5640.00,1.40
5639.00,1.40
5638.00,1.39
5637.00,1.39
5636.00,1.39
5635.00,1.39
5634.00,1.39
5633.00,1.39
5632.00,1.39
5631.00,1.39
5630.00,1.39
5629.00,1.39
5628.00,1.39
5627.00,1.39
5626.00,1.39
5625.00,1.39
5624.00,1.39
5623.00,1.39
5622.00,1.39
5621.00,1.39
5620.00,1.39
5619.00,1.39
5618.00,1.39
5617.00,1.39
5616.00,1.39
5615.00,1.39
5614.00,1.39
5613.00,1.39
5612.00,1.39
5611.00,1.39
5610.00,1.39
5609.00,1.40
5608.00,1.40
5607.00,1.40
5606.00,1.40
5605.00,1.40
5604.00,1.40
5603.00,1.40
5602.00,1.40
5601.00,1.40
5600.00,1.40
5599.00,1.41
5598.00,1.41
5597.00,1.41
5596.00,1.41
5595.00,1.41
5594.00,1.41
5593.00,1.42
5592.00,1.42
5591.00,1.42
5590.00,1.42
5589.00,1.42
5588.00,1.43
5587.00,1.43
5586.00,1.43
5585.00,1.43
5584.00,1.44
5583.00,1.44
5582.00,1.44
5581.00,1.44
5580.00,1.44
5579.00,1.44
5578.00,1.45
5577.00,1.45
5576.00,1.45
5575.00,1.45
5574.00,1.45
5573.00,1.45
5572.00,1.45
5571.00,1.45
5570.00,1.45
5569.00,1.45
5568.00,1.45
5567.00,1.46
5566.00,1.46
5565.00,1.46
5564.00,1.46
5563.00,1.46
5562.00,1.46
5561.00,1.46
5560.00,1.46
5559.00,1.46
5558.00,1.46
5557.00,1.46
5556.00,1.46
5555.00,1.47
5554.00,1.47
5553.00,1.47
5552.00,1.47
5551.00,1.47
5550.00,1.48
5549.00,1.48
5548.00,1.48
5547.00,1.48
5546.00,1.49
5545.00,1.49
5544.00,1.49
5543.00,1.49
5542.00,1.50
5541.00,1.50
5540.00,1.50
5539.00,1.50
5538.00,1.51
5537.00,1.51
5536.00,1.51
5535.00,1.51
5534.00,1.51
5533.00,1.52
5532.00,1.52
5531.00,1.52
5530.00,1.52
5529.00,1.52
5528.00,1.52
5527.00,1.52
5526.00,1.52
5525.00,1.52
5524.00,1.52
5523.00,1.52
5522.00,1.52
5521.00,1.52
5520.00,1.52
5519.00,1.52
5518.00,1.52
5517.00,1.52
5516.00,1.52
5515.00,1.52
5514.00,1.52
5513.00,1.52
5512.00,1.52
5511.00,1.52
5510.00,1.52
5509.00,1.51
5508.00,1.51
5507.00,1.51
5506.00,1.51
5505.00,1.51
5504.00,1.51
5503.00,1.51
5502.00,1.51
5501.00,1.51
5500.00,1.51
5499.00,1.51
5498.00,1.51
5497.00,1.51
5496.00,1.51
5495.00,1.51
5494.00,1.51
5493.00,1.51
5492.00,1.51
5491.00,1.51
5490.00,1.51
5489.00,1.51
5488.00,1.51
5487.00,1.51
5486.00,1.51
5485.00,1.52
5484.00,1.52
5483.00,1.52
5482.00,1.52
5481.00,1.52
5480.00,1.52
5479.00,1.52
5478.00,1.53
5477.00,1.53
5476.00,1.53
5475.00,1.53
5474.00,1.53
5473.00,1.53
5472.00,1.53
5471.00,1.54
5470.00,1.54
5469.00,1.54
5468.00,1.54
5467.00,1.54
5466.00,1.54
5465.00,1.54
5464.00,1.55
5463.00,1.55
5462.00,1.55
5461.00,1.55
5460.00,1.55
5459.00,1.55
5458.00,1.55
5457.00,1.55
5456.00,1.55
5455.00,1.55
5454.00,1.55
5453.00,1.55
5452.00,1.55
5451.00,1.55
5450.00,1.55
5449.00,1.55
5448.00,1.55
5447.00,1.55
5446.00,1.55
5445.00,1.55
5444.00,1.55
5443.00,1.55
5442.00,1.55
5441.00,1.55
5440.00,1.55
5439.00,1.55
5438.00,1.55
5437.00,1.55
5436.00,1.55
5435.00,1.55
5434.00,1.55
5433.00,1.55
5432.00,1.55
5431.00,1.55
5430.00,1.55
5429.00,1.55
5428.00,1.55
5427.00,1.55
5426.00,1.55
5425.00,1.55
5424.00,1.54
5423.00,1.54
5422.00,1.54
5421.00,1.54
5420.00,1.54
5419.00,1.53
5418.00,1.53
5417.00,1.53
5416.00,1.53
5415.00,1.52
5414.00,1.52
5413.00,1.52
5412.00,1.51
5411.00,1.51
5410.00,1.50
5409.00,1.50
5408.00,1.50
5407.00,1.49
5406.00,1.49
5405.00,1.49
5404.00,1.49
5403.00,1.48
5402.00,1.48
5401.00,1.48
5400.00,1.47
5399.00,1.47
5398.00,1.46
5397.00,1.46
5396.00,1.46
5395.00,1.45
5394.00,1.45
5393.00,1.45
5392.00,1.44
5391.00,1.44
5390.00,1.44
5389.00,1.43
5388.00,1.43
5387.00,1.43
5386.00,1.42
5385.00,1.42
5384.00,1.41
5383.00,1.41
5382.00,1.40
5381.00,1.40
5380.00,1.39
5379.00,1.39
5378.00,1.38
5377.00,1.37
5376.00,1.37
5375.00,1.36
5374.00,1.36
5373.00,1.35
5372.00,1.34
5371.00,1.33
5370.00,1.33
5369.00,1.32
5368.00,1.31
5367.00,1.30
5366.00,1.29
5365.00,1.29
5364.00,1.28
5363.00,1.27
5362.00,1.26
5361.00,1.25
5360.00,1.25
5359.00,1.24
5358.00,1.23
5357.00,1.22
5356.00,1.21
5355.00,1.21
5354.00,1.20
5353.00,1.19
5352.00,1.18
5351.00,1.17
5350.00,1.17
5349.00,1.16
5348.00,1.15
5347.00,1.14
5346.00,1.14
5345.00,1.13
5344.00,1.12
5343.00,1.11
5342.00,1.11
5341.00,1.10
5340.00,1.09
5339.00,1.09
5338.00,1.08
5337.00,1.07
5336.00,1.07
5335.00,1.06
5334.00,1.05
5333.00,1.05
5332.00,1.04
5331.00,1.04
5330.00,1.03
5329.00,1.02
5328.00,1.02
5327.00,1.01
5326.00,1.01
5325.00,1.00
5324.00,1.00
5323.00,0.99
5322.00,0.99
5321.00,0.98
5320.00,0.98
5319.00,0.97
5318.00,0.97
5317.00,0.96
5316.00,0.96
5315.00,0.95
5314.00,0.95
5313.00,0.94
5312.00,0.94
5311.00,0.93
5310.00,0.93
5309.00,0.92
5308.00,0.92
5307.00,0.91
5306.00,0.91
5305.00,0.90
5304.00,0.90
5303.00,0.89
5302.00,0.89
5301.00,0.89
5300.00,0.88
5299.00,0.88
5298.00,0.87
5297.00,0.87
5296.00,0.86
5295.00,0.86
5294.00,0.86
5293.00,0.85
5292.00,0.85
5291.00,0.85
5290.00,0.85
5289.00,0.85
5288.00,0.84
5287.00,0.84
5286.00,0.84
5285.00,0.84
5284.00,0.84
5283.00,0.84
5282.00,0.84
5281.00,0.84
5280.00,0.84
5279.00,0.84
5278.00,0.84
5277.00,0.84
5276.00,0.83
5275.00,0.83
5274.00,0.83
5273.00,0.83
5272.00,0.83
5271.00,0.83
5270.00,0.83
5269.00,0.83
5268.00,0.83
5267.00,0.83
5266.00,0.83
5265.00,0.83
5264.00,0.83
5263.00,0.83
5262.00,0.83
5261.00,0.83
5260.00,0.83
5259.00,0.83
5258.00,0.82
5257.00,0.82
5256.00,0.82
5255.00,0.82
5254.00,0.82
5253.00,0.82
5252.00,0.82
5251.00,0.82
5250.00,0.82
5249.00,0.82
5248.00,0.82
5247.00,0.82
5246.00,0.82
5245.00,0.82
5244.00,0.82
5243.00,0.82
5242.00,0.82
5241.00,0.83
5240.00,0.83
5239.00,0.83
5238.00,0.83
5237.00,0.83
5236.00,0.83
5235.00,0.84
5234.00,0.84
5233.00,0.84
5232.00,0.84
5231.00,0.84
5230.00,0.85
5229.00,0.85
5228.00,0.85
5227.00,0.85
5226.00,0.86
5225.00,0.86
5224.00,0.86
5223.00,0.86
5222.00,0.87
5221.00,0.87
5220.00,0.87
5219.00,0.87
5218.00,0.88
5217.00,0.88
5216.00,0.88
5215.00,0.88
5214.00,0.89
5213.00,0.89
5212.00,0.89
5211.00,0.89
5210.00,0.89
5209.00,0.90
5208.00,0.90
5207.00,0.90
5206.00,0.90
5205.00,0.90
5204.00,0.90
5203.00,0.91
5202.00,0.91
5201.00,0.91
5200.00,0.91
5199.00,0.91
5198.00,0.91
5197.00,0.91
5196.00,0.91
5195.00,0.91
5194.00,0.91
5193.00,0.91
5192.00,0.91
5191.00,0.91
5190.00,0.91
5189.00,0.90
5188.00,0.90
5187.00,0.90
5186.00,0.90
5185.00,0.90
5184.00,0.90
5183.00,0.90
5182.00,0.90
5181.00,0.90
5180.00,0.89
5179.00,0.89
5178.00,0.89
5177.00,0.89
5176.00,0.89
5175.00,0.89
5174.00,0.89
5173.00,0.89
5172.00,0.88
5171.00,0.88
5170.00,0.88
5169.00,0.88
5168.00,0.88
5167.00,0.88
5166.00,0.88
5165.00,0.88
5164.00,0.88
5163.00,0.88
5162.00,0.88
5161.00,0.88
5160.00,0.88
5159.00,0.88
5158.00,0.88
5157.00,0.88
5156.00,0.88
5155.00,0.88
5154.00,0.88
5153.00,0.88
5152.00,0.88
5151.00,0.88
5150.00,0.88
5149.00,0.88
5148.00,0.88
5147.00,0.88
5146.00,0.88
5145.00,0.88
5144.00,0.88
5143.00,0.88
5142.00,0.89
5141.00,0.89
5140.00,0.89
5139.00,0.89
5138.00,0.89
5137.00,0.89
5136.00,0.89
5135.00,0.89
5134.00,0.89
5133.00,0.89
5132.00,0.89
5131.00,0.90
5130.00,0.90
5129.00,0.90
5128.00,0.90
5127.00,0.90
5126.00,0.90
5125.00,0.91
5124.00,0.91
5123.00,0.91
5122.00,0.91
5121.00,0.91
5120.00,0.91
5119.00,0.92
5118.00,0.92
5117.00,0.92
5116.00,0.92
5115.00,0.92
5114.00,0.92
5113.00,0.92
5112.00,0.92
5111.00,0.92
5110.00,0.92
5109.00,0.92
5108.00,0.92
5107.00,0.92
5106.00,0.92
5105.00,0.92
5104.00,0.93
5103.00,0.93
5102.00,0.93
5101.00,0.93
5100.00,0.92
5099.00,0.92
5098.00,0.92
5097.00,0.92
5096.00,0.92
5095.00,0.92
5094.00,0.92
5093.00,0.92
5092.00,0.92
5091.00,0.92
5090.00,0.92
5089.00,0.92
5088.00,0.92
5087.00,0.92
5086.00,0.92
5085.00,0.92
5084.00,0.92
5083.00,0.91
5082.00,0.91
5081.00,0.91
5080.00,0.91
5079.00,0.91
5078.00,0.91
5077.00,0.91
5076.00,0.91
5075.00,0.91
5074.00,0.91
5073.00,0.91
5072.00,0.91
5071.00,0.92
5070.00,0.92
5069.00,0.92
5068.00,0.92
5067.00,0.92
5066.00,0.92
5065.00,0.92
5064.00,0.92
5063.00,0.92
5062.00,0.92
5061.00,0.93
5060.00,0.93
5059.00,0.93
5058.00,0.93
5057.00,0.93
5056.00,0.93
5055.00,0.93
5054.00,0.93
5053.00,0.93
5052.00,0.93
5051.00,0.93
5050.00,0.93
5049.00,0.93
5048.00,0.93
5047.00,0.93
5046.00,0.92
5045.00,0.92
5044.00,0.92
5043.00,0.92
5042.00,0.92
5041.00,0.92
5040.00,0.92
5039.00,0.92
5038.00,0.92
5037.00,0.91
5036.00,0.91
5035.00,0.91
5034.00,0.91
5033.00,0.91
5032.00,0.91
5031.00,0.91
5030.00,0.91
5029.00,0.91
5028.00,0.91
5027.00,0.91
5026.00,0.91
5025.00,0.91
5024.00,0.91
5023.00,0.91
5022.00,0.91
5021.00,0.91
5020.00,0.91
5019.00,0.91
5018.00,0.91
5017.00,0.91
5016.00,0.91
5015.00,0.92
5014.00,0.92
5013.00,0.92
5012.00,0.92
5011.00,0.92
5010.00,0.92
5009.00,0.92
5008.00,0.92
5007.00,0.92
5006.00,0.92
5005.00,0.92
5004.00,0.92
5003.00,0.92
5002.00,0.91
5001.00,0.91
5000.00,0.91
4999.00,0.91
4998.00,0.91
4997.00,0.91
4996.00,0.91
4995.00,0.91
4994.00,0.92
4993.00,0.92
4992.00,0.92
4991.00,0.92
4990.00,0.92
4989.00,0.92
4988.00,0.92
4987.00,0.92
4986.00,0.93
4985.00,0.93
4984.00,0.93
4983.00,0.93
4982.00,0.93
4981.00,0.94
4980.00,0.94
4979.00,0.94
4978.00,0.94
4977.00,0.95
4976.00,0.95
4975.00,0.95
4974.00,0.96
4973.00,0.96
4972.00,0.96
4971.00,0.96
4970.00,0.96
4969.00,0.96
4968.00,0.96
4967.00,0.97
4966.00,0.97
4965.00,0.97
4964.00,0.97
4963.00,0.97
4962.00,0.97
4961.00,0.97
4960.00,0.98
4959.00,0.98
4958.00,0.98
4957.00,0.98
4956.00,0.98
4955.00,0.98
4954.00,0.98
4953.00,0.98
4952.00,0.98
4951.00,0.98
4950.00,0.98
4949.00,0.98
4948.00,0.98
4947.00,0.98
4946.00,0.98
4945.00,0.98
4944.00,0.98
4943.00,0.98
4942.00,0.98
4941.00,0.98
4940.00,0.98
4939.00,0.98
4938.00,0.98
4937.00,0.98
4936.00,0.98
4935.00,0.97
4934.00,0.97
4933.00,0.97
4932.00,0.97
4931.00,0.97
4930.00,0.96
4929.00,0.96
4928.00,0.96
4927.00,0.96
4926.00,0.96
4925.00,0.95
4924.00,0.95
4923.00,0.95
4922.00,0.95
4921.00,0.95
4920.00,0.95
4919.00,0.95
4918.00,0.95
4917.00,0.95
4916.00,0.94
4915.00,0.94
4914.00,0.94
4913.00,0.95
4912.00,0.95
4911.00,0.95
4910.00,0.95
4909.00,0.95
4908.00,0.95
4907.00,0.95
4906.00,0.95
4905.00,0.96
4904.00,0.96
4903.00,0.96
4902.00,0.96
4901.00,0.96
4900.00,0.96
4899.00,0.96
4898.00,0.97
4897.00,0.97
4896.00,0.97
4895.00,0.97
4894.00,0.97
4893.00,0.97
4892.00,0.97
4891.00,0.97
4890.00,0.97
4889.00,0.97
4888.00,0.97
4887.00,0.97
4886.00,0.97
4885.00,0.97
4884.00,0.97
4883.00,0.97
4882.00,0.97
4881.00,0.97
4880.00,0.97
4879.00,0.97
4878.00,0.97
4877.00,0.97
4876.00,0.97
4875.00,0.97
4874.00,0.97
4873.00,0.97
4872.00,0.97
4871.00,0.97
4870.00,0.97
4869.00,0.98
4868.00,0.98
4867.00,0.98
4866.00,0.98
4865.00,0.98
4864.00,0.98
4863.00,0.99
4862.00,0.99
4861.00,0.99
4860.00,0.99
4859.00,0.99
4858.00,1.00
4857.00,1.00
4856.00,1.00
4855.00,1.00
4854.00,1.00
4853.00,1.00
4852.00,1.00
4851.00,1.01
4850.00,1.01
4849.00,1.01
4848.00,1.01
4847.00,1.01
4846.00,1.01
4845.00,1.01
4844.00,1.01
4843.00,1.01
4842.00,1.01
4841.00,1.01
4840.00,1.01
4839.00,1.01
4838.00,1.01
4837.00,1.01
4836.00,1.01
4835.00,1.01
4834.00,1.01
4833.00,1.01
4832.00,1.01
4831.00,1.01
4830.00,1.01
4829.00,1.01
4828.00,1.01
4827.00,1.01
4826.00,1.01
4825.00,1.01
4824.00,1.01
4823.00,1.02
4822.00,1.02
4821.00,1.02
4820.00,1.02
4819.00,1.02
4818.00,1.02
4817.00,1.02
4816.00,1.02
4815.00,1.02
4814.00,1.02
4813.00,1.02
4812.00,1.02
4811.00,1.02
4810.00,1.02
4809.00,1.02
4808.00,1.02
4807.00,1.02
4806.00,1.02
4805.00,1.01
4804.00,1.01
4803.00,1.01
4802.00,1.01
4801.00,1.01
4800.00,1.01
4799.00,1.01
4798.00,1.01
4797.00,1.01
4796.00,1.01
4795.00,1.01
4794.00,1.02
4793.00,1.02
4792.00,1.02
4791.00,1.02
4790.00,1.02
4789.00,1.03
4788.00,1.03
4787.00,1.03
4786.00,1.03
4785.00,1.04
4784.00,1.04
4783.00,1.04
4782.00,1.05
4781.00,1.05
4780.00,1.05
4779.00,1.06
4778.00,1.06
4777.00,1.06
4776.00,1.06
4775.00,1.07
4774.00,1.07
4773.00,1.07
4772.00,1.07
4771.00,1.08
4770.00,1.08
4769.00,1.08
4768.00,1.08
4767.00,1.09
4766.00,1.09
4765.00,1.09
4764.00,1.09
4763.00,1.10
4762.00,1.10
4761.00,1.10
4760.00,1.10
4759.00,1.11
4758.00,1.11
4757.00,1.11
4756.00,1.11
4755.00,1.12
4754.00,1.12
4753.00,1.12
4752.00,1.13
4751.00,1.13
4750.00,1.14
4749.00,1.14
4748.00,1.14
4747.00,1.15
4746.00,1.15
4745.00,1.15
4744.00,1.15
4743.00,1.15
4742.00,1.15
4741.00,1.15
4740.00,1.15
4739.00,1.15
4738.00,1.15
4737.00,1.15
4736.00,1.14
4735.00,1.14
4734.00,1.14
4733.00,1.14
4732.00,1.13
4731.00,1.13
4730.00,1.13
4729.00,1.12
4728.00,1.12
4727.00,1.12
4726.00,1.11
4725.00,1.11
4724.00,1.11
4723.00,1.11
4722.00,1.10
4721.00,1.10
4720.00,1.10
4719.00,1.10
4718.00,1.10
4717.00,1.10
4716.00,1.10
4715.00,1.10
4714.00,1.10
4713.00,1.10
4712.00,1.10
4711.00,1.10
4710.00,1.10
4709.00,1.10
4708.00,1.11
4707.00,1.11
4706.00,1.11
4705.00,1.11
4704.00,1.11
4703.00,1.11
4702.00,1.12
4701.00,1.12
4700.00,1.12
4699.00,1.12
4698.00,1.12
4697.00,1.12
4696.00,1.12
4695.00,1.12
4694.00,1.12
4693.00,1.12
4692.00,1.12
4691.00,1.12
4690.00,1.12
4689.00,1.12
4688.00,1.13
4687.00,1.13
4686.00,1.13
4685.00,1.13
4684.00,1.13
4683.00,1.13
4682.00,1.14
4681.00,1.14
4680.00,1.14
4679.00,1.14
4678.00,1.14
4677.00,1.15
4676.00,1.15
4675.00,1.15
4674.00,1.15
4673.00,1.16
4672.00,1.16
4671.00,1.16
4670.00,1.17
4669.00,1.17
4668.00,1.18
4667.00,1.18
4666.00,1.18
4665.00,1.18
4664.00,1.19
4663.00,1.19
4662.00,1.19
4661.00,1.20
4660.00,1.20
4659.00,1.20
4658.00,1.20
4657.00,1.20
4656.00,1.20
4655.00,1.20
4654.00,1.21
4653.00,1.21
4652.00,1.21
4651.00,1.21
4650.00,1.21
4649.00,1.21
4648.00,1.21
4647.00,1.21
4646.00,1.21
4645.00,1.21
4644.00,1.21
4643.00,1.21
4642.00,1.21
4641.00,1.22
4640.00,1.22
4639.00,1.22
4638.00,1.22
4637.00,1.22
4636.00,1.22
4635.00,1.22
4634.00,1.22
4633.00,1.22
4632.00,1.22
4631.00,1.22
4630.00,1.22
4629.00,1.22
4628.00,1.22
4627.00,1.22
4626.00,1.22
4625.00,1.22
4624.00,1.22
4623.00,1.22
4622.00,1.22
4621.00,1.22
4620.00,1.22
4619.00,1.21
4618.00,1.21
4617.00,1.21
4616.00,1.21
4615.00,1.21
4614.00,1.21
4613.00,1.21
4612.00,1.21
4611.00,1.21
4610.00,1.21
4609.00,1.21
4608.00,1.21
4607.00,1.21
4606.00,1.21
4605.00,1.21
4604.00,1.21
4603.00,1.21
4602.00,1.21
4601.00,1.21
4600.00,1.21
4599.00,1.21
4598.00,1.22
4597.00,1.22
4596.00,1.22
4595.00,1.22
4594.00,1.22
4593.00,1.22
4592.00,1.23
4591.00,1.23
4590.00,1.23
4589.00,1.23
4588.00,1.24
4587.00,1.24
4586.00,1.24
4585.00,1.24
4584.00,1.24
4583.00,1.24
4582.00,1.25
4581.00,1.25
4580.00,1.25
4579.00,1.25
4578.00,1.25
4577.00,1.25
4576.00,1.25
4575.00,1.25
4574.00,1.26
4573.00,1.26
4572.00,1.26
4571.00,1.26
4570.00,1.26
4569.00,1.26
4568.00,1.26
4567.00,1.26
4566.00,1.26
4565.00,1.26
4564.00,1.26
4563.00,1.26
4562.00,1.26
4561.00,1.26
4560.00,1.26
4559.00,1.26
4558.00,1.26
4557.00,1.26
4556.00,1.26
4555.00,1.26
4554.00,1.26
4553.00,1.26
4552.00,1.26
4551.00,1.26
4550.00,1.25
4549.00,1.25
4548.00,1.25
4547.00,1.25
4546.00,1.25
4545.00,1.25
4544.00,1.25
4543.00,1.24
4542.00,1.24
4541.00,1.24
4540.00,1.24
4539.00,1.24
4538.00,1.24
4537.00,1.24
4536.00,1.24
4535.00,1.24
4534.00,1.24
4533.00,1.24
4532.00,1.24
4531.00,1.24
4530.00,1.25
4529.00,1.25
4528.00,1.25
4527.00,1.25
4526.00,1.25
4525.00,1.25
4524.00,1.25
4523.00,1.26
4522.00,1.26
4521.00,1.26
4520.00,1.26
4519.00,1.27
4518.00,1.27
4517.00,1.27
4516.00,1.27
4515.00,1.28
4514.00,1.28
4513.00,1.28
4512.00,1.28
4511.00,1.28
4510.00,1.28
4509.00,1.28
4508.00,1.28
4507.00,1.28
4506.00,1.28
4505.00,1.28
4504.00,1.28
4503.00,1.27
4502.00,1.27
4501.00,1.27
4500.00,1.27
4499.00,1.27
4498.00,1.27
4497.00,1.26
4496.00,1.26
4495.00,1.26
4494.00,1.26
4493.00,1.26
4492.00,1.25
4491.00,1.25
4490.00,1.25
4489.00,1.25
4488.00,1.24
4487.00,1.24
4486.00,1.24
4485.00,1.24
4484.00,1.24
4483.00,1.24
4482.00,1.24
4481.00,1.23
4480.00,1.23
4479.00,1.23
4478.00,1.23
4477.00,1.23
4476.00,1.23
4475.00,1.23
4474.00,1.23
4473.00,1.23
4472.00,1.23
4471.00,1.23
4470.00,1.23
4469.00,1.23
4468.00,1.23
4467.00,1.23
4466.00,1.23
4465.00,1.23
4464.00,1.23
4463.00,1.23
4462.00,1.23
4461.00,1.23
4460.00,1.22
4459.00,1.22
4458.00,1.22
4457.00,1.22
4456.00,1.22
4455.00,1.21
4454.00,1.21
4453.00,1.21
4452.00,1.20
4451.00,1.20
4450.00,1.20
4449.00,1.19
4448.00,1.19
4447.00,1.18
4446.00,1.18
4445.00,1.17
4444.00,1.17
4443.00,1.17
4442.00,1.16
4441.00,1.16
4440.00,1.15
4439.00,1.15
4438.00,1.14
4437.00,1.14
4436.00,1.13
4435.00,1.13
4434.00,1.12
4433.00,1.12
4432.00,1.12
4431.00,1.11
4430.00,1.11
4429.00,1.11
4428.00,1.11
4427.00,1.11
4426.00,1.10
4425.00,1.10
4424.00,1.10
4423.00,1.10
4422.00,1.10
4421.00,1.10
4420.00,1.10
4419.00,1.10
4418.00,1.10
4417.00,1.10
4416.00,1.11
4415.00,1.11
4414.00,1.11
4413.00,1.11
4412.00,1.11
4411.00,1.11
4410.00,1.11
4409.00,1.11
4408.00,1.12
4407.00,1.12
4406.00,1.12
4405.00,1.12
4404.00,1.12
4403.00,1.12
4402.00,1.12
4401.00,1.12
4400.00,1.12
4399.00,1.12
4398.00,1.12
4397.00,1.12
4396.00,1.12
4395.00,1.12
4394.00,1.12
4393.00,1.12
4392.00,1.12
4391.00,1.13
4390.00,1.13
4389.00,1.13
4388.00,1.13
4387.00,1.13
4386.00,1.13
4385.00,1.13
4384.00,1.13
4383.00,1.13
4382.00,1.14
4381.00,1.14
4380.00,1.14
4379.00,1.14
4378.00,1.14
4377.00,1.14
4376.00,1.14
4375.00,1.14
4374.00,1.14
4373.00,1.14
4372.00,1.14
4371.00,1.14
4370.00,1.14
4369.00,1.14
4368.00,1.14
4367.00,1.14
4366.00,1.14
4365.00,1.14
4364.00,1.14
4363.00,1.14
4362.00,1.14
4361.00,1.14
4360.00,1.13
4359.00,1.13
4358.00,1.13
4357.00,1.13
4356.00,1.13
4355.00,1.13
4354.00,1.13
4353.00,1.13
4352.00,1.13
4351.00,1.13
4350.00,1.13
4349.00,1.13
4348.00,1.13
4347.00,1.13
4346.00,1.13
4345.00,1.13
4344.00,1.13
4343.00,1.13
4342.00,1.13
4341.00,1.13
4340.00,1.13
4339.00,1.13
4338.00,1.13
4337.00,1.13
4336.00,1.13
4335.00,1.13
4334.00,1.13
4333.00,1.13
4332.00,1.13
4331.00,1.13
4330.00,1.13
4329.00,1.13
4328.00,1.14
4327.00,1.14
4326.00,1.14
4325.00,1.14
4324.00,1.14
4323.00,1.14
4322.00,1.13
4321.00,1.13
4320.00,1.13
4319.00,1.13
4318.00,1.13
4317.00,1.13
4316.00,1.13
4315.00,1.13
4314.00,1.13
4313.00,1.13
4312.00,1.13
4311.00,1.13
4310.00,1.13
4309.00,1.13
4308.00,1.14
4307.00,1.14
4306.00,1.14
4305.00,1.14
4304.00,1.14
4303.00,1.14
4302.00,1.14
4301.00,1.14
4300.00,1.14
4299.00,1.14
4298.00,1.15
4297.00,1.15
4296.00,1.15
4295.00,1.15
4294.00,1.16
4293.00,1.16
4292.00,1.17
4291.00,1.17
4290.00,1.17
4289.00,1.18
4288.00,1.18
4287.00,1.18
4286.00,1.18
4285.00,1.19
4284.00,1.19
4283.00,1.19
4282.00,1.20
4281.00,1.20
4280.00,1.20
4279.00,1.20
4278.00,1.21
4277.00,1.21
4276.00,1.21
4275.00,1.21
4274.00,1.21
4273.00,1.21
4272.00,1.21
4271.00,1.21
4270.00,1.21
4269.00,1.21
4268.00,1.20
4267.00,1.20
4266.00,1.19
4265.00,1.19
4264.00,1.19
4263.00,1.18
4262.00,1.18
4261.00,1.18
4260.00,1.18
4259.00,1.17
4258.00,1.17
4257.00,1.17
4256.00,1.17
4255.00,1.17
4254.00,1.16
4253.00,1.16
4252.00,1.16
4251.00,1.16
4250.00,1.16
4249.00,1.16
4248.00,1.16
4247.00,1.16
4246.00,1.16
4245.00,1.16
4244.00,1.16
4243.00,1.16
4242.00,1.17
4241.00,1.17
4240.00,1.17
4239.00,1.17
4238.00,1.18
4237.00,1.18
4236.00,1.18
4235.00,1.18
4234.00,1.18
4233.00,1.19
4232.00,1.19
4231.00,1.19
4230.00,1.19
4229.00,1.20
4228.00,1.20
4227.00,1.20
4226.00,1.20
4225.00,1.21
4224.00,1.21
4223.00,1.21
4222.00,1.21
4221.00,1.22
4220.00,1.22
4219.00,1.22
4218.00,1.22
4217.00,1.22
4216.00,1.22
4215.00,1.22
4214.00,1.23
4213.00,1.23
4212.00,1.23
4211.00,1.23
4210.00,1.23
4209.00,1.23
4208.00,1.23
4207.00,1.23
4206.00,1.23
4205.00,1.23
4204.00,1.23
4203.00,1.23
4202.00,1.22
4201.00,1.22
4200.00,1.22
4199.00,1.22
4198.00,1.21
4197.00,1.21
4196.00,1.21
4195.00,1.20
4194.00,1.20
4193.00,1.20
4192.00,1.20
4191.00,1.20
4190.00,1.20
4189.00,1.20
4188.00,1.20
4187.00,1.20
4186.00,1.19
4185.00,1.19
4184.00,1.19
4183.00,1.19
4182.00,1.19
4181.00,1.19
4180.00,1.19
4179.00,1.19
4178.00,1.19
4177.00,1.20
4176.00,1.20
4175.00,1.20
4174.00,1.20
4173.00,1.21
4172.00,1.21
4171.00,1.21
4170.00,1.22
4169.00,1.22
4168.00,1.22
4167.00,1.22
4166.00,1.22
4165.00,1.23
4164.00,1.23
4163.00,1.23
4162.00,1.23
4161.00,1.23
4160.00,1.23
4159.00,1.23
4158.00,1.23
4157.00,1.23
4156.00,1.23
4155.00,1.23
4154.00,1.23
4153.00,1.23
4152.00,1.23
4151.00,1.23
4150.00,1.23
4149.00,1.23
4148.00,1.23
4147.00,1.23
4146.00,1.23
4145.00,1.23
4144.00,1.22
4143.00,1.22
4142.00,1.22
4141.00,1.22
4140.00,1.22
4139.00,1.22
4138.00,1.22
4137.00,1.21
4136.00,1.21
4135.00,1.21
4134.00,1.21
4133.00,1.21
4132.00,1.21
4131.00,1.21
4130.00,1.21
4129.00,1.20
4128.00,1.20
4127.00,1.20
4126.00,1.20
4125.00,1.19
4124.00,1.19
4123.00,1.19
4122.00,1.19
4121.00,1.18
4120.00,1.18
4119.00,1.18
4118.00,1.17
4117.00,1.17
4116.00,1.17
4115.00,1.17
4114.00,1.17
4113.00,1.17
4112.00,1.17
4111.00,1.17
4110.00,1.17
4109.00,1.17
4108.00,1.17
4107.00,1.17
4106.00,1.17
4105.00,1.17
4104.00,1.17
4103.00,1.17
4102.00,1.17
4101.00,1.17
4100.00,1.18
4099.00,1.18
4098.00,1.18
4097.00,1.19
4096.00,1.19
4095.00,1.19
4094.00,1.20
4093.00,1.20
4092.00,1.21
4091.00,1.21
4090.00,1.21
4089.00,1.21
4088.00,1.22
4087.00,1.22
4086.00,1.22
4085.00,1.22
4084.00,1.23
4083.00,1.23
4082.00,1.23
4081.00,1.23
4080.00,1.24
4079.00,1.24
4078.00,1.24
4077.00,1.24
4076.00,1.25
4075.00,1.25
4074.00,1.25
4073.00,1.25
4072.00,1.25
4071.00,1.25
4070.00,1.25
4069.00,1.25
4068.00,1.25
4067.00,1.25
4066.00,1.26
4065.00,1.26
4064.00,1.26
4063.00,1.26
4062.00,1.26
4061.00,1.26
4060.00,1.26
4059.00,1.27
4058.00,1.27
4057.00,1.27
4056.00,1.27
4055.00,1.27
4054.00,1.28
4053.00,1.28
4052.00,1.28
4051.00,1.28
4050.00,1.28
4049.00,1.29
4048.00,1.29
4047.00,1.29
4046.00,1.29
4045.00,1.29
4044.00,1.30
4043.00,1.30
4042.00,1.30
4041.00,1.31
4040.00,1.31
4039.00,1.32
4038.00,1.32
4037.00,1.32
4036.00,1.33
4035.00,1.33
4034.00,1.34
4033.00,1.34
4032.00,1.35
4031.00,1.35
4030.00,1.36
4029.00,1.36
4028.00,1.37
4027.00,1.37
4026.00,1.38
4025.00,1.39
4024.00,1.39
4023.00,1.40
4022.00,1.41
4021.00,1.41
4020.00,1.42
4019.00,1.43
4018.00,1.44
4017.00,1.44
4016.00,1.45
4015.00,1.46
4014.00,1.46
4013.00,1.47
4012.00,1.48
4011.00,1.49
4010.00,1.49
4009.00,1.50
4008.00,1.51
4007.00,1.52
4006.00,1.52
4005.00,1.53
4004.00,1.54
4003.00,1.54
4002.00,1.55
4001.00,1.56
4000.00,1.56
