创建为新数据集,样品 005 用户 Administrator 日期 星期五, 七月 26 2019
cm-1,%T
10000.00,2.13
9999.00,2.09
9998.00,2.04
9997.00,2.00
9996.00,1.96
9995.00,1.92
9994.00,1.88
9993.00,1.85
9992.00,1.81
9991.00,1.78
9990.00,1.75
9989.00,1.72
9988.00,1.69
9987.00,1.66
9986.00,1.64
9985.00,1.61
9984.00,1.59
9983.00,1.58
9982.00,1.56
9981.00,1.54
9980.00,1.53
9979.00,1.52
9978.00,1.50
9977.00,1.49
9976.00,1.48
9975.00,1.47
9974.00,1.47
9973.00,1.46
9972.00,1.45
9971.00,1.45
9970.00,1.44
9969.00,1.44
9968.00,1.44
9967.00,1.43
9966.00,1.43
9965.00,1.43
9964.00,1.43
9963.00,1.42
9962.00,1.42
9961.00,1.42
9960.00,1.42
9959.00,1.41
9958.00,1.41
9957.00,1.40
9956.00,1.40
9955.00,1.40
9954.00,1.40
9953.00,1.39
9952.00,1.39
9951.00,1.39
9950.00,1.39
9949.00,1.39
9948.00,1.39
9947.00,1.40
9946.00,1.40
9945.00,1.40
9944.00,1.40
9943.00,1.40
9942.00,1.40
9941.00,1.40
9940.00,1.40
9939.00,1.40
9938.00,1.40
9937.00,1.39
9936.00,1.39
9935.00,1.39
9934.00,1.39
9933.00,1.39
9932.00,1.39
9931.00,1.39
9930.00,1.39
9929.00,1.39
9928.00,1.39
9927.00,1.39
9926.00,1.39
9925.00,1.39
9924.00,1.38
9923.00,1.38
9922.00,1.38
9921.00,1.37
9920.00,1.37
9919.00,1.37
9918.00,1.36
9917.00,1.36
9916.00,1.35
9915.00,1.35
9914.00,1.35
9913.00,1.34
9912.00,1.34
9911.00,1.33
9910.00,1.33
9909.00,1.32
9908.00,1.32
9907.00,1.31
9906.00,1.31
9905.00,1.31
9904.00,1.30
9903.00,1.30
9902.00,1.30
9901.00,1.29
9900.00,1.29
9899.00,1.29
9898.00,1.29
9897.00,1.28
9896.00,1.28
9895.00,1.28
9894.00,1.28
9893.00,1.28
9892.00,1.28
9891.00,1.28
9890.00,1.28
9889.00,1.28
9888.00,1.28
9887.00,1.28
9886.00,1.29
9885.00,1.29
9884.00,1.29
9883.00,1.29
9882.00,1.30
9881.00,1.30
9880.00,1.30
9879.00,1.31
9878.00,1.31
9877.00,1.31
9876.00,1.31
9875.00,1.31
9874.00,1.32
9873.00,1.32
9872.00,1.32
9871.00,1.32
9870.00,1.33
9869.00,1.33
9868.00,1.33
9867.00,1.34
9866.00,1.34
9865.00,1.34
9864.00,1.34
9863.00,1.35
9862.00,1.35
9861.00,1.35
9860.00,1.35
9859.00,1.36
9858.00,1.36
9857.00,1.36
9856.00,1.37
9855.00,1.37
9854.00,1.37
9853.00,1.37
9852.00,1.38
9851.00,1.38
9850.00,1.38
9849.00,1.39
9848.00,1.39
9847.00,1.39
9846.00,1.39
9845.00,1.39
9844.00,1.39
9843.00,1.39
9842.00,1.39
9841.00,1.38
9840.00,1.38
9839.00,1.37
9838.00,1.37
9837.00,1.36
9836.00,1.35
9835.00,1.35
9834.00,1.34
9833.00,1.33
9832.00,1.32
9831.00,1.31
9830.00,1.30
9829.00,1.29
9828.00,1.28
9827.00,1.27
9826.00,1.26
9825.00,1.24
9824.00,1.23
9823.00,1.22
9822.00,1.21
9821.00,1.20
9820.00,1.18
9819.00,1.17
9818.00,1.16
9817.00,1.15
9816.00,1.14
9815.00,1.13
9814.00,1.13
9813.00,1.12
9812.00,1.11
9811.00,1.11
9810.00,1.10
9809.00,1.10
9808.00,1.10
9807.00,1.10
9806.00,1.10
9805.00,1.09
9804.00,1.09
9803.00,1.09
9802.00,1.09
9801.00,1.09
9800.00,1.09
9799.00,1.09
9798.00,1.09
9797.00,1.09
9796.00,1.09
9795.00,1.10
9794.00,1.10
9793.00,1.10
9792.00,1.11
9791.00,1.11
9790.00,1.11
9789.00,1.12
9788.00,1.12
9787.00,1.12
9786.00,1.13
9785.00,1.13
9784.00,1.13
9783.00,1.14
9782.00,1.14
9781.00,1.14
9780.00,1.14
9779.00,1.15
9778.00,1.15
9777.00,1.15
9776.00,1.16
9775.00,1.16
9774.00,1.16
9773.00,1.17
9772.00,1.17
9771.00,1.18
9770.00,1.18
9769.00,1.19
9768.00,1.19
9767.00,1.20
9766.00,1.20
9765.00,1.21
9764.00,1.21
9763.00,1.21
9762.00,1.22
9761.00,1.22
9760.00,1.23
9759.00,1.23
9758.00,1.23
9757.00,1.24
9756.00,1.24
9755.00,1.24
9754.00,1.24
9753.00,1.25
9752.00,1.25
9751.00,1.25
9750.00,1.25
9749.00,1.25
9748.00,1.25
9747.00,1.25
9746.00,1.25
9745.00,1.25
9744.00,1.25
9743.00,1.24
9742.00,1.24
9741.00,1.24
9740.00,1.23
9739.00,1.23
9738.00,1.23
9737.00,1.22
9736.00,1.22
9735.00,1.22
9734.00,1.21
9733.00,1.21
9732.00,1.21
9731.00,1.21
9730.00,1.20
9729.00,1.20
9728.00,1.20
9727.00,1.20
9726.00,1.20
9725.00,1.20
9724.00,1.20
9723.00,1.20
9722.00,1.20
9721.00,1.20
9720.00,1.20
9719.00,1.20
9718.00,1.20
9717.00,1.21
9716.00,1.21
9715.00,1.21
9714.00,1.22
9713.00,1.22
9712.00,1.23
9711.00,1.23
9710.00,1.23
9709.00,1.24
9708.00,1.24
9707.00,1.25
9706.00,1.25
9705.00,1.25
9704.00,1.25
9703.00,1.25
9702.00,1.25
9701.00,1.25
9700.00,1.25
9699.00,1.25
9698.00,1.25
9697.00,1.24
9696.00,1.24
9695.00,1.23
9694.00,1.22
9693.00,1.21
9692.00,1.20
9691.00,1.19
9690.00,1.18
9689.00,1.17
9688.00,1.16
9687.00,1.15
9686.00,1.14
9685.00,1.13
9684.00,1.12
9683.00,1.11
9682.00,1.10
9681.00,1.09
9680.00,1.08
9679.00,1.07
9678.00,1.06
9677.00,1.06
9676.00,1.05
9675.00,1.05
9674.00,1.05
9673.00,1.04
9672.00,1.04
9671.00,1.05
9670.00,1.05
9669.00,1.05
9668.00,1.06
9667.00,1.06
9666.00,1.07
9665.00,1.08
9664.00,1.08
9663.00,1.09
9662.00,1.10
9661.00,1.11
9660.00,1.11
9659.00,1.12
9658.00,1.13
9657.00,1.14
9656.00,1.15
9655.00,1.15
9654.00,1.16
9653.00,1.17
9652.00,1.17
9651.00,1.18
9650.00,1.18
9649.00,1.19
9648.00,1.19
9647.00,1.19
9646.00,1.19
9645.00,1.20
9644.00,1.20
9643.00,1.20
9642.00,1.20
9641.00,1.20
9640.00,1.20
9639.00,1.20
9638.00,1.20
9637.00,1.20
9636.00,1.20
9635.00,1.20
9634.00,1.20
9633.00,1.20
9632.00,1.20
9631.00,1.20
9630.00,1.20
9629.00,1.19
9628.00,1.19
9627.00,1.19
9626.00,1.19
9625.00,1.18
9624.00,1.18
9623.00,1.18
9622.00,1.18
9621.00,1.17
9620.00,1.17
9619.00,1.17
9618.00,1.17
9617.00,1.16
9616.00,1.16
9615.00,1.16
9614.00,1.16
9613.00,1.15
9612.00,1.15
9611.00,1.15
9610.00,1.15
9609.00,1.15
9608.00,1.14
9607.00,1.14
9606.00,1.14
9605.00,1.14
9604.00,1.14
9603.00,1.14
9602.00,1.14
9601.00,1.14
9600.00,1.15
9599.00,1.15
9598.00,1.15
9597.00,1.16
9596.00,1.16
9595.00,1.17
9594.00,1.17
9593.00,1.17
9592.00,1.18
9591.00,1.18
9590.00,1.19
9589.00,1.19
9588.00,1.19
9587.00,1.20
9586.00,1.20
9585.00,1.20
9584.00,1.21
9583.00,1.21
9582.00,1.21
9581.00,1.21
9580.00,1.21
9579.00,1.21
9578.00,1.21
9577.00,1.21
9576.00,1.21
9575.00,1.21
9574.00,1.21
9573.00,1.21
9572.00,1.20
9571.00,1.20
9570.00,1.20
9569.00,1.20
9568.00,1.20
9567.00,1.19
9566.00,1.19
9565.00,1.19
9564.00,1.19
9563.00,1.19
9562.00,1.19
9561.00,1.19
9560.00,1.19
9559.00,1.18
9558.00,1.18
9557.00,1.19
9556.00,1.19
9555.00,1.19
9554.00,1.19
9553.00,1.19
9552.00,1.20
9551.00,1.20
9550.00,1.20
9549.00,1.21
9548.00,1.21
9547.00,1.22
9546.00,1.23
9545.00,1.23
9544.00,1.24
9543.00,1.25
9542.00,1.25
9541.00,1.26
9540.00,1.26
9539.00,1.27
9538.00,1.28
9537.00,1.28
9536.00,1.29
9535.00,1.30
9534.00,1.30
9533.00,1.31
9532.00,1.31
9531.00,1.32
9530.00,1.32
9529.00,1.33
9528.00,1.33
9527.00,1.33
9526.00,1.34
9525.00,1.34
9524.00,1.34
9523.00,1.34
9522.00,1.34
9521.00,1.34
9520.00,1.34
9519.00,1.34
9518.00,1.34
9517.00,1.34
9516.00,1.34
9515.00,1.34
9514.00,1.34
9513.00,1.34
9512.00,1.34
9511.00,1.34
9510.00,1.33
9509.00,1.33
9508.00,1.33
9507.00,1.33
9506.00,1.33
9505.00,1.33
9504.00,1.33
9503.00,1.33
9502.00,1.33
9501.00,1.33
9500.00,1.33
9499.00,1.33
9498.00,1.33
9497.00,1.33
9496.00,1.33
9495.00,1.33
9494.00,1.33
9493.00,1.33
9492.00,1.33
9491.00,1.33
9490.00,1.32
9489.00,1.32
9488.00,1.32
9487.00,1.32
9486.00,1.32
9485.00,1.32
9484.00,1.31
9483.00,1.31
9482.00,1.31
9481.00,1.30
9480.00,1.30
9479.00,1.29
9478.00,1.29
9477.00,1.29
9476.00,1.28
9475.00,1.28
9474.00,1.27
9473.00,1.27
9472.00,1.26
9471.00,1.26
9470.00,1.25
9469.00,1.25
9468.00,1.24
9467.00,1.24
9466.00,1.23
9465.00,1.22
9464.00,1.22
9463.00,1.21
9462.00,1.21
9461.00,1.20
9460.00,1.20
9459.00,1.19
9458.00,1.19
9457.00,1.18
9456.00,1.18
9455.00,1.17
9454.00,1.17
9453.00,1.16
9452.00,1.16
9451.00,1.16
9450.00,1.16
9449.00,1.15
9448.00,1.15
9447.00,1.15
9446.00,1.15
9445.00,1.15
9444.00,1.15
9443.00,1.15
9442.00,1.15
9441.00,1.16
9440.00,1.16
9439.00,1.16
9438.00,1.17
9437.00,1.17
9436.00,1.18
9435.00,1.18
9434.00,1.19
9433.00,1.20
9432.00,1.20
9431.00,1.21
9430.00,1.22
9429.00,1.22
9428.00,1.23
9427.00,1.23
9426.00,1.24
9425.00,1.24
9424.00,1.25
9423.00,1.25
9422.00,1.26
9421.00,1.26
9420.00,1.26
9419.00,1.27
9418.00,1.27
9417.00,1.27
9416.00,1.28
9415.00,1.28
9414.00,1.28
9413.00,1.28
9412.00,1.29
9411.00,1.29
9410.00,1.29
9409.00,1.29
9408.00,1.29
9407.00,1.29
9406.00,1.30
9405.00,1.30
9404.00,1.30
9403.00,1.30
9402.00,1.30
9401.00,1.30
9400.00,1.30
9399.00,1.30
9398.00,1.30
9397.00,1.30
9396.00,1.30
9395.00,1.30
9394.00,1.29
9393.00,1.29
9392.00,1.29
9391.00,1.28
9390.00,1.28
9389.00,1.27
9388.00,1.27
9387.00,1.26
9386.00,1.25
9385.00,1.24
9384.00,1.24
9383.00,1.23
9382.00,1.22
9381.00,1.21
9380.00,1.20
9379.00,1.19
9378.00,1.18
9377.00,1.17
9376.00,1.16
9375.00,1.16
9374.00,1.15
9373.00,1.14
9372.00,1.14
9371.00,1.13
9370.00,1.13
9369.00,1.12
9368.00,1.12
9367.00,1.12
9366.00,1.12
9365.00,1.12
9364.00,1.12
9363.00,1.12
9362.00,1.12
9361.00,1.12
9360.00,1.12
9359.00,1.13
9358.00,1.13
9357.00,1.14
9356.00,1.14
9355.00,1.15
9354.00,1.15
9353.00,1.16
9352.00,1.16
9351.00,1.17
9350.00,1.17
9349.00,1.18
9348.00,1.18
9347.00,1.19
9346.00,1.19
9345.00,1.19
9344.00,1.20
9343.00,1.20
9342.00,1.20
9341.00,1.21
9340.00,1.21
9339.00,1.21
9338.00,1.21
9337.00,1.21
9336.00,1.21
9335.00,1.21
9334.00,1.21
9333.00,1.21
9332.00,1.20
9331.00,1.20
9330.00,1.19
9329.00,1.19
9328.00,1.18
9327.00,1.18
9326.00,1.17
9325.00,1.17
9324.00,1.16
9323.00,1.16
9322.00,1.15
9321.00,1.15
9320.00,1.15
9319.00,1.14
9318.00,1.14
9317.00,1.14
9316.00,1.14
9315.00,1.14
9314.00,1.14
9313.00,1.14
9312.00,1.14
9311.00,1.14
9310.00,1.14
9309.00,1.14
9308.00,1.14
9307.00,1.14
9306.00,1.14
9305.00,1.15
9304.00,1.15
9303.00,1.15
9302.00,1.16
9301.00,1.16
9300.00,1.16
9299.00,1.17
9298.00,1.17
9297.00,1.17
9296.00,1.18
9295.00,1.18
9294.00,1.18
9293.00,1.19
9292.00,1.19
9291.00,1.19
9290.00,1.19
9289.00,1.19
9288.00,1.18
9287.00,1.18
9286.00,1.18
9285.00,1.18
9284.00,1.18
9283.00,1.18
9282.00,1.18
9281.00,1.18
9280.00,1.18
9279.00,1.18
9278.00,1.18
9277.00,1.18
9276.00,1.18
9275.00,1.18
9274.00,1.18
9273.00,1.19
9272.00,1.19
9271.00,1.19
9270.00,1.19
9269.00,1.19
9268.00,1.19
9267.00,1.19
9266.00,1.19
9265.00,1.19
9264.00,1.19
9263.00,1.20
9262.00,1.20
9261.00,1.20
9260.00,1.20
9259.00,1.21
9258.00,1.21
9257.00,1.22
9256.00,1.22
9255.00,1.23
9254.00,1.23
9253.00,1.23
9252.00,1.24
9251.00,1.24
9250.00,1.25
9249.00,1.25
9248.00,1.26
9247.00,1.26
9246.00,1.27
9245.00,1.27
9244.00,1.28
9243.00,1.29
9242.00,1.29
9241.00,1.30
9240.00,1.31
9239.00,1.31
9238.00,1.32
9237.00,1.33
9236.00,1.33
9235.00,1.34
9234.00,1.34
9233.00,1.34
9232.00,1.35
9231.00,1.35
9230.00,1.35
9229.00,1.35
9228.00,1.35
9227.00,1.35
9226.00,1.35
9225.00,1.35
9224.00,1.34
9223.00,1.34
9222.00,1.33
9221.00,1.33
9220.00,1.32
9219.00,1.32
9218.00,1.31
9217.00,1.30
9216.00,1.30
9215.00,1.29
9214.00,1.28
9213.00,1.27
9212.00,1.26
9211.00,1.26
9210.00,1.25
9209.00,1.24
9208.00,1.24
9207.00,1.23
9206.00,1.23
9205.00,1.22
9204.00,1.22
9203.00,1.21
9202.00,1.21
9201.00,1.20
9200.00,1.20
9199.00,1.20
9198.00,1.19
9197.00,1.19
9196.00,1.19
9195.00,1.19
9194.00,1.19
9193.00,1.19
9192.00,1.19
9191.00,1.20
9190.00,1.20
9189.00,1.20
9188.00,1.20
9187.00,1.21
9186.00,1.21
9185.00,1.21
9184.00,1.21
9183.00,1.21
9182.00,1.21
9181.00,1.21
9180.00,1.21
9179.00,1.21
9178.00,1.21
9177.00,1.22
9176.00,1.22
9175.00,1.22
9174.00,1.22
9173.00,1.22
9172.00,1.22
9171.00,1.22
9170.00,1.21
9169.00,1.21
9168.00,1.21
9167.00,1.21
9166.00,1.20
9165.00,1.20
9164.00,1.19
9163.00,1.19
9162.00,1.19
9161.00,1.18
9160.00,1.18
9159.00,1.18
9158.00,1.17
9157.00,1.17
9156.00,1.17
9155.00,1.17
9154.00,1.16
9153.00,1.16
9152.00,1.16
9151.00,1.15
9150.00,1.15
9149.00,1.15
9148.00,1.15
9147.00,1.15
9146.00,1.15
9145.00,1.15
9144.00,1.15
9143.00,1.15
9142.00,1.16
9141.00,1.16
9140.00,1.16
9139.00,1.17
9138.00,1.17
9137.00,1.18
9136.00,1.18
9135.00,1.19
9134.00,1.19
9133.00,1.20
9132.00,1.20
9131.00,1.21
9130.00,1.21
9129.00,1.22
9128.00,1.22
9127.00,1.23
9126.00,1.23
9125.00,1.24
9124.00,1.24
9123.00,1.25
9122.00,1.25
9121.00,1.26
9120.00,1.26
9119.00,1.26
9118.00,1.26
9117.00,1.27
9116.00,1.27
9115.00,1.27
9114.00,1.27
9113.00,1.27
9112.00,1.26
9111.00,1.26
9110.00,1.26
9109.00,1.26
9108.00,1.25
9107.00,1.25
9106.00,1.25
9105.00,1.24
9104.00,1.24
9103.00,1.24
9102.00,1.23
9101.00,1.23
9100.00,1.22
9099.00,1.22
9098.00,1.21
9097.00,1.21
9096.00,1.20
9095.00,1.20
9094.00,1.20
9093.00,1.19
9092.00,1.19
9091.00,1.18
9090.00,1.18
9089.00,1.18
9088.00,1.17
9087.00,1.17
9086.00,1.17
9085.00,1.17
9084.00,1.17
9083.00,1.17
9082.00,1.17
9081.00,1.17
9080.00,1.17
9079.00,1.17
9078.00,1.17
9077.00,1.17
9076.00,1.17
9075.00,1.17
9074.00,1.18
9073.00,1.18
9072.00,1.18
9071.00,1.18
9070.00,1.19
9069.00,1.19
9068.00,1.19
9067.00,1.19
9066.00,1.20
9065.00,1.20
9064.00,1.21
9063.00,1.21
9062.00,1.21
9061.00,1.22
9060.00,1.22
9059.00,1.22
9058.00,1.23
9057.00,1.23
9056.00,1.23
9055.00,1.23
9054.00,1.23
9053.00,1.23
9052.00,1.24
9051.00,1.24
9050.00,1.24
9049.00,1.24
9048.00,1.24
9047.00,1.24
9046.00,1.24
9045.00,1.25
9044.00,1.25
9043.00,1.25
9042.00,1.25
9041.00,1.26
9040.00,1.26
9039.00,1.26
9038.00,1.26
9037.00,1.26
9036.00,1.26
9035.00,1.27
9034.00,1.27
9033.00,1.27
9032.00,1.27
9031.00,1.27
9030.00,1.28
9029.00,1.28
9028.00,1.28
9027.00,1.29
9026.00,1.29
9025.00,1.30
9024.00,1.30
9023.00,1.30
9022.00,1.30
9021.00,1.30
9020.00,1.31
9019.00,1.31
9018.00,1.31
9017.00,1.30
9016.00,1.30
9015.00,1.30
9014.00,1.30
9013.00,1.30
9012.00,1.30
9011.00,1.30
9010.00,1.29
9009.00,1.29
9008.00,1.29
9007.00,1.29
9006.00,1.28
9005.00,1.28
9004.00,1.28
9003.00,1.28
9002.00,1.27
9001.00,1.27
9000.00,1.27
8999.00,1.26
8998.00,1.26
8997.00,1.26
8996.00,1.26
8995.00,1.26
8994.00,1.26
8993.00,1.26
8992.00,1.26
8991.00,1.26
8990.00,1.26
8989.00,1.26
8988.00,1.26
8987.00,1.26
8986.00,1.27
8985.00,1.27
8984.00,1.27
8983.00,1.27
8982.00,1.27
8981.00,1.27
8980.00,1.27
8979.00,1.27
8978.00,1.27
8977.00,1.27
8976.00,1.27
8975.00,1.27
8974.00,1.27
8973.00,1.27
8972.00,1.26
8971.00,1.26
8970.00,1.26
8969.00,1.25
8968.00,1.25
8967.00,1.24
8966.00,1.23
8965.00,1.23
8964.00,1.22
8963.00,1.22
8962.00,1.21
8961.00,1.21
8960.00,1.20
8959.00,1.20
8958.00,1.19
8957.00,1.19
8956.00,1.19
8955.00,1.18
8954.00,1.18
8953.00,1.18
8952.00,1.17
8951.00,1.17
8950.00,1.17
8949.00,1.17
8948.00,1.17
8947.00,1.18
8946.00,1.18
8945.00,1.18
8944.00,1.19
8943.00,1.19
8942.00,1.20
8941.00,1.20
8940.00,1.21
8939.00,1.21
8938.00,1.21
8937.00,1.22
8936.00,1.22
8935.00,1.22
8934.00,1.23
8933.00,1.23
8932.00,1.23
8931.00,1.24
8930.00,1.24
8929.00,1.24
8928.00,1.25
8927.00,1.25
8926.00,1.25
8925.00,1.26
8924.00,1.26
8923.00,1.26
8922.00,1.26
8921.00,1.26
8920.00,1.26
8919.00,1.26
8918.00,1.26
8917.00,1.26
8916.00,1.26
8915.00,1.25
8914.00,1.25
8913.00,1.25
8912.00,1.25
8911.00,1.25
8910.00,1.25
8909.00,1.25
8908.00,1.25
8907.00,1.25
8906.00,1.25
8905.00,1.24
8904.00,1.24
8903.00,1.24
8902.00,1.24
8901.00,1.23
8900.00,1.23
8899.00,1.23
8898.00,1.22
8897.00,1.22
8896.00,1.22
8895.00,1.22
8894.00,1.22
8893.00,1.22
8892.00,1.21
8891.00,1.21
8890.00,1.21
8889.00,1.22
8888.00,1.22
8887.00,1.22
8886.00,1.22
8885.00,1.22
8884.00,1.22
8883.00,1.22
8882.00,1.22
8881.00,1.23
8880.00,1.23
8879.00,1.23
8878.00,1.23
8877.00,1.24
8876.00,1.24
8875.00,1.25
8874.00,1.25
8873.00,1.25
8872.00,1.26
8871.00,1.26
8870.00,1.26
8869.00,1.27
8868.00,1.27
8867.00,1.27
8866.00,1.27
8865.00,1.27
8864.00,1.27
8863.00,1.27
8862.00,1.27
8861.00,1.27
8860.00,1.27
8859.00,1.26
8858.00,1.26
8857.00,1.26
8856.00,1.26
8855.00,1.26
8854.00,1.25
8853.00,1.25
8852.00,1.25
8851.00,1.25
8850.00,1.25
8849.00,1.24
8848.00,1.24
8847.00,1.24
8846.00,1.24
8845.00,1.24
8844.00,1.23
8843.00,1.23
8842.00,1.23
8841.00,1.23
8840.00,1.23
8839.00,1.23
8838.00,1.24
8837.00,1.24
8836.00,1.24
8835.00,1.25
8834.00,1.25
8833.00,1.25
8832.00,1.26
8831.00,1.26
8830.00,1.26
8829.00,1.27
8828.00,1.27
8827.00,1.27
8826.00,1.27
8825.00,1.27
8824.00,1.27
8823.00,1.27
8822.00,1.27
8821.00,1.27
8820.00,1.27
8819.00,1.27
8818.00,1.27
8817.00,1.27
8816.00,1.27
8815.00,1.27
8814.00,1.26
8813.00,1.26
8812.00,1.25
8811.00,1.25
8810.00,1.24
8809.00,1.23
8808.00,1.22
8807.00,1.22
8806.00,1.21
8805.00,1.20
8804.00,1.20
8803.00,1.19
8802.00,1.18
8801.00,1.18
8800.00,1.17
8799.00,1.17
8798.00,1.17
8797.00,1.16
8796.00,1.16
8795.00,1.16
8794.00,1.15
8793.00,1.15
8792.00,1.15
8791.00,1.15
8790.00,1.15
8789.00,1.15
8788.00,1.15
8787.00,1.15
8786.00,1.16
8785.00,1.16
8784.00,1.16
8783.00,1.17
8782.00,1.17
8781.00,1.17
8780.00,1.18
8779.00,1.18
8778.00,1.19
8777.00,1.19
8776.00,1.20
8775.00,1.20
8774.00,1.20
8773.00,1.21
8772.00,1.21
8771.00,1.21
8770.00,1.21
8769.00,1.21
8768.00,1.21
8767.00,1.21
8766.00,1.21
8765.00,1.21
8764.00,1.21
8763.00,1.21
8762.00,1.21
8761.00,1.21
8760.00,1.21
8759.00,1.21
8758.00,1.21
8757.00,1.21
8756.00,1.21
8755.00,1.21
8754.00,1.20
8753.00,1.20
8752.00,1.20
8751.00,1.20
8750.00,1.20
8749.00,1.20
8748.00,1.20
8747.00,1.20
8746.00,1.20
8745.00,1.20
8744.00,1.20
8743.00,1.20
8742.00,1.20
8741.00,1.20
8740.00,1.21
8739.00,1.21
8738.00,1.21
8737.00,1.21
8736.00,1.21
8735.00,1.21
8734.00,1.21
8733.00,1.21
8732.00,1.21
8731.00,1.22
8730.00,1.22
8729.00,1.22
8728.00,1.22
8727.00,1.22
8726.00,1.22
8725.00,1.22
8724.00,1.22
8723.00,1.22
8722.00,1.22
8721.00,1.22
8720.00,1.22
8719.00,1.22
8718.00,1.21
8717.00,1.21
8716.00,1.21
8715.00,1.21
8714.00,1.21
8713.00,1.21
8712.00,1.21
8711.00,1.21
8710.00,1.21
8709.00,1.21
8708.00,1.21
8707.00,1.21
8706.00,1.21
8705.00,1.21
8704.00,1.22
8703.00,1.22
8702.00,1.22
8701.00,1.22
8700.00,1.22
8699.00,1.22
8698.00,1.22
8697.00,1.22
8696.00,1.23
8695.00,1.23
8694.00,1.23
8693.00,1.23
8692.00,1.23
8691.00,1.23
8690.00,1.23
8689.00,1.23
8688.00,1.23
8687.00,1.23
8686.00,1.23
8685.00,1.23
8684.00,1.23
8683.00,1.23
8682.00,1.23
8681.00,1.23
8680.00,1.23
8679.00,1.23
8678.00,1.22
8677.00,1.22
8676.00,1.22
8675.00,1.21
8674.00,1.21
8673.00,1.21
8672.00,1.20
8671.00,1.20
8670.00,1.20
8669.00,1.19
8668.00,1.19
8667.00,1.19
8666.00,1.18
8665.00,1.18
8664.00,1.18
8663.00,1.17
8662.00,1.17
8661.00,1.17
8660.00,1.16
8659.00,1.16
8658.00,1.15
8657.00,1.15
8656.00,1.15
8655.00,1.15
8654.00,1.14
8653.00,1.14
8652.00,1.14
8651.00,1.14
8650.00,1.14
8649.00,1.13
8648.00,1.13
8647.00,1.13
8646.00,1.13
8645.00,1.13
8644.00,1.13
8643.00,1.13
8642.00,1.13
8641.00,1.13
8640.00,1.13
8639.00,1.13
8638.00,1.13
8637.00,1.13
8636.00,1.14
8635.00,1.14
8634.00,1.14
8633.00,1.14
8632.00,1.14
8631.00,1.14
8630.00,1.14
8629.00,1.14
8628.00,1.15
8627.00,1.15
8626.00,1.15
8625.00,1.15
8624.00,1.16
8623.00,1.16
8622.00,1.16
8621.00,1.17
8620.00,1.17
8619.00,1.17
8618.00,1.17
8617.00,1.18
8616.00,1.18
8615.00,1.18
8614.00,1.18
8613.00,1.19
8612.00,1.19
8611.00,1.19
8610.00,1.20
8609.00,1.20
8608.00,1.20
8607.00,1.20
8606.00,1.21
8605.00,1.21
8604.00,1.21
8603.00,1.22
8602.00,1.22
8601.00,1.22
8600.00,1.22
8599.00,1.22
8598.00,1.23
8597.00,1.23
8596.00,1.23
8595.00,1.23
8594.00,1.23
8593.00,1.23
8592.00,1.23
8591.00,1.23
8590.00,1.23
8589.00,1.23
8588.00,1.23
8587.00,1.22
8586.00,1.22
8585.00,1.22
8584.00,1.22
8583.00,1.22
8582.00,1.22
8581.00,1.22
8580.00,1.22
8579.00,1.22
8578.00,1.22
8577.00,1.22
8576.00,1.22
8575.00,1.22
8574.00,1.21
8573.00,1.21
8572.00,1.21
8571.00,1.21
8570.00,1.21
8569.00,1.21
8568.00,1.20
8567.00,1.20
8566.00,1.20
8565.00,1.20
8564.00,1.21
8563.00,1.21
8562.00,1.21
8561.00,1.21
8560.00,1.21
8559.00,1.21
8558.00,1.21
8557.00,1.21
8556.00,1.21
8555.00,1.21
8554.00,1.21
8553.00,1.21
8552.00,1.21
8551.00,1.21
8550.00,1.21
8549.00,1.21
8548.00,1.22
8547.00,1.22
8546.00,1.22
8545.00,1.22
8544.00,1.22
8543.00,1.22
8542.00,1.22
8541.00,1.22
8540.00,1.22
8539.00,1.22
8538.00,1.22
8537.00,1.22
8536.00,1.22
8535.00,1.22
8534.00,1.22
8533.00,1.22
8532.00,1.22
8531.00,1.22
8530.00,1.22
8529.00,1.22
8528.00,1.22
8527.00,1.22
8526.00,1.21
8525.00,1.21
8524.00,1.21
8523.00,1.21
8522.00,1.21
8521.00,1.21
8520.00,1.21
8519.00,1.21
8518.00,1.21
8517.00,1.21
8516.00,1.20
8515.00,1.20
8514.00,1.20
8513.00,1.20
8512.00,1.20
8511.00,1.20
8510.00,1.20
8509.00,1.20
8508.00,1.20
8507.00,1.20
8506.00,1.20
8505.00,1.20
8504.00,1.20
8503.00,1.20
8502.00,1.21
8501.00,1.21
8500.00,1.21
8499.00,1.21
8498.00,1.21
8497.00,1.21
8496.00,1.21
8495.00,1.21
8494.00,1.21
8493.00,1.21
8492.00,1.21
8491.00,1.21
8490.00,1.21
8489.00,1.21
8488.00,1.21
8487.00,1.21
8486.00,1.21
8485.00,1.21
8484.00,1.20
8483.00,1.20
8482.00,1.20
8481.00,1.20
8480.00,1.20
8479.00,1.19
8478.00,1.19
8477.00,1.19
8476.00,1.19
8475.00,1.18
8474.00,1.18
8473.00,1.18
8472.00,1.18
8471.00,1.17
8470.00,1.17
8469.00,1.17
8468.00,1.17
8467.00,1.17
8466.00,1.16
8465.00,1.16
8464.00,1.16
8463.00,1.16
8462.00,1.16
8461.00,1.16
8460.00,1.16
8459.00,1.16
8458.00,1.16
8457.00,1.16
8456.00,1.16
8455.00,1.16
8454.00,1.16
8453.00,1.16
8452.00,1.17
8451.00,1.17
8450.00,1.17
8449.00,1.17
8448.00,1.17
8447.00,1.18
8446.00,1.18
8445.00,1.18
8444.00,1.18
8443.00,1.19
8442.00,1.19
8441.00,1.19
8440.00,1.19
8439.00,1.19
8438.00,1.19
8437.00,1.19
8436.00,1.19
8435.00,1.19
8434.00,1.19
8433.00,1.19
8432.00,1.19
8431.00,1.19
8430.00,1.19
8429.00,1.19
8428.00,1.19
8427.00,1.19
8426.00,1.19
8425.00,1.19
8424.00,1.19
8423.00,1.19
8422.00,1.19
8421.00,1.18
8420.00,1.18
8419.00,1.18
8418.00,1.18
8417.00,1.18
8416.00,1.17
8415.00,1.17
8414.00,1.17
8413.00,1.17
8412.00,1.17
8411.00,1.17
8410.00,1.17
8409.00,1.17
8408.00,1.17
8407.00,1.17
8406.00,1.17
8405.00,1.17
8404.00,1.17
8403.00,1.17
8402.00,1.17
8401.00,1.17
8400.00,1.17
8399.00,1.17
8398.00,1.17
8397.00,1.18
8396.00,1.18
8395.00,1.18
8394.00,1.18
8393.00,1.19
8392.00,1.19
8391.00,1.19
8390.00,1.19
8389.00,1.20
8388.00,1.20
8387.00,1.20
8386.00,1.21
8385.00,1.21
8384.00,1.21
8383.00,1.21
8382.00,1.22
8381.00,1.22
8380.00,1.22
8379.00,1.22
8378.00,1.22
8377.00,1.23
8376.00,1.23
8375.00,1.23
8374.00,1.24
8373.00,1.24
8372.00,1.24
8371.00,1.24
8370.00,1.24
8369.00,1.24
8368.00,1.25
8367.00,1.25
8366.00,1.25
8365.00,1.25
8364.00,1.25
8363.00,1.25
8362.00,1.25
8361.00,1.25
8360.00,1.26
8359.00,1.26
8358.00,1.26
8357.00,1.26
8356.00,1.25
8355.00,1.25
8354.00,1.25
8353.00,1.25
8352.00,1.25
8351.00,1.25
8350.00,1.24
8349.00,1.24
8348.00,1.24
8347.00,1.23
8346.00,1.23
8345.00,1.23
8344.00,1.23
8343.00,1.22
8342.00,1.22
8341.00,1.22
8340.00,1.22
8339.00,1.22
8338.00,1.21
8337.00,1.21
8336.00,1.21
8335.00,1.21
8334.00,1.21
8333.00,1.21
8332.00,1.21
8331.00,1.21
8330.00,1.21
8329.00,1.21
8328.00,1.21
8327.00,1.21
8326.00,1.21
8325.00,1.22
8324.00,1.22
8323.00,1.22
8322.00,1.23
8321.00,1.23
8320.00,1.23
8319.00,1.24
8318.00,1.24
8317.00,1.25
8316.00,1.25
8315.00,1.25
8314.00,1.26
8313.00,1.26
8312.00,1.26
8311.00,1.26
8310.00,1.27
8309.00,1.27
8308.00,1.27
8307.00,1.28
8306.00,1.28
8305.00,1.28
8304.00,1.28
8303.00,1.28
8302.00,1.28
8301.00,1.28
8300.00,1.28
8299.00,1.28
8298.00,1.28
8297.00,1.28
8296.00,1.28
8295.00,1.28
8294.00,1.28
8293.00,1.27
8292.00,1.27
8291.00,1.27
8290.00,1.27
8289.00,1.27
8288.00,1.27
8287.00,1.27
8286.00,1.26
8285.00,1.26
8284.00,1.26
8283.00,1.26
8282.00,1.26
8281.00,1.26
8280.00,1.26
8279.00,1.26
8278.00,1.26
8277.00,1.26
8276.00,1.26
8275.00,1.26
8274.00,1.26
8273.00,1.26
8272.00,1.26
8271.00,1.27
8270.00,1.27
8269.00,1.27
8268.00,1.27
8267.00,1.27
8266.00,1.28
8265.00,1.28
8264.00,1.28
8263.00,1.28
8262.00,1.29
8261.00,1.29
8260.00,1.29
8259.00,1.29
8258.00,1.30
8257.00,1.30
8256.00,1.30
8255.00,1.30
8254.00,1.30
8253.00,1.30
8252.00,1.30
8251.00,1.30
8250.00,1.30
8249.00,1.30
8248.00,1.30
8247.00,1.31
8246.00,1.31
8245.00,1.31
8244.00,1.31
8243.00,1.30
8242.00,1.30
8241.00,1.30
8240.00,1.30
8239.00,1.30
8238.00,1.29
8237.00,1.29
8236.00,1.29
8235.00,1.29
8234.00,1.28
8233.00,1.28
8232.00,1.28
8231.00,1.28
8230.00,1.27
8229.00,1.27
8228.00,1.27
8227.00,1.27
8226.00,1.27
8225.00,1.27
8224.00,1.26
8223.00,1.26
8222.00,1.26
8221.00,1.26
8220.00,1.26
8219.00,1.25
8218.00,1.25
8217.00,1.25
8216.00,1.25
8215.00,1.25
8214.00,1.25
8213.00,1.26
8212.00,1.26
8211.00,1.26
8210.00,1.26
8209.00,1.27
8208.00,1.27
8207.00,1.27
8206.00,1.28
8205.00,1.28
8204.00,1.28
8203.00,1.28
8202.00,1.29
8201.00,1.29
8200.00,1.29
8199.00,1.29
8198.00,1.29
8197.00,1.29
8196.00,1.29
8195.00,1.29
8194.00,1.30
8193.00,1.30
8192.00,1.30
8191.00,1.30
8190.00,1.29
8189.00,1.29
8188.00,1.29
8187.00,1.29
8186.00,1.29
8185.00,1.28
8184.00,1.28
8183.00,1.28
8182.00,1.27
8181.00,1.27
8180.00,1.27
8179.00,1.26
8178.00,1.26
8177.00,1.25
8176.00,1.25
8175.00,1.24
8174.00,1.24
8173.00,1.24
8172.00,1.23
8171.00,1.23
8170.00,1.23
8169.00,1.22
8168.00,1.22
8167.00,1.22
8166.00,1.21
8165.00,1.21
8164.00,1.21
8163.00,1.21
8162.00,1.20
8161.00,1.20
8160.00,1.20
8159.00,1.20
8158.00,1.20
8157.00,1.20
8156.00,1.20
8155.00,1.20
8154.00,1.20
8153.00,1.20
8152.00,1.20
8151.00,1.20
8150.00,1.20
8149.00,1.20
8148.00,1.20
8147.00,1.21
8146.00,1.21
8145.00,1.21
8144.00,1.21
8143.00,1.22
8142.00,1.22
8141.00,1.22
8140.00,1.23
8139.00,1.23
8138.00,1.23
8137.00,1.24
8136.00,1.24
8135.00,1.24
8134.00,1.24
8133.00,1.25
8132.00,1.25
8131.00,1.25
8130.00,1.26
8129.00,1.26
8128.00,1.26
8127.00,1.27
8126.00,1.27
8125.00,1.28
8124.00,1.28
8123.00,1.28
8122.00,1.29
8121.00,1.29
8120.00,1.29
8119.00,1.29
8118.00,1.29
8117.00,1.30
8116.00,1.30
8115.00,1.30
8114.00,1.30
8113.00,1.31
8112.00,1.31
8111.00,1.31
8110.00,1.31
8109.00,1.32
8108.00,1.32
8107.00,1.32
8106.00,1.32
8105.00,1.32
8104.00,1.32
8103.00,1.32
8102.00,1.32
8101.00,1.32
8100.00,1.32
8099.00,1.32
8098.00,1.32
8097.00,1.31
8096.00,1.31
8095.00,1.31
8094.00,1.31
8093.00,1.31
8092.00,1.31
8091.00,1.31
8090.00,1.31
8089.00,1.30
8088.00,1.30
8087.00,1.30
8086.00,1.30
8085.00,1.30
8084.00,1.30
8083.00,1.29
8082.00,1.29
8081.00,1.29
8080.00,1.29
8079.00,1.29
8078.00,1.29
8077.00,1.29
8076.00,1.29
8075.00,1.29
8074.00,1.30
8073.00,1.30
8072.00,1.30
8071.00,1.30
8070.00,1.30
8069.00,1.31
8068.00,1.31
8067.00,1.31
8066.00,1.31
8065.00,1.31
8064.00,1.31
8063.00,1.32
8062.00,1.32
8061.00,1.32
8060.00,1.32
8059.00,1.32
8058.00,1.33
8057.00,1.33
8056.00,1.33
8055.00,1.33
8054.00,1.33
8053.00,1.32
8052.00,1.32
8051.00,1.32
8050.00,1.32
8049.00,1.32
8048.00,1.32
8047.00,1.31
8046.00,1.31
8045.00,1.31
8044.00,1.31
8043.00,1.30
8042.00,1.30
8041.00,1.30
8040.00,1.30
8039.00,1.29
8038.00,1.29
8037.00,1.29
8036.00,1.28
8035.00,1.28
8034.00,1.28
8033.00,1.27
8032.00,1.27
8031.00,1.27
8030.00,1.27
8029.00,1.27
8028.00,1.27
8027.00,1.26
8026.00,1.26
8025.00,1.26
8024.00,1.26
8023.00,1.26
8022.00,1.26
8021.00,1.26
8020.00,1.26
8019.00,1.26
8018.00,1.26
8017.00,1.26
8016.00,1.26
8015.00,1.26
8014.00,1.26
8013.00,1.26
8012.00,1.26
8011.00,1.26
8010.00,1.26
8009.00,1.26
8008.00,1.26
8007.00,1.26
8006.00,1.26
8005.00,1.26
8004.00,1.26
8003.00,1.26
8002.00,1.26
8001.00,1.26
8000.00,1.26
7999.00,1.26
7998.00,1.26
7997.00,1.26
7996.00,1.26
7995.00,1.26
7994.00,1.26
7993.00,1.27
7992.00,1.27
7991.00,1.27
7990.00,1.28
7989.00,1.28
7988.00,1.28
7987.00,1.28
7986.00,1.29
7985.00,1.29
7984.00,1.29
7983.00,1.29
7982.00,1.29
7981.00,1.29
7980.00,1.30
7979.00,1.30
7978.00,1.30
7977.00,1.30
7976.00,1.30
7975.00,1.30
7974.00,1.30
7973.00,1.30
7972.00,1.30
7971.00,1.30
7970.00,1.30
7969.00,1.29
7968.00,1.29
7967.00,1.29
7966.00,1.29
7965.00,1.29
7964.00,1.29
7963.00,1.28
7962.00,1.28
7961.00,1.28
7960.00,1.28
7959.00,1.28
7958.00,1.28
7957.00,1.27
7956.00,1.27
7955.00,1.27
7954.00,1.27
7953.00,1.27
7952.00,1.27
7951.00,1.27
7950.00,1.27
7949.00,1.27
7948.00,1.27
7947.00,1.27
7946.00,1.27
7945.00,1.27
7944.00,1.27
7943.00,1.28
7942.00,1.28
7941.00,1.28
7940.00,1.28
7939.00,1.28
7938.00,1.28
7937.00,1.28
7936.00,1.28
7935.00,1.28
7934.00,1.28
7933.00,1.28
7932.00,1.28
7931.00,1.28
7930.00,1.28
7929.00,1.28
7928.00,1.28
7927.00,1.28
7926.00,1.28
7925.00,1.28
7924.00,1.28
7923.00,1.28
7922.00,1.28
7921.00,1.28
7920.00,1.28
7919.00,1.28
7918.00,1.28
7917.00,1.28
7916.00,1.28
7915.00,1.28
7914.00,1.28
7913.00,1.28
7912.00,1.28
7911.00,1.28
7910.00,1.29
7909.00,1.29
7908.00,1.29
7907.00,1.29
7906.00,1.29
7905.00,1.29
7904.00,1.29
7903.00,1.29
7902.00,1.29
7901.00,1.29
7900.00,1.29
7899.00,1.29
7898.00,1.29
7897.00,1.29
7896.00,1.29
7895.00,1.30
7894.00,1.30
7893.00,1.30
7892.00,1.30
7891.00,1.30
7890.00,1.30
7889.00,1.31
7888.00,1.31
7887.00,1.31
7886.00,1.31
7885.00,1.31
7884.00,1.31
7883.00,1.31
7882.00,1.31
7881.00,1.31
7880.00,1.31
7879.00,1.31
7878.00,1.31
7877.00,1.31
7876.00,1.31
7875.00,1.31
7874.00,1.32
7873.00,1.32
7872.00,1.32
7871.00,1.32
7870.00,1.32
7869.00,1.31
7868.00,1.31
7867.00,1.31
7866.00,1.31
7865.00,1.31
7864.00,1.31
7863.00,1.31
7862.00,1.31
7861.00,1.32
7860.00,1.32
7859.00,1.32
7858.00,1.32
7857.00,1.32
7856.00,1.32
7855.00,1.32
7854.00,1.32
7853.00,1.32
7852.00,1.32
7851.00,1.33
7850.00,1.33
7849.00,1.33
7848.00,1.33
7847.00,1.33
7846.00,1.33
7845.00,1.33
7844.00,1.33
7843.00,1.33
7842.00,1.33
7841.00,1.33
7840.00,1.33
7839.00,1.33
7838.00,1.33
7837.00,1.33
7836.00,1.33
7835.00,1.33
7834.00,1.33
7833.00,1.33
7832.00,1.33
7831.00,1.33
7830.00,1.33
7829.00,1.33
7828.00,1.33
7827.00,1.33
7826.00,1.33
7825.00,1.33
7824.00,1.33
7823.00,1.33
7822.00,1.33
7821.00,1.33
7820.00,1.33
7819.00,1.33
7818.00,1.33
7817.00,1.34
7816.00,1.34
7815.00,1.34
7814.00,1.34
7813.00,1.34
7812.00,1.34
7811.00,1.34
7810.00,1.34
7809.00,1.34
7808.00,1.34
7807.00,1.34
7806.00,1.34
7805.00,1.35
7804.00,1.35
7803.00,1.35
7802.00,1.35
7801.00,1.35
7800.00,1.35
7799.00,1.35
7798.00,1.35
7797.00,1.35
7796.00,1.35
7795.00,1.35
7794.00,1.35
7793.00,1.35
7792.00,1.35
7791.00,1.35
7790.00,1.35
7789.00,1.35
7788.00,1.35
7787.00,1.35
7786.00,1.35
7785.00,1.35
7784.00,1.35
7783.00,1.35
7782.00,1.35
7781.00,1.35
7780.00,1.35
7779.00,1.34
7778.00,1.34
7777.00,1.34
7776.00,1.34
7775.00,1.34
7774.00,1.34
7773.00,1.34
7772.00,1.34
7771.00,1.34
7770.00,1.34
7769.00,1.34
7768.00,1.33
7767.00,1.33
7766.00,1.33
7765.00,1.33
7764.00,1.33
7763.00,1.33
7762.00,1.33
7761.00,1.33
7760.00,1.33
7759.00,1.33
7758.00,1.32
7757.00,1.32
7756.00,1.32
7755.00,1.32
7754.00,1.32
7753.00,1.32
7752.00,1.32
7751.00,1.32
7750.00,1.32
7749.00,1.32
7748.00,1.31
7747.00,1.31
7746.00,1.31
7745.00,1.31
7744.00,1.32
7743.00,1.32
7742.00,1.32
7741.00,1.32
7740.00,1.32
7739.00,1.32
7738.00,1.32
7737.00,1.32
7736.00,1.32
7735.00,1.32
7734.00,1.32
7733.00,1.32
7732.00,1.32
7731.00,1.32
7730.00,1.33
7729.00,1.33
7728.00,1.33
7727.00,1.33
7726.00,1.33
7725.00,1.34
7724.00,1.34
7723.00,1.34
7722.00,1.34
7721.00,1.34
7720.00,1.35
7719.00,1.35
7718.00,1.35
7717.00,1.35
7716.00,1.35
7715.00,1.35
7714.00,1.36
7713.00,1.36
7712.00,1.36
7711.00,1.36
7710.00,1.36
7709.00,1.36
7708.00,1.36
7707.00,1.36
7706.00,1.36
7705.00,1.37
7704.00,1.37
7703.00,1.36
7702.00,1.36
7701.00,1.36
7700.00,1.36
7699.00,1.36
7698.00,1.36
7697.00,1.36
7696.00,1.36
7695.00,1.36
7694.00,1.36
7693.00,1.36
7692.00,1.36
7691.00,1.36
7690.00,1.35
7689.00,1.35
7688.00,1.35
7687.00,1.35
7686.00,1.35
7685.00,1.34
7684.00,1.34
7683.00,1.34
7682.00,1.34
7681.00,1.34
7680.00,1.34
7679.00,1.34
7678.00,1.34
7677.00,1.34
7676.00,1.34
7675.00,1.34
7674.00,1.33
7673.00,1.33
7672.00,1.33
7671.00,1.33
7670.00,1.33
7669.00,1.33
7668.00,1.33
7667.00,1.33
7666.00,1.33
7665.00,1.33
7664.00,1.33
7663.00,1.32
7662.00,1.32
7661.00,1.32
7660.00,1.32
7659.00,1.32
7658.00,1.32
7657.00,1.32
7656.00,1.31
7655.00,1.31
7654.00,1.31
7653.00,1.31
7652.00,1.30
7651.00,1.30
7650.00,1.30
7649.00,1.30
7648.00,1.30
7647.00,1.30
7646.00,1.30
7645.00,1.30
7644.00,1.30
7643.00,1.30
7642.00,1.31
7641.00,1.31
7640.00,1.31
7639.00,1.31
7638.00,1.32
7637.00,1.32
7636.00,1.32
7635.00,1.33
7634.00,1.33
7633.00,1.34
7632.00,1.34
7631.00,1.35
7630.00,1.35
7629.00,1.36
7628.00,1.36
7627.00,1.37
7626.00,1.37
7625.00,1.38
7624.00,1.38
7623.00,1.38
7622.00,1.38
7621.00,1.39
7620.00,1.39
7619.00,1.39
7618.00,1.39
7617.00,1.39
7616.00,1.38
7615.00,1.38
7614.00,1.38
7613.00,1.38
7612.00,1.37
7611.00,1.37
7610.00,1.36
7609.00,1.36
7608.00,1.35
7607.00,1.34
7606.00,1.34
7605.00,1.33
7604.00,1.32
7603.00,1.32
7602.00,1.31
7601.00,1.30
7600.00,1.30
7599.00,1.29
7598.00,1.29
7597.00,1.29
7596.00,1.28
7595.00,1.28
7594.00,1.28
7593.00,1.28
7592.00,1.27
7591.00,1.27
7590.00,1.27
7589.00,1.27
7588.00,1.27
7587.00,1.27
7586.00,1.27
7585.00,1.27
7584.00,1.28
7583.00,1.28
7582.00,1.28
7581.00,1.28
7580.00,1.29
7579.00,1.29
7578.00,1.29
7577.00,1.30
7576.00,1.30
7575.00,1.30
7574.00,1.30
7573.00,1.31
7572.00,1.31
7571.00,1.31
7570.00,1.31
7569.00,1.31
7568.00,1.31
7567.00,1.31
7566.00,1.32
7565.00,1.32
7564.00,1.32
7563.00,1.32
7562.00,1.32
7561.00,1.32
7560.00,1.32
7559.00,1.31
7558.00,1.31
7557.00,1.31
7556.00,1.31
7555.00,1.31
7554.00,1.31
7553.00,1.31
7552.00,1.31
7551.00,1.31
7550.00,1.30
7549.00,1.30
7548.00,1.30
7547.00,1.30
7546.00,1.30
7545.00,1.30
7544.00,1.30
7543.00,1.30
7542.00,1.30
7541.00,1.30
7540.00,1.29
7539.00,1.29
7538.00,1.29
7537.00,1.29
7536.00,1.29
7535.00,1.29
7534.00,1.29
7533.00,1.29
7532.00,1.29
7531.00,1.29
7530.00,1.29
7529.00,1.29
7528.00,1.29
7527.00,1.29
7526.00,1.29
7525.00,1.29
7524.00,1.29
7523.00,1.29
7522.00,1.29
7521.00,1.29
7520.00,1.29
7519.00,1.29
7518.00,1.29
7517.00,1.29
7516.00,1.29
7515.00,1.29
7514.00,1.29
7513.00,1.29
7512.00,1.29
7511.00,1.30
7510.00,1.30
7509.00,1.30
7508.00,1.30
7507.00,1.30
7506.00,1.30
7505.00,1.30
7504.00,1.30
7503.00,1.30
7502.00,1.30
7501.00,1.30
7500.00,1.30
7499.00,1.30
7498.00,1.30
7497.00,1.30
7496.00,1.30
7495.00,1.31
7494.00,1.31
7493.00,1.31
7492.00,1.31
7491.00,1.31
7490.00,1.31
7489.00,1.31
7488.00,1.31
7487.00,1.31
7486.00,1.31
7485.00,1.31
7484.00,1.31
7483.00,1.32
7482.00,1.32
7481.00,1.32
7480.00,1.32
7479.00,1.32
7478.00,1.32
7477.00,1.32
7476.00,1.32
7475.00,1.32
7474.00,1.32
7473.00,1.32
7472.00,1.32
7471.00,1.32
7470.00,1.32
7469.00,1.32
7468.00,1.32
7467.00,1.32
7466.00,1.32
7465.00,1.33
7464.00,1.33
7463.00,1.33
7462.00,1.33
7461.00,1.33
7460.00,1.33
7459.00,1.33
7458.00,1.33
7457.00,1.33
7456.00,1.34
7455.00,1.34
7454.00,1.34
7453.00,1.34
7452.00,1.34
7451.00,1.34
7450.00,1.34
7449.00,1.34
7448.00,1.34
7447.00,1.34
7446.00,1.34
7445.00,1.34
7444.00,1.34
7443.00,1.34
7442.00,1.34
7441.00,1.34
7440.00,1.34
7439.00,1.34
7438.00,1.34
7437.00,1.34
7436.00,1.34
7435.00,1.34
7434.00,1.34
7433.00,1.34
7432.00,1.34
7431.00,1.34
7430.00,1.33
7429.00,1.33
7428.00,1.33
7427.00,1.33
7426.00,1.33
7425.00,1.33
7424.00,1.33
7423.00,1.33
7422.00,1.33
7421.00,1.33
7420.00,1.33
7419.00,1.33
7418.00,1.33
7417.00,1.33
7416.00,1.33
7415.00,1.33
7414.00,1.33
7413.00,1.33
7412.00,1.33
7411.00,1.33
7410.00,1.33
7409.00,1.32
7408.00,1.32
7407.00,1.32
7406.00,1.32
7405.00,1.32
7404.00,1.32
7403.00,1.32
7402.00,1.32
7401.00,1.32
7400.00,1.32
7399.00,1.31
7398.00,1.31
7397.00,1.31
7396.00,1.31
7395.00,1.30
7394.00,1.30
7393.00,1.30
7392.00,1.29
7391.00,1.29
7390.00,1.29
7389.00,1.29
7388.00,1.29
7387.00,1.28
7386.00,1.28
7385.00,1.28
7384.00,1.28
7383.00,1.28
7382.00,1.28
7381.00,1.28
7380.00,1.28
7379.00,1.28
7378.00,1.28
7377.00,1.28
7376.00,1.28
7375.00,1.28
7374.00,1.28
7373.00,1.28
7372.00,1.28
7371.00,1.28
7370.00,1.28
7369.00,1.28
7368.00,1.28
7367.00,1.29
7366.00,1.29
7365.00,1.29
7364.00,1.29
7363.00,1.29
7362.00,1.29
7361.00,1.29
7360.00,1.29
7359.00,1.29
7358.00,1.30
7357.00,1.30
7356.00,1.30
7355.00,1.30
7354.00,1.30
7353.00,1.30
7352.00,1.30
7351.00,1.30
7350.00,1.30
7349.00,1.30
7348.00,1.30
7347.00,1.30
7346.00,1.30
7345.00,1.30
7344.00,1.30
7343.00,1.30
7342.00,1.29
7341.00,1.29
7340.00,1.29
7339.00,1.29
7338.00,1.29
7337.00,1.29
7336.00,1.29
7335.00,1.29
7334.00,1.29
7333.00,1.28
7332.00,1.28
7331.00,1.28
7330.00,1.28
7329.00,1.28
7328.00,1.28
7327.00,1.28
7326.00,1.28
7325.00,1.28
7324.00,1.28
7323.00,1.28
7322.00,1.28
7321.00,1.28
7320.00,1.28
7319.00,1.28
7318.00,1.28
7317.00,1.29
7316.00,1.29
7315.00,1.29
7314.00,1.29
7313.00,1.29
7312.00,1.29
7311.00,1.29
7310.00,1.29
7309.00,1.29
7308.00,1.30
7307.00,1.30
7306.00,1.30
7305.00,1.30
7304.00,1.30
7303.00,1.30
7302.00,1.30
7301.00,1.30
7300.00,1.29
7299.00,1.29
7298.00,1.29
7297.00,1.29
7296.00,1.29
7295.00,1.29
7294.00,1.29
7293.00,1.29
7292.00,1.28
7291.00,1.28
7290.00,1.28
7289.00,1.27
7288.00,1.27
7287.00,1.27
7286.00,1.27
7285.00,1.26
7284.00,1.26
7283.00,1.26
7282.00,1.26
7281.00,1.26
7280.00,1.25
7279.00,1.25
7278.00,1.25
7277.00,1.25
7276.00,1.25
7275.00,1.25
7274.00,1.24
7273.00,1.24
7272.00,1.24
7271.00,1.24
7270.00,1.24
7269.00,1.24
7268.00,1.24
7267.00,1.24
7266.00,1.24
7265.00,1.23
7264.00,1.24
7263.00,1.24
7262.00,1.24
7261.00,1.24
7260.00,1.24
7259.00,1.24
7258.00,1.24
7257.00,1.24
7256.00,1.24
7255.00,1.24
7254.00,1.24
7253.00,1.24
7252.00,1.24
7251.00,1.24
7250.00,1.24
7249.00,1.24
7248.00,1.24
7247.00,1.24
7246.00,1.24
7245.00,1.24
7244.00,1.24
7243.00,1.24
7242.00,1.24
7241.00,1.24
7240.00,1.24
7239.00,1.24
7238.00,1.24
7237.00,1.23
7236.00,1.23
7235.00,1.23
7234.00,1.23
7233.00,1.22
7232.00,1.22
7231.00,1.22
7230.00,1.22
7229.00,1.21
7228.00,1.21
7227.00,1.21
7226.00,1.21
7225.00,1.20
7224.00,1.20
7223.00,1.20
7222.00,1.19
7221.00,1.19
7220.00,1.18
7219.00,1.18
7218.00,1.18
7217.00,1.17
7216.00,1.17
7215.00,1.17
7214.00,1.16
7213.00,1.16
7212.00,1.16
7211.00,1.15
7210.00,1.15
7209.00,1.15
7208.00,1.15
7207.00,1.14
7206.00,1.14
7205.00,1.14
7204.00,1.14
7203.00,1.13
7202.00,1.13
7201.00,1.13
7200.00,1.13
7199.00,1.13
7198.00,1.12
7197.00,1.12
7196.00,1.12
7195.00,1.12
7194.00,1.12
7193.00,1.11
7192.00,1.11
7191.00,1.11
7190.00,1.10
7189.00,1.10
7188.00,1.10
7187.00,1.10
7186.00,1.10
7185.00,1.09
7184.00,1.09
7183.00,1.09
7182.00,1.09
7181.00,1.08
7180.00,1.08
7179.00,1.08
7178.00,1.08
7177.00,1.07
7176.00,1.07
7175.00,1.07
7174.00,1.07
7173.00,1.06
7172.00,1.06
7171.00,1.06
7170.00,1.05
7169.00,1.05
7168.00,1.05
7167.00,1.04
7166.00,1.04
7165.00,1.04
7164.00,1.03
7163.00,1.03
7162.00,1.03
7161.00,1.03
7160.00,1.02
7159.00,1.02
7158.00,1.02
7157.00,1.02
7156.00,1.01
7155.00,1.01
7154.00,1.01
7153.00,1.00
7152.00,1.00
7151.00,1.00
7150.00,0.99
7149.00,0.99
7148.00,0.99
7147.00,0.98
7146.00,0.98
7145.00,0.98
7144.00,0.98
7143.00,0.97
7142.00,0.97
7141.00,0.97
7140.00,0.96
7139.00,0.96
7138.00,0.96
7137.00,0.95
7136.00,0.95
7135.00,0.94
7134.00,0.94
7133.00,0.94
7132.00,0.93
7131.00,0.93
7130.00,0.92
7129.00,0.92
7128.00,0.92
7127.00,0.91
7126.00,0.91
7125.00,0.90
7124.00,0.90
7123.00,0.90
7122.00,0.89
7121.00,0.89
7120.00,0.89
7119.00,0.88
7118.00,0.88
7117.00,0.88
7116.00,0.88
7115.00,0.88
7114.00,0.88
7113.00,0.87
7112.00,0.87
7111.00,0.87
7110.00,0.87
7109.00,0.87
7108.00,0.87
7107.00,0.87
7106.00,0.87
7105.00,0.87
7104.00,0.87
7103.00,0.87
7102.00,0.87
7101.00,0.87
7100.00,0.87
7099.00,0.87
7098.00,0.87
7097.00,0.87
7096.00,0.87
7095.00,0.87
7094.00,0.87
7093.00,0.87
7092.00,0.87
7091.00,0.87
7090.00,0.87
7089.00,0.87
7088.00,0.86
7087.00,0.86
7086.00,0.86
7085.00,0.86
7084.00,0.86
7083.00,0.85
7082.00,0.85
7081.00,0.85
7080.00,0.85
7079.00,0.84
7078.00,0.84
7077.00,0.84
7076.00,0.83
7075.00,0.83
7074.00,0.83
7073.00,0.83
7072.00,0.82
7071.00,0.82
7070.00,0.82
7069.00,0.82
7068.00,0.82
7067.00,0.81
7066.00,0.81
7065.00,0.81
7064.00,0.81
7063.00,0.81
7062.00,0.80
7061.00,0.80
7060.00,0.80
7059.00,0.80
7058.00,0.80
7057.00,0.80
7056.00,0.80
7055.00,0.80
7054.00,0.80
7053.00,0.80
7052.00,0.80
7051.00,0.80
7050.00,0.80
7049.00,0.80
7048.00,0.80
7047.00,0.80
7046.00,0.79
7045.00,0.79
7044.00,0.79
7043.00,0.79
7042.00,0.79
7041.00,0.79
7040.00,0.79
7039.00,0.79
7038.00,0.79
7037.00,0.79
7036.00,0.79
7035.00,0.79
7034.00,0.79
7033.00,0.79
7032.00,0.79
7031.00,0.79
7030.00,0.79
7029.00,0.79
7028.00,0.79
7027.00,0.79
7026.00,0.79
7025.00,0.79
7024.00,0.79
7023.00,0.79
7022.00,0.79
7021.00,0.79
7020.00,0.79
7019.00,0.79
7018.00,0.79
7017.00,0.78
7016.00,0.78
7015.00,0.78
7014.00,0.78
7013.00,0.78
7012.00,0.78
7011.00,0.77
7010.00,0.77
7009.00,0.77
7008.00,0.77
7007.00,0.77
7006.00,0.76
7005.00,0.76
7004.00,0.76
7003.00,0.76
7002.00,0.76
7001.00,0.75
7000.00,0.75
6999.00,0.75
6998.00,0.75
6997.00,0.74
6996.00,0.74
6995.00,0.74
6994.00,0.74
6993.00,0.73
6992.00,0.73
6991.00,0.73
6990.00,0.73
6989.00,0.73
6988.00,0.73
6987.00,0.73
6986.00,0.73
6985.00,0.73
6984.00,0.73
6983.00,0.73
6982.00,0.73
6981.00,0.73
6980.00,0.73
6979.00,0.73
6978.00,0.73
6977.00,0.73
6976.00,0.73
6975.00,0.73
6974.00,0.73
6973.00,0.73
6972.00,0.74
6971.00,0.74
6970.00,0.74
6969.00,0.74
6968.00,0.74
6967.00,0.74
6966.00,0.74
6965.00,0.74
6964.00,0.74
6963.00,0.74
6962.00,0.74
6961.00,0.73
6960.00,0.73
6959.00,0.73
6958.00,0.73
6957.00,0.73
6956.00,0.73
6955.00,0.73
6954.00,0.73
6953.00,0.72
6952.00,0.72
6951.00,0.72
6950.00,0.72
6949.00,0.72
6948.00,0.72
6947.00,0.71
6946.00,0.71
6945.00,0.71
6944.00,0.71
6943.00,0.71
6942.00,0.71
6941.00,0.71
6940.00,0.71
6939.00,0.71
6938.00,0.71
6937.00,0.71
6936.00,0.71
6935.00,0.71
6934.00,0.71
6933.00,0.71
6932.00,0.71
6931.00,0.71
6930.00,0.71
6929.00,0.71
6928.00,0.71
6927.00,0.72
6926.00,0.72
6925.00,0.72
6924.00,0.72
6923.00,0.72
6922.00,0.72
6921.00,0.72
6920.00,0.72
6919.00,0.72
6918.00,0.72
6917.00,0.72
6916.00,0.72
6915.00,0.72
6914.00,0.72
6913.00,0.72
6912.00,0.71
6911.00,0.71
6910.00,0.71
6909.00,0.71
6908.00,0.71
6907.00,0.71
6906.00,0.71
6905.00,0.71
6904.00,0.71
6903.00,0.70
6902.00,0.70
6901.00,0.70
6900.00,0.70
6899.00,0.70
6898.00,0.70
6897.00,0.70
6896.00,0.70
6895.00,0.70
6894.00,0.70
6893.00,0.70
6892.00,0.70
6891.00,0.70
6890.00,0.70
6889.00,0.70
6888.00,0.70
6887.00,0.70
6886.00,0.70
6885.00,0.70
6884.00,0.70
6883.00,0.70
6882.00,0.70
6881.00,0.71
6880.00,0.71
6879.00,0.71
6878.00,0.71
6877.00,0.71
6876.00,0.71
6875.00,0.71
6874.00,0.71
6873.00,0.71
6872.00,0.71
6871.00,0.71
6870.00,0.71
6869.00,0.71
6868.00,0.71
6867.00,0.71
6866.00,0.71
6865.00,0.71
6864.00,0.71
6863.00,0.71
6862.00,0.71
6861.00,0.71
6860.00,0.71
6859.00,0.71
6858.00,0.71
6857.00,0.71
6856.00,0.71
6855.00,0.71
6854.00,0.71
6853.00,0.71
6852.00,0.71
6851.00,0.71
6850.00,0.71
6849.00,0.71
6848.00,0.71
6847.00,0.71
6846.00,0.71
6845.00,0.71
6844.00,0.71
6843.00,0.71
6842.00,0.71
6841.00,0.71
6840.00,0.71
6839.00,0.71
6838.00,0.71
6837.00,0.72
6836.00,0.72
6835.00,0.72
6834.00,0.72
6833.00,0.72
6832.00,0.72
6831.00,0.72
6830.00,0.72
6829.00,0.72
6828.00,0.72
6827.00,0.72
6826.00,0.72
6825.00,0.72
6824.00,0.72
6823.00,0.73
6822.00,0.73
6821.00,0.73
6820.00,0.73
6819.00,0.73
6818.00,0.73
6817.00,0.73
6816.00,0.73
6815.00,0.73
6814.00,0.73
6813.00,0.73
6812.00,0.73
6811.00,0.73
6810.00,0.73
6809.00,0.73
6808.00,0.73
6807.00,0.73
6806.00,0.73
6805.00,0.73
6804.00,0.73
6803.00,0.73
6802.00,0.73
6801.00,0.73
6800.00,0.73
6799.00,0.73
6798.00,0.73
6797.00,0.73
6796.00,0.73
6795.00,0.73
6794.00,0.73
6793.00,0.73
6792.00,0.73
6791.00,0.73
6790.00,0.73
6789.00,0.74
6788.00,0.74
6787.00,0.74
6786.00,0.74
6785.00,0.74
6784.00,0.74
6783.00,0.74
6782.00,0.74
6781.00,0.74
6780.00,0.74
6779.00,0.74
6778.00,0.75
6777.00,0.75
6776.00,0.75
6775.00,0.75
6774.00,0.75
6773.00,0.75
6772.00,0.75
6771.00,0.76
6770.00,0.76
6769.00,0.76
6768.00,0.76
6767.00,0.77
6766.00,0.77
6765.00,0.77
6764.00,0.77
6763.00,0.77
6762.00,0.78
6761.00,0.78
6760.00,0.78
6759.00,0.78
6758.00,0.78
6757.00,0.79
6756.00,0.79
6755.00,0.79
6754.00,0.79
6753.00,0.79
6752.00,0.80
6751.00,0.80
6750.00,0.80
6749.00,0.80
6748.00,0.80
6747.00,0.80
6746.00,0.80
6745.00,0.80
6744.00,0.80
6743.00,0.80
6742.00,0.80
6741.00,0.80
6740.00,0.80
6739.00,0.80
6738.00,0.80
6737.00,0.80
6736.00,0.80
6735.00,0.80
6734.00,0.80
6733.00,0.80
6732.00,0.80
6731.00,0.80
6730.00,0.80
6729.00,0.80
6728.00,0.80
6727.00,0.80
6726.00,0.80
6725.00,0.80
6724.00,0.80
6723.00,0.80
6722.00,0.80
6721.00,0.80
6720.00,0.80
6719.00,0.80
6718.00,0.80
6717.00,0.80
6716.00,0.80
6715.00,0.80
6714.00,0.81
6713.00,0.81
6712.00,0.81
6711.00,0.81
6710.00,0.81
6709.00,0.82
6708.00,0.82
6707.00,0.82
6706.00,0.83
6705.00,0.83
6704.00,0.83
6703.00,0.84
6702.00,0.84
6701.00,0.84
6700.00,0.84
6699.00,0.85
6698.00,0.85
6697.00,0.85
6696.00,0.86
6695.00,0.86
6694.00,0.86
6693.00,0.86
6692.00,0.87
6691.00,0.87
6690.00,0.87
6689.00,0.87
6688.00,0.87
6687.00,0.87
6686.00,0.88
6685.00,0.88
6684.00,0.88
6683.00,0.88
6682.00,0.88
6681.00,0.88
6680.00,0.88
6679.00,0.88
6678.00,0.88
6677.00,0.88
6676.00,0.88
6675.00,0.88
6674.00,0.87
6673.00,0.87
6672.00,0.87
6671.00,0.87
6670.00,0.87
6669.00,0.88
6668.00,0.88
6667.00,0.88
6666.00,0.88
6665.00,0.88
6664.00,0.88
6663.00,0.88
6662.00,0.88
6661.00,0.88
6660.00,0.88
6659.00,0.88
6658.00,0.89
6657.00,0.89
6656.00,0.89
6655.00,0.89
6654.00,0.89
6653.00,0.89
6652.00,0.89
6651.00,0.89
6650.00,0.89
6649.00,0.89
6648.00,0.89
6647.00,0.89
6646.00,0.90
6645.00,0.90
6644.00,0.90
6643.00,0.90
6642.00,0.90
6641.00,0.90
6640.00,0.90
6639.00,0.90
6638.00,0.90
6637.00,0.90
6636.00,0.90
6635.00,0.90
6634.00,0.90
6633.00,0.90
6632.00,0.91
6631.00,0.91
6630.00,0.91
6629.00,0.91
6628.00,0.92
6627.00,0.92
6626.00,0.92
6625.00,0.92
6624.00,0.92
6623.00,0.93
6622.00,0.93
6621.00,0.93
6620.00,0.93
6619.00,0.93
6618.00,0.94
6617.00,0.94
6616.00,0.94
6615.00,0.94
6614.00,0.94
6613.00,0.94
6612.00,0.94
6611.00,0.94
6610.00,0.94
6609.00,0.95
6608.00,0.95
6607.00,0.95
6606.00,0.95
6605.00,0.94
6604.00,0.94
6603.00,0.94
6602.00,0.94
6601.00,0.94
6600.00,0.94
6599.00,0.94
6598.00,0.94
6597.00,0.94
6596.00,0.93
6595.00,0.93
6594.00,0.93
6593.00,0.93
6592.00,0.93
6591.00,0.93
6590.00,0.93
6589.00,0.93
6588.00,0.93
6587.00,0.92
6586.00,0.92
6585.00,0.92
6584.00,0.92
6583.00,0.92
6582.00,0.92
6581.00,0.92
6580.00,0.92
6579.00,0.92
6578.00,0.92
6577.00,0.92
6576.00,0.92
6575.00,0.92
6574.00,0.92
6573.00,0.92
6572.00,0.92
6571.00,0.93
6570.00,0.93
6569.00,0.93
6568.00,0.93
6567.00,0.93
6566.00,0.93
6565.00,0.94
6564.00,0.94
6563.00,0.94
6562.00,0.94
6561.00,0.95
6560.00,0.95
6559.00,0.95
6558.00,0.95
6557.00,0.95
6556.00,0.96
6555.00,0.96
6554.00,0.96
6553.00,0.96
6552.00,0.96
6551.00,0.97
6550.00,0.97
6549.00,0.97
6548.00,0.97
6547.00,0.97
6546.00,0.98
6545.00,0.98
6544.00,0.98
6543.00,0.98
6542.00,0.98
6541.00,0.99
6540.00,0.99
6539.00,0.99
6538.00,0.99
6537.00,0.99
6536.00,0.99
6535.00,0.99
6534.00,0.99
6533.00,0.99
6532.00,0.99
6531.00,0.99
6530.00,0.99
6529.00,1.00
6528.00,1.00
6527.00,1.00
6526.00,1.00
6525.00,1.00
6524.00,1.00
6523.00,1.00
6522.00,1.00
6521.00,1.00
6520.00,1.01
6519.00,1.01
6518.00,1.01
6517.00,1.01
6516.00,1.01
6515.00,1.01
6514.00,1.02
6513.00,1.02
6512.00,1.02
6511.00,1.02
6510.00,1.02
6509.00,1.03
6508.00,1.03
6507.00,1.03
6506.00,1.03
6505.00,1.04
6504.00,1.04
6503.00,1.04
6502.00,1.04
6501.00,1.04
6500.00,1.05
6499.00,1.05
6498.00,1.05
6497.00,1.05
6496.00,1.05
6495.00,1.05
6494.00,1.05
6493.00,1.05
6492.00,1.05
6491.00,1.05
6490.00,1.05
6489.00,1.05
6488.00,1.05
6487.00,1.05
6486.00,1.05
6485.00,1.05
6484.00,1.05
6483.00,1.05
6482.00,1.05
6481.00,1.05
6480.00,1.05
6479.00,1.05
6478.00,1.05
6477.00,1.05
6476.00,1.05
6475.00,1.05
6474.00,1.05
6473.00,1.05
6472.00,1.05
6471.00,1.05
6470.00,1.05
6469.00,1.05
6468.00,1.05
6467.00,1.05
6466.00,1.05
6465.00,1.05
6464.00,1.06
6463.00,1.06
6462.00,1.06
6461.00,1.06
6460.00,1.06
6459.00,1.06
6458.00,1.06
6457.00,1.06
6456.00,1.06
6455.00,1.06
6454.00,1.06
6453.00,1.06
6452.00,1.06
6451.00,1.06
6450.00,1.06
6449.00,1.06
6448.00,1.06
6447.00,1.06
6446.00,1.06
6445.00,1.06
6444.00,1.06
6443.00,1.07
6442.00,1.07
6441.00,1.07
6440.00,1.07
6439.00,1.07
6438.00,1.07
6437.00,1.07
6436.00,1.07
6435.00,1.07
6434.00,1.07
6433.00,1.07
6432.00,1.07
6431.00,1.07
6430.00,1.08
6429.00,1.08
6428.00,1.08
6427.00,1.08
6426.00,1.08
6425.00,1.08
6424.00,1.08
6423.00,1.09
6422.00,1.09
6421.00,1.09
6420.00,1.09
6419.00,1.09
6418.00,1.09
6417.00,1.09
6416.00,1.09
6415.00,1.10
6414.00,1.10
6413.00,1.10
6412.00,1.10
6411.00,1.10
6410.00,1.10
6409.00,1.10
6408.00,1.10
6407.00,1.10
6406.00,1.10
6405.00,1.10
6404.00,1.10
6403.00,1.10
6402.00,1.10
6401.00,1.10
6400.00,1.10
6399.00,1.10
6398.00,1.11
6397.00,1.11
6396.00,1.11
6395.00,1.11
6394.00,1.11
6393.00,1.11
6392.00,1.11
6391.00,1.11
6390.00,1.11
6389.00,1.12
6388.00,1.12
6387.00,1.12
6386.00,1.12
6385.00,1.12
6384.00,1.12
6383.00,1.12
6382.00,1.12
6381.00,1.12
6380.00,1.13
6379.00,1.13
6378.00,1.13
6377.00,1.13
6376.00,1.13
6375.00,1.13
6374.00,1.13
6373.00,1.13
6372.00,1.13
6371.00,1.13
6370.00,1.13
6369.00,1.13
6368.00,1.13
6367.00,1.13
6366.00,1.13
6365.00,1.13
6364.00,1.13
6363.00,1.13
6362.00,1.13
6361.00,1.13
6360.00,1.13
6359.00,1.13
6358.00,1.14
6357.00,1.14
6356.00,1.14
6355.00,1.14
6354.00,1.14
6353.00,1.14
6352.00,1.14
6351.00,1.14
6350.00,1.14
6349.00,1.14
6348.00,1.14
6347.00,1.14
6346.00,1.14
6345.00,1.14
6344.00,1.14
6343.00,1.14
6342.00,1.14
6341.00,1.14
6340.00,1.14
6339.00,1.14
6338.00,1.15
6337.00,1.15
6336.00,1.15
6335.00,1.15
6334.00,1.15
6333.00,1.15
6332.00,1.15
6331.00,1.15
6330.00,1.15
6329.00,1.16
6328.00,1.16
6327.00,1.16
6326.00,1.16
6325.00,1.17
6324.00,1.17
6323.00,1.17
6322.00,1.17
6321.00,1.17
6320.00,1.18
6319.00,1.18
6318.00,1.18
6317.00,1.18
6316.00,1.19
6315.00,1.19
6314.00,1.19
6313.00,1.19
6312.00,1.19
6311.00,1.19
6310.00,1.19
6309.00,1.20
6308.00,1.20
6307.00,1.20
6306.00,1.20
6305.00,1.20
6304.00,1.20
6303.00,1.20
6302.00,1.20
6301.00,1.21
6300.00,1.21
6299.00,1.21
6298.00,1.21
6297.00,1.21
6296.00,1.21
6295.00,1.21
6294.00,1.21
6293.00,1.21
6292.00,1.21
6291.00,1.21
6290.00,1.21
6289.00,1.21
6288.00,1.21
6287.00,1.21
6286.00,1.21
6285.00,1.21
6284.00,1.21
6283.00,1.21
6282.00,1.21
6281.00,1.21
6280.00,1.21
6279.00,1.21
6278.00,1.21
6277.00,1.21
6276.00,1.21
6275.00,1.21
6274.00,1.21
6273.00,1.21
6272.00,1.21
6271.00,1.21
6270.00,1.20
6269.00,1.20
6268.00,1.20
6267.00,1.20
6266.00,1.20
6265.00,1.20
6264.00,1.20
6263.00,1.20
6262.00,1.20
6261.00,1.21
6260.00,1.21
6259.00,1.21
6258.00,1.21
6257.00,1.21
6256.00,1.21
6255.00,1.21
6254.00,1.21
6253.00,1.21
6252.00,1.21
6251.00,1.22
6250.00,1.22
6249.00,1.22
6248.00,1.22
6247.00,1.22
6246.00,1.22
6245.00,1.23
6244.00,1.23
6243.00,1.23
6242.00,1.23
6241.00,1.23
6240.00,1.23
6239.00,1.24
6238.00,1.24
6237.00,1.24
6236.00,1.24
6235.00,1.24
6234.00,1.25
6233.00,1.25
6232.00,1.25
6231.00,1.25
6230.00,1.25
6229.00,1.26
6228.00,1.26
6227.00,1.26
6226.00,1.26
6225.00,1.26
6224.00,1.26
6223.00,1.26
6222.00,1.26
6221.00,1.26
6220.00,1.27
6219.00,1.27
6218.00,1.27
6217.00,1.27
6216.00,1.27
6215.00,1.27
6214.00,1.27
6213.00,1.27
6212.00,1.28
6211.00,1.28
6210.00,1.28
6209.00,1.28
6208.00,1.28
6207.00,1.28
6206.00,1.28
6205.00,1.28
6204.00,1.28
6203.00,1.28
6202.00,1.28
6201.00,1.28
6200.00,1.28
6199.00,1.28
6198.00,1.28
6197.00,1.28
6196.00,1.28
6195.00,1.28
6194.00,1.28
6193.00,1.28
6192.00,1.28
6191.00,1.28
6190.00,1.28
6189.00,1.29
6188.00,1.29
6187.00,1.29
6186.00,1.29
6185.00,1.29
6184.00,1.29
6183.00,1.29
6182.00,1.29
6181.00,1.29
6180.00,1.30
6179.00,1.30
6178.00,1.30
6177.00,1.30
6176.00,1.31
6175.00,1.31
6174.00,1.31
6173.00,1.31
6172.00,1.32
6171.00,1.32
6170.00,1.32
6169.00,1.32
6168.00,1.33
6167.00,1.33
6166.00,1.33
6165.00,1.33
6164.00,1.34
6163.00,1.34
6162.00,1.34
6161.00,1.34
6160.00,1.34
6159.00,1.35
6158.00,1.35
6157.00,1.35
6156.00,1.35
6155.00,1.35
6154.00,1.35
6153.00,1.35
6152.00,1.35
6151.00,1.35
6150.00,1.35
6149.00,1.35
6148.00,1.35
6147.00,1.35
6146.00,1.35
6145.00,1.35
6144.00,1.35
6143.00,1.35
6142.00,1.34
6141.00,1.34
6140.00,1.34
6139.00,1.34
6138.00,1.34
6137.00,1.34
6136.00,1.34
6135.00,1.34
6134.00,1.34
6133.00,1.34
6132.00,1.34
6131.00,1.34
6130.00,1.34
6129.00,1.34
6128.00,1.34
6127.00,1.34
6126.00,1.34
6125.00,1.34
6124.00,1.34
6123.00,1.34
6122.00,1.34
6121.00,1.35
6120.00,1.35
6119.00,1.35
6118.00,1.35
6117.00,1.36
6116.00,1.36
6115.00,1.36
6114.00,1.36
6113.00,1.37
6112.00,1.37
6111.00,1.37
6110.00,1.37
6109.00,1.37
6108.00,1.38
6107.00,1.38
6106.00,1.38
6105.00,1.38
6104.00,1.38
6103.00,1.38
6102.00,1.39
6101.00,1.39
6100.00,1.39
6099.00,1.39
6098.00,1.39
6097.00,1.39
6096.00,1.39
6095.00,1.39
6094.00,1.39
6093.00,1.39
6092.00,1.39
6091.00,1.39
6090.00,1.39
6089.00,1.39
6088.00,1.39
6087.00,1.39
6086.00,1.39
6085.00,1.39
6084.00,1.39
6083.00,1.39
6082.00,1.39
6081.00,1.39
6080.00,1.39
6079.00,1.39
6078.00,1.39
6077.00,1.39
6076.00,1.39
6075.00,1.39
6074.00,1.39
6073.00,1.39
6072.00,1.39
6071.00,1.39
6070.00,1.39
6069.00,1.39
6068.00,1.39
6067.00,1.39
6066.00,1.39
6065.00,1.39
6064.00,1.39
6063.00,1.40
6062.00,1.40
6061.00,1.40
6060.00,1.40
6059.00,1.40
6058.00,1.40
6057.00,1.40
6056.00,1.41
6055.00,1.41
6054.00,1.41
6053.00,1.41
6052.00,1.41
6051.00,1.41
6050.00,1.42
6049.00,1.42
6048.00,1.42
6047.00,1.42
6046.00,1.42
6045.00,1.42
6044.00,1.42
6043.00,1.43
6042.00,1.43
6041.00,1.43
6040.00,1.43
6039.00,1.43
6038.00,1.43
6037.00,1.43
6036.00,1.44
6035.00,1.44
6034.00,1.44
6033.00,1.44
6032.00,1.44
6031.00,1.44
6030.00,1.44
6029.00,1.44
6028.00,1.44
6027.00,1.44
6026.00,1.44
6025.00,1.44
6024.00,1.44
6023.00,1.44
6022.00,1.44
6021.00,1.43
6020.00,1.43
6019.00,1.43
6018.00,1.43
6017.00,1.43
6016.00,1.43
6015.00,1.43
6014.00,1.43
6013.00,1.43
6012.00,1.43
6011.00,1.43
6010.00,1.43
6009.00,1.43
6008.00,1.43
6007.00,1.43
6006.00,1.43
6005.00,1.43
6004.00,1.43
6003.00,1.43
6002.00,1.43
6001.00,1.43
6000.00,1.43
5999.00,1.43
5998.00,1.43
5997.00,1.43
5996.00,1.43
5995.00,1.43
5994.00,1.43
5993.00,1.43
5992.00,1.43
5991.00,1.43
5990.00,1.42
5989.00,1.42
5988.00,1.42
5987.00,1.42
5986.00,1.42
5985.00,1.42
5984.00,1.42
5983.00,1.42
5982.00,1.41
5981.00,1.41
5980.00,1.41
5979.00,1.41
5978.00,1.41
5977.00,1.41
5976.00,1.40
5975.00,1.40
5974.00,1.40
5973.00,1.40
5972.00,1.40
5971.00,1.39
5970.00,1.39
5969.00,1.39
5968.00,1.38
5967.00,1.38
5966.00,1.38
5965.00,1.37
5964.00,1.37
5963.00,1.37
5962.00,1.36
5961.00,1.36
5960.00,1.36
5959.00,1.36
5958.00,1.35
5957.00,1.35
5956.00,1.35
5955.00,1.34
5954.00,1.34
5953.00,1.34
5952.00,1.33
5951.00,1.33
5950.00,1.33
5949.00,1.33
5948.00,1.32
5947.00,1.32
5946.00,1.32
5945.00,1.32
5944.00,1.31
5943.00,1.31
5942.00,1.31
5941.00,1.31
5940.00,1.31
5939.00,1.31
5938.00,1.30
5937.00,1.30
5936.00,1.30
5935.00,1.30
5934.00,1.30
5933.00,1.30
5932.00,1.30
5931.00,1.30
5930.00,1.30
5929.00,1.30
5928.00,1.30
5927.00,1.30
5926.00,1.30
5925.00,1.30
5924.00,1.30
5923.00,1.30
5922.00,1.30
5921.00,1.30
5920.00,1.30
5919.00,1.30
5918.00,1.30
5917.00,1.30
5916.00,1.30
5915.00,1.30
5914.00,1.30
5913.00,1.30
5912.00,1.30
5911.00,1.30
5910.00,1.31
5909.00,1.31
5908.00,1.31
5907.00,1.31
5906.00,1.31
5905.00,1.31
5904.00,1.31
5903.00,1.32
5902.00,1.32
5901.00,1.32
5900.00,1.32
5899.00,1.32
5898.00,1.32
5897.00,1.32
5896.00,1.33
5895.00,1.33
5894.00,1.33
5893.00,1.33
5892.00,1.33
5891.00,1.34
5890.00,1.34
5889.00,1.34
5888.00,1.34
5887.00,1.34
5886.00,1.34
5885.00,1.35
5884.00,1.35
5883.00,1.35
5882.00,1.35
5881.00,1.35
5880.00,1.35
5879.00,1.35
5878.00,1.35
5877.00,1.35
5876.00,1.35
5875.00,1.35
5874.00,1.35
5873.00,1.35
5872.00,1.35
5871.00,1.35
5870.00,1.35
5869.00,1.34
5868.00,1.34
5867.00,1.34
5866.00,1.34
5865.00,1.34
5864.00,1.34
5863.00,1.34
5862.00,1.34
5861.00,1.34
5860.00,1.33
5859.00,1.33
5858.00,1.33
5857.00,1.33
5856.00,1.33
5855.00,1.33
5854.00,1.33
5853.00,1.34
5852.00,1.34
5851.00,1.34
5850.00,1.34
5849.00,1.34
5848.00,1.34
5847.00,1.34
5846.00,1.35
5845.00,1.35
5844.00,1.35
5843.00,1.35
5842.00,1.35
5841.00,1.35
5840.00,1.36
5839.00,1.36
5838.00,1.36
5837.00,1.36
5836.00,1.36
5835.00,1.37
5834.00,1.37
5833.00,1.37
5832.00,1.37
5831.00,1.37
5830.00,1.37
5829.00,1.37
5828.00,1.37
5827.00,1.37
5826.00,1.37
5825.00,1.37
5824.00,1.37
5823.00,1.37
5822.00,1.37
5821.00,1.37
5820.00,1.37
5819.00,1.37
5818.00,1.37
5817.00,1.37
5816.00,1.36
5815.00,1.36
5814.00,1.36
5813.00,1.36
5812.00,1.36
5811.00,1.36
5810.00,1.36
5809.00,1.35
5808.00,1.35
5807.00,1.35
5806.00,1.35
5805.00,1.35
5804.00,1.35
5803.00,1.35
5802.00,1.34
5801.00,1.34
5800.00,1.34
5799.00,1.34
5798.00,1.34
5797.00,1.34
5796.00,1.34
5795.00,1.33
5794.00,1.33
5793.00,1.33
5792.00,1.33
5791.00,1.33
5790.00,1.33
5789.00,1.33
5788.00,1.33
5787.00,1.33
5786.00,1.33
5785.00,1.33
5784.00,1.32
5783.00,1.32
5782.00,1.32
5781.00,1.32
5780.00,1.32
5779.00,1.32
5778.00,1.32
5777.00,1.32
5776.00,1.32
5775.00,1.32
5774.00,1.32
5773.00,1.32
5772.00,1.32
5771.00,1.32
5770.00,1.32
5769.00,1.33
5768.00,1.33
5767.00,1.33
5766.00,1.33
5765.00,1.33
5764.00,1.33
5763.00,1.33
5762.00,1.33
5761.00,1.33
5760.00,1.33
5759.00,1.33
5758.00,1.33
5757.00,1.33
5756.00,1.33
5755.00,1.33
5754.00,1.33
5753.00,1.33
5752.00,1.34
5751.00,1.34
5750.00,1.34
5749.00,1.34
5748.00,1.34
5747.00,1.34
5746.00,1.34
5745.00,1.34
5744.00,1.34
5743.00,1.34
5742.00,1.34
5741.00,1.35
5740.00,1.35
5739.00,1.35
5738.00,1.35
5737.00,1.35
5736.00,1.35
5735.00,1.35
5734.00,1.35
5733.00,1.36
5732.00,1.36
5731.00,1.36
5730.00,1.36
5729.00,1.36
5728.00,1.36
5727.00,1.36
5726.00,1.36
5725.00,1.36
5724.00,1.36
5723.00,1.36
5722.00,1.37
5721.00,1.37
5720.00,1.37
5719.00,1.37
5718.00,1.37
5717.00,1.37
5716.00,1.37
5715.00,1.37
5714.00,1.37
5713.00,1.37
5712.00,1.37
5711.00,1.37
5710.00,1.37
5709.00,1.37
5708.00,1.37
5707.00,1.37
5706.00,1.37
5705.00,1.37
5704.00,1.37
5703.00,1.37
5702.00,1.37
5701.00,1.36
5700.00,1.36
5699.00,1.36
5698.00,1.36
5697.00,1.36
5696.00,1.36
5695.00,1.36
5694.00,1.36
5693.00,1.36
5692.00,1.35
5691.00,1.35
5690.00,1.35
5689.00,1.35
5688.00,1.35
5687.00,1.35
5686.00,1.34
5685.00,1.34
5684.00,1.34
5683.00,1.34
5682.00,1.34
5681.00,1.34
5680.00,1.33
5679.00,1.33
5678.00,1.33
5677.00,1.33
5676.00,1.33
5675.00,1.33
5674.00,1.33
5673.00,1.32
5672.00,1.32
5671.00,1.32
5670.00,1.32
5669.00,1.32
5668.00,1.32
5667.00,1.32
5666.00,1.32
5665.00,1.32
5664.00,1.32
5663.00,1.32
5662.00,1.32
5661.00,1.32
5660.00,1.32
5659.00,1.32
5658.00,1.32
5657.00,1.32
5656.00,1.32
5655.00,1.32
5654.00,1.32
5653.00,1.32
5652.00,1.32
5651.00,1.32
5650.00,1.32
5649.00,1.32
5648.00,1.32
5647.00,1.32
5646.00,1.33
5645.00,1.33
5644.00,1.33
5643.00,1.33
5642.00,1.33
5641.00,1.33
5640.00,1.33
5639.00,1.33
5638.00,1.33
5637.00,1.33
5636.00,1.33
5635.00,1.33
5634.00,1.33
5633.00,1.33
5632.00,1.33
5631.00,1.34
5630.00,1.34
5629.00,1.34
5628.00,1.34
5627.00,1.34
5626.00,1.34
5625.00,1.34
5624.00,1.34
5623.00,1.34
5622.00,1.34
5621.00,1.35
5620.00,1.35
5619.00,1.35
5618.00,1.35
5617.00,1.35
5616.00,1.35
5615.00,1.36
5614.00,1.36
5613.00,1.36
5612.00,1.36
5611.00,1.37
5610.00,1.37
5609.00,1.37
5608.00,1.37
5607.00,1.38
5606.00,1.38
5605.00,1.38
5604.00,1.38
5603.00,1.39
5602.00,1.39
5601.00,1.39
5600.00,1.39
5599.00,1.39
5598.00,1.40
5597.00,1.40
5596.00,1.40
5595.00,1.40
5594.00,1.40
5593.00,1.40
5592.00,1.40
5591.00,1.40
5590.00,1.40
5589.00,1.40
5588.00,1.40
5587.00,1.40
5586.00,1.40
5585.00,1.40
5584.00,1.40
5583.00,1.40
5582.00,1.40
5581.00,1.40
5580.00,1.39
5579.00,1.39
5578.00,1.39
5577.00,1.39
5576.00,1.39
5575.00,1.39
5574.00,1.39
5573.00,1.39
5572.00,1.39
5571.00,1.39
5570.00,1.39
5569.00,1.39
5568.00,1.39
5567.00,1.39
5566.00,1.39
5565.00,1.39
5564.00,1.39
5563.00,1.39
5562.00,1.39
5561.00,1.40
5560.00,1.40
5559.00,1.40
5558.00,1.40
5557.00,1.40
5556.00,1.40
5555.00,1.40
5554.00,1.41
5553.00,1.41
5552.00,1.41
5551.00,1.41
5550.00,1.41
5549.00,1.41
5548.00,1.41
5547.00,1.41
5546.00,1.42
5545.00,1.42
5544.00,1.42
5543.00,1.42
5542.00,1.42
5541.00,1.42
5540.00,1.42
5539.00,1.42
5538.00,1.42
5537.00,1.42
5536.00,1.42
5535.00,1.42
5534.00,1.42
5533.00,1.42
5532.00,1.42
5531.00,1.42
5530.00,1.42
5529.00,1.42
5528.00,1.42
5527.00,1.42
5526.00,1.42
5525.00,1.43
5524.00,1.43
5523.00,1.43
5522.00,1.43
5521.00,1.43
5520.00,1.43
5519.00,1.43
5518.00,1.43
5517.00,1.43
5516.00,1.43
5515.00,1.43
5514.00,1.43
5513.00,1.43
5512.00,1.43
5511.00,1.43
5510.00,1.44
5509.00,1.44
5508.00,1.44
5507.00,1.44
5506.00,1.44
5505.00,1.44
5504.00,1.44
5503.00,1.44
5502.00,1.44
5501.00,1.44
5500.00,1.44
5499.00,1.44
5498.00,1.45
5497.00,1.45
5496.00,1.45
5495.00,1.45
5494.00,1.45
5493.00,1.45
5492.00,1.45
5491.00,1.45
5490.00,1.45
5489.00,1.45
5488.00,1.45
5487.00,1.45
5486.00,1.45
5485.00,1.45
5484.00,1.45
5483.00,1.45
5482.00,1.45
5481.00,1.45
5480.00,1.45
5479.00,1.45
5478.00,1.45
5477.00,1.45
5476.00,1.45
5475.00,1.45
5474.00,1.45
5473.00,1.45
5472.00,1.45
5471.00,1.45
5470.00,1.45
5469.00,1.45
5468.00,1.45
5467.00,1.45
5466.00,1.44
5465.00,1.44
5464.00,1.44
5463.00,1.44
5462.00,1.44
5461.00,1.44
5460.00,1.44
5459.00,1.44
5458.00,1.44
5457.00,1.44
5456.00,1.44
5455.00,1.44
5454.00,1.44
5453.00,1.43
5452.00,1.43
5451.00,1.43
5450.00,1.43
5449.00,1.43
5448.00,1.43
5447.00,1.43
5446.00,1.43
5445.00,1.43
5444.00,1.43
5443.00,1.43
5442.00,1.43
5441.00,1.43
5440.00,1.43
5439.00,1.43
5438.00,1.43
5437.00,1.43
5436.00,1.43
5435.00,1.43
5434.00,1.43
5433.00,1.43
5432.00,1.43
5431.00,1.43
5430.00,1.43
5429.00,1.43
5428.00,1.43
5427.00,1.43
5426.00,1.43
5425.00,1.43
5424.00,1.43
5423.00,1.43
5422.00,1.43
5421.00,1.43
5420.00,1.43
5419.00,1.42
5418.00,1.42
5417.00,1.42
5416.00,1.42
5415.00,1.42
5414.00,1.42
5413.00,1.42
5412.00,1.42
5411.00,1.42
5410.00,1.42
5409.00,1.42
5408.00,1.42
5407.00,1.42
5406.00,1.42
5405.00,1.42
5404.00,1.41
5403.00,1.41
5402.00,1.41
5401.00,1.41
5400.00,1.41
5399.00,1.41
5398.00,1.41
5397.00,1.41
5396.00,1.41
5395.00,1.41
5394.00,1.41
5393.00,1.41
5392.00,1.41
5391.00,1.41
5390.00,1.41
5389.00,1.41
5388.00,1.41
5387.00,1.40
5386.00,1.40
5385.00,1.40
5384.00,1.40
5383.00,1.39
5382.00,1.39
5381.00,1.39
5380.00,1.39
5379.00,1.38
5378.00,1.38
5377.00,1.38
5376.00,1.37
5375.00,1.37
5374.00,1.36
5373.00,1.36
5372.00,1.35
5371.00,1.35
5370.00,1.34
5369.00,1.34
5368.00,1.33
5367.00,1.32
5366.00,1.32
5365.00,1.31
5364.00,1.31
5363.00,1.30
5362.00,1.29
5361.00,1.28
5360.00,1.28
5359.00,1.27
5358.00,1.26
5357.00,1.25
5356.00,1.25
5355.00,1.24
5354.00,1.23
5353.00,1.22
5352.00,1.21
5351.00,1.21
5350.00,1.20
5349.00,1.19
5348.00,1.18
5347.00,1.18
5346.00,1.17
5345.00,1.16
5344.00,1.15
5343.00,1.14
5342.00,1.14
5341.00,1.13
5340.00,1.12
5339.00,1.11
5338.00,1.11
5337.00,1.10
5336.00,1.09
5335.00,1.08
5334.00,1.08
5333.00,1.07
5332.00,1.06
5331.00,1.06
5330.00,1.05
5329.00,1.04
5328.00,1.04
5327.00,1.03
5326.00,1.02
5325.00,1.01
5324.00,1.01
5323.00,1.00
5322.00,0.99
5321.00,0.98
5320.00,0.97
5319.00,0.97
5318.00,0.96
5317.00,0.95
5316.00,0.95
5315.00,0.94
5314.00,0.93
5313.00,0.92
5312.00,0.92
5311.00,0.91
5310.00,0.90
5309.00,0.90
5308.00,0.89
5307.00,0.88
5306.00,0.88
5305.00,0.87
5304.00,0.86
5303.00,0.85
5302.00,0.85
5301.00,0.84
5300.00,0.83
5299.00,0.83
5298.00,0.82
5297.00,0.82
5296.00,0.81
5295.00,0.81
5294.00,0.80
5293.00,0.79
5292.00,0.79
5291.00,0.78
5290.00,0.78
5289.00,0.77
5288.00,0.77
5287.00,0.76
5286.00,0.76
5285.00,0.76
5284.00,0.75
5283.00,0.75
5282.00,0.74
5281.00,0.74
5280.00,0.73
5279.00,0.73
5278.00,0.73
5277.00,0.72
5276.00,0.72
5275.00,0.72
5274.00,0.71
5273.00,0.71
5272.00,0.71
5271.00,0.70
5270.00,0.70
5269.00,0.70
5268.00,0.70
5267.00,0.69
5266.00,0.69
5265.00,0.69
5264.00,0.68
5263.00,0.68
5262.00,0.68
5261.00,0.68
5260.00,0.68
5259.00,0.67
5258.00,0.67
5257.00,0.67
5256.00,0.67
5255.00,0.67
5254.00,0.67
5253.00,0.66
5252.00,0.66
5251.00,0.66
5250.00,0.66
5249.00,0.66
5248.00,0.66
5247.00,0.66
5246.00,0.66
5245.00,0.66
5244.00,0.66
5243.00,0.66
5242.00,0.66
5241.00,0.66
5240.00,0.66
5239.00,0.66
5238.00,0.66
5237.00,0.66
5236.00,0.66
5235.00,0.66
5234.00,0.66
5233.00,0.66
5232.00,0.66
5231.00,0.66
5230.00,0.66
5229.00,0.66
5228.00,0.66
5227.00,0.66
5226.00,0.66
5225.00,0.66
5224.00,0.66
5223.00,0.66
5222.00,0.65
5221.00,0.65
5220.00,0.65
5219.00,0.65
5218.00,0.65
5217.00,0.65
5216.00,0.65
5215.00,0.65
5214.00,0.65
5213.00,0.65
5212.00,0.65
5211.00,0.65
5210.00,0.65
5209.00,0.65
5208.00,0.65
5207.00,0.65
5206.00,0.65
5205.00,0.65
5204.00,0.65
5203.00,0.65
5202.00,0.66
5201.00,0.66
5200.00,0.66
5199.00,0.66
5198.00,0.66
5197.00,0.66
5196.00,0.66
5195.00,0.66
5194.00,0.67
5193.00,0.67
5192.00,0.67
5191.00,0.67
5190.00,0.67
5189.00,0.67
5188.00,0.67
5187.00,0.67
5186.00,0.67
5185.00,0.67
5184.00,0.67
5183.00,0.67
5182.00,0.68
5181.00,0.68
5180.00,0.68
5179.00,0.68
5178.00,0.68
5177.00,0.68
5176.00,0.68
5175.00,0.68
5174.00,0.68
5173.00,0.68
5172.00,0.68
5171.00,0.68
5170.00,0.68
5169.00,0.68
5168.00,0.69
5167.00,0.69
5166.00,0.69
5165.00,0.69
5164.00,0.69
5163.00,0.69
5162.00,0.69
5161.00,0.69
5160.00,0.69
5159.00,0.69
5158.00,0.69
5157.00,0.69
5156.00,0.69
5155.00,0.69
5154.00,0.69
5153.00,0.69
5152.00,0.69
5151.00,0.69
5150.00,0.69
5149.00,0.69
5148.00,0.69
5147.00,0.69
5146.00,0.69
5145.00,0.69
5144.00,0.69
5143.00,0.69
5142.00,0.69
5141.00,0.69
5140.00,0.69
5139.00,0.69
5138.00,0.69
5137.00,0.69
5136.00,0.69
5135.00,0.68
5134.00,0.68
5133.00,0.68
5132.00,0.68
5131.00,0.68
5130.00,0.68
5129.00,0.68
5128.00,0.68
5127.00,0.68
5126.00,0.68
5125.00,0.68
5124.00,0.68
5123.00,0.68
5122.00,0.68
5121.00,0.68
5120.00,0.68
5119.00,0.69
5118.00,0.69
5117.00,0.69
5116.00,0.69
5115.00,0.69
5114.00,0.69
5113.00,0.69
5112.00,0.70
5111.00,0.70
5110.00,0.70
5109.00,0.70
5108.00,0.70
5107.00,0.71
5106.00,0.71
5105.00,0.71
5104.00,0.71
5103.00,0.71
5102.00,0.72
5101.00,0.72
5100.00,0.72
5099.00,0.72
5098.00,0.72
5097.00,0.73
5096.00,0.73
5095.00,0.73
5094.00,0.73
5093.00,0.73
5092.00,0.73
5091.00,0.73
5090.00,0.73
5089.00,0.73
5088.00,0.73
5087.00,0.73
5086.00,0.73
5085.00,0.73
5084.00,0.73
5083.00,0.73
5082.00,0.73
5081.00,0.73
5080.00,0.73
5079.00,0.73
5078.00,0.72
5077.00,0.72
5076.00,0.72
5075.00,0.72
5074.00,0.73
5073.00,0.73
5072.00,0.73
5071.00,0.73
5070.00,0.73
5069.00,0.73
5068.00,0.73
5067.00,0.73
5066.00,0.73
5065.00,0.73
5064.00,0.74
5063.00,0.74
5062.00,0.74
5061.00,0.74
5060.00,0.74
5059.00,0.75
5058.00,0.75
5057.00,0.75
5056.00,0.75
5055.00,0.76
5054.00,0.76
5053.00,0.76
5052.00,0.76
5051.00,0.76
5050.00,0.76
5049.00,0.77
5048.00,0.77
5047.00,0.77
5046.00,0.77
5045.00,0.77
5044.00,0.77
5043.00,0.77
5042.00,0.77
5041.00,0.77
5040.00,0.77
5039.00,0.77
5038.00,0.77
5037.00,0.77
5036.00,0.77
5035.00,0.77
5034.00,0.77
5033.00,0.77
5032.00,0.77
5031.00,0.77
5030.00,0.77
5029.00,0.77
5028.00,0.77
5027.00,0.77
5026.00,0.77
5025.00,0.77
5024.00,0.77
5023.00,0.77
5022.00,0.77
5021.00,0.77
5020.00,0.78
5019.00,0.78
5018.00,0.78
5017.00,0.78
5016.00,0.78
5015.00,0.78
5014.00,0.78
5013.00,0.78
5012.00,0.79
5011.00,0.79
5010.00,0.79
5009.00,0.79
5008.00,0.79
5007.00,0.79
5006.00,0.79
5005.00,0.79
5004.00,0.79
5003.00,0.79
5002.00,0.79
5001.00,0.80
5000.00,0.80
4999.00,0.80
4998.00,0.80
4997.00,0.80
4996.00,0.80
4995.00,0.80
4994.00,0.80
4993.00,0.80
4992.00,0.80
4991.00,0.80
4990.00,0.80
4989.00,0.80
4988.00,0.80
4987.00,0.80
4986.00,0.80
4985.00,0.80
4984.00,0.81
4983.00,0.81
4982.00,0.81
4981.00,0.81
4980.00,0.81
4979.00,0.81
4978.00,0.81
4977.00,0.81
4976.00,0.81
4975.00,0.81
4974.00,0.81
4973.00,0.81
4972.00,0.81
4971.00,0.82
4970.00,0.82
4969.00,0.82
4968.00,0.82
4967.00,0.82
4966.00,0.82
4965.00,0.82
4964.00,0.82
4963.00,0.82
4962.00,0.82
4961.00,0.83
4960.00,0.83
4959.00,0.83
4958.00,0.83
4957.00,0.83
4956.00,0.83
4955.00,0.83
4954.00,0.83
4953.00,0.84
4952.00,0.84
4951.00,0.84
4950.00,0.84
4949.00,0.84
4948.00,0.85
4947.00,0.85
4946.00,0.85
4945.00,0.85
4944.00,0.85
4943.00,0.86
4942.00,0.86
4941.00,0.86
4940.00,0.86
4939.00,0.86
4938.00,0.87
4937.00,0.87
4936.00,0.87
4935.00,0.87
4934.00,0.88
4933.00,0.88
4932.00,0.88
4931.00,0.88
4930.00,0.89
4929.00,0.89
4928.00,0.89
4927.00,0.89
4926.00,0.89
4925.00,0.90
4924.00,0.90
4923.00,0.90
4922.00,0.90
4921.00,0.90
4920.00,0.91
4919.00,0.91
4918.00,0.91
4917.00,0.91
4916.00,0.91
4915.00,0.92
4914.00,0.92
4913.00,0.92
4912.00,0.92
4911.00,0.92
4910.00,0.92
4909.00,0.92
4908.00,0.93
4907.00,0.93
4906.00,0.93
4905.00,0.93
4904.00,0.93
4903.00,0.93
4902.00,0.93
4901.00,0.93
4900.00,0.93
4899.00,0.93
4898.00,0.93
4897.00,0.93
4896.00,0.93
4895.00,0.93
4894.00,0.93
4893.00,0.93
4892.00,0.93
4891.00,0.93
4890.00,0.93
4889.00,0.93
4888.00,0.93
4887.00,0.93
4886.00,0.94
4885.00,0.94
4884.00,0.94
4883.00,0.94
4882.00,0.94
4881.00,0.94
4880.00,0.94
4879.00,0.94
4878.00,0.95
4877.00,0.95
4876.00,0.95
4875.00,0.95
4874.00,0.95
4873.00,0.95
4872.00,0.96
4871.00,0.96
4870.00,0.96
4869.00,0.96
4868.00,0.96
4867.00,0.96
4866.00,0.96
4865.00,0.96
4864.00,0.97
4863.00,0.97
4862.00,0.97
4861.00,0.97
4860.00,0.97
4859.00,0.97
4858.00,0.97
4857.00,0.97
4856.00,0.97
4855.00,0.97
4854.00,0.97
4853.00,0.97
4852.00,0.97
4851.00,0.97
4850.00,0.97
4849.00,0.97
4848.00,0.97
4847.00,0.97
4846.00,0.97
4845.00,0.97
4844.00,0.97
4843.00,0.98
4842.00,0.98
4841.00,0.98
4840.00,0.98
4839.00,0.98
4838.00,0.98
4837.00,0.98
4836.00,0.99
4835.00,0.99
4834.00,0.99
4833.00,0.99
4832.00,0.99
4831.00,1.00
4830.00,1.00
4829.00,1.00
4828.00,1.00
4827.00,1.00
4826.00,1.01
4825.00,1.01
4824.00,1.01
4823.00,1.01
4822.00,1.01
4821.00,1.02
4820.00,1.02
4819.00,1.02
4818.00,1.02
4817.00,1.02
4816.00,1.03
4815.00,1.03
4814.00,1.03
4813.00,1.03
4812.00,1.03
4811.00,1.03
4810.00,1.03
4809.00,1.03
4808.00,1.03
4807.00,1.03
4806.00,1.03
4805.00,1.03
4804.00,1.03
4803.00,1.03
4802.00,1.03
4801.00,1.04
4800.00,1.04
4799.00,1.04
4798.00,1.04
4797.00,1.04
4796.00,1.04
4795.00,1.04
4794.00,1.04
4793.00,1.05
4792.00,1.05
4791.00,1.05
4790.00,1.05
4789.00,1.05
4788.00,1.05
4787.00,1.05
4786.00,1.06
4785.00,1.06
4784.00,1.06
4783.00,1.06
4782.00,1.06
4781.00,1.06
4780.00,1.06
4779.00,1.07
4778.00,1.07
4777.00,1.07
4776.00,1.07
4775.00,1.07
4774.00,1.07
4773.00,1.08
4772.00,1.08
4771.00,1.08
4770.00,1.08
4769.00,1.08
4768.00,1.08
4767.00,1.08
4766.00,1.08
4765.00,1.09
4764.00,1.09
4763.00,1.09
4762.00,1.09
4761.00,1.09
4760.00,1.09
4759.00,1.09
4758.00,1.10
4757.00,1.10
4756.00,1.10
4755.00,1.10
4754.00,1.11
4753.00,1.11
4752.00,1.11
4751.00,1.12
4750.00,1.12
4749.00,1.12
4748.00,1.12
4747.00,1.13
4746.00,1.13
4745.00,1.13
4744.00,1.13
4743.00,1.14
4742.00,1.14
4741.00,1.14
4740.00,1.15
4739.00,1.15
4738.00,1.15
4737.00,1.16
4736.00,1.16
4735.00,1.16
4734.00,1.17
4733.00,1.17
4732.00,1.17
4731.00,1.17
4730.00,1.18
4729.00,1.18
4728.00,1.18
4727.00,1.18
4726.00,1.19
4725.00,1.19
4724.00,1.19
4723.00,1.19
4722.00,1.19
4721.00,1.20
4720.00,1.20
4719.00,1.20
4718.00,1.20
4717.00,1.21
4716.00,1.21
4715.00,1.21
4714.00,1.21
4713.00,1.22
4712.00,1.22
4711.00,1.22
4710.00,1.22
4709.00,1.22
4708.00,1.23
4707.00,1.23
4706.00,1.23
4705.00,1.23
4704.00,1.24
4703.00,1.24
4702.00,1.24
4701.00,1.24
4700.00,1.25
4699.00,1.25
4698.00,1.25
4697.00,1.26
4696.00,1.26
4695.00,1.26
4694.00,1.26
4693.00,1.26
4692.00,1.27
4691.00,1.27
4690.00,1.27
4689.00,1.27
4688.00,1.27
4687.00,1.28
4686.00,1.28
4685.00,1.28
4684.00,1.28
4683.00,1.28
4682.00,1.28
4681.00,1.29
4680.00,1.29
4679.00,1.29
4678.00,1.29
4677.00,1.29
4676.00,1.29
4675.00,1.29
4674.00,1.29
4673.00,1.30
4672.00,1.30
4671.00,1.30
4670.00,1.30
4669.00,1.30
4668.00,1.30
4667.00,1.30
4666.00,1.31
4665.00,1.31
4664.00,1.31
4663.00,1.31
4662.00,1.31
4661.00,1.31
4660.00,1.31
4659.00,1.31
4658.00,1.31
4657.00,1.31
4656.00,1.32
4655.00,1.32
4654.00,1.32
4653.00,1.32
4652.00,1.32
4651.00,1.32
4650.00,1.32
4649.00,1.32
4648.00,1.32
4647.00,1.32
4646.00,1.32
4645.00,1.33
4644.00,1.33
4643.00,1.33
4642.00,1.33
4641.00,1.33
4640.00,1.33
4639.00,1.33
4638.00,1.33
4637.00,1.33
4636.00,1.33
4635.00,1.33
4634.00,1.33
4633.00,1.33
4632.00,1.33
4631.00,1.33
4630.00,1.33
4629.00,1.33
4628.00,1.34
4627.00,1.34
4626.00,1.34
4625.00,1.34
4624.00,1.34
4623.00,1.34
4622.00,1.34
4621.00,1.34
4620.00,1.34
4619.00,1.35
4618.00,1.35
4617.00,1.35
4616.00,1.35
4615.00,1.35
4614.00,1.35
4613.00,1.36
4612.00,1.36
4611.00,1.36
4610.00,1.36
4609.00,1.36
4608.00,1.36
4607.00,1.36
4606.00,1.36
4605.00,1.36
4604.00,1.36
4603.00,1.36
4602.00,1.36
4601.00,1.36
4600.00,1.36
4599.00,1.36
4598.00,1.36
4597.00,1.36
4596.00,1.36
4595.00,1.36
4594.00,1.36
4593.00,1.36
4592.00,1.36
4591.00,1.36
4590.00,1.36
4589.00,1.36
4588.00,1.36
4587.00,1.36
4586.00,1.36
4585.00,1.36
4584.00,1.36
4583.00,1.36
4582.00,1.36
4581.00,1.36
4580.00,1.36
4579.00,1.36
4578.00,1.36
4577.00,1.36
4576.00,1.36
4575.00,1.37
4574.00,1.37
4573.00,1.37
4572.00,1.37
4571.00,1.37
4570.00,1.37
4569.00,1.37
4568.00,1.37
4567.00,1.37
4566.00,1.37
4565.00,1.38
4564.00,1.38
4563.00,1.38
4562.00,1.38
4561.00,1.38
4560.00,1.38
4559.00,1.38
4558.00,1.38
4557.00,1.38
4556.00,1.38
4555.00,1.38
4554.00,1.38
4553.00,1.39
4552.00,1.39
4551.00,1.39
4550.00,1.39
4549.00,1.39
4548.00,1.39
4547.00,1.39
4546.00,1.39
4545.00,1.39
4544.00,1.39
4543.00,1.39
4542.00,1.39
4541.00,1.39
4540.00,1.40
4539.00,1.40
4538.00,1.40
4537.00,1.40
4536.00,1.40
4535.00,1.40
4534.00,1.40
4533.00,1.40
4532.00,1.41
4531.00,1.41
4530.00,1.41
4529.00,1.41
4528.00,1.41
4527.00,1.41
4526.00,1.41
4525.00,1.42
4524.00,1.42
4523.00,1.42
4522.00,1.42
4521.00,1.42
4520.00,1.42
4519.00,1.42
4518.00,1.42
4517.00,1.42
4516.00,1.42
4515.00,1.42
4514.00,1.42
4513.00,1.42
4512.00,1.42
4511.00,1.42
4510.00,1.42
4509.00,1.42
4508.00,1.42
4507.00,1.42
4506.00,1.42
4505.00,1.41
4504.00,1.41
4503.00,1.41
4502.00,1.41
4501.00,1.41
4500.00,1.41
4499.00,1.41
4498.00,1.41
4497.00,1.40
4496.00,1.40
4495.00,1.40
4494.00,1.40
4493.00,1.40
4492.00,1.40
4491.00,1.39
4490.00,1.39
4489.00,1.39
4488.00,1.39
4487.00,1.39
4486.00,1.39
4485.00,1.39
4484.00,1.39
4483.00,1.39
4482.00,1.39
4481.00,1.39
4480.00,1.39
4479.00,1.38
4478.00,1.38
4477.00,1.38
4476.00,1.38
4475.00,1.38
4474.00,1.38
4473.00,1.38
4472.00,1.38
4471.00,1.37
4470.00,1.37
4469.00,1.37
4468.00,1.37
4467.00,1.37
4466.00,1.37
4465.00,1.37
4464.00,1.36
4463.00,1.36
4462.00,1.36
4461.00,1.35
4460.00,1.35
4459.00,1.35
4458.00,1.34
4457.00,1.34
4456.00,1.34
4455.00,1.33
4454.00,1.33
4453.00,1.32
4452.00,1.32
4451.00,1.31
4450.00,1.31
4449.00,1.31
4448.00,1.30
4447.00,1.30
4446.00,1.29
4445.00,1.29
4444.00,1.28
4443.00,1.28
4442.00,1.27
4441.00,1.26
4440.00,1.26
4439.00,1.25
4438.00,1.25
4437.00,1.24
4436.00,1.24
4435.00,1.23
4434.00,1.23
4433.00,1.22
4432.00,1.22
4431.00,1.21
4430.00,1.21
4429.00,1.20
4428.00,1.20
4427.00,1.19
4426.00,1.19
4425.00,1.18
4424.00,1.18
4423.00,1.17
4422.00,1.17
4421.00,1.17
4420.00,1.16
4419.00,1.16
4418.00,1.16
4417.00,1.15
4416.00,1.15
4415.00,1.15
4414.00,1.15
4413.00,1.15
4412.00,1.15
4411.00,1.15
4410.00,1.15
4409.00,1.15
4408.00,1.15
4407.00,1.15
4406.00,1.15
4405.00,1.16
4404.00,1.16
4403.00,1.16
4402.00,1.16
4401.00,1.17
4400.00,1.17
4399.00,1.17
4398.00,1.18
4397.00,1.18
4396.00,1.19
4395.00,1.19
4394.00,1.19
4393.00,1.20
4392.00,1.20
4391.00,1.20
4390.00,1.21
4389.00,1.21
4388.00,1.21
4387.00,1.22
4386.00,1.22
4385.00,1.22
4384.00,1.22
4383.00,1.22
4382.00,1.22
4381.00,1.23
4380.00,1.23
4379.00,1.23
4378.00,1.23
4377.00,1.23
4376.00,1.23
4375.00,1.22
4374.00,1.22
4373.00,1.22
4372.00,1.22
4371.00,1.22
4370.00,1.22
4369.00,1.22
4368.00,1.21
4367.00,1.21
4366.00,1.21
4365.00,1.21
4364.00,1.21
4363.00,1.21
4362.00,1.20
4361.00,1.20
4360.00,1.20
4359.00,1.20
4358.00,1.20
4357.00,1.20
4356.00,1.20
4355.00,1.20
4354.00,1.20
4353.00,1.20
4352.00,1.20
4351.00,1.20
4350.00,1.20
4349.00,1.20
4348.00,1.20
4347.00,1.20
4346.00,1.20
4345.00,1.20
4344.00,1.21
4343.00,1.21
4342.00,1.21
4341.00,1.21
4340.00,1.21
4339.00,1.21
4338.00,1.21
4337.00,1.21
4336.00,1.22
4335.00,1.22
4334.00,1.22
4333.00,1.22
4332.00,1.22
4331.00,1.22
4330.00,1.22
4329.00,1.22
4328.00,1.22
4327.00,1.22
4326.00,1.22
4325.00,1.22
4324.00,1.22
4323.00,1.23
4322.00,1.23
4321.00,1.23
4320.00,1.23
4319.00,1.23
4318.00,1.23
4317.00,1.24
4316.00,1.24
4315.00,1.24
4314.00,1.24
4313.00,1.24
4312.00,1.25
4311.00,1.25
4310.00,1.25
4309.00,1.25
4308.00,1.25
4307.00,1.26
4306.00,1.26
4305.00,1.26
4304.00,1.26
4303.00,1.27
4302.00,1.27
4301.00,1.27
4300.00,1.27
4299.00,1.28
4298.00,1.28
4297.00,1.28
4296.00,1.29
4295.00,1.29
4294.00,1.29
4293.00,1.29
4292.00,1.29
4291.00,1.29
4290.00,1.29
4289.00,1.30
4288.00,1.30
4287.00,1.30
4286.00,1.30
4285.00,1.30
4284.00,1.30
4283.00,1.30
4282.00,1.30
4281.00,1.30
4280.00,1.30
4279.00,1.30
4278.00,1.30
4277.00,1.30
4276.00,1.30
4275.00,1.30
4274.00,1.30
4273.00,1.30
4272.00,1.30
4271.00,1.30
4270.00,1.30
4269.00,1.30
4268.00,1.30
4267.00,1.29
4266.00,1.29
4265.00,1.29
4264.00,1.29
4263.00,1.29
4262.00,1.29
4261.00,1.29
4260.00,1.29
4259.00,1.29
4258.00,1.29
4257.00,1.29
4256.00,1.29
4255.00,1.28
4254.00,1.28
4253.00,1.28
4252.00,1.28
4251.00,1.28
4250.00,1.28
4249.00,1.28
4248.00,1.28
4247.00,1.28
4246.00,1.28
4245.00,1.28
4244.00,1.29
4243.00,1.29
4242.00,1.29
4241.00,1.29
4240.00,1.29
4239.00,1.29
4238.00,1.29
4237.00,1.30
4236.00,1.30
4235.00,1.30
4234.00,1.30
4233.00,1.30
4232.00,1.30
4231.00,1.30
4230.00,1.30
4229.00,1.30
4228.00,1.30
4227.00,1.30
4226.00,1.30
4225.00,1.30
4224.00,1.30
4223.00,1.30
4222.00,1.30
4221.00,1.30
4220.00,1.30
4219.00,1.30
4218.00,1.30
4217.00,1.30
4216.00,1.30
4215.00,1.30
4214.00,1.30
4213.00,1.30
4212.00,1.30
4211.00,1.30
4210.00,1.30
4209.00,1.30
4208.00,1.30
4207.00,1.30
4206.00,1.30
4205.00,1.30
4204.00,1.30
4203.00,1.31
4202.00,1.31
4201.00,1.31
4200.00,1.31
4199.00,1.31
4198.00,1.32
4197.00,1.32
4196.00,1.32
4195.00,1.32
4194.00,1.32
4193.00,1.33
4192.00,1.33
4191.00,1.33
4190.00,1.33
4189.00,1.33
4188.00,1.33
4187.00,1.33
4186.00,1.33
4185.00,1.33
4184.00,1.33
4183.00,1.33
4182.00,1.33
4181.00,1.32
4180.00,1.32
4179.00,1.32
4178.00,1.31
4177.00,1.31
4176.00,1.31
4175.00,1.30
4174.00,1.30
4173.00,1.30
4172.00,1.29
4171.00,1.29
4170.00,1.29
4169.00,1.29
4168.00,1.28
4167.00,1.28
4166.00,1.28
4165.00,1.28
4164.00,1.28
4163.00,1.28
4162.00,1.28
4161.00,1.28
4160.00,1.28
4159.00,1.28
4158.00,1.28
4157.00,1.29
4156.00,1.29
4155.00,1.29
4154.00,1.30
4153.00,1.30
4152.00,1.30
4151.00,1.31
4150.00,1.31
4149.00,1.32
4148.00,1.32
4147.00,1.32
4146.00,1.33
4145.00,1.33
4144.00,1.33
4143.00,1.33
4142.00,1.34
4141.00,1.34
4140.00,1.34
4139.00,1.34
4138.00,1.34
4137.00,1.34
4136.00,1.34
4135.00,1.34
4134.00,1.34
4133.00,1.33
4132.00,1.33
4131.00,1.33
4130.00,1.33
4129.00,1.32
4128.00,1.32
4127.00,1.32
4126.00,1.32
4125.00,1.31
4124.00,1.31
4123.00,1.31
4122.00,1.31
4121.00,1.30
4120.00,1.30
4119.00,1.30
4118.00,1.29
4117.00,1.29
4116.00,1.29
4115.00,1.29
4114.00,1.29
4113.00,1.29
4112.00,1.29
4111.00,1.29
4110.00,1.29
4109.00,1.29
4108.00,1.29
4107.00,1.29
4106.00,1.29
4105.00,1.29
4104.00,1.29
4103.00,1.29
4102.00,1.30
4101.00,1.30
4100.00,1.30
4099.00,1.30
4098.00,1.30
4097.00,1.30
4096.00,1.30
4095.00,1.30
4094.00,1.31
4093.00,1.31
4092.00,1.31
4091.00,1.31
4090.00,1.31
4089.00,1.30
4088.00,1.30
4087.00,1.30
4086.00,1.30
4085.00,1.30
4084.00,1.29
4083.00,1.29
4082.00,1.29
4081.00,1.28
4080.00,1.28
4079.00,1.28
4078.00,1.28
4077.00,1.27
4076.00,1.27
4075.00,1.27
4074.00,1.27
4073.00,1.26
4072.00,1.26
4071.00,1.26
4070.00,1.26
4069.00,1.26
4068.00,1.26
4067.00,1.25
4066.00,1.26
4065.00,1.26
4064.00,1.26
4063.00,1.26
4062.00,1.26
4061.00,1.27
4060.00,1.27
4059.00,1.28
4058.00,1.28
4057.00,1.29
4056.00,1.29
4055.00,1.30
4054.00,1.30
4053.00,1.31
4052.00,1.32
4051.00,1.32
4050.00,1.33
4049.00,1.33
4048.00,1.34
4047.00,1.34
4046.00,1.35
4045.00,1.35
4044.00,1.36
4043.00,1.36
4042.00,1.37
4041.00,1.37
4040.00,1.38
4039.00,1.38
4038.00,1.38
4037.00,1.39
4036.00,1.39
4035.00,1.40
4034.00,1.40
4033.00,1.40
4032.00,1.40
4031.00,1.40
4030.00,1.41
4029.00,1.41
4028.00,1.41
4027.00,1.41
4026.00,1.42
4025.00,1.43
4024.00,1.44
4023.00,1.45
4022.00,1.46
4021.00,1.48
4020.00,1.50
4019.00,1.53
4018.00,1.55
4017.00,1.59
4016.00,1.62
4015.00,1.66
4014.00,1.69
4013.00,1.74
4012.00,1.78
4011.00,1.83
4010.00,1.88
4009.00,1.93
4008.00,1.98
4007.00,2.04
4006.00,2.10
4005.00,2.17
4004.00,2.24
4003.00,2.31
4002.00,2.38
4001.00,2.46
4000.00,2.53
