创建为新数据集,样品 023 用户 Administrator 日期 星期五, 七月 26 2019
cm-1,%T
10000.00,0.73
9999.00,0.74
9998.00,0.74
9997.00,0.74
9996.00,0.75
9995.00,0.75
9994.00,0.76
9993.00,0.77
9992.00,0.77
9991.00,0.78
9990.00,0.79
9989.00,0.79
9988.00,0.79
9987.00,0.80
9986.00,0.79
9985.00,0.79
9984.00,0.78
9983.00,0.77
9982.00,0.76
9981.00,0.75
9980.00,0.74
9979.00,0.73
9978.00,0.71
9977.00,0.70
9976.00,0.69
9975.00,0.68
9974.00,0.67
9973.00,0.66
9972.00,0.65
9971.00,0.65
9970.00,0.64
9969.00,0.64
9968.00,0.63
9967.00,0.63
9966.00,0.62
9965.00,0.62
9964.00,0.61
9963.00,0.61
9962.00,0.61
9961.00,0.61
9960.00,0.60
9959.00,0.61
9958.00,0.61
9957.00,0.61
9956.00,0.62
9955.00,0.62
9954.00,0.63
9953.00,0.64
9952.00,0.65
9951.00,0.66
9950.00,0.67
9949.00,0.68
9948.00,0.69
9947.00,0.69
9946.00,0.70
9945.00,0.70
9944.00,0.70
9943.00,0.70
9942.00,0.70
9941.00,0.70
9940.00,0.70
9939.00,0.69
9938.00,0.69
9937.00,0.69
9936.00,0.68
9935.00,0.68
9934.00,0.67
9933.00,0.66
9932.00,0.66
9931.00,0.65
9930.00,0.64
9929.00,0.63
9928.00,0.61
9927.00,0.60
9926.00,0.58
9925.00,0.57
9924.00,0.56
9923.00,0.54
9922.00,0.53
9921.00,0.52
9920.00,0.51
9919.00,0.50
9918.00,0.49
9917.00,0.48
9916.00,0.47
9915.00,0.46
9914.00,0.46
9913.00,0.45
9912.00,0.45
9911.00,0.44
9910.00,0.44
9909.00,0.44
9908.00,0.43
9907.00,0.43
9906.00,0.43
9905.00,0.43
9904.00,0.44
9903.00,0.44
9902.00,0.44
9901.00,0.45
9900.00,0.45
9899.00,0.46
9898.00,0.46
9897.00,0.47
9896.00,0.47
9895.00,0.48
9894.00,0.48
9893.00,0.48
9892.00,0.49
9891.00,0.49
9890.00,0.49
9889.00,0.49
9888.00,0.49
9887.00,0.49
9886.00,0.49
9885.00,0.49
9884.00,0.49
9883.00,0.49
9882.00,0.49
9881.00,0.49
9880.00,0.49
9879.00,0.49
9878.00,0.49
9877.00,0.49
9876.00,0.49
9875.00,0.50
9874.00,0.50
9873.00,0.50
9872.00,0.51
9871.00,0.51
9870.00,0.51
9869.00,0.52
9868.00,0.52
9867.00,0.53
9866.00,0.54
9865.00,0.54
9864.00,0.55
9863.00,0.56
9862.00,0.57
9861.00,0.58
9860.00,0.59
9859.00,0.60
9858.00,0.61
9857.00,0.62
9856.00,0.63
9855.00,0.63
9854.00,0.64
9853.00,0.65
9852.00,0.65
9851.00,0.65
9850.00,0.66
9849.00,0.66
9848.00,0.66
9847.00,0.66
9846.00,0.66
9845.00,0.66
9844.00,0.66
9843.00,0.66
9842.00,0.65
9841.00,0.65
9840.00,0.65
9839.00,0.64
9838.00,0.64
9837.00,0.63
9836.00,0.63
9835.00,0.62
9834.00,0.61
9833.00,0.61
9832.00,0.60
9831.00,0.59
9830.00,0.58
9829.00,0.57
9828.00,0.57
9827.00,0.56
9826.00,0.55
9825.00,0.54
9824.00,0.53
9823.00,0.53
9822.00,0.52
9821.00,0.51
9820.00,0.51
9819.00,0.51
9818.00,0.50
9817.00,0.50
9816.00,0.50
9815.00,0.49
9814.00,0.49
9813.00,0.49
9812.00,0.49
9811.00,0.49
9810.00,0.49
9809.00,0.49
9808.00,0.49
9807.00,0.49
9806.00,0.50
9805.00,0.50
9804.00,0.50
9803.00,0.51
9802.00,0.51
9801.00,0.52
9800.00,0.52
9799.00,0.53
9798.00,0.53
9797.00,0.54
9796.00,0.54
9795.00,0.55
9794.00,0.55
9793.00,0.56
9792.00,0.56
9791.00,0.56
9790.00,0.56
9789.00,0.56
9788.00,0.56
9787.00,0.56
9786.00,0.56
9785.00,0.56
9784.00,0.56
9783.00,0.56
9782.00,0.56
9781.00,0.56
9780.00,0.56
9779.00,0.55
9778.00,0.55
9777.00,0.54
9776.00,0.54
9775.00,0.53
9774.00,0.53
9773.00,0.52
9772.00,0.51
9771.00,0.51
9770.00,0.50
9769.00,0.50
9768.00,0.49
9767.00,0.48
9766.00,0.48
9765.00,0.48
9764.00,0.47
9763.00,0.47
9762.00,0.47
9761.00,0.47
9760.00,0.46
9759.00,0.46
9758.00,0.46
9757.00,0.46
9756.00,0.47
9755.00,0.47
9754.00,0.47
9753.00,0.47
9752.00,0.48
9751.00,0.48
9750.00,0.49
9749.00,0.49
9748.00,0.50
9747.00,0.50
9746.00,0.51
9745.00,0.51
9744.00,0.52
9743.00,0.52
9742.00,0.53
9741.00,0.53
9740.00,0.53
9739.00,0.53
9738.00,0.53
9737.00,0.53
9736.00,0.53
9735.00,0.52
9734.00,0.52
9733.00,0.51
9732.00,0.51
9731.00,0.50
9730.00,0.50
9729.00,0.49
9728.00,0.48
9727.00,0.47
9726.00,0.47
9725.00,0.46
9724.00,0.45
9723.00,0.45
9722.00,0.44
9721.00,0.44
9720.00,0.44
9719.00,0.43
9718.00,0.43
9717.00,0.43
9716.00,0.43
9715.00,0.43
9714.00,0.43
9713.00,0.44
9712.00,0.44
9711.00,0.44
9710.00,0.45
9709.00,0.46
9708.00,0.46
9707.00,0.47
9706.00,0.47
9705.00,0.48
9704.00,0.48
9703.00,0.49
9702.00,0.49
9701.00,0.49
9700.00,0.50
9699.00,0.50
9698.00,0.50
9697.00,0.50
9696.00,0.50
9695.00,0.50
9694.00,0.50
9693.00,0.50
9692.00,0.49
9691.00,0.49
9690.00,0.48
9689.00,0.47
9688.00,0.47
9687.00,0.46
9686.00,0.45
9685.00,0.44
9684.00,0.44
9683.00,0.43
9682.00,0.42
9681.00,0.42
9680.00,0.41
9679.00,0.41
9678.00,0.41
9677.00,0.40
9676.00,0.40
9675.00,0.40
9674.00,0.40
9673.00,0.40
9672.00,0.40
9671.00,0.41
9670.00,0.41
9669.00,0.41
9668.00,0.41
9667.00,0.42
9666.00,0.42
9665.00,0.42
9664.00,0.43
9663.00,0.44
9662.00,0.44
9661.00,0.45
9660.00,0.46
9659.00,0.46
9658.00,0.47
9657.00,0.48
9656.00,0.48
9655.00,0.49
9654.00,0.50
9653.00,0.50
9652.00,0.50
9651.00,0.51
9650.00,0.51
9649.00,0.51
9648.00,0.51
9647.00,0.52
9646.00,0.52
9645.00,0.52
9644.00,0.52
9643.00,0.51
9642.00,0.51
9641.00,0.51
9640.00,0.51
9639.00,0.50
9638.00,0.50
9637.00,0.50
9636.00,0.49
9635.00,0.49
9634.00,0.48
9633.00,0.48
9632.00,0.47
9631.00,0.47
9630.00,0.46
9629.00,0.46
9628.00,0.45
9627.00,0.45
9626.00,0.45
9625.00,0.44
9624.00,0.44
9623.00,0.44
9622.00,0.43
9621.00,0.43
9620.00,0.43
9619.00,0.43
9618.00,0.43
9617.00,0.43
9616.00,0.44
9615.00,0.44
9614.00,0.44
9613.00,0.45
9612.00,0.45
9611.00,0.45
9610.00,0.46
9609.00,0.46
9608.00,0.47
9607.00,0.47
9606.00,0.47
9605.00,0.47
9604.00,0.48
9603.00,0.48
9602.00,0.48
9601.00,0.48
9600.00,0.48
9599.00,0.48
9598.00,0.48
9597.00,0.48
9596.00,0.48
9595.00,0.48
9594.00,0.47
9593.00,0.47
9592.00,0.47
9591.00,0.47
9590.00,0.46
9589.00,0.46
9588.00,0.45
9587.00,0.45
9586.00,0.44
9585.00,0.44
9584.00,0.43
9583.00,0.43
9582.00,0.42
9581.00,0.42
9580.00,0.42
9579.00,0.41
9578.00,0.41
9577.00,0.41
9576.00,0.41
9575.00,0.41
9574.00,0.41
9573.00,0.41
9572.00,0.41
9571.00,0.41
9570.00,0.41
9569.00,0.41
9568.00,0.41
9567.00,0.42
9566.00,0.42
9565.00,0.43
9564.00,0.43
9563.00,0.44
9562.00,0.44
9561.00,0.45
9560.00,0.45
9559.00,0.46
9558.00,0.46
9557.00,0.47
9556.00,0.47
9555.00,0.48
9554.00,0.48
9553.00,0.48
9552.00,0.49
9551.00,0.49
9550.00,0.49
9549.00,0.49
9548.00,0.50
9547.00,0.50
9546.00,0.50
9545.00,0.51
9544.00,0.51
9543.00,0.51
9542.00,0.52
9541.00,0.52
9540.00,0.52
9539.00,0.52
9538.00,0.52
9537.00,0.52
9536.00,0.51
9535.00,0.51
9534.00,0.51
9533.00,0.51
9532.00,0.50
9531.00,0.50
9530.00,0.50
9529.00,0.50
9528.00,0.50
9527.00,0.50
9526.00,0.50
9525.00,0.50
9524.00,0.50
9523.00,0.50
9522.00,0.49
9521.00,0.49
9520.00,0.48
9519.00,0.48
9518.00,0.47
9517.00,0.46
9516.00,0.45
9515.00,0.45
9514.00,0.44
9513.00,0.43
9512.00,0.43
9511.00,0.42
9510.00,0.42
9509.00,0.42
9508.00,0.41
9507.00,0.41
9506.00,0.41
9505.00,0.41
9504.00,0.40
9503.00,0.40
9502.00,0.40
9501.00,0.40
9500.00,0.40
9499.00,0.40
9498.00,0.40
9497.00,0.40
9496.00,0.40
9495.00,0.40
9494.00,0.41
9493.00,0.41
9492.00,0.42
9491.00,0.43
9490.00,0.43
9489.00,0.44
9488.00,0.45
9487.00,0.46
9486.00,0.47
9485.00,0.47
9484.00,0.48
9483.00,0.49
9482.00,0.49
9481.00,0.50
9480.00,0.50
9479.00,0.51
9478.00,0.51
9477.00,0.52
9476.00,0.52
9475.00,0.53
9474.00,0.53
9473.00,0.54
9472.00,0.54
9471.00,0.54
9470.00,0.55
9469.00,0.55
9468.00,0.55
9467.00,0.55
9466.00,0.55
9465.00,0.55
9464.00,0.55
9463.00,0.55
9462.00,0.55
9461.00,0.55
9460.00,0.55
9459.00,0.55
9458.00,0.55
9457.00,0.55
9456.00,0.55
9455.00,0.55
9454.00,0.55
9453.00,0.55
9452.00,0.55
9451.00,0.55
9450.00,0.55
9449.00,0.55
9448.00,0.55
9447.00,0.55
9446.00,0.55
9445.00,0.55
9444.00,0.55
9443.00,0.55
9442.00,0.55
9441.00,0.55
9440.00,0.56
9439.00,0.56
9438.00,0.56
9437.00,0.56
9436.00,0.57
9435.00,0.57
9434.00,0.57
9433.00,0.57
9432.00,0.57
9431.00,0.58
9430.00,0.58
9429.00,0.58
9428.00,0.58
9427.00,0.58
9426.00,0.58
9425.00,0.58
9424.00,0.58
9423.00,0.58
9422.00,0.58
9421.00,0.58
9420.00,0.58
9419.00,0.58
9418.00,0.57
9417.00,0.57
9416.00,0.57
9415.00,0.56
9414.00,0.56
9413.00,0.56
9412.00,0.55
9411.00,0.55
9410.00,0.54
9409.00,0.54
9408.00,0.53
9407.00,0.53
9406.00,0.52
9405.00,0.52
9404.00,0.51
9403.00,0.51
9402.00,0.51
9401.00,0.50
9400.00,0.50
9399.00,0.50
9398.00,0.50
9397.00,0.49
9396.00,0.49
9395.00,0.49
9394.00,0.49
9393.00,0.48
9392.00,0.48
9391.00,0.48
9390.00,0.48
9389.00,0.48
9388.00,0.48
9387.00,0.48
9386.00,0.48
9385.00,0.48
9384.00,0.48
9383.00,0.48
9382.00,0.48
9381.00,0.48
9380.00,0.48
9379.00,0.48
9378.00,0.47
9377.00,0.47
9376.00,0.47
9375.00,0.47
9374.00,0.47
9373.00,0.46
9372.00,0.46
9371.00,0.46
9370.00,0.46
9369.00,0.45
9368.00,0.45
9367.00,0.45
9366.00,0.44
9365.00,0.44
9364.00,0.44
9363.00,0.43
9362.00,0.43
9361.00,0.42
9360.00,0.42
9359.00,0.42
9358.00,0.41
9357.00,0.41
9356.00,0.41
9355.00,0.40
9354.00,0.40
9353.00,0.40
9352.00,0.40
9351.00,0.40
9350.00,0.40
9349.00,0.40
9348.00,0.40
9347.00,0.41
9346.00,0.41
9345.00,0.41
9344.00,0.42
9343.00,0.42
9342.00,0.43
9341.00,0.43
9340.00,0.44
9339.00,0.44
9338.00,0.45
9337.00,0.46
9336.00,0.47
9335.00,0.47
9334.00,0.48
9333.00,0.49
9332.00,0.50
9331.00,0.51
9330.00,0.51
9329.00,0.52
9328.00,0.53
9327.00,0.53
9326.00,0.54
9325.00,0.54
9324.00,0.55
9323.00,0.55
9322.00,0.56
9321.00,0.56
9320.00,0.56
9319.00,0.57
9318.00,0.57
9317.00,0.57
9316.00,0.57
9315.00,0.57
9314.00,0.58
9313.00,0.58
9312.00,0.58
9311.00,0.58
9310.00,0.57
9309.00,0.57
9308.00,0.57
9307.00,0.57
9306.00,0.56
9305.00,0.56
9304.00,0.56
9303.00,0.55
9302.00,0.55
9301.00,0.55
9300.00,0.54
9299.00,0.54
9298.00,0.54
9297.00,0.53
9296.00,0.52
9295.00,0.52
9294.00,0.51
9293.00,0.50
9292.00,0.49
9291.00,0.48
9290.00,0.47
9289.00,0.47
9288.00,0.46
9287.00,0.45
9286.00,0.44
9285.00,0.43
9284.00,0.42
9283.00,0.42
9282.00,0.41
9281.00,0.40
9280.00,0.40
9279.00,0.39
9278.00,0.39
9277.00,0.38
9276.00,0.38
9275.00,0.37
9274.00,0.37
9273.00,0.37
9272.00,0.36
9271.00,0.36
9270.00,0.36
9269.00,0.36
9268.00,0.36
9267.00,0.36
9266.00,0.37
9265.00,0.37
9264.00,0.37
9263.00,0.38
9262.00,0.38
9261.00,0.39
9260.00,0.39
9259.00,0.40
9258.00,0.40
9257.00,0.41
9256.00,0.41
9255.00,0.42
9254.00,0.42
9253.00,0.43
9252.00,0.43
9251.00,0.44
9250.00,0.44
9249.00,0.44
9248.00,0.45
9247.00,0.45
9246.00,0.46
9245.00,0.46
9244.00,0.46
9243.00,0.47
9242.00,0.47
9241.00,0.47
9240.00,0.47
9239.00,0.47
9238.00,0.48
9237.00,0.48
9236.00,0.48
9235.00,0.48
9234.00,0.48
9233.00,0.48
9232.00,0.48
9231.00,0.48
9230.00,0.48
9229.00,0.48
9228.00,0.48
9227.00,0.48
9226.00,0.48
9225.00,0.48
9224.00,0.47
9223.00,0.47
9222.00,0.47
9221.00,0.47
9220.00,0.47
9219.00,0.47
9218.00,0.46
9217.00,0.46
9216.00,0.46
9215.00,0.46
9214.00,0.46
9213.00,0.46
9212.00,0.46
9211.00,0.46
9210.00,0.46
9209.00,0.46
9208.00,0.45
9207.00,0.45
9206.00,0.45
9205.00,0.45
9204.00,0.46
9203.00,0.46
9202.00,0.46
9201.00,0.46
9200.00,0.47
9199.00,0.47
9198.00,0.48
9197.00,0.48
9196.00,0.49
9195.00,0.49
9194.00,0.49
9193.00,0.50
9192.00,0.50
9191.00,0.51
9190.00,0.51
9189.00,0.51
9188.00,0.52
9187.00,0.52
9186.00,0.52
9185.00,0.52
9184.00,0.53
9183.00,0.53
9182.00,0.53
9181.00,0.54
9180.00,0.54
9179.00,0.54
9178.00,0.54
9177.00,0.54
9176.00,0.54
9175.00,0.54
9174.00,0.54
9173.00,0.53
9172.00,0.53
9171.00,0.53
9170.00,0.53
9169.00,0.53
9168.00,0.52
9167.00,0.52
9166.00,0.52
9165.00,0.52
9164.00,0.51
9163.00,0.51
9162.00,0.51
9161.00,0.51
9160.00,0.51
9159.00,0.51
9158.00,0.51
9157.00,0.51
9156.00,0.51
9155.00,0.51
9154.00,0.50
9153.00,0.50
9152.00,0.50
9151.00,0.50
9150.00,0.50
9149.00,0.50
9148.00,0.50
9147.00,0.50
9146.00,0.49
9145.00,0.49
9144.00,0.49
9143.00,0.49
9142.00,0.49
9141.00,0.49
9140.00,0.48
9139.00,0.48
9138.00,0.48
9137.00,0.47
9136.00,0.47
9135.00,0.47
9134.00,0.46
9133.00,0.46
9132.00,0.46
9131.00,0.45
9130.00,0.45
9129.00,0.45
9128.00,0.45
9127.00,0.45
9126.00,0.45
9125.00,0.45
9124.00,0.45
9123.00,0.45
9122.00,0.45
9121.00,0.45
9120.00,0.45
9119.00,0.45
9118.00,0.45
9117.00,0.46
9116.00,0.46
9115.00,0.46
9114.00,0.47
9113.00,0.47
9112.00,0.48
9111.00,0.48
9110.00,0.49
9109.00,0.50
9108.00,0.50
9107.00,0.51
9106.00,0.51
9105.00,0.52
9104.00,0.52
9103.00,0.53
9102.00,0.53
9101.00,0.53
9100.00,0.53
9099.00,0.53
9098.00,0.53
9097.00,0.54
9096.00,0.54
9095.00,0.54
9094.00,0.53
9093.00,0.53
9092.00,0.53
9091.00,0.53
9090.00,0.52
9089.00,0.52
9088.00,0.52
9087.00,0.51
9086.00,0.50
9085.00,0.50
9084.00,0.49
9083.00,0.48
9082.00,0.47
9081.00,0.46
9080.00,0.46
9079.00,0.45
9078.00,0.44
9077.00,0.43
9076.00,0.43
9075.00,0.42
9074.00,0.41
9073.00,0.41
9072.00,0.40
9071.00,0.40
9070.00,0.39
9069.00,0.39
9068.00,0.39
9067.00,0.38
9066.00,0.38
9065.00,0.38
9064.00,0.38
9063.00,0.38
9062.00,0.38
9061.00,0.38
9060.00,0.39
9059.00,0.39
9058.00,0.39
9057.00,0.40
9056.00,0.40
9055.00,0.40
9054.00,0.41
9053.00,0.41
9052.00,0.42
9051.00,0.42
9050.00,0.43
9049.00,0.43
9048.00,0.44
9047.00,0.44
9046.00,0.45
9045.00,0.45
9044.00,0.46
9043.00,0.46
9042.00,0.47
9041.00,0.47
9040.00,0.47
9039.00,0.48
9038.00,0.48
9037.00,0.48
9036.00,0.48
9035.00,0.49
9034.00,0.49
9033.00,0.49
9032.00,0.49
9031.00,0.49
9030.00,0.49
9029.00,0.50
9028.00,0.50
9027.00,0.50
9026.00,0.50
9025.00,0.50
9024.00,0.51
9023.00,0.51
9022.00,0.51
9021.00,0.52
9020.00,0.52
9019.00,0.52
9018.00,0.52
9017.00,0.52
9016.00,0.53
9015.00,0.53
9014.00,0.53
9013.00,0.53
9012.00,0.54
9011.00,0.54
9010.00,0.54
9009.00,0.55
9008.00,0.55
9007.00,0.55
9006.00,0.55
9005.00,0.55
9004.00,0.56
9003.00,0.56
9002.00,0.56
9001.00,0.55
9000.00,0.55
8999.00,0.55
8998.00,0.55
8997.00,0.54
8996.00,0.54
8995.00,0.54
8994.00,0.53
8993.00,0.53
8992.00,0.52
8991.00,0.52
8990.00,0.52
8989.00,0.51
8988.00,0.51
8987.00,0.50
8986.00,0.50
8985.00,0.49
8984.00,0.49
8983.00,0.48
8982.00,0.48
8981.00,0.47
8980.00,0.47
8979.00,0.46
8978.00,0.46
8977.00,0.46
8976.00,0.45
8975.00,0.45
8974.00,0.45
8973.00,0.45
8972.00,0.45
8971.00,0.45
8970.00,0.45
8969.00,0.45
8968.00,0.44
8967.00,0.44
8966.00,0.44
8965.00,0.44
8964.00,0.44
8963.00,0.44
8962.00,0.44
8961.00,0.43
8960.00,0.43
8959.00,0.43
8958.00,0.43
8957.00,0.43
8956.00,0.43
8955.00,0.43
8954.00,0.43
8953.00,0.43
8952.00,0.42
8951.00,0.42
8950.00,0.42
8949.00,0.42
8948.00,0.42
8947.00,0.42
8946.00,0.41
8945.00,0.41
8944.00,0.41
8943.00,0.41
8942.00,0.41
8941.00,0.41
8940.00,0.41
8939.00,0.41
8938.00,0.41
8937.00,0.42
8936.00,0.42
8935.00,0.42
8934.00,0.43
8933.00,0.43
8932.00,0.43
8931.00,0.44
8930.00,0.44
8929.00,0.45
8928.00,0.45
8927.00,0.45
8926.00,0.46
8925.00,0.46
8924.00,0.47
8923.00,0.47
8922.00,0.48
8921.00,0.48
8920.00,0.49
8919.00,0.49
8918.00,0.49
8917.00,0.50
8916.00,0.50
8915.00,0.51
8914.00,0.51
8913.00,0.52
8912.00,0.52
8911.00,0.52
8910.00,0.52
8909.00,0.52
8908.00,0.52
8907.00,0.52
8906.00,0.52
8905.00,0.52
8904.00,0.52
8903.00,0.52
8902.00,0.52
8901.00,0.52
8900.00,0.51
8899.00,0.51
8898.00,0.51
8897.00,0.51
8896.00,0.51
8895.00,0.51
8894.00,0.50
8893.00,0.50
8892.00,0.50
8891.00,0.50
8890.00,0.49
8889.00,0.49
8888.00,0.49
8887.00,0.49
8886.00,0.48
8885.00,0.48
8884.00,0.48
8883.00,0.48
8882.00,0.48
8881.00,0.48
8880.00,0.48
8879.00,0.48
8878.00,0.48
8877.00,0.48
8876.00,0.48
8875.00,0.49
8874.00,0.49
8873.00,0.49
8872.00,0.49
8871.00,0.49
8870.00,0.49
8869.00,0.50
8868.00,0.50
8867.00,0.50
8866.00,0.50
8865.00,0.50
8864.00,0.51
8863.00,0.51
8862.00,0.51
8861.00,0.51
8860.00,0.52
8859.00,0.52
8858.00,0.52
8857.00,0.52
8856.00,0.52
8855.00,0.52
8854.00,0.52
8853.00,0.52
8852.00,0.52
8851.00,0.52
8850.00,0.52
8849.00,0.52
8848.00,0.52
8847.00,0.52
8846.00,0.52
8845.00,0.52
8844.00,0.52
8843.00,0.52
8842.00,0.51
8841.00,0.51
8840.00,0.51
8839.00,0.51
8838.00,0.51
8837.00,0.51
8836.00,0.51
8835.00,0.51
8834.00,0.51
8833.00,0.50
8832.00,0.50
8831.00,0.50
8830.00,0.50
8829.00,0.50
8828.00,0.50
8827.00,0.50
8826.00,0.50
8825.00,0.50
8824.00,0.50
8823.00,0.50
8822.00,0.50
8821.00,0.50
8820.00,0.50
8819.00,0.50
8818.00,0.49
8817.00,0.49
8816.00,0.49
8815.00,0.49
8814.00,0.48
8813.00,0.48
8812.00,0.48
8811.00,0.48
8810.00,0.47
8809.00,0.47
8808.00,0.47
8807.00,0.47
8806.00,0.47
8805.00,0.46
8804.00,0.46
8803.00,0.46
8802.00,0.46
8801.00,0.46
8800.00,0.46
8799.00,0.46
8798.00,0.45
8797.00,0.45
8796.00,0.45
8795.00,0.45
8794.00,0.45
8793.00,0.46
8792.00,0.46
8791.00,0.46
8790.00,0.46
8789.00,0.47
8788.00,0.47
8787.00,0.47
8786.00,0.48
8785.00,0.48
8784.00,0.49
8783.00,0.49
8782.00,0.49
8781.00,0.50
8780.00,0.50
8779.00,0.50
8778.00,0.51
8777.00,0.51
8776.00,0.51
8775.00,0.51
8774.00,0.52
8773.00,0.52
8772.00,0.52
8771.00,0.52
8770.00,0.53
8769.00,0.53
8768.00,0.53
8767.00,0.53
8766.00,0.53
8765.00,0.53
8764.00,0.53
8763.00,0.53
8762.00,0.53
8761.00,0.52
8760.00,0.52
8759.00,0.52
8758.00,0.52
8757.00,0.51
8756.00,0.51
8755.00,0.51
8754.00,0.51
8753.00,0.51
8752.00,0.50
8751.00,0.50
8750.00,0.50
8749.00,0.50
8748.00,0.50
8747.00,0.50
8746.00,0.50
8745.00,0.50
8744.00,0.50
8743.00,0.50
8742.00,0.50
8741.00,0.50
8740.00,0.50
8739.00,0.50
8738.00,0.50
8737.00,0.50
8736.00,0.50
8735.00,0.51
8734.00,0.51
8733.00,0.51
8732.00,0.52
8731.00,0.52
8730.00,0.52
8729.00,0.53
8728.00,0.53
8727.00,0.53
8726.00,0.53
8725.00,0.53
8724.00,0.53
8723.00,0.53
8722.00,0.53
8721.00,0.53
8720.00,0.53
8719.00,0.53
8718.00,0.53
8717.00,0.52
8716.00,0.52
8715.00,0.52
8714.00,0.52
8713.00,0.52
8712.00,0.52
8711.00,0.51
8710.00,0.51
8709.00,0.51
8708.00,0.51
8707.00,0.50
8706.00,0.50
8705.00,0.50
8704.00,0.49
8703.00,0.49
8702.00,0.49
8701.00,0.49
8700.00,0.49
8699.00,0.48
8698.00,0.48
8697.00,0.48
8696.00,0.48
8695.00,0.48
8694.00,0.47
8693.00,0.47
8692.00,0.47
8691.00,0.47
8690.00,0.47
8689.00,0.47
8688.00,0.47
8687.00,0.47
8686.00,0.46
8685.00,0.46
8684.00,0.46
8683.00,0.46
8682.00,0.45
8681.00,0.45
8680.00,0.44
8679.00,0.44
8678.00,0.43
8677.00,0.43
8676.00,0.43
8675.00,0.42
8674.00,0.42
8673.00,0.42
8672.00,0.42
8671.00,0.42
8670.00,0.41
8669.00,0.41
8668.00,0.41
8667.00,0.41
8666.00,0.40
8665.00,0.40
8664.00,0.40
8663.00,0.39
8662.00,0.39
8661.00,0.39
8660.00,0.39
8659.00,0.38
8658.00,0.38
8657.00,0.38
8656.00,0.38
8655.00,0.38
8654.00,0.38
8653.00,0.38
8652.00,0.38
8651.00,0.38
8650.00,0.38
8649.00,0.38
8648.00,0.38
8647.00,0.38
8646.00,0.38
8645.00,0.38
8644.00,0.38
8643.00,0.38
8642.00,0.37
8641.00,0.37
8640.00,0.37
8639.00,0.38
8638.00,0.38
8637.00,0.38
8636.00,0.38
8635.00,0.38
8634.00,0.39
8633.00,0.39
8632.00,0.39
8631.00,0.39
8630.00,0.40
8629.00,0.40
8628.00,0.40
8627.00,0.41
8626.00,0.41
8625.00,0.42
8624.00,0.42
8623.00,0.43
8622.00,0.43
8621.00,0.43
8620.00,0.44
8619.00,0.44
8618.00,0.44
8617.00,0.45
8616.00,0.45
8615.00,0.45
8614.00,0.46
8613.00,0.46
8612.00,0.46
8611.00,0.46
8610.00,0.47
8609.00,0.47
8608.00,0.47
8607.00,0.47
8606.00,0.47
8605.00,0.47
8604.00,0.47
8603.00,0.47
8602.00,0.47
8601.00,0.47
8600.00,0.47
8599.00,0.47
8598.00,0.47
8597.00,0.47
8596.00,0.47
8595.00,0.47
8594.00,0.47
8593.00,0.47
8592.00,0.48
8591.00,0.48
8590.00,0.48
8589.00,0.48
8588.00,0.48
8587.00,0.48
8586.00,0.48
8585.00,0.48
8584.00,0.48
8583.00,0.48
8582.00,0.48
8581.00,0.48
8580.00,0.47
8579.00,0.47
8578.00,0.47
8577.00,0.47
8576.00,0.47
8575.00,0.46
8574.00,0.46
8573.00,0.46
8572.00,0.46
8571.00,0.45
8570.00,0.45
8569.00,0.44
8568.00,0.44
8567.00,0.44
8566.00,0.43
8565.00,0.42
8564.00,0.42
8563.00,0.41
8562.00,0.41
8561.00,0.41
8560.00,0.40
8559.00,0.40
8558.00,0.40
8557.00,0.40
8556.00,0.39
8555.00,0.39
8554.00,0.39
8553.00,0.39
8552.00,0.39
8551.00,0.39
8550.00,0.39
8549.00,0.39
8548.00,0.39
8547.00,0.39
8546.00,0.40
8545.00,0.40
8544.00,0.40
8543.00,0.40
8542.00,0.40
8541.00,0.40
8540.00,0.41
8539.00,0.41
8538.00,0.41
8537.00,0.42
8536.00,0.42
8535.00,0.42
8534.00,0.43
8533.00,0.43
8532.00,0.43
8531.00,0.44
8530.00,0.44
8529.00,0.44
8528.00,0.45
8527.00,0.45
8526.00,0.45
8525.00,0.46
8524.00,0.46
8523.00,0.46
8522.00,0.47
8521.00,0.47
8520.00,0.47
8519.00,0.48
8518.00,0.48
8517.00,0.48
8516.00,0.48
8515.00,0.49
8514.00,0.49
8513.00,0.49
8512.00,0.50
8511.00,0.50
8510.00,0.50
8509.00,0.51
8508.00,0.51
8507.00,0.51
8506.00,0.51
8505.00,0.52
8504.00,0.52
8503.00,0.52
8502.00,0.53
8501.00,0.53
8500.00,0.53
8499.00,0.53
8498.00,0.53
8497.00,0.54
8496.00,0.54
8495.00,0.54
8494.00,0.54
8493.00,0.55
8492.00,0.55
8491.00,0.55
8490.00,0.55
8489.00,0.55
8488.00,0.55
8487.00,0.55
8486.00,0.55
8485.00,0.55
8484.00,0.55
8483.00,0.55
8482.00,0.55
8481.00,0.55
8480.00,0.55
8479.00,0.55
8478.00,0.55
8477.00,0.54
8476.00,0.54
8475.00,0.54
8474.00,0.54
8473.00,0.53
8472.00,0.53
8471.00,0.53
8470.00,0.52
8469.00,0.52
8468.00,0.52
8467.00,0.51
8466.00,0.51
8465.00,0.51
8464.00,0.50
8463.00,0.50
8462.00,0.50
8461.00,0.50
8460.00,0.49
8459.00,0.49
8458.00,0.49
8457.00,0.49
8456.00,0.49
8455.00,0.49
8454.00,0.49
8453.00,0.49
8452.00,0.49
8451.00,0.49
8450.00,0.49
8449.00,0.49
8448.00,0.50
8447.00,0.50
8446.00,0.50
8445.00,0.50
8444.00,0.51
8443.00,0.51
8442.00,0.51
8441.00,0.51
8440.00,0.51
8439.00,0.52
8438.00,0.52
8437.00,0.52
8436.00,0.52
8435.00,0.52
8434.00,0.52
8433.00,0.52
8432.00,0.52
8431.00,0.52
8430.00,0.52
8429.00,0.52
8428.00,0.52
8427.00,0.52
8426.00,0.52
8425.00,0.52
8424.00,0.52
8423.00,0.52
8422.00,0.52
8421.00,0.52
8420.00,0.52
8419.00,0.52
8418.00,0.51
8417.00,0.51
8416.00,0.51
8415.00,0.51
8414.00,0.51
8413.00,0.51
8412.00,0.51
8411.00,0.51
8410.00,0.51
8409.00,0.51
8408.00,0.51
8407.00,0.51
8406.00,0.51
8405.00,0.51
8404.00,0.50
8403.00,0.50
8402.00,0.50
8401.00,0.50
8400.00,0.50
8399.00,0.50
8398.00,0.49
8397.00,0.49
8396.00,0.49
8395.00,0.49
8394.00,0.48
8393.00,0.48
8392.00,0.48
8391.00,0.48
8390.00,0.48
8389.00,0.48
8388.00,0.48
8387.00,0.48
8386.00,0.48
8385.00,0.48
8384.00,0.48
8383.00,0.48
8382.00,0.48
8381.00,0.48
8380.00,0.48
8379.00,0.48
8378.00,0.48
8377.00,0.49
8376.00,0.49
8375.00,0.49
8374.00,0.49
8373.00,0.49
8372.00,0.50
8371.00,0.50
8370.00,0.50
8369.00,0.51
8368.00,0.51
8367.00,0.51
8366.00,0.52
8365.00,0.52
8364.00,0.52
8363.00,0.52
8362.00,0.53
8361.00,0.53
8360.00,0.53
8359.00,0.53
8358.00,0.53
8357.00,0.53
8356.00,0.53
8355.00,0.53
8354.00,0.53
8353.00,0.54
8352.00,0.54
8351.00,0.54
8350.00,0.54
8349.00,0.54
8348.00,0.54
8347.00,0.54
8346.00,0.54
8345.00,0.54
8344.00,0.54
8343.00,0.54
8342.00,0.53
8341.00,0.53
8340.00,0.53
8339.00,0.53
8338.00,0.52
8337.00,0.52
8336.00,0.52
8335.00,0.52
8334.00,0.52
8333.00,0.52
8332.00,0.52
8331.00,0.52
8330.00,0.51
8329.00,0.51
8328.00,0.51
8327.00,0.51
8326.00,0.51
8325.00,0.51
8324.00,0.51
8323.00,0.51
8322.00,0.51
8321.00,0.51
8320.00,0.51
8319.00,0.51
8318.00,0.51
8317.00,0.51
8316.00,0.51
8315.00,0.50
8314.00,0.50
8313.00,0.50
8312.00,0.51
8311.00,0.51
8310.00,0.51
8309.00,0.50
8308.00,0.50
8307.00,0.50
8306.00,0.50
8305.00,0.50
8304.00,0.50
8303.00,0.50
8302.00,0.50
8301.00,0.49
8300.00,0.49
8299.00,0.49
8298.00,0.49
8297.00,0.49
8296.00,0.48
8295.00,0.48
8294.00,0.48
8293.00,0.48
8292.00,0.48
8291.00,0.48
8290.00,0.48
8289.00,0.48
8288.00,0.48
8287.00,0.48
8286.00,0.48
8285.00,0.48
8284.00,0.48
8283.00,0.48
8282.00,0.48
8281.00,0.49
8280.00,0.49
8279.00,0.49
8278.00,0.49
8277.00,0.49
8276.00,0.49
8275.00,0.49
8274.00,0.49
8273.00,0.49
8272.00,0.49
8271.00,0.49
8270.00,0.49
8269.00,0.49
8268.00,0.49
8267.00,0.49
8266.00,0.48
8265.00,0.48
8264.00,0.48
8263.00,0.48
8262.00,0.47
8261.00,0.47
8260.00,0.47
8259.00,0.46
8258.00,0.46
8257.00,0.46
8256.00,0.46
8255.00,0.45
8254.00,0.45
8253.00,0.45
8252.00,0.45
8251.00,0.45
8250.00,0.45
8249.00,0.45
8248.00,0.46
8247.00,0.46
8246.00,0.46
8245.00,0.46
8244.00,0.47
8243.00,0.47
8242.00,0.47
8241.00,0.48
8240.00,0.48
8239.00,0.49
8238.00,0.49
8237.00,0.50
8236.00,0.50
8235.00,0.51
8234.00,0.52
8233.00,0.52
8232.00,0.53
8231.00,0.54
8230.00,0.54
8229.00,0.55
8228.00,0.55
8227.00,0.56
8226.00,0.56
8225.00,0.57
8224.00,0.57
8223.00,0.57
8222.00,0.57
8221.00,0.57
8220.00,0.57
8219.00,0.58
8218.00,0.58
8217.00,0.58
8216.00,0.57
8215.00,0.57
8214.00,0.57
8213.00,0.57
8212.00,0.57
8211.00,0.57
8210.00,0.57
8209.00,0.57
8208.00,0.57
8207.00,0.57
8206.00,0.56
8205.00,0.56
8204.00,0.56
8203.00,0.56
8202.00,0.55
8201.00,0.55
8200.00,0.55
8199.00,0.55
8198.00,0.55
8197.00,0.54
8196.00,0.54
8195.00,0.54
8194.00,0.54
8193.00,0.54
8192.00,0.54
8191.00,0.54
8190.00,0.54
8189.00,0.53
8188.00,0.53
8187.00,0.53
8186.00,0.53
8185.00,0.53
8184.00,0.53
8183.00,0.52
8182.00,0.52
8181.00,0.52
8180.00,0.52
8179.00,0.52
8178.00,0.51
8177.00,0.51
8176.00,0.51
8175.00,0.51
8174.00,0.51
8173.00,0.51
8172.00,0.51
8171.00,0.50
8170.00,0.50
8169.00,0.50
8168.00,0.50
8167.00,0.50
8166.00,0.50
8165.00,0.50
8164.00,0.50
8163.00,0.49
8162.00,0.49
8161.00,0.49
8160.00,0.49
8159.00,0.49
8158.00,0.49
8157.00,0.49
8156.00,0.49
8155.00,0.49
8154.00,0.50
8153.00,0.50
8152.00,0.50
8151.00,0.50
8150.00,0.50
8149.00,0.50
8148.00,0.50
8147.00,0.50
8146.00,0.50
8145.00,0.50
8144.00,0.51
8143.00,0.51
8142.00,0.51
8141.00,0.51
8140.00,0.51
8139.00,0.52
8138.00,0.52
8137.00,0.52
8136.00,0.52
8135.00,0.53
8134.00,0.53
8133.00,0.53
8132.00,0.53
8131.00,0.53
8130.00,0.53
8129.00,0.54
8128.00,0.54
8127.00,0.54
8126.00,0.54
8125.00,0.54
8124.00,0.54
8123.00,0.54
8122.00,0.54
8121.00,0.54
8120.00,0.54
8119.00,0.53
8118.00,0.53
8117.00,0.53
8116.00,0.53
8115.00,0.53
8114.00,0.53
8113.00,0.52
8112.00,0.52
8111.00,0.52
8110.00,0.52
8109.00,0.51
8108.00,0.51
8107.00,0.51
8106.00,0.51
8105.00,0.51
8104.00,0.50
8103.00,0.50
8102.00,0.50
8101.00,0.50
8100.00,0.50
8099.00,0.50
8098.00,0.50
8097.00,0.50
8096.00,0.50
8095.00,0.50
8094.00,0.50
8093.00,0.50
8092.00,0.50
8091.00,0.50
8090.00,0.51
8089.00,0.51
8088.00,0.51
8087.00,0.51
8086.00,0.52
8085.00,0.52
8084.00,0.52
8083.00,0.52
8082.00,0.53
8081.00,0.53
8080.00,0.53
8079.00,0.53
8078.00,0.54
8077.00,0.54
8076.00,0.54
8075.00,0.55
8074.00,0.55
8073.00,0.55
8072.00,0.56
8071.00,0.56
8070.00,0.56
8069.00,0.57
8068.00,0.57
8067.00,0.57
8066.00,0.57
8065.00,0.57
8064.00,0.57
8063.00,0.57
8062.00,0.58
8061.00,0.58
8060.00,0.58
8059.00,0.58
8058.00,0.58
8057.00,0.58
8056.00,0.59
8055.00,0.59
8054.00,0.59
8053.00,0.59
8052.00,0.59
8051.00,0.60
8050.00,0.60
8049.00,0.60
8048.00,0.60
8047.00,0.60
8046.00,0.60
8045.00,0.60
8044.00,0.60
8043.00,0.60
8042.00,0.60
8041.00,0.60
8040.00,0.60
8039.00,0.60
8038.00,0.60
8037.00,0.60
8036.00,0.60
8035.00,0.60
8034.00,0.60
8033.00,0.60
8032.00,0.60
8031.00,0.60
8030.00,0.60
8029.00,0.60
8028.00,0.60
8027.00,0.60
8026.00,0.60
8025.00,0.60
8024.00,0.60
8023.00,0.60
8022.00,0.60
8021.00,0.60
8020.00,0.60
8019.00,0.60
8018.00,0.60
8017.00,0.60
8016.00,0.60
8015.00,0.60
8014.00,0.60
8013.00,0.60
8012.00,0.60
8011.00,0.60
8010.00,0.60
8009.00,0.60
8008.00,0.60
8007.00,0.60
8006.00,0.60
8005.00,0.60
8004.00,0.60
8003.00,0.60
8002.00,0.60
8001.00,0.60
8000.00,0.60
7999.00,0.60
7998.00,0.60
7997.00,0.60
7996.00,0.60
7995.00,0.60
7994.00,0.59
7993.00,0.59
7992.00,0.59
7991.00,0.59
7990.00,0.58
7989.00,0.58
7988.00,0.58
7987.00,0.57
7986.00,0.57
7985.00,0.57
7984.00,0.57
7983.00,0.56
7982.00,0.56
7981.00,0.56
7980.00,0.55
7979.00,0.55
7978.00,0.55
7977.00,0.55
7976.00,0.54
7975.00,0.54
7974.00,0.54
7973.00,0.54
7972.00,0.54
7971.00,0.54
7970.00,0.54
7969.00,0.53
7968.00,0.53
7967.00,0.53
7966.00,0.53
7965.00,0.53
7964.00,0.53
7963.00,0.53
7962.00,0.53
7961.00,0.53
7960.00,0.53
7959.00,0.53
7958.00,0.54
7957.00,0.54
7956.00,0.54
7955.00,0.54
7954.00,0.54
7953.00,0.54
7952.00,0.54
7951.00,0.55
7950.00,0.55
7949.00,0.55
7948.00,0.55
7947.00,0.55
7946.00,0.55
7945.00,0.55
7944.00,0.55
7943.00,0.56
7942.00,0.56
7941.00,0.56
7940.00,0.56
7939.00,0.56
7938.00,0.56
7937.00,0.57
7936.00,0.57
7935.00,0.57
7934.00,0.57
7933.00,0.57
7932.00,0.57
7931.00,0.57
7930.00,0.58
7929.00,0.58
7928.00,0.58
7927.00,0.58
7926.00,0.58
7925.00,0.58
7924.00,0.58
7923.00,0.58
7922.00,0.58
7921.00,0.58
7920.00,0.58
7919.00,0.58
7918.00,0.58
7917.00,0.58
7916.00,0.58
7915.00,0.58
7914.00,0.58
7913.00,0.57
7912.00,0.57
7911.00,0.57
7910.00,0.57
7909.00,0.57
7908.00,0.57
7907.00,0.57
7906.00,0.57
7905.00,0.57
7904.00,0.57
7903.00,0.56
7902.00,0.56
7901.00,0.56
7900.00,0.56
7899.00,0.56
7898.00,0.56
7897.00,0.56
7896.00,0.56
7895.00,0.56
7894.00,0.56
7893.00,0.56
7892.00,0.56
7891.00,0.56
7890.00,0.56
7889.00,0.56
7888.00,0.56
7887.00,0.56
7886.00,0.56
7885.00,0.56
7884.00,0.56
7883.00,0.56
7882.00,0.56
7881.00,0.56
7880.00,0.56
7879.00,0.56
7878.00,0.56
7877.00,0.56
7876.00,0.56
7875.00,0.56
7874.00,0.56
7873.00,0.55
7872.00,0.55
7871.00,0.55
7870.00,0.55
7869.00,0.55
7868.00,0.55
7867.00,0.54
7866.00,0.54
7865.00,0.54
7864.00,0.54
7863.00,0.54
7862.00,0.53
7861.00,0.53
7860.00,0.53
7859.00,0.53
7858.00,0.53
7857.00,0.53
7856.00,0.52
7855.00,0.52
7854.00,0.52
7853.00,0.52
7852.00,0.52
7851.00,0.52
7850.00,0.52
7849.00,0.52
7848.00,0.52
7847.00,0.52
7846.00,0.52
7845.00,0.52
7844.00,0.52
7843.00,0.52
7842.00,0.52
7841.00,0.52
7840.00,0.52
7839.00,0.52
7838.00,0.52
7837.00,0.52
7836.00,0.53
7835.00,0.53
7834.00,0.53
7833.00,0.53
7832.00,0.53
7831.00,0.54
7830.00,0.54
7829.00,0.54
7828.00,0.54
7827.00,0.55
7826.00,0.55
7825.00,0.55
7824.00,0.56
7823.00,0.56
7822.00,0.56
7821.00,0.57
7820.00,0.57
7819.00,0.57
7818.00,0.58
7817.00,0.58
7816.00,0.59
7815.00,0.59
7814.00,0.59
7813.00,0.59
7812.00,0.60
7811.00,0.60
7810.00,0.60
7809.00,0.60
7808.00,0.60
7807.00,0.60
7806.00,0.60
7805.00,0.60
7804.00,0.60
7803.00,0.60
7802.00,0.60
7801.00,0.60
7800.00,0.60
7799.00,0.60
7798.00,0.60
7797.00,0.59
7796.00,0.59
7795.00,0.59
7794.00,0.58
7793.00,0.58
7792.00,0.58
7791.00,0.58
7790.00,0.57
7789.00,0.57
7788.00,0.57
7787.00,0.56
7786.00,0.56
7785.00,0.56
7784.00,0.56
7783.00,0.56
7782.00,0.56
7781.00,0.56
7780.00,0.55
7779.00,0.55
7778.00,0.55
7777.00,0.55
7776.00,0.55
7775.00,0.55
7774.00,0.55
7773.00,0.55
7772.00,0.55
7771.00,0.55
7770.00,0.55
7769.00,0.55
7768.00,0.55
7767.00,0.55
7766.00,0.55
7765.00,0.55
7764.00,0.55
7763.00,0.55
7762.00,0.55
7761.00,0.55
7760.00,0.56
7759.00,0.56
7758.00,0.56
7757.00,0.56
7756.00,0.56
7755.00,0.56
7754.00,0.56
7753.00,0.56
7752.00,0.56
7751.00,0.56
7750.00,0.57
7749.00,0.57
7748.00,0.57
7747.00,0.57
7746.00,0.57
7745.00,0.57
7744.00,0.58
7743.00,0.58
7742.00,0.58
7741.00,0.58
7740.00,0.58
7739.00,0.58
7738.00,0.58
7737.00,0.58
7736.00,0.58
7735.00,0.59
7734.00,0.59
7733.00,0.59
7732.00,0.59
7731.00,0.59
7730.00,0.59
7729.00,0.59
7728.00,0.59
7727.00,0.59
7726.00,0.59
7725.00,0.59
7724.00,0.59
7723.00,0.59
7722.00,0.59
7721.00,0.59
7720.00,0.59
7719.00,0.59
7718.00,0.59
7717.00,0.59
7716.00,0.59
7715.00,0.59
7714.00,0.59
7713.00,0.59
7712.00,0.59
7711.00,0.59
7710.00,0.59
7709.00,0.59
7708.00,0.59
7707.00,0.59
7706.00,0.59
7705.00,0.59
7704.00,0.59
7703.00,0.59
7702.00,0.59
7701.00,0.59
7700.00,0.59
7699.00,0.59
7698.00,0.59
7697.00,0.59
7696.00,0.59
7695.00,0.59
7694.00,0.58
7693.00,0.58
7692.00,0.58
7691.00,0.58
7690.00,0.58
7689.00,0.58
7688.00,0.58
7687.00,0.58
7686.00,0.58
7685.00,0.58
7684.00,0.58
7683.00,0.58
7682.00,0.58
7681.00,0.58
7680.00,0.58
7679.00,0.58
7678.00,0.58
7677.00,0.58
7676.00,0.58
7675.00,0.58
7674.00,0.59
7673.00,0.59
7672.00,0.59
7671.00,0.59
7670.00,0.59
7669.00,0.59
7668.00,0.59
7667.00,0.59
7666.00,0.59
7665.00,0.59
7664.00,0.59
7663.00,0.59
7662.00,0.59
7661.00,0.59
7660.00,0.59
7659.00,0.59
7658.00,0.59
7657.00,0.59
7656.00,0.59
7655.00,0.59
7654.00,0.59
7653.00,0.59
7652.00,0.59
7651.00,0.59
7650.00,0.59
7649.00,0.59
7648.00,0.59
7647.00,0.59
7646.00,0.59
7645.00,0.59
7644.00,0.59
7643.00,0.59
7642.00,0.59
7641.00,0.60
7640.00,0.60
7639.00,0.60
7638.00,0.60
7637.00,0.60
7636.00,0.60
7635.00,0.60
7634.00,0.60
7633.00,0.61
7632.00,0.61
7631.00,0.61
7630.00,0.61
7629.00,0.61
7628.00,0.61
7627.00,0.61
7626.00,0.61
7625.00,0.61
7624.00,0.61
7623.00,0.61
7622.00,0.61
7621.00,0.61
7620.00,0.61
7619.00,0.61
7618.00,0.61
7617.00,0.61
7616.00,0.61
7615.00,0.61
7614.00,0.61
7613.00,0.60
7612.00,0.60
7611.00,0.60
7610.00,0.60
7609.00,0.60
7608.00,0.60
7607.00,0.60
7606.00,0.60
7605.00,0.60
7604.00,0.60
7603.00,0.60
7602.00,0.60
7601.00,0.60
7600.00,0.60
7599.00,0.60
7598.00,0.60
7597.00,0.60
7596.00,0.60
7595.00,0.60
7594.00,0.60
7593.00,0.60
7592.00,0.60
7591.00,0.60
7590.00,0.60
7589.00,0.60
7588.00,0.60
7587.00,0.60
7586.00,0.60
7585.00,0.60
7584.00,0.60
7583.00,0.60
7582.00,0.60
7581.00,0.60
7580.00,0.60
7579.00,0.60
7578.00,0.60
7577.00,0.60
7576.00,0.60
7575.00,0.60
7574.00,0.60
7573.00,0.60
7572.00,0.60
7571.00,0.60
7570.00,0.60
7569.00,0.60
7568.00,0.61
7567.00,0.61
7566.00,0.61
7565.00,0.61
7564.00,0.62
7563.00,0.62
7562.00,0.62
7561.00,0.62
7560.00,0.62
7559.00,0.62
7558.00,0.62
7557.00,0.62
7556.00,0.63
7555.00,0.63
7554.00,0.63
7553.00,0.63
7552.00,0.63
7551.00,0.63
7550.00,0.63
7549.00,0.63
7548.00,0.63
7547.00,0.63
7546.00,0.63
7545.00,0.63
7544.00,0.63
7543.00,0.62
7542.00,0.62
7541.00,0.62
7540.00,0.62
7539.00,0.62
7538.00,0.62
7537.00,0.62
7536.00,0.61
7535.00,0.61
7534.00,0.61
7533.00,0.61
7532.00,0.61
7531.00,0.61
7530.00,0.61
7529.00,0.61
7528.00,0.61
7527.00,0.61
7526.00,0.61
7525.00,0.61
7524.00,0.61
7523.00,0.61
7522.00,0.61
7521.00,0.61
7520.00,0.61
7519.00,0.61
7518.00,0.61
7517.00,0.61
7516.00,0.61
7515.00,0.61
7514.00,0.61
7513.00,0.61
7512.00,0.61
7511.00,0.61
7510.00,0.61
7509.00,0.61
7508.00,0.60
7507.00,0.60
7506.00,0.60
7505.00,0.60
7504.00,0.60
7503.00,0.60
7502.00,0.60
7501.00,0.59
7500.00,0.59
7499.00,0.59
7498.00,0.59
7497.00,0.59
7496.00,0.58
7495.00,0.58
7494.00,0.58
7493.00,0.58
7492.00,0.58
7491.00,0.57
7490.00,0.57
7489.00,0.57
7488.00,0.57
7487.00,0.57
7486.00,0.57
7485.00,0.56
7484.00,0.56
7483.00,0.56
7482.00,0.56
7481.00,0.56
7480.00,0.56
7479.00,0.56
7478.00,0.56
7477.00,0.56
7476.00,0.56
7475.00,0.56
7474.00,0.56
7473.00,0.56
7472.00,0.57
7471.00,0.57
7470.00,0.57
7469.00,0.57
7468.00,0.57
7467.00,0.57
7466.00,0.57
7465.00,0.58
7464.00,0.58
7463.00,0.58
7462.00,0.58
7461.00,0.58
7460.00,0.58
7459.00,0.58
7458.00,0.58
7457.00,0.59
7456.00,0.59
7455.00,0.59
7454.00,0.59
7453.00,0.59
7452.00,0.59
7451.00,0.59
7450.00,0.59
7449.00,0.59
7448.00,0.58
7447.00,0.58
7446.00,0.58
7445.00,0.58
7444.00,0.58
7443.00,0.58
7442.00,0.58
7441.00,0.57
7440.00,0.57
7439.00,0.57
7438.00,0.57
7437.00,0.56
7436.00,0.56
7435.00,0.56
7434.00,0.56
7433.00,0.56
7432.00,0.55
7431.00,0.55
7430.00,0.55
7429.00,0.55
7428.00,0.55
7427.00,0.55
7426.00,0.54
7425.00,0.54
7424.00,0.54
7423.00,0.54
7422.00,0.54
7421.00,0.54
7420.00,0.54
7419.00,0.54
7418.00,0.54
7417.00,0.54
7416.00,0.54
7415.00,0.54
7414.00,0.54
7413.00,0.54
7412.00,0.54
7411.00,0.54
7410.00,0.54
7409.00,0.55
7408.00,0.55
7407.00,0.55
7406.00,0.55
7405.00,0.55
7404.00,0.55
7403.00,0.55
7402.00,0.55
7401.00,0.55
7400.00,0.55
7399.00,0.55
7398.00,0.55
7397.00,0.55
7396.00,0.55
7395.00,0.55
7394.00,0.55
7393.00,0.55
7392.00,0.55
7391.00,0.55
7390.00,0.54
7389.00,0.54
7388.00,0.54
7387.00,0.54
7386.00,0.54
7385.00,0.54
7384.00,0.54
7383.00,0.53
7382.00,0.53
7381.00,0.53
7380.00,0.53
7379.00,0.53
7378.00,0.53
7377.00,0.52
7376.00,0.52
7375.00,0.52
7374.00,0.52
7373.00,0.52
7372.00,0.52
7371.00,0.52
7370.00,0.52
7369.00,0.52
7368.00,0.52
7367.00,0.52
7366.00,0.52
7365.00,0.52
7364.00,0.52
7363.00,0.51
7362.00,0.51
7361.00,0.51
7360.00,0.52
7359.00,0.52
7358.00,0.52
7357.00,0.52
7356.00,0.52
7355.00,0.52
7354.00,0.52
7353.00,0.52
7352.00,0.52
7351.00,0.53
7350.00,0.53
7349.00,0.53
7348.00,0.53
7347.00,0.54
7346.00,0.54
7345.00,0.54
7344.00,0.54
7343.00,0.54
7342.00,0.54
7341.00,0.54
7340.00,0.54
7339.00,0.55
7338.00,0.55
7337.00,0.55
7336.00,0.55
7335.00,0.55
7334.00,0.55
7333.00,0.55
7332.00,0.55
7331.00,0.55
7330.00,0.55
7329.00,0.55
7328.00,0.54
7327.00,0.54
7326.00,0.54
7325.00,0.54
7324.00,0.54
7323.00,0.54
7322.00,0.54
7321.00,0.53
7320.00,0.53
7319.00,0.53
7318.00,0.53
7317.00,0.53
7316.00,0.53
7315.00,0.53
7314.00,0.53
7313.00,0.53
7312.00,0.53
7311.00,0.53
7310.00,0.53
7309.00,0.54
7308.00,0.54
7307.00,0.54
7306.00,0.54
7305.00,0.54
7304.00,0.54
7303.00,0.55
7302.00,0.55
7301.00,0.55
7300.00,0.55
7299.00,0.56
7298.00,0.56
7297.00,0.56
7296.00,0.57
7295.00,0.57
7294.00,0.57
7293.00,0.57
7292.00,0.58
7291.00,0.58
7290.00,0.58
7289.00,0.58
7288.00,0.58
7287.00,0.58
7286.00,0.58
7285.00,0.58
7284.00,0.58
7283.00,0.58
7282.00,0.58
7281.00,0.58
7280.00,0.58
7279.00,0.58
7278.00,0.58
7277.00,0.58
7276.00,0.57
7275.00,0.57
7274.00,0.57
7273.00,0.57
7272.00,0.57
7271.00,0.56
7270.00,0.56
7269.00,0.56
7268.00,0.56
7267.00,0.55
7266.00,0.55
7265.00,0.55
7264.00,0.55
7263.00,0.55
7262.00,0.54
7261.00,0.54
7260.00,0.54
7259.00,0.54
7258.00,0.54
7257.00,0.54
7256.00,0.54
7255.00,0.54
7254.00,0.54
7253.00,0.54
7252.00,0.54
7251.00,0.54
7250.00,0.54
7249.00,0.53
7248.00,0.53
7247.00,0.53
7246.00,0.53
7245.00,0.53
7244.00,0.53
7243.00,0.53
7242.00,0.52
7241.00,0.52
7240.00,0.52
7239.00,0.52
7238.00,0.51
7237.00,0.51
7236.00,0.51
7235.00,0.51
7234.00,0.50
7233.00,0.50
7232.00,0.50
7231.00,0.49
7230.00,0.49
7229.00,0.49
7228.00,0.48
7227.00,0.48
7226.00,0.48
7225.00,0.47
7224.00,0.47
7223.00,0.47
7222.00,0.46
7221.00,0.46
7220.00,0.46
7219.00,0.46
7218.00,0.46
7217.00,0.46
7216.00,0.45
7215.00,0.45
7214.00,0.45
7213.00,0.45
7212.00,0.45
7211.00,0.45
7210.00,0.45
7209.00,0.45
7208.00,0.45
7207.00,0.45
7206.00,0.45
7205.00,0.45
7204.00,0.45
7203.00,0.44
7202.00,0.44
7201.00,0.44
7200.00,0.44
7199.00,0.44
7198.00,0.44
7197.00,0.44
7196.00,0.44
7195.00,0.44
7194.00,0.44
7193.00,0.44
7192.00,0.43
7191.00,0.43
7190.00,0.43
7189.00,0.43
7188.00,0.43
7187.00,0.43
7186.00,0.43
7185.00,0.43
7184.00,0.42
7183.00,0.42
7182.00,0.42
7181.00,0.42
7180.00,0.42
7179.00,0.42
7178.00,0.42
7177.00,0.42
7176.00,0.42
7175.00,0.42
7174.00,0.42
7173.00,0.42
7172.00,0.42
7171.00,0.42
7170.00,0.42
7169.00,0.42
7168.00,0.42
7167.00,0.42
7166.00,0.42
7165.00,0.42
7164.00,0.42
7163.00,0.42
7162.00,0.42
7161.00,0.42
7160.00,0.42
7159.00,0.42
7158.00,0.42
7157.00,0.41
7156.00,0.41
7155.00,0.41
7154.00,0.41
7153.00,0.41
7152.00,0.40
7151.00,0.40
7150.00,0.39
7149.00,0.39
7148.00,0.39
7147.00,0.38
7146.00,0.38
7145.00,0.37
7144.00,0.37
7143.00,0.37
7142.00,0.36
7141.00,0.36
7140.00,0.36
7139.00,0.35
7138.00,0.35
7137.00,0.35
7136.00,0.35
7135.00,0.34
7134.00,0.34
7133.00,0.34
7132.00,0.34
7131.00,0.34
7130.00,0.33
7129.00,0.33
7128.00,0.33
7127.00,0.33
7126.00,0.33
7125.00,0.33
7124.00,0.33
7123.00,0.33
7122.00,0.33
7121.00,0.33
7120.00,0.33
7119.00,0.33
7118.00,0.33
7117.00,0.33
7116.00,0.34
7115.00,0.34
7114.00,0.34
7113.00,0.34
7112.00,0.34
7111.00,0.34
7110.00,0.34
7109.00,0.34
7108.00,0.34
7107.00,0.34
7106.00,0.34
7105.00,0.34
7104.00,0.34
7103.00,0.34
7102.00,0.34
7101.00,0.34
7100.00,0.34
7099.00,0.34
7098.00,0.34
7097.00,0.34
7096.00,0.34
7095.00,0.34
7094.00,0.33
7093.00,0.33
7092.00,0.33
7091.00,0.33
7090.00,0.33
7089.00,0.33
7088.00,0.32
7087.00,0.32
7086.00,0.32
7085.00,0.32
7084.00,0.31
7083.00,0.31
7082.00,0.31
7081.00,0.31
7080.00,0.31
7079.00,0.31
7078.00,0.30
7077.00,0.30
7076.00,0.30
7075.00,0.30
7074.00,0.30
7073.00,0.29
7072.00,0.29
7071.00,0.29
7070.00,0.29
7069.00,0.29
7068.00,0.29
7067.00,0.29
7066.00,0.29
7065.00,0.28
7064.00,0.28
7063.00,0.28
7062.00,0.28
7061.00,0.28
7060.00,0.28
7059.00,0.28
7058.00,0.28
7057.00,0.28
7056.00,0.28
7055.00,0.28
7054.00,0.28
7053.00,0.28
7052.00,0.28
7051.00,0.28
7050.00,0.28
7049.00,0.27
7048.00,0.27
7047.00,0.27
7046.00,0.27
7045.00,0.27
7044.00,0.27
7043.00,0.26
7042.00,0.26
7041.00,0.26
7040.00,0.26
7039.00,0.26
7038.00,0.26
7037.00,0.25
7036.00,0.25
7035.00,0.25
7034.00,0.25
7033.00,0.25
7032.00,0.25
7031.00,0.25
7030.00,0.24
7029.00,0.24
7028.00,0.24
7027.00,0.24
7026.00,0.24
7025.00,0.24
7024.00,0.24
7023.00,0.24
7022.00,0.24
7021.00,0.24
7020.00,0.24
7019.00,0.24
7018.00,0.25
7017.00,0.25
7016.00,0.25
7015.00,0.25
7014.00,0.25
7013.00,0.25
7012.00,0.25
7011.00,0.26
7010.00,0.26
7009.00,0.26
7008.00,0.26
7007.00,0.26
7006.00,0.26
7005.00,0.26
7004.00,0.26
7003.00,0.26
7002.00,0.27
7001.00,0.27
7000.00,0.27
6999.00,0.27
6998.00,0.27
6997.00,0.27
6996.00,0.27
6995.00,0.27
6994.00,0.27
6993.00,0.27
6992.00,0.27
6991.00,0.27
6990.00,0.27
6989.00,0.27
6988.00,0.28
6987.00,0.28
6986.00,0.28
6985.00,0.28
6984.00,0.28
6983.00,0.28
6982.00,0.28
6981.00,0.28
6980.00,0.28
6979.00,0.29
6978.00,0.29
6977.00,0.29
6976.00,0.29
6975.00,0.29
6974.00,0.29
6973.00,0.29
6972.00,0.29
6971.00,0.29
6970.00,0.30
6969.00,0.30
6968.00,0.30
6967.00,0.30
6966.00,0.30
6965.00,0.30
6964.00,0.30
6963.00,0.30
6962.00,0.30
6961.00,0.30
6960.00,0.30
6959.00,0.30
6958.00,0.30
6957.00,0.30
6956.00,0.30
6955.00,0.29
6954.00,0.29
6953.00,0.29
6952.00,0.29
6951.00,0.29
6950.00,0.29
6949.00,0.29
6948.00,0.28
6947.00,0.28
6946.00,0.28
6945.00,0.28
6944.00,0.27
6943.00,0.27
6942.00,0.27
6941.00,0.27
6940.00,0.27
6939.00,0.27
6938.00,0.26
6937.00,0.26
6936.00,0.26
6935.00,0.26
6934.00,0.26
6933.00,0.26
6932.00,0.26
6931.00,0.26
6930.00,0.26
6929.00,0.26
6928.00,0.26
6927.00,0.26
6926.00,0.26
6925.00,0.26
6924.00,0.26
6923.00,0.26
6922.00,0.26
6921.00,0.26
6920.00,0.26
6919.00,0.26
6918.00,0.26
6917.00,0.26
6916.00,0.26
6915.00,0.26
6914.00,0.27
6913.00,0.27
6912.00,0.27
6911.00,0.26
6910.00,0.26
6909.00,0.26
6908.00,0.26
6907.00,0.26
6906.00,0.26
6905.00,0.26
6904.00,0.26
6903.00,0.26
6902.00,0.26
6901.00,0.26
6900.00,0.25
6899.00,0.25
6898.00,0.25
6897.00,0.25
6896.00,0.25
6895.00,0.25
6894.00,0.25
6893.00,0.25
6892.00,0.25
6891.00,0.25
6890.00,0.25
6889.00,0.25
6888.00,0.25
6887.00,0.25
6886.00,0.25
6885.00,0.25
6884.00,0.25
6883.00,0.25
6882.00,0.25
6881.00,0.25
6880.00,0.25
6879.00,0.25
6878.00,0.25
6877.00,0.25
6876.00,0.25
6875.00,0.25
6874.00,0.25
6873.00,0.26
6872.00,0.26
6871.00,0.26
6870.00,0.26
6869.00,0.26
6868.00,0.26
6867.00,0.26
6866.00,0.26
6865.00,0.26
6864.00,0.26
6863.00,0.26
6862.00,0.26
6861.00,0.26
6860.00,0.27
6859.00,0.27
6858.00,0.27
6857.00,0.27
6856.00,0.27
6855.00,0.27
6854.00,0.27
6853.00,0.27
6852.00,0.27
6851.00,0.27
6850.00,0.27
6849.00,0.27
6848.00,0.27
6847.00,0.28
6846.00,0.28
6845.00,0.28
6844.00,0.28
6843.00,0.28
6842.00,0.28
6841.00,0.28
6840.00,0.28
6839.00,0.28
6838.00,0.29
6837.00,0.29
6836.00,0.29
6835.00,0.29
6834.00,0.29
6833.00,0.29
6832.00,0.29
6831.00,0.29
6830.00,0.29
6829.00,0.29
6828.00,0.29
6827.00,0.29
6826.00,0.29
6825.00,0.29
6824.00,0.29
6823.00,0.29
6822.00,0.29
6821.00,0.29
6820.00,0.28
6819.00,0.28
6818.00,0.28
6817.00,0.28
6816.00,0.28
6815.00,0.28
6814.00,0.27
6813.00,0.27
6812.00,0.27
6811.00,0.27
6810.00,0.27
6809.00,0.26
6808.00,0.26
6807.00,0.26
6806.00,0.26
6805.00,0.26
6804.00,0.25
6803.00,0.25
6802.00,0.25
6801.00,0.25
6800.00,0.25
6799.00,0.24
6798.00,0.24
6797.00,0.24
6796.00,0.24
6795.00,0.24
6794.00,0.24
6793.00,0.24
6792.00,0.24
6791.00,0.24
6790.00,0.24
6789.00,0.24
6788.00,0.24
6787.00,0.24
6786.00,0.24
6785.00,0.24
6784.00,0.24
6783.00,0.24
6782.00,0.24
6781.00,0.24
6780.00,0.25
6779.00,0.25
6778.00,0.25
6777.00,0.25
6776.00,0.25
6775.00,0.25
6774.00,0.25
6773.00,0.26
6772.00,0.26
6771.00,0.26
6770.00,0.26
6769.00,0.26
6768.00,0.26
6767.00,0.26
6766.00,0.27
6765.00,0.27
6764.00,0.27
6763.00,0.27
6762.00,0.27
6761.00,0.27
6760.00,0.27
6759.00,0.27
6758.00,0.27
6757.00,0.28
6756.00,0.28
6755.00,0.28
6754.00,0.28
6753.00,0.28
6752.00,0.28
6751.00,0.29
6750.00,0.29
6749.00,0.29
6748.00,0.29
6747.00,0.29
6746.00,0.29
6745.00,0.29
6744.00,0.30
6743.00,0.30
6742.00,0.30
6741.00,0.30
6740.00,0.30
6739.00,0.30
6738.00,0.30
6737.00,0.31
6736.00,0.31
6735.00,0.31
6734.00,0.31
6733.00,0.31
6732.00,0.31
6731.00,0.31
6730.00,0.31
6729.00,0.31
6728.00,0.31
6727.00,0.31
6726.00,0.31
6725.00,0.31
6724.00,0.30
6723.00,0.30
6722.00,0.30
6721.00,0.30
6720.00,0.30
6719.00,0.30
6718.00,0.30
6717.00,0.30
6716.00,0.30
6715.00,0.30
6714.00,0.29
6713.00,0.29
6712.00,0.29
6711.00,0.29
6710.00,0.29
6709.00,0.29
6708.00,0.29
6707.00,0.29
6706.00,0.29
6705.00,0.29
6704.00,0.29
6703.00,0.29
6702.00,0.29
6701.00,0.29
6700.00,0.29
6699.00,0.29
6698.00,0.29
6697.00,0.29
6696.00,0.29
6695.00,0.29
6694.00,0.29
6693.00,0.29
6692.00,0.29
6691.00,0.29
6690.00,0.29
6689.00,0.29
6688.00,0.29
6687.00,0.30
6686.00,0.30
6685.00,0.30
6684.00,0.30
6683.00,0.30
6682.00,0.30
6681.00,0.30
6680.00,0.30
6679.00,0.30
6678.00,0.30
6677.00,0.30
6676.00,0.30
6675.00,0.30
6674.00,0.30
6673.00,0.30
6672.00,0.31
6671.00,0.31
6670.00,0.31
6669.00,0.31
6668.00,0.31
6667.00,0.31
6666.00,0.31
6665.00,0.31
6664.00,0.32
6663.00,0.32
6662.00,0.32
6661.00,0.32
6660.00,0.32
6659.00,0.32
6658.00,0.33
6657.00,0.33
6656.00,0.33
6655.00,0.33
6654.00,0.33
6653.00,0.34
6652.00,0.34
6651.00,0.34
6650.00,0.34
6649.00,0.34
6648.00,0.34
6647.00,0.34
6646.00,0.34
6645.00,0.35
6644.00,0.35
6643.00,0.35
6642.00,0.35
6641.00,0.35
6640.00,0.35
6639.00,0.35
6638.00,0.35
6637.00,0.35
6636.00,0.35
6635.00,0.35
6634.00,0.35
6633.00,0.35
6632.00,0.35
6631.00,0.35
6630.00,0.35
6629.00,0.35
6628.00,0.35
6627.00,0.35
6626.00,0.35
6625.00,0.35
6624.00,0.35
6623.00,0.35
6622.00,0.35
6621.00,0.35
6620.00,0.35
6619.00,0.35
6618.00,0.35
6617.00,0.35
6616.00,0.35
6615.00,0.35
6614.00,0.35
6613.00,0.35
6612.00,0.35
6611.00,0.35
6610.00,0.35
6609.00,0.35
6608.00,0.35
6607.00,0.34
6606.00,0.34
6605.00,0.34
6604.00,0.34
6603.00,0.34
6602.00,0.34
6601.00,0.34
6600.00,0.34
6599.00,0.34
6598.00,0.34
6597.00,0.34
6596.00,0.34
6595.00,0.33
6594.00,0.33
6593.00,0.33
6592.00,0.33
6591.00,0.33
6590.00,0.33
6589.00,0.33
6588.00,0.33
6587.00,0.33
6586.00,0.33
6585.00,0.33
6584.00,0.33
6583.00,0.33
6582.00,0.34
6581.00,0.34
6580.00,0.34
6579.00,0.34
6578.00,0.34
6577.00,0.34
6576.00,0.34
6575.00,0.34
6574.00,0.35
6573.00,0.35
6572.00,0.35
6571.00,0.35
6570.00,0.35
6569.00,0.35
6568.00,0.35
6567.00,0.36
6566.00,0.36
6565.00,0.36
6564.00,0.36
6563.00,0.36
6562.00,0.36
6561.00,0.36
6560.00,0.37
6559.00,0.37
6558.00,0.37
6557.00,0.37
6556.00,0.37
6555.00,0.37
6554.00,0.37
6553.00,0.37
6552.00,0.37
6551.00,0.37
6550.00,0.37
6549.00,0.37
6548.00,0.37
6547.00,0.37
6546.00,0.37
6545.00,0.37
6544.00,0.37
6543.00,0.37
6542.00,0.37
6541.00,0.37
6540.00,0.37
6539.00,0.37
6538.00,0.37
6537.00,0.37
6536.00,0.37
6535.00,0.37
6534.00,0.37
6533.00,0.37
6532.00,0.37
6531.00,0.37
6530.00,0.37
6529.00,0.37
6528.00,0.37
6527.00,0.37
6526.00,0.37
6525.00,0.38
6524.00,0.38
6523.00,0.38
6522.00,0.38
6521.00,0.38
6520.00,0.38
6519.00,0.38
6518.00,0.38
6517.00,0.38
6516.00,0.38
6515.00,0.38
6514.00,0.38
6513.00,0.38
6512.00,0.38
6511.00,0.38
6510.00,0.38
6509.00,0.38
6508.00,0.39
6507.00,0.39
6506.00,0.39
6505.00,0.39
6504.00,0.39
6503.00,0.39
6502.00,0.39
6501.00,0.39
6500.00,0.39
6499.00,0.39
6498.00,0.39
6497.00,0.39
6496.00,0.39
6495.00,0.39
6494.00,0.39
6493.00,0.38
6492.00,0.38
6491.00,0.38
6490.00,0.38
6489.00,0.38
6488.00,0.38
6487.00,0.38
6486.00,0.38
6485.00,0.38
6484.00,0.38
6483.00,0.38
6482.00,0.38
6481.00,0.38
6480.00,0.38
6479.00,0.38
6478.00,0.38
6477.00,0.38
6476.00,0.38
6475.00,0.37
6474.00,0.37
6473.00,0.37
6472.00,0.37
6471.00,0.37
6470.00,0.37
6469.00,0.37
6468.00,0.37
6467.00,0.37
6466.00,0.37
6465.00,0.37
6464.00,0.37
6463.00,0.37
6462.00,0.37
6461.00,0.37
6460.00,0.37
6459.00,0.38
6458.00,0.38
6457.00,0.38
6456.00,0.38
6455.00,0.38
6454.00,0.38
6453.00,0.38
6452.00,0.39
6451.00,0.39
6450.00,0.39
6449.00,0.39
6448.00,0.40
6447.00,0.40
6446.00,0.40
6445.00,0.40
6444.00,0.41
6443.00,0.41
6442.00,0.41
6441.00,0.41
6440.00,0.41
6439.00,0.42
6438.00,0.42
6437.00,0.42
6436.00,0.42
6435.00,0.42
6434.00,0.42
6433.00,0.42
6432.00,0.42
6431.00,0.42
6430.00,0.42
6429.00,0.42
6428.00,0.42
6427.00,0.42
6426.00,0.42
6425.00,0.42
6424.00,0.42
6423.00,0.42
6422.00,0.42
6421.00,0.42
6420.00,0.42
6419.00,0.42
6418.00,0.42
6417.00,0.42
6416.00,0.41
6415.00,0.41
6414.00,0.41
6413.00,0.41
6412.00,0.41
6411.00,0.41
6410.00,0.41
6409.00,0.41
6408.00,0.41
6407.00,0.42
6406.00,0.42
6405.00,0.42
6404.00,0.42
6403.00,0.42
6402.00,0.42
6401.00,0.42
6400.00,0.42
6399.00,0.42
6398.00,0.42
6397.00,0.42
6396.00,0.42
6395.00,0.42
6394.00,0.42
6393.00,0.43
6392.00,0.43
6391.00,0.43
6390.00,0.43
6389.00,0.43
6388.00,0.43
6387.00,0.43
6386.00,0.43
6385.00,0.43
6384.00,0.43
6383.00,0.43
6382.00,0.43
6381.00,0.43
6380.00,0.43
6379.00,0.43
6378.00,0.43
6377.00,0.43
6376.00,0.43
6375.00,0.43
6374.00,0.43
6373.00,0.43
6372.00,0.43
6371.00,0.43
6370.00,0.43
6369.00,0.43
6368.00,0.43
6367.00,0.43
6366.00,0.43
6365.00,0.43
6364.00,0.43
6363.00,0.43
6362.00,0.43
6361.00,0.43
6360.00,0.43
6359.00,0.44
6358.00,0.44
6357.00,0.44
6356.00,0.44
6355.00,0.44
6354.00,0.44
6353.00,0.44
6352.00,0.44
6351.00,0.44
6350.00,0.44
6349.00,0.44
6348.00,0.45
6347.00,0.45
6346.00,0.45
6345.00,0.45
6344.00,0.45
6343.00,0.45
6342.00,0.45
6341.00,0.46
6340.00,0.46
6339.00,0.46
6338.00,0.46
6337.00,0.46
6336.00,0.46
6335.00,0.46
6334.00,0.46
6333.00,0.46
6332.00,0.46
6331.00,0.46
6330.00,0.46
6329.00,0.46
6328.00,0.46
6327.00,0.46
6326.00,0.46
6325.00,0.46
6324.00,0.46
6323.00,0.46
6322.00,0.46
6321.00,0.46
6320.00,0.46
6319.00,0.46
6318.00,0.46
6317.00,0.46
6316.00,0.45
6315.00,0.45
6314.00,0.45
6313.00,0.45
6312.00,0.45
6311.00,0.45
6310.00,0.45
6309.00,0.45
6308.00,0.45
6307.00,0.45
6306.00,0.45
6305.00,0.45
6304.00,0.45
6303.00,0.46
6302.00,0.46
6301.00,0.46
6300.00,0.46
6299.00,0.46
6298.00,0.46
6297.00,0.46
6296.00,0.47
6295.00,0.47
6294.00,0.47
6293.00,0.47
6292.00,0.47
6291.00,0.48
6290.00,0.48
6289.00,0.48
6288.00,0.48
6287.00,0.49
6286.00,0.49
6285.00,0.49
6284.00,0.49
6283.00,0.49
6282.00,0.49
6281.00,0.50
6280.00,0.50
6279.00,0.50
6278.00,0.50
6277.00,0.50
6276.00,0.50
6275.00,0.50
6274.00,0.51
6273.00,0.51
6272.00,0.51
6271.00,0.51
6270.00,0.51
6269.00,0.51
6268.00,0.51
6267.00,0.51
6266.00,0.51
6265.00,0.51
6264.00,0.51
6263.00,0.51
6262.00,0.51
6261.00,0.51
6260.00,0.51
6259.00,0.51
6258.00,0.51
6257.00,0.51
6256.00,0.51
6255.00,0.51
6254.00,0.51
6253.00,0.51
6252.00,0.51
6251.00,0.51
6250.00,0.51
6249.00,0.51
6248.00,0.51
6247.00,0.51
6246.00,0.51
6245.00,0.51
6244.00,0.51
6243.00,0.51
6242.00,0.51
6241.00,0.51
6240.00,0.51
6239.00,0.51
6238.00,0.51
6237.00,0.51
6236.00,0.51
6235.00,0.51
6234.00,0.51
6233.00,0.51
6232.00,0.51
6231.00,0.51
6230.00,0.51
6229.00,0.51
6228.00,0.52
6227.00,0.52
6226.00,0.52
6225.00,0.52
6224.00,0.52
6223.00,0.52
6222.00,0.52
6221.00,0.52
6220.00,0.52
6219.00,0.52
6218.00,0.52
6217.00,0.52
6216.00,0.52
6215.00,0.52
6214.00,0.53
6213.00,0.53
6212.00,0.53
6211.00,0.53
6210.00,0.53
6209.00,0.53
6208.00,0.53
6207.00,0.53
6206.00,0.53
6205.00,0.53
6204.00,0.53
6203.00,0.54
6202.00,0.54
6201.00,0.54
6200.00,0.54
6199.00,0.54
6198.00,0.54
6197.00,0.54
6196.00,0.54
6195.00,0.54
6194.00,0.54
6193.00,0.54
6192.00,0.54
6191.00,0.54
6190.00,0.54
6189.00,0.54
6188.00,0.54
6187.00,0.54
6186.00,0.54
6185.00,0.54
6184.00,0.54
6183.00,0.55
6182.00,0.55
6181.00,0.55
6180.00,0.55
6179.00,0.55
6178.00,0.55
6177.00,0.55
6176.00,0.55
6175.00,0.55
6174.00,0.55
6173.00,0.56
6172.00,0.56
6171.00,0.56
6170.00,0.56
6169.00,0.56
6168.00,0.56
6167.00,0.56
6166.00,0.57
6165.00,0.57
6164.00,0.57
6163.00,0.57
6162.00,0.57
6161.00,0.57
6160.00,0.57
6159.00,0.58
6158.00,0.58
6157.00,0.58
6156.00,0.58
6155.00,0.58
6154.00,0.58
6153.00,0.58
6152.00,0.58
6151.00,0.58
6150.00,0.58
6149.00,0.58
6148.00,0.58
6147.00,0.58
6146.00,0.58
6145.00,0.58
6144.00,0.58
6143.00,0.58
6142.00,0.58
6141.00,0.58
6140.00,0.58
6139.00,0.58
6138.00,0.58
6137.00,0.58
6136.00,0.58
6135.00,0.58
6134.00,0.58
6133.00,0.58
6132.00,0.58
6131.00,0.58
6130.00,0.58
6129.00,0.58
6128.00,0.58
6127.00,0.58
6126.00,0.58
6125.00,0.58
6124.00,0.58
6123.00,0.58
6122.00,0.58
6121.00,0.58
6120.00,0.58
6119.00,0.58
6118.00,0.58
6117.00,0.58
6116.00,0.58
6115.00,0.58
6114.00,0.58
6113.00,0.59
6112.00,0.59
6111.00,0.59
6110.00,0.59
6109.00,0.59
6108.00,0.59
6107.00,0.59
6106.00,0.59
6105.00,0.59
6104.00,0.59
6103.00,0.59
6102.00,0.59
6101.00,0.59
6100.00,0.59
6099.00,0.59
6098.00,0.60
6097.00,0.60
6096.00,0.60
6095.00,0.60
6094.00,0.60
6093.00,0.60
6092.00,0.60
6091.00,0.60
6090.00,0.60
6089.00,0.60
6088.00,0.61
6087.00,0.61
6086.00,0.61
6085.00,0.61
6084.00,0.61
6083.00,0.61
6082.00,0.61
6081.00,0.61
6080.00,0.61
6079.00,0.61
6078.00,0.61
6077.00,0.61
6076.00,0.61
6075.00,0.62
6074.00,0.62
6073.00,0.62
6072.00,0.62
6071.00,0.62
6070.00,0.62
6069.00,0.62
6068.00,0.62
6067.00,0.62
6066.00,0.62
6065.00,0.62
6064.00,0.62
6063.00,0.62
6062.00,0.62
6061.00,0.62
6060.00,0.62
6059.00,0.62
6058.00,0.62
6057.00,0.62
6056.00,0.62
6055.00,0.62
6054.00,0.62
6053.00,0.62
6052.00,0.62
6051.00,0.62
6050.00,0.62
6049.00,0.62
6048.00,0.62
6047.00,0.61
6046.00,0.61
6045.00,0.61
6044.00,0.61
6043.00,0.61
6042.00,0.61
6041.00,0.61
6040.00,0.61
6039.00,0.62
6038.00,0.62
6037.00,0.62
6036.00,0.62
6035.00,0.62
6034.00,0.62
6033.00,0.62
6032.00,0.62
6031.00,0.62
6030.00,0.62
6029.00,0.62
6028.00,0.62
6027.00,0.62
6026.00,0.62
6025.00,0.62
6024.00,0.62
6023.00,0.62
6022.00,0.62
6021.00,0.62
6020.00,0.62
6019.00,0.62
6018.00,0.62
6017.00,0.62
6016.00,0.62
6015.00,0.62
6014.00,0.62
6013.00,0.62
6012.00,0.62
6011.00,0.61
6010.00,0.61
6009.00,0.61
6008.00,0.61
6007.00,0.61
6006.00,0.61
6005.00,0.61
6004.00,0.61
6003.00,0.61
6002.00,0.61
6001.00,0.60
6000.00,0.60
5999.00,0.60
5998.00,0.60
5997.00,0.60
5996.00,0.60
5995.00,0.60
5994.00,0.59
5993.00,0.59
5992.00,0.59
5991.00,0.59
5990.00,0.59
5989.00,0.59
5988.00,0.59
5987.00,0.59
5986.00,0.59
5985.00,0.59
5984.00,0.58
5983.00,0.58
5982.00,0.58
5981.00,0.58
5980.00,0.58
5979.00,0.58
5978.00,0.58
5977.00,0.58
5976.00,0.58
5975.00,0.58
5974.00,0.58
5973.00,0.58
5972.00,0.58
5971.00,0.58
5970.00,0.58
5969.00,0.58
5968.00,0.58
5967.00,0.58
5966.00,0.58
5965.00,0.59
5964.00,0.59
5963.00,0.59
5962.00,0.59
5961.00,0.59
5960.00,0.59
5959.00,0.59
5958.00,0.59
5957.00,0.59
5956.00,0.59
5955.00,0.59
5954.00,0.59
5953.00,0.59
5952.00,0.59
5951.00,0.59
5950.00,0.59
5949.00,0.59
5948.00,0.59
5947.00,0.59
5946.00,0.59
5945.00,0.59
5944.00,0.59
5943.00,0.59
5942.00,0.58
5941.00,0.58
5940.00,0.58
5939.00,0.58
5938.00,0.58
5937.00,0.58
5936.00,0.58
5935.00,0.58
5934.00,0.57
5933.00,0.57
5932.00,0.57
5931.00,0.57
5930.00,0.57
5929.00,0.57
5928.00,0.56
5927.00,0.56
5926.00,0.56
5925.00,0.56
5924.00,0.56
5923.00,0.56
5922.00,0.55
5921.00,0.55
5920.00,0.55
5919.00,0.55
5918.00,0.55
5917.00,0.55
5916.00,0.55
5915.00,0.55
5914.00,0.54
5913.00,0.54
5912.00,0.54
5911.00,0.54
5910.00,0.54
5909.00,0.54
5908.00,0.54
5907.00,0.54
5906.00,0.54
5905.00,0.54
5904.00,0.54
5903.00,0.54
5902.00,0.54
5901.00,0.54
5900.00,0.54
5899.00,0.54
5898.00,0.54
5897.00,0.55
5896.00,0.55
5895.00,0.55
5894.00,0.55
5893.00,0.55
5892.00,0.55
5891.00,0.55
5890.00,0.55
5889.00,0.55
5888.00,0.55
5887.00,0.56
5886.00,0.56
5885.00,0.56
5884.00,0.56
5883.00,0.56
5882.00,0.56
5881.00,0.56
5880.00,0.56
5879.00,0.56
5878.00,0.56
5877.00,0.56
5876.00,0.56
5875.00,0.57
5874.00,0.57
5873.00,0.57
5872.00,0.57
5871.00,0.57
5870.00,0.57
5869.00,0.57
5868.00,0.57
5867.00,0.57
5866.00,0.57
5865.00,0.57
5864.00,0.57
5863.00,0.57
5862.00,0.57
5861.00,0.57
5860.00,0.57
5859.00,0.57
5858.00,0.57
5857.00,0.58
5856.00,0.58
5855.00,0.58
5854.00,0.58
5853.00,0.58
5852.00,0.58
5851.00,0.58
5850.00,0.58
5849.00,0.58
5848.00,0.58
5847.00,0.58
5846.00,0.58
5845.00,0.58
5844.00,0.58
5843.00,0.58
5842.00,0.58
5841.00,0.58
5840.00,0.58
5839.00,0.58
5838.00,0.58
5837.00,0.58
5836.00,0.58
5835.00,0.58
5834.00,0.58
5833.00,0.57
5832.00,0.57
5831.00,0.57
5830.00,0.57
5829.00,0.57
5828.00,0.57
5827.00,0.57
5826.00,0.57
5825.00,0.57
5824.00,0.57
5823.00,0.57
5822.00,0.57
5821.00,0.57
5820.00,0.57
5819.00,0.56
5818.00,0.56
5817.00,0.56
5816.00,0.56
5815.00,0.56
5814.00,0.56
5813.00,0.56
5812.00,0.56
5811.00,0.56
5810.00,0.56
5809.00,0.56
5808.00,0.56
5807.00,0.56
5806.00,0.56
5805.00,0.56
5804.00,0.56
5803.00,0.56
5802.00,0.56
5801.00,0.56
5800.00,0.56
5799.00,0.56
5798.00,0.56
5797.00,0.56
5796.00,0.56
5795.00,0.56
5794.00,0.56
5793.00,0.56
5792.00,0.56
5791.00,0.56
5790.00,0.55
5789.00,0.55
5788.00,0.55
5787.00,0.55
5786.00,0.55
5785.00,0.55
5784.00,0.55
5783.00,0.55
5782.00,0.55
5781.00,0.55
5780.00,0.55
5779.00,0.55
5778.00,0.55
5777.00,0.55
5776.00,0.55
5775.00,0.55
5774.00,0.55
5773.00,0.55
5772.00,0.55
5771.00,0.55
5770.00,0.55
5769.00,0.55
5768.00,0.55
5767.00,0.55
5766.00,0.55
5765.00,0.55
5764.00,0.55
5763.00,0.55
5762.00,0.55
5761.00,0.55
5760.00,0.55
5759.00,0.55
5758.00,0.55
5757.00,0.55
5756.00,0.55
5755.00,0.55
5754.00,0.55
5753.00,0.55
5752.00,0.55
5751.00,0.55
5750.00,0.55
5749.00,0.55
5748.00,0.55
5747.00,0.55
5746.00,0.55
5745.00,0.55
5744.00,0.56
5743.00,0.56
5742.00,0.56
5741.00,0.56
5740.00,0.56
5739.00,0.56
5738.00,0.56
5737.00,0.56
5736.00,0.57
5735.00,0.57
5734.00,0.57
5733.00,0.57
5732.00,0.57
5731.00,0.58
5730.00,0.58
5729.00,0.58
5728.00,0.58
5727.00,0.58
5726.00,0.58
5725.00,0.58
5724.00,0.58
5723.00,0.58
5722.00,0.58
5721.00,0.58
5720.00,0.58
5719.00,0.58
5718.00,0.58
5717.00,0.58
5716.00,0.58
5715.00,0.58
5714.00,0.58
5713.00,0.58
5712.00,0.58
5711.00,0.58
5710.00,0.58
5709.00,0.58
5708.00,0.57
5707.00,0.57
5706.00,0.57
5705.00,0.57
5704.00,0.57
5703.00,0.57
5702.00,0.57
5701.00,0.57
5700.00,0.56
5699.00,0.56
5698.00,0.56
5697.00,0.56
5696.00,0.56
5695.00,0.56
5694.00,0.56
5693.00,0.56
5692.00,0.56
5691.00,0.56
5690.00,0.56
5689.00,0.56
5688.00,0.56
5687.00,0.56
5686.00,0.56
5685.00,0.56
5684.00,0.56
5683.00,0.56
5682.00,0.56
5681.00,0.56
5680.00,0.55
5679.00,0.55
5678.00,0.55
5677.00,0.55
5676.00,0.55
5675.00,0.55
5674.00,0.55
5673.00,0.55
5672.00,0.55
5671.00,0.55
5670.00,0.55
5669.00,0.55
5668.00,0.55
5667.00,0.55
5666.00,0.55
5665.00,0.54
5664.00,0.54
5663.00,0.54
5662.00,0.54
5661.00,0.54
5660.00,0.54
5659.00,0.54
5658.00,0.54
5657.00,0.54
5656.00,0.54
5655.00,0.54
5654.00,0.54
5653.00,0.54
5652.00,0.54
5651.00,0.54
5650.00,0.54
5649.00,0.54
5648.00,0.54
5647.00,0.54
5646.00,0.54
5645.00,0.54
5644.00,0.54
5643.00,0.54
5642.00,0.54
5641.00,0.55
5640.00,0.55
5639.00,0.55
5638.00,0.55
5637.00,0.55
5636.00,0.55
5635.00,0.55
5634.00,0.55
5633.00,0.55
5632.00,0.56
5631.00,0.56
5630.00,0.56
5629.00,0.56
5628.00,0.56
5627.00,0.56
5626.00,0.56
5625.00,0.56
5624.00,0.56
5623.00,0.56
5622.00,0.57
5621.00,0.57
5620.00,0.57
5619.00,0.57
5618.00,0.57
5617.00,0.57
5616.00,0.57
5615.00,0.57
5614.00,0.57
5613.00,0.57
5612.00,0.57
5611.00,0.57
5610.00,0.57
5609.00,0.57
5608.00,0.57
5607.00,0.57
5606.00,0.57
5605.00,0.57
5604.00,0.57
5603.00,0.57
5602.00,0.57
5601.00,0.57
5600.00,0.57
5599.00,0.57
5598.00,0.57
5597.00,0.58
5596.00,0.58
5595.00,0.58
5594.00,0.58
5593.00,0.58
5592.00,0.58
5591.00,0.58
5590.00,0.58
5589.00,0.58
5588.00,0.58
5587.00,0.58
5586.00,0.59
5585.00,0.59
5584.00,0.59
5583.00,0.59
5582.00,0.59
5581.00,0.59
5580.00,0.59
5579.00,0.59
5578.00,0.60
5577.00,0.60
5576.00,0.60
5575.00,0.60
5574.00,0.60
5573.00,0.60
5572.00,0.60
5571.00,0.60
5570.00,0.60
5569.00,0.60
5568.00,0.60
5567.00,0.61
5566.00,0.61
5565.00,0.61
5564.00,0.61
5563.00,0.61
5562.00,0.61
5561.00,0.61
5560.00,0.61
5559.00,0.61
5558.00,0.61
5557.00,0.61
5556.00,0.61
5555.00,0.61
5554.00,0.61
5553.00,0.61
5552.00,0.61
5551.00,0.61
5550.00,0.61
5549.00,0.61
5548.00,0.61
5547.00,0.61
5546.00,0.60
5545.00,0.60
5544.00,0.60
5543.00,0.60
5542.00,0.60
5541.00,0.60
5540.00,0.60
5539.00,0.60
5538.00,0.60
5537.00,0.60
5536.00,0.60
5535.00,0.60
5534.00,0.60
5533.00,0.60
5532.00,0.60
5531.00,0.60
5530.00,0.60
5529.00,0.60
5528.00,0.60
5527.00,0.60
5526.00,0.60
5525.00,0.60
5524.00,0.60
5523.00,0.60
5522.00,0.60
5521.00,0.60
5520.00,0.60
5519.00,0.60
5518.00,0.60
5517.00,0.60
5516.00,0.60
5515.00,0.60
5514.00,0.60
5513.00,0.60
5512.00,0.61
5511.00,0.61
5510.00,0.61
5509.00,0.61
5508.00,0.61
5507.00,0.61
5506.00,0.61
5505.00,0.61
5504.00,0.61
5503.00,0.61
5502.00,0.61
5501.00,0.61
5500.00,0.61
5499.00,0.62
5498.00,0.62
5497.00,0.62
5496.00,0.62
5495.00,0.62
5494.00,0.62
5493.00,0.62
5492.00,0.62
5491.00,0.62
5490.00,0.62
5489.00,0.62
5488.00,0.62
5487.00,0.62
5486.00,0.62
5485.00,0.62
5484.00,0.62
5483.00,0.62
5482.00,0.62
5481.00,0.63
5480.00,0.63
5479.00,0.63
5478.00,0.63
5477.00,0.63
5476.00,0.63
5475.00,0.63
5474.00,0.63
5473.00,0.63
5472.00,0.63
5471.00,0.63
5470.00,0.63
5469.00,0.63
5468.00,0.63
5467.00,0.63
5466.00,0.63
5465.00,0.64
5464.00,0.64
5463.00,0.64
5462.00,0.64
5461.00,0.64
5460.00,0.64
5459.00,0.64
5458.00,0.64
5457.00,0.64
5456.00,0.64
5455.00,0.64
5454.00,0.64
5453.00,0.64
5452.00,0.64
5451.00,0.64
5450.00,0.65
5449.00,0.65
5448.00,0.65
5447.00,0.65
5446.00,0.65
5445.00,0.65
5444.00,0.65
5443.00,0.65
5442.00,0.65
5441.00,0.65
5440.00,0.65
5439.00,0.65
5438.00,0.65
5437.00,0.65
5436.00,0.65
5435.00,0.65
5434.00,0.65
5433.00,0.65
5432.00,0.65
5431.00,0.65
5430.00,0.65
5429.00,0.65
5428.00,0.65
5427.00,0.65
5426.00,0.65
5425.00,0.65
5424.00,0.65
5423.00,0.65
5422.00,0.65
5421.00,0.65
5420.00,0.65
5419.00,0.65
5418.00,0.64
5417.00,0.64
5416.00,0.64
5415.00,0.64
5414.00,0.64
5413.00,0.64
5412.00,0.64
5411.00,0.64
5410.00,0.64
5409.00,0.64
5408.00,0.64
5407.00,0.64
5406.00,0.64
5405.00,0.64
5404.00,0.64
5403.00,0.64
5402.00,0.64
5401.00,0.64
5400.00,0.64
5399.00,0.64
5398.00,0.64
5397.00,0.64
5396.00,0.64
5395.00,0.64
5394.00,0.64
5393.00,0.63
5392.00,0.63
5391.00,0.63
5390.00,0.63
5389.00,0.63
5388.00,0.63
5387.00,0.63
5386.00,0.62
5385.00,0.62
5384.00,0.62
5383.00,0.62
5382.00,0.62
5381.00,0.62
5380.00,0.61
5379.00,0.61
5378.00,0.61
5377.00,0.61
5376.00,0.61
5375.00,0.61
5374.00,0.60
5373.00,0.60
5372.00,0.60
5371.00,0.60
5370.00,0.59
5369.00,0.59
5368.00,0.59
5367.00,0.59
5366.00,0.58
5365.00,0.58
5364.00,0.58
5363.00,0.58
5362.00,0.57
5361.00,0.57
5360.00,0.57
5359.00,0.56
5358.00,0.56
5357.00,0.55
5356.00,0.55
5355.00,0.55
5354.00,0.54
5353.00,0.54
5352.00,0.53
5351.00,0.53
5350.00,0.52
5349.00,0.52
5348.00,0.52
5347.00,0.51
5346.00,0.51
5345.00,0.50
5344.00,0.50
5343.00,0.50
5342.00,0.49
5341.00,0.49
5340.00,0.48
5339.00,0.48
5338.00,0.47
5337.00,0.47
5336.00,0.47
5335.00,0.46
5334.00,0.46
5333.00,0.46
5332.00,0.45
5331.00,0.45
5330.00,0.44
5329.00,0.44
5328.00,0.44
5327.00,0.43
5326.00,0.43
5325.00,0.43
5324.00,0.42
5323.00,0.42
5322.00,0.41
5321.00,0.41
5320.00,0.41
5319.00,0.40
5318.00,0.40
5317.00,0.39
5316.00,0.39
5315.00,0.39
5314.00,0.38
5313.00,0.38
5312.00,0.38
5311.00,0.37
5310.00,0.37
5309.00,0.37
5308.00,0.36
5307.00,0.36
5306.00,0.36
5305.00,0.35
5304.00,0.35
5303.00,0.35
5302.00,0.35
5301.00,0.34
5300.00,0.34
5299.00,0.34
5298.00,0.34
5297.00,0.33
5296.00,0.33
5295.00,0.33
5294.00,0.33
5293.00,0.33
5292.00,0.33
5291.00,0.33
5290.00,0.33
5289.00,0.33
5288.00,0.33
5287.00,0.33
5286.00,0.33
5285.00,0.33
5284.00,0.32
5283.00,0.32
5282.00,0.32
5281.00,0.32
5280.00,0.32
5279.00,0.32
5278.00,0.32
5277.00,0.32
5276.00,0.32
5275.00,0.32
5274.00,0.32
5273.00,0.32
5272.00,0.32
5271.00,0.32
5270.00,0.32
5269.00,0.32
5268.00,0.32
5267.00,0.32
5266.00,0.32
5265.00,0.32
5264.00,0.32
5263.00,0.32
5262.00,0.32
5261.00,0.32
5260.00,0.31
5259.00,0.31
5258.00,0.31
5257.00,0.31
5256.00,0.31
5255.00,0.31
5254.00,0.31
5253.00,0.31
5252.00,0.31
5251.00,0.31
5250.00,0.31
5249.00,0.31
5248.00,0.31
5247.00,0.31
5246.00,0.31
5245.00,0.31
5244.00,0.31
5243.00,0.31
5242.00,0.31
5241.00,0.31
5240.00,0.31
5239.00,0.31
5238.00,0.31
5237.00,0.31
5236.00,0.31
5235.00,0.31
5234.00,0.31
5233.00,0.31
5232.00,0.31
5231.00,0.31
5230.00,0.31
5229.00,0.31
5228.00,0.31
5227.00,0.31
5226.00,0.31
5225.00,0.31
5224.00,0.31
5223.00,0.31
5222.00,0.31
5221.00,0.31
5220.00,0.31
5219.00,0.31
5218.00,0.31
5217.00,0.30
5216.00,0.30
5215.00,0.30
5214.00,0.30
5213.00,0.30
5212.00,0.30
5211.00,0.30
5210.00,0.30
5209.00,0.30
5208.00,0.30
5207.00,0.30
5206.00,0.30
5205.00,0.30
5204.00,0.30
5203.00,0.30
5202.00,0.30
5201.00,0.29
5200.00,0.29
5199.00,0.29
5198.00,0.29
5197.00,0.29
5196.00,0.29
5195.00,0.29
5194.00,0.29
5193.00,0.29
5192.00,0.29
5191.00,0.29
5190.00,0.29
5189.00,0.30
5188.00,0.30
5187.00,0.30
5186.00,0.30
5185.00,0.30
5184.00,0.30
5183.00,0.30
5182.00,0.30
5181.00,0.30
5180.00,0.30
5179.00,0.31
5178.00,0.31
5177.00,0.31
5176.00,0.31
5175.00,0.31
5174.00,0.31
5173.00,0.31
5172.00,0.31
5171.00,0.32
5170.00,0.32
5169.00,0.32
5168.00,0.32
5167.00,0.32
5166.00,0.32
5165.00,0.32
5164.00,0.32
5163.00,0.32
5162.00,0.32
5161.00,0.32
5160.00,0.32
5159.00,0.33
5158.00,0.33
5157.00,0.33
5156.00,0.33
5155.00,0.33
5154.00,0.33
5153.00,0.33
5152.00,0.33
5151.00,0.33
5150.00,0.33
5149.00,0.33
5148.00,0.33
5147.00,0.33
5146.00,0.33
5145.00,0.33
5144.00,0.33
5143.00,0.33
5142.00,0.33
5141.00,0.33
5140.00,0.33
5139.00,0.33
5138.00,0.33
5137.00,0.33
5136.00,0.33
5135.00,0.33
5134.00,0.33
5133.00,0.33
5132.00,0.33
5131.00,0.33
5130.00,0.33
5129.00,0.33
5128.00,0.33
5127.00,0.33
5126.00,0.33
5125.00,0.34
5124.00,0.34
5123.00,0.34
5122.00,0.34
5121.00,0.34
5120.00,0.34
5119.00,0.34
5118.00,0.34
5117.00,0.33
5116.00,0.33
5115.00,0.33
5114.00,0.33
5113.00,0.33
5112.00,0.33
5111.00,0.33
5110.00,0.33
5109.00,0.33
5108.00,0.33
5107.00,0.33
5106.00,0.33
5105.00,0.33
5104.00,0.33
5103.00,0.33
5102.00,0.33
5101.00,0.33
5100.00,0.33
5099.00,0.33
5098.00,0.33
5097.00,0.33
5096.00,0.33
5095.00,0.33
5094.00,0.33
5093.00,0.33
5092.00,0.33
5091.00,0.33
5090.00,0.33
5089.00,0.33
5088.00,0.33
5087.00,0.33
5086.00,0.33
5085.00,0.33
5084.00,0.33
5083.00,0.33
5082.00,0.33
5081.00,0.33
5080.00,0.33
5079.00,0.33
5078.00,0.33
5077.00,0.33
5076.00,0.33
5075.00,0.33
5074.00,0.33
5073.00,0.33
5072.00,0.33
5071.00,0.33
5070.00,0.33
5069.00,0.33
5068.00,0.33
5067.00,0.33
5066.00,0.33
5065.00,0.33
5064.00,0.33
5063.00,0.33
5062.00,0.33
5061.00,0.33
5060.00,0.33
5059.00,0.33
5058.00,0.33
5057.00,0.33
5056.00,0.33
5055.00,0.33
5054.00,0.33
5053.00,0.33
5052.00,0.33
5051.00,0.33
5050.00,0.34
5049.00,0.34
5048.00,0.34
5047.00,0.34
5046.00,0.34
5045.00,0.34
5044.00,0.34
5043.00,0.34
5042.00,0.34
5041.00,0.34
5040.00,0.34
5039.00,0.34
5038.00,0.34
5037.00,0.35
5036.00,0.35
5035.00,0.35
5034.00,0.35
5033.00,0.35
5032.00,0.35
5031.00,0.35
5030.00,0.35
5029.00,0.35
5028.00,0.35
5027.00,0.35
5026.00,0.35
5025.00,0.35
5024.00,0.35
5023.00,0.35
5022.00,0.35
5021.00,0.35
5020.00,0.35
5019.00,0.35
5018.00,0.35
5017.00,0.35
5016.00,0.35
5015.00,0.35
5014.00,0.35
5013.00,0.35
5012.00,0.35
5011.00,0.35
5010.00,0.35
5009.00,0.35
5008.00,0.35
5007.00,0.35
5006.00,0.35
5005.00,0.35
5004.00,0.35
5003.00,0.35
5002.00,0.35
5001.00,0.35
5000.00,0.35
4999.00,0.35
4998.00,0.35
4997.00,0.35
4996.00,0.35
4995.00,0.35
4994.00,0.35
4993.00,0.35
4992.00,0.35
4991.00,0.35
4990.00,0.35
4989.00,0.35
4988.00,0.35
4987.00,0.35
4986.00,0.35
4985.00,0.36
4984.00,0.36
4983.00,0.36
4982.00,0.36
4981.00,0.36
4980.00,0.36
4979.00,0.36
4978.00,0.36
4977.00,0.36
4976.00,0.36
4975.00,0.36
4974.00,0.36
4973.00,0.36
4972.00,0.36
4971.00,0.37
4970.00,0.37
4969.00,0.37
4968.00,0.37
4967.00,0.37
4966.00,0.37
4965.00,0.37
4964.00,0.37
4963.00,0.37
4962.00,0.37
4961.00,0.37
4960.00,0.37
4959.00,0.37
4958.00,0.37
4957.00,0.37
4956.00,0.37
4955.00,0.37
4954.00,0.37
4953.00,0.37
4952.00,0.37
4951.00,0.37
4950.00,0.37
4949.00,0.38
4948.00,0.38
4947.00,0.38
4946.00,0.38
4945.00,0.38
4944.00,0.38
4943.00,0.38
4942.00,0.38
4941.00,0.38
4940.00,0.38
4939.00,0.38
4938.00,0.38
4937.00,0.38
4936.00,0.38
4935.00,0.38
4934.00,0.38
4933.00,0.38
4932.00,0.38
4931.00,0.38
4930.00,0.38
4929.00,0.38
4928.00,0.38
4927.00,0.38
4926.00,0.38
4925.00,0.39
4924.00,0.39
4923.00,0.39
4922.00,0.39
4921.00,0.39
4920.00,0.39
4919.00,0.39
4918.00,0.39
4917.00,0.39
4916.00,0.39
4915.00,0.39
4914.00,0.39
4913.00,0.39
4912.00,0.39
4911.00,0.39
4910.00,0.39
4909.00,0.40
4908.00,0.40
4907.00,0.40
4906.00,0.40
4905.00,0.40
4904.00,0.40
4903.00,0.40
4902.00,0.40
4901.00,0.40
4900.00,0.40
4899.00,0.40
4898.00,0.40
4897.00,0.40
4896.00,0.40
4895.00,0.40
4894.00,0.40
4893.00,0.40
4892.00,0.40
4891.00,0.40
4890.00,0.40
4889.00,0.40
4888.00,0.40
4887.00,0.40
4886.00,0.40
4885.00,0.40
4884.00,0.40
4883.00,0.40
4882.00,0.39
4881.00,0.39
4880.00,0.39
4879.00,0.39
4878.00,0.39
4877.00,0.39
4876.00,0.39
4875.00,0.39
4874.00,0.38
4873.00,0.38
4872.00,0.38
4871.00,0.38
4870.00,0.38
4869.00,0.38
4868.00,0.38
4867.00,0.38
4866.00,0.38
4865.00,0.38
4864.00,0.38
4863.00,0.38
4862.00,0.38
4861.00,0.38
4860.00,0.38
4859.00,0.38
4858.00,0.38
4857.00,0.38
4856.00,0.38
4855.00,0.38
4854.00,0.38
4853.00,0.38
4852.00,0.38
4851.00,0.38
4850.00,0.38
4849.00,0.38
4848.00,0.38
4847.00,0.38
4846.00,0.38
4845.00,0.38
4844.00,0.38
4843.00,0.38
4842.00,0.38
4841.00,0.38
4840.00,0.38
4839.00,0.39
4838.00,0.39
4837.00,0.39
4836.00,0.39
4835.00,0.39
4834.00,0.39
4833.00,0.39
4832.00,0.40
4831.00,0.40
4830.00,0.40
4829.00,0.40
4828.00,0.40
4827.00,0.41
4826.00,0.41
4825.00,0.41
4824.00,0.41
4823.00,0.41
4822.00,0.41
4821.00,0.42
4820.00,0.42
4819.00,0.42
4818.00,0.42
4817.00,0.42
4816.00,0.42
4815.00,0.42
4814.00,0.42
4813.00,0.42
4812.00,0.42
4811.00,0.43
4810.00,0.43
4809.00,0.43
4808.00,0.43
4807.00,0.43
4806.00,0.43
4805.00,0.43
4804.00,0.43
4803.00,0.43
4802.00,0.43
4801.00,0.43
4800.00,0.43
4799.00,0.43
4798.00,0.43
4797.00,0.43
4796.00,0.43
4795.00,0.43
4794.00,0.43
4793.00,0.44
4792.00,0.44
4791.00,0.44
4790.00,0.44
4789.00,0.44
4788.00,0.44
4787.00,0.44
4786.00,0.44
4785.00,0.44
4784.00,0.44
4783.00,0.44
4782.00,0.44
4781.00,0.44
4780.00,0.44
4779.00,0.44
4778.00,0.45
4777.00,0.45
4776.00,0.45
4775.00,0.45
4774.00,0.45
4773.00,0.45
4772.00,0.45
4771.00,0.45
4770.00,0.45
4769.00,0.45
4768.00,0.45
4767.00,0.45
4766.00,0.45
4765.00,0.45
4764.00,0.45
4763.00,0.45
4762.00,0.45
4761.00,0.45
4760.00,0.45
4759.00,0.45
4758.00,0.45
4757.00,0.45
4756.00,0.45
4755.00,0.45
4754.00,0.46
4753.00,0.46
4752.00,0.46
4751.00,0.46
4750.00,0.46
4749.00,0.46
4748.00,0.46
4747.00,0.47
4746.00,0.47
4745.00,0.47
4744.00,0.47
4743.00,0.47
4742.00,0.48
4741.00,0.48
4740.00,0.48
4739.00,0.48
4738.00,0.48
4737.00,0.48
4736.00,0.48
4735.00,0.49
4734.00,0.49
4733.00,0.49
4732.00,0.49
4731.00,0.49
4730.00,0.49
4729.00,0.50
4728.00,0.50
4727.00,0.50
4726.00,0.50
4725.00,0.50
4724.00,0.50
4723.00,0.50
4722.00,0.51
4721.00,0.51
4720.00,0.51
4719.00,0.51
4718.00,0.51
4717.00,0.51
4716.00,0.51
4715.00,0.51
4714.00,0.51
4713.00,0.52
4712.00,0.52
4711.00,0.52
4710.00,0.52
4709.00,0.52
4708.00,0.52
4707.00,0.52
4706.00,0.52
4705.00,0.52
4704.00,0.53
4703.00,0.53
4702.00,0.53
4701.00,0.53
4700.00,0.53
4699.00,0.53
4698.00,0.53
4697.00,0.53
4696.00,0.53
4695.00,0.53
4694.00,0.53
4693.00,0.53
4692.00,0.53
4691.00,0.53
4690.00,0.53
4689.00,0.53
4688.00,0.53
4687.00,0.53
4686.00,0.53
4685.00,0.53
4684.00,0.53
4683.00,0.53
4682.00,0.53
4681.00,0.53
4680.00,0.53
4679.00,0.53
4678.00,0.53
4677.00,0.53
4676.00,0.53
4675.00,0.53
4674.00,0.52
4673.00,0.52
4672.00,0.52
4671.00,0.52
4670.00,0.52
4669.00,0.52
4668.00,0.52
4667.00,0.52
4666.00,0.52
4665.00,0.52
4664.00,0.52
4663.00,0.52
4662.00,0.52
4661.00,0.52
4660.00,0.52
4659.00,0.52
4658.00,0.52
4657.00,0.52
4656.00,0.52
4655.00,0.52
4654.00,0.52
4653.00,0.52
4652.00,0.52
4651.00,0.53
4650.00,0.53
4649.00,0.53
4648.00,0.53
4647.00,0.53
4646.00,0.53
4645.00,0.53
4644.00,0.53
4643.00,0.53
4642.00,0.53
4641.00,0.54
4640.00,0.54
4639.00,0.54
4638.00,0.54
4637.00,0.54
4636.00,0.54
4635.00,0.54
4634.00,0.54
4633.00,0.55
4632.00,0.55
4631.00,0.55
4630.00,0.55
4629.00,0.55
4628.00,0.55
4627.00,0.55
4626.00,0.55
4625.00,0.55
4624.00,0.56
4623.00,0.56
4622.00,0.56
4621.00,0.56
4620.00,0.56
4619.00,0.56
4618.00,0.56
4617.00,0.56
4616.00,0.56
4615.00,0.56
4614.00,0.56
4613.00,0.56
4612.00,0.56
4611.00,0.56
4610.00,0.56
4609.00,0.56
4608.00,0.56
4607.00,0.56
4606.00,0.56
4605.00,0.56
4604.00,0.56
4603.00,0.56
4602.00,0.56
4601.00,0.56
4600.00,0.56
4599.00,0.56
4598.00,0.56
4597.00,0.56
4596.00,0.56
4595.00,0.56
4594.00,0.57
4593.00,0.57
4592.00,0.57
4591.00,0.57
4590.00,0.57
4589.00,0.57
4588.00,0.57
4587.00,0.57
4586.00,0.57
4585.00,0.57
4584.00,0.57
4583.00,0.57
4582.00,0.57
4581.00,0.57
4580.00,0.58
4579.00,0.58
4578.00,0.58
4577.00,0.58
4576.00,0.58
4575.00,0.58
4574.00,0.58
4573.00,0.58
4572.00,0.58
4571.00,0.58
4570.00,0.58
4569.00,0.58
4568.00,0.58
4567.00,0.58
4566.00,0.58
4565.00,0.58
4564.00,0.58
4563.00,0.58
4562.00,0.58
4561.00,0.58
4560.00,0.58
4559.00,0.58
4558.00,0.58
4557.00,0.58
4556.00,0.58
4555.00,0.58
4554.00,0.58
4553.00,0.58
4552.00,0.58
4551.00,0.58
4550.00,0.58
4549.00,0.58
4548.00,0.58
4547.00,0.58
4546.00,0.58
4545.00,0.58
4544.00,0.58
4543.00,0.58
4542.00,0.58
4541.00,0.58
4540.00,0.58
4539.00,0.58
4538.00,0.58
4537.00,0.58
4536.00,0.58
4535.00,0.58
4534.00,0.58
4533.00,0.58
4532.00,0.58
4531.00,0.58
4530.00,0.58
4529.00,0.58
4528.00,0.58
4527.00,0.58
4526.00,0.58
4525.00,0.58
4524.00,0.58
4523.00,0.58
4522.00,0.58
4521.00,0.58
4520.00,0.58
4519.00,0.58
4518.00,0.58
4517.00,0.58
4516.00,0.58
4515.00,0.58
4514.00,0.58
4513.00,0.58
4512.00,0.58
4511.00,0.58
4510.00,0.58
4509.00,0.58
4508.00,0.59
4507.00,0.59
4506.00,0.59
4505.00,0.59
4504.00,0.59
4503.00,0.59
4502.00,0.59
4501.00,0.59
4500.00,0.59
4499.00,0.59
4498.00,0.59
4497.00,0.59
4496.00,0.59
4495.00,0.59
4494.00,0.59
4493.00,0.59
4492.00,0.59
4491.00,0.59
4490.00,0.59
4489.00,0.59
4488.00,0.59
4487.00,0.59
4486.00,0.59
4485.00,0.59
4484.00,0.59
4483.00,0.59
4482.00,0.58
4481.00,0.58
4480.00,0.58
4479.00,0.58
4478.00,0.58
4477.00,0.58
4476.00,0.57
4475.00,0.57
4474.00,0.57
4473.00,0.57
4472.00,0.57
4471.00,0.57
4470.00,0.56
4469.00,0.56
4468.00,0.56
4467.00,0.56
4466.00,0.56
4465.00,0.56
4464.00,0.56
4463.00,0.56
4462.00,0.55
4461.00,0.55
4460.00,0.55
4459.00,0.55
4458.00,0.55
4457.00,0.55
4456.00,0.55
4455.00,0.54
4454.00,0.54
4453.00,0.54
4452.00,0.54
4451.00,0.54
4450.00,0.53
4449.00,0.53
4448.00,0.53
4447.00,0.53
4446.00,0.53
4445.00,0.52
4444.00,0.52
4443.00,0.52
4442.00,0.51
4441.00,0.51
4440.00,0.51
4439.00,0.51
4438.00,0.50
4437.00,0.50
4436.00,0.50
4435.00,0.49
4434.00,0.49
4433.00,0.49
4432.00,0.49
4431.00,0.49
4430.00,0.48
4429.00,0.48
4428.00,0.48
4427.00,0.48
4426.00,0.48
4425.00,0.48
4424.00,0.47
4423.00,0.47
4422.00,0.47
4421.00,0.47
4420.00,0.47
4419.00,0.47
4418.00,0.47
4417.00,0.47
4416.00,0.47
4415.00,0.47
4414.00,0.47
4413.00,0.47
4412.00,0.47
4411.00,0.47
4410.00,0.47
4409.00,0.47
4408.00,0.47
4407.00,0.47
4406.00,0.47
4405.00,0.47
4404.00,0.47
4403.00,0.47
4402.00,0.47
4401.00,0.48
4400.00,0.48
4399.00,0.48
4398.00,0.48
4397.00,0.48
4396.00,0.49
4395.00,0.49
4394.00,0.49
4393.00,0.49
4392.00,0.49
4391.00,0.50
4390.00,0.50
4389.00,0.50
4388.00,0.50
4387.00,0.50
4386.00,0.51
4385.00,0.51
4384.00,0.51
4383.00,0.51
4382.00,0.51
4381.00,0.51
4380.00,0.51
4379.00,0.52
4378.00,0.52
4377.00,0.52
4376.00,0.52
4375.00,0.52
4374.00,0.52
4373.00,0.52
4372.00,0.52
4371.00,0.52
4370.00,0.52
4369.00,0.52
4368.00,0.52
4367.00,0.51
4366.00,0.51
4365.00,0.51
4364.00,0.51
4363.00,0.51
4362.00,0.51
4361.00,0.51
4360.00,0.51
4359.00,0.51
4358.00,0.51
4357.00,0.51
4356.00,0.51
4355.00,0.51
4354.00,0.51
4353.00,0.51
4352.00,0.51
4351.00,0.51
4350.00,0.51
4349.00,0.50
4348.00,0.50
4347.00,0.50
4346.00,0.50
4345.00,0.50
4344.00,0.50
4343.00,0.50
4342.00,0.50
4341.00,0.50
4340.00,0.50
4339.00,0.50
4338.00,0.50
4337.00,0.49
4336.00,0.49
4335.00,0.49
4334.00,0.49
4333.00,0.49
4332.00,0.49
4331.00,0.49
4330.00,0.49
4329.00,0.49
4328.00,0.49
4327.00,0.49
4326.00,0.49
4325.00,0.48
4324.00,0.48
4323.00,0.48
4322.00,0.48
4321.00,0.49
4320.00,0.49
4319.00,0.49
4318.00,0.49
4317.00,0.49
4316.00,0.49
4315.00,0.49
4314.00,0.49
4313.00,0.49
4312.00,0.50
4311.00,0.50
4310.00,0.50
4309.00,0.50
4308.00,0.50
4307.00,0.50
4306.00,0.51
4305.00,0.51
4304.00,0.51
4303.00,0.51
4302.00,0.52
4301.00,0.52
4300.00,0.52
4299.00,0.53
4298.00,0.53
4297.00,0.53
4296.00,0.53
4295.00,0.54
4294.00,0.54
4293.00,0.54
4292.00,0.54
4291.00,0.55
4290.00,0.55
4289.00,0.55
4288.00,0.55
4287.00,0.56
4286.00,0.56
4285.00,0.56
4284.00,0.56
4283.00,0.56
4282.00,0.56
4281.00,0.57
4280.00,0.57
4279.00,0.57
4278.00,0.57
4277.00,0.57
4276.00,0.57
4275.00,0.57
4274.00,0.57
4273.00,0.57
4272.00,0.57
4271.00,0.57
4270.00,0.57
4269.00,0.57
4268.00,0.57
4267.00,0.57
4266.00,0.57
4265.00,0.57
4264.00,0.56
4263.00,0.56
4262.00,0.56
4261.00,0.56
4260.00,0.56
4259.00,0.56
4258.00,0.56
4257.00,0.56
4256.00,0.55
4255.00,0.55
4254.00,0.55
4253.00,0.55
4252.00,0.55
4251.00,0.55
4250.00,0.55
4249.00,0.55
4248.00,0.55
4247.00,0.55
4246.00,0.55
4245.00,0.55
4244.00,0.55
4243.00,0.55
4242.00,0.55
4241.00,0.55
4240.00,0.55
4239.00,0.55
4238.00,0.55
4237.00,0.55
4236.00,0.55
4235.00,0.56
4234.00,0.56
4233.00,0.56
4232.00,0.56
4231.00,0.56
4230.00,0.56
4229.00,0.56
4228.00,0.56
4227.00,0.56
4226.00,0.56
4225.00,0.57
4224.00,0.57
4223.00,0.57
4222.00,0.57
4221.00,0.57
4220.00,0.57
4219.00,0.57
4218.00,0.57
4217.00,0.57
4216.00,0.57
4215.00,0.57
4214.00,0.57
4213.00,0.57
4212.00,0.57
4211.00,0.57
4210.00,0.57
4209.00,0.56
4208.00,0.56
4207.00,0.56
4206.00,0.56
4205.00,0.56
4204.00,0.56
4203.00,0.56
4202.00,0.56
4201.00,0.56
4200.00,0.56
4199.00,0.56
4198.00,0.56
4197.00,0.56
4196.00,0.56
4195.00,0.56
4194.00,0.56
4193.00,0.56
4192.00,0.56
4191.00,0.56
4190.00,0.56
4189.00,0.56
4188.00,0.56
4187.00,0.56
4186.00,0.56
4185.00,0.56
4184.00,0.56
4183.00,0.56
4182.00,0.56
4181.00,0.56
4180.00,0.56
4179.00,0.56
4178.00,0.56
4177.00,0.56
4176.00,0.56
4175.00,0.56
4174.00,0.56
4173.00,0.56
4172.00,0.56
4171.00,0.56
4170.00,0.56
4169.00,0.56
4168.00,0.55
4167.00,0.55
4166.00,0.55
4165.00,0.55
4164.00,0.55
4163.00,0.54
4162.00,0.54
4161.00,0.54
4160.00,0.54
4159.00,0.53
4158.00,0.53
4157.00,0.53
4156.00,0.53
4155.00,0.53
4154.00,0.52
4153.00,0.52
4152.00,0.52
4151.00,0.52
4150.00,0.52
4149.00,0.52
4148.00,0.52
4147.00,0.52
4146.00,0.52
4145.00,0.51
4144.00,0.51
4143.00,0.51
4142.00,0.51
4141.00,0.51
4140.00,0.51
4139.00,0.51
4138.00,0.51
4137.00,0.51
4136.00,0.52
4135.00,0.52
4134.00,0.52
4133.00,0.52
4132.00,0.52
4131.00,0.52
4130.00,0.52
4129.00,0.52
4128.00,0.52
4127.00,0.52
4126.00,0.52
4125.00,0.52
4124.00,0.52
4123.00,0.52
4122.00,0.52
4121.00,0.52
4120.00,0.52
4119.00,0.53
4118.00,0.53
4117.00,0.53
4116.00,0.53
4115.00,0.53
4114.00,0.53
4113.00,0.53
4112.00,0.53
4111.00,0.53
4110.00,0.53
4109.00,0.53
4108.00,0.53
4107.00,0.53
4106.00,0.53
4105.00,0.53
4104.00,0.53
4103.00,0.52
4102.00,0.52
4101.00,0.52
4100.00,0.52
4099.00,0.52
4098.00,0.52
4097.00,0.52
4096.00,0.52
4095.00,0.52
4094.00,0.52
4093.00,0.52
4092.00,0.52
4091.00,0.51
4090.00,0.51
4089.00,0.51
4088.00,0.51
4087.00,0.51
4086.00,0.51
4085.00,0.51
4084.00,0.51
4083.00,0.51
4082.00,0.51
4081.00,0.52
4080.00,0.52
4079.00,0.52
4078.00,0.53
4077.00,0.53
4076.00,0.53
4075.00,0.54
4074.00,0.54
4073.00,0.54
4072.00,0.55
4071.00,0.55
4070.00,0.56
4069.00,0.56
4068.00,0.56
4067.00,0.56
4066.00,0.57
4065.00,0.57
4064.00,0.57
4063.00,0.58
4062.00,0.58
4061.00,0.59
4060.00,0.59
4059.00,0.59
4058.00,0.59
4057.00,0.60
4056.00,0.60
4055.00,0.60
4054.00,0.60
4053.00,0.60
4052.00,0.60
4051.00,0.60
4050.00,0.60
4049.00,0.60
4048.00,0.59
4047.00,0.59
4046.00,0.59
4045.00,0.59
4044.00,0.59
4043.00,0.59
4042.00,0.58
4041.00,0.58
4040.00,0.58
4039.00,0.58
4038.00,0.58
4037.00,0.58
4036.00,0.58
4035.00,0.57
4034.00,0.57
4033.00,0.57
4032.00,0.57
4031.00,0.57
4030.00,0.57
4029.00,0.57
4028.00,0.58
4027.00,0.58
4026.00,0.58
4025.00,0.58
4024.00,0.59
4023.00,0.59
4022.00,0.60
4021.00,0.60
4020.00,0.60
4019.00,0.61
4018.00,0.61
4017.00,0.61
4016.00,0.62
4015.00,0.62
4014.00,0.62
4013.00,0.62
4012.00,0.63
4011.00,0.63
4010.00,0.63
4009.00,0.64
4008.00,0.64
4007.00,0.64
4006.00,0.64
4005.00,0.64
4004.00,0.64
4003.00,0.64
4002.00,0.65
4001.00,0.65
4000.00,0.65
