创建为新数据集,样品 133 用户 Administrator 日期 星期五, 七月 26 2019
cm-1,%T
10000.00,1.67
9999.00,1.67
9998.00,1.66
9997.00,1.66
9996.00,1.66
9995.00,1.66
9994.00,1.66
9993.00,1.65
9992.00,1.65
9991.00,1.65
9990.00,1.64
9989.00,1.64
9988.00,1.63
9987.00,1.63
9986.00,1.62
9985.00,1.61
9984.00,1.61
9983.00,1.60
9982.00,1.59
9981.00,1.58
9980.00,1.57
9979.00,1.56
9978.00,1.55
9977.00,1.54
9976.00,1.53
9975.00,1.52
9974.00,1.51
9973.00,1.51
9972.00,1.50
9971.00,1.49
9970.00,1.49
9969.00,1.48
9968.00,1.47
9967.00,1.47
9966.00,1.46
9965.00,1.46
9964.00,1.46
9963.00,1.45
9962.00,1.45
9961.00,1.45
9960.00,1.45
9959.00,1.45
9958.00,1.45
9957.00,1.46
9956.00,1.46
9955.00,1.47
9954.00,1.48
9953.00,1.48
9952.00,1.49
9951.00,1.50
9950.00,1.51
9949.00,1.51
9948.00,1.52
9947.00,1.52
9946.00,1.53
9945.00,1.53
9944.00,1.53
9943.00,1.54
9942.00,1.54
9941.00,1.54
9940.00,1.55
9939.00,1.55
9938.00,1.56
9937.00,1.56
9936.00,1.57
9935.00,1.57
9934.00,1.57
9933.00,1.58
9932.00,1.58
9931.00,1.58
9930.00,1.58
9929.00,1.58
9928.00,1.58
9927.00,1.58
9926.00,1.58
9925.00,1.58
9924.00,1.58
9923.00,1.58
9922.00,1.58
9921.00,1.58
9920.00,1.58
9919.00,1.59
9918.00,1.59
9917.00,1.60
9916.00,1.60
9915.00,1.61
9914.00,1.61
9913.00,1.62
9912.00,1.62
9911.00,1.62
9910.00,1.63
9909.00,1.63
9908.00,1.64
9907.00,1.64
9906.00,1.65
9905.00,1.65
9904.00,1.66
9903.00,1.67
9902.00,1.67
9901.00,1.68
9900.00,1.69
9899.00,1.69
9898.00,1.70
9897.00,1.70
9896.00,1.70
9895.00,1.71
9894.00,1.71
9893.00,1.71
9892.00,1.71
9891.00,1.71
9890.00,1.71
9889.00,1.71
9888.00,1.71
9887.00,1.70
9886.00,1.70
9885.00,1.70
9884.00,1.69
9883.00,1.69
9882.00,1.68
9881.00,1.67
9880.00,1.67
9879.00,1.66
9878.00,1.65
9877.00,1.64
9876.00,1.64
9875.00,1.63
9874.00,1.63
9873.00,1.62
9872.00,1.62
9871.00,1.61
9870.00,1.61
9869.00,1.61
9868.00,1.61
9867.00,1.61
9866.00,1.60
9865.00,1.60
9864.00,1.60
9863.00,1.60
9862.00,1.60
9861.00,1.60
9860.00,1.60
9859.00,1.60
9858.00,1.60
9857.00,1.59
9856.00,1.59
9855.00,1.59
9854.00,1.60
9853.00,1.60
9852.00,1.59
9851.00,1.59
9850.00,1.59
9849.00,1.59
9848.00,1.59
9847.00,1.58
9846.00,1.58
9845.00,1.57
9844.00,1.57
9843.00,1.56
9842.00,1.55
9841.00,1.55
9840.00,1.54
9839.00,1.54
9838.00,1.53
9837.00,1.53
9836.00,1.52
9835.00,1.52
9834.00,1.52
9833.00,1.52
9832.00,1.51
9831.00,1.51
9830.00,1.51
9829.00,1.50
9828.00,1.50
9827.00,1.50
9826.00,1.49
9825.00,1.49
9824.00,1.48
9823.00,1.48
9822.00,1.47
9821.00,1.47
9820.00,1.46
9819.00,1.46
9818.00,1.46
9817.00,1.46
9816.00,1.46
9815.00,1.45
9814.00,1.45
9813.00,1.45
9812.00,1.45
9811.00,1.45
9810.00,1.45
9809.00,1.44
9808.00,1.44
9807.00,1.44
9806.00,1.44
9805.00,1.43
9804.00,1.43
9803.00,1.43
9802.00,1.43
9801.00,1.44
9800.00,1.44
9799.00,1.44
9798.00,1.45
9797.00,1.45
9796.00,1.46
9795.00,1.46
9794.00,1.47
9793.00,1.47
9792.00,1.48
9791.00,1.48
9790.00,1.48
9789.00,1.49
9788.00,1.49
9787.00,1.50
9786.00,1.50
9785.00,1.50
9784.00,1.50
9783.00,1.51
9782.00,1.51
9781.00,1.51
9780.00,1.52
9779.00,1.52
9778.00,1.52
9777.00,1.52
9776.00,1.53
9775.00,1.53
9774.00,1.53
9773.00,1.53
9772.00,1.53
9771.00,1.53
9770.00,1.53
9769.00,1.53
9768.00,1.53
9767.00,1.53
9766.00,1.53
9765.00,1.53
9764.00,1.52
9763.00,1.52
9762.00,1.52
9761.00,1.52
9760.00,1.51
9759.00,1.51
9758.00,1.51
9757.00,1.51
9756.00,1.51
9755.00,1.51
9754.00,1.51
9753.00,1.50
9752.00,1.50
9751.00,1.50
9750.00,1.50
9749.00,1.50
9748.00,1.50
9747.00,1.50
9746.00,1.50
9745.00,1.50
9744.00,1.49
9743.00,1.49
9742.00,1.49
9741.00,1.49
9740.00,1.49
9739.00,1.49
9738.00,1.50
9737.00,1.50
9736.00,1.50
9735.00,1.50
9734.00,1.51
9733.00,1.51
9732.00,1.51
9731.00,1.52
9730.00,1.52
9729.00,1.52
9728.00,1.52
9727.00,1.52
9726.00,1.52
9725.00,1.52
9724.00,1.52
9723.00,1.52
9722.00,1.52
9721.00,1.52
9720.00,1.52
9719.00,1.52
9718.00,1.52
9717.00,1.52
9716.00,1.51
9715.00,1.51
9714.00,1.51
9713.00,1.51
9712.00,1.50
9711.00,1.50
9710.00,1.50
9709.00,1.49
9708.00,1.49
9707.00,1.49
9706.00,1.48
9705.00,1.48
9704.00,1.48
9703.00,1.47
9702.00,1.47
9701.00,1.47
9700.00,1.46
9699.00,1.46
9698.00,1.46
9697.00,1.45
9696.00,1.45
9695.00,1.45
9694.00,1.45
9693.00,1.45
9692.00,1.45
9691.00,1.45
9690.00,1.45
9689.00,1.45
9688.00,1.45
9687.00,1.45
9686.00,1.45
9685.00,1.45
9684.00,1.45
9683.00,1.45
9682.00,1.45
9681.00,1.45
9680.00,1.45
9679.00,1.45
9678.00,1.45
9677.00,1.45
9676.00,1.46
9675.00,1.46
9674.00,1.46
9673.00,1.46
9672.00,1.47
9671.00,1.47
9670.00,1.48
9669.00,1.48
9668.00,1.48
9667.00,1.49
9666.00,1.49
9665.00,1.49
9664.00,1.49
9663.00,1.50
9662.00,1.50
9661.00,1.50
9660.00,1.50
9659.00,1.50
9658.00,1.51
9657.00,1.51
9656.00,1.51
9655.00,1.51
9654.00,1.52
9653.00,1.52
9652.00,1.52
9651.00,1.52
9650.00,1.52
9649.00,1.52
9648.00,1.52
9647.00,1.51
9646.00,1.51
9645.00,1.51
9644.00,1.50
9643.00,1.50
9642.00,1.49
9641.00,1.49
9640.00,1.48
9639.00,1.48
9638.00,1.47
9637.00,1.47
9636.00,1.46
9635.00,1.46
9634.00,1.45
9633.00,1.45
9632.00,1.45
9631.00,1.44
9630.00,1.44
9629.00,1.43
9628.00,1.43
9627.00,1.42
9626.00,1.42
9625.00,1.41
9624.00,1.41
9623.00,1.40
9622.00,1.40
9621.00,1.39
9620.00,1.39
9619.00,1.39
9618.00,1.39
9617.00,1.39
9616.00,1.39
9615.00,1.39
9614.00,1.39
9613.00,1.39
9612.00,1.39
9611.00,1.39
9610.00,1.39
9609.00,1.40
9608.00,1.40
9607.00,1.40
9606.00,1.40
9605.00,1.41
9604.00,1.41
9603.00,1.42
9602.00,1.42
9601.00,1.43
9600.00,1.43
9599.00,1.44
9598.00,1.45
9597.00,1.46
9596.00,1.46
9595.00,1.47
9594.00,1.47
9593.00,1.48
9592.00,1.49
9591.00,1.49
9590.00,1.49
9589.00,1.50
9588.00,1.50
9587.00,1.50
9586.00,1.50
9585.00,1.50
9584.00,1.50
9583.00,1.50
9582.00,1.50
9581.00,1.50
9580.00,1.50
9579.00,1.50
9578.00,1.49
9577.00,1.49
9576.00,1.48
9575.00,1.48
9574.00,1.47
9573.00,1.47
9572.00,1.46
9571.00,1.45
9570.00,1.45
9569.00,1.44
9568.00,1.43
9567.00,1.43
9566.00,1.42
9565.00,1.42
9564.00,1.41
9563.00,1.41
9562.00,1.41
9561.00,1.41
9560.00,1.41
9559.00,1.41
9558.00,1.41
9557.00,1.41
9556.00,1.41
9555.00,1.41
9554.00,1.42
9553.00,1.42
9552.00,1.42
9551.00,1.42
9550.00,1.42
9549.00,1.42
9548.00,1.43
9547.00,1.43
9546.00,1.43
9545.00,1.43
9544.00,1.43
9543.00,1.43
9542.00,1.43
9541.00,1.43
9540.00,1.43
9539.00,1.43
9538.00,1.43
9537.00,1.43
9536.00,1.43
9535.00,1.42
9534.00,1.42
9533.00,1.41
9532.00,1.41
9531.00,1.41
9530.00,1.40
9529.00,1.40
9528.00,1.40
9527.00,1.40
9526.00,1.40
9525.00,1.39
9524.00,1.39
9523.00,1.40
9522.00,1.40
9521.00,1.40
9520.00,1.40
9519.00,1.40
9518.00,1.41
9517.00,1.41
9516.00,1.41
9515.00,1.42
9514.00,1.42
9513.00,1.43
9512.00,1.43
9511.00,1.44
9510.00,1.44
9509.00,1.45
9508.00,1.45
9507.00,1.46
9506.00,1.46
9505.00,1.47
9504.00,1.47
9503.00,1.47
9502.00,1.48
9501.00,1.48
9500.00,1.48
9499.00,1.48
9498.00,1.48
9497.00,1.48
9496.00,1.48
9495.00,1.48
9494.00,1.48
9493.00,1.48
9492.00,1.47
9491.00,1.47
9490.00,1.47
9489.00,1.47
9488.00,1.47
9487.00,1.46
9486.00,1.46
9485.00,1.46
9484.00,1.46
9483.00,1.46
9482.00,1.46
9481.00,1.46
9480.00,1.46
9479.00,1.47
9478.00,1.47
9477.00,1.47
9476.00,1.47
9475.00,1.48
9474.00,1.48
9473.00,1.48
9472.00,1.49
9471.00,1.49
9470.00,1.49
9469.00,1.50
9468.00,1.51
9467.00,1.51
9466.00,1.52
9465.00,1.52
9464.00,1.53
9463.00,1.54
9462.00,1.54
9461.00,1.55
9460.00,1.55
9459.00,1.56
9458.00,1.56
9457.00,1.56
9456.00,1.56
9455.00,1.56
9454.00,1.56
9453.00,1.55
9452.00,1.55
9451.00,1.55
9450.00,1.54
9449.00,1.54
9448.00,1.53
9447.00,1.53
9446.00,1.52
9445.00,1.51
9444.00,1.51
9443.00,1.50
9442.00,1.49
9441.00,1.48
9440.00,1.48
9439.00,1.47
9438.00,1.46
9437.00,1.45
9436.00,1.44
9435.00,1.43
9434.00,1.43
9433.00,1.42
9432.00,1.42
9431.00,1.41
9430.00,1.41
9429.00,1.41
9428.00,1.41
9427.00,1.41
9426.00,1.41
9425.00,1.41
9424.00,1.41
9423.00,1.42
9422.00,1.42
9421.00,1.43
9420.00,1.43
9419.00,1.44
9418.00,1.45
9417.00,1.45
9416.00,1.46
9415.00,1.47
9414.00,1.48
9413.00,1.49
9412.00,1.49
9411.00,1.50
9410.00,1.51
9409.00,1.51
9408.00,1.52
9407.00,1.53
9406.00,1.53
9405.00,1.53
9404.00,1.54
9403.00,1.54
9402.00,1.54
9401.00,1.54
9400.00,1.54
9399.00,1.54
9398.00,1.54
9397.00,1.54
9396.00,1.54
9395.00,1.54
9394.00,1.53
9393.00,1.53
9392.00,1.52
9391.00,1.51
9390.00,1.51
9389.00,1.50
9388.00,1.50
9387.00,1.49
9386.00,1.49
9385.00,1.48
9384.00,1.48
9383.00,1.47
9382.00,1.47
9381.00,1.47
9380.00,1.47
9379.00,1.46
9378.00,1.46
9377.00,1.46
9376.00,1.46
9375.00,1.45
9374.00,1.45
9373.00,1.45
9372.00,1.45
9371.00,1.45
9370.00,1.44
9369.00,1.44
9368.00,1.45
9367.00,1.45
9366.00,1.45
9365.00,1.45
9364.00,1.45
9363.00,1.45
9362.00,1.46
9361.00,1.46
9360.00,1.46
9359.00,1.46
9358.00,1.46
9357.00,1.45
9356.00,1.45
9355.00,1.45
9354.00,1.45
9353.00,1.45
9352.00,1.45
9351.00,1.45
9350.00,1.45
9349.00,1.46
9348.00,1.46
9347.00,1.46
9346.00,1.47
9345.00,1.47
9344.00,1.48
9343.00,1.48
9342.00,1.48
9341.00,1.49
9340.00,1.49
9339.00,1.50
9338.00,1.50
9337.00,1.51
9336.00,1.52
9335.00,1.52
9334.00,1.53
9333.00,1.54
9332.00,1.55
9331.00,1.55
9330.00,1.56
9329.00,1.57
9328.00,1.57
9327.00,1.58
9326.00,1.58
9325.00,1.58
9324.00,1.58
9323.00,1.58
9322.00,1.58
9321.00,1.58
9320.00,1.58
9319.00,1.57
9318.00,1.57
9317.00,1.57
9316.00,1.56
9315.00,1.56
9314.00,1.55
9313.00,1.55
9312.00,1.54
9311.00,1.53
9310.00,1.52
9309.00,1.51
9308.00,1.51
9307.00,1.50
9306.00,1.49
9305.00,1.48
9304.00,1.47
9303.00,1.46
9302.00,1.46
9301.00,1.45
9300.00,1.45
9299.00,1.45
9298.00,1.44
9297.00,1.44
9296.00,1.44
9295.00,1.44
9294.00,1.44
9293.00,1.44
9292.00,1.44
9291.00,1.45
9290.00,1.45
9289.00,1.45
9288.00,1.45
9287.00,1.45
9286.00,1.46
9285.00,1.46
9284.00,1.46
9283.00,1.47
9282.00,1.47
9281.00,1.47
9280.00,1.48
9279.00,1.48
9278.00,1.48
9277.00,1.48
9276.00,1.49
9275.00,1.49
9274.00,1.49
9273.00,1.49
9272.00,1.48
9271.00,1.48
9270.00,1.48
9269.00,1.48
9268.00,1.47
9267.00,1.47
9266.00,1.46
9265.00,1.46
9264.00,1.45
9263.00,1.45
9262.00,1.44
9261.00,1.44
9260.00,1.44
9259.00,1.43
9258.00,1.43
9257.00,1.43
9256.00,1.43
9255.00,1.43
9254.00,1.43
9253.00,1.43
9252.00,1.43
9251.00,1.43
9250.00,1.43
9249.00,1.43
9248.00,1.43
9247.00,1.43
9246.00,1.44
9245.00,1.44
9244.00,1.44
9243.00,1.44
9242.00,1.45
9241.00,1.45
9240.00,1.45
9239.00,1.46
9238.00,1.46
9237.00,1.47
9236.00,1.47
9235.00,1.48
9234.00,1.48
9233.00,1.48
9232.00,1.49
9231.00,1.49
9230.00,1.49
9229.00,1.49
9228.00,1.49
9227.00,1.49
9226.00,1.49
9225.00,1.49
9224.00,1.48
9223.00,1.48
9222.00,1.48
9221.00,1.48
9220.00,1.48
9219.00,1.47
9218.00,1.47
9217.00,1.47
9216.00,1.47
9215.00,1.47
9214.00,1.47
9213.00,1.47
9212.00,1.46
9211.00,1.46
9210.00,1.46
9209.00,1.45
9208.00,1.45
9207.00,1.45
9206.00,1.44
9205.00,1.44
9204.00,1.44
9203.00,1.44
9202.00,1.44
9201.00,1.44
9200.00,1.44
9199.00,1.44
9198.00,1.44
9197.00,1.45
9196.00,1.45
9195.00,1.45
9194.00,1.46
9193.00,1.46
9192.00,1.46
9191.00,1.46
9190.00,1.47
9189.00,1.47
9188.00,1.47
9187.00,1.48
9186.00,1.48
9185.00,1.48
9184.00,1.49
9183.00,1.49
9182.00,1.49
9181.00,1.50
9180.00,1.50
9179.00,1.50
9178.00,1.51
9177.00,1.51
9176.00,1.51
9175.00,1.51
9174.00,1.51
9173.00,1.51
9172.00,1.51
9171.00,1.51
9170.00,1.52
9169.00,1.52
9168.00,1.51
9167.00,1.51
9166.00,1.51
9165.00,1.51
9164.00,1.51
9163.00,1.51
9162.00,1.51
9161.00,1.51
9160.00,1.51
9159.00,1.51
9158.00,1.51
9157.00,1.51
9156.00,1.51
9155.00,1.51
9154.00,1.51
9153.00,1.51
9152.00,1.51
9151.00,1.51
9150.00,1.52
9149.00,1.52
9148.00,1.52
9147.00,1.52
9146.00,1.52
9145.00,1.52
9144.00,1.52
9143.00,1.52
9142.00,1.52
9141.00,1.52
9140.00,1.52
9139.00,1.52
9138.00,1.52
9137.00,1.52
9136.00,1.51
9135.00,1.51
9134.00,1.51
9133.00,1.50
9132.00,1.50
9131.00,1.50
9130.00,1.49
9129.00,1.49
9128.00,1.48
9127.00,1.48
9126.00,1.47
9125.00,1.46
9124.00,1.46
9123.00,1.45
9122.00,1.44
9121.00,1.44
9120.00,1.43
9119.00,1.42
9118.00,1.41
9117.00,1.41
9116.00,1.40
9115.00,1.39
9114.00,1.39
9113.00,1.38
9112.00,1.37
9111.00,1.37
9110.00,1.37
9109.00,1.36
9108.00,1.36
9107.00,1.36
9106.00,1.35
9105.00,1.35
9104.00,1.35
9103.00,1.35
9102.00,1.35
9101.00,1.35
9100.00,1.36
9099.00,1.36
9098.00,1.36
9097.00,1.36
9096.00,1.37
9095.00,1.37
9094.00,1.38
9093.00,1.38
9092.00,1.39
9091.00,1.40
9090.00,1.40
9089.00,1.41
9088.00,1.42
9087.00,1.43
9086.00,1.43
9085.00,1.44
9084.00,1.45
9083.00,1.45
9082.00,1.46
9081.00,1.46
9080.00,1.46
9079.00,1.47
9078.00,1.47
9077.00,1.47
9076.00,1.47
9075.00,1.47
9074.00,1.47
9073.00,1.47
9072.00,1.47
9071.00,1.47
9070.00,1.47
9069.00,1.47
9068.00,1.47
9067.00,1.47
9066.00,1.46
9065.00,1.46
9064.00,1.46
9063.00,1.46
9062.00,1.45
9061.00,1.45
9060.00,1.45
9059.00,1.45
9058.00,1.45
9057.00,1.45
9056.00,1.45
9055.00,1.46
9054.00,1.46
9053.00,1.46
9052.00,1.47
9051.00,1.47
9050.00,1.48
9049.00,1.48
9048.00,1.49
9047.00,1.49
9046.00,1.49
9045.00,1.50
9044.00,1.50
9043.00,1.51
9042.00,1.51
9041.00,1.51
9040.00,1.52
9039.00,1.52
9038.00,1.52
9037.00,1.52
9036.00,1.52
9035.00,1.52
9034.00,1.52
9033.00,1.52
9032.00,1.52
9031.00,1.52
9030.00,1.52
9029.00,1.51
9028.00,1.51
9027.00,1.51
9026.00,1.51
9025.00,1.50
9024.00,1.50
9023.00,1.50
9022.00,1.50
9021.00,1.49
9020.00,1.49
9019.00,1.49
9018.00,1.49
9017.00,1.49
9016.00,1.49
9015.00,1.49
9014.00,1.49
9013.00,1.49
9012.00,1.50
9011.00,1.50
9010.00,1.50
9009.00,1.51
9008.00,1.51
9007.00,1.52
9006.00,1.52
9005.00,1.53
9004.00,1.53
9003.00,1.53
9002.00,1.54
9001.00,1.54
9000.00,1.54
8999.00,1.54
8998.00,1.54
8997.00,1.54
8996.00,1.54
8995.00,1.54
8994.00,1.54
8993.00,1.54
8992.00,1.54
8991.00,1.54
8990.00,1.54
8989.00,1.53
8988.00,1.53
8987.00,1.53
8986.00,1.52
8985.00,1.52
8984.00,1.52
8983.00,1.51
8982.00,1.51
8981.00,1.51
8980.00,1.50
8979.00,1.50
8978.00,1.49
8977.00,1.49
8976.00,1.49
8975.00,1.49
8974.00,1.48
8973.00,1.48
8972.00,1.48
8971.00,1.48
8970.00,1.48
8969.00,1.49
8968.00,1.49
8967.00,1.49
8966.00,1.49
8965.00,1.49
8964.00,1.50
8963.00,1.50
8962.00,1.50
8961.00,1.50
8960.00,1.51
8959.00,1.51
8958.00,1.51
8957.00,1.51
8956.00,1.51
8955.00,1.51
8954.00,1.52
8953.00,1.52
8952.00,1.52
8951.00,1.52
8950.00,1.52
8949.00,1.52
8948.00,1.52
8947.00,1.53
8946.00,1.53
8945.00,1.53
8944.00,1.52
8943.00,1.52
8942.00,1.52
8941.00,1.52
8940.00,1.52
8939.00,1.52
8938.00,1.51
8937.00,1.51
8936.00,1.51
8935.00,1.51
8934.00,1.50
8933.00,1.50
8932.00,1.50
8931.00,1.49
8930.00,1.49
8929.00,1.49
8928.00,1.49
8927.00,1.49
8926.00,1.48
8925.00,1.48
8924.00,1.48
8923.00,1.48
8922.00,1.48
8921.00,1.48
8920.00,1.48
8919.00,1.48
8918.00,1.48
8917.00,1.48
8916.00,1.48
8915.00,1.48
8914.00,1.48
8913.00,1.48
8912.00,1.48
8911.00,1.48
8910.00,1.49
8909.00,1.49
8908.00,1.49
8907.00,1.49
8906.00,1.50
8905.00,1.50
8904.00,1.50
8903.00,1.50
8902.00,1.51
8901.00,1.51
8900.00,1.51
8899.00,1.51
8898.00,1.51
8897.00,1.52
8896.00,1.52
8895.00,1.52
8894.00,1.52
8893.00,1.53
8892.00,1.53
8891.00,1.53
8890.00,1.53
8889.00,1.53
8888.00,1.53
8887.00,1.53
8886.00,1.53
8885.00,1.54
8884.00,1.54
8883.00,1.54
8882.00,1.54
8881.00,1.54
8880.00,1.54
8879.00,1.54
8878.00,1.54
8877.00,1.54
8876.00,1.54
8875.00,1.54
8874.00,1.54
8873.00,1.54
8872.00,1.54
8871.00,1.54
8870.00,1.54
8869.00,1.53
8868.00,1.53
8867.00,1.53
8866.00,1.53
8865.00,1.53
8864.00,1.52
8863.00,1.52
8862.00,1.52
8861.00,1.51
8860.00,1.51
8859.00,1.51
8858.00,1.50
8857.00,1.50
8856.00,1.49
8855.00,1.49
8854.00,1.48
8853.00,1.48
8852.00,1.47
8851.00,1.47
8850.00,1.46
8849.00,1.46
8848.00,1.46
8847.00,1.45
8846.00,1.45
8845.00,1.45
8844.00,1.45
8843.00,1.45
8842.00,1.45
8841.00,1.45
8840.00,1.45
8839.00,1.45
8838.00,1.45
8837.00,1.45
8836.00,1.45
8835.00,1.45
8834.00,1.45
8833.00,1.46
8832.00,1.46
8831.00,1.46
8830.00,1.46
8829.00,1.47
8828.00,1.47
8827.00,1.47
8826.00,1.48
8825.00,1.48
8824.00,1.48
8823.00,1.48
8822.00,1.48
8821.00,1.48
8820.00,1.48
8819.00,1.48
8818.00,1.48
8817.00,1.47
8816.00,1.47
8815.00,1.47
8814.00,1.47
8813.00,1.46
8812.00,1.46
8811.00,1.45
8810.00,1.45
8809.00,1.44
8808.00,1.44
8807.00,1.43
8806.00,1.43
8805.00,1.42
8804.00,1.42
8803.00,1.42
8802.00,1.41
8801.00,1.41
8800.00,1.41
8799.00,1.41
8798.00,1.41
8797.00,1.41
8796.00,1.41
8795.00,1.41
8794.00,1.41
8793.00,1.41
8792.00,1.41
8791.00,1.41
8790.00,1.42
8789.00,1.42
8788.00,1.43
8787.00,1.43
8786.00,1.43
8785.00,1.44
8784.00,1.45
8783.00,1.45
8782.00,1.46
8781.00,1.47
8780.00,1.47
8779.00,1.48
8778.00,1.49
8777.00,1.49
8776.00,1.50
8775.00,1.50
8774.00,1.51
8773.00,1.51
8772.00,1.52
8771.00,1.52
8770.00,1.52
8769.00,1.52
8768.00,1.52
8767.00,1.52
8766.00,1.52
8765.00,1.52
8764.00,1.52
8763.00,1.52
8762.00,1.52
8761.00,1.51
8760.00,1.51
8759.00,1.51
8758.00,1.50
8757.00,1.50
8756.00,1.50
8755.00,1.49
8754.00,1.49
8753.00,1.49
8752.00,1.48
8751.00,1.48
8750.00,1.47
8749.00,1.47
8748.00,1.46
8747.00,1.46
8746.00,1.45
8745.00,1.45
8744.00,1.45
8743.00,1.44
8742.00,1.44
8741.00,1.44
8740.00,1.44
8739.00,1.44
8738.00,1.44
8737.00,1.44
8736.00,1.44
8735.00,1.45
8734.00,1.45
8733.00,1.45
8732.00,1.45
8731.00,1.45
8730.00,1.45
8729.00,1.44
8728.00,1.44
8727.00,1.44
8726.00,1.44
8725.00,1.44
8724.00,1.44
8723.00,1.44
8722.00,1.44
8721.00,1.44
8720.00,1.44
8719.00,1.44
8718.00,1.44
8717.00,1.43
8716.00,1.43
8715.00,1.43
8714.00,1.43
8713.00,1.43
8712.00,1.43
8711.00,1.42
8710.00,1.42
8709.00,1.42
8708.00,1.42
8707.00,1.42
8706.00,1.42
8705.00,1.42
8704.00,1.42
8703.00,1.42
8702.00,1.42
8701.00,1.42
8700.00,1.42
8699.00,1.42
8698.00,1.42
8697.00,1.42
8696.00,1.43
8695.00,1.43
8694.00,1.43
8693.00,1.43
8692.00,1.44
8691.00,1.44
8690.00,1.44
8689.00,1.45
8688.00,1.45
8687.00,1.46
8686.00,1.46
8685.00,1.46
8684.00,1.47
8683.00,1.47
8682.00,1.48
8681.00,1.48
8680.00,1.48
8679.00,1.48
8678.00,1.49
8677.00,1.49
8676.00,1.49
8675.00,1.49
8674.00,1.49
8673.00,1.49
8672.00,1.49
8671.00,1.49
8670.00,1.49
8669.00,1.49
8668.00,1.49
8667.00,1.48
8666.00,1.48
8665.00,1.48
8664.00,1.47
8663.00,1.47
8662.00,1.47
8661.00,1.46
8660.00,1.46
8659.00,1.45
8658.00,1.45
8657.00,1.44
8656.00,1.44
8655.00,1.43
8654.00,1.43
8653.00,1.42
8652.00,1.42
8651.00,1.41
8650.00,1.41
8649.00,1.41
8648.00,1.41
8647.00,1.41
8646.00,1.41
8645.00,1.41
8644.00,1.41
8643.00,1.42
8642.00,1.42
8641.00,1.42
8640.00,1.43
8639.00,1.43
8638.00,1.44
8637.00,1.45
8636.00,1.45
8635.00,1.46
8634.00,1.47
8633.00,1.47
8632.00,1.48
8631.00,1.49
8630.00,1.49
8629.00,1.50
8628.00,1.51
8627.00,1.52
8626.00,1.53
8625.00,1.53
8624.00,1.54
8623.00,1.54
8622.00,1.55
8621.00,1.55
8620.00,1.55
8619.00,1.55
8618.00,1.55
8617.00,1.55
8616.00,1.55
8615.00,1.55
8614.00,1.55
8613.00,1.55
8612.00,1.54
8611.00,1.54
8610.00,1.54
8609.00,1.54
8608.00,1.53
8607.00,1.53
8606.00,1.52
8605.00,1.52
8604.00,1.51
8603.00,1.51
8602.00,1.51
8601.00,1.50
8600.00,1.50
8599.00,1.49
8598.00,1.49
8597.00,1.49
8596.00,1.49
8595.00,1.49
8594.00,1.49
8593.00,1.49
8592.00,1.50
8591.00,1.50
8590.00,1.50
8589.00,1.51
8588.00,1.51
8587.00,1.51
8586.00,1.52
8585.00,1.52
8584.00,1.52
8583.00,1.53
8582.00,1.53
8581.00,1.54
8580.00,1.54
8579.00,1.55
8578.00,1.55
8577.00,1.55
8576.00,1.56
8575.00,1.56
8574.00,1.56
8573.00,1.56
8572.00,1.57
8571.00,1.57
8570.00,1.57
8569.00,1.56
8568.00,1.56
8567.00,1.56
8566.00,1.56
8565.00,1.56
8564.00,1.55
8563.00,1.55
8562.00,1.55
8561.00,1.54
8560.00,1.54
8559.00,1.53
8558.00,1.53
8557.00,1.52
8556.00,1.51
8555.00,1.51
8554.00,1.50
8553.00,1.49
8552.00,1.48
8551.00,1.48
8550.00,1.47
8549.00,1.47
8548.00,1.46
8547.00,1.45
8546.00,1.45
8545.00,1.44
8544.00,1.44
8543.00,1.44
8542.00,1.43
8541.00,1.43
8540.00,1.42
8539.00,1.42
8538.00,1.41
8537.00,1.41
8536.00,1.40
8535.00,1.40
8534.00,1.40
8533.00,1.40
8532.00,1.40
8531.00,1.40
8530.00,1.40
8529.00,1.40
8528.00,1.40
8527.00,1.40
8526.00,1.41
8525.00,1.41
8524.00,1.41
8523.00,1.41
8522.00,1.42
8521.00,1.42
8520.00,1.42
8519.00,1.42
8518.00,1.42
8517.00,1.43
8516.00,1.43
8515.00,1.43
8514.00,1.43
8513.00,1.44
8512.00,1.44
8511.00,1.44
8510.00,1.44
8509.00,1.45
8508.00,1.45
8507.00,1.45
8506.00,1.45
8505.00,1.45
8504.00,1.45
8503.00,1.45
8502.00,1.45
8501.00,1.44
8500.00,1.44
8499.00,1.44
8498.00,1.44
8497.00,1.44
8496.00,1.43
8495.00,1.43
8494.00,1.43
8493.00,1.43
8492.00,1.42
8491.00,1.42
8490.00,1.42
8489.00,1.41
8488.00,1.41
8487.00,1.40
8486.00,1.40
8485.00,1.40
8484.00,1.39
8483.00,1.39
8482.00,1.38
8481.00,1.38
8480.00,1.38
8479.00,1.37
8478.00,1.37
8477.00,1.37
8476.00,1.36
8475.00,1.36
8474.00,1.36
8473.00,1.36
8472.00,1.35
8471.00,1.35
8470.00,1.35
8469.00,1.35
8468.00,1.35
8467.00,1.35
8466.00,1.35
8465.00,1.36
8464.00,1.36
8463.00,1.36
8462.00,1.36
8461.00,1.37
8460.00,1.37
8459.00,1.38
8458.00,1.38
8457.00,1.38
8456.00,1.39
8455.00,1.39
8454.00,1.40
8453.00,1.40
8452.00,1.41
8451.00,1.41
8450.00,1.42
8449.00,1.42
8448.00,1.43
8447.00,1.43
8446.00,1.43
8445.00,1.44
8444.00,1.44
8443.00,1.44
8442.00,1.44
8441.00,1.45
8440.00,1.45
8439.00,1.45
8438.00,1.45
8437.00,1.45
8436.00,1.45
8435.00,1.44
8434.00,1.44
8433.00,1.44
8432.00,1.44
8431.00,1.44
8430.00,1.44
8429.00,1.44
8428.00,1.44
8427.00,1.44
8426.00,1.44
8425.00,1.44
8424.00,1.44
8423.00,1.44
8422.00,1.44
8421.00,1.43
8420.00,1.43
8419.00,1.43
8418.00,1.43
8417.00,1.43
8416.00,1.43
8415.00,1.44
8414.00,1.44
8413.00,1.44
8412.00,1.44
8411.00,1.44
8410.00,1.44
8409.00,1.45
8408.00,1.45
8407.00,1.45
8406.00,1.45
8405.00,1.46
8404.00,1.46
8403.00,1.46
8402.00,1.46
8401.00,1.46
8400.00,1.47
8399.00,1.47
8398.00,1.47
8397.00,1.47
8396.00,1.48
8395.00,1.48
8394.00,1.48
8393.00,1.48
8392.00,1.49
8391.00,1.49
8390.00,1.49
8389.00,1.49
8388.00,1.50
8387.00,1.50
8386.00,1.50
8385.00,1.50
8384.00,1.50
8383.00,1.51
8382.00,1.51
8381.00,1.51
8380.00,1.51
8379.00,1.51
8378.00,1.51
8377.00,1.51
8376.00,1.51
8375.00,1.52
8374.00,1.52
8373.00,1.52
8372.00,1.52
8371.00,1.52
8370.00,1.52
8369.00,1.52
8368.00,1.51
8367.00,1.51
8366.00,1.51
8365.00,1.51
8364.00,1.51
8363.00,1.51
8362.00,1.51
8361.00,1.51
8360.00,1.51
8359.00,1.51
8358.00,1.51
8357.00,1.51
8356.00,1.51
8355.00,1.51
8354.00,1.51
8353.00,1.51
8352.00,1.51
8351.00,1.50
8350.00,1.50
8349.00,1.50
8348.00,1.50
8347.00,1.50
8346.00,1.49
8345.00,1.49
8344.00,1.49
8343.00,1.48
8342.00,1.48
8341.00,1.48
8340.00,1.47
8339.00,1.47
8338.00,1.47
8337.00,1.46
8336.00,1.46
8335.00,1.46
8334.00,1.46
8333.00,1.45
8332.00,1.45
8331.00,1.45
8330.00,1.45
8329.00,1.44
8328.00,1.44
8327.00,1.44
8326.00,1.44
8325.00,1.44
8324.00,1.44
8323.00,1.44
8322.00,1.44
8321.00,1.45
8320.00,1.45
8319.00,1.45
8318.00,1.46
8317.00,1.46
8316.00,1.46
8315.00,1.47
8314.00,1.47
8313.00,1.48
8312.00,1.48
8311.00,1.49
8310.00,1.49
8309.00,1.49
8308.00,1.49
8307.00,1.50
8306.00,1.50
8305.00,1.50
8304.00,1.50
8303.00,1.50
8302.00,1.51
8301.00,1.51
8300.00,1.51
8299.00,1.51
8298.00,1.51
8297.00,1.51
8296.00,1.51
8295.00,1.51
8294.00,1.51
8293.00,1.51
8292.00,1.50
8291.00,1.50
8290.00,1.50
8289.00,1.49
8288.00,1.49
8287.00,1.48
8286.00,1.48
8285.00,1.48
8284.00,1.47
8283.00,1.47
8282.00,1.47
8281.00,1.46
8280.00,1.46
8279.00,1.46
8278.00,1.46
8277.00,1.45
8276.00,1.45
8275.00,1.45
8274.00,1.45
8273.00,1.44
8272.00,1.44
8271.00,1.44
8270.00,1.43
8269.00,1.43
8268.00,1.43
8267.00,1.43
8266.00,1.43
8265.00,1.43
8264.00,1.43
8263.00,1.43
8262.00,1.43
8261.00,1.43
8260.00,1.44
8259.00,1.44
8258.00,1.44
8257.00,1.44
8256.00,1.44
8255.00,1.45
8254.00,1.45
8253.00,1.45
8252.00,1.46
8251.00,1.46
8250.00,1.46
8249.00,1.47
8248.00,1.47
8247.00,1.47
8246.00,1.48
8245.00,1.48
8244.00,1.48
8243.00,1.49
8242.00,1.49
8241.00,1.49
8240.00,1.50
8239.00,1.50
8238.00,1.50
8237.00,1.50
8236.00,1.51
8235.00,1.51
8234.00,1.51
8233.00,1.51
8232.00,1.51
8231.00,1.52
8230.00,1.52
8229.00,1.52
8228.00,1.52
8227.00,1.52
8226.00,1.52
8225.00,1.52
8224.00,1.52
8223.00,1.52
8222.00,1.52
8221.00,1.53
8220.00,1.53
8219.00,1.53
8218.00,1.53
8217.00,1.53
8216.00,1.53
8215.00,1.53
8214.00,1.53
8213.00,1.53
8212.00,1.53
8211.00,1.53
8210.00,1.53
8209.00,1.54
8208.00,1.54
8207.00,1.54
8206.00,1.54
8205.00,1.54
8204.00,1.54
8203.00,1.54
8202.00,1.54
8201.00,1.54
8200.00,1.54
8199.00,1.54
8198.00,1.54
8197.00,1.54
8196.00,1.54
8195.00,1.54
8194.00,1.54
8193.00,1.54
8192.00,1.54
8191.00,1.54
8190.00,1.54
8189.00,1.54
8188.00,1.54
8187.00,1.54
8186.00,1.54
8185.00,1.54
8184.00,1.54
8183.00,1.54
8182.00,1.54
8181.00,1.54
8180.00,1.53
8179.00,1.53
8178.00,1.53
8177.00,1.53
8176.00,1.53
8175.00,1.53
8174.00,1.53
8173.00,1.53
8172.00,1.53
8171.00,1.53
8170.00,1.53
8169.00,1.53
8168.00,1.53
8167.00,1.53
8166.00,1.53
8165.00,1.53
8164.00,1.53
8163.00,1.53
8162.00,1.53
8161.00,1.53
8160.00,1.53
8159.00,1.53
8158.00,1.53
8157.00,1.53
8156.00,1.53
8155.00,1.53
8154.00,1.54
8153.00,1.54
8152.00,1.54
8151.00,1.54
8150.00,1.54
8149.00,1.54
8148.00,1.54
8147.00,1.54
8146.00,1.54
8145.00,1.54
8144.00,1.54
8143.00,1.54
8142.00,1.54
8141.00,1.54
8140.00,1.54
8139.00,1.53
8138.00,1.53
8137.00,1.53
8136.00,1.53
8135.00,1.53
8134.00,1.53
8133.00,1.53
8132.00,1.52
8131.00,1.52
8130.00,1.52
8129.00,1.52
8128.00,1.52
8127.00,1.51
8126.00,1.51
8125.00,1.51
8124.00,1.51
8123.00,1.51
8122.00,1.51
8121.00,1.51
8120.00,1.51
8119.00,1.51
8118.00,1.51
8117.00,1.51
8116.00,1.51
8115.00,1.51
8114.00,1.51
8113.00,1.51
8112.00,1.51
8111.00,1.50
8110.00,1.50
8109.00,1.50
8108.00,1.50
8107.00,1.50
8106.00,1.50
8105.00,1.50
8104.00,1.50
8103.00,1.49
8102.00,1.49
8101.00,1.49
8100.00,1.49
8099.00,1.49
8098.00,1.49
8097.00,1.49
8096.00,1.49
8095.00,1.49
8094.00,1.49
8093.00,1.49
8092.00,1.49
8091.00,1.49
8090.00,1.49
8089.00,1.49
8088.00,1.49
8087.00,1.49
8086.00,1.49
8085.00,1.49
8084.00,1.49
8083.00,1.49
8082.00,1.49
8081.00,1.49
8080.00,1.49
8079.00,1.49
8078.00,1.50
8077.00,1.50
8076.00,1.50
8075.00,1.50
8074.00,1.50
8073.00,1.50
8072.00,1.50
8071.00,1.50
8070.00,1.50
8069.00,1.50
8068.00,1.50
8067.00,1.50
8066.00,1.50
8065.00,1.50
8064.00,1.50
8063.00,1.50
8062.00,1.50
8061.00,1.50
8060.00,1.50
8059.00,1.50
8058.00,1.50
8057.00,1.50
8056.00,1.50
8055.00,1.50
8054.00,1.50
8053.00,1.50
8052.00,1.50
8051.00,1.50
8050.00,1.50
8049.00,1.50
8048.00,1.50
8047.00,1.50
8046.00,1.50
8045.00,1.50
8044.00,1.50
8043.00,1.50
8042.00,1.50
8041.00,1.50
8040.00,1.50
8039.00,1.50
8038.00,1.50
8037.00,1.50
8036.00,1.50
8035.00,1.50
8034.00,1.50
8033.00,1.50
8032.00,1.50
8031.00,1.50
8030.00,1.50
8029.00,1.49
8028.00,1.49
8027.00,1.49
8026.00,1.49
8025.00,1.49
8024.00,1.49
8023.00,1.48
8022.00,1.48
8021.00,1.48
8020.00,1.48
8019.00,1.48
8018.00,1.48
8017.00,1.48
8016.00,1.48
8015.00,1.48
8014.00,1.49
8013.00,1.49
8012.00,1.49
8011.00,1.49
8010.00,1.50
8009.00,1.50
8008.00,1.50
8007.00,1.50
8006.00,1.50
8005.00,1.50
8004.00,1.51
8003.00,1.51
8002.00,1.51
8001.00,1.51
8000.00,1.51
7999.00,1.52
7998.00,1.52
7997.00,1.52
7996.00,1.52
7995.00,1.52
7994.00,1.52
7993.00,1.53
7992.00,1.53
7991.00,1.53
7990.00,1.53
7989.00,1.53
7988.00,1.53
7987.00,1.53
7986.00,1.53
7985.00,1.53
7984.00,1.53
7983.00,1.53
7982.00,1.53
7981.00,1.53
7980.00,1.53
7979.00,1.53
7978.00,1.53
7977.00,1.53
7976.00,1.53
7975.00,1.53
7974.00,1.53
7973.00,1.53
7972.00,1.52
7971.00,1.52
7970.00,1.52
7969.00,1.52
7968.00,1.52
7967.00,1.52
7966.00,1.52
7965.00,1.52
7964.00,1.52
7963.00,1.52
7962.00,1.52
7961.00,1.52
7960.00,1.52
7959.00,1.52
7958.00,1.52
7957.00,1.52
7956.00,1.52
7955.00,1.52
7954.00,1.52
7953.00,1.52
7952.00,1.53
7951.00,1.53
7950.00,1.53
7949.00,1.53
7948.00,1.53
7947.00,1.53
7946.00,1.53
7945.00,1.54
7944.00,1.54
7943.00,1.54
7942.00,1.54
7941.00,1.54
7940.00,1.54
7939.00,1.54
7938.00,1.54
7937.00,1.54
7936.00,1.54
7935.00,1.54
7934.00,1.54
7933.00,1.54
7932.00,1.54
7931.00,1.54
7930.00,1.53
7929.00,1.53
7928.00,1.53
7927.00,1.53
7926.00,1.53
7925.00,1.53
7924.00,1.52
7923.00,1.52
7922.00,1.52
7921.00,1.52
7920.00,1.52
7919.00,1.52
7918.00,1.52
7917.00,1.52
7916.00,1.52
7915.00,1.52
7914.00,1.52
7913.00,1.52
7912.00,1.52
7911.00,1.52
7910.00,1.53
7909.00,1.53
7908.00,1.53
7907.00,1.53
7906.00,1.54
7905.00,1.54
7904.00,1.54
7903.00,1.54
7902.00,1.55
7901.00,1.55
7900.00,1.55
7899.00,1.56
7898.00,1.56
7897.00,1.56
7896.00,1.56
7895.00,1.57
7894.00,1.57
7893.00,1.57
7892.00,1.57
7891.00,1.58
7890.00,1.58
7889.00,1.58
7888.00,1.58
7887.00,1.58
7886.00,1.58
7885.00,1.58
7884.00,1.58
7883.00,1.58
7882.00,1.58
7881.00,1.58
7880.00,1.58
7879.00,1.58
7878.00,1.57
7877.00,1.57
7876.00,1.57
7875.00,1.57
7874.00,1.57
7873.00,1.57
7872.00,1.57
7871.00,1.57
7870.00,1.57
7869.00,1.57
7868.00,1.56
7867.00,1.56
7866.00,1.56
7865.00,1.56
7864.00,1.56
7863.00,1.56
7862.00,1.56
7861.00,1.56
7860.00,1.56
7859.00,1.56
7858.00,1.56
7857.00,1.57
7856.00,1.57
7855.00,1.57
7854.00,1.57
7853.00,1.57
7852.00,1.57
7851.00,1.57
7850.00,1.58
7849.00,1.58
7848.00,1.58
7847.00,1.58
7846.00,1.58
7845.00,1.58
7844.00,1.58
7843.00,1.58
7842.00,1.59
7841.00,1.59
7840.00,1.59
7839.00,1.59
7838.00,1.59
7837.00,1.59
7836.00,1.59
7835.00,1.59
7834.00,1.58
7833.00,1.58
7832.00,1.58
7831.00,1.58
7830.00,1.58
7829.00,1.58
7828.00,1.57
7827.00,1.57
7826.00,1.57
7825.00,1.57
7824.00,1.57
7823.00,1.57
7822.00,1.57
7821.00,1.57
7820.00,1.56
7819.00,1.56
7818.00,1.56
7817.00,1.56
7816.00,1.56
7815.00,1.56
7814.00,1.56
7813.00,1.56
7812.00,1.56
7811.00,1.56
7810.00,1.56
7809.00,1.56
7808.00,1.56
7807.00,1.56
7806.00,1.56
7805.00,1.56
7804.00,1.56
7803.00,1.56
7802.00,1.56
7801.00,1.56
7800.00,1.56
7799.00,1.56
7798.00,1.56
7797.00,1.56
7796.00,1.56
7795.00,1.56
7794.00,1.56
7793.00,1.56
7792.00,1.56
7791.00,1.56
7790.00,1.56
7789.00,1.56
7788.00,1.56
7787.00,1.55
7786.00,1.55
7785.00,1.55
7784.00,1.55
7783.00,1.55
7782.00,1.55
7781.00,1.54
7780.00,1.54
7779.00,1.54
7778.00,1.54
7777.00,1.54
7776.00,1.53
7775.00,1.53
7774.00,1.53
7773.00,1.53
7772.00,1.53
7771.00,1.52
7770.00,1.52
7769.00,1.52
7768.00,1.52
7767.00,1.52
7766.00,1.52
7765.00,1.52
7764.00,1.52
7763.00,1.52
7762.00,1.52
7761.00,1.52
7760.00,1.52
7759.00,1.53
7758.00,1.53
7757.00,1.53
7756.00,1.53
7755.00,1.53
7754.00,1.53
7753.00,1.54
7752.00,1.54
7751.00,1.54
7750.00,1.54
7749.00,1.54
7748.00,1.55
7747.00,1.55
7746.00,1.55
7745.00,1.56
7744.00,1.56
7743.00,1.56
7742.00,1.57
7741.00,1.57
7740.00,1.57
7739.00,1.57
7738.00,1.57
7737.00,1.58
7736.00,1.58
7735.00,1.58
7734.00,1.58
7733.00,1.58
7732.00,1.58
7731.00,1.59
7730.00,1.59
7729.00,1.59
7728.00,1.59
7727.00,1.59
7726.00,1.60
7725.00,1.60
7724.00,1.60
7723.00,1.60
7722.00,1.60
7721.00,1.60
7720.00,1.60
7719.00,1.60
7718.00,1.60
7717.00,1.60
7716.00,1.60
7715.00,1.59
7714.00,1.59
7713.00,1.59
7712.00,1.59
7711.00,1.58
7710.00,1.58
7709.00,1.58
7708.00,1.58
7707.00,1.57
7706.00,1.57
7705.00,1.57
7704.00,1.56
7703.00,1.56
7702.00,1.56
7701.00,1.55
7700.00,1.55
7699.00,1.55
7698.00,1.54
7697.00,1.54
7696.00,1.54
7695.00,1.53
7694.00,1.53
7693.00,1.53
7692.00,1.53
7691.00,1.53
7690.00,1.53
7689.00,1.53
7688.00,1.53
7687.00,1.53
7686.00,1.53
7685.00,1.53
7684.00,1.54
7683.00,1.54
7682.00,1.54
7681.00,1.54
7680.00,1.55
7679.00,1.55
7678.00,1.55
7677.00,1.56
7676.00,1.56
7675.00,1.56
7674.00,1.57
7673.00,1.57
7672.00,1.57
7671.00,1.58
7670.00,1.58
7669.00,1.58
7668.00,1.58
7667.00,1.59
7666.00,1.59
7665.00,1.59
7664.00,1.59
7663.00,1.60
7662.00,1.60
7661.00,1.60
7660.00,1.60
7659.00,1.60
7658.00,1.61
7657.00,1.61
7656.00,1.61
7655.00,1.61
7654.00,1.61
7653.00,1.61
7652.00,1.61
7651.00,1.61
7650.00,1.61
7649.00,1.61
7648.00,1.61
7647.00,1.61
7646.00,1.61
7645.00,1.61
7644.00,1.61
7643.00,1.61
7642.00,1.61
7641.00,1.61
7640.00,1.60
7639.00,1.60
7638.00,1.60
7637.00,1.60
7636.00,1.60
7635.00,1.60
7634.00,1.60
7633.00,1.59
7632.00,1.59
7631.00,1.59
7630.00,1.59
7629.00,1.58
7628.00,1.58
7627.00,1.58
7626.00,1.58
7625.00,1.57
7624.00,1.57
7623.00,1.57
7622.00,1.57
7621.00,1.57
7620.00,1.57
7619.00,1.57
7618.00,1.57
7617.00,1.56
7616.00,1.56
7615.00,1.56
7614.00,1.56
7613.00,1.56
7612.00,1.56
7611.00,1.56
7610.00,1.56
7609.00,1.56
7608.00,1.56
7607.00,1.56
7606.00,1.56
7605.00,1.56
7604.00,1.56
7603.00,1.56
7602.00,1.56
7601.00,1.56
7600.00,1.56
7599.00,1.56
7598.00,1.56
7597.00,1.56
7596.00,1.56
7595.00,1.56
7594.00,1.56
7593.00,1.56
7592.00,1.56
7591.00,1.56
7590.00,1.56
7589.00,1.56
7588.00,1.56
7587.00,1.56
7586.00,1.56
7585.00,1.56
7584.00,1.56
7583.00,1.56
7582.00,1.56
7581.00,1.56
7580.00,1.57
7579.00,1.57
7578.00,1.57
7577.00,1.57
7576.00,1.57
7575.00,1.57
7574.00,1.57
7573.00,1.57
7572.00,1.57
7571.00,1.57
7570.00,1.57
7569.00,1.57
7568.00,1.57
7567.00,1.57
7566.00,1.56
7565.00,1.56
7564.00,1.56
7563.00,1.55
7562.00,1.55
7561.00,1.55
7560.00,1.55
7559.00,1.54
7558.00,1.54
7557.00,1.54
7556.00,1.54
7555.00,1.53
7554.00,1.53
7553.00,1.53
7552.00,1.53
7551.00,1.53
7550.00,1.52
7549.00,1.52
7548.00,1.52
7547.00,1.52
7546.00,1.52
7545.00,1.52
7544.00,1.52
7543.00,1.52
7542.00,1.52
7541.00,1.52
7540.00,1.52
7539.00,1.52
7538.00,1.53
7537.00,1.53
7536.00,1.53
7535.00,1.53
7534.00,1.53
7533.00,1.53
7532.00,1.54
7531.00,1.54
7530.00,1.54
7529.00,1.54
7528.00,1.54
7527.00,1.54
7526.00,1.54
7525.00,1.54
7524.00,1.54
7523.00,1.54
7522.00,1.55
7521.00,1.55
7520.00,1.55
7519.00,1.55
7518.00,1.55
7517.00,1.55
7516.00,1.55
7515.00,1.54
7514.00,1.54
7513.00,1.54
7512.00,1.54
7511.00,1.54
7510.00,1.54
7509.00,1.54
7508.00,1.54
7507.00,1.53
7506.00,1.53
7505.00,1.53
7504.00,1.53
7503.00,1.53
7502.00,1.53
7501.00,1.53
7500.00,1.53
7499.00,1.52
7498.00,1.52
7497.00,1.52
7496.00,1.52
7495.00,1.52
7494.00,1.52
7493.00,1.52
7492.00,1.51
7491.00,1.51
7490.00,1.51
7489.00,1.51
7488.00,1.51
7487.00,1.51
7486.00,1.51
7485.00,1.51
7484.00,1.51
7483.00,1.51
7482.00,1.51
7481.00,1.51
7480.00,1.52
7479.00,1.52
7478.00,1.52
7477.00,1.52
7476.00,1.52
7475.00,1.52
7474.00,1.53
7473.00,1.53
7472.00,1.53
7471.00,1.53
7470.00,1.53
7469.00,1.54
7468.00,1.54
7467.00,1.54
7466.00,1.54
7465.00,1.54
7464.00,1.55
7463.00,1.55
7462.00,1.55
7461.00,1.55
7460.00,1.55
7459.00,1.56
7458.00,1.56
7457.00,1.56
7456.00,1.56
7455.00,1.56
7454.00,1.56
7453.00,1.56
7452.00,1.56
7451.00,1.56
7450.00,1.56
7449.00,1.56
7448.00,1.56
7447.00,1.56
7446.00,1.56
7445.00,1.56
7444.00,1.56
7443.00,1.56
7442.00,1.56
7441.00,1.56
7440.00,1.56
7439.00,1.56
7438.00,1.56
7437.00,1.56
7436.00,1.56
7435.00,1.56
7434.00,1.56
7433.00,1.56
7432.00,1.56
7431.00,1.55
7430.00,1.55
7429.00,1.55
7428.00,1.55
7427.00,1.55
7426.00,1.55
7425.00,1.55
7424.00,1.55
7423.00,1.55
7422.00,1.55
7421.00,1.55
7420.00,1.55
7419.00,1.56
7418.00,1.56
7417.00,1.56
7416.00,1.56
7415.00,1.57
7414.00,1.57
7413.00,1.57
7412.00,1.58
7411.00,1.58
7410.00,1.58
7409.00,1.58
7408.00,1.59
7407.00,1.59
7406.00,1.59
7405.00,1.60
7404.00,1.60
7403.00,1.60
7402.00,1.60
7401.00,1.61
7400.00,1.61
7399.00,1.61
7398.00,1.61
7397.00,1.61
7396.00,1.62
7395.00,1.62
7394.00,1.62
7393.00,1.62
7392.00,1.62
7391.00,1.61
7390.00,1.61
7389.00,1.61
7388.00,1.61
7387.00,1.60
7386.00,1.60
7385.00,1.60
7384.00,1.59
7383.00,1.59
7382.00,1.59
7381.00,1.58
7380.00,1.58
7379.00,1.58
7378.00,1.57
7377.00,1.57
7376.00,1.56
7375.00,1.56
7374.00,1.55
7373.00,1.55
7372.00,1.54
7371.00,1.54
7370.00,1.54
7369.00,1.53
7368.00,1.53
7367.00,1.53
7366.00,1.53
7365.00,1.53
7364.00,1.53
7363.00,1.52
7362.00,1.52
7361.00,1.52
7360.00,1.52
7359.00,1.52
7358.00,1.53
7357.00,1.53
7356.00,1.53
7355.00,1.53
7354.00,1.53
7353.00,1.53
7352.00,1.54
7351.00,1.54
7350.00,1.54
7349.00,1.55
7348.00,1.55
7347.00,1.55
7346.00,1.55
7345.00,1.56
7344.00,1.56
7343.00,1.56
7342.00,1.56
7341.00,1.56
7340.00,1.56
7339.00,1.56
7338.00,1.55
7337.00,1.55
7336.00,1.55
7335.00,1.55
7334.00,1.55
7333.00,1.55
7332.00,1.55
7331.00,1.55
7330.00,1.55
7329.00,1.54
7328.00,1.54
7327.00,1.54
7326.00,1.54
7325.00,1.54
7324.00,1.53
7323.00,1.53
7322.00,1.53
7321.00,1.53
7320.00,1.53
7319.00,1.53
7318.00,1.53
7317.00,1.53
7316.00,1.53
7315.00,1.54
7314.00,1.54
7313.00,1.54
7312.00,1.54
7311.00,1.54
7310.00,1.55
7309.00,1.55
7308.00,1.55
7307.00,1.55
7306.00,1.55
7305.00,1.55
7304.00,1.56
7303.00,1.56
7302.00,1.56
7301.00,1.56
7300.00,1.57
7299.00,1.57
7298.00,1.57
7297.00,1.57
7296.00,1.57
7295.00,1.57
7294.00,1.57
7293.00,1.57
7292.00,1.57
7291.00,1.57
7290.00,1.57
7289.00,1.57
7288.00,1.57
7287.00,1.57
7286.00,1.57
7285.00,1.57
7284.00,1.57
7283.00,1.57
7282.00,1.57
7281.00,1.57
7280.00,1.57
7279.00,1.57
7278.00,1.57
7277.00,1.57
7276.00,1.57
7275.00,1.57
7274.00,1.57
7273.00,1.57
7272.00,1.57
7271.00,1.57
7270.00,1.57
7269.00,1.57
7268.00,1.57
7267.00,1.57
7266.00,1.57
7265.00,1.57
7264.00,1.57
7263.00,1.56
7262.00,1.56
7261.00,1.56
7260.00,1.56
7259.00,1.56
7258.00,1.56
7257.00,1.56
7256.00,1.56
7255.00,1.56
7254.00,1.56
7253.00,1.56
7252.00,1.55
7251.00,1.55
7250.00,1.55
7249.00,1.55
7248.00,1.55
7247.00,1.55
7246.00,1.55
7245.00,1.55
7244.00,1.55
7243.00,1.55
7242.00,1.54
7241.00,1.54
7240.00,1.54
7239.00,1.54
7238.00,1.54
7237.00,1.53
7236.00,1.53
7235.00,1.53
7234.00,1.53
7233.00,1.53
7232.00,1.53
7231.00,1.53
7230.00,1.52
7229.00,1.52
7228.00,1.52
7227.00,1.52
7226.00,1.52
7225.00,1.52
7224.00,1.51
7223.00,1.51
7222.00,1.51
7221.00,1.51
7220.00,1.51
7219.00,1.50
7218.00,1.50
7217.00,1.50
7216.00,1.50
7215.00,1.50
7214.00,1.50
7213.00,1.49
7212.00,1.49
7211.00,1.49
7210.00,1.49
7209.00,1.49
7208.00,1.49
7207.00,1.48
7206.00,1.48
7205.00,1.48
7204.00,1.48
7203.00,1.47
7202.00,1.47
7201.00,1.47
7200.00,1.47
7199.00,1.46
7198.00,1.46
7197.00,1.46
7196.00,1.46
7195.00,1.45
7194.00,1.45
7193.00,1.45
7192.00,1.44
7191.00,1.44
7190.00,1.44
7189.00,1.43
7188.00,1.43
7187.00,1.43
7186.00,1.43
7185.00,1.42
7184.00,1.42
7183.00,1.42
7182.00,1.41
7181.00,1.41
7180.00,1.41
7179.00,1.41
7178.00,1.40
7177.00,1.40
7176.00,1.40
7175.00,1.39
7174.00,1.39
7173.00,1.39
7172.00,1.38
7171.00,1.38
7170.00,1.38
7169.00,1.37
7168.00,1.37
7167.00,1.37
7166.00,1.37
7165.00,1.37
7164.00,1.36
7163.00,1.36
7162.00,1.36
7161.00,1.36
7160.00,1.35
7159.00,1.35
7158.00,1.35
7157.00,1.35
7156.00,1.34
7155.00,1.34
7154.00,1.34
7153.00,1.34
7152.00,1.34
7151.00,1.34
7150.00,1.33
7149.00,1.33
7148.00,1.33
7147.00,1.33
7146.00,1.33
7145.00,1.33
7144.00,1.33
7143.00,1.33
7142.00,1.33
7141.00,1.33
7140.00,1.33
7139.00,1.33
7138.00,1.33
7137.00,1.33
7136.00,1.33
7135.00,1.33
7134.00,1.32
7133.00,1.32
7132.00,1.32
7131.00,1.33
7130.00,1.33
7129.00,1.33
7128.00,1.33
7127.00,1.33
7126.00,1.33
7125.00,1.33
7124.00,1.33
7123.00,1.33
7122.00,1.32
7121.00,1.32
7120.00,1.32
7119.00,1.32
7118.00,1.32
7117.00,1.32
7116.00,1.32
7115.00,1.32
7114.00,1.31
7113.00,1.31
7112.00,1.31
7111.00,1.31
7110.00,1.31
7109.00,1.30
7108.00,1.30
7107.00,1.30
7106.00,1.30
7105.00,1.29
7104.00,1.29
7103.00,1.29
7102.00,1.28
7101.00,1.28
7100.00,1.28
7099.00,1.27
7098.00,1.27
7097.00,1.27
7096.00,1.26
7095.00,1.26
7094.00,1.26
7093.00,1.25
7092.00,1.25
7091.00,1.25
7090.00,1.24
7089.00,1.24
7088.00,1.24
7087.00,1.24
7086.00,1.23
7085.00,1.23
7084.00,1.23
7083.00,1.23
7082.00,1.23
7081.00,1.22
7080.00,1.22
7079.00,1.22
7078.00,1.22
7077.00,1.22
7076.00,1.22
7075.00,1.22
7074.00,1.22
7073.00,1.22
7072.00,1.22
7071.00,1.22
7070.00,1.22
7069.00,1.22
7068.00,1.23
7067.00,1.23
7066.00,1.23
7065.00,1.23
7064.00,1.23
7063.00,1.23
7062.00,1.23
7061.00,1.24
7060.00,1.24
7059.00,1.24
7058.00,1.24
7057.00,1.24
7056.00,1.24
7055.00,1.24
7054.00,1.24
7053.00,1.25
7052.00,1.25
7051.00,1.25
7050.00,1.25
7049.00,1.25
7048.00,1.25
7047.00,1.25
7046.00,1.25
7045.00,1.25
7044.00,1.25
7043.00,1.25
7042.00,1.25
7041.00,1.24
7040.00,1.24
7039.00,1.24
7038.00,1.24
7037.00,1.24
7036.00,1.24
7035.00,1.24
7034.00,1.24
7033.00,1.24
7032.00,1.24
7031.00,1.24
7030.00,1.24
7029.00,1.24
7028.00,1.24
7027.00,1.24
7026.00,1.24
7025.00,1.24
7024.00,1.24
7023.00,1.24
7022.00,1.24
7021.00,1.23
7020.00,1.23
7019.00,1.23
7018.00,1.23
7017.00,1.23
7016.00,1.23
7015.00,1.23
7014.00,1.23
7013.00,1.23
7012.00,1.23
7011.00,1.23
7010.00,1.23
7009.00,1.23
7008.00,1.23
7007.00,1.23
7006.00,1.23
7005.00,1.23
7004.00,1.23
7003.00,1.22
7002.00,1.22
7001.00,1.22
7000.00,1.22
6999.00,1.22
6998.00,1.22
6997.00,1.22
6996.00,1.22
6995.00,1.22
6994.00,1.22
6993.00,1.22
6992.00,1.22
6991.00,1.22
6990.00,1.22
6989.00,1.22
6988.00,1.22
6987.00,1.22
6986.00,1.22
6985.00,1.22
6984.00,1.22
6983.00,1.22
6982.00,1.22
6981.00,1.22
6980.00,1.22
6979.00,1.22
6978.00,1.21
6977.00,1.21
6976.00,1.21
6975.00,1.21
6974.00,1.21
6973.00,1.21
6972.00,1.21
6971.00,1.21
6970.00,1.20
6969.00,1.20
6968.00,1.20
6967.00,1.20
6966.00,1.20
6965.00,1.20
6964.00,1.19
6963.00,1.19
6962.00,1.19
6961.00,1.19
6960.00,1.19
6959.00,1.18
6958.00,1.18
6957.00,1.18
6956.00,1.18
6955.00,1.18
6954.00,1.18
6953.00,1.17
6952.00,1.17
6951.00,1.17
6950.00,1.17
6949.00,1.17
6948.00,1.17
6947.00,1.17
6946.00,1.17
6945.00,1.17
6944.00,1.17
6943.00,1.17
6942.00,1.17
6941.00,1.17
6940.00,1.17
6939.00,1.17
6938.00,1.17
6937.00,1.17
6936.00,1.17
6935.00,1.17
6934.00,1.18
6933.00,1.18
6932.00,1.18
6931.00,1.18
6930.00,1.18
6929.00,1.18
6928.00,1.19
6927.00,1.19
6926.00,1.19
6925.00,1.19
6924.00,1.19
6923.00,1.19
6922.00,1.19
6921.00,1.19
6920.00,1.19
6919.00,1.19
6918.00,1.19
6917.00,1.19
6916.00,1.19
6915.00,1.19
6914.00,1.19
6913.00,1.18
6912.00,1.18
6911.00,1.18
6910.00,1.18
6909.00,1.17
6908.00,1.17
6907.00,1.17
6906.00,1.17
6905.00,1.16
6904.00,1.16
6903.00,1.16
6902.00,1.16
6901.00,1.16
6900.00,1.16
6899.00,1.16
6898.00,1.15
6897.00,1.15
6896.00,1.15
6895.00,1.15
6894.00,1.15
6893.00,1.15
6892.00,1.15
6891.00,1.15
6890.00,1.15
6889.00,1.15
6888.00,1.16
6887.00,1.16
6886.00,1.16
6885.00,1.16
6884.00,1.16
6883.00,1.16
6882.00,1.17
6881.00,1.17
6880.00,1.17
6879.00,1.17
6878.00,1.17
6877.00,1.18
6876.00,1.18
6875.00,1.18
6874.00,1.18
6873.00,1.18
6872.00,1.18
6871.00,1.18
6870.00,1.19
6869.00,1.19
6868.00,1.19
6867.00,1.19
6866.00,1.19
6865.00,1.19
6864.00,1.19
6863.00,1.19
6862.00,1.19
6861.00,1.19
6860.00,1.19
6859.00,1.19
6858.00,1.19
6857.00,1.19
6856.00,1.18
6855.00,1.18
6854.00,1.18
6853.00,1.18
6852.00,1.18
6851.00,1.18
6850.00,1.18
6849.00,1.18
6848.00,1.18
6847.00,1.17
6846.00,1.17
6845.00,1.17
6844.00,1.17
6843.00,1.17
6842.00,1.17
6841.00,1.17
6840.00,1.17
6839.00,1.17
6838.00,1.17
6837.00,1.17
6836.00,1.17
6835.00,1.17
6834.00,1.17
6833.00,1.17
6832.00,1.17
6831.00,1.17
6830.00,1.17
6829.00,1.17
6828.00,1.17
6827.00,1.17
6826.00,1.17
6825.00,1.17
6824.00,1.17
6823.00,1.17
6822.00,1.17
6821.00,1.17
6820.00,1.17
6819.00,1.17
6818.00,1.17
6817.00,1.17
6816.00,1.17
6815.00,1.17
6814.00,1.17
6813.00,1.17
6812.00,1.17
6811.00,1.17
6810.00,1.17
6809.00,1.17
6808.00,1.17
6807.00,1.17
6806.00,1.17
6805.00,1.17
6804.00,1.18
6803.00,1.18
6802.00,1.18
6801.00,1.18
6800.00,1.18
6799.00,1.18
6798.00,1.18
6797.00,1.19
6796.00,1.19
6795.00,1.19
6794.00,1.19
6793.00,1.19
6792.00,1.19
6791.00,1.19
6790.00,1.20
6789.00,1.20
6788.00,1.20
6787.00,1.20
6786.00,1.20
6785.00,1.20
6784.00,1.21
6783.00,1.21
6782.00,1.21
6781.00,1.21
6780.00,1.21
6779.00,1.21
6778.00,1.21
6777.00,1.21
6776.00,1.21
6775.00,1.21
6774.00,1.21
6773.00,1.21
6772.00,1.21
6771.00,1.21
6770.00,1.21
6769.00,1.21
6768.00,1.21
6767.00,1.21
6766.00,1.21
6765.00,1.21
6764.00,1.21
6763.00,1.21
6762.00,1.21
6761.00,1.21
6760.00,1.21
6759.00,1.21
6758.00,1.21
6757.00,1.21
6756.00,1.21
6755.00,1.21
6754.00,1.21
6753.00,1.21
6752.00,1.21
6751.00,1.21
6750.00,1.21
6749.00,1.21
6748.00,1.21
6747.00,1.22
6746.00,1.22
6745.00,1.22
6744.00,1.22
6743.00,1.22
6742.00,1.22
6741.00,1.22
6740.00,1.22
6739.00,1.23
6738.00,1.23
6737.00,1.23
6736.00,1.23
6735.00,1.24
6734.00,1.24
6733.00,1.24
6732.00,1.24
6731.00,1.25
6730.00,1.25
6729.00,1.25
6728.00,1.25
6727.00,1.25
6726.00,1.26
6725.00,1.26
6724.00,1.26
6723.00,1.26
6722.00,1.26
6721.00,1.27
6720.00,1.27
6719.00,1.27
6718.00,1.27
6717.00,1.27
6716.00,1.27
6715.00,1.27
6714.00,1.27
6713.00,1.27
6712.00,1.27
6711.00,1.27
6710.00,1.27
6709.00,1.27
6708.00,1.27
6707.00,1.27
6706.00,1.27
6705.00,1.27
6704.00,1.27
6703.00,1.27
6702.00,1.28
6701.00,1.28
6700.00,1.28
6699.00,1.28
6698.00,1.28
6697.00,1.28
6696.00,1.28
6695.00,1.28
6694.00,1.28
6693.00,1.28
6692.00,1.28
6691.00,1.28
6690.00,1.28
6689.00,1.28
6688.00,1.29
6687.00,1.29
6686.00,1.29
6685.00,1.29
6684.00,1.29
6683.00,1.29
6682.00,1.30
6681.00,1.30
6680.00,1.30
6679.00,1.30
6678.00,1.30
6677.00,1.30
6676.00,1.31
6675.00,1.31
6674.00,1.31
6673.00,1.31
6672.00,1.31
6671.00,1.31
6670.00,1.31
6669.00,1.31
6668.00,1.31
6667.00,1.31
6666.00,1.31
6665.00,1.31
6664.00,1.31
6663.00,1.31
6662.00,1.31
6661.00,1.31
6660.00,1.31
6659.00,1.31
6658.00,1.31
6657.00,1.31
6656.00,1.30
6655.00,1.30
6654.00,1.30
6653.00,1.30
6652.00,1.30
6651.00,1.29
6650.00,1.29
6649.00,1.29
6648.00,1.29
6647.00,1.29
6646.00,1.29
6645.00,1.29
6644.00,1.29
6643.00,1.29
6642.00,1.29
6641.00,1.29
6640.00,1.29
6639.00,1.29
6638.00,1.29
6637.00,1.29
6636.00,1.30
6635.00,1.30
6634.00,1.30
6633.00,1.30
6632.00,1.30
6631.00,1.30
6630.00,1.30
6629.00,1.31
6628.00,1.31
6627.00,1.31
6626.00,1.31
6625.00,1.32
6624.00,1.32
6623.00,1.32
6622.00,1.32
6621.00,1.32
6620.00,1.32
6619.00,1.32
6618.00,1.33
6617.00,1.33
6616.00,1.33
6615.00,1.33
6614.00,1.33
6613.00,1.33
6612.00,1.33
6611.00,1.33
6610.00,1.33
6609.00,1.33
6608.00,1.33
6607.00,1.33
6606.00,1.33
6605.00,1.33
6604.00,1.33
6603.00,1.33
6602.00,1.33
6601.00,1.33
6600.00,1.33
6599.00,1.33
6598.00,1.33
6597.00,1.33
6596.00,1.33
6595.00,1.33
6594.00,1.34
6593.00,1.34
6592.00,1.34
6591.00,1.34
6590.00,1.34
6589.00,1.34
6588.00,1.34
6587.00,1.34
6586.00,1.34
6585.00,1.34
6584.00,1.34
6583.00,1.35
6582.00,1.35
6581.00,1.35
6580.00,1.35
6579.00,1.35
6578.00,1.35
6577.00,1.36
6576.00,1.36
6575.00,1.36
6574.00,1.36
6573.00,1.36
6572.00,1.36
6571.00,1.37
6570.00,1.37
6569.00,1.37
6568.00,1.37
6567.00,1.37
6566.00,1.37
6565.00,1.37
6564.00,1.37
6563.00,1.37
6562.00,1.37
6561.00,1.37
6560.00,1.37
6559.00,1.37
6558.00,1.37
6557.00,1.37
6556.00,1.38
6555.00,1.38
6554.00,1.37
6553.00,1.37
6552.00,1.37
6551.00,1.37
6550.00,1.37
6549.00,1.37
6548.00,1.37
6547.00,1.37
6546.00,1.37
6545.00,1.37
6544.00,1.36
6543.00,1.36
6542.00,1.36
6541.00,1.36
6540.00,1.36
6539.00,1.37
6538.00,1.37
6537.00,1.37
6536.00,1.37
6535.00,1.37
6534.00,1.37
6533.00,1.37
6532.00,1.37
6531.00,1.37
6530.00,1.37
6529.00,1.37
6528.00,1.37
6527.00,1.37
6526.00,1.37
6525.00,1.37
6524.00,1.37
6523.00,1.37
6522.00,1.38
6521.00,1.38
6520.00,1.38
6519.00,1.38
6518.00,1.38
6517.00,1.38
6516.00,1.38
6515.00,1.38
6514.00,1.38
6513.00,1.38
6512.00,1.38
6511.00,1.38
6510.00,1.37
6509.00,1.37
6508.00,1.37
6507.00,1.37
6506.00,1.37
6505.00,1.37
6504.00,1.37
6503.00,1.37
6502.00,1.37
6501.00,1.37
6500.00,1.37
6499.00,1.37
6498.00,1.37
6497.00,1.37
6496.00,1.37
6495.00,1.37
6494.00,1.37
6493.00,1.37
6492.00,1.37
6491.00,1.37
6490.00,1.37
6489.00,1.38
6488.00,1.38
6487.00,1.38
6486.00,1.38
6485.00,1.38
6484.00,1.39
6483.00,1.39
6482.00,1.39
6481.00,1.39
6480.00,1.40
6479.00,1.40
6478.00,1.40
6477.00,1.41
6476.00,1.41
6475.00,1.41
6474.00,1.41
6473.00,1.42
6472.00,1.42
6471.00,1.42
6470.00,1.42
6469.00,1.42
6468.00,1.42
6467.00,1.43
6466.00,1.43
6465.00,1.43
6464.00,1.43
6463.00,1.43
6462.00,1.43
6461.00,1.43
6460.00,1.43
6459.00,1.43
6458.00,1.43
6457.00,1.43
6456.00,1.44
6455.00,1.44
6454.00,1.44
6453.00,1.44
6452.00,1.44
6451.00,1.44
6450.00,1.44
6449.00,1.44
6448.00,1.44
6447.00,1.44
6446.00,1.44
6445.00,1.44
6444.00,1.43
6443.00,1.43
6442.00,1.43
6441.00,1.43
6440.00,1.43
6439.00,1.43
6438.00,1.43
6437.00,1.43
6436.00,1.43
6435.00,1.43
6434.00,1.42
6433.00,1.42
6432.00,1.42
6431.00,1.42
6430.00,1.42
6429.00,1.42
6428.00,1.42
6427.00,1.42
6426.00,1.42
6425.00,1.41
6424.00,1.41
6423.00,1.41
6422.00,1.41
6421.00,1.41
6420.00,1.41
6419.00,1.41
6418.00,1.41
6417.00,1.41
6416.00,1.41
6415.00,1.41
6414.00,1.41
6413.00,1.41
6412.00,1.41
6411.00,1.42
6410.00,1.42
6409.00,1.42
6408.00,1.42
6407.00,1.42
6406.00,1.42
6405.00,1.42
6404.00,1.42
6403.00,1.42
6402.00,1.42
6401.00,1.42
6400.00,1.42
6399.00,1.42
6398.00,1.42
6397.00,1.42
6396.00,1.42
6395.00,1.42
6394.00,1.42
6393.00,1.42
6392.00,1.43
6391.00,1.43
6390.00,1.43
6389.00,1.43
6388.00,1.43
6387.00,1.43
6386.00,1.43
6385.00,1.43
6384.00,1.43
6383.00,1.43
6382.00,1.43
6381.00,1.43
6380.00,1.43
6379.00,1.43
6378.00,1.43
6377.00,1.43
6376.00,1.43
6375.00,1.44
6374.00,1.44
6373.00,1.44
6372.00,1.44
6371.00,1.44
6370.00,1.44
6369.00,1.44
6368.00,1.45
6367.00,1.45
6366.00,1.45
6365.00,1.45
6364.00,1.45
6363.00,1.45
6362.00,1.45
6361.00,1.45
6360.00,1.45
6359.00,1.45
6358.00,1.45
6357.00,1.45
6356.00,1.45
6355.00,1.45
6354.00,1.45
6353.00,1.45
6352.00,1.45
6351.00,1.45
6350.00,1.45
6349.00,1.45
6348.00,1.45
6347.00,1.45
6346.00,1.45
6345.00,1.45
6344.00,1.45
6343.00,1.45
6342.00,1.45
6341.00,1.45
6340.00,1.46
6339.00,1.46
6338.00,1.46
6337.00,1.46
6336.00,1.46
6335.00,1.46
6334.00,1.46
6333.00,1.46
6332.00,1.46
6331.00,1.46
6330.00,1.47
6329.00,1.47
6328.00,1.47
6327.00,1.47
6326.00,1.47
6325.00,1.47
6324.00,1.48
6323.00,1.48
6322.00,1.48
6321.00,1.48
6320.00,1.48
6319.00,1.48
6318.00,1.49
6317.00,1.49
6316.00,1.49
6315.00,1.49
6314.00,1.49
6313.00,1.49
6312.00,1.49
6311.00,1.49
6310.00,1.50
6309.00,1.50
6308.00,1.50
6307.00,1.50
6306.00,1.50
6305.00,1.50
6304.00,1.50
6303.00,1.50
6302.00,1.50
6301.00,1.50
6300.00,1.51
6299.00,1.51
6298.00,1.51
6297.00,1.51
6296.00,1.51
6295.00,1.51
6294.00,1.51
6293.00,1.51
6292.00,1.51
6291.00,1.51
6290.00,1.51
6289.00,1.51
6288.00,1.51
6287.00,1.51
6286.00,1.51
6285.00,1.51
6284.00,1.50
6283.00,1.50
6282.00,1.50
6281.00,1.50
6280.00,1.50
6279.00,1.50
6278.00,1.50
6277.00,1.50
6276.00,1.50
6275.00,1.50
6274.00,1.50
6273.00,1.50
6272.00,1.50
6271.00,1.50
6270.00,1.50
6269.00,1.50
6268.00,1.50
6267.00,1.50
6266.00,1.50
6265.00,1.50
6264.00,1.50
6263.00,1.50
6262.00,1.50
6261.00,1.50
6260.00,1.50
6259.00,1.50
6258.00,1.50
6257.00,1.50
6256.00,1.50
6255.00,1.50
6254.00,1.50
6253.00,1.50
6252.00,1.51
6251.00,1.51
6250.00,1.51
6249.00,1.51
6248.00,1.51
6247.00,1.51
6246.00,1.51
6245.00,1.51
6244.00,1.51
6243.00,1.51
6242.00,1.51
6241.00,1.51
6240.00,1.52
6239.00,1.52
6238.00,1.52
6237.00,1.52
6236.00,1.52
6235.00,1.52
6234.00,1.52
6233.00,1.52
6232.00,1.52
6231.00,1.52
6230.00,1.52
6229.00,1.52
6228.00,1.52
6227.00,1.52
6226.00,1.52
6225.00,1.52
6224.00,1.52
6223.00,1.52
6222.00,1.52
6221.00,1.52
6220.00,1.52
6219.00,1.52
6218.00,1.52
6217.00,1.52
6216.00,1.52
6215.00,1.52
6214.00,1.52
6213.00,1.52
6212.00,1.52
6211.00,1.52
6210.00,1.52
6209.00,1.52
6208.00,1.52
6207.00,1.52
6206.00,1.52
6205.00,1.52
6204.00,1.52
6203.00,1.53
6202.00,1.53
6201.00,1.53
6200.00,1.53
6199.00,1.53
6198.00,1.53
6197.00,1.53
6196.00,1.54
6195.00,1.54
6194.00,1.54
6193.00,1.54
6192.00,1.54
6191.00,1.55
6190.00,1.55
6189.00,1.55
6188.00,1.55
6187.00,1.55
6186.00,1.56
6185.00,1.56
6184.00,1.56
6183.00,1.56
6182.00,1.56
6181.00,1.56
6180.00,1.56
6179.00,1.57
6178.00,1.57
6177.00,1.57
6176.00,1.57
6175.00,1.57
6174.00,1.57
6173.00,1.57
6172.00,1.57
6171.00,1.57
6170.00,1.58
6169.00,1.58
6168.00,1.58
6167.00,1.58
6166.00,1.58
6165.00,1.58
6164.00,1.58
6163.00,1.58
6162.00,1.58
6161.00,1.58
6160.00,1.58
6159.00,1.58
6158.00,1.58
6157.00,1.58
6156.00,1.58
6155.00,1.58
6154.00,1.58
6153.00,1.58
6152.00,1.58
6151.00,1.58
6150.00,1.58
6149.00,1.58
6148.00,1.58
6147.00,1.58
6146.00,1.58
6145.00,1.58
6144.00,1.58
6143.00,1.58
6142.00,1.58
6141.00,1.58
6140.00,1.58
6139.00,1.58
6138.00,1.58
6137.00,1.58
6136.00,1.58
6135.00,1.58
6134.00,1.58
6133.00,1.58
6132.00,1.58
6131.00,1.58
6130.00,1.58
6129.00,1.58
6128.00,1.58
6127.00,1.58
6126.00,1.58
6125.00,1.58
6124.00,1.58
6123.00,1.58
6122.00,1.59
6121.00,1.59
6120.00,1.59
6119.00,1.59
6118.00,1.59
6117.00,1.59
6116.00,1.60
6115.00,1.60
6114.00,1.60
6113.00,1.60
6112.00,1.60
6111.00,1.60
6110.00,1.60
6109.00,1.60
6108.00,1.60
6107.00,1.60
6106.00,1.60
6105.00,1.61
6104.00,1.61
6103.00,1.61
6102.00,1.61
6101.00,1.61
6100.00,1.61
6099.00,1.61
6098.00,1.61
6097.00,1.61
6096.00,1.61
6095.00,1.61
6094.00,1.61
6093.00,1.61
6092.00,1.61
6091.00,1.61
6090.00,1.60
6089.00,1.60
6088.00,1.60
6087.00,1.60
6086.00,1.60
6085.00,1.60
6084.00,1.60
6083.00,1.60
6082.00,1.60
6081.00,1.60
6080.00,1.60
6079.00,1.60
6078.00,1.60
6077.00,1.60
6076.00,1.60
6075.00,1.60
6074.00,1.60
6073.00,1.60
6072.00,1.60
6071.00,1.60
6070.00,1.60
6069.00,1.60
6068.00,1.60
6067.00,1.60
6066.00,1.60
6065.00,1.60
6064.00,1.60
6063.00,1.60
6062.00,1.60
6061.00,1.61
6060.00,1.61
6059.00,1.61
6058.00,1.61
6057.00,1.61
6056.00,1.61
6055.00,1.62
6054.00,1.62
6053.00,1.62
6052.00,1.62
6051.00,1.62
6050.00,1.62
6049.00,1.62
6048.00,1.62
6047.00,1.62
6046.00,1.62
6045.00,1.62
6044.00,1.62
6043.00,1.62
6042.00,1.62
6041.00,1.62
6040.00,1.62
6039.00,1.62
6038.00,1.62
6037.00,1.62
6036.00,1.62
6035.00,1.62
6034.00,1.62
6033.00,1.62
6032.00,1.62
6031.00,1.62
6030.00,1.62
6029.00,1.62
6028.00,1.62
6027.00,1.62
6026.00,1.62
6025.00,1.62
6024.00,1.62
6023.00,1.62
6022.00,1.62
6021.00,1.62
6020.00,1.62
6019.00,1.62
6018.00,1.62
6017.00,1.62
6016.00,1.62
6015.00,1.62
6014.00,1.62
6013.00,1.62
6012.00,1.62
6011.00,1.61
6010.00,1.61
6009.00,1.61
6008.00,1.61
6007.00,1.61
6006.00,1.61
6005.00,1.61
6004.00,1.61
6003.00,1.60
6002.00,1.60
6001.00,1.60
6000.00,1.60
5999.00,1.60
5998.00,1.60
5997.00,1.60
5996.00,1.60
5995.00,1.60
5994.00,1.60
5993.00,1.60
5992.00,1.60
5991.00,1.60
5990.00,1.60
5989.00,1.59
5988.00,1.59
5987.00,1.59
5986.00,1.59
5985.00,1.59
5984.00,1.59
5983.00,1.59
5982.00,1.59
5981.00,1.59
5980.00,1.59
5979.00,1.59
5978.00,1.59
5977.00,1.59
5976.00,1.59
5975.00,1.59
5974.00,1.58
5973.00,1.58
5972.00,1.58
5971.00,1.58
5970.00,1.58
5969.00,1.58
5968.00,1.58
5967.00,1.57
5966.00,1.57
5965.00,1.57
5964.00,1.57
5963.00,1.57
5962.00,1.57
5961.00,1.57
5960.00,1.56
5959.00,1.56
5958.00,1.56
5957.00,1.56
5956.00,1.56
5955.00,1.56
5954.00,1.56
5953.00,1.56
5952.00,1.56
5951.00,1.55
5950.00,1.55
5949.00,1.55
5948.00,1.55
5947.00,1.55
5946.00,1.55
5945.00,1.55
5944.00,1.55
5943.00,1.54
5942.00,1.54
5941.00,1.54
5940.00,1.54
5939.00,1.54
5938.00,1.54
5937.00,1.54
5936.00,1.54
5935.00,1.54
5934.00,1.54
5933.00,1.54
5932.00,1.54
5931.00,1.54
5930.00,1.54
5929.00,1.53
5928.00,1.53
5927.00,1.53
5926.00,1.53
5925.00,1.53
5924.00,1.53
5923.00,1.53
5922.00,1.53
5921.00,1.53
5920.00,1.53
5919.00,1.53
5918.00,1.52
5917.00,1.52
5916.00,1.52
5915.00,1.52
5914.00,1.52
5913.00,1.52
5912.00,1.52
5911.00,1.52
5910.00,1.52
5909.00,1.52
5908.00,1.51
5907.00,1.51
5906.00,1.51
5905.00,1.51
5904.00,1.51
5903.00,1.51
5902.00,1.51
5901.00,1.51
5900.00,1.51
5899.00,1.51
5898.00,1.51
5897.00,1.51
5896.00,1.51
5895.00,1.51
5894.00,1.51
5893.00,1.51
5892.00,1.51
5891.00,1.51
5890.00,1.51
5889.00,1.51
5888.00,1.51
5887.00,1.51
5886.00,1.51
5885.00,1.51
5884.00,1.51
5883.00,1.51
5882.00,1.51
5881.00,1.51
5880.00,1.51
5879.00,1.51
5878.00,1.52
5877.00,1.52
5876.00,1.52
5875.00,1.52
5874.00,1.52
5873.00,1.52
5872.00,1.52
5871.00,1.52
5870.00,1.53
5869.00,1.53
5868.00,1.53
5867.00,1.53
5866.00,1.53
5865.00,1.53
5864.00,1.53
5863.00,1.53
5862.00,1.52
5861.00,1.52
5860.00,1.52
5859.00,1.52
5858.00,1.52
5857.00,1.52
5856.00,1.52
5855.00,1.52
5854.00,1.52
5853.00,1.52
5852.00,1.52
5851.00,1.52
5850.00,1.52
5849.00,1.52
5848.00,1.52
5847.00,1.52
5846.00,1.52
5845.00,1.52
5844.00,1.52
5843.00,1.52
5842.00,1.51
5841.00,1.52
5840.00,1.52
5839.00,1.52
5838.00,1.52
5837.00,1.52
5836.00,1.52
5835.00,1.52
5834.00,1.52
5833.00,1.52
5832.00,1.52
5831.00,1.53
5830.00,1.53
5829.00,1.53
5828.00,1.53
5827.00,1.53
5826.00,1.53
5825.00,1.54
5824.00,1.54
5823.00,1.54
5822.00,1.54
5821.00,1.54
5820.00,1.54
5819.00,1.54
5818.00,1.54
5817.00,1.54
5816.00,1.55
5815.00,1.55
5814.00,1.55
5813.00,1.55
5812.00,1.55
5811.00,1.55
5810.00,1.55
5809.00,1.55
5808.00,1.55
5807.00,1.55
5806.00,1.54
5805.00,1.54
5804.00,1.54
5803.00,1.54
5802.00,1.54
5801.00,1.54
5800.00,1.54
5799.00,1.54
5798.00,1.53
5797.00,1.53
5796.00,1.53
5795.00,1.53
5794.00,1.53
5793.00,1.53
5792.00,1.53
5791.00,1.52
5790.00,1.52
5789.00,1.52
5788.00,1.52
5787.00,1.52
5786.00,1.52
5785.00,1.51
5784.00,1.51
5783.00,1.51
5782.00,1.51
5781.00,1.51
5780.00,1.51
5779.00,1.51
5778.00,1.51
5777.00,1.51
5776.00,1.51
5775.00,1.51
5774.00,1.50
5773.00,1.50
5772.00,1.50
5771.00,1.50
5770.00,1.50
5769.00,1.50
5768.00,1.50
5767.00,1.50
5766.00,1.50
5765.00,1.50
5764.00,1.51
5763.00,1.51
5762.00,1.51
5761.00,1.51
5760.00,1.51
5759.00,1.51
5758.00,1.51
5757.00,1.51
5756.00,1.51
5755.00,1.51
5754.00,1.52
5753.00,1.52
5752.00,1.52
5751.00,1.52
5750.00,1.52
5749.00,1.53
5748.00,1.53
5747.00,1.53
5746.00,1.53
5745.00,1.54
5744.00,1.54
5743.00,1.54
5742.00,1.54
5741.00,1.55
5740.00,1.55
5739.00,1.55
5738.00,1.55
5737.00,1.55
5736.00,1.56
5735.00,1.56
5734.00,1.56
5733.00,1.56
5732.00,1.56
5731.00,1.56
5730.00,1.57
5729.00,1.57
5728.00,1.57
5727.00,1.57
5726.00,1.57
5725.00,1.57
5724.00,1.56
5723.00,1.56
5722.00,1.56
5721.00,1.56
5720.00,1.56
5719.00,1.56
5718.00,1.56
5717.00,1.56
5716.00,1.55
5715.00,1.55
5714.00,1.55
5713.00,1.55
5712.00,1.55
5711.00,1.55
5710.00,1.54
5709.00,1.54
5708.00,1.54
5707.00,1.54
5706.00,1.54
5705.00,1.54
5704.00,1.54
5703.00,1.54
5702.00,1.54
5701.00,1.54
5700.00,1.54
5699.00,1.54
5698.00,1.54
5697.00,1.54
5696.00,1.54
5695.00,1.54
5694.00,1.54
5693.00,1.54
5692.00,1.55
5691.00,1.55
5690.00,1.55
5689.00,1.55
5688.00,1.55
5687.00,1.55
5686.00,1.55
5685.00,1.55
5684.00,1.55
5683.00,1.55
5682.00,1.55
5681.00,1.56
5680.00,1.56
5679.00,1.56
5678.00,1.56
5677.00,1.56
5676.00,1.56
5675.00,1.56
5674.00,1.56
5673.00,1.56
5672.00,1.56
5671.00,1.56
5670.00,1.56
5669.00,1.56
5668.00,1.55
5667.00,1.55
5666.00,1.55
5665.00,1.55
5664.00,1.55
5663.00,1.55
5662.00,1.55
5661.00,1.55
5660.00,1.55
5659.00,1.55
5658.00,1.55
5657.00,1.55
5656.00,1.54
5655.00,1.54
5654.00,1.54
5653.00,1.54
5652.00,1.54
5651.00,1.54
5650.00,1.54
5649.00,1.54
5648.00,1.54
5647.00,1.54
5646.00,1.54
5645.00,1.54
5644.00,1.55
5643.00,1.55
5642.00,1.55
5641.00,1.55
5640.00,1.55
5639.00,1.55
5638.00,1.56
5637.00,1.56
5636.00,1.56
5635.00,1.56
5634.00,1.56
5633.00,1.56
5632.00,1.57
5631.00,1.57
5630.00,1.57
5629.00,1.57
5628.00,1.57
5627.00,1.57
5626.00,1.57
5625.00,1.58
5624.00,1.58
5623.00,1.58
5622.00,1.58
5621.00,1.58
5620.00,1.58
5619.00,1.58
5618.00,1.58
5617.00,1.58
5616.00,1.59
5615.00,1.59
5614.00,1.59
5613.00,1.59
5612.00,1.59
5611.00,1.59
5610.00,1.59
5609.00,1.59
5608.00,1.59
5607.00,1.59
5606.00,1.59
5605.00,1.59
5604.00,1.59
5603.00,1.59
5602.00,1.59
5601.00,1.59
5600.00,1.59
5599.00,1.59
5598.00,1.59
5597.00,1.59
5596.00,1.59
5595.00,1.59
5594.00,1.59
5593.00,1.59
5592.00,1.59
5591.00,1.59
5590.00,1.59
5589.00,1.59
5588.00,1.59
5587.00,1.59
5586.00,1.59
5585.00,1.59
5584.00,1.59
5583.00,1.59
5582.00,1.60
5581.00,1.60
5580.00,1.60
5579.00,1.60
5578.00,1.60
5577.00,1.60
5576.00,1.60
5575.00,1.60
5574.00,1.60
5573.00,1.60
5572.00,1.60
5571.00,1.60
5570.00,1.60
5569.00,1.60
5568.00,1.60
5567.00,1.60
5566.00,1.60
5565.00,1.60
5564.00,1.60
5563.00,1.60
5562.00,1.60
5561.00,1.60
5560.00,1.60
5559.00,1.60
5558.00,1.60
5557.00,1.60
5556.00,1.60
5555.00,1.60
5554.00,1.60
5553.00,1.60
5552.00,1.60
5551.00,1.60
5550.00,1.60
5549.00,1.60
5548.00,1.60
5547.00,1.60
5546.00,1.60
5545.00,1.60
5544.00,1.60
5543.00,1.60
5542.00,1.60
5541.00,1.60
5540.00,1.60
5539.00,1.60
5538.00,1.60
5537.00,1.60
5536.00,1.60
5535.00,1.60
5534.00,1.61
5533.00,1.61
5532.00,1.61
5531.00,1.61
5530.00,1.61
5529.00,1.61
5528.00,1.61
5527.00,1.61
5526.00,1.61
5525.00,1.61
5524.00,1.61
5523.00,1.61
5522.00,1.61
5521.00,1.61
5520.00,1.61
5519.00,1.61
5518.00,1.61
5517.00,1.61
5516.00,1.61
5515.00,1.61
5514.00,1.61
5513.00,1.61
5512.00,1.61
5511.00,1.61
5510.00,1.61
5509.00,1.61
5508.00,1.61
5507.00,1.61
5506.00,1.61
5505.00,1.61
5504.00,1.60
5503.00,1.60
5502.00,1.60
5501.00,1.60
5500.00,1.60
5499.00,1.60
5498.00,1.60
5497.00,1.60
5496.00,1.60
5495.00,1.60
5494.00,1.60
5493.00,1.60
5492.00,1.61
5491.00,1.61
5490.00,1.61
5489.00,1.61
5488.00,1.61
5487.00,1.61
5486.00,1.61
5485.00,1.61
5484.00,1.61
5483.00,1.61
5482.00,1.61
5481.00,1.61
5480.00,1.61
5479.00,1.62
5478.00,1.62
5477.00,1.62
5476.00,1.62
5475.00,1.62
5474.00,1.62
5473.00,1.62
5472.00,1.63
5471.00,1.63
5470.00,1.63
5469.00,1.63
5468.00,1.63
5467.00,1.63
5466.00,1.63
5465.00,1.64
5464.00,1.64
5463.00,1.64
5462.00,1.64
5461.00,1.64
5460.00,1.64
5459.00,1.65
5458.00,1.65
5457.00,1.65
5456.00,1.65
5455.00,1.65
5454.00,1.65
5453.00,1.65
5452.00,1.65
5451.00,1.65
5450.00,1.65
5449.00,1.66
5448.00,1.66
5447.00,1.66
5446.00,1.66
5445.00,1.66
5444.00,1.66
5443.00,1.66
5442.00,1.66
5441.00,1.66
5440.00,1.66
5439.00,1.66
5438.00,1.66
5437.00,1.66
5436.00,1.65
5435.00,1.65
5434.00,1.65
5433.00,1.66
5432.00,1.66
5431.00,1.66
5430.00,1.66
5429.00,1.66
5428.00,1.66
5427.00,1.66
5426.00,1.66
5425.00,1.65
5424.00,1.65
5423.00,1.65
5422.00,1.65
5421.00,1.65
5420.00,1.65
5419.00,1.65
5418.00,1.65
5417.00,1.65
5416.00,1.65
5415.00,1.65
5414.00,1.65
5413.00,1.65
5412.00,1.65
5411.00,1.65
5410.00,1.65
5409.00,1.65
5408.00,1.65
5407.00,1.65
5406.00,1.65
5405.00,1.65
5404.00,1.65
5403.00,1.65
5402.00,1.65
5401.00,1.65
5400.00,1.65
5399.00,1.65
5398.00,1.65
5397.00,1.65
5396.00,1.65
5395.00,1.65
5394.00,1.65
5393.00,1.65
5392.00,1.65
5391.00,1.65
5390.00,1.64
5389.00,1.64
5388.00,1.64
5387.00,1.64
5386.00,1.64
5385.00,1.64
5384.00,1.64
5383.00,1.64
5382.00,1.64
5381.00,1.63
5380.00,1.63
5379.00,1.63
5378.00,1.63
5377.00,1.63
5376.00,1.63
5375.00,1.62
5374.00,1.62
5373.00,1.62
5372.00,1.61
5371.00,1.61
5370.00,1.61
5369.00,1.61
5368.00,1.60
5367.00,1.60
5366.00,1.60
5365.00,1.59
5364.00,1.59
5363.00,1.59
5362.00,1.59
5361.00,1.58
5360.00,1.58
5359.00,1.58
5358.00,1.57
5357.00,1.57
5356.00,1.57
5355.00,1.57
5354.00,1.57
5353.00,1.56
5352.00,1.56
5351.00,1.56
5350.00,1.56
5349.00,1.56
5348.00,1.55
5347.00,1.55
5346.00,1.55
5345.00,1.55
5344.00,1.54
5343.00,1.54
5342.00,1.54
5341.00,1.53
5340.00,1.53
5339.00,1.53
5338.00,1.52
5337.00,1.52
5336.00,1.51
5335.00,1.51
5334.00,1.50
5333.00,1.50
5332.00,1.49
5331.00,1.49
5330.00,1.48
5329.00,1.47
5328.00,1.47
5327.00,1.46
5326.00,1.45
5325.00,1.44
5324.00,1.44
5323.00,1.43
5322.00,1.42
5321.00,1.41
5320.00,1.40
5319.00,1.39
5318.00,1.38
5317.00,1.37
5316.00,1.36
5315.00,1.36
5314.00,1.35
5313.00,1.34
5312.00,1.33
5311.00,1.32
5310.00,1.31
5309.00,1.30
5308.00,1.29
5307.00,1.28
5306.00,1.27
5305.00,1.26
5304.00,1.26
5303.00,1.25
5302.00,1.24
5301.00,1.23
5300.00,1.22
5299.00,1.21
5298.00,1.21
5297.00,1.20
5296.00,1.19
5295.00,1.18
5294.00,1.18
5293.00,1.17
5292.00,1.16
5291.00,1.16
5290.00,1.15
5289.00,1.15
5288.00,1.14
5287.00,1.13
5286.00,1.13
5285.00,1.12
5284.00,1.12
5283.00,1.11
5282.00,1.11
5281.00,1.10
5280.00,1.10
5279.00,1.09
5278.00,1.09
5277.00,1.08
5276.00,1.08
5275.00,1.08
5274.00,1.07
5273.00,1.07
5272.00,1.06
5271.00,1.06
5270.00,1.06
5269.00,1.05
5268.00,1.05
5267.00,1.05
5266.00,1.04
5265.00,1.04
5264.00,1.03
5263.00,1.03
5262.00,1.03
5261.00,1.03
5260.00,1.02
5259.00,1.02
5258.00,1.02
5257.00,1.01
5256.00,1.01
5255.00,1.01
5254.00,1.00
5253.00,1.00
5252.00,1.00
5251.00,1.00
5250.00,0.99
5249.00,0.99
5248.00,0.99
5247.00,0.99
5246.00,0.98
5245.00,0.98
5244.00,0.98
5243.00,0.98
5242.00,0.97
5241.00,0.97
5240.00,0.97
5239.00,0.97
5238.00,0.96
5237.00,0.96
5236.00,0.96
5235.00,0.96
5234.00,0.96
5233.00,0.95
5232.00,0.95
5231.00,0.95
5230.00,0.95
5229.00,0.95
5228.00,0.94
5227.00,0.94
5226.00,0.94
5225.00,0.94
5224.00,0.94
5223.00,0.93
5222.00,0.93
5221.00,0.93
5220.00,0.93
5219.00,0.93
5218.00,0.93
5217.00,0.92
5216.00,0.92
5215.00,0.92
5214.00,0.92
5213.00,0.92
5212.00,0.92
5211.00,0.92
5210.00,0.92
5209.00,0.92
5208.00,0.92
5207.00,0.91
5206.00,0.91
5205.00,0.91
5204.00,0.91
5203.00,0.91
5202.00,0.91
5201.00,0.91
5200.00,0.91
5199.00,0.91
5198.00,0.91
5197.00,0.91
5196.00,0.91
5195.00,0.91
5194.00,0.91
5193.00,0.91
5192.00,0.91
5191.00,0.91
5190.00,0.91
5189.00,0.91
5188.00,0.91
5187.00,0.91
5186.00,0.91
5185.00,0.91
5184.00,0.91
5183.00,0.91
5182.00,0.91
5181.00,0.91
5180.00,0.91
5179.00,0.91
5178.00,0.91
5177.00,0.91
5176.00,0.91
5175.00,0.91
5174.00,0.91
5173.00,0.91
5172.00,0.91
5171.00,0.91
5170.00,0.91
5169.00,0.91
5168.00,0.91
5167.00,0.91
5166.00,0.91
5165.00,0.91
5164.00,0.91
5163.00,0.91
5162.00,0.91
5161.00,0.91
5160.00,0.91
5159.00,0.91
5158.00,0.91
5157.00,0.91
5156.00,0.91
5155.00,0.91
5154.00,0.91
5153.00,0.91
5152.00,0.91
5151.00,0.91
5150.00,0.91
5149.00,0.91
5148.00,0.91
5147.00,0.91
5146.00,0.91
5145.00,0.91
5144.00,0.91
5143.00,0.91
5142.00,0.91
5141.00,0.91
5140.00,0.91
5139.00,0.92
5138.00,0.92
5137.00,0.92
5136.00,0.92
5135.00,0.92
5134.00,0.93
5133.00,0.93
5132.00,0.93
5131.00,0.93
5130.00,0.93
5129.00,0.93
5128.00,0.94
5127.00,0.94
5126.00,0.94
5125.00,0.94
5124.00,0.94
5123.00,0.94
5122.00,0.95
5121.00,0.95
5120.00,0.95
5119.00,0.95
5118.00,0.95
5117.00,0.95
5116.00,0.95
5115.00,0.96
5114.00,0.96
5113.00,0.96
5112.00,0.96
5111.00,0.96
5110.00,0.96
5109.00,0.96
5108.00,0.96
5107.00,0.96
5106.00,0.96
5105.00,0.97
5104.00,0.97
5103.00,0.97
5102.00,0.97
5101.00,0.97
5100.00,0.97
5099.00,0.97
5098.00,0.98
5097.00,0.98
5096.00,0.98
5095.00,0.98
5094.00,0.98
5093.00,0.99
5092.00,0.99
5091.00,0.99
5090.00,0.99
5089.00,0.99
5088.00,1.00
5087.00,1.00
5086.00,1.00
5085.00,1.00
5084.00,1.00
5083.00,1.01
5082.00,1.01
5081.00,1.01
5080.00,1.01
5079.00,1.02
5078.00,1.02
5077.00,1.02
5076.00,1.02
5075.00,1.03
5074.00,1.03
5073.00,1.03
5072.00,1.03
5071.00,1.04
5070.00,1.04
5069.00,1.04
5068.00,1.04
5067.00,1.04
5066.00,1.05
5065.00,1.05
5064.00,1.05
5063.00,1.05
5062.00,1.05
5061.00,1.06
5060.00,1.06
5059.00,1.06
5058.00,1.06
5057.00,1.06
5056.00,1.06
5055.00,1.06
5054.00,1.06
5053.00,1.07
5052.00,1.07
5051.00,1.07
5050.00,1.07
5049.00,1.07
5048.00,1.07
5047.00,1.07
5046.00,1.07
5045.00,1.07
5044.00,1.07
5043.00,1.07
5042.00,1.07
5041.00,1.07
5040.00,1.07
5039.00,1.07
5038.00,1.07
5037.00,1.08
5036.00,1.08
5035.00,1.08
5034.00,1.08
5033.00,1.08
5032.00,1.08
5031.00,1.09
5030.00,1.09
5029.00,1.09
5028.00,1.09
5027.00,1.10
5026.00,1.10
5025.00,1.10
5024.00,1.11
5023.00,1.11
5022.00,1.11
5021.00,1.12
5020.00,1.12
5019.00,1.13
5018.00,1.13
5017.00,1.13
5016.00,1.13
5015.00,1.14
5014.00,1.14
5013.00,1.14
5012.00,1.15
5011.00,1.15
5010.00,1.15
5009.00,1.15
5008.00,1.15
5007.00,1.16
5006.00,1.16
5005.00,1.16
5004.00,1.16
5003.00,1.16
5002.00,1.16
5001.00,1.16
5000.00,1.17
4999.00,1.17
4998.00,1.17
4997.00,1.17
4996.00,1.17
4995.00,1.17
4994.00,1.17
4993.00,1.17
4992.00,1.17
4991.00,1.17
4990.00,1.17
4989.00,1.18
4988.00,1.18
4987.00,1.18
4986.00,1.18
4985.00,1.18
4984.00,1.18
4983.00,1.19
4982.00,1.19
4981.00,1.19
4980.00,1.20
4979.00,1.20
4978.00,1.20
4977.00,1.20
4976.00,1.21
4975.00,1.21
4974.00,1.21
4973.00,1.22
4972.00,1.22
4971.00,1.22
4970.00,1.23
4969.00,1.23
4968.00,1.23
4967.00,1.23
4966.00,1.24
4965.00,1.24
4964.00,1.24
4963.00,1.24
4962.00,1.24
4961.00,1.25
4960.00,1.25
4959.00,1.25
4958.00,1.25
4957.00,1.25
4956.00,1.25
4955.00,1.25
4954.00,1.26
4953.00,1.26
4952.00,1.26
4951.00,1.26
4950.00,1.26
4949.00,1.26
4948.00,1.26
4947.00,1.26
4946.00,1.26
4945.00,1.26
4944.00,1.26
4943.00,1.26
4942.00,1.26
4941.00,1.26
4940.00,1.26
4939.00,1.26
4938.00,1.26
4937.00,1.26
4936.00,1.26
4935.00,1.26
4934.00,1.26
4933.00,1.26
4932.00,1.26
4931.00,1.26
4930.00,1.26
4929.00,1.26
4928.00,1.26
4927.00,1.26
4926.00,1.26
4925.00,1.26
4924.00,1.26
4923.00,1.26
4922.00,1.26
4921.00,1.26
4920.00,1.26
4919.00,1.27
4918.00,1.27
4917.00,1.27
4916.00,1.27
4915.00,1.27
4914.00,1.27
4913.00,1.27
4912.00,1.27
4911.00,1.27
4910.00,1.27
4909.00,1.27
4908.00,1.27
4907.00,1.27
4906.00,1.28
4905.00,1.28
4904.00,1.28
4903.00,1.28
4902.00,1.28
4901.00,1.28
4900.00,1.29
4899.00,1.29
4898.00,1.29
4897.00,1.29
4896.00,1.29
4895.00,1.29
4894.00,1.29
4893.00,1.29
4892.00,1.29
4891.00,1.30
4890.00,1.30
4889.00,1.30
4888.00,1.30
4887.00,1.30
4886.00,1.30
4885.00,1.30
4884.00,1.30
4883.00,1.30
4882.00,1.30
4881.00,1.30
4880.00,1.30
4879.00,1.30
4878.00,1.30
4877.00,1.30
4876.00,1.30
4875.00,1.30
4874.00,1.30
4873.00,1.30
4872.00,1.30
4871.00,1.30
4870.00,1.30
4869.00,1.30
4868.00,1.30
4867.00,1.30
4866.00,1.30
4865.00,1.30
4864.00,1.30
4863.00,1.31
4862.00,1.31
4861.00,1.31
4860.00,1.31
4859.00,1.31
4858.00,1.31
4857.00,1.31
4856.00,1.31
4855.00,1.31
4854.00,1.32
4853.00,1.32
4852.00,1.32
4851.00,1.32
4850.00,1.32
4849.00,1.32
4848.00,1.32
4847.00,1.32
4846.00,1.32
4845.00,1.32
4844.00,1.33
4843.00,1.33
4842.00,1.33
4841.00,1.33
4840.00,1.33
4839.00,1.33
4838.00,1.33
4837.00,1.33
4836.00,1.33
4835.00,1.33
4834.00,1.34
4833.00,1.34
4832.00,1.34
4831.00,1.34
4830.00,1.34
4829.00,1.34
4828.00,1.34
4827.00,1.34
4826.00,1.34
4825.00,1.35
4824.00,1.35
4823.00,1.35
4822.00,1.35
4821.00,1.35
4820.00,1.35
4819.00,1.35
4818.00,1.36
4817.00,1.36
4816.00,1.36
4815.00,1.36
4814.00,1.36
4813.00,1.36
4812.00,1.36
4811.00,1.37
4810.00,1.37
4809.00,1.37
4808.00,1.37
4807.00,1.37
4806.00,1.37
4805.00,1.37
4804.00,1.38
4803.00,1.38
4802.00,1.38
4801.00,1.38
4800.00,1.38
4799.00,1.38
4798.00,1.38
4797.00,1.39
4796.00,1.39
4795.00,1.39
4794.00,1.39
4793.00,1.39
4792.00,1.39
4791.00,1.39
4790.00,1.39
4789.00,1.39
4788.00,1.39
4787.00,1.40
4786.00,1.40
4785.00,1.40
4784.00,1.40
4783.00,1.40
4782.00,1.40
4781.00,1.40
4780.00,1.40
4779.00,1.40
4778.00,1.40
4777.00,1.41
4776.00,1.41
4775.00,1.41
4774.00,1.41
4773.00,1.41
4772.00,1.41
4771.00,1.41
4770.00,1.42
4769.00,1.42
4768.00,1.42
4767.00,1.42
4766.00,1.43
4765.00,1.43
4764.00,1.43
4763.00,1.43
4762.00,1.44
4761.00,1.44
4760.00,1.44
4759.00,1.45
4758.00,1.45
4757.00,1.45
4756.00,1.46
4755.00,1.46
4754.00,1.46
4753.00,1.47
4752.00,1.47
4751.00,1.47
4750.00,1.48
4749.00,1.48
4748.00,1.48
4747.00,1.49
4746.00,1.49
4745.00,1.49
4744.00,1.50
4743.00,1.50
4742.00,1.50
4741.00,1.50
4740.00,1.50
4739.00,1.51
4738.00,1.51
4737.00,1.51
4736.00,1.51
4735.00,1.51
4734.00,1.51
4733.00,1.51
4732.00,1.51
4731.00,1.51
4730.00,1.51
4729.00,1.51
4728.00,1.51
4727.00,1.51
4726.00,1.51
4725.00,1.51
4724.00,1.51
4723.00,1.51
4722.00,1.51
4721.00,1.51
4720.00,1.51
4719.00,1.51
4718.00,1.51
4717.00,1.51
4716.00,1.51
4715.00,1.51
4714.00,1.51
4713.00,1.51
4712.00,1.51
4711.00,1.51
4710.00,1.51
4709.00,1.51
4708.00,1.51
4707.00,1.51
4706.00,1.51
4705.00,1.51
4704.00,1.51
4703.00,1.51
4702.00,1.51
4701.00,1.51
4700.00,1.52
4699.00,1.52
4698.00,1.52
4697.00,1.52
4696.00,1.52
4695.00,1.52
4694.00,1.53
4693.00,1.53
4692.00,1.53
4691.00,1.53
4690.00,1.54
4689.00,1.54
4688.00,1.54
4687.00,1.54
4686.00,1.55
4685.00,1.55
4684.00,1.55
4683.00,1.55
4682.00,1.56
4681.00,1.56
4680.00,1.56
4679.00,1.56
4678.00,1.56
4677.00,1.57
4676.00,1.57
4675.00,1.57
4674.00,1.57
4673.00,1.57
4672.00,1.58
4671.00,1.58
4670.00,1.58
4669.00,1.58
4668.00,1.58
4667.00,1.58
4666.00,1.58
4665.00,1.58
4664.00,1.58
4663.00,1.58
4662.00,1.58
4661.00,1.58
4660.00,1.58
4659.00,1.58
4658.00,1.58
4657.00,1.58
4656.00,1.58
4655.00,1.58
4654.00,1.58
4653.00,1.58
4652.00,1.58
4651.00,1.58
4650.00,1.58
4649.00,1.58
4648.00,1.58
4647.00,1.58
4646.00,1.58
4645.00,1.58
4644.00,1.58
4643.00,1.58
4642.00,1.58
4641.00,1.58
4640.00,1.58
4639.00,1.58
4638.00,1.58
4637.00,1.59
4636.00,1.59
4635.00,1.59
4634.00,1.59
4633.00,1.59
4632.00,1.59
4631.00,1.59
4630.00,1.59
4629.00,1.59
4628.00,1.59
4627.00,1.59
4626.00,1.59
4625.00,1.59
4624.00,1.59
4623.00,1.59
4622.00,1.59
4621.00,1.59
4620.00,1.59
4619.00,1.59
4618.00,1.58
4617.00,1.58
4616.00,1.58
4615.00,1.58
4614.00,1.58
4613.00,1.58
4612.00,1.58
4611.00,1.58
4610.00,1.58
4609.00,1.58
4608.00,1.58
4607.00,1.58
4606.00,1.58
4605.00,1.58
4604.00,1.58
4603.00,1.58
4602.00,1.58
4601.00,1.58
4600.00,1.58
4599.00,1.58
4598.00,1.58
4597.00,1.58
4596.00,1.58
4595.00,1.59
4594.00,1.59
4593.00,1.59
4592.00,1.59
4591.00,1.59
4590.00,1.59
4589.00,1.60
4588.00,1.60
4587.00,1.60
4586.00,1.60
4585.00,1.61
4584.00,1.61
4583.00,1.61
4582.00,1.61
4581.00,1.61
4580.00,1.62
4579.00,1.62
4578.00,1.62
4577.00,1.62
4576.00,1.62
4575.00,1.62
4574.00,1.62
4573.00,1.62
4572.00,1.62
4571.00,1.62
4570.00,1.63
4569.00,1.63
4568.00,1.63
4567.00,1.63
4566.00,1.63
4565.00,1.63
4564.00,1.63
4563.00,1.63
4562.00,1.63
4561.00,1.63
4560.00,1.63
4559.00,1.63
4558.00,1.63
4557.00,1.63
4556.00,1.63
4555.00,1.63
4554.00,1.63
4553.00,1.63
4552.00,1.63
4551.00,1.63
4550.00,1.63
4549.00,1.63
4548.00,1.63
4547.00,1.63
4546.00,1.63
4545.00,1.63
4544.00,1.63
4543.00,1.63
4542.00,1.63
4541.00,1.63
4540.00,1.63
4539.00,1.63
4538.00,1.63
4537.00,1.63
4536.00,1.63
4535.00,1.63
4534.00,1.63
4533.00,1.63
4532.00,1.63
4531.00,1.63
4530.00,1.63
4529.00,1.63
4528.00,1.63
4527.00,1.63
4526.00,1.63
4525.00,1.63
4524.00,1.63
4523.00,1.64
4522.00,1.64
4521.00,1.64
4520.00,1.64
4519.00,1.64
4518.00,1.64
4517.00,1.65
4516.00,1.65
4515.00,1.65
4514.00,1.65
4513.00,1.65
4512.00,1.65
4511.00,1.66
4510.00,1.66
4509.00,1.66
4508.00,1.66
4507.00,1.66
4506.00,1.66
4505.00,1.66
4504.00,1.66
4503.00,1.66
4502.00,1.66
4501.00,1.66
4500.00,1.66
4499.00,1.66
4498.00,1.66
4497.00,1.66
4496.00,1.66
4495.00,1.66
4494.00,1.66
4493.00,1.65
4492.00,1.65
4491.00,1.65
4490.00,1.65
4489.00,1.65
4488.00,1.65
4487.00,1.65
4486.00,1.64
4485.00,1.64
4484.00,1.64
4483.00,1.64
4482.00,1.64
4481.00,1.64
4480.00,1.64
4479.00,1.64
4478.00,1.64
4477.00,1.64
4476.00,1.63
4475.00,1.63
4474.00,1.63
4473.00,1.63
4472.00,1.63
4471.00,1.63
4470.00,1.62
4469.00,1.62
4468.00,1.62
4467.00,1.61
4466.00,1.61
4465.00,1.61
4464.00,1.61
4463.00,1.60
4462.00,1.60
4461.00,1.59
4460.00,1.59
4459.00,1.59
4458.00,1.58
4457.00,1.58
4456.00,1.57
4455.00,1.57
4454.00,1.56
4453.00,1.56
4452.00,1.55
4451.00,1.55
4450.00,1.54
4449.00,1.53
4448.00,1.53
4447.00,1.52
4446.00,1.52
4445.00,1.51
4444.00,1.50
4443.00,1.50
4442.00,1.49
4441.00,1.49
4440.00,1.48
4439.00,1.47
4438.00,1.47
4437.00,1.46
4436.00,1.45
4435.00,1.45
4434.00,1.44
4433.00,1.43
4432.00,1.43
4431.00,1.42
4430.00,1.41
4429.00,1.41
4428.00,1.40
4427.00,1.40
4426.00,1.39
4425.00,1.39
4424.00,1.38
4423.00,1.37
4422.00,1.37
4421.00,1.37
4420.00,1.36
4419.00,1.36
4418.00,1.35
4417.00,1.35
4416.00,1.35
4415.00,1.34
4414.00,1.34
4413.00,1.34
4412.00,1.34
4411.00,1.34
4410.00,1.34
4409.00,1.34
4408.00,1.34
4407.00,1.34
4406.00,1.34
4405.00,1.34
4404.00,1.34
4403.00,1.35
4402.00,1.35
4401.00,1.35
4400.00,1.35
4399.00,1.36
4398.00,1.36
4397.00,1.36
4396.00,1.37
4395.00,1.37
4394.00,1.38
4393.00,1.38
4392.00,1.38
4391.00,1.39
4390.00,1.39
4389.00,1.40
4388.00,1.40
4387.00,1.41
4386.00,1.41
4385.00,1.41
4384.00,1.42
4383.00,1.42
4382.00,1.43
4381.00,1.43
4380.00,1.43
4379.00,1.44
4378.00,1.44
4377.00,1.44
4376.00,1.44
4375.00,1.45
4374.00,1.45
4373.00,1.45
4372.00,1.45
4371.00,1.45
4370.00,1.45
4369.00,1.45
4368.00,1.45
4367.00,1.45
4366.00,1.45
4365.00,1.45
4364.00,1.45
4363.00,1.45
4362.00,1.44
4361.00,1.44
4360.00,1.44
4359.00,1.44
4358.00,1.43
4357.00,1.43
4356.00,1.43
4355.00,1.43
4354.00,1.42
4353.00,1.42
4352.00,1.42
4351.00,1.41
4350.00,1.41
4349.00,1.41
4348.00,1.41
4347.00,1.41
4346.00,1.40
4345.00,1.40
4344.00,1.40
4343.00,1.40
4342.00,1.40
4341.00,1.40
4340.00,1.41
4339.00,1.41
4338.00,1.41
4337.00,1.41
4336.00,1.41
4335.00,1.42
4334.00,1.42
4333.00,1.42
4332.00,1.42
4331.00,1.43
4330.00,1.43
4329.00,1.44
4328.00,1.44
4327.00,1.45
4326.00,1.45
4325.00,1.46
4324.00,1.46
4323.00,1.47
4322.00,1.47
4321.00,1.48
4320.00,1.48
4319.00,1.49
4318.00,1.49
4317.00,1.50
4316.00,1.50
4315.00,1.51
4314.00,1.51
4313.00,1.52
4312.00,1.52
4311.00,1.53
4310.00,1.53
4309.00,1.54
4308.00,1.54
4307.00,1.55
4306.00,1.55
4305.00,1.56
4304.00,1.56
4303.00,1.57
4302.00,1.57
4301.00,1.57
4300.00,1.58
4299.00,1.58
4298.00,1.58
4297.00,1.58
4296.00,1.59
4295.00,1.59
4294.00,1.59
4293.00,1.59
4292.00,1.59
4291.00,1.60
4290.00,1.60
4289.00,1.60
4288.00,1.60
4287.00,1.60
4286.00,1.60
4285.00,1.60
4284.00,1.60
4283.00,1.60
4282.00,1.60
4281.00,1.60
4280.00,1.60
4279.00,1.60
4278.00,1.60
4277.00,1.60
4276.00,1.59
4275.00,1.59
4274.00,1.59
4273.00,1.59
4272.00,1.59
4271.00,1.59
4270.00,1.59
4269.00,1.59
4268.00,1.59
4267.00,1.59
4266.00,1.58
4265.00,1.58
4264.00,1.58
4263.00,1.58
4262.00,1.57
4261.00,1.57
4260.00,1.57
4259.00,1.57
4258.00,1.57
4257.00,1.56
4256.00,1.56
4255.00,1.56
4254.00,1.56
4253.00,1.56
4252.00,1.56
4251.00,1.56
4250.00,1.56
4249.00,1.56
4248.00,1.56
4247.00,1.56
4246.00,1.56
4245.00,1.56
4244.00,1.57
4243.00,1.57
4242.00,1.57
4241.00,1.57
4240.00,1.58
4239.00,1.58
4238.00,1.59
4237.00,1.59
4236.00,1.59
4235.00,1.60
4234.00,1.60
4233.00,1.61
4232.00,1.61
4231.00,1.61
4230.00,1.62
4229.00,1.62
4228.00,1.63
4227.00,1.63
4226.00,1.63
4225.00,1.64
4224.00,1.64
4223.00,1.64
4222.00,1.64
4221.00,1.65
4220.00,1.65
4219.00,1.65
4218.00,1.65
4217.00,1.65
4216.00,1.65
4215.00,1.65
4214.00,1.65
4213.00,1.65
4212.00,1.65
4211.00,1.65
4210.00,1.65
4209.00,1.65
4208.00,1.65
4207.00,1.65
4206.00,1.65
4205.00,1.65
4204.00,1.65
4203.00,1.65
4202.00,1.64
4201.00,1.64
4200.00,1.64
4199.00,1.64
4198.00,1.64
4197.00,1.63
4196.00,1.63
4195.00,1.63
4194.00,1.63
4193.00,1.63
4192.00,1.63
4191.00,1.62
4190.00,1.62
4189.00,1.62
4188.00,1.62
4187.00,1.62
4186.00,1.62
4185.00,1.62
4184.00,1.62
4183.00,1.62
4182.00,1.62
4181.00,1.62
4180.00,1.62
4179.00,1.62
4178.00,1.62
4177.00,1.62
4176.00,1.62
4175.00,1.62
4174.00,1.62
4173.00,1.62
4172.00,1.62
4171.00,1.62
4170.00,1.62
4169.00,1.62
4168.00,1.63
4167.00,1.63
4166.00,1.63
4165.00,1.63
4164.00,1.63
4163.00,1.63
4162.00,1.64
4161.00,1.64
4160.00,1.64
4159.00,1.64
4158.00,1.64
4157.00,1.64
4156.00,1.64
4155.00,1.64
4154.00,1.64
4153.00,1.64
4152.00,1.64
4151.00,1.64
4150.00,1.64
4149.00,1.64
4148.00,1.64
4147.00,1.64
4146.00,1.64
4145.00,1.64
4144.00,1.64
4143.00,1.64
4142.00,1.64
4141.00,1.64
4140.00,1.64
4139.00,1.64
4138.00,1.64
4137.00,1.64
4136.00,1.64
4135.00,1.63
4134.00,1.63
4133.00,1.63
4132.00,1.63
4131.00,1.63
4130.00,1.62
4129.00,1.62
4128.00,1.62
4127.00,1.62
4126.00,1.62
4125.00,1.62
4124.00,1.62
4123.00,1.62
4122.00,1.62
4121.00,1.61
4120.00,1.61
4119.00,1.61
4118.00,1.61
4117.00,1.60
4116.00,1.60
4115.00,1.60
4114.00,1.60
4113.00,1.59
4112.00,1.59
4111.00,1.59
4110.00,1.59
4109.00,1.58
4108.00,1.58
4107.00,1.58
4106.00,1.58
4105.00,1.58
4104.00,1.58
4103.00,1.58
4102.00,1.58
4101.00,1.58
4100.00,1.58
4099.00,1.58
4098.00,1.57
4097.00,1.57
4096.00,1.57
4095.00,1.57
4094.00,1.57
4093.00,1.57
4092.00,1.57
4091.00,1.57
4090.00,1.57
4089.00,1.57
4088.00,1.57
4087.00,1.57
4086.00,1.57
4085.00,1.57
4084.00,1.57
4083.00,1.56
4082.00,1.56
4081.00,1.56
4080.00,1.56
4079.00,1.56
4078.00,1.55
4077.00,1.55
4076.00,1.55
4075.00,1.54
4074.00,1.54
4073.00,1.54
4072.00,1.53
4071.00,1.53
4070.00,1.53
4069.00,1.52
4068.00,1.52
4067.00,1.52
4066.00,1.52
4065.00,1.51
4064.00,1.51
4063.00,1.51
4062.00,1.51
4061.00,1.51
4060.00,1.50
4059.00,1.50
4058.00,1.50
4057.00,1.50
4056.00,1.50
4055.00,1.50
4054.00,1.50
4053.00,1.50
4052.00,1.50
4051.00,1.50
4050.00,1.50
4049.00,1.50
4048.00,1.50
4047.00,1.50
4046.00,1.50
4045.00,1.50
4044.00,1.50
4043.00,1.50
4042.00,1.50
4041.00,1.50
4040.00,1.50
4039.00,1.49
4038.00,1.49
4037.00,1.49
4036.00,1.49
4035.00,1.49
4034.00,1.49
4033.00,1.49
4032.00,1.48
4031.00,1.48
4030.00,1.48
4029.00,1.48
4028.00,1.48
4027.00,1.48
4026.00,1.48
4025.00,1.49
4024.00,1.49
4023.00,1.49
4022.00,1.50
4021.00,1.50
4020.00,1.50
4019.00,1.51
4018.00,1.52
4017.00,1.52
4016.00,1.53
4015.00,1.54
4014.00,1.55
4013.00,1.56
4012.00,1.57
4011.00,1.58
4010.00,1.60
4009.00,1.61
4008.00,1.62
4007.00,1.64
4006.00,1.65
4005.00,1.66
4004.00,1.68
4003.00,1.69
4002.00,1.71
4001.00,1.72
4000.00,1.74
