创建为新数据集,样品 130 用户 Administrator 日期 星期五, 七月 26 2019
cm-1,%T
10000.00,1.88
9999.00,1.87
9998.00,1.86
9997.00,1.85
9996.00,1.84
9995.00,1.83
9994.00,1.82
9993.00,1.81
9992.00,1.80
9991.00,1.79
9990.00,1.78
9989.00,1.77
9988.00,1.76
9987.00,1.76
9986.00,1.75
9985.00,1.74
9984.00,1.74
9983.00,1.74
9982.00,1.73
9981.00,1.73
9980.00,1.73
9979.00,1.74
9978.00,1.74
9977.00,1.74
9976.00,1.75
9975.00,1.75
9974.00,1.76
9973.00,1.77
9972.00,1.77
9971.00,1.78
9970.00,1.79
9969.00,1.80
9968.00,1.81
9967.00,1.81
9966.00,1.82
9965.00,1.83
9964.00,1.84
9963.00,1.85
9962.00,1.86
9961.00,1.87
9960.00,1.88
9959.00,1.89
9958.00,1.90
9957.00,1.90
9956.00,1.91
9955.00,1.91
9954.00,1.91
9953.00,1.91
9952.00,1.90
9951.00,1.90
9950.00,1.89
9949.00,1.89
9948.00,1.88
9947.00,1.88
9946.00,1.87
9945.00,1.86
9944.00,1.85
9943.00,1.85
9942.00,1.84
9941.00,1.83
9940.00,1.82
9939.00,1.81
9938.00,1.80
9937.00,1.80
9936.00,1.79
9935.00,1.78
9934.00,1.77
9933.00,1.77
9932.00,1.76
9931.00,1.76
9930.00,1.75
9929.00,1.75
9928.00,1.75
9927.00,1.75
9926.00,1.74
9925.00,1.74
9924.00,1.74
9923.00,1.74
9922.00,1.74
9921.00,1.74
9920.00,1.73
9919.00,1.73
9918.00,1.73
9917.00,1.72
9916.00,1.72
9915.00,1.72
9914.00,1.71
9913.00,1.71
9912.00,1.70
9911.00,1.70
9910.00,1.69
9909.00,1.68
9908.00,1.68
9907.00,1.67
9906.00,1.66
9905.00,1.65
9904.00,1.64
9903.00,1.63
9902.00,1.62
9901.00,1.61
9900.00,1.61
9899.00,1.60
9898.00,1.59
9897.00,1.59
9896.00,1.59
9895.00,1.58
9894.00,1.58
9893.00,1.58
9892.00,1.59
9891.00,1.59
9890.00,1.59
9889.00,1.59
9888.00,1.60
9887.00,1.60
9886.00,1.61
9885.00,1.61
9884.00,1.62
9883.00,1.62
9882.00,1.63
9881.00,1.64
9880.00,1.65
9879.00,1.65
9878.00,1.66
9877.00,1.67
9876.00,1.67
9875.00,1.68
9874.00,1.68
9873.00,1.68
9872.00,1.69
9871.00,1.68
9870.00,1.68
9869.00,1.68
9868.00,1.67
9867.00,1.67
9866.00,1.66
9865.00,1.66
9864.00,1.65
9863.00,1.64
9862.00,1.63
9861.00,1.62
9860.00,1.61
9859.00,1.60
9858.00,1.59
9857.00,1.58
9856.00,1.57
9855.00,1.56
9854.00,1.55
9853.00,1.54
9852.00,1.53
9851.00,1.52
9850.00,1.51
9849.00,1.50
9848.00,1.49
9847.00,1.48
9846.00,1.48
9845.00,1.47
9844.00,1.47
9843.00,1.47
9842.00,1.47
9841.00,1.48
9840.00,1.48
9839.00,1.48
9838.00,1.49
9837.00,1.49
9836.00,1.49
9835.00,1.50
9834.00,1.50
9833.00,1.51
9832.00,1.51
9831.00,1.52
9830.00,1.52
9829.00,1.53
9828.00,1.54
9827.00,1.55
9826.00,1.55
9825.00,1.56
9824.00,1.57
9823.00,1.58
9822.00,1.59
9821.00,1.60
9820.00,1.61
9819.00,1.62
9818.00,1.63
9817.00,1.64
9816.00,1.64
9815.00,1.65
9814.00,1.66
9813.00,1.66
9812.00,1.67
9811.00,1.68
9810.00,1.68
9809.00,1.69
9808.00,1.69
9807.00,1.70
9806.00,1.71
9805.00,1.71
9804.00,1.72
9803.00,1.72
9802.00,1.73
9801.00,1.73
9800.00,1.74
9799.00,1.74
9798.00,1.74
9797.00,1.75
9796.00,1.75
9795.00,1.75
9794.00,1.74
9793.00,1.74
9792.00,1.74
9791.00,1.74
9790.00,1.73
9789.00,1.73
9788.00,1.72
9787.00,1.72
9786.00,1.72
9785.00,1.71
9784.00,1.71
9783.00,1.70
9782.00,1.70
9781.00,1.70
9780.00,1.69
9779.00,1.69
9778.00,1.69
9777.00,1.69
9776.00,1.70
9775.00,1.70
9774.00,1.70
9773.00,1.70
9772.00,1.71
9771.00,1.71
9770.00,1.72
9769.00,1.73
9768.00,1.73
9767.00,1.74
9766.00,1.75
9765.00,1.76
9764.00,1.77
9763.00,1.78
9762.00,1.79
9761.00,1.80
9760.00,1.81
9759.00,1.82
9758.00,1.84
9757.00,1.85
9756.00,1.86
9755.00,1.87
9754.00,1.87
9753.00,1.88
9752.00,1.88
9751.00,1.89
9750.00,1.89
9749.00,1.89
9748.00,1.89
9747.00,1.89
9746.00,1.89
9745.00,1.88
9744.00,1.88
9743.00,1.88
9742.00,1.87
9741.00,1.87
9740.00,1.86
9739.00,1.86
9738.00,1.85
9737.00,1.85
9736.00,1.84
9735.00,1.83
9734.00,1.83
9733.00,1.82
9732.00,1.81
9731.00,1.80
9730.00,1.80
9729.00,1.79
9728.00,1.78
9727.00,1.78
9726.00,1.77
9725.00,1.77
9724.00,1.77
9723.00,1.77
9722.00,1.77
9721.00,1.77
9720.00,1.77
9719.00,1.77
9718.00,1.77
9717.00,1.77
9716.00,1.77
9715.00,1.77
9714.00,1.77
9713.00,1.77
9712.00,1.77
9711.00,1.77
9710.00,1.77
9709.00,1.77
9708.00,1.77
9707.00,1.77
9706.00,1.77
9705.00,1.77
9704.00,1.77
9703.00,1.77
9702.00,1.77
9701.00,1.77
9700.00,1.76
9699.00,1.76
9698.00,1.76
9697.00,1.76
9696.00,1.75
9695.00,1.75
9694.00,1.75
9693.00,1.74
9692.00,1.74
9691.00,1.74
9690.00,1.73
9689.00,1.73
9688.00,1.73
9687.00,1.73
9686.00,1.73
9685.00,1.72
9684.00,1.72
9683.00,1.72
9682.00,1.72
9681.00,1.72
9680.00,1.72
9679.00,1.72
9678.00,1.72
9677.00,1.72
9676.00,1.72
9675.00,1.72
9674.00,1.72
9673.00,1.72
9672.00,1.71
9671.00,1.71
9670.00,1.71
9669.00,1.71
9668.00,1.71
9667.00,1.71
9666.00,1.71
9665.00,1.71
9664.00,1.71
9663.00,1.71
9662.00,1.71
9661.00,1.71
9660.00,1.71
9659.00,1.71
9658.00,1.71
9657.00,1.71
9656.00,1.71
9655.00,1.71
9654.00,1.71
9653.00,1.71
9652.00,1.72
9651.00,1.72
9650.00,1.72
9649.00,1.73
9648.00,1.73
9647.00,1.73
9646.00,1.74
9645.00,1.74
9644.00,1.75
9643.00,1.75
9642.00,1.75
9641.00,1.76
9640.00,1.76
9639.00,1.76
9638.00,1.76
9637.00,1.77
9636.00,1.77
9635.00,1.77
9634.00,1.77
9633.00,1.77
9632.00,1.77
9631.00,1.76
9630.00,1.76
9629.00,1.76
9628.00,1.75
9627.00,1.75
9626.00,1.74
9625.00,1.73
9624.00,1.73
9623.00,1.72
9622.00,1.72
9621.00,1.71
9620.00,1.70
9619.00,1.70
9618.00,1.69
9617.00,1.69
9616.00,1.68
9615.00,1.68
9614.00,1.67
9613.00,1.67
9612.00,1.67
9611.00,1.66
9610.00,1.66
9609.00,1.66
9608.00,1.66
9607.00,1.66
9606.00,1.66
9605.00,1.66
9604.00,1.66
9603.00,1.66
9602.00,1.67
9601.00,1.67
9600.00,1.67
9599.00,1.68
9598.00,1.68
9597.00,1.69
9596.00,1.69
9595.00,1.70
9594.00,1.70
9593.00,1.71
9592.00,1.71
9591.00,1.72
9590.00,1.72
9589.00,1.72
9588.00,1.73
9587.00,1.73
9586.00,1.73
9585.00,1.74
9584.00,1.74
9583.00,1.74
9582.00,1.74
9581.00,1.74
9580.00,1.75
9579.00,1.75
9578.00,1.75
9577.00,1.75
9576.00,1.75
9575.00,1.75
9574.00,1.75
9573.00,1.75
9572.00,1.75
9571.00,1.75
9570.00,1.75
9569.00,1.75
9568.00,1.75
9567.00,1.74
9566.00,1.74
9565.00,1.74
9564.00,1.74
9563.00,1.74
9562.00,1.73
9561.00,1.73
9560.00,1.73
9559.00,1.73
9558.00,1.73
9557.00,1.73
9556.00,1.72
9555.00,1.72
9554.00,1.72
9553.00,1.71
9552.00,1.71
9551.00,1.71
9550.00,1.70
9549.00,1.70
9548.00,1.70
9547.00,1.69
9546.00,1.69
9545.00,1.69
9544.00,1.68
9543.00,1.68
9542.00,1.67
9541.00,1.67
9540.00,1.66
9539.00,1.66
9538.00,1.65
9537.00,1.65
9536.00,1.64
9535.00,1.64
9534.00,1.63
9533.00,1.63
9532.00,1.63
9531.00,1.62
9530.00,1.62
9529.00,1.61
9528.00,1.61
9527.00,1.61
9526.00,1.60
9525.00,1.60
9524.00,1.59
9523.00,1.59
9522.00,1.59
9521.00,1.58
9520.00,1.58
9519.00,1.58
9518.00,1.57
9517.00,1.57
9516.00,1.57
9515.00,1.57
9514.00,1.57
9513.00,1.57
9512.00,1.57
9511.00,1.57
9510.00,1.57
9509.00,1.57
9508.00,1.57
9507.00,1.57
9506.00,1.57
9505.00,1.57
9504.00,1.58
9503.00,1.58
9502.00,1.58
9501.00,1.58
9500.00,1.59
9499.00,1.59
9498.00,1.59
9497.00,1.60
9496.00,1.60
9495.00,1.61
9494.00,1.61
9493.00,1.62
9492.00,1.62
9491.00,1.63
9490.00,1.63
9489.00,1.63
9488.00,1.64
9487.00,1.64
9486.00,1.64
9485.00,1.64
9484.00,1.65
9483.00,1.65
9482.00,1.65
9481.00,1.65
9480.00,1.66
9479.00,1.66
9478.00,1.66
9477.00,1.66
9476.00,1.66
9475.00,1.66
9474.00,1.66
9473.00,1.66
9472.00,1.66
9471.00,1.65
9470.00,1.65
9469.00,1.65
9468.00,1.64
9467.00,1.63
9466.00,1.63
9465.00,1.62
9464.00,1.61
9463.00,1.61
9462.00,1.60
9461.00,1.60
9460.00,1.59
9459.00,1.59
9458.00,1.58
9457.00,1.58
9456.00,1.58
9455.00,1.58
9454.00,1.57
9453.00,1.57
9452.00,1.57
9451.00,1.57
9450.00,1.57
9449.00,1.57
9448.00,1.57
9447.00,1.57
9446.00,1.57
9445.00,1.57
9444.00,1.57
9443.00,1.57
9442.00,1.58
9441.00,1.58
9440.00,1.59
9439.00,1.60
9438.00,1.60
9437.00,1.61
9436.00,1.62
9435.00,1.63
9434.00,1.64
9433.00,1.64
9432.00,1.65
9431.00,1.65
9430.00,1.66
9429.00,1.66
9428.00,1.67
9427.00,1.67
9426.00,1.68
9425.00,1.68
9424.00,1.69
9423.00,1.69
9422.00,1.70
9421.00,1.70
9420.00,1.71
9419.00,1.71
9418.00,1.72
9417.00,1.72
9416.00,1.72
9415.00,1.73
9414.00,1.73
9413.00,1.73
9412.00,1.73
9411.00,1.73
9410.00,1.73
9409.00,1.73
9408.00,1.73
9407.00,1.73
9406.00,1.73
9405.00,1.73
9404.00,1.73
9403.00,1.73
9402.00,1.72
9401.00,1.72
9400.00,1.72
9399.00,1.72
9398.00,1.71
9397.00,1.71
9396.00,1.71
9395.00,1.70
9394.00,1.70
9393.00,1.70
9392.00,1.70
9391.00,1.69
9390.00,1.69
9389.00,1.69
9388.00,1.68
9387.00,1.68
9386.00,1.68
9385.00,1.67
9384.00,1.67
9383.00,1.67
9382.00,1.66
9381.00,1.66
9380.00,1.66
9379.00,1.65
9378.00,1.65
9377.00,1.64
9376.00,1.64
9375.00,1.64
9374.00,1.64
9373.00,1.63
9372.00,1.63
9371.00,1.63
9370.00,1.62
9369.00,1.62
9368.00,1.62
9367.00,1.61
9366.00,1.61
9365.00,1.60
9364.00,1.60
9363.00,1.59
9362.00,1.59
9361.00,1.58
9360.00,1.58
9359.00,1.57
9358.00,1.57
9357.00,1.56
9356.00,1.56
9355.00,1.55
9354.00,1.55
9353.00,1.54
9352.00,1.54
9351.00,1.54
9350.00,1.53
9349.00,1.53
9348.00,1.53
9347.00,1.52
9346.00,1.52
9345.00,1.52
9344.00,1.52
9343.00,1.51
9342.00,1.51
9341.00,1.51
9340.00,1.51
9339.00,1.51
9338.00,1.51
9337.00,1.51
9336.00,1.51
9335.00,1.51
9334.00,1.52
9333.00,1.52
9332.00,1.52
9331.00,1.53
9330.00,1.54
9329.00,1.54
9328.00,1.55
9327.00,1.56
9326.00,1.57
9325.00,1.58
9324.00,1.59
9323.00,1.60
9322.00,1.61
9321.00,1.61
9320.00,1.62
9319.00,1.63
9318.00,1.64
9317.00,1.65
9316.00,1.66
9315.00,1.67
9314.00,1.68
9313.00,1.69
9312.00,1.70
9311.00,1.71
9310.00,1.72
9309.00,1.72
9308.00,1.73
9307.00,1.74
9306.00,1.74
9305.00,1.74
9304.00,1.75
9303.00,1.75
9302.00,1.75
9301.00,1.75
9300.00,1.75
9299.00,1.74
9298.00,1.74
9297.00,1.74
9296.00,1.74
9295.00,1.73
9294.00,1.73
9293.00,1.72
9292.00,1.72
9291.00,1.72
9290.00,1.71
9289.00,1.71
9288.00,1.70
9287.00,1.70
9286.00,1.69
9285.00,1.69
9284.00,1.68
9283.00,1.68
9282.00,1.67
9281.00,1.67
9280.00,1.67
9279.00,1.66
9278.00,1.66
9277.00,1.66
9276.00,1.65
9275.00,1.65
9274.00,1.65
9273.00,1.65
9272.00,1.65
9271.00,1.65
9270.00,1.64
9269.00,1.64
9268.00,1.64
9267.00,1.64
9266.00,1.64
9265.00,1.64
9264.00,1.63
9263.00,1.63
9262.00,1.63
9261.00,1.63
9260.00,1.63
9259.00,1.62
9258.00,1.62
9257.00,1.62
9256.00,1.62
9255.00,1.62
9254.00,1.61
9253.00,1.61
9252.00,1.61
9251.00,1.61
9250.00,1.60
9249.00,1.60
9248.00,1.60
9247.00,1.59
9246.00,1.59
9245.00,1.59
9244.00,1.58
9243.00,1.58
9242.00,1.58
9241.00,1.58
9240.00,1.58
9239.00,1.58
9238.00,1.58
9237.00,1.58
9236.00,1.58
9235.00,1.58
9234.00,1.58
9233.00,1.58
9232.00,1.58
9231.00,1.58
9230.00,1.58
9229.00,1.58
9228.00,1.58
9227.00,1.59
9226.00,1.59
9225.00,1.60
9224.00,1.60
9223.00,1.61
9222.00,1.61
9221.00,1.62
9220.00,1.63
9219.00,1.63
9218.00,1.64
9217.00,1.65
9216.00,1.66
9215.00,1.66
9214.00,1.67
9213.00,1.67
9212.00,1.68
9211.00,1.68
9210.00,1.69
9209.00,1.69
9208.00,1.70
9207.00,1.70
9206.00,1.70
9205.00,1.71
9204.00,1.71
9203.00,1.71
9202.00,1.72
9201.00,1.72
9200.00,1.72
9199.00,1.72
9198.00,1.72
9197.00,1.72
9196.00,1.72
9195.00,1.72
9194.00,1.71
9193.00,1.71
9192.00,1.71
9191.00,1.71
9190.00,1.70
9189.00,1.70
9188.00,1.70
9187.00,1.70
9186.00,1.70
9185.00,1.70
9184.00,1.70
9183.00,1.70
9182.00,1.70
9181.00,1.70
9180.00,1.70
9179.00,1.70
9178.00,1.70
9177.00,1.70
9176.00,1.70
9175.00,1.70
9174.00,1.70
9173.00,1.69
9172.00,1.69
9171.00,1.69
9170.00,1.69
9169.00,1.69
9168.00,1.68
9167.00,1.68
9166.00,1.68
9165.00,1.68
9164.00,1.67
9163.00,1.67
9162.00,1.67
9161.00,1.67
9160.00,1.66
9159.00,1.66
9158.00,1.66
9157.00,1.65
9156.00,1.65
9155.00,1.65
9154.00,1.64
9153.00,1.64
9152.00,1.64
9151.00,1.63
9150.00,1.63
9149.00,1.63
9148.00,1.63
9147.00,1.63
9146.00,1.63
9145.00,1.63
9144.00,1.64
9143.00,1.64
9142.00,1.64
9141.00,1.65
9140.00,1.65
9139.00,1.66
9138.00,1.66
9137.00,1.67
9136.00,1.67
9135.00,1.67
9134.00,1.67
9133.00,1.68
9132.00,1.68
9131.00,1.68
9130.00,1.68
9129.00,1.69
9128.00,1.69
9127.00,1.69
9126.00,1.69
9125.00,1.70
9124.00,1.70
9123.00,1.70
9122.00,1.70
9121.00,1.70
9120.00,1.70
9119.00,1.70
9118.00,1.70
9117.00,1.70
9116.00,1.70
9115.00,1.69
9114.00,1.69
9113.00,1.69
9112.00,1.68
9111.00,1.68
9110.00,1.68
9109.00,1.68
9108.00,1.68
9107.00,1.68
9106.00,1.67
9105.00,1.67
9104.00,1.67
9103.00,1.67
9102.00,1.67
9101.00,1.67
9100.00,1.67
9099.00,1.67
9098.00,1.67
9097.00,1.66
9096.00,1.66
9095.00,1.66
9094.00,1.66
9093.00,1.66
9092.00,1.66
9091.00,1.66
9090.00,1.66
9089.00,1.66
9088.00,1.66
9087.00,1.66
9086.00,1.66
9085.00,1.66
9084.00,1.66
9083.00,1.66
9082.00,1.66
9081.00,1.66
9080.00,1.66
9079.00,1.67
9078.00,1.67
9077.00,1.67
9076.00,1.67
9075.00,1.67
9074.00,1.67
9073.00,1.68
9072.00,1.68
9071.00,1.68
9070.00,1.68
9069.00,1.68
9068.00,1.68
9067.00,1.69
9066.00,1.69
9065.00,1.69
9064.00,1.70
9063.00,1.70
9062.00,1.70
9061.00,1.70
9060.00,1.71
9059.00,1.71
9058.00,1.71
9057.00,1.71
9056.00,1.71
9055.00,1.71
9054.00,1.71
9053.00,1.71
9052.00,1.71
9051.00,1.71
9050.00,1.70
9049.00,1.70
9048.00,1.70
9047.00,1.69
9046.00,1.69
9045.00,1.69
9044.00,1.69
9043.00,1.69
9042.00,1.68
9041.00,1.68
9040.00,1.68
9039.00,1.68
9038.00,1.68
9037.00,1.68
9036.00,1.68
9035.00,1.67
9034.00,1.67
9033.00,1.67
9032.00,1.67
9031.00,1.67
9030.00,1.67
9029.00,1.67
9028.00,1.67
9027.00,1.67
9026.00,1.68
9025.00,1.68
9024.00,1.68
9023.00,1.68
9022.00,1.69
9021.00,1.69
9020.00,1.69
9019.00,1.69
9018.00,1.70
9017.00,1.70
9016.00,1.70
9015.00,1.70
9014.00,1.70
9013.00,1.70
9012.00,1.70
9011.00,1.70
9010.00,1.70
9009.00,1.71
9008.00,1.71
9007.00,1.71
9006.00,1.71
9005.00,1.71
9004.00,1.71
9003.00,1.71
9002.00,1.72
9001.00,1.72
9000.00,1.72
8999.00,1.73
8998.00,1.73
8997.00,1.74
8996.00,1.74
8995.00,1.74
8994.00,1.74
8993.00,1.75
8992.00,1.75
8991.00,1.75
8990.00,1.75
8989.00,1.76
8988.00,1.76
8987.00,1.76
8986.00,1.76
8985.00,1.76
8984.00,1.76
8983.00,1.76
8982.00,1.76
8981.00,1.76
8980.00,1.76
8979.00,1.76
8978.00,1.75
8977.00,1.75
8976.00,1.74
8975.00,1.74
8974.00,1.73
8973.00,1.72
8972.00,1.71
8971.00,1.70
8970.00,1.69
8969.00,1.69
8968.00,1.68
8967.00,1.67
8966.00,1.66
8965.00,1.65
8964.00,1.64
8963.00,1.63
8962.00,1.63
8961.00,1.62
8960.00,1.61
8959.00,1.60
8958.00,1.60
8957.00,1.59
8956.00,1.59
8955.00,1.59
8954.00,1.58
8953.00,1.58
8952.00,1.58
8951.00,1.58
8950.00,1.58
8949.00,1.59
8948.00,1.59
8947.00,1.59
8946.00,1.60
8945.00,1.60
8944.00,1.60
8943.00,1.61
8942.00,1.61
8941.00,1.62
8940.00,1.62
8939.00,1.63
8938.00,1.64
8937.00,1.64
8936.00,1.65
8935.00,1.66
8934.00,1.66
8933.00,1.67
8932.00,1.68
8931.00,1.69
8930.00,1.69
8929.00,1.70
8928.00,1.71
8927.00,1.71
8926.00,1.72
8925.00,1.72
8924.00,1.73
8923.00,1.74
8922.00,1.74
8921.00,1.75
8920.00,1.75
8919.00,1.76
8918.00,1.76
8917.00,1.77
8916.00,1.77
8915.00,1.78
8914.00,1.78
8913.00,1.79
8912.00,1.79
8911.00,1.79
8910.00,1.79
8909.00,1.80
8908.00,1.80
8907.00,1.80
8906.00,1.80
8905.00,1.80
8904.00,1.80
8903.00,1.79
8902.00,1.79
8901.00,1.79
8900.00,1.79
8899.00,1.78
8898.00,1.78
8897.00,1.77
8896.00,1.77
8895.00,1.76
8894.00,1.75
8893.00,1.75
8892.00,1.74
8891.00,1.73
8890.00,1.72
8889.00,1.72
8888.00,1.71
8887.00,1.70
8886.00,1.69
8885.00,1.69
8884.00,1.68
8883.00,1.67
8882.00,1.67
8881.00,1.66
8880.00,1.66
8879.00,1.65
8878.00,1.65
8877.00,1.65
8876.00,1.65
8875.00,1.64
8874.00,1.64
8873.00,1.64
8872.00,1.64
8871.00,1.64
8870.00,1.64
8869.00,1.64
8868.00,1.65
8867.00,1.65
8866.00,1.65
8865.00,1.66
8864.00,1.66
8863.00,1.66
8862.00,1.67
8861.00,1.67
8860.00,1.68
8859.00,1.69
8858.00,1.69
8857.00,1.70
8856.00,1.70
8855.00,1.71
8854.00,1.71
8853.00,1.72
8852.00,1.72
8851.00,1.73
8850.00,1.73
8849.00,1.73
8848.00,1.74
8847.00,1.74
8846.00,1.75
8845.00,1.75
8844.00,1.75
8843.00,1.75
8842.00,1.75
8841.00,1.76
8840.00,1.76
8839.00,1.75
8838.00,1.75
8837.00,1.75
8836.00,1.75
8835.00,1.74
8834.00,1.74
8833.00,1.73
8832.00,1.73
8831.00,1.72
8830.00,1.71
8829.00,1.71
8828.00,1.70
8827.00,1.69
8826.00,1.68
8825.00,1.68
8824.00,1.67
8823.00,1.66
8822.00,1.65
8821.00,1.65
8820.00,1.64
8819.00,1.63
8818.00,1.63
8817.00,1.62
8816.00,1.62
8815.00,1.61
8814.00,1.61
8813.00,1.60
8812.00,1.60
8811.00,1.60
8810.00,1.59
8809.00,1.59
8808.00,1.59
8807.00,1.60
8806.00,1.60
8805.00,1.60
8804.00,1.60
8803.00,1.61
8802.00,1.61
8801.00,1.61
8800.00,1.62
8799.00,1.62
8798.00,1.63
8797.00,1.63
8796.00,1.63
8795.00,1.64
8794.00,1.64
8793.00,1.65
8792.00,1.65
8791.00,1.65
8790.00,1.65
8789.00,1.66
8788.00,1.66
8787.00,1.66
8786.00,1.66
8785.00,1.66
8784.00,1.67
8783.00,1.67
8782.00,1.66
8781.00,1.66
8780.00,1.66
8779.00,1.66
8778.00,1.66
8777.00,1.66
8776.00,1.65
8775.00,1.65
8774.00,1.65
8773.00,1.64
8772.00,1.64
8771.00,1.64
8770.00,1.63
8769.00,1.63
8768.00,1.63
8767.00,1.62
8766.00,1.62
8765.00,1.62
8764.00,1.61
8763.00,1.61
8762.00,1.61
8761.00,1.60
8760.00,1.60
8759.00,1.60
8758.00,1.60
8757.00,1.59
8756.00,1.59
8755.00,1.59
8754.00,1.59
8753.00,1.59
8752.00,1.58
8751.00,1.58
8750.00,1.58
8749.00,1.58
8748.00,1.58
8747.00,1.58
8746.00,1.58
8745.00,1.58
8744.00,1.59
8743.00,1.59
8742.00,1.59
8741.00,1.59
8740.00,1.59
8739.00,1.59
8738.00,1.60
8737.00,1.60
8736.00,1.60
8735.00,1.60
8734.00,1.60
8733.00,1.60
8732.00,1.60
8731.00,1.60
8730.00,1.60
8729.00,1.61
8728.00,1.61
8727.00,1.61
8726.00,1.61
8725.00,1.61
8724.00,1.61
8723.00,1.61
8722.00,1.61
8721.00,1.61
8720.00,1.61
8719.00,1.61
8718.00,1.61
8717.00,1.61
8716.00,1.61
8715.00,1.61
8714.00,1.61
8713.00,1.61
8712.00,1.61
8711.00,1.61
8710.00,1.61
8709.00,1.61
8708.00,1.61
8707.00,1.61
8706.00,1.61
8705.00,1.61
8704.00,1.62
8703.00,1.62
8702.00,1.62
8701.00,1.62
8700.00,1.62
8699.00,1.62
8698.00,1.63
8697.00,1.63
8696.00,1.63
8695.00,1.63
8694.00,1.64
8693.00,1.64
8692.00,1.64
8691.00,1.65
8690.00,1.65
8689.00,1.66
8688.00,1.66
8687.00,1.66
8686.00,1.67
8685.00,1.67
8684.00,1.68
8683.00,1.68
8682.00,1.69
8681.00,1.69
8680.00,1.69
8679.00,1.70
8678.00,1.70
8677.00,1.71
8676.00,1.71
8675.00,1.72
8674.00,1.72
8673.00,1.72
8672.00,1.73
8671.00,1.73
8670.00,1.73
8669.00,1.73
8668.00,1.73
8667.00,1.73
8666.00,1.73
8665.00,1.73
8664.00,1.73
8663.00,1.73
8662.00,1.73
8661.00,1.73
8660.00,1.72
8659.00,1.72
8658.00,1.72
8657.00,1.71
8656.00,1.71
8655.00,1.70
8654.00,1.70
8653.00,1.70
8652.00,1.69
8651.00,1.69
8650.00,1.68
8649.00,1.68
8648.00,1.67
8647.00,1.67
8646.00,1.66
8645.00,1.66
8644.00,1.66
8643.00,1.65
8642.00,1.65
8641.00,1.65
8640.00,1.65
8639.00,1.65
8638.00,1.64
8637.00,1.64
8636.00,1.64
8635.00,1.64
8634.00,1.64
8633.00,1.65
8632.00,1.65
8631.00,1.65
8630.00,1.65
8629.00,1.65
8628.00,1.66
8627.00,1.66
8626.00,1.66
8625.00,1.66
8624.00,1.66
8623.00,1.67
8622.00,1.67
8621.00,1.67
8620.00,1.67
8619.00,1.67
8618.00,1.67
8617.00,1.67
8616.00,1.67
8615.00,1.67
8614.00,1.67
8613.00,1.67
8612.00,1.67
8611.00,1.67
8610.00,1.67
8609.00,1.67
8608.00,1.67
8607.00,1.67
8606.00,1.67
8605.00,1.66
8604.00,1.66
8603.00,1.66
8602.00,1.66
8601.00,1.65
8600.00,1.65
8599.00,1.65
8598.00,1.65
8597.00,1.65
8596.00,1.65
8595.00,1.65
8594.00,1.65
8593.00,1.65
8592.00,1.65
8591.00,1.65
8590.00,1.64
8589.00,1.64
8588.00,1.64
8587.00,1.64
8586.00,1.64
8585.00,1.64
8584.00,1.64
8583.00,1.64
8582.00,1.64
8581.00,1.64
8580.00,1.64
8579.00,1.65
8578.00,1.65
8577.00,1.65
8576.00,1.65
8575.00,1.65
8574.00,1.65
8573.00,1.65
8572.00,1.65
8571.00,1.65
8570.00,1.65
8569.00,1.65
8568.00,1.65
8567.00,1.65
8566.00,1.65
8565.00,1.65
8564.00,1.64
8563.00,1.64
8562.00,1.64
8561.00,1.64
8560.00,1.64
8559.00,1.64
8558.00,1.64
8557.00,1.63
8556.00,1.63
8555.00,1.63
8554.00,1.62
8553.00,1.62
8552.00,1.62
8551.00,1.61
8550.00,1.61
8549.00,1.61
8548.00,1.61
8547.00,1.61
8546.00,1.61
8545.00,1.60
8544.00,1.60
8543.00,1.60
8542.00,1.60
8541.00,1.60
8540.00,1.59
8539.00,1.59
8538.00,1.59
8537.00,1.59
8536.00,1.58
8535.00,1.58
8534.00,1.58
8533.00,1.58
8532.00,1.58
8531.00,1.58
8530.00,1.58
8529.00,1.59
8528.00,1.59
8527.00,1.59
8526.00,1.59
8525.00,1.59
8524.00,1.60
8523.00,1.60
8522.00,1.60
8521.00,1.60
8520.00,1.60
8519.00,1.61
8518.00,1.61
8517.00,1.61
8516.00,1.61
8515.00,1.62
8514.00,1.62
8513.00,1.62
8512.00,1.63
8511.00,1.63
8510.00,1.63
8509.00,1.64
8508.00,1.64
8507.00,1.64
8506.00,1.64
8505.00,1.65
8504.00,1.65
8503.00,1.65
8502.00,1.66
8501.00,1.66
8500.00,1.66
8499.00,1.67
8498.00,1.67
8497.00,1.68
8496.00,1.68
8495.00,1.68
8494.00,1.69
8493.00,1.69
8492.00,1.69
8491.00,1.70
8490.00,1.70
8489.00,1.70
8488.00,1.71
8487.00,1.71
8486.00,1.72
8485.00,1.72
8484.00,1.72
8483.00,1.73
8482.00,1.73
8481.00,1.73
8480.00,1.74
8479.00,1.74
8478.00,1.74
8477.00,1.75
8476.00,1.75
8475.00,1.75
8474.00,1.75
8473.00,1.75
8472.00,1.75
8471.00,1.75
8470.00,1.75
8469.00,1.75
8468.00,1.75
8467.00,1.75
8466.00,1.75
8465.00,1.74
8464.00,1.74
8463.00,1.74
8462.00,1.74
8461.00,1.74
8460.00,1.73
8459.00,1.73
8458.00,1.73
8457.00,1.73
8456.00,1.72
8455.00,1.72
8454.00,1.72
8453.00,1.72
8452.00,1.71
8451.00,1.71
8450.00,1.71
8449.00,1.71
8448.00,1.70
8447.00,1.70
8446.00,1.70
8445.00,1.69
8444.00,1.69
8443.00,1.69
8442.00,1.68
8441.00,1.68
8440.00,1.68
8439.00,1.68
8438.00,1.68
8437.00,1.68
8436.00,1.67
8435.00,1.67
8434.00,1.67
8433.00,1.67
8432.00,1.67
8431.00,1.67
8430.00,1.66
8429.00,1.66
8428.00,1.66
8427.00,1.66
8426.00,1.65
8425.00,1.65
8424.00,1.65
8423.00,1.65
8422.00,1.64
8421.00,1.64
8420.00,1.64
8419.00,1.64
8418.00,1.64
8417.00,1.64
8416.00,1.64
8415.00,1.64
8414.00,1.64
8413.00,1.64
8412.00,1.64
8411.00,1.64
8410.00,1.64
8409.00,1.64
8408.00,1.64
8407.00,1.64
8406.00,1.64
8405.00,1.64
8404.00,1.64
8403.00,1.64
8402.00,1.64
8401.00,1.65
8400.00,1.65
8399.00,1.66
8398.00,1.66
8397.00,1.66
8396.00,1.67
8395.00,1.67
8394.00,1.68
8393.00,1.68
8392.00,1.68
8391.00,1.69
8390.00,1.69
8389.00,1.69
8388.00,1.69
8387.00,1.69
8386.00,1.70
8385.00,1.70
8384.00,1.70
8383.00,1.70
8382.00,1.70
8381.00,1.70
8380.00,1.70
8379.00,1.70
8378.00,1.70
8377.00,1.70
8376.00,1.70
8375.00,1.69
8374.00,1.69
8373.00,1.69
8372.00,1.68
8371.00,1.68
8370.00,1.68
8369.00,1.67
8368.00,1.67
8367.00,1.66
8366.00,1.66
8365.00,1.66
8364.00,1.65
8363.00,1.65
8362.00,1.65
8361.00,1.65
8360.00,1.64
8359.00,1.64
8358.00,1.64
8357.00,1.64
8356.00,1.64
8355.00,1.64
8354.00,1.64
8353.00,1.63
8352.00,1.63
8351.00,1.63
8350.00,1.63
8349.00,1.63
8348.00,1.63
8347.00,1.63
8346.00,1.63
8345.00,1.64
8344.00,1.64
8343.00,1.64
8342.00,1.64
8341.00,1.64
8340.00,1.63
8339.00,1.63
8338.00,1.63
8337.00,1.63
8336.00,1.63
8335.00,1.63
8334.00,1.63
8333.00,1.63
8332.00,1.63
8331.00,1.63
8330.00,1.63
8329.00,1.63
8328.00,1.63
8327.00,1.63
8326.00,1.63
8325.00,1.63
8324.00,1.63
8323.00,1.63
8322.00,1.63
8321.00,1.63
8320.00,1.63
8319.00,1.63
8318.00,1.63
8317.00,1.64
8316.00,1.64
8315.00,1.64
8314.00,1.64
8313.00,1.64
8312.00,1.65
8311.00,1.65
8310.00,1.65
8309.00,1.65
8308.00,1.65
8307.00,1.65
8306.00,1.65
8305.00,1.66
8304.00,1.66
8303.00,1.66
8302.00,1.66
8301.00,1.66
8300.00,1.66
8299.00,1.66
8298.00,1.66
8297.00,1.65
8296.00,1.65
8295.00,1.65
8294.00,1.65
8293.00,1.65
8292.00,1.65
8291.00,1.65
8290.00,1.64
8289.00,1.64
8288.00,1.64
8287.00,1.64
8286.00,1.64
8285.00,1.64
8284.00,1.64
8283.00,1.64
8282.00,1.64
8281.00,1.64
8280.00,1.64
8279.00,1.65
8278.00,1.65
8277.00,1.65
8276.00,1.65
8275.00,1.65
8274.00,1.65
8273.00,1.66
8272.00,1.66
8271.00,1.66
8270.00,1.66
8269.00,1.66
8268.00,1.67
8267.00,1.67
8266.00,1.67
8265.00,1.67
8264.00,1.67
8263.00,1.68
8262.00,1.68
8261.00,1.68
8260.00,1.68
8259.00,1.68
8258.00,1.68
8257.00,1.67
8256.00,1.67
8255.00,1.67
8254.00,1.67
8253.00,1.67
8252.00,1.67
8251.00,1.67
8250.00,1.67
8249.00,1.67
8248.00,1.66
8247.00,1.66
8246.00,1.66
8245.00,1.66
8244.00,1.66
8243.00,1.66
8242.00,1.66
8241.00,1.66
8240.00,1.66
8239.00,1.66
8238.00,1.66
8237.00,1.66
8236.00,1.66
8235.00,1.66
8234.00,1.66
8233.00,1.66
8232.00,1.66
8231.00,1.66
8230.00,1.67
8229.00,1.67
8228.00,1.67
8227.00,1.67
8226.00,1.67
8225.00,1.67
8224.00,1.67
8223.00,1.67
8222.00,1.67
8221.00,1.67
8220.00,1.68
8219.00,1.68
8218.00,1.68
8217.00,1.68
8216.00,1.68
8215.00,1.68
8214.00,1.68
8213.00,1.68
8212.00,1.68
8211.00,1.68
8210.00,1.68
8209.00,1.69
8208.00,1.69
8207.00,1.69
8206.00,1.69
8205.00,1.69
8204.00,1.69
8203.00,1.69
8202.00,1.69
8201.00,1.69
8200.00,1.68
8199.00,1.68
8198.00,1.68
8197.00,1.68
8196.00,1.68
8195.00,1.68
8194.00,1.68
8193.00,1.68
8192.00,1.68
8191.00,1.68
8190.00,1.68
8189.00,1.68
8188.00,1.68
8187.00,1.68
8186.00,1.68
8185.00,1.68
8184.00,1.68
8183.00,1.68
8182.00,1.68
8181.00,1.67
8180.00,1.67
8179.00,1.67
8178.00,1.67
8177.00,1.67
8176.00,1.67
8175.00,1.67
8174.00,1.67
8173.00,1.67
8172.00,1.67
8171.00,1.67
8170.00,1.67
8169.00,1.66
8168.00,1.66
8167.00,1.66
8166.00,1.66
8165.00,1.66
8164.00,1.66
8163.00,1.66
8162.00,1.66
8161.00,1.66
8160.00,1.65
8159.00,1.65
8158.00,1.65
8157.00,1.65
8156.00,1.65
8155.00,1.65
8154.00,1.65
8153.00,1.64
8152.00,1.64
8151.00,1.64
8150.00,1.64
8149.00,1.64
8148.00,1.65
8147.00,1.65
8146.00,1.65
8145.00,1.65
8144.00,1.65
8143.00,1.65
8142.00,1.65
8141.00,1.66
8140.00,1.66
8139.00,1.66
8138.00,1.66
8137.00,1.67
8136.00,1.67
8135.00,1.67
8134.00,1.68
8133.00,1.68
8132.00,1.68
8131.00,1.69
8130.00,1.69
8129.00,1.69
8128.00,1.70
8127.00,1.70
8126.00,1.70
8125.00,1.70
8124.00,1.71
8123.00,1.71
8122.00,1.71
8121.00,1.71
8120.00,1.71
8119.00,1.71
8118.00,1.72
8117.00,1.72
8116.00,1.72
8115.00,1.72
8114.00,1.72
8113.00,1.72
8112.00,1.72
8111.00,1.72
8110.00,1.72
8109.00,1.72
8108.00,1.72
8107.00,1.72
8106.00,1.72
8105.00,1.72
8104.00,1.72
8103.00,1.72
8102.00,1.72
8101.00,1.71
8100.00,1.71
8099.00,1.71
8098.00,1.71
8097.00,1.71
8096.00,1.71
8095.00,1.71
8094.00,1.70
8093.00,1.70
8092.00,1.70
8091.00,1.70
8090.00,1.70
8089.00,1.70
8088.00,1.69
8087.00,1.69
8086.00,1.69
8085.00,1.69
8084.00,1.69
8083.00,1.69
8082.00,1.69
8081.00,1.69
8080.00,1.69
8079.00,1.69
8078.00,1.69
8077.00,1.69
8076.00,1.69
8075.00,1.69
8074.00,1.69
8073.00,1.69
8072.00,1.69
8071.00,1.70
8070.00,1.70
8069.00,1.70
8068.00,1.70
8067.00,1.70
8066.00,1.70
8065.00,1.71
8064.00,1.71
8063.00,1.71
8062.00,1.71
8061.00,1.72
8060.00,1.72
8059.00,1.72
8058.00,1.72
8057.00,1.73
8056.00,1.73
8055.00,1.73
8054.00,1.74
8053.00,1.74
8052.00,1.75
8051.00,1.75
8050.00,1.75
8049.00,1.76
8048.00,1.76
8047.00,1.76
8046.00,1.77
8045.00,1.77
8044.00,1.77
8043.00,1.78
8042.00,1.78
8041.00,1.78
8040.00,1.79
8039.00,1.79
8038.00,1.79
8037.00,1.79
8036.00,1.80
8035.00,1.80
8034.00,1.80
8033.00,1.80
8032.00,1.80
8031.00,1.80
8030.00,1.79
8029.00,1.79
8028.00,1.79
8027.00,1.79
8026.00,1.79
8025.00,1.79
8024.00,1.78
8023.00,1.78
8022.00,1.78
8021.00,1.77
8020.00,1.77
8019.00,1.77
8018.00,1.76
8017.00,1.76
8016.00,1.75
8015.00,1.75
8014.00,1.74
8013.00,1.74
8012.00,1.74
8011.00,1.74
8010.00,1.73
8009.00,1.73
8008.00,1.73
8007.00,1.73
8006.00,1.73
8005.00,1.73
8004.00,1.73
8003.00,1.73
8002.00,1.74
8001.00,1.74
8000.00,1.74
7999.00,1.74
7998.00,1.74
7997.00,1.74
7996.00,1.75
7995.00,1.75
7994.00,1.75
7993.00,1.75
7992.00,1.75
7991.00,1.75
7990.00,1.76
7989.00,1.76
7988.00,1.76
7987.00,1.76
7986.00,1.76
7985.00,1.77
7984.00,1.77
7983.00,1.77
7982.00,1.77
7981.00,1.77
7980.00,1.77
7979.00,1.77
7978.00,1.77
7977.00,1.77
7976.00,1.77
7975.00,1.76
7974.00,1.76
7973.00,1.76
7972.00,1.76
7971.00,1.76
7970.00,1.76
7969.00,1.76
7968.00,1.76
7967.00,1.76
7966.00,1.76
7965.00,1.76
7964.00,1.76
7963.00,1.76
7962.00,1.76
7961.00,1.76
7960.00,1.76
7959.00,1.76
7958.00,1.75
7957.00,1.75
7956.00,1.75
7955.00,1.75
7954.00,1.75
7953.00,1.74
7952.00,1.74
7951.00,1.74
7950.00,1.74
7949.00,1.73
7948.00,1.73
7947.00,1.73
7946.00,1.73
7945.00,1.73
7944.00,1.72
7943.00,1.72
7942.00,1.72
7941.00,1.72
7940.00,1.72
7939.00,1.72
7938.00,1.72
7937.00,1.72
7936.00,1.72
7935.00,1.72
7934.00,1.71
7933.00,1.71
7932.00,1.71
7931.00,1.71
7930.00,1.71
7929.00,1.71
7928.00,1.71
7927.00,1.71
7926.00,1.70
7925.00,1.70
7924.00,1.70
7923.00,1.70
7922.00,1.70
7921.00,1.70
7920.00,1.70
7919.00,1.70
7918.00,1.70
7917.00,1.69
7916.00,1.69
7915.00,1.69
7914.00,1.69
7913.00,1.69
7912.00,1.68
7911.00,1.68
7910.00,1.68
7909.00,1.68
7908.00,1.67
7907.00,1.67
7906.00,1.67
7905.00,1.67
7904.00,1.67
7903.00,1.67
7902.00,1.67
7901.00,1.67
7900.00,1.67
7899.00,1.67
7898.00,1.67
7897.00,1.67
7896.00,1.67
7895.00,1.67
7894.00,1.67
7893.00,1.67
7892.00,1.67
7891.00,1.67
7890.00,1.68
7889.00,1.68
7888.00,1.68
7887.00,1.68
7886.00,1.68
7885.00,1.69
7884.00,1.69
7883.00,1.70
7882.00,1.70
7881.00,1.70
7880.00,1.71
7879.00,1.71
7878.00,1.72
7877.00,1.72
7876.00,1.73
7875.00,1.73
7874.00,1.73
7873.00,1.74
7872.00,1.74
7871.00,1.74
7870.00,1.74
7869.00,1.74
7868.00,1.74
7867.00,1.75
7866.00,1.75
7865.00,1.75
7864.00,1.75
7863.00,1.75
7862.00,1.75
7861.00,1.75
7860.00,1.75
7859.00,1.74
7858.00,1.74
7857.00,1.74
7856.00,1.73
7855.00,1.73
7854.00,1.72
7853.00,1.72
7852.00,1.71
7851.00,1.71
7850.00,1.71
7849.00,1.70
7848.00,1.70
7847.00,1.70
7846.00,1.69
7845.00,1.69
7844.00,1.69
7843.00,1.69
7842.00,1.69
7841.00,1.69
7840.00,1.69
7839.00,1.69
7838.00,1.69
7837.00,1.69
7836.00,1.69
7835.00,1.70
7834.00,1.70
7833.00,1.70
7832.00,1.70
7831.00,1.70
7830.00,1.71
7829.00,1.71
7828.00,1.71
7827.00,1.71
7826.00,1.72
7825.00,1.72
7824.00,1.72
7823.00,1.72
7822.00,1.72
7821.00,1.73
7820.00,1.73
7819.00,1.73
7818.00,1.73
7817.00,1.73
7816.00,1.73
7815.00,1.72
7814.00,1.72
7813.00,1.72
7812.00,1.72
7811.00,1.72
7810.00,1.72
7809.00,1.72
7808.00,1.71
7807.00,1.71
7806.00,1.71
7805.00,1.71
7804.00,1.71
7803.00,1.71
7802.00,1.71
7801.00,1.70
7800.00,1.70
7799.00,1.70
7798.00,1.70
7797.00,1.70
7796.00,1.70
7795.00,1.70
7794.00,1.70
7793.00,1.70
7792.00,1.71
7791.00,1.71
7790.00,1.71
7789.00,1.71
7788.00,1.71
7787.00,1.71
7786.00,1.72
7785.00,1.72
7784.00,1.72
7783.00,1.72
7782.00,1.72
7781.00,1.72
7780.00,1.73
7779.00,1.73
7778.00,1.73
7777.00,1.73
7776.00,1.73
7775.00,1.74
7774.00,1.74
7773.00,1.74
7772.00,1.74
7771.00,1.74
7770.00,1.75
7769.00,1.75
7768.00,1.75
7767.00,1.75
7766.00,1.75
7765.00,1.75
7764.00,1.75
7763.00,1.75
7762.00,1.75
7761.00,1.75
7760.00,1.75
7759.00,1.75
7758.00,1.75
7757.00,1.76
7756.00,1.76
7755.00,1.76
7754.00,1.76
7753.00,1.76
7752.00,1.76
7751.00,1.77
7750.00,1.77
7749.00,1.77
7748.00,1.77
7747.00,1.78
7746.00,1.78
7745.00,1.78
7744.00,1.78
7743.00,1.78
7742.00,1.79
7741.00,1.79
7740.00,1.79
7739.00,1.79
7738.00,1.79
7737.00,1.80
7736.00,1.80
7735.00,1.80
7734.00,1.80
7733.00,1.80
7732.00,1.80
7731.00,1.80
7730.00,1.80
7729.00,1.80
7728.00,1.79
7727.00,1.79
7726.00,1.79
7725.00,1.78
7724.00,1.78
7723.00,1.78
7722.00,1.77
7721.00,1.77
7720.00,1.76
7719.00,1.76
7718.00,1.75
7717.00,1.75
7716.00,1.74
7715.00,1.74
7714.00,1.74
7713.00,1.73
7712.00,1.73
7711.00,1.73
7710.00,1.72
7709.00,1.72
7708.00,1.72
7707.00,1.72
7706.00,1.71
7705.00,1.71
7704.00,1.71
7703.00,1.71
7702.00,1.71
7701.00,1.71
7700.00,1.71
7699.00,1.71
7698.00,1.71
7697.00,1.71
7696.00,1.71
7695.00,1.71
7694.00,1.72
7693.00,1.72
7692.00,1.72
7691.00,1.73
7690.00,1.73
7689.00,1.74
7688.00,1.74
7687.00,1.74
7686.00,1.75
7685.00,1.75
7684.00,1.75
7683.00,1.75
7682.00,1.75
7681.00,1.76
7680.00,1.76
7679.00,1.76
7678.00,1.76
7677.00,1.76
7676.00,1.77
7675.00,1.77
7674.00,1.77
7673.00,1.77
7672.00,1.78
7671.00,1.78
7670.00,1.78
7669.00,1.78
7668.00,1.78
7667.00,1.78
7666.00,1.78
7665.00,1.78
7664.00,1.78
7663.00,1.78
7662.00,1.78
7661.00,1.78
7660.00,1.78
7659.00,1.78
7658.00,1.78
7657.00,1.78
7656.00,1.78
7655.00,1.78
7654.00,1.78
7653.00,1.78
7652.00,1.77
7651.00,1.77
7650.00,1.77
7649.00,1.77
7648.00,1.77
7647.00,1.76
7646.00,1.76
7645.00,1.76
7644.00,1.76
7643.00,1.75
7642.00,1.75
7641.00,1.75
7640.00,1.75
7639.00,1.75
7638.00,1.75
7637.00,1.75
7636.00,1.75
7635.00,1.75
7634.00,1.74
7633.00,1.74
7632.00,1.74
7631.00,1.74
7630.00,1.74
7629.00,1.74
7628.00,1.74
7627.00,1.74
7626.00,1.75
7625.00,1.75
7624.00,1.75
7623.00,1.75
7622.00,1.75
7621.00,1.75
7620.00,1.75
7619.00,1.75
7618.00,1.75
7617.00,1.75
7616.00,1.75
7615.00,1.75
7614.00,1.76
7613.00,1.76
7612.00,1.76
7611.00,1.76
7610.00,1.76
7609.00,1.76
7608.00,1.76
7607.00,1.76
7606.00,1.76
7605.00,1.76
7604.00,1.76
7603.00,1.76
7602.00,1.76
7601.00,1.76
7600.00,1.76
7599.00,1.76
7598.00,1.76
7597.00,1.77
7596.00,1.77
7595.00,1.77
7594.00,1.77
7593.00,1.77
7592.00,1.77
7591.00,1.78
7590.00,1.78
7589.00,1.78
7588.00,1.78
7587.00,1.78
7586.00,1.78
7585.00,1.78
7584.00,1.78
7583.00,1.78
7582.00,1.78
7581.00,1.78
7580.00,1.78
7579.00,1.78
7578.00,1.78
7577.00,1.78
7576.00,1.78
7575.00,1.78
7574.00,1.78
7573.00,1.78
7572.00,1.78
7571.00,1.78
7570.00,1.78
7569.00,1.78
7568.00,1.77
7567.00,1.77
7566.00,1.77
7565.00,1.77
7564.00,1.77
7563.00,1.77
7562.00,1.77
7561.00,1.77
7560.00,1.77
7559.00,1.77
7558.00,1.77
7557.00,1.77
7556.00,1.77
7555.00,1.77
7554.00,1.77
7553.00,1.77
7552.00,1.77
7551.00,1.77
7550.00,1.77
7549.00,1.76
7548.00,1.76
7547.00,1.76
7546.00,1.76
7545.00,1.76
7544.00,1.76
7543.00,1.75
7542.00,1.75
7541.00,1.75
7540.00,1.75
7539.00,1.75
7538.00,1.74
7537.00,1.74
7536.00,1.74
7535.00,1.74
7534.00,1.74
7533.00,1.74
7532.00,1.73
7531.00,1.73
7530.00,1.73
7529.00,1.73
7528.00,1.73
7527.00,1.73
7526.00,1.73
7525.00,1.73
7524.00,1.73
7523.00,1.73
7522.00,1.72
7521.00,1.72
7520.00,1.72
7519.00,1.72
7518.00,1.72
7517.00,1.72
7516.00,1.72
7515.00,1.72
7514.00,1.72
7513.00,1.72
7512.00,1.72
7511.00,1.72
7510.00,1.72
7509.00,1.72
7508.00,1.72
7507.00,1.72
7506.00,1.72
7505.00,1.72
7504.00,1.72
7503.00,1.72
7502.00,1.72
7501.00,1.72
7500.00,1.72
7499.00,1.72
7498.00,1.72
7497.00,1.72
7496.00,1.72
7495.00,1.72
7494.00,1.72
7493.00,1.72
7492.00,1.72
7491.00,1.72
7490.00,1.72
7489.00,1.72
7488.00,1.72
7487.00,1.72
7486.00,1.72
7485.00,1.72
7484.00,1.72
7483.00,1.72
7482.00,1.72
7481.00,1.72
7480.00,1.72
7479.00,1.72
7478.00,1.72
7477.00,1.72
7476.00,1.72
7475.00,1.72
7474.00,1.72
7473.00,1.72
7472.00,1.72
7471.00,1.72
7470.00,1.72
7469.00,1.72
7468.00,1.72
7467.00,1.72
7466.00,1.72
7465.00,1.72
7464.00,1.72
7463.00,1.72
7462.00,1.72
7461.00,1.71
7460.00,1.71
7459.00,1.71
7458.00,1.71
7457.00,1.71
7456.00,1.71
7455.00,1.71
7454.00,1.71
7453.00,1.71
7452.00,1.71
7451.00,1.71
7450.00,1.71
7449.00,1.71
7448.00,1.71
7447.00,1.71
7446.00,1.70
7445.00,1.70
7444.00,1.70
7443.00,1.70
7442.00,1.70
7441.00,1.70
7440.00,1.70
7439.00,1.70
7438.00,1.70
7437.00,1.70
7436.00,1.70
7435.00,1.70
7434.00,1.70
7433.00,1.70
7432.00,1.70
7431.00,1.70
7430.00,1.70
7429.00,1.70
7428.00,1.70
7427.00,1.70
7426.00,1.70
7425.00,1.71
7424.00,1.71
7423.00,1.71
7422.00,1.71
7421.00,1.71
7420.00,1.71
7419.00,1.71
7418.00,1.72
7417.00,1.72
7416.00,1.72
7415.00,1.72
7414.00,1.72
7413.00,1.73
7412.00,1.73
7411.00,1.73
7410.00,1.73
7409.00,1.73
7408.00,1.74
7407.00,1.74
7406.00,1.74
7405.00,1.74
7404.00,1.74
7403.00,1.74
7402.00,1.75
7401.00,1.75
7400.00,1.75
7399.00,1.75
7398.00,1.75
7397.00,1.75
7396.00,1.75
7395.00,1.75
7394.00,1.75
7393.00,1.75
7392.00,1.75
7391.00,1.75
7390.00,1.75
7389.00,1.75
7388.00,1.75
7387.00,1.74
7386.00,1.74
7385.00,1.74
7384.00,1.74
7383.00,1.74
7382.00,1.74
7381.00,1.74
7380.00,1.73
7379.00,1.73
7378.00,1.73
7377.00,1.73
7376.00,1.73
7375.00,1.73
7374.00,1.72
7373.00,1.72
7372.00,1.72
7371.00,1.72
7370.00,1.72
7369.00,1.72
7368.00,1.72
7367.00,1.72
7366.00,1.72
7365.00,1.72
7364.00,1.72
7363.00,1.72
7362.00,1.72
7361.00,1.72
7360.00,1.71
7359.00,1.71
7358.00,1.71
7357.00,1.71
7356.00,1.71
7355.00,1.71
7354.00,1.71
7353.00,1.70
7352.00,1.70
7351.00,1.70
7350.00,1.70
7349.00,1.69
7348.00,1.69
7347.00,1.69
7346.00,1.68
7345.00,1.68
7344.00,1.68
7343.00,1.67
7342.00,1.67
7341.00,1.67
7340.00,1.67
7339.00,1.66
7338.00,1.66
7337.00,1.66
7336.00,1.65
7335.00,1.65
7334.00,1.65
7333.00,1.65
7332.00,1.65
7331.00,1.65
7330.00,1.65
7329.00,1.64
7328.00,1.64
7327.00,1.64
7326.00,1.64
7325.00,1.64
7324.00,1.64
7323.00,1.65
7322.00,1.65
7321.00,1.65
7320.00,1.65
7319.00,1.65
7318.00,1.65
7317.00,1.65
7316.00,1.65
7315.00,1.65
7314.00,1.65
7313.00,1.65
7312.00,1.65
7311.00,1.65
7310.00,1.65
7309.00,1.66
7308.00,1.66
7307.00,1.66
7306.00,1.66
7305.00,1.66
7304.00,1.66
7303.00,1.66
7302.00,1.66
7301.00,1.66
7300.00,1.66
7299.00,1.66
7298.00,1.66
7297.00,1.66
7296.00,1.66
7295.00,1.66
7294.00,1.66
7293.00,1.66
7292.00,1.66
7291.00,1.66
7290.00,1.66
7289.00,1.66
7288.00,1.66
7287.00,1.66
7286.00,1.66
7285.00,1.66
7284.00,1.66
7283.00,1.66
7282.00,1.66
7281.00,1.66
7280.00,1.66
7279.00,1.66
7278.00,1.66
7277.00,1.66
7276.00,1.66
7275.00,1.66
7274.00,1.66
7273.00,1.66
7272.00,1.65
7271.00,1.65
7270.00,1.65
7269.00,1.65
7268.00,1.65
7267.00,1.65
7266.00,1.64
7265.00,1.64
7264.00,1.64
7263.00,1.64
7262.00,1.63
7261.00,1.63
7260.00,1.63
7259.00,1.62
7258.00,1.62
7257.00,1.62
7256.00,1.62
7255.00,1.61
7254.00,1.61
7253.00,1.61
7252.00,1.61
7251.00,1.60
7250.00,1.60
7249.00,1.60
7248.00,1.59
7247.00,1.59
7246.00,1.59
7245.00,1.58
7244.00,1.58
7243.00,1.58
7242.00,1.58
7241.00,1.57
7240.00,1.57
7239.00,1.57
7238.00,1.57
7237.00,1.57
7236.00,1.57
7235.00,1.57
7234.00,1.57
7233.00,1.56
7232.00,1.56
7231.00,1.56
7230.00,1.56
7229.00,1.56
7228.00,1.56
7227.00,1.56
7226.00,1.56
7225.00,1.56
7224.00,1.56
7223.00,1.56
7222.00,1.56
7221.00,1.56
7220.00,1.55
7219.00,1.55
7218.00,1.55
7217.00,1.55
7216.00,1.55
7215.00,1.55
7214.00,1.55
7213.00,1.55
7212.00,1.54
7211.00,1.54
7210.00,1.54
7209.00,1.54
7208.00,1.53
7207.00,1.53
7206.00,1.53
7205.00,1.52
7204.00,1.52
7203.00,1.52
7202.00,1.52
7201.00,1.51
7200.00,1.51
7199.00,1.51
7198.00,1.50
7197.00,1.50
7196.00,1.50
7195.00,1.50
7194.00,1.49
7193.00,1.49
7192.00,1.49
7191.00,1.49
7190.00,1.49
7189.00,1.49
7188.00,1.48
7187.00,1.48
7186.00,1.48
7185.00,1.48
7184.00,1.47
7183.00,1.47
7182.00,1.47
7181.00,1.47
7180.00,1.47
7179.00,1.46
7178.00,1.46
7177.00,1.46
7176.00,1.46
7175.00,1.46
7174.00,1.45
7173.00,1.45
7172.00,1.45
7171.00,1.45
7170.00,1.44
7169.00,1.44
7168.00,1.44
7167.00,1.43
7166.00,1.43
7165.00,1.42
7164.00,1.42
7163.00,1.41
7162.00,1.41
7161.00,1.41
7160.00,1.40
7159.00,1.40
7158.00,1.39
7157.00,1.39
7156.00,1.38
7155.00,1.38
7154.00,1.37
7153.00,1.37
7152.00,1.37
7151.00,1.36
7150.00,1.36
7149.00,1.35
7148.00,1.35
7147.00,1.34
7146.00,1.34
7145.00,1.34
7144.00,1.33
7143.00,1.33
7142.00,1.32
7141.00,1.32
7140.00,1.31
7139.00,1.31
7138.00,1.31
7137.00,1.30
7136.00,1.30
7135.00,1.30
7134.00,1.29
7133.00,1.29
7132.00,1.29
7131.00,1.28
7130.00,1.28
7129.00,1.27
7128.00,1.27
7127.00,1.27
7126.00,1.26
7125.00,1.26
7124.00,1.25
7123.00,1.25
7122.00,1.24
7121.00,1.24
7120.00,1.23
7119.00,1.23
7118.00,1.22
7117.00,1.22
7116.00,1.21
7115.00,1.21
7114.00,1.20
7113.00,1.20
7112.00,1.19
7111.00,1.19
7110.00,1.19
7109.00,1.18
7108.00,1.18
7107.00,1.17
7106.00,1.17
7105.00,1.16
7104.00,1.16
7103.00,1.16
7102.00,1.15
7101.00,1.15
7100.00,1.14
7099.00,1.14
7098.00,1.14
7097.00,1.13
7096.00,1.13
7095.00,1.13
7094.00,1.13
7093.00,1.13
7092.00,1.12
7091.00,1.12
7090.00,1.12
7089.00,1.12
7088.00,1.12
7087.00,1.12
7086.00,1.12
7085.00,1.12
7084.00,1.12
7083.00,1.12
7082.00,1.12
7081.00,1.12
7080.00,1.12
7079.00,1.11
7078.00,1.11
7077.00,1.11
7076.00,1.11
7075.00,1.11
7074.00,1.11
7073.00,1.11
7072.00,1.11
7071.00,1.11
7070.00,1.12
7069.00,1.12
7068.00,1.12
7067.00,1.12
7066.00,1.12
7065.00,1.12
7064.00,1.12
7063.00,1.11
7062.00,1.11
7061.00,1.11
7060.00,1.11
7059.00,1.11
7058.00,1.11
7057.00,1.10
7056.00,1.10
7055.00,1.10
7054.00,1.10
7053.00,1.09
7052.00,1.09
7051.00,1.09
7050.00,1.09
7049.00,1.08
7048.00,1.08
7047.00,1.08
7046.00,1.07
7045.00,1.07
7044.00,1.07
7043.00,1.06
7042.00,1.06
7041.00,1.05
7040.00,1.05
7039.00,1.05
7038.00,1.04
7037.00,1.04
7036.00,1.03
7035.00,1.03
7034.00,1.03
7033.00,1.03
7032.00,1.02
7031.00,1.02
7030.00,1.02
7029.00,1.02
7028.00,1.01
7027.00,1.01
7026.00,1.01
7025.00,1.01
7024.00,1.01
7023.00,1.01
7022.00,1.01
7021.00,1.01
7020.00,1.01
7019.00,1.01
7018.00,1.01
7017.00,1.01
7016.00,1.01
7015.00,1.01
7014.00,1.01
7013.00,1.01
7012.00,1.01
7011.00,1.01
7010.00,1.01
7009.00,1.02
7008.00,1.02
7007.00,1.02
7006.00,1.02
7005.00,1.02
7004.00,1.02
7003.00,1.02
7002.00,1.02
7001.00,1.02
7000.00,1.02
6999.00,1.02
6998.00,1.02
6997.00,1.02
6996.00,1.02
6995.00,1.02
6994.00,1.02
6993.00,1.02
6992.00,1.01
6991.00,1.01
6990.00,1.01
6989.00,1.01
6988.00,1.01
6987.00,1.01
6986.00,1.00
6985.00,1.00
6984.00,1.00
6983.00,1.00
6982.00,1.00
6981.00,1.00
6980.00,1.00
6979.00,1.00
6978.00,1.00
6977.00,0.99
6976.00,0.99
6975.00,0.99
6974.00,0.99
6973.00,0.99
6972.00,0.99
6971.00,0.99
6970.00,0.99
6969.00,0.99
6968.00,0.99
6967.00,0.98
6966.00,0.98
6965.00,0.98
6964.00,0.98
6963.00,0.98
6962.00,0.98
6961.00,0.98
6960.00,0.98
6959.00,0.98
6958.00,0.97
6957.00,0.97
6956.00,0.97
6955.00,0.97
6954.00,0.97
6953.00,0.97
6952.00,0.97
6951.00,0.97
6950.00,0.96
6949.00,0.96
6948.00,0.96
6947.00,0.96
6946.00,0.96
6945.00,0.96
6944.00,0.96
6943.00,0.96
6942.00,0.96
6941.00,0.96
6940.00,0.96
6939.00,0.96
6938.00,0.96
6937.00,0.96
6936.00,0.96
6935.00,0.96
6934.00,0.96
6933.00,0.96
6932.00,0.96
6931.00,0.96
6930.00,0.96
6929.00,0.96
6928.00,0.96
6927.00,0.96
6926.00,0.96
6925.00,0.96
6924.00,0.96
6923.00,0.96
6922.00,0.96
6921.00,0.97
6920.00,0.97
6919.00,0.97
6918.00,0.97
6917.00,0.97
6916.00,0.97
6915.00,0.97
6914.00,0.97
6913.00,0.98
6912.00,0.98
6911.00,0.98
6910.00,0.98
6909.00,0.98
6908.00,0.98
6907.00,0.98
6906.00,0.98
6905.00,0.98
6904.00,0.98
6903.00,0.98
6902.00,0.98
6901.00,0.98
6900.00,0.98
6899.00,0.98
6898.00,0.98
6897.00,0.97
6896.00,0.97
6895.00,0.97
6894.00,0.97
6893.00,0.96
6892.00,0.96
6891.00,0.96
6890.00,0.95
6889.00,0.95
6888.00,0.95
6887.00,0.95
6886.00,0.94
6885.00,0.94
6884.00,0.94
6883.00,0.93
6882.00,0.93
6881.00,0.93
6880.00,0.93
6879.00,0.92
6878.00,0.92
6877.00,0.92
6876.00,0.92
6875.00,0.92
6874.00,0.92
6873.00,0.92
6872.00,0.91
6871.00,0.92
6870.00,0.92
6869.00,0.92
6868.00,0.92
6867.00,0.92
6866.00,0.92
6865.00,0.92
6864.00,0.93
6863.00,0.93
6862.00,0.93
6861.00,0.93
6860.00,0.94
6859.00,0.94
6858.00,0.94
6857.00,0.95
6856.00,0.95
6855.00,0.95
6854.00,0.96
6853.00,0.96
6852.00,0.96
6851.00,0.96
6850.00,0.97
6849.00,0.97
6848.00,0.97
6847.00,0.97
6846.00,0.98
6845.00,0.98
6844.00,0.98
6843.00,0.98
6842.00,0.99
6841.00,0.99
6840.00,0.99
6839.00,0.99
6838.00,0.99
6837.00,0.99
6836.00,0.99
6835.00,1.00
6834.00,1.00
6833.00,1.00
6832.00,1.00
6831.00,1.00
6830.00,1.00
6829.00,1.00
6828.00,1.00
6827.00,1.01
6826.00,1.01
6825.00,1.01
6824.00,1.01
6823.00,1.01
6822.00,1.01
6821.00,1.01
6820.00,1.01
6819.00,1.01
6818.00,1.01
6817.00,1.01
6816.00,1.01
6815.00,1.01
6814.00,1.01
6813.00,1.01
6812.00,1.01
6811.00,1.01
6810.00,1.01
6809.00,1.01
6808.00,1.01
6807.00,1.01
6806.00,1.01
6805.00,1.01
6804.00,1.01
6803.00,1.01
6802.00,1.01
6801.00,1.01
6800.00,1.01
6799.00,1.01
6798.00,1.01
6797.00,1.01
6796.00,1.01
6795.00,1.01
6794.00,1.01
6793.00,1.01
6792.00,1.01
6791.00,1.01
6790.00,1.01
6789.00,1.02
6788.00,1.02
6787.00,1.02
6786.00,1.02
6785.00,1.02
6784.00,1.02
6783.00,1.02
6782.00,1.02
6781.00,1.02
6780.00,1.02
6779.00,1.02
6778.00,1.02
6777.00,1.02
6776.00,1.02
6775.00,1.02
6774.00,1.02
6773.00,1.02
6772.00,1.02
6771.00,1.02
6770.00,1.02
6769.00,1.02
6768.00,1.02
6767.00,1.02
6766.00,1.02
6765.00,1.02
6764.00,1.02
6763.00,1.02
6762.00,1.02
6761.00,1.03
6760.00,1.03
6759.00,1.03
6758.00,1.03
6757.00,1.03
6756.00,1.03
6755.00,1.04
6754.00,1.04
6753.00,1.04
6752.00,1.04
6751.00,1.05
6750.00,1.05
6749.00,1.05
6748.00,1.06
6747.00,1.06
6746.00,1.06
6745.00,1.07
6744.00,1.07
6743.00,1.07
6742.00,1.08
6741.00,1.08
6740.00,1.08
6739.00,1.08
6738.00,1.09
6737.00,1.09
6736.00,1.09
6735.00,1.10
6734.00,1.10
6733.00,1.10
6732.00,1.11
6731.00,1.11
6730.00,1.11
6729.00,1.11
6728.00,1.11
6727.00,1.12
6726.00,1.12
6725.00,1.12
6724.00,1.12
6723.00,1.12
6722.00,1.12
6721.00,1.12
6720.00,1.12
6719.00,1.12
6718.00,1.12
6717.00,1.12
6716.00,1.12
6715.00,1.12
6714.00,1.12
6713.00,1.12
6712.00,1.12
6711.00,1.12
6710.00,1.12
6709.00,1.12
6708.00,1.12
6707.00,1.12
6706.00,1.12
6705.00,1.12
6704.00,1.12
6703.00,1.12
6702.00,1.12
6701.00,1.12
6700.00,1.12
6699.00,1.11
6698.00,1.11
6697.00,1.11
6696.00,1.11
6695.00,1.11
6694.00,1.11
6693.00,1.11
6692.00,1.11
6691.00,1.11
6690.00,1.12
6689.00,1.12
6688.00,1.12
6687.00,1.12
6686.00,1.11
6685.00,1.11
6684.00,1.11
6683.00,1.11
6682.00,1.11
6681.00,1.11
6680.00,1.11
6679.00,1.11
6678.00,1.11
6677.00,1.11
6676.00,1.12
6675.00,1.12
6674.00,1.12
6673.00,1.12
6672.00,1.12
6671.00,1.12
6670.00,1.13
6669.00,1.13
6668.00,1.13
6667.00,1.13
6666.00,1.14
6665.00,1.14
6664.00,1.14
6663.00,1.14
6662.00,1.14
6661.00,1.15
6660.00,1.15
6659.00,1.15
6658.00,1.15
6657.00,1.16
6656.00,1.16
6655.00,1.16
6654.00,1.16
6653.00,1.16
6652.00,1.16
6651.00,1.17
6650.00,1.17
6649.00,1.17
6648.00,1.17
6647.00,1.17
6646.00,1.17
6645.00,1.17
6644.00,1.18
6643.00,1.18
6642.00,1.18
6641.00,1.18
6640.00,1.18
6639.00,1.18
6638.00,1.18
6637.00,1.18
6636.00,1.18
6635.00,1.19
6634.00,1.19
6633.00,1.19
6632.00,1.19
6631.00,1.19
6630.00,1.20
6629.00,1.20
6628.00,1.20
6627.00,1.20
6626.00,1.21
6625.00,1.21
6624.00,1.21
6623.00,1.22
6622.00,1.22
6621.00,1.22
6620.00,1.23
6619.00,1.23
6618.00,1.23
6617.00,1.24
6616.00,1.24
6615.00,1.24
6614.00,1.24
6613.00,1.25
6612.00,1.25
6611.00,1.25
6610.00,1.25
6609.00,1.26
6608.00,1.26
6607.00,1.26
6606.00,1.26
6605.00,1.26
6604.00,1.26
6603.00,1.27
6602.00,1.27
6601.00,1.27
6600.00,1.27
6599.00,1.27
6598.00,1.27
6597.00,1.27
6596.00,1.27
6595.00,1.27
6594.00,1.27
6593.00,1.27
6592.00,1.27
6591.00,1.27
6590.00,1.27
6589.00,1.27
6588.00,1.27
6587.00,1.26
6586.00,1.26
6585.00,1.26
6584.00,1.26
6583.00,1.26
6582.00,1.26
6581.00,1.26
6580.00,1.26
6579.00,1.26
6578.00,1.26
6577.00,1.26
6576.00,1.26
6575.00,1.26
6574.00,1.26
6573.00,1.26
6572.00,1.26
6571.00,1.26
6570.00,1.26
6569.00,1.27
6568.00,1.27
6567.00,1.27
6566.00,1.27
6565.00,1.27
6564.00,1.27
6563.00,1.27
6562.00,1.28
6561.00,1.28
6560.00,1.28
6559.00,1.28
6558.00,1.29
6557.00,1.29
6556.00,1.29
6555.00,1.30
6554.00,1.30
6553.00,1.30
6552.00,1.31
6551.00,1.31
6550.00,1.31
6549.00,1.32
6548.00,1.32
6547.00,1.32
6546.00,1.32
6545.00,1.33
6544.00,1.33
6543.00,1.33
6542.00,1.34
6541.00,1.34
6540.00,1.34
6539.00,1.34
6538.00,1.35
6537.00,1.35
6536.00,1.35
6535.00,1.35
6534.00,1.35
6533.00,1.35
6532.00,1.35
6531.00,1.35
6530.00,1.35
6529.00,1.35
6528.00,1.36
6527.00,1.36
6526.00,1.36
6525.00,1.36
6524.00,1.36
6523.00,1.36
6522.00,1.36
6521.00,1.36
6520.00,1.36
6519.00,1.36
6518.00,1.36
6517.00,1.36
6516.00,1.36
6515.00,1.36
6514.00,1.36
6513.00,1.36
6512.00,1.36
6511.00,1.36
6510.00,1.36
6509.00,1.36
6508.00,1.36
6507.00,1.36
6506.00,1.36
6505.00,1.36
6504.00,1.36
6503.00,1.36
6502.00,1.36
6501.00,1.36
6500.00,1.36
6499.00,1.36
6498.00,1.36
6497.00,1.36
6496.00,1.36
6495.00,1.36
6494.00,1.36
6493.00,1.36
6492.00,1.36
6491.00,1.36
6490.00,1.36
6489.00,1.36
6488.00,1.36
6487.00,1.36
6486.00,1.36
6485.00,1.37
6484.00,1.37
6483.00,1.37
6482.00,1.37
6481.00,1.37
6480.00,1.37
6479.00,1.37
6478.00,1.37
6477.00,1.37
6476.00,1.37
6475.00,1.37
6474.00,1.37
6473.00,1.38
6472.00,1.38
6471.00,1.38
6470.00,1.38
6469.00,1.38
6468.00,1.38
6467.00,1.39
6466.00,1.39
6465.00,1.39
6464.00,1.39
6463.00,1.40
6462.00,1.40
6461.00,1.40
6460.00,1.40
6459.00,1.41
6458.00,1.41
6457.00,1.41
6456.00,1.41
6455.00,1.42
6454.00,1.42
6453.00,1.42
6452.00,1.42
6451.00,1.42
6450.00,1.43
6449.00,1.43
6448.00,1.43
6447.00,1.43
6446.00,1.43
6445.00,1.44
6444.00,1.44
6443.00,1.44
6442.00,1.44
6441.00,1.44
6440.00,1.44
6439.00,1.45
6438.00,1.45
6437.00,1.45
6436.00,1.45
6435.00,1.45
6434.00,1.45
6433.00,1.45
6432.00,1.45
6431.00,1.45
6430.00,1.46
6429.00,1.46
6428.00,1.46
6427.00,1.46
6426.00,1.46
6425.00,1.46
6424.00,1.46
6423.00,1.46
6422.00,1.46
6421.00,1.46
6420.00,1.46
6419.00,1.46
6418.00,1.46
6417.00,1.46
6416.00,1.47
6415.00,1.47
6414.00,1.47
6413.00,1.47
6412.00,1.47
6411.00,1.47
6410.00,1.47
6409.00,1.47
6408.00,1.47
6407.00,1.47
6406.00,1.47
6405.00,1.47
6404.00,1.47
6403.00,1.47
6402.00,1.47
6401.00,1.47
6400.00,1.47
6399.00,1.47
6398.00,1.47
6397.00,1.47
6396.00,1.47
6395.00,1.47
6394.00,1.47
6393.00,1.47
6392.00,1.47
6391.00,1.47
6390.00,1.47
6389.00,1.47
6388.00,1.47
6387.00,1.47
6386.00,1.47
6385.00,1.47
6384.00,1.47
6383.00,1.48
6382.00,1.48
6381.00,1.48
6380.00,1.48
6379.00,1.48
6378.00,1.48
6377.00,1.48
6376.00,1.48
6375.00,1.48
6374.00,1.49
6373.00,1.49
6372.00,1.49
6371.00,1.49
6370.00,1.49
6369.00,1.49
6368.00,1.49
6367.00,1.49
6366.00,1.49
6365.00,1.49
6364.00,1.49
6363.00,1.49
6362.00,1.50
6361.00,1.50
6360.00,1.50
6359.00,1.50
6358.00,1.50
6357.00,1.50
6356.00,1.51
6355.00,1.51
6354.00,1.51
6353.00,1.51
6352.00,1.51
6351.00,1.52
6350.00,1.52
6349.00,1.52
6348.00,1.52
6347.00,1.53
6346.00,1.53
6345.00,1.53
6344.00,1.53
6343.00,1.54
6342.00,1.54
6341.00,1.54
6340.00,1.54
6339.00,1.55
6338.00,1.55
6337.00,1.55
6336.00,1.55
6335.00,1.56
6334.00,1.56
6333.00,1.56
6332.00,1.56
6331.00,1.56
6330.00,1.56
6329.00,1.56
6328.00,1.56
6327.00,1.56
6326.00,1.56
6325.00,1.56
6324.00,1.56
6323.00,1.56
6322.00,1.56
6321.00,1.56
6320.00,1.56
6319.00,1.56
6318.00,1.56
6317.00,1.56
6316.00,1.56
6315.00,1.55
6314.00,1.55
6313.00,1.55
6312.00,1.55
6311.00,1.55
6310.00,1.55
6309.00,1.55
6308.00,1.55
6307.00,1.55
6306.00,1.55
6305.00,1.55
6304.00,1.55
6303.00,1.55
6302.00,1.55
6301.00,1.55
6300.00,1.55
6299.00,1.56
6298.00,1.56
6297.00,1.56
6296.00,1.56
6295.00,1.57
6294.00,1.57
6293.00,1.57
6292.00,1.57
6291.00,1.58
6290.00,1.58
6289.00,1.58
6288.00,1.59
6287.00,1.59
6286.00,1.59
6285.00,1.59
6284.00,1.60
6283.00,1.60
6282.00,1.60
6281.00,1.61
6280.00,1.61
6279.00,1.61
6278.00,1.61
6277.00,1.61
6276.00,1.62
6275.00,1.62
6274.00,1.62
6273.00,1.62
6272.00,1.62
6271.00,1.62
6270.00,1.62
6269.00,1.62
6268.00,1.62
6267.00,1.62
6266.00,1.62
6265.00,1.62
6264.00,1.62
6263.00,1.62
6262.00,1.62
6261.00,1.62
6260.00,1.62
6259.00,1.63
6258.00,1.63
6257.00,1.63
6256.00,1.63
6255.00,1.63
6254.00,1.63
6253.00,1.63
6252.00,1.63
6251.00,1.63
6250.00,1.63
6249.00,1.64
6248.00,1.64
6247.00,1.64
6246.00,1.64
6245.00,1.64
6244.00,1.64
6243.00,1.64
6242.00,1.64
6241.00,1.65
6240.00,1.65
6239.00,1.65
6238.00,1.65
6237.00,1.65
6236.00,1.65
6235.00,1.65
6234.00,1.65
6233.00,1.65
6232.00,1.65
6231.00,1.65
6230.00,1.66
6229.00,1.66
6228.00,1.66
6227.00,1.66
6226.00,1.66
6225.00,1.66
6224.00,1.66
6223.00,1.66
6222.00,1.66
6221.00,1.66
6220.00,1.67
6219.00,1.67
6218.00,1.67
6217.00,1.67
6216.00,1.67
6215.00,1.67
6214.00,1.67
6213.00,1.68
6212.00,1.68
6211.00,1.68
6210.00,1.68
6209.00,1.68
6208.00,1.69
6207.00,1.69
6206.00,1.69
6205.00,1.69
6204.00,1.70
6203.00,1.70
6202.00,1.70
6201.00,1.70
6200.00,1.70
6199.00,1.71
6198.00,1.71
6197.00,1.71
6196.00,1.71
6195.00,1.72
6194.00,1.72
6193.00,1.72
6192.00,1.72
6191.00,1.73
6190.00,1.73
6189.00,1.73
6188.00,1.73
6187.00,1.73
6186.00,1.74
6185.00,1.74
6184.00,1.74
6183.00,1.74
6182.00,1.74
6181.00,1.75
6180.00,1.75
6179.00,1.75
6178.00,1.75
6177.00,1.75
6176.00,1.75
6175.00,1.75
6174.00,1.75
6173.00,1.75
6172.00,1.75
6171.00,1.76
6170.00,1.76
6169.00,1.76
6168.00,1.76
6167.00,1.76
6166.00,1.76
6165.00,1.76
6164.00,1.76
6163.00,1.76
6162.00,1.76
6161.00,1.76
6160.00,1.76
6159.00,1.76
6158.00,1.76
6157.00,1.76
6156.00,1.76
6155.00,1.76
6154.00,1.77
6153.00,1.77
6152.00,1.77
6151.00,1.77
6150.00,1.77
6149.00,1.77
6148.00,1.77
6147.00,1.77
6146.00,1.77
6145.00,1.77
6144.00,1.77
6143.00,1.77
6142.00,1.77
6141.00,1.77
6140.00,1.77
6139.00,1.77
6138.00,1.77
6137.00,1.77
6136.00,1.77
6135.00,1.77
6134.00,1.77
6133.00,1.77
6132.00,1.77
6131.00,1.77
6130.00,1.77
6129.00,1.76
6128.00,1.76
6127.00,1.76
6126.00,1.76
6125.00,1.76
6124.00,1.76
6123.00,1.76
6122.00,1.76
6121.00,1.76
6120.00,1.76
6119.00,1.76
6118.00,1.76
6117.00,1.76
6116.00,1.76
6115.00,1.77
6114.00,1.77
6113.00,1.77
6112.00,1.77
6111.00,1.77
6110.00,1.77
6109.00,1.77
6108.00,1.77
6107.00,1.78
6106.00,1.78
6105.00,1.78
6104.00,1.78
6103.00,1.79
6102.00,1.79
6101.00,1.79
6100.00,1.79
6099.00,1.80
6098.00,1.80
6097.00,1.80
6096.00,1.80
6095.00,1.81
6094.00,1.81
6093.00,1.81
6092.00,1.81
6091.00,1.81
6090.00,1.81
6089.00,1.81
6088.00,1.81
6087.00,1.81
6086.00,1.81
6085.00,1.81
6084.00,1.82
6083.00,1.82
6082.00,1.82
6081.00,1.82
6080.00,1.82
6079.00,1.81
6078.00,1.81
6077.00,1.81
6076.00,1.81
6075.00,1.81
6074.00,1.81
6073.00,1.81
6072.00,1.81
6071.00,1.81
6070.00,1.81
6069.00,1.81
6068.00,1.80
6067.00,1.80
6066.00,1.80
6065.00,1.80
6064.00,1.80
6063.00,1.80
6062.00,1.80
6061.00,1.80
6060.00,1.80
6059.00,1.80
6058.00,1.80
6057.00,1.80
6056.00,1.80
6055.00,1.80
6054.00,1.80
6053.00,1.80
6052.00,1.81
6051.00,1.81
6050.00,1.81
6049.00,1.81
6048.00,1.81
6047.00,1.81
6046.00,1.81
6045.00,1.82
6044.00,1.82
6043.00,1.82
6042.00,1.82
6041.00,1.82
6040.00,1.82
6039.00,1.83
6038.00,1.83
6037.00,1.83
6036.00,1.83
6035.00,1.83
6034.00,1.83
6033.00,1.84
6032.00,1.84
6031.00,1.84
6030.00,1.84
6029.00,1.84
6028.00,1.84
6027.00,1.84
6026.00,1.84
6025.00,1.84
6024.00,1.84
6023.00,1.84
6022.00,1.84
6021.00,1.84
6020.00,1.84
6019.00,1.84
6018.00,1.84
6017.00,1.84
6016.00,1.84
6015.00,1.84
6014.00,1.84
6013.00,1.84
6012.00,1.84
6011.00,1.84
6010.00,1.84
6009.00,1.84
6008.00,1.84
6007.00,1.84
6006.00,1.84
6005.00,1.84
6004.00,1.84
6003.00,1.84
6002.00,1.84
6001.00,1.84
6000.00,1.84
5999.00,1.84
5998.00,1.84
5997.00,1.84
5996.00,1.84
5995.00,1.84
5994.00,1.84
5993.00,1.84
5992.00,1.84
5991.00,1.84
5990.00,1.84
5989.00,1.84
5988.00,1.84
5987.00,1.84
5986.00,1.84
5985.00,1.84
5984.00,1.84
5983.00,1.84
5982.00,1.84
5981.00,1.83
5980.00,1.83
5979.00,1.83
5978.00,1.83
5977.00,1.83
5976.00,1.83
5975.00,1.83
5974.00,1.83
5973.00,1.83
5972.00,1.82
5971.00,1.82
5970.00,1.82
5969.00,1.82
5968.00,1.81
5967.00,1.81
5966.00,1.81
5965.00,1.81
5964.00,1.80
5963.00,1.80
5962.00,1.80
5961.00,1.80
5960.00,1.79
5959.00,1.79
5958.00,1.79
5957.00,1.79
5956.00,1.78
5955.00,1.78
5954.00,1.78
5953.00,1.78
5952.00,1.77
5951.00,1.77
5950.00,1.77
5949.00,1.77
5948.00,1.77
5947.00,1.77
5946.00,1.77
5945.00,1.76
5944.00,1.76
5943.00,1.76
5942.00,1.76
5941.00,1.76
5940.00,1.76
5939.00,1.76
5938.00,1.76
5937.00,1.76
5936.00,1.76
5935.00,1.76
5934.00,1.76
5933.00,1.76
5932.00,1.76
5931.00,1.76
5930.00,1.76
5929.00,1.76
5928.00,1.76
5927.00,1.76
5926.00,1.76
5925.00,1.76
5924.00,1.76
5923.00,1.76
5922.00,1.76
5921.00,1.76
5920.00,1.76
5919.00,1.76
5918.00,1.76
5917.00,1.76
5916.00,1.76
5915.00,1.76
5914.00,1.76
5913.00,1.76
5912.00,1.76
5911.00,1.76
5910.00,1.76
5909.00,1.76
5908.00,1.76
5907.00,1.76
5906.00,1.76
5905.00,1.76
5904.00,1.76
5903.00,1.76
5902.00,1.77
5901.00,1.77
5900.00,1.77
5899.00,1.77
5898.00,1.77
5897.00,1.78
5896.00,1.78
5895.00,1.78
5894.00,1.78
5893.00,1.79
5892.00,1.79
5891.00,1.79
5890.00,1.79
5889.00,1.80
5888.00,1.80
5887.00,1.80
5886.00,1.80
5885.00,1.80
5884.00,1.80
5883.00,1.81
5882.00,1.81
5881.00,1.81
5880.00,1.81
5879.00,1.81
5878.00,1.81
5877.00,1.81
5876.00,1.81
5875.00,1.81
5874.00,1.81
5873.00,1.81
5872.00,1.81
5871.00,1.81
5870.00,1.81
5869.00,1.81
5868.00,1.81
5867.00,1.81
5866.00,1.81
5865.00,1.81
5864.00,1.81
5863.00,1.81
5862.00,1.81
5861.00,1.81
5860.00,1.81
5859.00,1.82
5858.00,1.82
5857.00,1.82
5856.00,1.82
5855.00,1.82
5854.00,1.82
5853.00,1.82
5852.00,1.82
5851.00,1.82
5850.00,1.82
5849.00,1.82
5848.00,1.82
5847.00,1.82
5846.00,1.82
5845.00,1.83
5844.00,1.83
5843.00,1.83
5842.00,1.83
5841.00,1.83
5840.00,1.83
5839.00,1.83
5838.00,1.83
5837.00,1.83
5836.00,1.83
5835.00,1.83
5834.00,1.83
5833.00,1.83
5832.00,1.83
5831.00,1.83
5830.00,1.83
5829.00,1.83
5828.00,1.83
5827.00,1.82
5826.00,1.82
5825.00,1.82
5824.00,1.82
5823.00,1.82
5822.00,1.82
5821.00,1.82
5820.00,1.81
5819.00,1.81
5818.00,1.81
5817.00,1.81
5816.00,1.80
5815.00,1.80
5814.00,1.80
5813.00,1.79
5812.00,1.79
5811.00,1.79
5810.00,1.78
5809.00,1.78
5808.00,1.78
5807.00,1.78
5806.00,1.77
5805.00,1.77
5804.00,1.77
5803.00,1.77
5802.00,1.76
5801.00,1.76
5800.00,1.76
5799.00,1.76
5798.00,1.76
5797.00,1.76
5796.00,1.75
5795.00,1.75
5794.00,1.75
5793.00,1.75
5792.00,1.75
5791.00,1.75
5790.00,1.75
5789.00,1.75
5788.00,1.76
5787.00,1.76
5786.00,1.76
5785.00,1.76
5784.00,1.76
5783.00,1.76
5782.00,1.76
5781.00,1.77
5780.00,1.77
5779.00,1.77
5778.00,1.77
5777.00,1.77
5776.00,1.77
5775.00,1.77
5774.00,1.77
5773.00,1.77
5772.00,1.77
5771.00,1.77
5770.00,1.77
5769.00,1.77
5768.00,1.77
5767.00,1.77
5766.00,1.78
5765.00,1.78
5764.00,1.78
5763.00,1.78
5762.00,1.78
5761.00,1.78
5760.00,1.78
5759.00,1.77
5758.00,1.77
5757.00,1.77
5756.00,1.77
5755.00,1.77
5754.00,1.77
5753.00,1.77
5752.00,1.77
5751.00,1.77
5750.00,1.77
5749.00,1.77
5748.00,1.77
5747.00,1.78
5746.00,1.78
5745.00,1.78
5744.00,1.78
5743.00,1.78
5742.00,1.78
5741.00,1.78
5740.00,1.78
5739.00,1.78
5738.00,1.78
5737.00,1.78
5736.00,1.78
5735.00,1.78
5734.00,1.78
5733.00,1.78
5732.00,1.78
5731.00,1.78
5730.00,1.78
5729.00,1.78
5728.00,1.78
5727.00,1.78
5726.00,1.78
5725.00,1.78
5724.00,1.78
5723.00,1.78
5722.00,1.78
5721.00,1.78
5720.00,1.78
5719.00,1.78
5718.00,1.78
5717.00,1.78
5716.00,1.78
5715.00,1.78
5714.00,1.77
5713.00,1.77
5712.00,1.77
5711.00,1.77
5710.00,1.77
5709.00,1.77
5708.00,1.77
5707.00,1.77
5706.00,1.77
5705.00,1.77
5704.00,1.76
5703.00,1.76
5702.00,1.76
5701.00,1.76
5700.00,1.76
5699.00,1.76
5698.00,1.76
5697.00,1.76
5696.00,1.76
5695.00,1.76
5694.00,1.76
5693.00,1.76
5692.00,1.76
5691.00,1.76
5690.00,1.76
5689.00,1.76
5688.00,1.76
5687.00,1.76
5686.00,1.76
5685.00,1.76
5684.00,1.76
5683.00,1.76
5682.00,1.76
5681.00,1.76
5680.00,1.76
5679.00,1.76
5678.00,1.76
5677.00,1.76
5676.00,1.76
5675.00,1.76
5674.00,1.76
5673.00,1.76
5672.00,1.76
5671.00,1.76
5670.00,1.76
5669.00,1.76
5668.00,1.76
5667.00,1.76
5666.00,1.76
5665.00,1.76
5664.00,1.76
5663.00,1.76
5662.00,1.76
5661.00,1.76
5660.00,1.76
5659.00,1.77
5658.00,1.77
5657.00,1.77
5656.00,1.77
5655.00,1.77
5654.00,1.77
5653.00,1.77
5652.00,1.77
5651.00,1.77
5650.00,1.77
5649.00,1.77
5648.00,1.77
5647.00,1.77
5646.00,1.77
5645.00,1.77
5644.00,1.77
5643.00,1.77
5642.00,1.77
5641.00,1.77
5640.00,1.77
5639.00,1.77
5638.00,1.77
5637.00,1.77
5636.00,1.77
5635.00,1.77
5634.00,1.77
5633.00,1.77
5632.00,1.77
5631.00,1.77
5630.00,1.76
5629.00,1.76
5628.00,1.76
5627.00,1.76
5626.00,1.76
5625.00,1.76
5624.00,1.76
5623.00,1.76
5622.00,1.76
5621.00,1.76
5620.00,1.76
5619.00,1.76
5618.00,1.76
5617.00,1.76
5616.00,1.76
5615.00,1.76
5614.00,1.77
5613.00,1.77
5612.00,1.77
5611.00,1.77
5610.00,1.77
5609.00,1.77
5608.00,1.77
5607.00,1.77
5606.00,1.77
5605.00,1.77
5604.00,1.77
5603.00,1.77
5602.00,1.77
5601.00,1.78
5600.00,1.78
5599.00,1.78
5598.00,1.78
5597.00,1.78
5596.00,1.78
5595.00,1.78
5594.00,1.79
5593.00,1.79
5592.00,1.79
5591.00,1.79
5590.00,1.79
5589.00,1.79
5588.00,1.80
5587.00,1.80
5586.00,1.80
5585.00,1.80
5584.00,1.80
5583.00,1.81
5582.00,1.81
5581.00,1.81
5580.00,1.81
5579.00,1.81
5578.00,1.81
5577.00,1.81
5576.00,1.82
5575.00,1.82
5574.00,1.82
5573.00,1.82
5572.00,1.82
5571.00,1.82
5570.00,1.82
5569.00,1.82
5568.00,1.82
5567.00,1.82
5566.00,1.82
5565.00,1.82
5564.00,1.82
5563.00,1.82
5562.00,1.82
5561.00,1.82
5560.00,1.82
5559.00,1.82
5558.00,1.82
5557.00,1.82
5556.00,1.82
5555.00,1.82
5554.00,1.82
5553.00,1.82
5552.00,1.82
5551.00,1.82
5550.00,1.82
5549.00,1.82
5548.00,1.82
5547.00,1.82
5546.00,1.82
5545.00,1.82
5544.00,1.82
5543.00,1.82
5542.00,1.82
5541.00,1.82
5540.00,1.82
5539.00,1.83
5538.00,1.83
5537.00,1.83
5536.00,1.83
5535.00,1.83
5534.00,1.83
5533.00,1.83
5532.00,1.83
5531.00,1.83
5530.00,1.84
5529.00,1.84
5528.00,1.84
5527.00,1.84
5526.00,1.84
5525.00,1.84
5524.00,1.84
5523.00,1.84
5522.00,1.84
5521.00,1.85
5520.00,1.85
5519.00,1.85
5518.00,1.85
5517.00,1.85
5516.00,1.85
5515.00,1.85
5514.00,1.85
5513.00,1.85
5512.00,1.86
5511.00,1.86
5510.00,1.86
5509.00,1.86
5508.00,1.86
5507.00,1.86
5506.00,1.86
5505.00,1.86
5504.00,1.86
5503.00,1.86
5502.00,1.86
5501.00,1.86
5500.00,1.87
5499.00,1.87
5498.00,1.87
5497.00,1.87
5496.00,1.87
5495.00,1.87
5494.00,1.87
5493.00,1.87
5492.00,1.87
5491.00,1.87
5490.00,1.87
5489.00,1.87
5488.00,1.87
5487.00,1.87
5486.00,1.87
5485.00,1.87
5484.00,1.87
5483.00,1.87
5482.00,1.87
5481.00,1.86
5480.00,1.86
5479.00,1.86
5478.00,1.86
5477.00,1.86
5476.00,1.86
5475.00,1.86
5474.00,1.86
5473.00,1.86
5472.00,1.86
5471.00,1.86
5470.00,1.86
5469.00,1.86
5468.00,1.86
5467.00,1.86
5466.00,1.86
5465.00,1.86
5464.00,1.86
5463.00,1.86
5462.00,1.86
5461.00,1.86
5460.00,1.86
5459.00,1.86
5458.00,1.86
5457.00,1.86
5456.00,1.86
5455.00,1.86
5454.00,1.86
5453.00,1.86
5452.00,1.86
5451.00,1.86
5450.00,1.86
5449.00,1.86
5448.00,1.86
5447.00,1.86
5446.00,1.86
5445.00,1.86
5444.00,1.86
5443.00,1.86
5442.00,1.86
5441.00,1.86
5440.00,1.86
5439.00,1.85
5438.00,1.85
5437.00,1.85
5436.00,1.85
5435.00,1.85
5434.00,1.85
5433.00,1.85
5432.00,1.85
5431.00,1.85
5430.00,1.85
5429.00,1.85
5428.00,1.85
5427.00,1.85
5426.00,1.86
5425.00,1.86
5424.00,1.85
5423.00,1.85
5422.00,1.85
5421.00,1.85
5420.00,1.85
5419.00,1.85
5418.00,1.85
5417.00,1.85
5416.00,1.85
5415.00,1.85
5414.00,1.85
5413.00,1.84
5412.00,1.84
5411.00,1.84
5410.00,1.84
5409.00,1.84
5408.00,1.84
5407.00,1.84
5406.00,1.83
5405.00,1.83
5404.00,1.83
5403.00,1.83
5402.00,1.82
5401.00,1.82
5400.00,1.82
5399.00,1.82
5398.00,1.81
5397.00,1.81
5396.00,1.81
5395.00,1.81
5394.00,1.80
5393.00,1.80
5392.00,1.80
5391.00,1.80
5390.00,1.80
5389.00,1.79
5388.00,1.79
5387.00,1.79
5386.00,1.79
5385.00,1.78
5384.00,1.78
5383.00,1.78
5382.00,1.77
5381.00,1.77
5380.00,1.77
5379.00,1.76
5378.00,1.76
5377.00,1.76
5376.00,1.75
5375.00,1.75
5374.00,1.74
5373.00,1.74
5372.00,1.73
5371.00,1.73
5370.00,1.72
5369.00,1.72
5368.00,1.71
5367.00,1.70
5366.00,1.70
5365.00,1.69
5364.00,1.68
5363.00,1.68
5362.00,1.67
5361.00,1.66
5360.00,1.65
5359.00,1.64
5358.00,1.64
5357.00,1.63
5356.00,1.62
5355.00,1.61
5354.00,1.60
5353.00,1.59
5352.00,1.58
5351.00,1.57
5350.00,1.56
5349.00,1.56
5348.00,1.55
5347.00,1.54
5346.00,1.53
5345.00,1.52
5344.00,1.51
5343.00,1.50
5342.00,1.49
5341.00,1.48
5340.00,1.47
5339.00,1.46
5338.00,1.45
5337.00,1.44
5336.00,1.43
5335.00,1.42
5334.00,1.41
5333.00,1.40
5332.00,1.39
5331.00,1.38
5330.00,1.37
5329.00,1.36
5328.00,1.35
5327.00,1.34
5326.00,1.33
5325.00,1.31
5324.00,1.30
5323.00,1.29
5322.00,1.28
5321.00,1.27
5320.00,1.26
5319.00,1.25
5318.00,1.24
5317.00,1.23
5316.00,1.22
5315.00,1.20
5314.00,1.19
5313.00,1.18
5312.00,1.17
5311.00,1.16
5310.00,1.15
5309.00,1.14
5308.00,1.12
5307.00,1.11
5306.00,1.10
5305.00,1.09
5304.00,1.08
5303.00,1.07
5302.00,1.06
5301.00,1.05
5300.00,1.03
5299.00,1.02
5298.00,1.01
5297.00,1.00
5296.00,0.99
5295.00,0.98
5294.00,0.97
5293.00,0.96
5292.00,0.95
5291.00,0.94
5290.00,0.93
5289.00,0.93
5288.00,0.92
5287.00,0.91
5286.00,0.90
5285.00,0.89
5284.00,0.89
5283.00,0.88
5282.00,0.87
5281.00,0.87
5280.00,0.86
5279.00,0.86
5278.00,0.85
5277.00,0.85
5276.00,0.84
5275.00,0.84
5274.00,0.83
5273.00,0.83
5272.00,0.83
5271.00,0.82
5270.00,0.82
5269.00,0.82
5268.00,0.81
5267.00,0.81
5266.00,0.81
5265.00,0.81
5264.00,0.80
5263.00,0.80
5262.00,0.80
5261.00,0.80
5260.00,0.80
5259.00,0.79
5258.00,0.79
5257.00,0.79
5256.00,0.79
5255.00,0.79
5254.00,0.79
5253.00,0.79
5252.00,0.79
5251.00,0.79
5250.00,0.78
5249.00,0.78
5248.00,0.78
5247.00,0.78
5246.00,0.78
5245.00,0.78
5244.00,0.78
5243.00,0.78
5242.00,0.78
5241.00,0.77
5240.00,0.77
5239.00,0.77
5238.00,0.77
5237.00,0.77
5236.00,0.77
5235.00,0.77
5234.00,0.77
5233.00,0.77
5232.00,0.77
5231.00,0.77
5230.00,0.77
5229.00,0.77
5228.00,0.76
5227.00,0.76
5226.00,0.76
5225.00,0.76
5224.00,0.76
5223.00,0.76
5222.00,0.76
5221.00,0.76
5220.00,0.76
5219.00,0.76
5218.00,0.76
5217.00,0.76
5216.00,0.76
5215.00,0.76
5214.00,0.76
5213.00,0.76
5212.00,0.76
5211.00,0.76
5210.00,0.76
5209.00,0.76
5208.00,0.76
5207.00,0.76
5206.00,0.76
5205.00,0.76
5204.00,0.76
5203.00,0.76
5202.00,0.76
5201.00,0.76
5200.00,0.77
5199.00,0.77
5198.00,0.77
5197.00,0.77
5196.00,0.77
5195.00,0.77
5194.00,0.78
5193.00,0.78
5192.00,0.78
5191.00,0.78
5190.00,0.78
5189.00,0.78
5188.00,0.78
5187.00,0.78
5186.00,0.78
5185.00,0.78
5184.00,0.78
5183.00,0.78
5182.00,0.78
5181.00,0.78
5180.00,0.78
5179.00,0.78
5178.00,0.78
5177.00,0.78
5176.00,0.78
5175.00,0.78
5174.00,0.78
5173.00,0.78
5172.00,0.78
5171.00,0.78
5170.00,0.78
5169.00,0.78
5168.00,0.78
5167.00,0.78
5166.00,0.78
5165.00,0.78
5164.00,0.78
5163.00,0.78
5162.00,0.78
5161.00,0.78
5160.00,0.78
5159.00,0.78
5158.00,0.78
5157.00,0.78
5156.00,0.78
5155.00,0.79
5154.00,0.79
5153.00,0.79
5152.00,0.79
5151.00,0.79
5150.00,0.79
5149.00,0.80
5148.00,0.80
5147.00,0.80
5146.00,0.80
5145.00,0.81
5144.00,0.81
5143.00,0.81
5142.00,0.81
5141.00,0.81
5140.00,0.82
5139.00,0.82
5138.00,0.82
5137.00,0.82
5136.00,0.82
5135.00,0.82
5134.00,0.82
5133.00,0.82
5132.00,0.82
5131.00,0.82
5130.00,0.82
5129.00,0.82
5128.00,0.82
5127.00,0.82
5126.00,0.82
5125.00,0.82
5124.00,0.82
5123.00,0.82
5122.00,0.81
5121.00,0.81
5120.00,0.81
5119.00,0.81
5118.00,0.81
5117.00,0.81
5116.00,0.80
5115.00,0.80
5114.00,0.80
5113.00,0.80
5112.00,0.80
5111.00,0.80
5110.00,0.79
5109.00,0.79
5108.00,0.79
5107.00,0.79
5106.00,0.79
5105.00,0.79
5104.00,0.79
5103.00,0.79
5102.00,0.79
5101.00,0.79
5100.00,0.79
5099.00,0.79
5098.00,0.79
5097.00,0.79
5096.00,0.79
5095.00,0.79
5094.00,0.80
5093.00,0.80
5092.00,0.80
5091.00,0.80
5090.00,0.80
5089.00,0.80
5088.00,0.80
5087.00,0.81
5086.00,0.81
5085.00,0.81
5084.00,0.81
5083.00,0.81
5082.00,0.81
5081.00,0.82
5080.00,0.82
5079.00,0.82
5078.00,0.82
5077.00,0.82
5076.00,0.82
5075.00,0.82
5074.00,0.83
5073.00,0.83
5072.00,0.83
5071.00,0.83
5070.00,0.83
5069.00,0.83
5068.00,0.83
5067.00,0.84
5066.00,0.84
5065.00,0.84
5064.00,0.84
5063.00,0.84
5062.00,0.84
5061.00,0.84
5060.00,0.84
5059.00,0.84
5058.00,0.84
5057.00,0.85
5056.00,0.85
5055.00,0.85
5054.00,0.85
5053.00,0.85
5052.00,0.85
5051.00,0.85
5050.00,0.85
5049.00,0.85
5048.00,0.85
5047.00,0.85
5046.00,0.85
5045.00,0.85
5044.00,0.85
5043.00,0.86
5042.00,0.86
5041.00,0.86
5040.00,0.86
5039.00,0.86
5038.00,0.86
5037.00,0.86
5036.00,0.87
5035.00,0.87
5034.00,0.87
5033.00,0.87
5032.00,0.87
5031.00,0.88
5030.00,0.88
5029.00,0.88
5028.00,0.88
5027.00,0.89
5026.00,0.89
5025.00,0.89
5024.00,0.89
5023.00,0.90
5022.00,0.90
5021.00,0.90
5020.00,0.90
5019.00,0.91
5018.00,0.91
5017.00,0.91
5016.00,0.91
5015.00,0.92
5014.00,0.92
5013.00,0.92
5012.00,0.92
5011.00,0.92
5010.00,0.92
5009.00,0.93
5008.00,0.93
5007.00,0.93
5006.00,0.93
5005.00,0.93
5004.00,0.93
5003.00,0.94
5002.00,0.94
5001.00,0.94
5000.00,0.94
4999.00,0.94
4998.00,0.94
4997.00,0.95
4996.00,0.95
4995.00,0.95
4994.00,0.95
4993.00,0.95
4992.00,0.95
4991.00,0.96
4990.00,0.96
4989.00,0.96
4988.00,0.96
4987.00,0.96
4986.00,0.97
4985.00,0.97
4984.00,0.97
4983.00,0.97
4982.00,0.98
4981.00,0.98
4980.00,0.98
4979.00,0.98
4978.00,0.98
4977.00,0.98
4976.00,0.99
4975.00,0.99
4974.00,0.99
4973.00,0.99
4972.00,0.99
4971.00,1.00
4970.00,1.00
4969.00,1.00
4968.00,1.00
4967.00,1.00
4966.00,1.00
4965.00,1.01
4964.00,1.01
4963.00,1.01
4962.00,1.01
4961.00,1.01
4960.00,1.01
4959.00,1.02
4958.00,1.02
4957.00,1.02
4956.00,1.02
4955.00,1.02
4954.00,1.02
4953.00,1.02
4952.00,1.03
4951.00,1.03
4950.00,1.03
4949.00,1.03
4948.00,1.03
4947.00,1.03
4946.00,1.04
4945.00,1.04
4944.00,1.04
4943.00,1.04
4942.00,1.04
4941.00,1.04
4940.00,1.05
4939.00,1.05
4938.00,1.05
4937.00,1.05
4936.00,1.06
4935.00,1.06
4934.00,1.06
4933.00,1.06
4932.00,1.07
4931.00,1.07
4930.00,1.07
4929.00,1.08
4928.00,1.08
4927.00,1.08
4926.00,1.09
4925.00,1.09
4924.00,1.09
4923.00,1.09
4922.00,1.10
4921.00,1.10
4920.00,1.10
4919.00,1.10
4918.00,1.11
4917.00,1.11
4916.00,1.11
4915.00,1.11
4914.00,1.11
4913.00,1.11
4912.00,1.12
4911.00,1.12
4910.00,1.12
4909.00,1.12
4908.00,1.12
4907.00,1.12
4906.00,1.12
4905.00,1.13
4904.00,1.13
4903.00,1.13
4902.00,1.13
4901.00,1.13
4900.00,1.13
4899.00,1.13
4898.00,1.14
4897.00,1.14
4896.00,1.14
4895.00,1.14
4894.00,1.14
4893.00,1.15
4892.00,1.15
4891.00,1.15
4890.00,1.15
4889.00,1.15
4888.00,1.16
4887.00,1.16
4886.00,1.16
4885.00,1.16
4884.00,1.17
4883.00,1.17
4882.00,1.17
4881.00,1.17
4880.00,1.17
4879.00,1.18
4878.00,1.18
4877.00,1.18
4876.00,1.18
4875.00,1.18
4874.00,1.19
4873.00,1.19
4872.00,1.19
4871.00,1.19
4870.00,1.19
4869.00,1.20
4868.00,1.20
4867.00,1.20
4866.00,1.20
4865.00,1.20
4864.00,1.20
4863.00,1.21
4862.00,1.21
4861.00,1.21
4860.00,1.21
4859.00,1.21
4858.00,1.22
4857.00,1.22
4856.00,1.22
4855.00,1.22
4854.00,1.23
4853.00,1.23
4852.00,1.23
4851.00,1.23
4850.00,1.24
4849.00,1.24
4848.00,1.24
4847.00,1.25
4846.00,1.25
4845.00,1.25
4844.00,1.26
4843.00,1.26
4842.00,1.26
4841.00,1.26
4840.00,1.27
4839.00,1.27
4838.00,1.27
4837.00,1.28
4836.00,1.28
4835.00,1.28
4834.00,1.28
4833.00,1.29
4832.00,1.29
4831.00,1.29
4830.00,1.29
4829.00,1.30
4828.00,1.30
4827.00,1.30
4826.00,1.30
4825.00,1.30
4824.00,1.30
4823.00,1.31
4822.00,1.31
4821.00,1.31
4820.00,1.31
4819.00,1.31
4818.00,1.31
4817.00,1.31
4816.00,1.31
4815.00,1.31
4814.00,1.31
4813.00,1.31
4812.00,1.32
4811.00,1.32
4810.00,1.32
4809.00,1.32
4808.00,1.32
4807.00,1.32
4806.00,1.32
4805.00,1.32
4804.00,1.33
4803.00,1.33
4802.00,1.33
4801.00,1.33
4800.00,1.33
4799.00,1.33
4798.00,1.33
4797.00,1.34
4796.00,1.34
4795.00,1.34
4794.00,1.35
4793.00,1.35
4792.00,1.35
4791.00,1.36
4790.00,1.36
4789.00,1.36
4788.00,1.37
4787.00,1.37
4786.00,1.37
4785.00,1.38
4784.00,1.38
4783.00,1.38
4782.00,1.39
4781.00,1.39
4780.00,1.39
4779.00,1.40
4778.00,1.40
4777.00,1.40
4776.00,1.41
4775.00,1.41
4774.00,1.41
4773.00,1.42
4772.00,1.42
4771.00,1.42
4770.00,1.43
4769.00,1.43
4768.00,1.43
4767.00,1.44
4766.00,1.44
4765.00,1.44
4764.00,1.44
4763.00,1.45
4762.00,1.45
4761.00,1.45
4760.00,1.45
4759.00,1.46
4758.00,1.46
4757.00,1.46
4756.00,1.47
4755.00,1.47
4754.00,1.47
4753.00,1.48
4752.00,1.48
4751.00,1.48
4750.00,1.49
4749.00,1.49
4748.00,1.49
4747.00,1.49
4746.00,1.50
4745.00,1.50
4744.00,1.50
4743.00,1.50
4742.00,1.50
4741.00,1.51
4740.00,1.51
4739.00,1.51
4738.00,1.51
4737.00,1.51
4736.00,1.52
4735.00,1.52
4734.00,1.52
4733.00,1.53
4732.00,1.53
4731.00,1.53
4730.00,1.53
4729.00,1.54
4728.00,1.54
4727.00,1.54
4726.00,1.55
4725.00,1.55
4724.00,1.55
4723.00,1.55
4722.00,1.56
4721.00,1.56
4720.00,1.56
4719.00,1.57
4718.00,1.57
4717.00,1.57
4716.00,1.58
4715.00,1.58
4714.00,1.58
4713.00,1.59
4712.00,1.59
4711.00,1.59
4710.00,1.60
4709.00,1.60
4708.00,1.60
4707.00,1.61
4706.00,1.61
4705.00,1.61
4704.00,1.61
4703.00,1.61
4702.00,1.62
4701.00,1.62
4700.00,1.62
4699.00,1.62
4698.00,1.62
4697.00,1.63
4696.00,1.63
4695.00,1.63
4694.00,1.63
4693.00,1.64
4692.00,1.64
4691.00,1.64
4690.00,1.64
4689.00,1.65
4688.00,1.65
4687.00,1.65
4686.00,1.65
4685.00,1.65
4684.00,1.66
4683.00,1.66
4682.00,1.66
4681.00,1.66
4680.00,1.67
4679.00,1.67
4678.00,1.67
4677.00,1.67
4676.00,1.68
4675.00,1.68
4674.00,1.68
4673.00,1.68
4672.00,1.68
4671.00,1.69
4670.00,1.69
4669.00,1.69
4668.00,1.69
4667.00,1.70
4666.00,1.70
4665.00,1.70
4664.00,1.70
4663.00,1.70
4662.00,1.71
4661.00,1.71
4660.00,1.71
4659.00,1.71
4658.00,1.72
4657.00,1.72
4656.00,1.72
4655.00,1.72
4654.00,1.72
4653.00,1.72
4652.00,1.73
4651.00,1.73
4650.00,1.73
4649.00,1.73
4648.00,1.74
4647.00,1.74
4646.00,1.74
4645.00,1.74
4644.00,1.75
4643.00,1.75
4642.00,1.75
4641.00,1.75
4640.00,1.75
4639.00,1.75
4638.00,1.75
4637.00,1.75
4636.00,1.75
4635.00,1.76
4634.00,1.76
4633.00,1.76
4632.00,1.76
4631.00,1.76
4630.00,1.76
4629.00,1.76
4628.00,1.76
4627.00,1.76
4626.00,1.76
4625.00,1.76
4624.00,1.76
4623.00,1.76
4622.00,1.76
4621.00,1.76
4620.00,1.76
4619.00,1.76
4618.00,1.76
4617.00,1.76
4616.00,1.76
4615.00,1.76
4614.00,1.77
4613.00,1.77
4612.00,1.77
4611.00,1.77
4610.00,1.77
4609.00,1.77
4608.00,1.78
4607.00,1.78
4606.00,1.78
4605.00,1.78
4604.00,1.78
4603.00,1.78
4602.00,1.79
4601.00,1.79
4600.00,1.79
4599.00,1.79
4598.00,1.79
4597.00,1.79
4596.00,1.80
4595.00,1.80
4594.00,1.80
4593.00,1.80
4592.00,1.80
4591.00,1.81
4590.00,1.81
4589.00,1.81
4588.00,1.81
4587.00,1.81
4586.00,1.81
4585.00,1.81
4584.00,1.82
4583.00,1.82
4582.00,1.82
4581.00,1.82
4580.00,1.82
4579.00,1.82
4578.00,1.82
4577.00,1.82
4576.00,1.83
4575.00,1.83
4574.00,1.83
4573.00,1.83
4572.00,1.83
4571.00,1.83
4570.00,1.83
4569.00,1.83
4568.00,1.83
4567.00,1.83
4566.00,1.83
4565.00,1.83
4564.00,1.83
4563.00,1.83
4562.00,1.83
4561.00,1.83
4560.00,1.83
4559.00,1.83
4558.00,1.83
4557.00,1.83
4556.00,1.83
4555.00,1.83
4554.00,1.83
4553.00,1.83
4552.00,1.83
4551.00,1.83
4550.00,1.83
4549.00,1.84
4548.00,1.84
4547.00,1.84
4546.00,1.84
4545.00,1.84
4544.00,1.84
4543.00,1.84
4542.00,1.84
4541.00,1.85
4540.00,1.85
4539.00,1.85
4538.00,1.85
4537.00,1.85
4536.00,1.85
4535.00,1.85
4534.00,1.85
4533.00,1.85
4532.00,1.85
4531.00,1.85
4530.00,1.85
4529.00,1.85
4528.00,1.85
4527.00,1.85
4526.00,1.85
4525.00,1.85
4524.00,1.85
4523.00,1.85
4522.00,1.85
4521.00,1.85
4520.00,1.85
4519.00,1.85
4518.00,1.84
4517.00,1.84
4516.00,1.84
4515.00,1.84
4514.00,1.84
4513.00,1.84
4512.00,1.84
4511.00,1.84
4510.00,1.84
4509.00,1.84
4508.00,1.84
4507.00,1.85
4506.00,1.85
4505.00,1.85
4504.00,1.85
4503.00,1.85
4502.00,1.85
4501.00,1.85
4500.00,1.85
4499.00,1.85
4498.00,1.85
4497.00,1.85
4496.00,1.85
4495.00,1.85
4494.00,1.85
4493.00,1.85
4492.00,1.85
4491.00,1.85
4490.00,1.85
4489.00,1.86
4488.00,1.86
4487.00,1.86
4486.00,1.86
4485.00,1.86
4484.00,1.86
4483.00,1.85
4482.00,1.85
4481.00,1.85
4480.00,1.85
4479.00,1.85
4478.00,1.85
4477.00,1.85
4476.00,1.85
4475.00,1.85
4474.00,1.84
4473.00,1.84
4472.00,1.84
4471.00,1.84
4470.00,1.84
4469.00,1.84
4468.00,1.84
4467.00,1.83
4466.00,1.83
4465.00,1.83
4464.00,1.83
4463.00,1.82
4462.00,1.82
4461.00,1.82
4460.00,1.81
4459.00,1.81
4458.00,1.81
4457.00,1.80
4456.00,1.80
4455.00,1.79
4454.00,1.79
4453.00,1.79
4452.00,1.78
4451.00,1.77
4450.00,1.77
4449.00,1.76
4448.00,1.76
4447.00,1.75
4446.00,1.74
4445.00,1.74
4444.00,1.73
4443.00,1.72
4442.00,1.71
4441.00,1.71
4440.00,1.70
4439.00,1.69
4438.00,1.68
4437.00,1.67
4436.00,1.66
4435.00,1.65
4434.00,1.64
4433.00,1.63
4432.00,1.63
4431.00,1.62
4430.00,1.61
4429.00,1.60
4428.00,1.60
4427.00,1.59
4426.00,1.58
4425.00,1.58
4424.00,1.57
4423.00,1.56
4422.00,1.56
4421.00,1.55
4420.00,1.55
4419.00,1.55
4418.00,1.54
4417.00,1.54
4416.00,1.54
4415.00,1.54
4414.00,1.54
4413.00,1.54
4412.00,1.54
4411.00,1.54
4410.00,1.54
4409.00,1.55
4408.00,1.55
4407.00,1.55
4406.00,1.55
4405.00,1.55
4404.00,1.56
4403.00,1.56
4402.00,1.56
4401.00,1.57
4400.00,1.57
4399.00,1.58
4398.00,1.58
4397.00,1.58
4396.00,1.59
4395.00,1.59
4394.00,1.60
4393.00,1.60
4392.00,1.60
4391.00,1.61
4390.00,1.61
4389.00,1.61
4388.00,1.62
4387.00,1.62
4386.00,1.62
4385.00,1.63
4384.00,1.63
4383.00,1.63
4382.00,1.63
4381.00,1.63
4380.00,1.64
4379.00,1.64
4378.00,1.64
4377.00,1.64
4376.00,1.64
4375.00,1.64
4374.00,1.64
4373.00,1.64
4372.00,1.64
4371.00,1.64
4370.00,1.64
4369.00,1.63
4368.00,1.63
4367.00,1.63
4366.00,1.63
4365.00,1.63
4364.00,1.62
4363.00,1.62
4362.00,1.62
4361.00,1.61
4360.00,1.61
4359.00,1.61
4358.00,1.60
4357.00,1.60
4356.00,1.59
4355.00,1.59
4354.00,1.59
4353.00,1.58
4352.00,1.58
4351.00,1.58
4350.00,1.58
4349.00,1.58
4348.00,1.57
4347.00,1.57
4346.00,1.57
4345.00,1.57
4344.00,1.58
4343.00,1.58
4342.00,1.58
4341.00,1.58
4340.00,1.58
4339.00,1.59
4338.00,1.59
4337.00,1.59
4336.00,1.60
4335.00,1.60
4334.00,1.60
4333.00,1.61
4332.00,1.61
4331.00,1.62
4330.00,1.62
4329.00,1.63
4328.00,1.64
4327.00,1.64
4326.00,1.65
4325.00,1.65
4324.00,1.66
4323.00,1.66
4322.00,1.66
4321.00,1.67
4320.00,1.67
4319.00,1.68
4318.00,1.68
4317.00,1.68
4316.00,1.69
4315.00,1.69
4314.00,1.69
4313.00,1.70
4312.00,1.70
4311.00,1.70
4310.00,1.71
4309.00,1.71
4308.00,1.71
4307.00,1.71
4306.00,1.72
4305.00,1.72
4304.00,1.72
4303.00,1.72
4302.00,1.72
4301.00,1.73
4300.00,1.73
4299.00,1.73
4298.00,1.73
4297.00,1.73
4296.00,1.73
4295.00,1.73
4294.00,1.73
4293.00,1.73
4292.00,1.73
4291.00,1.73
4290.00,1.72
4289.00,1.72
4288.00,1.72
4287.00,1.72
4286.00,1.71
4285.00,1.71
4284.00,1.71
4283.00,1.70
4282.00,1.70
4281.00,1.70
4280.00,1.70
4279.00,1.69
4278.00,1.69
4277.00,1.69
4276.00,1.69
4275.00,1.68
4274.00,1.68
4273.00,1.68
4272.00,1.68
4271.00,1.68
4270.00,1.67
4269.00,1.67
4268.00,1.67
4267.00,1.67
4266.00,1.67
4265.00,1.68
4264.00,1.68
4263.00,1.68
4262.00,1.68
4261.00,1.68
4260.00,1.69
4259.00,1.69
4258.00,1.69
4257.00,1.69
4256.00,1.69
4255.00,1.70
4254.00,1.70
4253.00,1.70
4252.00,1.70
4251.00,1.70
4250.00,1.70
4249.00,1.70
4248.00,1.70
4247.00,1.71
4246.00,1.71
4245.00,1.71
4244.00,1.71
4243.00,1.71
4242.00,1.71
4241.00,1.71
4240.00,1.71
4239.00,1.71
4238.00,1.71
4237.00,1.71
4236.00,1.71
4235.00,1.71
4234.00,1.71
4233.00,1.71
4232.00,1.71
4231.00,1.71
4230.00,1.71
4229.00,1.71
4228.00,1.71
4227.00,1.71
4226.00,1.71
4225.00,1.71
4224.00,1.71
4223.00,1.71
4222.00,1.71
4221.00,1.71
4220.00,1.71
4219.00,1.71
4218.00,1.71
4217.00,1.71
4216.00,1.70
4215.00,1.70
4214.00,1.70
4213.00,1.70
4212.00,1.70
4211.00,1.70
4210.00,1.70
4209.00,1.70
4208.00,1.70
4207.00,1.70
4206.00,1.70
4205.00,1.69
4204.00,1.69
4203.00,1.69
4202.00,1.69
4201.00,1.69
4200.00,1.69
4199.00,1.68
4198.00,1.68
4197.00,1.68
4196.00,1.68
4195.00,1.67
4194.00,1.67
4193.00,1.67
4192.00,1.66
4191.00,1.66
4190.00,1.66
4189.00,1.66
4188.00,1.65
4187.00,1.65
4186.00,1.65
4185.00,1.64
4184.00,1.64
4183.00,1.64
4182.00,1.63
4181.00,1.63
4180.00,1.63
4179.00,1.62
4178.00,1.62
4177.00,1.62
4176.00,1.62
4175.00,1.62
4174.00,1.62
4173.00,1.62
4172.00,1.62
4171.00,1.62
4170.00,1.62
4169.00,1.62
4168.00,1.62
4167.00,1.62
4166.00,1.62
4165.00,1.62
4164.00,1.62
4163.00,1.62
4162.00,1.63
4161.00,1.63
4160.00,1.63
4159.00,1.63
4158.00,1.64
4157.00,1.64
4156.00,1.64
4155.00,1.64
4154.00,1.65
4153.00,1.65
4152.00,1.65
4151.00,1.65
4150.00,1.65
4149.00,1.65
4148.00,1.65
4147.00,1.65
4146.00,1.65
4145.00,1.65
4144.00,1.65
4143.00,1.65
4142.00,1.65
4141.00,1.65
4140.00,1.64
4139.00,1.64
4138.00,1.64
4137.00,1.63
4136.00,1.63
4135.00,1.62
4134.00,1.62
4133.00,1.61
4132.00,1.61
4131.00,1.60
4130.00,1.59
4129.00,1.59
4128.00,1.58
4127.00,1.57
4126.00,1.57
4125.00,1.56
4124.00,1.56
4123.00,1.55
4122.00,1.55
4121.00,1.54
4120.00,1.54
4119.00,1.53
4118.00,1.53
4117.00,1.52
4116.00,1.52
4115.00,1.51
4114.00,1.51
4113.00,1.51
4112.00,1.50
4111.00,1.50
4110.00,1.50
4109.00,1.50
4108.00,1.50
4107.00,1.50
4106.00,1.50
4105.00,1.50
4104.00,1.50
4103.00,1.50
4102.00,1.50
4101.00,1.51
4100.00,1.51
4099.00,1.51
4098.00,1.51
4097.00,1.51
4096.00,1.52
4095.00,1.52
4094.00,1.53
4093.00,1.53
4092.00,1.53
4091.00,1.54
4090.00,1.54
4089.00,1.55
4088.00,1.55
4087.00,1.56
4086.00,1.56
4085.00,1.57
4084.00,1.57
4083.00,1.57
4082.00,1.58
4081.00,1.58
4080.00,1.59
4079.00,1.59
4078.00,1.59
4077.00,1.60
4076.00,1.60
4075.00,1.60
4074.00,1.61
4073.00,1.61
4072.00,1.61
4071.00,1.61
4070.00,1.61
4069.00,1.62
4068.00,1.62
4067.00,1.62
4066.00,1.62
4065.00,1.62
4064.00,1.62
4063.00,1.62
4062.00,1.62
4061.00,1.62
4060.00,1.62
4059.00,1.63
4058.00,1.63
4057.00,1.63
4056.00,1.63
4055.00,1.63
4054.00,1.64
4053.00,1.64
4052.00,1.64
4051.00,1.65
4050.00,1.65
4049.00,1.65
4048.00,1.66
4047.00,1.66
4046.00,1.67
4045.00,1.67
4044.00,1.67
4043.00,1.68
4042.00,1.68
4041.00,1.68
4040.00,1.69
4039.00,1.69
4038.00,1.69
4037.00,1.69
4036.00,1.69
4035.00,1.70
4034.00,1.70
4033.00,1.70
4032.00,1.70
4031.00,1.70
4030.00,1.71
4029.00,1.71
4028.00,1.71
4027.00,1.71
4026.00,1.71
4025.00,1.71
4024.00,1.71
4023.00,1.72
4022.00,1.72
4021.00,1.72
4020.00,1.72
4019.00,1.72
4018.00,1.72
4017.00,1.72
4016.00,1.73
4015.00,1.73
4014.00,1.74
4013.00,1.74
4012.00,1.75
4011.00,1.76
4010.00,1.77
4009.00,1.78
4008.00,1.79
4007.00,1.80
4006.00,1.81
4005.00,1.82
4004.00,1.82
4003.00,1.83
4002.00,1.84
4001.00,1.85
4000.00,1.86
