创建为新数据集,样品 1275 用户 Administrator 日期 星期六, 八月 17 2019
cm-1,%T
10000.00,1.42
9998.00,1.42
9996.00,1.42
9994.00,1.42
9992.00,1.41
9990.00,1.41
9988.00,1.41
9986.00,1.41
9984.00,1.40
9982.00,1.40
9980.00,1.40
9978.00,1.40
9976.00,1.39
9974.00,1.39
9972.00,1.39
9970.00,1.39
9968.00,1.39
9966.00,1.38
9964.00,1.38
9962.00,1.38
9960.00,1.38
9958.00,1.38
9956.00,1.38
9954.00,1.38
9952.00,1.38
9950.00,1.38
9948.00,1.38
9946.00,1.38
9944.00,1.38
9942.00,1.38
9940.00,1.37
9938.00,1.37
9936.00,1.37
9934.00,1.37
9932.00,1.37
9930.00,1.37
9928.00,1.37
9926.00,1.37
9924.00,1.37
9922.00,1.37
9920.00,1.37
9918.00,1.37
9916.00,1.37
9914.00,1.38
9912.00,1.38
9910.00,1.38
9908.00,1.38
9906.00,1.38
9904.00,1.38
9902.00,1.38
9900.00,1.38
9898.00,1.38
9896.00,1.39
9894.00,1.39
9892.00,1.39
9890.00,1.39
9888.00,1.39
9886.00,1.39
9884.00,1.39
9882.00,1.39
9880.00,1.39
9878.00,1.39
9876.00,1.39
9874.00,1.39
9872.00,1.38
9870.00,1.38
9868.00,1.38
9866.00,1.38
9864.00,1.38
9862.00,1.38
9860.00,1.38
9858.00,1.38
9856.00,1.38
9854.00,1.38
9852.00,1.38
9850.00,1.38
9848.00,1.38
9846.00,1.38
9844.00,1.38
9842.00,1.38
9840.00,1.38
9838.00,1.38
9836.00,1.38
9834.00,1.38
9832.00,1.38
9830.00,1.38
9828.00,1.38
9826.00,1.38
9824.00,1.38
9822.00,1.38
9820.00,1.38
9818.00,1.38
9816.00,1.39
9814.00,1.39
9812.00,1.39
9810.00,1.39
9808.00,1.39
9806.00,1.39
9804.00,1.39
9802.00,1.39
9800.00,1.39
9798.00,1.39
9796.00,1.39
9794.00,1.40
9792.00,1.40
9790.00,1.40
9788.00,1.40
9786.00,1.39
9784.00,1.39
9782.00,1.39
9780.00,1.39
9778.00,1.39
9776.00,1.39
9774.00,1.39
9772.00,1.38
9770.00,1.38
9768.00,1.38
9766.00,1.38
9764.00,1.38
9762.00,1.38
9760.00,1.37
9758.00,1.37
9756.00,1.37
9754.00,1.37
9752.00,1.37
9750.00,1.37
9748.00,1.37
9746.00,1.37
9744.00,1.38
9742.00,1.38
9740.00,1.38
9738.00,1.38
9736.00,1.38
9734.00,1.38
9732.00,1.38
9730.00,1.39
9728.00,1.39
9726.00,1.39
9724.00,1.39
9722.00,1.39
9720.00,1.39
9718.00,1.39
9716.00,1.39
9714.00,1.39
9712.00,1.39
9710.00,1.40
9708.00,1.40
9706.00,1.40
9704.00,1.40
9702.00,1.40
9700.00,1.40
9698.00,1.40
9696.00,1.40
9694.00,1.40
9692.00,1.40
9690.00,1.40
9688.00,1.40
9686.00,1.40
9684.00,1.40
9682.00,1.40
9680.00,1.40
9678.00,1.40
9676.00,1.40
9674.00,1.40
9672.00,1.40
9670.00,1.41
9668.00,1.41
9666.00,1.41
9664.00,1.40
9662.00,1.40
9660.00,1.40
9658.00,1.40
9656.00,1.40
9654.00,1.40
9652.00,1.40
9650.00,1.40
9648.00,1.40
9646.00,1.40
9644.00,1.40
9642.00,1.40
9640.00,1.40
9638.00,1.40
9636.00,1.40
9634.00,1.40
9632.00,1.40
9630.00,1.40
9628.00,1.40
9626.00,1.40
9624.00,1.40
9622.00,1.40
9620.00,1.40
9618.00,1.40
9616.00,1.40
9614.00,1.40
9612.00,1.40
9610.00,1.40
9608.00,1.40
9606.00,1.39
9604.00,1.39
9602.00,1.39
9600.00,1.39
9598.00,1.39
9596.00,1.39
9594.00,1.39
9592.00,1.39
9590.00,1.39
9588.00,1.39
9586.00,1.39
9584.00,1.39
9582.00,1.39
9580.00,1.39
9578.00,1.39
9576.00,1.39
9574.00,1.40
9572.00,1.40
9570.00,1.40
9568.00,1.40
9566.00,1.40
9564.00,1.41
9562.00,1.41
9560.00,1.41
9558.00,1.41
9556.00,1.41
9554.00,1.41
9552.00,1.41
9550.00,1.42
9548.00,1.42
9546.00,1.42
9544.00,1.42
9542.00,1.42
9540.00,1.42
9538.00,1.42
9536.00,1.41
9534.00,1.41
9532.00,1.41
9530.00,1.41
9528.00,1.41
9526.00,1.41
9524.00,1.41
9522.00,1.41
9520.00,1.41
9518.00,1.41
9516.00,1.41
9514.00,1.41
9512.00,1.41
9510.00,1.41
9508.00,1.41
9506.00,1.40
9504.00,1.40
9502.00,1.40
9500.00,1.40
9498.00,1.40
9496.00,1.40
9494.00,1.40
9492.00,1.39
9490.00,1.39
9488.00,1.39
9486.00,1.39
9484.00,1.39
9482.00,1.39
9480.00,1.39
9478.00,1.39
9476.00,1.39
9474.00,1.39
9472.00,1.39
9470.00,1.39
9468.00,1.39
9466.00,1.39
9464.00,1.39
9462.00,1.39
9460.00,1.39
9458.00,1.39
9456.00,1.39
9454.00,1.39
9452.00,1.39
9450.00,1.39
9448.00,1.39
9446.00,1.38
9444.00,1.38
9442.00,1.38
9440.00,1.38
9438.00,1.38
9436.00,1.38
9434.00,1.38
9432.00,1.38
9430.00,1.38
9428.00,1.38
9426.00,1.38
9424.00,1.39
9422.00,1.39
9420.00,1.39
9418.00,1.39
9416.00,1.39
9414.00,1.39
9412.00,1.39
9410.00,1.40
9408.00,1.40
9406.00,1.40
9404.00,1.40
9402.00,1.40
9400.00,1.40
9398.00,1.40
9396.00,1.40
9394.00,1.40
9392.00,1.40
9390.00,1.40
9388.00,1.40
9386.00,1.40
9384.00,1.40
9382.00,1.40
9380.00,1.40
9378.00,1.40
9376.00,1.40
9374.00,1.40
9372.00,1.39
9370.00,1.39
9368.00,1.39
9366.00,1.39
9364.00,1.39
9362.00,1.39
9360.00,1.39
9358.00,1.39
9356.00,1.39
9354.00,1.39
9352.00,1.39
9350.00,1.39
9348.00,1.39
9346.00,1.39
9344.00,1.39
9342.00,1.39
9340.00,1.40
9338.00,1.40
9336.00,1.40
9334.00,1.40
9332.00,1.40
9330.00,1.40
9328.00,1.40
9326.00,1.40
9324.00,1.40
9322.00,1.40
9320.00,1.41
9318.00,1.41
9316.00,1.41
9314.00,1.41
9312.00,1.41
9310.00,1.41
9308.00,1.41
9306.00,1.41
9304.00,1.40
9302.00,1.40
9300.00,1.40
9298.00,1.40
9296.00,1.40
9294.00,1.40
9292.00,1.40
9290.00,1.40
9288.00,1.40
9286.00,1.40
9284.00,1.40
9282.00,1.40
9280.00,1.40
9278.00,1.40
9276.00,1.40
9274.00,1.40
9272.00,1.40
9270.00,1.40
9268.00,1.41
9266.00,1.41
9264.00,1.41
9262.00,1.41
9260.00,1.41
9258.00,1.41
9256.00,1.41
9254.00,1.41
9252.00,1.41
9250.00,1.41
9248.00,1.41
9246.00,1.41
9244.00,1.41
9242.00,1.40
9240.00,1.40
9238.00,1.40
9236.00,1.40
9234.00,1.40
9232.00,1.40
9230.00,1.40
9228.00,1.40
9226.00,1.40
9224.00,1.40
9222.00,1.40
9220.00,1.39
9218.00,1.39
9216.00,1.39
9214.00,1.39
9212.00,1.39
9210.00,1.39
9208.00,1.39
9206.00,1.39
9204.00,1.39
9202.00,1.39
9200.00,1.39
9198.00,1.39
9196.00,1.39
9194.00,1.39
9192.00,1.39
9190.00,1.39
9188.00,1.39
9186.00,1.39
9184.00,1.39
9182.00,1.39
9180.00,1.39
9178.00,1.39
9176.00,1.39
9174.00,1.39
9172.00,1.39
9170.00,1.39
9168.00,1.39
9166.00,1.39
9164.00,1.39
9162.00,1.39
9160.00,1.40
9158.00,1.40
9156.00,1.40
9154.00,1.40
9152.00,1.40
9150.00,1.40
9148.00,1.40
9146.00,1.40
9144.00,1.40
9142.00,1.41
9140.00,1.41
9138.00,1.41
9136.00,1.41
9134.00,1.41
9132.00,1.41
9130.00,1.41
9128.00,1.41
9126.00,1.41
9124.00,1.41
9122.00,1.41
9120.00,1.41
9118.00,1.41
9116.00,1.41
9114.00,1.41
9112.00,1.41
9110.00,1.41
9108.00,1.41
9106.00,1.41
9104.00,1.40
9102.00,1.40
9100.00,1.40
9098.00,1.40
9096.00,1.40
9094.00,1.40
9092.00,1.40
9090.00,1.39
9088.00,1.39
9086.00,1.39
9084.00,1.39
9082.00,1.39
9080.00,1.39
9078.00,1.39
9076.00,1.39
9074.00,1.39
9072.00,1.39
9070.00,1.39
9068.00,1.39
9066.00,1.39
9064.00,1.39
9062.00,1.39
9060.00,1.39
9058.00,1.39
9056.00,1.39
9054.00,1.39
9052.00,1.39
9050.00,1.39
9048.00,1.39
9046.00,1.39
9044.00,1.39
9042.00,1.39
9040.00,1.39
9038.00,1.39
9036.00,1.39
9034.00,1.39
9032.00,1.39
9030.00,1.39
9028.00,1.39
9026.00,1.39
9024.00,1.39
9022.00,1.39
9020.00,1.39
9018.00,1.39
9016.00,1.39
9014.00,1.39
9012.00,1.39
9010.00,1.39
9008.00,1.39
9006.00,1.39
9004.00,1.39
9002.00,1.39
9000.00,1.39
8998.00,1.39
8996.00,1.39
8994.00,1.39
8992.00,1.39
8990.00,1.39
8988.00,1.39
8986.00,1.39
8984.00,1.39
8982.00,1.39
8980.00,1.39
8978.00,1.39
8976.00,1.39
8974.00,1.39
8972.00,1.39
8970.00,1.40
8968.00,1.40
8966.00,1.40
8964.00,1.40
8962.00,1.40
8960.00,1.40
8958.00,1.40
8956.00,1.40
8954.00,1.40
8952.00,1.40
8950.00,1.40
8948.00,1.40
8946.00,1.40
8944.00,1.40
8942.00,1.40
8940.00,1.41
8938.00,1.41
8936.00,1.41
8934.00,1.41
8932.00,1.41
8930.00,1.41
8928.00,1.41
8926.00,1.41
8924.00,1.41
8922.00,1.41
8920.00,1.41
8918.00,1.41
8916.00,1.41
8914.00,1.41
8912.00,1.41
8910.00,1.41
8908.00,1.41
8906.00,1.41
8904.00,1.41
8902.00,1.41
8900.00,1.40
8898.00,1.40
8896.00,1.40
8894.00,1.40
8892.00,1.40
8890.00,1.40
8888.00,1.40
8886.00,1.40
8884.00,1.40
8882.00,1.40
8880.00,1.40
8878.00,1.40
8876.00,1.40
8874.00,1.40
8872.00,1.40
8870.00,1.40
8868.00,1.40
8866.00,1.40
8864.00,1.40
8862.00,1.40
8860.00,1.40
8858.00,1.40
8856.00,1.40
8854.00,1.40
8852.00,1.40
8850.00,1.40
8848.00,1.40
8846.00,1.40
8844.00,1.39
8842.00,1.39
8840.00,1.39
8838.00,1.39
8836.00,1.39
8834.00,1.39
8832.00,1.39
8830.00,1.39
8828.00,1.39
8826.00,1.39
8824.00,1.39
8822.00,1.39
8820.00,1.39
8818.00,1.39
8816.00,1.39
8814.00,1.39
8812.00,1.39
8810.00,1.39
8808.00,1.39
8806.00,1.39
8804.00,1.39
8802.00,1.39
8800.00,1.39
8798.00,1.39
8796.00,1.39
8794.00,1.39
8792.00,1.39
8790.00,1.39
8788.00,1.39
8786.00,1.39
8784.00,1.39
8782.00,1.39
8780.00,1.39
8778.00,1.39
8776.00,1.38
8774.00,1.38
8772.00,1.38
8770.00,1.38
8768.00,1.38
8766.00,1.38
8764.00,1.38
8762.00,1.38
8760.00,1.38
8758.00,1.38
8756.00,1.37
8754.00,1.37
8752.00,1.37
8750.00,1.37
8748.00,1.37
8746.00,1.37
8744.00,1.37
8742.00,1.37
8740.00,1.37
8738.00,1.37
8736.00,1.37
8734.00,1.37
8732.00,1.37
8730.00,1.37
8728.00,1.37
8726.00,1.37
8724.00,1.37
8722.00,1.37
8720.00,1.37
8718.00,1.37
8716.00,1.37
8714.00,1.37
8712.00,1.37
8710.00,1.37
8708.00,1.37
8706.00,1.37
8704.00,1.37
8702.00,1.37
8700.00,1.37
8698.00,1.37
8696.00,1.37
8694.00,1.37
8692.00,1.37
8690.00,1.38
8688.00,1.38
8686.00,1.38
8684.00,1.38
8682.00,1.38
8680.00,1.38
8678.00,1.38
8676.00,1.38
8674.00,1.38
8672.00,1.38
8670.00,1.38
8668.00,1.38
8666.00,1.38
8664.00,1.38
8662.00,1.38
8660.00,1.38
8658.00,1.38
8656.00,1.38
8654.00,1.38
8652.00,1.38
8650.00,1.38
8648.00,1.38
8646.00,1.38
8644.00,1.38
8642.00,1.38
8640.00,1.38
8638.00,1.37
8636.00,1.37
8634.00,1.37
8632.00,1.37
8630.00,1.37
8628.00,1.37
8626.00,1.37
8624.00,1.37
8622.00,1.37
8620.00,1.37
8618.00,1.37
8616.00,1.37
8614.00,1.37
8612.00,1.37
8610.00,1.37
8608.00,1.37
8606.00,1.37
8604.00,1.37
8602.00,1.37
8600.00,1.36
8598.00,1.36
8596.00,1.36
8594.00,1.36
8592.00,1.36
8590.00,1.36
8588.00,1.36
8586.00,1.36
8584.00,1.36
8582.00,1.36
8580.00,1.36
8578.00,1.36
8576.00,1.36
8574.00,1.36
8572.00,1.36
8570.00,1.36
8568.00,1.36
8566.00,1.36
8564.00,1.36
8562.00,1.36
8560.00,1.36
8558.00,1.36
8556.00,1.36
8554.00,1.36
8552.00,1.36
8550.00,1.36
8548.00,1.36
8546.00,1.36
8544.00,1.36
8542.00,1.36
8540.00,1.36
8538.00,1.36
8536.00,1.36
8534.00,1.36
8532.00,1.36
8530.00,1.37
8528.00,1.37
8526.00,1.37
8524.00,1.37
8522.00,1.37
8520.00,1.37
8518.00,1.37
8516.00,1.37
8514.00,1.37
8512.00,1.37
8510.00,1.37
8508.00,1.37
8506.00,1.37
8504.00,1.37
8502.00,1.37
8500.00,1.37
8498.00,1.37
8496.00,1.37
8494.00,1.36
8492.00,1.36
8490.00,1.36
8488.00,1.36
8486.00,1.36
8484.00,1.36
8482.00,1.36
8480.00,1.36
8478.00,1.36
8476.00,1.36
8474.00,1.36
8472.00,1.36
8470.00,1.36
8468.00,1.36
8466.00,1.36
8464.00,1.36
8462.00,1.36
8460.00,1.36
8458.00,1.36
8456.00,1.36
8454.00,1.35
8452.00,1.35
8450.00,1.35
8448.00,1.35
8446.00,1.35
8444.00,1.35
8442.00,1.35
8440.00,1.35
8438.00,1.35
8436.00,1.35
8434.00,1.36
8432.00,1.36
8430.00,1.36
8428.00,1.36
8426.00,1.36
8424.00,1.36
8422.00,1.36
8420.00,1.36
8418.00,1.36
8416.00,1.36
8414.00,1.36
8412.00,1.36
8410.00,1.36
8408.00,1.36
8406.00,1.36
8404.00,1.36
8402.00,1.36
8400.00,1.36
8398.00,1.36
8396.00,1.36
8394.00,1.36
8392.00,1.36
8390.00,1.36
8388.00,1.36
8386.00,1.36
8384.00,1.37
8382.00,1.37
8380.00,1.36
8378.00,1.36
8376.00,1.36
8374.00,1.36
8372.00,1.36
8370.00,1.36
8368.00,1.36
8366.00,1.36
8364.00,1.36
8362.00,1.36
8360.00,1.36
8358.00,1.36
8356.00,1.36
8354.00,1.36
8352.00,1.36
8350.00,1.36
8348.00,1.36
8346.00,1.36
8344.00,1.36
8342.00,1.36
8340.00,1.36
8338.00,1.36
8336.00,1.36
8334.00,1.36
8332.00,1.36
8330.00,1.36
8328.00,1.36
8326.00,1.37
8324.00,1.37
8322.00,1.37
8320.00,1.37
8318.00,1.37
8316.00,1.37
8314.00,1.37
8312.00,1.37
8310.00,1.37
8308.00,1.37
8306.00,1.37
8304.00,1.37
8302.00,1.37
8300.00,1.37
8298.00,1.37
8296.00,1.37
8294.00,1.37
8292.00,1.37
8290.00,1.37
8288.00,1.37
8286.00,1.37
8284.00,1.37
8282.00,1.37
8280.00,1.37
8278.00,1.37
8276.00,1.37
8274.00,1.37
8272.00,1.37
8270.00,1.37
8268.00,1.37
8266.00,1.37
8264.00,1.37
8262.00,1.37
8260.00,1.37
8258.00,1.37
8256.00,1.37
8254.00,1.37
8252.00,1.37
8250.00,1.37
8248.00,1.38
8246.00,1.38
8244.00,1.38
8242.00,1.38
8240.00,1.38
8238.00,1.38
8236.00,1.38
8234.00,1.38
8232.00,1.38
8230.00,1.38
8228.00,1.38
8226.00,1.38
8224.00,1.38
8222.00,1.38
8220.00,1.38
8218.00,1.39
8216.00,1.39
8214.00,1.39
8212.00,1.39
8210.00,1.39
8208.00,1.39
8206.00,1.39
8204.00,1.39
8202.00,1.39
8200.00,1.39
8198.00,1.39
8196.00,1.39
8194.00,1.39
8192.00,1.39
8190.00,1.39
8188.00,1.39
8186.00,1.39
8184.00,1.39
8182.00,1.39
8180.00,1.39
8178.00,1.39
8176.00,1.39
8174.00,1.39
8172.00,1.39
8170.00,1.39
8168.00,1.39
8166.00,1.39
8164.00,1.38
8162.00,1.38
8160.00,1.38
8158.00,1.38
8156.00,1.38
8154.00,1.38
8152.00,1.38
8150.00,1.38
8148.00,1.38
8146.00,1.38
8144.00,1.38
8142.00,1.39
8140.00,1.39
8138.00,1.39
8136.00,1.39
8134.00,1.39
8132.00,1.39
8130.00,1.39
8128.00,1.39
8126.00,1.39
8124.00,1.39
8122.00,1.39
8120.00,1.39
8118.00,1.39
8116.00,1.39
8114.00,1.39
8112.00,1.39
8110.00,1.39
8108.00,1.39
8106.00,1.39
8104.00,1.39
8102.00,1.39
8100.00,1.39
8098.00,1.39
8096.00,1.39
8094.00,1.39
8092.00,1.39
8090.00,1.39
8088.00,1.39
8086.00,1.39
8084.00,1.39
8082.00,1.39
8080.00,1.39
8078.00,1.39
8076.00,1.39
8074.00,1.39
8072.00,1.39
8070.00,1.39
8068.00,1.39
8066.00,1.39
8064.00,1.39
8062.00,1.39
8060.00,1.39
8058.00,1.39
8056.00,1.39
8054.00,1.39
8052.00,1.39
8050.00,1.39
8048.00,1.39
8046.00,1.39
8044.00,1.40
8042.00,1.40
8040.00,1.40
8038.00,1.40
8036.00,1.40
8034.00,1.40
8032.00,1.40
8030.00,1.40
8028.00,1.40
8026.00,1.40
8024.00,1.40
8022.00,1.40
8020.00,1.40
8018.00,1.40
8016.00,1.40
8014.00,1.40
8012.00,1.40
8010.00,1.40
8008.00,1.40
8006.00,1.40
8004.00,1.40
8002.00,1.40
8000.00,1.40
7998.00,1.40
7996.00,1.40
7994.00,1.40
7992.00,1.40
7990.00,1.40
7988.00,1.40
7986.00,1.40
7984.00,1.40
7982.00,1.40
7980.00,1.40
7978.00,1.40
7976.00,1.40
7974.00,1.40
7972.00,1.40
7970.00,1.40
7968.00,1.40
7966.00,1.40
7964.00,1.40
7962.00,1.40
7960.00,1.40
7958.00,1.41
7956.00,1.41
7954.00,1.41
7952.00,1.41
7950.00,1.41
7948.00,1.41
7946.00,1.41
7944.00,1.41
7942.00,1.40
7940.00,1.40
7938.00,1.40
7936.00,1.40
7934.00,1.40
7932.00,1.40
7930.00,1.40
7928.00,1.40
7926.00,1.40
7924.00,1.40
7922.00,1.40
7920.00,1.40
7918.00,1.40
7916.00,1.40
7914.00,1.40
7912.00,1.40
7910.00,1.40
7908.00,1.40
7906.00,1.40
7904.00,1.40
7902.00,1.40
7900.00,1.40
7898.00,1.40
7896.00,1.40
7894.00,1.40
7892.00,1.40
7890.00,1.40
7888.00,1.40
7886.00,1.40
7884.00,1.41
7882.00,1.41
7880.00,1.41
7878.00,1.41
7876.00,1.41
7874.00,1.41
7872.00,1.41
7870.00,1.41
7868.00,1.40
7866.00,1.40
7864.00,1.40
7862.00,1.40
7860.00,1.40
7858.00,1.40
7856.00,1.40
7854.00,1.40
7852.00,1.40
7850.00,1.40
7848.00,1.40
7846.00,1.40
7844.00,1.40
7842.00,1.40
7840.00,1.40
7838.00,1.40
7836.00,1.40
7834.00,1.41
7832.00,1.41
7830.00,1.41
7828.00,1.41
7826.00,1.41
7824.00,1.41
7822.00,1.41
7820.00,1.41
7818.00,1.41
7816.00,1.41
7814.00,1.41
7812.00,1.41
7810.00,1.41
7808.00,1.41
7806.00,1.41
7804.00,1.41
7802.00,1.41
7800.00,1.41
7798.00,1.41
7796.00,1.41
7794.00,1.41
7792.00,1.41
7790.00,1.41
7788.00,1.41
7786.00,1.41
7784.00,1.41
7782.00,1.41
7780.00,1.41
7778.00,1.41
7776.00,1.41
7774.00,1.41
7772.00,1.41
7770.00,1.41
7768.00,1.41
7766.00,1.41
7764.00,1.41
7762.00,1.41
7760.00,1.41
7758.00,1.41
7756.00,1.41
7754.00,1.41
7752.00,1.41
7750.00,1.41
7748.00,1.41
7746.00,1.41
7744.00,1.41
7742.00,1.42
7740.00,1.42
7738.00,1.42
7736.00,1.42
7734.00,1.42
7732.00,1.42
7730.00,1.42
7728.00,1.42
7726.00,1.42
7724.00,1.42
7722.00,1.42
7720.00,1.42
7718.00,1.42
7716.00,1.42
7714.00,1.42
7712.00,1.42
7710.00,1.42
7708.00,1.42
7706.00,1.42
7704.00,1.42
7702.00,1.42
7700.00,1.42
7698.00,1.42
7696.00,1.42
7694.00,1.42
7692.00,1.42
7690.00,1.42
7688.00,1.42
7686.00,1.42
7684.00,1.42
7682.00,1.42
7680.00,1.42
7678.00,1.42
7676.00,1.42
7674.00,1.42
7672.00,1.42
7670.00,1.42
7668.00,1.41
7666.00,1.41
7664.00,1.41
7662.00,1.41
7660.00,1.41
7658.00,1.41
7656.00,1.41
7654.00,1.41
7652.00,1.41
7650.00,1.41
7648.00,1.41
7646.00,1.41
7644.00,1.41
7642.00,1.41
7640.00,1.41
7638.00,1.41
7636.00,1.41
7634.00,1.41
7632.00,1.41
7630.00,1.41
7628.00,1.41
7626.00,1.41
7624.00,1.41
7622.00,1.41
7620.00,1.41
7618.00,1.41
7616.00,1.41
7614.00,1.41
7612.00,1.41
7610.00,1.41
7608.00,1.41
7606.00,1.41
7604.00,1.41
7602.00,1.41
7600.00,1.41
7598.00,1.41
7596.00,1.41
7594.00,1.41
7592.00,1.41
7590.00,1.41
7588.00,1.41
7586.00,1.41
7584.00,1.41
7582.00,1.41
7580.00,1.41
7578.00,1.41
7576.00,1.41
7574.00,1.41
7572.00,1.41
7570.00,1.41
7568.00,1.41
7566.00,1.41
7564.00,1.41
7562.00,1.41
7560.00,1.41
7558.00,1.41
7556.00,1.41
7554.00,1.41
7552.00,1.41
7550.00,1.41
7548.00,1.41
7546.00,1.41
7544.00,1.41
7542.00,1.41
7540.00,1.41
7538.00,1.41
7536.00,1.41
7534.00,1.41
7532.00,1.40
7530.00,1.40
7528.00,1.40
7526.00,1.40
7524.00,1.40
7522.00,1.40
7520.00,1.40
7518.00,1.40
7516.00,1.40
7514.00,1.40
7512.00,1.40
7510.00,1.40
7508.00,1.40
7506.00,1.40
7504.00,1.40
7502.00,1.40
7500.00,1.40
7498.00,1.40
7496.00,1.40
7494.00,1.40
7492.00,1.40
7490.00,1.40
7488.00,1.40
7486.00,1.40
7484.00,1.40
7482.00,1.40
7480.00,1.40
7478.00,1.40
7476.00,1.40
7474.00,1.40
7472.00,1.39
7470.00,1.39
7468.00,1.39
7466.00,1.39
7464.00,1.39
7462.00,1.39
7460.00,1.39
7458.00,1.39
7456.00,1.39
7454.00,1.39
7452.00,1.39
7450.00,1.39
7448.00,1.39
7446.00,1.39
7444.00,1.39
7442.00,1.39
7440.00,1.39
7438.00,1.39
7436.00,1.39
7434.00,1.38
7432.00,1.38
7430.00,1.38
7428.00,1.38
7426.00,1.38
7424.00,1.38
7422.00,1.38
7420.00,1.38
7418.00,1.38
7416.00,1.38
7414.00,1.37
7412.00,1.37
7410.00,1.37
7408.00,1.37
7406.00,1.37
7404.00,1.37
7402.00,1.37
7400.00,1.37
7398.00,1.37
7396.00,1.37
7394.00,1.37
7392.00,1.37
7390.00,1.36
7388.00,1.36
7386.00,1.36
7384.00,1.36
7382.00,1.36
7380.00,1.36
7378.00,1.36
7376.00,1.36
7374.00,1.36
7372.00,1.36
7370.00,1.36
7368.00,1.35
7366.00,1.35
7364.00,1.35
7362.00,1.35
7360.00,1.35
7358.00,1.35
7356.00,1.35
7354.00,1.35
7352.00,1.35
7350.00,1.35
7348.00,1.35
7346.00,1.35
7344.00,1.35
7342.00,1.35
7340.00,1.35
7338.00,1.35
7336.00,1.35
7334.00,1.35
7332.00,1.35
7330.00,1.35
7328.00,1.35
7326.00,1.35
7324.00,1.35
7322.00,1.35
7320.00,1.35
7318.00,1.35
7316.00,1.35
7314.00,1.35
7312.00,1.35
7310.00,1.35
7308.00,1.35
7306.00,1.35
7304.00,1.34
7302.00,1.34
7300.00,1.34
7298.00,1.34
7296.00,1.34
7294.00,1.34
7292.00,1.34
7290.00,1.34
7288.00,1.34
7286.00,1.34
7284.00,1.33
7282.00,1.33
7280.00,1.33
7278.00,1.33
7276.00,1.33
7274.00,1.33
7272.00,1.33
7270.00,1.32
7268.00,1.32
7266.00,1.32
7264.00,1.32
7262.00,1.32
7260.00,1.32
7258.00,1.31
7256.00,1.31
7254.00,1.31
7252.00,1.31
7250.00,1.30
7248.00,1.30
7246.00,1.30
7244.00,1.29
7242.00,1.29
7240.00,1.29
7238.00,1.28
7236.00,1.28
7234.00,1.28
7232.00,1.27
7230.00,1.27
7228.00,1.27
7226.00,1.26
7224.00,1.26
7222.00,1.26
7220.00,1.25
7218.00,1.25
7216.00,1.24
7214.00,1.24
7212.00,1.24
7210.00,1.23
7208.00,1.23
7206.00,1.23
7204.00,1.22
7202.00,1.22
7200.00,1.21
7198.00,1.21
7196.00,1.20
7194.00,1.20
7192.00,1.19
7190.00,1.19
7188.00,1.18
7186.00,1.18
7184.00,1.17
7182.00,1.17
7180.00,1.16
7178.00,1.16
7176.00,1.15
7174.00,1.15
7172.00,1.14
7170.00,1.14
7168.00,1.13
7166.00,1.13
7164.00,1.12
7162.00,1.12
7160.00,1.11
7158.00,1.11
7156.00,1.10
7154.00,1.10
7152.00,1.09
7150.00,1.09
7148.00,1.08
7146.00,1.08
7144.00,1.07
7142.00,1.07
7140.00,1.06
7138.00,1.06
7136.00,1.06
7134.00,1.05
7132.00,1.05
7130.00,1.04
7128.00,1.04
7126.00,1.03
7124.00,1.03
7122.00,1.02
7120.00,1.02
7118.00,1.02
7116.00,1.01
7114.00,1.01
7112.00,1.01
7110.00,1.00
7108.00,1.00
7106.00,1.00
7104.00,0.99
7102.00,0.99
7100.00,0.99
7098.00,0.98
7096.00,0.98
7094.00,0.98
7092.00,0.97
7090.00,0.97
7088.00,0.97
7086.00,0.96
7084.00,0.96
7082.00,0.96
7080.00,0.95
7078.00,0.95
7076.00,0.95
7074.00,0.95
7072.00,0.94
7070.00,0.94
7068.00,0.94
7066.00,0.93
7064.00,0.93
7062.00,0.93
7060.00,0.93
7058.00,0.92
7056.00,0.92
7054.00,0.92
7052.00,0.92
7050.00,0.91
7048.00,0.91
7046.00,0.91
7044.00,0.91
7042.00,0.91
7040.00,0.90
7038.00,0.90
7036.00,0.90
7034.00,0.90
7032.00,0.90
7030.00,0.89
7028.00,0.89
7026.00,0.89
7024.00,0.89
7022.00,0.89
7020.00,0.89
7018.00,0.88
7016.00,0.88
7014.00,0.88
7012.00,0.88
7010.00,0.88
7008.00,0.88
7006.00,0.87
7004.00,0.87
7002.00,0.87
7000.00,0.87
6998.00,0.87
6996.00,0.87
6994.00,0.87
6992.00,0.87
6990.00,0.87
6988.00,0.86
6986.00,0.86
6984.00,0.86
6982.00,0.86
6980.00,0.86
6978.00,0.86
6976.00,0.86
6974.00,0.86
6972.00,0.85
6970.00,0.85
6968.00,0.85
6966.00,0.85
6964.00,0.85
6962.00,0.85
6960.00,0.85
6958.00,0.84
6956.00,0.84
6954.00,0.84
6952.00,0.84
6950.00,0.84
6948.00,0.84
6946.00,0.84
6944.00,0.84
6942.00,0.84
6940.00,0.84
6938.00,0.83
6936.00,0.83
6934.00,0.83
6932.00,0.83
6930.00,0.83
6928.00,0.83
6926.00,0.83
6924.00,0.83
6922.00,0.83
6920.00,0.83
6918.00,0.83
6916.00,0.83
6914.00,0.83
6912.00,0.83
6910.00,0.83
6908.00,0.83
6906.00,0.83
6904.00,0.83
6902.00,0.83
6900.00,0.83
6898.00,0.83
6896.00,0.83
6894.00,0.83
6892.00,0.83
6890.00,0.83
6888.00,0.83
6886.00,0.83
6884.00,0.83
6882.00,0.83
6880.00,0.83
6878.00,0.83
6876.00,0.83
6874.00,0.83
6872.00,0.83
6870.00,0.83
6868.00,0.83
6866.00,0.83
6864.00,0.83
6862.00,0.83
6860.00,0.83
6858.00,0.83
6856.00,0.83
6854.00,0.83
6852.00,0.83
6850.00,0.83
6848.00,0.83
6846.00,0.83
6844.00,0.83
6842.00,0.83
6840.00,0.83
6838.00,0.83
6836.00,0.83
6834.00,0.83
6832.00,0.83
6830.00,0.84
6828.00,0.84
6826.00,0.84
6824.00,0.84
6822.00,0.84
6820.00,0.84
6818.00,0.84
6816.00,0.84
6814.00,0.84
6812.00,0.84
6810.00,0.84
6808.00,0.85
6806.00,0.85
6804.00,0.85
6802.00,0.85
6800.00,0.85
6798.00,0.85
6796.00,0.85
6794.00,0.86
6792.00,0.86
6790.00,0.86
6788.00,0.86
6786.00,0.86
6784.00,0.86
6782.00,0.86
6780.00,0.86
6778.00,0.87
6776.00,0.87
6774.00,0.87
6772.00,0.87
6770.00,0.87
6768.00,0.87
6766.00,0.87
6764.00,0.88
6762.00,0.88
6760.00,0.88
6758.00,0.88
6756.00,0.88
6754.00,0.88
6752.00,0.89
6750.00,0.89
6748.00,0.89
6746.00,0.89
6744.00,0.89
6742.00,0.90
6740.00,0.90
6738.00,0.90
6736.00,0.90
6734.00,0.90
6732.00,0.90
6730.00,0.91
6728.00,0.91
6726.00,0.91
6724.00,0.91
6722.00,0.91
6720.00,0.91
6718.00,0.91
6716.00,0.92
6714.00,0.92
6712.00,0.92
6710.00,0.92
6708.00,0.92
6706.00,0.92
6704.00,0.93
6702.00,0.93
6700.00,0.93
6698.00,0.93
6696.00,0.93
6694.00,0.93
6692.00,0.94
6690.00,0.94
6688.00,0.94
6686.00,0.94
6684.00,0.94
6682.00,0.94
6680.00,0.95
6678.00,0.95
6676.00,0.95
6674.00,0.95
6672.00,0.95
6670.00,0.96
6668.00,0.96
6666.00,0.96
6664.00,0.96
6662.00,0.96
6660.00,0.97
6658.00,0.97
6656.00,0.97
6654.00,0.97
6652.00,0.98
6650.00,0.98
6648.00,0.98
6646.00,0.98
6644.00,0.98
6642.00,0.99
6640.00,0.99
6638.00,0.99
6636.00,0.99
6634.00,1.00
6632.00,1.00
6630.00,1.00
6628.00,1.00
6626.00,1.00
6624.00,1.01
6622.00,1.01
6620.00,1.01
6618.00,1.01
6616.00,1.01
6614.00,1.02
6612.00,1.02
6610.00,1.02
6608.00,1.02
6606.00,1.02
6604.00,1.03
6602.00,1.03
6600.00,1.03
6598.00,1.03
6596.00,1.04
6594.00,1.04
6592.00,1.04
6590.00,1.04
6588.00,1.04
6586.00,1.05
6584.00,1.05
6582.00,1.05
6580.00,1.05
6578.00,1.05
6576.00,1.05
6574.00,1.06
6572.00,1.06
6570.00,1.06
6568.00,1.06
6566.00,1.06
6564.00,1.06
6562.00,1.07
6560.00,1.07
6558.00,1.07
6556.00,1.07
6554.00,1.07
6552.00,1.07
6550.00,1.08
6548.00,1.08
6546.00,1.08
6544.00,1.08
6542.00,1.08
6540.00,1.08
6538.00,1.09
6536.00,1.09
6534.00,1.09
6532.00,1.09
6530.00,1.09
6528.00,1.09
6526.00,1.10
6524.00,1.10
6522.00,1.10
6520.00,1.10
6518.00,1.10
6516.00,1.10
6514.00,1.10
6512.00,1.11
6510.00,1.11
6508.00,1.11
6506.00,1.11
6504.00,1.11
6502.00,1.11
6500.00,1.11
6498.00,1.12
6496.00,1.12
6494.00,1.12
6492.00,1.12
6490.00,1.12
6488.00,1.12
6486.00,1.13
6484.00,1.13
6482.00,1.13
6480.00,1.13
6478.00,1.13
6476.00,1.13
6474.00,1.14
6472.00,1.14
6470.00,1.14
6468.00,1.14
6466.00,1.14
6464.00,1.14
6462.00,1.14
6460.00,1.15
6458.00,1.15
6456.00,1.15
6454.00,1.15
6452.00,1.15
6450.00,1.15
6448.00,1.15
6446.00,1.15
6444.00,1.16
6442.00,1.16
6440.00,1.16
6438.00,1.16
6436.00,1.16
6434.00,1.16
6432.00,1.16
6430.00,1.17
6428.00,1.17
6426.00,1.17
6424.00,1.17
6422.00,1.17
6420.00,1.17
6418.00,1.18
6416.00,1.18
6414.00,1.18
6412.00,1.18
6410.00,1.18
6408.00,1.19
6406.00,1.19
6404.00,1.19
6402.00,1.19
6400.00,1.19
6398.00,1.19
6396.00,1.20
6394.00,1.20
6392.00,1.20
6390.00,1.20
6388.00,1.20
6386.00,1.20
6384.00,1.21
6382.00,1.21
6380.00,1.21
6378.00,1.21
6376.00,1.21
6374.00,1.21
6372.00,1.21
6370.00,1.21
6368.00,1.22
6366.00,1.22
6364.00,1.22
6362.00,1.22
6360.00,1.22
6358.00,1.22
6356.00,1.22
6354.00,1.22
6352.00,1.23
6350.00,1.23
6348.00,1.23
6346.00,1.23
6344.00,1.23
6342.00,1.23
6340.00,1.23
6338.00,1.23
6336.00,1.24
6334.00,1.24
6332.00,1.24
6330.00,1.24
6328.00,1.24
6326.00,1.24
6324.00,1.24
6322.00,1.25
6320.00,1.25
6318.00,1.25
6316.00,1.25
6314.00,1.25
6312.00,1.25
6310.00,1.25
6308.00,1.26
6306.00,1.26
6304.00,1.26
6302.00,1.26
6300.00,1.26
6298.00,1.26
6296.00,1.26
6294.00,1.27
6292.00,1.27
6290.00,1.27
6288.00,1.27
6286.00,1.27
6284.00,1.27
6282.00,1.27
6280.00,1.27
6278.00,1.27
6276.00,1.28
6274.00,1.28
6272.00,1.28
6270.00,1.28
6268.00,1.28
6266.00,1.28
6264.00,1.28
6262.00,1.29
6260.00,1.29
6258.00,1.29
6256.00,1.29
6254.00,1.29
6252.00,1.29
6250.00,1.29
6248.00,1.30
6246.00,1.30
6244.00,1.30
6242.00,1.30
6240.00,1.30
6238.00,1.30
6236.00,1.30
6234.00,1.31
6232.00,1.31
6230.00,1.31
6228.00,1.31
6226.00,1.31
6224.00,1.31
6222.00,1.31
6220.00,1.31
6218.00,1.32
6216.00,1.32
6214.00,1.32
6212.00,1.32
6210.00,1.32
6208.00,1.32
6206.00,1.32
6204.00,1.32
6202.00,1.33
6200.00,1.33
6198.00,1.33
6196.00,1.33
6194.00,1.33
6192.00,1.33
6190.00,1.33
6188.00,1.34
6186.00,1.34
6184.00,1.34
6182.00,1.34
6180.00,1.34
6178.00,1.34
6176.00,1.34
6174.00,1.34
6172.00,1.34
6170.00,1.35
6168.00,1.35
6166.00,1.35
6164.00,1.35
6162.00,1.35
6160.00,1.35
6158.00,1.35
6156.00,1.35
6154.00,1.35
6152.00,1.35
6150.00,1.35
6148.00,1.36
6146.00,1.36
6144.00,1.36
6142.00,1.36
6140.00,1.36
6138.00,1.36
6136.00,1.36
6134.00,1.37
6132.00,1.37
6130.00,1.37
6128.00,1.37
6126.00,1.37
6124.00,1.37
6122.00,1.37
6120.00,1.37
6118.00,1.38
6116.00,1.38
6114.00,1.38
6112.00,1.38
6110.00,1.38
6108.00,1.38
6106.00,1.38
6104.00,1.38
6102.00,1.38
6100.00,1.39
6098.00,1.39
6096.00,1.39
6094.00,1.39
6092.00,1.39
6090.00,1.39
6088.00,1.39
6086.00,1.39
6084.00,1.39
6082.00,1.39
6080.00,1.39
6078.00,1.39
6076.00,1.40
6074.00,1.40
6072.00,1.40
6070.00,1.40
6068.00,1.40
6066.00,1.40
6064.00,1.40
6062.00,1.40
6060.00,1.40
6058.00,1.40
6056.00,1.40
6054.00,1.40
6052.00,1.40
6050.00,1.40
6048.00,1.40
6046.00,1.41
6044.00,1.41
6042.00,1.41
6040.00,1.41
6038.00,1.41
6036.00,1.41
6034.00,1.41
6032.00,1.41
6030.00,1.41
6028.00,1.41
6026.00,1.41
6024.00,1.41
6022.00,1.41
6020.00,1.41
6018.00,1.42
6016.00,1.42
6014.00,1.42
6012.00,1.42
6010.00,1.42
6008.00,1.42
6006.00,1.42
6004.00,1.42
6002.00,1.42
6000.00,1.42
5998.00,1.42
5996.00,1.42
5994.00,1.42
5992.00,1.42
5990.00,1.41
5988.00,1.41
5986.00,1.41
5984.00,1.41
5982.00,1.41
5980.00,1.41
5978.00,1.41
5976.00,1.40
5974.00,1.40
5972.00,1.40
5970.00,1.40
5968.00,1.39
5966.00,1.39
5964.00,1.39
5962.00,1.39
5960.00,1.39
5958.00,1.38
5956.00,1.38
5954.00,1.38
5952.00,1.38
5950.00,1.38
5948.00,1.37
5946.00,1.37
5944.00,1.37
5942.00,1.37
5940.00,1.37
5938.00,1.37
5936.00,1.37
5934.00,1.37
5932.00,1.37
5930.00,1.36
5928.00,1.36
5926.00,1.36
5924.00,1.36
5922.00,1.36
5920.00,1.36
5918.00,1.36
5916.00,1.36
5914.00,1.36
5912.00,1.36
5910.00,1.36
5908.00,1.36
5906.00,1.36
5904.00,1.36
5902.00,1.36
5900.00,1.36
5898.00,1.36
5896.00,1.36
5894.00,1.36
5892.00,1.37
5890.00,1.37
5888.00,1.37
5886.00,1.37
5884.00,1.37
5882.00,1.37
5880.00,1.38
5878.00,1.38
5876.00,1.38
5874.00,1.38
5872.00,1.38
5870.00,1.38
5868.00,1.38
5866.00,1.38
5864.00,1.39
5862.00,1.39
5860.00,1.39
5858.00,1.39
5856.00,1.39
5854.00,1.39
5852.00,1.39
5850.00,1.39
5848.00,1.39
5846.00,1.39
5844.00,1.39
5842.00,1.39
5840.00,1.39
5838.00,1.39
5836.00,1.39
5834.00,1.39
5832.00,1.39
5830.00,1.39
5828.00,1.39
5826.00,1.39
5824.00,1.39
5822.00,1.39
5820.00,1.39
5818.00,1.39
5816.00,1.39
5814.00,1.39
5812.00,1.39
5810.00,1.39
5808.00,1.39
5806.00,1.38
5804.00,1.38
5802.00,1.38
5800.00,1.38
5798.00,1.38
5796.00,1.38
5794.00,1.38
5792.00,1.38
5790.00,1.38
5788.00,1.38
5786.00,1.38
5784.00,1.38
5782.00,1.38
5780.00,1.38
5778.00,1.37
5776.00,1.37
5774.00,1.37
5772.00,1.37
5770.00,1.37
5768.00,1.38
5766.00,1.38
5764.00,1.38
5762.00,1.38
5760.00,1.38
5758.00,1.38
5756.00,1.38
5754.00,1.38
5752.00,1.38
5750.00,1.38
5748.00,1.38
5746.00,1.38
5744.00,1.38
5742.00,1.39
5740.00,1.39
5738.00,1.39
5736.00,1.39
5734.00,1.39
5732.00,1.39
5730.00,1.39
5728.00,1.39
5726.00,1.39
5724.00,1.39
5722.00,1.39
5720.00,1.39
5718.00,1.39
5716.00,1.38
5714.00,1.38
5712.00,1.38
5710.00,1.38
5708.00,1.38
5706.00,1.38
5704.00,1.38
5702.00,1.38
5700.00,1.38
5698.00,1.38
5696.00,1.37
5694.00,1.37
5692.00,1.37
5690.00,1.37
5688.00,1.37
5686.00,1.37
5684.00,1.37
5682.00,1.37
5680.00,1.37
5678.00,1.37
5676.00,1.37
5674.00,1.37
5672.00,1.37
5670.00,1.37
5668.00,1.37
5666.00,1.37
5664.00,1.37
5662.00,1.37
5660.00,1.37
5658.00,1.37
5656.00,1.37
5654.00,1.37
5652.00,1.37
5650.00,1.37
5648.00,1.37
5646.00,1.37
5644.00,1.37
5642.00,1.37
5640.00,1.37
5638.00,1.37
5636.00,1.37
5634.00,1.37
5632.00,1.37
5630.00,1.37
5628.00,1.37
5626.00,1.37
5624.00,1.38
5622.00,1.38
5620.00,1.38
5618.00,1.38
5616.00,1.38
5614.00,1.38
5612.00,1.38
5610.00,1.38
5608.00,1.38
5606.00,1.38
5604.00,1.38
5602.00,1.39
5600.00,1.39
5598.00,1.39
5596.00,1.39
5594.00,1.39
5592.00,1.39
5590.00,1.39
5588.00,1.39
5586.00,1.39
5584.00,1.39
5582.00,1.39
5580.00,1.39
5578.00,1.39
5576.00,1.39
5574.00,1.40
5572.00,1.40
5570.00,1.40
5568.00,1.40
5566.00,1.40
5564.00,1.40
5562.00,1.40
5560.00,1.40
5558.00,1.40
5556.00,1.40
5554.00,1.40
5552.00,1.40
5550.00,1.40
5548.00,1.40
5546.00,1.40
5544.00,1.41
5542.00,1.41
5540.00,1.41
5538.00,1.41
5536.00,1.41
5534.00,1.41
5532.00,1.41
5530.00,1.41
5528.00,1.41
5526.00,1.41
5524.00,1.41
5522.00,1.41
5520.00,1.41
5518.00,1.41
5516.00,1.41
5514.00,1.41
5512.00,1.41
5510.00,1.41
5508.00,1.41
5506.00,1.42
5504.00,1.42
5502.00,1.42
5500.00,1.42
5498.00,1.42
5496.00,1.42
5494.00,1.42
5492.00,1.42
5490.00,1.42
5488.00,1.42
5486.00,1.42
5484.00,1.42
5482.00,1.42
5480.00,1.42
5478.00,1.42
5476.00,1.42
5474.00,1.42
5472.00,1.42
5470.00,1.42
5468.00,1.42
5466.00,1.42
5464.00,1.42
5462.00,1.42
5460.00,1.42
5458.00,1.42
5456.00,1.42
5454.00,1.42
5452.00,1.42
5450.00,1.42
5448.00,1.42
5446.00,1.42
5444.00,1.42
5442.00,1.42
5440.00,1.42
5438.00,1.42
5436.00,1.42
5434.00,1.42
5432.00,1.42
5430.00,1.42
5428.00,1.42
5426.00,1.42
5424.00,1.42
5422.00,1.42
5420.00,1.42
5418.00,1.42
5416.00,1.41
5414.00,1.41
5412.00,1.41
5410.00,1.41
5408.00,1.41
5406.00,1.41
5404.00,1.41
5402.00,1.40
5400.00,1.40
5398.00,1.40
5396.00,1.40
5394.00,1.39
5392.00,1.39
5390.00,1.39
5388.00,1.38
5386.00,1.38
5384.00,1.37
5382.00,1.37
5380.00,1.36
5378.00,1.36
5376.00,1.35
5374.00,1.35
5372.00,1.34
5370.00,1.33
5368.00,1.32
5366.00,1.32
5364.00,1.31
5362.00,1.30
5360.00,1.29
5358.00,1.28
5356.00,1.27
5354.00,1.26
5352.00,1.25
5350.00,1.23
5348.00,1.22
5346.00,1.21
5344.00,1.20
5342.00,1.18
5340.00,1.17
5338.00,1.16
5336.00,1.14
5334.00,1.13
5332.00,1.12
5330.00,1.10
5328.00,1.09
5326.00,1.07
5324.00,1.06
5322.00,1.04
5320.00,1.03
5318.00,1.01
5316.00,1.00
5314.00,0.98
5312.00,0.97
5310.00,0.95
5308.00,0.94
5306.00,0.92
5304.00,0.91
5302.00,0.89
5300.00,0.88
5298.00,0.87
5296.00,0.85
5294.00,0.84
5292.00,0.83
5290.00,0.82
5288.00,0.81
5286.00,0.80
5284.00,0.79
5282.00,0.78
5280.00,0.77
5278.00,0.76
5276.00,0.75
5274.00,0.75
5272.00,0.74
5270.00,0.73
5268.00,0.73
5266.00,0.72
5264.00,0.72
5262.00,0.71
5260.00,0.71
5258.00,0.71
5256.00,0.70
5254.00,0.70
5252.00,0.70
5250.00,0.69
5248.00,0.69
5246.00,0.69
5244.00,0.69
5242.00,0.69
5240.00,0.69
5238.00,0.68
5236.00,0.68
5234.00,0.68
5232.00,0.68
5230.00,0.68
5228.00,0.68
5226.00,0.68
5224.00,0.68
5222.00,0.68
5220.00,0.68
5218.00,0.68
5216.00,0.68
5214.00,0.68
5212.00,0.68
5210.00,0.68
5208.00,0.68
5206.00,0.68
5204.00,0.68
5202.00,0.68
5200.00,0.68
5198.00,0.68
5196.00,0.68
5194.00,0.68
5192.00,0.68
5190.00,0.68
5188.00,0.68
5186.00,0.68
5184.00,0.68
5182.00,0.68
5180.00,0.68
5178.00,0.68
5176.00,0.68
5174.00,0.68
5172.00,0.68
5170.00,0.68
5168.00,0.68
5166.00,0.68
5164.00,0.69
5162.00,0.69
5160.00,0.69
5158.00,0.69
5156.00,0.69
5154.00,0.69
5152.00,0.69
5150.00,0.69
5148.00,0.69
5146.00,0.69
5144.00,0.70
5142.00,0.70
5140.00,0.70
5138.00,0.70
5136.00,0.70
5134.00,0.70
5132.00,0.70
5130.00,0.70
5128.00,0.70
5126.00,0.71
5124.00,0.71
5122.00,0.71
5120.00,0.71
5118.00,0.71
5116.00,0.71
5114.00,0.71
5112.00,0.71
5110.00,0.71
5108.00,0.72
5106.00,0.72
5104.00,0.72
5102.00,0.72
5100.00,0.72
5098.00,0.72
5096.00,0.72
5094.00,0.72
5092.00,0.73
5090.00,0.73
5088.00,0.73
5086.00,0.73
5084.00,0.73
5082.00,0.73
5080.00,0.73
5078.00,0.74
5076.00,0.74
5074.00,0.74
5072.00,0.74
5070.00,0.74
5068.00,0.74
5066.00,0.75
5064.00,0.75
5062.00,0.75
5060.00,0.75
5058.00,0.75
5056.00,0.76
5054.00,0.76
5052.00,0.76
5050.00,0.76
5048.00,0.76
5046.00,0.77
5044.00,0.77
5042.00,0.77
5040.00,0.77
5038.00,0.77
5036.00,0.78
5034.00,0.78
5032.00,0.78
5030.00,0.78
5028.00,0.78
5026.00,0.78
5024.00,0.79
5022.00,0.79
5020.00,0.79
5018.00,0.79
5016.00,0.80
5014.00,0.80
5012.00,0.80
5010.00,0.80
5008.00,0.81
5006.00,0.81
5004.00,0.81
5002.00,0.81
5000.00,0.82
4998.00,0.82
4996.00,0.82
4994.00,0.82
4992.00,0.83
4990.00,0.83
4988.00,0.83
4986.00,0.84
4984.00,0.84
4982.00,0.84
4980.00,0.84
4978.00,0.85
4976.00,0.85
4974.00,0.85
4972.00,0.85
4970.00,0.86
4968.00,0.86
4966.00,0.86
4964.00,0.86
4962.00,0.87
4960.00,0.87
4958.00,0.87
4956.00,0.87
4954.00,0.88
4952.00,0.88
4950.00,0.88
4948.00,0.88
4946.00,0.89
4944.00,0.89
4942.00,0.89
4940.00,0.90
4938.00,0.90
4936.00,0.90
4934.00,0.90
4932.00,0.91
4930.00,0.91
4928.00,0.91
4926.00,0.91
4924.00,0.92
4922.00,0.92
4920.00,0.92
4918.00,0.92
4916.00,0.93
4914.00,0.93
4912.00,0.93
4910.00,0.93
4908.00,0.94
4906.00,0.94
4904.00,0.94
4902.00,0.94
4900.00,0.94
4898.00,0.95
4896.00,0.95
4894.00,0.95
4892.00,0.96
4890.00,0.96
4888.00,0.96
4886.00,0.96
4884.00,0.97
4882.00,0.97
4880.00,0.97
4878.00,0.97
4876.00,0.98
4874.00,0.98
4872.00,0.98
4870.00,0.98
4868.00,0.99
4866.00,0.99
4864.00,0.99
4862.00,1.00
4860.00,1.00
4858.00,1.00
4856.00,1.00
4854.00,1.01
4852.00,1.01
4850.00,1.01
4848.00,1.01
4846.00,1.02
4844.00,1.02
4842.00,1.02
4840.00,1.03
4838.00,1.03
4836.00,1.03
4834.00,1.04
4832.00,1.04
4830.00,1.04
4828.00,1.04
4826.00,1.05
4824.00,1.05
4822.00,1.05
4820.00,1.06
4818.00,1.06
4816.00,1.06
4814.00,1.07
4812.00,1.07
4810.00,1.07
4808.00,1.08
4806.00,1.08
4804.00,1.08
4802.00,1.09
4800.00,1.09
4798.00,1.09
4796.00,1.10
4794.00,1.10
4792.00,1.10
4790.00,1.11
4788.00,1.11
4786.00,1.11
4784.00,1.11
4782.00,1.12
4780.00,1.12
4778.00,1.12
4776.00,1.13
4774.00,1.13
4772.00,1.13
4770.00,1.14
4768.00,1.14
4766.00,1.14
4764.00,1.14
4762.00,1.15
4760.00,1.15
4758.00,1.16
4756.00,1.16
4754.00,1.16
4752.00,1.17
4750.00,1.17
4748.00,1.17
4746.00,1.18
4744.00,1.18
4742.00,1.18
4740.00,1.19
4738.00,1.19
4736.00,1.19
4734.00,1.20
4732.00,1.20
4730.00,1.20
4728.00,1.21
4726.00,1.21
4724.00,1.21
4722.00,1.22
4720.00,1.22
4718.00,1.22
4716.00,1.23
4714.00,1.23
4712.00,1.23
4710.00,1.24
4708.00,1.24
4706.00,1.24
4704.00,1.25
4702.00,1.25
4700.00,1.25
4698.00,1.26
4696.00,1.26
4694.00,1.26
4692.00,1.26
4690.00,1.27
4688.00,1.27
4686.00,1.27
4684.00,1.28
4682.00,1.28
4680.00,1.28
4678.00,1.28
4676.00,1.29
4674.00,1.29
4672.00,1.29
4670.00,1.29
4668.00,1.30
4666.00,1.30
4664.00,1.30
4662.00,1.30
4660.00,1.31
4658.00,1.31
4656.00,1.31
4654.00,1.31
4652.00,1.32
4650.00,1.32
4648.00,1.32
4646.00,1.32
4644.00,1.33
4642.00,1.33
4640.00,1.33
4638.00,1.33
4636.00,1.34
4634.00,1.34
4632.00,1.34
4630.00,1.34
4628.00,1.34
4626.00,1.35
4624.00,1.35
4622.00,1.35
4620.00,1.35
4618.00,1.35
4616.00,1.36
4614.00,1.36
4612.00,1.36
4610.00,1.36
4608.00,1.36
4606.00,1.36
4604.00,1.37
4602.00,1.37
4600.00,1.37
4598.00,1.37
4596.00,1.37
4594.00,1.37
4592.00,1.38
4590.00,1.38
4588.00,1.38
4586.00,1.38
4584.00,1.38
4582.00,1.39
4580.00,1.39
4578.00,1.39
4576.00,1.39
4574.00,1.39
4572.00,1.39
4570.00,1.39
4568.00,1.40
4566.00,1.40
4564.00,1.40
4562.00,1.40
4560.00,1.40
4558.00,1.40
4556.00,1.40
4554.00,1.40
4552.00,1.41
4550.00,1.41
4548.00,1.41
4546.00,1.41
4544.00,1.41
4542.00,1.41
4540.00,1.41
4538.00,1.41
4536.00,1.41
4534.00,1.42
4532.00,1.42
4530.00,1.42
4528.00,1.42
4526.00,1.42
4524.00,1.42
4522.00,1.42
4520.00,1.42
4518.00,1.42
4516.00,1.42
4514.00,1.42
4512.00,1.42
4510.00,1.42
4508.00,1.42
4506.00,1.42
4504.00,1.42
4502.00,1.42
4500.00,1.42
4498.00,1.42
4496.00,1.42
4494.00,1.42
4492.00,1.42
4490.00,1.42
4488.00,1.42
4486.00,1.42
4484.00,1.42
4482.00,1.42
4480.00,1.42
4478.00,1.42
4476.00,1.41
4474.00,1.41
4472.00,1.41
4470.00,1.41
4468.00,1.41
4466.00,1.40
4464.00,1.40
4462.00,1.40
4460.00,1.39
4458.00,1.39
4456.00,1.38
4454.00,1.38
4452.00,1.37
4450.00,1.36
4448.00,1.36
4446.00,1.35
4444.00,1.34
4442.00,1.34
4440.00,1.33
4438.00,1.32
4436.00,1.31
4434.00,1.31
4432.00,1.30
4430.00,1.29
4428.00,1.29
4426.00,1.28
4424.00,1.27
4422.00,1.27
4420.00,1.26
4418.00,1.26
4416.00,1.26
4414.00,1.26
4412.00,1.26
4410.00,1.26
4408.00,1.26
4406.00,1.26
4404.00,1.26
4402.00,1.27
4400.00,1.27
4398.00,1.28
4396.00,1.28
4394.00,1.29
4392.00,1.29
4390.00,1.30
4388.00,1.30
4386.00,1.30
4384.00,1.31
4382.00,1.31
4380.00,1.31
4378.00,1.32
4376.00,1.32
4374.00,1.32
4372.00,1.32
4370.00,1.32
4368.00,1.32
4366.00,1.32
4364.00,1.31
4362.00,1.31
4360.00,1.31
4358.00,1.31
4356.00,1.31
4354.00,1.30
4352.00,1.30
4350.00,1.30
4348.00,1.30
4346.00,1.30
4344.00,1.30
4342.00,1.30
4340.00,1.30
4338.00,1.30
4336.00,1.31
4334.00,1.31
4332.00,1.31
4330.00,1.32
4328.00,1.32
4326.00,1.33
4324.00,1.33
4322.00,1.34
4320.00,1.35
4318.00,1.35
4316.00,1.36
4314.00,1.36
4312.00,1.37
4310.00,1.37
4308.00,1.38
4306.00,1.38
4304.00,1.39
4302.00,1.39
4300.00,1.40
4298.00,1.40
4296.00,1.40
4294.00,1.41
4292.00,1.41
4290.00,1.41
4288.00,1.41
4286.00,1.41
4284.00,1.41
4282.00,1.41
4280.00,1.41
4278.00,1.41
4276.00,1.41
4274.00,1.41
4272.00,1.40
4270.00,1.40
4268.00,1.40
4266.00,1.40
4264.00,1.40
4262.00,1.40
4260.00,1.39
4258.00,1.39
4256.00,1.39
4254.00,1.39
4252.00,1.39
4250.00,1.39
4248.00,1.39
4246.00,1.39
4244.00,1.39
4242.00,1.39
4240.00,1.40
4238.00,1.40
4236.00,1.40
4234.00,1.40
4232.00,1.40
4230.00,1.40
4228.00,1.40
4226.00,1.40
4224.00,1.40
4222.00,1.41
4220.00,1.41
4218.00,1.41
4216.00,1.41
4214.00,1.41
4212.00,1.41
4210.00,1.41
4208.00,1.41
4206.00,1.41
4204.00,1.41
4202.00,1.41
4200.00,1.41
4198.00,1.41
4196.00,1.41
4194.00,1.40
4192.00,1.40
4190.00,1.40
4188.00,1.40
4186.00,1.40
4184.00,1.40
4182.00,1.40
4180.00,1.40
4178.00,1.39
4176.00,1.39
4174.00,1.39
4172.00,1.39
4170.00,1.39
4168.00,1.39
4166.00,1.39
4164.00,1.38
4162.00,1.38
4160.00,1.38
4158.00,1.38
4156.00,1.38
4154.00,1.38
4152.00,1.38
4150.00,1.38
4148.00,1.38
4146.00,1.38
4144.00,1.38
4142.00,1.38
4140.00,1.38
4138.00,1.38
4136.00,1.38
4134.00,1.38
4132.00,1.38
4130.00,1.38
4128.00,1.38
4126.00,1.38
4124.00,1.38
4122.00,1.38
4120.00,1.38
4118.00,1.38
4116.00,1.38
4114.00,1.38
4112.00,1.38
4110.00,1.38
4108.00,1.38
4106.00,1.38
4104.00,1.38
4102.00,1.38
4100.00,1.38
4098.00,1.38
4096.00,1.38
4094.00,1.38
4092.00,1.37
4090.00,1.37
4088.00,1.37
4086.00,1.37
4084.00,1.37
4082.00,1.37
4080.00,1.37
4078.00,1.37
4076.00,1.37
4074.00,1.37
4072.00,1.37
4070.00,1.38
4068.00,1.38
4066.00,1.38
4064.00,1.38
4062.00,1.38
4060.00,1.38
4058.00,1.38
4056.00,1.38
4054.00,1.38
4052.00,1.38
4050.00,1.38
4048.00,1.38
4046.00,1.38
4044.00,1.38
4042.00,1.38
4040.00,1.39
4038.00,1.39
4036.00,1.39
4034.00,1.39
4032.00,1.39
4030.00,1.39
4028.00,1.40
4026.00,1.40
4024.00,1.40
4022.00,1.40
4020.00,1.40
4018.00,1.41
4016.00,1.41
4014.00,1.41
4012.00,1.41
4010.00,1.41
4008.00,1.41
4006.00,1.42
4004.00,1.42
4002.00,1.42
4000.00,1.42
