创建为新数据集,样品 117 用户 Administrator 日期 星期五, 七月 26 2019
cm-1,%T
10000.00,1.09
9999.00,1.09
9998.00,1.08
9997.00,1.08
9996.00,1.08
9995.00,1.08
9994.00,1.07
9993.00,1.07
9992.00,1.07
9991.00,1.06
9990.00,1.06
9989.00,1.05
9988.00,1.05
9987.00,1.05
9986.00,1.04
9985.00,1.04
9984.00,1.03
9983.00,1.03
9982.00,1.03
9981.00,1.02
9980.00,1.02
9979.00,1.01
9978.00,1.00
9977.00,1.00
9976.00,0.99
9975.00,0.98
9974.00,0.97
9973.00,0.96
9972.00,0.95
9971.00,0.94
9970.00,0.93
9969.00,0.92
9968.00,0.91
9967.00,0.90
9966.00,0.89
9965.00,0.88
9964.00,0.87
9963.00,0.86
9962.00,0.85
9961.00,0.84
9960.00,0.83
9959.00,0.81
9958.00,0.80
9957.00,0.79
9956.00,0.78
9955.00,0.77
9954.00,0.76
9953.00,0.75
9952.00,0.75
9951.00,0.74
9950.00,0.73
9949.00,0.73
9948.00,0.73
9947.00,0.72
9946.00,0.72
9945.00,0.72
9944.00,0.72
9943.00,0.73
9942.00,0.73
9941.00,0.73
9940.00,0.74
9939.00,0.74
9938.00,0.74
9937.00,0.75
9936.00,0.75
9935.00,0.75
9934.00,0.76
9933.00,0.76
9932.00,0.77
9931.00,0.77
9930.00,0.78
9929.00,0.78
9928.00,0.78
9927.00,0.79
9926.00,0.79
9925.00,0.80
9924.00,0.80
9923.00,0.80
9922.00,0.80
9921.00,0.80
9920.00,0.80
9919.00,0.80
9918.00,0.80
9917.00,0.79
9916.00,0.79
9915.00,0.79
9914.00,0.79
9913.00,0.78
9912.00,0.78
9911.00,0.78
9910.00,0.78
9909.00,0.78
9908.00,0.78
9907.00,0.77
9906.00,0.77
9905.00,0.78
9904.00,0.78
9903.00,0.78
9902.00,0.78
9901.00,0.78
9900.00,0.78
9899.00,0.79
9898.00,0.79
9897.00,0.80
9896.00,0.80
9895.00,0.81
9894.00,0.82
9893.00,0.83
9892.00,0.83
9891.00,0.84
9890.00,0.85
9889.00,0.86
9888.00,0.87
9887.00,0.88
9886.00,0.89
9885.00,0.89
9884.00,0.90
9883.00,0.90
9882.00,0.91
9881.00,0.91
9880.00,0.92
9879.00,0.92
9878.00,0.92
9877.00,0.92
9876.00,0.92
9875.00,0.92
9874.00,0.92
9873.00,0.92
9872.00,0.92
9871.00,0.92
9870.00,0.91
9869.00,0.91
9868.00,0.90
9867.00,0.90
9866.00,0.89
9865.00,0.89
9864.00,0.88
9863.00,0.88
9862.00,0.87
9861.00,0.87
9860.00,0.86
9859.00,0.86
9858.00,0.85
9857.00,0.85
9856.00,0.85
9855.00,0.85
9854.00,0.84
9853.00,0.84
9852.00,0.84
9851.00,0.84
9850.00,0.84
9849.00,0.84
9848.00,0.84
9847.00,0.84
9846.00,0.85
9845.00,0.85
9844.00,0.85
9843.00,0.86
9842.00,0.86
9841.00,0.86
9840.00,0.86
9839.00,0.87
9838.00,0.87
9837.00,0.87
9836.00,0.88
9835.00,0.88
9834.00,0.88
9833.00,0.89
9832.00,0.89
9831.00,0.89
9830.00,0.90
9829.00,0.90
9828.00,0.90
9827.00,0.90
9826.00,0.90
9825.00,0.90
9824.00,0.90
9823.00,0.90
9822.00,0.90
9821.00,0.90
9820.00,0.90
9819.00,0.90
9818.00,0.90
9817.00,0.89
9816.00,0.89
9815.00,0.88
9814.00,0.88
9813.00,0.87
9812.00,0.87
9811.00,0.86
9810.00,0.85
9809.00,0.85
9808.00,0.84
9807.00,0.83
9806.00,0.83
9805.00,0.82
9804.00,0.81
9803.00,0.81
9802.00,0.80
9801.00,0.80
9800.00,0.79
9799.00,0.79
9798.00,0.78
9797.00,0.78
9796.00,0.78
9795.00,0.77
9794.00,0.77
9793.00,0.77
9792.00,0.77
9791.00,0.77
9790.00,0.77
9789.00,0.77
9788.00,0.77
9787.00,0.78
9786.00,0.78
9785.00,0.78
9784.00,0.78
9783.00,0.79
9782.00,0.79
9781.00,0.79
9780.00,0.79
9779.00,0.80
9778.00,0.80
9777.00,0.80
9776.00,0.80
9775.00,0.80
9774.00,0.80
9773.00,0.81
9772.00,0.81
9771.00,0.81
9770.00,0.81
9769.00,0.81
9768.00,0.82
9767.00,0.82
9766.00,0.82
9765.00,0.82
9764.00,0.82
9763.00,0.82
9762.00,0.82
9761.00,0.82
9760.00,0.82
9759.00,0.82
9758.00,0.82
9757.00,0.82
9756.00,0.82
9755.00,0.82
9754.00,0.83
9753.00,0.83
9752.00,0.83
9751.00,0.83
9750.00,0.83
9749.00,0.83
9748.00,0.84
9747.00,0.84
9746.00,0.84
9745.00,0.84
9744.00,0.84
9743.00,0.84
9742.00,0.84
9741.00,0.84
9740.00,0.84
9739.00,0.84
9738.00,0.85
9737.00,0.85
9736.00,0.85
9735.00,0.85
9734.00,0.85
9733.00,0.85
9732.00,0.85
9731.00,0.84
9730.00,0.84
9729.00,0.84
9728.00,0.84
9727.00,0.83
9726.00,0.83
9725.00,0.83
9724.00,0.83
9723.00,0.83
9722.00,0.83
9721.00,0.82
9720.00,0.82
9719.00,0.82
9718.00,0.82
9717.00,0.82
9716.00,0.81
9715.00,0.81
9714.00,0.81
9713.00,0.80
9712.00,0.80
9711.00,0.79
9710.00,0.79
9709.00,0.78
9708.00,0.78
9707.00,0.77
9706.00,0.77
9705.00,0.77
9704.00,0.76
9703.00,0.76
9702.00,0.76
9701.00,0.76
9700.00,0.76
9699.00,0.75
9698.00,0.75
9697.00,0.75
9696.00,0.74
9695.00,0.74
9694.00,0.73
9693.00,0.73
9692.00,0.72
9691.00,0.72
9690.00,0.72
9689.00,0.71
9688.00,0.71
9687.00,0.71
9686.00,0.71
9685.00,0.71
9684.00,0.71
9683.00,0.71
9682.00,0.72
9681.00,0.72
9680.00,0.72
9679.00,0.73
9678.00,0.73
9677.00,0.73
9676.00,0.74
9675.00,0.74
9674.00,0.75
9673.00,0.75
9672.00,0.76
9671.00,0.76
9670.00,0.77
9669.00,0.77
9668.00,0.78
9667.00,0.78
9666.00,0.79
9665.00,0.80
9664.00,0.81
9663.00,0.81
9662.00,0.82
9661.00,0.83
9660.00,0.83
9659.00,0.84
9658.00,0.85
9657.00,0.85
9656.00,0.86
9655.00,0.86
9654.00,0.87
9653.00,0.87
9652.00,0.87
9651.00,0.88
9650.00,0.88
9649.00,0.88
9648.00,0.89
9647.00,0.89
9646.00,0.89
9645.00,0.90
9644.00,0.90
9643.00,0.90
9642.00,0.91
9641.00,0.91
9640.00,0.92
9639.00,0.92
9638.00,0.92
9637.00,0.93
9636.00,0.93
9635.00,0.93
9634.00,0.93
9633.00,0.93
9632.00,0.94
9631.00,0.94
9630.00,0.94
9629.00,0.94
9628.00,0.94
9627.00,0.94
9626.00,0.95
9625.00,0.95
9624.00,0.95
9623.00,0.95
9622.00,0.95
9621.00,0.95
9620.00,0.95
9619.00,0.95
9618.00,0.95
9617.00,0.95
9616.00,0.95
9615.00,0.94
9614.00,0.94
9613.00,0.94
9612.00,0.93
9611.00,0.93
9610.00,0.92
9609.00,0.92
9608.00,0.92
9607.00,0.91
9606.00,0.91
9605.00,0.91
9604.00,0.90
9603.00,0.90
9602.00,0.90
9601.00,0.89
9600.00,0.89
9599.00,0.88
9598.00,0.88
9597.00,0.88
9596.00,0.87
9595.00,0.87
9594.00,0.86
9593.00,0.86
9592.00,0.86
9591.00,0.86
9590.00,0.86
9589.00,0.86
9588.00,0.86
9587.00,0.86
9586.00,0.86
9585.00,0.86
9584.00,0.86
9583.00,0.86
9582.00,0.87
9581.00,0.87
9580.00,0.87
9579.00,0.87
9578.00,0.88
9577.00,0.88
9576.00,0.88
9575.00,0.89
9574.00,0.89
9573.00,0.90
9572.00,0.90
9571.00,0.91
9570.00,0.91
9569.00,0.92
9568.00,0.93
9567.00,0.93
9566.00,0.94
9565.00,0.95
9564.00,0.95
9563.00,0.96
9562.00,0.97
9561.00,0.97
9560.00,0.98
9559.00,0.99
9558.00,0.99
9557.00,1.00
9556.00,1.00
9555.00,1.01
9554.00,1.01
9553.00,1.01
9552.00,1.02
9551.00,1.02
9550.00,1.02
9549.00,1.02
9548.00,1.02
9547.00,1.02
9546.00,1.02
9545.00,1.02
9544.00,1.02
9543.00,1.01
9542.00,1.01
9541.00,1.01
9540.00,1.00
9539.00,1.00
9538.00,0.99
9537.00,0.99
9536.00,0.98
9535.00,0.98
9534.00,0.97
9533.00,0.96
9532.00,0.96
9531.00,0.95
9530.00,0.94
9529.00,0.94
9528.00,0.93
9527.00,0.93
9526.00,0.92
9525.00,0.92
9524.00,0.91
9523.00,0.91
9522.00,0.90
9521.00,0.90
9520.00,0.90
9519.00,0.90
9518.00,0.89
9517.00,0.89
9516.00,0.89
9515.00,0.90
9514.00,0.90
9513.00,0.90
9512.00,0.90
9511.00,0.90
9510.00,0.91
9509.00,0.91
9508.00,0.91
9507.00,0.91
9506.00,0.92
9505.00,0.92
9504.00,0.92
9503.00,0.93
9502.00,0.93
9501.00,0.94
9500.00,0.94
9499.00,0.95
9498.00,0.96
9497.00,0.96
9496.00,0.97
9495.00,0.98
9494.00,0.98
9493.00,0.99
9492.00,0.99
9491.00,1.00
9490.00,1.00
9489.00,1.00
9488.00,1.01
9487.00,1.01
9486.00,1.01
9485.00,1.02
9484.00,1.02
9483.00,1.02
9482.00,1.02
9481.00,1.03
9480.00,1.03
9479.00,1.03
9478.00,1.04
9477.00,1.04
9476.00,1.04
9475.00,1.04
9474.00,1.04
9473.00,1.04
9472.00,1.04
9471.00,1.03
9470.00,1.03
9469.00,1.03
9468.00,1.03
9467.00,1.02
9466.00,1.02
9465.00,1.02
9464.00,1.01
9463.00,1.01
9462.00,1.01
9461.00,1.00
9460.00,1.00
9459.00,1.00
9458.00,0.99
9457.00,0.99
9456.00,0.98
9455.00,0.98
9454.00,0.97
9453.00,0.97
9452.00,0.96
9451.00,0.96
9450.00,0.95
9449.00,0.94
9448.00,0.94
9447.00,0.93
9446.00,0.93
9445.00,0.93
9444.00,0.93
9443.00,0.92
9442.00,0.92
9441.00,0.92
9440.00,0.92
9439.00,0.92
9438.00,0.92
9437.00,0.92
9436.00,0.92
9435.00,0.92
9434.00,0.92
9433.00,0.91
9432.00,0.91
9431.00,0.91
9430.00,0.91
9429.00,0.91
9428.00,0.90
9427.00,0.90
9426.00,0.90
9425.00,0.90
9424.00,0.90
9423.00,0.90
9422.00,0.90
9421.00,0.91
9420.00,0.91
9419.00,0.91
9418.00,0.91
9417.00,0.90
9416.00,0.90
9415.00,0.90
9414.00,0.90
9413.00,0.90
9412.00,0.89
9411.00,0.89
9410.00,0.89
9409.00,0.88
9408.00,0.88
9407.00,0.88
9406.00,0.88
9405.00,0.87
9404.00,0.87
9403.00,0.87
9402.00,0.87
9401.00,0.87
9400.00,0.86
9399.00,0.86
9398.00,0.86
9397.00,0.86
9396.00,0.86
9395.00,0.85
9394.00,0.85
9393.00,0.85
9392.00,0.85
9391.00,0.84
9390.00,0.84
9389.00,0.84
9388.00,0.84
9387.00,0.84
9386.00,0.84
9385.00,0.84
9384.00,0.84
9383.00,0.84
9382.00,0.84
9381.00,0.84
9380.00,0.84
9379.00,0.85
9378.00,0.85
9377.00,0.85
9376.00,0.85
9375.00,0.85
9374.00,0.85
9373.00,0.85
9372.00,0.85
9371.00,0.85
9370.00,0.85
9369.00,0.85
9368.00,0.85
9367.00,0.84
9366.00,0.84
9365.00,0.84
9364.00,0.83
9363.00,0.83
9362.00,0.83
9361.00,0.82
9360.00,0.82
9359.00,0.82
9358.00,0.81
9357.00,0.81
9356.00,0.80
9355.00,0.80
9354.00,0.79
9353.00,0.79
9352.00,0.79
9351.00,0.78
9350.00,0.78
9349.00,0.77
9348.00,0.77
9347.00,0.77
9346.00,0.76
9345.00,0.76
9344.00,0.76
9343.00,0.76
9342.00,0.76
9341.00,0.76
9340.00,0.76
9339.00,0.77
9338.00,0.77
9337.00,0.77
9336.00,0.77
9335.00,0.77
9334.00,0.78
9333.00,0.78
9332.00,0.78
9331.00,0.78
9330.00,0.79
9329.00,0.79
9328.00,0.79
9327.00,0.80
9326.00,0.80
9325.00,0.80
9324.00,0.81
9323.00,0.81
9322.00,0.81
9321.00,0.81
9320.00,0.82
9319.00,0.82
9318.00,0.82
9317.00,0.82
9316.00,0.81
9315.00,0.81
9314.00,0.81
9313.00,0.81
9312.00,0.81
9311.00,0.81
9310.00,0.80
9309.00,0.80
9308.00,0.80
9307.00,0.80
9306.00,0.80
9305.00,0.80
9304.00,0.79
9303.00,0.79
9302.00,0.79
9301.00,0.79
9300.00,0.79
9299.00,0.78
9298.00,0.78
9297.00,0.78
9296.00,0.78
9295.00,0.78
9294.00,0.78
9293.00,0.78
9292.00,0.78
9291.00,0.78
9290.00,0.78
9289.00,0.79
9288.00,0.79
9287.00,0.79
9286.00,0.80
9285.00,0.80
9284.00,0.81
9283.00,0.81
9282.00,0.82
9281.00,0.82
9280.00,0.83
9279.00,0.83
9278.00,0.84
9277.00,0.84
9276.00,0.84
9275.00,0.85
9274.00,0.85
9273.00,0.86
9272.00,0.86
9271.00,0.86
9270.00,0.87
9269.00,0.87
9268.00,0.87
9267.00,0.87
9266.00,0.87
9265.00,0.87
9264.00,0.87
9263.00,0.87
9262.00,0.87
9261.00,0.87
9260.00,0.87
9259.00,0.86
9258.00,0.86
9257.00,0.86
9256.00,0.85
9255.00,0.85
9254.00,0.85
9253.00,0.84
9252.00,0.84
9251.00,0.84
9250.00,0.84
9249.00,0.83
9248.00,0.83
9247.00,0.83
9246.00,0.82
9245.00,0.82
9244.00,0.81
9243.00,0.81
9242.00,0.81
9241.00,0.80
9240.00,0.80
9239.00,0.79
9238.00,0.79
9237.00,0.79
9236.00,0.78
9235.00,0.78
9234.00,0.78
9233.00,0.78
9232.00,0.78
9231.00,0.78
9230.00,0.78
9229.00,0.78
9228.00,0.78
9227.00,0.78
9226.00,0.78
9225.00,0.78
9224.00,0.78
9223.00,0.79
9222.00,0.79
9221.00,0.79
9220.00,0.80
9219.00,0.80
9218.00,0.81
9217.00,0.81
9216.00,0.82
9215.00,0.83
9214.00,0.83
9213.00,0.84
9212.00,0.85
9211.00,0.86
9210.00,0.86
9209.00,0.87
9208.00,0.88
9207.00,0.88
9206.00,0.89
9205.00,0.90
9204.00,0.90
9203.00,0.91
9202.00,0.91
9201.00,0.91
9200.00,0.92
9199.00,0.92
9198.00,0.92
9197.00,0.93
9196.00,0.93
9195.00,0.93
9194.00,0.94
9193.00,0.94
9192.00,0.94
9191.00,0.94
9190.00,0.94
9189.00,0.94
9188.00,0.94
9187.00,0.95
9186.00,0.95
9185.00,0.95
9184.00,0.95
9183.00,0.95
9182.00,0.95
9181.00,0.95
9180.00,0.95
9179.00,0.95
9178.00,0.95
9177.00,0.95
9176.00,0.96
9175.00,0.96
9174.00,0.96
9173.00,0.95
9172.00,0.95
9171.00,0.95
9170.00,0.95
9169.00,0.95
9168.00,0.95
9167.00,0.94
9166.00,0.94
9165.00,0.94
9164.00,0.93
9163.00,0.93
9162.00,0.92
9161.00,0.91
9160.00,0.91
9159.00,0.90
9158.00,0.89
9157.00,0.89
9156.00,0.88
9155.00,0.87
9154.00,0.86
9153.00,0.86
9152.00,0.85
9151.00,0.84
9150.00,0.83
9149.00,0.82
9148.00,0.82
9147.00,0.81
9146.00,0.80
9145.00,0.79
9144.00,0.78
9143.00,0.77
9142.00,0.77
9141.00,0.76
9140.00,0.76
9139.00,0.75
9138.00,0.75
9137.00,0.75
9136.00,0.74
9135.00,0.74
9134.00,0.74
9133.00,0.74
9132.00,0.74
9131.00,0.74
9130.00,0.74
9129.00,0.74
9128.00,0.75
9127.00,0.75
9126.00,0.75
9125.00,0.75
9124.00,0.76
9123.00,0.76
9122.00,0.77
9121.00,0.78
9120.00,0.78
9119.00,0.79
9118.00,0.80
9117.00,0.81
9116.00,0.81
9115.00,0.82
9114.00,0.83
9113.00,0.83
9112.00,0.84
9111.00,0.84
9110.00,0.85
9109.00,0.85
9108.00,0.86
9107.00,0.86
9106.00,0.86
9105.00,0.86
9104.00,0.87
9103.00,0.87
9102.00,0.87
9101.00,0.87
9100.00,0.87
9099.00,0.87
9098.00,0.87
9097.00,0.87
9096.00,0.87
9095.00,0.86
9094.00,0.86
9093.00,0.85
9092.00,0.85
9091.00,0.84
9090.00,0.84
9089.00,0.83
9088.00,0.83
9087.00,0.82
9086.00,0.82
9085.00,0.82
9084.00,0.81
9083.00,0.81
9082.00,0.80
9081.00,0.80
9080.00,0.80
9079.00,0.79
9078.00,0.79
9077.00,0.79
9076.00,0.79
9075.00,0.79
9074.00,0.79
9073.00,0.79
9072.00,0.79
9071.00,0.79
9070.00,0.79
9069.00,0.79
9068.00,0.79
9067.00,0.80
9066.00,0.80
9065.00,0.80
9064.00,0.81
9063.00,0.82
9062.00,0.82
9061.00,0.83
9060.00,0.84
9059.00,0.84
9058.00,0.85
9057.00,0.86
9056.00,0.86
9055.00,0.87
9054.00,0.87
9053.00,0.88
9052.00,0.88
9051.00,0.89
9050.00,0.89
9049.00,0.89
9048.00,0.90
9047.00,0.90
9046.00,0.90
9045.00,0.91
9044.00,0.91
9043.00,0.91
9042.00,0.91
9041.00,0.91
9040.00,0.91
9039.00,0.91
9038.00,0.91
9037.00,0.91
9036.00,0.90
9035.00,0.90
9034.00,0.90
9033.00,0.89
9032.00,0.89
9031.00,0.89
9030.00,0.88
9029.00,0.88
9028.00,0.88
9027.00,0.87
9026.00,0.87
9025.00,0.87
9024.00,0.87
9023.00,0.86
9022.00,0.86
9021.00,0.86
9020.00,0.85
9019.00,0.85
9018.00,0.85
9017.00,0.85
9016.00,0.84
9015.00,0.84
9014.00,0.84
9013.00,0.84
9012.00,0.84
9011.00,0.84
9010.00,0.84
9009.00,0.84
9008.00,0.84
9007.00,0.84
9006.00,0.85
9005.00,0.85
9004.00,0.85
9003.00,0.85
9002.00,0.85
9001.00,0.86
9000.00,0.86
8999.00,0.86
8998.00,0.86
8997.00,0.87
8996.00,0.87
8995.00,0.87
8994.00,0.88
8993.00,0.88
8992.00,0.89
8991.00,0.89
8990.00,0.90
8989.00,0.90
8988.00,0.90
8987.00,0.91
8986.00,0.91
8985.00,0.92
8984.00,0.92
8983.00,0.92
8982.00,0.93
8981.00,0.93
8980.00,0.93
8979.00,0.94
8978.00,0.94
8977.00,0.94
8976.00,0.94
8975.00,0.95
8974.00,0.95
8973.00,0.95
8972.00,0.95
8971.00,0.95
8970.00,0.95
8969.00,0.95
8968.00,0.95
8967.00,0.95
8966.00,0.95
8965.00,0.95
8964.00,0.95
8963.00,0.95
8962.00,0.95
8961.00,0.95
8960.00,0.95
8959.00,0.95
8958.00,0.94
8957.00,0.94
8956.00,0.94
8955.00,0.93
8954.00,0.93
8953.00,0.93
8952.00,0.92
8951.00,0.92
8950.00,0.92
8949.00,0.91
8948.00,0.91
8947.00,0.91
8946.00,0.90
8945.00,0.90
8944.00,0.90
8943.00,0.89
8942.00,0.89
8941.00,0.89
8940.00,0.89
8939.00,0.88
8938.00,0.88
8937.00,0.88
8936.00,0.88
8935.00,0.87
8934.00,0.87
8933.00,0.87
8932.00,0.87
8931.00,0.87
8930.00,0.86
8929.00,0.86
8928.00,0.86
8927.00,0.86
8926.00,0.87
8925.00,0.87
8924.00,0.87
8923.00,0.87
8922.00,0.87
8921.00,0.87
8920.00,0.87
8919.00,0.88
8918.00,0.88
8917.00,0.88
8916.00,0.88
8915.00,0.88
8914.00,0.88
8913.00,0.88
8912.00,0.88
8911.00,0.88
8910.00,0.89
8909.00,0.89
8908.00,0.89
8907.00,0.89
8906.00,0.89
8905.00,0.89
8904.00,0.89
8903.00,0.89
8902.00,0.89
8901.00,0.90
8900.00,0.90
8899.00,0.90
8898.00,0.90
8897.00,0.90
8896.00,0.90
8895.00,0.90
8894.00,0.90
8893.00,0.90
8892.00,0.90
8891.00,0.90
8890.00,0.89
8889.00,0.89
8888.00,0.89
8887.00,0.89
8886.00,0.88
8885.00,0.88
8884.00,0.88
8883.00,0.87
8882.00,0.87
8881.00,0.87
8880.00,0.86
8879.00,0.86
8878.00,0.85
8877.00,0.85
8876.00,0.84
8875.00,0.84
8874.00,0.84
8873.00,0.83
8872.00,0.83
8871.00,0.82
8870.00,0.82
8869.00,0.82
8868.00,0.81
8867.00,0.81
8866.00,0.81
8865.00,0.81
8864.00,0.81
8863.00,0.81
8862.00,0.81
8861.00,0.81
8860.00,0.81
8859.00,0.81
8858.00,0.82
8857.00,0.82
8856.00,0.82
8855.00,0.82
8854.00,0.82
8853.00,0.82
8852.00,0.83
8851.00,0.83
8850.00,0.83
8849.00,0.84
8848.00,0.84
8847.00,0.84
8846.00,0.85
8845.00,0.85
8844.00,0.85
8843.00,0.85
8842.00,0.86
8841.00,0.86
8840.00,0.86
8839.00,0.86
8838.00,0.86
8837.00,0.86
8836.00,0.86
8835.00,0.86
8834.00,0.87
8833.00,0.87
8832.00,0.87
8831.00,0.88
8830.00,0.88
8829.00,0.88
8828.00,0.89
8827.00,0.89
8826.00,0.90
8825.00,0.90
8824.00,0.90
8823.00,0.91
8822.00,0.91
8821.00,0.91
8820.00,0.92
8819.00,0.92
8818.00,0.92
8817.00,0.93
8816.00,0.93
8815.00,0.93
8814.00,0.93
8813.00,0.94
8812.00,0.94
8811.00,0.94
8810.00,0.94
8809.00,0.94
8808.00,0.94
8807.00,0.95
8806.00,0.94
8805.00,0.94
8804.00,0.94
8803.00,0.94
8802.00,0.94
8801.00,0.94
8800.00,0.93
8799.00,0.93
8798.00,0.93
8797.00,0.93
8796.00,0.93
8795.00,0.93
8794.00,0.93
8793.00,0.93
8792.00,0.93
8791.00,0.93
8790.00,0.93
8789.00,0.93
8788.00,0.93
8787.00,0.93
8786.00,0.93
8785.00,0.93
8784.00,0.93
8783.00,0.93
8782.00,0.93
8781.00,0.93
8780.00,0.93
8779.00,0.93
8778.00,0.93
8777.00,0.93
8776.00,0.93
8775.00,0.93
8774.00,0.94
8773.00,0.94
8772.00,0.94
8771.00,0.94
8770.00,0.94
8769.00,0.93
8768.00,0.93
8767.00,0.93
8766.00,0.93
8765.00,0.93
8764.00,0.93
8763.00,0.93
8762.00,0.93
8761.00,0.92
8760.00,0.92
8759.00,0.92
8758.00,0.92
8757.00,0.92
8756.00,0.92
8755.00,0.92
8754.00,0.92
8753.00,0.92
8752.00,0.92
8751.00,0.92
8750.00,0.92
8749.00,0.92
8748.00,0.92
8747.00,0.93
8746.00,0.93
8745.00,0.93
8744.00,0.93
8743.00,0.93
8742.00,0.93
8741.00,0.93
8740.00,0.93
8739.00,0.94
8738.00,0.94
8737.00,0.94
8736.00,0.94
8735.00,0.94
8734.00,0.94
8733.00,0.94
8732.00,0.94
8731.00,0.94
8730.00,0.93
8729.00,0.93
8728.00,0.93
8727.00,0.93
8726.00,0.92
8725.00,0.92
8724.00,0.92
8723.00,0.91
8722.00,0.91
8721.00,0.91
8720.00,0.91
8719.00,0.90
8718.00,0.90
8717.00,0.90
8716.00,0.89
8715.00,0.89
8714.00,0.88
8713.00,0.88
8712.00,0.87
8711.00,0.87
8710.00,0.86
8709.00,0.86
8708.00,0.86
8707.00,0.86
8706.00,0.86
8705.00,0.86
8704.00,0.86
8703.00,0.86
8702.00,0.86
8701.00,0.86
8700.00,0.87
8699.00,0.87
8698.00,0.87
8697.00,0.87
8696.00,0.87
8695.00,0.87
8694.00,0.87
8693.00,0.88
8692.00,0.88
8691.00,0.88
8690.00,0.88
8689.00,0.88
8688.00,0.89
8687.00,0.89
8686.00,0.89
8685.00,0.89
8684.00,0.90
8683.00,0.90
8682.00,0.90
8681.00,0.90
8680.00,0.90
8679.00,0.89
8678.00,0.89
8677.00,0.89
8676.00,0.89
8675.00,0.88
8674.00,0.88
8673.00,0.88
8672.00,0.88
8671.00,0.88
8670.00,0.88
8669.00,0.88
8668.00,0.88
8667.00,0.87
8666.00,0.87
8665.00,0.87
8664.00,0.87
8663.00,0.87
8662.00,0.87
8661.00,0.87
8660.00,0.87
8659.00,0.87
8658.00,0.87
8657.00,0.87
8656.00,0.87
8655.00,0.87
8654.00,0.87
8653.00,0.87
8652.00,0.87
8651.00,0.87
8650.00,0.87
8649.00,0.87
8648.00,0.87
8647.00,0.87
8646.00,0.86
8645.00,0.86
8644.00,0.86
8643.00,0.86
8642.00,0.85
8641.00,0.85
8640.00,0.85
8639.00,0.84
8638.00,0.84
8637.00,0.84
8636.00,0.83
8635.00,0.83
8634.00,0.82
8633.00,0.82
8632.00,0.82
8631.00,0.82
8630.00,0.81
8629.00,0.81
8628.00,0.81
8627.00,0.81
8626.00,0.81
8625.00,0.81
8624.00,0.81
8623.00,0.81
8622.00,0.81
8621.00,0.81
8620.00,0.81
8619.00,0.80
8618.00,0.81
8617.00,0.81
8616.00,0.81
8615.00,0.81
8614.00,0.81
8613.00,0.81
8612.00,0.81
8611.00,0.82
8610.00,0.82
8609.00,0.82
8608.00,0.83
8607.00,0.83
8606.00,0.84
8605.00,0.84
8604.00,0.84
8603.00,0.85
8602.00,0.85
8601.00,0.85
8600.00,0.86
8599.00,0.86
8598.00,0.86
8597.00,0.86
8596.00,0.87
8595.00,0.87
8594.00,0.88
8593.00,0.88
8592.00,0.88
8591.00,0.89
8590.00,0.89
8589.00,0.90
8588.00,0.90
8587.00,0.91
8586.00,0.91
8585.00,0.91
8584.00,0.92
8583.00,0.92
8582.00,0.92
8581.00,0.92
8580.00,0.92
8579.00,0.92
8578.00,0.92
8577.00,0.93
8576.00,0.93
8575.00,0.93
8574.00,0.93
8573.00,0.93
8572.00,0.93
8571.00,0.93
8570.00,0.92
8569.00,0.92
8568.00,0.92
8567.00,0.92
8566.00,0.91
8565.00,0.91
8564.00,0.91
8563.00,0.90
8562.00,0.90
8561.00,0.89
8560.00,0.89
8559.00,0.89
8558.00,0.89
8557.00,0.88
8556.00,0.88
8555.00,0.87
8554.00,0.87
8553.00,0.87
8552.00,0.86
8551.00,0.86
8550.00,0.85
8549.00,0.85
8548.00,0.84
8547.00,0.84
8546.00,0.83
8545.00,0.83
8544.00,0.83
8543.00,0.82
8542.00,0.82
8541.00,0.82
8540.00,0.82
8539.00,0.82
8538.00,0.82
8537.00,0.82
8536.00,0.82
8535.00,0.82
8534.00,0.82
8533.00,0.81
8532.00,0.81
8531.00,0.81
8530.00,0.81
8529.00,0.81
8528.00,0.81
8527.00,0.82
8526.00,0.82
8525.00,0.82
8524.00,0.82
8523.00,0.83
8522.00,0.83
8521.00,0.83
8520.00,0.84
8519.00,0.84
8518.00,0.84
8517.00,0.84
8516.00,0.85
8515.00,0.85
8514.00,0.85
8513.00,0.85
8512.00,0.85
8511.00,0.85
8510.00,0.85
8509.00,0.84
8508.00,0.84
8507.00,0.84
8506.00,0.84
8505.00,0.84
8504.00,0.84
8503.00,0.84
8502.00,0.84
8501.00,0.84
8500.00,0.83
8499.00,0.83
8498.00,0.83
8497.00,0.82
8496.00,0.82
8495.00,0.82
8494.00,0.81
8493.00,0.81
8492.00,0.81
8491.00,0.81
8490.00,0.80
8489.00,0.80
8488.00,0.80
8487.00,0.80
8486.00,0.80
8485.00,0.80
8484.00,0.79
8483.00,0.79
8482.00,0.79
8481.00,0.79
8480.00,0.79
8479.00,0.79
8478.00,0.79
8477.00,0.79
8476.00,0.79
8475.00,0.79
8474.00,0.79
8473.00,0.79
8472.00,0.79
8471.00,0.79
8470.00,0.79
8469.00,0.79
8468.00,0.80
8467.00,0.80
8466.00,0.80
8465.00,0.80
8464.00,0.80
8463.00,0.81
8462.00,0.81
8461.00,0.81
8460.00,0.81
8459.00,0.81
8458.00,0.81
8457.00,0.82
8456.00,0.82
8455.00,0.82
8454.00,0.83
8453.00,0.83
8452.00,0.83
8451.00,0.84
8450.00,0.84
8449.00,0.84
8448.00,0.85
8447.00,0.85
8446.00,0.85
8445.00,0.85
8444.00,0.86
8443.00,0.86
8442.00,0.86
8441.00,0.86
8440.00,0.86
8439.00,0.86
8438.00,0.86
8437.00,0.86
8436.00,0.86
8435.00,0.86
8434.00,0.86
8433.00,0.86
8432.00,0.86
8431.00,0.86
8430.00,0.86
8429.00,0.86
8428.00,0.85
8427.00,0.85
8426.00,0.85
8425.00,0.84
8424.00,0.84
8423.00,0.83
8422.00,0.83
8421.00,0.82
8420.00,0.82
8419.00,0.81
8418.00,0.81
8417.00,0.80
8416.00,0.80
8415.00,0.79
8414.00,0.79
8413.00,0.78
8412.00,0.78
8411.00,0.78
8410.00,0.77
8409.00,0.77
8408.00,0.77
8407.00,0.76
8406.00,0.76
8405.00,0.76
8404.00,0.76
8403.00,0.76
8402.00,0.76
8401.00,0.76
8400.00,0.76
8399.00,0.77
8398.00,0.77
8397.00,0.77
8396.00,0.77
8395.00,0.78
8394.00,0.78
8393.00,0.79
8392.00,0.79
8391.00,0.79
8390.00,0.80
8389.00,0.80
8388.00,0.81
8387.00,0.81
8386.00,0.82
8385.00,0.82
8384.00,0.83
8383.00,0.83
8382.00,0.83
8381.00,0.84
8380.00,0.84
8379.00,0.84
8378.00,0.85
8377.00,0.85
8376.00,0.85
8375.00,0.85
8374.00,0.86
8373.00,0.86
8372.00,0.86
8371.00,0.86
8370.00,0.86
8369.00,0.86
8368.00,0.86
8367.00,0.87
8366.00,0.87
8365.00,0.87
8364.00,0.87
8363.00,0.87
8362.00,0.87
8361.00,0.87
8360.00,0.87
8359.00,0.87
8358.00,0.87
8357.00,0.87
8356.00,0.87
8355.00,0.88
8354.00,0.88
8353.00,0.88
8352.00,0.88
8351.00,0.88
8350.00,0.88
8349.00,0.88
8348.00,0.88
8347.00,0.88
8346.00,0.88
8345.00,0.88
8344.00,0.88
8343.00,0.88
8342.00,0.88
8341.00,0.88
8340.00,0.88
8339.00,0.88
8338.00,0.87
8337.00,0.87
8336.00,0.87
8335.00,0.86
8334.00,0.86
8333.00,0.86
8332.00,0.85
8331.00,0.85
8330.00,0.85
8329.00,0.84
8328.00,0.84
8327.00,0.84
8326.00,0.83
8325.00,0.83
8324.00,0.83
8323.00,0.83
8322.00,0.83
8321.00,0.83
8320.00,0.83
8319.00,0.83
8318.00,0.83
8317.00,0.83
8316.00,0.83
8315.00,0.84
8314.00,0.84
8313.00,0.85
8312.00,0.85
8311.00,0.86
8310.00,0.86
8309.00,0.87
8308.00,0.87
8307.00,0.88
8306.00,0.88
8305.00,0.89
8304.00,0.89
8303.00,0.90
8302.00,0.90
8301.00,0.90
8300.00,0.91
8299.00,0.91
8298.00,0.91
8297.00,0.91
8296.00,0.91
8295.00,0.91
8294.00,0.91
8293.00,0.90
8292.00,0.90
8291.00,0.90
8290.00,0.90
8289.00,0.89
8288.00,0.89
8287.00,0.89
8286.00,0.88
8285.00,0.88
8284.00,0.87
8283.00,0.87
8282.00,0.86
8281.00,0.86
8280.00,0.85
8279.00,0.85
8278.00,0.84
8277.00,0.84
8276.00,0.84
8275.00,0.84
8274.00,0.83
8273.00,0.83
8272.00,0.83
8271.00,0.83
8270.00,0.83
8269.00,0.83
8268.00,0.83
8267.00,0.83
8266.00,0.83
8265.00,0.83
8264.00,0.83
8263.00,0.83
8262.00,0.83
8261.00,0.84
8260.00,0.84
8259.00,0.84
8258.00,0.84
8257.00,0.84
8256.00,0.84
8255.00,0.85
8254.00,0.85
8253.00,0.85
8252.00,0.85
8251.00,0.85
8250.00,0.85
8249.00,0.85
8248.00,0.85
8247.00,0.85
8246.00,0.86
8245.00,0.86
8244.00,0.86
8243.00,0.85
8242.00,0.85
8241.00,0.85
8240.00,0.85
8239.00,0.85
8238.00,0.84
8237.00,0.84
8236.00,0.84
8235.00,0.83
8234.00,0.83
8233.00,0.82
8232.00,0.82
8231.00,0.82
8230.00,0.81
8229.00,0.81
8228.00,0.81
8227.00,0.81
8226.00,0.81
8225.00,0.80
8224.00,0.80
8223.00,0.80
8222.00,0.80
8221.00,0.80
8220.00,0.80
8219.00,0.80
8218.00,0.79
8217.00,0.79
8216.00,0.79
8215.00,0.79
8214.00,0.79
8213.00,0.79
8212.00,0.80
8211.00,0.80
8210.00,0.80
8209.00,0.80
8208.00,0.81
8207.00,0.81
8206.00,0.81
8205.00,0.82
8204.00,0.82
8203.00,0.82
8202.00,0.82
8201.00,0.82
8200.00,0.82
8199.00,0.82
8198.00,0.82
8197.00,0.82
8196.00,0.82
8195.00,0.82
8194.00,0.82
8193.00,0.83
8192.00,0.83
8191.00,0.83
8190.00,0.83
8189.00,0.83
8188.00,0.84
8187.00,0.84
8186.00,0.84
8185.00,0.85
8184.00,0.85
8183.00,0.85
8182.00,0.86
8181.00,0.86
8180.00,0.86
8179.00,0.87
8178.00,0.87
8177.00,0.87
8176.00,0.88
8175.00,0.88
8174.00,0.89
8173.00,0.89
8172.00,0.89
8171.00,0.90
8170.00,0.90
8169.00,0.90
8168.00,0.91
8167.00,0.91
8166.00,0.91
8165.00,0.91
8164.00,0.91
8163.00,0.91
8162.00,0.91
8161.00,0.91
8160.00,0.91
8159.00,0.91
8158.00,0.91
8157.00,0.91
8156.00,0.90
8155.00,0.90
8154.00,0.90
8153.00,0.90
8152.00,0.90
8151.00,0.90
8150.00,0.89
8149.00,0.89
8148.00,0.89
8147.00,0.89
8146.00,0.89
8145.00,0.89
8144.00,0.89
8143.00,0.89
8142.00,0.89
8141.00,0.89
8140.00,0.89
8139.00,0.89
8138.00,0.89
8137.00,0.89
8136.00,0.89
8135.00,0.89
8134.00,0.89
8133.00,0.89
8132.00,0.89
8131.00,0.89
8130.00,0.89
8129.00,0.89
8128.00,0.89
8127.00,0.89
8126.00,0.88
8125.00,0.88
8124.00,0.88
8123.00,0.88
8122.00,0.88
8121.00,0.88
8120.00,0.88
8119.00,0.88
8118.00,0.87
8117.00,0.87
8116.00,0.87
8115.00,0.87
8114.00,0.87
8113.00,0.86
8112.00,0.86
8111.00,0.86
8110.00,0.86
8109.00,0.85
8108.00,0.85
8107.00,0.85
8106.00,0.85
8105.00,0.85
8104.00,0.85
8103.00,0.85
8102.00,0.85
8101.00,0.85
8100.00,0.85
8099.00,0.85
8098.00,0.85
8097.00,0.85
8096.00,0.85
8095.00,0.85
8094.00,0.85
8093.00,0.85
8092.00,0.85
8091.00,0.85
8090.00,0.85
8089.00,0.85
8088.00,0.85
8087.00,0.85
8086.00,0.86
8085.00,0.86
8084.00,0.86
8083.00,0.86
8082.00,0.86
8081.00,0.86
8080.00,0.86
8079.00,0.87
8078.00,0.87
8077.00,0.87
8076.00,0.87
8075.00,0.87
8074.00,0.87
8073.00,0.87
8072.00,0.87
8071.00,0.87
8070.00,0.87
8069.00,0.87
8068.00,0.87
8067.00,0.88
8066.00,0.88
8065.00,0.88
8064.00,0.88
8063.00,0.88
8062.00,0.87
8061.00,0.87
8060.00,0.87
8059.00,0.87
8058.00,0.87
8057.00,0.86
8056.00,0.86
8055.00,0.86
8054.00,0.86
8053.00,0.85
8052.00,0.85
8051.00,0.85
8050.00,0.85
8049.00,0.85
8048.00,0.84
8047.00,0.84
8046.00,0.84
8045.00,0.84
8044.00,0.84
8043.00,0.84
8042.00,0.84
8041.00,0.84
8040.00,0.83
8039.00,0.83
8038.00,0.83
8037.00,0.84
8036.00,0.84
8035.00,0.84
8034.00,0.84
8033.00,0.84
8032.00,0.85
8031.00,0.85
8030.00,0.85
8029.00,0.86
8028.00,0.86
8027.00,0.86
8026.00,0.87
8025.00,0.87
8024.00,0.87
8023.00,0.87
8022.00,0.88
8021.00,0.88
8020.00,0.88
8019.00,0.88
8018.00,0.89
8017.00,0.89
8016.00,0.89
8015.00,0.89
8014.00,0.90
8013.00,0.90
8012.00,0.90
8011.00,0.90
8010.00,0.91
8009.00,0.91
8008.00,0.91
8007.00,0.91
8006.00,0.91
8005.00,0.91
8004.00,0.91
8003.00,0.91
8002.00,0.91
8001.00,0.91
8000.00,0.91
7999.00,0.91
7998.00,0.91
7997.00,0.91
7996.00,0.91
7995.00,0.91
7994.00,0.91
7993.00,0.91
7992.00,0.91
7991.00,0.91
7990.00,0.91
7989.00,0.91
7988.00,0.90
7987.00,0.90
7986.00,0.90
7985.00,0.90
7984.00,0.90
7983.00,0.90
7982.00,0.90
7981.00,0.90
7980.00,0.90
7979.00,0.90
7978.00,0.90
7977.00,0.90
7976.00,0.90
7975.00,0.90
7974.00,0.90
7973.00,0.90
7972.00,0.90
7971.00,0.90
7970.00,0.91
7969.00,0.91
7968.00,0.91
7967.00,0.91
7966.00,0.91
7965.00,0.91
7964.00,0.91
7963.00,0.91
7962.00,0.92
7961.00,0.92
7960.00,0.92
7959.00,0.92
7958.00,0.92
7957.00,0.92
7956.00,0.91
7955.00,0.91
7954.00,0.91
7953.00,0.91
7952.00,0.90
7951.00,0.90
7950.00,0.90
7949.00,0.89
7948.00,0.89
7947.00,0.88
7946.00,0.88
7945.00,0.88
7944.00,0.88
7943.00,0.87
7942.00,0.87
7941.00,0.87
7940.00,0.86
7939.00,0.86
7938.00,0.86
7937.00,0.86
7936.00,0.85
7935.00,0.85
7934.00,0.85
7933.00,0.85
7932.00,0.85
7931.00,0.85
7930.00,0.85
7929.00,0.85
7928.00,0.85
7927.00,0.86
7926.00,0.86
7925.00,0.86
7924.00,0.86
7923.00,0.87
7922.00,0.87
7921.00,0.87
7920.00,0.87
7919.00,0.87
7918.00,0.87
7917.00,0.87
7916.00,0.87
7915.00,0.87
7914.00,0.88
7913.00,0.88
7912.00,0.88
7911.00,0.88
7910.00,0.88
7909.00,0.88
7908.00,0.88
7907.00,0.88
7906.00,0.88
7905.00,0.88
7904.00,0.87
7903.00,0.87
7902.00,0.87
7901.00,0.87
7900.00,0.86
7899.00,0.86
7898.00,0.86
7897.00,0.85
7896.00,0.85
7895.00,0.85
7894.00,0.85
7893.00,0.84
7892.00,0.84
7891.00,0.84
7890.00,0.84
7889.00,0.84
7888.00,0.84
7887.00,0.84
7886.00,0.83
7885.00,0.83
7884.00,0.83
7883.00,0.83
7882.00,0.83
7881.00,0.83
7880.00,0.83
7879.00,0.83
7878.00,0.83
7877.00,0.84
7876.00,0.84
7875.00,0.84
7874.00,0.84
7873.00,0.85
7872.00,0.85
7871.00,0.85
7870.00,0.86
7869.00,0.86
7868.00,0.86
7867.00,0.87
7866.00,0.87
7865.00,0.87
7864.00,0.88
7863.00,0.88
7862.00,0.88
7861.00,0.88
7860.00,0.88
7859.00,0.88
7858.00,0.88
7857.00,0.88
7856.00,0.88
7855.00,0.88
7854.00,0.88
7853.00,0.88
7852.00,0.88
7851.00,0.88
7850.00,0.88
7849.00,0.88
7848.00,0.88
7847.00,0.88
7846.00,0.88
7845.00,0.88
7844.00,0.88
7843.00,0.87
7842.00,0.87
7841.00,0.87
7840.00,0.87
7839.00,0.87
7838.00,0.87
7837.00,0.87
7836.00,0.87
7835.00,0.87
7834.00,0.87
7833.00,0.88
7832.00,0.88
7831.00,0.88
7830.00,0.88
7829.00,0.89
7828.00,0.89
7827.00,0.89
7826.00,0.90
7825.00,0.90
7824.00,0.90
7823.00,0.91
7822.00,0.91
7821.00,0.91
7820.00,0.92
7819.00,0.92
7818.00,0.92
7817.00,0.93
7816.00,0.93
7815.00,0.93
7814.00,0.93
7813.00,0.93
7812.00,0.94
7811.00,0.94
7810.00,0.94
7809.00,0.94
7808.00,0.94
7807.00,0.94
7806.00,0.94
7805.00,0.94
7804.00,0.94
7803.00,0.94
7802.00,0.94
7801.00,0.94
7800.00,0.94
7799.00,0.93
7798.00,0.93
7797.00,0.93
7796.00,0.93
7795.00,0.93
7794.00,0.93
7793.00,0.93
7792.00,0.93
7791.00,0.93
7790.00,0.94
7789.00,0.94
7788.00,0.94
7787.00,0.94
7786.00,0.94
7785.00,0.94
7784.00,0.94
7783.00,0.95
7782.00,0.95
7781.00,0.95
7780.00,0.95
7779.00,0.95
7778.00,0.96
7777.00,0.96
7776.00,0.96
7775.00,0.96
7774.00,0.96
7773.00,0.97
7772.00,0.97
7771.00,0.97
7770.00,0.97
7769.00,0.97
7768.00,0.97
7767.00,0.97
7766.00,0.98
7765.00,0.98
7764.00,0.98
7763.00,0.98
7762.00,0.98
7761.00,0.98
7760.00,0.98
7759.00,0.98
7758.00,0.97
7757.00,0.97
7756.00,0.97
7755.00,0.97
7754.00,0.97
7753.00,0.97
7752.00,0.96
7751.00,0.96
7750.00,0.96
7749.00,0.96
7748.00,0.96
7747.00,0.96
7746.00,0.95
7745.00,0.95
7744.00,0.95
7743.00,0.95
7742.00,0.95
7741.00,0.94
7740.00,0.94
7739.00,0.94
7738.00,0.94
7737.00,0.93
7736.00,0.93
7735.00,0.93
7734.00,0.93
7733.00,0.93
7732.00,0.92
7731.00,0.92
7730.00,0.92
7729.00,0.92
7728.00,0.92
7727.00,0.92
7726.00,0.92
7725.00,0.92
7724.00,0.92
7723.00,0.92
7722.00,0.92
7721.00,0.93
7720.00,0.93
7719.00,0.93
7718.00,0.93
7717.00,0.93
7716.00,0.93
7715.00,0.94
7714.00,0.94
7713.00,0.94
7712.00,0.94
7711.00,0.95
7710.00,0.95
7709.00,0.95
7708.00,0.95
7707.00,0.96
7706.00,0.96
7705.00,0.96
7704.00,0.96
7703.00,0.97
7702.00,0.97
7701.00,0.97
7700.00,0.97
7699.00,0.97
7698.00,0.97
7697.00,0.97
7696.00,0.97
7695.00,0.97
7694.00,0.97
7693.00,0.97
7692.00,0.97
7691.00,0.97
7690.00,0.97
7689.00,0.97
7688.00,0.97
7687.00,0.97
7686.00,0.97
7685.00,0.97
7684.00,0.97
7683.00,0.97
7682.00,0.97
7681.00,0.97
7680.00,0.97
7679.00,0.97
7678.00,0.97
7677.00,0.97
7676.00,0.97
7675.00,0.97
7674.00,0.97
7673.00,0.96
7672.00,0.96
7671.00,0.96
7670.00,0.96
7669.00,0.96
7668.00,0.95
7667.00,0.95
7666.00,0.95
7665.00,0.94
7664.00,0.94
7663.00,0.94
7662.00,0.93
7661.00,0.93
7660.00,0.92
7659.00,0.92
7658.00,0.92
7657.00,0.91
7656.00,0.91
7655.00,0.91
7654.00,0.90
7653.00,0.90
7652.00,0.90
7651.00,0.90
7650.00,0.90
7649.00,0.90
7648.00,0.90
7647.00,0.90
7646.00,0.90
7645.00,0.90
7644.00,0.90
7643.00,0.90
7642.00,0.91
7641.00,0.91
7640.00,0.91
7639.00,0.91
7638.00,0.91
7637.00,0.91
7636.00,0.92
7635.00,0.92
7634.00,0.92
7633.00,0.92
7632.00,0.92
7631.00,0.93
7630.00,0.93
7629.00,0.93
7628.00,0.93
7627.00,0.93
7626.00,0.93
7625.00,0.93
7624.00,0.93
7623.00,0.93
7622.00,0.92
7621.00,0.92
7620.00,0.92
7619.00,0.92
7618.00,0.92
7617.00,0.92
7616.00,0.91
7615.00,0.91
7614.00,0.91
7613.00,0.91
7612.00,0.91
7611.00,0.91
7610.00,0.91
7609.00,0.91
7608.00,0.91
7607.00,0.91
7606.00,0.91
7605.00,0.91
7604.00,0.91
7603.00,0.91
7602.00,0.91
7601.00,0.91
7600.00,0.91
7599.00,0.91
7598.00,0.91
7597.00,0.91
7596.00,0.91
7595.00,0.92
7594.00,0.92
7593.00,0.92
7592.00,0.92
7591.00,0.92
7590.00,0.92
7589.00,0.92
7588.00,0.92
7587.00,0.92
7586.00,0.93
7585.00,0.93
7584.00,0.93
7583.00,0.93
7582.00,0.93
7581.00,0.93
7580.00,0.93
7579.00,0.93
7578.00,0.93
7577.00,0.93
7576.00,0.92
7575.00,0.92
7574.00,0.92
7573.00,0.92
7572.00,0.92
7571.00,0.92
7570.00,0.92
7569.00,0.92
7568.00,0.91
7567.00,0.91
7566.00,0.91
7565.00,0.91
7564.00,0.91
7563.00,0.91
7562.00,0.90
7561.00,0.90
7560.00,0.90
7559.00,0.90
7558.00,0.89
7557.00,0.89
7556.00,0.89
7555.00,0.88
7554.00,0.88
7553.00,0.88
7552.00,0.88
7551.00,0.87
7550.00,0.87
7549.00,0.87
7548.00,0.87
7547.00,0.86
7546.00,0.86
7545.00,0.86
7544.00,0.86
7543.00,0.85
7542.00,0.85
7541.00,0.85
7540.00,0.85
7539.00,0.84
7538.00,0.84
7537.00,0.84
7536.00,0.84
7535.00,0.84
7534.00,0.84
7533.00,0.84
7532.00,0.84
7531.00,0.84
7530.00,0.84
7529.00,0.84
7528.00,0.85
7527.00,0.85
7526.00,0.85
7525.00,0.85
7524.00,0.85
7523.00,0.86
7522.00,0.86
7521.00,0.86
7520.00,0.87
7519.00,0.87
7518.00,0.87
7517.00,0.88
7516.00,0.88
7515.00,0.88
7514.00,0.89
7513.00,0.89
7512.00,0.89
7511.00,0.89
7510.00,0.90
7509.00,0.90
7508.00,0.90
7507.00,0.90
7506.00,0.90
7505.00,0.90
7504.00,0.91
7503.00,0.91
7502.00,0.91
7501.00,0.91
7500.00,0.91
7499.00,0.91
7498.00,0.91
7497.00,0.91
7496.00,0.91
7495.00,0.91
7494.00,0.91
7493.00,0.91
7492.00,0.91
7491.00,0.91
7490.00,0.91
7489.00,0.91
7488.00,0.91
7487.00,0.91
7486.00,0.91
7485.00,0.91
7484.00,0.91
7483.00,0.91
7482.00,0.91
7481.00,0.90
7480.00,0.90
7479.00,0.90
7478.00,0.90
7477.00,0.90
7476.00,0.90
7475.00,0.90
7474.00,0.91
7473.00,0.91
7472.00,0.91
7471.00,0.91
7470.00,0.91
7469.00,0.91
7468.00,0.91
7467.00,0.91
7466.00,0.91
7465.00,0.92
7464.00,0.92
7463.00,0.92
7462.00,0.92
7461.00,0.92
7460.00,0.93
7459.00,0.93
7458.00,0.93
7457.00,0.93
7456.00,0.94
7455.00,0.94
7454.00,0.94
7453.00,0.94
7452.00,0.95
7451.00,0.95
7450.00,0.95
7449.00,0.95
7448.00,0.95
7447.00,0.95
7446.00,0.95
7445.00,0.95
7444.00,0.95
7443.00,0.95
7442.00,0.95
7441.00,0.95
7440.00,0.95
7439.00,0.95
7438.00,0.95
7437.00,0.94
7436.00,0.94
7435.00,0.94
7434.00,0.94
7433.00,0.94
7432.00,0.94
7431.00,0.93
7430.00,0.93
7429.00,0.93
7428.00,0.93
7427.00,0.92
7426.00,0.92
7425.00,0.92
7424.00,0.92
7423.00,0.91
7422.00,0.91
7421.00,0.91
7420.00,0.90
7419.00,0.90
7418.00,0.90
7417.00,0.90
7416.00,0.89
7415.00,0.89
7414.00,0.89
7413.00,0.89
7412.00,0.88
7411.00,0.88
7410.00,0.88
7409.00,0.88
7408.00,0.88
7407.00,0.87
7406.00,0.87
7405.00,0.87
7404.00,0.87
7403.00,0.87
7402.00,0.87
7401.00,0.87
7400.00,0.87
7399.00,0.87
7398.00,0.87
7397.00,0.87
7396.00,0.87
7395.00,0.87
7394.00,0.87
7393.00,0.87
7392.00,0.87
7391.00,0.87
7390.00,0.87
7389.00,0.87
7388.00,0.87
7387.00,0.87
7386.00,0.87
7385.00,0.87
7384.00,0.87
7383.00,0.87
7382.00,0.87
7381.00,0.87
7380.00,0.87
7379.00,0.88
7378.00,0.88
7377.00,0.88
7376.00,0.88
7375.00,0.88
7374.00,0.88
7373.00,0.88
7372.00,0.88
7371.00,0.88
7370.00,0.88
7369.00,0.88
7368.00,0.88
7367.00,0.88
7366.00,0.88
7365.00,0.88
7364.00,0.88
7363.00,0.88
7362.00,0.88
7361.00,0.88
7360.00,0.88
7359.00,0.88
7358.00,0.88
7357.00,0.88
7356.00,0.88
7355.00,0.88
7354.00,0.88
7353.00,0.88
7352.00,0.88
7351.00,0.88
7350.00,0.88
7349.00,0.88
7348.00,0.88
7347.00,0.88
7346.00,0.88
7345.00,0.88
7344.00,0.89
7343.00,0.89
7342.00,0.89
7341.00,0.89
7340.00,0.89
7339.00,0.89
7338.00,0.89
7337.00,0.89
7336.00,0.89
7335.00,0.89
7334.00,0.89
7333.00,0.90
7332.00,0.90
7331.00,0.90
7330.00,0.90
7329.00,0.90
7328.00,0.90
7327.00,0.91
7326.00,0.91
7325.00,0.91
7324.00,0.91
7323.00,0.91
7322.00,0.91
7321.00,0.91
7320.00,0.92
7319.00,0.92
7318.00,0.92
7317.00,0.92
7316.00,0.91
7315.00,0.91
7314.00,0.91
7313.00,0.91
7312.00,0.91
7311.00,0.91
7310.00,0.91
7309.00,0.91
7308.00,0.90
7307.00,0.90
7306.00,0.90
7305.00,0.90
7304.00,0.90
7303.00,0.89
7302.00,0.89
7301.00,0.89
7300.00,0.89
7299.00,0.88
7298.00,0.88
7297.00,0.88
7296.00,0.87
7295.00,0.87
7294.00,0.87
7293.00,0.87
7292.00,0.87
7291.00,0.87
7290.00,0.87
7289.00,0.86
7288.00,0.86
7287.00,0.86
7286.00,0.86
7285.00,0.86
7284.00,0.86
7283.00,0.86
7282.00,0.86
7281.00,0.86
7280.00,0.86
7279.00,0.87
7278.00,0.87
7277.00,0.87
7276.00,0.87
7275.00,0.87
7274.00,0.87
7273.00,0.87
7272.00,0.88
7271.00,0.88
7270.00,0.88
7269.00,0.88
7268.00,0.88
7267.00,0.89
7266.00,0.89
7265.00,0.89
7264.00,0.89
7263.00,0.89
7262.00,0.90
7261.00,0.90
7260.00,0.90
7259.00,0.90
7258.00,0.90
7257.00,0.90
7256.00,0.90
7255.00,0.91
7254.00,0.91
7253.00,0.91
7252.00,0.91
7251.00,0.91
7250.00,0.91
7249.00,0.91
7248.00,0.91
7247.00,0.91
7246.00,0.91
7245.00,0.91
7244.00,0.91
7243.00,0.91
7242.00,0.91
7241.00,0.90
7240.00,0.90
7239.00,0.90
7238.00,0.90
7237.00,0.90
7236.00,0.90
7235.00,0.89
7234.00,0.89
7233.00,0.89
7232.00,0.89
7231.00,0.88
7230.00,0.88
7229.00,0.88
7228.00,0.88
7227.00,0.88
7226.00,0.87
7225.00,0.87
7224.00,0.87
7223.00,0.87
7222.00,0.87
7221.00,0.86
7220.00,0.86
7219.00,0.86
7218.00,0.86
7217.00,0.85
7216.00,0.85
7215.00,0.85
7214.00,0.84
7213.00,0.84
7212.00,0.84
7211.00,0.84
7210.00,0.84
7209.00,0.83
7208.00,0.83
7207.00,0.83
7206.00,0.83
7205.00,0.83
7204.00,0.83
7203.00,0.82
7202.00,0.82
7201.00,0.82
7200.00,0.82
7199.00,0.82
7198.00,0.81
7197.00,0.81
7196.00,0.81
7195.00,0.81
7194.00,0.81
7193.00,0.81
7192.00,0.81
7191.00,0.81
7190.00,0.81
7189.00,0.80
7188.00,0.80
7187.00,0.80
7186.00,0.80
7185.00,0.80
7184.00,0.80
7183.00,0.80
7182.00,0.80
7181.00,0.80
7180.00,0.80
7179.00,0.80
7178.00,0.80
7177.00,0.80
7176.00,0.80
7175.00,0.80
7174.00,0.79
7173.00,0.79
7172.00,0.79
7171.00,0.79
7170.00,0.79
7169.00,0.79
7168.00,0.79
7167.00,0.79
7166.00,0.79
7165.00,0.79
7164.00,0.79
7163.00,0.79
7162.00,0.79
7161.00,0.79
7160.00,0.79
7159.00,0.79
7158.00,0.79
7157.00,0.79
7156.00,0.78
7155.00,0.78
7154.00,0.78
7153.00,0.78
7152.00,0.78
7151.00,0.78
7150.00,0.77
7149.00,0.77
7148.00,0.77
7147.00,0.77
7146.00,0.77
7145.00,0.76
7144.00,0.76
7143.00,0.76
7142.00,0.76
7141.00,0.75
7140.00,0.75
7139.00,0.75
7138.00,0.75
7137.00,0.75
7136.00,0.74
7135.00,0.74
7134.00,0.74
7133.00,0.74
7132.00,0.74
7131.00,0.74
7130.00,0.74
7129.00,0.74
7128.00,0.74
7127.00,0.74
7126.00,0.74
7125.00,0.74
7124.00,0.75
7123.00,0.75
7122.00,0.75
7121.00,0.75
7120.00,0.75
7119.00,0.76
7118.00,0.76
7117.00,0.76
7116.00,0.77
7115.00,0.77
7114.00,0.78
7113.00,0.78
7112.00,0.78
7111.00,0.79
7110.00,0.79
7109.00,0.80
7108.00,0.80
7107.00,0.80
7106.00,0.81
7105.00,0.81
7104.00,0.81
7103.00,0.82
7102.00,0.82
7101.00,0.82
7100.00,0.82
7099.00,0.82
7098.00,0.83
7097.00,0.83
7096.00,0.83
7095.00,0.83
7094.00,0.83
7093.00,0.83
7092.00,0.83
7091.00,0.82
7090.00,0.82
7089.00,0.82
7088.00,0.82
7087.00,0.82
7086.00,0.81
7085.00,0.81
7084.00,0.81
7083.00,0.80
7082.00,0.80
7081.00,0.80
7080.00,0.80
7079.00,0.79
7078.00,0.79
7077.00,0.79
7076.00,0.79
7075.00,0.79
7074.00,0.79
7073.00,0.78
7072.00,0.78
7071.00,0.78
7070.00,0.78
7069.00,0.78
7068.00,0.78
7067.00,0.79
7066.00,0.79
7065.00,0.79
7064.00,0.79
7063.00,0.79
7062.00,0.79
7061.00,0.79
7060.00,0.79
7059.00,0.80
7058.00,0.80
7057.00,0.80
7056.00,0.80
7055.00,0.80
7054.00,0.80
7053.00,0.80
7052.00,0.80
7051.00,0.80
7050.00,0.80
7049.00,0.80
7048.00,0.80
7047.00,0.80
7046.00,0.80
7045.00,0.80
7044.00,0.80
7043.00,0.80
7042.00,0.79
7041.00,0.79
7040.00,0.79
7039.00,0.79
7038.00,0.78
7037.00,0.78
7036.00,0.78
7035.00,0.78
7034.00,0.77
7033.00,0.77
7032.00,0.77
7031.00,0.77
7030.00,0.77
7029.00,0.76
7028.00,0.76
7027.00,0.76
7026.00,0.76
7025.00,0.75
7024.00,0.75
7023.00,0.75
7022.00,0.75
7021.00,0.74
7020.00,0.74
7019.00,0.74
7018.00,0.74
7017.00,0.74
7016.00,0.74
7015.00,0.74
7014.00,0.74
7013.00,0.74
7012.00,0.73
7011.00,0.73
7010.00,0.73
7009.00,0.73
7008.00,0.73
7007.00,0.73
7006.00,0.74
7005.00,0.74
7004.00,0.74
7003.00,0.74
7002.00,0.74
7001.00,0.74
7000.00,0.74
6999.00,0.75
6998.00,0.75
6997.00,0.75
6996.00,0.76
6995.00,0.76
6994.00,0.76
6993.00,0.77
6992.00,0.77
6991.00,0.77
6990.00,0.78
6989.00,0.78
6988.00,0.78
6987.00,0.79
6986.00,0.79
6985.00,0.79
6984.00,0.80
6983.00,0.80
6982.00,0.80
6981.00,0.80
6980.00,0.80
6979.00,0.80
6978.00,0.80
6977.00,0.81
6976.00,0.81
6975.00,0.81
6974.00,0.81
6973.00,0.81
6972.00,0.81
6971.00,0.81
6970.00,0.81
6969.00,0.81
6968.00,0.81
6967.00,0.81
6966.00,0.81
6965.00,0.81
6964.00,0.81
6963.00,0.81
6962.00,0.80
6961.00,0.80
6960.00,0.80
6959.00,0.80
6958.00,0.80
6957.00,0.80
6956.00,0.80
6955.00,0.80
6954.00,0.80
6953.00,0.80
6952.00,0.80
6951.00,0.81
6950.00,0.81
6949.00,0.81
6948.00,0.81
6947.00,0.81
6946.00,0.81
6945.00,0.81
6944.00,0.81
6943.00,0.81
6942.00,0.81
6941.00,0.81
6940.00,0.81
6939.00,0.81
6938.00,0.81
6937.00,0.81
6936.00,0.81
6935.00,0.81
6934.00,0.81
6933.00,0.81
6932.00,0.81
6931.00,0.81
6930.00,0.81
6929.00,0.81
6928.00,0.81
6927.00,0.81
6926.00,0.81
6925.00,0.81
6924.00,0.81
6923.00,0.81
6922.00,0.81
6921.00,0.81
6920.00,0.81
6919.00,0.81
6918.00,0.81
6917.00,0.81
6916.00,0.81
6915.00,0.81
6914.00,0.81
6913.00,0.81
6912.00,0.81
6911.00,0.81
6910.00,0.81
6909.00,0.81
6908.00,0.81
6907.00,0.81
6906.00,0.81
6905.00,0.81
6904.00,0.81
6903.00,0.81
6902.00,0.81
6901.00,0.81
6900.00,0.81
6899.00,0.81
6898.00,0.81
6897.00,0.81
6896.00,0.81
6895.00,0.81
6894.00,0.80
6893.00,0.80
6892.00,0.80
6891.00,0.80
6890.00,0.80
6889.00,0.80
6888.00,0.80
6887.00,0.80
6886.00,0.79
6885.00,0.79
6884.00,0.79
6883.00,0.79
6882.00,0.79
6881.00,0.79
6880.00,0.79
6879.00,0.79
6878.00,0.79
6877.00,0.79
6876.00,0.79
6875.00,0.79
6874.00,0.79
6873.00,0.79
6872.00,0.79
6871.00,0.79
6870.00,0.79
6869.00,0.79
6868.00,0.79
6867.00,0.79
6866.00,0.79
6865.00,0.79
6864.00,0.79
6863.00,0.79
6862.00,0.79
6861.00,0.79
6860.00,0.79
6859.00,0.79
6858.00,0.79
6857.00,0.79
6856.00,0.79
6855.00,0.79
6854.00,0.79
6853.00,0.79
6852.00,0.79
6851.00,0.78
6850.00,0.78
6849.00,0.78
6848.00,0.78
6847.00,0.78
6846.00,0.78
6845.00,0.78
6844.00,0.78
6843.00,0.78
6842.00,0.78
6841.00,0.78
6840.00,0.78
6839.00,0.78
6838.00,0.78
6837.00,0.78
6836.00,0.78
6835.00,0.78
6834.00,0.79
6833.00,0.79
6832.00,0.79
6831.00,0.79
6830.00,0.79
6829.00,0.80
6828.00,0.80
6827.00,0.80
6826.00,0.80
6825.00,0.81
6824.00,0.81
6823.00,0.81
6822.00,0.81
6821.00,0.82
6820.00,0.82
6819.00,0.82
6818.00,0.82
6817.00,0.82
6816.00,0.83
6815.00,0.83
6814.00,0.83
6813.00,0.83
6812.00,0.83
6811.00,0.83
6810.00,0.83
6809.00,0.83
6808.00,0.83
6807.00,0.83
6806.00,0.83
6805.00,0.83
6804.00,0.83
6803.00,0.83
6802.00,0.83
6801.00,0.83
6800.00,0.83
6799.00,0.83
6798.00,0.83
6797.00,0.83
6796.00,0.83
6795.00,0.83
6794.00,0.83
6793.00,0.82
6792.00,0.82
6791.00,0.82
6790.00,0.82
6789.00,0.82
6788.00,0.82
6787.00,0.82
6786.00,0.82
6785.00,0.82
6784.00,0.82
6783.00,0.82
6782.00,0.82
6781.00,0.82
6780.00,0.82
6779.00,0.82
6778.00,0.82
6777.00,0.82
6776.00,0.82
6775.00,0.82
6774.00,0.82
6773.00,0.81
6772.00,0.81
6771.00,0.81
6770.00,0.81
6769.00,0.81
6768.00,0.81
6767.00,0.81
6766.00,0.81
6765.00,0.81
6764.00,0.81
6763.00,0.81
6762.00,0.81
6761.00,0.81
6760.00,0.81
6759.00,0.81
6758.00,0.81
6757.00,0.81
6756.00,0.81
6755.00,0.81
6754.00,0.81
6753.00,0.80
6752.00,0.80
6751.00,0.80
6750.00,0.80
6749.00,0.80
6748.00,0.80
6747.00,0.80
6746.00,0.80
6745.00,0.80
6744.00,0.80
6743.00,0.80
6742.00,0.80
6741.00,0.80
6740.00,0.80
6739.00,0.80
6738.00,0.80
6737.00,0.80
6736.00,0.80
6735.00,0.80
6734.00,0.80
6733.00,0.80
6732.00,0.80
6731.00,0.80
6730.00,0.80
6729.00,0.80
6728.00,0.80
6727.00,0.80
6726.00,0.80
6725.00,0.80
6724.00,0.80
6723.00,0.80
6722.00,0.80
6721.00,0.80
6720.00,0.80
6719.00,0.80
6718.00,0.80
6717.00,0.81
6716.00,0.81
6715.00,0.81
6714.00,0.81
6713.00,0.81
6712.00,0.81
6711.00,0.81
6710.00,0.81
6709.00,0.81
6708.00,0.81
6707.00,0.81
6706.00,0.81
6705.00,0.81
6704.00,0.81
6703.00,0.81
6702.00,0.82
6701.00,0.82
6700.00,0.82
6699.00,0.82
6698.00,0.82
6697.00,0.82
6696.00,0.82
6695.00,0.82
6694.00,0.82
6693.00,0.82
6692.00,0.82
6691.00,0.82
6690.00,0.82
6689.00,0.82
6688.00,0.82
6687.00,0.82
6686.00,0.83
6685.00,0.83
6684.00,0.83
6683.00,0.83
6682.00,0.83
6681.00,0.83
6680.00,0.83
6679.00,0.83
6678.00,0.83
6677.00,0.83
6676.00,0.83
6675.00,0.83
6674.00,0.83
6673.00,0.84
6672.00,0.84
6671.00,0.84
6670.00,0.84
6669.00,0.84
6668.00,0.84
6667.00,0.84
6666.00,0.84
6665.00,0.85
6664.00,0.85
6663.00,0.85
6662.00,0.85
6661.00,0.85
6660.00,0.85
6659.00,0.85
6658.00,0.85
6657.00,0.85
6656.00,0.85
6655.00,0.85
6654.00,0.85
6653.00,0.85
6652.00,0.85
6651.00,0.85
6650.00,0.85
6649.00,0.85
6648.00,0.85
6647.00,0.85
6646.00,0.85
6645.00,0.84
6644.00,0.84
6643.00,0.84
6642.00,0.84
6641.00,0.84
6640.00,0.83
6639.00,0.83
6638.00,0.83
6637.00,0.83
6636.00,0.83
6635.00,0.83
6634.00,0.83
6633.00,0.82
6632.00,0.82
6631.00,0.82
6630.00,0.82
6629.00,0.82
6628.00,0.82
6627.00,0.82
6626.00,0.82
6625.00,0.82
6624.00,0.82
6623.00,0.82
6622.00,0.82
6621.00,0.82
6620.00,0.82
6619.00,0.82
6618.00,0.83
6617.00,0.83
6616.00,0.83
6615.00,0.83
6614.00,0.84
6613.00,0.84
6612.00,0.84
6611.00,0.85
6610.00,0.85
6609.00,0.85
6608.00,0.85
6607.00,0.86
6606.00,0.86
6605.00,0.86
6604.00,0.87
6603.00,0.87
6602.00,0.87
6601.00,0.88
6600.00,0.88
6599.00,0.88
6598.00,0.88
6597.00,0.89
6596.00,0.89
6595.00,0.89
6594.00,0.89
6593.00,0.89
6592.00,0.90
6591.00,0.90
6590.00,0.90
6589.00,0.90
6588.00,0.90
6587.00,0.90
6586.00,0.90
6585.00,0.90
6584.00,0.90
6583.00,0.90
6582.00,0.90
6581.00,0.90
6580.00,0.90
6579.00,0.89
6578.00,0.89
6577.00,0.89
6576.00,0.89
6575.00,0.89
6574.00,0.89
6573.00,0.89
6572.00,0.89
6571.00,0.88
6570.00,0.88
6569.00,0.88
6568.00,0.88
6567.00,0.88
6566.00,0.87
6565.00,0.87
6564.00,0.87
6563.00,0.87
6562.00,0.87
6561.00,0.86
6560.00,0.86
6559.00,0.86
6558.00,0.86
6557.00,0.86
6556.00,0.86
6555.00,0.86
6554.00,0.86
6553.00,0.86
6552.00,0.86
6551.00,0.86
6550.00,0.85
6549.00,0.85
6548.00,0.85
6547.00,0.85
6546.00,0.85
6545.00,0.85
6544.00,0.85
6543.00,0.86
6542.00,0.86
6541.00,0.86
6540.00,0.86
6539.00,0.86
6538.00,0.86
6537.00,0.86
6536.00,0.86
6535.00,0.86
6534.00,0.87
6533.00,0.87
6532.00,0.87
6531.00,0.87
6530.00,0.87
6529.00,0.87
6528.00,0.87
6527.00,0.87
6526.00,0.87
6525.00,0.87
6524.00,0.87
6523.00,0.87
6522.00,0.87
6521.00,0.87
6520.00,0.87
6519.00,0.87
6518.00,0.87
6517.00,0.87
6516.00,0.87
6515.00,0.87
6514.00,0.87
6513.00,0.87
6512.00,0.86
6511.00,0.86
6510.00,0.86
6509.00,0.86
6508.00,0.86
6507.00,0.86
6506.00,0.86
6505.00,0.86
6504.00,0.86
6503.00,0.86
6502.00,0.86
6501.00,0.86
6500.00,0.86
6499.00,0.86
6498.00,0.86
6497.00,0.86
6496.00,0.86
6495.00,0.86
6494.00,0.87
6493.00,0.87
6492.00,0.87
6491.00,0.87
6490.00,0.87
6489.00,0.87
6488.00,0.87
6487.00,0.87
6486.00,0.87
6485.00,0.88
6484.00,0.88
6483.00,0.88
6482.00,0.88
6481.00,0.88
6480.00,0.88
6479.00,0.88
6478.00,0.88
6477.00,0.88
6476.00,0.88
6475.00,0.88
6474.00,0.88
6473.00,0.88
6472.00,0.88
6471.00,0.88
6470.00,0.88
6469.00,0.88
6468.00,0.88
6467.00,0.88
6466.00,0.88
6465.00,0.88
6464.00,0.88
6463.00,0.88
6462.00,0.88
6461.00,0.88
6460.00,0.88
6459.00,0.88
6458.00,0.88
6457.00,0.88
6456.00,0.89
6455.00,0.89
6454.00,0.89
6453.00,0.89
6452.00,0.89
6451.00,0.89
6450.00,0.90
6449.00,0.90
6448.00,0.90
6447.00,0.90
6446.00,0.90
6445.00,0.91
6444.00,0.91
6443.00,0.91
6442.00,0.91
6441.00,0.91
6440.00,0.91
6439.00,0.91
6438.00,0.91
6437.00,0.91
6436.00,0.91
6435.00,0.91
6434.00,0.91
6433.00,0.91
6432.00,0.91
6431.00,0.91
6430.00,0.91
6429.00,0.91
6428.00,0.91
6427.00,0.91
6426.00,0.91
6425.00,0.91
6424.00,0.90
6423.00,0.90
6422.00,0.90
6421.00,0.90
6420.00,0.89
6419.00,0.89
6418.00,0.89
6417.00,0.89
6416.00,0.89
6415.00,0.89
6414.00,0.89
6413.00,0.89
6412.00,0.88
6411.00,0.88
6410.00,0.88
6409.00,0.88
6408.00,0.88
6407.00,0.88
6406.00,0.88
6405.00,0.88
6404.00,0.88
6403.00,0.88
6402.00,0.88
6401.00,0.88
6400.00,0.88
6399.00,0.88
6398.00,0.88
6397.00,0.88
6396.00,0.88
6395.00,0.88
6394.00,0.88
6393.00,0.88
6392.00,0.88
6391.00,0.88
6390.00,0.89
6389.00,0.89
6388.00,0.89
6387.00,0.89
6386.00,0.89
6385.00,0.89
6384.00,0.89
6383.00,0.89
6382.00,0.89
6381.00,0.89
6380.00,0.89
6379.00,0.89
6378.00,0.89
6377.00,0.89
6376.00,0.89
6375.00,0.90
6374.00,0.90
6373.00,0.90
6372.00,0.90
6371.00,0.90
6370.00,0.90
6369.00,0.90
6368.00,0.90
6367.00,0.90
6366.00,0.90
6365.00,0.90
6364.00,0.91
6363.00,0.91
6362.00,0.91
6361.00,0.91
6360.00,0.91
6359.00,0.91
6358.00,0.91
6357.00,0.92
6356.00,0.92
6355.00,0.92
6354.00,0.92
6353.00,0.92
6352.00,0.93
6351.00,0.93
6350.00,0.93
6349.00,0.93
6348.00,0.93
6347.00,0.94
6346.00,0.94
6345.00,0.94
6344.00,0.94
6343.00,0.94
6342.00,0.94
6341.00,0.94
6340.00,0.94
6339.00,0.94
6338.00,0.94
6337.00,0.94
6336.00,0.94
6335.00,0.94
6334.00,0.94
6333.00,0.94
6332.00,0.94
6331.00,0.94
6330.00,0.94
6329.00,0.94
6328.00,0.94
6327.00,0.94
6326.00,0.93
6325.00,0.93
6324.00,0.93
6323.00,0.93
6322.00,0.93
6321.00,0.93
6320.00,0.93
6319.00,0.93
6318.00,0.92
6317.00,0.92
6316.00,0.92
6315.00,0.92
6314.00,0.92
6313.00,0.92
6312.00,0.92
6311.00,0.92
6310.00,0.92
6309.00,0.92
6308.00,0.92
6307.00,0.92
6306.00,0.92
6305.00,0.92
6304.00,0.92
6303.00,0.92
6302.00,0.92
6301.00,0.92
6300.00,0.92
6299.00,0.92
6298.00,0.92
6297.00,0.92
6296.00,0.92
6295.00,0.92
6294.00,0.92
6293.00,0.92
6292.00,0.92
6291.00,0.92
6290.00,0.92
6289.00,0.92
6288.00,0.92
6287.00,0.92
6286.00,0.92
6285.00,0.92
6284.00,0.92
6283.00,0.92
6282.00,0.92
6281.00,0.92
6280.00,0.92
6279.00,0.92
6278.00,0.93
6277.00,0.93
6276.00,0.93
6275.00,0.93
6274.00,0.93
6273.00,0.93
6272.00,0.93
6271.00,0.93
6270.00,0.94
6269.00,0.94
6268.00,0.94
6267.00,0.94
6266.00,0.94
6265.00,0.95
6264.00,0.95
6263.00,0.95
6262.00,0.95
6261.00,0.95
6260.00,0.95
6259.00,0.95
6258.00,0.95
6257.00,0.96
6256.00,0.96
6255.00,0.96
6254.00,0.96
6253.00,0.96
6252.00,0.96
6251.00,0.96
6250.00,0.96
6249.00,0.96
6248.00,0.96
6247.00,0.96
6246.00,0.96
6245.00,0.96
6244.00,0.96
6243.00,0.96
6242.00,0.96
6241.00,0.96
6240.00,0.96
6239.00,0.97
6238.00,0.97
6237.00,0.97
6236.00,0.97
6235.00,0.97
6234.00,0.97
6233.00,0.97
6232.00,0.97
6231.00,0.97
6230.00,0.97
6229.00,0.97
6228.00,0.97
6227.00,0.97
6226.00,0.97
6225.00,0.97
6224.00,0.97
6223.00,0.98
6222.00,0.98
6221.00,0.98
6220.00,0.98
6219.00,0.98
6218.00,0.98
6217.00,0.98
6216.00,0.98
6215.00,0.98
6214.00,0.98
6213.00,0.98
6212.00,0.98
6211.00,0.98
6210.00,0.98
6209.00,0.98
6208.00,0.98
6207.00,0.98
6206.00,0.98
6205.00,0.98
6204.00,0.98
6203.00,0.98
6202.00,0.97
6201.00,0.97
6200.00,0.97
6199.00,0.97
6198.00,0.97
6197.00,0.97
6196.00,0.97
6195.00,0.97
6194.00,0.97
6193.00,0.97
6192.00,0.97
6191.00,0.97
6190.00,0.97
6189.00,0.97
6188.00,0.97
6187.00,0.97
6186.00,0.97
6185.00,0.97
6184.00,0.97
6183.00,0.97
6182.00,0.97
6181.00,0.97
6180.00,0.97
6179.00,0.97
6178.00,0.97
6177.00,0.97
6176.00,0.97
6175.00,0.97
6174.00,0.97
6173.00,0.97
6172.00,0.97
6171.00,0.97
6170.00,0.97
6169.00,0.97
6168.00,0.97
6167.00,0.97
6166.00,0.97
6165.00,0.97
6164.00,0.97
6163.00,0.97
6162.00,0.97
6161.00,0.97
6160.00,0.97
6159.00,0.97
6158.00,0.97
6157.00,0.97
6156.00,0.98
6155.00,0.98
6154.00,0.98
6153.00,0.98
6152.00,0.98
6151.00,0.98
6150.00,0.98
6149.00,0.98
6148.00,0.98
6147.00,0.98
6146.00,0.99
6145.00,0.99
6144.00,0.99
6143.00,0.99
6142.00,0.99
6141.00,0.99
6140.00,0.99
6139.00,0.99
6138.00,0.99
6137.00,0.99
6136.00,0.99
6135.00,0.99
6134.00,0.99
6133.00,0.99
6132.00,0.99
6131.00,0.99
6130.00,0.99
6129.00,0.99
6128.00,0.99
6127.00,0.99
6126.00,0.99
6125.00,0.98
6124.00,0.98
6123.00,0.98
6122.00,0.98
6121.00,0.98
6120.00,0.98
6119.00,0.98
6118.00,0.98
6117.00,0.98
6116.00,0.98
6115.00,0.98
6114.00,0.98
6113.00,0.97
6112.00,0.97
6111.00,0.97
6110.00,0.97
6109.00,0.97
6108.00,0.97
6107.00,0.97
6106.00,0.97
6105.00,0.97
6104.00,0.97
6103.00,0.97
6102.00,0.97
6101.00,0.97
6100.00,0.97
6099.00,0.97
6098.00,0.97
6097.00,0.97
6096.00,0.97
6095.00,0.98
6094.00,0.98
6093.00,0.98
6092.00,0.98
6091.00,0.98
6090.00,0.98
6089.00,0.98
6088.00,0.98
6087.00,0.98
6086.00,0.98
6085.00,0.98
6084.00,0.98
6083.00,0.98
6082.00,0.98
6081.00,0.98
6080.00,0.98
6079.00,0.98
6078.00,0.98
6077.00,0.98
6076.00,0.98
6075.00,0.98
6074.00,0.98
6073.00,0.98
6072.00,0.98
6071.00,0.98
6070.00,0.98
6069.00,0.98
6068.00,0.98
6067.00,0.98
6066.00,0.98
6065.00,0.98
6064.00,0.98
6063.00,0.98
6062.00,0.98
6061.00,0.98
6060.00,0.98
6059.00,0.98
6058.00,0.98
6057.00,0.98
6056.00,0.98
6055.00,0.98
6054.00,0.98
6053.00,0.98
6052.00,0.99
6051.00,0.99
6050.00,0.99
6049.00,0.99
6048.00,0.99
6047.00,0.99
6046.00,0.99
6045.00,0.99
6044.00,0.99
6043.00,0.99
6042.00,0.99
6041.00,0.99
6040.00,0.99
6039.00,0.99
6038.00,0.99
6037.00,0.99
6036.00,1.00
6035.00,1.00
6034.00,1.00
6033.00,1.00
6032.00,1.00
6031.00,1.00
6030.00,1.00
6029.00,1.00
6028.00,1.00
6027.00,1.00
6026.00,1.00
6025.00,1.00
6024.00,0.99
6023.00,0.99
6022.00,0.99
6021.00,0.99
6020.00,0.99
6019.00,0.99
6018.00,0.99
6017.00,0.99
6016.00,0.99
6015.00,0.99
6014.00,0.99
6013.00,0.99
6012.00,0.99
6011.00,0.99
6010.00,0.99
6009.00,0.99
6008.00,0.99
6007.00,0.99
6006.00,0.99
6005.00,0.99
6004.00,0.99
6003.00,0.99
6002.00,0.99
6001.00,0.99
6000.00,0.99
5999.00,0.99
5998.00,0.99
5997.00,0.99
5996.00,0.99
5995.00,0.99
5994.00,0.99
5993.00,0.99
5992.00,0.99
5991.00,0.99
5990.00,1.00
5989.00,1.00
5988.00,1.00
5987.00,1.00
5986.00,1.00
5985.00,1.00
5984.00,1.00
5983.00,1.00
5982.00,1.00
5981.00,1.00
5980.00,1.00
5979.00,1.01
5978.00,1.01
5977.00,1.01
5976.00,1.01
5975.00,1.01
5974.00,1.01
5973.00,1.01
5972.00,1.01
5971.00,1.01
5970.00,1.02
5969.00,1.02
5968.00,1.02
5967.00,1.02
5966.00,1.02
5965.00,1.01
5964.00,1.01
5963.00,1.01
5962.00,1.01
5961.00,1.01
5960.00,1.01
5959.00,1.01
5958.00,1.01
5957.00,1.00
5956.00,1.00
5955.00,1.00
5954.00,1.00
5953.00,1.00
5952.00,1.00
5951.00,0.99
5950.00,0.99
5949.00,0.99
5948.00,0.99
5947.00,0.99
5946.00,0.98
5945.00,0.98
5944.00,0.98
5943.00,0.98
5942.00,0.98
5941.00,0.98
5940.00,0.98
5939.00,0.98
5938.00,0.98
5937.00,0.97
5936.00,0.97
5935.00,0.97
5934.00,0.97
5933.00,0.97
5932.00,0.97
5931.00,0.97
5930.00,0.97
5929.00,0.97
5928.00,0.97
5927.00,0.97
5926.00,0.97
5925.00,0.96
5924.00,0.96
5923.00,0.96
5922.00,0.96
5921.00,0.96
5920.00,0.96
5919.00,0.96
5918.00,0.96
5917.00,0.96
5916.00,0.96
5915.00,0.96
5914.00,0.96
5913.00,0.96
5912.00,0.96
5911.00,0.96
5910.00,0.95
5909.00,0.95
5908.00,0.95
5907.00,0.95
5906.00,0.95
5905.00,0.95
5904.00,0.95
5903.00,0.95
5902.00,0.95
5901.00,0.95
5900.00,0.95
5899.00,0.95
5898.00,0.95
5897.00,0.95
5896.00,0.95
5895.00,0.95
5894.00,0.95
5893.00,0.95
5892.00,0.95
5891.00,0.95
5890.00,0.95
5889.00,0.95
5888.00,0.95
5887.00,0.95
5886.00,0.95
5885.00,0.95
5884.00,0.95
5883.00,0.95
5882.00,0.95
5881.00,0.95
5880.00,0.95
5879.00,0.95
5878.00,0.95
5877.00,0.95
5876.00,0.95
5875.00,0.95
5874.00,0.95
5873.00,0.95
5872.00,0.95
5871.00,0.95
5870.00,0.95
5869.00,0.95
5868.00,0.95
5867.00,0.95
5866.00,0.96
5865.00,0.96
5864.00,0.96
5863.00,0.96
5862.00,0.96
5861.00,0.96
5860.00,0.96
5859.00,0.96
5858.00,0.97
5857.00,0.97
5856.00,0.97
5855.00,0.97
5854.00,0.97
5853.00,0.97
5852.00,0.97
5851.00,0.97
5850.00,0.97
5849.00,0.97
5848.00,0.97
5847.00,0.97
5846.00,0.97
5845.00,0.97
5844.00,0.97
5843.00,0.97
5842.00,0.97
5841.00,0.97
5840.00,0.97
5839.00,0.97
5838.00,0.97
5837.00,0.97
5836.00,0.97
5835.00,0.96
5834.00,0.96
5833.00,0.96
5832.00,0.96
5831.00,0.96
5830.00,0.96
5829.00,0.96
5828.00,0.95
5827.00,0.95
5826.00,0.95
5825.00,0.95
5824.00,0.95
5823.00,0.95
5822.00,0.95
5821.00,0.95
5820.00,0.95
5819.00,0.95
5818.00,0.95
5817.00,0.95
5816.00,0.95
5815.00,0.95
5814.00,0.95
5813.00,0.95
5812.00,0.95
5811.00,0.95
5810.00,0.95
5809.00,0.95
5808.00,0.95
5807.00,0.95
5806.00,0.95
5805.00,0.95
5804.00,0.95
5803.00,0.96
5802.00,0.96
5801.00,0.96
5800.00,0.96
5799.00,0.96
5798.00,0.96
5797.00,0.96
5796.00,0.96
5795.00,0.96
5794.00,0.97
5793.00,0.97
5792.00,0.97
5791.00,0.97
5790.00,0.97
5789.00,0.97
5788.00,0.97
5787.00,0.97
5786.00,0.97
5785.00,0.97
5784.00,0.97
5783.00,0.97
5782.00,0.97
5781.00,0.97
5780.00,0.97
5779.00,0.97
5778.00,0.97
5777.00,0.97
5776.00,0.97
5775.00,0.97
5774.00,0.97
5773.00,0.97
5772.00,0.97
5771.00,0.97
5770.00,0.97
5769.00,0.97
5768.00,0.97
5767.00,0.97
5766.00,0.97
5765.00,0.97
5764.00,0.97
5763.00,0.96
5762.00,0.96
5761.00,0.96
5760.00,0.96
5759.00,0.96
5758.00,0.96
5757.00,0.96
5756.00,0.96
5755.00,0.96
5754.00,0.96
5753.00,0.96
5752.00,0.96
5751.00,0.96
5750.00,0.96
5749.00,0.96
5748.00,0.96
5747.00,0.96
5746.00,0.96
5745.00,0.96
5744.00,0.96
5743.00,0.96
5742.00,0.96
5741.00,0.96
5740.00,0.96
5739.00,0.96
5738.00,0.96
5737.00,0.96
5736.00,0.96
5735.00,0.96
5734.00,0.96
5733.00,0.96
5732.00,0.96
5731.00,0.96
5730.00,0.96
5729.00,0.96
5728.00,0.96
5727.00,0.96
5726.00,0.96
5725.00,0.96
5724.00,0.96
5723.00,0.96
5722.00,0.96
5721.00,0.96
5720.00,0.96
5719.00,0.96
5718.00,0.96
5717.00,0.95
5716.00,0.95
5715.00,0.95
5714.00,0.95
5713.00,0.95
5712.00,0.95
5711.00,0.95
5710.00,0.95
5709.00,0.95
5708.00,0.95
5707.00,0.95
5706.00,0.96
5705.00,0.96
5704.00,0.96
5703.00,0.96
5702.00,0.96
5701.00,0.96
5700.00,0.96
5699.00,0.96
5698.00,0.96
5697.00,0.96
5696.00,0.96
5695.00,0.96
5694.00,0.97
5693.00,0.97
5692.00,0.97
5691.00,0.97
5690.00,0.97
5689.00,0.97
5688.00,0.97
5687.00,0.97
5686.00,0.98
5685.00,0.98
5684.00,0.98
5683.00,0.98
5682.00,0.98
5681.00,0.98
5680.00,0.98
5679.00,0.98
5678.00,0.98
5677.00,0.98
5676.00,0.98
5675.00,0.98
5674.00,0.98
5673.00,0.98
5672.00,0.98
5671.00,0.98
5670.00,0.98
5669.00,0.98
5668.00,0.98
5667.00,0.98
5666.00,0.98
5665.00,0.98
5664.00,0.98
5663.00,0.98
5662.00,0.98
5661.00,0.98
5660.00,0.98
5659.00,0.98
5658.00,0.98
5657.00,0.98
5656.00,0.98
5655.00,0.98
5654.00,0.98
5653.00,0.98
5652.00,0.98
5651.00,0.98
5650.00,0.98
5649.00,0.98
5648.00,0.98
5647.00,0.98
5646.00,0.98
5645.00,0.97
5644.00,0.97
5643.00,0.97
5642.00,0.97
5641.00,0.97
5640.00,0.97
5639.00,0.97
5638.00,0.97
5637.00,0.97
5636.00,0.97
5635.00,0.97
5634.00,0.97
5633.00,0.97
5632.00,0.97
5631.00,0.97
5630.00,0.97
5629.00,0.97
5628.00,0.97
5627.00,0.97
5626.00,0.97
5625.00,0.97
5624.00,0.97
5623.00,0.97
5622.00,0.97
5621.00,0.98
5620.00,0.98
5619.00,0.98
5618.00,0.98
5617.00,0.98
5616.00,0.98
5615.00,0.98
5614.00,0.98
5613.00,0.98
5612.00,0.98
5611.00,0.98
5610.00,0.99
5609.00,0.99
5608.00,0.99
5607.00,0.99
5606.00,0.99
5605.00,0.99
5604.00,0.99
5603.00,0.99
5602.00,0.99
5601.00,0.99
5600.00,0.98
5599.00,0.98
5598.00,0.98
5597.00,0.98
5596.00,0.98
5595.00,0.98
5594.00,0.98
5593.00,0.98
5592.00,0.98
5591.00,0.98
5590.00,0.98
5589.00,0.98
5588.00,0.98
5587.00,0.97
5586.00,0.97
5585.00,0.97
5584.00,0.97
5583.00,0.97
5582.00,0.97
5581.00,0.97
5580.00,0.97
5579.00,0.97
5578.00,0.97
5577.00,0.97
5576.00,0.97
5575.00,0.97
5574.00,0.96
5573.00,0.96
5572.00,0.96
5571.00,0.96
5570.00,0.96
5569.00,0.96
5568.00,0.96
5567.00,0.96
5566.00,0.96
5565.00,0.96
5564.00,0.96
5563.00,0.96
5562.00,0.96
5561.00,0.96
5560.00,0.96
5559.00,0.96
5558.00,0.96
5557.00,0.96
5556.00,0.96
5555.00,0.96
5554.00,0.96
5553.00,0.96
5552.00,0.96
5551.00,0.96
5550.00,0.96
5549.00,0.96
5548.00,0.96
5547.00,0.96
5546.00,0.96
5545.00,0.96
5544.00,0.96
5543.00,0.96
5542.00,0.96
5541.00,0.96
5540.00,0.96
5539.00,0.96
5538.00,0.96
5537.00,0.96
5536.00,0.96
5535.00,0.96
5534.00,0.96
5533.00,0.96
5532.00,0.96
5531.00,0.96
5530.00,0.96
5529.00,0.96
5528.00,0.96
5527.00,0.96
5526.00,0.96
5525.00,0.96
5524.00,0.96
5523.00,0.96
5522.00,0.96
5521.00,0.96
5520.00,0.96
5519.00,0.96
5518.00,0.96
5517.00,0.96
5516.00,0.96
5515.00,0.97
5514.00,0.97
5513.00,0.97
5512.00,0.97
5511.00,0.97
5510.00,0.97
5509.00,0.97
5508.00,0.97
5507.00,0.97
5506.00,0.97
5505.00,0.97
5504.00,0.97
5503.00,0.97
5502.00,0.98
5501.00,0.98
5500.00,0.98
5499.00,0.98
5498.00,0.98
5497.00,0.98
5496.00,0.98
5495.00,0.99
5494.00,0.99
5493.00,0.99
5492.00,0.99
5491.00,0.99
5490.00,0.99
5489.00,0.99
5488.00,0.99
5487.00,0.99
5486.00,1.00
5485.00,1.00
5484.00,1.00
5483.00,1.00
5482.00,1.00
5481.00,1.00
5480.00,1.00
5479.00,1.01
5478.00,1.01
5477.00,1.01
5476.00,1.01
5475.00,1.01
5474.00,1.01
5473.00,1.01
5472.00,1.01
5471.00,1.01
5470.00,1.01
5469.00,1.01
5468.00,1.01
5467.00,1.01
5466.00,1.01
5465.00,1.01
5464.00,1.02
5463.00,1.02
5462.00,1.02
5461.00,1.02
5460.00,1.02
5459.00,1.02
5458.00,1.03
5457.00,1.03
5456.00,1.03
5455.00,1.03
5454.00,1.03
5453.00,1.03
5452.00,1.04
5451.00,1.04
5450.00,1.04
5449.00,1.04
5448.00,1.04
5447.00,1.04
5446.00,1.04
5445.00,1.05
5444.00,1.05
5443.00,1.05
5442.00,1.05
5441.00,1.05
5440.00,1.05
5439.00,1.05
5438.00,1.05
5437.00,1.05
5436.00,1.05
5435.00,1.05
5434.00,1.05
5433.00,1.05
5432.00,1.04
5431.00,1.04
5430.00,1.04
5429.00,1.04
5428.00,1.04
5427.00,1.04
5426.00,1.04
5425.00,1.03
5424.00,1.03
5423.00,1.03
5422.00,1.03
5421.00,1.03
5420.00,1.03
5419.00,1.03
5418.00,1.03
5417.00,1.03
5416.00,1.03
5415.00,1.03
5414.00,1.03
5413.00,1.03
5412.00,1.03
5411.00,1.03
5410.00,1.03
5409.00,1.03
5408.00,1.03
5407.00,1.03
5406.00,1.03
5405.00,1.03
5404.00,1.03
5403.00,1.03
5402.00,1.03
5401.00,1.03
5400.00,1.03
5399.00,1.03
5398.00,1.03
5397.00,1.04
5396.00,1.04
5395.00,1.04
5394.00,1.04
5393.00,1.04
5392.00,1.04
5391.00,1.04
5390.00,1.04
5389.00,1.04
5388.00,1.04
5387.00,1.04
5386.00,1.04
5385.00,1.04
5384.00,1.04
5383.00,1.04
5382.00,1.04
5381.00,1.03
5380.00,1.03
5379.00,1.03
5378.00,1.03
5377.00,1.03
5376.00,1.03
5375.00,1.03
5374.00,1.03
5373.00,1.03
5372.00,1.02
5371.00,1.02
5370.00,1.02
5369.00,1.02
5368.00,1.02
5367.00,1.02
5366.00,1.02
5365.00,1.02
5364.00,1.02
5363.00,1.02
5362.00,1.02
5361.00,1.02
5360.00,1.02
5359.00,1.02
5358.00,1.02
5357.00,1.02
5356.00,1.02
5355.00,1.02
5354.00,1.02
5353.00,1.02
5352.00,1.02
5351.00,1.02
5350.00,1.02
5349.00,1.02
5348.00,1.02
5347.00,1.02
5346.00,1.02
5345.00,1.02
5344.00,1.02
5343.00,1.02
5342.00,1.02
5341.00,1.02
5340.00,1.02
5339.00,1.02
5338.00,1.02
5337.00,1.02
5336.00,1.02
5335.00,1.01
5334.00,1.01
5333.00,1.01
5332.00,1.01
5331.00,1.01
5330.00,1.00
5329.00,1.00
5328.00,1.00
5327.00,1.00
5326.00,0.99
5325.00,0.99
5324.00,0.99
5323.00,0.98
5322.00,0.98
5321.00,0.98
5320.00,0.97
5319.00,0.97
5318.00,0.97
5317.00,0.97
5316.00,0.96
5315.00,0.96
5314.00,0.96
5313.00,0.95
5312.00,0.95
5311.00,0.95
5310.00,0.95
5309.00,0.94
5308.00,0.94
5307.00,0.94
5306.00,0.94
5305.00,0.94
5304.00,0.94
5303.00,0.93
5302.00,0.93
5301.00,0.93
5300.00,0.93
5299.00,0.93
5298.00,0.93
5297.00,0.93
5296.00,0.93
5295.00,0.93
5294.00,0.93
5293.00,0.93
5292.00,0.93
5291.00,0.92
5290.00,0.92
5289.00,0.92
5288.00,0.92
5287.00,0.92
5286.00,0.92
5285.00,0.92
5284.00,0.92
5283.00,0.92
5282.00,0.92
5281.00,0.92
5280.00,0.92
5279.00,0.92
5278.00,0.92
5277.00,0.92
5276.00,0.92
5275.00,0.91
5274.00,0.91
5273.00,0.91
5272.00,0.91
5271.00,0.91
5270.00,0.91
5269.00,0.91
5268.00,0.91
5267.00,0.91
5266.00,0.91
5265.00,0.91
5264.00,0.90
5263.00,0.90
5262.00,0.90
5261.00,0.90
5260.00,0.90
5259.00,0.90
5258.00,0.90
5257.00,0.90
5256.00,0.90
5255.00,0.90
5254.00,0.90
5253.00,0.90
5252.00,0.89
5251.00,0.89
5250.00,0.89
5249.00,0.89
5248.00,0.89
5247.00,0.89
5246.00,0.89
5245.00,0.89
5244.00,0.89
5243.00,0.89
5242.00,0.89
5241.00,0.89
5240.00,0.89
5239.00,0.89
5238.00,0.89
5237.00,0.89
5236.00,0.89
5235.00,0.89
5234.00,0.89
5233.00,0.89
5232.00,0.89
5231.00,0.89
5230.00,0.89
5229.00,0.89
5228.00,0.89
5227.00,0.89
5226.00,0.89
5225.00,0.89
5224.00,0.89
5223.00,0.89
5222.00,0.89
5221.00,0.89
5220.00,0.89
5219.00,0.89
5218.00,0.89
5217.00,0.89
5216.00,0.89
5215.00,0.89
5214.00,0.89
5213.00,0.89
5212.00,0.89
5211.00,0.89
5210.00,0.89
5209.00,0.89
5208.00,0.89
5207.00,0.89
5206.00,0.89
5205.00,0.89
5204.00,0.89
5203.00,0.89
5202.00,0.89
5201.00,0.89
5200.00,0.88
5199.00,0.88
5198.00,0.88
5197.00,0.88
5196.00,0.88
5195.00,0.88
5194.00,0.88
5193.00,0.88
5192.00,0.88
5191.00,0.88
5190.00,0.88
5189.00,0.88
5188.00,0.88
5187.00,0.88
5186.00,0.87
5185.00,0.87
5184.00,0.87
5183.00,0.87
5182.00,0.87
5181.00,0.87
5180.00,0.87
5179.00,0.87
5178.00,0.87
5177.00,0.87
5176.00,0.87
5175.00,0.87
5174.00,0.87
5173.00,0.87
5172.00,0.88
5171.00,0.88
5170.00,0.88
5169.00,0.88
5168.00,0.88
5167.00,0.88
5166.00,0.88
5165.00,0.88
5164.00,0.88
5163.00,0.88
5162.00,0.89
5161.00,0.89
5160.00,0.89
5159.00,0.89
5158.00,0.89
5157.00,0.89
5156.00,0.89
5155.00,0.89
5154.00,0.89
5153.00,0.89
5152.00,0.89
5151.00,0.89
5150.00,0.89
5149.00,0.89
5148.00,0.90
5147.00,0.90
5146.00,0.90
5145.00,0.90
5144.00,0.90
5143.00,0.90
5142.00,0.90
5141.00,0.89
5140.00,0.89
5139.00,0.89
5138.00,0.89
5137.00,0.89
5136.00,0.89
5135.00,0.89
5134.00,0.89
5133.00,0.89
5132.00,0.89
5131.00,0.89
5130.00,0.89
5129.00,0.89
5128.00,0.89
5127.00,0.89
5126.00,0.89
5125.00,0.89
5124.00,0.89
5123.00,0.89
5122.00,0.89
5121.00,0.89
5120.00,0.89
5119.00,0.89
5118.00,0.89
5117.00,0.89
5116.00,0.89
5115.00,0.89
5114.00,0.89
5113.00,0.90
5112.00,0.90
5111.00,0.90
5110.00,0.90
5109.00,0.90
5108.00,0.90
5107.00,0.90
5106.00,0.91
5105.00,0.91
5104.00,0.91
5103.00,0.91
5102.00,0.91
5101.00,0.91
5100.00,0.91
5099.00,0.91
5098.00,0.91
5097.00,0.91
5096.00,0.91
5095.00,0.91
5094.00,0.91
5093.00,0.91
5092.00,0.92
5091.00,0.92
5090.00,0.92
5089.00,0.92
5088.00,0.92
5087.00,0.92
5086.00,0.92
5085.00,0.92
5084.00,0.92
5083.00,0.92
5082.00,0.92
5081.00,0.92
5080.00,0.92
5079.00,0.92
5078.00,0.92
5077.00,0.92
5076.00,0.92
5075.00,0.92
5074.00,0.92
5073.00,0.92
5072.00,0.92
5071.00,0.92
5070.00,0.92
5069.00,0.92
5068.00,0.92
5067.00,0.92
5066.00,0.92
5065.00,0.92
5064.00,0.92
5063.00,0.92
5062.00,0.92
5061.00,0.92
5060.00,0.92
5059.00,0.92
5058.00,0.92
5057.00,0.92
5056.00,0.93
5055.00,0.93
5054.00,0.93
5053.00,0.93
5052.00,0.93
5051.00,0.93
5050.00,0.93
5049.00,0.93
5048.00,0.93
5047.00,0.93
5046.00,0.93
5045.00,0.93
5044.00,0.93
5043.00,0.93
5042.00,0.93
5041.00,0.93
5040.00,0.93
5039.00,0.93
5038.00,0.93
5037.00,0.93
5036.00,0.93
5035.00,0.93
5034.00,0.93
5033.00,0.93
5032.00,0.93
5031.00,0.93
5030.00,0.93
5029.00,0.94
5028.00,0.94
5027.00,0.94
5026.00,0.94
5025.00,0.94
5024.00,0.94
5023.00,0.94
5022.00,0.94
5021.00,0.94
5020.00,0.94
5019.00,0.94
5018.00,0.95
5017.00,0.95
5016.00,0.95
5015.00,0.95
5014.00,0.95
5013.00,0.95
5012.00,0.95
5011.00,0.96
5010.00,0.96
5009.00,0.96
5008.00,0.96
5007.00,0.96
5006.00,0.96
5005.00,0.96
5004.00,0.96
5003.00,0.97
5002.00,0.97
5001.00,0.97
5000.00,0.97
4999.00,0.97
4998.00,0.97
4997.00,0.97
4996.00,0.97
4995.00,0.97
4994.00,0.97
4993.00,0.97
4992.00,0.97
4991.00,0.98
4990.00,0.98
4989.00,0.98
4988.00,0.98
4987.00,0.98
4986.00,0.98
4985.00,0.98
4984.00,0.98
4983.00,0.98
4982.00,0.98
4981.00,0.98
4980.00,0.98
4979.00,0.99
4978.00,0.99
4977.00,0.99
4976.00,0.99
4975.00,0.99
4974.00,0.99
4973.00,0.99
4972.00,0.99
4971.00,1.00
4970.00,1.00
4969.00,1.00
4968.00,1.00
4967.00,1.00
4966.00,1.00
4965.00,1.00
4964.00,1.01
4963.00,1.01
4962.00,1.01
4961.00,1.01
4960.00,1.01
4959.00,1.01
4958.00,1.01
4957.00,1.01
4956.00,1.01
4955.00,1.01
4954.00,1.01
4953.00,1.01
4952.00,1.01
4951.00,1.01
4950.00,1.01
4949.00,1.00
4948.00,1.00
4947.00,1.00
4946.00,1.00
4945.00,1.00
4944.00,1.00
4943.00,1.00
4942.00,0.99
4941.00,0.99
4940.00,0.99
4939.00,0.99
4938.00,0.99
4937.00,0.98
4936.00,0.98
4935.00,0.98
4934.00,0.98
4933.00,0.98
4932.00,0.98
4931.00,0.98
4930.00,0.98
4929.00,0.98
4928.00,0.98
4927.00,0.98
4926.00,0.98
4925.00,0.98
4924.00,0.98
4923.00,0.98
4922.00,0.98
4921.00,0.98
4920.00,0.98
4919.00,0.98
4918.00,0.98
4917.00,0.98
4916.00,0.98
4915.00,0.98
4914.00,0.98
4913.00,0.98
4912.00,0.98
4911.00,0.99
4910.00,0.99
4909.00,0.99
4908.00,0.99
4907.00,0.99
4906.00,0.99
4905.00,0.99
4904.00,1.00
4903.00,1.00
4902.00,1.00
4901.00,1.00
4900.00,1.01
4899.00,1.01
4898.00,1.01
4897.00,1.01
4896.00,1.01
4895.00,1.02
4894.00,1.02
4893.00,1.02
4892.00,1.02
4891.00,1.02
4890.00,1.02
4889.00,1.02
4888.00,1.03
4887.00,1.03
4886.00,1.03
4885.00,1.03
4884.00,1.03
4883.00,1.03
4882.00,1.03
4881.00,1.03
4880.00,1.03
4879.00,1.03
4878.00,1.02
4877.00,1.02
4876.00,1.02
4875.00,1.02
4874.00,1.02
4873.00,1.01
4872.00,1.01
4871.00,1.01
4870.00,1.01
4869.00,1.01
4868.00,1.00
4867.00,1.00
4866.00,1.00
4865.00,1.00
4864.00,1.00
4863.00,0.99
4862.00,0.99
4861.00,0.99
4860.00,0.99
4859.00,0.99
4858.00,0.99
4857.00,0.99
4856.00,0.99
4855.00,0.99
4854.00,0.99
4853.00,0.99
4852.00,0.99
4851.00,0.99
4850.00,0.99
4849.00,0.99
4848.00,0.99
4847.00,0.99
4846.00,0.99
4845.00,0.99
4844.00,0.99
4843.00,0.99
4842.00,1.00
4841.00,1.00
4840.00,1.00
4839.00,1.00
4838.00,1.00
4837.00,1.00
4836.00,1.00
4835.00,1.00
4834.00,1.01
4833.00,1.01
4832.00,1.01
4831.00,1.01
4830.00,1.01
4829.00,1.01
4828.00,1.01
4827.00,1.01
4826.00,1.01
4825.00,1.01
4824.00,1.01
4823.00,1.01
4822.00,1.01
4821.00,1.01
4820.00,1.01
4819.00,1.01
4818.00,1.01
4817.00,1.01
4816.00,1.01
4815.00,1.01
4814.00,1.01
4813.00,1.00
4812.00,1.00
4811.00,1.00
4810.00,1.00
4809.00,1.00
4808.00,1.00
4807.00,1.00
4806.00,1.00
4805.00,1.00
4804.00,0.99
4803.00,0.99
4802.00,0.99
4801.00,0.99
4800.00,0.99
4799.00,0.99
4798.00,0.99
4797.00,0.99
4796.00,0.99
4795.00,0.99
4794.00,0.99
4793.00,0.99
4792.00,0.99
4791.00,0.99
4790.00,0.99
4789.00,0.99
4788.00,0.99
4787.00,0.99
4786.00,0.99
4785.00,0.99
4784.00,0.99
4783.00,1.00
4782.00,1.00
4781.00,1.00
4780.00,1.00
4779.00,1.00
4778.00,1.00
4777.00,1.00
4776.00,1.00
4775.00,1.00
4774.00,1.00
4773.00,1.00
4772.00,1.00
4771.00,1.00
4770.00,1.00
4769.00,1.00
4768.00,1.01
4767.00,1.01
4766.00,1.01
4765.00,1.01
4764.00,1.01
4763.00,1.01
4762.00,1.01
4761.00,1.01
4760.00,1.01
4759.00,1.01
4758.00,1.01
4757.00,1.01
4756.00,1.00
4755.00,1.00
4754.00,1.00
4753.00,1.00
4752.00,1.00
4751.00,1.00
4750.00,1.00
4749.00,1.00
4748.00,1.00
4747.00,1.00
4746.00,0.99
4745.00,0.99
4744.00,0.99
4743.00,0.99
4742.00,0.99
4741.00,0.99
4740.00,0.99
4739.00,0.99
4738.00,0.98
4737.00,0.98
4736.00,0.98
4735.00,0.98
4734.00,0.98
4733.00,0.98
4732.00,0.98
4731.00,0.98
4730.00,0.98
4729.00,0.98
4728.00,0.98
4727.00,0.98
4726.00,0.98
4725.00,0.98
4724.00,0.98
4723.00,0.99
4722.00,0.99
4721.00,0.99
4720.00,0.99
4719.00,0.99
4718.00,0.99
4717.00,0.99
4716.00,0.99
4715.00,0.99
4714.00,0.99
4713.00,1.00
4712.00,1.00
4711.00,1.00
4710.00,1.00
4709.00,1.00
4708.00,1.00
4707.00,1.00
4706.00,1.01
4705.00,1.01
4704.00,1.01
4703.00,1.01
4702.00,1.01
4701.00,1.01
4700.00,1.01
4699.00,1.01
4698.00,1.01
4697.00,1.01
4696.00,1.01
4695.00,1.02
4694.00,1.02
4693.00,1.02
4692.00,1.02
4691.00,1.02
4690.00,1.02
4689.00,1.02
4688.00,1.02
4687.00,1.02
4686.00,1.02
4685.00,1.02
4684.00,1.02
4683.00,1.02
4682.00,1.02
4681.00,1.02
4680.00,1.02
4679.00,1.02
4678.00,1.02
4677.00,1.03
4676.00,1.03
4675.00,1.03
4674.00,1.03
4673.00,1.03
4672.00,1.03
4671.00,1.03
4670.00,1.03
4669.00,1.03
4668.00,1.03
4667.00,1.03
4666.00,1.03
4665.00,1.03
4664.00,1.03
4663.00,1.03
4662.00,1.03
4661.00,1.04
4660.00,1.04
4659.00,1.04
4658.00,1.04
4657.00,1.04
4656.00,1.04
4655.00,1.04
4654.00,1.04
4653.00,1.04
4652.00,1.04
4651.00,1.04
4650.00,1.04
4649.00,1.04
4648.00,1.04
4647.00,1.04
4646.00,1.04
4645.00,1.04
4644.00,1.03
4643.00,1.03
4642.00,1.03
4641.00,1.03
4640.00,1.03
4639.00,1.03
4638.00,1.02
4637.00,1.02
4636.00,1.02
4635.00,1.02
4634.00,1.02
4633.00,1.01
4632.00,1.01
4631.00,1.01
4630.00,1.01
4629.00,1.01
4628.00,1.01
4627.00,1.00
4626.00,1.00
4625.00,1.00
4624.00,1.00
4623.00,1.00
4622.00,1.00
4621.00,1.00
4620.00,1.00
4619.00,1.00
4618.00,1.00
4617.00,1.00
4616.00,1.01
4615.00,1.01
4614.00,1.01
4613.00,1.01
4612.00,1.01
4611.00,1.02
4610.00,1.02
4609.00,1.02
4608.00,1.02
4607.00,1.02
4606.00,1.03
4605.00,1.03
4604.00,1.03
4603.00,1.03
4602.00,1.03
4601.00,1.03
4600.00,1.03
4599.00,1.03
4598.00,1.03
4597.00,1.03
4596.00,1.03
4595.00,1.03
4594.00,1.03
4593.00,1.02
4592.00,1.02
4591.00,1.02
4590.00,1.02
4589.00,1.02
4588.00,1.01
4587.00,1.01
4586.00,1.01
4585.00,1.01
4584.00,1.00
4583.00,1.00
4582.00,1.00
4581.00,1.00
4580.00,0.99
4579.00,0.99
4578.00,0.99
4577.00,0.99
4576.00,0.99
4575.00,0.99
4574.00,0.98
4573.00,0.98
4572.00,0.98
4571.00,0.98
4570.00,0.98
4569.00,0.99
4568.00,0.99
4567.00,0.99
4566.00,0.99
4565.00,0.99
4564.00,0.99
4563.00,0.99
4562.00,0.99
4561.00,0.99
4560.00,0.99
4559.00,0.99
4558.00,0.99
4557.00,0.99
4556.00,0.99
4555.00,0.99
4554.00,1.00
4553.00,1.00
4552.00,1.00
4551.00,1.00
4550.00,1.00
4549.00,1.00
4548.00,1.00
4547.00,1.00
4546.00,1.00
4545.00,1.00
4544.00,1.00
4543.00,1.00
4542.00,1.00
4541.00,1.00
4540.00,1.00
4539.00,1.00
4538.00,0.99
4537.00,0.99
4536.00,0.99
4535.00,0.99
4534.00,0.99
4533.00,0.99
4532.00,0.99
4531.00,0.99
4530.00,0.99
4529.00,0.99
4528.00,0.98
4527.00,0.98
4526.00,0.98
4525.00,0.98
4524.00,0.98
4523.00,0.98
4522.00,0.98
4521.00,0.98
4520.00,0.98
4519.00,0.98
4518.00,0.98
4517.00,0.98
4516.00,0.98
4515.00,0.98
4514.00,0.97
4513.00,0.97
4512.00,0.97
4511.00,0.97
4510.00,0.97
4509.00,0.97
4508.00,0.97
4507.00,0.98
4506.00,0.98
4505.00,0.98
4504.00,0.98
4503.00,0.98
4502.00,0.98
4501.00,0.98
4500.00,0.98
4499.00,0.98
4498.00,0.98
4497.00,0.98
4496.00,0.99
4495.00,0.99
4494.00,0.99
4493.00,0.99
4492.00,0.99
4491.00,0.99
4490.00,0.99
4489.00,1.00
4488.00,1.00
4487.00,1.00
4486.00,1.00
4485.00,1.00
4484.00,1.01
4483.00,1.01
4482.00,1.01
4481.00,1.01
4480.00,1.01
4479.00,1.01
4478.00,1.01
4477.00,1.01
4476.00,1.01
4475.00,1.01
4474.00,1.02
4473.00,1.02
4472.00,1.02
4471.00,1.02
4470.00,1.02
4469.00,1.02
4468.00,1.02
4467.00,1.02
4466.00,1.02
4465.00,1.02
4464.00,1.01
4463.00,1.01
4462.00,1.01
4461.00,1.01
4460.00,1.01
4459.00,1.01
4458.00,1.01
4457.00,1.01
4456.00,1.01
4455.00,1.01
4454.00,1.01
4453.00,1.00
4452.00,1.00
4451.00,1.00
4450.00,1.00
4449.00,1.00
4448.00,1.00
4447.00,1.00
4446.00,1.00
4445.00,1.00
4444.00,0.99
4443.00,0.99
4442.00,0.99
4441.00,0.99
4440.00,0.99
4439.00,0.98
4438.00,0.98
4437.00,0.98
4436.00,0.98
4435.00,0.98
4434.00,0.98
4433.00,0.98
4432.00,0.98
4431.00,0.97
4430.00,0.97
4429.00,0.97
4428.00,0.97
4427.00,0.97
4426.00,0.97
4425.00,0.97
4424.00,0.97
4423.00,0.97
4422.00,0.97
4421.00,0.97
4420.00,0.97
4419.00,0.97
4418.00,0.97
4417.00,0.97
4416.00,0.97
4415.00,0.97
4414.00,0.97
4413.00,0.97
4412.00,0.97
4411.00,0.97
4410.00,0.97
4409.00,0.97
4408.00,0.97
4407.00,0.97
4406.00,0.97
4405.00,0.97
4404.00,0.97
4403.00,0.97
4402.00,0.97
4401.00,0.97
4400.00,0.97
4399.00,0.98
4398.00,0.98
4397.00,0.98
4396.00,0.98
4395.00,0.98
4394.00,0.98
4393.00,0.98
4392.00,0.98
4391.00,0.98
4390.00,0.98
4389.00,0.98
4388.00,0.98
4387.00,0.98
4386.00,0.98
4385.00,0.98
4384.00,0.98
4383.00,0.98
4382.00,0.98
4381.00,0.98
4380.00,0.98
4379.00,0.98
4378.00,0.98
4377.00,0.98
4376.00,0.98
4375.00,0.98
4374.00,0.97
4373.00,0.97
4372.00,0.97
4371.00,0.97
4370.00,0.97
4369.00,0.97
4368.00,0.97
4367.00,0.97
4366.00,0.97
4365.00,0.97
4364.00,0.97
4363.00,0.97
4362.00,0.97
4361.00,0.97
4360.00,0.97
4359.00,0.97
4358.00,0.97
4357.00,0.97
4356.00,0.97
4355.00,0.97
4354.00,0.97
4353.00,0.97
4352.00,0.97
4351.00,0.97
4350.00,0.97
4349.00,0.97
4348.00,0.98
4347.00,0.98
4346.00,0.98
4345.00,0.98
4344.00,0.98
4343.00,0.98
4342.00,0.98
4341.00,0.98
4340.00,0.98
4339.00,0.99
4338.00,0.99
4337.00,0.99
4336.00,0.99
4335.00,0.99
4334.00,0.99
4333.00,1.00
4332.00,1.00
4331.00,1.00
4330.00,1.00
4329.00,1.00
4328.00,1.01
4327.00,1.01
4326.00,1.01
4325.00,1.01
4324.00,1.02
4323.00,1.02
4322.00,1.02
4321.00,1.02
4320.00,1.02
4319.00,1.03
4318.00,1.03
4317.00,1.03
4316.00,1.03
4315.00,1.03
4314.00,1.03
4313.00,1.03
4312.00,1.03
4311.00,1.03
4310.00,1.03
4309.00,1.03
4308.00,1.03
4307.00,1.03
4306.00,1.03
4305.00,1.03
4304.00,1.03
4303.00,1.03
4302.00,1.03
4301.00,1.02
4300.00,1.02
4299.00,1.02
4298.00,1.02
4297.00,1.02
4296.00,1.02
4295.00,1.02
4294.00,1.01
4293.00,1.01
4292.00,1.01
4291.00,1.01
4290.00,1.01
4289.00,1.01
4288.00,1.01
4287.00,1.01
4286.00,1.01
4285.00,1.01
4284.00,1.01
4283.00,1.01
4282.00,1.01
4281.00,1.01
4280.00,1.01
4279.00,1.01
4278.00,1.01
4277.00,1.01
4276.00,1.01
4275.00,1.01
4274.00,1.01
4273.00,1.01
4272.00,1.01
4271.00,1.01
4270.00,1.01
4269.00,1.01
4268.00,1.01
4267.00,1.01
4266.00,1.01
4265.00,1.00
4264.00,1.00
4263.00,1.00
4262.00,1.00
4261.00,1.00
4260.00,1.00
4259.00,1.00
4258.00,1.00
4257.00,1.00
4256.00,1.00
4255.00,1.00
4254.00,1.00
4253.00,1.00
4252.00,0.99
4251.00,0.99
4250.00,0.99
4249.00,0.99
4248.00,0.99
4247.00,0.99
4246.00,0.99
4245.00,0.99
4244.00,0.99
4243.00,0.99
4242.00,1.00
4241.00,1.00
4240.00,1.00
4239.00,1.00
4238.00,1.00
4237.00,1.00
4236.00,1.00
4235.00,1.01
4234.00,1.01
4233.00,1.01
4232.00,1.01
4231.00,1.01
4230.00,1.01
4229.00,1.02
4228.00,1.02
4227.00,1.02
4226.00,1.02
4225.00,1.02
4224.00,1.03
4223.00,1.03
4222.00,1.03
4221.00,1.03
4220.00,1.03
4219.00,1.04
4218.00,1.04
4217.00,1.04
4216.00,1.04
4215.00,1.04
4214.00,1.04
4213.00,1.04
4212.00,1.04
4211.00,1.04
4210.00,1.04
4209.00,1.04
4208.00,1.04
4207.00,1.04
4206.00,1.04
4205.00,1.04
4204.00,1.04
4203.00,1.04
4202.00,1.04
4201.00,1.03
4200.00,1.03
4199.00,1.03
4198.00,1.03
4197.00,1.02
4196.00,1.02
4195.00,1.02
4194.00,1.02
4193.00,1.01
4192.00,1.01
4191.00,1.01
4190.00,1.00
4189.00,1.00
4188.00,1.00
4187.00,0.99
4186.00,0.99
4185.00,0.99
4184.00,0.98
4183.00,0.98
4182.00,0.98
4181.00,0.98
4180.00,0.97
4179.00,0.97
4178.00,0.97
4177.00,0.97
4176.00,0.97
4175.00,0.97
4174.00,0.97
4173.00,0.96
4172.00,0.96
4171.00,0.96
4170.00,0.96
4169.00,0.96
4168.00,0.96
4167.00,0.96
4166.00,0.97
4165.00,0.97
4164.00,0.97
4163.00,0.97
4162.00,0.97
4161.00,0.97
4160.00,0.97
4159.00,0.97
4158.00,0.97
4157.00,0.97
4156.00,0.97
4155.00,0.98
4154.00,0.98
4153.00,0.98
4152.00,0.98
4151.00,0.98
4150.00,0.98
4149.00,0.98
4148.00,0.99
4147.00,0.99
4146.00,0.99
4145.00,0.99
4144.00,0.99
4143.00,0.99
4142.00,0.99
4141.00,0.99
4140.00,0.99
4139.00,0.99
4138.00,0.99
4137.00,0.99
4136.00,0.99
4135.00,0.99
4134.00,0.99
4133.00,0.99
4132.00,0.99
4131.00,0.99
4130.00,0.99
4129.00,0.99
4128.00,0.99
4127.00,0.98
4126.00,0.98
4125.00,0.98
4124.00,0.98
4123.00,0.98
4122.00,0.98
4121.00,0.98
4120.00,0.98
4119.00,0.98
4118.00,0.98
4117.00,0.98
4116.00,0.98
4115.00,0.98
4114.00,0.98
4113.00,0.98
4112.00,0.98
4111.00,0.98
4110.00,0.99
4109.00,0.99
4108.00,0.99
4107.00,0.99
4106.00,0.99
4105.00,0.99
4104.00,0.99
4103.00,0.99
4102.00,0.99
4101.00,0.99
4100.00,0.99
4099.00,1.00
4098.00,1.00
4097.00,1.00
4096.00,1.00
4095.00,1.00
4094.00,1.00
4093.00,1.00
4092.00,1.00
4091.00,1.00
4090.00,1.00
4089.00,1.00
4088.00,1.01
4087.00,1.01
4086.00,1.01
4085.00,1.01
4084.00,1.01
4083.00,1.01
4082.00,1.01
4081.00,1.01
4080.00,1.01
4079.00,1.01
4078.00,1.00
4077.00,1.00
4076.00,1.00
4075.00,1.00
4074.00,1.00
4073.00,0.99
4072.00,0.99
4071.00,0.99
4070.00,0.98
4069.00,0.98
4068.00,0.98
4067.00,0.97
4066.00,0.97
4065.00,0.97
4064.00,0.97
4063.00,0.96
4062.00,0.96
4061.00,0.96
4060.00,0.95
4059.00,0.95
4058.00,0.95
4057.00,0.95
4056.00,0.94
4055.00,0.94
4054.00,0.94
4053.00,0.94
4052.00,0.94
4051.00,0.94
4050.00,0.94
4049.00,0.94
4048.00,0.94
4047.00,0.94
4046.00,0.94
4045.00,0.95
4044.00,0.95
4043.00,0.95
4042.00,0.96
4041.00,0.96
4040.00,0.96
4039.00,0.97
4038.00,0.97
4037.00,0.97
4036.00,0.98
4035.00,0.98
4034.00,0.98
4033.00,0.99
4032.00,0.99
4031.00,0.99
4030.00,1.00
4029.00,1.00
4028.00,1.00
4027.00,1.00
4026.00,1.01
4025.00,1.01
4024.00,1.01
4023.00,1.01
4022.00,1.01
4021.00,1.01
4020.00,1.02
4019.00,1.02
4018.00,1.02
4017.00,1.02
4016.00,1.02
4015.00,1.02
4014.00,1.02
4013.00,1.02
4012.00,1.02
4011.00,1.02
4010.00,1.03
4009.00,1.03
4008.00,1.03
4007.00,1.04
4006.00,1.04
4005.00,1.05
4004.00,1.05
4003.00,1.06
4002.00,1.06
4001.00,1.06
4000.00,1.07
