创建为新数据集,样品 091 用户 Administrator 日期 星期五, 七月 26 2019
cm-1,%T
10000.00,1.28
9999.00,1.29
9998.00,1.31
9997.00,1.32
9996.00,1.33
9995.00,1.34
9994.00,1.35
9993.00,1.36
9992.00,1.36
9991.00,1.37
9990.00,1.37
9989.00,1.38
9988.00,1.38
9987.00,1.38
9986.00,1.38
9985.00,1.38
9984.00,1.38
9983.00,1.38
9982.00,1.37
9981.00,1.37
9980.00,1.36
9979.00,1.36
9978.00,1.35
9977.00,1.34
9976.00,1.33
9975.00,1.32
9974.00,1.32
9973.00,1.31
9972.00,1.30
9971.00,1.29
9970.00,1.28
9969.00,1.28
9968.00,1.27
9967.00,1.27
9966.00,1.27
9965.00,1.27
9964.00,1.26
9963.00,1.27
9962.00,1.27
9961.00,1.27
9960.00,1.27
9959.00,1.28
9958.00,1.28
9957.00,1.29
9956.00,1.29
9955.00,1.30
9954.00,1.30
9953.00,1.31
9952.00,1.32
9951.00,1.33
9950.00,1.34
9949.00,1.35
9948.00,1.36
9947.00,1.37
9946.00,1.38
9945.00,1.39
9944.00,1.40
9943.00,1.41
9942.00,1.42
9941.00,1.42
9940.00,1.43
9939.00,1.43
9938.00,1.44
9937.00,1.44
9936.00,1.44
9935.00,1.45
9934.00,1.45
9933.00,1.45
9932.00,1.44
9931.00,1.44
9930.00,1.44
9929.00,1.44
9928.00,1.43
9927.00,1.43
9926.00,1.42
9925.00,1.42
9924.00,1.41
9923.00,1.41
9922.00,1.40
9921.00,1.39
9920.00,1.39
9919.00,1.38
9918.00,1.38
9917.00,1.37
9916.00,1.37
9915.00,1.36
9914.00,1.36
9913.00,1.35
9912.00,1.35
9911.00,1.35
9910.00,1.34
9909.00,1.34
9908.00,1.34
9907.00,1.34
9906.00,1.34
9905.00,1.34
9904.00,1.34
9903.00,1.34
9902.00,1.34
9901.00,1.34
9900.00,1.34
9899.00,1.34
9898.00,1.34
9897.00,1.34
9896.00,1.34
9895.00,1.33
9894.00,1.33
9893.00,1.33
9892.00,1.33
9891.00,1.32
9890.00,1.32
9889.00,1.32
9888.00,1.31
9887.00,1.31
9886.00,1.30
9885.00,1.30
9884.00,1.29
9883.00,1.29
9882.00,1.28
9881.00,1.27
9880.00,1.27
9879.00,1.26
9878.00,1.25
9877.00,1.25
9876.00,1.24
9875.00,1.23
9874.00,1.23
9873.00,1.22
9872.00,1.21
9871.00,1.21
9870.00,1.20
9869.00,1.20
9868.00,1.19
9867.00,1.18
9866.00,1.18
9865.00,1.17
9864.00,1.17
9863.00,1.16
9862.00,1.15
9861.00,1.15
9860.00,1.14
9859.00,1.14
9858.00,1.14
9857.00,1.13
9856.00,1.13
9855.00,1.13
9854.00,1.13
9853.00,1.13
9852.00,1.13
9851.00,1.13
9850.00,1.13
9849.00,1.13
9848.00,1.14
9847.00,1.14
9846.00,1.14
9845.00,1.15
9844.00,1.15
9843.00,1.16
9842.00,1.17
9841.00,1.17
9840.00,1.18
9839.00,1.19
9838.00,1.20
9837.00,1.21
9836.00,1.22
9835.00,1.22
9834.00,1.23
9833.00,1.24
9832.00,1.25
9831.00,1.26
9830.00,1.27
9829.00,1.28
9828.00,1.28
9827.00,1.29
9826.00,1.30
9825.00,1.31
9824.00,1.31
9823.00,1.32
9822.00,1.32
9821.00,1.33
9820.00,1.33
9819.00,1.33
9818.00,1.33
9817.00,1.33
9816.00,1.34
9815.00,1.34
9814.00,1.34
9813.00,1.34
9812.00,1.34
9811.00,1.34
9810.00,1.34
9809.00,1.34
9808.00,1.34
9807.00,1.34
9806.00,1.34
9805.00,1.34
9804.00,1.34
9803.00,1.34
9802.00,1.33
9801.00,1.33
9800.00,1.33
9799.00,1.33
9798.00,1.32
9797.00,1.32
9796.00,1.32
9795.00,1.31
9794.00,1.31
9793.00,1.30
9792.00,1.30
9791.00,1.30
9790.00,1.29
9789.00,1.28
9788.00,1.28
9787.00,1.27
9786.00,1.26
9785.00,1.25
9784.00,1.25
9783.00,1.24
9782.00,1.23
9781.00,1.22
9780.00,1.21
9779.00,1.20
9778.00,1.19
9777.00,1.18
9776.00,1.17
9775.00,1.17
9774.00,1.16
9773.00,1.15
9772.00,1.15
9771.00,1.14
9770.00,1.14
9769.00,1.14
9768.00,1.14
9767.00,1.14
9766.00,1.14
9765.00,1.15
9764.00,1.15
9763.00,1.16
9762.00,1.17
9761.00,1.18
9760.00,1.18
9759.00,1.19
9758.00,1.20
9757.00,1.21
9756.00,1.22
9755.00,1.22
9754.00,1.23
9753.00,1.24
9752.00,1.25
9751.00,1.26
9750.00,1.27
9749.00,1.27
9748.00,1.28
9747.00,1.29
9746.00,1.29
9745.00,1.30
9744.00,1.30
9743.00,1.31
9742.00,1.31
9741.00,1.31
9740.00,1.30
9739.00,1.30
9738.00,1.30
9737.00,1.29
9736.00,1.29
9735.00,1.28
9734.00,1.28
9733.00,1.28
9732.00,1.27
9731.00,1.27
9730.00,1.26
9729.00,1.26
9728.00,1.26
9727.00,1.26
9726.00,1.26
9725.00,1.26
9724.00,1.25
9723.00,1.25
9722.00,1.25
9721.00,1.25
9720.00,1.25
9719.00,1.25
9718.00,1.25
9717.00,1.25
9716.00,1.25
9715.00,1.25
9714.00,1.25
9713.00,1.25
9712.00,1.25
9711.00,1.25
9710.00,1.25
9709.00,1.26
9708.00,1.26
9707.00,1.26
9706.00,1.26
9705.00,1.26
9704.00,1.27
9703.00,1.27
9702.00,1.27
9701.00,1.27
9700.00,1.26
9699.00,1.26
9698.00,1.26
9697.00,1.26
9696.00,1.26
9695.00,1.26
9694.00,1.25
9693.00,1.25
9692.00,1.25
9691.00,1.25
9690.00,1.25
9689.00,1.25
9688.00,1.25
9687.00,1.25
9686.00,1.25
9685.00,1.25
9684.00,1.25
9683.00,1.25
9682.00,1.24
9681.00,1.24
9680.00,1.24
9679.00,1.24
9678.00,1.24
9677.00,1.24
9676.00,1.23
9675.00,1.23
9674.00,1.23
9673.00,1.23
9672.00,1.23
9671.00,1.22
9670.00,1.22
9669.00,1.22
9668.00,1.22
9667.00,1.22
9666.00,1.22
9665.00,1.22
9664.00,1.22
9663.00,1.22
9662.00,1.22
9661.00,1.22
9660.00,1.22
9659.00,1.22
9658.00,1.22
9657.00,1.22
9656.00,1.23
9655.00,1.23
9654.00,1.23
9653.00,1.23
9652.00,1.23
9651.00,1.23
9650.00,1.24
9649.00,1.24
9648.00,1.24
9647.00,1.24
9646.00,1.25
9645.00,1.25
9644.00,1.25
9643.00,1.25
9642.00,1.25
9641.00,1.25
9640.00,1.25
9639.00,1.25
9638.00,1.25
9637.00,1.26
9636.00,1.25
9635.00,1.25
9634.00,1.25
9633.00,1.25
9632.00,1.25
9631.00,1.25
9630.00,1.25
9629.00,1.25
9628.00,1.25
9627.00,1.26
9626.00,1.26
9625.00,1.26
9624.00,1.26
9623.00,1.26
9622.00,1.26
9621.00,1.26
9620.00,1.26
9619.00,1.26
9618.00,1.26
9617.00,1.27
9616.00,1.27
9615.00,1.27
9614.00,1.27
9613.00,1.27
9612.00,1.27
9611.00,1.28
9610.00,1.28
9609.00,1.28
9608.00,1.28
9607.00,1.28
9606.00,1.27
9605.00,1.27
9604.00,1.27
9603.00,1.27
9602.00,1.26
9601.00,1.26
9600.00,1.25
9599.00,1.25
9598.00,1.25
9597.00,1.24
9596.00,1.24
9595.00,1.24
9594.00,1.24
9593.00,1.23
9592.00,1.23
9591.00,1.23
9590.00,1.23
9589.00,1.23
9588.00,1.23
9587.00,1.23
9586.00,1.23
9585.00,1.22
9584.00,1.22
9583.00,1.22
9582.00,1.22
9581.00,1.23
9580.00,1.23
9579.00,1.23
9578.00,1.24
9577.00,1.25
9576.00,1.25
9575.00,1.26
9574.00,1.27
9573.00,1.27
9572.00,1.28
9571.00,1.29
9570.00,1.29
9569.00,1.30
9568.00,1.30
9567.00,1.31
9566.00,1.31
9565.00,1.31
9564.00,1.32
9563.00,1.32
9562.00,1.33
9561.00,1.33
9560.00,1.34
9559.00,1.34
9558.00,1.35
9557.00,1.35
9556.00,1.36
9555.00,1.36
9554.00,1.37
9553.00,1.37
9552.00,1.37
9551.00,1.37
9550.00,1.37
9549.00,1.37
9548.00,1.37
9547.00,1.38
9546.00,1.38
9545.00,1.38
9544.00,1.38
9543.00,1.38
9542.00,1.38
9541.00,1.39
9540.00,1.39
9539.00,1.39
9538.00,1.39
9537.00,1.39
9536.00,1.39
9535.00,1.39
9534.00,1.39
9533.00,1.39
9532.00,1.39
9531.00,1.39
9530.00,1.39
9529.00,1.39
9528.00,1.38
9527.00,1.38
9526.00,1.38
9525.00,1.38
9524.00,1.38
9523.00,1.38
9522.00,1.38
9521.00,1.38
9520.00,1.38
9519.00,1.37
9518.00,1.37
9517.00,1.37
9516.00,1.37
9515.00,1.37
9514.00,1.37
9513.00,1.36
9512.00,1.36
9511.00,1.37
9510.00,1.37
9509.00,1.37
9508.00,1.37
9507.00,1.37
9506.00,1.37
9505.00,1.37
9504.00,1.37
9503.00,1.37
9502.00,1.38
9501.00,1.38
9500.00,1.38
9499.00,1.38
9498.00,1.38
9497.00,1.38
9496.00,1.38
9495.00,1.38
9494.00,1.38
9493.00,1.38
9492.00,1.37
9491.00,1.37
9490.00,1.37
9489.00,1.36
9488.00,1.36
9487.00,1.36
9486.00,1.35
9485.00,1.35
9484.00,1.34
9483.00,1.34
9482.00,1.33
9481.00,1.33
9480.00,1.32
9479.00,1.32
9478.00,1.32
9477.00,1.32
9476.00,1.31
9475.00,1.31
9474.00,1.31
9473.00,1.31
9472.00,1.31
9471.00,1.31
9470.00,1.30
9469.00,1.30
9468.00,1.31
9467.00,1.31
9466.00,1.31
9465.00,1.31
9464.00,1.32
9463.00,1.32
9462.00,1.33
9461.00,1.33
9460.00,1.34
9459.00,1.34
9458.00,1.34
9457.00,1.35
9456.00,1.35
9455.00,1.36
9454.00,1.36
9453.00,1.36
9452.00,1.37
9451.00,1.37
9450.00,1.37
9449.00,1.37
9448.00,1.37
9447.00,1.37
9446.00,1.37
9445.00,1.37
9444.00,1.37
9443.00,1.37
9442.00,1.37
9441.00,1.37
9440.00,1.37
9439.00,1.36
9438.00,1.36
9437.00,1.35
9436.00,1.35
9435.00,1.34
9434.00,1.34
9433.00,1.33
9432.00,1.33
9431.00,1.32
9430.00,1.31
9429.00,1.31
9428.00,1.30
9427.00,1.29
9426.00,1.29
9425.00,1.28
9424.00,1.27
9423.00,1.27
9422.00,1.26
9421.00,1.26
9420.00,1.25
9419.00,1.25
9418.00,1.25
9417.00,1.24
9416.00,1.24
9415.00,1.24
9414.00,1.24
9413.00,1.23
9412.00,1.23
9411.00,1.23
9410.00,1.23
9409.00,1.23
9408.00,1.23
9407.00,1.23
9406.00,1.23
9405.00,1.23
9404.00,1.24
9403.00,1.24
9402.00,1.24
9401.00,1.24
9400.00,1.25
9399.00,1.25
9398.00,1.25
9397.00,1.26
9396.00,1.26
9395.00,1.26
9394.00,1.27
9393.00,1.27
9392.00,1.27
9391.00,1.27
9390.00,1.28
9389.00,1.28
9388.00,1.28
9387.00,1.28
9386.00,1.28
9385.00,1.29
9384.00,1.29
9383.00,1.29
9382.00,1.29
9381.00,1.30
9380.00,1.30
9379.00,1.30
9378.00,1.30
9377.00,1.31
9376.00,1.31
9375.00,1.31
9374.00,1.31
9373.00,1.31
9372.00,1.32
9371.00,1.32
9370.00,1.32
9369.00,1.32
9368.00,1.32
9367.00,1.33
9366.00,1.33
9365.00,1.33
9364.00,1.33
9363.00,1.34
9362.00,1.34
9361.00,1.35
9360.00,1.35
9359.00,1.36
9358.00,1.36
9357.00,1.37
9356.00,1.37
9355.00,1.38
9354.00,1.38
9353.00,1.39
9352.00,1.40
9351.00,1.40
9350.00,1.40
9349.00,1.41
9348.00,1.41
9347.00,1.42
9346.00,1.42
9345.00,1.42
9344.00,1.42
9343.00,1.42
9342.00,1.42
9341.00,1.42
9340.00,1.42
9339.00,1.41
9338.00,1.41
9337.00,1.41
9336.00,1.41
9335.00,1.40
9334.00,1.40
9333.00,1.39
9332.00,1.39
9331.00,1.38
9330.00,1.37
9329.00,1.36
9328.00,1.36
9327.00,1.35
9326.00,1.34
9325.00,1.33
9324.00,1.32
9323.00,1.31
9322.00,1.31
9321.00,1.30
9320.00,1.29
9319.00,1.29
9318.00,1.28
9317.00,1.28
9316.00,1.28
9315.00,1.28
9314.00,1.27
9313.00,1.27
9312.00,1.27
9311.00,1.27
9310.00,1.27
9309.00,1.27
9308.00,1.27
9307.00,1.27
9306.00,1.28
9305.00,1.28
9304.00,1.28
9303.00,1.28
9302.00,1.28
9301.00,1.29
9300.00,1.29
9299.00,1.29
9298.00,1.30
9297.00,1.30
9296.00,1.31
9295.00,1.31
9294.00,1.31
9293.00,1.32
9292.00,1.32
9291.00,1.32
9290.00,1.32
9289.00,1.33
9288.00,1.33
9287.00,1.33
9286.00,1.33
9285.00,1.33
9284.00,1.34
9283.00,1.34
9282.00,1.34
9281.00,1.34
9280.00,1.35
9279.00,1.35
9278.00,1.35
9277.00,1.35
9276.00,1.36
9275.00,1.36
9274.00,1.36
9273.00,1.36
9272.00,1.37
9271.00,1.37
9270.00,1.37
9269.00,1.37
9268.00,1.38
9267.00,1.38
9266.00,1.38
9265.00,1.38
9264.00,1.38
9263.00,1.39
9262.00,1.39
9261.00,1.39
9260.00,1.39
9259.00,1.39
9258.00,1.39
9257.00,1.39
9256.00,1.39
9255.00,1.39
9254.00,1.39
9253.00,1.39
9252.00,1.39
9251.00,1.39
9250.00,1.39
9249.00,1.39
9248.00,1.39
9247.00,1.39
9246.00,1.39
9245.00,1.40
9244.00,1.40
9243.00,1.40
9242.00,1.40
9241.00,1.40
9240.00,1.40
9239.00,1.40
9238.00,1.41
9237.00,1.41
9236.00,1.41
9235.00,1.41
9234.00,1.41
9233.00,1.42
9232.00,1.42
9231.00,1.42
9230.00,1.42
9229.00,1.42
9228.00,1.42
9227.00,1.42
9226.00,1.42
9225.00,1.42
9224.00,1.42
9223.00,1.42
9222.00,1.41
9221.00,1.41
9220.00,1.41
9219.00,1.40
9218.00,1.40
9217.00,1.40
9216.00,1.39
9215.00,1.39
9214.00,1.39
9213.00,1.38
9212.00,1.38
9211.00,1.37
9210.00,1.37
9209.00,1.37
9208.00,1.36
9207.00,1.36
9206.00,1.36
9205.00,1.36
9204.00,1.36
9203.00,1.36
9202.00,1.36
9201.00,1.35
9200.00,1.35
9199.00,1.36
9198.00,1.36
9197.00,1.36
9196.00,1.36
9195.00,1.36
9194.00,1.36
9193.00,1.36
9192.00,1.36
9191.00,1.36
9190.00,1.36
9189.00,1.36
9188.00,1.36
9187.00,1.36
9186.00,1.36
9185.00,1.36
9184.00,1.36
9183.00,1.36
9182.00,1.36
9181.00,1.35
9180.00,1.35
9179.00,1.34
9178.00,1.34
9177.00,1.34
9176.00,1.33
9175.00,1.33
9174.00,1.32
9173.00,1.32
9172.00,1.31
9171.00,1.31
9170.00,1.30
9169.00,1.30
9168.00,1.30
9167.00,1.29
9166.00,1.29
9165.00,1.29
9164.00,1.28
9163.00,1.28
9162.00,1.28
9161.00,1.28
9160.00,1.28
9159.00,1.28
9158.00,1.28
9157.00,1.28
9156.00,1.28
9155.00,1.28
9154.00,1.28
9153.00,1.28
9152.00,1.29
9151.00,1.29
9150.00,1.29
9149.00,1.30
9148.00,1.30
9147.00,1.31
9146.00,1.31
9145.00,1.31
9144.00,1.32
9143.00,1.32
9142.00,1.32
9141.00,1.33
9140.00,1.33
9139.00,1.34
9138.00,1.34
9137.00,1.34
9136.00,1.35
9135.00,1.35
9134.00,1.35
9133.00,1.36
9132.00,1.36
9131.00,1.36
9130.00,1.37
9129.00,1.37
9128.00,1.37
9127.00,1.37
9126.00,1.37
9125.00,1.37
9124.00,1.37
9123.00,1.37
9122.00,1.37
9121.00,1.37
9120.00,1.37
9119.00,1.38
9118.00,1.38
9117.00,1.38
9116.00,1.38
9115.00,1.38
9114.00,1.38
9113.00,1.38
9112.00,1.38
9111.00,1.38
9110.00,1.38
9109.00,1.38
9108.00,1.38
9107.00,1.38
9106.00,1.38
9105.00,1.38
9104.00,1.38
9103.00,1.38
9102.00,1.38
9101.00,1.38
9100.00,1.38
9099.00,1.38
9098.00,1.38
9097.00,1.38
9096.00,1.39
9095.00,1.39
9094.00,1.39
9093.00,1.39
9092.00,1.39
9091.00,1.39
9090.00,1.39
9089.00,1.39
9088.00,1.39
9087.00,1.39
9086.00,1.39
9085.00,1.39
9084.00,1.39
9083.00,1.39
9082.00,1.39
9081.00,1.39
9080.00,1.39
9079.00,1.39
9078.00,1.39
9077.00,1.39
9076.00,1.39
9075.00,1.39
9074.00,1.39
9073.00,1.39
9072.00,1.39
9071.00,1.40
9070.00,1.40
9069.00,1.40
9068.00,1.40
9067.00,1.40
9066.00,1.40
9065.00,1.40
9064.00,1.40
9063.00,1.40
9062.00,1.40
9061.00,1.40
9060.00,1.41
9059.00,1.41
9058.00,1.41
9057.00,1.41
9056.00,1.41
9055.00,1.41
9054.00,1.41
9053.00,1.41
9052.00,1.40
9051.00,1.40
9050.00,1.40
9049.00,1.40
9048.00,1.40
9047.00,1.40
9046.00,1.40
9045.00,1.39
9044.00,1.39
9043.00,1.39
9042.00,1.39
9041.00,1.39
9040.00,1.39
9039.00,1.39
9038.00,1.39
9037.00,1.39
9036.00,1.39
9035.00,1.39
9034.00,1.39
9033.00,1.39
9032.00,1.39
9031.00,1.40
9030.00,1.40
9029.00,1.40
9028.00,1.40
9027.00,1.40
9026.00,1.41
9025.00,1.41
9024.00,1.41
9023.00,1.42
9022.00,1.42
9021.00,1.43
9020.00,1.43
9019.00,1.43
9018.00,1.43
9017.00,1.44
9016.00,1.44
9015.00,1.44
9014.00,1.44
9013.00,1.44
9012.00,1.44
9011.00,1.44
9010.00,1.44
9009.00,1.44
9008.00,1.44
9007.00,1.44
9006.00,1.44
9005.00,1.43
9004.00,1.43
9003.00,1.43
9002.00,1.43
9001.00,1.42
9000.00,1.42
8999.00,1.41
8998.00,1.41
8997.00,1.40
8996.00,1.39
8995.00,1.39
8994.00,1.38
8993.00,1.38
8992.00,1.37
8991.00,1.37
8990.00,1.36
8989.00,1.36
8988.00,1.35
8987.00,1.35
8986.00,1.34
8985.00,1.34
8984.00,1.34
8983.00,1.33
8982.00,1.33
8981.00,1.33
8980.00,1.32
8979.00,1.32
8978.00,1.32
8977.00,1.32
8976.00,1.32
8975.00,1.32
8974.00,1.32
8973.00,1.33
8972.00,1.33
8971.00,1.33
8970.00,1.34
8969.00,1.34
8968.00,1.34
8967.00,1.35
8966.00,1.35
8965.00,1.36
8964.00,1.36
8963.00,1.36
8962.00,1.37
8961.00,1.37
8960.00,1.38
8959.00,1.39
8958.00,1.39
8957.00,1.40
8956.00,1.40
8955.00,1.41
8954.00,1.42
8953.00,1.42
8952.00,1.42
8951.00,1.43
8950.00,1.43
8949.00,1.43
8948.00,1.43
8947.00,1.44
8946.00,1.44
8945.00,1.44
8944.00,1.44
8943.00,1.44
8942.00,1.44
8941.00,1.44
8940.00,1.44
8939.00,1.44
8938.00,1.44
8937.00,1.44
8936.00,1.44
8935.00,1.44
8934.00,1.44
8933.00,1.43
8932.00,1.43
8931.00,1.43
8930.00,1.42
8929.00,1.42
8928.00,1.41
8927.00,1.40
8926.00,1.40
8925.00,1.39
8924.00,1.39
8923.00,1.39
8922.00,1.38
8921.00,1.38
8920.00,1.37
8919.00,1.37
8918.00,1.37
8917.00,1.36
8916.00,1.36
8915.00,1.36
8914.00,1.35
8913.00,1.35
8912.00,1.34
8911.00,1.34
8910.00,1.33
8909.00,1.33
8908.00,1.33
8907.00,1.33
8906.00,1.32
8905.00,1.32
8904.00,1.32
8903.00,1.32
8902.00,1.32
8901.00,1.32
8900.00,1.32
8899.00,1.32
8898.00,1.32
8897.00,1.32
8896.00,1.32
8895.00,1.31
8894.00,1.31
8893.00,1.31
8892.00,1.31
8891.00,1.31
8890.00,1.31
8889.00,1.31
8888.00,1.30
8887.00,1.30
8886.00,1.30
8885.00,1.30
8884.00,1.30
8883.00,1.29
8882.00,1.29
8881.00,1.29
8880.00,1.29
8879.00,1.29
8878.00,1.28
8877.00,1.28
8876.00,1.28
8875.00,1.28
8874.00,1.28
8873.00,1.28
8872.00,1.27
8871.00,1.27
8870.00,1.27
8869.00,1.27
8868.00,1.27
8867.00,1.27
8866.00,1.27
8865.00,1.27
8864.00,1.27
8863.00,1.27
8862.00,1.27
8861.00,1.27
8860.00,1.27
8859.00,1.27
8858.00,1.27
8857.00,1.28
8856.00,1.28
8855.00,1.28
8854.00,1.28
8853.00,1.28
8852.00,1.28
8851.00,1.28
8850.00,1.29
8849.00,1.29
8848.00,1.29
8847.00,1.29
8846.00,1.30
8845.00,1.30
8844.00,1.30
8843.00,1.30
8842.00,1.31
8841.00,1.31
8840.00,1.31
8839.00,1.32
8838.00,1.32
8837.00,1.32
8836.00,1.32
8835.00,1.33
8834.00,1.33
8833.00,1.33
8832.00,1.34
8831.00,1.34
8830.00,1.34
8829.00,1.35
8828.00,1.35
8827.00,1.36
8826.00,1.36
8825.00,1.37
8824.00,1.37
8823.00,1.38
8822.00,1.38
8821.00,1.38
8820.00,1.39
8819.00,1.39
8818.00,1.39
8817.00,1.39
8816.00,1.40
8815.00,1.40
8814.00,1.40
8813.00,1.40
8812.00,1.40
8811.00,1.40
8810.00,1.40
8809.00,1.40
8808.00,1.40
8807.00,1.40
8806.00,1.40
8805.00,1.40
8804.00,1.40
8803.00,1.40
8802.00,1.40
8801.00,1.40
8800.00,1.40
8799.00,1.40
8798.00,1.40
8797.00,1.40
8796.00,1.39
8795.00,1.39
8794.00,1.39
8793.00,1.39
8792.00,1.39
8791.00,1.39
8790.00,1.39
8789.00,1.39
8788.00,1.39
8787.00,1.39
8786.00,1.39
8785.00,1.39
8784.00,1.39
8783.00,1.39
8782.00,1.39
8781.00,1.39
8780.00,1.39
8779.00,1.38
8778.00,1.38
8777.00,1.38
8776.00,1.38
8775.00,1.38
8774.00,1.37
8773.00,1.37
8772.00,1.37
8771.00,1.37
8770.00,1.37
8769.00,1.37
8768.00,1.37
8767.00,1.37
8766.00,1.36
8765.00,1.36
8764.00,1.36
8763.00,1.36
8762.00,1.36
8761.00,1.36
8760.00,1.36
8759.00,1.36
8758.00,1.36
8757.00,1.36
8756.00,1.36
8755.00,1.36
8754.00,1.35
8753.00,1.35
8752.00,1.35
8751.00,1.35
8750.00,1.35
8749.00,1.35
8748.00,1.35
8747.00,1.35
8746.00,1.35
8745.00,1.35
8744.00,1.35
8743.00,1.35
8742.00,1.35
8741.00,1.35
8740.00,1.35
8739.00,1.34
8738.00,1.34
8737.00,1.34
8736.00,1.34
8735.00,1.34
8734.00,1.34
8733.00,1.34
8732.00,1.34
8731.00,1.34
8730.00,1.34
8729.00,1.34
8728.00,1.34
8727.00,1.34
8726.00,1.34
8725.00,1.34
8724.00,1.34
8723.00,1.34
8722.00,1.35
8721.00,1.35
8720.00,1.35
8719.00,1.35
8718.00,1.35
8717.00,1.35
8716.00,1.35
8715.00,1.35
8714.00,1.35
8713.00,1.36
8712.00,1.36
8711.00,1.36
8710.00,1.36
8709.00,1.36
8708.00,1.36
8707.00,1.36
8706.00,1.36
8705.00,1.36
8704.00,1.37
8703.00,1.37
8702.00,1.37
8701.00,1.37
8700.00,1.37
8699.00,1.37
8698.00,1.37
8697.00,1.37
8696.00,1.37
8695.00,1.37
8694.00,1.37
8693.00,1.37
8692.00,1.37
8691.00,1.37
8690.00,1.37
8689.00,1.37
8688.00,1.37
8687.00,1.37
8686.00,1.37
8685.00,1.37
8684.00,1.37
8683.00,1.37
8682.00,1.37
8681.00,1.37
8680.00,1.37
8679.00,1.37
8678.00,1.37
8677.00,1.36
8676.00,1.36
8675.00,1.36
8674.00,1.36
8673.00,1.36
8672.00,1.36
8671.00,1.36
8670.00,1.36
8669.00,1.36
8668.00,1.36
8667.00,1.36
8666.00,1.36
8665.00,1.36
8664.00,1.36
8663.00,1.35
8662.00,1.35
8661.00,1.35
8660.00,1.35
8659.00,1.35
8658.00,1.35
8657.00,1.35
8656.00,1.36
8655.00,1.36
8654.00,1.36
8653.00,1.36
8652.00,1.37
8651.00,1.37
8650.00,1.37
8649.00,1.37
8648.00,1.37
8647.00,1.37
8646.00,1.37
8645.00,1.37
8644.00,1.37
8643.00,1.37
8642.00,1.37
8641.00,1.37
8640.00,1.37
8639.00,1.37
8638.00,1.37
8637.00,1.37
8636.00,1.37
8635.00,1.37
8634.00,1.36
8633.00,1.36
8632.00,1.36
8631.00,1.36
8630.00,1.36
8629.00,1.35
8628.00,1.35
8627.00,1.35
8626.00,1.34
8625.00,1.34
8624.00,1.34
8623.00,1.33
8622.00,1.33
8621.00,1.32
8620.00,1.32
8619.00,1.32
8618.00,1.32
8617.00,1.31
8616.00,1.31
8615.00,1.31
8614.00,1.31
8613.00,1.31
8612.00,1.31
8611.00,1.30
8610.00,1.30
8609.00,1.30
8608.00,1.30
8607.00,1.30
8606.00,1.30
8605.00,1.30
8604.00,1.30
8603.00,1.30
8602.00,1.30
8601.00,1.30
8600.00,1.30
8599.00,1.30
8598.00,1.31
8597.00,1.31
8596.00,1.31
8595.00,1.32
8594.00,1.32
8593.00,1.32
8592.00,1.32
8591.00,1.33
8590.00,1.33
8589.00,1.33
8588.00,1.33
8587.00,1.34
8586.00,1.34
8585.00,1.34
8584.00,1.34
8583.00,1.34
8582.00,1.34
8581.00,1.34
8580.00,1.35
8579.00,1.35
8578.00,1.35
8577.00,1.35
8576.00,1.35
8575.00,1.35
8574.00,1.35
8573.00,1.35
8572.00,1.35
8571.00,1.34
8570.00,1.34
8569.00,1.34
8568.00,1.34
8567.00,1.33
8566.00,1.33
8565.00,1.33
8564.00,1.33
8563.00,1.32
8562.00,1.32
8561.00,1.32
8560.00,1.31
8559.00,1.31
8558.00,1.30
8557.00,1.30
8556.00,1.29
8555.00,1.29
8554.00,1.29
8553.00,1.28
8552.00,1.28
8551.00,1.27
8550.00,1.27
8549.00,1.26
8548.00,1.26
8547.00,1.25
8546.00,1.25
8545.00,1.25
8544.00,1.24
8543.00,1.24
8542.00,1.24
8541.00,1.23
8540.00,1.23
8539.00,1.23
8538.00,1.23
8537.00,1.23
8536.00,1.23
8535.00,1.22
8534.00,1.22
8533.00,1.22
8532.00,1.22
8531.00,1.22
8530.00,1.22
8529.00,1.22
8528.00,1.22
8527.00,1.22
8526.00,1.22
8525.00,1.22
8524.00,1.23
8523.00,1.23
8522.00,1.23
8521.00,1.23
8520.00,1.23
8519.00,1.23
8518.00,1.23
8517.00,1.23
8516.00,1.23
8515.00,1.23
8514.00,1.23
8513.00,1.23
8512.00,1.23
8511.00,1.23
8510.00,1.23
8509.00,1.23
8508.00,1.23
8507.00,1.23
8506.00,1.23
8505.00,1.23
8504.00,1.23
8503.00,1.23
8502.00,1.23
8501.00,1.24
8500.00,1.24
8499.00,1.24
8498.00,1.24
8497.00,1.25
8496.00,1.25
8495.00,1.25
8494.00,1.25
8493.00,1.26
8492.00,1.26
8491.00,1.26
8490.00,1.26
8489.00,1.27
8488.00,1.27
8487.00,1.27
8486.00,1.28
8485.00,1.28
8484.00,1.28
8483.00,1.28
8482.00,1.29
8481.00,1.29
8480.00,1.29
8479.00,1.29
8478.00,1.29
8477.00,1.29
8476.00,1.29
8475.00,1.29
8474.00,1.29
8473.00,1.28
8472.00,1.28
8471.00,1.28
8470.00,1.28
8469.00,1.28
8468.00,1.28
8467.00,1.28
8466.00,1.28
8465.00,1.27
8464.00,1.27
8463.00,1.27
8462.00,1.27
8461.00,1.27
8460.00,1.27
8459.00,1.27
8458.00,1.27
8457.00,1.27
8456.00,1.27
8455.00,1.27
8454.00,1.27
8453.00,1.27
8452.00,1.27
8451.00,1.27
8450.00,1.27
8449.00,1.28
8448.00,1.28
8447.00,1.28
8446.00,1.29
8445.00,1.29
8444.00,1.29
8443.00,1.29
8442.00,1.30
8441.00,1.30
8440.00,1.30
8439.00,1.31
8438.00,1.31
8437.00,1.31
8436.00,1.31
8435.00,1.32
8434.00,1.32
8433.00,1.32
8432.00,1.32
8431.00,1.32
8430.00,1.33
8429.00,1.33
8428.00,1.33
8427.00,1.33
8426.00,1.33
8425.00,1.32
8424.00,1.32
8423.00,1.32
8422.00,1.32
8421.00,1.32
8420.00,1.32
8419.00,1.32
8418.00,1.32
8417.00,1.31
8416.00,1.31
8415.00,1.31
8414.00,1.31
8413.00,1.31
8412.00,1.30
8411.00,1.30
8410.00,1.30
8409.00,1.29
8408.00,1.29
8407.00,1.29
8406.00,1.29
8405.00,1.28
8404.00,1.28
8403.00,1.28
8402.00,1.27
8401.00,1.27
8400.00,1.27
8399.00,1.27
8398.00,1.27
8397.00,1.26
8396.00,1.26
8395.00,1.26
8394.00,1.26
8393.00,1.26
8392.00,1.26
8391.00,1.26
8390.00,1.25
8389.00,1.25
8388.00,1.25
8387.00,1.25
8386.00,1.25
8385.00,1.25
8384.00,1.25
8383.00,1.25
8382.00,1.26
8381.00,1.26
8380.00,1.26
8379.00,1.26
8378.00,1.26
8377.00,1.26
8376.00,1.27
8375.00,1.27
8374.00,1.27
8373.00,1.27
8372.00,1.27
8371.00,1.28
8370.00,1.28
8369.00,1.28
8368.00,1.28
8367.00,1.28
8366.00,1.28
8365.00,1.29
8364.00,1.29
8363.00,1.29
8362.00,1.29
8361.00,1.29
8360.00,1.29
8359.00,1.29
8358.00,1.29
8357.00,1.29
8356.00,1.28
8355.00,1.28
8354.00,1.28
8353.00,1.28
8352.00,1.28
8351.00,1.28
8350.00,1.28
8349.00,1.28
8348.00,1.28
8347.00,1.28
8346.00,1.28
8345.00,1.27
8344.00,1.27
8343.00,1.27
8342.00,1.27
8341.00,1.27
8340.00,1.27
8339.00,1.27
8338.00,1.27
8337.00,1.28
8336.00,1.28
8335.00,1.28
8334.00,1.28
8333.00,1.28
8332.00,1.28
8331.00,1.29
8330.00,1.29
8329.00,1.29
8328.00,1.29
8327.00,1.30
8326.00,1.30
8325.00,1.30
8324.00,1.30
8323.00,1.31
8322.00,1.31
8321.00,1.31
8320.00,1.31
8319.00,1.31
8318.00,1.32
8317.00,1.32
8316.00,1.32
8315.00,1.32
8314.00,1.32
8313.00,1.32
8312.00,1.32
8311.00,1.32
8310.00,1.32
8309.00,1.33
8308.00,1.33
8307.00,1.32
8306.00,1.32
8305.00,1.32
8304.00,1.32
8303.00,1.32
8302.00,1.32
8301.00,1.31
8300.00,1.31
8299.00,1.31
8298.00,1.31
8297.00,1.31
8296.00,1.31
8295.00,1.30
8294.00,1.30
8293.00,1.30
8292.00,1.30
8291.00,1.30
8290.00,1.30
8289.00,1.30
8288.00,1.30
8287.00,1.30
8286.00,1.30
8285.00,1.30
8284.00,1.30
8283.00,1.30
8282.00,1.30
8281.00,1.30
8280.00,1.30
8279.00,1.30
8278.00,1.30
8277.00,1.30
8276.00,1.31
8275.00,1.31
8274.00,1.31
8273.00,1.31
8272.00,1.32
8271.00,1.32
8270.00,1.32
8269.00,1.32
8268.00,1.32
8267.00,1.32
8266.00,1.32
8265.00,1.32
8264.00,1.32
8263.00,1.32
8262.00,1.32
8261.00,1.32
8260.00,1.32
8259.00,1.32
8258.00,1.32
8257.00,1.32
8256.00,1.32
8255.00,1.32
8254.00,1.32
8253.00,1.31
8252.00,1.31
8251.00,1.31
8250.00,1.31
8249.00,1.31
8248.00,1.30
8247.00,1.30
8246.00,1.30
8245.00,1.30
8244.00,1.30
8243.00,1.30
8242.00,1.30
8241.00,1.30
8240.00,1.30
8239.00,1.30
8238.00,1.30
8237.00,1.30
8236.00,1.30
8235.00,1.30
8234.00,1.30
8233.00,1.30
8232.00,1.30
8231.00,1.30
8230.00,1.30
8229.00,1.30
8228.00,1.30
8227.00,1.30
8226.00,1.30
8225.00,1.31
8224.00,1.31
8223.00,1.31
8222.00,1.31
8221.00,1.31
8220.00,1.32
8219.00,1.32
8218.00,1.32
8217.00,1.32
8216.00,1.33
8215.00,1.33
8214.00,1.33
8213.00,1.33
8212.00,1.34
8211.00,1.34
8210.00,1.34
8209.00,1.34
8208.00,1.35
8207.00,1.35
8206.00,1.35
8205.00,1.35
8204.00,1.35
8203.00,1.35
8202.00,1.35
8201.00,1.35
8200.00,1.36
8199.00,1.36
8198.00,1.36
8197.00,1.36
8196.00,1.36
8195.00,1.35
8194.00,1.35
8193.00,1.35
8192.00,1.35
8191.00,1.35
8190.00,1.35
8189.00,1.35
8188.00,1.35
8187.00,1.34
8186.00,1.34
8185.00,1.34
8184.00,1.34
8183.00,1.34
8182.00,1.33
8181.00,1.33
8180.00,1.33
8179.00,1.33
8178.00,1.33
8177.00,1.32
8176.00,1.32
8175.00,1.32
8174.00,1.32
8173.00,1.32
8172.00,1.32
8171.00,1.32
8170.00,1.32
8169.00,1.32
8168.00,1.32
8167.00,1.32
8166.00,1.32
8165.00,1.32
8164.00,1.32
8163.00,1.33
8162.00,1.33
8161.00,1.33
8160.00,1.33
8159.00,1.33
8158.00,1.33
8157.00,1.33
8156.00,1.33
8155.00,1.33
8154.00,1.34
8153.00,1.34
8152.00,1.34
8151.00,1.34
8150.00,1.34
8149.00,1.34
8148.00,1.34
8147.00,1.35
8146.00,1.35
8145.00,1.35
8144.00,1.34
8143.00,1.34
8142.00,1.34
8141.00,1.34
8140.00,1.34
8139.00,1.34
8138.00,1.34
8137.00,1.34
8136.00,1.34
8135.00,1.33
8134.00,1.33
8133.00,1.33
8132.00,1.33
8131.00,1.33
8130.00,1.33
8129.00,1.33
8128.00,1.33
8127.00,1.33
8126.00,1.33
8125.00,1.33
8124.00,1.33
8123.00,1.32
8122.00,1.32
8121.00,1.32
8120.00,1.32
8119.00,1.32
8118.00,1.32
8117.00,1.33
8116.00,1.33
8115.00,1.33
8114.00,1.33
8113.00,1.33
8112.00,1.33
8111.00,1.33
8110.00,1.33
8109.00,1.33
8108.00,1.33
8107.00,1.32
8106.00,1.32
8105.00,1.32
8104.00,1.32
8103.00,1.32
8102.00,1.32
8101.00,1.32
8100.00,1.32
8099.00,1.32
8098.00,1.32
8097.00,1.32
8096.00,1.32
8095.00,1.32
8094.00,1.32
8093.00,1.32
8092.00,1.32
8091.00,1.32
8090.00,1.32
8089.00,1.32
8088.00,1.32
8087.00,1.33
8086.00,1.33
8085.00,1.33
8084.00,1.33
8083.00,1.34
8082.00,1.34
8081.00,1.34
8080.00,1.35
8079.00,1.35
8078.00,1.35
8077.00,1.36
8076.00,1.36
8075.00,1.36
8074.00,1.37
8073.00,1.37
8072.00,1.37
8071.00,1.37
8070.00,1.37
8069.00,1.38
8068.00,1.38
8067.00,1.38
8066.00,1.38
8065.00,1.38
8064.00,1.38
8063.00,1.38
8062.00,1.38
8061.00,1.38
8060.00,1.38
8059.00,1.38
8058.00,1.38
8057.00,1.38
8056.00,1.37
8055.00,1.37
8054.00,1.37
8053.00,1.37
8052.00,1.37
8051.00,1.37
8050.00,1.36
8049.00,1.36
8048.00,1.36
8047.00,1.36
8046.00,1.36
8045.00,1.36
8044.00,1.36
8043.00,1.36
8042.00,1.36
8041.00,1.35
8040.00,1.35
8039.00,1.35
8038.00,1.35
8037.00,1.35
8036.00,1.35
8035.00,1.35
8034.00,1.35
8033.00,1.35
8032.00,1.35
8031.00,1.34
8030.00,1.34
8029.00,1.34
8028.00,1.34
8027.00,1.34
8026.00,1.34
8025.00,1.34
8024.00,1.34
8023.00,1.34
8022.00,1.34
8021.00,1.34
8020.00,1.33
8019.00,1.33
8018.00,1.33
8017.00,1.33
8016.00,1.33
8015.00,1.33
8014.00,1.33
8013.00,1.34
8012.00,1.34
8011.00,1.34
8010.00,1.34
8009.00,1.34
8008.00,1.34
8007.00,1.34
8006.00,1.34
8005.00,1.34
8004.00,1.34
8003.00,1.34
8002.00,1.34
8001.00,1.34
8000.00,1.34
7999.00,1.34
7998.00,1.34
7997.00,1.34
7996.00,1.34
7995.00,1.34
7994.00,1.34
7993.00,1.34
7992.00,1.34
7991.00,1.34
7990.00,1.34
7989.00,1.34
7988.00,1.34
7987.00,1.34
7986.00,1.34
7985.00,1.34
7984.00,1.34
7983.00,1.34
7982.00,1.34
7981.00,1.34
7980.00,1.34
7979.00,1.34
7978.00,1.34
7977.00,1.34
7976.00,1.34
7975.00,1.34
7974.00,1.35
7973.00,1.35
7972.00,1.35
7971.00,1.35
7970.00,1.35
7969.00,1.35
7968.00,1.35
7967.00,1.35
7966.00,1.35
7965.00,1.35
7964.00,1.35
7963.00,1.35
7962.00,1.36
7961.00,1.36
7960.00,1.36
7959.00,1.36
7958.00,1.36
7957.00,1.36
7956.00,1.36
7955.00,1.36
7954.00,1.36
7953.00,1.36
7952.00,1.36
7951.00,1.37
7950.00,1.37
7949.00,1.37
7948.00,1.37
7947.00,1.37
7946.00,1.37
7945.00,1.37
7944.00,1.38
7943.00,1.38
7942.00,1.38
7941.00,1.38
7940.00,1.38
7939.00,1.38
7938.00,1.38
7937.00,1.39
7936.00,1.39
7935.00,1.39
7934.00,1.39
7933.00,1.39
7932.00,1.39
7931.00,1.39
7930.00,1.39
7929.00,1.39
7928.00,1.39
7927.00,1.39
7926.00,1.40
7925.00,1.40
7924.00,1.40
7923.00,1.40
7922.00,1.39
7921.00,1.39
7920.00,1.39
7919.00,1.39
7918.00,1.39
7917.00,1.39
7916.00,1.39
7915.00,1.39
7914.00,1.38
7913.00,1.38
7912.00,1.38
7911.00,1.38
7910.00,1.38
7909.00,1.38
7908.00,1.38
7907.00,1.38
7906.00,1.38
7905.00,1.38
7904.00,1.38
7903.00,1.38
7902.00,1.38
7901.00,1.37
7900.00,1.37
7899.00,1.37
7898.00,1.37
7897.00,1.37
7896.00,1.37
7895.00,1.37
7894.00,1.37
7893.00,1.37
7892.00,1.37
7891.00,1.37
7890.00,1.37
7889.00,1.37
7888.00,1.38
7887.00,1.38
7886.00,1.38
7885.00,1.38
7884.00,1.38
7883.00,1.39
7882.00,1.39
7881.00,1.39
7880.00,1.39
7879.00,1.39
7878.00,1.39
7877.00,1.39
7876.00,1.39
7875.00,1.39
7874.00,1.39
7873.00,1.39
7872.00,1.39
7871.00,1.39
7870.00,1.39
7869.00,1.39
7868.00,1.39
7867.00,1.39
7866.00,1.38
7865.00,1.38
7864.00,1.38
7863.00,1.38
7862.00,1.38
7861.00,1.38
7860.00,1.38
7859.00,1.38
7858.00,1.38
7857.00,1.38
7856.00,1.38
7855.00,1.38
7854.00,1.37
7853.00,1.37
7852.00,1.37
7851.00,1.37
7850.00,1.38
7849.00,1.38
7848.00,1.38
7847.00,1.38
7846.00,1.38
7845.00,1.38
7844.00,1.39
7843.00,1.39
7842.00,1.39
7841.00,1.39
7840.00,1.40
7839.00,1.40
7838.00,1.40
7837.00,1.40
7836.00,1.40
7835.00,1.40
7834.00,1.40
7833.00,1.40
7832.00,1.40
7831.00,1.40
7830.00,1.39
7829.00,1.39
7828.00,1.39
7827.00,1.39
7826.00,1.38
7825.00,1.38
7824.00,1.38
7823.00,1.38
7822.00,1.37
7821.00,1.37
7820.00,1.37
7819.00,1.36
7818.00,1.36
7817.00,1.36
7816.00,1.35
7815.00,1.35
7814.00,1.35
7813.00,1.34
7812.00,1.34
7811.00,1.34
7810.00,1.34
7809.00,1.34
7808.00,1.34
7807.00,1.34
7806.00,1.34
7805.00,1.34
7804.00,1.34
7803.00,1.34
7802.00,1.35
7801.00,1.35
7800.00,1.36
7799.00,1.36
7798.00,1.36
7797.00,1.37
7796.00,1.37
7795.00,1.37
7794.00,1.38
7793.00,1.38
7792.00,1.38
7791.00,1.39
7790.00,1.39
7789.00,1.39
7788.00,1.40
7787.00,1.40
7786.00,1.40
7785.00,1.40
7784.00,1.40
7783.00,1.41
7782.00,1.41
7781.00,1.41
7780.00,1.41
7779.00,1.41
7778.00,1.41
7777.00,1.41
7776.00,1.41
7775.00,1.41
7774.00,1.41
7773.00,1.41
7772.00,1.41
7771.00,1.41
7770.00,1.41
7769.00,1.40
7768.00,1.40
7767.00,1.40
7766.00,1.40
7765.00,1.40
7764.00,1.40
7763.00,1.40
7762.00,1.41
7761.00,1.41
7760.00,1.41
7759.00,1.41
7758.00,1.41
7757.00,1.41
7756.00,1.42
7755.00,1.42
7754.00,1.42
7753.00,1.42
7752.00,1.43
7751.00,1.43
7750.00,1.43
7749.00,1.44
7748.00,1.44
7747.00,1.45
7746.00,1.45
7745.00,1.45
7744.00,1.46
7743.00,1.46
7742.00,1.46
7741.00,1.47
7740.00,1.47
7739.00,1.47
7738.00,1.48
7737.00,1.48
7736.00,1.48
7735.00,1.48
7734.00,1.48
7733.00,1.48
7732.00,1.48
7731.00,1.48
7730.00,1.48
7729.00,1.48
7728.00,1.48
7727.00,1.48
7726.00,1.48
7725.00,1.48
7724.00,1.47
7723.00,1.47
7722.00,1.46
7721.00,1.46
7720.00,1.46
7719.00,1.45
7718.00,1.45
7717.00,1.45
7716.00,1.44
7715.00,1.44
7714.00,1.44
7713.00,1.43
7712.00,1.43
7711.00,1.43
7710.00,1.42
7709.00,1.42
7708.00,1.42
7707.00,1.41
7706.00,1.41
7705.00,1.41
7704.00,1.41
7703.00,1.41
7702.00,1.41
7701.00,1.40
7700.00,1.40
7699.00,1.40
7698.00,1.41
7697.00,1.41
7696.00,1.41
7695.00,1.41
7694.00,1.41
7693.00,1.41
7692.00,1.41
7691.00,1.41
7690.00,1.41
7689.00,1.41
7688.00,1.41
7687.00,1.41
7686.00,1.41
7685.00,1.41
7684.00,1.41
7683.00,1.41
7682.00,1.41
7681.00,1.41
7680.00,1.41
7679.00,1.41
7678.00,1.41
7677.00,1.40
7676.00,1.40
7675.00,1.40
7674.00,1.40
7673.00,1.40
7672.00,1.39
7671.00,1.39
7670.00,1.39
7669.00,1.39
7668.00,1.38
7667.00,1.38
7666.00,1.38
7665.00,1.38
7664.00,1.38
7663.00,1.37
7662.00,1.37
7661.00,1.37
7660.00,1.37
7659.00,1.37
7658.00,1.37
7657.00,1.37
7656.00,1.37
7655.00,1.37
7654.00,1.37
7653.00,1.37
7652.00,1.38
7651.00,1.38
7650.00,1.38
7649.00,1.38
7648.00,1.38
7647.00,1.38
7646.00,1.38
7645.00,1.39
7644.00,1.39
7643.00,1.39
7642.00,1.39
7641.00,1.40
7640.00,1.40
7639.00,1.40
7638.00,1.41
7637.00,1.41
7636.00,1.41
7635.00,1.41
7634.00,1.42
7633.00,1.42
7632.00,1.42
7631.00,1.42
7630.00,1.42
7629.00,1.42
7628.00,1.42
7627.00,1.42
7626.00,1.42
7625.00,1.42
7624.00,1.42
7623.00,1.42
7622.00,1.42
7621.00,1.42
7620.00,1.42
7619.00,1.42
7618.00,1.42
7617.00,1.41
7616.00,1.41
7615.00,1.41
7614.00,1.41
7613.00,1.41
7612.00,1.40
7611.00,1.40
7610.00,1.40
7609.00,1.40
7608.00,1.40
7607.00,1.40
7606.00,1.40
7605.00,1.40
7604.00,1.40
7603.00,1.40
7602.00,1.40
7601.00,1.40
7600.00,1.40
7599.00,1.40
7598.00,1.40
7597.00,1.41
7596.00,1.41
7595.00,1.41
7594.00,1.41
7593.00,1.41
7592.00,1.41
7591.00,1.41
7590.00,1.42
7589.00,1.42
7588.00,1.42
7587.00,1.42
7586.00,1.42
7585.00,1.42
7584.00,1.42
7583.00,1.42
7582.00,1.42
7581.00,1.42
7580.00,1.42
7579.00,1.42
7578.00,1.42
7577.00,1.42
7576.00,1.42
7575.00,1.42
7574.00,1.42
7573.00,1.42
7572.00,1.41
7571.00,1.41
7570.00,1.41
7569.00,1.41
7568.00,1.41
7567.00,1.40
7566.00,1.40
7565.00,1.40
7564.00,1.40
7563.00,1.39
7562.00,1.39
7561.00,1.39
7560.00,1.39
7559.00,1.38
7558.00,1.38
7557.00,1.38
7556.00,1.38
7555.00,1.37
7554.00,1.37
7553.00,1.37
7552.00,1.37
7551.00,1.37
7550.00,1.37
7549.00,1.37
7548.00,1.37
7547.00,1.37
7546.00,1.38
7545.00,1.38
7544.00,1.38
7543.00,1.38
7542.00,1.38
7541.00,1.38
7540.00,1.38
7539.00,1.38
7538.00,1.39
7537.00,1.39
7536.00,1.39
7535.00,1.39
7534.00,1.39
7533.00,1.40
7532.00,1.40
7531.00,1.40
7530.00,1.40
7529.00,1.41
7528.00,1.41
7527.00,1.41
7526.00,1.41
7525.00,1.41
7524.00,1.41
7523.00,1.41
7522.00,1.41
7521.00,1.42
7520.00,1.42
7519.00,1.42
7518.00,1.42
7517.00,1.42
7516.00,1.42
7515.00,1.42
7514.00,1.42
7513.00,1.42
7512.00,1.42
7511.00,1.42
7510.00,1.41
7509.00,1.41
7508.00,1.41
7507.00,1.41
7506.00,1.41
7505.00,1.41
7504.00,1.41
7503.00,1.41
7502.00,1.41
7501.00,1.41
7500.00,1.41
7499.00,1.40
7498.00,1.40
7497.00,1.40
7496.00,1.40
7495.00,1.40
7494.00,1.40
7493.00,1.40
7492.00,1.40
7491.00,1.40
7490.00,1.40
7489.00,1.40
7488.00,1.40
7487.00,1.40
7486.00,1.40
7485.00,1.40
7484.00,1.39
7483.00,1.39
7482.00,1.39
7481.00,1.39
7480.00,1.39
7479.00,1.39
7478.00,1.39
7477.00,1.39
7476.00,1.39
7475.00,1.39
7474.00,1.39
7473.00,1.39
7472.00,1.39
7471.00,1.38
7470.00,1.38
7469.00,1.38
7468.00,1.38
7467.00,1.38
7466.00,1.38
7465.00,1.38
7464.00,1.37
7463.00,1.37
7462.00,1.37
7461.00,1.37
7460.00,1.37
7459.00,1.36
7458.00,1.36
7457.00,1.36
7456.00,1.36
7455.00,1.36
7454.00,1.36
7453.00,1.35
7452.00,1.35
7451.00,1.35
7450.00,1.35
7449.00,1.35
7448.00,1.36
7447.00,1.36
7446.00,1.36
7445.00,1.36
7444.00,1.36
7443.00,1.36
7442.00,1.36
7441.00,1.37
7440.00,1.37
7439.00,1.37
7438.00,1.37
7437.00,1.37
7436.00,1.38
7435.00,1.38
7434.00,1.38
7433.00,1.39
7432.00,1.39
7431.00,1.39
7430.00,1.40
7429.00,1.40
7428.00,1.40
7427.00,1.40
7426.00,1.41
7425.00,1.41
7424.00,1.41
7423.00,1.41
7422.00,1.41
7421.00,1.41
7420.00,1.41
7419.00,1.41
7418.00,1.41
7417.00,1.40
7416.00,1.40
7415.00,1.40
7414.00,1.40
7413.00,1.40
7412.00,1.40
7411.00,1.40
7410.00,1.39
7409.00,1.39
7408.00,1.39
7407.00,1.39
7406.00,1.39
7405.00,1.39
7404.00,1.39
7403.00,1.39
7402.00,1.39
7401.00,1.39
7400.00,1.39
7399.00,1.39
7398.00,1.39
7397.00,1.39
7396.00,1.39
7395.00,1.38
7394.00,1.38
7393.00,1.38
7392.00,1.38
7391.00,1.38
7390.00,1.38
7389.00,1.38
7388.00,1.38
7387.00,1.38
7386.00,1.38
7385.00,1.38
7384.00,1.38
7383.00,1.37
7382.00,1.37
7381.00,1.37
7380.00,1.37
7379.00,1.37
7378.00,1.36
7377.00,1.36
7376.00,1.35
7375.00,1.35
7374.00,1.34
7373.00,1.34
7372.00,1.34
7371.00,1.33
7370.00,1.33
7369.00,1.33
7368.00,1.33
7367.00,1.32
7366.00,1.32
7365.00,1.32
7364.00,1.32
7363.00,1.32
7362.00,1.32
7361.00,1.32
7360.00,1.31
7359.00,1.31
7358.00,1.31
7357.00,1.31
7356.00,1.31
7355.00,1.31
7354.00,1.32
7353.00,1.32
7352.00,1.32
7351.00,1.32
7350.00,1.32
7349.00,1.32
7348.00,1.33
7347.00,1.33
7346.00,1.33
7345.00,1.33
7344.00,1.33
7343.00,1.33
7342.00,1.33
7341.00,1.33
7340.00,1.33
7339.00,1.33
7338.00,1.33
7337.00,1.33
7336.00,1.33
7335.00,1.33
7334.00,1.33
7333.00,1.33
7332.00,1.33
7331.00,1.33
7330.00,1.33
7329.00,1.33
7328.00,1.33
7327.00,1.32
7326.00,1.32
7325.00,1.32
7324.00,1.32
7323.00,1.32
7322.00,1.31
7321.00,1.31
7320.00,1.31
7319.00,1.31
7318.00,1.31
7317.00,1.30
7316.00,1.30
7315.00,1.30
7314.00,1.30
7313.00,1.30
7312.00,1.29
7311.00,1.29
7310.00,1.29
7309.00,1.29
7308.00,1.29
7307.00,1.28
7306.00,1.28
7305.00,1.28
7304.00,1.28
7303.00,1.28
7302.00,1.28
7301.00,1.28
7300.00,1.28
7299.00,1.28
7298.00,1.28
7297.00,1.28
7296.00,1.28
7295.00,1.28
7294.00,1.28
7293.00,1.28
7292.00,1.29
7291.00,1.29
7290.00,1.29
7289.00,1.29
7288.00,1.29
7287.00,1.29
7286.00,1.29
7285.00,1.29
7284.00,1.29
7283.00,1.29
7282.00,1.29
7281.00,1.29
7280.00,1.29
7279.00,1.29
7278.00,1.29
7277.00,1.28
7276.00,1.28
7275.00,1.28
7274.00,1.28
7273.00,1.27
7272.00,1.27
7271.00,1.27
7270.00,1.26
7269.00,1.26
7268.00,1.25
7267.00,1.25
7266.00,1.24
7265.00,1.24
7264.00,1.23
7263.00,1.23
7262.00,1.22
7261.00,1.22
7260.00,1.21
7259.00,1.21
7258.00,1.21
7257.00,1.20
7256.00,1.20
7255.00,1.20
7254.00,1.19
7253.00,1.19
7252.00,1.19
7251.00,1.19
7250.00,1.19
7249.00,1.18
7248.00,1.18
7247.00,1.18
7246.00,1.18
7245.00,1.18
7244.00,1.18
7243.00,1.18
7242.00,1.18
7241.00,1.19
7240.00,1.19
7239.00,1.19
7238.00,1.19
7237.00,1.19
7236.00,1.19
7235.00,1.20
7234.00,1.20
7233.00,1.20
7232.00,1.20
7231.00,1.20
7230.00,1.21
7229.00,1.21
7228.00,1.21
7227.00,1.21
7226.00,1.22
7225.00,1.22
7224.00,1.22
7223.00,1.22
7222.00,1.22
7221.00,1.22
7220.00,1.22
7219.00,1.22
7218.00,1.22
7217.00,1.22
7216.00,1.22
7215.00,1.22
7214.00,1.22
7213.00,1.21
7212.00,1.21
7211.00,1.21
7210.00,1.21
7209.00,1.21
7208.00,1.21
7207.00,1.20
7206.00,1.20
7205.00,1.20
7204.00,1.20
7203.00,1.19
7202.00,1.19
7201.00,1.18
7200.00,1.18
7199.00,1.17
7198.00,1.17
7197.00,1.16
7196.00,1.16
7195.00,1.15
7194.00,1.15
7193.00,1.14
7192.00,1.14
7191.00,1.13
7190.00,1.13
7189.00,1.13
7188.00,1.12
7187.00,1.12
7186.00,1.11
7185.00,1.10
7184.00,1.10
7183.00,1.09
7182.00,1.08
7181.00,1.08
7180.00,1.07
7179.00,1.06
7178.00,1.05
7177.00,1.05
7176.00,1.04
7175.00,1.03
7174.00,1.03
7173.00,1.02
7172.00,1.02
7171.00,1.01
7170.00,1.00
7169.00,1.00
7168.00,0.99
7167.00,0.99
7166.00,0.98
7165.00,0.97
7164.00,0.97
7163.00,0.96
7162.00,0.96
7161.00,0.95
7160.00,0.95
7159.00,0.95
7158.00,0.95
7157.00,0.94
7156.00,0.94
7155.00,0.94
7154.00,0.94
7153.00,0.94
7152.00,0.94
7151.00,0.94
7150.00,0.94
7149.00,0.94
7148.00,0.94
7147.00,0.94
7146.00,0.94
7145.00,0.94
7144.00,0.94
7143.00,0.95
7142.00,0.95
7141.00,0.95
7140.00,0.95
7139.00,0.95
7138.00,0.95
7137.00,0.95
7136.00,0.95
7135.00,0.95
7134.00,0.95
7133.00,0.95
7132.00,0.95
7131.00,0.95
7130.00,0.95
7129.00,0.95
7128.00,0.95
7127.00,0.94
7126.00,0.94
7125.00,0.94
7124.00,0.94
7123.00,0.93
7122.00,0.93
7121.00,0.93
7120.00,0.93
7119.00,0.92
7118.00,0.92
7117.00,0.92
7116.00,0.91
7115.00,0.91
7114.00,0.90
7113.00,0.90
7112.00,0.90
7111.00,0.89
7110.00,0.89
7109.00,0.89
7108.00,0.89
7107.00,0.88
7106.00,0.88
7105.00,0.88
7104.00,0.88
7103.00,0.88
7102.00,0.88
7101.00,0.87
7100.00,0.87
7099.00,0.87
7098.00,0.87
7097.00,0.87
7096.00,0.87
7095.00,0.87
7094.00,0.86
7093.00,0.86
7092.00,0.86
7091.00,0.86
7090.00,0.86
7089.00,0.86
7088.00,0.85
7087.00,0.85
7086.00,0.85
7085.00,0.85
7084.00,0.84
7083.00,0.84
7082.00,0.84
7081.00,0.83
7080.00,0.83
7079.00,0.83
7078.00,0.82
7077.00,0.82
7076.00,0.81
7075.00,0.81
7074.00,0.81
7073.00,0.80
7072.00,0.80
7071.00,0.79
7070.00,0.79
7069.00,0.79
7068.00,0.78
7067.00,0.78
7066.00,0.77
7065.00,0.77
7064.00,0.77
7063.00,0.77
7062.00,0.76
7061.00,0.76
7060.00,0.76
7059.00,0.76
7058.00,0.76
7057.00,0.77
7056.00,0.77
7055.00,0.77
7054.00,0.77
7053.00,0.77
7052.00,0.77
7051.00,0.78
7050.00,0.78
7049.00,0.78
7048.00,0.78
7047.00,0.78
7046.00,0.78
7045.00,0.79
7044.00,0.79
7043.00,0.79
7042.00,0.79
7041.00,0.79
7040.00,0.79
7039.00,0.79
7038.00,0.79
7037.00,0.79
7036.00,0.79
7035.00,0.79
7034.00,0.79
7033.00,0.78
7032.00,0.78
7031.00,0.78
7030.00,0.77
7029.00,0.77
7028.00,0.77
7027.00,0.76
7026.00,0.76
7025.00,0.76
7024.00,0.75
7023.00,0.75
7022.00,0.75
7021.00,0.75
7020.00,0.74
7019.00,0.74
7018.00,0.74
7017.00,0.74
7016.00,0.73
7015.00,0.73
7014.00,0.73
7013.00,0.73
7012.00,0.73
7011.00,0.73
7010.00,0.73
7009.00,0.72
7008.00,0.72
7007.00,0.72
7006.00,0.72
7005.00,0.72
7004.00,0.72
7003.00,0.72
7002.00,0.72
7001.00,0.72
7000.00,0.72
6999.00,0.72
6998.00,0.72
6997.00,0.72
6996.00,0.72
6995.00,0.72
6994.00,0.72
6993.00,0.72
6992.00,0.72
6991.00,0.72
6990.00,0.72
6989.00,0.72
6988.00,0.72
6987.00,0.72
6986.00,0.72
6985.00,0.72
6984.00,0.72
6983.00,0.72
6982.00,0.72
6981.00,0.72
6980.00,0.72
6979.00,0.72
6978.00,0.72
6977.00,0.72
6976.00,0.72
6975.00,0.72
6974.00,0.72
6973.00,0.72
6972.00,0.73
6971.00,0.73
6970.00,0.73
6969.00,0.73
6968.00,0.73
6967.00,0.73
6966.00,0.73
6965.00,0.73
6964.00,0.74
6963.00,0.74
6962.00,0.74
6961.00,0.74
6960.00,0.74
6959.00,0.74
6958.00,0.74
6957.00,0.74
6956.00,0.74
6955.00,0.74
6954.00,0.74
6953.00,0.74
6952.00,0.74
6951.00,0.74
6950.00,0.74
6949.00,0.74
6948.00,0.74
6947.00,0.74
6946.00,0.74
6945.00,0.74
6944.00,0.74
6943.00,0.74
6942.00,0.74
6941.00,0.74
6940.00,0.74
6939.00,0.74
6938.00,0.74
6937.00,0.74
6936.00,0.74
6935.00,0.74
6934.00,0.74
6933.00,0.74
6932.00,0.74
6931.00,0.74
6930.00,0.74
6929.00,0.74
6928.00,0.74
6927.00,0.75
6926.00,0.75
6925.00,0.75
6924.00,0.75
6923.00,0.75
6922.00,0.75
6921.00,0.75
6920.00,0.75
6919.00,0.75
6918.00,0.75
6917.00,0.75
6916.00,0.75
6915.00,0.75
6914.00,0.75
6913.00,0.75
6912.00,0.75
6911.00,0.75
6910.00,0.75
6909.00,0.75
6908.00,0.74
6907.00,0.74
6906.00,0.74
6905.00,0.74
6904.00,0.74
6903.00,0.74
6902.00,0.74
6901.00,0.74
6900.00,0.74
6899.00,0.74
6898.00,0.74
6897.00,0.74
6896.00,0.74
6895.00,0.74
6894.00,0.74
6893.00,0.74
6892.00,0.74
6891.00,0.73
6890.00,0.73
6889.00,0.73
6888.00,0.73
6887.00,0.73
6886.00,0.73
6885.00,0.72
6884.00,0.72
6883.00,0.72
6882.00,0.72
6881.00,0.72
6880.00,0.72
6879.00,0.72
6878.00,0.71
6877.00,0.71
6876.00,0.71
6875.00,0.71
6874.00,0.71
6873.00,0.71
6872.00,0.71
6871.00,0.71
6870.00,0.71
6869.00,0.70
6868.00,0.70
6867.00,0.70
6866.00,0.70
6865.00,0.70
6864.00,0.70
6863.00,0.70
6862.00,0.70
6861.00,0.71
6860.00,0.71
6859.00,0.71
6858.00,0.71
6857.00,0.71
6856.00,0.71
6855.00,0.72
6854.00,0.72
6853.00,0.72
6852.00,0.72
6851.00,0.72
6850.00,0.72
6849.00,0.73
6848.00,0.73
6847.00,0.73
6846.00,0.73
6845.00,0.74
6844.00,0.74
6843.00,0.74
6842.00,0.74
6841.00,0.75
6840.00,0.75
6839.00,0.75
6838.00,0.75
6837.00,0.76
6836.00,0.76
6835.00,0.76
6834.00,0.76
6833.00,0.76
6832.00,0.76
6831.00,0.76
6830.00,0.76
6829.00,0.76
6828.00,0.76
6827.00,0.76
6826.00,0.76
6825.00,0.76
6824.00,0.77
6823.00,0.77
6822.00,0.76
6821.00,0.76
6820.00,0.76
6819.00,0.76
6818.00,0.76
6817.00,0.76
6816.00,0.76
6815.00,0.76
6814.00,0.76
6813.00,0.75
6812.00,0.75
6811.00,0.75
6810.00,0.75
6809.00,0.75
6808.00,0.75
6807.00,0.75
6806.00,0.75
6805.00,0.75
6804.00,0.75
6803.00,0.75
6802.00,0.75
6801.00,0.75
6800.00,0.75
6799.00,0.75
6798.00,0.75
6797.00,0.75
6796.00,0.75
6795.00,0.75
6794.00,0.75
6793.00,0.75
6792.00,0.75
6791.00,0.76
6790.00,0.76
6789.00,0.76
6788.00,0.76
6787.00,0.76
6786.00,0.76
6785.00,0.77
6784.00,0.77
6783.00,0.77
6782.00,0.77
6781.00,0.78
6780.00,0.78
6779.00,0.78
6778.00,0.78
6777.00,0.79
6776.00,0.79
6775.00,0.79
6774.00,0.79
6773.00,0.79
6772.00,0.79
6771.00,0.79
6770.00,0.79
6769.00,0.80
6768.00,0.80
6767.00,0.80
6766.00,0.80
6765.00,0.80
6764.00,0.80
6763.00,0.80
6762.00,0.80
6761.00,0.80
6760.00,0.79
6759.00,0.79
6758.00,0.79
6757.00,0.79
6756.00,0.79
6755.00,0.79
6754.00,0.79
6753.00,0.79
6752.00,0.79
6751.00,0.79
6750.00,0.79
6749.00,0.79
6748.00,0.78
6747.00,0.78
6746.00,0.78
6745.00,0.78
6744.00,0.78
6743.00,0.78
6742.00,0.78
6741.00,0.78
6740.00,0.78
6739.00,0.79
6738.00,0.79
6737.00,0.79
6736.00,0.79
6735.00,0.79
6734.00,0.79
6733.00,0.79
6732.00,0.79
6731.00,0.79
6730.00,0.79
6729.00,0.79
6728.00,0.80
6727.00,0.80
6726.00,0.80
6725.00,0.80
6724.00,0.80
6723.00,0.80
6722.00,0.80
6721.00,0.81
6720.00,0.81
6719.00,0.81
6718.00,0.81
6717.00,0.81
6716.00,0.82
6715.00,0.82
6714.00,0.82
6713.00,0.82
6712.00,0.82
6711.00,0.83
6710.00,0.83
6709.00,0.83
6708.00,0.83
6707.00,0.84
6706.00,0.84
6705.00,0.84
6704.00,0.85
6703.00,0.85
6702.00,0.85
6701.00,0.85
6700.00,0.86
6699.00,0.86
6698.00,0.86
6697.00,0.86
6696.00,0.87
6695.00,0.87
6694.00,0.87
6693.00,0.87
6692.00,0.87
6691.00,0.88
6690.00,0.88
6689.00,0.88
6688.00,0.88
6687.00,0.88
6686.00,0.88
6685.00,0.88
6684.00,0.88
6683.00,0.88
6682.00,0.88
6681.00,0.88
6680.00,0.88
6679.00,0.88
6678.00,0.88
6677.00,0.88
6676.00,0.89
6675.00,0.89
6674.00,0.89
6673.00,0.89
6672.00,0.89
6671.00,0.89
6670.00,0.89
6669.00,0.89
6668.00,0.89
6667.00,0.89
6666.00,0.89
6665.00,0.89
6664.00,0.89
6663.00,0.89
6662.00,0.89
6661.00,0.89
6660.00,0.89
6659.00,0.90
6658.00,0.90
6657.00,0.90
6656.00,0.90
6655.00,0.90
6654.00,0.90
6653.00,0.90
6652.00,0.90
6651.00,0.90
6650.00,0.90
6649.00,0.90
6648.00,0.90
6647.00,0.90
6646.00,0.90
6645.00,0.90
6644.00,0.90
6643.00,0.90
6642.00,0.90
6641.00,0.90
6640.00,0.90
6639.00,0.90
6638.00,0.90
6637.00,0.90
6636.00,0.90
6635.00,0.90
6634.00,0.90
6633.00,0.90
6632.00,0.90
6631.00,0.90
6630.00,0.90
6629.00,0.89
6628.00,0.89
6627.00,0.89
6626.00,0.89
6625.00,0.89
6624.00,0.88
6623.00,0.88
6622.00,0.88
6621.00,0.88
6620.00,0.88
6619.00,0.87
6618.00,0.87
6617.00,0.87
6616.00,0.87
6615.00,0.87
6614.00,0.87
6613.00,0.87
6612.00,0.87
6611.00,0.87
6610.00,0.87
6609.00,0.87
6608.00,0.87
6607.00,0.87
6606.00,0.87
6605.00,0.87
6604.00,0.88
6603.00,0.88
6602.00,0.88
6601.00,0.89
6600.00,0.89
6599.00,0.89
6598.00,0.90
6597.00,0.90
6596.00,0.91
6595.00,0.91
6594.00,0.91
6593.00,0.92
6592.00,0.92
6591.00,0.93
6590.00,0.93
6589.00,0.94
6588.00,0.94
6587.00,0.94
6586.00,0.95
6585.00,0.95
6584.00,0.95
6583.00,0.95
6582.00,0.96
6581.00,0.96
6580.00,0.96
6579.00,0.96
6578.00,0.96
6577.00,0.96
6576.00,0.97
6575.00,0.97
6574.00,0.97
6573.00,0.97
6572.00,0.97
6571.00,0.97
6570.00,0.97
6569.00,0.97
6568.00,0.97
6567.00,0.97
6566.00,0.97
6565.00,0.97
6564.00,0.97
6563.00,0.97
6562.00,0.96
6561.00,0.96
6560.00,0.96
6559.00,0.96
6558.00,0.96
6557.00,0.96
6556.00,0.96
6555.00,0.96
6554.00,0.96
6553.00,0.96
6552.00,0.96
6551.00,0.96
6550.00,0.96
6549.00,0.96
6548.00,0.96
6547.00,0.96
6546.00,0.96
6545.00,0.96
6544.00,0.96
6543.00,0.96
6542.00,0.96
6541.00,0.96
6540.00,0.96
6539.00,0.96
6538.00,0.96
6537.00,0.97
6536.00,0.97
6535.00,0.97
6534.00,0.97
6533.00,0.97
6532.00,0.97
6531.00,0.98
6530.00,0.98
6529.00,0.98
6528.00,0.98
6527.00,0.98
6526.00,0.98
6525.00,0.98
6524.00,0.99
6523.00,0.99
6522.00,0.99
6521.00,0.99
6520.00,0.99
6519.00,1.00
6518.00,1.00
6517.00,1.00
6516.00,1.00
6515.00,1.00
6514.00,1.00
6513.00,1.00
6512.00,1.00
6511.00,1.00
6510.00,1.00
6509.00,1.00
6508.00,1.00
6507.00,1.00
6506.00,1.00
6505.00,1.00
6504.00,1.00
6503.00,1.00
6502.00,1.00
6501.00,1.01
6500.00,1.01
6499.00,1.01
6498.00,1.01
6497.00,1.01
6496.00,1.01
6495.00,1.01
6494.00,1.01
6493.00,1.01
6492.00,1.01
6491.00,1.01
6490.00,1.02
6489.00,1.02
6488.00,1.02
6487.00,1.02
6486.00,1.02
6485.00,1.03
6484.00,1.03
6483.00,1.03
6482.00,1.04
6481.00,1.04
6480.00,1.04
6479.00,1.05
6478.00,1.05
6477.00,1.05
6476.00,1.06
6475.00,1.06
6474.00,1.06
6473.00,1.07
6472.00,1.07
6471.00,1.07
6470.00,1.07
6469.00,1.08
6468.00,1.08
6467.00,1.08
6466.00,1.09
6465.00,1.09
6464.00,1.09
6463.00,1.09
6462.00,1.10
6461.00,1.10
6460.00,1.10
6459.00,1.10
6458.00,1.11
6457.00,1.11
6456.00,1.11
6455.00,1.11
6454.00,1.11
6453.00,1.11
6452.00,1.11
6451.00,1.11
6450.00,1.11
6449.00,1.11
6448.00,1.11
6447.00,1.11
6446.00,1.11
6445.00,1.11
6444.00,1.11
6443.00,1.11
6442.00,1.11
6441.00,1.11
6440.00,1.11
6439.00,1.11
6438.00,1.11
6437.00,1.11
6436.00,1.11
6435.00,1.11
6434.00,1.11
6433.00,1.11
6432.00,1.11
6431.00,1.11
6430.00,1.10
6429.00,1.10
6428.00,1.10
6427.00,1.10
6426.00,1.10
6425.00,1.10
6424.00,1.10
6423.00,1.10
6422.00,1.10
6421.00,1.10
6420.00,1.10
6419.00,1.10
6418.00,1.10
6417.00,1.10
6416.00,1.09
6415.00,1.09
6414.00,1.09
6413.00,1.09
6412.00,1.09
6411.00,1.09
6410.00,1.09
6409.00,1.09
6408.00,1.09
6407.00,1.09
6406.00,1.09
6405.00,1.09
6404.00,1.09
6403.00,1.09
6402.00,1.09
6401.00,1.09
6400.00,1.09
6399.00,1.10
6398.00,1.10
6397.00,1.10
6396.00,1.10
6395.00,1.10
6394.00,1.10
6393.00,1.11
6392.00,1.11
6391.00,1.11
6390.00,1.12
6389.00,1.12
6388.00,1.12
6387.00,1.13
6386.00,1.13
6385.00,1.13
6384.00,1.13
6383.00,1.14
6382.00,1.14
6381.00,1.14
6380.00,1.14
6379.00,1.15
6378.00,1.15
6377.00,1.15
6376.00,1.16
6375.00,1.16
6374.00,1.16
6373.00,1.16
6372.00,1.17
6371.00,1.17
6370.00,1.17
6369.00,1.17
6368.00,1.17
6367.00,1.17
6366.00,1.17
6365.00,1.17
6364.00,1.17
6363.00,1.17
6362.00,1.17
6361.00,1.17
6360.00,1.17
6359.00,1.17
6358.00,1.17
6357.00,1.17
6356.00,1.17
6355.00,1.18
6354.00,1.18
6353.00,1.18
6352.00,1.18
6351.00,1.18
6350.00,1.18
6349.00,1.18
6348.00,1.17
6347.00,1.17
6346.00,1.17
6345.00,1.17
6344.00,1.17
6343.00,1.18
6342.00,1.18
6341.00,1.18
6340.00,1.18
6339.00,1.18
6338.00,1.18
6337.00,1.18
6336.00,1.18
6335.00,1.18
6334.00,1.18
6333.00,1.18
6332.00,1.18
6331.00,1.18
6330.00,1.18
6329.00,1.18
6328.00,1.19
6327.00,1.19
6326.00,1.19
6325.00,1.19
6324.00,1.19
6323.00,1.19
6322.00,1.19
6321.00,1.19
6320.00,1.20
6319.00,1.20
6318.00,1.20
6317.00,1.20
6316.00,1.20
6315.00,1.21
6314.00,1.21
6313.00,1.21
6312.00,1.21
6311.00,1.21
6310.00,1.21
6309.00,1.22
6308.00,1.22
6307.00,1.22
6306.00,1.22
6305.00,1.22
6304.00,1.22
6303.00,1.22
6302.00,1.22
6301.00,1.23
6300.00,1.23
6299.00,1.23
6298.00,1.23
6297.00,1.23
6296.00,1.23
6295.00,1.23
6294.00,1.23
6293.00,1.23
6292.00,1.23
6291.00,1.23
6290.00,1.23
6289.00,1.23
6288.00,1.23
6287.00,1.23
6286.00,1.23
6285.00,1.23
6284.00,1.23
6283.00,1.23
6282.00,1.23
6281.00,1.23
6280.00,1.23
6279.00,1.23
6278.00,1.23
6277.00,1.23
6276.00,1.24
6275.00,1.24
6274.00,1.24
6273.00,1.24
6272.00,1.24
6271.00,1.24
6270.00,1.24
6269.00,1.24
6268.00,1.25
6267.00,1.25
6266.00,1.25
6265.00,1.25
6264.00,1.25
6263.00,1.25
6262.00,1.25
6261.00,1.25
6260.00,1.26
6259.00,1.26
6258.00,1.26
6257.00,1.26
6256.00,1.26
6255.00,1.26
6254.00,1.27
6253.00,1.27
6252.00,1.27
6251.00,1.27
6250.00,1.27
6249.00,1.27
6248.00,1.28
6247.00,1.28
6246.00,1.28
6245.00,1.28
6244.00,1.28
6243.00,1.28
6242.00,1.28
6241.00,1.29
6240.00,1.29
6239.00,1.29
6238.00,1.29
6237.00,1.29
6236.00,1.30
6235.00,1.30
6234.00,1.30
6233.00,1.30
6232.00,1.31
6231.00,1.31
6230.00,1.31
6229.00,1.31
6228.00,1.31
6227.00,1.32
6226.00,1.32
6225.00,1.32
6224.00,1.32
6223.00,1.32
6222.00,1.32
6221.00,1.32
6220.00,1.32
6219.00,1.32
6218.00,1.33
6217.00,1.33
6216.00,1.33
6215.00,1.33
6214.00,1.33
6213.00,1.33
6212.00,1.33
6211.00,1.33
6210.00,1.33
6209.00,1.33
6208.00,1.33
6207.00,1.33
6206.00,1.33
6205.00,1.33
6204.00,1.32
6203.00,1.32
6202.00,1.32
6201.00,1.32
6200.00,1.32
6199.00,1.32
6198.00,1.32
6197.00,1.32
6196.00,1.32
6195.00,1.32
6194.00,1.31
6193.00,1.31
6192.00,1.31
6191.00,1.31
6190.00,1.31
6189.00,1.31
6188.00,1.31
6187.00,1.31
6186.00,1.31
6185.00,1.31
6184.00,1.31
6183.00,1.31
6182.00,1.32
6181.00,1.32
6180.00,1.32
6179.00,1.32
6178.00,1.32
6177.00,1.32
6176.00,1.32
6175.00,1.32
6174.00,1.32
6173.00,1.32
6172.00,1.33
6171.00,1.33
6170.00,1.33
6169.00,1.33
6168.00,1.33
6167.00,1.33
6166.00,1.33
6165.00,1.33
6164.00,1.34
6163.00,1.34
6162.00,1.34
6161.00,1.34
6160.00,1.34
6159.00,1.34
6158.00,1.34
6157.00,1.34
6156.00,1.34
6155.00,1.34
6154.00,1.34
6153.00,1.35
6152.00,1.35
6151.00,1.35
6150.00,1.35
6149.00,1.35
6148.00,1.35
6147.00,1.35
6146.00,1.35
6145.00,1.36
6144.00,1.36
6143.00,1.36
6142.00,1.36
6141.00,1.36
6140.00,1.36
6139.00,1.37
6138.00,1.37
6137.00,1.37
6136.00,1.37
6135.00,1.37
6134.00,1.38
6133.00,1.38
6132.00,1.38
6131.00,1.38
6130.00,1.38
6129.00,1.39
6128.00,1.39
6127.00,1.39
6126.00,1.40
6125.00,1.40
6124.00,1.40
6123.00,1.41
6122.00,1.41
6121.00,1.41
6120.00,1.42
6119.00,1.42
6118.00,1.42
6117.00,1.43
6116.00,1.43
6115.00,1.43
6114.00,1.43
6113.00,1.44
6112.00,1.44
6111.00,1.44
6110.00,1.44
6109.00,1.44
6108.00,1.45
6107.00,1.45
6106.00,1.45
6105.00,1.45
6104.00,1.45
6103.00,1.45
6102.00,1.45
6101.00,1.45
6100.00,1.45
6099.00,1.45
6098.00,1.45
6097.00,1.45
6096.00,1.45
6095.00,1.44
6094.00,1.44
6093.00,1.44
6092.00,1.44
6091.00,1.44
6090.00,1.44
6089.00,1.43
6088.00,1.43
6087.00,1.43
6086.00,1.43
6085.00,1.43
6084.00,1.43
6083.00,1.43
6082.00,1.43
6081.00,1.43
6080.00,1.43
6079.00,1.43
6078.00,1.43
6077.00,1.43
6076.00,1.43
6075.00,1.43
6074.00,1.43
6073.00,1.43
6072.00,1.43
6071.00,1.43
6070.00,1.43
6069.00,1.44
6068.00,1.44
6067.00,1.44
6066.00,1.44
6065.00,1.44
6064.00,1.44
6063.00,1.44
6062.00,1.44
6061.00,1.45
6060.00,1.45
6059.00,1.45
6058.00,1.45
6057.00,1.45
6056.00,1.45
6055.00,1.45
6054.00,1.45
6053.00,1.46
6052.00,1.46
6051.00,1.46
6050.00,1.46
6049.00,1.46
6048.00,1.46
6047.00,1.46
6046.00,1.46
6045.00,1.46
6044.00,1.46
6043.00,1.46
6042.00,1.47
6041.00,1.47
6040.00,1.47
6039.00,1.47
6038.00,1.47
6037.00,1.47
6036.00,1.47
6035.00,1.48
6034.00,1.48
6033.00,1.48
6032.00,1.48
6031.00,1.48
6030.00,1.48
6029.00,1.48
6028.00,1.48
6027.00,1.48
6026.00,1.48
6025.00,1.49
6024.00,1.49
6023.00,1.49
6022.00,1.49
6021.00,1.49
6020.00,1.49
6019.00,1.49
6018.00,1.49
6017.00,1.49
6016.00,1.49
6015.00,1.49
6014.00,1.49
6013.00,1.49
6012.00,1.49
6011.00,1.49
6010.00,1.49
6009.00,1.49
6008.00,1.49
6007.00,1.49
6006.00,1.49
6005.00,1.49
6004.00,1.49
6003.00,1.48
6002.00,1.48
6001.00,1.48
6000.00,1.48
5999.00,1.48
5998.00,1.47
5997.00,1.47
5996.00,1.47
5995.00,1.47
5994.00,1.46
5993.00,1.46
5992.00,1.46
5991.00,1.46
5990.00,1.46
5989.00,1.45
5988.00,1.45
5987.00,1.45
5986.00,1.45
5985.00,1.45
5984.00,1.45
5983.00,1.44
5982.00,1.44
5981.00,1.44
5980.00,1.44
5979.00,1.44
5978.00,1.44
5977.00,1.44
5976.00,1.44
5975.00,1.43
5974.00,1.43
5973.00,1.43
5972.00,1.43
5971.00,1.43
5970.00,1.43
5969.00,1.43
5968.00,1.43
5967.00,1.43
5966.00,1.42
5965.00,1.42
5964.00,1.42
5963.00,1.42
5962.00,1.41
5961.00,1.41
5960.00,1.41
5959.00,1.41
5958.00,1.41
5957.00,1.40
5956.00,1.40
5955.00,1.40
5954.00,1.40
5953.00,1.39
5952.00,1.39
5951.00,1.39
5950.00,1.39
5949.00,1.39
5948.00,1.39
5947.00,1.38
5946.00,1.38
5945.00,1.38
5944.00,1.38
5943.00,1.38
5942.00,1.38
5941.00,1.38
5940.00,1.38
5939.00,1.38
5938.00,1.38
5937.00,1.37
5936.00,1.37
5935.00,1.37
5934.00,1.37
5933.00,1.37
5932.00,1.37
5931.00,1.37
5930.00,1.37
5929.00,1.37
5928.00,1.37
5927.00,1.37
5926.00,1.37
5925.00,1.37
5924.00,1.37
5923.00,1.37
5922.00,1.37
5921.00,1.37
5920.00,1.37
5919.00,1.37
5918.00,1.37
5917.00,1.36
5916.00,1.36
5915.00,1.36
5914.00,1.37
5913.00,1.37
5912.00,1.37
5911.00,1.37
5910.00,1.37
5909.00,1.37
5908.00,1.37
5907.00,1.37
5906.00,1.38
5905.00,1.38
5904.00,1.38
5903.00,1.38
5902.00,1.38
5901.00,1.39
5900.00,1.39
5899.00,1.39
5898.00,1.39
5897.00,1.39
5896.00,1.40
5895.00,1.40
5894.00,1.40
5893.00,1.40
5892.00,1.40
5891.00,1.41
5890.00,1.41
5889.00,1.41
5888.00,1.41
5887.00,1.42
5886.00,1.42
5885.00,1.42
5884.00,1.42
5883.00,1.42
5882.00,1.43
5881.00,1.43
5880.00,1.43
5879.00,1.43
5878.00,1.43
5877.00,1.43
5876.00,1.43
5875.00,1.43
5874.00,1.43
5873.00,1.43
5872.00,1.43
5871.00,1.43
5870.00,1.43
5869.00,1.43
5868.00,1.43
5867.00,1.43
5866.00,1.43
5865.00,1.43
5864.00,1.43
5863.00,1.43
5862.00,1.43
5861.00,1.42
5860.00,1.42
5859.00,1.42
5858.00,1.42
5857.00,1.42
5856.00,1.42
5855.00,1.42
5854.00,1.42
5853.00,1.42
5852.00,1.42
5851.00,1.42
5850.00,1.42
5849.00,1.42
5848.00,1.42
5847.00,1.42
5846.00,1.42
5845.00,1.42
5844.00,1.42
5843.00,1.42
5842.00,1.42
5841.00,1.42
5840.00,1.42
5839.00,1.42
5838.00,1.42
5837.00,1.41
5836.00,1.41
5835.00,1.41
5834.00,1.41
5833.00,1.41
5832.00,1.41
5831.00,1.41
5830.00,1.41
5829.00,1.41
5828.00,1.41
5827.00,1.41
5826.00,1.41
5825.00,1.41
5824.00,1.41
5823.00,1.41
5822.00,1.41
5821.00,1.40
5820.00,1.40
5819.00,1.40
5818.00,1.40
5817.00,1.40
5816.00,1.40
5815.00,1.40
5814.00,1.40
5813.00,1.40
5812.00,1.40
5811.00,1.40
5810.00,1.40
5809.00,1.40
5808.00,1.40
5807.00,1.40
5806.00,1.40
5805.00,1.40
5804.00,1.40
5803.00,1.40
5802.00,1.40
5801.00,1.40
5800.00,1.40
5799.00,1.40
5798.00,1.40
5797.00,1.40
5796.00,1.39
5795.00,1.39
5794.00,1.39
5793.00,1.39
5792.00,1.39
5791.00,1.39
5790.00,1.39
5789.00,1.39
5788.00,1.38
5787.00,1.38
5786.00,1.38
5785.00,1.38
5784.00,1.38
5783.00,1.38
5782.00,1.38
5781.00,1.38
5780.00,1.38
5779.00,1.38
5778.00,1.38
5777.00,1.38
5776.00,1.38
5775.00,1.38
5774.00,1.38
5773.00,1.38
5772.00,1.38
5771.00,1.38
5770.00,1.38
5769.00,1.38
5768.00,1.38
5767.00,1.39
5766.00,1.39
5765.00,1.39
5764.00,1.39
5763.00,1.39
5762.00,1.40
5761.00,1.40
5760.00,1.40
5759.00,1.40
5758.00,1.40
5757.00,1.41
5756.00,1.41
5755.00,1.41
5754.00,1.41
5753.00,1.41
5752.00,1.41
5751.00,1.42
5750.00,1.42
5749.00,1.42
5748.00,1.42
5747.00,1.42
5746.00,1.42
5745.00,1.42
5744.00,1.42
5743.00,1.42
5742.00,1.42
5741.00,1.42
5740.00,1.42
5739.00,1.42
5738.00,1.42
5737.00,1.43
5736.00,1.43
5735.00,1.43
5734.00,1.43
5733.00,1.43
5732.00,1.43
5731.00,1.43
5730.00,1.43
5729.00,1.43
5728.00,1.43
5727.00,1.43
5726.00,1.43
5725.00,1.44
5724.00,1.44
5723.00,1.44
5722.00,1.44
5721.00,1.44
5720.00,1.44
5719.00,1.44
5718.00,1.44
5717.00,1.44
5716.00,1.44
5715.00,1.44
5714.00,1.44
5713.00,1.43
5712.00,1.43
5711.00,1.43
5710.00,1.43
5709.00,1.43
5708.00,1.43
5707.00,1.42
5706.00,1.42
5705.00,1.42
5704.00,1.42
5703.00,1.41
5702.00,1.41
5701.00,1.41
5700.00,1.41
5699.00,1.40
5698.00,1.40
5697.00,1.40
5696.00,1.40
5695.00,1.40
5694.00,1.39
5693.00,1.39
5692.00,1.39
5691.00,1.39
5690.00,1.39
5689.00,1.39
5688.00,1.39
5687.00,1.39
5686.00,1.39
5685.00,1.39
5684.00,1.39
5683.00,1.39
5682.00,1.39
5681.00,1.39
5680.00,1.39
5679.00,1.39
5678.00,1.39
5677.00,1.39
5676.00,1.39
5675.00,1.39
5674.00,1.39
5673.00,1.39
5672.00,1.39
5671.00,1.39
5670.00,1.39
5669.00,1.39
5668.00,1.39
5667.00,1.39
5666.00,1.39
5665.00,1.39
5664.00,1.39
5663.00,1.39
5662.00,1.39
5661.00,1.39
5660.00,1.39
5659.00,1.38
5658.00,1.38
5657.00,1.38
5656.00,1.38
5655.00,1.38
5654.00,1.38
5653.00,1.38
5652.00,1.38
5651.00,1.38
5650.00,1.38
5649.00,1.38
5648.00,1.38
5647.00,1.38
5646.00,1.38
5645.00,1.38
5644.00,1.38
5643.00,1.37
5642.00,1.37
5641.00,1.38
5640.00,1.38
5639.00,1.38
5638.00,1.38
5637.00,1.38
5636.00,1.38
5635.00,1.38
5634.00,1.38
5633.00,1.38
5632.00,1.39
5631.00,1.39
5630.00,1.39
5629.00,1.39
5628.00,1.39
5627.00,1.40
5626.00,1.40
5625.00,1.40
5624.00,1.40
5623.00,1.40
5622.00,1.40
5621.00,1.40
5620.00,1.41
5619.00,1.41
5618.00,1.41
5617.00,1.41
5616.00,1.41
5615.00,1.41
5614.00,1.41
5613.00,1.41
5612.00,1.41
5611.00,1.41
5610.00,1.42
5609.00,1.42
5608.00,1.42
5607.00,1.42
5606.00,1.42
5605.00,1.42
5604.00,1.42
5603.00,1.42
5602.00,1.42
5601.00,1.42
5600.00,1.42
5599.00,1.42
5598.00,1.42
5597.00,1.42
5596.00,1.42
5595.00,1.42
5594.00,1.42
5593.00,1.42
5592.00,1.42
5591.00,1.42
5590.00,1.42
5589.00,1.42
5588.00,1.42
5587.00,1.42
5586.00,1.42
5585.00,1.42
5584.00,1.42
5583.00,1.42
5582.00,1.42
5581.00,1.42
5580.00,1.42
5579.00,1.42
5578.00,1.42
5577.00,1.42
5576.00,1.42
5575.00,1.42
5574.00,1.42
5573.00,1.42
5572.00,1.43
5571.00,1.43
5570.00,1.43
5569.00,1.43
5568.00,1.43
5567.00,1.43
5566.00,1.43
5565.00,1.43
5564.00,1.43
5563.00,1.43
5562.00,1.43
5561.00,1.43
5560.00,1.43
5559.00,1.43
5558.00,1.43
5557.00,1.43
5556.00,1.43
5555.00,1.43
5554.00,1.44
5553.00,1.44
5552.00,1.44
5551.00,1.44
5550.00,1.44
5549.00,1.44
5548.00,1.44
5547.00,1.44
5546.00,1.44
5545.00,1.44
5544.00,1.44
5543.00,1.44
5542.00,1.44
5541.00,1.44
5540.00,1.44
5539.00,1.44
5538.00,1.44
5537.00,1.44
5536.00,1.44
5535.00,1.44
5534.00,1.44
5533.00,1.44
5532.00,1.44
5531.00,1.44
5530.00,1.44
5529.00,1.44
5528.00,1.45
5527.00,1.45
5526.00,1.45
5525.00,1.45
5524.00,1.45
5523.00,1.45
5522.00,1.46
5521.00,1.46
5520.00,1.46
5519.00,1.46
5518.00,1.46
5517.00,1.46
5516.00,1.47
5515.00,1.47
5514.00,1.47
5513.00,1.47
5512.00,1.47
5511.00,1.47
5510.00,1.47
5509.00,1.47
5508.00,1.47
5507.00,1.47
5506.00,1.47
5505.00,1.47
5504.00,1.47
5503.00,1.47
5502.00,1.47
5501.00,1.47
5500.00,1.47
5499.00,1.48
5498.00,1.48
5497.00,1.48
5496.00,1.48
5495.00,1.48
5494.00,1.48
5493.00,1.48
5492.00,1.48
5491.00,1.48
5490.00,1.48
5489.00,1.48
5488.00,1.48
5487.00,1.48
5486.00,1.48
5485.00,1.48
5484.00,1.48
5483.00,1.48
5482.00,1.48
5481.00,1.48
5480.00,1.49
5479.00,1.49
5478.00,1.49
5477.00,1.49
5476.00,1.49
5475.00,1.49
5474.00,1.49
5473.00,1.49
5472.00,1.49
5471.00,1.50
5470.00,1.50
5469.00,1.49
5468.00,1.49
5467.00,1.49
5466.00,1.49
5465.00,1.49
5464.00,1.49
5463.00,1.49
5462.00,1.49
5461.00,1.49
5460.00,1.48
5459.00,1.48
5458.00,1.48
5457.00,1.48
5456.00,1.47
5455.00,1.47
5454.00,1.47
5453.00,1.46
5452.00,1.46
5451.00,1.46
5450.00,1.45
5449.00,1.45
5448.00,1.44
5447.00,1.44
5446.00,1.44
5445.00,1.43
5444.00,1.43
5443.00,1.43
5442.00,1.43
5441.00,1.43
5440.00,1.43
5439.00,1.43
5438.00,1.43
5437.00,1.42
5436.00,1.42
5435.00,1.42
5434.00,1.42
5433.00,1.42
5432.00,1.42
5431.00,1.42
5430.00,1.42
5429.00,1.42
5428.00,1.42
5427.00,1.42
5426.00,1.42
5425.00,1.43
5424.00,1.43
5423.00,1.43
5422.00,1.43
5421.00,1.43
5420.00,1.43
5419.00,1.43
5418.00,1.43
5417.00,1.43
5416.00,1.43
5415.00,1.43
5414.00,1.43
5413.00,1.43
5412.00,1.43
5411.00,1.43
5410.00,1.43
5409.00,1.43
5408.00,1.43
5407.00,1.43
5406.00,1.43
5405.00,1.43
5404.00,1.43
5403.00,1.43
5402.00,1.42
5401.00,1.42
5400.00,1.42
5399.00,1.42
5398.00,1.42
5397.00,1.41
5396.00,1.41
5395.00,1.41
5394.00,1.41
5393.00,1.40
5392.00,1.40
5391.00,1.40
5390.00,1.40
5389.00,1.39
5388.00,1.39
5387.00,1.39
5386.00,1.39
5385.00,1.38
5384.00,1.38
5383.00,1.38
5382.00,1.37
5381.00,1.37
5380.00,1.37
5379.00,1.36
5378.00,1.36
5377.00,1.35
5376.00,1.35
5375.00,1.35
5374.00,1.34
5373.00,1.34
5372.00,1.33
5371.00,1.33
5370.00,1.32
5369.00,1.32
5368.00,1.31
5367.00,1.31
5366.00,1.30
5365.00,1.30
5364.00,1.29
5363.00,1.28
5362.00,1.28
5361.00,1.27
5360.00,1.26
5359.00,1.26
5358.00,1.25
5357.00,1.24
5356.00,1.24
5355.00,1.23
5354.00,1.22
5353.00,1.22
5352.00,1.21
5351.00,1.20
5350.00,1.20
5349.00,1.19
5348.00,1.18
5347.00,1.18
5346.00,1.17
5345.00,1.16
5344.00,1.16
5343.00,1.15
5342.00,1.14
5341.00,1.14
5340.00,1.13
5339.00,1.12
5338.00,1.12
5337.00,1.11
5336.00,1.11
5335.00,1.10
5334.00,1.09
5333.00,1.09
5332.00,1.08
5331.00,1.07
5330.00,1.07
5329.00,1.06
5328.00,1.06
5327.00,1.05
5326.00,1.04
5325.00,1.04
5324.00,1.03
5323.00,1.02
5322.00,1.02
5321.00,1.01
5320.00,1.01
5319.00,1.00
5318.00,0.99
5317.00,0.99
5316.00,0.98
5315.00,0.97
5314.00,0.96
5313.00,0.96
5312.00,0.95
5311.00,0.94
5310.00,0.94
5309.00,0.93
5308.00,0.92
5307.00,0.92
5306.00,0.91
5305.00,0.91
5304.00,0.90
5303.00,0.90
5302.00,0.89
5301.00,0.89
5300.00,0.88
5299.00,0.88
5298.00,0.88
5297.00,0.87
5296.00,0.87
5295.00,0.86
5294.00,0.86
5293.00,0.86
5292.00,0.86
5291.00,0.85
5290.00,0.85
5289.00,0.85
5288.00,0.85
5287.00,0.85
5286.00,0.85
5285.00,0.85
5284.00,0.84
5283.00,0.84
5282.00,0.84
5281.00,0.84
5280.00,0.84
5279.00,0.84
5278.00,0.84
5277.00,0.84
5276.00,0.84
5275.00,0.84
5274.00,0.84
5273.00,0.83
5272.00,0.83
5271.00,0.83
5270.00,0.83
5269.00,0.83
5268.00,0.83
5267.00,0.83
5266.00,0.82
5265.00,0.82
5264.00,0.82
5263.00,0.82
5262.00,0.82
5261.00,0.81
5260.00,0.81
5259.00,0.81
5258.00,0.81
5257.00,0.81
5256.00,0.81
5255.00,0.81
5254.00,0.81
5253.00,0.81
5252.00,0.80
5251.00,0.80
5250.00,0.80
5249.00,0.80
5248.00,0.80
5247.00,0.80
5246.00,0.80
5245.00,0.80
5244.00,0.80
5243.00,0.80
5242.00,0.80
5241.00,0.81
5240.00,0.81
5239.00,0.81
5238.00,0.81
5237.00,0.81
5236.00,0.81
5235.00,0.81
5234.00,0.81
5233.00,0.81
5232.00,0.81
5231.00,0.81
5230.00,0.81
5229.00,0.81
5228.00,0.81
5227.00,0.81
5226.00,0.81
5225.00,0.81
5224.00,0.81
5223.00,0.81
5222.00,0.81
5221.00,0.81
5220.00,0.81
5219.00,0.81
5218.00,0.80
5217.00,0.80
5216.00,0.80
5215.00,0.80
5214.00,0.80
5213.00,0.80
5212.00,0.80
5211.00,0.80
5210.00,0.80
5209.00,0.80
5208.00,0.80
5207.00,0.80
5206.00,0.80
5205.00,0.80
5204.00,0.81
5203.00,0.81
5202.00,0.81
5201.00,0.81
5200.00,0.81
5199.00,0.81
5198.00,0.81
5197.00,0.82
5196.00,0.82
5195.00,0.82
5194.00,0.82
5193.00,0.83
5192.00,0.83
5191.00,0.83
5190.00,0.83
5189.00,0.84
5188.00,0.84
5187.00,0.84
5186.00,0.84
5185.00,0.84
5184.00,0.85
5183.00,0.85
5182.00,0.85
5181.00,0.85
5180.00,0.85
5179.00,0.85
5178.00,0.85
5177.00,0.85
5176.00,0.86
5175.00,0.86
5174.00,0.86
5173.00,0.86
5172.00,0.86
5171.00,0.86
5170.00,0.86
5169.00,0.86
5168.00,0.86
5167.00,0.86
5166.00,0.86
5165.00,0.86
5164.00,0.86
5163.00,0.86
5162.00,0.86
5161.00,0.86
5160.00,0.86
5159.00,0.86
5158.00,0.86
5157.00,0.85
5156.00,0.85
5155.00,0.85
5154.00,0.85
5153.00,0.85
5152.00,0.84
5151.00,0.84
5150.00,0.84
5149.00,0.84
5148.00,0.84
5147.00,0.84
5146.00,0.83
5145.00,0.83
5144.00,0.83
5143.00,0.83
5142.00,0.83
5141.00,0.83
5140.00,0.83
5139.00,0.82
5138.00,0.82
5137.00,0.82
5136.00,0.82
5135.00,0.82
5134.00,0.82
5133.00,0.82
5132.00,0.82
5131.00,0.82
5130.00,0.82
5129.00,0.82
5128.00,0.83
5127.00,0.83
5126.00,0.83
5125.00,0.83
5124.00,0.84
5123.00,0.84
5122.00,0.84
5121.00,0.84
5120.00,0.84
5119.00,0.85
5118.00,0.85
5117.00,0.85
5116.00,0.85
5115.00,0.86
5114.00,0.86
5113.00,0.86
5112.00,0.86
5111.00,0.87
5110.00,0.87
5109.00,0.87
5108.00,0.87
5107.00,0.87
5106.00,0.88
5105.00,0.88
5104.00,0.88
5103.00,0.88
5102.00,0.88
5101.00,0.88
5100.00,0.88
5099.00,0.88
5098.00,0.88
5097.00,0.88
5096.00,0.88
5095.00,0.88
5094.00,0.88
5093.00,0.88
5092.00,0.89
5091.00,0.89
5090.00,0.89
5089.00,0.89
5088.00,0.89
5087.00,0.89
5086.00,0.89
5085.00,0.89
5084.00,0.89
5083.00,0.89
5082.00,0.89
5081.00,0.89
5080.00,0.89
5079.00,0.89
5078.00,0.89
5077.00,0.89
5076.00,0.90
5075.00,0.90
5074.00,0.90
5073.00,0.90
5072.00,0.90
5071.00,0.90
5070.00,0.90
5069.00,0.90
5068.00,0.90
5067.00,0.90
5066.00,0.90
5065.00,0.90
5064.00,0.90
5063.00,0.89
5062.00,0.89
5061.00,0.89
5060.00,0.89
5059.00,0.89
5058.00,0.89
5057.00,0.89
5056.00,0.89
5055.00,0.89
5054.00,0.89
5053.00,0.89
5052.00,0.89
5051.00,0.88
5050.00,0.88
5049.00,0.88
5048.00,0.88
5047.00,0.88
5046.00,0.88
5045.00,0.88
5044.00,0.88
5043.00,0.88
5042.00,0.88
5041.00,0.88
5040.00,0.88
5039.00,0.88
5038.00,0.88
5037.00,0.89
5036.00,0.89
5035.00,0.89
5034.00,0.89
5033.00,0.89
5032.00,0.89
5031.00,0.90
5030.00,0.90
5029.00,0.90
5028.00,0.90
5027.00,0.90
5026.00,0.91
5025.00,0.91
5024.00,0.91
5023.00,0.91
5022.00,0.91
5021.00,0.92
5020.00,0.92
5019.00,0.92
5018.00,0.92
5017.00,0.92
5016.00,0.92
5015.00,0.92
5014.00,0.93
5013.00,0.93
5012.00,0.93
5011.00,0.93
5010.00,0.93
5009.00,0.93
5008.00,0.93
5007.00,0.93
5006.00,0.93
5005.00,0.93
5004.00,0.93
5003.00,0.92
5002.00,0.92
5001.00,0.92
5000.00,0.92
4999.00,0.92
4998.00,0.92
4997.00,0.92
4996.00,0.92
4995.00,0.92
4994.00,0.92
4993.00,0.92
4992.00,0.92
4991.00,0.92
4990.00,0.92
4989.00,0.92
4988.00,0.92
4987.00,0.92
4986.00,0.92
4985.00,0.92
4984.00,0.92
4983.00,0.92
4982.00,0.92
4981.00,0.92
4980.00,0.92
4979.00,0.92
4978.00,0.93
4977.00,0.93
4976.00,0.93
4975.00,0.93
4974.00,0.93
4973.00,0.93
4972.00,0.93
4971.00,0.93
4970.00,0.93
4969.00,0.94
4968.00,0.94
4967.00,0.94
4966.00,0.94
4965.00,0.94
4964.00,0.95
4963.00,0.95
4962.00,0.95
4961.00,0.96
4960.00,0.96
4959.00,0.96
4958.00,0.96
4957.00,0.97
4956.00,0.97
4955.00,0.97
4954.00,0.97
4953.00,0.98
4952.00,0.98
4951.00,0.98
4950.00,0.98
4949.00,0.98
4948.00,0.99
4947.00,0.99
4946.00,0.99
4945.00,0.99
4944.00,0.99
4943.00,1.00
4942.00,1.00
4941.00,1.00
4940.00,1.00
4939.00,1.00
4938.00,1.00
4937.00,1.00
4936.00,1.00
4935.00,1.00
4934.00,1.00
4933.00,1.00
4932.00,1.00
4931.00,1.00
4930.00,1.01
4929.00,1.01
4928.00,1.01
4927.00,1.01
4926.00,1.01
4925.00,1.01
4924.00,1.01
4923.00,1.01
4922.00,1.01
4921.00,1.01
4920.00,1.01
4919.00,1.01
4918.00,1.01
4917.00,1.02
4916.00,1.02
4915.00,1.02
4914.00,1.02
4913.00,1.02
4912.00,1.02
4911.00,1.02
4910.00,1.02
4909.00,1.03
4908.00,1.03
4907.00,1.03
4906.00,1.03
4905.00,1.03
4904.00,1.03
4903.00,1.03
4902.00,1.03
4901.00,1.03
4900.00,1.03
4899.00,1.03
4898.00,1.03
4897.00,1.03
4896.00,1.04
4895.00,1.04
4894.00,1.04
4893.00,1.04
4892.00,1.04
4891.00,1.04
4890.00,1.04
4889.00,1.04
4888.00,1.04
4887.00,1.04
4886.00,1.04
4885.00,1.04
4884.00,1.05
4883.00,1.05
4882.00,1.05
4881.00,1.05
4880.00,1.05
4879.00,1.05
4878.00,1.05
4877.00,1.05
4876.00,1.06
4875.00,1.06
4874.00,1.06
4873.00,1.06
4872.00,1.06
4871.00,1.07
4870.00,1.07
4869.00,1.07
4868.00,1.07
4867.00,1.07
4866.00,1.07
4865.00,1.07
4864.00,1.07
4863.00,1.08
4862.00,1.08
4861.00,1.08
4860.00,1.08
4859.00,1.08
4858.00,1.08
4857.00,1.08
4856.00,1.08
4855.00,1.08
4854.00,1.08
4853.00,1.08
4852.00,1.08
4851.00,1.07
4850.00,1.07
4849.00,1.07
4848.00,1.07
4847.00,1.07
4846.00,1.07
4845.00,1.06
4844.00,1.06
4843.00,1.06
4842.00,1.06
4841.00,1.06
4840.00,1.06
4839.00,1.06
4838.00,1.05
4837.00,1.05
4836.00,1.05
4835.00,1.05
4834.00,1.05
4833.00,1.05
4832.00,1.05
4831.00,1.06
4830.00,1.06
4829.00,1.06
4828.00,1.06
4827.00,1.06
4826.00,1.07
4825.00,1.07
4824.00,1.07
4823.00,1.08
4822.00,1.08
4821.00,1.08
4820.00,1.09
4819.00,1.09
4818.00,1.09
4817.00,1.10
4816.00,1.10
4815.00,1.10
4814.00,1.11
4813.00,1.11
4812.00,1.12
4811.00,1.12
4810.00,1.12
4809.00,1.13
4808.00,1.13
4807.00,1.13
4806.00,1.14
4805.00,1.14
4804.00,1.14
4803.00,1.14
4802.00,1.15
4801.00,1.15
4800.00,1.15
4799.00,1.15
4798.00,1.15
4797.00,1.16
4796.00,1.16
4795.00,1.16
4794.00,1.16
4793.00,1.16
4792.00,1.16
4791.00,1.16
4790.00,1.16
4789.00,1.17
4788.00,1.17
4787.00,1.17
4786.00,1.17
4785.00,1.17
4784.00,1.17
4783.00,1.17
4782.00,1.17
4781.00,1.17
4780.00,1.17
4779.00,1.17
4778.00,1.17
4777.00,1.17
4776.00,1.17
4775.00,1.17
4774.00,1.17
4773.00,1.17
4772.00,1.17
4771.00,1.17
4770.00,1.17
4769.00,1.17
4768.00,1.17
4767.00,1.17
4766.00,1.17
4765.00,1.17
4764.00,1.17
4763.00,1.17
4762.00,1.17
4761.00,1.18
4760.00,1.18
4759.00,1.18
4758.00,1.18
4757.00,1.19
4756.00,1.19
4755.00,1.19
4754.00,1.20
4753.00,1.20
4752.00,1.20
4751.00,1.20
4750.00,1.21
4749.00,1.21
4748.00,1.21
4747.00,1.21
4746.00,1.22
4745.00,1.22
4744.00,1.22
4743.00,1.23
4742.00,1.23
4741.00,1.23
4740.00,1.23
4739.00,1.24
4738.00,1.24
4737.00,1.24
4736.00,1.24
4735.00,1.24
4734.00,1.24
4733.00,1.24
4732.00,1.24
4731.00,1.24
4730.00,1.24
4729.00,1.24
4728.00,1.24
4727.00,1.24
4726.00,1.25
4725.00,1.25
4724.00,1.25
4723.00,1.25
4722.00,1.25
4721.00,1.25
4720.00,1.25
4719.00,1.25
4718.00,1.25
4717.00,1.25
4716.00,1.26
4715.00,1.26
4714.00,1.26
4713.00,1.26
4712.00,1.26
4711.00,1.26
4710.00,1.27
4709.00,1.27
4708.00,1.27
4707.00,1.28
4706.00,1.28
4705.00,1.28
4704.00,1.28
4703.00,1.29
4702.00,1.29
4701.00,1.29
4700.00,1.29
4699.00,1.29
4698.00,1.30
4697.00,1.30
4696.00,1.30
4695.00,1.30
4694.00,1.30
4693.00,1.31
4692.00,1.31
4691.00,1.31
4690.00,1.32
4689.00,1.32
4688.00,1.32
4687.00,1.32
4686.00,1.32
4685.00,1.32
4684.00,1.32
4683.00,1.32
4682.00,1.32
4681.00,1.32
4680.00,1.31
4679.00,1.31
4678.00,1.31
4677.00,1.31
4676.00,1.31
4675.00,1.31
4674.00,1.31
4673.00,1.31
4672.00,1.31
4671.00,1.31
4670.00,1.31
4669.00,1.31
4668.00,1.30
4667.00,1.30
4666.00,1.30
4665.00,1.30
4664.00,1.30
4663.00,1.30
4662.00,1.29
4661.00,1.29
4660.00,1.29
4659.00,1.29
4658.00,1.30
4657.00,1.30
4656.00,1.30
4655.00,1.30
4654.00,1.31
4653.00,1.31
4652.00,1.31
4651.00,1.32
4650.00,1.32
4649.00,1.32
4648.00,1.33
4647.00,1.33
4646.00,1.34
4645.00,1.34
4644.00,1.35
4643.00,1.35
4642.00,1.36
4641.00,1.36
4640.00,1.37
4639.00,1.37
4638.00,1.38
4637.00,1.38
4636.00,1.38
4635.00,1.39
4634.00,1.39
4633.00,1.40
4632.00,1.40
4631.00,1.40
4630.00,1.40
4629.00,1.41
4628.00,1.41
4627.00,1.41
4626.00,1.41
4625.00,1.41
4624.00,1.41
4623.00,1.41
4622.00,1.41
4621.00,1.41
4620.00,1.41
4619.00,1.41
4618.00,1.41
4617.00,1.41
4616.00,1.41
4615.00,1.41
4614.00,1.41
4613.00,1.41
4612.00,1.41
4611.00,1.41
4610.00,1.41
4609.00,1.41
4608.00,1.41
4607.00,1.41
4606.00,1.41
4605.00,1.41
4604.00,1.41
4603.00,1.41
4602.00,1.41
4601.00,1.41
4600.00,1.42
4599.00,1.42
4598.00,1.42
4597.00,1.42
4596.00,1.42
4595.00,1.42
4594.00,1.43
4593.00,1.43
4592.00,1.43
4591.00,1.43
4590.00,1.43
4589.00,1.43
4588.00,1.43
4587.00,1.43
4586.00,1.44
4585.00,1.44
4584.00,1.44
4583.00,1.44
4582.00,1.44
4581.00,1.44
4580.00,1.44
4579.00,1.44
4578.00,1.44
4577.00,1.44
4576.00,1.43
4575.00,1.43
4574.00,1.43
4573.00,1.43
4572.00,1.43
4571.00,1.43
4570.00,1.43
4569.00,1.43
4568.00,1.43
4567.00,1.43
4566.00,1.43
4565.00,1.43
4564.00,1.43
4563.00,1.43
4562.00,1.43
4561.00,1.43
4560.00,1.43
4559.00,1.44
4558.00,1.44
4557.00,1.44
4556.00,1.44
4555.00,1.44
4554.00,1.45
4553.00,1.45
4552.00,1.45
4551.00,1.45
4550.00,1.45
4549.00,1.46
4548.00,1.46
4547.00,1.46
4546.00,1.46
4545.00,1.46
4544.00,1.47
4543.00,1.47
4542.00,1.47
4541.00,1.47
4540.00,1.47
4539.00,1.47
4538.00,1.47
4537.00,1.47
4536.00,1.47
4535.00,1.47
4534.00,1.47
4533.00,1.47
4532.00,1.47
4531.00,1.47
4530.00,1.47
4529.00,1.47
4528.00,1.47
4527.00,1.47
4526.00,1.47
4525.00,1.47
4524.00,1.47
4523.00,1.47
4522.00,1.47
4521.00,1.47
4520.00,1.46
4519.00,1.46
4518.00,1.46
4517.00,1.46
4516.00,1.46
4515.00,1.46
4514.00,1.47
4513.00,1.47
4512.00,1.47
4511.00,1.47
4510.00,1.47
4509.00,1.47
4508.00,1.47
4507.00,1.47
4506.00,1.48
4505.00,1.48
4504.00,1.48
4503.00,1.48
4502.00,1.48
4501.00,1.49
4500.00,1.49
4499.00,1.49
4498.00,1.49
4497.00,1.49
4496.00,1.49
4495.00,1.49
4494.00,1.49
4493.00,1.49
4492.00,1.50
4491.00,1.50
4490.00,1.50
4489.00,1.50
4488.00,1.50
4487.00,1.50
4486.00,1.50
4485.00,1.50
4484.00,1.50
4483.00,1.50
4482.00,1.50
4481.00,1.50
4480.00,1.50
4479.00,1.49
4478.00,1.49
4477.00,1.49
4476.00,1.49
4475.00,1.49
4474.00,1.49
4473.00,1.48
4472.00,1.48
4471.00,1.48
4470.00,1.48
4469.00,1.48
4468.00,1.48
4467.00,1.47
4466.00,1.47
4465.00,1.47
4464.00,1.47
4463.00,1.46
4462.00,1.46
4461.00,1.46
4460.00,1.45
4459.00,1.45
4458.00,1.44
4457.00,1.44
4456.00,1.44
4455.00,1.43
4454.00,1.43
4453.00,1.42
4452.00,1.42
4451.00,1.42
4450.00,1.41
4449.00,1.41
4448.00,1.41
4447.00,1.40
4446.00,1.40
4445.00,1.39
4444.00,1.39
4443.00,1.39
4442.00,1.38
4441.00,1.38
4440.00,1.37
4439.00,1.37
4438.00,1.36
4437.00,1.36
4436.00,1.36
4435.00,1.35
4434.00,1.35
4433.00,1.34
4432.00,1.34
4431.00,1.34
4430.00,1.33
4429.00,1.33
4428.00,1.32
4427.00,1.32
4426.00,1.32
4425.00,1.31
4424.00,1.31
4423.00,1.30
4422.00,1.30
4421.00,1.30
4420.00,1.29
4419.00,1.29
4418.00,1.29
4417.00,1.29
4416.00,1.28
4415.00,1.28
4414.00,1.28
4413.00,1.28
4412.00,1.28
4411.00,1.28
4410.00,1.28
4409.00,1.28
4408.00,1.28
4407.00,1.29
4406.00,1.29
4405.00,1.29
4404.00,1.29
4403.00,1.29
4402.00,1.29
4401.00,1.29
4400.00,1.30
4399.00,1.30
4398.00,1.30
4397.00,1.30
4396.00,1.30
4395.00,1.31
4394.00,1.31
4393.00,1.31
4392.00,1.31
4391.00,1.32
4390.00,1.32
4389.00,1.32
4388.00,1.32
4387.00,1.32
4386.00,1.32
4385.00,1.33
4384.00,1.33
4383.00,1.33
4382.00,1.33
4381.00,1.33
4380.00,1.33
4379.00,1.33
4378.00,1.33
4377.00,1.33
4376.00,1.33
4375.00,1.33
4374.00,1.33
4373.00,1.33
4372.00,1.33
4371.00,1.33
4370.00,1.33
4369.00,1.33
4368.00,1.33
4367.00,1.33
4366.00,1.33
4365.00,1.33
4364.00,1.33
4363.00,1.32
4362.00,1.32
4361.00,1.32
4360.00,1.32
4359.00,1.31
4358.00,1.31
4357.00,1.31
4356.00,1.31
4355.00,1.31
4354.00,1.31
4353.00,1.30
4352.00,1.30
4351.00,1.30
4350.00,1.30
4349.00,1.30
4348.00,1.30
4347.00,1.30
4346.00,1.30
4345.00,1.29
4344.00,1.29
4343.00,1.29
4342.00,1.29
4341.00,1.30
4340.00,1.30
4339.00,1.30
4338.00,1.30
4337.00,1.30
4336.00,1.31
4335.00,1.31
4334.00,1.31
4333.00,1.32
4332.00,1.32
4331.00,1.32
4330.00,1.32
4329.00,1.33
4328.00,1.33
4327.00,1.33
4326.00,1.34
4325.00,1.34
4324.00,1.34
4323.00,1.34
4322.00,1.34
4321.00,1.35
4320.00,1.35
4319.00,1.35
4318.00,1.35
4317.00,1.35
4316.00,1.36
4315.00,1.36
4314.00,1.36
4313.00,1.37
4312.00,1.37
4311.00,1.37
4310.00,1.37
4309.00,1.38
4308.00,1.38
4307.00,1.38
4306.00,1.39
4305.00,1.39
4304.00,1.39
4303.00,1.39
4302.00,1.40
4301.00,1.40
4300.00,1.40
4299.00,1.41
4298.00,1.41
4297.00,1.41
4296.00,1.42
4295.00,1.42
4294.00,1.43
4293.00,1.43
4292.00,1.43
4291.00,1.44
4290.00,1.44
4289.00,1.44
4288.00,1.44
4287.00,1.45
4286.00,1.45
4285.00,1.45
4284.00,1.45
4283.00,1.45
4282.00,1.45
4281.00,1.45
4280.00,1.45
4279.00,1.45
4278.00,1.45
4277.00,1.45
4276.00,1.44
4275.00,1.44
4274.00,1.44
4273.00,1.44
4272.00,1.43
4271.00,1.43
4270.00,1.43
4269.00,1.42
4268.00,1.42
4267.00,1.41
4266.00,1.41
4265.00,1.40
4264.00,1.40
4263.00,1.39
4262.00,1.39
4261.00,1.38
4260.00,1.38
4259.00,1.37
4258.00,1.37
4257.00,1.36
4256.00,1.36
4255.00,1.35
4254.00,1.35
4253.00,1.35
4252.00,1.34
4251.00,1.34
4250.00,1.34
4249.00,1.34
4248.00,1.34
4247.00,1.34
4246.00,1.34
4245.00,1.34
4244.00,1.34
4243.00,1.34
4242.00,1.34
4241.00,1.34
4240.00,1.34
4239.00,1.34
4238.00,1.35
4237.00,1.35
4236.00,1.35
4235.00,1.35
4234.00,1.35
4233.00,1.35
4232.00,1.35
4231.00,1.36
4230.00,1.36
4229.00,1.36
4228.00,1.36
4227.00,1.36
4226.00,1.37
4225.00,1.37
4224.00,1.37
4223.00,1.37
4222.00,1.37
4221.00,1.37
4220.00,1.38
4219.00,1.38
4218.00,1.38
4217.00,1.38
4216.00,1.38
4215.00,1.38
4214.00,1.39
4213.00,1.39
4212.00,1.39
4211.00,1.40
4210.00,1.40
4209.00,1.40
4208.00,1.40
4207.00,1.41
4206.00,1.41
4205.00,1.41
4204.00,1.42
4203.00,1.42
4202.00,1.42
4201.00,1.42
4200.00,1.42
4199.00,1.42
4198.00,1.42
4197.00,1.43
4196.00,1.43
4195.00,1.43
4194.00,1.43
4193.00,1.43
4192.00,1.43
4191.00,1.43
4190.00,1.43
4189.00,1.43
4188.00,1.43
4187.00,1.43
4186.00,1.43
4185.00,1.43
4184.00,1.43
4183.00,1.43
4182.00,1.42
4181.00,1.42
4180.00,1.42
4179.00,1.42
4178.00,1.41
4177.00,1.41
4176.00,1.41
4175.00,1.41
4174.00,1.41
4173.00,1.40
4172.00,1.40
4171.00,1.40
4170.00,1.40
4169.00,1.40
4168.00,1.40
4167.00,1.40
4166.00,1.39
4165.00,1.39
4164.00,1.39
4163.00,1.39
4162.00,1.38
4161.00,1.38
4160.00,1.38
4159.00,1.38
4158.00,1.38
4157.00,1.38
4156.00,1.38
4155.00,1.37
4154.00,1.37
4153.00,1.37
4152.00,1.37
4151.00,1.37
4150.00,1.37
4149.00,1.37
4148.00,1.37
4147.00,1.37
4146.00,1.37
4145.00,1.37
4144.00,1.37
4143.00,1.37
4142.00,1.37
4141.00,1.36
4140.00,1.36
4139.00,1.36
4138.00,1.36
4137.00,1.36
4136.00,1.36
4135.00,1.36
4134.00,1.36
4133.00,1.37
4132.00,1.37
4131.00,1.37
4130.00,1.37
4129.00,1.37
4128.00,1.37
4127.00,1.37
4126.00,1.37
4125.00,1.36
4124.00,1.36
4123.00,1.36
4122.00,1.36
4121.00,1.36
4120.00,1.36
4119.00,1.36
4118.00,1.36
4117.00,1.36
4116.00,1.36
4115.00,1.37
4114.00,1.37
4113.00,1.37
4112.00,1.37
4111.00,1.37
4110.00,1.36
4109.00,1.36
4108.00,1.36
4107.00,1.36
4106.00,1.36
4105.00,1.37
4104.00,1.37
4103.00,1.37
4102.00,1.37
4101.00,1.37
4100.00,1.37
4099.00,1.37
4098.00,1.38
4097.00,1.38
4096.00,1.38
4095.00,1.38
4094.00,1.39
4093.00,1.39
4092.00,1.39
4091.00,1.40
4090.00,1.40
4089.00,1.40
4088.00,1.41
4087.00,1.41
4086.00,1.41
4085.00,1.42
4084.00,1.42
4083.00,1.42
4082.00,1.42
4081.00,1.42
4080.00,1.42
4079.00,1.42
4078.00,1.42
4077.00,1.43
4076.00,1.43
4075.00,1.43
4074.00,1.43
4073.00,1.43
4072.00,1.43
4071.00,1.43
4070.00,1.43
4069.00,1.43
4068.00,1.43
4067.00,1.43
4066.00,1.43
4065.00,1.43
4064.00,1.42
4063.00,1.42
4062.00,1.42
4061.00,1.42
4060.00,1.42
4059.00,1.42
4058.00,1.42
4057.00,1.41
4056.00,1.42
4055.00,1.42
4054.00,1.42
4053.00,1.42
4052.00,1.42
4051.00,1.42
4050.00,1.42
4049.00,1.43
4048.00,1.43
4047.00,1.43
4046.00,1.43
4045.00,1.43
4044.00,1.43
4043.00,1.43
4042.00,1.43
4041.00,1.44
4040.00,1.44
4039.00,1.44
4038.00,1.44
4037.00,1.44
4036.00,1.44
4035.00,1.45
4034.00,1.45
4033.00,1.45
4032.00,1.46
4031.00,1.46
4030.00,1.46
4029.00,1.46
4028.00,1.47
4027.00,1.47
4026.00,1.47
4025.00,1.47
4024.00,1.48
4023.00,1.48
4022.00,1.48
4021.00,1.48
4020.00,1.48
4019.00,1.48
4018.00,1.48
4017.00,1.48
4016.00,1.48
4015.00,1.49
4014.00,1.49
4013.00,1.49
4012.00,1.49
4011.00,1.49
4010.00,1.50
4009.00,1.50
4008.00,1.50
4007.00,1.50
4006.00,1.50
4005.00,1.50
4004.00,1.51
4003.00,1.50
4002.00,1.50
4001.00,1.50
4000.00,1.50
