创建为新数据集,样品 139 用户 Administrator 日期 星期五, 七月 26 2019
cm-1,%T
10000.00,1.95
9999.00,1.95
9998.00,1.94
9997.00,1.94
9996.00,1.93
9995.00,1.93
9994.00,1.92
9993.00,1.91
9992.00,1.91
9991.00,1.90
9990.00,1.89
9989.00,1.89
9988.00,1.88
9987.00,1.88
9986.00,1.87
9985.00,1.87
9984.00,1.86
9983.00,1.86
9982.00,1.85
9981.00,1.85
9980.00,1.85
9979.00,1.85
9978.00,1.84
9977.00,1.84
9976.00,1.84
9975.00,1.84
9974.00,1.84
9973.00,1.84
9972.00,1.84
9971.00,1.83
9970.00,1.83
9969.00,1.83
9968.00,1.83
9967.00,1.83
9966.00,1.83
9965.00,1.83
9964.00,1.83
9963.00,1.83
9962.00,1.83
9961.00,1.83
9960.00,1.83
9959.00,1.82
9958.00,1.82
9957.00,1.82
9956.00,1.82
9955.00,1.82
9954.00,1.82
9953.00,1.82
9952.00,1.82
9951.00,1.82
9950.00,1.82
9949.00,1.81
9948.00,1.81
9947.00,1.81
9946.00,1.81
9945.00,1.80
9944.00,1.80
9943.00,1.79
9942.00,1.79
9941.00,1.79
9940.00,1.78
9939.00,1.78
9938.00,1.78
9937.00,1.77
9936.00,1.77
9935.00,1.77
9934.00,1.77
9933.00,1.77
9932.00,1.77
9931.00,1.77
9930.00,1.77
9929.00,1.77
9928.00,1.77
9927.00,1.77
9926.00,1.77
9925.00,1.77
9924.00,1.77
9923.00,1.77
9922.00,1.77
9921.00,1.77
9920.00,1.78
9919.00,1.78
9918.00,1.78
9917.00,1.78
9916.00,1.78
9915.00,1.79
9914.00,1.79
9913.00,1.79
9912.00,1.80
9911.00,1.80
9910.00,1.80
9909.00,1.80
9908.00,1.80
9907.00,1.80
9906.00,1.80
9905.00,1.79
9904.00,1.79
9903.00,1.78
9902.00,1.78
9901.00,1.77
9900.00,1.77
9899.00,1.76
9898.00,1.76
9897.00,1.76
9896.00,1.75
9895.00,1.75
9894.00,1.75
9893.00,1.75
9892.00,1.74
9891.00,1.74
9890.00,1.74
9889.00,1.74
9888.00,1.74
9887.00,1.74
9886.00,1.74
9885.00,1.74
9884.00,1.74
9883.00,1.74
9882.00,1.75
9881.00,1.75
9880.00,1.76
9879.00,1.76
9878.00,1.77
9877.00,1.77
9876.00,1.78
9875.00,1.79
9874.00,1.80
9873.00,1.80
9872.00,1.81
9871.00,1.82
9870.00,1.82
9869.00,1.83
9868.00,1.83
9867.00,1.83
9866.00,1.83
9865.00,1.83
9864.00,1.83
9863.00,1.83
9862.00,1.83
9861.00,1.82
9860.00,1.82
9859.00,1.81
9858.00,1.80
9857.00,1.80
9856.00,1.79
9855.00,1.78
9854.00,1.77
9853.00,1.76
9852.00,1.75
9851.00,1.74
9850.00,1.73
9849.00,1.72
9848.00,1.71
9847.00,1.70
9846.00,1.69
9845.00,1.68
9844.00,1.67
9843.00,1.66
9842.00,1.65
9841.00,1.64
9840.00,1.63
9839.00,1.62
9838.00,1.61
9837.00,1.61
9836.00,1.61
9835.00,1.60
9834.00,1.60
9833.00,1.60
9832.00,1.60
9831.00,1.60
9830.00,1.60
9829.00,1.60
9828.00,1.60
9827.00,1.60
9826.00,1.60
9825.00,1.60
9824.00,1.60
9823.00,1.60
9822.00,1.60
9821.00,1.60
9820.00,1.61
9819.00,1.61
9818.00,1.61
9817.00,1.61
9816.00,1.61
9815.00,1.61
9814.00,1.62
9813.00,1.62
9812.00,1.61
9811.00,1.61
9810.00,1.61
9809.00,1.61
9808.00,1.60
9807.00,1.60
9806.00,1.60
9805.00,1.59
9804.00,1.59
9803.00,1.58
9802.00,1.58
9801.00,1.58
9800.00,1.57
9799.00,1.57
9798.00,1.57
9797.00,1.56
9796.00,1.56
9795.00,1.56
9794.00,1.56
9793.00,1.55
9792.00,1.55
9791.00,1.55
9790.00,1.55
9789.00,1.56
9788.00,1.56
9787.00,1.56
9786.00,1.57
9785.00,1.58
9784.00,1.58
9783.00,1.59
9782.00,1.60
9781.00,1.61
9780.00,1.62
9779.00,1.63
9778.00,1.64
9777.00,1.65
9776.00,1.66
9775.00,1.67
9774.00,1.68
9773.00,1.69
9772.00,1.70
9771.00,1.71
9770.00,1.72
9769.00,1.73
9768.00,1.74
9767.00,1.75
9766.00,1.76
9765.00,1.77
9764.00,1.78
9763.00,1.79
9762.00,1.79
9761.00,1.80
9760.00,1.80
9759.00,1.80
9758.00,1.80
9757.00,1.81
9756.00,1.81
9755.00,1.81
9754.00,1.81
9753.00,1.81
9752.00,1.81
9751.00,1.81
9750.00,1.81
9749.00,1.81
9748.00,1.81
9747.00,1.80
9746.00,1.80
9745.00,1.80
9744.00,1.79
9743.00,1.79
9742.00,1.78
9741.00,1.78
9740.00,1.77
9739.00,1.77
9738.00,1.76
9737.00,1.75
9736.00,1.75
9735.00,1.74
9734.00,1.74
9733.00,1.73
9732.00,1.72
9731.00,1.72
9730.00,1.71
9729.00,1.71
9728.00,1.70
9727.00,1.69
9726.00,1.69
9725.00,1.68
9724.00,1.67
9723.00,1.67
9722.00,1.66
9721.00,1.66
9720.00,1.66
9719.00,1.65
9718.00,1.65
9717.00,1.65
9716.00,1.65
9715.00,1.65
9714.00,1.65
9713.00,1.65
9712.00,1.65
9711.00,1.65
9710.00,1.66
9709.00,1.66
9708.00,1.66
9707.00,1.66
9706.00,1.66
9705.00,1.66
9704.00,1.66
9703.00,1.66
9702.00,1.67
9701.00,1.67
9700.00,1.67
9699.00,1.67
9698.00,1.67
9697.00,1.68
9696.00,1.68
9695.00,1.68
9694.00,1.68
9693.00,1.68
9692.00,1.68
9691.00,1.68
9690.00,1.68
9689.00,1.68
9688.00,1.67
9687.00,1.67
9686.00,1.67
9685.00,1.67
9684.00,1.67
9683.00,1.66
9682.00,1.66
9681.00,1.66
9680.00,1.66
9679.00,1.66
9678.00,1.66
9677.00,1.66
9676.00,1.66
9675.00,1.66
9674.00,1.66
9673.00,1.66
9672.00,1.66
9671.00,1.66
9670.00,1.65
9669.00,1.65
9668.00,1.65
9667.00,1.65
9666.00,1.65
9665.00,1.65
9664.00,1.65
9663.00,1.65
9662.00,1.65
9661.00,1.65
9660.00,1.65
9659.00,1.65
9658.00,1.65
9657.00,1.65
9656.00,1.65
9655.00,1.65
9654.00,1.65
9653.00,1.65
9652.00,1.65
9651.00,1.65
9650.00,1.65
9649.00,1.65
9648.00,1.65
9647.00,1.65
9646.00,1.65
9645.00,1.65
9644.00,1.65
9643.00,1.65
9642.00,1.65
9641.00,1.65
9640.00,1.65
9639.00,1.65
9638.00,1.65
9637.00,1.65
9636.00,1.65
9635.00,1.65
9634.00,1.65
9633.00,1.64
9632.00,1.64
9631.00,1.64
9630.00,1.64
9629.00,1.63
9628.00,1.63
9627.00,1.62
9626.00,1.62
9625.00,1.61
9624.00,1.60
9623.00,1.60
9622.00,1.59
9621.00,1.58
9620.00,1.58
9619.00,1.57
9618.00,1.57
9617.00,1.56
9616.00,1.56
9615.00,1.56
9614.00,1.55
9613.00,1.55
9612.00,1.54
9611.00,1.54
9610.00,1.54
9609.00,1.54
9608.00,1.54
9607.00,1.54
9606.00,1.54
9605.00,1.54
9604.00,1.54
9603.00,1.55
9602.00,1.55
9601.00,1.55
9600.00,1.56
9599.00,1.56
9598.00,1.57
9597.00,1.58
9596.00,1.58
9595.00,1.59
9594.00,1.60
9593.00,1.60
9592.00,1.61
9591.00,1.62
9590.00,1.63
9589.00,1.63
9588.00,1.64
9587.00,1.65
9586.00,1.65
9585.00,1.66
9584.00,1.67
9583.00,1.67
9582.00,1.68
9581.00,1.68
9580.00,1.68
9579.00,1.69
9578.00,1.69
9577.00,1.69
9576.00,1.70
9575.00,1.70
9574.00,1.70
9573.00,1.70
9572.00,1.70
9571.00,1.70
9570.00,1.70
9569.00,1.70
9568.00,1.70
9567.00,1.70
9566.00,1.70
9565.00,1.70
9564.00,1.70
9563.00,1.69
9562.00,1.69
9561.00,1.69
9560.00,1.69
9559.00,1.69
9558.00,1.70
9557.00,1.70
9556.00,1.70
9555.00,1.71
9554.00,1.71
9553.00,1.72
9552.00,1.72
9551.00,1.73
9550.00,1.73
9549.00,1.74
9548.00,1.74
9547.00,1.75
9546.00,1.75
9545.00,1.76
9544.00,1.76
9543.00,1.77
9542.00,1.78
9541.00,1.78
9540.00,1.79
9539.00,1.80
9538.00,1.80
9537.00,1.81
9536.00,1.81
9535.00,1.82
9534.00,1.82
9533.00,1.82
9532.00,1.82
9531.00,1.82
9530.00,1.82
9529.00,1.81
9528.00,1.81
9527.00,1.80
9526.00,1.80
9525.00,1.79
9524.00,1.78
9523.00,1.77
9522.00,1.77
9521.00,1.76
9520.00,1.75
9519.00,1.75
9518.00,1.74
9517.00,1.73
9516.00,1.72
9515.00,1.72
9514.00,1.71
9513.00,1.70
9512.00,1.69
9511.00,1.69
9510.00,1.68
9509.00,1.67
9508.00,1.67
9507.00,1.66
9506.00,1.66
9505.00,1.66
9504.00,1.65
9503.00,1.65
9502.00,1.65
9501.00,1.65
9500.00,1.66
9499.00,1.66
9498.00,1.67
9497.00,1.67
9496.00,1.68
9495.00,1.68
9494.00,1.69
9493.00,1.70
9492.00,1.70
9491.00,1.71
9490.00,1.71
9489.00,1.72
9488.00,1.72
9487.00,1.73
9486.00,1.74
9485.00,1.74
9484.00,1.75
9483.00,1.75
9482.00,1.76
9481.00,1.76
9480.00,1.77
9479.00,1.77
9478.00,1.77
9477.00,1.78
9476.00,1.78
9475.00,1.78
9474.00,1.79
9473.00,1.79
9472.00,1.79
9471.00,1.78
9470.00,1.78
9469.00,1.78
9468.00,1.78
9467.00,1.77
9466.00,1.77
9465.00,1.77
9464.00,1.76
9463.00,1.76
9462.00,1.76
9461.00,1.76
9460.00,1.76
9459.00,1.76
9458.00,1.76
9457.00,1.76
9456.00,1.76
9455.00,1.76
9454.00,1.76
9453.00,1.76
9452.00,1.75
9451.00,1.75
9450.00,1.75
9449.00,1.75
9448.00,1.75
9447.00,1.75
9446.00,1.75
9445.00,1.76
9444.00,1.76
9443.00,1.76
9442.00,1.76
9441.00,1.76
9440.00,1.76
9439.00,1.76
9438.00,1.76
9437.00,1.76
9436.00,1.76
9435.00,1.76
9434.00,1.76
9433.00,1.76
9432.00,1.76
9431.00,1.75
9430.00,1.75
9429.00,1.75
9428.00,1.75
9427.00,1.75
9426.00,1.74
9425.00,1.74
9424.00,1.74
9423.00,1.74
9422.00,1.74
9421.00,1.73
9420.00,1.73
9419.00,1.73
9418.00,1.72
9417.00,1.72
9416.00,1.71
9415.00,1.71
9414.00,1.71
9413.00,1.71
9412.00,1.70
9411.00,1.70
9410.00,1.70
9409.00,1.70
9408.00,1.70
9407.00,1.70
9406.00,1.70
9405.00,1.70
9404.00,1.69
9403.00,1.69
9402.00,1.69
9401.00,1.69
9400.00,1.69
9399.00,1.69
9398.00,1.68
9397.00,1.68
9396.00,1.68
9395.00,1.68
9394.00,1.68
9393.00,1.67
9392.00,1.67
9391.00,1.67
9390.00,1.67
9389.00,1.67
9388.00,1.67
9387.00,1.67
9386.00,1.67
9385.00,1.67
9384.00,1.66
9383.00,1.66
9382.00,1.66
9381.00,1.66
9380.00,1.65
9379.00,1.65
9378.00,1.65
9377.00,1.65
9376.00,1.64
9375.00,1.64
9374.00,1.65
9373.00,1.65
9372.00,1.65
9371.00,1.65
9370.00,1.65
9369.00,1.66
9368.00,1.66
9367.00,1.67
9366.00,1.67
9365.00,1.67
9364.00,1.68
9363.00,1.68
9362.00,1.69
9361.00,1.69
9360.00,1.70
9359.00,1.70
9358.00,1.71
9357.00,1.71
9356.00,1.72
9355.00,1.73
9354.00,1.73
9353.00,1.74
9352.00,1.74
9351.00,1.74
9350.00,1.74
9349.00,1.75
9348.00,1.75
9347.00,1.74
9346.00,1.74
9345.00,1.74
9344.00,1.74
9343.00,1.74
9342.00,1.73
9341.00,1.73
9340.00,1.72
9339.00,1.72
9338.00,1.71
9337.00,1.71
9336.00,1.70
9335.00,1.70
9334.00,1.69
9333.00,1.68
9332.00,1.68
9331.00,1.67
9330.00,1.66
9329.00,1.66
9328.00,1.65
9327.00,1.65
9326.00,1.64
9325.00,1.64
9324.00,1.63
9323.00,1.63
9322.00,1.63
9321.00,1.62
9320.00,1.62
9319.00,1.62
9318.00,1.62
9317.00,1.62
9316.00,1.62
9315.00,1.62
9314.00,1.62
9313.00,1.62
9312.00,1.62
9311.00,1.62
9310.00,1.63
9309.00,1.63
9308.00,1.64
9307.00,1.64
9306.00,1.65
9305.00,1.66
9304.00,1.66
9303.00,1.67
9302.00,1.68
9301.00,1.69
9300.00,1.70
9299.00,1.71
9298.00,1.71
9297.00,1.72
9296.00,1.73
9295.00,1.74
9294.00,1.75
9293.00,1.76
9292.00,1.77
9291.00,1.78
9290.00,1.79
9289.00,1.80
9288.00,1.81
9287.00,1.82
9286.00,1.83
9285.00,1.84
9284.00,1.84
9283.00,1.85
9282.00,1.85
9281.00,1.85
9280.00,1.85
9279.00,1.85
9278.00,1.85
9277.00,1.85
9276.00,1.84
9275.00,1.84
9274.00,1.84
9273.00,1.84
9272.00,1.83
9271.00,1.83
9270.00,1.82
9269.00,1.82
9268.00,1.81
9267.00,1.81
9266.00,1.80
9265.00,1.79
9264.00,1.78
9263.00,1.78
9262.00,1.77
9261.00,1.76
9260.00,1.76
9259.00,1.75
9258.00,1.75
9257.00,1.75
9256.00,1.74
9255.00,1.74
9254.00,1.74
9253.00,1.75
9252.00,1.75
9251.00,1.75
9250.00,1.75
9249.00,1.75
9248.00,1.75
9247.00,1.75
9246.00,1.75
9245.00,1.76
9244.00,1.76
9243.00,1.76
9242.00,1.76
9241.00,1.76
9240.00,1.76
9239.00,1.76
9238.00,1.75
9237.00,1.75
9236.00,1.75
9235.00,1.74
9234.00,1.74
9233.00,1.73
9232.00,1.72
9231.00,1.72
9230.00,1.71
9229.00,1.70
9228.00,1.70
9227.00,1.69
9226.00,1.68
9225.00,1.67
9224.00,1.66
9223.00,1.66
9222.00,1.65
9221.00,1.64
9220.00,1.63
9219.00,1.62
9218.00,1.62
9217.00,1.61
9216.00,1.60
9215.00,1.60
9214.00,1.59
9213.00,1.59
9212.00,1.59
9211.00,1.59
9210.00,1.59
9209.00,1.59
9208.00,1.59
9207.00,1.59
9206.00,1.59
9205.00,1.59
9204.00,1.59
9203.00,1.59
9202.00,1.60
9201.00,1.60
9200.00,1.60
9199.00,1.60
9198.00,1.60
9197.00,1.60
9196.00,1.60
9195.00,1.61
9194.00,1.61
9193.00,1.61
9192.00,1.61
9191.00,1.62
9190.00,1.62
9189.00,1.62
9188.00,1.62
9187.00,1.62
9186.00,1.62
9185.00,1.63
9184.00,1.63
9183.00,1.63
9182.00,1.63
9181.00,1.63
9180.00,1.63
9179.00,1.64
9178.00,1.64
9177.00,1.64
9176.00,1.64
9175.00,1.65
9174.00,1.65
9173.00,1.66
9172.00,1.66
9171.00,1.67
9170.00,1.67
9169.00,1.68
9168.00,1.68
9167.00,1.69
9166.00,1.69
9165.00,1.70
9164.00,1.70
9163.00,1.71
9162.00,1.71
9161.00,1.72
9160.00,1.72
9159.00,1.73
9158.00,1.73
9157.00,1.74
9156.00,1.74
9155.00,1.75
9154.00,1.75
9153.00,1.76
9152.00,1.76
9151.00,1.77
9150.00,1.77
9149.00,1.78
9148.00,1.78
9147.00,1.79
9146.00,1.79
9145.00,1.80
9144.00,1.80
9143.00,1.81
9142.00,1.81
9141.00,1.82
9140.00,1.82
9139.00,1.82
9138.00,1.83
9137.00,1.83
9136.00,1.83
9135.00,1.83
9134.00,1.83
9133.00,1.83
9132.00,1.83
9131.00,1.83
9130.00,1.83
9129.00,1.83
9128.00,1.83
9127.00,1.83
9126.00,1.83
9125.00,1.83
9124.00,1.83
9123.00,1.82
9122.00,1.82
9121.00,1.82
9120.00,1.81
9119.00,1.81
9118.00,1.80
9117.00,1.80
9116.00,1.79
9115.00,1.79
9114.00,1.78
9113.00,1.78
9112.00,1.78
9111.00,1.78
9110.00,1.78
9109.00,1.78
9108.00,1.78
9107.00,1.78
9106.00,1.78
9105.00,1.78
9104.00,1.79
9103.00,1.79
9102.00,1.80
9101.00,1.80
9100.00,1.80
9099.00,1.81
9098.00,1.81
9097.00,1.82
9096.00,1.82
9095.00,1.82
9094.00,1.82
9093.00,1.83
9092.00,1.83
9091.00,1.83
9090.00,1.83
9089.00,1.83
9088.00,1.84
9087.00,1.84
9086.00,1.84
9085.00,1.84
9084.00,1.83
9083.00,1.83
9082.00,1.83
9081.00,1.82
9080.00,1.82
9079.00,1.81
9078.00,1.81
9077.00,1.80
9076.00,1.80
9075.00,1.79
9074.00,1.79
9073.00,1.78
9072.00,1.78
9071.00,1.78
9070.00,1.77
9069.00,1.77
9068.00,1.77
9067.00,1.77
9066.00,1.77
9065.00,1.77
9064.00,1.77
9063.00,1.77
9062.00,1.77
9061.00,1.77
9060.00,1.77
9059.00,1.77
9058.00,1.77
9057.00,1.77
9056.00,1.77
9055.00,1.77
9054.00,1.77
9053.00,1.77
9052.00,1.77
9051.00,1.77
9050.00,1.78
9049.00,1.78
9048.00,1.78
9047.00,1.78
9046.00,1.78
9045.00,1.78
9044.00,1.78
9043.00,1.78
9042.00,1.78
9041.00,1.77
9040.00,1.77
9039.00,1.77
9038.00,1.77
9037.00,1.77
9036.00,1.76
9035.00,1.76
9034.00,1.76
9033.00,1.75
9032.00,1.75
9031.00,1.75
9030.00,1.74
9029.00,1.74
9028.00,1.74
9027.00,1.73
9026.00,1.73
9025.00,1.73
9024.00,1.72
9023.00,1.72
9022.00,1.71
9021.00,1.71
9020.00,1.70
9019.00,1.70
9018.00,1.69
9017.00,1.69
9016.00,1.68
9015.00,1.68
9014.00,1.68
9013.00,1.67
9012.00,1.67
9011.00,1.67
9010.00,1.67
9009.00,1.67
9008.00,1.67
9007.00,1.67
9006.00,1.67
9005.00,1.67
9004.00,1.68
9003.00,1.68
9002.00,1.69
9001.00,1.69
9000.00,1.70
8999.00,1.70
8998.00,1.71
8997.00,1.71
8996.00,1.72
8995.00,1.72
8994.00,1.73
8993.00,1.74
8992.00,1.74
8991.00,1.75
8990.00,1.76
8989.00,1.76
8988.00,1.77
8987.00,1.77
8986.00,1.78
8985.00,1.78
8984.00,1.79
8983.00,1.79
8982.00,1.79
8981.00,1.79
8980.00,1.79
8979.00,1.78
8978.00,1.78
8977.00,1.78
8976.00,1.77
8975.00,1.77
8974.00,1.76
8973.00,1.76
8972.00,1.76
8971.00,1.75
8970.00,1.75
8969.00,1.75
8968.00,1.74
8967.00,1.74
8966.00,1.74
8965.00,1.73
8964.00,1.73
8963.00,1.73
8962.00,1.72
8961.00,1.72
8960.00,1.72
8959.00,1.72
8958.00,1.72
8957.00,1.72
8956.00,1.72
8955.00,1.72
8954.00,1.72
8953.00,1.72
8952.00,1.73
8951.00,1.73
8950.00,1.73
8949.00,1.74
8948.00,1.74
8947.00,1.75
8946.00,1.75
8945.00,1.76
8944.00,1.76
8943.00,1.76
8942.00,1.77
8941.00,1.77
8940.00,1.77
8939.00,1.77
8938.00,1.78
8937.00,1.78
8936.00,1.78
8935.00,1.78
8934.00,1.78
8933.00,1.78
8932.00,1.78
8931.00,1.78
8930.00,1.78
8929.00,1.78
8928.00,1.78
8927.00,1.78
8926.00,1.78
8925.00,1.78
8924.00,1.78
8923.00,1.78
8922.00,1.78
8921.00,1.77
8920.00,1.77
8919.00,1.77
8918.00,1.76
8917.00,1.76
8916.00,1.76
8915.00,1.75
8914.00,1.75
8913.00,1.74
8912.00,1.74
8911.00,1.74
8910.00,1.74
8909.00,1.73
8908.00,1.73
8907.00,1.73
8906.00,1.73
8905.00,1.73
8904.00,1.73
8903.00,1.72
8902.00,1.72
8901.00,1.72
8900.00,1.72
8899.00,1.72
8898.00,1.72
8897.00,1.72
8896.00,1.72
8895.00,1.72
8894.00,1.72
8893.00,1.72
8892.00,1.72
8891.00,1.72
8890.00,1.73
8889.00,1.73
8888.00,1.73
8887.00,1.73
8886.00,1.73
8885.00,1.74
8884.00,1.74
8883.00,1.74
8882.00,1.74
8881.00,1.75
8880.00,1.75
8879.00,1.75
8878.00,1.75
8877.00,1.75
8876.00,1.75
8875.00,1.76
8874.00,1.76
8873.00,1.76
8872.00,1.76
8871.00,1.76
8870.00,1.76
8869.00,1.77
8868.00,1.77
8867.00,1.77
8866.00,1.77
8865.00,1.77
8864.00,1.77
8863.00,1.78
8862.00,1.78
8861.00,1.78
8860.00,1.78
8859.00,1.78
8858.00,1.78
8857.00,1.78
8856.00,1.78
8855.00,1.79
8854.00,1.79
8853.00,1.79
8852.00,1.79
8851.00,1.79
8850.00,1.79
8849.00,1.79
8848.00,1.80
8847.00,1.80
8846.00,1.80
8845.00,1.80
8844.00,1.80
8843.00,1.80
8842.00,1.81
8841.00,1.81
8840.00,1.81
8839.00,1.81
8838.00,1.81
8837.00,1.81
8836.00,1.81
8835.00,1.81
8834.00,1.81
8833.00,1.81
8832.00,1.81
8831.00,1.81
8830.00,1.81
8829.00,1.81
8828.00,1.80
8827.00,1.80
8826.00,1.80
8825.00,1.80
8824.00,1.80
8823.00,1.80
8822.00,1.80
8821.00,1.79
8820.00,1.79
8819.00,1.79
8818.00,1.79
8817.00,1.79
8816.00,1.80
8815.00,1.80
8814.00,1.80
8813.00,1.80
8812.00,1.80
8811.00,1.81
8810.00,1.81
8809.00,1.81
8808.00,1.81
8807.00,1.82
8806.00,1.82
8805.00,1.82
8804.00,1.83
8803.00,1.83
8802.00,1.83
8801.00,1.84
8800.00,1.84
8799.00,1.84
8798.00,1.85
8797.00,1.85
8796.00,1.86
8795.00,1.86
8794.00,1.86
8793.00,1.86
8792.00,1.87
8791.00,1.87
8790.00,1.87
8789.00,1.87
8788.00,1.87
8787.00,1.87
8786.00,1.87
8785.00,1.87
8784.00,1.86
8783.00,1.86
8782.00,1.86
8781.00,1.86
8780.00,1.86
8779.00,1.85
8778.00,1.85
8777.00,1.85
8776.00,1.85
8775.00,1.85
8774.00,1.84
8773.00,1.84
8772.00,1.84
8771.00,1.83
8770.00,1.83
8769.00,1.82
8768.00,1.82
8767.00,1.81
8766.00,1.80
8765.00,1.80
8764.00,1.79
8763.00,1.78
8762.00,1.78
8761.00,1.77
8760.00,1.77
8759.00,1.76
8758.00,1.76
8757.00,1.76
8756.00,1.75
8755.00,1.75
8754.00,1.75
8753.00,1.74
8752.00,1.74
8751.00,1.73
8750.00,1.73
8749.00,1.73
8748.00,1.72
8747.00,1.72
8746.00,1.72
8745.00,1.71
8744.00,1.71
8743.00,1.71
8742.00,1.71
8741.00,1.71
8740.00,1.71
8739.00,1.71
8738.00,1.71
8737.00,1.71
8736.00,1.71
8735.00,1.71
8734.00,1.71
8733.00,1.71
8732.00,1.71
8731.00,1.71
8730.00,1.71
8729.00,1.71
8728.00,1.71
8727.00,1.70
8726.00,1.70
8725.00,1.70
8724.00,1.70
8723.00,1.70
8722.00,1.70
8721.00,1.70
8720.00,1.69
8719.00,1.69
8718.00,1.69
8717.00,1.69
8716.00,1.69
8715.00,1.68
8714.00,1.68
8713.00,1.68
8712.00,1.68
8711.00,1.68
8710.00,1.68
8709.00,1.68
8708.00,1.68
8707.00,1.68
8706.00,1.68
8705.00,1.68
8704.00,1.68
8703.00,1.68
8702.00,1.68
8701.00,1.68
8700.00,1.68
8699.00,1.68
8698.00,1.68
8697.00,1.68
8696.00,1.68
8695.00,1.68
8694.00,1.69
8693.00,1.69
8692.00,1.69
8691.00,1.69
8690.00,1.69
8689.00,1.69
8688.00,1.70
8687.00,1.70
8686.00,1.70
8685.00,1.70
8684.00,1.70
8683.00,1.71
8682.00,1.71
8681.00,1.71
8680.00,1.71
8679.00,1.72
8678.00,1.72
8677.00,1.72
8676.00,1.72
8675.00,1.73
8674.00,1.73
8673.00,1.74
8672.00,1.74
8671.00,1.74
8670.00,1.75
8669.00,1.75
8668.00,1.75
8667.00,1.76
8666.00,1.76
8665.00,1.76
8664.00,1.76
8663.00,1.76
8662.00,1.77
8661.00,1.77
8660.00,1.77
8659.00,1.77
8658.00,1.77
8657.00,1.77
8656.00,1.77
8655.00,1.77
8654.00,1.77
8653.00,1.77
8652.00,1.77
8651.00,1.77
8650.00,1.77
8649.00,1.77
8648.00,1.77
8647.00,1.77
8646.00,1.77
8645.00,1.77
8644.00,1.76
8643.00,1.76
8642.00,1.76
8641.00,1.76
8640.00,1.76
8639.00,1.76
8638.00,1.76
8637.00,1.76
8636.00,1.76
8635.00,1.76
8634.00,1.76
8633.00,1.76
8632.00,1.76
8631.00,1.76
8630.00,1.76
8629.00,1.76
8628.00,1.75
8627.00,1.75
8626.00,1.75
8625.00,1.75
8624.00,1.74
8623.00,1.74
8622.00,1.74
8621.00,1.74
8620.00,1.73
8619.00,1.73
8618.00,1.73
8617.00,1.73
8616.00,1.72
8615.00,1.72
8614.00,1.72
8613.00,1.72
8612.00,1.71
8611.00,1.71
8610.00,1.71
8609.00,1.71
8608.00,1.71
8607.00,1.71
8606.00,1.71
8605.00,1.71
8604.00,1.72
8603.00,1.72
8602.00,1.72
8601.00,1.72
8600.00,1.73
8599.00,1.73
8598.00,1.73
8597.00,1.74
8596.00,1.74
8595.00,1.75
8594.00,1.75
8593.00,1.75
8592.00,1.76
8591.00,1.76
8590.00,1.76
8589.00,1.77
8588.00,1.77
8587.00,1.77
8586.00,1.78
8585.00,1.78
8584.00,1.78
8583.00,1.79
8582.00,1.79
8581.00,1.79
8580.00,1.79
8579.00,1.79
8578.00,1.79
8577.00,1.79
8576.00,1.79
8575.00,1.79
8574.00,1.79
8573.00,1.79
8572.00,1.79
8571.00,1.79
8570.00,1.79
8569.00,1.79
8568.00,1.79
8567.00,1.79
8566.00,1.79
8565.00,1.79
8564.00,1.79
8563.00,1.79
8562.00,1.79
8561.00,1.79
8560.00,1.79
8559.00,1.79
8558.00,1.79
8557.00,1.79
8556.00,1.79
8555.00,1.78
8554.00,1.78
8553.00,1.78
8552.00,1.78
8551.00,1.78
8550.00,1.78
8549.00,1.78
8548.00,1.78
8547.00,1.77
8546.00,1.77
8545.00,1.77
8544.00,1.77
8543.00,1.77
8542.00,1.77
8541.00,1.77
8540.00,1.77
8539.00,1.77
8538.00,1.77
8537.00,1.76
8536.00,1.76
8535.00,1.76
8534.00,1.75
8533.00,1.75
8532.00,1.74
8531.00,1.74
8530.00,1.73
8529.00,1.73
8528.00,1.73
8527.00,1.72
8526.00,1.72
8525.00,1.71
8524.00,1.71
8523.00,1.70
8522.00,1.70
8521.00,1.69
8520.00,1.68
8519.00,1.68
8518.00,1.67
8517.00,1.66
8516.00,1.66
8515.00,1.65
8514.00,1.64
8513.00,1.64
8512.00,1.63
8511.00,1.63
8510.00,1.63
8509.00,1.62
8508.00,1.62
8507.00,1.62
8506.00,1.62
8505.00,1.62
8504.00,1.62
8503.00,1.62
8502.00,1.62
8501.00,1.62
8500.00,1.62
8499.00,1.62
8498.00,1.62
8497.00,1.63
8496.00,1.63
8495.00,1.63
8494.00,1.63
8493.00,1.64
8492.00,1.64
8491.00,1.64
8490.00,1.65
8489.00,1.65
8488.00,1.66
8487.00,1.66
8486.00,1.66
8485.00,1.66
8484.00,1.67
8483.00,1.67
8482.00,1.67
8481.00,1.67
8480.00,1.67
8479.00,1.67
8478.00,1.67
8477.00,1.67
8476.00,1.67
8475.00,1.67
8474.00,1.67
8473.00,1.67
8472.00,1.67
8471.00,1.67
8470.00,1.67
8469.00,1.67
8468.00,1.67
8467.00,1.67
8466.00,1.67
8465.00,1.67
8464.00,1.67
8463.00,1.66
8462.00,1.66
8461.00,1.66
8460.00,1.66
8459.00,1.66
8458.00,1.66
8457.00,1.66
8456.00,1.67
8455.00,1.67
8454.00,1.67
8453.00,1.67
8452.00,1.67
8451.00,1.68
8450.00,1.68
8449.00,1.68
8448.00,1.69
8447.00,1.69
8446.00,1.69
8445.00,1.70
8444.00,1.70
8443.00,1.70
8442.00,1.71
8441.00,1.71
8440.00,1.71
8439.00,1.72
8438.00,1.72
8437.00,1.72
8436.00,1.73
8435.00,1.73
8434.00,1.74
8433.00,1.74
8432.00,1.75
8431.00,1.75
8430.00,1.76
8429.00,1.76
8428.00,1.76
8427.00,1.77
8426.00,1.77
8425.00,1.77
8424.00,1.78
8423.00,1.78
8422.00,1.79
8421.00,1.79
8420.00,1.79
8419.00,1.80
8418.00,1.80
8417.00,1.80
8416.00,1.81
8415.00,1.81
8414.00,1.81
8413.00,1.81
8412.00,1.81
8411.00,1.81
8410.00,1.81
8409.00,1.81
8408.00,1.81
8407.00,1.81
8406.00,1.80
8405.00,1.80
8404.00,1.80
8403.00,1.80
8402.00,1.80
8401.00,1.79
8400.00,1.79
8399.00,1.79
8398.00,1.79
8397.00,1.79
8396.00,1.78
8395.00,1.78
8394.00,1.78
8393.00,1.77
8392.00,1.77
8391.00,1.76
8390.00,1.76
8389.00,1.76
8388.00,1.75
8387.00,1.75
8386.00,1.75
8385.00,1.75
8384.00,1.75
8383.00,1.74
8382.00,1.74
8381.00,1.74
8380.00,1.74
8379.00,1.74
8378.00,1.74
8377.00,1.74
8376.00,1.74
8375.00,1.74
8374.00,1.74
8373.00,1.74
8372.00,1.74
8371.00,1.74
8370.00,1.74
8369.00,1.74
8368.00,1.73
8367.00,1.73
8366.00,1.73
8365.00,1.73
8364.00,1.74
8363.00,1.74
8362.00,1.74
8361.00,1.74
8360.00,1.74
8359.00,1.74
8358.00,1.75
8357.00,1.75
8356.00,1.75
8355.00,1.75
8354.00,1.75
8353.00,1.75
8352.00,1.75
8351.00,1.76
8350.00,1.76
8349.00,1.76
8348.00,1.76
8347.00,1.76
8346.00,1.76
8345.00,1.76
8344.00,1.76
8343.00,1.76
8342.00,1.76
8341.00,1.76
8340.00,1.77
8339.00,1.77
8338.00,1.77
8337.00,1.77
8336.00,1.77
8335.00,1.77
8334.00,1.77
8333.00,1.77
8332.00,1.77
8331.00,1.77
8330.00,1.77
8329.00,1.77
8328.00,1.77
8327.00,1.77
8326.00,1.78
8325.00,1.78
8324.00,1.78
8323.00,1.78
8322.00,1.79
8321.00,1.79
8320.00,1.80
8319.00,1.80
8318.00,1.80
8317.00,1.81
8316.00,1.81
8315.00,1.82
8314.00,1.82
8313.00,1.82
8312.00,1.83
8311.00,1.83
8310.00,1.83
8309.00,1.83
8308.00,1.84
8307.00,1.84
8306.00,1.84
8305.00,1.84
8304.00,1.84
8303.00,1.85
8302.00,1.85
8301.00,1.85
8300.00,1.85
8299.00,1.84
8298.00,1.84
8297.00,1.84
8296.00,1.84
8295.00,1.84
8294.00,1.84
8293.00,1.83
8292.00,1.83
8291.00,1.83
8290.00,1.82
8289.00,1.82
8288.00,1.82
8287.00,1.81
8286.00,1.81
8285.00,1.81
8284.00,1.80
8283.00,1.80
8282.00,1.80
8281.00,1.79
8280.00,1.79
8279.00,1.79
8278.00,1.79
8277.00,1.78
8276.00,1.78
8275.00,1.78
8274.00,1.78
8273.00,1.78
8272.00,1.78
8271.00,1.78
8270.00,1.78
8269.00,1.78
8268.00,1.78
8267.00,1.78
8266.00,1.78
8265.00,1.78
8264.00,1.79
8263.00,1.79
8262.00,1.79
8261.00,1.80
8260.00,1.80
8259.00,1.81
8258.00,1.81
8257.00,1.82
8256.00,1.82
8255.00,1.83
8254.00,1.83
8253.00,1.83
8252.00,1.84
8251.00,1.84
8250.00,1.85
8249.00,1.85
8248.00,1.86
8247.00,1.86
8246.00,1.86
8245.00,1.86
8244.00,1.86
8243.00,1.86
8242.00,1.86
8241.00,1.86
8240.00,1.86
8239.00,1.86
8238.00,1.86
8237.00,1.86
8236.00,1.86
8235.00,1.86
8234.00,1.86
8233.00,1.85
8232.00,1.85
8231.00,1.85
8230.00,1.85
8229.00,1.84
8228.00,1.84
8227.00,1.84
8226.00,1.83
8225.00,1.83
8224.00,1.83
8223.00,1.82
8222.00,1.82
8221.00,1.82
8220.00,1.81
8219.00,1.81
8218.00,1.81
8217.00,1.81
8216.00,1.81
8215.00,1.81
8214.00,1.80
8213.00,1.80
8212.00,1.80
8211.00,1.80
8210.00,1.80
8209.00,1.80
8208.00,1.80
8207.00,1.80
8206.00,1.80
8205.00,1.80
8204.00,1.79
8203.00,1.79
8202.00,1.79
8201.00,1.79
8200.00,1.79
8199.00,1.79
8198.00,1.79
8197.00,1.79
8196.00,1.79
8195.00,1.79
8194.00,1.79
8193.00,1.78
8192.00,1.78
8191.00,1.78
8190.00,1.78
8189.00,1.78
8188.00,1.78
8187.00,1.77
8186.00,1.77
8185.00,1.77
8184.00,1.77
8183.00,1.77
8182.00,1.77
8181.00,1.76
8180.00,1.76
8179.00,1.76
8178.00,1.76
8177.00,1.76
8176.00,1.76
8175.00,1.75
8174.00,1.75
8173.00,1.75
8172.00,1.75
8171.00,1.75
8170.00,1.74
8169.00,1.74
8168.00,1.74
8167.00,1.74
8166.00,1.74
8165.00,1.74
8164.00,1.74
8163.00,1.74
8162.00,1.74
8161.00,1.73
8160.00,1.73
8159.00,1.73
8158.00,1.73
8157.00,1.73
8156.00,1.73
8155.00,1.73
8154.00,1.73
8153.00,1.73
8152.00,1.73
8151.00,1.73
8150.00,1.73
8149.00,1.73
8148.00,1.73
8147.00,1.73
8146.00,1.73
8145.00,1.73
8144.00,1.73
8143.00,1.73
8142.00,1.73
8141.00,1.72
8140.00,1.72
8139.00,1.72
8138.00,1.72
8137.00,1.72
8136.00,1.72
8135.00,1.72
8134.00,1.72
8133.00,1.72
8132.00,1.72
8131.00,1.72
8130.00,1.72
8129.00,1.73
8128.00,1.73
8127.00,1.73
8126.00,1.73
8125.00,1.73
8124.00,1.73
8123.00,1.73
8122.00,1.74
8121.00,1.74
8120.00,1.74
8119.00,1.75
8118.00,1.75
8117.00,1.75
8116.00,1.76
8115.00,1.76
8114.00,1.77
8113.00,1.77
8112.00,1.78
8111.00,1.78
8110.00,1.78
8109.00,1.79
8108.00,1.79
8107.00,1.79
8106.00,1.80
8105.00,1.80
8104.00,1.80
8103.00,1.80
8102.00,1.81
8101.00,1.81
8100.00,1.81
8099.00,1.81
8098.00,1.81
8097.00,1.81
8096.00,1.81
8095.00,1.81
8094.00,1.81
8093.00,1.81
8092.00,1.80
8091.00,1.80
8090.00,1.80
8089.00,1.80
8088.00,1.79
8087.00,1.79
8086.00,1.79
8085.00,1.78
8084.00,1.78
8083.00,1.78
8082.00,1.77
8081.00,1.77
8080.00,1.77
8079.00,1.77
8078.00,1.77
8077.00,1.76
8076.00,1.76
8075.00,1.76
8074.00,1.76
8073.00,1.76
8072.00,1.76
8071.00,1.76
8070.00,1.76
8069.00,1.76
8068.00,1.76
8067.00,1.76
8066.00,1.76
8065.00,1.76
8064.00,1.76
8063.00,1.77
8062.00,1.77
8061.00,1.77
8060.00,1.77
8059.00,1.77
8058.00,1.78
8057.00,1.78
8056.00,1.78
8055.00,1.78
8054.00,1.78
8053.00,1.78
8052.00,1.78
8051.00,1.77
8050.00,1.77
8049.00,1.77
8048.00,1.77
8047.00,1.77
8046.00,1.77
8045.00,1.77
8044.00,1.77
8043.00,1.77
8042.00,1.77
8041.00,1.76
8040.00,1.76
8039.00,1.76
8038.00,1.76
8037.00,1.76
8036.00,1.76
8035.00,1.75
8034.00,1.75
8033.00,1.75
8032.00,1.75
8031.00,1.75
8030.00,1.75
8029.00,1.74
8028.00,1.74
8027.00,1.74
8026.00,1.74
8025.00,1.75
8024.00,1.75
8023.00,1.75
8022.00,1.75
8021.00,1.75
8020.00,1.75
8019.00,1.76
8018.00,1.76
8017.00,1.76
8016.00,1.76
8015.00,1.76
8014.00,1.77
8013.00,1.77
8012.00,1.77
8011.00,1.77
8010.00,1.78
8009.00,1.78
8008.00,1.78
8007.00,1.79
8006.00,1.79
8005.00,1.79
8004.00,1.80
8003.00,1.80
8002.00,1.80
8001.00,1.81
8000.00,1.81
7999.00,1.81
7998.00,1.82
7997.00,1.82
7996.00,1.82
7995.00,1.82
7994.00,1.83
7993.00,1.83
7992.00,1.83
7991.00,1.83
7990.00,1.83
7989.00,1.83
7988.00,1.83
7987.00,1.83
7986.00,1.83
7985.00,1.83
7984.00,1.83
7983.00,1.83
7982.00,1.83
7981.00,1.83
7980.00,1.83
7979.00,1.83
7978.00,1.83
7977.00,1.83
7976.00,1.83
7975.00,1.82
7974.00,1.82
7973.00,1.82
7972.00,1.82
7971.00,1.82
7970.00,1.82
7969.00,1.81
7968.00,1.81
7967.00,1.81
7966.00,1.81
7965.00,1.81
7964.00,1.81
7963.00,1.82
7962.00,1.82
7961.00,1.82
7960.00,1.82
7959.00,1.82
7958.00,1.82
7957.00,1.82
7956.00,1.82
7955.00,1.82
7954.00,1.82
7953.00,1.83
7952.00,1.83
7951.00,1.83
7950.00,1.83
7949.00,1.83
7948.00,1.84
7947.00,1.84
7946.00,1.84
7945.00,1.85
7944.00,1.85
7943.00,1.85
7942.00,1.85
7941.00,1.85
7940.00,1.85
7939.00,1.86
7938.00,1.86
7937.00,1.86
7936.00,1.86
7935.00,1.86
7934.00,1.86
7933.00,1.86
7932.00,1.86
7931.00,1.86
7930.00,1.86
7929.00,1.86
7928.00,1.86
7927.00,1.86
7926.00,1.86
7925.00,1.85
7924.00,1.85
7923.00,1.85
7922.00,1.85
7921.00,1.85
7920.00,1.85
7919.00,1.85
7918.00,1.85
7917.00,1.85
7916.00,1.85
7915.00,1.85
7914.00,1.85
7913.00,1.85
7912.00,1.85
7911.00,1.85
7910.00,1.85
7909.00,1.85
7908.00,1.86
7907.00,1.86
7906.00,1.86
7905.00,1.86
7904.00,1.86
7903.00,1.87
7902.00,1.87
7901.00,1.87
7900.00,1.88
7899.00,1.88
7898.00,1.88
7897.00,1.88
7896.00,1.88
7895.00,1.89
7894.00,1.89
7893.00,1.89
7892.00,1.89
7891.00,1.89
7890.00,1.89
7889.00,1.89
7888.00,1.89
7887.00,1.89
7886.00,1.89
7885.00,1.89
7884.00,1.89
7883.00,1.89
7882.00,1.89
7881.00,1.89
7880.00,1.89
7879.00,1.89
7878.00,1.89
7877.00,1.88
7876.00,1.88
7875.00,1.88
7874.00,1.88
7873.00,1.88
7872.00,1.88
7871.00,1.87
7870.00,1.87
7869.00,1.87
7868.00,1.87
7867.00,1.87
7866.00,1.86
7865.00,1.86
7864.00,1.86
7863.00,1.86
7862.00,1.86
7861.00,1.85
7860.00,1.85
7859.00,1.85
7858.00,1.85
7857.00,1.85
7856.00,1.84
7855.00,1.84
7854.00,1.84
7853.00,1.83
7852.00,1.83
7851.00,1.83
7850.00,1.82
7849.00,1.82
7848.00,1.82
7847.00,1.82
7846.00,1.81
7845.00,1.81
7844.00,1.81
7843.00,1.81
7842.00,1.81
7841.00,1.81
7840.00,1.80
7839.00,1.80
7838.00,1.80
7837.00,1.80
7836.00,1.80
7835.00,1.80
7834.00,1.80
7833.00,1.80
7832.00,1.80
7831.00,1.81
7830.00,1.81
7829.00,1.81
7828.00,1.81
7827.00,1.81
7826.00,1.82
7825.00,1.82
7824.00,1.82
7823.00,1.83
7822.00,1.83
7821.00,1.84
7820.00,1.84
7819.00,1.84
7818.00,1.85
7817.00,1.85
7816.00,1.85
7815.00,1.86
7814.00,1.86
7813.00,1.86
7812.00,1.87
7811.00,1.87
7810.00,1.87
7809.00,1.88
7808.00,1.88
7807.00,1.88
7806.00,1.88
7805.00,1.89
7804.00,1.89
7803.00,1.89
7802.00,1.89
7801.00,1.89
7800.00,1.89
7799.00,1.89
7798.00,1.89
7797.00,1.89
7796.00,1.89
7795.00,1.89
7794.00,1.89
7793.00,1.89
7792.00,1.89
7791.00,1.88
7790.00,1.88
7789.00,1.88
7788.00,1.88
7787.00,1.88
7786.00,1.87
7785.00,1.87
7784.00,1.87
7783.00,1.86
7782.00,1.86
7781.00,1.86
7780.00,1.86
7779.00,1.85
7778.00,1.85
7777.00,1.85
7776.00,1.85
7775.00,1.84
7774.00,1.84
7773.00,1.84
7772.00,1.84
7771.00,1.84
7770.00,1.84
7769.00,1.83
7768.00,1.83
7767.00,1.83
7766.00,1.83
7765.00,1.83
7764.00,1.83
7763.00,1.82
7762.00,1.82
7761.00,1.82
7760.00,1.82
7759.00,1.82
7758.00,1.82
7757.00,1.82
7756.00,1.82
7755.00,1.82
7754.00,1.82
7753.00,1.83
7752.00,1.83
7751.00,1.83
7750.00,1.83
7749.00,1.83
7748.00,1.83
7747.00,1.83
7746.00,1.83
7745.00,1.84
7744.00,1.84
7743.00,1.84
7742.00,1.84
7741.00,1.84
7740.00,1.85
7739.00,1.85
7738.00,1.85
7737.00,1.86
7736.00,1.86
7735.00,1.86
7734.00,1.86
7733.00,1.87
7732.00,1.87
7731.00,1.87
7730.00,1.87
7729.00,1.87
7728.00,1.87
7727.00,1.88
7726.00,1.88
7725.00,1.88
7724.00,1.88
7723.00,1.88
7722.00,1.88
7721.00,1.88
7720.00,1.88
7719.00,1.88
7718.00,1.88
7717.00,1.88
7716.00,1.88
7715.00,1.88
7714.00,1.88
7713.00,1.88
7712.00,1.88
7711.00,1.88
7710.00,1.88
7709.00,1.88
7708.00,1.88
7707.00,1.88
7706.00,1.88
7705.00,1.88
7704.00,1.88
7703.00,1.89
7702.00,1.89
7701.00,1.89
7700.00,1.89
7699.00,1.89
7698.00,1.89
7697.00,1.89
7696.00,1.89
7695.00,1.89
7694.00,1.90
7693.00,1.90
7692.00,1.90
7691.00,1.90
7690.00,1.90
7689.00,1.91
7688.00,1.91
7687.00,1.91
7686.00,1.91
7685.00,1.91
7684.00,1.91
7683.00,1.91
7682.00,1.91
7681.00,1.90
7680.00,1.90
7679.00,1.90
7678.00,1.90
7677.00,1.90
7676.00,1.90
7675.00,1.89
7674.00,1.89
7673.00,1.89
7672.00,1.89
7671.00,1.89
7670.00,1.89
7669.00,1.88
7668.00,1.88
7667.00,1.88
7666.00,1.87
7665.00,1.87
7664.00,1.87
7663.00,1.87
7662.00,1.86
7661.00,1.86
7660.00,1.86
7659.00,1.86
7658.00,1.86
7657.00,1.86
7656.00,1.86
7655.00,1.86
7654.00,1.86
7653.00,1.86
7652.00,1.86
7651.00,1.86
7650.00,1.86
7649.00,1.86
7648.00,1.86
7647.00,1.86
7646.00,1.86
7645.00,1.86
7644.00,1.87
7643.00,1.87
7642.00,1.87
7641.00,1.87
7640.00,1.87
7639.00,1.88
7638.00,1.88
7637.00,1.88
7636.00,1.88
7635.00,1.88
7634.00,1.89
7633.00,1.89
7632.00,1.89
7631.00,1.89
7630.00,1.90
7629.00,1.90
7628.00,1.90
7627.00,1.90
7626.00,1.90
7625.00,1.91
7624.00,1.91
7623.00,1.91
7622.00,1.91
7621.00,1.91
7620.00,1.92
7619.00,1.92
7618.00,1.92
7617.00,1.92
7616.00,1.92
7615.00,1.92
7614.00,1.92
7613.00,1.92
7612.00,1.92
7611.00,1.92
7610.00,1.92
7609.00,1.92
7608.00,1.91
7607.00,1.91
7606.00,1.91
7605.00,1.91
7604.00,1.91
7603.00,1.91
7602.00,1.91
7601.00,1.91
7600.00,1.91
7599.00,1.91
7598.00,1.90
7597.00,1.90
7596.00,1.90
7595.00,1.90
7594.00,1.89
7593.00,1.89
7592.00,1.89
7591.00,1.89
7590.00,1.89
7589.00,1.88
7588.00,1.88
7587.00,1.88
7586.00,1.88
7585.00,1.88
7584.00,1.88
7583.00,1.88
7582.00,1.88
7581.00,1.88
7580.00,1.88
7579.00,1.87
7578.00,1.87
7577.00,1.87
7576.00,1.87
7575.00,1.87
7574.00,1.87
7573.00,1.87
7572.00,1.87
7571.00,1.87
7570.00,1.87
7569.00,1.87
7568.00,1.87
7567.00,1.86
7566.00,1.86
7565.00,1.86
7564.00,1.86
7563.00,1.86
7562.00,1.86
7561.00,1.86
7560.00,1.86
7559.00,1.86
7558.00,1.86
7557.00,1.86
7556.00,1.86
7555.00,1.86
7554.00,1.86
7553.00,1.86
7552.00,1.85
7551.00,1.85
7550.00,1.85
7549.00,1.85
7548.00,1.85
7547.00,1.85
7546.00,1.85
7545.00,1.85
7544.00,1.85
7543.00,1.85
7542.00,1.84
7541.00,1.84
7540.00,1.84
7539.00,1.84
7538.00,1.84
7537.00,1.84
7536.00,1.84
7535.00,1.84
7534.00,1.84
7533.00,1.84
7532.00,1.84
7531.00,1.84
7530.00,1.84
7529.00,1.84
7528.00,1.84
7527.00,1.84
7526.00,1.84
7525.00,1.84
7524.00,1.85
7523.00,1.85
7522.00,1.85
7521.00,1.85
7520.00,1.85
7519.00,1.85
7518.00,1.86
7517.00,1.86
7516.00,1.86
7515.00,1.86
7514.00,1.87
7513.00,1.87
7512.00,1.87
7511.00,1.87
7510.00,1.87
7509.00,1.88
7508.00,1.88
7507.00,1.88
7506.00,1.88
7505.00,1.88
7504.00,1.88
7503.00,1.88
7502.00,1.88
7501.00,1.88
7500.00,1.88
7499.00,1.88
7498.00,1.88
7497.00,1.88
7496.00,1.87
7495.00,1.87
7494.00,1.87
7493.00,1.87
7492.00,1.86
7491.00,1.86
7490.00,1.86
7489.00,1.86
7488.00,1.85
7487.00,1.85
7486.00,1.85
7485.00,1.85
7484.00,1.84
7483.00,1.84
7482.00,1.84
7481.00,1.84
7480.00,1.84
7479.00,1.84
7478.00,1.84
7477.00,1.84
7476.00,1.85
7475.00,1.85
7474.00,1.85
7473.00,1.85
7472.00,1.86
7471.00,1.86
7470.00,1.86
7469.00,1.86
7468.00,1.87
7467.00,1.87
7466.00,1.87
7465.00,1.88
7464.00,1.88
7463.00,1.88
7462.00,1.88
7461.00,1.89
7460.00,1.89
7459.00,1.89
7458.00,1.89
7457.00,1.89
7456.00,1.89
7455.00,1.89
7454.00,1.89
7453.00,1.89
7452.00,1.89
7451.00,1.89
7450.00,1.88
7449.00,1.88
7448.00,1.88
7447.00,1.88
7446.00,1.87
7445.00,1.87
7444.00,1.87
7443.00,1.86
7442.00,1.86
7441.00,1.86
7440.00,1.85
7439.00,1.85
7438.00,1.85
7437.00,1.85
7436.00,1.84
7435.00,1.84
7434.00,1.84
7433.00,1.84
7432.00,1.84
7431.00,1.84
7430.00,1.84
7429.00,1.84
7428.00,1.84
7427.00,1.83
7426.00,1.83
7425.00,1.83
7424.00,1.83
7423.00,1.83
7422.00,1.83
7421.00,1.83
7420.00,1.84
7419.00,1.84
7418.00,1.84
7417.00,1.84
7416.00,1.84
7415.00,1.84
7414.00,1.84
7413.00,1.84
7412.00,1.84
7411.00,1.85
7410.00,1.85
7409.00,1.85
7408.00,1.85
7407.00,1.85
7406.00,1.85
7405.00,1.85
7404.00,1.85
7403.00,1.85
7402.00,1.85
7401.00,1.85
7400.00,1.85
7399.00,1.86
7398.00,1.86
7397.00,1.86
7396.00,1.86
7395.00,1.86
7394.00,1.86
7393.00,1.86
7392.00,1.86
7391.00,1.86
7390.00,1.86
7389.00,1.86
7388.00,1.86
7387.00,1.86
7386.00,1.86
7385.00,1.86
7384.00,1.86
7383.00,1.86
7382.00,1.86
7381.00,1.86
7380.00,1.86
7379.00,1.86
7378.00,1.86
7377.00,1.86
7376.00,1.86
7375.00,1.85
7374.00,1.85
7373.00,1.85
7372.00,1.85
7371.00,1.85
7370.00,1.85
7369.00,1.85
7368.00,1.85
7367.00,1.85
7366.00,1.85
7365.00,1.85
7364.00,1.85
7363.00,1.85
7362.00,1.85
7361.00,1.85
7360.00,1.85
7359.00,1.85
7358.00,1.85
7357.00,1.85
7356.00,1.85
7355.00,1.85
7354.00,1.85
7353.00,1.85
7352.00,1.85
7351.00,1.85
7350.00,1.85
7349.00,1.85
7348.00,1.85
7347.00,1.85
7346.00,1.85
7345.00,1.85
7344.00,1.85
7343.00,1.84
7342.00,1.84
7341.00,1.84
7340.00,1.84
7339.00,1.84
7338.00,1.84
7337.00,1.84
7336.00,1.84
7335.00,1.84
7334.00,1.84
7333.00,1.84
7332.00,1.84
7331.00,1.84
7330.00,1.84
7329.00,1.84
7328.00,1.84
7327.00,1.84
7326.00,1.84
7325.00,1.83
7324.00,1.83
7323.00,1.83
7322.00,1.83
7321.00,1.82
7320.00,1.82
7319.00,1.82
7318.00,1.82
7317.00,1.82
7316.00,1.81
7315.00,1.81
7314.00,1.81
7313.00,1.81
7312.00,1.81
7311.00,1.80
7310.00,1.80
7309.00,1.80
7308.00,1.79
7307.00,1.79
7306.00,1.79
7305.00,1.78
7304.00,1.78
7303.00,1.78
7302.00,1.78
7301.00,1.78
7300.00,1.77
7299.00,1.77
7298.00,1.77
7297.00,1.77
7296.00,1.77
7295.00,1.77
7294.00,1.77
7293.00,1.77
7292.00,1.77
7291.00,1.77
7290.00,1.77
7289.00,1.77
7288.00,1.78
7287.00,1.78
7286.00,1.78
7285.00,1.78
7284.00,1.78
7283.00,1.78
7282.00,1.78
7281.00,1.78
7280.00,1.78
7279.00,1.78
7278.00,1.78
7277.00,1.78
7276.00,1.78
7275.00,1.78
7274.00,1.79
7273.00,1.79
7272.00,1.79
7271.00,1.79
7270.00,1.79
7269.00,1.78
7268.00,1.78
7267.00,1.78
7266.00,1.78
7265.00,1.78
7264.00,1.78
7263.00,1.78
7262.00,1.77
7261.00,1.77
7260.00,1.77
7259.00,1.77
7258.00,1.77
7257.00,1.76
7256.00,1.76
7255.00,1.76
7254.00,1.76
7253.00,1.75
7252.00,1.75
7251.00,1.75
7250.00,1.75
7249.00,1.74
7248.00,1.74
7247.00,1.74
7246.00,1.74
7245.00,1.74
7244.00,1.74
7243.00,1.73
7242.00,1.73
7241.00,1.73
7240.00,1.73
7239.00,1.73
7238.00,1.73
7237.00,1.73
7236.00,1.73
7235.00,1.73
7234.00,1.73
7233.00,1.73
7232.00,1.73
7231.00,1.73
7230.00,1.73
7229.00,1.73
7228.00,1.73
7227.00,1.73
7226.00,1.73
7225.00,1.73
7224.00,1.73
7223.00,1.73
7222.00,1.73
7221.00,1.73
7220.00,1.73
7219.00,1.73
7218.00,1.73
7217.00,1.73
7216.00,1.73
7215.00,1.73
7214.00,1.73
7213.00,1.73
7212.00,1.73
7211.00,1.73
7210.00,1.73
7209.00,1.73
7208.00,1.73
7207.00,1.73
7206.00,1.72
7205.00,1.72
7204.00,1.72
7203.00,1.72
7202.00,1.71
7201.00,1.71
7200.00,1.71
7199.00,1.70
7198.00,1.70
7197.00,1.70
7196.00,1.69
7195.00,1.69
7194.00,1.69
7193.00,1.68
7192.00,1.68
7191.00,1.68
7190.00,1.67
7189.00,1.67
7188.00,1.66
7187.00,1.66
7186.00,1.66
7185.00,1.65
7184.00,1.65
7183.00,1.64
7182.00,1.64
7181.00,1.63
7180.00,1.63
7179.00,1.62
7178.00,1.62
7177.00,1.62
7176.00,1.61
7175.00,1.61
7174.00,1.61
7173.00,1.60
7172.00,1.60
7171.00,1.59
7170.00,1.59
7169.00,1.58
7168.00,1.58
7167.00,1.58
7166.00,1.57
7165.00,1.57
7164.00,1.56
7163.00,1.56
7162.00,1.55
7161.00,1.55
7160.00,1.54
7159.00,1.54
7158.00,1.53
7157.00,1.53
7156.00,1.53
7155.00,1.52
7154.00,1.52
7153.00,1.52
7152.00,1.51
7151.00,1.51
7150.00,1.51
7149.00,1.51
7148.00,1.50
7147.00,1.50
7146.00,1.50
7145.00,1.50
7144.00,1.50
7143.00,1.49
7142.00,1.49
7141.00,1.49
7140.00,1.49
7139.00,1.49
7138.00,1.49
7137.00,1.48
7136.00,1.48
7135.00,1.48
7134.00,1.48
7133.00,1.48
7132.00,1.48
7131.00,1.47
7130.00,1.47
7129.00,1.47
7128.00,1.47
7127.00,1.46
7126.00,1.46
7125.00,1.46
7124.00,1.45
7123.00,1.45
7122.00,1.44
7121.00,1.44
7120.00,1.43
7119.00,1.43
7118.00,1.42
7117.00,1.42
7116.00,1.42
7115.00,1.41
7114.00,1.41
7113.00,1.40
7112.00,1.40
7111.00,1.40
7110.00,1.39
7109.00,1.39
7108.00,1.39
7107.00,1.39
7106.00,1.38
7105.00,1.38
7104.00,1.38
7103.00,1.38
7102.00,1.37
7101.00,1.37
7100.00,1.37
7099.00,1.36
7098.00,1.36
7097.00,1.36
7096.00,1.36
7095.00,1.36
7094.00,1.35
7093.00,1.35
7092.00,1.35
7091.00,1.35
7090.00,1.35
7089.00,1.35
7088.00,1.35
7087.00,1.34
7086.00,1.34
7085.00,1.34
7084.00,1.34
7083.00,1.34
7082.00,1.34
7081.00,1.34
7080.00,1.34
7079.00,1.33
7078.00,1.33
7077.00,1.33
7076.00,1.33
7075.00,1.33
7074.00,1.33
7073.00,1.33
7072.00,1.33
7071.00,1.33
7070.00,1.33
7069.00,1.33
7068.00,1.34
7067.00,1.34
7066.00,1.34
7065.00,1.34
7064.00,1.34
7063.00,1.33
7062.00,1.33
7061.00,1.33
7060.00,1.33
7059.00,1.33
7058.00,1.32
7057.00,1.32
7056.00,1.32
7055.00,1.32
7054.00,1.31
7053.00,1.31
7052.00,1.31
7051.00,1.30
7050.00,1.30
7049.00,1.29
7048.00,1.29
7047.00,1.28
7046.00,1.28
7045.00,1.27
7044.00,1.27
7043.00,1.26
7042.00,1.25
7041.00,1.25
7040.00,1.24
7039.00,1.23
7038.00,1.23
7037.00,1.22
7036.00,1.22
7035.00,1.22
7034.00,1.21
7033.00,1.21
7032.00,1.21
7031.00,1.20
7030.00,1.20
7029.00,1.20
7028.00,1.20
7027.00,1.20
7026.00,1.20
7025.00,1.19
7024.00,1.19
7023.00,1.19
7022.00,1.19
7021.00,1.19
7020.00,1.19
7019.00,1.19
7018.00,1.19
7017.00,1.19
7016.00,1.19
7015.00,1.19
7014.00,1.19
7013.00,1.19
7012.00,1.19
7011.00,1.19
7010.00,1.19
7009.00,1.19
7008.00,1.19
7007.00,1.19
7006.00,1.19
7005.00,1.19
7004.00,1.19
7003.00,1.19
7002.00,1.19
7001.00,1.18
7000.00,1.18
6999.00,1.18
6998.00,1.18
6997.00,1.18
6996.00,1.18
6995.00,1.18
6994.00,1.18
6993.00,1.18
6992.00,1.18
6991.00,1.18
6990.00,1.18
6989.00,1.18
6988.00,1.18
6987.00,1.18
6986.00,1.18
6985.00,1.18
6984.00,1.18
6983.00,1.18
6982.00,1.18
6981.00,1.18
6980.00,1.18
6979.00,1.18
6978.00,1.18
6977.00,1.18
6976.00,1.18
6975.00,1.18
6974.00,1.18
6973.00,1.18
6972.00,1.18
6971.00,1.18
6970.00,1.18
6969.00,1.18
6968.00,1.17
6967.00,1.17
6966.00,1.17
6965.00,1.17
6964.00,1.17
6963.00,1.17
6962.00,1.17
6961.00,1.17
6960.00,1.17
6959.00,1.16
6958.00,1.16
6957.00,1.16
6956.00,1.16
6955.00,1.16
6954.00,1.16
6953.00,1.15
6952.00,1.15
6951.00,1.15
6950.00,1.15
6949.00,1.15
6948.00,1.15
6947.00,1.15
6946.00,1.15
6945.00,1.15
6944.00,1.15
6943.00,1.15
6942.00,1.15
6941.00,1.15
6940.00,1.15
6939.00,1.15
6938.00,1.15
6937.00,1.15
6936.00,1.15
6935.00,1.15
6934.00,1.15
6933.00,1.15
6932.00,1.15
6931.00,1.15
6930.00,1.15
6929.00,1.15
6928.00,1.15
6927.00,1.15
6926.00,1.14
6925.00,1.14
6924.00,1.14
6923.00,1.14
6922.00,1.14
6921.00,1.14
6920.00,1.14
6919.00,1.14
6918.00,1.14
6917.00,1.13
6916.00,1.13
6915.00,1.13
6914.00,1.13
6913.00,1.13
6912.00,1.13
6911.00,1.13
6910.00,1.13
6909.00,1.13
6908.00,1.13
6907.00,1.13
6906.00,1.13
6905.00,1.13
6904.00,1.13
6903.00,1.13
6902.00,1.13
6901.00,1.13
6900.00,1.13
6899.00,1.13
6898.00,1.13
6897.00,1.13
6896.00,1.13
6895.00,1.13
6894.00,1.13
6893.00,1.14
6892.00,1.14
6891.00,1.14
6890.00,1.14
6889.00,1.14
6888.00,1.14
6887.00,1.14
6886.00,1.14
6885.00,1.14
6884.00,1.13
6883.00,1.13
6882.00,1.13
6881.00,1.13
6880.00,1.13
6879.00,1.13
6878.00,1.13
6877.00,1.13
6876.00,1.13
6875.00,1.13
6874.00,1.13
6873.00,1.13
6872.00,1.13
6871.00,1.13
6870.00,1.12
6869.00,1.12
6868.00,1.12
6867.00,1.12
6866.00,1.12
6865.00,1.12
6864.00,1.12
6863.00,1.12
6862.00,1.12
6861.00,1.12
6860.00,1.12
6859.00,1.12
6858.00,1.13
6857.00,1.13
6856.00,1.13
6855.00,1.13
6854.00,1.13
6853.00,1.13
6852.00,1.14
6851.00,1.14
6850.00,1.14
6849.00,1.14
6848.00,1.14
6847.00,1.15
6846.00,1.15
6845.00,1.15
6844.00,1.16
6843.00,1.16
6842.00,1.16
6841.00,1.16
6840.00,1.17
6839.00,1.17
6838.00,1.17
6837.00,1.18
6836.00,1.18
6835.00,1.18
6834.00,1.18
6833.00,1.19
6832.00,1.19
6831.00,1.19
6830.00,1.19
6829.00,1.19
6828.00,1.19
6827.00,1.20
6826.00,1.20
6825.00,1.20
6824.00,1.20
6823.00,1.20
6822.00,1.20
6821.00,1.20
6820.00,1.20
6819.00,1.20
6818.00,1.20
6817.00,1.20
6816.00,1.20
6815.00,1.20
6814.00,1.20
6813.00,1.20
6812.00,1.20
6811.00,1.20
6810.00,1.20
6809.00,1.20
6808.00,1.20
6807.00,1.20
6806.00,1.20
6805.00,1.20
6804.00,1.20
6803.00,1.20
6802.00,1.20
6801.00,1.20
6800.00,1.20
6799.00,1.20
6798.00,1.20
6797.00,1.20
6796.00,1.20
6795.00,1.20
6794.00,1.20
6793.00,1.20
6792.00,1.20
6791.00,1.20
6790.00,1.20
6789.00,1.20
6788.00,1.20
6787.00,1.20
6786.00,1.20
6785.00,1.20
6784.00,1.21
6783.00,1.21
6782.00,1.21
6781.00,1.21
6780.00,1.21
6779.00,1.21
6778.00,1.21
6777.00,1.21
6776.00,1.21
6775.00,1.22
6774.00,1.22
6773.00,1.22
6772.00,1.22
6771.00,1.22
6770.00,1.22
6769.00,1.23
6768.00,1.23
6767.00,1.23
6766.00,1.23
6765.00,1.23
6764.00,1.23
6763.00,1.23
6762.00,1.23
6761.00,1.23
6760.00,1.23
6759.00,1.23
6758.00,1.24
6757.00,1.24
6756.00,1.24
6755.00,1.24
6754.00,1.24
6753.00,1.24
6752.00,1.24
6751.00,1.24
6750.00,1.24
6749.00,1.24
6748.00,1.24
6747.00,1.25
6746.00,1.25
6745.00,1.25
6744.00,1.25
6743.00,1.25
6742.00,1.25
6741.00,1.25
6740.00,1.25
6739.00,1.26
6738.00,1.26
6737.00,1.26
6736.00,1.26
6735.00,1.26
6734.00,1.26
6733.00,1.26
6732.00,1.27
6731.00,1.27
6730.00,1.27
6729.00,1.27
6728.00,1.27
6727.00,1.27
6726.00,1.27
6725.00,1.27
6724.00,1.27
6723.00,1.27
6722.00,1.27
6721.00,1.28
6720.00,1.28
6719.00,1.28
6718.00,1.28
6717.00,1.28
6716.00,1.28
6715.00,1.28
6714.00,1.29
6713.00,1.29
6712.00,1.29
6711.00,1.29
6710.00,1.29
6709.00,1.29
6708.00,1.30
6707.00,1.30
6706.00,1.30
6705.00,1.30
6704.00,1.30
6703.00,1.31
6702.00,1.31
6701.00,1.31
6700.00,1.31
6699.00,1.32
6698.00,1.32
6697.00,1.32
6696.00,1.33
6695.00,1.33
6694.00,1.33
6693.00,1.33
6692.00,1.33
6691.00,1.34
6690.00,1.34
6689.00,1.34
6688.00,1.34
6687.00,1.34
6686.00,1.34
6685.00,1.34
6684.00,1.35
6683.00,1.35
6682.00,1.35
6681.00,1.35
6680.00,1.35
6679.00,1.35
6678.00,1.35
6677.00,1.36
6676.00,1.36
6675.00,1.36
6674.00,1.36
6673.00,1.36
6672.00,1.36
6671.00,1.36
6670.00,1.36
6669.00,1.36
6668.00,1.36
6667.00,1.36
6666.00,1.36
6665.00,1.36
6664.00,1.36
6663.00,1.36
6662.00,1.36
6661.00,1.36
6660.00,1.36
6659.00,1.37
6658.00,1.37
6657.00,1.37
6656.00,1.37
6655.00,1.37
6654.00,1.37
6653.00,1.37
6652.00,1.37
6651.00,1.37
6650.00,1.38
6649.00,1.38
6648.00,1.38
6647.00,1.38
6646.00,1.39
6645.00,1.39
6644.00,1.39
6643.00,1.39
6642.00,1.40
6641.00,1.40
6640.00,1.40
6639.00,1.40
6638.00,1.41
6637.00,1.41
6636.00,1.41
6635.00,1.41
6634.00,1.41
6633.00,1.42
6632.00,1.42
6631.00,1.42
6630.00,1.42
6629.00,1.42
6628.00,1.42
6627.00,1.42
6626.00,1.42
6625.00,1.42
6624.00,1.42
6623.00,1.42
6622.00,1.42
6621.00,1.42
6620.00,1.42
6619.00,1.42
6618.00,1.42
6617.00,1.42
6616.00,1.42
6615.00,1.42
6614.00,1.42
6613.00,1.42
6612.00,1.43
6611.00,1.43
6610.00,1.43
6609.00,1.43
6608.00,1.43
6607.00,1.43
6606.00,1.44
6605.00,1.44
6604.00,1.44
6603.00,1.44
6602.00,1.45
6601.00,1.45
6600.00,1.45
6599.00,1.45
6598.00,1.46
6597.00,1.46
6596.00,1.46
6595.00,1.47
6594.00,1.47
6593.00,1.47
6592.00,1.48
6591.00,1.48
6590.00,1.48
6589.00,1.48
6588.00,1.49
6587.00,1.49
6586.00,1.49
6585.00,1.49
6584.00,1.49
6583.00,1.49
6582.00,1.50
6581.00,1.50
6580.00,1.50
6579.00,1.50
6578.00,1.50
6577.00,1.50
6576.00,1.50
6575.00,1.50
6574.00,1.50
6573.00,1.50
6572.00,1.50
6571.00,1.51
6570.00,1.51
6569.00,1.51
6568.00,1.51
6567.00,1.51
6566.00,1.51
6565.00,1.51
6564.00,1.51
6563.00,1.51
6562.00,1.51
6561.00,1.51
6560.00,1.51
6559.00,1.51
6558.00,1.52
6557.00,1.52
6556.00,1.52
6555.00,1.52
6554.00,1.52
6553.00,1.52
6552.00,1.52
6551.00,1.52
6550.00,1.52
6549.00,1.53
6548.00,1.53
6547.00,1.53
6546.00,1.53
6545.00,1.53
6544.00,1.53
6543.00,1.53
6542.00,1.53
6541.00,1.53
6540.00,1.53
6539.00,1.53
6538.00,1.53
6537.00,1.53
6536.00,1.53
6535.00,1.53
6534.00,1.53
6533.00,1.53
6532.00,1.53
6531.00,1.54
6530.00,1.54
6529.00,1.54
6528.00,1.54
6527.00,1.54
6526.00,1.54
6525.00,1.54
6524.00,1.54
6523.00,1.54
6522.00,1.54
6521.00,1.54
6520.00,1.54
6519.00,1.54
6518.00,1.54
6517.00,1.55
6516.00,1.55
6515.00,1.55
6514.00,1.55
6513.00,1.55
6512.00,1.55
6511.00,1.55
6510.00,1.55
6509.00,1.55
6508.00,1.55
6507.00,1.55
6506.00,1.55
6505.00,1.55
6504.00,1.55
6503.00,1.55
6502.00,1.56
6501.00,1.56
6500.00,1.56
6499.00,1.56
6498.00,1.56
6497.00,1.56
6496.00,1.56
6495.00,1.56
6494.00,1.56
6493.00,1.56
6492.00,1.56
6491.00,1.56
6490.00,1.56
6489.00,1.56
6488.00,1.56
6487.00,1.57
6486.00,1.57
6485.00,1.57
6484.00,1.57
6483.00,1.57
6482.00,1.57
6481.00,1.57
6480.00,1.57
6479.00,1.57
6478.00,1.57
6477.00,1.58
6476.00,1.58
6475.00,1.58
6474.00,1.58
6473.00,1.58
6472.00,1.58
6471.00,1.58
6470.00,1.59
6469.00,1.59
6468.00,1.59
6467.00,1.59
6466.00,1.59
6465.00,1.59
6464.00,1.59
6463.00,1.60
6462.00,1.60
6461.00,1.60
6460.00,1.60
6459.00,1.60
6458.00,1.60
6457.00,1.61
6456.00,1.61
6455.00,1.61
6454.00,1.61
6453.00,1.61
6452.00,1.62
6451.00,1.62
6450.00,1.62
6449.00,1.62
6448.00,1.63
6447.00,1.63
6446.00,1.63
6445.00,1.64
6444.00,1.64
6443.00,1.64
6442.00,1.64
6441.00,1.64
6440.00,1.65
6439.00,1.65
6438.00,1.65
6437.00,1.65
6436.00,1.66
6435.00,1.66
6434.00,1.66
6433.00,1.66
6432.00,1.66
6431.00,1.67
6430.00,1.67
6429.00,1.67
6428.00,1.67
6427.00,1.67
6426.00,1.67
6425.00,1.67
6424.00,1.67
6423.00,1.67
6422.00,1.67
6421.00,1.67
6420.00,1.67
6419.00,1.67
6418.00,1.67
6417.00,1.67
6416.00,1.67
6415.00,1.67
6414.00,1.67
6413.00,1.67
6412.00,1.67
6411.00,1.67
6410.00,1.67
6409.00,1.67
6408.00,1.67
6407.00,1.67
6406.00,1.66
6405.00,1.66
6404.00,1.66
6403.00,1.66
6402.00,1.66
6401.00,1.66
6400.00,1.66
6399.00,1.66
6398.00,1.67
6397.00,1.67
6396.00,1.67
6395.00,1.67
6394.00,1.67
6393.00,1.67
6392.00,1.67
6391.00,1.67
6390.00,1.67
6389.00,1.67
6388.00,1.67
6387.00,1.67
6386.00,1.68
6385.00,1.68
6384.00,1.68
6383.00,1.68
6382.00,1.68
6381.00,1.68
6380.00,1.68
6379.00,1.69
6378.00,1.69
6377.00,1.69
6376.00,1.69
6375.00,1.69
6374.00,1.69
6373.00,1.69
6372.00,1.69
6371.00,1.69
6370.00,1.69
6369.00,1.69
6368.00,1.69
6367.00,1.69
6366.00,1.69
6365.00,1.69
6364.00,1.70
6363.00,1.70
6362.00,1.70
6361.00,1.70
6360.00,1.70
6359.00,1.70
6358.00,1.70
6357.00,1.70
6356.00,1.70
6355.00,1.70
6354.00,1.70
6353.00,1.70
6352.00,1.70
6351.00,1.70
6350.00,1.70
6349.00,1.70
6348.00,1.70
6347.00,1.70
6346.00,1.70
6345.00,1.70
6344.00,1.70
6343.00,1.70
6342.00,1.71
6341.00,1.71
6340.00,1.71
6339.00,1.71
6338.00,1.71
6337.00,1.71
6336.00,1.71
6335.00,1.72
6334.00,1.72
6333.00,1.72
6332.00,1.72
6331.00,1.72
6330.00,1.72
6329.00,1.72
6328.00,1.72
6327.00,1.72
6326.00,1.73
6325.00,1.73
6324.00,1.73
6323.00,1.73
6322.00,1.74
6321.00,1.74
6320.00,1.74
6319.00,1.74
6318.00,1.74
6317.00,1.75
6316.00,1.75
6315.00,1.75
6314.00,1.75
6313.00,1.75
6312.00,1.75
6311.00,1.76
6310.00,1.76
6309.00,1.76
6308.00,1.76
6307.00,1.77
6306.00,1.77
6305.00,1.77
6304.00,1.77
6303.00,1.78
6302.00,1.78
6301.00,1.78
6300.00,1.78
6299.00,1.78
6298.00,1.78
6297.00,1.79
6296.00,1.79
6295.00,1.79
6294.00,1.79
6293.00,1.79
6292.00,1.79
6291.00,1.79
6290.00,1.79
6289.00,1.79
6288.00,1.79
6287.00,1.79
6286.00,1.79
6285.00,1.79
6284.00,1.79
6283.00,1.79
6282.00,1.79
6281.00,1.79
6280.00,1.79
6279.00,1.79
6278.00,1.79
6277.00,1.79
6276.00,1.79
6275.00,1.79
6274.00,1.79
6273.00,1.79
6272.00,1.79
6271.00,1.79
6270.00,1.80
6269.00,1.80
6268.00,1.80
6267.00,1.80
6266.00,1.80
6265.00,1.80
6264.00,1.80
6263.00,1.80
6262.00,1.80
6261.00,1.80
6260.00,1.81
6259.00,1.81
6258.00,1.81
6257.00,1.81
6256.00,1.81
6255.00,1.81
6254.00,1.81
6253.00,1.81
6252.00,1.81
6251.00,1.82
6250.00,1.82
6249.00,1.82
6248.00,1.82
6247.00,1.82
6246.00,1.82
6245.00,1.82
6244.00,1.82
6243.00,1.82
6242.00,1.82
6241.00,1.82
6240.00,1.82
6239.00,1.82
6238.00,1.82
6237.00,1.82
6236.00,1.82
6235.00,1.82
6234.00,1.82
6233.00,1.82
6232.00,1.82
6231.00,1.82
6230.00,1.82
6229.00,1.82
6228.00,1.82
6227.00,1.82
6226.00,1.82
6225.00,1.82
6224.00,1.82
6223.00,1.83
6222.00,1.83
6221.00,1.83
6220.00,1.83
6219.00,1.83
6218.00,1.83
6217.00,1.83
6216.00,1.83
6215.00,1.84
6214.00,1.84
6213.00,1.84
6212.00,1.84
6211.00,1.84
6210.00,1.84
6209.00,1.85
6208.00,1.85
6207.00,1.85
6206.00,1.85
6205.00,1.85
6204.00,1.85
6203.00,1.86
6202.00,1.86
6201.00,1.86
6200.00,1.86
6199.00,1.86
6198.00,1.86
6197.00,1.86
6196.00,1.87
6195.00,1.87
6194.00,1.87
6193.00,1.87
6192.00,1.87
6191.00,1.87
6190.00,1.86
6189.00,1.86
6188.00,1.86
6187.00,1.86
6186.00,1.86
6185.00,1.86
6184.00,1.86
6183.00,1.86
6182.00,1.86
6181.00,1.86
6180.00,1.86
6179.00,1.86
6178.00,1.86
6177.00,1.86
6176.00,1.86
6175.00,1.86
6174.00,1.86
6173.00,1.86
6172.00,1.86
6171.00,1.86
6170.00,1.86
6169.00,1.86
6168.00,1.87
6167.00,1.87
6166.00,1.87
6165.00,1.87
6164.00,1.87
6163.00,1.88
6162.00,1.88
6161.00,1.88
6160.00,1.88
6159.00,1.88
6158.00,1.89
6157.00,1.89
6156.00,1.89
6155.00,1.89
6154.00,1.89
6153.00,1.90
6152.00,1.90
6151.00,1.90
6150.00,1.90
6149.00,1.90
6148.00,1.91
6147.00,1.91
6146.00,1.91
6145.00,1.91
6144.00,1.91
6143.00,1.91
6142.00,1.91
6141.00,1.91
6140.00,1.91
6139.00,1.91
6138.00,1.91
6137.00,1.91
6136.00,1.91
6135.00,1.91
6134.00,1.91
6133.00,1.91
6132.00,1.91
6131.00,1.91
6130.00,1.91
6129.00,1.91
6128.00,1.91
6127.00,1.91
6126.00,1.91
6125.00,1.91
6124.00,1.90
6123.00,1.90
6122.00,1.90
6121.00,1.90
6120.00,1.90
6119.00,1.90
6118.00,1.90
6117.00,1.90
6116.00,1.90
6115.00,1.90
6114.00,1.90
6113.00,1.90
6112.00,1.90
6111.00,1.90
6110.00,1.90
6109.00,1.90
6108.00,1.90
6107.00,1.90
6106.00,1.90
6105.00,1.90
6104.00,1.90
6103.00,1.90
6102.00,1.90
6101.00,1.90
6100.00,1.91
6099.00,1.91
6098.00,1.91
6097.00,1.91
6096.00,1.91
6095.00,1.92
6094.00,1.92
6093.00,1.92
6092.00,1.92
6091.00,1.93
6090.00,1.93
6089.00,1.93
6088.00,1.93
6087.00,1.93
6086.00,1.94
6085.00,1.94
6084.00,1.94
6083.00,1.94
6082.00,1.94
6081.00,1.94
6080.00,1.95
6079.00,1.95
6078.00,1.95
6077.00,1.95
6076.00,1.95
6075.00,1.95
6074.00,1.95
6073.00,1.95
6072.00,1.95
6071.00,1.95
6070.00,1.95
6069.00,1.96
6068.00,1.96
6067.00,1.96
6066.00,1.96
6065.00,1.96
6064.00,1.96
6063.00,1.96
6062.00,1.96
6061.00,1.96
6060.00,1.96
6059.00,1.96
6058.00,1.96
6057.00,1.96
6056.00,1.96
6055.00,1.96
6054.00,1.96
6053.00,1.96
6052.00,1.96
6051.00,1.96
6050.00,1.96
6049.00,1.96
6048.00,1.96
6047.00,1.96
6046.00,1.96
6045.00,1.96
6044.00,1.96
6043.00,1.96
6042.00,1.96
6041.00,1.96
6040.00,1.96
6039.00,1.96
6038.00,1.96
6037.00,1.96
6036.00,1.96
6035.00,1.96
6034.00,1.96
6033.00,1.96
6032.00,1.96
6031.00,1.96
6030.00,1.96
6029.00,1.96
6028.00,1.96
6027.00,1.96
6026.00,1.96
6025.00,1.96
6024.00,1.96
6023.00,1.96
6022.00,1.96
6021.00,1.96
6020.00,1.96
6019.00,1.96
6018.00,1.96
6017.00,1.96
6016.00,1.96
6015.00,1.96
6014.00,1.96
6013.00,1.96
6012.00,1.96
6011.00,1.96
6010.00,1.96
6009.00,1.96
6008.00,1.96
6007.00,1.96
6006.00,1.96
6005.00,1.96
6004.00,1.96
6003.00,1.96
6002.00,1.96
6001.00,1.95
6000.00,1.95
5999.00,1.95
5998.00,1.95
5997.00,1.95
5996.00,1.95
5995.00,1.95
5994.00,1.95
5993.00,1.95
5992.00,1.94
5991.00,1.94
5990.00,1.94
5989.00,1.94
5988.00,1.94
5987.00,1.94
5986.00,1.94
5985.00,1.94
5984.00,1.94
5983.00,1.94
5982.00,1.94
5981.00,1.94
5980.00,1.94
5979.00,1.94
5978.00,1.94
5977.00,1.93
5976.00,1.93
5975.00,1.93
5974.00,1.93
5973.00,1.93
5972.00,1.93
5971.00,1.93
5970.00,1.93
5969.00,1.92
5968.00,1.92
5967.00,1.92
5966.00,1.92
5965.00,1.92
5964.00,1.92
5963.00,1.91
5962.00,1.91
5961.00,1.91
5960.00,1.90
5959.00,1.90
5958.00,1.90
5957.00,1.89
5956.00,1.89
5955.00,1.89
5954.00,1.89
5953.00,1.88
5952.00,1.88
5951.00,1.88
5950.00,1.88
5949.00,1.87
5948.00,1.87
5947.00,1.87
5946.00,1.87
5945.00,1.86
5944.00,1.86
5943.00,1.86
5942.00,1.86
5941.00,1.86
5940.00,1.86
5939.00,1.86
5938.00,1.85
5937.00,1.85
5936.00,1.85
5935.00,1.85
5934.00,1.85
5933.00,1.85
5932.00,1.85
5931.00,1.86
5930.00,1.86
5929.00,1.86
5928.00,1.86
5927.00,1.86
5926.00,1.86
5925.00,1.86
5924.00,1.86
5923.00,1.86
5922.00,1.86
5921.00,1.86
5920.00,1.86
5919.00,1.86
5918.00,1.86
5917.00,1.86
5916.00,1.86
5915.00,1.86
5914.00,1.86
5913.00,1.86
5912.00,1.86
5911.00,1.86
5910.00,1.86
5909.00,1.86
5908.00,1.86
5907.00,1.86
5906.00,1.86
5905.00,1.86
5904.00,1.86
5903.00,1.86
5902.00,1.86
5901.00,1.86
5900.00,1.86
5899.00,1.86
5898.00,1.86
5897.00,1.86
5896.00,1.86
5895.00,1.86
5894.00,1.86
5893.00,1.86
5892.00,1.86
5891.00,1.86
5890.00,1.86
5889.00,1.86
5888.00,1.86
5887.00,1.86
5886.00,1.86
5885.00,1.86
5884.00,1.86
5883.00,1.86
5882.00,1.86
5881.00,1.86
5880.00,1.86
5879.00,1.86
5878.00,1.86
5877.00,1.86
5876.00,1.86
5875.00,1.87
5874.00,1.87
5873.00,1.87
5872.00,1.87
5871.00,1.87
5870.00,1.87
5869.00,1.87
5868.00,1.88
5867.00,1.88
5866.00,1.88
5865.00,1.88
5864.00,1.88
5863.00,1.88
5862.00,1.89
5861.00,1.89
5860.00,1.89
5859.00,1.89
5858.00,1.89
5857.00,1.89
5856.00,1.90
5855.00,1.90
5854.00,1.90
5853.00,1.90
5852.00,1.90
5851.00,1.90
5850.00,1.90
5849.00,1.90
5848.00,1.90
5847.00,1.91
5846.00,1.91
5845.00,1.91
5844.00,1.91
5843.00,1.91
5842.00,1.91
5841.00,1.91
5840.00,1.91
5839.00,1.91
5838.00,1.91
5837.00,1.91
5836.00,1.91
5835.00,1.91
5834.00,1.91
5833.00,1.91
5832.00,1.91
5831.00,1.91
5830.00,1.91
5829.00,1.91
5828.00,1.91
5827.00,1.91
5826.00,1.91
5825.00,1.92
5824.00,1.92
5823.00,1.92
5822.00,1.92
5821.00,1.92
5820.00,1.91
5819.00,1.91
5818.00,1.91
5817.00,1.91
5816.00,1.91
5815.00,1.91
5814.00,1.91
5813.00,1.91
5812.00,1.91
5811.00,1.91
5810.00,1.91
5809.00,1.91
5808.00,1.91
5807.00,1.90
5806.00,1.90
5805.00,1.90
5804.00,1.90
5803.00,1.90
5802.00,1.89
5801.00,1.89
5800.00,1.89
5799.00,1.89
5798.00,1.89
5797.00,1.88
5796.00,1.88
5795.00,1.88
5794.00,1.88
5793.00,1.88
5792.00,1.87
5791.00,1.87
5790.00,1.87
5789.00,1.87
5788.00,1.86
5787.00,1.86
5786.00,1.86
5785.00,1.86
5784.00,1.86
5783.00,1.86
5782.00,1.86
5781.00,1.86
5780.00,1.86
5779.00,1.86
5778.00,1.86
5777.00,1.86
5776.00,1.86
5775.00,1.86
5774.00,1.86
5773.00,1.86
5772.00,1.86
5771.00,1.87
5770.00,1.87
5769.00,1.87
5768.00,1.87
5767.00,1.87
5766.00,1.88
5765.00,1.88
5764.00,1.88
5763.00,1.88
5762.00,1.88
5761.00,1.89
5760.00,1.89
5759.00,1.89
5758.00,1.89
5757.00,1.89
5756.00,1.90
5755.00,1.90
5754.00,1.90
5753.00,1.90
5752.00,1.90
5751.00,1.90
5750.00,1.90
5749.00,1.90
5748.00,1.90
5747.00,1.90
5746.00,1.90
5745.00,1.90
5744.00,1.90
5743.00,1.90
5742.00,1.90
5741.00,1.90
5740.00,1.90
5739.00,1.90
5738.00,1.90
5737.00,1.90
5736.00,1.90
5735.00,1.90
5734.00,1.90
5733.00,1.90
5732.00,1.90
5731.00,1.90
5730.00,1.90
5729.00,1.90
5728.00,1.90
5727.00,1.90
5726.00,1.90
5725.00,1.91
5724.00,1.91
5723.00,1.91
5722.00,1.91
5721.00,1.91
5720.00,1.91
5719.00,1.91
5718.00,1.91
5717.00,1.91
5716.00,1.91
5715.00,1.91
5714.00,1.91
5713.00,1.91
5712.00,1.91
5711.00,1.91
5710.00,1.91
5709.00,1.91
5708.00,1.91
5707.00,1.91
5706.00,1.91
5705.00,1.91
5704.00,1.91
5703.00,1.90
5702.00,1.90
5701.00,1.90
5700.00,1.90
5699.00,1.90
5698.00,1.90
5697.00,1.90
5696.00,1.90
5695.00,1.90
5694.00,1.90
5693.00,1.90
5692.00,1.90
5691.00,1.90
5690.00,1.90
5689.00,1.90
5688.00,1.90
5687.00,1.90
5686.00,1.90
5685.00,1.90
5684.00,1.90
5683.00,1.90
5682.00,1.90
5681.00,1.90
5680.00,1.90
5679.00,1.90
5678.00,1.90
5677.00,1.90
5676.00,1.90
5675.00,1.90
5674.00,1.90
5673.00,1.90
5672.00,1.90
5671.00,1.90
5670.00,1.90
5669.00,1.90
5668.00,1.90
5667.00,1.90
5666.00,1.90
5665.00,1.90
5664.00,1.90
5663.00,1.90
5662.00,1.90
5661.00,1.89
5660.00,1.89
5659.00,1.89
5658.00,1.89
5657.00,1.89
5656.00,1.89
5655.00,1.89
5654.00,1.89
5653.00,1.88
5652.00,1.88
5651.00,1.88
5650.00,1.88
5649.00,1.88
5648.00,1.88
5647.00,1.87
5646.00,1.87
5645.00,1.87
5644.00,1.87
5643.00,1.87
5642.00,1.87
5641.00,1.87
5640.00,1.87
5639.00,1.86
5638.00,1.86
5637.00,1.86
5636.00,1.86
5635.00,1.86
5634.00,1.86
5633.00,1.86
5632.00,1.86
5631.00,1.86
5630.00,1.86
5629.00,1.87
5628.00,1.87
5627.00,1.87
5626.00,1.87
5625.00,1.87
5624.00,1.87
5623.00,1.87
5622.00,1.88
5621.00,1.88
5620.00,1.88
5619.00,1.88
5618.00,1.88
5617.00,1.88
5616.00,1.89
5615.00,1.89
5614.00,1.89
5613.00,1.89
5612.00,1.89
5611.00,1.89
5610.00,1.90
5609.00,1.90
5608.00,1.90
5607.00,1.90
5606.00,1.90
5605.00,1.90
5604.00,1.90
5603.00,1.90
5602.00,1.90
5601.00,1.90
5600.00,1.90
5599.00,1.90
5598.00,1.90
5597.00,1.90
5596.00,1.90
5595.00,1.90
5594.00,1.90
5593.00,1.90
5592.00,1.90
5591.00,1.90
5590.00,1.90
5589.00,1.90
5588.00,1.90
5587.00,1.90
5586.00,1.90
5585.00,1.90
5584.00,1.90
5583.00,1.90
5582.00,1.90
5581.00,1.91
5580.00,1.91
5579.00,1.91
5578.00,1.91
5577.00,1.91
5576.00,1.91
5575.00,1.91
5574.00,1.92
5573.00,1.92
5572.00,1.92
5571.00,1.92
5570.00,1.92
5569.00,1.93
5568.00,1.93
5567.00,1.93
5566.00,1.93
5565.00,1.93
5564.00,1.93
5563.00,1.94
5562.00,1.94
5561.00,1.94
5560.00,1.94
5559.00,1.94
5558.00,1.94
5557.00,1.95
5556.00,1.95
5555.00,1.95
5554.00,1.95
5553.00,1.95
5552.00,1.95
5551.00,1.95
5550.00,1.95
5549.00,1.95
5548.00,1.95
5547.00,1.95
5546.00,1.95
5545.00,1.95
5544.00,1.95
5543.00,1.96
5542.00,1.96
5541.00,1.96
5540.00,1.96
5539.00,1.96
5538.00,1.96
5537.00,1.96
5536.00,1.96
5535.00,1.96
5534.00,1.96
5533.00,1.96
5532.00,1.96
5531.00,1.96
5530.00,1.96
5529.00,1.96
5528.00,1.96
5527.00,1.96
5526.00,1.96
5525.00,1.96
5524.00,1.96
5523.00,1.96
5522.00,1.96
5521.00,1.95
5520.00,1.95
5519.00,1.95
5518.00,1.95
5517.00,1.95
5516.00,1.95
5515.00,1.94
5514.00,1.94
5513.00,1.94
5512.00,1.94
5511.00,1.94
5510.00,1.93
5509.00,1.93
5508.00,1.93
5507.00,1.93
5506.00,1.93
5505.00,1.93
5504.00,1.93
5503.00,1.93
5502.00,1.93
5501.00,1.92
5500.00,1.92
5499.00,1.92
5498.00,1.92
5497.00,1.92
5496.00,1.92
5495.00,1.92
5494.00,1.92
5493.00,1.92
5492.00,1.92
5491.00,1.92
5490.00,1.92
5489.00,1.93
5488.00,1.93
5487.00,1.93
5486.00,1.93
5485.00,1.93
5484.00,1.93
5483.00,1.93
5482.00,1.93
5481.00,1.93
5480.00,1.93
5479.00,1.93
5478.00,1.93
5477.00,1.93
5476.00,1.93
5475.00,1.93
5474.00,1.93
5473.00,1.94
5472.00,1.94
5471.00,1.94
5470.00,1.94
5469.00,1.94
5468.00,1.94
5467.00,1.94
5466.00,1.94
5465.00,1.94
5464.00,1.94
5463.00,1.94
5462.00,1.94
5461.00,1.94
5460.00,1.94
5459.00,1.94
5458.00,1.94
5457.00,1.94
5456.00,1.94
5455.00,1.94
5454.00,1.94
5453.00,1.94
5452.00,1.94
5451.00,1.94
5450.00,1.94
5449.00,1.94
5448.00,1.94
5447.00,1.94
5446.00,1.94
5445.00,1.94
5444.00,1.94
5443.00,1.94
5442.00,1.94
5441.00,1.94
5440.00,1.95
5439.00,1.95
5438.00,1.95
5437.00,1.95
5436.00,1.95
5435.00,1.95
5434.00,1.95
5433.00,1.95
5432.00,1.95
5431.00,1.95
5430.00,1.96
5429.00,1.96
5428.00,1.96
5427.00,1.96
5426.00,1.96
5425.00,1.96
5424.00,1.96
5423.00,1.96
5422.00,1.96
5421.00,1.96
5420.00,1.96
5419.00,1.96
5418.00,1.96
5417.00,1.96
5416.00,1.96
5415.00,1.96
5414.00,1.96
5413.00,1.96
5412.00,1.96
5411.00,1.96
5410.00,1.96
5409.00,1.96
5408.00,1.95
5407.00,1.95
5406.00,1.95
5405.00,1.95
5404.00,1.94
5403.00,1.94
5402.00,1.94
5401.00,1.93
5400.00,1.93
5399.00,1.93
5398.00,1.93
5397.00,1.92
5396.00,1.92
5395.00,1.92
5394.00,1.91
5393.00,1.91
5392.00,1.91
5391.00,1.90
5390.00,1.90
5389.00,1.90
5388.00,1.90
5387.00,1.89
5386.00,1.89
5385.00,1.89
5384.00,1.89
5383.00,1.88
5382.00,1.88
5381.00,1.88
5380.00,1.88
5379.00,1.88
5378.00,1.87
5377.00,1.87
5376.00,1.87
5375.00,1.87
5374.00,1.86
5373.00,1.86
5372.00,1.86
5371.00,1.86
5370.00,1.85
5369.00,1.85
5368.00,1.85
5367.00,1.84
5366.00,1.84
5365.00,1.84
5364.00,1.83
5363.00,1.83
5362.00,1.82
5361.00,1.81
5360.00,1.81
5359.00,1.80
5358.00,1.80
5357.00,1.79
5356.00,1.78
5355.00,1.78
5354.00,1.77
5353.00,1.76
5352.00,1.75
5351.00,1.74
5350.00,1.73
5349.00,1.73
5348.00,1.72
5347.00,1.71
5346.00,1.70
5345.00,1.69
5344.00,1.68
5343.00,1.67
5342.00,1.66
5341.00,1.65
5340.00,1.64
5339.00,1.63
5338.00,1.62
5337.00,1.60
5336.00,1.59
5335.00,1.58
5334.00,1.57
5333.00,1.56
5332.00,1.55
5331.00,1.54
5330.00,1.53
5329.00,1.51
5328.00,1.50
5327.00,1.49
5326.00,1.48
5325.00,1.47
5324.00,1.45
5323.00,1.44
5322.00,1.43
5321.00,1.41
5320.00,1.40
5319.00,1.39
5318.00,1.38
5317.00,1.36
5316.00,1.35
5315.00,1.34
5314.00,1.33
5313.00,1.31
5312.00,1.30
5311.00,1.29
5310.00,1.28
5309.00,1.26
5308.00,1.25
5307.00,1.24
5306.00,1.23
5305.00,1.22
5304.00,1.20
5303.00,1.19
5302.00,1.18
5301.00,1.17
5300.00,1.16
5299.00,1.15
5298.00,1.14
5297.00,1.13
5296.00,1.12
5295.00,1.11
5294.00,1.10
5293.00,1.09
5292.00,1.08
5291.00,1.07
5290.00,1.06
5289.00,1.05
5288.00,1.05
5287.00,1.04
5286.00,1.03
5285.00,1.02
5284.00,1.01
5283.00,1.00
5282.00,0.99
5281.00,0.98
5280.00,0.97
5279.00,0.96
5278.00,0.96
5277.00,0.95
5276.00,0.94
5275.00,0.93
5274.00,0.92
5273.00,0.92
5272.00,0.91
5271.00,0.90
5270.00,0.89
5269.00,0.89
5268.00,0.88
5267.00,0.87
5266.00,0.87
5265.00,0.86
5264.00,0.85
5263.00,0.84
5262.00,0.84
5261.00,0.83
5260.00,0.83
5259.00,0.82
5258.00,0.82
5257.00,0.81
5256.00,0.81
5255.00,0.81
5254.00,0.80
5253.00,0.80
5252.00,0.79
5251.00,0.79
5250.00,0.79
5249.00,0.78
5248.00,0.78
5247.00,0.78
5246.00,0.77
5245.00,0.77
5244.00,0.77
5243.00,0.76
5242.00,0.76
5241.00,0.76
5240.00,0.76
5239.00,0.75
5238.00,0.75
5237.00,0.75
5236.00,0.75
5235.00,0.75
5234.00,0.75
5233.00,0.75
5232.00,0.75
5231.00,0.75
5230.00,0.74
5229.00,0.74
5228.00,0.74
5227.00,0.74
5226.00,0.74
5225.00,0.74
5224.00,0.74
5223.00,0.73
5222.00,0.73
5221.00,0.73
5220.00,0.73
5219.00,0.73
5218.00,0.73
5217.00,0.73
5216.00,0.73
5215.00,0.73
5214.00,0.73
5213.00,0.72
5212.00,0.72
5211.00,0.72
5210.00,0.72
5209.00,0.72
5208.00,0.72
5207.00,0.71
5206.00,0.71
5205.00,0.71
5204.00,0.71
5203.00,0.71
5202.00,0.71
5201.00,0.70
5200.00,0.70
5199.00,0.70
5198.00,0.70
5197.00,0.70
5196.00,0.70
5195.00,0.70
5194.00,0.70
5193.00,0.70
5192.00,0.70
5191.00,0.70
5190.00,0.70
5189.00,0.70
5188.00,0.70
5187.00,0.70
5186.00,0.71
5185.00,0.71
5184.00,0.71
5183.00,0.71
5182.00,0.71
5181.00,0.71
5180.00,0.71
5179.00,0.71
5178.00,0.71
5177.00,0.72
5176.00,0.72
5175.00,0.72
5174.00,0.72
5173.00,0.72
5172.00,0.72
5171.00,0.73
5170.00,0.73
5169.00,0.73
5168.00,0.73
5167.00,0.73
5166.00,0.73
5165.00,0.73
5164.00,0.73
5163.00,0.73
5162.00,0.73
5161.00,0.73
5160.00,0.73
5159.00,0.73
5158.00,0.73
5157.00,0.73
5156.00,0.73
5155.00,0.73
5154.00,0.73
5153.00,0.73
5152.00,0.73
5151.00,0.73
5150.00,0.73
5149.00,0.73
5148.00,0.73
5147.00,0.73
5146.00,0.73
5145.00,0.73
5144.00,0.73
5143.00,0.73
5142.00,0.73
5141.00,0.73
5140.00,0.73
5139.00,0.73
5138.00,0.73
5137.00,0.73
5136.00,0.73
5135.00,0.73
5134.00,0.73
5133.00,0.73
5132.00,0.73
5131.00,0.73
5130.00,0.73
5129.00,0.73
5128.00,0.73
5127.00,0.73
5126.00,0.73
5125.00,0.73
5124.00,0.73
5123.00,0.73
5122.00,0.73
5121.00,0.73
5120.00,0.73
5119.00,0.73
5118.00,0.74
5117.00,0.74
5116.00,0.74
5115.00,0.74
5114.00,0.74
5113.00,0.74
5112.00,0.74
5111.00,0.75
5110.00,0.75
5109.00,0.75
5108.00,0.75
5107.00,0.76
5106.00,0.76
5105.00,0.76
5104.00,0.76
5103.00,0.77
5102.00,0.77
5101.00,0.77
5100.00,0.78
5099.00,0.78
5098.00,0.78
5097.00,0.78
5096.00,0.79
5095.00,0.79
5094.00,0.79
5093.00,0.79
5092.00,0.80
5091.00,0.80
5090.00,0.80
5089.00,0.80
5088.00,0.80
5087.00,0.81
5086.00,0.81
5085.00,0.81
5084.00,0.81
5083.00,0.81
5082.00,0.81
5081.00,0.81
5080.00,0.82
5079.00,0.82
5078.00,0.82
5077.00,0.82
5076.00,0.82
5075.00,0.82
5074.00,0.83
5073.00,0.83
5072.00,0.83
5071.00,0.83
5070.00,0.83
5069.00,0.83
5068.00,0.84
5067.00,0.84
5066.00,0.84
5065.00,0.84
5064.00,0.84
5063.00,0.85
5062.00,0.85
5061.00,0.85
5060.00,0.86
5059.00,0.86
5058.00,0.86
5057.00,0.87
5056.00,0.87
5055.00,0.87
5054.00,0.88
5053.00,0.88
5052.00,0.88
5051.00,0.88
5050.00,0.89
5049.00,0.89
5048.00,0.89
5047.00,0.89
5046.00,0.90
5045.00,0.90
5044.00,0.90
5043.00,0.90
5042.00,0.91
5041.00,0.91
5040.00,0.91
5039.00,0.91
5038.00,0.92
5037.00,0.92
5036.00,0.92
5035.00,0.92
5034.00,0.93
5033.00,0.93
5032.00,0.93
5031.00,0.93
5030.00,0.93
5029.00,0.93
5028.00,0.94
5027.00,0.94
5026.00,0.94
5025.00,0.94
5024.00,0.94
5023.00,0.95
5022.00,0.95
5021.00,0.95
5020.00,0.96
5019.00,0.96
5018.00,0.96
5017.00,0.96
5016.00,0.97
5015.00,0.97
5014.00,0.97
5013.00,0.97
5012.00,0.98
5011.00,0.98
5010.00,0.98
5009.00,0.99
5008.00,0.99
5007.00,0.99
5006.00,1.00
5005.00,1.00
5004.00,1.00
5003.00,1.01
5002.00,1.01
5001.00,1.02
5000.00,1.02
4999.00,1.03
4998.00,1.03
4997.00,1.03
4996.00,1.04
4995.00,1.04
4994.00,1.04
4993.00,1.05
4992.00,1.05
4991.00,1.06
4990.00,1.06
4989.00,1.06
4988.00,1.07
4987.00,1.07
4986.00,1.07
4985.00,1.08
4984.00,1.08
4983.00,1.08
4982.00,1.08
4981.00,1.09
4980.00,1.09
4979.00,1.09
4978.00,1.09
4977.00,1.09
4976.00,1.09
4975.00,1.09
4974.00,1.09
4973.00,1.09
4972.00,1.10
4971.00,1.10
4970.00,1.10
4969.00,1.10
4968.00,1.10
4967.00,1.10
4966.00,1.10
4965.00,1.11
4964.00,1.11
4963.00,1.11
4962.00,1.11
4961.00,1.11
4960.00,1.11
4959.00,1.11
4958.00,1.11
4957.00,1.12
4956.00,1.12
4955.00,1.12
4954.00,1.12
4953.00,1.12
4952.00,1.12
4951.00,1.13
4950.00,1.13
4949.00,1.13
4948.00,1.13
4947.00,1.13
4946.00,1.14
4945.00,1.14
4944.00,1.14
4943.00,1.14
4942.00,1.14
4941.00,1.15
4940.00,1.15
4939.00,1.15
4938.00,1.15
4937.00,1.15
4936.00,1.15
4935.00,1.16
4934.00,1.16
4933.00,1.16
4932.00,1.16
4931.00,1.16
4930.00,1.16
4929.00,1.17
4928.00,1.17
4927.00,1.17
4926.00,1.17
4925.00,1.17
4924.00,1.17
4923.00,1.17
4922.00,1.18
4921.00,1.18
4920.00,1.18
4919.00,1.18
4918.00,1.18
4917.00,1.19
4916.00,1.19
4915.00,1.19
4914.00,1.19
4913.00,1.19
4912.00,1.19
4911.00,1.20
4910.00,1.20
4909.00,1.20
4908.00,1.20
4907.00,1.20
4906.00,1.21
4905.00,1.21
4904.00,1.21
4903.00,1.21
4902.00,1.22
4901.00,1.22
4900.00,1.22
4899.00,1.22
4898.00,1.23
4897.00,1.23
4896.00,1.23
4895.00,1.24
4894.00,1.24
4893.00,1.24
4892.00,1.24
4891.00,1.24
4890.00,1.25
4889.00,1.25
4888.00,1.25
4887.00,1.26
4886.00,1.26
4885.00,1.26
4884.00,1.27
4883.00,1.27
4882.00,1.27
4881.00,1.28
4880.00,1.28
4879.00,1.28
4878.00,1.28
4877.00,1.29
4876.00,1.29
4875.00,1.29
4874.00,1.29
4873.00,1.30
4872.00,1.30
4871.00,1.30
4870.00,1.30
4869.00,1.31
4868.00,1.31
4867.00,1.31
4866.00,1.32
4865.00,1.32
4864.00,1.33
4863.00,1.33
4862.00,1.33
4861.00,1.33
4860.00,1.34
4859.00,1.34
4858.00,1.34
4857.00,1.34
4856.00,1.35
4855.00,1.35
4854.00,1.35
4853.00,1.36
4852.00,1.36
4851.00,1.36
4850.00,1.37
4849.00,1.37
4848.00,1.37
4847.00,1.37
4846.00,1.38
4845.00,1.38
4844.00,1.38
4843.00,1.38
4842.00,1.38
4841.00,1.38
4840.00,1.39
4839.00,1.39
4838.00,1.39
4837.00,1.39
4836.00,1.39
4835.00,1.39
4834.00,1.39
4833.00,1.39
4832.00,1.39
4831.00,1.39
4830.00,1.39
4829.00,1.39
4828.00,1.39
4827.00,1.39
4826.00,1.40
4825.00,1.40
4824.00,1.40
4823.00,1.40
4822.00,1.40
4821.00,1.40
4820.00,1.40
4819.00,1.40
4818.00,1.40
4817.00,1.41
4816.00,1.41
4815.00,1.41
4814.00,1.41
4813.00,1.41
4812.00,1.42
4811.00,1.42
4810.00,1.42
4809.00,1.42
4808.00,1.43
4807.00,1.43
4806.00,1.44
4805.00,1.44
4804.00,1.44
4803.00,1.45
4802.00,1.45
4801.00,1.46
4800.00,1.46
4799.00,1.46
4798.00,1.47
4797.00,1.47
4796.00,1.48
4795.00,1.48
4794.00,1.49
4793.00,1.49
4792.00,1.49
4791.00,1.50
4790.00,1.50
4789.00,1.51
4788.00,1.51
4787.00,1.52
4786.00,1.52
4785.00,1.53
4784.00,1.53
4783.00,1.53
4782.00,1.54
4781.00,1.54
4780.00,1.54
4779.00,1.54
4778.00,1.54
4777.00,1.55
4776.00,1.55
4775.00,1.55
4774.00,1.55
4773.00,1.55
4772.00,1.55
4771.00,1.55
4770.00,1.55
4769.00,1.55
4768.00,1.55
4767.00,1.55
4766.00,1.55
4765.00,1.55
4764.00,1.55
4763.00,1.55
4762.00,1.55
4761.00,1.55
4760.00,1.55
4759.00,1.55
4758.00,1.55
4757.00,1.56
4756.00,1.56
4755.00,1.56
4754.00,1.56
4753.00,1.56
4752.00,1.57
4751.00,1.57
4750.00,1.57
4749.00,1.58
4748.00,1.58
4747.00,1.59
4746.00,1.59
4745.00,1.60
4744.00,1.60
4743.00,1.60
4742.00,1.61
4741.00,1.61
4740.00,1.62
4739.00,1.62
4738.00,1.63
4737.00,1.63
4736.00,1.64
4735.00,1.64
4734.00,1.64
4733.00,1.65
4732.00,1.65
4731.00,1.66
4730.00,1.66
4729.00,1.67
4728.00,1.67
4727.00,1.68
4726.00,1.68
4725.00,1.68
4724.00,1.69
4723.00,1.69
4722.00,1.69
4721.00,1.70
4720.00,1.70
4719.00,1.70
4718.00,1.70
4717.00,1.71
4716.00,1.71
4715.00,1.71
4714.00,1.71
4713.00,1.72
4712.00,1.72
4711.00,1.72
4710.00,1.72
4709.00,1.73
4708.00,1.73
4707.00,1.73
4706.00,1.73
4705.00,1.74
4704.00,1.74
4703.00,1.74
4702.00,1.74
4701.00,1.74
4700.00,1.75
4699.00,1.75
4698.00,1.75
4697.00,1.75
4696.00,1.76
4695.00,1.76
4694.00,1.76
4693.00,1.76
4692.00,1.77
4691.00,1.77
4690.00,1.77
4689.00,1.78
4688.00,1.78
4687.00,1.79
4686.00,1.79
4685.00,1.79
4684.00,1.80
4683.00,1.80
4682.00,1.80
4681.00,1.80
4680.00,1.81
4679.00,1.81
4678.00,1.81
4677.00,1.81
4676.00,1.82
4675.00,1.82
4674.00,1.82
4673.00,1.82
4672.00,1.83
4671.00,1.83
4670.00,1.83
4669.00,1.83
4668.00,1.83
4667.00,1.83
4666.00,1.84
4665.00,1.84
4664.00,1.84
4663.00,1.84
4662.00,1.84
4661.00,1.84
4660.00,1.84
4659.00,1.84
4658.00,1.84
4657.00,1.84
4656.00,1.84
4655.00,1.84
4654.00,1.85
4653.00,1.85
4652.00,1.85
4651.00,1.85
4650.00,1.85
4649.00,1.86
4648.00,1.86
4647.00,1.86
4646.00,1.86
4645.00,1.86
4644.00,1.86
4643.00,1.87
4642.00,1.87
4641.00,1.87
4640.00,1.87
4639.00,1.87
4638.00,1.87
4637.00,1.88
4636.00,1.88
4635.00,1.88
4634.00,1.88
4633.00,1.88
4632.00,1.89
4631.00,1.89
4630.00,1.89
4629.00,1.89
4628.00,1.89
4627.00,1.89
4626.00,1.89
4625.00,1.89
4624.00,1.90
4623.00,1.90
4622.00,1.90
4621.00,1.90
4620.00,1.90
4619.00,1.90
4618.00,1.90
4617.00,1.90
4616.00,1.90
4615.00,1.90
4614.00,1.90
4613.00,1.90
4612.00,1.90
4611.00,1.90
4610.00,1.90
4609.00,1.90
4608.00,1.90
4607.00,1.90
4606.00,1.90
4605.00,1.90
4604.00,1.90
4603.00,1.90
4602.00,1.90
4601.00,1.90
4600.00,1.90
4599.00,1.90
4598.00,1.90
4597.00,1.90
4596.00,1.90
4595.00,1.90
4594.00,1.90
4593.00,1.90
4592.00,1.90
4591.00,1.90
4590.00,1.90
4589.00,1.90
4588.00,1.90
4587.00,1.90
4586.00,1.90
4585.00,1.90
4584.00,1.90
4583.00,1.90
4582.00,1.90
4581.00,1.90
4580.00,1.90
4579.00,1.90
4578.00,1.90
4577.00,1.90
4576.00,1.90
4575.00,1.90
4574.00,1.90
4573.00,1.90
4572.00,1.90
4571.00,1.90
4570.00,1.90
4569.00,1.90
4568.00,1.90
4567.00,1.90
4566.00,1.90
4565.00,1.90
4564.00,1.90
4563.00,1.90
4562.00,1.90
4561.00,1.90
4560.00,1.90
4559.00,1.89
4558.00,1.89
4557.00,1.89
4556.00,1.89
4555.00,1.89
4554.00,1.89
4553.00,1.89
4552.00,1.89
4551.00,1.89
4550.00,1.89
4549.00,1.90
4548.00,1.90
4547.00,1.90
4546.00,1.90
4545.00,1.90
4544.00,1.90
4543.00,1.90
4542.00,1.90
4541.00,1.90
4540.00,1.90
4539.00,1.90
4538.00,1.90
4537.00,1.90
4536.00,1.90
4535.00,1.91
4534.00,1.91
4533.00,1.91
4532.00,1.91
4531.00,1.91
4530.00,1.91
4529.00,1.92
4528.00,1.92
4527.00,1.92
4526.00,1.92
4525.00,1.92
4524.00,1.93
4523.00,1.93
4522.00,1.93
4521.00,1.93
4520.00,1.93
4519.00,1.93
4518.00,1.93
4517.00,1.94
4516.00,1.94
4515.00,1.94
4514.00,1.94
4513.00,1.94
4512.00,1.94
4511.00,1.94
4510.00,1.94
4509.00,1.94
4508.00,1.94
4507.00,1.93
4506.00,1.93
4505.00,1.93
4504.00,1.93
4503.00,1.93
4502.00,1.92
4501.00,1.92
4500.00,1.92
4499.00,1.92
4498.00,1.91
4497.00,1.91
4496.00,1.91
4495.00,1.91
4494.00,1.91
4493.00,1.90
4492.00,1.90
4491.00,1.90
4490.00,1.90
4489.00,1.90
4488.00,1.89
4487.00,1.89
4486.00,1.89
4485.00,1.89
4484.00,1.89
4483.00,1.89
4482.00,1.89
4481.00,1.89
4480.00,1.89
4479.00,1.89
4478.00,1.89
4477.00,1.89
4476.00,1.89
4475.00,1.89
4474.00,1.90
4473.00,1.90
4472.00,1.90
4471.00,1.90
4470.00,1.89
4469.00,1.89
4468.00,1.89
4467.00,1.89
4466.00,1.89
4465.00,1.89
4464.00,1.88
4463.00,1.88
4462.00,1.88
4461.00,1.88
4460.00,1.87
4459.00,1.87
4458.00,1.86
4457.00,1.86
4456.00,1.86
4455.00,1.85
4454.00,1.84
4453.00,1.84
4452.00,1.83
4451.00,1.82
4450.00,1.82
4449.00,1.81
4448.00,1.80
4447.00,1.79
4446.00,1.78
4445.00,1.77
4444.00,1.76
4443.00,1.75
4442.00,1.75
4441.00,1.74
4440.00,1.73
4439.00,1.72
4438.00,1.71
4437.00,1.69
4436.00,1.68
4435.00,1.67
4434.00,1.66
4433.00,1.65
4432.00,1.64
4431.00,1.63
4430.00,1.62
4429.00,1.61
4428.00,1.60
4427.00,1.59
4426.00,1.58
4425.00,1.57
4424.00,1.56
4423.00,1.55
4422.00,1.54
4421.00,1.53
4420.00,1.53
4419.00,1.52
4418.00,1.51
4417.00,1.51
4416.00,1.50
4415.00,1.50
4414.00,1.50
4413.00,1.49
4412.00,1.49
4411.00,1.49
4410.00,1.49
4409.00,1.49
4408.00,1.49
4407.00,1.49
4406.00,1.49
4405.00,1.49
4404.00,1.49
4403.00,1.50
4402.00,1.50
4401.00,1.51
4400.00,1.51
4399.00,1.52
4398.00,1.52
4397.00,1.53
4396.00,1.54
4395.00,1.54
4394.00,1.55
4393.00,1.56
4392.00,1.57
4391.00,1.57
4390.00,1.58
4389.00,1.59
4388.00,1.59
4387.00,1.60
4386.00,1.61
4385.00,1.61
4384.00,1.62
4383.00,1.63
4382.00,1.63
4381.00,1.63
4380.00,1.64
4379.00,1.64
4378.00,1.64
4377.00,1.64
4376.00,1.64
4375.00,1.64
4374.00,1.64
4373.00,1.64
4372.00,1.64
4371.00,1.64
4370.00,1.63
4369.00,1.63
4368.00,1.62
4367.00,1.62
4366.00,1.61
4365.00,1.61
4364.00,1.60
4363.00,1.60
4362.00,1.59
4361.00,1.58
4360.00,1.58
4359.00,1.57
4358.00,1.56
4357.00,1.56
4356.00,1.55
4355.00,1.54
4354.00,1.54
4353.00,1.53
4352.00,1.53
4351.00,1.53
4350.00,1.52
4349.00,1.52
4348.00,1.52
4347.00,1.52
4346.00,1.52
4345.00,1.52
4344.00,1.52
4343.00,1.52
4342.00,1.52
4341.00,1.53
4340.00,1.53
4339.00,1.53
4338.00,1.54
4337.00,1.54
4336.00,1.55
4335.00,1.56
4334.00,1.56
4333.00,1.57
4332.00,1.58
4331.00,1.59
4330.00,1.59
4329.00,1.60
4328.00,1.61
4327.00,1.62
4326.00,1.63
4325.00,1.63
4324.00,1.64
4323.00,1.65
4322.00,1.66
4321.00,1.66
4320.00,1.67
4319.00,1.68
4318.00,1.69
4317.00,1.69
4316.00,1.70
4315.00,1.70
4314.00,1.71
4313.00,1.72
4312.00,1.72
4311.00,1.73
4310.00,1.73
4309.00,1.74
4308.00,1.74
4307.00,1.74
4306.00,1.75
4305.00,1.75
4304.00,1.76
4303.00,1.76
4302.00,1.76
4301.00,1.77
4300.00,1.77
4299.00,1.77
4298.00,1.78
4297.00,1.78
4296.00,1.78
4295.00,1.79
4294.00,1.79
4293.00,1.79
4292.00,1.80
4291.00,1.80
4290.00,1.80
4289.00,1.80
4288.00,1.80
4287.00,1.81
4286.00,1.81
4285.00,1.81
4284.00,1.81
4283.00,1.81
4282.00,1.81
4281.00,1.81
4280.00,1.81
4279.00,1.80
4278.00,1.80
4277.00,1.80
4276.00,1.80
4275.00,1.80
4274.00,1.80
4273.00,1.80
4272.00,1.79
4271.00,1.79
4270.00,1.79
4269.00,1.79
4268.00,1.79
4267.00,1.78
4266.00,1.78
4265.00,1.78
4264.00,1.78
4263.00,1.77
4262.00,1.77
4261.00,1.77
4260.00,1.77
4259.00,1.77
4258.00,1.77
4257.00,1.77
4256.00,1.77
4255.00,1.78
4254.00,1.78
4253.00,1.78
4252.00,1.78
4251.00,1.78
4250.00,1.79
4249.00,1.79
4248.00,1.79
4247.00,1.79
4246.00,1.80
4245.00,1.80
4244.00,1.80
4243.00,1.80
4242.00,1.81
4241.00,1.81
4240.00,1.81
4239.00,1.82
4238.00,1.82
4237.00,1.82
4236.00,1.82
4235.00,1.83
4234.00,1.83
4233.00,1.83
4232.00,1.83
4231.00,1.83
4230.00,1.83
4229.00,1.83
4228.00,1.83
4227.00,1.83
4226.00,1.83
4225.00,1.83
4224.00,1.83
4223.00,1.83
4222.00,1.83
4221.00,1.83
4220.00,1.83
4219.00,1.83
4218.00,1.83
4217.00,1.83
4216.00,1.83
4215.00,1.83
4214.00,1.83
4213.00,1.83
4212.00,1.83
4211.00,1.83
4210.00,1.83
4209.00,1.83
4208.00,1.83
4207.00,1.83
4206.00,1.83
4205.00,1.83
4204.00,1.83
4203.00,1.83
4202.00,1.83
4201.00,1.83
4200.00,1.83
4199.00,1.83
4198.00,1.83
4197.00,1.83
4196.00,1.83
4195.00,1.83
4194.00,1.83
4193.00,1.83
4192.00,1.83
4191.00,1.82
4190.00,1.82
4189.00,1.82
4188.00,1.82
4187.00,1.81
4186.00,1.81
4185.00,1.81
4184.00,1.81
4183.00,1.81
4182.00,1.80
4181.00,1.80
4180.00,1.80
4179.00,1.80
4178.00,1.80
4177.00,1.80
4176.00,1.80
4175.00,1.79
4174.00,1.79
4173.00,1.79
4172.00,1.79
4171.00,1.79
4170.00,1.78
4169.00,1.78
4168.00,1.78
4167.00,1.77
4166.00,1.77
4165.00,1.77
4164.00,1.77
4163.00,1.77
4162.00,1.77
4161.00,1.76
4160.00,1.76
4159.00,1.75
4158.00,1.75
4157.00,1.74
4156.00,1.74
4155.00,1.73
4154.00,1.73
4153.00,1.72
4152.00,1.72
4151.00,1.71
4150.00,1.71
4149.00,1.70
4148.00,1.70
4147.00,1.70
4146.00,1.69
4145.00,1.69
4144.00,1.68
4143.00,1.68
4142.00,1.68
4141.00,1.68
4140.00,1.68
4139.00,1.67
4138.00,1.67
4137.00,1.67
4136.00,1.67
4135.00,1.68
4134.00,1.68
4133.00,1.68
4132.00,1.68
4131.00,1.68
4130.00,1.68
4129.00,1.68
4128.00,1.68
4127.00,1.69
4126.00,1.69
4125.00,1.69
4124.00,1.69
4123.00,1.69
4122.00,1.70
4121.00,1.70
4120.00,1.70
4119.00,1.70
4118.00,1.71
4117.00,1.71
4116.00,1.71
4115.00,1.71
4114.00,1.71
4113.00,1.71
4112.00,1.71
4111.00,1.71
4110.00,1.70
4109.00,1.70
4108.00,1.70
4107.00,1.69
4106.00,1.69
4105.00,1.69
4104.00,1.68
4103.00,1.68
4102.00,1.68
4101.00,1.68
4100.00,1.67
4099.00,1.67
4098.00,1.66
4097.00,1.66
4096.00,1.65
4095.00,1.65
4094.00,1.64
4093.00,1.63
4092.00,1.63
4091.00,1.62
4090.00,1.62
4089.00,1.61
4088.00,1.61
4087.00,1.61
4086.00,1.60
4085.00,1.60
4084.00,1.60
4083.00,1.60
4082.00,1.60
4081.00,1.60
4080.00,1.60
4079.00,1.60
4078.00,1.60
4077.00,1.60
4076.00,1.60
4075.00,1.60
4074.00,1.61
4073.00,1.61
4072.00,1.61
4071.00,1.61
4070.00,1.61
4069.00,1.61
4068.00,1.62
4067.00,1.62
4066.00,1.62
4065.00,1.62
4064.00,1.62
4063.00,1.62
4062.00,1.62
4061.00,1.62
4060.00,1.62
4059.00,1.62
4058.00,1.62
4057.00,1.61
4056.00,1.61
4055.00,1.61
4054.00,1.61
4053.00,1.60
4052.00,1.60
4051.00,1.59
4050.00,1.59
4049.00,1.58
4048.00,1.58
4047.00,1.58
4046.00,1.57
4045.00,1.57
4044.00,1.56
4043.00,1.56
4042.00,1.55
4041.00,1.55
4040.00,1.55
4039.00,1.54
4038.00,1.54
4037.00,1.54
4036.00,1.54
4035.00,1.54
4034.00,1.54
4033.00,1.54
4032.00,1.54
4031.00,1.54
4030.00,1.55
4029.00,1.55
4028.00,1.56
4027.00,1.56
4026.00,1.57
4025.00,1.58
4024.00,1.58
4023.00,1.59
4022.00,1.60
4021.00,1.61
4020.00,1.63
4019.00,1.64
4018.00,1.65
4017.00,1.67
4016.00,1.68
4015.00,1.70
4014.00,1.71
4013.00,1.73
4012.00,1.74
4011.00,1.76
4010.00,1.77
4009.00,1.79
4008.00,1.80
4007.00,1.82
4006.00,1.84
4005.00,1.86
4004.00,1.88
4003.00,1.89
4002.00,1.91
4001.00,1.93
4000.00,1.95
