创建为新数据集,样品 114 用户 Administrator 日期 星期五, 七月 26 2019
cm-1,%T
10000.00,1.71
9999.00,1.72
9998.00,1.72
9997.00,1.72
9996.00,1.72
9995.00,1.72
9994.00,1.72
9993.00,1.72
9992.00,1.72
9991.00,1.72
9990.00,1.72
9989.00,1.72
9988.00,1.72
9987.00,1.72
9986.00,1.72
9985.00,1.71
9984.00,1.71
9983.00,1.71
9982.00,1.71
9981.00,1.70
9980.00,1.70
9979.00,1.70
9978.00,1.69
9977.00,1.69
9976.00,1.68
9975.00,1.67
9974.00,1.67
9973.00,1.66
9972.00,1.65
9971.00,1.64
9970.00,1.63
9969.00,1.62
9968.00,1.62
9967.00,1.61
9966.00,1.60
9965.00,1.59
9964.00,1.58
9963.00,1.58
9962.00,1.57
9961.00,1.56
9960.00,1.55
9959.00,1.55
9958.00,1.54
9957.00,1.53
9956.00,1.52
9955.00,1.52
9954.00,1.51
9953.00,1.51
9952.00,1.50
9951.00,1.50
9950.00,1.50
9949.00,1.50
9948.00,1.49
9947.00,1.49
9946.00,1.49
9945.00,1.50
9944.00,1.50
9943.00,1.50
9942.00,1.50
9941.00,1.51
9940.00,1.51
9939.00,1.51
9938.00,1.52
9937.00,1.52
9936.00,1.53
9935.00,1.54
9934.00,1.54
9933.00,1.55
9932.00,1.56
9931.00,1.57
9930.00,1.58
9929.00,1.58
9928.00,1.59
9927.00,1.60
9926.00,1.61
9925.00,1.62
9924.00,1.63
9923.00,1.64
9922.00,1.64
9921.00,1.65
9920.00,1.66
9919.00,1.67
9918.00,1.68
9917.00,1.69
9916.00,1.69
9915.00,1.70
9914.00,1.71
9913.00,1.72
9912.00,1.72
9911.00,1.73
9910.00,1.73
9909.00,1.74
9908.00,1.74
9907.00,1.74
9906.00,1.74
9905.00,1.74
9904.00,1.74
9903.00,1.74
9902.00,1.73
9901.00,1.73
9900.00,1.73
9899.00,1.72
9898.00,1.72
9897.00,1.71
9896.00,1.71
9895.00,1.70
9894.00,1.69
9893.00,1.69
9892.00,1.68
9891.00,1.67
9890.00,1.66
9889.00,1.66
9888.00,1.65
9887.00,1.64
9886.00,1.63
9885.00,1.63
9884.00,1.62
9883.00,1.62
9882.00,1.62
9881.00,1.61
9880.00,1.61
9879.00,1.61
9878.00,1.60
9877.00,1.60
9876.00,1.60
9875.00,1.60
9874.00,1.60
9873.00,1.59
9872.00,1.59
9871.00,1.59
9870.00,1.59
9869.00,1.59
9868.00,1.59
9867.00,1.59
9866.00,1.59
9865.00,1.58
9864.00,1.58
9863.00,1.58
9862.00,1.58
9861.00,1.58
9860.00,1.58
9859.00,1.57
9858.00,1.57
9857.00,1.57
9856.00,1.56
9855.00,1.56
9854.00,1.55
9853.00,1.55
9852.00,1.54
9851.00,1.54
9850.00,1.53
9849.00,1.53
9848.00,1.52
9847.00,1.52
9846.00,1.52
9845.00,1.52
9844.00,1.52
9843.00,1.52
9842.00,1.52
9841.00,1.52
9840.00,1.52
9839.00,1.52
9838.00,1.52
9837.00,1.52
9836.00,1.52
9835.00,1.52
9834.00,1.53
9833.00,1.53
9832.00,1.54
9831.00,1.54
9830.00,1.55
9829.00,1.55
9828.00,1.56
9827.00,1.56
9826.00,1.57
9825.00,1.58
9824.00,1.58
9823.00,1.59
9822.00,1.60
9821.00,1.61
9820.00,1.61
9819.00,1.62
9818.00,1.62
9817.00,1.63
9816.00,1.63
9815.00,1.64
9814.00,1.64
9813.00,1.64
9812.00,1.65
9811.00,1.65
9810.00,1.66
9809.00,1.66
9808.00,1.66
9807.00,1.67
9806.00,1.67
9805.00,1.67
9804.00,1.67
9803.00,1.68
9802.00,1.68
9801.00,1.68
9800.00,1.68
9799.00,1.68
9798.00,1.68
9797.00,1.68
9796.00,1.68
9795.00,1.68
9794.00,1.68
9793.00,1.68
9792.00,1.68
9791.00,1.68
9790.00,1.68
9789.00,1.68
9788.00,1.68
9787.00,1.68
9786.00,1.67
9785.00,1.67
9784.00,1.66
9783.00,1.66
9782.00,1.65
9781.00,1.65
9780.00,1.64
9779.00,1.63
9778.00,1.63
9777.00,1.62
9776.00,1.61
9775.00,1.61
9774.00,1.60
9773.00,1.59
9772.00,1.58
9771.00,1.58
9770.00,1.57
9769.00,1.56
9768.00,1.55
9767.00,1.54
9766.00,1.53
9765.00,1.52
9764.00,1.52
9763.00,1.51
9762.00,1.50
9761.00,1.50
9760.00,1.50
9759.00,1.49
9758.00,1.49
9757.00,1.49
9756.00,1.49
9755.00,1.49
9754.00,1.49
9753.00,1.49
9752.00,1.49
9751.00,1.49
9750.00,1.49
9749.00,1.49
9748.00,1.49
9747.00,1.49
9746.00,1.50
9745.00,1.50
9744.00,1.50
9743.00,1.51
9742.00,1.51
9741.00,1.51
9740.00,1.52
9739.00,1.52
9738.00,1.52
9737.00,1.53
9736.00,1.53
9735.00,1.53
9734.00,1.53
9733.00,1.53
9732.00,1.53
9731.00,1.53
9730.00,1.53
9729.00,1.53
9728.00,1.53
9727.00,1.53
9726.00,1.53
9725.00,1.53
9724.00,1.53
9723.00,1.53
9722.00,1.53
9721.00,1.54
9720.00,1.54
9719.00,1.54
9718.00,1.54
9717.00,1.54
9716.00,1.54
9715.00,1.54
9714.00,1.54
9713.00,1.54
9712.00,1.54
9711.00,1.54
9710.00,1.54
9709.00,1.54
9708.00,1.54
9707.00,1.54
9706.00,1.53
9705.00,1.53
9704.00,1.53
9703.00,1.53
9702.00,1.52
9701.00,1.52
9700.00,1.51
9699.00,1.50
9698.00,1.49
9697.00,1.48
9696.00,1.47
9695.00,1.46
9694.00,1.45
9693.00,1.44
9692.00,1.43
9691.00,1.42
9690.00,1.41
9689.00,1.40
9688.00,1.38
9687.00,1.38
9686.00,1.37
9685.00,1.36
9684.00,1.35
9683.00,1.34
9682.00,1.34
9681.00,1.33
9680.00,1.33
9679.00,1.33
9678.00,1.33
9677.00,1.32
9676.00,1.32
9675.00,1.33
9674.00,1.33
9673.00,1.33
9672.00,1.34
9671.00,1.34
9670.00,1.35
9669.00,1.36
9668.00,1.37
9667.00,1.38
9666.00,1.39
9665.00,1.41
9664.00,1.42
9663.00,1.43
9662.00,1.45
9661.00,1.46
9660.00,1.48
9659.00,1.49
9658.00,1.50
9657.00,1.52
9656.00,1.53
9655.00,1.55
9654.00,1.56
9653.00,1.57
9652.00,1.58
9651.00,1.60
9650.00,1.61
9649.00,1.62
9648.00,1.62
9647.00,1.63
9646.00,1.64
9645.00,1.64
9644.00,1.65
9643.00,1.65
9642.00,1.65
9641.00,1.65
9640.00,1.65
9639.00,1.65
9638.00,1.65
9637.00,1.65
9636.00,1.65
9635.00,1.65
9634.00,1.64
9633.00,1.64
9632.00,1.63
9631.00,1.63
9630.00,1.62
9629.00,1.62
9628.00,1.61
9627.00,1.61
9626.00,1.60
9625.00,1.60
9624.00,1.59
9623.00,1.59
9622.00,1.59
9621.00,1.59
9620.00,1.58
9619.00,1.58
9618.00,1.58
9617.00,1.58
9616.00,1.58
9615.00,1.58
9614.00,1.58
9613.00,1.58
9612.00,1.58
9611.00,1.58
9610.00,1.58
9609.00,1.58
9608.00,1.58
9607.00,1.58
9606.00,1.58
9605.00,1.58
9604.00,1.58
9603.00,1.58
9602.00,1.57
9601.00,1.57
9600.00,1.57
9599.00,1.57
9598.00,1.56
9597.00,1.56
9596.00,1.55
9595.00,1.55
9594.00,1.55
9593.00,1.54
9592.00,1.54
9591.00,1.53
9590.00,1.53
9589.00,1.53
9588.00,1.52
9587.00,1.52
9586.00,1.52
9585.00,1.51
9584.00,1.51
9583.00,1.51
9582.00,1.50
9581.00,1.50
9580.00,1.50
9579.00,1.49
9578.00,1.49
9577.00,1.49
9576.00,1.49
9575.00,1.49
9574.00,1.49
9573.00,1.49
9572.00,1.49
9571.00,1.50
9570.00,1.50
9569.00,1.50
9568.00,1.50
9567.00,1.50
9566.00,1.50
9565.00,1.50
9564.00,1.50
9563.00,1.50
9562.00,1.50
9561.00,1.50
9560.00,1.50
9559.00,1.50
9558.00,1.50
9557.00,1.50
9556.00,1.51
9555.00,1.51
9554.00,1.51
9553.00,1.51
9552.00,1.52
9551.00,1.52
9550.00,1.52
9549.00,1.52
9548.00,1.53
9547.00,1.53
9546.00,1.53
9545.00,1.53
9544.00,1.54
9543.00,1.54
9542.00,1.54
9541.00,1.55
9540.00,1.55
9539.00,1.55
9538.00,1.56
9537.00,1.56
9536.00,1.57
9535.00,1.57
9534.00,1.58
9533.00,1.58
9532.00,1.58
9531.00,1.59
9530.00,1.59
9529.00,1.60
9528.00,1.60
9527.00,1.60
9526.00,1.61
9525.00,1.61
9524.00,1.62
9523.00,1.62
9522.00,1.62
9521.00,1.62
9520.00,1.63
9519.00,1.63
9518.00,1.63
9517.00,1.63
9516.00,1.63
9515.00,1.63
9514.00,1.63
9513.00,1.62
9512.00,1.62
9511.00,1.62
9510.00,1.61
9509.00,1.61
9508.00,1.60
9507.00,1.60
9506.00,1.59
9505.00,1.58
9504.00,1.58
9503.00,1.57
9502.00,1.56
9501.00,1.56
9500.00,1.55
9499.00,1.54
9498.00,1.53
9497.00,1.53
9496.00,1.52
9495.00,1.52
9494.00,1.51
9493.00,1.51
9492.00,1.50
9491.00,1.50
9490.00,1.50
9489.00,1.50
9488.00,1.50
9487.00,1.50
9486.00,1.50
9485.00,1.50
9484.00,1.51
9483.00,1.51
9482.00,1.51
9481.00,1.52
9480.00,1.52
9479.00,1.53
9478.00,1.53
9477.00,1.53
9476.00,1.54
9475.00,1.54
9474.00,1.54
9473.00,1.55
9472.00,1.55
9471.00,1.55
9470.00,1.55
9469.00,1.55
9468.00,1.56
9467.00,1.56
9466.00,1.56
9465.00,1.56
9464.00,1.56
9463.00,1.56
9462.00,1.56
9461.00,1.55
9460.00,1.55
9459.00,1.55
9458.00,1.55
9457.00,1.55
9456.00,1.54
9455.00,1.54
9454.00,1.54
9453.00,1.54
9452.00,1.54
9451.00,1.53
9450.00,1.53
9449.00,1.53
9448.00,1.53
9447.00,1.53
9446.00,1.54
9445.00,1.54
9444.00,1.54
9443.00,1.54
9442.00,1.54
9441.00,1.54
9440.00,1.55
9439.00,1.55
9438.00,1.55
9437.00,1.55
9436.00,1.55
9435.00,1.55
9434.00,1.55
9433.00,1.55
9432.00,1.55
9431.00,1.55
9430.00,1.55
9429.00,1.55
9428.00,1.54
9427.00,1.54
9426.00,1.54
9425.00,1.54
9424.00,1.54
9423.00,1.54
9422.00,1.53
9421.00,1.53
9420.00,1.53
9419.00,1.52
9418.00,1.51
9417.00,1.51
9416.00,1.50
9415.00,1.50
9414.00,1.49
9413.00,1.48
9412.00,1.48
9411.00,1.47
9410.00,1.47
9409.00,1.47
9408.00,1.47
9407.00,1.46
9406.00,1.46
9405.00,1.46
9404.00,1.46
9403.00,1.46
9402.00,1.46
9401.00,1.46
9400.00,1.46
9399.00,1.46
9398.00,1.46
9397.00,1.46
9396.00,1.46
9395.00,1.46
9394.00,1.46
9393.00,1.47
9392.00,1.47
9391.00,1.48
9390.00,1.48
9389.00,1.49
9388.00,1.50
9387.00,1.50
9386.00,1.51
9385.00,1.51
9384.00,1.52
9383.00,1.52
9382.00,1.53
9381.00,1.53
9380.00,1.53
9379.00,1.53
9378.00,1.53
9377.00,1.53
9376.00,1.53
9375.00,1.53
9374.00,1.53
9373.00,1.53
9372.00,1.53
9371.00,1.52
9370.00,1.52
9369.00,1.52
9368.00,1.51
9367.00,1.51
9366.00,1.50
9365.00,1.50
9364.00,1.49
9363.00,1.48
9362.00,1.48
9361.00,1.47
9360.00,1.46
9359.00,1.45
9358.00,1.45
9357.00,1.44
9356.00,1.43
9355.00,1.43
9354.00,1.43
9353.00,1.42
9352.00,1.42
9351.00,1.42
9350.00,1.42
9349.00,1.41
9348.00,1.41
9347.00,1.41
9346.00,1.41
9345.00,1.41
9344.00,1.41
9343.00,1.40
9342.00,1.40
9341.00,1.40
9340.00,1.40
9339.00,1.40
9338.00,1.40
9337.00,1.40
9336.00,1.41
9335.00,1.41
9334.00,1.41
9333.00,1.41
9332.00,1.41
9331.00,1.41
9330.00,1.41
9329.00,1.41
9328.00,1.41
9327.00,1.40
9326.00,1.40
9325.00,1.40
9324.00,1.40
9323.00,1.40
9322.00,1.40
9321.00,1.40
9320.00,1.40
9319.00,1.40
9318.00,1.40
9317.00,1.40
9316.00,1.41
9315.00,1.41
9314.00,1.41
9313.00,1.41
9312.00,1.42
9311.00,1.42
9310.00,1.43
9309.00,1.43
9308.00,1.44
9307.00,1.44
9306.00,1.45
9305.00,1.45
9304.00,1.46
9303.00,1.46
9302.00,1.47
9301.00,1.47
9300.00,1.48
9299.00,1.48
9298.00,1.49
9297.00,1.49
9296.00,1.49
9295.00,1.50
9294.00,1.50
9293.00,1.50
9292.00,1.50
9291.00,1.50
9290.00,1.50
9289.00,1.50
9288.00,1.50
9287.00,1.50
9286.00,1.50
9285.00,1.50
9284.00,1.50
9283.00,1.50
9282.00,1.50
9281.00,1.49
9280.00,1.49
9279.00,1.49
9278.00,1.49
9277.00,1.49
9276.00,1.48
9275.00,1.48
9274.00,1.48
9273.00,1.48
9272.00,1.48
9271.00,1.47
9270.00,1.47
9269.00,1.47
9268.00,1.47
9267.00,1.48
9266.00,1.48
9265.00,1.48
9264.00,1.48
9263.00,1.48
9262.00,1.49
9261.00,1.49
9260.00,1.49
9259.00,1.49
9258.00,1.49
9257.00,1.49
9256.00,1.49
9255.00,1.49
9254.00,1.49
9253.00,1.49
9252.00,1.49
9251.00,1.49
9250.00,1.49
9249.00,1.49
9248.00,1.49
9247.00,1.50
9246.00,1.50
9245.00,1.50
9244.00,1.50
9243.00,1.50
9242.00,1.50
9241.00,1.50
9240.00,1.50
9239.00,1.50
9238.00,1.50
9237.00,1.50
9236.00,1.50
9235.00,1.50
9234.00,1.50
9233.00,1.50
9232.00,1.50
9231.00,1.50
9230.00,1.50
9229.00,1.51
9228.00,1.51
9227.00,1.51
9226.00,1.52
9225.00,1.52
9224.00,1.53
9223.00,1.53
9222.00,1.54
9221.00,1.55
9220.00,1.55
9219.00,1.56
9218.00,1.57
9217.00,1.57
9216.00,1.58
9215.00,1.59
9214.00,1.59
9213.00,1.60
9212.00,1.61
9211.00,1.61
9210.00,1.62
9209.00,1.63
9208.00,1.63
9207.00,1.64
9206.00,1.64
9205.00,1.64
9204.00,1.65
9203.00,1.65
9202.00,1.65
9201.00,1.65
9200.00,1.66
9199.00,1.66
9198.00,1.66
9197.00,1.66
9196.00,1.66
9195.00,1.65
9194.00,1.65
9193.00,1.65
9192.00,1.65
9191.00,1.65
9190.00,1.65
9189.00,1.64
9188.00,1.64
9187.00,1.64
9186.00,1.63
9185.00,1.63
9184.00,1.63
9183.00,1.62
9182.00,1.62
9181.00,1.62
9180.00,1.62
9179.00,1.62
9178.00,1.62
9177.00,1.61
9176.00,1.61
9175.00,1.61
9174.00,1.61
9173.00,1.61
9172.00,1.61
9171.00,1.61
9170.00,1.61
9169.00,1.61
9168.00,1.61
9167.00,1.61
9166.00,1.61
9165.00,1.61
9164.00,1.61
9163.00,1.61
9162.00,1.60
9161.00,1.60
9160.00,1.60
9159.00,1.60
9158.00,1.60
9157.00,1.60
9156.00,1.60
9155.00,1.60
9154.00,1.60
9153.00,1.59
9152.00,1.59
9151.00,1.59
9150.00,1.59
9149.00,1.59
9148.00,1.59
9147.00,1.59
9146.00,1.59
9145.00,1.59
9144.00,1.59
9143.00,1.59
9142.00,1.59
9141.00,1.59
9140.00,1.58
9139.00,1.58
9138.00,1.58
9137.00,1.58
9136.00,1.58
9135.00,1.58
9134.00,1.58
9133.00,1.58
9132.00,1.58
9131.00,1.58
9130.00,1.58
9129.00,1.57
9128.00,1.57
9127.00,1.57
9126.00,1.57
9125.00,1.57
9124.00,1.57
9123.00,1.57
9122.00,1.57
9121.00,1.57
9120.00,1.56
9119.00,1.56
9118.00,1.56
9117.00,1.56
9116.00,1.56
9115.00,1.56
9114.00,1.55
9113.00,1.55
9112.00,1.55
9111.00,1.55
9110.00,1.55
9109.00,1.55
9108.00,1.54
9107.00,1.54
9106.00,1.54
9105.00,1.54
9104.00,1.53
9103.00,1.53
9102.00,1.53
9101.00,1.53
9100.00,1.53
9099.00,1.53
9098.00,1.52
9097.00,1.52
9096.00,1.52
9095.00,1.52
9094.00,1.51
9093.00,1.51
9092.00,1.51
9091.00,1.51
9090.00,1.50
9089.00,1.50
9088.00,1.50
9087.00,1.50
9086.00,1.50
9085.00,1.50
9084.00,1.50
9083.00,1.50
9082.00,1.50
9081.00,1.50
9080.00,1.50
9079.00,1.49
9078.00,1.49
9077.00,1.49
9076.00,1.49
9075.00,1.49
9074.00,1.49
9073.00,1.49
9072.00,1.49
9071.00,1.49
9070.00,1.49
9069.00,1.49
9068.00,1.48
9067.00,1.48
9066.00,1.48
9065.00,1.48
9064.00,1.48
9063.00,1.48
9062.00,1.47
9061.00,1.47
9060.00,1.47
9059.00,1.46
9058.00,1.46
9057.00,1.46
9056.00,1.46
9055.00,1.46
9054.00,1.45
9053.00,1.45
9052.00,1.45
9051.00,1.45
9050.00,1.45
9049.00,1.45
9048.00,1.45
9047.00,1.45
9046.00,1.45
9045.00,1.45
9044.00,1.45
9043.00,1.44
9042.00,1.44
9041.00,1.44
9040.00,1.44
9039.00,1.44
9038.00,1.44
9037.00,1.44
9036.00,1.44
9035.00,1.44
9034.00,1.44
9033.00,1.45
9032.00,1.45
9031.00,1.45
9030.00,1.45
9029.00,1.45
9028.00,1.45
9027.00,1.45
9026.00,1.45
9025.00,1.45
9024.00,1.46
9023.00,1.46
9022.00,1.46
9021.00,1.46
9020.00,1.46
9019.00,1.46
9018.00,1.46
9017.00,1.47
9016.00,1.47
9015.00,1.47
9014.00,1.47
9013.00,1.48
9012.00,1.48
9011.00,1.48
9010.00,1.49
9009.00,1.49
9008.00,1.49
9007.00,1.49
9006.00,1.50
9005.00,1.50
9004.00,1.50
9003.00,1.50
9002.00,1.50
9001.00,1.50
9000.00,1.50
8999.00,1.50
8998.00,1.50
8997.00,1.50
8996.00,1.50
8995.00,1.50
8994.00,1.49
8993.00,1.49
8992.00,1.49
8991.00,1.48
8990.00,1.48
8989.00,1.47
8988.00,1.47
8987.00,1.46
8986.00,1.46
8985.00,1.45
8984.00,1.44
8983.00,1.44
8982.00,1.43
8981.00,1.43
8980.00,1.42
8979.00,1.42
8978.00,1.41
8977.00,1.41
8976.00,1.40
8975.00,1.40
8974.00,1.40
8973.00,1.40
8972.00,1.40
8971.00,1.40
8970.00,1.40
8969.00,1.40
8968.00,1.40
8967.00,1.40
8966.00,1.41
8965.00,1.41
8964.00,1.42
8963.00,1.43
8962.00,1.43
8961.00,1.44
8960.00,1.45
8959.00,1.46
8958.00,1.46
8957.00,1.47
8956.00,1.48
8955.00,1.49
8954.00,1.50
8953.00,1.50
8952.00,1.51
8951.00,1.52
8950.00,1.52
8949.00,1.53
8948.00,1.54
8947.00,1.54
8946.00,1.54
8945.00,1.55
8944.00,1.55
8943.00,1.56
8942.00,1.56
8941.00,1.56
8940.00,1.56
8939.00,1.56
8938.00,1.56
8937.00,1.56
8936.00,1.56
8935.00,1.56
8934.00,1.56
8933.00,1.56
8932.00,1.56
8931.00,1.56
8930.00,1.56
8929.00,1.55
8928.00,1.55
8927.00,1.55
8926.00,1.55
8925.00,1.55
8924.00,1.55
8923.00,1.55
8922.00,1.55
8921.00,1.55
8920.00,1.55
8919.00,1.55
8918.00,1.56
8917.00,1.56
8916.00,1.56
8915.00,1.56
8914.00,1.56
8913.00,1.57
8912.00,1.57
8911.00,1.57
8910.00,1.57
8909.00,1.57
8908.00,1.57
8907.00,1.58
8906.00,1.58
8905.00,1.58
8904.00,1.58
8903.00,1.58
8902.00,1.58
8901.00,1.58
8900.00,1.57
8899.00,1.57
8898.00,1.57
8897.00,1.57
8896.00,1.56
8895.00,1.56
8894.00,1.55
8893.00,1.55
8892.00,1.54
8891.00,1.53
8890.00,1.53
8889.00,1.52
8888.00,1.52
8887.00,1.51
8886.00,1.51
8885.00,1.50
8884.00,1.50
8883.00,1.49
8882.00,1.49
8881.00,1.49
8880.00,1.48
8879.00,1.48
8878.00,1.48
8877.00,1.48
8876.00,1.48
8875.00,1.48
8874.00,1.48
8873.00,1.48
8872.00,1.48
8871.00,1.48
8870.00,1.48
8869.00,1.48
8868.00,1.48
8867.00,1.49
8866.00,1.49
8865.00,1.49
8864.00,1.49
8863.00,1.50
8862.00,1.50
8861.00,1.50
8860.00,1.51
8859.00,1.51
8858.00,1.51
8857.00,1.51
8856.00,1.52
8855.00,1.52
8854.00,1.52
8853.00,1.52
8852.00,1.52
8851.00,1.53
8850.00,1.53
8849.00,1.53
8848.00,1.54
8847.00,1.54
8846.00,1.54
8845.00,1.54
8844.00,1.55
8843.00,1.55
8842.00,1.55
8841.00,1.55
8840.00,1.55
8839.00,1.55
8838.00,1.55
8837.00,1.55
8836.00,1.55
8835.00,1.55
8834.00,1.55
8833.00,1.55
8832.00,1.55
8831.00,1.55
8830.00,1.55
8829.00,1.55
8828.00,1.55
8827.00,1.55
8826.00,1.55
8825.00,1.55
8824.00,1.54
8823.00,1.54
8822.00,1.54
8821.00,1.54
8820.00,1.53
8819.00,1.53
8818.00,1.53
8817.00,1.52
8816.00,1.52
8815.00,1.52
8814.00,1.52
8813.00,1.52
8812.00,1.52
8811.00,1.53
8810.00,1.53
8809.00,1.53
8808.00,1.53
8807.00,1.53
8806.00,1.53
8805.00,1.53
8804.00,1.54
8803.00,1.54
8802.00,1.54
8801.00,1.54
8800.00,1.54
8799.00,1.54
8798.00,1.54
8797.00,1.54
8796.00,1.54
8795.00,1.55
8794.00,1.55
8793.00,1.55
8792.00,1.55
8791.00,1.56
8790.00,1.56
8789.00,1.56
8788.00,1.56
8787.00,1.56
8786.00,1.56
8785.00,1.56
8784.00,1.56
8783.00,1.55
8782.00,1.55
8781.00,1.55
8780.00,1.55
8779.00,1.55
8778.00,1.55
8777.00,1.55
8776.00,1.55
8775.00,1.55
8774.00,1.55
8773.00,1.55
8772.00,1.55
8771.00,1.55
8770.00,1.55
8769.00,1.55
8768.00,1.55
8767.00,1.55
8766.00,1.55
8765.00,1.55
8764.00,1.55
8763.00,1.55
8762.00,1.55
8761.00,1.55
8760.00,1.55
8759.00,1.55
8758.00,1.56
8757.00,1.56
8756.00,1.56
8755.00,1.56
8754.00,1.56
8753.00,1.56
8752.00,1.56
8751.00,1.56
8750.00,1.56
8749.00,1.56
8748.00,1.56
8747.00,1.56
8746.00,1.56
8745.00,1.56
8744.00,1.56
8743.00,1.56
8742.00,1.56
8741.00,1.56
8740.00,1.56
8739.00,1.55
8738.00,1.55
8737.00,1.55
8736.00,1.54
8735.00,1.54
8734.00,1.54
8733.00,1.53
8732.00,1.53
8731.00,1.53
8730.00,1.52
8729.00,1.52
8728.00,1.52
8727.00,1.51
8726.00,1.51
8725.00,1.51
8724.00,1.51
8723.00,1.51
8722.00,1.50
8721.00,1.50
8720.00,1.50
8719.00,1.50
8718.00,1.50
8717.00,1.51
8716.00,1.51
8715.00,1.51
8714.00,1.51
8713.00,1.51
8712.00,1.52
8711.00,1.52
8710.00,1.53
8709.00,1.53
8708.00,1.54
8707.00,1.54
8706.00,1.55
8705.00,1.55
8704.00,1.56
8703.00,1.56
8702.00,1.57
8701.00,1.57
8700.00,1.58
8699.00,1.58
8698.00,1.58
8697.00,1.59
8696.00,1.59
8695.00,1.59
8694.00,1.60
8693.00,1.60
8692.00,1.60
8691.00,1.60
8690.00,1.60
8689.00,1.60
8688.00,1.60
8687.00,1.60
8686.00,1.59
8685.00,1.59
8684.00,1.59
8683.00,1.58
8682.00,1.58
8681.00,1.58
8680.00,1.57
8679.00,1.57
8678.00,1.57
8677.00,1.56
8676.00,1.56
8675.00,1.56
8674.00,1.55
8673.00,1.55
8672.00,1.55
8671.00,1.55
8670.00,1.54
8669.00,1.54
8668.00,1.54
8667.00,1.54
8666.00,1.54
8665.00,1.54
8664.00,1.53
8663.00,1.53
8662.00,1.53
8661.00,1.53
8660.00,1.53
8659.00,1.53
8658.00,1.53
8657.00,1.53
8656.00,1.53
8655.00,1.54
8654.00,1.54
8653.00,1.54
8652.00,1.54
8651.00,1.53
8650.00,1.53
8649.00,1.53
8648.00,1.53
8647.00,1.53
8646.00,1.52
8645.00,1.52
8644.00,1.51
8643.00,1.51
8642.00,1.51
8641.00,1.50
8640.00,1.50
8639.00,1.49
8638.00,1.49
8637.00,1.48
8636.00,1.48
8635.00,1.47
8634.00,1.47
8633.00,1.46
8632.00,1.46
8631.00,1.45
8630.00,1.45
8629.00,1.44
8628.00,1.44
8627.00,1.44
8626.00,1.43
8625.00,1.43
8624.00,1.43
8623.00,1.42
8622.00,1.42
8621.00,1.42
8620.00,1.42
8619.00,1.42
8618.00,1.42
8617.00,1.43
8616.00,1.43
8615.00,1.43
8614.00,1.44
8613.00,1.44
8612.00,1.45
8611.00,1.46
8610.00,1.46
8609.00,1.47
8608.00,1.48
8607.00,1.49
8606.00,1.49
8605.00,1.50
8604.00,1.51
8603.00,1.51
8602.00,1.52
8601.00,1.53
8600.00,1.53
8599.00,1.54
8598.00,1.55
8597.00,1.56
8596.00,1.56
8595.00,1.57
8594.00,1.58
8593.00,1.58
8592.00,1.59
8591.00,1.59
8590.00,1.59
8589.00,1.60
8588.00,1.60
8587.00,1.60
8586.00,1.60
8585.00,1.60
8584.00,1.60
8583.00,1.59
8582.00,1.59
8581.00,1.59
8580.00,1.59
8579.00,1.58
8578.00,1.58
8577.00,1.57
8576.00,1.57
8575.00,1.57
8574.00,1.56
8573.00,1.56
8572.00,1.55
8571.00,1.55
8570.00,1.55
8569.00,1.54
8568.00,1.53
8567.00,1.53
8566.00,1.52
8565.00,1.52
8564.00,1.51
8563.00,1.51
8562.00,1.51
8561.00,1.50
8560.00,1.50
8559.00,1.50
8558.00,1.50
8557.00,1.50
8556.00,1.50
8555.00,1.51
8554.00,1.51
8553.00,1.51
8552.00,1.52
8551.00,1.52
8550.00,1.52
8549.00,1.53
8548.00,1.53
8547.00,1.54
8546.00,1.54
8545.00,1.54
8544.00,1.55
8543.00,1.55
8542.00,1.56
8541.00,1.56
8540.00,1.57
8539.00,1.57
8538.00,1.58
8537.00,1.58
8536.00,1.59
8535.00,1.59
8534.00,1.59
8533.00,1.59
8532.00,1.60
8531.00,1.59
8530.00,1.59
8529.00,1.59
8528.00,1.59
8527.00,1.58
8526.00,1.58
8525.00,1.58
8524.00,1.57
8523.00,1.57
8522.00,1.56
8521.00,1.56
8520.00,1.55
8519.00,1.55
8518.00,1.54
8517.00,1.54
8516.00,1.53
8515.00,1.52
8514.00,1.52
8513.00,1.51
8512.00,1.51
8511.00,1.50
8510.00,1.50
8509.00,1.49
8508.00,1.49
8507.00,1.48
8506.00,1.48
8505.00,1.48
8504.00,1.48
8503.00,1.48
8502.00,1.48
8501.00,1.48
8500.00,1.49
8499.00,1.49
8498.00,1.49
8497.00,1.50
8496.00,1.50
8495.00,1.50
8494.00,1.50
8493.00,1.51
8492.00,1.51
8491.00,1.51
8490.00,1.51
8489.00,1.51
8488.00,1.52
8487.00,1.52
8486.00,1.52
8485.00,1.52
8484.00,1.52
8483.00,1.53
8482.00,1.53
8481.00,1.53
8480.00,1.53
8479.00,1.53
8478.00,1.53
8477.00,1.53
8476.00,1.52
8475.00,1.52
8474.00,1.52
8473.00,1.51
8472.00,1.51
8471.00,1.51
8470.00,1.50
8469.00,1.50
8468.00,1.50
8467.00,1.49
8466.00,1.49
8465.00,1.49
8464.00,1.49
8463.00,1.49
8462.00,1.49
8461.00,1.49
8460.00,1.48
8459.00,1.48
8458.00,1.48
8457.00,1.48
8456.00,1.48
8455.00,1.48
8454.00,1.48
8453.00,1.48
8452.00,1.47
8451.00,1.47
8450.00,1.47
8449.00,1.47
8448.00,1.47
8447.00,1.47
8446.00,1.47
8445.00,1.47
8444.00,1.47
8443.00,1.47
8442.00,1.47
8441.00,1.47
8440.00,1.47
8439.00,1.47
8438.00,1.47
8437.00,1.47
8436.00,1.47
8435.00,1.47
8434.00,1.47
8433.00,1.47
8432.00,1.47
8431.00,1.47
8430.00,1.47
8429.00,1.47
8428.00,1.47
8427.00,1.47
8426.00,1.48
8425.00,1.48
8424.00,1.48
8423.00,1.48
8422.00,1.49
8421.00,1.49
8420.00,1.49
8419.00,1.50
8418.00,1.50
8417.00,1.50
8416.00,1.51
8415.00,1.51
8414.00,1.51
8413.00,1.52
8412.00,1.52
8411.00,1.52
8410.00,1.53
8409.00,1.53
8408.00,1.54
8407.00,1.54
8406.00,1.54
8405.00,1.55
8404.00,1.55
8403.00,1.55
8402.00,1.56
8401.00,1.56
8400.00,1.56
8399.00,1.56
8398.00,1.56
8397.00,1.56
8396.00,1.56
8395.00,1.57
8394.00,1.57
8393.00,1.57
8392.00,1.57
8391.00,1.57
8390.00,1.57
8389.00,1.56
8388.00,1.56
8387.00,1.56
8386.00,1.56
8385.00,1.56
8384.00,1.55
8383.00,1.55
8382.00,1.55
8381.00,1.54
8380.00,1.54
8379.00,1.53
8378.00,1.53
8377.00,1.52
8376.00,1.52
8375.00,1.51
8374.00,1.50
8373.00,1.50
8372.00,1.49
8371.00,1.49
8370.00,1.48
8369.00,1.48
8368.00,1.48
8367.00,1.47
8366.00,1.47
8365.00,1.47
8364.00,1.46
8363.00,1.46
8362.00,1.46
8361.00,1.46
8360.00,1.46
8359.00,1.46
8358.00,1.46
8357.00,1.46
8356.00,1.46
8355.00,1.46
8354.00,1.46
8353.00,1.46
8352.00,1.46
8351.00,1.46
8350.00,1.46
8349.00,1.47
8348.00,1.47
8347.00,1.47
8346.00,1.48
8345.00,1.48
8344.00,1.48
8343.00,1.49
8342.00,1.49
8341.00,1.50
8340.00,1.50
8339.00,1.50
8338.00,1.51
8337.00,1.51
8336.00,1.51
8335.00,1.52
8334.00,1.52
8333.00,1.52
8332.00,1.53
8331.00,1.53
8330.00,1.53
8329.00,1.53
8328.00,1.54
8327.00,1.54
8326.00,1.54
8325.00,1.54
8324.00,1.55
8323.00,1.55
8322.00,1.55
8321.00,1.55
8320.00,1.55
8319.00,1.55
8318.00,1.55
8317.00,1.55
8316.00,1.55
8315.00,1.55
8314.00,1.55
8313.00,1.55
8312.00,1.55
8311.00,1.55
8310.00,1.55
8309.00,1.55
8308.00,1.54
8307.00,1.54
8306.00,1.54
8305.00,1.54
8304.00,1.54
8303.00,1.54
8302.00,1.54
8301.00,1.53
8300.00,1.53
8299.00,1.53
8298.00,1.53
8297.00,1.53
8296.00,1.53
8295.00,1.53
8294.00,1.53
8293.00,1.53
8292.00,1.53
8291.00,1.53
8290.00,1.53
8289.00,1.53
8288.00,1.53
8287.00,1.53
8286.00,1.53
8285.00,1.53
8284.00,1.53
8283.00,1.53
8282.00,1.53
8281.00,1.53
8280.00,1.54
8279.00,1.54
8278.00,1.54
8277.00,1.54
8276.00,1.54
8275.00,1.54
8274.00,1.55
8273.00,1.55
8272.00,1.55
8271.00,1.55
8270.00,1.55
8269.00,1.55
8268.00,1.55
8267.00,1.55
8266.00,1.56
8265.00,1.56
8264.00,1.56
8263.00,1.56
8262.00,1.56
8261.00,1.56
8260.00,1.56
8259.00,1.56
8258.00,1.56
8257.00,1.55
8256.00,1.55
8255.00,1.55
8254.00,1.55
8253.00,1.55
8252.00,1.55
8251.00,1.55
8250.00,1.54
8249.00,1.54
8248.00,1.54
8247.00,1.54
8246.00,1.53
8245.00,1.53
8244.00,1.53
8243.00,1.53
8242.00,1.52
8241.00,1.52
8240.00,1.52
8239.00,1.51
8238.00,1.51
8237.00,1.51
8236.00,1.50
8235.00,1.50
8234.00,1.50
8233.00,1.49
8232.00,1.49
8231.00,1.49
8230.00,1.49
8229.00,1.48
8228.00,1.48
8227.00,1.48
8226.00,1.48
8225.00,1.48
8224.00,1.47
8223.00,1.47
8222.00,1.47
8221.00,1.47
8220.00,1.47
8219.00,1.47
8218.00,1.47
8217.00,1.47
8216.00,1.47
8215.00,1.48
8214.00,1.48
8213.00,1.48
8212.00,1.48
8211.00,1.48
8210.00,1.49
8209.00,1.49
8208.00,1.49
8207.00,1.49
8206.00,1.49
8205.00,1.50
8204.00,1.50
8203.00,1.50
8202.00,1.50
8201.00,1.51
8200.00,1.51
8199.00,1.51
8198.00,1.51
8197.00,1.52
8196.00,1.52
8195.00,1.52
8194.00,1.52
8193.00,1.53
8192.00,1.53
8191.00,1.53
8190.00,1.53
8189.00,1.53
8188.00,1.53
8187.00,1.53
8186.00,1.53
8185.00,1.53
8184.00,1.53
8183.00,1.53
8182.00,1.53
8181.00,1.53
8180.00,1.53
8179.00,1.53
8178.00,1.53
8177.00,1.53
8176.00,1.53
8175.00,1.53
8174.00,1.53
8173.00,1.53
8172.00,1.53
8171.00,1.53
8170.00,1.53
8169.00,1.53
8168.00,1.53
8167.00,1.52
8166.00,1.52
8165.00,1.52
8164.00,1.52
8163.00,1.51
8162.00,1.51
8161.00,1.51
8160.00,1.51
8159.00,1.51
8158.00,1.50
8157.00,1.50
8156.00,1.50
8155.00,1.50
8154.00,1.50
8153.00,1.50
8152.00,1.50
8151.00,1.49
8150.00,1.49
8149.00,1.49
8148.00,1.49
8147.00,1.49
8146.00,1.49
8145.00,1.49
8144.00,1.49
8143.00,1.49
8142.00,1.49
8141.00,1.49
8140.00,1.49
8139.00,1.49
8138.00,1.49
8137.00,1.49
8136.00,1.49
8135.00,1.49
8134.00,1.49
8133.00,1.49
8132.00,1.49
8131.00,1.50
8130.00,1.50
8129.00,1.50
8128.00,1.50
8127.00,1.50
8126.00,1.50
8125.00,1.50
8124.00,1.50
8123.00,1.51
8122.00,1.51
8121.00,1.51
8120.00,1.51
8119.00,1.51
8118.00,1.51
8117.00,1.51
8116.00,1.51
8115.00,1.52
8114.00,1.52
8113.00,1.52
8112.00,1.52
8111.00,1.53
8110.00,1.53
8109.00,1.53
8108.00,1.53
8107.00,1.53
8106.00,1.54
8105.00,1.54
8104.00,1.54
8103.00,1.54
8102.00,1.55
8101.00,1.55
8100.00,1.55
8099.00,1.56
8098.00,1.56
8097.00,1.56
8096.00,1.56
8095.00,1.57
8094.00,1.57
8093.00,1.57
8092.00,1.57
8091.00,1.58
8090.00,1.58
8089.00,1.58
8088.00,1.58
8087.00,1.58
8086.00,1.58
8085.00,1.58
8084.00,1.58
8083.00,1.58
8082.00,1.58
8081.00,1.58
8080.00,1.58
8079.00,1.58
8078.00,1.58
8077.00,1.57
8076.00,1.57
8075.00,1.57
8074.00,1.57
8073.00,1.57
8072.00,1.57
8071.00,1.56
8070.00,1.56
8069.00,1.56
8068.00,1.56
8067.00,1.55
8066.00,1.55
8065.00,1.55
8064.00,1.55
8063.00,1.54
8062.00,1.54
8061.00,1.54
8060.00,1.54
8059.00,1.54
8058.00,1.54
8057.00,1.54
8056.00,1.54
8055.00,1.54
8054.00,1.54
8053.00,1.54
8052.00,1.54
8051.00,1.54
8050.00,1.54
8049.00,1.54
8048.00,1.54
8047.00,1.54
8046.00,1.54
8045.00,1.55
8044.00,1.55
8043.00,1.55
8042.00,1.55
8041.00,1.55
8040.00,1.56
8039.00,1.56
8038.00,1.56
8037.00,1.56
8036.00,1.56
8035.00,1.56
8034.00,1.56
8033.00,1.56
8032.00,1.56
8031.00,1.56
8030.00,1.57
8029.00,1.57
8028.00,1.57
8027.00,1.57
8026.00,1.57
8025.00,1.57
8024.00,1.57
8023.00,1.57
8022.00,1.57
8021.00,1.56
8020.00,1.56
8019.00,1.56
8018.00,1.56
8017.00,1.56
8016.00,1.56
8015.00,1.56
8014.00,1.56
8013.00,1.56
8012.00,1.56
8011.00,1.56
8010.00,1.56
8009.00,1.56
8008.00,1.56
8007.00,1.56
8006.00,1.56
8005.00,1.56
8004.00,1.56
8003.00,1.56
8002.00,1.56
8001.00,1.57
8000.00,1.57
7999.00,1.57
7998.00,1.57
7997.00,1.57
7996.00,1.57
7995.00,1.58
7994.00,1.58
7993.00,1.58
7992.00,1.58
7991.00,1.58
7990.00,1.58
7989.00,1.59
7988.00,1.59
7987.00,1.59
7986.00,1.59
7985.00,1.59
7984.00,1.59
7983.00,1.59
7982.00,1.59
7981.00,1.59
7980.00,1.59
7979.00,1.59
7978.00,1.59
7977.00,1.59
7976.00,1.59
7975.00,1.59
7974.00,1.59
7973.00,1.59
7972.00,1.59
7971.00,1.59
7970.00,1.59
7969.00,1.59
7968.00,1.59
7967.00,1.59
7966.00,1.59
7965.00,1.59
7964.00,1.59
7963.00,1.59
7962.00,1.59
7961.00,1.59
7960.00,1.59
7959.00,1.60
7958.00,1.60
7957.00,1.60
7956.00,1.60
7955.00,1.60
7954.00,1.60
7953.00,1.61
7952.00,1.61
7951.00,1.61
7950.00,1.61
7949.00,1.61
7948.00,1.61
7947.00,1.61
7946.00,1.61
7945.00,1.61
7944.00,1.61
7943.00,1.61
7942.00,1.61
7941.00,1.60
7940.00,1.60
7939.00,1.60
7938.00,1.60
7937.00,1.59
7936.00,1.59
7935.00,1.59
7934.00,1.58
7933.00,1.58
7932.00,1.58
7931.00,1.57
7930.00,1.57
7929.00,1.57
7928.00,1.57
7927.00,1.56
7926.00,1.56
7925.00,1.56
7924.00,1.56
7923.00,1.55
7922.00,1.55
7921.00,1.55
7920.00,1.55
7919.00,1.55
7918.00,1.55
7917.00,1.55
7916.00,1.55
7915.00,1.56
7914.00,1.56
7913.00,1.56
7912.00,1.56
7911.00,1.57
7910.00,1.57
7909.00,1.57
7908.00,1.58
7907.00,1.58
7906.00,1.58
7905.00,1.59
7904.00,1.59
7903.00,1.59
7902.00,1.60
7901.00,1.60
7900.00,1.60
7899.00,1.60
7898.00,1.61
7897.00,1.61
7896.00,1.61
7895.00,1.61
7894.00,1.61
7893.00,1.61
7892.00,1.61
7891.00,1.61
7890.00,1.61
7889.00,1.61
7888.00,1.61
7887.00,1.61
7886.00,1.60
7885.00,1.60
7884.00,1.60
7883.00,1.60
7882.00,1.60
7881.00,1.60
7880.00,1.60
7879.00,1.59
7878.00,1.59
7877.00,1.59
7876.00,1.59
7875.00,1.59
7874.00,1.59
7873.00,1.58
7872.00,1.58
7871.00,1.58
7870.00,1.58
7869.00,1.58
7868.00,1.58
7867.00,1.58
7866.00,1.58
7865.00,1.58
7864.00,1.58
7863.00,1.58
7862.00,1.58
7861.00,1.58
7860.00,1.58
7859.00,1.58
7858.00,1.58
7857.00,1.57
7856.00,1.57
7855.00,1.57
7854.00,1.57
7853.00,1.57
7852.00,1.57
7851.00,1.57
7850.00,1.57
7849.00,1.57
7848.00,1.57
7847.00,1.56
7846.00,1.56
7845.00,1.56
7844.00,1.56
7843.00,1.56
7842.00,1.56
7841.00,1.56
7840.00,1.56
7839.00,1.56
7838.00,1.55
7837.00,1.55
7836.00,1.56
7835.00,1.56
7834.00,1.56
7833.00,1.56
7832.00,1.56
7831.00,1.56
7830.00,1.56
7829.00,1.57
7828.00,1.57
7827.00,1.57
7826.00,1.57
7825.00,1.57
7824.00,1.58
7823.00,1.58
7822.00,1.58
7821.00,1.58
7820.00,1.59
7819.00,1.59
7818.00,1.59
7817.00,1.59
7816.00,1.60
7815.00,1.60
7814.00,1.60
7813.00,1.60
7812.00,1.61
7811.00,1.61
7810.00,1.61
7809.00,1.61
7808.00,1.62
7807.00,1.62
7806.00,1.62
7805.00,1.62
7804.00,1.62
7803.00,1.62
7802.00,1.62
7801.00,1.62
7800.00,1.62
7799.00,1.62
7798.00,1.62
7797.00,1.62
7796.00,1.62
7795.00,1.62
7794.00,1.62
7793.00,1.62
7792.00,1.62
7791.00,1.62
7790.00,1.62
7789.00,1.62
7788.00,1.62
7787.00,1.62
7786.00,1.62
7785.00,1.62
7784.00,1.62
7783.00,1.62
7782.00,1.62
7781.00,1.62
7780.00,1.63
7779.00,1.63
7778.00,1.63
7777.00,1.64
7776.00,1.64
7775.00,1.64
7774.00,1.65
7773.00,1.65
7772.00,1.65
7771.00,1.66
7770.00,1.66
7769.00,1.66
7768.00,1.67
7767.00,1.67
7766.00,1.67
7765.00,1.68
7764.00,1.68
7763.00,1.68
7762.00,1.68
7761.00,1.69
7760.00,1.69
7759.00,1.69
7758.00,1.69
7757.00,1.69
7756.00,1.69
7755.00,1.68
7754.00,1.68
7753.00,1.68
7752.00,1.68
7751.00,1.67
7750.00,1.67
7749.00,1.67
7748.00,1.66
7747.00,1.66
7746.00,1.66
7745.00,1.65
7744.00,1.65
7743.00,1.64
7742.00,1.64
7741.00,1.63
7740.00,1.63
7739.00,1.62
7738.00,1.62
7737.00,1.62
7736.00,1.61
7735.00,1.61
7734.00,1.61
7733.00,1.61
7732.00,1.60
7731.00,1.60
7730.00,1.60
7729.00,1.60
7728.00,1.61
7727.00,1.61
7726.00,1.61
7725.00,1.61
7724.00,1.61
7723.00,1.62
7722.00,1.62
7721.00,1.62
7720.00,1.63
7719.00,1.63
7718.00,1.63
7717.00,1.64
7716.00,1.64
7715.00,1.64
7714.00,1.65
7713.00,1.65
7712.00,1.66
7711.00,1.66
7710.00,1.66
7709.00,1.66
7708.00,1.67
7707.00,1.67
7706.00,1.67
7705.00,1.67
7704.00,1.67
7703.00,1.67
7702.00,1.67
7701.00,1.67
7700.00,1.67
7699.00,1.67
7698.00,1.67
7697.00,1.67
7696.00,1.67
7695.00,1.67
7694.00,1.67
7693.00,1.67
7692.00,1.67
7691.00,1.67
7690.00,1.67
7689.00,1.67
7688.00,1.67
7687.00,1.67
7686.00,1.67
7685.00,1.67
7684.00,1.67
7683.00,1.67
7682.00,1.67
7681.00,1.67
7680.00,1.67
7679.00,1.68
7678.00,1.68
7677.00,1.68
7676.00,1.68
7675.00,1.68
7674.00,1.68
7673.00,1.68
7672.00,1.69
7671.00,1.69
7670.00,1.69
7669.00,1.69
7668.00,1.69
7667.00,1.69
7666.00,1.69
7665.00,1.69
7664.00,1.69
7663.00,1.69
7662.00,1.69
7661.00,1.69
7660.00,1.68
7659.00,1.68
7658.00,1.68
7657.00,1.68
7656.00,1.68
7655.00,1.68
7654.00,1.68
7653.00,1.67
7652.00,1.67
7651.00,1.67
7650.00,1.67
7649.00,1.67
7648.00,1.66
7647.00,1.66
7646.00,1.66
7645.00,1.66
7644.00,1.65
7643.00,1.65
7642.00,1.65
7641.00,1.64
7640.00,1.64
7639.00,1.64
7638.00,1.63
7637.00,1.63
7636.00,1.63
7635.00,1.62
7634.00,1.62
7633.00,1.62
7632.00,1.62
7631.00,1.62
7630.00,1.62
7629.00,1.61
7628.00,1.61
7627.00,1.61
7626.00,1.61
7625.00,1.61
7624.00,1.61
7623.00,1.61
7622.00,1.60
7621.00,1.60
7620.00,1.60
7619.00,1.60
7618.00,1.60
7617.00,1.61
7616.00,1.61
7615.00,1.61
7614.00,1.61
7613.00,1.61
7612.00,1.62
7611.00,1.62
7610.00,1.62
7609.00,1.62
7608.00,1.63
7607.00,1.63
7606.00,1.63
7605.00,1.63
7604.00,1.63
7603.00,1.63
7602.00,1.63
7601.00,1.63
7600.00,1.64
7599.00,1.64
7598.00,1.64
7597.00,1.64
7596.00,1.64
7595.00,1.64
7594.00,1.64
7593.00,1.64
7592.00,1.64
7591.00,1.64
7590.00,1.64
7589.00,1.64
7588.00,1.64
7587.00,1.64
7586.00,1.64
7585.00,1.64
7584.00,1.64
7583.00,1.64
7582.00,1.65
7581.00,1.65
7580.00,1.65
7579.00,1.65
7578.00,1.65
7577.00,1.66
7576.00,1.66
7575.00,1.66
7574.00,1.67
7573.00,1.67
7572.00,1.67
7571.00,1.68
7570.00,1.68
7569.00,1.68
7568.00,1.69
7567.00,1.69
7566.00,1.69
7565.00,1.69
7564.00,1.70
7563.00,1.70
7562.00,1.70
7561.00,1.70
7560.00,1.70
7559.00,1.70
7558.00,1.70
7557.00,1.70
7556.00,1.70
7555.00,1.70
7554.00,1.70
7553.00,1.70
7552.00,1.70
7551.00,1.70
7550.00,1.70
7549.00,1.69
7548.00,1.69
7547.00,1.69
7546.00,1.68
7545.00,1.68
7544.00,1.68
7543.00,1.67
7542.00,1.67
7541.00,1.67
7540.00,1.66
7539.00,1.66
7538.00,1.65
7537.00,1.65
7536.00,1.64
7535.00,1.64
7534.00,1.63
7533.00,1.63
7532.00,1.62
7531.00,1.62
7530.00,1.61
7529.00,1.60
7528.00,1.60
7527.00,1.59
7526.00,1.59
7525.00,1.58
7524.00,1.58
7523.00,1.58
7522.00,1.57
7521.00,1.57
7520.00,1.57
7519.00,1.56
7518.00,1.56
7517.00,1.56
7516.00,1.56
7515.00,1.56
7514.00,1.56
7513.00,1.56
7512.00,1.56
7511.00,1.56
7510.00,1.56
7509.00,1.56
7508.00,1.56
7507.00,1.56
7506.00,1.56
7505.00,1.56
7504.00,1.57
7503.00,1.57
7502.00,1.57
7501.00,1.57
7500.00,1.58
7499.00,1.58
7498.00,1.58
7497.00,1.59
7496.00,1.59
7495.00,1.59
7494.00,1.59
7493.00,1.60
7492.00,1.60
7491.00,1.60
7490.00,1.60
7489.00,1.61
7488.00,1.61
7487.00,1.61
7486.00,1.61
7485.00,1.62
7484.00,1.62
7483.00,1.62
7482.00,1.62
7481.00,1.63
7480.00,1.63
7479.00,1.63
7478.00,1.63
7477.00,1.63
7476.00,1.64
7475.00,1.64
7474.00,1.64
7473.00,1.64
7472.00,1.64
7471.00,1.64
7470.00,1.64
7469.00,1.64
7468.00,1.65
7467.00,1.65
7466.00,1.64
7465.00,1.64
7464.00,1.64
7463.00,1.64
7462.00,1.64
7461.00,1.64
7460.00,1.64
7459.00,1.63
7458.00,1.63
7457.00,1.63
7456.00,1.63
7455.00,1.62
7454.00,1.62
7453.00,1.62
7452.00,1.61
7451.00,1.61
7450.00,1.61
7449.00,1.60
7448.00,1.60
7447.00,1.60
7446.00,1.59
7445.00,1.59
7444.00,1.59
7443.00,1.58
7442.00,1.58
7441.00,1.58
7440.00,1.57
7439.00,1.57
7438.00,1.57
7437.00,1.57
7436.00,1.57
7435.00,1.56
7434.00,1.56
7433.00,1.56
7432.00,1.56
7431.00,1.56
7430.00,1.56
7429.00,1.56
7428.00,1.56
7427.00,1.56
7426.00,1.56
7425.00,1.56
7424.00,1.56
7423.00,1.56
7422.00,1.56
7421.00,1.57
7420.00,1.57
7419.00,1.57
7418.00,1.57
7417.00,1.57
7416.00,1.57
7415.00,1.57
7414.00,1.57
7413.00,1.57
7412.00,1.57
7411.00,1.58
7410.00,1.58
7409.00,1.58
7408.00,1.58
7407.00,1.58
7406.00,1.58
7405.00,1.58
7404.00,1.58
7403.00,1.58
7402.00,1.58
7401.00,1.58
7400.00,1.57
7399.00,1.57
7398.00,1.57
7397.00,1.57
7396.00,1.57
7395.00,1.56
7394.00,1.56
7393.00,1.56
7392.00,1.56
7391.00,1.56
7390.00,1.56
7389.00,1.55
7388.00,1.55
7387.00,1.55
7386.00,1.55
7385.00,1.54
7384.00,1.54
7383.00,1.54
7382.00,1.53
7381.00,1.53
7380.00,1.53
7379.00,1.53
7378.00,1.52
7377.00,1.52
7376.00,1.52
7375.00,1.52
7374.00,1.52
7373.00,1.51
7372.00,1.51
7371.00,1.51
7370.00,1.51
7369.00,1.51
7368.00,1.51
7367.00,1.51
7366.00,1.50
7365.00,1.50
7364.00,1.50
7363.00,1.50
7362.00,1.49
7361.00,1.49
7360.00,1.49
7359.00,1.49
7358.00,1.49
7357.00,1.49
7356.00,1.48
7355.00,1.48
7354.00,1.48
7353.00,1.48
7352.00,1.48
7351.00,1.48
7350.00,1.48
7349.00,1.48
7348.00,1.48
7347.00,1.48
7346.00,1.48
7345.00,1.48
7344.00,1.49
7343.00,1.49
7342.00,1.49
7341.00,1.49
7340.00,1.49
7339.00,1.49
7338.00,1.49
7337.00,1.50
7336.00,1.50
7335.00,1.50
7334.00,1.51
7333.00,1.51
7332.00,1.51
7331.00,1.52
7330.00,1.52
7329.00,1.53
7328.00,1.53
7327.00,1.53
7326.00,1.53
7325.00,1.53
7324.00,1.54
7323.00,1.54
7322.00,1.54
7321.00,1.54
7320.00,1.54
7319.00,1.54
7318.00,1.54
7317.00,1.54
7316.00,1.55
7315.00,1.55
7314.00,1.55
7313.00,1.55
7312.00,1.55
7311.00,1.55
7310.00,1.55
7309.00,1.55
7308.00,1.55
7307.00,1.55
7306.00,1.54
7305.00,1.54
7304.00,1.54
7303.00,1.54
7302.00,1.54
7301.00,1.53
7300.00,1.53
7299.00,1.53
7298.00,1.53
7297.00,1.53
7296.00,1.53
7295.00,1.53
7294.00,1.52
7293.00,1.52
7292.00,1.52
7291.00,1.52
7290.00,1.52
7289.00,1.51
7288.00,1.51
7287.00,1.51
7286.00,1.51
7285.00,1.50
7284.00,1.50
7283.00,1.50
7282.00,1.50
7281.00,1.50
7280.00,1.49
7279.00,1.49
7278.00,1.49
7277.00,1.49
7276.00,1.49
7275.00,1.49
7274.00,1.49
7273.00,1.49
7272.00,1.49
7271.00,1.49
7270.00,1.48
7269.00,1.48
7268.00,1.48
7267.00,1.48
7266.00,1.48
7265.00,1.48
7264.00,1.49
7263.00,1.49
7262.00,1.49
7261.00,1.49
7260.00,1.49
7259.00,1.49
7258.00,1.49
7257.00,1.49
7256.00,1.49
7255.00,1.48
7254.00,1.48
7253.00,1.48
7252.00,1.48
7251.00,1.48
7250.00,1.48
7249.00,1.48
7248.00,1.47
7247.00,1.47
7246.00,1.47
7245.00,1.46
7244.00,1.46
7243.00,1.45
7242.00,1.45
7241.00,1.45
7240.00,1.44
7239.00,1.44
7238.00,1.43
7237.00,1.43
7236.00,1.42
7235.00,1.41
7234.00,1.41
7233.00,1.40
7232.00,1.39
7231.00,1.39
7230.00,1.38
7229.00,1.37
7228.00,1.37
7227.00,1.36
7226.00,1.35
7225.00,1.35
7224.00,1.34
7223.00,1.34
7222.00,1.33
7221.00,1.32
7220.00,1.32
7219.00,1.31
7218.00,1.31
7217.00,1.30
7216.00,1.29
7215.00,1.29
7214.00,1.28
7213.00,1.28
7212.00,1.27
7211.00,1.27
7210.00,1.26
7209.00,1.26
7208.00,1.25
7207.00,1.25
7206.00,1.25
7205.00,1.24
7204.00,1.24
7203.00,1.24
7202.00,1.24
7201.00,1.23
7200.00,1.23
7199.00,1.23
7198.00,1.23
7197.00,1.23
7196.00,1.23
7195.00,1.23
7194.00,1.23
7193.00,1.23
7192.00,1.23
7191.00,1.23
7190.00,1.22
7189.00,1.22
7188.00,1.22
7187.00,1.22
7186.00,1.22
7185.00,1.22
7184.00,1.22
7183.00,1.21
7182.00,1.21
7181.00,1.21
7180.00,1.20
7179.00,1.20
7178.00,1.19
7177.00,1.19
7176.00,1.18
7175.00,1.18
7174.00,1.17
7173.00,1.17
7172.00,1.16
7171.00,1.15
7170.00,1.15
7169.00,1.14
7168.00,1.13
7167.00,1.12
7166.00,1.11
7165.00,1.10
7164.00,1.10
7163.00,1.09
7162.00,1.08
7161.00,1.07
7160.00,1.07
7159.00,1.06
7158.00,1.05
7157.00,1.05
7156.00,1.04
7155.00,1.04
7154.00,1.03
7153.00,1.03
7152.00,1.03
7151.00,1.02
7150.00,1.02
7149.00,1.02
7148.00,1.01
7147.00,1.01
7146.00,1.01
7145.00,1.00
7144.00,1.00
7143.00,1.00
7142.00,0.99
7141.00,0.99
7140.00,0.99
7139.00,0.99
7138.00,0.98
7137.00,0.98
7136.00,0.98
7135.00,0.97
7134.00,0.97
7133.00,0.97
7132.00,0.96
7131.00,0.96
7130.00,0.95
7129.00,0.95
7128.00,0.94
7127.00,0.94
7126.00,0.94
7125.00,0.93
7124.00,0.93
7123.00,0.92
7122.00,0.92
7121.00,0.92
7120.00,0.91
7119.00,0.91
7118.00,0.91
7117.00,0.90
7116.00,0.90
7115.00,0.90
7114.00,0.90
7113.00,0.89
7112.00,0.89
7111.00,0.89
7110.00,0.89
7109.00,0.88
7108.00,0.88
7107.00,0.88
7106.00,0.88
7105.00,0.88
7104.00,0.87
7103.00,0.87
7102.00,0.87
7101.00,0.87
7100.00,0.86
7099.00,0.86
7098.00,0.86
7097.00,0.86
7096.00,0.85
7095.00,0.85
7094.00,0.85
7093.00,0.84
7092.00,0.84
7091.00,0.84
7090.00,0.83
7089.00,0.83
7088.00,0.82
7087.00,0.82
7086.00,0.82
7085.00,0.81
7084.00,0.81
7083.00,0.80
7082.00,0.80
7081.00,0.79
7080.00,0.79
7079.00,0.79
7078.00,0.78
7077.00,0.78
7076.00,0.78
7075.00,0.77
7074.00,0.77
7073.00,0.76
7072.00,0.76
7071.00,0.76
7070.00,0.75
7069.00,0.75
7068.00,0.74
7067.00,0.74
7066.00,0.74
7065.00,0.73
7064.00,0.73
7063.00,0.73
7062.00,0.73
7061.00,0.72
7060.00,0.72
7059.00,0.72
7058.00,0.72
7057.00,0.72
7056.00,0.72
7055.00,0.72
7054.00,0.72
7053.00,0.72
7052.00,0.72
7051.00,0.72
7050.00,0.73
7049.00,0.73
7048.00,0.73
7047.00,0.73
7046.00,0.74
7045.00,0.74
7044.00,0.74
7043.00,0.75
7042.00,0.75
7041.00,0.75
7040.00,0.76
7039.00,0.76
7038.00,0.76
7037.00,0.77
7036.00,0.77
7035.00,0.77
7034.00,0.77
7033.00,0.78
7032.00,0.78
7031.00,0.78
7030.00,0.78
7029.00,0.78
7028.00,0.78
7027.00,0.78
7026.00,0.78
7025.00,0.78
7024.00,0.77
7023.00,0.77
7022.00,0.77
7021.00,0.77
7020.00,0.76
7019.00,0.76
7018.00,0.76
7017.00,0.76
7016.00,0.75
7015.00,0.75
7014.00,0.75
7013.00,0.75
7012.00,0.74
7011.00,0.74
7010.00,0.74
7009.00,0.74
7008.00,0.74
7007.00,0.74
7006.00,0.74
7005.00,0.74
7004.00,0.74
7003.00,0.74
7002.00,0.74
7001.00,0.74
7000.00,0.74
6999.00,0.74
6998.00,0.74
6997.00,0.75
6996.00,0.75
6995.00,0.75
6994.00,0.75
6993.00,0.76
6992.00,0.76
6991.00,0.76
6990.00,0.76
6989.00,0.76
6988.00,0.77
6987.00,0.77
6986.00,0.77
6985.00,0.77
6984.00,0.77
6983.00,0.77
6982.00,0.77
6981.00,0.78
6980.00,0.78
6979.00,0.78
6978.00,0.78
6977.00,0.78
6976.00,0.78
6975.00,0.78
6974.00,0.77
6973.00,0.77
6972.00,0.77
6971.00,0.77
6970.00,0.77
6969.00,0.77
6968.00,0.77
6967.00,0.77
6966.00,0.77
6965.00,0.77
6964.00,0.77
6963.00,0.77
6962.00,0.77
6961.00,0.77
6960.00,0.76
6959.00,0.76
6958.00,0.76
6957.00,0.76
6956.00,0.76
6955.00,0.76
6954.00,0.76
6953.00,0.76
6952.00,0.76
6951.00,0.76
6950.00,0.76
6949.00,0.76
6948.00,0.75
6947.00,0.75
6946.00,0.75
6945.00,0.75
6944.00,0.75
6943.00,0.75
6942.00,0.75
6941.00,0.74
6940.00,0.74
6939.00,0.74
6938.00,0.74
6937.00,0.74
6936.00,0.73
6935.00,0.73
6934.00,0.73
6933.00,0.73
6932.00,0.73
6931.00,0.73
6930.00,0.72
6929.00,0.72
6928.00,0.72
6927.00,0.72
6926.00,0.72
6925.00,0.72
6924.00,0.72
6923.00,0.72
6922.00,0.72
6921.00,0.72
6920.00,0.72
6919.00,0.72
6918.00,0.72
6917.00,0.72
6916.00,0.72
6915.00,0.72
6914.00,0.72
6913.00,0.73
6912.00,0.73
6911.00,0.73
6910.00,0.73
6909.00,0.73
6908.00,0.73
6907.00,0.73
6906.00,0.73
6905.00,0.73
6904.00,0.73
6903.00,0.73
6902.00,0.73
6901.00,0.73
6900.00,0.73
6899.00,0.73
6898.00,0.73
6897.00,0.73
6896.00,0.73
6895.00,0.72
6894.00,0.72
6893.00,0.72
6892.00,0.72
6891.00,0.72
6890.00,0.72
6889.00,0.72
6888.00,0.71
6887.00,0.71
6886.00,0.71
6885.00,0.71
6884.00,0.71
6883.00,0.71
6882.00,0.70
6881.00,0.70
6880.00,0.70
6879.00,0.70
6878.00,0.70
6877.00,0.70
6876.00,0.70
6875.00,0.70
6874.00,0.70
6873.00,0.70
6872.00,0.70
6871.00,0.70
6870.00,0.70
6869.00,0.70
6868.00,0.70
6867.00,0.70
6866.00,0.70
6865.00,0.70
6864.00,0.70
6863.00,0.70
6862.00,0.70
6861.00,0.70
6860.00,0.69
6859.00,0.69
6858.00,0.69
6857.00,0.69
6856.00,0.69
6855.00,0.69
6854.00,0.69
6853.00,0.69
6852.00,0.69
6851.00,0.70
6850.00,0.70
6849.00,0.70
6848.00,0.70
6847.00,0.70
6846.00,0.70
6845.00,0.70
6844.00,0.70
6843.00,0.70
6842.00,0.70
6841.00,0.70
6840.00,0.71
6839.00,0.71
6838.00,0.71
6837.00,0.71
6836.00,0.71
6835.00,0.72
6834.00,0.72
6833.00,0.72
6832.00,0.73
6831.00,0.73
6830.00,0.73
6829.00,0.73
6828.00,0.74
6827.00,0.74
6826.00,0.74
6825.00,0.75
6824.00,0.75
6823.00,0.75
6822.00,0.75
6821.00,0.76
6820.00,0.76
6819.00,0.76
6818.00,0.76
6817.00,0.76
6816.00,0.77
6815.00,0.77
6814.00,0.77
6813.00,0.77
6812.00,0.77
6811.00,0.77
6810.00,0.77
6809.00,0.77
6808.00,0.77
6807.00,0.77
6806.00,0.77
6805.00,0.77
6804.00,0.77
6803.00,0.77
6802.00,0.77
6801.00,0.77
6800.00,0.76
6799.00,0.76
6798.00,0.76
6797.00,0.76
6796.00,0.75
6795.00,0.75
6794.00,0.75
6793.00,0.74
6792.00,0.74
6791.00,0.74
6790.00,0.74
6789.00,0.73
6788.00,0.73
6787.00,0.73
6786.00,0.72
6785.00,0.72
6784.00,0.72
6783.00,0.72
6782.00,0.72
6781.00,0.71
6780.00,0.71
6779.00,0.71
6778.00,0.71
6777.00,0.71
6776.00,0.71
6775.00,0.71
6774.00,0.71
6773.00,0.71
6772.00,0.72
6771.00,0.72
6770.00,0.72
6769.00,0.72
6768.00,0.72
6767.00,0.72
6766.00,0.73
6765.00,0.73
6764.00,0.73
6763.00,0.73
6762.00,0.73
6761.00,0.73
6760.00,0.74
6759.00,0.74
6758.00,0.74
6757.00,0.74
6756.00,0.74
6755.00,0.75
6754.00,0.75
6753.00,0.75
6752.00,0.75
6751.00,0.76
6750.00,0.76
6749.00,0.76
6748.00,0.76
6747.00,0.76
6746.00,0.76
6745.00,0.76
6744.00,0.76
6743.00,0.77
6742.00,0.77
6741.00,0.77
6740.00,0.77
6739.00,0.78
6738.00,0.78
6737.00,0.78
6736.00,0.78
6735.00,0.79
6734.00,0.79
6733.00,0.79
6732.00,0.79
6731.00,0.80
6730.00,0.80
6729.00,0.80
6728.00,0.80
6727.00,0.80
6726.00,0.80
6725.00,0.80
6724.00,0.80
6723.00,0.80
6722.00,0.80
6721.00,0.80
6720.00,0.81
6719.00,0.81
6718.00,0.81
6717.00,0.81
6716.00,0.81
6715.00,0.81
6714.00,0.81
6713.00,0.81
6712.00,0.80
6711.00,0.80
6710.00,0.80
6709.00,0.80
6708.00,0.80
6707.00,0.80
6706.00,0.81
6705.00,0.81
6704.00,0.81
6703.00,0.81
6702.00,0.81
6701.00,0.81
6700.00,0.81
6699.00,0.81
6698.00,0.81
6697.00,0.82
6696.00,0.82
6695.00,0.82
6694.00,0.82
6693.00,0.83
6692.00,0.83
6691.00,0.83
6690.00,0.83
6689.00,0.84
6688.00,0.84
6687.00,0.84
6686.00,0.84
6685.00,0.85
6684.00,0.85
6683.00,0.85
6682.00,0.85
6681.00,0.85
6680.00,0.85
6679.00,0.86
6678.00,0.86
6677.00,0.86
6676.00,0.86
6675.00,0.86
6674.00,0.86
6673.00,0.86
6672.00,0.86
6671.00,0.87
6670.00,0.87
6669.00,0.87
6668.00,0.87
6667.00,0.87
6666.00,0.87
6665.00,0.87
6664.00,0.87
6663.00,0.88
6662.00,0.88
6661.00,0.88
6660.00,0.88
6659.00,0.88
6658.00,0.88
6657.00,0.89
6656.00,0.89
6655.00,0.89
6654.00,0.90
6653.00,0.90
6652.00,0.90
6651.00,0.91
6650.00,0.91
6649.00,0.91
6648.00,0.91
6647.00,0.92
6646.00,0.92
6645.00,0.92
6644.00,0.92
6643.00,0.93
6642.00,0.93
6641.00,0.93
6640.00,0.93
6639.00,0.94
6638.00,0.94
6637.00,0.94
6636.00,0.94
6635.00,0.95
6634.00,0.95
6633.00,0.95
6632.00,0.95
6631.00,0.95
6630.00,0.95
6629.00,0.95
6628.00,0.95
6627.00,0.95
6626.00,0.95
6625.00,0.95
6624.00,0.95
6623.00,0.96
6622.00,0.96
6621.00,0.96
6620.00,0.96
6619.00,0.96
6618.00,0.96
6617.00,0.96
6616.00,0.96
6615.00,0.96
6614.00,0.96
6613.00,0.96
6612.00,0.96
6611.00,0.96
6610.00,0.97
6609.00,0.97
6608.00,0.97
6607.00,0.97
6606.00,0.97
6605.00,0.97
6604.00,0.97
6603.00,0.97
6602.00,0.97
6601.00,0.98
6600.00,0.98
6599.00,0.98
6598.00,0.98
6597.00,0.98
6596.00,0.98
6595.00,0.98
6594.00,0.98
6593.00,0.98
6592.00,0.98
6591.00,0.98
6590.00,0.98
6589.00,0.98
6588.00,0.98
6587.00,0.99
6586.00,0.99
6585.00,0.99
6584.00,0.99
6583.00,0.99
6582.00,0.99
6581.00,0.99
6580.00,0.99
6579.00,0.99
6578.00,1.00
6577.00,1.00
6576.00,1.00
6575.00,1.00
6574.00,1.00
6573.00,1.01
6572.00,1.01
6571.00,1.01
6570.00,1.02
6569.00,1.02
6568.00,1.02
6567.00,1.03
6566.00,1.03
6565.00,1.03
6564.00,1.04
6563.00,1.04
6562.00,1.04
6561.00,1.05
6560.00,1.05
6559.00,1.05
6558.00,1.05
6557.00,1.05
6556.00,1.06
6555.00,1.06
6554.00,1.06
6553.00,1.06
6552.00,1.06
6551.00,1.07
6550.00,1.07
6549.00,1.07
6548.00,1.07
6547.00,1.07
6546.00,1.07
6545.00,1.07
6544.00,1.07
6543.00,1.07
6542.00,1.07
6541.00,1.08
6540.00,1.08
6539.00,1.08
6538.00,1.08
6537.00,1.08
6536.00,1.08
6535.00,1.09
6534.00,1.09
6533.00,1.09
6532.00,1.09
6531.00,1.10
6530.00,1.10
6529.00,1.10
6528.00,1.10
6527.00,1.11
6526.00,1.11
6525.00,1.11
6524.00,1.11
6523.00,1.12
6522.00,1.12
6521.00,1.12
6520.00,1.12
6519.00,1.13
6518.00,1.13
6517.00,1.13
6516.00,1.13
6515.00,1.13
6514.00,1.13
6513.00,1.13
6512.00,1.13
6511.00,1.13
6510.00,1.13
6509.00,1.13
6508.00,1.13
6507.00,1.13
6506.00,1.13
6505.00,1.13
6504.00,1.13
6503.00,1.13
6502.00,1.13
6501.00,1.13
6500.00,1.13
6499.00,1.13
6498.00,1.13
6497.00,1.13
6496.00,1.13
6495.00,1.13
6494.00,1.13
6493.00,1.13
6492.00,1.13
6491.00,1.13
6490.00,1.13
6489.00,1.14
6488.00,1.14
6487.00,1.14
6486.00,1.14
6485.00,1.14
6484.00,1.14
6483.00,1.15
6482.00,1.15
6481.00,1.15
6480.00,1.15
6479.00,1.15
6478.00,1.15
6477.00,1.16
6476.00,1.16
6475.00,1.16
6474.00,1.16
6473.00,1.16
6472.00,1.16
6471.00,1.16
6470.00,1.16
6469.00,1.17
6468.00,1.17
6467.00,1.17
6466.00,1.17
6465.00,1.16
6464.00,1.16
6463.00,1.16
6462.00,1.16
6461.00,1.16
6460.00,1.16
6459.00,1.16
6458.00,1.16
6457.00,1.15
6456.00,1.15
6455.00,1.15
6454.00,1.15
6453.00,1.15
6452.00,1.15
6451.00,1.15
6450.00,1.15
6449.00,1.15
6448.00,1.15
6447.00,1.15
6446.00,1.15
6445.00,1.15
6444.00,1.15
6443.00,1.15
6442.00,1.15
6441.00,1.15
6440.00,1.15
6439.00,1.15
6438.00,1.15
6437.00,1.16
6436.00,1.16
6435.00,1.16
6434.00,1.16
6433.00,1.17
6432.00,1.17
6431.00,1.17
6430.00,1.18
6429.00,1.18
6428.00,1.18
6427.00,1.19
6426.00,1.19
6425.00,1.19
6424.00,1.20
6423.00,1.20
6422.00,1.20
6421.00,1.21
6420.00,1.21
6419.00,1.21
6418.00,1.21
6417.00,1.22
6416.00,1.22
6415.00,1.22
6414.00,1.22
6413.00,1.23
6412.00,1.23
6411.00,1.23
6410.00,1.23
6409.00,1.23
6408.00,1.23
6407.00,1.24
6406.00,1.24
6405.00,1.24
6404.00,1.24
6403.00,1.24
6402.00,1.25
6401.00,1.25
6400.00,1.25
6399.00,1.25
6398.00,1.26
6397.00,1.26
6396.00,1.26
6395.00,1.27
6394.00,1.27
6393.00,1.27
6392.00,1.27
6391.00,1.28
6390.00,1.28
6389.00,1.28
6388.00,1.28
6387.00,1.29
6386.00,1.29
6385.00,1.29
6384.00,1.29
6383.00,1.29
6382.00,1.30
6381.00,1.30
6380.00,1.30
6379.00,1.30
6378.00,1.30
6377.00,1.30
6376.00,1.30
6375.00,1.30
6374.00,1.31
6373.00,1.31
6372.00,1.31
6371.00,1.31
6370.00,1.31
6369.00,1.31
6368.00,1.31
6367.00,1.31
6366.00,1.31
6365.00,1.31
6364.00,1.31
6363.00,1.31
6362.00,1.31
6361.00,1.31
6360.00,1.32
6359.00,1.32
6358.00,1.32
6357.00,1.32
6356.00,1.32
6355.00,1.32
6354.00,1.33
6353.00,1.33
6352.00,1.33
6351.00,1.33
6350.00,1.34
6349.00,1.34
6348.00,1.34
6347.00,1.34
6346.00,1.34
6345.00,1.35
6344.00,1.35
6343.00,1.35
6342.00,1.35
6341.00,1.35
6340.00,1.36
6339.00,1.36
6338.00,1.36
6337.00,1.36
6336.00,1.36
6335.00,1.36
6334.00,1.36
6333.00,1.36
6332.00,1.36
6331.00,1.37
6330.00,1.37
6329.00,1.37
6328.00,1.37
6327.00,1.37
6326.00,1.37
6325.00,1.37
6324.00,1.37
6323.00,1.37
6322.00,1.37
6321.00,1.37
6320.00,1.37
6319.00,1.37
6318.00,1.37
6317.00,1.37
6316.00,1.37
6315.00,1.37
6314.00,1.37
6313.00,1.37
6312.00,1.37
6311.00,1.37
6310.00,1.37
6309.00,1.37
6308.00,1.37
6307.00,1.37
6306.00,1.37
6305.00,1.37
6304.00,1.37
6303.00,1.38
6302.00,1.38
6301.00,1.38
6300.00,1.38
6299.00,1.38
6298.00,1.38
6297.00,1.39
6296.00,1.39
6295.00,1.39
6294.00,1.39
6293.00,1.40
6292.00,1.40
6291.00,1.40
6290.00,1.40
6289.00,1.41
6288.00,1.41
6287.00,1.41
6286.00,1.41
6285.00,1.42
6284.00,1.42
6283.00,1.42
6282.00,1.42
6281.00,1.43
6280.00,1.43
6279.00,1.43
6278.00,1.44
6277.00,1.44
6276.00,1.44
6275.00,1.44
6274.00,1.45
6273.00,1.45
6272.00,1.45
6271.00,1.45
6270.00,1.46
6269.00,1.46
6268.00,1.46
6267.00,1.46
6266.00,1.47
6265.00,1.47
6264.00,1.47
6263.00,1.47
6262.00,1.47
6261.00,1.47
6260.00,1.47
6259.00,1.47
6258.00,1.48
6257.00,1.48
6256.00,1.48
6255.00,1.48
6254.00,1.48
6253.00,1.48
6252.00,1.48
6251.00,1.48
6250.00,1.48
6249.00,1.48
6248.00,1.48
6247.00,1.48
6246.00,1.47
6245.00,1.47
6244.00,1.47
6243.00,1.47
6242.00,1.47
6241.00,1.47
6240.00,1.47
6239.00,1.47
6238.00,1.46
6237.00,1.46
6236.00,1.46
6235.00,1.46
6234.00,1.46
6233.00,1.46
6232.00,1.46
6231.00,1.46
6230.00,1.46
6229.00,1.46
6228.00,1.46
6227.00,1.46
6226.00,1.46
6225.00,1.46
6224.00,1.46
6223.00,1.46
6222.00,1.47
6221.00,1.47
6220.00,1.47
6219.00,1.47
6218.00,1.47
6217.00,1.48
6216.00,1.48
6215.00,1.48
6214.00,1.48
6213.00,1.49
6212.00,1.49
6211.00,1.49
6210.00,1.50
6209.00,1.50
6208.00,1.50
6207.00,1.50
6206.00,1.51
6205.00,1.51
6204.00,1.51
6203.00,1.51
6202.00,1.51
6201.00,1.51
6200.00,1.52
6199.00,1.52
6198.00,1.52
6197.00,1.52
6196.00,1.52
6195.00,1.53
6194.00,1.53
6193.00,1.53
6192.00,1.53
6191.00,1.53
6190.00,1.53
6189.00,1.53
6188.00,1.53
6187.00,1.53
6186.00,1.53
6185.00,1.53
6184.00,1.53
6183.00,1.53
6182.00,1.53
6181.00,1.53
6180.00,1.53
6179.00,1.53
6178.00,1.53
6177.00,1.53
6176.00,1.53
6175.00,1.53
6174.00,1.53
6173.00,1.53
6172.00,1.53
6171.00,1.53
6170.00,1.53
6169.00,1.53
6168.00,1.53
6167.00,1.53
6166.00,1.53
6165.00,1.53
6164.00,1.53
6163.00,1.53
6162.00,1.53
6161.00,1.53
6160.00,1.53
6159.00,1.53
6158.00,1.53
6157.00,1.53
6156.00,1.53
6155.00,1.53
6154.00,1.53
6153.00,1.53
6152.00,1.53
6151.00,1.53
6150.00,1.53
6149.00,1.53
6148.00,1.53
6147.00,1.53
6146.00,1.54
6145.00,1.54
6144.00,1.54
6143.00,1.54
6142.00,1.54
6141.00,1.55
6140.00,1.55
6139.00,1.55
6138.00,1.55
6137.00,1.55
6136.00,1.56
6135.00,1.56
6134.00,1.56
6133.00,1.56
6132.00,1.56
6131.00,1.57
6130.00,1.57
6129.00,1.57
6128.00,1.57
6127.00,1.57
6126.00,1.58
6125.00,1.58
6124.00,1.58
6123.00,1.59
6122.00,1.59
6121.00,1.59
6120.00,1.59
6119.00,1.60
6118.00,1.60
6117.00,1.60
6116.00,1.60
6115.00,1.61
6114.00,1.61
6113.00,1.61
6112.00,1.61
6111.00,1.61
6110.00,1.62
6109.00,1.62
6108.00,1.62
6107.00,1.62
6106.00,1.62
6105.00,1.62
6104.00,1.63
6103.00,1.63
6102.00,1.63
6101.00,1.63
6100.00,1.63
6099.00,1.63
6098.00,1.63
6097.00,1.64
6096.00,1.64
6095.00,1.64
6094.00,1.64
6093.00,1.64
6092.00,1.64
6091.00,1.64
6090.00,1.64
6089.00,1.65
6088.00,1.65
6087.00,1.65
6086.00,1.65
6085.00,1.65
6084.00,1.65
6083.00,1.65
6082.00,1.65
6081.00,1.66
6080.00,1.66
6079.00,1.66
6078.00,1.66
6077.00,1.66
6076.00,1.66
6075.00,1.66
6074.00,1.66
6073.00,1.66
6072.00,1.66
6071.00,1.66
6070.00,1.66
6069.00,1.66
6068.00,1.66
6067.00,1.66
6066.00,1.66
6065.00,1.66
6064.00,1.66
6063.00,1.66
6062.00,1.66
6061.00,1.66
6060.00,1.66
6059.00,1.66
6058.00,1.66
6057.00,1.66
6056.00,1.66
6055.00,1.65
6054.00,1.65
6053.00,1.65
6052.00,1.65
6051.00,1.65
6050.00,1.65
6049.00,1.65
6048.00,1.65
6047.00,1.65
6046.00,1.65
6045.00,1.65
6044.00,1.65
6043.00,1.66
6042.00,1.66
6041.00,1.66
6040.00,1.66
6039.00,1.66
6038.00,1.66
6037.00,1.66
6036.00,1.66
6035.00,1.66
6034.00,1.66
6033.00,1.67
6032.00,1.67
6031.00,1.67
6030.00,1.67
6029.00,1.67
6028.00,1.67
6027.00,1.67
6026.00,1.68
6025.00,1.68
6024.00,1.68
6023.00,1.68
6022.00,1.68
6021.00,1.68
6020.00,1.69
6019.00,1.69
6018.00,1.69
6017.00,1.69
6016.00,1.69
6015.00,1.69
6014.00,1.69
6013.00,1.70
6012.00,1.70
6011.00,1.70
6010.00,1.70
6009.00,1.70
6008.00,1.70
6007.00,1.70
6006.00,1.70
6005.00,1.70
6004.00,1.70
6003.00,1.70
6002.00,1.70
6001.00,1.70
6000.00,1.70
5999.00,1.70
5998.00,1.70
5997.00,1.70
5996.00,1.70
5995.00,1.70
5994.00,1.70
5993.00,1.70
5992.00,1.70
5991.00,1.70
5990.00,1.70
5989.00,1.70
5988.00,1.70
5987.00,1.70
5986.00,1.70
5985.00,1.70
5984.00,1.70
5983.00,1.69
5982.00,1.69
5981.00,1.69
5980.00,1.69
5979.00,1.69
5978.00,1.68
5977.00,1.68
5976.00,1.68
5975.00,1.68
5974.00,1.67
5973.00,1.67
5972.00,1.67
5971.00,1.67
5970.00,1.67
5969.00,1.66
5968.00,1.66
5967.00,1.66
5966.00,1.66
5965.00,1.66
5964.00,1.65
5963.00,1.65
5962.00,1.65
5961.00,1.65
5960.00,1.65
5959.00,1.64
5958.00,1.64
5957.00,1.64
5956.00,1.64
5955.00,1.64
5954.00,1.64
5953.00,1.64
5952.00,1.64
5951.00,1.64
5950.00,1.63
5949.00,1.63
5948.00,1.63
5947.00,1.63
5946.00,1.63
5945.00,1.63
5944.00,1.63
5943.00,1.63
5942.00,1.63
5941.00,1.63
5940.00,1.63
5939.00,1.63
5938.00,1.63
5937.00,1.63
5936.00,1.63
5935.00,1.63
5934.00,1.63
5933.00,1.63
5932.00,1.62
5931.00,1.62
5930.00,1.62
5929.00,1.62
5928.00,1.62
5927.00,1.62
5926.00,1.62
5925.00,1.62
5924.00,1.62
5923.00,1.62
5922.00,1.62
5921.00,1.61
5920.00,1.61
5919.00,1.61
5918.00,1.61
5917.00,1.61
5916.00,1.61
5915.00,1.61
5914.00,1.61
5913.00,1.61
5912.00,1.61
5911.00,1.61
5910.00,1.61
5909.00,1.61
5908.00,1.61
5907.00,1.61
5906.00,1.61
5905.00,1.61
5904.00,1.61
5903.00,1.61
5902.00,1.61
5901.00,1.62
5900.00,1.62
5899.00,1.62
5898.00,1.62
5897.00,1.62
5896.00,1.62
5895.00,1.62
5894.00,1.63
5893.00,1.63
5892.00,1.63
5891.00,1.63
5890.00,1.63
5889.00,1.63
5888.00,1.64
5887.00,1.64
5886.00,1.64
5885.00,1.64
5884.00,1.64
5883.00,1.64
5882.00,1.65
5881.00,1.65
5880.00,1.65
5879.00,1.65
5878.00,1.65
5877.00,1.66
5876.00,1.66
5875.00,1.66
5874.00,1.66
5873.00,1.66
5872.00,1.67
5871.00,1.67
5870.00,1.67
5869.00,1.67
5868.00,1.67
5867.00,1.67
5866.00,1.67
5865.00,1.67
5864.00,1.66
5863.00,1.66
5862.00,1.66
5861.00,1.66
5860.00,1.66
5859.00,1.66
5858.00,1.66
5857.00,1.65
5856.00,1.65
5855.00,1.65
5854.00,1.65
5853.00,1.65
5852.00,1.64
5851.00,1.64
5850.00,1.64
5849.00,1.64
5848.00,1.64
5847.00,1.63
5846.00,1.63
5845.00,1.63
5844.00,1.63
5843.00,1.63
5842.00,1.63
5841.00,1.63
5840.00,1.63
5839.00,1.63
5838.00,1.63
5837.00,1.63
5836.00,1.63
5835.00,1.63
5834.00,1.63
5833.00,1.63
5832.00,1.64
5831.00,1.64
5830.00,1.64
5829.00,1.64
5828.00,1.64
5827.00,1.64
5826.00,1.64
5825.00,1.64
5824.00,1.65
5823.00,1.65
5822.00,1.65
5821.00,1.65
5820.00,1.65
5819.00,1.65
5818.00,1.65
5817.00,1.65
5816.00,1.65
5815.00,1.66
5814.00,1.66
5813.00,1.66
5812.00,1.66
5811.00,1.66
5810.00,1.66
5809.00,1.66
5808.00,1.66
5807.00,1.66
5806.00,1.66
5805.00,1.66
5804.00,1.66
5803.00,1.66
5802.00,1.66
5801.00,1.66
5800.00,1.66
5799.00,1.66
5798.00,1.66
5797.00,1.66
5796.00,1.66
5795.00,1.66
5794.00,1.65
5793.00,1.65
5792.00,1.65
5791.00,1.65
5790.00,1.65
5789.00,1.65
5788.00,1.65
5787.00,1.64
5786.00,1.64
5785.00,1.64
5784.00,1.64
5783.00,1.64
5782.00,1.63
5781.00,1.63
5780.00,1.63
5779.00,1.63
5778.00,1.63
5777.00,1.63
5776.00,1.62
5775.00,1.62
5774.00,1.62
5773.00,1.62
5772.00,1.62
5771.00,1.62
5770.00,1.61
5769.00,1.61
5768.00,1.61
5767.00,1.61
5766.00,1.61
5765.00,1.61
5764.00,1.61
5763.00,1.61
5762.00,1.61
5761.00,1.61
5760.00,1.61
5759.00,1.61
5758.00,1.61
5757.00,1.61
5756.00,1.61
5755.00,1.61
5754.00,1.61
5753.00,1.61
5752.00,1.61
5751.00,1.61
5750.00,1.61
5749.00,1.61
5748.00,1.62
5747.00,1.62
5746.00,1.62
5745.00,1.62
5744.00,1.62
5743.00,1.62
5742.00,1.62
5741.00,1.62
5740.00,1.62
5739.00,1.62
5738.00,1.63
5737.00,1.63
5736.00,1.63
5735.00,1.63
5734.00,1.63
5733.00,1.63
5732.00,1.63
5731.00,1.63
5730.00,1.63
5729.00,1.63
5728.00,1.63
5727.00,1.63
5726.00,1.64
5725.00,1.64
5724.00,1.64
5723.00,1.64
5722.00,1.64
5721.00,1.64
5720.00,1.64
5719.00,1.64
5718.00,1.65
5717.00,1.65
5716.00,1.65
5715.00,1.65
5714.00,1.65
5713.00,1.65
5712.00,1.65
5711.00,1.65
5710.00,1.66
5709.00,1.66
5708.00,1.66
5707.00,1.66
5706.00,1.66
5705.00,1.66
5704.00,1.66
5703.00,1.66
5702.00,1.66
5701.00,1.66
5700.00,1.66
5699.00,1.66
5698.00,1.66
5697.00,1.66
5696.00,1.65
5695.00,1.65
5694.00,1.65
5693.00,1.65
5692.00,1.65
5691.00,1.65
5690.00,1.65
5689.00,1.65
5688.00,1.64
5687.00,1.64
5686.00,1.64
5685.00,1.64
5684.00,1.64
5683.00,1.64
5682.00,1.64
5681.00,1.63
5680.00,1.63
5679.00,1.63
5678.00,1.63
5677.00,1.63
5676.00,1.63
5675.00,1.63
5674.00,1.63
5673.00,1.63
5672.00,1.63
5671.00,1.63
5670.00,1.63
5669.00,1.62
5668.00,1.62
5667.00,1.62
5666.00,1.62
5665.00,1.62
5664.00,1.62
5663.00,1.62
5662.00,1.62
5661.00,1.62
5660.00,1.61
5659.00,1.61
5658.00,1.61
5657.00,1.61
5656.00,1.61
5655.00,1.61
5654.00,1.61
5653.00,1.61
5652.00,1.60
5651.00,1.60
5650.00,1.60
5649.00,1.60
5648.00,1.60
5647.00,1.60
5646.00,1.60
5645.00,1.59
5644.00,1.59
5643.00,1.59
5642.00,1.59
5641.00,1.59
5640.00,1.59
5639.00,1.59
5638.00,1.59
5637.00,1.59
5636.00,1.59
5635.00,1.59
5634.00,1.58
5633.00,1.58
5632.00,1.58
5631.00,1.58
5630.00,1.58
5629.00,1.58
5628.00,1.58
5627.00,1.58
5626.00,1.58
5625.00,1.58
5624.00,1.58
5623.00,1.58
5622.00,1.58
5621.00,1.58
5620.00,1.58
5619.00,1.58
5618.00,1.58
5617.00,1.58
5616.00,1.58
5615.00,1.58
5614.00,1.58
5613.00,1.58
5612.00,1.58
5611.00,1.58
5610.00,1.59
5609.00,1.59
5608.00,1.59
5607.00,1.59
5606.00,1.59
5605.00,1.59
5604.00,1.59
5603.00,1.59
5602.00,1.60
5601.00,1.60
5600.00,1.60
5599.00,1.60
5598.00,1.60
5597.00,1.61
5596.00,1.61
5595.00,1.61
5594.00,1.61
5593.00,1.62
5592.00,1.62
5591.00,1.62
5590.00,1.62
5589.00,1.63
5588.00,1.63
5587.00,1.63
5586.00,1.63
5585.00,1.63
5584.00,1.64
5583.00,1.64
5582.00,1.64
5581.00,1.64
5580.00,1.64
5579.00,1.65
5578.00,1.65
5577.00,1.65
5576.00,1.65
5575.00,1.65
5574.00,1.65
5573.00,1.66
5572.00,1.66
5571.00,1.66
5570.00,1.66
5569.00,1.66
5568.00,1.66
5567.00,1.66
5566.00,1.66
5565.00,1.66
5564.00,1.66
5563.00,1.66
5562.00,1.66
5561.00,1.66
5560.00,1.66
5559.00,1.66
5558.00,1.66
5557.00,1.66
5556.00,1.66
5555.00,1.66
5554.00,1.66
5553.00,1.66
5552.00,1.66
5551.00,1.66
5550.00,1.66
5549.00,1.66
5548.00,1.66
5547.00,1.66
5546.00,1.66
5545.00,1.66
5544.00,1.66
5543.00,1.66
5542.00,1.66
5541.00,1.66
5540.00,1.66
5539.00,1.66
5538.00,1.66
5537.00,1.66
5536.00,1.65
5535.00,1.65
5534.00,1.65
5533.00,1.65
5532.00,1.65
5531.00,1.65
5530.00,1.65
5529.00,1.65
5528.00,1.65
5527.00,1.65
5526.00,1.65
5525.00,1.65
5524.00,1.65
5523.00,1.65
5522.00,1.65
5521.00,1.65
5520.00,1.65
5519.00,1.65
5518.00,1.65
5517.00,1.65
5516.00,1.65
5515.00,1.66
5514.00,1.66
5513.00,1.66
5512.00,1.66
5511.00,1.67
5510.00,1.67
5509.00,1.67
5508.00,1.68
5507.00,1.68
5506.00,1.68
5505.00,1.68
5504.00,1.69
5503.00,1.69
5502.00,1.69
5501.00,1.69
5500.00,1.69
5499.00,1.70
5498.00,1.70
5497.00,1.70
5496.00,1.70
5495.00,1.70
5494.00,1.70
5493.00,1.70
5492.00,1.70
5491.00,1.70
5490.00,1.70
5489.00,1.70
5488.00,1.70
5487.00,1.70
5486.00,1.70
5485.00,1.70
5484.00,1.70
5483.00,1.70
5482.00,1.70
5481.00,1.70
5480.00,1.70
5479.00,1.70
5478.00,1.70
5477.00,1.70
5476.00,1.69
5475.00,1.69
5474.00,1.69
5473.00,1.69
5472.00,1.69
5471.00,1.69
5470.00,1.69
5469.00,1.69
5468.00,1.69
5467.00,1.69
5466.00,1.69
5465.00,1.69
5464.00,1.70
5463.00,1.70
5462.00,1.70
5461.00,1.70
5460.00,1.70
5459.00,1.70
5458.00,1.70
5457.00,1.70
5456.00,1.70
5455.00,1.69
5454.00,1.69
5453.00,1.69
5452.00,1.69
5451.00,1.69
5450.00,1.69
5449.00,1.69
5448.00,1.69
5447.00,1.69
5446.00,1.69
5445.00,1.69
5444.00,1.69
5443.00,1.69
5442.00,1.69
5441.00,1.69
5440.00,1.69
5439.00,1.69
5438.00,1.69
5437.00,1.69
5436.00,1.69
5435.00,1.69
5434.00,1.69
5433.00,1.69
5432.00,1.69
5431.00,1.69
5430.00,1.69
5429.00,1.69
5428.00,1.69
5427.00,1.69
5426.00,1.69
5425.00,1.68
5424.00,1.68
5423.00,1.68
5422.00,1.68
5421.00,1.68
5420.00,1.67
5419.00,1.67
5418.00,1.67
5417.00,1.67
5416.00,1.66
5415.00,1.66
5414.00,1.66
5413.00,1.65
5412.00,1.65
5411.00,1.65
5410.00,1.65
5409.00,1.64
5408.00,1.64
5407.00,1.64
5406.00,1.64
5405.00,1.64
5404.00,1.63
5403.00,1.63
5402.00,1.63
5401.00,1.63
5400.00,1.62
5399.00,1.62
5398.00,1.62
5397.00,1.62
5396.00,1.61
5395.00,1.61
5394.00,1.61
5393.00,1.61
5392.00,1.61
5391.00,1.61
5390.00,1.60
5389.00,1.60
5388.00,1.60
5387.00,1.60
5386.00,1.60
5385.00,1.59
5384.00,1.59
5383.00,1.59
5382.00,1.58
5381.00,1.58
5380.00,1.57
5379.00,1.57
5378.00,1.57
5377.00,1.56
5376.00,1.56
5375.00,1.55
5374.00,1.55
5373.00,1.54
5372.00,1.54
5371.00,1.53
5370.00,1.53
5369.00,1.52
5368.00,1.51
5367.00,1.51
5366.00,1.50
5365.00,1.49
5364.00,1.48
5363.00,1.47
5362.00,1.46
5361.00,1.45
5360.00,1.45
5359.00,1.44
5358.00,1.43
5357.00,1.42
5356.00,1.41
5355.00,1.40
5354.00,1.39
5353.00,1.38
5352.00,1.37
5351.00,1.36
5350.00,1.34
5349.00,1.33
5348.00,1.32
5347.00,1.31
5346.00,1.30
5345.00,1.28
5344.00,1.27
5343.00,1.26
5342.00,1.25
5341.00,1.24
5340.00,1.23
5339.00,1.21
5338.00,1.20
5337.00,1.19
5336.00,1.18
5335.00,1.17
5334.00,1.16
5333.00,1.15
5332.00,1.13
5331.00,1.12
5330.00,1.11
5329.00,1.10
5328.00,1.09
5327.00,1.08
5326.00,1.07
5325.00,1.06
5324.00,1.05
5323.00,1.04
5322.00,1.04
5321.00,1.03
5320.00,1.02
5319.00,1.01
5318.00,1.00
5317.00,0.99
5316.00,0.98
5315.00,0.97
5314.00,0.97
5313.00,0.96
5312.00,0.95
5311.00,0.94
5310.00,0.94
5309.00,0.93
5308.00,0.92
5307.00,0.92
5306.00,0.91
5305.00,0.90
5304.00,0.89
5303.00,0.89
5302.00,0.88
5301.00,0.87
5300.00,0.87
5299.00,0.86
5298.00,0.86
5297.00,0.85
5296.00,0.84
5295.00,0.84
5294.00,0.83
5293.00,0.83
5292.00,0.83
5291.00,0.82
5290.00,0.82
5289.00,0.81
5288.00,0.81
5287.00,0.81
5286.00,0.80
5285.00,0.80
5284.00,0.79
5283.00,0.79
5282.00,0.79
5281.00,0.79
5280.00,0.78
5279.00,0.78
5278.00,0.78
5277.00,0.78
5276.00,0.78
5275.00,0.77
5274.00,0.77
5273.00,0.77
5272.00,0.77
5271.00,0.77
5270.00,0.77
5269.00,0.77
5268.00,0.77
5267.00,0.76
5266.00,0.76
5265.00,0.76
5264.00,0.76
5263.00,0.76
5262.00,0.76
5261.00,0.76
5260.00,0.75
5259.00,0.75
5258.00,0.75
5257.00,0.75
5256.00,0.75
5255.00,0.75
5254.00,0.75
5253.00,0.75
5252.00,0.75
5251.00,0.74
5250.00,0.74
5249.00,0.74
5248.00,0.74
5247.00,0.74
5246.00,0.74
5245.00,0.74
5244.00,0.74
5243.00,0.74
5242.00,0.74
5241.00,0.74
5240.00,0.74
5239.00,0.74
5238.00,0.74
5237.00,0.74
5236.00,0.74
5235.00,0.74
5234.00,0.74
5233.00,0.74
5232.00,0.74
5231.00,0.74
5230.00,0.74
5229.00,0.74
5228.00,0.75
5227.00,0.75
5226.00,0.75
5225.00,0.75
5224.00,0.75
5223.00,0.75
5222.00,0.75
5221.00,0.75
5220.00,0.75
5219.00,0.75
5218.00,0.75
5217.00,0.75
5216.00,0.75
5215.00,0.75
5214.00,0.75
5213.00,0.75
5212.00,0.75
5211.00,0.75
5210.00,0.75
5209.00,0.75
5208.00,0.76
5207.00,0.76
5206.00,0.76
5205.00,0.76
5204.00,0.76
5203.00,0.76
5202.00,0.76
5201.00,0.76
5200.00,0.76
5199.00,0.77
5198.00,0.77
5197.00,0.77
5196.00,0.77
5195.00,0.77
5194.00,0.77
5193.00,0.77
5192.00,0.77
5191.00,0.78
5190.00,0.78
5189.00,0.78
5188.00,0.78
5187.00,0.78
5186.00,0.78
5185.00,0.78
5184.00,0.78
5183.00,0.79
5182.00,0.79
5181.00,0.79
5180.00,0.79
5179.00,0.79
5178.00,0.79
5177.00,0.79
5176.00,0.79
5175.00,0.79
5174.00,0.79
5173.00,0.79
5172.00,0.79
5171.00,0.79
5170.00,0.79
5169.00,0.79
5168.00,0.79
5167.00,0.79
5166.00,0.80
5165.00,0.80
5164.00,0.80
5163.00,0.80
5162.00,0.80
5161.00,0.80
5160.00,0.80
5159.00,0.80
5158.00,0.81
5157.00,0.81
5156.00,0.81
5155.00,0.81
5154.00,0.81
5153.00,0.81
5152.00,0.81
5151.00,0.81
5150.00,0.81
5149.00,0.81
5148.00,0.81
5147.00,0.81
5146.00,0.81
5145.00,0.81
5144.00,0.81
5143.00,0.81
5142.00,0.81
5141.00,0.81
5140.00,0.81
5139.00,0.81
5138.00,0.81
5137.00,0.81
5136.00,0.81
5135.00,0.80
5134.00,0.80
5133.00,0.80
5132.00,0.80
5131.00,0.80
5130.00,0.80
5129.00,0.80
5128.00,0.80
5127.00,0.80
5126.00,0.80
5125.00,0.80
5124.00,0.80
5123.00,0.80
5122.00,0.80
5121.00,0.80
5120.00,0.80
5119.00,0.80
5118.00,0.80
5117.00,0.80
5116.00,0.80
5115.00,0.80
5114.00,0.80
5113.00,0.81
5112.00,0.81
5111.00,0.81
5110.00,0.81
5109.00,0.81
5108.00,0.81
5107.00,0.81
5106.00,0.81
5105.00,0.81
5104.00,0.81
5103.00,0.81
5102.00,0.81
5101.00,0.81
5100.00,0.81
5099.00,0.81
5098.00,0.81
5097.00,0.81
5096.00,0.81
5095.00,0.81
5094.00,0.81
5093.00,0.81
5092.00,0.81
5091.00,0.81
5090.00,0.81
5089.00,0.81
5088.00,0.81
5087.00,0.81
5086.00,0.81
5085.00,0.81
5084.00,0.81
5083.00,0.81
5082.00,0.81
5081.00,0.81
5080.00,0.81
5079.00,0.81
5078.00,0.81
5077.00,0.81
5076.00,0.81
5075.00,0.81
5074.00,0.80
5073.00,0.80
5072.00,0.80
5071.00,0.80
5070.00,0.80
5069.00,0.80
5068.00,0.80
5067.00,0.80
5066.00,0.80
5065.00,0.80
5064.00,0.80
5063.00,0.80
5062.00,0.80
5061.00,0.80
5060.00,0.80
5059.00,0.80
5058.00,0.80
5057.00,0.80
5056.00,0.80
5055.00,0.80
5054.00,0.80
5053.00,0.80
5052.00,0.81
5051.00,0.81
5050.00,0.81
5049.00,0.81
5048.00,0.81
5047.00,0.81
5046.00,0.82
5045.00,0.82
5044.00,0.82
5043.00,0.82
5042.00,0.82
5041.00,0.83
5040.00,0.83
5039.00,0.83
5038.00,0.84
5037.00,0.84
5036.00,0.84
5035.00,0.85
5034.00,0.85
5033.00,0.85
5032.00,0.85
5031.00,0.85
5030.00,0.86
5029.00,0.86
5028.00,0.86
5027.00,0.86
5026.00,0.86
5025.00,0.86
5024.00,0.87
5023.00,0.87
5022.00,0.87
5021.00,0.87
5020.00,0.87
5019.00,0.87
5018.00,0.87
5017.00,0.87
5016.00,0.87
5015.00,0.87
5014.00,0.87
5013.00,0.87
5012.00,0.86
5011.00,0.86
5010.00,0.86
5009.00,0.86
5008.00,0.86
5007.00,0.86
5006.00,0.86
5005.00,0.86
5004.00,0.86
5003.00,0.86
5002.00,0.86
5001.00,0.85
5000.00,0.85
4999.00,0.86
4998.00,0.86
4997.00,0.86
4996.00,0.86
4995.00,0.86
4994.00,0.86
4993.00,0.86
4992.00,0.86
4991.00,0.86
4990.00,0.86
4989.00,0.87
4988.00,0.87
4987.00,0.87
4986.00,0.87
4985.00,0.88
4984.00,0.88
4983.00,0.88
4982.00,0.88
4981.00,0.89
4980.00,0.89
4979.00,0.89
4978.00,0.89
4977.00,0.90
4976.00,0.90
4975.00,0.90
4974.00,0.90
4973.00,0.91
4972.00,0.91
4971.00,0.91
4970.00,0.91
4969.00,0.91
4968.00,0.92
4967.00,0.92
4966.00,0.92
4965.00,0.92
4964.00,0.92
4963.00,0.93
4962.00,0.93
4961.00,0.93
4960.00,0.93
4959.00,0.93
4958.00,0.93
4957.00,0.93
4956.00,0.94
4955.00,0.94
4954.00,0.94
4953.00,0.94
4952.00,0.94
4951.00,0.94
4950.00,0.94
4949.00,0.95
4948.00,0.95
4947.00,0.95
4946.00,0.95
4945.00,0.95
4944.00,0.96
4943.00,0.96
4942.00,0.96
4941.00,0.96
4940.00,0.96
4939.00,0.96
4938.00,0.96
4937.00,0.96
4936.00,0.96
4935.00,0.96
4934.00,0.96
4933.00,0.96
4932.00,0.96
4931.00,0.97
4930.00,0.97
4929.00,0.97
4928.00,0.97
4927.00,0.97
4926.00,0.97
4925.00,0.97
4924.00,0.97
4923.00,0.97
4922.00,0.97
4921.00,0.97
4920.00,0.97
4919.00,0.97
4918.00,0.97
4917.00,0.97
4916.00,0.97
4915.00,0.97
4914.00,0.97
4913.00,0.97
4912.00,0.97
4911.00,0.98
4910.00,0.98
4909.00,0.98
4908.00,0.98
4907.00,0.98
4906.00,0.98
4905.00,0.99
4904.00,0.99
4903.00,0.99
4902.00,0.99
4901.00,0.99
4900.00,1.00
4899.00,1.00
4898.00,1.00
4897.00,1.00
4896.00,1.00
4895.00,1.00
4894.00,1.01
4893.00,1.01
4892.00,1.01
4891.00,1.01
4890.00,1.01
4889.00,1.01
4888.00,1.01
4887.00,1.02
4886.00,1.02
4885.00,1.02
4884.00,1.02
4883.00,1.02
4882.00,1.02
4881.00,1.02
4880.00,1.02
4879.00,1.02
4878.00,1.02
4877.00,1.02
4876.00,1.03
4875.00,1.03
4874.00,1.03
4873.00,1.03
4872.00,1.03
4871.00,1.03
4870.00,1.03
4869.00,1.03
4868.00,1.03
4867.00,1.04
4866.00,1.04
4865.00,1.04
4864.00,1.04
4863.00,1.04
4862.00,1.04
4861.00,1.05
4860.00,1.05
4859.00,1.05
4858.00,1.05
4857.00,1.05
4856.00,1.05
4855.00,1.05
4854.00,1.05
4853.00,1.05
4852.00,1.05
4851.00,1.05
4850.00,1.05
4849.00,1.05
4848.00,1.05
4847.00,1.05
4846.00,1.05
4845.00,1.05
4844.00,1.05
4843.00,1.05
4842.00,1.05
4841.00,1.05
4840.00,1.05
4839.00,1.05
4838.00,1.05
4837.00,1.05
4836.00,1.05
4835.00,1.05
4834.00,1.05
4833.00,1.05
4832.00,1.05
4831.00,1.05
4830.00,1.05
4829.00,1.05
4828.00,1.05
4827.00,1.05
4826.00,1.06
4825.00,1.06
4824.00,1.06
4823.00,1.07
4822.00,1.07
4821.00,1.07
4820.00,1.08
4819.00,1.08
4818.00,1.08
4817.00,1.09
4816.00,1.09
4815.00,1.09
4814.00,1.10
4813.00,1.10
4812.00,1.10
4811.00,1.10
4810.00,1.11
4809.00,1.11
4808.00,1.11
4807.00,1.11
4806.00,1.12
4805.00,1.12
4804.00,1.12
4803.00,1.13
4802.00,1.13
4801.00,1.13
4800.00,1.13
4799.00,1.13
4798.00,1.14
4797.00,1.14
4796.00,1.14
4795.00,1.14
4794.00,1.14
4793.00,1.15
4792.00,1.15
4791.00,1.15
4790.00,1.15
4789.00,1.15
4788.00,1.16
4787.00,1.16
4786.00,1.16
4785.00,1.16
4784.00,1.17
4783.00,1.17
4782.00,1.17
4781.00,1.18
4780.00,1.18
4779.00,1.18
4778.00,1.18
4777.00,1.18
4776.00,1.19
4775.00,1.19
4774.00,1.19
4773.00,1.19
4772.00,1.20
4771.00,1.20
4770.00,1.20
4769.00,1.20
4768.00,1.21
4767.00,1.21
4766.00,1.21
4765.00,1.21
4764.00,1.22
4763.00,1.22
4762.00,1.22
4761.00,1.22
4760.00,1.23
4759.00,1.23
4758.00,1.23
4757.00,1.23
4756.00,1.23
4755.00,1.24
4754.00,1.24
4753.00,1.24
4752.00,1.25
4751.00,1.25
4750.00,1.25
4749.00,1.26
4748.00,1.26
4747.00,1.26
4746.00,1.27
4745.00,1.27
4744.00,1.27
4743.00,1.27
4742.00,1.28
4741.00,1.28
4740.00,1.28
4739.00,1.28
4738.00,1.29
4737.00,1.29
4736.00,1.29
4735.00,1.30
4734.00,1.30
4733.00,1.31
4732.00,1.31
4731.00,1.31
4730.00,1.32
4729.00,1.32
4728.00,1.32
4727.00,1.32
4726.00,1.32
4725.00,1.33
4724.00,1.33
4723.00,1.33
4722.00,1.33
4721.00,1.33
4720.00,1.33
4719.00,1.33
4718.00,1.34
4717.00,1.34
4716.00,1.34
4715.00,1.34
4714.00,1.34
4713.00,1.34
4712.00,1.34
4711.00,1.35
4710.00,1.35
4709.00,1.35
4708.00,1.35
4707.00,1.35
4706.00,1.35
4705.00,1.35
4704.00,1.35
4703.00,1.35
4702.00,1.35
4701.00,1.35
4700.00,1.36
4699.00,1.36
4698.00,1.36
4697.00,1.36
4696.00,1.37
4695.00,1.37
4694.00,1.38
4693.00,1.38
4692.00,1.39
4691.00,1.39
4690.00,1.40
4689.00,1.40
4688.00,1.41
4687.00,1.41
4686.00,1.42
4685.00,1.42
4684.00,1.43
4683.00,1.44
4682.00,1.44
4681.00,1.45
4680.00,1.45
4679.00,1.46
4678.00,1.46
4677.00,1.46
4676.00,1.47
4675.00,1.47
4674.00,1.48
4673.00,1.48
4672.00,1.48
4671.00,1.49
4670.00,1.49
4669.00,1.49
4668.00,1.49
4667.00,1.50
4666.00,1.50
4665.00,1.50
4664.00,1.50
4663.00,1.50
4662.00,1.50
4661.00,1.50
4660.00,1.50
4659.00,1.50
4658.00,1.50
4657.00,1.49
4656.00,1.49
4655.00,1.49
4654.00,1.49
4653.00,1.49
4652.00,1.49
4651.00,1.49
4650.00,1.49
4649.00,1.49
4648.00,1.49
4647.00,1.49
4646.00,1.49
4645.00,1.49
4644.00,1.48
4643.00,1.48
4642.00,1.48
4641.00,1.48
4640.00,1.48
4639.00,1.48
4638.00,1.48
4637.00,1.48
4636.00,1.48
4635.00,1.48
4634.00,1.48
4633.00,1.48
4632.00,1.49
4631.00,1.49
4630.00,1.49
4629.00,1.49
4628.00,1.49
4627.00,1.49
4626.00,1.50
4625.00,1.50
4624.00,1.50
4623.00,1.50
4622.00,1.51
4621.00,1.51
4620.00,1.51
4619.00,1.51
4618.00,1.52
4617.00,1.52
4616.00,1.52
4615.00,1.52
4614.00,1.53
4613.00,1.53
4612.00,1.53
4611.00,1.53
4610.00,1.54
4609.00,1.54
4608.00,1.54
4607.00,1.54
4606.00,1.54
4605.00,1.54
4604.00,1.54
4603.00,1.54
4602.00,1.54
4601.00,1.54
4600.00,1.54
4599.00,1.54
4598.00,1.54
4597.00,1.54
4596.00,1.54
4595.00,1.54
4594.00,1.54
4593.00,1.54
4592.00,1.54
4591.00,1.54
4590.00,1.54
4589.00,1.54
4588.00,1.54
4587.00,1.54
4586.00,1.54
4585.00,1.54
4584.00,1.54
4583.00,1.54
4582.00,1.54
4581.00,1.54
4580.00,1.54
4579.00,1.55
4578.00,1.55
4577.00,1.55
4576.00,1.55
4575.00,1.55
4574.00,1.55
4573.00,1.55
4572.00,1.56
4571.00,1.56
4570.00,1.56
4569.00,1.56
4568.00,1.56
4567.00,1.56
4566.00,1.56
4565.00,1.57
4564.00,1.57
4563.00,1.57
4562.00,1.57
4561.00,1.57
4560.00,1.58
4559.00,1.58
4558.00,1.58
4557.00,1.58
4556.00,1.58
4555.00,1.59
4554.00,1.59
4553.00,1.59
4552.00,1.59
4551.00,1.59
4550.00,1.59
4549.00,1.59
4548.00,1.59
4547.00,1.59
4546.00,1.60
4545.00,1.60
4544.00,1.60
4543.00,1.60
4542.00,1.60
4541.00,1.60
4540.00,1.60
4539.00,1.60
4538.00,1.60
4537.00,1.60
4536.00,1.60
4535.00,1.60
4534.00,1.60
4533.00,1.60
4532.00,1.60
4531.00,1.60
4530.00,1.60
4529.00,1.60
4528.00,1.60
4527.00,1.60
4526.00,1.60
4525.00,1.60
4524.00,1.60
4523.00,1.60
4522.00,1.60
4521.00,1.60
4520.00,1.60
4519.00,1.60
4518.00,1.60
4517.00,1.60
4516.00,1.60
4515.00,1.61
4514.00,1.61
4513.00,1.61
4512.00,1.61
4511.00,1.61
4510.00,1.61
4509.00,1.62
4508.00,1.62
4507.00,1.62
4506.00,1.62
4505.00,1.63
4504.00,1.63
4503.00,1.63
4502.00,1.64
4501.00,1.64
4500.00,1.64
4499.00,1.64
4498.00,1.65
4497.00,1.65
4496.00,1.65
4495.00,1.65
4494.00,1.65
4493.00,1.65
4492.00,1.65
4491.00,1.65
4490.00,1.65
4489.00,1.65
4488.00,1.65
4487.00,1.65
4486.00,1.65
4485.00,1.65
4484.00,1.65
4483.00,1.65
4482.00,1.65
4481.00,1.65
4480.00,1.65
4479.00,1.65
4478.00,1.65
4477.00,1.65
4476.00,1.65
4475.00,1.64
4474.00,1.64
4473.00,1.64
4472.00,1.64
4471.00,1.63
4470.00,1.63
4469.00,1.62
4468.00,1.62
4467.00,1.62
4466.00,1.61
4465.00,1.61
4464.00,1.60
4463.00,1.60
4462.00,1.59
4461.00,1.59
4460.00,1.58
4459.00,1.58
4458.00,1.57
4457.00,1.57
4456.00,1.56
4455.00,1.56
4454.00,1.55
4453.00,1.55
4452.00,1.54
4451.00,1.54
4450.00,1.53
4449.00,1.53
4448.00,1.53
4447.00,1.52
4446.00,1.52
4445.00,1.51
4444.00,1.51
4443.00,1.51
4442.00,1.50
4441.00,1.50
4440.00,1.50
4439.00,1.50
4438.00,1.50
4437.00,1.49
4436.00,1.49
4435.00,1.49
4434.00,1.49
4433.00,1.49
4432.00,1.49
4431.00,1.48
4430.00,1.48
4429.00,1.48
4428.00,1.48
4427.00,1.47
4426.00,1.47
4425.00,1.47
4424.00,1.46
4423.00,1.46
4422.00,1.46
4421.00,1.46
4420.00,1.45
4419.00,1.45
4418.00,1.45
4417.00,1.45
4416.00,1.45
4415.00,1.45
4414.00,1.45
4413.00,1.45
4412.00,1.45
4411.00,1.45
4410.00,1.45
4409.00,1.45
4408.00,1.45
4407.00,1.46
4406.00,1.46
4405.00,1.46
4404.00,1.46
4403.00,1.46
4402.00,1.46
4401.00,1.46
4400.00,1.47
4399.00,1.47
4398.00,1.47
4397.00,1.48
4396.00,1.48
4395.00,1.48
4394.00,1.49
4393.00,1.49
4392.00,1.49
4391.00,1.49
4390.00,1.49
4389.00,1.50
4388.00,1.50
4387.00,1.49
4386.00,1.49
4385.00,1.49
4384.00,1.49
4383.00,1.49
4382.00,1.49
4381.00,1.48
4380.00,1.48
4379.00,1.48
4378.00,1.48
4377.00,1.47
4376.00,1.47
4375.00,1.47
4374.00,1.46
4373.00,1.46
4372.00,1.46
4371.00,1.45
4370.00,1.45
4369.00,1.45
4368.00,1.44
4367.00,1.44
4366.00,1.43
4365.00,1.43
4364.00,1.43
4363.00,1.42
4362.00,1.42
4361.00,1.42
4360.00,1.41
4359.00,1.41
4358.00,1.41
4357.00,1.41
4356.00,1.41
4355.00,1.41
4354.00,1.41
4353.00,1.41
4352.00,1.42
4351.00,1.42
4350.00,1.42
4349.00,1.42
4348.00,1.43
4347.00,1.43
4346.00,1.43
4345.00,1.44
4344.00,1.44
4343.00,1.44
4342.00,1.45
4341.00,1.45
4340.00,1.46
4339.00,1.46
4338.00,1.47
4337.00,1.47
4336.00,1.48
4335.00,1.48
4334.00,1.48
4333.00,1.49
4332.00,1.49
4331.00,1.50
4330.00,1.50
4329.00,1.50
4328.00,1.51
4327.00,1.51
4326.00,1.51
4325.00,1.52
4324.00,1.52
4323.00,1.52
4322.00,1.52
4321.00,1.52
4320.00,1.52
4319.00,1.52
4318.00,1.52
4317.00,1.53
4316.00,1.53
4315.00,1.53
4314.00,1.53
4313.00,1.53
4312.00,1.53
4311.00,1.53
4310.00,1.53
4309.00,1.54
4308.00,1.54
4307.00,1.54
4306.00,1.54
4305.00,1.54
4304.00,1.54
4303.00,1.54
4302.00,1.54
4301.00,1.54
4300.00,1.55
4299.00,1.55
4298.00,1.55
4297.00,1.55
4296.00,1.56
4295.00,1.56
4294.00,1.56
4293.00,1.57
4292.00,1.57
4291.00,1.57
4290.00,1.58
4289.00,1.58
4288.00,1.58
4287.00,1.59
4286.00,1.59
4285.00,1.59
4284.00,1.60
4283.00,1.60
4282.00,1.60
4281.00,1.60
4280.00,1.61
4279.00,1.61
4278.00,1.61
4277.00,1.61
4276.00,1.62
4275.00,1.62
4274.00,1.62
4273.00,1.62
4272.00,1.62
4271.00,1.62
4270.00,1.61
4269.00,1.61
4268.00,1.61
4267.00,1.61
4266.00,1.60
4265.00,1.60
4264.00,1.60
4263.00,1.59
4262.00,1.59
4261.00,1.59
4260.00,1.58
4259.00,1.58
4258.00,1.57
4257.00,1.57
4256.00,1.56
4255.00,1.56
4254.00,1.56
4253.00,1.55
4252.00,1.55
4251.00,1.55
4250.00,1.55
4249.00,1.54
4248.00,1.54
4247.00,1.54
4246.00,1.54
4245.00,1.54
4244.00,1.54
4243.00,1.53
4242.00,1.53
4241.00,1.53
4240.00,1.53
4239.00,1.53
4238.00,1.54
4237.00,1.54
4236.00,1.54
4235.00,1.54
4234.00,1.54
4233.00,1.54
4232.00,1.54
4231.00,1.54
4230.00,1.54
4229.00,1.54
4228.00,1.54
4227.00,1.54
4226.00,1.53
4225.00,1.53
4224.00,1.53
4223.00,1.53
4222.00,1.52
4221.00,1.52
4220.00,1.52
4219.00,1.52
4218.00,1.52
4217.00,1.51
4216.00,1.51
4215.00,1.51
4214.00,1.51
4213.00,1.51
4212.00,1.51
4211.00,1.51
4210.00,1.51
4209.00,1.51
4208.00,1.51
4207.00,1.51
4206.00,1.51
4205.00,1.51
4204.00,1.51
4203.00,1.51
4202.00,1.51
4201.00,1.52
4200.00,1.52
4199.00,1.52
4198.00,1.52
4197.00,1.53
4196.00,1.53
4195.00,1.53
4194.00,1.53
4193.00,1.53
4192.00,1.54
4191.00,1.54
4190.00,1.54
4189.00,1.54
4188.00,1.54
4187.00,1.54
4186.00,1.54
4185.00,1.54
4184.00,1.54
4183.00,1.54
4182.00,1.54
4181.00,1.54
4180.00,1.54
4179.00,1.53
4178.00,1.53
4177.00,1.53
4176.00,1.53
4175.00,1.53
4174.00,1.53
4173.00,1.53
4172.00,1.53
4171.00,1.53
4170.00,1.53
4169.00,1.53
4168.00,1.53
4167.00,1.53
4166.00,1.53
4165.00,1.53
4164.00,1.54
4163.00,1.54
4162.00,1.54
4161.00,1.54
4160.00,1.54
4159.00,1.54
4158.00,1.54
4157.00,1.54
4156.00,1.54
4155.00,1.54
4154.00,1.54
4153.00,1.54
4152.00,1.54
4151.00,1.54
4150.00,1.54
4149.00,1.54
4148.00,1.54
4147.00,1.54
4146.00,1.54
4145.00,1.54
4144.00,1.54
4143.00,1.54
4142.00,1.54
4141.00,1.54
4140.00,1.53
4139.00,1.53
4138.00,1.53
4137.00,1.53
4136.00,1.53
4135.00,1.52
4134.00,1.52
4133.00,1.52
4132.00,1.52
4131.00,1.52
4130.00,1.52
4129.00,1.52
4128.00,1.52
4127.00,1.52
4126.00,1.52
4125.00,1.52
4124.00,1.52
4123.00,1.52
4122.00,1.51
4121.00,1.51
4120.00,1.51
4119.00,1.51
4118.00,1.51
4117.00,1.51
4116.00,1.51
4115.00,1.51
4114.00,1.51
4113.00,1.51
4112.00,1.51
4111.00,1.50
4110.00,1.50
4109.00,1.50
4108.00,1.50
4107.00,1.50
4106.00,1.50
4105.00,1.50
4104.00,1.50
4103.00,1.50
4102.00,1.50
4101.00,1.50
4100.00,1.50
4099.00,1.50
4098.00,1.50
4097.00,1.50
4096.00,1.50
4095.00,1.50
4094.00,1.50
4093.00,1.50
4092.00,1.50
4091.00,1.50
4090.00,1.50
4089.00,1.50
4088.00,1.50
4087.00,1.50
4086.00,1.50
4085.00,1.51
4084.00,1.51
4083.00,1.52
4082.00,1.52
4081.00,1.52
4080.00,1.53
4079.00,1.53
4078.00,1.53
4077.00,1.54
4076.00,1.54
4075.00,1.54
4074.00,1.55
4073.00,1.55
4072.00,1.55
4071.00,1.55
4070.00,1.56
4069.00,1.56
4068.00,1.56
4067.00,1.56
4066.00,1.57
4065.00,1.57
4064.00,1.57
4063.00,1.57
4062.00,1.56
4061.00,1.56
4060.00,1.56
4059.00,1.56
4058.00,1.55
4057.00,1.55
4056.00,1.55
4055.00,1.54
4054.00,1.54
4053.00,1.54
4052.00,1.53
4051.00,1.53
4050.00,1.53
4049.00,1.52
4048.00,1.52
4047.00,1.52
4046.00,1.52
4045.00,1.51
4044.00,1.51
4043.00,1.51
4042.00,1.51
4041.00,1.51
4040.00,1.51
4039.00,1.51
4038.00,1.51
4037.00,1.51
4036.00,1.51
4035.00,1.52
4034.00,1.52
4033.00,1.52
4032.00,1.53
4031.00,1.53
4030.00,1.54
4029.00,1.54
4028.00,1.55
4027.00,1.55
4026.00,1.55
4025.00,1.56
4024.00,1.56
4023.00,1.57
4022.00,1.57
4021.00,1.58
4020.00,1.58
4019.00,1.58
4018.00,1.59
4017.00,1.59
4016.00,1.59
4015.00,1.59
4014.00,1.60
4013.00,1.60
4012.00,1.60
4011.00,1.60
4010.00,1.60
4009.00,1.60
4008.00,1.61
4007.00,1.61
4006.00,1.61
4005.00,1.61
4004.00,1.61
4003.00,1.61
4002.00,1.61
4001.00,1.61
4000.00,1.61
