创建为新数据集,样品 120 用户 Administrator 日期 星期五, 七月 26 2019
cm-1,%T
10000.00,1.90
9999.00,1.90
9998.00,1.90
9997.00,1.90
9996.00,1.90
9995.00,1.89
9994.00,1.89
9993.00,1.89
9992.00,1.89
9991.00,1.89
9990.00,1.89
9989.00,1.89
9988.00,1.89
9987.00,1.89
9986.00,1.89
9985.00,1.88
9984.00,1.88
9983.00,1.88
9982.00,1.88
9981.00,1.88
9980.00,1.88
9979.00,1.88
9978.00,1.88
9977.00,1.88
9976.00,1.88
9975.00,1.87
9974.00,1.87
9973.00,1.87
9972.00,1.87
9971.00,1.86
9970.00,1.86
9969.00,1.86
9968.00,1.86
9967.00,1.85
9966.00,1.85
9965.00,1.85
9964.00,1.85
9963.00,1.84
9962.00,1.84
9961.00,1.84
9960.00,1.84
9959.00,1.83
9958.00,1.83
9957.00,1.82
9956.00,1.82
9955.00,1.82
9954.00,1.81
9953.00,1.81
9952.00,1.81
9951.00,1.81
9950.00,1.80
9949.00,1.80
9948.00,1.80
9947.00,1.80
9946.00,1.79
9945.00,1.79
9944.00,1.79
9943.00,1.78
9942.00,1.78
9941.00,1.77
9940.00,1.77
9939.00,1.77
9938.00,1.76
9937.00,1.76
9936.00,1.76
9935.00,1.76
9934.00,1.76
9933.00,1.76
9932.00,1.76
9931.00,1.76
9930.00,1.76
9929.00,1.76
9928.00,1.76
9927.00,1.76
9926.00,1.76
9925.00,1.77
9924.00,1.77
9923.00,1.77
9922.00,1.77
9921.00,1.77
9920.00,1.77
9919.00,1.77
9918.00,1.77
9917.00,1.77
9916.00,1.77
9915.00,1.76
9914.00,1.76
9913.00,1.75
9912.00,1.75
9911.00,1.75
9910.00,1.74
9909.00,1.74
9908.00,1.73
9907.00,1.73
9906.00,1.73
9905.00,1.72
9904.00,1.72
9903.00,1.72
9902.00,1.71
9901.00,1.71
9900.00,1.70
9899.00,1.69
9898.00,1.69
9897.00,1.68
9896.00,1.67
9895.00,1.67
9894.00,1.67
9893.00,1.66
9892.00,1.66
9891.00,1.66
9890.00,1.66
9889.00,1.66
9888.00,1.66
9887.00,1.66
9886.00,1.66
9885.00,1.66
9884.00,1.66
9883.00,1.66
9882.00,1.65
9881.00,1.65
9880.00,1.64
9879.00,1.64
9878.00,1.63
9877.00,1.63
9876.00,1.62
9875.00,1.62
9874.00,1.62
9873.00,1.62
9872.00,1.61
9871.00,1.61
9870.00,1.61
9869.00,1.61
9868.00,1.62
9867.00,1.62
9866.00,1.62
9865.00,1.62
9864.00,1.62
9863.00,1.62
9862.00,1.62
9861.00,1.62
9860.00,1.63
9859.00,1.63
9858.00,1.64
9857.00,1.64
9856.00,1.65
9855.00,1.66
9854.00,1.67
9853.00,1.68
9852.00,1.69
9851.00,1.70
9850.00,1.70
9849.00,1.71
9848.00,1.72
9847.00,1.73
9846.00,1.73
9845.00,1.74
9844.00,1.74
9843.00,1.75
9842.00,1.75
9841.00,1.76
9840.00,1.76
9839.00,1.77
9838.00,1.77
9837.00,1.77
9836.00,1.78
9835.00,1.78
9834.00,1.78
9833.00,1.79
9832.00,1.79
9831.00,1.79
9830.00,1.79
9829.00,1.79
9828.00,1.78
9827.00,1.78
9826.00,1.78
9825.00,1.78
9824.00,1.78
9823.00,1.78
9822.00,1.78
9821.00,1.77
9820.00,1.77
9819.00,1.77
9818.00,1.77
9817.00,1.77
9816.00,1.76
9815.00,1.76
9814.00,1.76
9813.00,1.76
9812.00,1.75
9811.00,1.75
9810.00,1.75
9809.00,1.75
9808.00,1.74
9807.00,1.74
9806.00,1.74
9805.00,1.74
9804.00,1.73
9803.00,1.73
9802.00,1.72
9801.00,1.72
9800.00,1.72
9799.00,1.71
9798.00,1.71
9797.00,1.70
9796.00,1.70
9795.00,1.70
9794.00,1.69
9793.00,1.69
9792.00,1.68
9791.00,1.68
9790.00,1.68
9789.00,1.67
9788.00,1.67
9787.00,1.66
9786.00,1.66
9785.00,1.66
9784.00,1.65
9783.00,1.65
9782.00,1.65
9781.00,1.65
9780.00,1.65
9779.00,1.65
9778.00,1.65
9777.00,1.65
9776.00,1.66
9775.00,1.66
9774.00,1.66
9773.00,1.67
9772.00,1.67
9771.00,1.68
9770.00,1.68
9769.00,1.69
9768.00,1.69
9767.00,1.70
9766.00,1.71
9765.00,1.71
9764.00,1.72
9763.00,1.73
9762.00,1.74
9761.00,1.74
9760.00,1.75
9759.00,1.75
9758.00,1.76
9757.00,1.76
9756.00,1.77
9755.00,1.77
9754.00,1.77
9753.00,1.77
9752.00,1.77
9751.00,1.77
9750.00,1.77
9749.00,1.77
9748.00,1.77
9747.00,1.77
9746.00,1.77
9745.00,1.77
9744.00,1.77
9743.00,1.77
9742.00,1.77
9741.00,1.77
9740.00,1.76
9739.00,1.76
9738.00,1.76
9737.00,1.76
9736.00,1.75
9735.00,1.75
9734.00,1.75
9733.00,1.75
9732.00,1.74
9731.00,1.74
9730.00,1.74
9729.00,1.74
9728.00,1.74
9727.00,1.74
9726.00,1.74
9725.00,1.74
9724.00,1.74
9723.00,1.75
9722.00,1.75
9721.00,1.75
9720.00,1.75
9719.00,1.75
9718.00,1.75
9717.00,1.75
9716.00,1.75
9715.00,1.75
9714.00,1.75
9713.00,1.75
9712.00,1.75
9711.00,1.75
9710.00,1.75
9709.00,1.75
9708.00,1.76
9707.00,1.76
9706.00,1.76
9705.00,1.76
9704.00,1.76
9703.00,1.77
9702.00,1.77
9701.00,1.77
9700.00,1.77
9699.00,1.77
9698.00,1.77
9697.00,1.77
9696.00,1.77
9695.00,1.77
9694.00,1.77
9693.00,1.77
9692.00,1.77
9691.00,1.76
9690.00,1.76
9689.00,1.76
9688.00,1.77
9687.00,1.77
9686.00,1.77
9685.00,1.77
9684.00,1.77
9683.00,1.77
9682.00,1.77
9681.00,1.77
9680.00,1.76
9679.00,1.76
9678.00,1.76
9677.00,1.76
9676.00,1.76
9675.00,1.75
9674.00,1.75
9673.00,1.75
9672.00,1.75
9671.00,1.75
9670.00,1.74
9669.00,1.74
9668.00,1.74
9667.00,1.74
9666.00,1.74
9665.00,1.74
9664.00,1.74
9663.00,1.74
9662.00,1.73
9661.00,1.73
9660.00,1.73
9659.00,1.73
9658.00,1.72
9657.00,1.72
9656.00,1.72
9655.00,1.72
9654.00,1.71
9653.00,1.71
9652.00,1.71
9651.00,1.71
9650.00,1.71
9649.00,1.71
9648.00,1.70
9647.00,1.70
9646.00,1.70
9645.00,1.70
9644.00,1.69
9643.00,1.69
9642.00,1.69
9641.00,1.68
9640.00,1.68
9639.00,1.67
9638.00,1.67
9637.00,1.66
9636.00,1.66
9635.00,1.66
9634.00,1.65
9633.00,1.65
9632.00,1.65
9631.00,1.64
9630.00,1.64
9629.00,1.64
9628.00,1.63
9627.00,1.63
9626.00,1.63
9625.00,1.63
9624.00,1.62
9623.00,1.62
9622.00,1.62
9621.00,1.62
9620.00,1.61
9619.00,1.61
9618.00,1.61
9617.00,1.61
9616.00,1.61
9615.00,1.61
9614.00,1.61
9613.00,1.62
9612.00,1.62
9611.00,1.62
9610.00,1.63
9609.00,1.63
9608.00,1.63
9607.00,1.64
9606.00,1.64
9605.00,1.64
9604.00,1.65
9603.00,1.65
9602.00,1.65
9601.00,1.65
9600.00,1.66
9599.00,1.66
9598.00,1.67
9597.00,1.67
9596.00,1.68
9595.00,1.68
9594.00,1.69
9593.00,1.69
9592.00,1.70
9591.00,1.71
9590.00,1.71
9589.00,1.72
9588.00,1.72
9587.00,1.73
9586.00,1.73
9585.00,1.74
9584.00,1.74
9583.00,1.74
9582.00,1.75
9581.00,1.75
9580.00,1.75
9579.00,1.76
9578.00,1.76
9577.00,1.77
9576.00,1.77
9575.00,1.78
9574.00,1.78
9573.00,1.79
9572.00,1.79
9571.00,1.80
9570.00,1.80
9569.00,1.81
9568.00,1.81
9567.00,1.81
9566.00,1.81
9565.00,1.82
9564.00,1.82
9563.00,1.82
9562.00,1.83
9561.00,1.83
9560.00,1.83
9559.00,1.84
9558.00,1.84
9557.00,1.84
9556.00,1.85
9555.00,1.85
9554.00,1.85
9553.00,1.86
9552.00,1.86
9551.00,1.86
9550.00,1.87
9549.00,1.87
9548.00,1.87
9547.00,1.87
9546.00,1.87
9545.00,1.88
9544.00,1.88
9543.00,1.88
9542.00,1.88
9541.00,1.88
9540.00,1.88
9539.00,1.88
9538.00,1.88
9537.00,1.89
9536.00,1.89
9535.00,1.89
9534.00,1.89
9533.00,1.89
9532.00,1.89
9531.00,1.88
9530.00,1.88
9529.00,1.88
9528.00,1.88
9527.00,1.87
9526.00,1.87
9525.00,1.87
9524.00,1.86
9523.00,1.86
9522.00,1.85
9521.00,1.84
9520.00,1.84
9519.00,1.83
9518.00,1.82
9517.00,1.82
9516.00,1.81
9515.00,1.80
9514.00,1.79
9513.00,1.78
9512.00,1.77
9511.00,1.76
9510.00,1.75
9509.00,1.73
9508.00,1.72
9507.00,1.71
9506.00,1.70
9505.00,1.69
9504.00,1.68
9503.00,1.67
9502.00,1.66
9501.00,1.65
9500.00,1.65
9499.00,1.64
9498.00,1.63
9497.00,1.63
9496.00,1.62
9495.00,1.62
9494.00,1.62
9493.00,1.62
9492.00,1.62
9491.00,1.62
9490.00,1.62
9489.00,1.62
9488.00,1.62
9487.00,1.63
9486.00,1.63
9485.00,1.63
9484.00,1.64
9483.00,1.64
9482.00,1.65
9481.00,1.65
9480.00,1.66
9479.00,1.66
9478.00,1.67
9477.00,1.67
9476.00,1.68
9475.00,1.68
9474.00,1.68
9473.00,1.69
9472.00,1.69
9471.00,1.70
9470.00,1.70
9469.00,1.70
9468.00,1.70
9467.00,1.70
9466.00,1.70
9465.00,1.70
9464.00,1.70
9463.00,1.70
9462.00,1.70
9461.00,1.70
9460.00,1.70
9459.00,1.70
9458.00,1.70
9457.00,1.70
9456.00,1.70
9455.00,1.70
9454.00,1.70
9453.00,1.70
9452.00,1.70
9451.00,1.70
9450.00,1.70
9449.00,1.70
9448.00,1.70
9447.00,1.70
9446.00,1.70
9445.00,1.69
9444.00,1.69
9443.00,1.69
9442.00,1.69
9441.00,1.69
9440.00,1.69
9439.00,1.69
9438.00,1.69
9437.00,1.69
9436.00,1.69
9435.00,1.68
9434.00,1.68
9433.00,1.68
9432.00,1.68
9431.00,1.67
9430.00,1.67
9429.00,1.66
9428.00,1.66
9427.00,1.66
9426.00,1.65
9425.00,1.65
9424.00,1.64
9423.00,1.64
9422.00,1.63
9421.00,1.63
9420.00,1.62
9419.00,1.62
9418.00,1.61
9417.00,1.61
9416.00,1.60
9415.00,1.60
9414.00,1.59
9413.00,1.59
9412.00,1.59
9411.00,1.58
9410.00,1.58
9409.00,1.58
9408.00,1.58
9407.00,1.58
9406.00,1.58
9405.00,1.58
9404.00,1.58
9403.00,1.58
9402.00,1.58
9401.00,1.58
9400.00,1.58
9399.00,1.58
9398.00,1.59
9397.00,1.59
9396.00,1.59
9395.00,1.60
9394.00,1.60
9393.00,1.61
9392.00,1.61
9391.00,1.62
9390.00,1.63
9389.00,1.63
9388.00,1.64
9387.00,1.64
9386.00,1.65
9385.00,1.65
9384.00,1.66
9383.00,1.66
9382.00,1.67
9381.00,1.67
9380.00,1.68
9379.00,1.68
9378.00,1.69
9377.00,1.69
9376.00,1.69
9375.00,1.70
9374.00,1.70
9373.00,1.71
9372.00,1.71
9371.00,1.72
9370.00,1.72
9369.00,1.73
9368.00,1.73
9367.00,1.74
9366.00,1.74
9365.00,1.74
9364.00,1.75
9363.00,1.75
9362.00,1.76
9361.00,1.76
9360.00,1.76
9359.00,1.77
9358.00,1.77
9357.00,1.77
9356.00,1.78
9355.00,1.78
9354.00,1.78
9353.00,1.79
9352.00,1.79
9351.00,1.79
9350.00,1.80
9349.00,1.80
9348.00,1.80
9347.00,1.80
9346.00,1.80
9345.00,1.80
9344.00,1.80
9343.00,1.80
9342.00,1.80
9341.00,1.80
9340.00,1.79
9339.00,1.79
9338.00,1.79
9337.00,1.79
9336.00,1.78
9335.00,1.78
9334.00,1.78
9333.00,1.78
9332.00,1.77
9331.00,1.77
9330.00,1.77
9329.00,1.76
9328.00,1.76
9327.00,1.75
9326.00,1.75
9325.00,1.75
9324.00,1.74
9323.00,1.74
9322.00,1.73
9321.00,1.73
9320.00,1.73
9319.00,1.73
9318.00,1.72
9317.00,1.72
9316.00,1.72
9315.00,1.72
9314.00,1.71
9313.00,1.71
9312.00,1.71
9311.00,1.71
9310.00,1.70
9309.00,1.70
9308.00,1.70
9307.00,1.70
9306.00,1.69
9305.00,1.69
9304.00,1.69
9303.00,1.69
9302.00,1.68
9301.00,1.68
9300.00,1.68
9299.00,1.68
9298.00,1.68
9297.00,1.68
9296.00,1.68
9295.00,1.68
9294.00,1.68
9293.00,1.68
9292.00,1.68
9291.00,1.68
9290.00,1.69
9289.00,1.69
9288.00,1.69
9287.00,1.70
9286.00,1.70
9285.00,1.70
9284.00,1.71
9283.00,1.71
9282.00,1.72
9281.00,1.72
9280.00,1.72
9279.00,1.73
9278.00,1.73
9277.00,1.74
9276.00,1.74
9275.00,1.74
9274.00,1.74
9273.00,1.75
9272.00,1.75
9271.00,1.75
9270.00,1.75
9269.00,1.75
9268.00,1.74
9267.00,1.74
9266.00,1.74
9265.00,1.73
9264.00,1.73
9263.00,1.72
9262.00,1.72
9261.00,1.71
9260.00,1.70
9259.00,1.70
9258.00,1.69
9257.00,1.69
9256.00,1.68
9255.00,1.67
9254.00,1.67
9253.00,1.66
9252.00,1.65
9251.00,1.65
9250.00,1.64
9249.00,1.64
9248.00,1.63
9247.00,1.63
9246.00,1.62
9245.00,1.62
9244.00,1.62
9243.00,1.62
9242.00,1.61
9241.00,1.61
9240.00,1.61
9239.00,1.61
9238.00,1.61
9237.00,1.61
9236.00,1.61
9235.00,1.61
9234.00,1.61
9233.00,1.62
9232.00,1.62
9231.00,1.62
9230.00,1.62
9229.00,1.62
9228.00,1.63
9227.00,1.63
9226.00,1.63
9225.00,1.64
9224.00,1.64
9223.00,1.64
9222.00,1.65
9221.00,1.65
9220.00,1.66
9219.00,1.66
9218.00,1.67
9217.00,1.67
9216.00,1.68
9215.00,1.69
9214.00,1.69
9213.00,1.70
9212.00,1.70
9211.00,1.71
9210.00,1.72
9209.00,1.72
9208.00,1.73
9207.00,1.73
9206.00,1.74
9205.00,1.74
9204.00,1.74
9203.00,1.75
9202.00,1.75
9201.00,1.75
9200.00,1.76
9199.00,1.76
9198.00,1.77
9197.00,1.77
9196.00,1.77
9195.00,1.78
9194.00,1.78
9193.00,1.78
9192.00,1.78
9191.00,1.79
9190.00,1.79
9189.00,1.79
9188.00,1.78
9187.00,1.78
9186.00,1.78
9185.00,1.78
9184.00,1.78
9183.00,1.78
9182.00,1.77
9181.00,1.77
9180.00,1.77
9179.00,1.77
9178.00,1.77
9177.00,1.77
9176.00,1.77
9175.00,1.77
9174.00,1.77
9173.00,1.77
9172.00,1.77
9171.00,1.77
9170.00,1.76
9169.00,1.76
9168.00,1.76
9167.00,1.76
9166.00,1.76
9165.00,1.76
9164.00,1.76
9163.00,1.76
9162.00,1.75
9161.00,1.75
9160.00,1.75
9159.00,1.75
9158.00,1.75
9157.00,1.75
9156.00,1.76
9155.00,1.76
9154.00,1.76
9153.00,1.76
9152.00,1.76
9151.00,1.76
9150.00,1.76
9149.00,1.76
9148.00,1.76
9147.00,1.75
9146.00,1.75
9145.00,1.75
9144.00,1.74
9143.00,1.74
9142.00,1.74
9141.00,1.74
9140.00,1.74
9139.00,1.73
9138.00,1.73
9137.00,1.73
9136.00,1.73
9135.00,1.73
9134.00,1.74
9133.00,1.74
9132.00,1.74
9131.00,1.74
9130.00,1.74
9129.00,1.74
9128.00,1.74
9127.00,1.74
9126.00,1.74
9125.00,1.74
9124.00,1.75
9123.00,1.75
9122.00,1.75
9121.00,1.76
9120.00,1.76
9119.00,1.76
9118.00,1.77
9117.00,1.78
9116.00,1.78
9115.00,1.79
9114.00,1.79
9113.00,1.79
9112.00,1.80
9111.00,1.80
9110.00,1.80
9109.00,1.80
9108.00,1.80
9107.00,1.80
9106.00,1.80
9105.00,1.80
9104.00,1.80
9103.00,1.80
9102.00,1.80
9101.00,1.80
9100.00,1.80
9099.00,1.80
9098.00,1.80
9097.00,1.79
9096.00,1.79
9095.00,1.79
9094.00,1.79
9093.00,1.78
9092.00,1.78
9091.00,1.77
9090.00,1.77
9089.00,1.77
9088.00,1.76
9087.00,1.76
9086.00,1.76
9085.00,1.75
9084.00,1.75
9083.00,1.75
9082.00,1.75
9081.00,1.75
9080.00,1.74
9079.00,1.74
9078.00,1.74
9077.00,1.74
9076.00,1.74
9075.00,1.74
9074.00,1.74
9073.00,1.74
9072.00,1.75
9071.00,1.75
9070.00,1.75
9069.00,1.75
9068.00,1.75
9067.00,1.75
9066.00,1.75
9065.00,1.75
9064.00,1.74
9063.00,1.74
9062.00,1.74
9061.00,1.74
9060.00,1.74
9059.00,1.74
9058.00,1.74
9057.00,1.74
9056.00,1.74
9055.00,1.73
9054.00,1.73
9053.00,1.73
9052.00,1.73
9051.00,1.73
9050.00,1.73
9049.00,1.72
9048.00,1.72
9047.00,1.72
9046.00,1.72
9045.00,1.72
9044.00,1.72
9043.00,1.72
9042.00,1.72
9041.00,1.72
9040.00,1.72
9039.00,1.72
9038.00,1.72
9037.00,1.72
9036.00,1.73
9035.00,1.73
9034.00,1.73
9033.00,1.73
9032.00,1.73
9031.00,1.73
9030.00,1.73
9029.00,1.73
9028.00,1.73
9027.00,1.73
9026.00,1.73
9025.00,1.73
9024.00,1.73
9023.00,1.73
9022.00,1.73
9021.00,1.72
9020.00,1.72
9019.00,1.72
9018.00,1.72
9017.00,1.71
9016.00,1.71
9015.00,1.71
9014.00,1.70
9013.00,1.70
9012.00,1.69
9011.00,1.69
9010.00,1.69
9009.00,1.69
9008.00,1.68
9007.00,1.68
9006.00,1.68
9005.00,1.68
9004.00,1.68
9003.00,1.68
9002.00,1.68
9001.00,1.68
9000.00,1.68
8999.00,1.68
8998.00,1.68
8997.00,1.68
8996.00,1.68
8995.00,1.68
8994.00,1.69
8993.00,1.69
8992.00,1.69
8991.00,1.69
8990.00,1.69
8989.00,1.70
8988.00,1.70
8987.00,1.70
8986.00,1.70
8985.00,1.70
8984.00,1.70
8983.00,1.70
8982.00,1.70
8981.00,1.70
8980.00,1.69
8979.00,1.69
8978.00,1.69
8977.00,1.69
8976.00,1.69
8975.00,1.68
8974.00,1.68
8973.00,1.68
8972.00,1.68
8971.00,1.67
8970.00,1.67
8969.00,1.66
8968.00,1.66
8967.00,1.65
8966.00,1.65
8965.00,1.65
8964.00,1.64
8963.00,1.64
8962.00,1.64
8961.00,1.63
8960.00,1.63
8959.00,1.63
8958.00,1.63
8957.00,1.63
8956.00,1.62
8955.00,1.62
8954.00,1.62
8953.00,1.62
8952.00,1.62
8951.00,1.62
8950.00,1.63
8949.00,1.63
8948.00,1.63
8947.00,1.63
8946.00,1.63
8945.00,1.64
8944.00,1.64
8943.00,1.65
8942.00,1.65
8941.00,1.65
8940.00,1.66
8939.00,1.66
8938.00,1.67
8937.00,1.67
8936.00,1.68
8935.00,1.68
8934.00,1.69
8933.00,1.69
8932.00,1.70
8931.00,1.71
8930.00,1.71
8929.00,1.72
8928.00,1.73
8927.00,1.73
8926.00,1.74
8925.00,1.74
8924.00,1.75
8923.00,1.75
8922.00,1.76
8921.00,1.76
8920.00,1.76
8919.00,1.77
8918.00,1.77
8917.00,1.77
8916.00,1.77
8915.00,1.77
8914.00,1.77
8913.00,1.77
8912.00,1.77
8911.00,1.77
8910.00,1.77
8909.00,1.77
8908.00,1.77
8907.00,1.77
8906.00,1.76
8905.00,1.76
8904.00,1.75
8903.00,1.75
8902.00,1.74
8901.00,1.73
8900.00,1.73
8899.00,1.72
8898.00,1.72
8897.00,1.71
8896.00,1.71
8895.00,1.70
8894.00,1.70
8893.00,1.69
8892.00,1.69
8891.00,1.68
8890.00,1.68
8889.00,1.67
8888.00,1.67
8887.00,1.67
8886.00,1.67
8885.00,1.67
8884.00,1.67
8883.00,1.67
8882.00,1.67
8881.00,1.67
8880.00,1.67
8879.00,1.67
8878.00,1.68
8877.00,1.68
8876.00,1.68
8875.00,1.69
8874.00,1.69
8873.00,1.70
8872.00,1.70
8871.00,1.71
8870.00,1.71
8869.00,1.71
8868.00,1.72
8867.00,1.72
8866.00,1.73
8865.00,1.73
8864.00,1.73
8863.00,1.74
8862.00,1.74
8861.00,1.74
8860.00,1.74
8859.00,1.74
8858.00,1.74
8857.00,1.74
8856.00,1.74
8855.00,1.74
8854.00,1.74
8853.00,1.74
8852.00,1.74
8851.00,1.74
8850.00,1.74
8849.00,1.74
8848.00,1.74
8847.00,1.74
8846.00,1.73
8845.00,1.73
8844.00,1.73
8843.00,1.73
8842.00,1.73
8841.00,1.72
8840.00,1.72
8839.00,1.72
8838.00,1.72
8837.00,1.72
8836.00,1.72
8835.00,1.72
8834.00,1.72
8833.00,1.72
8832.00,1.72
8831.00,1.73
8830.00,1.73
8829.00,1.73
8828.00,1.74
8827.00,1.74
8826.00,1.74
8825.00,1.74
8824.00,1.75
8823.00,1.75
8822.00,1.75
8821.00,1.76
8820.00,1.76
8819.00,1.76
8818.00,1.76
8817.00,1.76
8816.00,1.77
8815.00,1.77
8814.00,1.77
8813.00,1.77
8812.00,1.78
8811.00,1.78
8810.00,1.78
8809.00,1.78
8808.00,1.79
8807.00,1.79
8806.00,1.79
8805.00,1.79
8804.00,1.79
8803.00,1.79
8802.00,1.79
8801.00,1.79
8800.00,1.79
8799.00,1.79
8798.00,1.79
8797.00,1.79
8796.00,1.79
8795.00,1.79
8794.00,1.79
8793.00,1.79
8792.00,1.79
8791.00,1.79
8790.00,1.79
8789.00,1.79
8788.00,1.80
8787.00,1.80
8786.00,1.80
8785.00,1.80
8784.00,1.80
8783.00,1.80
8782.00,1.80
8781.00,1.79
8780.00,1.79
8779.00,1.79
8778.00,1.79
8777.00,1.78
8776.00,1.78
8775.00,1.78
8774.00,1.77
8773.00,1.77
8772.00,1.77
8771.00,1.76
8770.00,1.75
8769.00,1.75
8768.00,1.74
8767.00,1.73
8766.00,1.73
8765.00,1.72
8764.00,1.71
8763.00,1.70
8762.00,1.69
8761.00,1.69
8760.00,1.68
8759.00,1.67
8758.00,1.66
8757.00,1.66
8756.00,1.65
8755.00,1.65
8754.00,1.64
8753.00,1.64
8752.00,1.64
8751.00,1.64
8750.00,1.63
8749.00,1.63
8748.00,1.63
8747.00,1.63
8746.00,1.64
8745.00,1.64
8744.00,1.64
8743.00,1.65
8742.00,1.65
8741.00,1.66
8740.00,1.67
8739.00,1.67
8738.00,1.68
8737.00,1.69
8736.00,1.70
8735.00,1.71
8734.00,1.72
8733.00,1.72
8732.00,1.73
8731.00,1.74
8730.00,1.74
8729.00,1.75
8728.00,1.76
8727.00,1.76
8726.00,1.77
8725.00,1.77
8724.00,1.78
8723.00,1.78
8722.00,1.78
8721.00,1.79
8720.00,1.79
8719.00,1.79
8718.00,1.79
8717.00,1.79
8716.00,1.79
8715.00,1.78
8714.00,1.78
8713.00,1.78
8712.00,1.77
8711.00,1.77
8710.00,1.76
8709.00,1.76
8708.00,1.75
8707.00,1.75
8706.00,1.74
8705.00,1.74
8704.00,1.73
8703.00,1.72
8702.00,1.72
8701.00,1.71
8700.00,1.70
8699.00,1.70
8698.00,1.69
8697.00,1.68
8696.00,1.67
8695.00,1.67
8694.00,1.66
8693.00,1.65
8692.00,1.64
8691.00,1.64
8690.00,1.63
8689.00,1.62
8688.00,1.62
8687.00,1.61
8686.00,1.61
8685.00,1.61
8684.00,1.60
8683.00,1.60
8682.00,1.60
8681.00,1.60
8680.00,1.59
8679.00,1.60
8678.00,1.60
8677.00,1.60
8676.00,1.60
8675.00,1.60
8674.00,1.61
8673.00,1.61
8672.00,1.61
8671.00,1.62
8670.00,1.62
8669.00,1.63
8668.00,1.64
8667.00,1.64
8666.00,1.65
8665.00,1.66
8664.00,1.67
8663.00,1.67
8662.00,1.68
8661.00,1.69
8660.00,1.70
8659.00,1.71
8658.00,1.71
8657.00,1.72
8656.00,1.73
8655.00,1.73
8654.00,1.74
8653.00,1.74
8652.00,1.75
8651.00,1.75
8650.00,1.76
8649.00,1.76
8648.00,1.76
8647.00,1.77
8646.00,1.77
8645.00,1.77
8644.00,1.77
8643.00,1.77
8642.00,1.77
8641.00,1.77
8640.00,1.77
8639.00,1.77
8638.00,1.76
8637.00,1.76
8636.00,1.76
8635.00,1.75
8634.00,1.75
8633.00,1.74
8632.00,1.73
8631.00,1.73
8630.00,1.72
8629.00,1.72
8628.00,1.71
8627.00,1.71
8626.00,1.70
8625.00,1.69
8624.00,1.69
8623.00,1.68
8622.00,1.68
8621.00,1.68
8620.00,1.67
8619.00,1.67
8618.00,1.67
8617.00,1.67
8616.00,1.66
8615.00,1.66
8614.00,1.66
8613.00,1.66
8612.00,1.67
8611.00,1.67
8610.00,1.67
8609.00,1.67
8608.00,1.67
8607.00,1.68
8606.00,1.68
8605.00,1.68
8604.00,1.68
8603.00,1.69
8602.00,1.69
8601.00,1.69
8600.00,1.70
8599.00,1.70
8598.00,1.70
8597.00,1.70
8596.00,1.70
8595.00,1.70
8594.00,1.70
8593.00,1.70
8592.00,1.70
8591.00,1.70
8590.00,1.69
8589.00,1.69
8588.00,1.68
8587.00,1.68
8586.00,1.67
8585.00,1.67
8584.00,1.66
8583.00,1.66
8582.00,1.65
8581.00,1.65
8580.00,1.64
8579.00,1.64
8578.00,1.63
8577.00,1.63
8576.00,1.62
8575.00,1.62
8574.00,1.61
8573.00,1.61
8572.00,1.61
8571.00,1.60
8570.00,1.60
8569.00,1.60
8568.00,1.60
8567.00,1.60
8566.00,1.60
8565.00,1.60
8564.00,1.60
8563.00,1.60
8562.00,1.61
8561.00,1.61
8560.00,1.61
8559.00,1.61
8558.00,1.62
8557.00,1.62
8556.00,1.62
8555.00,1.63
8554.00,1.63
8553.00,1.63
8552.00,1.64
8551.00,1.64
8550.00,1.65
8549.00,1.65
8548.00,1.66
8547.00,1.66
8546.00,1.67
8545.00,1.67
8544.00,1.68
8543.00,1.68
8542.00,1.69
8541.00,1.69
8540.00,1.70
8539.00,1.70
8538.00,1.71
8537.00,1.71
8536.00,1.71
8535.00,1.72
8534.00,1.72
8533.00,1.73
8532.00,1.73
8531.00,1.73
8530.00,1.74
8529.00,1.74
8528.00,1.74
8527.00,1.74
8526.00,1.75
8525.00,1.75
8524.00,1.75
8523.00,1.75
8522.00,1.75
8521.00,1.74
8520.00,1.74
8519.00,1.74
8518.00,1.74
8517.00,1.74
8516.00,1.74
8515.00,1.74
8514.00,1.73
8513.00,1.73
8512.00,1.73
8511.00,1.72
8510.00,1.72
8509.00,1.72
8508.00,1.72
8507.00,1.71
8506.00,1.71
8505.00,1.71
8504.00,1.70
8503.00,1.70
8502.00,1.70
8501.00,1.70
8500.00,1.69
8499.00,1.69
8498.00,1.69
8497.00,1.69
8496.00,1.69
8495.00,1.69
8494.00,1.69
8493.00,1.69
8492.00,1.69
8491.00,1.69
8490.00,1.68
8489.00,1.68
8488.00,1.68
8487.00,1.68
8486.00,1.68
8485.00,1.68
8484.00,1.68
8483.00,1.68
8482.00,1.68
8481.00,1.68
8480.00,1.68
8479.00,1.68
8478.00,1.68
8477.00,1.68
8476.00,1.68
8475.00,1.68
8474.00,1.68
8473.00,1.68
8472.00,1.68
8471.00,1.68
8470.00,1.68
8469.00,1.68
8468.00,1.68
8467.00,1.68
8466.00,1.68
8465.00,1.68
8464.00,1.68
8463.00,1.69
8462.00,1.69
8461.00,1.69
8460.00,1.69
8459.00,1.70
8458.00,1.70
8457.00,1.70
8456.00,1.70
8455.00,1.71
8454.00,1.71
8453.00,1.71
8452.00,1.72
8451.00,1.72
8450.00,1.72
8449.00,1.73
8448.00,1.73
8447.00,1.73
8446.00,1.74
8445.00,1.74
8444.00,1.74
8443.00,1.75
8442.00,1.75
8441.00,1.75
8440.00,1.75
8439.00,1.75
8438.00,1.75
8437.00,1.75
8436.00,1.75
8435.00,1.75
8434.00,1.75
8433.00,1.75
8432.00,1.75
8431.00,1.76
8430.00,1.76
8429.00,1.76
8428.00,1.76
8427.00,1.76
8426.00,1.76
8425.00,1.76
8424.00,1.76
8423.00,1.76
8422.00,1.76
8421.00,1.76
8420.00,1.75
8419.00,1.75
8418.00,1.75
8417.00,1.75
8416.00,1.75
8415.00,1.75
8414.00,1.75
8413.00,1.75
8412.00,1.75
8411.00,1.75
8410.00,1.75
8409.00,1.75
8408.00,1.75
8407.00,1.75
8406.00,1.75
8405.00,1.75
8404.00,1.74
8403.00,1.74
8402.00,1.73
8401.00,1.73
8400.00,1.72
8399.00,1.72
8398.00,1.71
8397.00,1.71
8396.00,1.70
8395.00,1.70
8394.00,1.69
8393.00,1.69
8392.00,1.68
8391.00,1.68
8390.00,1.67
8389.00,1.67
8388.00,1.66
8387.00,1.66
8386.00,1.65
8385.00,1.65
8384.00,1.65
8383.00,1.64
8382.00,1.64
8381.00,1.64
8380.00,1.63
8379.00,1.63
8378.00,1.63
8377.00,1.63
8376.00,1.63
8375.00,1.63
8374.00,1.64
8373.00,1.64
8372.00,1.64
8371.00,1.64
8370.00,1.65
8369.00,1.65
8368.00,1.65
8367.00,1.66
8366.00,1.66
8365.00,1.66
8364.00,1.67
8363.00,1.67
8362.00,1.68
8361.00,1.68
8360.00,1.68
8359.00,1.69
8358.00,1.69
8357.00,1.70
8356.00,1.70
8355.00,1.71
8354.00,1.71
8353.00,1.71
8352.00,1.72
8351.00,1.72
8350.00,1.72
8349.00,1.72
8348.00,1.73
8347.00,1.73
8346.00,1.73
8345.00,1.73
8344.00,1.73
8343.00,1.73
8342.00,1.73
8341.00,1.73
8340.00,1.73
8339.00,1.73
8338.00,1.73
8337.00,1.73
8336.00,1.73
8335.00,1.72
8334.00,1.72
8333.00,1.72
8332.00,1.71
8331.00,1.71
8330.00,1.71
8329.00,1.71
8328.00,1.70
8327.00,1.70
8326.00,1.70
8325.00,1.69
8324.00,1.69
8323.00,1.69
8322.00,1.68
8321.00,1.68
8320.00,1.68
8319.00,1.68
8318.00,1.67
8317.00,1.67
8316.00,1.68
8315.00,1.68
8314.00,1.68
8313.00,1.68
8312.00,1.69
8311.00,1.69
8310.00,1.69
8309.00,1.70
8308.00,1.70
8307.00,1.71
8306.00,1.71
8305.00,1.72
8304.00,1.72
8303.00,1.73
8302.00,1.73
8301.00,1.74
8300.00,1.74
8299.00,1.75
8298.00,1.75
8297.00,1.76
8296.00,1.77
8295.00,1.77
8294.00,1.78
8293.00,1.78
8292.00,1.79
8291.00,1.79
8290.00,1.79
8289.00,1.79
8288.00,1.79
8287.00,1.79
8286.00,1.79
8285.00,1.79
8284.00,1.79
8283.00,1.79
8282.00,1.79
8281.00,1.79
8280.00,1.78
8279.00,1.78
8278.00,1.78
8277.00,1.78
8276.00,1.77
8275.00,1.77
8274.00,1.77
8273.00,1.76
8272.00,1.76
8271.00,1.75
8270.00,1.75
8269.00,1.74
8268.00,1.74
8267.00,1.73
8266.00,1.73
8265.00,1.73
8264.00,1.72
8263.00,1.72
8262.00,1.72
8261.00,1.71
8260.00,1.71
8259.00,1.71
8258.00,1.71
8257.00,1.71
8256.00,1.71
8255.00,1.70
8254.00,1.70
8253.00,1.70
8252.00,1.70
8251.00,1.70
8250.00,1.70
8249.00,1.69
8248.00,1.69
8247.00,1.69
8246.00,1.69
8245.00,1.69
8244.00,1.69
8243.00,1.70
8242.00,1.70
8241.00,1.70
8240.00,1.70
8239.00,1.70
8238.00,1.70
8237.00,1.70
8236.00,1.70
8235.00,1.70
8234.00,1.70
8233.00,1.71
8232.00,1.71
8231.00,1.71
8230.00,1.71
8229.00,1.71
8228.00,1.72
8227.00,1.72
8226.00,1.72
8225.00,1.73
8224.00,1.73
8223.00,1.73
8222.00,1.74
8221.00,1.74
8220.00,1.74
8219.00,1.75
8218.00,1.75
8217.00,1.75
8216.00,1.76
8215.00,1.76
8214.00,1.76
8213.00,1.76
8212.00,1.76
8211.00,1.76
8210.00,1.76
8209.00,1.76
8208.00,1.76
8207.00,1.76
8206.00,1.76
8205.00,1.76
8204.00,1.76
8203.00,1.76
8202.00,1.76
8201.00,1.76
8200.00,1.76
8199.00,1.76
8198.00,1.75
8197.00,1.75
8196.00,1.75
8195.00,1.75
8194.00,1.75
8193.00,1.75
8192.00,1.75
8191.00,1.74
8190.00,1.74
8189.00,1.74
8188.00,1.74
8187.00,1.74
8186.00,1.74
8185.00,1.74
8184.00,1.74
8183.00,1.74
8182.00,1.74
8181.00,1.74
8180.00,1.74
8179.00,1.74
8178.00,1.74
8177.00,1.74
8176.00,1.75
8175.00,1.75
8174.00,1.75
8173.00,1.75
8172.00,1.75
8171.00,1.75
8170.00,1.75
8169.00,1.75
8168.00,1.75
8167.00,1.74
8166.00,1.74
8165.00,1.74
8164.00,1.74
8163.00,1.74
8162.00,1.74
8161.00,1.74
8160.00,1.74
8159.00,1.74
8158.00,1.74
8157.00,1.74
8156.00,1.74
8155.00,1.74
8154.00,1.74
8153.00,1.74
8152.00,1.73
8151.00,1.73
8150.00,1.73
8149.00,1.73
8148.00,1.73
8147.00,1.73
8146.00,1.72
8145.00,1.72
8144.00,1.72
8143.00,1.72
8142.00,1.72
8141.00,1.72
8140.00,1.72
8139.00,1.72
8138.00,1.71
8137.00,1.71
8136.00,1.71
8135.00,1.71
8134.00,1.71
8133.00,1.71
8132.00,1.70
8131.00,1.70
8130.00,1.70
8129.00,1.70
8128.00,1.69
8127.00,1.69
8126.00,1.69
8125.00,1.69
8124.00,1.69
8123.00,1.69
8122.00,1.69
8121.00,1.70
8120.00,1.70
8119.00,1.70
8118.00,1.70
8117.00,1.71
8116.00,1.71
8115.00,1.71
8114.00,1.72
8113.00,1.72
8112.00,1.72
8111.00,1.73
8110.00,1.73
8109.00,1.74
8108.00,1.74
8107.00,1.74
8106.00,1.75
8105.00,1.75
8104.00,1.76
8103.00,1.76
8102.00,1.77
8101.00,1.77
8100.00,1.78
8099.00,1.78
8098.00,1.78
8097.00,1.78
8096.00,1.78
8095.00,1.79
8094.00,1.79
8093.00,1.79
8092.00,1.79
8091.00,1.79
8090.00,1.79
8089.00,1.79
8088.00,1.78
8087.00,1.78
8086.00,1.78
8085.00,1.78
8084.00,1.78
8083.00,1.78
8082.00,1.78
8081.00,1.77
8080.00,1.77
8079.00,1.77
8078.00,1.77
8077.00,1.77
8076.00,1.77
8075.00,1.77
8074.00,1.77
8073.00,1.77
8072.00,1.76
8071.00,1.76
8070.00,1.76
8069.00,1.76
8068.00,1.76
8067.00,1.76
8066.00,1.76
8065.00,1.76
8064.00,1.76
8063.00,1.77
8062.00,1.77
8061.00,1.77
8060.00,1.77
8059.00,1.77
8058.00,1.78
8057.00,1.78
8056.00,1.78
8055.00,1.78
8054.00,1.78
8053.00,1.78
8052.00,1.79
8051.00,1.79
8050.00,1.79
8049.00,1.79
8048.00,1.80
8047.00,1.80
8046.00,1.80
8045.00,1.81
8044.00,1.81
8043.00,1.82
8042.00,1.82
8041.00,1.82
8040.00,1.83
8039.00,1.83
8038.00,1.83
8037.00,1.83
8036.00,1.84
8035.00,1.84
8034.00,1.84
8033.00,1.84
8032.00,1.84
8031.00,1.84
8030.00,1.84
8029.00,1.84
8028.00,1.83
8027.00,1.83
8026.00,1.83
8025.00,1.83
8024.00,1.83
8023.00,1.83
8022.00,1.82
8021.00,1.82
8020.00,1.82
8019.00,1.81
8018.00,1.81
8017.00,1.80
8016.00,1.80
8015.00,1.79
8014.00,1.78
8013.00,1.78
8012.00,1.77
8011.00,1.76
8010.00,1.76
8009.00,1.75
8008.00,1.75
8007.00,1.74
8006.00,1.74
8005.00,1.74
8004.00,1.73
8003.00,1.73
8002.00,1.73
8001.00,1.72
8000.00,1.72
7999.00,1.72
7998.00,1.72
7997.00,1.71
7996.00,1.71
7995.00,1.71
7994.00,1.71
7993.00,1.71
7992.00,1.71
7991.00,1.71
7990.00,1.71
7989.00,1.71
7988.00,1.71
7987.00,1.71
7986.00,1.71
7985.00,1.71
7984.00,1.71
7983.00,1.72
7982.00,1.72
7981.00,1.72
7980.00,1.72
7979.00,1.72
7978.00,1.72
7977.00,1.72
7976.00,1.72
7975.00,1.72
7974.00,1.73
7973.00,1.73
7972.00,1.73
7971.00,1.73
7970.00,1.73
7969.00,1.73
7968.00,1.73
7967.00,1.74
7966.00,1.74
7965.00,1.74
7964.00,1.75
7963.00,1.75
7962.00,1.75
7961.00,1.75
7960.00,1.76
7959.00,1.76
7958.00,1.76
7957.00,1.77
7956.00,1.77
7955.00,1.77
7954.00,1.78
7953.00,1.78
7952.00,1.78
7951.00,1.79
7950.00,1.79
7949.00,1.79
7948.00,1.79
7947.00,1.80
7946.00,1.80
7945.00,1.80
7944.00,1.80
7943.00,1.80
7942.00,1.81
7941.00,1.81
7940.00,1.81
7939.00,1.81
7938.00,1.80
7937.00,1.80
7936.00,1.80
7935.00,1.80
7934.00,1.80
7933.00,1.80
7932.00,1.79
7931.00,1.79
7930.00,1.79
7929.00,1.78
7928.00,1.78
7927.00,1.78
7926.00,1.78
7925.00,1.77
7924.00,1.77
7923.00,1.77
7922.00,1.77
7921.00,1.77
7920.00,1.77
7919.00,1.77
7918.00,1.77
7917.00,1.77
7916.00,1.77
7915.00,1.77
7914.00,1.77
7913.00,1.77
7912.00,1.77
7911.00,1.77
7910.00,1.77
7909.00,1.78
7908.00,1.78
7907.00,1.78
7906.00,1.79
7905.00,1.79
7904.00,1.79
7903.00,1.80
7902.00,1.80
7901.00,1.80
7900.00,1.81
7899.00,1.81
7898.00,1.82
7897.00,1.82
7896.00,1.82
7895.00,1.83
7894.00,1.83
7893.00,1.83
7892.00,1.83
7891.00,1.83
7890.00,1.83
7889.00,1.83
7888.00,1.83
7887.00,1.83
7886.00,1.84
7885.00,1.84
7884.00,1.84
7883.00,1.84
7882.00,1.84
7881.00,1.83
7880.00,1.83
7879.00,1.83
7878.00,1.83
7877.00,1.83
7876.00,1.83
7875.00,1.82
7874.00,1.82
7873.00,1.82
7872.00,1.81
7871.00,1.81
7870.00,1.81
7869.00,1.80
7868.00,1.80
7867.00,1.80
7866.00,1.79
7865.00,1.79
7864.00,1.79
7863.00,1.79
7862.00,1.79
7861.00,1.78
7860.00,1.78
7859.00,1.78
7858.00,1.78
7857.00,1.78
7856.00,1.78
7855.00,1.78
7854.00,1.77
7853.00,1.77
7852.00,1.77
7851.00,1.77
7850.00,1.77
7849.00,1.77
7848.00,1.78
7847.00,1.78
7846.00,1.78
7845.00,1.78
7844.00,1.78
7843.00,1.79
7842.00,1.79
7841.00,1.79
7840.00,1.79
7839.00,1.80
7838.00,1.80
7837.00,1.80
7836.00,1.81
7835.00,1.81
7834.00,1.81
7833.00,1.81
7832.00,1.82
7831.00,1.82
7830.00,1.82
7829.00,1.82
7828.00,1.82
7827.00,1.83
7826.00,1.83
7825.00,1.83
7824.00,1.83
7823.00,1.83
7822.00,1.83
7821.00,1.83
7820.00,1.83
7819.00,1.83
7818.00,1.83
7817.00,1.83
7816.00,1.83
7815.00,1.83
7814.00,1.83
7813.00,1.83
7812.00,1.83
7811.00,1.83
7810.00,1.83
7809.00,1.83
7808.00,1.83
7807.00,1.82
7806.00,1.82
7805.00,1.82
7804.00,1.82
7803.00,1.82
7802.00,1.82
7801.00,1.82
7800.00,1.82
7799.00,1.82
7798.00,1.82
7797.00,1.82
7796.00,1.82
7795.00,1.82
7794.00,1.82
7793.00,1.82
7792.00,1.82
7791.00,1.82
7790.00,1.82
7789.00,1.82
7788.00,1.81
7787.00,1.81
7786.00,1.81
7785.00,1.81
7784.00,1.81
7783.00,1.81
7782.00,1.81
7781.00,1.81
7780.00,1.81
7779.00,1.81
7778.00,1.81
7777.00,1.81
7776.00,1.81
7775.00,1.82
7774.00,1.82
7773.00,1.82
7772.00,1.82
7771.00,1.82
7770.00,1.82
7769.00,1.82
7768.00,1.82
7767.00,1.82
7766.00,1.82
7765.00,1.83
7764.00,1.83
7763.00,1.83
7762.00,1.83
7761.00,1.83
7760.00,1.83
7759.00,1.83
7758.00,1.83
7757.00,1.83
7756.00,1.83
7755.00,1.83
7754.00,1.83
7753.00,1.83
7752.00,1.83
7751.00,1.83
7750.00,1.83
7749.00,1.83
7748.00,1.83
7747.00,1.83
7746.00,1.83
7745.00,1.83
7744.00,1.83
7743.00,1.82
7742.00,1.82
7741.00,1.82
7740.00,1.82
7739.00,1.82
7738.00,1.82
7737.00,1.82
7736.00,1.83
7735.00,1.83
7734.00,1.83
7733.00,1.82
7732.00,1.82
7731.00,1.82
7730.00,1.82
7729.00,1.82
7728.00,1.82
7727.00,1.82
7726.00,1.82
7725.00,1.82
7724.00,1.82
7723.00,1.82
7722.00,1.82
7721.00,1.82
7720.00,1.82
7719.00,1.82
7718.00,1.82
7717.00,1.82
7716.00,1.82
7715.00,1.82
7714.00,1.81
7713.00,1.81
7712.00,1.81
7711.00,1.81
7710.00,1.80
7709.00,1.80
7708.00,1.80
7707.00,1.80
7706.00,1.79
7705.00,1.79
7704.00,1.79
7703.00,1.79
7702.00,1.79
7701.00,1.79
7700.00,1.79
7699.00,1.79
7698.00,1.78
7697.00,1.78
7696.00,1.78
7695.00,1.78
7694.00,1.78
7693.00,1.78
7692.00,1.78
7691.00,1.78
7690.00,1.78
7689.00,1.78
7688.00,1.78
7687.00,1.78
7686.00,1.79
7685.00,1.79
7684.00,1.79
7683.00,1.79
7682.00,1.79
7681.00,1.80
7680.00,1.80
7679.00,1.80
7678.00,1.80
7677.00,1.80
7676.00,1.80
7675.00,1.80
7674.00,1.80
7673.00,1.81
7672.00,1.81
7671.00,1.81
7670.00,1.81
7669.00,1.81
7668.00,1.81
7667.00,1.81
7666.00,1.81
7665.00,1.81
7664.00,1.81
7663.00,1.81
7662.00,1.81
7661.00,1.81
7660.00,1.81
7659.00,1.81
7658.00,1.80
7657.00,1.80
7656.00,1.80
7655.00,1.80
7654.00,1.80
7653.00,1.80
7652.00,1.80
7651.00,1.80
7650.00,1.80
7649.00,1.80
7648.00,1.79
7647.00,1.79
7646.00,1.79
7645.00,1.79
7644.00,1.78
7643.00,1.78
7642.00,1.78
7641.00,1.78
7640.00,1.77
7639.00,1.77
7638.00,1.77
7637.00,1.77
7636.00,1.77
7635.00,1.77
7634.00,1.77
7633.00,1.77
7632.00,1.77
7631.00,1.77
7630.00,1.77
7629.00,1.77
7628.00,1.76
7627.00,1.76
7626.00,1.76
7625.00,1.76
7624.00,1.77
7623.00,1.77
7622.00,1.77
7621.00,1.77
7620.00,1.77
7619.00,1.78
7618.00,1.78
7617.00,1.79
7616.00,1.79
7615.00,1.79
7614.00,1.80
7613.00,1.80
7612.00,1.80
7611.00,1.81
7610.00,1.81
7609.00,1.81
7608.00,1.81
7607.00,1.81
7606.00,1.82
7605.00,1.82
7604.00,1.82
7603.00,1.82
7602.00,1.82
7601.00,1.82
7600.00,1.83
7599.00,1.83
7598.00,1.83
7597.00,1.83
7596.00,1.83
7595.00,1.83
7594.00,1.83
7593.00,1.83
7592.00,1.83
7591.00,1.83
7590.00,1.83
7589.00,1.83
7588.00,1.83
7587.00,1.83
7586.00,1.83
7585.00,1.83
7584.00,1.84
7583.00,1.84
7582.00,1.84
7581.00,1.84
7580.00,1.84
7579.00,1.84
7578.00,1.84
7577.00,1.84
7576.00,1.84
7575.00,1.84
7574.00,1.84
7573.00,1.84
7572.00,1.84
7571.00,1.84
7570.00,1.84
7569.00,1.83
7568.00,1.83
7567.00,1.83
7566.00,1.83
7565.00,1.82
7564.00,1.82
7563.00,1.81
7562.00,1.81
7561.00,1.81
7560.00,1.80
7559.00,1.80
7558.00,1.79
7557.00,1.79
7556.00,1.79
7555.00,1.78
7554.00,1.78
7553.00,1.77
7552.00,1.77
7551.00,1.77
7550.00,1.76
7549.00,1.76
7548.00,1.76
7547.00,1.75
7546.00,1.75
7545.00,1.75
7544.00,1.74
7543.00,1.74
7542.00,1.74
7541.00,1.74
7540.00,1.74
7539.00,1.74
7538.00,1.74
7537.00,1.74
7536.00,1.74
7535.00,1.74
7534.00,1.74
7533.00,1.74
7532.00,1.75
7531.00,1.75
7530.00,1.75
7529.00,1.75
7528.00,1.75
7527.00,1.76
7526.00,1.76
7525.00,1.76
7524.00,1.76
7523.00,1.77
7522.00,1.77
7521.00,1.77
7520.00,1.78
7519.00,1.78
7518.00,1.78
7517.00,1.78
7516.00,1.79
7515.00,1.79
7514.00,1.79
7513.00,1.79
7512.00,1.79
7511.00,1.79
7510.00,1.79
7509.00,1.79
7508.00,1.79
7507.00,1.80
7506.00,1.80
7505.00,1.80
7504.00,1.80
7503.00,1.80
7502.00,1.80
7501.00,1.80
7500.00,1.80
7499.00,1.80
7498.00,1.80
7497.00,1.79
7496.00,1.79
7495.00,1.79
7494.00,1.79
7493.00,1.78
7492.00,1.78
7491.00,1.78
7490.00,1.78
7489.00,1.77
7488.00,1.77
7487.00,1.77
7486.00,1.77
7485.00,1.77
7484.00,1.77
7483.00,1.77
7482.00,1.77
7481.00,1.77
7480.00,1.76
7479.00,1.76
7478.00,1.76
7477.00,1.76
7476.00,1.76
7475.00,1.76
7474.00,1.76
7473.00,1.76
7472.00,1.76
7471.00,1.76
7470.00,1.76
7469.00,1.76
7468.00,1.76
7467.00,1.76
7466.00,1.77
7465.00,1.77
7464.00,1.77
7463.00,1.77
7462.00,1.78
7461.00,1.78
7460.00,1.78
7459.00,1.78
7458.00,1.79
7457.00,1.79
7456.00,1.79
7455.00,1.79
7454.00,1.79
7453.00,1.80
7452.00,1.80
7451.00,1.80
7450.00,1.80
7449.00,1.80
7448.00,1.81
7447.00,1.81
7446.00,1.81
7445.00,1.81
7444.00,1.81
7443.00,1.81
7442.00,1.82
7441.00,1.82
7440.00,1.82
7439.00,1.82
7438.00,1.82
7437.00,1.82
7436.00,1.82
7435.00,1.83
7434.00,1.83
7433.00,1.83
7432.00,1.83
7431.00,1.83
7430.00,1.83
7429.00,1.83
7428.00,1.83
7427.00,1.83
7426.00,1.83
7425.00,1.83
7424.00,1.83
7423.00,1.83
7422.00,1.83
7421.00,1.83
7420.00,1.83
7419.00,1.83
7418.00,1.83
7417.00,1.83
7416.00,1.82
7415.00,1.82
7414.00,1.82
7413.00,1.82
7412.00,1.81
7411.00,1.81
7410.00,1.81
7409.00,1.80
7408.00,1.80
7407.00,1.80
7406.00,1.80
7405.00,1.79
7404.00,1.79
7403.00,1.79
7402.00,1.78
7401.00,1.78
7400.00,1.77
7399.00,1.77
7398.00,1.77
7397.00,1.76
7396.00,1.76
7395.00,1.76
7394.00,1.76
7393.00,1.75
7392.00,1.75
7391.00,1.75
7390.00,1.75
7389.00,1.75
7388.00,1.74
7387.00,1.74
7386.00,1.74
7385.00,1.74
7384.00,1.74
7383.00,1.74
7382.00,1.74
7381.00,1.74
7380.00,1.74
7379.00,1.74
7378.00,1.74
7377.00,1.74
7376.00,1.74
7375.00,1.74
7374.00,1.74
7373.00,1.74
7372.00,1.74
7371.00,1.74
7370.00,1.74
7369.00,1.74
7368.00,1.75
7367.00,1.75
7366.00,1.75
7365.00,1.75
7364.00,1.75
7363.00,1.75
7362.00,1.75
7361.00,1.76
7360.00,1.76
7359.00,1.76
7358.00,1.76
7357.00,1.76
7356.00,1.76
7355.00,1.76
7354.00,1.76
7353.00,1.76
7352.00,1.76
7351.00,1.76
7350.00,1.76
7349.00,1.76
7348.00,1.76
7347.00,1.76
7346.00,1.76
7345.00,1.76
7344.00,1.76
7343.00,1.76
7342.00,1.76
7341.00,1.76
7340.00,1.76
7339.00,1.76
7338.00,1.75
7337.00,1.75
7336.00,1.75
7335.00,1.75
7334.00,1.75
7333.00,1.75
7332.00,1.75
7331.00,1.75
7330.00,1.76
7329.00,1.76
7328.00,1.76
7327.00,1.76
7326.00,1.76
7325.00,1.76
7324.00,1.76
7323.00,1.76
7322.00,1.76
7321.00,1.76
7320.00,1.76
7319.00,1.76
7318.00,1.76
7317.00,1.76
7316.00,1.76
7315.00,1.76
7314.00,1.76
7313.00,1.75
7312.00,1.75
7311.00,1.75
7310.00,1.75
7309.00,1.75
7308.00,1.75
7307.00,1.75
7306.00,1.75
7305.00,1.74
7304.00,1.74
7303.00,1.74
7302.00,1.74
7301.00,1.73
7300.00,1.73
7299.00,1.73
7298.00,1.73
7297.00,1.72
7296.00,1.72
7295.00,1.72
7294.00,1.72
7293.00,1.72
7292.00,1.72
7291.00,1.71
7290.00,1.71
7289.00,1.71
7288.00,1.71
7287.00,1.71
7286.00,1.71
7285.00,1.71
7284.00,1.71
7283.00,1.71
7282.00,1.71
7281.00,1.71
7280.00,1.71
7279.00,1.71
7278.00,1.71
7277.00,1.71
7276.00,1.71
7275.00,1.71
7274.00,1.71
7273.00,1.71
7272.00,1.71
7271.00,1.71
7270.00,1.71
7269.00,1.71
7268.00,1.70
7267.00,1.70
7266.00,1.70
7265.00,1.70
7264.00,1.70
7263.00,1.69
7262.00,1.69
7261.00,1.69
7260.00,1.68
7259.00,1.68
7258.00,1.67
7257.00,1.67
7256.00,1.67
7255.00,1.66
7254.00,1.66
7253.00,1.66
7252.00,1.65
7251.00,1.65
7250.00,1.65
7249.00,1.65
7248.00,1.64
7247.00,1.64
7246.00,1.64
7245.00,1.64
7244.00,1.64
7243.00,1.64
7242.00,1.64
7241.00,1.64
7240.00,1.63
7239.00,1.64
7238.00,1.64
7237.00,1.64
7236.00,1.64
7235.00,1.64
7234.00,1.64
7233.00,1.64
7232.00,1.64
7231.00,1.64
7230.00,1.64
7229.00,1.64
7228.00,1.63
7227.00,1.63
7226.00,1.63
7225.00,1.63
7224.00,1.62
7223.00,1.62
7222.00,1.62
7221.00,1.61
7220.00,1.61
7219.00,1.61
7218.00,1.60
7217.00,1.60
7216.00,1.59
7215.00,1.58
7214.00,1.58
7213.00,1.57
7212.00,1.56
7211.00,1.56
7210.00,1.55
7209.00,1.54
7208.00,1.53
7207.00,1.53
7206.00,1.52
7205.00,1.51
7204.00,1.51
7203.00,1.50
7202.00,1.49
7201.00,1.49
7200.00,1.48
7199.00,1.48
7198.00,1.48
7197.00,1.47
7196.00,1.47
7195.00,1.46
7194.00,1.46
7193.00,1.45
7192.00,1.45
7191.00,1.44
7190.00,1.44
7189.00,1.43
7188.00,1.43
7187.00,1.43
7186.00,1.42
7185.00,1.42
7184.00,1.42
7183.00,1.41
7182.00,1.41
7181.00,1.41
7180.00,1.41
7179.00,1.40
7178.00,1.40
7177.00,1.40
7176.00,1.40
7175.00,1.39
7174.00,1.39
7173.00,1.39
7172.00,1.38
7171.00,1.38
7170.00,1.38
7169.00,1.37
7168.00,1.37
7167.00,1.37
7166.00,1.36
7165.00,1.36
7164.00,1.36
7163.00,1.36
7162.00,1.35
7161.00,1.35
7160.00,1.35
7159.00,1.35
7158.00,1.34
7157.00,1.34
7156.00,1.34
7155.00,1.33
7154.00,1.33
7153.00,1.33
7152.00,1.32
7151.00,1.32
7150.00,1.31
7149.00,1.31
7148.00,1.30
7147.00,1.30
7146.00,1.30
7145.00,1.29
7144.00,1.29
7143.00,1.28
7142.00,1.28
7141.00,1.28
7140.00,1.27
7139.00,1.27
7138.00,1.27
7137.00,1.26
7136.00,1.26
7135.00,1.26
7134.00,1.25
7133.00,1.25
7132.00,1.24
7131.00,1.24
7130.00,1.23
7129.00,1.23
7128.00,1.23
7127.00,1.22
7126.00,1.22
7125.00,1.22
7124.00,1.22
7123.00,1.21
7122.00,1.21
7121.00,1.21
7120.00,1.21
7119.00,1.21
7118.00,1.20
7117.00,1.20
7116.00,1.20
7115.00,1.20
7114.00,1.20
7113.00,1.20
7112.00,1.20
7111.00,1.20
7110.00,1.20
7109.00,1.20
7108.00,1.20
7107.00,1.20
7106.00,1.20
7105.00,1.20
7104.00,1.19
7103.00,1.19
7102.00,1.19
7101.00,1.19
7100.00,1.19
7099.00,1.19
7098.00,1.19
7097.00,1.19
7096.00,1.19
7095.00,1.18
7094.00,1.18
7093.00,1.18
7092.00,1.18
7091.00,1.17
7090.00,1.17
7089.00,1.16
7088.00,1.16
7087.00,1.16
7086.00,1.15
7085.00,1.15
7084.00,1.14
7083.00,1.14
7082.00,1.13
7081.00,1.13
7080.00,1.13
7079.00,1.12
7078.00,1.12
7077.00,1.11
7076.00,1.11
7075.00,1.10
7074.00,1.10
7073.00,1.10
7072.00,1.09
7071.00,1.09
7070.00,1.09
7069.00,1.08
7068.00,1.08
7067.00,1.08
7066.00,1.08
7065.00,1.08
7064.00,1.07
7063.00,1.07
7062.00,1.07
7061.00,1.07
7060.00,1.07
7059.00,1.07
7058.00,1.07
7057.00,1.07
7056.00,1.07
7055.00,1.06
7054.00,1.06
7053.00,1.06
7052.00,1.06
7051.00,1.06
7050.00,1.06
7049.00,1.06
7048.00,1.06
7047.00,1.06
7046.00,1.06
7045.00,1.06
7044.00,1.06
7043.00,1.06
7042.00,1.06
7041.00,1.06
7040.00,1.06
7039.00,1.06
7038.00,1.06
7037.00,1.06
7036.00,1.06
7035.00,1.06
7034.00,1.05
7033.00,1.05
7032.00,1.05
7031.00,1.05
7030.00,1.05
7029.00,1.05
7028.00,1.05
7027.00,1.05
7026.00,1.04
7025.00,1.04
7024.00,1.04
7023.00,1.04
7022.00,1.03
7021.00,1.03
7020.00,1.03
7019.00,1.03
7018.00,1.02
7017.00,1.02
7016.00,1.02
7015.00,1.02
7014.00,1.01
7013.00,1.01
7012.00,1.01
7011.00,1.01
7010.00,1.00
7009.00,1.00
7008.00,1.00
7007.00,1.00
7006.00,1.00
7005.00,0.99
7004.00,0.99
7003.00,0.99
7002.00,0.99
7001.00,0.99
7000.00,0.99
6999.00,0.99
6998.00,0.99
6997.00,0.99
6996.00,0.99
6995.00,0.99
6994.00,0.99
6993.00,0.99
6992.00,0.99
6991.00,0.99
6990.00,0.99
6989.00,0.99
6988.00,0.99
6987.00,0.99
6986.00,0.99
6985.00,0.99
6984.00,0.99
6983.00,0.99
6982.00,0.99
6981.00,0.99
6980.00,0.99
6979.00,0.99
6978.00,0.99
6977.00,0.99
6976.00,0.99
6975.00,1.00
6974.00,1.00
6973.00,1.00
6972.00,1.00
6971.00,1.00
6970.00,1.00
6969.00,1.00
6968.00,1.00
6967.00,1.00
6966.00,1.00
6965.00,1.00
6964.00,1.00
6963.00,1.00
6962.00,1.00
6961.00,1.00
6960.00,1.00
6959.00,1.00
6958.00,1.00
6957.00,1.00
6956.00,0.99
6955.00,0.99
6954.00,0.99
6953.00,0.99
6952.00,0.99
6951.00,0.99
6950.00,0.99
6949.00,0.98
6948.00,0.98
6947.00,0.98
6946.00,0.98
6945.00,0.98
6944.00,0.97
6943.00,0.97
6942.00,0.97
6941.00,0.97
6940.00,0.97
6939.00,0.97
6938.00,0.97
6937.00,0.97
6936.00,0.97
6935.00,0.96
6934.00,0.96
6933.00,0.96
6932.00,0.96
6931.00,0.96
6930.00,0.96
6929.00,0.96
6928.00,0.95
6927.00,0.95
6926.00,0.95
6925.00,0.95
6924.00,0.95
6923.00,0.95
6922.00,0.95
6921.00,0.94
6920.00,0.94
6919.00,0.94
6918.00,0.94
6917.00,0.94
6916.00,0.94
6915.00,0.94
6914.00,0.93
6913.00,0.93
6912.00,0.93
6911.00,0.93
6910.00,0.93
6909.00,0.92
6908.00,0.92
6907.00,0.92
6906.00,0.92
6905.00,0.92
6904.00,0.92
6903.00,0.92
6902.00,0.92
6901.00,0.92
6900.00,0.92
6899.00,0.92
6898.00,0.92
6897.00,0.92
6896.00,0.92
6895.00,0.92
6894.00,0.92
6893.00,0.92
6892.00,0.92
6891.00,0.93
6890.00,0.93
6889.00,0.93
6888.00,0.93
6887.00,0.93
6886.00,0.93
6885.00,0.94
6884.00,0.94
6883.00,0.94
6882.00,0.94
6881.00,0.95
6880.00,0.95
6879.00,0.95
6878.00,0.95
6877.00,0.95
6876.00,0.95
6875.00,0.95
6874.00,0.95
6873.00,0.95
6872.00,0.95
6871.00,0.95
6870.00,0.95
6869.00,0.95
6868.00,0.95
6867.00,0.95
6866.00,0.94
6865.00,0.94
6864.00,0.94
6863.00,0.94
6862.00,0.94
6861.00,0.94
6860.00,0.93
6859.00,0.93
6858.00,0.93
6857.00,0.93
6856.00,0.92
6855.00,0.92
6854.00,0.92
6853.00,0.92
6852.00,0.92
6851.00,0.92
6850.00,0.92
6849.00,0.91
6848.00,0.91
6847.00,0.91
6846.00,0.91
6845.00,0.91
6844.00,0.91
6843.00,0.91
6842.00,0.91
6841.00,0.91
6840.00,0.91
6839.00,0.92
6838.00,0.92
6837.00,0.92
6836.00,0.92
6835.00,0.92
6834.00,0.92
6833.00,0.93
6832.00,0.93
6831.00,0.93
6830.00,0.93
6829.00,0.94
6828.00,0.94
6827.00,0.94
6826.00,0.94
6825.00,0.95
6824.00,0.95
6823.00,0.95
6822.00,0.95
6821.00,0.96
6820.00,0.96
6819.00,0.96
6818.00,0.96
6817.00,0.97
6816.00,0.97
6815.00,0.97
6814.00,0.97
6813.00,0.97
6812.00,0.97
6811.00,0.98
6810.00,0.98
6809.00,0.98
6808.00,0.98
6807.00,0.98
6806.00,0.98
6805.00,0.98
6804.00,0.98
6803.00,0.98
6802.00,0.99
6801.00,0.99
6800.00,0.99
6799.00,0.99
6798.00,0.99
6797.00,0.99
6796.00,0.99
6795.00,0.99
6794.00,1.00
6793.00,1.00
6792.00,1.00
6791.00,1.00
6790.00,1.00
6789.00,1.00
6788.00,1.00
6787.00,1.00
6786.00,1.00
6785.00,1.00
6784.00,1.00
6783.00,1.00
6782.00,1.00
6781.00,1.00
6780.00,1.00
6779.00,1.00
6778.00,1.00
6777.00,1.00
6776.00,1.00
6775.00,1.00
6774.00,1.00
6773.00,0.99
6772.00,0.99
6771.00,0.99
6770.00,0.99
6769.00,0.99
6768.00,0.99
6767.00,0.99
6766.00,0.99
6765.00,0.99
6764.00,0.99
6763.00,0.99
6762.00,0.99
6761.00,0.99
6760.00,0.99
6759.00,0.99
6758.00,0.99
6757.00,0.99
6756.00,1.00
6755.00,1.00
6754.00,1.00
6753.00,1.00
6752.00,1.00
6751.00,1.01
6750.00,1.01
6749.00,1.01
6748.00,1.01
6747.00,1.02
6746.00,1.02
6745.00,1.02
6744.00,1.03
6743.00,1.03
6742.00,1.03
6741.00,1.04
6740.00,1.04
6739.00,1.04
6738.00,1.04
6737.00,1.05
6736.00,1.05
6735.00,1.05
6734.00,1.06
6733.00,1.06
6732.00,1.06
6731.00,1.06
6730.00,1.06
6729.00,1.07
6728.00,1.07
6727.00,1.07
6726.00,1.07
6725.00,1.07
6724.00,1.07
6723.00,1.07
6722.00,1.07
6721.00,1.08
6720.00,1.08
6719.00,1.08
6718.00,1.08
6717.00,1.08
6716.00,1.08
6715.00,1.08
6714.00,1.08
6713.00,1.08
6712.00,1.07
6711.00,1.07
6710.00,1.07
6709.00,1.07
6708.00,1.07
6707.00,1.07
6706.00,1.07
6705.00,1.07
6704.00,1.07
6703.00,1.08
6702.00,1.08
6701.00,1.08
6700.00,1.08
6699.00,1.08
6698.00,1.08
6697.00,1.08
6696.00,1.09
6695.00,1.09
6694.00,1.09
6693.00,1.09
6692.00,1.09
6691.00,1.09
6690.00,1.10
6689.00,1.10
6688.00,1.10
6687.00,1.10
6686.00,1.11
6685.00,1.11
6684.00,1.11
6683.00,1.12
6682.00,1.12
6681.00,1.12
6680.00,1.12
6679.00,1.12
6678.00,1.12
6677.00,1.12
6676.00,1.13
6675.00,1.13
6674.00,1.13
6673.00,1.13
6672.00,1.13
6671.00,1.13
6670.00,1.13
6669.00,1.13
6668.00,1.13
6667.00,1.14
6666.00,1.14
6665.00,1.14
6664.00,1.14
6663.00,1.14
6662.00,1.14
6661.00,1.14
6660.00,1.14
6659.00,1.15
6658.00,1.15
6657.00,1.15
6656.00,1.15
6655.00,1.15
6654.00,1.16
6653.00,1.16
6652.00,1.16
6651.00,1.17
6650.00,1.17
6649.00,1.17
6648.00,1.17
6647.00,1.18
6646.00,1.18
6645.00,1.18
6644.00,1.18
6643.00,1.19
6642.00,1.19
6641.00,1.19
6640.00,1.19
6639.00,1.19
6638.00,1.19
6637.00,1.20
6636.00,1.20
6635.00,1.20
6634.00,1.20
6633.00,1.20
6632.00,1.20
6631.00,1.21
6630.00,1.21
6629.00,1.21
6628.00,1.21
6627.00,1.21
6626.00,1.21
6625.00,1.21
6624.00,1.21
6623.00,1.21
6622.00,1.21
6621.00,1.21
6620.00,1.21
6619.00,1.21
6618.00,1.21
6617.00,1.21
6616.00,1.21
6615.00,1.21
6614.00,1.22
6613.00,1.22
6612.00,1.22
6611.00,1.22
6610.00,1.22
6609.00,1.22
6608.00,1.22
6607.00,1.22
6606.00,1.22
6605.00,1.23
6604.00,1.23
6603.00,1.23
6602.00,1.23
6601.00,1.23
6600.00,1.24
6599.00,1.24
6598.00,1.24
6597.00,1.24
6596.00,1.24
6595.00,1.25
6594.00,1.25
6593.00,1.25
6592.00,1.25
6591.00,1.25
6590.00,1.26
6589.00,1.26
6588.00,1.26
6587.00,1.26
6586.00,1.26
6585.00,1.26
6584.00,1.27
6583.00,1.27
6582.00,1.27
6581.00,1.27
6580.00,1.27
6579.00,1.27
6578.00,1.27
6577.00,1.27
6576.00,1.27
6575.00,1.27
6574.00,1.28
6573.00,1.28
6572.00,1.28
6571.00,1.28
6570.00,1.28
6569.00,1.28
6568.00,1.28
6567.00,1.28
6566.00,1.28
6565.00,1.28
6564.00,1.29
6563.00,1.29
6562.00,1.29
6561.00,1.29
6560.00,1.29
6559.00,1.29
6558.00,1.30
6557.00,1.30
6556.00,1.30
6555.00,1.30
6554.00,1.31
6553.00,1.31
6552.00,1.31
6551.00,1.31
6550.00,1.32
6549.00,1.32
6548.00,1.32
6547.00,1.33
6546.00,1.33
6545.00,1.33
6544.00,1.33
6543.00,1.34
6542.00,1.34
6541.00,1.34
6540.00,1.34
6539.00,1.34
6538.00,1.35
6537.00,1.35
6536.00,1.35
6535.00,1.35
6534.00,1.35
6533.00,1.36
6532.00,1.36
6531.00,1.36
6530.00,1.36
6529.00,1.36
6528.00,1.37
6527.00,1.37
6526.00,1.37
6525.00,1.37
6524.00,1.37
6523.00,1.37
6522.00,1.38
6521.00,1.38
6520.00,1.38
6519.00,1.38
6518.00,1.38
6517.00,1.38
6516.00,1.38
6515.00,1.39
6514.00,1.39
6513.00,1.39
6512.00,1.39
6511.00,1.39
6510.00,1.39
6509.00,1.39
6508.00,1.39
6507.00,1.39
6506.00,1.39
6505.00,1.40
6504.00,1.40
6503.00,1.40
6502.00,1.40
6501.00,1.40
6500.00,1.40
6499.00,1.40
6498.00,1.40
6497.00,1.40
6496.00,1.40
6495.00,1.40
6494.00,1.40
6493.00,1.40
6492.00,1.40
6491.00,1.41
6490.00,1.41
6489.00,1.41
6488.00,1.41
6487.00,1.41
6486.00,1.41
6485.00,1.41
6484.00,1.41
6483.00,1.42
6482.00,1.42
6481.00,1.42
6480.00,1.42
6479.00,1.43
6478.00,1.43
6477.00,1.43
6476.00,1.43
6475.00,1.44
6474.00,1.44
6473.00,1.44
6472.00,1.44
6471.00,1.44
6470.00,1.45
6469.00,1.45
6468.00,1.45
6467.00,1.45
6466.00,1.45
6465.00,1.45
6464.00,1.45
6463.00,1.45
6462.00,1.45
6461.00,1.45
6460.00,1.45
6459.00,1.45
6458.00,1.46
6457.00,1.46
6456.00,1.46
6455.00,1.46
6454.00,1.46
6453.00,1.46
6452.00,1.46
6451.00,1.46
6450.00,1.46
6449.00,1.46
6448.00,1.46
6447.00,1.46
6446.00,1.46
6445.00,1.46
6444.00,1.46
6443.00,1.46
6442.00,1.46
6441.00,1.46
6440.00,1.47
6439.00,1.47
6438.00,1.47
6437.00,1.47
6436.00,1.47
6435.00,1.48
6434.00,1.48
6433.00,1.48
6432.00,1.48
6431.00,1.49
6430.00,1.49
6429.00,1.49
6428.00,1.49
6427.00,1.50
6426.00,1.50
6425.00,1.50
6424.00,1.51
6423.00,1.51
6422.00,1.51
6421.00,1.51
6420.00,1.52
6419.00,1.52
6418.00,1.52
6417.00,1.52
6416.00,1.52
6415.00,1.53
6414.00,1.53
6413.00,1.53
6412.00,1.53
6411.00,1.53
6410.00,1.53
6409.00,1.53
6408.00,1.53
6407.00,1.53
6406.00,1.53
6405.00,1.53
6404.00,1.53
6403.00,1.53
6402.00,1.53
6401.00,1.53
6400.00,1.53
6399.00,1.53
6398.00,1.53
6397.00,1.53
6396.00,1.53
6395.00,1.53
6394.00,1.53
6393.00,1.53
6392.00,1.54
6391.00,1.54
6390.00,1.54
6389.00,1.54
6388.00,1.54
6387.00,1.54
6386.00,1.54
6385.00,1.54
6384.00,1.54
6383.00,1.54
6382.00,1.54
6381.00,1.54
6380.00,1.54
6379.00,1.54
6378.00,1.54
6377.00,1.54
6376.00,1.54
6375.00,1.54
6374.00,1.54
6373.00,1.54
6372.00,1.54
6371.00,1.54
6370.00,1.54
6369.00,1.54
6368.00,1.54
6367.00,1.54
6366.00,1.54
6365.00,1.54
6364.00,1.54
6363.00,1.54
6362.00,1.54
6361.00,1.53
6360.00,1.53
6359.00,1.53
6358.00,1.53
6357.00,1.53
6356.00,1.53
6355.00,1.53
6354.00,1.53
6353.00,1.54
6352.00,1.54
6351.00,1.54
6350.00,1.54
6349.00,1.54
6348.00,1.54
6347.00,1.54
6346.00,1.55
6345.00,1.55
6344.00,1.55
6343.00,1.56
6342.00,1.56
6341.00,1.56
6340.00,1.57
6339.00,1.57
6338.00,1.57
6337.00,1.58
6336.00,1.58
6335.00,1.58
6334.00,1.59
6333.00,1.59
6332.00,1.60
6331.00,1.60
6330.00,1.60
6329.00,1.60
6328.00,1.61
6327.00,1.61
6326.00,1.61
6325.00,1.62
6324.00,1.62
6323.00,1.62
6322.00,1.62
6321.00,1.62
6320.00,1.62
6319.00,1.63
6318.00,1.63
6317.00,1.63
6316.00,1.63
6315.00,1.63
6314.00,1.63
6313.00,1.63
6312.00,1.63
6311.00,1.64
6310.00,1.64
6309.00,1.64
6308.00,1.64
6307.00,1.64
6306.00,1.64
6305.00,1.64
6304.00,1.64
6303.00,1.64
6302.00,1.64
6301.00,1.64
6300.00,1.64
6299.00,1.64
6298.00,1.64
6297.00,1.64
6296.00,1.64
6295.00,1.64
6294.00,1.64
6293.00,1.64
6292.00,1.64
6291.00,1.64
6290.00,1.64
6289.00,1.64
6288.00,1.64
6287.00,1.64
6286.00,1.64
6285.00,1.64
6284.00,1.64
6283.00,1.64
6282.00,1.64
6281.00,1.64
6280.00,1.64
6279.00,1.64
6278.00,1.64
6277.00,1.64
6276.00,1.64
6275.00,1.64
6274.00,1.64
6273.00,1.64
6272.00,1.64
6271.00,1.64
6270.00,1.64
6269.00,1.64
6268.00,1.64
6267.00,1.65
6266.00,1.65
6265.00,1.65
6264.00,1.65
6263.00,1.65
6262.00,1.65
6261.00,1.65
6260.00,1.66
6259.00,1.66
6258.00,1.66
6257.00,1.66
6256.00,1.67
6255.00,1.67
6254.00,1.67
6253.00,1.67
6252.00,1.68
6251.00,1.68
6250.00,1.68
6249.00,1.68
6248.00,1.69
6247.00,1.69
6246.00,1.69
6245.00,1.69
6244.00,1.70
6243.00,1.70
6242.00,1.70
6241.00,1.70
6240.00,1.70
6239.00,1.70
6238.00,1.70
6237.00,1.70
6236.00,1.71
6235.00,1.71
6234.00,1.71
6233.00,1.71
6232.00,1.71
6231.00,1.71
6230.00,1.71
6229.00,1.71
6228.00,1.71
6227.00,1.70
6226.00,1.70
6225.00,1.70
6224.00,1.70
6223.00,1.70
6222.00,1.70
6221.00,1.70
6220.00,1.70
6219.00,1.70
6218.00,1.70
6217.00,1.70
6216.00,1.70
6215.00,1.70
6214.00,1.70
6213.00,1.70
6212.00,1.70
6211.00,1.70
6210.00,1.70
6209.00,1.71
6208.00,1.71
6207.00,1.71
6206.00,1.71
6205.00,1.71
6204.00,1.71
6203.00,1.71
6202.00,1.72
6201.00,1.72
6200.00,1.72
6199.00,1.72
6198.00,1.72
6197.00,1.73
6196.00,1.73
6195.00,1.73
6194.00,1.73
6193.00,1.73
6192.00,1.74
6191.00,1.74
6190.00,1.74
6189.00,1.74
6188.00,1.74
6187.00,1.74
6186.00,1.75
6185.00,1.75
6184.00,1.75
6183.00,1.75
6182.00,1.75
6181.00,1.75
6180.00,1.75
6179.00,1.75
6178.00,1.75
6177.00,1.75
6176.00,1.75
6175.00,1.75
6174.00,1.75
6173.00,1.75
6172.00,1.75
6171.00,1.76
6170.00,1.76
6169.00,1.76
6168.00,1.76
6167.00,1.76
6166.00,1.76
6165.00,1.76
6164.00,1.76
6163.00,1.76
6162.00,1.76
6161.00,1.76
6160.00,1.76
6159.00,1.76
6158.00,1.76
6157.00,1.76
6156.00,1.76
6155.00,1.76
6154.00,1.76
6153.00,1.76
6152.00,1.76
6151.00,1.76
6150.00,1.76
6149.00,1.76
6148.00,1.76
6147.00,1.77
6146.00,1.77
6145.00,1.77
6144.00,1.77
6143.00,1.77
6142.00,1.77
6141.00,1.78
6140.00,1.78
6139.00,1.78
6138.00,1.78
6137.00,1.78
6136.00,1.79
6135.00,1.79
6134.00,1.79
6133.00,1.80
6132.00,1.80
6131.00,1.80
6130.00,1.81
6129.00,1.81
6128.00,1.81
6127.00,1.82
6126.00,1.82
6125.00,1.82
6124.00,1.82
6123.00,1.83
6122.00,1.83
6121.00,1.83
6120.00,1.84
6119.00,1.84
6118.00,1.84
6117.00,1.84
6116.00,1.84
6115.00,1.84
6114.00,1.85
6113.00,1.85
6112.00,1.85
6111.00,1.85
6110.00,1.85
6109.00,1.85
6108.00,1.85
6107.00,1.85
6106.00,1.85
6105.00,1.84
6104.00,1.84
6103.00,1.84
6102.00,1.84
6101.00,1.84
6100.00,1.84
6099.00,1.84
6098.00,1.84
6097.00,1.84
6096.00,1.84
6095.00,1.84
6094.00,1.84
6093.00,1.84
6092.00,1.84
6091.00,1.84
6090.00,1.84
6089.00,1.84
6088.00,1.84
6087.00,1.84
6086.00,1.84
6085.00,1.84
6084.00,1.84
6083.00,1.84
6082.00,1.84
6081.00,1.84
6080.00,1.84
6079.00,1.84
6078.00,1.84
6077.00,1.84
6076.00,1.85
6075.00,1.85
6074.00,1.85
6073.00,1.85
6072.00,1.85
6071.00,1.85
6070.00,1.85
6069.00,1.85
6068.00,1.85
6067.00,1.85
6066.00,1.85
6065.00,1.85
6064.00,1.85
6063.00,1.85
6062.00,1.85
6061.00,1.85
6060.00,1.85
6059.00,1.85
6058.00,1.85
6057.00,1.85
6056.00,1.85
6055.00,1.85
6054.00,1.85
6053.00,1.86
6052.00,1.86
6051.00,1.86
6050.00,1.86
6049.00,1.86
6048.00,1.86
6047.00,1.86
6046.00,1.86
6045.00,1.86
6044.00,1.86
6043.00,1.86
6042.00,1.86
6041.00,1.86
6040.00,1.86
6039.00,1.86
6038.00,1.86
6037.00,1.86
6036.00,1.86
6035.00,1.86
6034.00,1.86
6033.00,1.86
6032.00,1.86
6031.00,1.86
6030.00,1.86
6029.00,1.86
6028.00,1.86
6027.00,1.86
6026.00,1.86
6025.00,1.86
6024.00,1.86
6023.00,1.86
6022.00,1.87
6021.00,1.87
6020.00,1.87
6019.00,1.87
6018.00,1.87
6017.00,1.87
6016.00,1.87
6015.00,1.87
6014.00,1.87
6013.00,1.88
6012.00,1.88
6011.00,1.88
6010.00,1.88
6009.00,1.88
6008.00,1.88
6007.00,1.88
6006.00,1.89
6005.00,1.89
6004.00,1.89
6003.00,1.89
6002.00,1.89
6001.00,1.89
6000.00,1.89
5999.00,1.90
5998.00,1.90
5997.00,1.90
5996.00,1.90
5995.00,1.90
5994.00,1.90
5993.00,1.90
5992.00,1.90
5991.00,1.90
5990.00,1.90
5989.00,1.90
5988.00,1.90
5987.00,1.90
5986.00,1.90
5985.00,1.90
5984.00,1.90
5983.00,1.90
5982.00,1.90
5981.00,1.89
5980.00,1.89
5979.00,1.89
5978.00,1.89
5977.00,1.89
5976.00,1.89
5975.00,1.89
5974.00,1.89
5973.00,1.88
5972.00,1.88
5971.00,1.88
5970.00,1.88
5969.00,1.88
5968.00,1.88
5967.00,1.87
5966.00,1.87
5965.00,1.87
5964.00,1.87
5963.00,1.87
5962.00,1.86
5961.00,1.86
5960.00,1.86
5959.00,1.86
5958.00,1.86
5957.00,1.86
5956.00,1.86
5955.00,1.85
5954.00,1.85
5953.00,1.85
5952.00,1.85
5951.00,1.85
5950.00,1.85
5949.00,1.85
5948.00,1.84
5947.00,1.84
5946.00,1.84
5945.00,1.84
5944.00,1.84
5943.00,1.84
5942.00,1.84
5941.00,1.84
5940.00,1.83
5939.00,1.83
5938.00,1.83
5937.00,1.83
5936.00,1.83
5935.00,1.83
5934.00,1.82
5933.00,1.82
5932.00,1.82
5931.00,1.82
5930.00,1.81
5929.00,1.81
5928.00,1.81
5927.00,1.81
5926.00,1.81
5925.00,1.80
5924.00,1.80
5923.00,1.80
5922.00,1.80
5921.00,1.80
5920.00,1.79
5919.00,1.79
5918.00,1.79
5917.00,1.79
5916.00,1.79
5915.00,1.79
5914.00,1.78
5913.00,1.78
5912.00,1.78
5911.00,1.78
5910.00,1.78
5909.00,1.78
5908.00,1.78
5907.00,1.78
5906.00,1.78
5905.00,1.78
5904.00,1.78
5903.00,1.78
5902.00,1.78
5901.00,1.78
5900.00,1.78
5899.00,1.78
5898.00,1.78
5897.00,1.78
5896.00,1.79
5895.00,1.79
5894.00,1.79
5893.00,1.79
5892.00,1.79
5891.00,1.79
5890.00,1.79
5889.00,1.79
5888.00,1.80
5887.00,1.80
5886.00,1.80
5885.00,1.80
5884.00,1.80
5883.00,1.80
5882.00,1.80
5881.00,1.81
5880.00,1.81
5879.00,1.81
5878.00,1.81
5877.00,1.81
5876.00,1.82
5875.00,1.82
5874.00,1.82
5873.00,1.82
5872.00,1.82
5871.00,1.83
5870.00,1.83
5869.00,1.83
5868.00,1.83
5867.00,1.83
5866.00,1.84
5865.00,1.84
5864.00,1.84
5863.00,1.84
5862.00,1.85
5861.00,1.85
5860.00,1.85
5859.00,1.85
5858.00,1.85
5857.00,1.86
5856.00,1.86
5855.00,1.86
5854.00,1.86
5853.00,1.86
5852.00,1.86
5851.00,1.87
5850.00,1.87
5849.00,1.87
5848.00,1.87
5847.00,1.87
5846.00,1.87
5845.00,1.87
5844.00,1.87
5843.00,1.87
5842.00,1.87
5841.00,1.87
5840.00,1.87
5839.00,1.87
5838.00,1.87
5837.00,1.87
5836.00,1.87
5835.00,1.87
5834.00,1.87
5833.00,1.87
5832.00,1.87
5831.00,1.87
5830.00,1.87
5829.00,1.87
5828.00,1.87
5827.00,1.87
5826.00,1.87
5825.00,1.87
5824.00,1.87
5823.00,1.87
5822.00,1.87
5821.00,1.87
5820.00,1.87
5819.00,1.87
5818.00,1.86
5817.00,1.86
5816.00,1.86
5815.00,1.86
5814.00,1.86
5813.00,1.86
5812.00,1.86
5811.00,1.86
5810.00,1.86
5809.00,1.85
5808.00,1.85
5807.00,1.85
5806.00,1.85
5805.00,1.85
5804.00,1.85
5803.00,1.84
5802.00,1.84
5801.00,1.84
5800.00,1.84
5799.00,1.84
5798.00,1.83
5797.00,1.83
5796.00,1.83
5795.00,1.83
5794.00,1.82
5793.00,1.82
5792.00,1.82
5791.00,1.82
5790.00,1.82
5789.00,1.81
5788.00,1.81
5787.00,1.81
5786.00,1.81
5785.00,1.80
5784.00,1.80
5783.00,1.80
5782.00,1.80
5781.00,1.80
5780.00,1.79
5779.00,1.79
5778.00,1.79
5777.00,1.79
5776.00,1.79
5775.00,1.79
5774.00,1.79
5773.00,1.79
5772.00,1.79
5771.00,1.79
5770.00,1.79
5769.00,1.79
5768.00,1.79
5767.00,1.79
5766.00,1.79
5765.00,1.79
5764.00,1.79
5763.00,1.79
5762.00,1.80
5761.00,1.80
5760.00,1.80
5759.00,1.80
5758.00,1.80
5757.00,1.80
5756.00,1.80
5755.00,1.80
5754.00,1.80
5753.00,1.80
5752.00,1.81
5751.00,1.81
5750.00,1.81
5749.00,1.81
5748.00,1.81
5747.00,1.81
5746.00,1.81
5745.00,1.81
5744.00,1.81
5743.00,1.81
5742.00,1.81
5741.00,1.81
5740.00,1.82
5739.00,1.82
5738.00,1.82
5737.00,1.82
5736.00,1.82
5735.00,1.82
5734.00,1.82
5733.00,1.82
5732.00,1.82
5731.00,1.82
5730.00,1.82
5729.00,1.83
5728.00,1.83
5727.00,1.83
5726.00,1.83
5725.00,1.83
5724.00,1.83
5723.00,1.83
5722.00,1.83
5721.00,1.83
5720.00,1.83
5719.00,1.83
5718.00,1.83
5717.00,1.83
5716.00,1.83
5715.00,1.83
5714.00,1.83
5713.00,1.83
5712.00,1.83
5711.00,1.83
5710.00,1.83
5709.00,1.83
5708.00,1.83
5707.00,1.83
5706.00,1.83
5705.00,1.83
5704.00,1.83
5703.00,1.82
5702.00,1.82
5701.00,1.82
5700.00,1.82
5699.00,1.82
5698.00,1.82
5697.00,1.82
5696.00,1.82
5695.00,1.82
5694.00,1.82
5693.00,1.82
5692.00,1.82
5691.00,1.82
5690.00,1.81
5689.00,1.81
5688.00,1.81
5687.00,1.81
5686.00,1.81
5685.00,1.81
5684.00,1.81
5683.00,1.81
5682.00,1.81
5681.00,1.81
5680.00,1.81
5679.00,1.81
5678.00,1.82
5677.00,1.82
5676.00,1.82
5675.00,1.82
5674.00,1.82
5673.00,1.82
5672.00,1.82
5671.00,1.82
5670.00,1.82
5669.00,1.82
5668.00,1.82
5667.00,1.82
5666.00,1.82
5665.00,1.82
5664.00,1.82
5663.00,1.82
5662.00,1.82
5661.00,1.82
5660.00,1.82
5659.00,1.82
5658.00,1.82
5657.00,1.82
5656.00,1.82
5655.00,1.82
5654.00,1.82
5653.00,1.82
5652.00,1.82
5651.00,1.82
5650.00,1.82
5649.00,1.82
5648.00,1.82
5647.00,1.82
5646.00,1.82
5645.00,1.82
5644.00,1.81
5643.00,1.81
5642.00,1.81
5641.00,1.81
5640.00,1.81
5639.00,1.81
5638.00,1.80
5637.00,1.80
5636.00,1.80
5635.00,1.80
5634.00,1.80
5633.00,1.80
5632.00,1.79
5631.00,1.79
5630.00,1.79
5629.00,1.79
5628.00,1.79
5627.00,1.79
5626.00,1.79
5625.00,1.79
5624.00,1.79
5623.00,1.79
5622.00,1.79
5621.00,1.79
5620.00,1.79
5619.00,1.80
5618.00,1.80
5617.00,1.80
5616.00,1.80
5615.00,1.80
5614.00,1.80
5613.00,1.80
5612.00,1.81
5611.00,1.81
5610.00,1.81
5609.00,1.81
5608.00,1.81
5607.00,1.81
5606.00,1.81
5605.00,1.81
5604.00,1.82
5603.00,1.82
5602.00,1.82
5601.00,1.82
5600.00,1.82
5599.00,1.82
5598.00,1.82
5597.00,1.82
5596.00,1.82
5595.00,1.82
5594.00,1.82
5593.00,1.82
5592.00,1.82
5591.00,1.82
5590.00,1.82
5589.00,1.82
5588.00,1.82
5587.00,1.82
5586.00,1.82
5585.00,1.82
5584.00,1.82
5583.00,1.82
5582.00,1.83
5581.00,1.83
5580.00,1.83
5579.00,1.83
5578.00,1.83
5577.00,1.83
5576.00,1.83
5575.00,1.83
5574.00,1.83
5573.00,1.83
5572.00,1.83
5571.00,1.83
5570.00,1.84
5569.00,1.84
5568.00,1.84
5567.00,1.84
5566.00,1.84
5565.00,1.84
5564.00,1.84
5563.00,1.84
5562.00,1.84
5561.00,1.84
5560.00,1.84
5559.00,1.84
5558.00,1.84
5557.00,1.85
5556.00,1.85
5555.00,1.85
5554.00,1.85
5553.00,1.85
5552.00,1.85
5551.00,1.85
5550.00,1.85
5549.00,1.85
5548.00,1.85
5547.00,1.85
5546.00,1.85
5545.00,1.85
5544.00,1.85
5543.00,1.85
5542.00,1.86
5541.00,1.86
5540.00,1.86
5539.00,1.86
5538.00,1.86
5537.00,1.86
5536.00,1.86
5535.00,1.86
5534.00,1.86
5533.00,1.86
5532.00,1.86
5531.00,1.87
5530.00,1.87
5529.00,1.87
5528.00,1.87
5527.00,1.87
5526.00,1.87
5525.00,1.87
5524.00,1.87
5523.00,1.88
5522.00,1.88
5521.00,1.88
5520.00,1.88
5519.00,1.88
5518.00,1.88
5517.00,1.88
5516.00,1.88
5515.00,1.88
5514.00,1.88
5513.00,1.88
5512.00,1.88
5511.00,1.88
5510.00,1.88
5509.00,1.88
5508.00,1.88
5507.00,1.88
5506.00,1.88
5505.00,1.88
5504.00,1.88
5503.00,1.88
5502.00,1.88
5501.00,1.87
5500.00,1.87
5499.00,1.87
5498.00,1.87
5497.00,1.87
5496.00,1.87
5495.00,1.87
5494.00,1.87
5493.00,1.86
5492.00,1.86
5491.00,1.86
5490.00,1.86
5489.00,1.86
5488.00,1.86
5487.00,1.86
5486.00,1.86
5485.00,1.86
5484.00,1.86
5483.00,1.86
5482.00,1.86
5481.00,1.86
5480.00,1.86
5479.00,1.86
5478.00,1.86
5477.00,1.86
5476.00,1.85
5475.00,1.86
5474.00,1.86
5473.00,1.86
5472.00,1.86
5471.00,1.86
5470.00,1.86
5469.00,1.86
5468.00,1.86
5467.00,1.86
5466.00,1.86
5465.00,1.87
5464.00,1.87
5463.00,1.87
5462.00,1.87
5461.00,1.87
5460.00,1.87
5459.00,1.87
5458.00,1.87
5457.00,1.87
5456.00,1.88
5455.00,1.88
5454.00,1.88
5453.00,1.88
5452.00,1.88
5451.00,1.88
5450.00,1.88
5449.00,1.88
5448.00,1.88
5447.00,1.88
5446.00,1.88
5445.00,1.88
5444.00,1.88
5443.00,1.88
5442.00,1.88
5441.00,1.88
5440.00,1.88
5439.00,1.87
5438.00,1.87
5437.00,1.87
5436.00,1.87
5435.00,1.87
5434.00,1.86
5433.00,1.86
5432.00,1.86
5431.00,1.86
5430.00,1.86
5429.00,1.85
5428.00,1.85
5427.00,1.85
5426.00,1.85
5425.00,1.85
5424.00,1.85
5423.00,1.85
5422.00,1.85
5421.00,1.84
5420.00,1.84
5419.00,1.84
5418.00,1.84
5417.00,1.84
5416.00,1.84
5415.00,1.84
5414.00,1.84
5413.00,1.85
5412.00,1.85
5411.00,1.85
5410.00,1.85
5409.00,1.85
5408.00,1.85
5407.00,1.85
5406.00,1.85
5405.00,1.85
5404.00,1.85
5403.00,1.85
5402.00,1.85
5401.00,1.85
5400.00,1.85
5399.00,1.85
5398.00,1.85
5397.00,1.85
5396.00,1.85
5395.00,1.85
5394.00,1.84
5393.00,1.84
5392.00,1.84
5391.00,1.84
5390.00,1.83
5389.00,1.83
5388.00,1.83
5387.00,1.82
5386.00,1.82
5385.00,1.81
5384.00,1.81
5383.00,1.80
5382.00,1.80
5381.00,1.80
5380.00,1.79
5379.00,1.79
5378.00,1.78
5377.00,1.78
5376.00,1.77
5375.00,1.77
5374.00,1.76
5373.00,1.76
5372.00,1.75
5371.00,1.75
5370.00,1.75
5369.00,1.74
5368.00,1.74
5367.00,1.73
5366.00,1.73
5365.00,1.72
5364.00,1.72
5363.00,1.71
5362.00,1.71
5361.00,1.70
5360.00,1.70
5359.00,1.69
5358.00,1.68
5357.00,1.68
5356.00,1.67
5355.00,1.66
5354.00,1.65
5353.00,1.64
5352.00,1.63
5351.00,1.62
5350.00,1.61
5349.00,1.60
5348.00,1.59
5347.00,1.58
5346.00,1.57
5345.00,1.55
5344.00,1.54
5343.00,1.53
5342.00,1.52
5341.00,1.50
5340.00,1.49
5339.00,1.48
5338.00,1.46
5337.00,1.45
5336.00,1.43
5335.00,1.42
5334.00,1.41
5333.00,1.39
5332.00,1.38
5331.00,1.37
5330.00,1.35
5329.00,1.34
5328.00,1.33
5327.00,1.31
5326.00,1.30
5325.00,1.29
5324.00,1.28
5323.00,1.27
5322.00,1.25
5321.00,1.24
5320.00,1.23
5319.00,1.22
5318.00,1.21
5317.00,1.20
5316.00,1.19
5315.00,1.18
5314.00,1.16
5313.00,1.15
5312.00,1.14
5311.00,1.13
5310.00,1.12
5309.00,1.11
5308.00,1.10
5307.00,1.09
5306.00,1.08
5305.00,1.06
5304.00,1.05
5303.00,1.04
5302.00,1.03
5301.00,1.02
5300.00,1.01
5299.00,1.00
5298.00,0.99
5297.00,0.98
5296.00,0.97
5295.00,0.96
5294.00,0.95
5293.00,0.94
5292.00,0.93
5291.00,0.92
5290.00,0.91
5289.00,0.90
5288.00,0.90
5287.00,0.89
5286.00,0.88
5285.00,0.87
5284.00,0.87
5283.00,0.86
5282.00,0.86
5281.00,0.85
5280.00,0.85
5279.00,0.84
5278.00,0.84
5277.00,0.83
5276.00,0.83
5275.00,0.82
5274.00,0.82
5273.00,0.82
5272.00,0.81
5271.00,0.81
5270.00,0.81
5269.00,0.80
5268.00,0.80
5267.00,0.80
5266.00,0.79
5265.00,0.79
5264.00,0.79
5263.00,0.79
5262.00,0.78
5261.00,0.78
5260.00,0.78
5259.00,0.77
5258.00,0.77
5257.00,0.77
5256.00,0.77
5255.00,0.76
5254.00,0.76
5253.00,0.76
5252.00,0.76
5251.00,0.75
5250.00,0.75
5249.00,0.75
5248.00,0.75
5247.00,0.75
5246.00,0.74
5245.00,0.74
5244.00,0.74
5243.00,0.74
5242.00,0.74
5241.00,0.73
5240.00,0.73
5239.00,0.73
5238.00,0.73
5237.00,0.73
5236.00,0.73
5235.00,0.73
5234.00,0.72
5233.00,0.72
5232.00,0.72
5231.00,0.72
5230.00,0.72
5229.00,0.72
5228.00,0.72
5227.00,0.72
5226.00,0.72
5225.00,0.71
5224.00,0.71
5223.00,0.71
5222.00,0.71
5221.00,0.71
5220.00,0.72
5219.00,0.72
5218.00,0.72
5217.00,0.72
5216.00,0.72
5215.00,0.72
5214.00,0.72
5213.00,0.72
5212.00,0.72
5211.00,0.73
5210.00,0.73
5209.00,0.73
5208.00,0.73
5207.00,0.73
5206.00,0.73
5205.00,0.73
5204.00,0.73
5203.00,0.73
5202.00,0.73
5201.00,0.74
5200.00,0.74
5199.00,0.74
5198.00,0.74
5197.00,0.74
5196.00,0.74
5195.00,0.74
5194.00,0.74
5193.00,0.74
5192.00,0.74
5191.00,0.73
5190.00,0.73
5189.00,0.73
5188.00,0.73
5187.00,0.73
5186.00,0.73
5185.00,0.73
5184.00,0.73
5183.00,0.73
5182.00,0.73
5181.00,0.73
5180.00,0.73
5179.00,0.73
5178.00,0.73
5177.00,0.73
5176.00,0.73
5175.00,0.73
5174.00,0.73
5173.00,0.73
5172.00,0.74
5171.00,0.74
5170.00,0.74
5169.00,0.74
5168.00,0.74
5167.00,0.74
5166.00,0.74
5165.00,0.74
5164.00,0.74
5163.00,0.74
5162.00,0.74
5161.00,0.74
5160.00,0.74
5159.00,0.75
5158.00,0.75
5157.00,0.75
5156.00,0.75
5155.00,0.75
5154.00,0.75
5153.00,0.75
5152.00,0.75
5151.00,0.75
5150.00,0.75
5149.00,0.75
5148.00,0.75
5147.00,0.75
5146.00,0.75
5145.00,0.75
5144.00,0.75
5143.00,0.75
5142.00,0.75
5141.00,0.75
5140.00,0.75
5139.00,0.75
5138.00,0.76
5137.00,0.76
5136.00,0.76
5135.00,0.76
5134.00,0.76
5133.00,0.76
5132.00,0.76
5131.00,0.76
5130.00,0.76
5129.00,0.76
5128.00,0.76
5127.00,0.76
5126.00,0.76
5125.00,0.76
5124.00,0.76
5123.00,0.77
5122.00,0.77
5121.00,0.77
5120.00,0.77
5119.00,0.77
5118.00,0.77
5117.00,0.77
5116.00,0.77
5115.00,0.77
5114.00,0.78
5113.00,0.78
5112.00,0.78
5111.00,0.78
5110.00,0.78
5109.00,0.78
5108.00,0.78
5107.00,0.78
5106.00,0.79
5105.00,0.79
5104.00,0.79
5103.00,0.79
5102.00,0.79
5101.00,0.80
5100.00,0.80
5099.00,0.80
5098.00,0.80
5097.00,0.81
5096.00,0.81
5095.00,0.81
5094.00,0.81
5093.00,0.81
5092.00,0.81
5091.00,0.81
5090.00,0.81
5089.00,0.82
5088.00,0.82
5087.00,0.82
5086.00,0.82
5085.00,0.82
5084.00,0.82
5083.00,0.82
5082.00,0.82
5081.00,0.82
5080.00,0.82
5079.00,0.82
5078.00,0.82
5077.00,0.82
5076.00,0.83
5075.00,0.83
5074.00,0.83
5073.00,0.83
5072.00,0.83
5071.00,0.83
5070.00,0.83
5069.00,0.83
5068.00,0.83
5067.00,0.83
5066.00,0.83
5065.00,0.84
5064.00,0.84
5063.00,0.84
5062.00,0.84
5061.00,0.84
5060.00,0.84
5059.00,0.85
5058.00,0.85
5057.00,0.85
5056.00,0.85
5055.00,0.85
5054.00,0.85
5053.00,0.85
5052.00,0.86
5051.00,0.86
5050.00,0.86
5049.00,0.86
5048.00,0.86
5047.00,0.86
5046.00,0.86
5045.00,0.86
5044.00,0.86
5043.00,0.86
5042.00,0.86
5041.00,0.87
5040.00,0.87
5039.00,0.87
5038.00,0.87
5037.00,0.87
5036.00,0.87
5035.00,0.87
5034.00,0.87
5033.00,0.87
5032.00,0.87
5031.00,0.88
5030.00,0.88
5029.00,0.88
5028.00,0.88
5027.00,0.88
5026.00,0.89
5025.00,0.89
5024.00,0.89
5023.00,0.89
5022.00,0.90
5021.00,0.90
5020.00,0.90
5019.00,0.91
5018.00,0.91
5017.00,0.91
5016.00,0.92
5015.00,0.92
5014.00,0.92
5013.00,0.92
5012.00,0.92
5011.00,0.92
5010.00,0.93
5009.00,0.93
5008.00,0.93
5007.00,0.93
5006.00,0.93
5005.00,0.94
5004.00,0.94
5003.00,0.94
5002.00,0.94
5001.00,0.94
5000.00,0.95
4999.00,0.95
4998.00,0.95
4997.00,0.95
4996.00,0.95
4995.00,0.95
4994.00,0.95
4993.00,0.95
4992.00,0.95
4991.00,0.95
4990.00,0.95
4989.00,0.95
4988.00,0.95
4987.00,0.95
4986.00,0.95
4985.00,0.95
4984.00,0.96
4983.00,0.96
4982.00,0.96
4981.00,0.96
4980.00,0.96
4979.00,0.96
4978.00,0.96
4977.00,0.97
4976.00,0.97
4975.00,0.97
4974.00,0.97
4973.00,0.97
4972.00,0.97
4971.00,0.98
4970.00,0.98
4969.00,0.98
4968.00,0.98
4967.00,0.98
4966.00,0.99
4965.00,0.99
4964.00,0.99
4963.00,0.99
4962.00,1.00
4961.00,1.00
4960.00,1.00
4959.00,1.00
4958.00,1.00
4957.00,1.00
4956.00,1.00
4955.00,1.00
4954.00,1.01
4953.00,1.01
4952.00,1.01
4951.00,1.01
4950.00,1.01
4949.00,1.01
4948.00,1.01
4947.00,1.02
4946.00,1.02
4945.00,1.02
4944.00,1.02
4943.00,1.02
4942.00,1.02
4941.00,1.02
4940.00,1.03
4939.00,1.03
4938.00,1.03
4937.00,1.03
4936.00,1.03
4935.00,1.04
4934.00,1.04
4933.00,1.04
4932.00,1.04
4931.00,1.05
4930.00,1.05
4929.00,1.05
4928.00,1.06
4927.00,1.06
4926.00,1.07
4925.00,1.07
4924.00,1.07
4923.00,1.08
4922.00,1.08
4921.00,1.08
4920.00,1.08
4919.00,1.09
4918.00,1.09
4917.00,1.09
4916.00,1.09
4915.00,1.10
4914.00,1.10
4913.00,1.10
4912.00,1.10
4911.00,1.11
4910.00,1.11
4909.00,1.11
4908.00,1.11
4907.00,1.11
4906.00,1.11
4905.00,1.12
4904.00,1.12
4903.00,1.12
4902.00,1.12
4901.00,1.12
4900.00,1.12
4899.00,1.12
4898.00,1.12
4897.00,1.13
4896.00,1.13
4895.00,1.13
4894.00,1.13
4893.00,1.13
4892.00,1.13
4891.00,1.14
4890.00,1.14
4889.00,1.14
4888.00,1.14
4887.00,1.14
4886.00,1.15
4885.00,1.15
4884.00,1.15
4883.00,1.15
4882.00,1.16
4881.00,1.16
4880.00,1.16
4879.00,1.16
4878.00,1.17
4877.00,1.17
4876.00,1.17
4875.00,1.17
4874.00,1.17
4873.00,1.18
4872.00,1.18
4871.00,1.18
4870.00,1.18
4869.00,1.18
4868.00,1.19
4867.00,1.19
4866.00,1.19
4865.00,1.19
4864.00,1.19
4863.00,1.19
4862.00,1.20
4861.00,1.20
4860.00,1.20
4859.00,1.20
4858.00,1.20
4857.00,1.20
4856.00,1.21
4855.00,1.21
4854.00,1.21
4853.00,1.21
4852.00,1.21
4851.00,1.21
4850.00,1.21
4849.00,1.21
4848.00,1.21
4847.00,1.22
4846.00,1.22
4845.00,1.22
4844.00,1.22
4843.00,1.22
4842.00,1.23
4841.00,1.23
4840.00,1.23
4839.00,1.23
4838.00,1.24
4837.00,1.24
4836.00,1.24
4835.00,1.24
4834.00,1.24
4833.00,1.25
4832.00,1.25
4831.00,1.25
4830.00,1.25
4829.00,1.26
4828.00,1.26
4827.00,1.26
4826.00,1.26
4825.00,1.27
4824.00,1.27
4823.00,1.27
4822.00,1.28
4821.00,1.28
4820.00,1.28
4819.00,1.29
4818.00,1.29
4817.00,1.29
4816.00,1.29
4815.00,1.30
4814.00,1.30
4813.00,1.30
4812.00,1.30
4811.00,1.31
4810.00,1.31
4809.00,1.31
4808.00,1.31
4807.00,1.32
4806.00,1.32
4805.00,1.32
4804.00,1.33
4803.00,1.33
4802.00,1.33
4801.00,1.33
4800.00,1.34
4799.00,1.34
4798.00,1.35
4797.00,1.35
4796.00,1.35
4795.00,1.36
4794.00,1.36
4793.00,1.36
4792.00,1.36
4791.00,1.37
4790.00,1.37
4789.00,1.37
4788.00,1.37
4787.00,1.38
4786.00,1.38
4785.00,1.38
4784.00,1.39
4783.00,1.39
4782.00,1.39
4781.00,1.39
4780.00,1.40
4779.00,1.40
4778.00,1.40
4777.00,1.40
4776.00,1.41
4775.00,1.41
4774.00,1.41
4773.00,1.41
4772.00,1.41
4771.00,1.41
4770.00,1.42
4769.00,1.42
4768.00,1.42
4767.00,1.42
4766.00,1.42
4765.00,1.43
4764.00,1.43
4763.00,1.43
4762.00,1.44
4761.00,1.44
4760.00,1.44
4759.00,1.44
4758.00,1.45
4757.00,1.45
4756.00,1.45
4755.00,1.45
4754.00,1.46
4753.00,1.46
4752.00,1.46
4751.00,1.46
4750.00,1.47
4749.00,1.47
4748.00,1.48
4747.00,1.48
4746.00,1.48
4745.00,1.49
4744.00,1.49
4743.00,1.50
4742.00,1.50
4741.00,1.50
4740.00,1.51
4739.00,1.51
4738.00,1.51
4737.00,1.52
4736.00,1.52
4735.00,1.52
4734.00,1.53
4733.00,1.53
4732.00,1.53
4731.00,1.54
4730.00,1.54
4729.00,1.54
4728.00,1.55
4727.00,1.55
4726.00,1.55
4725.00,1.56
4724.00,1.56
4723.00,1.56
4722.00,1.56
4721.00,1.56
4720.00,1.57
4719.00,1.57
4718.00,1.57
4717.00,1.57
4716.00,1.57
4715.00,1.57
4714.00,1.58
4713.00,1.58
4712.00,1.58
4711.00,1.58
4710.00,1.58
4709.00,1.59
4708.00,1.59
4707.00,1.59
4706.00,1.59
4705.00,1.60
4704.00,1.60
4703.00,1.60
4702.00,1.60
4701.00,1.61
4700.00,1.61
4699.00,1.61
4698.00,1.61
4697.00,1.61
4696.00,1.62
4695.00,1.62
4694.00,1.62
4693.00,1.62
4692.00,1.62
4691.00,1.62
4690.00,1.63
4689.00,1.63
4688.00,1.63
4687.00,1.63
4686.00,1.64
4685.00,1.64
4684.00,1.64
4683.00,1.64
4682.00,1.64
4681.00,1.64
4680.00,1.64
4679.00,1.64
4678.00,1.64
4677.00,1.65
4676.00,1.65
4675.00,1.65
4674.00,1.65
4673.00,1.65
4672.00,1.66
4671.00,1.66
4670.00,1.66
4669.00,1.67
4668.00,1.67
4667.00,1.67
4666.00,1.68
4665.00,1.68
4664.00,1.68
4663.00,1.69
4662.00,1.69
4661.00,1.70
4660.00,1.70
4659.00,1.70
4658.00,1.71
4657.00,1.71
4656.00,1.71
4655.00,1.72
4654.00,1.72
4653.00,1.73
4652.00,1.73
4651.00,1.73
4650.00,1.74
4649.00,1.74
4648.00,1.75
4647.00,1.75
4646.00,1.75
4645.00,1.75
4644.00,1.76
4643.00,1.76
4642.00,1.76
4641.00,1.76
4640.00,1.76
4639.00,1.76
4638.00,1.76
4637.00,1.76
4636.00,1.76
4635.00,1.76
4634.00,1.76
4633.00,1.76
4632.00,1.76
4631.00,1.76
4630.00,1.76
4629.00,1.76
4628.00,1.76
4627.00,1.76
4626.00,1.76
4625.00,1.76
4624.00,1.76
4623.00,1.76
4622.00,1.76
4621.00,1.76
4620.00,1.76
4619.00,1.76
4618.00,1.76
4617.00,1.76
4616.00,1.76
4615.00,1.77
4614.00,1.77
4613.00,1.77
4612.00,1.77
4611.00,1.78
4610.00,1.78
4609.00,1.78
4608.00,1.78
4607.00,1.79
4606.00,1.79
4605.00,1.79
4604.00,1.79
4603.00,1.79
4602.00,1.79
4601.00,1.80
4600.00,1.80
4599.00,1.80
4598.00,1.80
4597.00,1.80
4596.00,1.80
4595.00,1.80
4594.00,1.80
4593.00,1.80
4592.00,1.80
4591.00,1.81
4590.00,1.81
4589.00,1.81
4588.00,1.81
4587.00,1.81
4586.00,1.81
4585.00,1.81
4584.00,1.80
4583.00,1.80
4582.00,1.80
4581.00,1.80
4580.00,1.80
4579.00,1.80
4578.00,1.80
4577.00,1.80
4576.00,1.80
4575.00,1.80
4574.00,1.80
4573.00,1.81
4572.00,1.81
4571.00,1.81
4570.00,1.81
4569.00,1.81
4568.00,1.81
4567.00,1.82
4566.00,1.82
4565.00,1.82
4564.00,1.82
4563.00,1.82
4562.00,1.82
4561.00,1.82
4560.00,1.82
4559.00,1.83
4558.00,1.83
4557.00,1.83
4556.00,1.83
4555.00,1.83
4554.00,1.84
4553.00,1.84
4552.00,1.84
4551.00,1.84
4550.00,1.84
4549.00,1.84
4548.00,1.84
4547.00,1.85
4546.00,1.85
4545.00,1.85
4544.00,1.85
4543.00,1.85
4542.00,1.85
4541.00,1.85
4540.00,1.85
4539.00,1.85
4538.00,1.85
4537.00,1.85
4536.00,1.86
4535.00,1.86
4534.00,1.86
4533.00,1.86
4532.00,1.86
4531.00,1.86
4530.00,1.86
4529.00,1.86
4528.00,1.86
4527.00,1.86
4526.00,1.86
4525.00,1.86
4524.00,1.86
4523.00,1.86
4522.00,1.86
4521.00,1.86
4520.00,1.86
4519.00,1.86
4518.00,1.86
4517.00,1.86
4516.00,1.86
4515.00,1.85
4514.00,1.85
4513.00,1.85
4512.00,1.85
4511.00,1.84
4510.00,1.84
4509.00,1.84
4508.00,1.83
4507.00,1.83
4506.00,1.82
4505.00,1.82
4504.00,1.82
4503.00,1.82
4502.00,1.81
4501.00,1.81
4500.00,1.81
4499.00,1.81
4498.00,1.81
4497.00,1.80
4496.00,1.80
4495.00,1.80
4494.00,1.80
4493.00,1.80
4492.00,1.80
4491.00,1.79
4490.00,1.79
4489.00,1.79
4488.00,1.79
4487.00,1.79
4486.00,1.79
4485.00,1.80
4484.00,1.80
4483.00,1.80
4482.00,1.80
4481.00,1.80
4480.00,1.81
4479.00,1.81
4478.00,1.81
4477.00,1.81
4476.00,1.82
4475.00,1.82
4474.00,1.82
4473.00,1.82
4472.00,1.83
4471.00,1.83
4470.00,1.83
4469.00,1.83
4468.00,1.83
4467.00,1.84
4466.00,1.84
4465.00,1.84
4464.00,1.84
4463.00,1.84
4462.00,1.84
4461.00,1.84
4460.00,1.83
4459.00,1.83
4458.00,1.83
4457.00,1.82
4456.00,1.82
4455.00,1.81
4454.00,1.81
4453.00,1.80
4452.00,1.79
4451.00,1.79
4450.00,1.78
4449.00,1.77
4448.00,1.76
4447.00,1.75
4446.00,1.74
4445.00,1.73
4444.00,1.72
4443.00,1.72
4442.00,1.71
4441.00,1.70
4440.00,1.69
4439.00,1.68
4438.00,1.67
4437.00,1.66
4436.00,1.65
4435.00,1.64
4434.00,1.63
4433.00,1.62
4432.00,1.61
4431.00,1.61
4430.00,1.60
4429.00,1.59
4428.00,1.58
4427.00,1.58
4426.00,1.57
4425.00,1.57
4424.00,1.56
4423.00,1.56
4422.00,1.55
4421.00,1.55
4420.00,1.54
4419.00,1.54
4418.00,1.54
4417.00,1.53
4416.00,1.53
4415.00,1.53
4414.00,1.53
4413.00,1.53
4412.00,1.53
4411.00,1.53
4410.00,1.53
4409.00,1.53
4408.00,1.53
4407.00,1.53
4406.00,1.53
4405.00,1.53
4404.00,1.53
4403.00,1.53
4402.00,1.54
4401.00,1.54
4400.00,1.54
4399.00,1.55
4398.00,1.55
4397.00,1.56
4396.00,1.56
4395.00,1.57
4394.00,1.57
4393.00,1.58
4392.00,1.59
4391.00,1.59
4390.00,1.60
4389.00,1.61
4388.00,1.62
4387.00,1.62
4386.00,1.63
4385.00,1.64
4384.00,1.64
4383.00,1.65
4382.00,1.66
4381.00,1.66
4380.00,1.67
4379.00,1.68
4378.00,1.68
4377.00,1.69
4376.00,1.69
4375.00,1.69
4374.00,1.70
4373.00,1.70
4372.00,1.70
4371.00,1.70
4370.00,1.70
4369.00,1.70
4368.00,1.70
4367.00,1.69
4366.00,1.69
4365.00,1.69
4364.00,1.68
4363.00,1.68
4362.00,1.67
4361.00,1.67
4360.00,1.66
4359.00,1.65
4358.00,1.65
4357.00,1.64
4356.00,1.63
4355.00,1.63
4354.00,1.62
4353.00,1.61
4352.00,1.61
4351.00,1.60
4350.00,1.60
4349.00,1.59
4348.00,1.59
4347.00,1.58
4346.00,1.58
4345.00,1.58
4344.00,1.57
4343.00,1.57
4342.00,1.57
4341.00,1.57
4340.00,1.57
4339.00,1.57
4338.00,1.57
4337.00,1.58
4336.00,1.58
4335.00,1.58
4334.00,1.58
4333.00,1.59
4332.00,1.59
4331.00,1.60
4330.00,1.60
4329.00,1.61
4328.00,1.61
4327.00,1.62
4326.00,1.62
4325.00,1.63
4324.00,1.64
4323.00,1.64
4322.00,1.65
4321.00,1.65
4320.00,1.66
4319.00,1.66
4318.00,1.67
4317.00,1.67
4316.00,1.68
4315.00,1.68
4314.00,1.69
4313.00,1.69
4312.00,1.70
4311.00,1.70
4310.00,1.71
4309.00,1.71
4308.00,1.72
4307.00,1.72
4306.00,1.73
4305.00,1.73
4304.00,1.74
4303.00,1.74
4302.00,1.74
4301.00,1.75
4300.00,1.75
4299.00,1.75
4298.00,1.75
4297.00,1.75
4296.00,1.76
4295.00,1.76
4294.00,1.76
4293.00,1.76
4292.00,1.76
4291.00,1.76
4290.00,1.76
4289.00,1.76
4288.00,1.76
4287.00,1.76
4286.00,1.76
4285.00,1.76
4284.00,1.76
4283.00,1.75
4282.00,1.75
4281.00,1.75
4280.00,1.75
4279.00,1.75
4278.00,1.74
4277.00,1.74
4276.00,1.74
4275.00,1.74
4274.00,1.73
4273.00,1.73
4272.00,1.73
4271.00,1.72
4270.00,1.72
4269.00,1.72
4268.00,1.72
4267.00,1.71
4266.00,1.71
4265.00,1.71
4264.00,1.71
4263.00,1.71
4262.00,1.70
4261.00,1.70
4260.00,1.70
4259.00,1.70
4258.00,1.70
4257.00,1.70
4256.00,1.70
4255.00,1.70
4254.00,1.70
4253.00,1.70
4252.00,1.70
4251.00,1.70
4250.00,1.70
4249.00,1.70
4248.00,1.70
4247.00,1.70
4246.00,1.71
4245.00,1.71
4244.00,1.71
4243.00,1.71
4242.00,1.71
4241.00,1.72
4240.00,1.72
4239.00,1.72
4238.00,1.72
4237.00,1.72
4236.00,1.73
4235.00,1.73
4234.00,1.73
4233.00,1.73
4232.00,1.73
4231.00,1.74
4230.00,1.74
4229.00,1.74
4228.00,1.74
4227.00,1.74
4226.00,1.74
4225.00,1.74
4224.00,1.74
4223.00,1.74
4222.00,1.74
4221.00,1.73
4220.00,1.73
4219.00,1.73
4218.00,1.73
4217.00,1.73
4216.00,1.73
4215.00,1.73
4214.00,1.73
4213.00,1.73
4212.00,1.73
4211.00,1.73
4210.00,1.73
4209.00,1.73
4208.00,1.72
4207.00,1.72
4206.00,1.72
4205.00,1.72
4204.00,1.72
4203.00,1.72
4202.00,1.73
4201.00,1.73
4200.00,1.73
4199.00,1.73
4198.00,1.73
4197.00,1.73
4196.00,1.73
4195.00,1.73
4194.00,1.73
4193.00,1.73
4192.00,1.72
4191.00,1.72
4190.00,1.72
4189.00,1.72
4188.00,1.72
4187.00,1.72
4186.00,1.71
4185.00,1.71
4184.00,1.71
4183.00,1.71
4182.00,1.71
4181.00,1.71
4180.00,1.71
4179.00,1.71
4178.00,1.70
4177.00,1.70
4176.00,1.70
4175.00,1.70
4174.00,1.70
4173.00,1.69
4172.00,1.69
4171.00,1.69
4170.00,1.69
4169.00,1.69
4168.00,1.69
4167.00,1.69
4166.00,1.69
4165.00,1.69
4164.00,1.69
4163.00,1.69
4162.00,1.69
4161.00,1.69
4160.00,1.69
4159.00,1.69
4158.00,1.69
4157.00,1.69
4156.00,1.68
4155.00,1.68
4154.00,1.68
4153.00,1.68
4152.00,1.68
4151.00,1.68
4150.00,1.68
4149.00,1.67
4148.00,1.67
4147.00,1.67
4146.00,1.67
4145.00,1.67
4144.00,1.67
4143.00,1.67
4142.00,1.67
4141.00,1.66
4140.00,1.66
4139.00,1.66
4138.00,1.66
4137.00,1.66
4136.00,1.66
4135.00,1.66
4134.00,1.66
4133.00,1.66
4132.00,1.66
4131.00,1.67
4130.00,1.67
4129.00,1.67
4128.00,1.67
4127.00,1.67
4126.00,1.67
4125.00,1.67
4124.00,1.67
4123.00,1.67
4122.00,1.67
4121.00,1.67
4120.00,1.67
4119.00,1.67
4118.00,1.66
4117.00,1.66
4116.00,1.66
4115.00,1.66
4114.00,1.65
4113.00,1.65
4112.00,1.65
4111.00,1.65
4110.00,1.64
4109.00,1.64
4108.00,1.64
4107.00,1.63
4106.00,1.63
4105.00,1.62
4104.00,1.62
4103.00,1.61
4102.00,1.61
4101.00,1.60
4100.00,1.60
4099.00,1.60
4098.00,1.59
4097.00,1.59
4096.00,1.59
4095.00,1.59
4094.00,1.59
4093.00,1.59
4092.00,1.59
4091.00,1.59
4090.00,1.59
4089.00,1.59
4088.00,1.59
4087.00,1.59
4086.00,1.60
4085.00,1.60
4084.00,1.60
4083.00,1.60
4082.00,1.60
4081.00,1.60
4080.00,1.60
4079.00,1.61
4078.00,1.61
4077.00,1.61
4076.00,1.62
4075.00,1.62
4074.00,1.63
4073.00,1.63
4072.00,1.64
4071.00,1.64
4070.00,1.65
4069.00,1.65
4068.00,1.66
4067.00,1.66
4066.00,1.66
4065.00,1.67
4064.00,1.67
4063.00,1.67
4062.00,1.68
4061.00,1.68
4060.00,1.68
4059.00,1.69
4058.00,1.69
4057.00,1.69
4056.00,1.69
4055.00,1.70
4054.00,1.70
4053.00,1.70
4052.00,1.71
4051.00,1.71
4050.00,1.71
4049.00,1.71
4048.00,1.71
4047.00,1.71
4046.00,1.71
4045.00,1.70
4044.00,1.70
4043.00,1.70
4042.00,1.70
4041.00,1.69
4040.00,1.69
4039.00,1.69
4038.00,1.70
4037.00,1.70
4036.00,1.70
4035.00,1.70
4034.00,1.70
4033.00,1.70
4032.00,1.70
4031.00,1.71
4030.00,1.71
4029.00,1.71
4028.00,1.71
4027.00,1.71
4026.00,1.71
4025.00,1.71
4024.00,1.72
4023.00,1.72
4022.00,1.73
4021.00,1.74
4020.00,1.75
4019.00,1.76
4018.00,1.78
4017.00,1.79
4016.00,1.81
4015.00,1.82
4014.00,1.84
4013.00,1.85
4012.00,1.87
4011.00,1.88
4010.00,1.90
4009.00,1.92
4008.00,1.93
4007.00,1.95
4006.00,1.97
4005.00,1.99
4004.00,2.02
4003.00,2.04
4002.00,2.07
4001.00,2.10
4000.00,2.13
