创建为新数据集,样品 1278 用户 Administrator 日期 星期六, 八月 17 2019
cm-1,%T
10000.00,1.51
9998.00,1.51
9996.00,1.51
9994.00,1.51
9992.00,1.51
9990.00,1.51
9988.00,1.51
9986.00,1.51
9984.00,1.51
9982.00,1.51
9980.00,1.51
9978.00,1.51
9976.00,1.50
9974.00,1.50
9972.00,1.50
9970.00,1.50
9968.00,1.50
9966.00,1.50
9964.00,1.49
9962.00,1.49
9960.00,1.49
9958.00,1.49
9956.00,1.49
9954.00,1.49
9952.00,1.49
9950.00,1.49
9948.00,1.49
9946.00,1.49
9944.00,1.49
9942.00,1.50
9940.00,1.50
9938.00,1.50
9936.00,1.50
9934.00,1.50
9932.00,1.50
9930.00,1.50
9928.00,1.51
9926.00,1.51
9924.00,1.51
9922.00,1.51
9920.00,1.51
9918.00,1.51
9916.00,1.51
9914.00,1.51
9912.00,1.51
9910.00,1.51
9908.00,1.51
9906.00,1.51
9904.00,1.51
9902.00,1.51
9900.00,1.51
9898.00,1.51
9896.00,1.51
9894.00,1.50
9892.00,1.50
9890.00,1.50
9888.00,1.50
9886.00,1.50
9884.00,1.50
9882.00,1.50
9880.00,1.50
9878.00,1.50
9876.00,1.50
9874.00,1.50
9872.00,1.50
9870.00,1.50
9868.00,1.50
9866.00,1.50
9864.00,1.50
9862.00,1.50
9860.00,1.50
9858.00,1.50
9856.00,1.50
9854.00,1.51
9852.00,1.51
9850.00,1.51
9848.00,1.51
9846.00,1.51
9844.00,1.51
9842.00,1.51
9840.00,1.51
9838.00,1.51
9836.00,1.51
9834.00,1.51
9832.00,1.51
9830.00,1.51
9828.00,1.51
9826.00,1.51
9824.00,1.51
9822.00,1.50
9820.00,1.50
9818.00,1.50
9816.00,1.50
9814.00,1.50
9812.00,1.50
9810.00,1.49
9808.00,1.49
9806.00,1.49
9804.00,1.49
9802.00,1.49
9800.00,1.49
9798.00,1.49
9796.00,1.49
9794.00,1.49
9792.00,1.49
9790.00,1.49
9788.00,1.49
9786.00,1.49
9784.00,1.49
9782.00,1.49
9780.00,1.49
9778.00,1.50
9776.00,1.50
9774.00,1.50
9772.00,1.50
9770.00,1.50
9768.00,1.50
9766.00,1.50
9764.00,1.50
9762.00,1.49
9760.00,1.49
9758.00,1.49
9756.00,1.49
9754.00,1.49
9752.00,1.49
9750.00,1.49
9748.00,1.49
9746.00,1.49
9744.00,1.49
9742.00,1.49
9740.00,1.49
9738.00,1.49
9736.00,1.49
9734.00,1.49
9732.00,1.49
9730.00,1.49
9728.00,1.49
9726.00,1.49
9724.00,1.49
9722.00,1.49
9720.00,1.50
9718.00,1.50
9716.00,1.50
9714.00,1.50
9712.00,1.50
9710.00,1.50
9708.00,1.50
9706.00,1.50
9704.00,1.51
9702.00,1.51
9700.00,1.51
9698.00,1.51
9696.00,1.51
9694.00,1.51
9692.00,1.51
9690.00,1.51
9688.00,1.51
9686.00,1.51
9684.00,1.51
9682.00,1.51
9680.00,1.51
9678.00,1.51
9676.00,1.51
9674.00,1.51
9672.00,1.51
9670.00,1.51
9668.00,1.51
9666.00,1.50
9664.00,1.50
9662.00,1.50
9660.00,1.50
9658.00,1.50
9656.00,1.50
9654.00,1.50
9652.00,1.50
9650.00,1.50
9648.00,1.50
9646.00,1.50
9644.00,1.50
9642.00,1.50
9640.00,1.50
9638.00,1.50
9636.00,1.50
9634.00,1.50
9632.00,1.51
9630.00,1.51
9628.00,1.51
9626.00,1.51
9624.00,1.51
9622.00,1.51
9620.00,1.51
9618.00,1.51
9616.00,1.51
9614.00,1.51
9612.00,1.51
9610.00,1.51
9608.00,1.51
9606.00,1.51
9604.00,1.51
9602.00,1.51
9600.00,1.50
9598.00,1.50
9596.00,1.50
9594.00,1.50
9592.00,1.50
9590.00,1.50
9588.00,1.50
9586.00,1.50
9584.00,1.50
9582.00,1.50
9580.00,1.50
9578.00,1.50
9576.00,1.50
9574.00,1.50
9572.00,1.50
9570.00,1.50
9568.00,1.50
9566.00,1.50
9564.00,1.50
9562.00,1.50
9560.00,1.50
9558.00,1.50
9556.00,1.50
9554.00,1.50
9552.00,1.50
9550.00,1.50
9548.00,1.50
9546.00,1.50
9544.00,1.50
9542.00,1.50
9540.00,1.51
9538.00,1.51
9536.00,1.51
9534.00,1.51
9532.00,1.51
9530.00,1.51
9528.00,1.51
9526.00,1.51
9524.00,1.51
9522.00,1.51
9520.00,1.51
9518.00,1.51
9516.00,1.51
9514.00,1.51
9512.00,1.51
9510.00,1.51
9508.00,1.51
9506.00,1.51
9504.00,1.51
9502.00,1.51
9500.00,1.51
9498.00,1.51
9496.00,1.51
9494.00,1.51
9492.00,1.51
9490.00,1.51
9488.00,1.50
9486.00,1.50
9484.00,1.50
9482.00,1.50
9480.00,1.50
9478.00,1.50
9476.00,1.50
9474.00,1.50
9472.00,1.49
9470.00,1.49
9468.00,1.49
9466.00,1.49
9464.00,1.49
9462.00,1.49
9460.00,1.49
9458.00,1.49
9456.00,1.49
9454.00,1.49
9452.00,1.49
9450.00,1.49
9448.00,1.49
9446.00,1.49
9444.00,1.50
9442.00,1.50
9440.00,1.50
9438.00,1.50
9436.00,1.50
9434.00,1.50
9432.00,1.50
9430.00,1.50
9428.00,1.51
9426.00,1.51
9424.00,1.51
9422.00,1.51
9420.00,1.51
9418.00,1.51
9416.00,1.51
9414.00,1.51
9412.00,1.51
9410.00,1.51
9408.00,1.51
9406.00,1.51
9404.00,1.51
9402.00,1.51
9400.00,1.51
9398.00,1.51
9396.00,1.51
9394.00,1.51
9392.00,1.50
9390.00,1.50
9388.00,1.50
9386.00,1.50
9384.00,1.50
9382.00,1.50
9380.00,1.50
9378.00,1.50
9376.00,1.50
9374.00,1.50
9372.00,1.50
9370.00,1.50
9368.00,1.50
9366.00,1.50
9364.00,1.50
9362.00,1.50
9360.00,1.50
9358.00,1.50
9356.00,1.50
9354.00,1.50
9352.00,1.50
9350.00,1.49
9348.00,1.49
9346.00,1.49
9344.00,1.49
9342.00,1.49
9340.00,1.49
9338.00,1.49
9336.00,1.49
9334.00,1.49
9332.00,1.49
9330.00,1.49
9328.00,1.49
9326.00,1.49
9324.00,1.49
9322.00,1.49
9320.00,1.49
9318.00,1.49
9316.00,1.49
9314.00,1.49
9312.00,1.49
9310.00,1.49
9308.00,1.49
9306.00,1.49
9304.00,1.49
9302.00,1.49
9300.00,1.49
9298.00,1.49
9296.00,1.49
9294.00,1.50
9292.00,1.50
9290.00,1.50
9288.00,1.50
9286.00,1.50
9284.00,1.50
9282.00,1.50
9280.00,1.50
9278.00,1.50
9276.00,1.50
9274.00,1.51
9272.00,1.51
9270.00,1.51
9268.00,1.51
9266.00,1.51
9264.00,1.51
9262.00,1.51
9260.00,1.51
9258.00,1.51
9256.00,1.51
9254.00,1.51
9252.00,1.51
9250.00,1.51
9248.00,1.51
9246.00,1.51
9244.00,1.51
9242.00,1.51
9240.00,1.51
9238.00,1.51
9236.00,1.51
9234.00,1.51
9232.00,1.51
9230.00,1.51
9228.00,1.51
9226.00,1.51
9224.00,1.51
9222.00,1.51
9220.00,1.51
9218.00,1.51
9216.00,1.51
9214.00,1.50
9212.00,1.50
9210.00,1.50
9208.00,1.50
9206.00,1.50
9204.00,1.49
9202.00,1.49
9200.00,1.49
9198.00,1.49
9196.00,1.49
9194.00,1.49
9192.00,1.48
9190.00,1.48
9188.00,1.48
9186.00,1.48
9184.00,1.48
9182.00,1.48
9180.00,1.48
9178.00,1.48
9176.00,1.48
9174.00,1.48
9172.00,1.48
9170.00,1.48
9168.00,1.49
9166.00,1.49
9164.00,1.49
9162.00,1.49
9160.00,1.49
9158.00,1.49
9156.00,1.49
9154.00,1.49
9152.00,1.49
9150.00,1.50
9148.00,1.50
9146.00,1.50
9144.00,1.50
9142.00,1.50
9140.00,1.50
9138.00,1.50
9136.00,1.50
9134.00,1.50
9132.00,1.50
9130.00,1.50
9128.00,1.50
9126.00,1.50
9124.00,1.50
9122.00,1.50
9120.00,1.50
9118.00,1.50
9116.00,1.50
9114.00,1.50
9112.00,1.50
9110.00,1.50
9108.00,1.50
9106.00,1.50
9104.00,1.50
9102.00,1.50
9100.00,1.50
9098.00,1.50
9096.00,1.50
9094.00,1.50
9092.00,1.50
9090.00,1.50
9088.00,1.50
9086.00,1.49
9084.00,1.49
9082.00,1.49
9080.00,1.49
9078.00,1.49
9076.00,1.49
9074.00,1.49
9072.00,1.49
9070.00,1.49
9068.00,1.49
9066.00,1.49
9064.00,1.49
9062.00,1.49
9060.00,1.49
9058.00,1.49
9056.00,1.49
9054.00,1.49
9052.00,1.49
9050.00,1.49
9048.00,1.49
9046.00,1.49
9044.00,1.49
9042.00,1.49
9040.00,1.49
9038.00,1.49
9036.00,1.49
9034.00,1.49
9032.00,1.49
9030.00,1.49
9028.00,1.49
9026.00,1.49
9024.00,1.49
9022.00,1.49
9020.00,1.49
9018.00,1.49
9016.00,1.49
9014.00,1.50
9012.00,1.50
9010.00,1.50
9008.00,1.50
9006.00,1.50
9004.00,1.50
9002.00,1.50
9000.00,1.50
8998.00,1.50
8996.00,1.51
8994.00,1.51
8992.00,1.51
8990.00,1.51
8988.00,1.51
8986.00,1.51
8984.00,1.51
8982.00,1.51
8980.00,1.51
8978.00,1.51
8976.00,1.51
8974.00,1.51
8972.00,1.50
8970.00,1.50
8968.00,1.50
8966.00,1.50
8964.00,1.50
8962.00,1.50
8960.00,1.50
8958.00,1.50
8956.00,1.50
8954.00,1.50
8952.00,1.50
8950.00,1.50
8948.00,1.50
8946.00,1.50
8944.00,1.50
8942.00,1.50
8940.00,1.50
8938.00,1.50
8936.00,1.50
8934.00,1.50
8932.00,1.50
8930.00,1.50
8928.00,1.50
8926.00,1.50
8924.00,1.50
8922.00,1.50
8920.00,1.50
8918.00,1.50
8916.00,1.50
8914.00,1.50
8912.00,1.50
8910.00,1.50
8908.00,1.50
8906.00,1.50
8904.00,1.50
8902.00,1.50
8900.00,1.50
8898.00,1.50
8896.00,1.50
8894.00,1.50
8892.00,1.50
8890.00,1.50
8888.00,1.49
8886.00,1.49
8884.00,1.49
8882.00,1.49
8880.00,1.49
8878.00,1.49
8876.00,1.49
8874.00,1.49
8872.00,1.49
8870.00,1.49
8868.00,1.49
8866.00,1.49
8864.00,1.49
8862.00,1.49
8860.00,1.49
8858.00,1.49
8856.00,1.49
8854.00,1.49
8852.00,1.49
8850.00,1.49
8848.00,1.49
8846.00,1.49
8844.00,1.49
8842.00,1.49
8840.00,1.49
8838.00,1.49
8836.00,1.49
8834.00,1.49
8832.00,1.49
8830.00,1.49
8828.00,1.49
8826.00,1.49
8824.00,1.49
8822.00,1.49
8820.00,1.49
8818.00,1.49
8816.00,1.49
8814.00,1.49
8812.00,1.49
8810.00,1.49
8808.00,1.49
8806.00,1.49
8804.00,1.49
8802.00,1.49
8800.00,1.49
8798.00,1.49
8796.00,1.49
8794.00,1.49
8792.00,1.50
8790.00,1.50
8788.00,1.50
8786.00,1.50
8784.00,1.50
8782.00,1.50
8780.00,1.50
8778.00,1.50
8776.00,1.50
8774.00,1.50
8772.00,1.50
8770.00,1.50
8768.00,1.50
8766.00,1.50
8764.00,1.50
8762.00,1.50
8760.00,1.50
8758.00,1.50
8756.00,1.49
8754.00,1.49
8752.00,1.49
8750.00,1.49
8748.00,1.49
8746.00,1.49
8744.00,1.49
8742.00,1.49
8740.00,1.49
8738.00,1.49
8736.00,1.49
8734.00,1.49
8732.00,1.49
8730.00,1.49
8728.00,1.49
8726.00,1.49
8724.00,1.49
8722.00,1.49
8720.00,1.49
8718.00,1.49
8716.00,1.49
8714.00,1.48
8712.00,1.48
8710.00,1.48
8708.00,1.48
8706.00,1.48
8704.00,1.48
8702.00,1.48
8700.00,1.48
8698.00,1.48
8696.00,1.47
8694.00,1.47
8692.00,1.47
8690.00,1.47
8688.00,1.47
8686.00,1.47
8684.00,1.47
8682.00,1.47
8680.00,1.47
8678.00,1.47
8676.00,1.47
8674.00,1.47
8672.00,1.47
8670.00,1.47
8668.00,1.47
8666.00,1.47
8664.00,1.47
8662.00,1.47
8660.00,1.47
8658.00,1.47
8656.00,1.47
8654.00,1.47
8652.00,1.47
8650.00,1.47
8648.00,1.47
8646.00,1.47
8644.00,1.47
8642.00,1.47
8640.00,1.47
8638.00,1.47
8636.00,1.47
8634.00,1.47
8632.00,1.47
8630.00,1.47
8628.00,1.47
8626.00,1.47
8624.00,1.47
8622.00,1.47
8620.00,1.47
8618.00,1.47
8616.00,1.47
8614.00,1.47
8612.00,1.47
8610.00,1.47
8608.00,1.47
8606.00,1.47
8604.00,1.47
8602.00,1.47
8600.00,1.47
8598.00,1.47
8596.00,1.47
8594.00,1.47
8592.00,1.47
8590.00,1.47
8588.00,1.47
8586.00,1.47
8584.00,1.47
8582.00,1.47
8580.00,1.47
8578.00,1.47
8576.00,1.47
8574.00,1.47
8572.00,1.47
8570.00,1.47
8568.00,1.47
8566.00,1.47
8564.00,1.47
8562.00,1.47
8560.00,1.47
8558.00,1.47
8556.00,1.47
8554.00,1.47
8552.00,1.47
8550.00,1.47
8548.00,1.47
8546.00,1.47
8544.00,1.47
8542.00,1.47
8540.00,1.47
8538.00,1.47
8536.00,1.47
8534.00,1.46
8532.00,1.46
8530.00,1.46
8528.00,1.46
8526.00,1.46
8524.00,1.46
8522.00,1.46
8520.00,1.46
8518.00,1.46
8516.00,1.46
8514.00,1.46
8512.00,1.46
8510.00,1.46
8508.00,1.46
8506.00,1.46
8504.00,1.46
8502.00,1.46
8500.00,1.46
8498.00,1.46
8496.00,1.46
8494.00,1.46
8492.00,1.46
8490.00,1.46
8488.00,1.46
8486.00,1.46
8484.00,1.46
8482.00,1.46
8480.00,1.46
8478.00,1.46
8476.00,1.46
8474.00,1.46
8472.00,1.46
8470.00,1.45
8468.00,1.45
8466.00,1.45
8464.00,1.45
8462.00,1.45
8460.00,1.45
8458.00,1.45
8456.00,1.45
8454.00,1.45
8452.00,1.45
8450.00,1.45
8448.00,1.45
8446.00,1.45
8444.00,1.45
8442.00,1.45
8440.00,1.45
8438.00,1.45
8436.00,1.45
8434.00,1.45
8432.00,1.45
8430.00,1.45
8428.00,1.46
8426.00,1.46
8424.00,1.46
8422.00,1.46
8420.00,1.46
8418.00,1.46
8416.00,1.46
8414.00,1.46
8412.00,1.46
8410.00,1.46
8408.00,1.46
8406.00,1.46
8404.00,1.46
8402.00,1.46
8400.00,1.46
8398.00,1.46
8396.00,1.46
8394.00,1.46
8392.00,1.46
8390.00,1.46
8388.00,1.46
8386.00,1.46
8384.00,1.46
8382.00,1.46
8380.00,1.46
8378.00,1.46
8376.00,1.46
8374.00,1.46
8372.00,1.46
8370.00,1.46
8368.00,1.46
8366.00,1.46
8364.00,1.46
8362.00,1.46
8360.00,1.46
8358.00,1.46
8356.00,1.46
8354.00,1.46
8352.00,1.46
8350.00,1.46
8348.00,1.46
8346.00,1.46
8344.00,1.46
8342.00,1.46
8340.00,1.46
8338.00,1.46
8336.00,1.46
8334.00,1.47
8332.00,1.47
8330.00,1.47
8328.00,1.47
8326.00,1.47
8324.00,1.47
8322.00,1.48
8320.00,1.48
8318.00,1.48
8316.00,1.48
8314.00,1.48
8312.00,1.48
8310.00,1.48
8308.00,1.48
8306.00,1.48
8304.00,1.48
8302.00,1.48
8300.00,1.48
8298.00,1.48
8296.00,1.48
8294.00,1.48
8292.00,1.48
8290.00,1.48
8288.00,1.48
8286.00,1.48
8284.00,1.48
8282.00,1.48
8280.00,1.48
8278.00,1.48
8276.00,1.48
8274.00,1.47
8272.00,1.47
8270.00,1.47
8268.00,1.47
8266.00,1.47
8264.00,1.47
8262.00,1.47
8260.00,1.48
8258.00,1.48
8256.00,1.48
8254.00,1.48
8252.00,1.48
8250.00,1.48
8248.00,1.48
8246.00,1.48
8244.00,1.48
8242.00,1.48
8240.00,1.48
8238.00,1.48
8236.00,1.48
8234.00,1.48
8232.00,1.48
8230.00,1.48
8228.00,1.48
8226.00,1.48
8224.00,1.48
8222.00,1.48
8220.00,1.48
8218.00,1.48
8216.00,1.48
8214.00,1.48
8212.00,1.48
8210.00,1.48
8208.00,1.48
8206.00,1.48
8204.00,1.48
8202.00,1.48
8200.00,1.48
8198.00,1.48
8196.00,1.48
8194.00,1.48
8192.00,1.48
8190.00,1.48
8188.00,1.49
8186.00,1.49
8184.00,1.49
8182.00,1.49
8180.00,1.49
8178.00,1.49
8176.00,1.49
8174.00,1.49
8172.00,1.49
8170.00,1.49
8168.00,1.49
8166.00,1.49
8164.00,1.49
8162.00,1.49
8160.00,1.49
8158.00,1.49
8156.00,1.49
8154.00,1.49
8152.00,1.49
8150.00,1.49
8148.00,1.49
8146.00,1.49
8144.00,1.49
8142.00,1.49
8140.00,1.49
8138.00,1.49
8136.00,1.49
8134.00,1.49
8132.00,1.49
8130.00,1.48
8128.00,1.48
8126.00,1.48
8124.00,1.48
8122.00,1.48
8120.00,1.48
8118.00,1.49
8116.00,1.49
8114.00,1.49
8112.00,1.49
8110.00,1.49
8108.00,1.49
8106.00,1.49
8104.00,1.49
8102.00,1.49
8100.00,1.49
8098.00,1.49
8096.00,1.49
8094.00,1.49
8092.00,1.50
8090.00,1.50
8088.00,1.50
8086.00,1.50
8084.00,1.50
8082.00,1.50
8080.00,1.50
8078.00,1.50
8076.00,1.50
8074.00,1.50
8072.00,1.50
8070.00,1.50
8068.00,1.50
8066.00,1.50
8064.00,1.50
8062.00,1.50
8060.00,1.50
8058.00,1.50
8056.00,1.50
8054.00,1.50
8052.00,1.50
8050.00,1.50
8048.00,1.50
8046.00,1.50
8044.00,1.50
8042.00,1.50
8040.00,1.50
8038.00,1.50
8036.00,1.49
8034.00,1.49
8032.00,1.49
8030.00,1.49
8028.00,1.49
8026.00,1.49
8024.00,1.49
8022.00,1.49
8020.00,1.49
8018.00,1.49
8016.00,1.49
8014.00,1.49
8012.00,1.49
8010.00,1.49
8008.00,1.49
8006.00,1.49
8004.00,1.49
8002.00,1.49
8000.00,1.49
7998.00,1.49
7996.00,1.49
7994.00,1.49
7992.00,1.49
7990.00,1.49
7988.00,1.49
7986.00,1.49
7984.00,1.49
7982.00,1.49
7980.00,1.49
7978.00,1.49
7976.00,1.49
7974.00,1.49
7972.00,1.49
7970.00,1.49
7968.00,1.49
7966.00,1.49
7964.00,1.49
7962.00,1.49
7960.00,1.49
7958.00,1.49
7956.00,1.50
7954.00,1.50
7952.00,1.50
7950.00,1.50
7948.00,1.50
7946.00,1.50
7944.00,1.50
7942.00,1.50
7940.00,1.50
7938.00,1.50
7936.00,1.50
7934.00,1.50
7932.00,1.50
7930.00,1.50
7928.00,1.50
7926.00,1.50
7924.00,1.50
7922.00,1.50
7920.00,1.50
7918.00,1.50
7916.00,1.50
7914.00,1.50
7912.00,1.50
7910.00,1.50
7908.00,1.50
7906.00,1.50
7904.00,1.50
7902.00,1.50
7900.00,1.50
7898.00,1.50
7896.00,1.50
7894.00,1.50
7892.00,1.50
7890.00,1.50
7888.00,1.50
7886.00,1.50
7884.00,1.50
7882.00,1.50
7880.00,1.50
7878.00,1.50
7876.00,1.50
7874.00,1.50
7872.00,1.50
7870.00,1.51
7868.00,1.51
7866.00,1.51
7864.00,1.51
7862.00,1.51
7860.00,1.51
7858.00,1.51
7856.00,1.51
7854.00,1.50
7852.00,1.50
7850.00,1.50
7848.00,1.50
7846.00,1.50
7844.00,1.50
7842.00,1.50
7840.00,1.50
7838.00,1.50
7836.00,1.50
7834.00,1.50
7832.00,1.50
7830.00,1.50
7828.00,1.50
7826.00,1.50
7824.00,1.50
7822.00,1.50
7820.00,1.50
7818.00,1.50
7816.00,1.50
7814.00,1.50
7812.00,1.51
7810.00,1.51
7808.00,1.51
7806.00,1.51
7804.00,1.51
7802.00,1.51
7800.00,1.51
7798.00,1.51
7796.00,1.51
7794.00,1.51
7792.00,1.51
7790.00,1.51
7788.00,1.51
7786.00,1.51
7784.00,1.51
7782.00,1.52
7780.00,1.52
7778.00,1.52
7776.00,1.52
7774.00,1.52
7772.00,1.52
7770.00,1.52
7768.00,1.52
7766.00,1.52
7764.00,1.52
7762.00,1.52
7760.00,1.52
7758.00,1.52
7756.00,1.52
7754.00,1.52
7752.00,1.52
7750.00,1.52
7748.00,1.52
7746.00,1.52
7744.00,1.52
7742.00,1.52
7740.00,1.52
7738.00,1.52
7736.00,1.52
7734.00,1.52
7732.00,1.52
7730.00,1.52
7728.00,1.52
7726.00,1.52
7724.00,1.52
7722.00,1.52
7720.00,1.52
7718.00,1.52
7716.00,1.52
7714.00,1.52
7712.00,1.52
7710.00,1.51
7708.00,1.51
7706.00,1.51
7704.00,1.51
7702.00,1.51
7700.00,1.51
7698.00,1.51
7696.00,1.51
7694.00,1.51
7692.00,1.51
7690.00,1.51
7688.00,1.51
7686.00,1.51
7684.00,1.51
7682.00,1.51
7680.00,1.51
7678.00,1.51
7676.00,1.51
7674.00,1.51
7672.00,1.51
7670.00,1.51
7668.00,1.51
7666.00,1.51
7664.00,1.51
7662.00,1.51
7660.00,1.51
7658.00,1.51
7656.00,1.51
7654.00,1.51
7652.00,1.51
7650.00,1.51
7648.00,1.51
7646.00,1.51
7644.00,1.51
7642.00,1.51
7640.00,1.51
7638.00,1.51
7636.00,1.51
7634.00,1.51
7632.00,1.51
7630.00,1.51
7628.00,1.51
7626.00,1.51
7624.00,1.51
7622.00,1.51
7620.00,1.51
7618.00,1.51
7616.00,1.51
7614.00,1.51
7612.00,1.51
7610.00,1.51
7608.00,1.51
7606.00,1.51
7604.00,1.51
7602.00,1.51
7600.00,1.51
7598.00,1.51
7596.00,1.51
7594.00,1.51
7592.00,1.51
7590.00,1.51
7588.00,1.51
7586.00,1.52
7584.00,1.52
7582.00,1.52
7580.00,1.52
7578.00,1.52
7576.00,1.52
7574.00,1.52
7572.00,1.52
7570.00,1.52
7568.00,1.52
7566.00,1.52
7564.00,1.51
7562.00,1.51
7560.00,1.51
7558.00,1.51
7556.00,1.51
7554.00,1.51
7552.00,1.51
7550.00,1.51
7548.00,1.51
7546.00,1.51
7544.00,1.51
7542.00,1.51
7540.00,1.51
7538.00,1.51
7536.00,1.51
7534.00,1.51
7532.00,1.51
7530.00,1.51
7528.00,1.51
7526.00,1.51
7524.00,1.51
7522.00,1.51
7520.00,1.50
7518.00,1.50
7516.00,1.50
7514.00,1.50
7512.00,1.50
7510.00,1.50
7508.00,1.50
7506.00,1.50
7504.00,1.50
7502.00,1.50
7500.00,1.50
7498.00,1.50
7496.00,1.50
7494.00,1.50
7492.00,1.50
7490.00,1.50
7488.00,1.50
7486.00,1.50
7484.00,1.50
7482.00,1.49
7480.00,1.49
7478.00,1.49
7476.00,1.49
7474.00,1.49
7472.00,1.49
7470.00,1.49
7468.00,1.49
7466.00,1.49
7464.00,1.49
7462.00,1.49
7460.00,1.49
7458.00,1.49
7456.00,1.49
7454.00,1.49
7452.00,1.49
7450.00,1.49
7448.00,1.49
7446.00,1.49
7444.00,1.49
7442.00,1.49
7440.00,1.49
7438.00,1.49
7436.00,1.49
7434.00,1.49
7432.00,1.49
7430.00,1.49
7428.00,1.48
7426.00,1.48
7424.00,1.48
7422.00,1.48
7420.00,1.48
7418.00,1.48
7416.00,1.48
7414.00,1.48
7412.00,1.48
7410.00,1.48
7408.00,1.48
7406.00,1.48
7404.00,1.48
7402.00,1.48
7400.00,1.48
7398.00,1.48
7396.00,1.48
7394.00,1.48
7392.00,1.47
7390.00,1.47
7388.00,1.47
7386.00,1.47
7384.00,1.47
7382.00,1.47
7380.00,1.47
7378.00,1.47
7376.00,1.47
7374.00,1.47
7372.00,1.47
7370.00,1.47
7368.00,1.47
7366.00,1.46
7364.00,1.46
7362.00,1.46
7360.00,1.46
7358.00,1.46
7356.00,1.46
7354.00,1.46
7352.00,1.46
7350.00,1.46
7348.00,1.46
7346.00,1.46
7344.00,1.46
7342.00,1.46
7340.00,1.46
7338.00,1.46
7336.00,1.46
7334.00,1.46
7332.00,1.46
7330.00,1.46
7328.00,1.46
7326.00,1.46
7324.00,1.46
7322.00,1.46
7320.00,1.46
7318.00,1.46
7316.00,1.46
7314.00,1.46
7312.00,1.46
7310.00,1.46
7308.00,1.46
7306.00,1.46
7304.00,1.46
7302.00,1.46
7300.00,1.46
7298.00,1.45
7296.00,1.45
7294.00,1.45
7292.00,1.45
7290.00,1.45
7288.00,1.45
7286.00,1.45
7284.00,1.45
7282.00,1.45
7280.00,1.45
7278.00,1.45
7276.00,1.44
7274.00,1.44
7272.00,1.44
7270.00,1.44
7268.00,1.44
7266.00,1.44
7264.00,1.43
7262.00,1.43
7260.00,1.43
7258.00,1.43
7256.00,1.43
7254.00,1.42
7252.00,1.42
7250.00,1.42
7248.00,1.42
7246.00,1.41
7244.00,1.41
7242.00,1.41
7240.00,1.40
7238.00,1.40
7236.00,1.40
7234.00,1.40
7232.00,1.39
7230.00,1.39
7228.00,1.39
7226.00,1.38
7224.00,1.38
7222.00,1.38
7220.00,1.37
7218.00,1.37
7216.00,1.37
7214.00,1.37
7212.00,1.36
7210.00,1.36
7208.00,1.35
7206.00,1.35
7204.00,1.35
7202.00,1.34
7200.00,1.34
7198.00,1.33
7196.00,1.33
7194.00,1.33
7192.00,1.32
7190.00,1.32
7188.00,1.31
7186.00,1.31
7184.00,1.30
7182.00,1.30
7180.00,1.29
7178.00,1.29
7176.00,1.28
7174.00,1.28
7172.00,1.28
7170.00,1.27
7168.00,1.27
7166.00,1.26
7164.00,1.26
7162.00,1.25
7160.00,1.25
7158.00,1.24
7156.00,1.24
7154.00,1.23
7152.00,1.23
7150.00,1.23
7148.00,1.22
7146.00,1.22
7144.00,1.21
7142.00,1.21
7140.00,1.20
7138.00,1.20
7136.00,1.20
7134.00,1.19
7132.00,1.19
7130.00,1.19
7128.00,1.18
7126.00,1.18
7124.00,1.17
7122.00,1.17
7120.00,1.17
7118.00,1.16
7116.00,1.16
7114.00,1.16
7112.00,1.15
7110.00,1.15
7108.00,1.15
7106.00,1.14
7104.00,1.14
7102.00,1.13
7100.00,1.13
7098.00,1.13
7096.00,1.12
7094.00,1.12
7092.00,1.12
7090.00,1.11
7088.00,1.11
7086.00,1.11
7084.00,1.10
7082.00,1.10
7080.00,1.10
7078.00,1.09
7076.00,1.09
7074.00,1.09
7072.00,1.08
7070.00,1.08
7068.00,1.08
7066.00,1.08
7064.00,1.07
7062.00,1.07
7060.00,1.07
7058.00,1.06
7056.00,1.06
7054.00,1.06
7052.00,1.06
7050.00,1.05
7048.00,1.05
7046.00,1.05
7044.00,1.05
7042.00,1.05
7040.00,1.04
7038.00,1.04
7036.00,1.04
7034.00,1.04
7032.00,1.04
7030.00,1.03
7028.00,1.03
7026.00,1.03
7024.00,1.03
7022.00,1.03
7020.00,1.03
7018.00,1.02
7016.00,1.02
7014.00,1.02
7012.00,1.02
7010.00,1.02
7008.00,1.02
7006.00,1.01
7004.00,1.01
7002.00,1.01
7000.00,1.01
6998.00,1.01
6996.00,1.00
6994.00,1.00
6992.00,1.00
6990.00,1.00
6988.00,1.00
6986.00,1.00
6984.00,0.99
6982.00,0.99
6980.00,0.99
6978.00,0.99
6976.00,0.99
6974.00,0.99
6972.00,0.99
6970.00,0.99
6968.00,0.98
6966.00,0.98
6964.00,0.98
6962.00,0.98
6960.00,0.98
6958.00,0.98
6956.00,0.98
6954.00,0.98
6952.00,0.98
6950.00,0.98
6948.00,0.98
6946.00,0.97
6944.00,0.97
6942.00,0.97
6940.00,0.97
6938.00,0.97
6936.00,0.97
6934.00,0.97
6932.00,0.97
6930.00,0.97
6928.00,0.97
6926.00,0.97
6924.00,0.97
6922.00,0.97
6920.00,0.97
6918.00,0.97
6916.00,0.97
6914.00,0.97
6912.00,0.97
6910.00,0.97
6908.00,0.97
6906.00,0.97
6904.00,0.97
6902.00,0.97
6900.00,0.97
6898.00,0.97
6896.00,0.97
6894.00,0.96
6892.00,0.96
6890.00,0.96
6888.00,0.96
6886.00,0.96
6884.00,0.96
6882.00,0.96
6880.00,0.96
6878.00,0.96
6876.00,0.96
6874.00,0.96
6872.00,0.96
6870.00,0.96
6868.00,0.96
6866.00,0.96
6864.00,0.96
6862.00,0.96
6860.00,0.96
6858.00,0.96
6856.00,0.96
6854.00,0.96
6852.00,0.96
6850.00,0.96
6848.00,0.96
6846.00,0.96
6844.00,0.96
6842.00,0.96
6840.00,0.96
6838.00,0.96
6836.00,0.97
6834.00,0.97
6832.00,0.97
6830.00,0.97
6828.00,0.97
6826.00,0.97
6824.00,0.97
6822.00,0.97
6820.00,0.97
6818.00,0.97
6816.00,0.97
6814.00,0.97
6812.00,0.97
6810.00,0.98
6808.00,0.98
6806.00,0.98
6804.00,0.98
6802.00,0.98
6800.00,0.98
6798.00,0.98
6796.00,0.98
6794.00,0.98
6792.00,0.99
6790.00,0.99
6788.00,0.99
6786.00,0.99
6784.00,0.99
6782.00,0.99
6780.00,0.99
6778.00,1.00
6776.00,1.00
6774.00,1.00
6772.00,1.00
6770.00,1.00
6768.00,1.00
6766.00,1.00
6764.00,1.01
6762.00,1.01
6760.00,1.01
6758.00,1.01
6756.00,1.01
6754.00,1.01
6752.00,1.02
6750.00,1.02
6748.00,1.02
6746.00,1.02
6744.00,1.02
6742.00,1.03
6740.00,1.03
6738.00,1.03
6736.00,1.03
6734.00,1.03
6732.00,1.03
6730.00,1.04
6728.00,1.04
6726.00,1.04
6724.00,1.04
6722.00,1.04
6720.00,1.05
6718.00,1.05
6716.00,1.05
6714.00,1.05
6712.00,1.05
6710.00,1.06
6708.00,1.06
6706.00,1.06
6704.00,1.06
6702.00,1.07
6700.00,1.07
6698.00,1.07
6696.00,1.07
6694.00,1.08
6692.00,1.08
6690.00,1.08
6688.00,1.08
6686.00,1.08
6684.00,1.09
6682.00,1.09
6680.00,1.09
6678.00,1.09
6676.00,1.09
6674.00,1.10
6672.00,1.10
6670.00,1.10
6668.00,1.10
6666.00,1.10
6664.00,1.10
6662.00,1.11
6660.00,1.11
6658.00,1.11
6656.00,1.11
6654.00,1.11
6652.00,1.11
6650.00,1.12
6648.00,1.12
6646.00,1.12
6644.00,1.12
6642.00,1.12
6640.00,1.13
6638.00,1.13
6636.00,1.13
6634.00,1.13
6632.00,1.13
6630.00,1.14
6628.00,1.14
6626.00,1.14
6624.00,1.14
6622.00,1.14
6620.00,1.15
6618.00,1.15
6616.00,1.15
6614.00,1.15
6612.00,1.16
6610.00,1.16
6608.00,1.16
6606.00,1.16
6604.00,1.17
6602.00,1.17
6600.00,1.17
6598.00,1.17
6596.00,1.17
6594.00,1.18
6592.00,1.18
6590.00,1.18
6588.00,1.18
6586.00,1.19
6584.00,1.19
6582.00,1.19
6580.00,1.19
6578.00,1.19
6576.00,1.20
6574.00,1.20
6572.00,1.20
6570.00,1.20
6568.00,1.20
6566.00,1.20
6564.00,1.21
6562.00,1.21
6560.00,1.21
6558.00,1.21
6556.00,1.21
6554.00,1.21
6552.00,1.22
6550.00,1.22
6548.00,1.22
6546.00,1.22
6544.00,1.22
6542.00,1.22
6540.00,1.22
6538.00,1.23
6536.00,1.23
6534.00,1.23
6532.00,1.23
6530.00,1.23
6528.00,1.23
6526.00,1.24
6524.00,1.24
6522.00,1.24
6520.00,1.24
6518.00,1.24
6516.00,1.24
6514.00,1.25
6512.00,1.25
6510.00,1.25
6508.00,1.25
6506.00,1.25
6504.00,1.25
6502.00,1.25
6500.00,1.26
6498.00,1.26
6496.00,1.26
6494.00,1.26
6492.00,1.26
6490.00,1.26
6488.00,1.27
6486.00,1.27
6484.00,1.27
6482.00,1.27
6480.00,1.27
6478.00,1.28
6476.00,1.28
6474.00,1.28
6472.00,1.28
6470.00,1.28
6468.00,1.28
6466.00,1.28
6464.00,1.28
6462.00,1.29
6460.00,1.29
6458.00,1.29
6456.00,1.29
6454.00,1.29
6452.00,1.29
6450.00,1.29
6448.00,1.29
6446.00,1.29
6444.00,1.30
6442.00,1.30
6440.00,1.30
6438.00,1.30
6436.00,1.30
6434.00,1.30
6432.00,1.30
6430.00,1.30
6428.00,1.30
6426.00,1.30
6424.00,1.31
6422.00,1.31
6420.00,1.31
6418.00,1.31
6416.00,1.31
6414.00,1.31
6412.00,1.31
6410.00,1.31
6408.00,1.32
6406.00,1.32
6404.00,1.32
6402.00,1.32
6400.00,1.32
6398.00,1.32
6396.00,1.32
6394.00,1.32
6392.00,1.32
6390.00,1.32
6388.00,1.33
6386.00,1.33
6384.00,1.33
6382.00,1.33
6380.00,1.33
6378.00,1.33
6376.00,1.33
6374.00,1.33
6372.00,1.33
6370.00,1.33
6368.00,1.34
6366.00,1.34
6364.00,1.34
6362.00,1.34
6360.00,1.34
6358.00,1.34
6356.00,1.34
6354.00,1.34
6352.00,1.35
6350.00,1.35
6348.00,1.35
6346.00,1.35
6344.00,1.35
6342.00,1.35
6340.00,1.36
6338.00,1.36
6336.00,1.36
6334.00,1.36
6332.00,1.36
6330.00,1.36
6328.00,1.36
6326.00,1.37
6324.00,1.37
6322.00,1.37
6320.00,1.37
6318.00,1.37
6316.00,1.37
6314.00,1.37
6312.00,1.38
6310.00,1.38
6308.00,1.38
6306.00,1.38
6304.00,1.38
6302.00,1.38
6300.00,1.38
6298.00,1.38
6296.00,1.38
6294.00,1.39
6292.00,1.39
6290.00,1.39
6288.00,1.39
6286.00,1.39
6284.00,1.39
6282.00,1.39
6280.00,1.39
6278.00,1.40
6276.00,1.40
6274.00,1.40
6272.00,1.40
6270.00,1.40
6268.00,1.40
6266.00,1.40
6264.00,1.40
6262.00,1.41
6260.00,1.41
6258.00,1.41
6256.00,1.41
6254.00,1.41
6252.00,1.41
6250.00,1.41
6248.00,1.41
6246.00,1.41
6244.00,1.42
6242.00,1.42
6240.00,1.42
6238.00,1.42
6236.00,1.42
6234.00,1.42
6232.00,1.42
6230.00,1.42
6228.00,1.42
6226.00,1.42
6224.00,1.42
6222.00,1.42
6220.00,1.43
6218.00,1.43
6216.00,1.43
6214.00,1.43
6212.00,1.43
6210.00,1.43
6208.00,1.43
6206.00,1.43
6204.00,1.44
6202.00,1.44
6200.00,1.44
6198.00,1.44
6196.00,1.44
6194.00,1.44
6192.00,1.44
6190.00,1.45
6188.00,1.45
6186.00,1.45
6184.00,1.45
6182.00,1.45
6180.00,1.45
6178.00,1.45
6176.00,1.46
6174.00,1.46
6172.00,1.46
6170.00,1.46
6168.00,1.46
6166.00,1.46
6164.00,1.46
6162.00,1.46
6160.00,1.46
6158.00,1.46
6156.00,1.46
6154.00,1.47
6152.00,1.47
6150.00,1.47
6148.00,1.47
6146.00,1.47
6144.00,1.47
6142.00,1.47
6140.00,1.47
6138.00,1.47
6136.00,1.47
6134.00,1.48
6132.00,1.48
6130.00,1.48
6128.00,1.48
6126.00,1.48
6124.00,1.48
6122.00,1.48
6120.00,1.48
6118.00,1.48
6116.00,1.49
6114.00,1.49
6112.00,1.49
6110.00,1.49
6108.00,1.49
6106.00,1.49
6104.00,1.49
6102.00,1.49
6100.00,1.49
6098.00,1.50
6096.00,1.50
6094.00,1.50
6092.00,1.50
6090.00,1.50
6088.00,1.50
6086.00,1.50
6084.00,1.50
6082.00,1.50
6080.00,1.50
6078.00,1.50
6076.00,1.51
6074.00,1.51
6072.00,1.51
6070.00,1.51
6068.00,1.51
6066.00,1.51
6064.00,1.51
6062.00,1.51
6060.00,1.51
6058.00,1.51
6056.00,1.51
6054.00,1.51
6052.00,1.51
6050.00,1.51
6048.00,1.51
6046.00,1.51
6044.00,1.52
6042.00,1.52
6040.00,1.52
6038.00,1.52
6036.00,1.52
6034.00,1.52
6032.00,1.52
6030.00,1.52
6028.00,1.52
6026.00,1.52
6024.00,1.52
6022.00,1.52
6020.00,1.52
6018.00,1.52
6016.00,1.52
6014.00,1.52
6012.00,1.52
6010.00,1.52
6008.00,1.52
6006.00,1.52
6004.00,1.52
6002.00,1.52
6000.00,1.52
5998.00,1.52
5996.00,1.52
5994.00,1.52
5992.00,1.52
5990.00,1.52
5988.00,1.52
5986.00,1.51
5984.00,1.51
5982.00,1.51
5980.00,1.51
5978.00,1.51
5976.00,1.51
5974.00,1.50
5972.00,1.50
5970.00,1.50
5968.00,1.50
5966.00,1.49
5964.00,1.49
5962.00,1.49
5960.00,1.49
5958.00,1.49
5956.00,1.48
5954.00,1.48
5952.00,1.48
5950.00,1.48
5948.00,1.48
5946.00,1.47
5944.00,1.47
5942.00,1.47
5940.00,1.47
5938.00,1.47
5936.00,1.47
5934.00,1.47
5932.00,1.47
5930.00,1.46
5928.00,1.46
5926.00,1.46
5924.00,1.46
5922.00,1.46
5920.00,1.46
5918.00,1.46
5916.00,1.46
5914.00,1.46
5912.00,1.46
5910.00,1.46
5908.00,1.46
5906.00,1.46
5904.00,1.46
5902.00,1.46
5900.00,1.46
5898.00,1.46
5896.00,1.46
5894.00,1.46
5892.00,1.46
5890.00,1.47
5888.00,1.47
5886.00,1.47
5884.00,1.47
5882.00,1.47
5880.00,1.47
5878.00,1.47
5876.00,1.48
5874.00,1.48
5872.00,1.48
5870.00,1.48
5868.00,1.48
5866.00,1.48
5864.00,1.48
5862.00,1.48
5860.00,1.49
5858.00,1.49
5856.00,1.49
5854.00,1.49
5852.00,1.49
5850.00,1.49
5848.00,1.49
5846.00,1.49
5844.00,1.49
5842.00,1.49
5840.00,1.49
5838.00,1.49
5836.00,1.49
5834.00,1.49
5832.00,1.49
5830.00,1.49
5828.00,1.49
5826.00,1.49
5824.00,1.49
5822.00,1.49
5820.00,1.49
5818.00,1.49
5816.00,1.49
5814.00,1.49
5812.00,1.49
5810.00,1.49
5808.00,1.49
5806.00,1.49
5804.00,1.49
5802.00,1.48
5800.00,1.48
5798.00,1.48
5796.00,1.48
5794.00,1.48
5792.00,1.48
5790.00,1.48
5788.00,1.48
5786.00,1.48
5784.00,1.48
5782.00,1.48
5780.00,1.48
5778.00,1.48
5776.00,1.48
5774.00,1.48
5772.00,1.48
5770.00,1.48
5768.00,1.48
5766.00,1.48
5764.00,1.48
5762.00,1.48
5760.00,1.48
5758.00,1.48
5756.00,1.48
5754.00,1.48
5752.00,1.48
5750.00,1.48
5748.00,1.48
5746.00,1.48
5744.00,1.48
5742.00,1.48
5740.00,1.48
5738.00,1.48
5736.00,1.48
5734.00,1.48
5732.00,1.48
5730.00,1.48
5728.00,1.48
5726.00,1.48
5724.00,1.48
5722.00,1.48
5720.00,1.48
5718.00,1.48
5716.00,1.48
5714.00,1.48
5712.00,1.48
5710.00,1.48
5708.00,1.48
5706.00,1.48
5704.00,1.48
5702.00,1.48
5700.00,1.48
5698.00,1.47
5696.00,1.47
5694.00,1.47
5692.00,1.47
5690.00,1.47
5688.00,1.47
5686.00,1.47
5684.00,1.47
5682.00,1.47
5680.00,1.47
5678.00,1.47
5676.00,1.47
5674.00,1.47
5672.00,1.47
5670.00,1.47
5668.00,1.47
5666.00,1.47
5664.00,1.47
5662.00,1.47
5660.00,1.47
5658.00,1.47
5656.00,1.47
5654.00,1.47
5652.00,1.47
5650.00,1.47
5648.00,1.47
5646.00,1.47
5644.00,1.47
5642.00,1.47
5640.00,1.47
5638.00,1.47
5636.00,1.47
5634.00,1.47
5632.00,1.47
5630.00,1.47
5628.00,1.47
5626.00,1.48
5624.00,1.48
5622.00,1.48
5620.00,1.48
5618.00,1.48
5616.00,1.48
5614.00,1.48
5612.00,1.48
5610.00,1.48
5608.00,1.48
5606.00,1.48
5604.00,1.48
5602.00,1.48
5600.00,1.48
5598.00,1.48
5596.00,1.48
5594.00,1.48
5592.00,1.49
5590.00,1.49
5588.00,1.49
5586.00,1.49
5584.00,1.49
5582.00,1.49
5580.00,1.49
5578.00,1.49
5576.00,1.49
5574.00,1.49
5572.00,1.49
5570.00,1.50
5568.00,1.50
5566.00,1.50
5564.00,1.50
5562.00,1.50
5560.00,1.50
5558.00,1.50
5556.00,1.50
5554.00,1.50
5552.00,1.50
5550.00,1.50
5548.00,1.50
5546.00,1.50
5544.00,1.50
5542.00,1.51
5540.00,1.51
5538.00,1.51
5536.00,1.51
5534.00,1.51
5532.00,1.51
5530.00,1.51
5528.00,1.51
5526.00,1.51
5524.00,1.51
5522.00,1.51
5520.00,1.51
5518.00,1.51
5516.00,1.51
5514.00,1.51
5512.00,1.51
5510.00,1.51
5508.00,1.51
5506.00,1.51
5504.00,1.51
5502.00,1.51
5500.00,1.51
5498.00,1.51
5496.00,1.51
5494.00,1.51
5492.00,1.51
5490.00,1.52
5488.00,1.52
5486.00,1.52
5484.00,1.52
5482.00,1.52
5480.00,1.52
5478.00,1.52
5476.00,1.52
5474.00,1.52
5472.00,1.52
5470.00,1.52
5468.00,1.52
5466.00,1.52
5464.00,1.52
5462.00,1.52
5460.00,1.52
5458.00,1.52
5456.00,1.52
5454.00,1.52
5452.00,1.52
5450.00,1.52
5448.00,1.52
5446.00,1.52
5444.00,1.52
5442.00,1.52
5440.00,1.52
5438.00,1.52
5436.00,1.52
5434.00,1.52
5432.00,1.52
5430.00,1.52
5428.00,1.52
5426.00,1.52
5424.00,1.52
5422.00,1.52
5420.00,1.52
5418.00,1.52
5416.00,1.52
5414.00,1.52
5412.00,1.52
5410.00,1.52
5408.00,1.52
5406.00,1.52
5404.00,1.51
5402.00,1.51
5400.00,1.51
5398.00,1.51
5396.00,1.51
5394.00,1.50
5392.00,1.50
5390.00,1.50
5388.00,1.50
5386.00,1.49
5384.00,1.49
5382.00,1.48
5380.00,1.48
5378.00,1.47
5376.00,1.47
5374.00,1.46
5372.00,1.46
5370.00,1.45
5368.00,1.44
5366.00,1.43
5364.00,1.43
5362.00,1.42
5360.00,1.41
5358.00,1.40
5356.00,1.39
5354.00,1.38
5352.00,1.37
5350.00,1.36
5348.00,1.35
5346.00,1.33
5344.00,1.32
5342.00,1.31
5340.00,1.30
5338.00,1.28
5336.00,1.27
5334.00,1.25
5332.00,1.24
5330.00,1.22
5328.00,1.21
5326.00,1.19
5324.00,1.18
5322.00,1.16
5320.00,1.14
5318.00,1.13
5316.00,1.11
5314.00,1.09
5312.00,1.07
5310.00,1.06
5308.00,1.04
5306.00,1.02
5304.00,1.00
5302.00,0.98
5300.00,0.97
5298.00,0.95
5296.00,0.93
5294.00,0.92
5292.00,0.90
5290.00,0.89
5288.00,0.87
5286.00,0.86
5284.00,0.84
5282.00,0.83
5280.00,0.82
5278.00,0.80
5276.00,0.79
5274.00,0.78
5272.00,0.77
5270.00,0.76
5268.00,0.75
5266.00,0.74
5264.00,0.73
5262.00,0.73
5260.00,0.72
5258.00,0.71
5256.00,0.70
5254.00,0.70
5252.00,0.69
5250.00,0.69
5248.00,0.68
5246.00,0.68
5244.00,0.67
5242.00,0.67
5240.00,0.66
5238.00,0.66
5236.00,0.66
5234.00,0.65
5232.00,0.65
5230.00,0.65
5228.00,0.65
5226.00,0.64
5224.00,0.64
5222.00,0.64
5220.00,0.64
5218.00,0.64
5216.00,0.63
5214.00,0.63
5212.00,0.63
5210.00,0.63
5208.00,0.63
5206.00,0.63
5204.00,0.63
5202.00,0.63
5200.00,0.62
5198.00,0.62
5196.00,0.62
5194.00,0.62
5192.00,0.62
5190.00,0.62
5188.00,0.62
5186.00,0.62
5184.00,0.62
5182.00,0.62
5180.00,0.62
5178.00,0.62
5176.00,0.62
5174.00,0.62
5172.00,0.62
5170.00,0.62
5168.00,0.62
5166.00,0.62
5164.00,0.63
5162.00,0.63
5160.00,0.63
5158.00,0.63
5156.00,0.63
5154.00,0.63
5152.00,0.63
5150.00,0.63
5148.00,0.63
5146.00,0.63
5144.00,0.64
5142.00,0.64
5140.00,0.64
5138.00,0.64
5136.00,0.64
5134.00,0.64
5132.00,0.64
5130.00,0.65
5128.00,0.65
5126.00,0.65
5124.00,0.65
5122.00,0.65
5120.00,0.66
5118.00,0.66
5116.00,0.66
5114.00,0.66
5112.00,0.67
5110.00,0.67
5108.00,0.67
5106.00,0.67
5104.00,0.67
5102.00,0.68
5100.00,0.68
5098.00,0.68
5096.00,0.68
5094.00,0.69
5092.00,0.69
5090.00,0.69
5088.00,0.70
5086.00,0.70
5084.00,0.70
5082.00,0.70
5080.00,0.71
5078.00,0.71
5076.00,0.71
5074.00,0.72
5072.00,0.72
5070.00,0.72
5068.00,0.73
5066.00,0.73
5064.00,0.73
5062.00,0.73
5060.00,0.74
5058.00,0.74
5056.00,0.74
5054.00,0.75
5052.00,0.75
5050.00,0.75
5048.00,0.76
5046.00,0.76
5044.00,0.76
5042.00,0.77
5040.00,0.77
5038.00,0.77
5036.00,0.78
5034.00,0.78
5032.00,0.79
5030.00,0.79
5028.00,0.79
5026.00,0.80
5024.00,0.80
5022.00,0.80
5020.00,0.81
5018.00,0.81
5016.00,0.82
5014.00,0.82
5012.00,0.82
5010.00,0.83
5008.00,0.83
5006.00,0.84
5004.00,0.84
5002.00,0.84
5000.00,0.85
4998.00,0.85
4996.00,0.85
4994.00,0.86
4992.00,0.86
4990.00,0.86
4988.00,0.87
4986.00,0.87
4984.00,0.88
4982.00,0.88
4980.00,0.88
4978.00,0.89
4976.00,0.89
4974.00,0.89
4972.00,0.90
4970.00,0.90
4968.00,0.91
4966.00,0.91
4964.00,0.91
4962.00,0.92
4960.00,0.92
4958.00,0.93
4956.00,0.93
4954.00,0.93
4952.00,0.94
4950.00,0.94
4948.00,0.94
4946.00,0.95
4944.00,0.95
4942.00,0.96
4940.00,0.96
4938.00,0.96
4936.00,0.97
4934.00,0.97
4932.00,0.97
4930.00,0.98
4928.00,0.98
4926.00,0.98
4924.00,0.99
4922.00,0.99
4920.00,0.99
4918.00,1.00
4916.00,1.00
4914.00,1.00
4912.00,1.01
4910.00,1.01
4908.00,1.01
4906.00,1.02
4904.00,1.02
4902.00,1.02
4900.00,1.02
4898.00,1.03
4896.00,1.03
4894.00,1.03
4892.00,1.04
4890.00,1.04
4888.00,1.04
4886.00,1.05
4884.00,1.05
4882.00,1.05
4880.00,1.06
4878.00,1.06
4876.00,1.06
4874.00,1.07
4872.00,1.07
4870.00,1.07
4868.00,1.08
4866.00,1.08
4864.00,1.08
4862.00,1.09
4860.00,1.09
4858.00,1.09
4856.00,1.10
4854.00,1.10
4852.00,1.11
4850.00,1.11
4848.00,1.11
4846.00,1.12
4844.00,1.12
4842.00,1.12
4840.00,1.13
4838.00,1.13
4836.00,1.13
4834.00,1.14
4832.00,1.14
4830.00,1.14
4828.00,1.15
4826.00,1.15
4824.00,1.15
4822.00,1.16
4820.00,1.16
4818.00,1.16
4816.00,1.17
4814.00,1.17
4812.00,1.18
4810.00,1.18
4808.00,1.18
4806.00,1.19
4804.00,1.19
4802.00,1.20
4800.00,1.20
4798.00,1.20
4796.00,1.21
4794.00,1.21
4792.00,1.22
4790.00,1.22
4788.00,1.22
4786.00,1.23
4784.00,1.23
4782.00,1.24
4780.00,1.24
4778.00,1.24
4776.00,1.25
4774.00,1.25
4772.00,1.26
4770.00,1.26
4768.00,1.26
4766.00,1.27
4764.00,1.27
4762.00,1.28
4760.00,1.28
4758.00,1.28
4756.00,1.29
4754.00,1.29
4752.00,1.30
4750.00,1.30
4748.00,1.30
4746.00,1.31
4744.00,1.31
4742.00,1.32
4740.00,1.32
4738.00,1.32
4736.00,1.33
4734.00,1.33
4732.00,1.34
4730.00,1.34
4728.00,1.35
4726.00,1.35
4724.00,1.35
4722.00,1.36
4720.00,1.36
4718.00,1.37
4716.00,1.37
4714.00,1.38
4712.00,1.38
4710.00,1.38
4708.00,1.39
4706.00,1.39
4704.00,1.40
4702.00,1.40
4700.00,1.40
4698.00,1.41
4696.00,1.41
4694.00,1.41
4692.00,1.42
4690.00,1.42
4688.00,1.42
4686.00,1.42
4684.00,1.43
4682.00,1.43
4680.00,1.43
4678.00,1.44
4676.00,1.44
4674.00,1.44
4672.00,1.44
4670.00,1.45
4668.00,1.45
4666.00,1.45
4664.00,1.45
4662.00,1.46
4660.00,1.46
4658.00,1.46
4656.00,1.47
4654.00,1.47
4652.00,1.47
4650.00,1.47
4648.00,1.47
4646.00,1.48
4644.00,1.48
4642.00,1.48
4640.00,1.48
4638.00,1.48
4636.00,1.49
4634.00,1.49
4632.00,1.49
4630.00,1.49
4628.00,1.49
4626.00,1.49
4624.00,1.49
4622.00,1.49
4620.00,1.49
4618.00,1.49
4616.00,1.49
4614.00,1.49
4612.00,1.50
4610.00,1.50
4608.00,1.50
4606.00,1.50
4604.00,1.50
4602.00,1.50
4600.00,1.50
4598.00,1.50
4596.00,1.50
4594.00,1.50
4592.00,1.50
4590.00,1.50
4588.00,1.50
4586.00,1.50
4584.00,1.50
4582.00,1.50
4580.00,1.50
4578.00,1.50
4576.00,1.50
4574.00,1.51
4572.00,1.51
4570.00,1.51
4568.00,1.51
4566.00,1.51
4564.00,1.51
4562.00,1.51
4560.00,1.51
4558.00,1.51
4556.00,1.51
4554.00,1.51
4552.00,1.51
4550.00,1.51
4548.00,1.51
4546.00,1.51
4544.00,1.51
4542.00,1.51
4540.00,1.51
4538.00,1.52
4536.00,1.52
4534.00,1.52
4532.00,1.52
4530.00,1.52
4528.00,1.52
4526.00,1.52
4524.00,1.52
4522.00,1.52
4520.00,1.52
4518.00,1.52
4516.00,1.52
4514.00,1.52
4512.00,1.52
4510.00,1.52
4508.00,1.52
4506.00,1.52
4504.00,1.52
4502.00,1.52
4500.00,1.52
4498.00,1.52
4496.00,1.52
4494.00,1.52
4492.00,1.52
4490.00,1.52
4488.00,1.52
4486.00,1.52
4484.00,1.52
4482.00,1.52
4480.00,1.52
4478.00,1.52
4476.00,1.51
4474.00,1.51
4472.00,1.51
4470.00,1.51
4468.00,1.50
4466.00,1.50
4464.00,1.50
4462.00,1.49
4460.00,1.49
4458.00,1.48
4456.00,1.47
4454.00,1.47
4452.00,1.46
4450.00,1.45
4448.00,1.44
4446.00,1.43
4444.00,1.42
4442.00,1.41
4440.00,1.40
4438.00,1.39
4436.00,1.38
4434.00,1.37
4432.00,1.36
4430.00,1.35
4428.00,1.34
4426.00,1.34
4424.00,1.33
4422.00,1.32
4420.00,1.32
4418.00,1.31
4416.00,1.31
4414.00,1.30
4412.00,1.30
4410.00,1.30
4408.00,1.30
4406.00,1.31
4404.00,1.31
4402.00,1.31
4400.00,1.32
4398.00,1.33
4396.00,1.33
4394.00,1.34
4392.00,1.34
4390.00,1.35
4388.00,1.36
4386.00,1.36
4384.00,1.37
4382.00,1.37
4380.00,1.37
4378.00,1.38
4376.00,1.38
4374.00,1.38
4372.00,1.38
4370.00,1.38
4368.00,1.38
4366.00,1.37
4364.00,1.37
4362.00,1.37
4360.00,1.37
4358.00,1.36
4356.00,1.36
4354.00,1.36
4352.00,1.35
4350.00,1.35
4348.00,1.35
4346.00,1.35
4344.00,1.35
4342.00,1.35
4340.00,1.35
4338.00,1.35
4336.00,1.36
4334.00,1.36
4332.00,1.37
4330.00,1.37
4328.00,1.38
4326.00,1.39
4324.00,1.39
4322.00,1.40
4320.00,1.41
4318.00,1.42
4316.00,1.43
4314.00,1.44
4312.00,1.44
4310.00,1.45
4308.00,1.46
4306.00,1.47
4304.00,1.47
4302.00,1.48
4300.00,1.49
4298.00,1.49
4296.00,1.50
4294.00,1.50
4292.00,1.50
4290.00,1.50
4288.00,1.51
4286.00,1.51
4284.00,1.51
4282.00,1.51
4280.00,1.51
4278.00,1.51
4276.00,1.50
4274.00,1.50
4272.00,1.50
4270.00,1.50
4268.00,1.50
4266.00,1.49
4264.00,1.49
4262.00,1.49
4260.00,1.49
4258.00,1.49
4256.00,1.49
4254.00,1.49
4252.00,1.49
4250.00,1.49
4248.00,1.49
4246.00,1.49
4244.00,1.49
4242.00,1.50
4240.00,1.50
4238.00,1.50
4236.00,1.50
4234.00,1.51
4232.00,1.51
4230.00,1.51
4228.00,1.51
4226.00,1.51
4224.00,1.52
4222.00,1.52
4220.00,1.52
4218.00,1.52
4216.00,1.52
4214.00,1.52
4212.00,1.52
4210.00,1.52
4208.00,1.52
4206.00,1.52
4204.00,1.52
4202.00,1.52
4200.00,1.52
4198.00,1.52
4196.00,1.52
4194.00,1.52
4192.00,1.52
4190.00,1.52
4188.00,1.52
4186.00,1.51
4184.00,1.51
4182.00,1.51
4180.00,1.51
4178.00,1.51
4176.00,1.51
4174.00,1.51
4172.00,1.50
4170.00,1.50
4168.00,1.50
4166.00,1.50
4164.00,1.50
4162.00,1.50
4160.00,1.50
4158.00,1.50
4156.00,1.49
4154.00,1.49
4152.00,1.49
4150.00,1.49
4148.00,1.49
4146.00,1.49
4144.00,1.49
4142.00,1.49
4140.00,1.49
4138.00,1.49
4136.00,1.49
4134.00,1.49
4132.00,1.49
4130.00,1.49
4128.00,1.49
4126.00,1.49
4124.00,1.49
4122.00,1.49
4120.00,1.48
4118.00,1.48
4116.00,1.48
4114.00,1.48
4112.00,1.48
4110.00,1.48
4108.00,1.48
4106.00,1.47
4104.00,1.47
4102.00,1.47
4100.00,1.47
4098.00,1.47
4096.00,1.46
4094.00,1.46
4092.00,1.46
4090.00,1.46
4088.00,1.46
4086.00,1.45
4084.00,1.45
4082.00,1.45
4080.00,1.45
4078.00,1.45
4076.00,1.45
4074.00,1.45
4072.00,1.45
4070.00,1.45
4068.00,1.45
4066.00,1.45
4064.00,1.45
4062.00,1.45
4060.00,1.45
4058.00,1.45
4056.00,1.45
4054.00,1.45
4052.00,1.45
4050.00,1.45
4048.00,1.45
4046.00,1.45
4044.00,1.46
4042.00,1.46
4040.00,1.46
4038.00,1.46
4036.00,1.46
4034.00,1.46
4032.00,1.47
4030.00,1.47
4028.00,1.47
4026.00,1.48
4024.00,1.48
4022.00,1.48
4020.00,1.48
4018.00,1.49
4016.00,1.49
4014.00,1.49
4012.00,1.50
4010.00,1.50
4008.00,1.50
4006.00,1.51
4004.00,1.51
4002.00,1.51
4000.00,1.52
