创建为新数据集,样品 346 用户 Administrator 日期 星期日, 七月 28 2019
cm-1,%T
10000.00,1.76
9999.00,1.78
9998.00,1.80
9997.00,1.82
9996.00,1.83
9995.00,1.85
9994.00,1.86
9993.00,1.88
9992.00,1.89
9991.00,1.90
9990.00,1.91
9989.00,1.92
9988.00,1.92
9987.00,1.92
9986.00,1.92
9985.00,1.92
9984.00,1.91
9983.00,1.90
9982.00,1.89
9981.00,1.87
9980.00,1.85
9979.00,1.84
9978.00,1.82
9977.00,1.80
9976.00,1.78
9975.00,1.76
9974.00,1.74
9973.00,1.73
9972.00,1.71
9971.00,1.70
9970.00,1.68
9969.00,1.67
9968.00,1.66
9967.00,1.65
9966.00,1.64
9965.00,1.63
9964.00,1.62
9963.00,1.61
9962.00,1.61
9961.00,1.60
9960.00,1.59
9959.00,1.59
9958.00,1.58
9957.00,1.58
9956.00,1.58
9955.00,1.58
9954.00,1.58
9953.00,1.58
9952.00,1.58
9951.00,1.58
9950.00,1.58
9949.00,1.58
9948.00,1.58
9947.00,1.59
9946.00,1.59
9945.00,1.59
9944.00,1.59
9943.00,1.59
9942.00,1.59
9941.00,1.58
9940.00,1.58
9939.00,1.58
9938.00,1.57
9937.00,1.57
9936.00,1.57
9935.00,1.56
9934.00,1.56
9933.00,1.56
9932.00,1.55
9931.00,1.55
9930.00,1.55
9929.00,1.55
9928.00,1.55
9927.00,1.55
9926.00,1.55
9925.00,1.55
9924.00,1.55
9923.00,1.55
9922.00,1.55
9921.00,1.54
9920.00,1.54
9919.00,1.54
9918.00,1.54
9917.00,1.54
9916.00,1.54
9915.00,1.53
9914.00,1.53
9913.00,1.53
9912.00,1.53
9911.00,1.53
9910.00,1.53
9909.00,1.54
9908.00,1.54
9907.00,1.54
9906.00,1.54
9905.00,1.54
9904.00,1.54
9903.00,1.54
9902.00,1.54
9901.00,1.53
9900.00,1.53
9899.00,1.53
9898.00,1.52
9897.00,1.52
9896.00,1.51
9895.00,1.50
9894.00,1.50
9893.00,1.49
9892.00,1.49
9891.00,1.48
9890.00,1.48
9889.00,1.47
9888.00,1.47
9887.00,1.46
9886.00,1.46
9885.00,1.46
9884.00,1.45
9883.00,1.45
9882.00,1.44
9881.00,1.44
9880.00,1.44
9879.00,1.43
9878.00,1.43
9877.00,1.42
9876.00,1.42
9875.00,1.42
9874.00,1.42
9873.00,1.42
9872.00,1.42
9871.00,1.42
9870.00,1.42
9869.00,1.42
9868.00,1.42
9867.00,1.43
9866.00,1.43
9865.00,1.43
9864.00,1.44
9863.00,1.44
9862.00,1.44
9861.00,1.45
9860.00,1.45
9859.00,1.46
9858.00,1.46
9857.00,1.47
9856.00,1.47
9855.00,1.47
9854.00,1.48
9853.00,1.48
9852.00,1.49
9851.00,1.49
9850.00,1.49
9849.00,1.50
9848.00,1.50
9847.00,1.51
9846.00,1.51
9845.00,1.51
9844.00,1.51
9843.00,1.51
9842.00,1.52
9841.00,1.52
9840.00,1.52
9839.00,1.51
9838.00,1.51
9837.00,1.51
9836.00,1.51
9835.00,1.50
9834.00,1.50
9833.00,1.50
9832.00,1.49
9831.00,1.49
9830.00,1.48
9829.00,1.48
9828.00,1.47
9827.00,1.47
9826.00,1.46
9825.00,1.46
9824.00,1.45
9823.00,1.45
9822.00,1.45
9821.00,1.44
9820.00,1.44
9819.00,1.44
9818.00,1.43
9817.00,1.43
9816.00,1.43
9815.00,1.42
9814.00,1.42
9813.00,1.42
9812.00,1.42
9811.00,1.41
9810.00,1.41
9809.00,1.41
9808.00,1.40
9807.00,1.40
9806.00,1.40
9805.00,1.40
9804.00,1.39
9803.00,1.39
9802.00,1.39
9801.00,1.38
9800.00,1.38
9799.00,1.37
9798.00,1.37
9797.00,1.37
9796.00,1.36
9795.00,1.36
9794.00,1.35
9793.00,1.35
9792.00,1.34
9791.00,1.34
9790.00,1.33
9789.00,1.33
9788.00,1.33
9787.00,1.32
9786.00,1.32
9785.00,1.32
9784.00,1.32
9783.00,1.32
9782.00,1.32
9781.00,1.32
9780.00,1.33
9779.00,1.33
9778.00,1.33
9777.00,1.34
9776.00,1.35
9775.00,1.35
9774.00,1.36
9773.00,1.37
9772.00,1.37
9771.00,1.38
9770.00,1.39
9769.00,1.40
9768.00,1.41
9767.00,1.41
9766.00,1.42
9765.00,1.43
9764.00,1.44
9763.00,1.44
9762.00,1.45
9761.00,1.46
9760.00,1.46
9759.00,1.47
9758.00,1.47
9757.00,1.47
9756.00,1.48
9755.00,1.48
9754.00,1.48
9753.00,1.48
9752.00,1.48
9751.00,1.48
9750.00,1.48
9749.00,1.47
9748.00,1.47
9747.00,1.46
9746.00,1.46
9745.00,1.45
9744.00,1.44
9743.00,1.43
9742.00,1.43
9741.00,1.42
9740.00,1.40
9739.00,1.39
9738.00,1.38
9737.00,1.37
9736.00,1.36
9735.00,1.35
9734.00,1.34
9733.00,1.33
9732.00,1.33
9731.00,1.32
9730.00,1.31
9729.00,1.31
9728.00,1.30
9727.00,1.30
9726.00,1.29
9725.00,1.29
9724.00,1.29
9723.00,1.29
9722.00,1.28
9721.00,1.28
9720.00,1.28
9719.00,1.28
9718.00,1.29
9717.00,1.29
9716.00,1.29
9715.00,1.30
9714.00,1.30
9713.00,1.31
9712.00,1.32
9711.00,1.33
9710.00,1.34
9709.00,1.35
9708.00,1.36
9707.00,1.37
9706.00,1.38
9705.00,1.38
9704.00,1.39
9703.00,1.40
9702.00,1.40
9701.00,1.41
9700.00,1.42
9699.00,1.42
9698.00,1.43
9697.00,1.44
9696.00,1.44
9695.00,1.45
9694.00,1.45
9693.00,1.46
9692.00,1.46
9691.00,1.47
9690.00,1.47
9689.00,1.47
9688.00,1.48
9687.00,1.48
9686.00,1.48
9685.00,1.48
9684.00,1.48
9683.00,1.48
9682.00,1.47
9681.00,1.47
9680.00,1.47
9679.00,1.47
9678.00,1.46
9677.00,1.46
9676.00,1.46
9675.00,1.46
9674.00,1.45
9673.00,1.45
9672.00,1.44
9671.00,1.44
9670.00,1.43
9669.00,1.43
9668.00,1.42
9667.00,1.42
9666.00,1.41
9665.00,1.41
9664.00,1.40
9663.00,1.40
9662.00,1.39
9661.00,1.39
9660.00,1.38
9659.00,1.38
9658.00,1.37
9657.00,1.37
9656.00,1.37
9655.00,1.36
9654.00,1.36
9653.00,1.36
9652.00,1.35
9651.00,1.35
9650.00,1.35
9649.00,1.35
9648.00,1.34
9647.00,1.34
9646.00,1.34
9645.00,1.33
9644.00,1.33
9643.00,1.33
9642.00,1.33
9641.00,1.33
9640.00,1.33
9639.00,1.33
9638.00,1.33
9637.00,1.33
9636.00,1.34
9635.00,1.34
9634.00,1.34
9633.00,1.34
9632.00,1.35
9631.00,1.35
9630.00,1.36
9629.00,1.36
9628.00,1.36
9627.00,1.37
9626.00,1.37
9625.00,1.37
9624.00,1.38
9623.00,1.38
9622.00,1.38
9621.00,1.39
9620.00,1.39
9619.00,1.40
9618.00,1.40
9617.00,1.40
9616.00,1.40
9615.00,1.40
9614.00,1.40
9613.00,1.40
9612.00,1.40
9611.00,1.40
9610.00,1.40
9609.00,1.40
9608.00,1.40
9607.00,1.39
9606.00,1.39
9605.00,1.39
9604.00,1.39
9603.00,1.39
9602.00,1.39
9601.00,1.39
9600.00,1.38
9599.00,1.38
9598.00,1.38
9597.00,1.38
9596.00,1.38
9595.00,1.38
9594.00,1.38
9593.00,1.38
9592.00,1.38
9591.00,1.37
9590.00,1.37
9589.00,1.38
9588.00,1.38
9587.00,1.38
9586.00,1.38
9585.00,1.38
9584.00,1.38
9583.00,1.39
9582.00,1.39
9581.00,1.39
9580.00,1.39
9579.00,1.39
9578.00,1.39
9577.00,1.39
9576.00,1.39
9575.00,1.39
9574.00,1.38
9573.00,1.38
9572.00,1.38
9571.00,1.38
9570.00,1.38
9569.00,1.39
9568.00,1.39
9567.00,1.39
9566.00,1.39
9565.00,1.40
9564.00,1.40
9563.00,1.40
9562.00,1.40
9561.00,1.40
9560.00,1.40
9559.00,1.40
9558.00,1.40
9557.00,1.40
9556.00,1.40
9555.00,1.40
9554.00,1.40
9553.00,1.40
9552.00,1.40
9551.00,1.40
9550.00,1.40
9549.00,1.40
9548.00,1.40
9547.00,1.40
9546.00,1.40
9545.00,1.40
9544.00,1.40
9543.00,1.40
9542.00,1.40
9541.00,1.40
9540.00,1.41
9539.00,1.41
9538.00,1.41
9537.00,1.41
9536.00,1.41
9535.00,1.41
9534.00,1.41
9533.00,1.41
9532.00,1.41
9531.00,1.42
9530.00,1.42
9529.00,1.43
9528.00,1.43
9527.00,1.44
9526.00,1.45
9525.00,1.46
9524.00,1.46
9523.00,1.47
9522.00,1.47
9521.00,1.48
9520.00,1.48
9519.00,1.49
9518.00,1.49
9517.00,1.49
9516.00,1.49
9515.00,1.49
9514.00,1.49
9513.00,1.48
9512.00,1.48
9511.00,1.48
9510.00,1.48
9509.00,1.47
9508.00,1.47
9507.00,1.46
9506.00,1.46
9505.00,1.46
9504.00,1.45
9503.00,1.44
9502.00,1.44
9501.00,1.43
9500.00,1.42
9499.00,1.42
9498.00,1.41
9497.00,1.40
9496.00,1.39
9495.00,1.39
9494.00,1.38
9493.00,1.38
9492.00,1.37
9491.00,1.37
9490.00,1.37
9489.00,1.37
9488.00,1.36
9487.00,1.36
9486.00,1.37
9485.00,1.37
9484.00,1.37
9483.00,1.37
9482.00,1.38
9481.00,1.38
9480.00,1.38
9479.00,1.38
9478.00,1.39
9477.00,1.39
9476.00,1.39
9475.00,1.39
9474.00,1.39
9473.00,1.39
9472.00,1.39
9471.00,1.39
9470.00,1.39
9469.00,1.40
9468.00,1.40
9467.00,1.40
9466.00,1.40
9465.00,1.40
9464.00,1.40
9463.00,1.40
9462.00,1.39
9461.00,1.39
9460.00,1.39
9459.00,1.39
9458.00,1.39
9457.00,1.38
9456.00,1.38
9455.00,1.38
9454.00,1.37
9453.00,1.37
9452.00,1.37
9451.00,1.37
9450.00,1.36
9449.00,1.36
9448.00,1.36
9447.00,1.36
9446.00,1.36
9445.00,1.35
9444.00,1.35
9443.00,1.34
9442.00,1.34
9441.00,1.33
9440.00,1.33
9439.00,1.32
9438.00,1.32
9437.00,1.31
9436.00,1.31
9435.00,1.30
9434.00,1.30
9433.00,1.29
9432.00,1.29
9431.00,1.28
9430.00,1.28
9429.00,1.28
9428.00,1.27
9427.00,1.27
9426.00,1.26
9425.00,1.26
9424.00,1.26
9423.00,1.26
9422.00,1.26
9421.00,1.26
9420.00,1.26
9419.00,1.26
9418.00,1.27
9417.00,1.27
9416.00,1.28
9415.00,1.29
9414.00,1.30
9413.00,1.30
9412.00,1.31
9411.00,1.32
9410.00,1.33
9409.00,1.34
9408.00,1.35
9407.00,1.36
9406.00,1.37
9405.00,1.38
9404.00,1.39
9403.00,1.40
9402.00,1.41
9401.00,1.42
9400.00,1.43
9399.00,1.43
9398.00,1.44
9397.00,1.45
9396.00,1.46
9395.00,1.47
9394.00,1.47
9393.00,1.48
9392.00,1.49
9391.00,1.49
9390.00,1.49
9389.00,1.50
9388.00,1.50
9387.00,1.50
9386.00,1.50
9385.00,1.50
9384.00,1.50
9383.00,1.50
9382.00,1.50
9381.00,1.50
9380.00,1.50
9379.00,1.50
9378.00,1.50
9377.00,1.50
9376.00,1.50
9375.00,1.49
9374.00,1.49
9373.00,1.49
9372.00,1.48
9371.00,1.48
9370.00,1.48
9369.00,1.47
9368.00,1.47
9367.00,1.46
9366.00,1.46
9365.00,1.45
9364.00,1.44
9363.00,1.44
9362.00,1.43
9361.00,1.42
9360.00,1.42
9359.00,1.41
9358.00,1.40
9357.00,1.39
9356.00,1.38
9355.00,1.37
9354.00,1.36
9353.00,1.36
9352.00,1.35
9351.00,1.34
9350.00,1.34
9349.00,1.33
9348.00,1.33
9347.00,1.33
9346.00,1.32
9345.00,1.32
9344.00,1.32
9343.00,1.31
9342.00,1.31
9341.00,1.31
9340.00,1.31
9339.00,1.31
9338.00,1.31
9337.00,1.31
9336.00,1.31
9335.00,1.31
9334.00,1.31
9333.00,1.32
9332.00,1.32
9331.00,1.33
9330.00,1.33
9329.00,1.34
9328.00,1.34
9327.00,1.35
9326.00,1.35
9325.00,1.35
9324.00,1.36
9323.00,1.36
9322.00,1.36
9321.00,1.36
9320.00,1.36
9319.00,1.36
9318.00,1.36
9317.00,1.36
9316.00,1.36
9315.00,1.36
9314.00,1.36
9313.00,1.35
9312.00,1.35
9311.00,1.35
9310.00,1.35
9309.00,1.35
9308.00,1.35
9307.00,1.35
9306.00,1.35
9305.00,1.35
9304.00,1.35
9303.00,1.35
9302.00,1.35
9301.00,1.35
9300.00,1.35
9299.00,1.35
9298.00,1.35
9297.00,1.35
9296.00,1.36
9295.00,1.36
9294.00,1.37
9293.00,1.37
9292.00,1.38
9291.00,1.39
9290.00,1.39
9289.00,1.40
9288.00,1.41
9287.00,1.42
9286.00,1.42
9285.00,1.43
9284.00,1.43
9283.00,1.43
9282.00,1.44
9281.00,1.44
9280.00,1.44
9279.00,1.44
9278.00,1.44
9277.00,1.44
9276.00,1.44
9275.00,1.44
9274.00,1.44
9273.00,1.43
9272.00,1.43
9271.00,1.42
9270.00,1.42
9269.00,1.41
9268.00,1.41
9267.00,1.40
9266.00,1.39
9265.00,1.39
9264.00,1.38
9263.00,1.37
9262.00,1.37
9261.00,1.36
9260.00,1.36
9259.00,1.35
9258.00,1.35
9257.00,1.34
9256.00,1.34
9255.00,1.34
9254.00,1.33
9253.00,1.33
9252.00,1.33
9251.00,1.32
9250.00,1.32
9249.00,1.32
9248.00,1.31
9247.00,1.31
9246.00,1.31
9245.00,1.31
9244.00,1.31
9243.00,1.31
9242.00,1.31
9241.00,1.30
9240.00,1.30
9239.00,1.30
9238.00,1.29
9237.00,1.29
9236.00,1.29
9235.00,1.28
9234.00,1.28
9233.00,1.27
9232.00,1.27
9231.00,1.26
9230.00,1.26
9229.00,1.26
9228.00,1.25
9227.00,1.25
9226.00,1.25
9225.00,1.25
9224.00,1.25
9223.00,1.25
9222.00,1.25
9221.00,1.25
9220.00,1.25
9219.00,1.25
9218.00,1.25
9217.00,1.25
9216.00,1.25
9215.00,1.25
9214.00,1.26
9213.00,1.26
9212.00,1.27
9211.00,1.27
9210.00,1.27
9209.00,1.28
9208.00,1.28
9207.00,1.29
9206.00,1.29
9205.00,1.29
9204.00,1.30
9203.00,1.30
9202.00,1.31
9201.00,1.31
9200.00,1.31
9199.00,1.32
9198.00,1.32
9197.00,1.33
9196.00,1.33
9195.00,1.33
9194.00,1.34
9193.00,1.34
9192.00,1.34
9191.00,1.34
9190.00,1.34
9189.00,1.35
9188.00,1.35
9187.00,1.35
9186.00,1.35
9185.00,1.35
9184.00,1.36
9183.00,1.36
9182.00,1.36
9181.00,1.37
9180.00,1.37
9179.00,1.37
9178.00,1.38
9177.00,1.38
9176.00,1.39
9175.00,1.39
9174.00,1.39
9173.00,1.40
9172.00,1.40
9171.00,1.40
9170.00,1.40
9169.00,1.41
9168.00,1.41
9167.00,1.41
9166.00,1.42
9165.00,1.42
9164.00,1.42
9163.00,1.42
9162.00,1.43
9161.00,1.43
9160.00,1.43
9159.00,1.43
9158.00,1.43
9157.00,1.42
9156.00,1.42
9155.00,1.42
9154.00,1.42
9153.00,1.41
9152.00,1.41
9151.00,1.40
9150.00,1.40
9149.00,1.39
9148.00,1.39
9147.00,1.38
9146.00,1.37
9145.00,1.37
9144.00,1.36
9143.00,1.35
9142.00,1.35
9141.00,1.34
9140.00,1.33
9139.00,1.33
9138.00,1.32
9137.00,1.31
9136.00,1.31
9135.00,1.31
9134.00,1.30
9133.00,1.30
9132.00,1.30
9131.00,1.30
9130.00,1.30
9129.00,1.30
9128.00,1.30
9127.00,1.30
9126.00,1.30
9125.00,1.30
9124.00,1.30
9123.00,1.30
9122.00,1.30
9121.00,1.31
9120.00,1.31
9119.00,1.31
9118.00,1.32
9117.00,1.32
9116.00,1.32
9115.00,1.33
9114.00,1.33
9113.00,1.33
9112.00,1.34
9111.00,1.34
9110.00,1.34
9109.00,1.35
9108.00,1.35
9107.00,1.35
9106.00,1.35
9105.00,1.35
9104.00,1.35
9103.00,1.36
9102.00,1.36
9101.00,1.36
9100.00,1.36
9099.00,1.36
9098.00,1.36
9097.00,1.37
9096.00,1.37
9095.00,1.37
9094.00,1.37
9093.00,1.38
9092.00,1.38
9091.00,1.38
9090.00,1.39
9089.00,1.39
9088.00,1.40
9087.00,1.40
9086.00,1.41
9085.00,1.42
9084.00,1.42
9083.00,1.43
9082.00,1.43
9081.00,1.44
9080.00,1.44
9079.00,1.44
9078.00,1.45
9077.00,1.45
9076.00,1.46
9075.00,1.46
9074.00,1.46
9073.00,1.47
9072.00,1.47
9071.00,1.47
9070.00,1.48
9069.00,1.48
9068.00,1.49
9067.00,1.49
9066.00,1.49
9065.00,1.49
9064.00,1.50
9063.00,1.50
9062.00,1.50
9061.00,1.50
9060.00,1.49
9059.00,1.49
9058.00,1.49
9057.00,1.49
9056.00,1.49
9055.00,1.49
9054.00,1.49
9053.00,1.49
9052.00,1.49
9051.00,1.49
9050.00,1.48
9049.00,1.48
9048.00,1.48
9047.00,1.48
9046.00,1.48
9045.00,1.47
9044.00,1.47
9043.00,1.46
9042.00,1.46
9041.00,1.45
9040.00,1.45
9039.00,1.44
9038.00,1.44
9037.00,1.43
9036.00,1.43
9035.00,1.42
9034.00,1.42
9033.00,1.41
9032.00,1.41
9031.00,1.41
9030.00,1.40
9029.00,1.40
9028.00,1.40
9027.00,1.39
9026.00,1.39
9025.00,1.39
9024.00,1.39
9023.00,1.39
9022.00,1.39
9021.00,1.39
9020.00,1.39
9019.00,1.39
9018.00,1.39
9017.00,1.40
9016.00,1.40
9015.00,1.40
9014.00,1.40
9013.00,1.40
9012.00,1.40
9011.00,1.40
9010.00,1.40
9009.00,1.41
9008.00,1.41
9007.00,1.41
9006.00,1.41
9005.00,1.41
9004.00,1.41
9003.00,1.42
9002.00,1.42
9001.00,1.42
9000.00,1.42
8999.00,1.42
8998.00,1.42
8997.00,1.42
8996.00,1.42
8995.00,1.42
8994.00,1.42
8993.00,1.42
8992.00,1.42
8991.00,1.42
8990.00,1.42
8989.00,1.42
8988.00,1.42
8987.00,1.42
8986.00,1.42
8985.00,1.42
8984.00,1.42
8983.00,1.43
8982.00,1.43
8981.00,1.43
8980.00,1.43
8979.00,1.43
8978.00,1.43
8977.00,1.43
8976.00,1.43
8975.00,1.43
8974.00,1.43
8973.00,1.44
8972.00,1.44
8971.00,1.44
8970.00,1.44
8969.00,1.44
8968.00,1.44
8967.00,1.44
8966.00,1.43
8965.00,1.43
8964.00,1.43
8963.00,1.43
8962.00,1.43
8961.00,1.43
8960.00,1.42
8959.00,1.42
8958.00,1.42
8957.00,1.42
8956.00,1.42
8955.00,1.42
8954.00,1.42
8953.00,1.42
8952.00,1.41
8951.00,1.41
8950.00,1.41
8949.00,1.41
8948.00,1.41
8947.00,1.40
8946.00,1.40
8945.00,1.40
8944.00,1.40
8943.00,1.40
8942.00,1.40
8941.00,1.40
8940.00,1.40
8939.00,1.40
8938.00,1.40
8937.00,1.41
8936.00,1.41
8935.00,1.41
8934.00,1.42
8933.00,1.42
8932.00,1.42
8931.00,1.42
8930.00,1.43
8929.00,1.43
8928.00,1.43
8927.00,1.43
8926.00,1.43
8925.00,1.44
8924.00,1.44
8923.00,1.44
8922.00,1.44
8921.00,1.45
8920.00,1.45
8919.00,1.45
8918.00,1.45
8917.00,1.46
8916.00,1.46
8915.00,1.46
8914.00,1.46
8913.00,1.46
8912.00,1.46
8911.00,1.46
8910.00,1.46
8909.00,1.45
8908.00,1.45
8907.00,1.45
8906.00,1.44
8905.00,1.44
8904.00,1.44
8903.00,1.43
8902.00,1.43
8901.00,1.42
8900.00,1.42
8899.00,1.42
8898.00,1.41
8897.00,1.41
8896.00,1.41
8895.00,1.40
8894.00,1.40
8893.00,1.40
8892.00,1.40
8891.00,1.40
8890.00,1.40
8889.00,1.39
8888.00,1.39
8887.00,1.39
8886.00,1.39
8885.00,1.39
8884.00,1.39
8883.00,1.39
8882.00,1.40
8881.00,1.40
8880.00,1.40
8879.00,1.41
8878.00,1.41
8877.00,1.42
8876.00,1.43
8875.00,1.43
8874.00,1.44
8873.00,1.44
8872.00,1.45
8871.00,1.45
8870.00,1.46
8869.00,1.46
8868.00,1.47
8867.00,1.47
8866.00,1.47
8865.00,1.48
8864.00,1.48
8863.00,1.48
8862.00,1.49
8861.00,1.49
8860.00,1.49
8859.00,1.49
8858.00,1.49
8857.00,1.49
8856.00,1.49
8855.00,1.48
8854.00,1.48
8853.00,1.48
8852.00,1.48
8851.00,1.47
8850.00,1.47
8849.00,1.46
8848.00,1.46
8847.00,1.46
8846.00,1.45
8845.00,1.45
8844.00,1.45
8843.00,1.44
8842.00,1.44
8841.00,1.43
8840.00,1.43
8839.00,1.43
8838.00,1.43
8837.00,1.42
8836.00,1.42
8835.00,1.42
8834.00,1.42
8833.00,1.42
8832.00,1.42
8831.00,1.42
8830.00,1.42
8829.00,1.42
8828.00,1.41
8827.00,1.41
8826.00,1.41
8825.00,1.41
8824.00,1.41
8823.00,1.41
8822.00,1.41
8821.00,1.41
8820.00,1.41
8819.00,1.41
8818.00,1.41
8817.00,1.41
8816.00,1.41
8815.00,1.41
8814.00,1.41
8813.00,1.41
8812.00,1.41
8811.00,1.41
8810.00,1.41
8809.00,1.41
8808.00,1.41
8807.00,1.41
8806.00,1.41
8805.00,1.41
8804.00,1.42
8803.00,1.42
8802.00,1.42
8801.00,1.42
8800.00,1.42
8799.00,1.42
8798.00,1.43
8797.00,1.43
8796.00,1.43
8795.00,1.43
8794.00,1.43
8793.00,1.43
8792.00,1.43
8791.00,1.43
8790.00,1.44
8789.00,1.44
8788.00,1.44
8787.00,1.44
8786.00,1.44
8785.00,1.43
8784.00,1.43
8783.00,1.43
8782.00,1.42
8781.00,1.42
8780.00,1.41
8779.00,1.41
8778.00,1.40
8777.00,1.40
8776.00,1.39
8775.00,1.39
8774.00,1.39
8773.00,1.38
8772.00,1.38
8771.00,1.38
8770.00,1.38
8769.00,1.37
8768.00,1.37
8767.00,1.37
8766.00,1.37
8765.00,1.37
8764.00,1.37
8763.00,1.37
8762.00,1.38
8761.00,1.38
8760.00,1.38
8759.00,1.38
8758.00,1.39
8757.00,1.39
8756.00,1.40
8755.00,1.41
8754.00,1.41
8753.00,1.42
8752.00,1.43
8751.00,1.43
8750.00,1.44
8749.00,1.44
8748.00,1.45
8747.00,1.45
8746.00,1.46
8745.00,1.46
8744.00,1.46
8743.00,1.46
8742.00,1.46
8741.00,1.46
8740.00,1.46
8739.00,1.46
8738.00,1.46
8737.00,1.46
8736.00,1.46
8735.00,1.46
8734.00,1.46
8733.00,1.46
8732.00,1.45
8731.00,1.45
8730.00,1.45
8729.00,1.44
8728.00,1.44
8727.00,1.43
8726.00,1.43
8725.00,1.42
8724.00,1.42
8723.00,1.41
8722.00,1.41
8721.00,1.41
8720.00,1.40
8719.00,1.40
8718.00,1.40
8717.00,1.40
8716.00,1.40
8715.00,1.39
8714.00,1.39
8713.00,1.39
8712.00,1.39
8711.00,1.39
8710.00,1.38
8709.00,1.38
8708.00,1.38
8707.00,1.38
8706.00,1.37
8705.00,1.37
8704.00,1.37
8703.00,1.37
8702.00,1.37
8701.00,1.37
8700.00,1.36
8699.00,1.36
8698.00,1.36
8697.00,1.36
8696.00,1.36
8695.00,1.36
8694.00,1.35
8693.00,1.35
8692.00,1.35
8691.00,1.34
8690.00,1.34
8689.00,1.34
8688.00,1.33
8687.00,1.33
8686.00,1.33
8685.00,1.33
8684.00,1.32
8683.00,1.32
8682.00,1.32
8681.00,1.32
8680.00,1.32
8679.00,1.32
8678.00,1.32
8677.00,1.32
8676.00,1.32
8675.00,1.32
8674.00,1.32
8673.00,1.32
8672.00,1.32
8671.00,1.33
8670.00,1.33
8669.00,1.33
8668.00,1.33
8667.00,1.34
8666.00,1.34
8665.00,1.34
8664.00,1.35
8663.00,1.35
8662.00,1.35
8661.00,1.36
8660.00,1.36
8659.00,1.37
8658.00,1.37
8657.00,1.37
8656.00,1.38
8655.00,1.38
8654.00,1.38
8653.00,1.38
8652.00,1.38
8651.00,1.38
8650.00,1.38
8649.00,1.38
8648.00,1.38
8647.00,1.37
8646.00,1.37
8645.00,1.37
8644.00,1.37
8643.00,1.37
8642.00,1.37
8641.00,1.36
8640.00,1.36
8639.00,1.36
8638.00,1.36
8637.00,1.36
8636.00,1.36
8635.00,1.36
8634.00,1.35
8633.00,1.35
8632.00,1.35
8631.00,1.34
8630.00,1.34
8629.00,1.34
8628.00,1.34
8627.00,1.33
8626.00,1.33
8625.00,1.33
8624.00,1.33
8623.00,1.33
8622.00,1.33
8621.00,1.33
8620.00,1.33
8619.00,1.33
8618.00,1.33
8617.00,1.33
8616.00,1.33
8615.00,1.33
8614.00,1.32
8613.00,1.32
8612.00,1.32
8611.00,1.31
8610.00,1.31
8609.00,1.31
8608.00,1.31
8607.00,1.31
8606.00,1.31
8605.00,1.31
8604.00,1.31
8603.00,1.31
8602.00,1.31
8601.00,1.31
8600.00,1.31
8599.00,1.31
8598.00,1.31
8597.00,1.31
8596.00,1.31
8595.00,1.31
8594.00,1.31
8593.00,1.30
8592.00,1.30
8591.00,1.30
8590.00,1.30
8589.00,1.30
8588.00,1.30
8587.00,1.31
8586.00,1.31
8585.00,1.31
8584.00,1.31
8583.00,1.31
8582.00,1.31
8581.00,1.31
8580.00,1.32
8579.00,1.32
8578.00,1.32
8577.00,1.32
8576.00,1.32
8575.00,1.32
8574.00,1.33
8573.00,1.33
8572.00,1.33
8571.00,1.33
8570.00,1.34
8569.00,1.34
8568.00,1.34
8567.00,1.35
8566.00,1.35
8565.00,1.35
8564.00,1.36
8563.00,1.36
8562.00,1.36
8561.00,1.37
8560.00,1.37
8559.00,1.37
8558.00,1.38
8557.00,1.38
8556.00,1.38
8555.00,1.38
8554.00,1.39
8553.00,1.39
8552.00,1.39
8551.00,1.40
8550.00,1.40
8549.00,1.40
8548.00,1.40
8547.00,1.40
8546.00,1.40
8545.00,1.41
8544.00,1.41
8543.00,1.41
8542.00,1.40
8541.00,1.40
8540.00,1.40
8539.00,1.40
8538.00,1.40
8537.00,1.40
8536.00,1.40
8535.00,1.40
8534.00,1.40
8533.00,1.40
8532.00,1.39
8531.00,1.39
8530.00,1.39
8529.00,1.39
8528.00,1.39
8527.00,1.39
8526.00,1.38
8525.00,1.38
8524.00,1.38
8523.00,1.38
8522.00,1.38
8521.00,1.37
8520.00,1.37
8519.00,1.37
8518.00,1.37
8517.00,1.37
8516.00,1.37
8515.00,1.37
8514.00,1.37
8513.00,1.37
8512.00,1.37
8511.00,1.37
8510.00,1.37
8509.00,1.37
8508.00,1.37
8507.00,1.37
8506.00,1.37
8505.00,1.37
8504.00,1.36
8503.00,1.36
8502.00,1.36
8501.00,1.36
8500.00,1.36
8499.00,1.36
8498.00,1.36
8497.00,1.36
8496.00,1.36
8495.00,1.36
8494.00,1.36
8493.00,1.35
8492.00,1.35
8491.00,1.35
8490.00,1.35
8489.00,1.35
8488.00,1.35
8487.00,1.35
8486.00,1.35
8485.00,1.35
8484.00,1.35
8483.00,1.35
8482.00,1.35
8481.00,1.35
8480.00,1.35
8479.00,1.35
8478.00,1.36
8477.00,1.36
8476.00,1.36
8475.00,1.36
8474.00,1.36
8473.00,1.37
8472.00,1.37
8471.00,1.37
8470.00,1.37
8469.00,1.37
8468.00,1.37
8467.00,1.37
8466.00,1.38
8465.00,1.38
8464.00,1.38
8463.00,1.38
8462.00,1.38
8461.00,1.38
8460.00,1.38
8459.00,1.38
8458.00,1.38
8457.00,1.38
8456.00,1.38
8455.00,1.38
8454.00,1.37
8453.00,1.37
8452.00,1.37
8451.00,1.36
8450.00,1.36
8449.00,1.36
8448.00,1.35
8447.00,1.35
8446.00,1.35
8445.00,1.35
8444.00,1.34
8443.00,1.34
8442.00,1.34
8441.00,1.33
8440.00,1.33
8439.00,1.33
8438.00,1.33
8437.00,1.32
8436.00,1.32
8435.00,1.32
8434.00,1.32
8433.00,1.32
8432.00,1.32
8431.00,1.32
8430.00,1.32
8429.00,1.33
8428.00,1.33
8427.00,1.33
8426.00,1.33
8425.00,1.34
8424.00,1.34
8423.00,1.35
8422.00,1.35
8421.00,1.36
8420.00,1.36
8419.00,1.37
8418.00,1.37
8417.00,1.38
8416.00,1.38
8415.00,1.39
8414.00,1.39
8413.00,1.40
8412.00,1.40
8411.00,1.41
8410.00,1.41
8409.00,1.42
8408.00,1.42
8407.00,1.42
8406.00,1.43
8405.00,1.43
8404.00,1.43
8403.00,1.44
8402.00,1.44
8401.00,1.44
8400.00,1.44
8399.00,1.44
8398.00,1.44
8397.00,1.44
8396.00,1.43
8395.00,1.43
8394.00,1.43
8393.00,1.43
8392.00,1.43
8391.00,1.43
8390.00,1.43
8389.00,1.42
8388.00,1.42
8387.00,1.42
8386.00,1.42
8385.00,1.42
8384.00,1.42
8383.00,1.42
8382.00,1.42
8381.00,1.42
8380.00,1.42
8379.00,1.41
8378.00,1.41
8377.00,1.41
8376.00,1.41
8375.00,1.41
8374.00,1.41
8373.00,1.41
8372.00,1.41
8371.00,1.42
8370.00,1.42
8369.00,1.42
8368.00,1.42
8367.00,1.41
8366.00,1.41
8365.00,1.41
8364.00,1.41
8363.00,1.40
8362.00,1.40
8361.00,1.40
8360.00,1.40
8359.00,1.39
8358.00,1.39
8357.00,1.39
8356.00,1.38
8355.00,1.38
8354.00,1.38
8353.00,1.38
8352.00,1.37
8351.00,1.37
8350.00,1.37
8349.00,1.37
8348.00,1.36
8347.00,1.36
8346.00,1.36
8345.00,1.35
8344.00,1.35
8343.00,1.35
8342.00,1.35
8341.00,1.35
8340.00,1.35
8339.00,1.35
8338.00,1.36
8337.00,1.36
8336.00,1.36
8335.00,1.37
8334.00,1.37
8333.00,1.38
8332.00,1.38
8331.00,1.38
8330.00,1.39
8329.00,1.39
8328.00,1.40
8327.00,1.40
8326.00,1.41
8325.00,1.41
8324.00,1.42
8323.00,1.43
8322.00,1.43
8321.00,1.44
8320.00,1.45
8319.00,1.45
8318.00,1.46
8317.00,1.46
8316.00,1.47
8315.00,1.47
8314.00,1.48
8313.00,1.48
8312.00,1.48
8311.00,1.48
8310.00,1.48
8309.00,1.48
8308.00,1.48
8307.00,1.48
8306.00,1.47
8305.00,1.47
8304.00,1.47
8303.00,1.46
8302.00,1.46
8301.00,1.46
8300.00,1.45
8299.00,1.45
8298.00,1.44
8297.00,1.44
8296.00,1.43
8295.00,1.42
8294.00,1.42
8293.00,1.41
8292.00,1.40
8291.00,1.40
8290.00,1.39
8289.00,1.39
8288.00,1.38
8287.00,1.38
8286.00,1.38
8285.00,1.38
8284.00,1.38
8283.00,1.38
8282.00,1.38
8281.00,1.38
8280.00,1.38
8279.00,1.39
8278.00,1.39
8277.00,1.39
8276.00,1.40
8275.00,1.40
8274.00,1.41
8273.00,1.41
8272.00,1.42
8271.00,1.42
8270.00,1.43
8269.00,1.44
8268.00,1.44
8267.00,1.45
8266.00,1.45
8265.00,1.46
8264.00,1.47
8263.00,1.47
8262.00,1.48
8261.00,1.48
8260.00,1.48
8259.00,1.49
8258.00,1.49
8257.00,1.49
8256.00,1.49
8255.00,1.50
8254.00,1.50
8253.00,1.50
8252.00,1.49
8251.00,1.49
8250.00,1.49
8249.00,1.48
8248.00,1.48
8247.00,1.48
8246.00,1.47
8245.00,1.47
8244.00,1.46
8243.00,1.46
8242.00,1.45
8241.00,1.44
8240.00,1.44
8239.00,1.43
8238.00,1.43
8237.00,1.42
8236.00,1.42
8235.00,1.41
8234.00,1.41
8233.00,1.41
8232.00,1.40
8231.00,1.40
8230.00,1.40
8229.00,1.39
8228.00,1.39
8227.00,1.39
8226.00,1.39
8225.00,1.39
8224.00,1.40
8223.00,1.40
8222.00,1.40
8221.00,1.41
8220.00,1.41
8219.00,1.42
8218.00,1.43
8217.00,1.43
8216.00,1.44
8215.00,1.45
8214.00,1.45
8213.00,1.46
8212.00,1.47
8211.00,1.47
8210.00,1.48
8209.00,1.48
8208.00,1.49
8207.00,1.49
8206.00,1.49
8205.00,1.50
8204.00,1.50
8203.00,1.50
8202.00,1.50
8201.00,1.51
8200.00,1.51
8199.00,1.51
8198.00,1.51
8197.00,1.51
8196.00,1.51
8195.00,1.51
8194.00,1.50
8193.00,1.50
8192.00,1.50
8191.00,1.49
8190.00,1.49
8189.00,1.49
8188.00,1.48
8187.00,1.48
8186.00,1.48
8185.00,1.47
8184.00,1.47
8183.00,1.47
8182.00,1.47
8181.00,1.47
8180.00,1.47
8179.00,1.46
8178.00,1.46
8177.00,1.46
8176.00,1.46
8175.00,1.46
8174.00,1.46
8173.00,1.46
8172.00,1.46
8171.00,1.45
8170.00,1.45
8169.00,1.45
8168.00,1.45
8167.00,1.45
8166.00,1.45
8165.00,1.45
8164.00,1.45
8163.00,1.45
8162.00,1.45
8161.00,1.45
8160.00,1.45
8159.00,1.45
8158.00,1.45
8157.00,1.45
8156.00,1.45
8155.00,1.45
8154.00,1.45
8153.00,1.45
8152.00,1.45
8151.00,1.45
8150.00,1.46
8149.00,1.46
8148.00,1.46
8147.00,1.46
8146.00,1.46
8145.00,1.46
8144.00,1.47
8143.00,1.47
8142.00,1.47
8141.00,1.47
8140.00,1.47
8139.00,1.47
8138.00,1.47
8137.00,1.47
8136.00,1.47
8135.00,1.47
8134.00,1.47
8133.00,1.47
8132.00,1.47
8131.00,1.46
8130.00,1.46
8129.00,1.46
8128.00,1.46
8127.00,1.45
8126.00,1.45
8125.00,1.45
8124.00,1.44
8123.00,1.44
8122.00,1.43
8121.00,1.43
8120.00,1.43
8119.00,1.42
8118.00,1.42
8117.00,1.42
8116.00,1.42
8115.00,1.42
8114.00,1.42
8113.00,1.42
8112.00,1.42
8111.00,1.42
8110.00,1.42
8109.00,1.42
8108.00,1.42
8107.00,1.43
8106.00,1.43
8105.00,1.43
8104.00,1.43
8103.00,1.44
8102.00,1.44
8101.00,1.45
8100.00,1.45
8099.00,1.46
8098.00,1.46
8097.00,1.47
8096.00,1.47
8095.00,1.48
8094.00,1.48
8093.00,1.49
8092.00,1.49
8091.00,1.49
8090.00,1.49
8089.00,1.50
8088.00,1.50
8087.00,1.50
8086.00,1.50
8085.00,1.50
8084.00,1.50
8083.00,1.49
8082.00,1.49
8081.00,1.49
8080.00,1.49
8079.00,1.49
8078.00,1.48
8077.00,1.48
8076.00,1.47
8075.00,1.47
8074.00,1.46
8073.00,1.46
8072.00,1.45
8071.00,1.45
8070.00,1.44
8069.00,1.44
8068.00,1.43
8067.00,1.43
8066.00,1.42
8065.00,1.42
8064.00,1.42
8063.00,1.41
8062.00,1.41
8061.00,1.41
8060.00,1.41
8059.00,1.41
8058.00,1.41
8057.00,1.41
8056.00,1.41
8055.00,1.42
8054.00,1.42
8053.00,1.42
8052.00,1.43
8051.00,1.43
8050.00,1.43
8049.00,1.44
8048.00,1.44
8047.00,1.45
8046.00,1.45
8045.00,1.46
8044.00,1.46
8043.00,1.47
8042.00,1.47
8041.00,1.48
8040.00,1.48
8039.00,1.49
8038.00,1.49
8037.00,1.50
8036.00,1.50
8035.00,1.50
8034.00,1.50
8033.00,1.51
8032.00,1.51
8031.00,1.51
8030.00,1.51
8029.00,1.51
8028.00,1.51
8027.00,1.51
8026.00,1.50
8025.00,1.50
8024.00,1.50
8023.00,1.50
8022.00,1.50
8021.00,1.50
8020.00,1.50
8019.00,1.50
8018.00,1.50
8017.00,1.50
8016.00,1.50
8015.00,1.50
8014.00,1.50
8013.00,1.49
8012.00,1.49
8011.00,1.49
8010.00,1.49
8009.00,1.49
8008.00,1.49
8007.00,1.49
8006.00,1.49
8005.00,1.49
8004.00,1.49
8003.00,1.49
8002.00,1.49
8001.00,1.49
8000.00,1.49
7999.00,1.49
7998.00,1.49
7997.00,1.49
7996.00,1.49
7995.00,1.49
7994.00,1.49
7993.00,1.48
7992.00,1.48
7991.00,1.48
7990.00,1.48
7989.00,1.47
7988.00,1.47
7987.00,1.47
7986.00,1.46
7985.00,1.46
7984.00,1.46
7983.00,1.46
7982.00,1.46
7981.00,1.46
7980.00,1.46
7979.00,1.46
7978.00,1.46
7977.00,1.46
7976.00,1.46
7975.00,1.46
7974.00,1.46
7973.00,1.46
7972.00,1.47
7971.00,1.47
7970.00,1.47
7969.00,1.47
7968.00,1.48
7967.00,1.48
7966.00,1.48
7965.00,1.49
7964.00,1.50
7963.00,1.50
7962.00,1.51
7961.00,1.51
7960.00,1.52
7959.00,1.52
7958.00,1.53
7957.00,1.53
7956.00,1.53
7955.00,1.54
7954.00,1.54
7953.00,1.54
7952.00,1.54
7951.00,1.54
7950.00,1.54
7949.00,1.54
7948.00,1.54
7947.00,1.54
7946.00,1.54
7945.00,1.54
7944.00,1.54
7943.00,1.54
7942.00,1.54
7941.00,1.54
7940.00,1.54
7939.00,1.53
7938.00,1.53
7937.00,1.53
7936.00,1.52
7935.00,1.52
7934.00,1.52
7933.00,1.51
7932.00,1.51
7931.00,1.51
7930.00,1.51
7929.00,1.51
7928.00,1.50
7927.00,1.50
7926.00,1.50
7925.00,1.50
7924.00,1.50
7923.00,1.50
7922.00,1.50
7921.00,1.50
7920.00,1.50
7919.00,1.50
7918.00,1.50
7917.00,1.50
7916.00,1.50
7915.00,1.50
7914.00,1.50
7913.00,1.50
7912.00,1.50
7911.00,1.50
7910.00,1.51
7909.00,1.51
7908.00,1.51
7907.00,1.52
7906.00,1.52
7905.00,1.52
7904.00,1.53
7903.00,1.53
7902.00,1.53
7901.00,1.54
7900.00,1.54
7899.00,1.54
7898.00,1.54
7897.00,1.54
7896.00,1.55
7895.00,1.55
7894.00,1.55
7893.00,1.55
7892.00,1.56
7891.00,1.56
7890.00,1.56
7889.00,1.56
7888.00,1.56
7887.00,1.56
7886.00,1.56
7885.00,1.56
7884.00,1.56
7883.00,1.56
7882.00,1.56
7881.00,1.56
7880.00,1.56
7879.00,1.56
7878.00,1.56
7877.00,1.56
7876.00,1.56
7875.00,1.55
7874.00,1.55
7873.00,1.55
7872.00,1.55
7871.00,1.55
7870.00,1.55
7869.00,1.55
7868.00,1.54
7867.00,1.54
7866.00,1.54
7865.00,1.54
7864.00,1.54
7863.00,1.54
7862.00,1.54
7861.00,1.53
7860.00,1.53
7859.00,1.53
7858.00,1.53
7857.00,1.53
7856.00,1.52
7855.00,1.52
7854.00,1.52
7853.00,1.52
7852.00,1.52
7851.00,1.52
7850.00,1.52
7849.00,1.52
7848.00,1.52
7847.00,1.52
7846.00,1.52
7845.00,1.52
7844.00,1.52
7843.00,1.52
7842.00,1.53
7841.00,1.53
7840.00,1.53
7839.00,1.53
7838.00,1.53
7837.00,1.53
7836.00,1.54
7835.00,1.54
7834.00,1.54
7833.00,1.54
7832.00,1.55
7831.00,1.55
7830.00,1.55
7829.00,1.55
7828.00,1.56
7827.00,1.56
7826.00,1.56
7825.00,1.56
7824.00,1.56
7823.00,1.56
7822.00,1.56
7821.00,1.56
7820.00,1.56
7819.00,1.56
7818.00,1.56
7817.00,1.56
7816.00,1.56
7815.00,1.56
7814.00,1.56
7813.00,1.56
7812.00,1.56
7811.00,1.56
7810.00,1.56
7809.00,1.56
7808.00,1.56
7807.00,1.56
7806.00,1.56
7805.00,1.56
7804.00,1.55
7803.00,1.55
7802.00,1.55
7801.00,1.55
7800.00,1.55
7799.00,1.55
7798.00,1.55
7797.00,1.55
7796.00,1.55
7795.00,1.55
7794.00,1.55
7793.00,1.55
7792.00,1.55
7791.00,1.55
7790.00,1.55
7789.00,1.55
7788.00,1.55
7787.00,1.55
7786.00,1.55
7785.00,1.55
7784.00,1.55
7783.00,1.55
7782.00,1.55
7781.00,1.55
7780.00,1.55
7779.00,1.55
7778.00,1.55
7777.00,1.55
7776.00,1.55
7775.00,1.55
7774.00,1.55
7773.00,1.55
7772.00,1.55
7771.00,1.55
7770.00,1.55
7769.00,1.55
7768.00,1.55
7767.00,1.54
7766.00,1.54
7765.00,1.54
7764.00,1.54
7763.00,1.53
7762.00,1.53
7761.00,1.53
7760.00,1.53
7759.00,1.53
7758.00,1.52
7757.00,1.52
7756.00,1.52
7755.00,1.52
7754.00,1.52
7753.00,1.52
7752.00,1.52
7751.00,1.52
7750.00,1.52
7749.00,1.52
7748.00,1.52
7747.00,1.52
7746.00,1.52
7745.00,1.52
7744.00,1.53
7743.00,1.53
7742.00,1.53
7741.00,1.53
7740.00,1.53
7739.00,1.53
7738.00,1.53
7737.00,1.53
7736.00,1.54
7735.00,1.54
7734.00,1.54
7733.00,1.54
7732.00,1.54
7731.00,1.54
7730.00,1.54
7729.00,1.54
7728.00,1.54
7727.00,1.54
7726.00,1.54
7725.00,1.54
7724.00,1.54
7723.00,1.54
7722.00,1.54
7721.00,1.54
7720.00,1.54
7719.00,1.54
7718.00,1.54
7717.00,1.54
7716.00,1.54
7715.00,1.54
7714.00,1.54
7713.00,1.54
7712.00,1.54
7711.00,1.54
7710.00,1.54
7709.00,1.54
7708.00,1.55
7707.00,1.55
7706.00,1.55
7705.00,1.55
7704.00,1.55
7703.00,1.55
7702.00,1.55
7701.00,1.56
7700.00,1.56
7699.00,1.56
7698.00,1.56
7697.00,1.56
7696.00,1.56
7695.00,1.57
7694.00,1.57
7693.00,1.57
7692.00,1.57
7691.00,1.57
7690.00,1.57
7689.00,1.57
7688.00,1.57
7687.00,1.57
7686.00,1.57
7685.00,1.57
7684.00,1.56
7683.00,1.56
7682.00,1.56
7681.00,1.56
7680.00,1.55
7679.00,1.55
7678.00,1.55
7677.00,1.54
7676.00,1.54
7675.00,1.54
7674.00,1.53
7673.00,1.53
7672.00,1.53
7671.00,1.52
7670.00,1.52
7669.00,1.52
7668.00,1.51
7667.00,1.51
7666.00,1.51
7665.00,1.51
7664.00,1.51
7663.00,1.51
7662.00,1.51
7661.00,1.50
7660.00,1.50
7659.00,1.50
7658.00,1.51
7657.00,1.51
7656.00,1.51
7655.00,1.51
7654.00,1.51
7653.00,1.51
7652.00,1.51
7651.00,1.51
7650.00,1.52
7649.00,1.52
7648.00,1.52
7647.00,1.52
7646.00,1.53
7645.00,1.53
7644.00,1.53
7643.00,1.53
7642.00,1.54
7641.00,1.54
7640.00,1.54
7639.00,1.54
7638.00,1.54
7637.00,1.54
7636.00,1.54
7635.00,1.54
7634.00,1.54
7633.00,1.54
7632.00,1.54
7631.00,1.54
7630.00,1.53
7629.00,1.53
7628.00,1.53
7627.00,1.53
7626.00,1.53
7625.00,1.53
7624.00,1.53
7623.00,1.53
7622.00,1.53
7621.00,1.53
7620.00,1.53
7619.00,1.53
7618.00,1.53
7617.00,1.53
7616.00,1.53
7615.00,1.53
7614.00,1.53
7613.00,1.53
7612.00,1.54
7611.00,1.54
7610.00,1.54
7609.00,1.54
7608.00,1.55
7607.00,1.55
7606.00,1.55
7605.00,1.55
7604.00,1.56
7603.00,1.56
7602.00,1.56
7601.00,1.57
7600.00,1.57
7599.00,1.57
7598.00,1.57
7597.00,1.57
7596.00,1.57
7595.00,1.58
7594.00,1.58
7593.00,1.58
7592.00,1.57
7591.00,1.57
7590.00,1.57
7589.00,1.57
7588.00,1.57
7587.00,1.57
7586.00,1.57
7585.00,1.56
7584.00,1.56
7583.00,1.56
7582.00,1.56
7581.00,1.55
7580.00,1.55
7579.00,1.55
7578.00,1.55
7577.00,1.54
7576.00,1.54
7575.00,1.54
7574.00,1.54
7573.00,1.54
7572.00,1.54
7571.00,1.54
7570.00,1.54
7569.00,1.54
7568.00,1.54
7567.00,1.54
7566.00,1.54
7565.00,1.54
7564.00,1.55
7563.00,1.55
7562.00,1.55
7561.00,1.56
7560.00,1.56
7559.00,1.56
7558.00,1.56
7557.00,1.57
7556.00,1.57
7555.00,1.57
7554.00,1.57
7553.00,1.58
7552.00,1.58
7551.00,1.58
7550.00,1.59
7549.00,1.59
7548.00,1.59
7547.00,1.59
7546.00,1.59
7545.00,1.59
7544.00,1.59
7543.00,1.59
7542.00,1.59
7541.00,1.59
7540.00,1.59
7539.00,1.59
7538.00,1.59
7537.00,1.59
7536.00,1.59
7535.00,1.59
7534.00,1.59
7533.00,1.59
7532.00,1.59
7531.00,1.59
7530.00,1.59
7529.00,1.59
7528.00,1.59
7527.00,1.59
7526.00,1.59
7525.00,1.59
7524.00,1.59
7523.00,1.59
7522.00,1.59
7521.00,1.59
7520.00,1.59
7519.00,1.59
7518.00,1.59
7517.00,1.59
7516.00,1.59
7515.00,1.59
7514.00,1.59
7513.00,1.59
7512.00,1.59
7511.00,1.59
7510.00,1.59
7509.00,1.59
7508.00,1.59
7507.00,1.59
7506.00,1.59
7505.00,1.59
7504.00,1.59
7503.00,1.59
7502.00,1.59
7501.00,1.59
7500.00,1.59
7499.00,1.59
7498.00,1.59
7497.00,1.59
7496.00,1.58
7495.00,1.58
7494.00,1.58
7493.00,1.58
7492.00,1.58
7491.00,1.58
7490.00,1.58
7489.00,1.57
7488.00,1.57
7487.00,1.57
7486.00,1.57
7485.00,1.56
7484.00,1.56
7483.00,1.56
7482.00,1.56
7481.00,1.55
7480.00,1.55
7479.00,1.55
7478.00,1.55
7477.00,1.55
7476.00,1.55
7475.00,1.55
7474.00,1.55
7473.00,1.56
7472.00,1.56
7471.00,1.56
7470.00,1.56
7469.00,1.56
7468.00,1.56
7467.00,1.56
7466.00,1.56
7465.00,1.56
7464.00,1.56
7463.00,1.56
7462.00,1.56
7461.00,1.56
7460.00,1.57
7459.00,1.57
7458.00,1.57
7457.00,1.57
7456.00,1.57
7455.00,1.58
7454.00,1.58
7453.00,1.58
7452.00,1.58
7451.00,1.58
7450.00,1.58
7449.00,1.58
7448.00,1.58
7447.00,1.58
7446.00,1.58
7445.00,1.58
7444.00,1.58
7443.00,1.58
7442.00,1.58
7441.00,1.58
7440.00,1.58
7439.00,1.58
7438.00,1.58
7437.00,1.58
7436.00,1.58
7435.00,1.58
7434.00,1.57
7433.00,1.57
7432.00,1.57
7431.00,1.57
7430.00,1.57
7429.00,1.57
7428.00,1.57
7427.00,1.56
7426.00,1.56
7425.00,1.56
7424.00,1.56
7423.00,1.56
7422.00,1.56
7421.00,1.55
7420.00,1.55
7419.00,1.55
7418.00,1.55
7417.00,1.55
7416.00,1.55
7415.00,1.54
7414.00,1.54
7413.00,1.54
7412.00,1.54
7411.00,1.54
7410.00,1.54
7409.00,1.54
7408.00,1.54
7407.00,1.53
7406.00,1.53
7405.00,1.53
7404.00,1.53
7403.00,1.53
7402.00,1.53
7401.00,1.53
7400.00,1.53
7399.00,1.53
7398.00,1.53
7397.00,1.53
7396.00,1.53
7395.00,1.53
7394.00,1.53
7393.00,1.53
7392.00,1.53
7391.00,1.53
7390.00,1.53
7389.00,1.53
7388.00,1.53
7387.00,1.53
7386.00,1.53
7385.00,1.54
7384.00,1.54
7383.00,1.54
7382.00,1.54
7381.00,1.54
7380.00,1.54
7379.00,1.54
7378.00,1.54
7377.00,1.55
7376.00,1.55
7375.00,1.55
7374.00,1.55
7373.00,1.55
7372.00,1.55
7371.00,1.56
7370.00,1.56
7369.00,1.56
7368.00,1.56
7367.00,1.56
7366.00,1.56
7365.00,1.56
7364.00,1.56
7363.00,1.56
7362.00,1.57
7361.00,1.57
7360.00,1.57
7359.00,1.57
7358.00,1.57
7357.00,1.57
7356.00,1.57
7355.00,1.57
7354.00,1.57
7353.00,1.57
7352.00,1.57
7351.00,1.57
7350.00,1.57
7349.00,1.57
7348.00,1.57
7347.00,1.56
7346.00,1.56
7345.00,1.56
7344.00,1.56
7343.00,1.55
7342.00,1.55
7341.00,1.55
7340.00,1.54
7339.00,1.54
7338.00,1.54
7337.00,1.54
7336.00,1.53
7335.00,1.53
7334.00,1.52
7333.00,1.52
7332.00,1.51
7331.00,1.51
7330.00,1.50
7329.00,1.50
7328.00,1.49
7327.00,1.49
7326.00,1.48
7325.00,1.48
7324.00,1.47
7323.00,1.47
7322.00,1.47
7321.00,1.47
7320.00,1.46
7319.00,1.46
7318.00,1.46
7317.00,1.46
7316.00,1.46
7315.00,1.46
7314.00,1.46
7313.00,1.46
7312.00,1.46
7311.00,1.46
7310.00,1.46
7309.00,1.46
7308.00,1.46
7307.00,1.46
7306.00,1.46
7305.00,1.47
7304.00,1.47
7303.00,1.47
7302.00,1.48
7301.00,1.48
7300.00,1.49
7299.00,1.49
7298.00,1.49
7297.00,1.50
7296.00,1.50
7295.00,1.50
7294.00,1.50
7293.00,1.51
7292.00,1.51
7291.00,1.51
7290.00,1.51
7289.00,1.51
7288.00,1.51
7287.00,1.51
7286.00,1.51
7285.00,1.51
7284.00,1.51
7283.00,1.51
7282.00,1.51
7281.00,1.51
7280.00,1.51
7279.00,1.51
7278.00,1.51
7277.00,1.51
7276.00,1.51
7275.00,1.51
7274.00,1.51
7273.00,1.51
7272.00,1.51
7271.00,1.51
7270.00,1.51
7269.00,1.50
7268.00,1.50
7267.00,1.50
7266.00,1.50
7265.00,1.50
7264.00,1.49
7263.00,1.49
7262.00,1.49
7261.00,1.49
7260.00,1.48
7259.00,1.48
7258.00,1.48
7257.00,1.47
7256.00,1.47
7255.00,1.46
7254.00,1.46
7253.00,1.45
7252.00,1.45
7251.00,1.44
7250.00,1.44
7249.00,1.43
7248.00,1.42
7247.00,1.42
7246.00,1.41
7245.00,1.40
7244.00,1.40
7243.00,1.39
7242.00,1.39
7241.00,1.38
7240.00,1.38
7239.00,1.37
7238.00,1.37
7237.00,1.36
7236.00,1.36
7235.00,1.36
7234.00,1.35
7233.00,1.35
7232.00,1.34
7231.00,1.34
7230.00,1.34
7229.00,1.33
7228.00,1.33
7227.00,1.33
7226.00,1.33
7225.00,1.32
7224.00,1.32
7223.00,1.32
7222.00,1.31
7221.00,1.31
7220.00,1.31
7219.00,1.31
7218.00,1.31
7217.00,1.30
7216.00,1.30
7215.00,1.30
7214.00,1.30
7213.00,1.29
7212.00,1.29
7211.00,1.29
7210.00,1.28
7209.00,1.28
7208.00,1.28
7207.00,1.28
7206.00,1.27
7205.00,1.27
7204.00,1.27
7203.00,1.27
7202.00,1.27
7201.00,1.26
7200.00,1.26
7199.00,1.26
7198.00,1.26
7197.00,1.26
7196.00,1.26
7195.00,1.26
7194.00,1.25
7193.00,1.25
7192.00,1.25
7191.00,1.25
7190.00,1.25
7189.00,1.25
7188.00,1.25
7187.00,1.25
7186.00,1.24
7185.00,1.24
7184.00,1.24
7183.00,1.24
7182.00,1.24
7181.00,1.24
7180.00,1.23
7179.00,1.23
7178.00,1.23
7177.00,1.23
7176.00,1.23
7175.00,1.23
7174.00,1.22
7173.00,1.22
7172.00,1.22
7171.00,1.22
7170.00,1.22
7169.00,1.21
7168.00,1.21
7167.00,1.21
7166.00,1.21
7165.00,1.20
7164.00,1.20
7163.00,1.20
7162.00,1.20
7161.00,1.19
7160.00,1.19
7159.00,1.19
7158.00,1.18
7157.00,1.18
7156.00,1.18
7155.00,1.17
7154.00,1.17
7153.00,1.16
7152.00,1.16
7151.00,1.15
7150.00,1.15
7149.00,1.14
7148.00,1.14
7147.00,1.13
7146.00,1.13
7145.00,1.12
7144.00,1.12
7143.00,1.11
7142.00,1.11
7141.00,1.10
7140.00,1.10
7139.00,1.09
7138.00,1.09
7137.00,1.08
7136.00,1.08
7135.00,1.07
7134.00,1.07
7133.00,1.06
7132.00,1.06
7131.00,1.05
7130.00,1.05
7129.00,1.05
7128.00,1.04
7127.00,1.04
7126.00,1.04
7125.00,1.03
7124.00,1.03
7123.00,1.03
7122.00,1.03
7121.00,1.02
7120.00,1.02
7119.00,1.02
7118.00,1.02
7117.00,1.01
7116.00,1.01
7115.00,1.01
7114.00,1.01
7113.00,1.00
7112.00,1.00
7111.00,1.00
7110.00,0.99
7109.00,0.99
7108.00,0.99
7107.00,0.99
7106.00,0.98
7105.00,0.98
7104.00,0.98
7103.00,0.97
7102.00,0.97
7101.00,0.97
7100.00,0.96
7099.00,0.96
7098.00,0.96
7097.00,0.95
7096.00,0.95
7095.00,0.94
7094.00,0.94
7093.00,0.93
7092.00,0.93
7091.00,0.92
7090.00,0.92
7089.00,0.92
7088.00,0.91
7087.00,0.91
7086.00,0.91
7085.00,0.91
7084.00,0.90
7083.00,0.90
7082.00,0.90
7081.00,0.90
7080.00,0.90
7079.00,0.90
7078.00,0.89
7077.00,0.89
7076.00,0.89
7075.00,0.89
7074.00,0.89
7073.00,0.89
7072.00,0.89
7071.00,0.89
7070.00,0.89
7069.00,0.89
7068.00,0.89
7067.00,0.89
7066.00,0.89
7065.00,0.89
7064.00,0.89
7063.00,0.89
7062.00,0.89
7061.00,0.89
7060.00,0.89
7059.00,0.89
7058.00,0.89
7057.00,0.88
7056.00,0.88
7055.00,0.88
7054.00,0.88
7053.00,0.88
7052.00,0.87
7051.00,0.87
7050.00,0.87
7049.00,0.87
7048.00,0.87
7047.00,0.87
7046.00,0.86
7045.00,0.86
7044.00,0.86
7043.00,0.86
7042.00,0.86
7041.00,0.86
7040.00,0.85
7039.00,0.85
7038.00,0.85
7037.00,0.85
7036.00,0.85
7035.00,0.85
7034.00,0.85
7033.00,0.85
7032.00,0.85
7031.00,0.85
7030.00,0.85
7029.00,0.85
7028.00,0.85
7027.00,0.85
7026.00,0.85
7025.00,0.85
7024.00,0.85
7023.00,0.85
7022.00,0.85
7021.00,0.85
7020.00,0.85
7019.00,0.85
7018.00,0.85
7017.00,0.85
7016.00,0.86
7015.00,0.86
7014.00,0.86
7013.00,0.86
7012.00,0.86
7011.00,0.86
7010.00,0.86
7009.00,0.86
7008.00,0.86
7007.00,0.86
7006.00,0.86
7005.00,0.86
7004.00,0.86
7003.00,0.86
7002.00,0.85
7001.00,0.85
7000.00,0.85
6999.00,0.85
6998.00,0.85
6997.00,0.85
6996.00,0.85
6995.00,0.84
6994.00,0.84
6993.00,0.84
6992.00,0.84
6991.00,0.84
6990.00,0.83
6989.00,0.83
6988.00,0.83
6987.00,0.83
6986.00,0.82
6985.00,0.82
6984.00,0.82
6983.00,0.82
6982.00,0.81
6981.00,0.81
6980.00,0.81
6979.00,0.80
6978.00,0.80
6977.00,0.80
6976.00,0.80
6975.00,0.80
6974.00,0.79
6973.00,0.79
6972.00,0.79
6971.00,0.79
6970.00,0.79
6969.00,0.78
6968.00,0.78
6967.00,0.78
6966.00,0.78
6965.00,0.78
6964.00,0.78
6963.00,0.77
6962.00,0.77
6961.00,0.77
6960.00,0.77
6959.00,0.77
6958.00,0.77
6957.00,0.77
6956.00,0.77
6955.00,0.77
6954.00,0.77
6953.00,0.77
6952.00,0.76
6951.00,0.76
6950.00,0.76
6949.00,0.76
6948.00,0.76
6947.00,0.76
6946.00,0.76
6945.00,0.76
6944.00,0.76
6943.00,0.76
6942.00,0.76
6941.00,0.76
6940.00,0.76
6939.00,0.76
6938.00,0.76
6937.00,0.76
6936.00,0.76
6935.00,0.76
6934.00,0.76
6933.00,0.76
6932.00,0.76
6931.00,0.76
6930.00,0.76
6929.00,0.76
6928.00,0.76
6927.00,0.76
6926.00,0.76
6925.00,0.76
6924.00,0.76
6923.00,0.76
6922.00,0.76
6921.00,0.76
6920.00,0.76
6919.00,0.76
6918.00,0.76
6917.00,0.76
6916.00,0.77
6915.00,0.77
6914.00,0.77
6913.00,0.77
6912.00,0.77
6911.00,0.77
6910.00,0.77
6909.00,0.77
6908.00,0.77
6907.00,0.77
6906.00,0.77
6905.00,0.77
6904.00,0.77
6903.00,0.77
6902.00,0.77
6901.00,0.76
6900.00,0.76
6899.00,0.76
6898.00,0.76
6897.00,0.76
6896.00,0.76
6895.00,0.76
6894.00,0.76
6893.00,0.76
6892.00,0.75
6891.00,0.75
6890.00,0.75
6889.00,0.75
6888.00,0.75
6887.00,0.75
6886.00,0.75
6885.00,0.75
6884.00,0.75
6883.00,0.74
6882.00,0.74
6881.00,0.74
6880.00,0.74
6879.00,0.74
6878.00,0.74
6877.00,0.74
6876.00,0.74
6875.00,0.74
6874.00,0.74
6873.00,0.74
6872.00,0.74
6871.00,0.74
6870.00,0.74
6869.00,0.74
6868.00,0.74
6867.00,0.74
6866.00,0.74
6865.00,0.74
6864.00,0.74
6863.00,0.74
6862.00,0.74
6861.00,0.74
6860.00,0.74
6859.00,0.74
6858.00,0.74
6857.00,0.74
6856.00,0.74
6855.00,0.74
6854.00,0.74
6853.00,0.74
6852.00,0.74
6851.00,0.74
6850.00,0.74
6849.00,0.74
6848.00,0.74
6847.00,0.74
6846.00,0.74
6845.00,0.74
6844.00,0.74
6843.00,0.74
6842.00,0.74
6841.00,0.74
6840.00,0.74
6839.00,0.74
6838.00,0.74
6837.00,0.74
6836.00,0.74
6835.00,0.74
6834.00,0.74
6833.00,0.74
6832.00,0.75
6831.00,0.75
6830.00,0.75
6829.00,0.75
6828.00,0.75
6827.00,0.75
6826.00,0.75
6825.00,0.75
6824.00,0.75
6823.00,0.75
6822.00,0.75
6821.00,0.75
6820.00,0.75
6819.00,0.75
6818.00,0.76
6817.00,0.76
6816.00,0.76
6815.00,0.76
6814.00,0.76
6813.00,0.76
6812.00,0.76
6811.00,0.76
6810.00,0.76
6809.00,0.76
6808.00,0.77
6807.00,0.77
6806.00,0.77
6805.00,0.77
6804.00,0.77
6803.00,0.77
6802.00,0.77
6801.00,0.77
6800.00,0.77
6799.00,0.77
6798.00,0.78
6797.00,0.78
6796.00,0.78
6795.00,0.78
6794.00,0.78
6793.00,0.78
6792.00,0.78
6791.00,0.78
6790.00,0.78
6789.00,0.79
6788.00,0.79
6787.00,0.79
6786.00,0.79
6785.00,0.79
6784.00,0.79
6783.00,0.79
6782.00,0.79
6781.00,0.79
6780.00,0.79
6779.00,0.79
6778.00,0.79
6777.00,0.79
6776.00,0.79
6775.00,0.79
6774.00,0.79
6773.00,0.79
6772.00,0.79
6771.00,0.79
6770.00,0.79
6769.00,0.79
6768.00,0.79
6767.00,0.79
6766.00,0.79
6765.00,0.79
6764.00,0.79
6763.00,0.78
6762.00,0.78
6761.00,0.78
6760.00,0.78
6759.00,0.78
6758.00,0.78
6757.00,0.78
6756.00,0.78
6755.00,0.78
6754.00,0.79
6753.00,0.79
6752.00,0.79
6751.00,0.79
6750.00,0.79
6749.00,0.79
6748.00,0.79
6747.00,0.80
6746.00,0.80
6745.00,0.80
6744.00,0.80
6743.00,0.80
6742.00,0.80
6741.00,0.81
6740.00,0.81
6739.00,0.81
6738.00,0.81
6737.00,0.82
6736.00,0.82
6735.00,0.82
6734.00,0.82
6733.00,0.83
6732.00,0.83
6731.00,0.83
6730.00,0.83
6729.00,0.84
6728.00,0.84
6727.00,0.84
6726.00,0.84
6725.00,0.85
6724.00,0.85
6723.00,0.85
6722.00,0.85
6721.00,0.85
6720.00,0.86
6719.00,0.86
6718.00,0.86
6717.00,0.86
6716.00,0.87
6715.00,0.87
6714.00,0.87
6713.00,0.88
6712.00,0.88
6711.00,0.88
6710.00,0.88
6709.00,0.89
6708.00,0.89
6707.00,0.89
6706.00,0.89
6705.00,0.90
6704.00,0.90
6703.00,0.90
6702.00,0.90
6701.00,0.90
6700.00,0.91
6699.00,0.91
6698.00,0.91
6697.00,0.91
6696.00,0.92
6695.00,0.92
6694.00,0.92
6693.00,0.92
6692.00,0.92
6691.00,0.92
6690.00,0.93
6689.00,0.93
6688.00,0.93
6687.00,0.93
6686.00,0.93
6685.00,0.93
6684.00,0.93
6683.00,0.93
6682.00,0.93
6681.00,0.94
6680.00,0.94
6679.00,0.94
6678.00,0.94
6677.00,0.94
6676.00,0.94
6675.00,0.94
6674.00,0.94
6673.00,0.94
6672.00,0.94
6671.00,0.94
6670.00,0.94
6669.00,0.94
6668.00,0.95
6667.00,0.95
6666.00,0.95
6665.00,0.95
6664.00,0.95
6663.00,0.95
6662.00,0.95
6661.00,0.95
6660.00,0.95
6659.00,0.95
6658.00,0.95
6657.00,0.95
6656.00,0.95
6655.00,0.95
6654.00,0.95
6653.00,0.95
6652.00,0.95
6651.00,0.95
6650.00,0.95
6649.00,0.95
6648.00,0.95
6647.00,0.96
6646.00,0.96
6645.00,0.96
6644.00,0.96
6643.00,0.96
6642.00,0.96
6641.00,0.97
6640.00,0.97
6639.00,0.97
6638.00,0.97
6637.00,0.97
6636.00,0.98
6635.00,0.98
6634.00,0.98
6633.00,0.98
6632.00,0.98
6631.00,0.98
6630.00,0.98
6629.00,0.99
6628.00,0.99
6627.00,0.99
6626.00,0.99
6625.00,0.99
6624.00,0.99
6623.00,1.00
6622.00,1.00
6621.00,1.00
6620.00,1.00
6619.00,1.00
6618.00,1.00
6617.00,1.00
6616.00,1.00
6615.00,1.00
6614.00,1.00
6613.00,1.00
6612.00,1.00
6611.00,1.00
6610.00,1.00
6609.00,1.00
6608.00,1.00
6607.00,1.00
6606.00,1.00
6605.00,1.00
6604.00,1.00
6603.00,1.00
6602.00,1.01
6601.00,1.01
6600.00,1.01
6599.00,1.01
6598.00,1.01
6597.00,1.01
6596.00,1.01
6595.00,1.01
6594.00,1.01
6593.00,1.01
6592.00,1.01
6591.00,1.01
6590.00,1.01
6589.00,1.02
6588.00,1.02
6587.00,1.02
6586.00,1.02
6585.00,1.03
6584.00,1.03
6583.00,1.03
6582.00,1.03
6581.00,1.04
6580.00,1.04
6579.00,1.04
6578.00,1.05
6577.00,1.05
6576.00,1.05
6575.00,1.05
6574.00,1.06
6573.00,1.06
6572.00,1.06
6571.00,1.06
6570.00,1.07
6569.00,1.07
6568.00,1.07
6567.00,1.07
6566.00,1.08
6565.00,1.08
6564.00,1.08
6563.00,1.08
6562.00,1.08
6561.00,1.08
6560.00,1.08
6559.00,1.08
6558.00,1.08
6557.00,1.08
6556.00,1.08
6555.00,1.08
6554.00,1.08
6553.00,1.08
6552.00,1.08
6551.00,1.08
6550.00,1.08
6549.00,1.08
6548.00,1.08
6547.00,1.08
6546.00,1.08
6545.00,1.08
6544.00,1.07
6543.00,1.07
6542.00,1.07
6541.00,1.07
6540.00,1.07
6539.00,1.07
6538.00,1.07
6537.00,1.07
6536.00,1.07
6535.00,1.07
6534.00,1.07
6533.00,1.07
6532.00,1.07
6531.00,1.07
6530.00,1.07
6529.00,1.07
6528.00,1.07
6527.00,1.07
6526.00,1.07
6525.00,1.07
6524.00,1.07
6523.00,1.07
6522.00,1.07
6521.00,1.07
6520.00,1.07
6519.00,1.07
6518.00,1.07
6517.00,1.07
6516.00,1.08
6515.00,1.08
6514.00,1.08
6513.00,1.09
6512.00,1.09
6511.00,1.09
6510.00,1.09
6509.00,1.10
6508.00,1.10
6507.00,1.10
6506.00,1.11
6505.00,1.11
6504.00,1.11
6503.00,1.11
6502.00,1.12
6501.00,1.12
6500.00,1.13
6499.00,1.13
6498.00,1.13
6497.00,1.14
6496.00,1.14
6495.00,1.15
6494.00,1.15
6493.00,1.15
6492.00,1.16
6491.00,1.16
6490.00,1.16
6489.00,1.16
6488.00,1.17
6487.00,1.17
6486.00,1.17
6485.00,1.17
6484.00,1.17
6483.00,1.18
6482.00,1.18
6481.00,1.18
6480.00,1.18
6479.00,1.18
6478.00,1.18
6477.00,1.18
6476.00,1.18
6475.00,1.18
6474.00,1.18
6473.00,1.18
6472.00,1.18
6471.00,1.18
6470.00,1.18
6469.00,1.17
6468.00,1.17
6467.00,1.17
6466.00,1.17
6465.00,1.17
6464.00,1.17
6463.00,1.17
6462.00,1.16
6461.00,1.16
6460.00,1.16
6459.00,1.16
6458.00,1.16
6457.00,1.16
6456.00,1.16
6455.00,1.16
6454.00,1.16
6453.00,1.16
6452.00,1.16
6451.00,1.16
6450.00,1.16
6449.00,1.16
6448.00,1.16
6447.00,1.16
6446.00,1.16
6445.00,1.16
6444.00,1.16
6443.00,1.17
6442.00,1.17
6441.00,1.17
6440.00,1.17
6439.00,1.17
6438.00,1.17
6437.00,1.17
6436.00,1.18
6435.00,1.18
6434.00,1.18
6433.00,1.18
6432.00,1.18
6431.00,1.18
6430.00,1.18
6429.00,1.18
6428.00,1.18
6427.00,1.18
6426.00,1.19
6425.00,1.19
6424.00,1.19
6423.00,1.19
6422.00,1.19
6421.00,1.19
6420.00,1.19
6419.00,1.19
6418.00,1.19
6417.00,1.19
6416.00,1.19
6415.00,1.19
6414.00,1.19
6413.00,1.19
6412.00,1.19
6411.00,1.19
6410.00,1.19
6409.00,1.19
6408.00,1.19
6407.00,1.19
6406.00,1.19
6405.00,1.19
6404.00,1.19
6403.00,1.19
6402.00,1.19
6401.00,1.19
6400.00,1.19
6399.00,1.19
6398.00,1.19
6397.00,1.19
6396.00,1.19
6395.00,1.19
6394.00,1.19
6393.00,1.19
6392.00,1.19
6391.00,1.19
6390.00,1.19
6389.00,1.20
6388.00,1.20
6387.00,1.20
6386.00,1.20
6385.00,1.20
6384.00,1.21
6383.00,1.21
6382.00,1.21
6381.00,1.21
6380.00,1.22
6379.00,1.22
6378.00,1.22
6377.00,1.23
6376.00,1.23
6375.00,1.23
6374.00,1.23
6373.00,1.24
6372.00,1.24
6371.00,1.24
6370.00,1.24
6369.00,1.25
6368.00,1.25
6367.00,1.25
6366.00,1.25
6365.00,1.25
6364.00,1.26
6363.00,1.26
6362.00,1.26
6361.00,1.26
6360.00,1.26
6359.00,1.26
6358.00,1.26
6357.00,1.26
6356.00,1.26
6355.00,1.26
6354.00,1.26
6353.00,1.26
6352.00,1.26
6351.00,1.27
6350.00,1.27
6349.00,1.27
6348.00,1.27
6347.00,1.27
6346.00,1.27
6345.00,1.27
6344.00,1.27
6343.00,1.27
6342.00,1.27
6341.00,1.27
6340.00,1.27
6339.00,1.27
6338.00,1.27
6337.00,1.27
6336.00,1.27
6335.00,1.27
6334.00,1.27
6333.00,1.27
6332.00,1.27
6331.00,1.27
6330.00,1.27
6329.00,1.27
6328.00,1.28
6327.00,1.28
6326.00,1.28
6325.00,1.28
6324.00,1.28
6323.00,1.28
6322.00,1.29
6321.00,1.29
6320.00,1.29
6319.00,1.29
6318.00,1.29
6317.00,1.30
6316.00,1.30
6315.00,1.30
6314.00,1.30
6313.00,1.30
6312.00,1.31
6311.00,1.31
6310.00,1.31
6309.00,1.31
6308.00,1.31
6307.00,1.31
6306.00,1.32
6305.00,1.32
6304.00,1.32
6303.00,1.32
6302.00,1.32
6301.00,1.32
6300.00,1.32
6299.00,1.32
6298.00,1.32
6297.00,1.32
6296.00,1.32
6295.00,1.32
6294.00,1.33
6293.00,1.33
6292.00,1.33
6291.00,1.33
6290.00,1.33
6289.00,1.33
6288.00,1.33
6287.00,1.33
6286.00,1.34
6285.00,1.34
6284.00,1.34
6283.00,1.34
6282.00,1.35
6281.00,1.35
6280.00,1.35
6279.00,1.35
6278.00,1.35
6277.00,1.36
6276.00,1.36
6275.00,1.36
6274.00,1.36
6273.00,1.36
6272.00,1.37
6271.00,1.37
6270.00,1.37
6269.00,1.37
6268.00,1.37
6267.00,1.37
6266.00,1.37
6265.00,1.37
6264.00,1.37
6263.00,1.38
6262.00,1.38
6261.00,1.38
6260.00,1.38
6259.00,1.38
6258.00,1.38
6257.00,1.38
6256.00,1.38
6255.00,1.38
6254.00,1.38
6253.00,1.38
6252.00,1.38
6251.00,1.38
6250.00,1.38
6249.00,1.38
6248.00,1.38
6247.00,1.38
6246.00,1.38
6245.00,1.38
6244.00,1.38
6243.00,1.38
6242.00,1.38
6241.00,1.38
6240.00,1.39
6239.00,1.39
6238.00,1.39
6237.00,1.39
6236.00,1.39
6235.00,1.40
6234.00,1.40
6233.00,1.40
6232.00,1.40
6231.00,1.40
6230.00,1.41
6229.00,1.41
6228.00,1.41
6227.00,1.42
6226.00,1.42
6225.00,1.42
6224.00,1.42
6223.00,1.43
6222.00,1.43
6221.00,1.43
6220.00,1.43
6219.00,1.44
6218.00,1.44
6217.00,1.44
6216.00,1.44
6215.00,1.44
6214.00,1.45
6213.00,1.45
6212.00,1.45
6211.00,1.45
6210.00,1.45
6209.00,1.45
6208.00,1.45
6207.00,1.45
6206.00,1.45
6205.00,1.45
6204.00,1.45
6203.00,1.45
6202.00,1.45
6201.00,1.45
6200.00,1.45
6199.00,1.45
6198.00,1.45
6197.00,1.45
6196.00,1.45
6195.00,1.45
6194.00,1.45
6193.00,1.46
6192.00,1.46
6191.00,1.46
6190.00,1.46
6189.00,1.46
6188.00,1.46
6187.00,1.46
6186.00,1.46
6185.00,1.47
6184.00,1.47
6183.00,1.47
6182.00,1.47
6181.00,1.48
6180.00,1.48
6179.00,1.48
6178.00,1.48
6177.00,1.49
6176.00,1.49
6175.00,1.49
6174.00,1.50
6173.00,1.50
6172.00,1.50
6171.00,1.50
6170.00,1.51
6169.00,1.51
6168.00,1.51
6167.00,1.51
6166.00,1.52
6165.00,1.52
6164.00,1.52
6163.00,1.52
6162.00,1.52
6161.00,1.52
6160.00,1.52
6159.00,1.53
6158.00,1.53
6157.00,1.53
6156.00,1.52
6155.00,1.52
6154.00,1.52
6153.00,1.52
6152.00,1.52
6151.00,1.52
6150.00,1.52
6149.00,1.52
6148.00,1.52
6147.00,1.52
6146.00,1.52
6145.00,1.52
6144.00,1.52
6143.00,1.52
6142.00,1.52
6141.00,1.52
6140.00,1.52
6139.00,1.51
6138.00,1.51
6137.00,1.51
6136.00,1.51
6135.00,1.51
6134.00,1.51
6133.00,1.51
6132.00,1.51
6131.00,1.50
6130.00,1.50
6129.00,1.50
6128.00,1.50
6127.00,1.50
6126.00,1.50
6125.00,1.50
6124.00,1.50
6123.00,1.50
6122.00,1.51
6121.00,1.51
6120.00,1.51
6119.00,1.51
6118.00,1.51
6117.00,1.51
6116.00,1.51
6115.00,1.51
6114.00,1.51
6113.00,1.52
6112.00,1.52
6111.00,1.52
6110.00,1.53
6109.00,1.53
6108.00,1.53
6107.00,1.53
6106.00,1.54
6105.00,1.54
6104.00,1.55
6103.00,1.55
6102.00,1.55
6101.00,1.56
6100.00,1.56
6099.00,1.56
6098.00,1.56
6097.00,1.57
6096.00,1.57
6095.00,1.57
6094.00,1.57
6093.00,1.57
6092.00,1.58
6091.00,1.58
6090.00,1.58
6089.00,1.58
6088.00,1.58
6087.00,1.58
6086.00,1.58
6085.00,1.58
6084.00,1.58
6083.00,1.58
6082.00,1.58
6081.00,1.58
6080.00,1.58
6079.00,1.58
6078.00,1.58
6077.00,1.58
6076.00,1.57
6075.00,1.57
6074.00,1.57
6073.00,1.57
6072.00,1.57
6071.00,1.57
6070.00,1.57
6069.00,1.57
6068.00,1.57
6067.00,1.57
6066.00,1.57
6065.00,1.57
6064.00,1.57
6063.00,1.58
6062.00,1.58
6061.00,1.58
6060.00,1.58
6059.00,1.58
6058.00,1.58
6057.00,1.58
6056.00,1.58
6055.00,1.58
6054.00,1.58
6053.00,1.58
6052.00,1.58
6051.00,1.58
6050.00,1.59
6049.00,1.59
6048.00,1.59
6047.00,1.59
6046.00,1.59
6045.00,1.59
6044.00,1.59
6043.00,1.59
6042.00,1.59
6041.00,1.59
6040.00,1.58
6039.00,1.58
6038.00,1.58
6037.00,1.58
6036.00,1.58
6035.00,1.58
6034.00,1.58
6033.00,1.58
6032.00,1.58
6031.00,1.58
6030.00,1.58
6029.00,1.58
6028.00,1.58
6027.00,1.58
6026.00,1.58
6025.00,1.58
6024.00,1.58
6023.00,1.57
6022.00,1.57
6021.00,1.57
6020.00,1.57
6019.00,1.57
6018.00,1.57
6017.00,1.57
6016.00,1.57
6015.00,1.58
6014.00,1.58
6013.00,1.58
6012.00,1.58
6011.00,1.58
6010.00,1.58
6009.00,1.58
6008.00,1.58
6007.00,1.58
6006.00,1.58
6005.00,1.58
6004.00,1.59
6003.00,1.59
6002.00,1.59
6001.00,1.59
6000.00,1.59
5999.00,1.59
5998.00,1.59
5997.00,1.59
5996.00,1.60
5995.00,1.60
5994.00,1.60
5993.00,1.60
5992.00,1.60
5991.00,1.60
5990.00,1.60
5989.00,1.60
5988.00,1.60
5987.00,1.60
5986.00,1.60
5985.00,1.60
5984.00,1.60
5983.00,1.60
5982.00,1.60
5981.00,1.60
5980.00,1.59
5979.00,1.59
5978.00,1.59
5977.00,1.59
5976.00,1.59
5975.00,1.58
5974.00,1.58
5973.00,1.58
5972.00,1.58
5971.00,1.57
5970.00,1.57
5969.00,1.57
5968.00,1.56
5967.00,1.56
5966.00,1.56
5965.00,1.56
5964.00,1.55
5963.00,1.55
5962.00,1.55
5961.00,1.54
5960.00,1.54
5959.00,1.54
5958.00,1.53
5957.00,1.53
5956.00,1.53
5955.00,1.53
5954.00,1.52
5953.00,1.52
5952.00,1.52
5951.00,1.52
5950.00,1.51
5949.00,1.51
5948.00,1.51
5947.00,1.51
5946.00,1.51
5945.00,1.50
5944.00,1.50
5943.00,1.50
5942.00,1.50
5941.00,1.49
5940.00,1.49
5939.00,1.49
5938.00,1.49
5937.00,1.48
5936.00,1.48
5935.00,1.48
5934.00,1.48
5933.00,1.47
5932.00,1.47
5931.00,1.47
5930.00,1.47
5929.00,1.46
5928.00,1.46
5927.00,1.46
5926.00,1.46
5925.00,1.45
5924.00,1.45
5923.00,1.45
5922.00,1.45
5921.00,1.44
5920.00,1.44
5919.00,1.44
5918.00,1.44
5917.00,1.44
5916.00,1.44
5915.00,1.44
5914.00,1.44
5913.00,1.43
5912.00,1.43
5911.00,1.43
5910.00,1.43
5909.00,1.43
5908.00,1.44
5907.00,1.44
5906.00,1.44
5905.00,1.44
5904.00,1.44
5903.00,1.44
5902.00,1.44
5901.00,1.44
5900.00,1.45
5899.00,1.45
5898.00,1.45
5897.00,1.45
5896.00,1.45
5895.00,1.45
5894.00,1.46
5893.00,1.46
5892.00,1.46
5891.00,1.46
5890.00,1.46
5889.00,1.46
5888.00,1.46
5887.00,1.47
5886.00,1.47
5885.00,1.47
5884.00,1.47
5883.00,1.47
5882.00,1.47
5881.00,1.47
5880.00,1.47
5879.00,1.47
5878.00,1.47
5877.00,1.47
5876.00,1.47
5875.00,1.47
5874.00,1.47
5873.00,1.48
5872.00,1.48
5871.00,1.48
5870.00,1.48
5869.00,1.48
5868.00,1.48
5867.00,1.48
5866.00,1.48
5865.00,1.48
5864.00,1.48
5863.00,1.48
5862.00,1.48
5861.00,1.48
5860.00,1.49
5859.00,1.49
5858.00,1.49
5857.00,1.49
5856.00,1.49
5855.00,1.49
5854.00,1.49
5853.00,1.49
5852.00,1.49
5851.00,1.50
5850.00,1.50
5849.00,1.50
5848.00,1.50
5847.00,1.50
5846.00,1.50
5845.00,1.50
5844.00,1.50
5843.00,1.51
5842.00,1.51
5841.00,1.51
5840.00,1.51
5839.00,1.51
5838.00,1.51
5837.00,1.51
5836.00,1.51
5835.00,1.51
5834.00,1.51
5833.00,1.51
5832.00,1.51
5831.00,1.51
5830.00,1.51
5829.00,1.51
5828.00,1.51
5827.00,1.51
5826.00,1.51
5825.00,1.51
5824.00,1.51
5823.00,1.51
5822.00,1.51
5821.00,1.51
5820.00,1.51
5819.00,1.51
5818.00,1.51
5817.00,1.51
5816.00,1.50
5815.00,1.50
5814.00,1.50
5813.00,1.50
5812.00,1.50
5811.00,1.50
5810.00,1.50
5809.00,1.50
5808.00,1.50
5807.00,1.49
5806.00,1.49
5805.00,1.49
5804.00,1.49
5803.00,1.49
5802.00,1.48
5801.00,1.48
5800.00,1.48
5799.00,1.48
5798.00,1.48
5797.00,1.47
5796.00,1.47
5795.00,1.47
5794.00,1.47
5793.00,1.47
5792.00,1.46
5791.00,1.46
5790.00,1.46
5789.00,1.46
5788.00,1.46
5787.00,1.46
5786.00,1.46
5785.00,1.46
5784.00,1.46
5783.00,1.46
5782.00,1.46
5781.00,1.46
5780.00,1.46
5779.00,1.46
5778.00,1.46
5777.00,1.46
5776.00,1.46
5775.00,1.46
5774.00,1.46
5773.00,1.46
5772.00,1.46
5771.00,1.47
5770.00,1.47
5769.00,1.47
5768.00,1.47
5767.00,1.47
5766.00,1.47
5765.00,1.47
5764.00,1.47
5763.00,1.47
5762.00,1.48
5761.00,1.48
5760.00,1.48
5759.00,1.48
5758.00,1.48
5757.00,1.48
5756.00,1.48
5755.00,1.48
5754.00,1.49
5753.00,1.49
5752.00,1.49
5751.00,1.49
5750.00,1.49
5749.00,1.49
5748.00,1.49
5747.00,1.49
5746.00,1.49
5745.00,1.49
5744.00,1.50
5743.00,1.50
5742.00,1.50
5741.00,1.50
5740.00,1.50
5739.00,1.50
5738.00,1.50
5737.00,1.50
5736.00,1.50
5735.00,1.50
5734.00,1.50
5733.00,1.50
5732.00,1.50
5731.00,1.50
5730.00,1.50
5729.00,1.50
5728.00,1.50
5727.00,1.50
5726.00,1.50
5725.00,1.50
5724.00,1.50
5723.00,1.50
5722.00,1.50
5721.00,1.50
5720.00,1.50
5719.00,1.50
5718.00,1.50
5717.00,1.50
5716.00,1.50
5715.00,1.50
5714.00,1.50
5713.00,1.50
5712.00,1.50
5711.00,1.50
5710.00,1.50
5709.00,1.50
5708.00,1.50
5707.00,1.49
5706.00,1.49
5705.00,1.49
5704.00,1.49
5703.00,1.49
5702.00,1.49
5701.00,1.49
5700.00,1.49
5699.00,1.49
5698.00,1.48
5697.00,1.48
5696.00,1.48
5695.00,1.48
5694.00,1.48
5693.00,1.48
5692.00,1.48
5691.00,1.47
5690.00,1.47
5689.00,1.47
5688.00,1.47
5687.00,1.47
5686.00,1.47
5685.00,1.47
5684.00,1.47
5683.00,1.47
5682.00,1.46
5681.00,1.46
5680.00,1.46
5679.00,1.46
5678.00,1.46
5677.00,1.46
5676.00,1.46
5675.00,1.46
5674.00,1.46
5673.00,1.46
5672.00,1.46
5671.00,1.46
5670.00,1.46
5669.00,1.46
5668.00,1.46
5667.00,1.46
5666.00,1.46
5665.00,1.47
5664.00,1.47
5663.00,1.47
5662.00,1.47
5661.00,1.47
5660.00,1.47
5659.00,1.47
5658.00,1.47
5657.00,1.47
5656.00,1.47
5655.00,1.47
5654.00,1.47
5653.00,1.47
5652.00,1.47
5651.00,1.47
5650.00,1.47
5649.00,1.47
5648.00,1.47
5647.00,1.47
5646.00,1.47
5645.00,1.47
5644.00,1.48
5643.00,1.48
5642.00,1.48
5641.00,1.48
5640.00,1.48
5639.00,1.48
5638.00,1.48
5637.00,1.48
5636.00,1.48
5635.00,1.48
5634.00,1.48
5633.00,1.48
5632.00,1.48
5631.00,1.48
5630.00,1.48
5629.00,1.49
5628.00,1.49
5627.00,1.49
5626.00,1.49
5625.00,1.49
5624.00,1.49
5623.00,1.49
5622.00,1.49
5621.00,1.49
5620.00,1.50
5619.00,1.50
5618.00,1.50
5617.00,1.50
5616.00,1.50
5615.00,1.50
5614.00,1.50
5613.00,1.50
5612.00,1.50
5611.00,1.50
5610.00,1.51
5609.00,1.51
5608.00,1.51
5607.00,1.51
5606.00,1.51
5605.00,1.51
5604.00,1.51
5603.00,1.51
5602.00,1.51
5601.00,1.51
5600.00,1.51
5599.00,1.51
5598.00,1.51
5597.00,1.52
5596.00,1.52
5595.00,1.52
5594.00,1.52
5593.00,1.52
5592.00,1.52
5591.00,1.52
5590.00,1.52
5589.00,1.52
5588.00,1.52
5587.00,1.52
5586.00,1.52
5585.00,1.53
5584.00,1.53
5583.00,1.53
5582.00,1.53
5581.00,1.53
5580.00,1.53
5579.00,1.53
5578.00,1.53
5577.00,1.53
5576.00,1.53
5575.00,1.53
5574.00,1.53
5573.00,1.53
5572.00,1.54
5571.00,1.54
5570.00,1.54
5569.00,1.54
5568.00,1.54
5567.00,1.54
5566.00,1.54
5565.00,1.54
5564.00,1.54
5563.00,1.54
5562.00,1.54
5561.00,1.54
5560.00,1.54
5559.00,1.54
5558.00,1.54
5557.00,1.54
5556.00,1.54
5555.00,1.54
5554.00,1.54
5553.00,1.54
5552.00,1.54
5551.00,1.54
5550.00,1.54
5549.00,1.54
5548.00,1.54
5547.00,1.54
5546.00,1.54
5545.00,1.54
5544.00,1.54
5543.00,1.54
5542.00,1.54
5541.00,1.54
5540.00,1.54
5539.00,1.54
5538.00,1.54
5537.00,1.54
5536.00,1.54
5535.00,1.54
5534.00,1.54
5533.00,1.54
5532.00,1.54
5531.00,1.54
5530.00,1.54
5529.00,1.54
5528.00,1.54
5527.00,1.54
5526.00,1.54
5525.00,1.54
5524.00,1.54
5523.00,1.54
5522.00,1.54
5521.00,1.54
5520.00,1.54
5519.00,1.54
5518.00,1.54
5517.00,1.54
5516.00,1.54
5515.00,1.54
5514.00,1.54
5513.00,1.54
5512.00,1.54
5511.00,1.54
5510.00,1.54
5509.00,1.54
5508.00,1.54
5507.00,1.54
5506.00,1.54
5505.00,1.54
5504.00,1.55
5503.00,1.55
5502.00,1.55
5501.00,1.55
5500.00,1.55
5499.00,1.55
5498.00,1.56
5497.00,1.56
5496.00,1.56
5495.00,1.56
5494.00,1.56
5493.00,1.57
5492.00,1.57
5491.00,1.57
5490.00,1.57
5489.00,1.57
5488.00,1.58
5487.00,1.58
5486.00,1.58
5485.00,1.59
5484.00,1.59
5483.00,1.59
5482.00,1.59
5481.00,1.60
5480.00,1.60
5479.00,1.60
5478.00,1.60
5477.00,1.61
5476.00,1.61
5475.00,1.61
5474.00,1.61
5473.00,1.61
5472.00,1.62
5471.00,1.62
5470.00,1.62
5469.00,1.62
5468.00,1.62
5467.00,1.62
5466.00,1.62
5465.00,1.62
5464.00,1.63
5463.00,1.63
5462.00,1.63
5461.00,1.63
5460.00,1.63
5459.00,1.63
5458.00,1.63
5457.00,1.63
5456.00,1.63
5455.00,1.62
5454.00,1.62
5453.00,1.62
5452.00,1.62
5451.00,1.62
5450.00,1.62
5449.00,1.62
5448.00,1.62
5447.00,1.61
5446.00,1.61
5445.00,1.61
5444.00,1.61
5443.00,1.61
5442.00,1.61
5441.00,1.61
5440.00,1.60
5439.00,1.60
5438.00,1.60
5437.00,1.60
5436.00,1.60
5435.00,1.60
5434.00,1.60
5433.00,1.60
5432.00,1.60
5431.00,1.60
5430.00,1.60
5429.00,1.60
5428.00,1.60
5427.00,1.60
5426.00,1.60
5425.00,1.60
5424.00,1.60
5423.00,1.60
5422.00,1.60
5421.00,1.60
5420.00,1.61
5419.00,1.61
5418.00,1.61
5417.00,1.61
5416.00,1.61
5415.00,1.61
5414.00,1.61
5413.00,1.61
5412.00,1.61
5411.00,1.61
5410.00,1.61
5409.00,1.61
5408.00,1.61
5407.00,1.61
5406.00,1.61
5405.00,1.61
5404.00,1.61
5403.00,1.61
5402.00,1.61
5401.00,1.60
5400.00,1.60
5399.00,1.60
5398.00,1.60
5397.00,1.60
5396.00,1.60
5395.00,1.60
5394.00,1.60
5393.00,1.60
5392.00,1.59
5391.00,1.59
5390.00,1.59
5389.00,1.59
5388.00,1.58
5387.00,1.58
5386.00,1.58
5385.00,1.57
5384.00,1.57
5383.00,1.57
5382.00,1.56
5381.00,1.56
5380.00,1.56
5379.00,1.55
5378.00,1.55
5377.00,1.54
5376.00,1.54
5375.00,1.53
5374.00,1.53
5373.00,1.53
5372.00,1.52
5371.00,1.52
5370.00,1.51
5369.00,1.50
5368.00,1.50
5367.00,1.49
5366.00,1.49
5365.00,1.48
5364.00,1.48
5363.00,1.47
5362.00,1.46
5361.00,1.46
5360.00,1.45
5359.00,1.45
5358.00,1.44
5357.00,1.44
5356.00,1.43
5355.00,1.42
5354.00,1.42
5353.00,1.41
5352.00,1.40
5351.00,1.39
5350.00,1.39
5349.00,1.38
5348.00,1.37
5347.00,1.36
5346.00,1.35
5345.00,1.34
5344.00,1.33
5343.00,1.32
5342.00,1.32
5341.00,1.31
5340.00,1.30
5339.00,1.29
5338.00,1.28
5337.00,1.27
5336.00,1.26
5335.00,1.25
5334.00,1.24
5333.00,1.23
5332.00,1.21
5331.00,1.20
5330.00,1.19
5329.00,1.18
5328.00,1.17
5327.00,1.16
5326.00,1.15
5325.00,1.13
5324.00,1.12
5323.00,1.11
5322.00,1.10
5321.00,1.09
5320.00,1.08
5319.00,1.07
5318.00,1.06
5317.00,1.04
5316.00,1.03
5315.00,1.02
5314.00,1.01
5313.00,1.00
5312.00,0.99
5311.00,0.98
5310.00,0.97
5309.00,0.96
5308.00,0.94
5307.00,0.93
5306.00,0.92
5305.00,0.91
5304.00,0.90
5303.00,0.89
5302.00,0.88
5301.00,0.88
5300.00,0.87
5299.00,0.86
5298.00,0.85
5297.00,0.84
5296.00,0.83
5295.00,0.82
5294.00,0.82
5293.00,0.81
5292.00,0.80
5291.00,0.79
5290.00,0.78
5289.00,0.78
5288.00,0.77
5287.00,0.76
5286.00,0.75
5285.00,0.75
5284.00,0.74
5283.00,0.73
5282.00,0.72
5281.00,0.72
5280.00,0.71
5279.00,0.71
5278.00,0.70
5277.00,0.69
5276.00,0.69
5275.00,0.68
5274.00,0.68
5273.00,0.67
5272.00,0.67
5271.00,0.66
5270.00,0.66
5269.00,0.66
5268.00,0.65
5267.00,0.65
5266.00,0.65
5265.00,0.64
5264.00,0.64
5263.00,0.64
5262.00,0.64
5261.00,0.63
5260.00,0.63
5259.00,0.63
5258.00,0.63
5257.00,0.63
5256.00,0.63
5255.00,0.63
5254.00,0.63
5253.00,0.63
5252.00,0.63
5251.00,0.63
5250.00,0.63
5249.00,0.63
5248.00,0.63
5247.00,0.63
5246.00,0.62
5245.00,0.62
5244.00,0.62
5243.00,0.62
5242.00,0.62
5241.00,0.62
5240.00,0.62
5239.00,0.62
5238.00,0.62
5237.00,0.62
5236.00,0.62
5235.00,0.62
5234.00,0.62
5233.00,0.61
5232.00,0.61
5231.00,0.61
5230.00,0.61
5229.00,0.61
5228.00,0.61
5227.00,0.61
5226.00,0.60
5225.00,0.60
5224.00,0.60
5223.00,0.60
5222.00,0.60
5221.00,0.60
5220.00,0.60
5219.00,0.60
5218.00,0.59
5217.00,0.59
5216.00,0.59
5215.00,0.59
5214.00,0.59
5213.00,0.59
5212.00,0.59
5211.00,0.59
5210.00,0.59
5209.00,0.59
5208.00,0.58
5207.00,0.58
5206.00,0.58
5205.00,0.58
5204.00,0.58
5203.00,0.58
5202.00,0.58
5201.00,0.57
5200.00,0.57
5199.00,0.57
5198.00,0.57
5197.00,0.57
5196.00,0.57
5195.00,0.56
5194.00,0.56
5193.00,0.56
5192.00,0.56
5191.00,0.56
5190.00,0.56
5189.00,0.56
5188.00,0.56
5187.00,0.56
5186.00,0.56
5185.00,0.56
5184.00,0.56
5183.00,0.56
5182.00,0.56
5181.00,0.56
5180.00,0.56
5179.00,0.56
5178.00,0.56
5177.00,0.56
5176.00,0.57
5175.00,0.57
5174.00,0.57
5173.00,0.57
5172.00,0.57
5171.00,0.58
5170.00,0.58
5169.00,0.58
5168.00,0.58
5167.00,0.59
5166.00,0.59
5165.00,0.59
5164.00,0.59
5163.00,0.59
5162.00,0.60
5161.00,0.60
5160.00,0.60
5159.00,0.60
5158.00,0.60
5157.00,0.60
5156.00,0.61
5155.00,0.61
5154.00,0.61
5153.00,0.61
5152.00,0.61
5151.00,0.61
5150.00,0.61
5149.00,0.61
5148.00,0.62
5147.00,0.62
5146.00,0.62
5145.00,0.62
5144.00,0.62
5143.00,0.62
5142.00,0.62
5141.00,0.62
5140.00,0.62
5139.00,0.62
5138.00,0.62
5137.00,0.62
5136.00,0.62
5135.00,0.62
5134.00,0.62
5133.00,0.62
5132.00,0.62
5131.00,0.62
5130.00,0.62
5129.00,0.62
5128.00,0.62
5127.00,0.62
5126.00,0.62
5125.00,0.62
5124.00,0.62
5123.00,0.62
5122.00,0.62
5121.00,0.62
5120.00,0.62
5119.00,0.62
5118.00,0.62
5117.00,0.62
5116.00,0.62
5115.00,0.62
5114.00,0.63
5113.00,0.63
5112.00,0.63
5111.00,0.63
5110.00,0.63
5109.00,0.63
5108.00,0.64
5107.00,0.64
5106.00,0.64
5105.00,0.64
5104.00,0.64
5103.00,0.65
5102.00,0.65
5101.00,0.65
5100.00,0.65
5099.00,0.65
5098.00,0.66
5097.00,0.66
5096.00,0.66
5095.00,0.66
5094.00,0.66
5093.00,0.66
5092.00,0.67
5091.00,0.67
5090.00,0.67
5089.00,0.67
5088.00,0.67
5087.00,0.67
5086.00,0.67
5085.00,0.67
5084.00,0.67
5083.00,0.67
5082.00,0.67
5081.00,0.67
5080.00,0.67
5079.00,0.67
5078.00,0.67
5077.00,0.67
5076.00,0.67
5075.00,0.67
5074.00,0.67
5073.00,0.67
5072.00,0.67
5071.00,0.67
5070.00,0.67
5069.00,0.67
5068.00,0.67
5067.00,0.67
5066.00,0.67
5065.00,0.67
5064.00,0.67
5063.00,0.67
5062.00,0.67
5061.00,0.67
5060.00,0.67
5059.00,0.67
5058.00,0.67
5057.00,0.67
5056.00,0.68
5055.00,0.68
5054.00,0.68
5053.00,0.68
5052.00,0.68
5051.00,0.68
5050.00,0.68
5049.00,0.68
5048.00,0.68
5047.00,0.68
5046.00,0.69
5045.00,0.69
5044.00,0.69
5043.00,0.69
5042.00,0.70
5041.00,0.70
5040.00,0.70
5039.00,0.70
5038.00,0.70
5037.00,0.71
5036.00,0.71
5035.00,0.71
5034.00,0.71
5033.00,0.71
5032.00,0.71
5031.00,0.71
5030.00,0.72
5029.00,0.72
5028.00,0.72
5027.00,0.72
5026.00,0.72
5025.00,0.72
5024.00,0.72
5023.00,0.72
5022.00,0.72
5021.00,0.72
5020.00,0.72
5019.00,0.72
5018.00,0.72
5017.00,0.72
5016.00,0.72
5015.00,0.72
5014.00,0.72
5013.00,0.72
5012.00,0.72
5011.00,0.72
5010.00,0.72
5009.00,0.72
5008.00,0.72
5007.00,0.72
5006.00,0.73
5005.00,0.73
5004.00,0.73
5003.00,0.73
5002.00,0.73
5001.00,0.73
5000.00,0.74
4999.00,0.74
4998.00,0.74
4997.00,0.74
4996.00,0.75
4995.00,0.75
4994.00,0.75
4993.00,0.76
4992.00,0.76
4991.00,0.76
4990.00,0.77
4989.00,0.77
4988.00,0.77
4987.00,0.78
4986.00,0.78
4985.00,0.78
4984.00,0.79
4983.00,0.79
4982.00,0.79
4981.00,0.79
4980.00,0.80
4979.00,0.80
4978.00,0.80
4977.00,0.81
4976.00,0.81
4975.00,0.81
4974.00,0.81
4973.00,0.81
4972.00,0.81
4971.00,0.81
4970.00,0.81
4969.00,0.81
4968.00,0.82
4967.00,0.82
4966.00,0.82
4965.00,0.82
4964.00,0.82
4963.00,0.82
4962.00,0.82
4961.00,0.82
4960.00,0.82
4959.00,0.82
4958.00,0.82
4957.00,0.82
4956.00,0.82
4955.00,0.82
4954.00,0.82
4953.00,0.82
4952.00,0.82
4951.00,0.82
4950.00,0.82
4949.00,0.82
4948.00,0.83
4947.00,0.83
4946.00,0.83
4945.00,0.83
4944.00,0.83
4943.00,0.83
4942.00,0.84
4941.00,0.84
4940.00,0.84
4939.00,0.84
4938.00,0.84
4937.00,0.85
4936.00,0.85
4935.00,0.85
4934.00,0.85
4933.00,0.86
4932.00,0.86
4931.00,0.86
4930.00,0.87
4929.00,0.87
4928.00,0.87
4927.00,0.88
4926.00,0.88
4925.00,0.88
4924.00,0.88
4923.00,0.89
4922.00,0.89
4921.00,0.89
4920.00,0.89
4919.00,0.90
4918.00,0.90
4917.00,0.90
4916.00,0.90
4915.00,0.91
4914.00,0.91
4913.00,0.91
4912.00,0.92
4911.00,0.92
4910.00,0.92
4909.00,0.93
4908.00,0.93
4907.00,0.93
4906.00,0.93
4905.00,0.94
4904.00,0.94
4903.00,0.94
4902.00,0.94
4901.00,0.95
4900.00,0.95
4899.00,0.95
4898.00,0.95
4897.00,0.96
4896.00,0.96
4895.00,0.96
4894.00,0.97
4893.00,0.97
4892.00,0.97
4891.00,0.97
4890.00,0.98
4889.00,0.98
4888.00,0.98
4887.00,0.98
4886.00,0.98
4885.00,0.98
4884.00,0.98
4883.00,0.98
4882.00,0.98
4881.00,0.98
4880.00,0.98
4879.00,0.98
4878.00,0.98
4877.00,0.98
4876.00,0.98
4875.00,0.98
4874.00,0.99
4873.00,0.99
4872.00,0.99
4871.00,0.99
4870.00,0.99
4869.00,0.99
4868.00,0.99
4867.00,0.99
4866.00,0.99
4865.00,0.99
4864.00,0.99
4863.00,0.99
4862.00,0.99
4861.00,0.99
4860.00,0.99
4859.00,0.99
4858.00,1.00
4857.00,1.00
4856.00,1.00
4855.00,1.00
4854.00,1.00
4853.00,1.01
4852.00,1.01
4851.00,1.01
4850.00,1.02
4849.00,1.02
4848.00,1.02
4847.00,1.03
4846.00,1.03
4845.00,1.03
4844.00,1.04
4843.00,1.04
4842.00,1.05
4841.00,1.05
4840.00,1.05
4839.00,1.06
4838.00,1.06
4837.00,1.07
4836.00,1.07
4835.00,1.07
4834.00,1.07
4833.00,1.08
4832.00,1.08
4831.00,1.08
4830.00,1.08
4829.00,1.09
4828.00,1.09
4827.00,1.09
4826.00,1.09
4825.00,1.09
4824.00,1.10
4823.00,1.10
4822.00,1.10
4821.00,1.10
4820.00,1.10
4819.00,1.10
4818.00,1.10
4817.00,1.10
4816.00,1.10
4815.00,1.10
4814.00,1.10
4813.00,1.10
4812.00,1.10
4811.00,1.10
4810.00,1.10
4809.00,1.11
4808.00,1.11
4807.00,1.11
4806.00,1.11
4805.00,1.11
4804.00,1.11
4803.00,1.11
4802.00,1.11
4801.00,1.11
4800.00,1.11
4799.00,1.11
4798.00,1.11
4797.00,1.11
4796.00,1.11
4795.00,1.11
4794.00,1.11
4793.00,1.11
4792.00,1.11
4791.00,1.11
4790.00,1.11
4789.00,1.11
4788.00,1.11
4787.00,1.12
4786.00,1.12
4785.00,1.12
4784.00,1.12
4783.00,1.12
4782.00,1.12
4781.00,1.12
4780.00,1.13
4779.00,1.13
4778.00,1.13
4777.00,1.13
4776.00,1.13
4775.00,1.14
4774.00,1.14
4773.00,1.14
4772.00,1.14
4771.00,1.15
4770.00,1.15
4769.00,1.15
4768.00,1.16
4767.00,1.16
4766.00,1.16
4765.00,1.16
4764.00,1.17
4763.00,1.17
4762.00,1.17
4761.00,1.18
4760.00,1.18
4759.00,1.18
4758.00,1.18
4757.00,1.19
4756.00,1.19
4755.00,1.19
4754.00,1.20
4753.00,1.20
4752.00,1.21
4751.00,1.21
4750.00,1.21
4749.00,1.22
4748.00,1.22
4747.00,1.22
4746.00,1.23
4745.00,1.23
4744.00,1.23
4743.00,1.23
4742.00,1.24
4741.00,1.24
4740.00,1.24
4739.00,1.24
4738.00,1.25
4737.00,1.25
4736.00,1.25
4735.00,1.25
4734.00,1.26
4733.00,1.26
4732.00,1.26
4731.00,1.26
4730.00,1.27
4729.00,1.27
4728.00,1.27
4727.00,1.27
4726.00,1.28
4725.00,1.28
4724.00,1.28
4723.00,1.29
4722.00,1.29
4721.00,1.29
4720.00,1.29
4719.00,1.30
4718.00,1.30
4717.00,1.31
4716.00,1.31
4715.00,1.32
4714.00,1.32
4713.00,1.32
4712.00,1.33
4711.00,1.33
4710.00,1.34
4709.00,1.34
4708.00,1.35
4707.00,1.35
4706.00,1.35
4705.00,1.36
4704.00,1.36
4703.00,1.37
4702.00,1.37
4701.00,1.37
4700.00,1.37
4699.00,1.38
4698.00,1.38
4697.00,1.38
4696.00,1.38
4695.00,1.38
4694.00,1.39
4693.00,1.39
4692.00,1.39
4691.00,1.39
4690.00,1.39
4689.00,1.40
4688.00,1.40
4687.00,1.40
4686.00,1.40
4685.00,1.40
4684.00,1.40
4683.00,1.41
4682.00,1.41
4681.00,1.41
4680.00,1.41
4679.00,1.41
4678.00,1.42
4677.00,1.42
4676.00,1.42
4675.00,1.43
4674.00,1.43
4673.00,1.43
4672.00,1.44
4671.00,1.44
4670.00,1.44
4669.00,1.45
4668.00,1.45
4667.00,1.45
4666.00,1.45
4665.00,1.46
4664.00,1.46
4663.00,1.46
4662.00,1.47
4661.00,1.47
4660.00,1.47
4659.00,1.47
4658.00,1.48
4657.00,1.48
4656.00,1.48
4655.00,1.49
4654.00,1.49
4653.00,1.49
4652.00,1.49
4651.00,1.50
4650.00,1.50
4649.00,1.50
4648.00,1.50
4647.00,1.50
4646.00,1.51
4645.00,1.51
4644.00,1.51
4643.00,1.51
4642.00,1.52
4641.00,1.52
4640.00,1.52
4639.00,1.52
4638.00,1.53
4637.00,1.53
4636.00,1.53
4635.00,1.53
4634.00,1.53
4633.00,1.54
4632.00,1.54
4631.00,1.54
4630.00,1.54
4629.00,1.54
4628.00,1.54
4627.00,1.54
4626.00,1.54
4625.00,1.54
4624.00,1.53
4623.00,1.53
4622.00,1.53
4621.00,1.53
4620.00,1.53
4619.00,1.53
4618.00,1.53
4617.00,1.53
4616.00,1.53
4615.00,1.53
4614.00,1.53
4613.00,1.53
4612.00,1.53
4611.00,1.53
4610.00,1.53
4609.00,1.53
4608.00,1.53
4607.00,1.53
4606.00,1.53
4605.00,1.54
4604.00,1.54
4603.00,1.54
4602.00,1.54
4601.00,1.54
4600.00,1.54
4599.00,1.54
4598.00,1.55
4597.00,1.55
4596.00,1.55
4595.00,1.55
4594.00,1.55
4593.00,1.55
4592.00,1.55
4591.00,1.55
4590.00,1.55
4589.00,1.55
4588.00,1.55
4587.00,1.55
4586.00,1.55
4585.00,1.55
4584.00,1.55
4583.00,1.55
4582.00,1.55
4581.00,1.55
4580.00,1.54
4579.00,1.54
4578.00,1.54
4577.00,1.54
4576.00,1.54
4575.00,1.54
4574.00,1.54
4573.00,1.54
4572.00,1.54
4571.00,1.54
4570.00,1.54
4569.00,1.54
4568.00,1.55
4567.00,1.55
4566.00,1.55
4565.00,1.55
4564.00,1.55
4563.00,1.55
4562.00,1.56
4561.00,1.56
4560.00,1.56
4559.00,1.57
4558.00,1.57
4557.00,1.57
4556.00,1.58
4555.00,1.58
4554.00,1.58
4553.00,1.59
4552.00,1.59
4551.00,1.59
4550.00,1.59
4549.00,1.60
4548.00,1.60
4547.00,1.60
4546.00,1.60
4545.00,1.61
4544.00,1.61
4543.00,1.61
4542.00,1.61
4541.00,1.61
4540.00,1.61
4539.00,1.61
4538.00,1.61
4537.00,1.61
4536.00,1.61
4535.00,1.61
4534.00,1.61
4533.00,1.60
4532.00,1.60
4531.00,1.60
4530.00,1.60
4529.00,1.60
4528.00,1.59
4527.00,1.59
4526.00,1.59
4525.00,1.58
4524.00,1.58
4523.00,1.58
4522.00,1.58
4521.00,1.58
4520.00,1.57
4519.00,1.57
4518.00,1.57
4517.00,1.57
4516.00,1.57
4515.00,1.57
4514.00,1.57
4513.00,1.57
4512.00,1.57
4511.00,1.57
4510.00,1.57
4509.00,1.57
4508.00,1.57
4507.00,1.57
4506.00,1.57
4505.00,1.57
4504.00,1.57
4503.00,1.58
4502.00,1.58
4501.00,1.58
4500.00,1.58
4499.00,1.58
4498.00,1.59
4497.00,1.59
4496.00,1.59
4495.00,1.59
4494.00,1.59
4493.00,1.59
4492.00,1.59
4491.00,1.59
4490.00,1.59
4489.00,1.59
4488.00,1.59
4487.00,1.59
4486.00,1.59
4485.00,1.59
4484.00,1.59
4483.00,1.59
4482.00,1.59
4481.00,1.59
4480.00,1.59
4479.00,1.59
4478.00,1.59
4477.00,1.59
4476.00,1.59
4475.00,1.59
4474.00,1.59
4473.00,1.59
4472.00,1.58
4471.00,1.58
4470.00,1.58
4469.00,1.58
4468.00,1.58
4467.00,1.58
4466.00,1.57
4465.00,1.57
4464.00,1.57
4463.00,1.57
4462.00,1.57
4461.00,1.56
4460.00,1.56
4459.00,1.56
4458.00,1.56
4457.00,1.55
4456.00,1.55
4455.00,1.54
4454.00,1.54
4453.00,1.53
4452.00,1.53
4451.00,1.52
4450.00,1.51
4449.00,1.51
4448.00,1.50
4447.00,1.49
4446.00,1.48
4445.00,1.47
4444.00,1.46
4443.00,1.45
4442.00,1.44
4441.00,1.43
4440.00,1.42
4439.00,1.41
4438.00,1.40
4437.00,1.39
4436.00,1.38
4435.00,1.37
4434.00,1.35
4433.00,1.34
4432.00,1.33
4431.00,1.32
4430.00,1.31
4429.00,1.30
4428.00,1.29
4427.00,1.28
4426.00,1.28
4425.00,1.27
4424.00,1.26
4423.00,1.25
4422.00,1.24
4421.00,1.24
4420.00,1.23
4419.00,1.23
4418.00,1.22
4417.00,1.22
4416.00,1.21
4415.00,1.21
4414.00,1.21
4413.00,1.21
4412.00,1.21
4411.00,1.21
4410.00,1.21
4409.00,1.20
4408.00,1.20
4407.00,1.20
4406.00,1.20
4405.00,1.20
4404.00,1.21
4403.00,1.21
4402.00,1.21
4401.00,1.21
4400.00,1.21
4399.00,1.21
4398.00,1.22
4397.00,1.22
4396.00,1.22
4395.00,1.23
4394.00,1.23
4393.00,1.23
4392.00,1.24
4391.00,1.24
4390.00,1.24
4389.00,1.25
4388.00,1.25
4387.00,1.25
4386.00,1.26
4385.00,1.26
4384.00,1.26
4383.00,1.26
4382.00,1.27
4381.00,1.27
4380.00,1.27
4379.00,1.27
4378.00,1.28
4377.00,1.28
4376.00,1.28
4375.00,1.28
4374.00,1.28
4373.00,1.29
4372.00,1.29
4371.00,1.29
4370.00,1.29
4369.00,1.29
4368.00,1.29
4367.00,1.29
4366.00,1.29
4365.00,1.29
4364.00,1.29
4363.00,1.29
4362.00,1.29
4361.00,1.28
4360.00,1.28
4359.00,1.28
4358.00,1.28
4357.00,1.28
4356.00,1.28
4355.00,1.27
4354.00,1.27
4353.00,1.27
4352.00,1.27
4351.00,1.26
4350.00,1.26
4349.00,1.26
4348.00,1.26
4347.00,1.25
4346.00,1.25
4345.00,1.25
4344.00,1.24
4343.00,1.24
4342.00,1.23
4341.00,1.23
4340.00,1.23
4339.00,1.23
4338.00,1.23
4337.00,1.23
4336.00,1.23
4335.00,1.23
4334.00,1.23
4333.00,1.23
4332.00,1.23
4331.00,1.23
4330.00,1.23
4329.00,1.24
4328.00,1.24
4327.00,1.24
4326.00,1.25
4325.00,1.25
4324.00,1.25
4323.00,1.26
4322.00,1.26
4321.00,1.27
4320.00,1.27
4319.00,1.28
4318.00,1.28
4317.00,1.29
4316.00,1.30
4315.00,1.30
4314.00,1.31
4313.00,1.31
4312.00,1.32
4311.00,1.32
4310.00,1.32
4309.00,1.33
4308.00,1.33
4307.00,1.34
4306.00,1.34
4305.00,1.35
4304.00,1.35
4303.00,1.35
4302.00,1.36
4301.00,1.36
4300.00,1.36
4299.00,1.37
4298.00,1.37
4297.00,1.37
4296.00,1.38
4295.00,1.38
4294.00,1.38
4293.00,1.39
4292.00,1.39
4291.00,1.39
4290.00,1.39
4289.00,1.39
4288.00,1.39
4287.00,1.39
4286.00,1.40
4285.00,1.40
4284.00,1.40
4283.00,1.40
4282.00,1.40
4281.00,1.40
4280.00,1.40
4279.00,1.40
4278.00,1.40
4277.00,1.40
4276.00,1.40
4275.00,1.40
4274.00,1.40
4273.00,1.40
4272.00,1.40
4271.00,1.40
4270.00,1.39
4269.00,1.39
4268.00,1.39
4267.00,1.39
4266.00,1.38
4265.00,1.38
4264.00,1.38
4263.00,1.38
4262.00,1.37
4261.00,1.37
4260.00,1.37
4259.00,1.37
4258.00,1.36
4257.00,1.36
4256.00,1.36
4255.00,1.36
4254.00,1.35
4253.00,1.35
4252.00,1.35
4251.00,1.34
4250.00,1.34
4249.00,1.34
4248.00,1.34
4247.00,1.33
4246.00,1.33
4245.00,1.33
4244.00,1.33
4243.00,1.33
4242.00,1.33
4241.00,1.33
4240.00,1.33
4239.00,1.33
4238.00,1.33
4237.00,1.33
4236.00,1.33
4235.00,1.33
4234.00,1.33
4233.00,1.34
4232.00,1.34
4231.00,1.34
4230.00,1.34
4229.00,1.34
4228.00,1.34
4227.00,1.34
4226.00,1.34
4225.00,1.35
4224.00,1.35
4223.00,1.35
4222.00,1.35
4221.00,1.35
4220.00,1.36
4219.00,1.36
4218.00,1.36
4217.00,1.36
4216.00,1.36
4215.00,1.36
4214.00,1.36
4213.00,1.36
4212.00,1.36
4211.00,1.36
4210.00,1.35
4209.00,1.35
4208.00,1.35
4207.00,1.35
4206.00,1.35
4205.00,1.35
4204.00,1.35
4203.00,1.35
4202.00,1.35
4201.00,1.35
4200.00,1.35
4199.00,1.35
4198.00,1.35
4197.00,1.34
4196.00,1.34
4195.00,1.34
4194.00,1.34
4193.00,1.33
4192.00,1.33
4191.00,1.33
4190.00,1.32
4189.00,1.32
4188.00,1.32
4187.00,1.32
4186.00,1.31
4185.00,1.31
4184.00,1.31
4183.00,1.30
4182.00,1.30
4181.00,1.30
4180.00,1.29
4179.00,1.29
4178.00,1.29
4177.00,1.28
4176.00,1.28
4175.00,1.27
4174.00,1.27
4173.00,1.26
4172.00,1.26
4171.00,1.25
4170.00,1.25
4169.00,1.24
4168.00,1.24
4167.00,1.24
4166.00,1.23
4165.00,1.23
4164.00,1.23
4163.00,1.23
4162.00,1.23
4161.00,1.23
4160.00,1.23
4159.00,1.23
4158.00,1.23
4157.00,1.23
4156.00,1.23
4155.00,1.23
4154.00,1.23
4153.00,1.23
4152.00,1.23
4151.00,1.24
4150.00,1.24
4149.00,1.24
4148.00,1.25
4147.00,1.25
4146.00,1.25
4145.00,1.25
4144.00,1.26
4143.00,1.26
4142.00,1.26
4141.00,1.27
4140.00,1.27
4139.00,1.27
4138.00,1.27
4137.00,1.27
4136.00,1.27
4135.00,1.27
4134.00,1.27
4133.00,1.27
4132.00,1.27
4131.00,1.27
4130.00,1.27
4129.00,1.27
4128.00,1.27
4127.00,1.27
4126.00,1.26
4125.00,1.26
4124.00,1.26
4123.00,1.26
4122.00,1.25
4121.00,1.25
4120.00,1.25
4119.00,1.25
4118.00,1.25
4117.00,1.24
4116.00,1.24
4115.00,1.24
4114.00,1.24
4113.00,1.24
4112.00,1.24
4111.00,1.24
4110.00,1.24
4109.00,1.24
4108.00,1.25
4107.00,1.25
4106.00,1.25
4105.00,1.26
4104.00,1.26
4103.00,1.27
4102.00,1.27
4101.00,1.27
4100.00,1.28
4099.00,1.28
4098.00,1.29
4097.00,1.29
4096.00,1.30
4095.00,1.30
4094.00,1.30
4093.00,1.31
4092.00,1.31
4091.00,1.31
4090.00,1.31
4089.00,1.31
4088.00,1.32
4087.00,1.32
4086.00,1.32
4085.00,1.32
4084.00,1.32
4083.00,1.32
4082.00,1.32
4081.00,1.32
4080.00,1.31
4079.00,1.31
4078.00,1.31
4077.00,1.31
4076.00,1.30
4075.00,1.30
4074.00,1.30
4073.00,1.29
4072.00,1.29
4071.00,1.29
4070.00,1.29
4069.00,1.29
4068.00,1.29
4067.00,1.29
4066.00,1.29
4065.00,1.29
4064.00,1.29
4063.00,1.29
4062.00,1.29
4061.00,1.29
4060.00,1.29
4059.00,1.29
4058.00,1.29
4057.00,1.29
4056.00,1.29
4055.00,1.30
4054.00,1.30
4053.00,1.30
4052.00,1.30
4051.00,1.30
4050.00,1.31
4049.00,1.31
4048.00,1.31
4047.00,1.31
4046.00,1.31
4045.00,1.31
4044.00,1.31
4043.00,1.31
4042.00,1.32
4041.00,1.32
4040.00,1.32
4039.00,1.32
4038.00,1.33
4037.00,1.33
4036.00,1.34
4035.00,1.34
4034.00,1.34
4033.00,1.35
4032.00,1.35
4031.00,1.36
4030.00,1.36
4029.00,1.36
4028.00,1.36
4027.00,1.36
4026.00,1.36
4025.00,1.36
4024.00,1.36
4023.00,1.35
4022.00,1.35
4021.00,1.35
4020.00,1.34
4019.00,1.34
4018.00,1.33
4017.00,1.33
4016.00,1.32
4015.00,1.30
4014.00,1.29
4013.00,1.27
4012.00,1.24
4011.00,1.22
4010.00,1.19
4009.00,1.16
4008.00,1.13
4007.00,1.09
4006.00,1.06
4005.00,1.02
4004.00,0.99
4003.00,0.95
4002.00,0.92
4001.00,0.89
4000.00,0.85
