创建为新数据集,样品 365 用户 Administrator 日期 星期日, 七月 28 2019
cm-1,%T
10000.00,1.85
9999.00,1.85
9998.00,1.85
9997.00,1.85
9996.00,1.85
9995.00,1.85
9994.00,1.85
9993.00,1.85
9992.00,1.85
9991.00,1.85
9990.00,1.85
9989.00,1.85
9988.00,1.85
9987.00,1.84
9986.00,1.84
9985.00,1.84
9984.00,1.84
9983.00,1.84
9982.00,1.84
9981.00,1.84
9980.00,1.83
9979.00,1.83
9978.00,1.83
9977.00,1.83
9976.00,1.82
9975.00,1.82
9974.00,1.82
9973.00,1.82
9972.00,1.82
9971.00,1.82
9970.00,1.82
9969.00,1.82
9968.00,1.82
9967.00,1.82
9966.00,1.82
9965.00,1.81
9964.00,1.81
9963.00,1.81
9962.00,1.81
9961.00,1.80
9960.00,1.80
9959.00,1.80
9958.00,1.79
9957.00,1.79
9956.00,1.79
9955.00,1.78
9954.00,1.78
9953.00,1.77
9952.00,1.76
9951.00,1.75
9950.00,1.74
9949.00,1.73
9948.00,1.72
9947.00,1.71
9946.00,1.69
9945.00,1.68
9944.00,1.66
9943.00,1.65
9942.00,1.63
9941.00,1.62
9940.00,1.60
9939.00,1.59
9938.00,1.57
9937.00,1.56
9936.00,1.54
9935.00,1.53
9934.00,1.52
9933.00,1.50
9932.00,1.49
9931.00,1.48
9930.00,1.46
9929.00,1.45
9928.00,1.44
9927.00,1.44
9926.00,1.43
9925.00,1.43
9924.00,1.43
9923.00,1.43
9922.00,1.43
9921.00,1.43
9920.00,1.43
9919.00,1.44
9918.00,1.44
9917.00,1.45
9916.00,1.45
9915.00,1.46
9914.00,1.46
9913.00,1.47
9912.00,1.47
9911.00,1.48
9910.00,1.48
9909.00,1.49
9908.00,1.49
9907.00,1.50
9906.00,1.51
9905.00,1.52
9904.00,1.52
9903.00,1.53
9902.00,1.54
9901.00,1.55
9900.00,1.56
9899.00,1.56
9898.00,1.57
9897.00,1.57
9896.00,1.58
9895.00,1.58
9894.00,1.58
9893.00,1.59
9892.00,1.59
9891.00,1.59
9890.00,1.59
9889.00,1.59
9888.00,1.59
9887.00,1.59
9886.00,1.60
9885.00,1.60
9884.00,1.60
9883.00,1.60
9882.00,1.59
9881.00,1.59
9880.00,1.59
9879.00,1.58
9878.00,1.58
9877.00,1.57
9876.00,1.56
9875.00,1.55
9874.00,1.54
9873.00,1.53
9872.00,1.53
9871.00,1.52
9870.00,1.51
9869.00,1.50
9868.00,1.49
9867.00,1.49
9866.00,1.48
9865.00,1.47
9864.00,1.47
9863.00,1.46
9862.00,1.46
9861.00,1.46
9860.00,1.45
9859.00,1.45
9858.00,1.45
9857.00,1.45
9856.00,1.45
9855.00,1.46
9854.00,1.46
9853.00,1.46
9852.00,1.46
9851.00,1.47
9850.00,1.47
9849.00,1.47
9848.00,1.48
9847.00,1.48
9846.00,1.49
9845.00,1.49
9844.00,1.50
9843.00,1.50
9842.00,1.51
9841.00,1.51
9840.00,1.52
9839.00,1.52
9838.00,1.52
9837.00,1.52
9836.00,1.53
9835.00,1.53
9834.00,1.53
9833.00,1.52
9832.00,1.52
9831.00,1.52
9830.00,1.52
9829.00,1.51
9828.00,1.51
9827.00,1.51
9826.00,1.50
9825.00,1.50
9824.00,1.50
9823.00,1.50
9822.00,1.50
9821.00,1.50
9820.00,1.50
9819.00,1.50
9818.00,1.50
9817.00,1.50
9816.00,1.50
9815.00,1.51
9814.00,1.51
9813.00,1.51
9812.00,1.52
9811.00,1.52
9810.00,1.53
9809.00,1.54
9808.00,1.55
9807.00,1.56
9806.00,1.57
9805.00,1.58
9804.00,1.59
9803.00,1.60
9802.00,1.61
9801.00,1.62
9800.00,1.64
9799.00,1.65
9798.00,1.66
9797.00,1.66
9796.00,1.67
9795.00,1.68
9794.00,1.68
9793.00,1.69
9792.00,1.69
9791.00,1.69
9790.00,1.69
9789.00,1.69
9788.00,1.69
9787.00,1.69
9786.00,1.68
9785.00,1.67
9784.00,1.67
9783.00,1.66
9782.00,1.65
9781.00,1.64
9780.00,1.62
9779.00,1.61
9778.00,1.60
9777.00,1.59
9776.00,1.57
9775.00,1.56
9774.00,1.55
9773.00,1.53
9772.00,1.52
9771.00,1.51
9770.00,1.50
9769.00,1.48
9768.00,1.47
9767.00,1.46
9766.00,1.45
9765.00,1.44
9764.00,1.44
9763.00,1.43
9762.00,1.42
9761.00,1.42
9760.00,1.42
9759.00,1.42
9758.00,1.42
9757.00,1.42
9756.00,1.42
9755.00,1.42
9754.00,1.42
9753.00,1.42
9752.00,1.42
9751.00,1.42
9750.00,1.42
9749.00,1.42
9748.00,1.42
9747.00,1.41
9746.00,1.41
9745.00,1.41
9744.00,1.41
9743.00,1.40
9742.00,1.40
9741.00,1.40
9740.00,1.40
9739.00,1.39
9738.00,1.39
9737.00,1.39
9736.00,1.39
9735.00,1.39
9734.00,1.38
9733.00,1.38
9732.00,1.38
9731.00,1.38
9730.00,1.38
9729.00,1.38
9728.00,1.38
9727.00,1.38
9726.00,1.39
9725.00,1.39
9724.00,1.40
9723.00,1.41
9722.00,1.42
9721.00,1.43
9720.00,1.44
9719.00,1.45
9718.00,1.46
9717.00,1.47
9716.00,1.48
9715.00,1.49
9714.00,1.50
9713.00,1.51
9712.00,1.52
9711.00,1.53
9710.00,1.54
9709.00,1.55
9708.00,1.55
9707.00,1.56
9706.00,1.56
9705.00,1.56
9704.00,1.56
9703.00,1.56
9702.00,1.56
9701.00,1.56
9700.00,1.55
9699.00,1.55
9698.00,1.54
9697.00,1.53
9696.00,1.53
9695.00,1.52
9694.00,1.52
9693.00,1.51
9692.00,1.51
9691.00,1.51
9690.00,1.50
9689.00,1.50
9688.00,1.50
9687.00,1.50
9686.00,1.50
9685.00,1.51
9684.00,1.51
9683.00,1.51
9682.00,1.51
9681.00,1.52
9680.00,1.52
9679.00,1.53
9678.00,1.53
9677.00,1.54
9676.00,1.55
9675.00,1.56
9674.00,1.57
9673.00,1.58
9672.00,1.59
9671.00,1.59
9670.00,1.60
9669.00,1.61
9668.00,1.61
9667.00,1.61
9666.00,1.61
9665.00,1.61
9664.00,1.61
9663.00,1.60
9662.00,1.60
9661.00,1.59
9660.00,1.58
9659.00,1.57
9658.00,1.56
9657.00,1.55
9656.00,1.53
9655.00,1.52
9654.00,1.51
9653.00,1.50
9652.00,1.48
9651.00,1.47
9650.00,1.46
9649.00,1.45
9648.00,1.43
9647.00,1.42
9646.00,1.41
9645.00,1.40
9644.00,1.39
9643.00,1.38
9642.00,1.37
9641.00,1.36
9640.00,1.36
9639.00,1.35
9638.00,1.34
9637.00,1.34
9636.00,1.34
9635.00,1.34
9634.00,1.33
9633.00,1.33
9632.00,1.34
9631.00,1.34
9630.00,1.34
9629.00,1.35
9628.00,1.35
9627.00,1.36
9626.00,1.37
9625.00,1.37
9624.00,1.38
9623.00,1.39
9622.00,1.40
9621.00,1.41
9620.00,1.41
9619.00,1.42
9618.00,1.43
9617.00,1.44
9616.00,1.45
9615.00,1.46
9614.00,1.47
9613.00,1.49
9612.00,1.50
9611.00,1.52
9610.00,1.53
9609.00,1.55
9608.00,1.56
9607.00,1.58
9606.00,1.59
9605.00,1.61
9604.00,1.62
9603.00,1.64
9602.00,1.65
9601.00,1.66
9600.00,1.67
9599.00,1.68
9598.00,1.69
9597.00,1.69
9596.00,1.70
9595.00,1.70
9594.00,1.71
9593.00,1.71
9592.00,1.71
9591.00,1.72
9590.00,1.72
9589.00,1.72
9588.00,1.72
9587.00,1.72
9586.00,1.71
9585.00,1.71
9584.00,1.71
9583.00,1.70
9582.00,1.69
9581.00,1.68
9580.00,1.68
9579.00,1.67
9578.00,1.66
9577.00,1.65
9576.00,1.64
9575.00,1.64
9574.00,1.63
9573.00,1.63
9572.00,1.62
9571.00,1.62
9570.00,1.61
9569.00,1.61
9568.00,1.61
9567.00,1.61
9566.00,1.61
9565.00,1.60
9564.00,1.60
9563.00,1.60
9562.00,1.60
9561.00,1.60
9560.00,1.60
9559.00,1.60
9558.00,1.59
9557.00,1.59
9556.00,1.59
9555.00,1.60
9554.00,1.60
9553.00,1.60
9552.00,1.60
9551.00,1.60
9550.00,1.61
9549.00,1.61
9548.00,1.61
9547.00,1.61
9546.00,1.62
9545.00,1.62
9544.00,1.62
9543.00,1.62
9542.00,1.63
9541.00,1.63
9540.00,1.63
9539.00,1.63
9538.00,1.64
9537.00,1.64
9536.00,1.64
9535.00,1.65
9534.00,1.65
9533.00,1.66
9532.00,1.66
9531.00,1.66
9530.00,1.67
9529.00,1.67
9528.00,1.68
9527.00,1.68
9526.00,1.68
9525.00,1.68
9524.00,1.68
9523.00,1.67
9522.00,1.67
9521.00,1.67
9520.00,1.66
9519.00,1.65
9518.00,1.65
9517.00,1.64
9516.00,1.63
9515.00,1.63
9514.00,1.62
9513.00,1.61
9512.00,1.61
9511.00,1.60
9510.00,1.59
9509.00,1.58
9508.00,1.58
9507.00,1.57
9506.00,1.56
9505.00,1.55
9504.00,1.54
9503.00,1.53
9502.00,1.52
9501.00,1.52
9500.00,1.51
9499.00,1.51
9498.00,1.50
9497.00,1.50
9496.00,1.50
9495.00,1.50
9494.00,1.50
9493.00,1.50
9492.00,1.50
9491.00,1.50
9490.00,1.50
9489.00,1.50
9488.00,1.50
9487.00,1.50
9486.00,1.50
9485.00,1.50
9484.00,1.49
9483.00,1.49
9482.00,1.49
9481.00,1.49
9480.00,1.49
9479.00,1.49
9478.00,1.48
9477.00,1.48
9476.00,1.48
9475.00,1.48
9474.00,1.47
9473.00,1.47
9472.00,1.46
9471.00,1.46
9470.00,1.46
9469.00,1.46
9468.00,1.45
9467.00,1.45
9466.00,1.45
9465.00,1.45
9464.00,1.45
9463.00,1.46
9462.00,1.46
9461.00,1.46
9460.00,1.47
9459.00,1.47
9458.00,1.48
9457.00,1.48
9456.00,1.49
9455.00,1.50
9454.00,1.50
9453.00,1.51
9452.00,1.52
9451.00,1.53
9450.00,1.54
9449.00,1.54
9448.00,1.55
9447.00,1.56
9446.00,1.57
9445.00,1.57
9444.00,1.58
9443.00,1.58
9442.00,1.58
9441.00,1.58
9440.00,1.58
9439.00,1.58
9438.00,1.57
9437.00,1.57
9436.00,1.56
9435.00,1.55
9434.00,1.54
9433.00,1.53
9432.00,1.52
9431.00,1.51
9430.00,1.50
9429.00,1.48
9428.00,1.47
9427.00,1.46
9426.00,1.44
9425.00,1.43
9424.00,1.41
9423.00,1.40
9422.00,1.39
9421.00,1.38
9420.00,1.36
9419.00,1.35
9418.00,1.34
9417.00,1.34
9416.00,1.33
9415.00,1.32
9414.00,1.32
9413.00,1.32
9412.00,1.31
9411.00,1.31
9410.00,1.31
9409.00,1.32
9408.00,1.32
9407.00,1.32
9406.00,1.33
9405.00,1.33
9404.00,1.34
9403.00,1.35
9402.00,1.35
9401.00,1.36
9400.00,1.37
9399.00,1.38
9398.00,1.38
9397.00,1.39
9396.00,1.40
9395.00,1.41
9394.00,1.42
9393.00,1.43
9392.00,1.43
9391.00,1.44
9390.00,1.45
9389.00,1.45
9388.00,1.46
9387.00,1.46
9386.00,1.47
9385.00,1.47
9384.00,1.48
9383.00,1.48
9382.00,1.48
9381.00,1.48
9380.00,1.49
9379.00,1.49
9378.00,1.49
9377.00,1.49
9376.00,1.49
9375.00,1.50
9374.00,1.50
9373.00,1.50
9372.00,1.50
9371.00,1.50
9370.00,1.50
9369.00,1.50
9368.00,1.50
9367.00,1.50
9366.00,1.49
9365.00,1.49
9364.00,1.49
9363.00,1.49
9362.00,1.49
9361.00,1.48
9360.00,1.48
9359.00,1.48
9358.00,1.48
9357.00,1.48
9356.00,1.47
9355.00,1.47
9354.00,1.47
9353.00,1.47
9352.00,1.46
9351.00,1.46
9350.00,1.46
9349.00,1.46
9348.00,1.45
9347.00,1.45
9346.00,1.45
9345.00,1.45
9344.00,1.45
9343.00,1.45
9342.00,1.45
9341.00,1.45
9340.00,1.46
9339.00,1.46
9338.00,1.46
9337.00,1.47
9336.00,1.47
9335.00,1.48
9334.00,1.48
9333.00,1.49
9332.00,1.50
9331.00,1.50
9330.00,1.51
9329.00,1.52
9328.00,1.53
9327.00,1.54
9326.00,1.54
9325.00,1.55
9324.00,1.56
9323.00,1.57
9322.00,1.58
9321.00,1.58
9320.00,1.59
9319.00,1.60
9318.00,1.60
9317.00,1.61
9316.00,1.61
9315.00,1.61
9314.00,1.62
9313.00,1.62
9312.00,1.62
9311.00,1.62
9310.00,1.62
9309.00,1.63
9308.00,1.63
9307.00,1.63
9306.00,1.63
9305.00,1.62
9304.00,1.62
9303.00,1.62
9302.00,1.62
9301.00,1.61
9300.00,1.61
9299.00,1.61
9298.00,1.60
9297.00,1.60
9296.00,1.59
9295.00,1.59
9294.00,1.58
9293.00,1.58
9292.00,1.57
9291.00,1.57
9290.00,1.56
9289.00,1.56
9288.00,1.55
9287.00,1.55
9286.00,1.54
9285.00,1.53
9284.00,1.53
9283.00,1.52
9282.00,1.52
9281.00,1.51
9280.00,1.51
9279.00,1.50
9278.00,1.50
9277.00,1.49
9276.00,1.49
9275.00,1.49
9274.00,1.49
9273.00,1.49
9272.00,1.49
9271.00,1.49
9270.00,1.49
9269.00,1.50
9268.00,1.50
9267.00,1.50
9266.00,1.51
9265.00,1.51
9264.00,1.51
9263.00,1.52
9262.00,1.52
9261.00,1.53
9260.00,1.54
9259.00,1.54
9258.00,1.55
9257.00,1.56
9256.00,1.56
9255.00,1.57
9254.00,1.58
9253.00,1.58
9252.00,1.59
9251.00,1.59
9250.00,1.60
9249.00,1.60
9248.00,1.60
9247.00,1.61
9246.00,1.61
9245.00,1.61
9244.00,1.62
9243.00,1.62
9242.00,1.62
9241.00,1.63
9240.00,1.63
9239.00,1.64
9238.00,1.64
9237.00,1.65
9236.00,1.65
9235.00,1.66
9234.00,1.66
9233.00,1.67
9232.00,1.67
9231.00,1.68
9230.00,1.68
9229.00,1.69
9228.00,1.69
9227.00,1.70
9226.00,1.70
9225.00,1.71
9224.00,1.71
9223.00,1.71
9222.00,1.72
9221.00,1.72
9220.00,1.72
9219.00,1.73
9218.00,1.73
9217.00,1.73
9216.00,1.73
9215.00,1.73
9214.00,1.73
9213.00,1.72
9212.00,1.72
9211.00,1.71
9210.00,1.71
9209.00,1.70
9208.00,1.70
9207.00,1.69
9206.00,1.68
9205.00,1.68
9204.00,1.67
9203.00,1.66
9202.00,1.66
9201.00,1.65
9200.00,1.65
9199.00,1.64
9198.00,1.64
9197.00,1.63
9196.00,1.63
9195.00,1.63
9194.00,1.63
9193.00,1.63
9192.00,1.62
9191.00,1.62
9190.00,1.62
9189.00,1.62
9188.00,1.62
9187.00,1.62
9186.00,1.61
9185.00,1.61
9184.00,1.61
9183.00,1.61
9182.00,1.61
9181.00,1.61
9180.00,1.61
9179.00,1.60
9178.00,1.60
9177.00,1.60
9176.00,1.60
9175.00,1.60
9174.00,1.60
9173.00,1.59
9172.00,1.59
9171.00,1.59
9170.00,1.58
9169.00,1.58
9168.00,1.57
9167.00,1.57
9166.00,1.56
9165.00,1.56
9164.00,1.55
9163.00,1.55
9162.00,1.55
9161.00,1.54
9160.00,1.54
9159.00,1.54
9158.00,1.54
9157.00,1.54
9156.00,1.55
9155.00,1.55
9154.00,1.55
9153.00,1.56
9152.00,1.56
9151.00,1.56
9150.00,1.57
9149.00,1.57
9148.00,1.58
9147.00,1.59
9146.00,1.59
9145.00,1.60
9144.00,1.61
9143.00,1.61
9142.00,1.62
9141.00,1.63
9140.00,1.64
9139.00,1.64
9138.00,1.65
9137.00,1.66
9136.00,1.66
9135.00,1.67
9134.00,1.67
9133.00,1.68
9132.00,1.68
9131.00,1.68
9130.00,1.68
9129.00,1.68
9128.00,1.68
9127.00,1.68
9126.00,1.68
9125.00,1.68
9124.00,1.68
9123.00,1.68
9122.00,1.68
9121.00,1.67
9120.00,1.67
9119.00,1.66
9118.00,1.66
9117.00,1.65
9116.00,1.65
9115.00,1.64
9114.00,1.63
9113.00,1.62
9112.00,1.62
9111.00,1.61
9110.00,1.60
9109.00,1.59
9108.00,1.58
9107.00,1.58
9106.00,1.57
9105.00,1.56
9104.00,1.56
9103.00,1.55
9102.00,1.54
9101.00,1.54
9100.00,1.53
9099.00,1.53
9098.00,1.53
9097.00,1.52
9096.00,1.52
9095.00,1.52
9094.00,1.52
9093.00,1.52
9092.00,1.52
9091.00,1.53
9090.00,1.53
9089.00,1.54
9088.00,1.54
9087.00,1.55
9086.00,1.55
9085.00,1.56
9084.00,1.57
9083.00,1.58
9082.00,1.58
9081.00,1.59
9080.00,1.60
9079.00,1.61
9078.00,1.62
9077.00,1.62
9076.00,1.63
9075.00,1.64
9074.00,1.64
9073.00,1.65
9072.00,1.65
9071.00,1.66
9070.00,1.66
9069.00,1.66
9068.00,1.66
9067.00,1.66
9066.00,1.66
9065.00,1.66
9064.00,1.66
9063.00,1.65
9062.00,1.65
9061.00,1.65
9060.00,1.64
9059.00,1.64
9058.00,1.64
9057.00,1.63
9056.00,1.63
9055.00,1.62
9054.00,1.62
9053.00,1.61
9052.00,1.61
9051.00,1.60
9050.00,1.60
9049.00,1.59
9048.00,1.59
9047.00,1.58
9046.00,1.58
9045.00,1.57
9044.00,1.57
9043.00,1.56
9042.00,1.56
9041.00,1.56
9040.00,1.55
9039.00,1.55
9038.00,1.55
9037.00,1.54
9036.00,1.54
9035.00,1.54
9034.00,1.54
9033.00,1.53
9032.00,1.53
9031.00,1.53
9030.00,1.52
9029.00,1.52
9028.00,1.52
9027.00,1.51
9026.00,1.51
9025.00,1.50
9024.00,1.50
9023.00,1.49
9022.00,1.49
9021.00,1.49
9020.00,1.49
9019.00,1.48
9018.00,1.48
9017.00,1.48
9016.00,1.48
9015.00,1.48
9014.00,1.48
9013.00,1.48
9012.00,1.48
9011.00,1.48
9010.00,1.48
9009.00,1.48
9008.00,1.48
9007.00,1.49
9006.00,1.49
9005.00,1.49
9004.00,1.50
9003.00,1.50
9002.00,1.51
9001.00,1.52
9000.00,1.52
8999.00,1.53
8998.00,1.54
8997.00,1.55
8996.00,1.55
8995.00,1.56
8994.00,1.57
8993.00,1.58
8992.00,1.58
8991.00,1.59
8990.00,1.60
8989.00,1.60
8988.00,1.61
8987.00,1.61
8986.00,1.62
8985.00,1.62
8984.00,1.63
8983.00,1.64
8982.00,1.64
8981.00,1.64
8980.00,1.65
8979.00,1.65
8978.00,1.65
8977.00,1.65
8976.00,1.65
8975.00,1.65
8974.00,1.65
8973.00,1.65
8972.00,1.64
8971.00,1.64
8970.00,1.63
8969.00,1.63
8968.00,1.62
8967.00,1.62
8966.00,1.61
8965.00,1.61
8964.00,1.60
8963.00,1.59
8962.00,1.59
8961.00,1.58
8960.00,1.57
8959.00,1.56
8958.00,1.56
8957.00,1.55
8956.00,1.54
8955.00,1.53
8954.00,1.53
8953.00,1.52
8952.00,1.51
8951.00,1.50
8950.00,1.50
8949.00,1.49
8948.00,1.48
8947.00,1.48
8946.00,1.47
8945.00,1.47
8944.00,1.46
8943.00,1.46
8942.00,1.46
8941.00,1.45
8940.00,1.45
8939.00,1.45
8938.00,1.45
8937.00,1.45
8936.00,1.45
8935.00,1.45
8934.00,1.45
8933.00,1.45
8932.00,1.45
8931.00,1.45
8930.00,1.45
8929.00,1.45
8928.00,1.45
8927.00,1.46
8926.00,1.46
8925.00,1.46
8924.00,1.47
8923.00,1.47
8922.00,1.48
8921.00,1.48
8920.00,1.49
8919.00,1.50
8918.00,1.50
8917.00,1.51
8916.00,1.52
8915.00,1.52
8914.00,1.53
8913.00,1.53
8912.00,1.54
8911.00,1.55
8910.00,1.55
8909.00,1.55
8908.00,1.56
8907.00,1.56
8906.00,1.56
8905.00,1.57
8904.00,1.57
8903.00,1.57
8902.00,1.57
8901.00,1.58
8900.00,1.58
8899.00,1.58
8898.00,1.58
8897.00,1.57
8896.00,1.57
8895.00,1.57
8894.00,1.57
8893.00,1.56
8892.00,1.56
8891.00,1.55
8890.00,1.55
8889.00,1.54
8888.00,1.54
8887.00,1.53
8886.00,1.52
8885.00,1.52
8884.00,1.51
8883.00,1.51
8882.00,1.51
8881.00,1.50
8880.00,1.50
8879.00,1.50
8878.00,1.49
8877.00,1.49
8876.00,1.49
8875.00,1.49
8874.00,1.49
8873.00,1.49
8872.00,1.49
8871.00,1.48
8870.00,1.48
8869.00,1.48
8868.00,1.48
8867.00,1.48
8866.00,1.48
8865.00,1.48
8864.00,1.48
8863.00,1.48
8862.00,1.49
8861.00,1.49
8860.00,1.49
8859.00,1.49
8858.00,1.49
8857.00,1.50
8856.00,1.50
8855.00,1.50
8854.00,1.50
8853.00,1.50
8852.00,1.50
8851.00,1.50
8850.00,1.50
8849.00,1.50
8848.00,1.50
8847.00,1.51
8846.00,1.51
8845.00,1.51
8844.00,1.51
8843.00,1.51
8842.00,1.52
8841.00,1.52
8840.00,1.53
8839.00,1.54
8838.00,1.54
8837.00,1.55
8836.00,1.55
8835.00,1.56
8834.00,1.57
8833.00,1.57
8832.00,1.58
8831.00,1.58
8830.00,1.58
8829.00,1.59
8828.00,1.59
8827.00,1.59
8826.00,1.60
8825.00,1.60
8824.00,1.60
8823.00,1.61
8822.00,1.61
8821.00,1.61
8820.00,1.61
8819.00,1.61
8818.00,1.61
8817.00,1.61
8816.00,1.61
8815.00,1.61
8814.00,1.60
8813.00,1.60
8812.00,1.59
8811.00,1.59
8810.00,1.58
8809.00,1.57
8808.00,1.56
8807.00,1.56
8806.00,1.55
8805.00,1.54
8804.00,1.53
8803.00,1.53
8802.00,1.52
8801.00,1.51
8800.00,1.51
8799.00,1.50
8798.00,1.49
8797.00,1.49
8796.00,1.48
8795.00,1.48
8794.00,1.47
8793.00,1.47
8792.00,1.47
8791.00,1.47
8790.00,1.47
8789.00,1.47
8788.00,1.47
8787.00,1.47
8786.00,1.47
8785.00,1.47
8784.00,1.48
8783.00,1.48
8782.00,1.49
8781.00,1.49
8780.00,1.50
8779.00,1.51
8778.00,1.51
8777.00,1.52
8776.00,1.52
8775.00,1.53
8774.00,1.54
8773.00,1.54
8772.00,1.55
8771.00,1.55
8770.00,1.56
8769.00,1.56
8768.00,1.57
8767.00,1.57
8766.00,1.58
8765.00,1.58
8764.00,1.58
8763.00,1.59
8762.00,1.59
8761.00,1.59
8760.00,1.59
8759.00,1.59
8758.00,1.59
8757.00,1.59
8756.00,1.59
8755.00,1.59
8754.00,1.59
8753.00,1.60
8752.00,1.60
8751.00,1.60
8750.00,1.60
8749.00,1.60
8748.00,1.60
8747.00,1.60
8746.00,1.60
8745.00,1.60
8744.00,1.60
8743.00,1.61
8742.00,1.61
8741.00,1.61
8740.00,1.61
8739.00,1.61
8738.00,1.61
8737.00,1.61
8736.00,1.62
8735.00,1.62
8734.00,1.62
8733.00,1.63
8732.00,1.63
8731.00,1.63
8730.00,1.63
8729.00,1.63
8728.00,1.63
8727.00,1.63
8726.00,1.63
8725.00,1.63
8724.00,1.63
8723.00,1.63
8722.00,1.63
8721.00,1.63
8720.00,1.63
8719.00,1.63
8718.00,1.63
8717.00,1.63
8716.00,1.63
8715.00,1.63
8714.00,1.63
8713.00,1.62
8712.00,1.62
8711.00,1.62
8710.00,1.62
8709.00,1.61
8708.00,1.61
8707.00,1.61
8706.00,1.60
8705.00,1.60
8704.00,1.59
8703.00,1.59
8702.00,1.59
8701.00,1.58
8700.00,1.58
8699.00,1.58
8698.00,1.58
8697.00,1.58
8696.00,1.58
8695.00,1.58
8694.00,1.58
8693.00,1.58
8692.00,1.58
8691.00,1.58
8690.00,1.58
8689.00,1.59
8688.00,1.59
8687.00,1.59
8686.00,1.60
8685.00,1.60
8684.00,1.61
8683.00,1.61
8682.00,1.62
8681.00,1.62
8680.00,1.63
8679.00,1.63
8678.00,1.64
8677.00,1.65
8676.00,1.65
8675.00,1.66
8674.00,1.66
8673.00,1.67
8672.00,1.67
8671.00,1.68
8670.00,1.68
8669.00,1.69
8668.00,1.69
8667.00,1.69
8666.00,1.69
8665.00,1.69
8664.00,1.69
8663.00,1.70
8662.00,1.70
8661.00,1.70
8660.00,1.70
8659.00,1.70
8658.00,1.70
8657.00,1.70
8656.00,1.69
8655.00,1.69
8654.00,1.69
8653.00,1.69
8652.00,1.69
8651.00,1.69
8650.00,1.69
8649.00,1.69
8648.00,1.68
8647.00,1.68
8646.00,1.68
8645.00,1.68
8644.00,1.67
8643.00,1.67
8642.00,1.67
8641.00,1.66
8640.00,1.66
8639.00,1.66
8638.00,1.66
8637.00,1.65
8636.00,1.65
8635.00,1.65
8634.00,1.65
8633.00,1.65
8632.00,1.65
8631.00,1.65
8630.00,1.65
8629.00,1.65
8628.00,1.65
8627.00,1.65
8626.00,1.65
8625.00,1.65
8624.00,1.65
8623.00,1.65
8622.00,1.65
8621.00,1.65
8620.00,1.65
8619.00,1.65
8618.00,1.65
8617.00,1.65
8616.00,1.65
8615.00,1.66
8614.00,1.66
8613.00,1.66
8612.00,1.66
8611.00,1.66
8610.00,1.66
8609.00,1.66
8608.00,1.66
8607.00,1.66
8606.00,1.66
8605.00,1.65
8604.00,1.65
8603.00,1.65
8602.00,1.64
8601.00,1.64
8600.00,1.64
8599.00,1.64
8598.00,1.64
8597.00,1.63
8596.00,1.63
8595.00,1.63
8594.00,1.63
8593.00,1.63
8592.00,1.63
8591.00,1.62
8590.00,1.62
8589.00,1.62
8588.00,1.62
8587.00,1.62
8586.00,1.61
8585.00,1.61
8584.00,1.61
8583.00,1.61
8582.00,1.61
8581.00,1.61
8580.00,1.61
8579.00,1.61
8578.00,1.62
8577.00,1.62
8576.00,1.62
8575.00,1.62
8574.00,1.62
8573.00,1.63
8572.00,1.63
8571.00,1.63
8570.00,1.63
8569.00,1.64
8568.00,1.64
8567.00,1.64
8566.00,1.64
8565.00,1.65
8564.00,1.65
8563.00,1.65
8562.00,1.65
8561.00,1.66
8560.00,1.66
8559.00,1.66
8558.00,1.66
8557.00,1.66
8556.00,1.66
8555.00,1.66
8554.00,1.66
8553.00,1.66
8552.00,1.66
8551.00,1.66
8550.00,1.66
8549.00,1.66
8548.00,1.66
8547.00,1.65
8546.00,1.65
8545.00,1.65
8544.00,1.65
8543.00,1.65
8542.00,1.64
8541.00,1.64
8540.00,1.64
8539.00,1.64
8538.00,1.63
8537.00,1.63
8536.00,1.63
8535.00,1.63
8534.00,1.62
8533.00,1.62
8532.00,1.62
8531.00,1.62
8530.00,1.61
8529.00,1.61
8528.00,1.61
8527.00,1.61
8526.00,1.61
8525.00,1.61
8524.00,1.61
8523.00,1.61
8522.00,1.60
8521.00,1.60
8520.00,1.60
8519.00,1.59
8518.00,1.59
8517.00,1.58
8516.00,1.58
8515.00,1.57
8514.00,1.56
8513.00,1.56
8512.00,1.55
8511.00,1.54
8510.00,1.53
8509.00,1.53
8508.00,1.52
8507.00,1.51
8506.00,1.51
8505.00,1.50
8504.00,1.50
8503.00,1.49
8502.00,1.49
8501.00,1.48
8500.00,1.48
8499.00,1.47
8498.00,1.47
8497.00,1.47
8496.00,1.46
8495.00,1.46
8494.00,1.46
8493.00,1.46
8492.00,1.46
8491.00,1.46
8490.00,1.46
8489.00,1.46
8488.00,1.46
8487.00,1.47
8486.00,1.47
8485.00,1.48
8484.00,1.48
8483.00,1.49
8482.00,1.50
8481.00,1.50
8480.00,1.51
8479.00,1.51
8478.00,1.52
8477.00,1.52
8476.00,1.52
8475.00,1.53
8474.00,1.53
8473.00,1.53
8472.00,1.54
8471.00,1.54
8470.00,1.54
8469.00,1.55
8468.00,1.55
8467.00,1.55
8466.00,1.56
8465.00,1.56
8464.00,1.56
8463.00,1.57
8462.00,1.57
8461.00,1.57
8460.00,1.57
8459.00,1.58
8458.00,1.58
8457.00,1.58
8456.00,1.58
8455.00,1.58
8454.00,1.57
8453.00,1.57
8452.00,1.57
8451.00,1.57
8450.00,1.57
8449.00,1.57
8448.00,1.56
8447.00,1.56
8446.00,1.56
8445.00,1.55
8444.00,1.55
8443.00,1.54
8442.00,1.54
8441.00,1.54
8440.00,1.53
8439.00,1.53
8438.00,1.52
8437.00,1.52
8436.00,1.51
8435.00,1.50
8434.00,1.50
8433.00,1.49
8432.00,1.48
8431.00,1.48
8430.00,1.47
8429.00,1.47
8428.00,1.47
8427.00,1.46
8426.00,1.46
8425.00,1.46
8424.00,1.46
8423.00,1.46
8422.00,1.46
8421.00,1.46
8420.00,1.46
8419.00,1.46
8418.00,1.46
8417.00,1.46
8416.00,1.46
8415.00,1.46
8414.00,1.47
8413.00,1.47
8412.00,1.47
8411.00,1.47
8410.00,1.48
8409.00,1.48
8408.00,1.48
8407.00,1.48
8406.00,1.49
8405.00,1.49
8404.00,1.49
8403.00,1.50
8402.00,1.50
8401.00,1.50
8400.00,1.50
8399.00,1.51
8398.00,1.51
8397.00,1.51
8396.00,1.52
8395.00,1.52
8394.00,1.52
8393.00,1.52
8392.00,1.52
8391.00,1.53
8390.00,1.53
8389.00,1.53
8388.00,1.53
8387.00,1.53
8386.00,1.53
8385.00,1.54
8384.00,1.54
8383.00,1.54
8382.00,1.54
8381.00,1.54
8380.00,1.54
8379.00,1.54
8378.00,1.54
8377.00,1.54
8376.00,1.54
8375.00,1.54
8374.00,1.54
8373.00,1.54
8372.00,1.54
8371.00,1.54
8370.00,1.54
8369.00,1.54
8368.00,1.53
8367.00,1.53
8366.00,1.53
8365.00,1.53
8364.00,1.52
8363.00,1.52
8362.00,1.51
8361.00,1.51
8360.00,1.51
8359.00,1.50
8358.00,1.50
8357.00,1.50
8356.00,1.50
8355.00,1.50
8354.00,1.49
8353.00,1.49
8352.00,1.49
8351.00,1.49
8350.00,1.49
8349.00,1.49
8348.00,1.49
8347.00,1.49
8346.00,1.49
8345.00,1.49
8344.00,1.49
8343.00,1.49
8342.00,1.49
8341.00,1.50
8340.00,1.50
8339.00,1.50
8338.00,1.51
8337.00,1.51
8336.00,1.52
8335.00,1.52
8334.00,1.53
8333.00,1.53
8332.00,1.54
8331.00,1.55
8330.00,1.55
8329.00,1.55
8328.00,1.56
8327.00,1.56
8326.00,1.57
8325.00,1.57
8324.00,1.57
8323.00,1.58
8322.00,1.58
8321.00,1.58
8320.00,1.59
8319.00,1.59
8318.00,1.59
8317.00,1.59
8316.00,1.60
8315.00,1.60
8314.00,1.60
8313.00,1.60
8312.00,1.60
8311.00,1.60
8310.00,1.60
8309.00,1.60
8308.00,1.59
8307.00,1.59
8306.00,1.59
8305.00,1.59
8304.00,1.59
8303.00,1.59
8302.00,1.59
8301.00,1.59
8300.00,1.59
8299.00,1.59
8298.00,1.59
8297.00,1.59
8296.00,1.59
8295.00,1.59
8294.00,1.59
8293.00,1.59
8292.00,1.59
8291.00,1.59
8290.00,1.59
8289.00,1.59
8288.00,1.59
8287.00,1.59
8286.00,1.59
8285.00,1.59
8284.00,1.59
8283.00,1.58
8282.00,1.58
8281.00,1.58
8280.00,1.58
8279.00,1.58
8278.00,1.58
8277.00,1.57
8276.00,1.57
8275.00,1.57
8274.00,1.56
8273.00,1.56
8272.00,1.56
8271.00,1.55
8270.00,1.55
8269.00,1.55
8268.00,1.54
8267.00,1.54
8266.00,1.54
8265.00,1.53
8264.00,1.53
8263.00,1.53
8262.00,1.53
8261.00,1.52
8260.00,1.52
8259.00,1.52
8258.00,1.52
8257.00,1.52
8256.00,1.51
8255.00,1.51
8254.00,1.51
8253.00,1.51
8252.00,1.52
8251.00,1.52
8250.00,1.52
8249.00,1.52
8248.00,1.53
8247.00,1.53
8246.00,1.53
8245.00,1.54
8244.00,1.54
8243.00,1.55
8242.00,1.55
8241.00,1.55
8240.00,1.56
8239.00,1.56
8238.00,1.57
8237.00,1.57
8236.00,1.58
8235.00,1.58
8234.00,1.59
8233.00,1.59
8232.00,1.60
8231.00,1.60
8230.00,1.61
8229.00,1.61
8228.00,1.61
8227.00,1.62
8226.00,1.62
8225.00,1.62
8224.00,1.62
8223.00,1.62
8222.00,1.62
8221.00,1.62
8220.00,1.62
8219.00,1.62
8218.00,1.62
8217.00,1.62
8216.00,1.62
8215.00,1.61
8214.00,1.61
8213.00,1.61
8212.00,1.60
8211.00,1.60
8210.00,1.60
8209.00,1.59
8208.00,1.59
8207.00,1.59
8206.00,1.58
8205.00,1.58
8204.00,1.57
8203.00,1.57
8202.00,1.57
8201.00,1.56
8200.00,1.56
8199.00,1.56
8198.00,1.55
8197.00,1.55
8196.00,1.55
8195.00,1.55
8194.00,1.54
8193.00,1.54
8192.00,1.54
8191.00,1.54
8190.00,1.54
8189.00,1.54
8188.00,1.54
8187.00,1.54
8186.00,1.55
8185.00,1.55
8184.00,1.55
8183.00,1.55
8182.00,1.55
8181.00,1.56
8180.00,1.56
8179.00,1.56
8178.00,1.56
8177.00,1.57
8176.00,1.57
8175.00,1.57
8174.00,1.57
8173.00,1.58
8172.00,1.58
8171.00,1.58
8170.00,1.59
8169.00,1.59
8168.00,1.59
8167.00,1.60
8166.00,1.60
8165.00,1.60
8164.00,1.60
8163.00,1.61
8162.00,1.61
8161.00,1.61
8160.00,1.61
8159.00,1.61
8158.00,1.61
8157.00,1.62
8156.00,1.62
8155.00,1.62
8154.00,1.62
8153.00,1.63
8152.00,1.63
8151.00,1.63
8150.00,1.63
8149.00,1.64
8148.00,1.64
8147.00,1.64
8146.00,1.64
8145.00,1.65
8144.00,1.65
8143.00,1.65
8142.00,1.65
8141.00,1.65
8140.00,1.65
8139.00,1.66
8138.00,1.66
8137.00,1.66
8136.00,1.66
8135.00,1.67
8134.00,1.67
8133.00,1.67
8132.00,1.67
8131.00,1.67
8130.00,1.67
8129.00,1.67
8128.00,1.67
8127.00,1.67
8126.00,1.67
8125.00,1.67
8124.00,1.67
8123.00,1.67
8122.00,1.67
8121.00,1.66
8120.00,1.66
8119.00,1.66
8118.00,1.66
8117.00,1.66
8116.00,1.66
8115.00,1.65
8114.00,1.65
8113.00,1.65
8112.00,1.65
8111.00,1.65
8110.00,1.65
8109.00,1.64
8108.00,1.64
8107.00,1.64
8106.00,1.64
8105.00,1.64
8104.00,1.64
8103.00,1.64
8102.00,1.63
8101.00,1.63
8100.00,1.63
8099.00,1.63
8098.00,1.64
8097.00,1.64
8096.00,1.64
8095.00,1.64
8094.00,1.64
8093.00,1.64
8092.00,1.65
8091.00,1.65
8090.00,1.65
8089.00,1.65
8088.00,1.65
8087.00,1.66
8086.00,1.66
8085.00,1.66
8084.00,1.66
8083.00,1.66
8082.00,1.66
8081.00,1.66
8080.00,1.67
8079.00,1.67
8078.00,1.67
8077.00,1.67
8076.00,1.67
8075.00,1.67
8074.00,1.68
8073.00,1.68
8072.00,1.68
8071.00,1.68
8070.00,1.68
8069.00,1.68
8068.00,1.68
8067.00,1.68
8066.00,1.68
8065.00,1.68
8064.00,1.68
8063.00,1.68
8062.00,1.68
8061.00,1.68
8060.00,1.68
8059.00,1.68
8058.00,1.68
8057.00,1.68
8056.00,1.68
8055.00,1.68
8054.00,1.69
8053.00,1.69
8052.00,1.69
8051.00,1.69
8050.00,1.69
8049.00,1.69
8048.00,1.69
8047.00,1.69
8046.00,1.69
8045.00,1.69
8044.00,1.69
8043.00,1.69
8042.00,1.68
8041.00,1.68
8040.00,1.68
8039.00,1.68
8038.00,1.68
8037.00,1.68
8036.00,1.67
8035.00,1.67
8034.00,1.67
8033.00,1.67
8032.00,1.67
8031.00,1.67
8030.00,1.67
8029.00,1.67
8028.00,1.67
8027.00,1.67
8026.00,1.67
8025.00,1.67
8024.00,1.66
8023.00,1.66
8022.00,1.66
8021.00,1.66
8020.00,1.66
8019.00,1.66
8018.00,1.66
8017.00,1.66
8016.00,1.66
8015.00,1.66
8014.00,1.66
8013.00,1.66
8012.00,1.67
8011.00,1.67
8010.00,1.67
8009.00,1.67
8008.00,1.68
8007.00,1.68
8006.00,1.68
8005.00,1.68
8004.00,1.68
8003.00,1.68
8002.00,1.68
8001.00,1.68
8000.00,1.68
7999.00,1.68
7998.00,1.68
7997.00,1.68
7996.00,1.68
7995.00,1.68
7994.00,1.68
7993.00,1.68
7992.00,1.68
7991.00,1.68
7990.00,1.68
7989.00,1.68
7988.00,1.68
7987.00,1.68
7986.00,1.68
7985.00,1.68
7984.00,1.67
7983.00,1.67
7982.00,1.67
7981.00,1.66
7980.00,1.66
7979.00,1.66
7978.00,1.66
7977.00,1.66
7976.00,1.66
7975.00,1.66
7974.00,1.66
7973.00,1.66
7972.00,1.65
7971.00,1.65
7970.00,1.65
7969.00,1.65
7968.00,1.65
7967.00,1.65
7966.00,1.65
7965.00,1.65
7964.00,1.65
7963.00,1.65
7962.00,1.65
7961.00,1.65
7960.00,1.65
7959.00,1.65
7958.00,1.65
7957.00,1.65
7956.00,1.65
7955.00,1.65
7954.00,1.65
7953.00,1.65
7952.00,1.66
7951.00,1.66
7950.00,1.66
7949.00,1.66
7948.00,1.66
7947.00,1.66
7946.00,1.66
7945.00,1.67
7944.00,1.67
7943.00,1.67
7942.00,1.67
7941.00,1.67
7940.00,1.67
7939.00,1.67
7938.00,1.68
7937.00,1.68
7936.00,1.68
7935.00,1.68
7934.00,1.68
7933.00,1.68
7932.00,1.68
7931.00,1.68
7930.00,1.68
7929.00,1.68
7928.00,1.68
7927.00,1.68
7926.00,1.68
7925.00,1.68
7924.00,1.68
7923.00,1.68
7922.00,1.68
7921.00,1.68
7920.00,1.67
7919.00,1.67
7918.00,1.67
7917.00,1.67
7916.00,1.67
7915.00,1.66
7914.00,1.66
7913.00,1.66
7912.00,1.65
7911.00,1.65
7910.00,1.64
7909.00,1.64
7908.00,1.64
7907.00,1.63
7906.00,1.63
7905.00,1.63
7904.00,1.62
7903.00,1.62
7902.00,1.62
7901.00,1.62
7900.00,1.62
7899.00,1.62
7898.00,1.62
7897.00,1.62
7896.00,1.62
7895.00,1.62
7894.00,1.63
7893.00,1.63
7892.00,1.63
7891.00,1.63
7890.00,1.64
7889.00,1.64
7888.00,1.65
7887.00,1.65
7886.00,1.66
7885.00,1.66
7884.00,1.67
7883.00,1.67
7882.00,1.68
7881.00,1.69
7880.00,1.69
7879.00,1.70
7878.00,1.70
7877.00,1.71
7876.00,1.71
7875.00,1.72
7874.00,1.72
7873.00,1.73
7872.00,1.73
7871.00,1.73
7870.00,1.73
7869.00,1.74
7868.00,1.74
7867.00,1.74
7866.00,1.75
7865.00,1.75
7864.00,1.75
7863.00,1.75
7862.00,1.75
7861.00,1.75
7860.00,1.75
7859.00,1.76
7858.00,1.76
7857.00,1.76
7856.00,1.76
7855.00,1.76
7854.00,1.76
7853.00,1.76
7852.00,1.76
7851.00,1.76
7850.00,1.76
7849.00,1.77
7848.00,1.77
7847.00,1.77
7846.00,1.77
7845.00,1.77
7844.00,1.77
7843.00,1.77
7842.00,1.78
7841.00,1.78
7840.00,1.78
7839.00,1.78
7838.00,1.78
7837.00,1.78
7836.00,1.78
7835.00,1.78
7834.00,1.78
7833.00,1.78
7832.00,1.78
7831.00,1.78
7830.00,1.78
7829.00,1.78
7828.00,1.78
7827.00,1.78
7826.00,1.78
7825.00,1.78
7824.00,1.78
7823.00,1.78
7822.00,1.77
7821.00,1.77
7820.00,1.77
7819.00,1.77
7818.00,1.77
7817.00,1.76
7816.00,1.76
7815.00,1.76
7814.00,1.76
7813.00,1.75
7812.00,1.75
7811.00,1.75
7810.00,1.74
7809.00,1.74
7808.00,1.74
7807.00,1.73
7806.00,1.73
7805.00,1.72
7804.00,1.72
7803.00,1.72
7802.00,1.71
7801.00,1.71
7800.00,1.71
7799.00,1.71
7798.00,1.70
7797.00,1.70
7796.00,1.70
7795.00,1.70
7794.00,1.70
7793.00,1.69
7792.00,1.69
7791.00,1.69
7790.00,1.69
7789.00,1.69
7788.00,1.69
7787.00,1.69
7786.00,1.69
7785.00,1.69
7784.00,1.69
7783.00,1.69
7782.00,1.69
7781.00,1.69
7780.00,1.70
7779.00,1.70
7778.00,1.70
7777.00,1.70
7776.00,1.70
7775.00,1.71
7774.00,1.71
7773.00,1.71
7772.00,1.71
7771.00,1.71
7770.00,1.71
7769.00,1.72
7768.00,1.72
7767.00,1.72
7766.00,1.72
7765.00,1.72
7764.00,1.72
7763.00,1.72
7762.00,1.72
7761.00,1.72
7760.00,1.72
7759.00,1.72
7758.00,1.72
7757.00,1.73
7756.00,1.73
7755.00,1.73
7754.00,1.73
7753.00,1.73
7752.00,1.73
7751.00,1.73
7750.00,1.73
7749.00,1.73
7748.00,1.73
7747.00,1.73
7746.00,1.73
7745.00,1.73
7744.00,1.73
7743.00,1.73
7742.00,1.73
7741.00,1.73
7740.00,1.73
7739.00,1.73
7738.00,1.73
7737.00,1.73
7736.00,1.73
7735.00,1.74
7734.00,1.74
7733.00,1.74
7732.00,1.74
7731.00,1.74
7730.00,1.74
7729.00,1.75
7728.00,1.75
7727.00,1.75
7726.00,1.75
7725.00,1.75
7724.00,1.76
7723.00,1.76
7722.00,1.76
7721.00,1.76
7720.00,1.76
7719.00,1.77
7718.00,1.77
7717.00,1.77
7716.00,1.77
7715.00,1.78
7714.00,1.78
7713.00,1.78
7712.00,1.78
7711.00,1.78
7710.00,1.78
7709.00,1.79
7708.00,1.79
7707.00,1.79
7706.00,1.79
7705.00,1.79
7704.00,1.79
7703.00,1.79
7702.00,1.79
7701.00,1.79
7700.00,1.79
7699.00,1.78
7698.00,1.78
7697.00,1.78
7696.00,1.78
7695.00,1.78
7694.00,1.78
7693.00,1.78
7692.00,1.77
7691.00,1.77
7690.00,1.77
7689.00,1.77
7688.00,1.77
7687.00,1.76
7686.00,1.76
7685.00,1.76
7684.00,1.76
7683.00,1.75
7682.00,1.75
7681.00,1.75
7680.00,1.75
7679.00,1.75
7678.00,1.75
7677.00,1.75
7676.00,1.75
7675.00,1.75
7674.00,1.75
7673.00,1.75
7672.00,1.75
7671.00,1.75
7670.00,1.75
7669.00,1.75
7668.00,1.74
7667.00,1.74
7666.00,1.74
7665.00,1.74
7664.00,1.74
7663.00,1.74
7662.00,1.74
7661.00,1.74
7660.00,1.74
7659.00,1.75
7658.00,1.75
7657.00,1.75
7656.00,1.75
7655.00,1.75
7654.00,1.75
7653.00,1.75
7652.00,1.75
7651.00,1.75
7650.00,1.76
7649.00,1.76
7648.00,1.76
7647.00,1.76
7646.00,1.76
7645.00,1.77
7644.00,1.77
7643.00,1.77
7642.00,1.77
7641.00,1.77
7640.00,1.77
7639.00,1.78
7638.00,1.78
7637.00,1.78
7636.00,1.78
7635.00,1.78
7634.00,1.78
7633.00,1.78
7632.00,1.78
7631.00,1.78
7630.00,1.77
7629.00,1.77
7628.00,1.77
7627.00,1.77
7626.00,1.77
7625.00,1.76
7624.00,1.76
7623.00,1.76
7622.00,1.76
7621.00,1.75
7620.00,1.75
7619.00,1.75
7618.00,1.74
7617.00,1.74
7616.00,1.74
7615.00,1.74
7614.00,1.73
7613.00,1.73
7612.00,1.73
7611.00,1.73
7610.00,1.73
7609.00,1.73
7608.00,1.72
7607.00,1.72
7606.00,1.72
7605.00,1.72
7604.00,1.72
7603.00,1.72
7602.00,1.71
7601.00,1.71
7600.00,1.71
7599.00,1.71
7598.00,1.72
7597.00,1.72
7596.00,1.72
7595.00,1.72
7594.00,1.72
7593.00,1.72
7592.00,1.72
7591.00,1.73
7590.00,1.73
7589.00,1.73
7588.00,1.73
7587.00,1.73
7586.00,1.73
7585.00,1.73
7584.00,1.73
7583.00,1.73
7582.00,1.73
7581.00,1.73
7580.00,1.74
7579.00,1.74
7578.00,1.74
7577.00,1.74
7576.00,1.74
7575.00,1.75
7574.00,1.75
7573.00,1.75
7572.00,1.75
7571.00,1.75
7570.00,1.75
7569.00,1.75
7568.00,1.75
7567.00,1.75
7566.00,1.75
7565.00,1.75
7564.00,1.75
7563.00,1.75
7562.00,1.75
7561.00,1.75
7560.00,1.75
7559.00,1.75
7558.00,1.75
7557.00,1.75
7556.00,1.75
7555.00,1.75
7554.00,1.75
7553.00,1.75
7552.00,1.75
7551.00,1.75
7550.00,1.75
7549.00,1.75
7548.00,1.75
7547.00,1.75
7546.00,1.75
7545.00,1.74
7544.00,1.74
7543.00,1.74
7542.00,1.74
7541.00,1.74
7540.00,1.74
7539.00,1.73
7538.00,1.73
7537.00,1.73
7536.00,1.73
7535.00,1.73
7534.00,1.72
7533.00,1.72
7532.00,1.72
7531.00,1.72
7530.00,1.71
7529.00,1.71
7528.00,1.71
7527.00,1.71
7526.00,1.70
7525.00,1.70
7524.00,1.70
7523.00,1.70
7522.00,1.69
7521.00,1.69
7520.00,1.69
7519.00,1.69
7518.00,1.68
7517.00,1.68
7516.00,1.68
7515.00,1.68
7514.00,1.67
7513.00,1.67
7512.00,1.67
7511.00,1.67
7510.00,1.67
7509.00,1.66
7508.00,1.66
7507.00,1.66
7506.00,1.66
7505.00,1.66
7504.00,1.66
7503.00,1.66
7502.00,1.66
7501.00,1.66
7500.00,1.66
7499.00,1.66
7498.00,1.66
7497.00,1.66
7496.00,1.66
7495.00,1.66
7494.00,1.66
7493.00,1.66
7492.00,1.67
7491.00,1.67
7490.00,1.67
7489.00,1.67
7488.00,1.67
7487.00,1.68
7486.00,1.68
7485.00,1.68
7484.00,1.68
7483.00,1.68
7482.00,1.68
7481.00,1.68
7480.00,1.68
7479.00,1.68
7478.00,1.68
7477.00,1.68
7476.00,1.67
7475.00,1.67
7474.00,1.67
7473.00,1.67
7472.00,1.67
7471.00,1.67
7470.00,1.67
7469.00,1.67
7468.00,1.67
7467.00,1.67
7466.00,1.67
7465.00,1.67
7464.00,1.67
7463.00,1.67
7462.00,1.67
7461.00,1.66
7460.00,1.66
7459.00,1.66
7458.00,1.66
7457.00,1.66
7456.00,1.66
7455.00,1.66
7454.00,1.67
7453.00,1.67
7452.00,1.67
7451.00,1.67
7450.00,1.67
7449.00,1.67
7448.00,1.68
7447.00,1.68
7446.00,1.68
7445.00,1.68
7444.00,1.68
7443.00,1.68
7442.00,1.68
7441.00,1.68
7440.00,1.68
7439.00,1.68
7438.00,1.68
7437.00,1.68
7436.00,1.68
7435.00,1.68
7434.00,1.68
7433.00,1.68
7432.00,1.69
7431.00,1.69
7430.00,1.69
7429.00,1.69
7428.00,1.69
7427.00,1.69
7426.00,1.70
7425.00,1.70
7424.00,1.70
7423.00,1.70
7422.00,1.70
7421.00,1.70
7420.00,1.71
7419.00,1.71
7418.00,1.71
7417.00,1.71
7416.00,1.72
7415.00,1.72
7414.00,1.72
7413.00,1.73
7412.00,1.73
7411.00,1.73
7410.00,1.73
7409.00,1.74
7408.00,1.74
7407.00,1.74
7406.00,1.75
7405.00,1.75
7404.00,1.75
7403.00,1.75
7402.00,1.75
7401.00,1.75
7400.00,1.75
7399.00,1.75
7398.00,1.75
7397.00,1.75
7396.00,1.74
7395.00,1.74
7394.00,1.74
7393.00,1.74
7392.00,1.73
7391.00,1.73
7390.00,1.73
7389.00,1.72
7388.00,1.72
7387.00,1.72
7386.00,1.71
7385.00,1.71
7384.00,1.70
7383.00,1.70
7382.00,1.69
7381.00,1.69
7380.00,1.68
7379.00,1.68
7378.00,1.68
7377.00,1.67
7376.00,1.67
7375.00,1.66
7374.00,1.66
7373.00,1.66
7372.00,1.66
7371.00,1.66
7370.00,1.66
7369.00,1.66
7368.00,1.66
7367.00,1.66
7366.00,1.66
7365.00,1.66
7364.00,1.66
7363.00,1.66
7362.00,1.66
7361.00,1.66
7360.00,1.66
7359.00,1.67
7358.00,1.67
7357.00,1.67
7356.00,1.68
7355.00,1.68
7354.00,1.68
7353.00,1.69
7352.00,1.69
7351.00,1.69
7350.00,1.69
7349.00,1.70
7348.00,1.70
7347.00,1.70
7346.00,1.70
7345.00,1.70
7344.00,1.70
7343.00,1.70
7342.00,1.71
7341.00,1.71
7340.00,1.71
7339.00,1.71
7338.00,1.71
7337.00,1.71
7336.00,1.71
7335.00,1.71
7334.00,1.71
7333.00,1.71
7332.00,1.71
7331.00,1.71
7330.00,1.71
7329.00,1.71
7328.00,1.71
7327.00,1.71
7326.00,1.70
7325.00,1.70
7324.00,1.70
7323.00,1.70
7322.00,1.70
7321.00,1.69
7320.00,1.69
7319.00,1.69
7318.00,1.69
7317.00,1.68
7316.00,1.68
7315.00,1.67
7314.00,1.67
7313.00,1.67
7312.00,1.66
7311.00,1.66
7310.00,1.66
7309.00,1.65
7308.00,1.65
7307.00,1.64
7306.00,1.64
7305.00,1.63
7304.00,1.63
7303.00,1.62
7302.00,1.62
7301.00,1.62
7300.00,1.61
7299.00,1.61
7298.00,1.61
7297.00,1.60
7296.00,1.60
7295.00,1.60
7294.00,1.60
7293.00,1.60
7292.00,1.60
7291.00,1.60
7290.00,1.60
7289.00,1.60
7288.00,1.60
7287.00,1.60
7286.00,1.59
7285.00,1.59
7284.00,1.59
7283.00,1.59
7282.00,1.59
7281.00,1.59
7280.00,1.59
7279.00,1.60
7278.00,1.60
7277.00,1.60
7276.00,1.60
7275.00,1.60
7274.00,1.60
7273.00,1.60
7272.00,1.60
7271.00,1.60
7270.00,1.60
7269.00,1.60
7268.00,1.60
7267.00,1.60
7266.00,1.60
7265.00,1.60
7264.00,1.60
7263.00,1.60
7262.00,1.60
7261.00,1.60
7260.00,1.59
7259.00,1.59
7258.00,1.59
7257.00,1.59
7256.00,1.59
7255.00,1.58
7254.00,1.58
7253.00,1.58
7252.00,1.58
7251.00,1.57
7250.00,1.57
7249.00,1.57
7248.00,1.56
7247.00,1.56
7246.00,1.56
7245.00,1.55
7244.00,1.55
7243.00,1.55
7242.00,1.54
7241.00,1.54
7240.00,1.54
7239.00,1.53
7238.00,1.53
7237.00,1.53
7236.00,1.53
7235.00,1.52
7234.00,1.52
7233.00,1.52
7232.00,1.52
7231.00,1.52
7230.00,1.52
7229.00,1.51
7228.00,1.51
7227.00,1.51
7226.00,1.51
7225.00,1.51
7224.00,1.51
7223.00,1.51
7222.00,1.50
7221.00,1.50
7220.00,1.50
7219.00,1.50
7218.00,1.49
7217.00,1.49
7216.00,1.49
7215.00,1.49
7214.00,1.48
7213.00,1.48
7212.00,1.48
7211.00,1.47
7210.00,1.47
7209.00,1.47
7208.00,1.46
7207.00,1.46
7206.00,1.46
7205.00,1.45
7204.00,1.45
7203.00,1.45
7202.00,1.44
7201.00,1.44
7200.00,1.44
7199.00,1.43
7198.00,1.43
7197.00,1.43
7196.00,1.42
7195.00,1.42
7194.00,1.42
7193.00,1.42
7192.00,1.41
7191.00,1.41
7190.00,1.41
7189.00,1.41
7188.00,1.40
7187.00,1.40
7186.00,1.40
7185.00,1.40
7184.00,1.40
7183.00,1.39
7182.00,1.39
7181.00,1.39
7180.00,1.38
7179.00,1.38
7178.00,1.38
7177.00,1.37
7176.00,1.37
7175.00,1.36
7174.00,1.36
7173.00,1.36
7172.00,1.35
7171.00,1.35
7170.00,1.34
7169.00,1.34
7168.00,1.33
7167.00,1.33
7166.00,1.33
7165.00,1.32
7164.00,1.32
7163.00,1.31
7162.00,1.31
7161.00,1.31
7160.00,1.30
7159.00,1.30
7158.00,1.29
7157.00,1.29
7156.00,1.29
7155.00,1.28
7154.00,1.28
7153.00,1.28
7152.00,1.27
7151.00,1.27
7150.00,1.27
7149.00,1.26
7148.00,1.26
7147.00,1.26
7146.00,1.25
7145.00,1.25
7144.00,1.25
7143.00,1.25
7142.00,1.25
7141.00,1.24
7140.00,1.24
7139.00,1.24
7138.00,1.23
7137.00,1.23
7136.00,1.23
7135.00,1.22
7134.00,1.22
7133.00,1.22
7132.00,1.21
7131.00,1.21
7130.00,1.20
7129.00,1.20
7128.00,1.20
7127.00,1.20
7126.00,1.19
7125.00,1.19
7124.00,1.19
7123.00,1.18
7122.00,1.18
7121.00,1.18
7120.00,1.17
7119.00,1.17
7118.00,1.17
7117.00,1.16
7116.00,1.16
7115.00,1.16
7114.00,1.15
7113.00,1.15
7112.00,1.15
7111.00,1.14
7110.00,1.14
7109.00,1.14
7108.00,1.13
7107.00,1.13
7106.00,1.13
7105.00,1.12
7104.00,1.12
7103.00,1.12
7102.00,1.11
7101.00,1.11
7100.00,1.11
7099.00,1.10
7098.00,1.10
7097.00,1.10
7096.00,1.09
7095.00,1.09
7094.00,1.09
7093.00,1.08
7092.00,1.08
7091.00,1.07
7090.00,1.07
7089.00,1.07
7088.00,1.06
7087.00,1.06
7086.00,1.06
7085.00,1.06
7084.00,1.06
7083.00,1.05
7082.00,1.05
7081.00,1.05
7080.00,1.05
7079.00,1.04
7078.00,1.04
7077.00,1.04
7076.00,1.04
7075.00,1.04
7074.00,1.04
7073.00,1.03
7072.00,1.03
7071.00,1.03
7070.00,1.03
7069.00,1.03
7068.00,1.03
7067.00,1.03
7066.00,1.03
7065.00,1.03
7064.00,1.03
7063.00,1.02
7062.00,1.02
7061.00,1.02
7060.00,1.02
7059.00,1.02
7058.00,1.01
7057.00,1.01
7056.00,1.01
7055.00,1.00
7054.00,1.00
7053.00,1.00
7052.00,1.00
7051.00,0.99
7050.00,0.99
7049.00,0.99
7048.00,0.98
7047.00,0.98
7046.00,0.97
7045.00,0.97
7044.00,0.97
7043.00,0.96
7042.00,0.96
7041.00,0.96
7040.00,0.95
7039.00,0.95
7038.00,0.95
7037.00,0.94
7036.00,0.94
7035.00,0.94
7034.00,0.94
7033.00,0.94
7032.00,0.94
7031.00,0.94
7030.00,0.93
7029.00,0.93
7028.00,0.93
7027.00,0.93
7026.00,0.93
7025.00,0.93
7024.00,0.93
7023.00,0.93
7022.00,0.94
7021.00,0.94
7020.00,0.94
7019.00,0.94
7018.00,0.94
7017.00,0.94
7016.00,0.94
7015.00,0.94
7014.00,0.94
7013.00,0.94
7012.00,0.94
7011.00,0.94
7010.00,0.94
7009.00,0.94
7008.00,0.94
7007.00,0.94
7006.00,0.94
7005.00,0.93
7004.00,0.93
7003.00,0.93
7002.00,0.93
7001.00,0.93
7000.00,0.93
6999.00,0.92
6998.00,0.92
6997.00,0.92
6996.00,0.92
6995.00,0.91
6994.00,0.91
6993.00,0.91
6992.00,0.91
6991.00,0.91
6990.00,0.91
6989.00,0.91
6988.00,0.90
6987.00,0.90
6986.00,0.90
6985.00,0.90
6984.00,0.90
6983.00,0.90
6982.00,0.90
6981.00,0.90
6980.00,0.90
6979.00,0.90
6978.00,0.90
6977.00,0.90
6976.00,0.90
6975.00,0.90
6974.00,0.90
6973.00,0.90
6972.00,0.90
6971.00,0.90
6970.00,0.90
6969.00,0.89
6968.00,0.89
6967.00,0.89
6966.00,0.89
6965.00,0.89
6964.00,0.89
6963.00,0.89
6962.00,0.88
6961.00,0.88
6960.00,0.88
6959.00,0.88
6958.00,0.88
6957.00,0.88
6956.00,0.88
6955.00,0.88
6954.00,0.88
6953.00,0.88
6952.00,0.87
6951.00,0.87
6950.00,0.87
6949.00,0.87
6948.00,0.87
6947.00,0.87
6946.00,0.87
6945.00,0.87
6944.00,0.87
6943.00,0.87
6942.00,0.87
6941.00,0.87
6940.00,0.87
6939.00,0.87
6938.00,0.88
6937.00,0.88
6936.00,0.88
6935.00,0.88
6934.00,0.88
6933.00,0.88
6932.00,0.88
6931.00,0.89
6930.00,0.89
6929.00,0.89
6928.00,0.89
6927.00,0.89
6926.00,0.89
6925.00,0.89
6924.00,0.89
6923.00,0.89
6922.00,0.89
6921.00,0.90
6920.00,0.90
6919.00,0.90
6918.00,0.90
6917.00,0.90
6916.00,0.90
6915.00,0.90
6914.00,0.90
6913.00,0.91
6912.00,0.91
6911.00,0.91
6910.00,0.91
6909.00,0.91
6908.00,0.91
6907.00,0.91
6906.00,0.91
6905.00,0.91
6904.00,0.91
6903.00,0.91
6902.00,0.91
6901.00,0.91
6900.00,0.91
6899.00,0.91
6898.00,0.91
6897.00,0.91
6896.00,0.91
6895.00,0.91
6894.00,0.91
6893.00,0.91
6892.00,0.91
6891.00,0.91
6890.00,0.91
6889.00,0.91
6888.00,0.91
6887.00,0.91
6886.00,0.91
6885.00,0.91
6884.00,0.91
6883.00,0.90
6882.00,0.90
6881.00,0.90
6880.00,0.90
6879.00,0.90
6878.00,0.90
6877.00,0.90
6876.00,0.90
6875.00,0.89
6874.00,0.89
6873.00,0.89
6872.00,0.89
6871.00,0.89
6870.00,0.88
6869.00,0.88
6868.00,0.88
6867.00,0.88
6866.00,0.88
6865.00,0.87
6864.00,0.87
6863.00,0.87
6862.00,0.87
6861.00,0.87
6860.00,0.87
6859.00,0.87
6858.00,0.87
6857.00,0.86
6856.00,0.86
6855.00,0.86
6854.00,0.86
6853.00,0.86
6852.00,0.86
6851.00,0.86
6850.00,0.86
6849.00,0.86
6848.00,0.86
6847.00,0.86
6846.00,0.86
6845.00,0.86
6844.00,0.86
6843.00,0.86
6842.00,0.86
6841.00,0.86
6840.00,0.86
6839.00,0.86
6838.00,0.87
6837.00,0.87
6836.00,0.87
6835.00,0.87
6834.00,0.87
6833.00,0.87
6832.00,0.87
6831.00,0.87
6830.00,0.87
6829.00,0.87
6828.00,0.87
6827.00,0.87
6826.00,0.87
6825.00,0.88
6824.00,0.88
6823.00,0.88
6822.00,0.88
6821.00,0.88
6820.00,0.88
6819.00,0.88
6818.00,0.89
6817.00,0.89
6816.00,0.89
6815.00,0.89
6814.00,0.90
6813.00,0.90
6812.00,0.90
6811.00,0.90
6810.00,0.90
6809.00,0.91
6808.00,0.91
6807.00,0.91
6806.00,0.91
6805.00,0.91
6804.00,0.91
6803.00,0.92
6802.00,0.92
6801.00,0.92
6800.00,0.92
6799.00,0.92
6798.00,0.92
6797.00,0.92
6796.00,0.92
6795.00,0.92
6794.00,0.92
6793.00,0.92
6792.00,0.92
6791.00,0.92
6790.00,0.92
6789.00,0.91
6788.00,0.91
6787.00,0.91
6786.00,0.91
6785.00,0.91
6784.00,0.91
6783.00,0.90
6782.00,0.90
6781.00,0.90
6780.00,0.90
6779.00,0.90
6778.00,0.90
6777.00,0.90
6776.00,0.90
6775.00,0.90
6774.00,0.90
6773.00,0.90
6772.00,0.90
6771.00,0.90
6770.00,0.90
6769.00,0.90
6768.00,0.90
6767.00,0.90
6766.00,0.90
6765.00,0.90
6764.00,0.91
6763.00,0.91
6762.00,0.91
6761.00,0.91
6760.00,0.91
6759.00,0.91
6758.00,0.91
6757.00,0.91
6756.00,0.91
6755.00,0.91
6754.00,0.91
6753.00,0.92
6752.00,0.92
6751.00,0.92
6750.00,0.92
6749.00,0.92
6748.00,0.92
6747.00,0.92
6746.00,0.92
6745.00,0.92
6744.00,0.93
6743.00,0.93
6742.00,0.93
6741.00,0.93
6740.00,0.93
6739.00,0.93
6738.00,0.94
6737.00,0.94
6736.00,0.94
6735.00,0.94
6734.00,0.95
6733.00,0.95
6732.00,0.95
6731.00,0.96
6730.00,0.96
6729.00,0.96
6728.00,0.96
6727.00,0.96
6726.00,0.97
6725.00,0.97
6724.00,0.97
6723.00,0.97
6722.00,0.97
6721.00,0.97
6720.00,0.98
6719.00,0.98
6718.00,0.98
6717.00,0.98
6716.00,0.98
6715.00,0.98
6714.00,0.98
6713.00,0.98
6712.00,0.98
6711.00,0.98
6710.00,0.98
6709.00,0.98
6708.00,0.98
6707.00,0.98
6706.00,0.98
6705.00,0.98
6704.00,0.98
6703.00,0.98
6702.00,0.99
6701.00,0.99
6700.00,0.99
6699.00,0.99
6698.00,0.99
6697.00,0.99
6696.00,0.99
6695.00,0.99
6694.00,0.99
6693.00,0.99
6692.00,0.99
6691.00,0.99
6690.00,0.99
6689.00,0.99
6688.00,0.99
6687.00,0.99
6686.00,0.99
6685.00,0.99
6684.00,0.99
6683.00,0.99
6682.00,0.99
6681.00,0.99
6680.00,0.99
6679.00,0.99
6678.00,0.99
6677.00,0.99
6676.00,0.99
6675.00,0.99
6674.00,0.99
6673.00,0.98
6672.00,0.98
6671.00,0.98
6670.00,0.98
6669.00,0.98
6668.00,0.98
6667.00,0.98
6666.00,0.97
6665.00,0.97
6664.00,0.97
6663.00,0.97
6662.00,0.97
6661.00,0.97
6660.00,0.97
6659.00,0.97
6658.00,0.97
6657.00,0.97
6656.00,0.97
6655.00,0.97
6654.00,0.97
6653.00,0.97
6652.00,0.97
6651.00,0.97
6650.00,0.98
6649.00,0.98
6648.00,0.98
6647.00,0.98
6646.00,0.99
6645.00,0.99
6644.00,0.99
6643.00,1.00
6642.00,1.00
6641.00,1.00
6640.00,1.01
6639.00,1.01
6638.00,1.02
6637.00,1.02
6636.00,1.02
6635.00,1.03
6634.00,1.03
6633.00,1.03
6632.00,1.04
6631.00,1.04
6630.00,1.04
6629.00,1.05
6628.00,1.05
6627.00,1.05
6626.00,1.05
6625.00,1.06
6624.00,1.06
6623.00,1.06
6622.00,1.06
6621.00,1.06
6620.00,1.06
6619.00,1.06
6618.00,1.06
6617.00,1.06
6616.00,1.06
6615.00,1.06
6614.00,1.06
6613.00,1.06
6612.00,1.06
6611.00,1.06
6610.00,1.06
6609.00,1.06
6608.00,1.06
6607.00,1.06
6606.00,1.06
6605.00,1.07
6604.00,1.07
6603.00,1.07
6602.00,1.07
6601.00,1.07
6600.00,1.07
6599.00,1.07
6598.00,1.07
6597.00,1.07
6596.00,1.07
6595.00,1.07
6594.00,1.07
6593.00,1.08
6592.00,1.08
6591.00,1.08
6590.00,1.08
6589.00,1.08
6588.00,1.08
6587.00,1.09
6586.00,1.09
6585.00,1.09
6584.00,1.09
6583.00,1.10
6582.00,1.10
6581.00,1.10
6580.00,1.10
6579.00,1.10
6578.00,1.11
6577.00,1.11
6576.00,1.11
6575.00,1.11
6574.00,1.11
6573.00,1.11
6572.00,1.12
6571.00,1.12
6570.00,1.12
6569.00,1.12
6568.00,1.12
6567.00,1.12
6566.00,1.12
6565.00,1.12
6564.00,1.12
6563.00,1.12
6562.00,1.12
6561.00,1.12
6560.00,1.12
6559.00,1.12
6558.00,1.12
6557.00,1.12
6556.00,1.12
6555.00,1.13
6554.00,1.13
6553.00,1.13
6552.00,1.13
6551.00,1.13
6550.00,1.13
6549.00,1.13
6548.00,1.14
6547.00,1.14
6546.00,1.14
6545.00,1.14
6544.00,1.15
6543.00,1.15
6542.00,1.15
6541.00,1.15
6540.00,1.15
6539.00,1.16
6538.00,1.16
6537.00,1.16
6536.00,1.16
6535.00,1.16
6534.00,1.17
6533.00,1.17
6532.00,1.17
6531.00,1.17
6530.00,1.17
6529.00,1.18
6528.00,1.18
6527.00,1.18
6526.00,1.18
6525.00,1.18
6524.00,1.18
6523.00,1.18
6522.00,1.18
6521.00,1.18
6520.00,1.18
6519.00,1.18
6518.00,1.18
6517.00,1.18
6516.00,1.18
6515.00,1.18
6514.00,1.18
6513.00,1.18
6512.00,1.18
6511.00,1.18
6510.00,1.19
6509.00,1.19
6508.00,1.19
6507.00,1.19
6506.00,1.19
6505.00,1.19
6504.00,1.19
6503.00,1.19
6502.00,1.20
6501.00,1.20
6500.00,1.20
6499.00,1.20
6498.00,1.20
6497.00,1.20
6496.00,1.20
6495.00,1.20
6494.00,1.20
6493.00,1.20
6492.00,1.20
6491.00,1.20
6490.00,1.21
6489.00,1.21
6488.00,1.21
6487.00,1.21
6486.00,1.21
6485.00,1.21
6484.00,1.22
6483.00,1.22
6482.00,1.22
6481.00,1.22
6480.00,1.22
6479.00,1.22
6478.00,1.22
6477.00,1.22
6476.00,1.22
6475.00,1.22
6474.00,1.22
6473.00,1.22
6472.00,1.22
6471.00,1.22
6470.00,1.22
6469.00,1.22
6468.00,1.22
6467.00,1.23
6466.00,1.23
6465.00,1.23
6464.00,1.23
6463.00,1.23
6462.00,1.23
6461.00,1.22
6460.00,1.22
6459.00,1.22
6458.00,1.22
6457.00,1.22
6456.00,1.22
6455.00,1.22
6454.00,1.22
6453.00,1.23
6452.00,1.23
6451.00,1.23
6450.00,1.23
6449.00,1.23
6448.00,1.23
6447.00,1.23
6446.00,1.23
6445.00,1.23
6444.00,1.23
6443.00,1.23
6442.00,1.23
6441.00,1.23
6440.00,1.23
6439.00,1.23
6438.00,1.23
6437.00,1.23
6436.00,1.23
6435.00,1.23
6434.00,1.23
6433.00,1.23
6432.00,1.23
6431.00,1.23
6430.00,1.23
6429.00,1.23
6428.00,1.23
6427.00,1.23
6426.00,1.23
6425.00,1.24
6424.00,1.24
6423.00,1.24
6422.00,1.24
6421.00,1.24
6420.00,1.24
6419.00,1.24
6418.00,1.24
6417.00,1.24
6416.00,1.24
6415.00,1.25
6414.00,1.25
6413.00,1.25
6412.00,1.25
6411.00,1.26
6410.00,1.26
6409.00,1.26
6408.00,1.26
6407.00,1.27
6406.00,1.27
6405.00,1.27
6404.00,1.27
6403.00,1.27
6402.00,1.28
6401.00,1.28
6400.00,1.28
6399.00,1.28
6398.00,1.29
6397.00,1.29
6396.00,1.29
6395.00,1.29
6394.00,1.30
6393.00,1.30
6392.00,1.30
6391.00,1.30
6390.00,1.30
6389.00,1.30
6388.00,1.30
6387.00,1.30
6386.00,1.30
6385.00,1.30
6384.00,1.30
6383.00,1.30
6382.00,1.30
6381.00,1.30
6380.00,1.30
6379.00,1.30
6378.00,1.30
6377.00,1.30
6376.00,1.30
6375.00,1.30
6374.00,1.30
6373.00,1.30
6372.00,1.30
6371.00,1.30
6370.00,1.30
6369.00,1.30
6368.00,1.29
6367.00,1.29
6366.00,1.29
6365.00,1.29
6364.00,1.29
6363.00,1.29
6362.00,1.29
6361.00,1.29
6360.00,1.29
6359.00,1.30
6358.00,1.30
6357.00,1.30
6356.00,1.30
6355.00,1.30
6354.00,1.30
6353.00,1.30
6352.00,1.30
6351.00,1.31
6350.00,1.31
6349.00,1.31
6348.00,1.31
6347.00,1.31
6346.00,1.32
6345.00,1.32
6344.00,1.32
6343.00,1.32
6342.00,1.32
6341.00,1.33
6340.00,1.33
6339.00,1.33
6338.00,1.33
6337.00,1.33
6336.00,1.33
6335.00,1.34
6334.00,1.34
6333.00,1.34
6332.00,1.34
6331.00,1.34
6330.00,1.35
6329.00,1.35
6328.00,1.35
6327.00,1.35
6326.00,1.35
6325.00,1.35
6324.00,1.35
6323.00,1.35
6322.00,1.36
6321.00,1.36
6320.00,1.36
6319.00,1.36
6318.00,1.36
6317.00,1.36
6316.00,1.36
6315.00,1.36
6314.00,1.36
6313.00,1.37
6312.00,1.37
6311.00,1.37
6310.00,1.37
6309.00,1.38
6308.00,1.38
6307.00,1.38
6306.00,1.38
6305.00,1.38
6304.00,1.38
6303.00,1.39
6302.00,1.39
6301.00,1.39
6300.00,1.39
6299.00,1.39
6298.00,1.39
6297.00,1.39
6296.00,1.39
6295.00,1.40
6294.00,1.40
6293.00,1.40
6292.00,1.40
6291.00,1.40
6290.00,1.40
6289.00,1.40
6288.00,1.40
6287.00,1.40
6286.00,1.40
6285.00,1.40
6284.00,1.40
6283.00,1.40
6282.00,1.40
6281.00,1.40
6280.00,1.40
6279.00,1.41
6278.00,1.41
6277.00,1.41
6276.00,1.41
6275.00,1.41
6274.00,1.41
6273.00,1.41
6272.00,1.42
6271.00,1.42
6270.00,1.42
6269.00,1.42
6268.00,1.42
6267.00,1.42
6266.00,1.42
6265.00,1.42
6264.00,1.43
6263.00,1.43
6262.00,1.43
6261.00,1.43
6260.00,1.43
6259.00,1.43
6258.00,1.43
6257.00,1.43
6256.00,1.43
6255.00,1.43
6254.00,1.43
6253.00,1.43
6252.00,1.43
6251.00,1.43
6250.00,1.43
6249.00,1.43
6248.00,1.43
6247.00,1.43
6246.00,1.43
6245.00,1.43
6244.00,1.43
6243.00,1.43
6242.00,1.43
6241.00,1.43
6240.00,1.43
6239.00,1.42
6238.00,1.42
6237.00,1.42
6236.00,1.42
6235.00,1.42
6234.00,1.42
6233.00,1.42
6232.00,1.42
6231.00,1.42
6230.00,1.42
6229.00,1.43
6228.00,1.43
6227.00,1.43
6226.00,1.43
6225.00,1.43
6224.00,1.43
6223.00,1.44
6222.00,1.44
6221.00,1.44
6220.00,1.44
6219.00,1.45
6218.00,1.45
6217.00,1.45
6216.00,1.45
6215.00,1.45
6214.00,1.46
6213.00,1.46
6212.00,1.46
6211.00,1.47
6210.00,1.47
6209.00,1.47
6208.00,1.47
6207.00,1.48
6206.00,1.48
6205.00,1.48
6204.00,1.48
6203.00,1.49
6202.00,1.49
6201.00,1.49
6200.00,1.49
6199.00,1.49
6198.00,1.49
6197.00,1.50
6196.00,1.50
6195.00,1.50
6194.00,1.50
6193.00,1.50
6192.00,1.50
6191.00,1.50
6190.00,1.50
6189.00,1.50
6188.00,1.50
6187.00,1.50
6186.00,1.50
6185.00,1.50
6184.00,1.50
6183.00,1.50
6182.00,1.50
6181.00,1.50
6180.00,1.50
6179.00,1.50
6178.00,1.51
6177.00,1.51
6176.00,1.51
6175.00,1.51
6174.00,1.51
6173.00,1.51
6172.00,1.51
6171.00,1.52
6170.00,1.52
6169.00,1.52
6168.00,1.52
6167.00,1.52
6166.00,1.53
6165.00,1.53
6164.00,1.53
6163.00,1.53
6162.00,1.53
6161.00,1.54
6160.00,1.54
6159.00,1.54
6158.00,1.54
6157.00,1.54
6156.00,1.55
6155.00,1.55
6154.00,1.55
6153.00,1.55
6152.00,1.55
6151.00,1.55
6150.00,1.55
6149.00,1.56
6148.00,1.56
6147.00,1.56
6146.00,1.56
6145.00,1.56
6144.00,1.56
6143.00,1.56
6142.00,1.56
6141.00,1.56
6140.00,1.56
6139.00,1.57
6138.00,1.57
6137.00,1.57
6136.00,1.57
6135.00,1.57
6134.00,1.57
6133.00,1.57
6132.00,1.57
6131.00,1.58
6130.00,1.58
6129.00,1.58
6128.00,1.58
6127.00,1.58
6126.00,1.58
6125.00,1.59
6124.00,1.59
6123.00,1.59
6122.00,1.59
6121.00,1.59
6120.00,1.60
6119.00,1.60
6118.00,1.60
6117.00,1.60
6116.00,1.60
6115.00,1.60
6114.00,1.61
6113.00,1.61
6112.00,1.61
6111.00,1.61
6110.00,1.61
6109.00,1.61
6108.00,1.61
6107.00,1.61
6106.00,1.61
6105.00,1.61
6104.00,1.61
6103.00,1.61
6102.00,1.61
6101.00,1.61
6100.00,1.61
6099.00,1.62
6098.00,1.62
6097.00,1.62
6096.00,1.62
6095.00,1.62
6094.00,1.62
6093.00,1.62
6092.00,1.62
6091.00,1.62
6090.00,1.62
6089.00,1.62
6088.00,1.63
6087.00,1.63
6086.00,1.63
6085.00,1.63
6084.00,1.63
6083.00,1.63
6082.00,1.64
6081.00,1.64
6080.00,1.64
6079.00,1.64
6078.00,1.64
6077.00,1.65
6076.00,1.65
6075.00,1.65
6074.00,1.65
6073.00,1.65
6072.00,1.65
6071.00,1.65
6070.00,1.65
6069.00,1.66
6068.00,1.66
6067.00,1.66
6066.00,1.66
6065.00,1.66
6064.00,1.66
6063.00,1.66
6062.00,1.66
6061.00,1.66
6060.00,1.66
6059.00,1.66
6058.00,1.66
6057.00,1.66
6056.00,1.66
6055.00,1.66
6054.00,1.66
6053.00,1.66
6052.00,1.66
6051.00,1.66
6050.00,1.66
6049.00,1.66
6048.00,1.66
6047.00,1.66
6046.00,1.66
6045.00,1.66
6044.00,1.66
6043.00,1.65
6042.00,1.65
6041.00,1.65
6040.00,1.65
6039.00,1.65
6038.00,1.65
6037.00,1.65
6036.00,1.65
6035.00,1.65
6034.00,1.65
6033.00,1.65
6032.00,1.65
6031.00,1.65
6030.00,1.65
6029.00,1.65
6028.00,1.65
6027.00,1.65
6026.00,1.65
6025.00,1.65
6024.00,1.65
6023.00,1.65
6022.00,1.65
6021.00,1.65
6020.00,1.65
6019.00,1.65
6018.00,1.65
6017.00,1.65
6016.00,1.65
6015.00,1.65
6014.00,1.65
6013.00,1.66
6012.00,1.66
6011.00,1.66
6010.00,1.66
6009.00,1.66
6008.00,1.66
6007.00,1.66
6006.00,1.66
6005.00,1.66
6004.00,1.66
6003.00,1.66
6002.00,1.66
6001.00,1.66
6000.00,1.66
5999.00,1.66
5998.00,1.66
5997.00,1.66
5996.00,1.66
5995.00,1.66
5994.00,1.65
5993.00,1.65
5992.00,1.65
5991.00,1.65
5990.00,1.65
5989.00,1.65
5988.00,1.65
5987.00,1.65
5986.00,1.65
5985.00,1.64
5984.00,1.64
5983.00,1.64
5982.00,1.64
5981.00,1.64
5980.00,1.63
5979.00,1.63
5978.00,1.63
5977.00,1.62
5976.00,1.62
5975.00,1.62
5974.00,1.61
5973.00,1.61
5972.00,1.60
5971.00,1.60
5970.00,1.59
5969.00,1.59
5968.00,1.58
5967.00,1.58
5966.00,1.57
5965.00,1.56
5964.00,1.56
5963.00,1.55
5962.00,1.54
5961.00,1.53
5960.00,1.53
5959.00,1.52
5958.00,1.51
5957.00,1.51
5956.00,1.50
5955.00,1.49
5954.00,1.49
5953.00,1.48
5952.00,1.48
5951.00,1.47
5950.00,1.47
5949.00,1.46
5948.00,1.46
5947.00,1.45
5946.00,1.45
5945.00,1.44
5944.00,1.44
5943.00,1.44
5942.00,1.43
5941.00,1.43
5940.00,1.43
5939.00,1.43
5938.00,1.43
5937.00,1.42
5936.00,1.42
5935.00,1.42
5934.00,1.42
5933.00,1.42
5932.00,1.42
5931.00,1.42
5930.00,1.42
5929.00,1.42
5928.00,1.42
5927.00,1.42
5926.00,1.42
5925.00,1.42
5924.00,1.42
5923.00,1.42
5922.00,1.42
5921.00,1.42
5920.00,1.42
5919.00,1.42
5918.00,1.42
5917.00,1.42
5916.00,1.42
5915.00,1.42
5914.00,1.42
5913.00,1.41
5912.00,1.41
5911.00,1.41
5910.00,1.41
5909.00,1.41
5908.00,1.41
5907.00,1.41
5906.00,1.41
5905.00,1.41
5904.00,1.41
5903.00,1.41
5902.00,1.41
5901.00,1.41
5900.00,1.41
5899.00,1.40
5898.00,1.40
5897.00,1.40
5896.00,1.40
5895.00,1.40
5894.00,1.40
5893.00,1.41
5892.00,1.41
5891.00,1.41
5890.00,1.41
5889.00,1.41
5888.00,1.41
5887.00,1.41
5886.00,1.41
5885.00,1.41
5884.00,1.41
5883.00,1.41
5882.00,1.42
5881.00,1.42
5880.00,1.42
5879.00,1.42
5878.00,1.42
5877.00,1.42
5876.00,1.42
5875.00,1.43
5874.00,1.43
5873.00,1.43
5872.00,1.43
5871.00,1.43
5870.00,1.44
5869.00,1.44
5868.00,1.44
5867.00,1.44
5866.00,1.45
5865.00,1.45
5864.00,1.45
5863.00,1.45
5862.00,1.46
5861.00,1.46
5860.00,1.46
5859.00,1.46
5858.00,1.47
5857.00,1.47
5856.00,1.47
5855.00,1.47
5854.00,1.47
5853.00,1.48
5852.00,1.48
5851.00,1.48
5850.00,1.48
5849.00,1.48
5848.00,1.49
5847.00,1.49
5846.00,1.49
5845.00,1.49
5844.00,1.49
5843.00,1.49
5842.00,1.49
5841.00,1.49
5840.00,1.49
5839.00,1.49
5838.00,1.49
5837.00,1.49
5836.00,1.49
5835.00,1.49
5834.00,1.49
5833.00,1.49
5832.00,1.49
5831.00,1.49
5830.00,1.49
5829.00,1.49
5828.00,1.49
5827.00,1.49
5826.00,1.49
5825.00,1.49
5824.00,1.49
5823.00,1.49
5822.00,1.49
5821.00,1.49
5820.00,1.49
5819.00,1.49
5818.00,1.49
5817.00,1.48
5816.00,1.48
5815.00,1.48
5814.00,1.48
5813.00,1.48
5812.00,1.48
5811.00,1.48
5810.00,1.47
5809.00,1.47
5808.00,1.47
5807.00,1.47
5806.00,1.46
5805.00,1.46
5804.00,1.46
5803.00,1.46
5802.00,1.45
5801.00,1.45
5800.00,1.45
5799.00,1.45
5798.00,1.44
5797.00,1.44
5796.00,1.44
5795.00,1.44
5794.00,1.44
5793.00,1.43
5792.00,1.43
5791.00,1.43
5790.00,1.43
5789.00,1.43
5788.00,1.42
5787.00,1.42
5786.00,1.42
5785.00,1.42
5784.00,1.42
5783.00,1.42
5782.00,1.42
5781.00,1.42
5780.00,1.42
5779.00,1.42
5778.00,1.42
5777.00,1.42
5776.00,1.42
5775.00,1.42
5774.00,1.42
5773.00,1.42
5772.00,1.42
5771.00,1.42
5770.00,1.42
5769.00,1.42
5768.00,1.42
5767.00,1.42
5766.00,1.43
5765.00,1.43
5764.00,1.43
5763.00,1.43
5762.00,1.44
5761.00,1.44
5760.00,1.44
5759.00,1.44
5758.00,1.45
5757.00,1.45
5756.00,1.45
5755.00,1.46
5754.00,1.46
5753.00,1.46
5752.00,1.46
5751.00,1.47
5750.00,1.47
5749.00,1.47
5748.00,1.47
5747.00,1.48
5746.00,1.48
5745.00,1.48
5744.00,1.49
5743.00,1.49
5742.00,1.49
5741.00,1.49
5740.00,1.49
5739.00,1.50
5738.00,1.50
5737.00,1.50
5736.00,1.50
5735.00,1.50
5734.00,1.50
5733.00,1.51
5732.00,1.51
5731.00,1.51
5730.00,1.51
5729.00,1.51
5728.00,1.51
5727.00,1.51
5726.00,1.51
5725.00,1.51
5724.00,1.51
5723.00,1.51
5722.00,1.51
5721.00,1.51
5720.00,1.51
5719.00,1.51
5718.00,1.51
5717.00,1.51
5716.00,1.51
5715.00,1.51
5714.00,1.51
5713.00,1.51
5712.00,1.51
5711.00,1.51
5710.00,1.51
5709.00,1.51
5708.00,1.51
5707.00,1.51
5706.00,1.51
5705.00,1.50
5704.00,1.50
5703.00,1.50
5702.00,1.50
5701.00,1.50
5700.00,1.49
5699.00,1.49
5698.00,1.49
5697.00,1.49
5696.00,1.49
5695.00,1.49
5694.00,1.48
5693.00,1.48
5692.00,1.48
5691.00,1.48
5690.00,1.48
5689.00,1.48
5688.00,1.48
5687.00,1.47
5686.00,1.47
5685.00,1.47
5684.00,1.47
5683.00,1.47
5682.00,1.47
5681.00,1.47
5680.00,1.47
5679.00,1.47
5678.00,1.47
5677.00,1.47
5676.00,1.47
5675.00,1.47
5674.00,1.48
5673.00,1.48
5672.00,1.48
5671.00,1.48
5670.00,1.48
5669.00,1.48
5668.00,1.48
5667.00,1.48
5666.00,1.49
5665.00,1.49
5664.00,1.49
5663.00,1.49
5662.00,1.49
5661.00,1.49
5660.00,1.49
5659.00,1.49
5658.00,1.49
5657.00,1.49
5656.00,1.50
5655.00,1.50
5654.00,1.50
5653.00,1.50
5652.00,1.50
5651.00,1.50
5650.00,1.50
5649.00,1.50
5648.00,1.50
5647.00,1.50
5646.00,1.51
5645.00,1.51
5644.00,1.51
5643.00,1.51
5642.00,1.51
5641.00,1.51
5640.00,1.51
5639.00,1.52
5638.00,1.52
5637.00,1.52
5636.00,1.52
5635.00,1.52
5634.00,1.52
5633.00,1.53
5632.00,1.53
5631.00,1.53
5630.00,1.53
5629.00,1.53
5628.00,1.54
5627.00,1.54
5626.00,1.54
5625.00,1.54
5624.00,1.54
5623.00,1.54
5622.00,1.54
5621.00,1.55
5620.00,1.55
5619.00,1.55
5618.00,1.55
5617.00,1.55
5616.00,1.55
5615.00,1.55
5614.00,1.56
5613.00,1.56
5612.00,1.56
5611.00,1.56
5610.00,1.56
5609.00,1.57
5608.00,1.57
5607.00,1.57
5606.00,1.57
5605.00,1.57
5604.00,1.57
5603.00,1.57
5602.00,1.58
5601.00,1.58
5600.00,1.58
5599.00,1.58
5598.00,1.58
5597.00,1.58
5596.00,1.58
5595.00,1.59
5594.00,1.59
5593.00,1.59
5592.00,1.59
5591.00,1.59
5590.00,1.59
5589.00,1.59
5588.00,1.59
5587.00,1.60
5586.00,1.60
5585.00,1.60
5584.00,1.60
5583.00,1.60
5582.00,1.60
5581.00,1.60
5580.00,1.60
5579.00,1.61
5578.00,1.61
5577.00,1.61
5576.00,1.61
5575.00,1.61
5574.00,1.61
5573.00,1.62
5572.00,1.62
5571.00,1.62
5570.00,1.62
5569.00,1.62
5568.00,1.63
5567.00,1.63
5566.00,1.63
5565.00,1.63
5564.00,1.64
5563.00,1.64
5562.00,1.64
5561.00,1.64
5560.00,1.64
5559.00,1.65
5558.00,1.65
5557.00,1.65
5556.00,1.65
5555.00,1.65
5554.00,1.65
5553.00,1.65
5552.00,1.66
5551.00,1.66
5550.00,1.66
5549.00,1.66
5548.00,1.66
5547.00,1.66
5546.00,1.66
5545.00,1.66
5544.00,1.66
5543.00,1.66
5542.00,1.66
5541.00,1.66
5540.00,1.66
5539.00,1.66
5538.00,1.66
5537.00,1.66
5536.00,1.66
5535.00,1.66
5534.00,1.66
5533.00,1.66
5532.00,1.66
5531.00,1.66
5530.00,1.67
5529.00,1.67
5528.00,1.67
5527.00,1.67
5526.00,1.67
5525.00,1.67
5524.00,1.67
5523.00,1.67
5522.00,1.67
5521.00,1.67
5520.00,1.67
5519.00,1.67
5518.00,1.67
5517.00,1.67
5516.00,1.68
5515.00,1.68
5514.00,1.68
5513.00,1.68
5512.00,1.68
5511.00,1.68
5510.00,1.69
5509.00,1.69
5508.00,1.69
5507.00,1.69
5506.00,1.70
5505.00,1.70
5504.00,1.70
5503.00,1.70
5502.00,1.71
5501.00,1.71
5500.00,1.71
5499.00,1.72
5498.00,1.72
5497.00,1.72
5496.00,1.73
5495.00,1.73
5494.00,1.73
5493.00,1.73
5492.00,1.74
5491.00,1.74
5490.00,1.74
5489.00,1.74
5488.00,1.75
5487.00,1.75
5486.00,1.75
5485.00,1.75
5484.00,1.75
5483.00,1.76
5482.00,1.76
5481.00,1.76
5480.00,1.76
5479.00,1.76
5478.00,1.76
5477.00,1.76
5476.00,1.76
5475.00,1.76
5474.00,1.76
5473.00,1.76
5472.00,1.76
5471.00,1.76
5470.00,1.76
5469.00,1.76
5468.00,1.76
5467.00,1.76
5466.00,1.76
5465.00,1.76
5464.00,1.76
5463.00,1.76
5462.00,1.76
5461.00,1.76
5460.00,1.77
5459.00,1.77
5458.00,1.77
5457.00,1.77
5456.00,1.77
5455.00,1.77
5454.00,1.77
5453.00,1.78
5452.00,1.78
5451.00,1.78
5450.00,1.78
5449.00,1.79
5448.00,1.79
5447.00,1.79
5446.00,1.79
5445.00,1.79
5444.00,1.80
5443.00,1.80
5442.00,1.80
5441.00,1.80
5440.00,1.80
5439.00,1.80
5438.00,1.80
5437.00,1.81
5436.00,1.81
5435.00,1.81
5434.00,1.81
5433.00,1.81
5432.00,1.81
5431.00,1.81
5430.00,1.81
5429.00,1.81
5428.00,1.81
5427.00,1.81
5426.00,1.81
5425.00,1.81
5424.00,1.81
5423.00,1.81
5422.00,1.80
5421.00,1.80
5420.00,1.80
5419.00,1.80
5418.00,1.80
5417.00,1.80
5416.00,1.80
5415.00,1.80
5414.00,1.80
5413.00,1.80
5412.00,1.80
5411.00,1.80
5410.00,1.80
5409.00,1.80
5408.00,1.80
5407.00,1.80
5406.00,1.80
5405.00,1.80
5404.00,1.80
5403.00,1.80
5402.00,1.80
5401.00,1.80
5400.00,1.80
5399.00,1.80
5398.00,1.80
5397.00,1.80
5396.00,1.80
5395.00,1.80
5394.00,1.80
5393.00,1.80
5392.00,1.80
5391.00,1.79
5390.00,1.79
5389.00,1.79
5388.00,1.79
5387.00,1.78
5386.00,1.78
5385.00,1.78
5384.00,1.77
5383.00,1.77
5382.00,1.77
5381.00,1.76
5380.00,1.76
5379.00,1.75
5378.00,1.75
5377.00,1.74
5376.00,1.74
5375.00,1.74
5374.00,1.73
5373.00,1.73
5372.00,1.72
5371.00,1.72
5370.00,1.71
5369.00,1.70
5368.00,1.70
5367.00,1.69
5366.00,1.69
5365.00,1.68
5364.00,1.68
5363.00,1.67
5362.00,1.67
5361.00,1.66
5360.00,1.66
5359.00,1.65
5358.00,1.65
5357.00,1.64
5356.00,1.64
5355.00,1.63
5354.00,1.62
5353.00,1.62
5352.00,1.61
5351.00,1.60
5350.00,1.59
5349.00,1.58
5348.00,1.58
5347.00,1.57
5346.00,1.56
5345.00,1.55
5344.00,1.54
5343.00,1.53
5342.00,1.51
5341.00,1.50
5340.00,1.49
5339.00,1.48
5338.00,1.47
5337.00,1.45
5336.00,1.44
5335.00,1.43
5334.00,1.41
5333.00,1.40
5332.00,1.38
5331.00,1.37
5330.00,1.35
5329.00,1.34
5328.00,1.32
5327.00,1.31
5326.00,1.29
5325.00,1.28
5324.00,1.27
5323.00,1.25
5322.00,1.24
5321.00,1.22
5320.00,1.21
5319.00,1.20
5318.00,1.18
5317.00,1.17
5316.00,1.16
5315.00,1.14
5314.00,1.13
5313.00,1.12
5312.00,1.11
5311.00,1.09
5310.00,1.08
5309.00,1.07
5308.00,1.06
5307.00,1.05
5306.00,1.04
5305.00,1.03
5304.00,1.02
5303.00,1.01
5302.00,1.00
5301.00,0.99
5300.00,0.98
5299.00,0.98
5298.00,0.97
5297.00,0.96
5296.00,0.95
5295.00,0.95
5294.00,0.94
5293.00,0.93
5292.00,0.92
5291.00,0.92
5290.00,0.91
5289.00,0.91
5288.00,0.90
5287.00,0.90
5286.00,0.89
5285.00,0.89
5284.00,0.88
5283.00,0.88
5282.00,0.88
5281.00,0.87
5280.00,0.87
5279.00,0.86
5278.00,0.86
5277.00,0.86
5276.00,0.85
5275.00,0.85
5274.00,0.85
5273.00,0.84
5272.00,0.84
5271.00,0.83
5270.00,0.83
5269.00,0.83
5268.00,0.82
5267.00,0.82
5266.00,0.82
5265.00,0.81
5264.00,0.81
5263.00,0.81
5262.00,0.80
5261.00,0.80
5260.00,0.80
5259.00,0.79
5258.00,0.79
5257.00,0.79
5256.00,0.79
5255.00,0.78
5254.00,0.78
5253.00,0.78
5252.00,0.77
5251.00,0.77
5250.00,0.77
5249.00,0.77
5248.00,0.77
5247.00,0.77
5246.00,0.77
5245.00,0.77
5244.00,0.77
5243.00,0.77
5242.00,0.77
5241.00,0.77
5240.00,0.77
5239.00,0.77
5238.00,0.77
5237.00,0.77
5236.00,0.77
5235.00,0.77
5234.00,0.77
5233.00,0.77
5232.00,0.77
5231.00,0.77
5230.00,0.77
5229.00,0.77
5228.00,0.77
5227.00,0.77
5226.00,0.77
5225.00,0.77
5224.00,0.77
5223.00,0.77
5222.00,0.77
5221.00,0.77
5220.00,0.77
5219.00,0.77
5218.00,0.77
5217.00,0.77
5216.00,0.77
5215.00,0.77
5214.00,0.77
5213.00,0.76
5212.00,0.76
5211.00,0.76
5210.00,0.76
5209.00,0.76
5208.00,0.76
5207.00,0.76
5206.00,0.76
5205.00,0.76
5204.00,0.76
5203.00,0.76
5202.00,0.76
5201.00,0.76
5200.00,0.76
5199.00,0.76
5198.00,0.76
5197.00,0.76
5196.00,0.76
5195.00,0.76
5194.00,0.76
5193.00,0.76
5192.00,0.76
5191.00,0.76
5190.00,0.76
5189.00,0.76
5188.00,0.76
5187.00,0.77
5186.00,0.77
5185.00,0.77
5184.00,0.77
5183.00,0.77
5182.00,0.77
5181.00,0.77
5180.00,0.77
5179.00,0.78
5178.00,0.78
5177.00,0.78
5176.00,0.78
5175.00,0.78
5174.00,0.78
5173.00,0.78
5172.00,0.78
5171.00,0.78
5170.00,0.78
5169.00,0.78
5168.00,0.79
5167.00,0.79
5166.00,0.79
5165.00,0.79
5164.00,0.79
5163.00,0.79
5162.00,0.79
5161.00,0.79
5160.00,0.79
5159.00,0.79
5158.00,0.79
5157.00,0.79
5156.00,0.79
5155.00,0.78
5154.00,0.78
5153.00,0.78
5152.00,0.78
5151.00,0.78
5150.00,0.78
5149.00,0.78
5148.00,0.78
5147.00,0.78
5146.00,0.78
5145.00,0.78
5144.00,0.78
5143.00,0.78
5142.00,0.78
5141.00,0.78
5140.00,0.78
5139.00,0.78
5138.00,0.78
5137.00,0.79
5136.00,0.79
5135.00,0.79
5134.00,0.79
5133.00,0.79
5132.00,0.79
5131.00,0.79
5130.00,0.79
5129.00,0.80
5128.00,0.80
5127.00,0.80
5126.00,0.80
5125.00,0.81
5124.00,0.81
5123.00,0.81
5122.00,0.81
5121.00,0.82
5120.00,0.82
5119.00,0.82
5118.00,0.82
5117.00,0.83
5116.00,0.83
5115.00,0.83
5114.00,0.83
5113.00,0.83
5112.00,0.84
5111.00,0.84
5110.00,0.84
5109.00,0.84
5108.00,0.84
5107.00,0.84
5106.00,0.85
5105.00,0.85
5104.00,0.85
5103.00,0.85
5102.00,0.85
5101.00,0.85
5100.00,0.85
5099.00,0.85
5098.00,0.85
5097.00,0.85
5096.00,0.85
5095.00,0.85
5094.00,0.85
5093.00,0.85
5092.00,0.85
5091.00,0.85
5090.00,0.85
5089.00,0.85
5088.00,0.84
5087.00,0.84
5086.00,0.84
5085.00,0.85
5084.00,0.85
5083.00,0.85
5082.00,0.85
5081.00,0.85
5080.00,0.85
5079.00,0.85
5078.00,0.85
5077.00,0.85
5076.00,0.86
5075.00,0.86
5074.00,0.86
5073.00,0.86
5072.00,0.86
5071.00,0.86
5070.00,0.87
5069.00,0.87
5068.00,0.87
5067.00,0.87
5066.00,0.87
5065.00,0.88
5064.00,0.88
5063.00,0.88
5062.00,0.88
5061.00,0.89
5060.00,0.89
5059.00,0.89
5058.00,0.89
5057.00,0.89
5056.00,0.90
5055.00,0.90
5054.00,0.90
5053.00,0.90
5052.00,0.90
5051.00,0.90
5050.00,0.90
5049.00,0.90
5048.00,0.91
5047.00,0.91
5046.00,0.91
5045.00,0.91
5044.00,0.91
5043.00,0.91
5042.00,0.91
5041.00,0.92
5040.00,0.92
5039.00,0.92
5038.00,0.92
5037.00,0.92
5036.00,0.92
5035.00,0.92
5034.00,0.92
5033.00,0.92
5032.00,0.92
5031.00,0.93
5030.00,0.93
5029.00,0.93
5028.00,0.93
5027.00,0.93
5026.00,0.93
5025.00,0.93
5024.00,0.93
5023.00,0.93
5022.00,0.93
5021.00,0.93
5020.00,0.93
5019.00,0.93
5018.00,0.94
5017.00,0.94
5016.00,0.94
5015.00,0.94
5014.00,0.94
5013.00,0.93
5012.00,0.93
5011.00,0.93
5010.00,0.93
5009.00,0.93
5008.00,0.93
5007.00,0.93
5006.00,0.93
5005.00,0.93
5004.00,0.93
5003.00,0.93
5002.00,0.93
5001.00,0.93
5000.00,0.93
4999.00,0.93
4998.00,0.93
4997.00,0.93
4996.00,0.93
4995.00,0.93
4994.00,0.93
4993.00,0.94
4992.00,0.94
4991.00,0.94
4990.00,0.94
4989.00,0.94
4988.00,0.94
4987.00,0.94
4986.00,0.95
4985.00,0.95
4984.00,0.95
4983.00,0.95
4982.00,0.96
4981.00,0.96
4980.00,0.96
4979.00,0.97
4978.00,0.97
4977.00,0.97
4976.00,0.98
4975.00,0.98
4974.00,0.98
4973.00,0.99
4972.00,0.99
4971.00,0.99
4970.00,0.99
4969.00,1.00
4968.00,1.00
4967.00,1.00
4966.00,1.00
4965.00,1.01
4964.00,1.01
4963.00,1.01
4962.00,1.01
4961.00,1.02
4960.00,1.02
4959.00,1.02
4958.00,1.03
4957.00,1.03
4956.00,1.03
4955.00,1.03
4954.00,1.04
4953.00,1.04
4952.00,1.04
4951.00,1.04
4950.00,1.05
4949.00,1.05
4948.00,1.05
4947.00,1.05
4946.00,1.05
4945.00,1.06
4944.00,1.06
4943.00,1.06
4942.00,1.06
4941.00,1.06
4940.00,1.06
4939.00,1.07
4938.00,1.07
4937.00,1.07
4936.00,1.07
4935.00,1.07
4934.00,1.07
4933.00,1.07
4932.00,1.07
4931.00,1.07
4930.00,1.07
4929.00,1.07
4928.00,1.07
4927.00,1.07
4926.00,1.07
4925.00,1.08
4924.00,1.08
4923.00,1.08
4922.00,1.08
4921.00,1.08
4920.00,1.08
4919.00,1.08
4918.00,1.08
4917.00,1.08
4916.00,1.08
4915.00,1.09
4914.00,1.09
4913.00,1.09
4912.00,1.09
4911.00,1.09
4910.00,1.09
4909.00,1.10
4908.00,1.10
4907.00,1.10
4906.00,1.10
4905.00,1.10
4904.00,1.10
4903.00,1.10
4902.00,1.10
4901.00,1.11
4900.00,1.11
4899.00,1.11
4898.00,1.11
4897.00,1.11
4896.00,1.11
4895.00,1.11
4894.00,1.11
4893.00,1.11
4892.00,1.11
4891.00,1.11
4890.00,1.11
4889.00,1.11
4888.00,1.11
4887.00,1.11
4886.00,1.11
4885.00,1.10
4884.00,1.10
4883.00,1.10
4882.00,1.10
4881.00,1.10
4880.00,1.10
4879.00,1.10
4878.00,1.10
4877.00,1.10
4876.00,1.10
4875.00,1.10
4874.00,1.10
4873.00,1.10
4872.00,1.10
4871.00,1.10
4870.00,1.10
4869.00,1.10
4868.00,1.10
4867.00,1.10
4866.00,1.10
4865.00,1.10
4864.00,1.10
4863.00,1.10
4862.00,1.10
4861.00,1.10
4860.00,1.10
4859.00,1.10
4858.00,1.10
4857.00,1.11
4856.00,1.11
4855.00,1.11
4854.00,1.11
4853.00,1.11
4852.00,1.11
4851.00,1.12
4850.00,1.12
4849.00,1.12
4848.00,1.12
4847.00,1.12
4846.00,1.12
4845.00,1.13
4844.00,1.13
4843.00,1.13
4842.00,1.14
4841.00,1.14
4840.00,1.14
4839.00,1.15
4838.00,1.15
4837.00,1.15
4836.00,1.15
4835.00,1.16
4834.00,1.16
4833.00,1.16
4832.00,1.16
4831.00,1.17
4830.00,1.17
4829.00,1.17
4828.00,1.17
4827.00,1.17
4826.00,1.18
4825.00,1.18
4824.00,1.18
4823.00,1.19
4822.00,1.19
4821.00,1.19
4820.00,1.19
4819.00,1.20
4818.00,1.20
4817.00,1.20
4816.00,1.20
4815.00,1.20
4814.00,1.21
4813.00,1.21
4812.00,1.21
4811.00,1.21
4810.00,1.22
4809.00,1.22
4808.00,1.22
4807.00,1.22
4806.00,1.23
4805.00,1.23
4804.00,1.23
4803.00,1.23
4802.00,1.24
4801.00,1.24
4800.00,1.24
4799.00,1.24
4798.00,1.25
4797.00,1.25
4796.00,1.25
4795.00,1.25
4794.00,1.26
4793.00,1.26
4792.00,1.26
4791.00,1.27
4790.00,1.27
4789.00,1.27
4788.00,1.28
4787.00,1.28
4786.00,1.29
4785.00,1.29
4784.00,1.29
4783.00,1.30
4782.00,1.30
4781.00,1.30
4780.00,1.31
4779.00,1.31
4778.00,1.31
4777.00,1.32
4776.00,1.32
4775.00,1.33
4774.00,1.33
4773.00,1.33
4772.00,1.34
4771.00,1.34
4770.00,1.35
4769.00,1.35
4768.00,1.35
4767.00,1.36
4766.00,1.36
4765.00,1.36
4764.00,1.36
4763.00,1.37
4762.00,1.37
4761.00,1.37
4760.00,1.37
4759.00,1.37
4758.00,1.38
4757.00,1.38
4756.00,1.38
4755.00,1.38
4754.00,1.38
4753.00,1.39
4752.00,1.39
4751.00,1.39
4750.00,1.39
4749.00,1.39
4748.00,1.40
4747.00,1.40
4746.00,1.40
4745.00,1.40
4744.00,1.40
4743.00,1.40
4742.00,1.41
4741.00,1.41
4740.00,1.41
4739.00,1.42
4738.00,1.42
4737.00,1.42
4736.00,1.43
4735.00,1.43
4734.00,1.43
4733.00,1.44
4732.00,1.44
4731.00,1.44
4730.00,1.45
4729.00,1.45
4728.00,1.45
4727.00,1.46
4726.00,1.46
4725.00,1.46
4724.00,1.46
4723.00,1.47
4722.00,1.47
4721.00,1.48
4720.00,1.48
4719.00,1.48
4718.00,1.49
4717.00,1.49
4716.00,1.49
4715.00,1.49
4714.00,1.50
4713.00,1.50
4712.00,1.50
4711.00,1.50
4710.00,1.51
4709.00,1.51
4708.00,1.51
4707.00,1.51
4706.00,1.52
4705.00,1.52
4704.00,1.52
4703.00,1.53
4702.00,1.53
4701.00,1.54
4700.00,1.54
4699.00,1.54
4698.00,1.55
4697.00,1.55
4696.00,1.56
4695.00,1.56
4694.00,1.56
4693.00,1.57
4692.00,1.57
4691.00,1.58
4690.00,1.58
4689.00,1.58
4688.00,1.59
4687.00,1.59
4686.00,1.59
4685.00,1.60
4684.00,1.60
4683.00,1.61
4682.00,1.61
4681.00,1.61
4680.00,1.62
4679.00,1.62
4678.00,1.62
4677.00,1.63
4676.00,1.63
4675.00,1.63
4674.00,1.63
4673.00,1.63
4672.00,1.64
4671.00,1.64
4670.00,1.64
4669.00,1.64
4668.00,1.64
4667.00,1.64
4666.00,1.64
4665.00,1.64
4664.00,1.65
4663.00,1.65
4662.00,1.65
4661.00,1.65
4660.00,1.65
4659.00,1.66
4658.00,1.66
4657.00,1.66
4656.00,1.66
4655.00,1.66
4654.00,1.66
4653.00,1.66
4652.00,1.67
4651.00,1.67
4650.00,1.67
4649.00,1.67
4648.00,1.67
4647.00,1.68
4646.00,1.68
4645.00,1.68
4644.00,1.69
4643.00,1.69
4642.00,1.69
4641.00,1.70
4640.00,1.70
4639.00,1.70
4638.00,1.70
4637.00,1.71
4636.00,1.71
4635.00,1.71
4634.00,1.71
4633.00,1.71
4632.00,1.72
4631.00,1.72
4630.00,1.72
4629.00,1.72
4628.00,1.72
4627.00,1.72
4626.00,1.73
4625.00,1.73
4624.00,1.73
4623.00,1.73
4622.00,1.73
4621.00,1.73
4620.00,1.73
4619.00,1.73
4618.00,1.73
4617.00,1.73
4616.00,1.73
4615.00,1.73
4614.00,1.73
4613.00,1.73
4612.00,1.73
4611.00,1.73
4610.00,1.73
4609.00,1.73
4608.00,1.73
4607.00,1.73
4606.00,1.73
4605.00,1.73
4604.00,1.73
4603.00,1.73
4602.00,1.73
4601.00,1.73
4600.00,1.73
4599.00,1.73
4598.00,1.73
4597.00,1.73
4596.00,1.73
4595.00,1.73
4594.00,1.73
4593.00,1.73
4592.00,1.73
4591.00,1.73
4590.00,1.74
4589.00,1.74
4588.00,1.74
4587.00,1.74
4586.00,1.75
4585.00,1.75
4584.00,1.75
4583.00,1.75
4582.00,1.76
4581.00,1.76
4580.00,1.76
4579.00,1.76
4578.00,1.76
4577.00,1.77
4576.00,1.77
4575.00,1.77
4574.00,1.77
4573.00,1.77
4572.00,1.77
4571.00,1.78
4570.00,1.78
4569.00,1.78
4568.00,1.78
4567.00,1.79
4566.00,1.79
4565.00,1.79
4564.00,1.79
4563.00,1.79
4562.00,1.79
4561.00,1.79
4560.00,1.79
4559.00,1.79
4558.00,1.79
4557.00,1.79
4556.00,1.79
4555.00,1.79
4554.00,1.79
4553.00,1.79
4552.00,1.79
4551.00,1.79
4550.00,1.80
4549.00,1.80
4548.00,1.80
4547.00,1.80
4546.00,1.80
4545.00,1.80
4544.00,1.80
4543.00,1.80
4542.00,1.80
4541.00,1.80
4540.00,1.80
4539.00,1.81
4538.00,1.81
4537.00,1.81
4536.00,1.81
4535.00,1.81
4534.00,1.81
4533.00,1.82
4532.00,1.82
4531.00,1.82
4530.00,1.82
4529.00,1.82
4528.00,1.83
4527.00,1.83
4526.00,1.83
4525.00,1.83
4524.00,1.83
4523.00,1.83
4522.00,1.83
4521.00,1.83
4520.00,1.83
4519.00,1.83
4518.00,1.83
4517.00,1.83
4516.00,1.83
4515.00,1.82
4514.00,1.82
4513.00,1.82
4512.00,1.82
4511.00,1.82
4510.00,1.82
4509.00,1.81
4508.00,1.81
4507.00,1.81
4506.00,1.81
4505.00,1.81
4504.00,1.80
4503.00,1.80
4502.00,1.80
4501.00,1.80
4500.00,1.80
4499.00,1.80
4498.00,1.80
4497.00,1.80
4496.00,1.79
4495.00,1.79
4494.00,1.79
4493.00,1.79
4492.00,1.79
4491.00,1.79
4490.00,1.79
4489.00,1.79
4488.00,1.79
4487.00,1.79
4486.00,1.79
4485.00,1.79
4484.00,1.79
4483.00,1.79
4482.00,1.78
4481.00,1.78
4480.00,1.78
4479.00,1.78
4478.00,1.78
4477.00,1.78
4476.00,1.78
4475.00,1.78
4474.00,1.77
4473.00,1.77
4472.00,1.77
4471.00,1.77
4470.00,1.77
4469.00,1.76
4468.00,1.76
4467.00,1.76
4466.00,1.75
4465.00,1.75
4464.00,1.74
4463.00,1.74
4462.00,1.73
4461.00,1.73
4460.00,1.72
4459.00,1.71
4458.00,1.71
4457.00,1.70
4456.00,1.69
4455.00,1.68
4454.00,1.68
4453.00,1.67
4452.00,1.66
4451.00,1.65
4450.00,1.63
4449.00,1.62
4448.00,1.61
4447.00,1.60
4446.00,1.59
4445.00,1.58
4444.00,1.57
4443.00,1.56
4442.00,1.55
4441.00,1.54
4440.00,1.52
4439.00,1.51
4438.00,1.50
4437.00,1.49
4436.00,1.48
4435.00,1.47
4434.00,1.46
4433.00,1.45
4432.00,1.44
4431.00,1.43
4430.00,1.42
4429.00,1.41
4428.00,1.41
4427.00,1.40
4426.00,1.39
4425.00,1.39
4424.00,1.38
4423.00,1.38
4422.00,1.37
4421.00,1.36
4420.00,1.36
4419.00,1.36
4418.00,1.35
4417.00,1.35
4416.00,1.35
4415.00,1.34
4414.00,1.34
4413.00,1.34
4412.00,1.34
4411.00,1.33
4410.00,1.33
4409.00,1.33
4408.00,1.33
4407.00,1.33
4406.00,1.33
4405.00,1.34
4404.00,1.34
4403.00,1.34
4402.00,1.35
4401.00,1.35
4400.00,1.35
4399.00,1.36
4398.00,1.36
4397.00,1.37
4396.00,1.37
4395.00,1.38
4394.00,1.39
4393.00,1.39
4392.00,1.40
4391.00,1.40
4390.00,1.41
4389.00,1.41
4388.00,1.42
4387.00,1.42
4386.00,1.43
4385.00,1.44
4384.00,1.44
4383.00,1.44
4382.00,1.45
4381.00,1.45
4380.00,1.46
4379.00,1.46
4378.00,1.46
4377.00,1.47
4376.00,1.47
4375.00,1.47
4374.00,1.47
4373.00,1.47
4372.00,1.47
4371.00,1.46
4370.00,1.46
4369.00,1.46
4368.00,1.46
4367.00,1.46
4366.00,1.46
4365.00,1.46
4364.00,1.45
4363.00,1.45
4362.00,1.45
4361.00,1.45
4360.00,1.45
4359.00,1.44
4358.00,1.44
4357.00,1.44
4356.00,1.44
4355.00,1.44
4354.00,1.43
4353.00,1.43
4352.00,1.43
4351.00,1.43
4350.00,1.43
4349.00,1.43
4348.00,1.42
4347.00,1.42
4346.00,1.42
4345.00,1.42
4344.00,1.42
4343.00,1.42
4342.00,1.42
4341.00,1.42
4340.00,1.42
4339.00,1.42
4338.00,1.42
4337.00,1.42
4336.00,1.42
4335.00,1.42
4334.00,1.42
4333.00,1.42
4332.00,1.43
4331.00,1.43
4330.00,1.43
4329.00,1.43
4328.00,1.44
4327.00,1.44
4326.00,1.44
4325.00,1.44
4324.00,1.45
4323.00,1.45
4322.00,1.45
4321.00,1.45
4320.00,1.46
4319.00,1.46
4318.00,1.47
4317.00,1.47
4316.00,1.48
4315.00,1.48
4314.00,1.49
4313.00,1.49
4312.00,1.50
4311.00,1.50
4310.00,1.51
4309.00,1.51
4308.00,1.52
4307.00,1.53
4306.00,1.53
4305.00,1.54
4304.00,1.54
4303.00,1.55
4302.00,1.55
4301.00,1.56
4300.00,1.56
4299.00,1.57
4298.00,1.57
4297.00,1.58
4296.00,1.58
4295.00,1.59
4294.00,1.59
4293.00,1.59
4292.00,1.60
4291.00,1.60
4290.00,1.60
4289.00,1.60
4288.00,1.61
4287.00,1.61
4286.00,1.61
4285.00,1.61
4284.00,1.61
4283.00,1.61
4282.00,1.61
4281.00,1.61
4280.00,1.61
4279.00,1.60
4278.00,1.60
4277.00,1.60
4276.00,1.60
4275.00,1.60
4274.00,1.60
4273.00,1.60
4272.00,1.60
4271.00,1.59
4270.00,1.59
4269.00,1.59
4268.00,1.58
4267.00,1.58
4266.00,1.58
4265.00,1.58
4264.00,1.57
4263.00,1.57
4262.00,1.57
4261.00,1.57
4260.00,1.56
4259.00,1.56
4258.00,1.56
4257.00,1.56
4256.00,1.56
4255.00,1.55
4254.00,1.55
4253.00,1.55
4252.00,1.55
4251.00,1.55
4250.00,1.55
4249.00,1.55
4248.00,1.54
4247.00,1.54
4246.00,1.54
4245.00,1.54
4244.00,1.54
4243.00,1.54
4242.00,1.55
4241.00,1.55
4240.00,1.55
4239.00,1.55
4238.00,1.55
4237.00,1.56
4236.00,1.56
4235.00,1.56
4234.00,1.57
4233.00,1.57
4232.00,1.57
4231.00,1.57
4230.00,1.57
4229.00,1.58
4228.00,1.58
4227.00,1.58
4226.00,1.58
4225.00,1.58
4224.00,1.59
4223.00,1.59
4222.00,1.59
4221.00,1.59
4220.00,1.59
4219.00,1.60
4218.00,1.60
4217.00,1.60
4216.00,1.60
4215.00,1.60
4214.00,1.61
4213.00,1.61
4212.00,1.61
4211.00,1.61
4210.00,1.61
4209.00,1.61
4208.00,1.61
4207.00,1.62
4206.00,1.62
4205.00,1.62
4204.00,1.63
4203.00,1.63
4202.00,1.63
4201.00,1.64
4200.00,1.64
4199.00,1.65
4198.00,1.65
4197.00,1.65
4196.00,1.66
4195.00,1.66
4194.00,1.66
4193.00,1.67
4192.00,1.67
4191.00,1.67
4190.00,1.68
4189.00,1.68
4188.00,1.68
4187.00,1.68
4186.00,1.68
4185.00,1.69
4184.00,1.69
4183.00,1.69
4182.00,1.69
4181.00,1.69
4180.00,1.70
4179.00,1.70
4178.00,1.70
4177.00,1.70
4176.00,1.70
4175.00,1.70
4174.00,1.70
4173.00,1.70
4172.00,1.70
4171.00,1.70
4170.00,1.70
4169.00,1.69
4168.00,1.69
4167.00,1.69
4166.00,1.69
4165.00,1.69
4164.00,1.69
4163.00,1.69
4162.00,1.69
4161.00,1.69
4160.00,1.69
4159.00,1.69
4158.00,1.69
4157.00,1.69
4156.00,1.69
4155.00,1.68
4154.00,1.68
4153.00,1.68
4152.00,1.67
4151.00,1.67
4150.00,1.67
4149.00,1.66
4148.00,1.66
4147.00,1.65
4146.00,1.65
4145.00,1.65
4144.00,1.65
4143.00,1.64
4142.00,1.64
4141.00,1.64
4140.00,1.63
4139.00,1.63
4138.00,1.63
4137.00,1.62
4136.00,1.62
4135.00,1.62
4134.00,1.61
4133.00,1.61
4132.00,1.61
4131.00,1.60
4130.00,1.60
4129.00,1.60
4128.00,1.60
4127.00,1.60
4126.00,1.60
4125.00,1.60
4124.00,1.60
4123.00,1.60
4122.00,1.60
4121.00,1.60
4120.00,1.61
4119.00,1.61
4118.00,1.61
4117.00,1.61
4116.00,1.61
4115.00,1.61
4114.00,1.61
4113.00,1.62
4112.00,1.62
4111.00,1.62
4110.00,1.63
4109.00,1.63
4108.00,1.63
4107.00,1.64
4106.00,1.64
4105.00,1.65
4104.00,1.65
4103.00,1.66
4102.00,1.66
4101.00,1.66
4100.00,1.67
4099.00,1.67
4098.00,1.67
4097.00,1.68
4096.00,1.68
4095.00,1.68
4094.00,1.68
4093.00,1.69
4092.00,1.69
4091.00,1.69
4090.00,1.70
4089.00,1.70
4088.00,1.70
4087.00,1.71
4086.00,1.71
4085.00,1.71
4084.00,1.71
4083.00,1.71
4082.00,1.71
4081.00,1.71
4080.00,1.71
4079.00,1.71
4078.00,1.71
4077.00,1.71
4076.00,1.71
4075.00,1.70
4074.00,1.70
4073.00,1.70
4072.00,1.70
4071.00,1.70
4070.00,1.70
4069.00,1.70
4068.00,1.69
4067.00,1.69
4066.00,1.69
4065.00,1.69
4064.00,1.68
4063.00,1.68
4062.00,1.68
4061.00,1.67
4060.00,1.67
4059.00,1.67
4058.00,1.67
4057.00,1.66
4056.00,1.66
4055.00,1.66
4054.00,1.66
4053.00,1.66
4052.00,1.66
4051.00,1.65
4050.00,1.65
4049.00,1.65
4048.00,1.65
4047.00,1.65
4046.00,1.65
4045.00,1.64
4044.00,1.64
4043.00,1.64
4042.00,1.64
4041.00,1.64
4040.00,1.63
4039.00,1.63
4038.00,1.63
4037.00,1.63
4036.00,1.63
4035.00,1.64
4034.00,1.64
4033.00,1.64
4032.00,1.64
4031.00,1.64
4030.00,1.65
4029.00,1.65
4028.00,1.65
4027.00,1.65
4026.00,1.65
4025.00,1.65
4024.00,1.66
4023.00,1.66
4022.00,1.67
4021.00,1.67
4020.00,1.68
4019.00,1.69
4018.00,1.69
4017.00,1.70
4016.00,1.71
4015.00,1.72
4014.00,1.73
4013.00,1.74
4012.00,1.75
4011.00,1.76
4010.00,1.77
4009.00,1.78
4008.00,1.79
4007.00,1.80
4006.00,1.81
4005.00,1.82
4004.00,1.83
4003.00,1.84
4002.00,1.85
4001.00,1.86
4000.00,1.88
