创建为新数据集,样品 204 用户 Administrator 日期 星期六, 七月 27 2019
cm-1,%T
10000.00,1.97
9999.00,1.96
9998.00,1.95
9997.00,1.94
9996.00,1.93
9995.00,1.92
9994.00,1.91
9993.00,1.90
9992.00,1.89
9991.00,1.88
9990.00,1.88
9989.00,1.87
9988.00,1.86
9987.00,1.86
9986.00,1.86
9985.00,1.85
9984.00,1.85
9983.00,1.85
9982.00,1.85
9981.00,1.85
9980.00,1.85
9979.00,1.85
9978.00,1.85
9977.00,1.85
9976.00,1.85
9975.00,1.86
9974.00,1.86
9973.00,1.86
9972.00,1.86
9971.00,1.87
9970.00,1.87
9969.00,1.87
9968.00,1.87
9967.00,1.87
9966.00,1.87
9965.00,1.87
9964.00,1.87
9963.00,1.87
9962.00,1.87
9961.00,1.87
9960.00,1.87
9959.00,1.87
9958.00,1.87
9957.00,1.87
9956.00,1.87
9955.00,1.87
9954.00,1.87
9953.00,1.87
9952.00,1.87
9951.00,1.87
9950.00,1.87
9949.00,1.87
9948.00,1.87
9947.00,1.87
9946.00,1.86
9945.00,1.86
9944.00,1.86
9943.00,1.85
9942.00,1.85
9941.00,1.85
9940.00,1.85
9939.00,1.84
9938.00,1.84
9937.00,1.84
9936.00,1.83
9935.00,1.83
9934.00,1.83
9933.00,1.82
9932.00,1.82
9931.00,1.81
9930.00,1.81
9929.00,1.80
9928.00,1.79
9927.00,1.79
9926.00,1.78
9925.00,1.78
9924.00,1.77
9923.00,1.77
9922.00,1.77
9921.00,1.77
9920.00,1.76
9919.00,1.76
9918.00,1.76
9917.00,1.76
9916.00,1.77
9915.00,1.77
9914.00,1.77
9913.00,1.77
9912.00,1.77
9911.00,1.77
9910.00,1.77
9909.00,1.77
9908.00,1.77
9907.00,1.78
9906.00,1.78
9905.00,1.78
9904.00,1.79
9903.00,1.79
9902.00,1.79
9901.00,1.80
9900.00,1.80
9899.00,1.81
9898.00,1.81
9897.00,1.81
9896.00,1.82
9895.00,1.82
9894.00,1.82
9893.00,1.83
9892.00,1.83
9891.00,1.83
9890.00,1.83
9889.00,1.84
9888.00,1.84
9887.00,1.84
9886.00,1.85
9885.00,1.85
9884.00,1.85
9883.00,1.85
9882.00,1.85
9881.00,1.86
9880.00,1.86
9879.00,1.86
9878.00,1.86
9877.00,1.86
9876.00,1.86
9875.00,1.86
9874.00,1.86
9873.00,1.86
9872.00,1.85
9871.00,1.85
9870.00,1.84
9869.00,1.84
9868.00,1.83
9867.00,1.82
9866.00,1.81
9865.00,1.80
9864.00,1.79
9863.00,1.79
9862.00,1.78
9861.00,1.77
9860.00,1.76
9859.00,1.75
9858.00,1.74
9857.00,1.74
9856.00,1.73
9855.00,1.73
9854.00,1.72
9853.00,1.72
9852.00,1.72
9851.00,1.71
9850.00,1.71
9849.00,1.71
9848.00,1.71
9847.00,1.71
9846.00,1.71
9845.00,1.71
9844.00,1.71
9843.00,1.72
9842.00,1.72
9841.00,1.73
9840.00,1.73
9839.00,1.74
9838.00,1.75
9837.00,1.76
9836.00,1.77
9835.00,1.78
9834.00,1.79
9833.00,1.79
9832.00,1.80
9831.00,1.80
9830.00,1.81
9829.00,1.81
9828.00,1.81
9827.00,1.81
9826.00,1.81
9825.00,1.81
9824.00,1.81
9823.00,1.81
9822.00,1.81
9821.00,1.81
9820.00,1.80
9819.00,1.80
9818.00,1.80
9817.00,1.79
9816.00,1.79
9815.00,1.78
9814.00,1.77
9813.00,1.77
9812.00,1.76
9811.00,1.75
9810.00,1.74
9809.00,1.74
9808.00,1.73
9807.00,1.72
9806.00,1.72
9805.00,1.71
9804.00,1.71
9803.00,1.71
9802.00,1.70
9801.00,1.70
9800.00,1.70
9799.00,1.70
9798.00,1.70
9797.00,1.69
9796.00,1.69
9795.00,1.69
9794.00,1.69
9793.00,1.69
9792.00,1.69
9791.00,1.69
9790.00,1.69
9789.00,1.69
9788.00,1.69
9787.00,1.69
9786.00,1.69
9785.00,1.69
9784.00,1.69
9783.00,1.69
9782.00,1.68
9781.00,1.68
9780.00,1.68
9779.00,1.68
9778.00,1.67
9777.00,1.67
9776.00,1.67
9775.00,1.67
9774.00,1.66
9773.00,1.66
9772.00,1.66
9771.00,1.66
9770.00,1.66
9769.00,1.65
9768.00,1.65
9767.00,1.65
9766.00,1.65
9765.00,1.65
9764.00,1.65
9763.00,1.65
9762.00,1.66
9761.00,1.66
9760.00,1.66
9759.00,1.67
9758.00,1.67
9757.00,1.67
9756.00,1.68
9755.00,1.68
9754.00,1.69
9753.00,1.69
9752.00,1.70
9751.00,1.70
9750.00,1.71
9749.00,1.71
9748.00,1.72
9747.00,1.72
9746.00,1.73
9745.00,1.73
9744.00,1.73
9743.00,1.73
9742.00,1.73
9741.00,1.74
9740.00,1.74
9739.00,1.74
9738.00,1.74
9737.00,1.74
9736.00,1.73
9735.00,1.73
9734.00,1.73
9733.00,1.72
9732.00,1.72
9731.00,1.72
9730.00,1.71
9729.00,1.71
9728.00,1.70
9727.00,1.70
9726.00,1.70
9725.00,1.69
9724.00,1.69
9723.00,1.69
9722.00,1.69
9721.00,1.69
9720.00,1.69
9719.00,1.69
9718.00,1.69
9717.00,1.69
9716.00,1.69
9715.00,1.70
9714.00,1.70
9713.00,1.71
9712.00,1.71
9711.00,1.72
9710.00,1.73
9709.00,1.73
9708.00,1.74
9707.00,1.75
9706.00,1.76
9705.00,1.76
9704.00,1.77
9703.00,1.77
9702.00,1.78
9701.00,1.78
9700.00,1.79
9699.00,1.79
9698.00,1.79
9697.00,1.79
9696.00,1.79
9695.00,1.80
9694.00,1.80
9693.00,1.79
9692.00,1.79
9691.00,1.79
9690.00,1.79
9689.00,1.79
9688.00,1.78
9687.00,1.78
9686.00,1.77
9685.00,1.77
9684.00,1.77
9683.00,1.76
9682.00,1.76
9681.00,1.76
9680.00,1.75
9679.00,1.75
9678.00,1.75
9677.00,1.75
9676.00,1.75
9675.00,1.75
9674.00,1.75
9673.00,1.75
9672.00,1.76
9671.00,1.76
9670.00,1.76
9669.00,1.77
9668.00,1.77
9667.00,1.78
9666.00,1.78
9665.00,1.79
9664.00,1.79
9663.00,1.80
9662.00,1.80
9661.00,1.81
9660.00,1.81
9659.00,1.81
9658.00,1.82
9657.00,1.82
9656.00,1.82
9655.00,1.82
9654.00,1.82
9653.00,1.82
9652.00,1.83
9651.00,1.83
9650.00,1.83
9649.00,1.83
9648.00,1.83
9647.00,1.83
9646.00,1.83
9645.00,1.83
9644.00,1.83
9643.00,1.82
9642.00,1.82
9641.00,1.82
9640.00,1.81
9639.00,1.81
9638.00,1.81
9637.00,1.81
9636.00,1.80
9635.00,1.80
9634.00,1.80
9633.00,1.80
9632.00,1.79
9631.00,1.79
9630.00,1.79
9629.00,1.79
9628.00,1.79
9627.00,1.78
9626.00,1.78
9625.00,1.78
9624.00,1.77
9623.00,1.77
9622.00,1.77
9621.00,1.76
9620.00,1.76
9619.00,1.76
9618.00,1.75
9617.00,1.75
9616.00,1.75
9615.00,1.75
9614.00,1.75
9613.00,1.75
9612.00,1.75
9611.00,1.75
9610.00,1.75
9609.00,1.75
9608.00,1.75
9607.00,1.76
9606.00,1.76
9605.00,1.76
9604.00,1.76
9603.00,1.76
9602.00,1.76
9601.00,1.77
9600.00,1.77
9599.00,1.77
9598.00,1.78
9597.00,1.78
9596.00,1.78
9595.00,1.79
9594.00,1.79
9593.00,1.79
9592.00,1.80
9591.00,1.80
9590.00,1.80
9589.00,1.80
9588.00,1.81
9587.00,1.81
9586.00,1.81
9585.00,1.81
9584.00,1.81
9583.00,1.80
9582.00,1.80
9581.00,1.80
9580.00,1.79
9579.00,1.79
9578.00,1.79
9577.00,1.78
9576.00,1.78
9575.00,1.78
9574.00,1.77
9573.00,1.77
9572.00,1.77
9571.00,1.77
9570.00,1.77
9569.00,1.77
9568.00,1.77
9567.00,1.77
9566.00,1.77
9565.00,1.77
9564.00,1.77
9563.00,1.77
9562.00,1.77
9561.00,1.77
9560.00,1.77
9559.00,1.77
9558.00,1.77
9557.00,1.77
9556.00,1.78
9555.00,1.78
9554.00,1.78
9553.00,1.79
9552.00,1.79
9551.00,1.80
9550.00,1.80
9549.00,1.80
9548.00,1.80
9547.00,1.80
9546.00,1.80
9545.00,1.80
9544.00,1.80
9543.00,1.79
9542.00,1.79
9541.00,1.78
9540.00,1.77
9539.00,1.77
9538.00,1.76
9537.00,1.76
9536.00,1.76
9535.00,1.75
9534.00,1.75
9533.00,1.75
9532.00,1.74
9531.00,1.74
9530.00,1.74
9529.00,1.73
9528.00,1.73
9527.00,1.72
9526.00,1.72
9525.00,1.72
9524.00,1.71
9523.00,1.71
9522.00,1.71
9521.00,1.71
9520.00,1.71
9519.00,1.71
9518.00,1.72
9517.00,1.72
9516.00,1.73
9515.00,1.74
9514.00,1.74
9513.00,1.75
9512.00,1.76
9511.00,1.76
9510.00,1.77
9509.00,1.78
9508.00,1.78
9507.00,1.79
9506.00,1.79
9505.00,1.80
9504.00,1.81
9503.00,1.81
9502.00,1.82
9501.00,1.82
9500.00,1.83
9499.00,1.83
9498.00,1.84
9497.00,1.84
9496.00,1.84
9495.00,1.84
9494.00,1.84
9493.00,1.84
9492.00,1.84
9491.00,1.84
9490.00,1.84
9489.00,1.84
9488.00,1.84
9487.00,1.83
9486.00,1.83
9485.00,1.83
9484.00,1.83
9483.00,1.82
9482.00,1.82
9481.00,1.82
9480.00,1.81
9479.00,1.81
9478.00,1.80
9477.00,1.80
9476.00,1.79
9475.00,1.79
9474.00,1.78
9473.00,1.78
9472.00,1.77
9471.00,1.77
9470.00,1.76
9469.00,1.76
9468.00,1.76
9467.00,1.76
9466.00,1.75
9465.00,1.75
9464.00,1.75
9463.00,1.75
9462.00,1.74
9461.00,1.74
9460.00,1.74
9459.00,1.74
9458.00,1.74
9457.00,1.74
9456.00,1.73
9455.00,1.73
9454.00,1.73
9453.00,1.73
9452.00,1.73
9451.00,1.73
9450.00,1.74
9449.00,1.74
9448.00,1.74
9447.00,1.74
9446.00,1.74
9445.00,1.74
9444.00,1.74
9443.00,1.74
9442.00,1.74
9441.00,1.73
9440.00,1.73
9439.00,1.73
9438.00,1.73
9437.00,1.72
9436.00,1.72
9435.00,1.71
9434.00,1.71
9433.00,1.70
9432.00,1.70
9431.00,1.69
9430.00,1.69
9429.00,1.68
9428.00,1.68
9427.00,1.67
9426.00,1.66
9425.00,1.65
9424.00,1.65
9423.00,1.64
9422.00,1.63
9421.00,1.63
9420.00,1.62
9419.00,1.62
9418.00,1.61
9417.00,1.61
9416.00,1.61
9415.00,1.61
9414.00,1.60
9413.00,1.60
9412.00,1.60
9411.00,1.60
9410.00,1.60
9409.00,1.61
9408.00,1.61
9407.00,1.61
9406.00,1.61
9405.00,1.61
9404.00,1.62
9403.00,1.62
9402.00,1.63
9401.00,1.63
9400.00,1.64
9399.00,1.64
9398.00,1.65
9397.00,1.65
9396.00,1.65
9395.00,1.66
9394.00,1.66
9393.00,1.67
9392.00,1.67
9391.00,1.67
9390.00,1.67
9389.00,1.67
9388.00,1.68
9387.00,1.68
9386.00,1.68
9385.00,1.68
9384.00,1.69
9383.00,1.69
9382.00,1.69
9381.00,1.69
9380.00,1.69
9379.00,1.69
9378.00,1.69
9377.00,1.70
9376.00,1.70
9375.00,1.70
9374.00,1.70
9373.00,1.70
9372.00,1.70
9371.00,1.70
9370.00,1.70
9369.00,1.70
9368.00,1.70
9367.00,1.70
9366.00,1.70
9365.00,1.71
9364.00,1.71
9363.00,1.71
9362.00,1.71
9361.00,1.71
9360.00,1.71
9359.00,1.72
9358.00,1.72
9357.00,1.72
9356.00,1.72
9355.00,1.72
9354.00,1.72
9353.00,1.72
9352.00,1.72
9351.00,1.72
9350.00,1.73
9349.00,1.73
9348.00,1.73
9347.00,1.73
9346.00,1.73
9345.00,1.74
9344.00,1.74
9343.00,1.74
9342.00,1.74
9341.00,1.75
9340.00,1.75
9339.00,1.75
9338.00,1.76
9337.00,1.76
9336.00,1.76
9335.00,1.76
9334.00,1.77
9333.00,1.77
9332.00,1.77
9331.00,1.78
9330.00,1.78
9329.00,1.78
9328.00,1.79
9327.00,1.79
9326.00,1.79
9325.00,1.79
9324.00,1.80
9323.00,1.80
9322.00,1.80
9321.00,1.80
9320.00,1.81
9319.00,1.81
9318.00,1.81
9317.00,1.81
9316.00,1.81
9315.00,1.81
9314.00,1.81
9313.00,1.81
9312.00,1.81
9311.00,1.81
9310.00,1.81
9309.00,1.80
9308.00,1.80
9307.00,1.80
9306.00,1.79
9305.00,1.79
9304.00,1.78
9303.00,1.78
9302.00,1.77
9301.00,1.77
9300.00,1.76
9299.00,1.76
9298.00,1.75
9297.00,1.75
9296.00,1.74
9295.00,1.74
9294.00,1.73
9293.00,1.73
9292.00,1.72
9291.00,1.72
9290.00,1.71
9289.00,1.71
9288.00,1.70
9287.00,1.70
9286.00,1.70
9285.00,1.69
9284.00,1.69
9283.00,1.69
9282.00,1.69
9281.00,1.68
9280.00,1.68
9279.00,1.68
9278.00,1.68
9277.00,1.68
9276.00,1.68
9275.00,1.68
9274.00,1.68
9273.00,1.68
9272.00,1.68
9271.00,1.68
9270.00,1.68
9269.00,1.68
9268.00,1.67
9267.00,1.67
9266.00,1.67
9265.00,1.66
9264.00,1.66
9263.00,1.66
9262.00,1.65
9261.00,1.65
9260.00,1.65
9259.00,1.65
9258.00,1.65
9257.00,1.64
9256.00,1.64
9255.00,1.64
9254.00,1.64
9253.00,1.64
9252.00,1.63
9251.00,1.63
9250.00,1.63
9249.00,1.63
9248.00,1.63
9247.00,1.62
9246.00,1.62
9245.00,1.62
9244.00,1.62
9243.00,1.62
9242.00,1.62
9241.00,1.63
9240.00,1.63
9239.00,1.63
9238.00,1.64
9237.00,1.64
9236.00,1.64
9235.00,1.65
9234.00,1.65
9233.00,1.65
9232.00,1.66
9231.00,1.66
9230.00,1.66
9229.00,1.66
9228.00,1.67
9227.00,1.67
9226.00,1.68
9225.00,1.68
9224.00,1.69
9223.00,1.69
9222.00,1.70
9221.00,1.70
9220.00,1.71
9219.00,1.72
9218.00,1.72
9217.00,1.73
9216.00,1.73
9215.00,1.73
9214.00,1.74
9213.00,1.74
9212.00,1.74
9211.00,1.74
9210.00,1.74
9209.00,1.75
9208.00,1.75
9207.00,1.75
9206.00,1.75
9205.00,1.75
9204.00,1.76
9203.00,1.76
9202.00,1.76
9201.00,1.76
9200.00,1.76
9199.00,1.76
9198.00,1.75
9197.00,1.75
9196.00,1.75
9195.00,1.75
9194.00,1.74
9193.00,1.74
9192.00,1.74
9191.00,1.73
9190.00,1.73
9189.00,1.73
9188.00,1.72
9187.00,1.72
9186.00,1.72
9185.00,1.72
9184.00,1.72
9183.00,1.72
9182.00,1.72
9181.00,1.72
9180.00,1.71
9179.00,1.71
9178.00,1.71
9177.00,1.71
9176.00,1.71
9175.00,1.71
9174.00,1.71
9173.00,1.71
9172.00,1.71
9171.00,1.71
9170.00,1.72
9169.00,1.72
9168.00,1.72
9167.00,1.72
9166.00,1.72
9165.00,1.73
9164.00,1.73
9163.00,1.74
9162.00,1.74
9161.00,1.75
9160.00,1.75
9159.00,1.76
9158.00,1.76
9157.00,1.77
9156.00,1.77
9155.00,1.78
9154.00,1.79
9153.00,1.79
9152.00,1.80
9151.00,1.80
9150.00,1.81
9149.00,1.82
9148.00,1.82
9147.00,1.83
9146.00,1.83
9145.00,1.84
9144.00,1.85
9143.00,1.85
9142.00,1.86
9141.00,1.87
9140.00,1.87
9139.00,1.88
9138.00,1.88
9137.00,1.88
9136.00,1.89
9135.00,1.89
9134.00,1.89
9133.00,1.89
9132.00,1.89
9131.00,1.89
9130.00,1.89
9129.00,1.88
9128.00,1.88
9127.00,1.88
9126.00,1.87
9125.00,1.87
9124.00,1.86
9123.00,1.86
9122.00,1.85
9121.00,1.84
9120.00,1.84
9119.00,1.83
9118.00,1.82
9117.00,1.82
9116.00,1.81
9115.00,1.80
9114.00,1.79
9113.00,1.79
9112.00,1.78
9111.00,1.77
9110.00,1.77
9109.00,1.76
9108.00,1.76
9107.00,1.75
9106.00,1.75
9105.00,1.74
9104.00,1.74
9103.00,1.74
9102.00,1.74
9101.00,1.74
9100.00,1.74
9099.00,1.74
9098.00,1.74
9097.00,1.74
9096.00,1.74
9095.00,1.74
9094.00,1.74
9093.00,1.74
9092.00,1.74
9091.00,1.74
9090.00,1.74
9089.00,1.74
9088.00,1.75
9087.00,1.75
9086.00,1.75
9085.00,1.75
9084.00,1.75
9083.00,1.75
9082.00,1.74
9081.00,1.74
9080.00,1.74
9079.00,1.74
9078.00,1.74
9077.00,1.73
9076.00,1.73
9075.00,1.73
9074.00,1.73
9073.00,1.73
9072.00,1.73
9071.00,1.73
9070.00,1.73
9069.00,1.73
9068.00,1.73
9067.00,1.73
9066.00,1.72
9065.00,1.72
9064.00,1.72
9063.00,1.72
9062.00,1.72
9061.00,1.72
9060.00,1.73
9059.00,1.73
9058.00,1.73
9057.00,1.73
9056.00,1.73
9055.00,1.73
9054.00,1.74
9053.00,1.74
9052.00,1.74
9051.00,1.74
9050.00,1.74
9049.00,1.74
9048.00,1.74
9047.00,1.74
9046.00,1.73
9045.00,1.73
9044.00,1.73
9043.00,1.73
9042.00,1.72
9041.00,1.72
9040.00,1.72
9039.00,1.72
9038.00,1.71
9037.00,1.71
9036.00,1.71
9035.00,1.71
9034.00,1.71
9033.00,1.71
9032.00,1.70
9031.00,1.70
9030.00,1.70
9029.00,1.70
9028.00,1.70
9027.00,1.70
9026.00,1.70
9025.00,1.70
9024.00,1.70
9023.00,1.70
9022.00,1.70
9021.00,1.70
9020.00,1.71
9019.00,1.71
9018.00,1.71
9017.00,1.72
9016.00,1.72
9015.00,1.72
9014.00,1.73
9013.00,1.73
9012.00,1.74
9011.00,1.74
9010.00,1.75
9009.00,1.75
9008.00,1.76
9007.00,1.76
9006.00,1.76
9005.00,1.77
9004.00,1.77
9003.00,1.77
9002.00,1.78
9001.00,1.78
9000.00,1.79
8999.00,1.79
8998.00,1.79
8997.00,1.80
8996.00,1.80
8995.00,1.80
8994.00,1.81
8993.00,1.81
8992.00,1.81
8991.00,1.81
8990.00,1.81
8989.00,1.82
8988.00,1.82
8987.00,1.82
8986.00,1.82
8985.00,1.82
8984.00,1.82
8983.00,1.82
8982.00,1.83
8981.00,1.83
8980.00,1.83
8979.00,1.83
8978.00,1.83
8977.00,1.83
8976.00,1.83
8975.00,1.83
8974.00,1.84
8973.00,1.84
8972.00,1.84
8971.00,1.84
8970.00,1.84
8969.00,1.84
8968.00,1.84
8967.00,1.85
8966.00,1.85
8965.00,1.85
8964.00,1.85
8963.00,1.85
8962.00,1.85
8961.00,1.85
8960.00,1.84
8959.00,1.84
8958.00,1.84
8957.00,1.84
8956.00,1.84
8955.00,1.84
8954.00,1.83
8953.00,1.83
8952.00,1.83
8951.00,1.83
8950.00,1.83
8949.00,1.82
8948.00,1.82
8947.00,1.81
8946.00,1.81
8945.00,1.80
8944.00,1.80
8943.00,1.79
8942.00,1.79
8941.00,1.78
8940.00,1.78
8939.00,1.78
8938.00,1.78
8937.00,1.77
8936.00,1.77
8935.00,1.77
8934.00,1.77
8933.00,1.77
8932.00,1.77
8931.00,1.77
8930.00,1.77
8929.00,1.77
8928.00,1.77
8927.00,1.77
8926.00,1.77
8925.00,1.77
8924.00,1.77
8923.00,1.77
8922.00,1.77
8921.00,1.77
8920.00,1.77
8919.00,1.77
8918.00,1.77
8917.00,1.78
8916.00,1.78
8915.00,1.78
8914.00,1.78
8913.00,1.77
8912.00,1.77
8911.00,1.77
8910.00,1.77
8909.00,1.76
8908.00,1.76
8907.00,1.75
8906.00,1.75
8905.00,1.74
8904.00,1.74
8903.00,1.73
8902.00,1.73
8901.00,1.72
8900.00,1.71
8899.00,1.71
8898.00,1.70
8897.00,1.69
8896.00,1.69
8895.00,1.68
8894.00,1.68
8893.00,1.67
8892.00,1.67
8891.00,1.66
8890.00,1.66
8889.00,1.66
8888.00,1.65
8887.00,1.65
8886.00,1.65
8885.00,1.65
8884.00,1.65
8883.00,1.65
8882.00,1.65
8881.00,1.65
8880.00,1.65
8879.00,1.65
8878.00,1.65
8877.00,1.66
8876.00,1.66
8875.00,1.66
8874.00,1.67
8873.00,1.67
8872.00,1.67
8871.00,1.68
8870.00,1.68
8869.00,1.68
8868.00,1.69
8867.00,1.69
8866.00,1.69
8865.00,1.69
8864.00,1.69
8863.00,1.69
8862.00,1.69
8861.00,1.69
8860.00,1.69
8859.00,1.69
8858.00,1.69
8857.00,1.70
8856.00,1.70
8855.00,1.70
8854.00,1.70
8853.00,1.70
8852.00,1.70
8851.00,1.70
8850.00,1.70
8849.00,1.70
8848.00,1.70
8847.00,1.71
8846.00,1.71
8845.00,1.71
8844.00,1.71
8843.00,1.71
8842.00,1.72
8841.00,1.72
8840.00,1.72
8839.00,1.73
8838.00,1.73
8837.00,1.74
8836.00,1.74
8835.00,1.75
8834.00,1.75
8833.00,1.76
8832.00,1.77
8831.00,1.77
8830.00,1.78
8829.00,1.78
8828.00,1.79
8827.00,1.79
8826.00,1.80
8825.00,1.80
8824.00,1.80
8823.00,1.81
8822.00,1.81
8821.00,1.81
8820.00,1.82
8819.00,1.82
8818.00,1.82
8817.00,1.82
8816.00,1.82
8815.00,1.82
8814.00,1.82
8813.00,1.82
8812.00,1.82
8811.00,1.81
8810.00,1.81
8809.00,1.81
8808.00,1.80
8807.00,1.80
8806.00,1.80
8805.00,1.79
8804.00,1.79
8803.00,1.78
8802.00,1.78
8801.00,1.77
8800.00,1.76
8799.00,1.76
8798.00,1.75
8797.00,1.74
8796.00,1.74
8795.00,1.73
8794.00,1.73
8793.00,1.72
8792.00,1.72
8791.00,1.72
8790.00,1.72
8789.00,1.72
8788.00,1.72
8787.00,1.72
8786.00,1.72
8785.00,1.73
8784.00,1.73
8783.00,1.73
8782.00,1.74
8781.00,1.74
8780.00,1.75
8779.00,1.75
8778.00,1.76
8777.00,1.76
8776.00,1.77
8775.00,1.77
8774.00,1.77
8773.00,1.78
8772.00,1.79
8771.00,1.79
8770.00,1.80
8769.00,1.80
8768.00,1.81
8767.00,1.81
8766.00,1.82
8765.00,1.82
8764.00,1.82
8763.00,1.82
8762.00,1.82
8761.00,1.82
8760.00,1.82
8759.00,1.82
8758.00,1.81
8757.00,1.81
8756.00,1.80
8755.00,1.80
8754.00,1.80
8753.00,1.79
8752.00,1.79
8751.00,1.78
8750.00,1.78
8749.00,1.78
8748.00,1.77
8747.00,1.77
8746.00,1.77
8745.00,1.76
8744.00,1.76
8743.00,1.76
8742.00,1.75
8741.00,1.75
8740.00,1.75
8739.00,1.74
8738.00,1.74
8737.00,1.73
8736.00,1.73
8735.00,1.73
8734.00,1.72
8733.00,1.72
8732.00,1.72
8731.00,1.71
8730.00,1.71
8729.00,1.71
8728.00,1.70
8727.00,1.70
8726.00,1.70
8725.00,1.70
8724.00,1.69
8723.00,1.69
8722.00,1.69
8721.00,1.69
8720.00,1.68
8719.00,1.68
8718.00,1.68
8717.00,1.68
8716.00,1.67
8715.00,1.67
8714.00,1.67
8713.00,1.67
8712.00,1.67
8711.00,1.67
8710.00,1.67
8709.00,1.67
8708.00,1.67
8707.00,1.67
8706.00,1.68
8705.00,1.68
8704.00,1.68
8703.00,1.69
8702.00,1.69
8701.00,1.69
8700.00,1.70
8699.00,1.70
8698.00,1.70
8697.00,1.70
8696.00,1.71
8695.00,1.71
8694.00,1.71
8693.00,1.71
8692.00,1.72
8691.00,1.72
8690.00,1.72
8689.00,1.72
8688.00,1.73
8687.00,1.73
8686.00,1.73
8685.00,1.73
8684.00,1.73
8683.00,1.73
8682.00,1.73
8681.00,1.73
8680.00,1.73
8679.00,1.73
8678.00,1.73
8677.00,1.73
8676.00,1.73
8675.00,1.72
8674.00,1.72
8673.00,1.72
8672.00,1.72
8671.00,1.72
8670.00,1.72
8669.00,1.72
8668.00,1.72
8667.00,1.72
8666.00,1.72
8665.00,1.72
8664.00,1.72
8663.00,1.72
8662.00,1.72
8661.00,1.72
8660.00,1.72
8659.00,1.72
8658.00,1.73
8657.00,1.73
8656.00,1.73
8655.00,1.73
8654.00,1.73
8653.00,1.74
8652.00,1.74
8651.00,1.75
8650.00,1.75
8649.00,1.76
8648.00,1.76
8647.00,1.77
8646.00,1.77
8645.00,1.78
8644.00,1.78
8643.00,1.78
8642.00,1.79
8641.00,1.79
8640.00,1.80
8639.00,1.80
8638.00,1.81
8637.00,1.81
8636.00,1.82
8635.00,1.82
8634.00,1.82
8633.00,1.83
8632.00,1.83
8631.00,1.83
8630.00,1.83
8629.00,1.83
8628.00,1.84
8627.00,1.84
8626.00,1.84
8625.00,1.84
8624.00,1.84
8623.00,1.84
8622.00,1.84
8621.00,1.83
8620.00,1.83
8619.00,1.83
8618.00,1.83
8617.00,1.83
8616.00,1.82
8615.00,1.82
8614.00,1.82
8613.00,1.81
8612.00,1.81
8611.00,1.81
8610.00,1.80
8609.00,1.80
8608.00,1.80
8607.00,1.79
8606.00,1.79
8605.00,1.78
8604.00,1.78
8603.00,1.77
8602.00,1.77
8601.00,1.76
8600.00,1.76
8599.00,1.75
8598.00,1.75
8597.00,1.74
8596.00,1.74
8595.00,1.73
8594.00,1.73
8593.00,1.72
8592.00,1.72
8591.00,1.71
8590.00,1.71
8589.00,1.71
8588.00,1.71
8587.00,1.70
8586.00,1.70
8585.00,1.70
8584.00,1.70
8583.00,1.70
8582.00,1.70
8581.00,1.70
8580.00,1.70
8579.00,1.71
8578.00,1.71
8577.00,1.71
8576.00,1.71
8575.00,1.72
8574.00,1.72
8573.00,1.72
8572.00,1.72
8571.00,1.72
8570.00,1.72
8569.00,1.73
8568.00,1.73
8567.00,1.73
8566.00,1.73
8565.00,1.72
8564.00,1.72
8563.00,1.72
8562.00,1.72
8561.00,1.71
8560.00,1.71
8559.00,1.71
8558.00,1.70
8557.00,1.70
8556.00,1.70
8555.00,1.69
8554.00,1.69
8553.00,1.68
8552.00,1.68
8551.00,1.67
8550.00,1.67
8549.00,1.66
8548.00,1.66
8547.00,1.66
8546.00,1.65
8545.00,1.65
8544.00,1.65
8543.00,1.65
8542.00,1.65
8541.00,1.65
8540.00,1.65
8539.00,1.65
8538.00,1.65
8537.00,1.65
8536.00,1.65
8535.00,1.65
8534.00,1.65
8533.00,1.65
8532.00,1.65
8531.00,1.65
8530.00,1.65
8529.00,1.65
8528.00,1.65
8527.00,1.65
8526.00,1.66
8525.00,1.66
8524.00,1.66
8523.00,1.66
8522.00,1.67
8521.00,1.67
8520.00,1.68
8519.00,1.68
8518.00,1.68
8517.00,1.69
8516.00,1.69
8515.00,1.70
8514.00,1.70
8513.00,1.71
8512.00,1.72
8511.00,1.72
8510.00,1.73
8509.00,1.74
8508.00,1.74
8507.00,1.75
8506.00,1.76
8505.00,1.77
8504.00,1.78
8503.00,1.78
8502.00,1.79
8501.00,1.80
8500.00,1.80
8499.00,1.81
8498.00,1.81
8497.00,1.82
8496.00,1.82
8495.00,1.83
8494.00,1.83
8493.00,1.83
8492.00,1.83
8491.00,1.83
8490.00,1.83
8489.00,1.83
8488.00,1.83
8487.00,1.83
8486.00,1.83
8485.00,1.83
8484.00,1.83
8483.00,1.83
8482.00,1.82
8481.00,1.82
8480.00,1.82
8479.00,1.82
8478.00,1.81
8477.00,1.81
8476.00,1.81
8475.00,1.81
8474.00,1.80
8473.00,1.80
8472.00,1.80
8471.00,1.79
8470.00,1.79
8469.00,1.79
8468.00,1.79
8467.00,1.78
8466.00,1.78
8465.00,1.78
8464.00,1.77
8463.00,1.77
8462.00,1.77
8461.00,1.77
8460.00,1.77
8459.00,1.76
8458.00,1.76
8457.00,1.76
8456.00,1.76
8455.00,1.75
8454.00,1.75
8453.00,1.75
8452.00,1.75
8451.00,1.74
8450.00,1.74
8449.00,1.74
8448.00,1.73
8447.00,1.73
8446.00,1.73
8445.00,1.73
8444.00,1.73
8443.00,1.73
8442.00,1.73
8441.00,1.73
8440.00,1.73
8439.00,1.73
8438.00,1.73
8437.00,1.73
8436.00,1.73
8435.00,1.72
8434.00,1.72
8433.00,1.72
8432.00,1.72
8431.00,1.72
8430.00,1.72
8429.00,1.72
8428.00,1.72
8427.00,1.72
8426.00,1.72
8425.00,1.72
8424.00,1.72
8423.00,1.72
8422.00,1.72
8421.00,1.72
8420.00,1.73
8419.00,1.73
8418.00,1.73
8417.00,1.73
8416.00,1.73
8415.00,1.73
8414.00,1.73
8413.00,1.73
8412.00,1.74
8411.00,1.74
8410.00,1.74
8409.00,1.74
8408.00,1.74
8407.00,1.74
8406.00,1.75
8405.00,1.75
8404.00,1.75
8403.00,1.76
8402.00,1.76
8401.00,1.76
8400.00,1.76
8399.00,1.76
8398.00,1.76
8397.00,1.76
8396.00,1.76
8395.00,1.76
8394.00,1.76
8393.00,1.76
8392.00,1.76
8391.00,1.76
8390.00,1.76
8389.00,1.76
8388.00,1.76
8387.00,1.76
8386.00,1.75
8385.00,1.75
8384.00,1.75
8383.00,1.75
8382.00,1.75
8381.00,1.74
8380.00,1.74
8379.00,1.74
8378.00,1.74
8377.00,1.73
8376.00,1.73
8375.00,1.73
8374.00,1.73
8373.00,1.73
8372.00,1.73
8371.00,1.73
8370.00,1.72
8369.00,1.72
8368.00,1.72
8367.00,1.72
8366.00,1.72
8365.00,1.72
8364.00,1.72
8363.00,1.72
8362.00,1.72
8361.00,1.72
8360.00,1.72
8359.00,1.72
8358.00,1.72
8357.00,1.72
8356.00,1.72
8355.00,1.72
8354.00,1.72
8353.00,1.72
8352.00,1.72
8351.00,1.72
8350.00,1.72
8349.00,1.72
8348.00,1.72
8347.00,1.72
8346.00,1.71
8345.00,1.71
8344.00,1.71
8343.00,1.71
8342.00,1.71
8341.00,1.70
8340.00,1.70
8339.00,1.70
8338.00,1.70
8337.00,1.69
8336.00,1.69
8335.00,1.69
8334.00,1.69
8333.00,1.69
8332.00,1.69
8331.00,1.69
8330.00,1.68
8329.00,1.68
8328.00,1.68
8327.00,1.68
8326.00,1.68
8325.00,1.68
8324.00,1.67
8323.00,1.67
8322.00,1.67
8321.00,1.67
8320.00,1.68
8319.00,1.68
8318.00,1.68
8317.00,1.68
8316.00,1.68
8315.00,1.69
8314.00,1.69
8313.00,1.69
8312.00,1.70
8311.00,1.70
8310.00,1.70
8309.00,1.71
8308.00,1.71
8307.00,1.71
8306.00,1.72
8305.00,1.72
8304.00,1.72
8303.00,1.73
8302.00,1.73
8301.00,1.73
8300.00,1.74
8299.00,1.74
8298.00,1.74
8297.00,1.75
8296.00,1.75
8295.00,1.75
8294.00,1.75
8293.00,1.76
8292.00,1.76
8291.00,1.76
8290.00,1.76
8289.00,1.76
8288.00,1.77
8287.00,1.77
8286.00,1.77
8285.00,1.77
8284.00,1.77
8283.00,1.77
8282.00,1.77
8281.00,1.77
8280.00,1.77
8279.00,1.77
8278.00,1.78
8277.00,1.78
8276.00,1.78
8275.00,1.78
8274.00,1.78
8273.00,1.78
8272.00,1.77
8271.00,1.77
8270.00,1.77
8269.00,1.77
8268.00,1.77
8267.00,1.77
8266.00,1.77
8265.00,1.76
8264.00,1.76
8263.00,1.76
8262.00,1.76
8261.00,1.75
8260.00,1.75
8259.00,1.75
8258.00,1.74
8257.00,1.74
8256.00,1.74
8255.00,1.74
8254.00,1.74
8253.00,1.74
8252.00,1.74
8251.00,1.74
8250.00,1.74
8249.00,1.73
8248.00,1.73
8247.00,1.73
8246.00,1.74
8245.00,1.74
8244.00,1.74
8243.00,1.74
8242.00,1.74
8241.00,1.74
8240.00,1.74
8239.00,1.75
8238.00,1.75
8237.00,1.75
8236.00,1.76
8235.00,1.76
8234.00,1.76
8233.00,1.77
8232.00,1.77
8231.00,1.77
8230.00,1.77
8229.00,1.78
8228.00,1.78
8227.00,1.78
8226.00,1.78
8225.00,1.78
8224.00,1.78
8223.00,1.78
8222.00,1.78
8221.00,1.78
8220.00,1.78
8219.00,1.78
8218.00,1.78
8217.00,1.78
8216.00,1.78
8215.00,1.78
8214.00,1.78
8213.00,1.78
8212.00,1.78
8211.00,1.78
8210.00,1.77
8209.00,1.77
8208.00,1.77
8207.00,1.77
8206.00,1.77
8205.00,1.76
8204.00,1.76
8203.00,1.76
8202.00,1.76
8201.00,1.76
8200.00,1.76
8199.00,1.76
8198.00,1.76
8197.00,1.76
8196.00,1.76
8195.00,1.76
8194.00,1.76
8193.00,1.76
8192.00,1.76
8191.00,1.76
8190.00,1.76
8189.00,1.76
8188.00,1.76
8187.00,1.76
8186.00,1.76
8185.00,1.76
8184.00,1.77
8183.00,1.77
8182.00,1.77
8181.00,1.77
8180.00,1.77
8179.00,1.78
8178.00,1.78
8177.00,1.78
8176.00,1.78
8175.00,1.78
8174.00,1.78
8173.00,1.78
8172.00,1.78
8171.00,1.78
8170.00,1.78
8169.00,1.77
8168.00,1.77
8167.00,1.77
8166.00,1.77
8165.00,1.76
8164.00,1.76
8163.00,1.76
8162.00,1.76
8161.00,1.76
8160.00,1.75
8159.00,1.75
8158.00,1.75
8157.00,1.74
8156.00,1.74
8155.00,1.74
8154.00,1.73
8153.00,1.73
8152.00,1.73
8151.00,1.73
8150.00,1.72
8149.00,1.72
8148.00,1.72
8147.00,1.72
8146.00,1.72
8145.00,1.72
8144.00,1.72
8143.00,1.72
8142.00,1.72
8141.00,1.72
8140.00,1.72
8139.00,1.72
8138.00,1.73
8137.00,1.73
8136.00,1.73
8135.00,1.73
8134.00,1.74
8133.00,1.74
8132.00,1.74
8131.00,1.75
8130.00,1.75
8129.00,1.76
8128.00,1.76
8127.00,1.76
8126.00,1.77
8125.00,1.77
8124.00,1.77
8123.00,1.78
8122.00,1.78
8121.00,1.78
8120.00,1.79
8119.00,1.79
8118.00,1.79
8117.00,1.80
8116.00,1.80
8115.00,1.80
8114.00,1.80
8113.00,1.81
8112.00,1.81
8111.00,1.81
8110.00,1.81
8109.00,1.81
8108.00,1.81
8107.00,1.81
8106.00,1.81
8105.00,1.81
8104.00,1.81
8103.00,1.80
8102.00,1.80
8101.00,1.80
8100.00,1.80
8099.00,1.80
8098.00,1.79
8097.00,1.79
8096.00,1.79
8095.00,1.79
8094.00,1.78
8093.00,1.78
8092.00,1.78
8091.00,1.78
8090.00,1.77
8089.00,1.77
8088.00,1.77
8087.00,1.77
8086.00,1.77
8085.00,1.76
8084.00,1.76
8083.00,1.76
8082.00,1.76
8081.00,1.76
8080.00,1.76
8079.00,1.76
8078.00,1.76
8077.00,1.76
8076.00,1.76
8075.00,1.76
8074.00,1.76
8073.00,1.76
8072.00,1.76
8071.00,1.76
8070.00,1.77
8069.00,1.77
8068.00,1.77
8067.00,1.77
8066.00,1.77
8065.00,1.77
8064.00,1.78
8063.00,1.78
8062.00,1.78
8061.00,1.78
8060.00,1.78
8059.00,1.78
8058.00,1.78
8057.00,1.78
8056.00,1.79
8055.00,1.79
8054.00,1.79
8053.00,1.79
8052.00,1.79
8051.00,1.80
8050.00,1.80
8049.00,1.80
8048.00,1.80
8047.00,1.80
8046.00,1.80
8045.00,1.80
8044.00,1.80
8043.00,1.80
8042.00,1.80
8041.00,1.80
8040.00,1.80
8039.00,1.80
8038.00,1.80
8037.00,1.81
8036.00,1.81
8035.00,1.81
8034.00,1.81
8033.00,1.81
8032.00,1.81
8031.00,1.81
8030.00,1.81
8029.00,1.81
8028.00,1.80
8027.00,1.80
8026.00,1.80
8025.00,1.80
8024.00,1.79
8023.00,1.79
8022.00,1.79
8021.00,1.79
8020.00,1.78
8019.00,1.78
8018.00,1.78
8017.00,1.77
8016.00,1.77
8015.00,1.76
8014.00,1.76
8013.00,1.76
8012.00,1.75
8011.00,1.75
8010.00,1.74
8009.00,1.74
8008.00,1.74
8007.00,1.73
8006.00,1.73
8005.00,1.73
8004.00,1.72
8003.00,1.72
8002.00,1.72
8001.00,1.72
8000.00,1.71
7999.00,1.71
7998.00,1.71
7997.00,1.71
7996.00,1.71
7995.00,1.72
7994.00,1.72
7993.00,1.72
7992.00,1.72
7991.00,1.72
7990.00,1.72
7989.00,1.73
7988.00,1.73
7987.00,1.73
7986.00,1.74
7985.00,1.74
7984.00,1.74
7983.00,1.75
7982.00,1.75
7981.00,1.75
7980.00,1.76
7979.00,1.76
7978.00,1.77
7977.00,1.77
7976.00,1.77
7975.00,1.77
7974.00,1.78
7973.00,1.78
7972.00,1.78
7971.00,1.78
7970.00,1.78
7969.00,1.78
7968.00,1.78
7967.00,1.78
7966.00,1.78
7965.00,1.79
7964.00,1.79
7963.00,1.79
7962.00,1.79
7961.00,1.79
7960.00,1.79
7959.00,1.79
7958.00,1.79
7957.00,1.80
7956.00,1.80
7955.00,1.80
7954.00,1.80
7953.00,1.80
7952.00,1.80
7951.00,1.80
7950.00,1.80
7949.00,1.80
7948.00,1.80
7947.00,1.80
7946.00,1.80
7945.00,1.81
7944.00,1.81
7943.00,1.81
7942.00,1.81
7941.00,1.81
7940.00,1.82
7939.00,1.82
7938.00,1.82
7937.00,1.82
7936.00,1.82
7935.00,1.82
7934.00,1.82
7933.00,1.82
7932.00,1.82
7931.00,1.82
7930.00,1.82
7929.00,1.82
7928.00,1.82
7927.00,1.82
7926.00,1.82
7925.00,1.82
7924.00,1.81
7923.00,1.81
7922.00,1.81
7921.00,1.81
7920.00,1.81
7919.00,1.81
7918.00,1.81
7917.00,1.81
7916.00,1.81
7915.00,1.80
7914.00,1.80
7913.00,1.80
7912.00,1.80
7911.00,1.80
7910.00,1.80
7909.00,1.80
7908.00,1.79
7907.00,1.79
7906.00,1.79
7905.00,1.79
7904.00,1.79
7903.00,1.79
7902.00,1.79
7901.00,1.79
7900.00,1.79
7899.00,1.79
7898.00,1.79
7897.00,1.79
7896.00,1.79
7895.00,1.79
7894.00,1.79
7893.00,1.79
7892.00,1.79
7891.00,1.79
7890.00,1.79
7889.00,1.79
7888.00,1.79
7887.00,1.80
7886.00,1.80
7885.00,1.80
7884.00,1.80
7883.00,1.80
7882.00,1.81
7881.00,1.81
7880.00,1.81
7879.00,1.82
7878.00,1.82
7877.00,1.82
7876.00,1.82
7875.00,1.83
7874.00,1.83
7873.00,1.83
7872.00,1.83
7871.00,1.83
7870.00,1.84
7869.00,1.84
7868.00,1.84
7867.00,1.84
7866.00,1.84
7865.00,1.84
7864.00,1.84
7863.00,1.84
7862.00,1.84
7861.00,1.84
7860.00,1.84
7859.00,1.84
7858.00,1.84
7857.00,1.84
7856.00,1.84
7855.00,1.83
7854.00,1.83
7853.00,1.83
7852.00,1.82
7851.00,1.82
7850.00,1.82
7849.00,1.81
7848.00,1.81
7847.00,1.81
7846.00,1.80
7845.00,1.80
7844.00,1.80
7843.00,1.80
7842.00,1.79
7841.00,1.79
7840.00,1.79
7839.00,1.79
7838.00,1.79
7837.00,1.79
7836.00,1.79
7835.00,1.79
7834.00,1.79
7833.00,1.79
7832.00,1.79
7831.00,1.79
7830.00,1.79
7829.00,1.80
7828.00,1.80
7827.00,1.80
7826.00,1.80
7825.00,1.81
7824.00,1.81
7823.00,1.81
7822.00,1.82
7821.00,1.82
7820.00,1.82
7819.00,1.83
7818.00,1.83
7817.00,1.83
7816.00,1.84
7815.00,1.84
7814.00,1.84
7813.00,1.85
7812.00,1.85
7811.00,1.85
7810.00,1.85
7809.00,1.85
7808.00,1.85
7807.00,1.85
7806.00,1.85
7805.00,1.85
7804.00,1.85
7803.00,1.85
7802.00,1.85
7801.00,1.85
7800.00,1.85
7799.00,1.84
7798.00,1.84
7797.00,1.84
7796.00,1.84
7795.00,1.83
7794.00,1.83
7793.00,1.82
7792.00,1.82
7791.00,1.81
7790.00,1.81
7789.00,1.80
7788.00,1.80
7787.00,1.80
7786.00,1.79
7785.00,1.79
7784.00,1.79
7783.00,1.78
7782.00,1.78
7781.00,1.78
7780.00,1.78
7779.00,1.78
7778.00,1.77
7777.00,1.77
7776.00,1.77
7775.00,1.77
7774.00,1.77
7773.00,1.77
7772.00,1.77
7771.00,1.77
7770.00,1.77
7769.00,1.77
7768.00,1.77
7767.00,1.77
7766.00,1.77
7765.00,1.77
7764.00,1.77
7763.00,1.77
7762.00,1.77
7761.00,1.77
7760.00,1.77
7759.00,1.77
7758.00,1.77
7757.00,1.77
7756.00,1.76
7755.00,1.76
7754.00,1.76
7753.00,1.76
7752.00,1.76
7751.00,1.76
7750.00,1.76
7749.00,1.76
7748.00,1.76
7747.00,1.76
7746.00,1.76
7745.00,1.76
7744.00,1.76
7743.00,1.76
7742.00,1.76
7741.00,1.76
7740.00,1.76
7739.00,1.76
7738.00,1.77
7737.00,1.77
7736.00,1.77
7735.00,1.77
7734.00,1.77
7733.00,1.78
7732.00,1.78
7731.00,1.78
7730.00,1.78
7729.00,1.78
7728.00,1.79
7727.00,1.79
7726.00,1.79
7725.00,1.79
7724.00,1.80
7723.00,1.80
7722.00,1.80
7721.00,1.80
7720.00,1.81
7719.00,1.81
7718.00,1.81
7717.00,1.82
7716.00,1.82
7715.00,1.82
7714.00,1.82
7713.00,1.82
7712.00,1.82
7711.00,1.82
7710.00,1.82
7709.00,1.82
7708.00,1.82
7707.00,1.82
7706.00,1.83
7705.00,1.83
7704.00,1.83
7703.00,1.83
7702.00,1.83
7701.00,1.83
7700.00,1.83
7699.00,1.83
7698.00,1.83
7697.00,1.83
7696.00,1.83
7695.00,1.83
7694.00,1.82
7693.00,1.82
7692.00,1.82
7691.00,1.82
7690.00,1.82
7689.00,1.82
7688.00,1.81
7687.00,1.81
7686.00,1.81
7685.00,1.81
7684.00,1.81
7683.00,1.81
7682.00,1.81
7681.00,1.81
7680.00,1.81
7679.00,1.81
7678.00,1.81
7677.00,1.80
7676.00,1.80
7675.00,1.80
7674.00,1.80
7673.00,1.80
7672.00,1.81
7671.00,1.81
7670.00,1.81
7669.00,1.81
7668.00,1.81
7667.00,1.81
7666.00,1.81
7665.00,1.81
7664.00,1.81
7663.00,1.81
7662.00,1.82
7661.00,1.82
7660.00,1.82
7659.00,1.82
7658.00,1.82
7657.00,1.82
7656.00,1.83
7655.00,1.83
7654.00,1.83
7653.00,1.83
7652.00,1.84
7651.00,1.84
7650.00,1.84
7649.00,1.84
7648.00,1.84
7647.00,1.85
7646.00,1.85
7645.00,1.85
7644.00,1.85
7643.00,1.85
7642.00,1.85
7641.00,1.85
7640.00,1.85
7639.00,1.85
7638.00,1.85
7637.00,1.85
7636.00,1.85
7635.00,1.85
7634.00,1.85
7633.00,1.85
7632.00,1.85
7631.00,1.85
7630.00,1.85
7629.00,1.85
7628.00,1.85
7627.00,1.85
7626.00,1.85
7625.00,1.85
7624.00,1.85
7623.00,1.85
7622.00,1.85
7621.00,1.85
7620.00,1.85
7619.00,1.85
7618.00,1.85
7617.00,1.86
7616.00,1.86
7615.00,1.86
7614.00,1.86
7613.00,1.86
7612.00,1.86
7611.00,1.86
7610.00,1.86
7609.00,1.85
7608.00,1.85
7607.00,1.85
7606.00,1.85
7605.00,1.85
7604.00,1.85
7603.00,1.84
7602.00,1.84
7601.00,1.84
7600.00,1.84
7599.00,1.84
7598.00,1.84
7597.00,1.84
7596.00,1.83
7595.00,1.83
7594.00,1.83
7593.00,1.83
7592.00,1.83
7591.00,1.83
7590.00,1.83
7589.00,1.83
7588.00,1.83
7587.00,1.82
7586.00,1.82
7585.00,1.82
7584.00,1.82
7583.00,1.82
7582.00,1.82
7581.00,1.82
7580.00,1.82
7579.00,1.82
7578.00,1.82
7577.00,1.82
7576.00,1.82
7575.00,1.82
7574.00,1.82
7573.00,1.82
7572.00,1.82
7571.00,1.82
7570.00,1.82
7569.00,1.82
7568.00,1.82
7567.00,1.82
7566.00,1.82
7565.00,1.82
7564.00,1.82
7563.00,1.82
7562.00,1.82
7561.00,1.82
7560.00,1.82
7559.00,1.82
7558.00,1.82
7557.00,1.82
7556.00,1.82
7555.00,1.82
7554.00,1.82
7553.00,1.82
7552.00,1.82
7551.00,1.82
7550.00,1.82
7549.00,1.82
7548.00,1.82
7547.00,1.82
7546.00,1.82
7545.00,1.82
7544.00,1.82
7543.00,1.82
7542.00,1.82
7541.00,1.82
7540.00,1.82
7539.00,1.82
7538.00,1.82
7537.00,1.83
7536.00,1.83
7535.00,1.83
7534.00,1.83
7533.00,1.83
7532.00,1.83
7531.00,1.83
7530.00,1.83
7529.00,1.83
7528.00,1.83
7527.00,1.83
7526.00,1.84
7525.00,1.84
7524.00,1.84
7523.00,1.84
7522.00,1.84
7521.00,1.84
7520.00,1.83
7519.00,1.83
7518.00,1.83
7517.00,1.83
7516.00,1.83
7515.00,1.83
7514.00,1.83
7513.00,1.82
7512.00,1.82
7511.00,1.82
7510.00,1.82
7509.00,1.81
7508.00,1.81
7507.00,1.81
7506.00,1.81
7505.00,1.80
7504.00,1.80
7503.00,1.80
7502.00,1.79
7501.00,1.79
7500.00,1.79
7499.00,1.79
7498.00,1.79
7497.00,1.78
7496.00,1.78
7495.00,1.78
7494.00,1.78
7493.00,1.78
7492.00,1.78
7491.00,1.79
7490.00,1.79
7489.00,1.79
7488.00,1.79
7487.00,1.80
7486.00,1.80
7485.00,1.80
7484.00,1.80
7483.00,1.81
7482.00,1.81
7481.00,1.81
7480.00,1.82
7479.00,1.82
7478.00,1.83
7477.00,1.83
7476.00,1.83
7475.00,1.84
7474.00,1.84
7473.00,1.84
7472.00,1.85
7471.00,1.85
7470.00,1.85
7469.00,1.85
7468.00,1.86
7467.00,1.86
7466.00,1.86
7465.00,1.86
7464.00,1.86
7463.00,1.86
7462.00,1.86
7461.00,1.86
7460.00,1.86
7459.00,1.86
7458.00,1.86
7457.00,1.86
7456.00,1.86
7455.00,1.86
7454.00,1.86
7453.00,1.86
7452.00,1.86
7451.00,1.86
7450.00,1.86
7449.00,1.86
7448.00,1.86
7447.00,1.86
7446.00,1.86
7445.00,1.86
7444.00,1.85
7443.00,1.85
7442.00,1.85
7441.00,1.85
7440.00,1.85
7439.00,1.85
7438.00,1.85
7437.00,1.85
7436.00,1.85
7435.00,1.85
7434.00,1.85
7433.00,1.85
7432.00,1.85
7431.00,1.85
7430.00,1.85
7429.00,1.85
7428.00,1.85
7427.00,1.85
7426.00,1.85
7425.00,1.85
7424.00,1.85
7423.00,1.85
7422.00,1.85
7421.00,1.85
7420.00,1.85
7419.00,1.85
7418.00,1.85
7417.00,1.85
7416.00,1.85
7415.00,1.85
7414.00,1.85
7413.00,1.85
7412.00,1.85
7411.00,1.85
7410.00,1.85
7409.00,1.85
7408.00,1.85
7407.00,1.85
7406.00,1.85
7405.00,1.85
7404.00,1.85
7403.00,1.85
7402.00,1.85
7401.00,1.85
7400.00,1.85
7399.00,1.86
7398.00,1.86
7397.00,1.86
7396.00,1.86
7395.00,1.86
7394.00,1.87
7393.00,1.87
7392.00,1.87
7391.00,1.87
7390.00,1.87
7389.00,1.87
7388.00,1.87
7387.00,1.87
7386.00,1.87
7385.00,1.87
7384.00,1.87
7383.00,1.87
7382.00,1.87
7381.00,1.87
7380.00,1.87
7379.00,1.87
7378.00,1.86
7377.00,1.86
7376.00,1.86
7375.00,1.86
7374.00,1.85
7373.00,1.85
7372.00,1.84
7371.00,1.84
7370.00,1.84
7369.00,1.83
7368.00,1.83
7367.00,1.82
7366.00,1.82
7365.00,1.81
7364.00,1.81
7363.00,1.80
7362.00,1.80
7361.00,1.80
7360.00,1.79
7359.00,1.79
7358.00,1.79
7357.00,1.79
7356.00,1.78
7355.00,1.78
7354.00,1.78
7353.00,1.78
7352.00,1.78
7351.00,1.78
7350.00,1.78
7349.00,1.79
7348.00,1.79
7347.00,1.79
7346.00,1.79
7345.00,1.79
7344.00,1.80
7343.00,1.80
7342.00,1.80
7341.00,1.81
7340.00,1.81
7339.00,1.81
7338.00,1.82
7337.00,1.82
7336.00,1.82
7335.00,1.83
7334.00,1.83
7333.00,1.83
7332.00,1.84
7331.00,1.84
7330.00,1.84
7329.00,1.84
7328.00,1.85
7327.00,1.85
7326.00,1.85
7325.00,1.85
7324.00,1.85
7323.00,1.85
7322.00,1.85
7321.00,1.85
7320.00,1.85
7319.00,1.85
7318.00,1.85
7317.00,1.85
7316.00,1.85
7315.00,1.85
7314.00,1.85
7313.00,1.85
7312.00,1.85
7311.00,1.85
7310.00,1.85
7309.00,1.85
7308.00,1.85
7307.00,1.85
7306.00,1.85
7305.00,1.85
7304.00,1.85
7303.00,1.84
7302.00,1.84
7301.00,1.84
7300.00,1.84
7299.00,1.84
7298.00,1.84
7297.00,1.84
7296.00,1.84
7295.00,1.84
7294.00,1.84
7293.00,1.83
7292.00,1.83
7291.00,1.83
7290.00,1.83
7289.00,1.83
7288.00,1.83
7287.00,1.82
7286.00,1.82
7285.00,1.82
7284.00,1.81
7283.00,1.81
7282.00,1.81
7281.00,1.80
7280.00,1.80
7279.00,1.80
7278.00,1.80
7277.00,1.79
7276.00,1.79
7275.00,1.79
7274.00,1.79
7273.00,1.79
7272.00,1.78
7271.00,1.78
7270.00,1.78
7269.00,1.78
7268.00,1.78
7267.00,1.77
7266.00,1.77
7265.00,1.77
7264.00,1.77
7263.00,1.76
7262.00,1.76
7261.00,1.76
7260.00,1.76
7259.00,1.76
7258.00,1.76
7257.00,1.76
7256.00,1.76
7255.00,1.76
7254.00,1.76
7253.00,1.76
7252.00,1.76
7251.00,1.76
7250.00,1.76
7249.00,1.76
7248.00,1.76
7247.00,1.76
7246.00,1.76
7245.00,1.76
7244.00,1.76
7243.00,1.77
7242.00,1.77
7241.00,1.77
7240.00,1.77
7239.00,1.77
7238.00,1.77
7237.00,1.77
7236.00,1.77
7235.00,1.77
7234.00,1.77
7233.00,1.77
7232.00,1.77
7231.00,1.77
7230.00,1.77
7229.00,1.76
7228.00,1.76
7227.00,1.76
7226.00,1.76
7225.00,1.76
7224.00,1.76
7223.00,1.76
7222.00,1.76
7221.00,1.75
7220.00,1.75
7219.00,1.75
7218.00,1.75
7217.00,1.74
7216.00,1.74
7215.00,1.74
7214.00,1.74
7213.00,1.73
7212.00,1.73
7211.00,1.73
7210.00,1.72
7209.00,1.72
7208.00,1.72
7207.00,1.71
7206.00,1.71
7205.00,1.71
7204.00,1.70
7203.00,1.70
7202.00,1.70
7201.00,1.69
7200.00,1.69
7199.00,1.69
7198.00,1.68
7197.00,1.68
7196.00,1.68
7195.00,1.67
7194.00,1.67
7193.00,1.67
7192.00,1.67
7191.00,1.66
7190.00,1.66
7189.00,1.66
7188.00,1.66
7187.00,1.66
7186.00,1.65
7185.00,1.65
7184.00,1.65
7183.00,1.64
7182.00,1.64
7181.00,1.64
7180.00,1.64
7179.00,1.63
7178.00,1.63
7177.00,1.63
7176.00,1.63
7175.00,1.62
7174.00,1.62
7173.00,1.62
7172.00,1.62
7171.00,1.61
7170.00,1.61
7169.00,1.61
7168.00,1.60
7167.00,1.60
7166.00,1.60
7165.00,1.59
7164.00,1.59
7163.00,1.59
7162.00,1.58
7161.00,1.58
7160.00,1.58
7159.00,1.57
7158.00,1.57
7157.00,1.57
7156.00,1.57
7155.00,1.56
7154.00,1.56
7153.00,1.56
7152.00,1.56
7151.00,1.55
7150.00,1.55
7149.00,1.55
7148.00,1.55
7147.00,1.55
7146.00,1.54
7145.00,1.54
7144.00,1.54
7143.00,1.54
7142.00,1.54
7141.00,1.53
7140.00,1.53
7139.00,1.53
7138.00,1.53
7137.00,1.53
7136.00,1.52
7135.00,1.52
7134.00,1.52
7133.00,1.52
7132.00,1.52
7131.00,1.52
7130.00,1.52
7129.00,1.52
7128.00,1.52
7127.00,1.52
7126.00,1.52
7125.00,1.51
7124.00,1.51
7123.00,1.51
7122.00,1.51
7121.00,1.51
7120.00,1.51
7119.00,1.51
7118.00,1.51
7117.00,1.51
7116.00,1.51
7115.00,1.51
7114.00,1.51
7113.00,1.51
7112.00,1.51
7111.00,1.51
7110.00,1.51
7109.00,1.51
7108.00,1.50
7107.00,1.50
7106.00,1.50
7105.00,1.50
7104.00,1.50
7103.00,1.50
7102.00,1.49
7101.00,1.49
7100.00,1.49
7099.00,1.49
7098.00,1.49
7097.00,1.49
7096.00,1.48
7095.00,1.48
7094.00,1.48
7093.00,1.48
7092.00,1.48
7091.00,1.47
7090.00,1.47
7089.00,1.47
7088.00,1.47
7087.00,1.46
7086.00,1.46
7085.00,1.46
7084.00,1.46
7083.00,1.46
7082.00,1.46
7081.00,1.45
7080.00,1.45
7079.00,1.45
7078.00,1.45
7077.00,1.45
7076.00,1.45
7075.00,1.45
7074.00,1.45
7073.00,1.45
7072.00,1.44
7071.00,1.44
7070.00,1.44
7069.00,1.44
7068.00,1.44
7067.00,1.44
7066.00,1.44
7065.00,1.44
7064.00,1.44
7063.00,1.44
7062.00,1.44
7061.00,1.44
7060.00,1.44
7059.00,1.44
7058.00,1.44
7057.00,1.44
7056.00,1.44
7055.00,1.44
7054.00,1.44
7053.00,1.44
7052.00,1.44
7051.00,1.44
7050.00,1.44
7049.00,1.44
7048.00,1.43
7047.00,1.43
7046.00,1.43
7045.00,1.43
7044.00,1.43
7043.00,1.43
7042.00,1.43
7041.00,1.43
7040.00,1.43
7039.00,1.43
7038.00,1.43
7037.00,1.43
7036.00,1.43
7035.00,1.42
7034.00,1.42
7033.00,1.42
7032.00,1.42
7031.00,1.42
7030.00,1.42
7029.00,1.42
7028.00,1.42
7027.00,1.42
7026.00,1.42
7025.00,1.42
7024.00,1.42
7023.00,1.42
7022.00,1.42
7021.00,1.42
7020.00,1.41
7019.00,1.41
7018.00,1.41
7017.00,1.41
7016.00,1.41
7015.00,1.41
7014.00,1.41
7013.00,1.41
7012.00,1.41
7011.00,1.41
7010.00,1.41
7009.00,1.41
7008.00,1.41
7007.00,1.40
7006.00,1.40
7005.00,1.40
7004.00,1.40
7003.00,1.40
7002.00,1.40
7001.00,1.39
7000.00,1.39
6999.00,1.39
6998.00,1.39
6997.00,1.38
6996.00,1.38
6995.00,1.38
6994.00,1.38
6993.00,1.38
6992.00,1.38
6991.00,1.38
6990.00,1.37
6989.00,1.37
6988.00,1.37
6987.00,1.37
6986.00,1.37
6985.00,1.37
6984.00,1.37
6983.00,1.37
6982.00,1.37
6981.00,1.36
6980.00,1.36
6979.00,1.36
6978.00,1.36
6977.00,1.36
6976.00,1.37
6975.00,1.37
6974.00,1.37
6973.00,1.37
6972.00,1.37
6971.00,1.37
6970.00,1.37
6969.00,1.37
6968.00,1.37
6967.00,1.37
6966.00,1.37
6965.00,1.37
6964.00,1.37
6963.00,1.37
6962.00,1.36
6961.00,1.36
6960.00,1.36
6959.00,1.36
6958.00,1.36
6957.00,1.36
6956.00,1.36
6955.00,1.36
6954.00,1.36
6953.00,1.36
6952.00,1.36
6951.00,1.36
6950.00,1.36
6949.00,1.36
6948.00,1.36
6947.00,1.36
6946.00,1.36
6945.00,1.36
6944.00,1.36
6943.00,1.36
6942.00,1.36
6941.00,1.36
6940.00,1.36
6939.00,1.36
6938.00,1.36
6937.00,1.36
6936.00,1.36
6935.00,1.36
6934.00,1.36
6933.00,1.36
6932.00,1.36
6931.00,1.36
6930.00,1.36
6929.00,1.36
6928.00,1.36
6927.00,1.36
6926.00,1.36
6925.00,1.36
6924.00,1.36
6923.00,1.36
6922.00,1.36
6921.00,1.36
6920.00,1.36
6919.00,1.36
6918.00,1.36
6917.00,1.36
6916.00,1.36
6915.00,1.36
6914.00,1.36
6913.00,1.36
6912.00,1.36
6911.00,1.36
6910.00,1.36
6909.00,1.36
6908.00,1.36
6907.00,1.36
6906.00,1.36
6905.00,1.36
6904.00,1.35
6903.00,1.35
6902.00,1.35
6901.00,1.35
6900.00,1.35
6899.00,1.35
6898.00,1.35
6897.00,1.35
6896.00,1.35
6895.00,1.35
6894.00,1.35
6893.00,1.34
6892.00,1.34
6891.00,1.34
6890.00,1.34
6889.00,1.34
6888.00,1.34
6887.00,1.34
6886.00,1.33
6885.00,1.33
6884.00,1.33
6883.00,1.33
6882.00,1.33
6881.00,1.33
6880.00,1.33
6879.00,1.33
6878.00,1.33
6877.00,1.33
6876.00,1.33
6875.00,1.33
6874.00,1.33
6873.00,1.33
6872.00,1.33
6871.00,1.33
6870.00,1.33
6869.00,1.33
6868.00,1.33
6867.00,1.33
6866.00,1.33
6865.00,1.33
6864.00,1.34
6863.00,1.34
6862.00,1.34
6861.00,1.34
6860.00,1.35
6859.00,1.35
6858.00,1.35
6857.00,1.35
6856.00,1.36
6855.00,1.36
6854.00,1.36
6853.00,1.36
6852.00,1.37
6851.00,1.37
6850.00,1.37
6849.00,1.37
6848.00,1.37
6847.00,1.37
6846.00,1.37
6845.00,1.37
6844.00,1.37
6843.00,1.37
6842.00,1.37
6841.00,1.37
6840.00,1.37
6839.00,1.36
6838.00,1.36
6837.00,1.36
6836.00,1.36
6835.00,1.36
6834.00,1.36
6833.00,1.36
6832.00,1.35
6831.00,1.35
6830.00,1.35
6829.00,1.35
6828.00,1.35
6827.00,1.35
6826.00,1.35
6825.00,1.35
6824.00,1.35
6823.00,1.35
6822.00,1.35
6821.00,1.35
6820.00,1.35
6819.00,1.35
6818.00,1.35
6817.00,1.35
6816.00,1.35
6815.00,1.35
6814.00,1.35
6813.00,1.36
6812.00,1.36
6811.00,1.36
6810.00,1.36
6809.00,1.36
6808.00,1.36
6807.00,1.36
6806.00,1.36
6805.00,1.36
6804.00,1.36
6803.00,1.36
6802.00,1.36
6801.00,1.37
6800.00,1.37
6799.00,1.37
6798.00,1.37
6797.00,1.37
6796.00,1.37
6795.00,1.37
6794.00,1.37
6793.00,1.37
6792.00,1.37
6791.00,1.37
6790.00,1.37
6789.00,1.37
6788.00,1.37
6787.00,1.37
6786.00,1.37
6785.00,1.37
6784.00,1.37
6783.00,1.37
6782.00,1.37
6781.00,1.37
6780.00,1.37
6779.00,1.37
6778.00,1.37
6777.00,1.37
6776.00,1.37
6775.00,1.37
6774.00,1.37
6773.00,1.37
6772.00,1.37
6771.00,1.37
6770.00,1.37
6769.00,1.38
6768.00,1.38
6767.00,1.38
6766.00,1.38
6765.00,1.38
6764.00,1.38
6763.00,1.39
6762.00,1.39
6761.00,1.39
6760.00,1.39
6759.00,1.39
6758.00,1.40
6757.00,1.40
6756.00,1.40
6755.00,1.40
6754.00,1.41
6753.00,1.41
6752.00,1.41
6751.00,1.42
6750.00,1.42
6749.00,1.42
6748.00,1.42
6747.00,1.43
6746.00,1.43
6745.00,1.43
6744.00,1.43
6743.00,1.43
6742.00,1.44
6741.00,1.44
6740.00,1.44
6739.00,1.44
6738.00,1.44
6737.00,1.44
6736.00,1.44
6735.00,1.44
6734.00,1.45
6733.00,1.45
6732.00,1.45
6731.00,1.45
6730.00,1.45
6729.00,1.45
6728.00,1.45
6727.00,1.45
6726.00,1.45
6725.00,1.45
6724.00,1.45
6723.00,1.45
6722.00,1.45
6721.00,1.45
6720.00,1.45
6719.00,1.45
6718.00,1.45
6717.00,1.45
6716.00,1.45
6715.00,1.45
6714.00,1.45
6713.00,1.45
6712.00,1.45
6711.00,1.45
6710.00,1.45
6709.00,1.45
6708.00,1.45
6707.00,1.45
6706.00,1.45
6705.00,1.45
6704.00,1.45
6703.00,1.45
6702.00,1.45
6701.00,1.46
6700.00,1.46
6699.00,1.46
6698.00,1.46
6697.00,1.46
6696.00,1.46
6695.00,1.46
6694.00,1.47
6693.00,1.47
6692.00,1.47
6691.00,1.47
6690.00,1.47
6689.00,1.47
6688.00,1.47
6687.00,1.48
6686.00,1.48
6685.00,1.48
6684.00,1.48
6683.00,1.48
6682.00,1.49
6681.00,1.49
6680.00,1.49
6679.00,1.49
6678.00,1.49
6677.00,1.49
6676.00,1.49
6675.00,1.49
6674.00,1.49
6673.00,1.50
6672.00,1.50
6671.00,1.50
6670.00,1.50
6669.00,1.50
6668.00,1.50
6667.00,1.50
6666.00,1.50
6665.00,1.51
6664.00,1.51
6663.00,1.51
6662.00,1.51
6661.00,1.51
6660.00,1.52
6659.00,1.52
6658.00,1.52
6657.00,1.52
6656.00,1.52
6655.00,1.52
6654.00,1.52
6653.00,1.52
6652.00,1.52
6651.00,1.52
6650.00,1.52
6649.00,1.52
6648.00,1.52
6647.00,1.52
6646.00,1.52
6645.00,1.52
6644.00,1.52
6643.00,1.52
6642.00,1.52
6641.00,1.52
6640.00,1.52
6639.00,1.52
6638.00,1.51
6637.00,1.51
6636.00,1.51
6635.00,1.51
6634.00,1.51
6633.00,1.51
6632.00,1.51
6631.00,1.51
6630.00,1.50
6629.00,1.50
6628.00,1.50
6627.00,1.50
6626.00,1.50
6625.00,1.50
6624.00,1.50
6623.00,1.50
6622.00,1.50
6621.00,1.51
6620.00,1.51
6619.00,1.51
6618.00,1.51
6617.00,1.51
6616.00,1.51
6615.00,1.51
6614.00,1.52
6613.00,1.52
6612.00,1.52
6611.00,1.52
6610.00,1.52
6609.00,1.53
6608.00,1.53
6607.00,1.53
6606.00,1.53
6605.00,1.54
6604.00,1.54
6603.00,1.54
6602.00,1.54
6601.00,1.55
6600.00,1.55
6599.00,1.55
6598.00,1.56
6597.00,1.56
6596.00,1.56
6595.00,1.56
6594.00,1.56
6593.00,1.57
6592.00,1.57
6591.00,1.57
6590.00,1.57
6589.00,1.57
6588.00,1.57
6587.00,1.57
6586.00,1.57
6585.00,1.57
6584.00,1.57
6583.00,1.57
6582.00,1.57
6581.00,1.57
6580.00,1.57
6579.00,1.57
6578.00,1.57
6577.00,1.57
6576.00,1.57
6575.00,1.57
6574.00,1.57
6573.00,1.57
6572.00,1.57
6571.00,1.57
6570.00,1.57
6569.00,1.57
6568.00,1.57
6567.00,1.57
6566.00,1.57
6565.00,1.57
6564.00,1.57
6563.00,1.57
6562.00,1.58
6561.00,1.58
6560.00,1.58
6559.00,1.58
6558.00,1.59
6557.00,1.59
6556.00,1.59
6555.00,1.59
6554.00,1.59
6553.00,1.60
6552.00,1.60
6551.00,1.60
6550.00,1.60
6549.00,1.60
6548.00,1.60
6547.00,1.60
6546.00,1.60
6545.00,1.60
6544.00,1.61
6543.00,1.61
6542.00,1.61
6541.00,1.61
6540.00,1.61
6539.00,1.60
6538.00,1.60
6537.00,1.60
6536.00,1.60
6535.00,1.60
6534.00,1.60
6533.00,1.60
6532.00,1.60
6531.00,1.59
6530.00,1.59
6529.00,1.59
6528.00,1.59
6527.00,1.59
6526.00,1.59
6525.00,1.59
6524.00,1.59
6523.00,1.59
6522.00,1.59
6521.00,1.59
6520.00,1.59
6519.00,1.59
6518.00,1.59
6517.00,1.59
6516.00,1.59
6515.00,1.60
6514.00,1.60
6513.00,1.60
6512.00,1.60
6511.00,1.60
6510.00,1.60
6509.00,1.61
6508.00,1.61
6507.00,1.61
6506.00,1.61
6505.00,1.61
6504.00,1.62
6503.00,1.62
6502.00,1.62
6501.00,1.62
6500.00,1.62
6499.00,1.63
6498.00,1.63
6497.00,1.63
6496.00,1.63
6495.00,1.63
6494.00,1.63
6493.00,1.63
6492.00,1.63
6491.00,1.63
6490.00,1.63
6489.00,1.63
6488.00,1.63
6487.00,1.63
6486.00,1.63
6485.00,1.62
6484.00,1.62
6483.00,1.62
6482.00,1.62
6481.00,1.62
6480.00,1.62
6479.00,1.62
6478.00,1.62
6477.00,1.62
6476.00,1.62
6475.00,1.62
6474.00,1.62
6473.00,1.62
6472.00,1.62
6471.00,1.62
6470.00,1.62
6469.00,1.62
6468.00,1.62
6467.00,1.62
6466.00,1.62
6465.00,1.63
6464.00,1.63
6463.00,1.63
6462.00,1.63
6461.00,1.63
6460.00,1.64
6459.00,1.64
6458.00,1.64
6457.00,1.64
6456.00,1.65
6455.00,1.65
6454.00,1.65
6453.00,1.65
6452.00,1.65
6451.00,1.66
6450.00,1.66
6449.00,1.66
6448.00,1.66
6447.00,1.66
6446.00,1.67
6445.00,1.67
6444.00,1.67
6443.00,1.67
6442.00,1.67
6441.00,1.67
6440.00,1.67
6439.00,1.67
6438.00,1.67
6437.00,1.67
6436.00,1.67
6435.00,1.67
6434.00,1.68
6433.00,1.68
6432.00,1.68
6431.00,1.68
6430.00,1.68
6429.00,1.68
6428.00,1.68
6427.00,1.67
6426.00,1.67
6425.00,1.67
6424.00,1.67
6423.00,1.67
6422.00,1.67
6421.00,1.67
6420.00,1.67
6419.00,1.67
6418.00,1.67
6417.00,1.67
6416.00,1.67
6415.00,1.67
6414.00,1.67
6413.00,1.67
6412.00,1.67
6411.00,1.67
6410.00,1.67
6409.00,1.67
6408.00,1.67
6407.00,1.67
6406.00,1.68
6405.00,1.68
6404.00,1.68
6403.00,1.68
6402.00,1.68
6401.00,1.69
6400.00,1.69
6399.00,1.69
6398.00,1.70
6397.00,1.70
6396.00,1.70
6395.00,1.71
6394.00,1.71
6393.00,1.72
6392.00,1.72
6391.00,1.72
6390.00,1.73
6389.00,1.73
6388.00,1.73
6387.00,1.74
6386.00,1.74
6385.00,1.74
6384.00,1.74
6383.00,1.75
6382.00,1.75
6381.00,1.75
6380.00,1.75
6379.00,1.75
6378.00,1.75
6377.00,1.75
6376.00,1.76
6375.00,1.76
6374.00,1.76
6373.00,1.76
6372.00,1.76
6371.00,1.76
6370.00,1.76
6369.00,1.76
6368.00,1.76
6367.00,1.76
6366.00,1.76
6365.00,1.76
6364.00,1.76
6363.00,1.76
6362.00,1.76
6361.00,1.76
6360.00,1.76
6359.00,1.76
6358.00,1.76
6357.00,1.76
6356.00,1.76
6355.00,1.76
6354.00,1.76
6353.00,1.76
6352.00,1.76
6351.00,1.76
6350.00,1.76
6349.00,1.76
6348.00,1.76
6347.00,1.76
6346.00,1.76
6345.00,1.76
6344.00,1.76
6343.00,1.76
6342.00,1.76
6341.00,1.76
6340.00,1.76
6339.00,1.76
6338.00,1.76
6337.00,1.76
6336.00,1.76
6335.00,1.76
6334.00,1.76
6333.00,1.75
6332.00,1.75
6331.00,1.75
6330.00,1.75
6329.00,1.75
6328.00,1.75
6327.00,1.75
6326.00,1.75
6325.00,1.75
6324.00,1.75
6323.00,1.75
6322.00,1.75
6321.00,1.76
6320.00,1.76
6319.00,1.76
6318.00,1.76
6317.00,1.76
6316.00,1.76
6315.00,1.76
6314.00,1.77
6313.00,1.77
6312.00,1.77
6311.00,1.77
6310.00,1.77
6309.00,1.78
6308.00,1.78
6307.00,1.78
6306.00,1.78
6305.00,1.78
6304.00,1.78
6303.00,1.79
6302.00,1.79
6301.00,1.79
6300.00,1.79
6299.00,1.79
6298.00,1.79
6297.00,1.80
6296.00,1.80
6295.00,1.80
6294.00,1.80
6293.00,1.80
6292.00,1.80
6291.00,1.80
6290.00,1.80
6289.00,1.80
6288.00,1.80
6287.00,1.80
6286.00,1.80
6285.00,1.80
6284.00,1.81
6283.00,1.81
6282.00,1.81
6281.00,1.81
6280.00,1.81
6279.00,1.81
6278.00,1.81
6277.00,1.81
6276.00,1.81
6275.00,1.81
6274.00,1.81
6273.00,1.81
6272.00,1.81
6271.00,1.81
6270.00,1.81
6269.00,1.81
6268.00,1.81
6267.00,1.81
6266.00,1.81
6265.00,1.80
6264.00,1.80
6263.00,1.80
6262.00,1.80
6261.00,1.80
6260.00,1.80
6259.00,1.80
6258.00,1.80
6257.00,1.80
6256.00,1.80
6255.00,1.80
6254.00,1.80
6253.00,1.80
6252.00,1.80
6251.00,1.79
6250.00,1.79
6249.00,1.79
6248.00,1.79
6247.00,1.79
6246.00,1.79
6245.00,1.79
6244.00,1.79
6243.00,1.80
6242.00,1.80
6241.00,1.80
6240.00,1.80
6239.00,1.80
6238.00,1.80
6237.00,1.80
6236.00,1.80
6235.00,1.81
6234.00,1.81
6233.00,1.81
6232.00,1.81
6231.00,1.81
6230.00,1.81
6229.00,1.81
6228.00,1.81
6227.00,1.82
6226.00,1.82
6225.00,1.82
6224.00,1.82
6223.00,1.82
6222.00,1.82
6221.00,1.82
6220.00,1.83
6219.00,1.83
6218.00,1.83
6217.00,1.83
6216.00,1.83
6215.00,1.83
6214.00,1.83
6213.00,1.83
6212.00,1.83
6211.00,1.83
6210.00,1.83
6209.00,1.84
6208.00,1.84
6207.00,1.84
6206.00,1.84
6205.00,1.84
6204.00,1.84
6203.00,1.84
6202.00,1.83
6201.00,1.83
6200.00,1.83
6199.00,1.83
6198.00,1.83
6197.00,1.83
6196.00,1.83
6195.00,1.83
6194.00,1.83
6193.00,1.83
6192.00,1.83
6191.00,1.83
6190.00,1.83
6189.00,1.83
6188.00,1.83
6187.00,1.83
6186.00,1.83
6185.00,1.83
6184.00,1.83
6183.00,1.83
6182.00,1.83
6181.00,1.83
6180.00,1.83
6179.00,1.83
6178.00,1.83
6177.00,1.83
6176.00,1.83
6175.00,1.83
6174.00,1.84
6173.00,1.84
6172.00,1.84
6171.00,1.84
6170.00,1.84
6169.00,1.84
6168.00,1.84
6167.00,1.85
6166.00,1.85
6165.00,1.85
6164.00,1.85
6163.00,1.85
6162.00,1.85
6161.00,1.85
6160.00,1.85
6159.00,1.85
6158.00,1.86
6157.00,1.86
6156.00,1.86
6155.00,1.86
6154.00,1.86
6153.00,1.86
6152.00,1.87
6151.00,1.87
6150.00,1.87
6149.00,1.87
6148.00,1.87
6147.00,1.88
6146.00,1.88
6145.00,1.88
6144.00,1.88
6143.00,1.88
6142.00,1.89
6141.00,1.89
6140.00,1.89
6139.00,1.89
6138.00,1.89
6137.00,1.90
6136.00,1.90
6135.00,1.90
6134.00,1.90
6133.00,1.91
6132.00,1.91
6131.00,1.91
6130.00,1.91
6129.00,1.91
6128.00,1.92
6127.00,1.92
6126.00,1.92
6125.00,1.92
6124.00,1.92
6123.00,1.92
6122.00,1.92
6121.00,1.92
6120.00,1.92
6119.00,1.92
6118.00,1.92
6117.00,1.92
6116.00,1.92
6115.00,1.92
6114.00,1.92
6113.00,1.91
6112.00,1.91
6111.00,1.91
6110.00,1.91
6109.00,1.91
6108.00,1.90
6107.00,1.90
6106.00,1.90
6105.00,1.90
6104.00,1.90
6103.00,1.89
6102.00,1.89
6101.00,1.89
6100.00,1.89
6099.00,1.89
6098.00,1.88
6097.00,1.88
6096.00,1.88
6095.00,1.88
6094.00,1.88
6093.00,1.87
6092.00,1.87
6091.00,1.87
6090.00,1.87
6089.00,1.87
6088.00,1.87
6087.00,1.87
6086.00,1.87
6085.00,1.87
6084.00,1.87
6083.00,1.87
6082.00,1.87
6081.00,1.87
6080.00,1.87
6079.00,1.87
6078.00,1.87
6077.00,1.87
6076.00,1.87
6075.00,1.88
6074.00,1.88
6073.00,1.88
6072.00,1.88
6071.00,1.88
6070.00,1.88
6069.00,1.89
6068.00,1.89
6067.00,1.89
6066.00,1.89
6065.00,1.89
6064.00,1.90
6063.00,1.90
6062.00,1.90
6061.00,1.90
6060.00,1.90
6059.00,1.91
6058.00,1.91
6057.00,1.91
6056.00,1.91
6055.00,1.91
6054.00,1.91
6053.00,1.91
6052.00,1.91
6051.00,1.92
6050.00,1.92
6049.00,1.92
6048.00,1.92
6047.00,1.92
6046.00,1.92
6045.00,1.92
6044.00,1.92
6043.00,1.92
6042.00,1.92
6041.00,1.92
6040.00,1.92
6039.00,1.92
6038.00,1.92
6037.00,1.92
6036.00,1.92
6035.00,1.92
6034.00,1.92
6033.00,1.91
6032.00,1.91
6031.00,1.91
6030.00,1.91
6029.00,1.91
6028.00,1.91
6027.00,1.91
6026.00,1.91
6025.00,1.91
6024.00,1.91
6023.00,1.91
6022.00,1.91
6021.00,1.91
6020.00,1.91
6019.00,1.91
6018.00,1.91
6017.00,1.90
6016.00,1.90
6015.00,1.90
6014.00,1.90
6013.00,1.90
6012.00,1.90
6011.00,1.90
6010.00,1.90
6009.00,1.90
6008.00,1.90
6007.00,1.90
6006.00,1.90
6005.00,1.90
6004.00,1.90
6003.00,1.90
6002.00,1.90
6001.00,1.90
6000.00,1.90
5999.00,1.90
5998.00,1.90
5997.00,1.90
5996.00,1.90
5995.00,1.90
5994.00,1.90
5993.00,1.90
5992.00,1.90
5991.00,1.90
5990.00,1.90
5989.00,1.90
5988.00,1.89
5987.00,1.89
5986.00,1.89
5985.00,1.89
5984.00,1.89
5983.00,1.89
5982.00,1.89
5981.00,1.89
5980.00,1.89
5979.00,1.89
5978.00,1.89
5977.00,1.89
5976.00,1.89
5975.00,1.89
5974.00,1.89
5973.00,1.89
5972.00,1.89
5971.00,1.89
5970.00,1.89
5969.00,1.89
5968.00,1.89
5967.00,1.89
5966.00,1.89
5965.00,1.89
5964.00,1.89
5963.00,1.88
5962.00,1.88
5961.00,1.88
5960.00,1.88
5959.00,1.88
5958.00,1.87
5957.00,1.87
5956.00,1.87
5955.00,1.87
5954.00,1.86
5953.00,1.86
5952.00,1.86
5951.00,1.86
5950.00,1.85
5949.00,1.85
5948.00,1.85
5947.00,1.85
5946.00,1.85
5945.00,1.84
5944.00,1.84
5943.00,1.84
5942.00,1.84
5941.00,1.84
5940.00,1.84
5939.00,1.83
5938.00,1.83
5937.00,1.83
5936.00,1.83
5935.00,1.83
5934.00,1.83
5933.00,1.83
5932.00,1.83
5931.00,1.83
5930.00,1.82
5929.00,1.82
5928.00,1.82
5927.00,1.82
5926.00,1.82
5925.00,1.82
5924.00,1.82
5923.00,1.82
5922.00,1.82
5921.00,1.82
5920.00,1.82
5919.00,1.82
5918.00,1.82
5917.00,1.82
5916.00,1.82
5915.00,1.83
5914.00,1.83
5913.00,1.83
5912.00,1.83
5911.00,1.83
5910.00,1.83
5909.00,1.83
5908.00,1.83
5907.00,1.83
5906.00,1.83
5905.00,1.83
5904.00,1.83
5903.00,1.83
5902.00,1.83
5901.00,1.83
5900.00,1.83
5899.00,1.83
5898.00,1.83
5897.00,1.83
5896.00,1.83
5895.00,1.83
5894.00,1.83
5893.00,1.82
5892.00,1.82
5891.00,1.82
5890.00,1.82
5889.00,1.82
5888.00,1.82
5887.00,1.82
5886.00,1.82
5885.00,1.82
5884.00,1.82
5883.00,1.82
5882.00,1.82
5881.00,1.82
5880.00,1.82
5879.00,1.82
5878.00,1.82
5877.00,1.82
5876.00,1.82
5875.00,1.82
5874.00,1.82
5873.00,1.82
5872.00,1.82
5871.00,1.82
5870.00,1.82
5869.00,1.82
5868.00,1.82
5867.00,1.82
5866.00,1.82
5865.00,1.82
5864.00,1.82
5863.00,1.82
5862.00,1.82
5861.00,1.82
5860.00,1.82
5859.00,1.82
5858.00,1.82
5857.00,1.82
5856.00,1.82
5855.00,1.82
5854.00,1.82
5853.00,1.82
5852.00,1.82
5851.00,1.82
5850.00,1.82
5849.00,1.82
5848.00,1.82
5847.00,1.82
5846.00,1.82
5845.00,1.82
5844.00,1.82
5843.00,1.82
5842.00,1.82
5841.00,1.82
5840.00,1.82
5839.00,1.82
5838.00,1.82
5837.00,1.82
5836.00,1.82
5835.00,1.82
5834.00,1.82
5833.00,1.82
5832.00,1.83
5831.00,1.83
5830.00,1.83
5829.00,1.83
5828.00,1.83
5827.00,1.83
5826.00,1.84
5825.00,1.84
5824.00,1.84
5823.00,1.84
5822.00,1.84
5821.00,1.84
5820.00,1.85
5819.00,1.85
5818.00,1.85
5817.00,1.85
5816.00,1.85
5815.00,1.85
5814.00,1.86
5813.00,1.86
5812.00,1.86
5811.00,1.86
5810.00,1.86
5809.00,1.86
5808.00,1.86
5807.00,1.86
5806.00,1.86
5805.00,1.86
5804.00,1.86
5803.00,1.86
5802.00,1.85
5801.00,1.85
5800.00,1.85
5799.00,1.85
5798.00,1.85
5797.00,1.85
5796.00,1.85
5795.00,1.84
5794.00,1.84
5793.00,1.84
5792.00,1.84
5791.00,1.84
5790.00,1.84
5789.00,1.84
5788.00,1.84
5787.00,1.84
5786.00,1.84
5785.00,1.84
5784.00,1.84
5783.00,1.84
5782.00,1.84
5781.00,1.84
5780.00,1.84
5779.00,1.84
5778.00,1.84
5777.00,1.84
5776.00,1.84
5775.00,1.84
5774.00,1.84
5773.00,1.84
5772.00,1.84
5771.00,1.84
5770.00,1.84
5769.00,1.84
5768.00,1.84
5767.00,1.84
5766.00,1.84
5765.00,1.84
5764.00,1.84
5763.00,1.84
5762.00,1.84
5761.00,1.84
5760.00,1.84
5759.00,1.84
5758.00,1.84
5757.00,1.83
5756.00,1.83
5755.00,1.83
5754.00,1.83
5753.00,1.83
5752.00,1.83
5751.00,1.83
5750.00,1.83
5749.00,1.83
5748.00,1.83
5747.00,1.83
5746.00,1.83
5745.00,1.82
5744.00,1.82
5743.00,1.82
5742.00,1.82
5741.00,1.82
5740.00,1.82
5739.00,1.82
5738.00,1.82
5737.00,1.82
5736.00,1.82
5735.00,1.82
5734.00,1.82
5733.00,1.82
5732.00,1.82
5731.00,1.82
5730.00,1.83
5729.00,1.83
5728.00,1.83
5727.00,1.83
5726.00,1.83
5725.00,1.83
5724.00,1.83
5723.00,1.83
5722.00,1.83
5721.00,1.83
5720.00,1.83
5719.00,1.83
5718.00,1.83
5717.00,1.83
5716.00,1.83
5715.00,1.83
5714.00,1.83
5713.00,1.83
5712.00,1.83
5711.00,1.82
5710.00,1.82
5709.00,1.82
5708.00,1.82
5707.00,1.82
5706.00,1.82
5705.00,1.82
5704.00,1.82
5703.00,1.82
5702.00,1.81
5701.00,1.81
5700.00,1.81
5699.00,1.81
5698.00,1.81
5697.00,1.81
5696.00,1.81
5695.00,1.81
5694.00,1.81
5693.00,1.81
5692.00,1.81
5691.00,1.81
5690.00,1.81
5689.00,1.81
5688.00,1.81
5687.00,1.81
5686.00,1.81
5685.00,1.81
5684.00,1.81
5683.00,1.81
5682.00,1.81
5681.00,1.81
5680.00,1.81
5679.00,1.81
5678.00,1.81
5677.00,1.81
5676.00,1.81
5675.00,1.81
5674.00,1.81
5673.00,1.81
5672.00,1.81
5671.00,1.81
5670.00,1.81
5669.00,1.81
5668.00,1.81
5667.00,1.81
5666.00,1.81
5665.00,1.81
5664.00,1.81
5663.00,1.81
5662.00,1.81
5661.00,1.81
5660.00,1.81
5659.00,1.81
5658.00,1.81
5657.00,1.81
5656.00,1.81
5655.00,1.81
5654.00,1.81
5653.00,1.81
5652.00,1.81
5651.00,1.81
5650.00,1.81
5649.00,1.81
5648.00,1.81
5647.00,1.82
5646.00,1.82
5645.00,1.82
5644.00,1.82
5643.00,1.82
5642.00,1.82
5641.00,1.82
5640.00,1.82
5639.00,1.83
5638.00,1.83
5637.00,1.83
5636.00,1.83
5635.00,1.83
5634.00,1.83
5633.00,1.83
5632.00,1.84
5631.00,1.84
5630.00,1.84
5629.00,1.84
5628.00,1.84
5627.00,1.84
5626.00,1.84
5625.00,1.84
5624.00,1.84
5623.00,1.84
5622.00,1.85
5621.00,1.85
5620.00,1.85
5619.00,1.85
5618.00,1.85
5617.00,1.85
5616.00,1.85
5615.00,1.85
5614.00,1.85
5613.00,1.85
5612.00,1.86
5611.00,1.86
5610.00,1.86
5609.00,1.86
5608.00,1.86
5607.00,1.86
5606.00,1.86
5605.00,1.86
5604.00,1.86
5603.00,1.86
5602.00,1.86
5601.00,1.86
5600.00,1.86
5599.00,1.86
5598.00,1.86
5597.00,1.86
5596.00,1.86
5595.00,1.86
5594.00,1.86
5593.00,1.86
5592.00,1.86
5591.00,1.86
5590.00,1.86
5589.00,1.85
5588.00,1.85
5587.00,1.85
5586.00,1.85
5585.00,1.85
5584.00,1.85
5583.00,1.85
5582.00,1.85
5581.00,1.85
5580.00,1.85
5579.00,1.85
5578.00,1.85
5577.00,1.85
5576.00,1.85
5575.00,1.85
5574.00,1.85
5573.00,1.85
5572.00,1.85
5571.00,1.85
5570.00,1.85
5569.00,1.85
5568.00,1.85
5567.00,1.85
5566.00,1.85
5565.00,1.85
5564.00,1.86
5563.00,1.86
5562.00,1.86
5561.00,1.86
5560.00,1.86
5559.00,1.86
5558.00,1.86
5557.00,1.86
5556.00,1.86
5555.00,1.86
5554.00,1.86
5553.00,1.86
5552.00,1.86
5551.00,1.86
5550.00,1.86
5549.00,1.86
5548.00,1.86
5547.00,1.86
5546.00,1.86
5545.00,1.87
5544.00,1.87
5543.00,1.87
5542.00,1.87
5541.00,1.87
5540.00,1.87
5539.00,1.87
5538.00,1.87
5537.00,1.87
5536.00,1.87
5535.00,1.87
5534.00,1.87
5533.00,1.87
5532.00,1.87
5531.00,1.87
5530.00,1.87
5529.00,1.87
5528.00,1.87
5527.00,1.87
5526.00,1.87
5525.00,1.87
5524.00,1.87
5523.00,1.87
5522.00,1.87
5521.00,1.87
5520.00,1.87
5519.00,1.88
5518.00,1.88
5517.00,1.88
5516.00,1.88
5515.00,1.88
5514.00,1.88
5513.00,1.88
5512.00,1.89
5511.00,1.89
5510.00,1.89
5509.00,1.89
5508.00,1.89
5507.00,1.89
5506.00,1.90
5505.00,1.90
5504.00,1.90
5503.00,1.90
5502.00,1.90
5501.00,1.90
5500.00,1.90
5499.00,1.90
5498.00,1.91
5497.00,1.91
5496.00,1.91
5495.00,1.91
5494.00,1.91
5493.00,1.91
5492.00,1.91
5491.00,1.91
5490.00,1.91
5489.00,1.91
5488.00,1.91
5487.00,1.91
5486.00,1.91
5485.00,1.91
5484.00,1.91
5483.00,1.91
5482.00,1.91
5481.00,1.91
5480.00,1.91
5479.00,1.91
5478.00,1.91
5477.00,1.91
5476.00,1.91
5475.00,1.91
5474.00,1.91
5473.00,1.91
5472.00,1.91
5471.00,1.91
5470.00,1.92
5469.00,1.92
5468.00,1.92
5467.00,1.92
5466.00,1.92
5465.00,1.92
5464.00,1.92
5463.00,1.92
5462.00,1.92
5461.00,1.92
5460.00,1.92
5459.00,1.92
5458.00,1.92
5457.00,1.92
5456.00,1.93
5455.00,1.93
5454.00,1.93
5453.00,1.93
5452.00,1.93
5451.00,1.93
5450.00,1.93
5449.00,1.93
5448.00,1.93
5447.00,1.93
5446.00,1.93
5445.00,1.93
5444.00,1.93
5443.00,1.93
5442.00,1.93
5441.00,1.93
5440.00,1.93
5439.00,1.93
5438.00,1.93
5437.00,1.93
5436.00,1.93
5435.00,1.93
5434.00,1.93
5433.00,1.93
5432.00,1.93
5431.00,1.93
5430.00,1.93
5429.00,1.93
5428.00,1.93
5427.00,1.93
5426.00,1.93
5425.00,1.93
5424.00,1.93
5423.00,1.93
5422.00,1.92
5421.00,1.92
5420.00,1.92
5419.00,1.92
5418.00,1.92
5417.00,1.92
5416.00,1.92
5415.00,1.92
5414.00,1.92
5413.00,1.92
5412.00,1.92
5411.00,1.92
5410.00,1.92
5409.00,1.92
5408.00,1.92
5407.00,1.92
5406.00,1.92
5405.00,1.92
5404.00,1.92
5403.00,1.92
5402.00,1.92
5401.00,1.92
5400.00,1.92
5399.00,1.91
5398.00,1.91
5397.00,1.91
5396.00,1.91
5395.00,1.91
5394.00,1.91
5393.00,1.91
5392.00,1.91
5391.00,1.91
5390.00,1.91
5389.00,1.91
5388.00,1.91
5387.00,1.91
5386.00,1.90
5385.00,1.90
5384.00,1.90
5383.00,1.90
5382.00,1.90
5381.00,1.90
5380.00,1.89
5379.00,1.89
5378.00,1.89
5377.00,1.89
5376.00,1.89
5375.00,1.88
5374.00,1.88
5373.00,1.88
5372.00,1.88
5371.00,1.87
5370.00,1.87
5369.00,1.87
5368.00,1.86
5367.00,1.86
5366.00,1.86
5365.00,1.86
5364.00,1.85
5363.00,1.85
5362.00,1.85
5361.00,1.84
5360.00,1.84
5359.00,1.84
5358.00,1.83
5357.00,1.83
5356.00,1.83
5355.00,1.82
5354.00,1.82
5353.00,1.81
5352.00,1.81
5351.00,1.81
5350.00,1.80
5349.00,1.80
5348.00,1.79
5347.00,1.79
5346.00,1.78
5345.00,1.78
5344.00,1.77
5343.00,1.77
5342.00,1.76
5341.00,1.76
5340.00,1.75
5339.00,1.75
5338.00,1.74
5337.00,1.73
5336.00,1.73
5335.00,1.72
5334.00,1.71
5333.00,1.71
5332.00,1.70
5331.00,1.69
5330.00,1.68
5329.00,1.68
5328.00,1.67
5327.00,1.66
5326.00,1.65
5325.00,1.65
5324.00,1.64
5323.00,1.63
5322.00,1.62
5321.00,1.61
5320.00,1.61
5319.00,1.60
5318.00,1.59
5317.00,1.58
5316.00,1.57
5315.00,1.56
5314.00,1.55
5313.00,1.55
5312.00,1.54
5311.00,1.53
5310.00,1.52
5309.00,1.51
5308.00,1.50
5307.00,1.49
5306.00,1.49
5305.00,1.48
5304.00,1.47
5303.00,1.46
5302.00,1.45
5301.00,1.44
5300.00,1.43
5299.00,1.42
5298.00,1.42
5297.00,1.41
5296.00,1.40
5295.00,1.39
5294.00,1.38
5293.00,1.37
5292.00,1.36
5291.00,1.35
5290.00,1.35
5289.00,1.34
5288.00,1.33
5287.00,1.32
5286.00,1.31
5285.00,1.30
5284.00,1.30
5283.00,1.29
5282.00,1.28
5281.00,1.27
5280.00,1.27
5279.00,1.26
5278.00,1.25
5277.00,1.24
5276.00,1.24
5275.00,1.23
5274.00,1.22
5273.00,1.22
5272.00,1.21
5271.00,1.20
5270.00,1.20
5269.00,1.19
5268.00,1.19
5267.00,1.18
5266.00,1.17
5265.00,1.17
5264.00,1.16
5263.00,1.16
5262.00,1.15
5261.00,1.15
5260.00,1.15
5259.00,1.14
5258.00,1.14
5257.00,1.13
5256.00,1.13
5255.00,1.13
5254.00,1.12
5253.00,1.12
5252.00,1.12
5251.00,1.11
5250.00,1.11
5249.00,1.11
5248.00,1.10
5247.00,1.10
5246.00,1.10
5245.00,1.10
5244.00,1.09
5243.00,1.09
5242.00,1.09
5241.00,1.08
5240.00,1.08
5239.00,1.08
5238.00,1.08
5237.00,1.07
5236.00,1.07
5235.00,1.07
5234.00,1.06
5233.00,1.06
5232.00,1.06
5231.00,1.05
5230.00,1.05
5229.00,1.05
5228.00,1.04
5227.00,1.04
5226.00,1.04
5225.00,1.03
5224.00,1.03
5223.00,1.03
5222.00,1.03
5221.00,1.02
5220.00,1.02
5219.00,1.02
5218.00,1.02
5217.00,1.01
5216.00,1.01
5215.00,1.01
5214.00,1.01
5213.00,1.01
5212.00,1.00
5211.00,1.00
5210.00,1.00
5209.00,1.00
5208.00,1.00
5207.00,1.00
5206.00,1.00
5205.00,1.00
5204.00,1.00
5203.00,1.00
5202.00,1.00
5201.00,1.00
5200.00,1.00
5199.00,1.00
5198.00,1.00
5197.00,1.00
5196.00,1.00
5195.00,1.00
5194.00,1.00
5193.00,1.00
5192.00,1.00
5191.00,1.00
5190.00,1.00
5189.00,1.00
5188.00,1.00
5187.00,1.00
5186.00,1.00
5185.00,1.00
5184.00,1.00
5183.00,1.00
5182.00,1.00
5181.00,1.00
5180.00,1.00
5179.00,1.00
5178.00,1.00
5177.00,1.00
5176.00,1.00
5175.00,1.00
5174.00,1.00
5173.00,1.00
5172.00,1.00
5171.00,1.00
5170.00,1.01
5169.00,1.01
5168.00,1.01
5167.00,1.01
5166.00,1.01
5165.00,1.01
5164.00,1.01
5163.00,1.01
5162.00,1.01
5161.00,1.01
5160.00,1.01
5159.00,1.01
5158.00,1.01
5157.00,1.01
5156.00,1.01
5155.00,1.02
5154.00,1.02
5153.00,1.02
5152.00,1.02
5151.00,1.02
5150.00,1.02
5149.00,1.02
5148.00,1.02
5147.00,1.02
5146.00,1.02
5145.00,1.02
5144.00,1.02
5143.00,1.02
5142.00,1.02
5141.00,1.02
5140.00,1.02
5139.00,1.02
5138.00,1.02
5137.00,1.02
5136.00,1.02
5135.00,1.02
5134.00,1.02
5133.00,1.03
5132.00,1.03
5131.00,1.03
5130.00,1.03
5129.00,1.03
5128.00,1.03
5127.00,1.03
5126.00,1.03
5125.00,1.03
5124.00,1.04
5123.00,1.04
5122.00,1.04
5121.00,1.04
5120.00,1.04
5119.00,1.04
5118.00,1.05
5117.00,1.05
5116.00,1.05
5115.00,1.05
5114.00,1.05
5113.00,1.05
5112.00,1.06
5111.00,1.06
5110.00,1.06
5109.00,1.06
5108.00,1.06
5107.00,1.07
5106.00,1.07
5105.00,1.07
5104.00,1.07
5103.00,1.08
5102.00,1.08
5101.00,1.08
5100.00,1.08
5099.00,1.09
5098.00,1.09
5097.00,1.09
5096.00,1.10
5095.00,1.10
5094.00,1.10
5093.00,1.10
5092.00,1.11
5091.00,1.11
5090.00,1.11
5089.00,1.11
5088.00,1.12
5087.00,1.12
5086.00,1.12
5085.00,1.12
5084.00,1.13
5083.00,1.13
5082.00,1.13
5081.00,1.13
5080.00,1.14
5079.00,1.14
5078.00,1.14
5077.00,1.14
5076.00,1.14
5075.00,1.15
5074.00,1.15
5073.00,1.15
5072.00,1.15
5071.00,1.15
5070.00,1.15
5069.00,1.16
5068.00,1.16
5067.00,1.16
5066.00,1.16
5065.00,1.16
5064.00,1.17
5063.00,1.17
5062.00,1.17
5061.00,1.17
5060.00,1.17
5059.00,1.18
5058.00,1.18
5057.00,1.18
5056.00,1.18
5055.00,1.18
5054.00,1.18
5053.00,1.19
5052.00,1.19
5051.00,1.19
5050.00,1.19
5049.00,1.20
5048.00,1.20
5047.00,1.20
5046.00,1.20
5045.00,1.21
5044.00,1.21
5043.00,1.21
5042.00,1.21
5041.00,1.21
5040.00,1.22
5039.00,1.22
5038.00,1.22
5037.00,1.22
5036.00,1.22
5035.00,1.22
5034.00,1.23
5033.00,1.23
5032.00,1.23
5031.00,1.23
5030.00,1.24
5029.00,1.24
5028.00,1.24
5027.00,1.24
5026.00,1.24
5025.00,1.25
5024.00,1.25
5023.00,1.25
5022.00,1.25
5021.00,1.26
5020.00,1.26
5019.00,1.26
5018.00,1.26
5017.00,1.26
5016.00,1.27
5015.00,1.27
5014.00,1.27
5013.00,1.27
5012.00,1.28
5011.00,1.28
5010.00,1.28
5009.00,1.28
5008.00,1.29
5007.00,1.29
5006.00,1.29
5005.00,1.30
5004.00,1.30
5003.00,1.30
5002.00,1.30
5001.00,1.31
5000.00,1.31
4999.00,1.31
4998.00,1.31
4997.00,1.32
4996.00,1.32
4995.00,1.32
4994.00,1.32
4993.00,1.33
4992.00,1.33
4991.00,1.33
4990.00,1.33
4989.00,1.34
4988.00,1.34
4987.00,1.34
4986.00,1.34
4985.00,1.35
4984.00,1.35
4983.00,1.35
4982.00,1.35
4981.00,1.35
4980.00,1.36
4979.00,1.36
4978.00,1.36
4977.00,1.36
4976.00,1.37
4975.00,1.37
4974.00,1.37
4973.00,1.37
4972.00,1.38
4971.00,1.38
4970.00,1.38
4969.00,1.38
4968.00,1.39
4967.00,1.39
4966.00,1.39
4965.00,1.39
4964.00,1.39
4963.00,1.40
4962.00,1.40
4961.00,1.40
4960.00,1.40
4959.00,1.41
4958.00,1.41
4957.00,1.41
4956.00,1.41
4955.00,1.42
4954.00,1.42
4953.00,1.42
4952.00,1.42
4951.00,1.42
4950.00,1.43
4949.00,1.43
4948.00,1.43
4947.00,1.43
4946.00,1.43
4945.00,1.44
4944.00,1.44
4943.00,1.44
4942.00,1.44
4941.00,1.44
4940.00,1.45
4939.00,1.45
4938.00,1.45
4937.00,1.45
4936.00,1.45
4935.00,1.45
4934.00,1.46
4933.00,1.46
4932.00,1.46
4931.00,1.46
4930.00,1.46
4929.00,1.46
4928.00,1.46
4927.00,1.47
4926.00,1.47
4925.00,1.47
4924.00,1.47
4923.00,1.47
4922.00,1.48
4921.00,1.48
4920.00,1.48
4919.00,1.48
4918.00,1.48
4917.00,1.48
4916.00,1.49
4915.00,1.49
4914.00,1.49
4913.00,1.49
4912.00,1.49
4911.00,1.49
4910.00,1.50
4909.00,1.50
4908.00,1.50
4907.00,1.50
4906.00,1.50
4905.00,1.51
4904.00,1.51
4903.00,1.51
4902.00,1.51
4901.00,1.51
4900.00,1.52
4899.00,1.52
4898.00,1.52
4897.00,1.52
4896.00,1.52
4895.00,1.53
4894.00,1.53
4893.00,1.53
4892.00,1.53
4891.00,1.53
4890.00,1.53
4889.00,1.53
4888.00,1.54
4887.00,1.54
4886.00,1.54
4885.00,1.54
4884.00,1.54
4883.00,1.54
4882.00,1.54
4881.00,1.55
4880.00,1.55
4879.00,1.55
4878.00,1.55
4877.00,1.55
4876.00,1.55
4875.00,1.55
4874.00,1.56
4873.00,1.56
4872.00,1.56
4871.00,1.56
4870.00,1.56
4869.00,1.56
4868.00,1.56
4867.00,1.57
4866.00,1.57
4865.00,1.57
4864.00,1.57
4863.00,1.57
4862.00,1.58
4861.00,1.58
4860.00,1.58
4859.00,1.58
4858.00,1.58
4857.00,1.59
4856.00,1.59
4855.00,1.59
4854.00,1.59
4853.00,1.59
4852.00,1.59
4851.00,1.60
4850.00,1.60
4849.00,1.60
4848.00,1.60
4847.00,1.60
4846.00,1.60
4845.00,1.61
4844.00,1.61
4843.00,1.61
4842.00,1.61
4841.00,1.61
4840.00,1.61
4839.00,1.62
4838.00,1.62
4837.00,1.62
4836.00,1.62
4835.00,1.62
4834.00,1.62
4833.00,1.62
4832.00,1.62
4831.00,1.62
4830.00,1.63
4829.00,1.63
4828.00,1.63
4827.00,1.63
4826.00,1.63
4825.00,1.63
4824.00,1.64
4823.00,1.64
4822.00,1.64
4821.00,1.64
4820.00,1.64
4819.00,1.64
4818.00,1.65
4817.00,1.65
4816.00,1.65
4815.00,1.65
4814.00,1.65
4813.00,1.66
4812.00,1.66
4811.00,1.66
4810.00,1.66
4809.00,1.67
4808.00,1.67
4807.00,1.67
4806.00,1.68
4805.00,1.68
4804.00,1.68
4803.00,1.69
4802.00,1.69
4801.00,1.69
4800.00,1.69
4799.00,1.69
4798.00,1.70
4797.00,1.70
4796.00,1.70
4795.00,1.70
4794.00,1.70
4793.00,1.71
4792.00,1.71
4791.00,1.71
4790.00,1.71
4789.00,1.71
4788.00,1.71
4787.00,1.72
4786.00,1.72
4785.00,1.72
4784.00,1.72
4783.00,1.72
4782.00,1.72
4781.00,1.73
4780.00,1.73
4779.00,1.73
4778.00,1.73
4777.00,1.73
4776.00,1.73
4775.00,1.73
4774.00,1.73
4773.00,1.73
4772.00,1.74
4771.00,1.74
4770.00,1.74
4769.00,1.74
4768.00,1.74
4767.00,1.74
4766.00,1.74
4765.00,1.74
4764.00,1.74
4763.00,1.74
4762.00,1.74
4761.00,1.74
4760.00,1.74
4759.00,1.74
4758.00,1.74
4757.00,1.75
4756.00,1.75
4755.00,1.75
4754.00,1.75
4753.00,1.75
4752.00,1.75
4751.00,1.75
4750.00,1.75
4749.00,1.75
4748.00,1.76
4747.00,1.76
4746.00,1.76
4745.00,1.76
4744.00,1.76
4743.00,1.77
4742.00,1.77
4741.00,1.77
4740.00,1.77
4739.00,1.78
4738.00,1.78
4737.00,1.78
4736.00,1.78
4735.00,1.78
4734.00,1.79
4733.00,1.79
4732.00,1.79
4731.00,1.79
4730.00,1.79
4729.00,1.79
4728.00,1.79
4727.00,1.79
4726.00,1.79
4725.00,1.79
4724.00,1.80
4723.00,1.80
4722.00,1.80
4721.00,1.80
4720.00,1.80
4719.00,1.80
4718.00,1.80
4717.00,1.80
4716.00,1.80
4715.00,1.80
4714.00,1.80
4713.00,1.80
4712.00,1.80
4711.00,1.80
4710.00,1.80
4709.00,1.80
4708.00,1.80
4707.00,1.81
4706.00,1.81
4705.00,1.81
4704.00,1.81
4703.00,1.81
4702.00,1.81
4701.00,1.81
4700.00,1.81
4699.00,1.82
4698.00,1.82
4697.00,1.82
4696.00,1.82
4695.00,1.82
4694.00,1.82
4693.00,1.82
4692.00,1.82
4691.00,1.82
4690.00,1.83
4689.00,1.83
4688.00,1.83
4687.00,1.83
4686.00,1.83
4685.00,1.83
4684.00,1.83
4683.00,1.83
4682.00,1.83
4681.00,1.83
4680.00,1.83
4679.00,1.83
4678.00,1.83
4677.00,1.83
4676.00,1.83
4675.00,1.83
4674.00,1.84
4673.00,1.84
4672.00,1.84
4671.00,1.84
4670.00,1.84
4669.00,1.84
4668.00,1.84
4667.00,1.85
4666.00,1.85
4665.00,1.85
4664.00,1.85
4663.00,1.85
4662.00,1.86
4661.00,1.86
4660.00,1.86
4659.00,1.86
4658.00,1.86
4657.00,1.87
4656.00,1.87
4655.00,1.87
4654.00,1.87
4653.00,1.87
4652.00,1.87
4651.00,1.87
4650.00,1.87
4649.00,1.87
4648.00,1.88
4647.00,1.88
4646.00,1.88
4645.00,1.88
4644.00,1.88
4643.00,1.88
4642.00,1.88
4641.00,1.88
4640.00,1.88
4639.00,1.88
4638.00,1.88
4637.00,1.88
4636.00,1.89
4635.00,1.89
4634.00,1.89
4633.00,1.89
4632.00,1.89
4631.00,1.89
4630.00,1.89
4629.00,1.89
4628.00,1.90
4627.00,1.90
4626.00,1.90
4625.00,1.90
4624.00,1.90
4623.00,1.90
4622.00,1.90
4621.00,1.90
4620.00,1.90
4619.00,1.90
4618.00,1.90
4617.00,1.90
4616.00,1.90
4615.00,1.90
4614.00,1.90
4613.00,1.90
4612.00,1.90
4611.00,1.90
4610.00,1.90
4609.00,1.90
4608.00,1.89
4607.00,1.89
4606.00,1.89
4605.00,1.89
4604.00,1.89
4603.00,1.89
4602.00,1.89
4601.00,1.89
4600.00,1.89
4599.00,1.89
4598.00,1.89
4597.00,1.89
4596.00,1.89
4595.00,1.89
4594.00,1.90
4593.00,1.90
4592.00,1.90
4591.00,1.90
4590.00,1.90
4589.00,1.90
4588.00,1.90
4587.00,1.90
4586.00,1.91
4585.00,1.91
4584.00,1.91
4583.00,1.91
4582.00,1.91
4581.00,1.91
4580.00,1.91
4579.00,1.91
4578.00,1.91
4577.00,1.91
4576.00,1.91
4575.00,1.91
4574.00,1.91
4573.00,1.91
4572.00,1.91
4571.00,1.91
4570.00,1.91
4569.00,1.91
4568.00,1.91
4567.00,1.91
4566.00,1.91
4565.00,1.91
4564.00,1.91
4563.00,1.91
4562.00,1.91
4561.00,1.91
4560.00,1.91
4559.00,1.91
4558.00,1.91
4557.00,1.91
4556.00,1.91
4555.00,1.91
4554.00,1.91
4553.00,1.91
4552.00,1.91
4551.00,1.91
4550.00,1.91
4549.00,1.91
4548.00,1.91
4547.00,1.91
4546.00,1.91
4545.00,1.91
4544.00,1.91
4543.00,1.90
4542.00,1.90
4541.00,1.90
4540.00,1.90
4539.00,1.90
4538.00,1.90
4537.00,1.90
4536.00,1.90
4535.00,1.90
4534.00,1.90
4533.00,1.90
4532.00,1.91
4531.00,1.91
4530.00,1.91
4529.00,1.91
4528.00,1.91
4527.00,1.91
4526.00,1.91
4525.00,1.91
4524.00,1.91
4523.00,1.91
4522.00,1.91
4521.00,1.91
4520.00,1.91
4519.00,1.91
4518.00,1.91
4517.00,1.91
4516.00,1.91
4515.00,1.91
4514.00,1.91
4513.00,1.91
4512.00,1.91
4511.00,1.91
4510.00,1.91
4509.00,1.91
4508.00,1.91
4507.00,1.92
4506.00,1.92
4505.00,1.92
4504.00,1.92
4503.00,1.92
4502.00,1.92
4501.00,1.92
4500.00,1.92
4499.00,1.92
4498.00,1.92
4497.00,1.92
4496.00,1.92
4495.00,1.92
4494.00,1.92
4493.00,1.91
4492.00,1.91
4491.00,1.91
4490.00,1.91
4489.00,1.91
4488.00,1.91
4487.00,1.91
4486.00,1.91
4485.00,1.91
4484.00,1.91
4483.00,1.90
4482.00,1.90
4481.00,1.90
4480.00,1.90
4479.00,1.90
4478.00,1.89
4477.00,1.89
4476.00,1.89
4475.00,1.89
4474.00,1.89
4473.00,1.88
4472.00,1.88
4471.00,1.88
4470.00,1.88
4469.00,1.88
4468.00,1.88
4467.00,1.88
4466.00,1.87
4465.00,1.87
4464.00,1.87
4463.00,1.87
4462.00,1.87
4461.00,1.87
4460.00,1.87
4459.00,1.86
4458.00,1.86
4457.00,1.86
4456.00,1.86
4455.00,1.86
4454.00,1.86
4453.00,1.86
4452.00,1.85
4451.00,1.85
4450.00,1.85
4449.00,1.85
4448.00,1.85
4447.00,1.84
4446.00,1.84
4445.00,1.84
4444.00,1.84
4443.00,1.83
4442.00,1.83
4441.00,1.83
4440.00,1.82
4439.00,1.82
4438.00,1.81
4437.00,1.81
4436.00,1.81
4435.00,1.80
4434.00,1.80
4433.00,1.80
4432.00,1.79
4431.00,1.79
4430.00,1.78
4429.00,1.78
4428.00,1.77
4427.00,1.77
4426.00,1.76
4425.00,1.76
4424.00,1.76
4423.00,1.75
4422.00,1.75
4421.00,1.74
4420.00,1.74
4419.00,1.74
4418.00,1.74
4417.00,1.73
4416.00,1.73
4415.00,1.73
4414.00,1.73
4413.00,1.73
4412.00,1.72
4411.00,1.72
4410.00,1.72
4409.00,1.72
4408.00,1.72
4407.00,1.72
4406.00,1.72
4405.00,1.72
4404.00,1.72
4403.00,1.72
4402.00,1.73
4401.00,1.73
4400.00,1.73
4399.00,1.74
4398.00,1.74
4397.00,1.74
4396.00,1.74
4395.00,1.75
4394.00,1.75
4393.00,1.75
4392.00,1.76
4391.00,1.76
4390.00,1.76
4389.00,1.77
4388.00,1.77
4387.00,1.77
4386.00,1.78
4385.00,1.78
4384.00,1.79
4383.00,1.79
4382.00,1.79
4381.00,1.80
4380.00,1.80
4379.00,1.80
4378.00,1.81
4377.00,1.81
4376.00,1.81
4375.00,1.81
4374.00,1.81
4373.00,1.81
4372.00,1.81
4371.00,1.81
4370.00,1.81
4369.00,1.81
4368.00,1.81
4367.00,1.81
4366.00,1.81
4365.00,1.81
4364.00,1.81
4363.00,1.81
4362.00,1.80
4361.00,1.80
4360.00,1.80
4359.00,1.80
4358.00,1.79
4357.00,1.79
4356.00,1.79
4355.00,1.79
4354.00,1.78
4353.00,1.78
4352.00,1.78
4351.00,1.78
4350.00,1.77
4349.00,1.77
4348.00,1.77
4347.00,1.77
4346.00,1.77
4345.00,1.77
4344.00,1.77
4343.00,1.77
4342.00,1.77
4341.00,1.77
4340.00,1.77
4339.00,1.77
4338.00,1.77
4337.00,1.77
4336.00,1.77
4335.00,1.78
4334.00,1.78
4333.00,1.78
4332.00,1.78
4331.00,1.78
4330.00,1.78
4329.00,1.79
4328.00,1.79
4327.00,1.79
4326.00,1.79
4325.00,1.80
4324.00,1.80
4323.00,1.80
4322.00,1.80
4321.00,1.81
4320.00,1.81
4319.00,1.81
4318.00,1.82
4317.00,1.82
4316.00,1.82
4315.00,1.83
4314.00,1.83
4313.00,1.83
4312.00,1.84
4311.00,1.84
4310.00,1.84
4309.00,1.84
4308.00,1.85
4307.00,1.85
4306.00,1.85
4305.00,1.86
4304.00,1.86
4303.00,1.86
4302.00,1.87
4301.00,1.87
4300.00,1.87
4299.00,1.88
4298.00,1.88
4297.00,1.88
4296.00,1.89
4295.00,1.89
4294.00,1.89
4293.00,1.89
4292.00,1.89
4291.00,1.89
4290.00,1.90
4289.00,1.90
4288.00,1.90
4287.00,1.90
4286.00,1.90
4285.00,1.90
4284.00,1.90
4283.00,1.90
4282.00,1.90
4281.00,1.90
4280.00,1.89
4279.00,1.89
4278.00,1.89
4277.00,1.89
4276.00,1.89
4275.00,1.89
4274.00,1.89
4273.00,1.89
4272.00,1.88
4271.00,1.88
4270.00,1.88
4269.00,1.88
4268.00,1.88
4267.00,1.88
4266.00,1.88
4265.00,1.88
4264.00,1.88
4263.00,1.88
4262.00,1.88
4261.00,1.87
4260.00,1.87
4259.00,1.87
4258.00,1.87
4257.00,1.88
4256.00,1.88
4255.00,1.88
4254.00,1.88
4253.00,1.88
4252.00,1.88
4251.00,1.88
4250.00,1.88
4249.00,1.88
4248.00,1.88
4247.00,1.88
4246.00,1.88
4245.00,1.88
4244.00,1.88
4243.00,1.88
4242.00,1.88
4241.00,1.88
4240.00,1.88
4239.00,1.88
4238.00,1.88
4237.00,1.88
4236.00,1.88
4235.00,1.88
4234.00,1.88
4233.00,1.88
4232.00,1.88
4231.00,1.88
4230.00,1.87
4229.00,1.87
4228.00,1.87
4227.00,1.87
4226.00,1.87
4225.00,1.87
4224.00,1.87
4223.00,1.87
4222.00,1.87
4221.00,1.87
4220.00,1.87
4219.00,1.87
4218.00,1.87
4217.00,1.87
4216.00,1.87
4215.00,1.86
4214.00,1.86
4213.00,1.87
4212.00,1.87
4211.00,1.87
4210.00,1.87
4209.00,1.87
4208.00,1.87
4207.00,1.87
4206.00,1.87
4205.00,1.87
4204.00,1.88
4203.00,1.88
4202.00,1.88
4201.00,1.88
4200.00,1.88
4199.00,1.89
4198.00,1.89
4197.00,1.89
4196.00,1.89
4195.00,1.89
4194.00,1.89
4193.00,1.90
4192.00,1.90
4191.00,1.90
4190.00,1.90
4189.00,1.90
4188.00,1.90
4187.00,1.90
4186.00,1.91
4185.00,1.91
4184.00,1.90
4183.00,1.90
4182.00,1.90
4181.00,1.90
4180.00,1.90
4179.00,1.90
4178.00,1.90
4177.00,1.90
4176.00,1.90
4175.00,1.90
4174.00,1.89
4173.00,1.89
4172.00,1.89
4171.00,1.89
4170.00,1.89
4169.00,1.89
4168.00,1.89
4167.00,1.88
4166.00,1.88
4165.00,1.88
4164.00,1.88
4163.00,1.88
4162.00,1.87
4161.00,1.87
4160.00,1.87
4159.00,1.87
4158.00,1.87
4157.00,1.87
4156.00,1.87
4155.00,1.87
4154.00,1.87
4153.00,1.87
4152.00,1.87
4151.00,1.87
4150.00,1.87
4149.00,1.87
4148.00,1.86
4147.00,1.86
4146.00,1.86
4145.00,1.86
4144.00,1.85
4143.00,1.85
4142.00,1.85
4141.00,1.85
4140.00,1.85
4139.00,1.84
4138.00,1.84
4137.00,1.84
4136.00,1.84
4135.00,1.84
4134.00,1.84
4133.00,1.83
4132.00,1.83
4131.00,1.83
4130.00,1.83
4129.00,1.83
4128.00,1.82
4127.00,1.82
4126.00,1.82
4125.00,1.82
4124.00,1.81
4123.00,1.81
4122.00,1.81
4121.00,1.81
4120.00,1.81
4119.00,1.81
4118.00,1.81
4117.00,1.81
4116.00,1.81
4115.00,1.81
4114.00,1.81
4113.00,1.80
4112.00,1.80
4111.00,1.80
4110.00,1.80
4109.00,1.80
4108.00,1.80
4107.00,1.80
4106.00,1.80
4105.00,1.80
4104.00,1.80
4103.00,1.80
4102.00,1.80
4101.00,1.80
4100.00,1.80
4099.00,1.80
4098.00,1.80
4097.00,1.80
4096.00,1.80
4095.00,1.80
4094.00,1.81
4093.00,1.81
4092.00,1.81
4091.00,1.81
4090.00,1.81
4089.00,1.81
4088.00,1.81
4087.00,1.82
4086.00,1.82
4085.00,1.82
4084.00,1.82
4083.00,1.83
4082.00,1.83
4081.00,1.83
4080.00,1.83
4079.00,1.84
4078.00,1.84
4077.00,1.84
4076.00,1.84
4075.00,1.84
4074.00,1.84
4073.00,1.85
4072.00,1.85
4071.00,1.84
4070.00,1.84
4069.00,1.84
4068.00,1.84
4067.00,1.84
4066.00,1.84
4065.00,1.84
4064.00,1.84
4063.00,1.84
4062.00,1.84
4061.00,1.84
4060.00,1.83
4059.00,1.83
4058.00,1.83
4057.00,1.83
4056.00,1.83
4055.00,1.82
4054.00,1.82
4053.00,1.82
4052.00,1.82
4051.00,1.81
4050.00,1.81
4049.00,1.81
4048.00,1.81
4047.00,1.81
4046.00,1.81
4045.00,1.81
4044.00,1.81
4043.00,1.81
4042.00,1.82
4041.00,1.82
4040.00,1.82
4039.00,1.82
4038.00,1.83
4037.00,1.83
4036.00,1.83
4035.00,1.83
4034.00,1.84
4033.00,1.84
4032.00,1.85
4031.00,1.85
4030.00,1.85
4029.00,1.86
4028.00,1.86
4027.00,1.87
4026.00,1.87
4025.00,1.88
4024.00,1.88
4023.00,1.89
4022.00,1.89
4021.00,1.90
4020.00,1.90
4019.00,1.90
4018.00,1.91
4017.00,1.91
4016.00,1.91
4015.00,1.91
4014.00,1.92
4013.00,1.92
4012.00,1.92
4011.00,1.92
4010.00,1.93
4009.00,1.93
4008.00,1.93
4007.00,1.93
4006.00,1.93
4005.00,1.94
4004.00,1.94
4003.00,1.94
4002.00,1.94
4001.00,1.94
4000.00,1.94
