创建为新数据集,样品 793 用户 Administrator 日期 星期一, 七月 29 2019
cm-1,%T
10000.00,2.24
9999.00,2.23
9998.00,2.23
9997.00,2.22
9996.00,2.21
9995.00,2.21
9994.00,2.20
9993.00,2.19
9992.00,2.19
9991.00,2.18
9990.00,2.18
9989.00,2.17
9988.00,2.16
9987.00,2.15
9986.00,2.15
9985.00,2.14
9984.00,2.13
9983.00,2.12
9982.00,2.11
9981.00,2.10
9980.00,2.09
9979.00,2.07
9978.00,2.06
9977.00,2.05
9976.00,2.05
9975.00,2.04
9974.00,2.03
9973.00,2.02
9972.00,2.02
9971.00,2.01
9970.00,2.01
9969.00,2.00
9968.00,2.00
9967.00,2.00
9966.00,1.99
9965.00,1.99
9964.00,1.99
9963.00,1.98
9962.00,1.98
9961.00,1.98
9960.00,1.98
9959.00,1.97
9958.00,1.97
9957.00,1.97
9956.00,1.97
9955.00,1.97
9954.00,1.97
9953.00,1.97
9952.00,1.97
9951.00,1.97
9950.00,1.97
9949.00,1.97
9948.00,1.97
9947.00,1.97
9946.00,1.97
9945.00,1.96
9944.00,1.96
9943.00,1.96
9942.00,1.95
9941.00,1.95
9940.00,1.94
9939.00,1.94
9938.00,1.93
9937.00,1.92
9936.00,1.92
9935.00,1.91
9934.00,1.91
9933.00,1.90
9932.00,1.90
9931.00,1.89
9930.00,1.89
9929.00,1.88
9928.00,1.88
9927.00,1.87
9926.00,1.87
9925.00,1.86
9924.00,1.86
9923.00,1.86
9922.00,1.86
9921.00,1.86
9920.00,1.86
9919.00,1.86
9918.00,1.86
9917.00,1.87
9916.00,1.87
9915.00,1.88
9914.00,1.89
9913.00,1.90
9912.00,1.90
9911.00,1.91
9910.00,1.92
9909.00,1.93
9908.00,1.93
9907.00,1.94
9906.00,1.95
9905.00,1.95
9904.00,1.96
9903.00,1.96
9902.00,1.97
9901.00,1.97
9900.00,1.98
9899.00,1.98
9898.00,1.99
9897.00,1.99
9896.00,1.99
9895.00,1.99
9894.00,2.00
9893.00,1.99
9892.00,1.99
9891.00,1.99
9890.00,1.99
9889.00,1.98
9888.00,1.98
9887.00,1.97
9886.00,1.97
9885.00,1.96
9884.00,1.96
9883.00,1.95
9882.00,1.95
9881.00,1.95
9880.00,1.95
9879.00,1.95
9878.00,1.95
9877.00,1.94
9876.00,1.94
9875.00,1.94
9874.00,1.94
9873.00,1.94
9872.00,1.94
9871.00,1.94
9870.00,1.94
9869.00,1.95
9868.00,1.95
9867.00,1.95
9866.00,1.96
9865.00,1.96
9864.00,1.96
9863.00,1.97
9862.00,1.97
9861.00,1.98
9860.00,1.98
9859.00,1.99
9858.00,1.99
9857.00,1.99
9856.00,1.99
9855.00,2.00
9854.00,2.00
9853.00,2.00
9852.00,2.00
9851.00,2.01
9850.00,2.01
9849.00,2.01
9848.00,2.02
9847.00,2.02
9846.00,2.03
9845.00,2.03
9844.00,2.03
9843.00,2.03
9842.00,2.03
9841.00,2.03
9840.00,2.03
9839.00,2.03
9838.00,2.03
9837.00,2.03
9836.00,2.03
9835.00,2.02
9834.00,2.02
9833.00,2.02
9832.00,2.02
9831.00,2.02
9830.00,2.02
9829.00,2.02
9828.00,2.02
9827.00,2.02
9826.00,2.01
9825.00,2.01
9824.00,2.01
9823.00,2.01
9822.00,2.00
9821.00,2.00
9820.00,2.00
9819.00,1.99
9818.00,1.99
9817.00,1.99
9816.00,1.98
9815.00,1.98
9814.00,1.98
9813.00,1.97
9812.00,1.97
9811.00,1.97
9810.00,1.96
9809.00,1.96
9808.00,1.96
9807.00,1.95
9806.00,1.95
9805.00,1.95
9804.00,1.95
9803.00,1.94
9802.00,1.94
9801.00,1.94
9800.00,1.93
9799.00,1.93
9798.00,1.93
9797.00,1.92
9796.00,1.92
9795.00,1.91
9794.00,1.91
9793.00,1.90
9792.00,1.90
9791.00,1.89
9790.00,1.88
9789.00,1.88
9788.00,1.88
9787.00,1.87
9786.00,1.87
9785.00,1.87
9784.00,1.87
9783.00,1.87
9782.00,1.87
9781.00,1.87
9780.00,1.87
9779.00,1.87
9778.00,1.87
9777.00,1.87
9776.00,1.87
9775.00,1.87
9774.00,1.87
9773.00,1.87
9772.00,1.87
9771.00,1.87
9770.00,1.88
9769.00,1.88
9768.00,1.88
9767.00,1.89
9766.00,1.90
9765.00,1.90
9764.00,1.91
9763.00,1.92
9762.00,1.92
9761.00,1.92
9760.00,1.93
9759.00,1.93
9758.00,1.93
9757.00,1.93
9756.00,1.93
9755.00,1.93
9754.00,1.93
9753.00,1.93
9752.00,1.92
9751.00,1.92
9750.00,1.92
9749.00,1.91
9748.00,1.91
9747.00,1.90
9746.00,1.90
9745.00,1.89
9744.00,1.89
9743.00,1.88
9742.00,1.87
9741.00,1.86
9740.00,1.86
9739.00,1.85
9738.00,1.84
9737.00,1.84
9736.00,1.83
9735.00,1.82
9734.00,1.82
9733.00,1.82
9732.00,1.81
9731.00,1.81
9730.00,1.81
9729.00,1.81
9728.00,1.81
9727.00,1.81
9726.00,1.81
9725.00,1.81
9724.00,1.82
9723.00,1.82
9722.00,1.82
9721.00,1.83
9720.00,1.83
9719.00,1.83
9718.00,1.84
9717.00,1.84
9716.00,1.84
9715.00,1.85
9714.00,1.85
9713.00,1.86
9712.00,1.86
9711.00,1.86
9710.00,1.87
9709.00,1.87
9708.00,1.87
9707.00,1.87
9706.00,1.88
9705.00,1.88
9704.00,1.88
9703.00,1.87
9702.00,1.87
9701.00,1.87
9700.00,1.87
9699.00,1.86
9698.00,1.86
9697.00,1.86
9696.00,1.85
9695.00,1.85
9694.00,1.85
9693.00,1.84
9692.00,1.84
9691.00,1.84
9690.00,1.84
9689.00,1.84
9688.00,1.84
9687.00,1.84
9686.00,1.84
9685.00,1.84
9684.00,1.84
9683.00,1.84
9682.00,1.84
9681.00,1.84
9680.00,1.84
9679.00,1.85
9678.00,1.85
9677.00,1.85
9676.00,1.86
9675.00,1.87
9674.00,1.87
9673.00,1.88
9672.00,1.89
9671.00,1.90
9670.00,1.90
9669.00,1.91
9668.00,1.92
9667.00,1.92
9666.00,1.92
9665.00,1.93
9664.00,1.93
9663.00,1.93
9662.00,1.93
9661.00,1.94
9660.00,1.94
9659.00,1.94
9658.00,1.94
9657.00,1.95
9656.00,1.95
9655.00,1.95
9654.00,1.95
9653.00,1.95
9652.00,1.95
9651.00,1.95
9650.00,1.95
9649.00,1.95
9648.00,1.95
9647.00,1.94
9646.00,1.94
9645.00,1.94
9644.00,1.93
9643.00,1.93
9642.00,1.93
9641.00,1.93
9640.00,1.92
9639.00,1.92
9638.00,1.92
9637.00,1.92
9636.00,1.91
9635.00,1.91
9634.00,1.91
9633.00,1.90
9632.00,1.90
9631.00,1.89
9630.00,1.88
9629.00,1.88
9628.00,1.87
9627.00,1.87
9626.00,1.86
9625.00,1.86
9624.00,1.86
9623.00,1.86
9622.00,1.86
9621.00,1.86
9620.00,1.86
9619.00,1.86
9618.00,1.86
9617.00,1.86
9616.00,1.86
9615.00,1.86
9614.00,1.87
9613.00,1.87
9612.00,1.87
9611.00,1.88
9610.00,1.89
9609.00,1.90
9608.00,1.91
9607.00,1.92
9606.00,1.94
9605.00,1.95
9604.00,1.96
9603.00,1.97
9602.00,1.99
9601.00,2.00
9600.00,2.01
9599.00,2.02
9598.00,2.02
9597.00,2.03
9596.00,2.04
9595.00,2.04
9594.00,2.05
9593.00,2.05
9592.00,2.05
9591.00,2.05
9590.00,2.06
9589.00,2.06
9588.00,2.06
9587.00,2.06
9586.00,2.06
9585.00,2.05
9584.00,2.05
9583.00,2.04
9582.00,2.04
9581.00,2.03
9580.00,2.02
9579.00,2.01
9578.00,2.00
9577.00,2.00
9576.00,1.99
9575.00,1.98
9574.00,1.98
9573.00,1.98
9572.00,1.97
9571.00,1.97
9570.00,1.97
9569.00,1.97
9568.00,1.98
9567.00,1.98
9566.00,1.98
9565.00,1.98
9564.00,1.98
9563.00,1.98
9562.00,1.98
9561.00,1.98
9560.00,1.97
9559.00,1.97
9558.00,1.97
9557.00,1.97
9556.00,1.97
9555.00,1.97
9554.00,1.97
9553.00,1.97
9552.00,1.97
9551.00,1.97
9550.00,1.97
9549.00,1.97
9548.00,1.97
9547.00,1.97
9546.00,1.96
9545.00,1.96
9544.00,1.96
9543.00,1.95
9542.00,1.94
9541.00,1.94
9540.00,1.93
9539.00,1.93
9538.00,1.92
9537.00,1.92
9536.00,1.91
9535.00,1.91
9534.00,1.91
9533.00,1.91
9532.00,1.91
9531.00,1.90
9530.00,1.90
9529.00,1.90
9528.00,1.90
9527.00,1.89
9526.00,1.89
9525.00,1.88
9524.00,1.88
9523.00,1.87
9522.00,1.87
9521.00,1.86
9520.00,1.86
9519.00,1.85
9518.00,1.85
9517.00,1.84
9516.00,1.84
9515.00,1.83
9514.00,1.83
9513.00,1.83
9512.00,1.82
9511.00,1.82
9510.00,1.82
9509.00,1.82
9508.00,1.82
9507.00,1.82
9506.00,1.82
9505.00,1.82
9504.00,1.82
9503.00,1.82
9502.00,1.82
9501.00,1.83
9500.00,1.83
9499.00,1.83
9498.00,1.84
9497.00,1.85
9496.00,1.85
9495.00,1.86
9494.00,1.87
9493.00,1.88
9492.00,1.88
9491.00,1.89
9490.00,1.90
9489.00,1.91
9488.00,1.92
9487.00,1.92
9486.00,1.93
9485.00,1.94
9484.00,1.94
9483.00,1.95
9482.00,1.95
9481.00,1.95
9480.00,1.95
9479.00,1.95
9478.00,1.95
9477.00,1.95
9476.00,1.94
9475.00,1.94
9474.00,1.93
9473.00,1.92
9472.00,1.92
9471.00,1.91
9470.00,1.90
9469.00,1.88
9468.00,1.87
9467.00,1.86
9466.00,1.85
9465.00,1.83
9464.00,1.82
9463.00,1.81
9462.00,1.79
9461.00,1.78
9460.00,1.76
9459.00,1.75
9458.00,1.74
9457.00,1.73
9456.00,1.71
9455.00,1.70
9454.00,1.69
9453.00,1.69
9452.00,1.68
9451.00,1.67
9450.00,1.67
9449.00,1.67
9448.00,1.66
9447.00,1.66
9446.00,1.66
9445.00,1.67
9444.00,1.67
9443.00,1.67
9442.00,1.67
9441.00,1.68
9440.00,1.68
9439.00,1.69
9438.00,1.70
9437.00,1.70
9436.00,1.71
9435.00,1.72
9434.00,1.72
9433.00,1.73
9432.00,1.74
9431.00,1.75
9430.00,1.75
9429.00,1.76
9428.00,1.76
9427.00,1.77
9426.00,1.77
9425.00,1.78
9424.00,1.78
9423.00,1.78
9422.00,1.79
9421.00,1.79
9420.00,1.79
9419.00,1.79
9418.00,1.80
9417.00,1.80
9416.00,1.80
9415.00,1.80
9414.00,1.80
9413.00,1.80
9412.00,1.81
9411.00,1.81
9410.00,1.81
9409.00,1.81
9408.00,1.81
9407.00,1.82
9406.00,1.82
9405.00,1.82
9404.00,1.82
9403.00,1.82
9402.00,1.82
9401.00,1.83
9400.00,1.83
9399.00,1.83
9398.00,1.83
9397.00,1.83
9396.00,1.83
9395.00,1.84
9394.00,1.84
9393.00,1.84
9392.00,1.84
9391.00,1.84
9390.00,1.84
9389.00,1.84
9388.00,1.84
9387.00,1.84
9386.00,1.84
9385.00,1.84
9384.00,1.83
9383.00,1.83
9382.00,1.83
9381.00,1.83
9380.00,1.83
9379.00,1.83
9378.00,1.83
9377.00,1.83
9376.00,1.83
9375.00,1.83
9374.00,1.83
9373.00,1.83
9372.00,1.84
9371.00,1.84
9370.00,1.84
9369.00,1.84
9368.00,1.84
9367.00,1.84
9366.00,1.84
9365.00,1.84
9364.00,1.85
9363.00,1.85
9362.00,1.85
9361.00,1.85
9360.00,1.85
9359.00,1.85
9358.00,1.84
9357.00,1.84
9356.00,1.84
9355.00,1.84
9354.00,1.84
9353.00,1.83
9352.00,1.83
9351.00,1.83
9350.00,1.83
9349.00,1.82
9348.00,1.82
9347.00,1.82
9346.00,1.82
9345.00,1.82
9344.00,1.81
9343.00,1.81
9342.00,1.81
9341.00,1.81
9340.00,1.80
9339.00,1.80
9338.00,1.80
9337.00,1.80
9336.00,1.80
9335.00,1.80
9334.00,1.80
9333.00,1.80
9332.00,1.80
9331.00,1.81
9330.00,1.81
9329.00,1.81
9328.00,1.81
9327.00,1.82
9326.00,1.82
9325.00,1.82
9324.00,1.82
9323.00,1.83
9322.00,1.83
9321.00,1.83
9320.00,1.84
9319.00,1.84
9318.00,1.84
9317.00,1.85
9316.00,1.85
9315.00,1.86
9314.00,1.86
9313.00,1.86
9312.00,1.87
9311.00,1.87
9310.00,1.87
9309.00,1.88
9308.00,1.88
9307.00,1.88
9306.00,1.88
9305.00,1.89
9304.00,1.89
9303.00,1.89
9302.00,1.89
9301.00,1.89
9300.00,1.89
9299.00,1.89
9298.00,1.89
9297.00,1.89
9296.00,1.89
9295.00,1.88
9294.00,1.88
9293.00,1.88
9292.00,1.87
9291.00,1.87
9290.00,1.86
9289.00,1.85
9288.00,1.85
9287.00,1.84
9286.00,1.83
9285.00,1.82
9284.00,1.82
9283.00,1.81
9282.00,1.80
9281.00,1.79
9280.00,1.78
9279.00,1.77
9278.00,1.77
9277.00,1.76
9276.00,1.75
9275.00,1.75
9274.00,1.74
9273.00,1.74
9272.00,1.73
9271.00,1.73
9270.00,1.73
9269.00,1.73
9268.00,1.73
9267.00,1.73
9266.00,1.73
9265.00,1.73
9264.00,1.74
9263.00,1.74
9262.00,1.74
9261.00,1.75
9260.00,1.75
9259.00,1.76
9258.00,1.76
9257.00,1.77
9256.00,1.78
9255.00,1.78
9254.00,1.79
9253.00,1.80
9252.00,1.80
9251.00,1.81
9250.00,1.81
9249.00,1.82
9248.00,1.82
9247.00,1.83
9246.00,1.83
9245.00,1.83
9244.00,1.83
9243.00,1.84
9242.00,1.84
9241.00,1.84
9240.00,1.84
9239.00,1.85
9238.00,1.85
9237.00,1.85
9236.00,1.85
9235.00,1.85
9234.00,1.86
9233.00,1.86
9232.00,1.86
9231.00,1.86
9230.00,1.86
9229.00,1.86
9228.00,1.86
9227.00,1.86
9226.00,1.86
9225.00,1.86
9224.00,1.86
9223.00,1.86
9222.00,1.86
9221.00,1.86
9220.00,1.86
9219.00,1.86
9218.00,1.86
9217.00,1.86
9216.00,1.86
9215.00,1.85
9214.00,1.85
9213.00,1.85
9212.00,1.85
9211.00,1.85
9210.00,1.85
9209.00,1.85
9208.00,1.85
9207.00,1.85
9206.00,1.85
9205.00,1.85
9204.00,1.85
9203.00,1.85
9202.00,1.85
9201.00,1.85
9200.00,1.85
9199.00,1.85
9198.00,1.85
9197.00,1.85
9196.00,1.85
9195.00,1.85
9194.00,1.85
9193.00,1.85
9192.00,1.86
9191.00,1.86
9190.00,1.86
9189.00,1.87
9188.00,1.87
9187.00,1.87
9186.00,1.87
9185.00,1.87
9184.00,1.87
9183.00,1.87
9182.00,1.87
9181.00,1.87
9180.00,1.87
9179.00,1.87
9178.00,1.87
9177.00,1.87
9176.00,1.87
9175.00,1.87
9174.00,1.87
9173.00,1.87
9172.00,1.87
9171.00,1.87
9170.00,1.87
9169.00,1.86
9168.00,1.86
9167.00,1.86
9166.00,1.86
9165.00,1.86
9164.00,1.85
9163.00,1.85
9162.00,1.85
9161.00,1.85
9160.00,1.85
9159.00,1.85
9158.00,1.85
9157.00,1.85
9156.00,1.86
9155.00,1.86
9154.00,1.86
9153.00,1.86
9152.00,1.86
9151.00,1.86
9150.00,1.86
9149.00,1.86
9148.00,1.86
9147.00,1.87
9146.00,1.87
9145.00,1.87
9144.00,1.87
9143.00,1.88
9142.00,1.88
9141.00,1.88
9140.00,1.88
9139.00,1.89
9138.00,1.89
9137.00,1.89
9136.00,1.89
9135.00,1.89
9134.00,1.89
9133.00,1.89
9132.00,1.89
9131.00,1.89
9130.00,1.89
9129.00,1.89
9128.00,1.90
9127.00,1.90
9126.00,1.90
9125.00,1.89
9124.00,1.89
9123.00,1.89
9122.00,1.89
9121.00,1.89
9120.00,1.89
9119.00,1.89
9118.00,1.88
9117.00,1.88
9116.00,1.88
9115.00,1.88
9114.00,1.88
9113.00,1.87
9112.00,1.87
9111.00,1.87
9110.00,1.87
9109.00,1.86
9108.00,1.86
9107.00,1.85
9106.00,1.85
9105.00,1.85
9104.00,1.84
9103.00,1.84
9102.00,1.83
9101.00,1.83
9100.00,1.82
9099.00,1.82
9098.00,1.81
9097.00,1.81
9096.00,1.81
9095.00,1.80
9094.00,1.80
9093.00,1.80
9092.00,1.80
9091.00,1.80
9090.00,1.80
9089.00,1.80
9088.00,1.80
9087.00,1.80
9086.00,1.80
9085.00,1.80
9084.00,1.80
9083.00,1.80
9082.00,1.81
9081.00,1.81
9080.00,1.81
9079.00,1.82
9078.00,1.82
9077.00,1.83
9076.00,1.83
9075.00,1.83
9074.00,1.84
9073.00,1.84
9072.00,1.85
9071.00,1.85
9070.00,1.86
9069.00,1.86
9068.00,1.87
9067.00,1.87
9066.00,1.88
9065.00,1.88
9064.00,1.88
9063.00,1.89
9062.00,1.89
9061.00,1.89
9060.00,1.89
9059.00,1.89
9058.00,1.90
9057.00,1.90
9056.00,1.90
9055.00,1.90
9054.00,1.91
9053.00,1.91
9052.00,1.91
9051.00,1.92
9050.00,1.92
9049.00,1.92
9048.00,1.93
9047.00,1.93
9046.00,1.93
9045.00,1.94
9044.00,1.94
9043.00,1.94
9042.00,1.94
9041.00,1.94
9040.00,1.94
9039.00,1.94
9038.00,1.94
9037.00,1.95
9036.00,1.95
9035.00,1.95
9034.00,1.95
9033.00,1.94
9032.00,1.94
9031.00,1.94
9030.00,1.94
9029.00,1.94
9028.00,1.94
9027.00,1.93
9026.00,1.93
9025.00,1.93
9024.00,1.92
9023.00,1.92
9022.00,1.91
9021.00,1.91
9020.00,1.90
9019.00,1.89
9018.00,1.89
9017.00,1.88
9016.00,1.88
9015.00,1.87
9014.00,1.87
9013.00,1.87
9012.00,1.86
9011.00,1.86
9010.00,1.86
9009.00,1.85
9008.00,1.85
9007.00,1.85
9006.00,1.85
9005.00,1.85
9004.00,1.84
9003.00,1.84
9002.00,1.84
9001.00,1.84
9000.00,1.84
8999.00,1.84
8998.00,1.84
8997.00,1.84
8996.00,1.84
8995.00,1.84
8994.00,1.84
8993.00,1.84
8992.00,1.84
8991.00,1.84
8990.00,1.84
8989.00,1.84
8988.00,1.85
8987.00,1.85
8986.00,1.85
8985.00,1.85
8984.00,1.85
8983.00,1.85
8982.00,1.85
8981.00,1.85
8980.00,1.85
8979.00,1.85
8978.00,1.85
8977.00,1.85
8976.00,1.85
8975.00,1.85
8974.00,1.85
8973.00,1.85
8972.00,1.85
8971.00,1.85
8970.00,1.85
8969.00,1.85
8968.00,1.85
8967.00,1.85
8966.00,1.85
8965.00,1.85
8964.00,1.85
8963.00,1.85
8962.00,1.85
8961.00,1.85
8960.00,1.86
8959.00,1.86
8958.00,1.86
8957.00,1.86
8956.00,1.87
8955.00,1.87
8954.00,1.87
8953.00,1.87
8952.00,1.88
8951.00,1.88
8950.00,1.88
8949.00,1.89
8948.00,1.89
8947.00,1.90
8946.00,1.90
8945.00,1.91
8944.00,1.91
8943.00,1.92
8942.00,1.92
8941.00,1.93
8940.00,1.93
8939.00,1.94
8938.00,1.94
8937.00,1.95
8936.00,1.95
8935.00,1.95
8934.00,1.96
8933.00,1.96
8932.00,1.96
8931.00,1.96
8930.00,1.97
8929.00,1.97
8928.00,1.97
8927.00,1.97
8926.00,1.97
8925.00,1.97
8924.00,1.97
8923.00,1.96
8922.00,1.96
8921.00,1.96
8920.00,1.96
8919.00,1.95
8918.00,1.95
8917.00,1.95
8916.00,1.95
8915.00,1.94
8914.00,1.94
8913.00,1.93
8912.00,1.93
8911.00,1.93
8910.00,1.92
8909.00,1.92
8908.00,1.91
8907.00,1.91
8906.00,1.90
8905.00,1.90
8904.00,1.89
8903.00,1.89
8902.00,1.88
8901.00,1.88
8900.00,1.88
8899.00,1.87
8898.00,1.87
8897.00,1.87
8896.00,1.86
8895.00,1.86
8894.00,1.86
8893.00,1.85
8892.00,1.85
8891.00,1.85
8890.00,1.85
8889.00,1.85
8888.00,1.84
8887.00,1.84
8886.00,1.84
8885.00,1.84
8884.00,1.84
8883.00,1.84
8882.00,1.84
8881.00,1.85
8880.00,1.85
8879.00,1.85
8878.00,1.85
8877.00,1.85
8876.00,1.86
8875.00,1.86
8874.00,1.86
8873.00,1.86
8872.00,1.87
8871.00,1.87
8870.00,1.87
8869.00,1.87
8868.00,1.88
8867.00,1.88
8866.00,1.88
8865.00,1.88
8864.00,1.89
8863.00,1.89
8862.00,1.89
8861.00,1.90
8860.00,1.90
8859.00,1.90
8858.00,1.90
8857.00,1.91
8856.00,1.91
8855.00,1.91
8854.00,1.91
8853.00,1.91
8852.00,1.92
8851.00,1.92
8850.00,1.92
8849.00,1.92
8848.00,1.92
8847.00,1.92
8846.00,1.93
8845.00,1.93
8844.00,1.93
8843.00,1.93
8842.00,1.93
8841.00,1.93
8840.00,1.93
8839.00,1.93
8838.00,1.93
8837.00,1.93
8836.00,1.93
8835.00,1.92
8834.00,1.92
8833.00,1.92
8832.00,1.92
8831.00,1.92
8830.00,1.91
8829.00,1.91
8828.00,1.91
8827.00,1.90
8826.00,1.90
8825.00,1.90
8824.00,1.89
8823.00,1.89
8822.00,1.89
8821.00,1.88
8820.00,1.88
8819.00,1.88
8818.00,1.88
8817.00,1.88
8816.00,1.88
8815.00,1.88
8814.00,1.87
8813.00,1.87
8812.00,1.87
8811.00,1.87
8810.00,1.87
8809.00,1.87
8808.00,1.87
8807.00,1.87
8806.00,1.87
8805.00,1.87
8804.00,1.87
8803.00,1.87
8802.00,1.87
8801.00,1.87
8800.00,1.87
8799.00,1.87
8798.00,1.88
8797.00,1.88
8796.00,1.88
8795.00,1.88
8794.00,1.88
8793.00,1.88
8792.00,1.88
8791.00,1.88
8790.00,1.88
8789.00,1.88
8788.00,1.88
8787.00,1.88
8786.00,1.88
8785.00,1.89
8784.00,1.89
8783.00,1.89
8782.00,1.90
8781.00,1.90
8780.00,1.90
8779.00,1.91
8778.00,1.91
8777.00,1.92
8776.00,1.92
8775.00,1.93
8774.00,1.93
8773.00,1.94
8772.00,1.94
8771.00,1.95
8770.00,1.96
8769.00,1.96
8768.00,1.97
8767.00,1.98
8766.00,1.98
8765.00,1.99
8764.00,1.99
8763.00,2.00
8762.00,2.00
8761.00,2.01
8760.00,2.01
8759.00,2.01
8758.00,2.01
8757.00,2.01
8756.00,2.01
8755.00,2.01
8754.00,2.01
8753.00,2.01
8752.00,2.00
8751.00,2.00
8750.00,2.00
8749.00,1.99
8748.00,1.99
8747.00,1.98
8746.00,1.98
8745.00,1.97
8744.00,1.97
8743.00,1.96
8742.00,1.95
8741.00,1.94
8740.00,1.94
8739.00,1.93
8738.00,1.92
8737.00,1.91
8736.00,1.90
8735.00,1.90
8734.00,1.89
8733.00,1.88
8732.00,1.88
8731.00,1.87
8730.00,1.86
8729.00,1.86
8728.00,1.86
8727.00,1.85
8726.00,1.85
8725.00,1.85
8724.00,1.84
8723.00,1.84
8722.00,1.84
8721.00,1.83
8720.00,1.83
8719.00,1.83
8718.00,1.83
8717.00,1.83
8716.00,1.82
8715.00,1.82
8714.00,1.82
8713.00,1.82
8712.00,1.82
8711.00,1.83
8710.00,1.83
8709.00,1.83
8708.00,1.84
8707.00,1.84
8706.00,1.85
8705.00,1.85
8704.00,1.86
8703.00,1.86
8702.00,1.86
8701.00,1.87
8700.00,1.87
8699.00,1.87
8698.00,1.88
8697.00,1.88
8696.00,1.88
8695.00,1.88
8694.00,1.89
8693.00,1.89
8692.00,1.89
8691.00,1.90
8690.00,1.90
8689.00,1.90
8688.00,1.91
8687.00,1.91
8686.00,1.91
8685.00,1.92
8684.00,1.92
8683.00,1.92
8682.00,1.92
8681.00,1.92
8680.00,1.92
8679.00,1.92
8678.00,1.92
8677.00,1.92
8676.00,1.92
8675.00,1.92
8674.00,1.93
8673.00,1.93
8672.00,1.93
8671.00,1.93
8670.00,1.93
8669.00,1.93
8668.00,1.93
8667.00,1.93
8666.00,1.93
8665.00,1.93
8664.00,1.92
8663.00,1.92
8662.00,1.92
8661.00,1.92
8660.00,1.92
8659.00,1.91
8658.00,1.91
8657.00,1.91
8656.00,1.91
8655.00,1.90
8654.00,1.90
8653.00,1.90
8652.00,1.90
8651.00,1.89
8650.00,1.89
8649.00,1.89
8648.00,1.89
8647.00,1.88
8646.00,1.88
8645.00,1.88
8644.00,1.88
8643.00,1.88
8642.00,1.88
8641.00,1.88
8640.00,1.88
8639.00,1.88
8638.00,1.89
8637.00,1.89
8636.00,1.89
8635.00,1.89
8634.00,1.89
8633.00,1.89
8632.00,1.90
8631.00,1.90
8630.00,1.90
8629.00,1.90
8628.00,1.91
8627.00,1.91
8626.00,1.92
8625.00,1.92
8624.00,1.92
8623.00,1.93
8622.00,1.93
8621.00,1.94
8620.00,1.94
8619.00,1.94
8618.00,1.94
8617.00,1.94
8616.00,1.95
8615.00,1.95
8614.00,1.95
8613.00,1.95
8612.00,1.95
8611.00,1.95
8610.00,1.95
8609.00,1.95
8608.00,1.95
8607.00,1.95
8606.00,1.95
8605.00,1.95
8604.00,1.95
8603.00,1.94
8602.00,1.94
8601.00,1.94
8600.00,1.94
8599.00,1.93
8598.00,1.93
8597.00,1.92
8596.00,1.92
8595.00,1.92
8594.00,1.91
8593.00,1.91
8592.00,1.90
8591.00,1.90
8590.00,1.90
8589.00,1.89
8588.00,1.89
8587.00,1.89
8586.00,1.88
8585.00,1.88
8584.00,1.88
8583.00,1.87
8582.00,1.87
8581.00,1.86
8580.00,1.86
8579.00,1.85
8578.00,1.85
8577.00,1.84
8576.00,1.84
8575.00,1.84
8574.00,1.83
8573.00,1.83
8572.00,1.82
8571.00,1.82
8570.00,1.82
8569.00,1.81
8568.00,1.81
8567.00,1.81
8566.00,1.81
8565.00,1.80
8564.00,1.80
8563.00,1.80
8562.00,1.80
8561.00,1.79
8560.00,1.79
8559.00,1.79
8558.00,1.79
8557.00,1.79
8556.00,1.78
8555.00,1.78
8554.00,1.78
8553.00,1.78
8552.00,1.78
8551.00,1.78
8550.00,1.78
8549.00,1.78
8548.00,1.78
8547.00,1.79
8546.00,1.79
8545.00,1.79
8544.00,1.80
8543.00,1.80
8542.00,1.81
8541.00,1.82
8540.00,1.82
8539.00,1.83
8538.00,1.84
8537.00,1.84
8536.00,1.85
8535.00,1.86
8534.00,1.86
8533.00,1.87
8532.00,1.88
8531.00,1.88
8530.00,1.89
8529.00,1.90
8528.00,1.90
8527.00,1.91
8526.00,1.92
8525.00,1.92
8524.00,1.93
8523.00,1.93
8522.00,1.94
8521.00,1.94
8520.00,1.94
8519.00,1.94
8518.00,1.94
8517.00,1.93
8516.00,1.93
8515.00,1.92
8514.00,1.92
8513.00,1.91
8512.00,1.91
8511.00,1.90
8510.00,1.89
8509.00,1.89
8508.00,1.88
8507.00,1.88
8506.00,1.87
8505.00,1.87
8504.00,1.86
8503.00,1.86
8502.00,1.85
8501.00,1.84
8500.00,1.83
8499.00,1.83
8498.00,1.82
8497.00,1.81
8496.00,1.81
8495.00,1.80
8494.00,1.80
8493.00,1.80
8492.00,1.80
8491.00,1.80
8490.00,1.80
8489.00,1.80
8488.00,1.80
8487.00,1.80
8486.00,1.80
8485.00,1.81
8484.00,1.81
8483.00,1.81
8482.00,1.81
8481.00,1.81
8480.00,1.81
8479.00,1.81
8478.00,1.81
8477.00,1.81
8476.00,1.81
8475.00,1.81
8474.00,1.82
8473.00,1.82
8472.00,1.82
8471.00,1.83
8470.00,1.83
8469.00,1.84
8468.00,1.84
8467.00,1.84
8466.00,1.85
8465.00,1.85
8464.00,1.85
8463.00,1.85
8462.00,1.86
8461.00,1.86
8460.00,1.86
8459.00,1.86
8458.00,1.87
8457.00,1.87
8456.00,1.87
8455.00,1.88
8454.00,1.88
8453.00,1.88
8452.00,1.89
8451.00,1.89
8450.00,1.89
8449.00,1.90
8448.00,1.90
8447.00,1.90
8446.00,1.90
8445.00,1.90
8444.00,1.90
8443.00,1.90
8442.00,1.90
8441.00,1.90
8440.00,1.90
8439.00,1.90
8438.00,1.89
8437.00,1.89
8436.00,1.89
8435.00,1.89
8434.00,1.89
8433.00,1.89
8432.00,1.89
8431.00,1.89
8430.00,1.89
8429.00,1.89
8428.00,1.89
8427.00,1.89
8426.00,1.89
8425.00,1.89
8424.00,1.88
8423.00,1.88
8422.00,1.88
8421.00,1.88
8420.00,1.88
8419.00,1.88
8418.00,1.88
8417.00,1.88
8416.00,1.89
8415.00,1.89
8414.00,1.89
8413.00,1.89
8412.00,1.89
8411.00,1.89
8410.00,1.89
8409.00,1.89
8408.00,1.89
8407.00,1.89
8406.00,1.89
8405.00,1.89
8404.00,1.89
8403.00,1.89
8402.00,1.89
8401.00,1.89
8400.00,1.89
8399.00,1.89
8398.00,1.89
8397.00,1.89
8396.00,1.89
8395.00,1.89
8394.00,1.89
8393.00,1.89
8392.00,1.89
8391.00,1.89
8390.00,1.89
8389.00,1.88
8388.00,1.88
8387.00,1.88
8386.00,1.88
8385.00,1.88
8384.00,1.87
8383.00,1.87
8382.00,1.87
8381.00,1.87
8380.00,1.87
8379.00,1.87
8378.00,1.87
8377.00,1.88
8376.00,1.88
8375.00,1.88
8374.00,1.88
8373.00,1.88
8372.00,1.88
8371.00,1.89
8370.00,1.89
8369.00,1.89
8368.00,1.89
8367.00,1.89
8366.00,1.89
8365.00,1.89
8364.00,1.90
8363.00,1.90
8362.00,1.90
8361.00,1.90
8360.00,1.91
8359.00,1.91
8358.00,1.91
8357.00,1.91
8356.00,1.91
8355.00,1.91
8354.00,1.91
8353.00,1.91
8352.00,1.90
8351.00,1.90
8350.00,1.90
8349.00,1.90
8348.00,1.89
8347.00,1.89
8346.00,1.89
8345.00,1.89
8344.00,1.89
8343.00,1.89
8342.00,1.88
8341.00,1.88
8340.00,1.88
8339.00,1.88
8338.00,1.88
8337.00,1.88
8336.00,1.88
8335.00,1.88
8334.00,1.88
8333.00,1.88
8332.00,1.88
8331.00,1.88
8330.00,1.89
8329.00,1.89
8328.00,1.89
8327.00,1.90
8326.00,1.90
8325.00,1.91
8324.00,1.91
8323.00,1.92
8322.00,1.92
8321.00,1.92
8320.00,1.93
8319.00,1.93
8318.00,1.93
8317.00,1.93
8316.00,1.93
8315.00,1.94
8314.00,1.94
8313.00,1.94
8312.00,1.94
8311.00,1.94
8310.00,1.94
8309.00,1.94
8308.00,1.94
8307.00,1.94
8306.00,1.94
8305.00,1.94
8304.00,1.94
8303.00,1.93
8302.00,1.93
8301.00,1.93
8300.00,1.92
8299.00,1.92
8298.00,1.92
8297.00,1.91
8296.00,1.91
8295.00,1.91
8294.00,1.91
8293.00,1.91
8292.00,1.91
8291.00,1.91
8290.00,1.91
8289.00,1.91
8288.00,1.91
8287.00,1.91
8286.00,1.91
8285.00,1.91
8284.00,1.92
8283.00,1.92
8282.00,1.92
8281.00,1.92
8280.00,1.92
8279.00,1.92
8278.00,1.92
8277.00,1.92
8276.00,1.92
8275.00,1.92
8274.00,1.92
8273.00,1.92
8272.00,1.93
8271.00,1.93
8270.00,1.93
8269.00,1.93
8268.00,1.93
8267.00,1.93
8266.00,1.93
8265.00,1.94
8264.00,1.94
8263.00,1.94
8262.00,1.94
8261.00,1.94
8260.00,1.94
8259.00,1.94
8258.00,1.94
8257.00,1.94
8256.00,1.94
8255.00,1.94
8254.00,1.94
8253.00,1.94
8252.00,1.94
8251.00,1.95
8250.00,1.95
8249.00,1.95
8248.00,1.95
8247.00,1.95
8246.00,1.95
8245.00,1.95
8244.00,1.95
8243.00,1.95
8242.00,1.95
8241.00,1.95
8240.00,1.94
8239.00,1.94
8238.00,1.94
8237.00,1.94
8236.00,1.94
8235.00,1.94
8234.00,1.94
8233.00,1.94
8232.00,1.94
8231.00,1.94
8230.00,1.94
8229.00,1.94
8228.00,1.94
8227.00,1.94
8226.00,1.94
8225.00,1.94
8224.00,1.94
8223.00,1.94
8222.00,1.94
8221.00,1.94
8220.00,1.94
8219.00,1.94
8218.00,1.95
8217.00,1.95
8216.00,1.95
8215.00,1.95
8214.00,1.96
8213.00,1.96
8212.00,1.96
8211.00,1.96
8210.00,1.96
8209.00,1.97
8208.00,1.97
8207.00,1.97
8206.00,1.97
8205.00,1.98
8204.00,1.98
8203.00,1.98
8202.00,1.98
8201.00,1.98
8200.00,1.99
8199.00,1.99
8198.00,1.99
8197.00,1.99
8196.00,1.99
8195.00,1.99
8194.00,1.99
8193.00,1.99
8192.00,1.99
8191.00,1.99
8190.00,1.99
8189.00,1.99
8188.00,1.99
8187.00,1.99
8186.00,1.99
8185.00,1.99
8184.00,1.99
8183.00,2.00
8182.00,2.00
8181.00,2.00
8180.00,2.00
8179.00,2.00
8178.00,2.00
8177.00,2.00
8176.00,2.00
8175.00,2.00
8174.00,2.01
8173.00,2.01
8172.00,2.01
8171.00,2.01
8170.00,2.01
8169.00,2.01
8168.00,2.01
8167.00,2.01
8166.00,2.01
8165.00,2.01
8164.00,2.02
8163.00,2.02
8162.00,2.02
8161.00,2.02
8160.00,2.02
8159.00,2.02
8158.00,2.02
8157.00,2.02
8156.00,2.02
8155.00,2.02
8154.00,2.02
8153.00,2.02
8152.00,2.02
8151.00,2.02
8150.00,2.02
8149.00,2.02
8148.00,2.02
8147.00,2.02
8146.00,2.02
8145.00,2.03
8144.00,2.03
8143.00,2.03
8142.00,2.03
8141.00,2.03
8140.00,2.03
8139.00,2.03
8138.00,2.03
8137.00,2.02
8136.00,2.02
8135.00,2.02
8134.00,2.02
8133.00,2.02
8132.00,2.02
8131.00,2.02
8130.00,2.02
8129.00,2.02
8128.00,2.02
8127.00,2.02
8126.00,2.02
8125.00,2.02
8124.00,2.02
8123.00,2.02
8122.00,2.02
8121.00,2.02
8120.00,2.02
8119.00,2.01
8118.00,2.01
8117.00,2.01
8116.00,2.01
8115.00,2.01
8114.00,2.00
8113.00,2.00
8112.00,2.00
8111.00,2.00
8110.00,2.00
8109.00,2.00
8108.00,2.00
8107.00,2.00
8106.00,1.99
8105.00,1.99
8104.00,1.99
8103.00,1.99
8102.00,1.99
8101.00,1.99
8100.00,1.99
8099.00,1.99
8098.00,1.99
8097.00,1.99
8096.00,1.99
8095.00,1.99
8094.00,1.99
8093.00,1.99
8092.00,1.99
8091.00,1.99
8090.00,1.99
8089.00,1.99
8088.00,1.99
8087.00,1.99
8086.00,1.99
8085.00,2.00
8084.00,2.00
8083.00,2.00
8082.00,2.00
8081.00,2.00
8080.00,2.00
8079.00,2.00
8078.00,2.00
8077.00,2.00
8076.00,2.00
8075.00,2.01
8074.00,2.01
8073.00,2.01
8072.00,2.01
8071.00,2.01
8070.00,2.02
8069.00,2.02
8068.00,2.02
8067.00,2.02
8066.00,2.03
8065.00,2.03
8064.00,2.03
8063.00,2.03
8062.00,2.03
8061.00,2.03
8060.00,2.03
8059.00,2.03
8058.00,2.03
8057.00,2.03
8056.00,2.03
8055.00,2.03
8054.00,2.03
8053.00,2.03
8052.00,2.03
8051.00,2.03
8050.00,2.03
8049.00,2.03
8048.00,2.02
8047.00,2.02
8046.00,2.02
8045.00,2.02
8044.00,2.01
8043.00,2.01
8042.00,2.01
8041.00,2.01
8040.00,2.00
8039.00,2.00
8038.00,2.00
8037.00,1.99
8036.00,1.99
8035.00,1.99
8034.00,1.98
8033.00,1.98
8032.00,1.98
8031.00,1.97
8030.00,1.97
8029.00,1.97
8028.00,1.97
8027.00,1.96
8026.00,1.96
8025.00,1.96
8024.00,1.96
8023.00,1.96
8022.00,1.95
8021.00,1.95
8020.00,1.95
8019.00,1.94
8018.00,1.94
8017.00,1.94
8016.00,1.94
8015.00,1.93
8014.00,1.93
8013.00,1.93
8012.00,1.93
8011.00,1.92
8010.00,1.92
8009.00,1.92
8008.00,1.92
8007.00,1.92
8006.00,1.92
8005.00,1.92
8004.00,1.92
8003.00,1.92
8002.00,1.92
8001.00,1.91
8000.00,1.91
7999.00,1.91
7998.00,1.91
7997.00,1.91
7996.00,1.91
7995.00,1.91
7994.00,1.91
7993.00,1.92
7992.00,1.92
7991.00,1.92
7990.00,1.92
7989.00,1.92
7988.00,1.93
7987.00,1.93
7986.00,1.93
7985.00,1.93
7984.00,1.93
7983.00,1.93
7982.00,1.93
7981.00,1.93
7980.00,1.93
7979.00,1.93
7978.00,1.94
7977.00,1.94
7976.00,1.94
7975.00,1.94
7974.00,1.94
7973.00,1.93
7972.00,1.93
7971.00,1.93
7970.00,1.93
7969.00,1.93
7968.00,1.93
7967.00,1.93
7966.00,1.92
7965.00,1.92
7964.00,1.92
7963.00,1.92
7962.00,1.92
7961.00,1.91
7960.00,1.91
7959.00,1.91
7958.00,1.91
7957.00,1.91
7956.00,1.91
7955.00,1.91
7954.00,1.91
7953.00,1.91
7952.00,1.92
7951.00,1.92
7950.00,1.92
7949.00,1.92
7948.00,1.92
7947.00,1.93
7946.00,1.93
7945.00,1.93
7944.00,1.94
7943.00,1.94
7942.00,1.95
7941.00,1.95
7940.00,1.96
7939.00,1.96
7938.00,1.97
7937.00,1.97
7936.00,1.97
7935.00,1.98
7934.00,1.98
7933.00,1.99
7932.00,1.99
7931.00,1.99
7930.00,1.99
7929.00,2.00
7928.00,2.00
7927.00,2.00
7926.00,2.00
7925.00,2.00
7924.00,2.00
7923.00,2.00
7922.00,2.00
7921.00,2.00
7920.00,2.00
7919.00,1.99
7918.00,1.99
7917.00,1.99
7916.00,1.99
7915.00,1.99
7914.00,1.98
7913.00,1.98
7912.00,1.98
7911.00,1.98
7910.00,1.97
7909.00,1.97
7908.00,1.97
7907.00,1.97
7906.00,1.96
7905.00,1.96
7904.00,1.96
7903.00,1.96
7902.00,1.96
7901.00,1.95
7900.00,1.95
7899.00,1.95
7898.00,1.95
7897.00,1.95
7896.00,1.95
7895.00,1.96
7894.00,1.96
7893.00,1.96
7892.00,1.96
7891.00,1.96
7890.00,1.96
7889.00,1.97
7888.00,1.97
7887.00,1.97
7886.00,1.97
7885.00,1.97
7884.00,1.98
7883.00,1.98
7882.00,1.98
7881.00,1.98
7880.00,1.99
7879.00,1.99
7878.00,1.99
7877.00,1.99
7876.00,1.99
7875.00,2.00
7874.00,2.00
7873.00,2.00
7872.00,2.00
7871.00,2.00
7870.00,2.00
7869.00,2.00
7868.00,2.00
7867.00,2.00
7866.00,2.00
7865.00,2.00
7864.00,2.00
7863.00,2.00
7862.00,2.00
7861.00,2.00
7860.00,2.00
7859.00,2.00
7858.00,1.99
7857.00,1.99
7856.00,1.99
7855.00,1.99
7854.00,1.99
7853.00,1.99
7852.00,1.99
7851.00,1.99
7850.00,1.99
7849.00,1.99
7848.00,1.99
7847.00,1.99
7846.00,1.99
7845.00,1.99
7844.00,1.99
7843.00,1.99
7842.00,1.99
7841.00,2.00
7840.00,2.00
7839.00,2.00
7838.00,2.00
7837.00,2.00
7836.00,2.00
7835.00,2.00
7834.00,2.01
7833.00,2.01
7832.00,2.01
7831.00,2.01
7830.00,2.01
7829.00,2.01
7828.00,2.01
7827.00,2.01
7826.00,2.02
7825.00,2.02
7824.00,2.02
7823.00,2.02
7822.00,2.02
7821.00,2.02
7820.00,2.02
7819.00,2.02
7818.00,2.02
7817.00,2.02
7816.00,2.01
7815.00,2.01
7814.00,2.01
7813.00,2.01
7812.00,2.01
7811.00,2.00
7810.00,2.00
7809.00,2.00
7808.00,2.00
7807.00,2.00
7806.00,2.00
7805.00,2.00
7804.00,2.00
7803.00,2.00
7802.00,2.00
7801.00,2.00
7800.00,2.00
7799.00,2.00
7798.00,2.00
7797.00,2.00
7796.00,2.00
7795.00,2.00
7794.00,2.00
7793.00,2.00
7792.00,2.00
7791.00,2.00
7790.00,2.00
7789.00,2.01
7788.00,2.01
7787.00,2.01
7786.00,2.01
7785.00,2.01
7784.00,2.02
7783.00,2.02
7782.00,2.02
7781.00,2.02
7780.00,2.02
7779.00,2.02
7778.00,2.02
7777.00,2.02
7776.00,2.02
7775.00,2.02
7774.00,2.02
7773.00,2.02
7772.00,2.02
7771.00,2.03
7770.00,2.03
7769.00,2.03
7768.00,2.03
7767.00,2.02
7766.00,2.02
7765.00,2.02
7764.00,2.02
7763.00,2.02
7762.00,2.02
7761.00,2.02
7760.00,2.02
7759.00,2.02
7758.00,2.02
7757.00,2.01
7756.00,2.01
7755.00,2.01
7754.00,2.01
7753.00,2.01
7752.00,2.01
7751.00,2.01
7750.00,2.01
7749.00,2.01
7748.00,2.01
7747.00,2.01
7746.00,2.01
7745.00,2.00
7744.00,2.00
7743.00,2.00
7742.00,2.00
7741.00,2.00
7740.00,2.00
7739.00,2.00
7738.00,2.00
7737.00,2.00
7736.00,2.00
7735.00,2.00
7734.00,2.00
7733.00,2.01
7732.00,2.01
7731.00,2.01
7730.00,2.01
7729.00,2.01
7728.00,2.01
7727.00,2.01
7726.00,2.01
7725.00,2.01
7724.00,2.01
7723.00,2.01
7722.00,2.01
7721.00,2.01
7720.00,2.01
7719.00,2.01
7718.00,2.01
7717.00,2.02
7716.00,2.02
7715.00,2.02
7714.00,2.02
7713.00,2.02
7712.00,2.02
7711.00,2.02
7710.00,2.02
7709.00,2.02
7708.00,2.02
7707.00,2.02
7706.00,2.02
7705.00,2.02
7704.00,2.01
7703.00,2.01
7702.00,2.01
7701.00,2.02
7700.00,2.02
7699.00,2.02
7698.00,2.02
7697.00,2.02
7696.00,2.02
7695.00,2.03
7694.00,2.03
7693.00,2.03
7692.00,2.03
7691.00,2.03
7690.00,2.03
7689.00,2.04
7688.00,2.04
7687.00,2.04
7686.00,2.04
7685.00,2.04
7684.00,2.05
7683.00,2.05
7682.00,2.05
7681.00,2.06
7680.00,2.06
7679.00,2.07
7678.00,2.07
7677.00,2.07
7676.00,2.08
7675.00,2.08
7674.00,2.08
7673.00,2.08
7672.00,2.08
7671.00,2.08
7670.00,2.09
7669.00,2.09
7668.00,2.09
7667.00,2.09
7666.00,2.09
7665.00,2.09
7664.00,2.09
7663.00,2.09
7662.00,2.09
7661.00,2.09
7660.00,2.08
7659.00,2.08
7658.00,2.08
7657.00,2.08
7656.00,2.08
7655.00,2.07
7654.00,2.07
7653.00,2.07
7652.00,2.07
7651.00,2.06
7650.00,2.06
7649.00,2.06
7648.00,2.06
7647.00,2.05
7646.00,2.05
7645.00,2.05
7644.00,2.05
7643.00,2.05
7642.00,2.05
7641.00,2.05
7640.00,2.05
7639.00,2.04
7638.00,2.04
7637.00,2.04
7636.00,2.04
7635.00,2.04
7634.00,2.04
7633.00,2.04
7632.00,2.04
7631.00,2.04
7630.00,2.04
7629.00,2.04
7628.00,2.04
7627.00,2.04
7626.00,2.04
7625.00,2.04
7624.00,2.04
7623.00,2.05
7622.00,2.05
7621.00,2.04
7620.00,2.04
7619.00,2.04
7618.00,2.04
7617.00,2.04
7616.00,2.04
7615.00,2.04
7614.00,2.04
7613.00,2.04
7612.00,2.04
7611.00,2.04
7610.00,2.04
7609.00,2.04
7608.00,2.04
7607.00,2.04
7606.00,2.03
7605.00,2.03
7604.00,2.03
7603.00,2.03
7602.00,2.03
7601.00,2.02
7600.00,2.02
7599.00,2.02
7598.00,2.01
7597.00,2.01
7596.00,2.01
7595.00,2.00
7594.00,2.00
7593.00,2.00
7592.00,2.00
7591.00,1.99
7590.00,1.99
7589.00,1.99
7588.00,1.99
7587.00,1.99
7586.00,1.99
7585.00,1.99
7584.00,1.99
7583.00,1.99
7582.00,1.99
7581.00,1.99
7580.00,1.99
7579.00,2.00
7578.00,2.00
7577.00,2.00
7576.00,2.00
7575.00,2.01
7574.00,2.01
7573.00,2.01
7572.00,2.02
7571.00,2.02
7570.00,2.03
7569.00,2.03
7568.00,2.03
7567.00,2.04
7566.00,2.04
7565.00,2.05
7564.00,2.05
7563.00,2.05
7562.00,2.05
7561.00,2.06
7560.00,2.06
7559.00,2.06
7558.00,2.06
7557.00,2.06
7556.00,2.06
7555.00,2.06
7554.00,2.06
7553.00,2.06
7552.00,2.06
7551.00,2.05
7550.00,2.05
7549.00,2.05
7548.00,2.05
7547.00,2.05
7546.00,2.05
7545.00,2.04
7544.00,2.04
7543.00,2.04
7542.00,2.04
7541.00,2.04
7540.00,2.03
7539.00,2.03
7538.00,2.03
7537.00,2.03
7536.00,2.03
7535.00,2.03
7534.00,2.03
7533.00,2.03
7532.00,2.03
7531.00,2.03
7530.00,2.03
7529.00,2.03
7528.00,2.03
7527.00,2.03
7526.00,2.03
7525.00,2.03
7524.00,2.03
7523.00,2.03
7522.00,2.03
7521.00,2.03
7520.00,2.03
7519.00,2.03
7518.00,2.03
7517.00,2.03
7516.00,2.03
7515.00,2.03
7514.00,2.03
7513.00,2.03
7512.00,2.03
7511.00,2.03
7510.00,2.03
7509.00,2.03
7508.00,2.03
7507.00,2.03
7506.00,2.03
7505.00,2.03
7504.00,2.03
7503.00,2.02
7502.00,2.02
7501.00,2.02
7500.00,2.02
7499.00,2.02
7498.00,2.01
7497.00,2.01
7496.00,2.01
7495.00,2.01
7494.00,2.00
7493.00,2.00
7492.00,2.00
7491.00,2.00
7490.00,1.99
7489.00,1.99
7488.00,1.99
7487.00,1.99
7486.00,1.99
7485.00,1.99
7484.00,1.99
7483.00,1.99
7482.00,1.99
7481.00,1.99
7480.00,1.99
7479.00,2.00
7478.00,2.00
7477.00,2.00
7476.00,2.01
7475.00,2.01
7474.00,2.01
7473.00,2.01
7472.00,2.02
7471.00,2.02
7470.00,2.02
7469.00,2.03
7468.00,2.03
7467.00,2.03
7466.00,2.04
7465.00,2.04
7464.00,2.04
7463.00,2.04
7462.00,2.04
7461.00,2.04
7460.00,2.04
7459.00,2.04
7458.00,2.04
7457.00,2.04
7456.00,2.04
7455.00,2.04
7454.00,2.03
7453.00,2.03
7452.00,2.03
7451.00,2.02
7450.00,2.02
7449.00,2.02
7448.00,2.01
7447.00,2.01
7446.00,2.00
7445.00,2.00
7444.00,2.00
7443.00,1.99
7442.00,1.99
7441.00,1.99
7440.00,1.98
7439.00,1.98
7438.00,1.98
7437.00,1.98
7436.00,1.98
7435.00,1.98
7434.00,1.98
7433.00,1.97
7432.00,1.97
7431.00,1.97
7430.00,1.97
7429.00,1.97
7428.00,1.97
7427.00,1.97
7426.00,1.98
7425.00,1.98
7424.00,1.98
7423.00,1.98
7422.00,1.98
7421.00,1.99
7420.00,1.99
7419.00,1.99
7418.00,1.99
7417.00,2.00
7416.00,2.00
7415.00,2.00
7414.00,2.00
7413.00,2.01
7412.00,2.01
7411.00,2.02
7410.00,2.02
7409.00,2.02
7408.00,2.03
7407.00,2.03
7406.00,2.04
7405.00,2.04
7404.00,2.05
7403.00,2.05
7402.00,2.05
7401.00,2.06
7400.00,2.06
7399.00,2.06
7398.00,2.07
7397.00,2.07
7396.00,2.07
7395.00,2.07
7394.00,2.08
7393.00,2.08
7392.00,2.08
7391.00,2.08
7390.00,2.08
7389.00,2.09
7388.00,2.09
7387.00,2.09
7386.00,2.09
7385.00,2.09
7384.00,2.08
7383.00,2.08
7382.00,2.08
7381.00,2.08
7380.00,2.08
7379.00,2.08
7378.00,2.08
7377.00,2.08
7376.00,2.07
7375.00,2.07
7374.00,2.07
7373.00,2.07
7372.00,2.07
7371.00,2.07
7370.00,2.07
7369.00,2.07
7368.00,2.07
7367.00,2.06
7366.00,2.06
7365.00,2.06
7364.00,2.06
7363.00,2.06
7362.00,2.06
7361.00,2.06
7360.00,2.05
7359.00,2.05
7358.00,2.05
7357.00,2.05
7356.00,2.05
7355.00,2.05
7354.00,2.04
7353.00,2.04
7352.00,2.04
7351.00,2.04
7350.00,2.03
7349.00,2.03
7348.00,2.03
7347.00,2.02
7346.00,2.02
7345.00,2.01
7344.00,2.01
7343.00,2.01
7342.00,2.00
7341.00,2.00
7340.00,1.99
7339.00,1.99
7338.00,1.99
7337.00,1.99
7336.00,1.98
7335.00,1.98
7334.00,1.98
7333.00,1.98
7332.00,1.98
7331.00,1.98
7330.00,1.97
7329.00,1.97
7328.00,1.97
7327.00,1.97
7326.00,1.97
7325.00,1.97
7324.00,1.97
7323.00,1.97
7322.00,1.97
7321.00,1.97
7320.00,1.97
7319.00,1.97
7318.00,1.97
7317.00,1.98
7316.00,1.98
7315.00,1.98
7314.00,1.98
7313.00,1.98
7312.00,1.98
7311.00,1.98
7310.00,1.98
7309.00,1.98
7308.00,1.98
7307.00,1.98
7306.00,1.98
7305.00,1.98
7304.00,1.98
7303.00,1.98
7302.00,1.98
7301.00,1.98
7300.00,1.98
7299.00,1.98
7298.00,1.98
7297.00,1.98
7296.00,1.98
7295.00,1.99
7294.00,1.99
7293.00,1.99
7292.00,1.99
7291.00,1.99
7290.00,1.99
7289.00,1.99
7288.00,1.99
7287.00,1.99
7286.00,2.00
7285.00,2.00
7284.00,2.00
7283.00,2.00
7282.00,2.00
7281.00,2.01
7280.00,2.01
7279.00,2.01
7278.00,2.01
7277.00,2.01
7276.00,2.01
7275.00,2.01
7274.00,2.01
7273.00,2.01
7272.00,2.01
7271.00,2.01
7270.00,2.01
7269.00,2.01
7268.00,2.01
7267.00,2.01
7266.00,2.01
7265.00,2.01
7264.00,2.01
7263.00,2.01
7262.00,2.01
7261.00,2.00
7260.00,2.00
7259.00,2.00
7258.00,2.00
7257.00,1.99
7256.00,1.99
7255.00,1.99
7254.00,1.98
7253.00,1.98
7252.00,1.97
7251.00,1.97
7250.00,1.97
7249.00,1.96
7248.00,1.96
7247.00,1.96
7246.00,1.96
7245.00,1.95
7244.00,1.95
7243.00,1.95
7242.00,1.95
7241.00,1.94
7240.00,1.94
7239.00,1.94
7238.00,1.94
7237.00,1.94
7236.00,1.94
7235.00,1.94
7234.00,1.94
7233.00,1.94
7232.00,1.94
7231.00,1.94
7230.00,1.94
7229.00,1.94
7228.00,1.94
7227.00,1.95
7226.00,1.95
7225.00,1.95
7224.00,1.95
7223.00,1.95
7222.00,1.95
7221.00,1.95
7220.00,1.95
7219.00,1.95
7218.00,1.95
7217.00,1.95
7216.00,1.95
7215.00,1.95
7214.00,1.95
7213.00,1.95
7212.00,1.95
7211.00,1.94
7210.00,1.94
7209.00,1.94
7208.00,1.94
7207.00,1.94
7206.00,1.93
7205.00,1.93
7204.00,1.93
7203.00,1.93
7202.00,1.92
7201.00,1.92
7200.00,1.92
7199.00,1.92
7198.00,1.91
7197.00,1.91
7196.00,1.91
7195.00,1.90
7194.00,1.90
7193.00,1.90
7192.00,1.89
7191.00,1.89
7190.00,1.89
7189.00,1.89
7188.00,1.88
7187.00,1.88
7186.00,1.88
7185.00,1.87
7184.00,1.87
7183.00,1.87
7182.00,1.86
7181.00,1.86
7180.00,1.86
7179.00,1.85
7178.00,1.85
7177.00,1.85
7176.00,1.85
7175.00,1.84
7174.00,1.84
7173.00,1.84
7172.00,1.84
7171.00,1.83
7170.00,1.83
7169.00,1.83
7168.00,1.83
7167.00,1.82
7166.00,1.82
7165.00,1.82
7164.00,1.82
7163.00,1.81
7162.00,1.81
7161.00,1.81
7160.00,1.80
7159.00,1.80
7158.00,1.80
7157.00,1.80
7156.00,1.80
7155.00,1.80
7154.00,1.79
7153.00,1.79
7152.00,1.79
7151.00,1.79
7150.00,1.79
7149.00,1.79
7148.00,1.79
7147.00,1.78
7146.00,1.78
7145.00,1.78
7144.00,1.77
7143.00,1.77
7142.00,1.77
7141.00,1.77
7140.00,1.76
7139.00,1.76
7138.00,1.76
7137.00,1.76
7136.00,1.75
7135.00,1.75
7134.00,1.75
7133.00,1.75
7132.00,1.75
7131.00,1.75
7130.00,1.75
7129.00,1.74
7128.00,1.74
7127.00,1.74
7126.00,1.74
7125.00,1.73
7124.00,1.73
7123.00,1.73
7122.00,1.73
7121.00,1.72
7120.00,1.72
7119.00,1.72
7118.00,1.72
7117.00,1.71
7116.00,1.71
7115.00,1.71
7114.00,1.71
7113.00,1.71
7112.00,1.71
7111.00,1.70
7110.00,1.70
7109.00,1.70
7108.00,1.70
7107.00,1.69
7106.00,1.69
7105.00,1.69
7104.00,1.68
7103.00,1.68
7102.00,1.68
7101.00,1.68
7100.00,1.67
7099.00,1.67
7098.00,1.67
7097.00,1.67
7096.00,1.67
7095.00,1.66
7094.00,1.66
7093.00,1.66
7092.00,1.66
7091.00,1.66
7090.00,1.65
7089.00,1.65
7088.00,1.65
7087.00,1.65
7086.00,1.65
7085.00,1.65
7084.00,1.65
7083.00,1.64
7082.00,1.64
7081.00,1.64
7080.00,1.64
7079.00,1.64
7078.00,1.64
7077.00,1.64
7076.00,1.64
7075.00,1.64
7074.00,1.63
7073.00,1.63
7072.00,1.63
7071.00,1.63
7070.00,1.63
7069.00,1.63
7068.00,1.63
7067.00,1.63
7066.00,1.63
7065.00,1.63
7064.00,1.63
7063.00,1.62
7062.00,1.62
7061.00,1.62
7060.00,1.62
7059.00,1.62
7058.00,1.62
7057.00,1.62
7056.00,1.61
7055.00,1.61
7054.00,1.61
7053.00,1.61
7052.00,1.61
7051.00,1.60
7050.00,1.60
7049.00,1.60
7048.00,1.60
7047.00,1.60
7046.00,1.60
7045.00,1.59
7044.00,1.59
7043.00,1.59
7042.00,1.59
7041.00,1.59
7040.00,1.59
7039.00,1.58
7038.00,1.58
7037.00,1.58
7036.00,1.58
7035.00,1.58
7034.00,1.58
7033.00,1.58
7032.00,1.58
7031.00,1.58
7030.00,1.58
7029.00,1.58
7028.00,1.58
7027.00,1.58
7026.00,1.58
7025.00,1.58
7024.00,1.58
7023.00,1.59
7022.00,1.59
7021.00,1.59
7020.00,1.59
7019.00,1.59
7018.00,1.59
7017.00,1.59
7016.00,1.59
7015.00,1.59
7014.00,1.59
7013.00,1.59
7012.00,1.59
7011.00,1.59
7010.00,1.58
7009.00,1.58
7008.00,1.58
7007.00,1.58
7006.00,1.58
7005.00,1.57
7004.00,1.57
7003.00,1.57
7002.00,1.57
7001.00,1.57
7000.00,1.57
6999.00,1.56
6998.00,1.56
6997.00,1.56
6996.00,1.56
6995.00,1.56
6994.00,1.56
6993.00,1.55
6992.00,1.55
6991.00,1.55
6990.00,1.55
6989.00,1.55
6988.00,1.55
6987.00,1.55
6986.00,1.55
6985.00,1.55
6984.00,1.55
6983.00,1.55
6982.00,1.55
6981.00,1.55
6980.00,1.55
6979.00,1.55
6978.00,1.55
6977.00,1.55
6976.00,1.55
6975.00,1.55
6974.00,1.55
6973.00,1.55
6972.00,1.55
6971.00,1.55
6970.00,1.55
6969.00,1.55
6968.00,1.55
6967.00,1.55
6966.00,1.55
6965.00,1.55
6964.00,1.55
6963.00,1.55
6962.00,1.55
6961.00,1.55
6960.00,1.55
6959.00,1.54
6958.00,1.54
6957.00,1.54
6956.00,1.54
6955.00,1.54
6954.00,1.54
6953.00,1.54
6952.00,1.53
6951.00,1.53
6950.00,1.53
6949.00,1.53
6948.00,1.53
6947.00,1.53
6946.00,1.53
6945.00,1.53
6944.00,1.53
6943.00,1.53
6942.00,1.53
6941.00,1.53
6940.00,1.53
6939.00,1.53
6938.00,1.53
6937.00,1.53
6936.00,1.53
6935.00,1.53
6934.00,1.53
6933.00,1.53
6932.00,1.53
6931.00,1.53
6930.00,1.53
6929.00,1.53
6928.00,1.53
6927.00,1.53
6926.00,1.53
6925.00,1.53
6924.00,1.53
6923.00,1.53
6922.00,1.53
6921.00,1.53
6920.00,1.52
6919.00,1.52
6918.00,1.52
6917.00,1.52
6916.00,1.52
6915.00,1.52
6914.00,1.52
6913.00,1.52
6912.00,1.52
6911.00,1.52
6910.00,1.52
6909.00,1.52
6908.00,1.52
6907.00,1.52
6906.00,1.52
6905.00,1.52
6904.00,1.52
6903.00,1.52
6902.00,1.52
6901.00,1.52
6900.00,1.52
6899.00,1.52
6898.00,1.52
6897.00,1.52
6896.00,1.53
6895.00,1.53
6894.00,1.53
6893.00,1.53
6892.00,1.53
6891.00,1.53
6890.00,1.53
6889.00,1.53
6888.00,1.53
6887.00,1.53
6886.00,1.53
6885.00,1.53
6884.00,1.52
6883.00,1.52
6882.00,1.52
6881.00,1.52
6880.00,1.52
6879.00,1.52
6878.00,1.52
6877.00,1.52
6876.00,1.51
6875.00,1.51
6874.00,1.51
6873.00,1.51
6872.00,1.51
6871.00,1.51
6870.00,1.51
6869.00,1.51
6868.00,1.51
6867.00,1.50
6866.00,1.50
6865.00,1.50
6864.00,1.50
6863.00,1.50
6862.00,1.50
6861.00,1.50
6860.00,1.50
6859.00,1.50
6858.00,1.50
6857.00,1.50
6856.00,1.50
6855.00,1.50
6854.00,1.50
6853.00,1.50
6852.00,1.50
6851.00,1.50
6850.00,1.50
6849.00,1.51
6848.00,1.51
6847.00,1.51
6846.00,1.51
6845.00,1.51
6844.00,1.51
6843.00,1.51
6842.00,1.51
6841.00,1.52
6840.00,1.52
6839.00,1.52
6838.00,1.52
6837.00,1.52
6836.00,1.52
6835.00,1.52
6834.00,1.52
6833.00,1.52
6832.00,1.52
6831.00,1.52
6830.00,1.52
6829.00,1.52
6828.00,1.52
6827.00,1.52
6826.00,1.52
6825.00,1.52
6824.00,1.52
6823.00,1.52
6822.00,1.52
6821.00,1.52
6820.00,1.52
6819.00,1.52
6818.00,1.52
6817.00,1.52
6816.00,1.52
6815.00,1.52
6814.00,1.51
6813.00,1.51
6812.00,1.51
6811.00,1.51
6810.00,1.51
6809.00,1.51
6808.00,1.51
6807.00,1.51
6806.00,1.51
6805.00,1.51
6804.00,1.51
6803.00,1.51
6802.00,1.51
6801.00,1.52
6800.00,1.52
6799.00,1.52
6798.00,1.52
6797.00,1.52
6796.00,1.52
6795.00,1.52
6794.00,1.52
6793.00,1.52
6792.00,1.52
6791.00,1.52
6790.00,1.52
6789.00,1.53
6788.00,1.53
6787.00,1.53
6786.00,1.53
6785.00,1.53
6784.00,1.53
6783.00,1.53
6782.00,1.53
6781.00,1.54
6780.00,1.54
6779.00,1.54
6778.00,1.54
6777.00,1.54
6776.00,1.54
6775.00,1.55
6774.00,1.55
6773.00,1.55
6772.00,1.55
6771.00,1.56
6770.00,1.56
6769.00,1.56
6768.00,1.56
6767.00,1.56
6766.00,1.57
6765.00,1.57
6764.00,1.57
6763.00,1.57
6762.00,1.57
6761.00,1.57
6760.00,1.58
6759.00,1.58
6758.00,1.58
6757.00,1.58
6756.00,1.58
6755.00,1.59
6754.00,1.59
6753.00,1.59
6752.00,1.59
6751.00,1.60
6750.00,1.60
6749.00,1.60
6748.00,1.60
6747.00,1.60
6746.00,1.61
6745.00,1.61
6744.00,1.61
6743.00,1.61
6742.00,1.61
6741.00,1.61
6740.00,1.61
6739.00,1.62
6738.00,1.62
6737.00,1.62
6736.00,1.62
6735.00,1.63
6734.00,1.63
6733.00,1.63
6732.00,1.63
6731.00,1.63
6730.00,1.63
6729.00,1.63
6728.00,1.63
6727.00,1.63
6726.00,1.63
6725.00,1.63
6724.00,1.64
6723.00,1.64
6722.00,1.64
6721.00,1.64
6720.00,1.64
6719.00,1.64
6718.00,1.64
6717.00,1.64
6716.00,1.64
6715.00,1.64
6714.00,1.64
6713.00,1.64
6712.00,1.64
6711.00,1.64
6710.00,1.64
6709.00,1.64
6708.00,1.64
6707.00,1.64
6706.00,1.64
6705.00,1.64
6704.00,1.64
6703.00,1.64
6702.00,1.64
6701.00,1.64
6700.00,1.64
6699.00,1.64
6698.00,1.64
6697.00,1.64
6696.00,1.64
6695.00,1.64
6694.00,1.64
6693.00,1.64
6692.00,1.64
6691.00,1.64
6690.00,1.64
6689.00,1.64
6688.00,1.64
6687.00,1.64
6686.00,1.64
6685.00,1.64
6684.00,1.64
6683.00,1.64
6682.00,1.64
6681.00,1.64
6680.00,1.64
6679.00,1.64
6678.00,1.64
6677.00,1.64
6676.00,1.64
6675.00,1.65
6674.00,1.65
6673.00,1.65
6672.00,1.65
6671.00,1.65
6670.00,1.65
6669.00,1.65
6668.00,1.65
6667.00,1.66
6666.00,1.66
6665.00,1.66
6664.00,1.67
6663.00,1.67
6662.00,1.67
6661.00,1.67
6660.00,1.68
6659.00,1.68
6658.00,1.68
6657.00,1.69
6656.00,1.69
6655.00,1.69
6654.00,1.69
6653.00,1.70
6652.00,1.70
6651.00,1.70
6650.00,1.70
6649.00,1.71
6648.00,1.71
6647.00,1.71
6646.00,1.71
6645.00,1.72
6644.00,1.72
6643.00,1.72
6642.00,1.72
6641.00,1.72
6640.00,1.72
6639.00,1.72
6638.00,1.72
6637.00,1.72
6636.00,1.72
6635.00,1.72
6634.00,1.72
6633.00,1.72
6632.00,1.72
6631.00,1.72
6630.00,1.72
6629.00,1.72
6628.00,1.72
6627.00,1.72
6626.00,1.72
6625.00,1.72
6624.00,1.72
6623.00,1.72
6622.00,1.72
6621.00,1.72
6620.00,1.72
6619.00,1.72
6618.00,1.72
6617.00,1.72
6616.00,1.72
6615.00,1.72
6614.00,1.72
6613.00,1.72
6612.00,1.72
6611.00,1.72
6610.00,1.72
6609.00,1.72
6608.00,1.72
6607.00,1.72
6606.00,1.72
6605.00,1.72
6604.00,1.72
6603.00,1.72
6602.00,1.72
6601.00,1.72
6600.00,1.73
6599.00,1.73
6598.00,1.73
6597.00,1.73
6596.00,1.73
6595.00,1.74
6594.00,1.74
6593.00,1.74
6592.00,1.74
6591.00,1.74
6590.00,1.75
6589.00,1.75
6588.00,1.75
6587.00,1.75
6586.00,1.76
6585.00,1.76
6584.00,1.76
6583.00,1.77
6582.00,1.77
6581.00,1.77
6580.00,1.78
6579.00,1.78
6578.00,1.78
6577.00,1.79
6576.00,1.79
6575.00,1.79
6574.00,1.80
6573.00,1.80
6572.00,1.81
6571.00,1.81
6570.00,1.81
6569.00,1.81
6568.00,1.82
6567.00,1.82
6566.00,1.82
6565.00,1.82
6564.00,1.83
6563.00,1.83
6562.00,1.83
6561.00,1.83
6560.00,1.83
6559.00,1.83
6558.00,1.83
6557.00,1.84
6556.00,1.84
6555.00,1.84
6554.00,1.84
6553.00,1.84
6552.00,1.84
6551.00,1.84
6550.00,1.84
6549.00,1.84
6548.00,1.84
6547.00,1.84
6546.00,1.84
6545.00,1.83
6544.00,1.83
6543.00,1.84
6542.00,1.84
6541.00,1.84
6540.00,1.84
6539.00,1.84
6538.00,1.84
6537.00,1.84
6536.00,1.84
6535.00,1.84
6534.00,1.85
6533.00,1.85
6532.00,1.85
6531.00,1.85
6530.00,1.86
6529.00,1.86
6528.00,1.86
6527.00,1.87
6526.00,1.87
6525.00,1.87
6524.00,1.88
6523.00,1.88
6522.00,1.88
6521.00,1.89
6520.00,1.89
6519.00,1.89
6518.00,1.90
6517.00,1.90
6516.00,1.90
6515.00,1.90
6514.00,1.91
6513.00,1.91
6512.00,1.91
6511.00,1.91
6510.00,1.91
6509.00,1.91
6508.00,1.91
6507.00,1.91
6506.00,1.92
6505.00,1.92
6504.00,1.92
6503.00,1.92
6502.00,1.92
6501.00,1.91
6500.00,1.91
6499.00,1.91
6498.00,1.91
6497.00,1.91
6496.00,1.91
6495.00,1.91
6494.00,1.91
6493.00,1.90
6492.00,1.90
6491.00,1.90
6490.00,1.90
6489.00,1.90
6488.00,1.90
6487.00,1.90
6486.00,1.89
6485.00,1.89
6484.00,1.89
6483.00,1.89
6482.00,1.88
6481.00,1.88
6480.00,1.88
6479.00,1.88
6478.00,1.87
6477.00,1.87
6476.00,1.87
6475.00,1.87
6474.00,1.87
6473.00,1.87
6472.00,1.87
6471.00,1.87
6470.00,1.87
6469.00,1.87
6468.00,1.87
6467.00,1.87
6466.00,1.87
6465.00,1.87
6464.00,1.87
6463.00,1.87
6462.00,1.87
6461.00,1.87
6460.00,1.87
6459.00,1.87
6458.00,1.88
6457.00,1.88
6456.00,1.88
6455.00,1.88
6454.00,1.89
6453.00,1.89
6452.00,1.89
6451.00,1.90
6450.00,1.90
6449.00,1.90
6448.00,1.91
6447.00,1.91
6446.00,1.91
6445.00,1.91
6444.00,1.92
6443.00,1.92
6442.00,1.92
6441.00,1.92
6440.00,1.92
6439.00,1.93
6438.00,1.93
6437.00,1.93
6436.00,1.93
6435.00,1.93
6434.00,1.93
6433.00,1.94
6432.00,1.94
6431.00,1.94
6430.00,1.94
6429.00,1.94
6428.00,1.94
6427.00,1.94
6426.00,1.94
6425.00,1.95
6424.00,1.95
6423.00,1.95
6422.00,1.95
6421.00,1.95
6420.00,1.95
6419.00,1.95
6418.00,1.95
6417.00,1.95
6416.00,1.95
6415.00,1.96
6414.00,1.96
6413.00,1.96
6412.00,1.96
6411.00,1.96
6410.00,1.97
6409.00,1.97
6408.00,1.97
6407.00,1.97
6406.00,1.97
6405.00,1.98
6404.00,1.98
6403.00,1.98
6402.00,1.98
6401.00,1.98
6400.00,1.98
6399.00,1.98
6398.00,1.99
6397.00,1.99
6396.00,1.99
6395.00,1.99
6394.00,1.99
6393.00,1.99
6392.00,1.99
6391.00,1.99
6390.00,1.99
6389.00,1.99
6388.00,1.99
6387.00,1.99
6386.00,1.99
6385.00,1.99
6384.00,1.99
6383.00,1.99
6382.00,1.99
6381.00,1.99
6380.00,1.99
6379.00,1.99
6378.00,1.99
6377.00,1.99
6376.00,1.99
6375.00,2.00
6374.00,2.00
6373.00,2.00
6372.00,2.00
6371.00,2.00
6370.00,2.00
6369.00,2.00
6368.00,2.00
6367.00,2.00
6366.00,2.00
6365.00,2.01
6364.00,2.01
6363.00,2.01
6362.00,2.01
6361.00,2.01
6360.00,2.01
6359.00,2.01
6358.00,2.02
6357.00,2.02
6356.00,2.02
6355.00,2.02
6354.00,2.02
6353.00,2.02
6352.00,2.02
6351.00,2.02
6350.00,2.01
6349.00,2.01
6348.00,2.01
6347.00,2.01
6346.00,2.01
6345.00,2.01
6344.00,2.01
6343.00,2.01
6342.00,2.01
6341.00,2.01
6340.00,2.00
6339.00,2.00
6338.00,2.00
6337.00,2.00
6336.00,2.00
6335.00,1.99
6334.00,1.99
6333.00,1.99
6332.00,1.99
6331.00,1.99
6330.00,1.98
6329.00,1.98
6328.00,1.98
6327.00,1.98
6326.00,1.98
6325.00,1.98
6324.00,1.98
6323.00,1.98
6322.00,1.98
6321.00,1.98
6320.00,1.97
6319.00,1.97
6318.00,1.97
6317.00,1.97
6316.00,1.97
6315.00,1.97
6314.00,1.97
6313.00,1.97
6312.00,1.98
6311.00,1.98
6310.00,1.98
6309.00,1.98
6308.00,1.98
6307.00,1.98
6306.00,1.99
6305.00,1.99
6304.00,1.99
6303.00,1.99
6302.00,1.99
6301.00,2.00
6300.00,2.00
6299.00,2.00
6298.00,2.00
6297.00,2.01
6296.00,2.01
6295.00,2.01
6294.00,2.01
6293.00,2.02
6292.00,2.02
6291.00,2.02
6290.00,2.02
6289.00,2.03
6288.00,2.03
6287.00,2.03
6286.00,2.03
6285.00,2.03
6284.00,2.03
6283.00,2.04
6282.00,2.04
6281.00,2.04
6280.00,2.04
6279.00,2.04
6278.00,2.04
6277.00,2.04
6276.00,2.05
6275.00,2.05
6274.00,2.05
6273.00,2.05
6272.00,2.05
6271.00,2.05
6270.00,2.05
6269.00,2.05
6268.00,2.05
6267.00,2.06
6266.00,2.06
6265.00,2.06
6264.00,2.06
6263.00,2.06
6262.00,2.06
6261.00,2.06
6260.00,2.06
6259.00,2.06
6258.00,2.06
6257.00,2.06
6256.00,2.07
6255.00,2.07
6254.00,2.07
6253.00,2.07
6252.00,2.07
6251.00,2.07
6250.00,2.07
6249.00,2.07
6248.00,2.07
6247.00,2.08
6246.00,2.08
6245.00,2.08
6244.00,2.08
6243.00,2.08
6242.00,2.08
6241.00,2.08
6240.00,2.09
6239.00,2.09
6238.00,2.09
6237.00,2.09
6236.00,2.10
6235.00,2.10
6234.00,2.10
6233.00,2.10
6232.00,2.10
6231.00,2.11
6230.00,2.11
6229.00,2.11
6228.00,2.12
6227.00,2.12
6226.00,2.12
6225.00,2.12
6224.00,2.13
6223.00,2.13
6222.00,2.13
6221.00,2.13
6220.00,2.14
6219.00,2.14
6218.00,2.14
6217.00,2.14
6216.00,2.14
6215.00,2.14
6214.00,2.15
6213.00,2.15
6212.00,2.15
6211.00,2.15
6210.00,2.15
6209.00,2.15
6208.00,2.15
6207.00,2.15
6206.00,2.15
6205.00,2.15
6204.00,2.15
6203.00,2.15
6202.00,2.15
6201.00,2.15
6200.00,2.15
6199.00,2.14
6198.00,2.14
6197.00,2.14
6196.00,2.14
6195.00,2.14
6194.00,2.14
6193.00,2.14
6192.00,2.14
6191.00,2.14
6190.00,2.14
6189.00,2.14
6188.00,2.13
6187.00,2.13
6186.00,2.13
6185.00,2.13
6184.00,2.13
6183.00,2.13
6182.00,2.13
6181.00,2.13
6180.00,2.13
6179.00,2.13
6178.00,2.13
6177.00,2.13
6176.00,2.14
6175.00,2.14
6174.00,2.14
6173.00,2.14
6172.00,2.14
6171.00,2.14
6170.00,2.14
6169.00,2.14
6168.00,2.14
6167.00,2.15
6166.00,2.15
6165.00,2.15
6164.00,2.15
6163.00,2.15
6162.00,2.15
6161.00,2.15
6160.00,2.15
6159.00,2.15
6158.00,2.15
6157.00,2.16
6156.00,2.16
6155.00,2.16
6154.00,2.16
6153.00,2.16
6152.00,2.16
6151.00,2.16
6150.00,2.16
6149.00,2.16
6148.00,2.17
6147.00,2.17
6146.00,2.17
6145.00,2.17
6144.00,2.17
6143.00,2.17
6142.00,2.17
6141.00,2.17
6140.00,2.17
6139.00,2.17
6138.00,2.17
6137.00,2.17
6136.00,2.17
6135.00,2.17
6134.00,2.17
6133.00,2.17
6132.00,2.17
6131.00,2.17
6130.00,2.17
6129.00,2.17
6128.00,2.17
6127.00,2.17
6126.00,2.17
6125.00,2.17
6124.00,2.17
6123.00,2.17
6122.00,2.17
6121.00,2.17
6120.00,2.16
6119.00,2.16
6118.00,2.16
6117.00,2.16
6116.00,2.16
6115.00,2.16
6114.00,2.16
6113.00,2.16
6112.00,2.16
6111.00,2.16
6110.00,2.16
6109.00,2.16
6108.00,2.16
6107.00,2.16
6106.00,2.16
6105.00,2.16
6104.00,2.16
6103.00,2.16
6102.00,2.16
6101.00,2.16
6100.00,2.16
6099.00,2.16
6098.00,2.16
6097.00,2.16
6096.00,2.16
6095.00,2.16
6094.00,2.16
6093.00,2.16
6092.00,2.16
6091.00,2.16
6090.00,2.16
6089.00,2.16
6088.00,2.16
6087.00,2.17
6086.00,2.17
6085.00,2.17
6084.00,2.17
6083.00,2.17
6082.00,2.17
6081.00,2.18
6080.00,2.18
6079.00,2.18
6078.00,2.18
6077.00,2.19
6076.00,2.19
6075.00,2.19
6074.00,2.19
6073.00,2.20
6072.00,2.20
6071.00,2.20
6070.00,2.20
6069.00,2.21
6068.00,2.21
6067.00,2.21
6066.00,2.21
6065.00,2.21
6064.00,2.21
6063.00,2.22
6062.00,2.22
6061.00,2.22
6060.00,2.22
6059.00,2.22
6058.00,2.22
6057.00,2.22
6056.00,2.21
6055.00,2.21
6054.00,2.21
6053.00,2.21
6052.00,2.21
6051.00,2.21
6050.00,2.21
6049.00,2.20
6048.00,2.20
6047.00,2.20
6046.00,2.20
6045.00,2.20
6044.00,2.19
6043.00,2.19
6042.00,2.19
6041.00,2.19
6040.00,2.19
6039.00,2.18
6038.00,2.18
6037.00,2.18
6036.00,2.18
6035.00,2.18
6034.00,2.18
6033.00,2.18
6032.00,2.18
6031.00,2.18
6030.00,2.18
6029.00,2.18
6028.00,2.18
6027.00,2.18
6026.00,2.18
6025.00,2.19
6024.00,2.19
6023.00,2.19
6022.00,2.19
6021.00,2.19
6020.00,2.20
6019.00,2.20
6018.00,2.20
6017.00,2.20
6016.00,2.21
6015.00,2.21
6014.00,2.21
6013.00,2.21
6012.00,2.22
6011.00,2.22
6010.00,2.22
6009.00,2.22
6008.00,2.23
6007.00,2.23
6006.00,2.23
6005.00,2.23
6004.00,2.23
6003.00,2.24
6002.00,2.24
6001.00,2.24
6000.00,2.24
5999.00,2.24
5998.00,2.24
5997.00,2.24
5996.00,2.24
5995.00,2.24
5994.00,2.24
5993.00,2.24
5992.00,2.24
5991.00,2.24
5990.00,2.24
5989.00,2.24
5988.00,2.24
5987.00,2.24
5986.00,2.24
5985.00,2.23
5984.00,2.23
5983.00,2.23
5982.00,2.23
5981.00,2.23
5980.00,2.23
5979.00,2.23
5978.00,2.22
5977.00,2.22
5976.00,2.22
5975.00,2.22
5974.00,2.22
5973.00,2.22
5972.00,2.22
5971.00,2.21
5970.00,2.21
5969.00,2.21
5968.00,2.21
5967.00,2.21
5966.00,2.21
5965.00,2.20
5964.00,2.20
5963.00,2.20
5962.00,2.20
5961.00,2.20
5960.00,2.20
5959.00,2.19
5958.00,2.19
5957.00,2.19
5956.00,2.19
5955.00,2.19
5954.00,2.18
5953.00,2.18
5952.00,2.18
5951.00,2.18
5950.00,2.17
5949.00,2.17
5948.00,2.17
5947.00,2.17
5946.00,2.17
5945.00,2.16
5944.00,2.16
5943.00,2.16
5942.00,2.16
5941.00,2.16
5940.00,2.16
5939.00,2.16
5938.00,2.16
5937.00,2.16
5936.00,2.16
5935.00,2.15
5934.00,2.15
5933.00,2.15
5932.00,2.15
5931.00,2.15
5930.00,2.15
5929.00,2.15
5928.00,2.15
5927.00,2.15
5926.00,2.15
5925.00,2.15
5924.00,2.15
5923.00,2.16
5922.00,2.16
5921.00,2.16
5920.00,2.16
5919.00,2.16
5918.00,2.16
5917.00,2.15
5916.00,2.15
5915.00,2.15
5914.00,2.15
5913.00,2.15
5912.00,2.15
5911.00,2.15
5910.00,2.15
5909.00,2.15
5908.00,2.15
5907.00,2.15
5906.00,2.15
5905.00,2.15
5904.00,2.15
5903.00,2.16
5902.00,2.16
5901.00,2.16
5900.00,2.16
5899.00,2.16
5898.00,2.16
5897.00,2.16
5896.00,2.16
5895.00,2.16
5894.00,2.16
5893.00,2.17
5892.00,2.17
5891.00,2.17
5890.00,2.17
5889.00,2.17
5888.00,2.18
5887.00,2.18
5886.00,2.18
5885.00,2.18
5884.00,2.19
5883.00,2.19
5882.00,2.19
5881.00,2.19
5880.00,2.19
5879.00,2.19
5878.00,2.19
5877.00,2.19
5876.00,2.20
5875.00,2.20
5874.00,2.20
5873.00,2.20
5872.00,2.20
5871.00,2.20
5870.00,2.20
5869.00,2.20
5868.00,2.20
5867.00,2.20
5866.00,2.20
5865.00,2.20
5864.00,2.20
5863.00,2.20
5862.00,2.20
5861.00,2.20
5860.00,2.20
5859.00,2.20
5858.00,2.20
5857.00,2.20
5856.00,2.20
5855.00,2.20
5854.00,2.20
5853.00,2.20
5852.00,2.20
5851.00,2.20
5850.00,2.20
5849.00,2.20
5848.00,2.20
5847.00,2.20
5846.00,2.20
5845.00,2.20
5844.00,2.20
5843.00,2.20
5842.00,2.20
5841.00,2.20
5840.00,2.20
5839.00,2.20
5838.00,2.20
5837.00,2.20
5836.00,2.20
5835.00,2.20
5834.00,2.20
5833.00,2.20
5832.00,2.20
5831.00,2.20
5830.00,2.20
5829.00,2.20
5828.00,2.20
5827.00,2.21
5826.00,2.21
5825.00,2.21
5824.00,2.21
5823.00,2.21
5822.00,2.21
5821.00,2.21
5820.00,2.21
5819.00,2.21
5818.00,2.22
5817.00,2.22
5816.00,2.22
5815.00,2.22
5814.00,2.22
5813.00,2.22
5812.00,2.22
5811.00,2.22
5810.00,2.22
5809.00,2.22
5808.00,2.22
5807.00,2.22
5806.00,2.22
5805.00,2.22
5804.00,2.22
5803.00,2.22
5802.00,2.22
5801.00,2.22
5800.00,2.22
5799.00,2.22
5798.00,2.22
5797.00,2.21
5796.00,2.21
5795.00,2.21
5794.00,2.21
5793.00,2.21
5792.00,2.21
5791.00,2.21
5790.00,2.21
5789.00,2.21
5788.00,2.21
5787.00,2.21
5786.00,2.21
5785.00,2.21
5784.00,2.21
5783.00,2.21
5782.00,2.20
5781.00,2.20
5780.00,2.20
5779.00,2.20
5778.00,2.20
5777.00,2.20
5776.00,2.20
5775.00,2.20
5774.00,2.20
5773.00,2.20
5772.00,2.20
5771.00,2.19
5770.00,2.19
5769.00,2.19
5768.00,2.19
5767.00,2.19
5766.00,2.19
5765.00,2.18
5764.00,2.18
5763.00,2.18
5762.00,2.18
5761.00,2.18
5760.00,2.18
5759.00,2.18
5758.00,2.17
5757.00,2.17
5756.00,2.17
5755.00,2.17
5754.00,2.17
5753.00,2.17
5752.00,2.17
5751.00,2.17
5750.00,2.17
5749.00,2.17
5748.00,2.18
5747.00,2.18
5746.00,2.18
5745.00,2.18
5744.00,2.18
5743.00,2.18
5742.00,2.18
5741.00,2.18
5740.00,2.18
5739.00,2.19
5738.00,2.19
5737.00,2.19
5736.00,2.19
5735.00,2.19
5734.00,2.19
5733.00,2.19
5732.00,2.19
5731.00,2.19
5730.00,2.19
5729.00,2.19
5728.00,2.19
5727.00,2.19
5726.00,2.19
5725.00,2.19
5724.00,2.19
5723.00,2.19
5722.00,2.18
5721.00,2.18
5720.00,2.18
5719.00,2.18
5718.00,2.18
5717.00,2.18
5716.00,2.18
5715.00,2.18
5714.00,2.18
5713.00,2.18
5712.00,2.18
5711.00,2.17
5710.00,2.17
5709.00,2.17
5708.00,2.17
5707.00,2.17
5706.00,2.17
5705.00,2.17
5704.00,2.17
5703.00,2.17
5702.00,2.17
5701.00,2.17
5700.00,2.17
5699.00,2.17
5698.00,2.17
5697.00,2.17
5696.00,2.17
5695.00,2.17
5694.00,2.17
5693.00,2.17
5692.00,2.17
5691.00,2.17
5690.00,2.17
5689.00,2.17
5688.00,2.17
5687.00,2.17
5686.00,2.17
5685.00,2.17
5684.00,2.17
5683.00,2.18
5682.00,2.18
5681.00,2.18
5680.00,2.18
5679.00,2.18
5678.00,2.18
5677.00,2.18
5676.00,2.18
5675.00,2.18
5674.00,2.18
5673.00,2.18
5672.00,2.18
5671.00,2.17
5670.00,2.17
5669.00,2.17
5668.00,2.17
5667.00,2.17
5666.00,2.17
5665.00,2.17
5664.00,2.17
5663.00,2.17
5662.00,2.17
5661.00,2.17
5660.00,2.17
5659.00,2.16
5658.00,2.16
5657.00,2.16
5656.00,2.16
5655.00,2.16
5654.00,2.16
5653.00,2.16
5652.00,2.16
5651.00,2.16
5650.00,2.16
5649.00,2.16
5648.00,2.16
5647.00,2.16
5646.00,2.16
5645.00,2.16
5644.00,2.16
5643.00,2.16
5642.00,2.16
5641.00,2.16
5640.00,2.16
5639.00,2.16
5638.00,2.16
5637.00,2.16
5636.00,2.16
5635.00,2.16
5634.00,2.16
5633.00,2.16
5632.00,2.16
5631.00,2.16
5630.00,2.16
5629.00,2.16
5628.00,2.16
5627.00,2.16
5626.00,2.16
5625.00,2.16
5624.00,2.16
5623.00,2.16
5622.00,2.16
5621.00,2.16
5620.00,2.16
5619.00,2.16
5618.00,2.16
5617.00,2.16
5616.00,2.16
5615.00,2.16
5614.00,2.16
5613.00,2.16
5612.00,2.16
5611.00,2.16
5610.00,2.16
5609.00,2.16
5608.00,2.16
5607.00,2.16
5606.00,2.16
5605.00,2.16
5604.00,2.16
5603.00,2.16
5602.00,2.16
5601.00,2.17
5600.00,2.17
5599.00,2.17
5598.00,2.17
5597.00,2.17
5596.00,2.17
5595.00,2.17
5594.00,2.18
5593.00,2.18
5592.00,2.18
5591.00,2.18
5590.00,2.18
5589.00,2.18
5588.00,2.18
5587.00,2.18
5586.00,2.19
5585.00,2.19
5584.00,2.19
5583.00,2.19
5582.00,2.19
5581.00,2.19
5580.00,2.19
5579.00,2.19
5578.00,2.19
5577.00,2.19
5576.00,2.19
5575.00,2.19
5574.00,2.19
5573.00,2.19
5572.00,2.19
5571.00,2.19
5570.00,2.18
5569.00,2.18
5568.00,2.18
5567.00,2.18
5566.00,2.18
5565.00,2.18
5564.00,2.18
5563.00,2.18
5562.00,2.18
5561.00,2.18
5560.00,2.18
5559.00,2.18
5558.00,2.18
5557.00,2.18
5556.00,2.18
5555.00,2.18
5554.00,2.18
5553.00,2.18
5552.00,2.18
5551.00,2.18
5550.00,2.18
5549.00,2.19
5548.00,2.19
5547.00,2.19
5546.00,2.19
5545.00,2.19
5544.00,2.19
5543.00,2.20
5542.00,2.20
5541.00,2.20
5540.00,2.20
5539.00,2.20
5538.00,2.21
5537.00,2.21
5536.00,2.21
5535.00,2.21
5534.00,2.22
5533.00,2.22
5532.00,2.22
5531.00,2.22
5530.00,2.22
5529.00,2.22
5528.00,2.23
5527.00,2.23
5526.00,2.23
5525.00,2.23
5524.00,2.23
5523.00,2.23
5522.00,2.23
5521.00,2.23
5520.00,2.24
5519.00,2.24
5518.00,2.24
5517.00,2.24
5516.00,2.24
5515.00,2.24
5514.00,2.24
5513.00,2.23
5512.00,2.23
5511.00,2.23
5510.00,2.23
5509.00,2.23
5508.00,2.23
5507.00,2.23
5506.00,2.23
5505.00,2.23
5504.00,2.23
5503.00,2.22
5502.00,2.22
5501.00,2.22
5500.00,2.22
5499.00,2.22
5498.00,2.22
5497.00,2.22
5496.00,2.22
5495.00,2.22
5494.00,2.21
5493.00,2.21
5492.00,2.21
5491.00,2.21
5490.00,2.21
5489.00,2.21
5488.00,2.21
5487.00,2.21
5486.00,2.21
5485.00,2.22
5484.00,2.22
5483.00,2.22
5482.00,2.22
5481.00,2.22
5480.00,2.22
5479.00,2.22
5478.00,2.22
5477.00,2.22
5476.00,2.23
5475.00,2.23
5474.00,2.23
5473.00,2.23
5472.00,2.23
5471.00,2.23
5470.00,2.23
5469.00,2.23
5468.00,2.23
5467.00,2.23
5466.00,2.24
5465.00,2.24
5464.00,2.24
5463.00,2.24
5462.00,2.24
5461.00,2.24
5460.00,2.24
5459.00,2.24
5458.00,2.24
5457.00,2.24
5456.00,2.24
5455.00,2.24
5454.00,2.23
5453.00,2.23
5452.00,2.23
5451.00,2.23
5450.00,2.23
5449.00,2.23
5448.00,2.23
5447.00,2.23
5446.00,2.23
5445.00,2.23
5444.00,2.23
5443.00,2.23
5442.00,2.23
5441.00,2.23
5440.00,2.23
5439.00,2.23
5438.00,2.23
5437.00,2.23
5436.00,2.23
5435.00,2.23
5434.00,2.23
5433.00,2.23
5432.00,2.23
5431.00,2.23
5430.00,2.23
5429.00,2.23
5428.00,2.23
5427.00,2.23
5426.00,2.23
5425.00,2.24
5424.00,2.24
5423.00,2.24
5422.00,2.24
5421.00,2.24
5420.00,2.24
5419.00,2.24
5418.00,2.24
5417.00,2.24
5416.00,2.24
5415.00,2.24
5414.00,2.24
5413.00,2.24
5412.00,2.24
5411.00,2.24
5410.00,2.24
5409.00,2.24
5408.00,2.24
5407.00,2.24
5406.00,2.23
5405.00,2.23
5404.00,2.23
5403.00,2.23
5402.00,2.23
5401.00,2.23
5400.00,2.23
5399.00,2.23
5398.00,2.22
5397.00,2.22
5396.00,2.22
5395.00,2.22
5394.00,2.22
5393.00,2.22
5392.00,2.21
5391.00,2.21
5390.00,2.21
5389.00,2.21
5388.00,2.21
5387.00,2.20
5386.00,2.20
5385.00,2.20
5384.00,2.20
5383.00,2.20
5382.00,2.20
5381.00,2.19
5380.00,2.19
5379.00,2.19
5378.00,2.19
5377.00,2.19
5376.00,2.18
5375.00,2.18
5374.00,2.18
5373.00,2.17
5372.00,2.17
5371.00,2.17
5370.00,2.17
5369.00,2.16
5368.00,2.16
5367.00,2.16
5366.00,2.15
5365.00,2.15
5364.00,2.14
5363.00,2.14
5362.00,2.14
5361.00,2.13
5360.00,2.12
5359.00,2.12
5358.00,2.11
5357.00,2.11
5356.00,2.10
5355.00,2.09
5354.00,2.09
5353.00,2.08
5352.00,2.07
5351.00,2.06
5350.00,2.06
5349.00,2.05
5348.00,2.04
5347.00,2.03
5346.00,2.03
5345.00,2.02
5344.00,2.01
5343.00,2.00
5342.00,1.99
5341.00,1.98
5340.00,1.97
5339.00,1.97
5338.00,1.96
5337.00,1.95
5336.00,1.94
5335.00,1.93
5334.00,1.92
5333.00,1.92
5332.00,1.91
5331.00,1.90
5330.00,1.89
5329.00,1.88
5328.00,1.87
5327.00,1.87
5326.00,1.86
5325.00,1.85
5324.00,1.84
5323.00,1.83
5322.00,1.82
5321.00,1.81
5320.00,1.80
5319.00,1.79
5318.00,1.79
5317.00,1.78
5316.00,1.77
5315.00,1.76
5314.00,1.75
5313.00,1.74
5312.00,1.73
5311.00,1.72
5310.00,1.71
5309.00,1.70
5308.00,1.69
5307.00,1.68
5306.00,1.67
5305.00,1.66
5304.00,1.65
5303.00,1.64
5302.00,1.63
5301.00,1.62
5300.00,1.60
5299.00,1.59
5298.00,1.58
5297.00,1.57
5296.00,1.56
5295.00,1.55
5294.00,1.54
5293.00,1.53
5292.00,1.52
5291.00,1.51
5290.00,1.50
5289.00,1.48
5288.00,1.47
5287.00,1.46
5286.00,1.45
5285.00,1.44
5284.00,1.43
5283.00,1.42
5282.00,1.41
5281.00,1.40
5280.00,1.40
5279.00,1.39
5278.00,1.38
5277.00,1.37
5276.00,1.36
5275.00,1.35
5274.00,1.35
5273.00,1.34
5272.00,1.33
5271.00,1.32
5270.00,1.32
5269.00,1.31
5268.00,1.31
5267.00,1.30
5266.00,1.29
5265.00,1.29
5264.00,1.28
5263.00,1.28
5262.00,1.27
5261.00,1.27
5260.00,1.26
5259.00,1.26
5258.00,1.26
5257.00,1.25
5256.00,1.25
5255.00,1.24
5254.00,1.24
5253.00,1.24
5252.00,1.23
5251.00,1.23
5250.00,1.22
5249.00,1.22
5248.00,1.22
5247.00,1.21
5246.00,1.21
5245.00,1.21
5244.00,1.20
5243.00,1.20
5242.00,1.19
5241.00,1.19
5240.00,1.19
5239.00,1.18
5238.00,1.18
5237.00,1.18
5236.00,1.17
5235.00,1.17
5234.00,1.17
5233.00,1.16
5232.00,1.16
5231.00,1.16
5230.00,1.15
5229.00,1.15
5228.00,1.15
5227.00,1.15
5226.00,1.14
5225.00,1.14
5224.00,1.14
5223.00,1.13
5222.00,1.13
5221.00,1.13
5220.00,1.13
5219.00,1.12
5218.00,1.12
5217.00,1.12
5216.00,1.12
5215.00,1.11
5214.00,1.11
5213.00,1.11
5212.00,1.11
5211.00,1.10
5210.00,1.10
5209.00,1.10
5208.00,1.10
5207.00,1.09
5206.00,1.09
5205.00,1.09
5204.00,1.09
5203.00,1.09
5202.00,1.08
5201.00,1.08
5200.00,1.08
5199.00,1.08
5198.00,1.08
5197.00,1.07
5196.00,1.07
5195.00,1.07
5194.00,1.07
5193.00,1.07
5192.00,1.07
5191.00,1.07
5190.00,1.07
5189.00,1.07
5188.00,1.07
5187.00,1.07
5186.00,1.07
5185.00,1.07
5184.00,1.07
5183.00,1.07
5182.00,1.07
5181.00,1.07
5180.00,1.07
5179.00,1.07
5178.00,1.07
5177.00,1.07
5176.00,1.07
5175.00,1.07
5174.00,1.07
5173.00,1.07
5172.00,1.07
5171.00,1.07
5170.00,1.07
5169.00,1.07
5168.00,1.07
5167.00,1.07
5166.00,1.07
5165.00,1.07
5164.00,1.07
5163.00,1.07
5162.00,1.07
5161.00,1.07
5160.00,1.07
5159.00,1.07
5158.00,1.07
5157.00,1.06
5156.00,1.06
5155.00,1.06
5154.00,1.06
5153.00,1.06
5152.00,1.06
5151.00,1.06
5150.00,1.06
5149.00,1.06
5148.00,1.06
5147.00,1.06
5146.00,1.06
5145.00,1.06
5144.00,1.06
5143.00,1.06
5142.00,1.06
5141.00,1.06
5140.00,1.06
5139.00,1.07
5138.00,1.07
5137.00,1.07
5136.00,1.07
5135.00,1.07
5134.00,1.08
5133.00,1.08
5132.00,1.08
5131.00,1.08
5130.00,1.09
5129.00,1.09
5128.00,1.09
5127.00,1.09
5126.00,1.10
5125.00,1.10
5124.00,1.10
5123.00,1.10
5122.00,1.11
5121.00,1.11
5120.00,1.11
5119.00,1.11
5118.00,1.12
5117.00,1.12
5116.00,1.12
5115.00,1.12
5114.00,1.13
5113.00,1.13
5112.00,1.13
5111.00,1.13
5110.00,1.13
5109.00,1.14
5108.00,1.14
5107.00,1.14
5106.00,1.14
5105.00,1.15
5104.00,1.15
5103.00,1.15
5102.00,1.15
5101.00,1.16
5100.00,1.16
5099.00,1.16
5098.00,1.16
5097.00,1.17
5096.00,1.17
5095.00,1.17
5094.00,1.18
5093.00,1.18
5092.00,1.18
5091.00,1.18
5090.00,1.19
5089.00,1.19
5088.00,1.19
5087.00,1.19
5086.00,1.20
5085.00,1.20
5084.00,1.20
5083.00,1.20
5082.00,1.21
5081.00,1.21
5080.00,1.21
5079.00,1.21
5078.00,1.21
5077.00,1.22
5076.00,1.22
5075.00,1.22
5074.00,1.22
5073.00,1.22
5072.00,1.22
5071.00,1.23
5070.00,1.23
5069.00,1.23
5068.00,1.23
5067.00,1.23
5066.00,1.24
5065.00,1.24
5064.00,1.24
5063.00,1.24
5062.00,1.24
5061.00,1.25
5060.00,1.25
5059.00,1.25
5058.00,1.25
5057.00,1.25
5056.00,1.26
5055.00,1.26
5054.00,1.26
5053.00,1.26
5052.00,1.27
5051.00,1.27
5050.00,1.27
5049.00,1.27
5048.00,1.28
5047.00,1.28
5046.00,1.28
5045.00,1.28
5044.00,1.28
5043.00,1.29
5042.00,1.29
5041.00,1.29
5040.00,1.29
5039.00,1.30
5038.00,1.30
5037.00,1.30
5036.00,1.31
5035.00,1.31
5034.00,1.31
5033.00,1.31
5032.00,1.32
5031.00,1.32
5030.00,1.32
5029.00,1.33
5028.00,1.33
5027.00,1.33
5026.00,1.33
5025.00,1.34
5024.00,1.34
5023.00,1.34
5022.00,1.35
5021.00,1.35
5020.00,1.35
5019.00,1.36
5018.00,1.36
5017.00,1.36
5016.00,1.37
5015.00,1.37
5014.00,1.38
5013.00,1.38
5012.00,1.38
5011.00,1.39
5010.00,1.39
5009.00,1.40
5008.00,1.40
5007.00,1.40
5006.00,1.41
5005.00,1.41
5004.00,1.42
5003.00,1.42
5002.00,1.42
5001.00,1.43
5000.00,1.43
4999.00,1.44
4998.00,1.44
4997.00,1.44
4996.00,1.45
4995.00,1.45
4994.00,1.46
4993.00,1.46
4992.00,1.46
4991.00,1.47
4990.00,1.47
4989.00,1.47
4988.00,1.48
4987.00,1.48
4986.00,1.48
4985.00,1.48
4984.00,1.49
4983.00,1.49
4982.00,1.49
4981.00,1.49
4980.00,1.50
4979.00,1.50
4978.00,1.50
4977.00,1.50
4976.00,1.50
4975.00,1.51
4974.00,1.51
4973.00,1.51
4972.00,1.51
4971.00,1.52
4970.00,1.52
4969.00,1.52
4968.00,1.52
4967.00,1.53
4966.00,1.53
4965.00,1.53
4964.00,1.53
4963.00,1.54
4962.00,1.54
4961.00,1.54
4960.00,1.54
4959.00,1.55
4958.00,1.55
4957.00,1.55
4956.00,1.55
4955.00,1.56
4954.00,1.56
4953.00,1.56
4952.00,1.56
4951.00,1.57
4950.00,1.57
4949.00,1.57
4948.00,1.57
4947.00,1.57
4946.00,1.58
4945.00,1.58
4944.00,1.58
4943.00,1.58
4942.00,1.58
4941.00,1.58
4940.00,1.59
4939.00,1.59
4938.00,1.59
4937.00,1.59
4936.00,1.59
4935.00,1.59
4934.00,1.60
4933.00,1.60
4932.00,1.60
4931.00,1.60
4930.00,1.60
4929.00,1.60
4928.00,1.60
4927.00,1.60
4926.00,1.61
4925.00,1.61
4924.00,1.61
4923.00,1.61
4922.00,1.61
4921.00,1.62
4920.00,1.62
4919.00,1.62
4918.00,1.62
4917.00,1.63
4916.00,1.63
4915.00,1.63
4914.00,1.63
4913.00,1.63
4912.00,1.64
4911.00,1.64
4910.00,1.64
4909.00,1.64
4908.00,1.65
4907.00,1.65
4906.00,1.65
4905.00,1.65
4904.00,1.66
4903.00,1.66
4902.00,1.66
4901.00,1.67
4900.00,1.67
4899.00,1.67
4898.00,1.67
4897.00,1.68
4896.00,1.68
4895.00,1.68
4894.00,1.68
4893.00,1.69
4892.00,1.69
4891.00,1.69
4890.00,1.69
4889.00,1.69
4888.00,1.70
4887.00,1.70
4886.00,1.70
4885.00,1.70
4884.00,1.71
4883.00,1.71
4882.00,1.71
4881.00,1.71
4880.00,1.71
4879.00,1.72
4878.00,1.72
4877.00,1.72
4876.00,1.72
4875.00,1.72
4874.00,1.73
4873.00,1.73
4872.00,1.73
4871.00,1.73
4870.00,1.74
4869.00,1.74
4868.00,1.74
4867.00,1.74
4866.00,1.75
4865.00,1.75
4864.00,1.75
4863.00,1.75
4862.00,1.76
4861.00,1.76
4860.00,1.76
4859.00,1.76
4858.00,1.77
4857.00,1.77
4856.00,1.77
4855.00,1.77
4854.00,1.78
4853.00,1.78
4852.00,1.78
4851.00,1.79
4850.00,1.79
4849.00,1.79
4848.00,1.79
4847.00,1.80
4846.00,1.80
4845.00,1.80
4844.00,1.80
4843.00,1.80
4842.00,1.81
4841.00,1.81
4840.00,1.81
4839.00,1.81
4838.00,1.81
4837.00,1.82
4836.00,1.82
4835.00,1.82
4834.00,1.82
4833.00,1.82
4832.00,1.82
4831.00,1.83
4830.00,1.83
4829.00,1.83
4828.00,1.83
4827.00,1.83
4826.00,1.84
4825.00,1.84
4824.00,1.84
4823.00,1.84
4822.00,1.85
4821.00,1.85
4820.00,1.85
4819.00,1.85
4818.00,1.86
4817.00,1.86
4816.00,1.86
4815.00,1.87
4814.00,1.87
4813.00,1.87
4812.00,1.88
4811.00,1.88
4810.00,1.89
4809.00,1.89
4808.00,1.89
4807.00,1.90
4806.00,1.90
4805.00,1.90
4804.00,1.91
4803.00,1.91
4802.00,1.91
4801.00,1.91
4800.00,1.92
4799.00,1.92
4798.00,1.92
4797.00,1.92
4796.00,1.92
4795.00,1.92
4794.00,1.93
4793.00,1.93
4792.00,1.93
4791.00,1.93
4790.00,1.93
4789.00,1.93
4788.00,1.94
4787.00,1.94
4786.00,1.94
4785.00,1.94
4784.00,1.94
4783.00,1.94
4782.00,1.95
4781.00,1.95
4780.00,1.95
4779.00,1.95
4778.00,1.96
4777.00,1.96
4776.00,1.96
4775.00,1.96
4774.00,1.97
4773.00,1.97
4772.00,1.97
4771.00,1.98
4770.00,1.98
4769.00,1.99
4768.00,1.99
4767.00,1.99
4766.00,2.00
4765.00,2.00
4764.00,2.00
4763.00,2.01
4762.00,2.01
4761.00,2.01
4760.00,2.01
4759.00,2.01
4758.00,2.01
4757.00,2.02
4756.00,2.02
4755.00,2.02
4754.00,2.02
4753.00,2.02
4752.00,2.02
4751.00,2.02
4750.00,2.02
4749.00,2.02
4748.00,2.02
4747.00,2.03
4746.00,2.03
4745.00,2.03
4744.00,2.03
4743.00,2.03
4742.00,2.03
4741.00,2.03
4740.00,2.03
4739.00,2.03
4738.00,2.03
4737.00,2.03
4736.00,2.03
4735.00,2.04
4734.00,2.04
4733.00,2.04
4732.00,2.04
4731.00,2.05
4730.00,2.05
4729.00,2.05
4728.00,2.06
4727.00,2.06
4726.00,2.06
4725.00,2.07
4724.00,2.07
4723.00,2.08
4722.00,2.08
4721.00,2.08
4720.00,2.09
4719.00,2.09
4718.00,2.09
4717.00,2.10
4716.00,2.10
4715.00,2.11
4714.00,2.11
4713.00,2.12
4712.00,2.12
4711.00,2.13
4710.00,2.13
4709.00,2.14
4708.00,2.14
4707.00,2.15
4706.00,2.15
4705.00,2.16
4704.00,2.16
4703.00,2.16
4702.00,2.16
4701.00,2.17
4700.00,2.17
4699.00,2.17
4698.00,2.18
4697.00,2.18
4696.00,2.18
4695.00,2.18
4694.00,2.18
4693.00,2.19
4692.00,2.19
4691.00,2.19
4690.00,2.19
4689.00,2.19
4688.00,2.19
4687.00,2.19
4686.00,2.19
4685.00,2.20
4684.00,2.20
4683.00,2.20
4682.00,2.19
4681.00,2.19
4680.00,2.19
4679.00,2.19
4678.00,2.19
4677.00,2.19
4676.00,2.19
4675.00,2.19
4674.00,2.19
4673.00,2.19
4672.00,2.19
4671.00,2.19
4670.00,2.19
4669.00,2.19
4668.00,2.19
4667.00,2.19
4666.00,2.19
4665.00,2.18
4664.00,2.18
4663.00,2.18
4662.00,2.19
4661.00,2.19
4660.00,2.19
4659.00,2.19
4658.00,2.19
4657.00,2.19
4656.00,2.19
4655.00,2.19
4654.00,2.20
4653.00,2.20
4652.00,2.20
4651.00,2.20
4650.00,2.20
4649.00,2.20
4648.00,2.21
4647.00,2.21
4646.00,2.21
4645.00,2.21
4644.00,2.21
4643.00,2.21
4642.00,2.22
4641.00,2.22
4640.00,2.22
4639.00,2.22
4638.00,2.22
4637.00,2.22
4636.00,2.22
4635.00,2.22
4634.00,2.22
4633.00,2.22
4632.00,2.21
4631.00,2.21
4630.00,2.21
4629.00,2.21
4628.00,2.21
4627.00,2.21
4626.00,2.21
4625.00,2.21
4624.00,2.21
4623.00,2.21
4622.00,2.20
4621.00,2.20
4620.00,2.20
4619.00,2.20
4618.00,2.20
4617.00,2.20
4616.00,2.20
4615.00,2.20
4614.00,2.20
4613.00,2.20
4612.00,2.20
4611.00,2.20
4610.00,2.20
4609.00,2.20
4608.00,2.20
4607.00,2.20
4606.00,2.20
4605.00,2.20
4604.00,2.20
4603.00,2.20
4602.00,2.20
4601.00,2.20
4600.00,2.21
4599.00,2.21
4598.00,2.21
4597.00,2.21
4596.00,2.21
4595.00,2.21
4594.00,2.21
4593.00,2.21
4592.00,2.21
4591.00,2.21
4590.00,2.21
4589.00,2.21
4588.00,2.21
4587.00,2.21
4586.00,2.21
4585.00,2.21
4584.00,2.21
4583.00,2.21
4582.00,2.21
4581.00,2.21
4580.00,2.21
4579.00,2.21
4578.00,2.20
4577.00,2.20
4576.00,2.20
4575.00,2.20
4574.00,2.20
4573.00,2.20
4572.00,2.20
4571.00,2.20
4570.00,2.20
4569.00,2.19
4568.00,2.19
4567.00,2.19
4566.00,2.19
4565.00,2.19
4564.00,2.19
4563.00,2.18
4562.00,2.18
4561.00,2.18
4560.00,2.18
4559.00,2.18
4558.00,2.18
4557.00,2.18
4556.00,2.18
4555.00,2.18
4554.00,2.18
4553.00,2.18
4552.00,2.18
4551.00,2.18
4550.00,2.18
4549.00,2.18
4548.00,2.18
4547.00,2.18
4546.00,2.18
4545.00,2.19
4544.00,2.19
4543.00,2.19
4542.00,2.19
4541.00,2.19
4540.00,2.19
4539.00,2.19
4538.00,2.20
4537.00,2.20
4536.00,2.20
4535.00,2.20
4534.00,2.21
4533.00,2.21
4532.00,2.21
4531.00,2.21
4530.00,2.22
4529.00,2.22
4528.00,2.22
4527.00,2.22
4526.00,2.22
4525.00,2.23
4524.00,2.23
4523.00,2.23
4522.00,2.23
4521.00,2.23
4520.00,2.23
4519.00,2.24
4518.00,2.24
4517.00,2.24
4516.00,2.24
4515.00,2.24
4514.00,2.24
4513.00,2.25
4512.00,2.25
4511.00,2.25
4510.00,2.25
4509.00,2.25
4508.00,2.25
4507.00,2.25
4506.00,2.25
4505.00,2.25
4504.00,2.25
4503.00,2.24
4502.00,2.24
4501.00,2.24
4500.00,2.24
4499.00,2.24
4498.00,2.24
4497.00,2.24
4496.00,2.24
4495.00,2.23
4494.00,2.23
4493.00,2.23
4492.00,2.23
4491.00,2.23
4490.00,2.23
4489.00,2.23
4488.00,2.22
4487.00,2.22
4486.00,2.22
4485.00,2.22
4484.00,2.22
4483.00,2.21
4482.00,2.21
4481.00,2.21
4480.00,2.21
4479.00,2.21
4478.00,2.21
4477.00,2.21
4476.00,2.21
4475.00,2.21
4474.00,2.20
4473.00,2.20
4472.00,2.20
4471.00,2.20
4470.00,2.20
4469.00,2.20
4468.00,2.20
4467.00,2.20
4466.00,2.20
4465.00,2.20
4464.00,2.19
4463.00,2.19
4462.00,2.19
4461.00,2.19
4460.00,2.19
4459.00,2.19
4458.00,2.19
4457.00,2.18
4456.00,2.18
4455.00,2.18
4454.00,2.18
4453.00,2.18
4452.00,2.17
4451.00,2.17
4450.00,2.17
4449.00,2.16
4448.00,2.16
4447.00,2.15
4446.00,2.15
4445.00,2.15
4444.00,2.14
4443.00,2.14
4442.00,2.13
4441.00,2.12
4440.00,2.12
4439.00,2.11
4438.00,2.11
4437.00,2.10
4436.00,2.09
4435.00,2.08
4434.00,2.08
4433.00,2.07
4432.00,2.06
4431.00,2.05
4430.00,2.05
4429.00,2.04
4428.00,2.03
4427.00,2.03
4426.00,2.02
4425.00,2.01
4424.00,2.01
4423.00,2.00
4422.00,1.99
4421.00,1.99
4420.00,1.98
4419.00,1.98
4418.00,1.97
4417.00,1.97
4416.00,1.97
4415.00,1.96
4414.00,1.96
4413.00,1.96
4412.00,1.96
4411.00,1.96
4410.00,1.96
4409.00,1.97
4408.00,1.97
4407.00,1.97
4406.00,1.97
4405.00,1.98
4404.00,1.98
4403.00,1.99
4402.00,1.99
4401.00,2.00
4400.00,2.01
4399.00,2.01
4398.00,2.02
4397.00,2.03
4396.00,2.03
4395.00,2.04
4394.00,2.05
4393.00,2.05
4392.00,2.06
4391.00,2.07
4390.00,2.07
4389.00,2.08
4388.00,2.08
4387.00,2.09
4386.00,2.09
4385.00,2.09
4384.00,2.10
4383.00,2.10
4382.00,2.10
4381.00,2.10
4380.00,2.10
4379.00,2.10
4378.00,2.10
4377.00,2.10
4376.00,2.10
4375.00,2.10
4374.00,2.10
4373.00,2.10
4372.00,2.09
4371.00,2.09
4370.00,2.09
4369.00,2.08
4368.00,2.08
4367.00,2.08
4366.00,2.07
4365.00,2.07
4364.00,2.07
4363.00,2.06
4362.00,2.06
4361.00,2.06
4360.00,2.05
4359.00,2.05
4358.00,2.04
4357.00,2.04
4356.00,2.04
4355.00,2.04
4354.00,2.03
4353.00,2.03
4352.00,2.03
4351.00,2.03
4350.00,2.03
4349.00,2.02
4348.00,2.02
4347.00,2.03
4346.00,2.03
4345.00,2.03
4344.00,2.03
4343.00,2.03
4342.00,2.03
4341.00,2.04
4340.00,2.04
4339.00,2.04
4338.00,2.05
4337.00,2.05
4336.00,2.06
4335.00,2.06
4334.00,2.07
4333.00,2.07
4332.00,2.08
4331.00,2.08
4330.00,2.09
4329.00,2.10
4328.00,2.10
4327.00,2.11
4326.00,2.11
4325.00,2.12
4324.00,2.12
4323.00,2.13
4322.00,2.14
4321.00,2.14
4320.00,2.14
4319.00,2.15
4318.00,2.15
4317.00,2.16
4316.00,2.16
4315.00,2.17
4314.00,2.17
4313.00,2.17
4312.00,2.18
4311.00,2.18
4310.00,2.19
4309.00,2.19
4308.00,2.19
4307.00,2.19
4306.00,2.20
4305.00,2.20
4304.00,2.20
4303.00,2.21
4302.00,2.21
4301.00,2.21
4300.00,2.21
4299.00,2.22
4298.00,2.22
4297.00,2.22
4296.00,2.22
4295.00,2.23
4294.00,2.23
4293.00,2.23
4292.00,2.23
4291.00,2.23
4290.00,2.23
4289.00,2.23
4288.00,2.23
4287.00,2.23
4286.00,2.23
4285.00,2.22
4284.00,2.22
4283.00,2.22
4282.00,2.22
4281.00,2.21
4280.00,2.21
4279.00,2.21
4278.00,2.21
4277.00,2.20
4276.00,2.20
4275.00,2.20
4274.00,2.19
4273.00,2.19
4272.00,2.18
4271.00,2.18
4270.00,2.18
4269.00,2.17
4268.00,2.17
4267.00,2.17
4266.00,2.16
4265.00,2.16
4264.00,2.16
4263.00,2.16
4262.00,2.15
4261.00,2.15
4260.00,2.15
4259.00,2.15
4258.00,2.15
4257.00,2.15
4256.00,2.15
4255.00,2.16
4254.00,2.16
4253.00,2.16
4252.00,2.16
4251.00,2.16
4250.00,2.16
4249.00,2.16
4248.00,2.16
4247.00,2.17
4246.00,2.17
4245.00,2.17
4244.00,2.17
4243.00,2.18
4242.00,2.18
4241.00,2.18
4240.00,2.19
4239.00,2.19
4238.00,2.19
4237.00,2.19
4236.00,2.19
4235.00,2.20
4234.00,2.20
4233.00,2.20
4232.00,2.20
4231.00,2.20
4230.00,2.20
4229.00,2.20
4228.00,2.20
4227.00,2.20
4226.00,2.21
4225.00,2.21
4224.00,2.21
4223.00,2.21
4222.00,2.21
4221.00,2.21
4220.00,2.21
4219.00,2.21
4218.00,2.21
4217.00,2.20
4216.00,2.20
4215.00,2.20
4214.00,2.20
4213.00,2.20
4212.00,2.20
4211.00,2.20
4210.00,2.20
4209.00,2.20
4208.00,2.20
4207.00,2.20
4206.00,2.20
4205.00,2.20
4204.00,2.20
4203.00,2.20
4202.00,2.21
4201.00,2.21
4200.00,2.21
4199.00,2.21
4198.00,2.21
4197.00,2.21
4196.00,2.21
4195.00,2.21
4194.00,2.21
4193.00,2.22
4192.00,2.22
4191.00,2.22
4190.00,2.22
4189.00,2.22
4188.00,2.23
4187.00,2.23
4186.00,2.23
4185.00,2.23
4184.00,2.23
4183.00,2.23
4182.00,2.24
4181.00,2.24
4180.00,2.24
4179.00,2.24
4178.00,2.24
4177.00,2.24
4176.00,2.24
4175.00,2.24
4174.00,2.24
4173.00,2.24
4172.00,2.24
4171.00,2.24
4170.00,2.24
4169.00,2.24
4168.00,2.24
4167.00,2.24
4166.00,2.24
4165.00,2.24
4164.00,2.24
4163.00,2.23
4162.00,2.23
4161.00,2.23
4160.00,2.23
4159.00,2.23
4158.00,2.23
4157.00,2.23
4156.00,2.23
4155.00,2.23
4154.00,2.23
4153.00,2.23
4152.00,2.23
4151.00,2.23
4150.00,2.22
4149.00,2.22
4148.00,2.22
4147.00,2.22
4146.00,2.22
4145.00,2.22
4144.00,2.22
4143.00,2.22
4142.00,2.22
4141.00,2.22
4140.00,2.22
4139.00,2.22
4138.00,2.22
4137.00,2.22
4136.00,2.22
4135.00,2.22
4134.00,2.22
4133.00,2.22
4132.00,2.22
4131.00,2.21
4130.00,2.21
4129.00,2.21
4128.00,2.21
4127.00,2.21
4126.00,2.21
4125.00,2.20
4124.00,2.20
4123.00,2.20
4122.00,2.20
4121.00,2.20
4120.00,2.19
4119.00,2.19
4118.00,2.19
4117.00,2.18
4116.00,2.18
4115.00,2.18
4114.00,2.17
4113.00,2.17
4112.00,2.17
4111.00,2.16
4110.00,2.16
4109.00,2.16
4108.00,2.16
4107.00,2.16
4106.00,2.16
4105.00,2.16
4104.00,2.16
4103.00,2.15
4102.00,2.15
4101.00,2.15
4100.00,2.15
4099.00,2.15
4098.00,2.15
4097.00,2.15
4096.00,2.15
4095.00,2.15
4094.00,2.15
4093.00,2.15
4092.00,2.15
4091.00,2.15
4090.00,2.15
4089.00,2.16
4088.00,2.16
4087.00,2.16
4086.00,2.16
4085.00,2.16
4084.00,2.16
4083.00,2.16
4082.00,2.16
4081.00,2.16
4080.00,2.16
4079.00,2.15
4078.00,2.15
4077.00,2.15
4076.00,2.15
4075.00,2.15
4074.00,2.15
4073.00,2.14
4072.00,2.14
4071.00,2.14
4070.00,2.14
4069.00,2.13
4068.00,2.13
4067.00,2.13
4066.00,2.13
4065.00,2.13
4064.00,2.13
4063.00,2.13
4062.00,2.13
4061.00,2.13
4060.00,2.13
4059.00,2.12
4058.00,2.12
4057.00,2.12
4056.00,2.12
4055.00,2.12
4054.00,2.12
4053.00,2.12
4052.00,2.12
4051.00,2.12
4050.00,2.12
4049.00,2.12
4048.00,2.12
4047.00,2.13
4046.00,2.13
4045.00,2.13
4044.00,2.13
4043.00,2.14
4042.00,2.14
4041.00,2.14
4040.00,2.14
4039.00,2.14
4038.00,2.14
4037.00,2.14
4036.00,2.14
4035.00,2.15
4034.00,2.15
4033.00,2.15
4032.00,2.16
4031.00,2.16
4030.00,2.17
4029.00,2.17
4028.00,2.18
4027.00,2.18
4026.00,2.19
4025.00,2.19
4024.00,2.20
4023.00,2.20
4022.00,2.21
4021.00,2.21
4020.00,2.22
4019.00,2.23
4018.00,2.23
4017.00,2.24
4016.00,2.25
4015.00,2.26
4014.00,2.27
4013.00,2.28
4012.00,2.29
4011.00,2.30
4010.00,2.32
4009.00,2.33
4008.00,2.34
4007.00,2.36
4006.00,2.37
4005.00,2.38
4004.00,2.40
4003.00,2.41
4002.00,2.43
4001.00,2.44
4000.00,2.46
