创建为新数据集,样品 783 用户 Administrator 日期 星期一, 七月 29 2019
cm-1,%T
10000.00,1.49
9999.00,1.51
9998.00,1.52
9997.00,1.54
9996.00,1.56
9995.00,1.57
9994.00,1.59
9993.00,1.60
9992.00,1.62
9991.00,1.63
9990.00,1.64
9989.00,1.66
9988.00,1.67
9987.00,1.68
9986.00,1.68
9985.00,1.69
9984.00,1.69
9983.00,1.70
9982.00,1.70
9981.00,1.70
9980.00,1.70
9979.00,1.70
9978.00,1.69
9977.00,1.69
9976.00,1.69
9975.00,1.69
9974.00,1.69
9973.00,1.68
9972.00,1.68
9971.00,1.68
9970.00,1.68
9969.00,1.68
9968.00,1.68
9967.00,1.68
9966.00,1.67
9965.00,1.67
9964.00,1.67
9963.00,1.67
9962.00,1.67
9961.00,1.66
9960.00,1.66
9959.00,1.66
9958.00,1.65
9957.00,1.65
9956.00,1.65
9955.00,1.64
9954.00,1.64
9953.00,1.63
9952.00,1.63
9951.00,1.63
9950.00,1.62
9949.00,1.62
9948.00,1.62
9947.00,1.61
9946.00,1.61
9945.00,1.60
9944.00,1.59
9943.00,1.59
9942.00,1.58
9941.00,1.57
9940.00,1.57
9939.00,1.56
9938.00,1.55
9937.00,1.54
9936.00,1.53
9935.00,1.52
9934.00,1.52
9933.00,1.51
9932.00,1.50
9931.00,1.49
9930.00,1.48
9929.00,1.47
9928.00,1.46
9927.00,1.45
9926.00,1.44
9925.00,1.44
9924.00,1.43
9923.00,1.42
9922.00,1.41
9921.00,1.40
9920.00,1.39
9919.00,1.38
9918.00,1.38
9917.00,1.37
9916.00,1.37
9915.00,1.36
9914.00,1.36
9913.00,1.36
9912.00,1.35
9911.00,1.35
9910.00,1.35
9909.00,1.35
9908.00,1.35
9907.00,1.36
9906.00,1.36
9905.00,1.36
9904.00,1.36
9903.00,1.37
9902.00,1.37
9901.00,1.37
9900.00,1.37
9899.00,1.37
9898.00,1.38
9897.00,1.38
9896.00,1.38
9895.00,1.38
9894.00,1.38
9893.00,1.37
9892.00,1.37
9891.00,1.37
9890.00,1.37
9889.00,1.36
9888.00,1.36
9887.00,1.35
9886.00,1.35
9885.00,1.34
9884.00,1.34
9883.00,1.33
9882.00,1.33
9881.00,1.33
9880.00,1.32
9879.00,1.32
9878.00,1.31
9877.00,1.31
9876.00,1.31
9875.00,1.31
9874.00,1.31
9873.00,1.31
9872.00,1.31
9871.00,1.31
9870.00,1.31
9869.00,1.32
9868.00,1.32
9867.00,1.33
9866.00,1.34
9865.00,1.34
9864.00,1.35
9863.00,1.36
9862.00,1.37
9861.00,1.37
9860.00,1.38
9859.00,1.39
9858.00,1.40
9857.00,1.40
9856.00,1.41
9855.00,1.41
9854.00,1.42
9853.00,1.42
9852.00,1.43
9851.00,1.43
9850.00,1.43
9849.00,1.44
9848.00,1.44
9847.00,1.44
9846.00,1.44
9845.00,1.44
9844.00,1.44
9843.00,1.43
9842.00,1.43
9841.00,1.42
9840.00,1.42
9839.00,1.41
9838.00,1.40
9837.00,1.40
9836.00,1.39
9835.00,1.38
9834.00,1.38
9833.00,1.37
9832.00,1.36
9831.00,1.36
9830.00,1.35
9829.00,1.35
9828.00,1.34
9827.00,1.33
9826.00,1.33
9825.00,1.32
9824.00,1.32
9823.00,1.31
9822.00,1.31
9821.00,1.30
9820.00,1.30
9819.00,1.30
9818.00,1.29
9817.00,1.29
9816.00,1.29
9815.00,1.29
9814.00,1.29
9813.00,1.29
9812.00,1.29
9811.00,1.29
9810.00,1.30
9809.00,1.30
9808.00,1.30
9807.00,1.30
9806.00,1.30
9805.00,1.31
9804.00,1.31
9803.00,1.31
9802.00,1.31
9801.00,1.31
9800.00,1.32
9799.00,1.32
9798.00,1.32
9797.00,1.32
9796.00,1.32
9795.00,1.32
9794.00,1.32
9793.00,1.32
9792.00,1.32
9791.00,1.32
9790.00,1.32
9789.00,1.32
9788.00,1.32
9787.00,1.32
9786.00,1.32
9785.00,1.32
9784.00,1.32
9783.00,1.32
9782.00,1.33
9781.00,1.33
9780.00,1.33
9779.00,1.34
9778.00,1.34
9777.00,1.35
9776.00,1.35
9775.00,1.36
9774.00,1.37
9773.00,1.37
9772.00,1.38
9771.00,1.38
9770.00,1.39
9769.00,1.40
9768.00,1.41
9767.00,1.41
9766.00,1.42
9765.00,1.43
9764.00,1.44
9763.00,1.44
9762.00,1.45
9761.00,1.46
9760.00,1.46
9759.00,1.47
9758.00,1.47
9757.00,1.47
9756.00,1.47
9755.00,1.47
9754.00,1.47
9753.00,1.47
9752.00,1.46
9751.00,1.46
9750.00,1.45
9749.00,1.45
9748.00,1.44
9747.00,1.43
9746.00,1.42
9745.00,1.41
9744.00,1.40
9743.00,1.39
9742.00,1.38
9741.00,1.37
9740.00,1.36
9739.00,1.35
9738.00,1.34
9737.00,1.33
9736.00,1.32
9735.00,1.30
9734.00,1.29
9733.00,1.28
9732.00,1.27
9731.00,1.26
9730.00,1.26
9729.00,1.25
9728.00,1.24
9727.00,1.24
9726.00,1.23
9725.00,1.23
9724.00,1.23
9723.00,1.22
9722.00,1.22
9721.00,1.22
9720.00,1.22
9719.00,1.23
9718.00,1.23
9717.00,1.23
9716.00,1.24
9715.00,1.24
9714.00,1.25
9713.00,1.25
9712.00,1.26
9711.00,1.26
9710.00,1.27
9709.00,1.27
9708.00,1.28
9707.00,1.28
9706.00,1.28
9705.00,1.29
9704.00,1.29
9703.00,1.29
9702.00,1.30
9701.00,1.30
9700.00,1.30
9699.00,1.31
9698.00,1.31
9697.00,1.32
9696.00,1.32
9695.00,1.33
9694.00,1.33
9693.00,1.34
9692.00,1.34
9691.00,1.35
9690.00,1.36
9689.00,1.36
9688.00,1.36
9687.00,1.37
9686.00,1.37
9685.00,1.38
9684.00,1.38
9683.00,1.38
9682.00,1.39
9681.00,1.39
9680.00,1.40
9679.00,1.40
9678.00,1.40
9677.00,1.41
9676.00,1.41
9675.00,1.41
9674.00,1.42
9673.00,1.42
9672.00,1.42
9671.00,1.42
9670.00,1.41
9669.00,1.41
9668.00,1.41
9667.00,1.40
9666.00,1.40
9665.00,1.39
9664.00,1.38
9663.00,1.37
9662.00,1.37
9661.00,1.36
9660.00,1.35
9659.00,1.35
9658.00,1.34
9657.00,1.34
9656.00,1.33
9655.00,1.33
9654.00,1.32
9653.00,1.32
9652.00,1.32
9651.00,1.31
9650.00,1.31
9649.00,1.31
9648.00,1.31
9647.00,1.30
9646.00,1.30
9645.00,1.30
9644.00,1.30
9643.00,1.30
9642.00,1.30
9641.00,1.30
9640.00,1.30
9639.00,1.30
9638.00,1.30
9637.00,1.31
9636.00,1.31
9635.00,1.31
9634.00,1.31
9633.00,1.31
9632.00,1.31
9631.00,1.31
9630.00,1.31
9629.00,1.31
9628.00,1.31
9627.00,1.31
9626.00,1.31
9625.00,1.31
9624.00,1.31
9623.00,1.31
9622.00,1.31
9621.00,1.31
9620.00,1.31
9619.00,1.31
9618.00,1.31
9617.00,1.31
9616.00,1.31
9615.00,1.31
9614.00,1.31
9613.00,1.31
9612.00,1.31
9611.00,1.30
9610.00,1.30
9609.00,1.30
9608.00,1.30
9607.00,1.30
9606.00,1.30
9605.00,1.30
9604.00,1.30
9603.00,1.29
9602.00,1.29
9601.00,1.29
9600.00,1.29
9599.00,1.28
9598.00,1.28
9597.00,1.28
9596.00,1.28
9595.00,1.27
9594.00,1.27
9593.00,1.27
9592.00,1.27
9591.00,1.27
9590.00,1.27
9589.00,1.27
9588.00,1.27
9587.00,1.28
9586.00,1.28
9585.00,1.28
9584.00,1.28
9583.00,1.28
9582.00,1.28
9581.00,1.28
9580.00,1.27
9579.00,1.27
9578.00,1.27
9577.00,1.27
9576.00,1.27
9575.00,1.28
9574.00,1.28
9573.00,1.28
9572.00,1.28
9571.00,1.28
9570.00,1.28
9569.00,1.29
9568.00,1.29
9567.00,1.29
9566.00,1.29
9565.00,1.28
9564.00,1.28
9563.00,1.28
9562.00,1.28
9561.00,1.28
9560.00,1.28
9559.00,1.28
9558.00,1.28
9557.00,1.28
9556.00,1.28
9555.00,1.29
9554.00,1.29
9553.00,1.30
9552.00,1.30
9551.00,1.31
9550.00,1.31
9549.00,1.31
9548.00,1.32
9547.00,1.32
9546.00,1.33
9545.00,1.33
9544.00,1.34
9543.00,1.35
9542.00,1.35
9541.00,1.36
9540.00,1.37
9539.00,1.38
9538.00,1.39
9537.00,1.39
9536.00,1.40
9535.00,1.41
9534.00,1.41
9533.00,1.42
9532.00,1.43
9531.00,1.43
9530.00,1.43
9529.00,1.44
9528.00,1.44
9527.00,1.44
9526.00,1.44
9525.00,1.44
9524.00,1.44
9523.00,1.43
9522.00,1.43
9521.00,1.43
9520.00,1.42
9519.00,1.41
9518.00,1.41
9517.00,1.40
9516.00,1.39
9515.00,1.38
9514.00,1.37
9513.00,1.36
9512.00,1.35
9511.00,1.34
9510.00,1.34
9509.00,1.33
9508.00,1.32
9507.00,1.31
9506.00,1.31
9505.00,1.30
9504.00,1.29
9503.00,1.29
9502.00,1.28
9501.00,1.28
9500.00,1.27
9499.00,1.27
9498.00,1.27
9497.00,1.26
9496.00,1.26
9495.00,1.26
9494.00,1.26
9493.00,1.26
9492.00,1.26
9491.00,1.26
9490.00,1.26
9489.00,1.26
9488.00,1.26
9487.00,1.26
9486.00,1.26
9485.00,1.26
9484.00,1.26
9483.00,1.25
9482.00,1.25
9481.00,1.25
9480.00,1.25
9479.00,1.25
9478.00,1.25
9477.00,1.25
9476.00,1.25
9475.00,1.25
9474.00,1.25
9473.00,1.26
9472.00,1.26
9471.00,1.26
9470.00,1.26
9469.00,1.27
9468.00,1.27
9467.00,1.27
9466.00,1.28
9465.00,1.29
9464.00,1.29
9463.00,1.30
9462.00,1.30
9461.00,1.31
9460.00,1.32
9459.00,1.32
9458.00,1.33
9457.00,1.33
9456.00,1.33
9455.00,1.34
9454.00,1.34
9453.00,1.34
9452.00,1.34
9451.00,1.34
9450.00,1.34
9449.00,1.34
9448.00,1.34
9447.00,1.33
9446.00,1.33
9445.00,1.33
9444.00,1.32
9443.00,1.32
9442.00,1.31
9441.00,1.31
9440.00,1.30
9439.00,1.29
9438.00,1.29
9437.00,1.28
9436.00,1.27
9435.00,1.27
9434.00,1.26
9433.00,1.26
9432.00,1.25
9431.00,1.25
9430.00,1.25
9429.00,1.25
9428.00,1.25
9427.00,1.25
9426.00,1.26
9425.00,1.26
9424.00,1.27
9423.00,1.27
9422.00,1.28
9421.00,1.28
9420.00,1.29
9419.00,1.30
9418.00,1.30
9417.00,1.31
9416.00,1.32
9415.00,1.32
9414.00,1.33
9413.00,1.34
9412.00,1.35
9411.00,1.35
9410.00,1.36
9409.00,1.36
9408.00,1.37
9407.00,1.37
9406.00,1.38
9405.00,1.38
9404.00,1.39
9403.00,1.39
9402.00,1.39
9401.00,1.39
9400.00,1.39
9399.00,1.39
9398.00,1.39
9397.00,1.39
9396.00,1.38
9395.00,1.38
9394.00,1.38
9393.00,1.38
9392.00,1.38
9391.00,1.38
9390.00,1.37
9389.00,1.37
9388.00,1.37
9387.00,1.37
9386.00,1.37
9385.00,1.37
9384.00,1.36
9383.00,1.36
9382.00,1.36
9381.00,1.36
9380.00,1.36
9379.00,1.36
9378.00,1.36
9377.00,1.35
9376.00,1.35
9375.00,1.35
9374.00,1.35
9373.00,1.35
9372.00,1.35
9371.00,1.35
9370.00,1.35
9369.00,1.35
9368.00,1.35
9367.00,1.34
9366.00,1.34
9365.00,1.34
9364.00,1.34
9363.00,1.33
9362.00,1.33
9361.00,1.33
9360.00,1.32
9359.00,1.32
9358.00,1.32
9357.00,1.31
9356.00,1.31
9355.00,1.31
9354.00,1.30
9353.00,1.30
9352.00,1.29
9351.00,1.29
9350.00,1.28
9349.00,1.28
9348.00,1.28
9347.00,1.27
9346.00,1.27
9345.00,1.27
9344.00,1.26
9343.00,1.26
9342.00,1.26
9341.00,1.26
9340.00,1.26
9339.00,1.25
9338.00,1.25
9337.00,1.25
9336.00,1.25
9335.00,1.25
9334.00,1.26
9333.00,1.26
9332.00,1.26
9331.00,1.26
9330.00,1.27
9329.00,1.27
9328.00,1.27
9327.00,1.28
9326.00,1.28
9325.00,1.29
9324.00,1.30
9323.00,1.30
9322.00,1.31
9321.00,1.31
9320.00,1.32
9319.00,1.32
9318.00,1.33
9317.00,1.33
9316.00,1.34
9315.00,1.34
9314.00,1.34
9313.00,1.35
9312.00,1.35
9311.00,1.35
9310.00,1.36
9309.00,1.36
9308.00,1.36
9307.00,1.37
9306.00,1.37
9305.00,1.37
9304.00,1.37
9303.00,1.38
9302.00,1.38
9301.00,1.38
9300.00,1.38
9299.00,1.38
9298.00,1.38
9297.00,1.38
9296.00,1.38
9295.00,1.39
9294.00,1.39
9293.00,1.39
9292.00,1.39
9291.00,1.40
9290.00,1.40
9289.00,1.40
9288.00,1.41
9287.00,1.41
9286.00,1.42
9285.00,1.42
9284.00,1.42
9283.00,1.43
9282.00,1.43
9281.00,1.43
9280.00,1.43
9279.00,1.44
9278.00,1.44
9277.00,1.44
9276.00,1.44
9275.00,1.44
9274.00,1.44
9273.00,1.44
9272.00,1.43
9271.00,1.43
9270.00,1.43
9269.00,1.43
9268.00,1.42
9267.00,1.42
9266.00,1.41
9265.00,1.40
9264.00,1.40
9263.00,1.39
9262.00,1.38
9261.00,1.38
9260.00,1.37
9259.00,1.36
9258.00,1.35
9257.00,1.35
9256.00,1.34
9255.00,1.33
9254.00,1.33
9253.00,1.32
9252.00,1.31
9251.00,1.31
9250.00,1.30
9249.00,1.30
9248.00,1.29
9247.00,1.29
9246.00,1.29
9245.00,1.28
9244.00,1.28
9243.00,1.28
9242.00,1.27
9241.00,1.27
9240.00,1.27
9239.00,1.27
9238.00,1.27
9237.00,1.27
9236.00,1.27
9235.00,1.27
9234.00,1.28
9233.00,1.28
9232.00,1.28
9231.00,1.28
9230.00,1.28
9229.00,1.29
9228.00,1.29
9227.00,1.29
9226.00,1.29
9225.00,1.29
9224.00,1.30
9223.00,1.30
9222.00,1.30
9221.00,1.31
9220.00,1.31
9219.00,1.31
9218.00,1.32
9217.00,1.32
9216.00,1.32
9215.00,1.32
9214.00,1.33
9213.00,1.33
9212.00,1.33
9211.00,1.33
9210.00,1.33
9209.00,1.33
9208.00,1.33
9207.00,1.33
9206.00,1.33
9205.00,1.33
9204.00,1.33
9203.00,1.33
9202.00,1.33
9201.00,1.33
9200.00,1.32
9199.00,1.32
9198.00,1.32
9197.00,1.32
9196.00,1.32
9195.00,1.32
9194.00,1.32
9193.00,1.31
9192.00,1.31
9191.00,1.31
9190.00,1.31
9189.00,1.30
9188.00,1.30
9187.00,1.30
9186.00,1.30
9185.00,1.30
9184.00,1.30
9183.00,1.30
9182.00,1.30
9181.00,1.31
9180.00,1.31
9179.00,1.31
9178.00,1.31
9177.00,1.31
9176.00,1.31
9175.00,1.32
9174.00,1.32
9173.00,1.32
9172.00,1.33
9171.00,1.33
9170.00,1.33
9169.00,1.34
9168.00,1.34
9167.00,1.35
9166.00,1.35
9165.00,1.36
9164.00,1.36
9163.00,1.36
9162.00,1.37
9161.00,1.37
9160.00,1.38
9159.00,1.38
9158.00,1.39
9157.00,1.39
9156.00,1.39
9155.00,1.40
9154.00,1.40
9153.00,1.40
9152.00,1.41
9151.00,1.41
9150.00,1.41
9149.00,1.41
9148.00,1.41
9147.00,1.41
9146.00,1.41
9145.00,1.40
9144.00,1.40
9143.00,1.40
9142.00,1.39
9141.00,1.39
9140.00,1.39
9139.00,1.38
9138.00,1.38
9137.00,1.37
9136.00,1.37
9135.00,1.36
9134.00,1.36
9133.00,1.35
9132.00,1.35
9131.00,1.35
9130.00,1.34
9129.00,1.34
9128.00,1.33
9127.00,1.33
9126.00,1.33
9125.00,1.32
9124.00,1.32
9123.00,1.32
9122.00,1.32
9121.00,1.32
9120.00,1.32
9119.00,1.32
9118.00,1.32
9117.00,1.33
9116.00,1.33
9115.00,1.33
9114.00,1.34
9113.00,1.34
9112.00,1.34
9111.00,1.35
9110.00,1.35
9109.00,1.35
9108.00,1.35
9107.00,1.36
9106.00,1.36
9105.00,1.36
9104.00,1.36
9103.00,1.36
9102.00,1.35
9101.00,1.35
9100.00,1.35
9099.00,1.35
9098.00,1.35
9097.00,1.34
9096.00,1.34
9095.00,1.34
9094.00,1.34
9093.00,1.33
9092.00,1.33
9091.00,1.32
9090.00,1.32
9089.00,1.32
9088.00,1.31
9087.00,1.31
9086.00,1.31
9085.00,1.31
9084.00,1.31
9083.00,1.30
9082.00,1.30
9081.00,1.30
9080.00,1.30
9079.00,1.30
9078.00,1.30
9077.00,1.31
9076.00,1.31
9075.00,1.31
9074.00,1.31
9073.00,1.31
9072.00,1.31
9071.00,1.31
9070.00,1.32
9069.00,1.32
9068.00,1.32
9067.00,1.32
9066.00,1.32
9065.00,1.32
9064.00,1.32
9063.00,1.32
9062.00,1.32
9061.00,1.31
9060.00,1.31
9059.00,1.31
9058.00,1.31
9057.00,1.31
9056.00,1.31
9055.00,1.31
9054.00,1.30
9053.00,1.30
9052.00,1.30
9051.00,1.30
9050.00,1.31
9049.00,1.31
9048.00,1.31
9047.00,1.31
9046.00,1.32
9045.00,1.32
9044.00,1.32
9043.00,1.33
9042.00,1.33
9041.00,1.33
9040.00,1.34
9039.00,1.34
9038.00,1.34
9037.00,1.35
9036.00,1.35
9035.00,1.36
9034.00,1.36
9033.00,1.36
9032.00,1.37
9031.00,1.37
9030.00,1.37
9029.00,1.37
9028.00,1.37
9027.00,1.37
9026.00,1.37
9025.00,1.37
9024.00,1.36
9023.00,1.36
9022.00,1.36
9021.00,1.35
9020.00,1.35
9019.00,1.34
9018.00,1.34
9017.00,1.33
9016.00,1.33
9015.00,1.33
9014.00,1.32
9013.00,1.32
9012.00,1.31
9011.00,1.31
9010.00,1.30
9009.00,1.30
9008.00,1.29
9007.00,1.29
9006.00,1.29
9005.00,1.29
9004.00,1.28
9003.00,1.28
9002.00,1.29
9001.00,1.29
9000.00,1.29
8999.00,1.29
8998.00,1.30
8997.00,1.30
8996.00,1.31
8995.00,1.31
8994.00,1.32
8993.00,1.32
8992.00,1.32
8991.00,1.33
8990.00,1.33
8989.00,1.34
8988.00,1.34
8987.00,1.34
8986.00,1.35
8985.00,1.35
8984.00,1.35
8983.00,1.36
8982.00,1.36
8981.00,1.36
8980.00,1.36
8979.00,1.36
8978.00,1.37
8977.00,1.36
8976.00,1.36
8975.00,1.36
8974.00,1.36
8973.00,1.36
8972.00,1.36
8971.00,1.35
8970.00,1.35
8969.00,1.35
8968.00,1.34
8967.00,1.34
8966.00,1.34
8965.00,1.33
8964.00,1.33
8963.00,1.33
8962.00,1.33
8961.00,1.32
8960.00,1.32
8959.00,1.32
8958.00,1.32
8957.00,1.32
8956.00,1.32
8955.00,1.32
8954.00,1.32
8953.00,1.32
8952.00,1.32
8951.00,1.32
8950.00,1.32
8949.00,1.32
8948.00,1.32
8947.00,1.31
8946.00,1.31
8945.00,1.31
8944.00,1.31
8943.00,1.31
8942.00,1.31
8941.00,1.31
8940.00,1.31
8939.00,1.31
8938.00,1.31
8937.00,1.31
8936.00,1.31
8935.00,1.31
8934.00,1.31
8933.00,1.31
8932.00,1.31
8931.00,1.31
8930.00,1.31
8929.00,1.31
8928.00,1.31
8927.00,1.31
8926.00,1.31
8925.00,1.31
8924.00,1.32
8923.00,1.32
8922.00,1.32
8921.00,1.33
8920.00,1.33
8919.00,1.33
8918.00,1.33
8917.00,1.33
8916.00,1.34
8915.00,1.34
8914.00,1.34
8913.00,1.33
8912.00,1.33
8911.00,1.33
8910.00,1.33
8909.00,1.33
8908.00,1.32
8907.00,1.32
8906.00,1.32
8905.00,1.32
8904.00,1.31
8903.00,1.31
8902.00,1.31
8901.00,1.31
8900.00,1.30
8899.00,1.30
8898.00,1.30
8897.00,1.30
8896.00,1.29
8895.00,1.29
8894.00,1.29
8893.00,1.29
8892.00,1.28
8891.00,1.28
8890.00,1.28
8889.00,1.28
8888.00,1.29
8887.00,1.29
8886.00,1.29
8885.00,1.30
8884.00,1.30
8883.00,1.31
8882.00,1.32
8881.00,1.32
8880.00,1.33
8879.00,1.34
8878.00,1.35
8877.00,1.36
8876.00,1.36
8875.00,1.37
8874.00,1.38
8873.00,1.38
8872.00,1.39
8871.00,1.39
8870.00,1.40
8869.00,1.40
8868.00,1.41
8867.00,1.41
8866.00,1.42
8865.00,1.42
8864.00,1.42
8863.00,1.42
8862.00,1.42
8861.00,1.42
8860.00,1.42
8859.00,1.42
8858.00,1.42
8857.00,1.41
8856.00,1.41
8855.00,1.40
8854.00,1.39
8853.00,1.39
8852.00,1.38
8851.00,1.37
8850.00,1.37
8849.00,1.36
8848.00,1.36
8847.00,1.35
8846.00,1.35
8845.00,1.34
8844.00,1.34
8843.00,1.34
8842.00,1.34
8841.00,1.34
8840.00,1.33
8839.00,1.33
8838.00,1.33
8837.00,1.33
8836.00,1.33
8835.00,1.34
8834.00,1.34
8833.00,1.34
8832.00,1.34
8831.00,1.35
8830.00,1.35
8829.00,1.36
8828.00,1.37
8827.00,1.37
8826.00,1.38
8825.00,1.39
8824.00,1.40
8823.00,1.40
8822.00,1.41
8821.00,1.42
8820.00,1.42
8819.00,1.42
8818.00,1.43
8817.00,1.43
8816.00,1.43
8815.00,1.43
8814.00,1.43
8813.00,1.43
8812.00,1.43
8811.00,1.43
8810.00,1.43
8809.00,1.43
8808.00,1.42
8807.00,1.42
8806.00,1.41
8805.00,1.41
8804.00,1.40
8803.00,1.39
8802.00,1.38
8801.00,1.37
8800.00,1.36
8799.00,1.35
8798.00,1.34
8797.00,1.33
8796.00,1.31
8795.00,1.31
8794.00,1.30
8793.00,1.29
8792.00,1.28
8791.00,1.27
8790.00,1.27
8789.00,1.27
8788.00,1.26
8787.00,1.26
8786.00,1.26
8785.00,1.26
8784.00,1.26
8783.00,1.26
8782.00,1.26
8781.00,1.26
8780.00,1.27
8779.00,1.27
8778.00,1.27
8777.00,1.28
8776.00,1.29
8775.00,1.30
8774.00,1.30
8773.00,1.31
8772.00,1.32
8771.00,1.33
8770.00,1.34
8769.00,1.34
8768.00,1.35
8767.00,1.35
8766.00,1.36
8765.00,1.36
8764.00,1.36
8763.00,1.36
8762.00,1.36
8761.00,1.36
8760.00,1.36
8759.00,1.36
8758.00,1.36
8757.00,1.35
8756.00,1.35
8755.00,1.35
8754.00,1.34
8753.00,1.34
8752.00,1.33
8751.00,1.33
8750.00,1.32
8749.00,1.31
8748.00,1.31
8747.00,1.30
8746.00,1.30
8745.00,1.29
8744.00,1.29
8743.00,1.28
8742.00,1.28
8741.00,1.28
8740.00,1.28
8739.00,1.28
8738.00,1.28
8737.00,1.28
8736.00,1.28
8735.00,1.28
8734.00,1.28
8733.00,1.29
8732.00,1.29
8731.00,1.29
8730.00,1.30
8729.00,1.30
8728.00,1.31
8727.00,1.31
8726.00,1.32
8725.00,1.32
8724.00,1.33
8723.00,1.33
8722.00,1.34
8721.00,1.34
8720.00,1.35
8719.00,1.35
8718.00,1.36
8717.00,1.36
8716.00,1.36
8715.00,1.37
8714.00,1.37
8713.00,1.37
8712.00,1.37
8711.00,1.37
8710.00,1.37
8709.00,1.38
8708.00,1.38
8707.00,1.38
8706.00,1.38
8705.00,1.37
8704.00,1.37
8703.00,1.37
8702.00,1.37
8701.00,1.37
8700.00,1.37
8699.00,1.37
8698.00,1.38
8697.00,1.38
8696.00,1.38
8695.00,1.38
8694.00,1.38
8693.00,1.38
8692.00,1.38
8691.00,1.38
8690.00,1.38
8689.00,1.39
8688.00,1.39
8687.00,1.39
8686.00,1.39
8685.00,1.39
8684.00,1.40
8683.00,1.40
8682.00,1.40
8681.00,1.41
8680.00,1.41
8679.00,1.41
8678.00,1.42
8677.00,1.42
8676.00,1.42
8675.00,1.42
8674.00,1.42
8673.00,1.42
8672.00,1.41
8671.00,1.41
8670.00,1.41
8669.00,1.41
8668.00,1.40
8667.00,1.40
8666.00,1.39
8665.00,1.39
8664.00,1.39
8663.00,1.38
8662.00,1.38
8661.00,1.37
8660.00,1.37
8659.00,1.37
8658.00,1.36
8657.00,1.36
8656.00,1.35
8655.00,1.35
8654.00,1.34
8653.00,1.34
8652.00,1.34
8651.00,1.33
8650.00,1.33
8649.00,1.33
8648.00,1.32
8647.00,1.32
8646.00,1.32
8645.00,1.32
8644.00,1.32
8643.00,1.32
8642.00,1.32
8641.00,1.32
8640.00,1.32
8639.00,1.32
8638.00,1.32
8637.00,1.32
8636.00,1.32
8635.00,1.32
8634.00,1.33
8633.00,1.33
8632.00,1.33
8631.00,1.33
8630.00,1.33
8629.00,1.33
8628.00,1.33
8627.00,1.34
8626.00,1.34
8625.00,1.34
8624.00,1.34
8623.00,1.35
8622.00,1.35
8621.00,1.35
8620.00,1.35
8619.00,1.36
8618.00,1.36
8617.00,1.36
8616.00,1.36
8615.00,1.35
8614.00,1.35
8613.00,1.35
8612.00,1.35
8611.00,1.35
8610.00,1.35
8609.00,1.34
8608.00,1.34
8607.00,1.34
8606.00,1.34
8605.00,1.34
8604.00,1.34
8603.00,1.33
8602.00,1.33
8601.00,1.33
8600.00,1.32
8599.00,1.32
8598.00,1.31
8597.00,1.31
8596.00,1.30
8595.00,1.30
8594.00,1.29
8593.00,1.29
8592.00,1.29
8591.00,1.28
8590.00,1.28
8589.00,1.28
8588.00,1.28
8587.00,1.28
8586.00,1.29
8585.00,1.29
8584.00,1.29
8583.00,1.30
8582.00,1.30
8581.00,1.30
8580.00,1.30
8579.00,1.31
8578.00,1.31
8577.00,1.31
8576.00,1.32
8575.00,1.32
8574.00,1.32
8573.00,1.33
8572.00,1.33
8571.00,1.34
8570.00,1.34
8569.00,1.35
8568.00,1.35
8567.00,1.36
8566.00,1.36
8565.00,1.37
8564.00,1.37
8563.00,1.37
8562.00,1.38
8561.00,1.38
8560.00,1.38
8559.00,1.38
8558.00,1.38
8557.00,1.38
8556.00,1.37
8555.00,1.37
8554.00,1.37
8553.00,1.37
8552.00,1.36
8551.00,1.36
8550.00,1.35
8549.00,1.35
8548.00,1.34
8547.00,1.34
8546.00,1.33
8545.00,1.33
8544.00,1.32
8543.00,1.32
8542.00,1.31
8541.00,1.31
8540.00,1.30
8539.00,1.30
8538.00,1.29
8537.00,1.29
8536.00,1.29
8535.00,1.28
8534.00,1.28
8533.00,1.28
8532.00,1.27
8531.00,1.27
8530.00,1.27
8529.00,1.27
8528.00,1.27
8527.00,1.27
8526.00,1.27
8525.00,1.27
8524.00,1.27
8523.00,1.27
8522.00,1.27
8521.00,1.28
8520.00,1.28
8519.00,1.28
8518.00,1.28
8517.00,1.28
8516.00,1.28
8515.00,1.28
8514.00,1.28
8513.00,1.28
8512.00,1.28
8511.00,1.28
8510.00,1.28
8509.00,1.28
8508.00,1.27
8507.00,1.27
8506.00,1.27
8505.00,1.27
8504.00,1.26
8503.00,1.26
8502.00,1.26
8501.00,1.25
8500.00,1.25
8499.00,1.25
8498.00,1.25
8497.00,1.24
8496.00,1.24
8495.00,1.24
8494.00,1.24
8493.00,1.23
8492.00,1.23
8491.00,1.23
8490.00,1.23
8489.00,1.23
8488.00,1.23
8487.00,1.23
8486.00,1.23
8485.00,1.23
8484.00,1.23
8483.00,1.23
8482.00,1.24
8481.00,1.24
8480.00,1.24
8479.00,1.25
8478.00,1.25
8477.00,1.26
8476.00,1.26
8475.00,1.26
8474.00,1.27
8473.00,1.27
8472.00,1.27
8471.00,1.28
8470.00,1.28
8469.00,1.28
8468.00,1.28
8467.00,1.28
8466.00,1.29
8465.00,1.29
8464.00,1.29
8463.00,1.29
8462.00,1.29
8461.00,1.29
8460.00,1.29
8459.00,1.29
8458.00,1.29
8457.00,1.29
8456.00,1.29
8455.00,1.29
8454.00,1.29
8453.00,1.29
8452.00,1.29
8451.00,1.28
8450.00,1.28
8449.00,1.28
8448.00,1.28
8447.00,1.28
8446.00,1.28
8445.00,1.28
8444.00,1.28
8443.00,1.28
8442.00,1.28
8441.00,1.28
8440.00,1.29
8439.00,1.29
8438.00,1.29
8437.00,1.30
8436.00,1.30
8435.00,1.30
8434.00,1.31
8433.00,1.31
8432.00,1.31
8431.00,1.32
8430.00,1.32
8429.00,1.32
8428.00,1.33
8427.00,1.33
8426.00,1.33
8425.00,1.34
8424.00,1.34
8423.00,1.34
8422.00,1.35
8421.00,1.35
8420.00,1.36
8419.00,1.36
8418.00,1.36
8417.00,1.36
8416.00,1.37
8415.00,1.37
8414.00,1.37
8413.00,1.37
8412.00,1.37
8411.00,1.37
8410.00,1.36
8409.00,1.36
8408.00,1.36
8407.00,1.36
8406.00,1.35
8405.00,1.35
8404.00,1.35
8403.00,1.35
8402.00,1.34
8401.00,1.34
8400.00,1.33
8399.00,1.33
8398.00,1.32
8397.00,1.32
8396.00,1.31
8395.00,1.31
8394.00,1.30
8393.00,1.29
8392.00,1.29
8391.00,1.28
8390.00,1.27
8389.00,1.27
8388.00,1.26
8387.00,1.26
8386.00,1.25
8385.00,1.25
8384.00,1.24
8383.00,1.24
8382.00,1.23
8381.00,1.23
8380.00,1.23
8379.00,1.23
8378.00,1.22
8377.00,1.22
8376.00,1.22
8375.00,1.22
8374.00,1.22
8373.00,1.21
8372.00,1.21
8371.00,1.21
8370.00,1.21
8369.00,1.21
8368.00,1.22
8367.00,1.22
8366.00,1.22
8365.00,1.22
8364.00,1.23
8363.00,1.23
8362.00,1.24
8361.00,1.24
8360.00,1.25
8359.00,1.25
8358.00,1.26
8357.00,1.26
8356.00,1.27
8355.00,1.27
8354.00,1.28
8353.00,1.28
8352.00,1.29
8351.00,1.29
8350.00,1.30
8349.00,1.30
8348.00,1.31
8347.00,1.32
8346.00,1.33
8345.00,1.33
8344.00,1.34
8343.00,1.34
8342.00,1.35
8341.00,1.35
8340.00,1.36
8339.00,1.36
8338.00,1.36
8337.00,1.36
8336.00,1.37
8335.00,1.37
8334.00,1.37
8333.00,1.37
8332.00,1.37
8331.00,1.37
8330.00,1.36
8329.00,1.36
8328.00,1.36
8327.00,1.36
8326.00,1.36
8325.00,1.36
8324.00,1.36
8323.00,1.36
8322.00,1.35
8321.00,1.35
8320.00,1.35
8319.00,1.35
8318.00,1.35
8317.00,1.35
8316.00,1.35
8315.00,1.35
8314.00,1.35
8313.00,1.35
8312.00,1.35
8311.00,1.35
8310.00,1.36
8309.00,1.36
8308.00,1.36
8307.00,1.36
8306.00,1.36
8305.00,1.37
8304.00,1.37
8303.00,1.37
8302.00,1.37
8301.00,1.37
8300.00,1.37
8299.00,1.37
8298.00,1.37
8297.00,1.37
8296.00,1.36
8295.00,1.36
8294.00,1.36
8293.00,1.35
8292.00,1.35
8291.00,1.35
8290.00,1.34
8289.00,1.34
8288.00,1.33
8287.00,1.33
8286.00,1.32
8285.00,1.32
8284.00,1.31
8283.00,1.31
8282.00,1.30
8281.00,1.30
8280.00,1.30
8279.00,1.29
8278.00,1.29
8277.00,1.29
8276.00,1.28
8275.00,1.28
8274.00,1.28
8273.00,1.28
8272.00,1.28
8271.00,1.27
8270.00,1.27
8269.00,1.27
8268.00,1.27
8267.00,1.27
8266.00,1.27
8265.00,1.27
8264.00,1.27
8263.00,1.27
8262.00,1.27
8261.00,1.28
8260.00,1.28
8259.00,1.28
8258.00,1.29
8257.00,1.29
8256.00,1.29
8255.00,1.30
8254.00,1.30
8253.00,1.31
8252.00,1.31
8251.00,1.31
8250.00,1.32
8249.00,1.32
8248.00,1.32
8247.00,1.33
8246.00,1.33
8245.00,1.33
8244.00,1.34
8243.00,1.34
8242.00,1.35
8241.00,1.35
8240.00,1.36
8239.00,1.36
8238.00,1.36
8237.00,1.37
8236.00,1.37
8235.00,1.37
8234.00,1.37
8233.00,1.37
8232.00,1.37
8231.00,1.37
8230.00,1.37
8229.00,1.37
8228.00,1.37
8227.00,1.37
8226.00,1.36
8225.00,1.36
8224.00,1.36
8223.00,1.36
8222.00,1.36
8221.00,1.36
8220.00,1.36
8219.00,1.36
8218.00,1.36
8217.00,1.35
8216.00,1.35
8215.00,1.35
8214.00,1.35
8213.00,1.35
8212.00,1.35
8211.00,1.35
8210.00,1.34
8209.00,1.34
8208.00,1.35
8207.00,1.35
8206.00,1.35
8205.00,1.35
8204.00,1.35
8203.00,1.35
8202.00,1.35
8201.00,1.35
8200.00,1.35
8199.00,1.36
8198.00,1.36
8197.00,1.36
8196.00,1.36
8195.00,1.35
8194.00,1.35
8193.00,1.35
8192.00,1.35
8191.00,1.35
8190.00,1.35
8189.00,1.35
8188.00,1.35
8187.00,1.35
8186.00,1.35
8185.00,1.35
8184.00,1.35
8183.00,1.35
8182.00,1.35
8181.00,1.35
8180.00,1.35
8179.00,1.35
8178.00,1.35
8177.00,1.35
8176.00,1.35
8175.00,1.35
8174.00,1.35
8173.00,1.35
8172.00,1.35
8171.00,1.35
8170.00,1.35
8169.00,1.35
8168.00,1.35
8167.00,1.35
8166.00,1.35
8165.00,1.35
8164.00,1.35
8163.00,1.35
8162.00,1.35
8161.00,1.35
8160.00,1.35
8159.00,1.35
8158.00,1.35
8157.00,1.35
8156.00,1.35
8155.00,1.35
8154.00,1.35
8153.00,1.34
8152.00,1.34
8151.00,1.34
8150.00,1.34
8149.00,1.33
8148.00,1.33
8147.00,1.33
8146.00,1.32
8145.00,1.32
8144.00,1.32
8143.00,1.32
8142.00,1.32
8141.00,1.32
8140.00,1.32
8139.00,1.32
8138.00,1.31
8137.00,1.31
8136.00,1.31
8135.00,1.31
8134.00,1.31
8133.00,1.31
8132.00,1.31
8131.00,1.31
8130.00,1.31
8129.00,1.31
8128.00,1.31
8127.00,1.31
8126.00,1.32
8125.00,1.32
8124.00,1.32
8123.00,1.32
8122.00,1.32
8121.00,1.32
8120.00,1.32
8119.00,1.32
8118.00,1.32
8117.00,1.32
8116.00,1.32
8115.00,1.32
8114.00,1.32
8113.00,1.32
8112.00,1.32
8111.00,1.32
8110.00,1.32
8109.00,1.32
8108.00,1.32
8107.00,1.31
8106.00,1.31
8105.00,1.31
8104.00,1.31
8103.00,1.31
8102.00,1.31
8101.00,1.31
8100.00,1.31
8099.00,1.31
8098.00,1.31
8097.00,1.31
8096.00,1.31
8095.00,1.31
8094.00,1.31
8093.00,1.30
8092.00,1.30
8091.00,1.30
8090.00,1.30
8089.00,1.30
8088.00,1.30
8087.00,1.30
8086.00,1.30
8085.00,1.30
8084.00,1.30
8083.00,1.30
8082.00,1.31
8081.00,1.31
8080.00,1.31
8079.00,1.31
8078.00,1.31
8077.00,1.31
8076.00,1.32
8075.00,1.32
8074.00,1.32
8073.00,1.32
8072.00,1.33
8071.00,1.33
8070.00,1.33
8069.00,1.34
8068.00,1.34
8067.00,1.35
8066.00,1.35
8065.00,1.35
8064.00,1.36
8063.00,1.36
8062.00,1.36
8061.00,1.37
8060.00,1.37
8059.00,1.37
8058.00,1.37
8057.00,1.38
8056.00,1.38
8055.00,1.38
8054.00,1.38
8053.00,1.38
8052.00,1.38
8051.00,1.38
8050.00,1.38
8049.00,1.38
8048.00,1.38
8047.00,1.38
8046.00,1.38
8045.00,1.38
8044.00,1.38
8043.00,1.38
8042.00,1.38
8041.00,1.38
8040.00,1.38
8039.00,1.38
8038.00,1.38
8037.00,1.38
8036.00,1.38
8035.00,1.38
8034.00,1.39
8033.00,1.39
8032.00,1.39
8031.00,1.39
8030.00,1.39
8029.00,1.39
8028.00,1.39
8027.00,1.39
8026.00,1.39
8025.00,1.40
8024.00,1.40
8023.00,1.40
8022.00,1.41
8021.00,1.41
8020.00,1.41
8019.00,1.41
8018.00,1.41
8017.00,1.42
8016.00,1.42
8015.00,1.42
8014.00,1.42
8013.00,1.42
8012.00,1.42
8011.00,1.42
8010.00,1.42
8009.00,1.42
8008.00,1.42
8007.00,1.42
8006.00,1.42
8005.00,1.41
8004.00,1.41
8003.00,1.41
8002.00,1.41
8001.00,1.41
8000.00,1.40
7999.00,1.40
7998.00,1.40
7997.00,1.39
7996.00,1.39
7995.00,1.39
7994.00,1.39
7993.00,1.38
7992.00,1.38
7991.00,1.38
7990.00,1.38
7989.00,1.38
7988.00,1.38
7987.00,1.37
7986.00,1.37
7985.00,1.37
7984.00,1.37
7983.00,1.37
7982.00,1.37
7981.00,1.37
7980.00,1.37
7979.00,1.37
7978.00,1.38
7977.00,1.38
7976.00,1.38
7975.00,1.38
7974.00,1.38
7973.00,1.38
7972.00,1.38
7971.00,1.38
7970.00,1.38
7969.00,1.38
7968.00,1.38
7967.00,1.38
7966.00,1.38
7965.00,1.38
7964.00,1.38
7963.00,1.38
7962.00,1.38
7961.00,1.38
7960.00,1.37
7959.00,1.37
7958.00,1.37
7957.00,1.37
7956.00,1.37
7955.00,1.37
7954.00,1.37
7953.00,1.36
7952.00,1.36
7951.00,1.36
7950.00,1.36
7949.00,1.36
7948.00,1.36
7947.00,1.36
7946.00,1.36
7945.00,1.36
7944.00,1.36
7943.00,1.36
7942.00,1.36
7941.00,1.36
7940.00,1.36
7939.00,1.37
7938.00,1.37
7937.00,1.37
7936.00,1.37
7935.00,1.37
7934.00,1.37
7933.00,1.37
7932.00,1.37
7931.00,1.37
7930.00,1.37
7929.00,1.38
7928.00,1.38
7927.00,1.38
7926.00,1.38
7925.00,1.38
7924.00,1.38
7923.00,1.38
7922.00,1.38
7921.00,1.38
7920.00,1.38
7919.00,1.38
7918.00,1.38
7917.00,1.38
7916.00,1.38
7915.00,1.38
7914.00,1.38
7913.00,1.38
7912.00,1.38
7911.00,1.37
7910.00,1.37
7909.00,1.37
7908.00,1.37
7907.00,1.37
7906.00,1.37
7905.00,1.37
7904.00,1.37
7903.00,1.37
7902.00,1.37
7901.00,1.37
7900.00,1.37
7899.00,1.37
7898.00,1.37
7897.00,1.37
7896.00,1.38
7895.00,1.38
7894.00,1.38
7893.00,1.38
7892.00,1.39
7891.00,1.39
7890.00,1.39
7889.00,1.40
7888.00,1.40
7887.00,1.40
7886.00,1.41
7885.00,1.41
7884.00,1.41
7883.00,1.42
7882.00,1.42
7881.00,1.43
7880.00,1.43
7879.00,1.44
7878.00,1.44
7877.00,1.45
7876.00,1.46
7875.00,1.46
7874.00,1.46
7873.00,1.47
7872.00,1.47
7871.00,1.47
7870.00,1.48
7869.00,1.48
7868.00,1.48
7867.00,1.48
7866.00,1.49
7865.00,1.49
7864.00,1.49
7863.00,1.49
7862.00,1.49
7861.00,1.49
7860.00,1.49
7859.00,1.49
7858.00,1.49
7857.00,1.49
7856.00,1.49
7855.00,1.48
7854.00,1.48
7853.00,1.48
7852.00,1.47
7851.00,1.47
7850.00,1.46
7849.00,1.46
7848.00,1.46
7847.00,1.45
7846.00,1.45
7845.00,1.44
7844.00,1.44
7843.00,1.44
7842.00,1.43
7841.00,1.43
7840.00,1.43
7839.00,1.43
7838.00,1.42
7837.00,1.42
7836.00,1.42
7835.00,1.42
7834.00,1.42
7833.00,1.42
7832.00,1.42
7831.00,1.42
7830.00,1.42
7829.00,1.42
7828.00,1.42
7827.00,1.42
7826.00,1.42
7825.00,1.42
7824.00,1.42
7823.00,1.42
7822.00,1.42
7821.00,1.42
7820.00,1.42
7819.00,1.42
7818.00,1.42
7817.00,1.42
7816.00,1.42
7815.00,1.42
7814.00,1.42
7813.00,1.42
7812.00,1.42
7811.00,1.42
7810.00,1.41
7809.00,1.41
7808.00,1.41
7807.00,1.41
7806.00,1.40
7805.00,1.40
7804.00,1.40
7803.00,1.40
7802.00,1.40
7801.00,1.40
7800.00,1.39
7799.00,1.39
7798.00,1.39
7797.00,1.39
7796.00,1.39
7795.00,1.39
7794.00,1.40
7793.00,1.40
7792.00,1.40
7791.00,1.40
7790.00,1.40
7789.00,1.40
7788.00,1.40
7787.00,1.41
7786.00,1.41
7785.00,1.41
7784.00,1.41
7783.00,1.42
7782.00,1.42
7781.00,1.42
7780.00,1.43
7779.00,1.43
7778.00,1.43
7777.00,1.44
7776.00,1.44
7775.00,1.44
7774.00,1.45
7773.00,1.45
7772.00,1.45
7771.00,1.46
7770.00,1.46
7769.00,1.46
7768.00,1.46
7767.00,1.46
7766.00,1.46
7765.00,1.46
7764.00,1.46
7763.00,1.46
7762.00,1.46
7761.00,1.46
7760.00,1.46
7759.00,1.46
7758.00,1.46
7757.00,1.46
7756.00,1.46
7755.00,1.46
7754.00,1.46
7753.00,1.46
7752.00,1.46
7751.00,1.45
7750.00,1.45
7749.00,1.45
7748.00,1.45
7747.00,1.44
7746.00,1.44
7745.00,1.44
7744.00,1.44
7743.00,1.44
7742.00,1.44
7741.00,1.44
7740.00,1.44
7739.00,1.44
7738.00,1.44
7737.00,1.44
7736.00,1.44
7735.00,1.44
7734.00,1.44
7733.00,1.44
7732.00,1.44
7731.00,1.45
7730.00,1.45
7729.00,1.45
7728.00,1.45
7727.00,1.45
7726.00,1.46
7725.00,1.46
7724.00,1.46
7723.00,1.46
7722.00,1.46
7721.00,1.47
7720.00,1.47
7719.00,1.47
7718.00,1.47
7717.00,1.48
7716.00,1.48
7715.00,1.48
7714.00,1.48
7713.00,1.49
7712.00,1.49
7711.00,1.49
7710.00,1.49
7709.00,1.49
7708.00,1.49
7707.00,1.49
7706.00,1.48
7705.00,1.48
7704.00,1.48
7703.00,1.48
7702.00,1.48
7701.00,1.48
7700.00,1.48
7699.00,1.48
7698.00,1.48
7697.00,1.48
7696.00,1.48
7695.00,1.48
7694.00,1.48
7693.00,1.47
7692.00,1.47
7691.00,1.47
7690.00,1.47
7689.00,1.47
7688.00,1.46
7687.00,1.46
7686.00,1.46
7685.00,1.46
7684.00,1.46
7683.00,1.45
7682.00,1.45
7681.00,1.45
7680.00,1.45
7679.00,1.45
7678.00,1.44
7677.00,1.44
7676.00,1.44
7675.00,1.44
7674.00,1.43
7673.00,1.43
7672.00,1.43
7671.00,1.43
7670.00,1.43
7669.00,1.42
7668.00,1.42
7667.00,1.42
7666.00,1.41
7665.00,1.41
7664.00,1.41
7663.00,1.41
7662.00,1.40
7661.00,1.40
7660.00,1.40
7659.00,1.40
7658.00,1.40
7657.00,1.40
7656.00,1.40
7655.00,1.40
7654.00,1.40
7653.00,1.40
7652.00,1.40
7651.00,1.40
7650.00,1.40
7649.00,1.40
7648.00,1.40
7647.00,1.40
7646.00,1.40
7645.00,1.40
7644.00,1.40
7643.00,1.40
7642.00,1.40
7641.00,1.40
7640.00,1.40
7639.00,1.40
7638.00,1.40
7637.00,1.41
7636.00,1.41
7635.00,1.41
7634.00,1.41
7633.00,1.41
7632.00,1.41
7631.00,1.41
7630.00,1.41
7629.00,1.41
7628.00,1.41
7627.00,1.42
7626.00,1.42
7625.00,1.42
7624.00,1.42
7623.00,1.42
7622.00,1.42
7621.00,1.43
7620.00,1.43
7619.00,1.43
7618.00,1.43
7617.00,1.44
7616.00,1.44
7615.00,1.44
7614.00,1.45
7613.00,1.45
7612.00,1.45
7611.00,1.46
7610.00,1.46
7609.00,1.46
7608.00,1.47
7607.00,1.47
7606.00,1.47
7605.00,1.47
7604.00,1.47
7603.00,1.48
7602.00,1.48
7601.00,1.48
7600.00,1.48
7599.00,1.48
7598.00,1.48
7597.00,1.48
7596.00,1.48
7595.00,1.48
7594.00,1.48
7593.00,1.47
7592.00,1.47
7591.00,1.47
7590.00,1.47
7589.00,1.46
7588.00,1.46
7587.00,1.46
7586.00,1.45
7585.00,1.45
7584.00,1.44
7583.00,1.44
7582.00,1.44
7581.00,1.43
7580.00,1.43
7579.00,1.43
7578.00,1.42
7577.00,1.42
7576.00,1.42
7575.00,1.41
7574.00,1.41
7573.00,1.40
7572.00,1.40
7571.00,1.40
7570.00,1.40
7569.00,1.39
7568.00,1.39
7567.00,1.39
7566.00,1.39
7565.00,1.39
7564.00,1.39
7563.00,1.38
7562.00,1.38
7561.00,1.38
7560.00,1.38
7559.00,1.38
7558.00,1.38
7557.00,1.37
7556.00,1.37
7555.00,1.37
7554.00,1.37
7553.00,1.37
7552.00,1.37
7551.00,1.37
7550.00,1.37
7549.00,1.37
7548.00,1.37
7547.00,1.37
7546.00,1.37
7545.00,1.37
7544.00,1.37
7543.00,1.37
7542.00,1.37
7541.00,1.37
7540.00,1.37
7539.00,1.37
7538.00,1.37
7537.00,1.37
7536.00,1.38
7535.00,1.38
7534.00,1.38
7533.00,1.38
7532.00,1.38
7531.00,1.38
7530.00,1.38
7529.00,1.38
7528.00,1.38
7527.00,1.38
7526.00,1.38
7525.00,1.38
7524.00,1.38
7523.00,1.38
7522.00,1.38
7521.00,1.38
7520.00,1.38
7519.00,1.38
7518.00,1.38
7517.00,1.38
7516.00,1.38
7515.00,1.38
7514.00,1.38
7513.00,1.38
7512.00,1.37
7511.00,1.37
7510.00,1.37
7509.00,1.37
7508.00,1.36
7507.00,1.36
7506.00,1.36
7505.00,1.36
7504.00,1.35
7503.00,1.35
7502.00,1.35
7501.00,1.35
7500.00,1.35
7499.00,1.35
7498.00,1.35
7497.00,1.35
7496.00,1.35
7495.00,1.35
7494.00,1.35
7493.00,1.35
7492.00,1.34
7491.00,1.34
7490.00,1.34
7489.00,1.34
7488.00,1.34
7487.00,1.35
7486.00,1.35
7485.00,1.35
7484.00,1.35
7483.00,1.35
7482.00,1.35
7481.00,1.36
7480.00,1.36
7479.00,1.36
7478.00,1.36
7477.00,1.37
7476.00,1.37
7475.00,1.37
7474.00,1.37
7473.00,1.37
7472.00,1.38
7471.00,1.38
7470.00,1.38
7469.00,1.38
7468.00,1.38
7467.00,1.39
7466.00,1.39
7465.00,1.39
7464.00,1.40
7463.00,1.40
7462.00,1.40
7461.00,1.40
7460.00,1.41
7459.00,1.41
7458.00,1.41
7457.00,1.41
7456.00,1.42
7455.00,1.42
7454.00,1.42
7453.00,1.42
7452.00,1.42
7451.00,1.42
7450.00,1.42
7449.00,1.42
7448.00,1.42
7447.00,1.42
7446.00,1.42
7445.00,1.42
7444.00,1.42
7443.00,1.42
7442.00,1.42
7441.00,1.42
7440.00,1.42
7439.00,1.42
7438.00,1.42
7437.00,1.41
7436.00,1.41
7435.00,1.41
7434.00,1.41
7433.00,1.40
7432.00,1.40
7431.00,1.40
7430.00,1.39
7429.00,1.39
7428.00,1.39
7427.00,1.39
7426.00,1.38
7425.00,1.38
7424.00,1.38
7423.00,1.38
7422.00,1.38
7421.00,1.38
7420.00,1.38
7419.00,1.38
7418.00,1.38
7417.00,1.38
7416.00,1.38
7415.00,1.37
7414.00,1.37
7413.00,1.37
7412.00,1.37
7411.00,1.37
7410.00,1.37
7409.00,1.37
7408.00,1.36
7407.00,1.36
7406.00,1.36
7405.00,1.36
7404.00,1.36
7403.00,1.35
7402.00,1.35
7401.00,1.35
7400.00,1.35
7399.00,1.34
7398.00,1.34
7397.00,1.34
7396.00,1.34
7395.00,1.33
7394.00,1.33
7393.00,1.33
7392.00,1.32
7391.00,1.32
7390.00,1.32
7389.00,1.32
7388.00,1.32
7387.00,1.32
7386.00,1.32
7385.00,1.32
7384.00,1.32
7383.00,1.32
7382.00,1.32
7381.00,1.32
7380.00,1.32
7379.00,1.32
7378.00,1.32
7377.00,1.32
7376.00,1.32
7375.00,1.32
7374.00,1.32
7373.00,1.32
7372.00,1.32
7371.00,1.32
7370.00,1.32
7369.00,1.32
7368.00,1.32
7367.00,1.32
7366.00,1.32
7365.00,1.32
7364.00,1.32
7363.00,1.32
7362.00,1.32
7361.00,1.32
7360.00,1.32
7359.00,1.32
7358.00,1.32
7357.00,1.32
7356.00,1.32
7355.00,1.32
7354.00,1.32
7353.00,1.32
7352.00,1.32
7351.00,1.33
7350.00,1.33
7349.00,1.33
7348.00,1.33
7347.00,1.33
7346.00,1.33
7345.00,1.33
7344.00,1.34
7343.00,1.34
7342.00,1.34
7341.00,1.34
7340.00,1.34
7339.00,1.34
7338.00,1.34
7337.00,1.34
7336.00,1.34
7335.00,1.34
7334.00,1.34
7333.00,1.34
7332.00,1.34
7331.00,1.34
7330.00,1.34
7329.00,1.34
7328.00,1.34
7327.00,1.33
7326.00,1.33
7325.00,1.33
7324.00,1.33
7323.00,1.33
7322.00,1.33
7321.00,1.33
7320.00,1.33
7319.00,1.32
7318.00,1.32
7317.00,1.32
7316.00,1.32
7315.00,1.31
7314.00,1.31
7313.00,1.31
7312.00,1.31
7311.00,1.30
7310.00,1.30
7309.00,1.30
7308.00,1.30
7307.00,1.30
7306.00,1.30
7305.00,1.29
7304.00,1.29
7303.00,1.29
7302.00,1.29
7301.00,1.29
7300.00,1.29
7299.00,1.29
7298.00,1.29
7297.00,1.29
7296.00,1.29
7295.00,1.29
7294.00,1.29
7293.00,1.29
7292.00,1.28
7291.00,1.28
7290.00,1.28
7289.00,1.28
7288.00,1.28
7287.00,1.28
7286.00,1.28
7285.00,1.28
7284.00,1.28
7283.00,1.28
7282.00,1.28
7281.00,1.28
7280.00,1.27
7279.00,1.27
7278.00,1.27
7277.00,1.27
7276.00,1.27
7275.00,1.26
7274.00,1.26
7273.00,1.26
7272.00,1.26
7271.00,1.25
7270.00,1.25
7269.00,1.25
7268.00,1.25
7267.00,1.25
7266.00,1.25
7265.00,1.24
7264.00,1.24
7263.00,1.24
7262.00,1.24
7261.00,1.24
7260.00,1.24
7259.00,1.24
7258.00,1.24
7257.00,1.25
7256.00,1.25
7255.00,1.25
7254.00,1.25
7253.00,1.25
7252.00,1.25
7251.00,1.26
7250.00,1.26
7249.00,1.26
7248.00,1.26
7247.00,1.26
7246.00,1.26
7245.00,1.26
7244.00,1.27
7243.00,1.27
7242.00,1.27
7241.00,1.27
7240.00,1.27
7239.00,1.26
7238.00,1.26
7237.00,1.26
7236.00,1.26
7235.00,1.26
7234.00,1.25
7233.00,1.25
7232.00,1.25
7231.00,1.24
7230.00,1.24
7229.00,1.23
7228.00,1.22
7227.00,1.22
7226.00,1.21
7225.00,1.21
7224.00,1.20
7223.00,1.20
7222.00,1.19
7221.00,1.18
7220.00,1.18
7219.00,1.17
7218.00,1.17
7217.00,1.16
7216.00,1.15
7215.00,1.15
7214.00,1.14
7213.00,1.14
7212.00,1.13
7211.00,1.13
7210.00,1.12
7209.00,1.12
7208.00,1.11
7207.00,1.11
7206.00,1.10
7205.00,1.10
7204.00,1.09
7203.00,1.09
7202.00,1.08
7201.00,1.08
7200.00,1.08
7199.00,1.07
7198.00,1.07
7197.00,1.07
7196.00,1.07
7195.00,1.06
7194.00,1.06
7193.00,1.06
7192.00,1.06
7191.00,1.05
7190.00,1.05
7189.00,1.05
7188.00,1.05
7187.00,1.05
7186.00,1.04
7185.00,1.04
7184.00,1.04
7183.00,1.04
7182.00,1.04
7181.00,1.04
7180.00,1.03
7179.00,1.03
7178.00,1.03
7177.00,1.03
7176.00,1.03
7175.00,1.03
7174.00,1.03
7173.00,1.03
7172.00,1.02
7171.00,1.02
7170.00,1.02
7169.00,1.02
7168.00,1.01
7167.00,1.01
7166.00,1.01
7165.00,1.00
7164.00,1.00
7163.00,1.00
7162.00,0.99
7161.00,0.99
7160.00,0.98
7159.00,0.98
7158.00,0.97
7157.00,0.97
7156.00,0.96
7155.00,0.96
7154.00,0.95
7153.00,0.95
7152.00,0.94
7151.00,0.94
7150.00,0.93
7149.00,0.93
7148.00,0.92
7147.00,0.92
7146.00,0.91
7145.00,0.91
7144.00,0.90
7143.00,0.89
7142.00,0.89
7141.00,0.88
7140.00,0.88
7139.00,0.87
7138.00,0.87
7137.00,0.86
7136.00,0.86
7135.00,0.85
7134.00,0.85
7133.00,0.84
7132.00,0.84
7131.00,0.83
7130.00,0.83
7129.00,0.83
7128.00,0.82
7127.00,0.82
7126.00,0.82
7125.00,0.81
7124.00,0.81
7123.00,0.80
7122.00,0.80
7121.00,0.79
7120.00,0.79
7119.00,0.79
7118.00,0.78
7117.00,0.78
7116.00,0.78
7115.00,0.77
7114.00,0.77
7113.00,0.77
7112.00,0.76
7111.00,0.76
7110.00,0.76
7109.00,0.76
7108.00,0.75
7107.00,0.75
7106.00,0.75
7105.00,0.74
7104.00,0.74
7103.00,0.74
7102.00,0.73
7101.00,0.73
7100.00,0.73
7099.00,0.73
7098.00,0.73
7097.00,0.72
7096.00,0.72
7095.00,0.72
7094.00,0.72
7093.00,0.72
7092.00,0.72
7091.00,0.72
7090.00,0.72
7089.00,0.71
7088.00,0.71
7087.00,0.71
7086.00,0.71
7085.00,0.71
7084.00,0.71
7083.00,0.71
7082.00,0.71
7081.00,0.71
7080.00,0.71
7079.00,0.71
7078.00,0.71
7077.00,0.71
7076.00,0.71
7075.00,0.71
7074.00,0.71
7073.00,0.71
7072.00,0.71
7071.00,0.71
7070.00,0.70
7069.00,0.70
7068.00,0.70
7067.00,0.70
7066.00,0.70
7065.00,0.70
7064.00,0.70
7063.00,0.70
7062.00,0.70
7061.00,0.70
7060.00,0.70
7059.00,0.70
7058.00,0.70
7057.00,0.70
7056.00,0.70
7055.00,0.70
7054.00,0.70
7053.00,0.70
7052.00,0.70
7051.00,0.70
7050.00,0.70
7049.00,0.70
7048.00,0.70
7047.00,0.69
7046.00,0.69
7045.00,0.69
7044.00,0.69
7043.00,0.69
7042.00,0.69
7041.00,0.69
7040.00,0.69
7039.00,0.68
7038.00,0.68
7037.00,0.68
7036.00,0.67
7035.00,0.67
7034.00,0.66
7033.00,0.66
7032.00,0.66
7031.00,0.65
7030.00,0.65
7029.00,0.64
7028.00,0.64
7027.00,0.64
7026.00,0.63
7025.00,0.63
7024.00,0.63
7023.00,0.62
7022.00,0.62
7021.00,0.62
7020.00,0.62
7019.00,0.61
7018.00,0.61
7017.00,0.61
7016.00,0.61
7015.00,0.61
7014.00,0.61
7013.00,0.61
7012.00,0.61
7011.00,0.61
7010.00,0.61
7009.00,0.61
7008.00,0.61
7007.00,0.61
7006.00,0.62
7005.00,0.62
7004.00,0.62
7003.00,0.63
7002.00,0.63
7001.00,0.63
7000.00,0.64
6999.00,0.64
6998.00,0.64
6997.00,0.65
6996.00,0.65
6995.00,0.65
6994.00,0.65
6993.00,0.66
6992.00,0.66
6991.00,0.66
6990.00,0.66
6989.00,0.67
6988.00,0.67
6987.00,0.67
6986.00,0.67
6985.00,0.68
6984.00,0.68
6983.00,0.68
6982.00,0.68
6981.00,0.68
6980.00,0.68
6979.00,0.68
6978.00,0.68
6977.00,0.68
6976.00,0.69
6975.00,0.69
6974.00,0.69
6973.00,0.69
6972.00,0.69
6971.00,0.69
6970.00,0.69
6969.00,0.69
6968.00,0.69
6967.00,0.69
6966.00,0.69
6965.00,0.69
6964.00,0.68
6963.00,0.68
6962.00,0.68
6961.00,0.68
6960.00,0.67
6959.00,0.67
6958.00,0.67
6957.00,0.67
6956.00,0.66
6955.00,0.66
6954.00,0.66
6953.00,0.66
6952.00,0.65
6951.00,0.65
6950.00,0.65
6949.00,0.65
6948.00,0.64
6947.00,0.64
6946.00,0.64
6945.00,0.64
6944.00,0.63
6943.00,0.63
6942.00,0.63
6941.00,0.63
6940.00,0.63
6939.00,0.63
6938.00,0.63
6937.00,0.63
6936.00,0.63
6935.00,0.63
6934.00,0.63
6933.00,0.64
6932.00,0.64
6931.00,0.64
6930.00,0.64
6929.00,0.64
6928.00,0.64
6927.00,0.64
6926.00,0.65
6925.00,0.65
6924.00,0.65
6923.00,0.65
6922.00,0.65
6921.00,0.65
6920.00,0.65
6919.00,0.66
6918.00,0.66
6917.00,0.66
6916.00,0.66
6915.00,0.66
6914.00,0.66
6913.00,0.66
6912.00,0.66
6911.00,0.66
6910.00,0.66
6909.00,0.66
6908.00,0.66
6907.00,0.66
6906.00,0.66
6905.00,0.66
6904.00,0.65
6903.00,0.65
6902.00,0.65
6901.00,0.65
6900.00,0.65
6899.00,0.65
6898.00,0.65
6897.00,0.64
6896.00,0.64
6895.00,0.64
6894.00,0.64
6893.00,0.64
6892.00,0.64
6891.00,0.64
6890.00,0.63
6889.00,0.63
6888.00,0.63
6887.00,0.63
6886.00,0.63
6885.00,0.63
6884.00,0.63
6883.00,0.63
6882.00,0.63
6881.00,0.63
6880.00,0.63
6879.00,0.63
6878.00,0.63
6877.00,0.63
6876.00,0.63
6875.00,0.63
6874.00,0.63
6873.00,0.63
6872.00,0.63
6871.00,0.63
6870.00,0.63
6869.00,0.63
6868.00,0.63
6867.00,0.64
6866.00,0.64
6865.00,0.64
6864.00,0.64
6863.00,0.64
6862.00,0.64
6861.00,0.64
6860.00,0.64
6859.00,0.64
6858.00,0.64
6857.00,0.64
6856.00,0.64
6855.00,0.64
6854.00,0.64
6853.00,0.63
6852.00,0.63
6851.00,0.63
6850.00,0.63
6849.00,0.63
6848.00,0.63
6847.00,0.63
6846.00,0.62
6845.00,0.62
6844.00,0.62
6843.00,0.62
6842.00,0.61
6841.00,0.61
6840.00,0.61
6839.00,0.61
6838.00,0.61
6837.00,0.60
6836.00,0.60
6835.00,0.60
6834.00,0.60
6833.00,0.60
6832.00,0.60
6831.00,0.60
6830.00,0.60
6829.00,0.60
6828.00,0.60
6827.00,0.60
6826.00,0.60
6825.00,0.60
6824.00,0.60
6823.00,0.61
6822.00,0.61
6821.00,0.61
6820.00,0.61
6819.00,0.62
6818.00,0.62
6817.00,0.62
6816.00,0.62
6815.00,0.63
6814.00,0.63
6813.00,0.63
6812.00,0.63
6811.00,0.64
6810.00,0.64
6809.00,0.64
6808.00,0.64
6807.00,0.64
6806.00,0.64
6805.00,0.64
6804.00,0.64
6803.00,0.64
6802.00,0.64
6801.00,0.64
6800.00,0.64
6799.00,0.64
6798.00,0.64
6797.00,0.64
6796.00,0.64
6795.00,0.64
6794.00,0.64
6793.00,0.63
6792.00,0.63
6791.00,0.63
6790.00,0.63
6789.00,0.63
6788.00,0.63
6787.00,0.63
6786.00,0.63
6785.00,0.63
6784.00,0.63
6783.00,0.63
6782.00,0.63
6781.00,0.63
6780.00,0.63
6779.00,0.63
6778.00,0.63
6777.00,0.63
6776.00,0.63
6775.00,0.63
6774.00,0.63
6773.00,0.63
6772.00,0.64
6771.00,0.64
6770.00,0.64
6769.00,0.64
6768.00,0.64
6767.00,0.64
6766.00,0.64
6765.00,0.64
6764.00,0.64
6763.00,0.64
6762.00,0.65
6761.00,0.65
6760.00,0.65
6759.00,0.65
6758.00,0.65
6757.00,0.65
6756.00,0.65
6755.00,0.65
6754.00,0.65
6753.00,0.65
6752.00,0.65
6751.00,0.65
6750.00,0.65
6749.00,0.65
6748.00,0.65
6747.00,0.65
6746.00,0.66
6745.00,0.66
6744.00,0.66
6743.00,0.66
6742.00,0.66
6741.00,0.66
6740.00,0.66
6739.00,0.66
6738.00,0.67
6737.00,0.67
6736.00,0.67
6735.00,0.67
6734.00,0.67
6733.00,0.67
6732.00,0.68
6731.00,0.68
6730.00,0.68
6729.00,0.68
6728.00,0.68
6727.00,0.68
6726.00,0.68
6725.00,0.69
6724.00,0.69
6723.00,0.69
6722.00,0.69
6721.00,0.69
6720.00,0.69
6719.00,0.69
6718.00,0.70
6717.00,0.70
6716.00,0.70
6715.00,0.70
6714.00,0.70
6713.00,0.70
6712.00,0.70
6711.00,0.70
6710.00,0.70
6709.00,0.70
6708.00,0.70
6707.00,0.70
6706.00,0.71
6705.00,0.71
6704.00,0.71
6703.00,0.71
6702.00,0.71
6701.00,0.71
6700.00,0.72
6699.00,0.72
6698.00,0.72
6697.00,0.72
6696.00,0.72
6695.00,0.73
6694.00,0.73
6693.00,0.73
6692.00,0.73
6691.00,0.74
6690.00,0.74
6689.00,0.74
6688.00,0.75
6687.00,0.75
6686.00,0.75
6685.00,0.75
6684.00,0.75
6683.00,0.75
6682.00,0.75
6681.00,0.75
6680.00,0.75
6679.00,0.75
6678.00,0.75
6677.00,0.75
6676.00,0.75
6675.00,0.75
6674.00,0.74
6673.00,0.74
6672.00,0.74
6671.00,0.74
6670.00,0.73
6669.00,0.73
6668.00,0.73
6667.00,0.72
6666.00,0.72
6665.00,0.72
6664.00,0.71
6663.00,0.71
6662.00,0.71
6661.00,0.71
6660.00,0.70
6659.00,0.70
6658.00,0.70
6657.00,0.70
6656.00,0.71
6655.00,0.71
6654.00,0.71
6653.00,0.71
6652.00,0.71
6651.00,0.72
6650.00,0.72
6649.00,0.72
6648.00,0.73
6647.00,0.73
6646.00,0.73
6645.00,0.74
6644.00,0.74
6643.00,0.74
6642.00,0.75
6641.00,0.75
6640.00,0.76
6639.00,0.76
6638.00,0.77
6637.00,0.77
6636.00,0.78
6635.00,0.78
6634.00,0.79
6633.00,0.79
6632.00,0.79
6631.00,0.80
6630.00,0.80
6629.00,0.80
6628.00,0.80
6627.00,0.81
6626.00,0.81
6625.00,0.81
6624.00,0.81
6623.00,0.82
6622.00,0.82
6621.00,0.82
6620.00,0.82
6619.00,0.82
6618.00,0.83
6617.00,0.83
6616.00,0.83
6615.00,0.83
6614.00,0.83
6613.00,0.83
6612.00,0.83
6611.00,0.83
6610.00,0.83
6609.00,0.83
6608.00,0.83
6607.00,0.83
6606.00,0.83
6605.00,0.84
6604.00,0.84
6603.00,0.84
6602.00,0.84
6601.00,0.84
6600.00,0.84
6599.00,0.84
6598.00,0.84
6597.00,0.84
6596.00,0.84
6595.00,0.84
6594.00,0.84
6593.00,0.84
6592.00,0.84
6591.00,0.84
6590.00,0.84
6589.00,0.85
6588.00,0.85
6587.00,0.85
6586.00,0.85
6585.00,0.85
6584.00,0.85
6583.00,0.85
6582.00,0.85
6581.00,0.86
6580.00,0.86
6579.00,0.86
6578.00,0.86
6577.00,0.86
6576.00,0.86
6575.00,0.86
6574.00,0.86
6573.00,0.86
6572.00,0.86
6571.00,0.87
6570.00,0.87
6569.00,0.87
6568.00,0.87
6567.00,0.87
6566.00,0.87
6565.00,0.87
6564.00,0.87
6563.00,0.86
6562.00,0.86
6561.00,0.86
6560.00,0.86
6559.00,0.86
6558.00,0.86
6557.00,0.86
6556.00,0.86
6555.00,0.86
6554.00,0.86
6553.00,0.86
6552.00,0.86
6551.00,0.86
6550.00,0.86
6549.00,0.86
6548.00,0.86
6547.00,0.86
6546.00,0.86
6545.00,0.86
6544.00,0.86
6543.00,0.86
6542.00,0.86
6541.00,0.86
6540.00,0.86
6539.00,0.86
6538.00,0.86
6537.00,0.86
6536.00,0.86
6535.00,0.86
6534.00,0.87
6533.00,0.87
6532.00,0.87
6531.00,0.87
6530.00,0.88
6529.00,0.88
6528.00,0.88
6527.00,0.88
6526.00,0.89
6525.00,0.89
6524.00,0.89
6523.00,0.90
6522.00,0.90
6521.00,0.90
6520.00,0.90
6519.00,0.91
6518.00,0.91
6517.00,0.92
6516.00,0.92
6515.00,0.92
6514.00,0.93
6513.00,0.93
6512.00,0.94
6511.00,0.94
6510.00,0.94
6509.00,0.95
6508.00,0.95
6507.00,0.95
6506.00,0.95
6505.00,0.96
6504.00,0.96
6503.00,0.96
6502.00,0.96
6501.00,0.97
6500.00,0.97
6499.00,0.97
6498.00,0.97
6497.00,0.97
6496.00,0.98
6495.00,0.98
6494.00,0.98
6493.00,0.98
6492.00,0.99
6491.00,0.99
6490.00,0.99
6489.00,0.99
6488.00,0.99
6487.00,0.99
6486.00,0.99
6485.00,0.99
6484.00,1.00
6483.00,1.00
6482.00,1.00
6481.00,1.00
6480.00,1.00
6479.00,1.00
6478.00,1.00
6477.00,1.00
6476.00,1.00
6475.00,1.00
6474.00,1.00
6473.00,1.00
6472.00,1.00
6471.00,1.00
6470.00,1.00
6469.00,1.00
6468.00,0.99
6467.00,0.99
6466.00,0.99
6465.00,0.99
6464.00,0.99
6463.00,0.99
6462.00,0.98
6461.00,0.98
6460.00,0.98
6459.00,0.98
6458.00,0.98
6457.00,0.98
6456.00,0.98
6455.00,0.98
6454.00,0.98
6453.00,0.98
6452.00,0.98
6451.00,0.98
6450.00,0.98
6449.00,0.98
6448.00,0.98
6447.00,0.98
6446.00,0.99
6445.00,0.99
6444.00,0.99
6443.00,0.99
6442.00,0.99
6441.00,0.99
6440.00,0.99
6439.00,0.99
6438.00,0.99
6437.00,1.00
6436.00,1.00
6435.00,1.00
6434.00,0.99
6433.00,0.99
6432.00,0.99
6431.00,0.99
6430.00,0.99
6429.00,0.99
6428.00,0.99
6427.00,0.98
6426.00,0.98
6425.00,0.98
6424.00,0.98
6423.00,0.98
6422.00,0.97
6421.00,0.97
6420.00,0.97
6419.00,0.97
6418.00,0.97
6417.00,0.97
6416.00,0.97
6415.00,0.97
6414.00,0.97
6413.00,0.97
6412.00,0.98
6411.00,0.98
6410.00,0.98
6409.00,0.98
6408.00,0.99
6407.00,0.99
6406.00,0.99
6405.00,1.00
6404.00,1.00
6403.00,1.00
6402.00,1.01
6401.00,1.01
6400.00,1.02
6399.00,1.02
6398.00,1.02
6397.00,1.02
6396.00,1.03
6395.00,1.03
6394.00,1.03
6393.00,1.03
6392.00,1.03
6391.00,1.03
6390.00,1.03
6389.00,1.03
6388.00,1.03
6387.00,1.03
6386.00,1.03
6385.00,1.03
6384.00,1.03
6383.00,1.03
6382.00,1.03
6381.00,1.03
6380.00,1.03
6379.00,1.03
6378.00,1.03
6377.00,1.03
6376.00,1.03
6375.00,1.03
6374.00,1.02
6373.00,1.02
6372.00,1.02
6371.00,1.03
6370.00,1.03
6369.00,1.03
6368.00,1.03
6367.00,1.03
6366.00,1.03
6365.00,1.03
6364.00,1.04
6363.00,1.04
6362.00,1.04
6361.00,1.04
6360.00,1.04
6359.00,1.05
6358.00,1.05
6357.00,1.05
6356.00,1.06
6355.00,1.06
6354.00,1.06
6353.00,1.07
6352.00,1.07
6351.00,1.07
6350.00,1.08
6349.00,1.08
6348.00,1.08
6347.00,1.08
6346.00,1.09
6345.00,1.09
6344.00,1.09
6343.00,1.10
6342.00,1.10
6341.00,1.10
6340.00,1.11
6339.00,1.11
6338.00,1.11
6337.00,1.11
6336.00,1.12
6335.00,1.12
6334.00,1.12
6333.00,1.12
6332.00,1.13
6331.00,1.13
6330.00,1.13
6329.00,1.13
6328.00,1.13
6327.00,1.13
6326.00,1.13
6325.00,1.14
6324.00,1.14
6323.00,1.14
6322.00,1.14
6321.00,1.14
6320.00,1.14
6319.00,1.14
6318.00,1.14
6317.00,1.14
6316.00,1.14
6315.00,1.15
6314.00,1.15
6313.00,1.15
6312.00,1.15
6311.00,1.15
6310.00,1.15
6309.00,1.15
6308.00,1.15
6307.00,1.15
6306.00,1.15
6305.00,1.16
6304.00,1.16
6303.00,1.16
6302.00,1.16
6301.00,1.16
6300.00,1.16
6299.00,1.17
6298.00,1.17
6297.00,1.17
6296.00,1.17
6295.00,1.17
6294.00,1.17
6293.00,1.17
6292.00,1.18
6291.00,1.18
6290.00,1.18
6289.00,1.18
6288.00,1.18
6287.00,1.18
6286.00,1.18
6285.00,1.19
6284.00,1.19
6283.00,1.19
6282.00,1.19
6281.00,1.19
6280.00,1.19
6279.00,1.19
6278.00,1.19
6277.00,1.19
6276.00,1.19
6275.00,1.19
6274.00,1.19
6273.00,1.19
6272.00,1.19
6271.00,1.19
6270.00,1.19
6269.00,1.19
6268.00,1.19
6267.00,1.19
6266.00,1.19
6265.00,1.20
6264.00,1.20
6263.00,1.20
6262.00,1.20
6261.00,1.20
6260.00,1.20
6259.00,1.20
6258.00,1.20
6257.00,1.21
6256.00,1.21
6255.00,1.21
6254.00,1.21
6253.00,1.22
6252.00,1.22
6251.00,1.22
6250.00,1.22
6249.00,1.22
6248.00,1.23
6247.00,1.23
6246.00,1.23
6245.00,1.24
6244.00,1.24
6243.00,1.24
6242.00,1.25
6241.00,1.25
6240.00,1.25
6239.00,1.26
6238.00,1.26
6237.00,1.26
6236.00,1.27
6235.00,1.27
6234.00,1.27
6233.00,1.27
6232.00,1.28
6231.00,1.28
6230.00,1.28
6229.00,1.28
6228.00,1.28
6227.00,1.28
6226.00,1.28
6225.00,1.29
6224.00,1.29
6223.00,1.29
6222.00,1.29
6221.00,1.29
6220.00,1.29
6219.00,1.29
6218.00,1.29
6217.00,1.29
6216.00,1.29
6215.00,1.29
6214.00,1.29
6213.00,1.29
6212.00,1.29
6211.00,1.29
6210.00,1.29
6209.00,1.29
6208.00,1.29
6207.00,1.29
6206.00,1.29
6205.00,1.29
6204.00,1.29
6203.00,1.29
6202.00,1.28
6201.00,1.28
6200.00,1.28
6199.00,1.29
6198.00,1.29
6197.00,1.29
6196.00,1.29
6195.00,1.29
6194.00,1.29
6193.00,1.29
6192.00,1.29
6191.00,1.30
6190.00,1.30
6189.00,1.30
6188.00,1.30
6187.00,1.31
6186.00,1.31
6185.00,1.31
6184.00,1.31
6183.00,1.32
6182.00,1.32
6181.00,1.32
6180.00,1.33
6179.00,1.33
6178.00,1.33
6177.00,1.33
6176.00,1.33
6175.00,1.34
6174.00,1.34
6173.00,1.34
6172.00,1.34
6171.00,1.34
6170.00,1.34
6169.00,1.34
6168.00,1.34
6167.00,1.34
6166.00,1.34
6165.00,1.34
6164.00,1.33
6163.00,1.33
6162.00,1.33
6161.00,1.33
6160.00,1.32
6159.00,1.32
6158.00,1.32
6157.00,1.32
6156.00,1.32
6155.00,1.31
6154.00,1.31
6153.00,1.31
6152.00,1.31
6151.00,1.31
6150.00,1.31
6149.00,1.31
6148.00,1.31
6147.00,1.31
6146.00,1.31
6145.00,1.32
6144.00,1.32
6143.00,1.32
6142.00,1.32
6141.00,1.32
6140.00,1.33
6139.00,1.33
6138.00,1.33
6137.00,1.34
6136.00,1.34
6135.00,1.34
6134.00,1.35
6133.00,1.35
6132.00,1.36
6131.00,1.36
6130.00,1.36
6129.00,1.37
6128.00,1.37
6127.00,1.37
6126.00,1.37
6125.00,1.37
6124.00,1.38
6123.00,1.38
6122.00,1.38
6121.00,1.38
6120.00,1.38
6119.00,1.38
6118.00,1.38
6117.00,1.38
6116.00,1.38
6115.00,1.38
6114.00,1.38
6113.00,1.39
6112.00,1.39
6111.00,1.39
6110.00,1.39
6109.00,1.39
6108.00,1.39
6107.00,1.39
6106.00,1.39
6105.00,1.39
6104.00,1.39
6103.00,1.39
6102.00,1.39
6101.00,1.40
6100.00,1.40
6099.00,1.40
6098.00,1.40
6097.00,1.41
6096.00,1.41
6095.00,1.41
6094.00,1.41
6093.00,1.42
6092.00,1.42
6091.00,1.42
6090.00,1.42
6089.00,1.43
6088.00,1.43
6087.00,1.43
6086.00,1.43
6085.00,1.43
6084.00,1.43
6083.00,1.43
6082.00,1.43
6081.00,1.43
6080.00,1.43
6079.00,1.43
6078.00,1.43
6077.00,1.43
6076.00,1.43
6075.00,1.42
6074.00,1.42
6073.00,1.42
6072.00,1.42
6071.00,1.42
6070.00,1.42
6069.00,1.42
6068.00,1.42
6067.00,1.41
6066.00,1.41
6065.00,1.41
6064.00,1.41
6063.00,1.41
6062.00,1.41
6061.00,1.41
6060.00,1.41
6059.00,1.41
6058.00,1.41
6057.00,1.41
6056.00,1.41
6055.00,1.42
6054.00,1.42
6053.00,1.42
6052.00,1.42
6051.00,1.42
6050.00,1.42
6049.00,1.43
6048.00,1.43
6047.00,1.43
6046.00,1.43
6045.00,1.43
6044.00,1.44
6043.00,1.44
6042.00,1.44
6041.00,1.44
6040.00,1.44
6039.00,1.44
6038.00,1.45
6037.00,1.45
6036.00,1.45
6035.00,1.45
6034.00,1.45
6033.00,1.46
6032.00,1.46
6031.00,1.46
6030.00,1.46
6029.00,1.46
6028.00,1.46
6027.00,1.46
6026.00,1.46
6025.00,1.46
6024.00,1.46
6023.00,1.46
6022.00,1.46
6021.00,1.46
6020.00,1.46
6019.00,1.46
6018.00,1.46
6017.00,1.46
6016.00,1.46
6015.00,1.46
6014.00,1.46
6013.00,1.46
6012.00,1.46
6011.00,1.46
6010.00,1.46
6009.00,1.46
6008.00,1.46
6007.00,1.46
6006.00,1.46
6005.00,1.45
6004.00,1.45
6003.00,1.45
6002.00,1.45
6001.00,1.45
6000.00,1.45
5999.00,1.45
5998.00,1.45
5997.00,1.45
5996.00,1.45
5995.00,1.45
5994.00,1.45
5993.00,1.44
5992.00,1.44
5991.00,1.44
5990.00,1.44
5989.00,1.44
5988.00,1.44
5987.00,1.44
5986.00,1.44
5985.00,1.44
5984.00,1.44
5983.00,1.44
5982.00,1.44
5981.00,1.44
5980.00,1.44
5979.00,1.44
5978.00,1.44
5977.00,1.44
5976.00,1.44
5975.00,1.44
5974.00,1.44
5973.00,1.44
5972.00,1.44
5971.00,1.44
5970.00,1.45
5969.00,1.45
5968.00,1.45
5967.00,1.45
5966.00,1.45
5965.00,1.45
5964.00,1.45
5963.00,1.45
5962.00,1.45
5961.00,1.45
5960.00,1.45
5959.00,1.45
5958.00,1.45
5957.00,1.45
5956.00,1.45
5955.00,1.45
5954.00,1.45
5953.00,1.45
5952.00,1.44
5951.00,1.44
5950.00,1.44
5949.00,1.44
5948.00,1.44
5947.00,1.43
5946.00,1.43
5945.00,1.43
5944.00,1.43
5943.00,1.43
5942.00,1.42
5941.00,1.42
5940.00,1.42
5939.00,1.42
5938.00,1.42
5937.00,1.41
5936.00,1.41
5935.00,1.41
5934.00,1.41
5933.00,1.41
5932.00,1.41
5931.00,1.40
5930.00,1.40
5929.00,1.40
5928.00,1.40
5927.00,1.40
5926.00,1.40
5925.00,1.40
5924.00,1.40
5923.00,1.40
5922.00,1.40
5921.00,1.40
5920.00,1.40
5919.00,1.40
5918.00,1.40
5917.00,1.40
5916.00,1.40
5915.00,1.40
5914.00,1.40
5913.00,1.40
5912.00,1.40
5911.00,1.40
5910.00,1.40
5909.00,1.40
5908.00,1.40
5907.00,1.40
5906.00,1.40
5905.00,1.40
5904.00,1.40
5903.00,1.40
5902.00,1.40
5901.00,1.40
5900.00,1.40
5899.00,1.40
5898.00,1.40
5897.00,1.39
5896.00,1.39
5895.00,1.39
5894.00,1.39
5893.00,1.39
5892.00,1.39
5891.00,1.39
5890.00,1.39
5889.00,1.39
5888.00,1.39
5887.00,1.39
5886.00,1.39
5885.00,1.39
5884.00,1.39
5883.00,1.39
5882.00,1.39
5881.00,1.39
5880.00,1.39
5879.00,1.40
5878.00,1.40
5877.00,1.40
5876.00,1.40
5875.00,1.40
5874.00,1.40
5873.00,1.40
5872.00,1.40
5871.00,1.41
5870.00,1.41
5869.00,1.41
5868.00,1.41
5867.00,1.41
5866.00,1.42
5865.00,1.42
5864.00,1.42
5863.00,1.42
5862.00,1.43
5861.00,1.43
5860.00,1.43
5859.00,1.43
5858.00,1.43
5857.00,1.43
5856.00,1.44
5855.00,1.44
5854.00,1.44
5853.00,1.44
5852.00,1.44
5851.00,1.44
5850.00,1.44
5849.00,1.44
5848.00,1.45
5847.00,1.45
5846.00,1.45
5845.00,1.45
5844.00,1.45
5843.00,1.45
5842.00,1.45
5841.00,1.45
5840.00,1.45
5839.00,1.45
5838.00,1.45
5837.00,1.45
5836.00,1.45
5835.00,1.45
5834.00,1.45
5833.00,1.45
5832.00,1.45
5831.00,1.45
5830.00,1.45
5829.00,1.45
5828.00,1.45
5827.00,1.45
5826.00,1.45
5825.00,1.44
5824.00,1.44
5823.00,1.44
5822.00,1.44
5821.00,1.44
5820.00,1.44
5819.00,1.44
5818.00,1.44
5817.00,1.44
5816.00,1.44
5815.00,1.44
5814.00,1.44
5813.00,1.44
5812.00,1.44
5811.00,1.43
5810.00,1.43
5809.00,1.43
5808.00,1.43
5807.00,1.43
5806.00,1.42
5805.00,1.42
5804.00,1.42
5803.00,1.42
5802.00,1.42
5801.00,1.41
5800.00,1.41
5799.00,1.41
5798.00,1.41
5797.00,1.41
5796.00,1.41
5795.00,1.40
5794.00,1.40
5793.00,1.40
5792.00,1.40
5791.00,1.40
5790.00,1.40
5789.00,1.40
5788.00,1.40
5787.00,1.40
5786.00,1.40
5785.00,1.40
5784.00,1.40
5783.00,1.40
5782.00,1.40
5781.00,1.39
5780.00,1.39
5779.00,1.39
5778.00,1.39
5777.00,1.39
5776.00,1.39
5775.00,1.39
5774.00,1.39
5773.00,1.39
5772.00,1.39
5771.00,1.38
5770.00,1.38
5769.00,1.38
5768.00,1.38
5767.00,1.38
5766.00,1.38
5765.00,1.38
5764.00,1.38
5763.00,1.38
5762.00,1.37
5761.00,1.37
5760.00,1.37
5759.00,1.37
5758.00,1.37
5757.00,1.37
5756.00,1.37
5755.00,1.37
5754.00,1.38
5753.00,1.38
5752.00,1.38
5751.00,1.38
5750.00,1.39
5749.00,1.39
5748.00,1.40
5747.00,1.40
5746.00,1.40
5745.00,1.41
5744.00,1.41
5743.00,1.41
5742.00,1.42
5741.00,1.42
5740.00,1.42
5739.00,1.43
5738.00,1.43
5737.00,1.43
5736.00,1.44
5735.00,1.44
5734.00,1.44
5733.00,1.44
5732.00,1.44
5731.00,1.44
5730.00,1.44
5729.00,1.44
5728.00,1.44
5727.00,1.44
5726.00,1.44
5725.00,1.44
5724.00,1.44
5723.00,1.43
5722.00,1.43
5721.00,1.43
5720.00,1.42
5719.00,1.42
5718.00,1.42
5717.00,1.41
5716.00,1.41
5715.00,1.41
5714.00,1.40
5713.00,1.40
5712.00,1.39
5711.00,1.39
5710.00,1.38
5709.00,1.38
5708.00,1.37
5707.00,1.37
5706.00,1.37
5705.00,1.36
5704.00,1.36
5703.00,1.36
5702.00,1.35
5701.00,1.35
5700.00,1.35
5699.00,1.35
5698.00,1.35
5697.00,1.35
5696.00,1.35
5695.00,1.35
5694.00,1.35
5693.00,1.35
5692.00,1.35
5691.00,1.35
5690.00,1.35
5689.00,1.35
5688.00,1.35
5687.00,1.35
5686.00,1.35
5685.00,1.36
5684.00,1.36
5683.00,1.36
5682.00,1.36
5681.00,1.36
5680.00,1.37
5679.00,1.37
5678.00,1.37
5677.00,1.37
5676.00,1.37
5675.00,1.37
5674.00,1.37
5673.00,1.37
5672.00,1.37
5671.00,1.37
5670.00,1.37
5669.00,1.37
5668.00,1.37
5667.00,1.37
5666.00,1.37
5665.00,1.37
5664.00,1.37
5663.00,1.37
5662.00,1.37
5661.00,1.37
5660.00,1.37
5659.00,1.37
5658.00,1.37
5657.00,1.37
5656.00,1.37
5655.00,1.37
5654.00,1.37
5653.00,1.37
5652.00,1.37
5651.00,1.37
5650.00,1.37
5649.00,1.37
5648.00,1.37
5647.00,1.37
5646.00,1.37
5645.00,1.38
5644.00,1.38
5643.00,1.38
5642.00,1.38
5641.00,1.38
5640.00,1.38
5639.00,1.38
5638.00,1.38
5637.00,1.37
5636.00,1.37
5635.00,1.37
5634.00,1.37
5633.00,1.37
5632.00,1.37
5631.00,1.37
5630.00,1.37
5629.00,1.37
5628.00,1.37
5627.00,1.37
5626.00,1.37
5625.00,1.37
5624.00,1.37
5623.00,1.37
5622.00,1.37
5621.00,1.37
5620.00,1.37
5619.00,1.37
5618.00,1.37
5617.00,1.37
5616.00,1.37
5615.00,1.37
5614.00,1.37
5613.00,1.38
5612.00,1.38
5611.00,1.38
5610.00,1.38
5609.00,1.38
5608.00,1.38
5607.00,1.38
5606.00,1.39
5605.00,1.39
5604.00,1.39
5603.00,1.39
5602.00,1.39
5601.00,1.39
5600.00,1.39
5599.00,1.39
5598.00,1.39
5597.00,1.40
5596.00,1.40
5595.00,1.40
5594.00,1.40
5593.00,1.40
5592.00,1.40
5591.00,1.40
5590.00,1.40
5589.00,1.40
5588.00,1.40
5587.00,1.40
5586.00,1.40
5585.00,1.40
5584.00,1.40
5583.00,1.40
5582.00,1.40
5581.00,1.40
5580.00,1.40
5579.00,1.40
5578.00,1.40
5577.00,1.40
5576.00,1.40
5575.00,1.40
5574.00,1.40
5573.00,1.40
5572.00,1.40
5571.00,1.40
5570.00,1.40
5569.00,1.40
5568.00,1.40
5567.00,1.40
5566.00,1.40
5565.00,1.40
5564.00,1.40
5563.00,1.40
5562.00,1.40
5561.00,1.40
5560.00,1.40
5559.00,1.40
5558.00,1.41
5557.00,1.41
5556.00,1.41
5555.00,1.41
5554.00,1.41
5553.00,1.41
5552.00,1.41
5551.00,1.41
5550.00,1.41
5549.00,1.41
5548.00,1.42
5547.00,1.42
5546.00,1.42
5545.00,1.42
5544.00,1.42
5543.00,1.42
5542.00,1.42
5541.00,1.42
5540.00,1.42
5539.00,1.42
5538.00,1.42
5537.00,1.42
5536.00,1.42
5535.00,1.42
5534.00,1.42
5533.00,1.42
5532.00,1.42
5531.00,1.42
5530.00,1.42
5529.00,1.42
5528.00,1.42
5527.00,1.42
5526.00,1.42
5525.00,1.42
5524.00,1.42
5523.00,1.42
5522.00,1.42
5521.00,1.42
5520.00,1.42
5519.00,1.42
5518.00,1.42
5517.00,1.42
5516.00,1.43
5515.00,1.43
5514.00,1.43
5513.00,1.43
5512.00,1.43
5511.00,1.43
5510.00,1.43
5509.00,1.44
5508.00,1.44
5507.00,1.44
5506.00,1.44
5505.00,1.44
5504.00,1.44
5503.00,1.45
5502.00,1.45
5501.00,1.45
5500.00,1.45
5499.00,1.45
5498.00,1.45
5497.00,1.45
5496.00,1.45
5495.00,1.45
5494.00,1.45
5493.00,1.45
5492.00,1.46
5491.00,1.46
5490.00,1.46
5489.00,1.46
5488.00,1.46
5487.00,1.46
5486.00,1.46
5485.00,1.46
5484.00,1.46
5483.00,1.46
5482.00,1.46
5481.00,1.46
5480.00,1.46
5479.00,1.46
5478.00,1.47
5477.00,1.47
5476.00,1.47
5475.00,1.47
5474.00,1.47
5473.00,1.47
5472.00,1.48
5471.00,1.48
5470.00,1.48
5469.00,1.48
5468.00,1.49
5467.00,1.49
5466.00,1.49
5465.00,1.49
5464.00,1.50
5463.00,1.50
5462.00,1.50
5461.00,1.50
5460.00,1.50
5459.00,1.51
5458.00,1.51
5457.00,1.51
5456.00,1.51
5455.00,1.51
5454.00,1.51
5453.00,1.52
5452.00,1.52
5451.00,1.52
5450.00,1.52
5449.00,1.52
5448.00,1.52
5447.00,1.52
5446.00,1.52
5445.00,1.52
5444.00,1.52
5443.00,1.52
5442.00,1.52
5441.00,1.52
5440.00,1.51
5439.00,1.51
5438.00,1.51
5437.00,1.51
5436.00,1.50
5435.00,1.50
5434.00,1.50
5433.00,1.49
5432.00,1.49
5431.00,1.49
5430.00,1.49
5429.00,1.48
5428.00,1.48
5427.00,1.47
5426.00,1.47
5425.00,1.47
5424.00,1.46
5423.00,1.46
5422.00,1.45
5421.00,1.45
5420.00,1.45
5419.00,1.44
5418.00,1.44
5417.00,1.44
5416.00,1.43
5415.00,1.43
5414.00,1.43
5413.00,1.43
5412.00,1.42
5411.00,1.42
5410.00,1.42
5409.00,1.42
5408.00,1.42
5407.00,1.42
5406.00,1.42
5405.00,1.41
5404.00,1.41
5403.00,1.41
5402.00,1.41
5401.00,1.41
5400.00,1.41
5399.00,1.41
5398.00,1.41
5397.00,1.41
5396.00,1.41
5395.00,1.41
5394.00,1.41
5393.00,1.40
5392.00,1.40
5391.00,1.40
5390.00,1.40
5389.00,1.40
5388.00,1.39
5387.00,1.39
5386.00,1.39
5385.00,1.38
5384.00,1.38
5383.00,1.37
5382.00,1.37
5381.00,1.36
5380.00,1.36
5379.00,1.35
5378.00,1.35
5377.00,1.34
5376.00,1.33
5375.00,1.32
5374.00,1.32
5373.00,1.31
5372.00,1.30
5371.00,1.29
5370.00,1.29
5369.00,1.28
5368.00,1.27
5367.00,1.27
5366.00,1.26
5365.00,1.25
5364.00,1.24
5363.00,1.24
5362.00,1.23
5361.00,1.22
5360.00,1.21
5359.00,1.21
5358.00,1.20
5357.00,1.19
5356.00,1.18
5355.00,1.18
5354.00,1.17
5353.00,1.16
5352.00,1.15
5351.00,1.15
5350.00,1.14
5349.00,1.13
5348.00,1.13
5347.00,1.12
5346.00,1.12
5345.00,1.11
5344.00,1.10
5343.00,1.10
5342.00,1.09
5341.00,1.08
5340.00,1.07
5339.00,1.07
5338.00,1.06
5337.00,1.05
5336.00,1.04
5335.00,1.04
5334.00,1.03
5333.00,1.02
5332.00,1.02
5331.00,1.01
5330.00,1.01
5329.00,1.00
5328.00,0.99
5327.00,0.99
5326.00,0.98
5325.00,0.98
5324.00,0.97
5323.00,0.97
5322.00,0.96
5321.00,0.95
5320.00,0.95
5319.00,0.94
5318.00,0.94
5317.00,0.93
5316.00,0.93
5315.00,0.92
5314.00,0.92
5313.00,0.91
5312.00,0.91
5311.00,0.90
5310.00,0.90
5309.00,0.90
5308.00,0.90
5307.00,0.89
5306.00,0.89
5305.00,0.89
5304.00,0.89
5303.00,0.88
5302.00,0.88
5301.00,0.88
5300.00,0.87
5299.00,0.87
5298.00,0.87
5297.00,0.87
5296.00,0.86
5295.00,0.86
5294.00,0.86
5293.00,0.86
5292.00,0.86
5291.00,0.86
5290.00,0.86
5289.00,0.85
5288.00,0.85
5287.00,0.85
5286.00,0.85
5285.00,0.85
5284.00,0.85
5283.00,0.85
5282.00,0.85
5281.00,0.84
5280.00,0.84
5279.00,0.84
5278.00,0.84
5277.00,0.84
5276.00,0.84
5275.00,0.84
5274.00,0.84
5273.00,0.84
5272.00,0.84
5271.00,0.83
5270.00,0.83
5269.00,0.83
5268.00,0.83
5267.00,0.83
5266.00,0.83
5265.00,0.83
5264.00,0.83
5263.00,0.83
5262.00,0.83
5261.00,0.83
5260.00,0.83
5259.00,0.83
5258.00,0.83
5257.00,0.83
5256.00,0.83
5255.00,0.83
5254.00,0.83
5253.00,0.83
5252.00,0.83
5251.00,0.83
5250.00,0.83
5249.00,0.83
5248.00,0.83
5247.00,0.83
5246.00,0.83
5245.00,0.83
5244.00,0.83
5243.00,0.83
5242.00,0.83
5241.00,0.83
5240.00,0.84
5239.00,0.84
5238.00,0.84
5237.00,0.84
5236.00,0.84
5235.00,0.84
5234.00,0.84
5233.00,0.83
5232.00,0.83
5231.00,0.83
5230.00,0.83
5229.00,0.83
5228.00,0.83
5227.00,0.83
5226.00,0.83
5225.00,0.83
5224.00,0.83
5223.00,0.83
5222.00,0.83
5221.00,0.83
5220.00,0.83
5219.00,0.83
5218.00,0.83
5217.00,0.83
5216.00,0.83
5215.00,0.83
5214.00,0.83
5213.00,0.83
5212.00,0.83
5211.00,0.83
5210.00,0.83
5209.00,0.83
5208.00,0.83
5207.00,0.83
5206.00,0.83
5205.00,0.83
5204.00,0.83
5203.00,0.83
5202.00,0.83
5201.00,0.83
5200.00,0.83
5199.00,0.83
5198.00,0.83
5197.00,0.83
5196.00,0.83
5195.00,0.83
5194.00,0.83
5193.00,0.83
5192.00,0.83
5191.00,0.83
5190.00,0.83
5189.00,0.83
5188.00,0.83
5187.00,0.83
5186.00,0.83
5185.00,0.83
5184.00,0.83
5183.00,0.83
5182.00,0.83
5181.00,0.83
5180.00,0.83
5179.00,0.83
5178.00,0.83
5177.00,0.83
5176.00,0.83
5175.00,0.83
5174.00,0.83
5173.00,0.83
5172.00,0.83
5171.00,0.83
5170.00,0.83
5169.00,0.83
5168.00,0.83
5167.00,0.83
5166.00,0.83
5165.00,0.83
5164.00,0.83
5163.00,0.83
5162.00,0.83
5161.00,0.83
5160.00,0.83
5159.00,0.83
5158.00,0.83
5157.00,0.83
5156.00,0.83
5155.00,0.83
5154.00,0.83
5153.00,0.83
5152.00,0.83
5151.00,0.83
5150.00,0.82
5149.00,0.82
5148.00,0.82
5147.00,0.82
5146.00,0.82
5145.00,0.82
5144.00,0.82
5143.00,0.82
5142.00,0.82
5141.00,0.83
5140.00,0.83
5139.00,0.83
5138.00,0.83
5137.00,0.83
5136.00,0.83
5135.00,0.84
5134.00,0.84
5133.00,0.84
5132.00,0.84
5131.00,0.84
5130.00,0.84
5129.00,0.85
5128.00,0.85
5127.00,0.85
5126.00,0.85
5125.00,0.85
5124.00,0.86
5123.00,0.86
5122.00,0.86
5121.00,0.86
5120.00,0.86
5119.00,0.87
5118.00,0.87
5117.00,0.87
5116.00,0.87
5115.00,0.87
5114.00,0.87
5113.00,0.87
5112.00,0.87
5111.00,0.87
5110.00,0.87
5109.00,0.87
5108.00,0.87
5107.00,0.87
5106.00,0.87
5105.00,0.87
5104.00,0.87
5103.00,0.87
5102.00,0.87
5101.00,0.87
5100.00,0.87
5099.00,0.87
5098.00,0.87
5097.00,0.87
5096.00,0.88
5095.00,0.88
5094.00,0.88
5093.00,0.88
5092.00,0.88
5091.00,0.88
5090.00,0.88
5089.00,0.88
5088.00,0.88
5087.00,0.88
5086.00,0.88
5085.00,0.88
5084.00,0.88
5083.00,0.88
5082.00,0.88
5081.00,0.88
5080.00,0.88
5079.00,0.88
5078.00,0.88
5077.00,0.88
5076.00,0.88
5075.00,0.88
5074.00,0.88
5073.00,0.87
5072.00,0.87
5071.00,0.87
5070.00,0.87
5069.00,0.87
5068.00,0.87
5067.00,0.87
5066.00,0.87
5065.00,0.87
5064.00,0.86
5063.00,0.86
5062.00,0.86
5061.00,0.86
5060.00,0.86
5059.00,0.86
5058.00,0.86
5057.00,0.86
5056.00,0.86
5055.00,0.86
5054.00,0.86
5053.00,0.86
5052.00,0.86
5051.00,0.86
5050.00,0.86
5049.00,0.86
5048.00,0.86
5047.00,0.86
5046.00,0.86
5045.00,0.86
5044.00,0.86
5043.00,0.86
5042.00,0.86
5041.00,0.86
5040.00,0.86
5039.00,0.86
5038.00,0.86
5037.00,0.86
5036.00,0.86
5035.00,0.87
5034.00,0.87
5033.00,0.87
5032.00,0.87
5031.00,0.87
5030.00,0.87
5029.00,0.87
5028.00,0.87
5027.00,0.87
5026.00,0.87
5025.00,0.87
5024.00,0.87
5023.00,0.87
5022.00,0.87
5021.00,0.87
5020.00,0.87
5019.00,0.87
5018.00,0.87
5017.00,0.87
5016.00,0.87
5015.00,0.87
5014.00,0.87
5013.00,0.87
5012.00,0.87
5011.00,0.87
5010.00,0.87
5009.00,0.87
5008.00,0.87
5007.00,0.87
5006.00,0.87
5005.00,0.86
5004.00,0.86
5003.00,0.86
5002.00,0.86
5001.00,0.86
5000.00,0.86
4999.00,0.86
4998.00,0.86
4997.00,0.86
4996.00,0.86
4995.00,0.86
4994.00,0.86
4993.00,0.86
4992.00,0.86
4991.00,0.86
4990.00,0.86
4989.00,0.86
4988.00,0.86
4987.00,0.86
4986.00,0.86
4985.00,0.86
4984.00,0.86
4983.00,0.86
4982.00,0.86
4981.00,0.86
4980.00,0.86
4979.00,0.86
4978.00,0.86
4977.00,0.86
4976.00,0.86
4975.00,0.86
4974.00,0.86
4973.00,0.87
4972.00,0.87
4971.00,0.87
4970.00,0.87
4969.00,0.87
4968.00,0.87
4967.00,0.87
4966.00,0.88
4965.00,0.88
4964.00,0.88
4963.00,0.88
4962.00,0.88
4961.00,0.88
4960.00,0.89
4959.00,0.89
4958.00,0.89
4957.00,0.89
4956.00,0.90
4955.00,0.90
4954.00,0.90
4953.00,0.90
4952.00,0.91
4951.00,0.91
4950.00,0.91
4949.00,0.91
4948.00,0.91
4947.00,0.91
4946.00,0.91
4945.00,0.92
4944.00,0.92
4943.00,0.92
4942.00,0.92
4941.00,0.92
4940.00,0.92
4939.00,0.92
4938.00,0.92
4937.00,0.93
4936.00,0.93
4935.00,0.93
4934.00,0.93
4933.00,0.93
4932.00,0.93
4931.00,0.93
4930.00,0.93
4929.00,0.93
4928.00,0.93
4927.00,0.93
4926.00,0.93
4925.00,0.93
4924.00,0.93
4923.00,0.93
4922.00,0.93
4921.00,0.93
4920.00,0.93
4919.00,0.93
4918.00,0.93
4917.00,0.93
4916.00,0.93
4915.00,0.92
4914.00,0.92
4913.00,0.92
4912.00,0.92
4911.00,0.92
4910.00,0.92
4909.00,0.92
4908.00,0.92
4907.00,0.92
4906.00,0.92
4905.00,0.92
4904.00,0.92
4903.00,0.92
4902.00,0.92
4901.00,0.92
4900.00,0.92
4899.00,0.92
4898.00,0.91
4897.00,0.91
4896.00,0.91
4895.00,0.91
4894.00,0.91
4893.00,0.91
4892.00,0.91
4891.00,0.91
4890.00,0.91
4889.00,0.91
4888.00,0.91
4887.00,0.91
4886.00,0.91
4885.00,0.91
4884.00,0.91
4883.00,0.92
4882.00,0.92
4881.00,0.92
4880.00,0.92
4879.00,0.92
4878.00,0.92
4877.00,0.92
4876.00,0.92
4875.00,0.93
4874.00,0.93
4873.00,0.93
4872.00,0.93
4871.00,0.93
4870.00,0.94
4869.00,0.94
4868.00,0.94
4867.00,0.94
4866.00,0.94
4865.00,0.94
4864.00,0.95
4863.00,0.95
4862.00,0.95
4861.00,0.95
4860.00,0.95
4859.00,0.95
4858.00,0.96
4857.00,0.96
4856.00,0.96
4855.00,0.96
4854.00,0.96
4853.00,0.96
4852.00,0.96
4851.00,0.96
4850.00,0.97
4849.00,0.97
4848.00,0.97
4847.00,0.97
4846.00,0.97
4845.00,0.97
4844.00,0.97
4843.00,0.97
4842.00,0.97
4841.00,0.97
4840.00,0.97
4839.00,0.97
4838.00,0.97
4837.00,0.97
4836.00,0.97
4835.00,0.97
4834.00,0.97
4833.00,0.97
4832.00,0.97
4831.00,0.97
4830.00,0.97
4829.00,0.97
4828.00,0.97
4827.00,0.97
4826.00,0.97
4825.00,0.97
4824.00,0.97
4823.00,0.97
4822.00,0.98
4821.00,0.98
4820.00,0.98
4819.00,0.98
4818.00,0.98
4817.00,0.98
4816.00,0.99
4815.00,0.99
4814.00,0.99
4813.00,0.99
4812.00,1.00
4811.00,1.00
4810.00,1.00
4809.00,1.01
4808.00,1.01
4807.00,1.01
4806.00,1.02
4805.00,1.02
4804.00,1.02
4803.00,1.03
4802.00,1.03
4801.00,1.03
4800.00,1.04
4799.00,1.04
4798.00,1.04
4797.00,1.04
4796.00,1.04
4795.00,1.05
4794.00,1.05
4793.00,1.05
4792.00,1.05
4791.00,1.05
4790.00,1.05
4789.00,1.05
4788.00,1.05
4787.00,1.05
4786.00,1.05
4785.00,1.05
4784.00,1.05
4783.00,1.05
4782.00,1.05
4781.00,1.05
4780.00,1.04
4779.00,1.04
4778.00,1.04
4777.00,1.04
4776.00,1.04
4775.00,1.04
4774.00,1.04
4773.00,1.04
4772.00,1.04
4771.00,1.05
4770.00,1.05
4769.00,1.05
4768.00,1.05
4767.00,1.05
4766.00,1.05
4765.00,1.06
4764.00,1.06
4763.00,1.06
4762.00,1.06
4761.00,1.06
4760.00,1.06
4759.00,1.06
4758.00,1.06
4757.00,1.07
4756.00,1.07
4755.00,1.07
4754.00,1.07
4753.00,1.07
4752.00,1.07
4751.00,1.07
4750.00,1.07
4749.00,1.07
4748.00,1.07
4747.00,1.07
4746.00,1.07
4745.00,1.07
4744.00,1.07
4743.00,1.07
4742.00,1.07
4741.00,1.07
4740.00,1.07
4739.00,1.07
4738.00,1.07
4737.00,1.07
4736.00,1.07
4735.00,1.07
4734.00,1.07
4733.00,1.07
4732.00,1.07
4731.00,1.07
4730.00,1.07
4729.00,1.07
4728.00,1.06
4727.00,1.06
4726.00,1.06
4725.00,1.06
4724.00,1.06
4723.00,1.06
4722.00,1.06
4721.00,1.06
4720.00,1.06
4719.00,1.06
4718.00,1.07
4717.00,1.07
4716.00,1.07
4715.00,1.07
4714.00,1.08
4713.00,1.08
4712.00,1.08
4711.00,1.08
4710.00,1.08
4709.00,1.09
4708.00,1.09
4707.00,1.09
4706.00,1.09
4705.00,1.09
4704.00,1.10
4703.00,1.10
4702.00,1.10
4701.00,1.11
4700.00,1.11
4699.00,1.11
4698.00,1.11
4697.00,1.12
4696.00,1.12
4695.00,1.12
4694.00,1.12
4693.00,1.12
4692.00,1.12
4691.00,1.12
4690.00,1.12
4689.00,1.12
4688.00,1.12
4687.00,1.12
4686.00,1.12
4685.00,1.12
4684.00,1.12
4683.00,1.12
4682.00,1.12
4681.00,1.12
4680.00,1.12
4679.00,1.13
4678.00,1.13
4677.00,1.13
4676.00,1.13
4675.00,1.13
4674.00,1.13
4673.00,1.13
4672.00,1.12
4671.00,1.12
4670.00,1.12
4669.00,1.12
4668.00,1.12
4667.00,1.12
4666.00,1.12
4665.00,1.12
4664.00,1.13
4663.00,1.13
4662.00,1.13
4661.00,1.13
4660.00,1.13
4659.00,1.13
4658.00,1.13
4657.00,1.13
4656.00,1.13
4655.00,1.13
4654.00,1.13
4653.00,1.13
4652.00,1.13
4651.00,1.13
4650.00,1.14
4649.00,1.14
4648.00,1.14
4647.00,1.15
4646.00,1.15
4645.00,1.15
4644.00,1.16
4643.00,1.16
4642.00,1.17
4641.00,1.18
4640.00,1.18
4639.00,1.19
4638.00,1.19
4637.00,1.20
4636.00,1.20
4635.00,1.21
4634.00,1.21
4633.00,1.22
4632.00,1.22
4631.00,1.23
4630.00,1.23
4629.00,1.23
4628.00,1.24
4627.00,1.24
4626.00,1.24
4625.00,1.25
4624.00,1.25
4623.00,1.25
4622.00,1.25
4621.00,1.25
4620.00,1.25
4619.00,1.25
4618.00,1.25
4617.00,1.25
4616.00,1.25
4615.00,1.24
4614.00,1.24
4613.00,1.24
4612.00,1.24
4611.00,1.24
4610.00,1.23
4609.00,1.23
4608.00,1.23
4607.00,1.23
4606.00,1.23
4605.00,1.23
4604.00,1.23
4603.00,1.23
4602.00,1.23
4601.00,1.23
4600.00,1.23
4599.00,1.23
4598.00,1.23
4597.00,1.23
4596.00,1.23
4595.00,1.23
4594.00,1.23
4593.00,1.23
4592.00,1.23
4591.00,1.23
4590.00,1.23
4589.00,1.23
4588.00,1.24
4587.00,1.24
4586.00,1.24
4585.00,1.24
4584.00,1.24
4583.00,1.24
4582.00,1.24
4581.00,1.24
4580.00,1.24
4579.00,1.24
4578.00,1.24
4577.00,1.24
4576.00,1.24
4575.00,1.24
4574.00,1.24
4573.00,1.24
4572.00,1.24
4571.00,1.24
4570.00,1.24
4569.00,1.24
4568.00,1.24
4567.00,1.24
4566.00,1.24
4565.00,1.24
4564.00,1.24
4563.00,1.24
4562.00,1.24
4561.00,1.24
4560.00,1.24
4559.00,1.24
4558.00,1.24
4557.00,1.24
4556.00,1.24
4555.00,1.24
4554.00,1.25
4553.00,1.25
4552.00,1.25
4551.00,1.25
4550.00,1.25
4549.00,1.25
4548.00,1.25
4547.00,1.25
4546.00,1.25
4545.00,1.25
4544.00,1.25
4543.00,1.25
4542.00,1.25
4541.00,1.25
4540.00,1.25
4539.00,1.25
4538.00,1.25
4537.00,1.26
4536.00,1.26
4535.00,1.26
4534.00,1.26
4533.00,1.26
4532.00,1.26
4531.00,1.26
4530.00,1.26
4529.00,1.26
4528.00,1.26
4527.00,1.26
4526.00,1.26
4525.00,1.26
4524.00,1.26
4523.00,1.26
4522.00,1.26
4521.00,1.26
4520.00,1.26
4519.00,1.26
4518.00,1.26
4517.00,1.26
4516.00,1.26
4515.00,1.26
4514.00,1.25
4513.00,1.25
4512.00,1.25
4511.00,1.25
4510.00,1.25
4509.00,1.25
4508.00,1.25
4507.00,1.25
4506.00,1.25
4505.00,1.25
4504.00,1.25
4503.00,1.25
4502.00,1.25
4501.00,1.25
4500.00,1.25
4499.00,1.25
4498.00,1.25
4497.00,1.25
4496.00,1.25
4495.00,1.25
4494.00,1.25
4493.00,1.25
4492.00,1.25
4491.00,1.25
4490.00,1.25
4489.00,1.25
4488.00,1.25
4487.00,1.25
4486.00,1.25
4485.00,1.25
4484.00,1.25
4483.00,1.25
4482.00,1.24
4481.00,1.24
4480.00,1.24
4479.00,1.24
4478.00,1.24
4477.00,1.23
4476.00,1.23
4475.00,1.23
4474.00,1.23
4473.00,1.23
4472.00,1.23
4471.00,1.23
4470.00,1.23
4469.00,1.23
4468.00,1.22
4467.00,1.22
4466.00,1.22
4465.00,1.22
4464.00,1.22
4463.00,1.22
4462.00,1.21
4461.00,1.21
4460.00,1.21
4459.00,1.21
4458.00,1.21
4457.00,1.21
4456.00,1.21
4455.00,1.21
4454.00,1.20
4453.00,1.20
4452.00,1.20
4451.00,1.20
4450.00,1.20
4449.00,1.20
4448.00,1.19
4447.00,1.19
4446.00,1.19
4445.00,1.19
4444.00,1.18
4443.00,1.18
4442.00,1.17
4441.00,1.17
4440.00,1.17
4439.00,1.16
4438.00,1.16
4437.00,1.16
4436.00,1.15
4435.00,1.15
4434.00,1.15
4433.00,1.14
4432.00,1.14
4431.00,1.14
4430.00,1.13
4429.00,1.13
4428.00,1.13
4427.00,1.12
4426.00,1.12
4425.00,1.12
4424.00,1.12
4423.00,1.11
4422.00,1.11
4421.00,1.11
4420.00,1.11
4419.00,1.11
4418.00,1.11
4417.00,1.11
4416.00,1.11
4415.00,1.11
4414.00,1.11
4413.00,1.11
4412.00,1.11
4411.00,1.12
4410.00,1.12
4409.00,1.12
4408.00,1.12
4407.00,1.12
4406.00,1.13
4405.00,1.13
4404.00,1.13
4403.00,1.13
4402.00,1.13
4401.00,1.13
4400.00,1.13
4399.00,1.14
4398.00,1.14
4397.00,1.14
4396.00,1.14
4395.00,1.14
4394.00,1.14
4393.00,1.14
4392.00,1.14
4391.00,1.14
4390.00,1.14
4389.00,1.13
4388.00,1.13
4387.00,1.13
4386.00,1.12
4385.00,1.12
4384.00,1.12
4383.00,1.12
4382.00,1.11
4381.00,1.11
4380.00,1.11
4379.00,1.10
4378.00,1.10
4377.00,1.10
4376.00,1.10
4375.00,1.10
4374.00,1.09
4373.00,1.09
4372.00,1.09
4371.00,1.09
4370.00,1.09
4369.00,1.09
4368.00,1.09
4367.00,1.09
4366.00,1.09
4365.00,1.09
4364.00,1.09
4363.00,1.09
4362.00,1.09
4361.00,1.09
4360.00,1.10
4359.00,1.10
4358.00,1.10
4357.00,1.10
4356.00,1.10
4355.00,1.10
4354.00,1.10
4353.00,1.11
4352.00,1.11
4351.00,1.11
4350.00,1.11
4349.00,1.11
4348.00,1.12
4347.00,1.12
4346.00,1.12
4345.00,1.13
4344.00,1.13
4343.00,1.13
4342.00,1.14
4341.00,1.14
4340.00,1.14
4339.00,1.15
4338.00,1.15
4337.00,1.15
4336.00,1.16
4335.00,1.16
4334.00,1.16
4333.00,1.17
4332.00,1.17
4331.00,1.18
4330.00,1.18
4329.00,1.19
4328.00,1.19
4327.00,1.20
4326.00,1.20
4325.00,1.20
4324.00,1.21
4323.00,1.21
4322.00,1.21
4321.00,1.21
4320.00,1.21
4319.00,1.21
4318.00,1.22
4317.00,1.22
4316.00,1.21
4315.00,1.21
4314.00,1.21
4313.00,1.21
4312.00,1.21
4311.00,1.21
4310.00,1.21
4309.00,1.21
4308.00,1.21
4307.00,1.20
4306.00,1.20
4305.00,1.20
4304.00,1.19
4303.00,1.19
4302.00,1.19
4301.00,1.19
4300.00,1.18
4299.00,1.18
4298.00,1.18
4297.00,1.18
4296.00,1.17
4295.00,1.17
4294.00,1.17
4293.00,1.17
4292.00,1.17
4291.00,1.16
4290.00,1.16
4289.00,1.16
4288.00,1.16
4287.00,1.16
4286.00,1.15
4285.00,1.15
4284.00,1.15
4283.00,1.15
4282.00,1.15
4281.00,1.14
4280.00,1.14
4279.00,1.14
4278.00,1.14
4277.00,1.14
4276.00,1.13
4275.00,1.13
4274.00,1.13
4273.00,1.13
4272.00,1.12
4271.00,1.12
4270.00,1.12
4269.00,1.12
4268.00,1.12
4267.00,1.12
4266.00,1.12
4265.00,1.11
4264.00,1.11
4263.00,1.11
4262.00,1.11
4261.00,1.11
4260.00,1.11
4259.00,1.11
4258.00,1.11
4257.00,1.11
4256.00,1.11
4255.00,1.11
4254.00,1.12
4253.00,1.12
4252.00,1.12
4251.00,1.12
4250.00,1.12
4249.00,1.13
4248.00,1.13
4247.00,1.13
4246.00,1.13
4245.00,1.13
4244.00,1.13
4243.00,1.13
4242.00,1.13
4241.00,1.13
4240.00,1.13
4239.00,1.13
4238.00,1.13
4237.00,1.13
4236.00,1.13
4235.00,1.13
4234.00,1.12
4233.00,1.12
4232.00,1.12
4231.00,1.12
4230.00,1.12
4229.00,1.12
4228.00,1.12
4227.00,1.12
4226.00,1.12
4225.00,1.12
4224.00,1.11
4223.00,1.11
4222.00,1.11
4221.00,1.11
4220.00,1.11
4219.00,1.11
4218.00,1.11
4217.00,1.11
4216.00,1.11
4215.00,1.11
4214.00,1.11
4213.00,1.11
4212.00,1.11
4211.00,1.11
4210.00,1.12
4209.00,1.12
4208.00,1.12
4207.00,1.12
4206.00,1.13
4205.00,1.13
4204.00,1.13
4203.00,1.13
4202.00,1.14
4201.00,1.14
4200.00,1.14
4199.00,1.14
4198.00,1.15
4197.00,1.15
4196.00,1.15
4195.00,1.15
4194.00,1.15
4193.00,1.15
4192.00,1.15
4191.00,1.15
4190.00,1.16
4189.00,1.16
4188.00,1.16
4187.00,1.16
4186.00,1.17
4185.00,1.17
4184.00,1.17
4183.00,1.17
4182.00,1.17
4181.00,1.17
4180.00,1.17
4179.00,1.17
4178.00,1.17
4177.00,1.17
4176.00,1.17
4175.00,1.17
4174.00,1.17
4173.00,1.17
4172.00,1.17
4171.00,1.17
4170.00,1.17
4169.00,1.17
4168.00,1.17
4167.00,1.17
4166.00,1.17
4165.00,1.18
4164.00,1.18
4163.00,1.18
4162.00,1.18
4161.00,1.18
4160.00,1.18
4159.00,1.18
4158.00,1.18
4157.00,1.18
4156.00,1.18
4155.00,1.18
4154.00,1.18
4153.00,1.18
4152.00,1.18
4151.00,1.18
4150.00,1.18
4149.00,1.18
4148.00,1.18
4147.00,1.18
4146.00,1.18
4145.00,1.18
4144.00,1.19
4143.00,1.19
4142.00,1.19
4141.00,1.19
4140.00,1.19
4139.00,1.19
4138.00,1.19
4137.00,1.19
4136.00,1.19
4135.00,1.19
4134.00,1.19
4133.00,1.19
4132.00,1.19
4131.00,1.19
4130.00,1.19
4129.00,1.19
4128.00,1.19
4127.00,1.20
4126.00,1.20
4125.00,1.20
4124.00,1.20
4123.00,1.20
4122.00,1.21
4121.00,1.21
4120.00,1.21
4119.00,1.21
4118.00,1.21
4117.00,1.21
4116.00,1.21
4115.00,1.21
4114.00,1.21
4113.00,1.21
4112.00,1.21
4111.00,1.22
4110.00,1.22
4109.00,1.22
4108.00,1.22
4107.00,1.22
4106.00,1.22
4105.00,1.22
4104.00,1.22
4103.00,1.22
4102.00,1.22
4101.00,1.22
4100.00,1.22
4099.00,1.22
4098.00,1.22
4097.00,1.22
4096.00,1.22
4095.00,1.22
4094.00,1.21
4093.00,1.21
4092.00,1.21
4091.00,1.21
4090.00,1.21
4089.00,1.21
4088.00,1.21
4087.00,1.21
4086.00,1.21
4085.00,1.21
4084.00,1.21
4083.00,1.21
4082.00,1.20
4081.00,1.20
4080.00,1.20
4079.00,1.20
4078.00,1.20
4077.00,1.21
4076.00,1.21
4075.00,1.21
4074.00,1.21
4073.00,1.21
4072.00,1.21
4071.00,1.21
4070.00,1.21
4069.00,1.21
4068.00,1.21
4067.00,1.21
4066.00,1.21
4065.00,1.21
4064.00,1.21
4063.00,1.21
4062.00,1.21
4061.00,1.21
4060.00,1.21
4059.00,1.22
4058.00,1.22
4057.00,1.22
4056.00,1.23
4055.00,1.23
4054.00,1.23
4053.00,1.23
4052.00,1.23
4051.00,1.24
4050.00,1.24
4049.00,1.24
4048.00,1.24
4047.00,1.25
4046.00,1.25
4045.00,1.25
4044.00,1.26
4043.00,1.26
4042.00,1.27
4041.00,1.27
4040.00,1.28
4039.00,1.28
4038.00,1.29
4037.00,1.29
4036.00,1.30
4035.00,1.30
4034.00,1.31
4033.00,1.31
4032.00,1.32
4031.00,1.32
4030.00,1.32
4029.00,1.33
4028.00,1.33
4027.00,1.33
4026.00,1.34
4025.00,1.34
4024.00,1.35
4023.00,1.35
4022.00,1.36
4021.00,1.37
4020.00,1.37
4019.00,1.38
4018.00,1.39
4017.00,1.40
4016.00,1.41
4015.00,1.42
4014.00,1.43
4013.00,1.45
4012.00,1.46
4011.00,1.47
4010.00,1.49
4009.00,1.50
4008.00,1.52
4007.00,1.54
4006.00,1.56
4005.00,1.58
4004.00,1.60
4003.00,1.62
4002.00,1.65
4001.00,1.67
4000.00,1.70
