创建为新数据集,样品 796 用户 Administrator 日期 星期一, 七月 29 2019
cm-1,%T
10000.00,2.11
9999.00,2.09
9998.00,2.08
9997.00,2.06
9996.00,2.04
9995.00,2.03
9994.00,2.01
9993.00,1.99
9992.00,1.97
9991.00,1.95
9990.00,1.94
9989.00,1.92
9988.00,1.90
9987.00,1.88
9986.00,1.86
9985.00,1.85
9984.00,1.83
9983.00,1.82
9982.00,1.80
9981.00,1.78
9980.00,1.77
9979.00,1.75
9978.00,1.73
9977.00,1.72
9976.00,1.70
9975.00,1.68
9974.00,1.66
9973.00,1.65
9972.00,1.63
9971.00,1.62
9970.00,1.60
9969.00,1.59
9968.00,1.57
9967.00,1.56
9966.00,1.55
9965.00,1.53
9964.00,1.52
9963.00,1.51
9962.00,1.50
9961.00,1.49
9960.00,1.48
9959.00,1.47
9958.00,1.46
9957.00,1.45
9956.00,1.45
9955.00,1.44
9954.00,1.44
9953.00,1.43
9952.00,1.43
9951.00,1.43
9950.00,1.43
9949.00,1.43
9948.00,1.43
9947.00,1.43
9946.00,1.43
9945.00,1.43
9944.00,1.43
9943.00,1.43
9942.00,1.43
9941.00,1.43
9940.00,1.43
9939.00,1.44
9938.00,1.44
9937.00,1.44
9936.00,1.44
9935.00,1.45
9934.00,1.45
9933.00,1.45
9932.00,1.45
9931.00,1.45
9930.00,1.45
9929.00,1.45
9928.00,1.46
9927.00,1.46
9926.00,1.46
9925.00,1.46
9924.00,1.46
9923.00,1.46
9922.00,1.47
9921.00,1.47
9920.00,1.47
9919.00,1.47
9918.00,1.47
9917.00,1.47
9916.00,1.47
9915.00,1.48
9914.00,1.48
9913.00,1.48
9912.00,1.48
9911.00,1.49
9910.00,1.49
9909.00,1.50
9908.00,1.50
9907.00,1.51
9906.00,1.52
9905.00,1.52
9904.00,1.53
9903.00,1.54
9902.00,1.54
9901.00,1.55
9900.00,1.55
9899.00,1.56
9898.00,1.56
9897.00,1.57
9896.00,1.57
9895.00,1.58
9894.00,1.59
9893.00,1.59
9892.00,1.60
9891.00,1.60
9890.00,1.61
9889.00,1.61
9888.00,1.62
9887.00,1.62
9886.00,1.62
9885.00,1.62
9884.00,1.63
9883.00,1.63
9882.00,1.63
9881.00,1.63
9880.00,1.62
9879.00,1.62
9878.00,1.62
9877.00,1.62
9876.00,1.62
9875.00,1.62
9874.00,1.62
9873.00,1.62
9872.00,1.62
9871.00,1.62
9870.00,1.62
9869.00,1.62
9868.00,1.62
9867.00,1.62
9866.00,1.62
9865.00,1.61
9864.00,1.61
9863.00,1.61
9862.00,1.61
9861.00,1.61
9860.00,1.61
9859.00,1.61
9858.00,1.61
9857.00,1.61
9856.00,1.62
9855.00,1.62
9854.00,1.62
9853.00,1.62
9852.00,1.62
9851.00,1.62
9850.00,1.62
9849.00,1.62
9848.00,1.61
9847.00,1.61
9846.00,1.60
9845.00,1.59
9844.00,1.59
9843.00,1.58
9842.00,1.57
9841.00,1.56
9840.00,1.55
9839.00,1.54
9838.00,1.53
9837.00,1.52
9836.00,1.51
9835.00,1.50
9834.00,1.49
9833.00,1.48
9832.00,1.47
9831.00,1.46
9830.00,1.45
9829.00,1.44
9828.00,1.44
9827.00,1.43
9826.00,1.42
9825.00,1.41
9824.00,1.41
9823.00,1.41
9822.00,1.40
9821.00,1.40
9820.00,1.40
9819.00,1.40
9818.00,1.41
9817.00,1.41
9816.00,1.41
9815.00,1.41
9814.00,1.42
9813.00,1.42
9812.00,1.43
9811.00,1.43
9810.00,1.44
9809.00,1.44
9808.00,1.45
9807.00,1.45
9806.00,1.46
9805.00,1.46
9804.00,1.46
9803.00,1.47
9802.00,1.47
9801.00,1.47
9800.00,1.48
9799.00,1.48
9798.00,1.48
9797.00,1.48
9796.00,1.48
9795.00,1.48
9794.00,1.48
9793.00,1.47
9792.00,1.47
9791.00,1.47
9790.00,1.46
9789.00,1.46
9788.00,1.46
9787.00,1.45
9786.00,1.45
9785.00,1.44
9784.00,1.44
9783.00,1.43
9782.00,1.43
9781.00,1.42
9780.00,1.42
9779.00,1.41
9778.00,1.41
9777.00,1.40
9776.00,1.40
9775.00,1.39
9774.00,1.39
9773.00,1.39
9772.00,1.38
9771.00,1.38
9770.00,1.37
9769.00,1.37
9768.00,1.37
9767.00,1.37
9766.00,1.36
9765.00,1.36
9764.00,1.36
9763.00,1.37
9762.00,1.37
9761.00,1.37
9760.00,1.37
9759.00,1.37
9758.00,1.38
9757.00,1.38
9756.00,1.38
9755.00,1.38
9754.00,1.38
9753.00,1.39
9752.00,1.39
9751.00,1.39
9750.00,1.40
9749.00,1.40
9748.00,1.40
9747.00,1.41
9746.00,1.42
9745.00,1.42
9744.00,1.43
9743.00,1.44
9742.00,1.45
9741.00,1.46
9740.00,1.47
9739.00,1.48
9738.00,1.49
9737.00,1.49
9736.00,1.50
9735.00,1.51
9734.00,1.52
9733.00,1.53
9732.00,1.54
9731.00,1.54
9730.00,1.55
9729.00,1.56
9728.00,1.56
9727.00,1.57
9726.00,1.57
9725.00,1.58
9724.00,1.58
9723.00,1.59
9722.00,1.59
9721.00,1.59
9720.00,1.59
9719.00,1.59
9718.00,1.59
9717.00,1.59
9716.00,1.59
9715.00,1.59
9714.00,1.58
9713.00,1.57
9712.00,1.57
9711.00,1.56
9710.00,1.55
9709.00,1.55
9708.00,1.54
9707.00,1.53
9706.00,1.53
9705.00,1.52
9704.00,1.51
9703.00,1.51
9702.00,1.51
9701.00,1.50
9700.00,1.50
9699.00,1.50
9698.00,1.49
9697.00,1.49
9696.00,1.49
9695.00,1.49
9694.00,1.49
9693.00,1.49
9692.00,1.49
9691.00,1.49
9690.00,1.49
9689.00,1.49
9688.00,1.49
9687.00,1.49
9686.00,1.48
9685.00,1.48
9684.00,1.48
9683.00,1.48
9682.00,1.48
9681.00,1.48
9680.00,1.47
9679.00,1.47
9678.00,1.47
9677.00,1.47
9676.00,1.47
9675.00,1.47
9674.00,1.47
9673.00,1.47
9672.00,1.47
9671.00,1.47
9670.00,1.47
9669.00,1.46
9668.00,1.46
9667.00,1.46
9666.00,1.46
9665.00,1.46
9664.00,1.47
9663.00,1.47
9662.00,1.47
9661.00,1.48
9660.00,1.48
9659.00,1.49
9658.00,1.49
9657.00,1.50
9656.00,1.51
9655.00,1.51
9654.00,1.52
9653.00,1.52
9652.00,1.53
9651.00,1.53
9650.00,1.53
9649.00,1.53
9648.00,1.53
9647.00,1.53
9646.00,1.53
9645.00,1.53
9644.00,1.52
9643.00,1.52
9642.00,1.52
9641.00,1.51
9640.00,1.51
9639.00,1.51
9638.00,1.50
9637.00,1.50
9636.00,1.50
9635.00,1.49
9634.00,1.49
9633.00,1.49
9632.00,1.49
9631.00,1.49
9630.00,1.49
9629.00,1.49
9628.00,1.49
9627.00,1.49
9626.00,1.49
9625.00,1.50
9624.00,1.50
9623.00,1.51
9622.00,1.52
9621.00,1.53
9620.00,1.54
9619.00,1.55
9618.00,1.56
9617.00,1.57
9616.00,1.58
9615.00,1.59
9614.00,1.59
9613.00,1.60
9612.00,1.61
9611.00,1.61
9610.00,1.62
9609.00,1.62
9608.00,1.62
9607.00,1.62
9606.00,1.62
9605.00,1.62
9604.00,1.62
9603.00,1.61
9602.00,1.61
9601.00,1.61
9600.00,1.60
9599.00,1.60
9598.00,1.59
9597.00,1.58
9596.00,1.57
9595.00,1.57
9594.00,1.56
9593.00,1.55
9592.00,1.54
9591.00,1.53
9590.00,1.52
9589.00,1.52
9588.00,1.51
9587.00,1.50
9586.00,1.50
9585.00,1.50
9584.00,1.50
9583.00,1.50
9582.00,1.50
9581.00,1.50
9580.00,1.50
9579.00,1.50
9578.00,1.50
9577.00,1.51
9576.00,1.51
9575.00,1.51
9574.00,1.51
9573.00,1.51
9572.00,1.51
9571.00,1.52
9570.00,1.52
9569.00,1.52
9568.00,1.52
9567.00,1.52
9566.00,1.52
9565.00,1.52
9564.00,1.52
9563.00,1.52
9562.00,1.51
9561.00,1.51
9560.00,1.51
9559.00,1.50
9558.00,1.49
9557.00,1.49
9556.00,1.48
9555.00,1.47
9554.00,1.46
9553.00,1.46
9552.00,1.45
9551.00,1.44
9550.00,1.43
9549.00,1.42
9548.00,1.41
9547.00,1.39
9546.00,1.39
9545.00,1.38
9544.00,1.37
9543.00,1.36
9542.00,1.35
9541.00,1.34
9540.00,1.34
9539.00,1.33
9538.00,1.32
9537.00,1.32
9536.00,1.32
9535.00,1.31
9534.00,1.31
9533.00,1.31
9532.00,1.31
9531.00,1.31
9530.00,1.32
9529.00,1.32
9528.00,1.32
9527.00,1.33
9526.00,1.33
9525.00,1.34
9524.00,1.35
9523.00,1.35
9522.00,1.36
9521.00,1.37
9520.00,1.38
9519.00,1.39
9518.00,1.40
9517.00,1.42
9516.00,1.43
9515.00,1.44
9514.00,1.45
9513.00,1.45
9512.00,1.46
9511.00,1.47
9510.00,1.48
9509.00,1.48
9508.00,1.49
9507.00,1.50
9506.00,1.50
9505.00,1.50
9504.00,1.50
9503.00,1.51
9502.00,1.51
9501.00,1.51
9500.00,1.51
9499.00,1.50
9498.00,1.50
9497.00,1.50
9496.00,1.50
9495.00,1.50
9494.00,1.49
9493.00,1.49
9492.00,1.49
9491.00,1.48
9490.00,1.48
9489.00,1.48
9488.00,1.48
9487.00,1.48
9486.00,1.48
9485.00,1.48
9484.00,1.48
9483.00,1.48
9482.00,1.48
9481.00,1.48
9480.00,1.48
9479.00,1.48
9478.00,1.48
9477.00,1.48
9476.00,1.48
9475.00,1.48
9474.00,1.49
9473.00,1.49
9472.00,1.49
9471.00,1.50
9470.00,1.50
9469.00,1.51
9468.00,1.51
9467.00,1.51
9466.00,1.52
9465.00,1.52
9464.00,1.52
9463.00,1.52
9462.00,1.52
9461.00,1.52
9460.00,1.52
9459.00,1.52
9458.00,1.52
9457.00,1.51
9456.00,1.51
9455.00,1.51
9454.00,1.51
9453.00,1.51
9452.00,1.50
9451.00,1.50
9450.00,1.50
9449.00,1.50
9448.00,1.50
9447.00,1.50
9446.00,1.49
9445.00,1.49
9444.00,1.49
9443.00,1.49
9442.00,1.48
9441.00,1.48
9440.00,1.48
9439.00,1.48
9438.00,1.48
9437.00,1.48
9436.00,1.48
9435.00,1.49
9434.00,1.49
9433.00,1.49
9432.00,1.50
9431.00,1.50
9430.00,1.51
9429.00,1.51
9428.00,1.52
9427.00,1.52
9426.00,1.53
9425.00,1.53
9424.00,1.54
9423.00,1.54
9422.00,1.54
9421.00,1.55
9420.00,1.55
9419.00,1.55
9418.00,1.55
9417.00,1.56
9416.00,1.56
9415.00,1.56
9414.00,1.56
9413.00,1.55
9412.00,1.55
9411.00,1.55
9410.00,1.54
9409.00,1.53
9408.00,1.53
9407.00,1.52
9406.00,1.51
9405.00,1.51
9404.00,1.50
9403.00,1.49
9402.00,1.49
9401.00,1.48
9400.00,1.47
9399.00,1.46
9398.00,1.46
9397.00,1.45
9396.00,1.44
9395.00,1.44
9394.00,1.43
9393.00,1.42
9392.00,1.42
9391.00,1.41
9390.00,1.41
9389.00,1.40
9388.00,1.40
9387.00,1.40
9386.00,1.39
9385.00,1.39
9384.00,1.39
9383.00,1.39
9382.00,1.39
9381.00,1.39
9380.00,1.38
9379.00,1.38
9378.00,1.38
9377.00,1.38
9376.00,1.38
9375.00,1.38
9374.00,1.38
9373.00,1.38
9372.00,1.38
9371.00,1.38
9370.00,1.38
9369.00,1.38
9368.00,1.38
9367.00,1.38
9366.00,1.38
9365.00,1.38
9364.00,1.38
9363.00,1.39
9362.00,1.39
9361.00,1.39
9360.00,1.39
9359.00,1.40
9358.00,1.40
9357.00,1.40
9356.00,1.41
9355.00,1.41
9354.00,1.41
9353.00,1.42
9352.00,1.42
9351.00,1.43
9350.00,1.43
9349.00,1.43
9348.00,1.43
9347.00,1.44
9346.00,1.44
9345.00,1.44
9344.00,1.44
9343.00,1.44
9342.00,1.44
9341.00,1.43
9340.00,1.43
9339.00,1.43
9338.00,1.43
9337.00,1.43
9336.00,1.42
9335.00,1.42
9334.00,1.42
9333.00,1.41
9332.00,1.41
9331.00,1.41
9330.00,1.41
9329.00,1.40
9328.00,1.40
9327.00,1.40
9326.00,1.39
9325.00,1.39
9324.00,1.39
9323.00,1.38
9322.00,1.38
9321.00,1.38
9320.00,1.38
9319.00,1.38
9318.00,1.38
9317.00,1.38
9316.00,1.38
9315.00,1.38
9314.00,1.38
9313.00,1.38
9312.00,1.39
9311.00,1.39
9310.00,1.39
9309.00,1.39
9308.00,1.40
9307.00,1.40
9306.00,1.41
9305.00,1.41
9304.00,1.42
9303.00,1.42
9302.00,1.43
9301.00,1.43
9300.00,1.44
9299.00,1.44
9298.00,1.45
9297.00,1.46
9296.00,1.46
9295.00,1.47
9294.00,1.47
9293.00,1.48
9292.00,1.48
9291.00,1.49
9290.00,1.49
9289.00,1.50
9288.00,1.50
9287.00,1.51
9286.00,1.51
9285.00,1.52
9284.00,1.52
9283.00,1.52
9282.00,1.52
9281.00,1.52
9280.00,1.52
9279.00,1.52
9278.00,1.52
9277.00,1.51
9276.00,1.51
9275.00,1.50
9274.00,1.50
9273.00,1.49
9272.00,1.48
9271.00,1.47
9270.00,1.47
9269.00,1.46
9268.00,1.45
9267.00,1.44
9266.00,1.43
9265.00,1.42
9264.00,1.41
9263.00,1.40
9262.00,1.39
9261.00,1.38
9260.00,1.37
9259.00,1.36
9258.00,1.35
9257.00,1.34
9256.00,1.33
9255.00,1.32
9254.00,1.32
9253.00,1.31
9252.00,1.30
9251.00,1.30
9250.00,1.29
9249.00,1.29
9248.00,1.28
9247.00,1.28
9246.00,1.28
9245.00,1.28
9244.00,1.27
9243.00,1.27
9242.00,1.27
9241.00,1.27
9240.00,1.28
9239.00,1.28
9238.00,1.28
9237.00,1.28
9236.00,1.28
9235.00,1.28
9234.00,1.28
9233.00,1.29
9232.00,1.29
9231.00,1.29
9230.00,1.29
9229.00,1.29
9228.00,1.29
9227.00,1.29
9226.00,1.30
9225.00,1.30
9224.00,1.30
9223.00,1.30
9222.00,1.31
9221.00,1.31
9220.00,1.31
9219.00,1.31
9218.00,1.31
9217.00,1.32
9216.00,1.32
9215.00,1.32
9214.00,1.32
9213.00,1.32
9212.00,1.33
9211.00,1.33
9210.00,1.33
9209.00,1.34
9208.00,1.34
9207.00,1.34
9206.00,1.35
9205.00,1.35
9204.00,1.36
9203.00,1.37
9202.00,1.37
9201.00,1.38
9200.00,1.38
9199.00,1.39
9198.00,1.39
9197.00,1.40
9196.00,1.41
9195.00,1.41
9194.00,1.42
9193.00,1.42
9192.00,1.43
9191.00,1.43
9190.00,1.44
9189.00,1.44
9188.00,1.44
9187.00,1.45
9186.00,1.45
9185.00,1.45
9184.00,1.45
9183.00,1.45
9182.00,1.45
9181.00,1.45
9180.00,1.45
9179.00,1.44
9178.00,1.44
9177.00,1.43
9176.00,1.43
9175.00,1.42
9174.00,1.42
9173.00,1.41
9172.00,1.41
9171.00,1.40
9170.00,1.39
9169.00,1.39
9168.00,1.38
9167.00,1.38
9166.00,1.37
9165.00,1.36
9164.00,1.36
9163.00,1.35
9162.00,1.35
9161.00,1.34
9160.00,1.34
9159.00,1.34
9158.00,1.34
9157.00,1.34
9156.00,1.34
9155.00,1.34
9154.00,1.35
9153.00,1.35
9152.00,1.36
9151.00,1.36
9150.00,1.37
9149.00,1.38
9148.00,1.39
9147.00,1.39
9146.00,1.40
9145.00,1.41
9144.00,1.41
9143.00,1.42
9142.00,1.42
9141.00,1.43
9140.00,1.43
9139.00,1.44
9138.00,1.44
9137.00,1.45
9136.00,1.45
9135.00,1.45
9134.00,1.46
9133.00,1.46
9132.00,1.46
9131.00,1.46
9130.00,1.46
9129.00,1.45
9128.00,1.45
9127.00,1.45
9126.00,1.44
9125.00,1.44
9124.00,1.44
9123.00,1.43
9122.00,1.43
9121.00,1.42
9120.00,1.42
9119.00,1.41
9118.00,1.41
9117.00,1.41
9116.00,1.41
9115.00,1.41
9114.00,1.41
9113.00,1.41
9112.00,1.41
9111.00,1.41
9110.00,1.41
9109.00,1.41
9108.00,1.41
9107.00,1.41
9106.00,1.42
9105.00,1.42
9104.00,1.42
9103.00,1.43
9102.00,1.43
9101.00,1.43
9100.00,1.43
9099.00,1.44
9098.00,1.44
9097.00,1.44
9096.00,1.44
9095.00,1.45
9094.00,1.45
9093.00,1.45
9092.00,1.45
9091.00,1.45
9090.00,1.46
9089.00,1.46
9088.00,1.46
9087.00,1.46
9086.00,1.46
9085.00,1.46
9084.00,1.46
9083.00,1.46
9082.00,1.45
9081.00,1.45
9080.00,1.45
9079.00,1.45
9078.00,1.45
9077.00,1.44
9076.00,1.44
9075.00,1.44
9074.00,1.44
9073.00,1.44
9072.00,1.44
9071.00,1.44
9070.00,1.44
9069.00,1.44
9068.00,1.44
9067.00,1.44
9066.00,1.44
9065.00,1.44
9064.00,1.44
9063.00,1.44
9062.00,1.44
9061.00,1.44
9060.00,1.44
9059.00,1.44
9058.00,1.44
9057.00,1.44
9056.00,1.44
9055.00,1.44
9054.00,1.44
9053.00,1.44
9052.00,1.44
9051.00,1.44
9050.00,1.44
9049.00,1.44
9048.00,1.44
9047.00,1.44
9046.00,1.44
9045.00,1.44
9044.00,1.44
9043.00,1.44
9042.00,1.44
9041.00,1.44
9040.00,1.44
9039.00,1.44
9038.00,1.44
9037.00,1.44
9036.00,1.44
9035.00,1.44
9034.00,1.44
9033.00,1.44
9032.00,1.44
9031.00,1.44
9030.00,1.44
9029.00,1.43
9028.00,1.43
9027.00,1.43
9026.00,1.43
9025.00,1.43
9024.00,1.43
9023.00,1.43
9022.00,1.43
9021.00,1.43
9020.00,1.42
9019.00,1.42
9018.00,1.42
9017.00,1.42
9016.00,1.42
9015.00,1.42
9014.00,1.42
9013.00,1.42
9012.00,1.42
9011.00,1.43
9010.00,1.43
9009.00,1.43
9008.00,1.43
9007.00,1.43
9006.00,1.44
9005.00,1.44
9004.00,1.44
9003.00,1.44
9002.00,1.45
9001.00,1.45
9000.00,1.45
8999.00,1.45
8998.00,1.45
8997.00,1.46
8996.00,1.46
8995.00,1.46
8994.00,1.46
8993.00,1.46
8992.00,1.47
8991.00,1.47
8990.00,1.47
8989.00,1.47
8988.00,1.47
8987.00,1.46
8986.00,1.46
8985.00,1.46
8984.00,1.46
8983.00,1.45
8982.00,1.45
8981.00,1.44
8980.00,1.44
8979.00,1.44
8978.00,1.43
8977.00,1.43
8976.00,1.43
8975.00,1.42
8974.00,1.42
8973.00,1.42
8972.00,1.41
8971.00,1.41
8970.00,1.41
8969.00,1.40
8968.00,1.40
8967.00,1.40
8966.00,1.39
8965.00,1.39
8964.00,1.39
8963.00,1.39
8962.00,1.39
8961.00,1.39
8960.00,1.39
8959.00,1.40
8958.00,1.40
8957.00,1.40
8956.00,1.41
8955.00,1.41
8954.00,1.42
8953.00,1.42
8952.00,1.43
8951.00,1.43
8950.00,1.44
8949.00,1.44
8948.00,1.45
8947.00,1.45
8946.00,1.46
8945.00,1.47
8944.00,1.47
8943.00,1.48
8942.00,1.49
8941.00,1.50
8940.00,1.50
8939.00,1.51
8938.00,1.52
8937.00,1.53
8936.00,1.53
8935.00,1.54
8934.00,1.55
8933.00,1.55
8932.00,1.56
8931.00,1.56
8930.00,1.57
8929.00,1.57
8928.00,1.58
8927.00,1.58
8926.00,1.58
8925.00,1.59
8924.00,1.59
8923.00,1.59
8922.00,1.59
8921.00,1.60
8920.00,1.60
8919.00,1.60
8918.00,1.60
8917.00,1.60
8916.00,1.59
8915.00,1.59
8914.00,1.59
8913.00,1.59
8912.00,1.59
8911.00,1.59
8910.00,1.59
8909.00,1.59
8908.00,1.58
8907.00,1.58
8906.00,1.58
8905.00,1.58
8904.00,1.58
8903.00,1.58
8902.00,1.57
8901.00,1.57
8900.00,1.57
8899.00,1.57
8898.00,1.56
8897.00,1.56
8896.00,1.56
8895.00,1.56
8894.00,1.56
8893.00,1.55
8892.00,1.55
8891.00,1.55
8890.00,1.55
8889.00,1.55
8888.00,1.54
8887.00,1.54
8886.00,1.54
8885.00,1.54
8884.00,1.54
8883.00,1.53
8882.00,1.53
8881.00,1.53
8880.00,1.53
8879.00,1.52
8878.00,1.52
8877.00,1.52
8876.00,1.52
8875.00,1.51
8874.00,1.51
8873.00,1.51
8872.00,1.51
8871.00,1.50
8870.00,1.50
8869.00,1.50
8868.00,1.50
8867.00,1.50
8866.00,1.50
8865.00,1.50
8864.00,1.50
8863.00,1.50
8862.00,1.50
8861.00,1.50
8860.00,1.50
8859.00,1.50
8858.00,1.50
8857.00,1.50
8856.00,1.50
8855.00,1.50
8854.00,1.50
8853.00,1.50
8852.00,1.50
8851.00,1.50
8850.00,1.50
8849.00,1.50
8848.00,1.50
8847.00,1.50
8846.00,1.50
8845.00,1.50
8844.00,1.51
8843.00,1.51
8842.00,1.51
8841.00,1.51
8840.00,1.51
8839.00,1.51
8838.00,1.51
8837.00,1.51
8836.00,1.51
8835.00,1.51
8834.00,1.51
8833.00,1.51
8832.00,1.51
8831.00,1.51
8830.00,1.50
8829.00,1.50
8828.00,1.50
8827.00,1.50
8826.00,1.50
8825.00,1.50
8824.00,1.50
8823.00,1.50
8822.00,1.50
8821.00,1.50
8820.00,1.49
8819.00,1.49
8818.00,1.49
8817.00,1.49
8816.00,1.49
8815.00,1.48
8814.00,1.48
8813.00,1.48
8812.00,1.48
8811.00,1.49
8810.00,1.49
8809.00,1.49
8808.00,1.49
8807.00,1.49
8806.00,1.50
8805.00,1.50
8804.00,1.50
8803.00,1.50
8802.00,1.51
8801.00,1.51
8800.00,1.51
8799.00,1.51
8798.00,1.51
8797.00,1.51
8796.00,1.51
8795.00,1.52
8794.00,1.52
8793.00,1.52
8792.00,1.52
8791.00,1.52
8790.00,1.52
8789.00,1.52
8788.00,1.52
8787.00,1.52
8786.00,1.52
8785.00,1.52
8784.00,1.52
8783.00,1.52
8782.00,1.52
8781.00,1.51
8780.00,1.51
8779.00,1.51
8778.00,1.50
8777.00,1.50
8776.00,1.50
8775.00,1.50
8774.00,1.49
8773.00,1.49
8772.00,1.49
8771.00,1.49
8770.00,1.48
8769.00,1.48
8768.00,1.48
8767.00,1.47
8766.00,1.47
8765.00,1.46
8764.00,1.46
8763.00,1.46
8762.00,1.45
8761.00,1.45
8760.00,1.44
8759.00,1.44
8758.00,1.43
8757.00,1.43
8756.00,1.42
8755.00,1.42
8754.00,1.41
8753.00,1.41
8752.00,1.40
8751.00,1.40
8750.00,1.39
8749.00,1.39
8748.00,1.38
8747.00,1.38
8746.00,1.37
8745.00,1.36
8744.00,1.36
8743.00,1.35
8742.00,1.35
8741.00,1.34
8740.00,1.34
8739.00,1.34
8738.00,1.33
8737.00,1.33
8736.00,1.33
8735.00,1.32
8734.00,1.32
8733.00,1.32
8732.00,1.32
8731.00,1.32
8730.00,1.32
8729.00,1.32
8728.00,1.32
8727.00,1.32
8726.00,1.32
8725.00,1.33
8724.00,1.33
8723.00,1.33
8722.00,1.34
8721.00,1.34
8720.00,1.35
8719.00,1.35
8718.00,1.36
8717.00,1.36
8716.00,1.37
8715.00,1.37
8714.00,1.38
8713.00,1.38
8712.00,1.39
8711.00,1.39
8710.00,1.40
8709.00,1.40
8708.00,1.41
8707.00,1.41
8706.00,1.41
8705.00,1.42
8704.00,1.42
8703.00,1.42
8702.00,1.42
8701.00,1.43
8700.00,1.43
8699.00,1.43
8698.00,1.43
8697.00,1.44
8696.00,1.44
8695.00,1.44
8694.00,1.44
8693.00,1.44
8692.00,1.44
8691.00,1.44
8690.00,1.44
8689.00,1.44
8688.00,1.44
8687.00,1.44
8686.00,1.45
8685.00,1.45
8684.00,1.45
8683.00,1.45
8682.00,1.45
8681.00,1.45
8680.00,1.45
8679.00,1.45
8678.00,1.45
8677.00,1.45
8676.00,1.45
8675.00,1.45
8674.00,1.45
8673.00,1.45
8672.00,1.45
8671.00,1.45
8670.00,1.44
8669.00,1.44
8668.00,1.44
8667.00,1.44
8666.00,1.43
8665.00,1.43
8664.00,1.43
8663.00,1.42
8662.00,1.42
8661.00,1.42
8660.00,1.42
8659.00,1.41
8658.00,1.41
8657.00,1.41
8656.00,1.41
8655.00,1.40
8654.00,1.40
8653.00,1.40
8652.00,1.40
8651.00,1.40
8650.00,1.39
8649.00,1.39
8648.00,1.39
8647.00,1.39
8646.00,1.38
8645.00,1.38
8644.00,1.38
8643.00,1.37
8642.00,1.37
8641.00,1.37
8640.00,1.36
8639.00,1.36
8638.00,1.36
8637.00,1.36
8636.00,1.36
8635.00,1.35
8634.00,1.35
8633.00,1.35
8632.00,1.35
8631.00,1.35
8630.00,1.35
8629.00,1.35
8628.00,1.35
8627.00,1.35
8626.00,1.35
8625.00,1.35
8624.00,1.35
8623.00,1.36
8622.00,1.36
8621.00,1.36
8620.00,1.36
8619.00,1.37
8618.00,1.37
8617.00,1.38
8616.00,1.39
8615.00,1.39
8614.00,1.40
8613.00,1.41
8612.00,1.42
8611.00,1.42
8610.00,1.43
8609.00,1.44
8608.00,1.44
8607.00,1.45
8606.00,1.46
8605.00,1.46
8604.00,1.47
8603.00,1.48
8602.00,1.48
8601.00,1.49
8600.00,1.49
8599.00,1.50
8598.00,1.51
8597.00,1.51
8596.00,1.52
8595.00,1.53
8594.00,1.53
8593.00,1.54
8592.00,1.54
8591.00,1.54
8590.00,1.55
8589.00,1.55
8588.00,1.55
8587.00,1.55
8586.00,1.56
8585.00,1.56
8584.00,1.56
8583.00,1.56
8582.00,1.56
8581.00,1.56
8580.00,1.56
8579.00,1.55
8578.00,1.55
8577.00,1.55
8576.00,1.55
8575.00,1.54
8574.00,1.54
8573.00,1.53
8572.00,1.53
8571.00,1.52
8570.00,1.51
8569.00,1.51
8568.00,1.50
8567.00,1.49
8566.00,1.48
8565.00,1.48
8564.00,1.47
8563.00,1.46
8562.00,1.45
8561.00,1.45
8560.00,1.44
8559.00,1.43
8558.00,1.43
8557.00,1.42
8556.00,1.42
8555.00,1.41
8554.00,1.41
8553.00,1.40
8552.00,1.40
8551.00,1.40
8550.00,1.40
8549.00,1.40
8548.00,1.40
8547.00,1.40
8546.00,1.40
8545.00,1.40
8544.00,1.40
8543.00,1.40
8542.00,1.40
8541.00,1.40
8540.00,1.41
8539.00,1.41
8538.00,1.41
8537.00,1.41
8536.00,1.41
8535.00,1.42
8534.00,1.42
8533.00,1.42
8532.00,1.42
8531.00,1.42
8530.00,1.43
8529.00,1.43
8528.00,1.43
8527.00,1.43
8526.00,1.43
8525.00,1.43
8524.00,1.43
8523.00,1.43
8522.00,1.43
8521.00,1.42
8520.00,1.42
8519.00,1.42
8518.00,1.42
8517.00,1.42
8516.00,1.42
8515.00,1.42
8514.00,1.42
8513.00,1.42
8512.00,1.42
8511.00,1.42
8510.00,1.42
8509.00,1.42
8508.00,1.42
8507.00,1.42
8506.00,1.42
8505.00,1.42
8504.00,1.43
8503.00,1.43
8502.00,1.43
8501.00,1.43
8500.00,1.43
8499.00,1.44
8498.00,1.44
8497.00,1.44
8496.00,1.45
8495.00,1.45
8494.00,1.45
8493.00,1.46
8492.00,1.46
8491.00,1.47
8490.00,1.47
8489.00,1.47
8488.00,1.48
8487.00,1.48
8486.00,1.48
8485.00,1.49
8484.00,1.49
8483.00,1.49
8482.00,1.49
8481.00,1.50
8480.00,1.50
8479.00,1.50
8478.00,1.50
8477.00,1.50
8476.00,1.50
8475.00,1.50
8474.00,1.50
8473.00,1.51
8472.00,1.51
8471.00,1.51
8470.00,1.51
8469.00,1.51
8468.00,1.50
8467.00,1.50
8466.00,1.50
8465.00,1.50
8464.00,1.50
8463.00,1.50
8462.00,1.49
8461.00,1.49
8460.00,1.49
8459.00,1.49
8458.00,1.49
8457.00,1.48
8456.00,1.48
8455.00,1.48
8454.00,1.48
8453.00,1.48
8452.00,1.48
8451.00,1.48
8450.00,1.48
8449.00,1.48
8448.00,1.48
8447.00,1.48
8446.00,1.47
8445.00,1.47
8444.00,1.47
8443.00,1.47
8442.00,1.47
8441.00,1.47
8440.00,1.47
8439.00,1.47
8438.00,1.48
8437.00,1.48
8436.00,1.48
8435.00,1.48
8434.00,1.48
8433.00,1.48
8432.00,1.48
8431.00,1.48
8430.00,1.48
8429.00,1.48
8428.00,1.47
8427.00,1.47
8426.00,1.47
8425.00,1.47
8424.00,1.47
8423.00,1.47
8422.00,1.47
8421.00,1.47
8420.00,1.47
8419.00,1.47
8418.00,1.46
8417.00,1.46
8416.00,1.46
8415.00,1.46
8414.00,1.46
8413.00,1.46
8412.00,1.46
8411.00,1.45
8410.00,1.45
8409.00,1.45
8408.00,1.45
8407.00,1.45
8406.00,1.44
8405.00,1.44
8404.00,1.44
8403.00,1.44
8402.00,1.44
8401.00,1.43
8400.00,1.43
8399.00,1.43
8398.00,1.43
8397.00,1.42
8396.00,1.42
8395.00,1.42
8394.00,1.41
8393.00,1.41
8392.00,1.40
8391.00,1.40
8390.00,1.40
8389.00,1.39
8388.00,1.39
8387.00,1.38
8386.00,1.38
8385.00,1.37
8384.00,1.37
8383.00,1.37
8382.00,1.36
8381.00,1.36
8380.00,1.36
8379.00,1.35
8378.00,1.35
8377.00,1.35
8376.00,1.35
8375.00,1.35
8374.00,1.35
8373.00,1.35
8372.00,1.34
8371.00,1.34
8370.00,1.34
8369.00,1.34
8368.00,1.34
8367.00,1.34
8366.00,1.35
8365.00,1.35
8364.00,1.35
8363.00,1.36
8362.00,1.36
8361.00,1.36
8360.00,1.37
8359.00,1.37
8358.00,1.38
8357.00,1.38
8356.00,1.39
8355.00,1.39
8354.00,1.39
8353.00,1.40
8352.00,1.40
8351.00,1.40
8350.00,1.41
8349.00,1.41
8348.00,1.41
8347.00,1.42
8346.00,1.42
8345.00,1.42
8344.00,1.43
8343.00,1.43
8342.00,1.44
8341.00,1.44
8340.00,1.44
8339.00,1.45
8338.00,1.45
8337.00,1.45
8336.00,1.45
8335.00,1.45
8334.00,1.45
8333.00,1.45
8332.00,1.46
8331.00,1.46
8330.00,1.46
8329.00,1.46
8328.00,1.46
8327.00,1.46
8326.00,1.46
8325.00,1.46
8324.00,1.46
8323.00,1.45
8322.00,1.45
8321.00,1.45
8320.00,1.45
8319.00,1.45
8318.00,1.45
8317.00,1.45
8316.00,1.45
8315.00,1.44
8314.00,1.44
8313.00,1.44
8312.00,1.44
8311.00,1.44
8310.00,1.44
8309.00,1.44
8308.00,1.44
8307.00,1.44
8306.00,1.44
8305.00,1.44
8304.00,1.44
8303.00,1.44
8302.00,1.44
8301.00,1.44
8300.00,1.44
8299.00,1.45
8298.00,1.45
8297.00,1.45
8296.00,1.46
8295.00,1.46
8294.00,1.46
8293.00,1.46
8292.00,1.47
8291.00,1.47
8290.00,1.47
8289.00,1.47
8288.00,1.47
8287.00,1.47
8286.00,1.47
8285.00,1.47
8284.00,1.47
8283.00,1.46
8282.00,1.46
8281.00,1.46
8280.00,1.46
8279.00,1.46
8278.00,1.46
8277.00,1.45
8276.00,1.45
8275.00,1.45
8274.00,1.44
8273.00,1.44
8272.00,1.43
8271.00,1.43
8270.00,1.42
8269.00,1.42
8268.00,1.41
8267.00,1.41
8266.00,1.41
8265.00,1.41
8264.00,1.41
8263.00,1.40
8262.00,1.40
8261.00,1.41
8260.00,1.41
8259.00,1.41
8258.00,1.41
8257.00,1.41
8256.00,1.42
8255.00,1.42
8254.00,1.43
8253.00,1.43
8252.00,1.44
8251.00,1.44
8250.00,1.45
8249.00,1.46
8248.00,1.46
8247.00,1.47
8246.00,1.48
8245.00,1.48
8244.00,1.49
8243.00,1.50
8242.00,1.51
8241.00,1.51
8240.00,1.52
8239.00,1.53
8238.00,1.53
8237.00,1.54
8236.00,1.54
8235.00,1.55
8234.00,1.55
8233.00,1.55
8232.00,1.56
8231.00,1.56
8230.00,1.56
8229.00,1.56
8228.00,1.56
8227.00,1.56
8226.00,1.56
8225.00,1.56
8224.00,1.55
8223.00,1.55
8222.00,1.55
8221.00,1.54
8220.00,1.54
8219.00,1.54
8218.00,1.53
8217.00,1.53
8216.00,1.53
8215.00,1.53
8214.00,1.52
8213.00,1.52
8212.00,1.52
8211.00,1.51
8210.00,1.51
8209.00,1.51
8208.00,1.51
8207.00,1.50
8206.00,1.50
8205.00,1.50
8204.00,1.50
8203.00,1.50
8202.00,1.49
8201.00,1.49
8200.00,1.49
8199.00,1.49
8198.00,1.49
8197.00,1.49
8196.00,1.49
8195.00,1.49
8194.00,1.49
8193.00,1.49
8192.00,1.49
8191.00,1.49
8190.00,1.49
8189.00,1.49
8188.00,1.49
8187.00,1.49
8186.00,1.49
8185.00,1.49
8184.00,1.49
8183.00,1.49
8182.00,1.49
8181.00,1.49
8180.00,1.49
8179.00,1.49
8178.00,1.49
8177.00,1.49
8176.00,1.49
8175.00,1.50
8174.00,1.50
8173.00,1.50
8172.00,1.50
8171.00,1.50
8170.00,1.51
8169.00,1.51
8168.00,1.51
8167.00,1.51
8166.00,1.51
8165.00,1.52
8164.00,1.52
8163.00,1.52
8162.00,1.52
8161.00,1.52
8160.00,1.52
8159.00,1.52
8158.00,1.52
8157.00,1.52
8156.00,1.52
8155.00,1.52
8154.00,1.52
8153.00,1.51
8152.00,1.51
8151.00,1.51
8150.00,1.51
8149.00,1.50
8148.00,1.50
8147.00,1.50
8146.00,1.50
8145.00,1.50
8144.00,1.49
8143.00,1.49
8142.00,1.49
8141.00,1.49
8140.00,1.49
8139.00,1.49
8138.00,1.50
8137.00,1.50
8136.00,1.50
8135.00,1.50
8134.00,1.51
8133.00,1.51
8132.00,1.52
8131.00,1.52
8130.00,1.52
8129.00,1.53
8128.00,1.53
8127.00,1.54
8126.00,1.54
8125.00,1.55
8124.00,1.55
8123.00,1.56
8122.00,1.56
8121.00,1.56
8120.00,1.57
8119.00,1.57
8118.00,1.57
8117.00,1.57
8116.00,1.57
8115.00,1.57
8114.00,1.57
8113.00,1.57
8112.00,1.57
8111.00,1.57
8110.00,1.57
8109.00,1.57
8108.00,1.57
8107.00,1.56
8106.00,1.56
8105.00,1.56
8104.00,1.56
8103.00,1.55
8102.00,1.55
8101.00,1.55
8100.00,1.55
8099.00,1.55
8098.00,1.54
8097.00,1.54
8096.00,1.54
8095.00,1.53
8094.00,1.53
8093.00,1.53
8092.00,1.53
8091.00,1.53
8090.00,1.53
8089.00,1.53
8088.00,1.53
8087.00,1.53
8086.00,1.53
8085.00,1.53
8084.00,1.53
8083.00,1.53
8082.00,1.53
8081.00,1.53
8080.00,1.53
8079.00,1.53
8078.00,1.54
8077.00,1.54
8076.00,1.54
8075.00,1.54
8074.00,1.54
8073.00,1.55
8072.00,1.55
8071.00,1.55
8070.00,1.55
8069.00,1.56
8068.00,1.56
8067.00,1.56
8066.00,1.56
8065.00,1.56
8064.00,1.56
8063.00,1.57
8062.00,1.57
8061.00,1.57
8060.00,1.57
8059.00,1.57
8058.00,1.57
8057.00,1.57
8056.00,1.57
8055.00,1.57
8054.00,1.57
8053.00,1.58
8052.00,1.58
8051.00,1.58
8050.00,1.58
8049.00,1.57
8048.00,1.57
8047.00,1.57
8046.00,1.57
8045.00,1.56
8044.00,1.56
8043.00,1.56
8042.00,1.55
8041.00,1.55
8040.00,1.54
8039.00,1.54
8038.00,1.53
8037.00,1.53
8036.00,1.52
8035.00,1.52
8034.00,1.51
8033.00,1.51
8032.00,1.50
8031.00,1.50
8030.00,1.49
8029.00,1.49
8028.00,1.48
8027.00,1.48
8026.00,1.47
8025.00,1.47
8024.00,1.46
8023.00,1.46
8022.00,1.46
8021.00,1.45
8020.00,1.45
8019.00,1.45
8018.00,1.45
8017.00,1.45
8016.00,1.45
8015.00,1.46
8014.00,1.46
8013.00,1.46
8012.00,1.46
8011.00,1.47
8010.00,1.47
8009.00,1.47
8008.00,1.48
8007.00,1.48
8006.00,1.49
8005.00,1.49
8004.00,1.50
8003.00,1.50
8002.00,1.50
8001.00,1.51
8000.00,1.51
7999.00,1.51
7998.00,1.51
7997.00,1.51
7996.00,1.52
7995.00,1.52
7994.00,1.51
7993.00,1.51
7992.00,1.51
7991.00,1.51
7990.00,1.51
7989.00,1.50
7988.00,1.50
7987.00,1.50
7986.00,1.50
7985.00,1.50
7984.00,1.49
7983.00,1.49
7982.00,1.49
7981.00,1.48
7980.00,1.48
7979.00,1.48
7978.00,1.47
7977.00,1.47
7976.00,1.47
7975.00,1.47
7974.00,1.47
7973.00,1.46
7972.00,1.46
7971.00,1.46
7970.00,1.46
7969.00,1.47
7968.00,1.47
7967.00,1.47
7966.00,1.47
7965.00,1.47
7964.00,1.47
7963.00,1.47
7962.00,1.47
7961.00,1.48
7960.00,1.48
7959.00,1.48
7958.00,1.48
7957.00,1.48
7956.00,1.48
7955.00,1.48
7954.00,1.48
7953.00,1.48
7952.00,1.48
7951.00,1.48
7950.00,1.48
7949.00,1.48
7948.00,1.48
7947.00,1.48
7946.00,1.48
7945.00,1.48
7944.00,1.48
7943.00,1.48
7942.00,1.48
7941.00,1.48
7940.00,1.48
7939.00,1.48
7938.00,1.48
7937.00,1.49
7936.00,1.49
7935.00,1.49
7934.00,1.49
7933.00,1.49
7932.00,1.49
7931.00,1.49
7930.00,1.49
7929.00,1.50
7928.00,1.50
7927.00,1.50
7926.00,1.50
7925.00,1.50
7924.00,1.49
7923.00,1.49
7922.00,1.49
7921.00,1.49
7920.00,1.49
7919.00,1.49
7918.00,1.49
7917.00,1.49
7916.00,1.49
7915.00,1.49
7914.00,1.49
7913.00,1.49
7912.00,1.49
7911.00,1.49
7910.00,1.48
7909.00,1.48
7908.00,1.48
7907.00,1.48
7906.00,1.48
7905.00,1.48
7904.00,1.48
7903.00,1.48
7902.00,1.48
7901.00,1.48
7900.00,1.48
7899.00,1.48
7898.00,1.48
7897.00,1.49
7896.00,1.49
7895.00,1.49
7894.00,1.49
7893.00,1.50
7892.00,1.50
7891.00,1.50
7890.00,1.50
7889.00,1.51
7888.00,1.51
7887.00,1.51
7886.00,1.52
7885.00,1.52
7884.00,1.52
7883.00,1.53
7882.00,1.53
7881.00,1.53
7880.00,1.54
7879.00,1.54
7878.00,1.55
7877.00,1.55
7876.00,1.56
7875.00,1.56
7874.00,1.57
7873.00,1.57
7872.00,1.57
7871.00,1.58
7870.00,1.58
7869.00,1.58
7868.00,1.59
7867.00,1.59
7866.00,1.59
7865.00,1.60
7864.00,1.60
7863.00,1.60
7862.00,1.60
7861.00,1.61
7860.00,1.61
7859.00,1.61
7858.00,1.61
7857.00,1.61
7856.00,1.62
7855.00,1.62
7854.00,1.62
7853.00,1.62
7852.00,1.62
7851.00,1.62
7850.00,1.62
7849.00,1.62
7848.00,1.62
7847.00,1.62
7846.00,1.62
7845.00,1.62
7844.00,1.62
7843.00,1.62
7842.00,1.62
7841.00,1.62
7840.00,1.62
7839.00,1.62
7838.00,1.62
7837.00,1.62
7836.00,1.62
7835.00,1.62
7834.00,1.62
7833.00,1.62
7832.00,1.62
7831.00,1.62
7830.00,1.62
7829.00,1.62
7828.00,1.62
7827.00,1.61
7826.00,1.61
7825.00,1.61
7824.00,1.61
7823.00,1.61
7822.00,1.61
7821.00,1.61
7820.00,1.61
7819.00,1.60
7818.00,1.60
7817.00,1.60
7816.00,1.60
7815.00,1.60
7814.00,1.60
7813.00,1.60
7812.00,1.59
7811.00,1.59
7810.00,1.59
7809.00,1.59
7808.00,1.59
7807.00,1.58
7806.00,1.58
7805.00,1.58
7804.00,1.58
7803.00,1.58
7802.00,1.58
7801.00,1.57
7800.00,1.57
7799.00,1.57
7798.00,1.57
7797.00,1.57
7796.00,1.57
7795.00,1.57
7794.00,1.57
7793.00,1.57
7792.00,1.57
7791.00,1.57
7790.00,1.57
7789.00,1.57
7788.00,1.57
7787.00,1.56
7786.00,1.56
7785.00,1.56
7784.00,1.56
7783.00,1.56
7782.00,1.56
7781.00,1.56
7780.00,1.56
7779.00,1.56
7778.00,1.56
7777.00,1.56
7776.00,1.56
7775.00,1.57
7774.00,1.57
7773.00,1.57
7772.00,1.57
7771.00,1.57
7770.00,1.57
7769.00,1.58
7768.00,1.58
7767.00,1.58
7766.00,1.58
7765.00,1.59
7764.00,1.59
7763.00,1.59
7762.00,1.59
7761.00,1.59
7760.00,1.60
7759.00,1.60
7758.00,1.60
7757.00,1.60
7756.00,1.61
7755.00,1.61
7754.00,1.61
7753.00,1.61
7752.00,1.61
7751.00,1.61
7750.00,1.61
7749.00,1.61
7748.00,1.61
7747.00,1.61
7746.00,1.61
7745.00,1.61
7744.00,1.61
7743.00,1.60
7742.00,1.60
7741.00,1.60
7740.00,1.60
7739.00,1.59
7738.00,1.59
7737.00,1.59
7736.00,1.59
7735.00,1.58
7734.00,1.58
7733.00,1.58
7732.00,1.58
7731.00,1.58
7730.00,1.57
7729.00,1.57
7728.00,1.57
7727.00,1.57
7726.00,1.57
7725.00,1.57
7724.00,1.57
7723.00,1.57
7722.00,1.57
7721.00,1.57
7720.00,1.57
7719.00,1.57
7718.00,1.57
7717.00,1.57
7716.00,1.57
7715.00,1.57
7714.00,1.57
7713.00,1.57
7712.00,1.58
7711.00,1.58
7710.00,1.58
7709.00,1.58
7708.00,1.58
7707.00,1.58
7706.00,1.58
7705.00,1.58
7704.00,1.59
7703.00,1.59
7702.00,1.59
7701.00,1.59
7700.00,1.59
7699.00,1.59
7698.00,1.60
7697.00,1.60
7696.00,1.60
7695.00,1.60
7694.00,1.60
7693.00,1.60
7692.00,1.61
7691.00,1.61
7690.00,1.61
7689.00,1.61
7688.00,1.61
7687.00,1.61
7686.00,1.61
7685.00,1.61
7684.00,1.62
7683.00,1.62
7682.00,1.62
7681.00,1.61
7680.00,1.61
7679.00,1.61
7678.00,1.61
7677.00,1.61
7676.00,1.61
7675.00,1.61
7674.00,1.60
7673.00,1.60
7672.00,1.60
7671.00,1.60
7670.00,1.59
7669.00,1.59
7668.00,1.59
7667.00,1.59
7666.00,1.58
7665.00,1.58
7664.00,1.58
7663.00,1.58
7662.00,1.57
7661.00,1.57
7660.00,1.57
7659.00,1.57
7658.00,1.56
7657.00,1.56
7656.00,1.56
7655.00,1.56
7654.00,1.56
7653.00,1.56
7652.00,1.56
7651.00,1.56
7650.00,1.56
7649.00,1.56
7648.00,1.56
7647.00,1.56
7646.00,1.56
7645.00,1.56
7644.00,1.56
7643.00,1.56
7642.00,1.56
7641.00,1.56
7640.00,1.56
7639.00,1.55
7638.00,1.55
7637.00,1.55
7636.00,1.56
7635.00,1.56
7634.00,1.56
7633.00,1.56
7632.00,1.56
7631.00,1.56
7630.00,1.56
7629.00,1.56
7628.00,1.56
7627.00,1.56
7626.00,1.56
7625.00,1.56
7624.00,1.56
7623.00,1.56
7622.00,1.56
7621.00,1.56
7620.00,1.56
7619.00,1.56
7618.00,1.57
7617.00,1.57
7616.00,1.57
7615.00,1.57
7614.00,1.57
7613.00,1.57
7612.00,1.57
7611.00,1.57
7610.00,1.58
7609.00,1.58
7608.00,1.57
7607.00,1.57
7606.00,1.57
7605.00,1.57
7604.00,1.57
7603.00,1.58
7602.00,1.58
7601.00,1.58
7600.00,1.58
7599.00,1.58
7598.00,1.58
7597.00,1.58
7596.00,1.58
7595.00,1.59
7594.00,1.59
7593.00,1.59
7592.00,1.59
7591.00,1.60
7590.00,1.60
7589.00,1.60
7588.00,1.60
7587.00,1.61
7586.00,1.61
7585.00,1.61
7584.00,1.62
7583.00,1.62
7582.00,1.62
7581.00,1.63
7580.00,1.63
7579.00,1.64
7578.00,1.64
7577.00,1.64
7576.00,1.65
7575.00,1.65
7574.00,1.65
7573.00,1.65
7572.00,1.65
7571.00,1.66
7570.00,1.66
7569.00,1.66
7568.00,1.66
7567.00,1.65
7566.00,1.65
7565.00,1.65
7564.00,1.65
7563.00,1.65
7562.00,1.65
7561.00,1.65
7560.00,1.64
7559.00,1.64
7558.00,1.64
7557.00,1.64
7556.00,1.64
7555.00,1.63
7554.00,1.63
7553.00,1.63
7552.00,1.63
7551.00,1.62
7550.00,1.62
7549.00,1.62
7548.00,1.62
7547.00,1.62
7546.00,1.61
7545.00,1.61
7544.00,1.61
7543.00,1.61
7542.00,1.61
7541.00,1.62
7540.00,1.62
7539.00,1.62
7538.00,1.62
7537.00,1.62
7536.00,1.62
7535.00,1.62
7534.00,1.62
7533.00,1.63
7532.00,1.63
7531.00,1.63
7530.00,1.63
7529.00,1.63
7528.00,1.63
7527.00,1.64
7526.00,1.64
7525.00,1.64
7524.00,1.64
7523.00,1.64
7522.00,1.64
7521.00,1.64
7520.00,1.64
7519.00,1.64
7518.00,1.64
7517.00,1.64
7516.00,1.64
7515.00,1.63
7514.00,1.63
7513.00,1.63
7512.00,1.63
7511.00,1.63
7510.00,1.62
7509.00,1.62
7508.00,1.62
7507.00,1.62
7506.00,1.62
7505.00,1.62
7504.00,1.61
7503.00,1.61
7502.00,1.61
7501.00,1.61
7500.00,1.60
7499.00,1.60
7498.00,1.60
7497.00,1.60
7496.00,1.60
7495.00,1.59
7494.00,1.59
7493.00,1.59
7492.00,1.59
7491.00,1.59
7490.00,1.58
7489.00,1.58
7488.00,1.58
7487.00,1.58
7486.00,1.57
7485.00,1.57
7484.00,1.57
7483.00,1.57
7482.00,1.56
7481.00,1.56
7480.00,1.56
7479.00,1.55
7478.00,1.55
7477.00,1.54
7476.00,1.54
7475.00,1.54
7474.00,1.53
7473.00,1.53
7472.00,1.53
7471.00,1.53
7470.00,1.52
7469.00,1.52
7468.00,1.52
7467.00,1.52
7466.00,1.52
7465.00,1.51
7464.00,1.51
7463.00,1.51
7462.00,1.51
7461.00,1.51
7460.00,1.51
7459.00,1.51
7458.00,1.51
7457.00,1.51
7456.00,1.51
7455.00,1.51
7454.00,1.51
7453.00,1.51
7452.00,1.52
7451.00,1.52
7450.00,1.52
7449.00,1.53
7448.00,1.53
7447.00,1.53
7446.00,1.53
7445.00,1.54
7444.00,1.54
7443.00,1.54
7442.00,1.54
7441.00,1.55
7440.00,1.55
7439.00,1.55
7438.00,1.56
7437.00,1.56
7436.00,1.56
7435.00,1.56
7434.00,1.57
7433.00,1.57
7432.00,1.57
7431.00,1.57
7430.00,1.57
7429.00,1.58
7428.00,1.58
7427.00,1.58
7426.00,1.58
7425.00,1.58
7424.00,1.58
7423.00,1.58
7422.00,1.58
7421.00,1.58
7420.00,1.58
7419.00,1.58
7418.00,1.58
7417.00,1.58
7416.00,1.58
7415.00,1.57
7414.00,1.57
7413.00,1.57
7412.00,1.57
7411.00,1.56
7410.00,1.56
7409.00,1.56
7408.00,1.56
7407.00,1.56
7406.00,1.55
7405.00,1.55
7404.00,1.55
7403.00,1.55
7402.00,1.54
7401.00,1.54
7400.00,1.54
7399.00,1.54
7398.00,1.54
7397.00,1.54
7396.00,1.54
7395.00,1.54
7394.00,1.54
7393.00,1.54
7392.00,1.54
7391.00,1.54
7390.00,1.54
7389.00,1.54
7388.00,1.54
7387.00,1.54
7386.00,1.54
7385.00,1.55
7384.00,1.55
7383.00,1.55
7382.00,1.55
7381.00,1.55
7380.00,1.55
7379.00,1.55
7378.00,1.56
7377.00,1.56
7376.00,1.56
7375.00,1.56
7374.00,1.56
7373.00,1.56
7372.00,1.57
7371.00,1.57
7370.00,1.57
7369.00,1.57
7368.00,1.57
7367.00,1.57
7366.00,1.57
7365.00,1.57
7364.00,1.58
7363.00,1.58
7362.00,1.58
7361.00,1.58
7360.00,1.58
7359.00,1.58
7358.00,1.58
7357.00,1.58
7356.00,1.58
7355.00,1.58
7354.00,1.58
7353.00,1.58
7352.00,1.58
7351.00,1.58
7350.00,1.58
7349.00,1.58
7348.00,1.57
7347.00,1.57
7346.00,1.57
7345.00,1.57
7344.00,1.57
7343.00,1.56
7342.00,1.56
7341.00,1.56
7340.00,1.55
7339.00,1.55
7338.00,1.55
7337.00,1.54
7336.00,1.54
7335.00,1.53
7334.00,1.53
7333.00,1.53
7332.00,1.52
7331.00,1.52
7330.00,1.52
7329.00,1.51
7328.00,1.51
7327.00,1.51
7326.00,1.51
7325.00,1.51
7324.00,1.51
7323.00,1.51
7322.00,1.51
7321.00,1.51
7320.00,1.51
7319.00,1.51
7318.00,1.51
7317.00,1.51
7316.00,1.51
7315.00,1.52
7314.00,1.52
7313.00,1.52
7312.00,1.52
7311.00,1.52
7310.00,1.53
7309.00,1.53
7308.00,1.53
7307.00,1.54
7306.00,1.54
7305.00,1.54
7304.00,1.54
7303.00,1.55
7302.00,1.55
7301.00,1.55
7300.00,1.55
7299.00,1.56
7298.00,1.56
7297.00,1.56
7296.00,1.56
7295.00,1.56
7294.00,1.56
7293.00,1.55
7292.00,1.55
7291.00,1.55
7290.00,1.55
7289.00,1.55
7288.00,1.55
7287.00,1.55
7286.00,1.55
7285.00,1.55
7284.00,1.55
7283.00,1.55
7282.00,1.55
7281.00,1.55
7280.00,1.54
7279.00,1.54
7278.00,1.54
7277.00,1.54
7276.00,1.54
7275.00,1.53
7274.00,1.53
7273.00,1.53
7272.00,1.53
7271.00,1.53
7270.00,1.52
7269.00,1.52
7268.00,1.52
7267.00,1.52
7266.00,1.52
7265.00,1.52
7264.00,1.52
7263.00,1.52
7262.00,1.51
7261.00,1.51
7260.00,1.51
7259.00,1.50
7258.00,1.50
7257.00,1.50
7256.00,1.49
7255.00,1.49
7254.00,1.49
7253.00,1.48
7252.00,1.48
7251.00,1.48
7250.00,1.48
7249.00,1.48
7248.00,1.47
7247.00,1.47
7246.00,1.47
7245.00,1.47
7244.00,1.47
7243.00,1.46
7242.00,1.46
7241.00,1.46
7240.00,1.46
7239.00,1.46
7238.00,1.45
7237.00,1.45
7236.00,1.45
7235.00,1.45
7234.00,1.45
7233.00,1.45
7232.00,1.45
7231.00,1.45
7230.00,1.45
7229.00,1.45
7228.00,1.45
7227.00,1.45
7226.00,1.45
7225.00,1.45
7224.00,1.45
7223.00,1.45
7222.00,1.45
7221.00,1.45
7220.00,1.45
7219.00,1.45
7218.00,1.45
7217.00,1.45
7216.00,1.45
7215.00,1.45
7214.00,1.45
7213.00,1.45
7212.00,1.45
7211.00,1.45
7210.00,1.45
7209.00,1.45
7208.00,1.45
7207.00,1.45
7206.00,1.45
7205.00,1.45
7204.00,1.45
7203.00,1.45
7202.00,1.44
7201.00,1.44
7200.00,1.44
7199.00,1.44
7198.00,1.43
7197.00,1.43
7196.00,1.43
7195.00,1.43
7194.00,1.42
7193.00,1.42
7192.00,1.41
7191.00,1.41
7190.00,1.41
7189.00,1.40
7188.00,1.40
7187.00,1.40
7186.00,1.39
7185.00,1.39
7184.00,1.39
7183.00,1.38
7182.00,1.38
7181.00,1.37
7180.00,1.37
7179.00,1.36
7178.00,1.36
7177.00,1.35
7176.00,1.35
7175.00,1.34
7174.00,1.34
7173.00,1.33
7172.00,1.33
7171.00,1.33
7170.00,1.32
7169.00,1.32
7168.00,1.32
7167.00,1.31
7166.00,1.31
7165.00,1.31
7164.00,1.31
7163.00,1.30
7162.00,1.30
7161.00,1.30
7160.00,1.30
7159.00,1.30
7158.00,1.30
7157.00,1.29
7156.00,1.29
7155.00,1.29
7154.00,1.29
7153.00,1.29
7152.00,1.29
7151.00,1.29
7150.00,1.29
7149.00,1.29
7148.00,1.29
7147.00,1.29
7146.00,1.29
7145.00,1.29
7144.00,1.29
7143.00,1.28
7142.00,1.28
7141.00,1.28
7140.00,1.28
7139.00,1.28
7138.00,1.28
7137.00,1.27
7136.00,1.27
7135.00,1.27
7134.00,1.26
7133.00,1.26
7132.00,1.26
7131.00,1.26
7130.00,1.26
7129.00,1.25
7128.00,1.25
7127.00,1.25
7126.00,1.25
7125.00,1.24
7124.00,1.24
7123.00,1.24
7122.00,1.24
7121.00,1.23
7120.00,1.23
7119.00,1.23
7118.00,1.22
7117.00,1.22
7116.00,1.22
7115.00,1.22
7114.00,1.22
7113.00,1.21
7112.00,1.21
7111.00,1.21
7110.00,1.21
7109.00,1.21
7108.00,1.20
7107.00,1.20
7106.00,1.20
7105.00,1.20
7104.00,1.20
7103.00,1.19
7102.00,1.19
7101.00,1.19
7100.00,1.19
7099.00,1.18
7098.00,1.18
7097.00,1.18
7096.00,1.17
7095.00,1.17
7094.00,1.17
7093.00,1.17
7092.00,1.17
7091.00,1.16
7090.00,1.16
7089.00,1.16
7088.00,1.16
7087.00,1.16
7086.00,1.16
7085.00,1.16
7084.00,1.16
7083.00,1.15
7082.00,1.15
7081.00,1.15
7080.00,1.15
7079.00,1.15
7078.00,1.15
7077.00,1.15
7076.00,1.15
7075.00,1.15
7074.00,1.15
7073.00,1.15
7072.00,1.15
7071.00,1.15
7070.00,1.15
7069.00,1.15
7068.00,1.15
7067.00,1.14
7066.00,1.14
7065.00,1.14
7064.00,1.14
7063.00,1.14
7062.00,1.14
7061.00,1.14
7060.00,1.13
7059.00,1.13
7058.00,1.13
7057.00,1.13
7056.00,1.13
7055.00,1.12
7054.00,1.12
7053.00,1.12
7052.00,1.12
7051.00,1.11
7050.00,1.11
7049.00,1.11
7048.00,1.11
7047.00,1.11
7046.00,1.11
7045.00,1.11
7044.00,1.11
7043.00,1.11
7042.00,1.11
7041.00,1.10
7040.00,1.10
7039.00,1.10
7038.00,1.10
7037.00,1.10
7036.00,1.10
7035.00,1.10
7034.00,1.10
7033.00,1.10
7032.00,1.10
7031.00,1.10
7030.00,1.10
7029.00,1.10
7028.00,1.10
7027.00,1.10
7026.00,1.11
7025.00,1.11
7024.00,1.11
7023.00,1.11
7022.00,1.11
7021.00,1.11
7020.00,1.11
7019.00,1.11
7018.00,1.11
7017.00,1.11
7016.00,1.11
7015.00,1.12
7014.00,1.12
7013.00,1.12
7012.00,1.12
7011.00,1.12
7010.00,1.12
7009.00,1.12
7008.00,1.13
7007.00,1.13
7006.00,1.13
7005.00,1.13
7004.00,1.13
7003.00,1.13
7002.00,1.13
7001.00,1.13
7000.00,1.13
6999.00,1.13
6998.00,1.13
6997.00,1.13
6996.00,1.13
6995.00,1.13
6994.00,1.13
6993.00,1.13
6992.00,1.12
6991.00,1.12
6990.00,1.12
6989.00,1.11
6988.00,1.11
6987.00,1.11
6986.00,1.10
6985.00,1.10
6984.00,1.09
6983.00,1.09
6982.00,1.09
6981.00,1.08
6980.00,1.08
6979.00,1.07
6978.00,1.07
6977.00,1.06
6976.00,1.06
6975.00,1.05
6974.00,1.05
6973.00,1.05
6972.00,1.04
6971.00,1.04
6970.00,1.03
6969.00,1.03
6968.00,1.03
6967.00,1.02
6966.00,1.02
6965.00,1.02
6964.00,1.02
6963.00,1.01
6962.00,1.01
6961.00,1.01
6960.00,1.01
6959.00,1.01
6958.00,1.00
6957.00,1.00
6956.00,1.00
6955.00,1.00
6954.00,1.00
6953.00,1.00
6952.00,1.00
6951.00,1.00
6950.00,1.00
6949.00,1.00
6948.00,1.00
6947.00,1.00
6946.00,1.00
6945.00,1.00
6944.00,1.00
6943.00,1.00
6942.00,1.00
6941.00,1.00
6940.00,1.00
6939.00,1.00
6938.00,1.00
6937.00,1.00
6936.00,1.00
6935.00,1.00
6934.00,1.00
6933.00,1.00
6932.00,1.00
6931.00,1.00
6930.00,1.00
6929.00,0.99
6928.00,0.99
6927.00,0.99
6926.00,0.99
6925.00,0.99
6924.00,0.99
6923.00,0.99
6922.00,0.99
6921.00,0.99
6920.00,0.99
6919.00,0.99
6918.00,0.99
6917.00,0.99
6916.00,0.99
6915.00,1.00
6914.00,1.00
6913.00,1.00
6912.00,1.00
6911.00,1.00
6910.00,1.01
6909.00,1.01
6908.00,1.01
6907.00,1.01
6906.00,1.01
6905.00,1.02
6904.00,1.02
6903.00,1.02
6902.00,1.02
6901.00,1.03
6900.00,1.03
6899.00,1.03
6898.00,1.03
6897.00,1.03
6896.00,1.03
6895.00,1.03
6894.00,1.03
6893.00,1.03
6892.00,1.03
6891.00,1.03
6890.00,1.03
6889.00,1.03
6888.00,1.03
6887.00,1.03
6886.00,1.02
6885.00,1.02
6884.00,1.02
6883.00,1.02
6882.00,1.01
6881.00,1.01
6880.00,1.01
6879.00,1.00
6878.00,1.00
6877.00,1.00
6876.00,0.99
6875.00,0.99
6874.00,0.99
6873.00,0.99
6872.00,0.98
6871.00,0.98
6870.00,0.98
6869.00,0.98
6868.00,0.98
6867.00,0.98
6866.00,0.98
6865.00,0.98
6864.00,0.98
6863.00,0.98
6862.00,0.98
6861.00,0.98
6860.00,0.98
6859.00,0.98
6858.00,0.98
6857.00,0.98
6856.00,0.98
6855.00,0.99
6854.00,0.99
6853.00,0.99
6852.00,0.99
6851.00,0.99
6850.00,1.00
6849.00,1.00
6848.00,1.00
6847.00,1.01
6846.00,1.01
6845.00,1.01
6844.00,1.01
6843.00,1.02
6842.00,1.02
6841.00,1.02
6840.00,1.02
6839.00,1.02
6838.00,1.02
6837.00,1.02
6836.00,1.03
6835.00,1.03
6834.00,1.03
6833.00,1.03
6832.00,1.03
6831.00,1.03
6830.00,1.03
6829.00,1.04
6828.00,1.04
6827.00,1.04
6826.00,1.04
6825.00,1.04
6824.00,1.04
6823.00,1.04
6822.00,1.04
6821.00,1.04
6820.00,1.04
6819.00,1.04
6818.00,1.04
6817.00,1.04
6816.00,1.04
6815.00,1.04
6814.00,1.04
6813.00,1.03
6812.00,1.03
6811.00,1.03
6810.00,1.03
6809.00,1.03
6808.00,1.03
6807.00,1.03
6806.00,1.03
6805.00,1.03
6804.00,1.03
6803.00,1.03
6802.00,1.03
6801.00,1.03
6800.00,1.03
6799.00,1.03
6798.00,1.02
6797.00,1.02
6796.00,1.02
6795.00,1.02
6794.00,1.02
6793.00,1.02
6792.00,1.02
6791.00,1.02
6790.00,1.02
6789.00,1.02
6788.00,1.02
6787.00,1.01
6786.00,1.01
6785.00,1.01
6784.00,1.01
6783.00,1.01
6782.00,1.01
6781.00,1.01
6780.00,1.01
6779.00,1.00
6778.00,1.00
6777.00,1.00
6776.00,1.00
6775.00,1.00
6774.00,1.00
6773.00,1.00
6772.00,1.00
6771.00,1.00
6770.00,0.99
6769.00,0.99
6768.00,0.99
6767.00,0.99
6766.00,0.99
6765.00,0.99
6764.00,0.99
6763.00,0.99
6762.00,0.99
6761.00,0.99
6760.00,0.99
6759.00,0.99
6758.00,0.99
6757.00,1.00
6756.00,1.00
6755.00,1.00
6754.00,1.00
6753.00,1.00
6752.00,1.01
6751.00,1.01
6750.00,1.01
6749.00,1.01
6748.00,1.02
6747.00,1.02
6746.00,1.02
6745.00,1.02
6744.00,1.03
6743.00,1.03
6742.00,1.03
6741.00,1.03
6740.00,1.04
6739.00,1.04
6738.00,1.04
6737.00,1.05
6736.00,1.05
6735.00,1.06
6734.00,1.06
6733.00,1.06
6732.00,1.07
6731.00,1.07
6730.00,1.07
6729.00,1.08
6728.00,1.08
6727.00,1.08
6726.00,1.09
6725.00,1.09
6724.00,1.09
6723.00,1.09
6722.00,1.10
6721.00,1.10
6720.00,1.10
6719.00,1.10
6718.00,1.10
6717.00,1.11
6716.00,1.11
6715.00,1.11
6714.00,1.11
6713.00,1.11
6712.00,1.11
6711.00,1.11
6710.00,1.11
6709.00,1.11
6708.00,1.11
6707.00,1.11
6706.00,1.11
6705.00,1.11
6704.00,1.12
6703.00,1.12
6702.00,1.12
6701.00,1.12
6700.00,1.12
6699.00,1.12
6698.00,1.12
6697.00,1.12
6696.00,1.12
6695.00,1.12
6694.00,1.13
6693.00,1.13
6692.00,1.13
6691.00,1.13
6690.00,1.13
6689.00,1.13
6688.00,1.13
6687.00,1.14
6686.00,1.14
6685.00,1.14
6684.00,1.14
6683.00,1.15
6682.00,1.15
6681.00,1.15
6680.00,1.15
6679.00,1.15
6678.00,1.16
6677.00,1.16
6676.00,1.16
6675.00,1.16
6674.00,1.16
6673.00,1.17
6672.00,1.17
6671.00,1.17
6670.00,1.17
6669.00,1.17
6668.00,1.17
6667.00,1.17
6666.00,1.17
6665.00,1.17
6664.00,1.18
6663.00,1.18
6662.00,1.18
6661.00,1.18
6660.00,1.18
6659.00,1.18
6658.00,1.19
6657.00,1.19
6656.00,1.19
6655.00,1.19
6654.00,1.19
6653.00,1.19
6652.00,1.19
6651.00,1.19
6650.00,1.19
6649.00,1.19
6648.00,1.20
6647.00,1.20
6646.00,1.20
6645.00,1.20
6644.00,1.20
6643.00,1.20
6642.00,1.20
6641.00,1.20
6640.00,1.20
6639.00,1.20
6638.00,1.21
6637.00,1.21
6636.00,1.21
6635.00,1.21
6634.00,1.21
6633.00,1.21
6632.00,1.21
6631.00,1.21
6630.00,1.21
6629.00,1.21
6628.00,1.21
6627.00,1.21
6626.00,1.21
6625.00,1.21
6624.00,1.21
6623.00,1.21
6622.00,1.21
6621.00,1.22
6620.00,1.22
6619.00,1.22
6618.00,1.22
6617.00,1.22
6616.00,1.22
6615.00,1.22
6614.00,1.23
6613.00,1.23
6612.00,1.23
6611.00,1.23
6610.00,1.23
6609.00,1.23
6608.00,1.23
6607.00,1.24
6606.00,1.24
6605.00,1.24
6604.00,1.24
6603.00,1.24
6602.00,1.24
6601.00,1.24
6600.00,1.24
6599.00,1.25
6598.00,1.25
6597.00,1.25
6596.00,1.25
6595.00,1.25
6594.00,1.25
6593.00,1.25
6592.00,1.25
6591.00,1.26
6590.00,1.26
6589.00,1.26
6588.00,1.26
6587.00,1.26
6586.00,1.26
6585.00,1.26
6584.00,1.26
6583.00,1.27
6582.00,1.27
6581.00,1.27
6580.00,1.27
6579.00,1.27
6578.00,1.28
6577.00,1.28
6576.00,1.28
6575.00,1.28
6574.00,1.28
6573.00,1.28
6572.00,1.28
6571.00,1.28
6570.00,1.28
6569.00,1.28
6568.00,1.29
6567.00,1.29
6566.00,1.29
6565.00,1.29
6564.00,1.29
6563.00,1.29
6562.00,1.29
6561.00,1.29
6560.00,1.29
6559.00,1.29
6558.00,1.28
6557.00,1.28
6556.00,1.28
6555.00,1.28
6554.00,1.28
6553.00,1.28
6552.00,1.28
6551.00,1.28
6550.00,1.28
6549.00,1.27
6548.00,1.27
6547.00,1.27
6546.00,1.27
6545.00,1.27
6544.00,1.27
6543.00,1.27
6542.00,1.27
6541.00,1.27
6540.00,1.27
6539.00,1.27
6538.00,1.26
6537.00,1.26
6536.00,1.26
6535.00,1.26
6534.00,1.26
6533.00,1.26
6532.00,1.26
6531.00,1.26
6530.00,1.26
6529.00,1.26
6528.00,1.26
6527.00,1.26
6526.00,1.26
6525.00,1.26
6524.00,1.26
6523.00,1.26
6522.00,1.26
6521.00,1.26
6520.00,1.26
6519.00,1.26
6518.00,1.26
6517.00,1.26
6516.00,1.26
6515.00,1.27
6514.00,1.27
6513.00,1.27
6512.00,1.27
6511.00,1.27
6510.00,1.27
6509.00,1.28
6508.00,1.28
6507.00,1.28
6506.00,1.28
6505.00,1.28
6504.00,1.28
6503.00,1.28
6502.00,1.28
6501.00,1.29
6500.00,1.29
6499.00,1.29
6498.00,1.29
6497.00,1.29
6496.00,1.29
6495.00,1.30
6494.00,1.30
6493.00,1.30
6492.00,1.30
6491.00,1.30
6490.00,1.31
6489.00,1.31
6488.00,1.31
6487.00,1.31
6486.00,1.31
6485.00,1.31
6484.00,1.32
6483.00,1.32
6482.00,1.32
6481.00,1.32
6480.00,1.32
6479.00,1.33
6478.00,1.33
6477.00,1.33
6476.00,1.33
6475.00,1.33
6474.00,1.34
6473.00,1.34
6472.00,1.34
6471.00,1.34
6470.00,1.34
6469.00,1.34
6468.00,1.34
6467.00,1.34
6466.00,1.34
6465.00,1.35
6464.00,1.35
6463.00,1.35
6462.00,1.35
6461.00,1.35
6460.00,1.35
6459.00,1.35
6458.00,1.35
6457.00,1.35
6456.00,1.35
6455.00,1.35
6454.00,1.35
6453.00,1.35
6452.00,1.35
6451.00,1.35
6450.00,1.35
6449.00,1.35
6448.00,1.35
6447.00,1.35
6446.00,1.35
6445.00,1.35
6444.00,1.35
6443.00,1.35
6442.00,1.35
6441.00,1.35
6440.00,1.35
6439.00,1.35
6438.00,1.35
6437.00,1.35
6436.00,1.35
6435.00,1.35
6434.00,1.35
6433.00,1.35
6432.00,1.35
6431.00,1.35
6430.00,1.35
6429.00,1.35
6428.00,1.35
6427.00,1.35
6426.00,1.35
6425.00,1.35
6424.00,1.35
6423.00,1.35
6422.00,1.35
6421.00,1.35
6420.00,1.35
6419.00,1.35
6418.00,1.35
6417.00,1.35
6416.00,1.35
6415.00,1.35
6414.00,1.35
6413.00,1.35
6412.00,1.36
6411.00,1.36
6410.00,1.36
6409.00,1.36
6408.00,1.36
6407.00,1.36
6406.00,1.36
6405.00,1.36
6404.00,1.37
6403.00,1.37
6402.00,1.37
6401.00,1.37
6400.00,1.37
6399.00,1.37
6398.00,1.37
6397.00,1.37
6396.00,1.37
6395.00,1.37
6394.00,1.37
6393.00,1.37
6392.00,1.37
6391.00,1.37
6390.00,1.37
6389.00,1.37
6388.00,1.37
6387.00,1.37
6386.00,1.37
6385.00,1.37
6384.00,1.37
6383.00,1.37
6382.00,1.37
6381.00,1.37
6380.00,1.37
6379.00,1.37
6378.00,1.37
6377.00,1.37
6376.00,1.37
6375.00,1.37
6374.00,1.37
6373.00,1.37
6372.00,1.37
6371.00,1.37
6370.00,1.37
6369.00,1.37
6368.00,1.37
6367.00,1.37
6366.00,1.37
6365.00,1.37
6364.00,1.37
6363.00,1.37
6362.00,1.37
6361.00,1.37
6360.00,1.37
6359.00,1.38
6358.00,1.38
6357.00,1.38
6356.00,1.38
6355.00,1.38
6354.00,1.38
6353.00,1.38
6352.00,1.38
6351.00,1.39
6350.00,1.39
6349.00,1.39
6348.00,1.39
6347.00,1.39
6346.00,1.40
6345.00,1.40
6344.00,1.40
6343.00,1.40
6342.00,1.40
6341.00,1.40
6340.00,1.40
6339.00,1.41
6338.00,1.41
6337.00,1.41
6336.00,1.41
6335.00,1.41
6334.00,1.41
6333.00,1.41
6332.00,1.41
6331.00,1.42
6330.00,1.42
6329.00,1.42
6328.00,1.42
6327.00,1.42
6326.00,1.42
6325.00,1.42
6324.00,1.42
6323.00,1.42
6322.00,1.42
6321.00,1.42
6320.00,1.42
6319.00,1.42
6318.00,1.42
6317.00,1.42
6316.00,1.43
6315.00,1.43
6314.00,1.43
6313.00,1.43
6312.00,1.43
6311.00,1.43
6310.00,1.43
6309.00,1.43
6308.00,1.43
6307.00,1.43
6306.00,1.43
6305.00,1.44
6304.00,1.44
6303.00,1.44
6302.00,1.44
6301.00,1.44
6300.00,1.44
6299.00,1.44
6298.00,1.44
6297.00,1.44
6296.00,1.44
6295.00,1.44
6294.00,1.44
6293.00,1.44
6292.00,1.44
6291.00,1.44
6290.00,1.45
6289.00,1.45
6288.00,1.45
6287.00,1.45
6286.00,1.45
6285.00,1.45
6284.00,1.45
6283.00,1.45
6282.00,1.45
6281.00,1.45
6280.00,1.45
6279.00,1.46
6278.00,1.46
6277.00,1.46
6276.00,1.46
6275.00,1.46
6274.00,1.46
6273.00,1.46
6272.00,1.46
6271.00,1.47
6270.00,1.47
6269.00,1.47
6268.00,1.47
6267.00,1.47
6266.00,1.47
6265.00,1.47
6264.00,1.47
6263.00,1.48
6262.00,1.48
6261.00,1.48
6260.00,1.48
6259.00,1.48
6258.00,1.48
6257.00,1.48
6256.00,1.48
6255.00,1.47
6254.00,1.47
6253.00,1.47
6252.00,1.47
6251.00,1.47
6250.00,1.47
6249.00,1.47
6248.00,1.48
6247.00,1.48
6246.00,1.48
6245.00,1.48
6244.00,1.48
6243.00,1.48
6242.00,1.48
6241.00,1.48
6240.00,1.48
6239.00,1.48
6238.00,1.48
6237.00,1.48
6236.00,1.48
6235.00,1.48
6234.00,1.48
6233.00,1.48
6232.00,1.49
6231.00,1.49
6230.00,1.49
6229.00,1.49
6228.00,1.49
6227.00,1.50
6226.00,1.50
6225.00,1.50
6224.00,1.50
6223.00,1.50
6222.00,1.51
6221.00,1.51
6220.00,1.51
6219.00,1.51
6218.00,1.51
6217.00,1.51
6216.00,1.52
6215.00,1.52
6214.00,1.52
6213.00,1.52
6212.00,1.52
6211.00,1.52
6210.00,1.53
6209.00,1.53
6208.00,1.53
6207.00,1.53
6206.00,1.53
6205.00,1.53
6204.00,1.53
6203.00,1.53
6202.00,1.53
6201.00,1.53
6200.00,1.54
6199.00,1.54
6198.00,1.54
6197.00,1.54
6196.00,1.54
6195.00,1.54
6194.00,1.54
6193.00,1.54
6192.00,1.54
6191.00,1.54
6190.00,1.54
6189.00,1.54
6188.00,1.54
6187.00,1.54
6186.00,1.54
6185.00,1.54
6184.00,1.54
6183.00,1.54
6182.00,1.54
6181.00,1.55
6180.00,1.55
6179.00,1.55
6178.00,1.55
6177.00,1.55
6176.00,1.55
6175.00,1.55
6174.00,1.55
6173.00,1.54
6172.00,1.54
6171.00,1.54
6170.00,1.54
6169.00,1.54
6168.00,1.54
6167.00,1.54
6166.00,1.54
6165.00,1.54
6164.00,1.54
6163.00,1.54
6162.00,1.54
6161.00,1.54
6160.00,1.54
6159.00,1.54
6158.00,1.54
6157.00,1.54
6156.00,1.54
6155.00,1.54
6154.00,1.54
6153.00,1.54
6152.00,1.54
6151.00,1.54
6150.00,1.54
6149.00,1.54
6148.00,1.54
6147.00,1.54
6146.00,1.54
6145.00,1.54
6144.00,1.54
6143.00,1.54
6142.00,1.54
6141.00,1.54
6140.00,1.54
6139.00,1.54
6138.00,1.54
6137.00,1.54
6136.00,1.54
6135.00,1.54
6134.00,1.54
6133.00,1.54
6132.00,1.54
6131.00,1.54
6130.00,1.54
6129.00,1.54
6128.00,1.54
6127.00,1.54
6126.00,1.54
6125.00,1.54
6124.00,1.54
6123.00,1.55
6122.00,1.55
6121.00,1.55
6120.00,1.55
6119.00,1.55
6118.00,1.55
6117.00,1.55
6116.00,1.56
6115.00,1.56
6114.00,1.56
6113.00,1.56
6112.00,1.56
6111.00,1.56
6110.00,1.56
6109.00,1.56
6108.00,1.56
6107.00,1.57
6106.00,1.57
6105.00,1.57
6104.00,1.57
6103.00,1.57
6102.00,1.57
6101.00,1.57
6100.00,1.57
6099.00,1.57
6098.00,1.57
6097.00,1.57
6096.00,1.57
6095.00,1.57
6094.00,1.57
6093.00,1.57
6092.00,1.57
6091.00,1.57
6090.00,1.57
6089.00,1.57
6088.00,1.58
6087.00,1.58
6086.00,1.58
6085.00,1.58
6084.00,1.58
6083.00,1.58
6082.00,1.59
6081.00,1.59
6080.00,1.59
6079.00,1.59
6078.00,1.59
6077.00,1.59
6076.00,1.59
6075.00,1.60
6074.00,1.60
6073.00,1.60
6072.00,1.60
6071.00,1.60
6070.00,1.61
6069.00,1.61
6068.00,1.61
6067.00,1.61
6066.00,1.61
6065.00,1.62
6064.00,1.62
6063.00,1.62
6062.00,1.62
6061.00,1.62
6060.00,1.62
6059.00,1.62
6058.00,1.61
6057.00,1.61
6056.00,1.61
6055.00,1.61
6054.00,1.61
6053.00,1.61
6052.00,1.61
6051.00,1.61
6050.00,1.61
6049.00,1.60
6048.00,1.60
6047.00,1.60
6046.00,1.60
6045.00,1.60
6044.00,1.60
6043.00,1.60
6042.00,1.60
6041.00,1.60
6040.00,1.60
6039.00,1.60
6038.00,1.60
6037.00,1.60
6036.00,1.61
6035.00,1.61
6034.00,1.61
6033.00,1.61
6032.00,1.62
6031.00,1.62
6030.00,1.62
6029.00,1.62
6028.00,1.63
6027.00,1.63
6026.00,1.63
6025.00,1.64
6024.00,1.64
6023.00,1.64
6022.00,1.64
6021.00,1.65
6020.00,1.65
6019.00,1.65
6018.00,1.65
6017.00,1.66
6016.00,1.66
6015.00,1.66
6014.00,1.66
6013.00,1.66
6012.00,1.66
6011.00,1.66
6010.00,1.66
6009.00,1.66
6008.00,1.66
6007.00,1.66
6006.00,1.66
6005.00,1.66
6004.00,1.66
6003.00,1.66
6002.00,1.66
6001.00,1.66
6000.00,1.66
5999.00,1.66
5998.00,1.66
5997.00,1.66
5996.00,1.66
5995.00,1.66
5994.00,1.66
5993.00,1.65
5992.00,1.65
5991.00,1.65
5990.00,1.65
5989.00,1.65
5988.00,1.65
5987.00,1.65
5986.00,1.65
5985.00,1.65
5984.00,1.65
5983.00,1.64
5982.00,1.64
5981.00,1.64
5980.00,1.64
5979.00,1.63
5978.00,1.63
5977.00,1.63
5976.00,1.62
5975.00,1.62
5974.00,1.62
5973.00,1.61
5972.00,1.61
5971.00,1.61
5970.00,1.60
5969.00,1.60
5968.00,1.60
5967.00,1.59
5966.00,1.59
5965.00,1.59
5964.00,1.58
5963.00,1.58
5962.00,1.58
5961.00,1.57
5960.00,1.57
5959.00,1.57
5958.00,1.57
5957.00,1.56
5956.00,1.56
5955.00,1.56
5954.00,1.56
5953.00,1.56
5952.00,1.56
5951.00,1.55
5950.00,1.55
5949.00,1.55
5948.00,1.55
5947.00,1.55
5946.00,1.55
5945.00,1.55
5944.00,1.55
5943.00,1.55
5942.00,1.55
5941.00,1.54
5940.00,1.54
5939.00,1.54
5938.00,1.54
5937.00,1.54
5936.00,1.54
5935.00,1.54
5934.00,1.54
5933.00,1.53
5932.00,1.53
5931.00,1.53
5930.00,1.53
5929.00,1.53
5928.00,1.53
5927.00,1.53
5926.00,1.52
5925.00,1.52
5924.00,1.52
5923.00,1.52
5922.00,1.52
5921.00,1.51
5920.00,1.51
5919.00,1.51
5918.00,1.51
5917.00,1.51
5916.00,1.51
5915.00,1.51
5914.00,1.51
5913.00,1.51
5912.00,1.50
5911.00,1.50
5910.00,1.50
5909.00,1.50
5908.00,1.50
5907.00,1.50
5906.00,1.50
5905.00,1.50
5904.00,1.50
5903.00,1.50
5902.00,1.50
5901.00,1.50
5900.00,1.50
5899.00,1.50
5898.00,1.50
5897.00,1.50
5896.00,1.50
5895.00,1.50
5894.00,1.50
5893.00,1.50
5892.00,1.50
5891.00,1.50
5890.00,1.50
5889.00,1.50
5888.00,1.50
5887.00,1.50
5886.00,1.50
5885.00,1.50
5884.00,1.50
5883.00,1.50
5882.00,1.50
5881.00,1.50
5880.00,1.50
5879.00,1.50
5878.00,1.50
5877.00,1.50
5876.00,1.50
5875.00,1.50
5874.00,1.50
5873.00,1.50
5872.00,1.50
5871.00,1.50
5870.00,1.50
5869.00,1.51
5868.00,1.51
5867.00,1.51
5866.00,1.51
5865.00,1.51
5864.00,1.52
5863.00,1.52
5862.00,1.52
5861.00,1.52
5860.00,1.52
5859.00,1.53
5858.00,1.53
5857.00,1.53
5856.00,1.53
5855.00,1.53
5854.00,1.54
5853.00,1.54
5852.00,1.54
5851.00,1.54
5850.00,1.54
5849.00,1.54
5848.00,1.54
5847.00,1.54
5846.00,1.54
5845.00,1.54
5844.00,1.54
5843.00,1.54
5842.00,1.54
5841.00,1.54
5840.00,1.54
5839.00,1.54
5838.00,1.54
5837.00,1.54
5836.00,1.54
5835.00,1.54
5834.00,1.54
5833.00,1.54
5832.00,1.53
5831.00,1.53
5830.00,1.53
5829.00,1.53
5828.00,1.53
5827.00,1.53
5826.00,1.53
5825.00,1.53
5824.00,1.53
5823.00,1.53
5822.00,1.53
5821.00,1.53
5820.00,1.53
5819.00,1.53
5818.00,1.53
5817.00,1.53
5816.00,1.53
5815.00,1.53
5814.00,1.53
5813.00,1.53
5812.00,1.53
5811.00,1.53
5810.00,1.53
5809.00,1.52
5808.00,1.52
5807.00,1.52
5806.00,1.52
5805.00,1.52
5804.00,1.52
5803.00,1.52
5802.00,1.52
5801.00,1.52
5800.00,1.52
5799.00,1.52
5798.00,1.52
5797.00,1.52
5796.00,1.52
5795.00,1.52
5794.00,1.52
5793.00,1.52
5792.00,1.52
5791.00,1.52
5790.00,1.52
5789.00,1.52
5788.00,1.52
5787.00,1.52
5786.00,1.52
5785.00,1.52
5784.00,1.52
5783.00,1.52
5782.00,1.52
5781.00,1.52
5780.00,1.52
5779.00,1.52
5778.00,1.52
5777.00,1.53
5776.00,1.53
5775.00,1.53
5774.00,1.53
5773.00,1.53
5772.00,1.53
5771.00,1.53
5770.00,1.53
5769.00,1.53
5768.00,1.53
5767.00,1.53
5766.00,1.54
5765.00,1.54
5764.00,1.54
5763.00,1.54
5762.00,1.54
5761.00,1.55
5760.00,1.55
5759.00,1.55
5758.00,1.55
5757.00,1.55
5756.00,1.55
5755.00,1.56
5754.00,1.56
5753.00,1.56
5752.00,1.56
5751.00,1.56
5750.00,1.56
5749.00,1.56
5748.00,1.57
5747.00,1.57
5746.00,1.57
5745.00,1.57
5744.00,1.57
5743.00,1.57
5742.00,1.57
5741.00,1.57
5740.00,1.57
5739.00,1.57
5738.00,1.57
5737.00,1.57
5736.00,1.57
5735.00,1.57
5734.00,1.57
5733.00,1.57
5732.00,1.57
5731.00,1.57
5730.00,1.56
5729.00,1.56
5728.00,1.56
5727.00,1.56
5726.00,1.56
5725.00,1.56
5724.00,1.56
5723.00,1.56
5722.00,1.56
5721.00,1.56
5720.00,1.56
5719.00,1.56
5718.00,1.56
5717.00,1.56
5716.00,1.56
5715.00,1.55
5714.00,1.55
5713.00,1.55
5712.00,1.55
5711.00,1.55
5710.00,1.55
5709.00,1.55
5708.00,1.55
5707.00,1.56
5706.00,1.56
5705.00,1.56
5704.00,1.56
5703.00,1.56
5702.00,1.56
5701.00,1.56
5700.00,1.56
5699.00,1.56
5698.00,1.56
5697.00,1.56
5696.00,1.56
5695.00,1.56
5694.00,1.56
5693.00,1.56
5692.00,1.56
5691.00,1.56
5690.00,1.56
5689.00,1.56
5688.00,1.56
5687.00,1.56
5686.00,1.56
5685.00,1.56
5684.00,1.56
5683.00,1.56
5682.00,1.56
5681.00,1.56
5680.00,1.56
5679.00,1.56
5678.00,1.56
5677.00,1.57
5676.00,1.57
5675.00,1.57
5674.00,1.57
5673.00,1.57
5672.00,1.57
5671.00,1.57
5670.00,1.57
5669.00,1.57
5668.00,1.57
5667.00,1.57
5666.00,1.57
5665.00,1.57
5664.00,1.57
5663.00,1.57
5662.00,1.57
5661.00,1.57
5660.00,1.58
5659.00,1.58
5658.00,1.58
5657.00,1.58
5656.00,1.58
5655.00,1.58
5654.00,1.58
5653.00,1.58
5652.00,1.58
5651.00,1.58
5650.00,1.58
5649.00,1.58
5648.00,1.58
5647.00,1.58
5646.00,1.58
5645.00,1.58
5644.00,1.58
5643.00,1.58
5642.00,1.58
5641.00,1.58
5640.00,1.58
5639.00,1.59
5638.00,1.59
5637.00,1.59
5636.00,1.59
5635.00,1.59
5634.00,1.59
5633.00,1.59
5632.00,1.59
5631.00,1.59
5630.00,1.59
5629.00,1.59
5628.00,1.59
5627.00,1.59
5626.00,1.59
5625.00,1.59
5624.00,1.59
5623.00,1.59
5622.00,1.59
5621.00,1.59
5620.00,1.59
5619.00,1.59
5618.00,1.59
5617.00,1.59
5616.00,1.59
5615.00,1.59
5614.00,1.59
5613.00,1.59
5612.00,1.59
5611.00,1.59
5610.00,1.59
5609.00,1.59
5608.00,1.59
5607.00,1.59
5606.00,1.59
5605.00,1.59
5604.00,1.59
5603.00,1.59
5602.00,1.60
5601.00,1.60
5600.00,1.60
5599.00,1.60
5598.00,1.60
5597.00,1.60
5596.00,1.60
5595.00,1.60
5594.00,1.60
5593.00,1.60
5592.00,1.60
5591.00,1.60
5590.00,1.60
5589.00,1.60
5588.00,1.61
5587.00,1.61
5586.00,1.61
5585.00,1.61
5584.00,1.61
5583.00,1.61
5582.00,1.61
5581.00,1.62
5580.00,1.62
5579.00,1.62
5578.00,1.62
5577.00,1.62
5576.00,1.62
5575.00,1.63
5574.00,1.63
5573.00,1.63
5572.00,1.63
5571.00,1.63
5570.00,1.63
5569.00,1.64
5568.00,1.64
5567.00,1.64
5566.00,1.64
5565.00,1.64
5564.00,1.64
5563.00,1.64
5562.00,1.64
5561.00,1.64
5560.00,1.64
5559.00,1.64
5558.00,1.64
5557.00,1.65
5556.00,1.65
5555.00,1.65
5554.00,1.65
5553.00,1.65
5552.00,1.65
5551.00,1.65
5550.00,1.65
5549.00,1.65
5548.00,1.65
5547.00,1.65
5546.00,1.65
5545.00,1.65
5544.00,1.65
5543.00,1.65
5542.00,1.65
5541.00,1.65
5540.00,1.65
5539.00,1.65
5538.00,1.65
5537.00,1.65
5536.00,1.65
5535.00,1.65
5534.00,1.65
5533.00,1.65
5532.00,1.64
5531.00,1.64
5530.00,1.64
5529.00,1.64
5528.00,1.64
5527.00,1.64
5526.00,1.64
5525.00,1.64
5524.00,1.64
5523.00,1.64
5522.00,1.64
5521.00,1.64
5520.00,1.64
5519.00,1.64
5518.00,1.64
5517.00,1.64
5516.00,1.63
5515.00,1.63
5514.00,1.63
5513.00,1.63
5512.00,1.63
5511.00,1.63
5510.00,1.63
5509.00,1.63
5508.00,1.63
5507.00,1.63
5506.00,1.63
5505.00,1.63
5504.00,1.63
5503.00,1.63
5502.00,1.63
5501.00,1.63
5500.00,1.63
5499.00,1.63
5498.00,1.63
5497.00,1.64
5496.00,1.64
5495.00,1.64
5494.00,1.64
5493.00,1.64
5492.00,1.64
5491.00,1.64
5490.00,1.64
5489.00,1.64
5488.00,1.65
5487.00,1.65
5486.00,1.65
5485.00,1.65
5484.00,1.65
5483.00,1.66
5482.00,1.66
5481.00,1.66
5480.00,1.66
5479.00,1.66
5478.00,1.66
5477.00,1.66
5476.00,1.67
5475.00,1.67
5474.00,1.67
5473.00,1.67
5472.00,1.67
5471.00,1.67
5470.00,1.67
5469.00,1.67
5468.00,1.67
5467.00,1.67
5466.00,1.67
5465.00,1.67
5464.00,1.67
5463.00,1.67
5462.00,1.67
5461.00,1.67
5460.00,1.67
5459.00,1.67
5458.00,1.67
5457.00,1.67
5456.00,1.67
5455.00,1.67
5454.00,1.67
5453.00,1.67
5452.00,1.67
5451.00,1.67
5450.00,1.67
5449.00,1.67
5448.00,1.67
5447.00,1.67
5446.00,1.66
5445.00,1.66
5444.00,1.66
5443.00,1.66
5442.00,1.66
5441.00,1.66
5440.00,1.66
5439.00,1.66
5438.00,1.66
5437.00,1.66
5436.00,1.66
5435.00,1.66
5434.00,1.66
5433.00,1.66
5432.00,1.66
5431.00,1.66
5430.00,1.66
5429.00,1.66
5428.00,1.66
5427.00,1.66
5426.00,1.67
5425.00,1.67
5424.00,1.67
5423.00,1.67
5422.00,1.67
5421.00,1.67
5420.00,1.67
5419.00,1.67
5418.00,1.67
5417.00,1.67
5416.00,1.67
5415.00,1.67
5414.00,1.67
5413.00,1.67
5412.00,1.67
5411.00,1.67
5410.00,1.67
5409.00,1.67
5408.00,1.66
5407.00,1.66
5406.00,1.66
5405.00,1.66
5404.00,1.66
5403.00,1.66
5402.00,1.66
5401.00,1.66
5400.00,1.66
5399.00,1.66
5398.00,1.65
5397.00,1.65
5396.00,1.65
5395.00,1.65
5394.00,1.65
5393.00,1.65
5392.00,1.65
5391.00,1.65
5390.00,1.64
5389.00,1.64
5388.00,1.64
5387.00,1.64
5386.00,1.64
5385.00,1.63
5384.00,1.63
5383.00,1.63
5382.00,1.63
5381.00,1.63
5380.00,1.63
5379.00,1.62
5378.00,1.62
5377.00,1.62
5376.00,1.62
5375.00,1.61
5374.00,1.61
5373.00,1.61
5372.00,1.61
5371.00,1.60
5370.00,1.60
5369.00,1.59
5368.00,1.59
5367.00,1.58
5366.00,1.58
5365.00,1.57
5364.00,1.57
5363.00,1.56
5362.00,1.56
5361.00,1.55
5360.00,1.55
5359.00,1.54
5358.00,1.53
5357.00,1.53
5356.00,1.52
5355.00,1.51
5354.00,1.51
5353.00,1.50
5352.00,1.49
5351.00,1.48
5350.00,1.48
5349.00,1.47
5348.00,1.46
5347.00,1.46
5346.00,1.45
5345.00,1.44
5344.00,1.44
5343.00,1.43
5342.00,1.42
5341.00,1.42
5340.00,1.41
5339.00,1.40
5338.00,1.40
5337.00,1.39
5336.00,1.38
5335.00,1.38
5334.00,1.37
5333.00,1.36
5332.00,1.35
5331.00,1.35
5330.00,1.34
5329.00,1.33
5328.00,1.33
5327.00,1.32
5326.00,1.31
5325.00,1.30
5324.00,1.30
5323.00,1.29
5322.00,1.28
5321.00,1.27
5320.00,1.26
5319.00,1.25
5318.00,1.25
5317.00,1.24
5316.00,1.23
5315.00,1.22
5314.00,1.21
5313.00,1.20
5312.00,1.19
5311.00,1.18
5310.00,1.17
5309.00,1.16
5308.00,1.16
5307.00,1.15
5306.00,1.14
5305.00,1.13
5304.00,1.12
5303.00,1.11
5302.00,1.10
5301.00,1.09
5300.00,1.08
5299.00,1.07
5298.00,1.07
5297.00,1.06
5296.00,1.05
5295.00,1.04
5294.00,1.03
5293.00,1.02
5292.00,1.02
5291.00,1.01
5290.00,1.00
5289.00,0.99
5288.00,0.98
5287.00,0.98
5286.00,0.97
5285.00,0.96
5284.00,0.95
5283.00,0.95
5282.00,0.94
5281.00,0.93
5280.00,0.92
5279.00,0.92
5278.00,0.91
5277.00,0.91
5276.00,0.90
5275.00,0.89
5274.00,0.89
5273.00,0.88
5272.00,0.88
5271.00,0.87
5270.00,0.87
5269.00,0.86
5268.00,0.86
5267.00,0.85
5266.00,0.85
5265.00,0.84
5264.00,0.84
5263.00,0.83
5262.00,0.83
5261.00,0.83
5260.00,0.83
5259.00,0.82
5258.00,0.82
5257.00,0.82
5256.00,0.82
5255.00,0.82
5254.00,0.81
5253.00,0.81
5252.00,0.81
5251.00,0.81
5250.00,0.81
5249.00,0.80
5248.00,0.80
5247.00,0.80
5246.00,0.80
5245.00,0.80
5244.00,0.80
5243.00,0.79
5242.00,0.79
5241.00,0.79
5240.00,0.79
5239.00,0.79
5238.00,0.79
5237.00,0.79
5236.00,0.79
5235.00,0.78
5234.00,0.78
5233.00,0.78
5232.00,0.78
5231.00,0.78
5230.00,0.78
5229.00,0.77
5228.00,0.77
5227.00,0.77
5226.00,0.77
5225.00,0.77
5224.00,0.77
5223.00,0.77
5222.00,0.77
5221.00,0.77
5220.00,0.77
5219.00,0.77
5218.00,0.77
5217.00,0.77
5216.00,0.77
5215.00,0.77
5214.00,0.77
5213.00,0.77
5212.00,0.76
5211.00,0.76
5210.00,0.76
5209.00,0.76
5208.00,0.76
5207.00,0.76
5206.00,0.76
5205.00,0.76
5204.00,0.76
5203.00,0.75
5202.00,0.75
5201.00,0.75
5200.00,0.75
5199.00,0.75
5198.00,0.74
5197.00,0.74
5196.00,0.74
5195.00,0.74
5194.00,0.74
5193.00,0.73
5192.00,0.73
5191.00,0.73
5190.00,0.73
5189.00,0.73
5188.00,0.73
5187.00,0.72
5186.00,0.72
5185.00,0.72
5184.00,0.72
5183.00,0.72
5182.00,0.72
5181.00,0.72
5180.00,0.72
5179.00,0.72
5178.00,0.72
5177.00,0.72
5176.00,0.72
5175.00,0.72
5174.00,0.72
5173.00,0.73
5172.00,0.73
5171.00,0.73
5170.00,0.73
5169.00,0.73
5168.00,0.73
5167.00,0.73
5166.00,0.74
5165.00,0.74
5164.00,0.74
5163.00,0.74
5162.00,0.74
5161.00,0.74
5160.00,0.74
5159.00,0.74
5158.00,0.74
5157.00,0.74
5156.00,0.74
5155.00,0.74
5154.00,0.74
5153.00,0.75
5152.00,0.75
5151.00,0.75
5150.00,0.75
5149.00,0.75
5148.00,0.75
5147.00,0.75
5146.00,0.75
5145.00,0.75
5144.00,0.75
5143.00,0.75
5142.00,0.75
5141.00,0.75
5140.00,0.75
5139.00,0.75
5138.00,0.75
5137.00,0.76
5136.00,0.76
5135.00,0.76
5134.00,0.76
5133.00,0.76
5132.00,0.76
5131.00,0.76
5130.00,0.76
5129.00,0.76
5128.00,0.76
5127.00,0.77
5126.00,0.77
5125.00,0.77
5124.00,0.77
5123.00,0.77
5122.00,0.77
5121.00,0.77
5120.00,0.77
5119.00,0.77
5118.00,0.77
5117.00,0.77
5116.00,0.77
5115.00,0.77
5114.00,0.77
5113.00,0.78
5112.00,0.78
5111.00,0.78
5110.00,0.78
5109.00,0.78
5108.00,0.78
5107.00,0.78
5106.00,0.78
5105.00,0.78
5104.00,0.78
5103.00,0.78
5102.00,0.78
5101.00,0.78
5100.00,0.79
5099.00,0.79
5098.00,0.79
5097.00,0.79
5096.00,0.79
5095.00,0.79
5094.00,0.80
5093.00,0.80
5092.00,0.80
5091.00,0.80
5090.00,0.81
5089.00,0.81
5088.00,0.81
5087.00,0.82
5086.00,0.82
5085.00,0.82
5084.00,0.83
5083.00,0.83
5082.00,0.83
5081.00,0.83
5080.00,0.84
5079.00,0.84
5078.00,0.84
5077.00,0.85
5076.00,0.85
5075.00,0.85
5074.00,0.85
5073.00,0.85
5072.00,0.86
5071.00,0.86
5070.00,0.86
5069.00,0.86
5068.00,0.86
5067.00,0.86
5066.00,0.87
5065.00,0.87
5064.00,0.87
5063.00,0.87
5062.00,0.87
5061.00,0.87
5060.00,0.87
5059.00,0.87
5058.00,0.87
5057.00,0.87
5056.00,0.87
5055.00,0.87
5054.00,0.87
5053.00,0.88
5052.00,0.88
5051.00,0.88
5050.00,0.88
5049.00,0.88
5048.00,0.88
5047.00,0.88
5046.00,0.88
5045.00,0.89
5044.00,0.89
5043.00,0.89
5042.00,0.89
5041.00,0.89
5040.00,0.90
5039.00,0.90
5038.00,0.90
5037.00,0.90
5036.00,0.91
5035.00,0.91
5034.00,0.91
5033.00,0.91
5032.00,0.91
5031.00,0.92
5030.00,0.92
5029.00,0.92
5028.00,0.92
5027.00,0.92
5026.00,0.93
5025.00,0.93
5024.00,0.93
5023.00,0.93
5022.00,0.93
5021.00,0.93
5020.00,0.94
5019.00,0.94
5018.00,0.94
5017.00,0.94
5016.00,0.94
5015.00,0.94
5014.00,0.94
5013.00,0.95
5012.00,0.95
5011.00,0.95
5010.00,0.95
5009.00,0.95
5008.00,0.96
5007.00,0.96
5006.00,0.96
5005.00,0.96
5004.00,0.97
5003.00,0.97
5002.00,0.97
5001.00,0.97
5000.00,0.98
4999.00,0.98
4998.00,0.98
4997.00,0.98
4996.00,0.99
4995.00,0.99
4994.00,0.99
4993.00,1.00
4992.00,1.00
4991.00,1.00
4990.00,1.01
4989.00,1.01
4988.00,1.01
4987.00,1.01
4986.00,1.02
4985.00,1.02
4984.00,1.02
4983.00,1.02
4982.00,1.02
4981.00,1.03
4980.00,1.03
4979.00,1.03
4978.00,1.03
4977.00,1.03
4976.00,1.03
4975.00,1.04
4974.00,1.04
4973.00,1.04
4972.00,1.04
4971.00,1.04
4970.00,1.04
4969.00,1.04
4968.00,1.04
4967.00,1.04
4966.00,1.05
4965.00,1.05
4964.00,1.05
4963.00,1.05
4962.00,1.05
4961.00,1.05
4960.00,1.05
4959.00,1.05
4958.00,1.05
4957.00,1.05
4956.00,1.05
4955.00,1.05
4954.00,1.05
4953.00,1.05
4952.00,1.06
4951.00,1.06
4950.00,1.06
4949.00,1.06
4948.00,1.06
4947.00,1.06
4946.00,1.06
4945.00,1.06
4944.00,1.06
4943.00,1.06
4942.00,1.06
4941.00,1.06
4940.00,1.06
4939.00,1.06
4938.00,1.06
4937.00,1.06
4936.00,1.07
4935.00,1.07
4934.00,1.07
4933.00,1.07
4932.00,1.07
4931.00,1.07
4930.00,1.07
4929.00,1.07
4928.00,1.07
4927.00,1.07
4926.00,1.07
4925.00,1.08
4924.00,1.08
4923.00,1.08
4922.00,1.08
4921.00,1.08
4920.00,1.08
4919.00,1.08
4918.00,1.08
4917.00,1.08
4916.00,1.08
4915.00,1.09
4914.00,1.09
4913.00,1.09
4912.00,1.09
4911.00,1.09
4910.00,1.10
4909.00,1.10
4908.00,1.10
4907.00,1.10
4906.00,1.11
4905.00,1.11
4904.00,1.11
4903.00,1.11
4902.00,1.12
4901.00,1.12
4900.00,1.12
4899.00,1.12
4898.00,1.12
4897.00,1.13
4896.00,1.13
4895.00,1.13
4894.00,1.13
4893.00,1.14
4892.00,1.14
4891.00,1.14
4890.00,1.14
4889.00,1.14
4888.00,1.15
4887.00,1.15
4886.00,1.15
4885.00,1.15
4884.00,1.15
4883.00,1.15
4882.00,1.15
4881.00,1.15
4880.00,1.15
4879.00,1.15
4878.00,1.15
4877.00,1.15
4876.00,1.15
4875.00,1.15
4874.00,1.15
4873.00,1.16
4872.00,1.16
4871.00,1.16
4870.00,1.16
4869.00,1.16
4868.00,1.16
4867.00,1.16
4866.00,1.16
4865.00,1.16
4864.00,1.16
4863.00,1.16
4862.00,1.16
4861.00,1.16
4860.00,1.16
4859.00,1.16
4858.00,1.17
4857.00,1.17
4856.00,1.17
4855.00,1.17
4854.00,1.17
4853.00,1.17
4852.00,1.18
4851.00,1.18
4850.00,1.18
4849.00,1.18
4848.00,1.18
4847.00,1.18
4846.00,1.18
4845.00,1.18
4844.00,1.18
4843.00,1.19
4842.00,1.19
4841.00,1.19
4840.00,1.19
4839.00,1.19
4838.00,1.19
4837.00,1.19
4836.00,1.19
4835.00,1.19
4834.00,1.19
4833.00,1.19
4832.00,1.19
4831.00,1.19
4830.00,1.19
4829.00,1.19
4828.00,1.19
4827.00,1.19
4826.00,1.19
4825.00,1.19
4824.00,1.19
4823.00,1.19
4822.00,1.19
4821.00,1.19
4820.00,1.20
4819.00,1.20
4818.00,1.20
4817.00,1.20
4816.00,1.21
4815.00,1.21
4814.00,1.21
4813.00,1.21
4812.00,1.22
4811.00,1.22
4810.00,1.22
4809.00,1.23
4808.00,1.23
4807.00,1.23
4806.00,1.24
4805.00,1.24
4804.00,1.24
4803.00,1.24
4802.00,1.25
4801.00,1.25
4800.00,1.25
4799.00,1.25
4798.00,1.25
4797.00,1.25
4796.00,1.25
4795.00,1.26
4794.00,1.26
4793.00,1.26
4792.00,1.26
4791.00,1.26
4790.00,1.26
4789.00,1.26
4788.00,1.26
4787.00,1.26
4786.00,1.26
4785.00,1.26
4784.00,1.26
4783.00,1.27
4782.00,1.27
4781.00,1.27
4780.00,1.27
4779.00,1.27
4778.00,1.28
4777.00,1.28
4776.00,1.28
4775.00,1.28
4774.00,1.29
4773.00,1.29
4772.00,1.29
4771.00,1.29
4770.00,1.30
4769.00,1.30
4768.00,1.30
4767.00,1.31
4766.00,1.31
4765.00,1.31
4764.00,1.31
4763.00,1.31
4762.00,1.32
4761.00,1.32
4760.00,1.32
4759.00,1.32
4758.00,1.32
4757.00,1.32
4756.00,1.32
4755.00,1.32
4754.00,1.32
4753.00,1.32
4752.00,1.32
4751.00,1.32
4750.00,1.32
4749.00,1.32
4748.00,1.32
4747.00,1.32
4746.00,1.32
4745.00,1.33
4744.00,1.33
4743.00,1.33
4742.00,1.33
4741.00,1.33
4740.00,1.33
4739.00,1.33
4738.00,1.34
4737.00,1.34
4736.00,1.34
4735.00,1.34
4734.00,1.35
4733.00,1.35
4732.00,1.35
4731.00,1.36
4730.00,1.36
4729.00,1.36
4728.00,1.37
4727.00,1.37
4726.00,1.38
4725.00,1.38
4724.00,1.38
4723.00,1.39
4722.00,1.39
4721.00,1.40
4720.00,1.40
4719.00,1.40
4718.00,1.41
4717.00,1.41
4716.00,1.41
4715.00,1.42
4714.00,1.42
4713.00,1.42
4712.00,1.42
4711.00,1.43
4710.00,1.43
4709.00,1.43
4708.00,1.43
4707.00,1.44
4706.00,1.44
4705.00,1.44
4704.00,1.44
4703.00,1.44
4702.00,1.44
4701.00,1.44
4700.00,1.44
4699.00,1.45
4698.00,1.45
4697.00,1.45
4696.00,1.45
4695.00,1.45
4694.00,1.45
4693.00,1.45
4692.00,1.45
4691.00,1.45
4690.00,1.45
4689.00,1.45
4688.00,1.45
4687.00,1.45
4686.00,1.45
4685.00,1.45
4684.00,1.45
4683.00,1.45
4682.00,1.45
4681.00,1.46
4680.00,1.46
4679.00,1.46
4678.00,1.46
4677.00,1.46
4676.00,1.46
4675.00,1.46
4674.00,1.47
4673.00,1.47
4672.00,1.47
4671.00,1.47
4670.00,1.48
4669.00,1.48
4668.00,1.48
4667.00,1.49
4666.00,1.49
4665.00,1.49
4664.00,1.49
4663.00,1.50
4662.00,1.50
4661.00,1.50
4660.00,1.50
4659.00,1.50
4658.00,1.50
4657.00,1.50
4656.00,1.51
4655.00,1.51
4654.00,1.51
4653.00,1.51
4652.00,1.51
4651.00,1.51
4650.00,1.51
4649.00,1.51
4648.00,1.51
4647.00,1.51
4646.00,1.52
4645.00,1.52
4644.00,1.52
4643.00,1.52
4642.00,1.52
4641.00,1.52
4640.00,1.52
4639.00,1.52
4638.00,1.52
4637.00,1.52
4636.00,1.52
4635.00,1.52
4634.00,1.53
4633.00,1.53
4632.00,1.53
4631.00,1.53
4630.00,1.53
4629.00,1.54
4628.00,1.54
4627.00,1.54
4626.00,1.54
4625.00,1.55
4624.00,1.55
4623.00,1.55
4622.00,1.55
4621.00,1.55
4620.00,1.56
4619.00,1.56
4618.00,1.56
4617.00,1.56
4616.00,1.57
4615.00,1.57
4614.00,1.57
4613.00,1.57
4612.00,1.58
4611.00,1.58
4610.00,1.58
4609.00,1.58
4608.00,1.58
4607.00,1.58
4606.00,1.58
4605.00,1.58
4604.00,1.58
4603.00,1.58
4602.00,1.58
4601.00,1.58
4600.00,1.58
4599.00,1.59
4598.00,1.59
4597.00,1.59
4596.00,1.59
4595.00,1.59
4594.00,1.59
4593.00,1.59
4592.00,1.59
4591.00,1.59
4590.00,1.59
4589.00,1.59
4588.00,1.59
4587.00,1.59
4586.00,1.59
4585.00,1.59
4584.00,1.59
4583.00,1.59
4582.00,1.59
4581.00,1.59
4580.00,1.59
4579.00,1.59
4578.00,1.59
4577.00,1.59
4576.00,1.59
4575.00,1.59
4574.00,1.59
4573.00,1.60
4572.00,1.60
4571.00,1.60
4570.00,1.60
4569.00,1.60
4568.00,1.60
4567.00,1.59
4566.00,1.59
4565.00,1.59
4564.00,1.59
4563.00,1.59
4562.00,1.59
4561.00,1.60
4560.00,1.60
4559.00,1.60
4558.00,1.60
4557.00,1.60
4556.00,1.60
4555.00,1.60
4554.00,1.60
4553.00,1.60
4552.00,1.60
4551.00,1.60
4550.00,1.60
4549.00,1.60
4548.00,1.60
4547.00,1.60
4546.00,1.60
4545.00,1.60
4544.00,1.61
4543.00,1.61
4542.00,1.61
4541.00,1.61
4540.00,1.61
4539.00,1.62
4538.00,1.62
4537.00,1.62
4536.00,1.62
4535.00,1.62
4534.00,1.63
4533.00,1.63
4532.00,1.63
4531.00,1.63
4530.00,1.64
4529.00,1.64
4528.00,1.64
4527.00,1.64
4526.00,1.64
4525.00,1.64
4524.00,1.65
4523.00,1.65
4522.00,1.65
4521.00,1.65
4520.00,1.65
4519.00,1.65
4518.00,1.65
4517.00,1.65
4516.00,1.66
4515.00,1.66
4514.00,1.66
4513.00,1.66
4512.00,1.66
4511.00,1.66
4510.00,1.66
4509.00,1.66
4508.00,1.66
4507.00,1.66
4506.00,1.66
4505.00,1.66
4504.00,1.66
4503.00,1.66
4502.00,1.66
4501.00,1.65
4500.00,1.65
4499.00,1.65
4498.00,1.65
4497.00,1.65
4496.00,1.64
4495.00,1.64
4494.00,1.64
4493.00,1.64
4492.00,1.63
4491.00,1.63
4490.00,1.63
4489.00,1.62
4488.00,1.62
4487.00,1.62
4486.00,1.61
4485.00,1.61
4484.00,1.61
4483.00,1.60
4482.00,1.60
4481.00,1.60
4480.00,1.59
4479.00,1.59
4478.00,1.59
4477.00,1.58
4476.00,1.58
4475.00,1.58
4474.00,1.57
4473.00,1.57
4472.00,1.57
4471.00,1.57
4470.00,1.56
4469.00,1.56
4468.00,1.56
4467.00,1.56
4466.00,1.55
4465.00,1.55
4464.00,1.55
4463.00,1.55
4462.00,1.54
4461.00,1.54
4460.00,1.54
4459.00,1.54
4458.00,1.53
4457.00,1.53
4456.00,1.53
4455.00,1.52
4454.00,1.52
4453.00,1.51
4452.00,1.51
4451.00,1.50
4450.00,1.50
4449.00,1.50
4448.00,1.49
4447.00,1.49
4446.00,1.48
4445.00,1.47
4444.00,1.47
4443.00,1.46
4442.00,1.46
4441.00,1.45
4440.00,1.44
4439.00,1.44
4438.00,1.43
4437.00,1.42
4436.00,1.42
4435.00,1.41
4434.00,1.40
4433.00,1.40
4432.00,1.39
4431.00,1.38
4430.00,1.37
4429.00,1.37
4428.00,1.36
4427.00,1.35
4426.00,1.34
4425.00,1.34
4424.00,1.33
4423.00,1.32
4422.00,1.32
4421.00,1.31
4420.00,1.30
4419.00,1.30
4418.00,1.29
4417.00,1.28
4416.00,1.28
4415.00,1.28
4414.00,1.27
4413.00,1.27
4412.00,1.26
4411.00,1.26
4410.00,1.26
4409.00,1.26
4408.00,1.26
4407.00,1.26
4406.00,1.26
4405.00,1.26
4404.00,1.26
4403.00,1.26
4402.00,1.27
4401.00,1.27
4400.00,1.27
4399.00,1.28
4398.00,1.28
4397.00,1.29
4396.00,1.30
4395.00,1.30
4394.00,1.31
4393.00,1.31
4392.00,1.32
4391.00,1.33
4390.00,1.33
4389.00,1.34
4388.00,1.35
4387.00,1.35
4386.00,1.36
4385.00,1.37
4384.00,1.37
4383.00,1.38
4382.00,1.38
4381.00,1.39
4380.00,1.39
4379.00,1.39
4378.00,1.40
4377.00,1.40
4376.00,1.40
4375.00,1.40
4374.00,1.41
4373.00,1.41
4372.00,1.41
4371.00,1.41
4370.00,1.41
4369.00,1.41
4368.00,1.41
4367.00,1.40
4366.00,1.40
4365.00,1.40
4364.00,1.40
4363.00,1.39
4362.00,1.39
4361.00,1.39
4360.00,1.39
4359.00,1.38
4358.00,1.38
4357.00,1.38
4356.00,1.38
4355.00,1.37
4354.00,1.37
4353.00,1.37
4352.00,1.37
4351.00,1.36
4350.00,1.36
4349.00,1.36
4348.00,1.35
4347.00,1.35
4346.00,1.35
4345.00,1.35
4344.00,1.35
4343.00,1.35
4342.00,1.34
4341.00,1.34
4340.00,1.34
4339.00,1.34
4338.00,1.34
4337.00,1.34
4336.00,1.34
4335.00,1.35
4334.00,1.35
4333.00,1.35
4332.00,1.35
4331.00,1.35
4330.00,1.35
4329.00,1.36
4328.00,1.36
4327.00,1.36
4326.00,1.37
4325.00,1.37
4324.00,1.37
4323.00,1.37
4322.00,1.38
4321.00,1.38
4320.00,1.39
4319.00,1.39
4318.00,1.39
4317.00,1.40
4316.00,1.40
4315.00,1.41
4314.00,1.41
4313.00,1.41
4312.00,1.42
4311.00,1.42
4310.00,1.43
4309.00,1.43
4308.00,1.43
4307.00,1.44
4306.00,1.44
4305.00,1.45
4304.00,1.45
4303.00,1.45
4302.00,1.46
4301.00,1.46
4300.00,1.47
4299.00,1.47
4298.00,1.48
4297.00,1.48
4296.00,1.48
4295.00,1.49
4294.00,1.49
4293.00,1.50
4292.00,1.50
4291.00,1.50
4290.00,1.51
4289.00,1.51
4288.00,1.52
4287.00,1.52
4286.00,1.53
4285.00,1.53
4284.00,1.53
4283.00,1.54
4282.00,1.54
4281.00,1.54
4280.00,1.54
4279.00,1.55
4278.00,1.55
4277.00,1.55
4276.00,1.55
4275.00,1.55
4274.00,1.55
4273.00,1.55
4272.00,1.56
4271.00,1.56
4270.00,1.56
4269.00,1.56
4268.00,1.56
4267.00,1.56
4266.00,1.56
4265.00,1.57
4264.00,1.57
4263.00,1.57
4262.00,1.57
4261.00,1.57
4260.00,1.57
4259.00,1.57
4258.00,1.58
4257.00,1.58
4256.00,1.58
4255.00,1.58
4254.00,1.58
4253.00,1.59
4252.00,1.59
4251.00,1.59
4250.00,1.60
4249.00,1.60
4248.00,1.60
4247.00,1.60
4246.00,1.61
4245.00,1.61
4244.00,1.61
4243.00,1.61
4242.00,1.61
4241.00,1.61
4240.00,1.61
4239.00,1.61
4238.00,1.61
4237.00,1.61
4236.00,1.61
4235.00,1.61
4234.00,1.60
4233.00,1.60
4232.00,1.60
4231.00,1.60
4230.00,1.60
4229.00,1.60
4228.00,1.60
4227.00,1.60
4226.00,1.60
4225.00,1.60
4224.00,1.60
4223.00,1.60
4222.00,1.60
4221.00,1.60
4220.00,1.60
4219.00,1.60
4218.00,1.60
4217.00,1.60
4216.00,1.60
4215.00,1.60
4214.00,1.60
4213.00,1.60
4212.00,1.61
4211.00,1.61
4210.00,1.61
4209.00,1.62
4208.00,1.62
4207.00,1.62
4206.00,1.62
4205.00,1.63
4204.00,1.63
4203.00,1.63
4202.00,1.63
4201.00,1.63
4200.00,1.63
4199.00,1.63
4198.00,1.63
4197.00,1.63
4196.00,1.64
4195.00,1.64
4194.00,1.64
4193.00,1.64
4192.00,1.64
4191.00,1.64
4190.00,1.63
4189.00,1.63
4188.00,1.63
4187.00,1.63
4186.00,1.63
4185.00,1.63
4184.00,1.63
4183.00,1.63
4182.00,1.63
4181.00,1.62
4180.00,1.62
4179.00,1.62
4178.00,1.61
4177.00,1.61
4176.00,1.61
4175.00,1.61
4174.00,1.61
4173.00,1.60
4172.00,1.60
4171.00,1.59
4170.00,1.59
4169.00,1.59
4168.00,1.58
4167.00,1.58
4166.00,1.58
4165.00,1.57
4164.00,1.57
4163.00,1.56
4162.00,1.56
4161.00,1.56
4160.00,1.55
4159.00,1.55
4158.00,1.55
4157.00,1.54
4156.00,1.54
4155.00,1.54
4154.00,1.54
4153.00,1.53
4152.00,1.53
4151.00,1.53
4150.00,1.52
4149.00,1.52
4148.00,1.52
4147.00,1.52
4146.00,1.52
4145.00,1.52
4144.00,1.52
4143.00,1.52
4142.00,1.52
4141.00,1.52
4140.00,1.53
4139.00,1.53
4138.00,1.53
4137.00,1.53
4136.00,1.53
4135.00,1.53
4134.00,1.54
4133.00,1.54
4132.00,1.54
4131.00,1.54
4130.00,1.54
4129.00,1.55
4128.00,1.55
4127.00,1.56
4126.00,1.56
4125.00,1.57
4124.00,1.57
4123.00,1.58
4122.00,1.58
4121.00,1.59
4120.00,1.59
4119.00,1.59
4118.00,1.59
4117.00,1.59
4116.00,1.59
4115.00,1.60
4114.00,1.60
4113.00,1.60
4112.00,1.60
4111.00,1.60
4110.00,1.60
4109.00,1.60
4108.00,1.61
4107.00,1.61
4106.00,1.61
4105.00,1.61
4104.00,1.61
4103.00,1.61
4102.00,1.61
4101.00,1.61
4100.00,1.61
4099.00,1.61
4098.00,1.60
4097.00,1.60
4096.00,1.60
4095.00,1.60
4094.00,1.60
4093.00,1.60
4092.00,1.60
4091.00,1.60
4090.00,1.60
4089.00,1.60
4088.00,1.60
4087.00,1.60
4086.00,1.60
4085.00,1.60
4084.00,1.59
4083.00,1.59
4082.00,1.59
4081.00,1.58
4080.00,1.58
4079.00,1.58
4078.00,1.58
4077.00,1.57
4076.00,1.57
4075.00,1.57
4074.00,1.57
4073.00,1.57
4072.00,1.56
4071.00,1.56
4070.00,1.56
4069.00,1.56
4068.00,1.56
4067.00,1.56
4066.00,1.55
4065.00,1.55
4064.00,1.55
4063.00,1.55
4062.00,1.55
4061.00,1.55
4060.00,1.54
4059.00,1.54
4058.00,1.54
4057.00,1.54
4056.00,1.54
4055.00,1.54
4054.00,1.55
4053.00,1.55
4052.00,1.54
4051.00,1.54
4050.00,1.54
4049.00,1.54
4048.00,1.54
4047.00,1.54
4046.00,1.55
4045.00,1.55
4044.00,1.55
4043.00,1.55
4042.00,1.55
4041.00,1.55
4040.00,1.55
4039.00,1.56
4038.00,1.56
4037.00,1.56
4036.00,1.56
4035.00,1.56
4034.00,1.56
4033.00,1.57
4032.00,1.57
4031.00,1.57
4030.00,1.57
4029.00,1.57
4028.00,1.57
4027.00,1.57
4026.00,1.57
4025.00,1.57
4024.00,1.58
4023.00,1.58
4022.00,1.58
4021.00,1.58
4020.00,1.59
4019.00,1.59
4018.00,1.59
4017.00,1.59
4016.00,1.60
4015.00,1.60
4014.00,1.61
4013.00,1.61
4012.00,1.62
4011.00,1.62
4010.00,1.63
4009.00,1.63
4008.00,1.64
4007.00,1.65
4006.00,1.66
4005.00,1.67
4004.00,1.68
4003.00,1.69
4002.00,1.70
4001.00,1.72
4000.00,1.73
