创建为新数据集,样品 315 用户 Administrator 日期 星期六, 七月 27 2019
cm-1,%T
10000.00,1.60
9999.00,1.64
9998.00,1.68
9997.00,1.72
9996.00,1.76
9995.00,1.79
9994.00,1.83
9993.00,1.86
9992.00,1.90
9991.00,1.93
9990.00,1.96
9989.00,1.98
9988.00,2.01
9987.00,2.03
9986.00,2.05
9985.00,2.06
9984.00,2.08
9983.00,2.09
9982.00,2.10
9981.00,2.10
9980.00,2.10
9979.00,2.11
9978.00,2.10
9977.00,2.10
9976.00,2.10
9975.00,2.09
9974.00,2.09
9973.00,2.08
9972.00,2.07
9971.00,2.06
9970.00,2.05
9969.00,2.05
9968.00,2.04
9967.00,2.03
9966.00,2.02
9965.00,2.01
9964.00,2.00
9963.00,1.99
9962.00,1.98
9961.00,1.98
9960.00,1.97
9959.00,1.96
9958.00,1.96
9957.00,1.95
9956.00,1.95
9955.00,1.95
9954.00,1.95
9953.00,1.95
9952.00,1.95
9951.00,1.95
9950.00,1.94
9949.00,1.94
9948.00,1.94
9947.00,1.94
9946.00,1.94
9945.00,1.93
9944.00,1.93
9943.00,1.93
9942.00,1.92
9941.00,1.92
9940.00,1.91
9939.00,1.91
9938.00,1.90
9937.00,1.89
9936.00,1.89
9935.00,1.88
9934.00,1.88
9933.00,1.87
9932.00,1.86
9931.00,1.86
9930.00,1.85
9929.00,1.84
9928.00,1.83
9927.00,1.82
9926.00,1.81
9925.00,1.80
9924.00,1.79
9923.00,1.79
9922.00,1.78
9921.00,1.77
9920.00,1.77
9919.00,1.76
9918.00,1.76
9917.00,1.76
9916.00,1.76
9915.00,1.75
9914.00,1.75
9913.00,1.75
9912.00,1.75
9911.00,1.75
9910.00,1.75
9909.00,1.75
9908.00,1.75
9907.00,1.75
9906.00,1.75
9905.00,1.75
9904.00,1.75
9903.00,1.76
9902.00,1.76
9901.00,1.76
9900.00,1.76
9899.00,1.76
9898.00,1.76
9897.00,1.76
9896.00,1.77
9895.00,1.77
9894.00,1.77
9893.00,1.76
9892.00,1.76
9891.00,1.76
9890.00,1.76
9889.00,1.75
9888.00,1.75
9887.00,1.74
9886.00,1.74
9885.00,1.73
9884.00,1.73
9883.00,1.72
9882.00,1.72
9881.00,1.72
9880.00,1.71
9879.00,1.71
9878.00,1.71
9877.00,1.71
9876.00,1.70
9875.00,1.70
9874.00,1.70
9873.00,1.70
9872.00,1.70
9871.00,1.70
9870.00,1.70
9869.00,1.70
9868.00,1.70
9867.00,1.70
9866.00,1.71
9865.00,1.71
9864.00,1.71
9863.00,1.72
9862.00,1.72
9861.00,1.73
9860.00,1.73
9859.00,1.74
9858.00,1.74
9857.00,1.75
9856.00,1.75
9855.00,1.75
9854.00,1.76
9853.00,1.76
9852.00,1.76
9851.00,1.76
9850.00,1.76
9849.00,1.77
9848.00,1.77
9847.00,1.77
9846.00,1.77
9845.00,1.77
9844.00,1.78
9843.00,1.78
9842.00,1.78
9841.00,1.78
9840.00,1.79
9839.00,1.79
9838.00,1.79
9837.00,1.79
9836.00,1.80
9835.00,1.80
9834.00,1.80
9833.00,1.80
9832.00,1.80
9831.00,1.80
9830.00,1.80
9829.00,1.80
9828.00,1.80
9827.00,1.80
9826.00,1.80
9825.00,1.80
9824.00,1.79
9823.00,1.79
9822.00,1.79
9821.00,1.79
9820.00,1.79
9819.00,1.78
9818.00,1.78
9817.00,1.78
9816.00,1.78
9815.00,1.77
9814.00,1.77
9813.00,1.77
9812.00,1.76
9811.00,1.76
9810.00,1.75
9809.00,1.75
9808.00,1.75
9807.00,1.75
9806.00,1.74
9805.00,1.74
9804.00,1.74
9803.00,1.74
9802.00,1.74
9801.00,1.74
9800.00,1.75
9799.00,1.75
9798.00,1.75
9797.00,1.75
9796.00,1.75
9795.00,1.75
9794.00,1.75
9793.00,1.75
9792.00,1.75
9791.00,1.75
9790.00,1.75
9789.00,1.75
9788.00,1.76
9787.00,1.76
9786.00,1.76
9785.00,1.76
9784.00,1.76
9783.00,1.76
9782.00,1.76
9781.00,1.76
9780.00,1.75
9779.00,1.75
9778.00,1.75
9777.00,1.75
9776.00,1.75
9775.00,1.75
9774.00,1.75
9773.00,1.75
9772.00,1.75
9771.00,1.75
9770.00,1.75
9769.00,1.75
9768.00,1.76
9767.00,1.76
9766.00,1.76
9765.00,1.76
9764.00,1.76
9763.00,1.76
9762.00,1.77
9761.00,1.77
9760.00,1.77
9759.00,1.77
9758.00,1.78
9757.00,1.78
9756.00,1.78
9755.00,1.78
9754.00,1.79
9753.00,1.79
9752.00,1.79
9751.00,1.79
9750.00,1.79
9749.00,1.79
9748.00,1.79
9747.00,1.79
9746.00,1.79
9745.00,1.79
9744.00,1.79
9743.00,1.79
9742.00,1.79
9741.00,1.79
9740.00,1.79
9739.00,1.79
9738.00,1.79
9737.00,1.79
9736.00,1.79
9735.00,1.79
9734.00,1.79
9733.00,1.79
9732.00,1.79
9731.00,1.79
9730.00,1.78
9729.00,1.78
9728.00,1.78
9727.00,1.78
9726.00,1.77
9725.00,1.77
9724.00,1.77
9723.00,1.77
9722.00,1.77
9721.00,1.77
9720.00,1.77
9719.00,1.77
9718.00,1.77
9717.00,1.76
9716.00,1.76
9715.00,1.76
9714.00,1.76
9713.00,1.75
9712.00,1.75
9711.00,1.75
9710.00,1.74
9709.00,1.74
9708.00,1.74
9707.00,1.74
9706.00,1.74
9705.00,1.74
9704.00,1.74
9703.00,1.74
9702.00,1.74
9701.00,1.74
9700.00,1.75
9699.00,1.75
9698.00,1.75
9697.00,1.76
9696.00,1.76
9695.00,1.76
9694.00,1.77
9693.00,1.77
9692.00,1.78
9691.00,1.78
9690.00,1.78
9689.00,1.79
9688.00,1.80
9687.00,1.80
9686.00,1.81
9685.00,1.81
9684.00,1.82
9683.00,1.82
9682.00,1.83
9681.00,1.83
9680.00,1.83
9679.00,1.83
9678.00,1.83
9677.00,1.83
9676.00,1.83
9675.00,1.83
9674.00,1.83
9673.00,1.83
9672.00,1.82
9671.00,1.82
9670.00,1.82
9669.00,1.82
9668.00,1.81
9667.00,1.81
9666.00,1.81
9665.00,1.80
9664.00,1.80
9663.00,1.80
9662.00,1.79
9661.00,1.79
9660.00,1.78
9659.00,1.78
9658.00,1.78
9657.00,1.77
9656.00,1.77
9655.00,1.77
9654.00,1.77
9653.00,1.76
9652.00,1.76
9651.00,1.76
9650.00,1.76
9649.00,1.76
9648.00,1.76
9647.00,1.76
9646.00,1.76
9645.00,1.76
9644.00,1.76
9643.00,1.76
9642.00,1.76
9641.00,1.76
9640.00,1.76
9639.00,1.76
9638.00,1.76
9637.00,1.76
9636.00,1.76
9635.00,1.75
9634.00,1.75
9633.00,1.75
9632.00,1.75
9631.00,1.75
9630.00,1.75
9629.00,1.76
9628.00,1.76
9627.00,1.75
9626.00,1.75
9625.00,1.75
9624.00,1.75
9623.00,1.75
9622.00,1.75
9621.00,1.75
9620.00,1.74
9619.00,1.74
9618.00,1.74
9617.00,1.74
9616.00,1.74
9615.00,1.74
9614.00,1.74
9613.00,1.74
9612.00,1.74
9611.00,1.74
9610.00,1.74
9609.00,1.74
9608.00,1.74
9607.00,1.73
9606.00,1.73
9605.00,1.73
9604.00,1.73
9603.00,1.73
9602.00,1.73
9601.00,1.72
9600.00,1.72
9599.00,1.72
9598.00,1.72
9597.00,1.72
9596.00,1.72
9595.00,1.72
9594.00,1.72
9593.00,1.72
9592.00,1.72
9591.00,1.72
9590.00,1.72
9589.00,1.72
9588.00,1.71
9587.00,1.71
9586.00,1.71
9585.00,1.71
9584.00,1.70
9583.00,1.70
9582.00,1.70
9581.00,1.69
9580.00,1.69
9579.00,1.69
9578.00,1.69
9577.00,1.68
9576.00,1.68
9575.00,1.68
9574.00,1.68
9573.00,1.68
9572.00,1.68
9571.00,1.68
9570.00,1.68
9569.00,1.68
9568.00,1.68
9567.00,1.68
9566.00,1.68
9565.00,1.68
9564.00,1.68
9563.00,1.68
9562.00,1.69
9561.00,1.69
9560.00,1.70
9559.00,1.70
9558.00,1.71
9557.00,1.71
9556.00,1.72
9555.00,1.72
9554.00,1.73
9553.00,1.73
9552.00,1.73
9551.00,1.74
9550.00,1.74
9549.00,1.75
9548.00,1.75
9547.00,1.75
9546.00,1.76
9545.00,1.76
9544.00,1.76
9543.00,1.76
9542.00,1.76
9541.00,1.76
9540.00,1.76
9539.00,1.76
9538.00,1.76
9537.00,1.76
9536.00,1.76
9535.00,1.75
9534.00,1.75
9533.00,1.75
9532.00,1.74
9531.00,1.74
9530.00,1.74
9529.00,1.74
9528.00,1.74
9527.00,1.74
9526.00,1.74
9525.00,1.74
9524.00,1.74
9523.00,1.74
9522.00,1.74
9521.00,1.75
9520.00,1.75
9519.00,1.75
9518.00,1.75
9517.00,1.75
9516.00,1.76
9515.00,1.76
9514.00,1.76
9513.00,1.77
9512.00,1.77
9511.00,1.77
9510.00,1.78
9509.00,1.78
9508.00,1.78
9507.00,1.78
9506.00,1.79
9505.00,1.79
9504.00,1.79
9503.00,1.78
9502.00,1.78
9501.00,1.78
9500.00,1.78
9499.00,1.77
9498.00,1.77
9497.00,1.77
9496.00,1.76
9495.00,1.75
9494.00,1.75
9493.00,1.75
9492.00,1.74
9491.00,1.74
9490.00,1.73
9489.00,1.73
9488.00,1.73
9487.00,1.72
9486.00,1.72
9485.00,1.72
9484.00,1.72
9483.00,1.71
9482.00,1.71
9481.00,1.71
9480.00,1.71
9479.00,1.71
9478.00,1.71
9477.00,1.71
9476.00,1.71
9475.00,1.72
9474.00,1.72
9473.00,1.72
9472.00,1.73
9471.00,1.73
9470.00,1.73
9469.00,1.74
9468.00,1.74
9467.00,1.75
9466.00,1.75
9465.00,1.75
9464.00,1.76
9463.00,1.76
9462.00,1.76
9461.00,1.77
9460.00,1.77
9459.00,1.77
9458.00,1.78
9457.00,1.78
9456.00,1.79
9455.00,1.79
9454.00,1.80
9453.00,1.81
9452.00,1.81
9451.00,1.82
9450.00,1.83
9449.00,1.83
9448.00,1.84
9447.00,1.85
9446.00,1.85
9445.00,1.86
9444.00,1.86
9443.00,1.86
9442.00,1.87
9441.00,1.87
9440.00,1.88
9439.00,1.88
9438.00,1.89
9437.00,1.89
9436.00,1.89
9435.00,1.90
9434.00,1.90
9433.00,1.90
9432.00,1.90
9431.00,1.90
9430.00,1.90
9429.00,1.90
9428.00,1.89
9427.00,1.89
9426.00,1.89
9425.00,1.88
9424.00,1.88
9423.00,1.88
9422.00,1.87
9421.00,1.87
9420.00,1.86
9419.00,1.86
9418.00,1.86
9417.00,1.85
9416.00,1.85
9415.00,1.84
9414.00,1.84
9413.00,1.84
9412.00,1.83
9411.00,1.83
9410.00,1.83
9409.00,1.83
9408.00,1.82
9407.00,1.82
9406.00,1.82
9405.00,1.82
9404.00,1.82
9403.00,1.82
9402.00,1.82
9401.00,1.82
9400.00,1.82
9399.00,1.82
9398.00,1.82
9397.00,1.82
9396.00,1.82
9395.00,1.83
9394.00,1.83
9393.00,1.83
9392.00,1.83
9391.00,1.83
9390.00,1.84
9389.00,1.84
9388.00,1.84
9387.00,1.84
9386.00,1.84
9385.00,1.85
9384.00,1.85
9383.00,1.85
9382.00,1.85
9381.00,1.85
9380.00,1.85
9379.00,1.85
9378.00,1.85
9377.00,1.85
9376.00,1.85
9375.00,1.85
9374.00,1.85
9373.00,1.85
9372.00,1.85
9371.00,1.85
9370.00,1.85
9369.00,1.85
9368.00,1.85
9367.00,1.85
9366.00,1.85
9365.00,1.85
9364.00,1.85
9363.00,1.84
9362.00,1.84
9361.00,1.84
9360.00,1.84
9359.00,1.84
9358.00,1.84
9357.00,1.83
9356.00,1.83
9355.00,1.83
9354.00,1.83
9353.00,1.83
9352.00,1.83
9351.00,1.82
9350.00,1.82
9349.00,1.82
9348.00,1.82
9347.00,1.82
9346.00,1.82
9345.00,1.82
9344.00,1.81
9343.00,1.81
9342.00,1.81
9341.00,1.81
9340.00,1.81
9339.00,1.80
9338.00,1.80
9337.00,1.80
9336.00,1.80
9335.00,1.79
9334.00,1.79
9333.00,1.79
9332.00,1.78
9331.00,1.78
9330.00,1.78
9329.00,1.78
9328.00,1.77
9327.00,1.77
9326.00,1.77
9325.00,1.77
9324.00,1.77
9323.00,1.77
9322.00,1.77
9321.00,1.76
9320.00,1.76
9319.00,1.76
9318.00,1.76
9317.00,1.76
9316.00,1.75
9315.00,1.75
9314.00,1.75
9313.00,1.75
9312.00,1.74
9311.00,1.74
9310.00,1.74
9309.00,1.74
9308.00,1.74
9307.00,1.74
9306.00,1.74
9305.00,1.74
9304.00,1.74
9303.00,1.74
9302.00,1.74
9301.00,1.74
9300.00,1.74
9299.00,1.74
9298.00,1.74
9297.00,1.74
9296.00,1.74
9295.00,1.74
9294.00,1.74
9293.00,1.74
9292.00,1.74
9291.00,1.74
9290.00,1.74
9289.00,1.75
9288.00,1.75
9287.00,1.76
9286.00,1.76
9285.00,1.77
9284.00,1.77
9283.00,1.78
9282.00,1.78
9281.00,1.79
9280.00,1.79
9279.00,1.80
9278.00,1.80
9277.00,1.81
9276.00,1.81
9275.00,1.82
9274.00,1.82
9273.00,1.83
9272.00,1.83
9271.00,1.83
9270.00,1.84
9269.00,1.84
9268.00,1.84
9267.00,1.85
9266.00,1.85
9265.00,1.85
9264.00,1.85
9263.00,1.85
9262.00,1.85
9261.00,1.85
9260.00,1.85
9259.00,1.85
9258.00,1.85
9257.00,1.85
9256.00,1.85
9255.00,1.85
9254.00,1.85
9253.00,1.84
9252.00,1.84
9251.00,1.84
9250.00,1.84
9249.00,1.83
9248.00,1.83
9247.00,1.83
9246.00,1.82
9245.00,1.82
9244.00,1.82
9243.00,1.81
9242.00,1.81
9241.00,1.81
9240.00,1.80
9239.00,1.80
9238.00,1.80
9237.00,1.80
9236.00,1.79
9235.00,1.79
9234.00,1.79
9233.00,1.78
9232.00,1.78
9231.00,1.78
9230.00,1.77
9229.00,1.77
9228.00,1.77
9227.00,1.76
9226.00,1.76
9225.00,1.76
9224.00,1.76
9223.00,1.76
9222.00,1.76
9221.00,1.76
9220.00,1.76
9219.00,1.76
9218.00,1.76
9217.00,1.76
9216.00,1.76
9215.00,1.76
9214.00,1.77
9213.00,1.77
9212.00,1.77
9211.00,1.78
9210.00,1.78
9209.00,1.78
9208.00,1.79
9207.00,1.79
9206.00,1.80
9205.00,1.80
9204.00,1.81
9203.00,1.81
9202.00,1.82
9201.00,1.82
9200.00,1.82
9199.00,1.83
9198.00,1.83
9197.00,1.83
9196.00,1.83
9195.00,1.84
9194.00,1.84
9193.00,1.84
9192.00,1.84
9191.00,1.84
9190.00,1.84
9189.00,1.84
9188.00,1.84
9187.00,1.84
9186.00,1.84
9185.00,1.84
9184.00,1.84
9183.00,1.84
9182.00,1.84
9181.00,1.84
9180.00,1.84
9179.00,1.84
9178.00,1.84
9177.00,1.84
9176.00,1.84
9175.00,1.84
9174.00,1.85
9173.00,1.85
9172.00,1.85
9171.00,1.85
9170.00,1.85
9169.00,1.85
9168.00,1.84
9167.00,1.84
9166.00,1.84
9165.00,1.84
9164.00,1.83
9163.00,1.83
9162.00,1.83
9161.00,1.83
9160.00,1.82
9159.00,1.82
9158.00,1.82
9157.00,1.81
9156.00,1.81
9155.00,1.81
9154.00,1.80
9153.00,1.79
9152.00,1.79
9151.00,1.78
9150.00,1.77
9149.00,1.77
9148.00,1.76
9147.00,1.75
9146.00,1.75
9145.00,1.74
9144.00,1.74
9143.00,1.74
9142.00,1.74
9141.00,1.74
9140.00,1.74
9139.00,1.74
9138.00,1.74
9137.00,1.74
9136.00,1.74
9135.00,1.74
9134.00,1.74
9133.00,1.75
9132.00,1.75
9131.00,1.75
9130.00,1.75
9129.00,1.76
9128.00,1.76
9127.00,1.77
9126.00,1.77
9125.00,1.77
9124.00,1.78
9123.00,1.78
9122.00,1.79
9121.00,1.79
9120.00,1.80
9119.00,1.80
9118.00,1.80
9117.00,1.80
9116.00,1.81
9115.00,1.81
9114.00,1.81
9113.00,1.81
9112.00,1.81
9111.00,1.81
9110.00,1.82
9109.00,1.82
9108.00,1.82
9107.00,1.82
9106.00,1.82
9105.00,1.82
9104.00,1.83
9103.00,1.83
9102.00,1.83
9101.00,1.83
9100.00,1.83
9099.00,1.83
9098.00,1.83
9097.00,1.83
9096.00,1.84
9095.00,1.84
9094.00,1.84
9093.00,1.84
9092.00,1.84
9091.00,1.84
9090.00,1.84
9089.00,1.84
9088.00,1.84
9087.00,1.84
9086.00,1.84
9085.00,1.84
9084.00,1.84
9083.00,1.84
9082.00,1.84
9081.00,1.84
9080.00,1.84
9079.00,1.84
9078.00,1.84
9077.00,1.84
9076.00,1.84
9075.00,1.84
9074.00,1.84
9073.00,1.84
9072.00,1.84
9071.00,1.84
9070.00,1.84
9069.00,1.84
9068.00,1.84
9067.00,1.84
9066.00,1.84
9065.00,1.84
9064.00,1.84
9063.00,1.84
9062.00,1.84
9061.00,1.84
9060.00,1.84
9059.00,1.84
9058.00,1.84
9057.00,1.84
9056.00,1.84
9055.00,1.84
9054.00,1.84
9053.00,1.84
9052.00,1.84
9051.00,1.83
9050.00,1.83
9049.00,1.83
9048.00,1.83
9047.00,1.83
9046.00,1.83
9045.00,1.83
9044.00,1.83
9043.00,1.82
9042.00,1.82
9041.00,1.82
9040.00,1.82
9039.00,1.81
9038.00,1.81
9037.00,1.80
9036.00,1.80
9035.00,1.79
9034.00,1.79
9033.00,1.79
9032.00,1.78
9031.00,1.78
9030.00,1.78
9029.00,1.77
9028.00,1.77
9027.00,1.77
9026.00,1.77
9025.00,1.77
9024.00,1.77
9023.00,1.77
9022.00,1.77
9021.00,1.77
9020.00,1.77
9019.00,1.77
9018.00,1.77
9017.00,1.77
9016.00,1.77
9015.00,1.77
9014.00,1.77
9013.00,1.77
9012.00,1.78
9011.00,1.78
9010.00,1.79
9009.00,1.79
9008.00,1.80
9007.00,1.80
9006.00,1.81
9005.00,1.81
9004.00,1.82
9003.00,1.82
9002.00,1.83
9001.00,1.83
9000.00,1.83
8999.00,1.84
8998.00,1.84
8997.00,1.84
8996.00,1.85
8995.00,1.85
8994.00,1.85
8993.00,1.85
8992.00,1.86
8991.00,1.86
8990.00,1.86
8989.00,1.86
8988.00,1.87
8987.00,1.87
8986.00,1.87
8985.00,1.87
8984.00,1.87
8983.00,1.88
8982.00,1.88
8981.00,1.88
8980.00,1.88
8979.00,1.88
8978.00,1.88
8977.00,1.89
8976.00,1.89
8975.00,1.89
8974.00,1.89
8973.00,1.89
8972.00,1.89
8971.00,1.90
8970.00,1.90
8969.00,1.90
8968.00,1.90
8967.00,1.90
8966.00,1.90
8965.00,1.90
8964.00,1.90
8963.00,1.90
8962.00,1.90
8961.00,1.90
8960.00,1.90
8959.00,1.90
8958.00,1.90
8957.00,1.90
8956.00,1.90
8955.00,1.90
8954.00,1.90
8953.00,1.89
8952.00,1.89
8951.00,1.89
8950.00,1.89
8949.00,1.88
8948.00,1.88
8947.00,1.88
8946.00,1.88
8945.00,1.88
8944.00,1.87
8943.00,1.87
8942.00,1.87
8941.00,1.86
8940.00,1.86
8939.00,1.86
8938.00,1.86
8937.00,1.85
8936.00,1.85
8935.00,1.85
8934.00,1.84
8933.00,1.84
8932.00,1.84
8931.00,1.84
8930.00,1.83
8929.00,1.83
8928.00,1.83
8927.00,1.83
8926.00,1.83
8925.00,1.83
8924.00,1.83
8923.00,1.83
8922.00,1.83
8921.00,1.83
8920.00,1.83
8919.00,1.83
8918.00,1.83
8917.00,1.84
8916.00,1.84
8915.00,1.84
8914.00,1.84
8913.00,1.84
8912.00,1.84
8911.00,1.85
8910.00,1.85
8909.00,1.85
8908.00,1.85
8907.00,1.86
8906.00,1.86
8905.00,1.86
8904.00,1.86
8903.00,1.86
8902.00,1.86
8901.00,1.86
8900.00,1.86
8899.00,1.86
8898.00,1.85
8897.00,1.85
8896.00,1.85
8895.00,1.85
8894.00,1.85
8893.00,1.84
8892.00,1.84
8891.00,1.84
8890.00,1.84
8889.00,1.84
8888.00,1.84
8887.00,1.84
8886.00,1.84
8885.00,1.84
8884.00,1.84
8883.00,1.83
8882.00,1.83
8881.00,1.83
8880.00,1.83
8879.00,1.82
8878.00,1.82
8877.00,1.82
8876.00,1.82
8875.00,1.82
8874.00,1.82
8873.00,1.81
8872.00,1.81
8871.00,1.81
8870.00,1.81
8869.00,1.81
8868.00,1.81
8867.00,1.80
8866.00,1.80
8865.00,1.79
8864.00,1.79
8863.00,1.78
8862.00,1.77
8861.00,1.76
8860.00,1.75
8859.00,1.75
8858.00,1.74
8857.00,1.73
8856.00,1.72
8855.00,1.71
8854.00,1.70
8853.00,1.70
8852.00,1.69
8851.00,1.68
8850.00,1.68
8849.00,1.67
8848.00,1.67
8847.00,1.67
8846.00,1.66
8845.00,1.66
8844.00,1.66
8843.00,1.66
8842.00,1.66
8841.00,1.66
8840.00,1.66
8839.00,1.66
8838.00,1.67
8837.00,1.67
8836.00,1.68
8835.00,1.68
8834.00,1.69
8833.00,1.70
8832.00,1.71
8831.00,1.71
8830.00,1.72
8829.00,1.73
8828.00,1.74
8827.00,1.75
8826.00,1.76
8825.00,1.77
8824.00,1.78
8823.00,1.79
8822.00,1.80
8821.00,1.80
8820.00,1.81
8819.00,1.82
8818.00,1.82
8817.00,1.83
8816.00,1.83
8815.00,1.83
8814.00,1.83
8813.00,1.84
8812.00,1.84
8811.00,1.84
8810.00,1.84
8809.00,1.84
8808.00,1.84
8807.00,1.84
8806.00,1.84
8805.00,1.84
8804.00,1.83
8803.00,1.83
8802.00,1.83
8801.00,1.83
8800.00,1.82
8799.00,1.82
8798.00,1.82
8797.00,1.81
8796.00,1.81
8795.00,1.81
8794.00,1.80
8793.00,1.80
8792.00,1.80
8791.00,1.79
8790.00,1.79
8789.00,1.79
8788.00,1.79
8787.00,1.79
8786.00,1.78
8785.00,1.78
8784.00,1.78
8783.00,1.78
8782.00,1.78
8781.00,1.78
8780.00,1.78
8779.00,1.78
8778.00,1.78
8777.00,1.78
8776.00,1.78
8775.00,1.78
8774.00,1.78
8773.00,1.79
8772.00,1.79
8771.00,1.79
8770.00,1.79
8769.00,1.79
8768.00,1.79
8767.00,1.79
8766.00,1.80
8765.00,1.80
8764.00,1.80
8763.00,1.80
8762.00,1.81
8761.00,1.81
8760.00,1.81
8759.00,1.81
8758.00,1.82
8757.00,1.82
8756.00,1.82
8755.00,1.82
8754.00,1.82
8753.00,1.82
8752.00,1.82
8751.00,1.82
8750.00,1.82
8749.00,1.82
8748.00,1.82
8747.00,1.82
8746.00,1.82
8745.00,1.82
8744.00,1.82
8743.00,1.82
8742.00,1.82
8741.00,1.81
8740.00,1.81
8739.00,1.81
8738.00,1.81
8737.00,1.80
8736.00,1.80
8735.00,1.80
8734.00,1.79
8733.00,1.79
8732.00,1.78
8731.00,1.78
8730.00,1.78
8729.00,1.78
8728.00,1.77
8727.00,1.77
8726.00,1.77
8725.00,1.77
8724.00,1.77
8723.00,1.77
8722.00,1.78
8721.00,1.78
8720.00,1.78
8719.00,1.78
8718.00,1.78
8717.00,1.78
8716.00,1.78
8715.00,1.79
8714.00,1.79
8713.00,1.79
8712.00,1.79
8711.00,1.79
8710.00,1.79
8709.00,1.79
8708.00,1.79
8707.00,1.79
8706.00,1.79
8705.00,1.79
8704.00,1.79
8703.00,1.79
8702.00,1.79
8701.00,1.79
8700.00,1.79
8699.00,1.79
8698.00,1.79
8697.00,1.78
8696.00,1.78
8695.00,1.78
8694.00,1.78
8693.00,1.77
8692.00,1.77
8691.00,1.77
8690.00,1.76
8689.00,1.76
8688.00,1.76
8687.00,1.76
8686.00,1.76
8685.00,1.76
8684.00,1.76
8683.00,1.76
8682.00,1.76
8681.00,1.76
8680.00,1.76
8679.00,1.76
8678.00,1.76
8677.00,1.76
8676.00,1.77
8675.00,1.77
8674.00,1.77
8673.00,1.77
8672.00,1.77
8671.00,1.77
8670.00,1.77
8669.00,1.77
8668.00,1.77
8667.00,1.77
8666.00,1.77
8665.00,1.77
8664.00,1.77
8663.00,1.78
8662.00,1.78
8661.00,1.78
8660.00,1.78
8659.00,1.77
8658.00,1.77
8657.00,1.77
8656.00,1.77
8655.00,1.77
8654.00,1.77
8653.00,1.77
8652.00,1.77
8651.00,1.77
8650.00,1.77
8649.00,1.77
8648.00,1.77
8647.00,1.78
8646.00,1.78
8645.00,1.78
8644.00,1.78
8643.00,1.78
8642.00,1.79
8641.00,1.79
8640.00,1.79
8639.00,1.79
8638.00,1.80
8637.00,1.80
8636.00,1.80
8635.00,1.80
8634.00,1.81
8633.00,1.81
8632.00,1.81
8631.00,1.81
8630.00,1.82
8629.00,1.82
8628.00,1.82
8627.00,1.82
8626.00,1.83
8625.00,1.83
8624.00,1.83
8623.00,1.83
8622.00,1.83
8621.00,1.83
8620.00,1.83
8619.00,1.83
8618.00,1.83
8617.00,1.82
8616.00,1.82
8615.00,1.82
8614.00,1.82
8613.00,1.82
8612.00,1.81
8611.00,1.81
8610.00,1.81
8609.00,1.81
8608.00,1.80
8607.00,1.80
8606.00,1.80
8605.00,1.79
8604.00,1.79
8603.00,1.78
8602.00,1.78
8601.00,1.77
8600.00,1.77
8599.00,1.76
8598.00,1.76
8597.00,1.75
8596.00,1.75
8595.00,1.74
8594.00,1.74
8593.00,1.73
8592.00,1.73
8591.00,1.72
8590.00,1.72
8589.00,1.71
8588.00,1.71
8587.00,1.70
8586.00,1.70
8585.00,1.69
8584.00,1.69
8583.00,1.68
8582.00,1.68
8581.00,1.68
8580.00,1.67
8579.00,1.67
8578.00,1.67
8577.00,1.67
8576.00,1.67
8575.00,1.67
8574.00,1.67
8573.00,1.67
8572.00,1.67
8571.00,1.67
8570.00,1.67
8569.00,1.68
8568.00,1.68
8567.00,1.68
8566.00,1.69
8565.00,1.69
8564.00,1.69
8563.00,1.70
8562.00,1.71
8561.00,1.71
8560.00,1.72
8559.00,1.72
8558.00,1.73
8557.00,1.73
8556.00,1.74
8555.00,1.74
8554.00,1.74
8553.00,1.75
8552.00,1.75
8551.00,1.75
8550.00,1.76
8549.00,1.76
8548.00,1.76
8547.00,1.76
8546.00,1.76
8545.00,1.77
8544.00,1.77
8543.00,1.77
8542.00,1.77
8541.00,1.77
8540.00,1.78
8539.00,1.78
8538.00,1.78
8537.00,1.78
8536.00,1.78
8535.00,1.78
8534.00,1.78
8533.00,1.78
8532.00,1.77
8531.00,1.77
8530.00,1.77
8529.00,1.77
8528.00,1.77
8527.00,1.77
8526.00,1.77
8525.00,1.77
8524.00,1.77
8523.00,1.77
8522.00,1.77
8521.00,1.77
8520.00,1.77
8519.00,1.76
8518.00,1.76
8517.00,1.76
8516.00,1.76
8515.00,1.75
8514.00,1.75
8513.00,1.75
8512.00,1.75
8511.00,1.75
8510.00,1.75
8509.00,1.74
8508.00,1.74
8507.00,1.74
8506.00,1.74
8505.00,1.74
8504.00,1.74
8503.00,1.74
8502.00,1.75
8501.00,1.75
8500.00,1.75
8499.00,1.75
8498.00,1.75
8497.00,1.76
8496.00,1.76
8495.00,1.76
8494.00,1.77
8493.00,1.77
8492.00,1.78
8491.00,1.78
8490.00,1.79
8489.00,1.79
8488.00,1.80
8487.00,1.80
8486.00,1.81
8485.00,1.81
8484.00,1.81
8483.00,1.82
8482.00,1.82
8481.00,1.82
8480.00,1.82
8479.00,1.82
8478.00,1.82
8477.00,1.82
8476.00,1.82
8475.00,1.82
8474.00,1.81
8473.00,1.81
8472.00,1.81
8471.00,1.81
8470.00,1.81
8469.00,1.81
8468.00,1.81
8467.00,1.81
8466.00,1.80
8465.00,1.80
8464.00,1.80
8463.00,1.80
8462.00,1.79
8461.00,1.79
8460.00,1.79
8459.00,1.79
8458.00,1.79
8457.00,1.78
8456.00,1.78
8455.00,1.79
8454.00,1.79
8453.00,1.79
8452.00,1.79
8451.00,1.80
8450.00,1.80
8449.00,1.80
8448.00,1.81
8447.00,1.81
8446.00,1.81
8445.00,1.81
8444.00,1.82
8443.00,1.82
8442.00,1.82
8441.00,1.82
8440.00,1.82
8439.00,1.82
8438.00,1.82
8437.00,1.82
8436.00,1.82
8435.00,1.82
8434.00,1.82
8433.00,1.82
8432.00,1.82
8431.00,1.82
8430.00,1.81
8429.00,1.81
8428.00,1.81
8427.00,1.80
8426.00,1.80
8425.00,1.79
8424.00,1.79
8423.00,1.78
8422.00,1.78
8421.00,1.77
8420.00,1.76
8419.00,1.76
8418.00,1.75
8417.00,1.75
8416.00,1.74
8415.00,1.74
8414.00,1.73
8413.00,1.73
8412.00,1.73
8411.00,1.72
8410.00,1.72
8409.00,1.72
8408.00,1.72
8407.00,1.71
8406.00,1.71
8405.00,1.71
8404.00,1.71
8403.00,1.71
8402.00,1.71
8401.00,1.72
8400.00,1.72
8399.00,1.72
8398.00,1.72
8397.00,1.72
8396.00,1.72
8395.00,1.72
8394.00,1.72
8393.00,1.72
8392.00,1.73
8391.00,1.73
8390.00,1.73
8389.00,1.73
8388.00,1.73
8387.00,1.73
8386.00,1.73
8385.00,1.73
8384.00,1.73
8383.00,1.73
8382.00,1.73
8381.00,1.73
8380.00,1.73
8379.00,1.73
8378.00,1.73
8377.00,1.72
8376.00,1.72
8375.00,1.72
8374.00,1.72
8373.00,1.72
8372.00,1.72
8371.00,1.72
8370.00,1.71
8369.00,1.71
8368.00,1.71
8367.00,1.72
8366.00,1.72
8365.00,1.72
8364.00,1.72
8363.00,1.72
8362.00,1.72
8361.00,1.72
8360.00,1.72
8359.00,1.72
8358.00,1.72
8357.00,1.72
8356.00,1.73
8355.00,1.73
8354.00,1.73
8353.00,1.73
8352.00,1.74
8351.00,1.74
8350.00,1.74
8349.00,1.74
8348.00,1.75
8347.00,1.75
8346.00,1.75
8345.00,1.75
8344.00,1.76
8343.00,1.76
8342.00,1.76
8341.00,1.76
8340.00,1.76
8339.00,1.77
8338.00,1.77
8337.00,1.77
8336.00,1.78
8335.00,1.78
8334.00,1.78
8333.00,1.78
8332.00,1.78
8331.00,1.79
8330.00,1.79
8329.00,1.79
8328.00,1.79
8327.00,1.78
8326.00,1.78
8325.00,1.78
8324.00,1.78
8323.00,1.78
8322.00,1.78
8321.00,1.78
8320.00,1.78
8319.00,1.78
8318.00,1.78
8317.00,1.78
8316.00,1.78
8315.00,1.78
8314.00,1.78
8313.00,1.78
8312.00,1.77
8311.00,1.77
8310.00,1.77
8309.00,1.77
8308.00,1.77
8307.00,1.77
8306.00,1.77
8305.00,1.77
8304.00,1.77
8303.00,1.78
8302.00,1.78
8301.00,1.78
8300.00,1.79
8299.00,1.79
8298.00,1.79
8297.00,1.79
8296.00,1.80
8295.00,1.80
8294.00,1.80
8293.00,1.81
8292.00,1.81
8291.00,1.81
8290.00,1.82
8289.00,1.82
8288.00,1.82
8287.00,1.83
8286.00,1.83
8285.00,1.83
8284.00,1.84
8283.00,1.84
8282.00,1.84
8281.00,1.84
8280.00,1.84
8279.00,1.85
8278.00,1.85
8277.00,1.85
8276.00,1.85
8275.00,1.85
8274.00,1.85
8273.00,1.85
8272.00,1.85
8271.00,1.85
8270.00,1.85
8269.00,1.85
8268.00,1.84
8267.00,1.84
8266.00,1.84
8265.00,1.84
8264.00,1.84
8263.00,1.84
8262.00,1.83
8261.00,1.83
8260.00,1.83
8259.00,1.83
8258.00,1.83
8257.00,1.82
8256.00,1.82
8255.00,1.82
8254.00,1.82
8253.00,1.82
8252.00,1.82
8251.00,1.81
8250.00,1.81
8249.00,1.81
8248.00,1.81
8247.00,1.81
8246.00,1.81
8245.00,1.81
8244.00,1.81
8243.00,1.81
8242.00,1.81
8241.00,1.81
8240.00,1.81
8239.00,1.81
8238.00,1.81
8237.00,1.81
8236.00,1.81
8235.00,1.81
8234.00,1.82
8233.00,1.82
8232.00,1.82
8231.00,1.82
8230.00,1.82
8229.00,1.82
8228.00,1.82
8227.00,1.82
8226.00,1.82
8225.00,1.82
8224.00,1.83
8223.00,1.83
8222.00,1.83
8221.00,1.83
8220.00,1.83
8219.00,1.83
8218.00,1.83
8217.00,1.84
8216.00,1.84
8215.00,1.84
8214.00,1.84
8213.00,1.84
8212.00,1.84
8211.00,1.84
8210.00,1.84
8209.00,1.84
8208.00,1.84
8207.00,1.84
8206.00,1.84
8205.00,1.84
8204.00,1.84
8203.00,1.84
8202.00,1.84
8201.00,1.84
8200.00,1.84
8199.00,1.84
8198.00,1.84
8197.00,1.84
8196.00,1.84
8195.00,1.84
8194.00,1.83
8193.00,1.83
8192.00,1.83
8191.00,1.83
8190.00,1.82
8189.00,1.82
8188.00,1.82
8187.00,1.82
8186.00,1.82
8185.00,1.81
8184.00,1.81
8183.00,1.81
8182.00,1.81
8181.00,1.81
8180.00,1.81
8179.00,1.81
8178.00,1.81
8177.00,1.81
8176.00,1.81
8175.00,1.81
8174.00,1.81
8173.00,1.82
8172.00,1.82
8171.00,1.82
8170.00,1.82
8169.00,1.83
8168.00,1.83
8167.00,1.83
8166.00,1.84
8165.00,1.84
8164.00,1.85
8163.00,1.85
8162.00,1.85
8161.00,1.86
8160.00,1.86
8159.00,1.87
8158.00,1.87
8157.00,1.88
8156.00,1.88
8155.00,1.88
8154.00,1.89
8153.00,1.89
8152.00,1.89
8151.00,1.89
8150.00,1.89
8149.00,1.89
8148.00,1.89
8147.00,1.89
8146.00,1.89
8145.00,1.88
8144.00,1.88
8143.00,1.88
8142.00,1.88
8141.00,1.87
8140.00,1.87
8139.00,1.87
8138.00,1.87
8137.00,1.86
8136.00,1.86
8135.00,1.86
8134.00,1.86
8133.00,1.85
8132.00,1.85
8131.00,1.85
8130.00,1.85
8129.00,1.84
8128.00,1.84
8127.00,1.84
8126.00,1.84
8125.00,1.83
8124.00,1.83
8123.00,1.83
8122.00,1.83
8121.00,1.83
8120.00,1.84
8119.00,1.84
8118.00,1.84
8117.00,1.84
8116.00,1.84
8115.00,1.84
8114.00,1.85
8113.00,1.85
8112.00,1.85
8111.00,1.85
8110.00,1.85
8109.00,1.85
8108.00,1.85
8107.00,1.85
8106.00,1.85
8105.00,1.85
8104.00,1.85
8103.00,1.86
8102.00,1.86
8101.00,1.86
8100.00,1.86
8099.00,1.86
8098.00,1.86
8097.00,1.86
8096.00,1.86
8095.00,1.86
8094.00,1.86
8093.00,1.85
8092.00,1.85
8091.00,1.85
8090.00,1.85
8089.00,1.85
8088.00,1.85
8087.00,1.85
8086.00,1.84
8085.00,1.84
8084.00,1.84
8083.00,1.84
8082.00,1.83
8081.00,1.83
8080.00,1.83
8079.00,1.83
8078.00,1.83
8077.00,1.83
8076.00,1.83
8075.00,1.83
8074.00,1.83
8073.00,1.83
8072.00,1.83
8071.00,1.83
8070.00,1.83
8069.00,1.83
8068.00,1.83
8067.00,1.83
8066.00,1.83
8065.00,1.83
8064.00,1.83
8063.00,1.83
8062.00,1.83
8061.00,1.83
8060.00,1.83
8059.00,1.84
8058.00,1.84
8057.00,1.84
8056.00,1.84
8055.00,1.84
8054.00,1.84
8053.00,1.84
8052.00,1.85
8051.00,1.84
8050.00,1.84
8049.00,1.84
8048.00,1.84
8047.00,1.84
8046.00,1.84
8045.00,1.84
8044.00,1.84
8043.00,1.84
8042.00,1.84
8041.00,1.84
8040.00,1.84
8039.00,1.84
8038.00,1.84
8037.00,1.84
8036.00,1.84
8035.00,1.84
8034.00,1.84
8033.00,1.84
8032.00,1.84
8031.00,1.84
8030.00,1.84
8029.00,1.85
8028.00,1.85
8027.00,1.85
8026.00,1.85
8025.00,1.85
8024.00,1.85
8023.00,1.85
8022.00,1.85
8021.00,1.85
8020.00,1.85
8019.00,1.85
8018.00,1.85
8017.00,1.85
8016.00,1.85
8015.00,1.85
8014.00,1.85
8013.00,1.85
8012.00,1.85
8011.00,1.84
8010.00,1.84
8009.00,1.84
8008.00,1.84
8007.00,1.84
8006.00,1.83
8005.00,1.83
8004.00,1.83
8003.00,1.82
8002.00,1.82
8001.00,1.82
8000.00,1.82
7999.00,1.82
7998.00,1.82
7997.00,1.82
7996.00,1.82
7995.00,1.82
7994.00,1.82
7993.00,1.82
7992.00,1.83
7991.00,1.83
7990.00,1.83
7989.00,1.83
7988.00,1.83
7987.00,1.83
7986.00,1.83
7985.00,1.83
7984.00,1.83
7983.00,1.84
7982.00,1.84
7981.00,1.84
7980.00,1.84
7979.00,1.85
7978.00,1.85
7977.00,1.85
7976.00,1.85
7975.00,1.86
7974.00,1.86
7973.00,1.86
7972.00,1.86
7971.00,1.86
7970.00,1.86
7969.00,1.86
7968.00,1.86
7967.00,1.86
7966.00,1.86
7965.00,1.86
7964.00,1.86
7963.00,1.86
7962.00,1.87
7961.00,1.87
7960.00,1.87
7959.00,1.87
7958.00,1.87
7957.00,1.87
7956.00,1.88
7955.00,1.88
7954.00,1.88
7953.00,1.88
7952.00,1.88
7951.00,1.88
7950.00,1.87
7949.00,1.87
7948.00,1.87
7947.00,1.87
7946.00,1.87
7945.00,1.87
7944.00,1.87
7943.00,1.87
7942.00,1.87
7941.00,1.87
7940.00,1.87
7939.00,1.87
7938.00,1.87
7937.00,1.87
7936.00,1.87
7935.00,1.86
7934.00,1.86
7933.00,1.86
7932.00,1.86
7931.00,1.86
7930.00,1.86
7929.00,1.86
7928.00,1.86
7927.00,1.86
7926.00,1.85
7925.00,1.85
7924.00,1.85
7923.00,1.85
7922.00,1.85
7921.00,1.85
7920.00,1.85
7919.00,1.84
7918.00,1.84
7917.00,1.84
7916.00,1.84
7915.00,1.83
7914.00,1.83
7913.00,1.83
7912.00,1.83
7911.00,1.83
7910.00,1.82
7909.00,1.82
7908.00,1.82
7907.00,1.82
7906.00,1.81
7905.00,1.81
7904.00,1.81
7903.00,1.81
7902.00,1.81
7901.00,1.80
7900.00,1.80
7899.00,1.80
7898.00,1.80
7897.00,1.80
7896.00,1.80
7895.00,1.80
7894.00,1.80
7893.00,1.80
7892.00,1.81
7891.00,1.81
7890.00,1.81
7889.00,1.81
7888.00,1.82
7887.00,1.82
7886.00,1.82
7885.00,1.82
7884.00,1.83
7883.00,1.83
7882.00,1.83
7881.00,1.83
7880.00,1.84
7879.00,1.84
7878.00,1.84
7877.00,1.85
7876.00,1.85
7875.00,1.85
7874.00,1.86
7873.00,1.86
7872.00,1.86
7871.00,1.87
7870.00,1.87
7869.00,1.87
7868.00,1.88
7867.00,1.88
7866.00,1.88
7865.00,1.89
7864.00,1.89
7863.00,1.89
7862.00,1.89
7861.00,1.89
7860.00,1.90
7859.00,1.90
7858.00,1.90
7857.00,1.91
7856.00,1.91
7855.00,1.91
7854.00,1.91
7853.00,1.92
7852.00,1.92
7851.00,1.92
7850.00,1.92
7849.00,1.92
7848.00,1.92
7847.00,1.92
7846.00,1.92
7845.00,1.91
7844.00,1.91
7843.00,1.91
7842.00,1.91
7841.00,1.90
7840.00,1.90
7839.00,1.90
7838.00,1.89
7837.00,1.89
7836.00,1.89
7835.00,1.88
7834.00,1.88
7833.00,1.88
7832.00,1.87
7831.00,1.87
7830.00,1.87
7829.00,1.86
7828.00,1.86
7827.00,1.86
7826.00,1.86
7825.00,1.85
7824.00,1.85
7823.00,1.85
7822.00,1.85
7821.00,1.85
7820.00,1.85
7819.00,1.84
7818.00,1.85
7817.00,1.85
7816.00,1.85
7815.00,1.85
7814.00,1.85
7813.00,1.85
7812.00,1.85
7811.00,1.85
7810.00,1.86
7809.00,1.86
7808.00,1.86
7807.00,1.86
7806.00,1.86
7805.00,1.87
7804.00,1.87
7803.00,1.87
7802.00,1.87
7801.00,1.88
7800.00,1.88
7799.00,1.88
7798.00,1.88
7797.00,1.88
7796.00,1.89
7795.00,1.89
7794.00,1.89
7793.00,1.89
7792.00,1.89
7791.00,1.89
7790.00,1.89
7789.00,1.89
7788.00,1.89
7787.00,1.89
7786.00,1.89
7785.00,1.89
7784.00,1.89
7783.00,1.89
7782.00,1.89
7781.00,1.88
7780.00,1.88
7779.00,1.88
7778.00,1.88
7777.00,1.88
7776.00,1.88
7775.00,1.88
7774.00,1.88
7773.00,1.88
7772.00,1.88
7771.00,1.88
7770.00,1.88
7769.00,1.88
7768.00,1.88
7767.00,1.88
7766.00,1.88
7765.00,1.88
7764.00,1.88
7763.00,1.88
7762.00,1.89
7761.00,1.89
7760.00,1.89
7759.00,1.89
7758.00,1.89
7757.00,1.89
7756.00,1.90
7755.00,1.90
7754.00,1.90
7753.00,1.90
7752.00,1.90
7751.00,1.90
7750.00,1.90
7749.00,1.90
7748.00,1.90
7747.00,1.90
7746.00,1.90
7745.00,1.91
7744.00,1.91
7743.00,1.91
7742.00,1.91
7741.00,1.91
7740.00,1.91
7739.00,1.91
7738.00,1.91
7737.00,1.91
7736.00,1.91
7735.00,1.91
7734.00,1.91
7733.00,1.91
7732.00,1.91
7731.00,1.91
7730.00,1.91
7729.00,1.90
7728.00,1.90
7727.00,1.90
7726.00,1.90
7725.00,1.90
7724.00,1.90
7723.00,1.90
7722.00,1.91
7721.00,1.91
7720.00,1.91
7719.00,1.91
7718.00,1.91
7717.00,1.91
7716.00,1.91
7715.00,1.91
7714.00,1.92
7713.00,1.92
7712.00,1.92
7711.00,1.92
7710.00,1.92
7709.00,1.92
7708.00,1.92
7707.00,1.92
7706.00,1.92
7705.00,1.92
7704.00,1.92
7703.00,1.92
7702.00,1.92
7701.00,1.92
7700.00,1.92
7699.00,1.92
7698.00,1.92
7697.00,1.92
7696.00,1.92
7695.00,1.92
7694.00,1.92
7693.00,1.92
7692.00,1.91
7691.00,1.91
7690.00,1.91
7689.00,1.91
7688.00,1.91
7687.00,1.90
7686.00,1.90
7685.00,1.90
7684.00,1.89
7683.00,1.89
7682.00,1.89
7681.00,1.89
7680.00,1.88
7679.00,1.88
7678.00,1.88
7677.00,1.88
7676.00,1.88
7675.00,1.88
7674.00,1.88
7673.00,1.88
7672.00,1.88
7671.00,1.88
7670.00,1.88
7669.00,1.88
7668.00,1.88
7667.00,1.87
7666.00,1.87
7665.00,1.87
7664.00,1.87
7663.00,1.87
7662.00,1.87
7661.00,1.87
7660.00,1.87
7659.00,1.87
7658.00,1.87
7657.00,1.88
7656.00,1.88
7655.00,1.88
7654.00,1.88
7653.00,1.88
7652.00,1.88
7651.00,1.88
7650.00,1.88
7649.00,1.88
7648.00,1.88
7647.00,1.88
7646.00,1.88
7645.00,1.88
7644.00,1.88
7643.00,1.88
7642.00,1.88
7641.00,1.88
7640.00,1.88
7639.00,1.88
7638.00,1.88
7637.00,1.88
7636.00,1.88
7635.00,1.88
7634.00,1.88
7633.00,1.88
7632.00,1.88
7631.00,1.88
7630.00,1.88
7629.00,1.88
7628.00,1.88
7627.00,1.88
7626.00,1.88
7625.00,1.88
7624.00,1.88
7623.00,1.88
7622.00,1.88
7621.00,1.88
7620.00,1.88
7619.00,1.88
7618.00,1.88
7617.00,1.88
7616.00,1.88
7615.00,1.88
7614.00,1.89
7613.00,1.89
7612.00,1.89
7611.00,1.89
7610.00,1.89
7609.00,1.89
7608.00,1.90
7607.00,1.90
7606.00,1.90
7605.00,1.90
7604.00,1.90
7603.00,1.91
7602.00,1.91
7601.00,1.91
7600.00,1.91
7599.00,1.91
7598.00,1.91
7597.00,1.91
7596.00,1.92
7595.00,1.92
7594.00,1.92
7593.00,1.92
7592.00,1.92
7591.00,1.91
7590.00,1.91
7589.00,1.91
7588.00,1.91
7587.00,1.91
7586.00,1.91
7585.00,1.91
7584.00,1.90
7583.00,1.90
7582.00,1.90
7581.00,1.90
7580.00,1.90
7579.00,1.90
7578.00,1.89
7577.00,1.89
7576.00,1.89
7575.00,1.89
7574.00,1.89
7573.00,1.89
7572.00,1.89
7571.00,1.89
7570.00,1.89
7569.00,1.89
7568.00,1.89
7567.00,1.89
7566.00,1.89
7565.00,1.90
7564.00,1.90
7563.00,1.90
7562.00,1.90
7561.00,1.90
7560.00,1.91
7559.00,1.91
7558.00,1.91
7557.00,1.91
7556.00,1.91
7555.00,1.91
7554.00,1.91
7553.00,1.91
7552.00,1.91
7551.00,1.91
7550.00,1.91
7549.00,1.91
7548.00,1.91
7547.00,1.91
7546.00,1.90
7545.00,1.90
7544.00,1.90
7543.00,1.90
7542.00,1.89
7541.00,1.89
7540.00,1.89
7539.00,1.88
7538.00,1.88
7537.00,1.88
7536.00,1.87
7535.00,1.87
7534.00,1.86
7533.00,1.86
7532.00,1.86
7531.00,1.86
7530.00,1.85
7529.00,1.85
7528.00,1.85
7527.00,1.85
7526.00,1.85
7525.00,1.85
7524.00,1.85
7523.00,1.85
7522.00,1.85
7521.00,1.85
7520.00,1.85
7519.00,1.85
7518.00,1.86
7517.00,1.86
7516.00,1.86
7515.00,1.86
7514.00,1.87
7513.00,1.87
7512.00,1.87
7511.00,1.88
7510.00,1.88
7509.00,1.88
7508.00,1.89
7507.00,1.89
7506.00,1.89
7505.00,1.89
7504.00,1.90
7503.00,1.90
7502.00,1.90
7501.00,1.90
7500.00,1.90
7499.00,1.90
7498.00,1.90
7497.00,1.90
7496.00,1.90
7495.00,1.90
7494.00,1.90
7493.00,1.90
7492.00,1.90
7491.00,1.90
7490.00,1.90
7489.00,1.90
7488.00,1.90
7487.00,1.90
7486.00,1.90
7485.00,1.90
7484.00,1.90
7483.00,1.90
7482.00,1.90
7481.00,1.89
7480.00,1.89
7479.00,1.89
7478.00,1.89
7477.00,1.89
7476.00,1.89
7475.00,1.89
7474.00,1.89
7473.00,1.90
7472.00,1.90
7471.00,1.90
7470.00,1.90
7469.00,1.90
7468.00,1.90
7467.00,1.90
7466.00,1.90
7465.00,1.89
7464.00,1.89
7463.00,1.89
7462.00,1.89
7461.00,1.89
7460.00,1.89
7459.00,1.89
7458.00,1.88
7457.00,1.88
7456.00,1.88
7455.00,1.88
7454.00,1.88
7453.00,1.88
7452.00,1.88
7451.00,1.88
7450.00,1.87
7449.00,1.87
7448.00,1.87
7447.00,1.87
7446.00,1.87
7445.00,1.87
7444.00,1.87
7443.00,1.87
7442.00,1.87
7441.00,1.87
7440.00,1.88
7439.00,1.88
7438.00,1.88
7437.00,1.88
7436.00,1.88
7435.00,1.88
7434.00,1.88
7433.00,1.88
7432.00,1.88
7431.00,1.88
7430.00,1.88
7429.00,1.88
7428.00,1.89
7427.00,1.89
7426.00,1.89
7425.00,1.89
7424.00,1.89
7423.00,1.88
7422.00,1.88
7421.00,1.88
7420.00,1.88
7419.00,1.88
7418.00,1.88
7417.00,1.88
7416.00,1.88
7415.00,1.87
7414.00,1.87
7413.00,1.87
7412.00,1.87
7411.00,1.86
7410.00,1.86
7409.00,1.86
7408.00,1.86
7407.00,1.85
7406.00,1.85
7405.00,1.85
7404.00,1.85
7403.00,1.84
7402.00,1.84
7401.00,1.84
7400.00,1.84
7399.00,1.83
7398.00,1.83
7397.00,1.83
7396.00,1.82
7395.00,1.82
7394.00,1.81
7393.00,1.81
7392.00,1.81
7391.00,1.81
7390.00,1.80
7389.00,1.80
7388.00,1.80
7387.00,1.80
7386.00,1.80
7385.00,1.80
7384.00,1.79
7383.00,1.79
7382.00,1.79
7381.00,1.79
7380.00,1.79
7379.00,1.79
7378.00,1.79
7377.00,1.79
7376.00,1.79
7375.00,1.79
7374.00,1.79
7373.00,1.79
7372.00,1.79
7371.00,1.80
7370.00,1.80
7369.00,1.80
7368.00,1.80
7367.00,1.80
7366.00,1.81
7365.00,1.81
7364.00,1.81
7363.00,1.81
7362.00,1.81
7361.00,1.81
7360.00,1.81
7359.00,1.81
7358.00,1.81
7357.00,1.81
7356.00,1.82
7355.00,1.82
7354.00,1.82
7353.00,1.82
7352.00,1.82
7351.00,1.82
7350.00,1.82
7349.00,1.82
7348.00,1.82
7347.00,1.82
7346.00,1.82
7345.00,1.82
7344.00,1.82
7343.00,1.82
7342.00,1.82
7341.00,1.82
7340.00,1.82
7339.00,1.82
7338.00,1.82
7337.00,1.82
7336.00,1.82
7335.00,1.82
7334.00,1.82
7333.00,1.82
7332.00,1.82
7331.00,1.82
7330.00,1.82
7329.00,1.82
7328.00,1.82
7327.00,1.82
7326.00,1.82
7325.00,1.82
7324.00,1.81
7323.00,1.81
7322.00,1.81
7321.00,1.81
7320.00,1.81
7319.00,1.81
7318.00,1.81
7317.00,1.81
7316.00,1.80
7315.00,1.80
7314.00,1.80
7313.00,1.80
7312.00,1.80
7311.00,1.80
7310.00,1.80
7309.00,1.80
7308.00,1.80
7307.00,1.80
7306.00,1.80
7305.00,1.80
7304.00,1.80
7303.00,1.80
7302.00,1.80
7301.00,1.80
7300.00,1.80
7299.00,1.80
7298.00,1.80
7297.00,1.80
7296.00,1.80
7295.00,1.80
7294.00,1.80
7293.00,1.80
7292.00,1.80
7291.00,1.80
7290.00,1.80
7289.00,1.81
7288.00,1.81
7287.00,1.81
7286.00,1.81
7285.00,1.81
7284.00,1.82
7283.00,1.82
7282.00,1.82
7281.00,1.82
7280.00,1.83
7279.00,1.83
7278.00,1.83
7277.00,1.83
7276.00,1.83
7275.00,1.83
7274.00,1.84
7273.00,1.84
7272.00,1.84
7271.00,1.84
7270.00,1.84
7269.00,1.85
7268.00,1.85
7267.00,1.85
7266.00,1.85
7265.00,1.85
7264.00,1.85
7263.00,1.85
7262.00,1.85
7261.00,1.85
7260.00,1.85
7259.00,1.85
7258.00,1.85
7257.00,1.85
7256.00,1.85
7255.00,1.84
7254.00,1.84
7253.00,1.84
7252.00,1.83
7251.00,1.83
7250.00,1.83
7249.00,1.82
7248.00,1.82
7247.00,1.82
7246.00,1.81
7245.00,1.81
7244.00,1.81
7243.00,1.80
7242.00,1.80
7241.00,1.79
7240.00,1.79
7239.00,1.78
7238.00,1.78
7237.00,1.77
7236.00,1.77
7235.00,1.76
7234.00,1.76
7233.00,1.75
7232.00,1.75
7231.00,1.74
7230.00,1.74
7229.00,1.74
7228.00,1.74
7227.00,1.73
7226.00,1.73
7225.00,1.73
7224.00,1.72
7223.00,1.72
7222.00,1.72
7221.00,1.71
7220.00,1.71
7219.00,1.71
7218.00,1.70
7217.00,1.70
7216.00,1.70
7215.00,1.69
7214.00,1.69
7213.00,1.69
7212.00,1.68
7211.00,1.68
7210.00,1.68
7209.00,1.68
7208.00,1.67
7207.00,1.67
7206.00,1.67
7205.00,1.67
7204.00,1.66
7203.00,1.66
7202.00,1.65
7201.00,1.65
7200.00,1.65
7199.00,1.64
7198.00,1.64
7197.00,1.64
7196.00,1.63
7195.00,1.63
7194.00,1.63
7193.00,1.63
7192.00,1.62
7191.00,1.62
7190.00,1.62
7189.00,1.62
7188.00,1.61
7187.00,1.61
7186.00,1.61
7185.00,1.60
7184.00,1.60
7183.00,1.60
7182.00,1.59
7181.00,1.59
7180.00,1.58
7179.00,1.58
7178.00,1.58
7177.00,1.57
7176.00,1.57
7175.00,1.57
7174.00,1.56
7173.00,1.56
7172.00,1.56
7171.00,1.56
7170.00,1.55
7169.00,1.55
7168.00,1.55
7167.00,1.54
7166.00,1.54
7165.00,1.54
7164.00,1.53
7163.00,1.53
7162.00,1.53
7161.00,1.52
7160.00,1.52
7159.00,1.52
7158.00,1.51
7157.00,1.51
7156.00,1.51
7155.00,1.50
7154.00,1.50
7153.00,1.50
7152.00,1.49
7151.00,1.49
7150.00,1.48
7149.00,1.48
7148.00,1.48
7147.00,1.47
7146.00,1.47
7145.00,1.46
7144.00,1.46
7143.00,1.46
7142.00,1.45
7141.00,1.45
7140.00,1.44
7139.00,1.44
7138.00,1.43
7137.00,1.43
7136.00,1.43
7135.00,1.42
7134.00,1.42
7133.00,1.41
7132.00,1.41
7131.00,1.40
7130.00,1.40
7129.00,1.40
7128.00,1.39
7127.00,1.39
7126.00,1.38
7125.00,1.38
7124.00,1.38
7123.00,1.37
7122.00,1.37
7121.00,1.37
7120.00,1.36
7119.00,1.36
7118.00,1.36
7117.00,1.35
7116.00,1.35
7115.00,1.35
7114.00,1.34
7113.00,1.34
7112.00,1.34
7111.00,1.34
7110.00,1.33
7109.00,1.33
7108.00,1.33
7107.00,1.33
7106.00,1.33
7105.00,1.32
7104.00,1.32
7103.00,1.32
7102.00,1.32
7101.00,1.32
7100.00,1.32
7099.00,1.32
7098.00,1.31
7097.00,1.31
7096.00,1.31
7095.00,1.31
7094.00,1.31
7093.00,1.30
7092.00,1.30
7091.00,1.30
7090.00,1.29
7089.00,1.29
7088.00,1.29
7087.00,1.28
7086.00,1.28
7085.00,1.28
7084.00,1.28
7083.00,1.27
7082.00,1.27
7081.00,1.26
7080.00,1.26
7079.00,1.26
7078.00,1.25
7077.00,1.25
7076.00,1.24
7075.00,1.24
7074.00,1.24
7073.00,1.23
7072.00,1.23
7071.00,1.22
7070.00,1.22
7069.00,1.21
7068.00,1.21
7067.00,1.21
7066.00,1.20
7065.00,1.20
7064.00,1.20
7063.00,1.20
7062.00,1.20
7061.00,1.19
7060.00,1.19
7059.00,1.19
7058.00,1.19
7057.00,1.19
7056.00,1.19
7055.00,1.18
7054.00,1.18
7053.00,1.18
7052.00,1.18
7051.00,1.18
7050.00,1.18
7049.00,1.18
7048.00,1.18
7047.00,1.18
7046.00,1.18
7045.00,1.18
7044.00,1.18
7043.00,1.18
7042.00,1.18
7041.00,1.18
7040.00,1.18
7039.00,1.18
7038.00,1.18
7037.00,1.18
7036.00,1.18
7035.00,1.18
7034.00,1.18
7033.00,1.18
7032.00,1.18
7031.00,1.18
7030.00,1.18
7029.00,1.18
7028.00,1.18
7027.00,1.18
7026.00,1.18
7025.00,1.18
7024.00,1.18
7023.00,1.18
7022.00,1.18
7021.00,1.18
7020.00,1.18
7019.00,1.18
7018.00,1.18
7017.00,1.18
7016.00,1.18
7015.00,1.18
7014.00,1.18
7013.00,1.18
7012.00,1.18
7011.00,1.18
7010.00,1.17
7009.00,1.17
7008.00,1.17
7007.00,1.17
7006.00,1.17
7005.00,1.16
7004.00,1.16
7003.00,1.16
7002.00,1.15
7001.00,1.15
7000.00,1.15
6999.00,1.14
6998.00,1.14
6997.00,1.14
6996.00,1.13
6995.00,1.13
6994.00,1.13
6993.00,1.13
6992.00,1.12
6991.00,1.12
6990.00,1.12
6989.00,1.12
6988.00,1.11
6987.00,1.11
6986.00,1.11
6985.00,1.11
6984.00,1.11
6983.00,1.10
6982.00,1.10
6981.00,1.10
6980.00,1.10
6979.00,1.10
6978.00,1.10
6977.00,1.10
6976.00,1.09
6975.00,1.09
6974.00,1.09
6973.00,1.09
6972.00,1.09
6971.00,1.09
6970.00,1.09
6969.00,1.09
6968.00,1.09
6967.00,1.09
6966.00,1.09
6965.00,1.09
6964.00,1.09
6963.00,1.09
6962.00,1.09
6961.00,1.09
6960.00,1.08
6959.00,1.08
6958.00,1.08
6957.00,1.08
6956.00,1.08
6955.00,1.08
6954.00,1.08
6953.00,1.08
6952.00,1.08
6951.00,1.08
6950.00,1.08
6949.00,1.08
6948.00,1.08
6947.00,1.08
6946.00,1.08
6945.00,1.08
6944.00,1.08
6943.00,1.08
6942.00,1.08
6941.00,1.07
6940.00,1.07
6939.00,1.07
6938.00,1.07
6937.00,1.07
6936.00,1.07
6935.00,1.07
6934.00,1.06
6933.00,1.06
6932.00,1.06
6931.00,1.06
6930.00,1.06
6929.00,1.06
6928.00,1.06
6927.00,1.05
6926.00,1.05
6925.00,1.05
6924.00,1.05
6923.00,1.05
6922.00,1.05
6921.00,1.05
6920.00,1.06
6919.00,1.06
6918.00,1.06
6917.00,1.06
6916.00,1.06
6915.00,1.06
6914.00,1.06
6913.00,1.06
6912.00,1.06
6911.00,1.06
6910.00,1.06
6909.00,1.06
6908.00,1.06
6907.00,1.06
6906.00,1.06
6905.00,1.06
6904.00,1.06
6903.00,1.06
6902.00,1.06
6901.00,1.06
6900.00,1.06
6899.00,1.06
6898.00,1.06
6897.00,1.06
6896.00,1.05
6895.00,1.05
6894.00,1.05
6893.00,1.05
6892.00,1.05
6891.00,1.05
6890.00,1.04
6889.00,1.04
6888.00,1.04
6887.00,1.04
6886.00,1.04
6885.00,1.04
6884.00,1.04
6883.00,1.03
6882.00,1.03
6881.00,1.03
6880.00,1.03
6879.00,1.03
6878.00,1.03
6877.00,1.03
6876.00,1.03
6875.00,1.03
6874.00,1.03
6873.00,1.03
6872.00,1.03
6871.00,1.03
6870.00,1.03
6869.00,1.03
6868.00,1.03
6867.00,1.04
6866.00,1.04
6865.00,1.04
6864.00,1.04
6863.00,1.04
6862.00,1.04
6861.00,1.04
6860.00,1.05
6859.00,1.05
6858.00,1.05
6857.00,1.05
6856.00,1.05
6855.00,1.05
6854.00,1.06
6853.00,1.06
6852.00,1.06
6851.00,1.06
6850.00,1.06
6849.00,1.06
6848.00,1.06
6847.00,1.06
6846.00,1.06
6845.00,1.06
6844.00,1.06
6843.00,1.06
6842.00,1.06
6841.00,1.06
6840.00,1.06
6839.00,1.07
6838.00,1.07
6837.00,1.07
6836.00,1.07
6835.00,1.07
6834.00,1.07
6833.00,1.07
6832.00,1.07
6831.00,1.07
6830.00,1.08
6829.00,1.08
6828.00,1.08
6827.00,1.08
6826.00,1.08
6825.00,1.09
6824.00,1.09
6823.00,1.09
6822.00,1.10
6821.00,1.10
6820.00,1.10
6819.00,1.11
6818.00,1.11
6817.00,1.11
6816.00,1.11
6815.00,1.12
6814.00,1.12
6813.00,1.12
6812.00,1.12
6811.00,1.13
6810.00,1.13
6809.00,1.13
6808.00,1.13
6807.00,1.13
6806.00,1.13
6805.00,1.14
6804.00,1.14
6803.00,1.14
6802.00,1.14
6801.00,1.14
6800.00,1.14
6799.00,1.14
6798.00,1.14
6797.00,1.14
6796.00,1.14
6795.00,1.14
6794.00,1.14
6793.00,1.14
6792.00,1.14
6791.00,1.14
6790.00,1.14
6789.00,1.14
6788.00,1.14
6787.00,1.15
6786.00,1.15
6785.00,1.15
6784.00,1.15
6783.00,1.15
6782.00,1.15
6781.00,1.15
6780.00,1.15
6779.00,1.15
6778.00,1.15
6777.00,1.15
6776.00,1.15
6775.00,1.15
6774.00,1.15
6773.00,1.15
6772.00,1.16
6771.00,1.16
6770.00,1.16
6769.00,1.16
6768.00,1.16
6767.00,1.16
6766.00,1.16
6765.00,1.16
6764.00,1.16
6763.00,1.16
6762.00,1.16
6761.00,1.16
6760.00,1.16
6759.00,1.16
6758.00,1.16
6757.00,1.17
6756.00,1.17
6755.00,1.17
6754.00,1.17
6753.00,1.17
6752.00,1.17
6751.00,1.17
6750.00,1.17
6749.00,1.18
6748.00,1.18
6747.00,1.18
6746.00,1.18
6745.00,1.18
6744.00,1.18
6743.00,1.18
6742.00,1.18
6741.00,1.19
6740.00,1.19
6739.00,1.19
6738.00,1.19
6737.00,1.19
6736.00,1.19
6735.00,1.19
6734.00,1.19
6733.00,1.20
6732.00,1.20
6731.00,1.20
6730.00,1.20
6729.00,1.20
6728.00,1.20
6727.00,1.20
6726.00,1.21
6725.00,1.21
6724.00,1.21
6723.00,1.21
6722.00,1.21
6721.00,1.22
6720.00,1.22
6719.00,1.22
6718.00,1.22
6717.00,1.23
6716.00,1.23
6715.00,1.23
6714.00,1.23
6713.00,1.24
6712.00,1.24
6711.00,1.24
6710.00,1.24
6709.00,1.24
6708.00,1.24
6707.00,1.24
6706.00,1.25
6705.00,1.25
6704.00,1.25
6703.00,1.25
6702.00,1.25
6701.00,1.25
6700.00,1.25
6699.00,1.25
6698.00,1.25
6697.00,1.25
6696.00,1.25
6695.00,1.25
6694.00,1.26
6693.00,1.26
6692.00,1.26
6691.00,1.26
6690.00,1.26
6689.00,1.26
6688.00,1.26
6687.00,1.26
6686.00,1.26
6685.00,1.26
6684.00,1.26
6683.00,1.26
6682.00,1.26
6681.00,1.26
6680.00,1.26
6679.00,1.26
6678.00,1.26
6677.00,1.26
6676.00,1.26
6675.00,1.26
6674.00,1.26
6673.00,1.26
6672.00,1.25
6671.00,1.25
6670.00,1.25
6669.00,1.25
6668.00,1.25
6667.00,1.25
6666.00,1.25
6665.00,1.25
6664.00,1.25
6663.00,1.25
6662.00,1.25
6661.00,1.25
6660.00,1.25
6659.00,1.26
6658.00,1.26
6657.00,1.26
6656.00,1.26
6655.00,1.26
6654.00,1.27
6653.00,1.27
6652.00,1.27
6651.00,1.27
6650.00,1.28
6649.00,1.28
6648.00,1.28
6647.00,1.29
6646.00,1.29
6645.00,1.30
6644.00,1.30
6643.00,1.30
6642.00,1.31
6641.00,1.31
6640.00,1.31
6639.00,1.32
6638.00,1.32
6637.00,1.32
6636.00,1.33
6635.00,1.33
6634.00,1.33
6633.00,1.34
6632.00,1.34
6631.00,1.34
6630.00,1.34
6629.00,1.35
6628.00,1.35
6627.00,1.35
6626.00,1.35
6625.00,1.35
6624.00,1.36
6623.00,1.36
6622.00,1.36
6621.00,1.36
6620.00,1.36
6619.00,1.36
6618.00,1.37
6617.00,1.37
6616.00,1.37
6615.00,1.37
6614.00,1.37
6613.00,1.38
6612.00,1.38
6611.00,1.38
6610.00,1.38
6609.00,1.39
6608.00,1.39
6607.00,1.39
6606.00,1.39
6605.00,1.40
6604.00,1.40
6603.00,1.40
6602.00,1.40
6601.00,1.41
6600.00,1.41
6599.00,1.41
6598.00,1.41
6597.00,1.42
6596.00,1.42
6595.00,1.42
6594.00,1.42
6593.00,1.43
6592.00,1.43
6591.00,1.43
6590.00,1.44
6589.00,1.44
6588.00,1.44
6587.00,1.45
6586.00,1.45
6585.00,1.45
6584.00,1.46
6583.00,1.46
6582.00,1.46
6581.00,1.46
6580.00,1.47
6579.00,1.47
6578.00,1.47
6577.00,1.48
6576.00,1.48
6575.00,1.48
6574.00,1.48
6573.00,1.48
6572.00,1.48
6571.00,1.48
6570.00,1.49
6569.00,1.49
6568.00,1.49
6567.00,1.49
6566.00,1.49
6565.00,1.49
6564.00,1.49
6563.00,1.48
6562.00,1.48
6561.00,1.48
6560.00,1.48
6559.00,1.48
6558.00,1.48
6557.00,1.48
6556.00,1.48
6555.00,1.48
6554.00,1.47
6553.00,1.47
6552.00,1.47
6551.00,1.47
6550.00,1.47
6549.00,1.47
6548.00,1.47
6547.00,1.47
6546.00,1.48
6545.00,1.48
6544.00,1.48
6543.00,1.48
6542.00,1.48
6541.00,1.48
6540.00,1.48
6539.00,1.48
6538.00,1.48
6537.00,1.48
6536.00,1.49
6535.00,1.49
6534.00,1.49
6533.00,1.50
6532.00,1.50
6531.00,1.50
6530.00,1.50
6529.00,1.51
6528.00,1.51
6527.00,1.51
6526.00,1.52
6525.00,1.52
6524.00,1.52
6523.00,1.52
6522.00,1.52
6521.00,1.53
6520.00,1.53
6519.00,1.53
6518.00,1.53
6517.00,1.53
6516.00,1.53
6515.00,1.54
6514.00,1.54
6513.00,1.54
6512.00,1.54
6511.00,1.54
6510.00,1.54
6509.00,1.54
6508.00,1.54
6507.00,1.54
6506.00,1.54
6505.00,1.54
6504.00,1.54
6503.00,1.54
6502.00,1.54
6501.00,1.54
6500.00,1.54
6499.00,1.54
6498.00,1.54
6497.00,1.54
6496.00,1.54
6495.00,1.54
6494.00,1.54
6493.00,1.54
6492.00,1.54
6491.00,1.54
6490.00,1.54
6489.00,1.54
6488.00,1.54
6487.00,1.54
6486.00,1.54
6485.00,1.55
6484.00,1.55
6483.00,1.55
6482.00,1.55
6481.00,1.56
6480.00,1.56
6479.00,1.56
6478.00,1.56
6477.00,1.57
6476.00,1.57
6475.00,1.57
6474.00,1.57
6473.00,1.58
6472.00,1.58
6471.00,1.58
6470.00,1.58
6469.00,1.59
6468.00,1.59
6467.00,1.59
6466.00,1.59
6465.00,1.60
6464.00,1.60
6463.00,1.60
6462.00,1.60
6461.00,1.60
6460.00,1.60
6459.00,1.60
6458.00,1.60
6457.00,1.61
6456.00,1.61
6455.00,1.61
6454.00,1.61
6453.00,1.61
6452.00,1.61
6451.00,1.61
6450.00,1.61
6449.00,1.61
6448.00,1.61
6447.00,1.61
6446.00,1.61
6445.00,1.61
6444.00,1.61
6443.00,1.61
6442.00,1.61
6441.00,1.60
6440.00,1.60
6439.00,1.60
6438.00,1.60
6437.00,1.60
6436.00,1.60
6435.00,1.60
6434.00,1.60
6433.00,1.60
6432.00,1.60
6431.00,1.60
6430.00,1.60
6429.00,1.60
6428.00,1.60
6427.00,1.60
6426.00,1.60
6425.00,1.60
6424.00,1.61
6423.00,1.61
6422.00,1.61
6421.00,1.61
6420.00,1.61
6419.00,1.61
6418.00,1.61
6417.00,1.62
6416.00,1.62
6415.00,1.62
6414.00,1.62
6413.00,1.62
6412.00,1.62
6411.00,1.62
6410.00,1.63
6409.00,1.63
6408.00,1.63
6407.00,1.63
6406.00,1.63
6405.00,1.63
6404.00,1.63
6403.00,1.63
6402.00,1.63
6401.00,1.63
6400.00,1.63
6399.00,1.63
6398.00,1.63
6397.00,1.63
6396.00,1.63
6395.00,1.63
6394.00,1.63
6393.00,1.63
6392.00,1.63
6391.00,1.63
6390.00,1.62
6389.00,1.62
6388.00,1.62
6387.00,1.62
6386.00,1.62
6385.00,1.63
6384.00,1.63
6383.00,1.63
6382.00,1.63
6381.00,1.63
6380.00,1.63
6379.00,1.63
6378.00,1.64
6377.00,1.64
6376.00,1.64
6375.00,1.64
6374.00,1.64
6373.00,1.65
6372.00,1.65
6371.00,1.65
6370.00,1.65
6369.00,1.66
6368.00,1.66
6367.00,1.66
6366.00,1.66
6365.00,1.67
6364.00,1.67
6363.00,1.67
6362.00,1.68
6361.00,1.68
6360.00,1.68
6359.00,1.68
6358.00,1.69
6357.00,1.69
6356.00,1.69
6355.00,1.69
6354.00,1.70
6353.00,1.70
6352.00,1.70
6351.00,1.70
6350.00,1.70
6349.00,1.71
6348.00,1.71
6347.00,1.71
6346.00,1.71
6345.00,1.71
6344.00,1.72
6343.00,1.72
6342.00,1.72
6341.00,1.72
6340.00,1.72
6339.00,1.72
6338.00,1.72
6337.00,1.72
6336.00,1.72
6335.00,1.72
6334.00,1.72
6333.00,1.72
6332.00,1.72
6331.00,1.72
6330.00,1.72
6329.00,1.72
6328.00,1.72
6327.00,1.72
6326.00,1.72
6325.00,1.72
6324.00,1.71
6323.00,1.71
6322.00,1.71
6321.00,1.71
6320.00,1.71
6319.00,1.71
6318.00,1.71
6317.00,1.72
6316.00,1.72
6315.00,1.72
6314.00,1.72
6313.00,1.72
6312.00,1.72
6311.00,1.72
6310.00,1.73
6309.00,1.73
6308.00,1.73
6307.00,1.73
6306.00,1.74
6305.00,1.74
6304.00,1.74
6303.00,1.74
6302.00,1.75
6301.00,1.75
6300.00,1.75
6299.00,1.75
6298.00,1.76
6297.00,1.76
6296.00,1.76
6295.00,1.76
6294.00,1.76
6293.00,1.77
6292.00,1.77
6291.00,1.77
6290.00,1.77
6289.00,1.77
6288.00,1.77
6287.00,1.78
6286.00,1.78
6285.00,1.78
6284.00,1.78
6283.00,1.78
6282.00,1.78
6281.00,1.79
6280.00,1.79
6279.00,1.79
6278.00,1.79
6277.00,1.79
6276.00,1.79
6275.00,1.79
6274.00,1.79
6273.00,1.79
6272.00,1.80
6271.00,1.80
6270.00,1.80
6269.00,1.80
6268.00,1.80
6267.00,1.80
6266.00,1.81
6265.00,1.81
6264.00,1.81
6263.00,1.81
6262.00,1.81
6261.00,1.81
6260.00,1.81
6259.00,1.82
6258.00,1.82
6257.00,1.82
6256.00,1.82
6255.00,1.82
6254.00,1.82
6253.00,1.82
6252.00,1.82
6251.00,1.82
6250.00,1.82
6249.00,1.82
6248.00,1.82
6247.00,1.82
6246.00,1.82
6245.00,1.83
6244.00,1.83
6243.00,1.83
6242.00,1.83
6241.00,1.83
6240.00,1.83
6239.00,1.83
6238.00,1.83
6237.00,1.83
6236.00,1.83
6235.00,1.83
6234.00,1.83
6233.00,1.84
6232.00,1.84
6231.00,1.84
6230.00,1.84
6229.00,1.84
6228.00,1.84
6227.00,1.84
6226.00,1.84
6225.00,1.84
6224.00,1.84
6223.00,1.84
6222.00,1.84
6221.00,1.84
6220.00,1.84
6219.00,1.84
6218.00,1.84
6217.00,1.84
6216.00,1.84
6215.00,1.84
6214.00,1.84
6213.00,1.84
6212.00,1.84
6211.00,1.84
6210.00,1.84
6209.00,1.84
6208.00,1.84
6207.00,1.84
6206.00,1.84
6205.00,1.85
6204.00,1.85
6203.00,1.85
6202.00,1.85
6201.00,1.85
6200.00,1.85
6199.00,1.85
6198.00,1.85
6197.00,1.85
6196.00,1.85
6195.00,1.85
6194.00,1.85
6193.00,1.86
6192.00,1.86
6191.00,1.86
6190.00,1.86
6189.00,1.86
6188.00,1.86
6187.00,1.86
6186.00,1.86
6185.00,1.87
6184.00,1.87
6183.00,1.87
6182.00,1.87
6181.00,1.87
6180.00,1.87
6179.00,1.86
6178.00,1.86
6177.00,1.86
6176.00,1.86
6175.00,1.86
6174.00,1.86
6173.00,1.86
6172.00,1.86
6171.00,1.86
6170.00,1.86
6169.00,1.86
6168.00,1.86
6167.00,1.86
6166.00,1.87
6165.00,1.87
6164.00,1.87
6163.00,1.87
6162.00,1.87
6161.00,1.87
6160.00,1.87
6159.00,1.87
6158.00,1.87
6157.00,1.87
6156.00,1.88
6155.00,1.88
6154.00,1.88
6153.00,1.88
6152.00,1.89
6151.00,1.89
6150.00,1.89
6149.00,1.90
6148.00,1.90
6147.00,1.90
6146.00,1.90
6145.00,1.90
6144.00,1.91
6143.00,1.91
6142.00,1.91
6141.00,1.91
6140.00,1.91
6139.00,1.91
6138.00,1.92
6137.00,1.92
6136.00,1.92
6135.00,1.92
6134.00,1.92
6133.00,1.92
6132.00,1.93
6131.00,1.93
6130.00,1.93
6129.00,1.93
6128.00,1.93
6127.00,1.93
6126.00,1.93
6125.00,1.93
6124.00,1.93
6123.00,1.93
6122.00,1.93
6121.00,1.93
6120.00,1.94
6119.00,1.94
6118.00,1.94
6117.00,1.94
6116.00,1.94
6115.00,1.94
6114.00,1.94
6113.00,1.95
6112.00,1.95
6111.00,1.95
6110.00,1.95
6109.00,1.95
6108.00,1.95
6107.00,1.95
6106.00,1.95
6105.00,1.95
6104.00,1.95
6103.00,1.96
6102.00,1.96
6101.00,1.96
6100.00,1.96
6099.00,1.96
6098.00,1.96
6097.00,1.96
6096.00,1.96
6095.00,1.96
6094.00,1.96
6093.00,1.96
6092.00,1.96
6091.00,1.96
6090.00,1.96
6089.00,1.96
6088.00,1.96
6087.00,1.96
6086.00,1.96
6085.00,1.96
6084.00,1.96
6083.00,1.96
6082.00,1.96
6081.00,1.96
6080.00,1.96
6079.00,1.96
6078.00,1.96
6077.00,1.96
6076.00,1.96
6075.00,1.96
6074.00,1.96
6073.00,1.96
6072.00,1.97
6071.00,1.97
6070.00,1.97
6069.00,1.97
6068.00,1.97
6067.00,1.97
6066.00,1.97
6065.00,1.97
6064.00,1.97
6063.00,1.98
6062.00,1.98
6061.00,1.98
6060.00,1.98
6059.00,1.98
6058.00,1.98
6057.00,1.98
6056.00,1.98
6055.00,1.98
6054.00,1.98
6053.00,1.99
6052.00,1.99
6051.00,1.99
6050.00,1.99
6049.00,1.99
6048.00,1.99
6047.00,1.99
6046.00,1.99
6045.00,1.99
6044.00,1.99
6043.00,1.99
6042.00,1.99
6041.00,1.99
6040.00,2.00
6039.00,2.00
6038.00,2.00
6037.00,2.00
6036.00,2.00
6035.00,2.00
6034.00,2.00
6033.00,2.00
6032.00,2.00
6031.00,2.00
6030.00,2.00
6029.00,2.00
6028.00,2.00
6027.00,2.00
6026.00,2.00
6025.00,2.00
6024.00,2.00
6023.00,2.00
6022.00,2.00
6021.00,2.00
6020.00,2.00
6019.00,2.00
6018.00,2.00
6017.00,2.00
6016.00,2.00
6015.00,2.00
6014.00,2.00
6013.00,2.00
6012.00,2.00
6011.00,2.00
6010.00,2.00
6009.00,2.00
6008.00,2.00
6007.00,2.00
6006.00,1.99
6005.00,1.99
6004.00,1.99
6003.00,1.99
6002.00,1.99
6001.00,1.99
6000.00,1.99
5999.00,1.99
5998.00,1.99
5997.00,1.99
5996.00,1.99
5995.00,1.99
5994.00,1.99
5993.00,1.99
5992.00,1.99
5991.00,1.99
5990.00,1.99
5989.00,1.99
5988.00,1.99
5987.00,1.99
5986.00,1.99
5985.00,1.98
5984.00,1.98
5983.00,1.98
5982.00,1.98
5981.00,1.98
5980.00,1.98
5979.00,1.98
5978.00,1.98
5977.00,1.98
5976.00,1.98
5975.00,1.98
5974.00,1.98
5973.00,1.98
5972.00,1.97
5971.00,1.97
5970.00,1.97
5969.00,1.97
5968.00,1.97
5967.00,1.97
5966.00,1.97
5965.00,1.97
5964.00,1.96
5963.00,1.96
5962.00,1.96
5961.00,1.96
5960.00,1.96
5959.00,1.96
5958.00,1.96
5957.00,1.96
5956.00,1.95
5955.00,1.95
5954.00,1.95
5953.00,1.95
5952.00,1.95
5951.00,1.95
5950.00,1.95
5949.00,1.94
5948.00,1.94
5947.00,1.94
5946.00,1.94
5945.00,1.94
5944.00,1.94
5943.00,1.94
5942.00,1.94
5941.00,1.94
5940.00,1.93
5939.00,1.93
5938.00,1.93
5937.00,1.93
5936.00,1.93
5935.00,1.93
5934.00,1.93
5933.00,1.93
5932.00,1.93
5931.00,1.93
5930.00,1.92
5929.00,1.92
5928.00,1.92
5927.00,1.92
5926.00,1.92
5925.00,1.92
5924.00,1.92
5923.00,1.92
5922.00,1.92
5921.00,1.92
5920.00,1.92
5919.00,1.92
5918.00,1.92
5917.00,1.92
5916.00,1.92
5915.00,1.92
5914.00,1.92
5913.00,1.92
5912.00,1.92
5911.00,1.92
5910.00,1.92
5909.00,1.92
5908.00,1.92
5907.00,1.92
5906.00,1.92
5905.00,1.92
5904.00,1.92
5903.00,1.92
5902.00,1.92
5901.00,1.92
5900.00,1.92
5899.00,1.92
5898.00,1.92
5897.00,1.93
5896.00,1.93
5895.00,1.93
5894.00,1.93
5893.00,1.93
5892.00,1.93
5891.00,1.93
5890.00,1.93
5889.00,1.93
5888.00,1.93
5887.00,1.93
5886.00,1.93
5885.00,1.93
5884.00,1.93
5883.00,1.94
5882.00,1.94
5881.00,1.94
5880.00,1.94
5879.00,1.94
5878.00,1.94
5877.00,1.94
5876.00,1.94
5875.00,1.94
5874.00,1.94
5873.00,1.94
5872.00,1.94
5871.00,1.95
5870.00,1.95
5869.00,1.95
5868.00,1.95
5867.00,1.95
5866.00,1.95
5865.00,1.95
5864.00,1.95
5863.00,1.96
5862.00,1.96
5861.00,1.96
5860.00,1.96
5859.00,1.96
5858.00,1.96
5857.00,1.96
5856.00,1.96
5855.00,1.97
5854.00,1.97
5853.00,1.97
5852.00,1.97
5851.00,1.97
5850.00,1.97
5849.00,1.97
5848.00,1.97
5847.00,1.97
5846.00,1.97
5845.00,1.97
5844.00,1.97
5843.00,1.97
5842.00,1.97
5841.00,1.97
5840.00,1.97
5839.00,1.97
5838.00,1.97
5837.00,1.97
5836.00,1.97
5835.00,1.97
5834.00,1.97
5833.00,1.96
5832.00,1.96
5831.00,1.96
5830.00,1.96
5829.00,1.96
5828.00,1.96
5827.00,1.96
5826.00,1.96
5825.00,1.96
5824.00,1.96
5823.00,1.96
5822.00,1.96
5821.00,1.96
5820.00,1.96
5819.00,1.96
5818.00,1.96
5817.00,1.96
5816.00,1.96
5815.00,1.96
5814.00,1.96
5813.00,1.96
5812.00,1.96
5811.00,1.96
5810.00,1.96
5809.00,1.96
5808.00,1.96
5807.00,1.96
5806.00,1.96
5805.00,1.96
5804.00,1.96
5803.00,1.96
5802.00,1.96
5801.00,1.95
5800.00,1.95
5799.00,1.95
5798.00,1.95
5797.00,1.95
5796.00,1.95
5795.00,1.94
5794.00,1.94
5793.00,1.94
5792.00,1.94
5791.00,1.94
5790.00,1.93
5789.00,1.93
5788.00,1.93
5787.00,1.93
5786.00,1.93
5785.00,1.93
5784.00,1.92
5783.00,1.92
5782.00,1.92
5781.00,1.92
5780.00,1.92
5779.00,1.92
5778.00,1.92
5777.00,1.92
5776.00,1.92
5775.00,1.91
5774.00,1.91
5773.00,1.91
5772.00,1.92
5771.00,1.92
5770.00,1.92
5769.00,1.92
5768.00,1.92
5767.00,1.92
5766.00,1.92
5765.00,1.92
5764.00,1.92
5763.00,1.93
5762.00,1.93
5761.00,1.93
5760.00,1.93
5759.00,1.93
5758.00,1.93
5757.00,1.93
5756.00,1.93
5755.00,1.94
5754.00,1.94
5753.00,1.94
5752.00,1.94
5751.00,1.94
5750.00,1.94
5749.00,1.94
5748.00,1.94
5747.00,1.94
5746.00,1.94
5745.00,1.94
5744.00,1.94
5743.00,1.94
5742.00,1.94
5741.00,1.94
5740.00,1.94
5739.00,1.94
5738.00,1.94
5737.00,1.94
5736.00,1.94
5735.00,1.94
5734.00,1.94
5733.00,1.94
5732.00,1.94
5731.00,1.94
5730.00,1.94
5729.00,1.94
5728.00,1.94
5727.00,1.94
5726.00,1.94
5725.00,1.94
5724.00,1.94
5723.00,1.94
5722.00,1.94
5721.00,1.94
5720.00,1.94
5719.00,1.94
5718.00,1.94
5717.00,1.93
5716.00,1.93
5715.00,1.93
5714.00,1.93
5713.00,1.93
5712.00,1.93
5711.00,1.93
5710.00,1.93
5709.00,1.93
5708.00,1.93
5707.00,1.93
5706.00,1.93
5705.00,1.93
5704.00,1.93
5703.00,1.93
5702.00,1.93
5701.00,1.92
5700.00,1.92
5699.00,1.92
5698.00,1.92
5697.00,1.92
5696.00,1.92
5695.00,1.92
5694.00,1.92
5693.00,1.92
5692.00,1.91
5691.00,1.91
5690.00,1.91
5689.00,1.91
5688.00,1.91
5687.00,1.91
5686.00,1.91
5685.00,1.91
5684.00,1.91
5683.00,1.91
5682.00,1.91
5681.00,1.91
5680.00,1.91
5679.00,1.91
5678.00,1.91
5677.00,1.91
5676.00,1.91
5675.00,1.91
5674.00,1.91
5673.00,1.91
5672.00,1.91
5671.00,1.91
5670.00,1.91
5669.00,1.91
5668.00,1.91
5667.00,1.91
5666.00,1.91
5665.00,1.91
5664.00,1.92
5663.00,1.92
5662.00,1.92
5661.00,1.92
5660.00,1.92
5659.00,1.92
5658.00,1.92
5657.00,1.92
5656.00,1.92
5655.00,1.92
5654.00,1.92
5653.00,1.92
5652.00,1.92
5651.00,1.92
5650.00,1.92
5649.00,1.92
5648.00,1.92
5647.00,1.92
5646.00,1.92
5645.00,1.92
5644.00,1.92
5643.00,1.92
5642.00,1.92
5641.00,1.92
5640.00,1.92
5639.00,1.91
5638.00,1.91
5637.00,1.91
5636.00,1.91
5635.00,1.91
5634.00,1.91
5633.00,1.91
5632.00,1.91
5631.00,1.91
5630.00,1.90
5629.00,1.90
5628.00,1.90
5627.00,1.90
5626.00,1.90
5625.00,1.90
5624.00,1.90
5623.00,1.90
5622.00,1.90
5621.00,1.90
5620.00,1.90
5619.00,1.90
5618.00,1.90
5617.00,1.90
5616.00,1.90
5615.00,1.91
5614.00,1.91
5613.00,1.91
5612.00,1.91
5611.00,1.91
5610.00,1.91
5609.00,1.91
5608.00,1.91
5607.00,1.91
5606.00,1.92
5605.00,1.92
5604.00,1.92
5603.00,1.92
5602.00,1.92
5601.00,1.92
5600.00,1.92
5599.00,1.92
5598.00,1.92
5597.00,1.92
5596.00,1.92
5595.00,1.92
5594.00,1.92
5593.00,1.92
5592.00,1.92
5591.00,1.92
5590.00,1.92
5589.00,1.92
5588.00,1.92
5587.00,1.92
5586.00,1.92
5585.00,1.92
5584.00,1.92
5583.00,1.92
5582.00,1.92
5581.00,1.92
5580.00,1.92
5579.00,1.92
5578.00,1.93
5577.00,1.93
5576.00,1.93
5575.00,1.93
5574.00,1.93
5573.00,1.93
5572.00,1.93
5571.00,1.93
5570.00,1.93
5569.00,1.93
5568.00,1.93
5567.00,1.93
5566.00,1.93
5565.00,1.94
5564.00,1.94
5563.00,1.94
5562.00,1.94
5561.00,1.94
5560.00,1.94
5559.00,1.94
5558.00,1.95
5557.00,1.95
5556.00,1.95
5555.00,1.95
5554.00,1.95
5553.00,1.95
5552.00,1.95
5551.00,1.95
5550.00,1.95
5549.00,1.96
5548.00,1.96
5547.00,1.96
5546.00,1.96
5545.00,1.96
5544.00,1.96
5543.00,1.96
5542.00,1.96
5541.00,1.96
5540.00,1.96
5539.00,1.96
5538.00,1.96
5537.00,1.96
5536.00,1.96
5535.00,1.96
5534.00,1.96
5533.00,1.96
5532.00,1.96
5531.00,1.96
5530.00,1.96
5529.00,1.96
5528.00,1.96
5527.00,1.97
5526.00,1.97
5525.00,1.97
5524.00,1.97
5523.00,1.97
5522.00,1.97
5521.00,1.97
5520.00,1.97
5519.00,1.97
5518.00,1.97
5517.00,1.97
5516.00,1.97
5515.00,1.97
5514.00,1.97
5513.00,1.97
5512.00,1.97
5511.00,1.97
5510.00,1.97
5509.00,1.97
5508.00,1.97
5507.00,1.97
5506.00,1.97
5505.00,1.97
5504.00,1.97
5503.00,1.97
5502.00,1.97
5501.00,1.97
5500.00,1.97
5499.00,1.97
5498.00,1.97
5497.00,1.97
5496.00,1.97
5495.00,1.97
5494.00,1.97
5493.00,1.97
5492.00,1.97
5491.00,1.97
5490.00,1.97
5489.00,1.97
5488.00,1.97
5487.00,1.97
5486.00,1.97
5485.00,1.97
5484.00,1.97
5483.00,1.97
5482.00,1.97
5481.00,1.97
5480.00,1.97
5479.00,1.97
5478.00,1.97
5477.00,1.97
5476.00,1.97
5475.00,1.97
5474.00,1.97
5473.00,1.97
5472.00,1.97
5471.00,1.97
5470.00,1.97
5469.00,1.97
5468.00,1.97
5467.00,1.97
5466.00,1.97
5465.00,1.97
5464.00,1.97
5463.00,1.97
5462.00,1.97
5461.00,1.97
5460.00,1.97
5459.00,1.97
5458.00,1.97
5457.00,1.97
5456.00,1.97
5455.00,1.97
5454.00,1.97
5453.00,1.97
5452.00,1.97
5451.00,1.97
5450.00,1.97
5449.00,1.97
5448.00,1.98
5447.00,1.98
5446.00,1.98
5445.00,1.98
5444.00,1.98
5443.00,1.98
5442.00,1.98
5441.00,1.98
5440.00,1.98
5439.00,1.99
5438.00,1.99
5437.00,1.99
5436.00,1.99
5435.00,1.99
5434.00,1.99
5433.00,1.99
5432.00,1.99
5431.00,1.99
5430.00,1.99
5429.00,1.99
5428.00,1.99
5427.00,1.99
5426.00,1.99
5425.00,1.99
5424.00,1.99
5423.00,1.99
5422.00,1.99
5421.00,1.99
5420.00,1.99
5419.00,1.99
5418.00,1.99
5417.00,1.99
5416.00,1.99
5415.00,1.99
5414.00,1.99
5413.00,1.99
5412.00,1.99
5411.00,1.99
5410.00,1.99
5409.00,1.99
5408.00,1.99
5407.00,1.99
5406.00,1.99
5405.00,1.99
5404.00,1.99
5403.00,1.99
5402.00,1.98
5401.00,1.98
5400.00,1.98
5399.00,1.98
5398.00,1.98
5397.00,1.98
5396.00,1.97
5395.00,1.97
5394.00,1.97
5393.00,1.97
5392.00,1.96
5391.00,1.96
5390.00,1.96
5389.00,1.95
5388.00,1.95
5387.00,1.95
5386.00,1.94
5385.00,1.94
5384.00,1.93
5383.00,1.93
5382.00,1.92
5381.00,1.92
5380.00,1.91
5379.00,1.90
5378.00,1.90
5377.00,1.89
5376.00,1.89
5375.00,1.88
5374.00,1.87
5373.00,1.87
5372.00,1.86
5371.00,1.85
5370.00,1.84
5369.00,1.83
5368.00,1.83
5367.00,1.82
5366.00,1.81
5365.00,1.80
5364.00,1.79
5363.00,1.78
5362.00,1.77
5361.00,1.76
5360.00,1.75
5359.00,1.75
5358.00,1.74
5357.00,1.73
5356.00,1.72
5355.00,1.71
5354.00,1.71
5353.00,1.70
5352.00,1.69
5351.00,1.68
5350.00,1.67
5349.00,1.66
5348.00,1.66
5347.00,1.65
5346.00,1.64
5345.00,1.63
5344.00,1.62
5343.00,1.62
5342.00,1.61
5341.00,1.60
5340.00,1.59
5339.00,1.58
5338.00,1.58
5337.00,1.57
5336.00,1.56
5335.00,1.55
5334.00,1.54
5333.00,1.53
5332.00,1.52
5331.00,1.51
5330.00,1.50
5329.00,1.49
5328.00,1.48
5327.00,1.46
5326.00,1.45
5325.00,1.44
5324.00,1.43
5323.00,1.41
5322.00,1.40
5321.00,1.38
5320.00,1.37
5319.00,1.36
5318.00,1.34
5317.00,1.33
5316.00,1.31
5315.00,1.30
5314.00,1.29
5313.00,1.27
5312.00,1.26
5311.00,1.24
5310.00,1.23
5309.00,1.21
5308.00,1.20
5307.00,1.18
5306.00,1.17
5305.00,1.16
5304.00,1.14
5303.00,1.13
5302.00,1.12
5301.00,1.11
5300.00,1.10
5299.00,1.08
5298.00,1.07
5297.00,1.06
5296.00,1.05
5295.00,1.04
5294.00,1.03
5293.00,1.02
5292.00,1.01
5291.00,1.00
5290.00,0.99
5289.00,0.98
5288.00,0.97
5287.00,0.96
5286.00,0.96
5285.00,0.95
5284.00,0.94
5283.00,0.93
5282.00,0.92
5281.00,0.92
5280.00,0.91
5279.00,0.90
5278.00,0.90
5277.00,0.89
5276.00,0.88
5275.00,0.88
5274.00,0.87
5273.00,0.86
5272.00,0.86
5271.00,0.85
5270.00,0.85
5269.00,0.84
5268.00,0.84
5267.00,0.83
5266.00,0.83
5265.00,0.82
5264.00,0.82
5263.00,0.82
5262.00,0.81
5261.00,0.81
5260.00,0.81
5259.00,0.80
5258.00,0.80
5257.00,0.80
5256.00,0.79
5255.00,0.79
5254.00,0.79
5253.00,0.79
5252.00,0.78
5251.00,0.78
5250.00,0.78
5249.00,0.78
5248.00,0.78
5247.00,0.78
5246.00,0.78
5245.00,0.78
5244.00,0.78
5243.00,0.78
5242.00,0.78
5241.00,0.78
5240.00,0.78
5239.00,0.78
5238.00,0.77
5237.00,0.77
5236.00,0.77
5235.00,0.77
5234.00,0.77
5233.00,0.77
5232.00,0.77
5231.00,0.77
5230.00,0.77
5229.00,0.77
5228.00,0.77
5227.00,0.77
5226.00,0.77
5225.00,0.77
5224.00,0.77
5223.00,0.77
5222.00,0.77
5221.00,0.77
5220.00,0.77
5219.00,0.77
5218.00,0.76
5217.00,0.76
5216.00,0.76
5215.00,0.76
5214.00,0.76
5213.00,0.76
5212.00,0.76
5211.00,0.75
5210.00,0.75
5209.00,0.75
5208.00,0.75
5207.00,0.75
5206.00,0.75
5205.00,0.75
5204.00,0.75
5203.00,0.75
5202.00,0.74
5201.00,0.74
5200.00,0.74
5199.00,0.74
5198.00,0.74
5197.00,0.74
5196.00,0.74
5195.00,0.74
5194.00,0.74
5193.00,0.74
5192.00,0.74
5191.00,0.74
5190.00,0.74
5189.00,0.74
5188.00,0.74
5187.00,0.74
5186.00,0.74
5185.00,0.74
5184.00,0.74
5183.00,0.74
5182.00,0.74
5181.00,0.74
5180.00,0.74
5179.00,0.74
5178.00,0.74
5177.00,0.74
5176.00,0.74
5175.00,0.74
5174.00,0.74
5173.00,0.74
5172.00,0.74
5171.00,0.74
5170.00,0.75
5169.00,0.75
5168.00,0.75
5167.00,0.75
5166.00,0.75
5165.00,0.75
5164.00,0.75
5163.00,0.75
5162.00,0.75
5161.00,0.75
5160.00,0.75
5159.00,0.75
5158.00,0.75
5157.00,0.75
5156.00,0.75
5155.00,0.75
5154.00,0.75
5153.00,0.75
5152.00,0.75
5151.00,0.75
5150.00,0.75
5149.00,0.75
5148.00,0.75
5147.00,0.75
5146.00,0.75
5145.00,0.75
5144.00,0.75
5143.00,0.75
5142.00,0.75
5141.00,0.76
5140.00,0.76
5139.00,0.76
5138.00,0.76
5137.00,0.77
5136.00,0.77
5135.00,0.77
5134.00,0.77
5133.00,0.78
5132.00,0.78
5131.00,0.78
5130.00,0.78
5129.00,0.78
5128.00,0.79
5127.00,0.79
5126.00,0.79
5125.00,0.79
5124.00,0.80
5123.00,0.80
5122.00,0.80
5121.00,0.80
5120.00,0.80
5119.00,0.81
5118.00,0.81
5117.00,0.81
5116.00,0.81
5115.00,0.81
5114.00,0.81
5113.00,0.81
5112.00,0.81
5111.00,0.81
5110.00,0.81
5109.00,0.81
5108.00,0.81
5107.00,0.81
5106.00,0.81
5105.00,0.81
5104.00,0.81
5103.00,0.81
5102.00,0.81
5101.00,0.81
5100.00,0.81
5099.00,0.81
5098.00,0.81
5097.00,0.81
5096.00,0.81
5095.00,0.81
5094.00,0.81
5093.00,0.81
5092.00,0.81
5091.00,0.81
5090.00,0.81
5089.00,0.81
5088.00,0.82
5087.00,0.82
5086.00,0.82
5085.00,0.82
5084.00,0.82
5083.00,0.82
5082.00,0.82
5081.00,0.82
5080.00,0.82
5079.00,0.83
5078.00,0.83
5077.00,0.83
5076.00,0.83
5075.00,0.83
5074.00,0.83
5073.00,0.83
5072.00,0.83
5071.00,0.83
5070.00,0.83
5069.00,0.83
5068.00,0.83
5067.00,0.83
5066.00,0.84
5065.00,0.84
5064.00,0.84
5063.00,0.84
5062.00,0.84
5061.00,0.84
5060.00,0.85
5059.00,0.85
5058.00,0.85
5057.00,0.85
5056.00,0.85
5055.00,0.86
5054.00,0.86
5053.00,0.86
5052.00,0.87
5051.00,0.87
5050.00,0.87
5049.00,0.88
5048.00,0.88
5047.00,0.88
5046.00,0.89
5045.00,0.89
5044.00,0.89
5043.00,0.89
5042.00,0.90
5041.00,0.90
5040.00,0.90
5039.00,0.91
5038.00,0.91
5037.00,0.91
5036.00,0.91
5035.00,0.92
5034.00,0.92
5033.00,0.92
5032.00,0.92
5031.00,0.92
5030.00,0.93
5029.00,0.93
5028.00,0.93
5027.00,0.93
5026.00,0.93
5025.00,0.93
5024.00,0.93
5023.00,0.93
5022.00,0.93
5021.00,0.93
5020.00,0.93
5019.00,0.93
5018.00,0.93
5017.00,0.94
5016.00,0.94
5015.00,0.94
5014.00,0.94
5013.00,0.94
5012.00,0.94
5011.00,0.94
5010.00,0.94
5009.00,0.94
5008.00,0.94
5007.00,0.94
5006.00,0.95
5005.00,0.95
5004.00,0.95
5003.00,0.95
5002.00,0.95
5001.00,0.95
5000.00,0.96
4999.00,0.96
4998.00,0.96
4997.00,0.96
4996.00,0.97
4995.00,0.97
4994.00,0.97
4993.00,0.97
4992.00,0.98
4991.00,0.98
4990.00,0.98
4989.00,0.98
4988.00,0.99
4987.00,0.99
4986.00,0.99
4985.00,1.00
4984.00,1.00
4983.00,1.00
4982.00,1.00
4981.00,1.01
4980.00,1.01
4979.00,1.01
4978.00,1.02
4977.00,1.02
4976.00,1.02
4975.00,1.02
4974.00,1.03
4973.00,1.03
4972.00,1.03
4971.00,1.03
4970.00,1.04
4969.00,1.04
4968.00,1.04
4967.00,1.04
4966.00,1.05
4965.00,1.05
4964.00,1.05
4963.00,1.05
4962.00,1.05
4961.00,1.05
4960.00,1.05
4959.00,1.05
4958.00,1.05
4957.00,1.05
4956.00,1.05
4955.00,1.05
4954.00,1.06
4953.00,1.06
4952.00,1.06
4951.00,1.06
4950.00,1.06
4949.00,1.06
4948.00,1.06
4947.00,1.06
4946.00,1.06
4945.00,1.07
4944.00,1.07
4943.00,1.07
4942.00,1.07
4941.00,1.07
4940.00,1.08
4939.00,1.08
4938.00,1.08
4937.00,1.08
4936.00,1.09
4935.00,1.09
4934.00,1.09
4933.00,1.10
4932.00,1.10
4931.00,1.10
4930.00,1.11
4929.00,1.11
4928.00,1.11
4927.00,1.12
4926.00,1.12
4925.00,1.12
4924.00,1.13
4923.00,1.13
4922.00,1.13
4921.00,1.14
4920.00,1.14
4919.00,1.14
4918.00,1.14
4917.00,1.14
4916.00,1.15
4915.00,1.15
4914.00,1.15
4913.00,1.15
4912.00,1.15
4911.00,1.16
4910.00,1.16
4909.00,1.16
4908.00,1.16
4907.00,1.16
4906.00,1.16
4905.00,1.16
4904.00,1.17
4903.00,1.17
4902.00,1.17
4901.00,1.17
4900.00,1.17
4899.00,1.17
4898.00,1.18
4897.00,1.18
4896.00,1.18
4895.00,1.18
4894.00,1.18
4893.00,1.19
4892.00,1.19
4891.00,1.19
4890.00,1.20
4889.00,1.20
4888.00,1.20
4887.00,1.21
4886.00,1.21
4885.00,1.21
4884.00,1.22
4883.00,1.22
4882.00,1.22
4881.00,1.22
4880.00,1.23
4879.00,1.23
4878.00,1.23
4877.00,1.24
4876.00,1.24
4875.00,1.24
4874.00,1.25
4873.00,1.25
4872.00,1.25
4871.00,1.25
4870.00,1.26
4869.00,1.26
4868.00,1.26
4867.00,1.27
4866.00,1.27
4865.00,1.27
4864.00,1.27
4863.00,1.28
4862.00,1.28
4861.00,1.28
4860.00,1.28
4859.00,1.29
4858.00,1.29
4857.00,1.29
4856.00,1.29
4855.00,1.30
4854.00,1.30
4853.00,1.30
4852.00,1.30
4851.00,1.31
4850.00,1.31
4849.00,1.31
4848.00,1.31
4847.00,1.31
4846.00,1.32
4845.00,1.32
4844.00,1.32
4843.00,1.32
4842.00,1.33
4841.00,1.33
4840.00,1.33
4839.00,1.33
4838.00,1.33
4837.00,1.34
4836.00,1.34
4835.00,1.34
4834.00,1.34
4833.00,1.34
4832.00,1.35
4831.00,1.35
4830.00,1.35
4829.00,1.35
4828.00,1.35
4827.00,1.36
4826.00,1.36
4825.00,1.36
4824.00,1.36
4823.00,1.37
4822.00,1.37
4821.00,1.37
4820.00,1.37
4819.00,1.38
4818.00,1.38
4817.00,1.38
4816.00,1.38
4815.00,1.38
4814.00,1.39
4813.00,1.39
4812.00,1.39
4811.00,1.39
4810.00,1.40
4809.00,1.40
4808.00,1.40
4807.00,1.41
4806.00,1.41
4805.00,1.41
4804.00,1.42
4803.00,1.42
4802.00,1.42
4801.00,1.43
4800.00,1.43
4799.00,1.43
4798.00,1.44
4797.00,1.44
4796.00,1.44
4795.00,1.45
4794.00,1.45
4793.00,1.46
4792.00,1.46
4791.00,1.46
4790.00,1.47
4789.00,1.47
4788.00,1.48
4787.00,1.48
4786.00,1.49
4785.00,1.49
4784.00,1.50
4783.00,1.50
4782.00,1.51
4781.00,1.51
4780.00,1.52
4779.00,1.52
4778.00,1.52
4777.00,1.53
4776.00,1.53
4775.00,1.54
4774.00,1.54
4773.00,1.54
4772.00,1.55
4771.00,1.55
4770.00,1.55
4769.00,1.56
4768.00,1.56
4767.00,1.57
4766.00,1.57
4765.00,1.57
4764.00,1.58
4763.00,1.58
4762.00,1.58
4761.00,1.59
4760.00,1.59
4759.00,1.59
4758.00,1.60
4757.00,1.60
4756.00,1.60
4755.00,1.60
4754.00,1.61
4753.00,1.61
4752.00,1.61
4751.00,1.61
4750.00,1.62
4749.00,1.62
4748.00,1.62
4747.00,1.63
4746.00,1.63
4745.00,1.63
4744.00,1.63
4743.00,1.64
4742.00,1.64
4741.00,1.64
4740.00,1.64
4739.00,1.65
4738.00,1.65
4737.00,1.65
4736.00,1.65
4735.00,1.65
4734.00,1.66
4733.00,1.66
4732.00,1.66
4731.00,1.66
4730.00,1.67
4729.00,1.67
4728.00,1.67
4727.00,1.67
4726.00,1.68
4725.00,1.68
4724.00,1.68
4723.00,1.68
4722.00,1.69
4721.00,1.69
4720.00,1.69
4719.00,1.70
4718.00,1.70
4717.00,1.70
4716.00,1.71
4715.00,1.71
4714.00,1.71
4713.00,1.72
4712.00,1.72
4711.00,1.72
4710.00,1.73
4709.00,1.73
4708.00,1.73
4707.00,1.74
4706.00,1.74
4705.00,1.74
4704.00,1.74
4703.00,1.75
4702.00,1.75
4701.00,1.75
4700.00,1.76
4699.00,1.76
4698.00,1.76
4697.00,1.77
4696.00,1.77
4695.00,1.77
4694.00,1.77
4693.00,1.78
4692.00,1.78
4691.00,1.78
4690.00,1.78
4689.00,1.78
4688.00,1.79
4687.00,1.79
4686.00,1.79
4685.00,1.79
4684.00,1.79
4683.00,1.80
4682.00,1.80
4681.00,1.80
4680.00,1.80
4679.00,1.80
4678.00,1.80
4677.00,1.80
4676.00,1.81
4675.00,1.81
4674.00,1.81
4673.00,1.81
4672.00,1.81
4671.00,1.82
4670.00,1.82
4669.00,1.82
4668.00,1.82
4667.00,1.82
4666.00,1.82
4665.00,1.83
4664.00,1.83
4663.00,1.83
4662.00,1.83
4661.00,1.83
4660.00,1.83
4659.00,1.84
4658.00,1.84
4657.00,1.84
4656.00,1.84
4655.00,1.85
4654.00,1.85
4653.00,1.85
4652.00,1.86
4651.00,1.86
4650.00,1.86
4649.00,1.86
4648.00,1.86
4647.00,1.87
4646.00,1.87
4645.00,1.87
4644.00,1.87
4643.00,1.87
4642.00,1.88
4641.00,1.88
4640.00,1.88
4639.00,1.88
4638.00,1.88
4637.00,1.88
4636.00,1.89
4635.00,1.89
4634.00,1.89
4633.00,1.89
4632.00,1.89
4631.00,1.90
4630.00,1.90
4629.00,1.90
4628.00,1.90
4627.00,1.90
4626.00,1.90
4625.00,1.91
4624.00,1.91
4623.00,1.91
4622.00,1.91
4621.00,1.92
4620.00,1.92
4619.00,1.92
4618.00,1.92
4617.00,1.93
4616.00,1.93
4615.00,1.93
4614.00,1.94
4613.00,1.94
4612.00,1.94
4611.00,1.95
4610.00,1.95
4609.00,1.95
4608.00,1.95
4607.00,1.95
4606.00,1.96
4605.00,1.96
4604.00,1.96
4603.00,1.96
4602.00,1.96
4601.00,1.96
4600.00,1.96
4599.00,1.96
4598.00,1.96
4597.00,1.96
4596.00,1.96
4595.00,1.96
4594.00,1.96
4593.00,1.96
4592.00,1.96
4591.00,1.95
4590.00,1.95
4589.00,1.95
4588.00,1.95
4587.00,1.95
4586.00,1.94
4585.00,1.94
4584.00,1.94
4583.00,1.94
4582.00,1.94
4581.00,1.94
4580.00,1.94
4579.00,1.94
4578.00,1.93
4577.00,1.93
4576.00,1.93
4575.00,1.93
4574.00,1.93
4573.00,1.93
4572.00,1.93
4571.00,1.93
4570.00,1.93
4569.00,1.93
4568.00,1.93
4567.00,1.94
4566.00,1.94
4565.00,1.94
4564.00,1.94
4563.00,1.94
4562.00,1.94
4561.00,1.95
4560.00,1.95
4559.00,1.95
4558.00,1.95
4557.00,1.95
4556.00,1.95
4555.00,1.95
4554.00,1.95
4553.00,1.95
4552.00,1.95
4551.00,1.95
4550.00,1.95
4549.00,1.95
4548.00,1.96
4547.00,1.96
4546.00,1.96
4545.00,1.96
4544.00,1.96
4543.00,1.96
4542.00,1.96
4541.00,1.96
4540.00,1.96
4539.00,1.96
4538.00,1.96
4537.00,1.96
4536.00,1.96
4535.00,1.96
4534.00,1.96
4533.00,1.96
4532.00,1.97
4531.00,1.97
4530.00,1.97
4529.00,1.97
4528.00,1.97
4527.00,1.97
4526.00,1.97
4525.00,1.97
4524.00,1.97
4523.00,1.97
4522.00,1.97
4521.00,1.97
4520.00,1.97
4519.00,1.97
4518.00,1.97
4517.00,1.97
4516.00,1.97
4515.00,1.97
4514.00,1.97
4513.00,1.97
4512.00,1.97
4511.00,1.97
4510.00,1.97
4509.00,1.97
4508.00,1.97
4507.00,1.97
4506.00,1.97
4505.00,1.97
4504.00,1.97
4503.00,1.97
4502.00,1.98
4501.00,1.98
4500.00,1.98
4499.00,1.98
4498.00,1.98
4497.00,1.98
4496.00,1.98
4495.00,1.98
4494.00,1.98
4493.00,1.98
4492.00,1.98
4491.00,1.98
4490.00,1.98
4489.00,1.98
4488.00,1.98
4487.00,1.98
4486.00,1.98
4485.00,1.98
4484.00,1.98
4483.00,1.98
4482.00,1.98
4481.00,1.97
4480.00,1.97
4479.00,1.97
4478.00,1.97
4477.00,1.97
4476.00,1.96
4475.00,1.96
4474.00,1.96
4473.00,1.96
4472.00,1.95
4471.00,1.95
4470.00,1.95
4469.00,1.95
4468.00,1.95
4467.00,1.95
4466.00,1.94
4465.00,1.94
4464.00,1.94
4463.00,1.94
4462.00,1.94
4461.00,1.94
4460.00,1.94
4459.00,1.93
4458.00,1.93
4457.00,1.93
4456.00,1.93
4455.00,1.92
4454.00,1.92
4453.00,1.92
4452.00,1.91
4451.00,1.91
4450.00,1.91
4449.00,1.90
4448.00,1.90
4447.00,1.89
4446.00,1.89
4445.00,1.88
4444.00,1.87
4443.00,1.87
4442.00,1.86
4441.00,1.85
4440.00,1.84
4439.00,1.83
4438.00,1.82
4437.00,1.81
4436.00,1.80
4435.00,1.79
4434.00,1.79
4433.00,1.78
4432.00,1.77
4431.00,1.76
4430.00,1.75
4429.00,1.74
4428.00,1.73
4427.00,1.72
4426.00,1.72
4425.00,1.71
4424.00,1.70
4423.00,1.70
4422.00,1.69
4421.00,1.68
4420.00,1.68
4419.00,1.68
4418.00,1.67
4417.00,1.67
4416.00,1.67
4415.00,1.67
4414.00,1.67
4413.00,1.67
4412.00,1.67
4411.00,1.67
4410.00,1.67
4409.00,1.67
4408.00,1.67
4407.00,1.68
4406.00,1.68
4405.00,1.68
4404.00,1.69
4403.00,1.69
4402.00,1.70
4401.00,1.70
4400.00,1.71
4399.00,1.71
4398.00,1.72
4397.00,1.72
4396.00,1.73
4395.00,1.73
4394.00,1.74
4393.00,1.74
4392.00,1.75
4391.00,1.75
4390.00,1.76
4389.00,1.76
4388.00,1.77
4387.00,1.78
4386.00,1.78
4385.00,1.79
4384.00,1.79
4383.00,1.80
4382.00,1.80
4381.00,1.80
4380.00,1.81
4379.00,1.81
4378.00,1.81
4377.00,1.81
4376.00,1.81
4375.00,1.82
4374.00,1.82
4373.00,1.82
4372.00,1.82
4371.00,1.82
4370.00,1.81
4369.00,1.81
4368.00,1.81
4367.00,1.81
4366.00,1.81
4365.00,1.80
4364.00,1.80
4363.00,1.80
4362.00,1.79
4361.00,1.79
4360.00,1.78
4359.00,1.77
4358.00,1.77
4357.00,1.76
4356.00,1.76
4355.00,1.75
4354.00,1.75
4353.00,1.75
4352.00,1.74
4351.00,1.74
4350.00,1.74
4349.00,1.74
4348.00,1.74
4347.00,1.74
4346.00,1.74
4345.00,1.74
4344.00,1.74
4343.00,1.74
4342.00,1.75
4341.00,1.75
4340.00,1.75
4339.00,1.76
4338.00,1.76
4337.00,1.77
4336.00,1.77
4335.00,1.78
4334.00,1.78
4333.00,1.79
4332.00,1.80
4331.00,1.80
4330.00,1.81
4329.00,1.81
4328.00,1.82
4327.00,1.83
4326.00,1.83
4325.00,1.84
4324.00,1.85
4323.00,1.85
4322.00,1.85
4321.00,1.86
4320.00,1.86
4319.00,1.87
4318.00,1.87
4317.00,1.87
4316.00,1.88
4315.00,1.88
4314.00,1.88
4313.00,1.88
4312.00,1.89
4311.00,1.89
4310.00,1.89
4309.00,1.89
4308.00,1.90
4307.00,1.90
4306.00,1.90
4305.00,1.90
4304.00,1.90
4303.00,1.91
4302.00,1.91
4301.00,1.91
4300.00,1.91
4299.00,1.91
4298.00,1.91
4297.00,1.91
4296.00,1.91
4295.00,1.91
4294.00,1.92
4293.00,1.92
4292.00,1.92
4291.00,1.92
4290.00,1.92
4289.00,1.92
4288.00,1.92
4287.00,1.92
4286.00,1.92
4285.00,1.93
4284.00,1.93
4283.00,1.93
4282.00,1.93
4281.00,1.93
4280.00,1.93
4279.00,1.92
4278.00,1.92
4277.00,1.92
4276.00,1.92
4275.00,1.92
4274.00,1.92
4273.00,1.92
4272.00,1.91
4271.00,1.91
4270.00,1.91
4269.00,1.91
4268.00,1.91
4267.00,1.90
4266.00,1.90
4265.00,1.90
4264.00,1.90
4263.00,1.90
4262.00,1.89
4261.00,1.89
4260.00,1.89
4259.00,1.89
4258.00,1.89
4257.00,1.89
4256.00,1.89
4255.00,1.89
4254.00,1.89
4253.00,1.89
4252.00,1.89
4251.00,1.89
4250.00,1.89
4249.00,1.89
4248.00,1.89
4247.00,1.90
4246.00,1.90
4245.00,1.90
4244.00,1.90
4243.00,1.90
4242.00,1.90
4241.00,1.90
4240.00,1.90
4239.00,1.90
4238.00,1.91
4237.00,1.91
4236.00,1.91
4235.00,1.91
4234.00,1.91
4233.00,1.91
4232.00,1.90
4231.00,1.90
4230.00,1.90
4229.00,1.90
4228.00,1.89
4227.00,1.89
4226.00,1.88
4225.00,1.88
4224.00,1.87
4223.00,1.87
4222.00,1.87
4221.00,1.86
4220.00,1.86
4219.00,1.85
4218.00,1.85
4217.00,1.85
4216.00,1.84
4215.00,1.84
4214.00,1.84
4213.00,1.84
4212.00,1.84
4211.00,1.83
4210.00,1.83
4209.00,1.83
4208.00,1.83
4207.00,1.83
4206.00,1.83
4205.00,1.83
4204.00,1.83
4203.00,1.83
4202.00,1.83
4201.00,1.83
4200.00,1.84
4199.00,1.84
4198.00,1.84
4197.00,1.84
4196.00,1.84
4195.00,1.85
4194.00,1.85
4193.00,1.85
4192.00,1.86
4191.00,1.86
4190.00,1.86
4189.00,1.86
4188.00,1.86
4187.00,1.86
4186.00,1.86
4185.00,1.86
4184.00,1.86
4183.00,1.85
4182.00,1.85
4181.00,1.85
4180.00,1.85
4179.00,1.85
4178.00,1.85
4177.00,1.85
4176.00,1.85
4175.00,1.85
4174.00,1.85
4173.00,1.85
4172.00,1.85
4171.00,1.85
4170.00,1.85
4169.00,1.84
4168.00,1.84
4167.00,1.84
4166.00,1.84
4165.00,1.83
4164.00,1.83
4163.00,1.83
4162.00,1.83
4161.00,1.84
4160.00,1.84
4159.00,1.84
4158.00,1.84
4157.00,1.85
4156.00,1.85
4155.00,1.85
4154.00,1.86
4153.00,1.86
4152.00,1.86
4151.00,1.86
4150.00,1.86
4149.00,1.86
4148.00,1.86
4147.00,1.85
4146.00,1.85
4145.00,1.85
4144.00,1.85
4143.00,1.85
4142.00,1.85
4141.00,1.85
4140.00,1.85
4139.00,1.84
4138.00,1.84
4137.00,1.84
4136.00,1.84
4135.00,1.84
4134.00,1.84
4133.00,1.84
4132.00,1.83
4131.00,1.83
4130.00,1.83
4129.00,1.83
4128.00,1.83
4127.00,1.82
4126.00,1.82
4125.00,1.82
4124.00,1.82
4123.00,1.82
4122.00,1.82
4121.00,1.82
4120.00,1.82
4119.00,1.82
4118.00,1.82
4117.00,1.82
4116.00,1.82
4115.00,1.82
4114.00,1.82
4113.00,1.82
4112.00,1.82
4111.00,1.82
4110.00,1.81
4109.00,1.81
4108.00,1.81
4107.00,1.81
4106.00,1.80
4105.00,1.80
4104.00,1.80
4103.00,1.80
4102.00,1.79
4101.00,1.79
4100.00,1.79
4099.00,1.79
4098.00,1.78
4097.00,1.78
4096.00,1.78
4095.00,1.78
4094.00,1.78
4093.00,1.78
4092.00,1.78
4091.00,1.78
4090.00,1.78
4089.00,1.77
4088.00,1.77
4087.00,1.77
4086.00,1.77
4085.00,1.77
4084.00,1.77
4083.00,1.77
4082.00,1.77
4081.00,1.77
4080.00,1.77
4079.00,1.77
4078.00,1.77
4077.00,1.77
4076.00,1.78
4075.00,1.78
4074.00,1.78
4073.00,1.78
4072.00,1.78
4071.00,1.78
4070.00,1.77
4069.00,1.77
4068.00,1.77
4067.00,1.76
4066.00,1.76
4065.00,1.76
4064.00,1.76
4063.00,1.75
4062.00,1.75
4061.00,1.75
4060.00,1.75
4059.00,1.76
4058.00,1.76
4057.00,1.76
4056.00,1.76
4055.00,1.76
4054.00,1.76
4053.00,1.77
4052.00,1.77
4051.00,1.77
4050.00,1.77
4049.00,1.77
4048.00,1.78
4047.00,1.78
4046.00,1.78
4045.00,1.79
4044.00,1.79
4043.00,1.80
4042.00,1.81
4041.00,1.82
4040.00,1.83
4039.00,1.84
4038.00,1.84
4037.00,1.85
4036.00,1.86
4035.00,1.86
4034.00,1.87
4033.00,1.87
4032.00,1.88
4031.00,1.88
4030.00,1.89
4029.00,1.89
4028.00,1.90
4027.00,1.90
4026.00,1.90
4025.00,1.91
4024.00,1.91
4023.00,1.92
4022.00,1.93
4021.00,1.93
4020.00,1.94
4019.00,1.94
4018.00,1.95
4017.00,1.95
4016.00,1.95
4015.00,1.96
4014.00,1.96
4013.00,1.96
4012.00,1.97
4011.00,1.98
4010.00,1.98
4009.00,1.99
4008.00,2.00
4007.00,2.00
4006.00,2.01
4005.00,2.02
4004.00,2.02
4003.00,2.03
4002.00,2.04
4001.00,2.04
4000.00,2.05
