创建为新数据集,样品 278 用户 Administrator 日期 星期六, 七月 27 2019
cm-1,%T
10000.00,2.07
9999.00,2.07
9998.00,2.07
9997.00,2.07
9996.00,2.07
9995.00,2.07
9994.00,2.07
9993.00,2.06
9992.00,2.06
9991.00,2.05
9990.00,2.05
9989.00,2.04
9988.00,2.03
9987.00,2.02
9986.00,2.01
9985.00,2.00
9984.00,1.98
9983.00,1.97
9982.00,1.95
9981.00,1.94
9980.00,1.92
9979.00,1.91
9978.00,1.89
9977.00,1.88
9976.00,1.86
9975.00,1.85
9974.00,1.83
9973.00,1.82
9972.00,1.80
9971.00,1.79
9970.00,1.78
9969.00,1.77
9968.00,1.76
9967.00,1.75
9966.00,1.74
9965.00,1.73
9964.00,1.72
9963.00,1.71
9962.00,1.71
9961.00,1.70
9960.00,1.70
9959.00,1.69
9958.00,1.69
9957.00,1.69
9956.00,1.69
9955.00,1.68
9954.00,1.68
9953.00,1.68
9952.00,1.68
9951.00,1.68
9950.00,1.68
9949.00,1.68
9948.00,1.68
9947.00,1.67
9946.00,1.67
9945.00,1.67
9944.00,1.67
9943.00,1.67
9942.00,1.67
9941.00,1.67
9940.00,1.67
9939.00,1.67
9938.00,1.67
9937.00,1.66
9936.00,1.66
9935.00,1.66
9934.00,1.66
9933.00,1.66
9932.00,1.66
9931.00,1.66
9930.00,1.66
9929.00,1.66
9928.00,1.66
9927.00,1.66
9926.00,1.65
9925.00,1.65
9924.00,1.65
9923.00,1.64
9922.00,1.64
9921.00,1.64
9920.00,1.63
9919.00,1.63
9918.00,1.62
9917.00,1.62
9916.00,1.61
9915.00,1.61
9914.00,1.60
9913.00,1.60
9912.00,1.59
9911.00,1.58
9910.00,1.57
9909.00,1.57
9908.00,1.56
9907.00,1.55
9906.00,1.55
9905.00,1.54
9904.00,1.53
9903.00,1.53
9902.00,1.52
9901.00,1.52
9900.00,1.51
9899.00,1.51
9898.00,1.51
9897.00,1.50
9896.00,1.50
9895.00,1.50
9894.00,1.50
9893.00,1.49
9892.00,1.49
9891.00,1.49
9890.00,1.49
9889.00,1.48
9888.00,1.48
9887.00,1.48
9886.00,1.48
9885.00,1.48
9884.00,1.48
9883.00,1.49
9882.00,1.49
9881.00,1.49
9880.00,1.49
9879.00,1.50
9878.00,1.50
9877.00,1.50
9876.00,1.51
9875.00,1.51
9874.00,1.51
9873.00,1.51
9872.00,1.52
9871.00,1.52
9870.00,1.52
9869.00,1.53
9868.00,1.53
9867.00,1.53
9866.00,1.54
9865.00,1.54
9864.00,1.55
9863.00,1.55
9862.00,1.56
9861.00,1.56
9860.00,1.57
9859.00,1.57
9858.00,1.57
9857.00,1.58
9856.00,1.58
9855.00,1.58
9854.00,1.58
9853.00,1.58
9852.00,1.58
9851.00,1.58
9850.00,1.58
9849.00,1.58
9848.00,1.58
9847.00,1.58
9846.00,1.58
9845.00,1.58
9844.00,1.59
9843.00,1.59
9842.00,1.59
9841.00,1.58
9840.00,1.58
9839.00,1.58
9838.00,1.58
9837.00,1.57
9836.00,1.57
9835.00,1.57
9834.00,1.56
9833.00,1.56
9832.00,1.55
9831.00,1.55
9830.00,1.55
9829.00,1.54
9828.00,1.54
9827.00,1.54
9826.00,1.54
9825.00,1.53
9824.00,1.53
9823.00,1.53
9822.00,1.53
9821.00,1.53
9820.00,1.53
9819.00,1.53
9818.00,1.53
9817.00,1.53
9816.00,1.53
9815.00,1.53
9814.00,1.53
9813.00,1.53
9812.00,1.54
9811.00,1.54
9810.00,1.55
9809.00,1.56
9808.00,1.57
9807.00,1.58
9806.00,1.59
9805.00,1.60
9804.00,1.61
9803.00,1.61
9802.00,1.62
9801.00,1.63
9800.00,1.64
9799.00,1.65
9798.00,1.66
9797.00,1.66
9796.00,1.67
9795.00,1.68
9794.00,1.68
9793.00,1.69
9792.00,1.69
9791.00,1.70
9790.00,1.70
9789.00,1.70
9788.00,1.70
9787.00,1.70
9786.00,1.69
9785.00,1.69
9784.00,1.68
9783.00,1.68
9782.00,1.67
9781.00,1.66
9780.00,1.65
9779.00,1.64
9778.00,1.63
9777.00,1.62
9776.00,1.61
9775.00,1.60
9774.00,1.59
9773.00,1.58
9772.00,1.57
9771.00,1.56
9770.00,1.55
9769.00,1.54
9768.00,1.53
9767.00,1.52
9766.00,1.51
9765.00,1.50
9764.00,1.49
9763.00,1.48
9762.00,1.47
9761.00,1.47
9760.00,1.46
9759.00,1.46
9758.00,1.46
9757.00,1.45
9756.00,1.45
9755.00,1.45
9754.00,1.45
9753.00,1.44
9752.00,1.44
9751.00,1.44
9750.00,1.44
9749.00,1.43
9748.00,1.43
9747.00,1.43
9746.00,1.43
9745.00,1.43
9744.00,1.43
9743.00,1.43
9742.00,1.43
9741.00,1.43
9740.00,1.43
9739.00,1.44
9738.00,1.44
9737.00,1.44
9736.00,1.44
9735.00,1.44
9734.00,1.44
9733.00,1.44
9732.00,1.44
9731.00,1.44
9730.00,1.44
9729.00,1.43
9728.00,1.43
9727.00,1.43
9726.00,1.43
9725.00,1.43
9724.00,1.42
9723.00,1.42
9722.00,1.42
9721.00,1.42
9720.00,1.42
9719.00,1.42
9718.00,1.42
9717.00,1.42
9716.00,1.41
9715.00,1.41
9714.00,1.41
9713.00,1.40
9712.00,1.40
9711.00,1.40
9710.00,1.39
9709.00,1.39
9708.00,1.39
9707.00,1.39
9706.00,1.39
9705.00,1.39
9704.00,1.39
9703.00,1.39
9702.00,1.39
9701.00,1.39
9700.00,1.40
9699.00,1.40
9698.00,1.40
9697.00,1.40
9696.00,1.40
9695.00,1.40
9694.00,1.40
9693.00,1.40
9692.00,1.40
9691.00,1.41
9690.00,1.41
9689.00,1.41
9688.00,1.42
9687.00,1.42
9686.00,1.42
9685.00,1.43
9684.00,1.43
9683.00,1.43
9682.00,1.43
9681.00,1.44
9680.00,1.44
9679.00,1.44
9678.00,1.44
9677.00,1.44
9676.00,1.44
9675.00,1.44
9674.00,1.45
9673.00,1.45
9672.00,1.45
9671.00,1.45
9670.00,1.46
9669.00,1.46
9668.00,1.46
9667.00,1.47
9666.00,1.48
9665.00,1.48
9664.00,1.49
9663.00,1.49
9662.00,1.50
9661.00,1.50
9660.00,1.51
9659.00,1.52
9658.00,1.52
9657.00,1.53
9656.00,1.54
9655.00,1.54
9654.00,1.55
9653.00,1.55
9652.00,1.56
9651.00,1.56
9650.00,1.56
9649.00,1.57
9648.00,1.57
9647.00,1.58
9646.00,1.58
9645.00,1.58
9644.00,1.59
9643.00,1.59
9642.00,1.59
9641.00,1.59
9640.00,1.59
9639.00,1.58
9638.00,1.58
9637.00,1.57
9636.00,1.56
9635.00,1.56
9634.00,1.55
9633.00,1.54
9632.00,1.53
9631.00,1.52
9630.00,1.52
9629.00,1.51
9628.00,1.50
9627.00,1.50
9626.00,1.49
9625.00,1.49
9624.00,1.48
9623.00,1.48
9622.00,1.48
9621.00,1.47
9620.00,1.47
9619.00,1.46
9618.00,1.46
9617.00,1.46
9616.00,1.45
9615.00,1.45
9614.00,1.45
9613.00,1.45
9612.00,1.45
9611.00,1.46
9610.00,1.46
9609.00,1.47
9608.00,1.47
9607.00,1.48
9606.00,1.48
9605.00,1.49
9604.00,1.49
9603.00,1.49
9602.00,1.50
9601.00,1.50
9600.00,1.50
9599.00,1.50
9598.00,1.50
9597.00,1.51
9596.00,1.51
9595.00,1.51
9594.00,1.50
9593.00,1.50
9592.00,1.50
9591.00,1.50
9590.00,1.50
9589.00,1.50
9588.00,1.49
9587.00,1.49
9586.00,1.48
9585.00,1.48
9584.00,1.47
9583.00,1.47
9582.00,1.46
9581.00,1.45
9580.00,1.45
9579.00,1.44
9578.00,1.44
9577.00,1.43
9576.00,1.43
9575.00,1.42
9574.00,1.42
9573.00,1.42
9572.00,1.42
9571.00,1.42
9570.00,1.41
9569.00,1.41
9568.00,1.41
9567.00,1.41
9566.00,1.41
9565.00,1.41
9564.00,1.41
9563.00,1.41
9562.00,1.41
9561.00,1.41
9560.00,1.42
9559.00,1.42
9558.00,1.42
9557.00,1.43
9556.00,1.43
9555.00,1.43
9554.00,1.44
9553.00,1.44
9552.00,1.44
9551.00,1.45
9550.00,1.45
9549.00,1.45
9548.00,1.45
9547.00,1.45
9546.00,1.45
9545.00,1.45
9544.00,1.45
9543.00,1.45
9542.00,1.45
9541.00,1.45
9540.00,1.45
9539.00,1.45
9538.00,1.45
9537.00,1.45
9536.00,1.45
9535.00,1.45
9534.00,1.45
9533.00,1.45
9532.00,1.45
9531.00,1.45
9530.00,1.45
9529.00,1.45
9528.00,1.45
9527.00,1.45
9526.00,1.45
9525.00,1.45
9524.00,1.45
9523.00,1.45
9522.00,1.46
9521.00,1.46
9520.00,1.46
9519.00,1.47
9518.00,1.47
9517.00,1.48
9516.00,1.48
9515.00,1.49
9514.00,1.49
9513.00,1.50
9512.00,1.50
9511.00,1.51
9510.00,1.51
9509.00,1.52
9508.00,1.52
9507.00,1.53
9506.00,1.53
9505.00,1.54
9504.00,1.54
9503.00,1.54
9502.00,1.54
9501.00,1.55
9500.00,1.55
9499.00,1.55
9498.00,1.54
9497.00,1.54
9496.00,1.54
9495.00,1.53
9494.00,1.53
9493.00,1.52
9492.00,1.52
9491.00,1.51
9490.00,1.51
9489.00,1.50
9488.00,1.49
9487.00,1.49
9486.00,1.48
9485.00,1.48
9484.00,1.47
9483.00,1.46
9482.00,1.46
9481.00,1.45
9480.00,1.44
9479.00,1.43
9478.00,1.42
9477.00,1.42
9476.00,1.41
9475.00,1.40
9474.00,1.40
9473.00,1.39
9472.00,1.38
9471.00,1.38
9470.00,1.38
9469.00,1.38
9468.00,1.38
9467.00,1.38
9466.00,1.38
9465.00,1.38
9464.00,1.38
9463.00,1.39
9462.00,1.39
9461.00,1.39
9460.00,1.40
9459.00,1.40
9458.00,1.41
9457.00,1.41
9456.00,1.41
9455.00,1.42
9454.00,1.42
9453.00,1.43
9452.00,1.44
9451.00,1.45
9450.00,1.45
9449.00,1.46
9448.00,1.48
9447.00,1.49
9446.00,1.50
9445.00,1.51
9444.00,1.52
9443.00,1.53
9442.00,1.54
9441.00,1.55
9440.00,1.56
9439.00,1.56
9438.00,1.57
9437.00,1.58
9436.00,1.59
9435.00,1.59
9434.00,1.60
9433.00,1.61
9432.00,1.61
9431.00,1.62
9430.00,1.63
9429.00,1.63
9428.00,1.64
9427.00,1.65
9426.00,1.65
9425.00,1.66
9424.00,1.66
9423.00,1.66
9422.00,1.67
9421.00,1.67
9420.00,1.67
9419.00,1.67
9418.00,1.67
9417.00,1.66
9416.00,1.66
9415.00,1.66
9414.00,1.65
9413.00,1.65
9412.00,1.64
9411.00,1.64
9410.00,1.63
9409.00,1.62
9408.00,1.62
9407.00,1.61
9406.00,1.60
9405.00,1.59
9404.00,1.59
9403.00,1.58
9402.00,1.57
9401.00,1.57
9400.00,1.56
9399.00,1.55
9398.00,1.55
9397.00,1.54
9396.00,1.54
9395.00,1.53
9394.00,1.53
9393.00,1.52
9392.00,1.52
9391.00,1.52
9390.00,1.52
9389.00,1.52
9388.00,1.52
9387.00,1.52
9386.00,1.52
9385.00,1.52
9384.00,1.53
9383.00,1.53
9382.00,1.54
9381.00,1.54
9380.00,1.55
9379.00,1.55
9378.00,1.56
9377.00,1.56
9376.00,1.57
9375.00,1.57
9374.00,1.57
9373.00,1.58
9372.00,1.58
9371.00,1.58
9370.00,1.58
9369.00,1.59
9368.00,1.59
9367.00,1.59
9366.00,1.59
9365.00,1.59
9364.00,1.60
9363.00,1.60
9362.00,1.60
9361.00,1.60
9360.00,1.60
9359.00,1.60
9358.00,1.61
9357.00,1.61
9356.00,1.60
9355.00,1.60
9354.00,1.60
9353.00,1.60
9352.00,1.60
9351.00,1.60
9350.00,1.59
9349.00,1.59
9348.00,1.58
9347.00,1.58
9346.00,1.58
9345.00,1.57
9344.00,1.57
9343.00,1.56
9342.00,1.55
9341.00,1.55
9340.00,1.54
9339.00,1.53
9338.00,1.52
9337.00,1.52
9336.00,1.51
9335.00,1.50
9334.00,1.49
9333.00,1.48
9332.00,1.47
9331.00,1.46
9330.00,1.45
9329.00,1.44
9328.00,1.43
9327.00,1.42
9326.00,1.42
9325.00,1.41
9324.00,1.41
9323.00,1.40
9322.00,1.40
9321.00,1.40
9320.00,1.40
9319.00,1.40
9318.00,1.40
9317.00,1.40
9316.00,1.40
9315.00,1.40
9314.00,1.40
9313.00,1.40
9312.00,1.41
9311.00,1.41
9310.00,1.41
9309.00,1.42
9308.00,1.43
9307.00,1.43
9306.00,1.44
9305.00,1.45
9304.00,1.45
9303.00,1.46
9302.00,1.46
9301.00,1.46
9300.00,1.47
9299.00,1.47
9298.00,1.47
9297.00,1.47
9296.00,1.47
9295.00,1.48
9294.00,1.48
9293.00,1.48
9292.00,1.48
9291.00,1.48
9290.00,1.48
9289.00,1.48
9288.00,1.48
9287.00,1.48
9286.00,1.48
9285.00,1.49
9284.00,1.49
9283.00,1.49
9282.00,1.49
9281.00,1.48
9280.00,1.48
9279.00,1.48
9278.00,1.48
9277.00,1.48
9276.00,1.48
9275.00,1.48
9274.00,1.48
9273.00,1.48
9272.00,1.48
9271.00,1.49
9270.00,1.49
9269.00,1.49
9268.00,1.49
9267.00,1.49
9266.00,1.49
9265.00,1.49
9264.00,1.49
9263.00,1.49
9262.00,1.49
9261.00,1.49
9260.00,1.49
9259.00,1.49
9258.00,1.49
9257.00,1.49
9256.00,1.49
9255.00,1.49
9254.00,1.49
9253.00,1.49
9252.00,1.49
9251.00,1.49
9250.00,1.49
9249.00,1.49
9248.00,1.49
9247.00,1.49
9246.00,1.49
9245.00,1.49
9244.00,1.49
9243.00,1.50
9242.00,1.50
9241.00,1.50
9240.00,1.50
9239.00,1.50
9238.00,1.50
9237.00,1.50
9236.00,1.50
9235.00,1.50
9234.00,1.50
9233.00,1.50
9232.00,1.50
9231.00,1.51
9230.00,1.51
9229.00,1.51
9228.00,1.51
9227.00,1.50
9226.00,1.50
9225.00,1.50
9224.00,1.50
9223.00,1.50
9222.00,1.50
9221.00,1.50
9220.00,1.50
9219.00,1.50
9218.00,1.50
9217.00,1.50
9216.00,1.50
9215.00,1.50
9214.00,1.50
9213.00,1.50
9212.00,1.50
9211.00,1.51
9210.00,1.51
9209.00,1.51
9208.00,1.51
9207.00,1.51
9206.00,1.51
9205.00,1.52
9204.00,1.52
9203.00,1.52
9202.00,1.53
9201.00,1.53
9200.00,1.53
9199.00,1.53
9198.00,1.54
9197.00,1.54
9196.00,1.54
9195.00,1.54
9194.00,1.54
9193.00,1.54
9192.00,1.54
9191.00,1.54
9190.00,1.54
9189.00,1.54
9188.00,1.53
9187.00,1.53
9186.00,1.53
9185.00,1.53
9184.00,1.53
9183.00,1.53
9182.00,1.52
9181.00,1.52
9180.00,1.52
9179.00,1.52
9178.00,1.52
9177.00,1.52
9176.00,1.52
9175.00,1.52
9174.00,1.52
9173.00,1.52
9172.00,1.52
9171.00,1.52
9170.00,1.52
9169.00,1.52
9168.00,1.53
9167.00,1.53
9166.00,1.53
9165.00,1.53
9164.00,1.53
9163.00,1.53
9162.00,1.53
9161.00,1.54
9160.00,1.54
9159.00,1.54
9158.00,1.54
9157.00,1.54
9156.00,1.55
9155.00,1.55
9154.00,1.55
9153.00,1.55
9152.00,1.55
9151.00,1.55
9150.00,1.55
9149.00,1.55
9148.00,1.55
9147.00,1.55
9146.00,1.55
9145.00,1.55
9144.00,1.54
9143.00,1.54
9142.00,1.54
9141.00,1.53
9140.00,1.53
9139.00,1.53
9138.00,1.53
9137.00,1.52
9136.00,1.52
9135.00,1.52
9134.00,1.52
9133.00,1.51
9132.00,1.51
9131.00,1.51
9130.00,1.50
9129.00,1.50
9128.00,1.49
9127.00,1.48
9126.00,1.48
9125.00,1.47
9124.00,1.47
9123.00,1.46
9122.00,1.46
9121.00,1.46
9120.00,1.46
9119.00,1.45
9118.00,1.45
9117.00,1.45
9116.00,1.45
9115.00,1.45
9114.00,1.45
9113.00,1.45
9112.00,1.45
9111.00,1.45
9110.00,1.45
9109.00,1.45
9108.00,1.45
9107.00,1.45
9106.00,1.46
9105.00,1.46
9104.00,1.46
9103.00,1.47
9102.00,1.47
9101.00,1.48
9100.00,1.48
9099.00,1.49
9098.00,1.49
9097.00,1.50
9096.00,1.50
9095.00,1.51
9094.00,1.51
9093.00,1.51
9092.00,1.52
9091.00,1.52
9090.00,1.52
9089.00,1.52
9088.00,1.52
9087.00,1.53
9086.00,1.53
9085.00,1.53
9084.00,1.53
9083.00,1.53
9082.00,1.53
9081.00,1.53
9080.00,1.53
9079.00,1.53
9078.00,1.53
9077.00,1.52
9076.00,1.52
9075.00,1.52
9074.00,1.52
9073.00,1.52
9072.00,1.52
9071.00,1.52
9070.00,1.51
9069.00,1.51
9068.00,1.51
9067.00,1.51
9066.00,1.51
9065.00,1.51
9064.00,1.52
9063.00,1.52
9062.00,1.52
9061.00,1.52
9060.00,1.52
9059.00,1.52
9058.00,1.52
9057.00,1.52
9056.00,1.53
9055.00,1.53
9054.00,1.53
9053.00,1.53
9052.00,1.53
9051.00,1.53
9050.00,1.53
9049.00,1.54
9048.00,1.54
9047.00,1.54
9046.00,1.54
9045.00,1.54
9044.00,1.54
9043.00,1.54
9042.00,1.54
9041.00,1.54
9040.00,1.53
9039.00,1.53
9038.00,1.53
9037.00,1.53
9036.00,1.52
9035.00,1.52
9034.00,1.52
9033.00,1.52
9032.00,1.51
9031.00,1.51
9030.00,1.51
9029.00,1.51
9028.00,1.50
9027.00,1.50
9026.00,1.50
9025.00,1.50
9024.00,1.49
9023.00,1.49
9022.00,1.49
9021.00,1.49
9020.00,1.49
9019.00,1.49
9018.00,1.49
9017.00,1.49
9016.00,1.49
9015.00,1.49
9014.00,1.49
9013.00,1.49
9012.00,1.49
9011.00,1.50
9010.00,1.50
9009.00,1.50
9008.00,1.50
9007.00,1.50
9006.00,1.50
9005.00,1.50
9004.00,1.50
9003.00,1.50
9002.00,1.50
9001.00,1.51
9000.00,1.51
8999.00,1.51
8998.00,1.50
8997.00,1.50
8996.00,1.50
8995.00,1.50
8994.00,1.49
8993.00,1.49
8992.00,1.48
8991.00,1.48
8990.00,1.47
8989.00,1.47
8988.00,1.46
8987.00,1.46
8986.00,1.45
8985.00,1.45
8984.00,1.45
8983.00,1.45
8982.00,1.44
8981.00,1.44
8980.00,1.44
8979.00,1.44
8978.00,1.44
8977.00,1.44
8976.00,1.44
8975.00,1.44
8974.00,1.44
8973.00,1.44
8972.00,1.44
8971.00,1.44
8970.00,1.44
8969.00,1.44
8968.00,1.44
8967.00,1.44
8966.00,1.45
8965.00,1.45
8964.00,1.45
8963.00,1.45
8962.00,1.46
8961.00,1.46
8960.00,1.46
8959.00,1.46
8958.00,1.46
8957.00,1.46
8956.00,1.46
8955.00,1.46
8954.00,1.46
8953.00,1.45
8952.00,1.45
8951.00,1.45
8950.00,1.45
8949.00,1.45
8948.00,1.45
8947.00,1.45
8946.00,1.45
8945.00,1.45
8944.00,1.45
8943.00,1.45
8942.00,1.45
8941.00,1.45
8940.00,1.45
8939.00,1.45
8938.00,1.45
8937.00,1.45
8936.00,1.45
8935.00,1.46
8934.00,1.46
8933.00,1.47
8932.00,1.47
8931.00,1.48
8930.00,1.48
8929.00,1.49
8928.00,1.50
8927.00,1.51
8926.00,1.52
8925.00,1.52
8924.00,1.53
8923.00,1.54
8922.00,1.54
8921.00,1.55
8920.00,1.56
8919.00,1.56
8918.00,1.57
8917.00,1.57
8916.00,1.58
8915.00,1.58
8914.00,1.59
8913.00,1.59
8912.00,1.60
8911.00,1.60
8910.00,1.60
8909.00,1.61
8908.00,1.61
8907.00,1.61
8906.00,1.62
8905.00,1.62
8904.00,1.62
8903.00,1.62
8902.00,1.62
8901.00,1.63
8900.00,1.63
8899.00,1.63
8898.00,1.63
8897.00,1.63
8896.00,1.63
8895.00,1.63
8894.00,1.64
8893.00,1.64
8892.00,1.64
8891.00,1.64
8890.00,1.64
8889.00,1.64
8888.00,1.65
8887.00,1.65
8886.00,1.65
8885.00,1.65
8884.00,1.65
8883.00,1.65
8882.00,1.65
8881.00,1.65
8880.00,1.65
8879.00,1.65
8878.00,1.64
8877.00,1.64
8876.00,1.64
8875.00,1.64
8874.00,1.63
8873.00,1.63
8872.00,1.63
8871.00,1.62
8870.00,1.62
8869.00,1.62
8868.00,1.62
8867.00,1.61
8866.00,1.61
8865.00,1.61
8864.00,1.61
8863.00,1.61
8862.00,1.61
8861.00,1.61
8860.00,1.60
8859.00,1.60
8858.00,1.60
8857.00,1.60
8856.00,1.60
8855.00,1.60
8854.00,1.60
8853.00,1.60
8852.00,1.60
8851.00,1.60
8850.00,1.60
8849.00,1.60
8848.00,1.61
8847.00,1.61
8846.00,1.61
8845.00,1.61
8844.00,1.61
8843.00,1.61
8842.00,1.61
8841.00,1.60
8840.00,1.60
8839.00,1.60
8838.00,1.60
8837.00,1.60
8836.00,1.60
8835.00,1.60
8834.00,1.59
8833.00,1.59
8832.00,1.59
8831.00,1.58
8830.00,1.58
8829.00,1.58
8828.00,1.57
8827.00,1.57
8826.00,1.57
8825.00,1.56
8824.00,1.56
8823.00,1.56
8822.00,1.56
8821.00,1.55
8820.00,1.55
8819.00,1.55
8818.00,1.54
8817.00,1.54
8816.00,1.54
8815.00,1.53
8814.00,1.53
8813.00,1.53
8812.00,1.53
8811.00,1.53
8810.00,1.52
8809.00,1.52
8808.00,1.52
8807.00,1.52
8806.00,1.52
8805.00,1.52
8804.00,1.52
8803.00,1.52
8802.00,1.52
8801.00,1.51
8800.00,1.51
8799.00,1.51
8798.00,1.51
8797.00,1.51
8796.00,1.51
8795.00,1.50
8794.00,1.50
8793.00,1.50
8792.00,1.50
8791.00,1.50
8790.00,1.50
8789.00,1.50
8788.00,1.50
8787.00,1.50
8786.00,1.50
8785.00,1.50
8784.00,1.49
8783.00,1.49
8782.00,1.49
8781.00,1.49
8780.00,1.49
8779.00,1.49
8778.00,1.49
8777.00,1.49
8776.00,1.49
8775.00,1.49
8774.00,1.49
8773.00,1.49
8772.00,1.49
8771.00,1.49
8770.00,1.49
8769.00,1.49
8768.00,1.49
8767.00,1.49
8766.00,1.49
8765.00,1.49
8764.00,1.49
8763.00,1.49
8762.00,1.49
8761.00,1.48
8760.00,1.48
8759.00,1.48
8758.00,1.48
8757.00,1.48
8756.00,1.48
8755.00,1.48
8754.00,1.48
8753.00,1.48
8752.00,1.48
8751.00,1.49
8750.00,1.49
8749.00,1.49
8748.00,1.49
8747.00,1.49
8746.00,1.49
8745.00,1.49
8744.00,1.49
8743.00,1.49
8742.00,1.49
8741.00,1.49
8740.00,1.49
8739.00,1.49
8738.00,1.50
8737.00,1.50
8736.00,1.50
8735.00,1.50
8734.00,1.50
8733.00,1.50
8732.00,1.50
8731.00,1.50
8730.00,1.50
8729.00,1.50
8728.00,1.50
8727.00,1.50
8726.00,1.50
8725.00,1.50
8724.00,1.50
8723.00,1.50
8722.00,1.50
8721.00,1.50
8720.00,1.50
8719.00,1.50
8718.00,1.50
8717.00,1.50
8716.00,1.51
8715.00,1.51
8714.00,1.51
8713.00,1.52
8712.00,1.52
8711.00,1.53
8710.00,1.53
8709.00,1.54
8708.00,1.54
8707.00,1.55
8706.00,1.55
8705.00,1.56
8704.00,1.56
8703.00,1.57
8702.00,1.57
8701.00,1.57
8700.00,1.58
8699.00,1.58
8698.00,1.58
8697.00,1.59
8696.00,1.59
8695.00,1.59
8694.00,1.59
8693.00,1.59
8692.00,1.59
8691.00,1.58
8690.00,1.58
8689.00,1.58
8688.00,1.57
8687.00,1.57
8686.00,1.56
8685.00,1.56
8684.00,1.55
8683.00,1.55
8682.00,1.54
8681.00,1.54
8680.00,1.54
8679.00,1.53
8678.00,1.53
8677.00,1.52
8676.00,1.52
8675.00,1.52
8674.00,1.51
8673.00,1.51
8672.00,1.51
8671.00,1.50
8670.00,1.50
8669.00,1.50
8668.00,1.50
8667.00,1.50
8666.00,1.50
8665.00,1.50
8664.00,1.50
8663.00,1.50
8662.00,1.50
8661.00,1.51
8660.00,1.51
8659.00,1.51
8658.00,1.51
8657.00,1.51
8656.00,1.51
8655.00,1.51
8654.00,1.51
8653.00,1.51
8652.00,1.51
8651.00,1.51
8650.00,1.51
8649.00,1.52
8648.00,1.52
8647.00,1.52
8646.00,1.52
8645.00,1.52
8644.00,1.52
8643.00,1.52
8642.00,1.53
8641.00,1.53
8640.00,1.53
8639.00,1.53
8638.00,1.53
8637.00,1.53
8636.00,1.53
8635.00,1.53
8634.00,1.54
8633.00,1.54
8632.00,1.54
8631.00,1.54
8630.00,1.54
8629.00,1.54
8628.00,1.54
8627.00,1.54
8626.00,1.55
8625.00,1.55
8624.00,1.55
8623.00,1.55
8622.00,1.55
8621.00,1.56
8620.00,1.56
8619.00,1.56
8618.00,1.56
8617.00,1.56
8616.00,1.57
8615.00,1.57
8614.00,1.57
8613.00,1.57
8612.00,1.57
8611.00,1.57
8610.00,1.57
8609.00,1.58
8608.00,1.58
8607.00,1.58
8606.00,1.58
8605.00,1.58
8604.00,1.59
8603.00,1.59
8602.00,1.59
8601.00,1.59
8600.00,1.59
8599.00,1.59
8598.00,1.59
8597.00,1.59
8596.00,1.59
8595.00,1.59
8594.00,1.59
8593.00,1.59
8592.00,1.59
8591.00,1.58
8590.00,1.58
8589.00,1.58
8588.00,1.58
8587.00,1.58
8586.00,1.58
8585.00,1.58
8584.00,1.58
8583.00,1.58
8582.00,1.58
8581.00,1.58
8580.00,1.58
8579.00,1.58
8578.00,1.58
8577.00,1.58
8576.00,1.58
8575.00,1.58
8574.00,1.58
8573.00,1.58
8572.00,1.59
8571.00,1.59
8570.00,1.59
8569.00,1.59
8568.00,1.60
8567.00,1.60
8566.00,1.60
8565.00,1.61
8564.00,1.61
8563.00,1.61
8562.00,1.61
8561.00,1.61
8560.00,1.62
8559.00,1.62
8558.00,1.62
8557.00,1.62
8556.00,1.62
8555.00,1.62
8554.00,1.61
8553.00,1.61
8552.00,1.61
8551.00,1.61
8550.00,1.60
8549.00,1.60
8548.00,1.60
8547.00,1.59
8546.00,1.59
8545.00,1.58
8544.00,1.57
8543.00,1.57
8542.00,1.56
8541.00,1.55
8540.00,1.55
8539.00,1.54
8538.00,1.53
8537.00,1.53
8536.00,1.52
8535.00,1.52
8534.00,1.51
8533.00,1.51
8532.00,1.50
8531.00,1.50
8530.00,1.50
8529.00,1.50
8528.00,1.49
8527.00,1.49
8526.00,1.49
8525.00,1.49
8524.00,1.49
8523.00,1.50
8522.00,1.50
8521.00,1.50
8520.00,1.51
8519.00,1.52
8518.00,1.52
8517.00,1.53
8516.00,1.54
8515.00,1.55
8514.00,1.55
8513.00,1.56
8512.00,1.57
8511.00,1.58
8510.00,1.58
8509.00,1.59
8508.00,1.60
8507.00,1.60
8506.00,1.61
8505.00,1.61
8504.00,1.62
8503.00,1.62
8502.00,1.63
8501.00,1.63
8500.00,1.64
8499.00,1.64
8498.00,1.64
8497.00,1.64
8496.00,1.64
8495.00,1.64
8494.00,1.65
8493.00,1.65
8492.00,1.65
8491.00,1.64
8490.00,1.64
8489.00,1.64
8488.00,1.64
8487.00,1.64
8486.00,1.64
8485.00,1.64
8484.00,1.63
8483.00,1.63
8482.00,1.63
8481.00,1.63
8480.00,1.62
8479.00,1.62
8478.00,1.62
8477.00,1.61
8476.00,1.61
8475.00,1.61
8474.00,1.60
8473.00,1.60
8472.00,1.60
8471.00,1.59
8470.00,1.59
8469.00,1.59
8468.00,1.58
8467.00,1.58
8466.00,1.57
8465.00,1.57
8464.00,1.56
8463.00,1.56
8462.00,1.55
8461.00,1.55
8460.00,1.54
8459.00,1.54
8458.00,1.53
8457.00,1.53
8456.00,1.52
8455.00,1.52
8454.00,1.51
8453.00,1.51
8452.00,1.51
8451.00,1.51
8450.00,1.51
8449.00,1.51
8448.00,1.51
8447.00,1.51
8446.00,1.51
8445.00,1.50
8444.00,1.50
8443.00,1.50
8442.00,1.51
8441.00,1.51
8440.00,1.51
8439.00,1.51
8438.00,1.51
8437.00,1.52
8436.00,1.52
8435.00,1.52
8434.00,1.53
8433.00,1.53
8432.00,1.54
8431.00,1.54
8430.00,1.54
8429.00,1.55
8428.00,1.55
8427.00,1.55
8426.00,1.56
8425.00,1.56
8424.00,1.56
8423.00,1.56
8422.00,1.56
8421.00,1.56
8420.00,1.56
8419.00,1.56
8418.00,1.56
8417.00,1.56
8416.00,1.56
8415.00,1.56
8414.00,1.55
8413.00,1.55
8412.00,1.55
8411.00,1.55
8410.00,1.55
8409.00,1.55
8408.00,1.55
8407.00,1.54
8406.00,1.54
8405.00,1.54
8404.00,1.54
8403.00,1.53
8402.00,1.53
8401.00,1.53
8400.00,1.53
8399.00,1.53
8398.00,1.53
8397.00,1.53
8396.00,1.53
8395.00,1.53
8394.00,1.53
8393.00,1.53
8392.00,1.53
8391.00,1.54
8390.00,1.54
8389.00,1.54
8388.00,1.54
8387.00,1.54
8386.00,1.55
8385.00,1.55
8384.00,1.55
8383.00,1.55
8382.00,1.56
8381.00,1.56
8380.00,1.56
8379.00,1.57
8378.00,1.57
8377.00,1.57
8376.00,1.58
8375.00,1.58
8374.00,1.59
8373.00,1.59
8372.00,1.60
8371.00,1.60
8370.00,1.60
8369.00,1.61
8368.00,1.61
8367.00,1.61
8366.00,1.61
8365.00,1.61
8364.00,1.61
8363.00,1.61
8362.00,1.61
8361.00,1.61
8360.00,1.61
8359.00,1.61
8358.00,1.61
8357.00,1.61
8356.00,1.61
8355.00,1.60
8354.00,1.60
8353.00,1.60
8352.00,1.59
8351.00,1.59
8350.00,1.59
8349.00,1.58
8348.00,1.58
8347.00,1.58
8346.00,1.57
8345.00,1.57
8344.00,1.56
8343.00,1.56
8342.00,1.56
8341.00,1.56
8340.00,1.55
8339.00,1.55
8338.00,1.55
8337.00,1.55
8336.00,1.55
8335.00,1.55
8334.00,1.55
8333.00,1.55
8332.00,1.55
8331.00,1.55
8330.00,1.55
8329.00,1.55
8328.00,1.55
8327.00,1.55
8326.00,1.55
8325.00,1.55
8324.00,1.55
8323.00,1.55
8322.00,1.55
8321.00,1.55
8320.00,1.55
8319.00,1.56
8318.00,1.56
8317.00,1.56
8316.00,1.56
8315.00,1.56
8314.00,1.56
8313.00,1.57
8312.00,1.57
8311.00,1.57
8310.00,1.57
8309.00,1.57
8308.00,1.57
8307.00,1.58
8306.00,1.58
8305.00,1.58
8304.00,1.58
8303.00,1.58
8302.00,1.58
8301.00,1.58
8300.00,1.58
8299.00,1.58
8298.00,1.58
8297.00,1.58
8296.00,1.57
8295.00,1.57
8294.00,1.57
8293.00,1.57
8292.00,1.56
8291.00,1.56
8290.00,1.56
8289.00,1.55
8288.00,1.55
8287.00,1.54
8286.00,1.54
8285.00,1.53
8284.00,1.53
8283.00,1.52
8282.00,1.52
8281.00,1.52
8280.00,1.51
8279.00,1.51
8278.00,1.51
8277.00,1.51
8276.00,1.51
8275.00,1.51
8274.00,1.51
8273.00,1.51
8272.00,1.51
8271.00,1.51
8270.00,1.51
8269.00,1.51
8268.00,1.52
8267.00,1.52
8266.00,1.52
8265.00,1.52
8264.00,1.53
8263.00,1.53
8262.00,1.53
8261.00,1.53
8260.00,1.53
8259.00,1.54
8258.00,1.54
8257.00,1.54
8256.00,1.54
8255.00,1.54
8254.00,1.54
8253.00,1.54
8252.00,1.54
8251.00,1.54
8250.00,1.54
8249.00,1.54
8248.00,1.54
8247.00,1.54
8246.00,1.53
8245.00,1.53
8244.00,1.53
8243.00,1.53
8242.00,1.52
8241.00,1.52
8240.00,1.52
8239.00,1.51
8238.00,1.51
8237.00,1.51
8236.00,1.51
8235.00,1.51
8234.00,1.51
8233.00,1.51
8232.00,1.51
8231.00,1.51
8230.00,1.51
8229.00,1.51
8228.00,1.51
8227.00,1.51
8226.00,1.52
8225.00,1.52
8224.00,1.52
8223.00,1.52
8222.00,1.52
8221.00,1.52
8220.00,1.52
8219.00,1.53
8218.00,1.53
8217.00,1.53
8216.00,1.54
8215.00,1.54
8214.00,1.54
8213.00,1.55
8212.00,1.55
8211.00,1.55
8210.00,1.55
8209.00,1.56
8208.00,1.56
8207.00,1.56
8206.00,1.56
8205.00,1.56
8204.00,1.57
8203.00,1.57
8202.00,1.57
8201.00,1.57
8200.00,1.58
8199.00,1.58
8198.00,1.58
8197.00,1.58
8196.00,1.58
8195.00,1.58
8194.00,1.58
8193.00,1.58
8192.00,1.59
8191.00,1.59
8190.00,1.59
8189.00,1.59
8188.00,1.59
8187.00,1.59
8186.00,1.59
8185.00,1.59
8184.00,1.59
8183.00,1.59
8182.00,1.59
8181.00,1.59
8180.00,1.59
8179.00,1.59
8178.00,1.58
8177.00,1.58
8176.00,1.58
8175.00,1.58
8174.00,1.58
8173.00,1.58
8172.00,1.58
8171.00,1.58
8170.00,1.58
8169.00,1.58
8168.00,1.58
8167.00,1.58
8166.00,1.59
8165.00,1.59
8164.00,1.59
8163.00,1.59
8162.00,1.59
8161.00,1.59
8160.00,1.59
8159.00,1.60
8158.00,1.60
8157.00,1.60
8156.00,1.60
8155.00,1.60
8154.00,1.60
8153.00,1.61
8152.00,1.61
8151.00,1.61
8150.00,1.61
8149.00,1.62
8148.00,1.62
8147.00,1.62
8146.00,1.62
8145.00,1.62
8144.00,1.62
8143.00,1.62
8142.00,1.62
8141.00,1.62
8140.00,1.62
8139.00,1.62
8138.00,1.62
8137.00,1.62
8136.00,1.62
8135.00,1.62
8134.00,1.62
8133.00,1.62
8132.00,1.62
8131.00,1.61
8130.00,1.61
8129.00,1.61
8128.00,1.61
8127.00,1.61
8126.00,1.61
8125.00,1.61
8124.00,1.61
8123.00,1.60
8122.00,1.60
8121.00,1.60
8120.00,1.60
8119.00,1.60
8118.00,1.61
8117.00,1.61
8116.00,1.61
8115.00,1.61
8114.00,1.61
8113.00,1.61
8112.00,1.62
8111.00,1.62
8110.00,1.62
8109.00,1.62
8108.00,1.63
8107.00,1.63
8106.00,1.63
8105.00,1.63
8104.00,1.63
8103.00,1.63
8102.00,1.63
8101.00,1.64
8100.00,1.64
8099.00,1.64
8098.00,1.64
8097.00,1.64
8096.00,1.63
8095.00,1.63
8094.00,1.63
8093.00,1.63
8092.00,1.63
8091.00,1.62
8090.00,1.62
8089.00,1.62
8088.00,1.61
8087.00,1.61
8086.00,1.61
8085.00,1.61
8084.00,1.60
8083.00,1.60
8082.00,1.60
8081.00,1.59
8080.00,1.59
8079.00,1.59
8078.00,1.59
8077.00,1.59
8076.00,1.58
8075.00,1.58
8074.00,1.58
8073.00,1.58
8072.00,1.58
8071.00,1.58
8070.00,1.58
8069.00,1.58
8068.00,1.58
8067.00,1.58
8066.00,1.58
8065.00,1.58
8064.00,1.58
8063.00,1.58
8062.00,1.59
8061.00,1.59
8060.00,1.59
8059.00,1.59
8058.00,1.59
8057.00,1.59
8056.00,1.59
8055.00,1.60
8054.00,1.60
8053.00,1.60
8052.00,1.60
8051.00,1.61
8050.00,1.61
8049.00,1.61
8048.00,1.62
8047.00,1.62
8046.00,1.62
8045.00,1.63
8044.00,1.63
8043.00,1.63
8042.00,1.64
8041.00,1.64
8040.00,1.64
8039.00,1.65
8038.00,1.65
8037.00,1.65
8036.00,1.66
8035.00,1.66
8034.00,1.66
8033.00,1.67
8032.00,1.67
8031.00,1.67
8030.00,1.68
8029.00,1.68
8028.00,1.68
8027.00,1.68
8026.00,1.68
8025.00,1.69
8024.00,1.69
8023.00,1.69
8022.00,1.69
8021.00,1.69
8020.00,1.69
8019.00,1.69
8018.00,1.69
8017.00,1.69
8016.00,1.69
8015.00,1.69
8014.00,1.69
8013.00,1.68
8012.00,1.68
8011.00,1.68
8010.00,1.68
8009.00,1.68
8008.00,1.67
8007.00,1.67
8006.00,1.67
8005.00,1.67
8004.00,1.66
8003.00,1.66
8002.00,1.66
8001.00,1.66
8000.00,1.65
7999.00,1.65
7998.00,1.65
7997.00,1.65
7996.00,1.65
7995.00,1.64
7994.00,1.64
7993.00,1.64
7992.00,1.64
7991.00,1.64
7990.00,1.64
7989.00,1.64
7988.00,1.64
7987.00,1.64
7986.00,1.64
7985.00,1.64
7984.00,1.65
7983.00,1.65
7982.00,1.65
7981.00,1.65
7980.00,1.65
7979.00,1.65
7978.00,1.65
7977.00,1.66
7976.00,1.66
7975.00,1.66
7974.00,1.66
7973.00,1.66
7972.00,1.66
7971.00,1.67
7970.00,1.67
7969.00,1.67
7968.00,1.67
7967.00,1.67
7966.00,1.67
7965.00,1.67
7964.00,1.67
7963.00,1.67
7962.00,1.67
7961.00,1.66
7960.00,1.66
7959.00,1.65
7958.00,1.65
7957.00,1.65
7956.00,1.64
7955.00,1.64
7954.00,1.63
7953.00,1.63
7952.00,1.62
7951.00,1.61
7950.00,1.61
7949.00,1.60
7948.00,1.59
7947.00,1.59
7946.00,1.58
7945.00,1.57
7944.00,1.57
7943.00,1.56
7942.00,1.55
7941.00,1.55
7940.00,1.54
7939.00,1.53
7938.00,1.53
7937.00,1.52
7936.00,1.52
7935.00,1.51
7934.00,1.51
7933.00,1.51
7932.00,1.51
7931.00,1.50
7930.00,1.50
7929.00,1.50
7928.00,1.50
7927.00,1.50
7926.00,1.51
7925.00,1.51
7924.00,1.51
7923.00,1.51
7922.00,1.52
7921.00,1.52
7920.00,1.52
7919.00,1.53
7918.00,1.53
7917.00,1.54
7916.00,1.54
7915.00,1.55
7914.00,1.55
7913.00,1.56
7912.00,1.57
7911.00,1.57
7910.00,1.58
7909.00,1.59
7908.00,1.59
7907.00,1.60
7906.00,1.60
7905.00,1.61
7904.00,1.61
7903.00,1.62
7902.00,1.62
7901.00,1.63
7900.00,1.63
7899.00,1.63
7898.00,1.63
7897.00,1.64
7896.00,1.64
7895.00,1.64
7894.00,1.64
7893.00,1.64
7892.00,1.65
7891.00,1.65
7890.00,1.65
7889.00,1.65
7888.00,1.65
7887.00,1.65
7886.00,1.65
7885.00,1.64
7884.00,1.64
7883.00,1.64
7882.00,1.64
7881.00,1.63
7880.00,1.63
7879.00,1.63
7878.00,1.63
7877.00,1.63
7876.00,1.63
7875.00,1.62
7874.00,1.62
7873.00,1.62
7872.00,1.62
7871.00,1.62
7870.00,1.62
7869.00,1.61
7868.00,1.61
7867.00,1.61
7866.00,1.61
7865.00,1.61
7864.00,1.60
7863.00,1.60
7862.00,1.60
7861.00,1.60
7860.00,1.60
7859.00,1.60
7858.00,1.60
7857.00,1.60
7856.00,1.60
7855.00,1.60
7854.00,1.60
7853.00,1.60
7852.00,1.60
7851.00,1.60
7850.00,1.59
7849.00,1.59
7848.00,1.59
7847.00,1.59
7846.00,1.59
7845.00,1.59
7844.00,1.59
7843.00,1.59
7842.00,1.58
7841.00,1.58
7840.00,1.58
7839.00,1.58
7838.00,1.58
7837.00,1.58
7836.00,1.57
7835.00,1.57
7834.00,1.57
7833.00,1.57
7832.00,1.57
7831.00,1.57
7830.00,1.57
7829.00,1.57
7828.00,1.56
7827.00,1.56
7826.00,1.56
7825.00,1.56
7824.00,1.56
7823.00,1.56
7822.00,1.56
7821.00,1.56
7820.00,1.56
7819.00,1.56
7818.00,1.56
7817.00,1.57
7816.00,1.57
7815.00,1.57
7814.00,1.57
7813.00,1.57
7812.00,1.58
7811.00,1.58
7810.00,1.58
7809.00,1.58
7808.00,1.59
7807.00,1.59
7806.00,1.59
7805.00,1.59
7804.00,1.60
7803.00,1.60
7802.00,1.60
7801.00,1.61
7800.00,1.61
7799.00,1.61
7798.00,1.62
7797.00,1.62
7796.00,1.63
7795.00,1.63
7794.00,1.63
7793.00,1.64
7792.00,1.64
7791.00,1.65
7790.00,1.65
7789.00,1.65
7788.00,1.65
7787.00,1.65
7786.00,1.66
7785.00,1.66
7784.00,1.66
7783.00,1.66
7782.00,1.66
7781.00,1.66
7780.00,1.66
7779.00,1.66
7778.00,1.66
7777.00,1.66
7776.00,1.66
7775.00,1.65
7774.00,1.65
7773.00,1.65
7772.00,1.65
7771.00,1.65
7770.00,1.64
7769.00,1.64
7768.00,1.64
7767.00,1.64
7766.00,1.63
7765.00,1.63
7764.00,1.63
7763.00,1.63
7762.00,1.63
7761.00,1.63
7760.00,1.62
7759.00,1.62
7758.00,1.62
7757.00,1.62
7756.00,1.62
7755.00,1.62
7754.00,1.62
7753.00,1.62
7752.00,1.62
7751.00,1.62
7750.00,1.62
7749.00,1.62
7748.00,1.62
7747.00,1.62
7746.00,1.62
7745.00,1.62
7744.00,1.62
7743.00,1.62
7742.00,1.62
7741.00,1.62
7740.00,1.62
7739.00,1.62
7738.00,1.62
7737.00,1.62
7736.00,1.61
7735.00,1.61
7734.00,1.61
7733.00,1.61
7732.00,1.61
7731.00,1.61
7730.00,1.60
7729.00,1.60
7728.00,1.60
7727.00,1.60
7726.00,1.59
7725.00,1.59
7724.00,1.59
7723.00,1.58
7722.00,1.58
7721.00,1.58
7720.00,1.58
7719.00,1.57
7718.00,1.57
7717.00,1.57
7716.00,1.57
7715.00,1.56
7714.00,1.56
7713.00,1.56
7712.00,1.56
7711.00,1.56
7710.00,1.56
7709.00,1.56
7708.00,1.56
7707.00,1.56
7706.00,1.56
7705.00,1.56
7704.00,1.56
7703.00,1.56
7702.00,1.56
7701.00,1.56
7700.00,1.56
7699.00,1.57
7698.00,1.57
7697.00,1.57
7696.00,1.58
7695.00,1.58
7694.00,1.58
7693.00,1.58
7692.00,1.59
7691.00,1.59
7690.00,1.59
7689.00,1.60
7688.00,1.60
7687.00,1.60
7686.00,1.61
7685.00,1.61
7684.00,1.61
7683.00,1.61
7682.00,1.62
7681.00,1.62
7680.00,1.62
7679.00,1.63
7678.00,1.63
7677.00,1.63
7676.00,1.63
7675.00,1.63
7674.00,1.63
7673.00,1.64
7672.00,1.64
7671.00,1.64
7670.00,1.64
7669.00,1.64
7668.00,1.64
7667.00,1.64
7666.00,1.64
7665.00,1.64
7664.00,1.64
7663.00,1.64
7662.00,1.64
7661.00,1.64
7660.00,1.64
7659.00,1.64
7658.00,1.64
7657.00,1.64
7656.00,1.64
7655.00,1.64
7654.00,1.63
7653.00,1.63
7652.00,1.63
7651.00,1.63
7650.00,1.63
7649.00,1.62
7648.00,1.62
7647.00,1.62
7646.00,1.62
7645.00,1.62
7644.00,1.62
7643.00,1.62
7642.00,1.62
7641.00,1.61
7640.00,1.61
7639.00,1.61
7638.00,1.61
7637.00,1.61
7636.00,1.61
7635.00,1.61
7634.00,1.61
7633.00,1.61
7632.00,1.61
7631.00,1.61
7630.00,1.61
7629.00,1.61
7628.00,1.61
7627.00,1.61
7626.00,1.62
7625.00,1.62
7624.00,1.62
7623.00,1.62
7622.00,1.62
7621.00,1.62
7620.00,1.61
7619.00,1.61
7618.00,1.61
7617.00,1.61
7616.00,1.61
7615.00,1.61
7614.00,1.61
7613.00,1.61
7612.00,1.61
7611.00,1.61
7610.00,1.61
7609.00,1.61
7608.00,1.61
7607.00,1.61
7606.00,1.61
7605.00,1.61
7604.00,1.61
7603.00,1.61
7602.00,1.61
7601.00,1.61
7600.00,1.61
7599.00,1.61
7598.00,1.62
7597.00,1.62
7596.00,1.62
7595.00,1.62
7594.00,1.62
7593.00,1.62
7592.00,1.62
7591.00,1.62
7590.00,1.63
7589.00,1.63
7588.00,1.63
7587.00,1.63
7586.00,1.63
7585.00,1.63
7584.00,1.63
7583.00,1.63
7582.00,1.63
7581.00,1.62
7580.00,1.62
7579.00,1.62
7578.00,1.62
7577.00,1.62
7576.00,1.62
7575.00,1.62
7574.00,1.62
7573.00,1.62
7572.00,1.62
7571.00,1.61
7570.00,1.61
7569.00,1.61
7568.00,1.61
7567.00,1.61
7566.00,1.61
7565.00,1.61
7564.00,1.61
7563.00,1.61
7562.00,1.61
7561.00,1.61
7560.00,1.61
7559.00,1.61
7558.00,1.61
7557.00,1.61
7556.00,1.61
7555.00,1.61
7554.00,1.61
7553.00,1.61
7552.00,1.61
7551.00,1.61
7550.00,1.61
7549.00,1.62
7548.00,1.62
7547.00,1.62
7546.00,1.62
7545.00,1.62
7544.00,1.62
7543.00,1.62
7542.00,1.62
7541.00,1.62
7540.00,1.62
7539.00,1.62
7538.00,1.62
7537.00,1.62
7536.00,1.62
7535.00,1.62
7534.00,1.62
7533.00,1.62
7532.00,1.62
7531.00,1.62
7530.00,1.62
7529.00,1.62
7528.00,1.62
7527.00,1.62
7526.00,1.62
7525.00,1.62
7524.00,1.62
7523.00,1.62
7522.00,1.61
7521.00,1.61
7520.00,1.61
7519.00,1.61
7518.00,1.61
7517.00,1.61
7516.00,1.61
7515.00,1.61
7514.00,1.62
7513.00,1.62
7512.00,1.62
7511.00,1.62
7510.00,1.62
7509.00,1.62
7508.00,1.62
7507.00,1.62
7506.00,1.62
7505.00,1.62
7504.00,1.62
7503.00,1.62
7502.00,1.63
7501.00,1.63
7500.00,1.63
7499.00,1.63
7498.00,1.63
7497.00,1.64
7496.00,1.64
7495.00,1.64
7494.00,1.64
7493.00,1.64
7492.00,1.65
7491.00,1.65
7490.00,1.65
7489.00,1.65
7488.00,1.65
7487.00,1.65
7486.00,1.65
7485.00,1.65
7484.00,1.65
7483.00,1.65
7482.00,1.65
7481.00,1.65
7480.00,1.65
7479.00,1.65
7478.00,1.65
7477.00,1.65
7476.00,1.65
7475.00,1.65
7474.00,1.65
7473.00,1.65
7472.00,1.65
7471.00,1.65
7470.00,1.65
7469.00,1.64
7468.00,1.64
7467.00,1.64
7466.00,1.64
7465.00,1.64
7464.00,1.64
7463.00,1.64
7462.00,1.64
7461.00,1.64
7460.00,1.64
7459.00,1.64
7458.00,1.64
7457.00,1.64
7456.00,1.64
7455.00,1.64
7454.00,1.63
7453.00,1.63
7452.00,1.63
7451.00,1.63
7450.00,1.62
7449.00,1.62
7448.00,1.62
7447.00,1.62
7446.00,1.62
7445.00,1.61
7444.00,1.61
7443.00,1.61
7442.00,1.61
7441.00,1.60
7440.00,1.60
7439.00,1.60
7438.00,1.60
7437.00,1.60
7436.00,1.59
7435.00,1.59
7434.00,1.59
7433.00,1.59
7432.00,1.59
7431.00,1.59
7430.00,1.59
7429.00,1.59
7428.00,1.59
7427.00,1.59
7426.00,1.59
7425.00,1.59
7424.00,1.59
7423.00,1.60
7422.00,1.60
7421.00,1.60
7420.00,1.60
7419.00,1.60
7418.00,1.60
7417.00,1.60
7416.00,1.60
7415.00,1.60
7414.00,1.60
7413.00,1.61
7412.00,1.60
7411.00,1.60
7410.00,1.61
7409.00,1.61
7408.00,1.61
7407.00,1.60
7406.00,1.60
7405.00,1.60
7404.00,1.60
7403.00,1.60
7402.00,1.60
7401.00,1.60
7400.00,1.60
7399.00,1.60
7398.00,1.59
7397.00,1.59
7396.00,1.59
7395.00,1.59
7394.00,1.59
7393.00,1.58
7392.00,1.58
7391.00,1.58
7390.00,1.58
7389.00,1.58
7388.00,1.58
7387.00,1.58
7386.00,1.58
7385.00,1.58
7384.00,1.58
7383.00,1.58
7382.00,1.58
7381.00,1.58
7380.00,1.58
7379.00,1.58
7378.00,1.57
7377.00,1.57
7376.00,1.57
7375.00,1.57
7374.00,1.57
7373.00,1.57
7372.00,1.57
7371.00,1.58
7370.00,1.58
7369.00,1.58
7368.00,1.58
7367.00,1.58
7366.00,1.58
7365.00,1.59
7364.00,1.59
7363.00,1.59
7362.00,1.59
7361.00,1.59
7360.00,1.59
7359.00,1.59
7358.00,1.59
7357.00,1.59
7356.00,1.59
7355.00,1.59
7354.00,1.59
7353.00,1.59
7352.00,1.59
7351.00,1.59
7350.00,1.59
7349.00,1.59
7348.00,1.59
7347.00,1.59
7346.00,1.59
7345.00,1.59
7344.00,1.59
7343.00,1.59
7342.00,1.59
7341.00,1.59
7340.00,1.59
7339.00,1.59
7338.00,1.58
7337.00,1.58
7336.00,1.58
7335.00,1.58
7334.00,1.58
7333.00,1.58
7332.00,1.58
7331.00,1.58
7330.00,1.58
7329.00,1.58
7328.00,1.58
7327.00,1.58
7326.00,1.58
7325.00,1.58
7324.00,1.58
7323.00,1.58
7322.00,1.58
7321.00,1.58
7320.00,1.58
7319.00,1.58
7318.00,1.57
7317.00,1.57
7316.00,1.57
7315.00,1.57
7314.00,1.57
7313.00,1.57
7312.00,1.57
7311.00,1.57
7310.00,1.57
7309.00,1.57
7308.00,1.57
7307.00,1.56
7306.00,1.56
7305.00,1.56
7304.00,1.56
7303.00,1.56
7302.00,1.56
7301.00,1.56
7300.00,1.56
7299.00,1.56
7298.00,1.56
7297.00,1.55
7296.00,1.55
7295.00,1.55
7294.00,1.55
7293.00,1.55
7292.00,1.55
7291.00,1.55
7290.00,1.55
7289.00,1.55
7288.00,1.55
7287.00,1.55
7286.00,1.55
7285.00,1.56
7284.00,1.56
7283.00,1.56
7282.00,1.56
7281.00,1.56
7280.00,1.57
7279.00,1.57
7278.00,1.57
7277.00,1.57
7276.00,1.57
7275.00,1.58
7274.00,1.58
7273.00,1.58
7272.00,1.58
7271.00,1.58
7270.00,1.58
7269.00,1.58
7268.00,1.58
7267.00,1.58
7266.00,1.58
7265.00,1.58
7264.00,1.58
7263.00,1.58
7262.00,1.58
7261.00,1.58
7260.00,1.58
7259.00,1.58
7258.00,1.57
7257.00,1.57
7256.00,1.57
7255.00,1.57
7254.00,1.57
7253.00,1.57
7252.00,1.56
7251.00,1.56
7250.00,1.56
7249.00,1.56
7248.00,1.56
7247.00,1.56
7246.00,1.56
7245.00,1.56
7244.00,1.56
7243.00,1.56
7242.00,1.56
7241.00,1.56
7240.00,1.56
7239.00,1.56
7238.00,1.56
7237.00,1.56
7236.00,1.56
7235.00,1.56
7234.00,1.56
7233.00,1.56
7232.00,1.56
7231.00,1.56
7230.00,1.56
7229.00,1.55
7228.00,1.55
7227.00,1.55
7226.00,1.55
7225.00,1.55
7224.00,1.55
7223.00,1.55
7222.00,1.55
7221.00,1.55
7220.00,1.55
7219.00,1.55
7218.00,1.55
7217.00,1.55
7216.00,1.55
7215.00,1.54
7214.00,1.54
7213.00,1.54
7212.00,1.54
7211.00,1.54
7210.00,1.54
7209.00,1.53
7208.00,1.53
7207.00,1.53
7206.00,1.53
7205.00,1.53
7204.00,1.52
7203.00,1.52
7202.00,1.52
7201.00,1.52
7200.00,1.51
7199.00,1.51
7198.00,1.50
7197.00,1.50
7196.00,1.50
7195.00,1.49
7194.00,1.49
7193.00,1.48
7192.00,1.48
7191.00,1.48
7190.00,1.47
7189.00,1.47
7188.00,1.47
7187.00,1.47
7186.00,1.46
7185.00,1.46
7184.00,1.46
7183.00,1.45
7182.00,1.45
7181.00,1.45
7180.00,1.44
7179.00,1.44
7178.00,1.44
7177.00,1.44
7176.00,1.44
7175.00,1.44
7174.00,1.43
7173.00,1.43
7172.00,1.43
7171.00,1.43
7170.00,1.43
7169.00,1.43
7168.00,1.43
7167.00,1.43
7166.00,1.43
7165.00,1.44
7164.00,1.44
7163.00,1.44
7162.00,1.44
7161.00,1.44
7160.00,1.44
7159.00,1.44
7158.00,1.44
7157.00,1.45
7156.00,1.45
7155.00,1.45
7154.00,1.45
7153.00,1.45
7152.00,1.45
7151.00,1.45
7150.00,1.45
7149.00,1.45
7148.00,1.45
7147.00,1.45
7146.00,1.45
7145.00,1.45
7144.00,1.45
7143.00,1.46
7142.00,1.46
7141.00,1.46
7140.00,1.46
7139.00,1.45
7138.00,1.45
7137.00,1.45
7136.00,1.45
7135.00,1.45
7134.00,1.45
7133.00,1.45
7132.00,1.45
7131.00,1.44
7130.00,1.44
7129.00,1.44
7128.00,1.44
7127.00,1.44
7126.00,1.44
7125.00,1.44
7124.00,1.44
7123.00,1.44
7122.00,1.44
7121.00,1.44
7120.00,1.44
7119.00,1.43
7118.00,1.43
7117.00,1.43
7116.00,1.43
7115.00,1.43
7114.00,1.43
7113.00,1.42
7112.00,1.42
7111.00,1.42
7110.00,1.42
7109.00,1.41
7108.00,1.41
7107.00,1.41
7106.00,1.41
7105.00,1.41
7104.00,1.40
7103.00,1.40
7102.00,1.40
7101.00,1.40
7100.00,1.40
7099.00,1.39
7098.00,1.39
7097.00,1.39
7096.00,1.38
7095.00,1.38
7094.00,1.38
7093.00,1.37
7092.00,1.37
7091.00,1.37
7090.00,1.37
7089.00,1.36
7088.00,1.36
7087.00,1.36
7086.00,1.36
7085.00,1.36
7084.00,1.36
7083.00,1.36
7082.00,1.36
7081.00,1.36
7080.00,1.35
7079.00,1.35
7078.00,1.35
7077.00,1.35
7076.00,1.35
7075.00,1.35
7074.00,1.36
7073.00,1.36
7072.00,1.36
7071.00,1.36
7070.00,1.36
7069.00,1.36
7068.00,1.37
7067.00,1.37
7066.00,1.37
7065.00,1.37
7064.00,1.37
7063.00,1.37
7062.00,1.37
7061.00,1.37
7060.00,1.38
7059.00,1.38
7058.00,1.38
7057.00,1.38
7056.00,1.38
7055.00,1.38
7054.00,1.38
7053.00,1.38
7052.00,1.37
7051.00,1.37
7050.00,1.37
7049.00,1.37
7048.00,1.37
7047.00,1.37
7046.00,1.36
7045.00,1.36
7044.00,1.36
7043.00,1.36
7042.00,1.35
7041.00,1.35
7040.00,1.35
7039.00,1.35
7038.00,1.35
7037.00,1.34
7036.00,1.34
7035.00,1.34
7034.00,1.34
7033.00,1.34
7032.00,1.34
7031.00,1.34
7030.00,1.33
7029.00,1.33
7028.00,1.33
7027.00,1.33
7026.00,1.33
7025.00,1.33
7024.00,1.33
7023.00,1.33
7022.00,1.33
7021.00,1.33
7020.00,1.33
7019.00,1.33
7018.00,1.33
7017.00,1.33
7016.00,1.33
7015.00,1.33
7014.00,1.33
7013.00,1.33
7012.00,1.33
7011.00,1.33
7010.00,1.33
7009.00,1.34
7008.00,1.34
7007.00,1.34
7006.00,1.34
7005.00,1.34
7004.00,1.34
7003.00,1.34
7002.00,1.34
7001.00,1.34
7000.00,1.34
6999.00,1.34
6998.00,1.34
6997.00,1.34
6996.00,1.34
6995.00,1.34
6994.00,1.34
6993.00,1.34
6992.00,1.34
6991.00,1.34
6990.00,1.35
6989.00,1.35
6988.00,1.35
6987.00,1.35
6986.00,1.35
6985.00,1.35
6984.00,1.35
6983.00,1.35
6982.00,1.36
6981.00,1.36
6980.00,1.36
6979.00,1.36
6978.00,1.36
6977.00,1.36
6976.00,1.36
6975.00,1.36
6974.00,1.37
6973.00,1.37
6972.00,1.37
6971.00,1.37
6970.00,1.37
6969.00,1.37
6968.00,1.37
6967.00,1.37
6966.00,1.37
6965.00,1.37
6964.00,1.37
6963.00,1.37
6962.00,1.37
6961.00,1.37
6960.00,1.37
6959.00,1.37
6958.00,1.37
6957.00,1.37
6956.00,1.37
6955.00,1.37
6954.00,1.37
6953.00,1.37
6952.00,1.36
6951.00,1.36
6950.00,1.36
6949.00,1.36
6948.00,1.36
6947.00,1.36
6946.00,1.36
6945.00,1.36
6944.00,1.36
6943.00,1.36
6942.00,1.35
6941.00,1.35
6940.00,1.35
6939.00,1.35
6938.00,1.35
6937.00,1.35
6936.00,1.34
6935.00,1.34
6934.00,1.34
6933.00,1.34
6932.00,1.34
6931.00,1.34
6930.00,1.34
6929.00,1.34
6928.00,1.34
6927.00,1.33
6926.00,1.33
6925.00,1.33
6924.00,1.33
6923.00,1.33
6922.00,1.33
6921.00,1.33
6920.00,1.33
6919.00,1.33
6918.00,1.33
6917.00,1.33
6916.00,1.33
6915.00,1.33
6914.00,1.33
6913.00,1.33
6912.00,1.33
6911.00,1.33
6910.00,1.33
6909.00,1.33
6908.00,1.33
6907.00,1.33
6906.00,1.33
6905.00,1.33
6904.00,1.33
6903.00,1.33
6902.00,1.33
6901.00,1.33
6900.00,1.33
6899.00,1.33
6898.00,1.33
6897.00,1.33
6896.00,1.33
6895.00,1.33
6894.00,1.33
6893.00,1.33
6892.00,1.33
6891.00,1.33
6890.00,1.33
6889.00,1.33
6888.00,1.32
6887.00,1.32
6886.00,1.32
6885.00,1.32
6884.00,1.32
6883.00,1.31
6882.00,1.31
6881.00,1.31
6880.00,1.31
6879.00,1.31
6878.00,1.31
6877.00,1.30
6876.00,1.30
6875.00,1.30
6874.00,1.30
6873.00,1.30
6872.00,1.30
6871.00,1.29
6870.00,1.29
6869.00,1.29
6868.00,1.29
6867.00,1.29
6866.00,1.29
6865.00,1.29
6864.00,1.29
6863.00,1.29
6862.00,1.29
6861.00,1.29
6860.00,1.29
6859.00,1.29
6858.00,1.29
6857.00,1.29
6856.00,1.29
6855.00,1.29
6854.00,1.30
6853.00,1.30
6852.00,1.30
6851.00,1.30
6850.00,1.30
6849.00,1.30
6848.00,1.30
6847.00,1.30
6846.00,1.30
6845.00,1.30
6844.00,1.30
6843.00,1.30
6842.00,1.31
6841.00,1.31
6840.00,1.31
6839.00,1.31
6838.00,1.31
6837.00,1.31
6836.00,1.31
6835.00,1.31
6834.00,1.31
6833.00,1.32
6832.00,1.32
6831.00,1.32
6830.00,1.32
6829.00,1.32
6828.00,1.32
6827.00,1.32
6826.00,1.32
6825.00,1.32
6824.00,1.32
6823.00,1.32
6822.00,1.33
6821.00,1.33
6820.00,1.33
6819.00,1.33
6818.00,1.33
6817.00,1.33
6816.00,1.33
6815.00,1.33
6814.00,1.34
6813.00,1.34
6812.00,1.34
6811.00,1.34
6810.00,1.34
6809.00,1.34
6808.00,1.34
6807.00,1.34
6806.00,1.34
6805.00,1.34
6804.00,1.35
6803.00,1.35
6802.00,1.35
6801.00,1.35
6800.00,1.35
6799.00,1.36
6798.00,1.36
6797.00,1.36
6796.00,1.36
6795.00,1.36
6794.00,1.36
6793.00,1.36
6792.00,1.36
6791.00,1.36
6790.00,1.37
6789.00,1.37
6788.00,1.37
6787.00,1.37
6786.00,1.37
6785.00,1.37
6784.00,1.37
6783.00,1.37
6782.00,1.37
6781.00,1.37
6780.00,1.37
6779.00,1.37
6778.00,1.37
6777.00,1.36
6776.00,1.36
6775.00,1.36
6774.00,1.36
6773.00,1.36
6772.00,1.36
6771.00,1.36
6770.00,1.36
6769.00,1.35
6768.00,1.35
6767.00,1.35
6766.00,1.35
6765.00,1.35
6764.00,1.35
6763.00,1.35
6762.00,1.35
6761.00,1.35
6760.00,1.36
6759.00,1.36
6758.00,1.36
6757.00,1.36
6756.00,1.36
6755.00,1.36
6754.00,1.36
6753.00,1.37
6752.00,1.37
6751.00,1.37
6750.00,1.37
6749.00,1.38
6748.00,1.38
6747.00,1.38
6746.00,1.38
6745.00,1.38
6744.00,1.38
6743.00,1.38
6742.00,1.39
6741.00,1.39
6740.00,1.39
6739.00,1.39
6738.00,1.39
6737.00,1.39
6736.00,1.39
6735.00,1.39
6734.00,1.39
6733.00,1.39
6732.00,1.39
6731.00,1.39
6730.00,1.39
6729.00,1.39
6728.00,1.39
6727.00,1.39
6726.00,1.39
6725.00,1.39
6724.00,1.39
6723.00,1.39
6722.00,1.39
6721.00,1.39
6720.00,1.39
6719.00,1.39
6718.00,1.39
6717.00,1.39
6716.00,1.39
6715.00,1.39
6714.00,1.39
6713.00,1.40
6712.00,1.40
6711.00,1.40
6710.00,1.40
6709.00,1.40
6708.00,1.40
6707.00,1.40
6706.00,1.40
6705.00,1.40
6704.00,1.40
6703.00,1.40
6702.00,1.41
6701.00,1.41
6700.00,1.41
6699.00,1.41
6698.00,1.41
6697.00,1.41
6696.00,1.41
6695.00,1.41
6694.00,1.41
6693.00,1.41
6692.00,1.42
6691.00,1.42
6690.00,1.42
6689.00,1.42
6688.00,1.42
6687.00,1.42
6686.00,1.42
6685.00,1.42
6684.00,1.43
6683.00,1.43
6682.00,1.43
6681.00,1.43
6680.00,1.43
6679.00,1.43
6678.00,1.44
6677.00,1.44
6676.00,1.44
6675.00,1.44
6674.00,1.44
6673.00,1.44
6672.00,1.44
6671.00,1.44
6670.00,1.44
6669.00,1.44
6668.00,1.44
6667.00,1.44
6666.00,1.44
6665.00,1.44
6664.00,1.43
6663.00,1.43
6662.00,1.43
6661.00,1.43
6660.00,1.43
6659.00,1.43
6658.00,1.43
6657.00,1.43
6656.00,1.43
6655.00,1.43
6654.00,1.43
6653.00,1.43
6652.00,1.43
6651.00,1.43
6650.00,1.43
6649.00,1.43
6648.00,1.43
6647.00,1.43
6646.00,1.43
6645.00,1.44
6644.00,1.44
6643.00,1.44
6642.00,1.44
6641.00,1.44
6640.00,1.45
6639.00,1.45
6638.00,1.45
6637.00,1.45
6636.00,1.45
6635.00,1.46
6634.00,1.46
6633.00,1.46
6632.00,1.46
6631.00,1.46
6630.00,1.47
6629.00,1.47
6628.00,1.47
6627.00,1.47
6626.00,1.47
6625.00,1.47
6624.00,1.47
6623.00,1.48
6622.00,1.48
6621.00,1.48
6620.00,1.48
6619.00,1.48
6618.00,1.48
6617.00,1.48
6616.00,1.48
6615.00,1.48
6614.00,1.48
6613.00,1.48
6612.00,1.48
6611.00,1.48
6610.00,1.48
6609.00,1.47
6608.00,1.47
6607.00,1.47
6606.00,1.47
6605.00,1.47
6604.00,1.47
6603.00,1.47
6602.00,1.47
6601.00,1.47
6600.00,1.47
6599.00,1.47
6598.00,1.46
6597.00,1.46
6596.00,1.46
6595.00,1.46
6594.00,1.46
6593.00,1.46
6592.00,1.46
6591.00,1.46
6590.00,1.46
6589.00,1.46
6588.00,1.46
6587.00,1.46
6586.00,1.46
6585.00,1.46
6584.00,1.46
6583.00,1.47
6582.00,1.47
6581.00,1.47
6580.00,1.47
6579.00,1.47
6578.00,1.47
6577.00,1.47
6576.00,1.47
6575.00,1.48
6574.00,1.48
6573.00,1.48
6572.00,1.48
6571.00,1.48
6570.00,1.49
6569.00,1.49
6568.00,1.49
6567.00,1.49
6566.00,1.49
6565.00,1.49
6564.00,1.49
6563.00,1.49
6562.00,1.50
6561.00,1.50
6560.00,1.50
6559.00,1.50
6558.00,1.50
6557.00,1.50
6556.00,1.50
6555.00,1.50
6554.00,1.50
6553.00,1.51
6552.00,1.51
6551.00,1.51
6550.00,1.51
6549.00,1.51
6548.00,1.51
6547.00,1.51
6546.00,1.51
6545.00,1.51
6544.00,1.51
6543.00,1.52
6542.00,1.52
6541.00,1.52
6540.00,1.52
6539.00,1.52
6538.00,1.53
6537.00,1.53
6536.00,1.53
6535.00,1.53
6534.00,1.54
6533.00,1.54
6532.00,1.54
6531.00,1.54
6530.00,1.54
6529.00,1.55
6528.00,1.55
6527.00,1.55
6526.00,1.55
6525.00,1.55
6524.00,1.55
6523.00,1.55
6522.00,1.56
6521.00,1.56
6520.00,1.56
6519.00,1.56
6518.00,1.56
6517.00,1.56
6516.00,1.56
6515.00,1.56
6514.00,1.56
6513.00,1.56
6512.00,1.56
6511.00,1.56
6510.00,1.56
6509.00,1.56
6508.00,1.55
6507.00,1.55
6506.00,1.55
6505.00,1.55
6504.00,1.55
6503.00,1.55
6502.00,1.55
6501.00,1.55
6500.00,1.54
6499.00,1.54
6498.00,1.54
6497.00,1.54
6496.00,1.54
6495.00,1.54
6494.00,1.54
6493.00,1.54
6492.00,1.54
6491.00,1.54
6490.00,1.54
6489.00,1.54
6488.00,1.54
6487.00,1.54
6486.00,1.55
6485.00,1.55
6484.00,1.55
6483.00,1.55
6482.00,1.55
6481.00,1.55
6480.00,1.55
6479.00,1.55
6478.00,1.55
6477.00,1.55
6476.00,1.55
6475.00,1.55
6474.00,1.55
6473.00,1.56
6472.00,1.56
6471.00,1.56
6470.00,1.56
6469.00,1.56
6468.00,1.56
6467.00,1.56
6466.00,1.56
6465.00,1.56
6464.00,1.56
6463.00,1.56
6462.00,1.56
6461.00,1.56
6460.00,1.56
6459.00,1.56
6458.00,1.56
6457.00,1.56
6456.00,1.56
6455.00,1.56
6454.00,1.56
6453.00,1.56
6452.00,1.57
6451.00,1.57
6450.00,1.57
6449.00,1.57
6448.00,1.57
6447.00,1.57
6446.00,1.57
6445.00,1.57
6444.00,1.56
6443.00,1.56
6442.00,1.56
6441.00,1.56
6440.00,1.56
6439.00,1.56
6438.00,1.56
6437.00,1.56
6436.00,1.56
6435.00,1.56
6434.00,1.56
6433.00,1.56
6432.00,1.55
6431.00,1.55
6430.00,1.55
6429.00,1.55
6428.00,1.55
6427.00,1.55
6426.00,1.55
6425.00,1.55
6424.00,1.55
6423.00,1.55
6422.00,1.55
6421.00,1.55
6420.00,1.55
6419.00,1.55
6418.00,1.55
6417.00,1.55
6416.00,1.55
6415.00,1.55
6414.00,1.55
6413.00,1.55
6412.00,1.55
6411.00,1.55
6410.00,1.55
6409.00,1.55
6408.00,1.55
6407.00,1.55
6406.00,1.55
6405.00,1.55
6404.00,1.55
6403.00,1.56
6402.00,1.56
6401.00,1.56
6400.00,1.56
6399.00,1.56
6398.00,1.56
6397.00,1.56
6396.00,1.56
6395.00,1.56
6394.00,1.56
6393.00,1.57
6392.00,1.57
6391.00,1.57
6390.00,1.57
6389.00,1.57
6388.00,1.57
6387.00,1.57
6386.00,1.57
6385.00,1.58
6384.00,1.58
6383.00,1.58
6382.00,1.58
6381.00,1.58
6380.00,1.58
6379.00,1.58
6378.00,1.58
6377.00,1.59
6376.00,1.59
6375.00,1.59
6374.00,1.59
6373.00,1.59
6372.00,1.59
6371.00,1.59
6370.00,1.59
6369.00,1.59
6368.00,1.59
6367.00,1.59
6366.00,1.58
6365.00,1.58
6364.00,1.58
6363.00,1.58
6362.00,1.58
6361.00,1.58
6360.00,1.58
6359.00,1.58
6358.00,1.58
6357.00,1.58
6356.00,1.58
6355.00,1.58
6354.00,1.58
6353.00,1.58
6352.00,1.58
6351.00,1.58
6350.00,1.58
6349.00,1.58
6348.00,1.58
6347.00,1.58
6346.00,1.58
6345.00,1.58
6344.00,1.58
6343.00,1.58
6342.00,1.59
6341.00,1.59
6340.00,1.59
6339.00,1.59
6338.00,1.59
6337.00,1.59
6336.00,1.59
6335.00,1.59
6334.00,1.59
6333.00,1.59
6332.00,1.60
6331.00,1.60
6330.00,1.60
6329.00,1.60
6328.00,1.60
6327.00,1.60
6326.00,1.60
6325.00,1.60
6324.00,1.61
6323.00,1.61
6322.00,1.61
6321.00,1.61
6320.00,1.61
6319.00,1.62
6318.00,1.62
6317.00,1.62
6316.00,1.62
6315.00,1.63
6314.00,1.63
6313.00,1.63
6312.00,1.63
6311.00,1.63
6310.00,1.63
6309.00,1.64
6308.00,1.64
6307.00,1.64
6306.00,1.64
6305.00,1.64
6304.00,1.64
6303.00,1.64
6302.00,1.64
6301.00,1.64
6300.00,1.64
6299.00,1.64
6298.00,1.64
6297.00,1.64
6296.00,1.64
6295.00,1.64
6294.00,1.64
6293.00,1.64
6292.00,1.63
6291.00,1.63
6290.00,1.63
6289.00,1.63
6288.00,1.63
6287.00,1.63
6286.00,1.63
6285.00,1.63
6284.00,1.63
6283.00,1.63
6282.00,1.63
6281.00,1.63
6280.00,1.63
6279.00,1.63
6278.00,1.63
6277.00,1.63
6276.00,1.63
6275.00,1.63
6274.00,1.63
6273.00,1.63
6272.00,1.63
6271.00,1.63
6270.00,1.63
6269.00,1.63
6268.00,1.63
6267.00,1.63
6266.00,1.63
6265.00,1.64
6264.00,1.64
6263.00,1.64
6262.00,1.64
6261.00,1.64
6260.00,1.64
6259.00,1.64
6258.00,1.64
6257.00,1.65
6256.00,1.65
6255.00,1.65
6254.00,1.65
6253.00,1.65
6252.00,1.65
6251.00,1.65
6250.00,1.65
6249.00,1.65
6248.00,1.65
6247.00,1.65
6246.00,1.65
6245.00,1.65
6244.00,1.65
6243.00,1.65
6242.00,1.65
6241.00,1.64
6240.00,1.64
6239.00,1.64
6238.00,1.64
6237.00,1.64
6236.00,1.64
6235.00,1.64
6234.00,1.64
6233.00,1.64
6232.00,1.64
6231.00,1.64
6230.00,1.63
6229.00,1.63
6228.00,1.63
6227.00,1.63
6226.00,1.63
6225.00,1.63
6224.00,1.64
6223.00,1.64
6222.00,1.64
6221.00,1.64
6220.00,1.64
6219.00,1.64
6218.00,1.64
6217.00,1.64
6216.00,1.65
6215.00,1.65
6214.00,1.65
6213.00,1.65
6212.00,1.65
6211.00,1.65
6210.00,1.66
6209.00,1.66
6208.00,1.66
6207.00,1.66
6206.00,1.66
6205.00,1.66
6204.00,1.66
6203.00,1.66
6202.00,1.66
6201.00,1.66
6200.00,1.66
6199.00,1.66
6198.00,1.66
6197.00,1.66
6196.00,1.66
6195.00,1.66
6194.00,1.66
6193.00,1.66
6192.00,1.66
6191.00,1.66
6190.00,1.66
6189.00,1.66
6188.00,1.66
6187.00,1.66
6186.00,1.66
6185.00,1.66
6184.00,1.66
6183.00,1.66
6182.00,1.66
6181.00,1.66
6180.00,1.66
6179.00,1.66
6178.00,1.66
6177.00,1.66
6176.00,1.66
6175.00,1.66
6174.00,1.66
6173.00,1.66
6172.00,1.66
6171.00,1.66
6170.00,1.66
6169.00,1.66
6168.00,1.67
6167.00,1.67
6166.00,1.67
6165.00,1.67
6164.00,1.67
6163.00,1.67
6162.00,1.67
6161.00,1.67
6160.00,1.67
6159.00,1.67
6158.00,1.67
6157.00,1.67
6156.00,1.67
6155.00,1.67
6154.00,1.67
6153.00,1.67
6152.00,1.67
6151.00,1.67
6150.00,1.67
6149.00,1.67
6148.00,1.67
6147.00,1.67
6146.00,1.67
6145.00,1.67
6144.00,1.67
6143.00,1.67
6142.00,1.67
6141.00,1.67
6140.00,1.67
6139.00,1.67
6138.00,1.67
6137.00,1.67
6136.00,1.67
6135.00,1.67
6134.00,1.67
6133.00,1.67
6132.00,1.67
6131.00,1.67
6130.00,1.67
6129.00,1.67
6128.00,1.67
6127.00,1.67
6126.00,1.67
6125.00,1.67
6124.00,1.67
6123.00,1.67
6122.00,1.68
6121.00,1.68
6120.00,1.68
6119.00,1.68
6118.00,1.68
6117.00,1.68
6116.00,1.68
6115.00,1.68
6114.00,1.68
6113.00,1.68
6112.00,1.68
6111.00,1.68
6110.00,1.68
6109.00,1.68
6108.00,1.68
6107.00,1.68
6106.00,1.69
6105.00,1.69
6104.00,1.69
6103.00,1.69
6102.00,1.69
6101.00,1.70
6100.00,1.70
6099.00,1.70
6098.00,1.70
6097.00,1.71
6096.00,1.71
6095.00,1.71
6094.00,1.71
6093.00,1.72
6092.00,1.72
6091.00,1.72
6090.00,1.72
6089.00,1.72
6088.00,1.73
6087.00,1.73
6086.00,1.73
6085.00,1.73
6084.00,1.73
6083.00,1.73
6082.00,1.74
6081.00,1.74
6080.00,1.74
6079.00,1.74
6078.00,1.74
6077.00,1.74
6076.00,1.74
6075.00,1.74
6074.00,1.74
6073.00,1.73
6072.00,1.73
6071.00,1.73
6070.00,1.73
6069.00,1.73
6068.00,1.73
6067.00,1.73
6066.00,1.72
6065.00,1.72
6064.00,1.72
6063.00,1.72
6062.00,1.72
6061.00,1.71
6060.00,1.71
6059.00,1.71
6058.00,1.71
6057.00,1.71
6056.00,1.71
6055.00,1.71
6054.00,1.71
6053.00,1.71
6052.00,1.71
6051.00,1.71
6050.00,1.71
6049.00,1.71
6048.00,1.71
6047.00,1.71
6046.00,1.71
6045.00,1.71
6044.00,1.71
6043.00,1.71
6042.00,1.71
6041.00,1.71
6040.00,1.71
6039.00,1.71
6038.00,1.71
6037.00,1.71
6036.00,1.72
6035.00,1.72
6034.00,1.72
6033.00,1.72
6032.00,1.72
6031.00,1.72
6030.00,1.72
6029.00,1.72
6028.00,1.72
6027.00,1.72
6026.00,1.72
6025.00,1.72
6024.00,1.72
6023.00,1.72
6022.00,1.72
6021.00,1.72
6020.00,1.72
6019.00,1.72
6018.00,1.72
6017.00,1.72
6016.00,1.71
6015.00,1.71
6014.00,1.71
6013.00,1.71
6012.00,1.71
6011.00,1.71
6010.00,1.71
6009.00,1.71
6008.00,1.71
6007.00,1.71
6006.00,1.71
6005.00,1.71
6004.00,1.71
6003.00,1.71
6002.00,1.71
6001.00,1.71
6000.00,1.71
5999.00,1.71
5998.00,1.71
5997.00,1.71
5996.00,1.72
5995.00,1.72
5994.00,1.72
5993.00,1.72
5992.00,1.72
5991.00,1.72
5990.00,1.72
5989.00,1.72
5988.00,1.72
5987.00,1.72
5986.00,1.72
5985.00,1.72
5984.00,1.72
5983.00,1.72
5982.00,1.72
5981.00,1.72
5980.00,1.72
5979.00,1.72
5978.00,1.72
5977.00,1.72
5976.00,1.72
5975.00,1.71
5974.00,1.71
5973.00,1.71
5972.00,1.71
5971.00,1.71
5970.00,1.71
5969.00,1.71
5968.00,1.71
5967.00,1.70
5966.00,1.70
5965.00,1.70
5964.00,1.70
5963.00,1.70
5962.00,1.70
5961.00,1.70
5960.00,1.69
5959.00,1.69
5958.00,1.69
5957.00,1.69
5956.00,1.69
5955.00,1.69
5954.00,1.69
5953.00,1.69
5952.00,1.69
5951.00,1.69
5950.00,1.69
5949.00,1.69
5948.00,1.69
5947.00,1.69
5946.00,1.69
5945.00,1.68
5944.00,1.68
5943.00,1.68
5942.00,1.68
5941.00,1.68
5940.00,1.68
5939.00,1.68
5938.00,1.68
5937.00,1.67
5936.00,1.67
5935.00,1.67
5934.00,1.67
5933.00,1.67
5932.00,1.67
5931.00,1.66
5930.00,1.66
5929.00,1.66
5928.00,1.66
5927.00,1.66
5926.00,1.66
5925.00,1.66
5924.00,1.65
5923.00,1.65
5922.00,1.65
5921.00,1.65
5920.00,1.65
5919.00,1.65
5918.00,1.65
5917.00,1.66
5916.00,1.66
5915.00,1.66
5914.00,1.66
5913.00,1.66
5912.00,1.66
5911.00,1.66
5910.00,1.67
5909.00,1.67
5908.00,1.67
5907.00,1.67
5906.00,1.67
5905.00,1.67
5904.00,1.68
5903.00,1.68
5902.00,1.68
5901.00,1.68
5900.00,1.68
5899.00,1.68
5898.00,1.68
5897.00,1.68
5896.00,1.69
5895.00,1.69
5894.00,1.69
5893.00,1.69
5892.00,1.69
5891.00,1.69
5890.00,1.69
5889.00,1.69
5888.00,1.69
5887.00,1.69
5886.00,1.69
5885.00,1.68
5884.00,1.68
5883.00,1.68
5882.00,1.68
5881.00,1.68
5880.00,1.68
5879.00,1.68
5878.00,1.68
5877.00,1.68
5876.00,1.68
5875.00,1.68
5874.00,1.68
5873.00,1.68
5872.00,1.68
5871.00,1.68
5870.00,1.68
5869.00,1.68
5868.00,1.68
5867.00,1.68
5866.00,1.68
5865.00,1.68
5864.00,1.68
5863.00,1.68
5862.00,1.68
5861.00,1.68
5860.00,1.68
5859.00,1.68
5858.00,1.68
5857.00,1.68
5856.00,1.68
5855.00,1.68
5854.00,1.68
5853.00,1.68
5852.00,1.68
5851.00,1.68
5850.00,1.68
5849.00,1.68
5848.00,1.68
5847.00,1.68
5846.00,1.68
5845.00,1.68
5844.00,1.68
5843.00,1.68
5842.00,1.68
5841.00,1.68
5840.00,1.68
5839.00,1.68
5838.00,1.68
5837.00,1.68
5836.00,1.68
5835.00,1.68
5834.00,1.68
5833.00,1.68
5832.00,1.68
5831.00,1.68
5830.00,1.68
5829.00,1.68
5828.00,1.68
5827.00,1.68
5826.00,1.68
5825.00,1.68
5824.00,1.68
5823.00,1.68
5822.00,1.68
5821.00,1.68
5820.00,1.68
5819.00,1.68
5818.00,1.68
5817.00,1.68
5816.00,1.68
5815.00,1.68
5814.00,1.68
5813.00,1.68
5812.00,1.68
5811.00,1.67
5810.00,1.67
5809.00,1.67
5808.00,1.67
5807.00,1.67
5806.00,1.67
5805.00,1.67
5804.00,1.67
5803.00,1.67
5802.00,1.67
5801.00,1.67
5800.00,1.67
5799.00,1.67
5798.00,1.67
5797.00,1.67
5796.00,1.67
5795.00,1.67
5794.00,1.67
5793.00,1.67
5792.00,1.67
5791.00,1.67
5790.00,1.67
5789.00,1.67
5788.00,1.67
5787.00,1.67
5786.00,1.67
5785.00,1.67
5784.00,1.67
5783.00,1.67
5782.00,1.67
5781.00,1.67
5780.00,1.67
5779.00,1.68
5778.00,1.68
5777.00,1.68
5776.00,1.68
5775.00,1.68
5774.00,1.68
5773.00,1.68
5772.00,1.68
5771.00,1.68
5770.00,1.68
5769.00,1.69
5768.00,1.69
5767.00,1.69
5766.00,1.69
5765.00,1.69
5764.00,1.69
5763.00,1.69
5762.00,1.69
5761.00,1.69
5760.00,1.69
5759.00,1.69
5758.00,1.69
5757.00,1.69
5756.00,1.69
5755.00,1.69
5754.00,1.69
5753.00,1.69
5752.00,1.69
5751.00,1.69
5750.00,1.69
5749.00,1.69
5748.00,1.69
5747.00,1.69
5746.00,1.69
5745.00,1.69
5744.00,1.69
5743.00,1.69
5742.00,1.69
5741.00,1.69
5740.00,1.69
5739.00,1.68
5738.00,1.68
5737.00,1.68
5736.00,1.68
5735.00,1.68
5734.00,1.68
5733.00,1.68
5732.00,1.68
5731.00,1.68
5730.00,1.67
5729.00,1.67
5728.00,1.67
5727.00,1.67
5726.00,1.67
5725.00,1.67
5724.00,1.67
5723.00,1.67
5722.00,1.67
5721.00,1.67
5720.00,1.67
5719.00,1.67
5718.00,1.66
5717.00,1.66
5716.00,1.66
5715.00,1.66
5714.00,1.66
5713.00,1.66
5712.00,1.66
5711.00,1.67
5710.00,1.67
5709.00,1.67
5708.00,1.67
5707.00,1.67
5706.00,1.67
5705.00,1.67
5704.00,1.67
5703.00,1.67
5702.00,1.67
5701.00,1.67
5700.00,1.67
5699.00,1.67
5698.00,1.67
5697.00,1.67
5696.00,1.67
5695.00,1.67
5694.00,1.67
5693.00,1.67
5692.00,1.67
5691.00,1.67
5690.00,1.67
5689.00,1.67
5688.00,1.67
5687.00,1.67
5686.00,1.67
5685.00,1.67
5684.00,1.67
5683.00,1.67
5682.00,1.67
5681.00,1.67
5680.00,1.67
5679.00,1.66
5678.00,1.66
5677.00,1.66
5676.00,1.66
5675.00,1.66
5674.00,1.66
5673.00,1.66
5672.00,1.66
5671.00,1.66
5670.00,1.66
5669.00,1.66
5668.00,1.66
5667.00,1.67
5666.00,1.67
5665.00,1.67
5664.00,1.67
5663.00,1.67
5662.00,1.67
5661.00,1.67
5660.00,1.67
5659.00,1.67
5658.00,1.67
5657.00,1.67
5656.00,1.67
5655.00,1.68
5654.00,1.68
5653.00,1.68
5652.00,1.68
5651.00,1.68
5650.00,1.68
5649.00,1.68
5648.00,1.68
5647.00,1.68
5646.00,1.68
5645.00,1.67
5644.00,1.67
5643.00,1.67
5642.00,1.67
5641.00,1.67
5640.00,1.67
5639.00,1.67
5638.00,1.67
5637.00,1.67
5636.00,1.67
5635.00,1.67
5634.00,1.67
5633.00,1.67
5632.00,1.67
5631.00,1.67
5630.00,1.67
5629.00,1.67
5628.00,1.67
5627.00,1.67
5626.00,1.67
5625.00,1.67
5624.00,1.67
5623.00,1.67
5622.00,1.67
5621.00,1.67
5620.00,1.67
5619.00,1.67
5618.00,1.67
5617.00,1.67
5616.00,1.68
5615.00,1.68
5614.00,1.68
5613.00,1.68
5612.00,1.68
5611.00,1.68
5610.00,1.68
5609.00,1.68
5608.00,1.68
5607.00,1.68
5606.00,1.68
5605.00,1.68
5604.00,1.68
5603.00,1.68
5602.00,1.69
5601.00,1.69
5600.00,1.69
5599.00,1.69
5598.00,1.69
5597.00,1.69
5596.00,1.69
5595.00,1.69
5594.00,1.69
5593.00,1.69
5592.00,1.69
5591.00,1.69
5590.00,1.69
5589.00,1.69
5588.00,1.69
5587.00,1.69
5586.00,1.69
5585.00,1.69
5584.00,1.69
5583.00,1.69
5582.00,1.69
5581.00,1.69
5580.00,1.69
5579.00,1.69
5578.00,1.69
5577.00,1.69
5576.00,1.69
5575.00,1.69
5574.00,1.69
5573.00,1.69
5572.00,1.69
5571.00,1.69
5570.00,1.69
5569.00,1.69
5568.00,1.69
5567.00,1.70
5566.00,1.70
5565.00,1.70
5564.00,1.70
5563.00,1.70
5562.00,1.70
5561.00,1.70
5560.00,1.70
5559.00,1.70
5558.00,1.71
5557.00,1.71
5556.00,1.71
5555.00,1.71
5554.00,1.71
5553.00,1.71
5552.00,1.71
5551.00,1.71
5550.00,1.71
5549.00,1.71
5548.00,1.72
5547.00,1.72
5546.00,1.72
5545.00,1.72
5544.00,1.72
5543.00,1.72
5542.00,1.72
5541.00,1.72
5540.00,1.72
5539.00,1.72
5538.00,1.72
5537.00,1.72
5536.00,1.72
5535.00,1.72
5534.00,1.72
5533.00,1.72
5532.00,1.72
5531.00,1.72
5530.00,1.72
5529.00,1.72
5528.00,1.72
5527.00,1.72
5526.00,1.72
5525.00,1.72
5524.00,1.72
5523.00,1.72
5522.00,1.72
5521.00,1.73
5520.00,1.73
5519.00,1.73
5518.00,1.73
5517.00,1.73
5516.00,1.73
5515.00,1.73
5514.00,1.73
5513.00,1.73
5512.00,1.73
5511.00,1.74
5510.00,1.74
5509.00,1.74
5508.00,1.74
5507.00,1.74
5506.00,1.74
5505.00,1.73
5504.00,1.73
5503.00,1.73
5502.00,1.73
5501.00,1.73
5500.00,1.73
5499.00,1.73
5498.00,1.73
5497.00,1.73
5496.00,1.73
5495.00,1.73
5494.00,1.73
5493.00,1.72
5492.00,1.72
5491.00,1.72
5490.00,1.72
5489.00,1.72
5488.00,1.72
5487.00,1.72
5486.00,1.72
5485.00,1.72
5484.00,1.71
5483.00,1.71
5482.00,1.71
5481.00,1.71
5480.00,1.71
5479.00,1.71
5478.00,1.71
5477.00,1.71
5476.00,1.71
5475.00,1.71
5474.00,1.71
5473.00,1.71
5472.00,1.71
5471.00,1.71
5470.00,1.71
5469.00,1.71
5468.00,1.71
5467.00,1.71
5466.00,1.71
5465.00,1.71
5464.00,1.71
5463.00,1.71
5462.00,1.71
5461.00,1.71
5460.00,1.70
5459.00,1.70
5458.00,1.70
5457.00,1.70
5456.00,1.70
5455.00,1.70
5454.00,1.69
5453.00,1.69
5452.00,1.69
5451.00,1.69
5450.00,1.69
5449.00,1.68
5448.00,1.68
5447.00,1.68
5446.00,1.67
5445.00,1.67
5444.00,1.67
5443.00,1.67
5442.00,1.67
5441.00,1.66
5440.00,1.66
5439.00,1.66
5438.00,1.66
5437.00,1.66
5436.00,1.66
5435.00,1.66
5434.00,1.65
5433.00,1.65
5432.00,1.65
5431.00,1.65
5430.00,1.65
5429.00,1.65
5428.00,1.65
5427.00,1.65
5426.00,1.65
5425.00,1.65
5424.00,1.65
5423.00,1.65
5422.00,1.65
5421.00,1.65
5420.00,1.65
5419.00,1.65
5418.00,1.65
5417.00,1.65
5416.00,1.65
5415.00,1.65
5414.00,1.65
5413.00,1.65
5412.00,1.65
5411.00,1.65
5410.00,1.65
5409.00,1.65
5408.00,1.65
5407.00,1.65
5406.00,1.65
5405.00,1.65
5404.00,1.65
5403.00,1.65
5402.00,1.65
5401.00,1.65
5400.00,1.65
5399.00,1.65
5398.00,1.65
5397.00,1.65
5396.00,1.65
5395.00,1.65
5394.00,1.65
5393.00,1.65
5392.00,1.65
5391.00,1.65
5390.00,1.65
5389.00,1.65
5388.00,1.65
5387.00,1.65
5386.00,1.65
5385.00,1.65
5384.00,1.65
5383.00,1.65
5382.00,1.66
5381.00,1.66
5380.00,1.66
5379.00,1.66
5378.00,1.66
5377.00,1.66
5376.00,1.66
5375.00,1.66
5374.00,1.66
5373.00,1.66
5372.00,1.66
5371.00,1.66
5370.00,1.66
5369.00,1.66
5368.00,1.66
5367.00,1.66
5366.00,1.66
5365.00,1.66
5364.00,1.65
5363.00,1.65
5362.00,1.65
5361.00,1.65
5360.00,1.64
5359.00,1.64
5358.00,1.64
5357.00,1.63
5356.00,1.63
5355.00,1.62
5354.00,1.62
5353.00,1.61
5352.00,1.60
5351.00,1.60
5350.00,1.59
5349.00,1.59
5348.00,1.58
5347.00,1.58
5346.00,1.57
5345.00,1.56
5344.00,1.56
5343.00,1.55
5342.00,1.54
5341.00,1.54
5340.00,1.53
5339.00,1.53
5338.00,1.52
5337.00,1.51
5336.00,1.51
5335.00,1.50
5334.00,1.50
5333.00,1.49
5332.00,1.49
5331.00,1.49
5330.00,1.48
5329.00,1.48
5328.00,1.47
5327.00,1.47
5326.00,1.46
5325.00,1.46
5324.00,1.46
5323.00,1.45
5322.00,1.45
5321.00,1.45
5320.00,1.44
5319.00,1.44
5318.00,1.43
5317.00,1.43
5316.00,1.42
5315.00,1.42
5314.00,1.41
5313.00,1.41
5312.00,1.40
5311.00,1.40
5310.00,1.39
5309.00,1.38
5308.00,1.38
5307.00,1.37
5306.00,1.36
5305.00,1.36
5304.00,1.35
5303.00,1.34
5302.00,1.34
5301.00,1.33
5300.00,1.32
5299.00,1.31
5298.00,1.31
5297.00,1.30
5296.00,1.29
5295.00,1.28
5294.00,1.28
5293.00,1.27
5292.00,1.26
5291.00,1.25
5290.00,1.25
5289.00,1.24
5288.00,1.23
5287.00,1.23
5286.00,1.22
5285.00,1.21
5284.00,1.21
5283.00,1.20
5282.00,1.20
5281.00,1.19
5280.00,1.18
5279.00,1.18
5278.00,1.17
5277.00,1.17
5276.00,1.16
5275.00,1.15
5274.00,1.15
5273.00,1.14
5272.00,1.14
5271.00,1.13
5270.00,1.12
5269.00,1.12
5268.00,1.11
5267.00,1.10
5266.00,1.10
5265.00,1.09
5264.00,1.09
5263.00,1.08
5262.00,1.07
5261.00,1.07
5260.00,1.06
5259.00,1.06
5258.00,1.05
5257.00,1.05
5256.00,1.04
5255.00,1.04
5254.00,1.04
5253.00,1.03
5252.00,1.03
5251.00,1.02
5250.00,1.02
5249.00,1.02
5248.00,1.01
5247.00,1.01
5246.00,1.01
5245.00,1.01
5244.00,1.01
5243.00,1.00
5242.00,1.00
5241.00,1.00
5240.00,1.00
5239.00,1.00
5238.00,1.00
5237.00,1.00
5236.00,1.00
5235.00,1.00
5234.00,1.00
5233.00,1.00
5232.00,1.00
5231.00,0.99
5230.00,0.99
5229.00,0.99
5228.00,0.99
5227.00,0.99
5226.00,0.99
5225.00,0.99
5224.00,0.98
5223.00,0.98
5222.00,0.98
5221.00,0.98
5220.00,0.98
5219.00,0.97
5218.00,0.97
5217.00,0.97
5216.00,0.97
5215.00,0.97
5214.00,0.97
5213.00,0.96
5212.00,0.96
5211.00,0.96
5210.00,0.96
5209.00,0.96
5208.00,0.96
5207.00,0.95
5206.00,0.95
5205.00,0.95
5204.00,0.95
5203.00,0.95
5202.00,0.95
5201.00,0.95
5200.00,0.95
5199.00,0.95
5198.00,0.95
5197.00,0.95
5196.00,0.95
5195.00,0.95
5194.00,0.95
5193.00,0.95
5192.00,0.95
5191.00,0.95
5190.00,0.95
5189.00,0.95
5188.00,0.95
5187.00,0.95
5186.00,0.95
5185.00,0.95
5184.00,0.95
5183.00,0.95
5182.00,0.95
5181.00,0.95
5180.00,0.95
5179.00,0.95
5178.00,0.95
5177.00,0.95
5176.00,0.95
5175.00,0.95
5174.00,0.95
5173.00,0.95
5172.00,0.95
5171.00,0.95
5170.00,0.95
5169.00,0.95
5168.00,0.95
5167.00,0.95
5166.00,0.95
5165.00,0.95
5164.00,0.95
5163.00,0.95
5162.00,0.95
5161.00,0.95
5160.00,0.96
5159.00,0.96
5158.00,0.96
5157.00,0.96
5156.00,0.96
5155.00,0.96
5154.00,0.96
5153.00,0.96
5152.00,0.96
5151.00,0.96
5150.00,0.96
5149.00,0.96
5148.00,0.97
5147.00,0.97
5146.00,0.97
5145.00,0.97
5144.00,0.97
5143.00,0.97
5142.00,0.97
5141.00,0.97
5140.00,0.97
5139.00,0.97
5138.00,0.98
5137.00,0.98
5136.00,0.98
5135.00,0.98
5134.00,0.98
5133.00,0.98
5132.00,0.98
5131.00,0.98
5130.00,0.99
5129.00,0.99
5128.00,0.99
5127.00,0.99
5126.00,0.99
5125.00,0.99
5124.00,0.99
5123.00,1.00
5122.00,1.00
5121.00,1.00
5120.00,1.00
5119.00,1.00
5118.00,1.00
5117.00,1.01
5116.00,1.01
5115.00,1.01
5114.00,1.01
5113.00,1.01
5112.00,1.02
5111.00,1.02
5110.00,1.02
5109.00,1.02
5108.00,1.03
5107.00,1.03
5106.00,1.03
5105.00,1.03
5104.00,1.03
5103.00,1.04
5102.00,1.04
5101.00,1.04
5100.00,1.04
5099.00,1.04
5098.00,1.04
5097.00,1.04
5096.00,1.05
5095.00,1.05
5094.00,1.05
5093.00,1.05
5092.00,1.05
5091.00,1.05
5090.00,1.05
5089.00,1.05
5088.00,1.06
5087.00,1.06
5086.00,1.06
5085.00,1.06
5084.00,1.06
5083.00,1.06
5082.00,1.06
5081.00,1.06
5080.00,1.06
5079.00,1.06
5078.00,1.06
5077.00,1.06
5076.00,1.06
5075.00,1.06
5074.00,1.07
5073.00,1.07
5072.00,1.07
5071.00,1.07
5070.00,1.07
5069.00,1.07
5068.00,1.07
5067.00,1.07
5066.00,1.08
5065.00,1.08
5064.00,1.08
5063.00,1.08
5062.00,1.08
5061.00,1.08
5060.00,1.09
5059.00,1.09
5058.00,1.09
5057.00,1.09
5056.00,1.09
5055.00,1.10
5054.00,1.10
5053.00,1.10
5052.00,1.10
5051.00,1.10
5050.00,1.11
5049.00,1.11
5048.00,1.11
5047.00,1.11
5046.00,1.11
5045.00,1.12
5044.00,1.12
5043.00,1.12
5042.00,1.12
5041.00,1.12
5040.00,1.13
5039.00,1.13
5038.00,1.13
5037.00,1.13
5036.00,1.14
5035.00,1.14
5034.00,1.14
5033.00,1.14
5032.00,1.15
5031.00,1.15
5030.00,1.15
5029.00,1.15
5028.00,1.16
5027.00,1.16
5026.00,1.16
5025.00,1.16
5024.00,1.17
5023.00,1.17
5022.00,1.17
5021.00,1.17
5020.00,1.18
5019.00,1.18
5018.00,1.18
5017.00,1.18
5016.00,1.19
5015.00,1.19
5014.00,1.19
5013.00,1.19
5012.00,1.19
5011.00,1.20
5010.00,1.20
5009.00,1.20
5008.00,1.20
5007.00,1.20
5006.00,1.21
5005.00,1.21
5004.00,1.21
5003.00,1.21
5002.00,1.21
5001.00,1.22
5000.00,1.22
4999.00,1.22
4998.00,1.22
4997.00,1.22
4996.00,1.23
4995.00,1.23
4994.00,1.23
4993.00,1.23
4992.00,1.24
4991.00,1.24
4990.00,1.24
4989.00,1.24
4988.00,1.25
4987.00,1.25
4986.00,1.25
4985.00,1.26
4984.00,1.26
4983.00,1.27
4982.00,1.27
4981.00,1.27
4980.00,1.28
4979.00,1.28
4978.00,1.28
4977.00,1.28
4976.00,1.29
4975.00,1.29
4974.00,1.29
4973.00,1.30
4972.00,1.30
4971.00,1.30
4970.00,1.30
4969.00,1.30
4968.00,1.31
4967.00,1.31
4966.00,1.31
4965.00,1.31
4964.00,1.31
4963.00,1.31
4962.00,1.31
4961.00,1.31
4960.00,1.32
4959.00,1.32
4958.00,1.32
4957.00,1.32
4956.00,1.32
4955.00,1.32
4954.00,1.32
4953.00,1.32
4952.00,1.32
4951.00,1.32
4950.00,1.32
4949.00,1.33
4948.00,1.33
4947.00,1.33
4946.00,1.33
4945.00,1.33
4944.00,1.34
4943.00,1.34
4942.00,1.34
4941.00,1.34
4940.00,1.34
4939.00,1.35
4938.00,1.35
4937.00,1.35
4936.00,1.35
4935.00,1.35
4934.00,1.36
4933.00,1.36
4932.00,1.36
4931.00,1.36
4930.00,1.36
4929.00,1.37
4928.00,1.37
4927.00,1.37
4926.00,1.37
4925.00,1.37
4924.00,1.37
4923.00,1.37
4922.00,1.37
4921.00,1.37
4920.00,1.37
4919.00,1.38
4918.00,1.38
4917.00,1.38
4916.00,1.38
4915.00,1.38
4914.00,1.38
4913.00,1.38
4912.00,1.38
4911.00,1.38
4910.00,1.38
4909.00,1.38
4908.00,1.38
4907.00,1.38
4906.00,1.38
4905.00,1.38
4904.00,1.39
4903.00,1.39
4902.00,1.39
4901.00,1.39
4900.00,1.39
4899.00,1.39
4898.00,1.39
4897.00,1.40
4896.00,1.40
4895.00,1.40
4894.00,1.40
4893.00,1.40
4892.00,1.41
4891.00,1.41
4890.00,1.41
4889.00,1.41
4888.00,1.41
4887.00,1.42
4886.00,1.42
4885.00,1.42
4884.00,1.42
4883.00,1.42
4882.00,1.43
4881.00,1.43
4880.00,1.43
4879.00,1.43
4878.00,1.44
4877.00,1.44
4876.00,1.44
4875.00,1.44
4874.00,1.45
4873.00,1.45
4872.00,1.45
4871.00,1.45
4870.00,1.45
4869.00,1.45
4868.00,1.45
4867.00,1.46
4866.00,1.46
4865.00,1.46
4864.00,1.46
4863.00,1.46
4862.00,1.46
4861.00,1.47
4860.00,1.47
4859.00,1.47
4858.00,1.47
4857.00,1.47
4856.00,1.47
4855.00,1.47
4854.00,1.48
4853.00,1.48
4852.00,1.48
4851.00,1.48
4850.00,1.48
4849.00,1.48
4848.00,1.48
4847.00,1.48
4846.00,1.49
4845.00,1.49
4844.00,1.49
4843.00,1.49
4842.00,1.49
4841.00,1.49
4840.00,1.50
4839.00,1.50
4838.00,1.50
4837.00,1.50
4836.00,1.50
4835.00,1.50
4834.00,1.50
4833.00,1.50
4832.00,1.50
4831.00,1.50
4830.00,1.50
4829.00,1.50
4828.00,1.50
4827.00,1.50
4826.00,1.50
4825.00,1.51
4824.00,1.51
4823.00,1.51
4822.00,1.51
4821.00,1.51
4820.00,1.51
4819.00,1.51
4818.00,1.51
4817.00,1.51
4816.00,1.51
4815.00,1.52
4814.00,1.52
4813.00,1.52
4812.00,1.52
4811.00,1.52
4810.00,1.52
4809.00,1.53
4808.00,1.53
4807.00,1.53
4806.00,1.53
4805.00,1.54
4804.00,1.54
4803.00,1.54
4802.00,1.54
4801.00,1.55
4800.00,1.55
4799.00,1.55
4798.00,1.55
4797.00,1.56
4796.00,1.56
4795.00,1.56
4794.00,1.56
4793.00,1.57
4792.00,1.57
4791.00,1.57
4790.00,1.57
4789.00,1.58
4788.00,1.58
4787.00,1.58
4786.00,1.58
4785.00,1.59
4784.00,1.59
4783.00,1.59
4782.00,1.59
4781.00,1.59
4780.00,1.60
4779.00,1.60
4778.00,1.60
4777.00,1.60
4776.00,1.60
4775.00,1.61
4774.00,1.61
4773.00,1.61
4772.00,1.61
4771.00,1.61
4770.00,1.61
4769.00,1.62
4768.00,1.62
4767.00,1.62
4766.00,1.62
4765.00,1.62
4764.00,1.62
4763.00,1.63
4762.00,1.63
4761.00,1.63
4760.00,1.63
4759.00,1.63
4758.00,1.63
4757.00,1.63
4756.00,1.63
4755.00,1.63
4754.00,1.63
4753.00,1.63
4752.00,1.64
4751.00,1.64
4750.00,1.64
4749.00,1.64
4748.00,1.64
4747.00,1.64
4746.00,1.64
4745.00,1.64
4744.00,1.64
4743.00,1.64
4742.00,1.64
4741.00,1.65
4740.00,1.65
4739.00,1.65
4738.00,1.65
4737.00,1.65
4736.00,1.65
4735.00,1.65
4734.00,1.65
4733.00,1.66
4732.00,1.66
4731.00,1.66
4730.00,1.66
4729.00,1.66
4728.00,1.66
4727.00,1.67
4726.00,1.67
4725.00,1.67
4724.00,1.67
4723.00,1.67
4722.00,1.68
4721.00,1.68
4720.00,1.68
4719.00,1.68
4718.00,1.69
4717.00,1.69
4716.00,1.69
4715.00,1.69
4714.00,1.69
4713.00,1.69
4712.00,1.70
4711.00,1.70
4710.00,1.70
4709.00,1.70
4708.00,1.70
4707.00,1.70
4706.00,1.71
4705.00,1.71
4704.00,1.71
4703.00,1.71
4702.00,1.71
4701.00,1.72
4700.00,1.72
4699.00,1.72
4698.00,1.72
4697.00,1.72
4696.00,1.72
4695.00,1.72
4694.00,1.72
4693.00,1.72
4692.00,1.72
4691.00,1.73
4690.00,1.73
4689.00,1.73
4688.00,1.73
4687.00,1.73
4686.00,1.73
4685.00,1.73
4684.00,1.73
4683.00,1.73
4682.00,1.73
4681.00,1.73
4680.00,1.73
4679.00,1.73
4678.00,1.73
4677.00,1.73
4676.00,1.73
4675.00,1.73
4674.00,1.73
4673.00,1.73
4672.00,1.73
4671.00,1.73
4670.00,1.73
4669.00,1.73
4668.00,1.73
4667.00,1.73
4666.00,1.73
4665.00,1.73
4664.00,1.73
4663.00,1.73
4662.00,1.73
4661.00,1.73
4660.00,1.73
4659.00,1.73
4658.00,1.73
4657.00,1.73
4656.00,1.73
4655.00,1.73
4654.00,1.73
4653.00,1.73
4652.00,1.73
4651.00,1.73
4650.00,1.73
4649.00,1.73
4648.00,1.73
4647.00,1.73
4646.00,1.73
4645.00,1.73
4644.00,1.73
4643.00,1.73
4642.00,1.73
4641.00,1.73
4640.00,1.73
4639.00,1.73
4638.00,1.73
4637.00,1.73
4636.00,1.73
4635.00,1.73
4634.00,1.73
4633.00,1.73
4632.00,1.73
4631.00,1.73
4630.00,1.73
4629.00,1.73
4628.00,1.73
4627.00,1.73
4626.00,1.73
4625.00,1.73
4624.00,1.73
4623.00,1.73
4622.00,1.73
4621.00,1.73
4620.00,1.73
4619.00,1.73
4618.00,1.73
4617.00,1.73
4616.00,1.73
4615.00,1.73
4614.00,1.73
4613.00,1.73
4612.00,1.73
4611.00,1.73
4610.00,1.72
4609.00,1.72
4608.00,1.72
4607.00,1.72
4606.00,1.72
4605.00,1.72
4604.00,1.72
4603.00,1.72
4602.00,1.72
4601.00,1.72
4600.00,1.72
4599.00,1.72
4598.00,1.72
4597.00,1.72
4596.00,1.72
4595.00,1.72
4594.00,1.72
4593.00,1.72
4592.00,1.72
4591.00,1.72
4590.00,1.72
4589.00,1.72
4588.00,1.72
4587.00,1.72
4586.00,1.72
4585.00,1.72
4584.00,1.72
4583.00,1.72
4582.00,1.72
4581.00,1.72
4580.00,1.72
4579.00,1.73
4578.00,1.73
4577.00,1.73
4576.00,1.73
4575.00,1.73
4574.00,1.73
4573.00,1.73
4572.00,1.73
4571.00,1.73
4570.00,1.73
4569.00,1.73
4568.00,1.73
4567.00,1.73
4566.00,1.72
4565.00,1.72
4564.00,1.72
4563.00,1.72
4562.00,1.72
4561.00,1.72
4560.00,1.72
4559.00,1.72
4558.00,1.72
4557.00,1.72
4556.00,1.72
4555.00,1.71
4554.00,1.71
4553.00,1.71
4552.00,1.71
4551.00,1.71
4550.00,1.71
4549.00,1.71
4548.00,1.71
4547.00,1.71
4546.00,1.71
4545.00,1.71
4544.00,1.71
4543.00,1.71
4542.00,1.71
4541.00,1.71
4540.00,1.71
4539.00,1.71
4538.00,1.71
4537.00,1.71
4536.00,1.71
4535.00,1.71
4534.00,1.71
4533.00,1.71
4532.00,1.71
4531.00,1.71
4530.00,1.71
4529.00,1.71
4528.00,1.70
4527.00,1.70
4526.00,1.70
4525.00,1.70
4524.00,1.70
4523.00,1.70
4522.00,1.70
4521.00,1.70
4520.00,1.70
4519.00,1.70
4518.00,1.70
4517.00,1.70
4516.00,1.70
4515.00,1.70
4514.00,1.70
4513.00,1.70
4512.00,1.70
4511.00,1.70
4510.00,1.70
4509.00,1.70
4508.00,1.70
4507.00,1.70
4506.00,1.70
4505.00,1.70
4504.00,1.70
4503.00,1.70
4502.00,1.71
4501.00,1.71
4500.00,1.71
4499.00,1.71
4498.00,1.71
4497.00,1.71
4496.00,1.71
4495.00,1.71
4494.00,1.71
4493.00,1.72
4492.00,1.72
4491.00,1.72
4490.00,1.72
4489.00,1.72
4488.00,1.72
4487.00,1.72
4486.00,1.72
4485.00,1.72
4484.00,1.73
4483.00,1.73
4482.00,1.73
4481.00,1.72
4480.00,1.72
4479.00,1.72
4478.00,1.72
4477.00,1.72
4476.00,1.72
4475.00,1.72
4474.00,1.72
4473.00,1.72
4472.00,1.71
4471.00,1.71
4470.00,1.71
4469.00,1.71
4468.00,1.71
4467.00,1.71
4466.00,1.70
4465.00,1.70
4464.00,1.70
4463.00,1.70
4462.00,1.69
4461.00,1.69
4460.00,1.69
4459.00,1.68
4458.00,1.68
4457.00,1.68
4456.00,1.67
4455.00,1.67
4454.00,1.67
4453.00,1.66
4452.00,1.66
4451.00,1.66
4450.00,1.65
4449.00,1.65
4448.00,1.65
4447.00,1.64
4446.00,1.64
4445.00,1.63
4444.00,1.63
4443.00,1.63
4442.00,1.62
4441.00,1.62
4440.00,1.61
4439.00,1.61
4438.00,1.61
4437.00,1.60
4436.00,1.60
4435.00,1.60
4434.00,1.59
4433.00,1.59
4432.00,1.59
4431.00,1.59
4430.00,1.58
4429.00,1.58
4428.00,1.58
4427.00,1.58
4426.00,1.58
4425.00,1.57
4424.00,1.57
4423.00,1.57
4422.00,1.57
4421.00,1.57
4420.00,1.56
4419.00,1.56
4418.00,1.56
4417.00,1.56
4416.00,1.56
4415.00,1.56
4414.00,1.56
4413.00,1.56
4412.00,1.56
4411.00,1.56
4410.00,1.56
4409.00,1.56
4408.00,1.56
4407.00,1.56
4406.00,1.56
4405.00,1.56
4404.00,1.56
4403.00,1.57
4402.00,1.57
4401.00,1.57
4400.00,1.57
4399.00,1.58
4398.00,1.58
4397.00,1.58
4396.00,1.59
4395.00,1.59
4394.00,1.59
4393.00,1.60
4392.00,1.60
4391.00,1.61
4390.00,1.61
4389.00,1.62
4388.00,1.62
4387.00,1.62
4386.00,1.63
4385.00,1.63
4384.00,1.63
4383.00,1.63
4382.00,1.64
4381.00,1.64
4380.00,1.64
4379.00,1.64
4378.00,1.64
4377.00,1.64
4376.00,1.64
4375.00,1.64
4374.00,1.64
4373.00,1.64
4372.00,1.64
4371.00,1.64
4370.00,1.63
4369.00,1.63
4368.00,1.63
4367.00,1.63
4366.00,1.62
4365.00,1.62
4364.00,1.62
4363.00,1.61
4362.00,1.61
4361.00,1.61
4360.00,1.61
4359.00,1.60
4358.00,1.60
4357.00,1.60
4356.00,1.59
4355.00,1.59
4354.00,1.59
4353.00,1.58
4352.00,1.58
4351.00,1.58
4350.00,1.58
4349.00,1.58
4348.00,1.57
4347.00,1.57
4346.00,1.57
4345.00,1.57
4344.00,1.57
4343.00,1.57
4342.00,1.57
4341.00,1.57
4340.00,1.57
4339.00,1.57
4338.00,1.57
4337.00,1.58
4336.00,1.58
4335.00,1.58
4334.00,1.58
4333.00,1.58
4332.00,1.59
4331.00,1.59
4330.00,1.59
4329.00,1.59
4328.00,1.60
4327.00,1.60
4326.00,1.60
4325.00,1.60
4324.00,1.61
4323.00,1.61
4322.00,1.61
4321.00,1.62
4320.00,1.62
4319.00,1.62
4318.00,1.63
4317.00,1.63
4316.00,1.63
4315.00,1.63
4314.00,1.64
4313.00,1.64
4312.00,1.64
4311.00,1.64
4310.00,1.64
4309.00,1.64
4308.00,1.65
4307.00,1.65
4306.00,1.65
4305.00,1.65
4304.00,1.65
4303.00,1.65
4302.00,1.66
4301.00,1.66
4300.00,1.66
4299.00,1.66
4298.00,1.66
4297.00,1.66
4296.00,1.67
4295.00,1.67
4294.00,1.67
4293.00,1.67
4292.00,1.67
4291.00,1.67
4290.00,1.67
4289.00,1.67
4288.00,1.67
4287.00,1.67
4286.00,1.67
4285.00,1.67
4284.00,1.67
4283.00,1.67
4282.00,1.67
4281.00,1.67
4280.00,1.67
4279.00,1.67
4278.00,1.67
4277.00,1.67
4276.00,1.67
4275.00,1.67
4274.00,1.67
4273.00,1.67
4272.00,1.67
4271.00,1.67
4270.00,1.67
4269.00,1.67
4268.00,1.67
4267.00,1.67
4266.00,1.67
4265.00,1.67
4264.00,1.67
4263.00,1.67
4262.00,1.67
4261.00,1.67
4260.00,1.67
4259.00,1.67
4258.00,1.67
4257.00,1.68
4256.00,1.68
4255.00,1.68
4254.00,1.68
4253.00,1.68
4252.00,1.68
4251.00,1.69
4250.00,1.69
4249.00,1.69
4248.00,1.69
4247.00,1.70
4246.00,1.70
4245.00,1.70
4244.00,1.70
4243.00,1.71
4242.00,1.71
4241.00,1.71
4240.00,1.71
4239.00,1.72
4238.00,1.72
4237.00,1.72
4236.00,1.72
4235.00,1.72
4234.00,1.72
4233.00,1.72
4232.00,1.72
4231.00,1.72
4230.00,1.72
4229.00,1.72
4228.00,1.72
4227.00,1.71
4226.00,1.71
4225.00,1.71
4224.00,1.71
4223.00,1.71
4222.00,1.71
4221.00,1.71
4220.00,1.70
4219.00,1.70
4218.00,1.70
4217.00,1.70
4216.00,1.70
4215.00,1.69
4214.00,1.69
4213.00,1.69
4212.00,1.69
4211.00,1.69
4210.00,1.69
4209.00,1.69
4208.00,1.68
4207.00,1.68
4206.00,1.68
4205.00,1.68
4204.00,1.68
4203.00,1.68
4202.00,1.68
4201.00,1.68
4200.00,1.68
4199.00,1.68
4198.00,1.68
4197.00,1.68
4196.00,1.68
4195.00,1.68
4194.00,1.68
4193.00,1.68
4192.00,1.68
4191.00,1.68
4190.00,1.67
4189.00,1.67
4188.00,1.67
4187.00,1.67
4186.00,1.67
4185.00,1.67
4184.00,1.67
4183.00,1.67
4182.00,1.67
4181.00,1.67
4180.00,1.67
4179.00,1.67
4178.00,1.66
4177.00,1.66
4176.00,1.66
4175.00,1.66
4174.00,1.65
4173.00,1.65
4172.00,1.65
4171.00,1.65
4170.00,1.65
4169.00,1.65
4168.00,1.64
4167.00,1.64
4166.00,1.64
4165.00,1.64
4164.00,1.64
4163.00,1.64
4162.00,1.64
4161.00,1.64
4160.00,1.64
4159.00,1.64
4158.00,1.63
4157.00,1.63
4156.00,1.63
4155.00,1.63
4154.00,1.63
4153.00,1.63
4152.00,1.63
4151.00,1.63
4150.00,1.63
4149.00,1.63
4148.00,1.64
4147.00,1.64
4146.00,1.64
4145.00,1.64
4144.00,1.65
4143.00,1.65
4142.00,1.65
4141.00,1.65
4140.00,1.66
4139.00,1.66
4138.00,1.66
4137.00,1.67
4136.00,1.67
4135.00,1.67
4134.00,1.67
4133.00,1.68
4132.00,1.68
4131.00,1.68
4130.00,1.69
4129.00,1.69
4128.00,1.69
4127.00,1.69
4126.00,1.70
4125.00,1.70
4124.00,1.70
4123.00,1.70
4122.00,1.70
4121.00,1.70
4120.00,1.70
4119.00,1.70
4118.00,1.70
4117.00,1.70
4116.00,1.70
4115.00,1.70
4114.00,1.70
4113.00,1.69
4112.00,1.69
4111.00,1.69
4110.00,1.69
4109.00,1.68
4108.00,1.68
4107.00,1.68
4106.00,1.68
4105.00,1.68
4104.00,1.67
4103.00,1.67
4102.00,1.67
4101.00,1.67
4100.00,1.66
4099.00,1.66
4098.00,1.66
4097.00,1.65
4096.00,1.65
4095.00,1.65
4094.00,1.64
4093.00,1.64
4092.00,1.64
4091.00,1.64
4090.00,1.64
4089.00,1.64
4088.00,1.64
4087.00,1.64
4086.00,1.64
4085.00,1.64
4084.00,1.64
4083.00,1.64
4082.00,1.64
4081.00,1.64
4080.00,1.64
4079.00,1.64
4078.00,1.64
4077.00,1.64
4076.00,1.64
4075.00,1.64
4074.00,1.64
4073.00,1.64
4072.00,1.64
4071.00,1.65
4070.00,1.65
4069.00,1.65
4068.00,1.65
4067.00,1.65
4066.00,1.65
4065.00,1.65
4064.00,1.65
4063.00,1.65
4062.00,1.65
4061.00,1.64
4060.00,1.64
4059.00,1.64
4058.00,1.64
4057.00,1.63
4056.00,1.63
4055.00,1.63
4054.00,1.63
4053.00,1.62
4052.00,1.62
4051.00,1.62
4050.00,1.62
4049.00,1.62
4048.00,1.62
4047.00,1.62
4046.00,1.62
4045.00,1.61
4044.00,1.61
4043.00,1.61
4042.00,1.61
4041.00,1.61
4040.00,1.62
4039.00,1.62
4038.00,1.62
4037.00,1.62
4036.00,1.62
4035.00,1.63
4034.00,1.63
4033.00,1.63
4032.00,1.64
4031.00,1.64
4030.00,1.65
4029.00,1.65
4028.00,1.66
4027.00,1.66
4026.00,1.67
4025.00,1.67
4024.00,1.67
4023.00,1.68
4022.00,1.68
4021.00,1.68
4020.00,1.69
4019.00,1.69
4018.00,1.69
4017.00,1.69
4016.00,1.69
4015.00,1.68
4014.00,1.68
4013.00,1.67
4012.00,1.67
4011.00,1.66
4010.00,1.66
4009.00,1.65
4008.00,1.64
4007.00,1.63
4006.00,1.62
4005.00,1.61
4004.00,1.59
4003.00,1.58
4002.00,1.57
4001.00,1.55
4000.00,1.54
