创建为新数据集,样品 326 用户 Administrator 日期 星期六, 七月 27 2019
cm-1,%T
10000.00,1.42
9999.00,1.42
9998.00,1.41
9997.00,1.41
9996.00,1.41
9995.00,1.40
9994.00,1.40
9993.00,1.40
9992.00,1.40
9991.00,1.39
9990.00,1.39
9989.00,1.39
9988.00,1.39
9987.00,1.39
9986.00,1.40
9985.00,1.40
9984.00,1.40
9983.00,1.41
9982.00,1.41
9981.00,1.42
9980.00,1.42
9979.00,1.43
9978.00,1.44
9977.00,1.44
9976.00,1.44
9975.00,1.45
9974.00,1.45
9973.00,1.45
9972.00,1.45
9971.00,1.45
9970.00,1.44
9969.00,1.44
9968.00,1.43
9967.00,1.42
9966.00,1.41
9965.00,1.40
9964.00,1.39
9963.00,1.38
9962.00,1.37
9961.00,1.36
9960.00,1.35
9959.00,1.34
9958.00,1.33
9957.00,1.31
9956.00,1.30
9955.00,1.29
9954.00,1.28
9953.00,1.27
9952.00,1.26
9951.00,1.25
9950.00,1.24
9949.00,1.23
9948.00,1.23
9947.00,1.22
9946.00,1.22
9945.00,1.22
9944.00,1.22
9943.00,1.22
9942.00,1.22
9941.00,1.23
9940.00,1.23
9939.00,1.24
9938.00,1.24
9937.00,1.25
9936.00,1.26
9935.00,1.26
9934.00,1.27
9933.00,1.28
9932.00,1.28
9931.00,1.29
9930.00,1.29
9929.00,1.29
9928.00,1.30
9927.00,1.30
9926.00,1.31
9925.00,1.31
9924.00,1.31
9923.00,1.31
9922.00,1.32
9921.00,1.32
9920.00,1.31
9919.00,1.31
9918.00,1.31
9917.00,1.31
9916.00,1.30
9915.00,1.29
9914.00,1.29
9913.00,1.28
9912.00,1.27
9911.00,1.26
9910.00,1.26
9909.00,1.25
9908.00,1.24
9907.00,1.24
9906.00,1.23
9905.00,1.23
9904.00,1.22
9903.00,1.22
9902.00,1.21
9901.00,1.21
9900.00,1.20
9899.00,1.20
9898.00,1.20
9897.00,1.20
9896.00,1.20
9895.00,1.19
9894.00,1.19
9893.00,1.19
9892.00,1.20
9891.00,1.20
9890.00,1.20
9889.00,1.20
9888.00,1.20
9887.00,1.21
9886.00,1.21
9885.00,1.21
9884.00,1.21
9883.00,1.22
9882.00,1.22
9881.00,1.22
9880.00,1.22
9879.00,1.22
9878.00,1.23
9877.00,1.23
9876.00,1.23
9875.00,1.23
9874.00,1.23
9873.00,1.23
9872.00,1.23
9871.00,1.23
9870.00,1.23
9869.00,1.23
9868.00,1.23
9867.00,1.23
9866.00,1.23
9865.00,1.22
9864.00,1.22
9863.00,1.22
9862.00,1.22
9861.00,1.22
9860.00,1.21
9859.00,1.21
9858.00,1.21
9857.00,1.21
9856.00,1.21
9855.00,1.21
9854.00,1.21
9853.00,1.21
9852.00,1.21
9851.00,1.21
9850.00,1.21
9849.00,1.21
9848.00,1.21
9847.00,1.21
9846.00,1.21
9845.00,1.20
9844.00,1.20
9843.00,1.20
9842.00,1.20
9841.00,1.20
9840.00,1.20
9839.00,1.20
9838.00,1.20
9837.00,1.20
9836.00,1.20
9835.00,1.20
9834.00,1.20
9833.00,1.20
9832.00,1.20
9831.00,1.20
9830.00,1.19
9829.00,1.19
9828.00,1.19
9827.00,1.19
9826.00,1.18
9825.00,1.18
9824.00,1.18
9823.00,1.18
9822.00,1.18
9821.00,1.17
9820.00,1.17
9819.00,1.17
9818.00,1.17
9817.00,1.17
9816.00,1.17
9815.00,1.17
9814.00,1.17
9813.00,1.17
9812.00,1.17
9811.00,1.18
9810.00,1.18
9809.00,1.18
9808.00,1.18
9807.00,1.18
9806.00,1.18
9805.00,1.18
9804.00,1.18
9803.00,1.18
9802.00,1.19
9801.00,1.19
9800.00,1.19
9799.00,1.20
9798.00,1.20
9797.00,1.20
9796.00,1.21
9795.00,1.21
9794.00,1.21
9793.00,1.22
9792.00,1.22
9791.00,1.22
9790.00,1.23
9789.00,1.23
9788.00,1.23
9787.00,1.24
9786.00,1.24
9785.00,1.24
9784.00,1.25
9783.00,1.25
9782.00,1.26
9781.00,1.26
9780.00,1.26
9779.00,1.27
9778.00,1.27
9777.00,1.28
9776.00,1.28
9775.00,1.29
9774.00,1.29
9773.00,1.29
9772.00,1.30
9771.00,1.30
9770.00,1.30
9769.00,1.30
9768.00,1.31
9767.00,1.31
9766.00,1.31
9765.00,1.31
9764.00,1.32
9763.00,1.32
9762.00,1.32
9761.00,1.32
9760.00,1.31
9759.00,1.31
9758.00,1.31
9757.00,1.30
9756.00,1.30
9755.00,1.29
9754.00,1.29
9753.00,1.28
9752.00,1.27
9751.00,1.27
9750.00,1.26
9749.00,1.25
9748.00,1.25
9747.00,1.24
9746.00,1.24
9745.00,1.23
9744.00,1.22
9743.00,1.22
9742.00,1.21
9741.00,1.21
9740.00,1.20
9739.00,1.19
9738.00,1.19
9737.00,1.18
9736.00,1.18
9735.00,1.17
9734.00,1.16
9733.00,1.16
9732.00,1.16
9731.00,1.15
9730.00,1.15
9729.00,1.15
9728.00,1.14
9727.00,1.14
9726.00,1.14
9725.00,1.14
9724.00,1.14
9723.00,1.13
9722.00,1.13
9721.00,1.12
9720.00,1.12
9719.00,1.11
9718.00,1.11
9717.00,1.10
9716.00,1.10
9715.00,1.09
9714.00,1.09
9713.00,1.08
9712.00,1.08
9711.00,1.07
9710.00,1.07
9709.00,1.07
9708.00,1.06
9707.00,1.06
9706.00,1.06
9705.00,1.06
9704.00,1.07
9703.00,1.07
9702.00,1.07
9701.00,1.07
9700.00,1.07
9699.00,1.07
9698.00,1.08
9697.00,1.08
9696.00,1.08
9695.00,1.08
9694.00,1.09
9693.00,1.09
9692.00,1.09
9691.00,1.10
9690.00,1.11
9689.00,1.11
9688.00,1.12
9687.00,1.12
9686.00,1.13
9685.00,1.13
9684.00,1.14
9683.00,1.14
9682.00,1.14
9681.00,1.15
9680.00,1.15
9679.00,1.15
9678.00,1.15
9677.00,1.14
9676.00,1.14
9675.00,1.14
9674.00,1.14
9673.00,1.14
9672.00,1.14
9671.00,1.14
9670.00,1.14
9669.00,1.14
9668.00,1.14
9667.00,1.14
9666.00,1.14
9665.00,1.14
9664.00,1.15
9663.00,1.15
9662.00,1.15
9661.00,1.15
9660.00,1.15
9659.00,1.15
9658.00,1.15
9657.00,1.15
9656.00,1.16
9655.00,1.16
9654.00,1.16
9653.00,1.16
9652.00,1.17
9651.00,1.17
9650.00,1.18
9649.00,1.18
9648.00,1.18
9647.00,1.18
9646.00,1.19
9645.00,1.19
9644.00,1.19
9643.00,1.19
9642.00,1.19
9641.00,1.19
9640.00,1.19
9639.00,1.19
9638.00,1.19
9637.00,1.19
9636.00,1.19
9635.00,1.18
9634.00,1.18
9633.00,1.18
9632.00,1.18
9631.00,1.17
9630.00,1.17
9629.00,1.17
9628.00,1.17
9627.00,1.16
9626.00,1.16
9625.00,1.16
9624.00,1.15
9623.00,1.15
9622.00,1.15
9621.00,1.14
9620.00,1.14
9619.00,1.14
9618.00,1.14
9617.00,1.13
9616.00,1.13
9615.00,1.13
9614.00,1.13
9613.00,1.13
9612.00,1.13
9611.00,1.13
9610.00,1.13
9609.00,1.13
9608.00,1.13
9607.00,1.13
9606.00,1.13
9605.00,1.13
9604.00,1.13
9603.00,1.13
9602.00,1.13
9601.00,1.13
9600.00,1.12
9599.00,1.12
9598.00,1.12
9597.00,1.12
9596.00,1.12
9595.00,1.12
9594.00,1.12
9593.00,1.12
9592.00,1.12
9591.00,1.12
9590.00,1.13
9589.00,1.13
9588.00,1.13
9587.00,1.13
9586.00,1.13
9585.00,1.13
9584.00,1.13
9583.00,1.13
9582.00,1.13
9581.00,1.14
9580.00,1.14
9579.00,1.14
9578.00,1.14
9577.00,1.15
9576.00,1.15
9575.00,1.15
9574.00,1.16
9573.00,1.16
9572.00,1.16
9571.00,1.17
9570.00,1.17
9569.00,1.18
9568.00,1.18
9567.00,1.19
9566.00,1.19
9565.00,1.19
9564.00,1.20
9563.00,1.20
9562.00,1.20
9561.00,1.20
9560.00,1.20
9559.00,1.21
9558.00,1.21
9557.00,1.20
9556.00,1.20
9555.00,1.20
9554.00,1.20
9553.00,1.19
9552.00,1.19
9551.00,1.18
9550.00,1.18
9549.00,1.17
9548.00,1.17
9547.00,1.16
9546.00,1.15
9545.00,1.14
9544.00,1.13
9543.00,1.12
9542.00,1.11
9541.00,1.10
9540.00,1.09
9539.00,1.08
9538.00,1.07
9537.00,1.06
9536.00,1.05
9535.00,1.05
9534.00,1.04
9533.00,1.03
9532.00,1.03
9531.00,1.02
9530.00,1.02
9529.00,1.02
9528.00,1.02
9527.00,1.02
9526.00,1.02
9525.00,1.03
9524.00,1.03
9523.00,1.03
9522.00,1.04
9521.00,1.04
9520.00,1.05
9519.00,1.06
9518.00,1.06
9517.00,1.07
9516.00,1.08
9515.00,1.08
9514.00,1.09
9513.00,1.10
9512.00,1.10
9511.00,1.11
9510.00,1.12
9509.00,1.12
9508.00,1.13
9507.00,1.13
9506.00,1.13
9505.00,1.13
9504.00,1.14
9503.00,1.13
9502.00,1.13
9501.00,1.13
9500.00,1.13
9499.00,1.13
9498.00,1.12
9497.00,1.12
9496.00,1.12
9495.00,1.11
9494.00,1.11
9493.00,1.11
9492.00,1.11
9491.00,1.10
9490.00,1.10
9489.00,1.10
9488.00,1.10
9487.00,1.10
9486.00,1.10
9485.00,1.10
9484.00,1.10
9483.00,1.10
9482.00,1.10
9481.00,1.10
9480.00,1.11
9479.00,1.11
9478.00,1.11
9477.00,1.11
9476.00,1.12
9475.00,1.12
9474.00,1.12
9473.00,1.13
9472.00,1.13
9471.00,1.13
9470.00,1.14
9469.00,1.14
9468.00,1.14
9467.00,1.14
9466.00,1.15
9465.00,1.15
9464.00,1.15
9463.00,1.15
9462.00,1.15
9461.00,1.16
9460.00,1.16
9459.00,1.16
9458.00,1.16
9457.00,1.16
9456.00,1.16
9455.00,1.16
9454.00,1.16
9453.00,1.16
9452.00,1.16
9451.00,1.16
9450.00,1.16
9449.00,1.16
9448.00,1.17
9447.00,1.17
9446.00,1.17
9445.00,1.17
9444.00,1.17
9443.00,1.18
9442.00,1.18
9441.00,1.18
9440.00,1.18
9439.00,1.18
9438.00,1.18
9437.00,1.18
9436.00,1.18
9435.00,1.18
9434.00,1.18
9433.00,1.18
9432.00,1.18
9431.00,1.18
9430.00,1.18
9429.00,1.18
9428.00,1.18
9427.00,1.18
9426.00,1.18
9425.00,1.18
9424.00,1.18
9423.00,1.18
9422.00,1.18
9421.00,1.19
9420.00,1.19
9419.00,1.19
9418.00,1.19
9417.00,1.19
9416.00,1.19
9415.00,1.19
9414.00,1.19
9413.00,1.19
9412.00,1.20
9411.00,1.20
9410.00,1.20
9409.00,1.20
9408.00,1.21
9407.00,1.21
9406.00,1.22
9405.00,1.22
9404.00,1.22
9403.00,1.23
9402.00,1.23
9401.00,1.23
9400.00,1.23
9399.00,1.24
9398.00,1.23
9397.00,1.23
9396.00,1.23
9395.00,1.23
9394.00,1.23
9393.00,1.23
9392.00,1.23
9391.00,1.23
9390.00,1.23
9389.00,1.23
9388.00,1.23
9387.00,1.23
9386.00,1.23
9385.00,1.23
9384.00,1.23
9383.00,1.23
9382.00,1.23
9381.00,1.23
9380.00,1.23
9379.00,1.22
9378.00,1.22
9377.00,1.22
9376.00,1.22
9375.00,1.22
9374.00,1.22
9373.00,1.22
9372.00,1.22
9371.00,1.22
9370.00,1.22
9369.00,1.22
9368.00,1.22
9367.00,1.22
9366.00,1.22
9365.00,1.22
9364.00,1.22
9363.00,1.22
9362.00,1.21
9361.00,1.21
9360.00,1.21
9359.00,1.21
9358.00,1.20
9357.00,1.20
9356.00,1.19
9355.00,1.19
9354.00,1.19
9353.00,1.18
9352.00,1.18
9351.00,1.18
9350.00,1.18
9349.00,1.17
9348.00,1.17
9347.00,1.17
9346.00,1.17
9345.00,1.17
9344.00,1.17
9343.00,1.16
9342.00,1.16
9341.00,1.16
9340.00,1.16
9339.00,1.16
9338.00,1.16
9337.00,1.16
9336.00,1.17
9335.00,1.17
9334.00,1.17
9333.00,1.17
9332.00,1.18
9331.00,1.18
9330.00,1.18
9329.00,1.19
9328.00,1.19
9327.00,1.20
9326.00,1.20
9325.00,1.21
9324.00,1.21
9323.00,1.21
9322.00,1.22
9321.00,1.22
9320.00,1.22
9319.00,1.22
9318.00,1.22
9317.00,1.23
9316.00,1.23
9315.00,1.23
9314.00,1.23
9313.00,1.24
9312.00,1.24
9311.00,1.24
9310.00,1.24
9309.00,1.24
9308.00,1.24
9307.00,1.24
9306.00,1.24
9305.00,1.24
9304.00,1.23
9303.00,1.23
9302.00,1.22
9301.00,1.22
9300.00,1.21
9299.00,1.21
9298.00,1.20
9297.00,1.20
9296.00,1.19
9295.00,1.19
9294.00,1.19
9293.00,1.18
9292.00,1.18
9291.00,1.17
9290.00,1.17
9289.00,1.17
9288.00,1.16
9287.00,1.16
9286.00,1.15
9285.00,1.14
9284.00,1.14
9283.00,1.14
9282.00,1.13
9281.00,1.13
9280.00,1.13
9279.00,1.12
9278.00,1.12
9277.00,1.12
9276.00,1.12
9275.00,1.12
9274.00,1.12
9273.00,1.13
9272.00,1.13
9271.00,1.13
9270.00,1.13
9269.00,1.13
9268.00,1.13
9267.00,1.14
9266.00,1.14
9265.00,1.14
9264.00,1.14
9263.00,1.15
9262.00,1.15
9261.00,1.15
9260.00,1.16
9259.00,1.16
9258.00,1.16
9257.00,1.16
9256.00,1.17
9255.00,1.17
9254.00,1.17
9253.00,1.17
9252.00,1.17
9251.00,1.17
9250.00,1.17
9249.00,1.17
9248.00,1.17
9247.00,1.18
9246.00,1.17
9245.00,1.17
9244.00,1.17
9243.00,1.17
9242.00,1.17
9241.00,1.17
9240.00,1.16
9239.00,1.16
9238.00,1.15
9237.00,1.15
9236.00,1.15
9235.00,1.14
9234.00,1.14
9233.00,1.13
9232.00,1.13
9231.00,1.13
9230.00,1.13
9229.00,1.12
9228.00,1.12
9227.00,1.12
9226.00,1.12
9225.00,1.12
9224.00,1.12
9223.00,1.12
9222.00,1.12
9221.00,1.12
9220.00,1.12
9219.00,1.12
9218.00,1.12
9217.00,1.12
9216.00,1.12
9215.00,1.12
9214.00,1.12
9213.00,1.12
9212.00,1.12
9211.00,1.12
9210.00,1.12
9209.00,1.13
9208.00,1.13
9207.00,1.13
9206.00,1.13
9205.00,1.13
9204.00,1.13
9203.00,1.13
9202.00,1.13
9201.00,1.13
9200.00,1.13
9199.00,1.13
9198.00,1.13
9197.00,1.13
9196.00,1.12
9195.00,1.12
9194.00,1.12
9193.00,1.12
9192.00,1.12
9191.00,1.12
9190.00,1.12
9189.00,1.11
9188.00,1.11
9187.00,1.11
9186.00,1.10
9185.00,1.10
9184.00,1.10
9183.00,1.09
9182.00,1.09
9181.00,1.09
9180.00,1.08
9179.00,1.08
9178.00,1.08
9177.00,1.07
9176.00,1.07
9175.00,1.07
9174.00,1.06
9173.00,1.06
9172.00,1.06
9171.00,1.05
9170.00,1.05
9169.00,1.05
9168.00,1.05
9167.00,1.05
9166.00,1.05
9165.00,1.05
9164.00,1.05
9163.00,1.05
9162.00,1.05
9161.00,1.05
9160.00,1.06
9159.00,1.06
9158.00,1.06
9157.00,1.07
9156.00,1.07
9155.00,1.08
9154.00,1.08
9153.00,1.09
9152.00,1.09
9151.00,1.10
9150.00,1.10
9149.00,1.11
9148.00,1.11
9147.00,1.12
9146.00,1.12
9145.00,1.12
9144.00,1.13
9143.00,1.13
9142.00,1.13
9141.00,1.13
9140.00,1.14
9139.00,1.14
9138.00,1.14
9137.00,1.14
9136.00,1.14
9135.00,1.14
9134.00,1.13
9133.00,1.13
9132.00,1.13
9131.00,1.13
9130.00,1.13
9129.00,1.12
9128.00,1.12
9127.00,1.11
9126.00,1.11
9125.00,1.10
9124.00,1.10
9123.00,1.09
9122.00,1.09
9121.00,1.08
9120.00,1.08
9119.00,1.07
9118.00,1.07
9117.00,1.07
9116.00,1.07
9115.00,1.06
9114.00,1.06
9113.00,1.06
9112.00,1.07
9111.00,1.07
9110.00,1.07
9109.00,1.07
9108.00,1.07
9107.00,1.07
9106.00,1.07
9105.00,1.07
9104.00,1.08
9103.00,1.08
9102.00,1.08
9101.00,1.09
9100.00,1.09
9099.00,1.10
9098.00,1.10
9097.00,1.11
9096.00,1.12
9095.00,1.12
9094.00,1.13
9093.00,1.14
9092.00,1.14
9091.00,1.15
9090.00,1.15
9089.00,1.15
9088.00,1.16
9087.00,1.16
9086.00,1.16
9085.00,1.16
9084.00,1.16
9083.00,1.16
9082.00,1.16
9081.00,1.16
9080.00,1.16
9079.00,1.16
9078.00,1.16
9077.00,1.17
9076.00,1.17
9075.00,1.17
9074.00,1.17
9073.00,1.17
9072.00,1.17
9071.00,1.17
9070.00,1.17
9069.00,1.18
9068.00,1.18
9067.00,1.18
9066.00,1.18
9065.00,1.18
9064.00,1.18
9063.00,1.18
9062.00,1.19
9061.00,1.19
9060.00,1.19
9059.00,1.19
9058.00,1.19
9057.00,1.19
9056.00,1.20
9055.00,1.20
9054.00,1.20
9053.00,1.20
9052.00,1.20
9051.00,1.21
9050.00,1.21
9049.00,1.21
9048.00,1.21
9047.00,1.21
9046.00,1.20
9045.00,1.20
9044.00,1.19
9043.00,1.19
9042.00,1.18
9041.00,1.18
9040.00,1.17
9039.00,1.17
9038.00,1.16
9037.00,1.16
9036.00,1.15
9035.00,1.15
9034.00,1.14
9033.00,1.14
9032.00,1.14
9031.00,1.13
9030.00,1.13
9029.00,1.12
9028.00,1.12
9027.00,1.12
9026.00,1.11
9025.00,1.11
9024.00,1.10
9023.00,1.10
9022.00,1.09
9021.00,1.09
9020.00,1.09
9019.00,1.09
9018.00,1.09
9017.00,1.09
9016.00,1.09
9015.00,1.10
9014.00,1.10
9013.00,1.10
9012.00,1.11
9011.00,1.11
9010.00,1.12
9009.00,1.12
9008.00,1.12
9007.00,1.13
9006.00,1.13
9005.00,1.13
9004.00,1.13
9003.00,1.14
9002.00,1.14
9001.00,1.14
9000.00,1.15
8999.00,1.15
8998.00,1.15
8997.00,1.16
8996.00,1.16
8995.00,1.16
8994.00,1.16
8993.00,1.17
8992.00,1.17
8991.00,1.17
8990.00,1.17
8989.00,1.17
8988.00,1.17
8987.00,1.17
8986.00,1.17
8985.00,1.17
8984.00,1.17
8983.00,1.16
8982.00,1.16
8981.00,1.16
8980.00,1.16
8979.00,1.15
8978.00,1.15
8977.00,1.15
8976.00,1.15
8975.00,1.14
8974.00,1.14
8973.00,1.14
8972.00,1.14
8971.00,1.14
8970.00,1.14
8969.00,1.13
8968.00,1.13
8967.00,1.13
8966.00,1.13
8965.00,1.12
8964.00,1.12
8963.00,1.12
8962.00,1.12
8961.00,1.12
8960.00,1.12
8959.00,1.12
8958.00,1.11
8957.00,1.11
8956.00,1.12
8955.00,1.12
8954.00,1.12
8953.00,1.12
8952.00,1.12
8951.00,1.12
8950.00,1.13
8949.00,1.13
8948.00,1.13
8947.00,1.14
8946.00,1.14
8945.00,1.14
8944.00,1.15
8943.00,1.15
8942.00,1.15
8941.00,1.16
8940.00,1.16
8939.00,1.17
8938.00,1.17
8937.00,1.18
8936.00,1.18
8935.00,1.19
8934.00,1.19
8933.00,1.20
8932.00,1.20
8931.00,1.20
8930.00,1.21
8929.00,1.21
8928.00,1.21
8927.00,1.22
8926.00,1.22
8925.00,1.22
8924.00,1.22
8923.00,1.22
8922.00,1.22
8921.00,1.22
8920.00,1.21
8919.00,1.21
8918.00,1.21
8917.00,1.21
8916.00,1.20
8915.00,1.20
8914.00,1.20
8913.00,1.19
8912.00,1.19
8911.00,1.19
8910.00,1.19
8909.00,1.18
8908.00,1.18
8907.00,1.18
8906.00,1.18
8905.00,1.18
8904.00,1.18
8903.00,1.18
8902.00,1.18
8901.00,1.18
8900.00,1.18
8899.00,1.19
8898.00,1.19
8897.00,1.19
8896.00,1.19
8895.00,1.20
8894.00,1.20
8893.00,1.21
8892.00,1.21
8891.00,1.22
8890.00,1.22
8889.00,1.23
8888.00,1.23
8887.00,1.24
8886.00,1.24
8885.00,1.24
8884.00,1.25
8883.00,1.25
8882.00,1.25
8881.00,1.25
8880.00,1.25
8879.00,1.26
8878.00,1.25
8877.00,1.25
8876.00,1.25
8875.00,1.25
8874.00,1.25
8873.00,1.24
8872.00,1.24
8871.00,1.24
8870.00,1.23
8869.00,1.23
8868.00,1.22
8867.00,1.22
8866.00,1.21
8865.00,1.20
8864.00,1.20
8863.00,1.19
8862.00,1.19
8861.00,1.19
8860.00,1.18
8859.00,1.18
8858.00,1.18
8857.00,1.17
8856.00,1.17
8855.00,1.17
8854.00,1.16
8853.00,1.16
8852.00,1.16
8851.00,1.16
8850.00,1.16
8849.00,1.16
8848.00,1.16
8847.00,1.16
8846.00,1.16
8845.00,1.16
8844.00,1.16
8843.00,1.16
8842.00,1.16
8841.00,1.16
8840.00,1.17
8839.00,1.17
8838.00,1.17
8837.00,1.17
8836.00,1.17
8835.00,1.18
8834.00,1.18
8833.00,1.18
8832.00,1.18
8831.00,1.18
8830.00,1.18
8829.00,1.18
8828.00,1.18
8827.00,1.18
8826.00,1.18
8825.00,1.18
8824.00,1.18
8823.00,1.18
8822.00,1.18
8821.00,1.18
8820.00,1.18
8819.00,1.18
8818.00,1.18
8817.00,1.18
8816.00,1.18
8815.00,1.18
8814.00,1.18
8813.00,1.18
8812.00,1.18
8811.00,1.18
8810.00,1.18
8809.00,1.18
8808.00,1.18
8807.00,1.18
8806.00,1.18
8805.00,1.18
8804.00,1.18
8803.00,1.18
8802.00,1.18
8801.00,1.18
8800.00,1.18
8799.00,1.18
8798.00,1.18
8797.00,1.18
8796.00,1.18
8795.00,1.19
8794.00,1.19
8793.00,1.19
8792.00,1.19
8791.00,1.19
8790.00,1.19
8789.00,1.19
8788.00,1.18
8787.00,1.18
8786.00,1.18
8785.00,1.18
8784.00,1.18
8783.00,1.18
8782.00,1.18
8781.00,1.18
8780.00,1.18
8779.00,1.18
8778.00,1.18
8777.00,1.18
8776.00,1.18
8775.00,1.18
8774.00,1.17
8773.00,1.17
8772.00,1.16
8771.00,1.16
8770.00,1.15
8769.00,1.14
8768.00,1.14
8767.00,1.13
8766.00,1.13
8765.00,1.12
8764.00,1.12
8763.00,1.12
8762.00,1.11
8761.00,1.11
8760.00,1.10
8759.00,1.10
8758.00,1.10
8757.00,1.09
8756.00,1.09
8755.00,1.08
8754.00,1.08
8753.00,1.07
8752.00,1.07
8751.00,1.06
8750.00,1.06
8749.00,1.06
8748.00,1.06
8747.00,1.06
8746.00,1.06
8745.00,1.06
8744.00,1.06
8743.00,1.06
8742.00,1.06
8741.00,1.06
8740.00,1.06
8739.00,1.06
8738.00,1.06
8737.00,1.06
8736.00,1.06
8735.00,1.06
8734.00,1.06
8733.00,1.06
8732.00,1.06
8731.00,1.06
8730.00,1.06
8729.00,1.06
8728.00,1.07
8727.00,1.07
8726.00,1.07
8725.00,1.07
8724.00,1.07
8723.00,1.07
8722.00,1.07
8721.00,1.07
8720.00,1.07
8719.00,1.07
8718.00,1.08
8717.00,1.08
8716.00,1.08
8715.00,1.08
8714.00,1.08
8713.00,1.08
8712.00,1.09
8711.00,1.09
8710.00,1.09
8709.00,1.09
8708.00,1.09
8707.00,1.09
8706.00,1.09
8705.00,1.09
8704.00,1.09
8703.00,1.09
8702.00,1.09
8701.00,1.09
8700.00,1.09
8699.00,1.09
8698.00,1.09
8697.00,1.09
8696.00,1.09
8695.00,1.09
8694.00,1.09
8693.00,1.09
8692.00,1.09
8691.00,1.09
8690.00,1.09
8689.00,1.09
8688.00,1.09
8687.00,1.09
8686.00,1.10
8685.00,1.10
8684.00,1.10
8683.00,1.11
8682.00,1.11
8681.00,1.12
8680.00,1.13
8679.00,1.13
8678.00,1.14
8677.00,1.15
8676.00,1.16
8675.00,1.17
8674.00,1.18
8673.00,1.19
8672.00,1.20
8671.00,1.21
8670.00,1.22
8669.00,1.23
8668.00,1.23
8667.00,1.24
8666.00,1.25
8665.00,1.25
8664.00,1.26
8663.00,1.26
8662.00,1.27
8661.00,1.27
8660.00,1.27
8659.00,1.27
8658.00,1.27
8657.00,1.27
8656.00,1.27
8655.00,1.27
8654.00,1.26
8653.00,1.26
8652.00,1.26
8651.00,1.25
8650.00,1.25
8649.00,1.24
8648.00,1.24
8647.00,1.23
8646.00,1.23
8645.00,1.23
8644.00,1.23
8643.00,1.22
8642.00,1.22
8641.00,1.22
8640.00,1.22
8639.00,1.22
8638.00,1.22
8637.00,1.22
8636.00,1.22
8635.00,1.22
8634.00,1.22
8633.00,1.22
8632.00,1.23
8631.00,1.23
8630.00,1.23
8629.00,1.24
8628.00,1.24
8627.00,1.25
8626.00,1.25
8625.00,1.25
8624.00,1.26
8623.00,1.26
8622.00,1.27
8621.00,1.27
8620.00,1.27
8619.00,1.27
8618.00,1.27
8617.00,1.27
8616.00,1.27
8615.00,1.27
8614.00,1.27
8613.00,1.27
8612.00,1.27
8611.00,1.26
8610.00,1.26
8609.00,1.26
8608.00,1.26
8607.00,1.26
8606.00,1.25
8605.00,1.25
8604.00,1.25
8603.00,1.24
8602.00,1.24
8601.00,1.23
8600.00,1.23
8599.00,1.22
8598.00,1.22
8597.00,1.21
8596.00,1.21
8595.00,1.20
8594.00,1.20
8593.00,1.19
8592.00,1.19
8591.00,1.18
8590.00,1.18
8589.00,1.18
8588.00,1.17
8587.00,1.17
8586.00,1.16
8585.00,1.16
8584.00,1.16
8583.00,1.15
8582.00,1.15
8581.00,1.15
8580.00,1.15
8579.00,1.14
8578.00,1.14
8577.00,1.14
8576.00,1.14
8575.00,1.14
8574.00,1.14
8573.00,1.14
8572.00,1.14
8571.00,1.14
8570.00,1.14
8569.00,1.14
8568.00,1.14
8567.00,1.14
8566.00,1.14
8565.00,1.14
8564.00,1.14
8563.00,1.14
8562.00,1.14
8561.00,1.14
8560.00,1.14
8559.00,1.14
8558.00,1.14
8557.00,1.14
8556.00,1.14
8555.00,1.14
8554.00,1.14
8553.00,1.14
8552.00,1.15
8551.00,1.15
8550.00,1.15
8549.00,1.15
8548.00,1.15
8547.00,1.15
8546.00,1.15
8545.00,1.15
8544.00,1.15
8543.00,1.15
8542.00,1.15
8541.00,1.15
8540.00,1.15
8539.00,1.15
8538.00,1.15
8537.00,1.15
8536.00,1.15
8535.00,1.15
8534.00,1.15
8533.00,1.16
8532.00,1.16
8531.00,1.16
8530.00,1.16
8529.00,1.16
8528.00,1.17
8527.00,1.17
8526.00,1.17
8525.00,1.18
8524.00,1.18
8523.00,1.18
8522.00,1.19
8521.00,1.19
8520.00,1.19
8519.00,1.20
8518.00,1.20
8517.00,1.20
8516.00,1.21
8515.00,1.21
8514.00,1.21
8513.00,1.21
8512.00,1.21
8511.00,1.21
8510.00,1.22
8509.00,1.22
8508.00,1.22
8507.00,1.22
8506.00,1.22
8505.00,1.21
8504.00,1.21
8503.00,1.21
8502.00,1.21
8501.00,1.21
8500.00,1.20
8499.00,1.20
8498.00,1.20
8497.00,1.19
8496.00,1.19
8495.00,1.19
8494.00,1.18
8493.00,1.18
8492.00,1.17
8491.00,1.17
8490.00,1.17
8489.00,1.17
8488.00,1.16
8487.00,1.16
8486.00,1.16
8485.00,1.15
8484.00,1.15
8483.00,1.15
8482.00,1.14
8481.00,1.14
8480.00,1.14
8479.00,1.13
8478.00,1.13
8477.00,1.13
8476.00,1.13
8475.00,1.12
8474.00,1.12
8473.00,1.12
8472.00,1.12
8471.00,1.12
8470.00,1.12
8469.00,1.12
8468.00,1.12
8467.00,1.12
8466.00,1.12
8465.00,1.12
8464.00,1.12
8463.00,1.12
8462.00,1.12
8461.00,1.12
8460.00,1.12
8459.00,1.13
8458.00,1.13
8457.00,1.13
8456.00,1.14
8455.00,1.14
8454.00,1.14
8453.00,1.15
8452.00,1.15
8451.00,1.15
8450.00,1.16
8449.00,1.16
8448.00,1.16
8447.00,1.16
8446.00,1.16
8445.00,1.17
8444.00,1.17
8443.00,1.17
8442.00,1.17
8441.00,1.17
8440.00,1.16
8439.00,1.16
8438.00,1.16
8437.00,1.16
8436.00,1.16
8435.00,1.15
8434.00,1.15
8433.00,1.15
8432.00,1.14
8431.00,1.14
8430.00,1.13
8429.00,1.13
8428.00,1.12
8427.00,1.12
8426.00,1.11
8425.00,1.11
8424.00,1.10
8423.00,1.10
8422.00,1.09
8421.00,1.09
8420.00,1.08
8419.00,1.08
8418.00,1.07
8417.00,1.07
8416.00,1.06
8415.00,1.06
8414.00,1.06
8413.00,1.06
8412.00,1.06
8411.00,1.05
8410.00,1.05
8409.00,1.05
8408.00,1.05
8407.00,1.05
8406.00,1.05
8405.00,1.05
8404.00,1.05
8403.00,1.05
8402.00,1.05
8401.00,1.05
8400.00,1.05
8399.00,1.05
8398.00,1.05
8397.00,1.06
8396.00,1.06
8395.00,1.06
8394.00,1.07
8393.00,1.07
8392.00,1.07
8391.00,1.08
8390.00,1.08
8389.00,1.09
8388.00,1.09
8387.00,1.10
8386.00,1.10
8385.00,1.11
8384.00,1.11
8383.00,1.12
8382.00,1.12
8381.00,1.12
8380.00,1.13
8379.00,1.13
8378.00,1.14
8377.00,1.14
8376.00,1.15
8375.00,1.15
8374.00,1.15
8373.00,1.16
8372.00,1.16
8371.00,1.16
8370.00,1.17
8369.00,1.17
8368.00,1.17
8367.00,1.17
8366.00,1.17
8365.00,1.17
8364.00,1.17
8363.00,1.17
8362.00,1.17
8361.00,1.17
8360.00,1.17
8359.00,1.17
8358.00,1.17
8357.00,1.17
8356.00,1.18
8355.00,1.18
8354.00,1.18
8353.00,1.18
8352.00,1.18
8351.00,1.18
8350.00,1.18
8349.00,1.18
8348.00,1.18
8347.00,1.18
8346.00,1.17
8345.00,1.17
8344.00,1.17
8343.00,1.17
8342.00,1.17
8341.00,1.17
8340.00,1.17
8339.00,1.17
8338.00,1.17
8337.00,1.17
8336.00,1.16
8335.00,1.16
8334.00,1.16
8333.00,1.16
8332.00,1.16
8331.00,1.16
8330.00,1.15
8329.00,1.15
8328.00,1.15
8327.00,1.15
8326.00,1.15
8325.00,1.14
8324.00,1.14
8323.00,1.14
8322.00,1.14
8321.00,1.14
8320.00,1.14
8319.00,1.14
8318.00,1.14
8317.00,1.14
8316.00,1.14
8315.00,1.14
8314.00,1.14
8313.00,1.14
8312.00,1.14
8311.00,1.14
8310.00,1.14
8309.00,1.15
8308.00,1.15
8307.00,1.15
8306.00,1.15
8305.00,1.15
8304.00,1.15
8303.00,1.15
8302.00,1.15
8301.00,1.15
8300.00,1.15
8299.00,1.15
8298.00,1.15
8297.00,1.15
8296.00,1.15
8295.00,1.15
8294.00,1.15
8293.00,1.15
8292.00,1.15
8291.00,1.15
8290.00,1.15
8289.00,1.15
8288.00,1.15
8287.00,1.14
8286.00,1.14
8285.00,1.14
8284.00,1.13
8283.00,1.13
8282.00,1.13
8281.00,1.12
8280.00,1.12
8279.00,1.12
8278.00,1.12
8277.00,1.12
8276.00,1.11
8275.00,1.11
8274.00,1.11
8273.00,1.11
8272.00,1.11
8271.00,1.11
8270.00,1.10
8269.00,1.10
8268.00,1.10
8267.00,1.10
8266.00,1.10
8265.00,1.10
8264.00,1.10
8263.00,1.10
8262.00,1.10
8261.00,1.11
8260.00,1.11
8259.00,1.11
8258.00,1.12
8257.00,1.12
8256.00,1.12
8255.00,1.13
8254.00,1.13
8253.00,1.14
8252.00,1.14
8251.00,1.15
8250.00,1.15
8249.00,1.16
8248.00,1.16
8247.00,1.17
8246.00,1.17
8245.00,1.18
8244.00,1.18
8243.00,1.19
8242.00,1.20
8241.00,1.20
8240.00,1.21
8239.00,1.21
8238.00,1.21
8237.00,1.22
8236.00,1.22
8235.00,1.23
8234.00,1.23
8233.00,1.23
8232.00,1.23
8231.00,1.23
8230.00,1.24
8229.00,1.24
8228.00,1.24
8227.00,1.24
8226.00,1.24
8225.00,1.24
8224.00,1.24
8223.00,1.24
8222.00,1.24
8221.00,1.24
8220.00,1.24
8219.00,1.24
8218.00,1.23
8217.00,1.23
8216.00,1.23
8215.00,1.22
8214.00,1.22
8213.00,1.21
8212.00,1.21
8211.00,1.20
8210.00,1.20
8209.00,1.20
8208.00,1.20
8207.00,1.19
8206.00,1.19
8205.00,1.19
8204.00,1.18
8203.00,1.18
8202.00,1.18
8201.00,1.17
8200.00,1.17
8199.00,1.16
8198.00,1.16
8197.00,1.16
8196.00,1.15
8195.00,1.15
8194.00,1.15
8193.00,1.15
8192.00,1.15
8191.00,1.15
8190.00,1.15
8189.00,1.16
8188.00,1.16
8187.00,1.16
8186.00,1.16
8185.00,1.17
8184.00,1.17
8183.00,1.17
8182.00,1.17
8181.00,1.17
8180.00,1.17
8179.00,1.18
8178.00,1.18
8177.00,1.18
8176.00,1.18
8175.00,1.18
8174.00,1.19
8173.00,1.19
8172.00,1.19
8171.00,1.19
8170.00,1.20
8169.00,1.20
8168.00,1.20
8167.00,1.20
8166.00,1.21
8165.00,1.21
8164.00,1.21
8163.00,1.21
8162.00,1.21
8161.00,1.21
8160.00,1.21
8159.00,1.21
8158.00,1.22
8157.00,1.22
8156.00,1.22
8155.00,1.22
8154.00,1.22
8153.00,1.22
8152.00,1.22
8151.00,1.22
8150.00,1.23
8149.00,1.23
8148.00,1.23
8147.00,1.23
8146.00,1.23
8145.00,1.23
8144.00,1.23
8143.00,1.23
8142.00,1.22
8141.00,1.22
8140.00,1.22
8139.00,1.22
8138.00,1.22
8137.00,1.21
8136.00,1.21
8135.00,1.21
8134.00,1.20
8133.00,1.20
8132.00,1.20
8131.00,1.19
8130.00,1.19
8129.00,1.19
8128.00,1.18
8127.00,1.18
8126.00,1.18
8125.00,1.18
8124.00,1.17
8123.00,1.17
8122.00,1.17
8121.00,1.17
8120.00,1.16
8119.00,1.16
8118.00,1.16
8117.00,1.16
8116.00,1.16
8115.00,1.16
8114.00,1.16
8113.00,1.16
8112.00,1.17
8111.00,1.17
8110.00,1.17
8109.00,1.17
8108.00,1.17
8107.00,1.18
8106.00,1.18
8105.00,1.18
8104.00,1.18
8103.00,1.18
8102.00,1.18
8101.00,1.19
8100.00,1.19
8099.00,1.19
8098.00,1.19
8097.00,1.19
8096.00,1.19
8095.00,1.19
8094.00,1.19
8093.00,1.19
8092.00,1.19
8091.00,1.20
8090.00,1.20
8089.00,1.20
8088.00,1.19
8087.00,1.19
8086.00,1.19
8085.00,1.19
8084.00,1.19
8083.00,1.19
8082.00,1.19
8081.00,1.19
8080.00,1.19
8079.00,1.19
8078.00,1.19
8077.00,1.18
8076.00,1.18
8075.00,1.18
8074.00,1.18
8073.00,1.18
8072.00,1.17
8071.00,1.17
8070.00,1.17
8069.00,1.17
8068.00,1.17
8067.00,1.17
8066.00,1.17
8065.00,1.16
8064.00,1.16
8063.00,1.16
8062.00,1.16
8061.00,1.16
8060.00,1.15
8059.00,1.15
8058.00,1.15
8057.00,1.15
8056.00,1.15
8055.00,1.14
8054.00,1.14
8053.00,1.14
8052.00,1.14
8051.00,1.14
8050.00,1.14
8049.00,1.14
8048.00,1.14
8047.00,1.14
8046.00,1.15
8045.00,1.15
8044.00,1.15
8043.00,1.15
8042.00,1.15
8041.00,1.15
8040.00,1.15
8039.00,1.15
8038.00,1.15
8037.00,1.16
8036.00,1.16
8035.00,1.16
8034.00,1.16
8033.00,1.17
8032.00,1.17
8031.00,1.17
8030.00,1.17
8029.00,1.18
8028.00,1.18
8027.00,1.18
8026.00,1.19
8025.00,1.19
8024.00,1.19
8023.00,1.19
8022.00,1.20
8021.00,1.20
8020.00,1.20
8019.00,1.20
8018.00,1.20
8017.00,1.21
8016.00,1.21
8015.00,1.21
8014.00,1.21
8013.00,1.21
8012.00,1.21
8011.00,1.21
8010.00,1.21
8009.00,1.21
8008.00,1.20
8007.00,1.20
8006.00,1.20
8005.00,1.20
8004.00,1.20
8003.00,1.20
8002.00,1.20
8001.00,1.19
8000.00,1.19
7999.00,1.19
7998.00,1.19
7997.00,1.19
7996.00,1.18
7995.00,1.18
7994.00,1.18
7993.00,1.18
7992.00,1.17
7991.00,1.17
7990.00,1.17
7989.00,1.17
7988.00,1.17
7987.00,1.16
7986.00,1.16
7985.00,1.16
7984.00,1.16
7983.00,1.16
7982.00,1.16
7981.00,1.16
7980.00,1.16
7979.00,1.16
7978.00,1.16
7977.00,1.16
7976.00,1.16
7975.00,1.16
7974.00,1.16
7973.00,1.16
7972.00,1.16
7971.00,1.16
7970.00,1.16
7969.00,1.16
7968.00,1.16
7967.00,1.16
7966.00,1.16
7965.00,1.16
7964.00,1.16
7963.00,1.16
7962.00,1.16
7961.00,1.16
7960.00,1.16
7959.00,1.17
7958.00,1.17
7957.00,1.17
7956.00,1.17
7955.00,1.17
7954.00,1.17
7953.00,1.17
7952.00,1.18
7951.00,1.18
7950.00,1.18
7949.00,1.18
7948.00,1.18
7947.00,1.18
7946.00,1.18
7945.00,1.18
7944.00,1.18
7943.00,1.19
7942.00,1.19
7941.00,1.19
7940.00,1.19
7939.00,1.19
7938.00,1.19
7937.00,1.20
7936.00,1.20
7935.00,1.20
7934.00,1.20
7933.00,1.20
7932.00,1.20
7931.00,1.20
7930.00,1.20
7929.00,1.20
7928.00,1.20
7927.00,1.20
7926.00,1.20
7925.00,1.20
7924.00,1.20
7923.00,1.20
7922.00,1.20
7921.00,1.20
7920.00,1.19
7919.00,1.19
7918.00,1.19
7917.00,1.19
7916.00,1.20
7915.00,1.20
7914.00,1.20
7913.00,1.20
7912.00,1.20
7911.00,1.20
7910.00,1.19
7909.00,1.19
7908.00,1.19
7907.00,1.19
7906.00,1.19
7905.00,1.19
7904.00,1.19
7903.00,1.19
7902.00,1.18
7901.00,1.18
7900.00,1.18
7899.00,1.18
7898.00,1.18
7897.00,1.18
7896.00,1.18
7895.00,1.18
7894.00,1.18
7893.00,1.18
7892.00,1.18
7891.00,1.17
7890.00,1.17
7889.00,1.17
7888.00,1.16
7887.00,1.16
7886.00,1.16
7885.00,1.15
7884.00,1.15
7883.00,1.15
7882.00,1.14
7881.00,1.14
7880.00,1.14
7879.00,1.14
7878.00,1.14
7877.00,1.13
7876.00,1.13
7875.00,1.13
7874.00,1.13
7873.00,1.13
7872.00,1.13
7871.00,1.13
7870.00,1.13
7869.00,1.13
7868.00,1.13
7867.00,1.13
7866.00,1.13
7865.00,1.13
7864.00,1.13
7863.00,1.13
7862.00,1.13
7861.00,1.13
7860.00,1.13
7859.00,1.14
7858.00,1.14
7857.00,1.14
7856.00,1.14
7855.00,1.14
7854.00,1.14
7853.00,1.15
7852.00,1.15
7851.00,1.15
7850.00,1.15
7849.00,1.15
7848.00,1.15
7847.00,1.15
7846.00,1.15
7845.00,1.15
7844.00,1.15
7843.00,1.15
7842.00,1.15
7841.00,1.15
7840.00,1.15
7839.00,1.15
7838.00,1.16
7837.00,1.16
7836.00,1.16
7835.00,1.16
7834.00,1.16
7833.00,1.16
7832.00,1.17
7831.00,1.17
7830.00,1.17
7829.00,1.17
7828.00,1.17
7827.00,1.17
7826.00,1.17
7825.00,1.18
7824.00,1.18
7823.00,1.18
7822.00,1.18
7821.00,1.18
7820.00,1.18
7819.00,1.19
7818.00,1.19
7817.00,1.19
7816.00,1.19
7815.00,1.19
7814.00,1.19
7813.00,1.19
7812.00,1.19
7811.00,1.19
7810.00,1.19
7809.00,1.19
7808.00,1.18
7807.00,1.18
7806.00,1.18
7805.00,1.18
7804.00,1.18
7803.00,1.18
7802.00,1.18
7801.00,1.18
7800.00,1.18
7799.00,1.18
7798.00,1.18
7797.00,1.18
7796.00,1.18
7795.00,1.18
7794.00,1.18
7793.00,1.18
7792.00,1.18
7791.00,1.18
7790.00,1.18
7789.00,1.19
7788.00,1.19
7787.00,1.19
7786.00,1.19
7785.00,1.20
7784.00,1.20
7783.00,1.20
7782.00,1.20
7781.00,1.21
7780.00,1.21
7779.00,1.21
7778.00,1.21
7777.00,1.22
7776.00,1.22
7775.00,1.22
7774.00,1.22
7773.00,1.23
7772.00,1.23
7771.00,1.23
7770.00,1.23
7769.00,1.23
7768.00,1.23
7767.00,1.23
7766.00,1.23
7765.00,1.23
7764.00,1.23
7763.00,1.22
7762.00,1.22
7761.00,1.22
7760.00,1.22
7759.00,1.22
7758.00,1.21
7757.00,1.21
7756.00,1.21
7755.00,1.21
7754.00,1.20
7753.00,1.20
7752.00,1.20
7751.00,1.20
7750.00,1.20
7749.00,1.19
7748.00,1.19
7747.00,1.19
7746.00,1.19
7745.00,1.19
7744.00,1.19
7743.00,1.19
7742.00,1.19
7741.00,1.19
7740.00,1.19
7739.00,1.19
7738.00,1.19
7737.00,1.19
7736.00,1.20
7735.00,1.20
7734.00,1.20
7733.00,1.20
7732.00,1.20
7731.00,1.20
7730.00,1.20
7729.00,1.20
7728.00,1.20
7727.00,1.20
7726.00,1.20
7725.00,1.20
7724.00,1.20
7723.00,1.20
7722.00,1.20
7721.00,1.20
7720.00,1.20
7719.00,1.20
7718.00,1.20
7717.00,1.20
7716.00,1.19
7715.00,1.19
7714.00,1.19
7713.00,1.18
7712.00,1.18
7711.00,1.18
7710.00,1.17
7709.00,1.17
7708.00,1.17
7707.00,1.17
7706.00,1.16
7705.00,1.16
7704.00,1.16
7703.00,1.16
7702.00,1.16
7701.00,1.15
7700.00,1.15
7699.00,1.15
7698.00,1.15
7697.00,1.14
7696.00,1.14
7695.00,1.14
7694.00,1.13
7693.00,1.13
7692.00,1.13
7691.00,1.13
7690.00,1.13
7689.00,1.13
7688.00,1.13
7687.00,1.13
7686.00,1.13
7685.00,1.13
7684.00,1.13
7683.00,1.13
7682.00,1.13
7681.00,1.13
7680.00,1.13
7679.00,1.13
7678.00,1.13
7677.00,1.13
7676.00,1.13
7675.00,1.13
7674.00,1.13
7673.00,1.13
7672.00,1.14
7671.00,1.14
7670.00,1.14
7669.00,1.15
7668.00,1.15
7667.00,1.15
7666.00,1.16
7665.00,1.16
7664.00,1.16
7663.00,1.17
7662.00,1.17
7661.00,1.17
7660.00,1.18
7659.00,1.18
7658.00,1.19
7657.00,1.19
7656.00,1.19
7655.00,1.20
7654.00,1.20
7653.00,1.21
7652.00,1.21
7651.00,1.21
7650.00,1.22
7649.00,1.22
7648.00,1.22
7647.00,1.22
7646.00,1.22
7645.00,1.23
7644.00,1.23
7643.00,1.23
7642.00,1.23
7641.00,1.23
7640.00,1.23
7639.00,1.23
7638.00,1.23
7637.00,1.23
7636.00,1.23
7635.00,1.22
7634.00,1.22
7633.00,1.22
7632.00,1.22
7631.00,1.21
7630.00,1.21
7629.00,1.21
7628.00,1.21
7627.00,1.20
7626.00,1.20
7625.00,1.20
7624.00,1.19
7623.00,1.19
7622.00,1.19
7621.00,1.19
7620.00,1.19
7619.00,1.18
7618.00,1.18
7617.00,1.18
7616.00,1.18
7615.00,1.18
7614.00,1.17
7613.00,1.17
7612.00,1.17
7611.00,1.17
7610.00,1.17
7609.00,1.17
7608.00,1.17
7607.00,1.17
7606.00,1.17
7605.00,1.17
7604.00,1.17
7603.00,1.17
7602.00,1.17
7601.00,1.17
7600.00,1.17
7599.00,1.18
7598.00,1.18
7597.00,1.18
7596.00,1.18
7595.00,1.18
7594.00,1.19
7593.00,1.19
7592.00,1.19
7591.00,1.19
7590.00,1.19
7589.00,1.20
7588.00,1.20
7587.00,1.20
7586.00,1.20
7585.00,1.20
7584.00,1.21
7583.00,1.21
7582.00,1.21
7581.00,1.21
7580.00,1.22
7579.00,1.22
7578.00,1.22
7577.00,1.22
7576.00,1.22
7575.00,1.23
7574.00,1.23
7573.00,1.23
7572.00,1.23
7571.00,1.23
7570.00,1.23
7569.00,1.23
7568.00,1.23
7567.00,1.23
7566.00,1.23
7565.00,1.23
7564.00,1.23
7563.00,1.23
7562.00,1.23
7561.00,1.23
7560.00,1.23
7559.00,1.23
7558.00,1.23
7557.00,1.23
7556.00,1.23
7555.00,1.23
7554.00,1.22
7553.00,1.22
7552.00,1.22
7551.00,1.22
7550.00,1.22
7549.00,1.22
7548.00,1.22
7547.00,1.21
7546.00,1.21
7545.00,1.21
7544.00,1.21
7543.00,1.21
7542.00,1.21
7541.00,1.20
7540.00,1.20
7539.00,1.20
7538.00,1.20
7537.00,1.20
7536.00,1.19
7535.00,1.19
7534.00,1.19
7533.00,1.19
7532.00,1.19
7531.00,1.19
7530.00,1.19
7529.00,1.18
7528.00,1.18
7527.00,1.18
7526.00,1.18
7525.00,1.18
7524.00,1.18
7523.00,1.18
7522.00,1.18
7521.00,1.18
7520.00,1.18
7519.00,1.18
7518.00,1.18
7517.00,1.18
7516.00,1.18
7515.00,1.18
7514.00,1.18
7513.00,1.18
7512.00,1.18
7511.00,1.18
7510.00,1.18
7509.00,1.19
7508.00,1.19
7507.00,1.19
7506.00,1.19
7505.00,1.19
7504.00,1.19
7503.00,1.19
7502.00,1.19
7501.00,1.19
7500.00,1.19
7499.00,1.19
7498.00,1.19
7497.00,1.20
7496.00,1.20
7495.00,1.20
7494.00,1.20
7493.00,1.20
7492.00,1.21
7491.00,1.21
7490.00,1.21
7489.00,1.21
7488.00,1.22
7487.00,1.22
7486.00,1.22
7485.00,1.22
7484.00,1.23
7483.00,1.23
7482.00,1.23
7481.00,1.24
7480.00,1.24
7479.00,1.24
7478.00,1.24
7477.00,1.25
7476.00,1.25
7475.00,1.25
7474.00,1.25
7473.00,1.26
7472.00,1.26
7471.00,1.26
7470.00,1.26
7469.00,1.26
7468.00,1.26
7467.00,1.26
7466.00,1.26
7465.00,1.26
7464.00,1.26
7463.00,1.26
7462.00,1.26
7461.00,1.25
7460.00,1.25
7459.00,1.25
7458.00,1.25
7457.00,1.25
7456.00,1.24
7455.00,1.24
7454.00,1.24
7453.00,1.24
7452.00,1.24
7451.00,1.24
7450.00,1.23
7449.00,1.23
7448.00,1.23
7447.00,1.23
7446.00,1.22
7445.00,1.22
7444.00,1.22
7443.00,1.22
7442.00,1.22
7441.00,1.22
7440.00,1.22
7439.00,1.21
7438.00,1.21
7437.00,1.21
7436.00,1.21
7435.00,1.21
7434.00,1.21
7433.00,1.21
7432.00,1.21
7431.00,1.21
7430.00,1.21
7429.00,1.21
7428.00,1.21
7427.00,1.21
7426.00,1.21
7425.00,1.22
7424.00,1.22
7423.00,1.22
7422.00,1.22
7421.00,1.22
7420.00,1.22
7419.00,1.22
7418.00,1.22
7417.00,1.22
7416.00,1.22
7415.00,1.22
7414.00,1.22
7413.00,1.22
7412.00,1.22
7411.00,1.21
7410.00,1.21
7409.00,1.21
7408.00,1.21
7407.00,1.21
7406.00,1.21
7405.00,1.21
7404.00,1.21
7403.00,1.21
7402.00,1.21
7401.00,1.21
7400.00,1.21
7399.00,1.21
7398.00,1.21
7397.00,1.21
7396.00,1.21
7395.00,1.21
7394.00,1.21
7393.00,1.21
7392.00,1.21
7391.00,1.22
7390.00,1.22
7389.00,1.22
7388.00,1.23
7387.00,1.23
7386.00,1.23
7385.00,1.24
7384.00,1.24
7383.00,1.24
7382.00,1.25
7381.00,1.25
7380.00,1.25
7379.00,1.25
7378.00,1.26
7377.00,1.26
7376.00,1.26
7375.00,1.26
7374.00,1.26
7373.00,1.26
7372.00,1.26
7371.00,1.26
7370.00,1.26
7369.00,1.26
7368.00,1.26
7367.00,1.26
7366.00,1.26
7365.00,1.26
7364.00,1.26
7363.00,1.26
7362.00,1.26
7361.00,1.25
7360.00,1.25
7359.00,1.25
7358.00,1.25
7357.00,1.24
7356.00,1.24
7355.00,1.24
7354.00,1.24
7353.00,1.23
7352.00,1.23
7351.00,1.23
7350.00,1.23
7349.00,1.23
7348.00,1.23
7347.00,1.22
7346.00,1.22
7345.00,1.22
7344.00,1.22
7343.00,1.22
7342.00,1.22
7341.00,1.22
7340.00,1.22
7339.00,1.22
7338.00,1.22
7337.00,1.22
7336.00,1.21
7335.00,1.21
7334.00,1.21
7333.00,1.21
7332.00,1.21
7331.00,1.21
7330.00,1.21
7329.00,1.21
7328.00,1.21
7327.00,1.21
7326.00,1.21
7325.00,1.20
7324.00,1.20
7323.00,1.20
7322.00,1.20
7321.00,1.20
7320.00,1.20
7319.00,1.20
7318.00,1.19
7317.00,1.19
7316.00,1.19
7315.00,1.19
7314.00,1.19
7313.00,1.19
7312.00,1.18
7311.00,1.18
7310.00,1.18
7309.00,1.18
7308.00,1.18
7307.00,1.17
7306.00,1.17
7305.00,1.17
7304.00,1.17
7303.00,1.17
7302.00,1.17
7301.00,1.17
7300.00,1.17
7299.00,1.17
7298.00,1.17
7297.00,1.17
7296.00,1.17
7295.00,1.17
7294.00,1.17
7293.00,1.17
7292.00,1.18
7291.00,1.18
7290.00,1.18
7289.00,1.18
7288.00,1.18
7287.00,1.18
7286.00,1.19
7285.00,1.19
7284.00,1.19
7283.00,1.19
7282.00,1.20
7281.00,1.20
7280.00,1.20
7279.00,1.20
7278.00,1.20
7277.00,1.21
7276.00,1.21
7275.00,1.21
7274.00,1.21
7273.00,1.21
7272.00,1.21
7271.00,1.21
7270.00,1.21
7269.00,1.22
7268.00,1.22
7267.00,1.22
7266.00,1.22
7265.00,1.22
7264.00,1.22
7263.00,1.22
7262.00,1.21
7261.00,1.21
7260.00,1.21
7259.00,1.21
7258.00,1.21
7257.00,1.20
7256.00,1.20
7255.00,1.20
7254.00,1.20
7253.00,1.19
7252.00,1.19
7251.00,1.19
7250.00,1.19
7249.00,1.18
7248.00,1.18
7247.00,1.18
7246.00,1.18
7245.00,1.17
7244.00,1.17
7243.00,1.17
7242.00,1.16
7241.00,1.16
7240.00,1.16
7239.00,1.16
7238.00,1.15
7237.00,1.15
7236.00,1.15
7235.00,1.15
7234.00,1.15
7233.00,1.15
7232.00,1.15
7231.00,1.15
7230.00,1.15
7229.00,1.15
7228.00,1.15
7227.00,1.15
7226.00,1.15
7225.00,1.15
7224.00,1.15
7223.00,1.15
7222.00,1.15
7221.00,1.15
7220.00,1.15
7219.00,1.16
7218.00,1.16
7217.00,1.16
7216.00,1.16
7215.00,1.16
7214.00,1.16
7213.00,1.16
7212.00,1.16
7211.00,1.16
7210.00,1.16
7209.00,1.16
7208.00,1.16
7207.00,1.17
7206.00,1.17
7205.00,1.17
7204.00,1.17
7203.00,1.17
7202.00,1.17
7201.00,1.17
7200.00,1.17
7199.00,1.17
7198.00,1.18
7197.00,1.18
7196.00,1.18
7195.00,1.18
7194.00,1.18
7193.00,1.18
7192.00,1.18
7191.00,1.19
7190.00,1.19
7189.00,1.19
7188.00,1.19
7187.00,1.19
7186.00,1.19
7185.00,1.19
7184.00,1.19
7183.00,1.19
7182.00,1.19
7181.00,1.19
7180.00,1.19
7179.00,1.18
7178.00,1.18
7177.00,1.18
7176.00,1.18
7175.00,1.18
7174.00,1.18
7173.00,1.18
7172.00,1.18
7171.00,1.18
7170.00,1.18
7169.00,1.18
7168.00,1.18
7167.00,1.18
7166.00,1.18
7165.00,1.18
7164.00,1.18
7163.00,1.18
7162.00,1.18
7161.00,1.18
7160.00,1.18
7159.00,1.18
7158.00,1.18
7157.00,1.18
7156.00,1.18
7155.00,1.18
7154.00,1.19
7153.00,1.19
7152.00,1.19
7151.00,1.19
7150.00,1.19
7149.00,1.19
7148.00,1.19
7147.00,1.19
7146.00,1.19
7145.00,1.19
7144.00,1.19
7143.00,1.19
7142.00,1.19
7141.00,1.19
7140.00,1.19
7139.00,1.19
7138.00,1.19
7137.00,1.19
7136.00,1.19
7135.00,1.19
7134.00,1.19
7133.00,1.19
7132.00,1.19
7131.00,1.19
7130.00,1.19
7129.00,1.19
7128.00,1.19
7127.00,1.19
7126.00,1.19
7125.00,1.19
7124.00,1.19
7123.00,1.18
7122.00,1.18
7121.00,1.18
7120.00,1.18
7119.00,1.18
7118.00,1.18
7117.00,1.18
7116.00,1.18
7115.00,1.17
7114.00,1.17
7113.00,1.17
7112.00,1.17
7111.00,1.17
7110.00,1.17
7109.00,1.17
7108.00,1.16
7107.00,1.16
7106.00,1.16
7105.00,1.16
7104.00,1.16
7103.00,1.15
7102.00,1.15
7101.00,1.15
7100.00,1.15
7099.00,1.15
7098.00,1.15
7097.00,1.14
7096.00,1.14
7095.00,1.14
7094.00,1.14
7093.00,1.14
7092.00,1.14
7091.00,1.13
7090.00,1.13
7089.00,1.13
7088.00,1.13
7087.00,1.13
7086.00,1.13
7085.00,1.13
7084.00,1.13
7083.00,1.13
7082.00,1.13
7081.00,1.13
7080.00,1.13
7079.00,1.13
7078.00,1.12
7077.00,1.12
7076.00,1.12
7075.00,1.12
7074.00,1.12
7073.00,1.12
7072.00,1.12
7071.00,1.12
7070.00,1.12
7069.00,1.12
7068.00,1.12
7067.00,1.12
7066.00,1.12
7065.00,1.12
7064.00,1.12
7063.00,1.12
7062.00,1.12
7061.00,1.12
7060.00,1.12
7059.00,1.12
7058.00,1.12
7057.00,1.12
7056.00,1.12
7055.00,1.12
7054.00,1.12
7053.00,1.12
7052.00,1.12
7051.00,1.12
7050.00,1.12
7049.00,1.11
7048.00,1.11
7047.00,1.11
7046.00,1.11
7045.00,1.11
7044.00,1.11
7043.00,1.11
7042.00,1.11
7041.00,1.11
7040.00,1.11
7039.00,1.11
7038.00,1.11
7037.00,1.11
7036.00,1.11
7035.00,1.11
7034.00,1.11
7033.00,1.11
7032.00,1.11
7031.00,1.11
7030.00,1.11
7029.00,1.11
7028.00,1.11
7027.00,1.11
7026.00,1.11
7025.00,1.11
7024.00,1.11
7023.00,1.11
7022.00,1.11
7021.00,1.11
7020.00,1.11
7019.00,1.11
7018.00,1.12
7017.00,1.12
7016.00,1.12
7015.00,1.12
7014.00,1.12
7013.00,1.12
7012.00,1.12
7011.00,1.12
7010.00,1.12
7009.00,1.12
7008.00,1.12
7007.00,1.12
7006.00,1.12
7005.00,1.12
7004.00,1.12
7003.00,1.12
7002.00,1.12
7001.00,1.12
7000.00,1.12
6999.00,1.12
6998.00,1.12
6997.00,1.12
6996.00,1.12
6995.00,1.12
6994.00,1.12
6993.00,1.12
6992.00,1.12
6991.00,1.12
6990.00,1.12
6989.00,1.12
6988.00,1.12
6987.00,1.12
6986.00,1.12
6985.00,1.12
6984.00,1.12
6983.00,1.12
6982.00,1.12
6981.00,1.12
6980.00,1.12
6979.00,1.11
6978.00,1.11
6977.00,1.11
6976.00,1.11
6975.00,1.11
6974.00,1.11
6973.00,1.11
6972.00,1.11
6971.00,1.11
6970.00,1.10
6969.00,1.10
6968.00,1.10
6967.00,1.10
6966.00,1.10
6965.00,1.10
6964.00,1.10
6963.00,1.09
6962.00,1.09
6961.00,1.09
6960.00,1.09
6959.00,1.09
6958.00,1.09
6957.00,1.09
6956.00,1.09
6955.00,1.09
6954.00,1.09
6953.00,1.09
6952.00,1.10
6951.00,1.10
6950.00,1.10
6949.00,1.10
6948.00,1.10
6947.00,1.10
6946.00,1.10
6945.00,1.10
6944.00,1.10
6943.00,1.11
6942.00,1.11
6941.00,1.11
6940.00,1.11
6939.00,1.11
6938.00,1.11
6937.00,1.11
6936.00,1.11
6935.00,1.11
6934.00,1.11
6933.00,1.11
6932.00,1.11
6931.00,1.12
6930.00,1.12
6929.00,1.12
6928.00,1.12
6927.00,1.12
6926.00,1.12
6925.00,1.12
6924.00,1.12
6923.00,1.12
6922.00,1.12
6921.00,1.12
6920.00,1.12
6919.00,1.12
6918.00,1.12
6917.00,1.11
6916.00,1.11
6915.00,1.11
6914.00,1.11
6913.00,1.12
6912.00,1.12
6911.00,1.12
6910.00,1.12
6909.00,1.12
6908.00,1.12
6907.00,1.12
6906.00,1.12
6905.00,1.12
6904.00,1.13
6903.00,1.13
6902.00,1.13
6901.00,1.13
6900.00,1.13
6899.00,1.13
6898.00,1.13
6897.00,1.13
6896.00,1.13
6895.00,1.13
6894.00,1.13
6893.00,1.13
6892.00,1.13
6891.00,1.13
6890.00,1.13
6889.00,1.13
6888.00,1.13
6887.00,1.13
6886.00,1.13
6885.00,1.13
6884.00,1.13
6883.00,1.13
6882.00,1.13
6881.00,1.13
6880.00,1.13
6879.00,1.12
6878.00,1.12
6877.00,1.12
6876.00,1.12
6875.00,1.12
6874.00,1.12
6873.00,1.11
6872.00,1.11
6871.00,1.11
6870.00,1.11
6869.00,1.11
6868.00,1.11
6867.00,1.11
6866.00,1.11
6865.00,1.11
6864.00,1.11
6863.00,1.11
6862.00,1.11
6861.00,1.11
6860.00,1.11
6859.00,1.11
6858.00,1.11
6857.00,1.11
6856.00,1.11
6855.00,1.11
6854.00,1.11
6853.00,1.11
6852.00,1.11
6851.00,1.11
6850.00,1.11
6849.00,1.11
6848.00,1.11
6847.00,1.11
6846.00,1.11
6845.00,1.11
6844.00,1.11
6843.00,1.11
6842.00,1.11
6841.00,1.11
6840.00,1.11
6839.00,1.11
6838.00,1.11
6837.00,1.11
6836.00,1.11
6835.00,1.11
6834.00,1.11
6833.00,1.11
6832.00,1.11
6831.00,1.10
6830.00,1.10
6829.00,1.10
6828.00,1.10
6827.00,1.10
6826.00,1.10
6825.00,1.09
6824.00,1.09
6823.00,1.09
6822.00,1.09
6821.00,1.09
6820.00,1.08
6819.00,1.08
6818.00,1.08
6817.00,1.08
6816.00,1.08
6815.00,1.08
6814.00,1.08
6813.00,1.08
6812.00,1.08
6811.00,1.08
6810.00,1.08
6809.00,1.08
6808.00,1.08
6807.00,1.08
6806.00,1.08
6805.00,1.08
6804.00,1.08
6803.00,1.08
6802.00,1.09
6801.00,1.09
6800.00,1.09
6799.00,1.09
6798.00,1.10
6797.00,1.10
6796.00,1.10
6795.00,1.10
6794.00,1.11
6793.00,1.11
6792.00,1.11
6791.00,1.11
6790.00,1.11
6789.00,1.11
6788.00,1.12
6787.00,1.12
6786.00,1.12
6785.00,1.12
6784.00,1.12
6783.00,1.13
6782.00,1.13
6781.00,1.13
6780.00,1.13
6779.00,1.13
6778.00,1.13
6777.00,1.14
6776.00,1.14
6775.00,1.14
6774.00,1.14
6773.00,1.14
6772.00,1.14
6771.00,1.14
6770.00,1.14
6769.00,1.14
6768.00,1.14
6767.00,1.14
6766.00,1.14
6765.00,1.14
6764.00,1.14
6763.00,1.14
6762.00,1.14
6761.00,1.14
6760.00,1.14
6759.00,1.14
6758.00,1.14
6757.00,1.14
6756.00,1.13
6755.00,1.13
6754.00,1.13
6753.00,1.13
6752.00,1.13
6751.00,1.13
6750.00,1.13
6749.00,1.13
6748.00,1.13
6747.00,1.13
6746.00,1.13
6745.00,1.13
6744.00,1.13
6743.00,1.13
6742.00,1.13
6741.00,1.13
6740.00,1.14
6739.00,1.14
6738.00,1.14
6737.00,1.14
6736.00,1.14
6735.00,1.14
6734.00,1.14
6733.00,1.14
6732.00,1.14
6731.00,1.15
6730.00,1.15
6729.00,1.15
6728.00,1.15
6727.00,1.15
6726.00,1.16
6725.00,1.16
6724.00,1.16
6723.00,1.16
6722.00,1.16
6721.00,1.16
6720.00,1.16
6719.00,1.16
6718.00,1.16
6717.00,1.16
6716.00,1.16
6715.00,1.16
6714.00,1.16
6713.00,1.16
6712.00,1.16
6711.00,1.16
6710.00,1.16
6709.00,1.16
6708.00,1.16
6707.00,1.16
6706.00,1.16
6705.00,1.16
6704.00,1.16
6703.00,1.16
6702.00,1.16
6701.00,1.16
6700.00,1.16
6699.00,1.17
6698.00,1.17
6697.00,1.17
6696.00,1.17
6695.00,1.17
6694.00,1.17
6693.00,1.18
6692.00,1.18
6691.00,1.18
6690.00,1.18
6689.00,1.18
6688.00,1.19
6687.00,1.19
6686.00,1.19
6685.00,1.19
6684.00,1.19
6683.00,1.20
6682.00,1.20
6681.00,1.20
6680.00,1.20
6679.00,1.20
6678.00,1.20
6677.00,1.20
6676.00,1.20
6675.00,1.20
6674.00,1.20
6673.00,1.19
6672.00,1.19
6671.00,1.19
6670.00,1.19
6669.00,1.19
6668.00,1.19
6667.00,1.18
6666.00,1.18
6665.00,1.18
6664.00,1.18
6663.00,1.18
6662.00,1.17
6661.00,1.17
6660.00,1.17
6659.00,1.17
6658.00,1.16
6657.00,1.16
6656.00,1.16
6655.00,1.16
6654.00,1.16
6653.00,1.15
6652.00,1.15
6651.00,1.15
6650.00,1.15
6649.00,1.15
6648.00,1.15
6647.00,1.15
6646.00,1.15
6645.00,1.15
6644.00,1.15
6643.00,1.14
6642.00,1.14
6641.00,1.14
6640.00,1.14
6639.00,1.14
6638.00,1.14
6637.00,1.14
6636.00,1.14
6635.00,1.14
6634.00,1.14
6633.00,1.13
6632.00,1.13
6631.00,1.13
6630.00,1.13
6629.00,1.13
6628.00,1.13
6627.00,1.13
6626.00,1.13
6625.00,1.13
6624.00,1.14
6623.00,1.14
6622.00,1.14
6621.00,1.14
6620.00,1.14
6619.00,1.14
6618.00,1.14
6617.00,1.14
6616.00,1.15
6615.00,1.15
6614.00,1.15
6613.00,1.15
6612.00,1.15
6611.00,1.16
6610.00,1.16
6609.00,1.16
6608.00,1.17
6607.00,1.17
6606.00,1.17
6605.00,1.17
6604.00,1.18
6603.00,1.18
6602.00,1.18
6601.00,1.18
6600.00,1.19
6599.00,1.19
6598.00,1.19
6597.00,1.19
6596.00,1.19
6595.00,1.19
6594.00,1.19
6593.00,1.19
6592.00,1.19
6591.00,1.19
6590.00,1.19
6589.00,1.19
6588.00,1.19
6587.00,1.19
6586.00,1.18
6585.00,1.18
6584.00,1.18
6583.00,1.18
6582.00,1.18
6581.00,1.18
6580.00,1.18
6579.00,1.18
6578.00,1.18
6577.00,1.18
6576.00,1.18
6575.00,1.18
6574.00,1.18
6573.00,1.18
6572.00,1.18
6571.00,1.18
6570.00,1.18
6569.00,1.18
6568.00,1.18
6567.00,1.18
6566.00,1.19
6565.00,1.19
6564.00,1.19
6563.00,1.19
6562.00,1.19
6561.00,1.19
6560.00,1.20
6559.00,1.20
6558.00,1.20
6557.00,1.20
6556.00,1.20
6555.00,1.20
6554.00,1.20
6553.00,1.20
6552.00,1.21
6551.00,1.21
6550.00,1.21
6549.00,1.21
6548.00,1.21
6547.00,1.21
6546.00,1.21
6545.00,1.21
6544.00,1.21
6543.00,1.21
6542.00,1.21
6541.00,1.21
6540.00,1.21
6539.00,1.21
6538.00,1.21
6537.00,1.21
6536.00,1.21
6535.00,1.21
6534.00,1.21
6533.00,1.21
6532.00,1.21
6531.00,1.21
6530.00,1.21
6529.00,1.21
6528.00,1.21
6527.00,1.21
6526.00,1.21
6525.00,1.22
6524.00,1.22
6523.00,1.22
6522.00,1.22
6521.00,1.22
6520.00,1.22
6519.00,1.22
6518.00,1.22
6517.00,1.22
6516.00,1.22
6515.00,1.22
6514.00,1.22
6513.00,1.22
6512.00,1.22
6511.00,1.22
6510.00,1.22
6509.00,1.21
6508.00,1.21
6507.00,1.21
6506.00,1.21
6505.00,1.21
6504.00,1.21
6503.00,1.21
6502.00,1.21
6501.00,1.21
6500.00,1.21
6499.00,1.20
6498.00,1.20
6497.00,1.20
6496.00,1.20
6495.00,1.20
6494.00,1.20
6493.00,1.20
6492.00,1.20
6491.00,1.20
6490.00,1.20
6489.00,1.20
6488.00,1.20
6487.00,1.20
6486.00,1.20
6485.00,1.20
6484.00,1.20
6483.00,1.20
6482.00,1.20
6481.00,1.20
6480.00,1.21
6479.00,1.21
6478.00,1.21
6477.00,1.21
6476.00,1.21
6475.00,1.21
6474.00,1.21
6473.00,1.21
6472.00,1.21
6471.00,1.21
6470.00,1.21
6469.00,1.21
6468.00,1.22
6467.00,1.22
6466.00,1.22
6465.00,1.22
6464.00,1.22
6463.00,1.22
6462.00,1.22
6461.00,1.22
6460.00,1.22
6459.00,1.22
6458.00,1.22
6457.00,1.22
6456.00,1.22
6455.00,1.22
6454.00,1.22
6453.00,1.22
6452.00,1.22
6451.00,1.22
6450.00,1.22
6449.00,1.22
6448.00,1.22
6447.00,1.22
6446.00,1.22
6445.00,1.22
6444.00,1.22
6443.00,1.22
6442.00,1.22
6441.00,1.22
6440.00,1.22
6439.00,1.22
6438.00,1.22
6437.00,1.22
6436.00,1.22
6435.00,1.22
6434.00,1.22
6433.00,1.22
6432.00,1.22
6431.00,1.22
6430.00,1.22
6429.00,1.22
6428.00,1.22
6427.00,1.22
6426.00,1.23
6425.00,1.23
6424.00,1.23
6423.00,1.23
6422.00,1.23
6421.00,1.23
6420.00,1.24
6419.00,1.24
6418.00,1.24
6417.00,1.24
6416.00,1.24
6415.00,1.24
6414.00,1.25
6413.00,1.25
6412.00,1.25
6411.00,1.25
6410.00,1.25
6409.00,1.25
6408.00,1.25
6407.00,1.25
6406.00,1.25
6405.00,1.26
6404.00,1.26
6403.00,1.26
6402.00,1.26
6401.00,1.26
6400.00,1.26
6399.00,1.26
6398.00,1.26
6397.00,1.26
6396.00,1.26
6395.00,1.26
6394.00,1.26
6393.00,1.25
6392.00,1.25
6391.00,1.25
6390.00,1.25
6389.00,1.25
6388.00,1.25
6387.00,1.25
6386.00,1.25
6385.00,1.25
6384.00,1.25
6383.00,1.25
6382.00,1.25
6381.00,1.25
6380.00,1.25
6379.00,1.24
6378.00,1.24
6377.00,1.24
6376.00,1.24
6375.00,1.24
6374.00,1.24
6373.00,1.24
6372.00,1.24
6371.00,1.24
6370.00,1.24
6369.00,1.24
6368.00,1.24
6367.00,1.24
6366.00,1.24
6365.00,1.24
6364.00,1.24
6363.00,1.23
6362.00,1.23
6361.00,1.23
6360.00,1.23
6359.00,1.23
6358.00,1.23
6357.00,1.23
6356.00,1.23
6355.00,1.22
6354.00,1.22
6353.00,1.22
6352.00,1.22
6351.00,1.22
6350.00,1.22
6349.00,1.22
6348.00,1.22
6347.00,1.22
6346.00,1.22
6345.00,1.22
6344.00,1.22
6343.00,1.22
6342.00,1.22
6341.00,1.22
6340.00,1.22
6339.00,1.22
6338.00,1.22
6337.00,1.23
6336.00,1.23
6335.00,1.23
6334.00,1.23
6333.00,1.24
6332.00,1.24
6331.00,1.24
6330.00,1.24
6329.00,1.25
6328.00,1.25
6327.00,1.25
6326.00,1.26
6325.00,1.26
6324.00,1.26
6323.00,1.26
6322.00,1.27
6321.00,1.27
6320.00,1.27
6319.00,1.27
6318.00,1.27
6317.00,1.27
6316.00,1.28
6315.00,1.28
6314.00,1.28
6313.00,1.28
6312.00,1.28
6311.00,1.28
6310.00,1.28
6309.00,1.28
6308.00,1.27
6307.00,1.27
6306.00,1.27
6305.00,1.27
6304.00,1.27
6303.00,1.27
6302.00,1.26
6301.00,1.26
6300.00,1.26
6299.00,1.26
6298.00,1.26
6297.00,1.25
6296.00,1.25
6295.00,1.25
6294.00,1.25
6293.00,1.25
6292.00,1.25
6291.00,1.25
6290.00,1.25
6289.00,1.25
6288.00,1.25
6287.00,1.25
6286.00,1.25
6285.00,1.25
6284.00,1.25
6283.00,1.25
6282.00,1.25
6281.00,1.25
6280.00,1.26
6279.00,1.26
6278.00,1.26
6277.00,1.26
6276.00,1.26
6275.00,1.27
6274.00,1.27
6273.00,1.27
6272.00,1.27
6271.00,1.28
6270.00,1.28
6269.00,1.28
6268.00,1.28
6267.00,1.28
6266.00,1.29
6265.00,1.29
6264.00,1.29
6263.00,1.29
6262.00,1.29
6261.00,1.29
6260.00,1.29
6259.00,1.29
6258.00,1.29
6257.00,1.29
6256.00,1.29
6255.00,1.29
6254.00,1.29
6253.00,1.29
6252.00,1.29
6251.00,1.29
6250.00,1.29
6249.00,1.29
6248.00,1.29
6247.00,1.29
6246.00,1.29
6245.00,1.28
6244.00,1.28
6243.00,1.28
6242.00,1.28
6241.00,1.28
6240.00,1.28
6239.00,1.28
6238.00,1.28
6237.00,1.28
6236.00,1.28
6235.00,1.28
6234.00,1.28
6233.00,1.28
6232.00,1.28
6231.00,1.28
6230.00,1.28
6229.00,1.28
6228.00,1.28
6227.00,1.28
6226.00,1.28
6225.00,1.28
6224.00,1.28
6223.00,1.27
6222.00,1.27
6221.00,1.27
6220.00,1.27
6219.00,1.27
6218.00,1.27
6217.00,1.27
6216.00,1.26
6215.00,1.26
6214.00,1.26
6213.00,1.26
6212.00,1.26
6211.00,1.26
6210.00,1.25
6209.00,1.25
6208.00,1.25
6207.00,1.25
6206.00,1.25
6205.00,1.24
6204.00,1.24
6203.00,1.24
6202.00,1.24
6201.00,1.24
6200.00,1.24
6199.00,1.23
6198.00,1.23
6197.00,1.23
6196.00,1.23
6195.00,1.23
6194.00,1.23
6193.00,1.23
6192.00,1.23
6191.00,1.23
6190.00,1.23
6189.00,1.23
6188.00,1.24
6187.00,1.24
6186.00,1.24
6185.00,1.24
6184.00,1.24
6183.00,1.24
6182.00,1.25
6181.00,1.25
6180.00,1.25
6179.00,1.25
6178.00,1.26
6177.00,1.26
6176.00,1.26
6175.00,1.27
6174.00,1.27
6173.00,1.27
6172.00,1.27
6171.00,1.28
6170.00,1.28
6169.00,1.28
6168.00,1.28
6167.00,1.29
6166.00,1.29
6165.00,1.29
6164.00,1.29
6163.00,1.29
6162.00,1.30
6161.00,1.30
6160.00,1.30
6159.00,1.30
6158.00,1.30
6157.00,1.30
6156.00,1.30
6155.00,1.30
6154.00,1.30
6153.00,1.30
6152.00,1.30
6151.00,1.30
6150.00,1.30
6149.00,1.30
6148.00,1.30
6147.00,1.30
6146.00,1.30
6145.00,1.30
6144.00,1.30
6143.00,1.30
6142.00,1.30
6141.00,1.30
6140.00,1.30
6139.00,1.30
6138.00,1.30
6137.00,1.30
6136.00,1.30
6135.00,1.30
6134.00,1.30
6133.00,1.30
6132.00,1.30
6131.00,1.30
6130.00,1.30
6129.00,1.30
6128.00,1.30
6127.00,1.30
6126.00,1.30
6125.00,1.30
6124.00,1.30
6123.00,1.30
6122.00,1.30
6121.00,1.30
6120.00,1.30
6119.00,1.30
6118.00,1.30
6117.00,1.30
6116.00,1.30
6115.00,1.30
6114.00,1.30
6113.00,1.30
6112.00,1.30
6111.00,1.30
6110.00,1.30
6109.00,1.31
6108.00,1.31
6107.00,1.31
6106.00,1.31
6105.00,1.31
6104.00,1.31
6103.00,1.31
6102.00,1.31
6101.00,1.31
6100.00,1.31
6099.00,1.31
6098.00,1.31
6097.00,1.31
6096.00,1.31
6095.00,1.31
6094.00,1.31
6093.00,1.31
6092.00,1.30
6091.00,1.30
6090.00,1.30
6089.00,1.30
6088.00,1.30
6087.00,1.30
6086.00,1.30
6085.00,1.30
6084.00,1.30
6083.00,1.30
6082.00,1.30
6081.00,1.29
6080.00,1.29
6079.00,1.29
6078.00,1.29
6077.00,1.29
6076.00,1.29
6075.00,1.29
6074.00,1.29
6073.00,1.29
6072.00,1.29
6071.00,1.30
6070.00,1.30
6069.00,1.30
6068.00,1.30
6067.00,1.30
6066.00,1.30
6065.00,1.30
6064.00,1.30
6063.00,1.30
6062.00,1.30
6061.00,1.31
6060.00,1.31
6059.00,1.31
6058.00,1.31
6057.00,1.31
6056.00,1.31
6055.00,1.31
6054.00,1.31
6053.00,1.31
6052.00,1.31
6051.00,1.31
6050.00,1.31
6049.00,1.31
6048.00,1.31
6047.00,1.31
6046.00,1.31
6045.00,1.31
6044.00,1.30
6043.00,1.30
6042.00,1.30
6041.00,1.30
6040.00,1.30
6039.00,1.30
6038.00,1.30
6037.00,1.30
6036.00,1.30
6035.00,1.30
6034.00,1.30
6033.00,1.30
6032.00,1.30
6031.00,1.30
6030.00,1.30
6029.00,1.30
6028.00,1.30
6027.00,1.30
6026.00,1.30
6025.00,1.30
6024.00,1.30
6023.00,1.30
6022.00,1.30
6021.00,1.30
6020.00,1.30
6019.00,1.30
6018.00,1.30
6017.00,1.30
6016.00,1.30
6015.00,1.30
6014.00,1.30
6013.00,1.30
6012.00,1.30
6011.00,1.30
6010.00,1.30
6009.00,1.30
6008.00,1.30
6007.00,1.30
6006.00,1.30
6005.00,1.31
6004.00,1.31
6003.00,1.31
6002.00,1.31
6001.00,1.31
6000.00,1.31
5999.00,1.31
5998.00,1.31
5997.00,1.31
5996.00,1.31
5995.00,1.31
5994.00,1.31
5993.00,1.31
5992.00,1.31
5991.00,1.31
5990.00,1.31
5989.00,1.31
5988.00,1.31
5987.00,1.30
5986.00,1.30
5985.00,1.30
5984.00,1.30
5983.00,1.30
5982.00,1.30
5981.00,1.30
5980.00,1.30
5979.00,1.30
5978.00,1.30
5977.00,1.30
5976.00,1.30
5975.00,1.30
5974.00,1.30
5973.00,1.30
5972.00,1.30
5971.00,1.29
5970.00,1.29
5969.00,1.29
5968.00,1.29
5967.00,1.29
5966.00,1.29
5965.00,1.30
5964.00,1.30
5963.00,1.30
5962.00,1.30
5961.00,1.30
5960.00,1.30
5959.00,1.30
5958.00,1.30
5957.00,1.30
5956.00,1.30
5955.00,1.30
5954.00,1.30
5953.00,1.30
5952.00,1.30
5951.00,1.30
5950.00,1.30
5949.00,1.31
5948.00,1.31
5947.00,1.31
5946.00,1.31
5945.00,1.31
5944.00,1.31
5943.00,1.31
5942.00,1.31
5941.00,1.31
5940.00,1.31
5939.00,1.31
5938.00,1.31
5937.00,1.31
5936.00,1.31
5935.00,1.31
5934.00,1.31
5933.00,1.30
5932.00,1.30
5931.00,1.30
5930.00,1.30
5929.00,1.30
5928.00,1.30
5927.00,1.30
5926.00,1.30
5925.00,1.30
5924.00,1.29
5923.00,1.29
5922.00,1.29
5921.00,1.29
5920.00,1.29
5919.00,1.29
5918.00,1.29
5917.00,1.28
5916.00,1.28
5915.00,1.28
5914.00,1.28
5913.00,1.28
5912.00,1.28
5911.00,1.28
5910.00,1.28
5909.00,1.28
5908.00,1.28
5907.00,1.28
5906.00,1.28
5905.00,1.28
5904.00,1.28
5903.00,1.28
5902.00,1.28
5901.00,1.28
5900.00,1.29
5899.00,1.29
5898.00,1.29
5897.00,1.29
5896.00,1.29
5895.00,1.29
5894.00,1.29
5893.00,1.30
5892.00,1.30
5891.00,1.30
5890.00,1.30
5889.00,1.30
5888.00,1.30
5887.00,1.30
5886.00,1.30
5885.00,1.30
5884.00,1.31
5883.00,1.31
5882.00,1.31
5881.00,1.31
5880.00,1.31
5879.00,1.31
5878.00,1.31
5877.00,1.31
5876.00,1.31
5875.00,1.31
5874.00,1.31
5873.00,1.31
5872.00,1.31
5871.00,1.31
5870.00,1.31
5869.00,1.31
5868.00,1.31
5867.00,1.31
5866.00,1.31
5865.00,1.31
5864.00,1.31
5863.00,1.31
5862.00,1.31
5861.00,1.31
5860.00,1.31
5859.00,1.31
5858.00,1.31
5857.00,1.32
5856.00,1.32
5855.00,1.32
5854.00,1.32
5853.00,1.32
5852.00,1.32
5851.00,1.32
5850.00,1.32
5849.00,1.32
5848.00,1.32
5847.00,1.32
5846.00,1.32
5845.00,1.32
5844.00,1.32
5843.00,1.32
5842.00,1.32
5841.00,1.32
5840.00,1.32
5839.00,1.32
5838.00,1.32
5837.00,1.32
5836.00,1.32
5835.00,1.32
5834.00,1.32
5833.00,1.32
5832.00,1.32
5831.00,1.32
5830.00,1.32
5829.00,1.32
5828.00,1.32
5827.00,1.32
5826.00,1.32
5825.00,1.32
5824.00,1.32
5823.00,1.32
5822.00,1.32
5821.00,1.32
5820.00,1.32
5819.00,1.32
5818.00,1.32
5817.00,1.32
5816.00,1.32
5815.00,1.32
5814.00,1.32
5813.00,1.32
5812.00,1.32
5811.00,1.32
5810.00,1.33
5809.00,1.33
5808.00,1.33
5807.00,1.33
5806.00,1.33
5805.00,1.33
5804.00,1.33
5803.00,1.33
5802.00,1.33
5801.00,1.33
5800.00,1.33
5799.00,1.33
5798.00,1.33
5797.00,1.33
5796.00,1.33
5795.00,1.33
5794.00,1.33
5793.00,1.33
5792.00,1.33
5791.00,1.33
5790.00,1.33
5789.00,1.33
5788.00,1.33
5787.00,1.33
5786.00,1.33
5785.00,1.33
5784.00,1.32
5783.00,1.32
5782.00,1.32
5781.00,1.32
5780.00,1.32
5779.00,1.32
5778.00,1.32
5777.00,1.32
5776.00,1.31
5775.00,1.31
5774.00,1.31
5773.00,1.31
5772.00,1.31
5771.00,1.31
5770.00,1.31
5769.00,1.30
5768.00,1.30
5767.00,1.30
5766.00,1.30
5765.00,1.30
5764.00,1.30
5763.00,1.30
5762.00,1.30
5761.00,1.30
5760.00,1.30
5759.00,1.30
5758.00,1.30
5757.00,1.30
5756.00,1.30
5755.00,1.30
5754.00,1.30
5753.00,1.30
5752.00,1.30
5751.00,1.30
5750.00,1.30
5749.00,1.30
5748.00,1.30
5747.00,1.30
5746.00,1.30
5745.00,1.30
5744.00,1.30
5743.00,1.30
5742.00,1.30
5741.00,1.30
5740.00,1.30
5739.00,1.31
5738.00,1.31
5737.00,1.31
5736.00,1.31
5735.00,1.31
5734.00,1.31
5733.00,1.31
5732.00,1.31
5731.00,1.31
5730.00,1.32
5729.00,1.32
5728.00,1.32
5727.00,1.32
5726.00,1.32
5725.00,1.32
5724.00,1.32
5723.00,1.32
5722.00,1.32
5721.00,1.32
5720.00,1.32
5719.00,1.32
5718.00,1.32
5717.00,1.32
5716.00,1.32
5715.00,1.32
5714.00,1.32
5713.00,1.32
5712.00,1.32
5711.00,1.32
5710.00,1.32
5709.00,1.31
5708.00,1.31
5707.00,1.31
5706.00,1.31
5705.00,1.31
5704.00,1.31
5703.00,1.31
5702.00,1.31
5701.00,1.31
5700.00,1.31
5699.00,1.31
5698.00,1.31
5697.00,1.31
5696.00,1.31
5695.00,1.31
5694.00,1.31
5693.00,1.32
5692.00,1.32
5691.00,1.32
5690.00,1.32
5689.00,1.32
5688.00,1.32
5687.00,1.32
5686.00,1.32
5685.00,1.32
5684.00,1.32
5683.00,1.32
5682.00,1.32
5681.00,1.31
5680.00,1.31
5679.00,1.31
5678.00,1.31
5677.00,1.31
5676.00,1.31
5675.00,1.31
5674.00,1.31
5673.00,1.31
5672.00,1.30
5671.00,1.30
5670.00,1.30
5669.00,1.30
5668.00,1.29
5667.00,1.29
5666.00,1.29
5665.00,1.29
5664.00,1.29
5663.00,1.29
5662.00,1.29
5661.00,1.29
5660.00,1.28
5659.00,1.28
5658.00,1.28
5657.00,1.28
5656.00,1.28
5655.00,1.28
5654.00,1.28
5653.00,1.28
5652.00,1.28
5651.00,1.28
5650.00,1.29
5649.00,1.29
5648.00,1.29
5647.00,1.29
5646.00,1.29
5645.00,1.29
5644.00,1.30
5643.00,1.30
5642.00,1.30
5641.00,1.30
5640.00,1.30
5639.00,1.31
5638.00,1.31
5637.00,1.31
5636.00,1.31
5635.00,1.31
5634.00,1.31
5633.00,1.31
5632.00,1.31
5631.00,1.31
5630.00,1.31
5629.00,1.31
5628.00,1.31
5627.00,1.31
5626.00,1.31
5625.00,1.31
5624.00,1.31
5623.00,1.31
5622.00,1.31
5621.00,1.31
5620.00,1.31
5619.00,1.31
5618.00,1.31
5617.00,1.30
5616.00,1.30
5615.00,1.30
5614.00,1.30
5613.00,1.30
5612.00,1.30
5611.00,1.30
5610.00,1.30
5609.00,1.30
5608.00,1.30
5607.00,1.30
5606.00,1.30
5605.00,1.31
5604.00,1.31
5603.00,1.31
5602.00,1.31
5601.00,1.31
5600.00,1.31
5599.00,1.31
5598.00,1.31
5597.00,1.31
5596.00,1.31
5595.00,1.31
5594.00,1.31
5593.00,1.31
5592.00,1.32
5591.00,1.32
5590.00,1.32
5589.00,1.32
5588.00,1.32
5587.00,1.32
5586.00,1.32
5585.00,1.32
5584.00,1.33
5583.00,1.33
5582.00,1.33
5581.00,1.33
5580.00,1.33
5579.00,1.33
5578.00,1.33
5577.00,1.33
5576.00,1.33
5575.00,1.33
5574.00,1.33
5573.00,1.33
5572.00,1.33
5571.00,1.34
5570.00,1.34
5569.00,1.34
5568.00,1.34
5567.00,1.34
5566.00,1.34
5565.00,1.34
5564.00,1.34
5563.00,1.34
5562.00,1.34
5561.00,1.34
5560.00,1.34
5559.00,1.34
5558.00,1.34
5557.00,1.34
5556.00,1.34
5555.00,1.33
5554.00,1.33
5553.00,1.33
5552.00,1.33
5551.00,1.33
5550.00,1.33
5549.00,1.33
5548.00,1.33
5547.00,1.33
5546.00,1.33
5545.00,1.33
5544.00,1.33
5543.00,1.33
5542.00,1.33
5541.00,1.33
5540.00,1.33
5539.00,1.33
5538.00,1.33
5537.00,1.33
5536.00,1.33
5535.00,1.33
5534.00,1.33
5533.00,1.33
5532.00,1.33
5531.00,1.33
5530.00,1.33
5529.00,1.33
5528.00,1.33
5527.00,1.33
5526.00,1.33
5525.00,1.33
5524.00,1.34
5523.00,1.34
5522.00,1.34
5521.00,1.34
5520.00,1.34
5519.00,1.34
5518.00,1.34
5517.00,1.34
5516.00,1.34
5515.00,1.34
5514.00,1.34
5513.00,1.35
5512.00,1.35
5511.00,1.35
5510.00,1.35
5509.00,1.35
5508.00,1.35
5507.00,1.36
5506.00,1.36
5505.00,1.36
5504.00,1.36
5503.00,1.36
5502.00,1.36
5501.00,1.36
5500.00,1.36
5499.00,1.36
5498.00,1.36
5497.00,1.36
5496.00,1.36
5495.00,1.36
5494.00,1.36
5493.00,1.36
5492.00,1.36
5491.00,1.36
5490.00,1.36
5489.00,1.36
5488.00,1.36
5487.00,1.36
5486.00,1.36
5485.00,1.36
5484.00,1.35
5483.00,1.35
5482.00,1.35
5481.00,1.35
5480.00,1.35
5479.00,1.35
5478.00,1.35
5477.00,1.34
5476.00,1.34
5475.00,1.34
5474.00,1.34
5473.00,1.34
5472.00,1.34
5471.00,1.34
5470.00,1.34
5469.00,1.34
5468.00,1.34
5467.00,1.34
5466.00,1.34
5465.00,1.34
5464.00,1.34
5463.00,1.34
5462.00,1.34
5461.00,1.34
5460.00,1.34
5459.00,1.34
5458.00,1.34
5457.00,1.34
5456.00,1.34
5455.00,1.34
5454.00,1.34
5453.00,1.34
5452.00,1.34
5451.00,1.35
5450.00,1.35
5449.00,1.35
5448.00,1.35
5447.00,1.35
5446.00,1.35
5445.00,1.35
5444.00,1.35
5443.00,1.36
5442.00,1.36
5441.00,1.36
5440.00,1.36
5439.00,1.36
5438.00,1.36
5437.00,1.36
5436.00,1.36
5435.00,1.36
5434.00,1.36
5433.00,1.36
5432.00,1.37
5431.00,1.37
5430.00,1.37
5429.00,1.37
5428.00,1.37
5427.00,1.37
5426.00,1.37
5425.00,1.37
5424.00,1.36
5423.00,1.36
5422.00,1.36
5421.00,1.36
5420.00,1.36
5419.00,1.36
5418.00,1.36
5417.00,1.36
5416.00,1.35
5415.00,1.35
5414.00,1.35
5413.00,1.35
5412.00,1.35
5411.00,1.35
5410.00,1.35
5409.00,1.35
5408.00,1.34
5407.00,1.34
5406.00,1.34
5405.00,1.34
5404.00,1.34
5403.00,1.34
5402.00,1.34
5401.00,1.33
5400.00,1.33
5399.00,1.33
5398.00,1.33
5397.00,1.33
5396.00,1.33
5395.00,1.33
5394.00,1.32
5393.00,1.32
5392.00,1.32
5391.00,1.32
5390.00,1.32
5389.00,1.32
5388.00,1.32
5387.00,1.32
5386.00,1.32
5385.00,1.32
5384.00,1.32
5383.00,1.32
5382.00,1.32
5381.00,1.31
5380.00,1.31
5379.00,1.31
5378.00,1.31
5377.00,1.31
5376.00,1.32
5375.00,1.32
5374.00,1.32
5373.00,1.32
5372.00,1.32
5371.00,1.32
5370.00,1.32
5369.00,1.32
5368.00,1.32
5367.00,1.32
5366.00,1.32
5365.00,1.32
5364.00,1.32
5363.00,1.32
5362.00,1.32
5361.00,1.32
5360.00,1.32
5359.00,1.32
5358.00,1.32
5357.00,1.31
5356.00,1.31
5355.00,1.31
5354.00,1.31
5353.00,1.31
5352.00,1.31
5351.00,1.31
5350.00,1.30
5349.00,1.30
5348.00,1.30
5347.00,1.30
5346.00,1.30
5345.00,1.29
5344.00,1.29
5343.00,1.29
5342.00,1.29
5341.00,1.29
5340.00,1.28
5339.00,1.28
5338.00,1.28
5337.00,1.28
5336.00,1.27
5335.00,1.27
5334.00,1.27
5333.00,1.27
5332.00,1.27
5331.00,1.26
5330.00,1.26
5329.00,1.26
5328.00,1.26
5327.00,1.25
5326.00,1.25
5325.00,1.25
5324.00,1.24
5323.00,1.24
5322.00,1.24
5321.00,1.23
5320.00,1.23
5319.00,1.23
5318.00,1.22
5317.00,1.22
5316.00,1.22
5315.00,1.21
5314.00,1.21
5313.00,1.21
5312.00,1.20
5311.00,1.20
5310.00,1.20
5309.00,1.19
5308.00,1.19
5307.00,1.19
5306.00,1.18
5305.00,1.18
5304.00,1.18
5303.00,1.17
5302.00,1.17
5301.00,1.17
5300.00,1.16
5299.00,1.16
5298.00,1.16
5297.00,1.15
5296.00,1.15
5295.00,1.15
5294.00,1.15
5293.00,1.14
5292.00,1.14
5291.00,1.14
5290.00,1.14
5289.00,1.13
5288.00,1.13
5287.00,1.13
5286.00,1.13
5285.00,1.12
5284.00,1.12
5283.00,1.12
5282.00,1.11
5281.00,1.11
5280.00,1.11
5279.00,1.11
5278.00,1.10
5277.00,1.10
5276.00,1.10
5275.00,1.10
5274.00,1.10
5273.00,1.09
5272.00,1.09
5271.00,1.09
5270.00,1.09
5269.00,1.08
5268.00,1.08
5267.00,1.08
5266.00,1.07
5265.00,1.07
5264.00,1.07
5263.00,1.07
5262.00,1.07
5261.00,1.06
5260.00,1.06
5259.00,1.06
5258.00,1.06
5257.00,1.06
5256.00,1.06
5255.00,1.05
5254.00,1.05
5253.00,1.05
5252.00,1.05
5251.00,1.05
5250.00,1.04
5249.00,1.04
5248.00,1.04
5247.00,1.04
5246.00,1.03
5245.00,1.03
5244.00,1.03
5243.00,1.03
5242.00,1.03
5241.00,1.02
5240.00,1.02
5239.00,1.02
5238.00,1.02
5237.00,1.01
5236.00,1.01
5235.00,1.01
5234.00,1.01
5233.00,1.01
5232.00,1.00
5231.00,1.00
5230.00,1.00
5229.00,1.00
5228.00,1.00
5227.00,1.00
5226.00,0.99
5225.00,0.99
5224.00,0.99
5223.00,0.99
5222.00,0.99
5221.00,0.99
5220.00,0.99
5219.00,0.99
5218.00,0.99
5217.00,0.99
5216.00,0.99
5215.00,0.99
5214.00,0.99
5213.00,0.99
5212.00,0.99
5211.00,0.99
5210.00,0.99
5209.00,0.99
5208.00,0.99
5207.00,0.99
5206.00,0.99
5205.00,0.99
5204.00,0.99
5203.00,0.99
5202.00,0.99
5201.00,0.99
5200.00,0.99
5199.00,0.99
5198.00,0.99
5197.00,0.99
5196.00,0.99
5195.00,0.99
5194.00,0.99
5193.00,0.99
5192.00,0.99
5191.00,0.99
5190.00,0.99
5189.00,0.99
5188.00,0.99
5187.00,0.99
5186.00,0.99
5185.00,0.99
5184.00,0.99
5183.00,0.99
5182.00,0.99
5181.00,0.99
5180.00,0.99
5179.00,0.99
5178.00,0.99
5177.00,0.99
5176.00,0.99
5175.00,0.99
5174.00,0.99
5173.00,0.99
5172.00,0.99
5171.00,0.99
5170.00,0.99
5169.00,0.99
5168.00,0.99
5167.00,0.99
5166.00,0.99
5165.00,0.99
5164.00,0.99
5163.00,0.99
5162.00,0.99
5161.00,0.99
5160.00,0.99
5159.00,0.99
5158.00,0.99
5157.00,0.99
5156.00,0.99
5155.00,0.99
5154.00,0.99
5153.00,0.99
5152.00,0.99
5151.00,0.99
5150.00,0.99
5149.00,0.99
5148.00,0.99
5147.00,0.99
5146.00,0.99
5145.00,1.00
5144.00,1.00
5143.00,1.00
5142.00,1.00
5141.00,1.00
5140.00,1.00
5139.00,1.00
5138.00,0.99
5137.00,0.99
5136.00,0.99
5135.00,0.99
5134.00,0.99
5133.00,0.99
5132.00,0.99
5131.00,0.99
5130.00,0.99
5129.00,0.99
5128.00,0.99
5127.00,0.99
5126.00,0.99
5125.00,0.99
5124.00,0.99
5123.00,0.99
5122.00,0.99
5121.00,0.99
5120.00,0.99
5119.00,0.99
5118.00,0.99
5117.00,0.99
5116.00,0.99
5115.00,0.99
5114.00,0.99
5113.00,0.99
5112.00,0.99
5111.00,0.99
5110.00,0.99
5109.00,0.99
5108.00,1.00
5107.00,1.00
5106.00,1.00
5105.00,1.00
5104.00,1.00
5103.00,1.00
5102.00,1.01
5101.00,1.01
5100.00,1.01
5099.00,1.01
5098.00,1.01
5097.00,1.01
5096.00,1.02
5095.00,1.02
5094.00,1.02
5093.00,1.02
5092.00,1.02
5091.00,1.02
5090.00,1.03
5089.00,1.03
5088.00,1.03
5087.00,1.03
5086.00,1.03
5085.00,1.03
5084.00,1.04
5083.00,1.04
5082.00,1.04
5081.00,1.04
5080.00,1.04
5079.00,1.04
5078.00,1.04
5077.00,1.05
5076.00,1.05
5075.00,1.05
5074.00,1.05
5073.00,1.05
5072.00,1.05
5071.00,1.05
5070.00,1.05
5069.00,1.05
5068.00,1.06
5067.00,1.06
5066.00,1.06
5065.00,1.06
5064.00,1.06
5063.00,1.06
5062.00,1.06
5061.00,1.07
5060.00,1.07
5059.00,1.07
5058.00,1.07
5057.00,1.07
5056.00,1.07
5055.00,1.07
5054.00,1.07
5053.00,1.08
5052.00,1.08
5051.00,1.08
5050.00,1.08
5049.00,1.08
5048.00,1.08
5047.00,1.09
5046.00,1.09
5045.00,1.09
5044.00,1.09
5043.00,1.10
5042.00,1.10
5041.00,1.10
5040.00,1.10
5039.00,1.10
5038.00,1.10
5037.00,1.10
5036.00,1.11
5035.00,1.11
5034.00,1.11
5033.00,1.11
5032.00,1.11
5031.00,1.11
5030.00,1.11
5029.00,1.11
5028.00,1.12
5027.00,1.12
5026.00,1.12
5025.00,1.12
5024.00,1.12
5023.00,1.12
5022.00,1.12
5021.00,1.12
5020.00,1.12
5019.00,1.12
5018.00,1.12
5017.00,1.12
5016.00,1.12
5015.00,1.12
5014.00,1.12
5013.00,1.12
5012.00,1.12
5011.00,1.12
5010.00,1.12
5009.00,1.12
5008.00,1.12
5007.00,1.12
5006.00,1.12
5005.00,1.12
5004.00,1.12
5003.00,1.12
5002.00,1.12
5001.00,1.13
5000.00,1.13
4999.00,1.13
4998.00,1.13
4997.00,1.13
4996.00,1.13
4995.00,1.13
4994.00,1.13
4993.00,1.13
4992.00,1.13
4991.00,1.13
4990.00,1.13
4989.00,1.13
4988.00,1.13
4987.00,1.13
4986.00,1.13
4985.00,1.14
4984.00,1.14
4983.00,1.14
4982.00,1.14
4981.00,1.14
4980.00,1.14
4979.00,1.14
4978.00,1.14
4977.00,1.14
4976.00,1.14
4975.00,1.15
4974.00,1.15
4973.00,1.15
4972.00,1.15
4971.00,1.15
4970.00,1.15
4969.00,1.15
4968.00,1.16
4967.00,1.16
4966.00,1.16
4965.00,1.16
4964.00,1.17
4963.00,1.17
4962.00,1.17
4961.00,1.17
4960.00,1.17
4959.00,1.18
4958.00,1.18
4957.00,1.18
4956.00,1.18
4955.00,1.18
4954.00,1.18
4953.00,1.18
4952.00,1.19
4951.00,1.19
4950.00,1.19
4949.00,1.19
4948.00,1.19
4947.00,1.19
4946.00,1.19
4945.00,1.19
4944.00,1.19
4943.00,1.20
4942.00,1.20
4941.00,1.20
4940.00,1.20
4939.00,1.20
4938.00,1.20
4937.00,1.20
4936.00,1.20
4935.00,1.20
4934.00,1.20
4933.00,1.20
4932.00,1.20
4931.00,1.21
4930.00,1.21
4929.00,1.21
4928.00,1.21
4927.00,1.21
4926.00,1.21
4925.00,1.21
4924.00,1.21
4923.00,1.21
4922.00,1.21
4921.00,1.21
4920.00,1.21
4919.00,1.21
4918.00,1.21
4917.00,1.21
4916.00,1.21
4915.00,1.21
4914.00,1.21
4913.00,1.21
4912.00,1.21
4911.00,1.21
4910.00,1.21
4909.00,1.21
4908.00,1.20
4907.00,1.20
4906.00,1.20
4905.00,1.20
4904.00,1.20
4903.00,1.20
4902.00,1.20
4901.00,1.20
4900.00,1.20
4899.00,1.20
4898.00,1.20
4897.00,1.20
4896.00,1.20
4895.00,1.20
4894.00,1.20
4893.00,1.20
4892.00,1.20
4891.00,1.20
4890.00,1.20
4889.00,1.20
4888.00,1.20
4887.00,1.20
4886.00,1.20
4885.00,1.20
4884.00,1.20
4883.00,1.20
4882.00,1.20
4881.00,1.20
4880.00,1.21
4879.00,1.21
4878.00,1.21
4877.00,1.21
4876.00,1.21
4875.00,1.21
4874.00,1.21
4873.00,1.21
4872.00,1.21
4871.00,1.21
4870.00,1.21
4869.00,1.21
4868.00,1.21
4867.00,1.21
4866.00,1.22
4865.00,1.22
4864.00,1.22
4863.00,1.22
4862.00,1.22
4861.00,1.22
4860.00,1.22
4859.00,1.22
4858.00,1.22
4857.00,1.22
4856.00,1.22
4855.00,1.23
4854.00,1.23
4853.00,1.23
4852.00,1.23
4851.00,1.23
4850.00,1.23
4849.00,1.23
4848.00,1.23
4847.00,1.23
4846.00,1.23
4845.00,1.23
4844.00,1.23
4843.00,1.23
4842.00,1.24
4841.00,1.24
4840.00,1.24
4839.00,1.24
4838.00,1.24
4837.00,1.25
4836.00,1.25
4835.00,1.25
4834.00,1.25
4833.00,1.25
4832.00,1.26
4831.00,1.26
4830.00,1.26
4829.00,1.26
4828.00,1.26
4827.00,1.26
4826.00,1.27
4825.00,1.27
4824.00,1.27
4823.00,1.27
4822.00,1.27
4821.00,1.27
4820.00,1.27
4819.00,1.27
4818.00,1.27
4817.00,1.28
4816.00,1.28
4815.00,1.28
4814.00,1.27
4813.00,1.27
4812.00,1.27
4811.00,1.27
4810.00,1.27
4809.00,1.27
4808.00,1.27
4807.00,1.27
4806.00,1.27
4805.00,1.27
4804.00,1.27
4803.00,1.27
4802.00,1.27
4801.00,1.27
4800.00,1.27
4799.00,1.27
4798.00,1.27
4797.00,1.27
4796.00,1.27
4795.00,1.27
4794.00,1.27
4793.00,1.28
4792.00,1.28
4791.00,1.28
4790.00,1.28
4789.00,1.28
4788.00,1.28
4787.00,1.28
4786.00,1.28
4785.00,1.29
4784.00,1.29
4783.00,1.29
4782.00,1.29
4781.00,1.29
4780.00,1.30
4779.00,1.30
4778.00,1.30
4777.00,1.30
4776.00,1.30
4775.00,1.30
4774.00,1.30
4773.00,1.30
4772.00,1.30
4771.00,1.30
4770.00,1.30
4769.00,1.30
4768.00,1.31
4767.00,1.31
4766.00,1.31
4765.00,1.31
4764.00,1.31
4763.00,1.31
4762.00,1.31
4761.00,1.31
4760.00,1.31
4759.00,1.31
4758.00,1.31
4757.00,1.31
4756.00,1.31
4755.00,1.31
4754.00,1.31
4753.00,1.31
4752.00,1.31
4751.00,1.31
4750.00,1.31
4749.00,1.31
4748.00,1.31
4747.00,1.31
4746.00,1.31
4745.00,1.31
4744.00,1.31
4743.00,1.31
4742.00,1.31
4741.00,1.31
4740.00,1.31
4739.00,1.31
4738.00,1.32
4737.00,1.32
4736.00,1.32
4735.00,1.32
4734.00,1.32
4733.00,1.32
4732.00,1.32
4731.00,1.32
4730.00,1.32
4729.00,1.32
4728.00,1.32
4727.00,1.32
4726.00,1.32
4725.00,1.32
4724.00,1.32
4723.00,1.32
4722.00,1.32
4721.00,1.32
4720.00,1.33
4719.00,1.33
4718.00,1.33
4717.00,1.33
4716.00,1.33
4715.00,1.33
4714.00,1.33
4713.00,1.33
4712.00,1.33
4711.00,1.34
4710.00,1.34
4709.00,1.34
4708.00,1.34
4707.00,1.34
4706.00,1.34
4705.00,1.35
4704.00,1.35
4703.00,1.35
4702.00,1.35
4701.00,1.35
4700.00,1.35
4699.00,1.35
4698.00,1.35
4697.00,1.36
4696.00,1.36
4695.00,1.36
4694.00,1.36
4693.00,1.36
4692.00,1.36
4691.00,1.36
4690.00,1.36
4689.00,1.36
4688.00,1.36
4687.00,1.36
4686.00,1.36
4685.00,1.36
4684.00,1.36
4683.00,1.36
4682.00,1.36
4681.00,1.36
4680.00,1.36
4679.00,1.36
4678.00,1.36
4677.00,1.36
4676.00,1.36
4675.00,1.36
4674.00,1.36
4673.00,1.36
4672.00,1.36
4671.00,1.36
4670.00,1.36
4669.00,1.36
4668.00,1.36
4667.00,1.36
4666.00,1.36
4665.00,1.36
4664.00,1.36
4663.00,1.36
4662.00,1.36
4661.00,1.36
4660.00,1.36
4659.00,1.36
4658.00,1.37
4657.00,1.37
4656.00,1.37
4655.00,1.37
4654.00,1.37
4653.00,1.37
4652.00,1.37
4651.00,1.37
4650.00,1.37
4649.00,1.38
4648.00,1.38
4647.00,1.38
4646.00,1.38
4645.00,1.37
4644.00,1.37
4643.00,1.37
4642.00,1.37
4641.00,1.37
4640.00,1.37
4639.00,1.37
4638.00,1.37
4637.00,1.37
4636.00,1.37
4635.00,1.37
4634.00,1.37
4633.00,1.37
4632.00,1.37
4631.00,1.37
4630.00,1.37
4629.00,1.36
4628.00,1.36
4627.00,1.36
4626.00,1.36
4625.00,1.36
4624.00,1.36
4623.00,1.36
4622.00,1.35
4621.00,1.35
4620.00,1.35
4619.00,1.35
4618.00,1.35
4617.00,1.35
4616.00,1.35
4615.00,1.35
4614.00,1.35
4613.00,1.35
4612.00,1.35
4611.00,1.35
4610.00,1.35
4609.00,1.35
4608.00,1.35
4607.00,1.35
4606.00,1.35
4605.00,1.35
4604.00,1.35
4603.00,1.34
4602.00,1.34
4601.00,1.34
4600.00,1.34
4599.00,1.34
4598.00,1.34
4597.00,1.34
4596.00,1.34
4595.00,1.34
4594.00,1.34
4593.00,1.34
4592.00,1.34
4591.00,1.34
4590.00,1.35
4589.00,1.35
4588.00,1.35
4587.00,1.35
4586.00,1.35
4585.00,1.35
4584.00,1.35
4583.00,1.35
4582.00,1.35
4581.00,1.35
4580.00,1.35
4579.00,1.35
4578.00,1.36
4577.00,1.36
4576.00,1.36
4575.00,1.36
4574.00,1.36
4573.00,1.36
4572.00,1.36
4571.00,1.36
4570.00,1.36
4569.00,1.36
4568.00,1.36
4567.00,1.36
4566.00,1.36
4565.00,1.36
4564.00,1.36
4563.00,1.36
4562.00,1.36
4561.00,1.36
4560.00,1.36
4559.00,1.36
4558.00,1.36
4557.00,1.36
4556.00,1.36
4555.00,1.36
4554.00,1.36
4553.00,1.36
4552.00,1.36
4551.00,1.36
4550.00,1.36
4549.00,1.36
4548.00,1.36
4547.00,1.36
4546.00,1.36
4545.00,1.36
4544.00,1.36
4543.00,1.36
4542.00,1.36
4541.00,1.37
4540.00,1.37
4539.00,1.37
4538.00,1.37
4537.00,1.37
4536.00,1.37
4535.00,1.37
4534.00,1.37
4533.00,1.37
4532.00,1.37
4531.00,1.37
4530.00,1.37
4529.00,1.37
4528.00,1.37
4527.00,1.37
4526.00,1.37
4525.00,1.37
4524.00,1.37
4523.00,1.37
4522.00,1.37
4521.00,1.37
4520.00,1.37
4519.00,1.37
4518.00,1.36
4517.00,1.36
4516.00,1.36
4515.00,1.36
4514.00,1.36
4513.00,1.36
4512.00,1.36
4511.00,1.35
4510.00,1.35
4509.00,1.35
4508.00,1.35
4507.00,1.35
4506.00,1.35
4505.00,1.35
4504.00,1.35
4503.00,1.34
4502.00,1.34
4501.00,1.34
4500.00,1.34
4499.00,1.34
4498.00,1.34
4497.00,1.34
4496.00,1.34
4495.00,1.34
4494.00,1.34
4493.00,1.35
4492.00,1.35
4491.00,1.35
4490.00,1.35
4489.00,1.35
4488.00,1.35
4487.00,1.35
4486.00,1.35
4485.00,1.35
4484.00,1.35
4483.00,1.35
4482.00,1.35
4481.00,1.35
4480.00,1.35
4479.00,1.35
4478.00,1.35
4477.00,1.35
4476.00,1.35
4475.00,1.35
4474.00,1.35
4473.00,1.35
4472.00,1.35
4471.00,1.34
4470.00,1.34
4469.00,1.34
4468.00,1.34
4467.00,1.34
4466.00,1.33
4465.00,1.33
4464.00,1.33
4463.00,1.33
4462.00,1.32
4461.00,1.32
4460.00,1.32
4459.00,1.32
4458.00,1.32
4457.00,1.31
4456.00,1.31
4455.00,1.31
4454.00,1.31
4453.00,1.31
4452.00,1.31
4451.00,1.30
4450.00,1.30
4449.00,1.30
4448.00,1.30
4447.00,1.30
4446.00,1.30
4445.00,1.30
4444.00,1.30
4443.00,1.30
4442.00,1.30
4441.00,1.30
4440.00,1.30
4439.00,1.29
4438.00,1.29
4437.00,1.29
4436.00,1.29
4435.00,1.29
4434.00,1.29
4433.00,1.29
4432.00,1.28
4431.00,1.28
4430.00,1.28
4429.00,1.28
4428.00,1.28
4427.00,1.28
4426.00,1.28
4425.00,1.28
4424.00,1.28
4423.00,1.28
4422.00,1.28
4421.00,1.28
4420.00,1.28
4419.00,1.28
4418.00,1.28
4417.00,1.28
4416.00,1.28
4415.00,1.28
4414.00,1.29
4413.00,1.29
4412.00,1.29
4411.00,1.29
4410.00,1.30
4409.00,1.30
4408.00,1.30
4407.00,1.30
4406.00,1.31
4405.00,1.31
4404.00,1.31
4403.00,1.32
4402.00,1.32
4401.00,1.32
4400.00,1.32
4399.00,1.32
4398.00,1.33
4397.00,1.33
4396.00,1.33
4395.00,1.33
4394.00,1.33
4393.00,1.33
4392.00,1.33
4391.00,1.33
4390.00,1.34
4389.00,1.34
4388.00,1.34
4387.00,1.34
4386.00,1.34
4385.00,1.34
4384.00,1.34
4383.00,1.34
4382.00,1.34
4381.00,1.33
4380.00,1.33
4379.00,1.33
4378.00,1.33
4377.00,1.33
4376.00,1.33
4375.00,1.33
4374.00,1.32
4373.00,1.32
4372.00,1.32
4371.00,1.32
4370.00,1.32
4369.00,1.32
4368.00,1.31
4367.00,1.31
4366.00,1.31
4365.00,1.31
4364.00,1.31
4363.00,1.31
4362.00,1.30
4361.00,1.30
4360.00,1.30
4359.00,1.30
4358.00,1.30
4357.00,1.29
4356.00,1.29
4355.00,1.29
4354.00,1.29
4353.00,1.29
4352.00,1.28
4351.00,1.28
4350.00,1.28
4349.00,1.28
4348.00,1.28
4347.00,1.28
4346.00,1.28
4345.00,1.28
4344.00,1.28
4343.00,1.27
4342.00,1.27
4341.00,1.27
4340.00,1.27
4339.00,1.27
4338.00,1.28
4337.00,1.28
4336.00,1.28
4335.00,1.28
4334.00,1.28
4333.00,1.28
4332.00,1.28
4331.00,1.28
4330.00,1.28
4329.00,1.29
4328.00,1.29
4327.00,1.29
4326.00,1.29
4325.00,1.29
4324.00,1.29
4323.00,1.29
4322.00,1.29
4321.00,1.30
4320.00,1.30
4319.00,1.30
4318.00,1.30
4317.00,1.31
4316.00,1.31
4315.00,1.31
4314.00,1.31
4313.00,1.31
4312.00,1.32
4311.00,1.32
4310.00,1.32
4309.00,1.32
4308.00,1.32
4307.00,1.32
4306.00,1.32
4305.00,1.32
4304.00,1.32
4303.00,1.32
4302.00,1.33
4301.00,1.33
4300.00,1.33
4299.00,1.33
4298.00,1.33
4297.00,1.34
4296.00,1.34
4295.00,1.34
4294.00,1.34
4293.00,1.34
4292.00,1.34
4291.00,1.34
4290.00,1.34
4289.00,1.34
4288.00,1.34
4287.00,1.34
4286.00,1.34
4285.00,1.34
4284.00,1.34
4283.00,1.34
4282.00,1.34
4281.00,1.34
4280.00,1.34
4279.00,1.34
4278.00,1.34
4277.00,1.34
4276.00,1.34
4275.00,1.34
4274.00,1.34
4273.00,1.34
4272.00,1.34
4271.00,1.34
4270.00,1.34
4269.00,1.34
4268.00,1.34
4267.00,1.34
4266.00,1.34
4265.00,1.34
4264.00,1.34
4263.00,1.34
4262.00,1.34
4261.00,1.34
4260.00,1.34
4259.00,1.34
4258.00,1.34
4257.00,1.34
4256.00,1.34
4255.00,1.34
4254.00,1.34
4253.00,1.34
4252.00,1.34
4251.00,1.33
4250.00,1.33
4249.00,1.33
4248.00,1.33
4247.00,1.33
4246.00,1.33
4245.00,1.33
4244.00,1.33
4243.00,1.33
4242.00,1.33
4241.00,1.33
4240.00,1.33
4239.00,1.33
4238.00,1.33
4237.00,1.33
4236.00,1.34
4235.00,1.34
4234.00,1.34
4233.00,1.34
4232.00,1.34
4231.00,1.34
4230.00,1.34
4229.00,1.34
4228.00,1.34
4227.00,1.34
4226.00,1.35
4225.00,1.35
4224.00,1.35
4223.00,1.35
4222.00,1.35
4221.00,1.35
4220.00,1.36
4219.00,1.36
4218.00,1.36
4217.00,1.36
4216.00,1.36
4215.00,1.36
4214.00,1.36
4213.00,1.37
4212.00,1.37
4211.00,1.37
4210.00,1.37
4209.00,1.37
4208.00,1.37
4207.00,1.37
4206.00,1.36
4205.00,1.36
4204.00,1.36
4203.00,1.36
4202.00,1.36
4201.00,1.36
4200.00,1.35
4199.00,1.35
4198.00,1.35
4197.00,1.35
4196.00,1.34
4195.00,1.34
4194.00,1.34
4193.00,1.34
4192.00,1.33
4191.00,1.33
4190.00,1.33
4189.00,1.32
4188.00,1.32
4187.00,1.32
4186.00,1.32
4185.00,1.31
4184.00,1.31
4183.00,1.31
4182.00,1.31
4181.00,1.30
4180.00,1.30
4179.00,1.30
4178.00,1.30
4177.00,1.30
4176.00,1.30
4175.00,1.30
4174.00,1.30
4173.00,1.30
4172.00,1.30
4171.00,1.30
4170.00,1.30
4169.00,1.30
4168.00,1.30
4167.00,1.30
4166.00,1.30
4165.00,1.30
4164.00,1.30
4163.00,1.30
4162.00,1.30
4161.00,1.30
4160.00,1.30
4159.00,1.30
4158.00,1.30
4157.00,1.30
4156.00,1.30
4155.00,1.30
4154.00,1.30
4153.00,1.31
4152.00,1.31
4151.00,1.31
4150.00,1.31
4149.00,1.31
4148.00,1.31
4147.00,1.31
4146.00,1.32
4145.00,1.32
4144.00,1.32
4143.00,1.32
4142.00,1.32
4141.00,1.32
4140.00,1.33
4139.00,1.33
4138.00,1.33
4137.00,1.33
4136.00,1.34
4135.00,1.34
4134.00,1.34
4133.00,1.34
4132.00,1.35
4131.00,1.35
4130.00,1.35
4129.00,1.35
4128.00,1.35
4127.00,1.35
4126.00,1.35
4125.00,1.35
4124.00,1.35
4123.00,1.35
4122.00,1.35
4121.00,1.35
4120.00,1.35
4119.00,1.35
4118.00,1.35
4117.00,1.34
4116.00,1.34
4115.00,1.34
4114.00,1.33
4113.00,1.33
4112.00,1.33
4111.00,1.32
4110.00,1.32
4109.00,1.31
4108.00,1.31
4107.00,1.31
4106.00,1.30
4105.00,1.30
4104.00,1.30
4103.00,1.29
4102.00,1.29
4101.00,1.29
4100.00,1.28
4099.00,1.28
4098.00,1.28
4097.00,1.28
4096.00,1.27
4095.00,1.27
4094.00,1.27
4093.00,1.27
4092.00,1.27
4091.00,1.27
4090.00,1.27
4089.00,1.27
4088.00,1.27
4087.00,1.27
4086.00,1.27
4085.00,1.28
4084.00,1.28
4083.00,1.28
4082.00,1.28
4081.00,1.28
4080.00,1.28
4079.00,1.28
4078.00,1.27
4077.00,1.27
4076.00,1.27
4075.00,1.27
4074.00,1.27
4073.00,1.27
4072.00,1.27
4071.00,1.27
4070.00,1.27
4069.00,1.27
4068.00,1.27
4067.00,1.27
4066.00,1.27
4065.00,1.27
4064.00,1.27
4063.00,1.27
4062.00,1.27
4061.00,1.26
4060.00,1.26
4059.00,1.26
4058.00,1.26
4057.00,1.27
4056.00,1.27
4055.00,1.27
4054.00,1.27
4053.00,1.27
4052.00,1.28
4051.00,1.28
4050.00,1.28
4049.00,1.29
4048.00,1.29
4047.00,1.30
4046.00,1.30
4045.00,1.30
4044.00,1.31
4043.00,1.31
4042.00,1.31
4041.00,1.32
4040.00,1.32
4039.00,1.33
4038.00,1.33
4037.00,1.34
4036.00,1.34
4035.00,1.34
4034.00,1.35
4033.00,1.35
4032.00,1.35
4031.00,1.36
4030.00,1.36
4029.00,1.36
4028.00,1.36
4027.00,1.37
4026.00,1.37
4025.00,1.37
4024.00,1.38
4023.00,1.38
4022.00,1.38
4021.00,1.38
4020.00,1.38
4019.00,1.38
4018.00,1.39
4017.00,1.39
4016.00,1.39
4015.00,1.39
4014.00,1.39
4013.00,1.40
4012.00,1.40
4011.00,1.40
4010.00,1.40
4009.00,1.40
4008.00,1.41
4007.00,1.41
4006.00,1.41
4005.00,1.42
4004.00,1.42
4003.00,1.42
4002.00,1.42
4001.00,1.43
4000.00,1.43
