创建为新数据集,样品 311 用户 Administrator 日期 星期六, 七月 27 2019
cm-1,%T
10000.00,1.96
9999.00,1.96
9998.00,1.95
9997.00,1.95
9996.00,1.94
9995.00,1.94
9994.00,1.94
9993.00,1.93
9992.00,1.93
9991.00,1.93
9990.00,1.93
9989.00,1.93
9988.00,1.93
9987.00,1.93
9986.00,1.93
9985.00,1.93
9984.00,1.93
9983.00,1.94
9982.00,1.94
9981.00,1.94
9980.00,1.94
9979.00,1.95
9978.00,1.95
9977.00,1.95
9976.00,1.95
9975.00,1.95
9974.00,1.96
9973.00,1.96
9972.00,1.96
9971.00,1.95
9970.00,1.95
9969.00,1.95
9968.00,1.94
9967.00,1.94
9966.00,1.93
9965.00,1.92
9964.00,1.91
9963.00,1.91
9962.00,1.90
9961.00,1.89
9960.00,1.88
9959.00,1.87
9958.00,1.86
9957.00,1.85
9956.00,1.84
9955.00,1.83
9954.00,1.82
9953.00,1.81
9952.00,1.81
9951.00,1.80
9950.00,1.79
9949.00,1.78
9948.00,1.77
9947.00,1.76
9946.00,1.75
9945.00,1.75
9944.00,1.74
9943.00,1.74
9942.00,1.73
9941.00,1.73
9940.00,1.73
9939.00,1.73
9938.00,1.73
9937.00,1.73
9936.00,1.73
9935.00,1.73
9934.00,1.74
9933.00,1.74
9932.00,1.74
9931.00,1.74
9930.00,1.74
9929.00,1.75
9928.00,1.75
9927.00,1.76
9926.00,1.76
9925.00,1.77
9924.00,1.77
9923.00,1.78
9922.00,1.79
9921.00,1.80
9920.00,1.80
9919.00,1.81
9918.00,1.82
9917.00,1.82
9916.00,1.83
9915.00,1.83
9914.00,1.84
9913.00,1.84
9912.00,1.84
9911.00,1.85
9910.00,1.85
9909.00,1.85
9908.00,1.86
9907.00,1.86
9906.00,1.86
9905.00,1.87
9904.00,1.87
9903.00,1.87
9902.00,1.87
9901.00,1.87
9900.00,1.87
9899.00,1.87
9898.00,1.87
9897.00,1.87
9896.00,1.87
9895.00,1.86
9894.00,1.86
9893.00,1.85
9892.00,1.85
9891.00,1.84
9890.00,1.84
9889.00,1.83
9888.00,1.83
9887.00,1.83
9886.00,1.82
9885.00,1.82
9884.00,1.81
9883.00,1.81
9882.00,1.80
9881.00,1.80
9880.00,1.79
9879.00,1.79
9878.00,1.78
9877.00,1.77
9876.00,1.77
9875.00,1.76
9874.00,1.75
9873.00,1.75
9872.00,1.74
9871.00,1.74
9870.00,1.73
9869.00,1.73
9868.00,1.73
9867.00,1.72
9866.00,1.72
9865.00,1.72
9864.00,1.72
9863.00,1.72
9862.00,1.71
9861.00,1.71
9860.00,1.71
9859.00,1.71
9858.00,1.71
9857.00,1.70
9856.00,1.70
9855.00,1.70
9854.00,1.70
9853.00,1.70
9852.00,1.70
9851.00,1.70
9850.00,1.71
9849.00,1.71
9848.00,1.71
9847.00,1.71
9846.00,1.72
9845.00,1.72
9844.00,1.72
9843.00,1.72
9842.00,1.73
9841.00,1.73
9840.00,1.73
9839.00,1.73
9838.00,1.74
9837.00,1.74
9836.00,1.74
9835.00,1.74
9834.00,1.75
9833.00,1.75
9832.00,1.75
9831.00,1.76
9830.00,1.76
9829.00,1.76
9828.00,1.76
9827.00,1.76
9826.00,1.76
9825.00,1.76
9824.00,1.76
9823.00,1.76
9822.00,1.76
9821.00,1.76
9820.00,1.76
9819.00,1.76
9818.00,1.76
9817.00,1.76
9816.00,1.75
9815.00,1.75
9814.00,1.75
9813.00,1.75
9812.00,1.74
9811.00,1.74
9810.00,1.73
9809.00,1.73
9808.00,1.72
9807.00,1.72
9806.00,1.71
9805.00,1.71
9804.00,1.70
9803.00,1.70
9802.00,1.69
9801.00,1.68
9800.00,1.68
9799.00,1.67
9798.00,1.66
9797.00,1.65
9796.00,1.65
9795.00,1.64
9794.00,1.63
9793.00,1.63
9792.00,1.62
9791.00,1.61
9790.00,1.61
9789.00,1.60
9788.00,1.60
9787.00,1.60
9786.00,1.59
9785.00,1.59
9784.00,1.58
9783.00,1.58
9782.00,1.58
9781.00,1.57
9780.00,1.57
9779.00,1.57
9778.00,1.56
9777.00,1.56
9776.00,1.56
9775.00,1.56
9774.00,1.56
9773.00,1.56
9772.00,1.56
9771.00,1.56
9770.00,1.57
9769.00,1.57
9768.00,1.57
9767.00,1.57
9766.00,1.58
9765.00,1.58
9764.00,1.58
9763.00,1.59
9762.00,1.59
9761.00,1.59
9760.00,1.59
9759.00,1.60
9758.00,1.60
9757.00,1.60
9756.00,1.61
9755.00,1.61
9754.00,1.61
9753.00,1.62
9752.00,1.62
9751.00,1.63
9750.00,1.63
9749.00,1.63
9748.00,1.64
9747.00,1.64
9746.00,1.64
9745.00,1.65
9744.00,1.65
9743.00,1.65
9742.00,1.66
9741.00,1.66
9740.00,1.67
9739.00,1.67
9738.00,1.67
9737.00,1.68
9736.00,1.68
9735.00,1.68
9734.00,1.69
9733.00,1.69
9732.00,1.69
9731.00,1.69
9730.00,1.69
9729.00,1.70
9728.00,1.70
9727.00,1.70
9726.00,1.70
9725.00,1.70
9724.00,1.70
9723.00,1.71
9722.00,1.71
9721.00,1.71
9720.00,1.71
9719.00,1.71
9718.00,1.71
9717.00,1.71
9716.00,1.71
9715.00,1.71
9714.00,1.71
9713.00,1.71
9712.00,1.71
9711.00,1.71
9710.00,1.71
9709.00,1.72
9708.00,1.72
9707.00,1.72
9706.00,1.72
9705.00,1.72
9704.00,1.72
9703.00,1.73
9702.00,1.73
9701.00,1.73
9700.00,1.74
9699.00,1.74
9698.00,1.75
9697.00,1.75
9696.00,1.76
9695.00,1.77
9694.00,1.77
9693.00,1.78
9692.00,1.79
9691.00,1.79
9690.00,1.80
9689.00,1.81
9688.00,1.81
9687.00,1.82
9686.00,1.83
9685.00,1.83
9684.00,1.84
9683.00,1.84
9682.00,1.85
9681.00,1.86
9680.00,1.86
9679.00,1.87
9678.00,1.88
9677.00,1.88
9676.00,1.88
9675.00,1.89
9674.00,1.89
9673.00,1.89
9672.00,1.89
9671.00,1.89
9670.00,1.89
9669.00,1.89
9668.00,1.89
9667.00,1.88
9666.00,1.88
9665.00,1.88
9664.00,1.87
9663.00,1.87
9662.00,1.87
9661.00,1.86
9660.00,1.86
9659.00,1.85
9658.00,1.84
9657.00,1.84
9656.00,1.83
9655.00,1.82
9654.00,1.81
9653.00,1.80
9652.00,1.79
9651.00,1.78
9650.00,1.77
9649.00,1.76
9648.00,1.75
9647.00,1.74
9646.00,1.73
9645.00,1.72
9644.00,1.71
9643.00,1.71
9642.00,1.70
9641.00,1.69
9640.00,1.68
9639.00,1.67
9638.00,1.66
9637.00,1.65
9636.00,1.65
9635.00,1.64
9634.00,1.63
9633.00,1.62
9632.00,1.62
9631.00,1.61
9630.00,1.60
9629.00,1.60
9628.00,1.59
9627.00,1.59
9626.00,1.58
9625.00,1.58
9624.00,1.58
9623.00,1.57
9622.00,1.57
9621.00,1.57
9620.00,1.57
9619.00,1.57
9618.00,1.57
9617.00,1.58
9616.00,1.58
9615.00,1.58
9614.00,1.58
9613.00,1.59
9612.00,1.59
9611.00,1.60
9610.00,1.60
9609.00,1.61
9608.00,1.62
9607.00,1.62
9606.00,1.63
9605.00,1.64
9604.00,1.64
9603.00,1.65
9602.00,1.66
9601.00,1.67
9600.00,1.67
9599.00,1.68
9598.00,1.69
9597.00,1.69
9596.00,1.70
9595.00,1.70
9594.00,1.71
9593.00,1.71
9592.00,1.72
9591.00,1.72
9590.00,1.72
9589.00,1.73
9588.00,1.73
9587.00,1.73
9586.00,1.73
9585.00,1.73
9584.00,1.73
9583.00,1.73
9582.00,1.73
9581.00,1.73
9580.00,1.72
9579.00,1.72
9578.00,1.72
9577.00,1.72
9576.00,1.71
9575.00,1.71
9574.00,1.71
9573.00,1.70
9572.00,1.70
9571.00,1.69
9570.00,1.69
9569.00,1.68
9568.00,1.68
9567.00,1.68
9566.00,1.67
9565.00,1.67
9564.00,1.67
9563.00,1.67
9562.00,1.67
9561.00,1.66
9560.00,1.66
9559.00,1.66
9558.00,1.66
9557.00,1.66
9556.00,1.66
9555.00,1.65
9554.00,1.65
9553.00,1.65
9552.00,1.65
9551.00,1.65
9550.00,1.65
9549.00,1.65
9548.00,1.65
9547.00,1.66
9546.00,1.66
9545.00,1.66
9544.00,1.66
9543.00,1.66
9542.00,1.66
9541.00,1.66
9540.00,1.66
9539.00,1.66
9538.00,1.66
9537.00,1.66
9536.00,1.65
9535.00,1.65
9534.00,1.65
9533.00,1.65
9532.00,1.65
9531.00,1.65
9530.00,1.65
9529.00,1.65
9528.00,1.65
9527.00,1.65
9526.00,1.65
9525.00,1.65
9524.00,1.66
9523.00,1.66
9522.00,1.66
9521.00,1.66
9520.00,1.66
9519.00,1.67
9518.00,1.67
9517.00,1.67
9516.00,1.68
9515.00,1.68
9514.00,1.68
9513.00,1.69
9512.00,1.69
9511.00,1.70
9510.00,1.70
9509.00,1.71
9508.00,1.71
9507.00,1.71
9506.00,1.72
9505.00,1.72
9504.00,1.72
9503.00,1.73
9502.00,1.73
9501.00,1.73
9500.00,1.73
9499.00,1.73
9498.00,1.73
9497.00,1.73
9496.00,1.73
9495.00,1.73
9494.00,1.73
9493.00,1.73
9492.00,1.73
9491.00,1.73
9490.00,1.73
9489.00,1.72
9488.00,1.72
9487.00,1.72
9486.00,1.72
9485.00,1.71
9484.00,1.71
9483.00,1.71
9482.00,1.70
9481.00,1.70
9480.00,1.70
9479.00,1.70
9478.00,1.69
9477.00,1.69
9476.00,1.69
9475.00,1.69
9474.00,1.69
9473.00,1.69
9472.00,1.69
9471.00,1.68
9470.00,1.68
9469.00,1.68
9468.00,1.68
9467.00,1.68
9466.00,1.68
9465.00,1.68
9464.00,1.69
9463.00,1.69
9462.00,1.69
9461.00,1.69
9460.00,1.70
9459.00,1.70
9458.00,1.70
9457.00,1.70
9456.00,1.71
9455.00,1.71
9454.00,1.71
9453.00,1.71
9452.00,1.72
9451.00,1.72
9450.00,1.72
9449.00,1.73
9448.00,1.73
9447.00,1.73
9446.00,1.73
9445.00,1.74
9444.00,1.74
9443.00,1.74
9442.00,1.74
9441.00,1.74
9440.00,1.74
9439.00,1.74
9438.00,1.74
9437.00,1.74
9436.00,1.74
9435.00,1.74
9434.00,1.73
9433.00,1.73
9432.00,1.73
9431.00,1.73
9430.00,1.73
9429.00,1.73
9428.00,1.73
9427.00,1.73
9426.00,1.73
9425.00,1.73
9424.00,1.72
9423.00,1.72
9422.00,1.72
9421.00,1.72
9420.00,1.72
9419.00,1.71
9418.00,1.71
9417.00,1.71
9416.00,1.71
9415.00,1.71
9414.00,1.71
9413.00,1.71
9412.00,1.71
9411.00,1.71
9410.00,1.71
9409.00,1.70
9408.00,1.70
9407.00,1.70
9406.00,1.70
9405.00,1.70
9404.00,1.70
9403.00,1.70
9402.00,1.69
9401.00,1.69
9400.00,1.69
9399.00,1.69
9398.00,1.69
9397.00,1.69
9396.00,1.69
9395.00,1.68
9394.00,1.68
9393.00,1.68
9392.00,1.68
9391.00,1.67
9390.00,1.67
9389.00,1.67
9388.00,1.67
9387.00,1.67
9386.00,1.67
9385.00,1.67
9384.00,1.67
9383.00,1.67
9382.00,1.68
9381.00,1.68
9380.00,1.68
9379.00,1.68
9378.00,1.68
9377.00,1.69
9376.00,1.69
9375.00,1.69
9374.00,1.69
9373.00,1.69
9372.00,1.69
9371.00,1.70
9370.00,1.70
9369.00,1.70
9368.00,1.71
9367.00,1.71
9366.00,1.72
9365.00,1.72
9364.00,1.72
9363.00,1.73
9362.00,1.73
9361.00,1.73
9360.00,1.73
9359.00,1.73
9358.00,1.72
9357.00,1.72
9356.00,1.72
9355.00,1.72
9354.00,1.71
9353.00,1.71
9352.00,1.71
9351.00,1.71
9350.00,1.70
9349.00,1.70
9348.00,1.70
9347.00,1.70
9346.00,1.69
9345.00,1.69
9344.00,1.68
9343.00,1.67
9342.00,1.67
9341.00,1.66
9340.00,1.65
9339.00,1.64
9338.00,1.64
9337.00,1.63
9336.00,1.62
9335.00,1.62
9334.00,1.61
9333.00,1.61
9332.00,1.61
9331.00,1.61
9330.00,1.60
9329.00,1.60
9328.00,1.60
9327.00,1.60
9326.00,1.60
9325.00,1.60
9324.00,1.60
9323.00,1.60
9322.00,1.60
9321.00,1.60
9320.00,1.61
9319.00,1.61
9318.00,1.61
9317.00,1.62
9316.00,1.63
9315.00,1.63
9314.00,1.64
9313.00,1.65
9312.00,1.66
9311.00,1.67
9310.00,1.67
9309.00,1.68
9308.00,1.69
9307.00,1.69
9306.00,1.70
9305.00,1.71
9304.00,1.71
9303.00,1.72
9302.00,1.72
9301.00,1.72
9300.00,1.73
9299.00,1.73
9298.00,1.73
9297.00,1.74
9296.00,1.74
9295.00,1.74
9294.00,1.74
9293.00,1.74
9292.00,1.74
9291.00,1.74
9290.00,1.74
9289.00,1.74
9288.00,1.74
9287.00,1.74
9286.00,1.74
9285.00,1.74
9284.00,1.74
9283.00,1.74
9282.00,1.74
9281.00,1.74
9280.00,1.74
9279.00,1.74
9278.00,1.74
9277.00,1.74
9276.00,1.74
9275.00,1.74
9274.00,1.74
9273.00,1.74
9272.00,1.74
9271.00,1.74
9270.00,1.74
9269.00,1.74
9268.00,1.73
9267.00,1.73
9266.00,1.73
9265.00,1.73
9264.00,1.73
9263.00,1.73
9262.00,1.73
9261.00,1.72
9260.00,1.72
9259.00,1.72
9258.00,1.71
9257.00,1.71
9256.00,1.70
9255.00,1.70
9254.00,1.69
9253.00,1.69
9252.00,1.68
9251.00,1.68
9250.00,1.68
9249.00,1.67
9248.00,1.67
9247.00,1.67
9246.00,1.67
9245.00,1.67
9244.00,1.67
9243.00,1.67
9242.00,1.67
9241.00,1.67
9240.00,1.68
9239.00,1.68
9238.00,1.68
9237.00,1.68
9236.00,1.68
9235.00,1.68
9234.00,1.68
9233.00,1.68
9232.00,1.69
9231.00,1.69
9230.00,1.69
9229.00,1.70
9228.00,1.70
9227.00,1.70
9226.00,1.71
9225.00,1.71
9224.00,1.72
9223.00,1.72
9222.00,1.73
9221.00,1.73
9220.00,1.74
9219.00,1.74
9218.00,1.74
9217.00,1.74
9216.00,1.74
9215.00,1.74
9214.00,1.74
9213.00,1.75
9212.00,1.75
9211.00,1.75
9210.00,1.75
9209.00,1.75
9208.00,1.75
9207.00,1.75
9206.00,1.75
9205.00,1.74
9204.00,1.74
9203.00,1.74
9202.00,1.74
9201.00,1.73
9200.00,1.73
9199.00,1.72
9198.00,1.72
9197.00,1.71
9196.00,1.71
9195.00,1.70
9194.00,1.70
9193.00,1.69
9192.00,1.69
9191.00,1.69
9190.00,1.68
9189.00,1.68
9188.00,1.67
9187.00,1.67
9186.00,1.67
9185.00,1.67
9184.00,1.66
9183.00,1.66
9182.00,1.66
9181.00,1.66
9180.00,1.66
9179.00,1.66
9178.00,1.66
9177.00,1.67
9176.00,1.67
9175.00,1.67
9174.00,1.67
9173.00,1.67
9172.00,1.68
9171.00,1.68
9170.00,1.68
9169.00,1.69
9168.00,1.69
9167.00,1.70
9166.00,1.70
9165.00,1.71
9164.00,1.71
9163.00,1.72
9162.00,1.72
9161.00,1.73
9160.00,1.73
9159.00,1.74
9158.00,1.74
9157.00,1.74
9156.00,1.75
9155.00,1.75
9154.00,1.75
9153.00,1.76
9152.00,1.76
9151.00,1.76
9150.00,1.76
9149.00,1.77
9148.00,1.77
9147.00,1.77
9146.00,1.77
9145.00,1.77
9144.00,1.77
9143.00,1.77
9142.00,1.76
9141.00,1.76
9140.00,1.76
9139.00,1.76
9138.00,1.75
9137.00,1.75
9136.00,1.75
9135.00,1.75
9134.00,1.74
9133.00,1.74
9132.00,1.74
9131.00,1.74
9130.00,1.73
9129.00,1.73
9128.00,1.73
9127.00,1.72
9126.00,1.72
9125.00,1.72
9124.00,1.71
9123.00,1.71
9122.00,1.71
9121.00,1.71
9120.00,1.70
9119.00,1.70
9118.00,1.70
9117.00,1.69
9116.00,1.69
9115.00,1.69
9114.00,1.69
9113.00,1.68
9112.00,1.68
9111.00,1.67
9110.00,1.67
9109.00,1.67
9108.00,1.66
9107.00,1.66
9106.00,1.65
9105.00,1.65
9104.00,1.64
9103.00,1.63
9102.00,1.63
9101.00,1.62
9100.00,1.62
9099.00,1.62
9098.00,1.61
9097.00,1.61
9096.00,1.61
9095.00,1.61
9094.00,1.61
9093.00,1.60
9092.00,1.60
9091.00,1.60
9090.00,1.60
9089.00,1.60
9088.00,1.60
9087.00,1.61
9086.00,1.61
9085.00,1.61
9084.00,1.61
9083.00,1.62
9082.00,1.62
9081.00,1.63
9080.00,1.63
9079.00,1.64
9078.00,1.64
9077.00,1.65
9076.00,1.66
9075.00,1.66
9074.00,1.67
9073.00,1.67
9072.00,1.67
9071.00,1.68
9070.00,1.68
9069.00,1.69
9068.00,1.69
9067.00,1.69
9066.00,1.70
9065.00,1.70
9064.00,1.71
9063.00,1.71
9062.00,1.71
9061.00,1.72
9060.00,1.72
9059.00,1.73
9058.00,1.73
9057.00,1.73
9056.00,1.74
9055.00,1.74
9054.00,1.74
9053.00,1.74
9052.00,1.75
9051.00,1.75
9050.00,1.75
9049.00,1.75
9048.00,1.75
9047.00,1.75
9046.00,1.76
9045.00,1.76
9044.00,1.76
9043.00,1.76
9042.00,1.76
9041.00,1.76
9040.00,1.75
9039.00,1.75
9038.00,1.75
9037.00,1.74
9036.00,1.74
9035.00,1.73
9034.00,1.73
9033.00,1.72
9032.00,1.72
9031.00,1.71
9030.00,1.70
9029.00,1.70
9028.00,1.69
9027.00,1.68
9026.00,1.67
9025.00,1.67
9024.00,1.66
9023.00,1.65
9022.00,1.64
9021.00,1.64
9020.00,1.63
9019.00,1.63
9018.00,1.62
9017.00,1.62
9016.00,1.62
9015.00,1.61
9014.00,1.61
9013.00,1.61
9012.00,1.61
9011.00,1.61
9010.00,1.61
9009.00,1.61
9008.00,1.61
9007.00,1.61
9006.00,1.61
9005.00,1.61
9004.00,1.61
9003.00,1.61
9002.00,1.61
9001.00,1.62
9000.00,1.62
8999.00,1.62
8998.00,1.63
8997.00,1.63
8996.00,1.63
8995.00,1.63
8994.00,1.64
8993.00,1.64
8992.00,1.64
8991.00,1.64
8990.00,1.64
8989.00,1.64
8988.00,1.65
8987.00,1.65
8986.00,1.65
8985.00,1.65
8984.00,1.65
8983.00,1.65
8982.00,1.65
8981.00,1.65
8980.00,1.65
8979.00,1.66
8978.00,1.66
8977.00,1.66
8976.00,1.66
8975.00,1.67
8974.00,1.67
8973.00,1.67
8972.00,1.68
8971.00,1.68
8970.00,1.69
8969.00,1.69
8968.00,1.70
8967.00,1.70
8966.00,1.71
8965.00,1.72
8964.00,1.72
8963.00,1.73
8962.00,1.74
8961.00,1.74
8960.00,1.75
8959.00,1.76
8958.00,1.77
8957.00,1.77
8956.00,1.78
8955.00,1.79
8954.00,1.79
8953.00,1.80
8952.00,1.80
8951.00,1.81
8950.00,1.81
8949.00,1.81
8948.00,1.81
8947.00,1.82
8946.00,1.82
8945.00,1.81
8944.00,1.81
8943.00,1.81
8942.00,1.81
8941.00,1.80
8940.00,1.80
8939.00,1.79
8938.00,1.78
8937.00,1.78
8936.00,1.77
8935.00,1.76
8934.00,1.75
8933.00,1.74
8932.00,1.74
8931.00,1.73
8930.00,1.72
8929.00,1.71
8928.00,1.71
8927.00,1.70
8926.00,1.69
8925.00,1.69
8924.00,1.68
8923.00,1.68
8922.00,1.67
8921.00,1.67
8920.00,1.67
8919.00,1.67
8918.00,1.67
8917.00,1.66
8916.00,1.66
8915.00,1.66
8914.00,1.67
8913.00,1.67
8912.00,1.67
8911.00,1.67
8910.00,1.67
8909.00,1.67
8908.00,1.67
8907.00,1.68
8906.00,1.68
8905.00,1.68
8904.00,1.68
8903.00,1.68
8902.00,1.68
8901.00,1.68
8900.00,1.67
8899.00,1.67
8898.00,1.67
8897.00,1.66
8896.00,1.66
8895.00,1.65
8894.00,1.65
8893.00,1.64
8892.00,1.64
8891.00,1.63
8890.00,1.62
8889.00,1.62
8888.00,1.61
8887.00,1.61
8886.00,1.60
8885.00,1.60
8884.00,1.59
8883.00,1.59
8882.00,1.59
8881.00,1.58
8880.00,1.58
8879.00,1.57
8878.00,1.57
8877.00,1.57
8876.00,1.56
8875.00,1.56
8874.00,1.56
8873.00,1.56
8872.00,1.56
8871.00,1.56
8870.00,1.56
8869.00,1.56
8868.00,1.57
8867.00,1.57
8866.00,1.57
8865.00,1.57
8864.00,1.58
8863.00,1.58
8862.00,1.58
8861.00,1.58
8860.00,1.59
8859.00,1.59
8858.00,1.59
8857.00,1.60
8856.00,1.60
8855.00,1.61
8854.00,1.61
8853.00,1.62
8852.00,1.62
8851.00,1.63
8850.00,1.63
8849.00,1.64
8848.00,1.65
8847.00,1.65
8846.00,1.66
8845.00,1.66
8844.00,1.66
8843.00,1.67
8842.00,1.67
8841.00,1.67
8840.00,1.68
8839.00,1.68
8838.00,1.69
8837.00,1.69
8836.00,1.69
8835.00,1.70
8834.00,1.70
8833.00,1.70
8832.00,1.71
8831.00,1.71
8830.00,1.71
8829.00,1.72
8828.00,1.72
8827.00,1.72
8826.00,1.72
8825.00,1.72
8824.00,1.72
8823.00,1.72
8822.00,1.72
8821.00,1.72
8820.00,1.73
8819.00,1.73
8818.00,1.73
8817.00,1.73
8816.00,1.74
8815.00,1.74
8814.00,1.74
8813.00,1.75
8812.00,1.75
8811.00,1.75
8810.00,1.75
8809.00,1.75
8808.00,1.75
8807.00,1.76
8806.00,1.76
8805.00,1.76
8804.00,1.76
8803.00,1.75
8802.00,1.75
8801.00,1.75
8800.00,1.75
8799.00,1.75
8798.00,1.75
8797.00,1.75
8796.00,1.75
8795.00,1.75
8794.00,1.75
8793.00,1.74
8792.00,1.74
8791.00,1.74
8790.00,1.74
8789.00,1.74
8788.00,1.73
8787.00,1.73
8786.00,1.73
8785.00,1.73
8784.00,1.73
8783.00,1.72
8782.00,1.72
8781.00,1.72
8780.00,1.72
8779.00,1.72
8778.00,1.72
8777.00,1.72
8776.00,1.72
8775.00,1.72
8774.00,1.72
8773.00,1.72
8772.00,1.72
8771.00,1.72
8770.00,1.72
8769.00,1.72
8768.00,1.72
8767.00,1.72
8766.00,1.72
8765.00,1.72
8764.00,1.72
8763.00,1.72
8762.00,1.72
8761.00,1.72
8760.00,1.72
8759.00,1.72
8758.00,1.72
8757.00,1.72
8756.00,1.72
8755.00,1.72
8754.00,1.72
8753.00,1.72
8752.00,1.72
8751.00,1.73
8750.00,1.73
8749.00,1.73
8748.00,1.73
8747.00,1.74
8746.00,1.74
8745.00,1.74
8744.00,1.75
8743.00,1.75
8742.00,1.76
8741.00,1.76
8740.00,1.77
8739.00,1.77
8738.00,1.77
8737.00,1.78
8736.00,1.78
8735.00,1.78
8734.00,1.79
8733.00,1.79
8732.00,1.79
8731.00,1.79
8730.00,1.79
8729.00,1.78
8728.00,1.78
8727.00,1.78
8726.00,1.78
8725.00,1.77
8724.00,1.77
8723.00,1.77
8722.00,1.76
8721.00,1.76
8720.00,1.76
8719.00,1.75
8718.00,1.75
8717.00,1.75
8716.00,1.74
8715.00,1.74
8714.00,1.73
8713.00,1.73
8712.00,1.73
8711.00,1.72
8710.00,1.72
8709.00,1.71
8708.00,1.71
8707.00,1.71
8706.00,1.71
8705.00,1.71
8704.00,1.71
8703.00,1.71
8702.00,1.71
8701.00,1.71
8700.00,1.71
8699.00,1.71
8698.00,1.71
8697.00,1.71
8696.00,1.71
8695.00,1.71
8694.00,1.71
8693.00,1.71
8692.00,1.71
8691.00,1.71
8690.00,1.71
8689.00,1.71
8688.00,1.72
8687.00,1.72
8686.00,1.72
8685.00,1.72
8684.00,1.72
8683.00,1.72
8682.00,1.72
8681.00,1.72
8680.00,1.72
8679.00,1.72
8678.00,1.73
8677.00,1.73
8676.00,1.73
8675.00,1.73
8674.00,1.74
8673.00,1.74
8672.00,1.74
8671.00,1.74
8670.00,1.74
8669.00,1.75
8668.00,1.75
8667.00,1.75
8666.00,1.75
8665.00,1.75
8664.00,1.75
8663.00,1.75
8662.00,1.75
8661.00,1.75
8660.00,1.75
8659.00,1.75
8658.00,1.75
8657.00,1.75
8656.00,1.75
8655.00,1.75
8654.00,1.75
8653.00,1.75
8652.00,1.75
8651.00,1.74
8650.00,1.74
8649.00,1.74
8648.00,1.74
8647.00,1.73
8646.00,1.73
8645.00,1.73
8644.00,1.72
8643.00,1.72
8642.00,1.72
8641.00,1.72
8640.00,1.71
8639.00,1.71
8638.00,1.71
8637.00,1.71
8636.00,1.71
8635.00,1.71
8634.00,1.71
8633.00,1.70
8632.00,1.70
8631.00,1.70
8630.00,1.70
8629.00,1.70
8628.00,1.70
8627.00,1.70
8626.00,1.70
8625.00,1.70
8624.00,1.70
8623.00,1.70
8622.00,1.70
8621.00,1.70
8620.00,1.71
8619.00,1.71
8618.00,1.71
8617.00,1.71
8616.00,1.72
8615.00,1.72
8614.00,1.72
8613.00,1.72
8612.00,1.73
8611.00,1.73
8610.00,1.73
8609.00,1.73
8608.00,1.74
8607.00,1.74
8606.00,1.74
8605.00,1.74
8604.00,1.74
8603.00,1.75
8602.00,1.75
8601.00,1.75
8600.00,1.75
8599.00,1.75
8598.00,1.75
8597.00,1.75
8596.00,1.75
8595.00,1.76
8594.00,1.76
8593.00,1.76
8592.00,1.75
8591.00,1.75
8590.00,1.75
8589.00,1.75
8588.00,1.75
8587.00,1.75
8586.00,1.74
8585.00,1.74
8584.00,1.74
8583.00,1.74
8582.00,1.74
8581.00,1.74
8580.00,1.73
8579.00,1.73
8578.00,1.73
8577.00,1.73
8576.00,1.73
8575.00,1.73
8574.00,1.73
8573.00,1.73
8572.00,1.73
8571.00,1.73
8570.00,1.73
8569.00,1.73
8568.00,1.73
8567.00,1.73
8566.00,1.72
8565.00,1.72
8564.00,1.72
8563.00,1.72
8562.00,1.72
8561.00,1.72
8560.00,1.72
8559.00,1.72
8558.00,1.72
8557.00,1.72
8556.00,1.72
8555.00,1.72
8554.00,1.72
8553.00,1.72
8552.00,1.72
8551.00,1.72
8550.00,1.72
8549.00,1.72
8548.00,1.72
8547.00,1.71
8546.00,1.71
8545.00,1.71
8544.00,1.71
8543.00,1.70
8542.00,1.70
8541.00,1.70
8540.00,1.70
8539.00,1.70
8538.00,1.69
8537.00,1.69
8536.00,1.69
8535.00,1.69
8534.00,1.69
8533.00,1.69
8532.00,1.69
8531.00,1.69
8530.00,1.69
8529.00,1.69
8528.00,1.69
8527.00,1.69
8526.00,1.69
8525.00,1.70
8524.00,1.70
8523.00,1.70
8522.00,1.71
8521.00,1.71
8520.00,1.71
8519.00,1.72
8518.00,1.72
8517.00,1.72
8516.00,1.72
8515.00,1.73
8514.00,1.73
8513.00,1.73
8512.00,1.74
8511.00,1.74
8510.00,1.74
8509.00,1.74
8508.00,1.74
8507.00,1.74
8506.00,1.75
8505.00,1.75
8504.00,1.75
8503.00,1.74
8502.00,1.74
8501.00,1.74
8500.00,1.74
8499.00,1.74
8498.00,1.74
8497.00,1.74
8496.00,1.74
8495.00,1.74
8494.00,1.73
8493.00,1.73
8492.00,1.73
8491.00,1.73
8490.00,1.73
8489.00,1.72
8488.00,1.72
8487.00,1.72
8486.00,1.72
8485.00,1.71
8484.00,1.71
8483.00,1.71
8482.00,1.71
8481.00,1.71
8480.00,1.71
8479.00,1.71
8478.00,1.71
8477.00,1.71
8476.00,1.71
8475.00,1.71
8474.00,1.71
8473.00,1.71
8472.00,1.72
8471.00,1.72
8470.00,1.72
8469.00,1.72
8468.00,1.72
8467.00,1.72
8466.00,1.72
8465.00,1.72
8464.00,1.73
8463.00,1.73
8462.00,1.73
8461.00,1.74
8460.00,1.74
8459.00,1.74
8458.00,1.75
8457.00,1.75
8456.00,1.75
8455.00,1.76
8454.00,1.76
8453.00,1.76
8452.00,1.77
8451.00,1.77
8450.00,1.77
8449.00,1.77
8448.00,1.77
8447.00,1.78
8446.00,1.78
8445.00,1.78
8444.00,1.78
8443.00,1.79
8442.00,1.79
8441.00,1.79
8440.00,1.79
8439.00,1.79
8438.00,1.79
8437.00,1.79
8436.00,1.79
8435.00,1.79
8434.00,1.79
8433.00,1.79
8432.00,1.79
8431.00,1.79
8430.00,1.79
8429.00,1.79
8428.00,1.79
8427.00,1.79
8426.00,1.79
8425.00,1.79
8424.00,1.79
8423.00,1.79
8422.00,1.79
8421.00,1.79
8420.00,1.79
8419.00,1.79
8418.00,1.79
8417.00,1.79
8416.00,1.79
8415.00,1.79
8414.00,1.79
8413.00,1.79
8412.00,1.79
8411.00,1.79
8410.00,1.79
8409.00,1.80
8408.00,1.80
8407.00,1.80
8406.00,1.80
8405.00,1.80
8404.00,1.80
8403.00,1.80
8402.00,1.80
8401.00,1.80
8400.00,1.80
8399.00,1.80
8398.00,1.79
8397.00,1.79
8396.00,1.79
8395.00,1.78
8394.00,1.78
8393.00,1.78
8392.00,1.78
8391.00,1.77
8390.00,1.77
8389.00,1.77
8388.00,1.76
8387.00,1.76
8386.00,1.76
8385.00,1.75
8384.00,1.75
8383.00,1.74
8382.00,1.74
8381.00,1.74
8380.00,1.73
8379.00,1.73
8378.00,1.72
8377.00,1.72
8376.00,1.72
8375.00,1.71
8374.00,1.71
8373.00,1.71
8372.00,1.71
8371.00,1.71
8370.00,1.71
8369.00,1.71
8368.00,1.71
8367.00,1.71
8366.00,1.71
8365.00,1.72
8364.00,1.72
8363.00,1.72
8362.00,1.72
8361.00,1.72
8360.00,1.72
8359.00,1.72
8358.00,1.72
8357.00,1.72
8356.00,1.72
8355.00,1.72
8354.00,1.72
8353.00,1.72
8352.00,1.72
8351.00,1.72
8350.00,1.72
8349.00,1.72
8348.00,1.72
8347.00,1.72
8346.00,1.72
8345.00,1.72
8344.00,1.72
8343.00,1.71
8342.00,1.71
8341.00,1.71
8340.00,1.71
8339.00,1.71
8338.00,1.71
8337.00,1.71
8336.00,1.71
8335.00,1.71
8334.00,1.71
8333.00,1.71
8332.00,1.71
8331.00,1.71
8330.00,1.71
8329.00,1.71
8328.00,1.71
8327.00,1.72
8326.00,1.72
8325.00,1.72
8324.00,1.72
8323.00,1.72
8322.00,1.72
8321.00,1.72
8320.00,1.73
8319.00,1.73
8318.00,1.73
8317.00,1.73
8316.00,1.73
8315.00,1.72
8314.00,1.73
8313.00,1.73
8312.00,1.73
8311.00,1.73
8310.00,1.73
8309.00,1.73
8308.00,1.73
8307.00,1.73
8306.00,1.73
8305.00,1.73
8304.00,1.73
8303.00,1.73
8302.00,1.73
8301.00,1.73
8300.00,1.73
8299.00,1.73
8298.00,1.73
8297.00,1.73
8296.00,1.73
8295.00,1.73
8294.00,1.73
8293.00,1.73
8292.00,1.73
8291.00,1.74
8290.00,1.74
8289.00,1.74
8288.00,1.74
8287.00,1.74
8286.00,1.75
8285.00,1.75
8284.00,1.75
8283.00,1.75
8282.00,1.75
8281.00,1.75
8280.00,1.76
8279.00,1.76
8278.00,1.76
8277.00,1.76
8276.00,1.76
8275.00,1.76
8274.00,1.76
8273.00,1.76
8272.00,1.76
8271.00,1.76
8270.00,1.77
8269.00,1.77
8268.00,1.77
8267.00,1.77
8266.00,1.77
8265.00,1.78
8264.00,1.78
8263.00,1.78
8262.00,1.78
8261.00,1.79
8260.00,1.79
8259.00,1.79
8258.00,1.79
8257.00,1.79
8256.00,1.79
8255.00,1.79
8254.00,1.78
8253.00,1.78
8252.00,1.78
8251.00,1.78
8250.00,1.78
8249.00,1.77
8248.00,1.77
8247.00,1.77
8246.00,1.77
8245.00,1.76
8244.00,1.76
8243.00,1.76
8242.00,1.75
8241.00,1.75
8240.00,1.75
8239.00,1.74
8238.00,1.74
8237.00,1.74
8236.00,1.74
8235.00,1.73
8234.00,1.73
8233.00,1.73
8232.00,1.73
8231.00,1.73
8230.00,1.74
8229.00,1.74
8228.00,1.74
8227.00,1.75
8226.00,1.75
8225.00,1.75
8224.00,1.76
8223.00,1.76
8222.00,1.77
8221.00,1.77
8220.00,1.78
8219.00,1.78
8218.00,1.79
8217.00,1.79
8216.00,1.79
8215.00,1.80
8214.00,1.80
8213.00,1.80
8212.00,1.81
8211.00,1.81
8210.00,1.81
8209.00,1.81
8208.00,1.81
8207.00,1.81
8206.00,1.81
8205.00,1.81
8204.00,1.81
8203.00,1.81
8202.00,1.81
8201.00,1.81
8200.00,1.81
8199.00,1.80
8198.00,1.80
8197.00,1.80
8196.00,1.80
8195.00,1.80
8194.00,1.80
8193.00,1.80
8192.00,1.80
8191.00,1.80
8190.00,1.80
8189.00,1.79
8188.00,1.79
8187.00,1.79
8186.00,1.79
8185.00,1.79
8184.00,1.79
8183.00,1.79
8182.00,1.79
8181.00,1.79
8180.00,1.78
8179.00,1.78
8178.00,1.78
8177.00,1.78
8176.00,1.78
8175.00,1.78
8174.00,1.78
8173.00,1.77
8172.00,1.77
8171.00,1.77
8170.00,1.76
8169.00,1.76
8168.00,1.76
8167.00,1.76
8166.00,1.75
8165.00,1.75
8164.00,1.75
8163.00,1.75
8162.00,1.75
8161.00,1.75
8160.00,1.75
8159.00,1.74
8158.00,1.74
8157.00,1.74
8156.00,1.74
8155.00,1.74
8154.00,1.74
8153.00,1.74
8152.00,1.74
8151.00,1.74
8150.00,1.74
8149.00,1.74
8148.00,1.74
8147.00,1.74
8146.00,1.75
8145.00,1.75
8144.00,1.75
8143.00,1.75
8142.00,1.75
8141.00,1.75
8140.00,1.75
8139.00,1.75
8138.00,1.76
8137.00,1.76
8136.00,1.76
8135.00,1.76
8134.00,1.76
8133.00,1.76
8132.00,1.77
8131.00,1.77
8130.00,1.77
8129.00,1.77
8128.00,1.78
8127.00,1.78
8126.00,1.78
8125.00,1.78
8124.00,1.79
8123.00,1.79
8122.00,1.79
8121.00,1.79
8120.00,1.80
8119.00,1.80
8118.00,1.80
8117.00,1.80
8116.00,1.81
8115.00,1.81
8114.00,1.81
8113.00,1.81
8112.00,1.82
8111.00,1.82
8110.00,1.82
8109.00,1.82
8108.00,1.82
8107.00,1.82
8106.00,1.82
8105.00,1.82
8104.00,1.82
8103.00,1.82
8102.00,1.82
8101.00,1.82
8100.00,1.82
8099.00,1.82
8098.00,1.82
8097.00,1.81
8096.00,1.81
8095.00,1.81
8094.00,1.81
8093.00,1.81
8092.00,1.81
8091.00,1.81
8090.00,1.81
8089.00,1.81
8088.00,1.80
8087.00,1.80
8086.00,1.80
8085.00,1.80
8084.00,1.80
8083.00,1.80
8082.00,1.80
8081.00,1.80
8080.00,1.80
8079.00,1.80
8078.00,1.80
8077.00,1.79
8076.00,1.79
8075.00,1.79
8074.00,1.79
8073.00,1.79
8072.00,1.79
8071.00,1.79
8070.00,1.79
8069.00,1.78
8068.00,1.78
8067.00,1.78
8066.00,1.78
8065.00,1.77
8064.00,1.77
8063.00,1.76
8062.00,1.76
8061.00,1.76
8060.00,1.75
8059.00,1.75
8058.00,1.75
8057.00,1.74
8056.00,1.74
8055.00,1.74
8054.00,1.74
8053.00,1.73
8052.00,1.73
8051.00,1.73
8050.00,1.73
8049.00,1.73
8048.00,1.73
8047.00,1.74
8046.00,1.74
8045.00,1.74
8044.00,1.74
8043.00,1.74
8042.00,1.74
8041.00,1.75
8040.00,1.75
8039.00,1.75
8038.00,1.75
8037.00,1.76
8036.00,1.76
8035.00,1.76
8034.00,1.76
8033.00,1.77
8032.00,1.77
8031.00,1.77
8030.00,1.77
8029.00,1.77
8028.00,1.78
8027.00,1.78
8026.00,1.78
8025.00,1.78
8024.00,1.78
8023.00,1.78
8022.00,1.78
8021.00,1.78
8020.00,1.78
8019.00,1.78
8018.00,1.78
8017.00,1.78
8016.00,1.78
8015.00,1.79
8014.00,1.79
8013.00,1.79
8012.00,1.79
8011.00,1.79
8010.00,1.79
8009.00,1.79
8008.00,1.79
8007.00,1.80
8006.00,1.80
8005.00,1.80
8004.00,1.80
8003.00,1.81
8002.00,1.81
8001.00,1.81
8000.00,1.81
7999.00,1.82
7998.00,1.82
7997.00,1.82
7996.00,1.82
7995.00,1.82
7994.00,1.82
7993.00,1.82
7992.00,1.82
7991.00,1.82
7990.00,1.82
7989.00,1.82
7988.00,1.82
7987.00,1.82
7986.00,1.82
7985.00,1.82
7984.00,1.82
7983.00,1.82
7982.00,1.82
7981.00,1.82
7980.00,1.82
7979.00,1.82
7978.00,1.82
7977.00,1.81
7976.00,1.81
7975.00,1.81
7974.00,1.81
7973.00,1.81
7972.00,1.80
7971.00,1.80
7970.00,1.80
7969.00,1.80
7968.00,1.80
7967.00,1.80
7966.00,1.80
7965.00,1.80
7964.00,1.80
7963.00,1.79
7962.00,1.79
7961.00,1.79
7960.00,1.79
7959.00,1.79
7958.00,1.79
7957.00,1.79
7956.00,1.78
7955.00,1.78
7954.00,1.78
7953.00,1.78
7952.00,1.78
7951.00,1.78
7950.00,1.77
7949.00,1.77
7948.00,1.78
7947.00,1.78
7946.00,1.78
7945.00,1.78
7944.00,1.78
7943.00,1.78
7942.00,1.78
7941.00,1.79
7940.00,1.79
7939.00,1.79
7938.00,1.79
7937.00,1.79
7936.00,1.79
7935.00,1.79
7934.00,1.80
7933.00,1.80
7932.00,1.80
7931.00,1.80
7930.00,1.80
7929.00,1.81
7928.00,1.81
7927.00,1.81
7926.00,1.81
7925.00,1.82
7924.00,1.82
7923.00,1.82
7922.00,1.82
7921.00,1.82
7920.00,1.82
7919.00,1.82
7918.00,1.82
7917.00,1.82
7916.00,1.82
7915.00,1.82
7914.00,1.82
7913.00,1.82
7912.00,1.82
7911.00,1.82
7910.00,1.82
7909.00,1.82
7908.00,1.82
7907.00,1.82
7906.00,1.82
7905.00,1.83
7904.00,1.83
7903.00,1.82
7902.00,1.82
7901.00,1.82
7900.00,1.82
7899.00,1.82
7898.00,1.82
7897.00,1.82
7896.00,1.82
7895.00,1.82
7894.00,1.82
7893.00,1.81
7892.00,1.81
7891.00,1.81
7890.00,1.81
7889.00,1.81
7888.00,1.81
7887.00,1.81
7886.00,1.81
7885.00,1.81
7884.00,1.81
7883.00,1.81
7882.00,1.81
7881.00,1.81
7880.00,1.81
7879.00,1.80
7878.00,1.80
7877.00,1.80
7876.00,1.80
7875.00,1.81
7874.00,1.81
7873.00,1.81
7872.00,1.81
7871.00,1.81
7870.00,1.81
7869.00,1.81
7868.00,1.81
7867.00,1.81
7866.00,1.81
7865.00,1.81
7864.00,1.82
7863.00,1.82
7862.00,1.82
7861.00,1.82
7860.00,1.82
7859.00,1.82
7858.00,1.82
7857.00,1.83
7856.00,1.83
7855.00,1.83
7854.00,1.83
7853.00,1.83
7852.00,1.83
7851.00,1.83
7850.00,1.83
7849.00,1.83
7848.00,1.83
7847.00,1.83
7846.00,1.83
7845.00,1.83
7844.00,1.83
7843.00,1.83
7842.00,1.83
7841.00,1.83
7840.00,1.83
7839.00,1.83
7838.00,1.83
7837.00,1.83
7836.00,1.82
7835.00,1.82
7834.00,1.82
7833.00,1.82
7832.00,1.82
7831.00,1.82
7830.00,1.82
7829.00,1.82
7828.00,1.82
7827.00,1.81
7826.00,1.81
7825.00,1.81
7824.00,1.81
7823.00,1.81
7822.00,1.81
7821.00,1.81
7820.00,1.81
7819.00,1.81
7818.00,1.82
7817.00,1.82
7816.00,1.82
7815.00,1.82
7814.00,1.82
7813.00,1.82
7812.00,1.82
7811.00,1.82
7810.00,1.82
7809.00,1.82
7808.00,1.82
7807.00,1.82
7806.00,1.82
7805.00,1.81
7804.00,1.81
7803.00,1.81
7802.00,1.81
7801.00,1.81
7800.00,1.81
7799.00,1.81
7798.00,1.81
7797.00,1.81
7796.00,1.81
7795.00,1.81
7794.00,1.80
7793.00,1.80
7792.00,1.80
7791.00,1.80
7790.00,1.80
7789.00,1.80
7788.00,1.79
7787.00,1.79
7786.00,1.79
7785.00,1.79
7784.00,1.79
7783.00,1.79
7782.00,1.79
7781.00,1.79
7780.00,1.79
7779.00,1.79
7778.00,1.79
7777.00,1.79
7776.00,1.79
7775.00,1.79
7774.00,1.79
7773.00,1.79
7772.00,1.79
7771.00,1.79
7770.00,1.80
7769.00,1.80
7768.00,1.80
7767.00,1.80
7766.00,1.80
7765.00,1.81
7764.00,1.81
7763.00,1.81
7762.00,1.81
7761.00,1.82
7760.00,1.82
7759.00,1.82
7758.00,1.83
7757.00,1.83
7756.00,1.83
7755.00,1.84
7754.00,1.84
7753.00,1.84
7752.00,1.84
7751.00,1.84
7750.00,1.85
7749.00,1.85
7748.00,1.85
7747.00,1.85
7746.00,1.85
7745.00,1.85
7744.00,1.85
7743.00,1.85
7742.00,1.85
7741.00,1.85
7740.00,1.85
7739.00,1.85
7738.00,1.85
7737.00,1.85
7736.00,1.84
7735.00,1.84
7734.00,1.84
7733.00,1.84
7732.00,1.83
7731.00,1.83
7730.00,1.83
7729.00,1.82
7728.00,1.82
7727.00,1.81
7726.00,1.81
7725.00,1.81
7724.00,1.80
7723.00,1.80
7722.00,1.79
7721.00,1.79
7720.00,1.78
7719.00,1.78
7718.00,1.78
7717.00,1.77
7716.00,1.77
7715.00,1.77
7714.00,1.76
7713.00,1.76
7712.00,1.76
7711.00,1.76
7710.00,1.76
7709.00,1.76
7708.00,1.76
7707.00,1.76
7706.00,1.76
7705.00,1.76
7704.00,1.76
7703.00,1.77
7702.00,1.77
7701.00,1.77
7700.00,1.78
7699.00,1.78
7698.00,1.79
7697.00,1.79
7696.00,1.80
7695.00,1.80
7694.00,1.81
7693.00,1.81
7692.00,1.81
7691.00,1.82
7690.00,1.82
7689.00,1.83
7688.00,1.83
7687.00,1.84
7686.00,1.84
7685.00,1.84
7684.00,1.85
7683.00,1.85
7682.00,1.85
7681.00,1.85
7680.00,1.85
7679.00,1.86
7678.00,1.86
7677.00,1.86
7676.00,1.86
7675.00,1.86
7674.00,1.86
7673.00,1.86
7672.00,1.85
7671.00,1.85
7670.00,1.85
7669.00,1.85
7668.00,1.85
7667.00,1.85
7666.00,1.85
7665.00,1.85
7664.00,1.85
7663.00,1.85
7662.00,1.84
7661.00,1.84
7660.00,1.84
7659.00,1.84
7658.00,1.84
7657.00,1.83
7656.00,1.83
7655.00,1.83
7654.00,1.83
7653.00,1.83
7652.00,1.83
7651.00,1.82
7650.00,1.82
7649.00,1.82
7648.00,1.82
7647.00,1.82
7646.00,1.82
7645.00,1.82
7644.00,1.82
7643.00,1.82
7642.00,1.82
7641.00,1.82
7640.00,1.82
7639.00,1.82
7638.00,1.82
7637.00,1.82
7636.00,1.83
7635.00,1.83
7634.00,1.83
7633.00,1.83
7632.00,1.84
7631.00,1.84
7630.00,1.84
7629.00,1.85
7628.00,1.85
7627.00,1.85
7626.00,1.85
7625.00,1.86
7624.00,1.86
7623.00,1.86
7622.00,1.86
7621.00,1.86
7620.00,1.87
7619.00,1.87
7618.00,1.87
7617.00,1.87
7616.00,1.86
7615.00,1.86
7614.00,1.86
7613.00,1.86
7612.00,1.86
7611.00,1.85
7610.00,1.85
7609.00,1.85
7608.00,1.85
7607.00,1.84
7606.00,1.84
7605.00,1.83
7604.00,1.83
7603.00,1.83
7602.00,1.82
7601.00,1.82
7600.00,1.81
7599.00,1.81
7598.00,1.81
7597.00,1.80
7596.00,1.80
7595.00,1.79
7594.00,1.79
7593.00,1.79
7592.00,1.79
7591.00,1.78
7590.00,1.78
7589.00,1.78
7588.00,1.78
7587.00,1.78
7586.00,1.78
7585.00,1.78
7584.00,1.78
7583.00,1.78
7582.00,1.78
7581.00,1.78
7580.00,1.78
7579.00,1.78
7578.00,1.78
7577.00,1.78
7576.00,1.78
7575.00,1.78
7574.00,1.78
7573.00,1.78
7572.00,1.79
7571.00,1.79
7570.00,1.79
7569.00,1.79
7568.00,1.79
7567.00,1.79
7566.00,1.80
7565.00,1.80
7564.00,1.80
7563.00,1.80
7562.00,1.80
7561.00,1.79
7560.00,1.79
7559.00,1.79
7558.00,1.79
7557.00,1.79
7556.00,1.79
7555.00,1.79
7554.00,1.79
7553.00,1.79
7552.00,1.79
7551.00,1.79
7550.00,1.79
7549.00,1.79
7548.00,1.79
7547.00,1.79
7546.00,1.78
7545.00,1.78
7544.00,1.78
7543.00,1.78
7542.00,1.78
7541.00,1.78
7540.00,1.78
7539.00,1.78
7538.00,1.78
7537.00,1.78
7536.00,1.78
7535.00,1.78
7534.00,1.79
7533.00,1.79
7532.00,1.79
7531.00,1.79
7530.00,1.79
7529.00,1.79
7528.00,1.80
7527.00,1.80
7526.00,1.80
7525.00,1.80
7524.00,1.80
7523.00,1.80
7522.00,1.80
7521.00,1.81
7520.00,1.81
7519.00,1.81
7518.00,1.81
7517.00,1.81
7516.00,1.81
7515.00,1.81
7514.00,1.81
7513.00,1.81
7512.00,1.81
7511.00,1.81
7510.00,1.81
7509.00,1.81
7508.00,1.81
7507.00,1.81
7506.00,1.81
7505.00,1.81
7504.00,1.81
7503.00,1.81
7502.00,1.81
7501.00,1.81
7500.00,1.80
7499.00,1.80
7498.00,1.80
7497.00,1.80
7496.00,1.80
7495.00,1.80
7494.00,1.80
7493.00,1.80
7492.00,1.80
7491.00,1.80
7490.00,1.80
7489.00,1.80
7488.00,1.80
7487.00,1.80
7486.00,1.80
7485.00,1.80
7484.00,1.80
7483.00,1.80
7482.00,1.80
7481.00,1.80
7480.00,1.80
7479.00,1.80
7478.00,1.80
7477.00,1.81
7476.00,1.81
7475.00,1.81
7474.00,1.81
7473.00,1.81
7472.00,1.81
7471.00,1.82
7470.00,1.82
7469.00,1.82
7468.00,1.82
7467.00,1.82
7466.00,1.83
7465.00,1.83
7464.00,1.83
7463.00,1.83
7462.00,1.83
7461.00,1.84
7460.00,1.84
7459.00,1.84
7458.00,1.84
7457.00,1.84
7456.00,1.84
7455.00,1.84
7454.00,1.84
7453.00,1.84
7452.00,1.83
7451.00,1.83
7450.00,1.83
7449.00,1.83
7448.00,1.83
7447.00,1.83
7446.00,1.82
7445.00,1.82
7444.00,1.82
7443.00,1.82
7442.00,1.81
7441.00,1.81
7440.00,1.81
7439.00,1.81
7438.00,1.80
7437.00,1.80
7436.00,1.80
7435.00,1.80
7434.00,1.79
7433.00,1.79
7432.00,1.79
7431.00,1.79
7430.00,1.79
7429.00,1.79
7428.00,1.79
7427.00,1.79
7426.00,1.79
7425.00,1.79
7424.00,1.79
7423.00,1.79
7422.00,1.79
7421.00,1.79
7420.00,1.80
7419.00,1.80
7418.00,1.80
7417.00,1.80
7416.00,1.80
7415.00,1.81
7414.00,1.81
7413.00,1.81
7412.00,1.82
7411.00,1.82
7410.00,1.82
7409.00,1.83
7408.00,1.83
7407.00,1.83
7406.00,1.83
7405.00,1.83
7404.00,1.84
7403.00,1.84
7402.00,1.84
7401.00,1.84
7400.00,1.84
7399.00,1.84
7398.00,1.84
7397.00,1.84
7396.00,1.84
7395.00,1.84
7394.00,1.83
7393.00,1.83
7392.00,1.83
7391.00,1.83
7390.00,1.82
7389.00,1.82
7388.00,1.81
7387.00,1.81
7386.00,1.81
7385.00,1.80
7384.00,1.80
7383.00,1.79
7382.00,1.79
7381.00,1.79
7380.00,1.78
7379.00,1.78
7378.00,1.78
7377.00,1.77
7376.00,1.77
7375.00,1.77
7374.00,1.77
7373.00,1.76
7372.00,1.76
7371.00,1.76
7370.00,1.76
7369.00,1.76
7368.00,1.76
7367.00,1.76
7366.00,1.76
7365.00,1.77
7364.00,1.77
7363.00,1.77
7362.00,1.77
7361.00,1.77
7360.00,1.77
7359.00,1.78
7358.00,1.78
7357.00,1.78
7356.00,1.78
7355.00,1.78
7354.00,1.79
7353.00,1.79
7352.00,1.79
7351.00,1.79
7350.00,1.79
7349.00,1.79
7348.00,1.79
7347.00,1.80
7346.00,1.80
7345.00,1.80
7344.00,1.80
7343.00,1.79
7342.00,1.79
7341.00,1.79
7340.00,1.79
7339.00,1.79
7338.00,1.79
7337.00,1.79
7336.00,1.79
7335.00,1.79
7334.00,1.79
7333.00,1.79
7332.00,1.79
7331.00,1.79
7330.00,1.79
7329.00,1.79
7328.00,1.79
7327.00,1.79
7326.00,1.80
7325.00,1.80
7324.00,1.80
7323.00,1.80
7322.00,1.80
7321.00,1.80
7320.00,1.80
7319.00,1.81
7318.00,1.81
7317.00,1.81
7316.00,1.81
7315.00,1.81
7314.00,1.81
7313.00,1.81
7312.00,1.81
7311.00,1.81
7310.00,1.81
7309.00,1.81
7308.00,1.81
7307.00,1.81
7306.00,1.81
7305.00,1.80
7304.00,1.80
7303.00,1.80
7302.00,1.80
7301.00,1.80
7300.00,1.79
7299.00,1.79
7298.00,1.79
7297.00,1.78
7296.00,1.78
7295.00,1.78
7294.00,1.77
7293.00,1.77
7292.00,1.77
7291.00,1.76
7290.00,1.76
7289.00,1.76
7288.00,1.76
7287.00,1.76
7286.00,1.76
7285.00,1.76
7284.00,1.76
7283.00,1.76
7282.00,1.76
7281.00,1.76
7280.00,1.76
7279.00,1.76
7278.00,1.76
7277.00,1.76
7276.00,1.76
7275.00,1.76
7274.00,1.76
7273.00,1.76
7272.00,1.76
7271.00,1.76
7270.00,1.77
7269.00,1.77
7268.00,1.77
7267.00,1.77
7266.00,1.77
7265.00,1.77
7264.00,1.77
7263.00,1.77
7262.00,1.77
7261.00,1.77
7260.00,1.76
7259.00,1.76
7258.00,1.76
7257.00,1.76
7256.00,1.75
7255.00,1.75
7254.00,1.75
7253.00,1.74
7252.00,1.74
7251.00,1.74
7250.00,1.73
7249.00,1.73
7248.00,1.72
7247.00,1.72
7246.00,1.72
7245.00,1.71
7244.00,1.71
7243.00,1.71
7242.00,1.70
7241.00,1.70
7240.00,1.69
7239.00,1.69
7238.00,1.68
7237.00,1.68
7236.00,1.68
7235.00,1.68
7234.00,1.67
7233.00,1.67
7232.00,1.67
7231.00,1.67
7230.00,1.67
7229.00,1.67
7228.00,1.67
7227.00,1.67
7226.00,1.67
7225.00,1.67
7224.00,1.67
7223.00,1.67
7222.00,1.67
7221.00,1.67
7220.00,1.67
7219.00,1.67
7218.00,1.67
7217.00,1.67
7216.00,1.67
7215.00,1.67
7214.00,1.67
7213.00,1.67
7212.00,1.67
7211.00,1.67
7210.00,1.67
7209.00,1.67
7208.00,1.67
7207.00,1.67
7206.00,1.67
7205.00,1.67
7204.00,1.66
7203.00,1.66
7202.00,1.66
7201.00,1.65
7200.00,1.65
7199.00,1.65
7198.00,1.65
7197.00,1.64
7196.00,1.64
7195.00,1.64
7194.00,1.64
7193.00,1.64
7192.00,1.64
7191.00,1.63
7190.00,1.63
7189.00,1.63
7188.00,1.63
7187.00,1.63
7186.00,1.62
7185.00,1.62
7184.00,1.62
7183.00,1.62
7182.00,1.61
7181.00,1.61
7180.00,1.61
7179.00,1.60
7178.00,1.60
7177.00,1.60
7176.00,1.59
7175.00,1.59
7174.00,1.59
7173.00,1.58
7172.00,1.58
7171.00,1.58
7170.00,1.57
7169.00,1.57
7168.00,1.57
7167.00,1.56
7166.00,1.56
7165.00,1.55
7164.00,1.55
7163.00,1.55
7162.00,1.54
7161.00,1.54
7160.00,1.54
7159.00,1.53
7158.00,1.53
7157.00,1.53
7156.00,1.53
7155.00,1.53
7154.00,1.53
7153.00,1.52
7152.00,1.52
7151.00,1.52
7150.00,1.52
7149.00,1.52
7148.00,1.52
7147.00,1.52
7146.00,1.51
7145.00,1.51
7144.00,1.51
7143.00,1.51
7142.00,1.51
7141.00,1.51
7140.00,1.51
7139.00,1.51
7138.00,1.51
7137.00,1.51
7136.00,1.51
7135.00,1.51
7134.00,1.50
7133.00,1.50
7132.00,1.50
7131.00,1.50
7130.00,1.50
7129.00,1.50
7128.00,1.50
7127.00,1.49
7126.00,1.49
7125.00,1.49
7124.00,1.49
7123.00,1.49
7122.00,1.49
7121.00,1.49
7120.00,1.49
7119.00,1.49
7118.00,1.49
7117.00,1.49
7116.00,1.49
7115.00,1.49
7114.00,1.49
7113.00,1.49
7112.00,1.49
7111.00,1.49
7110.00,1.49
7109.00,1.49
7108.00,1.49
7107.00,1.49
7106.00,1.49
7105.00,1.49
7104.00,1.49
7103.00,1.49
7102.00,1.49
7101.00,1.49
7100.00,1.49
7099.00,1.49
7098.00,1.48
7097.00,1.48
7096.00,1.48
7095.00,1.47
7094.00,1.47
7093.00,1.47
7092.00,1.47
7091.00,1.46
7090.00,1.46
7089.00,1.45
7088.00,1.45
7087.00,1.45
7086.00,1.44
7085.00,1.44
7084.00,1.44
7083.00,1.44
7082.00,1.43
7081.00,1.43
7080.00,1.43
7079.00,1.42
7078.00,1.42
7077.00,1.42
7076.00,1.42
7075.00,1.41
7074.00,1.41
7073.00,1.41
7072.00,1.41
7071.00,1.41
7070.00,1.40
7069.00,1.40
7068.00,1.40
7067.00,1.40
7066.00,1.40
7065.00,1.39
7064.00,1.39
7063.00,1.39
7062.00,1.39
7061.00,1.39
7060.00,1.39
7059.00,1.38
7058.00,1.38
7057.00,1.38
7056.00,1.38
7055.00,1.37
7054.00,1.37
7053.00,1.37
7052.00,1.37
7051.00,1.36
7050.00,1.36
7049.00,1.36
7048.00,1.36
7047.00,1.36
7046.00,1.35
7045.00,1.35
7044.00,1.35
7043.00,1.35
7042.00,1.35
7041.00,1.35
7040.00,1.35
7039.00,1.34
7038.00,1.34
7037.00,1.34
7036.00,1.34
7035.00,1.35
7034.00,1.35
7033.00,1.35
7032.00,1.35
7031.00,1.35
7030.00,1.35
7029.00,1.35
7028.00,1.35
7027.00,1.35
7026.00,1.35
7025.00,1.35
7024.00,1.35
7023.00,1.35
7022.00,1.35
7021.00,1.34
7020.00,1.34
7019.00,1.34
7018.00,1.34
7017.00,1.34
7016.00,1.34
7015.00,1.34
7014.00,1.34
7013.00,1.34
7012.00,1.34
7011.00,1.33
7010.00,1.33
7009.00,1.33
7008.00,1.33
7007.00,1.33
7006.00,1.33
7005.00,1.32
7004.00,1.32
7003.00,1.32
7002.00,1.32
7001.00,1.32
7000.00,1.32
6999.00,1.32
6998.00,1.32
6997.00,1.32
6996.00,1.32
6995.00,1.32
6994.00,1.32
6993.00,1.32
6992.00,1.32
6991.00,1.32
6990.00,1.32
6989.00,1.31
6988.00,1.31
6987.00,1.31
6986.00,1.31
6985.00,1.31
6984.00,1.31
6983.00,1.31
6982.00,1.31
6981.00,1.31
6980.00,1.31
6979.00,1.30
6978.00,1.30
6977.00,1.30
6976.00,1.30
6975.00,1.30
6974.00,1.30
6973.00,1.30
6972.00,1.30
6971.00,1.30
6970.00,1.30
6969.00,1.30
6968.00,1.30
6967.00,1.30
6966.00,1.30
6965.00,1.30
6964.00,1.30
6963.00,1.30
6962.00,1.30
6961.00,1.30
6960.00,1.30
6959.00,1.30
6958.00,1.30
6957.00,1.30
6956.00,1.30
6955.00,1.30
6954.00,1.31
6953.00,1.31
6952.00,1.31
6951.00,1.31
6950.00,1.31
6949.00,1.31
6948.00,1.31
6947.00,1.31
6946.00,1.31
6945.00,1.31
6944.00,1.31
6943.00,1.31
6942.00,1.31
6941.00,1.31
6940.00,1.31
6939.00,1.31
6938.00,1.31
6937.00,1.31
6936.00,1.31
6935.00,1.31
6934.00,1.31
6933.00,1.31
6932.00,1.31
6931.00,1.31
6930.00,1.31
6929.00,1.30
6928.00,1.30
6927.00,1.30
6926.00,1.30
6925.00,1.30
6924.00,1.30
6923.00,1.30
6922.00,1.30
6921.00,1.30
6920.00,1.30
6919.00,1.29
6918.00,1.29
6917.00,1.29
6916.00,1.29
6915.00,1.29
6914.00,1.29
6913.00,1.29
6912.00,1.29
6911.00,1.29
6910.00,1.30
6909.00,1.30
6908.00,1.30
6907.00,1.30
6906.00,1.30
6905.00,1.30
6904.00,1.30
6903.00,1.30
6902.00,1.30
6901.00,1.30
6900.00,1.30
6899.00,1.30
6898.00,1.30
6897.00,1.31
6896.00,1.31
6895.00,1.31
6894.00,1.31
6893.00,1.31
6892.00,1.31
6891.00,1.31
6890.00,1.31
6889.00,1.31
6888.00,1.31
6887.00,1.31
6886.00,1.31
6885.00,1.31
6884.00,1.31
6883.00,1.31
6882.00,1.31
6881.00,1.31
6880.00,1.31
6879.00,1.31
6878.00,1.31
6877.00,1.30
6876.00,1.30
6875.00,1.30
6874.00,1.30
6873.00,1.30
6872.00,1.30
6871.00,1.30
6870.00,1.30
6869.00,1.30
6868.00,1.30
6867.00,1.30
6866.00,1.30
6865.00,1.30
6864.00,1.30
6863.00,1.30
6862.00,1.30
6861.00,1.30
6860.00,1.30
6859.00,1.30
6858.00,1.30
6857.00,1.30
6856.00,1.30
6855.00,1.29
6854.00,1.29
6853.00,1.29
6852.00,1.29
6851.00,1.29
6850.00,1.29
6849.00,1.29
6848.00,1.29
6847.00,1.29
6846.00,1.29
6845.00,1.29
6844.00,1.29
6843.00,1.29
6842.00,1.29
6841.00,1.29
6840.00,1.29
6839.00,1.29
6838.00,1.29
6837.00,1.29
6836.00,1.29
6835.00,1.29
6834.00,1.29
6833.00,1.29
6832.00,1.29
6831.00,1.29
6830.00,1.29
6829.00,1.29
6828.00,1.29
6827.00,1.30
6826.00,1.30
6825.00,1.30
6824.00,1.30
6823.00,1.30
6822.00,1.30
6821.00,1.30
6820.00,1.30
6819.00,1.31
6818.00,1.31
6817.00,1.31
6816.00,1.31
6815.00,1.31
6814.00,1.31
6813.00,1.31
6812.00,1.31
6811.00,1.32
6810.00,1.32
6809.00,1.32
6808.00,1.32
6807.00,1.32
6806.00,1.33
6805.00,1.33
6804.00,1.33
6803.00,1.33
6802.00,1.33
6801.00,1.34
6800.00,1.34
6799.00,1.34
6798.00,1.34
6797.00,1.34
6796.00,1.34
6795.00,1.35
6794.00,1.35
6793.00,1.35
6792.00,1.35
6791.00,1.35
6790.00,1.35
6789.00,1.35
6788.00,1.35
6787.00,1.36
6786.00,1.36
6785.00,1.36
6784.00,1.36
6783.00,1.36
6782.00,1.36
6781.00,1.36
6780.00,1.36
6779.00,1.36
6778.00,1.36
6777.00,1.36
6776.00,1.36
6775.00,1.36
6774.00,1.36
6773.00,1.36
6772.00,1.36
6771.00,1.36
6770.00,1.36
6769.00,1.36
6768.00,1.36
6767.00,1.36
6766.00,1.36
6765.00,1.36
6764.00,1.36
6763.00,1.36
6762.00,1.36
6761.00,1.36
6760.00,1.36
6759.00,1.36
6758.00,1.36
6757.00,1.36
6756.00,1.36
6755.00,1.36
6754.00,1.36
6753.00,1.36
6752.00,1.36
6751.00,1.36
6750.00,1.36
6749.00,1.36
6748.00,1.36
6747.00,1.36
6746.00,1.35
6745.00,1.35
6744.00,1.35
6743.00,1.35
6742.00,1.35
6741.00,1.35
6740.00,1.35
6739.00,1.35
6738.00,1.35
6737.00,1.34
6736.00,1.34
6735.00,1.34
6734.00,1.34
6733.00,1.34
6732.00,1.35
6731.00,1.35
6730.00,1.35
6729.00,1.35
6728.00,1.35
6727.00,1.35
6726.00,1.35
6725.00,1.35
6724.00,1.35
6723.00,1.35
6722.00,1.35
6721.00,1.35
6720.00,1.36
6719.00,1.36
6718.00,1.36
6717.00,1.36
6716.00,1.36
6715.00,1.37
6714.00,1.37
6713.00,1.37
6712.00,1.37
6711.00,1.38
6710.00,1.38
6709.00,1.38
6708.00,1.38
6707.00,1.38
6706.00,1.39
6705.00,1.39
6704.00,1.39
6703.00,1.39
6702.00,1.39
6701.00,1.40
6700.00,1.40
6699.00,1.40
6698.00,1.40
6697.00,1.41
6696.00,1.41
6695.00,1.41
6694.00,1.41
6693.00,1.41
6692.00,1.42
6691.00,1.42
6690.00,1.42
6689.00,1.42
6688.00,1.42
6687.00,1.42
6686.00,1.43
6685.00,1.43
6684.00,1.43
6683.00,1.43
6682.00,1.43
6681.00,1.44
6680.00,1.44
6679.00,1.44
6678.00,1.44
6677.00,1.44
6676.00,1.44
6675.00,1.44
6674.00,1.45
6673.00,1.45
6672.00,1.45
6671.00,1.45
6670.00,1.45
6669.00,1.45
6668.00,1.45
6667.00,1.45
6666.00,1.45
6665.00,1.45
6664.00,1.45
6663.00,1.45
6662.00,1.45
6661.00,1.45
6660.00,1.45
6659.00,1.45
6658.00,1.45
6657.00,1.45
6656.00,1.45
6655.00,1.45
6654.00,1.45
6653.00,1.45
6652.00,1.45
6651.00,1.45
6650.00,1.45
6649.00,1.45
6648.00,1.45
6647.00,1.45
6646.00,1.45
6645.00,1.45
6644.00,1.45
6643.00,1.46
6642.00,1.46
6641.00,1.46
6640.00,1.46
6639.00,1.47
6638.00,1.47
6637.00,1.47
6636.00,1.47
6635.00,1.47
6634.00,1.48
6633.00,1.48
6632.00,1.48
6631.00,1.48
6630.00,1.49
6629.00,1.49
6628.00,1.49
6627.00,1.49
6626.00,1.49
6625.00,1.50
6624.00,1.50
6623.00,1.50
6622.00,1.50
6621.00,1.50
6620.00,1.50
6619.00,1.51
6618.00,1.51
6617.00,1.51
6616.00,1.51
6615.00,1.51
6614.00,1.51
6613.00,1.51
6612.00,1.51
6611.00,1.51
6610.00,1.51
6609.00,1.51
6608.00,1.51
6607.00,1.51
6606.00,1.51
6605.00,1.51
6604.00,1.51
6603.00,1.51
6602.00,1.51
6601.00,1.51
6600.00,1.51
6599.00,1.51
6598.00,1.52
6597.00,1.52
6596.00,1.52
6595.00,1.52
6594.00,1.52
6593.00,1.53
6592.00,1.53
6591.00,1.53
6590.00,1.53
6589.00,1.53
6588.00,1.54
6587.00,1.54
6586.00,1.54
6585.00,1.54
6584.00,1.55
6583.00,1.55
6582.00,1.55
6581.00,1.55
6580.00,1.56
6579.00,1.56
6578.00,1.56
6577.00,1.56
6576.00,1.56
6575.00,1.57
6574.00,1.57
6573.00,1.57
6572.00,1.57
6571.00,1.57
6570.00,1.57
6569.00,1.57
6568.00,1.57
6567.00,1.57
6566.00,1.57
6565.00,1.57
6564.00,1.57
6563.00,1.57
6562.00,1.57
6561.00,1.58
6560.00,1.58
6559.00,1.58
6558.00,1.58
6557.00,1.58
6556.00,1.58
6555.00,1.58
6554.00,1.58
6553.00,1.58
6552.00,1.58
6551.00,1.58
6550.00,1.58
6549.00,1.58
6548.00,1.58
6547.00,1.58
6546.00,1.58
6545.00,1.58
6544.00,1.58
6543.00,1.58
6542.00,1.58
6541.00,1.58
6540.00,1.58
6539.00,1.58
6538.00,1.58
6537.00,1.58
6536.00,1.58
6535.00,1.58
6534.00,1.58
6533.00,1.58
6532.00,1.58
6531.00,1.58
6530.00,1.59
6529.00,1.59
6528.00,1.59
6527.00,1.59
6526.00,1.59
6525.00,1.59
6524.00,1.60
6523.00,1.60
6522.00,1.60
6521.00,1.60
6520.00,1.61
6519.00,1.61
6518.00,1.61
6517.00,1.61
6516.00,1.61
6515.00,1.62
6514.00,1.62
6513.00,1.62
6512.00,1.62
6511.00,1.62
6510.00,1.63
6509.00,1.63
6508.00,1.63
6507.00,1.63
6506.00,1.63
6505.00,1.63
6504.00,1.63
6503.00,1.63
6502.00,1.63
6501.00,1.63
6500.00,1.63
6499.00,1.62
6498.00,1.62
6497.00,1.62
6496.00,1.62
6495.00,1.62
6494.00,1.62
6493.00,1.62
6492.00,1.62
6491.00,1.62
6490.00,1.62
6489.00,1.62
6488.00,1.62
6487.00,1.62
6486.00,1.62
6485.00,1.62
6484.00,1.62
6483.00,1.62
6482.00,1.62
6481.00,1.62
6480.00,1.62
6479.00,1.62
6478.00,1.62
6477.00,1.62
6476.00,1.62
6475.00,1.63
6474.00,1.63
6473.00,1.63
6472.00,1.63
6471.00,1.63
6470.00,1.63
6469.00,1.63
6468.00,1.63
6467.00,1.63
6466.00,1.63
6465.00,1.63
6464.00,1.64
6463.00,1.64
6462.00,1.64
6461.00,1.64
6460.00,1.64
6459.00,1.64
6458.00,1.64
6457.00,1.64
6456.00,1.64
6455.00,1.64
6454.00,1.64
6453.00,1.64
6452.00,1.64
6451.00,1.64
6450.00,1.65
6449.00,1.65
6448.00,1.65
6447.00,1.65
6446.00,1.65
6445.00,1.65
6444.00,1.66
6443.00,1.66
6442.00,1.66
6441.00,1.66
6440.00,1.67
6439.00,1.67
6438.00,1.67
6437.00,1.67
6436.00,1.67
6435.00,1.68
6434.00,1.68
6433.00,1.68
6432.00,1.68
6431.00,1.69
6430.00,1.69
6429.00,1.69
6428.00,1.69
6427.00,1.69
6426.00,1.69
6425.00,1.70
6424.00,1.70
6423.00,1.70
6422.00,1.70
6421.00,1.70
6420.00,1.70
6419.00,1.70
6418.00,1.70
6417.00,1.70
6416.00,1.70
6415.00,1.70
6414.00,1.70
6413.00,1.69
6412.00,1.69
6411.00,1.69
6410.00,1.69
6409.00,1.69
6408.00,1.69
6407.00,1.69
6406.00,1.69
6405.00,1.69
6404.00,1.69
6403.00,1.69
6402.00,1.69
6401.00,1.69
6400.00,1.69
6399.00,1.69
6398.00,1.69
6397.00,1.70
6396.00,1.70
6395.00,1.70
6394.00,1.70
6393.00,1.70
6392.00,1.70
6391.00,1.70
6390.00,1.70
6389.00,1.70
6388.00,1.70
6387.00,1.70
6386.00,1.70
6385.00,1.70
6384.00,1.70
6383.00,1.70
6382.00,1.70
6381.00,1.70
6380.00,1.70
6379.00,1.70
6378.00,1.70
6377.00,1.70
6376.00,1.70
6375.00,1.70
6374.00,1.70
6373.00,1.70
6372.00,1.70
6371.00,1.70
6370.00,1.70
6369.00,1.70
6368.00,1.70
6367.00,1.70
6366.00,1.70
6365.00,1.70
6364.00,1.70
6363.00,1.70
6362.00,1.70
6361.00,1.70
6360.00,1.70
6359.00,1.70
6358.00,1.70
6357.00,1.70
6356.00,1.71
6355.00,1.71
6354.00,1.71
6353.00,1.71
6352.00,1.71
6351.00,1.72
6350.00,1.72
6349.00,1.72
6348.00,1.72
6347.00,1.72
6346.00,1.73
6345.00,1.73
6344.00,1.73
6343.00,1.73
6342.00,1.73
6341.00,1.73
6340.00,1.74
6339.00,1.74
6338.00,1.74
6337.00,1.74
6336.00,1.74
6335.00,1.74
6334.00,1.74
6333.00,1.75
6332.00,1.75
6331.00,1.75
6330.00,1.75
6329.00,1.75
6328.00,1.75
6327.00,1.75
6326.00,1.75
6325.00,1.74
6324.00,1.74
6323.00,1.74
6322.00,1.74
6321.00,1.74
6320.00,1.74
6319.00,1.74
6318.00,1.74
6317.00,1.74
6316.00,1.74
6315.00,1.73
6314.00,1.73
6313.00,1.73
6312.00,1.73
6311.00,1.73
6310.00,1.73
6309.00,1.72
6308.00,1.72
6307.00,1.72
6306.00,1.72
6305.00,1.72
6304.00,1.72
6303.00,1.72
6302.00,1.72
6301.00,1.72
6300.00,1.71
6299.00,1.71
6298.00,1.71
6297.00,1.71
6296.00,1.71
6295.00,1.71
6294.00,1.71
6293.00,1.71
6292.00,1.71
6291.00,1.71
6290.00,1.72
6289.00,1.72
6288.00,1.72
6287.00,1.72
6286.00,1.72
6285.00,1.72
6284.00,1.73
6283.00,1.73
6282.00,1.73
6281.00,1.73
6280.00,1.74
6279.00,1.74
6278.00,1.74
6277.00,1.74
6276.00,1.75
6275.00,1.75
6274.00,1.75
6273.00,1.75
6272.00,1.76
6271.00,1.76
6270.00,1.76
6269.00,1.76
6268.00,1.77
6267.00,1.77
6266.00,1.77
6265.00,1.78
6264.00,1.78
6263.00,1.78
6262.00,1.79
6261.00,1.79
6260.00,1.79
6259.00,1.80
6258.00,1.80
6257.00,1.80
6256.00,1.81
6255.00,1.81
6254.00,1.81
6253.00,1.81
6252.00,1.82
6251.00,1.82
6250.00,1.82
6249.00,1.83
6248.00,1.83
6247.00,1.83
6246.00,1.83
6245.00,1.84
6244.00,1.84
6243.00,1.84
6242.00,1.84
6241.00,1.84
6240.00,1.84
6239.00,1.84
6238.00,1.84
6237.00,1.84
6236.00,1.84
6235.00,1.84
6234.00,1.84
6233.00,1.84
6232.00,1.84
6231.00,1.84
6230.00,1.84
6229.00,1.84
6228.00,1.84
6227.00,1.83
6226.00,1.83
6225.00,1.83
6224.00,1.83
6223.00,1.83
6222.00,1.82
6221.00,1.82
6220.00,1.82
6219.00,1.82
6218.00,1.82
6217.00,1.81
6216.00,1.81
6215.00,1.81
6214.00,1.81
6213.00,1.81
6212.00,1.81
6211.00,1.81
6210.00,1.80
6209.00,1.80
6208.00,1.80
6207.00,1.80
6206.00,1.80
6205.00,1.80
6204.00,1.80
6203.00,1.80
6202.00,1.80
6201.00,1.80
6200.00,1.81
6199.00,1.81
6198.00,1.81
6197.00,1.81
6196.00,1.81
6195.00,1.81
6194.00,1.81
6193.00,1.81
6192.00,1.81
6191.00,1.81
6190.00,1.81
6189.00,1.82
6188.00,1.82
6187.00,1.82
6186.00,1.82
6185.00,1.82
6184.00,1.82
6183.00,1.82
6182.00,1.82
6181.00,1.83
6180.00,1.83
6179.00,1.83
6178.00,1.83
6177.00,1.83
6176.00,1.83
6175.00,1.83
6174.00,1.83
6173.00,1.83
6172.00,1.83
6171.00,1.83
6170.00,1.83
6169.00,1.83
6168.00,1.83
6167.00,1.83
6166.00,1.83
6165.00,1.83
6164.00,1.83
6163.00,1.83
6162.00,1.84
6161.00,1.84
6160.00,1.84
6159.00,1.84
6158.00,1.84
6157.00,1.84
6156.00,1.84
6155.00,1.84
6154.00,1.84
6153.00,1.84
6152.00,1.84
6151.00,1.84
6150.00,1.84
6149.00,1.85
6148.00,1.85
6147.00,1.85
6146.00,1.85
6145.00,1.85
6144.00,1.85
6143.00,1.85
6142.00,1.86
6141.00,1.86
6140.00,1.86
6139.00,1.86
6138.00,1.86
6137.00,1.86
6136.00,1.86
6135.00,1.86
6134.00,1.86
6133.00,1.86
6132.00,1.86
6131.00,1.87
6130.00,1.87
6129.00,1.87
6128.00,1.87
6127.00,1.87
6126.00,1.86
6125.00,1.86
6124.00,1.86
6123.00,1.86
6122.00,1.86
6121.00,1.86
6120.00,1.86
6119.00,1.86
6118.00,1.86
6117.00,1.85
6116.00,1.85
6115.00,1.85
6114.00,1.85
6113.00,1.85
6112.00,1.85
6111.00,1.85
6110.00,1.85
6109.00,1.85
6108.00,1.85
6107.00,1.84
6106.00,1.84
6105.00,1.84
6104.00,1.84
6103.00,1.84
6102.00,1.84
6101.00,1.84
6100.00,1.84
6099.00,1.84
6098.00,1.84
6097.00,1.84
6096.00,1.84
6095.00,1.85
6094.00,1.85
6093.00,1.85
6092.00,1.85
6091.00,1.85
6090.00,1.85
6089.00,1.85
6088.00,1.85
6087.00,1.86
6086.00,1.86
6085.00,1.86
6084.00,1.86
6083.00,1.86
6082.00,1.86
6081.00,1.86
6080.00,1.86
6079.00,1.86
6078.00,1.86
6077.00,1.87
6076.00,1.87
6075.00,1.87
6074.00,1.87
6073.00,1.87
6072.00,1.87
6071.00,1.87
6070.00,1.88
6069.00,1.88
6068.00,1.88
6067.00,1.88
6066.00,1.88
6065.00,1.88
6064.00,1.88
6063.00,1.89
6062.00,1.89
6061.00,1.89
6060.00,1.89
6059.00,1.89
6058.00,1.89
6057.00,1.89
6056.00,1.89
6055.00,1.89
6054.00,1.89
6053.00,1.89
6052.00,1.90
6051.00,1.90
6050.00,1.90
6049.00,1.90
6048.00,1.90
6047.00,1.90
6046.00,1.90
6045.00,1.90
6044.00,1.90
6043.00,1.90
6042.00,1.90
6041.00,1.90
6040.00,1.90
6039.00,1.90
6038.00,1.90
6037.00,1.91
6036.00,1.91
6035.00,1.91
6034.00,1.91
6033.00,1.91
6032.00,1.91
6031.00,1.91
6030.00,1.91
6029.00,1.91
6028.00,1.91
6027.00,1.91
6026.00,1.91
6025.00,1.92
6024.00,1.92
6023.00,1.92
6022.00,1.92
6021.00,1.92
6020.00,1.92
6019.00,1.92
6018.00,1.92
6017.00,1.92
6016.00,1.92
6015.00,1.92
6014.00,1.92
6013.00,1.92
6012.00,1.92
6011.00,1.92
6010.00,1.92
6009.00,1.92
6008.00,1.92
6007.00,1.92
6006.00,1.92
6005.00,1.92
6004.00,1.92
6003.00,1.92
6002.00,1.92
6001.00,1.92
6000.00,1.92
5999.00,1.92
5998.00,1.92
5997.00,1.92
5996.00,1.92
5995.00,1.92
5994.00,1.92
5993.00,1.92
5992.00,1.92
5991.00,1.92
5990.00,1.92
5989.00,1.92
5988.00,1.92
5987.00,1.92
5986.00,1.92
5985.00,1.92
5984.00,1.92
5983.00,1.92
5982.00,1.92
5981.00,1.92
5980.00,1.92
5979.00,1.92
5978.00,1.92
5977.00,1.92
5976.00,1.92
5975.00,1.92
5974.00,1.92
5973.00,1.92
5972.00,1.92
5971.00,1.91
5970.00,1.91
5969.00,1.91
5968.00,1.91
5967.00,1.91
5966.00,1.90
5965.00,1.90
5964.00,1.90
5963.00,1.90
5962.00,1.89
5961.00,1.89
5960.00,1.89
5959.00,1.88
5958.00,1.88
5957.00,1.88
5956.00,1.87
5955.00,1.87
5954.00,1.87
5953.00,1.86
5952.00,1.86
5951.00,1.86
5950.00,1.86
5949.00,1.85
5948.00,1.85
5947.00,1.85
5946.00,1.85
5945.00,1.85
5944.00,1.85
5943.00,1.85
5942.00,1.85
5941.00,1.84
5940.00,1.84
5939.00,1.84
5938.00,1.84
5937.00,1.84
5936.00,1.84
5935.00,1.84
5934.00,1.84
5933.00,1.84
5932.00,1.84
5931.00,1.84
5930.00,1.85
5929.00,1.85
5928.00,1.85
5927.00,1.85
5926.00,1.85
5925.00,1.84
5924.00,1.84
5923.00,1.84
5922.00,1.84
5921.00,1.84
5920.00,1.84
5919.00,1.84
5918.00,1.84
5917.00,1.84
5916.00,1.84
5915.00,1.84
5914.00,1.83
5913.00,1.83
5912.00,1.83
5911.00,1.83
5910.00,1.83
5909.00,1.83
5908.00,1.83
5907.00,1.83
5906.00,1.83
5905.00,1.83
5904.00,1.83
5903.00,1.83
5902.00,1.84
5901.00,1.84
5900.00,1.84
5899.00,1.84
5898.00,1.84
5897.00,1.84
5896.00,1.84
5895.00,1.85
5894.00,1.85
5893.00,1.85
5892.00,1.85
5891.00,1.86
5890.00,1.86
5889.00,1.86
5888.00,1.86
5887.00,1.87
5886.00,1.87
5885.00,1.87
5884.00,1.87
5883.00,1.87
5882.00,1.87
5881.00,1.87
5880.00,1.88
5879.00,1.88
5878.00,1.88
5877.00,1.88
5876.00,1.88
5875.00,1.88
5874.00,1.88
5873.00,1.88
5872.00,1.88
5871.00,1.88
5870.00,1.88
5869.00,1.88
5868.00,1.88
5867.00,1.88
5866.00,1.88
5865.00,1.88
5864.00,1.88
5863.00,1.88
5862.00,1.88
5861.00,1.88
5860.00,1.88
5859.00,1.88
5858.00,1.88
5857.00,1.88
5856.00,1.89
5855.00,1.89
5854.00,1.89
5853.00,1.89
5852.00,1.89
5851.00,1.89
5850.00,1.89
5849.00,1.89
5848.00,1.89
5847.00,1.89
5846.00,1.89
5845.00,1.90
5844.00,1.90
5843.00,1.90
5842.00,1.90
5841.00,1.90
5840.00,1.90
5839.00,1.90
5838.00,1.90
5837.00,1.90
5836.00,1.90
5835.00,1.90
5834.00,1.90
5833.00,1.90
5832.00,1.90
5831.00,1.90
5830.00,1.90
5829.00,1.90
5828.00,1.90
5827.00,1.90
5826.00,1.89
5825.00,1.89
5824.00,1.89
5823.00,1.89
5822.00,1.89
5821.00,1.89
5820.00,1.88
5819.00,1.88
5818.00,1.88
5817.00,1.88
5816.00,1.88
5815.00,1.88
5814.00,1.87
5813.00,1.87
5812.00,1.87
5811.00,1.87
5810.00,1.87
5809.00,1.87
5808.00,1.87
5807.00,1.86
5806.00,1.86
5805.00,1.86
5804.00,1.86
5803.00,1.86
5802.00,1.86
5801.00,1.85
5800.00,1.85
5799.00,1.85
5798.00,1.85
5797.00,1.85
5796.00,1.85
5795.00,1.85
5794.00,1.84
5793.00,1.84
5792.00,1.84
5791.00,1.84
5790.00,1.84
5789.00,1.84
5788.00,1.84
5787.00,1.84
5786.00,1.84
5785.00,1.84
5784.00,1.84
5783.00,1.84
5782.00,1.83
5781.00,1.83
5780.00,1.83
5779.00,1.83
5778.00,1.84
5777.00,1.84
5776.00,1.84
5775.00,1.84
5774.00,1.84
5773.00,1.84
5772.00,1.84
5771.00,1.84
5770.00,1.84
5769.00,1.84
5768.00,1.84
5767.00,1.84
5766.00,1.84
5765.00,1.84
5764.00,1.84
5763.00,1.84
5762.00,1.84
5761.00,1.84
5760.00,1.84
5759.00,1.84
5758.00,1.84
5757.00,1.84
5756.00,1.84
5755.00,1.85
5754.00,1.85
5753.00,1.85
5752.00,1.85
5751.00,1.85
5750.00,1.85
5749.00,1.85
5748.00,1.85
5747.00,1.85
5746.00,1.85
5745.00,1.85
5744.00,1.85
5743.00,1.85
5742.00,1.85
5741.00,1.85
5740.00,1.85
5739.00,1.85
5738.00,1.85
5737.00,1.85
5736.00,1.85
5735.00,1.85
5734.00,1.85
5733.00,1.86
5732.00,1.86
5731.00,1.86
5730.00,1.86
5729.00,1.86
5728.00,1.86
5727.00,1.86
5726.00,1.86
5725.00,1.86
5724.00,1.86
5723.00,1.86
5722.00,1.86
5721.00,1.86
5720.00,1.86
5719.00,1.86
5718.00,1.86
5717.00,1.86
5716.00,1.86
5715.00,1.86
5714.00,1.86
5713.00,1.86
5712.00,1.86
5711.00,1.86
5710.00,1.86
5709.00,1.86
5708.00,1.85
5707.00,1.85
5706.00,1.85
5705.00,1.85
5704.00,1.85
5703.00,1.85
5702.00,1.85
5701.00,1.85
5700.00,1.85
5699.00,1.85
5698.00,1.85
5697.00,1.84
5696.00,1.84
5695.00,1.84
5694.00,1.84
5693.00,1.84
5692.00,1.84
5691.00,1.84
5690.00,1.84
5689.00,1.83
5688.00,1.83
5687.00,1.83
5686.00,1.83
5685.00,1.83
5684.00,1.83
5683.00,1.83
5682.00,1.83
5681.00,1.83
5680.00,1.83
5679.00,1.83
5678.00,1.83
5677.00,1.83
5676.00,1.83
5675.00,1.83
5674.00,1.83
5673.00,1.83
5672.00,1.83
5671.00,1.83
5670.00,1.84
5669.00,1.84
5668.00,1.84
5667.00,1.84
5666.00,1.84
5665.00,1.84
5664.00,1.84
5663.00,1.84
5662.00,1.84
5661.00,1.85
5660.00,1.85
5659.00,1.85
5658.00,1.85
5657.00,1.85
5656.00,1.85
5655.00,1.85
5654.00,1.85
5653.00,1.85
5652.00,1.85
5651.00,1.85
5650.00,1.85
5649.00,1.85
5648.00,1.85
5647.00,1.85
5646.00,1.85
5645.00,1.84
5644.00,1.84
5643.00,1.84
5642.00,1.84
5641.00,1.84
5640.00,1.84
5639.00,1.84
5638.00,1.84
5637.00,1.83
5636.00,1.83
5635.00,1.83
5634.00,1.83
5633.00,1.83
5632.00,1.83
5631.00,1.83
5630.00,1.83
5629.00,1.82
5628.00,1.82
5627.00,1.82
5626.00,1.82
5625.00,1.82
5624.00,1.82
5623.00,1.82
5622.00,1.82
5621.00,1.82
5620.00,1.82
5619.00,1.82
5618.00,1.82
5617.00,1.82
5616.00,1.83
5615.00,1.83
5614.00,1.83
5613.00,1.83
5612.00,1.83
5611.00,1.83
5610.00,1.83
5609.00,1.84
5608.00,1.84
5607.00,1.84
5606.00,1.84
5605.00,1.84
5604.00,1.84
5603.00,1.85
5602.00,1.85
5601.00,1.85
5600.00,1.85
5599.00,1.85
5598.00,1.85
5597.00,1.85
5596.00,1.86
5595.00,1.86
5594.00,1.86
5593.00,1.86
5592.00,1.86
5591.00,1.86
5590.00,1.86
5589.00,1.86
5588.00,1.86
5587.00,1.86
5586.00,1.86
5585.00,1.86
5584.00,1.86
5583.00,1.86
5582.00,1.86
5581.00,1.86
5580.00,1.86
5579.00,1.86
5578.00,1.86
5577.00,1.86
5576.00,1.86
5575.00,1.85
5574.00,1.85
5573.00,1.85
5572.00,1.85
5571.00,1.85
5570.00,1.85
5569.00,1.85
5568.00,1.85
5567.00,1.85
5566.00,1.85
5565.00,1.85
5564.00,1.84
5563.00,1.84
5562.00,1.84
5561.00,1.84
5560.00,1.84
5559.00,1.84
5558.00,1.84
5557.00,1.84
5556.00,1.84
5555.00,1.84
5554.00,1.84
5553.00,1.84
5552.00,1.84
5551.00,1.84
5550.00,1.84
5549.00,1.84
5548.00,1.84
5547.00,1.84
5546.00,1.84
5545.00,1.85
5544.00,1.85
5543.00,1.85
5542.00,1.85
5541.00,1.85
5540.00,1.86
5539.00,1.86
5538.00,1.86
5537.00,1.86
5536.00,1.87
5535.00,1.87
5534.00,1.87
5533.00,1.87
5532.00,1.87
5531.00,1.88
5530.00,1.88
5529.00,1.88
5528.00,1.88
5527.00,1.88
5526.00,1.88
5525.00,1.88
5524.00,1.88
5523.00,1.88
5522.00,1.88
5521.00,1.88
5520.00,1.88
5519.00,1.88
5518.00,1.88
5517.00,1.88
5516.00,1.88
5515.00,1.88
5514.00,1.88
5513.00,1.87
5512.00,1.87
5511.00,1.87
5510.00,1.87
5509.00,1.87
5508.00,1.87
5507.00,1.86
5506.00,1.86
5505.00,1.86
5504.00,1.86
5503.00,1.86
5502.00,1.86
5501.00,1.86
5500.00,1.86
5499.00,1.86
5498.00,1.86
5497.00,1.86
5496.00,1.86
5495.00,1.86
5494.00,1.86
5493.00,1.86
5492.00,1.87
5491.00,1.87
5490.00,1.87
5489.00,1.87
5488.00,1.87
5487.00,1.87
5486.00,1.88
5485.00,1.88
5484.00,1.88
5483.00,1.88
5482.00,1.89
5481.00,1.89
5480.00,1.89
5479.00,1.89
5478.00,1.89
5477.00,1.89
5476.00,1.89
5475.00,1.90
5474.00,1.90
5473.00,1.90
5472.00,1.90
5471.00,1.90
5470.00,1.90
5469.00,1.90
5468.00,1.90
5467.00,1.90
5466.00,1.90
5465.00,1.90
5464.00,1.90
5463.00,1.90
5462.00,1.90
5461.00,1.91
5460.00,1.91
5459.00,1.91
5458.00,1.91
5457.00,1.91
5456.00,1.91
5455.00,1.91
5454.00,1.91
5453.00,1.91
5452.00,1.91
5451.00,1.91
5450.00,1.91
5449.00,1.91
5448.00,1.91
5447.00,1.91
5446.00,1.91
5445.00,1.91
5444.00,1.91
5443.00,1.91
5442.00,1.91
5441.00,1.91
5440.00,1.91
5439.00,1.91
5438.00,1.91
5437.00,1.91
5436.00,1.91
5435.00,1.91
5434.00,1.91
5433.00,1.90
5432.00,1.90
5431.00,1.90
5430.00,1.90
5429.00,1.90
5428.00,1.89
5427.00,1.89
5426.00,1.89
5425.00,1.89
5424.00,1.88
5423.00,1.88
5422.00,1.88
5421.00,1.88
5420.00,1.88
5419.00,1.88
5418.00,1.87
5417.00,1.87
5416.00,1.87
5415.00,1.87
5414.00,1.87
5413.00,1.87
5412.00,1.87
5411.00,1.87
5410.00,1.87
5409.00,1.86
5408.00,1.86
5407.00,1.86
5406.00,1.86
5405.00,1.86
5404.00,1.86
5403.00,1.86
5402.00,1.86
5401.00,1.86
5400.00,1.86
5399.00,1.86
5398.00,1.86
5397.00,1.86
5396.00,1.86
5395.00,1.86
5394.00,1.86
5393.00,1.86
5392.00,1.86
5391.00,1.86
5390.00,1.86
5389.00,1.85
5388.00,1.85
5387.00,1.85
5386.00,1.85
5385.00,1.85
5384.00,1.85
5383.00,1.85
5382.00,1.84
5381.00,1.84
5380.00,1.84
5379.00,1.84
5378.00,1.84
5377.00,1.84
5376.00,1.83
5375.00,1.83
5374.00,1.83
5373.00,1.83
5372.00,1.82
5371.00,1.82
5370.00,1.82
5369.00,1.81
5368.00,1.81
5367.00,1.81
5366.00,1.80
5365.00,1.80
5364.00,1.80
5363.00,1.79
5362.00,1.79
5361.00,1.79
5360.00,1.78
5359.00,1.78
5358.00,1.77
5357.00,1.77
5356.00,1.76
5355.00,1.76
5354.00,1.75
5353.00,1.75
5352.00,1.74
5351.00,1.74
5350.00,1.73
5349.00,1.73
5348.00,1.72
5347.00,1.71
5346.00,1.71
5345.00,1.70
5344.00,1.70
5343.00,1.69
5342.00,1.68
5341.00,1.68
5340.00,1.67
5339.00,1.66
5338.00,1.66
5337.00,1.65
5336.00,1.64
5335.00,1.63
5334.00,1.63
5333.00,1.62
5332.00,1.61
5331.00,1.60
5330.00,1.59
5329.00,1.59
5328.00,1.58
5327.00,1.57
5326.00,1.56
5325.00,1.55
5324.00,1.54
5323.00,1.53
5322.00,1.52
5321.00,1.51
5320.00,1.50
5319.00,1.49
5318.00,1.48
5317.00,1.47
5316.00,1.46
5315.00,1.45
5314.00,1.44
5313.00,1.43
5312.00,1.42
5311.00,1.40
5310.00,1.39
5309.00,1.38
5308.00,1.37
5307.00,1.36
5306.00,1.34
5305.00,1.33
5304.00,1.32
5303.00,1.31
5302.00,1.29
5301.00,1.28
5300.00,1.27
5299.00,1.26
5298.00,1.24
5297.00,1.23
5296.00,1.22
5295.00,1.21
5294.00,1.20
5293.00,1.19
5292.00,1.18
5291.00,1.17
5290.00,1.16
5289.00,1.15
5288.00,1.14
5287.00,1.13
5286.00,1.12
5285.00,1.11
5284.00,1.10
5283.00,1.09
5282.00,1.09
5281.00,1.08
5280.00,1.07
5279.00,1.07
5278.00,1.06
5277.00,1.05
5276.00,1.05
5275.00,1.04
5274.00,1.04
5273.00,1.04
5272.00,1.03
5271.00,1.03
5270.00,1.02
5269.00,1.02
5268.00,1.02
5267.00,1.01
5266.00,1.01
5265.00,1.01
5264.00,1.01
5263.00,1.00
5262.00,1.00
5261.00,1.00
5260.00,1.00
5259.00,1.00
5258.00,1.00
5257.00,0.99
5256.00,0.99
5255.00,0.99
5254.00,0.99
5253.00,0.99
5252.00,0.98
5251.00,0.98
5250.00,0.98
5249.00,0.98
5248.00,0.97
5247.00,0.97
5246.00,0.97
5245.00,0.97
5244.00,0.96
5243.00,0.96
5242.00,0.96
5241.00,0.95
5240.00,0.95
5239.00,0.95
5238.00,0.94
5237.00,0.94
5236.00,0.94
5235.00,0.93
5234.00,0.93
5233.00,0.93
5232.00,0.92
5231.00,0.92
5230.00,0.92
5229.00,0.92
5228.00,0.92
5227.00,0.91
5226.00,0.91
5225.00,0.91
5224.00,0.91
5223.00,0.91
5222.00,0.91
5221.00,0.90
5220.00,0.90
5219.00,0.90
5218.00,0.90
5217.00,0.90
5216.00,0.90
5215.00,0.90
5214.00,0.90
5213.00,0.90
5212.00,0.90
5211.00,0.90
5210.00,0.90
5209.00,0.89
5208.00,0.89
5207.00,0.89
5206.00,0.89
5205.00,0.89
5204.00,0.89
5203.00,0.89
5202.00,0.88
5201.00,0.88
5200.00,0.88
5199.00,0.88
5198.00,0.88
5197.00,0.87
5196.00,0.87
5195.00,0.87
5194.00,0.87
5193.00,0.87
5192.00,0.87
5191.00,0.87
5190.00,0.87
5189.00,0.86
5188.00,0.86
5187.00,0.86
5186.00,0.86
5185.00,0.86
5184.00,0.86
5183.00,0.86
5182.00,0.86
5181.00,0.86
5180.00,0.86
5179.00,0.86
5178.00,0.86
5177.00,0.86
5176.00,0.86
5175.00,0.86
5174.00,0.86
5173.00,0.86
5172.00,0.86
5171.00,0.86
5170.00,0.86
5169.00,0.87
5168.00,0.87
5167.00,0.87
5166.00,0.87
5165.00,0.87
5164.00,0.87
5163.00,0.87
5162.00,0.87
5161.00,0.87
5160.00,0.87
5159.00,0.87
5158.00,0.87
5157.00,0.87
5156.00,0.87
5155.00,0.87
5154.00,0.87
5153.00,0.87
5152.00,0.87
5151.00,0.87
5150.00,0.87
5149.00,0.88
5148.00,0.88
5147.00,0.88
5146.00,0.88
5145.00,0.88
5144.00,0.88
5143.00,0.88
5142.00,0.88
5141.00,0.89
5140.00,0.89
5139.00,0.89
5138.00,0.89
5137.00,0.89
5136.00,0.90
5135.00,0.90
5134.00,0.90
5133.00,0.90
5132.00,0.90
5131.00,0.90
5130.00,0.91
5129.00,0.91
5128.00,0.91
5127.00,0.91
5126.00,0.91
5125.00,0.91
5124.00,0.91
5123.00,0.92
5122.00,0.92
5121.00,0.92
5120.00,0.92
5119.00,0.92
5118.00,0.92
5117.00,0.92
5116.00,0.93
5115.00,0.93
5114.00,0.93
5113.00,0.93
5112.00,0.93
5111.00,0.93
5110.00,0.94
5109.00,0.94
5108.00,0.94
5107.00,0.94
5106.00,0.94
5105.00,0.95
5104.00,0.95
5103.00,0.95
5102.00,0.95
5101.00,0.96
5100.00,0.96
5099.00,0.96
5098.00,0.96
5097.00,0.97
5096.00,0.97
5095.00,0.97
5094.00,0.97
5093.00,0.98
5092.00,0.98
5091.00,0.98
5090.00,0.98
5089.00,0.98
5088.00,0.99
5087.00,0.99
5086.00,0.99
5085.00,0.99
5084.00,0.99
5083.00,1.00
5082.00,1.00
5081.00,1.00
5080.00,1.00
5079.00,1.00
5078.00,1.00
5077.00,1.01
5076.00,1.01
5075.00,1.01
5074.00,1.01
5073.00,1.01
5072.00,1.01
5071.00,1.01
5070.00,1.01
5069.00,1.01
5068.00,1.01
5067.00,1.01
5066.00,1.01
5065.00,1.02
5064.00,1.02
5063.00,1.02
5062.00,1.02
5061.00,1.02
5060.00,1.02
5059.00,1.02
5058.00,1.02
5057.00,1.02
5056.00,1.02
5055.00,1.02
5054.00,1.03
5053.00,1.03
5052.00,1.03
5051.00,1.03
5050.00,1.03
5049.00,1.03
5048.00,1.03
5047.00,1.04
5046.00,1.04
5045.00,1.04
5044.00,1.04
5043.00,1.05
5042.00,1.05
5041.00,1.05
5040.00,1.06
5039.00,1.06
5038.00,1.06
5037.00,1.07
5036.00,1.07
5035.00,1.07
5034.00,1.07
5033.00,1.08
5032.00,1.08
5031.00,1.08
5030.00,1.09
5029.00,1.09
5028.00,1.09
5027.00,1.10
5026.00,1.10
5025.00,1.10
5024.00,1.10
5023.00,1.11
5022.00,1.11
5021.00,1.11
5020.00,1.12
5019.00,1.12
5018.00,1.12
5017.00,1.12
5016.00,1.12
5015.00,1.13
5014.00,1.13
5013.00,1.13
5012.00,1.13
5011.00,1.13
5010.00,1.14
5009.00,1.14
5008.00,1.14
5007.00,1.14
5006.00,1.14
5005.00,1.15
5004.00,1.15
5003.00,1.15
5002.00,1.15
5001.00,1.16
5000.00,1.16
4999.00,1.16
4998.00,1.16
4997.00,1.17
4996.00,1.17
4995.00,1.17
4994.00,1.17
4993.00,1.17
4992.00,1.18
4991.00,1.18
4990.00,1.18
4989.00,1.18
4988.00,1.18
4987.00,1.19
4986.00,1.19
4985.00,1.19
4984.00,1.19
4983.00,1.19
4982.00,1.19
4981.00,1.20
4980.00,1.20
4979.00,1.20
4978.00,1.20
4977.00,1.20
4976.00,1.20
4975.00,1.20
4974.00,1.21
4973.00,1.21
4972.00,1.21
4971.00,1.21
4970.00,1.21
4969.00,1.21
4968.00,1.21
4967.00,1.21
4966.00,1.22
4965.00,1.22
4964.00,1.22
4963.00,1.22
4962.00,1.22
4961.00,1.23
4960.00,1.23
4959.00,1.23
4958.00,1.23
4957.00,1.23
4956.00,1.24
4955.00,1.24
4954.00,1.24
4953.00,1.24
4952.00,1.25
4951.00,1.25
4950.00,1.25
4949.00,1.25
4948.00,1.26
4947.00,1.26
4946.00,1.26
4945.00,1.27
4944.00,1.27
4943.00,1.27
4942.00,1.28
4941.00,1.28
4940.00,1.28
4939.00,1.29
4938.00,1.29
4937.00,1.29
4936.00,1.30
4935.00,1.30
4934.00,1.30
4933.00,1.31
4932.00,1.31
4931.00,1.31
4930.00,1.32
4929.00,1.32
4928.00,1.32
4927.00,1.32
4926.00,1.33
4925.00,1.33
4924.00,1.33
4923.00,1.34
4922.00,1.34
4921.00,1.34
4920.00,1.34
4919.00,1.34
4918.00,1.35
4917.00,1.35
4916.00,1.35
4915.00,1.35
4914.00,1.35
4913.00,1.35
4912.00,1.36
4911.00,1.36
4910.00,1.36
4909.00,1.36
4908.00,1.36
4907.00,1.36
4906.00,1.37
4905.00,1.37
4904.00,1.37
4903.00,1.37
4902.00,1.38
4901.00,1.38
4900.00,1.38
4899.00,1.38
4898.00,1.39
4897.00,1.39
4896.00,1.39
4895.00,1.40
4894.00,1.40
4893.00,1.40
4892.00,1.40
4891.00,1.40
4890.00,1.41
4889.00,1.41
4888.00,1.41
4887.00,1.41
4886.00,1.41
4885.00,1.42
4884.00,1.42
4883.00,1.42
4882.00,1.42
4881.00,1.42
4880.00,1.43
4879.00,1.43
4878.00,1.43
4877.00,1.43
4876.00,1.43
4875.00,1.43
4874.00,1.43
4873.00,1.43
4872.00,1.44
4871.00,1.44
4870.00,1.44
4869.00,1.44
4868.00,1.44
4867.00,1.44
4866.00,1.44
4865.00,1.44
4864.00,1.45
4863.00,1.45
4862.00,1.45
4861.00,1.45
4860.00,1.45
4859.00,1.46
4858.00,1.46
4857.00,1.46
4856.00,1.46
4855.00,1.46
4854.00,1.47
4853.00,1.47
4852.00,1.47
4851.00,1.47
4850.00,1.48
4849.00,1.48
4848.00,1.48
4847.00,1.48
4846.00,1.48
4845.00,1.49
4844.00,1.49
4843.00,1.49
4842.00,1.49
4841.00,1.50
4840.00,1.50
4839.00,1.50
4838.00,1.50
4837.00,1.51
4836.00,1.51
4835.00,1.51
4834.00,1.51
4833.00,1.51
4832.00,1.52
4831.00,1.52
4830.00,1.52
4829.00,1.52
4828.00,1.52
4827.00,1.52
4826.00,1.52
4825.00,1.53
4824.00,1.53
4823.00,1.53
4822.00,1.53
4821.00,1.53
4820.00,1.53
4819.00,1.53
4818.00,1.53
4817.00,1.53
4816.00,1.53
4815.00,1.53
4814.00,1.53
4813.00,1.53
4812.00,1.53
4811.00,1.53
4810.00,1.53
4809.00,1.53
4808.00,1.53
4807.00,1.53
4806.00,1.54
4805.00,1.54
4804.00,1.54
4803.00,1.54
4802.00,1.54
4801.00,1.54
4800.00,1.55
4799.00,1.55
4798.00,1.55
4797.00,1.56
4796.00,1.56
4795.00,1.56
4794.00,1.57
4793.00,1.57
4792.00,1.57
4791.00,1.58
4790.00,1.58
4789.00,1.59
4788.00,1.59
4787.00,1.59
4786.00,1.60
4785.00,1.60
4784.00,1.61
4783.00,1.61
4782.00,1.61
4781.00,1.62
4780.00,1.62
4779.00,1.62
4778.00,1.63
4777.00,1.63
4776.00,1.63
4775.00,1.63
4774.00,1.64
4773.00,1.64
4772.00,1.64
4771.00,1.65
4770.00,1.65
4769.00,1.65
4768.00,1.65
4767.00,1.65
4766.00,1.66
4765.00,1.66
4764.00,1.66
4763.00,1.66
4762.00,1.66
4761.00,1.67
4760.00,1.67
4759.00,1.67
4758.00,1.67
4757.00,1.68
4756.00,1.68
4755.00,1.68
4754.00,1.68
4753.00,1.69
4752.00,1.69
4751.00,1.69
4750.00,1.70
4749.00,1.70
4748.00,1.70
4747.00,1.70
4746.00,1.71
4745.00,1.71
4744.00,1.71
4743.00,1.71
4742.00,1.71
4741.00,1.72
4740.00,1.72
4739.00,1.72
4738.00,1.73
4737.00,1.73
4736.00,1.73
4735.00,1.73
4734.00,1.74
4733.00,1.74
4732.00,1.74
4731.00,1.75
4730.00,1.75
4729.00,1.75
4728.00,1.75
4727.00,1.76
4726.00,1.76
4725.00,1.76
4724.00,1.76
4723.00,1.76
4722.00,1.77
4721.00,1.77
4720.00,1.77
4719.00,1.77
4718.00,1.77
4717.00,1.78
4716.00,1.78
4715.00,1.78
4714.00,1.78
4713.00,1.78
4712.00,1.78
4711.00,1.78
4710.00,1.79
4709.00,1.79
4708.00,1.79
4707.00,1.79
4706.00,1.79
4705.00,1.79
4704.00,1.79
4703.00,1.79
4702.00,1.79
4701.00,1.79
4700.00,1.79
4699.00,1.79
4698.00,1.79
4697.00,1.79
4696.00,1.79
4695.00,1.79
4694.00,1.79
4693.00,1.79
4692.00,1.79
4691.00,1.79
4690.00,1.79
4689.00,1.79
4688.00,1.79
4687.00,1.79
4686.00,1.80
4685.00,1.80
4684.00,1.80
4683.00,1.80
4682.00,1.80
4681.00,1.80
4680.00,1.81
4679.00,1.81
4678.00,1.81
4677.00,1.81
4676.00,1.82
4675.00,1.82
4674.00,1.82
4673.00,1.83
4672.00,1.83
4671.00,1.83
4670.00,1.83
4669.00,1.84
4668.00,1.84
4667.00,1.84
4666.00,1.85
4665.00,1.85
4664.00,1.85
4663.00,1.85
4662.00,1.85
4661.00,1.86
4660.00,1.86
4659.00,1.86
4658.00,1.86
4657.00,1.87
4656.00,1.87
4655.00,1.87
4654.00,1.87
4653.00,1.87
4652.00,1.87
4651.00,1.87
4650.00,1.87
4649.00,1.87
4648.00,1.87
4647.00,1.88
4646.00,1.88
4645.00,1.88
4644.00,1.88
4643.00,1.88
4642.00,1.88
4641.00,1.88
4640.00,1.88
4639.00,1.88
4638.00,1.88
4637.00,1.88
4636.00,1.88
4635.00,1.88
4634.00,1.88
4633.00,1.88
4632.00,1.88
4631.00,1.88
4630.00,1.88
4629.00,1.88
4628.00,1.87
4627.00,1.87
4626.00,1.87
4625.00,1.87
4624.00,1.87
4623.00,1.87
4622.00,1.87
4621.00,1.87
4620.00,1.87
4619.00,1.87
4618.00,1.88
4617.00,1.88
4616.00,1.88
4615.00,1.88
4614.00,1.88
4613.00,1.88
4612.00,1.88
4611.00,1.88
4610.00,1.88
4609.00,1.88
4608.00,1.88
4607.00,1.88
4606.00,1.88
4605.00,1.89
4604.00,1.89
4603.00,1.89
4602.00,1.89
4601.00,1.89
4600.00,1.90
4599.00,1.90
4598.00,1.90
4597.00,1.90
4596.00,1.91
4595.00,1.91
4594.00,1.91
4593.00,1.91
4592.00,1.91
4591.00,1.92
4590.00,1.92
4589.00,1.92
4588.00,1.92
4587.00,1.92
4586.00,1.92
4585.00,1.93
4584.00,1.93
4583.00,1.93
4582.00,1.93
4581.00,1.93
4580.00,1.93
4579.00,1.93
4578.00,1.93
4577.00,1.93
4576.00,1.93
4575.00,1.93
4574.00,1.93
4573.00,1.93
4572.00,1.93
4571.00,1.93
4570.00,1.93
4569.00,1.93
4568.00,1.93
4567.00,1.93
4566.00,1.93
4565.00,1.93
4564.00,1.93
4563.00,1.93
4562.00,1.93
4561.00,1.92
4560.00,1.92
4559.00,1.92
4558.00,1.92
4557.00,1.92
4556.00,1.92
4555.00,1.92
4554.00,1.92
4553.00,1.92
4552.00,1.92
4551.00,1.92
4550.00,1.92
4549.00,1.92
4548.00,1.92
4547.00,1.92
4546.00,1.92
4545.00,1.92
4544.00,1.92
4543.00,1.92
4542.00,1.92
4541.00,1.91
4540.00,1.91
4539.00,1.91
4538.00,1.91
4537.00,1.91
4536.00,1.91
4535.00,1.91
4534.00,1.91
4533.00,1.91
4532.00,1.91
4531.00,1.91
4530.00,1.91
4529.00,1.91
4528.00,1.91
4527.00,1.91
4526.00,1.91
4525.00,1.91
4524.00,1.91
4523.00,1.91
4522.00,1.91
4521.00,1.91
4520.00,1.90
4519.00,1.90
4518.00,1.90
4517.00,1.90
4516.00,1.90
4515.00,1.90
4514.00,1.90
4513.00,1.90
4512.00,1.90
4511.00,1.90
4510.00,1.90
4509.00,1.90
4508.00,1.90
4507.00,1.90
4506.00,1.90
4505.00,1.91
4504.00,1.91
4503.00,1.91
4502.00,1.91
4501.00,1.91
4500.00,1.91
4499.00,1.91
4498.00,1.91
4497.00,1.91
4496.00,1.92
4495.00,1.92
4494.00,1.92
4493.00,1.92
4492.00,1.92
4491.00,1.92
4490.00,1.92
4489.00,1.92
4488.00,1.92
4487.00,1.92
4486.00,1.92
4485.00,1.92
4484.00,1.92
4483.00,1.92
4482.00,1.92
4481.00,1.92
4480.00,1.92
4479.00,1.92
4478.00,1.92
4477.00,1.91
4476.00,1.91
4475.00,1.91
4474.00,1.91
4473.00,1.91
4472.00,1.91
4471.00,1.91
4470.00,1.91
4469.00,1.90
4468.00,1.90
4467.00,1.90
4466.00,1.90
4465.00,1.90
4464.00,1.90
4463.00,1.90
4462.00,1.89
4461.00,1.89
4460.00,1.89
4459.00,1.89
4458.00,1.89
4457.00,1.89
4456.00,1.88
4455.00,1.88
4454.00,1.88
4453.00,1.88
4452.00,1.87
4451.00,1.87
4450.00,1.87
4449.00,1.86
4448.00,1.86
4447.00,1.85
4446.00,1.85
4445.00,1.84
4444.00,1.84
4443.00,1.83
4442.00,1.83
4441.00,1.82
4440.00,1.82
4439.00,1.81
4438.00,1.80
4437.00,1.80
4436.00,1.79
4435.00,1.79
4434.00,1.78
4433.00,1.78
4432.00,1.77
4431.00,1.76
4430.00,1.76
4429.00,1.75
4428.00,1.75
4427.00,1.74
4426.00,1.74
4425.00,1.73
4424.00,1.73
4423.00,1.73
4422.00,1.72
4421.00,1.72
4420.00,1.72
4419.00,1.71
4418.00,1.71
4417.00,1.71
4416.00,1.71
4415.00,1.71
4414.00,1.71
4413.00,1.70
4412.00,1.70
4411.00,1.70
4410.00,1.70
4409.00,1.70
4408.00,1.70
4407.00,1.70
4406.00,1.71
4405.00,1.71
4404.00,1.71
4403.00,1.71
4402.00,1.72
4401.00,1.72
4400.00,1.72
4399.00,1.72
4398.00,1.73
4397.00,1.73
4396.00,1.73
4395.00,1.74
4394.00,1.74
4393.00,1.74
4392.00,1.75
4391.00,1.75
4390.00,1.76
4389.00,1.76
4388.00,1.77
4387.00,1.77
4386.00,1.77
4385.00,1.78
4384.00,1.78
4383.00,1.79
4382.00,1.79
4381.00,1.79
4380.00,1.80
4379.00,1.80
4378.00,1.80
4377.00,1.80
4376.00,1.81
4375.00,1.81
4374.00,1.81
4373.00,1.81
4372.00,1.81
4371.00,1.81
4370.00,1.81
4369.00,1.81
4368.00,1.81
4367.00,1.81
4366.00,1.81
4365.00,1.81
4364.00,1.81
4363.00,1.80
4362.00,1.80
4361.00,1.80
4360.00,1.80
4359.00,1.80
4358.00,1.79
4357.00,1.79
4356.00,1.79
4355.00,1.78
4354.00,1.78
4353.00,1.78
4352.00,1.77
4351.00,1.77
4350.00,1.77
4349.00,1.77
4348.00,1.77
4347.00,1.76
4346.00,1.76
4345.00,1.76
4344.00,1.76
4343.00,1.76
4342.00,1.76
4341.00,1.76
4340.00,1.76
4339.00,1.76
4338.00,1.76
4337.00,1.76
4336.00,1.76
4335.00,1.76
4334.00,1.77
4333.00,1.77
4332.00,1.78
4331.00,1.78
4330.00,1.78
4329.00,1.79
4328.00,1.79
4327.00,1.80
4326.00,1.80
4325.00,1.81
4324.00,1.81
4323.00,1.82
4322.00,1.83
4321.00,1.83
4320.00,1.84
4319.00,1.84
4318.00,1.85
4317.00,1.85
4316.00,1.86
4315.00,1.86
4314.00,1.87
4313.00,1.87
4312.00,1.88
4311.00,1.88
4310.00,1.89
4309.00,1.89
4308.00,1.89
4307.00,1.90
4306.00,1.90
4305.00,1.90
4304.00,1.90
4303.00,1.90
4302.00,1.90
4301.00,1.90
4300.00,1.90
4299.00,1.90
4298.00,1.90
4297.00,1.90
4296.00,1.90
4295.00,1.90
4294.00,1.90
4293.00,1.90
4292.00,1.90
4291.00,1.90
4290.00,1.90
4289.00,1.90
4288.00,1.90
4287.00,1.90
4286.00,1.90
4285.00,1.89
4284.00,1.89
4283.00,1.89
4282.00,1.89
4281.00,1.89
4280.00,1.89
4279.00,1.89
4278.00,1.88
4277.00,1.88
4276.00,1.88
4275.00,1.88
4274.00,1.88
4273.00,1.88
4272.00,1.88
4271.00,1.88
4270.00,1.88
4269.00,1.88
4268.00,1.88
4267.00,1.88
4266.00,1.88
4265.00,1.88
4264.00,1.87
4263.00,1.87
4262.00,1.87
4261.00,1.87
4260.00,1.87
4259.00,1.87
4258.00,1.87
4257.00,1.87
4256.00,1.87
4255.00,1.87
4254.00,1.87
4253.00,1.87
4252.00,1.87
4251.00,1.87
4250.00,1.87
4249.00,1.87
4248.00,1.87
4247.00,1.87
4246.00,1.88
4245.00,1.88
4244.00,1.88
4243.00,1.88
4242.00,1.88
4241.00,1.88
4240.00,1.88
4239.00,1.89
4238.00,1.89
4237.00,1.89
4236.00,1.89
4235.00,1.90
4234.00,1.90
4233.00,1.90
4232.00,1.90
4231.00,1.90
4230.00,1.91
4229.00,1.91
4228.00,1.91
4227.00,1.91
4226.00,1.91
4225.00,1.91
4224.00,1.91
4223.00,1.91
4222.00,1.91
4221.00,1.91
4220.00,1.91
4219.00,1.91
4218.00,1.90
4217.00,1.90
4216.00,1.90
4215.00,1.90
4214.00,1.90
4213.00,1.90
4212.00,1.90
4211.00,1.90
4210.00,1.90
4209.00,1.90
4208.00,1.90
4207.00,1.89
4206.00,1.89
4205.00,1.89
4204.00,1.89
4203.00,1.89
4202.00,1.89
4201.00,1.88
4200.00,1.88
4199.00,1.88
4198.00,1.88
4197.00,1.88
4196.00,1.88
4195.00,1.87
4194.00,1.87
4193.00,1.87
4192.00,1.86
4191.00,1.86
4190.00,1.86
4189.00,1.85
4188.00,1.85
4187.00,1.84
4186.00,1.84
4185.00,1.83
4184.00,1.83
4183.00,1.83
4182.00,1.82
4181.00,1.82
4180.00,1.82
4179.00,1.81
4178.00,1.81
4177.00,1.81
4176.00,1.80
4175.00,1.80
4174.00,1.80
4173.00,1.80
4172.00,1.80
4171.00,1.80
4170.00,1.80
4169.00,1.80
4168.00,1.80
4167.00,1.81
4166.00,1.81
4165.00,1.81
4164.00,1.82
4163.00,1.82
4162.00,1.83
4161.00,1.83
4160.00,1.83
4159.00,1.83
4158.00,1.84
4157.00,1.84
4156.00,1.84
4155.00,1.84
4154.00,1.84
4153.00,1.85
4152.00,1.85
4151.00,1.85
4150.00,1.85
4149.00,1.85
4148.00,1.85
4147.00,1.85
4146.00,1.85
4145.00,1.84
4144.00,1.84
4143.00,1.84
4142.00,1.83
4141.00,1.83
4140.00,1.82
4139.00,1.81
4138.00,1.81
4137.00,1.80
4136.00,1.80
4135.00,1.79
4134.00,1.79
4133.00,1.78
4132.00,1.78
4131.00,1.78
4130.00,1.77
4129.00,1.77
4128.00,1.76
4127.00,1.76
4126.00,1.76
4125.00,1.75
4124.00,1.75
4123.00,1.74
4122.00,1.74
4121.00,1.74
4120.00,1.73
4119.00,1.73
4118.00,1.73
4117.00,1.73
4116.00,1.73
4115.00,1.73
4114.00,1.73
4113.00,1.73
4112.00,1.73
4111.00,1.73
4110.00,1.73
4109.00,1.73
4108.00,1.73
4107.00,1.73
4106.00,1.73
4105.00,1.73
4104.00,1.73
4103.00,1.73
4102.00,1.73
4101.00,1.73
4100.00,1.73
4099.00,1.73
4098.00,1.73
4097.00,1.73
4096.00,1.73
4095.00,1.73
4094.00,1.74
4093.00,1.74
4092.00,1.74
4091.00,1.74
4090.00,1.74
4089.00,1.74
4088.00,1.74
4087.00,1.74
4086.00,1.74
4085.00,1.74
4084.00,1.74
4083.00,1.74
4082.00,1.74
4081.00,1.74
4080.00,1.74
4079.00,1.74
4078.00,1.74
4077.00,1.74
4076.00,1.74
4075.00,1.74
4074.00,1.74
4073.00,1.74
4072.00,1.74
4071.00,1.74
4070.00,1.74
4069.00,1.74
4068.00,1.74
4067.00,1.74
4066.00,1.74
4065.00,1.74
4064.00,1.74
4063.00,1.73
4062.00,1.73
4061.00,1.73
4060.00,1.73
4059.00,1.73
4058.00,1.73
4057.00,1.72
4056.00,1.72
4055.00,1.72
4054.00,1.72
4053.00,1.72
4052.00,1.72
4051.00,1.71
4050.00,1.71
4049.00,1.71
4048.00,1.71
4047.00,1.71
4046.00,1.71
4045.00,1.70
4044.00,1.70
4043.00,1.70
4042.00,1.70
4041.00,1.69
4040.00,1.69
4039.00,1.69
4038.00,1.69
4037.00,1.69
4036.00,1.69
4035.00,1.69
4034.00,1.69
4033.00,1.69
4032.00,1.69
4031.00,1.69
4030.00,1.69
4029.00,1.69
4028.00,1.69
4027.00,1.70
4026.00,1.70
4025.00,1.70
4024.00,1.71
4023.00,1.71
4022.00,1.71
4021.00,1.72
4020.00,1.72
4019.00,1.73
4018.00,1.73
4017.00,1.74
4016.00,1.74
4015.00,1.75
4014.00,1.76
4013.00,1.77
4012.00,1.78
4011.00,1.79
4010.00,1.80
4009.00,1.81
4008.00,1.82
4007.00,1.84
4006.00,1.85
4005.00,1.86
4004.00,1.87
4003.00,1.89
4002.00,1.90
4001.00,1.91
4000.00,1.92
