创建为新数据集,样品 1284 用户 Administrator 日期 星期六, 八月 17 2019
cm-1,%T
10000.00,1.13
9998.00,1.13
9996.00,1.12
9994.00,1.12
9992.00,1.12
9990.00,1.12
9988.00,1.12
9986.00,1.12
9984.00,1.12
9982.00,1.12
9980.00,1.12
9978.00,1.12
9976.00,1.12
9974.00,1.12
9972.00,1.12
9970.00,1.12
9968.00,1.11
9966.00,1.11
9964.00,1.11
9962.00,1.11
9960.00,1.11
9958.00,1.11
9956.00,1.11
9954.00,1.11
9952.00,1.11
9950.00,1.11
9948.00,1.11
9946.00,1.11
9944.00,1.11
9942.00,1.11
9940.00,1.11
9938.00,1.11
9936.00,1.11
9934.00,1.11
9932.00,1.11
9930.00,1.11
9928.00,1.11
9926.00,1.11
9924.00,1.10
9922.00,1.10
9920.00,1.10
9918.00,1.10
9916.00,1.10
9914.00,1.10
9912.00,1.10
9910.00,1.10
9908.00,1.10
9906.00,1.10
9904.00,1.10
9902.00,1.11
9900.00,1.11
9898.00,1.11
9896.00,1.11
9894.00,1.11
9892.00,1.11
9890.00,1.11
9888.00,1.11
9886.00,1.12
9884.00,1.12
9882.00,1.12
9880.00,1.12
9878.00,1.12
9876.00,1.12
9874.00,1.11
9872.00,1.11
9870.00,1.11
9868.00,1.11
9866.00,1.11
9864.00,1.10
9862.00,1.10
9860.00,1.10
9858.00,1.10
9856.00,1.09
9854.00,1.09
9852.00,1.09
9850.00,1.09
9848.00,1.08
9846.00,1.08
9844.00,1.08
9842.00,1.08
9840.00,1.08
9838.00,1.08
9836.00,1.08
9834.00,1.08
9832.00,1.08
9830.00,1.08
9828.00,1.08
9826.00,1.08
9824.00,1.08
9822.00,1.08
9820.00,1.08
9818.00,1.09
9816.00,1.09
9814.00,1.09
9812.00,1.09
9810.00,1.09
9808.00,1.09
9806.00,1.09
9804.00,1.10
9802.00,1.10
9800.00,1.10
9798.00,1.10
9796.00,1.10
9794.00,1.10
9792.00,1.10
9790.00,1.10
9788.00,1.10
9786.00,1.10
9784.00,1.11
9782.00,1.11
9780.00,1.11
9778.00,1.11
9776.00,1.11
9774.00,1.11
9772.00,1.11
9770.00,1.11
9768.00,1.11
9766.00,1.11
9764.00,1.11
9762.00,1.11
9760.00,1.11
9758.00,1.11
9756.00,1.11
9754.00,1.11
9752.00,1.11
9750.00,1.11
9748.00,1.11
9746.00,1.11
9744.00,1.11
9742.00,1.11
9740.00,1.11
9738.00,1.11
9736.00,1.11
9734.00,1.11
9732.00,1.11
9730.00,1.11
9728.00,1.11
9726.00,1.11
9724.00,1.11
9722.00,1.11
9720.00,1.11
9718.00,1.11
9716.00,1.10
9714.00,1.10
9712.00,1.10
9710.00,1.10
9708.00,1.10
9706.00,1.10
9704.00,1.10
9702.00,1.10
9700.00,1.10
9698.00,1.10
9696.00,1.10
9694.00,1.10
9692.00,1.10
9690.00,1.10
9688.00,1.10
9686.00,1.10
9684.00,1.10
9682.00,1.10
9680.00,1.10
9678.00,1.10
9676.00,1.10
9674.00,1.10
9672.00,1.10
9670.00,1.10
9668.00,1.10
9666.00,1.10
9664.00,1.10
9662.00,1.10
9660.00,1.10
9658.00,1.10
9656.00,1.10
9654.00,1.10
9652.00,1.10
9650.00,1.10
9648.00,1.10
9646.00,1.10
9644.00,1.10
9642.00,1.10
9640.00,1.10
9638.00,1.10
9636.00,1.10
9634.00,1.10
9632.00,1.10
9630.00,1.10
9628.00,1.11
9626.00,1.11
9624.00,1.11
9622.00,1.11
9620.00,1.11
9618.00,1.11
9616.00,1.11
9614.00,1.11
9612.00,1.10
9610.00,1.10
9608.00,1.10
9606.00,1.10
9604.00,1.10
9602.00,1.10
9600.00,1.10
9598.00,1.10
9596.00,1.10
9594.00,1.09
9592.00,1.09
9590.00,1.09
9588.00,1.09
9586.00,1.09
9584.00,1.09
9582.00,1.10
9580.00,1.10
9578.00,1.10
9576.00,1.10
9574.00,1.10
9572.00,1.10
9570.00,1.11
9568.00,1.11
9566.00,1.11
9564.00,1.11
9562.00,1.11
9560.00,1.11
9558.00,1.11
9556.00,1.12
9554.00,1.12
9552.00,1.12
9550.00,1.12
9548.00,1.12
9546.00,1.12
9544.00,1.12
9542.00,1.12
9540.00,1.12
9538.00,1.12
9536.00,1.12
9534.00,1.12
9532.00,1.12
9530.00,1.12
9528.00,1.12
9526.00,1.12
9524.00,1.12
9522.00,1.11
9520.00,1.11
9518.00,1.11
9516.00,1.11
9514.00,1.11
9512.00,1.11
9510.00,1.11
9508.00,1.11
9506.00,1.11
9504.00,1.11
9502.00,1.11
9500.00,1.11
9498.00,1.11
9496.00,1.11
9494.00,1.11
9492.00,1.11
9490.00,1.11
9488.00,1.11
9486.00,1.11
9484.00,1.11
9482.00,1.11
9480.00,1.10
9478.00,1.10
9476.00,1.10
9474.00,1.10
9472.00,1.10
9470.00,1.10
9468.00,1.10
9466.00,1.10
9464.00,1.10
9462.00,1.10
9460.00,1.10
9458.00,1.10
9456.00,1.10
9454.00,1.10
9452.00,1.10
9450.00,1.10
9448.00,1.10
9446.00,1.11
9444.00,1.11
9442.00,1.11
9440.00,1.11
9438.00,1.11
9436.00,1.11
9434.00,1.11
9432.00,1.11
9430.00,1.11
9428.00,1.11
9426.00,1.11
9424.00,1.11
9422.00,1.11
9420.00,1.11
9418.00,1.11
9416.00,1.11
9414.00,1.11
9412.00,1.11
9410.00,1.11
9408.00,1.11
9406.00,1.11
9404.00,1.11
9402.00,1.11
9400.00,1.11
9398.00,1.11
9396.00,1.11
9394.00,1.12
9392.00,1.12
9390.00,1.12
9388.00,1.12
9386.00,1.12
9384.00,1.12
9382.00,1.12
9380.00,1.12
9378.00,1.12
9376.00,1.11
9374.00,1.11
9372.00,1.11
9370.00,1.11
9368.00,1.11
9366.00,1.11
9364.00,1.11
9362.00,1.11
9360.00,1.11
9358.00,1.11
9356.00,1.11
9354.00,1.11
9352.00,1.11
9350.00,1.11
9348.00,1.11
9346.00,1.11
9344.00,1.11
9342.00,1.11
9340.00,1.11
9338.00,1.11
9336.00,1.11
9334.00,1.11
9332.00,1.11
9330.00,1.11
9328.00,1.11
9326.00,1.11
9324.00,1.11
9322.00,1.11
9320.00,1.11
9318.00,1.11
9316.00,1.11
9314.00,1.11
9312.00,1.11
9310.00,1.11
9308.00,1.11
9306.00,1.10
9304.00,1.10
9302.00,1.10
9300.00,1.10
9298.00,1.10
9296.00,1.10
9294.00,1.10
9292.00,1.10
9290.00,1.10
9288.00,1.10
9286.00,1.10
9284.00,1.10
9282.00,1.10
9280.00,1.10
9278.00,1.10
9276.00,1.10
9274.00,1.10
9272.00,1.10
9270.00,1.10
9268.00,1.10
9266.00,1.10
9264.00,1.10
9262.00,1.10
9260.00,1.11
9258.00,1.11
9256.00,1.11
9254.00,1.11
9252.00,1.11
9250.00,1.11
9248.00,1.11
9246.00,1.11
9244.00,1.11
9242.00,1.11
9240.00,1.11
9238.00,1.11
9236.00,1.11
9234.00,1.11
9232.00,1.11
9230.00,1.11
9228.00,1.11
9226.00,1.11
9224.00,1.11
9222.00,1.11
9220.00,1.11
9218.00,1.11
9216.00,1.11
9214.00,1.11
9212.00,1.11
9210.00,1.11
9208.00,1.11
9206.00,1.11
9204.00,1.12
9202.00,1.12
9200.00,1.12
9198.00,1.12
9196.00,1.12
9194.00,1.12
9192.00,1.12
9190.00,1.12
9188.00,1.12
9186.00,1.12
9184.00,1.12
9182.00,1.12
9180.00,1.12
9178.00,1.12
9176.00,1.12
9174.00,1.12
9172.00,1.12
9170.00,1.12
9168.00,1.12
9166.00,1.12
9164.00,1.12
9162.00,1.12
9160.00,1.11
9158.00,1.11
9156.00,1.11
9154.00,1.11
9152.00,1.11
9150.00,1.11
9148.00,1.11
9146.00,1.11
9144.00,1.11
9142.00,1.11
9140.00,1.11
9138.00,1.11
9136.00,1.11
9134.00,1.11
9132.00,1.11
9130.00,1.11
9128.00,1.11
9126.00,1.11
9124.00,1.11
9122.00,1.11
9120.00,1.11
9118.00,1.11
9116.00,1.11
9114.00,1.11
9112.00,1.11
9110.00,1.11
9108.00,1.11
9106.00,1.11
9104.00,1.11
9102.00,1.10
9100.00,1.10
9098.00,1.10
9096.00,1.10
9094.00,1.10
9092.00,1.10
9090.00,1.10
9088.00,1.10
9086.00,1.10
9084.00,1.10
9082.00,1.10
9080.00,1.10
9078.00,1.10
9076.00,1.10
9074.00,1.10
9072.00,1.10
9070.00,1.10
9068.00,1.10
9066.00,1.10
9064.00,1.10
9062.00,1.10
9060.00,1.10
9058.00,1.10
9056.00,1.10
9054.00,1.10
9052.00,1.10
9050.00,1.10
9048.00,1.10
9046.00,1.10
9044.00,1.11
9042.00,1.11
9040.00,1.11
9038.00,1.11
9036.00,1.11
9034.00,1.11
9032.00,1.11
9030.00,1.12
9028.00,1.12
9026.00,1.12
9024.00,1.12
9022.00,1.12
9020.00,1.12
9018.00,1.12
9016.00,1.12
9014.00,1.12
9012.00,1.12
9010.00,1.12
9008.00,1.12
9006.00,1.12
9004.00,1.12
9002.00,1.12
9000.00,1.12
8998.00,1.12
8996.00,1.12
8994.00,1.11
8992.00,1.11
8990.00,1.11
8988.00,1.11
8986.00,1.11
8984.00,1.11
8982.00,1.11
8980.00,1.11
8978.00,1.11
8976.00,1.11
8974.00,1.11
8972.00,1.10
8970.00,1.10
8968.00,1.10
8966.00,1.10
8964.00,1.10
8962.00,1.10
8960.00,1.10
8958.00,1.10
8956.00,1.10
8954.00,1.10
8952.00,1.10
8950.00,1.10
8948.00,1.10
8946.00,1.10
8944.00,1.10
8942.00,1.10
8940.00,1.10
8938.00,1.10
8936.00,1.11
8934.00,1.11
8932.00,1.11
8930.00,1.11
8928.00,1.11
8926.00,1.11
8924.00,1.11
8922.00,1.11
8920.00,1.11
8918.00,1.11
8916.00,1.11
8914.00,1.11
8912.00,1.11
8910.00,1.11
8908.00,1.11
8906.00,1.11
8904.00,1.11
8902.00,1.11
8900.00,1.11
8898.00,1.10
8896.00,1.10
8894.00,1.10
8892.00,1.10
8890.00,1.10
8888.00,1.10
8886.00,1.10
8884.00,1.10
8882.00,1.10
8880.00,1.10
8878.00,1.10
8876.00,1.10
8874.00,1.10
8872.00,1.10
8870.00,1.10
8868.00,1.10
8866.00,1.10
8864.00,1.10
8862.00,1.10
8860.00,1.10
8858.00,1.10
8856.00,1.10
8854.00,1.10
8852.00,1.10
8850.00,1.10
8848.00,1.10
8846.00,1.10
8844.00,1.10
8842.00,1.10
8840.00,1.10
8838.00,1.10
8836.00,1.10
8834.00,1.10
8832.00,1.10
8830.00,1.10
8828.00,1.10
8826.00,1.10
8824.00,1.10
8822.00,1.10
8820.00,1.10
8818.00,1.10
8816.00,1.10
8814.00,1.10
8812.00,1.10
8810.00,1.10
8808.00,1.10
8806.00,1.10
8804.00,1.10
8802.00,1.10
8800.00,1.10
8798.00,1.10
8796.00,1.11
8794.00,1.11
8792.00,1.11
8790.00,1.11
8788.00,1.11
8786.00,1.11
8784.00,1.11
8782.00,1.11
8780.00,1.11
8778.00,1.11
8776.00,1.11
8774.00,1.11
8772.00,1.10
8770.00,1.10
8768.00,1.10
8766.00,1.10
8764.00,1.10
8762.00,1.10
8760.00,1.10
8758.00,1.10
8756.00,1.10
8754.00,1.10
8752.00,1.09
8750.00,1.09
8748.00,1.09
8746.00,1.09
8744.00,1.09
8742.00,1.09
8740.00,1.09
8738.00,1.09
8736.00,1.09
8734.00,1.09
8732.00,1.09
8730.00,1.09
8728.00,1.09
8726.00,1.09
8724.00,1.09
8722.00,1.10
8720.00,1.10
8718.00,1.10
8716.00,1.10
8714.00,1.10
8712.00,1.10
8710.00,1.10
8708.00,1.10
8706.00,1.10
8704.00,1.10
8702.00,1.10
8700.00,1.10
8698.00,1.10
8696.00,1.10
8694.00,1.10
8692.00,1.10
8690.00,1.10
8688.00,1.10
8686.00,1.10
8684.00,1.10
8682.00,1.10
8680.00,1.10
8678.00,1.10
8676.00,1.10
8674.00,1.10
8672.00,1.09
8670.00,1.09
8668.00,1.09
8666.00,1.09
8664.00,1.09
8662.00,1.09
8660.00,1.09
8658.00,1.09
8656.00,1.09
8654.00,1.09
8652.00,1.09
8650.00,1.09
8648.00,1.09
8646.00,1.09
8644.00,1.09
8642.00,1.09
8640.00,1.09
8638.00,1.09
8636.00,1.09
8634.00,1.09
8632.00,1.08
8630.00,1.08
8628.00,1.08
8626.00,1.08
8624.00,1.08
8622.00,1.08
8620.00,1.08
8618.00,1.08
8616.00,1.08
8614.00,1.08
8612.00,1.08
8610.00,1.09
8608.00,1.09
8606.00,1.09
8604.00,1.09
8602.00,1.09
8600.00,1.09
8598.00,1.09
8596.00,1.09
8594.00,1.09
8592.00,1.09
8590.00,1.09
8588.00,1.09
8586.00,1.09
8584.00,1.09
8582.00,1.09
8580.00,1.09
8578.00,1.09
8576.00,1.09
8574.00,1.09
8572.00,1.09
8570.00,1.09
8568.00,1.09
8566.00,1.09
8564.00,1.09
8562.00,1.09
8560.00,1.09
8558.00,1.09
8556.00,1.09
8554.00,1.09
8552.00,1.09
8550.00,1.09
8548.00,1.09
8546.00,1.09
8544.00,1.09
8542.00,1.09
8540.00,1.09
8538.00,1.09
8536.00,1.09
8534.00,1.09
8532.00,1.09
8530.00,1.09
8528.00,1.09
8526.00,1.09
8524.00,1.10
8522.00,1.10
8520.00,1.10
8518.00,1.10
8516.00,1.10
8514.00,1.10
8512.00,1.10
8510.00,1.10
8508.00,1.10
8506.00,1.10
8504.00,1.10
8502.00,1.10
8500.00,1.09
8498.00,1.09
8496.00,1.09
8494.00,1.09
8492.00,1.09
8490.00,1.09
8488.00,1.09
8486.00,1.09
8484.00,1.09
8482.00,1.09
8480.00,1.09
8478.00,1.09
8476.00,1.09
8474.00,1.09
8472.00,1.09
8470.00,1.09
8468.00,1.09
8466.00,1.09
8464.00,1.09
8462.00,1.09
8460.00,1.09
8458.00,1.09
8456.00,1.09
8454.00,1.09
8452.00,1.09
8450.00,1.09
8448.00,1.09
8446.00,1.09
8444.00,1.09
8442.00,1.09
8440.00,1.09
8438.00,1.09
8436.00,1.09
8434.00,1.09
8432.00,1.09
8430.00,1.09
8428.00,1.09
8426.00,1.09
8424.00,1.09
8422.00,1.09
8420.00,1.09
8418.00,1.09
8416.00,1.09
8414.00,1.09
8412.00,1.09
8410.00,1.09
8408.00,1.09
8406.00,1.09
8404.00,1.09
8402.00,1.09
8400.00,1.09
8398.00,1.09
8396.00,1.09
8394.00,1.09
8392.00,1.09
8390.00,1.09
8388.00,1.09
8386.00,1.09
8384.00,1.09
8382.00,1.10
8380.00,1.10
8378.00,1.10
8376.00,1.10
8374.00,1.10
8372.00,1.10
8370.00,1.10
8368.00,1.10
8366.00,1.10
8364.00,1.10
8362.00,1.10
8360.00,1.10
8358.00,1.10
8356.00,1.10
8354.00,1.10
8352.00,1.10
8350.00,1.10
8348.00,1.10
8346.00,1.10
8344.00,1.11
8342.00,1.11
8340.00,1.11
8338.00,1.11
8336.00,1.11
8334.00,1.11
8332.00,1.11
8330.00,1.11
8328.00,1.11
8326.00,1.11
8324.00,1.11
8322.00,1.11
8320.00,1.11
8318.00,1.11
8316.00,1.10
8314.00,1.10
8312.00,1.10
8310.00,1.10
8308.00,1.10
8306.00,1.10
8304.00,1.10
8302.00,1.10
8300.00,1.10
8298.00,1.10
8296.00,1.10
8294.00,1.10
8292.00,1.10
8290.00,1.10
8288.00,1.10
8286.00,1.10
8284.00,1.10
8282.00,1.10
8280.00,1.10
8278.00,1.10
8276.00,1.10
8274.00,1.10
8272.00,1.10
8270.00,1.10
8268.00,1.10
8266.00,1.10
8264.00,1.10
8262.00,1.10
8260.00,1.10
8258.00,1.10
8256.00,1.10
8254.00,1.10
8252.00,1.10
8250.00,1.10
8248.00,1.10
8246.00,1.10
8244.00,1.10
8242.00,1.10
8240.00,1.10
8238.00,1.10
8236.00,1.10
8234.00,1.10
8232.00,1.10
8230.00,1.10
8228.00,1.10
8226.00,1.10
8224.00,1.11
8222.00,1.11
8220.00,1.11
8218.00,1.11
8216.00,1.11
8214.00,1.11
8212.00,1.11
8210.00,1.11
8208.00,1.11
8206.00,1.11
8204.00,1.11
8202.00,1.11
8200.00,1.11
8198.00,1.11
8196.00,1.11
8194.00,1.11
8192.00,1.11
8190.00,1.11
8188.00,1.11
8186.00,1.11
8184.00,1.10
8182.00,1.10
8180.00,1.10
8178.00,1.10
8176.00,1.10
8174.00,1.10
8172.00,1.10
8170.00,1.10
8168.00,1.10
8166.00,1.10
8164.00,1.10
8162.00,1.10
8160.00,1.10
8158.00,1.10
8156.00,1.10
8154.00,1.10
8152.00,1.10
8150.00,1.10
8148.00,1.10
8146.00,1.10
8144.00,1.10
8142.00,1.10
8140.00,1.10
8138.00,1.10
8136.00,1.10
8134.00,1.10
8132.00,1.10
8130.00,1.10
8128.00,1.10
8126.00,1.10
8124.00,1.10
8122.00,1.10
8120.00,1.10
8118.00,1.11
8116.00,1.11
8114.00,1.11
8112.00,1.11
8110.00,1.11
8108.00,1.11
8106.00,1.11
8104.00,1.11
8102.00,1.11
8100.00,1.11
8098.00,1.11
8096.00,1.11
8094.00,1.11
8092.00,1.11
8090.00,1.11
8088.00,1.11
8086.00,1.11
8084.00,1.11
8082.00,1.11
8080.00,1.11
8078.00,1.11
8076.00,1.11
8074.00,1.11
8072.00,1.11
8070.00,1.11
8068.00,1.11
8066.00,1.11
8064.00,1.11
8062.00,1.11
8060.00,1.11
8058.00,1.11
8056.00,1.11
8054.00,1.11
8052.00,1.11
8050.00,1.11
8048.00,1.11
8046.00,1.11
8044.00,1.11
8042.00,1.11
8040.00,1.11
8038.00,1.11
8036.00,1.11
8034.00,1.11
8032.00,1.11
8030.00,1.11
8028.00,1.11
8026.00,1.11
8024.00,1.11
8022.00,1.11
8020.00,1.11
8018.00,1.11
8016.00,1.11
8014.00,1.11
8012.00,1.11
8010.00,1.11
8008.00,1.11
8006.00,1.11
8004.00,1.11
8002.00,1.11
8000.00,1.11
7998.00,1.11
7996.00,1.11
7994.00,1.11
7992.00,1.11
7990.00,1.11
7988.00,1.11
7986.00,1.11
7984.00,1.11
7982.00,1.11
7980.00,1.11
7978.00,1.11
7976.00,1.11
7974.00,1.11
7972.00,1.11
7970.00,1.11
7968.00,1.11
7966.00,1.11
7964.00,1.11
7962.00,1.11
7960.00,1.11
7958.00,1.11
7956.00,1.11
7954.00,1.11
7952.00,1.11
7950.00,1.11
7948.00,1.11
7946.00,1.12
7944.00,1.12
7942.00,1.12
7940.00,1.12
7938.00,1.12
7936.00,1.12
7934.00,1.12
7932.00,1.12
7930.00,1.12
7928.00,1.12
7926.00,1.12
7924.00,1.12
7922.00,1.12
7920.00,1.12
7918.00,1.12
7916.00,1.12
7914.00,1.12
7912.00,1.12
7910.00,1.12
7908.00,1.12
7906.00,1.12
7904.00,1.12
7902.00,1.12
7900.00,1.12
7898.00,1.12
7896.00,1.12
7894.00,1.12
7892.00,1.12
7890.00,1.12
7888.00,1.12
7886.00,1.12
7884.00,1.12
7882.00,1.12
7880.00,1.12
7878.00,1.12
7876.00,1.12
7874.00,1.12
7872.00,1.12
7870.00,1.12
7868.00,1.12
7866.00,1.12
7864.00,1.12
7862.00,1.12
7860.00,1.12
7858.00,1.12
7856.00,1.12
7854.00,1.12
7852.00,1.12
7850.00,1.12
7848.00,1.12
7846.00,1.12
7844.00,1.12
7842.00,1.12
7840.00,1.12
7838.00,1.12
7836.00,1.12
7834.00,1.12
7832.00,1.12
7830.00,1.12
7828.00,1.12
7826.00,1.12
7824.00,1.12
7822.00,1.12
7820.00,1.12
7818.00,1.12
7816.00,1.12
7814.00,1.12
7812.00,1.12
7810.00,1.12
7808.00,1.12
7806.00,1.12
7804.00,1.12
7802.00,1.12
7800.00,1.12
7798.00,1.12
7796.00,1.12
7794.00,1.12
7792.00,1.12
7790.00,1.12
7788.00,1.12
7786.00,1.12
7784.00,1.12
7782.00,1.12
7780.00,1.12
7778.00,1.12
7776.00,1.12
7774.00,1.12
7772.00,1.12
7770.00,1.12
7768.00,1.12
7766.00,1.12
7764.00,1.12
7762.00,1.12
7760.00,1.12
7758.00,1.12
7756.00,1.12
7754.00,1.12
7752.00,1.12
7750.00,1.12
7748.00,1.12
7746.00,1.12
7744.00,1.12
7742.00,1.12
7740.00,1.12
7738.00,1.12
7736.00,1.12
7734.00,1.12
7732.00,1.12
7730.00,1.12
7728.00,1.12
7726.00,1.12
7724.00,1.12
7722.00,1.12
7720.00,1.12
7718.00,1.12
7716.00,1.12
7714.00,1.12
7712.00,1.12
7710.00,1.12
7708.00,1.12
7706.00,1.12
7704.00,1.12
7702.00,1.12
7700.00,1.12
7698.00,1.12
7696.00,1.12
7694.00,1.12
7692.00,1.12
7690.00,1.12
7688.00,1.12
7686.00,1.12
7684.00,1.12
7682.00,1.12
7680.00,1.12
7678.00,1.12
7676.00,1.12
7674.00,1.12
7672.00,1.12
7670.00,1.12
7668.00,1.12
7666.00,1.12
7664.00,1.12
7662.00,1.12
7660.00,1.12
7658.00,1.12
7656.00,1.12
7654.00,1.12
7652.00,1.12
7650.00,1.12
7648.00,1.12
7646.00,1.12
7644.00,1.12
7642.00,1.12
7640.00,1.12
7638.00,1.12
7636.00,1.12
7634.00,1.12
7632.00,1.12
7630.00,1.12
7628.00,1.12
7626.00,1.12
7624.00,1.12
7622.00,1.12
7620.00,1.12
7618.00,1.12
7616.00,1.12
7614.00,1.12
7612.00,1.12
7610.00,1.12
7608.00,1.12
7606.00,1.12
7604.00,1.12
7602.00,1.12
7600.00,1.12
7598.00,1.12
7596.00,1.12
7594.00,1.12
7592.00,1.12
7590.00,1.12
7588.00,1.12
7586.00,1.12
7584.00,1.12
7582.00,1.12
7580.00,1.12
7578.00,1.12
7576.00,1.12
7574.00,1.12
7572.00,1.12
7570.00,1.12
7568.00,1.12
7566.00,1.12
7564.00,1.12
7562.00,1.12
7560.00,1.12
7558.00,1.12
7556.00,1.12
7554.00,1.12
7552.00,1.12
7550.00,1.12
7548.00,1.12
7546.00,1.12
7544.00,1.12
7542.00,1.12
7540.00,1.12
7538.00,1.12
7536.00,1.12
7534.00,1.12
7532.00,1.12
7530.00,1.12
7528.00,1.11
7526.00,1.11
7524.00,1.11
7522.00,1.11
7520.00,1.11
7518.00,1.11
7516.00,1.11
7514.00,1.11
7512.00,1.11
7510.00,1.11
7508.00,1.11
7506.00,1.11
7504.00,1.11
7502.00,1.11
7500.00,1.11
7498.00,1.11
7496.00,1.11
7494.00,1.11
7492.00,1.11
7490.00,1.11
7488.00,1.11
7486.00,1.11
7484.00,1.11
7482.00,1.11
7480.00,1.11
7478.00,1.11
7476.00,1.11
7474.00,1.11
7472.00,1.11
7470.00,1.11
7468.00,1.11
7466.00,1.11
7464.00,1.11
7462.00,1.11
7460.00,1.11
7458.00,1.11
7456.00,1.11
7454.00,1.11
7452.00,1.11
7450.00,1.11
7448.00,1.11
7446.00,1.11
7444.00,1.11
7442.00,1.11
7440.00,1.11
7438.00,1.11
7436.00,1.11
7434.00,1.11
7432.00,1.11
7430.00,1.11
7428.00,1.11
7426.00,1.11
7424.00,1.11
7422.00,1.11
7420.00,1.11
7418.00,1.11
7416.00,1.11
7414.00,1.11
7412.00,1.11
7410.00,1.11
7408.00,1.11
7406.00,1.10
7404.00,1.10
7402.00,1.10
7400.00,1.10
7398.00,1.10
7396.00,1.10
7394.00,1.10
7392.00,1.10
7390.00,1.10
7388.00,1.10
7386.00,1.10
7384.00,1.10
7382.00,1.10
7380.00,1.10
7378.00,1.10
7376.00,1.09
7374.00,1.09
7372.00,1.09
7370.00,1.09
7368.00,1.09
7366.00,1.09
7364.00,1.09
7362.00,1.09
7360.00,1.09
7358.00,1.09
7356.00,1.09
7354.00,1.09
7352.00,1.09
7350.00,1.09
7348.00,1.09
7346.00,1.09
7344.00,1.09
7342.00,1.09
7340.00,1.09
7338.00,1.09
7336.00,1.09
7334.00,1.09
7332.00,1.09
7330.00,1.09
7328.00,1.09
7326.00,1.09
7324.00,1.09
7322.00,1.09
7320.00,1.09
7318.00,1.09
7316.00,1.09
7314.00,1.09
7312.00,1.09
7310.00,1.09
7308.00,1.09
7306.00,1.09
7304.00,1.09
7302.00,1.09
7300.00,1.09
7298.00,1.09
7296.00,1.09
7294.00,1.09
7292.00,1.09
7290.00,1.09
7288.00,1.09
7286.00,1.08
7284.00,1.08
7282.00,1.08
7280.00,1.08
7278.00,1.08
7276.00,1.08
7274.00,1.08
7272.00,1.08
7270.00,1.08
7268.00,1.08
7266.00,1.08
7264.00,1.08
7262.00,1.07
7260.00,1.07
7258.00,1.07
7256.00,1.07
7254.00,1.07
7252.00,1.07
7250.00,1.07
7248.00,1.06
7246.00,1.06
7244.00,1.06
7242.00,1.06
7240.00,1.06
7238.00,1.05
7236.00,1.05
7234.00,1.05
7232.00,1.05
7230.00,1.05
7228.00,1.05
7226.00,1.04
7224.00,1.04
7222.00,1.04
7220.00,1.04
7218.00,1.04
7216.00,1.04
7214.00,1.04
7212.00,1.03
7210.00,1.03
7208.00,1.03
7206.00,1.03
7204.00,1.02
7202.00,1.02
7200.00,1.02
7198.00,1.02
7196.00,1.02
7194.00,1.01
7192.00,1.01
7190.00,1.01
7188.00,1.00
7186.00,1.00
7184.00,1.00
7182.00,1.00
7180.00,0.99
7178.00,0.99
7176.00,0.99
7174.00,0.99
7172.00,0.98
7170.00,0.98
7168.00,0.98
7166.00,0.97
7164.00,0.97
7162.00,0.97
7160.00,0.96
7158.00,0.96
7156.00,0.96
7154.00,0.95
7152.00,0.95
7150.00,0.95
7148.00,0.94
7146.00,0.94
7144.00,0.94
7142.00,0.93
7140.00,0.93
7138.00,0.93
7136.00,0.93
7134.00,0.92
7132.00,0.92
7130.00,0.92
7128.00,0.92
7126.00,0.91
7124.00,0.91
7122.00,0.91
7120.00,0.91
7118.00,0.90
7116.00,0.90
7114.00,0.90
7112.00,0.90
7110.00,0.90
7108.00,0.89
7106.00,0.89
7104.00,0.89
7102.00,0.89
7100.00,0.88
7098.00,0.88
7096.00,0.88
7094.00,0.88
7092.00,0.87
7090.00,0.87
7088.00,0.87
7086.00,0.87
7084.00,0.86
7082.00,0.86
7080.00,0.86
7078.00,0.86
7076.00,0.86
7074.00,0.85
7072.00,0.85
7070.00,0.85
7068.00,0.85
7066.00,0.85
7064.00,0.85
7062.00,0.84
7060.00,0.84
7058.00,0.84
7056.00,0.84
7054.00,0.84
7052.00,0.84
7050.00,0.84
7048.00,0.83
7046.00,0.83
7044.00,0.83
7042.00,0.83
7040.00,0.83
7038.00,0.83
7036.00,0.83
7034.00,0.83
7032.00,0.82
7030.00,0.82
7028.00,0.82
7026.00,0.82
7024.00,0.82
7022.00,0.82
7020.00,0.82
7018.00,0.81
7016.00,0.81
7014.00,0.81
7012.00,0.81
7010.00,0.81
7008.00,0.81
7006.00,0.81
7004.00,0.81
7002.00,0.81
7000.00,0.80
6998.00,0.80
6996.00,0.80
6994.00,0.80
6992.00,0.80
6990.00,0.80
6988.00,0.80
6986.00,0.80
6984.00,0.80
6982.00,0.80
6980.00,0.80
6978.00,0.80
6976.00,0.79
6974.00,0.79
6972.00,0.79
6970.00,0.79
6968.00,0.79
6966.00,0.79
6964.00,0.79
6962.00,0.79
6960.00,0.79
6958.00,0.79
6956.00,0.79
6954.00,0.79
6952.00,0.79
6950.00,0.78
6948.00,0.78
6946.00,0.78
6944.00,0.78
6942.00,0.78
6940.00,0.78
6938.00,0.78
6936.00,0.78
6934.00,0.78
6932.00,0.78
6930.00,0.78
6928.00,0.78
6926.00,0.78
6924.00,0.78
6922.00,0.78
6920.00,0.78
6918.00,0.78
6916.00,0.78
6914.00,0.78
6912.00,0.78
6910.00,0.78
6908.00,0.78
6906.00,0.78
6904.00,0.78
6902.00,0.78
6900.00,0.78
6898.00,0.78
6896.00,0.78
6894.00,0.78
6892.00,0.78
6890.00,0.78
6888.00,0.78
6886.00,0.78
6884.00,0.78
6882.00,0.78
6880.00,0.78
6878.00,0.78
6876.00,0.78
6874.00,0.78
6872.00,0.78
6870.00,0.78
6868.00,0.78
6866.00,0.78
6864.00,0.78
6862.00,0.78
6860.00,0.78
6858.00,0.78
6856.00,0.78
6854.00,0.78
6852.00,0.78
6850.00,0.78
6848.00,0.78
6846.00,0.78
6844.00,0.78
6842.00,0.78
6840.00,0.78
6838.00,0.78
6836.00,0.78
6834.00,0.78
6832.00,0.78
6830.00,0.78
6828.00,0.78
6826.00,0.78
6824.00,0.78
6822.00,0.78
6820.00,0.78
6818.00,0.78
6816.00,0.78
6814.00,0.79
6812.00,0.79
6810.00,0.79
6808.00,0.79
6806.00,0.79
6804.00,0.79
6802.00,0.79
6800.00,0.79
6798.00,0.79
6796.00,0.79
6794.00,0.79
6792.00,0.79
6790.00,0.79
6788.00,0.79
6786.00,0.80
6784.00,0.80
6782.00,0.80
6780.00,0.80
6778.00,0.80
6776.00,0.80
6774.00,0.80
6772.00,0.80
6770.00,0.81
6768.00,0.81
6766.00,0.81
6764.00,0.81
6762.00,0.81
6760.00,0.81
6758.00,0.82
6756.00,0.82
6754.00,0.82
6752.00,0.82
6750.00,0.82
6748.00,0.82
6746.00,0.83
6744.00,0.83
6742.00,0.83
6740.00,0.83
6738.00,0.83
6736.00,0.83
6734.00,0.83
6732.00,0.84
6730.00,0.84
6728.00,0.84
6726.00,0.84
6724.00,0.84
6722.00,0.84
6720.00,0.84
6718.00,0.84
6716.00,0.85
6714.00,0.85
6712.00,0.85
6710.00,0.85
6708.00,0.85
6706.00,0.85
6704.00,0.85
6702.00,0.85
6700.00,0.85
6698.00,0.85
6696.00,0.85
6694.00,0.86
6692.00,0.86
6690.00,0.86
6688.00,0.86
6686.00,0.86
6684.00,0.86
6682.00,0.86
6680.00,0.86
6678.00,0.87
6676.00,0.87
6674.00,0.87
6672.00,0.87
6670.00,0.87
6668.00,0.87
6666.00,0.87
6664.00,0.88
6662.00,0.88
6660.00,0.88
6658.00,0.88
6656.00,0.88
6654.00,0.88
6652.00,0.89
6650.00,0.89
6648.00,0.89
6646.00,0.89
6644.00,0.89
6642.00,0.89
6640.00,0.89
6638.00,0.90
6636.00,0.90
6634.00,0.90
6632.00,0.90
6630.00,0.90
6628.00,0.90
6626.00,0.90
6624.00,0.90
6622.00,0.90
6620.00,0.90
6618.00,0.91
6616.00,0.91
6614.00,0.91
6612.00,0.91
6610.00,0.91
6608.00,0.91
6606.00,0.91
6604.00,0.91
6602.00,0.91
6600.00,0.92
6598.00,0.92
6596.00,0.92
6594.00,0.92
6592.00,0.92
6590.00,0.92
6588.00,0.92
6586.00,0.92
6584.00,0.93
6582.00,0.93
6580.00,0.93
6578.00,0.93
6576.00,0.93
6574.00,0.93
6572.00,0.93
6570.00,0.93
6568.00,0.94
6566.00,0.94
6564.00,0.94
6562.00,0.94
6560.00,0.94
6558.00,0.94
6556.00,0.94
6554.00,0.94
6552.00,0.94
6550.00,0.94
6548.00,0.95
6546.00,0.95
6544.00,0.95
6542.00,0.95
6540.00,0.95
6538.00,0.95
6536.00,0.95
6534.00,0.95
6532.00,0.95
6530.00,0.95
6528.00,0.96
6526.00,0.96
6524.00,0.96
6522.00,0.96
6520.00,0.96
6518.00,0.96
6516.00,0.96
6514.00,0.96
6512.00,0.96
6510.00,0.97
6508.00,0.97
6506.00,0.97
6504.00,0.97
6502.00,0.97
6500.00,0.97
6498.00,0.97
6496.00,0.97
6494.00,0.97
6492.00,0.97
6490.00,0.98
6488.00,0.98
6486.00,0.98
6484.00,0.98
6482.00,0.98
6480.00,0.98
6478.00,0.98
6476.00,0.98
6474.00,0.98
6472.00,0.98
6470.00,0.98
6468.00,0.98
6466.00,0.99
6464.00,0.99
6462.00,0.99
6460.00,0.99
6458.00,0.99
6456.00,0.99
6454.00,0.99
6452.00,0.99
6450.00,0.99
6448.00,1.00
6446.00,1.00
6444.00,1.00
6442.00,1.00
6440.00,1.00
6438.00,1.00
6436.00,1.00
6434.00,1.00
6432.00,1.00
6430.00,1.00
6428.00,1.00
6426.00,1.00
6424.00,1.00
6422.00,1.01
6420.00,1.01
6418.00,1.01
6416.00,1.01
6414.00,1.01
6412.00,1.01
6410.00,1.01
6408.00,1.01
6406.00,1.01
6404.00,1.01
6402.00,1.01
6400.00,1.01
6398.00,1.01
6396.00,1.01
6394.00,1.01
6392.00,1.01
6390.00,1.01
6388.00,1.01
6386.00,1.01
6384.00,1.02
6382.00,1.02
6380.00,1.02
6378.00,1.02
6376.00,1.02
6374.00,1.02
6372.00,1.02
6370.00,1.02
6368.00,1.02
6366.00,1.02
6364.00,1.02
6362.00,1.02
6360.00,1.03
6358.00,1.03
6356.00,1.03
6354.00,1.03
6352.00,1.03
6350.00,1.03
6348.00,1.03
6346.00,1.03
6344.00,1.03
6342.00,1.03
6340.00,1.03
6338.00,1.03
6336.00,1.04
6334.00,1.04
6332.00,1.04
6330.00,1.04
6328.00,1.04
6326.00,1.04
6324.00,1.04
6322.00,1.04
6320.00,1.04
6318.00,1.04
6316.00,1.04
6314.00,1.04
6312.00,1.04
6310.00,1.04
6308.00,1.05
6306.00,1.05
6304.00,1.05
6302.00,1.05
6300.00,1.05
6298.00,1.05
6296.00,1.05
6294.00,1.05
6292.00,1.05
6290.00,1.05
6288.00,1.05
6286.00,1.05
6284.00,1.05
6282.00,1.05
6280.00,1.06
6278.00,1.06
6276.00,1.06
6274.00,1.06
6272.00,1.06
6270.00,1.06
6268.00,1.06
6266.00,1.06
6264.00,1.06
6262.00,1.06
6260.00,1.06
6258.00,1.06
6256.00,1.06
6254.00,1.06
6252.00,1.06
6250.00,1.06
6248.00,1.07
6246.00,1.07
6244.00,1.07
6242.00,1.07
6240.00,1.07
6238.00,1.07
6236.00,1.07
6234.00,1.07
6232.00,1.07
6230.00,1.07
6228.00,1.07
6226.00,1.07
6224.00,1.07
6222.00,1.07
6220.00,1.07
6218.00,1.07
6216.00,1.08
6214.00,1.08
6212.00,1.08
6210.00,1.08
6208.00,1.08
6206.00,1.08
6204.00,1.08
6202.00,1.08
6200.00,1.08
6198.00,1.08
6196.00,1.08
6194.00,1.08
6192.00,1.09
6190.00,1.09
6188.00,1.09
6186.00,1.09
6184.00,1.09
6182.00,1.09
6180.00,1.09
6178.00,1.09
6176.00,1.09
6174.00,1.09
6172.00,1.09
6170.00,1.09
6168.00,1.10
6166.00,1.10
6164.00,1.10
6162.00,1.10
6160.00,1.10
6158.00,1.10
6156.00,1.10
6154.00,1.10
6152.00,1.10
6150.00,1.10
6148.00,1.10
6146.00,1.10
6144.00,1.10
6142.00,1.10
6140.00,1.10
6138.00,1.10
6136.00,1.10
6134.00,1.10
6132.00,1.10
6130.00,1.10
6128.00,1.10
6126.00,1.10
6124.00,1.11
6122.00,1.11
6120.00,1.11
6118.00,1.11
6116.00,1.11
6114.00,1.11
6112.00,1.11
6110.00,1.11
6108.00,1.11
6106.00,1.11
6104.00,1.11
6102.00,1.11
6100.00,1.11
6098.00,1.11
6096.00,1.11
6094.00,1.11
6092.00,1.11
6090.00,1.12
6088.00,1.12
6086.00,1.12
6084.00,1.12
6082.00,1.12
6080.00,1.12
6078.00,1.12
6076.00,1.12
6074.00,1.12
6072.00,1.12
6070.00,1.12
6068.00,1.12
6066.00,1.12
6064.00,1.12
6062.00,1.12
6060.00,1.12
6058.00,1.12
6056.00,1.12
6054.00,1.12
6052.00,1.12
6050.00,1.12
6048.00,1.12
6046.00,1.12
6044.00,1.12
6042.00,1.12
6040.00,1.12
6038.00,1.12
6036.00,1.12
6034.00,1.12
6032.00,1.12
6030.00,1.12
6028.00,1.12
6026.00,1.12
6024.00,1.12
6022.00,1.12
6020.00,1.13
6018.00,1.13
6016.00,1.13
6014.00,1.13
6012.00,1.13
6010.00,1.13
6008.00,1.13
6006.00,1.13
6004.00,1.13
6002.00,1.13
6000.00,1.13
5998.00,1.13
5996.00,1.13
5994.00,1.13
5992.00,1.12
5990.00,1.12
5988.00,1.12
5986.00,1.12
5984.00,1.12
5982.00,1.12
5980.00,1.12
5978.00,1.12
5976.00,1.12
5974.00,1.12
5972.00,1.12
5970.00,1.12
5968.00,1.11
5966.00,1.11
5964.00,1.11
5962.00,1.11
5960.00,1.11
5958.00,1.11
5956.00,1.11
5954.00,1.11
5952.00,1.10
5950.00,1.10
5948.00,1.10
5946.00,1.10
5944.00,1.10
5942.00,1.10
5940.00,1.10
5938.00,1.10
5936.00,1.10
5934.00,1.10
5932.00,1.10
5930.00,1.10
5928.00,1.10
5926.00,1.09
5924.00,1.09
5922.00,1.09
5920.00,1.09
5918.00,1.09
5916.00,1.09
5914.00,1.09
5912.00,1.09
5910.00,1.09
5908.00,1.09
5906.00,1.10
5904.00,1.10
5902.00,1.10
5900.00,1.10
5898.00,1.10
5896.00,1.10
5894.00,1.10
5892.00,1.10
5890.00,1.10
5888.00,1.10
5886.00,1.10
5884.00,1.10
5882.00,1.10
5880.00,1.10
5878.00,1.11
5876.00,1.11
5874.00,1.11
5872.00,1.11
5870.00,1.11
5868.00,1.11
5866.00,1.11
5864.00,1.11
5862.00,1.11
5860.00,1.11
5858.00,1.11
5856.00,1.11
5854.00,1.11
5852.00,1.11
5850.00,1.11
5848.00,1.11
5846.00,1.11
5844.00,1.11
5842.00,1.11
5840.00,1.11
5838.00,1.11
5836.00,1.11
5834.00,1.11
5832.00,1.11
5830.00,1.11
5828.00,1.11
5826.00,1.11
5824.00,1.11
5822.00,1.11
5820.00,1.11
5818.00,1.11
5816.00,1.11
5814.00,1.11
5812.00,1.11
5810.00,1.11
5808.00,1.11
5806.00,1.11
5804.00,1.11
5802.00,1.11
5800.00,1.11
5798.00,1.11
5796.00,1.10
5794.00,1.10
5792.00,1.10
5790.00,1.10
5788.00,1.10
5786.00,1.10
5784.00,1.10
5782.00,1.10
5780.00,1.10
5778.00,1.10
5776.00,1.10
5774.00,1.10
5772.00,1.10
5770.00,1.10
5768.00,1.10
5766.00,1.10
5764.00,1.10
5762.00,1.10
5760.00,1.10
5758.00,1.10
5756.00,1.10
5754.00,1.10
5752.00,1.10
5750.00,1.11
5748.00,1.11
5746.00,1.11
5744.00,1.11
5742.00,1.11
5740.00,1.11
5738.00,1.11
5736.00,1.11
5734.00,1.11
5732.00,1.11
5730.00,1.11
5728.00,1.11
5726.00,1.11
5724.00,1.11
5722.00,1.11
5720.00,1.11
5718.00,1.11
5716.00,1.11
5714.00,1.11
5712.00,1.10
5710.00,1.10
5708.00,1.10
5706.00,1.10
5704.00,1.10
5702.00,1.10
5700.00,1.10
5698.00,1.10
5696.00,1.10
5694.00,1.10
5692.00,1.10
5690.00,1.10
5688.00,1.10
5686.00,1.10
5684.00,1.10
5682.00,1.10
5680.00,1.10
5678.00,1.10
5676.00,1.10
5674.00,1.10
5672.00,1.10
5670.00,1.10
5668.00,1.09
5666.00,1.09
5664.00,1.09
5662.00,1.09
5660.00,1.09
5658.00,1.09
5656.00,1.09
5654.00,1.09
5652.00,1.09
5650.00,1.09
5648.00,1.10
5646.00,1.10
5644.00,1.10
5642.00,1.10
5640.00,1.10
5638.00,1.10
5636.00,1.10
5634.00,1.10
5632.00,1.10
5630.00,1.10
5628.00,1.10
5626.00,1.10
5624.00,1.10
5622.00,1.10
5620.00,1.10
5618.00,1.10
5616.00,1.10
5614.00,1.10
5612.00,1.10
5610.00,1.10
5608.00,1.10
5606.00,1.10
5604.00,1.10
5602.00,1.10
5600.00,1.11
5598.00,1.11
5596.00,1.11
5594.00,1.11
5592.00,1.11
5590.00,1.11
5588.00,1.11
5586.00,1.11
5584.00,1.11
5582.00,1.11
5580.00,1.11
5578.00,1.11
5576.00,1.11
5574.00,1.11
5572.00,1.11
5570.00,1.11
5568.00,1.11
5566.00,1.11
5564.00,1.11
5562.00,1.11
5560.00,1.11
5558.00,1.11
5556.00,1.11
5554.00,1.11
5552.00,1.11
5550.00,1.11
5548.00,1.11
5546.00,1.11
5544.00,1.11
5542.00,1.11
5540.00,1.11
5538.00,1.11
5536.00,1.11
5534.00,1.11
5532.00,1.12
5530.00,1.12
5528.00,1.12
5526.00,1.12
5524.00,1.12
5522.00,1.12
5520.00,1.12
5518.00,1.12
5516.00,1.12
5514.00,1.12
5512.00,1.12
5510.00,1.12
5508.00,1.12
5506.00,1.12
5504.00,1.12
5502.00,1.12
5500.00,1.12
5498.00,1.12
5496.00,1.12
5494.00,1.12
5492.00,1.12
5490.00,1.12
5488.00,1.12
5486.00,1.12
5484.00,1.12
5482.00,1.12
5480.00,1.13
5478.00,1.13
5476.00,1.13
5474.00,1.13
5472.00,1.13
5470.00,1.13
5468.00,1.13
5466.00,1.13
5464.00,1.13
5462.00,1.13
5460.00,1.13
5458.00,1.13
5456.00,1.13
5454.00,1.13
5452.00,1.13
5450.00,1.13
5448.00,1.13
5446.00,1.13
5444.00,1.13
5442.00,1.13
5440.00,1.13
5438.00,1.13
5436.00,1.13
5434.00,1.13
5432.00,1.13
5430.00,1.13
5428.00,1.13
5426.00,1.13
5424.00,1.13
5422.00,1.13
5420.00,1.13
5418.00,1.13
5416.00,1.13
5414.00,1.13
5412.00,1.13
5410.00,1.12
5408.00,1.12
5406.00,1.12
5404.00,1.12
5402.00,1.12
5400.00,1.12
5398.00,1.12
5396.00,1.12
5394.00,1.12
5392.00,1.12
5390.00,1.11
5388.00,1.11
5386.00,1.11
5384.00,1.11
5382.00,1.11
5380.00,1.10
5378.00,1.10
5376.00,1.10
5374.00,1.09
5372.00,1.09
5370.00,1.09
5368.00,1.08
5366.00,1.08
5364.00,1.07
5362.00,1.07
5360.00,1.06
5358.00,1.06
5356.00,1.05
5354.00,1.04
5352.00,1.04
5350.00,1.03
5348.00,1.02
5346.00,1.02
5344.00,1.01
5342.00,1.00
5340.00,0.99
5338.00,0.98
5336.00,0.97
5334.00,0.97
5332.00,0.96
5330.00,0.95
5328.00,0.94
5326.00,0.93
5324.00,0.92
5322.00,0.91
5320.00,0.89
5318.00,0.88
5316.00,0.87
5314.00,0.86
5312.00,0.85
5310.00,0.84
5308.00,0.82
5306.00,0.81
5304.00,0.80
5302.00,0.79
5300.00,0.77
5298.00,0.76
5296.00,0.75
5294.00,0.74
5292.00,0.72
5290.00,0.71
5288.00,0.70
5286.00,0.69
5284.00,0.68
5282.00,0.67
5280.00,0.66
5278.00,0.65
5276.00,0.64
5274.00,0.63
5272.00,0.62
5270.00,0.61
5268.00,0.60
5266.00,0.60
5264.00,0.59
5262.00,0.58
5260.00,0.58
5258.00,0.57
5256.00,0.56
5254.00,0.56
5252.00,0.55
5250.00,0.55
5248.00,0.54
5246.00,0.54
5244.00,0.54
5242.00,0.53
5240.00,0.53
5238.00,0.52
5236.00,0.52
5234.00,0.52
5232.00,0.51
5230.00,0.51
5228.00,0.51
5226.00,0.51
5224.00,0.50
5222.00,0.50
5220.00,0.50
5218.00,0.50
5216.00,0.50
5214.00,0.49
5212.00,0.49
5210.00,0.49
5208.00,0.49
5206.00,0.49
5204.00,0.49
5202.00,0.49
5200.00,0.48
5198.00,0.48
5196.00,0.48
5194.00,0.48
5192.00,0.48
5190.00,0.48
5188.00,0.48
5186.00,0.48
5184.00,0.48
5182.00,0.48
5180.00,0.48
5178.00,0.48
5176.00,0.48
5174.00,0.48
5172.00,0.48
5170.00,0.48
5168.00,0.48
5166.00,0.48
5164.00,0.48
5162.00,0.48
5160.00,0.48
5158.00,0.49
5156.00,0.49
5154.00,0.49
5152.00,0.49
5150.00,0.49
5148.00,0.49
5146.00,0.49
5144.00,0.49
5142.00,0.50
5140.00,0.50
5138.00,0.50
5136.00,0.50
5134.00,0.50
5132.00,0.50
5130.00,0.50
5128.00,0.51
5126.00,0.51
5124.00,0.51
5122.00,0.51
5120.00,0.51
5118.00,0.51
5116.00,0.52
5114.00,0.52
5112.00,0.52
5110.00,0.52
5108.00,0.52
5106.00,0.53
5104.00,0.53
5102.00,0.53
5100.00,0.53
5098.00,0.53
5096.00,0.54
5094.00,0.54
5092.00,0.54
5090.00,0.54
5088.00,0.55
5086.00,0.55
5084.00,0.55
5082.00,0.56
5080.00,0.56
5078.00,0.56
5076.00,0.56
5074.00,0.57
5072.00,0.57
5070.00,0.57
5068.00,0.58
5066.00,0.58
5064.00,0.58
5062.00,0.58
5060.00,0.59
5058.00,0.59
5056.00,0.59
5054.00,0.60
5052.00,0.60
5050.00,0.60
5048.00,0.61
5046.00,0.61
5044.00,0.61
5042.00,0.61
5040.00,0.62
5038.00,0.62
5036.00,0.62
5034.00,0.63
5032.00,0.63
5030.00,0.63
5028.00,0.64
5026.00,0.64
5024.00,0.64
5022.00,0.64
5020.00,0.65
5018.00,0.65
5016.00,0.65
5014.00,0.66
5012.00,0.66
5010.00,0.66
5008.00,0.67
5006.00,0.67
5004.00,0.67
5002.00,0.68
5000.00,0.68
4998.00,0.68
4996.00,0.68
4994.00,0.69
4992.00,0.69
4990.00,0.69
4988.00,0.70
4986.00,0.70
4984.00,0.70
4982.00,0.71
4980.00,0.71
4978.00,0.71
4976.00,0.72
4974.00,0.72
4972.00,0.72
4970.00,0.72
4968.00,0.73
4966.00,0.73
4964.00,0.73
4962.00,0.74
4960.00,0.74
4958.00,0.74
4956.00,0.75
4954.00,0.75
4952.00,0.75
4950.00,0.75
4948.00,0.76
4946.00,0.76
4944.00,0.76
4942.00,0.77
4940.00,0.77
4938.00,0.77
4936.00,0.77
4934.00,0.78
4932.00,0.78
4930.00,0.78
4928.00,0.79
4926.00,0.79
4924.00,0.79
4922.00,0.79
4920.00,0.80
4918.00,0.80
4916.00,0.80
4914.00,0.80
4912.00,0.81
4910.00,0.81
4908.00,0.81
4906.00,0.81
4904.00,0.82
4902.00,0.82
4900.00,0.82
4898.00,0.82
4896.00,0.83
4894.00,0.83
4892.00,0.83
4890.00,0.83
4888.00,0.83
4886.00,0.84
4884.00,0.84
4882.00,0.84
4880.00,0.84
4878.00,0.84
4876.00,0.85
4874.00,0.85
4872.00,0.85
4870.00,0.85
4868.00,0.86
4866.00,0.86
4864.00,0.86
4862.00,0.86
4860.00,0.87
4858.00,0.87
4856.00,0.87
4854.00,0.87
4852.00,0.88
4850.00,0.88
4848.00,0.88
4846.00,0.88
4844.00,0.89
4842.00,0.89
4840.00,0.89
4838.00,0.89
4836.00,0.90
4834.00,0.90
4832.00,0.90
4830.00,0.90
4828.00,0.91
4826.00,0.91
4824.00,0.91
4822.00,0.92
4820.00,0.92
4818.00,0.92
4816.00,0.92
4814.00,0.93
4812.00,0.93
4810.00,0.93
4808.00,0.93
4806.00,0.94
4804.00,0.94
4802.00,0.94
4800.00,0.94
4798.00,0.95
4796.00,0.95
4794.00,0.95
4792.00,0.96
4790.00,0.96
4788.00,0.96
4786.00,0.96
4784.00,0.97
4782.00,0.97
4780.00,0.97
4778.00,0.98
4776.00,0.98
4774.00,0.98
4772.00,0.98
4770.00,0.99
4768.00,0.99
4766.00,0.99
4764.00,0.99
4762.00,1.00
4760.00,1.00
4758.00,1.00
4756.00,1.01
4754.00,1.01
4752.00,1.01
4750.00,1.01
4748.00,1.02
4746.00,1.02
4744.00,1.02
4742.00,1.02
4740.00,1.03
4738.00,1.03
4736.00,1.03
4734.00,1.03
4732.00,1.04
4730.00,1.04
4728.00,1.04
4726.00,1.05
4724.00,1.05
4722.00,1.05
4720.00,1.05
4718.00,1.06
4716.00,1.06
4714.00,1.06
4712.00,1.06
4710.00,1.07
4708.00,1.07
4706.00,1.07
4704.00,1.07
4702.00,1.08
4700.00,1.08
4698.00,1.08
4696.00,1.08
4694.00,1.09
4692.00,1.09
4690.00,1.09
4688.00,1.09
4686.00,1.10
4684.00,1.10
4682.00,1.10
4680.00,1.10
4678.00,1.10
4676.00,1.10
4674.00,1.11
4672.00,1.11
4670.00,1.11
4668.00,1.11
4666.00,1.11
4664.00,1.11
4662.00,1.11
4660.00,1.11
4658.00,1.11
4656.00,1.12
4654.00,1.12
4652.00,1.12
4650.00,1.12
4648.00,1.12
4646.00,1.12
4644.00,1.12
4642.00,1.12
4640.00,1.12
4638.00,1.12
4636.00,1.12
4634.00,1.12
4632.00,1.12
4630.00,1.12
4628.00,1.12
4626.00,1.12
4624.00,1.12
4622.00,1.12
4620.00,1.12
4618.00,1.12
4616.00,1.12
4614.00,1.12
4612.00,1.13
4610.00,1.13
4608.00,1.13
4606.00,1.13
4604.00,1.13
4602.00,1.13
4600.00,1.12
4598.00,1.12
4596.00,1.12
4594.00,1.12
4592.00,1.12
4590.00,1.12
4588.00,1.12
4586.00,1.12
4584.00,1.12
4582.00,1.12
4580.00,1.12
4578.00,1.12
4576.00,1.12
4574.00,1.12
4572.00,1.12
4570.00,1.12
4568.00,1.12
4566.00,1.12
4564.00,1.12
4562.00,1.12
4560.00,1.12
4558.00,1.12
4556.00,1.12
4554.00,1.12
4552.00,1.12
4550.00,1.12
4548.00,1.12
4546.00,1.12
4544.00,1.12
4542.00,1.12
4540.00,1.12
4538.00,1.12
4536.00,1.12
4534.00,1.12
4532.00,1.12
4530.00,1.12
4528.00,1.12
4526.00,1.12
4524.00,1.12
4522.00,1.13
4520.00,1.13
4518.00,1.13
4516.00,1.13
4514.00,1.13
4512.00,1.13
4510.00,1.13
4508.00,1.13
4506.00,1.13
4504.00,1.13
4502.00,1.13
4500.00,1.13
4498.00,1.13
4496.00,1.13
4494.00,1.13
4492.00,1.13
4490.00,1.13
4488.00,1.13
4486.00,1.13
4484.00,1.13
4482.00,1.13
4480.00,1.13
4478.00,1.12
4476.00,1.12
4474.00,1.12
4472.00,1.12
4470.00,1.12
4468.00,1.12
4466.00,1.12
4464.00,1.11
4462.00,1.11
4460.00,1.11
4458.00,1.10
4456.00,1.10
4454.00,1.09
4452.00,1.09
4450.00,1.08
4448.00,1.08
4446.00,1.07
4444.00,1.07
4442.00,1.06
4440.00,1.05
4438.00,1.05
4436.00,1.04
4434.00,1.03
4432.00,1.03
4430.00,1.02
4428.00,1.02
4426.00,1.01
4424.00,1.01
4422.00,1.00
4420.00,1.00
4418.00,0.99
4416.00,0.99
4414.00,0.99
4412.00,0.99
4410.00,0.99
4408.00,0.99
4406.00,0.99
4404.00,1.00
4402.00,1.00
4400.00,1.00
4398.00,1.00
4396.00,1.01
4394.00,1.01
4392.00,1.02
4390.00,1.02
4388.00,1.02
4386.00,1.03
4384.00,1.03
4382.00,1.03
4380.00,1.04
4378.00,1.04
4376.00,1.04
4374.00,1.04
4372.00,1.04
4370.00,1.04
4368.00,1.04
4366.00,1.04
4364.00,1.04
4362.00,1.04
4360.00,1.03
4358.00,1.03
4356.00,1.03
4354.00,1.03
4352.00,1.03
4350.00,1.03
4348.00,1.02
4346.00,1.02
4344.00,1.02
4342.00,1.03
4340.00,1.03
4338.00,1.03
4336.00,1.03
4334.00,1.03
4332.00,1.04
4330.00,1.04
4328.00,1.04
4326.00,1.05
4324.00,1.05
4322.00,1.06
4320.00,1.06
4318.00,1.07
4316.00,1.07
4314.00,1.08
4312.00,1.08
4310.00,1.09
4308.00,1.09
4306.00,1.10
4304.00,1.10
4302.00,1.10
4300.00,1.11
4298.00,1.11
4296.00,1.11
4294.00,1.11
4292.00,1.12
4290.00,1.12
4288.00,1.12
4286.00,1.12
4284.00,1.12
4282.00,1.12
4280.00,1.12
4278.00,1.12
4276.00,1.12
4274.00,1.12
4272.00,1.12
4270.00,1.11
4268.00,1.11
4266.00,1.11
4264.00,1.11
4262.00,1.11
4260.00,1.11
4258.00,1.11
4256.00,1.11
4254.00,1.11
4252.00,1.11
4250.00,1.11
4248.00,1.11
4246.00,1.11
4244.00,1.11
4242.00,1.11
4240.00,1.11
4238.00,1.12
4236.00,1.12
4234.00,1.12
4232.00,1.12
4230.00,1.12
4228.00,1.12
4226.00,1.12
4224.00,1.12
4222.00,1.12
4220.00,1.13
4218.00,1.13
4216.00,1.13
4214.00,1.13
4212.00,1.13
4210.00,1.13
4208.00,1.13
4206.00,1.13
4204.00,1.13
4202.00,1.13
4200.00,1.13
4198.00,1.13
4196.00,1.12
4194.00,1.12
4192.00,1.12
4190.00,1.12
4188.00,1.12
4186.00,1.12
4184.00,1.12
4182.00,1.12
4180.00,1.12
4178.00,1.12
4176.00,1.12
4174.00,1.12
4172.00,1.12
4170.00,1.12
4168.00,1.12
4166.00,1.12
4164.00,1.11
4162.00,1.11
4160.00,1.11
4158.00,1.11
4156.00,1.11
4154.00,1.11
4152.00,1.11
4150.00,1.11
4148.00,1.11
4146.00,1.11
4144.00,1.12
4142.00,1.12
4140.00,1.12
4138.00,1.12
4136.00,1.12
4134.00,1.12
4132.00,1.12
4130.00,1.12
4128.00,1.11
4126.00,1.11
4124.00,1.11
4122.00,1.11
4120.00,1.11
4118.00,1.11
4116.00,1.11
4114.00,1.11
4112.00,1.11
4110.00,1.11
4108.00,1.11
4106.00,1.10
4104.00,1.10
4102.00,1.10
4100.00,1.10
4098.00,1.10
4096.00,1.09
4094.00,1.09
4092.00,1.09
4090.00,1.09
4088.00,1.09
4086.00,1.09
4084.00,1.09
4082.00,1.08
4080.00,1.08
4078.00,1.08
4076.00,1.08
4074.00,1.08
4072.00,1.08
4070.00,1.08
4068.00,1.08
4066.00,1.08
4064.00,1.08
4062.00,1.08
4060.00,1.08
4058.00,1.08
4056.00,1.08
4054.00,1.08
4052.00,1.08
4050.00,1.08
4048.00,1.08
4046.00,1.08
4044.00,1.08
4042.00,1.08
4040.00,1.08
4038.00,1.08
4036.00,1.08
4034.00,1.08
4032.00,1.09
4030.00,1.09
4028.00,1.09
4026.00,1.09
4024.00,1.09
4022.00,1.09
4020.00,1.09
4018.00,1.10
4016.00,1.10
4014.00,1.10
4012.00,1.11
4010.00,1.11
4008.00,1.11
4006.00,1.12
4004.00,1.12
4002.00,1.13
4000.00,1.13
