创建为新数据集,样品 414 用户 Administrator 日期 星期日, 七月 28 2019
cm-1,%T
10000.00,3.75
9999.00,3.76
9998.00,3.78
9997.00,3.79
9996.00,3.81
9995.00,3.82
9994.00,3.83
9993.00,3.85
9992.00,3.86
9991.00,3.87
9990.00,3.87
9989.00,3.87
9988.00,3.87
9987.00,3.87
9986.00,3.86
9985.00,3.84
9984.00,3.83
9983.00,3.80
9982.00,3.78
9981.00,3.75
9980.00,3.72
9979.00,3.69
9978.00,3.66
9977.00,3.63
9976.00,3.60
9975.00,3.57
9974.00,3.54
9973.00,3.51
9972.00,3.48
9971.00,3.45
9970.00,3.41
9969.00,3.38
9968.00,3.35
9967.00,3.32
9966.00,3.29
9965.00,3.26
9964.00,3.23
9963.00,3.20
9962.00,3.18
9961.00,3.15
9960.00,3.13
9959.00,3.10
9958.00,3.08
9957.00,3.06
9956.00,3.04
9955.00,3.02
9954.00,3.00
9953.00,2.98
9952.00,2.97
9951.00,2.95
9950.00,2.94
9949.00,2.93
9948.00,2.92
9947.00,2.91
9946.00,2.90
9945.00,2.89
9944.00,2.89
9943.00,2.88
9942.00,2.88
9941.00,2.88
9940.00,2.87
9939.00,2.87
9938.00,2.88
9937.00,2.88
9936.00,2.88
9935.00,2.88
9934.00,2.89
9933.00,2.89
9932.00,2.90
9931.00,2.91
9930.00,2.92
9929.00,2.93
9928.00,2.94
9927.00,2.95
9926.00,2.96
9925.00,2.97
9924.00,2.98
9923.00,2.99
9922.00,3.00
9921.00,3.01
9920.00,3.01
9919.00,3.02
9918.00,3.03
9917.00,3.03
9916.00,3.04
9915.00,3.05
9914.00,3.06
9913.00,3.07
9912.00,3.07
9911.00,3.08
9910.00,3.09
9909.00,3.10
9908.00,3.10
9907.00,3.11
9906.00,3.12
9905.00,3.12
9904.00,3.13
9903.00,3.13
9902.00,3.14
9901.00,3.14
9900.00,3.14
9899.00,3.15
9898.00,3.15
9897.00,3.15
9896.00,3.16
9895.00,3.16
9894.00,3.16
9893.00,3.16
9892.00,3.17
9891.00,3.16
9890.00,3.16
9889.00,3.16
9888.00,3.16
9887.00,3.15
9886.00,3.14
9885.00,3.14
9884.00,3.13
9883.00,3.12
9882.00,3.12
9881.00,3.11
9880.00,3.11
9879.00,3.10
9878.00,3.09
9877.00,3.09
9876.00,3.08
9875.00,3.08
9874.00,3.07
9873.00,3.07
9872.00,3.06
9871.00,3.06
9870.00,3.05
9869.00,3.05
9868.00,3.05
9867.00,3.05
9866.00,3.05
9865.00,3.05
9864.00,3.05
9863.00,3.05
9862.00,3.06
9861.00,3.06
9860.00,3.07
9859.00,3.07
9858.00,3.08
9857.00,3.09
9856.00,3.09
9855.00,3.10
9854.00,3.11
9853.00,3.11
9852.00,3.12
9851.00,3.12
9850.00,3.13
9849.00,3.13
9848.00,3.14
9847.00,3.14
9846.00,3.14
9845.00,3.15
9844.00,3.15
9843.00,3.15
9842.00,3.15
9841.00,3.15
9840.00,3.15
9839.00,3.15
9838.00,3.15
9837.00,3.15
9836.00,3.15
9835.00,3.14
9834.00,3.14
9833.00,3.13
9832.00,3.12
9831.00,3.11
9830.00,3.09
9829.00,3.08
9828.00,3.07
9827.00,3.06
9826.00,3.05
9825.00,3.03
9824.00,3.02
9823.00,3.01
9822.00,3.00
9821.00,2.99
9820.00,2.98
9819.00,2.97
9818.00,2.96
9817.00,2.95
9816.00,2.93
9815.00,2.92
9814.00,2.91
9813.00,2.89
9812.00,2.88
9811.00,2.87
9810.00,2.86
9809.00,2.85
9808.00,2.84
9807.00,2.83
9806.00,2.83
9805.00,2.82
9804.00,2.82
9803.00,2.81
9802.00,2.81
9801.00,2.81
9800.00,2.80
9799.00,2.80
9798.00,2.80
9797.00,2.79
9796.00,2.79
9795.00,2.79
9794.00,2.78
9793.00,2.78
9792.00,2.78
9791.00,2.78
9790.00,2.79
9789.00,2.79
9788.00,2.80
9787.00,2.80
9786.00,2.81
9785.00,2.81
9784.00,2.82
9783.00,2.83
9782.00,2.84
9781.00,2.85
9780.00,2.86
9779.00,2.87
9778.00,2.88
9777.00,2.89
9776.00,2.90
9775.00,2.91
9774.00,2.92
9773.00,2.93
9772.00,2.94
9771.00,2.95
9770.00,2.95
9769.00,2.96
9768.00,2.97
9767.00,2.98
9766.00,2.98
9765.00,2.99
9764.00,2.99
9763.00,2.99
9762.00,3.00
9761.00,3.00
9760.00,3.00
9759.00,3.00
9758.00,2.99
9757.00,2.99
9756.00,2.99
9755.00,2.99
9754.00,2.98
9753.00,2.98
9752.00,2.97
9751.00,2.97
9750.00,2.96
9749.00,2.96
9748.00,2.96
9747.00,2.95
9746.00,2.95
9745.00,2.95
9744.00,2.94
9743.00,2.94
9742.00,2.94
9741.00,2.94
9740.00,2.93
9739.00,2.93
9738.00,2.93
9737.00,2.93
9736.00,2.93
9735.00,2.93
9734.00,2.93
9733.00,2.93
9732.00,2.93
9731.00,2.93
9730.00,2.93
9729.00,2.93
9728.00,2.93
9727.00,2.93
9726.00,2.93
9725.00,2.93
9724.00,2.93
9723.00,2.93
9722.00,2.93
9721.00,2.93
9720.00,2.92
9719.00,2.92
9718.00,2.92
9717.00,2.92
9716.00,2.92
9715.00,2.92
9714.00,2.93
9713.00,2.93
9712.00,2.93
9711.00,2.94
9710.00,2.94
9709.00,2.95
9708.00,2.96
9707.00,2.96
9706.00,2.97
9705.00,2.98
9704.00,2.99
9703.00,3.00
9702.00,3.00
9701.00,3.01
9700.00,3.02
9699.00,3.03
9698.00,3.04
9697.00,3.06
9696.00,3.07
9695.00,3.07
9694.00,3.08
9693.00,3.09
9692.00,3.10
9691.00,3.11
9690.00,3.12
9689.00,3.12
9688.00,3.13
9687.00,3.13
9686.00,3.13
9685.00,3.13
9684.00,3.13
9683.00,3.13
9682.00,3.13
9681.00,3.12
9680.00,3.12
9679.00,3.11
9678.00,3.11
9677.00,3.10
9676.00,3.10
9675.00,3.09
9674.00,3.08
9673.00,3.07
9672.00,3.06
9671.00,3.05
9670.00,3.05
9669.00,3.04
9668.00,3.03
9667.00,3.02
9666.00,3.01
9665.00,3.00
9664.00,2.99
9663.00,2.98
9662.00,2.97
9661.00,2.97
9660.00,2.96
9659.00,2.95
9658.00,2.95
9657.00,2.94
9656.00,2.93
9655.00,2.93
9654.00,2.92
9653.00,2.91
9652.00,2.91
9651.00,2.90
9650.00,2.89
9649.00,2.89
9648.00,2.88
9647.00,2.87
9646.00,2.87
9645.00,2.86
9644.00,2.86
9643.00,2.85
9642.00,2.85
9641.00,2.85
9640.00,2.84
9639.00,2.84
9638.00,2.84
9637.00,2.84
9636.00,2.84
9635.00,2.84
9634.00,2.83
9633.00,2.83
9632.00,2.83
9631.00,2.83
9630.00,2.83
9629.00,2.83
9628.00,2.83
9627.00,2.83
9626.00,2.83
9625.00,2.84
9624.00,2.84
9623.00,2.85
9622.00,2.85
9621.00,2.86
9620.00,2.87
9619.00,2.87
9618.00,2.87
9617.00,2.88
9616.00,2.88
9615.00,2.88
9614.00,2.88
9613.00,2.89
9612.00,2.89
9611.00,2.89
9610.00,2.89
9609.00,2.89
9608.00,2.90
9607.00,2.90
9606.00,2.90
9605.00,2.90
9604.00,2.90
9603.00,2.89
9602.00,2.89
9601.00,2.89
9600.00,2.88
9599.00,2.88
9598.00,2.87
9597.00,2.87
9596.00,2.86
9595.00,2.85
9594.00,2.85
9593.00,2.84
9592.00,2.84
9591.00,2.83
9590.00,2.82
9589.00,2.82
9588.00,2.81
9587.00,2.80
9586.00,2.79
9585.00,2.79
9584.00,2.78
9583.00,2.77
9582.00,2.77
9581.00,2.76
9580.00,2.76
9579.00,2.75
9578.00,2.75
9577.00,2.75
9576.00,2.75
9575.00,2.76
9574.00,2.76
9573.00,2.77
9572.00,2.77
9571.00,2.78
9570.00,2.78
9569.00,2.79
9568.00,2.80
9567.00,2.80
9566.00,2.81
9565.00,2.82
9564.00,2.83
9563.00,2.84
9562.00,2.85
9561.00,2.86
9560.00,2.88
9559.00,2.89
9558.00,2.90
9557.00,2.91
9556.00,2.93
9555.00,2.94
9554.00,2.95
9553.00,2.96
9552.00,2.97
9551.00,2.97
9550.00,2.98
9549.00,2.99
9548.00,2.99
9547.00,3.00
9546.00,3.01
9545.00,3.01
9544.00,3.02
9543.00,3.02
9542.00,3.02
9541.00,3.03
9540.00,3.03
9539.00,3.03
9538.00,3.03
9537.00,3.03
9536.00,3.03
9535.00,3.02
9534.00,3.02
9533.00,3.01
9532.00,3.00
9531.00,3.00
9530.00,2.99
9529.00,2.98
9528.00,2.97
9527.00,2.96
9526.00,2.94
9525.00,2.93
9524.00,2.92
9523.00,2.90
9522.00,2.89
9521.00,2.88
9520.00,2.86
9519.00,2.85
9518.00,2.83
9517.00,2.82
9516.00,2.80
9515.00,2.79
9514.00,2.77
9513.00,2.76
9512.00,2.75
9511.00,2.74
9510.00,2.72
9509.00,2.72
9508.00,2.71
9507.00,2.70
9506.00,2.70
9505.00,2.70
9504.00,2.70
9503.00,2.70
9502.00,2.70
9501.00,2.71
9500.00,2.71
9499.00,2.72
9498.00,2.73
9497.00,2.74
9496.00,2.75
9495.00,2.76
9494.00,2.77
9493.00,2.78
9492.00,2.79
9491.00,2.80
9490.00,2.81
9489.00,2.83
9488.00,2.84
9487.00,2.85
9486.00,2.86
9485.00,2.88
9484.00,2.89
9483.00,2.90
9482.00,2.92
9481.00,2.93
9480.00,2.94
9479.00,2.96
9478.00,2.97
9477.00,2.98
9476.00,2.99
9475.00,2.99
9474.00,3.00
9473.00,3.01
9472.00,3.01
9471.00,3.01
9470.00,3.02
9469.00,3.02
9468.00,3.02
9467.00,3.02
9466.00,3.02
9465.00,3.02
9464.00,3.02
9463.00,3.03
9462.00,3.02
9461.00,3.02
9460.00,3.02
9459.00,3.02
9458.00,3.01
9457.00,3.01
9456.00,3.00
9455.00,3.00
9454.00,2.99
9453.00,2.98
9452.00,2.97
9451.00,2.96
9450.00,2.95
9449.00,2.94
9448.00,2.93
9447.00,2.93
9446.00,2.92
9445.00,2.91
9444.00,2.91
9443.00,2.90
9442.00,2.90
9441.00,2.89
9440.00,2.89
9439.00,2.89
9438.00,2.88
9437.00,2.88
9436.00,2.88
9435.00,2.88
9434.00,2.88
9433.00,2.88
9432.00,2.88
9431.00,2.88
9430.00,2.88
9429.00,2.88
9428.00,2.88
9427.00,2.88
9426.00,2.88
9425.00,2.88
9424.00,2.89
9423.00,2.89
9422.00,2.89
9421.00,2.89
9420.00,2.89
9419.00,2.90
9418.00,2.90
9417.00,2.90
9416.00,2.90
9415.00,2.90
9414.00,2.90
9413.00,2.91
9412.00,2.91
9411.00,2.91
9410.00,2.91
9409.00,2.92
9408.00,2.92
9407.00,2.92
9406.00,2.92
9405.00,2.93
9404.00,2.93
9403.00,2.94
9402.00,2.94
9401.00,2.95
9400.00,2.96
9399.00,2.96
9398.00,2.97
9397.00,2.98
9396.00,2.99
9395.00,3.00
9394.00,3.01
9393.00,3.02
9392.00,3.02
9391.00,3.03
9390.00,3.04
9389.00,3.05
9388.00,3.05
9387.00,3.06
9386.00,3.07
9385.00,3.07
9384.00,3.08
9383.00,3.09
9382.00,3.10
9381.00,3.10
9380.00,3.11
9379.00,3.12
9378.00,3.13
9377.00,3.13
9376.00,3.14
9375.00,3.14
9374.00,3.15
9373.00,3.15
9372.00,3.15
9371.00,3.16
9370.00,3.16
9369.00,3.16
9368.00,3.16
9367.00,3.16
9366.00,3.16
9365.00,3.15
9364.00,3.15
9363.00,3.15
9362.00,3.14
9361.00,3.14
9360.00,3.13
9359.00,3.13
9358.00,3.12
9357.00,3.11
9356.00,3.10
9355.00,3.09
9354.00,3.08
9353.00,3.07
9352.00,3.05
9351.00,3.04
9350.00,3.02
9349.00,3.01
9348.00,2.99
9347.00,2.97
9346.00,2.96
9345.00,2.94
9344.00,2.93
9343.00,2.91
9342.00,2.90
9341.00,2.88
9340.00,2.87
9339.00,2.86
9338.00,2.84
9337.00,2.83
9336.00,2.82
9335.00,2.81
9334.00,2.81
9333.00,2.80
9332.00,2.80
9331.00,2.79
9330.00,2.79
9329.00,2.79
9328.00,2.80
9327.00,2.80
9326.00,2.80
9325.00,2.81
9324.00,2.81
9323.00,2.82
9322.00,2.83
9321.00,2.83
9320.00,2.84
9319.00,2.85
9318.00,2.85
9317.00,2.86
9316.00,2.87
9315.00,2.87
9314.00,2.88
9313.00,2.88
9312.00,2.89
9311.00,2.89
9310.00,2.90
9309.00,2.90
9308.00,2.91
9307.00,2.91
9306.00,2.91
9305.00,2.92
9304.00,2.92
9303.00,2.92
9302.00,2.92
9301.00,2.93
9300.00,2.93
9299.00,2.93
9298.00,2.93
9297.00,2.93
9296.00,2.93
9295.00,2.93
9294.00,2.93
9293.00,2.93
9292.00,2.93
9291.00,2.93
9290.00,2.93
9289.00,2.93
9288.00,2.93
9287.00,2.94
9286.00,2.93
9285.00,2.93
9284.00,2.93
9283.00,2.93
9282.00,2.93
9281.00,2.93
9280.00,2.93
9279.00,2.92
9278.00,2.92
9277.00,2.92
9276.00,2.91
9275.00,2.91
9274.00,2.91
9273.00,2.90
9272.00,2.90
9271.00,2.89
9270.00,2.88
9269.00,2.88
9268.00,2.87
9267.00,2.86
9266.00,2.86
9265.00,2.85
9264.00,2.85
9263.00,2.84
9262.00,2.84
9261.00,2.84
9260.00,2.83
9259.00,2.83
9258.00,2.83
9257.00,2.83
9256.00,2.83
9255.00,2.83
9254.00,2.82
9253.00,2.82
9252.00,2.82
9251.00,2.81
9250.00,2.81
9249.00,2.81
9248.00,2.80
9247.00,2.80
9246.00,2.79
9245.00,2.79
9244.00,2.79
9243.00,2.79
9242.00,2.79
9241.00,2.79
9240.00,2.78
9239.00,2.78
9238.00,2.78
9237.00,2.78
9236.00,2.77
9235.00,2.77
9234.00,2.77
9233.00,2.76
9232.00,2.76
9231.00,2.76
9230.00,2.75
9229.00,2.75
9228.00,2.75
9227.00,2.75
9226.00,2.75
9225.00,2.76
9224.00,2.76
9223.00,2.77
9222.00,2.78
9221.00,2.78
9220.00,2.79
9219.00,2.79
9218.00,2.80
9217.00,2.81
9216.00,2.81
9215.00,2.82
9214.00,2.82
9213.00,2.83
9212.00,2.84
9211.00,2.84
9210.00,2.85
9209.00,2.86
9208.00,2.87
9207.00,2.87
9206.00,2.88
9205.00,2.88
9204.00,2.89
9203.00,2.89
9202.00,2.90
9201.00,2.90
9200.00,2.90
9199.00,2.90
9198.00,2.90
9197.00,2.89
9196.00,2.89
9195.00,2.89
9194.00,2.89
9193.00,2.88
9192.00,2.88
9191.00,2.88
9190.00,2.87
9189.00,2.87
9188.00,2.87
9187.00,2.86
9186.00,2.86
9185.00,2.86
9184.00,2.85
9183.00,2.84
9182.00,2.84
9181.00,2.83
9180.00,2.83
9179.00,2.82
9178.00,2.82
9177.00,2.82
9176.00,2.81
9175.00,2.81
9174.00,2.81
9173.00,2.81
9172.00,2.82
9171.00,2.82
9170.00,2.82
9169.00,2.83
9168.00,2.84
9167.00,2.84
9166.00,2.85
9165.00,2.86
9164.00,2.86
9163.00,2.87
9162.00,2.87
9161.00,2.88
9160.00,2.89
9159.00,2.89
9158.00,2.90
9157.00,2.90
9156.00,2.91
9155.00,2.92
9154.00,2.93
9153.00,2.93
9152.00,2.94
9151.00,2.95
9150.00,2.95
9149.00,2.96
9148.00,2.96
9147.00,2.97
9146.00,2.97
9145.00,2.97
9144.00,2.97
9143.00,2.97
9142.00,2.96
9141.00,2.96
9140.00,2.96
9139.00,2.95
9138.00,2.95
9137.00,2.94
9136.00,2.94
9135.00,2.94
9134.00,2.93
9133.00,2.93
9132.00,2.93
9131.00,2.92
9130.00,2.92
9129.00,2.92
9128.00,2.92
9127.00,2.91
9126.00,2.91
9125.00,2.91
9124.00,2.91
9123.00,2.91
9122.00,2.91
9121.00,2.91
9120.00,2.91
9119.00,2.91
9118.00,2.91
9117.00,2.92
9116.00,2.92
9115.00,2.92
9114.00,2.93
9113.00,2.93
9112.00,2.93
9111.00,2.94
9110.00,2.94
9109.00,2.94
9108.00,2.95
9107.00,2.95
9106.00,2.95
9105.00,2.95
9104.00,2.95
9103.00,2.95
9102.00,2.95
9101.00,2.95
9100.00,2.95
9099.00,2.95
9098.00,2.95
9097.00,2.95
9096.00,2.94
9095.00,2.94
9094.00,2.94
9093.00,2.93
9092.00,2.93
9091.00,2.92
9090.00,2.91
9089.00,2.91
9088.00,2.90
9087.00,2.90
9086.00,2.89
9085.00,2.88
9084.00,2.88
9083.00,2.87
9082.00,2.87
9081.00,2.87
9080.00,2.87
9079.00,2.87
9078.00,2.86
9077.00,2.86
9076.00,2.86
9075.00,2.86
9074.00,2.86
9073.00,2.86
9072.00,2.86
9071.00,2.86
9070.00,2.86
9069.00,2.86
9068.00,2.86
9067.00,2.87
9066.00,2.87
9065.00,2.87
9064.00,2.87
9063.00,2.87
9062.00,2.88
9061.00,2.88
9060.00,2.88
9059.00,2.88
9058.00,2.88
9057.00,2.89
9056.00,2.89
9055.00,2.88
9054.00,2.88
9053.00,2.88
9052.00,2.88
9051.00,2.87
9050.00,2.87
9049.00,2.87
9048.00,2.86
9047.00,2.86
9046.00,2.86
9045.00,2.85
9044.00,2.85
9043.00,2.85
9042.00,2.85
9041.00,2.85
9040.00,2.84
9039.00,2.84
9038.00,2.84
9037.00,2.84
9036.00,2.84
9035.00,2.84
9034.00,2.84
9033.00,2.83
9032.00,2.83
9031.00,2.83
9030.00,2.83
9029.00,2.83
9028.00,2.83
9027.00,2.83
9026.00,2.83
9025.00,2.84
9024.00,2.84
9023.00,2.84
9022.00,2.85
9021.00,2.85
9020.00,2.85
9019.00,2.86
9018.00,2.86
9017.00,2.86
9016.00,2.86
9015.00,2.87
9014.00,2.87
9013.00,2.87
9012.00,2.87
9011.00,2.87
9010.00,2.88
9009.00,2.88
9008.00,2.88
9007.00,2.88
9006.00,2.89
9005.00,2.89
9004.00,2.89
9003.00,2.90
9002.00,2.90
9001.00,2.90
9000.00,2.90
8999.00,2.90
8998.00,2.90
8997.00,2.90
8996.00,2.90
8995.00,2.90
8994.00,2.90
8993.00,2.90
8992.00,2.90
8991.00,2.90
8990.00,2.90
8989.00,2.90
8988.00,2.90
8987.00,2.90
8986.00,2.89
8985.00,2.89
8984.00,2.89
8983.00,2.89
8982.00,2.88
8981.00,2.88
8980.00,2.88
8979.00,2.88
8978.00,2.88
8977.00,2.87
8976.00,2.87
8975.00,2.87
8974.00,2.87
8973.00,2.87
8972.00,2.87
8971.00,2.87
8970.00,2.86
8969.00,2.86
8968.00,2.86
8967.00,2.86
8966.00,2.85
8965.00,2.85
8964.00,2.85
8963.00,2.84
8962.00,2.84
8961.00,2.84
8960.00,2.84
8959.00,2.84
8958.00,2.84
8957.00,2.84
8956.00,2.84
8955.00,2.84
8954.00,2.84
8953.00,2.84
8952.00,2.84
8951.00,2.85
8950.00,2.85
8949.00,2.85
8948.00,2.86
8947.00,2.86
8946.00,2.87
8945.00,2.88
8944.00,2.88
8943.00,2.89
8942.00,2.90
8941.00,2.91
8940.00,2.92
8939.00,2.93
8938.00,2.94
8937.00,2.96
8936.00,2.97
8935.00,2.98
8934.00,2.99
8933.00,3.00
8932.00,3.01
8931.00,3.02
8930.00,3.03
8929.00,3.04
8928.00,3.05
8927.00,3.06
8926.00,3.07
8925.00,3.07
8924.00,3.08
8923.00,3.08
8922.00,3.08
8921.00,3.09
8920.00,3.09
8919.00,3.09
8918.00,3.08
8917.00,3.08
8916.00,3.08
8915.00,3.08
8914.00,3.07
8913.00,3.07
8912.00,3.06
8911.00,3.06
8910.00,3.05
8909.00,3.04
8908.00,3.04
8907.00,3.03
8906.00,3.02
8905.00,3.01
8904.00,3.01
8903.00,3.00
8902.00,2.99
8901.00,2.98
8900.00,2.97
8899.00,2.96
8898.00,2.95
8897.00,2.94
8896.00,2.93
8895.00,2.93
8894.00,2.92
8893.00,2.91
8892.00,2.91
8891.00,2.90
8890.00,2.90
8889.00,2.89
8888.00,2.89
8887.00,2.88
8886.00,2.88
8885.00,2.88
8884.00,2.87
8883.00,2.87
8882.00,2.87
8881.00,2.87
8880.00,2.87
8879.00,2.87
8878.00,2.87
8877.00,2.87
8876.00,2.87
8875.00,2.88
8874.00,2.88
8873.00,2.89
8872.00,2.89
8871.00,2.90
8870.00,2.90
8869.00,2.91
8868.00,2.91
8867.00,2.92
8866.00,2.92
8865.00,2.92
8864.00,2.93
8863.00,2.93
8862.00,2.93
8861.00,2.93
8860.00,2.92
8859.00,2.92
8858.00,2.92
8857.00,2.92
8856.00,2.91
8855.00,2.91
8854.00,2.90
8853.00,2.90
8852.00,2.89
8851.00,2.89
8850.00,2.88
8849.00,2.87
8848.00,2.86
8847.00,2.85
8846.00,2.84
8845.00,2.83
8844.00,2.82
8843.00,2.81
8842.00,2.80
8841.00,2.79
8840.00,2.78
8839.00,2.77
8838.00,2.77
8837.00,2.76
8836.00,2.76
8835.00,2.76
8834.00,2.76
8833.00,2.76
8832.00,2.76
8831.00,2.76
8830.00,2.77
8829.00,2.77
8828.00,2.77
8827.00,2.78
8826.00,2.79
8825.00,2.79
8824.00,2.80
8823.00,2.80
8822.00,2.81
8821.00,2.82
8820.00,2.83
8819.00,2.84
8818.00,2.85
8817.00,2.86
8816.00,2.86
8815.00,2.87
8814.00,2.88
8813.00,2.89
8812.00,2.90
8811.00,2.91
8810.00,2.92
8809.00,2.92
8808.00,2.93
8807.00,2.94
8806.00,2.94
8805.00,2.95
8804.00,2.95
8803.00,2.96
8802.00,2.96
8801.00,2.96
8800.00,2.97
8799.00,2.97
8798.00,2.98
8797.00,2.98
8796.00,2.98
8795.00,2.99
8794.00,2.99
8793.00,3.00
8792.00,3.00
8791.00,3.00
8790.00,3.01
8789.00,3.01
8788.00,3.01
8787.00,3.01
8786.00,3.01
8785.00,3.01
8784.00,3.01
8783.00,3.01
8782.00,3.00
8781.00,3.00
8780.00,2.99
8779.00,2.99
8778.00,2.98
8777.00,2.97
8776.00,2.97
8775.00,2.96
8774.00,2.95
8773.00,2.94
8772.00,2.93
8771.00,2.92
8770.00,2.91
8769.00,2.89
8768.00,2.88
8767.00,2.87
8766.00,2.85
8765.00,2.84
8764.00,2.83
8763.00,2.82
8762.00,2.80
8761.00,2.79
8760.00,2.78
8759.00,2.77
8758.00,2.75
8757.00,2.74
8756.00,2.73
8755.00,2.73
8754.00,2.72
8753.00,2.71
8752.00,2.70
8751.00,2.70
8750.00,2.69
8749.00,2.69
8748.00,2.69
8747.00,2.68
8746.00,2.68
8745.00,2.68
8744.00,2.67
8743.00,2.67
8742.00,2.67
8741.00,2.67
8740.00,2.67
8739.00,2.67
8738.00,2.67
8737.00,2.67
8736.00,2.67
8735.00,2.67
8734.00,2.67
8733.00,2.67
8732.00,2.67
8731.00,2.67
8730.00,2.67
8729.00,2.67
8728.00,2.68
8727.00,2.68
8726.00,2.68
8725.00,2.68
8724.00,2.68
8723.00,2.68
8722.00,2.68
8721.00,2.68
8720.00,2.68
8719.00,2.68
8718.00,2.68
8717.00,2.68
8716.00,2.68
8715.00,2.68
8714.00,2.68
8713.00,2.68
8712.00,2.68
8711.00,2.68
8710.00,2.68
8709.00,2.68
8708.00,2.68
8707.00,2.68
8706.00,2.68
8705.00,2.69
8704.00,2.69
8703.00,2.69
8702.00,2.69
8701.00,2.69
8700.00,2.69
8699.00,2.70
8698.00,2.70
8697.00,2.70
8696.00,2.71
8695.00,2.71
8694.00,2.72
8693.00,2.72
8692.00,2.72
8691.00,2.73
8690.00,2.73
8689.00,2.74
8688.00,2.74
8687.00,2.75
8686.00,2.76
8685.00,2.76
8684.00,2.77
8683.00,2.78
8682.00,2.79
8681.00,2.80
8680.00,2.80
8679.00,2.81
8678.00,2.82
8677.00,2.83
8676.00,2.84
8675.00,2.84
8674.00,2.85
8673.00,2.86
8672.00,2.87
8671.00,2.87
8670.00,2.88
8669.00,2.89
8668.00,2.89
8667.00,2.90
8666.00,2.90
8665.00,2.91
8664.00,2.91
8663.00,2.91
8662.00,2.91
8661.00,2.91
8660.00,2.91
8659.00,2.91
8658.00,2.91
8657.00,2.90
8656.00,2.90
8655.00,2.90
8654.00,2.89
8653.00,2.89
8652.00,2.89
8651.00,2.88
8650.00,2.88
8649.00,2.88
8648.00,2.88
8647.00,2.87
8646.00,2.87
8645.00,2.87
8644.00,2.87
8643.00,2.86
8642.00,2.86
8641.00,2.86
8640.00,2.86
8639.00,2.86
8638.00,2.86
8637.00,2.85
8636.00,2.85
8635.00,2.85
8634.00,2.85
8633.00,2.85
8632.00,2.86
8631.00,2.86
8630.00,2.86
8629.00,2.86
8628.00,2.86
8627.00,2.86
8626.00,2.87
8625.00,2.87
8624.00,2.87
8623.00,2.87
8622.00,2.87
8621.00,2.87
8620.00,2.86
8619.00,2.86
8618.00,2.86
8617.00,2.86
8616.00,2.86
8615.00,2.85
8614.00,2.85
8613.00,2.85
8612.00,2.85
8611.00,2.84
8610.00,2.84
8609.00,2.83
8608.00,2.83
8607.00,2.83
8606.00,2.82
8605.00,2.82
8604.00,2.81
8603.00,2.81
8602.00,2.80
8601.00,2.79
8600.00,2.79
8599.00,2.78
8598.00,2.77
8597.00,2.76
8596.00,2.76
8595.00,2.75
8594.00,2.75
8593.00,2.74
8592.00,2.74
8591.00,2.73
8590.00,2.73
8589.00,2.73
8588.00,2.72
8587.00,2.72
8586.00,2.72
8585.00,2.72
8584.00,2.72
8583.00,2.72
8582.00,2.72
8581.00,2.73
8580.00,2.73
8579.00,2.73
8578.00,2.74
8577.00,2.74
8576.00,2.75
8575.00,2.76
8574.00,2.77
8573.00,2.78
8572.00,2.79
8571.00,2.80
8570.00,2.81
8569.00,2.82
8568.00,2.83
8567.00,2.84
8566.00,2.85
8565.00,2.86
8564.00,2.86
8563.00,2.87
8562.00,2.88
8561.00,2.89
8560.00,2.89
8559.00,2.90
8558.00,2.90
8557.00,2.91
8556.00,2.91
8555.00,2.91
8554.00,2.92
8553.00,2.92
8552.00,2.92
8551.00,2.93
8550.00,2.93
8549.00,2.93
8548.00,2.93
8547.00,2.93
8546.00,2.94
8545.00,2.94
8544.00,2.94
8543.00,2.94
8542.00,2.93
8541.00,2.93
8540.00,2.93
8539.00,2.93
8538.00,2.93
8537.00,2.92
8536.00,2.92
8535.00,2.92
8534.00,2.92
8533.00,2.92
8532.00,2.92
8531.00,2.92
8530.00,2.92
8529.00,2.91
8528.00,2.91
8527.00,2.91
8526.00,2.90
8525.00,2.90
8524.00,2.90
8523.00,2.89
8522.00,2.89
8521.00,2.88
8520.00,2.88
8519.00,2.87
8518.00,2.87
8517.00,2.86
8516.00,2.86
8515.00,2.86
8514.00,2.86
8513.00,2.86
8512.00,2.86
8511.00,2.86
8510.00,2.86
8509.00,2.86
8508.00,2.86
8507.00,2.86
8506.00,2.86
8505.00,2.86
8504.00,2.86
8503.00,2.86
8502.00,2.86
8501.00,2.86
8500.00,2.87
8499.00,2.87
8498.00,2.87
8497.00,2.87
8496.00,2.88
8495.00,2.88
8494.00,2.88
8493.00,2.88
8492.00,2.88
8491.00,2.89
8490.00,2.89
8489.00,2.89
8488.00,2.88
8487.00,2.88
8486.00,2.88
8485.00,2.88
8484.00,2.88
8483.00,2.88
8482.00,2.87
8481.00,2.87
8480.00,2.87
8479.00,2.87
8478.00,2.87
8477.00,2.86
8476.00,2.86
8475.00,2.86
8474.00,2.85
8473.00,2.85
8472.00,2.85
8471.00,2.85
8470.00,2.84
8469.00,2.84
8468.00,2.84
8467.00,2.84
8466.00,2.83
8465.00,2.83
8464.00,2.83
8463.00,2.83
8462.00,2.83
8461.00,2.83
8460.00,2.83
8459.00,2.83
8458.00,2.83
8457.00,2.82
8456.00,2.82
8455.00,2.82
8454.00,2.82
8453.00,2.82
8452.00,2.82
8451.00,2.81
8450.00,2.81
8449.00,2.81
8448.00,2.81
8447.00,2.81
8446.00,2.80
8445.00,2.80
8444.00,2.80
8443.00,2.80
8442.00,2.80
8441.00,2.80
8440.00,2.79
8439.00,2.79
8438.00,2.79
8437.00,2.79
8436.00,2.79
8435.00,2.79
8434.00,2.79
8433.00,2.79
8432.00,2.80
8431.00,2.80
8430.00,2.80
8429.00,2.80
8428.00,2.80
8427.00,2.81
8426.00,2.81
8425.00,2.81
8424.00,2.82
8423.00,2.82
8422.00,2.83
8421.00,2.83
8420.00,2.84
8419.00,2.84
8418.00,2.85
8417.00,2.86
8416.00,2.86
8415.00,2.87
8414.00,2.87
8413.00,2.88
8412.00,2.88
8411.00,2.89
8410.00,2.89
8409.00,2.89
8408.00,2.89
8407.00,2.89
8406.00,2.90
8405.00,2.90
8404.00,2.90
8403.00,2.90
8402.00,2.90
8401.00,2.90
8400.00,2.90
8399.00,2.90
8398.00,2.90
8397.00,2.90
8396.00,2.90
8395.00,2.90
8394.00,2.90
8393.00,2.89
8392.00,2.89
8391.00,2.89
8390.00,2.88
8389.00,2.88
8388.00,2.88
8387.00,2.87
8386.00,2.87
8385.00,2.87
8384.00,2.87
8383.00,2.87
8382.00,2.87
8381.00,2.87
8380.00,2.87
8379.00,2.87
8378.00,2.87
8377.00,2.87
8376.00,2.86
8375.00,2.86
8374.00,2.86
8373.00,2.86
8372.00,2.86
8371.00,2.86
8370.00,2.86
8369.00,2.86
8368.00,2.86
8367.00,2.86
8366.00,2.85
8365.00,2.85
8364.00,2.85
8363.00,2.84
8362.00,2.84
8361.00,2.83
8360.00,2.83
8359.00,2.82
8358.00,2.81
8357.00,2.81
8356.00,2.80
8355.00,2.79
8354.00,2.78
8353.00,2.78
8352.00,2.77
8351.00,2.76
8350.00,2.75
8349.00,2.75
8348.00,2.74
8347.00,2.73
8346.00,2.73
8345.00,2.72
8344.00,2.72
8343.00,2.72
8342.00,2.72
8341.00,2.72
8340.00,2.72
8339.00,2.72
8338.00,2.73
8337.00,2.73
8336.00,2.74
8335.00,2.75
8334.00,2.76
8333.00,2.77
8332.00,2.78
8331.00,2.79
8330.00,2.80
8329.00,2.81
8328.00,2.83
8327.00,2.84
8326.00,2.85
8325.00,2.86
8324.00,2.87
8323.00,2.88
8322.00,2.89
8321.00,2.90
8320.00,2.91
8319.00,2.92
8318.00,2.93
8317.00,2.93
8316.00,2.94
8315.00,2.94
8314.00,2.94
8313.00,2.94
8312.00,2.94
8311.00,2.94
8310.00,2.94
8309.00,2.94
8308.00,2.93
8307.00,2.93
8306.00,2.92
8305.00,2.92
8304.00,2.91
8303.00,2.90
8302.00,2.89
8301.00,2.88
8300.00,2.88
8299.00,2.87
8298.00,2.86
8297.00,2.85
8296.00,2.85
8295.00,2.84
8294.00,2.83
8293.00,2.83
8292.00,2.82
8291.00,2.82
8290.00,2.82
8289.00,2.81
8288.00,2.81
8287.00,2.81
8286.00,2.81
8285.00,2.81
8284.00,2.81
8283.00,2.81
8282.00,2.81
8281.00,2.81
8280.00,2.81
8279.00,2.81
8278.00,2.81
8277.00,2.81
8276.00,2.81
8275.00,2.82
8274.00,2.82
8273.00,2.82
8272.00,2.83
8271.00,2.83
8270.00,2.83
8269.00,2.83
8268.00,2.84
8267.00,2.84
8266.00,2.84
8265.00,2.85
8264.00,2.85
8263.00,2.85
8262.00,2.85
8261.00,2.86
8260.00,2.86
8259.00,2.86
8258.00,2.86
8257.00,2.87
8256.00,2.87
8255.00,2.87
8254.00,2.88
8253.00,2.88
8252.00,2.88
8251.00,2.88
8250.00,2.88
8249.00,2.88
8248.00,2.88
8247.00,2.89
8246.00,2.89
8245.00,2.89
8244.00,2.89
8243.00,2.89
8242.00,2.88
8241.00,2.88
8240.00,2.88
8239.00,2.88
8238.00,2.88
8237.00,2.88
8236.00,2.88
8235.00,2.88
8234.00,2.88
8233.00,2.88
8232.00,2.87
8231.00,2.87
8230.00,2.87
8229.00,2.86
8228.00,2.86
8227.00,2.86
8226.00,2.86
8225.00,2.85
8224.00,2.85
8223.00,2.85
8222.00,2.85
8221.00,2.85
8220.00,2.85
8219.00,2.85
8218.00,2.85
8217.00,2.85
8216.00,2.86
8215.00,2.86
8214.00,2.86
8213.00,2.87
8212.00,2.87
8211.00,2.87
8210.00,2.88
8209.00,2.88
8208.00,2.89
8207.00,2.89
8206.00,2.90
8205.00,2.90
8204.00,2.91
8203.00,2.92
8202.00,2.93
8201.00,2.93
8200.00,2.94
8199.00,2.95
8198.00,2.96
8197.00,2.96
8196.00,2.97
8195.00,2.98
8194.00,2.98
8193.00,2.99
8192.00,3.00
8191.00,3.00
8190.00,3.00
8189.00,3.01
8188.00,3.01
8187.00,3.01
8186.00,3.02
8185.00,3.02
8184.00,3.02
8183.00,3.02
8182.00,3.02
8181.00,3.02
8180.00,3.02
8179.00,3.02
8178.00,3.02
8177.00,3.02
8176.00,3.01
8175.00,3.01
8174.00,3.01
8173.00,3.01
8172.00,3.00
8171.00,3.00
8170.00,3.00
8169.00,2.99
8168.00,2.99
8167.00,2.99
8166.00,2.98
8165.00,2.98
8164.00,2.98
8163.00,2.97
8162.00,2.97
8161.00,2.97
8160.00,2.96
8159.00,2.96
8158.00,2.96
8157.00,2.96
8156.00,2.96
8155.00,2.95
8154.00,2.95
8153.00,2.95
8152.00,2.95
8151.00,2.95
8150.00,2.95
8149.00,2.95
8148.00,2.95
8147.00,2.95
8146.00,2.95
8145.00,2.95
8144.00,2.95
8143.00,2.95
8142.00,2.95
8141.00,2.95
8140.00,2.95
8139.00,2.95
8138.00,2.95
8137.00,2.95
8136.00,2.95
8135.00,2.95
8134.00,2.95
8133.00,2.95
8132.00,2.95
8131.00,2.95
8130.00,2.96
8129.00,2.96
8128.00,2.96
8127.00,2.96
8126.00,2.96
8125.00,2.96
8124.00,2.96
8123.00,2.96
8122.00,2.96
8121.00,2.96
8120.00,2.96
8119.00,2.96
8118.00,2.96
8117.00,2.96
8116.00,2.96
8115.00,2.96
8114.00,2.96
8113.00,2.96
8112.00,2.96
8111.00,2.96
8110.00,2.96
8109.00,2.96
8108.00,2.97
8107.00,2.97
8106.00,2.97
8105.00,2.97
8104.00,2.98
8103.00,2.98
8102.00,2.98
8101.00,2.99
8100.00,2.99
8099.00,2.99
8098.00,2.99
8097.00,2.99
8096.00,3.00
8095.00,3.00
8094.00,3.00
8093.00,3.00
8092.00,3.00
8091.00,3.00
8090.00,3.01
8089.00,3.01
8088.00,3.01
8087.00,3.01
8086.00,3.01
8085.00,3.01
8084.00,3.01
8083.00,3.01
8082.00,3.01
8081.00,3.01
8080.00,3.01
8079.00,3.01
8078.00,3.01
8077.00,3.01
8076.00,3.01
8075.00,3.00
8074.00,3.00
8073.00,3.00
8072.00,3.00
8071.00,3.00
8070.00,3.00
8069.00,3.00
8068.00,3.00
8067.00,3.00
8066.00,3.00
8065.00,3.00
8064.00,3.00
8063.00,3.00
8062.00,3.00
8061.00,3.00
8060.00,3.00
8059.00,3.00
8058.00,3.00
8057.00,3.00
8056.00,3.00
8055.00,3.01
8054.00,3.01
8053.00,3.01
8052.00,3.01
8051.00,3.01
8050.00,3.02
8049.00,3.02
8048.00,3.02
8047.00,3.02
8046.00,3.02
8045.00,3.02
8044.00,3.02
8043.00,3.02
8042.00,3.02
8041.00,3.02
8040.00,3.02
8039.00,3.02
8038.00,3.02
8037.00,3.02
8036.00,3.01
8035.00,3.01
8034.00,3.01
8033.00,3.01
8032.00,3.01
8031.00,3.00
8030.00,3.00
8029.00,3.00
8028.00,3.00
8027.00,3.00
8026.00,3.00
8025.00,3.00
8024.00,3.00
8023.00,3.00
8022.00,3.00
8021.00,3.00
8020.00,3.00
8019.00,3.00
8018.00,3.00
8017.00,3.01
8016.00,3.01
8015.00,3.01
8014.00,3.01
8013.00,3.02
8012.00,3.02
8011.00,3.02
8010.00,3.03
8009.00,3.03
8008.00,3.03
8007.00,3.04
8006.00,3.04
8005.00,3.04
8004.00,3.04
8003.00,3.05
8002.00,3.05
8001.00,3.05
8000.00,3.05
7999.00,3.05
7998.00,3.05
7997.00,3.04
7996.00,3.04
7995.00,3.04
7994.00,3.04
7993.00,3.04
7992.00,3.04
7991.00,3.04
7990.00,3.04
7989.00,3.04
7988.00,3.04
7987.00,3.04
7986.00,3.03
7985.00,3.03
7984.00,3.03
7983.00,3.03
7982.00,3.03
7981.00,3.04
7980.00,3.04
7979.00,3.04
7978.00,3.04
7977.00,3.04
7976.00,3.05
7975.00,3.05
7974.00,3.05
7973.00,3.06
7972.00,3.06
7971.00,3.07
7970.00,3.07
7969.00,3.07
7968.00,3.08
7967.00,3.08
7966.00,3.08
7965.00,3.08
7964.00,3.09
7963.00,3.09
7962.00,3.09
7961.00,3.09
7960.00,3.09
7959.00,3.09
7958.00,3.09
7957.00,3.09
7956.00,3.09
7955.00,3.09
7954.00,3.09
7953.00,3.08
7952.00,3.08
7951.00,3.08
7950.00,3.07
7949.00,3.07
7948.00,3.06
7947.00,3.06
7946.00,3.06
7945.00,3.05
7944.00,3.05
7943.00,3.04
7942.00,3.04
7941.00,3.03
7940.00,3.03
7939.00,3.03
7938.00,3.02
7937.00,3.02
7936.00,3.01
7935.00,3.01
7934.00,3.01
7933.00,3.01
7932.00,3.00
7931.00,3.00
7930.00,3.00
7929.00,3.00
7928.00,3.00
7927.00,3.00
7926.00,3.00
7925.00,3.01
7924.00,3.01
7923.00,3.01
7922.00,3.01
7921.00,3.01
7920.00,3.01
7919.00,3.02
7918.00,3.02
7917.00,3.02
7916.00,3.02
7915.00,3.03
7914.00,3.03
7913.00,3.04
7912.00,3.04
7911.00,3.05
7910.00,3.05
7909.00,3.06
7908.00,3.06
7907.00,3.07
7906.00,3.07
7905.00,3.07
7904.00,3.08
7903.00,3.08
7902.00,3.09
7901.00,3.09
7900.00,3.09
7899.00,3.10
7898.00,3.10
7897.00,3.10
7896.00,3.10
7895.00,3.11
7894.00,3.11
7893.00,3.11
7892.00,3.11
7891.00,3.11
7890.00,3.11
7889.00,3.11
7888.00,3.11
7887.00,3.11
7886.00,3.10
7885.00,3.10
7884.00,3.10
7883.00,3.09
7882.00,3.09
7881.00,3.08
7880.00,3.08
7879.00,3.07
7878.00,3.07
7877.00,3.06
7876.00,3.06
7875.00,3.06
7874.00,3.05
7873.00,3.05
7872.00,3.05
7871.00,3.05
7870.00,3.05
7869.00,3.04
7868.00,3.04
7867.00,3.04
7866.00,3.04
7865.00,3.04
7864.00,3.04
7863.00,3.04
7862.00,3.05
7861.00,3.05
7860.00,3.05
7859.00,3.05
7858.00,3.06
7857.00,3.06
7856.00,3.06
7855.00,3.07
7854.00,3.07
7853.00,3.08
7852.00,3.08
7851.00,3.09
7850.00,3.09
7849.00,3.09
7848.00,3.10
7847.00,3.10
7846.00,3.10
7845.00,3.10
7844.00,3.11
7843.00,3.11
7842.00,3.11
7841.00,3.11
7840.00,3.11
7839.00,3.11
7838.00,3.11
7837.00,3.11
7836.00,3.10
7835.00,3.10
7834.00,3.10
7833.00,3.10
7832.00,3.09
7831.00,3.09
7830.00,3.09
7829.00,3.08
7828.00,3.08
7827.00,3.07
7826.00,3.07
7825.00,3.07
7824.00,3.06
7823.00,3.06
7822.00,3.06
7821.00,3.05
7820.00,3.05
7819.00,3.05
7818.00,3.05
7817.00,3.04
7816.00,3.04
7815.00,3.04
7814.00,3.04
7813.00,3.04
7812.00,3.04
7811.00,3.04
7810.00,3.04
7809.00,3.04
7808.00,3.05
7807.00,3.05
7806.00,3.05
7805.00,3.06
7804.00,3.06
7803.00,3.07
7802.00,3.07
7801.00,3.08
7800.00,3.08
7799.00,3.08
7798.00,3.09
7797.00,3.09
7796.00,3.09
7795.00,3.10
7794.00,3.10
7793.00,3.10
7792.00,3.11
7791.00,3.11
7790.00,3.11
7789.00,3.12
7788.00,3.12
7787.00,3.12
7786.00,3.12
7785.00,3.12
7784.00,3.13
7783.00,3.13
7782.00,3.13
7781.00,3.13
7780.00,3.13
7779.00,3.13
7778.00,3.13
7777.00,3.13
7776.00,3.13
7775.00,3.13
7774.00,3.13
7773.00,3.12
7772.00,3.12
7771.00,3.12
7770.00,3.12
7769.00,3.12
7768.00,3.12
7767.00,3.12
7766.00,3.12
7765.00,3.12
7764.00,3.12
7763.00,3.12
7762.00,3.12
7761.00,3.12
7760.00,3.12
7759.00,3.12
7758.00,3.12
7757.00,3.12
7756.00,3.12
7755.00,3.12
7754.00,3.12
7753.00,3.12
7752.00,3.11
7751.00,3.11
7750.00,3.11
7749.00,3.11
7748.00,3.11
7747.00,3.11
7746.00,3.12
7745.00,3.12
7744.00,3.12
7743.00,3.13
7742.00,3.13
7741.00,3.13
7740.00,3.13
7739.00,3.13
7738.00,3.14
7737.00,3.14
7736.00,3.14
7735.00,3.14
7734.00,3.14
7733.00,3.14
7732.00,3.14
7731.00,3.15
7730.00,3.15
7729.00,3.15
7728.00,3.15
7727.00,3.16
7726.00,3.16
7725.00,3.16
7724.00,3.17
7723.00,3.17
7722.00,3.17
7721.00,3.17
7720.00,3.17
7719.00,3.17
7718.00,3.17
7717.00,3.17
7716.00,3.17
7715.00,3.16
7714.00,3.16
7713.00,3.16
7712.00,3.16
7711.00,3.16
7710.00,3.15
7709.00,3.15
7708.00,3.15
7707.00,3.15
7706.00,3.15
7705.00,3.15
7704.00,3.15
7703.00,3.15
7702.00,3.15
7701.00,3.15
7700.00,3.15
7699.00,3.15
7698.00,3.15
7697.00,3.15
7696.00,3.15
7695.00,3.15
7694.00,3.15
7693.00,3.15
7692.00,3.15
7691.00,3.15
7690.00,3.16
7689.00,3.16
7688.00,3.16
7687.00,3.16
7686.00,3.16
7685.00,3.17
7684.00,3.17
7683.00,3.17
7682.00,3.17
7681.00,3.17
7680.00,3.17
7679.00,3.17
7678.00,3.17
7677.00,3.17
7676.00,3.17
7675.00,3.17
7674.00,3.17
7673.00,3.17
7672.00,3.17
7671.00,3.17
7670.00,3.17
7669.00,3.17
7668.00,3.17
7667.00,3.17
7666.00,3.17
7665.00,3.17
7664.00,3.17
7663.00,3.16
7662.00,3.16
7661.00,3.16
7660.00,3.16
7659.00,3.16
7658.00,3.16
7657.00,3.16
7656.00,3.16
7655.00,3.16
7654.00,3.15
7653.00,3.15
7652.00,3.15
7651.00,3.15
7650.00,3.15
7649.00,3.15
7648.00,3.14
7647.00,3.14
7646.00,3.14
7645.00,3.14
7644.00,3.13
7643.00,3.13
7642.00,3.13
7641.00,3.13
7640.00,3.13
7639.00,3.13
7638.00,3.13
7637.00,3.13
7636.00,3.12
7635.00,3.12
7634.00,3.12
7633.00,3.12
7632.00,3.12
7631.00,3.12
7630.00,3.12
7629.00,3.12
7628.00,3.11
7627.00,3.11
7626.00,3.11
7625.00,3.11
7624.00,3.11
7623.00,3.12
7622.00,3.12
7621.00,3.12
7620.00,3.12
7619.00,3.12
7618.00,3.12
7617.00,3.12
7616.00,3.12
7615.00,3.12
7614.00,3.12
7613.00,3.12
7612.00,3.12
7611.00,3.12
7610.00,3.12
7609.00,3.12
7608.00,3.12
7607.00,3.12
7606.00,3.12
7605.00,3.11
7604.00,3.11
7603.00,3.11
7602.00,3.11
7601.00,3.11
7600.00,3.10
7599.00,3.10
7598.00,3.10
7597.00,3.09
7596.00,3.09
7595.00,3.09
7594.00,3.09
7593.00,3.08
7592.00,3.08
7591.00,3.08
7590.00,3.08
7589.00,3.07
7588.00,3.07
7587.00,3.07
7586.00,3.07
7585.00,3.07
7584.00,3.07
7583.00,3.07
7582.00,3.07
7581.00,3.07
7580.00,3.07
7579.00,3.07
7578.00,3.07
7577.00,3.07
7576.00,3.07
7575.00,3.07
7574.00,3.07
7573.00,3.07
7572.00,3.08
7571.00,3.08
7570.00,3.08
7569.00,3.08
7568.00,3.08
7567.00,3.09
7566.00,3.09
7565.00,3.09
7564.00,3.09
7563.00,3.10
7562.00,3.10
7561.00,3.10
7560.00,3.10
7559.00,3.10
7558.00,3.10
7557.00,3.11
7556.00,3.11
7555.00,3.11
7554.00,3.11
7553.00,3.12
7552.00,3.12
7551.00,3.12
7550.00,3.13
7549.00,3.13
7548.00,3.14
7547.00,3.14
7546.00,3.14
7545.00,3.15
7544.00,3.15
7543.00,3.15
7542.00,3.15
7541.00,3.16
7540.00,3.16
7539.00,3.16
7538.00,3.16
7537.00,3.16
7536.00,3.17
7535.00,3.17
7534.00,3.17
7533.00,3.17
7532.00,3.17
7531.00,3.17
7530.00,3.17
7529.00,3.17
7528.00,3.17
7527.00,3.17
7526.00,3.17
7525.00,3.17
7524.00,3.17
7523.00,3.17
7522.00,3.16
7521.00,3.16
7520.00,3.16
7519.00,3.16
7518.00,3.15
7517.00,3.15
7516.00,3.15
7515.00,3.15
7514.00,3.14
7513.00,3.14
7512.00,3.14
7511.00,3.14
7510.00,3.14
7509.00,3.13
7508.00,3.13
7507.00,3.13
7506.00,3.13
7505.00,3.13
7504.00,3.13
7503.00,3.13
7502.00,3.13
7501.00,3.13
7500.00,3.13
7499.00,3.13
7498.00,3.13
7497.00,3.13
7496.00,3.13
7495.00,3.13
7494.00,3.13
7493.00,3.13
7492.00,3.13
7491.00,3.13
7490.00,3.13
7489.00,3.13
7488.00,3.13
7487.00,3.13
7486.00,3.13
7485.00,3.13
7484.00,3.13
7483.00,3.12
7482.00,3.12
7481.00,3.12
7480.00,3.12
7479.00,3.11
7478.00,3.11
7477.00,3.11
7476.00,3.10
7475.00,3.10
7474.00,3.09
7473.00,3.09
7472.00,3.09
7471.00,3.08
7470.00,3.08
7469.00,3.08
7468.00,3.07
7467.00,3.07
7466.00,3.07
7465.00,3.06
7464.00,3.06
7463.00,3.05
7462.00,3.05
7461.00,3.05
7460.00,3.04
7459.00,3.04
7458.00,3.04
7457.00,3.04
7456.00,3.04
7455.00,3.04
7454.00,3.03
7453.00,3.03
7452.00,3.03
7451.00,3.03
7450.00,3.03
7449.00,3.03
7448.00,3.03
7447.00,3.03
7446.00,3.03
7445.00,3.03
7444.00,3.03
7443.00,3.03
7442.00,3.03
7441.00,3.03
7440.00,3.03
7439.00,3.03
7438.00,3.03
7437.00,3.03
7436.00,3.03
7435.00,3.03
7434.00,3.04
7433.00,3.04
7432.00,3.04
7431.00,3.04
7430.00,3.04
7429.00,3.04
7428.00,3.04
7427.00,3.04
7426.00,3.04
7425.00,3.04
7424.00,3.03
7423.00,3.03
7422.00,3.03
7421.00,3.03
7420.00,3.03
7419.00,3.03
7418.00,3.03
7417.00,3.03
7416.00,3.02
7415.00,3.02
7414.00,3.02
7413.00,3.02
7412.00,3.02
7411.00,3.01
7410.00,3.01
7409.00,3.01
7408.00,3.01
7407.00,3.00
7406.00,3.00
7405.00,3.00
7404.00,3.00
7403.00,3.00
7402.00,3.00
7401.00,3.00
7400.00,3.00
7399.00,3.00
7398.00,3.00
7397.00,2.99
7396.00,2.99
7395.00,2.99
7394.00,2.99
7393.00,2.99
7392.00,2.99
7391.00,2.99
7390.00,2.98
7389.00,2.98
7388.00,2.98
7387.00,2.98
7386.00,2.98
7385.00,2.97
7384.00,2.97
7383.00,2.97
7382.00,2.97
7381.00,2.97
7380.00,2.96
7379.00,2.96
7378.00,2.96
7377.00,2.95
7376.00,2.95
7375.00,2.95
7374.00,2.94
7373.00,2.94
7372.00,2.94
7371.00,2.94
7370.00,2.93
7369.00,2.93
7368.00,2.93
7367.00,2.92
7366.00,2.92
7365.00,2.92
7364.00,2.92
7363.00,2.92
7362.00,2.91
7361.00,2.91
7360.00,2.91
7359.00,2.91
7358.00,2.91
7357.00,2.91
7356.00,2.90
7355.00,2.90
7354.00,2.90
7353.00,2.90
7352.00,2.90
7351.00,2.90
7350.00,2.90
7349.00,2.90
7348.00,2.90
7347.00,2.90
7346.00,2.90
7345.00,2.90
7344.00,2.90
7343.00,2.90
7342.00,2.90
7341.00,2.91
7340.00,2.91
7339.00,2.91
7338.00,2.91
7337.00,2.92
7336.00,2.92
7335.00,2.93
7334.00,2.93
7333.00,2.94
7332.00,2.94
7331.00,2.95
7330.00,2.95
7329.00,2.96
7328.00,2.96
7327.00,2.97
7326.00,2.97
7325.00,2.98
7324.00,2.98
7323.00,2.98
7322.00,2.99
7321.00,2.99
7320.00,2.99
7319.00,3.00
7318.00,3.00
7317.00,3.00
7316.00,3.00
7315.00,3.00
7314.00,3.00
7313.00,2.99
7312.00,2.99
7311.00,2.99
7310.00,2.98
7309.00,2.98
7308.00,2.98
7307.00,2.97
7306.00,2.97
7305.00,2.96
7304.00,2.95
7303.00,2.95
7302.00,2.94
7301.00,2.93
7300.00,2.93
7299.00,2.92
7298.00,2.91
7297.00,2.91
7296.00,2.90
7295.00,2.89
7294.00,2.89
7293.00,2.88
7292.00,2.88
7291.00,2.87
7290.00,2.87
7289.00,2.86
7288.00,2.86
7287.00,2.86
7286.00,2.86
7285.00,2.85
7284.00,2.85
7283.00,2.85
7282.00,2.85
7281.00,2.85
7280.00,2.85
7279.00,2.85
7278.00,2.85
7277.00,2.85
7276.00,2.85
7275.00,2.85
7274.00,2.85
7273.00,2.86
7272.00,2.86
7271.00,2.86
7270.00,2.86
7269.00,2.86
7268.00,2.87
7267.00,2.87
7266.00,2.87
7265.00,2.87
7264.00,2.87
7263.00,2.87
7262.00,2.87
7261.00,2.86
7260.00,2.86
7259.00,2.86
7258.00,2.86
7257.00,2.85
7256.00,2.85
7255.00,2.84
7254.00,2.84
7253.00,2.83
7252.00,2.83
7251.00,2.82
7250.00,2.82
7249.00,2.81
7248.00,2.80
7247.00,2.79
7246.00,2.78
7245.00,2.77
7244.00,2.76
7243.00,2.75
7242.00,2.74
7241.00,2.73
7240.00,2.73
7239.00,2.72
7238.00,2.71
7237.00,2.70
7236.00,2.69
7235.00,2.68
7234.00,2.67
7233.00,2.66
7232.00,2.66
7231.00,2.65
7230.00,2.64
7229.00,2.64
7228.00,2.63
7227.00,2.63
7226.00,2.62
7225.00,2.62
7224.00,2.61
7223.00,2.61
7222.00,2.61
7221.00,2.60
7220.00,2.60
7219.00,2.60
7218.00,2.60
7217.00,2.59
7216.00,2.59
7215.00,2.59
7214.00,2.59
7213.00,2.59
7212.00,2.58
7211.00,2.58
7210.00,2.58
7209.00,2.58
7208.00,2.58
7207.00,2.58
7206.00,2.57
7205.00,2.57
7204.00,2.57
7203.00,2.57
7202.00,2.56
7201.00,2.56
7200.00,2.56
7199.00,2.55
7198.00,2.54
7197.00,2.54
7196.00,2.53
7195.00,2.53
7194.00,2.52
7193.00,2.52
7192.00,2.51
7191.00,2.50
7190.00,2.50
7189.00,2.49
7188.00,2.49
7187.00,2.48
7186.00,2.48
7185.00,2.47
7184.00,2.47
7183.00,2.46
7182.00,2.46
7181.00,2.45
7180.00,2.45
7179.00,2.44
7178.00,2.44
7177.00,2.43
7176.00,2.43
7175.00,2.42
7174.00,2.42
7173.00,2.42
7172.00,2.41
7171.00,2.41
7170.00,2.40
7169.00,2.40
7168.00,2.39
7167.00,2.39
7166.00,2.38
7165.00,2.37
7164.00,2.37
7163.00,2.36
7162.00,2.35
7161.00,2.34
7160.00,2.34
7159.00,2.33
7158.00,2.32
7157.00,2.31
7156.00,2.30
7155.00,2.29
7154.00,2.29
7153.00,2.28
7152.00,2.27
7151.00,2.26
7150.00,2.25
7149.00,2.25
7148.00,2.24
7147.00,2.23
7146.00,2.23
7145.00,2.22
7144.00,2.22
7143.00,2.21
7142.00,2.21
7141.00,2.21
7140.00,2.21
7139.00,2.20
7138.00,2.20
7137.00,2.20
7136.00,2.20
7135.00,2.20
7134.00,2.20
7133.00,2.20
7132.00,2.19
7131.00,2.19
7130.00,2.19
7129.00,2.19
7128.00,2.18
7127.00,2.18
7126.00,2.18
7125.00,2.18
7124.00,2.17
7123.00,2.17
7122.00,2.16
7121.00,2.16
7120.00,2.15
7119.00,2.15
7118.00,2.14
7117.00,2.13
7116.00,2.12
7115.00,2.11
7114.00,2.10
7113.00,2.09
7112.00,2.08
7111.00,2.07
7110.00,2.07
7109.00,2.06
7108.00,2.05
7107.00,2.04
7106.00,2.04
7105.00,2.03
7104.00,2.02
7103.00,2.02
7102.00,2.01
7101.00,2.01
7100.00,2.00
7099.00,2.00
7098.00,1.99
7097.00,1.99
7096.00,1.99
7095.00,1.98
7094.00,1.98
7093.00,1.98
7092.00,1.98
7091.00,1.98
7090.00,1.98
7089.00,1.98
7088.00,1.98
7087.00,1.98
7086.00,1.98
7085.00,1.98
7084.00,1.98
7083.00,1.98
7082.00,1.98
7081.00,1.98
7080.00,1.97
7079.00,1.97
7078.00,1.97
7077.00,1.97
7076.00,1.97
7075.00,1.97
7074.00,1.97
7073.00,1.97
7072.00,1.96
7071.00,1.96
7070.00,1.96
7069.00,1.96
7068.00,1.96
7067.00,1.95
7066.00,1.95
7065.00,1.95
7064.00,1.95
7063.00,1.94
7062.00,1.94
7061.00,1.94
7060.00,1.94
7059.00,1.93
7058.00,1.93
7057.00,1.93
7056.00,1.92
7055.00,1.92
7054.00,1.92
7053.00,1.91
7052.00,1.91
7051.00,1.91
7050.00,1.90
7049.00,1.90
7048.00,1.89
7047.00,1.89
7046.00,1.88
7045.00,1.88
7044.00,1.87
7043.00,1.87
7042.00,1.86
7041.00,1.86
7040.00,1.85
7039.00,1.85
7038.00,1.85
7037.00,1.84
7036.00,1.84
7035.00,1.84
7034.00,1.83
7033.00,1.83
7032.00,1.82
7031.00,1.82
7030.00,1.82
7029.00,1.82
7028.00,1.81
7027.00,1.81
7026.00,1.81
7025.00,1.81
7024.00,1.81
7023.00,1.81
7022.00,1.81
7021.00,1.80
7020.00,1.80
7019.00,1.80
7018.00,1.80
7017.00,1.80
7016.00,1.80
7015.00,1.79
7014.00,1.79
7013.00,1.79
7012.00,1.79
7011.00,1.79
7010.00,1.78
7009.00,1.78
7008.00,1.78
7007.00,1.78
7006.00,1.78
7005.00,1.78
7004.00,1.77
7003.00,1.77
7002.00,1.77
7001.00,1.77
7000.00,1.77
6999.00,1.76
6998.00,1.76
6997.00,1.76
6996.00,1.76
6995.00,1.76
6994.00,1.76
6993.00,1.75
6992.00,1.75
6991.00,1.75
6990.00,1.75
6989.00,1.75
6988.00,1.75
6987.00,1.75
6986.00,1.75
6985.00,1.75
6984.00,1.75
6983.00,1.75
6982.00,1.74
6981.00,1.74
6980.00,1.74
6979.00,1.74
6978.00,1.74
6977.00,1.73
6976.00,1.73
6975.00,1.73
6974.00,1.73
6973.00,1.73
6972.00,1.72
6971.00,1.72
6970.00,1.72
6969.00,1.72
6968.00,1.72
6967.00,1.71
6966.00,1.71
6965.00,1.71
6964.00,1.71
6963.00,1.70
6962.00,1.70
6961.00,1.70
6960.00,1.70
6959.00,1.69
6958.00,1.69
6957.00,1.69
6956.00,1.69
6955.00,1.69
6954.00,1.69
6953.00,1.69
6952.00,1.69
6951.00,1.69
6950.00,1.69
6949.00,1.69
6948.00,1.69
6947.00,1.69
6946.00,1.69
6945.00,1.69
6944.00,1.69
6943.00,1.69
6942.00,1.69
6941.00,1.69
6940.00,1.69
6939.00,1.69
6938.00,1.70
6937.00,1.70
6936.00,1.70
6935.00,1.70
6934.00,1.70
6933.00,1.70
6932.00,1.70
6931.00,1.70
6930.00,1.70
6929.00,1.70
6928.00,1.71
6927.00,1.71
6926.00,1.71
6925.00,1.71
6924.00,1.71
6923.00,1.71
6922.00,1.71
6921.00,1.71
6920.00,1.71
6919.00,1.71
6918.00,1.71
6917.00,1.70
6916.00,1.70
6915.00,1.70
6914.00,1.70
6913.00,1.70
6912.00,1.70
6911.00,1.69
6910.00,1.69
6909.00,1.69
6908.00,1.69
6907.00,1.69
6906.00,1.69
6905.00,1.68
6904.00,1.68
6903.00,1.68
6902.00,1.68
6901.00,1.68
6900.00,1.68
6899.00,1.68
6898.00,1.67
6897.00,1.67
6896.00,1.67
6895.00,1.67
6894.00,1.67
6893.00,1.67
6892.00,1.67
6891.00,1.67
6890.00,1.67
6889.00,1.67
6888.00,1.67
6887.00,1.66
6886.00,1.66
6885.00,1.66
6884.00,1.66
6883.00,1.66
6882.00,1.66
6881.00,1.66
6880.00,1.66
6879.00,1.66
6878.00,1.66
6877.00,1.66
6876.00,1.66
6875.00,1.66
6874.00,1.66
6873.00,1.65
6872.00,1.65
6871.00,1.65
6870.00,1.65
6869.00,1.66
6868.00,1.66
6867.00,1.66
6866.00,1.66
6865.00,1.66
6864.00,1.66
6863.00,1.66
6862.00,1.66
6861.00,1.66
6860.00,1.66
6859.00,1.66
6858.00,1.66
6857.00,1.66
6856.00,1.66
6855.00,1.66
6854.00,1.66
6853.00,1.66
6852.00,1.66
6851.00,1.66
6850.00,1.66
6849.00,1.66
6848.00,1.66
6847.00,1.66
6846.00,1.66
6845.00,1.66
6844.00,1.66
6843.00,1.66
6842.00,1.66
6841.00,1.66
6840.00,1.66
6839.00,1.66
6838.00,1.65
6837.00,1.65
6836.00,1.65
6835.00,1.65
6834.00,1.65
6833.00,1.65
6832.00,1.65
6831.00,1.64
6830.00,1.64
6829.00,1.64
6828.00,1.64
6827.00,1.64
6826.00,1.64
6825.00,1.64
6824.00,1.64
6823.00,1.64
6822.00,1.63
6821.00,1.63
6820.00,1.63
6819.00,1.63
6818.00,1.63
6817.00,1.63
6816.00,1.63
6815.00,1.64
6814.00,1.64
6813.00,1.64
6812.00,1.64
6811.00,1.65
6810.00,1.65
6809.00,1.65
6808.00,1.65
6807.00,1.66
6806.00,1.66
6805.00,1.67
6804.00,1.67
6803.00,1.67
6802.00,1.68
6801.00,1.68
6800.00,1.69
6799.00,1.69
6798.00,1.69
6797.00,1.70
6796.00,1.70
6795.00,1.71
6794.00,1.71
6793.00,1.72
6792.00,1.72
6791.00,1.73
6790.00,1.73
6789.00,1.74
6788.00,1.74
6787.00,1.75
6786.00,1.75
6785.00,1.75
6784.00,1.76
6783.00,1.76
6782.00,1.76
6781.00,1.77
6780.00,1.77
6779.00,1.77
6778.00,1.77
6777.00,1.78
6776.00,1.78
6775.00,1.78
6774.00,1.79
6773.00,1.79
6772.00,1.79
6771.00,1.79
6770.00,1.80
6769.00,1.80
6768.00,1.80
6767.00,1.80
6766.00,1.80
6765.00,1.80
6764.00,1.80
6763.00,1.80
6762.00,1.80
6761.00,1.80
6760.00,1.79
6759.00,1.79
6758.00,1.79
6757.00,1.79
6756.00,1.79
6755.00,1.79
6754.00,1.79
6753.00,1.79
6752.00,1.79
6751.00,1.79
6750.00,1.79
6749.00,1.78
6748.00,1.78
6747.00,1.78
6746.00,1.78
6745.00,1.78
6744.00,1.78
6743.00,1.78
6742.00,1.78
6741.00,1.78
6740.00,1.78
6739.00,1.78
6738.00,1.78
6737.00,1.78
6736.00,1.78
6735.00,1.78
6734.00,1.78
6733.00,1.78
6732.00,1.78
6731.00,1.78
6730.00,1.78
6729.00,1.78
6728.00,1.78
6727.00,1.78
6726.00,1.78
6725.00,1.78
6724.00,1.78
6723.00,1.78
6722.00,1.78
6721.00,1.79
6720.00,1.79
6719.00,1.79
6718.00,1.79
6717.00,1.79
6716.00,1.80
6715.00,1.80
6714.00,1.80
6713.00,1.81
6712.00,1.81
6711.00,1.81
6710.00,1.82
6709.00,1.82
6708.00,1.83
6707.00,1.83
6706.00,1.84
6705.00,1.85
6704.00,1.85
6703.00,1.86
6702.00,1.87
6701.00,1.87
6700.00,1.88
6699.00,1.88
6698.00,1.89
6697.00,1.89
6696.00,1.90
6695.00,1.90
6694.00,1.91
6693.00,1.91
6692.00,1.91
6691.00,1.91
6690.00,1.92
6689.00,1.92
6688.00,1.92
6687.00,1.92
6686.00,1.92
6685.00,1.92
6684.00,1.92
6683.00,1.92
6682.00,1.92
6681.00,1.92
6680.00,1.92
6679.00,1.92
6678.00,1.92
6677.00,1.92
6676.00,1.91
6675.00,1.91
6674.00,1.91
6673.00,1.91
6672.00,1.91
6671.00,1.91
6670.00,1.91
6669.00,1.91
6668.00,1.92
6667.00,1.92
6666.00,1.92
6665.00,1.93
6664.00,1.93
6663.00,1.94
6662.00,1.94
6661.00,1.95
6660.00,1.95
6659.00,1.96
6658.00,1.96
6657.00,1.97
6656.00,1.97
6655.00,1.98
6654.00,1.98
6653.00,1.99
6652.00,2.00
6651.00,2.00
6650.00,2.01
6649.00,2.01
6648.00,2.02
6647.00,2.02
6646.00,2.03
6645.00,2.03
6644.00,2.03
6643.00,2.04
6642.00,2.04
6641.00,2.04
6640.00,2.04
6639.00,2.05
6638.00,2.05
6637.00,2.05
6636.00,2.05
6635.00,2.05
6634.00,2.06
6633.00,2.06
6632.00,2.06
6631.00,2.06
6630.00,2.06
6629.00,2.07
6628.00,2.07
6627.00,2.07
6626.00,2.08
6625.00,2.08
6624.00,2.08
6623.00,2.09
6622.00,2.09
6621.00,2.10
6620.00,2.10
6619.00,2.10
6618.00,2.11
6617.00,2.11
6616.00,2.12
6615.00,2.12
6614.00,2.13
6613.00,2.14
6612.00,2.14
6611.00,2.15
6610.00,2.15
6609.00,2.16
6608.00,2.16
6607.00,2.17
6606.00,2.17
6605.00,2.17
6604.00,2.18
6603.00,2.18
6602.00,2.18
6601.00,2.19
6600.00,2.19
6599.00,2.19
6598.00,2.19
6597.00,2.19
6596.00,2.20
6595.00,2.20
6594.00,2.20
6593.00,2.20
6592.00,2.20
6591.00,2.20
6590.00,2.21
6589.00,2.21
6588.00,2.21
6587.00,2.21
6586.00,2.21
6585.00,2.21
6584.00,2.21
6583.00,2.21
6582.00,2.21
6581.00,2.21
6580.00,2.21
6579.00,2.21
6578.00,2.21
6577.00,2.22
6576.00,2.22
6575.00,2.22
6574.00,2.22
6573.00,2.22
6572.00,2.22
6571.00,2.22
6570.00,2.23
6569.00,2.23
6568.00,2.23
6567.00,2.23
6566.00,2.23
6565.00,2.23
6564.00,2.24
6563.00,2.24
6562.00,2.24
6561.00,2.24
6560.00,2.24
6559.00,2.24
6558.00,2.24
6557.00,2.25
6556.00,2.25
6555.00,2.25
6554.00,2.25
6553.00,2.25
6552.00,2.25
6551.00,2.25
6550.00,2.25
6549.00,2.25
6548.00,2.25
6547.00,2.25
6546.00,2.25
6545.00,2.25
6544.00,2.25
6543.00,2.25
6542.00,2.25
6541.00,2.25
6540.00,2.25
6539.00,2.25
6538.00,2.25
6537.00,2.25
6536.00,2.25
6535.00,2.25
6534.00,2.25
6533.00,2.25
6532.00,2.25
6531.00,2.25
6530.00,2.26
6529.00,2.26
6528.00,2.26
6527.00,2.26
6526.00,2.26
6525.00,2.27
6524.00,2.27
6523.00,2.27
6522.00,2.27
6521.00,2.28
6520.00,2.28
6519.00,2.28
6518.00,2.29
6517.00,2.29
6516.00,2.29
6515.00,2.30
6514.00,2.30
6513.00,2.31
6512.00,2.31
6511.00,2.32
6510.00,2.32
6509.00,2.33
6508.00,2.33
6507.00,2.33
6506.00,2.34
6505.00,2.34
6504.00,2.34
6503.00,2.35
6502.00,2.35
6501.00,2.35
6500.00,2.35
6499.00,2.35
6498.00,2.35
6497.00,2.36
6496.00,2.36
6495.00,2.36
6494.00,2.36
6493.00,2.36
6492.00,2.36
6491.00,2.36
6490.00,2.36
6489.00,2.36
6488.00,2.36
6487.00,2.36
6486.00,2.37
6485.00,2.37
6484.00,2.37
6483.00,2.37
6482.00,2.37
6481.00,2.37
6480.00,2.37
6479.00,2.37
6478.00,2.37
6477.00,2.37
6476.00,2.37
6475.00,2.37
6474.00,2.38
6473.00,2.38
6472.00,2.38
6471.00,2.38
6470.00,2.38
6469.00,2.39
6468.00,2.39
6467.00,2.39
6466.00,2.39
6465.00,2.39
6464.00,2.39
6463.00,2.40
6462.00,2.40
6461.00,2.40
6460.00,2.40
6459.00,2.40
6458.00,2.40
6457.00,2.41
6456.00,2.41
6455.00,2.41
6454.00,2.41
6453.00,2.41
6452.00,2.41
6451.00,2.41
6450.00,2.41
6449.00,2.42
6448.00,2.42
6447.00,2.42
6446.00,2.42
6445.00,2.42
6444.00,2.42
6443.00,2.42
6442.00,2.42
6441.00,2.42
6440.00,2.42
6439.00,2.43
6438.00,2.43
6437.00,2.43
6436.00,2.43
6435.00,2.43
6434.00,2.44
6433.00,2.44
6432.00,2.44
6431.00,2.45
6430.00,2.45
6429.00,2.46
6428.00,2.46
6427.00,2.47
6426.00,2.47
6425.00,2.48
6424.00,2.49
6423.00,2.49
6422.00,2.50
6421.00,2.51
6420.00,2.51
6419.00,2.52
6418.00,2.53
6417.00,2.53
6416.00,2.54
6415.00,2.55
6414.00,2.55
6413.00,2.56
6412.00,2.57
6411.00,2.57
6410.00,2.58
6409.00,2.59
6408.00,2.59
6407.00,2.59
6406.00,2.60
6405.00,2.60
6404.00,2.61
6403.00,2.61
6402.00,2.61
6401.00,2.61
6400.00,2.61
6399.00,2.61
6398.00,2.61
6397.00,2.61
6396.00,2.61
6395.00,2.61
6394.00,2.61
6393.00,2.61
6392.00,2.61
6391.00,2.61
6390.00,2.61
6389.00,2.61
6388.00,2.61
6387.00,2.61
6386.00,2.60
6385.00,2.60
6384.00,2.60
6383.00,2.60
6382.00,2.60
6381.00,2.60
6380.00,2.60
6379.00,2.60
6378.00,2.60
6377.00,2.60
6376.00,2.61
6375.00,2.61
6374.00,2.61
6373.00,2.61
6372.00,2.62
6371.00,2.62
6370.00,2.62
6369.00,2.63
6368.00,2.63
6367.00,2.63
6366.00,2.64
6365.00,2.64
6364.00,2.65
6363.00,2.65
6362.00,2.66
6361.00,2.66
6360.00,2.67
6359.00,2.67
6358.00,2.68
6357.00,2.68
6356.00,2.68
6355.00,2.69
6354.00,2.69
6353.00,2.69
6352.00,2.69
6351.00,2.70
6350.00,2.70
6349.00,2.70
6348.00,2.70
6347.00,2.70
6346.00,2.70
6345.00,2.70
6344.00,2.70
6343.00,2.70
6342.00,2.70
6341.00,2.70
6340.00,2.70
6339.00,2.70
6338.00,2.70
6337.00,2.70
6336.00,2.70
6335.00,2.69
6334.00,2.69
6333.00,2.69
6332.00,2.69
6331.00,2.69
6330.00,2.69
6329.00,2.69
6328.00,2.69
6327.00,2.69
6326.00,2.69
6325.00,2.69
6324.00,2.69
6323.00,2.69
6322.00,2.69
6321.00,2.69
6320.00,2.69
6319.00,2.69
6318.00,2.69
6317.00,2.69
6316.00,2.70
6315.00,2.70
6314.00,2.70
6313.00,2.70
6312.00,2.71
6311.00,2.71
6310.00,2.71
6309.00,2.72
6308.00,2.72
6307.00,2.72
6306.00,2.73
6305.00,2.73
6304.00,2.73
6303.00,2.74
6302.00,2.74
6301.00,2.74
6300.00,2.75
6299.00,2.75
6298.00,2.76
6297.00,2.76
6296.00,2.76
6295.00,2.77
6294.00,2.77
6293.00,2.77
6292.00,2.78
6291.00,2.78
6290.00,2.78
6289.00,2.78
6288.00,2.78
6287.00,2.78
6286.00,2.78
6285.00,2.78
6284.00,2.78
6283.00,2.79
6282.00,2.79
6281.00,2.79
6280.00,2.79
6279.00,2.79
6278.00,2.79
6277.00,2.79
6276.00,2.79
6275.00,2.79
6274.00,2.79
6273.00,2.79
6272.00,2.79
6271.00,2.79
6270.00,2.79
6269.00,2.79
6268.00,2.79
6267.00,2.79
6266.00,2.79
6265.00,2.79
6264.00,2.79
6263.00,2.79
6262.00,2.79
6261.00,2.79
6260.00,2.80
6259.00,2.80
6258.00,2.80
6257.00,2.81
6256.00,2.81
6255.00,2.81
6254.00,2.82
6253.00,2.82
6252.00,2.82
6251.00,2.83
6250.00,2.83
6249.00,2.84
6248.00,2.84
6247.00,2.84
6246.00,2.85
6245.00,2.86
6244.00,2.86
6243.00,2.87
6242.00,2.87
6241.00,2.88
6240.00,2.88
6239.00,2.89
6238.00,2.89
6237.00,2.90
6236.00,2.90
6235.00,2.90
6234.00,2.91
6233.00,2.91
6232.00,2.91
6231.00,2.92
6230.00,2.92
6229.00,2.92
6228.00,2.92
6227.00,2.92
6226.00,2.92
6225.00,2.92
6224.00,2.92
6223.00,2.92
6222.00,2.92
6221.00,2.92
6220.00,2.91
6219.00,2.91
6218.00,2.91
6217.00,2.90
6216.00,2.90
6215.00,2.90
6214.00,2.89
6213.00,2.89
6212.00,2.88
6211.00,2.88
6210.00,2.88
6209.00,2.88
6208.00,2.87
6207.00,2.87
6206.00,2.87
6205.00,2.87
6204.00,2.87
6203.00,2.87
6202.00,2.87
6201.00,2.87
6200.00,2.88
6199.00,2.88
6198.00,2.88
6197.00,2.89
6196.00,2.89
6195.00,2.90
6194.00,2.90
6193.00,2.91
6192.00,2.92
6191.00,2.92
6190.00,2.93
6189.00,2.94
6188.00,2.95
6187.00,2.95
6186.00,2.96
6185.00,2.97
6184.00,2.98
6183.00,2.98
6182.00,2.99
6181.00,2.99
6180.00,3.00
6179.00,3.00
6178.00,3.01
6177.00,3.01
6176.00,3.01
6175.00,3.02
6174.00,3.02
6173.00,3.02
6172.00,3.03
6171.00,3.03
6170.00,3.03
6169.00,3.03
6168.00,3.03
6167.00,3.03
6166.00,3.03
6165.00,3.03
6164.00,3.03
6163.00,3.03
6162.00,3.03
6161.00,3.03
6160.00,3.03
6159.00,3.03
6158.00,3.03
6157.00,3.03
6156.00,3.03
6155.00,3.03
6154.00,3.03
6153.00,3.03
6152.00,3.03
6151.00,3.03
6150.00,3.03
6149.00,3.04
6148.00,3.04
6147.00,3.04
6146.00,3.04
6145.00,3.04
6144.00,3.04
6143.00,3.04
6142.00,3.04
6141.00,3.04
6140.00,3.04
6139.00,3.05
6138.00,3.05
6137.00,3.05
6136.00,3.05
6135.00,3.05
6134.00,3.05
6133.00,3.05
6132.00,3.06
6131.00,3.06
6130.00,3.06
6129.00,3.06
6128.00,3.06
6127.00,3.07
6126.00,3.07
6125.00,3.07
6124.00,3.07
6123.00,3.08
6122.00,3.08
6121.00,3.08
6120.00,3.09
6119.00,3.09
6118.00,3.09
6117.00,3.10
6116.00,3.10
6115.00,3.10
6114.00,3.11
6113.00,3.11
6112.00,3.11
6111.00,3.12
6110.00,3.12
6109.00,3.12
6108.00,3.13
6107.00,3.13
6106.00,3.13
6105.00,3.13
6104.00,3.14
6103.00,3.14
6102.00,3.14
6101.00,3.14
6100.00,3.14
6099.00,3.14
6098.00,3.14
6097.00,3.14
6096.00,3.14
6095.00,3.14
6094.00,3.14
6093.00,3.14
6092.00,3.14
6091.00,3.14
6090.00,3.14
6089.00,3.14
6088.00,3.14
6087.00,3.14
6086.00,3.14
6085.00,3.14
6084.00,3.14
6083.00,3.14
6082.00,3.14
6081.00,3.14
6080.00,3.14
6079.00,3.14
6078.00,3.14
6077.00,3.14
6076.00,3.14
6075.00,3.14
6074.00,3.14
6073.00,3.14
6072.00,3.15
6071.00,3.15
6070.00,3.15
6069.00,3.15
6068.00,3.15
6067.00,3.15
6066.00,3.16
6065.00,3.16
6064.00,3.16
6063.00,3.16
6062.00,3.16
6061.00,3.17
6060.00,3.17
6059.00,3.17
6058.00,3.17
6057.00,3.17
6056.00,3.18
6055.00,3.18
6054.00,3.18
6053.00,3.18
6052.00,3.19
6051.00,3.19
6050.00,3.19
6049.00,3.19
6048.00,3.19
6047.00,3.20
6046.00,3.20
6045.00,3.20
6044.00,3.20
6043.00,3.20
6042.00,3.20
6041.00,3.20
6040.00,3.21
6039.00,3.21
6038.00,3.21
6037.00,3.21
6036.00,3.21
6035.00,3.21
6034.00,3.22
6033.00,3.22
6032.00,3.22
6031.00,3.22
6030.00,3.22
6029.00,3.22
6028.00,3.22
6027.00,3.22
6026.00,3.22
6025.00,3.22
6024.00,3.22
6023.00,3.22
6022.00,3.22
6021.00,3.22
6020.00,3.22
6019.00,3.22
6018.00,3.22
6017.00,3.23
6016.00,3.23
6015.00,3.23
6014.00,3.23
6013.00,3.22
6012.00,3.22
6011.00,3.22
6010.00,3.22
6009.00,3.22
6008.00,3.22
6007.00,3.22
6006.00,3.23
6005.00,3.23
6004.00,3.23
6003.00,3.23
6002.00,3.23
6001.00,3.23
6000.00,3.23
5999.00,3.23
5998.00,3.23
5997.00,3.23
5996.00,3.23
5995.00,3.23
5994.00,3.23
5993.00,3.23
5992.00,3.23
5991.00,3.23
5990.00,3.23
5989.00,3.23
5988.00,3.23
5987.00,3.23
5986.00,3.23
5985.00,3.23
5984.00,3.23
5983.00,3.23
5982.00,3.23
5981.00,3.23
5980.00,3.23
5979.00,3.22
5978.00,3.22
5977.00,3.22
5976.00,3.22
5975.00,3.21
5974.00,3.21
5973.00,3.21
5972.00,3.20
5971.00,3.20
5970.00,3.20
5969.00,3.19
5968.00,3.19
5967.00,3.19
5966.00,3.18
5965.00,3.18
5964.00,3.17
5963.00,3.17
5962.00,3.17
5961.00,3.16
5960.00,3.16
5959.00,3.15
5958.00,3.15
5957.00,3.15
5956.00,3.14
5955.00,3.14
5954.00,3.13
5953.00,3.13
5952.00,3.13
5951.00,3.12
5950.00,3.12
5949.00,3.12
5948.00,3.11
5947.00,3.11
5946.00,3.11
5945.00,3.11
5944.00,3.10
5943.00,3.10
5942.00,3.10
5941.00,3.10
5940.00,3.10
5939.00,3.09
5938.00,3.09
5937.00,3.09
5936.00,3.09
5935.00,3.08
5934.00,3.08
5933.00,3.08
5932.00,3.07
5931.00,3.07
5930.00,3.06
5929.00,3.06
5928.00,3.06
5927.00,3.05
5926.00,3.05
5925.00,3.05
5924.00,3.04
5923.00,3.04
5922.00,3.04
5921.00,3.03
5920.00,3.03
5919.00,3.02
5918.00,3.02
5917.00,3.02
5916.00,3.01
5915.00,3.01
5914.00,3.00
5913.00,3.00
5912.00,3.00
5911.00,3.00
5910.00,3.00
5909.00,3.00
5908.00,3.00
5907.00,3.00
5906.00,3.00
5905.00,3.00
5904.00,3.00
5903.00,3.00
5902.00,3.00
5901.00,3.00
5900.00,3.00
5899.00,3.01
5898.00,3.01
5897.00,3.01
5896.00,3.01
5895.00,3.02
5894.00,3.02
5893.00,3.02
5892.00,3.03
5891.00,3.03
5890.00,3.03
5889.00,3.04
5888.00,3.04
5887.00,3.04
5886.00,3.05
5885.00,3.05
5884.00,3.05
5883.00,3.06
5882.00,3.06
5881.00,3.06
5880.00,3.07
5879.00,3.07
5878.00,3.07
5877.00,3.08
5876.00,3.08
5875.00,3.08
5874.00,3.09
5873.00,3.09
5872.00,3.10
5871.00,3.10
5870.00,3.10
5869.00,3.11
5868.00,3.11
5867.00,3.11
5866.00,3.12
5865.00,3.12
5864.00,3.12
5863.00,3.13
5862.00,3.13
5861.00,3.13
5860.00,3.13
5859.00,3.13
5858.00,3.13
5857.00,3.14
5856.00,3.14
5855.00,3.14
5854.00,3.14
5853.00,3.14
5852.00,3.14
5851.00,3.14
5850.00,3.14
5849.00,3.14
5848.00,3.14
5847.00,3.14
5846.00,3.14
5845.00,3.14
5844.00,3.14
5843.00,3.14
5842.00,3.13
5841.00,3.13
5840.00,3.13
5839.00,3.13
5838.00,3.13
5837.00,3.13
5836.00,3.13
5835.00,3.13
5834.00,3.13
5833.00,3.13
5832.00,3.13
5831.00,3.13
5830.00,3.13
5829.00,3.13
5828.00,3.13
5827.00,3.12
5826.00,3.12
5825.00,3.12
5824.00,3.12
5823.00,3.12
5822.00,3.12
5821.00,3.12
5820.00,3.12
5819.00,3.12
5818.00,3.12
5817.00,3.12
5816.00,3.11
5815.00,3.11
5814.00,3.11
5813.00,3.11
5812.00,3.11
5811.00,3.11
5810.00,3.11
5809.00,3.11
5808.00,3.11
5807.00,3.11
5806.00,3.11
5805.00,3.11
5804.00,3.11
5803.00,3.11
5802.00,3.11
5801.00,3.11
5800.00,3.10
5799.00,3.10
5798.00,3.10
5797.00,3.10
5796.00,3.10
5795.00,3.10
5794.00,3.10
5793.00,3.10
5792.00,3.09
5791.00,3.09
5790.00,3.09
5789.00,3.08
5788.00,3.08
5787.00,3.08
5786.00,3.08
5785.00,3.07
5784.00,3.07
5783.00,3.07
5782.00,3.06
5781.00,3.06
5780.00,3.06
5779.00,3.06
5778.00,3.06
5777.00,3.05
5776.00,3.05
5775.00,3.05
5774.00,3.05
5773.00,3.05
5772.00,3.05
5771.00,3.05
5770.00,3.05
5769.00,3.05
5768.00,3.05
5767.00,3.05
5766.00,3.05
5765.00,3.05
5764.00,3.05
5763.00,3.05
5762.00,3.06
5761.00,3.06
5760.00,3.06
5759.00,3.06
5758.00,3.07
5757.00,3.07
5756.00,3.08
5755.00,3.08
5754.00,3.08
5753.00,3.09
5752.00,3.09
5751.00,3.09
5750.00,3.10
5749.00,3.10
5748.00,3.10
5747.00,3.11
5746.00,3.11
5745.00,3.11
5744.00,3.12
5743.00,3.12
5742.00,3.12
5741.00,3.12
5740.00,3.12
5739.00,3.13
5738.00,3.13
5737.00,3.13
5736.00,3.13
5735.00,3.13
5734.00,3.13
5733.00,3.13
5732.00,3.13
5731.00,3.13
5730.00,3.13
5729.00,3.13
5728.00,3.13
5727.00,3.13
5726.00,3.13
5725.00,3.13
5724.00,3.12
5723.00,3.12
5722.00,3.12
5721.00,3.12
5720.00,3.12
5719.00,3.12
5718.00,3.12
5717.00,3.12
5716.00,3.11
5715.00,3.11
5714.00,3.11
5713.00,3.11
5712.00,3.11
5711.00,3.11
5710.00,3.11
5709.00,3.10
5708.00,3.10
5707.00,3.10
5706.00,3.10
5705.00,3.10
5704.00,3.10
5703.00,3.10
5702.00,3.09
5701.00,3.09
5700.00,3.09
5699.00,3.09
5698.00,3.09
5697.00,3.09
5696.00,3.08
5695.00,3.08
5694.00,3.08
5693.00,3.07
5692.00,3.07
5691.00,3.07
5690.00,3.07
5689.00,3.06
5688.00,3.06
5687.00,3.06
5686.00,3.06
5685.00,3.05
5684.00,3.05
5683.00,3.05
5682.00,3.05
5681.00,3.04
5680.00,3.04
5679.00,3.04
5678.00,3.03
5677.00,3.03
5676.00,3.03
5675.00,3.02
5674.00,3.02
5673.00,3.02
5672.00,3.02
5671.00,3.01
5670.00,3.01
5669.00,3.01
5668.00,3.01
5667.00,3.01
5666.00,3.01
5665.00,3.01
5664.00,3.01
5663.00,3.01
5662.00,3.01
5661.00,3.01
5660.00,3.01
5659.00,3.01
5658.00,3.01
5657.00,3.01
5656.00,3.01
5655.00,3.02
5654.00,3.02
5653.00,3.02
5652.00,3.02
5651.00,3.02
5650.00,3.03
5649.00,3.03
5648.00,3.03
5647.00,3.04
5646.00,3.04
5645.00,3.04
5644.00,3.05
5643.00,3.05
5642.00,3.05
5641.00,3.06
5640.00,3.06
5639.00,3.06
5638.00,3.06
5637.00,3.07
5636.00,3.07
5635.00,3.07
5634.00,3.08
5633.00,3.08
5632.00,3.08
5631.00,3.08
5630.00,3.08
5629.00,3.09
5628.00,3.09
5627.00,3.09
5626.00,3.09
5625.00,3.09
5624.00,3.10
5623.00,3.10
5622.00,3.10
5621.00,3.10
5620.00,3.10
5619.00,3.10
5618.00,3.11
5617.00,3.11
5616.00,3.11
5615.00,3.11
5614.00,3.11
5613.00,3.11
5612.00,3.11
5611.00,3.11
5610.00,3.12
5609.00,3.12
5608.00,3.12
5607.00,3.12
5606.00,3.12
5605.00,3.12
5604.00,3.12
5603.00,3.12
5602.00,3.12
5601.00,3.12
5600.00,3.13
5599.00,3.13
5598.00,3.13
5597.00,3.13
5596.00,3.13
5595.00,3.13
5594.00,3.13
5593.00,3.13
5592.00,3.13
5591.00,3.13
5590.00,3.14
5589.00,3.14
5588.00,3.14
5587.00,3.14
5586.00,3.14
5585.00,3.14
5584.00,3.15
5583.00,3.15
5582.00,3.15
5581.00,3.15
5580.00,3.15
5579.00,3.15
5578.00,3.16
5577.00,3.16
5576.00,3.16
5575.00,3.16
5574.00,3.17
5573.00,3.17
5572.00,3.17
5571.00,3.17
5570.00,3.18
5569.00,3.18
5568.00,3.18
5567.00,3.18
5566.00,3.19
5565.00,3.19
5564.00,3.19
5563.00,3.19
5562.00,3.19
5561.00,3.20
5560.00,3.20
5559.00,3.20
5558.00,3.20
5557.00,3.20
5556.00,3.20
5555.00,3.20
5554.00,3.20
5553.00,3.20
5552.00,3.20
5551.00,3.20
5550.00,3.20
5549.00,3.20
5548.00,3.20
5547.00,3.20
5546.00,3.20
5545.00,3.20
5544.00,3.20
5543.00,3.20
5542.00,3.20
5541.00,3.20
5540.00,3.20
5539.00,3.20
5538.00,3.20
5537.00,3.20
5536.00,3.20
5535.00,3.20
5534.00,3.20
5533.00,3.20
5532.00,3.20
5531.00,3.20
5530.00,3.20
5529.00,3.20
5528.00,3.21
5527.00,3.21
5526.00,3.21
5525.00,3.21
5524.00,3.21
5523.00,3.22
5522.00,3.22
5521.00,3.22
5520.00,3.22
5519.00,3.22
5518.00,3.22
5517.00,3.22
5516.00,3.22
5515.00,3.22
5514.00,3.22
5513.00,3.22
5512.00,3.22
5511.00,3.22
5510.00,3.22
5509.00,3.22
5508.00,3.22
5507.00,3.22
5506.00,3.22
5505.00,3.22
5504.00,3.22
5503.00,3.22
5502.00,3.22
5501.00,3.22
5500.00,3.22
5499.00,3.22
5498.00,3.22
5497.00,3.21
5496.00,3.21
5495.00,3.21
5494.00,3.21
5493.00,3.21
5492.00,3.20
5491.00,3.20
5490.00,3.20
5489.00,3.20
5488.00,3.20
5487.00,3.20
5486.00,3.20
5485.00,3.19
5484.00,3.19
5483.00,3.19
5482.00,3.19
5481.00,3.19
5480.00,3.18
5479.00,3.18
5478.00,3.18
5477.00,3.18
5476.00,3.17
5475.00,3.17
5474.00,3.17
5473.00,3.17
5472.00,3.17
5471.00,3.17
5470.00,3.17
5469.00,3.17
5468.00,3.17
5467.00,3.17
5466.00,3.16
5465.00,3.16
5464.00,3.16
5463.00,3.16
5462.00,3.16
5461.00,3.16
5460.00,3.16
5459.00,3.15
5458.00,3.15
5457.00,3.15
5456.00,3.15
5455.00,3.15
5454.00,3.15
5453.00,3.15
5452.00,3.15
5451.00,3.16
5450.00,3.16
5449.00,3.16
5448.00,3.15
5447.00,3.15
5446.00,3.15
5445.00,3.15
5444.00,3.15
5443.00,3.15
5442.00,3.15
5441.00,3.15
5440.00,3.16
5439.00,3.16
5438.00,3.16
5437.00,3.17
5436.00,3.17
5435.00,3.18
5434.00,3.18
5433.00,3.18
5432.00,3.19
5431.00,3.19
5430.00,3.19
5429.00,3.19
5428.00,3.20
5427.00,3.20
5426.00,3.20
5425.00,3.20
5424.00,3.20
5423.00,3.21
5422.00,3.21
5421.00,3.21
5420.00,3.22
5419.00,3.22
5418.00,3.22
5417.00,3.22
5416.00,3.22
5415.00,3.22
5414.00,3.22
5413.00,3.22
5412.00,3.22
5411.00,3.21
5410.00,3.21
5409.00,3.21
5408.00,3.20
5407.00,3.20
5406.00,3.19
5405.00,3.19
5404.00,3.18
5403.00,3.18
5402.00,3.17
5401.00,3.17
5400.00,3.16
5399.00,3.16
5398.00,3.15
5397.00,3.14
5396.00,3.14
5395.00,3.13
5394.00,3.12
5393.00,3.12
5392.00,3.11
5391.00,3.10
5390.00,3.10
5389.00,3.09
5388.00,3.08
5387.00,3.08
5386.00,3.07
5385.00,3.07
5384.00,3.06
5383.00,3.06
5382.00,3.06
5381.00,3.05
5380.00,3.05
5379.00,3.04
5378.00,3.04
5377.00,3.03
5376.00,3.03
5375.00,3.02
5374.00,3.02
5373.00,3.01
5372.00,3.00
5371.00,3.00
5370.00,2.99
5369.00,2.98
5368.00,2.97
5367.00,2.96
5366.00,2.95
5365.00,2.94
5364.00,2.93
5363.00,2.91
5362.00,2.90
5361.00,2.88
5360.00,2.86
5359.00,2.85
5358.00,2.83
5357.00,2.81
5356.00,2.79
5355.00,2.77
5354.00,2.75
5353.00,2.73
5352.00,2.71
5351.00,2.68
5350.00,2.66
5349.00,2.64
5348.00,2.62
5347.00,2.60
5346.00,2.58
5345.00,2.56
5344.00,2.54
5343.00,2.52
5342.00,2.50
5341.00,2.48
5340.00,2.46
5339.00,2.44
5338.00,2.43
5337.00,2.41
5336.00,2.39
5335.00,2.38
5334.00,2.36
5333.00,2.35
5332.00,2.33
5331.00,2.32
5330.00,2.30
5329.00,2.29
5328.00,2.27
5327.00,2.26
5326.00,2.24
5325.00,2.23
5324.00,2.21
5323.00,2.19
5322.00,2.18
5321.00,2.16
5320.00,2.14
5319.00,2.13
5318.00,2.11
5317.00,2.09
5316.00,2.07
5315.00,2.05
5314.00,2.03
5313.00,2.01
5312.00,1.99
5311.00,1.97
5310.00,1.95
5309.00,1.93
5308.00,1.91
5307.00,1.89
5306.00,1.87
5305.00,1.85
5304.00,1.83
5303.00,1.81
5302.00,1.79
5301.00,1.78
5300.00,1.76
5299.00,1.74
5298.00,1.73
5297.00,1.71
5296.00,1.69
5295.00,1.68
5294.00,1.66
5293.00,1.65
5292.00,1.63
5291.00,1.62
5290.00,1.60
5289.00,1.59
5288.00,1.58
5287.00,1.56
5286.00,1.55
5285.00,1.54
5284.00,1.53
5283.00,1.52
5282.00,1.51
5281.00,1.50
5280.00,1.49
5279.00,1.48
5278.00,1.47
5277.00,1.46
5276.00,1.45
5275.00,1.44
5274.00,1.43
5273.00,1.42
5272.00,1.41
5271.00,1.41
5270.00,1.40
5269.00,1.39
5268.00,1.38
5267.00,1.38
5266.00,1.37
5265.00,1.37
5264.00,1.36
5263.00,1.36
5262.00,1.35
5261.00,1.35
5260.00,1.35
5259.00,1.35
5258.00,1.34
5257.00,1.34
5256.00,1.34
5255.00,1.34
5254.00,1.33
5253.00,1.33
5252.00,1.33
5251.00,1.33
5250.00,1.33
5249.00,1.33
5248.00,1.33
5247.00,1.33
5246.00,1.33
5245.00,1.33
5244.00,1.33
5243.00,1.33
5242.00,1.33
5241.00,1.33
5240.00,1.33
5239.00,1.33
5238.00,1.33
5237.00,1.32
5236.00,1.32
5235.00,1.32
5234.00,1.32
5233.00,1.31
5232.00,1.31
5231.00,1.31
5230.00,1.30
5229.00,1.30
5228.00,1.30
5227.00,1.29
5226.00,1.29
5225.00,1.29
5224.00,1.28
5223.00,1.28
5222.00,1.27
5221.00,1.27
5220.00,1.26
5219.00,1.26
5218.00,1.26
5217.00,1.25
5216.00,1.25
5215.00,1.25
5214.00,1.24
5213.00,1.24
5212.00,1.24
5211.00,1.24
5210.00,1.24
5209.00,1.23
5208.00,1.23
5207.00,1.23
5206.00,1.23
5205.00,1.23
5204.00,1.23
5203.00,1.23
5202.00,1.23
5201.00,1.23
5200.00,1.23
5199.00,1.23
5198.00,1.23
5197.00,1.23
5196.00,1.24
5195.00,1.24
5194.00,1.24
5193.00,1.24
5192.00,1.25
5191.00,1.25
5190.00,1.25
5189.00,1.25
5188.00,1.25
5187.00,1.26
5186.00,1.26
5185.00,1.26
5184.00,1.26
5183.00,1.26
5182.00,1.26
5181.00,1.27
5180.00,1.27
5179.00,1.27
5178.00,1.27
5177.00,1.27
5176.00,1.27
5175.00,1.28
5174.00,1.28
5173.00,1.28
5172.00,1.28
5171.00,1.28
5170.00,1.28
5169.00,1.28
5168.00,1.28
5167.00,1.28
5166.00,1.28
5165.00,1.28
5164.00,1.28
5163.00,1.28
5162.00,1.28
5161.00,1.28
5160.00,1.28
5159.00,1.28
5158.00,1.28
5157.00,1.28
5156.00,1.28
5155.00,1.28
5154.00,1.28
5153.00,1.28
5152.00,1.28
5151.00,1.28
5150.00,1.28
5149.00,1.28
5148.00,1.28
5147.00,1.28
5146.00,1.28
5145.00,1.28
5144.00,1.28
5143.00,1.28
5142.00,1.28
5141.00,1.28
5140.00,1.28
5139.00,1.28
5138.00,1.28
5137.00,1.28
5136.00,1.28
5135.00,1.28
5134.00,1.28
5133.00,1.28
5132.00,1.28
5131.00,1.28
5130.00,1.28
5129.00,1.28
5128.00,1.28
5127.00,1.28
5126.00,1.28
5125.00,1.28
5124.00,1.28
5123.00,1.28
5122.00,1.28
5121.00,1.28
5120.00,1.28
5119.00,1.28
5118.00,1.28
5117.00,1.28
5116.00,1.28
5115.00,1.29
5114.00,1.29
5113.00,1.29
5112.00,1.30
5111.00,1.30
5110.00,1.31
5109.00,1.31
5108.00,1.31
5107.00,1.32
5106.00,1.32
5105.00,1.33
5104.00,1.33
5103.00,1.34
5102.00,1.34
5101.00,1.35
5100.00,1.35
5099.00,1.36
5098.00,1.36
5097.00,1.37
5096.00,1.37
5095.00,1.38
5094.00,1.38
5093.00,1.38
5092.00,1.39
5091.00,1.39
5090.00,1.39
5089.00,1.40
5088.00,1.40
5087.00,1.40
5086.00,1.40
5085.00,1.40
5084.00,1.41
5083.00,1.41
5082.00,1.41
5081.00,1.41
5080.00,1.41
5079.00,1.41
5078.00,1.41
5077.00,1.41
5076.00,1.41
5075.00,1.41
5074.00,1.41
5073.00,1.41
5072.00,1.41
5071.00,1.41
5070.00,1.42
5069.00,1.42
5068.00,1.42
5067.00,1.42
5066.00,1.42
5065.00,1.43
5064.00,1.43
5063.00,1.43
5062.00,1.44
5061.00,1.44
5060.00,1.44
5059.00,1.45
5058.00,1.45
5057.00,1.46
5056.00,1.46
5055.00,1.47
5054.00,1.47
5053.00,1.48
5052.00,1.48
5051.00,1.48
5050.00,1.49
5049.00,1.49
5048.00,1.49
5047.00,1.50
5046.00,1.50
5045.00,1.50
5044.00,1.50
5043.00,1.50
5042.00,1.51
5041.00,1.51
5040.00,1.51
5039.00,1.51
5038.00,1.51
5037.00,1.51
5036.00,1.51
5035.00,1.51
5034.00,1.51
5033.00,1.50
5032.00,1.50
5031.00,1.50
5030.00,1.50
5029.00,1.50
5028.00,1.50
5027.00,1.50
5026.00,1.50
5025.00,1.50
5024.00,1.50
5023.00,1.50
5022.00,1.50
5021.00,1.50
5020.00,1.50
5019.00,1.50
5018.00,1.51
5017.00,1.51
5016.00,1.51
5015.00,1.51
5014.00,1.52
5013.00,1.52
5012.00,1.52
5011.00,1.53
5010.00,1.53
5009.00,1.54
5008.00,1.54
5007.00,1.55
5006.00,1.55
5005.00,1.56
5004.00,1.56
5003.00,1.57
5002.00,1.57
5001.00,1.58
5000.00,1.58
4999.00,1.58
4998.00,1.59
4997.00,1.59
4996.00,1.59
4995.00,1.60
4994.00,1.60
4993.00,1.61
4992.00,1.61
4991.00,1.61
4990.00,1.62
4989.00,1.62
4988.00,1.62
4987.00,1.62
4986.00,1.63
4985.00,1.63
4984.00,1.63
4983.00,1.63
4982.00,1.64
4981.00,1.64
4980.00,1.64
4979.00,1.64
4978.00,1.65
4977.00,1.65
4976.00,1.66
4975.00,1.66
4974.00,1.66
4973.00,1.67
4972.00,1.67
4971.00,1.68
4970.00,1.68
4969.00,1.69
4968.00,1.69
4967.00,1.70
4966.00,1.70
4965.00,1.71
4964.00,1.71
4963.00,1.72
4962.00,1.72
4961.00,1.73
4960.00,1.73
4959.00,1.73
4958.00,1.74
4957.00,1.74
4956.00,1.75
4955.00,1.75
4954.00,1.76
4953.00,1.76
4952.00,1.76
4951.00,1.77
4950.00,1.77
4949.00,1.77
4948.00,1.77
4947.00,1.77
4946.00,1.78
4945.00,1.78
4944.00,1.78
4943.00,1.78
4942.00,1.79
4941.00,1.79
4940.00,1.79
4939.00,1.80
4938.00,1.80
4937.00,1.80
4936.00,1.81
4935.00,1.81
4934.00,1.81
4933.00,1.81
4932.00,1.82
4931.00,1.82
4930.00,1.82
4929.00,1.83
4928.00,1.83
4927.00,1.84
4926.00,1.84
4925.00,1.85
4924.00,1.85
4923.00,1.85
4922.00,1.86
4921.00,1.86
4920.00,1.87
4919.00,1.87
4918.00,1.88
4917.00,1.88
4916.00,1.89
4915.00,1.89
4914.00,1.90
4913.00,1.90
4912.00,1.91
4911.00,1.91
4910.00,1.92
4909.00,1.92
4908.00,1.93
4907.00,1.93
4906.00,1.94
4905.00,1.94
4904.00,1.94
4903.00,1.95
4902.00,1.95
4901.00,1.95
4900.00,1.96
4899.00,1.96
4898.00,1.96
4897.00,1.96
4896.00,1.97
4895.00,1.97
4894.00,1.97
4893.00,1.97
4892.00,1.97
4891.00,1.97
4890.00,1.97
4889.00,1.97
4888.00,1.97
4887.00,1.98
4886.00,1.98
4885.00,1.98
4884.00,1.98
4883.00,1.98
4882.00,1.98
4881.00,1.98
4880.00,1.98
4879.00,1.98
4878.00,1.98
4877.00,1.99
4876.00,1.99
4875.00,1.99
4874.00,1.99
4873.00,2.00
4872.00,2.00
4871.00,2.00
4870.00,2.00
4869.00,2.01
4868.00,2.01
4867.00,2.01
4866.00,2.02
4865.00,2.02
4864.00,2.03
4863.00,2.03
4862.00,2.04
4861.00,2.04
4860.00,2.04
4859.00,2.05
4858.00,2.05
4857.00,2.06
4856.00,2.06
4855.00,2.06
4854.00,2.07
4853.00,2.07
4852.00,2.07
4851.00,2.08
4850.00,2.08
4849.00,2.08
4848.00,2.09
4847.00,2.09
4846.00,2.09
4845.00,2.10
4844.00,2.10
4843.00,2.10
4842.00,2.11
4841.00,2.11
4840.00,2.11
4839.00,2.11
4838.00,2.12
4837.00,2.12
4836.00,2.12
4835.00,2.12
4834.00,2.13
4833.00,2.13
4832.00,2.13
4831.00,2.13
4830.00,2.14
4829.00,2.14
4828.00,2.14
4827.00,2.14
4826.00,2.15
4825.00,2.15
4824.00,2.15
4823.00,2.16
4822.00,2.16
4821.00,2.17
4820.00,2.17
4819.00,2.18
4818.00,2.18
4817.00,2.19
4816.00,2.19
4815.00,2.20
4814.00,2.20
4813.00,2.21
4812.00,2.21
4811.00,2.22
4810.00,2.22
4809.00,2.23
4808.00,2.24
4807.00,2.24
4806.00,2.25
4805.00,2.26
4804.00,2.26
4803.00,2.27
4802.00,2.28
4801.00,2.28
4800.00,2.29
4799.00,2.30
4798.00,2.30
4797.00,2.31
4796.00,2.31
4795.00,2.32
4794.00,2.33
4793.00,2.33
4792.00,2.34
4791.00,2.34
4790.00,2.34
4789.00,2.35
4788.00,2.35
4787.00,2.36
4786.00,2.36
4785.00,2.37
4784.00,2.37
4783.00,2.37
4782.00,2.38
4781.00,2.38
4780.00,2.38
4779.00,2.39
4778.00,2.39
4777.00,2.40
4776.00,2.40
4775.00,2.40
4774.00,2.40
4773.00,2.41
4772.00,2.41
4771.00,2.41
4770.00,2.41
4769.00,2.42
4768.00,2.42
4767.00,2.42
4766.00,2.42
4765.00,2.42
4764.00,2.43
4763.00,2.43
4762.00,2.43
4761.00,2.44
4760.00,2.44
4759.00,2.44
4758.00,2.44
4757.00,2.44
4756.00,2.45
4755.00,2.45
4754.00,2.45
4753.00,2.45
4752.00,2.45
4751.00,2.46
4750.00,2.46
4749.00,2.46
4748.00,2.47
4747.00,2.47
4746.00,2.48
4745.00,2.48
4744.00,2.49
4743.00,2.49
4742.00,2.50
4741.00,2.51
4740.00,2.52
4739.00,2.52
4738.00,2.53
4737.00,2.54
4736.00,2.55
4735.00,2.56
4734.00,2.57
4733.00,2.58
4732.00,2.59
4731.00,2.59
4730.00,2.60
4729.00,2.61
4728.00,2.62
4727.00,2.63
4726.00,2.64
4725.00,2.65
4724.00,2.66
4723.00,2.67
4722.00,2.68
4721.00,2.68
4720.00,2.69
4719.00,2.70
4718.00,2.71
4717.00,2.71
4716.00,2.72
4715.00,2.72
4714.00,2.73
4713.00,2.73
4712.00,2.73
4711.00,2.73
4710.00,2.73
4709.00,2.73
4708.00,2.74
4707.00,2.74
4706.00,2.74
4705.00,2.74
4704.00,2.74
4703.00,2.75
4702.00,2.75
4701.00,2.75
4700.00,2.76
4699.00,2.76
4698.00,2.76
4697.00,2.77
4696.00,2.77
4695.00,2.77
4694.00,2.78
4693.00,2.78
4692.00,2.79
4691.00,2.79
4690.00,2.80
4689.00,2.80
4688.00,2.81
4687.00,2.82
4686.00,2.83
4685.00,2.84
4684.00,2.84
4683.00,2.85
4682.00,2.86
4681.00,2.87
4680.00,2.87
4679.00,2.88
4678.00,2.88
4677.00,2.89
4676.00,2.89
4675.00,2.90
4674.00,2.90
4673.00,2.90
4672.00,2.91
4671.00,2.91
4670.00,2.91
4669.00,2.92
4668.00,2.92
4667.00,2.92
4666.00,2.92
4665.00,2.92
4664.00,2.93
4663.00,2.93
4662.00,2.93
4661.00,2.93
4660.00,2.93
4659.00,2.92
4658.00,2.92
4657.00,2.92
4656.00,2.92
4655.00,2.92
4654.00,2.92
4653.00,2.92
4652.00,2.93
4651.00,2.93
4650.00,2.93
4649.00,2.93
4648.00,2.93
4647.00,2.94
4646.00,2.94
4645.00,2.94
4644.00,2.95
4643.00,2.95
4642.00,2.95
4641.00,2.96
4640.00,2.96
4639.00,2.96
4638.00,2.96
4637.00,2.97
4636.00,2.97
4635.00,2.97
4634.00,2.98
4633.00,2.98
4632.00,2.99
4631.00,2.99
4630.00,3.00
4629.00,3.01
4628.00,3.01
4627.00,3.02
4626.00,3.02
4625.00,3.03
4624.00,3.03
4623.00,3.04
4622.00,3.04
4621.00,3.04
4620.00,3.05
4619.00,3.05
4618.00,3.05
4617.00,3.06
4616.00,3.06
4615.00,3.06
4614.00,3.07
4613.00,3.07
4612.00,3.07
4611.00,3.08
4610.00,3.08
4609.00,3.08
4608.00,3.09
4607.00,3.09
4606.00,3.09
4605.00,3.09
4604.00,3.09
4603.00,3.09
4602.00,3.09
4601.00,3.09
4600.00,3.09
4599.00,3.09
4598.00,3.09
4597.00,3.09
4596.00,3.09
4595.00,3.09
4594.00,3.09
4593.00,3.09
4592.00,3.09
4591.00,3.09
4590.00,3.08
4589.00,3.08
4588.00,3.08
4587.00,3.08
4586.00,3.08
4585.00,3.08
4584.00,3.07
4583.00,3.07
4582.00,3.07
4581.00,3.07
4580.00,3.07
4579.00,3.07
4578.00,3.07
4577.00,3.07
4576.00,3.06
4575.00,3.06
4574.00,3.06
4573.00,3.06
4572.00,3.06
4571.00,3.06
4570.00,3.06
4569.00,3.06
4568.00,3.07
4567.00,3.07
4566.00,3.07
4565.00,3.07
4564.00,3.08
4563.00,3.08
4562.00,3.09
4561.00,3.09
4560.00,3.10
4559.00,3.11
4558.00,3.11
4557.00,3.12
4556.00,3.12
4555.00,3.13
4554.00,3.14
4553.00,3.14
4552.00,3.15
4551.00,3.15
4550.00,3.16
4549.00,3.16
4548.00,3.17
4547.00,3.17
4546.00,3.17
4545.00,3.18
4544.00,3.18
4543.00,3.19
4542.00,3.19
4541.00,3.19
4540.00,3.19
4539.00,3.19
4538.00,3.19
4537.00,3.19
4536.00,3.19
4535.00,3.19
4534.00,3.19
4533.00,3.19
4532.00,3.19
4531.00,3.19
4530.00,3.19
4529.00,3.19
4528.00,3.19
4527.00,3.19
4526.00,3.19
4525.00,3.19
4524.00,3.19
4523.00,3.19
4522.00,3.19
4521.00,3.19
4520.00,3.19
4519.00,3.19
4518.00,3.19
4517.00,3.19
4516.00,3.19
4515.00,3.19
4514.00,3.20
4513.00,3.20
4512.00,3.20
4511.00,3.20
4510.00,3.20
4509.00,3.20
4508.00,3.20
4507.00,3.20
4506.00,3.19
4505.00,3.19
4504.00,3.19
4503.00,3.19
4502.00,3.19
4501.00,3.18
4500.00,3.18
4499.00,3.18
4498.00,3.18
4497.00,3.18
4496.00,3.18
4495.00,3.18
4494.00,3.18
4493.00,3.17
4492.00,3.17
4491.00,3.17
4490.00,3.17
4489.00,3.17
4488.00,3.17
4487.00,3.17
4486.00,3.17
4485.00,3.17
4484.00,3.17
4483.00,3.17
4482.00,3.17
4481.00,3.17
4480.00,3.17
4479.00,3.17
4478.00,3.17
4477.00,3.17
4476.00,3.17
4475.00,3.17
4474.00,3.17
4473.00,3.17
4472.00,3.17
4471.00,3.16
4470.00,3.16
4469.00,3.16
4468.00,3.15
4467.00,3.15
4466.00,3.15
4465.00,3.14
4464.00,3.14
4463.00,3.13
4462.00,3.13
4461.00,3.12
4460.00,3.11
4459.00,3.11
4458.00,3.10
4457.00,3.09
4456.00,3.08
4455.00,3.07
4454.00,3.07
4453.00,3.06
4452.00,3.05
4451.00,3.04
4450.00,3.02
4449.00,3.01
4448.00,3.00
4447.00,2.99
4446.00,2.97
4445.00,2.96
4444.00,2.94
4443.00,2.93
4442.00,2.91
4441.00,2.90
4440.00,2.88
4439.00,2.86
4438.00,2.85
4437.00,2.83
4436.00,2.81
4435.00,2.79
4434.00,2.78
4433.00,2.76
4432.00,2.74
4431.00,2.73
4430.00,2.71
4429.00,2.69
4428.00,2.68
4427.00,2.66
4426.00,2.64
4425.00,2.63
4424.00,2.62
4423.00,2.60
4422.00,2.59
4421.00,2.58
4420.00,2.57
4419.00,2.56
4418.00,2.55
4417.00,2.54
4416.00,2.54
4415.00,2.53
4414.00,2.53
4413.00,2.53
4412.00,2.53
4411.00,2.52
4410.00,2.53
4409.00,2.53
4408.00,2.53
4407.00,2.53
4406.00,2.53
4405.00,2.54
4404.00,2.54
4403.00,2.55
4402.00,2.55
4401.00,2.56
4400.00,2.56
4399.00,2.57
4398.00,2.57
4397.00,2.58
4396.00,2.59
4395.00,2.59
4394.00,2.60
4393.00,2.60
4392.00,2.61
4391.00,2.62
4390.00,2.62
4389.00,2.63
4388.00,2.63
4387.00,2.64
4386.00,2.64
4385.00,2.64
4384.00,2.65
4383.00,2.65
4382.00,2.65
4381.00,2.65
4380.00,2.65
4379.00,2.65
4378.00,2.65
4377.00,2.65
4376.00,2.65
4375.00,2.65
4374.00,2.65
4373.00,2.65
4372.00,2.64
4371.00,2.64
4370.00,2.64
4369.00,2.63
4368.00,2.63
4367.00,2.63
4366.00,2.62
4365.00,2.62
4364.00,2.62
4363.00,2.61
4362.00,2.61
4361.00,2.61
4360.00,2.60
4359.00,2.60
4358.00,2.60
4357.00,2.60
4356.00,2.59
4355.00,2.59
4354.00,2.59
4353.00,2.59
4352.00,2.59
4351.00,2.59
4350.00,2.59
4349.00,2.59
4348.00,2.59
4347.00,2.60
4346.00,2.60
4345.00,2.60
4344.00,2.61
4343.00,2.61
4342.00,2.62
4341.00,2.62
4340.00,2.62
4339.00,2.63
4338.00,2.63
4337.00,2.64
4336.00,2.65
4335.00,2.65
4334.00,2.66
4333.00,2.67
4332.00,2.68
4331.00,2.68
4330.00,2.69
4329.00,2.70
4328.00,2.72
4327.00,2.73
4326.00,2.74
4325.00,2.75
4324.00,2.76
4323.00,2.77
4322.00,2.78
4321.00,2.80
4320.00,2.81
4319.00,2.82
4318.00,2.83
4317.00,2.84
4316.00,2.85
4315.00,2.86
4314.00,2.87
4313.00,2.88
4312.00,2.89
4311.00,2.90
4310.00,2.91
4309.00,2.92
4308.00,2.93
4307.00,2.94
4306.00,2.94
4305.00,2.95
4304.00,2.96
4303.00,2.96
4302.00,2.97
4301.00,2.97
4300.00,2.97
4299.00,2.98
4298.00,2.98
4297.00,2.99
4296.00,2.99
4295.00,2.99
4294.00,3.00
4293.00,3.00
4292.00,3.01
4291.00,3.01
4290.00,3.01
4289.00,3.02
4288.00,3.02
4287.00,3.03
4286.00,3.03
4285.00,3.03
4284.00,3.04
4283.00,3.04
4282.00,3.04
4281.00,3.04
4280.00,3.05
4279.00,3.05
4278.00,3.05
4277.00,3.05
4276.00,3.06
4275.00,3.06
4274.00,3.06
4273.00,3.06
4272.00,3.06
4271.00,3.06
4270.00,3.06
4269.00,3.06
4268.00,3.06
4267.00,3.06
4266.00,3.06
4265.00,3.06
4264.00,3.05
4263.00,3.05
4262.00,3.05
4261.00,3.04
4260.00,3.04
4259.00,3.03
4258.00,3.03
4257.00,3.02
4256.00,3.02
4255.00,3.02
4254.00,3.01
4253.00,3.01
4252.00,3.00
4251.00,3.00
4250.00,3.00
4249.00,2.99
4248.00,2.99
4247.00,2.98
4246.00,2.98
4245.00,2.98
4244.00,2.97
4243.00,2.97
4242.00,2.97
4241.00,2.97
4240.00,2.96
4239.00,2.96
4238.00,2.95
4237.00,2.95
4236.00,2.95
4235.00,2.95
4234.00,2.95
4233.00,2.95
4232.00,2.95
4231.00,2.96
4230.00,2.96
4229.00,2.96
4228.00,2.96
4227.00,2.96
4226.00,2.97
4225.00,2.97
4224.00,2.97
4223.00,2.98
4222.00,2.98
4221.00,2.99
4220.00,2.99
4219.00,3.00
4218.00,3.00
4217.00,3.01
4216.00,3.01
4215.00,3.02
4214.00,3.02
4213.00,3.03
4212.00,3.03
4211.00,3.04
4210.00,3.04
4209.00,3.05
4208.00,3.05
4207.00,3.05
4206.00,3.06
4205.00,3.06
4204.00,3.06
4203.00,3.06
4202.00,3.06
4201.00,3.07
4200.00,3.07
4199.00,3.07
4198.00,3.07
4197.00,3.07
4196.00,3.07
4195.00,3.06
4194.00,3.06
4193.00,3.06
4192.00,3.06
4191.00,3.06
4190.00,3.06
4189.00,3.05
4188.00,3.05
4187.00,3.05
4186.00,3.05
4185.00,3.05
4184.00,3.05
4183.00,3.05
4182.00,3.05
4181.00,3.05
4180.00,3.05
4179.00,3.05
4178.00,3.05
4177.00,3.05
4176.00,3.05
4175.00,3.05
4174.00,3.05
4173.00,3.05
4172.00,3.05
4171.00,3.05
4170.00,3.05
4169.00,3.05
4168.00,3.05
4167.00,3.05
4166.00,3.05
4165.00,3.05
4164.00,3.05
4163.00,3.05
4162.00,3.05
4161.00,3.05
4160.00,3.05
4159.00,3.04
4158.00,3.04
4157.00,3.03
4156.00,3.03
4155.00,3.02
4154.00,3.02
4153.00,3.01
4152.00,3.01
4151.00,3.00
4150.00,2.99
4149.00,2.99
4148.00,2.98
4147.00,2.98
4146.00,2.97
4145.00,2.96
4144.00,2.96
4143.00,2.95
4142.00,2.94
4141.00,2.93
4140.00,2.93
4139.00,2.92
4138.00,2.91
4137.00,2.90
4136.00,2.90
4135.00,2.89
4134.00,2.89
4133.00,2.89
4132.00,2.89
4131.00,2.89
4130.00,2.89
4129.00,2.90
4128.00,2.90
4127.00,2.91
4126.00,2.91
4125.00,2.92
4124.00,2.93
4123.00,2.93
4122.00,2.94
4121.00,2.95
4120.00,2.96
4119.00,2.97
4118.00,2.98
4117.00,2.99
4116.00,3.00
4115.00,3.01
4114.00,3.02
4113.00,3.03
4112.00,3.04
4111.00,3.05
4110.00,3.06
4109.00,3.07
4108.00,3.07
4107.00,3.08
4106.00,3.09
4105.00,3.09
4104.00,3.09
4103.00,3.09
4102.00,3.09
4101.00,3.09
4100.00,3.08
4099.00,3.08
4098.00,3.07
4097.00,3.07
4096.00,3.06
4095.00,3.05
4094.00,3.05
4093.00,3.04
4092.00,3.03
4091.00,3.03
4090.00,3.02
4089.00,3.01
4088.00,3.01
4087.00,3.00
4086.00,2.99
4085.00,2.99
4084.00,2.98
4083.00,2.97
4082.00,2.96
4081.00,2.95
4080.00,2.94
4079.00,2.93
4078.00,2.93
4077.00,2.92
4076.00,2.92
4075.00,2.91
4074.00,2.91
4073.00,2.90
4072.00,2.90
4071.00,2.89
4070.00,2.89
4069.00,2.89
4068.00,2.89
4067.00,2.88
4066.00,2.88
4065.00,2.88
4064.00,2.87
4063.00,2.87
4062.00,2.86
4061.00,2.86
4060.00,2.85
4059.00,2.85
4058.00,2.84
4057.00,2.84
4056.00,2.84
4055.00,2.83
4054.00,2.83
4053.00,2.83
4052.00,2.83
4051.00,2.83
4050.00,2.83
4049.00,2.83
4048.00,2.83
4047.00,2.83
4046.00,2.84
4045.00,2.84
4044.00,2.85
4043.00,2.85
4042.00,2.86
4041.00,2.87
4040.00,2.88
4039.00,2.89
4038.00,2.90
4037.00,2.91
4036.00,2.92
4035.00,2.93
4034.00,2.94
4033.00,2.96
4032.00,2.97
4031.00,2.98
4030.00,3.00
4029.00,3.01
4028.00,3.02
4027.00,3.04
4026.00,3.05
4025.00,3.07
4024.00,3.08
4023.00,3.09
4022.00,3.10
4021.00,3.11
4020.00,3.12
4019.00,3.13
4018.00,3.14
4017.00,3.15
4016.00,3.16
4015.00,3.17
4014.00,3.18
4013.00,3.19
4012.00,3.20
4011.00,3.21
4010.00,3.21
4009.00,3.22
4008.00,3.23
4007.00,3.24
4006.00,3.25
4005.00,3.26
4004.00,3.27
4003.00,3.28
4002.00,3.28
4001.00,3.29
4000.00,3.30
