创建为新数据集,样品 333 用户 Administrator 日期 星期日, 七月 28 2019
cm-1,%T
10000.00,1.28
9999.00,1.26
9998.00,1.24
9997.00,1.22
9996.00,1.21
9995.00,1.19
9994.00,1.17
9993.00,1.16
9992.00,1.14
9991.00,1.13
9990.00,1.12
9989.00,1.10
9988.00,1.09
9987.00,1.08
9986.00,1.07
9985.00,1.06
9984.00,1.05
9983.00,1.04
9982.00,1.03
9981.00,1.03
9980.00,1.02
9979.00,1.01
9978.00,1.01
9977.00,1.01
9976.00,1.00
9975.00,1.00
9974.00,1.00
9973.00,0.99
9972.00,0.99
9971.00,0.99
9970.00,0.98
9969.00,0.98
9968.00,0.98
9967.00,0.98
9966.00,0.98
9965.00,0.97
9964.00,0.97
9963.00,0.97
9962.00,0.97
9961.00,0.97
9960.00,0.97
9959.00,0.98
9958.00,0.98
9957.00,0.98
9956.00,0.98
9955.00,0.99
9954.00,0.99
9953.00,1.00
9952.00,1.00
9951.00,1.01
9950.00,1.01
9949.00,1.02
9948.00,1.02
9947.00,1.03
9946.00,1.03
9945.00,1.03
9944.00,1.04
9943.00,1.04
9942.00,1.04
9941.00,1.05
9940.00,1.05
9939.00,1.05
9938.00,1.06
9937.00,1.06
9936.00,1.06
9935.00,1.06
9934.00,1.06
9933.00,1.06
9932.00,1.06
9931.00,1.06
9930.00,1.06
9929.00,1.05
9928.00,1.05
9927.00,1.04
9926.00,1.03
9925.00,1.03
9924.00,1.02
9923.00,1.01
9922.00,1.01
9921.00,1.00
9920.00,0.99
9919.00,0.99
9918.00,0.98
9917.00,0.98
9916.00,0.98
9915.00,0.98
9914.00,0.98
9913.00,0.97
9912.00,0.97
9911.00,0.97
9910.00,0.97
9909.00,0.97
9908.00,0.97
9907.00,0.97
9906.00,0.97
9905.00,0.97
9904.00,0.97
9903.00,0.97
9902.00,0.97
9901.00,0.97
9900.00,0.98
9899.00,0.98
9898.00,0.99
9897.00,0.99
9896.00,1.00
9895.00,1.00
9894.00,1.01
9893.00,1.01
9892.00,1.01
9891.00,1.01
9890.00,1.01
9889.00,1.01
9888.00,1.01
9887.00,1.01
9886.00,1.01
9885.00,1.00
9884.00,1.00
9883.00,1.00
9882.00,0.99
9881.00,0.99
9880.00,0.99
9879.00,0.99
9878.00,0.98
9877.00,0.98
9876.00,0.98
9875.00,0.98
9874.00,0.98
9873.00,0.98
9872.00,0.98
9871.00,0.97
9870.00,0.97
9869.00,0.97
9868.00,0.97
9867.00,0.97
9866.00,0.97
9865.00,0.97
9864.00,0.98
9863.00,0.98
9862.00,0.98
9861.00,0.98
9860.00,0.98
9859.00,0.99
9858.00,0.99
9857.00,0.99
9856.00,1.00
9855.00,1.00
9854.00,1.01
9853.00,1.01
9852.00,1.01
9851.00,1.02
9850.00,1.02
9849.00,1.02
9848.00,1.02
9847.00,1.03
9846.00,1.03
9845.00,1.03
9844.00,1.03
9843.00,1.03
9842.00,1.04
9841.00,1.04
9840.00,1.04
9839.00,1.04
9838.00,1.05
9837.00,1.05
9836.00,1.05
9835.00,1.05
9834.00,1.05
9833.00,1.06
9832.00,1.06
9831.00,1.06
9830.00,1.06
9829.00,1.07
9828.00,1.07
9827.00,1.07
9826.00,1.07
9825.00,1.07
9824.00,1.07
9823.00,1.07
9822.00,1.07
9821.00,1.07
9820.00,1.06
9819.00,1.06
9818.00,1.06
9817.00,1.05
9816.00,1.05
9815.00,1.04
9814.00,1.04
9813.00,1.03
9812.00,1.03
9811.00,1.02
9810.00,1.02
9809.00,1.02
9808.00,1.01
9807.00,1.01
9806.00,1.01
9805.00,1.00
9804.00,1.00
9803.00,1.00
9802.00,0.99
9801.00,0.99
9800.00,0.98
9799.00,0.98
9798.00,0.98
9797.00,0.97
9796.00,0.97
9795.00,0.96
9794.00,0.96
9793.00,0.96
9792.00,0.96
9791.00,0.96
9790.00,0.96
9789.00,0.96
9788.00,0.96
9787.00,0.96
9786.00,0.96
9785.00,0.95
9784.00,0.95
9783.00,0.95
9782.00,0.95
9781.00,0.95
9780.00,0.95
9779.00,0.94
9778.00,0.94
9777.00,0.94
9776.00,0.94
9775.00,0.94
9774.00,0.94
9773.00,0.95
9772.00,0.95
9771.00,0.95
9770.00,0.96
9769.00,0.96
9768.00,0.97
9767.00,0.97
9766.00,0.98
9765.00,0.98
9764.00,0.99
9763.00,0.99
9762.00,1.00
9761.00,1.00
9760.00,1.01
9759.00,1.01
9758.00,1.02
9757.00,1.02
9756.00,1.02
9755.00,1.03
9754.00,1.03
9753.00,1.03
9752.00,1.04
9751.00,1.04
9750.00,1.04
9749.00,1.04
9748.00,1.04
9747.00,1.04
9746.00,1.04
9745.00,1.03
9744.00,1.03
9743.00,1.02
9742.00,1.02
9741.00,1.01
9740.00,1.01
9739.00,1.00
9738.00,0.99
9737.00,0.98
9736.00,0.98
9735.00,0.97
9734.00,0.96
9733.00,0.96
9732.00,0.95
9731.00,0.95
9730.00,0.94
9729.00,0.94
9728.00,0.93
9727.00,0.93
9726.00,0.93
9725.00,0.93
9724.00,0.92
9723.00,0.92
9722.00,0.92
9721.00,0.92
9720.00,0.92
9719.00,0.92
9718.00,0.93
9717.00,0.93
9716.00,0.93
9715.00,0.94
9714.00,0.94
9713.00,0.95
9712.00,0.95
9711.00,0.96
9710.00,0.96
9709.00,0.97
9708.00,0.97
9707.00,0.97
9706.00,0.98
9705.00,0.98
9704.00,0.98
9703.00,0.98
9702.00,0.99
9701.00,0.99
9700.00,0.99
9699.00,0.99
9698.00,0.99
9697.00,0.99
9696.00,0.99
9695.00,0.98
9694.00,0.98
9693.00,0.98
9692.00,0.97
9691.00,0.97
9690.00,0.97
9689.00,0.96
9688.00,0.96
9687.00,0.96
9686.00,0.96
9685.00,0.95
9684.00,0.95
9683.00,0.95
9682.00,0.95
9681.00,0.94
9680.00,0.94
9679.00,0.94
9678.00,0.94
9677.00,0.93
9676.00,0.93
9675.00,0.93
9674.00,0.93
9673.00,0.93
9672.00,0.93
9671.00,0.93
9670.00,0.93
9669.00,0.93
9668.00,0.93
9667.00,0.94
9666.00,0.94
9665.00,0.94
9664.00,0.95
9663.00,0.95
9662.00,0.95
9661.00,0.95
9660.00,0.96
9659.00,0.96
9658.00,0.96
9657.00,0.96
9656.00,0.96
9655.00,0.96
9654.00,0.96
9653.00,0.97
9652.00,0.97
9651.00,0.97
9650.00,0.97
9649.00,0.98
9648.00,0.98
9647.00,0.98
9646.00,0.98
9645.00,0.98
9644.00,0.98
9643.00,0.97
9642.00,0.97
9641.00,0.97
9640.00,0.97
9639.00,0.97
9638.00,0.97
9637.00,0.97
9636.00,0.97
9635.00,0.97
9634.00,0.97
9633.00,0.97
9632.00,0.98
9631.00,0.98
9630.00,0.98
9629.00,0.99
9628.00,0.99
9627.00,0.99
9626.00,0.99
9625.00,0.99
9624.00,0.99
9623.00,0.99
9622.00,0.99
9621.00,1.00
9620.00,1.00
9619.00,1.00
9618.00,1.00
9617.00,1.01
9616.00,1.01
9615.00,1.01
9614.00,1.01
9613.00,1.01
9612.00,1.01
9611.00,1.01
9610.00,1.01
9609.00,1.00
9608.00,0.99
9607.00,0.99
9606.00,0.98
9605.00,0.97
9604.00,0.96
9603.00,0.95
9602.00,0.95
9601.00,0.94
9600.00,0.93
9599.00,0.93
9598.00,0.92
9597.00,0.92
9596.00,0.92
9595.00,0.91
9594.00,0.91
9593.00,0.91
9592.00,0.91
9591.00,0.91
9590.00,0.90
9589.00,0.90
9588.00,0.90
9587.00,0.90
9586.00,0.90
9585.00,0.90
9584.00,0.90
9583.00,0.90
9582.00,0.91
9581.00,0.91
9580.00,0.92
9579.00,0.92
9578.00,0.93
9577.00,0.94
9576.00,0.94
9575.00,0.95
9574.00,0.95
9573.00,0.96
9572.00,0.96
9571.00,0.96
9570.00,0.97
9569.00,0.97
9568.00,0.97
9567.00,0.97
9566.00,0.97
9565.00,0.97
9564.00,0.97
9563.00,0.97
9562.00,0.98
9561.00,0.98
9560.00,0.98
9559.00,0.99
9558.00,0.99
9557.00,1.00
9556.00,1.00
9555.00,1.01
9554.00,1.01
9553.00,1.02
9552.00,1.02
9551.00,1.03
9550.00,1.03
9549.00,1.03
9548.00,1.04
9547.00,1.04
9546.00,1.05
9545.00,1.05
9544.00,1.05
9543.00,1.06
9542.00,1.06
9541.00,1.07
9540.00,1.07
9539.00,1.07
9538.00,1.08
9537.00,1.08
9536.00,1.08
9535.00,1.08
9534.00,1.09
9533.00,1.09
9532.00,1.09
9531.00,1.09
9530.00,1.09
9529.00,1.09
9528.00,1.08
9527.00,1.08
9526.00,1.08
9525.00,1.08
9524.00,1.07
9523.00,1.07
9522.00,1.07
9521.00,1.07
9520.00,1.07
9519.00,1.07
9518.00,1.07
9517.00,1.07
9516.00,1.07
9515.00,1.08
9514.00,1.08
9513.00,1.08
9512.00,1.08
9511.00,1.08
9510.00,1.08
9509.00,1.08
9508.00,1.08
9507.00,1.08
9506.00,1.08
9505.00,1.08
9504.00,1.08
9503.00,1.08
9502.00,1.08
9501.00,1.07
9500.00,1.07
9499.00,1.07
9498.00,1.07
9497.00,1.07
9496.00,1.07
9495.00,1.07
9494.00,1.06
9493.00,1.06
9492.00,1.05
9491.00,1.05
9490.00,1.04
9489.00,1.03
9488.00,1.03
9487.00,1.02
9486.00,1.01
9485.00,1.01
9484.00,1.00
9483.00,0.99
9482.00,0.99
9481.00,0.98
9480.00,0.98
9479.00,0.98
9478.00,0.98
9477.00,0.97
9476.00,0.97
9475.00,0.97
9474.00,0.97
9473.00,0.97
9472.00,0.97
9471.00,0.97
9470.00,0.97
9469.00,0.97
9468.00,0.97
9467.00,0.97
9466.00,0.97
9465.00,0.98
9464.00,0.98
9463.00,0.98
9462.00,0.99
9461.00,0.99
9460.00,1.00
9459.00,1.00
9458.00,1.01
9457.00,1.01
9456.00,1.02
9455.00,1.02
9454.00,1.02
9453.00,1.03
9452.00,1.03
9451.00,1.03
9450.00,1.03
9449.00,1.03
9448.00,1.04
9447.00,1.04
9446.00,1.04
9445.00,1.04
9444.00,1.04
9443.00,1.04
9442.00,1.04
9441.00,1.04
9440.00,1.04
9439.00,1.04
9438.00,1.04
9437.00,1.04
9436.00,1.04
9435.00,1.05
9434.00,1.05
9433.00,1.05
9432.00,1.05
9431.00,1.06
9430.00,1.06
9429.00,1.06
9428.00,1.06
9427.00,1.07
9426.00,1.07
9425.00,1.07
9424.00,1.08
9423.00,1.08
9422.00,1.09
9421.00,1.09
9420.00,1.10
9419.00,1.10
9418.00,1.11
9417.00,1.12
9416.00,1.12
9415.00,1.13
9414.00,1.14
9413.00,1.14
9412.00,1.15
9411.00,1.15
9410.00,1.16
9409.00,1.16
9408.00,1.16
9407.00,1.16
9406.00,1.16
9405.00,1.16
9404.00,1.16
9403.00,1.16
9402.00,1.16
9401.00,1.16
9400.00,1.16
9399.00,1.16
9398.00,1.16
9397.00,1.15
9396.00,1.15
9395.00,1.15
9394.00,1.15
9393.00,1.15
9392.00,1.14
9391.00,1.14
9390.00,1.14
9389.00,1.13
9388.00,1.12
9387.00,1.12
9386.00,1.11
9385.00,1.11
9384.00,1.10
9383.00,1.10
9382.00,1.09
9381.00,1.08
9380.00,1.08
9379.00,1.07
9378.00,1.07
9377.00,1.06
9376.00,1.06
9375.00,1.05
9374.00,1.05
9373.00,1.05
9372.00,1.04
9371.00,1.04
9370.00,1.03
9369.00,1.02
9368.00,1.02
9367.00,1.01
9366.00,1.00
9365.00,0.99
9364.00,0.98
9363.00,0.98
9362.00,0.97
9361.00,0.96
9360.00,0.95
9359.00,0.95
9358.00,0.94
9357.00,0.94
9356.00,0.93
9355.00,0.93
9354.00,0.93
9353.00,0.93
9352.00,0.92
9351.00,0.92
9350.00,0.92
9349.00,0.92
9348.00,0.92
9347.00,0.92
9346.00,0.92
9345.00,0.92
9344.00,0.92
9343.00,0.92
9342.00,0.93
9341.00,0.93
9340.00,0.93
9339.00,0.93
9338.00,0.94
9337.00,0.94
9336.00,0.94
9335.00,0.95
9334.00,0.95
9333.00,0.95
9332.00,0.96
9331.00,0.96
9330.00,0.96
9329.00,0.96
9328.00,0.96
9327.00,0.96
9326.00,0.96
9325.00,0.96
9324.00,0.96
9323.00,0.96
9322.00,0.96
9321.00,0.96
9320.00,0.96
9319.00,0.97
9318.00,0.97
9317.00,0.97
9316.00,0.97
9315.00,0.97
9314.00,0.98
9313.00,0.98
9312.00,0.98
9311.00,0.98
9310.00,0.99
9309.00,0.99
9308.00,0.99
9307.00,0.99
9306.00,1.00
9305.00,1.00
9304.00,1.00
9303.00,1.01
9302.00,1.01
9301.00,1.01
9300.00,1.01
9299.00,1.01
9298.00,1.02
9297.00,1.02
9296.00,1.02
9295.00,1.02
9294.00,1.03
9293.00,1.03
9292.00,1.03
9291.00,1.03
9290.00,1.03
9289.00,1.03
9288.00,1.03
9287.00,1.03
9286.00,1.03
9285.00,1.03
9284.00,1.03
9283.00,1.04
9282.00,1.04
9281.00,1.04
9280.00,1.04
9279.00,1.05
9278.00,1.05
9277.00,1.05
9276.00,1.06
9275.00,1.06
9274.00,1.07
9273.00,1.07
9272.00,1.08
9271.00,1.08
9270.00,1.08
9269.00,1.08
9268.00,1.08
9267.00,1.09
9266.00,1.09
9265.00,1.09
9264.00,1.09
9263.00,1.09
9262.00,1.08
9261.00,1.08
9260.00,1.08
9259.00,1.08
9258.00,1.07
9257.00,1.07
9256.00,1.07
9255.00,1.06
9254.00,1.06
9253.00,1.05
9252.00,1.05
9251.00,1.04
9250.00,1.04
9249.00,1.04
9248.00,1.03
9247.00,1.03
9246.00,1.03
9245.00,1.03
9244.00,1.03
9243.00,1.03
9242.00,1.03
9241.00,1.04
9240.00,1.04
9239.00,1.04
9238.00,1.05
9237.00,1.05
9236.00,1.05
9235.00,1.06
9234.00,1.06
9233.00,1.06
9232.00,1.07
9231.00,1.07
9230.00,1.07
9229.00,1.08
9228.00,1.08
9227.00,1.08
9226.00,1.08
9225.00,1.08
9224.00,1.09
9223.00,1.09
9222.00,1.08
9221.00,1.08
9220.00,1.08
9219.00,1.08
9218.00,1.08
9217.00,1.07
9216.00,1.07
9215.00,1.06
9214.00,1.06
9213.00,1.06
9212.00,1.05
9211.00,1.05
9210.00,1.04
9209.00,1.04
9208.00,1.04
9207.00,1.04
9206.00,1.04
9205.00,1.03
9204.00,1.03
9203.00,1.03
9202.00,1.03
9201.00,1.03
9200.00,1.03
9199.00,1.03
9198.00,1.03
9197.00,1.03
9196.00,1.03
9195.00,1.03
9194.00,1.03
9193.00,1.03
9192.00,1.03
9191.00,1.03
9190.00,1.03
9189.00,1.02
9188.00,1.02
9187.00,1.02
9186.00,1.02
9185.00,1.02
9184.00,1.02
9183.00,1.01
9182.00,1.01
9181.00,1.01
9180.00,1.01
9179.00,1.00
9178.00,1.00
9177.00,1.00
9176.00,0.99
9175.00,0.99
9174.00,0.99
9173.00,0.98
9172.00,0.98
9171.00,0.98
9170.00,0.97
9169.00,0.97
9168.00,0.97
9167.00,0.96
9166.00,0.96
9165.00,0.96
9164.00,0.96
9163.00,0.96
9162.00,0.96
9161.00,0.96
9160.00,0.96
9159.00,0.96
9158.00,0.96
9157.00,0.97
9156.00,0.97
9155.00,0.97
9154.00,0.97
9153.00,0.97
9152.00,0.97
9151.00,0.98
9150.00,0.98
9149.00,0.98
9148.00,0.98
9147.00,0.98
9146.00,0.98
9145.00,0.99
9144.00,0.99
9143.00,1.00
9142.00,1.00
9141.00,1.01
9140.00,1.01
9139.00,1.02
9138.00,1.02
9137.00,1.03
9136.00,1.04
9135.00,1.04
9134.00,1.05
9133.00,1.05
9132.00,1.05
9131.00,1.06
9130.00,1.06
9129.00,1.06
9128.00,1.06
9127.00,1.06
9126.00,1.07
9125.00,1.07
9124.00,1.07
9123.00,1.07
9122.00,1.07
9121.00,1.07
9120.00,1.08
9119.00,1.08
9118.00,1.08
9117.00,1.07
9116.00,1.07
9115.00,1.07
9114.00,1.06
9113.00,1.06
9112.00,1.05
9111.00,1.04
9110.00,1.04
9109.00,1.03
9108.00,1.02
9107.00,1.01
9106.00,1.00
9105.00,0.99
9104.00,0.99
9103.00,0.98
9102.00,0.97
9101.00,0.96
9100.00,0.96
9099.00,0.95
9098.00,0.95
9097.00,0.94
9096.00,0.94
9095.00,0.93
9094.00,0.93
9093.00,0.92
9092.00,0.92
9091.00,0.91
9090.00,0.91
9089.00,0.91
9088.00,0.91
9087.00,0.91
9086.00,0.90
9085.00,0.90
9084.00,0.90
9083.00,0.91
9082.00,0.91
9081.00,0.91
9080.00,0.91
9079.00,0.92
9078.00,0.92
9077.00,0.93
9076.00,0.93
9075.00,0.93
9074.00,0.94
9073.00,0.94
9072.00,0.94
9071.00,0.95
9070.00,0.95
9069.00,0.95
9068.00,0.95
9067.00,0.95
9066.00,0.95
9065.00,0.96
9064.00,0.96
9063.00,0.96
9062.00,0.96
9061.00,0.96
9060.00,0.96
9059.00,0.96
9058.00,0.96
9057.00,0.96
9056.00,0.95
9055.00,0.95
9054.00,0.95
9053.00,0.95
9052.00,0.94
9051.00,0.94
9050.00,0.94
9049.00,0.93
9048.00,0.93
9047.00,0.93
9046.00,0.93
9045.00,0.93
9044.00,0.93
9043.00,0.93
9042.00,0.93
9041.00,0.93
9040.00,0.93
9039.00,0.93
9038.00,0.93
9037.00,0.94
9036.00,0.94
9035.00,0.94
9034.00,0.95
9033.00,0.95
9032.00,0.96
9031.00,0.96
9030.00,0.97
9029.00,0.97
9028.00,0.98
9027.00,0.98
9026.00,0.99
9025.00,0.99
9024.00,1.00
9023.00,1.00
9022.00,1.01
9021.00,1.01
9020.00,1.02
9019.00,1.02
9018.00,1.02
9017.00,1.03
9016.00,1.03
9015.00,1.03
9014.00,1.03
9013.00,1.03
9012.00,1.03
9011.00,1.03
9010.00,1.03
9009.00,1.03
9008.00,1.03
9007.00,1.03
9006.00,1.03
9005.00,1.02
9004.00,1.02
9003.00,1.02
9002.00,1.02
9001.00,1.03
9000.00,1.03
8999.00,1.03
8998.00,1.03
8997.00,1.04
8996.00,1.04
8995.00,1.04
8994.00,1.04
8993.00,1.05
8992.00,1.05
8991.00,1.05
8990.00,1.05
8989.00,1.06
8988.00,1.06
8987.00,1.06
8986.00,1.07
8985.00,1.07
8984.00,1.08
8983.00,1.08
8982.00,1.09
8981.00,1.09
8980.00,1.09
8979.00,1.10
8978.00,1.10
8977.00,1.10
8976.00,1.10
8975.00,1.10
8974.00,1.10
8973.00,1.09
8972.00,1.09
8971.00,1.09
8970.00,1.08
8969.00,1.08
8968.00,1.08
8967.00,1.08
8966.00,1.08
8965.00,1.08
8964.00,1.08
8963.00,1.08
8962.00,1.08
8961.00,1.08
8960.00,1.08
8959.00,1.08
8958.00,1.09
8957.00,1.09
8956.00,1.09
8955.00,1.09
8954.00,1.09
8953.00,1.09
8952.00,1.09
8951.00,1.09
8950.00,1.09
8949.00,1.09
8948.00,1.09
8947.00,1.09
8946.00,1.10
8945.00,1.10
8944.00,1.10
8943.00,1.10
8942.00,1.10
8941.00,1.10
8940.00,1.09
8939.00,1.09
8938.00,1.08
8937.00,1.08
8936.00,1.07
8935.00,1.06
8934.00,1.06
8933.00,1.05
8932.00,1.05
8931.00,1.04
8930.00,1.03
8929.00,1.03
8928.00,1.02
8927.00,1.02
8926.00,1.02
8925.00,1.01
8924.00,1.01
8923.00,1.01
8922.00,1.01
8921.00,1.00
8920.00,1.00
8919.00,1.00
8918.00,1.00
8917.00,1.00
8916.00,1.00
8915.00,1.00
8914.00,1.00
8913.00,1.00
8912.00,1.01
8911.00,1.01
8910.00,1.02
8909.00,1.02
8908.00,1.03
8907.00,1.03
8906.00,1.04
8905.00,1.04
8904.00,1.05
8903.00,1.05
8902.00,1.05
8901.00,1.06
8900.00,1.06
8899.00,1.06
8898.00,1.06
8897.00,1.07
8896.00,1.07
8895.00,1.07
8894.00,1.08
8893.00,1.08
8892.00,1.08
8891.00,1.09
8890.00,1.09
8889.00,1.09
8888.00,1.09
8887.00,1.09
8886.00,1.09
8885.00,1.09
8884.00,1.09
8883.00,1.09
8882.00,1.08
8881.00,1.08
8880.00,1.08
8879.00,1.08
8878.00,1.08
8877.00,1.08
8876.00,1.07
8875.00,1.07
8874.00,1.07
8873.00,1.07
8872.00,1.07
8871.00,1.06
8870.00,1.06
8869.00,1.05
8868.00,1.05
8867.00,1.04
8866.00,1.04
8865.00,1.03
8864.00,1.03
8863.00,1.02
8862.00,1.02
8861.00,1.02
8860.00,1.01
8859.00,1.01
8858.00,1.00
8857.00,1.00
8856.00,1.00
8855.00,0.99
8854.00,0.99
8853.00,0.99
8852.00,0.98
8851.00,0.98
8850.00,0.98
8849.00,0.97
8848.00,0.97
8847.00,0.97
8846.00,0.97
8845.00,0.96
8844.00,0.96
8843.00,0.96
8842.00,0.97
8841.00,0.97
8840.00,0.97
8839.00,0.97
8838.00,0.97
8837.00,0.97
8836.00,0.98
8835.00,0.98
8834.00,0.98
8833.00,0.98
8832.00,0.98
8831.00,0.99
8830.00,0.99
8829.00,0.99
8828.00,0.99
8827.00,0.99
8826.00,1.00
8825.00,1.00
8824.00,1.00
8823.00,1.00
8822.00,1.01
8821.00,1.01
8820.00,1.02
8819.00,1.02
8818.00,1.02
8817.00,1.02
8816.00,1.03
8815.00,1.03
8814.00,1.03
8813.00,1.03
8812.00,1.03
8811.00,1.03
8810.00,1.04
8809.00,1.04
8808.00,1.04
8807.00,1.04
8806.00,1.04
8805.00,1.04
8804.00,1.05
8803.00,1.05
8802.00,1.05
8801.00,1.05
8800.00,1.04
8799.00,1.04
8798.00,1.04
8797.00,1.03
8796.00,1.03
8795.00,1.02
8794.00,1.02
8793.00,1.01
8792.00,1.01
8791.00,1.01
8790.00,1.00
8789.00,1.00
8788.00,0.99
8787.00,0.99
8786.00,0.99
8785.00,0.98
8784.00,0.98
8783.00,0.98
8782.00,0.97
8781.00,0.97
8780.00,0.97
8779.00,0.97
8778.00,0.96
8777.00,0.96
8776.00,0.96
8775.00,0.97
8774.00,0.97
8773.00,0.97
8772.00,0.98
8771.00,0.99
8770.00,0.99
8769.00,1.00
8768.00,1.01
8767.00,1.02
8766.00,1.02
8765.00,1.03
8764.00,1.04
8763.00,1.04
8762.00,1.05
8761.00,1.05
8760.00,1.05
8759.00,1.06
8758.00,1.06
8757.00,1.06
8756.00,1.07
8755.00,1.07
8754.00,1.07
8753.00,1.08
8752.00,1.08
8751.00,1.08
8750.00,1.08
8749.00,1.08
8748.00,1.08
8747.00,1.08
8746.00,1.08
8745.00,1.08
8744.00,1.07
8743.00,1.07
8742.00,1.06
8741.00,1.06
8740.00,1.05
8739.00,1.05
8738.00,1.05
8737.00,1.04
8736.00,1.04
8735.00,1.03
8734.00,1.03
8733.00,1.03
8732.00,1.03
8731.00,1.03
8730.00,1.03
8729.00,1.02
8728.00,1.02
8727.00,1.02
8726.00,1.02
8725.00,1.02
8724.00,1.02
8723.00,1.01
8722.00,1.01
8721.00,1.01
8720.00,1.01
8719.00,1.01
8718.00,1.01
8717.00,1.01
8716.00,1.01
8715.00,1.02
8714.00,1.02
8713.00,1.02
8712.00,1.03
8711.00,1.03
8710.00,1.03
8709.00,1.04
8708.00,1.04
8707.00,1.04
8706.00,1.05
8705.00,1.05
8704.00,1.05
8703.00,1.05
8702.00,1.05
8701.00,1.05
8700.00,1.06
8699.00,1.06
8698.00,1.06
8697.00,1.06
8696.00,1.06
8695.00,1.06
8694.00,1.06
8693.00,1.06
8692.00,1.06
8691.00,1.06
8690.00,1.06
8689.00,1.06
8688.00,1.06
8687.00,1.06
8686.00,1.06
8685.00,1.05
8684.00,1.05
8683.00,1.05
8682.00,1.04
8681.00,1.04
8680.00,1.03
8679.00,1.03
8678.00,1.03
8677.00,1.02
8676.00,1.02
8675.00,1.01
8674.00,1.01
8673.00,1.01
8672.00,1.00
8671.00,1.00
8670.00,1.00
8669.00,0.99
8668.00,0.99
8667.00,0.99
8666.00,0.98
8665.00,0.98
8664.00,0.97
8663.00,0.97
8662.00,0.96
8661.00,0.96
8660.00,0.96
8659.00,0.95
8658.00,0.95
8657.00,0.95
8656.00,0.95
8655.00,0.95
8654.00,0.95
8653.00,0.95
8652.00,0.95
8651.00,0.95
8650.00,0.96
8649.00,0.96
8648.00,0.96
8647.00,0.96
8646.00,0.96
8645.00,0.96
8644.00,0.96
8643.00,0.97
8642.00,0.97
8641.00,0.97
8640.00,0.97
8639.00,0.97
8638.00,0.98
8637.00,0.98
8636.00,0.98
8635.00,0.98
8634.00,0.99
8633.00,0.99
8632.00,0.99
8631.00,0.99
8630.00,0.99
8629.00,0.99
8628.00,0.99
8627.00,0.99
8626.00,0.99
8625.00,0.99
8624.00,0.98
8623.00,0.98
8622.00,0.98
8621.00,0.98
8620.00,0.98
8619.00,0.98
8618.00,0.98
8617.00,0.98
8616.00,0.98
8615.00,0.98
8614.00,0.98
8613.00,0.98
8612.00,0.98
8611.00,0.98
8610.00,0.98
8609.00,0.98
8608.00,0.99
8607.00,0.99
8606.00,0.99
8605.00,0.99
8604.00,0.99
8603.00,0.99
8602.00,0.99
8601.00,0.99
8600.00,0.99
8599.00,1.00
8598.00,1.00
8597.00,1.00
8596.00,1.00
8595.00,1.00
8594.00,1.00
8593.00,1.01
8592.00,1.01
8591.00,1.01
8590.00,1.01
8589.00,1.01
8588.00,1.01
8587.00,1.01
8586.00,1.01
8585.00,1.01
8584.00,1.01
8583.00,1.01
8582.00,1.01
8581.00,1.01
8580.00,1.01
8579.00,1.01
8578.00,1.01
8577.00,1.01
8576.00,1.01
8575.00,1.01
8574.00,1.01
8573.00,1.01
8572.00,1.01
8571.00,1.01
8570.00,1.01
8569.00,1.02
8568.00,1.02
8567.00,1.02
8566.00,1.02
8565.00,1.02
8564.00,1.02
8563.00,1.02
8562.00,1.02
8561.00,1.02
8560.00,1.02
8559.00,1.03
8558.00,1.03
8557.00,1.03
8556.00,1.03
8555.00,1.04
8554.00,1.04
8553.00,1.05
8552.00,1.05
8551.00,1.06
8550.00,1.06
8549.00,1.07
8548.00,1.08
8547.00,1.08
8546.00,1.09
8545.00,1.09
8544.00,1.10
8543.00,1.10
8542.00,1.11
8541.00,1.11
8540.00,1.11
8539.00,1.11
8538.00,1.11
8537.00,1.12
8536.00,1.12
8535.00,1.11
8534.00,1.11
8533.00,1.11
8532.00,1.11
8531.00,1.11
8530.00,1.10
8529.00,1.10
8528.00,1.09
8527.00,1.09
8526.00,1.08
8525.00,1.07
8524.00,1.07
8523.00,1.06
8522.00,1.05
8521.00,1.04
8520.00,1.04
8519.00,1.03
8518.00,1.02
8517.00,1.02
8516.00,1.01
8515.00,1.01
8514.00,1.00
8513.00,0.99
8512.00,0.99
8511.00,0.99
8510.00,0.98
8509.00,0.98
8508.00,0.98
8507.00,0.98
8506.00,0.97
8505.00,0.97
8504.00,0.97
8503.00,0.97
8502.00,0.97
8501.00,0.97
8500.00,0.97
8499.00,0.97
8498.00,0.97
8497.00,0.97
8496.00,0.97
8495.00,0.97
8494.00,0.97
8493.00,0.97
8492.00,0.97
8491.00,0.97
8490.00,0.97
8489.00,0.97
8488.00,0.97
8487.00,0.97
8486.00,0.97
8485.00,0.97
8484.00,0.97
8483.00,0.97
8482.00,0.97
8481.00,0.97
8480.00,0.97
8479.00,0.97
8478.00,0.97
8477.00,0.98
8476.00,0.98
8475.00,0.98
8474.00,0.98
8473.00,0.98
8472.00,0.98
8471.00,0.98
8470.00,0.98
8469.00,0.98
8468.00,0.98
8467.00,0.98
8466.00,0.98
8465.00,0.98
8464.00,0.98
8463.00,0.98
8462.00,0.97
8461.00,0.97
8460.00,0.97
8459.00,0.96
8458.00,0.96
8457.00,0.95
8456.00,0.95
8455.00,0.94
8454.00,0.94
8453.00,0.93
8452.00,0.93
8451.00,0.92
8450.00,0.91
8449.00,0.91
8448.00,0.90
8447.00,0.89
8446.00,0.89
8445.00,0.88
8444.00,0.88
8443.00,0.87
8442.00,0.86
8441.00,0.86
8440.00,0.86
8439.00,0.85
8438.00,0.85
8437.00,0.85
8436.00,0.85
8435.00,0.85
8434.00,0.85
8433.00,0.85
8432.00,0.85
8431.00,0.85
8430.00,0.85
8429.00,0.86
8428.00,0.86
8427.00,0.86
8426.00,0.86
8425.00,0.87
8424.00,0.87
8423.00,0.87
8422.00,0.88
8421.00,0.88
8420.00,0.88
8419.00,0.89
8418.00,0.89
8417.00,0.89
8416.00,0.90
8415.00,0.90
8414.00,0.90
8413.00,0.91
8412.00,0.91
8411.00,0.92
8410.00,0.92
8409.00,0.93
8408.00,0.93
8407.00,0.94
8406.00,0.94
8405.00,0.94
8404.00,0.95
8403.00,0.95
8402.00,0.95
8401.00,0.96
8400.00,0.96
8399.00,0.96
8398.00,0.96
8397.00,0.97
8396.00,0.97
8395.00,0.97
8394.00,0.97
8393.00,0.98
8392.00,0.98
8391.00,0.98
8390.00,0.99
8389.00,0.99
8388.00,0.99
8387.00,0.99
8386.00,0.99
8385.00,0.99
8384.00,0.99
8383.00,0.99
8382.00,0.99
8381.00,0.99
8380.00,0.99
8379.00,0.98
8378.00,0.98
8377.00,0.98
8376.00,0.98
8375.00,0.98
8374.00,0.98
8373.00,0.98
8372.00,0.98
8371.00,0.98
8370.00,0.98
8369.00,0.98
8368.00,0.98
8367.00,0.98
8366.00,0.98
8365.00,0.98
8364.00,0.98
8363.00,0.98
8362.00,0.98
8361.00,0.98
8360.00,0.98
8359.00,0.98
8358.00,0.98
8357.00,0.98
8356.00,0.98
8355.00,0.98
8354.00,0.98
8353.00,0.98
8352.00,0.99
8351.00,0.99
8350.00,0.99
8349.00,0.99
8348.00,0.98
8347.00,0.98
8346.00,0.98
8345.00,0.98
8344.00,0.98
8343.00,0.98
8342.00,0.98
8341.00,0.99
8340.00,0.99
8339.00,0.99
8338.00,0.99
8337.00,0.99
8336.00,0.99
8335.00,1.00
8334.00,1.00
8333.00,1.00
8332.00,1.00
8331.00,1.00
8330.00,1.00
8329.00,1.00
8328.00,1.00
8327.00,1.00
8326.00,1.00
8325.00,1.00
8324.00,1.00
8323.00,1.01
8322.00,1.01
8321.00,1.01
8320.00,1.01
8319.00,1.01
8318.00,1.01
8317.00,1.01
8316.00,1.02
8315.00,1.02
8314.00,1.02
8313.00,1.02
8312.00,1.01
8311.00,1.01
8310.00,1.01
8309.00,1.01
8308.00,1.01
8307.00,1.01
8306.00,1.01
8305.00,1.01
8304.00,1.00
8303.00,1.00
8302.00,1.00
8301.00,1.00
8300.00,1.00
8299.00,1.00
8298.00,1.00
8297.00,1.00
8296.00,1.00
8295.00,0.99
8294.00,0.99
8293.00,0.99
8292.00,0.99
8291.00,0.99
8290.00,0.99
8289.00,0.99
8288.00,0.99
8287.00,0.99
8286.00,0.99
8285.00,0.99
8284.00,0.99
8283.00,1.00
8282.00,1.00
8281.00,1.00
8280.00,1.00
8279.00,1.01
8278.00,1.01
8277.00,1.02
8276.00,1.02
8275.00,1.03
8274.00,1.03
8273.00,1.04
8272.00,1.04
8271.00,1.05
8270.00,1.05
8269.00,1.06
8268.00,1.06
8267.00,1.06
8266.00,1.07
8265.00,1.07
8264.00,1.07
8263.00,1.08
8262.00,1.08
8261.00,1.08
8260.00,1.08
8259.00,1.08
8258.00,1.08
8257.00,1.08
8256.00,1.08
8255.00,1.08
8254.00,1.08
8253.00,1.08
8252.00,1.08
8251.00,1.07
8250.00,1.07
8249.00,1.07
8248.00,1.07
8247.00,1.06
8246.00,1.06
8245.00,1.06
8244.00,1.05
8243.00,1.05
8242.00,1.05
8241.00,1.05
8240.00,1.04
8239.00,1.04
8238.00,1.04
8237.00,1.04
8236.00,1.04
8235.00,1.04
8234.00,1.04
8233.00,1.04
8232.00,1.04
8231.00,1.04
8230.00,1.04
8229.00,1.04
8228.00,1.04
8227.00,1.04
8226.00,1.05
8225.00,1.05
8224.00,1.05
8223.00,1.05
8222.00,1.05
8221.00,1.06
8220.00,1.06
8219.00,1.06
8218.00,1.06
8217.00,1.06
8216.00,1.07
8215.00,1.07
8214.00,1.07
8213.00,1.07
8212.00,1.07
8211.00,1.07
8210.00,1.08
8209.00,1.08
8208.00,1.08
8207.00,1.08
8206.00,1.08
8205.00,1.08
8204.00,1.08
8203.00,1.08
8202.00,1.07
8201.00,1.07
8200.00,1.07
8199.00,1.07
8198.00,1.07
8197.00,1.07
8196.00,1.07
8195.00,1.07
8194.00,1.07
8193.00,1.07
8192.00,1.08
8191.00,1.08
8190.00,1.08
8189.00,1.08
8188.00,1.08
8187.00,1.08
8186.00,1.08
8185.00,1.09
8184.00,1.09
8183.00,1.09
8182.00,1.09
8181.00,1.09
8180.00,1.10
8179.00,1.10
8178.00,1.10
8177.00,1.10
8176.00,1.11
8175.00,1.11
8174.00,1.11
8173.00,1.12
8172.00,1.12
8171.00,1.12
8170.00,1.12
8169.00,1.13
8168.00,1.13
8167.00,1.13
8166.00,1.13
8165.00,1.13
8164.00,1.13
8163.00,1.13
8162.00,1.13
8161.00,1.13
8160.00,1.12
8159.00,1.12
8158.00,1.12
8157.00,1.12
8156.00,1.11
8155.00,1.11
8154.00,1.11
8153.00,1.11
8152.00,1.10
8151.00,1.10
8150.00,1.10
8149.00,1.09
8148.00,1.09
8147.00,1.09
8146.00,1.08
8145.00,1.08
8144.00,1.07
8143.00,1.07
8142.00,1.06
8141.00,1.06
8140.00,1.06
8139.00,1.05
8138.00,1.05
8137.00,1.05
8136.00,1.04
8135.00,1.04
8134.00,1.04
8133.00,1.04
8132.00,1.04
8131.00,1.04
8130.00,1.03
8129.00,1.03
8128.00,1.03
8127.00,1.03
8126.00,1.03
8125.00,1.03
8124.00,1.03
8123.00,1.03
8122.00,1.04
8121.00,1.04
8120.00,1.04
8119.00,1.04
8118.00,1.05
8117.00,1.05
8116.00,1.06
8115.00,1.06
8114.00,1.07
8113.00,1.07
8112.00,1.08
8111.00,1.08
8110.00,1.08
8109.00,1.09
8108.00,1.09
8107.00,1.09
8106.00,1.10
8105.00,1.10
8104.00,1.10
8103.00,1.10
8102.00,1.11
8101.00,1.11
8100.00,1.11
8099.00,1.11
8098.00,1.11
8097.00,1.11
8096.00,1.11
8095.00,1.11
8094.00,1.11
8093.00,1.11
8092.00,1.11
8091.00,1.11
8090.00,1.10
8089.00,1.10
8088.00,1.10
8087.00,1.09
8086.00,1.09
8085.00,1.09
8084.00,1.09
8083.00,1.08
8082.00,1.08
8081.00,1.08
8080.00,1.08
8079.00,1.08
8078.00,1.08
8077.00,1.08
8076.00,1.08
8075.00,1.09
8074.00,1.09
8073.00,1.09
8072.00,1.09
8071.00,1.09
8070.00,1.09
8069.00,1.10
8068.00,1.10
8067.00,1.10
8066.00,1.10
8065.00,1.10
8064.00,1.10
8063.00,1.10
8062.00,1.10
8061.00,1.11
8060.00,1.11
8059.00,1.11
8058.00,1.11
8057.00,1.11
8056.00,1.11
8055.00,1.10
8054.00,1.10
8053.00,1.10
8052.00,1.10
8051.00,1.09
8050.00,1.09
8049.00,1.09
8048.00,1.08
8047.00,1.08
8046.00,1.07
8045.00,1.07
8044.00,1.07
8043.00,1.06
8042.00,1.06
8041.00,1.06
8040.00,1.06
8039.00,1.06
8038.00,1.06
8037.00,1.05
8036.00,1.05
8035.00,1.05
8034.00,1.05
8033.00,1.06
8032.00,1.06
8031.00,1.06
8030.00,1.06
8029.00,1.06
8028.00,1.06
8027.00,1.06
8026.00,1.07
8025.00,1.07
8024.00,1.07
8023.00,1.08
8022.00,1.08
8021.00,1.09
8020.00,1.09
8019.00,1.10
8018.00,1.10
8017.00,1.10
8016.00,1.11
8015.00,1.11
8014.00,1.11
8013.00,1.12
8012.00,1.12
8011.00,1.12
8010.00,1.13
8009.00,1.13
8008.00,1.13
8007.00,1.13
8006.00,1.13
8005.00,1.14
8004.00,1.14
8003.00,1.14
8002.00,1.14
8001.00,1.15
8000.00,1.15
7999.00,1.15
7998.00,1.15
7997.00,1.15
7996.00,1.15
7995.00,1.15
7994.00,1.15
7993.00,1.15
7992.00,1.15
7991.00,1.15
7990.00,1.15
7989.00,1.15
7988.00,1.15
7987.00,1.15
7986.00,1.15
7985.00,1.14
7984.00,1.14
7983.00,1.14
7982.00,1.14
7981.00,1.14
7980.00,1.13
7979.00,1.13
7978.00,1.13
7977.00,1.13
7976.00,1.13
7975.00,1.13
7974.00,1.12
7973.00,1.12
7972.00,1.12
7971.00,1.12
7970.00,1.11
7969.00,1.11
7968.00,1.11
7967.00,1.11
7966.00,1.11
7965.00,1.10
7964.00,1.10
7963.00,1.10
7962.00,1.10
7961.00,1.10
7960.00,1.10
7959.00,1.10
7958.00,1.11
7957.00,1.11
7956.00,1.11
7955.00,1.11
7954.00,1.11
7953.00,1.12
7952.00,1.12
7951.00,1.12
7950.00,1.12
7949.00,1.12
7948.00,1.12
7947.00,1.12
7946.00,1.13
7945.00,1.13
7944.00,1.13
7943.00,1.13
7942.00,1.13
7941.00,1.14
7940.00,1.14
7939.00,1.14
7938.00,1.14
7937.00,1.15
7936.00,1.15
7935.00,1.15
7934.00,1.15
7933.00,1.15
7932.00,1.15
7931.00,1.15
7930.00,1.15
7929.00,1.15
7928.00,1.16
7927.00,1.16
7926.00,1.16
7925.00,1.16
7924.00,1.16
7923.00,1.16
7922.00,1.16
7921.00,1.16
7920.00,1.16
7919.00,1.16
7918.00,1.16
7917.00,1.16
7916.00,1.16
7915.00,1.16
7914.00,1.16
7913.00,1.17
7912.00,1.17
7911.00,1.17
7910.00,1.17
7909.00,1.17
7908.00,1.17
7907.00,1.17
7906.00,1.17
7905.00,1.17
7904.00,1.18
7903.00,1.18
7902.00,1.18
7901.00,1.18
7900.00,1.18
7899.00,1.18
7898.00,1.19
7897.00,1.19
7896.00,1.19
7895.00,1.19
7894.00,1.20
7893.00,1.20
7892.00,1.20
7891.00,1.20
7890.00,1.20
7889.00,1.20
7888.00,1.20
7887.00,1.20
7886.00,1.20
7885.00,1.20
7884.00,1.20
7883.00,1.20
7882.00,1.20
7881.00,1.20
7880.00,1.20
7879.00,1.20
7878.00,1.20
7877.00,1.19
7876.00,1.19
7875.00,1.19
7874.00,1.19
7873.00,1.19
7872.00,1.19
7871.00,1.19
7870.00,1.19
7869.00,1.19
7868.00,1.19
7867.00,1.18
7866.00,1.18
7865.00,1.18
7864.00,1.18
7863.00,1.18
7862.00,1.18
7861.00,1.18
7860.00,1.18
7859.00,1.18
7858.00,1.18
7857.00,1.18
7856.00,1.18
7855.00,1.18
7854.00,1.17
7853.00,1.17
7852.00,1.17
7851.00,1.17
7850.00,1.17
7849.00,1.17
7848.00,1.17
7847.00,1.17
7846.00,1.17
7845.00,1.17
7844.00,1.16
7843.00,1.16
7842.00,1.16
7841.00,1.16
7840.00,1.16
7839.00,1.15
7838.00,1.15
7837.00,1.15
7836.00,1.15
7835.00,1.15
7834.00,1.14
7833.00,1.14
7832.00,1.14
7831.00,1.14
7830.00,1.14
7829.00,1.14
7828.00,1.14
7827.00,1.14
7826.00,1.14
7825.00,1.14
7824.00,1.13
7823.00,1.13
7822.00,1.13
7821.00,1.13
7820.00,1.13
7819.00,1.13
7818.00,1.13
7817.00,1.13
7816.00,1.13
7815.00,1.13
7814.00,1.13
7813.00,1.13
7812.00,1.13
7811.00,1.13
7810.00,1.13
7809.00,1.13
7808.00,1.13
7807.00,1.12
7806.00,1.12
7805.00,1.12
7804.00,1.12
7803.00,1.12
7802.00,1.12
7801.00,1.12
7800.00,1.12
7799.00,1.12
7798.00,1.12
7797.00,1.12
7796.00,1.12
7795.00,1.12
7794.00,1.12
7793.00,1.12
7792.00,1.12
7791.00,1.12
7790.00,1.12
7789.00,1.12
7788.00,1.12
7787.00,1.12
7786.00,1.13
7785.00,1.13
7784.00,1.13
7783.00,1.13
7782.00,1.13
7781.00,1.14
7780.00,1.14
7779.00,1.14
7778.00,1.15
7777.00,1.15
7776.00,1.15
7775.00,1.16
7774.00,1.16
7773.00,1.16
7772.00,1.16
7771.00,1.16
7770.00,1.16
7769.00,1.17
7768.00,1.17
7767.00,1.17
7766.00,1.17
7765.00,1.17
7764.00,1.17
7763.00,1.17
7762.00,1.17
7761.00,1.17
7760.00,1.17
7759.00,1.17
7758.00,1.17
7757.00,1.17
7756.00,1.17
7755.00,1.17
7754.00,1.17
7753.00,1.17
7752.00,1.17
7751.00,1.16
7750.00,1.16
7749.00,1.16
7748.00,1.16
7747.00,1.17
7746.00,1.17
7745.00,1.17
7744.00,1.17
7743.00,1.17
7742.00,1.17
7741.00,1.17
7740.00,1.18
7739.00,1.18
7738.00,1.18
7737.00,1.18
7736.00,1.18
7735.00,1.19
7734.00,1.19
7733.00,1.19
7732.00,1.19
7731.00,1.19
7730.00,1.19
7729.00,1.20
7728.00,1.20
7727.00,1.20
7726.00,1.20
7725.00,1.20
7724.00,1.20
7723.00,1.20
7722.00,1.20
7721.00,1.20
7720.00,1.20
7719.00,1.19
7718.00,1.19
7717.00,1.19
7716.00,1.19
7715.00,1.18
7714.00,1.18
7713.00,1.18
7712.00,1.18
7711.00,1.18
7710.00,1.17
7709.00,1.17
7708.00,1.17
7707.00,1.17
7706.00,1.17
7705.00,1.17
7704.00,1.17
7703.00,1.16
7702.00,1.16
7701.00,1.16
7700.00,1.16
7699.00,1.16
7698.00,1.17
7697.00,1.17
7696.00,1.17
7695.00,1.17
7694.00,1.17
7693.00,1.17
7692.00,1.18
7691.00,1.18
7690.00,1.18
7689.00,1.18
7688.00,1.19
7687.00,1.19
7686.00,1.19
7685.00,1.20
7684.00,1.20
7683.00,1.20
7682.00,1.20
7681.00,1.20
7680.00,1.20
7679.00,1.20
7678.00,1.20
7677.00,1.20
7676.00,1.20
7675.00,1.20
7674.00,1.20
7673.00,1.20
7672.00,1.20
7671.00,1.20
7670.00,1.20
7669.00,1.20
7668.00,1.20
7667.00,1.20
7666.00,1.19
7665.00,1.19
7664.00,1.19
7663.00,1.19
7662.00,1.19
7661.00,1.19
7660.00,1.19
7659.00,1.18
7658.00,1.18
7657.00,1.18
7656.00,1.18
7655.00,1.18
7654.00,1.18
7653.00,1.18
7652.00,1.18
7651.00,1.18
7650.00,1.18
7649.00,1.18
7648.00,1.18
7647.00,1.18
7646.00,1.18
7645.00,1.18
7644.00,1.18
7643.00,1.18
7642.00,1.18
7641.00,1.18
7640.00,1.17
7639.00,1.17
7638.00,1.17
7637.00,1.16
7636.00,1.16
7635.00,1.16
7634.00,1.15
7633.00,1.15
7632.00,1.14
7631.00,1.14
7630.00,1.14
7629.00,1.13
7628.00,1.13
7627.00,1.12
7626.00,1.12
7625.00,1.11
7624.00,1.11
7623.00,1.11
7622.00,1.10
7621.00,1.10
7620.00,1.10
7619.00,1.09
7618.00,1.09
7617.00,1.09
7616.00,1.09
7615.00,1.09
7614.00,1.09
7613.00,1.09
7612.00,1.09
7611.00,1.10
7610.00,1.10
7609.00,1.10
7608.00,1.10
7607.00,1.11
7606.00,1.11
7605.00,1.11
7604.00,1.12
7603.00,1.12
7602.00,1.12
7601.00,1.13
7600.00,1.13
7599.00,1.13
7598.00,1.13
7597.00,1.14
7596.00,1.14
7595.00,1.14
7594.00,1.14
7593.00,1.15
7592.00,1.15
7591.00,1.15
7590.00,1.15
7589.00,1.15
7588.00,1.15
7587.00,1.15
7586.00,1.15
7585.00,1.15
7584.00,1.15
7583.00,1.14
7582.00,1.14
7581.00,1.14
7580.00,1.14
7579.00,1.14
7578.00,1.13
7577.00,1.13
7576.00,1.13
7575.00,1.13
7574.00,1.13
7573.00,1.13
7572.00,1.13
7571.00,1.12
7570.00,1.12
7569.00,1.12
7568.00,1.12
7567.00,1.12
7566.00,1.12
7565.00,1.12
7564.00,1.12
7563.00,1.12
7562.00,1.13
7561.00,1.13
7560.00,1.13
7559.00,1.13
7558.00,1.13
7557.00,1.13
7556.00,1.13
7555.00,1.13
7554.00,1.13
7553.00,1.14
7552.00,1.14
7551.00,1.14
7550.00,1.14
7549.00,1.14
7548.00,1.14
7547.00,1.15
7546.00,1.15
7545.00,1.15
7544.00,1.15
7543.00,1.15
7542.00,1.15
7541.00,1.15
7540.00,1.15
7539.00,1.14
7538.00,1.14
7537.00,1.14
7536.00,1.14
7535.00,1.14
7534.00,1.14
7533.00,1.14
7532.00,1.14
7531.00,1.14
7530.00,1.13
7529.00,1.13
7528.00,1.13
7527.00,1.13
7526.00,1.13
7525.00,1.13
7524.00,1.12
7523.00,1.12
7522.00,1.12
7521.00,1.12
7520.00,1.12
7519.00,1.12
7518.00,1.11
7517.00,1.11
7516.00,1.11
7515.00,1.11
7514.00,1.11
7513.00,1.11
7512.00,1.11
7511.00,1.11
7510.00,1.11
7509.00,1.11
7508.00,1.11
7507.00,1.11
7506.00,1.11
7505.00,1.11
7504.00,1.11
7503.00,1.11
7502.00,1.11
7501.00,1.11
7500.00,1.11
7499.00,1.11
7498.00,1.11
7497.00,1.12
7496.00,1.12
7495.00,1.12
7494.00,1.12
7493.00,1.12
7492.00,1.12
7491.00,1.12
7490.00,1.13
7489.00,1.13
7488.00,1.13
7487.00,1.13
7486.00,1.13
7485.00,1.14
7484.00,1.14
7483.00,1.14
7482.00,1.14
7481.00,1.14
7480.00,1.14
7479.00,1.14
7478.00,1.14
7477.00,1.15
7476.00,1.15
7475.00,1.15
7474.00,1.15
7473.00,1.15
7472.00,1.15
7471.00,1.15
7470.00,1.15
7469.00,1.15
7468.00,1.15
7467.00,1.15
7466.00,1.15
7465.00,1.15
7464.00,1.15
7463.00,1.15
7462.00,1.14
7461.00,1.14
7460.00,1.14
7459.00,1.14
7458.00,1.14
7457.00,1.14
7456.00,1.14
7455.00,1.14
7454.00,1.14
7453.00,1.14
7452.00,1.14
7451.00,1.14
7450.00,1.14
7449.00,1.14
7448.00,1.14
7447.00,1.14
7446.00,1.14
7445.00,1.14
7444.00,1.14
7443.00,1.14
7442.00,1.14
7441.00,1.14
7440.00,1.14
7439.00,1.13
7438.00,1.13
7437.00,1.13
7436.00,1.13
7435.00,1.13
7434.00,1.13
7433.00,1.13
7432.00,1.13
7431.00,1.12
7430.00,1.12
7429.00,1.12
7428.00,1.12
7427.00,1.12
7426.00,1.11
7425.00,1.11
7424.00,1.11
7423.00,1.11
7422.00,1.11
7421.00,1.10
7420.00,1.10
7419.00,1.10
7418.00,1.10
7417.00,1.10
7416.00,1.10
7415.00,1.10
7414.00,1.10
7413.00,1.10
7412.00,1.11
7411.00,1.11
7410.00,1.11
7409.00,1.11
7408.00,1.11
7407.00,1.11
7406.00,1.11
7405.00,1.11
7404.00,1.11
7403.00,1.11
7402.00,1.11
7401.00,1.12
7400.00,1.12
7399.00,1.12
7398.00,1.12
7397.00,1.12
7396.00,1.12
7395.00,1.12
7394.00,1.12
7393.00,1.12
7392.00,1.12
7391.00,1.12
7390.00,1.12
7389.00,1.12
7388.00,1.12
7387.00,1.12
7386.00,1.12
7385.00,1.12
7384.00,1.12
7383.00,1.12
7382.00,1.12
7381.00,1.12
7380.00,1.12
7379.00,1.12
7378.00,1.12
7377.00,1.12
7376.00,1.12
7375.00,1.12
7374.00,1.13
7373.00,1.13
7372.00,1.13
7371.00,1.13
7370.00,1.13
7369.00,1.13
7368.00,1.13
7367.00,1.12
7366.00,1.12
7365.00,1.12
7364.00,1.12
7363.00,1.12
7362.00,1.12
7361.00,1.12
7360.00,1.12
7359.00,1.12
7358.00,1.12
7357.00,1.12
7356.00,1.12
7355.00,1.12
7354.00,1.11
7353.00,1.11
7352.00,1.11
7351.00,1.11
7350.00,1.11
7349.00,1.10
7348.00,1.10
7347.00,1.10
7346.00,1.09
7345.00,1.09
7344.00,1.09
7343.00,1.09
7342.00,1.09
7341.00,1.09
7340.00,1.09
7339.00,1.09
7338.00,1.09
7337.00,1.09
7336.00,1.09
7335.00,1.09
7334.00,1.09
7333.00,1.09
7332.00,1.09
7331.00,1.09
7330.00,1.09
7329.00,1.09
7328.00,1.09
7327.00,1.09
7326.00,1.09
7325.00,1.09
7324.00,1.09
7323.00,1.10
7322.00,1.10
7321.00,1.10
7320.00,1.10
7319.00,1.10
7318.00,1.10
7317.00,1.10
7316.00,1.10
7315.00,1.11
7314.00,1.11
7313.00,1.11
7312.00,1.11
7311.00,1.11
7310.00,1.11
7309.00,1.11
7308.00,1.11
7307.00,1.11
7306.00,1.11
7305.00,1.11
7304.00,1.11
7303.00,1.11
7302.00,1.10
7301.00,1.10
7300.00,1.10
7299.00,1.10
7298.00,1.10
7297.00,1.10
7296.00,1.10
7295.00,1.10
7294.00,1.10
7293.00,1.10
7292.00,1.10
7291.00,1.10
7290.00,1.09
7289.00,1.09
7288.00,1.09
7287.00,1.09
7286.00,1.09
7285.00,1.09
7284.00,1.09
7283.00,1.09
7282.00,1.08
7281.00,1.08
7280.00,1.08
7279.00,1.08
7278.00,1.08
7277.00,1.08
7276.00,1.08
7275.00,1.08
7274.00,1.08
7273.00,1.07
7272.00,1.07
7271.00,1.07
7270.00,1.07
7269.00,1.07
7268.00,1.07
7267.00,1.07
7266.00,1.07
7265.00,1.06
7264.00,1.06
7263.00,1.06
7262.00,1.06
7261.00,1.05
7260.00,1.05
7259.00,1.05
7258.00,1.04
7257.00,1.04
7256.00,1.04
7255.00,1.04
7254.00,1.04
7253.00,1.03
7252.00,1.03
7251.00,1.03
7250.00,1.03
7249.00,1.03
7248.00,1.02
7247.00,1.02
7246.00,1.02
7245.00,1.02
7244.00,1.01
7243.00,1.01
7242.00,1.01
7241.00,1.00
7240.00,1.00
7239.00,1.00
7238.00,1.00
7237.00,0.99
7236.00,0.99
7235.00,0.99
7234.00,0.99
7233.00,0.98
7232.00,0.98
7231.00,0.98
7230.00,0.98
7229.00,0.98
7228.00,0.97
7227.00,0.97
7226.00,0.97
7225.00,0.97
7224.00,0.96
7223.00,0.96
7222.00,0.96
7221.00,0.96
7220.00,0.96
7219.00,0.96
7218.00,0.96
7217.00,0.96
7216.00,0.95
7215.00,0.95
7214.00,0.95
7213.00,0.95
7212.00,0.95
7211.00,0.95
7210.00,0.95
7209.00,0.95
7208.00,0.95
7207.00,0.95
7206.00,0.95
7205.00,0.95
7204.00,0.95
7203.00,0.94
7202.00,0.94
7201.00,0.94
7200.00,0.94
7199.00,0.94
7198.00,0.93
7197.00,0.93
7196.00,0.93
7195.00,0.92
7194.00,0.92
7193.00,0.91
7192.00,0.91
7191.00,0.90
7190.00,0.90
7189.00,0.89
7188.00,0.89
7187.00,0.88
7186.00,0.88
7185.00,0.87
7184.00,0.86
7183.00,0.86
7182.00,0.85
7181.00,0.85
7180.00,0.84
7179.00,0.83
7178.00,0.83
7177.00,0.83
7176.00,0.82
7175.00,0.82
7174.00,0.81
7173.00,0.81
7172.00,0.81
7171.00,0.80
7170.00,0.80
7169.00,0.80
7168.00,0.79
7167.00,0.79
7166.00,0.79
7165.00,0.79
7164.00,0.78
7163.00,0.78
7162.00,0.78
7161.00,0.78
7160.00,0.78
7159.00,0.78
7158.00,0.78
7157.00,0.78
7156.00,0.78
7155.00,0.78
7154.00,0.78
7153.00,0.77
7152.00,0.77
7151.00,0.77
7150.00,0.77
7149.00,0.77
7148.00,0.76
7147.00,0.76
7146.00,0.76
7145.00,0.76
7144.00,0.76
7143.00,0.75
7142.00,0.75
7141.00,0.75
7140.00,0.75
7139.00,0.74
7138.00,0.74
7137.00,0.74
7136.00,0.74
7135.00,0.73
7134.00,0.73
7133.00,0.73
7132.00,0.73
7131.00,0.72
7130.00,0.72
7129.00,0.72
7128.00,0.72
7127.00,0.72
7126.00,0.72
7125.00,0.72
7124.00,0.71
7123.00,0.71
7122.00,0.71
7121.00,0.71
7120.00,0.71
7119.00,0.71
7118.00,0.71
7117.00,0.71
7116.00,0.71
7115.00,0.71
7114.00,0.71
7113.00,0.71
7112.00,0.71
7111.00,0.71
7110.00,0.70
7109.00,0.70
7108.00,0.70
7107.00,0.70
7106.00,0.70
7105.00,0.69
7104.00,0.69
7103.00,0.69
7102.00,0.68
7101.00,0.68
7100.00,0.68
7099.00,0.67
7098.00,0.67
7097.00,0.67
7096.00,0.66
7095.00,0.66
7094.00,0.66
7093.00,0.65
7092.00,0.65
7091.00,0.65
7090.00,0.65
7089.00,0.65
7088.00,0.64
7087.00,0.64
7086.00,0.64
7085.00,0.64
7084.00,0.64
7083.00,0.64
7082.00,0.64
7081.00,0.64
7080.00,0.64
7079.00,0.64
7078.00,0.64
7077.00,0.64
7076.00,0.65
7075.00,0.65
7074.00,0.65
7073.00,0.65
7072.00,0.65
7071.00,0.65
7070.00,0.65
7069.00,0.65
7068.00,0.65
7067.00,0.65
7066.00,0.64
7065.00,0.64
7064.00,0.64
7063.00,0.64
7062.00,0.64
7061.00,0.64
7060.00,0.64
7059.00,0.64
7058.00,0.64
7057.00,0.63
7056.00,0.63
7055.00,0.63
7054.00,0.63
7053.00,0.62
7052.00,0.62
7051.00,0.62
7050.00,0.61
7049.00,0.61
7048.00,0.61
7047.00,0.60
7046.00,0.60
7045.00,0.60
7044.00,0.60
7043.00,0.60
7042.00,0.59
7041.00,0.59
7040.00,0.59
7039.00,0.59
7038.00,0.58
7037.00,0.58
7036.00,0.58
7035.00,0.57
7034.00,0.57
7033.00,0.57
7032.00,0.56
7031.00,0.56
7030.00,0.56
7029.00,0.56
7028.00,0.55
7027.00,0.55
7026.00,0.55
7025.00,0.55
7024.00,0.54
7023.00,0.54
7022.00,0.54
7021.00,0.54
7020.00,0.54
7019.00,0.53
7018.00,0.53
7017.00,0.53
7016.00,0.53
7015.00,0.53
7014.00,0.53
7013.00,0.53
7012.00,0.53
7011.00,0.54
7010.00,0.54
7009.00,0.54
7008.00,0.54
7007.00,0.54
7006.00,0.55
7005.00,0.55
7004.00,0.55
7003.00,0.55
7002.00,0.55
7001.00,0.55
7000.00,0.55
6999.00,0.56
6998.00,0.56
6997.00,0.56
6996.00,0.56
6995.00,0.56
6994.00,0.56
6993.00,0.56
6992.00,0.56
6991.00,0.56
6990.00,0.56
6989.00,0.55
6988.00,0.55
6987.00,0.55
6986.00,0.55
6985.00,0.54
6984.00,0.54
6983.00,0.53
6982.00,0.53
6981.00,0.53
6980.00,0.52
6979.00,0.52
6978.00,0.51
6977.00,0.51
6976.00,0.51
6975.00,0.51
6974.00,0.50
6973.00,0.50
6972.00,0.50
6971.00,0.50
6970.00,0.50
6969.00,0.50
6968.00,0.50
6967.00,0.50
6966.00,0.50
6965.00,0.50
6964.00,0.50
6963.00,0.51
6962.00,0.51
6961.00,0.51
6960.00,0.51
6959.00,0.52
6958.00,0.52
6957.00,0.52
6956.00,0.52
6955.00,0.53
6954.00,0.53
6953.00,0.53
6952.00,0.54
6951.00,0.54
6950.00,0.54
6949.00,0.54
6948.00,0.54
6947.00,0.54
6946.00,0.54
6945.00,0.54
6944.00,0.54
6943.00,0.54
6942.00,0.54
6941.00,0.54
6940.00,0.53
6939.00,0.53
6938.00,0.53
6937.00,0.53
6936.00,0.52
6935.00,0.52
6934.00,0.52
6933.00,0.51
6932.00,0.51
6931.00,0.51
6930.00,0.51
6929.00,0.50
6928.00,0.50
6927.00,0.50
6926.00,0.50
6925.00,0.49
6924.00,0.49
6923.00,0.49
6922.00,0.49
6921.00,0.49
6920.00,0.49
6919.00,0.49
6918.00,0.49
6917.00,0.49
6916.00,0.49
6915.00,0.49
6914.00,0.49
6913.00,0.49
6912.00,0.49
6911.00,0.49
6910.00,0.49
6909.00,0.49
6908.00,0.49
6907.00,0.50
6906.00,0.50
6905.00,0.50
6904.00,0.50
6903.00,0.50
6902.00,0.51
6901.00,0.51
6900.00,0.51
6899.00,0.51
6898.00,0.51
6897.00,0.52
6896.00,0.52
6895.00,0.52
6894.00,0.52
6893.00,0.53
6892.00,0.53
6891.00,0.53
6890.00,0.53
6889.00,0.53
6888.00,0.54
6887.00,0.54
6886.00,0.54
6885.00,0.54
6884.00,0.54
6883.00,0.54
6882.00,0.54
6881.00,0.54
6880.00,0.54
6879.00,0.54
6878.00,0.54
6877.00,0.54
6876.00,0.54
6875.00,0.54
6874.00,0.54
6873.00,0.53
6872.00,0.53
6871.00,0.53
6870.00,0.53
6869.00,0.52
6868.00,0.52
6867.00,0.51
6866.00,0.51
6865.00,0.51
6864.00,0.50
6863.00,0.50
6862.00,0.50
6861.00,0.49
6860.00,0.49
6859.00,0.49
6858.00,0.48
6857.00,0.48
6856.00,0.48
6855.00,0.48
6854.00,0.48
6853.00,0.48
6852.00,0.47
6851.00,0.47
6850.00,0.47
6849.00,0.47
6848.00,0.48
6847.00,0.48
6846.00,0.48
6845.00,0.48
6844.00,0.48
6843.00,0.48
6842.00,0.48
6841.00,0.49
6840.00,0.49
6839.00,0.49
6838.00,0.49
6837.00,0.49
6836.00,0.50
6835.00,0.50
6834.00,0.50
6833.00,0.50
6832.00,0.50
6831.00,0.50
6830.00,0.50
6829.00,0.50
6828.00,0.50
6827.00,0.49
6826.00,0.49
6825.00,0.49
6824.00,0.49
6823.00,0.49
6822.00,0.49
6821.00,0.49
6820.00,0.49
6819.00,0.49
6818.00,0.50
6817.00,0.50
6816.00,0.50
6815.00,0.50
6814.00,0.50
6813.00,0.50
6812.00,0.51
6811.00,0.51
6810.00,0.51
6809.00,0.51
6808.00,0.52
6807.00,0.52
6806.00,0.53
6805.00,0.53
6804.00,0.53
6803.00,0.54
6802.00,0.54
6801.00,0.55
6800.00,0.55
6799.00,0.55
6798.00,0.56
6797.00,0.56
6796.00,0.56
6795.00,0.57
6794.00,0.57
6793.00,0.57
6792.00,0.57
6791.00,0.57
6790.00,0.57
6789.00,0.57
6788.00,0.57
6787.00,0.57
6786.00,0.57
6785.00,0.57
6784.00,0.57
6783.00,0.57
6782.00,0.57
6781.00,0.57
6780.00,0.57
6779.00,0.57
6778.00,0.57
6777.00,0.57
6776.00,0.57
6775.00,0.57
6774.00,0.57
6773.00,0.57
6772.00,0.57
6771.00,0.57
6770.00,0.57
6769.00,0.57
6768.00,0.57
6767.00,0.56
6766.00,0.56
6765.00,0.56
6764.00,0.56
6763.00,0.56
6762.00,0.56
6761.00,0.55
6760.00,0.55
6759.00,0.55
6758.00,0.55
6757.00,0.55
6756.00,0.55
6755.00,0.55
6754.00,0.55
6753.00,0.55
6752.00,0.54
6751.00,0.54
6750.00,0.54
6749.00,0.54
6748.00,0.54
6747.00,0.54
6746.00,0.54
6745.00,0.54
6744.00,0.54
6743.00,0.54
6742.00,0.54
6741.00,0.54
6740.00,0.54
6739.00,0.54
6738.00,0.55
6737.00,0.55
6736.00,0.55
6735.00,0.55
6734.00,0.55
6733.00,0.55
6732.00,0.55
6731.00,0.55
6730.00,0.55
6729.00,0.55
6728.00,0.55
6727.00,0.55
6726.00,0.55
6725.00,0.55
6724.00,0.56
6723.00,0.56
6722.00,0.56
6721.00,0.56
6720.00,0.56
6719.00,0.56
6718.00,0.57
6717.00,0.57
6716.00,0.57
6715.00,0.57
6714.00,0.57
6713.00,0.58
6712.00,0.58
6711.00,0.58
6710.00,0.58
6709.00,0.59
6708.00,0.59
6707.00,0.59
6706.00,0.59
6705.00,0.60
6704.00,0.60
6703.00,0.60
6702.00,0.60
6701.00,0.61
6700.00,0.61
6699.00,0.61
6698.00,0.61
6697.00,0.61
6696.00,0.61
6695.00,0.61
6694.00,0.61
6693.00,0.61
6692.00,0.61
6691.00,0.61
6690.00,0.61
6689.00,0.61
6688.00,0.61
6687.00,0.61
6686.00,0.61
6685.00,0.61
6684.00,0.61
6683.00,0.61
6682.00,0.61
6681.00,0.61
6680.00,0.61
6679.00,0.61
6678.00,0.61
6677.00,0.61
6676.00,0.61
6675.00,0.61
6674.00,0.61
6673.00,0.61
6672.00,0.61
6671.00,0.61
6670.00,0.61
6669.00,0.61
6668.00,0.61
6667.00,0.62
6666.00,0.62
6665.00,0.62
6664.00,0.62
6663.00,0.62
6662.00,0.63
6661.00,0.63
6660.00,0.63
6659.00,0.63
6658.00,0.63
6657.00,0.63
6656.00,0.64
6655.00,0.64
6654.00,0.64
6653.00,0.64
6652.00,0.64
6651.00,0.64
6650.00,0.64
6649.00,0.64
6648.00,0.64
6647.00,0.64
6646.00,0.64
6645.00,0.64
6644.00,0.64
6643.00,0.64
6642.00,0.64
6641.00,0.64
6640.00,0.64
6639.00,0.64
6638.00,0.64
6637.00,0.63
6636.00,0.63
6635.00,0.63
6634.00,0.63
6633.00,0.63
6632.00,0.63
6631.00,0.63
6630.00,0.63
6629.00,0.63
6628.00,0.63
6627.00,0.63
6626.00,0.63
6625.00,0.63
6624.00,0.63
6623.00,0.63
6622.00,0.63
6621.00,0.63
6620.00,0.63
6619.00,0.63
6618.00,0.63
6617.00,0.63
6616.00,0.63
6615.00,0.63
6614.00,0.63
6613.00,0.63
6612.00,0.63
6611.00,0.63
6610.00,0.63
6609.00,0.63
6608.00,0.63
6607.00,0.63
6606.00,0.63
6605.00,0.63
6604.00,0.63
6603.00,0.63
6602.00,0.64
6601.00,0.64
6600.00,0.64
6599.00,0.64
6598.00,0.65
6597.00,0.65
6596.00,0.65
6595.00,0.66
6594.00,0.66
6593.00,0.66
6592.00,0.67
6591.00,0.67
6590.00,0.67
6589.00,0.68
6588.00,0.68
6587.00,0.68
6586.00,0.69
6585.00,0.69
6584.00,0.69
6583.00,0.70
6582.00,0.70
6581.00,0.70
6580.00,0.71
6579.00,0.71
6578.00,0.71
6577.00,0.71
6576.00,0.71
6575.00,0.71
6574.00,0.71
6573.00,0.71
6572.00,0.71
6571.00,0.71
6570.00,0.71
6569.00,0.71
6568.00,0.71
6567.00,0.71
6566.00,0.71
6565.00,0.71
6564.00,0.71
6563.00,0.71
6562.00,0.71
6561.00,0.70
6560.00,0.70
6559.00,0.70
6558.00,0.70
6557.00,0.70
6556.00,0.70
6555.00,0.70
6554.00,0.70
6553.00,0.70
6552.00,0.70
6551.00,0.70
6550.00,0.70
6549.00,0.70
6548.00,0.70
6547.00,0.70
6546.00,0.70
6545.00,0.70
6544.00,0.70
6543.00,0.70
6542.00,0.69
6541.00,0.69
6540.00,0.69
6539.00,0.69
6538.00,0.69
6537.00,0.69
6536.00,0.69
6535.00,0.69
6534.00,0.69
6533.00,0.69
6532.00,0.69
6531.00,0.69
6530.00,0.69
6529.00,0.70
6528.00,0.70
6527.00,0.70
6526.00,0.70
6525.00,0.70
6524.00,0.70
6523.00,0.70
6522.00,0.70
6521.00,0.71
6520.00,0.71
6519.00,0.71
6518.00,0.71
6517.00,0.72
6516.00,0.72
6515.00,0.72
6514.00,0.73
6513.00,0.73
6512.00,0.73
6511.00,0.74
6510.00,0.74
6509.00,0.74
6508.00,0.75
6507.00,0.75
6506.00,0.75
6505.00,0.76
6504.00,0.76
6503.00,0.76
6502.00,0.77
6501.00,0.77
6500.00,0.77
6499.00,0.77
6498.00,0.78
6497.00,0.78
6496.00,0.78
6495.00,0.78
6494.00,0.78
6493.00,0.78
6492.00,0.79
6491.00,0.79
6490.00,0.79
6489.00,0.79
6488.00,0.79
6487.00,0.79
6486.00,0.79
6485.00,0.79
6484.00,0.79
6483.00,0.79
6482.00,0.79
6481.00,0.79
6480.00,0.78
6479.00,0.78
6478.00,0.78
6477.00,0.78
6476.00,0.78
6475.00,0.78
6474.00,0.78
6473.00,0.78
6472.00,0.78
6471.00,0.78
6470.00,0.78
6469.00,0.77
6468.00,0.77
6467.00,0.77
6466.00,0.77
6465.00,0.77
6464.00,0.77
6463.00,0.77
6462.00,0.77
6461.00,0.77
6460.00,0.77
6459.00,0.77
6458.00,0.77
6457.00,0.77
6456.00,0.78
6455.00,0.78
6454.00,0.78
6453.00,0.78
6452.00,0.78
6451.00,0.78
6450.00,0.78
6449.00,0.78
6448.00,0.79
6447.00,0.79
6446.00,0.79
6445.00,0.79
6444.00,0.79
6443.00,0.79
6442.00,0.79
6441.00,0.79
6440.00,0.79
6439.00,0.79
6438.00,0.79
6437.00,0.79
6436.00,0.79
6435.00,0.79
6434.00,0.79
6433.00,0.79
6432.00,0.79
6431.00,0.79
6430.00,0.79
6429.00,0.79
6428.00,0.79
6427.00,0.79
6426.00,0.79
6425.00,0.79
6424.00,0.79
6423.00,0.79
6422.00,0.79
6421.00,0.79
6420.00,0.79
6419.00,0.80
6418.00,0.80
6417.00,0.80
6416.00,0.80
6415.00,0.80
6414.00,0.80
6413.00,0.80
6412.00,0.80
6411.00,0.81
6410.00,0.81
6409.00,0.81
6408.00,0.81
6407.00,0.81
6406.00,0.81
6405.00,0.81
6404.00,0.81
6403.00,0.81
6402.00,0.81
6401.00,0.81
6400.00,0.81
6399.00,0.81
6398.00,0.81
6397.00,0.81
6396.00,0.81
6395.00,0.81
6394.00,0.81
6393.00,0.81
6392.00,0.81
6391.00,0.81
6390.00,0.81
6389.00,0.81
6388.00,0.81
6387.00,0.82
6386.00,0.82
6385.00,0.82
6384.00,0.82
6383.00,0.82
6382.00,0.83
6381.00,0.83
6380.00,0.83
6379.00,0.84
6378.00,0.84
6377.00,0.84
6376.00,0.85
6375.00,0.85
6374.00,0.85
6373.00,0.86
6372.00,0.86
6371.00,0.86
6370.00,0.86
6369.00,0.87
6368.00,0.87
6367.00,0.87
6366.00,0.87
6365.00,0.87
6364.00,0.87
6363.00,0.87
6362.00,0.88
6361.00,0.88
6360.00,0.88
6359.00,0.88
6358.00,0.88
6357.00,0.88
6356.00,0.88
6355.00,0.88
6354.00,0.88
6353.00,0.88
6352.00,0.88
6351.00,0.88
6350.00,0.88
6349.00,0.88
6348.00,0.88
6347.00,0.88
6346.00,0.88
6345.00,0.88
6344.00,0.88
6343.00,0.88
6342.00,0.88
6341.00,0.88
6340.00,0.88
6339.00,0.89
6338.00,0.89
6337.00,0.89
6336.00,0.89
6335.00,0.89
6334.00,0.89
6333.00,0.89
6332.00,0.89
6331.00,0.89
6330.00,0.89
6329.00,0.89
6328.00,0.89
6327.00,0.89
6326.00,0.89
6325.00,0.89
6324.00,0.89
6323.00,0.89
6322.00,0.89
6321.00,0.89
6320.00,0.89
6319.00,0.89
6318.00,0.89
6317.00,0.89
6316.00,0.89
6315.00,0.90
6314.00,0.90
6313.00,0.90
6312.00,0.90
6311.00,0.90
6310.00,0.91
6309.00,0.91
6308.00,0.91
6307.00,0.91
6306.00,0.91
6305.00,0.92
6304.00,0.92
6303.00,0.92
6302.00,0.92
6301.00,0.92
6300.00,0.92
6299.00,0.93
6298.00,0.93
6297.00,0.93
6296.00,0.93
6295.00,0.94
6294.00,0.94
6293.00,0.94
6292.00,0.95
6291.00,0.95
6290.00,0.95
6289.00,0.95
6288.00,0.95
6287.00,0.95
6286.00,0.95
6285.00,0.96
6284.00,0.96
6283.00,0.96
6282.00,0.96
6281.00,0.96
6280.00,0.96
6279.00,0.97
6278.00,0.97
6277.00,0.97
6276.00,0.97
6275.00,0.97
6274.00,0.97
6273.00,0.97
6272.00,0.97
6271.00,0.97
6270.00,0.97
6269.00,0.97
6268.00,0.97
6267.00,0.97
6266.00,0.98
6265.00,0.98
6264.00,0.98
6263.00,0.98
6262.00,0.98
6261.00,0.98
6260.00,0.98
6259.00,0.98
6258.00,0.98
6257.00,0.98
6256.00,0.98
6255.00,0.98
6254.00,0.98
6253.00,0.98
6252.00,0.98
6251.00,0.98
6250.00,0.98
6249.00,0.98
6248.00,0.98
6247.00,0.98
6246.00,0.98
6245.00,0.98
6244.00,0.98
6243.00,0.98
6242.00,0.98
6241.00,0.98
6240.00,0.98
6239.00,0.98
6238.00,0.98
6237.00,0.98
6236.00,0.98
6235.00,0.98
6234.00,0.98
6233.00,0.98
6232.00,0.98
6231.00,0.98
6230.00,0.98
6229.00,0.99
6228.00,0.99
6227.00,0.99
6226.00,0.99
6225.00,0.99
6224.00,0.99
6223.00,0.99
6222.00,1.00
6221.00,1.00
6220.00,1.00
6219.00,1.00
6218.00,1.00
6217.00,1.00
6216.00,1.00
6215.00,1.00
6214.00,1.01
6213.00,1.01
6212.00,1.01
6211.00,1.01
6210.00,1.01
6209.00,1.02
6208.00,1.02
6207.00,1.02
6206.00,1.02
6205.00,1.03
6204.00,1.03
6203.00,1.03
6202.00,1.03
6201.00,1.04
6200.00,1.04
6199.00,1.04
6198.00,1.04
6197.00,1.04
6196.00,1.05
6195.00,1.05
6194.00,1.05
6193.00,1.05
6192.00,1.06
6191.00,1.06
6190.00,1.06
6189.00,1.06
6188.00,1.07
6187.00,1.07
6186.00,1.07
6185.00,1.07
6184.00,1.07
6183.00,1.07
6182.00,1.07
6181.00,1.07
6180.00,1.07
6179.00,1.07
6178.00,1.07
6177.00,1.07
6176.00,1.07
6175.00,1.07
6174.00,1.07
6173.00,1.07
6172.00,1.07
6171.00,1.06
6170.00,1.06
6169.00,1.06
6168.00,1.06
6167.00,1.06
6166.00,1.06
6165.00,1.06
6164.00,1.05
6163.00,1.05
6162.00,1.05
6161.00,1.05
6160.00,1.05
6159.00,1.05
6158.00,1.05
6157.00,1.05
6156.00,1.05
6155.00,1.05
6154.00,1.05
6153.00,1.05
6152.00,1.05
6151.00,1.05
6150.00,1.06
6149.00,1.06
6148.00,1.06
6147.00,1.06
6146.00,1.06
6145.00,1.07
6144.00,1.07
6143.00,1.07
6142.00,1.08
6141.00,1.08
6140.00,1.08
6139.00,1.09
6138.00,1.09
6137.00,1.10
6136.00,1.10
6135.00,1.10
6134.00,1.11
6133.00,1.11
6132.00,1.11
6131.00,1.12
6130.00,1.12
6129.00,1.12
6128.00,1.13
6127.00,1.13
6126.00,1.13
6125.00,1.13
6124.00,1.14
6123.00,1.14
6122.00,1.14
6121.00,1.14
6120.00,1.15
6119.00,1.15
6118.00,1.15
6117.00,1.15
6116.00,1.15
6115.00,1.15
6114.00,1.15
6113.00,1.15
6112.00,1.15
6111.00,1.15
6110.00,1.15
6109.00,1.15
6108.00,1.15
6107.00,1.15
6106.00,1.15
6105.00,1.15
6104.00,1.16
6103.00,1.16
6102.00,1.16
6101.00,1.16
6100.00,1.16
6099.00,1.16
6098.00,1.16
6097.00,1.16
6096.00,1.16
6095.00,1.16
6094.00,1.16
6093.00,1.16
6092.00,1.16
6091.00,1.16
6090.00,1.16
6089.00,1.16
6088.00,1.16
6087.00,1.16
6086.00,1.16
6085.00,1.16
6084.00,1.16
6083.00,1.16
6082.00,1.16
6081.00,1.16
6080.00,1.16
6079.00,1.16
6078.00,1.16
6077.00,1.16
6076.00,1.16
6075.00,1.16
6074.00,1.16
6073.00,1.16
6072.00,1.16
6071.00,1.16
6070.00,1.16
6069.00,1.16
6068.00,1.16
6067.00,1.16
6066.00,1.16
6065.00,1.16
6064.00,1.16
6063.00,1.16
6062.00,1.16
6061.00,1.16
6060.00,1.16
6059.00,1.17
6058.00,1.17
6057.00,1.17
6056.00,1.17
6055.00,1.17
6054.00,1.17
6053.00,1.17
6052.00,1.18
6051.00,1.18
6050.00,1.18
6049.00,1.18
6048.00,1.18
6047.00,1.18
6046.00,1.18
6045.00,1.18
6044.00,1.18
6043.00,1.19
6042.00,1.19
6041.00,1.19
6040.00,1.19
6039.00,1.19
6038.00,1.19
6037.00,1.19
6036.00,1.19
6035.00,1.20
6034.00,1.20
6033.00,1.20
6032.00,1.20
6031.00,1.20
6030.00,1.20
6029.00,1.20
6028.00,1.20
6027.00,1.21
6026.00,1.21
6025.00,1.21
6024.00,1.21
6023.00,1.21
6022.00,1.21
6021.00,1.21
6020.00,1.21
6019.00,1.21
6018.00,1.21
6017.00,1.21
6016.00,1.21
6015.00,1.21
6014.00,1.21
6013.00,1.21
6012.00,1.21
6011.00,1.21
6010.00,1.21
6009.00,1.21
6008.00,1.21
6007.00,1.21
6006.00,1.21
6005.00,1.20
6004.00,1.20
6003.00,1.20
6002.00,1.20
6001.00,1.20
6000.00,1.20
5999.00,1.20
5998.00,1.20
5997.00,1.19
5996.00,1.19
5995.00,1.19
5994.00,1.19
5993.00,1.19
5992.00,1.19
5991.00,1.19
5990.00,1.19
5989.00,1.19
5988.00,1.19
5987.00,1.19
5986.00,1.19
5985.00,1.19
5984.00,1.19
5983.00,1.19
5982.00,1.19
5981.00,1.18
5980.00,1.18
5979.00,1.18
5978.00,1.18
5977.00,1.18
5976.00,1.17
5975.00,1.17
5974.00,1.17
5973.00,1.16
5972.00,1.16
5971.00,1.16
5970.00,1.15
5969.00,1.15
5968.00,1.14
5967.00,1.14
5966.00,1.13
5965.00,1.13
5964.00,1.12
5963.00,1.12
5962.00,1.12
5961.00,1.11
5960.00,1.11
5959.00,1.10
5958.00,1.10
5957.00,1.10
5956.00,1.09
5955.00,1.09
5954.00,1.09
5953.00,1.08
5952.00,1.08
5951.00,1.08
5950.00,1.08
5949.00,1.07
5948.00,1.07
5947.00,1.07
5946.00,1.07
5945.00,1.07
5944.00,1.07
5943.00,1.07
5942.00,1.07
5941.00,1.07
5940.00,1.07
5939.00,1.07
5938.00,1.07
5937.00,1.07
5936.00,1.07
5935.00,1.07
5934.00,1.07
5933.00,1.07
5932.00,1.07
5931.00,1.07
5930.00,1.07
5929.00,1.06
5928.00,1.06
5927.00,1.06
5926.00,1.06
5925.00,1.06
5924.00,1.06
5923.00,1.05
5922.00,1.05
5921.00,1.05
5920.00,1.05
5919.00,1.05
5918.00,1.05
5917.00,1.05
5916.00,1.05
5915.00,1.05
5914.00,1.04
5913.00,1.04
5912.00,1.04
5911.00,1.04
5910.00,1.04
5909.00,1.04
5908.00,1.04
5907.00,1.04
5906.00,1.04
5905.00,1.05
5904.00,1.05
5903.00,1.05
5902.00,1.05
5901.00,1.05
5900.00,1.06
5899.00,1.06
5898.00,1.06
5897.00,1.06
5896.00,1.07
5895.00,1.07
5894.00,1.07
5893.00,1.07
5892.00,1.07
5891.00,1.07
5890.00,1.08
5889.00,1.08
5888.00,1.08
5887.00,1.08
5886.00,1.08
5885.00,1.08
5884.00,1.08
5883.00,1.09
5882.00,1.09
5881.00,1.09
5880.00,1.09
5879.00,1.09
5878.00,1.09
5877.00,1.10
5876.00,1.10
5875.00,1.10
5874.00,1.10
5873.00,1.10
5872.00,1.10
5871.00,1.10
5870.00,1.10
5869.00,1.10
5868.00,1.11
5867.00,1.11
5866.00,1.11
5865.00,1.11
5864.00,1.11
5863.00,1.11
5862.00,1.12
5861.00,1.12
5860.00,1.12
5859.00,1.12
5858.00,1.12
5857.00,1.12
5856.00,1.12
5855.00,1.12
5854.00,1.12
5853.00,1.12
5852.00,1.12
5851.00,1.12
5850.00,1.12
5849.00,1.12
5848.00,1.11
5847.00,1.11
5846.00,1.11
5845.00,1.11
5844.00,1.11
5843.00,1.11
5842.00,1.11
5841.00,1.11
5840.00,1.11
5839.00,1.11
5838.00,1.11
5837.00,1.11
5836.00,1.10
5835.00,1.10
5834.00,1.10
5833.00,1.10
5832.00,1.10
5831.00,1.10
5830.00,1.10
5829.00,1.10
5828.00,1.10
5827.00,1.11
5826.00,1.11
5825.00,1.11
5824.00,1.11
5823.00,1.11
5822.00,1.11
5821.00,1.11
5820.00,1.11
5819.00,1.12
5818.00,1.12
5817.00,1.12
5816.00,1.12
5815.00,1.12
5814.00,1.12
5813.00,1.12
5812.00,1.12
5811.00,1.12
5810.00,1.12
5809.00,1.12
5808.00,1.12
5807.00,1.12
5806.00,1.12
5805.00,1.12
5804.00,1.12
5803.00,1.12
5802.00,1.11
5801.00,1.11
5800.00,1.11
5799.00,1.11
5798.00,1.11
5797.00,1.11
5796.00,1.10
5795.00,1.10
5794.00,1.10
5793.00,1.10
5792.00,1.09
5791.00,1.09
5790.00,1.09
5789.00,1.09
5788.00,1.09
5787.00,1.08
5786.00,1.08
5785.00,1.08
5784.00,1.08
5783.00,1.08
5782.00,1.08
5781.00,1.08
5780.00,1.08
5779.00,1.08
5778.00,1.08
5777.00,1.07
5776.00,1.07
5775.00,1.07
5774.00,1.07
5773.00,1.07
5772.00,1.07
5771.00,1.07
5770.00,1.07
5769.00,1.07
5768.00,1.07
5767.00,1.07
5766.00,1.07
5765.00,1.07
5764.00,1.07
5763.00,1.07
5762.00,1.07
5761.00,1.07
5760.00,1.07
5759.00,1.07
5758.00,1.07
5757.00,1.07
5756.00,1.07
5755.00,1.07
5754.00,1.08
5753.00,1.08
5752.00,1.08
5751.00,1.08
5750.00,1.08
5749.00,1.08
5748.00,1.08
5747.00,1.09
5746.00,1.09
5745.00,1.09
5744.00,1.09
5743.00,1.10
5742.00,1.10
5741.00,1.10
5740.00,1.10
5739.00,1.11
5738.00,1.11
5737.00,1.11
5736.00,1.11
5735.00,1.11
5734.00,1.11
5733.00,1.12
5732.00,1.12
5731.00,1.12
5730.00,1.12
5729.00,1.12
5728.00,1.12
5727.00,1.12
5726.00,1.12
5725.00,1.12
5724.00,1.12
5723.00,1.12
5722.00,1.12
5721.00,1.12
5720.00,1.12
5719.00,1.12
5718.00,1.12
5717.00,1.12
5716.00,1.12
5715.00,1.11
5714.00,1.11
5713.00,1.11
5712.00,1.11
5711.00,1.11
5710.00,1.11
5709.00,1.11
5708.00,1.11
5707.00,1.11
5706.00,1.11
5705.00,1.11
5704.00,1.11
5703.00,1.11
5702.00,1.11
5701.00,1.10
5700.00,1.10
5699.00,1.10
5698.00,1.10
5697.00,1.10
5696.00,1.10
5695.00,1.10
5694.00,1.10
5693.00,1.10
5692.00,1.10
5691.00,1.10
5690.00,1.10
5689.00,1.10
5688.00,1.09
5687.00,1.09
5686.00,1.09
5685.00,1.09
5684.00,1.09
5683.00,1.09
5682.00,1.09
5681.00,1.09
5680.00,1.09
5679.00,1.09
5678.00,1.09
5677.00,1.09
5676.00,1.09
5675.00,1.09
5674.00,1.09
5673.00,1.09
5672.00,1.09
5671.00,1.09
5670.00,1.09
5669.00,1.09
5668.00,1.09
5667.00,1.09
5666.00,1.09
5665.00,1.08
5664.00,1.08
5663.00,1.08
5662.00,1.08
5661.00,1.08
5660.00,1.08
5659.00,1.08
5658.00,1.08
5657.00,1.08
5656.00,1.08
5655.00,1.08
5654.00,1.08
5653.00,1.08
5652.00,1.08
5651.00,1.08
5650.00,1.08
5649.00,1.08
5648.00,1.08
5647.00,1.08
5646.00,1.08
5645.00,1.08
5644.00,1.09
5643.00,1.09
5642.00,1.09
5641.00,1.09
5640.00,1.09
5639.00,1.09
5638.00,1.10
5637.00,1.10
5636.00,1.10
5635.00,1.10
5634.00,1.10
5633.00,1.11
5632.00,1.11
5631.00,1.11
5630.00,1.11
5629.00,1.11
5628.00,1.11
5627.00,1.11
5626.00,1.12
5625.00,1.12
5624.00,1.12
5623.00,1.12
5622.00,1.12
5621.00,1.12
5620.00,1.12
5619.00,1.12
5618.00,1.12
5617.00,1.12
5616.00,1.12
5615.00,1.12
5614.00,1.12
5613.00,1.12
5612.00,1.12
5611.00,1.12
5610.00,1.12
5609.00,1.12
5608.00,1.12
5607.00,1.12
5606.00,1.12
5605.00,1.12
5604.00,1.12
5603.00,1.12
5602.00,1.11
5601.00,1.11
5600.00,1.11
5599.00,1.11
5598.00,1.11
5597.00,1.11
5596.00,1.11
5595.00,1.11
5594.00,1.11
5593.00,1.11
5592.00,1.11
5591.00,1.11
5590.00,1.11
5589.00,1.11
5588.00,1.11
5587.00,1.12
5586.00,1.12
5585.00,1.12
5584.00,1.12
5583.00,1.12
5582.00,1.12
5581.00,1.13
5580.00,1.13
5579.00,1.13
5578.00,1.14
5577.00,1.14
5576.00,1.14
5575.00,1.15
5574.00,1.15
5573.00,1.15
5572.00,1.16
5571.00,1.16
5570.00,1.17
5569.00,1.17
5568.00,1.17
5567.00,1.18
5566.00,1.18
5565.00,1.18
5564.00,1.19
5563.00,1.19
5562.00,1.19
5561.00,1.20
5560.00,1.20
5559.00,1.20
5558.00,1.20
5557.00,1.21
5556.00,1.21
5555.00,1.21
5554.00,1.21
5553.00,1.21
5552.00,1.21
5551.00,1.21
5550.00,1.21
5549.00,1.21
5548.00,1.21
5547.00,1.20
5546.00,1.20
5545.00,1.20
5544.00,1.20
5543.00,1.20
5542.00,1.20
5541.00,1.20
5540.00,1.19
5539.00,1.19
5538.00,1.19
5537.00,1.19
5536.00,1.19
5535.00,1.18
5534.00,1.18
5533.00,1.18
5532.00,1.18
5531.00,1.18
5530.00,1.18
5529.00,1.18
5528.00,1.18
5527.00,1.18
5526.00,1.18
5525.00,1.18
5524.00,1.18
5523.00,1.18
5522.00,1.18
5521.00,1.18
5520.00,1.18
5519.00,1.18
5518.00,1.18
5517.00,1.18
5516.00,1.18
5515.00,1.18
5514.00,1.18
5513.00,1.18
5512.00,1.19
5511.00,1.19
5510.00,1.19
5509.00,1.19
5508.00,1.19
5507.00,1.19
5506.00,1.19
5505.00,1.19
5504.00,1.19
5503.00,1.19
5502.00,1.19
5501.00,1.19
5500.00,1.19
5499.00,1.19
5498.00,1.20
5497.00,1.20
5496.00,1.20
5495.00,1.20
5494.00,1.20
5493.00,1.20
5492.00,1.20
5491.00,1.20
5490.00,1.20
5489.00,1.20
5488.00,1.20
5487.00,1.21
5486.00,1.21
5485.00,1.21
5484.00,1.21
5483.00,1.21
5482.00,1.21
5481.00,1.21
5480.00,1.21
5479.00,1.22
5478.00,1.22
5477.00,1.22
5476.00,1.22
5475.00,1.22
5474.00,1.23
5473.00,1.23
5472.00,1.23
5471.00,1.23
5470.00,1.23
5469.00,1.23
5468.00,1.23
5467.00,1.23
5466.00,1.23
5465.00,1.23
5464.00,1.23
5463.00,1.23
5462.00,1.23
5461.00,1.23
5460.00,1.23
5459.00,1.23
5458.00,1.23
5457.00,1.23
5456.00,1.23
5455.00,1.23
5454.00,1.23
5453.00,1.22
5452.00,1.22
5451.00,1.22
5450.00,1.22
5449.00,1.22
5448.00,1.21
5447.00,1.21
5446.00,1.21
5445.00,1.21
5444.00,1.21
5443.00,1.21
5442.00,1.20
5441.00,1.20
5440.00,1.20
5439.00,1.20
5438.00,1.20
5437.00,1.20
5436.00,1.20
5435.00,1.20
5434.00,1.20
5433.00,1.20
5432.00,1.20
5431.00,1.20
5430.00,1.20
5429.00,1.20
5428.00,1.20
5427.00,1.20
5426.00,1.20
5425.00,1.20
5424.00,1.20
5423.00,1.20
5422.00,1.20
5421.00,1.20
5420.00,1.20
5419.00,1.20
5418.00,1.20
5417.00,1.20
5416.00,1.20
5415.00,1.20
5414.00,1.20
5413.00,1.19
5412.00,1.19
5411.00,1.19
5410.00,1.19
5409.00,1.19
5408.00,1.19
5407.00,1.19
5406.00,1.19
5405.00,1.18
5404.00,1.18
5403.00,1.18
5402.00,1.18
5401.00,1.18
5400.00,1.18
5399.00,1.18
5398.00,1.17
5397.00,1.17
5396.00,1.17
5395.00,1.17
5394.00,1.17
5393.00,1.17
5392.00,1.17
5391.00,1.17
5390.00,1.17
5389.00,1.16
5388.00,1.16
5387.00,1.16
5386.00,1.16
5385.00,1.16
5384.00,1.16
5383.00,1.16
5382.00,1.16
5381.00,1.15
5380.00,1.15
5379.00,1.15
5378.00,1.15
5377.00,1.14
5376.00,1.14
5375.00,1.14
5374.00,1.14
5373.00,1.13
5372.00,1.13
5371.00,1.13
5370.00,1.12
5369.00,1.12
5368.00,1.11
5367.00,1.11
5366.00,1.10
5365.00,1.10
5364.00,1.09
5363.00,1.08
5362.00,1.08
5361.00,1.07
5360.00,1.06
5359.00,1.06
5358.00,1.05
5357.00,1.04
5356.00,1.04
5355.00,1.03
5354.00,1.02
5353.00,1.01
5352.00,1.01
5351.00,1.00
5350.00,0.99
5349.00,0.98
5348.00,0.98
5347.00,0.97
5346.00,0.96
5345.00,0.95
5344.00,0.95
5343.00,0.94
5342.00,0.93
5341.00,0.92
5340.00,0.91
5339.00,0.91
5338.00,0.90
5337.00,0.89
5336.00,0.89
5335.00,0.88
5334.00,0.87
5333.00,0.86
5332.00,0.86
5331.00,0.85
5330.00,0.84
5329.00,0.84
5328.00,0.83
5327.00,0.82
5326.00,0.81
5325.00,0.80
5324.00,0.80
5323.00,0.79
5322.00,0.78
5321.00,0.77
5320.00,0.77
5319.00,0.76
5318.00,0.75
5317.00,0.74
5316.00,0.74
5315.00,0.73
5314.00,0.72
5313.00,0.71
5312.00,0.71
5311.00,0.70
5310.00,0.69
5309.00,0.69
5308.00,0.68
5307.00,0.68
5306.00,0.67
5305.00,0.67
5304.00,0.66
5303.00,0.66
5302.00,0.65
5301.00,0.65
5300.00,0.64
5299.00,0.64
5298.00,0.64
5297.00,0.63
5296.00,0.63
5295.00,0.63
5294.00,0.63
5293.00,0.62
5292.00,0.62
5291.00,0.62
5290.00,0.62
5289.00,0.62
5288.00,0.61
5287.00,0.61
5286.00,0.61
5285.00,0.61
5284.00,0.61
5283.00,0.60
5282.00,0.60
5281.00,0.60
5280.00,0.60
5279.00,0.59
5278.00,0.59
5277.00,0.59
5276.00,0.59
5275.00,0.58
5274.00,0.58
5273.00,0.58
5272.00,0.57
5271.00,0.57
5270.00,0.57
5269.00,0.57
5268.00,0.56
5267.00,0.56
5266.00,0.56
5265.00,0.56
5264.00,0.56
5263.00,0.55
5262.00,0.55
5261.00,0.55
5260.00,0.55
5259.00,0.55
5258.00,0.55
5257.00,0.55
5256.00,0.55
5255.00,0.55
5254.00,0.55
5253.00,0.55
5252.00,0.55
5251.00,0.55
5250.00,0.55
5249.00,0.55
5248.00,0.56
5247.00,0.56
5246.00,0.56
5245.00,0.56
5244.00,0.56
5243.00,0.56
5242.00,0.57
5241.00,0.57
5240.00,0.57
5239.00,0.57
5238.00,0.57
5237.00,0.57
5236.00,0.57
5235.00,0.57
5234.00,0.57
5233.00,0.57
5232.00,0.57
5231.00,0.58
5230.00,0.58
5229.00,0.58
5228.00,0.57
5227.00,0.57
5226.00,0.57
5225.00,0.57
5224.00,0.57
5223.00,0.57
5222.00,0.57
5221.00,0.57
5220.00,0.57
5219.00,0.57
5218.00,0.57
5217.00,0.56
5216.00,0.56
5215.00,0.56
5214.00,0.56
5213.00,0.56
5212.00,0.56
5211.00,0.56
5210.00,0.56
5209.00,0.55
5208.00,0.55
5207.00,0.55
5206.00,0.55
5205.00,0.56
5204.00,0.56
5203.00,0.56
5202.00,0.56
5201.00,0.56
5200.00,0.56
5199.00,0.56
5198.00,0.56
5197.00,0.56
5196.00,0.56
5195.00,0.56
5194.00,0.57
5193.00,0.57
5192.00,0.57
5191.00,0.57
5190.00,0.57
5189.00,0.58
5188.00,0.58
5187.00,0.58
5186.00,0.58
5185.00,0.59
5184.00,0.59
5183.00,0.59
5182.00,0.59
5181.00,0.59
5180.00,0.60
5179.00,0.60
5178.00,0.60
5177.00,0.60
5176.00,0.60
5175.00,0.60
5174.00,0.61
5173.00,0.61
5172.00,0.61
5171.00,0.61
5170.00,0.61
5169.00,0.61
5168.00,0.61
5167.00,0.61
5166.00,0.61
5165.00,0.61
5164.00,0.61
5163.00,0.61
5162.00,0.61
5161.00,0.61
5160.00,0.61
5159.00,0.61
5158.00,0.61
5157.00,0.61
5156.00,0.61
5155.00,0.61
5154.00,0.61
5153.00,0.61
5152.00,0.61
5151.00,0.61
5150.00,0.61
5149.00,0.61
5148.00,0.60
5147.00,0.60
5146.00,0.60
5145.00,0.60
5144.00,0.60
5143.00,0.60
5142.00,0.60
5141.00,0.60
5140.00,0.60
5139.00,0.60
5138.00,0.60
5137.00,0.60
5136.00,0.61
5135.00,0.61
5134.00,0.61
5133.00,0.61
5132.00,0.61
5131.00,0.61
5130.00,0.61
5129.00,0.61
5128.00,0.62
5127.00,0.62
5126.00,0.62
5125.00,0.62
5124.00,0.62
5123.00,0.62
5122.00,0.62
5121.00,0.63
5120.00,0.63
5119.00,0.63
5118.00,0.63
5117.00,0.63
5116.00,0.63
5115.00,0.63
5114.00,0.63
5113.00,0.63
5112.00,0.63
5111.00,0.63
5110.00,0.63
5109.00,0.63
5108.00,0.63
5107.00,0.63
5106.00,0.63
5105.00,0.62
5104.00,0.62
5103.00,0.62
5102.00,0.62
5101.00,0.62
5100.00,0.62
5099.00,0.62
5098.00,0.62
5097.00,0.62
5096.00,0.61
5095.00,0.61
5094.00,0.61
5093.00,0.61
5092.00,0.61
5091.00,0.61
5090.00,0.61
5089.00,0.62
5088.00,0.62
5087.00,0.62
5086.00,0.62
5085.00,0.62
5084.00,0.62
5083.00,0.62
5082.00,0.62
5081.00,0.63
5080.00,0.63
5079.00,0.63
5078.00,0.63
5077.00,0.63
5076.00,0.64
5075.00,0.64
5074.00,0.64
5073.00,0.64
5072.00,0.65
5071.00,0.65
5070.00,0.65
5069.00,0.65
5068.00,0.65
5067.00,0.66
5066.00,0.66
5065.00,0.66
5064.00,0.66
5063.00,0.66
5062.00,0.66
5061.00,0.66
5060.00,0.66
5059.00,0.66
5058.00,0.66
5057.00,0.66
5056.00,0.66
5055.00,0.66
5054.00,0.66
5053.00,0.66
5052.00,0.66
5051.00,0.66
5050.00,0.66
5049.00,0.66
5048.00,0.66
5047.00,0.66
5046.00,0.66
5045.00,0.66
5044.00,0.66
5043.00,0.66
5042.00,0.66
5041.00,0.66
5040.00,0.66
5039.00,0.66
5038.00,0.66
5037.00,0.66
5036.00,0.66
5035.00,0.66
5034.00,0.67
5033.00,0.67
5032.00,0.67
5031.00,0.67
5030.00,0.67
5029.00,0.67
5028.00,0.67
5027.00,0.67
5026.00,0.67
5025.00,0.67
5024.00,0.67
5023.00,0.67
5022.00,0.67
5021.00,0.67
5020.00,0.67
5019.00,0.67
5018.00,0.67
5017.00,0.67
5016.00,0.67
5015.00,0.67
5014.00,0.67
5013.00,0.67
5012.00,0.67
5011.00,0.67
5010.00,0.67
5009.00,0.67
5008.00,0.67
5007.00,0.68
5006.00,0.68
5005.00,0.68
5004.00,0.68
5003.00,0.68
5002.00,0.68
5001.00,0.69
5000.00,0.69
4999.00,0.69
4998.00,0.69
4997.00,0.69
4996.00,0.69
4995.00,0.69
4994.00,0.70
4993.00,0.70
4992.00,0.70
4991.00,0.70
4990.00,0.70
4989.00,0.70
4988.00,0.70
4987.00,0.70
4986.00,0.70
4985.00,0.70
4984.00,0.70
4983.00,0.70
4982.00,0.71
4981.00,0.71
4980.00,0.71
4979.00,0.71
4978.00,0.71
4977.00,0.71
4976.00,0.71
4975.00,0.71
4974.00,0.71
4973.00,0.71
4972.00,0.70
4971.00,0.70
4970.00,0.70
4969.00,0.70
4968.00,0.70
4967.00,0.70
4966.00,0.70
4965.00,0.70
4964.00,0.70
4963.00,0.71
4962.00,0.71
4961.00,0.71
4960.00,0.71
4959.00,0.71
4958.00,0.71
4957.00,0.71
4956.00,0.71
4955.00,0.71
4954.00,0.71
4953.00,0.71
4952.00,0.71
4951.00,0.71
4950.00,0.71
4949.00,0.71
4948.00,0.71
4947.00,0.71
4946.00,0.71
4945.00,0.71
4944.00,0.71
4943.00,0.71
4942.00,0.71
4941.00,0.71
4940.00,0.71
4939.00,0.71
4938.00,0.71
4937.00,0.71
4936.00,0.71
4935.00,0.72
4934.00,0.72
4933.00,0.72
4932.00,0.72
4931.00,0.72
4930.00,0.72
4929.00,0.73
4928.00,0.73
4927.00,0.73
4926.00,0.73
4925.00,0.73
4924.00,0.74
4923.00,0.74
4922.00,0.74
4921.00,0.74
4920.00,0.74
4919.00,0.74
4918.00,0.74
4917.00,0.74
4916.00,0.74
4915.00,0.75
4914.00,0.75
4913.00,0.75
4912.00,0.75
4911.00,0.75
4910.00,0.75
4909.00,0.75
4908.00,0.75
4907.00,0.76
4906.00,0.76
4905.00,0.76
4904.00,0.76
4903.00,0.76
4902.00,0.76
4901.00,0.76
4900.00,0.76
4899.00,0.76
4898.00,0.76
4897.00,0.76
4896.00,0.76
4895.00,0.76
4894.00,0.76
4893.00,0.76
4892.00,0.76
4891.00,0.76
4890.00,0.76
4889.00,0.76
4888.00,0.76
4887.00,0.76
4886.00,0.76
4885.00,0.76
4884.00,0.76
4883.00,0.76
4882.00,0.76
4881.00,0.76
4880.00,0.76
4879.00,0.76
4878.00,0.76
4877.00,0.76
4876.00,0.77
4875.00,0.77
4874.00,0.77
4873.00,0.77
4872.00,0.77
4871.00,0.77
4870.00,0.77
4869.00,0.78
4868.00,0.78
4867.00,0.78
4866.00,0.78
4865.00,0.78
4864.00,0.78
4863.00,0.79
4862.00,0.79
4861.00,0.79
4860.00,0.79
4859.00,0.79
4858.00,0.80
4857.00,0.80
4856.00,0.80
4855.00,0.80
4854.00,0.80
4853.00,0.81
4852.00,0.81
4851.00,0.81
4850.00,0.81
4849.00,0.81
4848.00,0.81
4847.00,0.81
4846.00,0.81
4845.00,0.81
4844.00,0.81
4843.00,0.81
4842.00,0.81
4841.00,0.82
4840.00,0.82
4839.00,0.82
4838.00,0.82
4837.00,0.82
4836.00,0.82
4835.00,0.82
4834.00,0.83
4833.00,0.83
4832.00,0.83
4831.00,0.83
4830.00,0.83
4829.00,0.83
4828.00,0.83
4827.00,0.83
4826.00,0.84
4825.00,0.84
4824.00,0.84
4823.00,0.84
4822.00,0.84
4821.00,0.84
4820.00,0.84
4819.00,0.84
4818.00,0.84
4817.00,0.84
4816.00,0.84
4815.00,0.84
4814.00,0.84
4813.00,0.84
4812.00,0.84
4811.00,0.84
4810.00,0.84
4809.00,0.84
4808.00,0.84
4807.00,0.84
4806.00,0.84
4805.00,0.84
4804.00,0.84
4803.00,0.84
4802.00,0.84
4801.00,0.83
4800.00,0.84
4799.00,0.84
4798.00,0.84
4797.00,0.84
4796.00,0.84
4795.00,0.84
4794.00,0.84
4793.00,0.84
4792.00,0.84
4791.00,0.85
4790.00,0.85
4789.00,0.85
4788.00,0.85
4787.00,0.85
4786.00,0.86
4785.00,0.86
4784.00,0.86
4783.00,0.86
4782.00,0.86
4781.00,0.87
4780.00,0.87
4779.00,0.87
4778.00,0.88
4777.00,0.88
4776.00,0.88
4775.00,0.89
4774.00,0.89
4773.00,0.89
4772.00,0.90
4771.00,0.90
4770.00,0.90
4769.00,0.91
4768.00,0.91
4767.00,0.91
4766.00,0.92
4765.00,0.92
4764.00,0.92
4763.00,0.93
4762.00,0.93
4761.00,0.93
4760.00,0.94
4759.00,0.94
4758.00,0.94
4757.00,0.95
4756.00,0.95
4755.00,0.95
4754.00,0.96
4753.00,0.96
4752.00,0.96
4751.00,0.96
4750.00,0.97
4749.00,0.97
4748.00,0.97
4747.00,0.97
4746.00,0.97
4745.00,0.97
4744.00,0.97
4743.00,0.97
4742.00,0.97
4741.00,0.97
4740.00,0.97
4739.00,0.97
4738.00,0.97
4737.00,0.97
4736.00,0.97
4735.00,0.97
4734.00,0.97
4733.00,0.96
4732.00,0.96
4731.00,0.96
4730.00,0.96
4729.00,0.96
4728.00,0.96
4727.00,0.96
4726.00,0.96
4725.00,0.96
4724.00,0.95
4723.00,0.95
4722.00,0.95
4721.00,0.95
4720.00,0.95
4719.00,0.95
4718.00,0.95
4717.00,0.95
4716.00,0.95
4715.00,0.95
4714.00,0.95
4713.00,0.95
4712.00,0.96
4711.00,0.96
4710.00,0.96
4709.00,0.96
4708.00,0.96
4707.00,0.96
4706.00,0.96
4705.00,0.97
4704.00,0.97
4703.00,0.97
4702.00,0.97
4701.00,0.98
4700.00,0.98
4699.00,0.98
4698.00,0.98
4697.00,0.98
4696.00,0.99
4695.00,0.99
4694.00,0.99
4693.00,0.99
4692.00,1.00
4691.00,1.00
4690.00,1.00
4689.00,1.00
4688.00,1.01
4687.00,1.01
4686.00,1.01
4685.00,1.02
4684.00,1.02
4683.00,1.02
4682.00,1.03
4681.00,1.03
4680.00,1.03
4679.00,1.03
4678.00,1.04
4677.00,1.04
4676.00,1.04
4675.00,1.05
4674.00,1.05
4673.00,1.05
4672.00,1.05
4671.00,1.05
4670.00,1.06
4669.00,1.06
4668.00,1.06
4667.00,1.06
4666.00,1.06
4665.00,1.07
4664.00,1.07
4663.00,1.07
4662.00,1.07
4661.00,1.07
4660.00,1.08
4659.00,1.08
4658.00,1.08
4657.00,1.08
4656.00,1.08
4655.00,1.08
4654.00,1.08
4653.00,1.08
4652.00,1.09
4651.00,1.09
4650.00,1.09
4649.00,1.09
4648.00,1.09
4647.00,1.09
4646.00,1.09
4645.00,1.09
4644.00,1.09
4643.00,1.09
4642.00,1.10
4641.00,1.10
4640.00,1.10
4639.00,1.10
4638.00,1.10
4637.00,1.10
4636.00,1.10
4635.00,1.10
4634.00,1.10
4633.00,1.10
4632.00,1.10
4631.00,1.10
4630.00,1.10
4629.00,1.10
4628.00,1.10
4627.00,1.10
4626.00,1.10
4625.00,1.10
4624.00,1.10
4623.00,1.10
4622.00,1.10
4621.00,1.10
4620.00,1.10
4619.00,1.10
4618.00,1.10
4617.00,1.11
4616.00,1.11
4615.00,1.11
4614.00,1.11
4613.00,1.11
4612.00,1.11
4611.00,1.11
4610.00,1.11
4609.00,1.11
4608.00,1.11
4607.00,1.11
4606.00,1.11
4605.00,1.11
4604.00,1.11
4603.00,1.12
4602.00,1.12
4601.00,1.12
4600.00,1.12
4599.00,1.12
4598.00,1.12
4597.00,1.13
4596.00,1.13
4595.00,1.13
4594.00,1.13
4593.00,1.13
4592.00,1.14
4591.00,1.14
4590.00,1.14
4589.00,1.14
4588.00,1.14
4587.00,1.15
4586.00,1.15
4585.00,1.15
4584.00,1.15
4583.00,1.16
4582.00,1.16
4581.00,1.16
4580.00,1.16
4579.00,1.17
4578.00,1.17
4577.00,1.17
4576.00,1.17
4575.00,1.17
4574.00,1.17
4573.00,1.17
4572.00,1.17
4571.00,1.17
4570.00,1.17
4569.00,1.17
4568.00,1.17
4567.00,1.17
4566.00,1.17
4565.00,1.17
4564.00,1.17
4563.00,1.17
4562.00,1.17
4561.00,1.16
4560.00,1.16
4559.00,1.16
4558.00,1.16
4557.00,1.16
4556.00,1.16
4555.00,1.16
4554.00,1.15
4553.00,1.15
4552.00,1.15
4551.00,1.15
4550.00,1.15
4549.00,1.14
4548.00,1.14
4547.00,1.14
4546.00,1.14
4545.00,1.14
4544.00,1.14
4543.00,1.14
4542.00,1.14
4541.00,1.14
4540.00,1.14
4539.00,1.14
4538.00,1.14
4537.00,1.14
4536.00,1.14
4535.00,1.14
4534.00,1.14
4533.00,1.14
4532.00,1.14
4531.00,1.14
4530.00,1.14
4529.00,1.14
4528.00,1.14
4527.00,1.14
4526.00,1.14
4525.00,1.15
4524.00,1.15
4523.00,1.15
4522.00,1.15
4521.00,1.16
4520.00,1.16
4519.00,1.16
4518.00,1.16
4517.00,1.17
4516.00,1.17
4515.00,1.17
4514.00,1.17
4513.00,1.18
4512.00,1.18
4511.00,1.18
4510.00,1.18
4509.00,1.18
4508.00,1.18
4507.00,1.19
4506.00,1.19
4505.00,1.19
4504.00,1.19
4503.00,1.19
4502.00,1.19
4501.00,1.20
4500.00,1.20
4499.00,1.20
4498.00,1.19
4497.00,1.19
4496.00,1.19
4495.00,1.19
4494.00,1.19
4493.00,1.19
4492.00,1.19
4491.00,1.19
4490.00,1.18
4489.00,1.18
4488.00,1.18
4487.00,1.18
4486.00,1.18
4485.00,1.18
4484.00,1.17
4483.00,1.17
4482.00,1.17
4481.00,1.17
4480.00,1.16
4479.00,1.16
4478.00,1.15
4477.00,1.15
4476.00,1.15
4475.00,1.15
4474.00,1.14
4473.00,1.14
4472.00,1.14
4471.00,1.13
4470.00,1.13
4469.00,1.13
4468.00,1.13
4467.00,1.13
4466.00,1.12
4465.00,1.12
4464.00,1.12
4463.00,1.12
4462.00,1.12
4461.00,1.11
4460.00,1.11
4459.00,1.11
4458.00,1.11
4457.00,1.11
4456.00,1.11
4455.00,1.11
4454.00,1.10
4453.00,1.10
4452.00,1.10
4451.00,1.10
4450.00,1.10
4449.00,1.10
4448.00,1.10
4447.00,1.10
4446.00,1.10
4445.00,1.09
4444.00,1.09
4443.00,1.09
4442.00,1.09
4441.00,1.08
4440.00,1.08
4439.00,1.08
4438.00,1.07
4437.00,1.07
4436.00,1.07
4435.00,1.06
4434.00,1.06
4433.00,1.05
4432.00,1.05
4431.00,1.04
4430.00,1.04
4429.00,1.03
4428.00,1.03
4427.00,1.02
4426.00,1.02
4425.00,1.01
4424.00,1.01
4423.00,1.00
4422.00,1.00
4421.00,0.99
4420.00,0.99
4419.00,0.98
4418.00,0.98
4417.00,0.97
4416.00,0.97
4415.00,0.97
4414.00,0.96
4413.00,0.96
4412.00,0.96
4411.00,0.96
4410.00,0.95
4409.00,0.95
4408.00,0.95
4407.00,0.95
4406.00,0.96
4405.00,0.96
4404.00,0.96
4403.00,0.96
4402.00,0.96
4401.00,0.96
4400.00,0.97
4399.00,0.97
4398.00,0.97
4397.00,0.98
4396.00,0.98
4395.00,0.98
4394.00,0.99
4393.00,0.99
4392.00,1.00
4391.00,1.00
4390.00,1.00
4389.00,1.00
4388.00,1.01
4387.00,1.01
4386.00,1.01
4385.00,1.01
4384.00,1.01
4383.00,1.02
4382.00,1.02
4381.00,1.02
4380.00,1.02
4379.00,1.01
4378.00,1.01
4377.00,1.01
4376.00,1.01
4375.00,1.01
4374.00,1.01
4373.00,1.01
4372.00,1.00
4371.00,1.00
4370.00,1.00
4369.00,1.00
4368.00,0.99
4367.00,0.99
4366.00,0.99
4365.00,0.99
4364.00,0.98
4363.00,0.98
4362.00,0.98
4361.00,0.98
4360.00,0.97
4359.00,0.97
4358.00,0.97
4357.00,0.97
4356.00,0.97
4355.00,0.97
4354.00,0.97
4353.00,0.97
4352.00,0.97
4351.00,0.97
4350.00,0.97
4349.00,0.97
4348.00,0.97
4347.00,0.97
4346.00,0.97
4345.00,0.97
4344.00,0.97
4343.00,0.97
4342.00,0.98
4341.00,0.98
4340.00,0.98
4339.00,0.98
4338.00,0.99
4337.00,0.99
4336.00,0.99
4335.00,0.99
4334.00,1.00
4333.00,1.00
4332.00,1.00
4331.00,1.01
4330.00,1.01
4329.00,1.01
4328.00,1.01
4327.00,1.01
4326.00,1.02
4325.00,1.02
4324.00,1.02
4323.00,1.02
4322.00,1.03
4321.00,1.03
4320.00,1.03
4319.00,1.03
4318.00,1.04
4317.00,1.04
4316.00,1.04
4315.00,1.04
4314.00,1.04
4313.00,1.04
4312.00,1.04
4311.00,1.04
4310.00,1.04
4309.00,1.04
4308.00,1.04
4307.00,1.04
4306.00,1.04
4305.00,1.05
4304.00,1.05
4303.00,1.05
4302.00,1.05
4301.00,1.05
4300.00,1.05
4299.00,1.05
4298.00,1.05
4297.00,1.05
4296.00,1.05
4295.00,1.05
4294.00,1.05
4293.00,1.05
4292.00,1.05
4291.00,1.05
4290.00,1.05
4289.00,1.05
4288.00,1.05
4287.00,1.05
4286.00,1.05
4285.00,1.05
4284.00,1.05
4283.00,1.05
4282.00,1.05
4281.00,1.05
4280.00,1.05
4279.00,1.05
4278.00,1.05
4277.00,1.05
4276.00,1.05
4275.00,1.05
4274.00,1.05
4273.00,1.05
4272.00,1.05
4271.00,1.05
4270.00,1.05
4269.00,1.05
4268.00,1.05
4267.00,1.05
4266.00,1.06
4265.00,1.06
4264.00,1.06
4263.00,1.06
4262.00,1.06
4261.00,1.06
4260.00,1.07
4259.00,1.07
4258.00,1.07
4257.00,1.07
4256.00,1.07
4255.00,1.07
4254.00,1.07
4253.00,1.07
4252.00,1.07
4251.00,1.07
4250.00,1.07
4249.00,1.07
4248.00,1.07
4247.00,1.07
4246.00,1.07
4245.00,1.07
4244.00,1.07
4243.00,1.07
4242.00,1.07
4241.00,1.07
4240.00,1.08
4239.00,1.08
4238.00,1.08
4237.00,1.08
4236.00,1.08
4235.00,1.08
4234.00,1.08
4233.00,1.08
4232.00,1.08
4231.00,1.08
4230.00,1.08
4229.00,1.08
4228.00,1.08
4227.00,1.09
4226.00,1.09
4225.00,1.09
4224.00,1.09
4223.00,1.09
4222.00,1.09
4221.00,1.09
4220.00,1.09
4219.00,1.09
4218.00,1.09
4217.00,1.09
4216.00,1.09
4215.00,1.09
4214.00,1.09
4213.00,1.09
4212.00,1.09
4211.00,1.09
4210.00,1.09
4209.00,1.09
4208.00,1.08
4207.00,1.08
4206.00,1.08
4205.00,1.08
4204.00,1.08
4203.00,1.08
4202.00,1.07
4201.00,1.07
4200.00,1.07
4199.00,1.07
4198.00,1.07
4197.00,1.06
4196.00,1.06
4195.00,1.06
4194.00,1.06
4193.00,1.06
4192.00,1.06
4191.00,1.06
4190.00,1.06
4189.00,1.06
4188.00,1.06
4187.00,1.07
4186.00,1.07
4185.00,1.07
4184.00,1.07
4183.00,1.08
4182.00,1.08
4181.00,1.08
4180.00,1.09
4179.00,1.09
4178.00,1.09
4177.00,1.09
4176.00,1.10
4175.00,1.10
4174.00,1.10
4173.00,1.10
4172.00,1.11
4171.00,1.11
4170.00,1.11
4169.00,1.11
4168.00,1.11
4167.00,1.11
4166.00,1.12
4165.00,1.11
4164.00,1.11
4163.00,1.11
4162.00,1.11
4161.00,1.11
4160.00,1.10
4159.00,1.10
4158.00,1.09
4157.00,1.09
4156.00,1.08
4155.00,1.08
4154.00,1.08
4153.00,1.07
4152.00,1.07
4151.00,1.07
4150.00,1.06
4149.00,1.06
4148.00,1.06
4147.00,1.05
4146.00,1.05
4145.00,1.05
4144.00,1.04
4143.00,1.04
4142.00,1.04
4141.00,1.04
4140.00,1.04
4139.00,1.04
4138.00,1.04
4137.00,1.04
4136.00,1.04
4135.00,1.04
4134.00,1.05
4133.00,1.05
4132.00,1.05
4131.00,1.06
4130.00,1.06
4129.00,1.06
4128.00,1.07
4127.00,1.07
4126.00,1.07
4125.00,1.07
4124.00,1.08
4123.00,1.08
4122.00,1.08
4121.00,1.08
4120.00,1.08
4119.00,1.08
4118.00,1.08
4117.00,1.09
4116.00,1.09
4115.00,1.09
4114.00,1.09
4113.00,1.09
4112.00,1.09
4111.00,1.08
4110.00,1.08
4109.00,1.08
4108.00,1.08
4107.00,1.08
4106.00,1.07
4105.00,1.07
4104.00,1.07
4103.00,1.07
4102.00,1.06
4101.00,1.06
4100.00,1.06
4099.00,1.06
4098.00,1.06
4097.00,1.06
4096.00,1.06
4095.00,1.06
4094.00,1.07
4093.00,1.07
4092.00,1.07
4091.00,1.07
4090.00,1.07
4089.00,1.08
4088.00,1.08
4087.00,1.08
4086.00,1.08
4085.00,1.08
4084.00,1.09
4083.00,1.09
4082.00,1.09
4081.00,1.10
4080.00,1.10
4079.00,1.11
4078.00,1.11
4077.00,1.12
4076.00,1.12
4075.00,1.13
4074.00,1.13
4073.00,1.13
4072.00,1.14
4071.00,1.14
4070.00,1.15
4069.00,1.15
4068.00,1.15
4067.00,1.16
4066.00,1.16
4065.00,1.16
4064.00,1.17
4063.00,1.17
4062.00,1.17
4061.00,1.18
4060.00,1.18
4059.00,1.18
4058.00,1.18
4057.00,1.18
4056.00,1.18
4055.00,1.18
4054.00,1.18
4053.00,1.18
4052.00,1.18
4051.00,1.18
4050.00,1.18
4049.00,1.18
4048.00,1.18
4047.00,1.18
4046.00,1.18
4045.00,1.18
4044.00,1.17
4043.00,1.17
4042.00,1.17
4041.00,1.17
4040.00,1.16
4039.00,1.16
4038.00,1.16
4037.00,1.16
4036.00,1.16
4035.00,1.16
4034.00,1.16
4033.00,1.16
4032.00,1.16
4031.00,1.16
4030.00,1.16
4029.00,1.17
4028.00,1.17
4027.00,1.17
4026.00,1.18
4025.00,1.18
4024.00,1.18
4023.00,1.19
4022.00,1.19
4021.00,1.19
4020.00,1.20
4019.00,1.20
4018.00,1.20
4017.00,1.20
4016.00,1.21
4015.00,1.21
4014.00,1.21
4013.00,1.21
4012.00,1.21
4011.00,1.21
4010.00,1.21
4009.00,1.21
4008.00,1.21
4007.00,1.21
4006.00,1.21
4005.00,1.21
4004.00,1.20
4003.00,1.20
4002.00,1.20
4001.00,1.19
4000.00,1.19
