创建为新数据集,样品 780 用户 Administrator 日期 星期一, 七月 29 2019
cm-1,%T
10000.00,2.24
9999.00,2.22
9998.00,2.20
9997.00,2.18
9996.00,2.17
9995.00,2.15
9994.00,2.13
9993.00,2.11
9992.00,2.09
9991.00,2.08
9990.00,2.06
9989.00,2.04
9988.00,2.03
9987.00,2.01
9986.00,2.00
9985.00,1.99
9984.00,1.98
9983.00,1.97
9982.00,1.96
9981.00,1.95
9980.00,1.94
9979.00,1.93
9978.00,1.93
9977.00,1.92
9976.00,1.92
9975.00,1.92
9974.00,1.91
9973.00,1.91
9972.00,1.91
9971.00,1.90
9970.00,1.90
9969.00,1.90
9968.00,1.90
9967.00,1.90
9966.00,1.90
9965.00,1.90
9964.00,1.90
9963.00,1.90
9962.00,1.90
9961.00,1.91
9960.00,1.91
9959.00,1.91
9958.00,1.92
9957.00,1.92
9956.00,1.92
9955.00,1.93
9954.00,1.93
9953.00,1.94
9952.00,1.94
9951.00,1.94
9950.00,1.95
9949.00,1.95
9948.00,1.96
9947.00,1.97
9946.00,1.97
9945.00,1.98
9944.00,1.99
9943.00,2.00
9942.00,2.00
9941.00,2.01
9940.00,2.02
9939.00,2.03
9938.00,2.03
9937.00,2.04
9936.00,2.05
9935.00,2.05
9934.00,2.06
9933.00,2.07
9932.00,2.08
9931.00,2.08
9930.00,2.09
9929.00,2.09
9928.00,2.10
9927.00,2.10
9926.00,2.10
9925.00,2.10
9924.00,2.11
9923.00,2.11
9922.00,2.10
9921.00,2.10
9920.00,2.10
9919.00,2.10
9918.00,2.09
9917.00,2.08
9916.00,2.08
9915.00,2.07
9914.00,2.06
9913.00,2.05
9912.00,2.04
9911.00,2.03
9910.00,2.02
9909.00,2.00
9908.00,1.99
9907.00,1.98
9906.00,1.96
9905.00,1.95
9904.00,1.94
9903.00,1.92
9902.00,1.91
9901.00,1.90
9900.00,1.89
9899.00,1.88
9898.00,1.87
9897.00,1.86
9896.00,1.85
9895.00,1.84
9894.00,1.83
9893.00,1.82
9892.00,1.81
9891.00,1.80
9890.00,1.80
9889.00,1.79
9888.00,1.78
9887.00,1.78
9886.00,1.77
9885.00,1.77
9884.00,1.76
9883.00,1.76
9882.00,1.76
9881.00,1.75
9880.00,1.75
9879.00,1.74
9878.00,1.74
9877.00,1.73
9876.00,1.73
9875.00,1.73
9874.00,1.72
9873.00,1.72
9872.00,1.72
9871.00,1.72
9870.00,1.72
9869.00,1.72
9868.00,1.72
9867.00,1.72
9866.00,1.73
9865.00,1.73
9864.00,1.74
9863.00,1.74
9862.00,1.75
9861.00,1.76
9860.00,1.76
9859.00,1.77
9858.00,1.77
9857.00,1.78
9856.00,1.79
9855.00,1.79
9854.00,1.80
9853.00,1.81
9852.00,1.81
9851.00,1.82
9850.00,1.83
9849.00,1.84
9848.00,1.84
9847.00,1.85
9846.00,1.85
9845.00,1.85
9844.00,1.85
9843.00,1.85
9842.00,1.85
9841.00,1.85
9840.00,1.85
9839.00,1.85
9838.00,1.85
9837.00,1.85
9836.00,1.85
9835.00,1.85
9834.00,1.85
9833.00,1.85
9832.00,1.85
9831.00,1.85
9830.00,1.86
9829.00,1.86
9828.00,1.87
9827.00,1.87
9826.00,1.88
9825.00,1.88
9824.00,1.89
9823.00,1.90
9822.00,1.91
9821.00,1.92
9820.00,1.93
9819.00,1.94
9818.00,1.95
9817.00,1.96
9816.00,1.97
9815.00,1.99
9814.00,2.00
9813.00,2.01
9812.00,2.02
9811.00,2.04
9810.00,2.05
9809.00,2.06
9808.00,2.07
9807.00,2.07
9806.00,2.08
9805.00,2.09
9804.00,2.09
9803.00,2.10
9802.00,2.10
9801.00,2.10
9800.00,2.10
9799.00,2.10
9798.00,2.10
9797.00,2.10
9796.00,2.09
9795.00,2.09
9794.00,2.09
9793.00,2.08
9792.00,2.08
9791.00,2.07
9790.00,2.07
9789.00,2.07
9788.00,2.06
9787.00,2.05
9786.00,2.05
9785.00,2.04
9784.00,2.04
9783.00,2.03
9782.00,2.02
9781.00,2.01
9780.00,2.01
9779.00,2.00
9778.00,1.99
9777.00,1.99
9776.00,1.98
9775.00,1.98
9774.00,1.98
9773.00,1.98
9772.00,1.98
9771.00,1.98
9770.00,1.98
9769.00,1.98
9768.00,1.98
9767.00,1.98
9766.00,1.98
9765.00,1.98
9764.00,1.98
9763.00,1.98
9762.00,1.97
9761.00,1.97
9760.00,1.97
9759.00,1.97
9758.00,1.97
9757.00,1.96
9756.00,1.96
9755.00,1.96
9754.00,1.96
9753.00,1.96
9752.00,1.95
9751.00,1.95
9750.00,1.95
9749.00,1.94
9748.00,1.94
9747.00,1.93
9746.00,1.93
9745.00,1.92
9744.00,1.91
9743.00,1.90
9742.00,1.90
9741.00,1.89
9740.00,1.88
9739.00,1.88
9738.00,1.87
9737.00,1.87
9736.00,1.86
9735.00,1.86
9734.00,1.86
9733.00,1.86
9732.00,1.86
9731.00,1.86
9730.00,1.86
9729.00,1.86
9728.00,1.86
9727.00,1.86
9726.00,1.86
9725.00,1.86
9724.00,1.87
9723.00,1.87
9722.00,1.87
9721.00,1.87
9720.00,1.87
9719.00,1.88
9718.00,1.88
9717.00,1.88
9716.00,1.88
9715.00,1.89
9714.00,1.89
9713.00,1.89
9712.00,1.90
9711.00,1.90
9710.00,1.90
9709.00,1.91
9708.00,1.91
9707.00,1.91
9706.00,1.91
9705.00,1.91
9704.00,1.92
9703.00,1.92
9702.00,1.92
9701.00,1.92
9700.00,1.92
9699.00,1.92
9698.00,1.93
9697.00,1.93
9696.00,1.93
9695.00,1.93
9694.00,1.93
9693.00,1.93
9692.00,1.94
9691.00,1.94
9690.00,1.94
9689.00,1.94
9688.00,1.94
9687.00,1.94
9686.00,1.94
9685.00,1.94
9684.00,1.94
9683.00,1.94
9682.00,1.94
9681.00,1.94
9680.00,1.94
9679.00,1.94
9678.00,1.94
9677.00,1.94
9676.00,1.93
9675.00,1.93
9674.00,1.93
9673.00,1.92
9672.00,1.92
9671.00,1.92
9670.00,1.91
9669.00,1.91
9668.00,1.91
9667.00,1.90
9666.00,1.90
9665.00,1.90
9664.00,1.90
9663.00,1.90
9662.00,1.91
9661.00,1.91
9660.00,1.91
9659.00,1.91
9658.00,1.92
9657.00,1.92
9656.00,1.92
9655.00,1.92
9654.00,1.93
9653.00,1.93
9652.00,1.93
9651.00,1.94
9650.00,1.95
9649.00,1.95
9648.00,1.96
9647.00,1.97
9646.00,1.98
9645.00,1.98
9644.00,1.99
9643.00,2.00
9642.00,2.01
9641.00,2.02
9640.00,2.02
9639.00,2.03
9638.00,2.03
9637.00,2.04
9636.00,2.04
9635.00,2.04
9634.00,2.05
9633.00,2.05
9632.00,2.05
9631.00,2.05
9630.00,2.05
9629.00,2.05
9628.00,2.05
9627.00,2.05
9626.00,2.04
9625.00,2.04
9624.00,2.03
9623.00,2.03
9622.00,2.02
9621.00,2.02
9620.00,2.01
9619.00,2.01
9618.00,2.00
9617.00,2.00
9616.00,1.99
9615.00,1.98
9614.00,1.98
9613.00,1.98
9612.00,1.97
9611.00,1.97
9610.00,1.97
9609.00,1.96
9608.00,1.96
9607.00,1.96
9606.00,1.96
9605.00,1.96
9604.00,1.96
9603.00,1.95
9602.00,1.95
9601.00,1.95
9600.00,1.95
9599.00,1.95
9598.00,1.95
9597.00,1.95
9596.00,1.95
9595.00,1.95
9594.00,1.95
9593.00,1.95
9592.00,1.95
9591.00,1.94
9590.00,1.94
9589.00,1.94
9588.00,1.94
9587.00,1.93
9586.00,1.93
9585.00,1.92
9584.00,1.92
9583.00,1.91
9582.00,1.91
9581.00,1.90
9580.00,1.90
9579.00,1.89
9578.00,1.89
9577.00,1.88
9576.00,1.88
9575.00,1.88
9574.00,1.88
9573.00,1.88
9572.00,1.88
9571.00,1.88
9570.00,1.88
9569.00,1.88
9568.00,1.89
9567.00,1.89
9566.00,1.90
9565.00,1.90
9564.00,1.90
9563.00,1.91
9562.00,1.91
9561.00,1.91
9560.00,1.91
9559.00,1.92
9558.00,1.92
9557.00,1.92
9556.00,1.93
9555.00,1.93
9554.00,1.94
9553.00,1.94
9552.00,1.94
9551.00,1.95
9550.00,1.95
9549.00,1.95
9548.00,1.95
9547.00,1.95
9546.00,1.95
9545.00,1.95
9544.00,1.95
9543.00,1.95
9542.00,1.94
9541.00,1.94
9540.00,1.94
9539.00,1.94
9538.00,1.94
9537.00,1.94
9536.00,1.94
9535.00,1.94
9534.00,1.95
9533.00,1.95
9532.00,1.95
9531.00,1.95
9530.00,1.96
9529.00,1.96
9528.00,1.96
9527.00,1.97
9526.00,1.97
9525.00,1.97
9524.00,1.97
9523.00,1.97
9522.00,1.97
9521.00,1.98
9520.00,1.98
9519.00,1.98
9518.00,1.99
9517.00,1.99
9516.00,2.00
9515.00,2.00
9514.00,2.00
9513.00,2.00
9512.00,2.01
9511.00,2.01
9510.00,2.00
9509.00,2.00
9508.00,2.00
9507.00,2.00
9506.00,1.99
9505.00,1.98
9504.00,1.98
9503.00,1.97
9502.00,1.97
9501.00,1.96
9500.00,1.95
9499.00,1.95
9498.00,1.94
9497.00,1.94
9496.00,1.93
9495.00,1.92
9494.00,1.92
9493.00,1.91
9492.00,1.90
9491.00,1.89
9490.00,1.89
9489.00,1.88
9488.00,1.87
9487.00,1.86
9486.00,1.86
9485.00,1.85
9484.00,1.85
9483.00,1.84
9482.00,1.84
9481.00,1.83
9480.00,1.83
9479.00,1.83
9478.00,1.83
9477.00,1.83
9476.00,1.83
9475.00,1.83
9474.00,1.84
9473.00,1.84
9472.00,1.84
9471.00,1.85
9470.00,1.85
9469.00,1.85
9468.00,1.86
9467.00,1.86
9466.00,1.86
9465.00,1.87
9464.00,1.87
9463.00,1.87
9462.00,1.87
9461.00,1.87
9460.00,1.88
9459.00,1.88
9458.00,1.88
9457.00,1.88
9456.00,1.88
9455.00,1.88
9454.00,1.88
9453.00,1.88
9452.00,1.88
9451.00,1.88
9450.00,1.88
9449.00,1.88
9448.00,1.88
9447.00,1.87
9446.00,1.87
9445.00,1.87
9444.00,1.87
9443.00,1.87
9442.00,1.87
9441.00,1.87
9440.00,1.88
9439.00,1.88
9438.00,1.88
9437.00,1.89
9436.00,1.90
9435.00,1.90
9434.00,1.91
9433.00,1.92
9432.00,1.93
9431.00,1.94
9430.00,1.95
9429.00,1.96
9428.00,1.98
9427.00,1.99
9426.00,2.00
9425.00,2.01
9424.00,2.02
9423.00,2.03
9422.00,2.04
9421.00,2.05
9420.00,2.06
9419.00,2.07
9418.00,2.07
9417.00,2.08
9416.00,2.08
9415.00,2.08
9414.00,2.09
9413.00,2.08
9412.00,2.08
9411.00,2.08
9410.00,2.08
9409.00,2.07
9408.00,2.07
9407.00,2.06
9406.00,2.05
9405.00,2.05
9404.00,2.04
9403.00,2.04
9402.00,2.03
9401.00,2.02
9400.00,2.02
9399.00,2.01
9398.00,2.00
9397.00,1.99
9396.00,1.99
9395.00,1.98
9394.00,1.97
9393.00,1.97
9392.00,1.96
9391.00,1.96
9390.00,1.95
9389.00,1.95
9388.00,1.95
9387.00,1.94
9386.00,1.94
9385.00,1.94
9384.00,1.94
9383.00,1.94
9382.00,1.94
9381.00,1.93
9380.00,1.93
9379.00,1.93
9378.00,1.92
9377.00,1.92
9376.00,1.91
9375.00,1.91
9374.00,1.90
9373.00,1.90
9372.00,1.89
9371.00,1.89
9370.00,1.89
9369.00,1.89
9368.00,1.88
9367.00,1.88
9366.00,1.88
9365.00,1.89
9364.00,1.89
9363.00,1.89
9362.00,1.89
9361.00,1.89
9360.00,1.89
9359.00,1.90
9358.00,1.90
9357.00,1.91
9356.00,1.91
9355.00,1.92
9354.00,1.93
9353.00,1.94
9352.00,1.95
9351.00,1.96
9350.00,1.97
9349.00,1.98
9348.00,1.99
9347.00,2.00
9346.00,2.01
9345.00,2.02
9344.00,2.03
9343.00,2.04
9342.00,2.05
9341.00,2.05
9340.00,2.06
9339.00,2.06
9338.00,2.07
9337.00,2.07
9336.00,2.07
9335.00,2.07
9334.00,2.08
9333.00,2.08
9332.00,2.08
9331.00,2.08
9330.00,2.08
9329.00,2.08
9328.00,2.08
9327.00,2.08
9326.00,2.08
9325.00,2.08
9324.00,2.07
9323.00,2.07
9322.00,2.06
9321.00,2.06
9320.00,2.05
9319.00,2.05
9318.00,2.05
9317.00,2.04
9316.00,2.04
9315.00,2.04
9314.00,2.04
9313.00,2.04
9312.00,2.04
9311.00,2.03
9310.00,2.03
9309.00,2.03
9308.00,2.03
9307.00,2.03
9306.00,2.03
9305.00,2.02
9304.00,2.02
9303.00,2.01
9302.00,2.01
9301.00,2.00
9300.00,2.00
9299.00,1.99
9298.00,1.98
9297.00,1.98
9296.00,1.97
9295.00,1.96
9294.00,1.96
9293.00,1.95
9292.00,1.94
9291.00,1.94
9290.00,1.93
9289.00,1.92
9288.00,1.92
9287.00,1.91
9286.00,1.90
9285.00,1.90
9284.00,1.89
9283.00,1.89
9282.00,1.88
9281.00,1.88
9280.00,1.88
9279.00,1.87
9278.00,1.87
9277.00,1.87
9276.00,1.87
9275.00,1.87
9274.00,1.87
9273.00,1.87
9272.00,1.87
9271.00,1.87
9270.00,1.87
9269.00,1.87
9268.00,1.87
9267.00,1.88
9266.00,1.88
9265.00,1.89
9264.00,1.89
9263.00,1.89
9262.00,1.90
9261.00,1.90
9260.00,1.91
9259.00,1.91
9258.00,1.91
9257.00,1.92
9256.00,1.92
9255.00,1.92
9254.00,1.93
9253.00,1.93
9252.00,1.93
9251.00,1.94
9250.00,1.94
9249.00,1.95
9248.00,1.96
9247.00,1.96
9246.00,1.97
9245.00,1.98
9244.00,1.98
9243.00,1.99
9242.00,1.99
9241.00,2.00
9240.00,2.00
9239.00,2.01
9238.00,2.01
9237.00,2.02
9236.00,2.02
9235.00,2.02
9234.00,2.02
9233.00,2.03
9232.00,2.03
9231.00,2.03
9230.00,2.03
9229.00,2.03
9228.00,2.04
9227.00,2.04
9226.00,2.04
9225.00,2.04
9224.00,2.04
9223.00,2.03
9222.00,2.03
9221.00,2.03
9220.00,2.03
9219.00,2.03
9218.00,2.02
9217.00,2.02
9216.00,2.02
9215.00,2.02
9214.00,2.01
9213.00,2.01
9212.00,2.01
9211.00,2.01
9210.00,2.01
9209.00,2.01
9208.00,2.01
9207.00,2.01
9206.00,2.00
9205.00,2.00
9204.00,2.00
9203.00,2.00
9202.00,2.00
9201.00,2.00
9200.00,2.00
9199.00,2.00
9198.00,2.00
9197.00,2.00
9196.00,2.00
9195.00,2.00
9194.00,2.00
9193.00,2.00
9192.00,2.00
9191.00,2.00
9190.00,2.00
9189.00,2.01
9188.00,2.01
9187.00,2.01
9186.00,2.01
9185.00,2.01
9184.00,2.01
9183.00,2.02
9182.00,2.02
9181.00,2.02
9180.00,2.02
9179.00,2.02
9178.00,2.02
9177.00,2.02
9176.00,2.02
9175.00,2.02
9174.00,2.02
9173.00,2.02
9172.00,2.02
9171.00,2.02
9170.00,2.01
9169.00,2.01
9168.00,2.01
9167.00,2.01
9166.00,2.01
9165.00,2.00
9164.00,2.00
9163.00,2.00
9162.00,1.99
9161.00,1.99
9160.00,1.99
9159.00,1.99
9158.00,1.99
9157.00,1.99
9156.00,1.99
9155.00,1.99
9154.00,1.99
9153.00,1.99
9152.00,2.00
9151.00,2.00
9150.00,2.00
9149.00,2.00
9148.00,2.01
9147.00,2.01
9146.00,2.01
9145.00,2.01
9144.00,2.01
9143.00,2.01
9142.00,2.01
9141.00,2.01
9140.00,2.02
9139.00,2.02
9138.00,2.02
9137.00,2.02
9136.00,2.02
9135.00,2.02
9134.00,2.02
9133.00,2.02
9132.00,2.02
9131.00,2.01
9130.00,2.01
9129.00,2.01
9128.00,2.00
9127.00,2.00
9126.00,1.99
9125.00,1.98
9124.00,1.98
9123.00,1.97
9122.00,1.97
9121.00,1.96
9120.00,1.95
9119.00,1.95
9118.00,1.95
9117.00,1.94
9116.00,1.94
9115.00,1.94
9114.00,1.93
9113.00,1.93
9112.00,1.93
9111.00,1.93
9110.00,1.93
9109.00,1.93
9108.00,1.92
9107.00,1.92
9106.00,1.92
9105.00,1.92
9104.00,1.92
9103.00,1.92
9102.00,1.93
9101.00,1.93
9100.00,1.93
9099.00,1.93
9098.00,1.94
9097.00,1.94
9096.00,1.94
9095.00,1.95
9094.00,1.95
9093.00,1.95
9092.00,1.95
9091.00,1.96
9090.00,1.96
9089.00,1.96
9088.00,1.96
9087.00,1.95
9086.00,1.95
9085.00,1.95
9084.00,1.95
9083.00,1.94
9082.00,1.94
9081.00,1.94
9080.00,1.93
9079.00,1.93
9078.00,1.93
9077.00,1.92
9076.00,1.92
9075.00,1.92
9074.00,1.91
9073.00,1.91
9072.00,1.90
9071.00,1.89
9070.00,1.89
9069.00,1.88
9068.00,1.88
9067.00,1.87
9066.00,1.87
9065.00,1.87
9064.00,1.86
9063.00,1.86
9062.00,1.86
9061.00,1.86
9060.00,1.86
9059.00,1.86
9058.00,1.86
9057.00,1.87
9056.00,1.87
9055.00,1.87
9054.00,1.87
9053.00,1.87
9052.00,1.87
9051.00,1.87
9050.00,1.88
9049.00,1.88
9048.00,1.88
9047.00,1.88
9046.00,1.89
9045.00,1.89
9044.00,1.90
9043.00,1.90
9042.00,1.91
9041.00,1.91
9040.00,1.92
9039.00,1.92
9038.00,1.92
9037.00,1.93
9036.00,1.93
9035.00,1.93
9034.00,1.93
9033.00,1.93
9032.00,1.94
9031.00,1.94
9030.00,1.94
9029.00,1.94
9028.00,1.94
9027.00,1.95
9026.00,1.95
9025.00,1.95
9024.00,1.96
9023.00,1.96
9022.00,1.96
9021.00,1.96
9020.00,1.96
9019.00,1.97
9018.00,1.97
9017.00,1.97
9016.00,1.97
9015.00,1.97
9014.00,1.97
9013.00,1.97
9012.00,1.97
9011.00,1.97
9010.00,1.97
9009.00,1.97
9008.00,1.97
9007.00,1.97
9006.00,1.98
9005.00,1.98
9004.00,1.98
9003.00,1.98
9002.00,1.98
9001.00,1.98
9000.00,1.98
8999.00,1.98
8998.00,1.98
8997.00,1.98
8996.00,1.98
8995.00,1.98
8994.00,1.98
8993.00,1.98
8992.00,1.98
8991.00,1.98
8990.00,1.98
8989.00,1.98
8988.00,1.98
8987.00,1.98
8986.00,1.97
8985.00,1.97
8984.00,1.97
8983.00,1.97
8982.00,1.96
8981.00,1.96
8980.00,1.95
8979.00,1.95
8978.00,1.95
8977.00,1.95
8976.00,1.94
8975.00,1.94
8974.00,1.94
8973.00,1.94
8972.00,1.94
8971.00,1.94
8970.00,1.93
8969.00,1.93
8968.00,1.93
8967.00,1.93
8966.00,1.93
8965.00,1.94
8964.00,1.94
8963.00,1.94
8962.00,1.94
8961.00,1.95
8960.00,1.95
8959.00,1.96
8958.00,1.97
8957.00,1.97
8956.00,1.98
8955.00,1.99
8954.00,2.00
8953.00,2.00
8952.00,2.01
8951.00,2.02
8950.00,2.02
8949.00,2.03
8948.00,2.03
8947.00,2.03
8946.00,2.04
8945.00,2.04
8944.00,2.04
8943.00,2.05
8942.00,2.05
8941.00,2.05
8940.00,2.05
8939.00,2.05
8938.00,2.05
8937.00,2.04
8936.00,2.04
8935.00,2.03
8934.00,2.03
8933.00,2.02
8932.00,2.01
8931.00,2.01
8930.00,2.00
8929.00,1.99
8928.00,1.99
8927.00,1.98
8926.00,1.98
8925.00,1.97
8924.00,1.97
8923.00,1.97
8922.00,1.96
8921.00,1.96
8920.00,1.96
8919.00,1.96
8918.00,1.96
8917.00,1.95
8916.00,1.95
8915.00,1.95
8914.00,1.95
8913.00,1.95
8912.00,1.95
8911.00,1.95
8910.00,1.96
8909.00,1.96
8908.00,1.97
8907.00,1.97
8906.00,1.98
8905.00,1.98
8904.00,1.99
8903.00,1.99
8902.00,1.99
8901.00,2.00
8900.00,2.00
8899.00,2.00
8898.00,2.00
8897.00,2.00
8896.00,2.00
8895.00,1.99
8894.00,1.99
8893.00,1.99
8892.00,1.99
8891.00,1.98
8890.00,1.98
8889.00,1.98
8888.00,1.98
8887.00,1.98
8886.00,1.97
8885.00,1.97
8884.00,1.97
8883.00,1.97
8882.00,1.96
8881.00,1.96
8880.00,1.95
8879.00,1.95
8878.00,1.94
8877.00,1.94
8876.00,1.93
8875.00,1.93
8874.00,1.93
8873.00,1.92
8872.00,1.92
8871.00,1.92
8870.00,1.92
8869.00,1.92
8868.00,1.92
8867.00,1.93
8866.00,1.93
8865.00,1.93
8864.00,1.93
8863.00,1.93
8862.00,1.94
8861.00,1.94
8860.00,1.94
8859.00,1.94
8858.00,1.94
8857.00,1.94
8856.00,1.94
8855.00,1.95
8854.00,1.95
8853.00,1.95
8852.00,1.95
8851.00,1.95
8850.00,1.96
8849.00,1.96
8848.00,1.96
8847.00,1.96
8846.00,1.96
8845.00,1.96
8844.00,1.96
8843.00,1.96
8842.00,1.96
8841.00,1.96
8840.00,1.96
8839.00,1.95
8838.00,1.95
8837.00,1.95
8836.00,1.95
8835.00,1.94
8834.00,1.94
8833.00,1.94
8832.00,1.94
8831.00,1.94
8830.00,1.94
8829.00,1.94
8828.00,1.94
8827.00,1.94
8826.00,1.94
8825.00,1.94
8824.00,1.95
8823.00,1.95
8822.00,1.95
8821.00,1.95
8820.00,1.95
8819.00,1.96
8818.00,1.96
8817.00,1.96
8816.00,1.97
8815.00,1.97
8814.00,1.98
8813.00,1.98
8812.00,1.99
8811.00,1.99
8810.00,2.00
8809.00,2.00
8808.00,2.01
8807.00,2.01
8806.00,2.01
8805.00,2.01
8804.00,2.02
8803.00,2.02
8802.00,2.02
8801.00,2.01
8800.00,2.01
8799.00,2.01
8798.00,2.01
8797.00,2.01
8796.00,2.01
8795.00,2.00
8794.00,2.00
8793.00,2.00
8792.00,1.99
8791.00,1.99
8790.00,1.98
8789.00,1.98
8788.00,1.97
8787.00,1.97
8786.00,1.96
8785.00,1.95
8784.00,1.94
8783.00,1.93
8782.00,1.93
8781.00,1.92
8780.00,1.91
8779.00,1.90
8778.00,1.90
8777.00,1.89
8776.00,1.89
8775.00,1.88
8774.00,1.88
8773.00,1.87
8772.00,1.87
8771.00,1.87
8770.00,1.86
8769.00,1.86
8768.00,1.86
8767.00,1.86
8766.00,1.86
8765.00,1.86
8764.00,1.86
8763.00,1.87
8762.00,1.87
8761.00,1.87
8760.00,1.88
8759.00,1.88
8758.00,1.89
8757.00,1.90
8756.00,1.90
8755.00,1.91
8754.00,1.91
8753.00,1.92
8752.00,1.93
8751.00,1.94
8750.00,1.95
8749.00,1.95
8748.00,1.96
8747.00,1.97
8746.00,1.98
8745.00,1.98
8744.00,1.99
8743.00,2.00
8742.00,2.00
8741.00,2.01
8740.00,2.01
8739.00,2.01
8738.00,2.02
8737.00,2.02
8736.00,2.03
8735.00,2.03
8734.00,2.03
8733.00,2.03
8732.00,2.04
8731.00,2.04
8730.00,2.04
8729.00,2.05
8728.00,2.05
8727.00,2.05
8726.00,2.05
8725.00,2.06
8724.00,2.06
8723.00,2.06
8722.00,2.06
8721.00,2.06
8720.00,2.07
8719.00,2.07
8718.00,2.07
8717.00,2.07
8716.00,2.07
8715.00,2.07
8714.00,2.07
8713.00,2.07
8712.00,2.07
8711.00,2.07
8710.00,2.07
8709.00,2.07
8708.00,2.07
8707.00,2.07
8706.00,2.07
8705.00,2.07
8704.00,2.07
8703.00,2.07
8702.00,2.06
8701.00,2.06
8700.00,2.05
8699.00,2.05
8698.00,2.04
8697.00,2.03
8696.00,2.03
8695.00,2.02
8694.00,2.01
8693.00,2.01
8692.00,2.00
8691.00,1.99
8690.00,1.99
8689.00,1.98
8688.00,1.98
8687.00,1.97
8686.00,1.97
8685.00,1.96
8684.00,1.96
8683.00,1.95
8682.00,1.95
8681.00,1.94
8680.00,1.94
8679.00,1.93
8678.00,1.93
8677.00,1.93
8676.00,1.93
8675.00,1.93
8674.00,1.93
8673.00,1.93
8672.00,1.93
8671.00,1.94
8670.00,1.94
8669.00,1.95
8668.00,1.95
8667.00,1.95
8666.00,1.96
8665.00,1.96
8664.00,1.96
8663.00,1.97
8662.00,1.97
8661.00,1.97
8660.00,1.97
8659.00,1.97
8658.00,1.98
8657.00,1.98
8656.00,1.98
8655.00,1.98
8654.00,1.98
8653.00,1.98
8652.00,1.99
8651.00,1.99
8650.00,1.98
8649.00,1.98
8648.00,1.98
8647.00,1.98
8646.00,1.98
8645.00,1.97
8644.00,1.97
8643.00,1.97
8642.00,1.96
8641.00,1.96
8640.00,1.96
8639.00,1.95
8638.00,1.95
8637.00,1.95
8636.00,1.95
8635.00,1.95
8634.00,1.95
8633.00,1.95
8632.00,1.95
8631.00,1.95
8630.00,1.95
8629.00,1.95
8628.00,1.95
8627.00,1.95
8626.00,1.95
8625.00,1.95
8624.00,1.95
8623.00,1.95
8622.00,1.95
8621.00,1.95
8620.00,1.95
8619.00,1.95
8618.00,1.95
8617.00,1.95
8616.00,1.95
8615.00,1.95
8614.00,1.95
8613.00,1.95
8612.00,1.94
8611.00,1.94
8610.00,1.94
8609.00,1.94
8608.00,1.94
8607.00,1.93
8606.00,1.93
8605.00,1.93
8604.00,1.92
8603.00,1.92
8602.00,1.92
8601.00,1.92
8600.00,1.92
8599.00,1.91
8598.00,1.91
8597.00,1.91
8596.00,1.91
8595.00,1.91
8594.00,1.91
8593.00,1.91
8592.00,1.91
8591.00,1.91
8590.00,1.91
8589.00,1.91
8588.00,1.91
8587.00,1.91
8586.00,1.91
8585.00,1.92
8584.00,1.92
8583.00,1.92
8582.00,1.92
8581.00,1.92
8580.00,1.93
8579.00,1.93
8578.00,1.93
8577.00,1.93
8576.00,1.93
8575.00,1.93
8574.00,1.93
8573.00,1.93
8572.00,1.93
8571.00,1.93
8570.00,1.93
8569.00,1.93
8568.00,1.93
8567.00,1.93
8566.00,1.93
8565.00,1.93
8564.00,1.93
8563.00,1.93
8562.00,1.93
8561.00,1.93
8560.00,1.93
8559.00,1.92
8558.00,1.92
8557.00,1.92
8556.00,1.92
8555.00,1.92
8554.00,1.92
8553.00,1.92
8552.00,1.92
8551.00,1.92
8550.00,1.92
8549.00,1.92
8548.00,1.92
8547.00,1.92
8546.00,1.92
8545.00,1.92
8544.00,1.92
8543.00,1.92
8542.00,1.92
8541.00,1.91
8540.00,1.91
8539.00,1.91
8538.00,1.91
8537.00,1.91
8536.00,1.91
8535.00,1.91
8534.00,1.91
8533.00,1.91
8532.00,1.91
8531.00,1.92
8530.00,1.92
8529.00,1.92
8528.00,1.92
8527.00,1.92
8526.00,1.92
8525.00,1.92
8524.00,1.92
8523.00,1.92
8522.00,1.92
8521.00,1.92
8520.00,1.92
8519.00,1.92
8518.00,1.92
8517.00,1.92
8516.00,1.93
8515.00,1.93
8514.00,1.93
8513.00,1.93
8512.00,1.93
8511.00,1.93
8510.00,1.94
8509.00,1.94
8508.00,1.94
8507.00,1.95
8506.00,1.95
8505.00,1.95
8504.00,1.95
8503.00,1.95
8502.00,1.95
8501.00,1.96
8500.00,1.96
8499.00,1.96
8498.00,1.96
8497.00,1.96
8496.00,1.96
8495.00,1.96
8494.00,1.97
8493.00,1.97
8492.00,1.97
8491.00,1.97
8490.00,1.97
8489.00,1.97
8488.00,1.97
8487.00,1.97
8486.00,1.97
8485.00,1.97
8484.00,1.96
8483.00,1.96
8482.00,1.96
8481.00,1.96
8480.00,1.95
8479.00,1.95
8478.00,1.95
8477.00,1.95
8476.00,1.95
8475.00,1.95
8474.00,1.94
8473.00,1.94
8472.00,1.94
8471.00,1.94
8470.00,1.94
8469.00,1.94
8468.00,1.93
8467.00,1.93
8466.00,1.93
8465.00,1.93
8464.00,1.93
8463.00,1.93
8462.00,1.93
8461.00,1.93
8460.00,1.93
8459.00,1.93
8458.00,1.92
8457.00,1.92
8456.00,1.92
8455.00,1.92
8454.00,1.92
8453.00,1.91
8452.00,1.91
8451.00,1.91
8450.00,1.90
8449.00,1.90
8448.00,1.90
8447.00,1.89
8446.00,1.89
8445.00,1.88
8444.00,1.88
8443.00,1.87
8442.00,1.87
8441.00,1.87
8440.00,1.86
8439.00,1.86
8438.00,1.86
8437.00,1.85
8436.00,1.85
8435.00,1.85
8434.00,1.84
8433.00,1.84
8432.00,1.84
8431.00,1.84
8430.00,1.84
8429.00,1.83
8428.00,1.83
8427.00,1.83
8426.00,1.83
8425.00,1.83
8424.00,1.83
8423.00,1.83
8422.00,1.83
8421.00,1.83
8420.00,1.83
8419.00,1.83
8418.00,1.83
8417.00,1.83
8416.00,1.83
8415.00,1.83
8414.00,1.83
8413.00,1.83
8412.00,1.84
8411.00,1.84
8410.00,1.84
8409.00,1.84
8408.00,1.84
8407.00,1.84
8406.00,1.84
8405.00,1.85
8404.00,1.85
8403.00,1.85
8402.00,1.85
8401.00,1.86
8400.00,1.86
8399.00,1.86
8398.00,1.87
8397.00,1.87
8396.00,1.88
8395.00,1.88
8394.00,1.88
8393.00,1.89
8392.00,1.89
8391.00,1.89
8390.00,1.90
8389.00,1.90
8388.00,1.90
8387.00,1.90
8386.00,1.90
8385.00,1.91
8384.00,1.91
8383.00,1.91
8382.00,1.91
8381.00,1.91
8380.00,1.91
8379.00,1.92
8378.00,1.92
8377.00,1.92
8376.00,1.92
8375.00,1.92
8374.00,1.92
8373.00,1.92
8372.00,1.92
8371.00,1.91
8370.00,1.91
8369.00,1.91
8368.00,1.91
8367.00,1.91
8366.00,1.91
8365.00,1.91
8364.00,1.91
8363.00,1.91
8362.00,1.91
8361.00,1.91
8360.00,1.92
8359.00,1.92
8358.00,1.92
8357.00,1.92
8356.00,1.92
8355.00,1.92
8354.00,1.92
8353.00,1.92
8352.00,1.92
8351.00,1.91
8350.00,1.91
8349.00,1.91
8348.00,1.91
8347.00,1.91
8346.00,1.91
8345.00,1.91
8344.00,1.91
8343.00,1.91
8342.00,1.91
8341.00,1.91
8340.00,1.92
8339.00,1.92
8338.00,1.92
8337.00,1.91
8336.00,1.91
8335.00,1.91
8334.00,1.91
8333.00,1.91
8332.00,1.91
8331.00,1.91
8330.00,1.91
8329.00,1.90
8328.00,1.90
8327.00,1.90
8326.00,1.90
8325.00,1.90
8324.00,1.90
8323.00,1.90
8322.00,1.91
8321.00,1.90
8320.00,1.90
8319.00,1.90
8318.00,1.90
8317.00,1.90
8316.00,1.90
8315.00,1.90
8314.00,1.89
8313.00,1.89
8312.00,1.89
8311.00,1.89
8310.00,1.89
8309.00,1.88
8308.00,1.88
8307.00,1.88
8306.00,1.88
8305.00,1.87
8304.00,1.87
8303.00,1.87
8302.00,1.87
8301.00,1.86
8300.00,1.86
8299.00,1.86
8298.00,1.86
8297.00,1.85
8296.00,1.85
8295.00,1.85
8294.00,1.85
8293.00,1.85
8292.00,1.85
8291.00,1.85
8290.00,1.84
8289.00,1.84
8288.00,1.85
8287.00,1.85
8286.00,1.85
8285.00,1.85
8284.00,1.85
8283.00,1.85
8282.00,1.85
8281.00,1.86
8280.00,1.86
8279.00,1.86
8278.00,1.86
8277.00,1.87
8276.00,1.87
8275.00,1.87
8274.00,1.88
8273.00,1.88
8272.00,1.89
8271.00,1.89
8270.00,1.90
8269.00,1.90
8268.00,1.91
8267.00,1.91
8266.00,1.92
8265.00,1.92
8264.00,1.93
8263.00,1.93
8262.00,1.94
8261.00,1.94
8260.00,1.95
8259.00,1.96
8258.00,1.96
8257.00,1.97
8256.00,1.97
8255.00,1.98
8254.00,1.98
8253.00,1.99
8252.00,1.99
8251.00,2.00
8250.00,2.00
8249.00,2.01
8248.00,2.01
8247.00,2.01
8246.00,2.01
8245.00,2.01
8244.00,2.01
8243.00,2.01
8242.00,2.01
8241.00,2.01
8240.00,2.01
8239.00,2.01
8238.00,2.01
8237.00,2.01
8236.00,2.01
8235.00,2.01
8234.00,2.01
8233.00,2.00
8232.00,2.00
8231.00,1.99
8230.00,1.99
8229.00,1.98
8228.00,1.98
8227.00,1.97
8226.00,1.97
8225.00,1.97
8224.00,1.96
8223.00,1.96
8222.00,1.95
8221.00,1.95
8220.00,1.95
8219.00,1.95
8218.00,1.95
8217.00,1.95
8216.00,1.95
8215.00,1.95
8214.00,1.95
8213.00,1.95
8212.00,1.94
8211.00,1.94
8210.00,1.94
8209.00,1.94
8208.00,1.95
8207.00,1.95
8206.00,1.95
8205.00,1.95
8204.00,1.95
8203.00,1.95
8202.00,1.95
8201.00,1.96
8200.00,1.96
8199.00,1.96
8198.00,1.96
8197.00,1.97
8196.00,1.97
8195.00,1.97
8194.00,1.97
8193.00,1.97
8192.00,1.97
8191.00,1.97
8190.00,1.97
8189.00,1.98
8188.00,1.98
8187.00,1.98
8186.00,1.98
8185.00,1.98
8184.00,1.98
8183.00,1.98
8182.00,1.98
8181.00,1.98
8180.00,1.98
8179.00,1.98
8178.00,1.98
8177.00,1.99
8176.00,1.99
8175.00,1.99
8174.00,1.99
8173.00,1.99
8172.00,1.98
8171.00,1.98
8170.00,1.98
8169.00,1.98
8168.00,1.98
8167.00,1.98
8166.00,1.98
8165.00,1.98
8164.00,1.98
8163.00,1.98
8162.00,1.98
8161.00,1.98
8160.00,1.98
8159.00,1.98
8158.00,1.98
8157.00,1.98
8156.00,1.98
8155.00,1.98
8154.00,1.99
8153.00,1.99
8152.00,1.99
8151.00,1.99
8150.00,1.99
8149.00,1.99
8148.00,1.99
8147.00,2.00
8146.00,2.00
8145.00,2.00
8144.00,2.01
8143.00,2.01
8142.00,2.01
8141.00,2.01
8140.00,2.02
8139.00,2.02
8138.00,2.02
8137.00,2.02
8136.00,2.02
8135.00,2.03
8134.00,2.03
8133.00,2.03
8132.00,2.03
8131.00,2.03
8130.00,2.03
8129.00,2.03
8128.00,2.03
8127.00,2.03
8126.00,2.03
8125.00,2.03
8124.00,2.03
8123.00,2.03
8122.00,2.03
8121.00,2.03
8120.00,2.03
8119.00,2.02
8118.00,2.02
8117.00,2.02
8116.00,2.02
8115.00,2.02
8114.00,2.02
8113.00,2.02
8112.00,2.02
8111.00,2.02
8110.00,2.02
8109.00,2.02
8108.00,2.02
8107.00,2.02
8106.00,2.02
8105.00,2.02
8104.00,2.02
8103.00,2.03
8102.00,2.03
8101.00,2.03
8100.00,2.03
8099.00,2.03
8098.00,2.03
8097.00,2.03
8096.00,2.03
8095.00,2.03
8094.00,2.03
8093.00,2.04
8092.00,2.04
8091.00,2.04
8090.00,2.04
8089.00,2.04
8088.00,2.04
8087.00,2.04
8086.00,2.04
8085.00,2.04
8084.00,2.04
8083.00,2.04
8082.00,2.05
8081.00,2.05
8080.00,2.05
8079.00,2.05
8078.00,2.05
8077.00,2.05
8076.00,2.06
8075.00,2.06
8074.00,2.06
8073.00,2.06
8072.00,2.06
8071.00,2.06
8070.00,2.06
8069.00,2.06
8068.00,2.06
8067.00,2.06
8066.00,2.06
8065.00,2.06
8064.00,2.05
8063.00,2.05
8062.00,2.05
8061.00,2.05
8060.00,2.05
8059.00,2.06
8058.00,2.06
8057.00,2.06
8056.00,2.06
8055.00,2.06
8054.00,2.06
8053.00,2.06
8052.00,2.06
8051.00,2.06
8050.00,2.06
8049.00,2.06
8048.00,2.06
8047.00,2.06
8046.00,2.06
8045.00,2.06
8044.00,2.06
8043.00,2.06
8042.00,2.06
8041.00,2.06
8040.00,2.06
8039.00,2.06
8038.00,2.06
8037.00,2.07
8036.00,2.06
8035.00,2.06
8034.00,2.06
8033.00,2.06
8032.00,2.06
8031.00,2.06
8030.00,2.06
8029.00,2.05
8028.00,2.05
8027.00,2.05
8026.00,2.05
8025.00,2.05
8024.00,2.05
8023.00,2.05
8022.00,2.05
8021.00,2.05
8020.00,2.05
8019.00,2.04
8018.00,2.04
8017.00,2.04
8016.00,2.04
8015.00,2.04
8014.00,2.04
8013.00,2.04
8012.00,2.04
8011.00,2.04
8010.00,2.04
8009.00,2.05
8008.00,2.05
8007.00,2.05
8006.00,2.05
8005.00,2.05
8004.00,2.05
8003.00,2.05
8002.00,2.04
8001.00,2.04
8000.00,2.04
7999.00,2.04
7998.00,2.04
7997.00,2.04
7996.00,2.04
7995.00,2.04
7994.00,2.04
7993.00,2.04
7992.00,2.04
7991.00,2.05
7990.00,2.05
7989.00,2.05
7988.00,2.05
7987.00,2.05
7986.00,2.05
7985.00,2.05
7984.00,2.05
7983.00,2.05
7982.00,2.05
7981.00,2.05
7980.00,2.05
7979.00,2.05
7978.00,2.05
7977.00,2.05
7976.00,2.06
7975.00,2.06
7974.00,2.06
7973.00,2.06
7972.00,2.06
7971.00,2.06
7970.00,2.06
7969.00,2.07
7968.00,2.07
7967.00,2.07
7966.00,2.07
7965.00,2.07
7964.00,2.07
7963.00,2.07
7962.00,2.07
7961.00,2.07
7960.00,2.07
7959.00,2.07
7958.00,2.08
7957.00,2.08
7956.00,2.08
7955.00,2.08
7954.00,2.08
7953.00,2.08
7952.00,2.08
7951.00,2.08
7950.00,2.08
7949.00,2.08
7948.00,2.07
7947.00,2.07
7946.00,2.07
7945.00,2.07
7944.00,2.07
7943.00,2.07
7942.00,2.06
7941.00,2.06
7940.00,2.06
7939.00,2.06
7938.00,2.05
7937.00,2.05
7936.00,2.05
7935.00,2.04
7934.00,2.04
7933.00,2.03
7932.00,2.03
7931.00,2.03
7930.00,2.02
7929.00,2.02
7928.00,2.02
7927.00,2.01
7926.00,2.01
7925.00,2.01
7924.00,2.01
7923.00,2.01
7922.00,2.00
7921.00,2.00
7920.00,2.00
7919.00,2.00
7918.00,2.00
7917.00,2.00
7916.00,2.00
7915.00,2.01
7914.00,2.01
7913.00,2.01
7912.00,2.01
7911.00,2.01
7910.00,2.01
7909.00,2.02
7908.00,2.02
7907.00,2.02
7906.00,2.02
7905.00,2.02
7904.00,2.03
7903.00,2.03
7902.00,2.03
7901.00,2.03
7900.00,2.04
7899.00,2.04
7898.00,2.04
7897.00,2.04
7896.00,2.05
7895.00,2.05
7894.00,2.05
7893.00,2.06
7892.00,2.06
7891.00,2.06
7890.00,2.07
7889.00,2.07
7888.00,2.07
7887.00,2.07
7886.00,2.08
7885.00,2.08
7884.00,2.08
7883.00,2.09
7882.00,2.09
7881.00,2.09
7880.00,2.09
7879.00,2.10
7878.00,2.10
7877.00,2.10
7876.00,2.10
7875.00,2.11
7874.00,2.11
7873.00,2.11
7872.00,2.11
7871.00,2.11
7870.00,2.11
7869.00,2.11
7868.00,2.10
7867.00,2.10
7866.00,2.10
7865.00,2.10
7864.00,2.10
7863.00,2.09
7862.00,2.09
7861.00,2.09
7860.00,2.09
7859.00,2.08
7858.00,2.08
7857.00,2.07
7856.00,2.07
7855.00,2.07
7854.00,2.06
7853.00,2.05
7852.00,2.05
7851.00,2.04
7850.00,2.04
7849.00,2.03
7848.00,2.03
7847.00,2.03
7846.00,2.02
7845.00,2.02
7844.00,2.02
7843.00,2.02
7842.00,2.02
7841.00,2.02
7840.00,2.02
7839.00,2.01
7838.00,2.02
7837.00,2.02
7836.00,2.02
7835.00,2.02
7834.00,2.02
7833.00,2.02
7832.00,2.03
7831.00,2.03
7830.00,2.03
7829.00,2.04
7828.00,2.05
7827.00,2.05
7826.00,2.06
7825.00,2.06
7824.00,2.07
7823.00,2.08
7822.00,2.08
7821.00,2.09
7820.00,2.09
7819.00,2.10
7818.00,2.10
7817.00,2.10
7816.00,2.11
7815.00,2.11
7814.00,2.11
7813.00,2.11
7812.00,2.11
7811.00,2.12
7810.00,2.12
7809.00,2.12
7808.00,2.12
7807.00,2.12
7806.00,2.12
7805.00,2.12
7804.00,2.11
7803.00,2.11
7802.00,2.11
7801.00,2.11
7800.00,2.11
7799.00,2.10
7798.00,2.10
7797.00,2.10
7796.00,2.09
7795.00,2.09
7794.00,2.09
7793.00,2.09
7792.00,2.08
7791.00,2.08
7790.00,2.08
7789.00,2.08
7788.00,2.08
7787.00,2.08
7786.00,2.08
7785.00,2.08
7784.00,2.08
7783.00,2.08
7782.00,2.08
7781.00,2.08
7780.00,2.08
7779.00,2.08
7778.00,2.08
7777.00,2.08
7776.00,2.08
7775.00,2.08
7774.00,2.08
7773.00,2.08
7772.00,2.08
7771.00,2.08
7770.00,2.08
7769.00,2.08
7768.00,2.08
7767.00,2.08
7766.00,2.08
7765.00,2.08
7764.00,2.08
7763.00,2.08
7762.00,2.08
7761.00,2.07
7760.00,2.07
7759.00,2.07
7758.00,2.07
7757.00,2.07
7756.00,2.07
7755.00,2.07
7754.00,2.06
7753.00,2.06
7752.00,2.06
7751.00,2.06
7750.00,2.06
7749.00,2.06
7748.00,2.06
7747.00,2.05
7746.00,2.05
7745.00,2.05
7744.00,2.05
7743.00,2.05
7742.00,2.05
7741.00,2.05
7740.00,2.06
7739.00,2.06
7738.00,2.06
7737.00,2.06
7736.00,2.06
7735.00,2.07
7734.00,2.07
7733.00,2.07
7732.00,2.07
7731.00,2.08
7730.00,2.08
7729.00,2.08
7728.00,2.09
7727.00,2.09
7726.00,2.09
7725.00,2.10
7724.00,2.10
7723.00,2.10
7722.00,2.10
7721.00,2.11
7720.00,2.11
7719.00,2.11
7718.00,2.12
7717.00,2.12
7716.00,2.12
7715.00,2.12
7714.00,2.13
7713.00,2.13
7712.00,2.13
7711.00,2.13
7710.00,2.13
7709.00,2.13
7708.00,2.13
7707.00,2.13
7706.00,2.13
7705.00,2.13
7704.00,2.13
7703.00,2.13
7702.00,2.13
7701.00,2.13
7700.00,2.13
7699.00,2.13
7698.00,2.13
7697.00,2.13
7696.00,2.13
7695.00,2.13
7694.00,2.13
7693.00,2.12
7692.00,2.12
7691.00,2.12
7690.00,2.12
7689.00,2.12
7688.00,2.12
7687.00,2.12
7686.00,2.12
7685.00,2.12
7684.00,2.12
7683.00,2.12
7682.00,2.12
7681.00,2.12
7680.00,2.11
7679.00,2.11
7678.00,2.11
7677.00,2.11
7676.00,2.11
7675.00,2.11
7674.00,2.11
7673.00,2.11
7672.00,2.11
7671.00,2.11
7670.00,2.11
7669.00,2.11
7668.00,2.10
7667.00,2.10
7666.00,2.10
7665.00,2.10
7664.00,2.09
7663.00,2.09
7662.00,2.09
7661.00,2.08
7660.00,2.08
7659.00,2.08
7658.00,2.08
7657.00,2.07
7656.00,2.07
7655.00,2.07
7654.00,2.06
7653.00,2.06
7652.00,2.06
7651.00,2.06
7650.00,2.06
7649.00,2.05
7648.00,2.05
7647.00,2.05
7646.00,2.05
7645.00,2.05
7644.00,2.05
7643.00,2.05
7642.00,2.05
7641.00,2.05
7640.00,2.05
7639.00,2.05
7638.00,2.05
7637.00,2.05
7636.00,2.06
7635.00,2.06
7634.00,2.06
7633.00,2.06
7632.00,2.07
7631.00,2.07
7630.00,2.07
7629.00,2.07
7628.00,2.08
7627.00,2.08
7626.00,2.08
7625.00,2.08
7624.00,2.09
7623.00,2.09
7622.00,2.09
7621.00,2.09
7620.00,2.09
7619.00,2.09
7618.00,2.09
7617.00,2.09
7616.00,2.09
7615.00,2.09
7614.00,2.09
7613.00,2.08
7612.00,2.08
7611.00,2.08
7610.00,2.08
7609.00,2.08
7608.00,2.08
7607.00,2.08
7606.00,2.07
7605.00,2.07
7604.00,2.07
7603.00,2.07
7602.00,2.07
7601.00,2.07
7600.00,2.06
7599.00,2.06
7598.00,2.06
7597.00,2.06
7596.00,2.06
7595.00,2.06
7594.00,2.06
7593.00,2.07
7592.00,2.07
7591.00,2.07
7590.00,2.07
7589.00,2.07
7588.00,2.07
7587.00,2.08
7586.00,2.08
7585.00,2.08
7584.00,2.08
7583.00,2.09
7582.00,2.09
7581.00,2.09
7580.00,2.09
7579.00,2.10
7578.00,2.10
7577.00,2.10
7576.00,2.10
7575.00,2.10
7574.00,2.11
7573.00,2.11
7572.00,2.11
7571.00,2.11
7570.00,2.11
7569.00,2.11
7568.00,2.11
7567.00,2.11
7566.00,2.11
7565.00,2.11
7564.00,2.10
7563.00,2.10
7562.00,2.10
7561.00,2.10
7560.00,2.09
7559.00,2.09
7558.00,2.08
7557.00,2.08
7556.00,2.08
7555.00,2.07
7554.00,2.07
7553.00,2.06
7552.00,2.06
7551.00,2.06
7550.00,2.05
7549.00,2.05
7548.00,2.05
7547.00,2.05
7546.00,2.04
7545.00,2.04
7544.00,2.04
7543.00,2.04
7542.00,2.04
7541.00,2.04
7540.00,2.04
7539.00,2.04
7538.00,2.04
7537.00,2.04
7536.00,2.04
7535.00,2.04
7534.00,2.04
7533.00,2.05
7532.00,2.05
7531.00,2.05
7530.00,2.05
7529.00,2.05
7528.00,2.06
7527.00,2.06
7526.00,2.06
7525.00,2.06
7524.00,2.07
7523.00,2.07
7522.00,2.07
7521.00,2.07
7520.00,2.07
7519.00,2.08
7518.00,2.08
7517.00,2.08
7516.00,2.08
7515.00,2.08
7514.00,2.09
7513.00,2.09
7512.00,2.09
7511.00,2.09
7510.00,2.09
7509.00,2.09
7508.00,2.10
7507.00,2.10
7506.00,2.10
7505.00,2.10
7504.00,2.10
7503.00,2.10
7502.00,2.11
7501.00,2.11
7500.00,2.11
7499.00,2.11
7498.00,2.11
7497.00,2.11
7496.00,2.11
7495.00,2.11
7494.00,2.12
7493.00,2.12
7492.00,2.12
7491.00,2.12
7490.00,2.12
7489.00,2.12
7488.00,2.12
7487.00,2.12
7486.00,2.12
7485.00,2.12
7484.00,2.12
7483.00,2.12
7482.00,2.11
7481.00,2.11
7480.00,2.11
7479.00,2.11
7478.00,2.11
7477.00,2.11
7476.00,2.11
7475.00,2.11
7474.00,2.11
7473.00,2.11
7472.00,2.11
7471.00,2.11
7470.00,2.11
7469.00,2.11
7468.00,2.11
7467.00,2.11
7466.00,2.11
7465.00,2.12
7464.00,2.12
7463.00,2.12
7462.00,2.12
7461.00,2.12
7460.00,2.12
7459.00,2.12
7458.00,2.12
7457.00,2.12
7456.00,2.12
7455.00,2.13
7454.00,2.13
7453.00,2.13
7452.00,2.13
7451.00,2.13
7450.00,2.13
7449.00,2.13
7448.00,2.13
7447.00,2.13
7446.00,2.13
7445.00,2.13
7444.00,2.13
7443.00,2.13
7442.00,2.13
7441.00,2.13
7440.00,2.12
7439.00,2.12
7438.00,2.12
7437.00,2.12
7436.00,2.11
7435.00,2.11
7434.00,2.11
7433.00,2.11
7432.00,2.10
7431.00,2.10
7430.00,2.10
7429.00,2.09
7428.00,2.09
7427.00,2.08
7426.00,2.08
7425.00,2.07
7424.00,2.07
7423.00,2.06
7422.00,2.06
7421.00,2.05
7420.00,2.05
7419.00,2.04
7418.00,2.04
7417.00,2.04
7416.00,2.03
7415.00,2.03
7414.00,2.03
7413.00,2.02
7412.00,2.02
7411.00,2.02
7410.00,2.01
7409.00,2.01
7408.00,2.01
7407.00,2.00
7406.00,2.00
7405.00,2.00
7404.00,2.00
7403.00,2.00
7402.00,1.99
7401.00,1.99
7400.00,1.99
7399.00,1.99
7398.00,1.99
7397.00,1.99
7396.00,1.99
7395.00,1.99
7394.00,1.99
7393.00,1.99
7392.00,1.99
7391.00,1.99
7390.00,1.99
7389.00,1.99
7388.00,2.00
7387.00,2.00
7386.00,2.00
7385.00,2.00
7384.00,2.00
7383.00,2.00
7382.00,2.00
7381.00,2.00
7380.00,2.00
7379.00,2.00
7378.00,2.00
7377.00,2.01
7376.00,2.01
7375.00,2.01
7374.00,2.01
7373.00,2.01
7372.00,2.01
7371.00,2.01
7370.00,2.01
7369.00,2.01
7368.00,2.01
7367.00,2.01
7366.00,2.01
7365.00,2.01
7364.00,2.01
7363.00,2.01
7362.00,2.01
7361.00,2.01
7360.00,2.01
7359.00,2.01
7358.00,2.01
7357.00,2.01
7356.00,2.01
7355.00,2.01
7354.00,2.01
7353.00,2.01
7352.00,2.00
7351.00,2.00
7350.00,2.00
7349.00,2.00
7348.00,2.00
7347.00,2.00
7346.00,2.00
7345.00,2.00
7344.00,2.00
7343.00,2.00
7342.00,2.00
7341.00,2.00
7340.00,2.00
7339.00,2.00
7338.00,2.00
7337.00,2.00
7336.00,2.00
7335.00,2.00
7334.00,2.00
7333.00,2.00
7332.00,2.00
7331.00,2.00
7330.00,2.00
7329.00,2.00
7328.00,2.00
7327.00,2.00
7326.00,2.00
7325.00,2.00
7324.00,2.00
7323.00,2.00
7322.00,2.00
7321.00,2.00
7320.00,2.00
7319.00,2.00
7318.00,2.00
7317.00,2.00
7316.00,2.00
7315.00,2.00
7314.00,2.00
7313.00,2.00
7312.00,2.00
7311.00,2.00
7310.00,2.00
7309.00,2.00
7308.00,2.01
7307.00,2.01
7306.00,2.01
7305.00,2.01
7304.00,2.01
7303.00,2.01
7302.00,2.02
7301.00,2.02
7300.00,2.02
7299.00,2.02
7298.00,2.03
7297.00,2.03
7296.00,2.03
7295.00,2.03
7294.00,2.04
7293.00,2.04
7292.00,2.04
7291.00,2.04
7290.00,2.04
7289.00,2.04
7288.00,2.04
7287.00,2.04
7286.00,2.03
7285.00,2.03
7284.00,2.03
7283.00,2.03
7282.00,2.03
7281.00,2.02
7280.00,2.02
7279.00,2.02
7278.00,2.01
7277.00,2.01
7276.00,2.01
7275.00,2.00
7274.00,2.00
7273.00,2.00
7272.00,1.99
7271.00,1.99
7270.00,1.98
7269.00,1.98
7268.00,1.98
7267.00,1.97
7266.00,1.97
7265.00,1.97
7264.00,1.96
7263.00,1.96
7262.00,1.96
7261.00,1.96
7260.00,1.96
7259.00,1.95
7258.00,1.95
7257.00,1.95
7256.00,1.95
7255.00,1.94
7254.00,1.94
7253.00,1.94
7252.00,1.93
7251.00,1.93
7250.00,1.93
7249.00,1.92
7248.00,1.92
7247.00,1.91
7246.00,1.91
7245.00,1.90
7244.00,1.90
7243.00,1.89
7242.00,1.89
7241.00,1.88
7240.00,1.88
7239.00,1.87
7238.00,1.87
7237.00,1.86
7236.00,1.86
7235.00,1.85
7234.00,1.85
7233.00,1.84
7232.00,1.84
7231.00,1.83
7230.00,1.83
7229.00,1.83
7228.00,1.82
7227.00,1.82
7226.00,1.82
7225.00,1.81
7224.00,1.81
7223.00,1.81
7222.00,1.80
7221.00,1.80
7220.00,1.80
7219.00,1.80
7218.00,1.80
7217.00,1.80
7216.00,1.80
7215.00,1.80
7214.00,1.80
7213.00,1.80
7212.00,1.80
7211.00,1.80
7210.00,1.80
7209.00,1.80
7208.00,1.80
7207.00,1.80
7206.00,1.80
7205.00,1.80
7204.00,1.79
7203.00,1.79
7202.00,1.79
7201.00,1.79
7200.00,1.79
7199.00,1.78
7198.00,1.78
7197.00,1.78
7196.00,1.77
7195.00,1.77
7194.00,1.76
7193.00,1.76
7192.00,1.76
7191.00,1.75
7190.00,1.74
7189.00,1.74
7188.00,1.73
7187.00,1.73
7186.00,1.72
7185.00,1.71
7184.00,1.71
7183.00,1.70
7182.00,1.69
7181.00,1.69
7180.00,1.68
7179.00,1.67
7178.00,1.67
7177.00,1.66
7176.00,1.66
7175.00,1.65
7174.00,1.65
7173.00,1.64
7172.00,1.63
7171.00,1.63
7170.00,1.62
7169.00,1.62
7168.00,1.61
7167.00,1.61
7166.00,1.60
7165.00,1.60
7164.00,1.60
7163.00,1.59
7162.00,1.59
7161.00,1.58
7160.00,1.58
7159.00,1.57
7158.00,1.57
7157.00,1.56
7156.00,1.56
7155.00,1.55
7154.00,1.55
7153.00,1.54
7152.00,1.54
7151.00,1.53
7150.00,1.53
7149.00,1.52
7148.00,1.52
7147.00,1.52
7146.00,1.51
7145.00,1.51
7144.00,1.50
7143.00,1.50
7142.00,1.50
7141.00,1.49
7140.00,1.49
7139.00,1.49
7138.00,1.49
7137.00,1.48
7136.00,1.48
7135.00,1.48
7134.00,1.47
7133.00,1.47
7132.00,1.47
7131.00,1.47
7130.00,1.46
7129.00,1.46
7128.00,1.46
7127.00,1.46
7126.00,1.45
7125.00,1.45
7124.00,1.45
7123.00,1.45
7122.00,1.44
7121.00,1.44
7120.00,1.44
7119.00,1.43
7118.00,1.43
7117.00,1.42
7116.00,1.42
7115.00,1.42
7114.00,1.41
7113.00,1.41
7112.00,1.40
7111.00,1.40
7110.00,1.39
7109.00,1.39
7108.00,1.38
7107.00,1.38
7106.00,1.37
7105.00,1.37
7104.00,1.36
7103.00,1.36
7102.00,1.35
7101.00,1.35
7100.00,1.35
7099.00,1.34
7098.00,1.34
7097.00,1.33
7096.00,1.33
7095.00,1.33
7094.00,1.32
7093.00,1.32
7092.00,1.32
7091.00,1.32
7090.00,1.31
7089.00,1.31
7088.00,1.31
7087.00,1.30
7086.00,1.30
7085.00,1.30
7084.00,1.30
7083.00,1.30
7082.00,1.29
7081.00,1.29
7080.00,1.29
7079.00,1.29
7078.00,1.29
7077.00,1.29
7076.00,1.29
7075.00,1.29
7074.00,1.28
7073.00,1.28
7072.00,1.28
7071.00,1.28
7070.00,1.28
7069.00,1.28
7068.00,1.27
7067.00,1.27
7066.00,1.27
7065.00,1.27
7064.00,1.27
7063.00,1.26
7062.00,1.26
7061.00,1.26
7060.00,1.26
7059.00,1.25
7058.00,1.25
7057.00,1.25
7056.00,1.25
7055.00,1.24
7054.00,1.24
7053.00,1.24
7052.00,1.24
7051.00,1.23
7050.00,1.23
7049.00,1.23
7048.00,1.22
7047.00,1.22
7046.00,1.22
7045.00,1.21
7044.00,1.21
7043.00,1.21
7042.00,1.20
7041.00,1.20
7040.00,1.20
7039.00,1.19
7038.00,1.19
7037.00,1.19
7036.00,1.19
7035.00,1.18
7034.00,1.18
7033.00,1.18
7032.00,1.18
7031.00,1.18
7030.00,1.17
7029.00,1.17
7028.00,1.17
7027.00,1.17
7026.00,1.17
7025.00,1.16
7024.00,1.16
7023.00,1.16
7022.00,1.16
7021.00,1.16
7020.00,1.16
7019.00,1.16
7018.00,1.16
7017.00,1.16
7016.00,1.16
7015.00,1.16
7014.00,1.16
7013.00,1.16
7012.00,1.16
7011.00,1.16
7010.00,1.16
7009.00,1.16
7008.00,1.16
7007.00,1.16
7006.00,1.16
7005.00,1.15
7004.00,1.15
7003.00,1.15
7002.00,1.15
7001.00,1.15
7000.00,1.16
6999.00,1.16
6998.00,1.16
6997.00,1.16
6996.00,1.16
6995.00,1.16
6994.00,1.16
6993.00,1.16
6992.00,1.16
6991.00,1.16
6990.00,1.16
6989.00,1.16
6988.00,1.16
6987.00,1.16
6986.00,1.16
6985.00,1.16
6984.00,1.16
6983.00,1.15
6982.00,1.15
6981.00,1.15
6980.00,1.15
6979.00,1.15
6978.00,1.15
6977.00,1.15
6976.00,1.15
6975.00,1.15
6974.00,1.15
6973.00,1.15
6972.00,1.15
6971.00,1.15
6970.00,1.15
6969.00,1.14
6968.00,1.14
6967.00,1.14
6966.00,1.14
6965.00,1.14
6964.00,1.14
6963.00,1.14
6962.00,1.13
6961.00,1.13
6960.00,1.13
6959.00,1.13
6958.00,1.13
6957.00,1.13
6956.00,1.12
6955.00,1.12
6954.00,1.12
6953.00,1.12
6952.00,1.11
6951.00,1.11
6950.00,1.11
6949.00,1.11
6948.00,1.11
6947.00,1.11
6946.00,1.10
6945.00,1.10
6944.00,1.10
6943.00,1.10
6942.00,1.10
6941.00,1.10
6940.00,1.09
6939.00,1.09
6938.00,1.09
6937.00,1.09
6936.00,1.09
6935.00,1.08
6934.00,1.08
6933.00,1.08
6932.00,1.08
6931.00,1.07
6930.00,1.07
6929.00,1.07
6928.00,1.07
6927.00,1.07
6926.00,1.06
6925.00,1.06
6924.00,1.06
6923.00,1.06
6922.00,1.06
6921.00,1.06
6920.00,1.06
6919.00,1.06
6918.00,1.06
6917.00,1.06
6916.00,1.06
6915.00,1.06
6914.00,1.06
6913.00,1.06
6912.00,1.06
6911.00,1.06
6910.00,1.06
6909.00,1.06
6908.00,1.06
6907.00,1.06
6906.00,1.06
6905.00,1.06
6904.00,1.06
6903.00,1.06
6902.00,1.06
6901.00,1.06
6900.00,1.07
6899.00,1.07
6898.00,1.07
6897.00,1.07
6896.00,1.07
6895.00,1.07
6894.00,1.06
6893.00,1.06
6892.00,1.06
6891.00,1.06
6890.00,1.06
6889.00,1.06
6888.00,1.06
6887.00,1.06
6886.00,1.06
6885.00,1.05
6884.00,1.05
6883.00,1.05
6882.00,1.05
6881.00,1.05
6880.00,1.05
6879.00,1.05
6878.00,1.05
6877.00,1.05
6876.00,1.04
6875.00,1.04
6874.00,1.04
6873.00,1.04
6872.00,1.04
6871.00,1.04
6870.00,1.04
6869.00,1.04
6868.00,1.04
6867.00,1.04
6866.00,1.04
6865.00,1.04
6864.00,1.04
6863.00,1.04
6862.00,1.04
6861.00,1.05
6860.00,1.05
6859.00,1.05
6858.00,1.05
6857.00,1.05
6856.00,1.05
6855.00,1.05
6854.00,1.05
6853.00,1.05
6852.00,1.05
6851.00,1.06
6850.00,1.06
6849.00,1.06
6848.00,1.06
6847.00,1.06
6846.00,1.06
6845.00,1.06
6844.00,1.06
6843.00,1.06
6842.00,1.06
6841.00,1.06
6840.00,1.06
6839.00,1.07
6838.00,1.07
6837.00,1.07
6836.00,1.07
6835.00,1.07
6834.00,1.07
6833.00,1.08
6832.00,1.08
6831.00,1.08
6830.00,1.08
6829.00,1.08
6828.00,1.09
6827.00,1.09
6826.00,1.09
6825.00,1.09
6824.00,1.10
6823.00,1.10
6822.00,1.10
6821.00,1.10
6820.00,1.11
6819.00,1.11
6818.00,1.11
6817.00,1.11
6816.00,1.11
6815.00,1.12
6814.00,1.12
6813.00,1.12
6812.00,1.12
6811.00,1.12
6810.00,1.12
6809.00,1.12
6808.00,1.12
6807.00,1.12
6806.00,1.12
6805.00,1.12
6804.00,1.12
6803.00,1.12
6802.00,1.12
6801.00,1.12
6800.00,1.12
6799.00,1.12
6798.00,1.12
6797.00,1.11
6796.00,1.11
6795.00,1.11
6794.00,1.11
6793.00,1.11
6792.00,1.11
6791.00,1.11
6790.00,1.11
6789.00,1.10
6788.00,1.10
6787.00,1.10
6786.00,1.10
6785.00,1.10
6784.00,1.10
6783.00,1.10
6782.00,1.10
6781.00,1.10
6780.00,1.10
6779.00,1.10
6778.00,1.10
6777.00,1.10
6776.00,1.10
6775.00,1.10
6774.00,1.10
6773.00,1.10
6772.00,1.10
6771.00,1.10
6770.00,1.10
6769.00,1.10
6768.00,1.10
6767.00,1.10
6766.00,1.10
6765.00,1.10
6764.00,1.11
6763.00,1.11
6762.00,1.11
6761.00,1.11
6760.00,1.11
6759.00,1.12
6758.00,1.12
6757.00,1.12
6756.00,1.12
6755.00,1.12
6754.00,1.13
6753.00,1.13
6752.00,1.13
6751.00,1.13
6750.00,1.13
6749.00,1.14
6748.00,1.14
6747.00,1.14
6746.00,1.14
6745.00,1.15
6744.00,1.15
6743.00,1.15
6742.00,1.15
6741.00,1.15
6740.00,1.15
6739.00,1.15
6738.00,1.15
6737.00,1.15
6736.00,1.15
6735.00,1.15
6734.00,1.15
6733.00,1.15
6732.00,1.15
6731.00,1.15
6730.00,1.15
6729.00,1.15
6728.00,1.15
6727.00,1.15
6726.00,1.15
6725.00,1.15
6724.00,1.15
6723.00,1.15
6722.00,1.15
6721.00,1.15
6720.00,1.15
6719.00,1.15
6718.00,1.15
6717.00,1.15
6716.00,1.15
6715.00,1.15
6714.00,1.15
6713.00,1.15
6712.00,1.15
6711.00,1.16
6710.00,1.16
6709.00,1.16
6708.00,1.16
6707.00,1.17
6706.00,1.17
6705.00,1.17
6704.00,1.17
6703.00,1.18
6702.00,1.18
6701.00,1.19
6700.00,1.19
6699.00,1.19
6698.00,1.20
6697.00,1.20
6696.00,1.20
6695.00,1.21
6694.00,1.21
6693.00,1.21
6692.00,1.22
6691.00,1.22
6690.00,1.22
6689.00,1.22
6688.00,1.22
6687.00,1.23
6686.00,1.23
6685.00,1.23
6684.00,1.23
6683.00,1.23
6682.00,1.23
6681.00,1.23
6680.00,1.23
6679.00,1.24
6678.00,1.24
6677.00,1.24
6676.00,1.24
6675.00,1.24
6674.00,1.24
6673.00,1.24
6672.00,1.24
6671.00,1.24
6670.00,1.24
6669.00,1.24
6668.00,1.24
6667.00,1.25
6666.00,1.25
6665.00,1.25
6664.00,1.25
6663.00,1.25
6662.00,1.26
6661.00,1.26
6660.00,1.26
6659.00,1.26
6658.00,1.26
6657.00,1.27
6656.00,1.27
6655.00,1.27
6654.00,1.27
6653.00,1.28
6652.00,1.28
6651.00,1.28
6650.00,1.28
6649.00,1.29
6648.00,1.29
6647.00,1.29
6646.00,1.29
6645.00,1.29
6644.00,1.30
6643.00,1.30
6642.00,1.30
6641.00,1.30
6640.00,1.31
6639.00,1.31
6638.00,1.31
6637.00,1.31
6636.00,1.32
6635.00,1.32
6634.00,1.32
6633.00,1.32
6632.00,1.33
6631.00,1.33
6630.00,1.33
6629.00,1.34
6628.00,1.34
6627.00,1.34
6626.00,1.35
6625.00,1.35
6624.00,1.35
6623.00,1.35
6622.00,1.35
6621.00,1.36
6620.00,1.36
6619.00,1.36
6618.00,1.36
6617.00,1.36
6616.00,1.36
6615.00,1.36
6614.00,1.36
6613.00,1.36
6612.00,1.36
6611.00,1.37
6610.00,1.37
6609.00,1.37
6608.00,1.37
6607.00,1.37
6606.00,1.37
6605.00,1.37
6604.00,1.37
6603.00,1.37
6602.00,1.37
6601.00,1.37
6600.00,1.37
6599.00,1.37
6598.00,1.37
6597.00,1.37
6596.00,1.37
6595.00,1.37
6594.00,1.37
6593.00,1.37
6592.00,1.37
6591.00,1.37
6590.00,1.37
6589.00,1.37
6588.00,1.37
6587.00,1.38
6586.00,1.38
6585.00,1.38
6584.00,1.38
6583.00,1.38
6582.00,1.38
6581.00,1.38
6580.00,1.38
6579.00,1.38
6578.00,1.38
6577.00,1.38
6576.00,1.39
6575.00,1.39
6574.00,1.39
6573.00,1.39
6572.00,1.39
6571.00,1.39
6570.00,1.40
6569.00,1.40
6568.00,1.40
6567.00,1.40
6566.00,1.41
6565.00,1.41
6564.00,1.41
6563.00,1.41
6562.00,1.42
6561.00,1.42
6560.00,1.42
6559.00,1.42
6558.00,1.43
6557.00,1.43
6556.00,1.43
6555.00,1.43
6554.00,1.43
6553.00,1.44
6552.00,1.44
6551.00,1.44
6550.00,1.44
6549.00,1.44
6548.00,1.44
6547.00,1.45
6546.00,1.45
6545.00,1.45
6544.00,1.45
6543.00,1.45
6542.00,1.45
6541.00,1.45
6540.00,1.45
6539.00,1.45
6538.00,1.45
6537.00,1.45
6536.00,1.45
6535.00,1.45
6534.00,1.45
6533.00,1.45
6532.00,1.45
6531.00,1.45
6530.00,1.45
6529.00,1.45
6528.00,1.45
6527.00,1.45
6526.00,1.46
6525.00,1.46
6524.00,1.46
6523.00,1.46
6522.00,1.46
6521.00,1.46
6520.00,1.46
6519.00,1.47
6518.00,1.47
6517.00,1.47
6516.00,1.47
6515.00,1.47
6514.00,1.47
6513.00,1.47
6512.00,1.48
6511.00,1.48
6510.00,1.48
6509.00,1.48
6508.00,1.48
6507.00,1.49
6506.00,1.49
6505.00,1.49
6504.00,1.49
6503.00,1.50
6502.00,1.50
6501.00,1.50
6500.00,1.50
6499.00,1.51
6498.00,1.51
6497.00,1.51
6496.00,1.51
6495.00,1.51
6494.00,1.51
6493.00,1.52
6492.00,1.52
6491.00,1.52
6490.00,1.52
6489.00,1.53
6488.00,1.53
6487.00,1.53
6486.00,1.54
6485.00,1.54
6484.00,1.54
6483.00,1.54
6482.00,1.54
6481.00,1.55
6480.00,1.55
6479.00,1.55
6478.00,1.55
6477.00,1.55
6476.00,1.55
6475.00,1.55
6474.00,1.55
6473.00,1.55
6472.00,1.55
6471.00,1.55
6470.00,1.55
6469.00,1.55
6468.00,1.55
6467.00,1.55
6466.00,1.55
6465.00,1.55
6464.00,1.55
6463.00,1.55
6462.00,1.54
6461.00,1.54
6460.00,1.54
6459.00,1.54
6458.00,1.54
6457.00,1.54
6456.00,1.54
6455.00,1.54
6454.00,1.54
6453.00,1.53
6452.00,1.53
6451.00,1.54
6450.00,1.54
6449.00,1.54
6448.00,1.54
6447.00,1.54
6446.00,1.54
6445.00,1.54
6444.00,1.54
6443.00,1.54
6442.00,1.55
6441.00,1.55
6440.00,1.55
6439.00,1.55
6438.00,1.55
6437.00,1.56
6436.00,1.56
6435.00,1.56
6434.00,1.56
6433.00,1.57
6432.00,1.57
6431.00,1.57
6430.00,1.57
6429.00,1.58
6428.00,1.58
6427.00,1.58
6426.00,1.58
6425.00,1.58
6424.00,1.58
6423.00,1.58
6422.00,1.59
6421.00,1.59
6420.00,1.59
6419.00,1.59
6418.00,1.59
6417.00,1.59
6416.00,1.59
6415.00,1.59
6414.00,1.59
6413.00,1.59
6412.00,1.59
6411.00,1.58
6410.00,1.58
6409.00,1.58
6408.00,1.58
6407.00,1.58
6406.00,1.58
6405.00,1.58
6404.00,1.57
6403.00,1.57
6402.00,1.57
6401.00,1.57
6400.00,1.57
6399.00,1.57
6398.00,1.57
6397.00,1.57
6396.00,1.57
6395.00,1.57
6394.00,1.57
6393.00,1.57
6392.00,1.58
6391.00,1.58
6390.00,1.58
6389.00,1.58
6388.00,1.58
6387.00,1.58
6386.00,1.59
6385.00,1.59
6384.00,1.59
6383.00,1.59
6382.00,1.60
6381.00,1.60
6380.00,1.60
6379.00,1.61
6378.00,1.61
6377.00,1.61
6376.00,1.62
6375.00,1.62
6374.00,1.62
6373.00,1.62
6372.00,1.63
6371.00,1.63
6370.00,1.63
6369.00,1.63
6368.00,1.63
6367.00,1.63
6366.00,1.63
6365.00,1.63
6364.00,1.63
6363.00,1.63
6362.00,1.63
6361.00,1.63
6360.00,1.63
6359.00,1.63
6358.00,1.63
6357.00,1.63
6356.00,1.63
6355.00,1.63
6354.00,1.63
6353.00,1.63
6352.00,1.63
6351.00,1.64
6350.00,1.64
6349.00,1.64
6348.00,1.64
6347.00,1.64
6346.00,1.64
6345.00,1.64
6344.00,1.64
6343.00,1.65
6342.00,1.65
6341.00,1.65
6340.00,1.65
6339.00,1.65
6338.00,1.66
6337.00,1.66
6336.00,1.66
6335.00,1.66
6334.00,1.67
6333.00,1.67
6332.00,1.67
6331.00,1.67
6330.00,1.68
6329.00,1.68
6328.00,1.68
6327.00,1.69
6326.00,1.69
6325.00,1.69
6324.00,1.70
6323.00,1.70
6322.00,1.70
6321.00,1.71
6320.00,1.71
6319.00,1.71
6318.00,1.71
6317.00,1.71
6316.00,1.72
6315.00,1.72
6314.00,1.72
6313.00,1.72
6312.00,1.72
6311.00,1.73
6310.00,1.73
6309.00,1.73
6308.00,1.73
6307.00,1.74
6306.00,1.74
6305.00,1.74
6304.00,1.74
6303.00,1.74
6302.00,1.74
6301.00,1.75
6300.00,1.75
6299.00,1.75
6298.00,1.75
6297.00,1.75
6296.00,1.75
6295.00,1.75
6294.00,1.75
6293.00,1.75
6292.00,1.76
6291.00,1.76
6290.00,1.76
6289.00,1.76
6288.00,1.76
6287.00,1.76
6286.00,1.76
6285.00,1.76
6284.00,1.76
6283.00,1.76
6282.00,1.76
6281.00,1.76
6280.00,1.76
6279.00,1.76
6278.00,1.76
6277.00,1.76
6276.00,1.75
6275.00,1.75
6274.00,1.75
6273.00,1.75
6272.00,1.75
6271.00,1.75
6270.00,1.75
6269.00,1.75
6268.00,1.74
6267.00,1.74
6266.00,1.74
6265.00,1.74
6264.00,1.74
6263.00,1.74
6262.00,1.74
6261.00,1.74
6260.00,1.74
6259.00,1.74
6258.00,1.75
6257.00,1.75
6256.00,1.75
6255.00,1.75
6254.00,1.76
6253.00,1.76
6252.00,1.76
6251.00,1.76
6250.00,1.77
6249.00,1.77
6248.00,1.78
6247.00,1.78
6246.00,1.78
6245.00,1.79
6244.00,1.79
6243.00,1.80
6242.00,1.80
6241.00,1.80
6240.00,1.81
6239.00,1.81
6238.00,1.82
6237.00,1.82
6236.00,1.82
6235.00,1.82
6234.00,1.83
6233.00,1.83
6232.00,1.83
6231.00,1.83
6230.00,1.83
6229.00,1.84
6228.00,1.84
6227.00,1.84
6226.00,1.84
6225.00,1.85
6224.00,1.85
6223.00,1.85
6222.00,1.85
6221.00,1.85
6220.00,1.85
6219.00,1.86
6218.00,1.86
6217.00,1.86
6216.00,1.86
6215.00,1.86
6214.00,1.87
6213.00,1.87
6212.00,1.87
6211.00,1.87
6210.00,1.88
6209.00,1.88
6208.00,1.88
6207.00,1.89
6206.00,1.89
6205.00,1.89
6204.00,1.90
6203.00,1.90
6202.00,1.90
6201.00,1.91
6200.00,1.91
6199.00,1.91
6198.00,1.92
6197.00,1.92
6196.00,1.92
6195.00,1.93
6194.00,1.93
6193.00,1.93
6192.00,1.94
6191.00,1.94
6190.00,1.94
6189.00,1.94
6188.00,1.95
6187.00,1.95
6186.00,1.95
6185.00,1.95
6184.00,1.95
6183.00,1.95
6182.00,1.96
6181.00,1.96
6180.00,1.96
6179.00,1.96
6178.00,1.96
6177.00,1.96
6176.00,1.96
6175.00,1.95
6174.00,1.95
6173.00,1.95
6172.00,1.95
6171.00,1.95
6170.00,1.95
6169.00,1.95
6168.00,1.95
6167.00,1.95
6166.00,1.94
6165.00,1.94
6164.00,1.94
6163.00,1.94
6162.00,1.94
6161.00,1.94
6160.00,1.95
6159.00,1.95
6158.00,1.95
6157.00,1.95
6156.00,1.95
6155.00,1.95
6154.00,1.95
6153.00,1.95
6152.00,1.95
6151.00,1.96
6150.00,1.96
6149.00,1.96
6148.00,1.96
6147.00,1.96
6146.00,1.97
6145.00,1.97
6144.00,1.97
6143.00,1.97
6142.00,1.97
6141.00,1.98
6140.00,1.98
6139.00,1.98
6138.00,1.98
6137.00,1.98
6136.00,1.98
6135.00,1.98
6134.00,1.98
6133.00,1.98
6132.00,1.98
6131.00,1.98
6130.00,1.98
6129.00,1.98
6128.00,1.98
6127.00,1.99
6126.00,1.99
6125.00,1.99
6124.00,1.99
6123.00,1.99
6122.00,1.99
6121.00,1.99
6120.00,1.99
6119.00,1.99
6118.00,2.00
6117.00,2.00
6116.00,2.00
6115.00,2.00
6114.00,2.00
6113.00,2.00
6112.00,2.01
6111.00,2.01
6110.00,2.01
6109.00,2.01
6108.00,2.01
6107.00,2.01
6106.00,2.01
6105.00,2.01
6104.00,2.02
6103.00,2.02
6102.00,2.02
6101.00,2.02
6100.00,2.02
6099.00,2.02
6098.00,2.02
6097.00,2.02
6096.00,2.02
6095.00,2.02
6094.00,2.02
6093.00,2.02
6092.00,2.02
6091.00,2.02
6090.00,2.02
6089.00,2.02
6088.00,2.02
6087.00,2.02
6086.00,2.02
6085.00,2.03
6084.00,2.03
6083.00,2.03
6082.00,2.03
6081.00,2.03
6080.00,2.04
6079.00,2.04
6078.00,2.04
6077.00,2.04
6076.00,2.05
6075.00,2.05
6074.00,2.05
6073.00,2.05
6072.00,2.06
6071.00,2.06
6070.00,2.06
6069.00,2.07
6068.00,2.07
6067.00,2.07
6066.00,2.08
6065.00,2.08
6064.00,2.08
6063.00,2.08
6062.00,2.09
6061.00,2.09
6060.00,2.09
6059.00,2.09
6058.00,2.09
6057.00,2.09
6056.00,2.10
6055.00,2.10
6054.00,2.10
6053.00,2.10
6052.00,2.10
6051.00,2.09
6050.00,2.09
6049.00,2.09
6048.00,2.09
6047.00,2.09
6046.00,2.09
6045.00,2.09
6044.00,2.09
6043.00,2.09
6042.00,2.09
6041.00,2.09
6040.00,2.09
6039.00,2.09
6038.00,2.09
6037.00,2.09
6036.00,2.08
6035.00,2.08
6034.00,2.08
6033.00,2.08
6032.00,2.08
6031.00,2.08
6030.00,2.08
6029.00,2.08
6028.00,2.08
6027.00,2.08
6026.00,2.08
6025.00,2.08
6024.00,2.08
6023.00,2.08
6022.00,2.08
6021.00,2.08
6020.00,2.08
6019.00,2.08
6018.00,2.08
6017.00,2.08
6016.00,2.08
6015.00,2.08
6014.00,2.08
6013.00,2.08
6012.00,2.08
6011.00,2.08
6010.00,2.08
6009.00,2.08
6008.00,2.08
6007.00,2.08
6006.00,2.08
6005.00,2.08
6004.00,2.08
6003.00,2.08
6002.00,2.08
6001.00,2.08
6000.00,2.08
5999.00,2.08
5998.00,2.08
5997.00,2.08
5996.00,2.07
5995.00,2.07
5994.00,2.07
5993.00,2.07
5992.00,2.07
5991.00,2.07
5990.00,2.07
5989.00,2.06
5988.00,2.06
5987.00,2.06
5986.00,2.06
5985.00,2.05
5984.00,2.05
5983.00,2.05
5982.00,2.04
5981.00,2.04
5980.00,2.04
5979.00,2.03
5978.00,2.03
5977.00,2.03
5976.00,2.02
5975.00,2.02
5974.00,2.01
5973.00,2.01
5972.00,2.00
5971.00,2.00
5970.00,1.99
5969.00,1.99
5968.00,1.98
5967.00,1.98
5966.00,1.97
5965.00,1.96
5964.00,1.96
5963.00,1.95
5962.00,1.95
5961.00,1.94
5960.00,1.93
5959.00,1.93
5958.00,1.92
5957.00,1.92
5956.00,1.91
5955.00,1.91
5954.00,1.90
5953.00,1.90
5952.00,1.89
5951.00,1.89
5950.00,1.89
5949.00,1.88
5948.00,1.88
5947.00,1.87
5946.00,1.87
5945.00,1.86
5944.00,1.86
5943.00,1.86
5942.00,1.86
5941.00,1.85
5940.00,1.85
5939.00,1.85
5938.00,1.85
5937.00,1.85
5936.00,1.84
5935.00,1.84
5934.00,1.84
5933.00,1.84
5932.00,1.84
5931.00,1.83
5930.00,1.83
5929.00,1.83
5928.00,1.83
5927.00,1.83
5926.00,1.82
5925.00,1.82
5924.00,1.82
5923.00,1.82
5922.00,1.82
5921.00,1.82
5920.00,1.82
5919.00,1.81
5918.00,1.81
5917.00,1.81
5916.00,1.81
5915.00,1.81
5914.00,1.81
5913.00,1.81
5912.00,1.81
5911.00,1.80
5910.00,1.80
5909.00,1.80
5908.00,1.80
5907.00,1.80
5906.00,1.80
5905.00,1.80
5904.00,1.80
5903.00,1.80
5902.00,1.79
5901.00,1.79
5900.00,1.80
5899.00,1.80
5898.00,1.80
5897.00,1.80
5896.00,1.80
5895.00,1.80
5894.00,1.80
5893.00,1.80
5892.00,1.80
5891.00,1.80
5890.00,1.80
5889.00,1.81
5888.00,1.81
5887.00,1.81
5886.00,1.81
5885.00,1.81
5884.00,1.82
5883.00,1.82
5882.00,1.82
5881.00,1.83
5880.00,1.83
5879.00,1.83
5878.00,1.84
5877.00,1.84
5876.00,1.84
5875.00,1.85
5874.00,1.85
5873.00,1.85
5872.00,1.85
5871.00,1.86
5870.00,1.86
5869.00,1.86
5868.00,1.86
5867.00,1.87
5866.00,1.87
5865.00,1.87
5864.00,1.87
5863.00,1.88
5862.00,1.88
5861.00,1.88
5860.00,1.88
5859.00,1.88
5858.00,1.89
5857.00,1.89
5856.00,1.89
5855.00,1.89
5854.00,1.89
5853.00,1.89
5852.00,1.90
5851.00,1.90
5850.00,1.90
5849.00,1.90
5848.00,1.90
5847.00,1.90
5846.00,1.90
5845.00,1.90
5844.00,1.90
5843.00,1.90
5842.00,1.90
5841.00,1.91
5840.00,1.91
5839.00,1.91
5838.00,1.91
5837.00,1.91
5836.00,1.91
5835.00,1.91
5834.00,1.91
5833.00,1.91
5832.00,1.91
5831.00,1.91
5830.00,1.91
5829.00,1.91
5828.00,1.91
5827.00,1.91
5826.00,1.91
5825.00,1.91
5824.00,1.91
5823.00,1.92
5822.00,1.92
5821.00,1.92
5820.00,1.92
5819.00,1.92
5818.00,1.92
5817.00,1.92
5816.00,1.92
5815.00,1.92
5814.00,1.92
5813.00,1.92
5812.00,1.92
5811.00,1.92
5810.00,1.92
5809.00,1.92
5808.00,1.92
5807.00,1.92
5806.00,1.92
5805.00,1.92
5804.00,1.92
5803.00,1.91
5802.00,1.91
5801.00,1.91
5800.00,1.91
5799.00,1.90
5798.00,1.90
5797.00,1.90
5796.00,1.90
5795.00,1.89
5794.00,1.89
5793.00,1.89
5792.00,1.88
5791.00,1.88
5790.00,1.88
5789.00,1.88
5788.00,1.87
5787.00,1.87
5786.00,1.87
5785.00,1.86
5784.00,1.86
5783.00,1.86
5782.00,1.86
5781.00,1.85
5780.00,1.85
5779.00,1.85
5778.00,1.85
5777.00,1.85
5776.00,1.85
5775.00,1.85
5774.00,1.85
5773.00,1.85
5772.00,1.85
5771.00,1.85
5770.00,1.85
5769.00,1.85
5768.00,1.85
5767.00,1.85
5766.00,1.85
5765.00,1.85
5764.00,1.85
5763.00,1.86
5762.00,1.86
5761.00,1.86
5760.00,1.86
5759.00,1.86
5758.00,1.86
5757.00,1.87
5756.00,1.87
5755.00,1.87
5754.00,1.88
5753.00,1.88
5752.00,1.88
5751.00,1.88
5750.00,1.89
5749.00,1.89
5748.00,1.89
5747.00,1.89
5746.00,1.89
5745.00,1.90
5744.00,1.90
5743.00,1.90
5742.00,1.90
5741.00,1.90
5740.00,1.91
5739.00,1.91
5738.00,1.91
5737.00,1.91
5736.00,1.91
5735.00,1.91
5734.00,1.92
5733.00,1.92
5732.00,1.92
5731.00,1.92
5730.00,1.92
5729.00,1.92
5728.00,1.92
5727.00,1.92
5726.00,1.92
5725.00,1.92
5724.00,1.92
5723.00,1.92
5722.00,1.92
5721.00,1.92
5720.00,1.92
5719.00,1.92
5718.00,1.92
5717.00,1.92
5716.00,1.92
5715.00,1.92
5714.00,1.92
5713.00,1.92
5712.00,1.91
5711.00,1.91
5710.00,1.91
5709.00,1.91
5708.00,1.91
5707.00,1.91
5706.00,1.91
5705.00,1.90
5704.00,1.90
5703.00,1.90
5702.00,1.90
5701.00,1.90
5700.00,1.90
5699.00,1.89
5698.00,1.89
5697.00,1.89
5696.00,1.89
5695.00,1.89
5694.00,1.88
5693.00,1.88
5692.00,1.88
5691.00,1.88
5690.00,1.88
5689.00,1.88
5688.00,1.88
5687.00,1.88
5686.00,1.88
5685.00,1.88
5684.00,1.88
5683.00,1.88
5682.00,1.88
5681.00,1.88
5680.00,1.88
5679.00,1.88
5678.00,1.88
5677.00,1.88
5676.00,1.88
5675.00,1.88
5674.00,1.88
5673.00,1.88
5672.00,1.88
5671.00,1.88
5670.00,1.88
5669.00,1.89
5668.00,1.89
5667.00,1.89
5666.00,1.89
5665.00,1.89
5664.00,1.89
5663.00,1.89
5662.00,1.89
5661.00,1.89
5660.00,1.89
5659.00,1.89
5658.00,1.89
5657.00,1.89
5656.00,1.89
5655.00,1.90
5654.00,1.90
5653.00,1.90
5652.00,1.90
5651.00,1.90
5650.00,1.90
5649.00,1.90
5648.00,1.90
5647.00,1.90
5646.00,1.90
5645.00,1.90
5644.00,1.90
5643.00,1.90
5642.00,1.90
5641.00,1.90
5640.00,1.90
5639.00,1.90
5638.00,1.90
5637.00,1.91
5636.00,1.91
5635.00,1.91
5634.00,1.91
5633.00,1.91
5632.00,1.91
5631.00,1.92
5630.00,1.92
5629.00,1.92
5628.00,1.92
5627.00,1.92
5626.00,1.93
5625.00,1.93
5624.00,1.93
5623.00,1.93
5622.00,1.93
5621.00,1.94
5620.00,1.94
5619.00,1.94
5618.00,1.94
5617.00,1.95
5616.00,1.95
5615.00,1.95
5614.00,1.95
5613.00,1.96
5612.00,1.96
5611.00,1.96
5610.00,1.96
5609.00,1.96
5608.00,1.97
5607.00,1.97
5606.00,1.97
5605.00,1.97
5604.00,1.97
5603.00,1.98
5602.00,1.98
5601.00,1.98
5600.00,1.98
5599.00,1.98
5598.00,1.99
5597.00,1.99
5596.00,1.99
5595.00,1.99
5594.00,1.99
5593.00,1.99
5592.00,2.00
5591.00,2.00
5590.00,2.00
5589.00,2.00
5588.00,2.00
5587.00,2.00
5586.00,2.00
5585.00,2.00
5584.00,2.00
5583.00,2.00
5582.00,2.00
5581.00,2.00
5580.00,2.01
5579.00,2.01
5578.00,2.01
5577.00,2.01
5576.00,2.01
5575.00,2.01
5574.00,2.01
5573.00,2.01
5572.00,2.01
5571.00,2.01
5570.00,2.01
5569.00,2.01
5568.00,2.01
5567.00,2.01
5566.00,2.01
5565.00,2.01
5564.00,2.01
5563.00,2.01
5562.00,2.01
5561.00,2.01
5560.00,2.01
5559.00,2.01
5558.00,2.02
5557.00,2.02
5556.00,2.02
5555.00,2.02
5554.00,2.02
5553.00,2.02
5552.00,2.02
5551.00,2.02
5550.00,2.02
5549.00,2.03
5548.00,2.03
5547.00,2.03
5546.00,2.03
5545.00,2.03
5544.00,2.03
5543.00,2.04
5542.00,2.04
5541.00,2.04
5540.00,2.04
5539.00,2.04
5538.00,2.04
5537.00,2.04
5536.00,2.05
5535.00,2.05
5534.00,2.05
5533.00,2.05
5532.00,2.05
5531.00,2.05
5530.00,2.05
5529.00,2.05
5528.00,2.05
5527.00,2.05
5526.00,2.05
5525.00,2.05
5524.00,2.05
5523.00,2.05
5522.00,2.05
5521.00,2.05
5520.00,2.05
5519.00,2.05
5518.00,2.05
5517.00,2.05
5516.00,2.05
5515.00,2.05
5514.00,2.05
5513.00,2.05
5512.00,2.05
5511.00,2.05
5510.00,2.05
5509.00,2.05
5508.00,2.05
5507.00,2.05
5506.00,2.05
5505.00,2.05
5504.00,2.05
5503.00,2.05
5502.00,2.05
5501.00,2.05
5500.00,2.05
5499.00,2.05
5498.00,2.05
5497.00,2.05
5496.00,2.06
5495.00,2.06
5494.00,2.06
5493.00,2.06
5492.00,2.06
5491.00,2.06
5490.00,2.07
5489.00,2.07
5488.00,2.07
5487.00,2.07
5486.00,2.07
5485.00,2.08
5484.00,2.08
5483.00,2.08
5482.00,2.08
5481.00,2.09
5480.00,2.09
5479.00,2.09
5478.00,2.09
5477.00,2.09
5476.00,2.10
5475.00,2.10
5474.00,2.10
5473.00,2.10
5472.00,2.10
5471.00,2.11
5470.00,2.11
5469.00,2.11
5468.00,2.11
5467.00,2.11
5466.00,2.12
5465.00,2.12
5464.00,2.12
5463.00,2.12
5462.00,2.12
5461.00,2.13
5460.00,2.13
5459.00,2.13
5458.00,2.13
5457.00,2.13
5456.00,2.14
5455.00,2.14
5454.00,2.14
5453.00,2.14
5452.00,2.14
5451.00,2.15
5450.00,2.15
5449.00,2.15
5448.00,2.15
5447.00,2.15
5446.00,2.16
5445.00,2.16
5444.00,2.16
5443.00,2.16
5442.00,2.16
5441.00,2.17
5440.00,2.17
5439.00,2.17
5438.00,2.17
5437.00,2.17
5436.00,2.17
5435.00,2.17
5434.00,2.17
5433.00,2.17
5432.00,2.18
5431.00,2.18
5430.00,2.18
5429.00,2.18
5428.00,2.18
5427.00,2.18
5426.00,2.18
5425.00,2.18
5424.00,2.18
5423.00,2.18
5422.00,2.18
5421.00,2.18
5420.00,2.18
5419.00,2.18
5418.00,2.18
5417.00,2.17
5416.00,2.17
5415.00,2.17
5414.00,2.17
5413.00,2.17
5412.00,2.17
5411.00,2.17
5410.00,2.17
5409.00,2.17
5408.00,2.17
5407.00,2.17
5406.00,2.17
5405.00,2.16
5404.00,2.16
5403.00,2.16
5402.00,2.16
5401.00,2.16
5400.00,2.15
5399.00,2.15
5398.00,2.15
5397.00,2.15
5396.00,2.14
5395.00,2.14
5394.00,2.14
5393.00,2.14
5392.00,2.13
5391.00,2.13
5390.00,2.13
5389.00,2.12
5388.00,2.12
5387.00,2.12
5386.00,2.11
5385.00,2.11
5384.00,2.10
5383.00,2.10
5382.00,2.10
5381.00,2.09
5380.00,2.09
5379.00,2.08
5378.00,2.08
5377.00,2.07
5376.00,2.07
5375.00,2.07
5374.00,2.06
5373.00,2.06
5372.00,2.05
5371.00,2.05
5370.00,2.04
5369.00,2.04
5368.00,2.03
5367.00,2.02
5366.00,2.02
5365.00,2.01
5364.00,2.00
5363.00,2.00
5362.00,1.99
5361.00,1.98
5360.00,1.97
5359.00,1.97
5358.00,1.96
5357.00,1.95
5356.00,1.94
5355.00,1.93
5354.00,1.92
5353.00,1.92
5352.00,1.91
5351.00,1.90
5350.00,1.89
5349.00,1.88
5348.00,1.87
5347.00,1.86
5346.00,1.85
5345.00,1.83
5344.00,1.82
5343.00,1.81
5342.00,1.80
5341.00,1.79
5340.00,1.78
5339.00,1.77
5338.00,1.76
5337.00,1.74
5336.00,1.73
5335.00,1.72
5334.00,1.70
5333.00,1.69
5332.00,1.68
5331.00,1.66
5330.00,1.65
5329.00,1.63
5328.00,1.61
5327.00,1.60
5326.00,1.58
5325.00,1.56
5324.00,1.55
5323.00,1.53
5322.00,1.51
5321.00,1.50
5320.00,1.48
5319.00,1.46
5318.00,1.44
5317.00,1.42
5316.00,1.41
5315.00,1.39
5314.00,1.37
5313.00,1.35
5312.00,1.33
5311.00,1.31
5310.00,1.30
5309.00,1.28
5308.00,1.26
5307.00,1.25
5306.00,1.23
5305.00,1.22
5304.00,1.20
5303.00,1.19
5302.00,1.17
5301.00,1.16
5300.00,1.15
5299.00,1.13
5298.00,1.12
5297.00,1.11
5296.00,1.09
5295.00,1.08
5294.00,1.07
5293.00,1.06
5292.00,1.05
5291.00,1.04
5290.00,1.03
5289.00,1.02
5288.00,1.01
5287.00,1.00
5286.00,0.99
5285.00,0.98
5284.00,0.98
5283.00,0.97
5282.00,0.96
5281.00,0.95
5280.00,0.95
5279.00,0.94
5278.00,0.93
5277.00,0.92
5276.00,0.92
5275.00,0.91
5274.00,0.91
5273.00,0.90
5272.00,0.90
5271.00,0.89
5270.00,0.89
5269.00,0.88
5268.00,0.88
5267.00,0.87
5266.00,0.87
5265.00,0.87
5264.00,0.86
5263.00,0.86
5262.00,0.86
5261.00,0.85
5260.00,0.85
5259.00,0.85
5258.00,0.85
5257.00,0.85
5256.00,0.84
5255.00,0.84
5254.00,0.84
5253.00,0.84
5252.00,0.83
5251.00,0.83
5250.00,0.83
5249.00,0.83
5248.00,0.83
5247.00,0.82
5246.00,0.82
5245.00,0.82
5244.00,0.82
5243.00,0.82
5242.00,0.81
5241.00,0.81
5240.00,0.81
5239.00,0.81
5238.00,0.80
5237.00,0.80
5236.00,0.80
5235.00,0.80
5234.00,0.80
5233.00,0.79
5232.00,0.79
5231.00,0.79
5230.00,0.79
5229.00,0.79
5228.00,0.79
5227.00,0.79
5226.00,0.79
5225.00,0.79
5224.00,0.78
5223.00,0.78
5222.00,0.78
5221.00,0.78
5220.00,0.78
5219.00,0.78
5218.00,0.78
5217.00,0.78
5216.00,0.78
5215.00,0.78
5214.00,0.78
5213.00,0.77
5212.00,0.77
5211.00,0.77
5210.00,0.77
5209.00,0.77
5208.00,0.77
5207.00,0.77
5206.00,0.77
5205.00,0.77
5204.00,0.76
5203.00,0.76
5202.00,0.76
5201.00,0.76
5200.00,0.76
5199.00,0.76
5198.00,0.76
5197.00,0.76
5196.00,0.76
5195.00,0.76
5194.00,0.76
5193.00,0.76
5192.00,0.76
5191.00,0.76
5190.00,0.76
5189.00,0.76
5188.00,0.76
5187.00,0.76
5186.00,0.76
5185.00,0.76
5184.00,0.76
5183.00,0.76
5182.00,0.76
5181.00,0.76
5180.00,0.76
5179.00,0.77
5178.00,0.77
5177.00,0.77
5176.00,0.77
5175.00,0.77
5174.00,0.77
5173.00,0.77
5172.00,0.77
5171.00,0.78
5170.00,0.78
5169.00,0.78
5168.00,0.78
5167.00,0.78
5166.00,0.78
5165.00,0.78
5164.00,0.78
5163.00,0.78
5162.00,0.78
5161.00,0.78
5160.00,0.78
5159.00,0.78
5158.00,0.78
5157.00,0.78
5156.00,0.78
5155.00,0.78
5154.00,0.78
5153.00,0.78
5152.00,0.78
5151.00,0.78
5150.00,0.78
5149.00,0.78
5148.00,0.78
5147.00,0.78
5146.00,0.78
5145.00,0.78
5144.00,0.78
5143.00,0.78
5142.00,0.78
5141.00,0.78
5140.00,0.78
5139.00,0.78
5138.00,0.78
5137.00,0.78
5136.00,0.78
5135.00,0.78
5134.00,0.78
5133.00,0.78
5132.00,0.78
5131.00,0.78
5130.00,0.78
5129.00,0.78
5128.00,0.78
5127.00,0.78
5126.00,0.78
5125.00,0.78
5124.00,0.78
5123.00,0.78
5122.00,0.78
5121.00,0.79
5120.00,0.79
5119.00,0.79
5118.00,0.79
5117.00,0.79
5116.00,0.79
5115.00,0.79
5114.00,0.80
5113.00,0.80
5112.00,0.80
5111.00,0.80
5110.00,0.80
5109.00,0.81
5108.00,0.81
5107.00,0.81
5106.00,0.81
5105.00,0.82
5104.00,0.82
5103.00,0.82
5102.00,0.83
5101.00,0.83
5100.00,0.83
5099.00,0.84
5098.00,0.84
5097.00,0.84
5096.00,0.84
5095.00,0.85
5094.00,0.85
5093.00,0.85
5092.00,0.85
5091.00,0.85
5090.00,0.86
5089.00,0.86
5088.00,0.86
5087.00,0.86
5086.00,0.86
5085.00,0.86
5084.00,0.87
5083.00,0.87
5082.00,0.87
5081.00,0.87
5080.00,0.87
5079.00,0.88
5078.00,0.88
5077.00,0.88
5076.00,0.88
5075.00,0.88
5074.00,0.88
5073.00,0.88
5072.00,0.89
5071.00,0.89
5070.00,0.89
5069.00,0.89
5068.00,0.89
5067.00,0.90
5066.00,0.90
5065.00,0.90
5064.00,0.91
5063.00,0.91
5062.00,0.91
5061.00,0.91
5060.00,0.92
5059.00,0.92
5058.00,0.92
5057.00,0.93
5056.00,0.93
5055.00,0.93
5054.00,0.93
5053.00,0.94
5052.00,0.94
5051.00,0.94
5050.00,0.94
5049.00,0.94
5048.00,0.95
5047.00,0.95
5046.00,0.95
5045.00,0.95
5044.00,0.95
5043.00,0.96
5042.00,0.96
5041.00,0.96
5040.00,0.96
5039.00,0.96
5038.00,0.96
5037.00,0.96
5036.00,0.96
5035.00,0.96
5034.00,0.96
5033.00,0.96
5032.00,0.96
5031.00,0.96
5030.00,0.96
5029.00,0.96
5028.00,0.96
5027.00,0.96
5026.00,0.96
5025.00,0.96
5024.00,0.97
5023.00,0.97
5022.00,0.97
5021.00,0.97
5020.00,0.97
5019.00,0.97
5018.00,0.98
5017.00,0.98
5016.00,0.98
5015.00,0.98
5014.00,0.99
5013.00,0.99
5012.00,1.00
5011.00,1.00
5010.00,1.00
5009.00,1.01
5008.00,1.01
5007.00,1.02
5006.00,1.02
5005.00,1.02
5004.00,1.03
5003.00,1.03
5002.00,1.03
5001.00,1.04
5000.00,1.04
4999.00,1.04
4998.00,1.05
4997.00,1.05
4996.00,1.06
4995.00,1.06
4994.00,1.06
4993.00,1.07
4992.00,1.07
4991.00,1.07
4990.00,1.07
4989.00,1.08
4988.00,1.08
4987.00,1.08
4986.00,1.08
4985.00,1.08
4984.00,1.08
4983.00,1.08
4982.00,1.08
4981.00,1.08
4980.00,1.08
4979.00,1.09
4978.00,1.09
4977.00,1.09
4976.00,1.09
4975.00,1.09
4974.00,1.09
4973.00,1.09
4972.00,1.09
4971.00,1.09
4970.00,1.09
4969.00,1.09
4968.00,1.09
4967.00,1.09
4966.00,1.09
4965.00,1.09
4964.00,1.09
4963.00,1.09
4962.00,1.10
4961.00,1.10
4960.00,1.10
4959.00,1.10
4958.00,1.10
4957.00,1.11
4956.00,1.11
4955.00,1.11
4954.00,1.12
4953.00,1.12
4952.00,1.12
4951.00,1.13
4950.00,1.13
4949.00,1.14
4948.00,1.14
4947.00,1.14
4946.00,1.15
4945.00,1.15
4944.00,1.16
4943.00,1.16
4942.00,1.16
4941.00,1.17
4940.00,1.17
4939.00,1.17
4938.00,1.18
4937.00,1.18
4936.00,1.18
4935.00,1.19
4934.00,1.19
4933.00,1.19
4932.00,1.20
4931.00,1.20
4930.00,1.20
4929.00,1.21
4928.00,1.21
4927.00,1.21
4926.00,1.21
4925.00,1.21
4924.00,1.21
4923.00,1.22
4922.00,1.22
4921.00,1.22
4920.00,1.22
4919.00,1.22
4918.00,1.22
4917.00,1.23
4916.00,1.23
4915.00,1.23
4914.00,1.23
4913.00,1.23
4912.00,1.24
4911.00,1.24
4910.00,1.24
4909.00,1.24
4908.00,1.24
4907.00,1.24
4906.00,1.24
4905.00,1.24
4904.00,1.25
4903.00,1.25
4902.00,1.25
4901.00,1.25
4900.00,1.25
4899.00,1.25
4898.00,1.25
4897.00,1.25
4896.00,1.25
4895.00,1.25
4894.00,1.25
4893.00,1.26
4892.00,1.26
4891.00,1.26
4890.00,1.26
4889.00,1.26
4888.00,1.26
4887.00,1.26
4886.00,1.26
4885.00,1.26
4884.00,1.26
4883.00,1.26
4882.00,1.26
4881.00,1.26
4880.00,1.27
4879.00,1.27
4878.00,1.27
4877.00,1.27
4876.00,1.27
4875.00,1.27
4874.00,1.28
4873.00,1.28
4872.00,1.28
4871.00,1.28
4870.00,1.28
4869.00,1.29
4868.00,1.29
4867.00,1.29
4866.00,1.29
4865.00,1.29
4864.00,1.29
4863.00,1.30
4862.00,1.30
4861.00,1.30
4860.00,1.30
4859.00,1.31
4858.00,1.31
4857.00,1.31
4856.00,1.31
4855.00,1.31
4854.00,1.31
4853.00,1.32
4852.00,1.32
4851.00,1.32
4850.00,1.32
4849.00,1.32
4848.00,1.32
4847.00,1.33
4846.00,1.33
4845.00,1.33
4844.00,1.33
4843.00,1.33
4842.00,1.34
4841.00,1.34
4840.00,1.34
4839.00,1.34
4838.00,1.34
4837.00,1.35
4836.00,1.35
4835.00,1.35
4834.00,1.35
4833.00,1.35
4832.00,1.36
4831.00,1.36
4830.00,1.36
4829.00,1.36
4828.00,1.37
4827.00,1.37
4826.00,1.37
4825.00,1.38
4824.00,1.38
4823.00,1.38
4822.00,1.38
4821.00,1.39
4820.00,1.39
4819.00,1.39
4818.00,1.40
4817.00,1.40
4816.00,1.41
4815.00,1.41
4814.00,1.41
4813.00,1.42
4812.00,1.42
4811.00,1.43
4810.00,1.43
4809.00,1.43
4808.00,1.44
4807.00,1.44
4806.00,1.45
4805.00,1.45
4804.00,1.45
4803.00,1.46
4802.00,1.46
4801.00,1.47
4800.00,1.47
4799.00,1.47
4798.00,1.48
4797.00,1.48
4796.00,1.48
4795.00,1.48
4794.00,1.49
4793.00,1.49
4792.00,1.49
4791.00,1.50
4790.00,1.50
4789.00,1.50
4788.00,1.50
4787.00,1.51
4786.00,1.51
4785.00,1.51
4784.00,1.52
4783.00,1.52
4782.00,1.52
4781.00,1.53
4780.00,1.53
4779.00,1.53
4778.00,1.54
4777.00,1.54
4776.00,1.54
4775.00,1.55
4774.00,1.55
4773.00,1.55
4772.00,1.56
4771.00,1.56
4770.00,1.56
4769.00,1.57
4768.00,1.57
4767.00,1.57
4766.00,1.58
4765.00,1.58
4764.00,1.58
4763.00,1.59
4762.00,1.59
4761.00,1.59
4760.00,1.60
4759.00,1.60
4758.00,1.60
4757.00,1.60
4756.00,1.60
4755.00,1.61
4754.00,1.61
4753.00,1.61
4752.00,1.61
4751.00,1.61
4750.00,1.62
4749.00,1.62
4748.00,1.62
4747.00,1.62
4746.00,1.62
4745.00,1.63
4744.00,1.63
4743.00,1.63
4742.00,1.63
4741.00,1.64
4740.00,1.64
4739.00,1.64
4738.00,1.64
4737.00,1.65
4736.00,1.65
4735.00,1.65
4734.00,1.66
4733.00,1.66
4732.00,1.67
4731.00,1.67
4730.00,1.67
4729.00,1.68
4728.00,1.68
4727.00,1.69
4726.00,1.69
4725.00,1.70
4724.00,1.70
4723.00,1.71
4722.00,1.71
4721.00,1.72
4720.00,1.72
4719.00,1.73
4718.00,1.73
4717.00,1.74
4716.00,1.74
4715.00,1.75
4714.00,1.75
4713.00,1.76
4712.00,1.76
4711.00,1.76
4710.00,1.77
4709.00,1.77
4708.00,1.78
4707.00,1.78
4706.00,1.79
4705.00,1.79
4704.00,1.80
4703.00,1.80
4702.00,1.80
4701.00,1.81
4700.00,1.81
4699.00,1.82
4698.00,1.82
4697.00,1.82
4696.00,1.82
4695.00,1.83
4694.00,1.83
4693.00,1.83
4692.00,1.84
4691.00,1.84
4690.00,1.84
4689.00,1.84
4688.00,1.85
4687.00,1.85
4686.00,1.85
4685.00,1.86
4684.00,1.86
4683.00,1.86
4682.00,1.87
4681.00,1.87
4680.00,1.88
4679.00,1.88
4678.00,1.88
4677.00,1.89
4676.00,1.89
4675.00,1.89
4674.00,1.90
4673.00,1.90
4672.00,1.90
4671.00,1.91
4670.00,1.91
4669.00,1.92
4668.00,1.92
4667.00,1.93
4666.00,1.93
4665.00,1.94
4664.00,1.94
4663.00,1.95
4662.00,1.95
4661.00,1.96
4660.00,1.96
4659.00,1.97
4658.00,1.97
4657.00,1.98
4656.00,1.98
4655.00,1.99
4654.00,1.99
4653.00,2.00
4652.00,2.00
4651.00,2.01
4650.00,2.01
4649.00,2.02
4648.00,2.02
4647.00,2.03
4646.00,2.04
4645.00,2.04
4644.00,2.05
4643.00,2.05
4642.00,2.06
4641.00,2.06
4640.00,2.06
4639.00,2.07
4638.00,2.07
4637.00,2.07
4636.00,2.08
4635.00,2.08
4634.00,2.08
4633.00,2.08
4632.00,2.08
4631.00,2.08
4630.00,2.08
4629.00,2.08
4628.00,2.08
4627.00,2.08
4626.00,2.08
4625.00,2.08
4624.00,2.08
4623.00,2.08
4622.00,2.08
4621.00,2.07
4620.00,2.07
4619.00,2.07
4618.00,2.07
4617.00,2.07
4616.00,2.07
4615.00,2.06
4614.00,2.06
4613.00,2.06
4612.00,2.06
4611.00,2.06
4610.00,2.05
4609.00,2.05
4608.00,2.05
4607.00,2.05
4606.00,2.05
4605.00,2.05
4604.00,2.05
4603.00,2.05
4602.00,2.05
4601.00,2.05
4600.00,2.05
4599.00,2.05
4598.00,2.05
4597.00,2.05
4596.00,2.05
4595.00,2.05
4594.00,2.05
4593.00,2.05
4592.00,2.05
4591.00,2.05
4590.00,2.05
4589.00,2.05
4588.00,2.05
4587.00,2.05
4586.00,2.05
4585.00,2.05
4584.00,2.05
4583.00,2.05
4582.00,2.05
4581.00,2.05
4580.00,2.05
4579.00,2.05
4578.00,2.04
4577.00,2.04
4576.00,2.04
4575.00,2.04
4574.00,2.05
4573.00,2.05
4572.00,2.05
4571.00,2.05
4570.00,2.05
4569.00,2.05
4568.00,2.06
4567.00,2.06
4566.00,2.06
4565.00,2.06
4564.00,2.07
4563.00,2.07
4562.00,2.07
4561.00,2.08
4560.00,2.08
4559.00,2.08
4558.00,2.09
4557.00,2.09
4556.00,2.09
4555.00,2.10
4554.00,2.10
4553.00,2.10
4552.00,2.11
4551.00,2.11
4550.00,2.11
4549.00,2.12
4548.00,2.12
4547.00,2.12
4546.00,2.13
4545.00,2.13
4544.00,2.13
4543.00,2.14
4542.00,2.14
4541.00,2.14
4540.00,2.15
4539.00,2.15
4538.00,2.15
4537.00,2.16
4536.00,2.16
4535.00,2.16
4534.00,2.16
4533.00,2.17
4532.00,2.17
4531.00,2.17
4530.00,2.17
4529.00,2.17
4528.00,2.17
4527.00,2.17
4526.00,2.17
4525.00,2.17
4524.00,2.17
4523.00,2.17
4522.00,2.17
4521.00,2.17
4520.00,2.17
4519.00,2.17
4518.00,2.17
4517.00,2.17
4516.00,2.17
4515.00,2.16
4514.00,2.16
4513.00,2.16
4512.00,2.16
4511.00,2.16
4510.00,2.16
4509.00,2.15
4508.00,2.15
4507.00,2.15
4506.00,2.15
4505.00,2.15
4504.00,2.15
4503.00,2.14
4502.00,2.14
4501.00,2.14
4500.00,2.14
4499.00,2.14
4498.00,2.14
4497.00,2.14
4496.00,2.14
4495.00,2.14
4494.00,2.14
4493.00,2.14
4492.00,2.14
4491.00,2.14
4490.00,2.14
4489.00,2.14
4488.00,2.14
4487.00,2.14
4486.00,2.14
4485.00,2.14
4484.00,2.14
4483.00,2.14
4482.00,2.14
4481.00,2.14
4480.00,2.14
4479.00,2.14
4478.00,2.13
4477.00,2.13
4476.00,2.13
4475.00,2.13
4474.00,2.13
4473.00,2.12
4472.00,2.12
4471.00,2.12
4470.00,2.11
4469.00,2.11
4468.00,2.10
4467.00,2.09
4466.00,2.09
4465.00,2.08
4464.00,2.07
4463.00,2.06
4462.00,2.06
4461.00,2.05
4460.00,2.04
4459.00,2.03
4458.00,2.02
4457.00,2.01
4456.00,2.01
4455.00,2.00
4454.00,1.99
4453.00,1.98
4452.00,1.97
4451.00,1.96
4450.00,1.95
4449.00,1.93
4448.00,1.92
4447.00,1.91
4446.00,1.90
4445.00,1.88
4444.00,1.87
4443.00,1.86
4442.00,1.84
4441.00,1.83
4440.00,1.82
4439.00,1.80
4438.00,1.79
4437.00,1.77
4436.00,1.76
4435.00,1.74
4434.00,1.73
4433.00,1.71
4432.00,1.70
4431.00,1.69
4430.00,1.67
4429.00,1.66
4428.00,1.65
4427.00,1.63
4426.00,1.62
4425.00,1.61
4424.00,1.60
4423.00,1.59
4422.00,1.58
4421.00,1.57
4420.00,1.56
4419.00,1.55
4418.00,1.54
4417.00,1.54
4416.00,1.53
4415.00,1.53
4414.00,1.52
4413.00,1.52
4412.00,1.52
4411.00,1.52
4410.00,1.52
4409.00,1.52
4408.00,1.52
4407.00,1.52
4406.00,1.52
4405.00,1.52
4404.00,1.53
4403.00,1.53
4402.00,1.54
4401.00,1.54
4400.00,1.55
4399.00,1.55
4398.00,1.56
4397.00,1.56
4396.00,1.57
4395.00,1.58
4394.00,1.58
4393.00,1.59
4392.00,1.60
4391.00,1.61
4390.00,1.62
4389.00,1.63
4388.00,1.64
4387.00,1.65
4386.00,1.66
4385.00,1.66
4384.00,1.67
4383.00,1.68
4382.00,1.69
4381.00,1.69
4380.00,1.70
4379.00,1.70
4378.00,1.71
4377.00,1.71
4376.00,1.71
4375.00,1.72
4374.00,1.72
4373.00,1.72
4372.00,1.72
4371.00,1.72
4370.00,1.72
4369.00,1.72
4368.00,1.72
4367.00,1.71
4366.00,1.71
4365.00,1.70
4364.00,1.70
4363.00,1.69
4362.00,1.69
4361.00,1.68
4360.00,1.67
4359.00,1.67
4358.00,1.66
4357.00,1.66
4356.00,1.65
4355.00,1.64
4354.00,1.64
4353.00,1.63
4352.00,1.62
4351.00,1.62
4350.00,1.61
4349.00,1.61
4348.00,1.61
4347.00,1.60
4346.00,1.60
4345.00,1.60
4344.00,1.59
4343.00,1.59
4342.00,1.59
4341.00,1.59
4340.00,1.59
4339.00,1.59
4338.00,1.60
4337.00,1.60
4336.00,1.60
4335.00,1.60
4334.00,1.61
4333.00,1.61
4332.00,1.62
4331.00,1.62
4330.00,1.63
4329.00,1.63
4328.00,1.64
4327.00,1.65
4326.00,1.65
4325.00,1.66
4324.00,1.67
4323.00,1.68
4322.00,1.69
4321.00,1.69
4320.00,1.70
4319.00,1.71
4318.00,1.72
4317.00,1.73
4316.00,1.74
4315.00,1.75
4314.00,1.76
4313.00,1.77
4312.00,1.77
4311.00,1.78
4310.00,1.79
4309.00,1.80
4308.00,1.81
4307.00,1.81
4306.00,1.82
4305.00,1.83
4304.00,1.83
4303.00,1.84
4302.00,1.85
4301.00,1.86
4300.00,1.86
4299.00,1.87
4298.00,1.88
4297.00,1.89
4296.00,1.89
4295.00,1.90
4294.00,1.91
4293.00,1.91
4292.00,1.92
4291.00,1.92
4290.00,1.93
4289.00,1.93
4288.00,1.94
4287.00,1.94
4286.00,1.95
4285.00,1.95
4284.00,1.95
4283.00,1.96
4282.00,1.96
4281.00,1.97
4280.00,1.97
4279.00,1.98
4278.00,1.98
4277.00,1.99
4276.00,1.99
4275.00,1.99
4274.00,1.99
4273.00,1.99
4272.00,1.99
4271.00,1.99
4270.00,1.98
4269.00,1.98
4268.00,1.98
4267.00,1.98
4266.00,1.97
4265.00,1.97
4264.00,1.96
4263.00,1.96
4262.00,1.96
4261.00,1.96
4260.00,1.95
4259.00,1.95
4258.00,1.95
4257.00,1.95
4256.00,1.95
4255.00,1.95
4254.00,1.95
4253.00,1.95
4252.00,1.95
4251.00,1.94
4250.00,1.94
4249.00,1.94
4248.00,1.94
4247.00,1.94
4246.00,1.95
4245.00,1.95
4244.00,1.95
4243.00,1.96
4242.00,1.96
4241.00,1.97
4240.00,1.97
4239.00,1.98
4238.00,1.99
4237.00,1.99
4236.00,2.00
4235.00,2.01
4234.00,2.01
4233.00,2.02
4232.00,2.02
4231.00,2.03
4230.00,2.04
4229.00,2.04
4228.00,2.05
4227.00,2.05
4226.00,2.06
4225.00,2.06
4224.00,2.07
4223.00,2.07
4222.00,2.08
4221.00,2.08
4220.00,2.09
4219.00,2.09
4218.00,2.10
4217.00,2.10
4216.00,2.10
4215.00,2.10
4214.00,2.11
4213.00,2.11
4212.00,2.11
4211.00,2.11
4210.00,2.10
4209.00,2.10
4208.00,2.10
4207.00,2.10
4206.00,2.09
4205.00,2.09
4204.00,2.09
4203.00,2.09
4202.00,2.08
4201.00,2.08
4200.00,2.08
4199.00,2.07
4198.00,2.07
4197.00,2.07
4196.00,2.06
4195.00,2.06
4194.00,2.05
4193.00,2.05
4192.00,2.05
4191.00,2.04
4190.00,2.04
4189.00,2.04
4188.00,2.03
4187.00,2.03
4186.00,2.03
4185.00,2.03
4184.00,2.03
4183.00,2.02
4182.00,2.02
4181.00,2.02
4180.00,2.02
4179.00,2.02
4178.00,2.02
4177.00,2.02
4176.00,2.02
4175.00,2.02
4174.00,2.02
4173.00,2.02
4172.00,2.01
4171.00,2.01
4170.00,2.01
4169.00,2.00
4168.00,2.00
4167.00,2.00
4166.00,1.99
4165.00,1.99
4164.00,1.98
4163.00,1.98
4162.00,1.98
4161.00,1.97
4160.00,1.97
4159.00,1.97
4158.00,1.97
4157.00,1.96
4156.00,1.96
4155.00,1.96
4154.00,1.96
4153.00,1.95
4152.00,1.95
4151.00,1.95
4150.00,1.95
4149.00,1.95
4148.00,1.95
4147.00,1.95
4146.00,1.96
4145.00,1.96
4144.00,1.96
4143.00,1.97
4142.00,1.97
4141.00,1.97
4140.00,1.98
4139.00,1.98
4138.00,1.99
4137.00,1.99
4136.00,1.99
4135.00,2.00
4134.00,2.00
4133.00,2.00
4132.00,2.00
4131.00,2.01
4130.00,2.01
4129.00,2.01
4128.00,2.02
4127.00,2.02
4126.00,2.02
4125.00,2.03
4124.00,2.03
4123.00,2.03
4122.00,2.03
4121.00,2.04
4120.00,2.04
4119.00,2.04
4118.00,2.04
4117.00,2.04
4116.00,2.04
4115.00,2.04
4114.00,2.04
4113.00,2.04
4112.00,2.04
4111.00,2.04
4110.00,2.04
4109.00,2.04
4108.00,2.04
4107.00,2.04
4106.00,2.04
4105.00,2.04
4104.00,2.04
4103.00,2.04
4102.00,2.04
4101.00,2.04
4100.00,2.03
4099.00,2.03
4098.00,2.03
4097.00,2.03
4096.00,2.03
4095.00,2.02
4094.00,2.02
4093.00,2.02
4092.00,2.02
4091.00,2.02
4090.00,2.03
4089.00,2.03
4088.00,2.03
4087.00,2.03
4086.00,2.03
4085.00,2.04
4084.00,2.04
4083.00,2.04
4082.00,2.04
4081.00,2.04
4080.00,2.04
4079.00,2.04
4078.00,2.04
4077.00,2.04
4076.00,2.04
4075.00,2.04
4074.00,2.05
4073.00,2.05
4072.00,2.05
4071.00,2.05
4070.00,2.05
4069.00,2.06
4068.00,2.06
4067.00,2.06
4066.00,2.06
4065.00,2.06
4064.00,2.06
4063.00,2.06
4062.00,2.06
4061.00,2.06
4060.00,2.06
4059.00,2.06
4058.00,2.06
4057.00,2.05
4056.00,2.05
4055.00,2.06
4054.00,2.06
4053.00,2.06
4052.00,2.06
4051.00,2.06
4050.00,2.06
4049.00,2.06
4048.00,2.06
4047.00,2.06
4046.00,2.06
4045.00,2.06
4044.00,2.06
4043.00,2.06
4042.00,2.06
4041.00,2.07
4040.00,2.07
4039.00,2.07
4038.00,2.07
4037.00,2.07
4036.00,2.08
4035.00,2.08
4034.00,2.08
4033.00,2.08
4032.00,2.09
4031.00,2.09
4030.00,2.09
4029.00,2.09
4028.00,2.09
4027.00,2.09
4026.00,2.09
4025.00,2.09
4024.00,2.10
4023.00,2.10
4022.00,2.10
4021.00,2.10
4020.00,2.10
4019.00,2.11
4018.00,2.11
4017.00,2.12
4016.00,2.12
4015.00,2.13
4014.00,2.14
4013.00,2.14
4012.00,2.15
4011.00,2.16
4010.00,2.17
4009.00,2.17
4008.00,2.18
4007.00,2.19
4006.00,2.21
4005.00,2.22
4004.00,2.24
4003.00,2.25
4002.00,2.27
4001.00,2.28
4000.00,2.30
