创建为新数据集,样品 336 用户 Administrator 日期 星期日, 七月 28 2019
cm-1,%T
10000.00,0.96
9999.00,0.96
9998.00,0.96
9997.00,0.96
9996.00,0.95
9995.00,0.95
9994.00,0.95
9993.00,0.95
9992.00,0.95
9991.00,0.95
9990.00,0.95
9989.00,0.95
9988.00,0.94
9987.00,0.94
9986.00,0.94
9985.00,0.94
9984.00,0.94
9983.00,0.94
9982.00,0.94
9981.00,0.94
9980.00,0.95
9979.00,0.95
9978.00,0.95
9977.00,0.95
9976.00,0.95
9975.00,0.95
9974.00,0.95
9973.00,0.95
9972.00,0.96
9971.00,0.96
9970.00,0.96
9969.00,0.96
9968.00,0.97
9967.00,0.97
9966.00,0.97
9965.00,0.97
9964.00,0.98
9963.00,0.98
9962.00,0.98
9961.00,0.99
9960.00,0.99
9959.00,0.99
9958.00,1.00
9957.00,1.00
9956.00,1.00
9955.00,1.01
9954.00,1.01
9953.00,1.01
9952.00,1.01
9951.00,1.02
9950.00,1.02
9949.00,1.02
9948.00,1.02
9947.00,1.03
9946.00,1.03
9945.00,1.03
9944.00,1.03
9943.00,1.03
9942.00,1.03
9941.00,1.03
9940.00,1.03
9939.00,1.03
9938.00,1.03
9937.00,1.03
9936.00,1.03
9935.00,1.02
9934.00,1.02
9933.00,1.02
9932.00,1.01
9931.00,1.01
9930.00,1.01
9929.00,1.00
9928.00,1.00
9927.00,0.99
9926.00,0.99
9925.00,0.98
9924.00,0.98
9923.00,0.97
9922.00,0.96
9921.00,0.96
9920.00,0.95
9919.00,0.94
9918.00,0.94
9917.00,0.93
9916.00,0.92
9915.00,0.91
9914.00,0.91
9913.00,0.90
9912.00,0.89
9911.00,0.88
9910.00,0.88
9909.00,0.87
9908.00,0.86
9907.00,0.86
9906.00,0.85
9905.00,0.84
9904.00,0.83
9903.00,0.83
9902.00,0.82
9901.00,0.81
9900.00,0.81
9899.00,0.80
9898.00,0.80
9897.00,0.79
9896.00,0.78
9895.00,0.78
9894.00,0.77
9893.00,0.77
9892.00,0.76
9891.00,0.76
9890.00,0.75
9889.00,0.75
9888.00,0.74
9887.00,0.74
9886.00,0.74
9885.00,0.73
9884.00,0.73
9883.00,0.73
9882.00,0.72
9881.00,0.72
9880.00,0.72
9879.00,0.72
9878.00,0.72
9877.00,0.72
9876.00,0.72
9875.00,0.71
9874.00,0.71
9873.00,0.72
9872.00,0.72
9871.00,0.72
9870.00,0.72
9869.00,0.72
9868.00,0.72
9867.00,0.73
9866.00,0.73
9865.00,0.73
9864.00,0.74
9863.00,0.74
9862.00,0.75
9861.00,0.75
9860.00,0.76
9859.00,0.76
9858.00,0.77
9857.00,0.77
9856.00,0.78
9855.00,0.79
9854.00,0.79
9853.00,0.80
9852.00,0.81
9851.00,0.81
9850.00,0.82
9849.00,0.83
9848.00,0.83
9847.00,0.84
9846.00,0.85
9845.00,0.86
9844.00,0.86
9843.00,0.87
9842.00,0.88
9841.00,0.88
9840.00,0.89
9839.00,0.89
9838.00,0.90
9837.00,0.90
9836.00,0.91
9835.00,0.91
9834.00,0.92
9833.00,0.92
9832.00,0.93
9831.00,0.93
9830.00,0.93
9829.00,0.94
9828.00,0.94
9827.00,0.94
9826.00,0.94
9825.00,0.94
9824.00,0.94
9823.00,0.94
9822.00,0.94
9821.00,0.94
9820.00,0.94
9819.00,0.94
9818.00,0.94
9817.00,0.94
9816.00,0.94
9815.00,0.94
9814.00,0.93
9813.00,0.93
9812.00,0.93
9811.00,0.93
9810.00,0.92
9809.00,0.92
9808.00,0.92
9807.00,0.91
9806.00,0.91
9805.00,0.91
9804.00,0.90
9803.00,0.90
9802.00,0.89
9801.00,0.89
9800.00,0.89
9799.00,0.88
9798.00,0.88
9797.00,0.87
9796.00,0.87
9795.00,0.87
9794.00,0.86
9793.00,0.86
9792.00,0.85
9791.00,0.85
9790.00,0.84
9789.00,0.84
9788.00,0.84
9787.00,0.83
9786.00,0.83
9785.00,0.83
9784.00,0.82
9783.00,0.82
9782.00,0.82
9781.00,0.81
9780.00,0.81
9779.00,0.81
9778.00,0.80
9777.00,0.80
9776.00,0.80
9775.00,0.80
9774.00,0.79
9773.00,0.79
9772.00,0.79
9771.00,0.79
9770.00,0.79
9769.00,0.78
9768.00,0.78
9767.00,0.78
9766.00,0.78
9765.00,0.78
9764.00,0.78
9763.00,0.78
9762.00,0.78
9761.00,0.78
9760.00,0.78
9759.00,0.78
9758.00,0.78
9757.00,0.78
9756.00,0.78
9755.00,0.78
9754.00,0.78
9753.00,0.78
9752.00,0.78
9751.00,0.78
9750.00,0.78
9749.00,0.78
9748.00,0.79
9747.00,0.79
9746.00,0.79
9745.00,0.79
9744.00,0.79
9743.00,0.80
9742.00,0.80
9741.00,0.80
9740.00,0.80
9739.00,0.81
9738.00,0.81
9737.00,0.81
9736.00,0.81
9735.00,0.82
9734.00,0.82
9733.00,0.82
9732.00,0.82
9731.00,0.83
9730.00,0.83
9729.00,0.83
9728.00,0.83
9727.00,0.84
9726.00,0.84
9725.00,0.84
9724.00,0.84
9723.00,0.84
9722.00,0.85
9721.00,0.85
9720.00,0.85
9719.00,0.85
9718.00,0.85
9717.00,0.85
9716.00,0.85
9715.00,0.85
9714.00,0.85
9713.00,0.85
9712.00,0.84
9711.00,0.84
9710.00,0.84
9709.00,0.84
9708.00,0.83
9707.00,0.83
9706.00,0.83
9705.00,0.82
9704.00,0.82
9703.00,0.81
9702.00,0.81
9701.00,0.81
9700.00,0.80
9699.00,0.79
9698.00,0.79
9697.00,0.78
9696.00,0.78
9695.00,0.77
9694.00,0.77
9693.00,0.76
9692.00,0.76
9691.00,0.75
9690.00,0.74
9689.00,0.74
9688.00,0.73
9687.00,0.73
9686.00,0.72
9685.00,0.72
9684.00,0.71
9683.00,0.71
9682.00,0.70
9681.00,0.70
9680.00,0.70
9679.00,0.69
9678.00,0.69
9677.00,0.69
9676.00,0.68
9675.00,0.68
9674.00,0.68
9673.00,0.68
9672.00,0.68
9671.00,0.67
9670.00,0.67
9669.00,0.67
9668.00,0.67
9667.00,0.67
9666.00,0.67
9665.00,0.67
9664.00,0.67
9663.00,0.67
9662.00,0.67
9661.00,0.67
9660.00,0.67
9659.00,0.68
9658.00,0.68
9657.00,0.68
9656.00,0.68
9655.00,0.68
9654.00,0.68
9653.00,0.69
9652.00,0.69
9651.00,0.69
9650.00,0.69
9649.00,0.70
9648.00,0.70
9647.00,0.70
9646.00,0.70
9645.00,0.71
9644.00,0.71
9643.00,0.71
9642.00,0.72
9641.00,0.72
9640.00,0.72
9639.00,0.72
9638.00,0.73
9637.00,0.73
9636.00,0.73
9635.00,0.74
9634.00,0.74
9633.00,0.74
9632.00,0.75
9631.00,0.75
9630.00,0.75
9629.00,0.76
9628.00,0.76
9627.00,0.76
9626.00,0.77
9625.00,0.77
9624.00,0.77
9623.00,0.78
9622.00,0.78
9621.00,0.79
9620.00,0.79
9619.00,0.79
9618.00,0.80
9617.00,0.80
9616.00,0.80
9615.00,0.81
9614.00,0.81
9613.00,0.82
9612.00,0.82
9611.00,0.82
9610.00,0.83
9609.00,0.83
9608.00,0.83
9607.00,0.84
9606.00,0.84
9605.00,0.84
9604.00,0.84
9603.00,0.85
9602.00,0.85
9601.00,0.85
9600.00,0.85
9599.00,0.86
9598.00,0.86
9597.00,0.86
9596.00,0.86
9595.00,0.86
9594.00,0.86
9593.00,0.87
9592.00,0.87
9591.00,0.87
9590.00,0.87
9589.00,0.87
9588.00,0.87
9587.00,0.87
9586.00,0.87
9585.00,0.87
9584.00,0.87
9583.00,0.87
9582.00,0.87
9581.00,0.87
9580.00,0.87
9579.00,0.87
9578.00,0.86
9577.00,0.86
9576.00,0.86
9575.00,0.86
9574.00,0.86
9573.00,0.86
9572.00,0.85
9571.00,0.85
9570.00,0.85
9569.00,0.85
9568.00,0.84
9567.00,0.84
9566.00,0.84
9565.00,0.83
9564.00,0.83
9563.00,0.83
9562.00,0.82
9561.00,0.82
9560.00,0.82
9559.00,0.81
9558.00,0.81
9557.00,0.81
9556.00,0.80
9555.00,0.80
9554.00,0.79
9553.00,0.79
9552.00,0.78
9551.00,0.78
9550.00,0.78
9549.00,0.77
9548.00,0.77
9547.00,0.76
9546.00,0.76
9545.00,0.75
9544.00,0.75
9543.00,0.74
9542.00,0.74
9541.00,0.74
9540.00,0.73
9539.00,0.73
9538.00,0.72
9537.00,0.72
9536.00,0.72
9535.00,0.71
9534.00,0.71
9533.00,0.71
9532.00,0.71
9531.00,0.70
9530.00,0.70
9529.00,0.70
9528.00,0.70
9527.00,0.70
9526.00,0.70
9525.00,0.69
9524.00,0.69
9523.00,0.69
9522.00,0.69
9521.00,0.70
9520.00,0.70
9519.00,0.70
9518.00,0.70
9517.00,0.70
9516.00,0.70
9515.00,0.70
9514.00,0.71
9513.00,0.71
9512.00,0.71
9511.00,0.72
9510.00,0.72
9509.00,0.72
9508.00,0.73
9507.00,0.73
9506.00,0.73
9505.00,0.74
9504.00,0.74
9503.00,0.74
9502.00,0.75
9501.00,0.75
9500.00,0.75
9499.00,0.75
9498.00,0.76
9497.00,0.76
9496.00,0.76
9495.00,0.76
9494.00,0.77
9493.00,0.77
9492.00,0.77
9491.00,0.77
9490.00,0.78
9489.00,0.78
9488.00,0.78
9487.00,0.78
9486.00,0.78
9485.00,0.79
9484.00,0.79
9483.00,0.79
9482.00,0.79
9481.00,0.79
9480.00,0.80
9479.00,0.80
9478.00,0.80
9477.00,0.80
9476.00,0.81
9475.00,0.81
9474.00,0.81
9473.00,0.81
9472.00,0.82
9471.00,0.82
9470.00,0.82
9469.00,0.83
9468.00,0.83
9467.00,0.83
9466.00,0.83
9465.00,0.84
9464.00,0.84
9463.00,0.84
9462.00,0.85
9461.00,0.85
9460.00,0.85
9459.00,0.85
9458.00,0.86
9457.00,0.86
9456.00,0.86
9455.00,0.86
9454.00,0.86
9453.00,0.86
9452.00,0.86
9451.00,0.86
9450.00,0.86
9449.00,0.86
9448.00,0.86
9447.00,0.86
9446.00,0.86
9445.00,0.86
9444.00,0.86
9443.00,0.86
9442.00,0.86
9441.00,0.85
9440.00,0.85
9439.00,0.85
9438.00,0.85
9437.00,0.84
9436.00,0.84
9435.00,0.84
9434.00,0.84
9433.00,0.83
9432.00,0.83
9431.00,0.83
9430.00,0.82
9429.00,0.82
9428.00,0.82
9427.00,0.81
9426.00,0.81
9425.00,0.81
9424.00,0.80
9423.00,0.80
9422.00,0.80
9421.00,0.80
9420.00,0.79
9419.00,0.79
9418.00,0.79
9417.00,0.78
9416.00,0.78
9415.00,0.78
9414.00,0.78
9413.00,0.78
9412.00,0.78
9411.00,0.77
9410.00,0.77
9409.00,0.77
9408.00,0.77
9407.00,0.77
9406.00,0.77
9405.00,0.77
9404.00,0.77
9403.00,0.77
9402.00,0.77
9401.00,0.77
9400.00,0.77
9399.00,0.77
9398.00,0.77
9397.00,0.77
9396.00,0.77
9395.00,0.77
9394.00,0.77
9393.00,0.77
9392.00,0.77
9391.00,0.77
9390.00,0.77
9389.00,0.77
9388.00,0.77
9387.00,0.77
9386.00,0.77
9385.00,0.77
9384.00,0.77
9383.00,0.77
9382.00,0.77
9381.00,0.77
9380.00,0.77
9379.00,0.77
9378.00,0.76
9377.00,0.76
9376.00,0.76
9375.00,0.76
9374.00,0.76
9373.00,0.76
9372.00,0.76
9371.00,0.75
9370.00,0.75
9369.00,0.75
9368.00,0.75
9367.00,0.75
9366.00,0.75
9365.00,0.74
9364.00,0.74
9363.00,0.74
9362.00,0.74
9361.00,0.74
9360.00,0.74
9359.00,0.74
9358.00,0.74
9357.00,0.74
9356.00,0.74
9355.00,0.74
9354.00,0.74
9353.00,0.74
9352.00,0.74
9351.00,0.74
9350.00,0.74
9349.00,0.74
9348.00,0.74
9347.00,0.74
9346.00,0.75
9345.00,0.75
9344.00,0.75
9343.00,0.75
9342.00,0.76
9341.00,0.76
9340.00,0.76
9339.00,0.76
9338.00,0.77
9337.00,0.77
9336.00,0.77
9335.00,0.78
9334.00,0.78
9333.00,0.78
9332.00,0.78
9331.00,0.79
9330.00,0.79
9329.00,0.79
9328.00,0.79
9327.00,0.80
9326.00,0.80
9325.00,0.80
9324.00,0.80
9323.00,0.80
9322.00,0.80
9321.00,0.81
9320.00,0.81
9319.00,0.81
9318.00,0.81
9317.00,0.81
9316.00,0.81
9315.00,0.81
9314.00,0.81
9313.00,0.81
9312.00,0.80
9311.00,0.80
9310.00,0.80
9309.00,0.80
9308.00,0.80
9307.00,0.80
9306.00,0.80
9305.00,0.79
9304.00,0.79
9303.00,0.79
9302.00,0.79
9301.00,0.78
9300.00,0.78
9299.00,0.78
9298.00,0.78
9297.00,0.77
9296.00,0.77
9295.00,0.77
9294.00,0.76
9293.00,0.76
9292.00,0.76
9291.00,0.76
9290.00,0.75
9289.00,0.75
9288.00,0.75
9287.00,0.74
9286.00,0.74
9285.00,0.74
9284.00,0.74
9283.00,0.74
9282.00,0.73
9281.00,0.73
9280.00,0.73
9279.00,0.73
9278.00,0.73
9277.00,0.73
9276.00,0.73
9275.00,0.73
9274.00,0.72
9273.00,0.72
9272.00,0.72
9271.00,0.72
9270.00,0.72
9269.00,0.72
9268.00,0.72
9267.00,0.72
9266.00,0.72
9265.00,0.72
9264.00,0.72
9263.00,0.73
9262.00,0.73
9261.00,0.73
9260.00,0.73
9259.00,0.73
9258.00,0.73
9257.00,0.73
9256.00,0.73
9255.00,0.73
9254.00,0.73
9253.00,0.73
9252.00,0.73
9251.00,0.73
9250.00,0.73
9249.00,0.74
9248.00,0.74
9247.00,0.74
9246.00,0.74
9245.00,0.74
9244.00,0.74
9243.00,0.74
9242.00,0.74
9241.00,0.74
9240.00,0.74
9239.00,0.74
9238.00,0.75
9237.00,0.75
9236.00,0.75
9235.00,0.75
9234.00,0.75
9233.00,0.75
9232.00,0.75
9231.00,0.76
9230.00,0.76
9229.00,0.76
9228.00,0.76
9227.00,0.76
9226.00,0.77
9225.00,0.77
9224.00,0.77
9223.00,0.77
9222.00,0.78
9221.00,0.78
9220.00,0.78
9219.00,0.78
9218.00,0.79
9217.00,0.79
9216.00,0.79
9215.00,0.79
9214.00,0.79
9213.00,0.80
9212.00,0.80
9211.00,0.80
9210.00,0.80
9209.00,0.81
9208.00,0.81
9207.00,0.81
9206.00,0.81
9205.00,0.81
9204.00,0.82
9203.00,0.82
9202.00,0.82
9201.00,0.82
9200.00,0.82
9199.00,0.82
9198.00,0.82
9197.00,0.82
9196.00,0.83
9195.00,0.83
9194.00,0.83
9193.00,0.83
9192.00,0.83
9191.00,0.83
9190.00,0.83
9189.00,0.83
9188.00,0.84
9187.00,0.84
9186.00,0.84
9185.00,0.84
9184.00,0.84
9183.00,0.84
9182.00,0.85
9181.00,0.85
9180.00,0.85
9179.00,0.85
9178.00,0.85
9177.00,0.86
9176.00,0.86
9175.00,0.86
9174.00,0.87
9173.00,0.87
9172.00,0.87
9171.00,0.87
9170.00,0.88
9169.00,0.88
9168.00,0.88
9167.00,0.89
9166.00,0.89
9165.00,0.90
9164.00,0.90
9163.00,0.90
9162.00,0.91
9161.00,0.91
9160.00,0.91
9159.00,0.92
9158.00,0.92
9157.00,0.92
9156.00,0.92
9155.00,0.93
9154.00,0.93
9153.00,0.93
9152.00,0.93
9151.00,0.93
9150.00,0.93
9149.00,0.94
9148.00,0.94
9147.00,0.94
9146.00,0.94
9145.00,0.94
9144.00,0.94
9143.00,0.94
9142.00,0.94
9141.00,0.94
9140.00,0.93
9139.00,0.93
9138.00,0.93
9137.00,0.93
9136.00,0.93
9135.00,0.93
9134.00,0.92
9133.00,0.92
9132.00,0.92
9131.00,0.92
9130.00,0.91
9129.00,0.91
9128.00,0.91
9127.00,0.90
9126.00,0.90
9125.00,0.90
9124.00,0.89
9123.00,0.89
9122.00,0.89
9121.00,0.88
9120.00,0.88
9119.00,0.88
9118.00,0.87
9117.00,0.87
9116.00,0.87
9115.00,0.86
9114.00,0.86
9113.00,0.86
9112.00,0.86
9111.00,0.85
9110.00,0.85
9109.00,0.85
9108.00,0.84
9107.00,0.84
9106.00,0.84
9105.00,0.84
9104.00,0.83
9103.00,0.83
9102.00,0.83
9101.00,0.83
9100.00,0.82
9099.00,0.82
9098.00,0.82
9097.00,0.82
9096.00,0.82
9095.00,0.81
9094.00,0.81
9093.00,0.81
9092.00,0.81
9091.00,0.81
9090.00,0.80
9089.00,0.80
9088.00,0.80
9087.00,0.80
9086.00,0.80
9085.00,0.79
9084.00,0.79
9083.00,0.79
9082.00,0.79
9081.00,0.79
9080.00,0.79
9079.00,0.78
9078.00,0.78
9077.00,0.78
9076.00,0.78
9075.00,0.78
9074.00,0.77
9073.00,0.77
9072.00,0.77
9071.00,0.77
9070.00,0.77
9069.00,0.77
9068.00,0.76
9067.00,0.76
9066.00,0.76
9065.00,0.76
9064.00,0.76
9063.00,0.75
9062.00,0.75
9061.00,0.75
9060.00,0.75
9059.00,0.75
9058.00,0.74
9057.00,0.74
9056.00,0.74
9055.00,0.74
9054.00,0.74
9053.00,0.73
9052.00,0.73
9051.00,0.73
9050.00,0.73
9049.00,0.73
9048.00,0.73
9047.00,0.73
9046.00,0.73
9045.00,0.72
9044.00,0.72
9043.00,0.72
9042.00,0.72
9041.00,0.72
9040.00,0.72
9039.00,0.72
9038.00,0.73
9037.00,0.73
9036.00,0.73
9035.00,0.73
9034.00,0.73
9033.00,0.73
9032.00,0.74
9031.00,0.74
9030.00,0.74
9029.00,0.75
9028.00,0.75
9027.00,0.75
9026.00,0.76
9025.00,0.76
9024.00,0.76
9023.00,0.77
9022.00,0.77
9021.00,0.78
9020.00,0.78
9019.00,0.79
9018.00,0.79
9017.00,0.80
9016.00,0.80
9015.00,0.81
9014.00,0.81
9013.00,0.82
9012.00,0.82
9011.00,0.82
9010.00,0.83
9009.00,0.83
9008.00,0.84
9007.00,0.84
9006.00,0.84
9005.00,0.85
9004.00,0.85
9003.00,0.85
9002.00,0.85
9001.00,0.85
9000.00,0.86
8999.00,0.86
8998.00,0.86
8997.00,0.86
8996.00,0.86
8995.00,0.86
8994.00,0.86
8993.00,0.86
8992.00,0.86
8991.00,0.86
8990.00,0.85
8989.00,0.85
8988.00,0.85
8987.00,0.85
8986.00,0.85
8985.00,0.84
8984.00,0.84
8983.00,0.84
8982.00,0.84
8981.00,0.83
8980.00,0.83
8979.00,0.83
8978.00,0.82
8977.00,0.82
8976.00,0.82
8975.00,0.81
8974.00,0.81
8973.00,0.81
8972.00,0.80
8971.00,0.80
8970.00,0.80
8969.00,0.79
8968.00,0.79
8967.00,0.79
8966.00,0.78
8965.00,0.78
8964.00,0.78
8963.00,0.77
8962.00,0.77
8961.00,0.77
8960.00,0.77
8959.00,0.77
8958.00,0.76
8957.00,0.76
8956.00,0.76
8955.00,0.76
8954.00,0.76
8953.00,0.76
8952.00,0.76
8951.00,0.76
8950.00,0.76
8949.00,0.76
8948.00,0.76
8947.00,0.76
8946.00,0.76
8945.00,0.76
8944.00,0.76
8943.00,0.76
8942.00,0.76
8941.00,0.76
8940.00,0.77
8939.00,0.77
8938.00,0.77
8937.00,0.77
8936.00,0.77
8935.00,0.78
8934.00,0.78
8933.00,0.78
8932.00,0.78
8931.00,0.78
8930.00,0.79
8929.00,0.79
8928.00,0.79
8927.00,0.79
8926.00,0.80
8925.00,0.80
8924.00,0.80
8923.00,0.80
8922.00,0.80
8921.00,0.81
8920.00,0.81
8919.00,0.81
8918.00,0.81
8917.00,0.81
8916.00,0.81
8915.00,0.81
8914.00,0.81
8913.00,0.81
8912.00,0.81
8911.00,0.81
8910.00,0.81
8909.00,0.81
8908.00,0.81
8907.00,0.81
8906.00,0.81
8905.00,0.81
8904.00,0.81
8903.00,0.81
8902.00,0.81
8901.00,0.80
8900.00,0.80
8899.00,0.80
8898.00,0.80
8897.00,0.80
8896.00,0.79
8895.00,0.79
8894.00,0.79
8893.00,0.79
8892.00,0.78
8891.00,0.78
8890.00,0.78
8889.00,0.77
8888.00,0.77
8887.00,0.77
8886.00,0.77
8885.00,0.76
8884.00,0.76
8883.00,0.76
8882.00,0.76
8881.00,0.75
8880.00,0.75
8879.00,0.75
8878.00,0.75
8877.00,0.75
8876.00,0.75
8875.00,0.75
8874.00,0.75
8873.00,0.74
8872.00,0.74
8871.00,0.74
8870.00,0.74
8869.00,0.74
8868.00,0.75
8867.00,0.75
8866.00,0.75
8865.00,0.75
8864.00,0.75
8863.00,0.75
8862.00,0.75
8861.00,0.75
8860.00,0.76
8859.00,0.76
8858.00,0.76
8857.00,0.76
8856.00,0.76
8855.00,0.77
8854.00,0.77
8853.00,0.77
8852.00,0.77
8851.00,0.78
8850.00,0.78
8849.00,0.78
8848.00,0.78
8847.00,0.79
8846.00,0.79
8845.00,0.79
8844.00,0.79
8843.00,0.79
8842.00,0.80
8841.00,0.80
8840.00,0.80
8839.00,0.80
8838.00,0.80
8837.00,0.80
8836.00,0.80
8835.00,0.81
8834.00,0.81
8833.00,0.81
8832.00,0.81
8831.00,0.81
8830.00,0.81
8829.00,0.81
8828.00,0.81
8827.00,0.81
8826.00,0.81
8825.00,0.81
8824.00,0.81
8823.00,0.81
8822.00,0.81
8821.00,0.81
8820.00,0.81
8819.00,0.81
8818.00,0.81
8817.00,0.81
8816.00,0.81
8815.00,0.81
8814.00,0.81
8813.00,0.81
8812.00,0.81
8811.00,0.81
8810.00,0.81
8809.00,0.81
8808.00,0.81
8807.00,0.81
8806.00,0.81
8805.00,0.81
8804.00,0.81
8803.00,0.81
8802.00,0.81
8801.00,0.81
8800.00,0.81
8799.00,0.81
8798.00,0.81
8797.00,0.81
8796.00,0.81
8795.00,0.81
8794.00,0.81
8793.00,0.81
8792.00,0.81
8791.00,0.80
8790.00,0.80
8789.00,0.80
8788.00,0.80
8787.00,0.80
8786.00,0.80
8785.00,0.80
8784.00,0.80
8783.00,0.80
8782.00,0.79
8781.00,0.79
8780.00,0.79
8779.00,0.79
8778.00,0.79
8777.00,0.79
8776.00,0.78
8775.00,0.78
8774.00,0.78
8773.00,0.78
8772.00,0.78
8771.00,0.77
8770.00,0.77
8769.00,0.77
8768.00,0.77
8767.00,0.77
8766.00,0.76
8765.00,0.76
8764.00,0.76
8763.00,0.76
8762.00,0.76
8761.00,0.75
8760.00,0.75
8759.00,0.75
8758.00,0.75
8757.00,0.75
8756.00,0.75
8755.00,0.74
8754.00,0.74
8753.00,0.74
8752.00,0.74
8751.00,0.74
8750.00,0.73
8749.00,0.73
8748.00,0.73
8747.00,0.73
8746.00,0.73
8745.00,0.73
8744.00,0.73
8743.00,0.73
8742.00,0.72
8741.00,0.72
8740.00,0.72
8739.00,0.72
8738.00,0.72
8737.00,0.72
8736.00,0.72
8735.00,0.72
8734.00,0.72
8733.00,0.72
8732.00,0.72
8731.00,0.72
8730.00,0.72
8729.00,0.72
8728.00,0.72
8727.00,0.72
8726.00,0.72
8725.00,0.73
8724.00,0.73
8723.00,0.73
8722.00,0.73
8721.00,0.73
8720.00,0.73
8719.00,0.73
8718.00,0.74
8717.00,0.74
8716.00,0.74
8715.00,0.74
8714.00,0.74
8713.00,0.75
8712.00,0.75
8711.00,0.75
8710.00,0.75
8709.00,0.76
8708.00,0.76
8707.00,0.76
8706.00,0.77
8705.00,0.77
8704.00,0.77
8703.00,0.77
8702.00,0.78
8701.00,0.78
8700.00,0.78
8699.00,0.79
8698.00,0.79
8697.00,0.79
8696.00,0.79
8695.00,0.80
8694.00,0.80
8693.00,0.80
8692.00,0.81
8691.00,0.81
8690.00,0.81
8689.00,0.81
8688.00,0.82
8687.00,0.82
8686.00,0.82
8685.00,0.82
8684.00,0.83
8683.00,0.83
8682.00,0.83
8681.00,0.83
8680.00,0.83
8679.00,0.84
8678.00,0.84
8677.00,0.84
8676.00,0.84
8675.00,0.84
8674.00,0.84
8673.00,0.84
8672.00,0.84
8671.00,0.84
8670.00,0.84
8669.00,0.84
8668.00,0.84
8667.00,0.84
8666.00,0.84
8665.00,0.84
8664.00,0.84
8663.00,0.84
8662.00,0.84
8661.00,0.83
8660.00,0.83
8659.00,0.83
8658.00,0.83
8657.00,0.83
8656.00,0.82
8655.00,0.82
8654.00,0.82
8653.00,0.82
8652.00,0.81
8651.00,0.81
8650.00,0.81
8649.00,0.81
8648.00,0.80
8647.00,0.80
8646.00,0.80
8645.00,0.80
8644.00,0.80
8643.00,0.79
8642.00,0.79
8641.00,0.79
8640.00,0.79
8639.00,0.79
8638.00,0.79
8637.00,0.79
8636.00,0.78
8635.00,0.78
8634.00,0.78
8633.00,0.78
8632.00,0.78
8631.00,0.78
8630.00,0.78
8629.00,0.78
8628.00,0.78
8627.00,0.78
8626.00,0.78
8625.00,0.78
8624.00,0.78
8623.00,0.78
8622.00,0.78
8621.00,0.78
8620.00,0.79
8619.00,0.79
8618.00,0.79
8617.00,0.79
8616.00,0.79
8615.00,0.79
8614.00,0.79
8613.00,0.79
8612.00,0.79
8611.00,0.79
8610.00,0.79
8609.00,0.79
8608.00,0.79
8607.00,0.80
8606.00,0.80
8605.00,0.80
8604.00,0.80
8603.00,0.80
8602.00,0.80
8601.00,0.80
8600.00,0.80
8599.00,0.80
8598.00,0.80
8597.00,0.80
8596.00,0.80
8595.00,0.80
8594.00,0.80
8593.00,0.80
8592.00,0.80
8591.00,0.80
8590.00,0.81
8589.00,0.81
8588.00,0.81
8587.00,0.81
8586.00,0.81
8585.00,0.81
8584.00,0.81
8583.00,0.81
8582.00,0.81
8581.00,0.81
8580.00,0.81
8579.00,0.81
8578.00,0.81
8577.00,0.81
8576.00,0.81
8575.00,0.81
8574.00,0.81
8573.00,0.81
8572.00,0.81
8571.00,0.81
8570.00,0.81
8569.00,0.81
8568.00,0.81
8567.00,0.81
8566.00,0.81
8565.00,0.81
8564.00,0.81
8563.00,0.81
8562.00,0.81
8561.00,0.81
8560.00,0.81
8559.00,0.81
8558.00,0.81
8557.00,0.81
8556.00,0.81
8555.00,0.81
8554.00,0.81
8553.00,0.81
8552.00,0.81
8551.00,0.81
8550.00,0.80
8549.00,0.80
8548.00,0.80
8547.00,0.80
8546.00,0.80
8545.00,0.80
8544.00,0.80
8543.00,0.80
8542.00,0.80
8541.00,0.80
8540.00,0.80
8539.00,0.80
8538.00,0.80
8537.00,0.80
8536.00,0.80
8535.00,0.80
8534.00,0.80
8533.00,0.80
8532.00,0.79
8531.00,0.79
8530.00,0.79
8529.00,0.79
8528.00,0.79
8527.00,0.79
8526.00,0.79
8525.00,0.79
8524.00,0.79
8523.00,0.79
8522.00,0.79
8521.00,0.79
8520.00,0.79
8519.00,0.79
8518.00,0.79
8517.00,0.79
8516.00,0.79
8515.00,0.79
8514.00,0.79
8513.00,0.79
8512.00,0.79
8511.00,0.79
8510.00,0.79
8509.00,0.79
8508.00,0.79
8507.00,0.79
8506.00,0.79
8505.00,0.80
8504.00,0.80
8503.00,0.80
8502.00,0.80
8501.00,0.80
8500.00,0.80
8499.00,0.80
8498.00,0.80
8497.00,0.80
8496.00,0.80
8495.00,0.80
8494.00,0.80
8493.00,0.80
8492.00,0.80
8491.00,0.80
8490.00,0.80
8489.00,0.81
8488.00,0.81
8487.00,0.81
8486.00,0.81
8485.00,0.81
8484.00,0.81
8483.00,0.81
8482.00,0.81
8481.00,0.81
8480.00,0.81
8479.00,0.81
8478.00,0.81
8477.00,0.81
8476.00,0.81
8475.00,0.81
8474.00,0.81
8473.00,0.81
8472.00,0.81
8471.00,0.81
8470.00,0.81
8469.00,0.81
8468.00,0.81
8467.00,0.81
8466.00,0.81
8465.00,0.81
8464.00,0.81
8463.00,0.81
8462.00,0.82
8461.00,0.82
8460.00,0.82
8459.00,0.82
8458.00,0.82
8457.00,0.82
8456.00,0.82
8455.00,0.82
8454.00,0.82
8453.00,0.82
8452.00,0.82
8451.00,0.82
8450.00,0.82
8449.00,0.82
8448.00,0.82
8447.00,0.82
8446.00,0.82
8445.00,0.82
8444.00,0.82
8443.00,0.82
8442.00,0.82
8441.00,0.82
8440.00,0.82
8439.00,0.82
8438.00,0.83
8437.00,0.83
8436.00,0.83
8435.00,0.83
8434.00,0.83
8433.00,0.83
8432.00,0.83
8431.00,0.83
8430.00,0.83
8429.00,0.83
8428.00,0.83
8427.00,0.84
8426.00,0.84
8425.00,0.84
8424.00,0.84
8423.00,0.84
8422.00,0.84
8421.00,0.84
8420.00,0.84
8419.00,0.84
8418.00,0.84
8417.00,0.84
8416.00,0.84
8415.00,0.84
8414.00,0.84
8413.00,0.84
8412.00,0.84
8411.00,0.84
8410.00,0.84
8409.00,0.84
8408.00,0.84
8407.00,0.84
8406.00,0.84
8405.00,0.84
8404.00,0.84
8403.00,0.83
8402.00,0.83
8401.00,0.83
8400.00,0.83
8399.00,0.83
8398.00,0.83
8397.00,0.83
8396.00,0.82
8395.00,0.82
8394.00,0.82
8393.00,0.82
8392.00,0.82
8391.00,0.82
8390.00,0.82
8389.00,0.81
8388.00,0.81
8387.00,0.81
8386.00,0.81
8385.00,0.81
8384.00,0.81
8383.00,0.81
8382.00,0.81
8381.00,0.81
8380.00,0.81
8379.00,0.80
8378.00,0.80
8377.00,0.80
8376.00,0.80
8375.00,0.80
8374.00,0.80
8373.00,0.80
8372.00,0.80
8371.00,0.80
8370.00,0.80
8369.00,0.80
8368.00,0.80
8367.00,0.80
8366.00,0.80
8365.00,0.80
8364.00,0.80
8363.00,0.80
8362.00,0.80
8361.00,0.80
8360.00,0.80
8359.00,0.80
8358.00,0.80
8357.00,0.80
8356.00,0.80
8355.00,0.80
8354.00,0.80
8353.00,0.80
8352.00,0.80
8351.00,0.80
8350.00,0.80
8349.00,0.80
8348.00,0.80
8347.00,0.80
8346.00,0.80
8345.00,0.80
8344.00,0.80
8343.00,0.80
8342.00,0.80
8341.00,0.80
8340.00,0.80
8339.00,0.80
8338.00,0.80
8337.00,0.80
8336.00,0.80
8335.00,0.80
8334.00,0.80
8333.00,0.80
8332.00,0.80
8331.00,0.80
8330.00,0.80
8329.00,0.80
8328.00,0.80
8327.00,0.80
8326.00,0.80
8325.00,0.80
8324.00,0.80
8323.00,0.80
8322.00,0.80
8321.00,0.80
8320.00,0.80
8319.00,0.80
8318.00,0.80
8317.00,0.80
8316.00,0.80
8315.00,0.80
8314.00,0.80
8313.00,0.80
8312.00,0.80
8311.00,0.80
8310.00,0.80
8309.00,0.80
8308.00,0.80
8307.00,0.80
8306.00,0.80
8305.00,0.80
8304.00,0.80
8303.00,0.80
8302.00,0.80
8301.00,0.80
8300.00,0.80
8299.00,0.80
8298.00,0.80
8297.00,0.80
8296.00,0.80
8295.00,0.80
8294.00,0.80
8293.00,0.80
8292.00,0.80
8291.00,0.80
8290.00,0.80
8289.00,0.80
8288.00,0.80
8287.00,0.80
8286.00,0.80
8285.00,0.80
8284.00,0.80
8283.00,0.80
8282.00,0.80
8281.00,0.80
8280.00,0.80
8279.00,0.80
8278.00,0.80
8277.00,0.80
8276.00,0.80
8275.00,0.80
8274.00,0.80
8273.00,0.80
8272.00,0.80
8271.00,0.80
8270.00,0.80
8269.00,0.80
8268.00,0.80
8267.00,0.80
8266.00,0.80
8265.00,0.80
8264.00,0.80
8263.00,0.80
8262.00,0.80
8261.00,0.80
8260.00,0.80
8259.00,0.80
8258.00,0.80
8257.00,0.80
8256.00,0.80
8255.00,0.80
8254.00,0.80
8253.00,0.80
8252.00,0.80
8251.00,0.80
8250.00,0.80
8249.00,0.80
8248.00,0.80
8247.00,0.80
8246.00,0.80
8245.00,0.80
8244.00,0.80
8243.00,0.80
8242.00,0.80
8241.00,0.80
8240.00,0.81
8239.00,0.81
8238.00,0.81
8237.00,0.81
8236.00,0.81
8235.00,0.81
8234.00,0.81
8233.00,0.81
8232.00,0.82
8231.00,0.82
8230.00,0.82
8229.00,0.82
8228.00,0.82
8227.00,0.82
8226.00,0.82
8225.00,0.83
8224.00,0.83
8223.00,0.83
8222.00,0.83
8221.00,0.83
8220.00,0.83
8219.00,0.83
8218.00,0.83
8217.00,0.83
8216.00,0.83
8215.00,0.83
8214.00,0.83
8213.00,0.83
8212.00,0.83
8211.00,0.83
8210.00,0.83
8209.00,0.83
8208.00,0.83
8207.00,0.83
8206.00,0.83
8205.00,0.83
8204.00,0.83
8203.00,0.82
8202.00,0.82
8201.00,0.82
8200.00,0.82
8199.00,0.82
8198.00,0.82
8197.00,0.82
8196.00,0.82
8195.00,0.82
8194.00,0.81
8193.00,0.81
8192.00,0.81
8191.00,0.81
8190.00,0.81
8189.00,0.81
8188.00,0.81
8187.00,0.81
8186.00,0.81
8185.00,0.81
8184.00,0.81
8183.00,0.81
8182.00,0.81
8181.00,0.81
8180.00,0.81
8179.00,0.81
8178.00,0.81
8177.00,0.81
8176.00,0.81
8175.00,0.81
8174.00,0.82
8173.00,0.82
8172.00,0.82
8171.00,0.82
8170.00,0.82
8169.00,0.82
8168.00,0.82
8167.00,0.82
8166.00,0.82
8165.00,0.82
8164.00,0.82
8163.00,0.83
8162.00,0.83
8161.00,0.83
8160.00,0.83
8159.00,0.83
8158.00,0.83
8157.00,0.83
8156.00,0.83
8155.00,0.83
8154.00,0.83
8153.00,0.83
8152.00,0.84
8151.00,0.84
8150.00,0.84
8149.00,0.84
8148.00,0.84
8147.00,0.84
8146.00,0.84
8145.00,0.84
8144.00,0.84
8143.00,0.84
8142.00,0.84
8141.00,0.84
8140.00,0.84
8139.00,0.84
8138.00,0.84
8137.00,0.84
8136.00,0.84
8135.00,0.84
8134.00,0.84
8133.00,0.84
8132.00,0.84
8131.00,0.84
8130.00,0.84
8129.00,0.84
8128.00,0.84
8127.00,0.84
8126.00,0.83
8125.00,0.83
8124.00,0.83
8123.00,0.83
8122.00,0.83
8121.00,0.83
8120.00,0.83
8119.00,0.83
8118.00,0.83
8117.00,0.83
8116.00,0.83
8115.00,0.83
8114.00,0.83
8113.00,0.83
8112.00,0.83
8111.00,0.83
8110.00,0.83
8109.00,0.83
8108.00,0.83
8107.00,0.83
8106.00,0.83
8105.00,0.83
8104.00,0.83
8103.00,0.84
8102.00,0.84
8101.00,0.84
8100.00,0.84
8099.00,0.84
8098.00,0.84
8097.00,0.84
8096.00,0.85
8095.00,0.85
8094.00,0.85
8093.00,0.85
8092.00,0.85
8091.00,0.85
8090.00,0.85
8089.00,0.85
8088.00,0.86
8087.00,0.86
8086.00,0.86
8085.00,0.86
8084.00,0.86
8083.00,0.86
8082.00,0.86
8081.00,0.86
8080.00,0.86
8079.00,0.86
8078.00,0.86
8077.00,0.86
8076.00,0.86
8075.00,0.86
8074.00,0.86
8073.00,0.86
8072.00,0.86
8071.00,0.86
8070.00,0.86
8069.00,0.86
8068.00,0.86
8067.00,0.86
8066.00,0.86
8065.00,0.85
8064.00,0.85
8063.00,0.85
8062.00,0.85
8061.00,0.85
8060.00,0.85
8059.00,0.85
8058.00,0.85
8057.00,0.85
8056.00,0.85
8055.00,0.85
8054.00,0.85
8053.00,0.85
8052.00,0.85
8051.00,0.85
8050.00,0.85
8049.00,0.85
8048.00,0.84
8047.00,0.84
8046.00,0.84
8045.00,0.84
8044.00,0.84
8043.00,0.84
8042.00,0.84
8041.00,0.84
8040.00,0.84
8039.00,0.84
8038.00,0.83
8037.00,0.83
8036.00,0.83
8035.00,0.83
8034.00,0.83
8033.00,0.83
8032.00,0.83
8031.00,0.82
8030.00,0.82
8029.00,0.82
8028.00,0.82
8027.00,0.82
8026.00,0.82
8025.00,0.82
8024.00,0.82
8023.00,0.81
8022.00,0.81
8021.00,0.81
8020.00,0.81
8019.00,0.81
8018.00,0.81
8017.00,0.81
8016.00,0.81
8015.00,0.81
8014.00,0.81
8013.00,0.81
8012.00,0.81
8011.00,0.81
8010.00,0.81
8009.00,0.81
8008.00,0.81
8007.00,0.81
8006.00,0.82
8005.00,0.82
8004.00,0.82
8003.00,0.82
8002.00,0.82
8001.00,0.82
8000.00,0.83
7999.00,0.83
7998.00,0.83
7997.00,0.84
7996.00,0.84
7995.00,0.84
7994.00,0.84
7993.00,0.85
7992.00,0.85
7991.00,0.85
7990.00,0.86
7989.00,0.86
7988.00,0.86
7987.00,0.86
7986.00,0.87
7985.00,0.87
7984.00,0.87
7983.00,0.87
7982.00,0.87
7981.00,0.88
7980.00,0.88
7979.00,0.88
7978.00,0.88
7977.00,0.88
7976.00,0.88
7975.00,0.88
7974.00,0.88
7973.00,0.88
7972.00,0.88
7971.00,0.88
7970.00,0.88
7969.00,0.88
7968.00,0.88
7967.00,0.88
7966.00,0.88
7965.00,0.88
7964.00,0.88
7963.00,0.88
7962.00,0.88
7961.00,0.88
7960.00,0.87
7959.00,0.87
7958.00,0.87
7957.00,0.87
7956.00,0.87
7955.00,0.87
7954.00,0.87
7953.00,0.87
7952.00,0.87
7951.00,0.87
7950.00,0.87
7949.00,0.86
7948.00,0.86
7947.00,0.86
7946.00,0.86
7945.00,0.86
7944.00,0.86
7943.00,0.86
7942.00,0.86
7941.00,0.86
7940.00,0.87
7939.00,0.87
7938.00,0.87
7937.00,0.87
7936.00,0.87
7935.00,0.87
7934.00,0.87
7933.00,0.87
7932.00,0.87
7931.00,0.88
7930.00,0.88
7929.00,0.88
7928.00,0.88
7927.00,0.88
7926.00,0.88
7925.00,0.89
7924.00,0.89
7923.00,0.89
7922.00,0.89
7921.00,0.89
7920.00,0.90
7919.00,0.90
7918.00,0.90
7917.00,0.90
7916.00,0.91
7915.00,0.91
7914.00,0.91
7913.00,0.91
7912.00,0.91
7911.00,0.92
7910.00,0.92
7909.00,0.92
7908.00,0.92
7907.00,0.93
7906.00,0.93
7905.00,0.93
7904.00,0.93
7903.00,0.93
7902.00,0.93
7901.00,0.94
7900.00,0.94
7899.00,0.94
7898.00,0.94
7897.00,0.94
7896.00,0.94
7895.00,0.94
7894.00,0.95
7893.00,0.95
7892.00,0.95
7891.00,0.95
7890.00,0.95
7889.00,0.95
7888.00,0.95
7887.00,0.95
7886.00,0.95
7885.00,0.95
7884.00,0.95
7883.00,0.95
7882.00,0.95
7881.00,0.95
7880.00,0.95
7879.00,0.95
7878.00,0.95
7877.00,0.95
7876.00,0.95
7875.00,0.95
7874.00,0.95
7873.00,0.95
7872.00,0.95
7871.00,0.94
7870.00,0.94
7869.00,0.94
7868.00,0.94
7867.00,0.94
7866.00,0.94
7865.00,0.94
7864.00,0.93
7863.00,0.93
7862.00,0.93
7861.00,0.93
7860.00,0.93
7859.00,0.93
7858.00,0.92
7857.00,0.92
7856.00,0.92
7855.00,0.92
7854.00,0.92
7853.00,0.92
7852.00,0.91
7851.00,0.91
7850.00,0.91
7849.00,0.91
7848.00,0.91
7847.00,0.91
7846.00,0.91
7845.00,0.90
7844.00,0.90
7843.00,0.90
7842.00,0.90
7841.00,0.90
7840.00,0.90
7839.00,0.90
7838.00,0.90
7837.00,0.90
7836.00,0.90
7835.00,0.90
7834.00,0.90
7833.00,0.90
7832.00,0.90
7831.00,0.90
7830.00,0.90
7829.00,0.90
7828.00,0.90
7827.00,0.91
7826.00,0.91
7825.00,0.91
7824.00,0.91
7823.00,0.91
7822.00,0.91
7821.00,0.91
7820.00,0.91
7819.00,0.91
7818.00,0.91
7817.00,0.91
7816.00,0.91
7815.00,0.91
7814.00,0.91
7813.00,0.91
7812.00,0.91
7811.00,0.91
7810.00,0.91
7809.00,0.91
7808.00,0.91
7807.00,0.91
7806.00,0.91
7805.00,0.91
7804.00,0.91
7803.00,0.91
7802.00,0.91
7801.00,0.91
7800.00,0.91
7799.00,0.91
7798.00,0.91
7797.00,0.91
7796.00,0.91
7795.00,0.91
7794.00,0.91
7793.00,0.91
7792.00,0.90
7791.00,0.90
7790.00,0.90
7789.00,0.90
7788.00,0.90
7787.00,0.90
7786.00,0.90
7785.00,0.90
7784.00,0.90
7783.00,0.89
7782.00,0.89
7781.00,0.89
7780.00,0.89
7779.00,0.89
7778.00,0.89
7777.00,0.89
7776.00,0.89
7775.00,0.89
7774.00,0.89
7773.00,0.89
7772.00,0.89
7771.00,0.89
7770.00,0.89
7769.00,0.89
7768.00,0.89
7767.00,0.89
7766.00,0.89
7765.00,0.89
7764.00,0.89
7763.00,0.89
7762.00,0.89
7761.00,0.89
7760.00,0.89
7759.00,0.90
7758.00,0.90
7757.00,0.90
7756.00,0.90
7755.00,0.90
7754.00,0.90
7753.00,0.90
7752.00,0.91
7751.00,0.91
7750.00,0.91
7749.00,0.91
7748.00,0.91
7747.00,0.91
7746.00,0.91
7745.00,0.92
7744.00,0.92
7743.00,0.92
7742.00,0.92
7741.00,0.92
7740.00,0.92
7739.00,0.92
7738.00,0.92
7737.00,0.93
7736.00,0.93
7735.00,0.93
7734.00,0.93
7733.00,0.93
7732.00,0.93
7731.00,0.93
7730.00,0.93
7729.00,0.93
7728.00,0.93
7727.00,0.93
7726.00,0.93
7725.00,0.93
7724.00,0.93
7723.00,0.93
7722.00,0.94
7721.00,0.94
7720.00,0.94
7719.00,0.94
7718.00,0.94
7717.00,0.94
7716.00,0.94
7715.00,0.94
7714.00,0.94
7713.00,0.94
7712.00,0.94
7711.00,0.94
7710.00,0.94
7709.00,0.94
7708.00,0.94
7707.00,0.94
7706.00,0.94
7705.00,0.94
7704.00,0.94
7703.00,0.94
7702.00,0.94
7701.00,0.94
7700.00,0.94
7699.00,0.94
7698.00,0.94
7697.00,0.94
7696.00,0.94
7695.00,0.94
7694.00,0.94
7693.00,0.94
7692.00,0.94
7691.00,0.94
7690.00,0.94
7689.00,0.94
7688.00,0.94
7687.00,0.94
7686.00,0.94
7685.00,0.94
7684.00,0.94
7683.00,0.93
7682.00,0.93
7681.00,0.93
7680.00,0.93
7679.00,0.93
7678.00,0.93
7677.00,0.92
7676.00,0.92
7675.00,0.92
7674.00,0.92
7673.00,0.91
7672.00,0.91
7671.00,0.91
7670.00,0.91
7669.00,0.91
7668.00,0.90
7667.00,0.90
7666.00,0.90
7665.00,0.90
7664.00,0.89
7663.00,0.89
7662.00,0.89
7661.00,0.89
7660.00,0.89
7659.00,0.89
7658.00,0.88
7657.00,0.88
7656.00,0.88
7655.00,0.88
7654.00,0.88
7653.00,0.88
7652.00,0.88
7651.00,0.88
7650.00,0.88
7649.00,0.88
7648.00,0.88
7647.00,0.88
7646.00,0.89
7645.00,0.89
7644.00,0.89
7643.00,0.89
7642.00,0.89
7641.00,0.90
7640.00,0.90
7639.00,0.90
7638.00,0.90
7637.00,0.90
7636.00,0.91
7635.00,0.91
7634.00,0.91
7633.00,0.91
7632.00,0.92
7631.00,0.92
7630.00,0.92
7629.00,0.92
7628.00,0.92
7627.00,0.92
7626.00,0.93
7625.00,0.93
7624.00,0.93
7623.00,0.93
7622.00,0.93
7621.00,0.93
7620.00,0.93
7619.00,0.93
7618.00,0.93
7617.00,0.93
7616.00,0.93
7615.00,0.93
7614.00,0.93
7613.00,0.93
7612.00,0.93
7611.00,0.93
7610.00,0.93
7609.00,0.93
7608.00,0.92
7607.00,0.92
7606.00,0.92
7605.00,0.92
7604.00,0.92
7603.00,0.92
7602.00,0.92
7601.00,0.92
7600.00,0.92
7599.00,0.92
7598.00,0.92
7597.00,0.92
7596.00,0.92
7595.00,0.92
7594.00,0.92
7593.00,0.92
7592.00,0.92
7591.00,0.92
7590.00,0.92
7589.00,0.92
7588.00,0.92
7587.00,0.92
7586.00,0.92
7585.00,0.92
7584.00,0.93
7583.00,0.93
7582.00,0.93
7581.00,0.93
7580.00,0.93
7579.00,0.93
7578.00,0.93
7577.00,0.93
7576.00,0.93
7575.00,0.93
7574.00,0.93
7573.00,0.94
7572.00,0.94
7571.00,0.94
7570.00,0.94
7569.00,0.94
7568.00,0.94
7567.00,0.94
7566.00,0.94
7565.00,0.94
7564.00,0.94
7563.00,0.94
7562.00,0.94
7561.00,0.94
7560.00,0.94
7559.00,0.93
7558.00,0.93
7557.00,0.93
7556.00,0.93
7555.00,0.93
7554.00,0.93
7553.00,0.93
7552.00,0.93
7551.00,0.92
7550.00,0.92
7549.00,0.92
7548.00,0.92
7547.00,0.92
7546.00,0.92
7545.00,0.91
7544.00,0.91
7543.00,0.91
7542.00,0.91
7541.00,0.91
7540.00,0.91
7539.00,0.90
7538.00,0.90
7537.00,0.90
7536.00,0.90
7535.00,0.90
7534.00,0.90
7533.00,0.89
7532.00,0.89
7531.00,0.89
7530.00,0.89
7529.00,0.89
7528.00,0.89
7527.00,0.89
7526.00,0.89
7525.00,0.89
7524.00,0.89
7523.00,0.88
7522.00,0.88
7521.00,0.88
7520.00,0.88
7519.00,0.88
7518.00,0.88
7517.00,0.88
7516.00,0.88
7515.00,0.88
7514.00,0.88
7513.00,0.88
7512.00,0.88
7511.00,0.88
7510.00,0.88
7509.00,0.88
7508.00,0.88
7507.00,0.88
7506.00,0.89
7505.00,0.89
7504.00,0.89
7503.00,0.89
7502.00,0.89
7501.00,0.89
7500.00,0.89
7499.00,0.89
7498.00,0.89
7497.00,0.89
7496.00,0.89
7495.00,0.89
7494.00,0.89
7493.00,0.89
7492.00,0.89
7491.00,0.90
7490.00,0.90
7489.00,0.90
7488.00,0.90
7487.00,0.90
7486.00,0.90
7485.00,0.90
7484.00,0.90
7483.00,0.90
7482.00,0.90
7481.00,0.90
7480.00,0.90
7479.00,0.90
7478.00,0.90
7477.00,0.90
7476.00,0.90
7475.00,0.90
7474.00,0.90
7473.00,0.90
7472.00,0.90
7471.00,0.90
7470.00,0.90
7469.00,0.90
7468.00,0.91
7467.00,0.91
7466.00,0.91
7465.00,0.91
7464.00,0.91
7463.00,0.91
7462.00,0.91
7461.00,0.91
7460.00,0.91
7459.00,0.91
7458.00,0.91
7457.00,0.91
7456.00,0.91
7455.00,0.91
7454.00,0.91
7453.00,0.91
7452.00,0.91
7451.00,0.91
7450.00,0.91
7449.00,0.91
7448.00,0.91
7447.00,0.91
7446.00,0.91
7445.00,0.91
7444.00,0.92
7443.00,0.92
7442.00,0.92
7441.00,0.92
7440.00,0.92
7439.00,0.92
7438.00,0.92
7437.00,0.92
7436.00,0.92
7435.00,0.92
7434.00,0.92
7433.00,0.92
7432.00,0.92
7431.00,0.93
7430.00,0.93
7429.00,0.93
7428.00,0.93
7427.00,0.93
7426.00,0.93
7425.00,0.93
7424.00,0.93
7423.00,0.93
7422.00,0.92
7421.00,0.92
7420.00,0.92
7419.00,0.92
7418.00,0.92
7417.00,0.92
7416.00,0.92
7415.00,0.92
7414.00,0.92
7413.00,0.91
7412.00,0.91
7411.00,0.91
7410.00,0.91
7409.00,0.90
7408.00,0.90
7407.00,0.90
7406.00,0.90
7405.00,0.89
7404.00,0.89
7403.00,0.89
7402.00,0.89
7401.00,0.88
7400.00,0.88
7399.00,0.88
7398.00,0.87
7397.00,0.87
7396.00,0.87
7395.00,0.86
7394.00,0.86
7393.00,0.86
7392.00,0.85
7391.00,0.85
7390.00,0.85
7389.00,0.84
7388.00,0.84
7387.00,0.83
7386.00,0.83
7385.00,0.83
7384.00,0.82
7383.00,0.82
7382.00,0.82
7381.00,0.82
7380.00,0.81
7379.00,0.81
7378.00,0.81
7377.00,0.80
7376.00,0.80
7375.00,0.80
7374.00,0.80
7373.00,0.79
7372.00,0.79
7371.00,0.79
7370.00,0.79
7369.00,0.79
7368.00,0.79
7367.00,0.78
7366.00,0.78
7365.00,0.78
7364.00,0.78
7363.00,0.78
7362.00,0.78
7361.00,0.78
7360.00,0.78
7359.00,0.78
7358.00,0.78
7357.00,0.78
7356.00,0.78
7355.00,0.78
7354.00,0.78
7353.00,0.78
7352.00,0.79
7351.00,0.79
7350.00,0.79
7349.00,0.79
7348.00,0.79
7347.00,0.79
7346.00,0.79
7345.00,0.80
7344.00,0.80
7343.00,0.80
7342.00,0.80
7341.00,0.80
7340.00,0.81
7339.00,0.81
7338.00,0.81
7337.00,0.81
7336.00,0.81
7335.00,0.82
7334.00,0.82
7333.00,0.82
7332.00,0.82
7331.00,0.82
7330.00,0.82
7329.00,0.82
7328.00,0.83
7327.00,0.83
7326.00,0.83
7325.00,0.83
7324.00,0.83
7323.00,0.83
7322.00,0.83
7321.00,0.83
7320.00,0.83
7319.00,0.83
7318.00,0.83
7317.00,0.84
7316.00,0.84
7315.00,0.84
7314.00,0.84
7313.00,0.84
7312.00,0.84
7311.00,0.84
7310.00,0.84
7309.00,0.84
7308.00,0.83
7307.00,0.83
7306.00,0.83
7305.00,0.83
7304.00,0.83
7303.00,0.83
7302.00,0.83
7301.00,0.83
7300.00,0.83
7299.00,0.83
7298.00,0.83
7297.00,0.83
7296.00,0.83
7295.00,0.83
7294.00,0.83
7293.00,0.83
7292.00,0.83
7291.00,0.83
7290.00,0.83
7289.00,0.83
7288.00,0.83
7287.00,0.83
7286.00,0.83
7285.00,0.83
7284.00,0.83
7283.00,0.83
7282.00,0.83
7281.00,0.83
7280.00,0.83
7279.00,0.83
7278.00,0.83
7277.00,0.83
7276.00,0.83
7275.00,0.83
7274.00,0.83
7273.00,0.83
7272.00,0.82
7271.00,0.82
7270.00,0.82
7269.00,0.82
7268.00,0.82
7267.00,0.82
7266.00,0.82
7265.00,0.82
7264.00,0.82
7263.00,0.82
7262.00,0.82
7261.00,0.82
7260.00,0.82
7259.00,0.82
7258.00,0.81
7257.00,0.81
7256.00,0.81
7255.00,0.81
7254.00,0.81
7253.00,0.81
7252.00,0.81
7251.00,0.81
7250.00,0.81
7249.00,0.80
7248.00,0.80
7247.00,0.80
7246.00,0.80
7245.00,0.80
7244.00,0.80
7243.00,0.80
7242.00,0.80
7241.00,0.80
7240.00,0.80
7239.00,0.79
7238.00,0.79
7237.00,0.79
7236.00,0.79
7235.00,0.79
7234.00,0.79
7233.00,0.79
7232.00,0.79
7231.00,0.79
7230.00,0.79
7229.00,0.79
7228.00,0.79
7227.00,0.79
7226.00,0.79
7225.00,0.79
7224.00,0.79
7223.00,0.79
7222.00,0.79
7221.00,0.79
7220.00,0.79
7219.00,0.79
7218.00,0.79
7217.00,0.79
7216.00,0.79
7215.00,0.79
7214.00,0.79
7213.00,0.79
7212.00,0.79
7211.00,0.79
7210.00,0.79
7209.00,0.79
7208.00,0.79
7207.00,0.79
7206.00,0.79
7205.00,0.79
7204.00,0.79
7203.00,0.78
7202.00,0.78
7201.00,0.78
7200.00,0.78
7199.00,0.78
7198.00,0.78
7197.00,0.77
7196.00,0.77
7195.00,0.77
7194.00,0.77
7193.00,0.76
7192.00,0.76
7191.00,0.76
7190.00,0.75
7189.00,0.75
7188.00,0.75
7187.00,0.74
7186.00,0.74
7185.00,0.74
7184.00,0.73
7183.00,0.73
7182.00,0.73
7181.00,0.72
7180.00,0.72
7179.00,0.72
7178.00,0.71
7177.00,0.71
7176.00,0.71
7175.00,0.70
7174.00,0.70
7173.00,0.70
7172.00,0.69
7171.00,0.69
7170.00,0.69
7169.00,0.69
7168.00,0.69
7167.00,0.68
7166.00,0.68
7165.00,0.68
7164.00,0.68
7163.00,0.68
7162.00,0.67
7161.00,0.67
7160.00,0.67
7159.00,0.67
7158.00,0.67
7157.00,0.67
7156.00,0.67
7155.00,0.67
7154.00,0.67
7153.00,0.67
7152.00,0.67
7151.00,0.67
7150.00,0.66
7149.00,0.66
7148.00,0.66
7147.00,0.66
7146.00,0.66
7145.00,0.66
7144.00,0.66
7143.00,0.66
7142.00,0.66
7141.00,0.66
7140.00,0.66
7139.00,0.66
7138.00,0.65
7137.00,0.65
7136.00,0.65
7135.00,0.65
7134.00,0.65
7133.00,0.65
7132.00,0.65
7131.00,0.64
7130.00,0.64
7129.00,0.64
7128.00,0.64
7127.00,0.64
7126.00,0.63
7125.00,0.63
7124.00,0.63
7123.00,0.63
7122.00,0.63
7121.00,0.62
7120.00,0.62
7119.00,0.62
7118.00,0.62
7117.00,0.62
7116.00,0.61
7115.00,0.61
7114.00,0.61
7113.00,0.61
7112.00,0.61
7111.00,0.60
7110.00,0.60
7109.00,0.60
7108.00,0.60
7107.00,0.59
7106.00,0.59
7105.00,0.59
7104.00,0.59
7103.00,0.59
7102.00,0.59
7101.00,0.58
7100.00,0.58
7099.00,0.58
7098.00,0.58
7097.00,0.58
7096.00,0.57
7095.00,0.57
7094.00,0.57
7093.00,0.57
7092.00,0.57
7091.00,0.57
7090.00,0.56
7089.00,0.56
7088.00,0.56
7087.00,0.56
7086.00,0.56
7085.00,0.56
7084.00,0.56
7083.00,0.56
7082.00,0.55
7081.00,0.55
7080.00,0.55
7079.00,0.55
7078.00,0.55
7077.00,0.55
7076.00,0.55
7075.00,0.55
7074.00,0.55
7073.00,0.54
7072.00,0.54
7071.00,0.54
7070.00,0.54
7069.00,0.54
7068.00,0.54
7067.00,0.54
7066.00,0.54
7065.00,0.54
7064.00,0.54
7063.00,0.54
7062.00,0.54
7061.00,0.54
7060.00,0.54
7059.00,0.54
7058.00,0.53
7057.00,0.53
7056.00,0.53
7055.00,0.53
7054.00,0.53
7053.00,0.53
7052.00,0.53
7051.00,0.53
7050.00,0.53
7049.00,0.53
7048.00,0.53
7047.00,0.53
7046.00,0.53
7045.00,0.53
7044.00,0.53
7043.00,0.53
7042.00,0.53
7041.00,0.53
7040.00,0.52
7039.00,0.52
7038.00,0.52
7037.00,0.52
7036.00,0.52
7035.00,0.52
7034.00,0.52
7033.00,0.52
7032.00,0.52
7031.00,0.52
7030.00,0.52
7029.00,0.52
7028.00,0.51
7027.00,0.51
7026.00,0.51
7025.00,0.51
7024.00,0.51
7023.00,0.51
7022.00,0.51
7021.00,0.51
7020.00,0.51
7019.00,0.50
7018.00,0.50
7017.00,0.50
7016.00,0.50
7015.00,0.50
7014.00,0.50
7013.00,0.50
7012.00,0.50
7011.00,0.49
7010.00,0.49
7009.00,0.49
7008.00,0.49
7007.00,0.49
7006.00,0.49
7005.00,0.49
7004.00,0.49
7003.00,0.49
7002.00,0.48
7001.00,0.48
7000.00,0.48
6999.00,0.48
6998.00,0.48
6997.00,0.48
6996.00,0.48
6995.00,0.48
6994.00,0.48
6993.00,0.48
6992.00,0.48
6991.00,0.48
6990.00,0.48
6989.00,0.48
6988.00,0.48
6987.00,0.48
6986.00,0.48
6985.00,0.48
6984.00,0.48
6983.00,0.48
6982.00,0.48
6981.00,0.48
6980.00,0.48
6979.00,0.48
6978.00,0.48
6977.00,0.48
6976.00,0.48
6975.00,0.48
6974.00,0.48
6973.00,0.48
6972.00,0.48
6971.00,0.48
6970.00,0.48
6969.00,0.48
6968.00,0.48
6967.00,0.48
6966.00,0.48
6965.00,0.48
6964.00,0.48
6963.00,0.49
6962.00,0.49
6961.00,0.49
6960.00,0.49
6959.00,0.49
6958.00,0.49
6957.00,0.49
6956.00,0.49
6955.00,0.49
6954.00,0.49
6953.00,0.49
6952.00,0.49
6951.00,0.49
6950.00,0.49
6949.00,0.49
6948.00,0.49
6947.00,0.49
6946.00,0.49
6945.00,0.49
6944.00,0.49
6943.00,0.49
6942.00,0.49
6941.00,0.49
6940.00,0.49
6939.00,0.49
6938.00,0.49
6937.00,0.49
6936.00,0.49
6935.00,0.49
6934.00,0.49
6933.00,0.49
6932.00,0.49
6931.00,0.49
6930.00,0.49
6929.00,0.49
6928.00,0.48
6927.00,0.48
6926.00,0.48
6925.00,0.48
6924.00,0.48
6923.00,0.48
6922.00,0.48
6921.00,0.48
6920.00,0.48
6919.00,0.48
6918.00,0.48
6917.00,0.48
6916.00,0.48
6915.00,0.48
6914.00,0.48
6913.00,0.48
6912.00,0.48
6911.00,0.48
6910.00,0.48
6909.00,0.48
6908.00,0.48
6907.00,0.48
6906.00,0.48
6905.00,0.48
6904.00,0.48
6903.00,0.48
6902.00,0.48
6901.00,0.48
6900.00,0.48
6899.00,0.49
6898.00,0.49
6897.00,0.49
6896.00,0.49
6895.00,0.49
6894.00,0.49
6893.00,0.49
6892.00,0.49
6891.00,0.49
6890.00,0.49
6889.00,0.49
6888.00,0.49
6887.00,0.49
6886.00,0.49
6885.00,0.50
6884.00,0.50
6883.00,0.50
6882.00,0.50
6881.00,0.50
6880.00,0.50
6879.00,0.50
6878.00,0.50
6877.00,0.50
6876.00,0.50
6875.00,0.50
6874.00,0.50
6873.00,0.50
6872.00,0.50
6871.00,0.50
6870.00,0.50
6869.00,0.50
6868.00,0.50
6867.00,0.50
6866.00,0.50
6865.00,0.50
6864.00,0.50
6863.00,0.50
6862.00,0.50
6861.00,0.50
6860.00,0.50
6859.00,0.50
6858.00,0.50
6857.00,0.50
6856.00,0.50
6855.00,0.50
6854.00,0.50
6853.00,0.50
6852.00,0.50
6851.00,0.50
6850.00,0.50
6849.00,0.50
6848.00,0.50
6847.00,0.50
6846.00,0.50
6845.00,0.50
6844.00,0.49
6843.00,0.49
6842.00,0.49
6841.00,0.49
6840.00,0.49
6839.00,0.49
6838.00,0.49
6837.00,0.49
6836.00,0.49
6835.00,0.49
6834.00,0.49
6833.00,0.49
6832.00,0.49
6831.00,0.49
6830.00,0.49
6829.00,0.49
6828.00,0.49
6827.00,0.49
6826.00,0.49
6825.00,0.49
6824.00,0.49
6823.00,0.49
6822.00,0.49
6821.00,0.49
6820.00,0.49
6819.00,0.49
6818.00,0.49
6817.00,0.49
6816.00,0.49
6815.00,0.49
6814.00,0.49
6813.00,0.49
6812.00,0.49
6811.00,0.50
6810.00,0.50
6809.00,0.50
6808.00,0.50
6807.00,0.50
6806.00,0.50
6805.00,0.50
6804.00,0.50
6803.00,0.50
6802.00,0.51
6801.00,0.51
6800.00,0.51
6799.00,0.51
6798.00,0.51
6797.00,0.51
6796.00,0.51
6795.00,0.51
6794.00,0.51
6793.00,0.51
6792.00,0.51
6791.00,0.52
6790.00,0.52
6789.00,0.52
6788.00,0.52
6787.00,0.52
6786.00,0.52
6785.00,0.52
6784.00,0.52
6783.00,0.52
6782.00,0.52
6781.00,0.52
6780.00,0.52
6779.00,0.52
6778.00,0.52
6777.00,0.52
6776.00,0.52
6775.00,0.52
6774.00,0.53
6773.00,0.53
6772.00,0.53
6771.00,0.53
6770.00,0.53
6769.00,0.53
6768.00,0.53
6767.00,0.53
6766.00,0.53
6765.00,0.53
6764.00,0.53
6763.00,0.53
6762.00,0.53
6761.00,0.53
6760.00,0.54
6759.00,0.54
6758.00,0.54
6757.00,0.54
6756.00,0.54
6755.00,0.54
6754.00,0.54
6753.00,0.54
6752.00,0.54
6751.00,0.55
6750.00,0.55
6749.00,0.55
6748.00,0.55
6747.00,0.55
6746.00,0.55
6745.00,0.55
6744.00,0.55
6743.00,0.56
6742.00,0.56
6741.00,0.56
6740.00,0.56
6739.00,0.56
6738.00,0.56
6737.00,0.56
6736.00,0.56
6735.00,0.56
6734.00,0.56
6733.00,0.56
6732.00,0.57
6731.00,0.57
6730.00,0.57
6729.00,0.57
6728.00,0.57
6727.00,0.57
6726.00,0.57
6725.00,0.57
6724.00,0.57
6723.00,0.57
6722.00,0.57
6721.00,0.57
6720.00,0.56
6719.00,0.56
6718.00,0.56
6717.00,0.56
6716.00,0.56
6715.00,0.56
6714.00,0.56
6713.00,0.56
6712.00,0.56
6711.00,0.56
6710.00,0.56
6709.00,0.56
6708.00,0.56
6707.00,0.56
6706.00,0.56
6705.00,0.56
6704.00,0.56
6703.00,0.56
6702.00,0.56
6701.00,0.55
6700.00,0.55
6699.00,0.55
6698.00,0.55
6697.00,0.55
6696.00,0.55
6695.00,0.55
6694.00,0.55
6693.00,0.55
6692.00,0.55
6691.00,0.55
6690.00,0.55
6689.00,0.55
6688.00,0.55
6687.00,0.55
6686.00,0.55
6685.00,0.55
6684.00,0.55
6683.00,0.56
6682.00,0.56
6681.00,0.56
6680.00,0.56
6679.00,0.56
6678.00,0.56
6677.00,0.56
6676.00,0.56
6675.00,0.56
6674.00,0.56
6673.00,0.56
6672.00,0.56
6671.00,0.56
6670.00,0.56
6669.00,0.56
6668.00,0.56
6667.00,0.56
6666.00,0.56
6665.00,0.56
6664.00,0.56
6663.00,0.56
6662.00,0.56
6661.00,0.56
6660.00,0.56
6659.00,0.56
6658.00,0.56
6657.00,0.56
6656.00,0.56
6655.00,0.56
6654.00,0.55
6653.00,0.55
6652.00,0.55
6651.00,0.55
6650.00,0.55
6649.00,0.55
6648.00,0.55
6647.00,0.55
6646.00,0.55
6645.00,0.55
6644.00,0.55
6643.00,0.55
6642.00,0.55
6641.00,0.55
6640.00,0.55
6639.00,0.55
6638.00,0.55
6637.00,0.55
6636.00,0.55
6635.00,0.55
6634.00,0.55
6633.00,0.55
6632.00,0.55
6631.00,0.55
6630.00,0.55
6629.00,0.55
6628.00,0.56
6627.00,0.56
6626.00,0.56
6625.00,0.56
6624.00,0.56
6623.00,0.56
6622.00,0.56
6621.00,0.56
6620.00,0.56
6619.00,0.57
6618.00,0.57
6617.00,0.57
6616.00,0.57
6615.00,0.57
6614.00,0.57
6613.00,0.57
6612.00,0.58
6611.00,0.58
6610.00,0.58
6609.00,0.58
6608.00,0.58
6607.00,0.58
6606.00,0.58
6605.00,0.59
6604.00,0.59
6603.00,0.59
6602.00,0.59
6601.00,0.59
6600.00,0.59
6599.00,0.59
6598.00,0.59
6597.00,0.60
6596.00,0.60
6595.00,0.60
6594.00,0.60
6593.00,0.60
6592.00,0.60
6591.00,0.60
6590.00,0.60
6589.00,0.60
6588.00,0.60
6587.00,0.60
6586.00,0.61
6585.00,0.61
6584.00,0.61
6583.00,0.61
6582.00,0.61
6581.00,0.61
6580.00,0.61
6579.00,0.61
6578.00,0.61
6577.00,0.61
6576.00,0.61
6575.00,0.61
6574.00,0.61
6573.00,0.61
6572.00,0.61
6571.00,0.61
6570.00,0.61
6569.00,0.61
6568.00,0.61
6567.00,0.61
6566.00,0.61
6565.00,0.61
6564.00,0.61
6563.00,0.61
6562.00,0.61
6561.00,0.61
6560.00,0.61
6559.00,0.61
6558.00,0.61
6557.00,0.61
6556.00,0.61
6555.00,0.61
6554.00,0.61
6553.00,0.61
6552.00,0.61
6551.00,0.61
6550.00,0.61
6549.00,0.62
6548.00,0.62
6547.00,0.62
6546.00,0.62
6545.00,0.62
6544.00,0.62
6543.00,0.62
6542.00,0.62
6541.00,0.62
6540.00,0.62
6539.00,0.62
6538.00,0.63
6537.00,0.63
6536.00,0.63
6535.00,0.63
6534.00,0.63
6533.00,0.63
6532.00,0.63
6531.00,0.63
6530.00,0.63
6529.00,0.64
6528.00,0.64
6527.00,0.64
6526.00,0.64
6525.00,0.64
6524.00,0.64
6523.00,0.64
6522.00,0.64
6521.00,0.64
6520.00,0.65
6519.00,0.65
6518.00,0.65
6517.00,0.65
6516.00,0.65
6515.00,0.65
6514.00,0.65
6513.00,0.65
6512.00,0.65
6511.00,0.66
6510.00,0.66
6509.00,0.66
6508.00,0.66
6507.00,0.66
6506.00,0.66
6505.00,0.66
6504.00,0.66
6503.00,0.66
6502.00,0.66
6501.00,0.67
6500.00,0.67
6499.00,0.67
6498.00,0.67
6497.00,0.67
6496.00,0.67
6495.00,0.67
6494.00,0.67
6493.00,0.67
6492.00,0.67
6491.00,0.67
6490.00,0.67
6489.00,0.67
6488.00,0.68
6487.00,0.68
6486.00,0.68
6485.00,0.68
6484.00,0.68
6483.00,0.68
6482.00,0.68
6481.00,0.68
6480.00,0.68
6479.00,0.68
6478.00,0.68
6477.00,0.68
6476.00,0.68
6475.00,0.68
6474.00,0.68
6473.00,0.67
6472.00,0.67
6471.00,0.67
6470.00,0.67
6469.00,0.67
6468.00,0.67
6467.00,0.67
6466.00,0.67
6465.00,0.67
6464.00,0.66
6463.00,0.66
6462.00,0.66
6461.00,0.66
6460.00,0.66
6459.00,0.66
6458.00,0.66
6457.00,0.66
6456.00,0.65
6455.00,0.65
6454.00,0.65
6453.00,0.65
6452.00,0.65
6451.00,0.65
6450.00,0.65
6449.00,0.65
6448.00,0.65
6447.00,0.64
6446.00,0.64
6445.00,0.64
6444.00,0.64
6443.00,0.64
6442.00,0.64
6441.00,0.64
6440.00,0.64
6439.00,0.64
6438.00,0.64
6437.00,0.64
6436.00,0.65
6435.00,0.65
6434.00,0.65
6433.00,0.65
6432.00,0.65
6431.00,0.65
6430.00,0.65
6429.00,0.65
6428.00,0.65
6427.00,0.65
6426.00,0.65
6425.00,0.66
6424.00,0.66
6423.00,0.66
6422.00,0.66
6421.00,0.66
6420.00,0.66
6419.00,0.66
6418.00,0.66
6417.00,0.67
6416.00,0.67
6415.00,0.67
6414.00,0.67
6413.00,0.67
6412.00,0.67
6411.00,0.67
6410.00,0.67
6409.00,0.68
6408.00,0.68
6407.00,0.68
6406.00,0.68
6405.00,0.68
6404.00,0.68
6403.00,0.68
6402.00,0.68
6401.00,0.68
6400.00,0.68
6399.00,0.68
6398.00,0.68
6397.00,0.68
6396.00,0.68
6395.00,0.68
6394.00,0.68
6393.00,0.69
6392.00,0.69
6391.00,0.69
6390.00,0.69
6389.00,0.69
6388.00,0.69
6387.00,0.69
6386.00,0.69
6385.00,0.69
6384.00,0.69
6383.00,0.69
6382.00,0.69
6381.00,0.69
6380.00,0.69
6379.00,0.69
6378.00,0.69
6377.00,0.69
6376.00,0.69
6375.00,0.69
6374.00,0.69
6373.00,0.69
6372.00,0.69
6371.00,0.69
6370.00,0.69
6369.00,0.69
6368.00,0.69
6367.00,0.69
6366.00,0.69
6365.00,0.69
6364.00,0.69
6363.00,0.69
6362.00,0.69
6361.00,0.69
6360.00,0.69
6359.00,0.69
6358.00,0.69
6357.00,0.69
6356.00,0.69
6355.00,0.69
6354.00,0.69
6353.00,0.69
6352.00,0.69
6351.00,0.69
6350.00,0.69
6349.00,0.69
6348.00,0.69
6347.00,0.69
6346.00,0.69
6345.00,0.69
6344.00,0.70
6343.00,0.70
6342.00,0.70
6341.00,0.70
6340.00,0.70
6339.00,0.70
6338.00,0.70
6337.00,0.70
6336.00,0.70
6335.00,0.70
6334.00,0.70
6333.00,0.70
6332.00,0.70
6331.00,0.70
6330.00,0.70
6329.00,0.70
6328.00,0.70
6327.00,0.70
6326.00,0.70
6325.00,0.71
6324.00,0.71
6323.00,0.71
6322.00,0.71
6321.00,0.71
6320.00,0.71
6319.00,0.71
6318.00,0.71
6317.00,0.71
6316.00,0.71
6315.00,0.71
6314.00,0.71
6313.00,0.71
6312.00,0.71
6311.00,0.71
6310.00,0.71
6309.00,0.71
6308.00,0.71
6307.00,0.71
6306.00,0.71
6305.00,0.71
6304.00,0.71
6303.00,0.71
6302.00,0.71
6301.00,0.71
6300.00,0.71
6299.00,0.71
6298.00,0.71
6297.00,0.71
6296.00,0.71
6295.00,0.71
6294.00,0.71
6293.00,0.71
6292.00,0.71
6291.00,0.71
6290.00,0.72
6289.00,0.72
6288.00,0.72
6287.00,0.72
6286.00,0.72
6285.00,0.72
6284.00,0.72
6283.00,0.72
6282.00,0.72
6281.00,0.73
6280.00,0.73
6279.00,0.73
6278.00,0.73
6277.00,0.73
6276.00,0.73
6275.00,0.73
6274.00,0.73
6273.00,0.73
6272.00,0.73
6271.00,0.74
6270.00,0.74
6269.00,0.74
6268.00,0.74
6267.00,0.74
6266.00,0.74
6265.00,0.74
6264.00,0.74
6263.00,0.74
6262.00,0.74
6261.00,0.74
6260.00,0.74
6259.00,0.74
6258.00,0.74
6257.00,0.74
6256.00,0.74
6255.00,0.74
6254.00,0.74
6253.00,0.74
6252.00,0.74
6251.00,0.75
6250.00,0.75
6249.00,0.75
6248.00,0.75
6247.00,0.75
6246.00,0.75
6245.00,0.75
6244.00,0.75
6243.00,0.75
6242.00,0.75
6241.00,0.75
6240.00,0.76
6239.00,0.76
6238.00,0.76
6237.00,0.76
6236.00,0.76
6235.00,0.76
6234.00,0.76
6233.00,0.76
6232.00,0.77
6231.00,0.77
6230.00,0.77
6229.00,0.77
6228.00,0.77
6227.00,0.77
6226.00,0.78
6225.00,0.78
6224.00,0.78
6223.00,0.78
6222.00,0.78
6221.00,0.78
6220.00,0.78
6219.00,0.79
6218.00,0.79
6217.00,0.79
6216.00,0.79
6215.00,0.79
6214.00,0.79
6213.00,0.79
6212.00,0.79
6211.00,0.79
6210.00,0.80
6209.00,0.80
6208.00,0.80
6207.00,0.80
6206.00,0.80
6205.00,0.80
6204.00,0.80
6203.00,0.80
6202.00,0.80
6201.00,0.80
6200.00,0.80
6199.00,0.81
6198.00,0.81
6197.00,0.81
6196.00,0.81
6195.00,0.81
6194.00,0.81
6193.00,0.81
6192.00,0.81
6191.00,0.81
6190.00,0.81
6189.00,0.81
6188.00,0.81
6187.00,0.81
6186.00,0.81
6185.00,0.81
6184.00,0.82
6183.00,0.82
6182.00,0.82
6181.00,0.82
6180.00,0.82
6179.00,0.82
6178.00,0.82
6177.00,0.82
6176.00,0.82
6175.00,0.82
6174.00,0.82
6173.00,0.82
6172.00,0.82
6171.00,0.83
6170.00,0.83
6169.00,0.83
6168.00,0.83
6167.00,0.83
6166.00,0.83
6165.00,0.83
6164.00,0.83
6163.00,0.83
6162.00,0.83
6161.00,0.83
6160.00,0.83
6159.00,0.84
6158.00,0.84
6157.00,0.84
6156.00,0.84
6155.00,0.84
6154.00,0.84
6153.00,0.84
6152.00,0.84
6151.00,0.84
6150.00,0.84
6149.00,0.84
6148.00,0.84
6147.00,0.84
6146.00,0.84
6145.00,0.85
6144.00,0.85
6143.00,0.85
6142.00,0.85
6141.00,0.85
6140.00,0.85
6139.00,0.85
6138.00,0.85
6137.00,0.85
6136.00,0.85
6135.00,0.85
6134.00,0.85
6133.00,0.85
6132.00,0.85
6131.00,0.85
6130.00,0.85
6129.00,0.85
6128.00,0.85
6127.00,0.86
6126.00,0.86
6125.00,0.86
6124.00,0.86
6123.00,0.86
6122.00,0.86
6121.00,0.86
6120.00,0.86
6119.00,0.86
6118.00,0.86
6117.00,0.86
6116.00,0.86
6115.00,0.86
6114.00,0.86
6113.00,0.86
6112.00,0.86
6111.00,0.86
6110.00,0.87
6109.00,0.87
6108.00,0.87
6107.00,0.87
6106.00,0.87
6105.00,0.87
6104.00,0.87
6103.00,0.87
6102.00,0.87
6101.00,0.87
6100.00,0.87
6099.00,0.87
6098.00,0.87
6097.00,0.87
6096.00,0.87
6095.00,0.88
6094.00,0.88
6093.00,0.88
6092.00,0.88
6091.00,0.88
6090.00,0.88
6089.00,0.88
6088.00,0.88
6087.00,0.88
6086.00,0.88
6085.00,0.88
6084.00,0.88
6083.00,0.88
6082.00,0.88
6081.00,0.88
6080.00,0.88
6079.00,0.88
6078.00,0.88
6077.00,0.88
6076.00,0.88
6075.00,0.88
6074.00,0.88
6073.00,0.88
6072.00,0.88
6071.00,0.88
6070.00,0.88
6069.00,0.88
6068.00,0.88
6067.00,0.88
6066.00,0.88
6065.00,0.88
6064.00,0.88
6063.00,0.88
6062.00,0.88
6061.00,0.88
6060.00,0.88
6059.00,0.88
6058.00,0.88
6057.00,0.88
6056.00,0.88
6055.00,0.88
6054.00,0.88
6053.00,0.88
6052.00,0.88
6051.00,0.88
6050.00,0.88
6049.00,0.88
6048.00,0.88
6047.00,0.88
6046.00,0.88
6045.00,0.88
6044.00,0.88
6043.00,0.88
6042.00,0.88
6041.00,0.88
6040.00,0.88
6039.00,0.88
6038.00,0.88
6037.00,0.88
6036.00,0.88
6035.00,0.88
6034.00,0.88
6033.00,0.88
6032.00,0.88
6031.00,0.88
6030.00,0.88
6029.00,0.88
6028.00,0.88
6027.00,0.88
6026.00,0.88
6025.00,0.88
6024.00,0.88
6023.00,0.88
6022.00,0.88
6021.00,0.88
6020.00,0.88
6019.00,0.88
6018.00,0.88
6017.00,0.88
6016.00,0.88
6015.00,0.88
6014.00,0.88
6013.00,0.88
6012.00,0.88
6011.00,0.88
6010.00,0.88
6009.00,0.88
6008.00,0.88
6007.00,0.88
6006.00,0.88
6005.00,0.88
6004.00,0.88
6003.00,0.88
6002.00,0.88
6001.00,0.88
6000.00,0.88
5999.00,0.88
5998.00,0.88
5997.00,0.88
5996.00,0.88
5995.00,0.88
5994.00,0.88
5993.00,0.88
5992.00,0.88
5991.00,0.88
5990.00,0.88
5989.00,0.88
5988.00,0.87
5987.00,0.87
5986.00,0.87
5985.00,0.87
5984.00,0.87
5983.00,0.87
5982.00,0.86
5981.00,0.86
5980.00,0.86
5979.00,0.86
5978.00,0.86
5977.00,0.85
5976.00,0.85
5975.00,0.85
5974.00,0.85
5973.00,0.84
5972.00,0.84
5971.00,0.84
5970.00,0.84
5969.00,0.83
5968.00,0.83
5967.00,0.83
5966.00,0.83
5965.00,0.82
5964.00,0.82
5963.00,0.82
5962.00,0.82
5961.00,0.81
5960.00,0.81
5959.00,0.81
5958.00,0.81
5957.00,0.80
5956.00,0.80
5955.00,0.80
5954.00,0.80
5953.00,0.80
5952.00,0.79
5951.00,0.79
5950.00,0.79
5949.00,0.79
5948.00,0.79
5947.00,0.78
5946.00,0.78
5945.00,0.78
5944.00,0.78
5943.00,0.78
5942.00,0.78
5941.00,0.78
5940.00,0.77
5939.00,0.77
5938.00,0.77
5937.00,0.77
5936.00,0.77
5935.00,0.77
5934.00,0.77
5933.00,0.77
5932.00,0.77
5931.00,0.77
5930.00,0.77
5929.00,0.77
5928.00,0.77
5927.00,0.77
5926.00,0.76
5925.00,0.76
5924.00,0.76
5923.00,0.76
5922.00,0.76
5921.00,0.76
5920.00,0.76
5919.00,0.76
5918.00,0.76
5917.00,0.76
5916.00,0.76
5915.00,0.76
5914.00,0.76
5913.00,0.76
5912.00,0.76
5911.00,0.76
5910.00,0.76
5909.00,0.76
5908.00,0.76
5907.00,0.76
5906.00,0.76
5905.00,0.76
5904.00,0.76
5903.00,0.76
5902.00,0.76
5901.00,0.76
5900.00,0.76
5899.00,0.76
5898.00,0.76
5897.00,0.76
5896.00,0.76
5895.00,0.76
5894.00,0.76
5893.00,0.76
5892.00,0.76
5891.00,0.76
5890.00,0.76
5889.00,0.76
5888.00,0.76
5887.00,0.76
5886.00,0.76
5885.00,0.76
5884.00,0.76
5883.00,0.76
5882.00,0.76
5881.00,0.76
5880.00,0.76
5879.00,0.76
5878.00,0.76
5877.00,0.76
5876.00,0.76
5875.00,0.76
5874.00,0.76
5873.00,0.76
5872.00,0.76
5871.00,0.76
5870.00,0.76
5869.00,0.77
5868.00,0.77
5867.00,0.77
5866.00,0.77
5865.00,0.77
5864.00,0.77
5863.00,0.77
5862.00,0.77
5861.00,0.77
5860.00,0.77
5859.00,0.77
5858.00,0.77
5857.00,0.77
5856.00,0.77
5855.00,0.77
5854.00,0.78
5853.00,0.78
5852.00,0.78
5851.00,0.78
5850.00,0.78
5849.00,0.78
5848.00,0.78
5847.00,0.78
5846.00,0.78
5845.00,0.78
5844.00,0.78
5843.00,0.78
5842.00,0.78
5841.00,0.78
5840.00,0.78
5839.00,0.78
5838.00,0.78
5837.00,0.79
5836.00,0.79
5835.00,0.79
5834.00,0.79
5833.00,0.79
5832.00,0.79
5831.00,0.79
5830.00,0.79
5829.00,0.79
5828.00,0.79
5827.00,0.79
5826.00,0.79
5825.00,0.79
5824.00,0.79
5823.00,0.79
5822.00,0.79
5821.00,0.79
5820.00,0.79
5819.00,0.79
5818.00,0.79
5817.00,0.79
5816.00,0.79
5815.00,0.79
5814.00,0.79
5813.00,0.79
5812.00,0.79
5811.00,0.79
5810.00,0.79
5809.00,0.79
5808.00,0.79
5807.00,0.79
5806.00,0.79
5805.00,0.78
5804.00,0.78
5803.00,0.78
5802.00,0.78
5801.00,0.78
5800.00,0.78
5799.00,0.78
5798.00,0.78
5797.00,0.78
5796.00,0.78
5795.00,0.78
5794.00,0.78
5793.00,0.78
5792.00,0.77
5791.00,0.77
5790.00,0.77
5789.00,0.77
5788.00,0.77
5787.00,0.77
5786.00,0.77
5785.00,0.77
5784.00,0.77
5783.00,0.77
5782.00,0.77
5781.00,0.77
5780.00,0.77
5779.00,0.77
5778.00,0.77
5777.00,0.77
5776.00,0.77
5775.00,0.77
5774.00,0.77
5773.00,0.77
5772.00,0.77
5771.00,0.77
5770.00,0.77
5769.00,0.77
5768.00,0.77
5767.00,0.77
5766.00,0.77
5765.00,0.77
5764.00,0.77
5763.00,0.78
5762.00,0.78
5761.00,0.78
5760.00,0.78
5759.00,0.78
5758.00,0.78
5757.00,0.78
5756.00,0.78
5755.00,0.79
5754.00,0.79
5753.00,0.79
5752.00,0.79
5751.00,0.79
5750.00,0.79
5749.00,0.79
5748.00,0.80
5747.00,0.80
5746.00,0.80
5745.00,0.80
5744.00,0.80
5743.00,0.80
5742.00,0.80
5741.00,0.81
5740.00,0.81
5739.00,0.81
5738.00,0.81
5737.00,0.81
5736.00,0.81
5735.00,0.81
5734.00,0.82
5733.00,0.82
5732.00,0.82
5731.00,0.82
5730.00,0.82
5729.00,0.82
5728.00,0.82
5727.00,0.82
5726.00,0.82
5725.00,0.83
5724.00,0.83
5723.00,0.83
5722.00,0.83
5721.00,0.83
5720.00,0.83
5719.00,0.83
5718.00,0.83
5717.00,0.83
5716.00,0.83
5715.00,0.83
5714.00,0.83
5713.00,0.83
5712.00,0.83
5711.00,0.83
5710.00,0.83
5709.00,0.83
5708.00,0.83
5707.00,0.83
5706.00,0.83
5705.00,0.83
5704.00,0.83
5703.00,0.83
5702.00,0.83
5701.00,0.83
5700.00,0.83
5699.00,0.83
5698.00,0.83
5697.00,0.83
5696.00,0.83
5695.00,0.83
5694.00,0.83
5693.00,0.83
5692.00,0.83
5691.00,0.83
5690.00,0.82
5689.00,0.82
5688.00,0.82
5687.00,0.82
5686.00,0.82
5685.00,0.82
5684.00,0.82
5683.00,0.82
5682.00,0.82
5681.00,0.82
5680.00,0.82
5679.00,0.82
5678.00,0.82
5677.00,0.82
5676.00,0.82
5675.00,0.82
5674.00,0.82
5673.00,0.82
5672.00,0.82
5671.00,0.82
5670.00,0.82
5669.00,0.82
5668.00,0.82
5667.00,0.83
5666.00,0.83
5665.00,0.83
5664.00,0.83
5663.00,0.83
5662.00,0.83
5661.00,0.83
5660.00,0.83
5659.00,0.83
5658.00,0.83
5657.00,0.84
5656.00,0.84
5655.00,0.84
5654.00,0.84
5653.00,0.84
5652.00,0.84
5651.00,0.85
5650.00,0.85
5649.00,0.85
5648.00,0.85
5647.00,0.85
5646.00,0.85
5645.00,0.86
5644.00,0.86
5643.00,0.86
5642.00,0.86
5641.00,0.86
5640.00,0.87
5639.00,0.87
5638.00,0.87
5637.00,0.87
5636.00,0.87
5635.00,0.88
5634.00,0.88
5633.00,0.88
5632.00,0.88
5631.00,0.88
5630.00,0.88
5629.00,0.88
5628.00,0.89
5627.00,0.89
5626.00,0.89
5625.00,0.89
5624.00,0.89
5623.00,0.89
5622.00,0.89
5621.00,0.89
5620.00,0.90
5619.00,0.90
5618.00,0.90
5617.00,0.90
5616.00,0.90
5615.00,0.90
5614.00,0.90
5613.00,0.90
5612.00,0.90
5611.00,0.90
5610.00,0.90
5609.00,0.90
5608.00,0.90
5607.00,0.91
5606.00,0.91
5605.00,0.91
5604.00,0.91
5603.00,0.91
5602.00,0.91
5601.00,0.91
5600.00,0.91
5599.00,0.91
5598.00,0.91
5597.00,0.91
5596.00,0.91
5595.00,0.91
5594.00,0.91
5593.00,0.91
5592.00,0.91
5591.00,0.91
5590.00,0.91
5589.00,0.91
5588.00,0.92
5587.00,0.92
5586.00,0.92
5585.00,0.92
5584.00,0.92
5583.00,0.92
5582.00,0.92
5581.00,0.92
5580.00,0.92
5579.00,0.92
5578.00,0.92
5577.00,0.92
5576.00,0.92
5575.00,0.92
5574.00,0.92
5573.00,0.92
5572.00,0.92
5571.00,0.92
5570.00,0.92
5569.00,0.92
5568.00,0.92
5567.00,0.92
5566.00,0.92
5565.00,0.92
5564.00,0.92
5563.00,0.92
5562.00,0.92
5561.00,0.92
5560.00,0.92
5559.00,0.93
5558.00,0.93
5557.00,0.93
5556.00,0.93
5555.00,0.93
5554.00,0.93
5553.00,0.93
5552.00,0.93
5551.00,0.93
5550.00,0.93
5549.00,0.93
5548.00,0.93
5547.00,0.93
5546.00,0.94
5545.00,0.94
5544.00,0.94
5543.00,0.94
5542.00,0.94
5541.00,0.94
5540.00,0.94
5539.00,0.94
5538.00,0.94
5537.00,0.94
5536.00,0.95
5535.00,0.95
5534.00,0.95
5533.00,0.95
5532.00,0.95
5531.00,0.95
5530.00,0.95
5529.00,0.95
5528.00,0.95
5527.00,0.95
5526.00,0.95
5525.00,0.95
5524.00,0.95
5523.00,0.95
5522.00,0.95
5521.00,0.95
5520.00,0.96
5519.00,0.96
5518.00,0.96
5517.00,0.96
5516.00,0.96
5515.00,0.96
5514.00,0.96
5513.00,0.96
5512.00,0.96
5511.00,0.96
5510.00,0.96
5509.00,0.96
5508.00,0.96
5507.00,0.96
5506.00,0.96
5505.00,0.96
5504.00,0.96
5503.00,0.96
5502.00,0.96
5501.00,0.96
5500.00,0.96
5499.00,0.96
5498.00,0.96
5497.00,0.96
5496.00,0.96
5495.00,0.96
5494.00,0.96
5493.00,0.96
5492.00,0.96
5491.00,0.96
5490.00,0.96
5489.00,0.96
5488.00,0.96
5487.00,0.96
5486.00,0.96
5485.00,0.96
5484.00,0.96
5483.00,0.96
5482.00,0.96
5481.00,0.96
5480.00,0.96
5479.00,0.96
5478.00,0.96
5477.00,0.96
5476.00,0.96
5475.00,0.96
5474.00,0.96
5473.00,0.96
5472.00,0.96
5471.00,0.96
5470.00,0.96
5469.00,0.96
5468.00,0.96
5467.00,0.96
5466.00,0.96
5465.00,0.96
5464.00,0.96
5463.00,0.96
5462.00,0.96
5461.00,0.96
5460.00,0.96
5459.00,0.96
5458.00,0.96
5457.00,0.96
5456.00,0.96
5455.00,0.96
5454.00,0.96
5453.00,0.96
5452.00,0.96
5451.00,0.96
5450.00,0.96
5449.00,0.96
5448.00,0.96
5447.00,0.96
5446.00,0.96
5445.00,0.96
5444.00,0.96
5443.00,0.96
5442.00,0.96
5441.00,0.96
5440.00,0.96
5439.00,0.96
5438.00,0.96
5437.00,0.96
5436.00,0.96
5435.00,0.96
5434.00,0.96
5433.00,0.96
5432.00,0.96
5431.00,0.96
5430.00,0.96
5429.00,0.96
5428.00,0.97
5427.00,0.97
5426.00,0.97
5425.00,0.97
5424.00,0.97
5423.00,0.97
5422.00,0.97
5421.00,0.97
5420.00,0.97
5419.00,0.97
5418.00,0.97
5417.00,0.97
5416.00,0.97
5415.00,0.97
5414.00,0.97
5413.00,0.97
5412.00,0.96
5411.00,0.96
5410.00,0.96
5409.00,0.96
5408.00,0.96
5407.00,0.96
5406.00,0.96
5405.00,0.96
5404.00,0.96
5403.00,0.96
5402.00,0.96
5401.00,0.96
5400.00,0.96
5399.00,0.96
5398.00,0.96
5397.00,0.96
5396.00,0.95
5395.00,0.95
5394.00,0.95
5393.00,0.95
5392.00,0.95
5391.00,0.95
5390.00,0.95
5389.00,0.95
5388.00,0.95
5387.00,0.95
5386.00,0.95
5385.00,0.94
5384.00,0.94
5383.00,0.94
5382.00,0.94
5381.00,0.94
5380.00,0.94
5379.00,0.94
5378.00,0.94
5377.00,0.93
5376.00,0.93
5375.00,0.93
5374.00,0.93
5373.00,0.93
5372.00,0.92
5371.00,0.92
5370.00,0.92
5369.00,0.92
5368.00,0.92
5367.00,0.91
5366.00,0.91
5365.00,0.91
5364.00,0.90
5363.00,0.90
5362.00,0.90
5361.00,0.89
5360.00,0.89
5359.00,0.89
5358.00,0.88
5357.00,0.88
5356.00,0.88
5355.00,0.87
5354.00,0.87
5353.00,0.86
5352.00,0.86
5351.00,0.86
5350.00,0.85
5349.00,0.85
5348.00,0.84
5347.00,0.84
5346.00,0.83
5345.00,0.83
5344.00,0.83
5343.00,0.82
5342.00,0.82
5341.00,0.81
5340.00,0.81
5339.00,0.80
5338.00,0.80
5337.00,0.79
5336.00,0.79
5335.00,0.78
5334.00,0.78
5333.00,0.77
5332.00,0.77
5331.00,0.76
5330.00,0.76
5329.00,0.75
5328.00,0.75
5327.00,0.74
5326.00,0.74
5325.00,0.73
5324.00,0.73
5323.00,0.72
5322.00,0.72
5321.00,0.71
5320.00,0.71
5319.00,0.70
5318.00,0.70
5317.00,0.69
5316.00,0.69
5315.00,0.68
5314.00,0.68
5313.00,0.67
5312.00,0.67
5311.00,0.66
5310.00,0.66
5309.00,0.65
5308.00,0.65
5307.00,0.64
5306.00,0.64
5305.00,0.64
5304.00,0.63
5303.00,0.63
5302.00,0.62
5301.00,0.62
5300.00,0.61
5299.00,0.61
5298.00,0.61
5297.00,0.60
5296.00,0.60
5295.00,0.60
5294.00,0.59
5293.00,0.59
5292.00,0.59
5291.00,0.59
5290.00,0.58
5289.00,0.58
5288.00,0.58
5287.00,0.58
5286.00,0.57
5285.00,0.57
5284.00,0.57
5283.00,0.57
5282.00,0.57
5281.00,0.57
5280.00,0.57
5279.00,0.56
5278.00,0.56
5277.00,0.56
5276.00,0.56
5275.00,0.56
5274.00,0.56
5273.00,0.56
5272.00,0.56
5271.00,0.56
5270.00,0.56
5269.00,0.56
5268.00,0.56
5267.00,0.56
5266.00,0.56
5265.00,0.56
5264.00,0.56
5263.00,0.56
5262.00,0.56
5261.00,0.56
5260.00,0.56
5259.00,0.56
5258.00,0.56
5257.00,0.55
5256.00,0.55
5255.00,0.55
5254.00,0.55
5253.00,0.55
5252.00,0.55
5251.00,0.55
5250.00,0.55
5249.00,0.55
5248.00,0.55
5247.00,0.55
5246.00,0.55
5245.00,0.55
5244.00,0.55
5243.00,0.54
5242.00,0.54
5241.00,0.54
5240.00,0.54
5239.00,0.54
5238.00,0.54
5237.00,0.54
5236.00,0.54
5235.00,0.54
5234.00,0.54
5233.00,0.54
5232.00,0.54
5231.00,0.54
5230.00,0.54
5229.00,0.54
5228.00,0.53
5227.00,0.53
5226.00,0.53
5225.00,0.53
5224.00,0.53
5223.00,0.53
5222.00,0.53
5221.00,0.53
5220.00,0.53
5219.00,0.53
5218.00,0.53
5217.00,0.53
5216.00,0.53
5215.00,0.53
5214.00,0.53
5213.00,0.53
5212.00,0.53
5211.00,0.53
5210.00,0.53
5209.00,0.54
5208.00,0.54
5207.00,0.54
5206.00,0.54
5205.00,0.54
5204.00,0.54
5203.00,0.54
5202.00,0.54
5201.00,0.54
5200.00,0.54
5199.00,0.54
5198.00,0.54
5197.00,0.54
5196.00,0.54
5195.00,0.54
5194.00,0.54
5193.00,0.54
5192.00,0.54
5191.00,0.54
5190.00,0.54
5189.00,0.54
5188.00,0.54
5187.00,0.54
5186.00,0.54
5185.00,0.54
5184.00,0.54
5183.00,0.54
5182.00,0.54
5181.00,0.54
5180.00,0.54
5179.00,0.54
5178.00,0.54
5177.00,0.54
5176.00,0.54
5175.00,0.54
5174.00,0.54
5173.00,0.54
5172.00,0.54
5171.00,0.54
5170.00,0.54
5169.00,0.54
5168.00,0.54
5167.00,0.54
5166.00,0.54
5165.00,0.54
5164.00,0.54
5163.00,0.54
5162.00,0.54
5161.00,0.54
5160.00,0.54
5159.00,0.54
5158.00,0.54
5157.00,0.54
5156.00,0.54
5155.00,0.54
5154.00,0.54
5153.00,0.54
5152.00,0.54
5151.00,0.54
5150.00,0.54
5149.00,0.54
5148.00,0.54
5147.00,0.54
5146.00,0.54
5145.00,0.54
5144.00,0.54
5143.00,0.54
5142.00,0.54
5141.00,0.54
5140.00,0.54
5139.00,0.54
5138.00,0.54
5137.00,0.54
5136.00,0.54
5135.00,0.54
5134.00,0.54
5133.00,0.54
5132.00,0.54
5131.00,0.54
5130.00,0.54
5129.00,0.54
5128.00,0.54
5127.00,0.54
5126.00,0.54
5125.00,0.54
5124.00,0.54
5123.00,0.54
5122.00,0.54
5121.00,0.54
5120.00,0.55
5119.00,0.55
5118.00,0.55
5117.00,0.55
5116.00,0.55
5115.00,0.55
5114.00,0.55
5113.00,0.55
5112.00,0.55
5111.00,0.56
5110.00,0.56
5109.00,0.56
5108.00,0.56
5107.00,0.56
5106.00,0.56
5105.00,0.56
5104.00,0.56
5103.00,0.57
5102.00,0.57
5101.00,0.57
5100.00,0.57
5099.00,0.57
5098.00,0.57
5097.00,0.57
5096.00,0.57
5095.00,0.58
5094.00,0.58
5093.00,0.58
5092.00,0.58
5091.00,0.58
5090.00,0.58
5089.00,0.58
5088.00,0.58
5087.00,0.58
5086.00,0.58
5085.00,0.58
5084.00,0.58
5083.00,0.59
5082.00,0.59
5081.00,0.59
5080.00,0.59
5079.00,0.59
5078.00,0.59
5077.00,0.59
5076.00,0.59
5075.00,0.59
5074.00,0.59
5073.00,0.59
5072.00,0.59
5071.00,0.59
5070.00,0.59
5069.00,0.59
5068.00,0.59
5067.00,0.59
5066.00,0.59
5065.00,0.59
5064.00,0.59
5063.00,0.59
5062.00,0.59
5061.00,0.59
5060.00,0.59
5059.00,0.59
5058.00,0.59
5057.00,0.59
5056.00,0.59
5055.00,0.59
5054.00,0.59
5053.00,0.59
5052.00,0.59
5051.00,0.59
5050.00,0.59
5049.00,0.59
5048.00,0.59
5047.00,0.59
5046.00,0.59
5045.00,0.59
5044.00,0.59
5043.00,0.59
5042.00,0.59
5041.00,0.59
5040.00,0.59
5039.00,0.59
5038.00,0.59
5037.00,0.59
5036.00,0.59
5035.00,0.60
5034.00,0.60
5033.00,0.60
5032.00,0.60
5031.00,0.60
5030.00,0.60
5029.00,0.60
5028.00,0.60
5027.00,0.60
5026.00,0.60
5025.00,0.60
5024.00,0.60
5023.00,0.60
5022.00,0.60
5021.00,0.60
5020.00,0.60
5019.00,0.60
5018.00,0.60
5017.00,0.60
5016.00,0.60
5015.00,0.60
5014.00,0.60
5013.00,0.60
5012.00,0.60
5011.00,0.60
5010.00,0.60
5009.00,0.60
5008.00,0.60
5007.00,0.60
5006.00,0.60
5005.00,0.61
5004.00,0.61
5003.00,0.61
5002.00,0.61
5001.00,0.61
5000.00,0.61
4999.00,0.61
4998.00,0.61
4997.00,0.61
4996.00,0.61
4995.00,0.61
4994.00,0.61
4993.00,0.62
4992.00,0.62
4991.00,0.62
4990.00,0.62
4989.00,0.62
4988.00,0.62
4987.00,0.62
4986.00,0.62
4985.00,0.62
4984.00,0.62
4983.00,0.62
4982.00,0.63
4981.00,0.63
4980.00,0.63
4979.00,0.63
4978.00,0.63
4977.00,0.63
4976.00,0.63
4975.00,0.63
4974.00,0.63
4973.00,0.63
4972.00,0.63
4971.00,0.63
4970.00,0.63
4969.00,0.63
4968.00,0.63
4967.00,0.63
4966.00,0.63
4965.00,0.63
4964.00,0.64
4963.00,0.64
4962.00,0.64
4961.00,0.64
4960.00,0.64
4959.00,0.64
4958.00,0.64
4957.00,0.64
4956.00,0.64
4955.00,0.64
4954.00,0.64
4953.00,0.64
4952.00,0.64
4951.00,0.64
4950.00,0.64
4949.00,0.64
4948.00,0.64
4947.00,0.64
4946.00,0.64
4945.00,0.64
4944.00,0.64
4943.00,0.64
4942.00,0.64
4941.00,0.64
4940.00,0.64
4939.00,0.65
4938.00,0.65
4937.00,0.65
4936.00,0.65
4935.00,0.65
4934.00,0.65
4933.00,0.65
4932.00,0.65
4931.00,0.65
4930.00,0.65
4929.00,0.65
4928.00,0.65
4927.00,0.65
4926.00,0.65
4925.00,0.65
4924.00,0.65
4923.00,0.66
4922.00,0.66
4921.00,0.66
4920.00,0.66
4919.00,0.66
4918.00,0.66
4917.00,0.66
4916.00,0.66
4915.00,0.66
4914.00,0.66
4913.00,0.66
4912.00,0.66
4911.00,0.66
4910.00,0.66
4909.00,0.67
4908.00,0.67
4907.00,0.67
4906.00,0.67
4905.00,0.67
4904.00,0.67
4903.00,0.67
4902.00,0.67
4901.00,0.67
4900.00,0.67
4899.00,0.67
4898.00,0.67
4897.00,0.67
4896.00,0.67
4895.00,0.67
4894.00,0.68
4893.00,0.68
4892.00,0.68
4891.00,0.68
4890.00,0.68
4889.00,0.68
4888.00,0.68
4887.00,0.68
4886.00,0.68
4885.00,0.68
4884.00,0.68
4883.00,0.68
4882.00,0.68
4881.00,0.68
4880.00,0.68
4879.00,0.68
4878.00,0.68
4877.00,0.68
4876.00,0.68
4875.00,0.68
4874.00,0.68
4873.00,0.68
4872.00,0.68
4871.00,0.69
4870.00,0.69
4869.00,0.69
4868.00,0.69
4867.00,0.69
4866.00,0.69
4865.00,0.69
4864.00,0.69
4863.00,0.69
4862.00,0.69
4861.00,0.69
4860.00,0.69
4859.00,0.69
4858.00,0.69
4857.00,0.69
4856.00,0.69
4855.00,0.69
4854.00,0.69
4853.00,0.69
4852.00,0.69
4851.00,0.69
4850.00,0.69
4849.00,0.69
4848.00,0.69
4847.00,0.69
4846.00,0.69
4845.00,0.69
4844.00,0.69
4843.00,0.69
4842.00,0.70
4841.00,0.70
4840.00,0.70
4839.00,0.70
4838.00,0.70
4837.00,0.70
4836.00,0.70
4835.00,0.70
4834.00,0.70
4833.00,0.70
4832.00,0.70
4831.00,0.70
4830.00,0.70
4829.00,0.70
4828.00,0.70
4827.00,0.70
4826.00,0.70
4825.00,0.70
4824.00,0.70
4823.00,0.70
4822.00,0.70
4821.00,0.70
4820.00,0.70
4819.00,0.70
4818.00,0.70
4817.00,0.70
4816.00,0.70
4815.00,0.70
4814.00,0.70
4813.00,0.70
4812.00,0.70
4811.00,0.71
4810.00,0.71
4809.00,0.71
4808.00,0.71
4807.00,0.71
4806.00,0.71
4805.00,0.71
4804.00,0.71
4803.00,0.71
4802.00,0.71
4801.00,0.71
4800.00,0.71
4799.00,0.71
4798.00,0.71
4797.00,0.71
4796.00,0.71
4795.00,0.72
4794.00,0.72
4793.00,0.72
4792.00,0.72
4791.00,0.72
4790.00,0.72
4789.00,0.72
4788.00,0.72
4787.00,0.72
4786.00,0.72
4785.00,0.73
4784.00,0.73
4783.00,0.73
4782.00,0.73
4781.00,0.73
4780.00,0.73
4779.00,0.73
4778.00,0.73
4777.00,0.74
4776.00,0.74
4775.00,0.74
4774.00,0.74
4773.00,0.74
4772.00,0.74
4771.00,0.74
4770.00,0.74
4769.00,0.74
4768.00,0.75
4767.00,0.75
4766.00,0.75
4765.00,0.75
4764.00,0.75
4763.00,0.75
4762.00,0.75
4761.00,0.75
4760.00,0.75
4759.00,0.75
4758.00,0.75
4757.00,0.75
4756.00,0.75
4755.00,0.76
4754.00,0.76
4753.00,0.76
4752.00,0.76
4751.00,0.76
4750.00,0.76
4749.00,0.76
4748.00,0.76
4747.00,0.76
4746.00,0.76
4745.00,0.76
4744.00,0.76
4743.00,0.76
4742.00,0.76
4741.00,0.76
4740.00,0.76
4739.00,0.76
4738.00,0.76
4737.00,0.76
4736.00,0.76
4735.00,0.76
4734.00,0.76
4733.00,0.76
4732.00,0.76
4731.00,0.76
4730.00,0.76
4729.00,0.76
4728.00,0.76
4727.00,0.76
4726.00,0.76
4725.00,0.76
4724.00,0.76
4723.00,0.76
4722.00,0.76
4721.00,0.76
4720.00,0.76
4719.00,0.76
4718.00,0.76
4717.00,0.76
4716.00,0.76
4715.00,0.77
4714.00,0.77
4713.00,0.77
4712.00,0.77
4711.00,0.77
4710.00,0.77
4709.00,0.77
4708.00,0.77
4707.00,0.77
4706.00,0.77
4705.00,0.77
4704.00,0.77
4703.00,0.78
4702.00,0.78
4701.00,0.78
4700.00,0.78
4699.00,0.78
4698.00,0.78
4697.00,0.78
4696.00,0.79
4695.00,0.79
4694.00,0.79
4693.00,0.79
4692.00,0.79
4691.00,0.79
4690.00,0.79
4689.00,0.79
4688.00,0.80
4687.00,0.80
4686.00,0.80
4685.00,0.80
4684.00,0.80
4683.00,0.80
4682.00,0.80
4681.00,0.80
4680.00,0.81
4679.00,0.81
4678.00,0.81
4677.00,0.81
4676.00,0.81
4675.00,0.81
4674.00,0.81
4673.00,0.81
4672.00,0.81
4671.00,0.81
4670.00,0.82
4669.00,0.82
4668.00,0.82
4667.00,0.82
4666.00,0.82
4665.00,0.82
4664.00,0.82
4663.00,0.82
4662.00,0.82
4661.00,0.82
4660.00,0.82
4659.00,0.82
4658.00,0.82
4657.00,0.82
4656.00,0.83
4655.00,0.83
4654.00,0.83
4653.00,0.83
4652.00,0.83
4651.00,0.83
4650.00,0.83
4649.00,0.83
4648.00,0.83
4647.00,0.83
4646.00,0.83
4645.00,0.83
4644.00,0.83
4643.00,0.83
4642.00,0.83
4641.00,0.83
4640.00,0.84
4639.00,0.84
4638.00,0.84
4637.00,0.84
4636.00,0.84
4635.00,0.84
4634.00,0.84
4633.00,0.84
4632.00,0.84
4631.00,0.84
4630.00,0.84
4629.00,0.84
4628.00,0.84
4627.00,0.84
4626.00,0.84
4625.00,0.84
4624.00,0.84
4623.00,0.84
4622.00,0.85
4621.00,0.85
4620.00,0.85
4619.00,0.85
4618.00,0.85
4617.00,0.85
4616.00,0.85
4615.00,0.85
4614.00,0.85
4613.00,0.85
4612.00,0.85
4611.00,0.85
4610.00,0.85
4609.00,0.85
4608.00,0.85
4607.00,0.85
4606.00,0.85
4605.00,0.85
4604.00,0.85
4603.00,0.85
4602.00,0.85
4601.00,0.86
4600.00,0.86
4599.00,0.86
4598.00,0.86
4597.00,0.86
4596.00,0.86
4595.00,0.86
4594.00,0.86
4593.00,0.86
4592.00,0.86
4591.00,0.86
4590.00,0.87
4589.00,0.87
4588.00,0.87
4587.00,0.87
4586.00,0.87
4585.00,0.87
4584.00,0.87
4583.00,0.87
4582.00,0.87
4581.00,0.88
4580.00,0.88
4579.00,0.88
4578.00,0.88
4577.00,0.88
4576.00,0.88
4575.00,0.88
4574.00,0.88
4573.00,0.88
4572.00,0.88
4571.00,0.89
4570.00,0.89
4569.00,0.89
4568.00,0.89
4567.00,0.89
4566.00,0.89
4565.00,0.89
4564.00,0.89
4563.00,0.89
4562.00,0.89
4561.00,0.89
4560.00,0.89
4559.00,0.89
4558.00,0.89
4557.00,0.89
4556.00,0.89
4555.00,0.89
4554.00,0.89
4553.00,0.89
4552.00,0.89
4551.00,0.89
4550.00,0.89
4549.00,0.89
4548.00,0.89
4547.00,0.89
4546.00,0.89
4545.00,0.89
4544.00,0.89
4543.00,0.89
4542.00,0.89
4541.00,0.89
4540.00,0.89
4539.00,0.89
4538.00,0.89
4537.00,0.89
4536.00,0.89
4535.00,0.89
4534.00,0.89
4533.00,0.89
4532.00,0.89
4531.00,0.89
4530.00,0.89
4529.00,0.89
4528.00,0.89
4527.00,0.89
4526.00,0.89
4525.00,0.89
4524.00,0.89
4523.00,0.89
4522.00,0.89
4521.00,0.89
4520.00,0.89
4519.00,0.89
4518.00,0.89
4517.00,0.89
4516.00,0.89
4515.00,0.89
4514.00,0.89
4513.00,0.89
4512.00,0.89
4511.00,0.89
4510.00,0.89
4509.00,0.89
4508.00,0.89
4507.00,0.89
4506.00,0.89
4505.00,0.89
4504.00,0.89
4503.00,0.89
4502.00,0.89
4501.00,0.89
4500.00,0.88
4499.00,0.88
4498.00,0.88
4497.00,0.88
4496.00,0.88
4495.00,0.88
4494.00,0.88
4493.00,0.88
4492.00,0.87
4491.00,0.87
4490.00,0.87
4489.00,0.87
4488.00,0.87
4487.00,0.87
4486.00,0.87
4485.00,0.86
4484.00,0.86
4483.00,0.86
4482.00,0.86
4481.00,0.86
4480.00,0.86
4479.00,0.86
4478.00,0.85
4477.00,0.85
4476.00,0.85
4475.00,0.85
4474.00,0.85
4473.00,0.85
4472.00,0.85
4471.00,0.85
4470.00,0.84
4469.00,0.84
4468.00,0.84
4467.00,0.84
4466.00,0.84
4465.00,0.84
4464.00,0.84
4463.00,0.84
4462.00,0.84
4461.00,0.83
4460.00,0.83
4459.00,0.83
4458.00,0.83
4457.00,0.83
4456.00,0.83
4455.00,0.83
4454.00,0.83
4453.00,0.82
4452.00,0.82
4451.00,0.82
4450.00,0.82
4449.00,0.82
4448.00,0.82
4447.00,0.82
4446.00,0.81
4445.00,0.81
4444.00,0.81
4443.00,0.81
4442.00,0.81
4441.00,0.81
4440.00,0.80
4439.00,0.80
4438.00,0.80
4437.00,0.80
4436.00,0.80
4435.00,0.80
4434.00,0.79
4433.00,0.79
4432.00,0.79
4431.00,0.79
4430.00,0.79
4429.00,0.79
4428.00,0.79
4427.00,0.78
4426.00,0.78
4425.00,0.78
4424.00,0.78
4423.00,0.78
4422.00,0.78
4421.00,0.78
4420.00,0.78
4419.00,0.78
4418.00,0.78
4417.00,0.78
4416.00,0.78
4415.00,0.78
4414.00,0.78
4413.00,0.78
4412.00,0.78
4411.00,0.78
4410.00,0.78
4409.00,0.78
4408.00,0.78
4407.00,0.78
4406.00,0.78
4405.00,0.78
4404.00,0.79
4403.00,0.79
4402.00,0.79
4401.00,0.79
4400.00,0.79
4399.00,0.79
4398.00,0.79
4397.00,0.79
4396.00,0.79
4395.00,0.79
4394.00,0.79
4393.00,0.79
4392.00,0.79
4391.00,0.79
4390.00,0.79
4389.00,0.79
4388.00,0.79
4387.00,0.79
4386.00,0.79
4385.00,0.79
4384.00,0.79
4383.00,0.79
4382.00,0.79
4381.00,0.79
4380.00,0.79
4379.00,0.79
4378.00,0.79
4377.00,0.79
4376.00,0.79
4375.00,0.79
4374.00,0.79
4373.00,0.79
4372.00,0.79
4371.00,0.79
4370.00,0.79
4369.00,0.79
4368.00,0.79
4367.00,0.79
4366.00,0.79
4365.00,0.79
4364.00,0.79
4363.00,0.79
4362.00,0.79
4361.00,0.79
4360.00,0.79
4359.00,0.79
4358.00,0.79
4357.00,0.79
4356.00,0.79
4355.00,0.79
4354.00,0.79
4353.00,0.79
4352.00,0.79
4351.00,0.79
4350.00,0.79
4349.00,0.79
4348.00,0.79
4347.00,0.79
4346.00,0.79
4345.00,0.79
4344.00,0.79
4343.00,0.79
4342.00,0.79
4341.00,0.79
4340.00,0.79
4339.00,0.79
4338.00,0.79
4337.00,0.79
4336.00,0.79
4335.00,0.79
4334.00,0.79
4333.00,0.79
4332.00,0.79
4331.00,0.78
4330.00,0.78
4329.00,0.78
4328.00,0.78
4327.00,0.78
4326.00,0.78
4325.00,0.78
4324.00,0.78
4323.00,0.78
4322.00,0.78
4321.00,0.78
4320.00,0.78
4319.00,0.78
4318.00,0.77
4317.00,0.77
4316.00,0.77
4315.00,0.77
4314.00,0.77
4313.00,0.77
4312.00,0.77
4311.00,0.77
4310.00,0.77
4309.00,0.77
4308.00,0.77
4307.00,0.77
4306.00,0.77
4305.00,0.77
4304.00,0.78
4303.00,0.78
4302.00,0.78
4301.00,0.78
4300.00,0.78
4299.00,0.78
4298.00,0.78
4297.00,0.78
4296.00,0.78
4295.00,0.78
4294.00,0.79
4293.00,0.79
4292.00,0.79
4291.00,0.79
4290.00,0.79
4289.00,0.79
4288.00,0.79
4287.00,0.79
4286.00,0.80
4285.00,0.80
4284.00,0.80
4283.00,0.80
4282.00,0.80
4281.00,0.80
4280.00,0.80
4279.00,0.80
4278.00,0.81
4277.00,0.81
4276.00,0.81
4275.00,0.81
4274.00,0.81
4273.00,0.81
4272.00,0.81
4271.00,0.81
4270.00,0.81
4269.00,0.81
4268.00,0.81
4267.00,0.81
4266.00,0.81
4265.00,0.81
4264.00,0.81
4263.00,0.81
4262.00,0.81
4261.00,0.81
4260.00,0.81
4259.00,0.82
4258.00,0.82
4257.00,0.82
4256.00,0.82
4255.00,0.82
4254.00,0.82
4253.00,0.82
4252.00,0.82
4251.00,0.82
4250.00,0.82
4249.00,0.82
4248.00,0.82
4247.00,0.82
4246.00,0.82
4245.00,0.82
4244.00,0.82
4243.00,0.82
4242.00,0.82
4241.00,0.82
4240.00,0.82
4239.00,0.82
4238.00,0.82
4237.00,0.82
4236.00,0.82
4235.00,0.82
4234.00,0.82
4233.00,0.82
4232.00,0.83
4231.00,0.83
4230.00,0.83
4229.00,0.83
4228.00,0.83
4227.00,0.83
4226.00,0.83
4225.00,0.83
4224.00,0.83
4223.00,0.84
4222.00,0.84
4221.00,0.84
4220.00,0.84
4219.00,0.84
4218.00,0.84
4217.00,0.84
4216.00,0.84
4215.00,0.85
4214.00,0.85
4213.00,0.85
4212.00,0.85
4211.00,0.85
4210.00,0.85
4209.00,0.85
4208.00,0.85
4207.00,0.85
4206.00,0.85
4205.00,0.86
4204.00,0.86
4203.00,0.86
4202.00,0.86
4201.00,0.86
4200.00,0.86
4199.00,0.86
4198.00,0.86
4197.00,0.86
4196.00,0.86
4195.00,0.86
4194.00,0.86
4193.00,0.86
4192.00,0.86
4191.00,0.86
4190.00,0.86
4189.00,0.86
4188.00,0.86
4187.00,0.86
4186.00,0.86
4185.00,0.86
4184.00,0.86
4183.00,0.86
4182.00,0.86
4181.00,0.86
4180.00,0.86
4179.00,0.86
4178.00,0.86
4177.00,0.86
4176.00,0.86
4175.00,0.86
4174.00,0.86
4173.00,0.86
4172.00,0.86
4171.00,0.86
4170.00,0.86
4169.00,0.86
4168.00,0.86
4167.00,0.86
4166.00,0.86
4165.00,0.86
4164.00,0.86
4163.00,0.86
4162.00,0.86
4161.00,0.86
4160.00,0.86
4159.00,0.86
4158.00,0.86
4157.00,0.86
4156.00,0.86
4155.00,0.86
4154.00,0.86
4153.00,0.86
4152.00,0.86
4151.00,0.86
4150.00,0.86
4149.00,0.86
4148.00,0.86
4147.00,0.86
4146.00,0.86
4145.00,0.86
4144.00,0.86
4143.00,0.86
4142.00,0.86
4141.00,0.86
4140.00,0.86
4139.00,0.86
4138.00,0.86
4137.00,0.86
4136.00,0.85
4135.00,0.85
4134.00,0.85
4133.00,0.85
4132.00,0.85
4131.00,0.85
4130.00,0.85
4129.00,0.85
4128.00,0.85
4127.00,0.85
4126.00,0.85
4125.00,0.85
4124.00,0.85
4123.00,0.85
4122.00,0.85
4121.00,0.85
4120.00,0.85
4119.00,0.85
4118.00,0.85
4117.00,0.85
4116.00,0.85
4115.00,0.85
4114.00,0.85
4113.00,0.85
4112.00,0.85
4111.00,0.85
4110.00,0.85
4109.00,0.85
4108.00,0.85
4107.00,0.85
4106.00,0.85
4105.00,0.86
4104.00,0.86
4103.00,0.86
4102.00,0.86
4101.00,0.86
4100.00,0.86
4099.00,0.86
4098.00,0.86
4097.00,0.87
4096.00,0.87
4095.00,0.87
4094.00,0.87
4093.00,0.87
4092.00,0.87
4091.00,0.88
4090.00,0.88
4089.00,0.88
4088.00,0.88
4087.00,0.88
4086.00,0.88
4085.00,0.88
4084.00,0.89
4083.00,0.89
4082.00,0.89
4081.00,0.89
4080.00,0.89
4079.00,0.89
4078.00,0.89
4077.00,0.89
4076.00,0.90
4075.00,0.90
4074.00,0.90
4073.00,0.90
4072.00,0.90
4071.00,0.90
4070.00,0.90
4069.00,0.90
4068.00,0.90
4067.00,0.90
4066.00,0.90
4065.00,0.90
4064.00,0.90
4063.00,0.90
4062.00,0.90
4061.00,0.90
4060.00,0.90
4059.00,0.90
4058.00,0.90
4057.00,0.90
4056.00,0.90
4055.00,0.90
4054.00,0.90
4053.00,0.90
4052.00,0.90
4051.00,0.90
4050.00,0.90
4049.00,0.90
4048.00,0.90
4047.00,0.90
4046.00,0.90
4045.00,0.90
4044.00,0.90
4043.00,0.90
4042.00,0.90
4041.00,0.90
4040.00,0.90
4039.00,0.90
4038.00,0.90
4037.00,0.90
4036.00,0.90
4035.00,0.90
4034.00,0.90
4033.00,0.90
4032.00,0.91
4031.00,0.91
4030.00,0.91
4029.00,0.91
4028.00,0.91
4027.00,0.91
4026.00,0.91
4025.00,0.91
4024.00,0.92
4023.00,0.92
4022.00,0.92
4021.00,0.92
4020.00,0.92
4019.00,0.92
4018.00,0.93
4017.00,0.93
4016.00,0.93
4015.00,0.93
4014.00,0.94
4013.00,0.94
4012.00,0.94
4011.00,0.94
4010.00,0.95
4009.00,0.95
4008.00,0.95
4007.00,0.96
4006.00,0.96
4005.00,0.96
4004.00,0.96
4003.00,0.97
4002.00,0.97
4001.00,0.97
4000.00,0.98
