创建为新数据集,样品 380 用户 Administrator 日期 星期日, 七月 28 2019
cm-1,%T
10000.00,2.71
9999.00,2.66
9998.00,2.61
9997.00,2.55
9996.00,2.50
9995.00,2.46
9994.00,2.41
9993.00,2.37
9992.00,2.33
9991.00,2.29
9990.00,2.26
9989.00,2.23
9988.00,2.20
9987.00,2.18
9986.00,2.16
9985.00,2.13
9984.00,2.11
9983.00,2.10
9982.00,2.08
9981.00,2.06
9980.00,2.05
9979.00,2.04
9978.00,2.03
9977.00,2.02
9976.00,2.02
9975.00,2.01
9974.00,2.01
9973.00,2.00
9972.00,2.00
9971.00,1.99
9970.00,1.98
9969.00,1.97
9968.00,1.96
9967.00,1.95
9966.00,1.93
9965.00,1.92
9964.00,1.90
9963.00,1.88
9962.00,1.86
9961.00,1.84
9960.00,1.82
9959.00,1.80
9958.00,1.78
9957.00,1.75
9956.00,1.73
9955.00,1.71
9954.00,1.69
9953.00,1.68
9952.00,1.66
9951.00,1.64
9950.00,1.62
9949.00,1.61
9948.00,1.59
9947.00,1.58
9946.00,1.57
9945.00,1.56
9944.00,1.55
9943.00,1.54
9942.00,1.54
9941.00,1.53
9940.00,1.53
9939.00,1.53
9938.00,1.53
9937.00,1.54
9936.00,1.54
9935.00,1.55
9934.00,1.55
9933.00,1.56
9932.00,1.57
9931.00,1.58
9930.00,1.59
9929.00,1.60
9928.00,1.61
9927.00,1.63
9926.00,1.64
9925.00,1.65
9924.00,1.66
9923.00,1.68
9922.00,1.69
9921.00,1.70
9920.00,1.71
9919.00,1.72
9918.00,1.73
9917.00,1.74
9916.00,1.75
9915.00,1.76
9914.00,1.76
9913.00,1.77
9912.00,1.78
9911.00,1.78
9910.00,1.79
9909.00,1.79
9908.00,1.79
9907.00,1.79
9906.00,1.79
9905.00,1.79
9904.00,1.79
9903.00,1.79
9902.00,1.78
9901.00,1.78
9900.00,1.77
9899.00,1.77
9898.00,1.76
9897.00,1.75
9896.00,1.75
9895.00,1.74
9894.00,1.73
9893.00,1.72
9892.00,1.71
9891.00,1.70
9890.00,1.69
9889.00,1.68
9888.00,1.67
9887.00,1.65
9886.00,1.64
9885.00,1.63
9884.00,1.61
9883.00,1.60
9882.00,1.59
9881.00,1.58
9880.00,1.57
9879.00,1.55
9878.00,1.54
9877.00,1.53
9876.00,1.52
9875.00,1.51
9874.00,1.51
9873.00,1.50
9872.00,1.49
9871.00,1.48
9870.00,1.47
9869.00,1.46
9868.00,1.45
9867.00,1.44
9866.00,1.44
9865.00,1.43
9864.00,1.43
9863.00,1.43
9862.00,1.43
9861.00,1.43
9860.00,1.43
9859.00,1.43
9858.00,1.43
9857.00,1.44
9856.00,1.44
9855.00,1.44
9854.00,1.45
9853.00,1.45
9852.00,1.45
9851.00,1.46
9850.00,1.46
9849.00,1.46
9848.00,1.46
9847.00,1.46
9846.00,1.47
9845.00,1.47
9844.00,1.48
9843.00,1.48
9842.00,1.49
9841.00,1.49
9840.00,1.50
9839.00,1.51
9838.00,1.51
9837.00,1.52
9836.00,1.53
9835.00,1.53
9834.00,1.54
9833.00,1.54
9832.00,1.55
9831.00,1.55
9830.00,1.55
9829.00,1.56
9828.00,1.56
9827.00,1.56
9826.00,1.57
9825.00,1.57
9824.00,1.58
9823.00,1.58
9822.00,1.59
9821.00,1.60
9820.00,1.60
9819.00,1.61
9818.00,1.61
9817.00,1.62
9816.00,1.62
9815.00,1.62
9814.00,1.62
9813.00,1.61
9812.00,1.61
9811.00,1.60
9810.00,1.60
9809.00,1.59
9808.00,1.58
9807.00,1.57
9806.00,1.56
9805.00,1.55
9804.00,1.54
9803.00,1.53
9802.00,1.53
9801.00,1.52
9800.00,1.51
9799.00,1.50
9798.00,1.49
9797.00,1.48
9796.00,1.47
9795.00,1.46
9794.00,1.44
9793.00,1.43
9792.00,1.42
9791.00,1.41
9790.00,1.40
9789.00,1.39
9788.00,1.39
9787.00,1.38
9786.00,1.38
9785.00,1.38
9784.00,1.38
9783.00,1.38
9782.00,1.38
9781.00,1.39
9780.00,1.39
9779.00,1.40
9778.00,1.41
9777.00,1.42
9776.00,1.42
9775.00,1.43
9774.00,1.44
9773.00,1.45
9772.00,1.45
9771.00,1.46
9770.00,1.47
9769.00,1.48
9768.00,1.49
9767.00,1.50
9766.00,1.50
9765.00,1.51
9764.00,1.52
9763.00,1.53
9762.00,1.53
9761.00,1.54
9760.00,1.54
9759.00,1.55
9758.00,1.55
9757.00,1.55
9756.00,1.56
9755.00,1.56
9754.00,1.56
9753.00,1.56
9752.00,1.56
9751.00,1.56
9750.00,1.56
9749.00,1.56
9748.00,1.57
9747.00,1.57
9746.00,1.57
9745.00,1.57
9744.00,1.58
9743.00,1.58
9742.00,1.58
9741.00,1.59
9740.00,1.60
9739.00,1.60
9738.00,1.61
9737.00,1.62
9736.00,1.62
9735.00,1.63
9734.00,1.64
9733.00,1.65
9732.00,1.66
9731.00,1.67
9730.00,1.68
9729.00,1.68
9728.00,1.69
9727.00,1.70
9726.00,1.71
9725.00,1.71
9724.00,1.72
9723.00,1.73
9722.00,1.73
9721.00,1.74
9720.00,1.74
9719.00,1.75
9718.00,1.75
9717.00,1.75
9716.00,1.75
9715.00,1.75
9714.00,1.76
9713.00,1.76
9712.00,1.76
9711.00,1.75
9710.00,1.75
9709.00,1.75
9708.00,1.75
9707.00,1.74
9706.00,1.74
9705.00,1.74
9704.00,1.74
9703.00,1.73
9702.00,1.73
9701.00,1.73
9700.00,1.72
9699.00,1.72
9698.00,1.72
9697.00,1.71
9696.00,1.71
9695.00,1.71
9694.00,1.70
9693.00,1.70
9692.00,1.69
9691.00,1.69
9690.00,1.68
9689.00,1.68
9688.00,1.68
9687.00,1.67
9686.00,1.67
9685.00,1.67
9684.00,1.67
9683.00,1.67
9682.00,1.66
9681.00,1.66
9680.00,1.66
9679.00,1.66
9678.00,1.66
9677.00,1.66
9676.00,1.66
9675.00,1.66
9674.00,1.66
9673.00,1.65
9672.00,1.65
9671.00,1.65
9670.00,1.65
9669.00,1.65
9668.00,1.65
9667.00,1.65
9666.00,1.65
9665.00,1.65
9664.00,1.65
9663.00,1.66
9662.00,1.66
9661.00,1.66
9660.00,1.66
9659.00,1.66
9658.00,1.65
9657.00,1.65
9656.00,1.65
9655.00,1.65
9654.00,1.65
9653.00,1.65
9652.00,1.65
9651.00,1.65
9650.00,1.65
9649.00,1.65
9648.00,1.65
9647.00,1.65
9646.00,1.65
9645.00,1.66
9644.00,1.66
9643.00,1.66
9642.00,1.66
9641.00,1.66
9640.00,1.66
9639.00,1.66
9638.00,1.66
9637.00,1.66
9636.00,1.65
9635.00,1.65
9634.00,1.65
9633.00,1.65
9632.00,1.64
9631.00,1.64
9630.00,1.64
9629.00,1.63
9628.00,1.63
9627.00,1.62
9626.00,1.62
9625.00,1.61
9624.00,1.61
9623.00,1.60
9622.00,1.59
9621.00,1.58
9620.00,1.58
9619.00,1.57
9618.00,1.56
9617.00,1.55
9616.00,1.55
9615.00,1.54
9614.00,1.54
9613.00,1.53
9612.00,1.53
9611.00,1.52
9610.00,1.52
9609.00,1.52
9608.00,1.51
9607.00,1.51
9606.00,1.51
9605.00,1.51
9604.00,1.50
9603.00,1.50
9602.00,1.50
9601.00,1.50
9600.00,1.49
9599.00,1.49
9598.00,1.49
9597.00,1.49
9596.00,1.49
9595.00,1.49
9594.00,1.49
9593.00,1.48
9592.00,1.48
9591.00,1.48
9590.00,1.48
9589.00,1.48
9588.00,1.48
9587.00,1.48
9586.00,1.47
9585.00,1.47
9584.00,1.47
9583.00,1.46
9582.00,1.46
9581.00,1.46
9580.00,1.45
9579.00,1.45
9578.00,1.45
9577.00,1.44
9576.00,1.44
9575.00,1.44
9574.00,1.44
9573.00,1.43
9572.00,1.43
9571.00,1.43
9570.00,1.43
9569.00,1.43
9568.00,1.42
9567.00,1.42
9566.00,1.42
9565.00,1.42
9564.00,1.41
9563.00,1.41
9562.00,1.41
9561.00,1.41
9560.00,1.41
9559.00,1.41
9558.00,1.41
9557.00,1.42
9556.00,1.42
9555.00,1.43
9554.00,1.43
9553.00,1.44
9552.00,1.44
9551.00,1.45
9550.00,1.46
9549.00,1.46
9548.00,1.47
9547.00,1.48
9546.00,1.49
9545.00,1.49
9544.00,1.50
9543.00,1.51
9542.00,1.53
9541.00,1.54
9540.00,1.55
9539.00,1.56
9538.00,1.57
9537.00,1.58
9536.00,1.59
9535.00,1.60
9534.00,1.61
9533.00,1.62
9532.00,1.63
9531.00,1.64
9530.00,1.65
9529.00,1.66
9528.00,1.66
9527.00,1.67
9526.00,1.67
9525.00,1.68
9524.00,1.68
9523.00,1.68
9522.00,1.68
9521.00,1.68
9520.00,1.68
9519.00,1.68
9518.00,1.68
9517.00,1.68
9516.00,1.68
9515.00,1.67
9514.00,1.67
9513.00,1.66
9512.00,1.66
9511.00,1.65
9510.00,1.65
9509.00,1.64
9508.00,1.63
9507.00,1.63
9506.00,1.62
9505.00,1.61
9504.00,1.61
9503.00,1.60
9502.00,1.60
9501.00,1.59
9500.00,1.58
9499.00,1.58
9498.00,1.57
9497.00,1.57
9496.00,1.57
9495.00,1.56
9494.00,1.56
9493.00,1.56
9492.00,1.56
9491.00,1.56
9490.00,1.56
9489.00,1.56
9488.00,1.56
9487.00,1.56
9486.00,1.56
9485.00,1.57
9484.00,1.57
9483.00,1.57
9482.00,1.58
9481.00,1.58
9480.00,1.58
9479.00,1.59
9478.00,1.59
9477.00,1.60
9476.00,1.60
9475.00,1.61
9474.00,1.61
9473.00,1.62
9472.00,1.62
9471.00,1.63
9470.00,1.63
9469.00,1.63
9468.00,1.64
9467.00,1.64
9466.00,1.64
9465.00,1.64
9464.00,1.64
9463.00,1.64
9462.00,1.63
9461.00,1.63
9460.00,1.63
9459.00,1.63
9458.00,1.63
9457.00,1.62
9456.00,1.62
9455.00,1.62
9454.00,1.62
9453.00,1.61
9452.00,1.61
9451.00,1.61
9450.00,1.60
9449.00,1.60
9448.00,1.59
9447.00,1.59
9446.00,1.59
9445.00,1.59
9444.00,1.58
9443.00,1.58
9442.00,1.58
9441.00,1.58
9440.00,1.58
9439.00,1.59
9438.00,1.59
9437.00,1.59
9436.00,1.60
9435.00,1.60
9434.00,1.60
9433.00,1.60
9432.00,1.61
9431.00,1.61
9430.00,1.61
9429.00,1.61
9428.00,1.61
9427.00,1.61
9426.00,1.61
9425.00,1.61
9424.00,1.61
9423.00,1.62
9422.00,1.62
9421.00,1.62
9420.00,1.62
9419.00,1.62
9418.00,1.62
9417.00,1.61
9416.00,1.61
9415.00,1.61
9414.00,1.61
9413.00,1.60
9412.00,1.60
9411.00,1.60
9410.00,1.59
9409.00,1.59
9408.00,1.59
9407.00,1.58
9406.00,1.58
9405.00,1.58
9404.00,1.58
9403.00,1.58
9402.00,1.59
9401.00,1.59
9400.00,1.59
9399.00,1.59
9398.00,1.60
9397.00,1.60
9396.00,1.61
9395.00,1.61
9394.00,1.61
9393.00,1.62
9392.00,1.63
9391.00,1.63
9390.00,1.64
9389.00,1.65
9388.00,1.66
9387.00,1.66
9386.00,1.67
9385.00,1.68
9384.00,1.69
9383.00,1.69
9382.00,1.70
9381.00,1.71
9380.00,1.71
9379.00,1.72
9378.00,1.72
9377.00,1.73
9376.00,1.73
9375.00,1.73
9374.00,1.73
9373.00,1.73
9372.00,1.73
9371.00,1.73
9370.00,1.73
9369.00,1.72
9368.00,1.72
9367.00,1.72
9366.00,1.71
9365.00,1.70
9364.00,1.70
9363.00,1.69
9362.00,1.68
9361.00,1.67
9360.00,1.66
9359.00,1.65
9358.00,1.64
9357.00,1.63
9356.00,1.62
9355.00,1.61
9354.00,1.60
9353.00,1.59
9352.00,1.58
9351.00,1.57
9350.00,1.56
9349.00,1.55
9348.00,1.54
9347.00,1.54
9346.00,1.53
9345.00,1.52
9344.00,1.52
9343.00,1.51
9342.00,1.51
9341.00,1.50
9340.00,1.50
9339.00,1.49
9338.00,1.49
9337.00,1.49
9336.00,1.49
9335.00,1.49
9334.00,1.49
9333.00,1.49
9332.00,1.49
9331.00,1.50
9330.00,1.50
9329.00,1.50
9328.00,1.51
9327.00,1.51
9326.00,1.51
9325.00,1.51
9324.00,1.51
9323.00,1.52
9322.00,1.52
9321.00,1.52
9320.00,1.52
9319.00,1.53
9318.00,1.53
9317.00,1.53
9316.00,1.53
9315.00,1.54
9314.00,1.54
9313.00,1.54
9312.00,1.54
9311.00,1.54
9310.00,1.54
9309.00,1.54
9308.00,1.54
9307.00,1.54
9306.00,1.54
9305.00,1.54
9304.00,1.54
9303.00,1.53
9302.00,1.53
9301.00,1.53
9300.00,1.53
9299.00,1.53
9298.00,1.53
9297.00,1.53
9296.00,1.53
9295.00,1.54
9294.00,1.54
9293.00,1.54
9292.00,1.54
9291.00,1.55
9290.00,1.55
9289.00,1.55
9288.00,1.56
9287.00,1.56
9286.00,1.57
9285.00,1.57
9284.00,1.58
9283.00,1.58
9282.00,1.59
9281.00,1.59
9280.00,1.60
9279.00,1.61
9278.00,1.62
9277.00,1.62
9276.00,1.63
9275.00,1.64
9274.00,1.64
9273.00,1.65
9272.00,1.66
9271.00,1.66
9270.00,1.67
9269.00,1.67
9268.00,1.67
9267.00,1.68
9266.00,1.68
9265.00,1.68
9264.00,1.69
9263.00,1.69
9262.00,1.69
9261.00,1.70
9260.00,1.70
9259.00,1.70
9258.00,1.70
9257.00,1.70
9256.00,1.71
9255.00,1.71
9254.00,1.71
9253.00,1.71
9252.00,1.71
9251.00,1.71
9250.00,1.71
9249.00,1.71
9248.00,1.71
9247.00,1.71
9246.00,1.71
9245.00,1.71
9244.00,1.71
9243.00,1.71
9242.00,1.71
9241.00,1.71
9240.00,1.71
9239.00,1.71
9238.00,1.71
9237.00,1.70
9236.00,1.70
9235.00,1.70
9234.00,1.70
9233.00,1.69
9232.00,1.69
9231.00,1.69
9230.00,1.69
9229.00,1.69
9228.00,1.69
9227.00,1.69
9226.00,1.69
9225.00,1.69
9224.00,1.69
9223.00,1.69
9222.00,1.69
9221.00,1.69
9220.00,1.69
9219.00,1.68
9218.00,1.68
9217.00,1.68
9216.00,1.67
9215.00,1.67
9214.00,1.66
9213.00,1.66
9212.00,1.65
9211.00,1.65
9210.00,1.65
9209.00,1.64
9208.00,1.64
9207.00,1.64
9206.00,1.63
9205.00,1.63
9204.00,1.62
9203.00,1.61
9202.00,1.60
9201.00,1.59
9200.00,1.58
9199.00,1.57
9198.00,1.56
9197.00,1.55
9196.00,1.54
9195.00,1.53
9194.00,1.53
9193.00,1.52
9192.00,1.51
9191.00,1.51
9190.00,1.51
9189.00,1.50
9188.00,1.50
9187.00,1.50
9186.00,1.49
9185.00,1.49
9184.00,1.49
9183.00,1.49
9182.00,1.49
9181.00,1.49
9180.00,1.49
9179.00,1.49
9178.00,1.50
9177.00,1.50
9176.00,1.51
9175.00,1.52
9174.00,1.52
9173.00,1.53
9172.00,1.54
9171.00,1.55
9170.00,1.56
9169.00,1.56
9168.00,1.57
9167.00,1.58
9166.00,1.58
9165.00,1.59
9164.00,1.60
9163.00,1.60
9162.00,1.61
9161.00,1.61
9160.00,1.62
9159.00,1.63
9158.00,1.63
9157.00,1.64
9156.00,1.64
9155.00,1.65
9154.00,1.65
9153.00,1.66
9152.00,1.66
9151.00,1.66
9150.00,1.67
9149.00,1.67
9148.00,1.67
9147.00,1.68
9146.00,1.68
9145.00,1.68
9144.00,1.69
9143.00,1.69
9142.00,1.70
9141.00,1.70
9140.00,1.70
9139.00,1.71
9138.00,1.71
9137.00,1.72
9136.00,1.72
9135.00,1.73
9134.00,1.73
9133.00,1.74
9132.00,1.74
9131.00,1.75
9130.00,1.75
9129.00,1.75
9128.00,1.75
9127.00,1.76
9126.00,1.76
9125.00,1.76
9124.00,1.76
9123.00,1.76
9122.00,1.76
9121.00,1.76
9120.00,1.76
9119.00,1.76
9118.00,1.75
9117.00,1.75
9116.00,1.75
9115.00,1.75
9114.00,1.74
9113.00,1.74
9112.00,1.73
9111.00,1.72
9110.00,1.72
9109.00,1.71
9108.00,1.70
9107.00,1.69
9106.00,1.68
9105.00,1.67
9104.00,1.66
9103.00,1.65
9102.00,1.64
9101.00,1.63
9100.00,1.63
9099.00,1.62
9098.00,1.61
9097.00,1.60
9096.00,1.59
9095.00,1.58
9094.00,1.57
9093.00,1.56
9092.00,1.55
9091.00,1.54
9090.00,1.53
9089.00,1.52
9088.00,1.51
9087.00,1.51
9086.00,1.50
9085.00,1.49
9084.00,1.49
9083.00,1.48
9082.00,1.48
9081.00,1.48
9080.00,1.48
9079.00,1.48
9078.00,1.48
9077.00,1.48
9076.00,1.48
9075.00,1.48
9074.00,1.49
9073.00,1.49
9072.00,1.50
9071.00,1.50
9070.00,1.51
9069.00,1.52
9068.00,1.52
9067.00,1.53
9066.00,1.54
9065.00,1.55
9064.00,1.57
9063.00,1.58
9062.00,1.59
9061.00,1.60
9060.00,1.61
9059.00,1.62
9058.00,1.62
9057.00,1.63
9056.00,1.63
9055.00,1.64
9054.00,1.64
9053.00,1.64
9052.00,1.65
9051.00,1.65
9050.00,1.65
9049.00,1.65
9048.00,1.64
9047.00,1.64
9046.00,1.64
9045.00,1.64
9044.00,1.64
9043.00,1.63
9042.00,1.63
9041.00,1.63
9040.00,1.62
9039.00,1.62
9038.00,1.61
9037.00,1.61
9036.00,1.60
9035.00,1.60
9034.00,1.59
9033.00,1.59
9032.00,1.59
9031.00,1.59
9030.00,1.58
9029.00,1.58
9028.00,1.59
9027.00,1.59
9026.00,1.59
9025.00,1.59
9024.00,1.59
9023.00,1.59
9022.00,1.59
9021.00,1.60
9020.00,1.60
9019.00,1.60
9018.00,1.60
9017.00,1.60
9016.00,1.60
9015.00,1.60
9014.00,1.60
9013.00,1.60
9012.00,1.60
9011.00,1.60
9010.00,1.60
9009.00,1.60
9008.00,1.59
9007.00,1.59
9006.00,1.59
9005.00,1.59
9004.00,1.59
9003.00,1.58
9002.00,1.58
9001.00,1.58
9000.00,1.57
8999.00,1.57
8998.00,1.57
8997.00,1.56
8996.00,1.56
8995.00,1.56
8994.00,1.56
8993.00,1.56
8992.00,1.56
8991.00,1.56
8990.00,1.56
8989.00,1.56
8988.00,1.56
8987.00,1.56
8986.00,1.56
8985.00,1.56
8984.00,1.56
8983.00,1.56
8982.00,1.56
8981.00,1.56
8980.00,1.56
8979.00,1.56
8978.00,1.56
8977.00,1.57
8976.00,1.57
8975.00,1.57
8974.00,1.57
8973.00,1.58
8972.00,1.58
8971.00,1.58
8970.00,1.59
8969.00,1.59
8968.00,1.60
8967.00,1.60
8966.00,1.60
8965.00,1.61
8964.00,1.61
8963.00,1.61
8962.00,1.62
8961.00,1.62
8960.00,1.62
8959.00,1.63
8958.00,1.63
8957.00,1.63
8956.00,1.63
8955.00,1.64
8954.00,1.64
8953.00,1.64
8952.00,1.64
8951.00,1.65
8950.00,1.65
8949.00,1.65
8948.00,1.65
8947.00,1.65
8946.00,1.65
8945.00,1.65
8944.00,1.64
8943.00,1.64
8942.00,1.64
8941.00,1.63
8940.00,1.63
8939.00,1.63
8938.00,1.62
8937.00,1.62
8936.00,1.62
8935.00,1.62
8934.00,1.61
8933.00,1.61
8932.00,1.61
8931.00,1.61
8930.00,1.61
8929.00,1.61
8928.00,1.60
8927.00,1.60
8926.00,1.60
8925.00,1.60
8924.00,1.60
8923.00,1.60
8922.00,1.59
8921.00,1.59
8920.00,1.59
8919.00,1.60
8918.00,1.60
8917.00,1.60
8916.00,1.60
8915.00,1.60
8914.00,1.61
8913.00,1.61
8912.00,1.61
8911.00,1.62
8910.00,1.62
8909.00,1.62
8908.00,1.63
8907.00,1.63
8906.00,1.63
8905.00,1.64
8904.00,1.64
8903.00,1.65
8902.00,1.65
8901.00,1.65
8900.00,1.66
8899.00,1.67
8898.00,1.67
8897.00,1.68
8896.00,1.69
8895.00,1.69
8894.00,1.70
8893.00,1.71
8892.00,1.71
8891.00,1.72
8890.00,1.72
8889.00,1.73
8888.00,1.73
8887.00,1.74
8886.00,1.74
8885.00,1.74
8884.00,1.74
8883.00,1.74
8882.00,1.74
8881.00,1.74
8880.00,1.74
8879.00,1.75
8878.00,1.75
8877.00,1.75
8876.00,1.74
8875.00,1.74
8874.00,1.74
8873.00,1.74
8872.00,1.73
8871.00,1.73
8870.00,1.72
8869.00,1.72
8868.00,1.71
8867.00,1.71
8866.00,1.70
8865.00,1.70
8864.00,1.69
8863.00,1.69
8862.00,1.68
8861.00,1.68
8860.00,1.68
8859.00,1.67
8858.00,1.67
8857.00,1.67
8856.00,1.67
8855.00,1.67
8854.00,1.67
8853.00,1.66
8852.00,1.66
8851.00,1.66
8850.00,1.66
8849.00,1.65
8848.00,1.65
8847.00,1.65
8846.00,1.65
8845.00,1.64
8844.00,1.64
8843.00,1.64
8842.00,1.64
8841.00,1.64
8840.00,1.64
8839.00,1.64
8838.00,1.64
8837.00,1.64
8836.00,1.64
8835.00,1.64
8834.00,1.64
8833.00,1.64
8832.00,1.64
8831.00,1.64
8830.00,1.63
8829.00,1.63
8828.00,1.63
8827.00,1.64
8826.00,1.64
8825.00,1.64
8824.00,1.64
8823.00,1.65
8822.00,1.65
8821.00,1.66
8820.00,1.66
8819.00,1.67
8818.00,1.67
8817.00,1.68
8816.00,1.68
8815.00,1.69
8814.00,1.69
8813.00,1.69
8812.00,1.70
8811.00,1.70
8810.00,1.70
8809.00,1.70
8808.00,1.70
8807.00,1.71
8806.00,1.71
8805.00,1.71
8804.00,1.71
8803.00,1.71
8802.00,1.72
8801.00,1.72
8800.00,1.71
8799.00,1.71
8798.00,1.71
8797.00,1.70
8796.00,1.70
8795.00,1.69
8794.00,1.69
8793.00,1.68
8792.00,1.67
8791.00,1.67
8790.00,1.66
8789.00,1.65
8788.00,1.65
8787.00,1.64
8786.00,1.64
8785.00,1.64
8784.00,1.64
8783.00,1.63
8782.00,1.63
8781.00,1.63
8780.00,1.63
8779.00,1.63
8778.00,1.63
8777.00,1.63
8776.00,1.63
8775.00,1.62
8774.00,1.62
8773.00,1.63
8772.00,1.63
8771.00,1.63
8770.00,1.63
8769.00,1.63
8768.00,1.64
8767.00,1.64
8766.00,1.64
8765.00,1.65
8764.00,1.65
8763.00,1.65
8762.00,1.65
8761.00,1.65
8760.00,1.65
8759.00,1.65
8758.00,1.65
8757.00,1.65
8756.00,1.64
8755.00,1.64
8754.00,1.64
8753.00,1.63
8752.00,1.63
8751.00,1.63
8750.00,1.63
8749.00,1.62
8748.00,1.62
8747.00,1.62
8746.00,1.62
8745.00,1.61
8744.00,1.61
8743.00,1.61
8742.00,1.61
8741.00,1.60
8740.00,1.60
8739.00,1.60
8738.00,1.60
8737.00,1.60
8736.00,1.60
8735.00,1.60
8734.00,1.60
8733.00,1.60
8732.00,1.60
8731.00,1.60
8730.00,1.61
8729.00,1.61
8728.00,1.61
8727.00,1.62
8726.00,1.62
8725.00,1.62
8724.00,1.63
8723.00,1.63
8722.00,1.63
8721.00,1.64
8720.00,1.64
8719.00,1.64
8718.00,1.65
8717.00,1.65
8716.00,1.66
8715.00,1.66
8714.00,1.66
8713.00,1.67
8712.00,1.67
8711.00,1.68
8710.00,1.68
8709.00,1.68
8708.00,1.69
8707.00,1.69
8706.00,1.69
8705.00,1.69
8704.00,1.70
8703.00,1.69
8702.00,1.69
8701.00,1.69
8700.00,1.69
8699.00,1.69
8698.00,1.68
8697.00,1.68
8696.00,1.67
8695.00,1.67
8694.00,1.66
8693.00,1.66
8692.00,1.65
8691.00,1.65
8690.00,1.64
8689.00,1.63
8688.00,1.63
8687.00,1.62
8686.00,1.61
8685.00,1.61
8684.00,1.60
8683.00,1.59
8682.00,1.58
8681.00,1.58
8680.00,1.57
8679.00,1.56
8678.00,1.56
8677.00,1.55
8676.00,1.55
8675.00,1.55
8674.00,1.55
8673.00,1.55
8672.00,1.55
8671.00,1.55
8670.00,1.56
8669.00,1.56
8668.00,1.56
8667.00,1.57
8666.00,1.57
8665.00,1.58
8664.00,1.58
8663.00,1.58
8662.00,1.58
8661.00,1.59
8660.00,1.59
8659.00,1.59
8658.00,1.60
8657.00,1.60
8656.00,1.60
8655.00,1.61
8654.00,1.61
8653.00,1.61
8652.00,1.61
8651.00,1.61
8650.00,1.61
8649.00,1.61
8648.00,1.61
8647.00,1.61
8646.00,1.60
8645.00,1.60
8644.00,1.59
8643.00,1.59
8642.00,1.58
8641.00,1.58
8640.00,1.57
8639.00,1.57
8638.00,1.56
8637.00,1.56
8636.00,1.55
8635.00,1.55
8634.00,1.54
8633.00,1.54
8632.00,1.54
8631.00,1.53
8630.00,1.53
8629.00,1.53
8628.00,1.53
8627.00,1.52
8626.00,1.52
8625.00,1.52
8624.00,1.52
8623.00,1.52
8622.00,1.52
8621.00,1.52
8620.00,1.52
8619.00,1.52
8618.00,1.52
8617.00,1.52
8616.00,1.52
8615.00,1.52
8614.00,1.52
8613.00,1.52
8612.00,1.53
8611.00,1.53
8610.00,1.53
8609.00,1.53
8608.00,1.53
8607.00,1.53
8606.00,1.53
8605.00,1.53
8604.00,1.53
8603.00,1.52
8602.00,1.52
8601.00,1.52
8600.00,1.52
8599.00,1.52
8598.00,1.52
8597.00,1.52
8596.00,1.52
8595.00,1.53
8594.00,1.53
8593.00,1.53
8592.00,1.53
8591.00,1.53
8590.00,1.53
8589.00,1.53
8588.00,1.54
8587.00,1.54
8586.00,1.54
8585.00,1.54
8584.00,1.54
8583.00,1.55
8582.00,1.55
8581.00,1.55
8580.00,1.55
8579.00,1.56
8578.00,1.56
8577.00,1.56
8576.00,1.56
8575.00,1.56
8574.00,1.57
8573.00,1.57
8572.00,1.57
8571.00,1.57
8570.00,1.58
8569.00,1.58
8568.00,1.58
8567.00,1.58
8566.00,1.59
8565.00,1.59
8564.00,1.59
8563.00,1.60
8562.00,1.60
8561.00,1.60
8560.00,1.61
8559.00,1.61
8558.00,1.61
8557.00,1.62
8556.00,1.62
8555.00,1.62
8554.00,1.63
8553.00,1.64
8552.00,1.64
8551.00,1.65
8550.00,1.65
8549.00,1.66
8548.00,1.66
8547.00,1.67
8546.00,1.67
8545.00,1.68
8544.00,1.68
8543.00,1.69
8542.00,1.69
8541.00,1.70
8540.00,1.70
8539.00,1.70
8538.00,1.70
8537.00,1.71
8536.00,1.71
8535.00,1.71
8534.00,1.71
8533.00,1.71
8532.00,1.71
8531.00,1.71
8530.00,1.71
8529.00,1.71
8528.00,1.70
8527.00,1.70
8526.00,1.69
8525.00,1.69
8524.00,1.68
8523.00,1.68
8522.00,1.67
8521.00,1.66
8520.00,1.65
8519.00,1.65
8518.00,1.64
8517.00,1.63
8516.00,1.62
8515.00,1.61
8514.00,1.60
8513.00,1.59
8512.00,1.58
8511.00,1.58
8510.00,1.57
8509.00,1.56
8508.00,1.56
8507.00,1.55
8506.00,1.55
8505.00,1.54
8504.00,1.54
8503.00,1.54
8502.00,1.54
8501.00,1.54
8500.00,1.54
8499.00,1.54
8498.00,1.55
8497.00,1.55
8496.00,1.55
8495.00,1.56
8494.00,1.56
8493.00,1.57
8492.00,1.57
8491.00,1.58
8490.00,1.58
8489.00,1.59
8488.00,1.60
8487.00,1.60
8486.00,1.61
8485.00,1.61
8484.00,1.62
8483.00,1.62
8482.00,1.63
8481.00,1.63
8480.00,1.63
8479.00,1.64
8478.00,1.64
8477.00,1.64
8476.00,1.64
8475.00,1.64
8474.00,1.64
8473.00,1.64
8472.00,1.64
8471.00,1.65
8470.00,1.65
8469.00,1.65
8468.00,1.65
8467.00,1.65
8466.00,1.66
8465.00,1.66
8464.00,1.66
8463.00,1.66
8462.00,1.66
8461.00,1.67
8460.00,1.67
8459.00,1.67
8458.00,1.68
8457.00,1.68
8456.00,1.68
8455.00,1.69
8454.00,1.69
8453.00,1.69
8452.00,1.70
8451.00,1.70
8450.00,1.70
8449.00,1.70
8448.00,1.70
8447.00,1.70
8446.00,1.69
8445.00,1.69
8444.00,1.68
8443.00,1.68
8442.00,1.67
8441.00,1.66
8440.00,1.66
8439.00,1.65
8438.00,1.64
8437.00,1.63
8436.00,1.63
8435.00,1.62
8434.00,1.61
8433.00,1.60
8432.00,1.59
8431.00,1.59
8430.00,1.58
8429.00,1.57
8428.00,1.56
8427.00,1.56
8426.00,1.55
8425.00,1.55
8424.00,1.54
8423.00,1.54
8422.00,1.53
8421.00,1.53
8420.00,1.53
8419.00,1.53
8418.00,1.53
8417.00,1.53
8416.00,1.53
8415.00,1.53
8414.00,1.53
8413.00,1.54
8412.00,1.54
8411.00,1.54
8410.00,1.54
8409.00,1.54
8408.00,1.55
8407.00,1.55
8406.00,1.55
8405.00,1.55
8404.00,1.55
8403.00,1.55
8402.00,1.56
8401.00,1.56
8400.00,1.56
8399.00,1.56
8398.00,1.56
8397.00,1.56
8396.00,1.56
8395.00,1.56
8394.00,1.56
8393.00,1.56
8392.00,1.56
8391.00,1.56
8390.00,1.56
8389.00,1.57
8388.00,1.57
8387.00,1.57
8386.00,1.57
8385.00,1.57
8384.00,1.57
8383.00,1.57
8382.00,1.57
8381.00,1.57
8380.00,1.57
8379.00,1.57
8378.00,1.57
8377.00,1.58
8376.00,1.58
8375.00,1.58
8374.00,1.59
8373.00,1.59
8372.00,1.60
8371.00,1.60
8370.00,1.60
8369.00,1.61
8368.00,1.61
8367.00,1.61
8366.00,1.61
8365.00,1.61
8364.00,1.61
8363.00,1.61
8362.00,1.62
8361.00,1.62
8360.00,1.62
8359.00,1.62
8358.00,1.63
8357.00,1.63
8356.00,1.63
8355.00,1.63
8354.00,1.64
8353.00,1.64
8352.00,1.64
8351.00,1.64
8350.00,1.64
8349.00,1.64
8348.00,1.64
8347.00,1.64
8346.00,1.63
8345.00,1.63
8344.00,1.63
8343.00,1.63
8342.00,1.62
8341.00,1.62
8340.00,1.62
8339.00,1.62
8338.00,1.61
8337.00,1.61
8336.00,1.61
8335.00,1.61
8334.00,1.60
8333.00,1.60
8332.00,1.59
8331.00,1.59
8330.00,1.59
8329.00,1.58
8328.00,1.58
8327.00,1.57
8326.00,1.57
8325.00,1.57
8324.00,1.56
8323.00,1.56
8322.00,1.56
8321.00,1.56
8320.00,1.55
8319.00,1.55
8318.00,1.55
8317.00,1.55
8316.00,1.55
8315.00,1.55
8314.00,1.55
8313.00,1.55
8312.00,1.55
8311.00,1.55
8310.00,1.55
8309.00,1.55
8308.00,1.55
8307.00,1.55
8306.00,1.55
8305.00,1.55
8304.00,1.56
8303.00,1.56
8302.00,1.56
8301.00,1.56
8300.00,1.56
8299.00,1.57
8298.00,1.57
8297.00,1.57
8296.00,1.57
8295.00,1.57
8294.00,1.58
8293.00,1.58
8292.00,1.58
8291.00,1.58
8290.00,1.59
8289.00,1.59
8288.00,1.59
8287.00,1.59
8286.00,1.59
8285.00,1.60
8284.00,1.60
8283.00,1.60
8282.00,1.60
8281.00,1.60
8280.00,1.60
8279.00,1.60
8278.00,1.61
8277.00,1.61
8276.00,1.61
8275.00,1.61
8274.00,1.61
8273.00,1.61
8272.00,1.61
8271.00,1.61
8270.00,1.61
8269.00,1.61
8268.00,1.61
8267.00,1.62
8266.00,1.62
8265.00,1.62
8264.00,1.62
8263.00,1.62
8262.00,1.62
8261.00,1.62
8260.00,1.63
8259.00,1.63
8258.00,1.63
8257.00,1.63
8256.00,1.64
8255.00,1.64
8254.00,1.64
8253.00,1.65
8252.00,1.65
8251.00,1.66
8250.00,1.66
8249.00,1.66
8248.00,1.67
8247.00,1.67
8246.00,1.67
8245.00,1.68
8244.00,1.68
8243.00,1.68
8242.00,1.69
8241.00,1.69
8240.00,1.70
8239.00,1.70
8238.00,1.70
8237.00,1.70
8236.00,1.71
8235.00,1.71
8234.00,1.71
8233.00,1.71
8232.00,1.71
8231.00,1.71
8230.00,1.71
8229.00,1.71
8228.00,1.70
8227.00,1.70
8226.00,1.70
8225.00,1.70
8224.00,1.70
8223.00,1.70
8222.00,1.70
8221.00,1.70
8220.00,1.69
8219.00,1.69
8218.00,1.69
8217.00,1.69
8216.00,1.69
8215.00,1.69
8214.00,1.69
8213.00,1.69
8212.00,1.69
8211.00,1.69
8210.00,1.69
8209.00,1.69
8208.00,1.69
8207.00,1.68
8206.00,1.68
8205.00,1.68
8204.00,1.68
8203.00,1.68
8202.00,1.68
8201.00,1.68
8200.00,1.68
8199.00,1.68
8198.00,1.68
8197.00,1.68
8196.00,1.68
8195.00,1.68
8194.00,1.68
8193.00,1.68
8192.00,1.67
8191.00,1.67
8190.00,1.67
8189.00,1.67
8188.00,1.67
8187.00,1.66
8186.00,1.66
8185.00,1.66
8184.00,1.66
8183.00,1.66
8182.00,1.66
8181.00,1.65
8180.00,1.65
8179.00,1.65
8178.00,1.65
8177.00,1.65
8176.00,1.65
8175.00,1.65
8174.00,1.65
8173.00,1.65
8172.00,1.65
8171.00,1.65
8170.00,1.65
8169.00,1.65
8168.00,1.64
8167.00,1.64
8166.00,1.64
8165.00,1.64
8164.00,1.64
8163.00,1.64
8162.00,1.65
8161.00,1.65
8160.00,1.65
8159.00,1.65
8158.00,1.65
8157.00,1.65
8156.00,1.65
8155.00,1.65
8154.00,1.65
8153.00,1.65
8152.00,1.65
8151.00,1.65
8150.00,1.65
8149.00,1.65
8148.00,1.65
8147.00,1.65
8146.00,1.65
8145.00,1.65
8144.00,1.65
8143.00,1.65
8142.00,1.65
8141.00,1.65
8140.00,1.66
8139.00,1.66
8138.00,1.66
8137.00,1.65
8136.00,1.65
8135.00,1.65
8134.00,1.65
8133.00,1.65
8132.00,1.65
8131.00,1.65
8130.00,1.64
8129.00,1.64
8128.00,1.64
8127.00,1.64
8126.00,1.64
8125.00,1.64
8124.00,1.64
8123.00,1.65
8122.00,1.65
8121.00,1.65
8120.00,1.65
8119.00,1.65
8118.00,1.66
8117.00,1.66
8116.00,1.66
8115.00,1.66
8114.00,1.66
8113.00,1.67
8112.00,1.67
8111.00,1.67
8110.00,1.67
8109.00,1.68
8108.00,1.68
8107.00,1.69
8106.00,1.69
8105.00,1.70
8104.00,1.70
8103.00,1.70
8102.00,1.71
8101.00,1.71
8100.00,1.72
8099.00,1.72
8098.00,1.73
8097.00,1.73
8096.00,1.73
8095.00,1.73
8094.00,1.74
8093.00,1.74
8092.00,1.74
8091.00,1.74
8090.00,1.74
8089.00,1.75
8088.00,1.75
8087.00,1.75
8086.00,1.75
8085.00,1.75
8084.00,1.75
8083.00,1.75
8082.00,1.75
8081.00,1.75
8080.00,1.75
8079.00,1.75
8078.00,1.75
8077.00,1.75
8076.00,1.75
8075.00,1.75
8074.00,1.75
8073.00,1.74
8072.00,1.74
8071.00,1.74
8070.00,1.74
8069.00,1.73
8068.00,1.73
8067.00,1.73
8066.00,1.72
8065.00,1.72
8064.00,1.72
8063.00,1.71
8062.00,1.71
8061.00,1.70
8060.00,1.70
8059.00,1.69
8058.00,1.69
8057.00,1.68
8056.00,1.68
8055.00,1.67
8054.00,1.67
8053.00,1.66
8052.00,1.66
8051.00,1.65
8050.00,1.65
8049.00,1.64
8048.00,1.64
8047.00,1.64
8046.00,1.63
8045.00,1.63
8044.00,1.63
8043.00,1.63
8042.00,1.63
8041.00,1.63
8040.00,1.63
8039.00,1.63
8038.00,1.63
8037.00,1.63
8036.00,1.64
8035.00,1.64
8034.00,1.64
8033.00,1.64
8032.00,1.65
8031.00,1.65
8030.00,1.65
8029.00,1.66
8028.00,1.66
8027.00,1.67
8026.00,1.67
8025.00,1.68
8024.00,1.68
8023.00,1.68
8022.00,1.69
8021.00,1.69
8020.00,1.70
8019.00,1.70
8018.00,1.70
8017.00,1.71
8016.00,1.71
8015.00,1.71
8014.00,1.71
8013.00,1.71
8012.00,1.71
8011.00,1.71
8010.00,1.71
8009.00,1.71
8008.00,1.72
8007.00,1.72
8006.00,1.72
8005.00,1.72
8004.00,1.72
8003.00,1.72
8002.00,1.72
8001.00,1.72
8000.00,1.72
7999.00,1.72
7998.00,1.72
7997.00,1.72
7996.00,1.72
7995.00,1.71
7994.00,1.71
7993.00,1.71
7992.00,1.71
7991.00,1.71
7990.00,1.71
7989.00,1.72
7988.00,1.72
7987.00,1.72
7986.00,1.72
7985.00,1.72
7984.00,1.72
7983.00,1.72
7982.00,1.72
7981.00,1.73
7980.00,1.73
7979.00,1.73
7978.00,1.73
7977.00,1.73
7976.00,1.73
7975.00,1.73
7974.00,1.73
7973.00,1.73
7972.00,1.73
7971.00,1.73
7970.00,1.73
7969.00,1.72
7968.00,1.72
7967.00,1.72
7966.00,1.72
7965.00,1.72
7964.00,1.72
7963.00,1.71
7962.00,1.71
7961.00,1.71
7960.00,1.71
7959.00,1.70
7958.00,1.70
7957.00,1.70
7956.00,1.69
7955.00,1.69
7954.00,1.69
7953.00,1.69
7952.00,1.69
7951.00,1.69
7950.00,1.69
7949.00,1.69
7948.00,1.69
7947.00,1.69
7946.00,1.69
7945.00,1.69
7944.00,1.69
7943.00,1.69
7942.00,1.69
7941.00,1.69
7940.00,1.70
7939.00,1.70
7938.00,1.70
7937.00,1.70
7936.00,1.70
7935.00,1.71
7934.00,1.71
7933.00,1.71
7932.00,1.71
7931.00,1.72
7930.00,1.72
7929.00,1.72
7928.00,1.72
7927.00,1.72
7926.00,1.72
7925.00,1.73
7924.00,1.73
7923.00,1.73
7922.00,1.73
7921.00,1.73
7920.00,1.73
7919.00,1.73
7918.00,1.73
7917.00,1.73
7916.00,1.73
7915.00,1.73
7914.00,1.73
7913.00,1.73
7912.00,1.73
7911.00,1.73
7910.00,1.73
7909.00,1.73
7908.00,1.73
7907.00,1.73
7906.00,1.73
7905.00,1.73
7904.00,1.73
7903.00,1.73
7902.00,1.73
7901.00,1.73
7900.00,1.73
7899.00,1.73
7898.00,1.73
7897.00,1.73
7896.00,1.73
7895.00,1.73
7894.00,1.73
7893.00,1.73
7892.00,1.73
7891.00,1.72
7890.00,1.72
7889.00,1.72
7888.00,1.72
7887.00,1.72
7886.00,1.72
7885.00,1.72
7884.00,1.72
7883.00,1.71
7882.00,1.71
7881.00,1.71
7880.00,1.71
7879.00,1.71
7878.00,1.71
7877.00,1.71
7876.00,1.71
7875.00,1.70
7874.00,1.70
7873.00,1.70
7872.00,1.70
7871.00,1.70
7870.00,1.70
7869.00,1.71
7868.00,1.71
7867.00,1.71
7866.00,1.71
7865.00,1.71
7864.00,1.72
7863.00,1.72
7862.00,1.72
7861.00,1.72
7860.00,1.72
7859.00,1.73
7858.00,1.73
7857.00,1.73
7856.00,1.73
7855.00,1.73
7854.00,1.73
7853.00,1.74
7852.00,1.74
7851.00,1.74
7850.00,1.74
7849.00,1.75
7848.00,1.75
7847.00,1.75
7846.00,1.75
7845.00,1.76
7844.00,1.76
7843.00,1.76
7842.00,1.76
7841.00,1.76
7840.00,1.76
7839.00,1.76
7838.00,1.76
7837.00,1.76
7836.00,1.76
7835.00,1.76
7834.00,1.76
7833.00,1.76
7832.00,1.76
7831.00,1.76
7830.00,1.76
7829.00,1.76
7828.00,1.76
7827.00,1.76
7826.00,1.76
7825.00,1.76
7824.00,1.76
7823.00,1.75
7822.00,1.75
7821.00,1.75
7820.00,1.74
7819.00,1.74
7818.00,1.73
7817.00,1.73
7816.00,1.72
7815.00,1.72
7814.00,1.71
7813.00,1.71
7812.00,1.71
7811.00,1.70
7810.00,1.70
7809.00,1.70
7808.00,1.70
7807.00,1.69
7806.00,1.69
7805.00,1.69
7804.00,1.69
7803.00,1.68
7802.00,1.68
7801.00,1.68
7800.00,1.67
7799.00,1.67
7798.00,1.67
7797.00,1.67
7796.00,1.67
7795.00,1.67
7794.00,1.67
7793.00,1.67
7792.00,1.67
7791.00,1.68
7790.00,1.68
7789.00,1.68
7788.00,1.68
7787.00,1.69
7786.00,1.69
7785.00,1.69
7784.00,1.70
7783.00,1.70
7782.00,1.70
7781.00,1.70
7780.00,1.70
7779.00,1.71
7778.00,1.71
7777.00,1.71
7776.00,1.72
7775.00,1.72
7774.00,1.73
7773.00,1.73
7772.00,1.74
7771.00,1.74
7770.00,1.75
7769.00,1.75
7768.00,1.75
7767.00,1.76
7766.00,1.76
7765.00,1.77
7764.00,1.77
7763.00,1.78
7762.00,1.78
7761.00,1.78
7760.00,1.78
7759.00,1.79
7758.00,1.79
7757.00,1.79
7756.00,1.79
7755.00,1.79
7754.00,1.80
7753.00,1.80
7752.00,1.80
7751.00,1.80
7750.00,1.79
7749.00,1.79
7748.00,1.79
7747.00,1.79
7746.00,1.78
7745.00,1.78
7744.00,1.78
7743.00,1.78
7742.00,1.77
7741.00,1.77
7740.00,1.76
7739.00,1.76
7738.00,1.75
7737.00,1.75
7736.00,1.75
7735.00,1.74
7734.00,1.74
7733.00,1.74
7732.00,1.73
7731.00,1.73
7730.00,1.73
7729.00,1.73
7728.00,1.73
7727.00,1.73
7726.00,1.74
7725.00,1.74
7724.00,1.74
7723.00,1.74
7722.00,1.75
7721.00,1.75
7720.00,1.75
7719.00,1.76
7718.00,1.76
7717.00,1.76
7716.00,1.77
7715.00,1.77
7714.00,1.77
7713.00,1.78
7712.00,1.78
7711.00,1.79
7710.00,1.79
7709.00,1.80
7708.00,1.80
7707.00,1.80
7706.00,1.81
7705.00,1.81
7704.00,1.81
7703.00,1.81
7702.00,1.81
7701.00,1.81
7700.00,1.81
7699.00,1.81
7698.00,1.81
7697.00,1.81
7696.00,1.81
7695.00,1.80
7694.00,1.80
7693.00,1.80
7692.00,1.80
7691.00,1.79
7690.00,1.79
7689.00,1.79
7688.00,1.78
7687.00,1.78
7686.00,1.77
7685.00,1.77
7684.00,1.76
7683.00,1.76
7682.00,1.75
7681.00,1.75
7680.00,1.74
7679.00,1.74
7678.00,1.73
7677.00,1.73
7676.00,1.72
7675.00,1.72
7674.00,1.72
7673.00,1.71
7672.00,1.71
7671.00,1.70
7670.00,1.70
7669.00,1.70
7668.00,1.70
7667.00,1.69
7666.00,1.69
7665.00,1.69
7664.00,1.69
7663.00,1.69
7662.00,1.69
7661.00,1.69
7660.00,1.69
7659.00,1.69
7658.00,1.69
7657.00,1.69
7656.00,1.69
7655.00,1.69
7654.00,1.69
7653.00,1.69
7652.00,1.69
7651.00,1.69
7650.00,1.69
7649.00,1.70
7648.00,1.70
7647.00,1.70
7646.00,1.70
7645.00,1.71
7644.00,1.71
7643.00,1.71
7642.00,1.72
7641.00,1.72
7640.00,1.73
7639.00,1.73
7638.00,1.73
7637.00,1.74
7636.00,1.74
7635.00,1.75
7634.00,1.75
7633.00,1.75
7632.00,1.76
7631.00,1.76
7630.00,1.77
7629.00,1.77
7628.00,1.77
7627.00,1.77
7626.00,1.77
7625.00,1.78
7624.00,1.78
7623.00,1.78
7622.00,1.78
7621.00,1.78
7620.00,1.78
7619.00,1.78
7618.00,1.78
7617.00,1.78
7616.00,1.78
7615.00,1.78
7614.00,1.78
7613.00,1.78
7612.00,1.77
7611.00,1.77
7610.00,1.77
7609.00,1.77
7608.00,1.77
7607.00,1.76
7606.00,1.76
7605.00,1.76
7604.00,1.76
7603.00,1.76
7602.00,1.75
7601.00,1.75
7600.00,1.75
7599.00,1.75
7598.00,1.75
7597.00,1.75
7596.00,1.75
7595.00,1.75
7594.00,1.75
7593.00,1.75
7592.00,1.75
7591.00,1.75
7590.00,1.75
7589.00,1.75
7588.00,1.75
7587.00,1.75
7586.00,1.75
7585.00,1.75
7584.00,1.75
7583.00,1.76
7582.00,1.76
7581.00,1.76
7580.00,1.76
7579.00,1.76
7578.00,1.76
7577.00,1.77
7576.00,1.77
7575.00,1.77
7574.00,1.77
7573.00,1.77
7572.00,1.77
7571.00,1.78
7570.00,1.78
7569.00,1.78
7568.00,1.78
7567.00,1.78
7566.00,1.78
7565.00,1.78
7564.00,1.79
7563.00,1.79
7562.00,1.79
7561.00,1.79
7560.00,1.79
7559.00,1.79
7558.00,1.79
7557.00,1.79
7556.00,1.79
7555.00,1.79
7554.00,1.79
7553.00,1.79
7552.00,1.79
7551.00,1.79
7550.00,1.79
7549.00,1.79
7548.00,1.79
7547.00,1.79
7546.00,1.78
7545.00,1.78
7544.00,1.78
7543.00,1.78
7542.00,1.77
7541.00,1.77
7540.00,1.77
7539.00,1.77
7538.00,1.77
7537.00,1.76
7536.00,1.76
7535.00,1.76
7534.00,1.76
7533.00,1.76
7532.00,1.76
7531.00,1.76
7530.00,1.75
7529.00,1.75
7528.00,1.75
7527.00,1.75
7526.00,1.75
7525.00,1.75
7524.00,1.75
7523.00,1.75
7522.00,1.74
7521.00,1.74
7520.00,1.74
7519.00,1.74
7518.00,1.74
7517.00,1.74
7516.00,1.74
7515.00,1.74
7514.00,1.74
7513.00,1.74
7512.00,1.74
7511.00,1.74
7510.00,1.74
7509.00,1.74
7508.00,1.74
7507.00,1.74
7506.00,1.74
7505.00,1.74
7504.00,1.74
7503.00,1.75
7502.00,1.75
7501.00,1.75
7500.00,1.75
7499.00,1.75
7498.00,1.75
7497.00,1.75
7496.00,1.75
7495.00,1.75
7494.00,1.75
7493.00,1.75
7492.00,1.75
7491.00,1.75
7490.00,1.75
7489.00,1.75
7488.00,1.75
7487.00,1.75
7486.00,1.75
7485.00,1.75
7484.00,1.75
7483.00,1.75
7482.00,1.75
7481.00,1.75
7480.00,1.75
7479.00,1.75
7478.00,1.74
7477.00,1.74
7476.00,1.74
7475.00,1.74
7474.00,1.74
7473.00,1.73
7472.00,1.73
7471.00,1.73
7470.00,1.73
7469.00,1.73
7468.00,1.73
7467.00,1.73
7466.00,1.73
7465.00,1.73
7464.00,1.73
7463.00,1.73
7462.00,1.73
7461.00,1.74
7460.00,1.74
7459.00,1.74
7458.00,1.74
7457.00,1.74
7456.00,1.74
7455.00,1.74
7454.00,1.75
7453.00,1.75
7452.00,1.75
7451.00,1.75
7450.00,1.75
7449.00,1.76
7448.00,1.76
7447.00,1.76
7446.00,1.76
7445.00,1.76
7444.00,1.76
7443.00,1.76
7442.00,1.76
7441.00,1.76
7440.00,1.76
7439.00,1.76
7438.00,1.76
7437.00,1.75
7436.00,1.75
7435.00,1.75
7434.00,1.75
7433.00,1.75
7432.00,1.74
7431.00,1.74
7430.00,1.74
7429.00,1.74
7428.00,1.74
7427.00,1.74
7426.00,1.74
7425.00,1.73
7424.00,1.73
7423.00,1.73
7422.00,1.73
7421.00,1.73
7420.00,1.73
7419.00,1.73
7418.00,1.73
7417.00,1.73
7416.00,1.73
7415.00,1.73
7414.00,1.73
7413.00,1.73
7412.00,1.73
7411.00,1.73
7410.00,1.73
7409.00,1.74
7408.00,1.74
7407.00,1.74
7406.00,1.74
7405.00,1.74
7404.00,1.74
7403.00,1.74
7402.00,1.74
7401.00,1.74
7400.00,1.74
7399.00,1.74
7398.00,1.75
7397.00,1.75
7396.00,1.75
7395.00,1.75
7394.00,1.75
7393.00,1.75
7392.00,1.75
7391.00,1.75
7390.00,1.75
7389.00,1.74
7388.00,1.74
7387.00,1.74
7386.00,1.74
7385.00,1.74
7384.00,1.74
7383.00,1.74
7382.00,1.74
7381.00,1.73
7380.00,1.73
7379.00,1.73
7378.00,1.73
7377.00,1.73
7376.00,1.73
7375.00,1.73
7374.00,1.72
7373.00,1.72
7372.00,1.72
7371.00,1.72
7370.00,1.71
7369.00,1.71
7368.00,1.71
7367.00,1.71
7366.00,1.71
7365.00,1.70
7364.00,1.70
7363.00,1.70
7362.00,1.70
7361.00,1.70
7360.00,1.69
7359.00,1.69
7358.00,1.69
7357.00,1.69
7356.00,1.69
7355.00,1.69
7354.00,1.69
7353.00,1.69
7352.00,1.69
7351.00,1.69
7350.00,1.69
7349.00,1.69
7348.00,1.69
7347.00,1.69
7346.00,1.69
7345.00,1.69
7344.00,1.69
7343.00,1.69
7342.00,1.69
7341.00,1.69
7340.00,1.69
7339.00,1.69
7338.00,1.70
7337.00,1.70
7336.00,1.70
7335.00,1.70
7334.00,1.70
7333.00,1.70
7332.00,1.70
7331.00,1.70
7330.00,1.70
7329.00,1.70
7328.00,1.70
7327.00,1.70
7326.00,1.70
7325.00,1.70
7324.00,1.70
7323.00,1.70
7322.00,1.70
7321.00,1.70
7320.00,1.70
7319.00,1.69
7318.00,1.69
7317.00,1.69
7316.00,1.69
7315.00,1.69
7314.00,1.69
7313.00,1.69
7312.00,1.68
7311.00,1.68
7310.00,1.68
7309.00,1.68
7308.00,1.67
7307.00,1.67
7306.00,1.67
7305.00,1.67
7304.00,1.66
7303.00,1.66
7302.00,1.66
7301.00,1.66
7300.00,1.66
7299.00,1.66
7298.00,1.65
7297.00,1.65
7296.00,1.65
7295.00,1.65
7294.00,1.65
7293.00,1.64
7292.00,1.64
7291.00,1.64
7290.00,1.64
7289.00,1.64
7288.00,1.64
7287.00,1.63
7286.00,1.63
7285.00,1.63
7284.00,1.63
7283.00,1.63
7282.00,1.63
7281.00,1.63
7280.00,1.64
7279.00,1.64
7278.00,1.64
7277.00,1.64
7276.00,1.64
7275.00,1.64
7274.00,1.64
7273.00,1.64
7272.00,1.64
7271.00,1.64
7270.00,1.64
7269.00,1.64
7268.00,1.64
7267.00,1.64
7266.00,1.65
7265.00,1.65
7264.00,1.65
7263.00,1.65
7262.00,1.65
7261.00,1.65
7260.00,1.65
7259.00,1.65
7258.00,1.65
7257.00,1.64
7256.00,1.64
7255.00,1.64
7254.00,1.64
7253.00,1.63
7252.00,1.63
7251.00,1.63
7250.00,1.62
7249.00,1.62
7248.00,1.62
7247.00,1.61
7246.00,1.61
7245.00,1.61
7244.00,1.60
7243.00,1.60
7242.00,1.60
7241.00,1.59
7240.00,1.59
7239.00,1.58
7238.00,1.58
7237.00,1.58
7236.00,1.57
7235.00,1.57
7234.00,1.57
7233.00,1.56
7232.00,1.56
7231.00,1.56
7230.00,1.55
7229.00,1.55
7228.00,1.55
7227.00,1.54
7226.00,1.54
7225.00,1.54
7224.00,1.54
7223.00,1.53
7222.00,1.53
7221.00,1.53
7220.00,1.52
7219.00,1.52
7218.00,1.52
7217.00,1.51
7216.00,1.51
7215.00,1.51
7214.00,1.51
7213.00,1.50
7212.00,1.50
7211.00,1.50
7210.00,1.49
7209.00,1.49
7208.00,1.49
7207.00,1.48
7206.00,1.48
7205.00,1.47
7204.00,1.47
7203.00,1.47
7202.00,1.47
7201.00,1.46
7200.00,1.46
7199.00,1.46
7198.00,1.46
7197.00,1.46
7196.00,1.46
7195.00,1.46
7194.00,1.45
7193.00,1.45
7192.00,1.45
7191.00,1.45
7190.00,1.44
7189.00,1.44
7188.00,1.44
7187.00,1.43
7186.00,1.43
7185.00,1.43
7184.00,1.42
7183.00,1.42
7182.00,1.41
7181.00,1.41
7180.00,1.41
7179.00,1.40
7178.00,1.40
7177.00,1.39
7176.00,1.38
7175.00,1.38
7174.00,1.37
7173.00,1.37
7172.00,1.36
7171.00,1.35
7170.00,1.34
7169.00,1.34
7168.00,1.33
7167.00,1.32
7166.00,1.32
7165.00,1.31
7164.00,1.31
7163.00,1.30
7162.00,1.29
7161.00,1.29
7160.00,1.28
7159.00,1.28
7158.00,1.27
7157.00,1.27
7156.00,1.27
7155.00,1.26
7154.00,1.26
7153.00,1.26
7152.00,1.25
7151.00,1.25
7150.00,1.25
7149.00,1.24
7148.00,1.24
7147.00,1.24
7146.00,1.24
7145.00,1.24
7144.00,1.23
7143.00,1.23
7142.00,1.23
7141.00,1.23
7140.00,1.23
7139.00,1.22
7138.00,1.22
7137.00,1.22
7136.00,1.22
7135.00,1.22
7134.00,1.21
7133.00,1.21
7132.00,1.21
7131.00,1.21
7130.00,1.21
7129.00,1.21
7128.00,1.20
7127.00,1.20
7126.00,1.20
7125.00,1.20
7124.00,1.20
7123.00,1.19
7122.00,1.19
7121.00,1.19
7120.00,1.19
7119.00,1.19
7118.00,1.18
7117.00,1.18
7116.00,1.18
7115.00,1.18
7114.00,1.18
7113.00,1.17
7112.00,1.17
7111.00,1.17
7110.00,1.16
7109.00,1.16
7108.00,1.16
7107.00,1.15
7106.00,1.15
7105.00,1.15
7104.00,1.14
7103.00,1.14
7102.00,1.13
7101.00,1.13
7100.00,1.12
7099.00,1.12
7098.00,1.11
7097.00,1.11
7096.00,1.10
7095.00,1.10
7094.00,1.09
7093.00,1.09
7092.00,1.08
7091.00,1.08
7090.00,1.07
7089.00,1.07
7088.00,1.06
7087.00,1.06
7086.00,1.06
7085.00,1.05
7084.00,1.05
7083.00,1.05
7082.00,1.04
7081.00,1.04
7080.00,1.04
7079.00,1.03
7078.00,1.03
7077.00,1.03
7076.00,1.03
7075.00,1.02
7074.00,1.02
7073.00,1.02
7072.00,1.02
7071.00,1.02
7070.00,1.01
7069.00,1.01
7068.00,1.01
7067.00,1.01
7066.00,1.01
7065.00,1.01
7064.00,1.01
7063.00,1.01
7062.00,1.01
7061.00,1.01
7060.00,1.00
7059.00,1.00
7058.00,1.00
7057.00,1.00
7056.00,1.00
7055.00,1.00
7054.00,1.00
7053.00,1.00
7052.00,1.00
7051.00,1.00
7050.00,1.00
7049.00,1.00
7048.00,1.00
7047.00,0.99
7046.00,0.99
7045.00,0.99
7044.00,0.99
7043.00,0.99
7042.00,0.98
7041.00,0.98
7040.00,0.98
7039.00,0.98
7038.00,0.98
7037.00,0.97
7036.00,0.97
7035.00,0.97
7034.00,0.96
7033.00,0.96
7032.00,0.96
7031.00,0.95
7030.00,0.95
7029.00,0.94
7028.00,0.94
7027.00,0.94
7026.00,0.93
7025.00,0.93
7024.00,0.92
7023.00,0.92
7022.00,0.92
7021.00,0.91
7020.00,0.91
7019.00,0.91
7018.00,0.90
7017.00,0.90
7016.00,0.90
7015.00,0.89
7014.00,0.89
7013.00,0.89
7012.00,0.88
7011.00,0.88
7010.00,0.88
7009.00,0.88
7008.00,0.87
7007.00,0.87
7006.00,0.87
7005.00,0.87
7004.00,0.87
7003.00,0.87
7002.00,0.87
7001.00,0.87
7000.00,0.87
6999.00,0.86
6998.00,0.86
6997.00,0.86
6996.00,0.86
6995.00,0.86
6994.00,0.86
6993.00,0.86
6992.00,0.86
6991.00,0.86
6990.00,0.86
6989.00,0.86
6988.00,0.86
6987.00,0.86
6986.00,0.86
6985.00,0.86
6984.00,0.86
6983.00,0.86
6982.00,0.86
6981.00,0.86
6980.00,0.86
6979.00,0.86
6978.00,0.86
6977.00,0.86
6976.00,0.87
6975.00,0.87
6974.00,0.87
6973.00,0.87
6972.00,0.87
6971.00,0.87
6970.00,0.87
6969.00,0.87
6968.00,0.87
6967.00,0.87
6966.00,0.87
6965.00,0.87
6964.00,0.87
6963.00,0.87
6962.00,0.87
6961.00,0.87
6960.00,0.87
6959.00,0.87
6958.00,0.87
6957.00,0.87
6956.00,0.87
6955.00,0.87
6954.00,0.87
6953.00,0.87
6952.00,0.87
6951.00,0.87
6950.00,0.87
6949.00,0.87
6948.00,0.87
6947.00,0.87
6946.00,0.87
6945.00,0.87
6944.00,0.87
6943.00,0.87
6942.00,0.86
6941.00,0.86
6940.00,0.86
6939.00,0.86
6938.00,0.86
6937.00,0.85
6936.00,0.85
6935.00,0.85
6934.00,0.85
6933.00,0.84
6932.00,0.84
6931.00,0.84
6930.00,0.84
6929.00,0.84
6928.00,0.83
6927.00,0.83
6926.00,0.83
6925.00,0.83
6924.00,0.83
6923.00,0.82
6922.00,0.82
6921.00,0.82
6920.00,0.82
6919.00,0.82
6918.00,0.82
6917.00,0.82
6916.00,0.82
6915.00,0.82
6914.00,0.82
6913.00,0.82
6912.00,0.82
6911.00,0.82
6910.00,0.82
6909.00,0.82
6908.00,0.82
6907.00,0.82
6906.00,0.82
6905.00,0.82
6904.00,0.82
6903.00,0.81
6902.00,0.81
6901.00,0.81
6900.00,0.81
6899.00,0.81
6898.00,0.81
6897.00,0.81
6896.00,0.81
6895.00,0.81
6894.00,0.81
6893.00,0.80
6892.00,0.80
6891.00,0.80
6890.00,0.80
6889.00,0.80
6888.00,0.80
6887.00,0.80
6886.00,0.80
6885.00,0.80
6884.00,0.80
6883.00,0.80
6882.00,0.80
6881.00,0.80
6880.00,0.80
6879.00,0.80
6878.00,0.80
6877.00,0.80
6876.00,0.80
6875.00,0.80
6874.00,0.80
6873.00,0.80
6872.00,0.80
6871.00,0.80
6870.00,0.80
6869.00,0.80
6868.00,0.80
6867.00,0.80
6866.00,0.80
6865.00,0.80
6864.00,0.80
6863.00,0.80
6862.00,0.80
6861.00,0.80
6860.00,0.80
6859.00,0.80
6858.00,0.80
6857.00,0.79
6856.00,0.79
6855.00,0.79
6854.00,0.79
6853.00,0.79
6852.00,0.79
6851.00,0.79
6850.00,0.79
6849.00,0.78
6848.00,0.78
6847.00,0.78
6846.00,0.78
6845.00,0.78
6844.00,0.78
6843.00,0.78
6842.00,0.78
6841.00,0.78
6840.00,0.78
6839.00,0.78
6838.00,0.78
6837.00,0.78
6836.00,0.78
6835.00,0.78
6834.00,0.77
6833.00,0.77
6832.00,0.77
6831.00,0.77
6830.00,0.77
6829.00,0.77
6828.00,0.77
6827.00,0.77
6826.00,0.77
6825.00,0.77
6824.00,0.77
6823.00,0.77
6822.00,0.77
6821.00,0.77
6820.00,0.77
6819.00,0.77
6818.00,0.77
6817.00,0.77
6816.00,0.77
6815.00,0.78
6814.00,0.78
6813.00,0.78
6812.00,0.78
6811.00,0.78
6810.00,0.78
6809.00,0.79
6808.00,0.79
6807.00,0.79
6806.00,0.79
6805.00,0.80
6804.00,0.80
6803.00,0.80
6802.00,0.81
6801.00,0.81
6800.00,0.81
6799.00,0.82
6798.00,0.82
6797.00,0.82
6796.00,0.83
6795.00,0.83
6794.00,0.83
6793.00,0.84
6792.00,0.84
6791.00,0.85
6790.00,0.85
6789.00,0.86
6788.00,0.86
6787.00,0.86
6786.00,0.87
6785.00,0.87
6784.00,0.87
6783.00,0.88
6782.00,0.88
6781.00,0.88
6780.00,0.89
6779.00,0.89
6778.00,0.89
6777.00,0.89
6776.00,0.90
6775.00,0.90
6774.00,0.90
6773.00,0.90
6772.00,0.90
6771.00,0.91
6770.00,0.91
6769.00,0.91
6768.00,0.91
6767.00,0.91
6766.00,0.91
6765.00,0.91
6764.00,0.91
6763.00,0.91
6762.00,0.91
6761.00,0.91
6760.00,0.91
6759.00,0.91
6758.00,0.90
6757.00,0.90
6756.00,0.90
6755.00,0.90
6754.00,0.90
6753.00,0.90
6752.00,0.90
6751.00,0.90
6750.00,0.90
6749.00,0.90
6748.00,0.90
6747.00,0.90
6746.00,0.90
6745.00,0.90
6744.00,0.90
6743.00,0.90
6742.00,0.90
6741.00,0.91
6740.00,0.91
6739.00,0.91
6738.00,0.91
6737.00,0.92
6736.00,0.92
6735.00,0.92
6734.00,0.93
6733.00,0.93
6732.00,0.93
6731.00,0.94
6730.00,0.94
6729.00,0.94
6728.00,0.94
6727.00,0.95
6726.00,0.95
6725.00,0.95
6724.00,0.95
6723.00,0.95
6722.00,0.95
6721.00,0.96
6720.00,0.96
6719.00,0.96
6718.00,0.96
6717.00,0.96
6716.00,0.96
6715.00,0.96
6714.00,0.96
6713.00,0.96
6712.00,0.96
6711.00,0.96
6710.00,0.96
6709.00,0.96
6708.00,0.96
6707.00,0.96
6706.00,0.96
6705.00,0.96
6704.00,0.96
6703.00,0.96
6702.00,0.96
6701.00,0.96
6700.00,0.96
6699.00,0.96
6698.00,0.96
6697.00,0.96
6696.00,0.96
6695.00,0.96
6694.00,0.97
6693.00,0.97
6692.00,0.97
6691.00,0.97
6690.00,0.97
6689.00,0.97
6688.00,0.97
6687.00,0.97
6686.00,0.97
6685.00,0.97
6684.00,0.97
6683.00,0.97
6682.00,0.98
6681.00,0.98
6680.00,0.98
6679.00,0.98
6678.00,0.98
6677.00,0.98
6676.00,0.98
6675.00,0.98
6674.00,0.98
6673.00,0.98
6672.00,0.98
6671.00,0.99
6670.00,0.99
6669.00,0.99
6668.00,0.99
6667.00,0.99
6666.00,0.99
6665.00,0.99
6664.00,1.00
6663.00,1.00
6662.00,1.00
6661.00,1.00
6660.00,1.00
6659.00,1.01
6658.00,1.01
6657.00,1.01
6656.00,1.01
6655.00,1.01
6654.00,1.02
6653.00,1.02
6652.00,1.02
6651.00,1.02
6650.00,1.02
6649.00,1.03
6648.00,1.03
6647.00,1.03
6646.00,1.03
6645.00,1.03
6644.00,1.04
6643.00,1.04
6642.00,1.04
6641.00,1.04
6640.00,1.04
6639.00,1.05
6638.00,1.05
6637.00,1.05
6636.00,1.05
6635.00,1.05
6634.00,1.06
6633.00,1.06
6632.00,1.06
6631.00,1.06
6630.00,1.06
6629.00,1.06
6628.00,1.06
6627.00,1.07
6626.00,1.07
6625.00,1.07
6624.00,1.07
6623.00,1.07
6622.00,1.07
6621.00,1.07
6620.00,1.08
6619.00,1.08
6618.00,1.08
6617.00,1.08
6616.00,1.08
6615.00,1.08
6614.00,1.08
6613.00,1.09
6612.00,1.09
6611.00,1.09
6610.00,1.09
6609.00,1.09
6608.00,1.09
6607.00,1.09
6606.00,1.09
6605.00,1.09
6604.00,1.10
6603.00,1.10
6602.00,1.10
6601.00,1.10
6600.00,1.10
6599.00,1.10
6598.00,1.10
6597.00,1.11
6596.00,1.11
6595.00,1.11
6594.00,1.11
6593.00,1.11
6592.00,1.11
6591.00,1.11
6590.00,1.11
6589.00,1.11
6588.00,1.12
6587.00,1.12
6586.00,1.12
6585.00,1.12
6584.00,1.12
6583.00,1.12
6582.00,1.12
6581.00,1.12
6580.00,1.13
6579.00,1.13
6578.00,1.13
6577.00,1.13
6576.00,1.13
6575.00,1.13
6574.00,1.13
6573.00,1.13
6572.00,1.14
6571.00,1.14
6570.00,1.14
6569.00,1.14
6568.00,1.15
6567.00,1.15
6566.00,1.15
6565.00,1.15
6564.00,1.15
6563.00,1.16
6562.00,1.16
6561.00,1.16
6560.00,1.16
6559.00,1.17
6558.00,1.17
6557.00,1.17
6556.00,1.17
6555.00,1.18
6554.00,1.18
6553.00,1.18
6552.00,1.18
6551.00,1.19
6550.00,1.19
6549.00,1.19
6548.00,1.19
6547.00,1.19
6546.00,1.20
6545.00,1.20
6544.00,1.20
6543.00,1.20
6542.00,1.20
6541.00,1.20
6540.00,1.21
6539.00,1.21
6538.00,1.21
6537.00,1.21
6536.00,1.21
6535.00,1.21
6534.00,1.21
6533.00,1.21
6532.00,1.22
6531.00,1.22
6530.00,1.22
6529.00,1.22
6528.00,1.22
6527.00,1.22
6526.00,1.22
6525.00,1.22
6524.00,1.22
6523.00,1.21
6522.00,1.21
6521.00,1.21
6520.00,1.21
6519.00,1.21
6518.00,1.21
6517.00,1.21
6516.00,1.21
6515.00,1.21
6514.00,1.21
6513.00,1.21
6512.00,1.21
6511.00,1.21
6510.00,1.21
6509.00,1.21
6508.00,1.21
6507.00,1.21
6506.00,1.21
6505.00,1.21
6504.00,1.21
6503.00,1.21
6502.00,1.21
6501.00,1.21
6500.00,1.22
6499.00,1.22
6498.00,1.22
6497.00,1.22
6496.00,1.22
6495.00,1.22
6494.00,1.22
6493.00,1.22
6492.00,1.22
6491.00,1.23
6490.00,1.23
6489.00,1.23
6488.00,1.23
6487.00,1.23
6486.00,1.23
6485.00,1.23
6484.00,1.23
6483.00,1.23
6482.00,1.23
6481.00,1.24
6480.00,1.24
6479.00,1.24
6478.00,1.24
6477.00,1.24
6476.00,1.24
6475.00,1.24
6474.00,1.24
6473.00,1.24
6472.00,1.23
6471.00,1.23
6470.00,1.23
6469.00,1.23
6468.00,1.23
6467.00,1.23
6466.00,1.23
6465.00,1.23
6464.00,1.23
6463.00,1.23
6462.00,1.23
6461.00,1.23
6460.00,1.23
6459.00,1.23
6458.00,1.23
6457.00,1.23
6456.00,1.23
6455.00,1.23
6454.00,1.23
6453.00,1.23
6452.00,1.24
6451.00,1.24
6450.00,1.24
6449.00,1.24
6448.00,1.25
6447.00,1.25
6446.00,1.25
6445.00,1.26
6444.00,1.26
6443.00,1.27
6442.00,1.27
6441.00,1.28
6440.00,1.28
6439.00,1.29
6438.00,1.29
6437.00,1.30
6436.00,1.30
6435.00,1.30
6434.00,1.31
6433.00,1.31
6432.00,1.32
6431.00,1.32
6430.00,1.32
6429.00,1.33
6428.00,1.33
6427.00,1.33
6426.00,1.34
6425.00,1.34
6424.00,1.34
6423.00,1.34
6422.00,1.35
6421.00,1.35
6420.00,1.35
6419.00,1.35
6418.00,1.35
6417.00,1.35
6416.00,1.35
6415.00,1.35
6414.00,1.35
6413.00,1.35
6412.00,1.35
6411.00,1.35
6410.00,1.35
6409.00,1.35
6408.00,1.34
6407.00,1.35
6406.00,1.35
6405.00,1.35
6404.00,1.35
6403.00,1.35
6402.00,1.35
6401.00,1.35
6400.00,1.35
6399.00,1.35
6398.00,1.35
6397.00,1.35
6396.00,1.35
6395.00,1.35
6394.00,1.35
6393.00,1.35
6392.00,1.36
6391.00,1.36
6390.00,1.36
6389.00,1.36
6388.00,1.37
6387.00,1.37
6386.00,1.37
6385.00,1.37
6384.00,1.38
6383.00,1.38
6382.00,1.38
6381.00,1.39
6380.00,1.39
6379.00,1.39
6378.00,1.39
6377.00,1.39
6376.00,1.40
6375.00,1.40
6374.00,1.40
6373.00,1.40
6372.00,1.40
6371.00,1.40
6370.00,1.40
6369.00,1.41
6368.00,1.41
6367.00,1.41
6366.00,1.41
6365.00,1.41
6364.00,1.41
6363.00,1.41
6362.00,1.41
6361.00,1.41
6360.00,1.41
6359.00,1.41
6358.00,1.41
6357.00,1.41
6356.00,1.41
6355.00,1.41
6354.00,1.41
6353.00,1.40
6352.00,1.40
6351.00,1.40
6350.00,1.40
6349.00,1.41
6348.00,1.41
6347.00,1.41
6346.00,1.41
6345.00,1.41
6344.00,1.41
6343.00,1.41
6342.00,1.41
6341.00,1.41
6340.00,1.42
6339.00,1.42
6338.00,1.42
6337.00,1.42
6336.00,1.42
6335.00,1.43
6334.00,1.43
6333.00,1.43
6332.00,1.43
6331.00,1.44
6330.00,1.44
6329.00,1.44
6328.00,1.44
6327.00,1.44
6326.00,1.45
6325.00,1.45
6324.00,1.45
6323.00,1.45
6322.00,1.45
6321.00,1.46
6320.00,1.46
6319.00,1.46
6318.00,1.46
6317.00,1.46
6316.00,1.46
6315.00,1.46
6314.00,1.46
6313.00,1.47
6312.00,1.47
6311.00,1.47
6310.00,1.47
6309.00,1.47
6308.00,1.47
6307.00,1.47
6306.00,1.47
6305.00,1.47
6304.00,1.47
6303.00,1.47
6302.00,1.47
6301.00,1.47
6300.00,1.47
6299.00,1.47
6298.00,1.47
6297.00,1.47
6296.00,1.47
6295.00,1.47
6294.00,1.47
6293.00,1.47
6292.00,1.47
6291.00,1.47
6290.00,1.48
6289.00,1.48
6288.00,1.48
6287.00,1.48
6286.00,1.48
6285.00,1.48
6284.00,1.48
6283.00,1.49
6282.00,1.49
6281.00,1.49
6280.00,1.49
6279.00,1.50
6278.00,1.50
6277.00,1.50
6276.00,1.50
6275.00,1.51
6274.00,1.51
6273.00,1.51
6272.00,1.51
6271.00,1.51
6270.00,1.52
6269.00,1.52
6268.00,1.52
6267.00,1.52
6266.00,1.52
6265.00,1.52
6264.00,1.52
6263.00,1.53
6262.00,1.53
6261.00,1.53
6260.00,1.53
6259.00,1.53
6258.00,1.53
6257.00,1.54
6256.00,1.54
6255.00,1.54
6254.00,1.54
6253.00,1.54
6252.00,1.54
6251.00,1.54
6250.00,1.55
6249.00,1.55
6248.00,1.55
6247.00,1.55
6246.00,1.55
6245.00,1.55
6244.00,1.55
6243.00,1.55
6242.00,1.55
6241.00,1.55
6240.00,1.56
6239.00,1.56
6238.00,1.56
6237.00,1.56
6236.00,1.56
6235.00,1.56
6234.00,1.56
6233.00,1.56
6232.00,1.57
6231.00,1.57
6230.00,1.57
6229.00,1.57
6228.00,1.57
6227.00,1.58
6226.00,1.58
6225.00,1.58
6224.00,1.58
6223.00,1.58
6222.00,1.59
6221.00,1.59
6220.00,1.59
6219.00,1.59
6218.00,1.60
6217.00,1.60
6216.00,1.60
6215.00,1.60
6214.00,1.61
6213.00,1.61
6212.00,1.61
6211.00,1.61
6210.00,1.61
6209.00,1.61
6208.00,1.61
6207.00,1.61
6206.00,1.61
6205.00,1.61
6204.00,1.61
6203.00,1.61
6202.00,1.61
6201.00,1.60
6200.00,1.60
6199.00,1.60
6198.00,1.60
6197.00,1.60
6196.00,1.60
6195.00,1.59
6194.00,1.59
6193.00,1.59
6192.00,1.59
6191.00,1.58
6190.00,1.58
6189.00,1.58
6188.00,1.58
6187.00,1.58
6186.00,1.58
6185.00,1.58
6184.00,1.58
6183.00,1.57
6182.00,1.57
6181.00,1.57
6180.00,1.57
6179.00,1.58
6178.00,1.58
6177.00,1.58
6176.00,1.58
6175.00,1.58
6174.00,1.58
6173.00,1.58
6172.00,1.59
6171.00,1.59
6170.00,1.59
6169.00,1.60
6168.00,1.60
6167.00,1.60
6166.00,1.61
6165.00,1.61
6164.00,1.61
6163.00,1.62
6162.00,1.62
6161.00,1.62
6160.00,1.63
6159.00,1.63
6158.00,1.64
6157.00,1.64
6156.00,1.64
6155.00,1.65
6154.00,1.65
6153.00,1.66
6152.00,1.66
6151.00,1.66
6150.00,1.67
6149.00,1.67
6148.00,1.67
6147.00,1.67
6146.00,1.67
6145.00,1.67
6144.00,1.68
6143.00,1.68
6142.00,1.68
6141.00,1.68
6140.00,1.68
6139.00,1.68
6138.00,1.68
6137.00,1.68
6136.00,1.68
6135.00,1.68
6134.00,1.68
6133.00,1.68
6132.00,1.68
6131.00,1.68
6130.00,1.68
6129.00,1.68
6128.00,1.68
6127.00,1.68
6126.00,1.68
6125.00,1.68
6124.00,1.68
6123.00,1.68
6122.00,1.68
6121.00,1.68
6120.00,1.68
6119.00,1.68
6118.00,1.68
6117.00,1.68
6116.00,1.69
6115.00,1.69
6114.00,1.69
6113.00,1.69
6112.00,1.69
6111.00,1.69
6110.00,1.69
6109.00,1.69
6108.00,1.70
6107.00,1.70
6106.00,1.70
6105.00,1.70
6104.00,1.70
6103.00,1.70
6102.00,1.71
6101.00,1.71
6100.00,1.71
6099.00,1.72
6098.00,1.72
6097.00,1.72
6096.00,1.72
6095.00,1.73
6094.00,1.73
6093.00,1.73
6092.00,1.73
6091.00,1.73
6090.00,1.74
6089.00,1.74
6088.00,1.74
6087.00,1.74
6086.00,1.75
6085.00,1.75
6084.00,1.75
6083.00,1.75
6082.00,1.76
6081.00,1.76
6080.00,1.76
6079.00,1.76
6078.00,1.76
6077.00,1.77
6076.00,1.77
6075.00,1.77
6074.00,1.77
6073.00,1.77
6072.00,1.77
6071.00,1.77
6070.00,1.77
6069.00,1.77
6068.00,1.77
6067.00,1.77
6066.00,1.77
6065.00,1.77
6064.00,1.77
6063.00,1.77
6062.00,1.77
6061.00,1.78
6060.00,1.78
6059.00,1.77
6058.00,1.77
6057.00,1.77
6056.00,1.77
6055.00,1.77
6054.00,1.77
6053.00,1.77
6052.00,1.77
6051.00,1.78
6050.00,1.78
6049.00,1.78
6048.00,1.78
6047.00,1.78
6046.00,1.78
6045.00,1.78
6044.00,1.78
6043.00,1.78
6042.00,1.78
6041.00,1.78
6040.00,1.78
6039.00,1.78
6038.00,1.78
6037.00,1.78
6036.00,1.78
6035.00,1.78
6034.00,1.78
6033.00,1.78
6032.00,1.78
6031.00,1.78
6030.00,1.78
6029.00,1.78
6028.00,1.78
6027.00,1.78
6026.00,1.78
6025.00,1.78
6024.00,1.78
6023.00,1.78
6022.00,1.78
6021.00,1.78
6020.00,1.78
6019.00,1.79
6018.00,1.79
6017.00,1.79
6016.00,1.79
6015.00,1.79
6014.00,1.79
6013.00,1.79
6012.00,1.79
6011.00,1.79
6010.00,1.79
6009.00,1.79
6008.00,1.79
6007.00,1.79
6006.00,1.79
6005.00,1.79
6004.00,1.79
6003.00,1.79
6002.00,1.79
6001.00,1.79
6000.00,1.79
5999.00,1.78
5998.00,1.78
5997.00,1.78
5996.00,1.78
5995.00,1.78
5994.00,1.78
5993.00,1.78
5992.00,1.78
5991.00,1.78
5990.00,1.78
5989.00,1.77
5988.00,1.77
5987.00,1.77
5986.00,1.77
5985.00,1.77
5984.00,1.77
5983.00,1.77
5982.00,1.77
5981.00,1.76
5980.00,1.76
5979.00,1.76
5978.00,1.76
5977.00,1.75
5976.00,1.75
5975.00,1.75
5974.00,1.75
5973.00,1.74
5972.00,1.74
5971.00,1.74
5970.00,1.73
5969.00,1.73
5968.00,1.72
5967.00,1.72
5966.00,1.72
5965.00,1.71
5964.00,1.71
5963.00,1.71
5962.00,1.70
5961.00,1.70
5960.00,1.70
5959.00,1.69
5958.00,1.69
5957.00,1.69
5956.00,1.68
5955.00,1.68
5954.00,1.68
5953.00,1.68
5952.00,1.67
5951.00,1.67
5950.00,1.67
5949.00,1.67
5948.00,1.67
5947.00,1.66
5946.00,1.66
5945.00,1.66
5944.00,1.66
5943.00,1.66
5942.00,1.66
5941.00,1.66
5940.00,1.65
5939.00,1.65
5938.00,1.65
5937.00,1.65
5936.00,1.65
5935.00,1.64
5934.00,1.64
5933.00,1.64
5932.00,1.64
5931.00,1.63
5930.00,1.63
5929.00,1.63
5928.00,1.63
5927.00,1.62
5926.00,1.62
5925.00,1.62
5924.00,1.62
5923.00,1.61
5922.00,1.61
5921.00,1.61
5920.00,1.60
5919.00,1.60
5918.00,1.60
5917.00,1.60
5916.00,1.59
5915.00,1.59
5914.00,1.59
5913.00,1.59
5912.00,1.59
5911.00,1.59
5910.00,1.59
5909.00,1.59
5908.00,1.59
5907.00,1.59
5906.00,1.59
5905.00,1.59
5904.00,1.59
5903.00,1.59
5902.00,1.59
5901.00,1.60
5900.00,1.60
5899.00,1.60
5898.00,1.60
5897.00,1.60
5896.00,1.60
5895.00,1.60
5894.00,1.61
5893.00,1.61
5892.00,1.61
5891.00,1.61
5890.00,1.61
5889.00,1.61
5888.00,1.61
5887.00,1.62
5886.00,1.62
5885.00,1.62
5884.00,1.62
5883.00,1.62
5882.00,1.62
5881.00,1.62
5880.00,1.62
5879.00,1.62
5878.00,1.62
5877.00,1.61
5876.00,1.61
5875.00,1.61
5874.00,1.62
5873.00,1.62
5872.00,1.62
5871.00,1.62
5870.00,1.62
5869.00,1.62
5868.00,1.62
5867.00,1.62
5866.00,1.63
5865.00,1.63
5864.00,1.63
5863.00,1.63
5862.00,1.63
5861.00,1.63
5860.00,1.63
5859.00,1.64
5858.00,1.64
5857.00,1.64
5856.00,1.64
5855.00,1.64
5854.00,1.65
5853.00,1.65
5852.00,1.65
5851.00,1.65
5850.00,1.65
5849.00,1.65
5848.00,1.66
5847.00,1.66
5846.00,1.66
5845.00,1.66
5844.00,1.66
5843.00,1.66
5842.00,1.66
5841.00,1.66
5840.00,1.66
5839.00,1.67
5838.00,1.67
5837.00,1.67
5836.00,1.67
5835.00,1.67
5834.00,1.67
5833.00,1.68
5832.00,1.68
5831.00,1.68
5830.00,1.68
5829.00,1.68
5828.00,1.68
5827.00,1.68
5826.00,1.68
5825.00,1.68
5824.00,1.68
5823.00,1.68
5822.00,1.69
5821.00,1.69
5820.00,1.69
5819.00,1.69
5818.00,1.69
5817.00,1.68
5816.00,1.68
5815.00,1.68
5814.00,1.68
5813.00,1.68
5812.00,1.68
5811.00,1.68
5810.00,1.68
5809.00,1.68
5808.00,1.67
5807.00,1.67
5806.00,1.67
5805.00,1.67
5804.00,1.66
5803.00,1.66
5802.00,1.66
5801.00,1.66
5800.00,1.66
5799.00,1.65
5798.00,1.65
5797.00,1.65
5796.00,1.65
5795.00,1.65
5794.00,1.64
5793.00,1.64
5792.00,1.64
5791.00,1.64
5790.00,1.64
5789.00,1.63
5788.00,1.63
5787.00,1.63
5786.00,1.63
5785.00,1.62
5784.00,1.62
5783.00,1.62
5782.00,1.62
5781.00,1.62
5780.00,1.62
5779.00,1.62
5778.00,1.62
5777.00,1.61
5776.00,1.61
5775.00,1.61
5774.00,1.61
5773.00,1.61
5772.00,1.61
5771.00,1.61
5770.00,1.61
5769.00,1.61
5768.00,1.61
5767.00,1.61
5766.00,1.61
5765.00,1.61
5764.00,1.62
5763.00,1.62
5762.00,1.62
5761.00,1.62
5760.00,1.62
5759.00,1.63
5758.00,1.63
5757.00,1.63
5756.00,1.63
5755.00,1.64
5754.00,1.64
5753.00,1.64
5752.00,1.65
5751.00,1.65
5750.00,1.65
5749.00,1.66
5748.00,1.66
5747.00,1.66
5746.00,1.66
5745.00,1.67
5744.00,1.67
5743.00,1.67
5742.00,1.67
5741.00,1.68
5740.00,1.68
5739.00,1.68
5738.00,1.68
5737.00,1.68
5736.00,1.68
5735.00,1.68
5734.00,1.68
5733.00,1.68
5732.00,1.68
5731.00,1.68
5730.00,1.68
5729.00,1.68
5728.00,1.68
5727.00,1.67
5726.00,1.67
5725.00,1.67
5724.00,1.67
5723.00,1.66
5722.00,1.66
5721.00,1.66
5720.00,1.66
5719.00,1.66
5718.00,1.65
5717.00,1.65
5716.00,1.65
5715.00,1.65
5714.00,1.65
5713.00,1.65
5712.00,1.64
5711.00,1.64
5710.00,1.64
5709.00,1.64
5708.00,1.64
5707.00,1.64
5706.00,1.64
5705.00,1.64
5704.00,1.64
5703.00,1.64
5702.00,1.64
5701.00,1.64
5700.00,1.64
5699.00,1.64
5698.00,1.64
5697.00,1.64
5696.00,1.64
5695.00,1.64
5694.00,1.64
5693.00,1.63
5692.00,1.63
5691.00,1.63
5690.00,1.63
5689.00,1.63
5688.00,1.63
5687.00,1.63
5686.00,1.63
5685.00,1.63
5684.00,1.63
5683.00,1.63
5682.00,1.62
5681.00,1.62
5680.00,1.62
5679.00,1.62
5678.00,1.62
5677.00,1.62
5676.00,1.61
5675.00,1.61
5674.00,1.61
5673.00,1.61
5672.00,1.61
5671.00,1.61
5670.00,1.61
5669.00,1.61
5668.00,1.61
5667.00,1.61
5666.00,1.61
5665.00,1.61
5664.00,1.61
5663.00,1.61
5662.00,1.61
5661.00,1.61
5660.00,1.61
5659.00,1.61
5658.00,1.61
5657.00,1.61
5656.00,1.61
5655.00,1.62
5654.00,1.62
5653.00,1.62
5652.00,1.62
5651.00,1.63
5650.00,1.63
5649.00,1.63
5648.00,1.64
5647.00,1.64
5646.00,1.64
5645.00,1.64
5644.00,1.64
5643.00,1.65
5642.00,1.65
5641.00,1.65
5640.00,1.65
5639.00,1.65
5638.00,1.65
5637.00,1.65
5636.00,1.65
5635.00,1.65
5634.00,1.65
5633.00,1.65
5632.00,1.65
5631.00,1.65
5630.00,1.65
5629.00,1.65
5628.00,1.65
5627.00,1.65
5626.00,1.65
5625.00,1.64
5624.00,1.64
5623.00,1.64
5622.00,1.64
5621.00,1.64
5620.00,1.64
5619.00,1.64
5618.00,1.64
5617.00,1.64
5616.00,1.64
5615.00,1.64
5614.00,1.64
5613.00,1.64
5612.00,1.64
5611.00,1.64
5610.00,1.64
5609.00,1.64
5608.00,1.64
5607.00,1.65
5606.00,1.65
5605.00,1.65
5604.00,1.65
5603.00,1.65
5602.00,1.66
5601.00,1.66
5600.00,1.66
5599.00,1.67
5598.00,1.67
5597.00,1.67
5596.00,1.67
5595.00,1.68
5594.00,1.68
5593.00,1.68
5592.00,1.69
5591.00,1.69
5590.00,1.69
5589.00,1.69
5588.00,1.70
5587.00,1.70
5586.00,1.70
5585.00,1.70
5584.00,1.71
5583.00,1.71
5582.00,1.71
5581.00,1.71
5580.00,1.71
5579.00,1.72
5578.00,1.72
5577.00,1.72
5576.00,1.72
5575.00,1.72
5574.00,1.73
5573.00,1.73
5572.00,1.73
5571.00,1.73
5570.00,1.73
5569.00,1.73
5568.00,1.73
5567.00,1.74
5566.00,1.74
5565.00,1.74
5564.00,1.74
5563.00,1.74
5562.00,1.74
5561.00,1.74
5560.00,1.74
5559.00,1.74
5558.00,1.74
5557.00,1.75
5556.00,1.75
5555.00,1.75
5554.00,1.75
5553.00,1.75
5552.00,1.75
5551.00,1.75
5550.00,1.75
5549.00,1.74
5548.00,1.74
5547.00,1.74
5546.00,1.74
5545.00,1.74
5544.00,1.74
5543.00,1.74
5542.00,1.74
5541.00,1.74
5540.00,1.74
5539.00,1.74
5538.00,1.73
5537.00,1.73
5536.00,1.73
5535.00,1.73
5534.00,1.73
5533.00,1.73
5532.00,1.73
5531.00,1.73
5530.00,1.73
5529.00,1.73
5528.00,1.73
5527.00,1.73
5526.00,1.73
5525.00,1.73
5524.00,1.73
5523.00,1.73
5522.00,1.73
5521.00,1.73
5520.00,1.73
5519.00,1.73
5518.00,1.74
5517.00,1.74
5516.00,1.74
5515.00,1.74
5514.00,1.74
5513.00,1.74
5512.00,1.74
5511.00,1.74
5510.00,1.74
5509.00,1.74
5508.00,1.74
5507.00,1.74
5506.00,1.74
5505.00,1.75
5504.00,1.75
5503.00,1.75
5502.00,1.75
5501.00,1.75
5500.00,1.75
5499.00,1.75
5498.00,1.75
5497.00,1.75
5496.00,1.75
5495.00,1.75
5494.00,1.75
5493.00,1.75
5492.00,1.75
5491.00,1.75
5490.00,1.75
5489.00,1.75
5488.00,1.75
5487.00,1.75
5486.00,1.75
5485.00,1.75
5484.00,1.76
5483.00,1.76
5482.00,1.76
5481.00,1.76
5480.00,1.76
5479.00,1.76
5478.00,1.76
5477.00,1.77
5476.00,1.77
5475.00,1.77
5474.00,1.77
5473.00,1.77
5472.00,1.77
5471.00,1.78
5470.00,1.78
5469.00,1.78
5468.00,1.78
5467.00,1.79
5466.00,1.79
5465.00,1.79
5464.00,1.79
5463.00,1.80
5462.00,1.80
5461.00,1.80
5460.00,1.81
5459.00,1.81
5458.00,1.81
5457.00,1.81
5456.00,1.81
5455.00,1.82
5454.00,1.82
5453.00,1.82
5452.00,1.82
5451.00,1.82
5450.00,1.82
5449.00,1.82
5448.00,1.82
5447.00,1.82
5446.00,1.82
5445.00,1.82
5444.00,1.82
5443.00,1.82
5442.00,1.82
5441.00,1.82
5440.00,1.82
5439.00,1.82
5438.00,1.81
5437.00,1.81
5436.00,1.81
5435.00,1.81
5434.00,1.81
5433.00,1.80
5432.00,1.80
5431.00,1.80
5430.00,1.80
5429.00,1.80
5428.00,1.80
5427.00,1.79
5426.00,1.79
5425.00,1.79
5424.00,1.79
5423.00,1.79
5422.00,1.79
5421.00,1.79
5420.00,1.79
5419.00,1.79
5418.00,1.79
5417.00,1.79
5416.00,1.79
5415.00,1.79
5414.00,1.79
5413.00,1.79
5412.00,1.79
5411.00,1.79
5410.00,1.79
5409.00,1.79
5408.00,1.79
5407.00,1.79
5406.00,1.79
5405.00,1.79
5404.00,1.79
5403.00,1.79
5402.00,1.79
5401.00,1.79
5400.00,1.79
5399.00,1.79
5398.00,1.78
5397.00,1.78
5396.00,1.78
5395.00,1.78
5394.00,1.78
5393.00,1.77
5392.00,1.77
5391.00,1.77
5390.00,1.76
5389.00,1.76
5388.00,1.76
5387.00,1.75
5386.00,1.75
5385.00,1.74
5384.00,1.74
5383.00,1.74
5382.00,1.73
5381.00,1.73
5380.00,1.72
5379.00,1.72
5378.00,1.71
5377.00,1.71
5376.00,1.70
5375.00,1.70
5374.00,1.69
5373.00,1.68
5372.00,1.68
5371.00,1.67
5370.00,1.66
5369.00,1.66
5368.00,1.65
5367.00,1.64
5366.00,1.64
5365.00,1.63
5364.00,1.62
5363.00,1.62
5362.00,1.61
5361.00,1.60
5360.00,1.60
5359.00,1.59
5358.00,1.58
5357.00,1.57
5356.00,1.57
5355.00,1.56
5354.00,1.55
5353.00,1.54
5352.00,1.53
5351.00,1.52
5350.00,1.52
5349.00,1.51
5348.00,1.50
5347.00,1.49
5346.00,1.48
5345.00,1.47
5344.00,1.46
5343.00,1.45
5342.00,1.44
5341.00,1.43
5340.00,1.42
5339.00,1.41
5338.00,1.40
5337.00,1.38
5336.00,1.37
5335.00,1.36
5334.00,1.34
5333.00,1.33
5332.00,1.32
5331.00,1.30
5330.00,1.29
5329.00,1.27
5328.00,1.26
5327.00,1.25
5326.00,1.23
5325.00,1.22
5324.00,1.20
5323.00,1.19
5322.00,1.17
5321.00,1.16
5320.00,1.15
5319.00,1.13
5318.00,1.11
5317.00,1.10
5316.00,1.08
5315.00,1.07
5314.00,1.05
5313.00,1.04
5312.00,1.03
5311.00,1.01
5310.00,1.00
5309.00,0.99
5308.00,0.97
5307.00,0.96
5306.00,0.95
5305.00,0.94
5304.00,0.92
5303.00,0.91
5302.00,0.90
5301.00,0.89
5300.00,0.88
5299.00,0.87
5298.00,0.86
5297.00,0.85
5296.00,0.84
5295.00,0.83
5294.00,0.82
5293.00,0.81
5292.00,0.81
5291.00,0.80
5290.00,0.79
5289.00,0.79
5288.00,0.78
5287.00,0.78
5286.00,0.77
5285.00,0.77
5284.00,0.76
5283.00,0.76
5282.00,0.75
5281.00,0.75
5280.00,0.75
5279.00,0.74
5278.00,0.74
5277.00,0.74
5276.00,0.74
5275.00,0.73
5274.00,0.73
5273.00,0.73
5272.00,0.73
5271.00,0.73
5270.00,0.72
5269.00,0.72
5268.00,0.72
5267.00,0.72
5266.00,0.72
5265.00,0.72
5264.00,0.72
5263.00,0.72
5262.00,0.72
5261.00,0.72
5260.00,0.72
5259.00,0.71
5258.00,0.71
5257.00,0.71
5256.00,0.71
5255.00,0.71
5254.00,0.71
5253.00,0.71
5252.00,0.71
5251.00,0.71
5250.00,0.71
5249.00,0.71
5248.00,0.70
5247.00,0.70
5246.00,0.70
5245.00,0.70
5244.00,0.70
5243.00,0.70
5242.00,0.70
5241.00,0.70
5240.00,0.70
5239.00,0.70
5238.00,0.70
5237.00,0.70
5236.00,0.70
5235.00,0.70
5234.00,0.70
5233.00,0.70
5232.00,0.70
5231.00,0.70
5230.00,0.70
5229.00,0.70
5228.00,0.70
5227.00,0.70
5226.00,0.70
5225.00,0.70
5224.00,0.70
5223.00,0.70
5222.00,0.70
5221.00,0.70
5220.00,0.70
5219.00,0.70
5218.00,0.70
5217.00,0.70
5216.00,0.70
5215.00,0.70
5214.00,0.70
5213.00,0.70
5212.00,0.70
5211.00,0.70
5210.00,0.70
5209.00,0.70
5208.00,0.70
5207.00,0.70
5206.00,0.70
5205.00,0.70
5204.00,0.70
5203.00,0.70
5202.00,0.70
5201.00,0.70
5200.00,0.71
5199.00,0.71
5198.00,0.71
5197.00,0.71
5196.00,0.71
5195.00,0.71
5194.00,0.71
5193.00,0.70
5192.00,0.70
5191.00,0.70
5190.00,0.70
5189.00,0.70
5188.00,0.70
5187.00,0.70
5186.00,0.70
5185.00,0.70
5184.00,0.70
5183.00,0.70
5182.00,0.70
5181.00,0.70
5180.00,0.69
5179.00,0.69
5178.00,0.69
5177.00,0.69
5176.00,0.69
5175.00,0.69
5174.00,0.69
5173.00,0.68
5172.00,0.68
5171.00,0.68
5170.00,0.68
5169.00,0.68
5168.00,0.68
5167.00,0.68
5166.00,0.68
5165.00,0.68
5164.00,0.67
5163.00,0.67
5162.00,0.67
5161.00,0.67
5160.00,0.67
5159.00,0.67
5158.00,0.67
5157.00,0.67
5156.00,0.68
5155.00,0.68
5154.00,0.68
5153.00,0.68
5152.00,0.68
5151.00,0.68
5150.00,0.68
5149.00,0.68
5148.00,0.69
5147.00,0.69
5146.00,0.69
5145.00,0.69
5144.00,0.70
5143.00,0.70
5142.00,0.70
5141.00,0.70
5140.00,0.71
5139.00,0.71
5138.00,0.71
5137.00,0.71
5136.00,0.71
5135.00,0.71
5134.00,0.72
5133.00,0.72
5132.00,0.72
5131.00,0.72
5130.00,0.72
5129.00,0.72
5128.00,0.72
5127.00,0.72
5126.00,0.72
5125.00,0.72
5124.00,0.72
5123.00,0.72
5122.00,0.72
5121.00,0.72
5120.00,0.72
5119.00,0.72
5118.00,0.72
5117.00,0.72
5116.00,0.72
5115.00,0.72
5114.00,0.72
5113.00,0.72
5112.00,0.72
5111.00,0.72
5110.00,0.72
5109.00,0.72
5108.00,0.72
5107.00,0.73
5106.00,0.73
5105.00,0.73
5104.00,0.73
5103.00,0.73
5102.00,0.73
5101.00,0.73
5100.00,0.73
5099.00,0.73
5098.00,0.73
5097.00,0.74
5096.00,0.74
5095.00,0.74
5094.00,0.74
5093.00,0.74
5092.00,0.74
5091.00,0.74
5090.00,0.75
5089.00,0.75
5088.00,0.75
5087.00,0.75
5086.00,0.75
5085.00,0.75
5084.00,0.75
5083.00,0.76
5082.00,0.76
5081.00,0.76
5080.00,0.76
5079.00,0.76
5078.00,0.76
5077.00,0.76
5076.00,0.76
5075.00,0.77
5074.00,0.77
5073.00,0.77
5072.00,0.77
5071.00,0.77
5070.00,0.77
5069.00,0.78
5068.00,0.78
5067.00,0.78
5066.00,0.78
5065.00,0.78
5064.00,0.78
5063.00,0.79
5062.00,0.79
5061.00,0.79
5060.00,0.79
5059.00,0.79
5058.00,0.79
5057.00,0.79
5056.00,0.79
5055.00,0.79
5054.00,0.79
5053.00,0.79
5052.00,0.80
5051.00,0.80
5050.00,0.80
5049.00,0.80
5048.00,0.80
5047.00,0.80
5046.00,0.80
5045.00,0.80
5044.00,0.80
5043.00,0.80
5042.00,0.80
5041.00,0.80
5040.00,0.80
5039.00,0.80
5038.00,0.80
5037.00,0.80
5036.00,0.80
5035.00,0.80
5034.00,0.80
5033.00,0.80
5032.00,0.80
5031.00,0.81
5030.00,0.81
5029.00,0.81
5028.00,0.81
5027.00,0.81
5026.00,0.81
5025.00,0.81
5024.00,0.81
5023.00,0.82
5022.00,0.82
5021.00,0.82
5020.00,0.82
5019.00,0.82
5018.00,0.83
5017.00,0.83
5016.00,0.83
5015.00,0.83
5014.00,0.83
5013.00,0.83
5012.00,0.84
5011.00,0.84
5010.00,0.84
5009.00,0.84
5008.00,0.84
5007.00,0.85
5006.00,0.85
5005.00,0.85
5004.00,0.85
5003.00,0.85
5002.00,0.86
5001.00,0.86
5000.00,0.86
4999.00,0.86
4998.00,0.86
4997.00,0.87
4996.00,0.87
4995.00,0.87
4994.00,0.87
4993.00,0.87
4992.00,0.87
4991.00,0.88
4990.00,0.88
4989.00,0.88
4988.00,0.88
4987.00,0.88
4986.00,0.89
4985.00,0.89
4984.00,0.89
4983.00,0.89
4982.00,0.89
4981.00,0.90
4980.00,0.90
4979.00,0.90
4978.00,0.90
4977.00,0.90
4976.00,0.91
4975.00,0.91
4974.00,0.91
4973.00,0.91
4972.00,0.91
4971.00,0.92
4970.00,0.92
4969.00,0.92
4968.00,0.92
4967.00,0.92
4966.00,0.92
4965.00,0.92
4964.00,0.93
4963.00,0.93
4962.00,0.93
4961.00,0.93
4960.00,0.93
4959.00,0.93
4958.00,0.93
4957.00,0.93
4956.00,0.93
4955.00,0.94
4954.00,0.94
4953.00,0.94
4952.00,0.94
4951.00,0.94
4950.00,0.94
4949.00,0.94
4948.00,0.94
4947.00,0.95
4946.00,0.95
4945.00,0.95
4944.00,0.95
4943.00,0.95
4942.00,0.95
4941.00,0.96
4940.00,0.96
4939.00,0.96
4938.00,0.96
4937.00,0.97
4936.00,0.97
4935.00,0.97
4934.00,0.97
4933.00,0.97
4932.00,0.97
4931.00,0.97
4930.00,0.98
4929.00,0.98
4928.00,0.98
4927.00,0.98
4926.00,0.98
4925.00,0.98
4924.00,0.98
4923.00,0.98
4922.00,0.98
4921.00,0.98
4920.00,0.98
4919.00,0.98
4918.00,0.98
4917.00,0.98
4916.00,0.97
4915.00,0.97
4914.00,0.97
4913.00,0.97
4912.00,0.97
4911.00,0.97
4910.00,0.97
4909.00,0.97
4908.00,0.98
4907.00,0.98
4906.00,0.98
4905.00,0.98
4904.00,0.98
4903.00,0.99
4902.00,0.99
4901.00,0.99
4900.00,0.99
4899.00,1.00
4898.00,1.00
4897.00,1.00
4896.00,1.01
4895.00,1.01
4894.00,1.02
4893.00,1.02
4892.00,1.03
4891.00,1.03
4890.00,1.04
4889.00,1.04
4888.00,1.04
4887.00,1.05
4886.00,1.05
4885.00,1.06
4884.00,1.06
4883.00,1.06
4882.00,1.06
4881.00,1.07
4880.00,1.07
4879.00,1.07
4878.00,1.07
4877.00,1.07
4876.00,1.07
4875.00,1.07
4874.00,1.07
4873.00,1.08
4872.00,1.08
4871.00,1.08
4870.00,1.08
4869.00,1.08
4868.00,1.08
4867.00,1.08
4866.00,1.08
4865.00,1.08
4864.00,1.08
4863.00,1.08
4862.00,1.08
4861.00,1.08
4860.00,1.08
4859.00,1.08
4858.00,1.08
4857.00,1.09
4856.00,1.09
4855.00,1.09
4854.00,1.09
4853.00,1.09
4852.00,1.09
4851.00,1.09
4850.00,1.09
4849.00,1.09
4848.00,1.09
4847.00,1.10
4846.00,1.10
4845.00,1.10
4844.00,1.10
4843.00,1.10
4842.00,1.10
4841.00,1.10
4840.00,1.10
4839.00,1.10
4838.00,1.10
4837.00,1.10
4836.00,1.10
4835.00,1.10
4834.00,1.10
4833.00,1.10
4832.00,1.10
4831.00,1.11
4830.00,1.11
4829.00,1.11
4828.00,1.11
4827.00,1.11
4826.00,1.12
4825.00,1.12
4824.00,1.12
4823.00,1.12
4822.00,1.13
4821.00,1.13
4820.00,1.13
4819.00,1.14
4818.00,1.14
4817.00,1.15
4816.00,1.15
4815.00,1.15
4814.00,1.16
4813.00,1.16
4812.00,1.17
4811.00,1.17
4810.00,1.17
4809.00,1.18
4808.00,1.18
4807.00,1.18
4806.00,1.19
4805.00,1.19
4804.00,1.19
4803.00,1.20
4802.00,1.20
4801.00,1.20
4800.00,1.21
4799.00,1.21
4798.00,1.21
4797.00,1.22
4796.00,1.22
4795.00,1.22
4794.00,1.22
4793.00,1.22
4792.00,1.23
4791.00,1.23
4790.00,1.23
4789.00,1.23
4788.00,1.23
4787.00,1.23
4786.00,1.24
4785.00,1.24
4784.00,1.24
4783.00,1.24
4782.00,1.25
4781.00,1.25
4780.00,1.25
4779.00,1.25
4778.00,1.25
4777.00,1.25
4776.00,1.25
4775.00,1.26
4774.00,1.26
4773.00,1.26
4772.00,1.26
4771.00,1.26
4770.00,1.26
4769.00,1.27
4768.00,1.27
4767.00,1.27
4766.00,1.28
4765.00,1.28
4764.00,1.28
4763.00,1.29
4762.00,1.29
4761.00,1.29
4760.00,1.30
4759.00,1.30
4758.00,1.30
4757.00,1.31
4756.00,1.31
4755.00,1.31
4754.00,1.32
4753.00,1.32
4752.00,1.33
4751.00,1.33
4750.00,1.34
4749.00,1.34
4748.00,1.35
4747.00,1.35
4746.00,1.36
4745.00,1.36
4744.00,1.36
4743.00,1.37
4742.00,1.37
4741.00,1.37
4740.00,1.38
4739.00,1.38
4738.00,1.38
4737.00,1.39
4736.00,1.39
4735.00,1.39
4734.00,1.39
4733.00,1.40
4732.00,1.40
4731.00,1.40
4730.00,1.41
4729.00,1.41
4728.00,1.41
4727.00,1.42
4726.00,1.42
4725.00,1.42
4724.00,1.43
4723.00,1.43
4722.00,1.43
4721.00,1.44
4720.00,1.44
4719.00,1.45
4718.00,1.45
4717.00,1.46
4716.00,1.46
4715.00,1.47
4714.00,1.47
4713.00,1.48
4712.00,1.48
4711.00,1.48
4710.00,1.49
4709.00,1.49
4708.00,1.50
4707.00,1.50
4706.00,1.50
4705.00,1.51
4704.00,1.51
4703.00,1.51
4702.00,1.51
4701.00,1.52
4700.00,1.52
4699.00,1.52
4698.00,1.52
4697.00,1.52
4696.00,1.53
4695.00,1.53
4694.00,1.53
4693.00,1.53
4692.00,1.53
4691.00,1.53
4690.00,1.53
4689.00,1.54
4688.00,1.54
4687.00,1.54
4686.00,1.54
4685.00,1.54
4684.00,1.55
4683.00,1.55
4682.00,1.55
4681.00,1.55
4680.00,1.56
4679.00,1.56
4678.00,1.56
4677.00,1.56
4676.00,1.57
4675.00,1.57
4674.00,1.57
4673.00,1.57
4672.00,1.58
4671.00,1.58
4670.00,1.58
4669.00,1.59
4668.00,1.59
4667.00,1.59
4666.00,1.59
4665.00,1.60
4664.00,1.60
4663.00,1.60
4662.00,1.61
4661.00,1.61
4660.00,1.61
4659.00,1.61
4658.00,1.61
4657.00,1.62
4656.00,1.62
4655.00,1.62
4654.00,1.62
4653.00,1.62
4652.00,1.62
4651.00,1.62
4650.00,1.62
4649.00,1.62
4648.00,1.62
4647.00,1.63
4646.00,1.63
4645.00,1.63
4644.00,1.63
4643.00,1.63
4642.00,1.63
4641.00,1.63
4640.00,1.63
4639.00,1.63
4638.00,1.63
4637.00,1.63
4636.00,1.63
4635.00,1.63
4634.00,1.63
4633.00,1.63
4632.00,1.63
4631.00,1.63
4630.00,1.63
4629.00,1.63
4628.00,1.63
4627.00,1.63
4626.00,1.63
4625.00,1.63
4624.00,1.63
4623.00,1.64
4622.00,1.64
4621.00,1.64
4620.00,1.64
4619.00,1.64
4618.00,1.64
4617.00,1.64
4616.00,1.65
4615.00,1.65
4614.00,1.65
4613.00,1.65
4612.00,1.65
4611.00,1.66
4610.00,1.66
4609.00,1.66
4608.00,1.66
4607.00,1.67
4606.00,1.67
4605.00,1.67
4604.00,1.67
4603.00,1.68
4602.00,1.68
4601.00,1.68
4600.00,1.68
4599.00,1.68
4598.00,1.69
4597.00,1.69
4596.00,1.69
4595.00,1.69
4594.00,1.69
4593.00,1.70
4592.00,1.70
4591.00,1.70
4590.00,1.70
4589.00,1.70
4588.00,1.70
4587.00,1.70
4586.00,1.70
4585.00,1.70
4584.00,1.70
4583.00,1.70
4582.00,1.70
4581.00,1.70
4580.00,1.70
4579.00,1.70
4578.00,1.70
4577.00,1.70
4576.00,1.70
4575.00,1.70
4574.00,1.70
4573.00,1.70
4572.00,1.70
4571.00,1.69
4570.00,1.69
4569.00,1.69
4568.00,1.69
4567.00,1.69
4566.00,1.69
4565.00,1.69
4564.00,1.69
4563.00,1.69
4562.00,1.69
4561.00,1.69
4560.00,1.69
4559.00,1.70
4558.00,1.70
4557.00,1.70
4556.00,1.70
4555.00,1.70
4554.00,1.70
4553.00,1.70
4552.00,1.71
4551.00,1.71
4550.00,1.71
4549.00,1.71
4548.00,1.71
4547.00,1.71
4546.00,1.71
4545.00,1.71
4544.00,1.71
4543.00,1.72
4542.00,1.72
4541.00,1.72
4540.00,1.72
4539.00,1.72
4538.00,1.72
4537.00,1.72
4536.00,1.72
4535.00,1.72
4534.00,1.73
4533.00,1.73
4532.00,1.73
4531.00,1.73
4530.00,1.73
4529.00,1.73
4528.00,1.73
4527.00,1.73
4526.00,1.73
4525.00,1.73
4524.00,1.74
4523.00,1.74
4522.00,1.74
4521.00,1.74
4520.00,1.74
4519.00,1.75
4518.00,1.75
4517.00,1.75
4516.00,1.76
4515.00,1.76
4514.00,1.76
4513.00,1.77
4512.00,1.77
4511.00,1.77
4510.00,1.78
4509.00,1.78
4508.00,1.78
4507.00,1.78
4506.00,1.78
4505.00,1.78
4504.00,1.78
4503.00,1.79
4502.00,1.79
4501.00,1.79
4500.00,1.79
4499.00,1.79
4498.00,1.79
4497.00,1.79
4496.00,1.79
4495.00,1.79
4494.00,1.79
4493.00,1.78
4492.00,1.78
4491.00,1.78
4490.00,1.78
4489.00,1.77
4488.00,1.77
4487.00,1.77
4486.00,1.77
4485.00,1.76
4484.00,1.76
4483.00,1.76
4482.00,1.76
4481.00,1.76
4480.00,1.76
4479.00,1.76
4478.00,1.75
4477.00,1.75
4476.00,1.75
4475.00,1.75
4474.00,1.75
4473.00,1.75
4472.00,1.75
4471.00,1.74
4470.00,1.74
4469.00,1.74
4468.00,1.74
4467.00,1.74
4466.00,1.73
4465.00,1.73
4464.00,1.73
4463.00,1.73
4462.00,1.72
4461.00,1.72
4460.00,1.72
4459.00,1.71
4458.00,1.71
4457.00,1.70
4456.00,1.70
4455.00,1.69
4454.00,1.69
4453.00,1.68
4452.00,1.67
4451.00,1.67
4450.00,1.66
4449.00,1.65
4448.00,1.64
4447.00,1.63
4446.00,1.63
4445.00,1.62
4444.00,1.61
4443.00,1.60
4442.00,1.59
4441.00,1.58
4440.00,1.57
4439.00,1.56
4438.00,1.55
4437.00,1.54
4436.00,1.53
4435.00,1.52
4434.00,1.51
4433.00,1.50
4432.00,1.49
4431.00,1.48
4430.00,1.47
4429.00,1.46
4428.00,1.46
4427.00,1.45
4426.00,1.44
4425.00,1.43
4424.00,1.42
4423.00,1.42
4422.00,1.41
4421.00,1.41
4420.00,1.40
4419.00,1.40
4418.00,1.39
4417.00,1.39
4416.00,1.39
4415.00,1.39
4414.00,1.39
4413.00,1.39
4412.00,1.39
4411.00,1.39
4410.00,1.39
4409.00,1.39
4408.00,1.39
4407.00,1.39
4406.00,1.39
4405.00,1.39
4404.00,1.39
4403.00,1.39
4402.00,1.40
4401.00,1.40
4400.00,1.40
4399.00,1.40
4398.00,1.41
4397.00,1.41
4396.00,1.41
4395.00,1.42
4394.00,1.42
4393.00,1.42
4392.00,1.42
4391.00,1.43
4390.00,1.43
4389.00,1.43
4388.00,1.43
4387.00,1.43
4386.00,1.43
4385.00,1.43
4384.00,1.44
4383.00,1.44
4382.00,1.44
4381.00,1.44
4380.00,1.44
4379.00,1.44
4378.00,1.44
4377.00,1.44
4376.00,1.44
4375.00,1.44
4374.00,1.44
4373.00,1.44
4372.00,1.43
4371.00,1.43
4370.00,1.43
4369.00,1.43
4368.00,1.43
4367.00,1.43
4366.00,1.43
4365.00,1.42
4364.00,1.42
4363.00,1.42
4362.00,1.42
4361.00,1.41
4360.00,1.41
4359.00,1.40
4358.00,1.40
4357.00,1.39
4356.00,1.39
4355.00,1.39
4354.00,1.38
4353.00,1.38
4352.00,1.38
4351.00,1.37
4350.00,1.37
4349.00,1.37
4348.00,1.36
4347.00,1.36
4346.00,1.36
4345.00,1.35
4344.00,1.35
4343.00,1.35
4342.00,1.35
4341.00,1.34
4340.00,1.34
4339.00,1.34
4338.00,1.34
4337.00,1.34
4336.00,1.34
4335.00,1.34
4334.00,1.34
4333.00,1.35
4332.00,1.35
4331.00,1.35
4330.00,1.36
4329.00,1.36
4328.00,1.37
4327.00,1.37
4326.00,1.38
4325.00,1.39
4324.00,1.39
4323.00,1.40
4322.00,1.41
4321.00,1.42
4320.00,1.43
4319.00,1.44
4318.00,1.45
4317.00,1.46
4316.00,1.46
4315.00,1.47
4314.00,1.48
4313.00,1.49
4312.00,1.50
4311.00,1.51
4310.00,1.52
4309.00,1.52
4308.00,1.53
4307.00,1.54
4306.00,1.55
4305.00,1.56
4304.00,1.56
4303.00,1.57
4302.00,1.57
4301.00,1.58
4300.00,1.58
4299.00,1.58
4298.00,1.59
4297.00,1.59
4296.00,1.59
4295.00,1.59
4294.00,1.59
4293.00,1.59
4292.00,1.59
4291.00,1.59
4290.00,1.59
4289.00,1.59
4288.00,1.59
4287.00,1.59
4286.00,1.59
4285.00,1.59
4284.00,1.59
4283.00,1.58
4282.00,1.58
4281.00,1.58
4280.00,1.58
4279.00,1.58
4278.00,1.57
4277.00,1.57
4276.00,1.57
4275.00,1.57
4274.00,1.56
4273.00,1.56
4272.00,1.56
4271.00,1.55
4270.00,1.55
4269.00,1.55
4268.00,1.54
4267.00,1.54
4266.00,1.54
4265.00,1.54
4264.00,1.53
4263.00,1.53
4262.00,1.53
4261.00,1.53
4260.00,1.53
4259.00,1.53
4258.00,1.53
4257.00,1.53
4256.00,1.53
4255.00,1.53
4254.00,1.53
4253.00,1.53
4252.00,1.53
4251.00,1.53
4250.00,1.53
4249.00,1.53
4248.00,1.53
4247.00,1.53
4246.00,1.53
4245.00,1.53
4244.00,1.54
4243.00,1.54
4242.00,1.54
4241.00,1.54
4240.00,1.55
4239.00,1.55
4238.00,1.55
4237.00,1.55
4236.00,1.55
4235.00,1.56
4234.00,1.56
4233.00,1.56
4232.00,1.56
4231.00,1.56
4230.00,1.56
4229.00,1.56
4228.00,1.56
4227.00,1.56
4226.00,1.56
4225.00,1.56
4224.00,1.56
4223.00,1.56
4222.00,1.56
4221.00,1.56
4220.00,1.56
4219.00,1.56
4218.00,1.56
4217.00,1.56
4216.00,1.56
4215.00,1.56
4214.00,1.56
4213.00,1.56
4212.00,1.56
4211.00,1.56
4210.00,1.56
4209.00,1.56
4208.00,1.56
4207.00,1.56
4206.00,1.56
4205.00,1.56
4204.00,1.56
4203.00,1.56
4202.00,1.56
4201.00,1.56
4200.00,1.56
4199.00,1.56
4198.00,1.57
4197.00,1.57
4196.00,1.57
4195.00,1.57
4194.00,1.58
4193.00,1.58
4192.00,1.58
4191.00,1.58
4190.00,1.58
4189.00,1.59
4188.00,1.59
4187.00,1.59
4186.00,1.59
4185.00,1.59
4184.00,1.59
4183.00,1.60
4182.00,1.60
4181.00,1.60
4180.00,1.60
4179.00,1.60
4178.00,1.60
4177.00,1.60
4176.00,1.60
4175.00,1.60
4174.00,1.60
4173.00,1.60
4172.00,1.60
4171.00,1.60
4170.00,1.60
4169.00,1.60
4168.00,1.60
4167.00,1.60
4166.00,1.60
4165.00,1.59
4164.00,1.59
4163.00,1.59
4162.00,1.59
4161.00,1.59
4160.00,1.59
4159.00,1.59
4158.00,1.58
4157.00,1.58
4156.00,1.58
4155.00,1.58
4154.00,1.58
4153.00,1.58
4152.00,1.58
4151.00,1.58
4150.00,1.58
4149.00,1.58
4148.00,1.58
4147.00,1.58
4146.00,1.58
4145.00,1.58
4144.00,1.58
4143.00,1.58
4142.00,1.58
4141.00,1.57
4140.00,1.57
4139.00,1.57
4138.00,1.57
4137.00,1.57
4136.00,1.57
4135.00,1.57
4134.00,1.57
4133.00,1.57
4132.00,1.57
4131.00,1.57
4130.00,1.57
4129.00,1.57
4128.00,1.57
4127.00,1.57
4126.00,1.57
4125.00,1.57
4124.00,1.57
4123.00,1.57
4122.00,1.57
4121.00,1.57
4120.00,1.56
4119.00,1.56
4118.00,1.56
4117.00,1.56
4116.00,1.56
4115.00,1.56
4114.00,1.56
4113.00,1.56
4112.00,1.56
4111.00,1.56
4110.00,1.56
4109.00,1.55
4108.00,1.55
4107.00,1.55
4106.00,1.55
4105.00,1.55
4104.00,1.55
4103.00,1.55
4102.00,1.55
4101.00,1.55
4100.00,1.54
4099.00,1.54
4098.00,1.54
4097.00,1.54
4096.00,1.54
4095.00,1.54
4094.00,1.54
4093.00,1.54
4092.00,1.54
4091.00,1.55
4090.00,1.55
4089.00,1.55
4088.00,1.55
4087.00,1.56
4086.00,1.56
4085.00,1.56
4084.00,1.57
4083.00,1.57
4082.00,1.57
4081.00,1.58
4080.00,1.58
4079.00,1.59
4078.00,1.59
4077.00,1.59
4076.00,1.59
4075.00,1.60
4074.00,1.60
4073.00,1.60
4072.00,1.60
4071.00,1.60
4070.00,1.61
4069.00,1.61
4068.00,1.61
4067.00,1.61
4066.00,1.61
4065.00,1.61
4064.00,1.62
4063.00,1.62
4062.00,1.62
4061.00,1.62
4060.00,1.62
4059.00,1.62
4058.00,1.62
4057.00,1.62
4056.00,1.62
4055.00,1.62
4054.00,1.63
4053.00,1.63
4052.00,1.63
4051.00,1.63
4050.00,1.63
4049.00,1.63
4048.00,1.64
4047.00,1.64
4046.00,1.65
4045.00,1.65
4044.00,1.66
4043.00,1.66
4042.00,1.67
4041.00,1.67
4040.00,1.67
4039.00,1.68
4038.00,1.68
4037.00,1.69
4036.00,1.69
4035.00,1.69
4034.00,1.70
4033.00,1.70
4032.00,1.70
4031.00,1.70
4030.00,1.70
4029.00,1.70
4028.00,1.71
4027.00,1.71
4026.00,1.71
4025.00,1.72
4024.00,1.72
4023.00,1.73
4022.00,1.73
4021.00,1.73
4020.00,1.73
4019.00,1.73
4018.00,1.74
4017.00,1.74
4016.00,1.74
4015.00,1.74
4014.00,1.75
4013.00,1.75
4012.00,1.75
4011.00,1.76
4010.00,1.76
4009.00,1.77
4008.00,1.77
4007.00,1.78
4006.00,1.79
4005.00,1.80
4004.00,1.81
4003.00,1.81
4002.00,1.82
4001.00,1.82
4000.00,1.83
