创建为新数据集,样品 343 用户 Administrator 日期 星期日, 七月 28 2019
cm-1,%T
10000.00,1.59
9999.00,1.57
9998.00,1.55
9997.00,1.54
9996.00,1.52
9995.00,1.50
9994.00,1.49
9993.00,1.47
9992.00,1.45
9991.00,1.44
9990.00,1.42
9989.00,1.41
9988.00,1.40
9987.00,1.39
9986.00,1.38
9985.00,1.37
9984.00,1.36
9983.00,1.35
9982.00,1.35
9981.00,1.34
9980.00,1.34
9979.00,1.33
9978.00,1.32
9977.00,1.32
9976.00,1.31
9975.00,1.31
9974.00,1.31
9973.00,1.30
9972.00,1.30
9971.00,1.30
9970.00,1.31
9969.00,1.31
9968.00,1.32
9967.00,1.33
9966.00,1.33
9965.00,1.34
9964.00,1.35
9963.00,1.35
9962.00,1.35
9961.00,1.36
9960.00,1.36
9959.00,1.36
9958.00,1.36
9957.00,1.37
9956.00,1.37
9955.00,1.37
9954.00,1.37
9953.00,1.37
9952.00,1.37
9951.00,1.37
9950.00,1.37
9949.00,1.37
9948.00,1.37
9947.00,1.37
9946.00,1.37
9945.00,1.37
9944.00,1.37
9943.00,1.37
9942.00,1.36
9941.00,1.36
9940.00,1.35
9939.00,1.34
9938.00,1.34
9937.00,1.33
9936.00,1.33
9935.00,1.32
9934.00,1.32
9933.00,1.31
9932.00,1.31
9931.00,1.31
9930.00,1.31
9929.00,1.31
9928.00,1.31
9927.00,1.31
9926.00,1.32
9925.00,1.32
9924.00,1.32
9923.00,1.32
9922.00,1.33
9921.00,1.33
9920.00,1.33
9919.00,1.33
9918.00,1.34
9917.00,1.34
9916.00,1.34
9915.00,1.35
9914.00,1.35
9913.00,1.35
9912.00,1.35
9911.00,1.36
9910.00,1.36
9909.00,1.36
9908.00,1.36
9907.00,1.35
9906.00,1.35
9905.00,1.35
9904.00,1.34
9903.00,1.33
9902.00,1.33
9901.00,1.32
9900.00,1.31
9899.00,1.30
9898.00,1.29
9897.00,1.28
9896.00,1.27
9895.00,1.26
9894.00,1.25
9893.00,1.24
9892.00,1.23
9891.00,1.22
9890.00,1.21
9889.00,1.21
9888.00,1.20
9887.00,1.19
9886.00,1.18
9885.00,1.17
9884.00,1.17
9883.00,1.16
9882.00,1.16
9881.00,1.15
9880.00,1.15
9879.00,1.15
9878.00,1.15
9877.00,1.15
9876.00,1.15
9875.00,1.14
9874.00,1.14
9873.00,1.14
9872.00,1.14
9871.00,1.14
9870.00,1.15
9869.00,1.15
9868.00,1.15
9867.00,1.15
9866.00,1.16
9865.00,1.16
9864.00,1.17
9863.00,1.18
9862.00,1.19
9861.00,1.20
9860.00,1.20
9859.00,1.21
9858.00,1.22
9857.00,1.23
9856.00,1.24
9855.00,1.24
9854.00,1.25
9853.00,1.25
9852.00,1.26
9851.00,1.26
9850.00,1.27
9849.00,1.27
9848.00,1.27
9847.00,1.27
9846.00,1.28
9845.00,1.28
9844.00,1.28
9843.00,1.28
9842.00,1.28
9841.00,1.27
9840.00,1.27
9839.00,1.26
9838.00,1.25
9837.00,1.24
9836.00,1.23
9835.00,1.22
9834.00,1.20
9833.00,1.19
9832.00,1.18
9831.00,1.16
9830.00,1.15
9829.00,1.14
9828.00,1.12
9827.00,1.11
9826.00,1.10
9825.00,1.09
9824.00,1.09
9823.00,1.08
9822.00,1.07
9821.00,1.07
9820.00,1.06
9819.00,1.06
9818.00,1.05
9817.00,1.05
9816.00,1.05
9815.00,1.05
9814.00,1.04
9813.00,1.04
9812.00,1.05
9811.00,1.05
9810.00,1.05
9809.00,1.05
9808.00,1.06
9807.00,1.06
9806.00,1.06
9805.00,1.07
9804.00,1.07
9803.00,1.08
9802.00,1.08
9801.00,1.08
9800.00,1.09
9799.00,1.09
9798.00,1.09
9797.00,1.09
9796.00,1.09
9795.00,1.10
9794.00,1.10
9793.00,1.10
9792.00,1.10
9791.00,1.10
9790.00,1.10
9789.00,1.11
9788.00,1.11
9787.00,1.11
9786.00,1.11
9785.00,1.11
9784.00,1.12
9783.00,1.12
9782.00,1.12
9781.00,1.12
9780.00,1.13
9779.00,1.13
9778.00,1.13
9777.00,1.13
9776.00,1.14
9775.00,1.14
9774.00,1.14
9773.00,1.14
9772.00,1.14
9771.00,1.14
9770.00,1.14
9769.00,1.14
9768.00,1.15
9767.00,1.15
9766.00,1.15
9765.00,1.15
9764.00,1.15
9763.00,1.16
9762.00,1.16
9761.00,1.16
9760.00,1.17
9759.00,1.17
9758.00,1.18
9757.00,1.18
9756.00,1.19
9755.00,1.20
9754.00,1.20
9753.00,1.21
9752.00,1.21
9751.00,1.22
9750.00,1.23
9749.00,1.24
9748.00,1.25
9747.00,1.26
9746.00,1.27
9745.00,1.28
9744.00,1.29
9743.00,1.30
9742.00,1.31
9741.00,1.32
9740.00,1.32
9739.00,1.33
9738.00,1.34
9737.00,1.34
9736.00,1.34
9735.00,1.35
9734.00,1.35
9733.00,1.34
9732.00,1.34
9731.00,1.34
9730.00,1.33
9729.00,1.33
9728.00,1.32
9727.00,1.32
9726.00,1.31
9725.00,1.30
9724.00,1.30
9723.00,1.29
9722.00,1.28
9721.00,1.27
9720.00,1.26
9719.00,1.25
9718.00,1.25
9717.00,1.24
9716.00,1.23
9715.00,1.22
9714.00,1.22
9713.00,1.21
9712.00,1.21
9711.00,1.20
9710.00,1.20
9709.00,1.20
9708.00,1.20
9707.00,1.20
9706.00,1.20
9705.00,1.20
9704.00,1.20
9703.00,1.20
9702.00,1.21
9701.00,1.21
9700.00,1.21
9699.00,1.21
9698.00,1.21
9697.00,1.22
9696.00,1.22
9695.00,1.22
9694.00,1.22
9693.00,1.22
9692.00,1.23
9691.00,1.23
9690.00,1.23
9689.00,1.23
9688.00,1.23
9687.00,1.23
9686.00,1.22
9685.00,1.22
9684.00,1.22
9683.00,1.22
9682.00,1.21
9681.00,1.21
9680.00,1.21
9679.00,1.21
9678.00,1.20
9677.00,1.20
9676.00,1.20
9675.00,1.20
9674.00,1.19
9673.00,1.19
9672.00,1.19
9671.00,1.19
9670.00,1.19
9669.00,1.19
9668.00,1.18
9667.00,1.18
9666.00,1.18
9665.00,1.18
9664.00,1.18
9663.00,1.18
9662.00,1.18
9661.00,1.19
9660.00,1.19
9659.00,1.19
9658.00,1.19
9657.00,1.20
9656.00,1.20
9655.00,1.20
9654.00,1.21
9653.00,1.21
9652.00,1.21
9651.00,1.22
9650.00,1.22
9649.00,1.22
9648.00,1.23
9647.00,1.23
9646.00,1.23
9645.00,1.23
9644.00,1.24
9643.00,1.24
9642.00,1.24
9641.00,1.24
9640.00,1.25
9639.00,1.25
9638.00,1.25
9637.00,1.25
9636.00,1.25
9635.00,1.25
9634.00,1.24
9633.00,1.24
9632.00,1.24
9631.00,1.24
9630.00,1.23
9629.00,1.23
9628.00,1.23
9627.00,1.23
9626.00,1.23
9625.00,1.23
9624.00,1.23
9623.00,1.23
9622.00,1.23
9621.00,1.23
9620.00,1.23
9619.00,1.23
9618.00,1.23
9617.00,1.23
9616.00,1.23
9615.00,1.23
9614.00,1.22
9613.00,1.22
9612.00,1.22
9611.00,1.22
9610.00,1.22
9609.00,1.22
9608.00,1.22
9607.00,1.22
9606.00,1.22
9605.00,1.22
9604.00,1.22
9603.00,1.22
9602.00,1.22
9601.00,1.22
9600.00,1.21
9599.00,1.21
9598.00,1.21
9597.00,1.20
9596.00,1.20
9595.00,1.19
9594.00,1.19
9593.00,1.19
9592.00,1.18
9591.00,1.18
9590.00,1.18
9589.00,1.18
9588.00,1.18
9587.00,1.17
9586.00,1.17
9585.00,1.17
9584.00,1.17
9583.00,1.17
9582.00,1.17
9581.00,1.17
9580.00,1.17
9579.00,1.17
9578.00,1.17
9577.00,1.17
9576.00,1.17
9575.00,1.17
9574.00,1.17
9573.00,1.17
9572.00,1.17
9571.00,1.17
9570.00,1.17
9569.00,1.17
9568.00,1.17
9567.00,1.17
9566.00,1.16
9565.00,1.16
9564.00,1.16
9563.00,1.16
9562.00,1.16
9561.00,1.16
9560.00,1.17
9559.00,1.17
9558.00,1.17
9557.00,1.17
9556.00,1.17
9555.00,1.17
9554.00,1.17
9553.00,1.17
9552.00,1.17
9551.00,1.17
9550.00,1.17
9549.00,1.17
9548.00,1.17
9547.00,1.17
9546.00,1.17
9545.00,1.17
9544.00,1.17
9543.00,1.17
9542.00,1.17
9541.00,1.17
9540.00,1.18
9539.00,1.18
9538.00,1.18
9537.00,1.18
9536.00,1.17
9535.00,1.17
9534.00,1.17
9533.00,1.16
9532.00,1.16
9531.00,1.15
9530.00,1.15
9529.00,1.14
9528.00,1.14
9527.00,1.13
9526.00,1.13
9525.00,1.12
9524.00,1.12
9523.00,1.11
9522.00,1.10
9521.00,1.10
9520.00,1.09
9519.00,1.09
9518.00,1.08
9517.00,1.08
9516.00,1.07
9515.00,1.07
9514.00,1.07
9513.00,1.06
9512.00,1.06
9511.00,1.06
9510.00,1.06
9509.00,1.06
9508.00,1.06
9507.00,1.06
9506.00,1.06
9505.00,1.06
9504.00,1.06
9503.00,1.07
9502.00,1.07
9501.00,1.08
9500.00,1.09
9499.00,1.10
9498.00,1.11
9497.00,1.12
9496.00,1.13
9495.00,1.14
9494.00,1.15
9493.00,1.16
9492.00,1.17
9491.00,1.18
9490.00,1.18
9489.00,1.19
9488.00,1.20
9487.00,1.21
9486.00,1.22
9485.00,1.22
9484.00,1.23
9483.00,1.24
9482.00,1.25
9481.00,1.25
9480.00,1.26
9479.00,1.26
9478.00,1.27
9477.00,1.27
9476.00,1.28
9475.00,1.28
9474.00,1.28
9473.00,1.28
9472.00,1.28
9471.00,1.28
9470.00,1.28
9469.00,1.27
9468.00,1.27
9467.00,1.27
9466.00,1.27
9465.00,1.27
9464.00,1.27
9463.00,1.27
9462.00,1.27
9461.00,1.27
9460.00,1.27
9459.00,1.27
9458.00,1.27
9457.00,1.28
9456.00,1.28
9455.00,1.28
9454.00,1.28
9453.00,1.28
9452.00,1.29
9451.00,1.29
9450.00,1.29
9449.00,1.30
9448.00,1.30
9447.00,1.30
9446.00,1.31
9445.00,1.31
9444.00,1.32
9443.00,1.33
9442.00,1.33
9441.00,1.34
9440.00,1.34
9439.00,1.35
9438.00,1.35
9437.00,1.36
9436.00,1.36
9435.00,1.36
9434.00,1.36
9433.00,1.36
9432.00,1.36
9431.00,1.36
9430.00,1.35
9429.00,1.35
9428.00,1.35
9427.00,1.34
9426.00,1.34
9425.00,1.34
9424.00,1.33
9423.00,1.33
9422.00,1.32
9421.00,1.31
9420.00,1.31
9419.00,1.30
9418.00,1.29
9417.00,1.28
9416.00,1.27
9415.00,1.26
9414.00,1.25
9413.00,1.24
9412.00,1.23
9411.00,1.22
9410.00,1.21
9409.00,1.20
9408.00,1.20
9407.00,1.19
9406.00,1.19
9405.00,1.19
9404.00,1.18
9403.00,1.18
9402.00,1.18
9401.00,1.18
9400.00,1.18
9399.00,1.18
9398.00,1.19
9397.00,1.19
9396.00,1.19
9395.00,1.20
9394.00,1.20
9393.00,1.21
9392.00,1.22
9391.00,1.23
9390.00,1.24
9389.00,1.25
9388.00,1.26
9387.00,1.27
9386.00,1.28
9385.00,1.29
9384.00,1.30
9383.00,1.30
9382.00,1.31
9381.00,1.32
9380.00,1.32
9379.00,1.32
9378.00,1.33
9377.00,1.33
9376.00,1.32
9375.00,1.32
9374.00,1.32
9373.00,1.31
9372.00,1.31
9371.00,1.30
9370.00,1.30
9369.00,1.29
9368.00,1.28
9367.00,1.27
9366.00,1.26
9365.00,1.24
9364.00,1.23
9363.00,1.22
9362.00,1.20
9361.00,1.19
9360.00,1.17
9359.00,1.16
9358.00,1.14
9357.00,1.13
9356.00,1.12
9355.00,1.11
9354.00,1.10
9353.00,1.09
9352.00,1.08
9351.00,1.07
9350.00,1.06
9349.00,1.06
9348.00,1.05
9347.00,1.05
9346.00,1.05
9345.00,1.05
9344.00,1.05
9343.00,1.04
9342.00,1.04
9341.00,1.05
9340.00,1.05
9339.00,1.05
9338.00,1.05
9337.00,1.06
9336.00,1.06
9335.00,1.06
9334.00,1.07
9333.00,1.07
9332.00,1.08
9331.00,1.08
9330.00,1.08
9329.00,1.09
9328.00,1.09
9327.00,1.09
9326.00,1.09
9325.00,1.09
9324.00,1.09
9323.00,1.09
9322.00,1.09
9321.00,1.09
9320.00,1.09
9319.00,1.10
9318.00,1.10
9317.00,1.10
9316.00,1.10
9315.00,1.11
9314.00,1.11
9313.00,1.11
9312.00,1.12
9311.00,1.12
9310.00,1.12
9309.00,1.13
9308.00,1.13
9307.00,1.14
9306.00,1.14
9305.00,1.15
9304.00,1.15
9303.00,1.16
9302.00,1.16
9301.00,1.17
9300.00,1.18
9299.00,1.19
9298.00,1.19
9297.00,1.20
9296.00,1.21
9295.00,1.22
9294.00,1.22
9293.00,1.23
9292.00,1.23
9291.00,1.24
9290.00,1.24
9289.00,1.24
9288.00,1.24
9287.00,1.25
9286.00,1.25
9285.00,1.25
9284.00,1.25
9283.00,1.25
9282.00,1.25
9281.00,1.25
9280.00,1.25
9279.00,1.25
9278.00,1.25
9277.00,1.25
9276.00,1.25
9275.00,1.25
9274.00,1.25
9273.00,1.25
9272.00,1.25
9271.00,1.25
9270.00,1.25
9269.00,1.25
9268.00,1.25
9267.00,1.25
9266.00,1.25
9265.00,1.25
9264.00,1.24
9263.00,1.24
9262.00,1.25
9261.00,1.25
9260.00,1.25
9259.00,1.25
9258.00,1.25
9257.00,1.26
9256.00,1.26
9255.00,1.26
9254.00,1.26
9253.00,1.26
9252.00,1.26
9251.00,1.26
9250.00,1.25
9249.00,1.25
9248.00,1.25
9247.00,1.25
9246.00,1.24
9245.00,1.24
9244.00,1.24
9243.00,1.24
9242.00,1.23
9241.00,1.23
9240.00,1.23
9239.00,1.23
9238.00,1.22
9237.00,1.22
9236.00,1.22
9235.00,1.21
9234.00,1.21
9233.00,1.20
9232.00,1.20
9231.00,1.19
9230.00,1.19
9229.00,1.18
9228.00,1.18
9227.00,1.17
9226.00,1.17
9225.00,1.17
9224.00,1.16
9223.00,1.16
9222.00,1.16
9221.00,1.15
9220.00,1.15
9219.00,1.15
9218.00,1.14
9217.00,1.14
9216.00,1.14
9215.00,1.14
9214.00,1.14
9213.00,1.14
9212.00,1.14
9211.00,1.14
9210.00,1.15
9209.00,1.15
9208.00,1.15
9207.00,1.15
9206.00,1.16
9205.00,1.16
9204.00,1.16
9203.00,1.16
9202.00,1.16
9201.00,1.16
9200.00,1.17
9199.00,1.17
9198.00,1.17
9197.00,1.18
9196.00,1.18
9195.00,1.19
9194.00,1.19
9193.00,1.20
9192.00,1.21
9191.00,1.21
9190.00,1.22
9189.00,1.22
9188.00,1.22
9187.00,1.22
9186.00,1.23
9185.00,1.23
9184.00,1.23
9183.00,1.23
9182.00,1.23
9181.00,1.23
9180.00,1.23
9179.00,1.23
9178.00,1.24
9177.00,1.24
9176.00,1.24
9175.00,1.24
9174.00,1.25
9173.00,1.25
9172.00,1.25
9171.00,1.26
9170.00,1.26
9169.00,1.26
9168.00,1.26
9167.00,1.27
9166.00,1.27
9165.00,1.27
9164.00,1.28
9163.00,1.28
9162.00,1.28
9161.00,1.29
9160.00,1.30
9159.00,1.30
9158.00,1.31
9157.00,1.32
9156.00,1.33
9155.00,1.34
9154.00,1.34
9153.00,1.35
9152.00,1.36
9151.00,1.37
9150.00,1.37
9149.00,1.38
9148.00,1.39
9147.00,1.39
9146.00,1.40
9145.00,1.40
9144.00,1.40
9143.00,1.40
9142.00,1.40
9141.00,1.40
9140.00,1.40
9139.00,1.40
9138.00,1.39
9137.00,1.39
9136.00,1.38
9135.00,1.38
9134.00,1.37
9133.00,1.36
9132.00,1.35
9131.00,1.34
9130.00,1.34
9129.00,1.33
9128.00,1.32
9127.00,1.31
9126.00,1.30
9125.00,1.29
9124.00,1.28
9123.00,1.27
9122.00,1.26
9121.00,1.25
9120.00,1.24
9119.00,1.23
9118.00,1.23
9117.00,1.22
9116.00,1.22
9115.00,1.21
9114.00,1.21
9113.00,1.21
9112.00,1.21
9111.00,1.21
9110.00,1.21
9109.00,1.21
9108.00,1.21
9107.00,1.22
9106.00,1.22
9105.00,1.22
9104.00,1.22
9103.00,1.22
9102.00,1.23
9101.00,1.23
9100.00,1.23
9099.00,1.23
9098.00,1.23
9097.00,1.24
9096.00,1.24
9095.00,1.24
9094.00,1.24
9093.00,1.24
9092.00,1.24
9091.00,1.24
9090.00,1.25
9089.00,1.25
9088.00,1.25
9087.00,1.25
9086.00,1.25
9085.00,1.25
9084.00,1.25
9083.00,1.25
9082.00,1.26
9081.00,1.26
9080.00,1.27
9079.00,1.27
9078.00,1.27
9077.00,1.28
9076.00,1.28
9075.00,1.28
9074.00,1.28
9073.00,1.29
9072.00,1.29
9071.00,1.29
9070.00,1.30
9069.00,1.30
9068.00,1.30
9067.00,1.31
9066.00,1.31
9065.00,1.32
9064.00,1.32
9063.00,1.32
9062.00,1.33
9061.00,1.33
9060.00,1.34
9059.00,1.34
9058.00,1.34
9057.00,1.34
9056.00,1.34
9055.00,1.34
9054.00,1.34
9053.00,1.33
9052.00,1.33
9051.00,1.33
9050.00,1.33
9049.00,1.32
9048.00,1.32
9047.00,1.32
9046.00,1.31
9045.00,1.31
9044.00,1.30
9043.00,1.30
9042.00,1.29
9041.00,1.29
9040.00,1.28
9039.00,1.27
9038.00,1.26
9037.00,1.25
9036.00,1.25
9035.00,1.24
9034.00,1.23
9033.00,1.22
9032.00,1.21
9031.00,1.21
9030.00,1.20
9029.00,1.20
9028.00,1.19
9027.00,1.19
9026.00,1.19
9025.00,1.19
9024.00,1.19
9023.00,1.19
9022.00,1.19
9021.00,1.19
9020.00,1.19
9019.00,1.19
9018.00,1.20
9017.00,1.20
9016.00,1.20
9015.00,1.20
9014.00,1.21
9013.00,1.21
9012.00,1.21
9011.00,1.21
9010.00,1.21
9009.00,1.21
9008.00,1.21
9007.00,1.21
9006.00,1.21
9005.00,1.21
9004.00,1.21
9003.00,1.20
9002.00,1.20
9001.00,1.20
9000.00,1.19
8999.00,1.19
8998.00,1.18
8997.00,1.17
8996.00,1.17
8995.00,1.16
8994.00,1.15
8993.00,1.15
8992.00,1.14
8991.00,1.13
8990.00,1.13
8989.00,1.12
8988.00,1.12
8987.00,1.11
8986.00,1.11
8985.00,1.11
8984.00,1.11
8983.00,1.11
8982.00,1.10
8981.00,1.11
8980.00,1.11
8979.00,1.11
8978.00,1.11
8977.00,1.11
8976.00,1.11
8975.00,1.11
8974.00,1.12
8973.00,1.12
8972.00,1.12
8971.00,1.12
8970.00,1.13
8969.00,1.13
8968.00,1.13
8967.00,1.13
8966.00,1.14
8965.00,1.14
8964.00,1.14
8963.00,1.15
8962.00,1.15
8961.00,1.15
8960.00,1.15
8959.00,1.16
8958.00,1.16
8957.00,1.16
8956.00,1.16
8955.00,1.16
8954.00,1.16
8953.00,1.16
8952.00,1.17
8951.00,1.17
8950.00,1.17
8949.00,1.18
8948.00,1.18
8947.00,1.19
8946.00,1.19
8945.00,1.20
8944.00,1.20
8943.00,1.21
8942.00,1.21
8941.00,1.22
8940.00,1.22
8939.00,1.22
8938.00,1.23
8937.00,1.23
8936.00,1.24
8935.00,1.24
8934.00,1.24
8933.00,1.25
8932.00,1.26
8931.00,1.26
8930.00,1.27
8929.00,1.27
8928.00,1.28
8927.00,1.28
8926.00,1.29
8925.00,1.29
8924.00,1.29
8923.00,1.29
8922.00,1.29
8921.00,1.29
8920.00,1.29
8919.00,1.29
8918.00,1.29
8917.00,1.29
8916.00,1.29
8915.00,1.29
8914.00,1.29
8913.00,1.29
8912.00,1.29
8911.00,1.29
8910.00,1.29
8909.00,1.30
8908.00,1.29
8907.00,1.29
8906.00,1.29
8905.00,1.29
8904.00,1.29
8903.00,1.29
8902.00,1.28
8901.00,1.28
8900.00,1.28
8899.00,1.28
8898.00,1.28
8897.00,1.28
8896.00,1.28
8895.00,1.28
8894.00,1.28
8893.00,1.28
8892.00,1.28
8891.00,1.28
8890.00,1.29
8889.00,1.29
8888.00,1.29
8887.00,1.29
8886.00,1.30
8885.00,1.30
8884.00,1.30
8883.00,1.30
8882.00,1.30
8881.00,1.30
8880.00,1.31
8879.00,1.31
8878.00,1.31
8877.00,1.31
8876.00,1.32
8875.00,1.32
8874.00,1.32
8873.00,1.33
8872.00,1.33
8871.00,1.33
8870.00,1.33
8869.00,1.33
8868.00,1.34
8867.00,1.34
8866.00,1.34
8865.00,1.34
8864.00,1.34
8863.00,1.34
8862.00,1.34
8861.00,1.33
8860.00,1.33
8859.00,1.33
8858.00,1.33
8857.00,1.33
8856.00,1.33
8855.00,1.33
8854.00,1.32
8853.00,1.32
8852.00,1.32
8851.00,1.31
8850.00,1.31
8849.00,1.31
8848.00,1.30
8847.00,1.30
8846.00,1.29
8845.00,1.29
8844.00,1.28
8843.00,1.28
8842.00,1.27
8841.00,1.26
8840.00,1.26
8839.00,1.25
8838.00,1.24
8837.00,1.24
8836.00,1.23
8835.00,1.23
8834.00,1.22
8833.00,1.22
8832.00,1.21
8831.00,1.21
8830.00,1.21
8829.00,1.21
8828.00,1.21
8827.00,1.21
8826.00,1.21
8825.00,1.21
8824.00,1.21
8823.00,1.21
8822.00,1.22
8821.00,1.22
8820.00,1.23
8819.00,1.23
8818.00,1.24
8817.00,1.24
8816.00,1.25
8815.00,1.25
8814.00,1.26
8813.00,1.26
8812.00,1.27
8811.00,1.27
8810.00,1.28
8809.00,1.28
8808.00,1.29
8807.00,1.29
8806.00,1.29
8805.00,1.29
8804.00,1.29
8803.00,1.29
8802.00,1.29
8801.00,1.29
8800.00,1.29
8799.00,1.28
8798.00,1.28
8797.00,1.28
8796.00,1.27
8795.00,1.27
8794.00,1.26
8793.00,1.26
8792.00,1.25
8791.00,1.25
8790.00,1.24
8789.00,1.24
8788.00,1.24
8787.00,1.23
8786.00,1.23
8785.00,1.23
8784.00,1.22
8783.00,1.22
8782.00,1.22
8781.00,1.22
8780.00,1.22
8779.00,1.22
8778.00,1.22
8777.00,1.22
8776.00,1.22
8775.00,1.22
8774.00,1.22
8773.00,1.22
8772.00,1.22
8771.00,1.22
8770.00,1.22
8769.00,1.22
8768.00,1.22
8767.00,1.22
8766.00,1.22
8765.00,1.22
8764.00,1.22
8763.00,1.22
8762.00,1.22
8761.00,1.22
8760.00,1.22
8759.00,1.22
8758.00,1.22
8757.00,1.22
8756.00,1.22
8755.00,1.22
8754.00,1.21
8753.00,1.21
8752.00,1.20
8751.00,1.20
8750.00,1.19
8749.00,1.19
8748.00,1.19
8747.00,1.18
8746.00,1.18
8745.00,1.18
8744.00,1.17
8743.00,1.17
8742.00,1.17
8741.00,1.16
8740.00,1.16
8739.00,1.16
8738.00,1.16
8737.00,1.15
8736.00,1.15
8735.00,1.15
8734.00,1.14
8733.00,1.14
8732.00,1.14
8731.00,1.14
8730.00,1.14
8729.00,1.14
8728.00,1.14
8727.00,1.15
8726.00,1.15
8725.00,1.15
8724.00,1.16
8723.00,1.16
8722.00,1.16
8721.00,1.17
8720.00,1.17
8719.00,1.17
8718.00,1.18
8717.00,1.18
8716.00,1.19
8715.00,1.19
8714.00,1.20
8713.00,1.20
8712.00,1.21
8711.00,1.21
8710.00,1.21
8709.00,1.22
8708.00,1.22
8707.00,1.23
8706.00,1.23
8705.00,1.23
8704.00,1.23
8703.00,1.24
8702.00,1.24
8701.00,1.24
8700.00,1.24
8699.00,1.24
8698.00,1.24
8697.00,1.25
8696.00,1.25
8695.00,1.25
8694.00,1.25
8693.00,1.26
8692.00,1.26
8691.00,1.26
8690.00,1.26
8689.00,1.26
8688.00,1.26
8687.00,1.26
8686.00,1.26
8685.00,1.26
8684.00,1.26
8683.00,1.26
8682.00,1.26
8681.00,1.26
8680.00,1.27
8679.00,1.27
8678.00,1.27
8677.00,1.27
8676.00,1.28
8675.00,1.28
8674.00,1.28
8673.00,1.28
8672.00,1.29
8671.00,1.29
8670.00,1.29
8669.00,1.29
8668.00,1.29
8667.00,1.29
8666.00,1.29
8665.00,1.29
8664.00,1.29
8663.00,1.30
8662.00,1.30
8661.00,1.30
8660.00,1.30
8659.00,1.30
8658.00,1.30
8657.00,1.30
8656.00,1.30
8655.00,1.30
8654.00,1.30
8653.00,1.30
8652.00,1.29
8651.00,1.29
8650.00,1.29
8649.00,1.29
8648.00,1.29
8647.00,1.29
8646.00,1.28
8645.00,1.28
8644.00,1.28
8643.00,1.28
8642.00,1.27
8641.00,1.27
8640.00,1.27
8639.00,1.26
8638.00,1.26
8637.00,1.26
8636.00,1.25
8635.00,1.25
8634.00,1.25
8633.00,1.24
8632.00,1.24
8631.00,1.24
8630.00,1.24
8629.00,1.23
8628.00,1.23
8627.00,1.23
8626.00,1.23
8625.00,1.22
8624.00,1.22
8623.00,1.22
8622.00,1.21
8621.00,1.21
8620.00,1.21
8619.00,1.20
8618.00,1.20
8617.00,1.20
8616.00,1.19
8615.00,1.19
8614.00,1.19
8613.00,1.19
8612.00,1.19
8611.00,1.19
8610.00,1.19
8609.00,1.19
8608.00,1.19
8607.00,1.19
8606.00,1.20
8605.00,1.20
8604.00,1.20
8603.00,1.20
8602.00,1.20
8601.00,1.20
8600.00,1.20
8599.00,1.20
8598.00,1.20
8597.00,1.20
8596.00,1.20
8595.00,1.21
8594.00,1.21
8593.00,1.21
8592.00,1.21
8591.00,1.21
8590.00,1.21
8589.00,1.21
8588.00,1.21
8587.00,1.21
8586.00,1.20
8585.00,1.20
8584.00,1.20
8583.00,1.20
8582.00,1.20
8581.00,1.19
8580.00,1.19
8579.00,1.19
8578.00,1.18
8577.00,1.18
8576.00,1.18
8575.00,1.17
8574.00,1.17
8573.00,1.17
8572.00,1.16
8571.00,1.16
8570.00,1.16
8569.00,1.16
8568.00,1.16
8567.00,1.16
8566.00,1.16
8565.00,1.16
8564.00,1.16
8563.00,1.16
8562.00,1.16
8561.00,1.16
8560.00,1.16
8559.00,1.17
8558.00,1.17
8557.00,1.17
8556.00,1.17
8555.00,1.18
8554.00,1.18
8553.00,1.18
8552.00,1.18
8551.00,1.19
8550.00,1.19
8549.00,1.20
8548.00,1.20
8547.00,1.20
8546.00,1.21
8545.00,1.22
8544.00,1.22
8543.00,1.23
8542.00,1.23
8541.00,1.24
8540.00,1.24
8539.00,1.24
8538.00,1.25
8537.00,1.25
8536.00,1.25
8535.00,1.25
8534.00,1.25
8533.00,1.25
8532.00,1.25
8531.00,1.25
8530.00,1.25
8529.00,1.25
8528.00,1.24
8527.00,1.24
8526.00,1.24
8525.00,1.24
8524.00,1.24
8523.00,1.23
8522.00,1.23
8521.00,1.22
8520.00,1.22
8519.00,1.21
8518.00,1.20
8517.00,1.20
8516.00,1.19
8515.00,1.18
8514.00,1.17
8513.00,1.17
8512.00,1.16
8511.00,1.15
8510.00,1.15
8509.00,1.15
8508.00,1.14
8507.00,1.14
8506.00,1.13
8505.00,1.13
8504.00,1.13
8503.00,1.13
8502.00,1.13
8501.00,1.13
8500.00,1.13
8499.00,1.13
8498.00,1.13
8497.00,1.13
8496.00,1.14
8495.00,1.14
8494.00,1.14
8493.00,1.15
8492.00,1.15
8491.00,1.16
8490.00,1.16
8489.00,1.17
8488.00,1.17
8487.00,1.18
8486.00,1.18
8485.00,1.18
8484.00,1.19
8483.00,1.19
8482.00,1.19
8481.00,1.19
8480.00,1.20
8479.00,1.20
8478.00,1.20
8477.00,1.20
8476.00,1.20
8475.00,1.20
8474.00,1.20
8473.00,1.19
8472.00,1.19
8471.00,1.19
8470.00,1.19
8469.00,1.18
8468.00,1.18
8467.00,1.18
8466.00,1.18
8465.00,1.17
8464.00,1.17
8463.00,1.17
8462.00,1.17
8461.00,1.17
8460.00,1.17
8459.00,1.17
8458.00,1.17
8457.00,1.17
8456.00,1.18
8455.00,1.18
8454.00,1.18
8453.00,1.19
8452.00,1.19
8451.00,1.20
8450.00,1.21
8449.00,1.21
8448.00,1.22
8447.00,1.23
8446.00,1.24
8445.00,1.25
8444.00,1.26
8443.00,1.27
8442.00,1.27
8441.00,1.28
8440.00,1.29
8439.00,1.30
8438.00,1.30
8437.00,1.31
8436.00,1.32
8435.00,1.32
8434.00,1.33
8433.00,1.33
8432.00,1.33
8431.00,1.33
8430.00,1.33
8429.00,1.34
8428.00,1.33
8427.00,1.33
8426.00,1.33
8425.00,1.33
8424.00,1.32
8423.00,1.32
8422.00,1.31
8421.00,1.31
8420.00,1.30
8419.00,1.29
8418.00,1.29
8417.00,1.28
8416.00,1.27
8415.00,1.26
8414.00,1.25
8413.00,1.24
8412.00,1.24
8411.00,1.23
8410.00,1.22
8409.00,1.21
8408.00,1.21
8407.00,1.20
8406.00,1.20
8405.00,1.19
8404.00,1.19
8403.00,1.19
8402.00,1.18
8401.00,1.18
8400.00,1.18
8399.00,1.18
8398.00,1.18
8397.00,1.18
8396.00,1.18
8395.00,1.19
8394.00,1.19
8393.00,1.19
8392.00,1.19
8391.00,1.20
8390.00,1.20
8389.00,1.21
8388.00,1.21
8387.00,1.21
8386.00,1.22
8385.00,1.22
8384.00,1.23
8383.00,1.23
8382.00,1.23
8381.00,1.24
8380.00,1.24
8379.00,1.24
8378.00,1.24
8377.00,1.24
8376.00,1.24
8375.00,1.24
8374.00,1.24
8373.00,1.24
8372.00,1.24
8371.00,1.24
8370.00,1.24
8369.00,1.24
8368.00,1.24
8367.00,1.23
8366.00,1.23
8365.00,1.23
8364.00,1.23
8363.00,1.23
8362.00,1.23
8361.00,1.22
8360.00,1.22
8359.00,1.22
8358.00,1.22
8357.00,1.22
8356.00,1.22
8355.00,1.22
8354.00,1.22
8353.00,1.22
8352.00,1.22
8351.00,1.22
8350.00,1.23
8349.00,1.23
8348.00,1.23
8347.00,1.23
8346.00,1.24
8345.00,1.24
8344.00,1.24
8343.00,1.24
8342.00,1.25
8341.00,1.25
8340.00,1.25
8339.00,1.25
8338.00,1.25
8337.00,1.26
8336.00,1.26
8335.00,1.26
8334.00,1.26
8333.00,1.26
8332.00,1.26
8331.00,1.27
8330.00,1.27
8329.00,1.27
8328.00,1.27
8327.00,1.26
8326.00,1.26
8325.00,1.26
8324.00,1.26
8323.00,1.26
8322.00,1.26
8321.00,1.26
8320.00,1.26
8319.00,1.26
8318.00,1.26
8317.00,1.26
8316.00,1.26
8315.00,1.26
8314.00,1.26
8313.00,1.26
8312.00,1.26
8311.00,1.26
8310.00,1.27
8309.00,1.27
8308.00,1.27
8307.00,1.28
8306.00,1.28
8305.00,1.28
8304.00,1.28
8303.00,1.29
8302.00,1.29
8301.00,1.29
8300.00,1.30
8299.00,1.30
8298.00,1.30
8297.00,1.30
8296.00,1.30
8295.00,1.30
8294.00,1.31
8293.00,1.31
8292.00,1.31
8291.00,1.31
8290.00,1.31
8289.00,1.30
8288.00,1.30
8287.00,1.30
8286.00,1.30
8285.00,1.29
8284.00,1.29
8283.00,1.29
8282.00,1.29
8281.00,1.28
8280.00,1.28
8279.00,1.28
8278.00,1.27
8277.00,1.27
8276.00,1.27
8275.00,1.27
8274.00,1.27
8273.00,1.27
8272.00,1.27
8271.00,1.27
8270.00,1.27
8269.00,1.27
8268.00,1.27
8267.00,1.27
8266.00,1.27
8265.00,1.27
8264.00,1.27
8263.00,1.27
8262.00,1.27
8261.00,1.28
8260.00,1.28
8259.00,1.28
8258.00,1.28
8257.00,1.29
8256.00,1.29
8255.00,1.29
8254.00,1.29
8253.00,1.29
8252.00,1.29
8251.00,1.29
8250.00,1.29
8249.00,1.28
8248.00,1.28
8247.00,1.28
8246.00,1.28
8245.00,1.27
8244.00,1.27
8243.00,1.27
8242.00,1.26
8241.00,1.26
8240.00,1.26
8239.00,1.25
8238.00,1.25
8237.00,1.25
8236.00,1.24
8235.00,1.24
8234.00,1.23
8233.00,1.23
8232.00,1.23
8231.00,1.22
8230.00,1.22
8229.00,1.21
8228.00,1.21
8227.00,1.21
8226.00,1.21
8225.00,1.21
8224.00,1.21
8223.00,1.21
8222.00,1.21
8221.00,1.21
8220.00,1.21
8219.00,1.21
8218.00,1.21
8217.00,1.21
8216.00,1.21
8215.00,1.21
8214.00,1.22
8213.00,1.22
8212.00,1.22
8211.00,1.22
8210.00,1.23
8209.00,1.23
8208.00,1.23
8207.00,1.24
8206.00,1.24
8205.00,1.24
8204.00,1.25
8203.00,1.25
8202.00,1.25
8201.00,1.26
8200.00,1.26
8199.00,1.26
8198.00,1.26
8197.00,1.26
8196.00,1.26
8195.00,1.27
8194.00,1.27
8193.00,1.27
8192.00,1.27
8191.00,1.27
8190.00,1.27
8189.00,1.28
8188.00,1.28
8187.00,1.28
8186.00,1.28
8185.00,1.28
8184.00,1.28
8183.00,1.28
8182.00,1.28
8181.00,1.28
8180.00,1.28
8179.00,1.27
8178.00,1.27
8177.00,1.27
8176.00,1.27
8175.00,1.26
8174.00,1.26
8173.00,1.26
8172.00,1.26
8171.00,1.25
8170.00,1.25
8169.00,1.25
8168.00,1.25
8167.00,1.25
8166.00,1.25
8165.00,1.24
8164.00,1.24
8163.00,1.24
8162.00,1.24
8161.00,1.24
8160.00,1.23
8159.00,1.23
8158.00,1.23
8157.00,1.23
8156.00,1.23
8155.00,1.23
8154.00,1.23
8153.00,1.23
8152.00,1.23
8151.00,1.24
8150.00,1.24
8149.00,1.25
8148.00,1.25
8147.00,1.25
8146.00,1.26
8145.00,1.26
8144.00,1.26
8143.00,1.27
8142.00,1.27
8141.00,1.27
8140.00,1.28
8139.00,1.28
8138.00,1.28
8137.00,1.28
8136.00,1.28
8135.00,1.29
8134.00,1.29
8133.00,1.29
8132.00,1.29
8131.00,1.29
8130.00,1.30
8129.00,1.30
8128.00,1.30
8127.00,1.30
8126.00,1.30
8125.00,1.30
8124.00,1.30
8123.00,1.30
8122.00,1.30
8121.00,1.30
8120.00,1.30
8119.00,1.31
8118.00,1.31
8117.00,1.31
8116.00,1.31
8115.00,1.32
8114.00,1.32
8113.00,1.32
8112.00,1.33
8111.00,1.33
8110.00,1.34
8109.00,1.34
8108.00,1.35
8107.00,1.35
8106.00,1.35
8105.00,1.36
8104.00,1.36
8103.00,1.37
8102.00,1.37
8101.00,1.37
8100.00,1.37
8099.00,1.38
8098.00,1.38
8097.00,1.38
8096.00,1.38
8095.00,1.38
8094.00,1.38
8093.00,1.38
8092.00,1.38
8091.00,1.38
8090.00,1.38
8089.00,1.37
8088.00,1.37
8087.00,1.37
8086.00,1.36
8085.00,1.36
8084.00,1.36
8083.00,1.35
8082.00,1.35
8081.00,1.34
8080.00,1.34
8079.00,1.34
8078.00,1.33
8077.00,1.33
8076.00,1.33
8075.00,1.32
8074.00,1.32
8073.00,1.32
8072.00,1.32
8071.00,1.32
8070.00,1.31
8069.00,1.31
8068.00,1.31
8067.00,1.31
8066.00,1.31
8065.00,1.30
8064.00,1.30
8063.00,1.30
8062.00,1.30
8061.00,1.29
8060.00,1.29
8059.00,1.29
8058.00,1.29
8057.00,1.29
8056.00,1.28
8055.00,1.28
8054.00,1.28
8053.00,1.28
8052.00,1.28
8051.00,1.27
8050.00,1.27
8049.00,1.27
8048.00,1.26
8047.00,1.26
8046.00,1.26
8045.00,1.26
8044.00,1.25
8043.00,1.25
8042.00,1.25
8041.00,1.25
8040.00,1.25
8039.00,1.24
8038.00,1.24
8037.00,1.25
8036.00,1.25
8035.00,1.25
8034.00,1.25
8033.00,1.25
8032.00,1.25
8031.00,1.26
8030.00,1.26
8029.00,1.26
8028.00,1.27
8027.00,1.27
8026.00,1.27
8025.00,1.28
8024.00,1.28
8023.00,1.29
8022.00,1.29
8021.00,1.30
8020.00,1.30
8019.00,1.30
8018.00,1.31
8017.00,1.31
8016.00,1.32
8015.00,1.32
8014.00,1.32
8013.00,1.33
8012.00,1.33
8011.00,1.33
8010.00,1.34
8009.00,1.34
8008.00,1.34
8007.00,1.34
8006.00,1.34
8005.00,1.34
8004.00,1.34
8003.00,1.34
8002.00,1.34
8001.00,1.34
8000.00,1.34
7999.00,1.34
7998.00,1.34
7997.00,1.34
7996.00,1.34
7995.00,1.34
7994.00,1.34
7993.00,1.34
7992.00,1.34
7991.00,1.34
7990.00,1.34
7989.00,1.33
7988.00,1.33
7987.00,1.33
7986.00,1.33
7985.00,1.33
7984.00,1.33
7983.00,1.33
7982.00,1.32
7981.00,1.32
7980.00,1.32
7979.00,1.32
7978.00,1.32
7977.00,1.32
7976.00,1.32
7975.00,1.31
7974.00,1.31
7973.00,1.31
7972.00,1.31
7971.00,1.31
7970.00,1.31
7969.00,1.31
7968.00,1.31
7967.00,1.31
7966.00,1.31
7965.00,1.31
7964.00,1.31
7963.00,1.31
7962.00,1.31
7961.00,1.31
7960.00,1.31
7959.00,1.31
7958.00,1.31
7957.00,1.31
7956.00,1.31
7955.00,1.32
7954.00,1.32
7953.00,1.32
7952.00,1.32
7951.00,1.33
7950.00,1.33
7949.00,1.33
7948.00,1.33
7947.00,1.33
7946.00,1.33
7945.00,1.33
7944.00,1.33
7943.00,1.33
7942.00,1.33
7941.00,1.33
7940.00,1.33
7939.00,1.33
7938.00,1.33
7937.00,1.33
7936.00,1.33
7935.00,1.33
7934.00,1.33
7933.00,1.33
7932.00,1.33
7931.00,1.33
7930.00,1.33
7929.00,1.33
7928.00,1.32
7927.00,1.32
7926.00,1.32
7925.00,1.32
7924.00,1.31
7923.00,1.31
7922.00,1.31
7921.00,1.31
7920.00,1.31
7919.00,1.31
7918.00,1.31
7917.00,1.31
7916.00,1.31
7915.00,1.32
7914.00,1.32
7913.00,1.32
7912.00,1.32
7911.00,1.32
7910.00,1.32
7909.00,1.32
7908.00,1.32
7907.00,1.32
7906.00,1.32
7905.00,1.32
7904.00,1.32
7903.00,1.32
7902.00,1.32
7901.00,1.32
7900.00,1.32
7899.00,1.33
7898.00,1.33
7897.00,1.33
7896.00,1.33
7895.00,1.33
7894.00,1.33
7893.00,1.33
7892.00,1.33
7891.00,1.34
7890.00,1.34
7889.00,1.34
7888.00,1.34
7887.00,1.34
7886.00,1.34
7885.00,1.34
7884.00,1.35
7883.00,1.35
7882.00,1.35
7881.00,1.35
7880.00,1.35
7879.00,1.35
7878.00,1.35
7877.00,1.36
7876.00,1.36
7875.00,1.36
7874.00,1.36
7873.00,1.36
7872.00,1.36
7871.00,1.36
7870.00,1.36
7869.00,1.36
7868.00,1.37
7867.00,1.37
7866.00,1.37
7865.00,1.37
7864.00,1.37
7863.00,1.37
7862.00,1.37
7861.00,1.37
7860.00,1.37
7859.00,1.37
7858.00,1.37
7857.00,1.37
7856.00,1.37
7855.00,1.37
7854.00,1.37
7853.00,1.37
7852.00,1.37
7851.00,1.37
7850.00,1.37
7849.00,1.37
7848.00,1.37
7847.00,1.37
7846.00,1.37
7845.00,1.37
7844.00,1.36
7843.00,1.36
7842.00,1.36
7841.00,1.36
7840.00,1.36
7839.00,1.36
7838.00,1.36
7837.00,1.37
7836.00,1.37
7835.00,1.37
7834.00,1.37
7833.00,1.37
7832.00,1.37
7831.00,1.37
7830.00,1.38
7829.00,1.38
7828.00,1.38
7827.00,1.38
7826.00,1.38
7825.00,1.39
7824.00,1.39
7823.00,1.39
7822.00,1.40
7821.00,1.40
7820.00,1.40
7819.00,1.41
7818.00,1.41
7817.00,1.41
7816.00,1.42
7815.00,1.42
7814.00,1.42
7813.00,1.43
7812.00,1.43
7811.00,1.43
7810.00,1.43
7809.00,1.44
7808.00,1.44
7807.00,1.44
7806.00,1.44
7805.00,1.44
7804.00,1.44
7803.00,1.44
7802.00,1.44
7801.00,1.44
7800.00,1.44
7799.00,1.44
7798.00,1.44
7797.00,1.44
7796.00,1.44
7795.00,1.44
7794.00,1.44
7793.00,1.43
7792.00,1.43
7791.00,1.43
7790.00,1.42
7789.00,1.42
7788.00,1.41
7787.00,1.41
7786.00,1.41
7785.00,1.40
7784.00,1.40
7783.00,1.39
7782.00,1.39
7781.00,1.38
7780.00,1.38
7779.00,1.37
7778.00,1.37
7777.00,1.36
7776.00,1.36
7775.00,1.35
7774.00,1.35
7773.00,1.34
7772.00,1.34
7771.00,1.34
7770.00,1.33
7769.00,1.33
7768.00,1.32
7767.00,1.32
7766.00,1.32
7765.00,1.32
7764.00,1.32
7763.00,1.31
7762.00,1.31
7761.00,1.31
7760.00,1.31
7759.00,1.31
7758.00,1.31
7757.00,1.31
7756.00,1.31
7755.00,1.31
7754.00,1.31
7753.00,1.31
7752.00,1.31
7751.00,1.32
7750.00,1.32
7749.00,1.32
7748.00,1.32
7747.00,1.32
7746.00,1.33
7745.00,1.33
7744.00,1.33
7743.00,1.34
7742.00,1.34
7741.00,1.34
7740.00,1.35
7739.00,1.35
7738.00,1.35
7737.00,1.36
7736.00,1.36
7735.00,1.37
7734.00,1.37
7733.00,1.37
7732.00,1.38
7731.00,1.38
7730.00,1.39
7729.00,1.39
7728.00,1.39
7727.00,1.40
7726.00,1.40
7725.00,1.40
7724.00,1.40
7723.00,1.41
7722.00,1.41
7721.00,1.41
7720.00,1.42
7719.00,1.42
7718.00,1.42
7717.00,1.42
7716.00,1.42
7715.00,1.42
7714.00,1.42
7713.00,1.42
7712.00,1.42
7711.00,1.42
7710.00,1.42
7709.00,1.42
7708.00,1.42
7707.00,1.42
7706.00,1.42
7705.00,1.42
7704.00,1.42
7703.00,1.42
7702.00,1.42
7701.00,1.42
7700.00,1.42
7699.00,1.41
7698.00,1.41
7697.00,1.41
7696.00,1.41
7695.00,1.40
7694.00,1.40
7693.00,1.40
7692.00,1.40
7691.00,1.40
7690.00,1.40
7689.00,1.39
7688.00,1.39
7687.00,1.39
7686.00,1.39
7685.00,1.39
7684.00,1.39
7683.00,1.39
7682.00,1.39
7681.00,1.39
7680.00,1.39
7679.00,1.39
7678.00,1.39
7677.00,1.39
7676.00,1.39
7675.00,1.40
7674.00,1.40
7673.00,1.40
7672.00,1.40
7671.00,1.40
7670.00,1.40
7669.00,1.40
7668.00,1.41
7667.00,1.41
7666.00,1.41
7665.00,1.42
7664.00,1.42
7663.00,1.42
7662.00,1.42
7661.00,1.42
7660.00,1.43
7659.00,1.43
7658.00,1.43
7657.00,1.43
7656.00,1.43
7655.00,1.44
7654.00,1.44
7653.00,1.44
7652.00,1.44
7651.00,1.45
7650.00,1.45
7649.00,1.45
7648.00,1.45
7647.00,1.46
7646.00,1.46
7645.00,1.46
7644.00,1.47
7643.00,1.47
7642.00,1.47
7641.00,1.47
7640.00,1.47
7639.00,1.47
7638.00,1.47
7637.00,1.47
7636.00,1.47
7635.00,1.47
7634.00,1.47
7633.00,1.47
7632.00,1.47
7631.00,1.47
7630.00,1.47
7629.00,1.47
7628.00,1.46
7627.00,1.46
7626.00,1.46
7625.00,1.46
7624.00,1.46
7623.00,1.45
7622.00,1.45
7621.00,1.45
7620.00,1.44
7619.00,1.44
7618.00,1.44
7617.00,1.43
7616.00,1.43
7615.00,1.43
7614.00,1.43
7613.00,1.43
7612.00,1.42
7611.00,1.42
7610.00,1.42
7609.00,1.42
7608.00,1.42
7607.00,1.42
7606.00,1.42
7605.00,1.42
7604.00,1.42
7603.00,1.41
7602.00,1.41
7601.00,1.41
7600.00,1.41
7599.00,1.41
7598.00,1.41
7597.00,1.40
7596.00,1.40
7595.00,1.40
7594.00,1.40
7593.00,1.40
7592.00,1.40
7591.00,1.40
7590.00,1.40
7589.00,1.40
7588.00,1.40
7587.00,1.40
7586.00,1.40
7585.00,1.40
7584.00,1.40
7583.00,1.40
7582.00,1.40
7581.00,1.40
7580.00,1.40
7579.00,1.40
7578.00,1.40
7577.00,1.40
7576.00,1.40
7575.00,1.40
7574.00,1.40
7573.00,1.40
7572.00,1.40
7571.00,1.40
7570.00,1.40
7569.00,1.40
7568.00,1.40
7567.00,1.40
7566.00,1.40
7565.00,1.40
7564.00,1.40
7563.00,1.40
7562.00,1.40
7561.00,1.40
7560.00,1.40
7559.00,1.39
7558.00,1.39
7557.00,1.39
7556.00,1.38
7555.00,1.38
7554.00,1.38
7553.00,1.38
7552.00,1.37
7551.00,1.37
7550.00,1.37
7549.00,1.37
7548.00,1.37
7547.00,1.37
7546.00,1.37
7545.00,1.37
7544.00,1.36
7543.00,1.36
7542.00,1.36
7541.00,1.36
7540.00,1.36
7539.00,1.36
7538.00,1.36
7537.00,1.36
7536.00,1.36
7535.00,1.36
7534.00,1.36
7533.00,1.37
7532.00,1.37
7531.00,1.37
7530.00,1.37
7529.00,1.38
7528.00,1.38
7527.00,1.38
7526.00,1.38
7525.00,1.39
7524.00,1.39
7523.00,1.39
7522.00,1.39
7521.00,1.39
7520.00,1.39
7519.00,1.39
7518.00,1.40
7517.00,1.40
7516.00,1.40
7515.00,1.40
7514.00,1.40
7513.00,1.40
7512.00,1.40
7511.00,1.40
7510.00,1.39
7509.00,1.39
7508.00,1.39
7507.00,1.39
7506.00,1.39
7505.00,1.39
7504.00,1.39
7503.00,1.38
7502.00,1.38
7501.00,1.38
7500.00,1.38
7499.00,1.37
7498.00,1.37
7497.00,1.37
7496.00,1.37
7495.00,1.37
7494.00,1.37
7493.00,1.37
7492.00,1.37
7491.00,1.37
7490.00,1.37
7489.00,1.37
7488.00,1.37
7487.00,1.38
7486.00,1.38
7485.00,1.38
7484.00,1.38
7483.00,1.39
7482.00,1.39
7481.00,1.39
7480.00,1.39
7479.00,1.40
7478.00,1.40
7477.00,1.40
7476.00,1.41
7475.00,1.41
7474.00,1.42
7473.00,1.42
7472.00,1.43
7471.00,1.43
7470.00,1.44
7469.00,1.44
7468.00,1.44
7467.00,1.44
7466.00,1.45
7465.00,1.45
7464.00,1.45
7463.00,1.45
7462.00,1.45
7461.00,1.45
7460.00,1.45
7459.00,1.45
7458.00,1.45
7457.00,1.45
7456.00,1.45
7455.00,1.45
7454.00,1.45
7453.00,1.45
7452.00,1.45
7451.00,1.45
7450.00,1.45
7449.00,1.44
7448.00,1.44
7447.00,1.43
7446.00,1.43
7445.00,1.43
7444.00,1.42
7443.00,1.42
7442.00,1.41
7441.00,1.41
7440.00,1.40
7439.00,1.40
7438.00,1.39
7437.00,1.39
7436.00,1.39
7435.00,1.39
7434.00,1.38
7433.00,1.38
7432.00,1.38
7431.00,1.38
7430.00,1.37
7429.00,1.37
7428.00,1.37
7427.00,1.37
7426.00,1.37
7425.00,1.37
7424.00,1.37
7423.00,1.37
7422.00,1.37
7421.00,1.38
7420.00,1.38
7419.00,1.38
7418.00,1.39
7417.00,1.39
7416.00,1.39
7415.00,1.40
7414.00,1.40
7413.00,1.40
7412.00,1.41
7411.00,1.41
7410.00,1.41
7409.00,1.41
7408.00,1.41
7407.00,1.41
7406.00,1.41
7405.00,1.41
7404.00,1.41
7403.00,1.41
7402.00,1.41
7401.00,1.41
7400.00,1.41
7399.00,1.41
7398.00,1.41
7397.00,1.40
7396.00,1.40
7395.00,1.40
7394.00,1.39
7393.00,1.39
7392.00,1.38
7391.00,1.38
7390.00,1.38
7389.00,1.37
7388.00,1.37
7387.00,1.36
7386.00,1.36
7385.00,1.35
7384.00,1.35
7383.00,1.35
7382.00,1.34
7381.00,1.34
7380.00,1.34
7379.00,1.34
7378.00,1.34
7377.00,1.34
7376.00,1.33
7375.00,1.33
7374.00,1.33
7373.00,1.33
7372.00,1.33
7371.00,1.34
7370.00,1.34
7369.00,1.34
7368.00,1.34
7367.00,1.34
7366.00,1.34
7365.00,1.34
7364.00,1.35
7363.00,1.35
7362.00,1.35
7361.00,1.35
7360.00,1.36
7359.00,1.36
7358.00,1.36
7357.00,1.37
7356.00,1.37
7355.00,1.37
7354.00,1.37
7353.00,1.37
7352.00,1.38
7351.00,1.38
7350.00,1.38
7349.00,1.38
7348.00,1.38
7347.00,1.38
7346.00,1.38
7345.00,1.38
7344.00,1.38
7343.00,1.38
7342.00,1.38
7341.00,1.38
7340.00,1.38
7339.00,1.38
7338.00,1.38
7337.00,1.38
7336.00,1.38
7335.00,1.38
7334.00,1.38
7333.00,1.38
7332.00,1.37
7331.00,1.37
7330.00,1.37
7329.00,1.37
7328.00,1.36
7327.00,1.36
7326.00,1.36
7325.00,1.36
7324.00,1.36
7323.00,1.35
7322.00,1.35
7321.00,1.35
7320.00,1.35
7319.00,1.35
7318.00,1.34
7317.00,1.34
7316.00,1.34
7315.00,1.34
7314.00,1.34
7313.00,1.34
7312.00,1.33
7311.00,1.33
7310.00,1.33
7309.00,1.33
7308.00,1.33
7307.00,1.33
7306.00,1.33
7305.00,1.33
7304.00,1.33
7303.00,1.33
7302.00,1.33
7301.00,1.33
7300.00,1.33
7299.00,1.33
7298.00,1.33
7297.00,1.33
7296.00,1.33
7295.00,1.34
7294.00,1.34
7293.00,1.34
7292.00,1.34
7291.00,1.34
7290.00,1.34
7289.00,1.34
7288.00,1.34
7287.00,1.34
7286.00,1.34
7285.00,1.34
7284.00,1.34
7283.00,1.34
7282.00,1.33
7281.00,1.33
7280.00,1.33
7279.00,1.33
7278.00,1.33
7277.00,1.33
7276.00,1.33
7275.00,1.32
7274.00,1.32
7273.00,1.32
7272.00,1.32
7271.00,1.32
7270.00,1.31
7269.00,1.31
7268.00,1.31
7267.00,1.30
7266.00,1.30
7265.00,1.30
7264.00,1.29
7263.00,1.29
7262.00,1.29
7261.00,1.28
7260.00,1.28
7259.00,1.28
7258.00,1.28
7257.00,1.28
7256.00,1.28
7255.00,1.27
7254.00,1.27
7253.00,1.27
7252.00,1.27
7251.00,1.27
7250.00,1.27
7249.00,1.27
7248.00,1.27
7247.00,1.26
7246.00,1.26
7245.00,1.26
7244.00,1.26
7243.00,1.26
7242.00,1.26
7241.00,1.26
7240.00,1.25
7239.00,1.25
7238.00,1.25
7237.00,1.25
7236.00,1.25
7235.00,1.24
7234.00,1.24
7233.00,1.24
7232.00,1.23
7231.00,1.23
7230.00,1.22
7229.00,1.22
7228.00,1.21
7227.00,1.21
7226.00,1.20
7225.00,1.19
7224.00,1.18
7223.00,1.18
7222.00,1.17
7221.00,1.16
7220.00,1.15
7219.00,1.14
7218.00,1.14
7217.00,1.13
7216.00,1.12
7215.00,1.11
7214.00,1.11
7213.00,1.10
7212.00,1.09
7211.00,1.09
7210.00,1.08
7209.00,1.08
7208.00,1.07
7207.00,1.07
7206.00,1.07
7205.00,1.06
7204.00,1.06
7203.00,1.06
7202.00,1.06
7201.00,1.06
7200.00,1.06
7199.00,1.06
7198.00,1.06
7197.00,1.06
7196.00,1.06
7195.00,1.06
7194.00,1.06
7193.00,1.06
7192.00,1.06
7191.00,1.06
7190.00,1.06
7189.00,1.06
7188.00,1.06
7187.00,1.06
7186.00,1.06
7185.00,1.06
7184.00,1.06
7183.00,1.06
7182.00,1.06
7181.00,1.06
7180.00,1.06
7179.00,1.06
7178.00,1.06
7177.00,1.06
7176.00,1.05
7175.00,1.05
7174.00,1.05
7173.00,1.05
7172.00,1.04
7171.00,1.04
7170.00,1.04
7169.00,1.04
7168.00,1.04
7167.00,1.04
7166.00,1.04
7165.00,1.03
7164.00,1.03
7163.00,1.03
7162.00,1.03
7161.00,1.03
7160.00,1.03
7159.00,1.02
7158.00,1.02
7157.00,1.02
7156.00,1.02
7155.00,1.01
7154.00,1.01
7153.00,1.01
7152.00,1.01
7151.00,1.01
7150.00,1.01
7149.00,1.00
7148.00,1.00
7147.00,1.00
7146.00,1.00
7145.00,1.00
7144.00,1.00
7143.00,1.00
7142.00,0.99
7141.00,0.99
7140.00,0.99
7139.00,0.99
7138.00,0.98
7137.00,0.98
7136.00,0.98
7135.00,0.98
7134.00,0.97
7133.00,0.97
7132.00,0.97
7131.00,0.97
7130.00,0.96
7129.00,0.96
7128.00,0.96
7127.00,0.96
7126.00,0.95
7125.00,0.95
7124.00,0.95
7123.00,0.95
7122.00,0.94
7121.00,0.94
7120.00,0.94
7119.00,0.93
7118.00,0.93
7117.00,0.92
7116.00,0.92
7115.00,0.92
7114.00,0.91
7113.00,0.91
7112.00,0.90
7111.00,0.90
7110.00,0.89
7109.00,0.89
7108.00,0.88
7107.00,0.88
7106.00,0.88
7105.00,0.87
7104.00,0.87
7103.00,0.86
7102.00,0.86
7101.00,0.85
7100.00,0.85
7099.00,0.84
7098.00,0.84
7097.00,0.84
7096.00,0.83
7095.00,0.83
7094.00,0.83
7093.00,0.82
7092.00,0.82
7091.00,0.82
7090.00,0.81
7089.00,0.81
7088.00,0.81
7087.00,0.81
7086.00,0.81
7085.00,0.80
7084.00,0.80
7083.00,0.80
7082.00,0.80
7081.00,0.80
7080.00,0.80
7079.00,0.79
7078.00,0.79
7077.00,0.79
7076.00,0.79
7075.00,0.79
7074.00,0.79
7073.00,0.79
7072.00,0.79
7071.00,0.79
7070.00,0.78
7069.00,0.78
7068.00,0.78
7067.00,0.78
7066.00,0.78
7065.00,0.78
7064.00,0.77
7063.00,0.77
7062.00,0.77
7061.00,0.77
7060.00,0.77
7059.00,0.76
7058.00,0.76
7057.00,0.76
7056.00,0.76
7055.00,0.76
7054.00,0.76
7053.00,0.76
7052.00,0.76
7051.00,0.76
7050.00,0.76
7049.00,0.75
7048.00,0.75
7047.00,0.75
7046.00,0.75
7045.00,0.75
7044.00,0.75
7043.00,0.75
7042.00,0.75
7041.00,0.74
7040.00,0.74
7039.00,0.74
7038.00,0.74
7037.00,0.74
7036.00,0.74
7035.00,0.73
7034.00,0.73
7033.00,0.73
7032.00,0.73
7031.00,0.73
7030.00,0.72
7029.00,0.72
7028.00,0.72
7027.00,0.72
7026.00,0.72
7025.00,0.71
7024.00,0.71
7023.00,0.71
7022.00,0.71
7021.00,0.71
7020.00,0.70
7019.00,0.70
7018.00,0.70
7017.00,0.70
7016.00,0.69
7015.00,0.69
7014.00,0.69
7013.00,0.68
7012.00,0.68
7011.00,0.68
7010.00,0.68
7009.00,0.68
7008.00,0.68
7007.00,0.68
7006.00,0.68
7005.00,0.68
7004.00,0.68
7003.00,0.68
7002.00,0.68
7001.00,0.68
7000.00,0.68
6999.00,0.68
6998.00,0.68
6997.00,0.68
6996.00,0.68
6995.00,0.68
6994.00,0.68
6993.00,0.68
6992.00,0.68
6991.00,0.69
6990.00,0.69
6989.00,0.69
6988.00,0.69
6987.00,0.70
6986.00,0.70
6985.00,0.70
6984.00,0.71
6983.00,0.71
6982.00,0.71
6981.00,0.71
6980.00,0.71
6979.00,0.71
6978.00,0.71
6977.00,0.71
6976.00,0.72
6975.00,0.72
6974.00,0.72
6973.00,0.72
6972.00,0.72
6971.00,0.72
6970.00,0.72
6969.00,0.72
6968.00,0.72
6967.00,0.72
6966.00,0.72
6965.00,0.72
6964.00,0.71
6963.00,0.71
6962.00,0.71
6961.00,0.71
6960.00,0.71
6959.00,0.71
6958.00,0.70
6957.00,0.70
6956.00,0.70
6955.00,0.70
6954.00,0.70
6953.00,0.70
6952.00,0.70
6951.00,0.70
6950.00,0.70
6949.00,0.70
6948.00,0.69
6947.00,0.69
6946.00,0.69
6945.00,0.69
6944.00,0.69
6943.00,0.68
6942.00,0.68
6941.00,0.68
6940.00,0.68
6939.00,0.67
6938.00,0.67
6937.00,0.67
6936.00,0.67
6935.00,0.66
6934.00,0.66
6933.00,0.66
6932.00,0.65
6931.00,0.65
6930.00,0.64
6929.00,0.64
6928.00,0.63
6927.00,0.63
6926.00,0.63
6925.00,0.62
6924.00,0.62
6923.00,0.62
6922.00,0.62
6921.00,0.61
6920.00,0.61
6919.00,0.61
6918.00,0.61
6917.00,0.61
6916.00,0.61
6915.00,0.60
6914.00,0.60
6913.00,0.60
6912.00,0.60
6911.00,0.60
6910.00,0.60
6909.00,0.60
6908.00,0.60
6907.00,0.61
6906.00,0.61
6905.00,0.61
6904.00,0.61
6903.00,0.61
6902.00,0.62
6901.00,0.62
6900.00,0.62
6899.00,0.62
6898.00,0.62
6897.00,0.63
6896.00,0.63
6895.00,0.63
6894.00,0.63
6893.00,0.63
6892.00,0.63
6891.00,0.63
6890.00,0.63
6889.00,0.63
6888.00,0.64
6887.00,0.64
6886.00,0.64
6885.00,0.64
6884.00,0.64
6883.00,0.64
6882.00,0.64
6881.00,0.64
6880.00,0.64
6879.00,0.64
6878.00,0.64
6877.00,0.64
6876.00,0.64
6875.00,0.63
6874.00,0.63
6873.00,0.63
6872.00,0.63
6871.00,0.63
6870.00,0.63
6869.00,0.63
6868.00,0.63
6867.00,0.63
6866.00,0.63
6865.00,0.63
6864.00,0.63
6863.00,0.63
6862.00,0.63
6861.00,0.63
6860.00,0.63
6859.00,0.63
6858.00,0.63
6857.00,0.64
6856.00,0.64
6855.00,0.64
6854.00,0.64
6853.00,0.64
6852.00,0.64
6851.00,0.64
6850.00,0.64
6849.00,0.64
6848.00,0.64
6847.00,0.64
6846.00,0.65
6845.00,0.65
6844.00,0.65
6843.00,0.65
6842.00,0.65
6841.00,0.65
6840.00,0.65
6839.00,0.65
6838.00,0.65
6837.00,0.65
6836.00,0.65
6835.00,0.65
6834.00,0.65
6833.00,0.65
6832.00,0.65
6831.00,0.65
6830.00,0.65
6829.00,0.65
6828.00,0.65
6827.00,0.65
6826.00,0.65
6825.00,0.65
6824.00,0.66
6823.00,0.66
6822.00,0.66
6821.00,0.66
6820.00,0.66
6819.00,0.66
6818.00,0.66
6817.00,0.66
6816.00,0.66
6815.00,0.66
6814.00,0.66
6813.00,0.66
6812.00,0.66
6811.00,0.66
6810.00,0.66
6809.00,0.66
6808.00,0.66
6807.00,0.67
6806.00,0.67
6805.00,0.67
6804.00,0.67
6803.00,0.67
6802.00,0.68
6801.00,0.68
6800.00,0.68
6799.00,0.68
6798.00,0.68
6797.00,0.69
6796.00,0.69
6795.00,0.69
6794.00,0.69
6793.00,0.69
6792.00,0.70
6791.00,0.70
6790.00,0.70
6789.00,0.70
6788.00,0.71
6787.00,0.71
6786.00,0.71
6785.00,0.71
6784.00,0.71
6783.00,0.71
6782.00,0.71
6781.00,0.72
6780.00,0.72
6779.00,0.72
6778.00,0.72
6777.00,0.72
6776.00,0.72
6775.00,0.71
6774.00,0.71
6773.00,0.71
6772.00,0.71
6771.00,0.71
6770.00,0.71
6769.00,0.70
6768.00,0.70
6767.00,0.70
6766.00,0.70
6765.00,0.70
6764.00,0.69
6763.00,0.69
6762.00,0.69
6761.00,0.69
6760.00,0.68
6759.00,0.68
6758.00,0.68
6757.00,0.68
6756.00,0.68
6755.00,0.67
6754.00,0.67
6753.00,0.67
6752.00,0.67
6751.00,0.67
6750.00,0.67
6749.00,0.67
6748.00,0.66
6747.00,0.66
6746.00,0.66
6745.00,0.66
6744.00,0.66
6743.00,0.66
6742.00,0.66
6741.00,0.66
6740.00,0.66
6739.00,0.66
6738.00,0.66
6737.00,0.66
6736.00,0.66
6735.00,0.66
6734.00,0.66
6733.00,0.66
6732.00,0.66
6731.00,0.66
6730.00,0.66
6729.00,0.66
6728.00,0.66
6727.00,0.66
6726.00,0.66
6725.00,0.66
6724.00,0.66
6723.00,0.66
6722.00,0.66
6721.00,0.66
6720.00,0.66
6719.00,0.66
6718.00,0.66
6717.00,0.66
6716.00,0.66
6715.00,0.66
6714.00,0.66
6713.00,0.67
6712.00,0.67
6711.00,0.67
6710.00,0.67
6709.00,0.67
6708.00,0.67
6707.00,0.67
6706.00,0.67
6705.00,0.68
6704.00,0.68
6703.00,0.68
6702.00,0.68
6701.00,0.68
6700.00,0.69
6699.00,0.69
6698.00,0.69
6697.00,0.70
6696.00,0.70
6695.00,0.70
6694.00,0.71
6693.00,0.71
6692.00,0.71
6691.00,0.71
6690.00,0.72
6689.00,0.72
6688.00,0.72
6687.00,0.73
6686.00,0.73
6685.00,0.73
6684.00,0.74
6683.00,0.74
6682.00,0.74
6681.00,0.75
6680.00,0.75
6679.00,0.75
6678.00,0.76
6677.00,0.76
6676.00,0.76
6675.00,0.76
6674.00,0.76
6673.00,0.76
6672.00,0.77
6671.00,0.77
6670.00,0.77
6669.00,0.77
6668.00,0.77
6667.00,0.77
6666.00,0.77
6665.00,0.77
6664.00,0.77
6663.00,0.78
6662.00,0.78
6661.00,0.78
6660.00,0.78
6659.00,0.78
6658.00,0.78
6657.00,0.78
6656.00,0.78
6655.00,0.78
6654.00,0.79
6653.00,0.79
6652.00,0.79
6651.00,0.79
6650.00,0.79
6649.00,0.79
6648.00,0.79
6647.00,0.79
6646.00,0.79
6645.00,0.80
6644.00,0.80
6643.00,0.80
6642.00,0.80
6641.00,0.80
6640.00,0.81
6639.00,0.81
6638.00,0.81
6637.00,0.81
6636.00,0.81
6635.00,0.81
6634.00,0.81
6633.00,0.81
6632.00,0.81
6631.00,0.81
6630.00,0.81
6629.00,0.81
6628.00,0.81
6627.00,0.81
6626.00,0.81
6625.00,0.81
6624.00,0.81
6623.00,0.81
6622.00,0.81
6621.00,0.81
6620.00,0.81
6619.00,0.81
6618.00,0.81
6617.00,0.81
6616.00,0.81
6615.00,0.81
6614.00,0.81
6613.00,0.81
6612.00,0.82
6611.00,0.82
6610.00,0.82
6609.00,0.82
6608.00,0.82
6607.00,0.82
6606.00,0.82
6605.00,0.83
6604.00,0.83
6603.00,0.83
6602.00,0.83
6601.00,0.83
6600.00,0.84
6599.00,0.84
6598.00,0.84
6597.00,0.84
6596.00,0.84
6595.00,0.84
6594.00,0.84
6593.00,0.85
6592.00,0.85
6591.00,0.85
6590.00,0.85
6589.00,0.85
6588.00,0.85
6587.00,0.85
6586.00,0.86
6585.00,0.86
6584.00,0.86
6583.00,0.86
6582.00,0.86
6581.00,0.86
6580.00,0.86
6579.00,0.87
6578.00,0.87
6577.00,0.87
6576.00,0.87
6575.00,0.87
6574.00,0.87
6573.00,0.87
6572.00,0.87
6571.00,0.88
6570.00,0.88
6569.00,0.88
6568.00,0.88
6567.00,0.88
6566.00,0.88
6565.00,0.88
6564.00,0.88
6563.00,0.88
6562.00,0.89
6561.00,0.89
6560.00,0.89
6559.00,0.89
6558.00,0.89
6557.00,0.89
6556.00,0.89
6555.00,0.89
6554.00,0.89
6553.00,0.89
6552.00,0.89
6551.00,0.89
6550.00,0.89
6549.00,0.89
6548.00,0.89
6547.00,0.89
6546.00,0.89
6545.00,0.89
6544.00,0.90
6543.00,0.90
6542.00,0.90
6541.00,0.90
6540.00,0.90
6539.00,0.90
6538.00,0.90
6537.00,0.90
6536.00,0.90
6535.00,0.91
6534.00,0.91
6533.00,0.91
6532.00,0.91
6531.00,0.91
6530.00,0.91
6529.00,0.91
6528.00,0.91
6527.00,0.91
6526.00,0.92
6525.00,0.92
6524.00,0.92
6523.00,0.92
6522.00,0.92
6521.00,0.92
6520.00,0.92
6519.00,0.92
6518.00,0.92
6517.00,0.92
6516.00,0.92
6515.00,0.92
6514.00,0.92
6513.00,0.92
6512.00,0.92
6511.00,0.92
6510.00,0.92
6509.00,0.92
6508.00,0.91
6507.00,0.91
6506.00,0.91
6505.00,0.91
6504.00,0.91
6503.00,0.91
6502.00,0.91
6501.00,0.91
6500.00,0.91
6499.00,0.91
6498.00,0.91
6497.00,0.91
6496.00,0.91
6495.00,0.91
6494.00,0.91
6493.00,0.91
6492.00,0.91
6491.00,0.91
6490.00,0.91
6489.00,0.91
6488.00,0.91
6487.00,0.91
6486.00,0.91
6485.00,0.92
6484.00,0.92
6483.00,0.92
6482.00,0.92
6481.00,0.92
6480.00,0.93
6479.00,0.93
6478.00,0.93
6477.00,0.93
6476.00,0.93
6475.00,0.94
6474.00,0.94
6473.00,0.94
6472.00,0.94
6471.00,0.94
6470.00,0.95
6469.00,0.95
6468.00,0.95
6467.00,0.95
6466.00,0.95
6465.00,0.96
6464.00,0.96
6463.00,0.96
6462.00,0.96
6461.00,0.97
6460.00,0.97
6459.00,0.97
6458.00,0.97
6457.00,0.97
6456.00,0.97
6455.00,0.97
6454.00,0.97
6453.00,0.97
6452.00,0.98
6451.00,0.98
6450.00,0.98
6449.00,0.98
6448.00,0.98
6447.00,0.98
6446.00,0.98
6445.00,0.98
6444.00,0.98
6443.00,0.98
6442.00,0.98
6441.00,0.98
6440.00,0.98
6439.00,0.98
6438.00,0.98
6437.00,0.98
6436.00,0.98
6435.00,0.98
6434.00,0.98
6433.00,0.98
6432.00,0.98
6431.00,0.98
6430.00,0.98
6429.00,0.98
6428.00,0.98
6427.00,0.98
6426.00,0.98
6425.00,0.98
6424.00,0.98
6423.00,0.98
6422.00,0.98
6421.00,0.98
6420.00,0.98
6419.00,0.98
6418.00,0.98
6417.00,0.98
6416.00,0.98
6415.00,0.98
6414.00,0.98
6413.00,0.98
6412.00,0.98
6411.00,0.98
6410.00,0.98
6409.00,0.98
6408.00,0.98
6407.00,0.98
6406.00,0.98
6405.00,0.98
6404.00,0.98
6403.00,0.98
6402.00,0.98
6401.00,0.98
6400.00,0.98
6399.00,0.98
6398.00,0.98
6397.00,0.99
6396.00,0.99
6395.00,0.99
6394.00,0.99
6393.00,0.99
6392.00,0.99
6391.00,0.99
6390.00,0.99
6389.00,0.99
6388.00,0.99
6387.00,0.99
6386.00,0.99
6385.00,0.99
6384.00,0.99
6383.00,0.99
6382.00,0.99
6381.00,0.99
6380.00,0.99
6379.00,0.99
6378.00,0.99
6377.00,0.99
6376.00,1.00
6375.00,1.00
6374.00,1.00
6373.00,1.00
6372.00,1.00
6371.00,1.00
6370.00,1.00
6369.00,1.00
6368.00,1.00
6367.00,1.00
6366.00,1.00
6365.00,1.01
6364.00,1.01
6363.00,1.01
6362.00,1.01
6361.00,1.01
6360.00,1.01
6359.00,1.01
6358.00,1.01
6357.00,1.01
6356.00,1.01
6355.00,1.01
6354.00,1.01
6353.00,1.01
6352.00,1.01
6351.00,1.01
6350.00,1.01
6349.00,1.01
6348.00,1.01
6347.00,1.01
6346.00,1.01
6345.00,1.01
6344.00,1.01
6343.00,1.01
6342.00,1.01
6341.00,1.01
6340.00,1.01
6339.00,1.01
6338.00,1.01
6337.00,1.01
6336.00,1.01
6335.00,1.01
6334.00,1.00
6333.00,1.00
6332.00,1.00
6331.00,1.00
6330.00,1.00
6329.00,1.00
6328.00,1.00
6327.00,1.00
6326.00,1.00
6325.00,1.00
6324.00,1.00
6323.00,1.00
6322.00,1.00
6321.00,1.00
6320.00,1.00
6319.00,1.00
6318.00,1.00
6317.00,1.00
6316.00,1.00
6315.00,1.00
6314.00,1.00
6313.00,1.00
6312.00,1.01
6311.00,1.01
6310.00,1.01
6309.00,1.01
6308.00,1.01
6307.00,1.02
6306.00,1.02
6305.00,1.02
6304.00,1.02
6303.00,1.02
6302.00,1.03
6301.00,1.03
6300.00,1.03
6299.00,1.03
6298.00,1.04
6297.00,1.04
6296.00,1.04
6295.00,1.05
6294.00,1.05
6293.00,1.05
6292.00,1.06
6291.00,1.06
6290.00,1.06
6289.00,1.07
6288.00,1.07
6287.00,1.07
6286.00,1.07
6285.00,1.08
6284.00,1.08
6283.00,1.08
6282.00,1.08
6281.00,1.09
6280.00,1.09
6279.00,1.09
6278.00,1.10
6277.00,1.10
6276.00,1.10
6275.00,1.11
6274.00,1.11
6273.00,1.11
6272.00,1.11
6271.00,1.11
6270.00,1.12
6269.00,1.12
6268.00,1.12
6267.00,1.12
6266.00,1.12
6265.00,1.13
6264.00,1.13
6263.00,1.13
6262.00,1.13
6261.00,1.14
6260.00,1.14
6259.00,1.14
6258.00,1.14
6257.00,1.15
6256.00,1.15
6255.00,1.15
6254.00,1.15
6253.00,1.16
6252.00,1.16
6251.00,1.16
6250.00,1.16
6249.00,1.16
6248.00,1.17
6247.00,1.17
6246.00,1.17
6245.00,1.17
6244.00,1.17
6243.00,1.17
6242.00,1.18
6241.00,1.18
6240.00,1.18
6239.00,1.18
6238.00,1.18
6237.00,1.18
6236.00,1.18
6235.00,1.18
6234.00,1.18
6233.00,1.18
6232.00,1.18
6231.00,1.18
6230.00,1.18
6229.00,1.17
6228.00,1.17
6227.00,1.17
6226.00,1.17
6225.00,1.17
6224.00,1.17
6223.00,1.17
6222.00,1.16
6221.00,1.16
6220.00,1.16
6219.00,1.16
6218.00,1.16
6217.00,1.16
6216.00,1.17
6215.00,1.17
6214.00,1.17
6213.00,1.17
6212.00,1.17
6211.00,1.17
6210.00,1.17
6209.00,1.17
6208.00,1.18
6207.00,1.18
6206.00,1.18
6205.00,1.18
6204.00,1.19
6203.00,1.19
6202.00,1.19
6201.00,1.20
6200.00,1.20
6199.00,1.20
6198.00,1.21
6197.00,1.21
6196.00,1.21
6195.00,1.21
6194.00,1.22
6193.00,1.22
6192.00,1.22
6191.00,1.22
6190.00,1.22
6189.00,1.22
6188.00,1.22
6187.00,1.23
6186.00,1.23
6185.00,1.23
6184.00,1.23
6183.00,1.23
6182.00,1.23
6181.00,1.23
6180.00,1.23
6179.00,1.23
6178.00,1.23
6177.00,1.23
6176.00,1.23
6175.00,1.23
6174.00,1.23
6173.00,1.23
6172.00,1.23
6171.00,1.23
6170.00,1.23
6169.00,1.23
6168.00,1.23
6167.00,1.23
6166.00,1.23
6165.00,1.23
6164.00,1.23
6163.00,1.23
6162.00,1.23
6161.00,1.23
6160.00,1.23
6159.00,1.24
6158.00,1.24
6157.00,1.24
6156.00,1.24
6155.00,1.24
6154.00,1.24
6153.00,1.24
6152.00,1.24
6151.00,1.24
6150.00,1.24
6149.00,1.24
6148.00,1.24
6147.00,1.24
6146.00,1.24
6145.00,1.24
6144.00,1.24
6143.00,1.24
6142.00,1.25
6141.00,1.25
6140.00,1.25
6139.00,1.25
6138.00,1.25
6137.00,1.25
6136.00,1.25
6135.00,1.26
6134.00,1.26
6133.00,1.26
6132.00,1.26
6131.00,1.26
6130.00,1.26
6129.00,1.27
6128.00,1.27
6127.00,1.27
6126.00,1.27
6125.00,1.27
6124.00,1.28
6123.00,1.28
6122.00,1.28
6121.00,1.28
6120.00,1.28
6119.00,1.29
6118.00,1.29
6117.00,1.29
6116.00,1.29
6115.00,1.29
6114.00,1.30
6113.00,1.30
6112.00,1.30
6111.00,1.30
6110.00,1.30
6109.00,1.30
6108.00,1.30
6107.00,1.31
6106.00,1.31
6105.00,1.31
6104.00,1.31
6103.00,1.31
6102.00,1.31
6101.00,1.31
6100.00,1.31
6099.00,1.31
6098.00,1.31
6097.00,1.31
6096.00,1.31
6095.00,1.31
6094.00,1.31
6093.00,1.31
6092.00,1.31
6091.00,1.31
6090.00,1.31
6089.00,1.31
6088.00,1.32
6087.00,1.32
6086.00,1.32
6085.00,1.32
6084.00,1.32
6083.00,1.32
6082.00,1.32
6081.00,1.33
6080.00,1.33
6079.00,1.33
6078.00,1.33
6077.00,1.34
6076.00,1.34
6075.00,1.34
6074.00,1.34
6073.00,1.35
6072.00,1.35
6071.00,1.35
6070.00,1.36
6069.00,1.36
6068.00,1.36
6067.00,1.36
6066.00,1.36
6065.00,1.37
6064.00,1.37
6063.00,1.37
6062.00,1.37
6061.00,1.37
6060.00,1.37
6059.00,1.37
6058.00,1.37
6057.00,1.37
6056.00,1.37
6055.00,1.37
6054.00,1.37
6053.00,1.37
6052.00,1.37
6051.00,1.37
6050.00,1.37
6049.00,1.37
6048.00,1.37
6047.00,1.37
6046.00,1.37
6045.00,1.37
6044.00,1.37
6043.00,1.37
6042.00,1.37
6041.00,1.37
6040.00,1.37
6039.00,1.37
6038.00,1.37
6037.00,1.37
6036.00,1.37
6035.00,1.37
6034.00,1.37
6033.00,1.37
6032.00,1.37
6031.00,1.37
6030.00,1.37
6029.00,1.37
6028.00,1.37
6027.00,1.37
6026.00,1.37
6025.00,1.37
6024.00,1.37
6023.00,1.37
6022.00,1.37
6021.00,1.37
6020.00,1.37
6019.00,1.38
6018.00,1.38
6017.00,1.38
6016.00,1.38
6015.00,1.38
6014.00,1.38
6013.00,1.38
6012.00,1.38
6011.00,1.38
6010.00,1.38
6009.00,1.38
6008.00,1.38
6007.00,1.38
6006.00,1.38
6005.00,1.38
6004.00,1.38
6003.00,1.38
6002.00,1.38
6001.00,1.37
6000.00,1.37
5999.00,1.37
5998.00,1.37
5997.00,1.37
5996.00,1.37
5995.00,1.37
5994.00,1.36
5993.00,1.36
5992.00,1.36
5991.00,1.36
5990.00,1.36
5989.00,1.35
5988.00,1.35
5987.00,1.35
5986.00,1.35
5985.00,1.34
5984.00,1.34
5983.00,1.33
5982.00,1.33
5981.00,1.33
5980.00,1.32
5979.00,1.32
5978.00,1.31
5977.00,1.31
5976.00,1.30
5975.00,1.30
5974.00,1.29
5973.00,1.29
5972.00,1.28
5971.00,1.27
5970.00,1.27
5969.00,1.26
5968.00,1.25
5967.00,1.25
5966.00,1.24
5965.00,1.24
5964.00,1.23
5963.00,1.22
5962.00,1.22
5961.00,1.21
5960.00,1.21
5959.00,1.20
5958.00,1.20
5957.00,1.19
5956.00,1.19
5955.00,1.18
5954.00,1.18
5953.00,1.17
5952.00,1.17
5951.00,1.16
5950.00,1.16
5949.00,1.15
5948.00,1.15
5947.00,1.14
5946.00,1.14
5945.00,1.14
5944.00,1.14
5943.00,1.13
5942.00,1.13
5941.00,1.13
5940.00,1.13
5939.00,1.13
5938.00,1.13
5937.00,1.13
5936.00,1.12
5935.00,1.12
5934.00,1.12
5933.00,1.12
5932.00,1.12
5931.00,1.12
5930.00,1.12
5929.00,1.12
5928.00,1.12
5927.00,1.12
5926.00,1.12
5925.00,1.12
5924.00,1.12
5923.00,1.12
5922.00,1.12
5921.00,1.12
5920.00,1.11
5919.00,1.11
5918.00,1.11
5917.00,1.11
5916.00,1.11
5915.00,1.11
5914.00,1.10
5913.00,1.10
5912.00,1.10
5911.00,1.10
5910.00,1.10
5909.00,1.10
5908.00,1.09
5907.00,1.09
5906.00,1.09
5905.00,1.09
5904.00,1.09
5903.00,1.09
5902.00,1.08
5901.00,1.08
5900.00,1.08
5899.00,1.08
5898.00,1.08
5897.00,1.08
5896.00,1.08
5895.00,1.08
5894.00,1.08
5893.00,1.08
5892.00,1.08
5891.00,1.08
5890.00,1.09
5889.00,1.09
5888.00,1.09
5887.00,1.09
5886.00,1.09
5885.00,1.09
5884.00,1.10
5883.00,1.10
5882.00,1.10
5881.00,1.10
5880.00,1.11
5879.00,1.11
5878.00,1.11
5877.00,1.12
5876.00,1.12
5875.00,1.12
5874.00,1.13
5873.00,1.13
5872.00,1.13
5871.00,1.14
5870.00,1.14
5869.00,1.15
5868.00,1.15
5867.00,1.15
5866.00,1.16
5865.00,1.16
5864.00,1.17
5863.00,1.17
5862.00,1.17
5861.00,1.18
5860.00,1.18
5859.00,1.18
5858.00,1.19
5857.00,1.19
5856.00,1.19
5855.00,1.20
5854.00,1.20
5853.00,1.20
5852.00,1.20
5851.00,1.20
5850.00,1.20
5849.00,1.20
5848.00,1.20
5847.00,1.20
5846.00,1.20
5845.00,1.20
5844.00,1.20
5843.00,1.20
5842.00,1.20
5841.00,1.20
5840.00,1.20
5839.00,1.19
5838.00,1.19
5837.00,1.19
5836.00,1.19
5835.00,1.18
5834.00,1.18
5833.00,1.18
5832.00,1.18
5831.00,1.17
5830.00,1.17
5829.00,1.17
5828.00,1.17
5827.00,1.17
5826.00,1.17
5825.00,1.17
5824.00,1.17
5823.00,1.17
5822.00,1.17
5821.00,1.16
5820.00,1.16
5819.00,1.16
5818.00,1.16
5817.00,1.16
5816.00,1.17
5815.00,1.17
5814.00,1.17
5813.00,1.17
5812.00,1.17
5811.00,1.17
5810.00,1.17
5809.00,1.17
5808.00,1.17
5807.00,1.17
5806.00,1.17
5805.00,1.17
5804.00,1.17
5803.00,1.17
5802.00,1.17
5801.00,1.17
5800.00,1.17
5799.00,1.17
5798.00,1.17
5797.00,1.17
5796.00,1.17
5795.00,1.17
5794.00,1.16
5793.00,1.16
5792.00,1.16
5791.00,1.16
5790.00,1.16
5789.00,1.16
5788.00,1.16
5787.00,1.16
5786.00,1.15
5785.00,1.15
5784.00,1.15
5783.00,1.15
5782.00,1.15
5781.00,1.15
5780.00,1.15
5779.00,1.15
5778.00,1.15
5777.00,1.15
5776.00,1.15
5775.00,1.15
5774.00,1.15
5773.00,1.15
5772.00,1.15
5771.00,1.15
5770.00,1.15
5769.00,1.15
5768.00,1.15
5767.00,1.15
5766.00,1.15
5765.00,1.15
5764.00,1.15
5763.00,1.15
5762.00,1.15
5761.00,1.16
5760.00,1.16
5759.00,1.16
5758.00,1.16
5757.00,1.16
5756.00,1.16
5755.00,1.16
5754.00,1.17
5753.00,1.17
5752.00,1.17
5751.00,1.17
5750.00,1.17
5749.00,1.18
5748.00,1.18
5747.00,1.18
5746.00,1.18
5745.00,1.18
5744.00,1.19
5743.00,1.19
5742.00,1.19
5741.00,1.19
5740.00,1.20
5739.00,1.20
5738.00,1.20
5737.00,1.20
5736.00,1.21
5735.00,1.21
5734.00,1.21
5733.00,1.21
5732.00,1.22
5731.00,1.22
5730.00,1.22
5729.00,1.22
5728.00,1.22
5727.00,1.22
5726.00,1.23
5725.00,1.23
5724.00,1.23
5723.00,1.23
5722.00,1.23
5721.00,1.23
5720.00,1.23
5719.00,1.23
5718.00,1.23
5717.00,1.23
5716.00,1.23
5715.00,1.23
5714.00,1.23
5713.00,1.23
5712.00,1.23
5711.00,1.23
5710.00,1.23
5709.00,1.22
5708.00,1.22
5707.00,1.22
5706.00,1.22
5705.00,1.22
5704.00,1.22
5703.00,1.21
5702.00,1.21
5701.00,1.21
5700.00,1.21
5699.00,1.21
5698.00,1.21
5697.00,1.20
5696.00,1.20
5695.00,1.20
5694.00,1.20
5693.00,1.20
5692.00,1.20
5691.00,1.19
5690.00,1.19
5689.00,1.19
5688.00,1.19
5687.00,1.18
5686.00,1.18
5685.00,1.18
5684.00,1.18
5683.00,1.18
5682.00,1.18
5681.00,1.18
5680.00,1.18
5679.00,1.18
5678.00,1.18
5677.00,1.18
5676.00,1.18
5675.00,1.18
5674.00,1.18
5673.00,1.18
5672.00,1.18
5671.00,1.18
5670.00,1.18
5669.00,1.18
5668.00,1.18
5667.00,1.18
5666.00,1.18
5665.00,1.19
5664.00,1.19
5663.00,1.19
5662.00,1.20
5661.00,1.20
5660.00,1.20
5659.00,1.21
5658.00,1.21
5657.00,1.21
5656.00,1.22
5655.00,1.22
5654.00,1.22
5653.00,1.23
5652.00,1.23
5651.00,1.23
5650.00,1.24
5649.00,1.24
5648.00,1.24
5647.00,1.25
5646.00,1.25
5645.00,1.25
5644.00,1.26
5643.00,1.26
5642.00,1.26
5641.00,1.26
5640.00,1.27
5639.00,1.27
5638.00,1.27
5637.00,1.27
5636.00,1.27
5635.00,1.27
5634.00,1.27
5633.00,1.27
5632.00,1.28
5631.00,1.28
5630.00,1.28
5629.00,1.28
5628.00,1.28
5627.00,1.28
5626.00,1.28
5625.00,1.28
5624.00,1.28
5623.00,1.28
5622.00,1.28
5621.00,1.28
5620.00,1.28
5619.00,1.28
5618.00,1.28
5617.00,1.28
5616.00,1.28
5615.00,1.28
5614.00,1.28
5613.00,1.28
5612.00,1.28
5611.00,1.28
5610.00,1.28
5609.00,1.28
5608.00,1.29
5607.00,1.29
5606.00,1.29
5605.00,1.29
5604.00,1.29
5603.00,1.29
5602.00,1.30
5601.00,1.30
5600.00,1.30
5599.00,1.30
5598.00,1.30
5597.00,1.30
5596.00,1.31
5595.00,1.31
5594.00,1.31
5593.00,1.31
5592.00,1.31
5591.00,1.32
5590.00,1.32
5589.00,1.32
5588.00,1.32
5587.00,1.32
5586.00,1.33
5585.00,1.33
5584.00,1.33
5583.00,1.33
5582.00,1.34
5581.00,1.34
5580.00,1.34
5579.00,1.34
5578.00,1.34
5577.00,1.35
5576.00,1.35
5575.00,1.35
5574.00,1.35
5573.00,1.35
5572.00,1.35
5571.00,1.36
5570.00,1.36
5569.00,1.36
5568.00,1.36
5567.00,1.36
5566.00,1.36
5565.00,1.36
5564.00,1.36
5563.00,1.37
5562.00,1.37
5561.00,1.37
5560.00,1.37
5559.00,1.37
5558.00,1.37
5557.00,1.37
5556.00,1.37
5555.00,1.37
5554.00,1.37
5553.00,1.37
5552.00,1.37
5551.00,1.37
5550.00,1.37
5549.00,1.37
5548.00,1.37
5547.00,1.37
5546.00,1.37
5545.00,1.38
5544.00,1.38
5543.00,1.38
5542.00,1.38
5541.00,1.38
5540.00,1.38
5539.00,1.38
5538.00,1.38
5537.00,1.39
5536.00,1.39
5535.00,1.39
5534.00,1.39
5533.00,1.39
5532.00,1.39
5531.00,1.40
5530.00,1.40
5529.00,1.40
5528.00,1.40
5527.00,1.40
5526.00,1.41
5525.00,1.41
5524.00,1.41
5523.00,1.41
5522.00,1.41
5521.00,1.41
5520.00,1.41
5519.00,1.42
5518.00,1.42
5517.00,1.42
5516.00,1.42
5515.00,1.42
5514.00,1.42
5513.00,1.42
5512.00,1.42
5511.00,1.42
5510.00,1.42
5509.00,1.42
5508.00,1.42
5507.00,1.42
5506.00,1.41
5505.00,1.41
5504.00,1.41
5503.00,1.41
5502.00,1.41
5501.00,1.41
5500.00,1.41
5499.00,1.41
5498.00,1.41
5497.00,1.41
5496.00,1.40
5495.00,1.40
5494.00,1.40
5493.00,1.40
5492.00,1.40
5491.00,1.40
5490.00,1.40
5489.00,1.40
5488.00,1.40
5487.00,1.40
5486.00,1.40
5485.00,1.41
5484.00,1.41
5483.00,1.41
5482.00,1.41
5481.00,1.41
5480.00,1.42
5479.00,1.42
5478.00,1.42
5477.00,1.43
5476.00,1.43
5475.00,1.43
5474.00,1.44
5473.00,1.44
5472.00,1.44
5471.00,1.45
5470.00,1.45
5469.00,1.46
5468.00,1.46
5467.00,1.46
5466.00,1.47
5465.00,1.47
5464.00,1.48
5463.00,1.48
5462.00,1.49
5461.00,1.49
5460.00,1.49
5459.00,1.50
5458.00,1.50
5457.00,1.50
5456.00,1.50
5455.00,1.51
5454.00,1.51
5453.00,1.51
5452.00,1.51
5451.00,1.51
5450.00,1.51
5449.00,1.52
5448.00,1.52
5447.00,1.52
5446.00,1.52
5445.00,1.52
5444.00,1.52
5443.00,1.52
5442.00,1.52
5441.00,1.52
5440.00,1.52
5439.00,1.52
5438.00,1.51
5437.00,1.51
5436.00,1.51
5435.00,1.51
5434.00,1.51
5433.00,1.51
5432.00,1.51
5431.00,1.51
5430.00,1.51
5429.00,1.51
5428.00,1.51
5427.00,1.51
5426.00,1.51
5425.00,1.51
5424.00,1.51
5423.00,1.51
5422.00,1.51
5421.00,1.50
5420.00,1.50
5419.00,1.50
5418.00,1.51
5417.00,1.51
5416.00,1.51
5415.00,1.51
5414.00,1.51
5413.00,1.51
5412.00,1.51
5411.00,1.51
5410.00,1.51
5409.00,1.51
5408.00,1.51
5407.00,1.51
5406.00,1.51
5405.00,1.51
5404.00,1.50
5403.00,1.50
5402.00,1.50
5401.00,1.50
5400.00,1.50
5399.00,1.50
5398.00,1.50
5397.00,1.50
5396.00,1.50
5395.00,1.49
5394.00,1.49
5393.00,1.49
5392.00,1.49
5391.00,1.49
5390.00,1.48
5389.00,1.48
5388.00,1.48
5387.00,1.48
5386.00,1.48
5385.00,1.47
5384.00,1.47
5383.00,1.47
5382.00,1.46
5381.00,1.46
5380.00,1.46
5379.00,1.46
5378.00,1.45
5377.00,1.45
5376.00,1.45
5375.00,1.44
5374.00,1.44
5373.00,1.44
5372.00,1.43
5371.00,1.43
5370.00,1.42
5369.00,1.42
5368.00,1.41
5367.00,1.41
5366.00,1.40
5365.00,1.40
5364.00,1.39
5363.00,1.39
5362.00,1.38
5361.00,1.38
5360.00,1.37
5359.00,1.37
5358.00,1.36
5357.00,1.36
5356.00,1.35
5355.00,1.34
5354.00,1.34
5353.00,1.33
5352.00,1.32
5351.00,1.32
5350.00,1.31
5349.00,1.30
5348.00,1.29
5347.00,1.29
5346.00,1.28
5345.00,1.27
5344.00,1.26
5343.00,1.25
5342.00,1.24
5341.00,1.23
5340.00,1.22
5339.00,1.21
5338.00,1.20
5337.00,1.19
5336.00,1.18
5335.00,1.17
5334.00,1.16
5333.00,1.15
5332.00,1.14
5331.00,1.13
5330.00,1.12
5329.00,1.11
5328.00,1.09
5327.00,1.08
5326.00,1.07
5325.00,1.06
5324.00,1.05
5323.00,1.04
5322.00,1.02
5321.00,1.01
5320.00,1.00
5319.00,0.99
5318.00,0.98
5317.00,0.97
5316.00,0.96
5315.00,0.95
5314.00,0.94
5313.00,0.93
5312.00,0.92
5311.00,0.91
5310.00,0.90
5309.00,0.89
5308.00,0.88
5307.00,0.87
5306.00,0.86
5305.00,0.85
5304.00,0.84
5303.00,0.83
5302.00,0.83
5301.00,0.82
5300.00,0.81
5299.00,0.81
5298.00,0.80
5297.00,0.79
5296.00,0.79
5295.00,0.78
5294.00,0.78
5293.00,0.77
5292.00,0.77
5291.00,0.76
5290.00,0.76
5289.00,0.75
5288.00,0.75
5287.00,0.74
5286.00,0.74
5285.00,0.74
5284.00,0.73
5283.00,0.73
5282.00,0.73
5281.00,0.73
5280.00,0.72
5279.00,0.72
5278.00,0.72
5277.00,0.72
5276.00,0.71
5275.00,0.71
5274.00,0.71
5273.00,0.71
5272.00,0.71
5271.00,0.71
5270.00,0.71
5269.00,0.70
5268.00,0.70
5267.00,0.70
5266.00,0.70
5265.00,0.70
5264.00,0.70
5263.00,0.70
5262.00,0.70
5261.00,0.70
5260.00,0.70
5259.00,0.70
5258.00,0.70
5257.00,0.69
5256.00,0.69
5255.00,0.69
5254.00,0.69
5253.00,0.69
5252.00,0.69
5251.00,0.69
5250.00,0.69
5249.00,0.69
5248.00,0.69
5247.00,0.68
5246.00,0.68
5245.00,0.68
5244.00,0.68
5243.00,0.68
5242.00,0.68
5241.00,0.68
5240.00,0.68
5239.00,0.68
5238.00,0.68
5237.00,0.68
5236.00,0.67
5235.00,0.67
5234.00,0.67
5233.00,0.67
5232.00,0.67
5231.00,0.67
5230.00,0.67
5229.00,0.67
5228.00,0.67
5227.00,0.67
5226.00,0.67
5225.00,0.67
5224.00,0.67
5223.00,0.67
5222.00,0.67
5221.00,0.66
5220.00,0.66
5219.00,0.66
5218.00,0.66
5217.00,0.66
5216.00,0.66
5215.00,0.66
5214.00,0.66
5213.00,0.66
5212.00,0.66
5211.00,0.65
5210.00,0.65
5209.00,0.65
5208.00,0.65
5207.00,0.65
5206.00,0.65
5205.00,0.65
5204.00,0.65
5203.00,0.65
5202.00,0.65
5201.00,0.64
5200.00,0.64
5199.00,0.64
5198.00,0.65
5197.00,0.65
5196.00,0.65
5195.00,0.65
5194.00,0.65
5193.00,0.65
5192.00,0.65
5191.00,0.65
5190.00,0.65
5189.00,0.65
5188.00,0.65
5187.00,0.66
5186.00,0.66
5185.00,0.66
5184.00,0.66
5183.00,0.66
5182.00,0.67
5181.00,0.67
5180.00,0.67
5179.00,0.67
5178.00,0.67
5177.00,0.68
5176.00,0.68
5175.00,0.68
5174.00,0.68
5173.00,0.69
5172.00,0.69
5171.00,0.69
5170.00,0.69
5169.00,0.69
5168.00,0.70
5167.00,0.70
5166.00,0.70
5165.00,0.70
5164.00,0.70
5163.00,0.71
5162.00,0.71
5161.00,0.71
5160.00,0.71
5159.00,0.71
5158.00,0.71
5157.00,0.71
5156.00,0.71
5155.00,0.71
5154.00,0.71
5153.00,0.71
5152.00,0.71
5151.00,0.71
5150.00,0.71
5149.00,0.71
5148.00,0.71
5147.00,0.71
5146.00,0.71
5145.00,0.71
5144.00,0.71
5143.00,0.71
5142.00,0.70
5141.00,0.70
5140.00,0.70
5139.00,0.70
5138.00,0.70
5137.00,0.70
5136.00,0.70
5135.00,0.70
5134.00,0.70
5133.00,0.69
5132.00,0.69
5131.00,0.69
5130.00,0.69
5129.00,0.69
5128.00,0.69
5127.00,0.69
5126.00,0.69
5125.00,0.69
5124.00,0.69
5123.00,0.69
5122.00,0.70
5121.00,0.70
5120.00,0.70
5119.00,0.70
5118.00,0.70
5117.00,0.70
5116.00,0.70
5115.00,0.71
5114.00,0.71
5113.00,0.71
5112.00,0.71
5111.00,0.71
5110.00,0.71
5109.00,0.71
5108.00,0.71
5107.00,0.71
5106.00,0.72
5105.00,0.72
5104.00,0.72
5103.00,0.72
5102.00,0.72
5101.00,0.72
5100.00,0.72
5099.00,0.72
5098.00,0.72
5097.00,0.71
5096.00,0.71
5095.00,0.71
5094.00,0.71
5093.00,0.71
5092.00,0.71
5091.00,0.71
5090.00,0.71
5089.00,0.71
5088.00,0.71
5087.00,0.70
5086.00,0.70
5085.00,0.70
5084.00,0.70
5083.00,0.70
5082.00,0.71
5081.00,0.71
5080.00,0.71
5079.00,0.71
5078.00,0.71
5077.00,0.71
5076.00,0.71
5075.00,0.71
5074.00,0.71
5073.00,0.72
5072.00,0.72
5071.00,0.72
5070.00,0.72
5069.00,0.72
5068.00,0.73
5067.00,0.73
5066.00,0.73
5065.00,0.73
5064.00,0.73
5063.00,0.74
5062.00,0.74
5061.00,0.74
5060.00,0.74
5059.00,0.74
5058.00,0.74
5057.00,0.74
5056.00,0.74
5055.00,0.74
5054.00,0.74
5053.00,0.74
5052.00,0.74
5051.00,0.74
5050.00,0.74
5049.00,0.74
5048.00,0.74
5047.00,0.74
5046.00,0.74
5045.00,0.74
5044.00,0.74
5043.00,0.74
5042.00,0.74
5041.00,0.74
5040.00,0.74
5039.00,0.74
5038.00,0.74
5037.00,0.74
5036.00,0.74
5035.00,0.74
5034.00,0.74
5033.00,0.75
5032.00,0.75
5031.00,0.75
5030.00,0.75
5029.00,0.75
5028.00,0.75
5027.00,0.75
5026.00,0.75
5025.00,0.76
5024.00,0.76
5023.00,0.76
5022.00,0.76
5021.00,0.76
5020.00,0.76
5019.00,0.76
5018.00,0.76
5017.00,0.76
5016.00,0.76
5015.00,0.76
5014.00,0.76
5013.00,0.76
5012.00,0.77
5011.00,0.77
5010.00,0.77
5009.00,0.77
5008.00,0.77
5007.00,0.77
5006.00,0.77
5005.00,0.77
5004.00,0.78
5003.00,0.78
5002.00,0.78
5001.00,0.78
5000.00,0.78
4999.00,0.78
4998.00,0.79
4997.00,0.79
4996.00,0.79
4995.00,0.79
4994.00,0.79
4993.00,0.80
4992.00,0.80
4991.00,0.80
4990.00,0.80
4989.00,0.81
4988.00,0.81
4987.00,0.81
4986.00,0.81
4985.00,0.82
4984.00,0.82
4983.00,0.82
4982.00,0.82
4981.00,0.82
4980.00,0.82
4979.00,0.83
4978.00,0.83
4977.00,0.83
4976.00,0.83
4975.00,0.83
4974.00,0.83
4973.00,0.84
4972.00,0.84
4971.00,0.84
4970.00,0.84
4969.00,0.84
4968.00,0.85
4967.00,0.85
4966.00,0.85
4965.00,0.85
4964.00,0.85
4963.00,0.85
4962.00,0.86
4961.00,0.86
4960.00,0.86
4959.00,0.86
4958.00,0.86
4957.00,0.87
4956.00,0.87
4955.00,0.87
4954.00,0.87
4953.00,0.88
4952.00,0.88
4951.00,0.88
4950.00,0.88
4949.00,0.89
4948.00,0.89
4947.00,0.89
4946.00,0.89
4945.00,0.89
4944.00,0.89
4943.00,0.90
4942.00,0.90
4941.00,0.90
4940.00,0.90
4939.00,0.90
4938.00,0.90
4937.00,0.90
4936.00,0.90
4935.00,0.90
4934.00,0.90
4933.00,0.90
4932.00,0.90
4931.00,0.90
4930.00,0.90
4929.00,0.90
4928.00,0.90
4927.00,0.90
4926.00,0.90
4925.00,0.90
4924.00,0.90
4923.00,0.90
4922.00,0.90
4921.00,0.90
4920.00,0.90
4919.00,0.90
4918.00,0.90
4917.00,0.90
4916.00,0.90
4915.00,0.90
4914.00,0.90
4913.00,0.90
4912.00,0.90
4911.00,0.90
4910.00,0.90
4909.00,0.90
4908.00,0.90
4907.00,0.90
4906.00,0.90
4905.00,0.90
4904.00,0.90
4903.00,0.90
4902.00,0.90
4901.00,0.90
4900.00,0.90
4899.00,0.90
4898.00,0.90
4897.00,0.90
4896.00,0.91
4895.00,0.91
4894.00,0.91
4893.00,0.91
4892.00,0.91
4891.00,0.91
4890.00,0.91
4889.00,0.91
4888.00,0.91
4887.00,0.91
4886.00,0.91
4885.00,0.92
4884.00,0.92
4883.00,0.92
4882.00,0.92
4881.00,0.92
4880.00,0.92
4879.00,0.92
4878.00,0.92
4877.00,0.92
4876.00,0.92
4875.00,0.92
4874.00,0.92
4873.00,0.93
4872.00,0.93
4871.00,0.93
4870.00,0.93
4869.00,0.93
4868.00,0.93
4867.00,0.93
4866.00,0.93
4865.00,0.94
4864.00,0.94
4863.00,0.94
4862.00,0.94
4861.00,0.94
4860.00,0.94
4859.00,0.94
4858.00,0.94
4857.00,0.94
4856.00,0.94
4855.00,0.94
4854.00,0.94
4853.00,0.95
4852.00,0.95
4851.00,0.95
4850.00,0.95
4849.00,0.95
4848.00,0.95
4847.00,0.95
4846.00,0.95
4845.00,0.95
4844.00,0.95
4843.00,0.95
4842.00,0.95
4841.00,0.95
4840.00,0.95
4839.00,0.95
4838.00,0.95
4837.00,0.95
4836.00,0.95
4835.00,0.95
4834.00,0.95
4833.00,0.95
4832.00,0.96
4831.00,0.96
4830.00,0.96
4829.00,0.96
4828.00,0.96
4827.00,0.96
4826.00,0.96
4825.00,0.97
4824.00,0.97
4823.00,0.97
4822.00,0.97
4821.00,0.97
4820.00,0.97
4819.00,0.97
4818.00,0.98
4817.00,0.98
4816.00,0.98
4815.00,0.98
4814.00,0.98
4813.00,0.98
4812.00,0.98
4811.00,0.99
4810.00,0.99
4809.00,0.99
4808.00,0.99
4807.00,0.99
4806.00,0.99
4805.00,0.99
4804.00,0.99
4803.00,0.99
4802.00,0.99
4801.00,0.99
4800.00,0.99
4799.00,0.99
4798.00,1.00
4797.00,1.00
4796.00,1.00
4795.00,1.00
4794.00,1.00
4793.00,1.00
4792.00,1.00
4791.00,1.00
4790.00,1.00
4789.00,1.00
4788.00,1.00
4787.00,1.00
4786.00,1.01
4785.00,1.01
4784.00,1.01
4783.00,1.01
4782.00,1.01
4781.00,1.02
4780.00,1.02
4779.00,1.02
4778.00,1.02
4777.00,1.03
4776.00,1.03
4775.00,1.03
4774.00,1.03
4773.00,1.03
4772.00,1.04
4771.00,1.04
4770.00,1.04
4769.00,1.04
4768.00,1.05
4767.00,1.05
4766.00,1.05
4765.00,1.05
4764.00,1.06
4763.00,1.06
4762.00,1.06
4761.00,1.06
4760.00,1.07
4759.00,1.07
4758.00,1.07
4757.00,1.07
4756.00,1.08
4755.00,1.08
4754.00,1.08
4753.00,1.08
4752.00,1.09
4751.00,1.09
4750.00,1.09
4749.00,1.10
4748.00,1.10
4747.00,1.10
4746.00,1.11
4745.00,1.11
4744.00,1.12
4743.00,1.12
4742.00,1.12
4741.00,1.13
4740.00,1.13
4739.00,1.14
4738.00,1.14
4737.00,1.14
4736.00,1.15
4735.00,1.15
4734.00,1.15
4733.00,1.16
4732.00,1.16
4731.00,1.16
4730.00,1.17
4729.00,1.17
4728.00,1.17
4727.00,1.17
4726.00,1.18
4725.00,1.18
4724.00,1.18
4723.00,1.18
4722.00,1.18
4721.00,1.18
4720.00,1.18
4719.00,1.19
4718.00,1.19
4717.00,1.19
4716.00,1.19
4715.00,1.19
4714.00,1.19
4713.00,1.19
4712.00,1.19
4711.00,1.19
4710.00,1.19
4709.00,1.19
4708.00,1.19
4707.00,1.19
4706.00,1.19
4705.00,1.19
4704.00,1.19
4703.00,1.20
4702.00,1.20
4701.00,1.20
4700.00,1.20
4699.00,1.21
4698.00,1.21
4697.00,1.21
4696.00,1.21
4695.00,1.22
4694.00,1.22
4693.00,1.22
4692.00,1.22
4691.00,1.22
4690.00,1.23
4689.00,1.23
4688.00,1.23
4687.00,1.23
4686.00,1.24
4685.00,1.24
4684.00,1.24
4683.00,1.25
4682.00,1.25
4681.00,1.25
4680.00,1.25
4679.00,1.26
4678.00,1.26
4677.00,1.26
4676.00,1.27
4675.00,1.27
4674.00,1.27
4673.00,1.27
4672.00,1.27
4671.00,1.27
4670.00,1.27
4669.00,1.28
4668.00,1.28
4667.00,1.28
4666.00,1.28
4665.00,1.28
4664.00,1.29
4663.00,1.29
4662.00,1.29
4661.00,1.30
4660.00,1.30
4659.00,1.30
4658.00,1.30
4657.00,1.30
4656.00,1.30
4655.00,1.31
4654.00,1.31
4653.00,1.31
4652.00,1.31
4651.00,1.31
4650.00,1.31
4649.00,1.31
4648.00,1.31
4647.00,1.31
4646.00,1.31
4645.00,1.31
4644.00,1.31
4643.00,1.31
4642.00,1.32
4641.00,1.32
4640.00,1.32
4639.00,1.32
4638.00,1.32
4637.00,1.32
4636.00,1.32
4635.00,1.32
4634.00,1.31
4633.00,1.31
4632.00,1.31
4631.00,1.31
4630.00,1.31
4629.00,1.32
4628.00,1.32
4627.00,1.32
4626.00,1.32
4625.00,1.32
4624.00,1.32
4623.00,1.32
4622.00,1.32
4621.00,1.32
4620.00,1.32
4619.00,1.32
4618.00,1.33
4617.00,1.33
4616.00,1.33
4615.00,1.33
4614.00,1.34
4613.00,1.34
4612.00,1.34
4611.00,1.34
4610.00,1.35
4609.00,1.35
4608.00,1.35
4607.00,1.35
4606.00,1.35
4605.00,1.36
4604.00,1.36
4603.00,1.36
4602.00,1.36
4601.00,1.36
4600.00,1.36
4599.00,1.37
4598.00,1.37
4597.00,1.37
4596.00,1.37
4595.00,1.37
4594.00,1.37
4593.00,1.37
4592.00,1.38
4591.00,1.38
4590.00,1.38
4589.00,1.38
4588.00,1.38
4587.00,1.38
4586.00,1.38
4585.00,1.38
4584.00,1.38
4583.00,1.38
4582.00,1.38
4581.00,1.38
4580.00,1.38
4579.00,1.38
4578.00,1.38
4577.00,1.38
4576.00,1.39
4575.00,1.39
4574.00,1.39
4573.00,1.39
4572.00,1.39
4571.00,1.39
4570.00,1.40
4569.00,1.40
4568.00,1.40
4567.00,1.40
4566.00,1.40
4565.00,1.41
4564.00,1.41
4563.00,1.41
4562.00,1.41
4561.00,1.41
4560.00,1.41
4559.00,1.42
4558.00,1.42
4557.00,1.42
4556.00,1.42
4555.00,1.42
4554.00,1.42
4553.00,1.42
4552.00,1.43
4551.00,1.43
4550.00,1.43
4549.00,1.43
4548.00,1.43
4547.00,1.43
4546.00,1.43
4545.00,1.42
4544.00,1.42
4543.00,1.42
4542.00,1.42
4541.00,1.42
4540.00,1.42
4539.00,1.42
4538.00,1.41
4537.00,1.41
4536.00,1.41
4535.00,1.41
4534.00,1.41
4533.00,1.41
4532.00,1.40
4531.00,1.40
4530.00,1.40
4529.00,1.40
4528.00,1.40
4527.00,1.40
4526.00,1.40
4525.00,1.40
4524.00,1.40
4523.00,1.40
4522.00,1.40
4521.00,1.39
4520.00,1.39
4519.00,1.39
4518.00,1.39
4517.00,1.39
4516.00,1.39
4515.00,1.39
4514.00,1.39
4513.00,1.39
4512.00,1.39
4511.00,1.39
4510.00,1.38
4509.00,1.38
4508.00,1.38
4507.00,1.38
4506.00,1.38
4505.00,1.37
4504.00,1.37
4503.00,1.37
4502.00,1.37
4501.00,1.36
4500.00,1.36
4499.00,1.36
4498.00,1.36
4497.00,1.35
4496.00,1.35
4495.00,1.35
4494.00,1.35
4493.00,1.35
4492.00,1.34
4491.00,1.34
4490.00,1.34
4489.00,1.34
4488.00,1.34
4487.00,1.34
4486.00,1.34
4485.00,1.34
4484.00,1.34
4483.00,1.34
4482.00,1.34
4481.00,1.34
4480.00,1.34
4479.00,1.34
4478.00,1.34
4477.00,1.34
4476.00,1.34
4475.00,1.34
4474.00,1.33
4473.00,1.33
4472.00,1.33
4471.00,1.33
4470.00,1.33
4469.00,1.33
4468.00,1.33
4467.00,1.32
4466.00,1.32
4465.00,1.32
4464.00,1.31
4463.00,1.31
4462.00,1.31
4461.00,1.30
4460.00,1.30
4459.00,1.29
4458.00,1.29
4457.00,1.28
4456.00,1.28
4455.00,1.27
4454.00,1.27
4453.00,1.26
4452.00,1.26
4451.00,1.25
4450.00,1.25
4449.00,1.24
4448.00,1.23
4447.00,1.23
4446.00,1.22
4445.00,1.22
4444.00,1.21
4443.00,1.21
4442.00,1.20
4441.00,1.20
4440.00,1.19
4439.00,1.19
4438.00,1.18
4437.00,1.18
4436.00,1.17
4435.00,1.17
4434.00,1.17
4433.00,1.16
4432.00,1.16
4431.00,1.15
4430.00,1.15
4429.00,1.15
4428.00,1.14
4427.00,1.14
4426.00,1.14
4425.00,1.13
4424.00,1.13
4423.00,1.12
4422.00,1.12
4421.00,1.12
4420.00,1.11
4419.00,1.11
4418.00,1.11
4417.00,1.10
4416.00,1.10
4415.00,1.10
4414.00,1.10
4413.00,1.09
4412.00,1.09
4411.00,1.09
4410.00,1.09
4409.00,1.08
4408.00,1.08
4407.00,1.08
4406.00,1.08
4405.00,1.08
4404.00,1.08
4403.00,1.08
4402.00,1.08
4401.00,1.08
4400.00,1.08
4399.00,1.08
4398.00,1.08
4397.00,1.08
4396.00,1.08
4395.00,1.08
4394.00,1.08
4393.00,1.08
4392.00,1.08
4391.00,1.09
4390.00,1.09
4389.00,1.09
4388.00,1.09
4387.00,1.09
4386.00,1.10
4385.00,1.10
4384.00,1.10
4383.00,1.10
4382.00,1.11
4381.00,1.11
4380.00,1.11
4379.00,1.11
4378.00,1.12
4377.00,1.12
4376.00,1.12
4375.00,1.12
4374.00,1.12
4373.00,1.13
4372.00,1.13
4371.00,1.13
4370.00,1.13
4369.00,1.14
4368.00,1.14
4367.00,1.14
4366.00,1.14
4365.00,1.14
4364.00,1.15
4363.00,1.15
4362.00,1.15
4361.00,1.15
4360.00,1.15
4359.00,1.15
4358.00,1.15
4357.00,1.15
4356.00,1.15
4355.00,1.15
4354.00,1.15
4353.00,1.15
4352.00,1.15
4351.00,1.15
4350.00,1.15
4349.00,1.15
4348.00,1.15
4347.00,1.15
4346.00,1.14
4345.00,1.14
4344.00,1.14
4343.00,1.14
4342.00,1.14
4341.00,1.14
4340.00,1.14
4339.00,1.14
4338.00,1.14
4337.00,1.14
4336.00,1.14
4335.00,1.13
4334.00,1.13
4333.00,1.13
4332.00,1.13
4331.00,1.13
4330.00,1.13
4329.00,1.13
4328.00,1.13
4327.00,1.14
4326.00,1.14
4325.00,1.15
4324.00,1.15
4323.00,1.15
4322.00,1.16
4321.00,1.16
4320.00,1.17
4319.00,1.17
4318.00,1.17
4317.00,1.18
4316.00,1.18
4315.00,1.19
4314.00,1.19
4313.00,1.19
4312.00,1.20
4311.00,1.20
4310.00,1.21
4309.00,1.21
4308.00,1.22
4307.00,1.22
4306.00,1.23
4305.00,1.23
4304.00,1.24
4303.00,1.24
4302.00,1.24
4301.00,1.25
4300.00,1.25
4299.00,1.25
4298.00,1.25
4297.00,1.25
4296.00,1.26
4295.00,1.26
4294.00,1.26
4293.00,1.26
4292.00,1.26
4291.00,1.26
4290.00,1.27
4289.00,1.27
4288.00,1.27
4287.00,1.27
4286.00,1.27
4285.00,1.27
4284.00,1.27
4283.00,1.27
4282.00,1.27
4281.00,1.27
4280.00,1.27
4279.00,1.27
4278.00,1.27
4277.00,1.27
4276.00,1.27
4275.00,1.27
4274.00,1.27
4273.00,1.26
4272.00,1.26
4271.00,1.26
4270.00,1.26
4269.00,1.26
4268.00,1.25
4267.00,1.25
4266.00,1.25
4265.00,1.25
4264.00,1.24
4263.00,1.24
4262.00,1.24
4261.00,1.24
4260.00,1.24
4259.00,1.23
4258.00,1.23
4257.00,1.23
4256.00,1.23
4255.00,1.23
4254.00,1.23
4253.00,1.23
4252.00,1.23
4251.00,1.23
4250.00,1.23
4249.00,1.22
4248.00,1.22
4247.00,1.22
4246.00,1.22
4245.00,1.23
4244.00,1.23
4243.00,1.23
4242.00,1.23
4241.00,1.23
4240.00,1.24
4239.00,1.24
4238.00,1.24
4237.00,1.25
4236.00,1.25
4235.00,1.26
4234.00,1.26
4233.00,1.27
4232.00,1.27
4231.00,1.28
4230.00,1.28
4229.00,1.28
4228.00,1.29
4227.00,1.29
4226.00,1.30
4225.00,1.30
4224.00,1.31
4223.00,1.31
4222.00,1.31
4221.00,1.32
4220.00,1.32
4219.00,1.32
4218.00,1.33
4217.00,1.33
4216.00,1.33
4215.00,1.33
4214.00,1.33
4213.00,1.33
4212.00,1.33
4211.00,1.33
4210.00,1.33
4209.00,1.33
4208.00,1.32
4207.00,1.32
4206.00,1.32
4205.00,1.31
4204.00,1.31
4203.00,1.30
4202.00,1.30
4201.00,1.29
4200.00,1.29
4199.00,1.28
4198.00,1.28
4197.00,1.28
4196.00,1.27
4195.00,1.27
4194.00,1.27
4193.00,1.27
4192.00,1.26
4191.00,1.26
4190.00,1.26
4189.00,1.26
4188.00,1.26
4187.00,1.26
4186.00,1.26
4185.00,1.26
4184.00,1.26
4183.00,1.25
4182.00,1.25
4181.00,1.25
4180.00,1.26
4179.00,1.26
4178.00,1.26
4177.00,1.26
4176.00,1.27
4175.00,1.27
4174.00,1.28
4173.00,1.28
4172.00,1.28
4171.00,1.29
4170.00,1.29
4169.00,1.29
4168.00,1.29
4167.00,1.29
4166.00,1.30
4165.00,1.30
4164.00,1.30
4163.00,1.30
4162.00,1.30
4161.00,1.30
4160.00,1.31
4159.00,1.31
4158.00,1.31
4157.00,1.32
4156.00,1.32
4155.00,1.32
4154.00,1.32
4153.00,1.33
4152.00,1.33
4151.00,1.33
4150.00,1.33
4149.00,1.33
4148.00,1.33
4147.00,1.33
4146.00,1.33
4145.00,1.32
4144.00,1.32
4143.00,1.32
4142.00,1.32
4141.00,1.32
4140.00,1.32
4139.00,1.32
4138.00,1.32
4137.00,1.32
4136.00,1.32
4135.00,1.32
4134.00,1.32
4133.00,1.32
4132.00,1.31
4131.00,1.31
4130.00,1.31
4129.00,1.31
4128.00,1.30
4127.00,1.30
4126.00,1.30
4125.00,1.30
4124.00,1.30
4123.00,1.30
4122.00,1.30
4121.00,1.30
4120.00,1.30
4119.00,1.30
4118.00,1.31
4117.00,1.31
4116.00,1.31
4115.00,1.32
4114.00,1.32
4113.00,1.32
4112.00,1.33
4111.00,1.33
4110.00,1.33
4109.00,1.34
4108.00,1.34
4107.00,1.35
4106.00,1.35
4105.00,1.35
4104.00,1.36
4103.00,1.36
4102.00,1.37
4101.00,1.37
4100.00,1.38
4099.00,1.38
4098.00,1.39
4097.00,1.39
4096.00,1.40
4095.00,1.40
4094.00,1.41
4093.00,1.41
4092.00,1.42
4091.00,1.42
4090.00,1.42
4089.00,1.42
4088.00,1.42
4087.00,1.42
4086.00,1.42
4085.00,1.43
4084.00,1.43
4083.00,1.43
4082.00,1.42
4081.00,1.42
4080.00,1.42
4079.00,1.42
4078.00,1.42
4077.00,1.42
4076.00,1.42
4075.00,1.42
4074.00,1.41
4073.00,1.41
4072.00,1.41
4071.00,1.41
4070.00,1.40
4069.00,1.40
4068.00,1.40
4067.00,1.40
4066.00,1.40
4065.00,1.39
4064.00,1.39
4063.00,1.39
4062.00,1.39
4061.00,1.39
4060.00,1.39
4059.00,1.40
4058.00,1.40
4057.00,1.40
4056.00,1.40
4055.00,1.40
4054.00,1.40
4053.00,1.41
4052.00,1.41
4051.00,1.41
4050.00,1.41
4049.00,1.41
4048.00,1.41
4047.00,1.41
4046.00,1.41
4045.00,1.41
4044.00,1.42
4043.00,1.42
4042.00,1.42
4041.00,1.42
4040.00,1.43
4039.00,1.43
4038.00,1.43
4037.00,1.43
4036.00,1.43
4035.00,1.43
4034.00,1.43
4033.00,1.43
4032.00,1.43
4031.00,1.43
4030.00,1.43
4029.00,1.43
4028.00,1.42
4027.00,1.42
4026.00,1.42
4025.00,1.42
4024.00,1.42
4023.00,1.43
4022.00,1.43
4021.00,1.44
4020.00,1.44
4019.00,1.45
4018.00,1.45
4017.00,1.46
4016.00,1.46
4015.00,1.47
4014.00,1.47
4013.00,1.48
4012.00,1.49
4011.00,1.49
4010.00,1.50
4009.00,1.51
4008.00,1.52
4007.00,1.53
4006.00,1.54
4005.00,1.55
4004.00,1.56
4003.00,1.58
4002.00,1.59
4001.00,1.61
4000.00,1.63
