创建为新数据集,样品 340 用户 Administrator 日期 星期日, 七月 28 2019
cm-1,%T
10000.00,1.77
9999.00,1.77
9998.00,1.78
9997.00,1.79
9996.00,1.79
9995.00,1.80
9994.00,1.81
9993.00,1.81
9992.00,1.82
9991.00,1.82
9990.00,1.82
9989.00,1.83
9988.00,1.83
9987.00,1.83
9986.00,1.82
9985.00,1.82
9984.00,1.81
9983.00,1.80
9982.00,1.79
9981.00,1.78
9980.00,1.77
9979.00,1.75
9978.00,1.74
9977.00,1.72
9976.00,1.70
9975.00,1.69
9974.00,1.67
9973.00,1.65
9972.00,1.63
9971.00,1.61
9970.00,1.59
9969.00,1.57
9968.00,1.55
9967.00,1.53
9966.00,1.52
9965.00,1.50
9964.00,1.48
9963.00,1.47
9962.00,1.45
9961.00,1.44
9960.00,1.42
9959.00,1.41
9958.00,1.40
9957.00,1.39
9956.00,1.39
9955.00,1.38
9954.00,1.37
9953.00,1.37
9952.00,1.36
9951.00,1.36
9950.00,1.35
9949.00,1.35
9948.00,1.35
9947.00,1.35
9946.00,1.35
9945.00,1.35
9944.00,1.35
9943.00,1.35
9942.00,1.35
9941.00,1.35
9940.00,1.35
9939.00,1.35
9938.00,1.35
9937.00,1.35
9936.00,1.35
9935.00,1.35
9934.00,1.35
9933.00,1.35
9932.00,1.34
9931.00,1.34
9930.00,1.34
9929.00,1.34
9928.00,1.34
9927.00,1.34
9926.00,1.34
9925.00,1.34
9924.00,1.34
9923.00,1.34
9922.00,1.34
9921.00,1.34
9920.00,1.34
9919.00,1.34
9918.00,1.33
9917.00,1.33
9916.00,1.32
9915.00,1.32
9914.00,1.32
9913.00,1.31
9912.00,1.31
9911.00,1.30
9910.00,1.30
9909.00,1.30
9908.00,1.29
9907.00,1.29
9906.00,1.28
9905.00,1.28
9904.00,1.27
9903.00,1.27
9902.00,1.26
9901.00,1.26
9900.00,1.25
9899.00,1.24
9898.00,1.24
9897.00,1.24
9896.00,1.23
9895.00,1.23
9894.00,1.23
9893.00,1.23
9892.00,1.23
9891.00,1.23
9890.00,1.23
9889.00,1.23
9888.00,1.23
9887.00,1.23
9886.00,1.24
9885.00,1.24
9884.00,1.24
9883.00,1.24
9882.00,1.24
9881.00,1.24
9880.00,1.24
9879.00,1.24
9878.00,1.24
9877.00,1.24
9876.00,1.24
9875.00,1.24
9874.00,1.24
9873.00,1.25
9872.00,1.25
9871.00,1.25
9870.00,1.25
9869.00,1.26
9868.00,1.26
9867.00,1.26
9866.00,1.26
9865.00,1.26
9864.00,1.26
9863.00,1.26
9862.00,1.26
9861.00,1.26
9860.00,1.26
9859.00,1.26
9858.00,1.26
9857.00,1.26
9856.00,1.27
9855.00,1.27
9854.00,1.27
9853.00,1.27
9852.00,1.28
9851.00,1.28
9850.00,1.27
9849.00,1.27
9848.00,1.27
9847.00,1.27
9846.00,1.26
9845.00,1.26
9844.00,1.25
9843.00,1.25
9842.00,1.24
9841.00,1.24
9840.00,1.23
9839.00,1.23
9838.00,1.22
9837.00,1.22
9836.00,1.21
9835.00,1.20
9834.00,1.19
9833.00,1.18
9832.00,1.17
9831.00,1.16
9830.00,1.15
9829.00,1.14
9828.00,1.12
9827.00,1.11
9826.00,1.10
9825.00,1.09
9824.00,1.08
9823.00,1.08
9822.00,1.07
9821.00,1.07
9820.00,1.06
9819.00,1.06
9818.00,1.05
9817.00,1.05
9816.00,1.05
9815.00,1.05
9814.00,1.05
9813.00,1.04
9812.00,1.04
9811.00,1.04
9810.00,1.04
9809.00,1.04
9808.00,1.04
9807.00,1.04
9806.00,1.05
9805.00,1.05
9804.00,1.06
9803.00,1.07
9802.00,1.07
9801.00,1.08
9800.00,1.09
9799.00,1.10
9798.00,1.11
9797.00,1.11
9796.00,1.12
9795.00,1.13
9794.00,1.13
9793.00,1.14
9792.00,1.14
9791.00,1.15
9790.00,1.15
9789.00,1.16
9788.00,1.16
9787.00,1.17
9786.00,1.18
9785.00,1.18
9784.00,1.19
9783.00,1.20
9782.00,1.20
9781.00,1.21
9780.00,1.22
9779.00,1.23
9778.00,1.24
9777.00,1.24
9776.00,1.25
9775.00,1.26
9774.00,1.27
9773.00,1.28
9772.00,1.28
9771.00,1.29
9770.00,1.30
9769.00,1.31
9768.00,1.32
9767.00,1.32
9766.00,1.33
9765.00,1.34
9764.00,1.35
9763.00,1.35
9762.00,1.36
9761.00,1.37
9760.00,1.37
9759.00,1.38
9758.00,1.39
9757.00,1.39
9756.00,1.39
9755.00,1.39
9754.00,1.39
9753.00,1.39
9752.00,1.39
9751.00,1.38
9750.00,1.38
9749.00,1.37
9748.00,1.36
9747.00,1.35
9746.00,1.34
9745.00,1.33
9744.00,1.32
9743.00,1.31
9742.00,1.30
9741.00,1.29
9740.00,1.27
9739.00,1.26
9738.00,1.25
9737.00,1.23
9736.00,1.22
9735.00,1.20
9734.00,1.19
9733.00,1.17
9732.00,1.16
9731.00,1.14
9730.00,1.13
9729.00,1.12
9728.00,1.11
9727.00,1.10
9726.00,1.09
9725.00,1.08
9724.00,1.08
9723.00,1.08
9722.00,1.08
9721.00,1.08
9720.00,1.08
9719.00,1.08
9718.00,1.08
9717.00,1.09
9716.00,1.10
9715.00,1.10
9714.00,1.11
9713.00,1.12
9712.00,1.13
9711.00,1.14
9710.00,1.15
9709.00,1.16
9708.00,1.17
9707.00,1.18
9706.00,1.19
9705.00,1.21
9704.00,1.22
9703.00,1.23
9702.00,1.24
9701.00,1.26
9700.00,1.27
9699.00,1.27
9698.00,1.28
9697.00,1.29
9696.00,1.29
9695.00,1.29
9694.00,1.30
9693.00,1.30
9692.00,1.30
9691.00,1.30
9690.00,1.30
9689.00,1.30
9688.00,1.30
9687.00,1.30
9686.00,1.30
9685.00,1.30
9684.00,1.30
9683.00,1.30
9682.00,1.30
9681.00,1.30
9680.00,1.30
9679.00,1.29
9678.00,1.29
9677.00,1.28
9676.00,1.28
9675.00,1.28
9674.00,1.27
9673.00,1.27
9672.00,1.26
9671.00,1.26
9670.00,1.26
9669.00,1.26
9668.00,1.25
9667.00,1.25
9666.00,1.24
9665.00,1.24
9664.00,1.24
9663.00,1.23
9662.00,1.23
9661.00,1.22
9660.00,1.22
9659.00,1.22
9658.00,1.21
9657.00,1.21
9656.00,1.21
9655.00,1.21
9654.00,1.21
9653.00,1.21
9652.00,1.21
9651.00,1.21
9650.00,1.21
9649.00,1.21
9648.00,1.21
9647.00,1.22
9646.00,1.22
9645.00,1.22
9644.00,1.22
9643.00,1.22
9642.00,1.23
9641.00,1.23
9640.00,1.23
9639.00,1.24
9638.00,1.24
9637.00,1.25
9636.00,1.25
9635.00,1.26
9634.00,1.26
9633.00,1.27
9632.00,1.27
9631.00,1.28
9630.00,1.28
9629.00,1.29
9628.00,1.29
9627.00,1.30
9626.00,1.30
9625.00,1.31
9624.00,1.31
9623.00,1.32
9622.00,1.32
9621.00,1.33
9620.00,1.33
9619.00,1.33
9618.00,1.34
9617.00,1.34
9616.00,1.35
9615.00,1.35
9614.00,1.36
9613.00,1.36
9612.00,1.36
9611.00,1.36
9610.00,1.36
9609.00,1.36
9608.00,1.36
9607.00,1.36
9606.00,1.35
9605.00,1.35
9604.00,1.35
9603.00,1.34
9602.00,1.33
9601.00,1.33
9600.00,1.32
9599.00,1.31
9598.00,1.31
9597.00,1.30
9596.00,1.29
9595.00,1.29
9594.00,1.28
9593.00,1.27
9592.00,1.27
9591.00,1.26
9590.00,1.26
9589.00,1.25
9588.00,1.25
9587.00,1.24
9586.00,1.24
9585.00,1.24
9584.00,1.24
9583.00,1.24
9582.00,1.24
9581.00,1.25
9580.00,1.25
9579.00,1.25
9578.00,1.26
9577.00,1.26
9576.00,1.27
9575.00,1.27
9574.00,1.28
9573.00,1.28
9572.00,1.28
9571.00,1.29
9570.00,1.29
9569.00,1.30
9568.00,1.30
9567.00,1.31
9566.00,1.31
9565.00,1.32
9564.00,1.32
9563.00,1.33
9562.00,1.33
9561.00,1.34
9560.00,1.34
9559.00,1.34
9558.00,1.35
9557.00,1.35
9556.00,1.35
9555.00,1.35
9554.00,1.35
9553.00,1.36
9552.00,1.36
9551.00,1.36
9550.00,1.37
9549.00,1.37
9548.00,1.37
9547.00,1.38
9546.00,1.38
9545.00,1.39
9544.00,1.39
9543.00,1.40
9542.00,1.40
9541.00,1.40
9540.00,1.40
9539.00,1.40
9538.00,1.40
9537.00,1.40
9536.00,1.40
9535.00,1.39
9534.00,1.39
9533.00,1.39
9532.00,1.38
9531.00,1.38
9530.00,1.38
9529.00,1.37
9528.00,1.37
9527.00,1.36
9526.00,1.36
9525.00,1.35
9524.00,1.34
9523.00,1.34
9522.00,1.33
9521.00,1.32
9520.00,1.32
9519.00,1.31
9518.00,1.30
9517.00,1.30
9516.00,1.29
9515.00,1.29
9514.00,1.28
9513.00,1.28
9512.00,1.28
9511.00,1.27
9510.00,1.27
9509.00,1.27
9508.00,1.27
9507.00,1.27
9506.00,1.27
9505.00,1.28
9504.00,1.28
9503.00,1.28
9502.00,1.28
9501.00,1.28
9500.00,1.28
9499.00,1.28
9498.00,1.28
9497.00,1.28
9496.00,1.28
9495.00,1.28
9494.00,1.28
9493.00,1.28
9492.00,1.28
9491.00,1.28
9490.00,1.28
9489.00,1.28
9488.00,1.27
9487.00,1.27
9486.00,1.26
9485.00,1.26
9484.00,1.25
9483.00,1.25
9482.00,1.24
9481.00,1.24
9480.00,1.23
9479.00,1.23
9478.00,1.23
9477.00,1.22
9476.00,1.22
9475.00,1.22
9474.00,1.22
9473.00,1.22
9472.00,1.22
9471.00,1.22
9470.00,1.23
9469.00,1.23
9468.00,1.23
9467.00,1.24
9466.00,1.24
9465.00,1.25
9464.00,1.25
9463.00,1.26
9462.00,1.27
9461.00,1.27
9460.00,1.28
9459.00,1.29
9458.00,1.30
9457.00,1.31
9456.00,1.31
9455.00,1.32
9454.00,1.33
9453.00,1.33
9452.00,1.34
9451.00,1.35
9450.00,1.35
9449.00,1.36
9448.00,1.36
9447.00,1.37
9446.00,1.37
9445.00,1.38
9444.00,1.38
9443.00,1.38
9442.00,1.38
9441.00,1.38
9440.00,1.38
9439.00,1.39
9438.00,1.39
9437.00,1.39
9436.00,1.39
9435.00,1.39
9434.00,1.39
9433.00,1.39
9432.00,1.39
9431.00,1.39
9430.00,1.40
9429.00,1.40
9428.00,1.40
9427.00,1.40
9426.00,1.41
9425.00,1.41
9424.00,1.41
9423.00,1.41
9422.00,1.42
9421.00,1.42
9420.00,1.42
9419.00,1.42
9418.00,1.43
9417.00,1.43
9416.00,1.44
9415.00,1.44
9414.00,1.45
9413.00,1.45
9412.00,1.46
9411.00,1.46
9410.00,1.47
9409.00,1.47
9408.00,1.47
9407.00,1.47
9406.00,1.47
9405.00,1.47
9404.00,1.47
9403.00,1.47
9402.00,1.47
9401.00,1.46
9400.00,1.46
9399.00,1.45
9398.00,1.45
9397.00,1.45
9396.00,1.44
9395.00,1.44
9394.00,1.43
9393.00,1.43
9392.00,1.42
9391.00,1.42
9390.00,1.41
9389.00,1.40
9388.00,1.40
9387.00,1.39
9386.00,1.38
9385.00,1.37
9384.00,1.37
9383.00,1.36
9382.00,1.35
9381.00,1.35
9380.00,1.35
9379.00,1.34
9378.00,1.34
9377.00,1.34
9376.00,1.34
9375.00,1.34
9374.00,1.34
9373.00,1.34
9372.00,1.34
9371.00,1.34
9370.00,1.34
9369.00,1.35
9368.00,1.35
9367.00,1.35
9366.00,1.35
9365.00,1.35
9364.00,1.35
9363.00,1.35
9362.00,1.36
9361.00,1.36
9360.00,1.36
9359.00,1.37
9358.00,1.37
9357.00,1.37
9356.00,1.38
9355.00,1.38
9354.00,1.38
9353.00,1.39
9352.00,1.39
9351.00,1.39
9350.00,1.39
9349.00,1.39
9348.00,1.39
9347.00,1.40
9346.00,1.40
9345.00,1.40
9344.00,1.40
9343.00,1.40
9342.00,1.40
9341.00,1.40
9340.00,1.40
9339.00,1.40
9338.00,1.40
9337.00,1.40
9336.00,1.40
9335.00,1.40
9334.00,1.40
9333.00,1.40
9332.00,1.40
9331.00,1.40
9330.00,1.41
9329.00,1.41
9328.00,1.41
9327.00,1.41
9326.00,1.41
9325.00,1.41
9324.00,1.42
9323.00,1.42
9322.00,1.42
9321.00,1.43
9320.00,1.43
9319.00,1.43
9318.00,1.44
9317.00,1.44
9316.00,1.45
9315.00,1.45
9314.00,1.46
9313.00,1.46
9312.00,1.47
9311.00,1.48
9310.00,1.48
9309.00,1.49
9308.00,1.49
9307.00,1.50
9306.00,1.50
9305.00,1.51
9304.00,1.51
9303.00,1.52
9302.00,1.52
9301.00,1.52
9300.00,1.53
9299.00,1.53
9298.00,1.53
9297.00,1.53
9296.00,1.54
9295.00,1.54
9294.00,1.54
9293.00,1.54
9292.00,1.54
9291.00,1.54
9290.00,1.55
9289.00,1.55
9288.00,1.55
9287.00,1.55
9286.00,1.55
9285.00,1.55
9284.00,1.55
9283.00,1.55
9282.00,1.55
9281.00,1.55
9280.00,1.55
9279.00,1.54
9278.00,1.54
9277.00,1.54
9276.00,1.53
9275.00,1.53
9274.00,1.53
9273.00,1.52
9272.00,1.51
9271.00,1.51
9270.00,1.50
9269.00,1.50
9268.00,1.49
9267.00,1.48
9266.00,1.47
9265.00,1.47
9264.00,1.46
9263.00,1.45
9262.00,1.44
9261.00,1.44
9260.00,1.43
9259.00,1.42
9258.00,1.42
9257.00,1.41
9256.00,1.40
9255.00,1.40
9254.00,1.40
9253.00,1.39
9252.00,1.39
9251.00,1.38
9250.00,1.38
9249.00,1.38
9248.00,1.38
9247.00,1.37
9246.00,1.37
9245.00,1.37
9244.00,1.37
9243.00,1.36
9242.00,1.36
9241.00,1.36
9240.00,1.36
9239.00,1.36
9238.00,1.35
9237.00,1.35
9236.00,1.35
9235.00,1.34
9234.00,1.34
9233.00,1.34
9232.00,1.33
9231.00,1.33
9230.00,1.32
9229.00,1.32
9228.00,1.32
9227.00,1.32
9226.00,1.31
9225.00,1.31
9224.00,1.31
9223.00,1.31
9222.00,1.31
9221.00,1.31
9220.00,1.32
9219.00,1.32
9218.00,1.32
9217.00,1.32
9216.00,1.33
9215.00,1.33
9214.00,1.34
9213.00,1.34
9212.00,1.35
9211.00,1.35
9210.00,1.36
9209.00,1.36
9208.00,1.37
9207.00,1.37
9206.00,1.38
9205.00,1.38
9204.00,1.38
9203.00,1.38
9202.00,1.39
9201.00,1.39
9200.00,1.39
9199.00,1.39
9198.00,1.39
9197.00,1.39
9196.00,1.38
9195.00,1.38
9194.00,1.38
9193.00,1.38
9192.00,1.38
9191.00,1.37
9190.00,1.37
9189.00,1.37
9188.00,1.36
9187.00,1.36
9186.00,1.36
9185.00,1.35
9184.00,1.35
9183.00,1.35
9182.00,1.35
9181.00,1.35
9180.00,1.35
9179.00,1.35
9178.00,1.35
9177.00,1.35
9176.00,1.35
9175.00,1.36
9174.00,1.36
9173.00,1.36
9172.00,1.37
9171.00,1.37
9170.00,1.37
9169.00,1.38
9168.00,1.38
9167.00,1.39
9166.00,1.39
9165.00,1.40
9164.00,1.40
9163.00,1.41
9162.00,1.41
9161.00,1.42
9160.00,1.42
9159.00,1.43
9158.00,1.44
9157.00,1.44
9156.00,1.44
9155.00,1.45
9154.00,1.45
9153.00,1.45
9152.00,1.45
9151.00,1.45
9150.00,1.45
9149.00,1.45
9148.00,1.45
9147.00,1.45
9146.00,1.45
9145.00,1.45
9144.00,1.45
9143.00,1.45
9142.00,1.45
9141.00,1.45
9140.00,1.45
9139.00,1.45
9138.00,1.44
9137.00,1.44
9136.00,1.44
9135.00,1.44
9134.00,1.44
9133.00,1.44
9132.00,1.44
9131.00,1.44
9130.00,1.44
9129.00,1.44
9128.00,1.44
9127.00,1.44
9126.00,1.44
9125.00,1.44
9124.00,1.45
9123.00,1.45
9122.00,1.46
9121.00,1.46
9120.00,1.46
9119.00,1.47
9118.00,1.47
9117.00,1.47
9116.00,1.48
9115.00,1.48
9114.00,1.48
9113.00,1.48
9112.00,1.48
9111.00,1.48
9110.00,1.48
9109.00,1.48
9108.00,1.47
9107.00,1.47
9106.00,1.47
9105.00,1.47
9104.00,1.46
9103.00,1.46
9102.00,1.46
9101.00,1.45
9100.00,1.45
9099.00,1.45
9098.00,1.44
9097.00,1.44
9096.00,1.43
9095.00,1.42
9094.00,1.42
9093.00,1.41
9092.00,1.41
9091.00,1.40
9090.00,1.40
9089.00,1.39
9088.00,1.39
9087.00,1.38
9086.00,1.38
9085.00,1.38
9084.00,1.37
9083.00,1.37
9082.00,1.37
9081.00,1.37
9080.00,1.37
9079.00,1.37
9078.00,1.38
9077.00,1.38
9076.00,1.38
9075.00,1.38
9074.00,1.38
9073.00,1.38
9072.00,1.38
9071.00,1.39
9070.00,1.39
9069.00,1.39
9068.00,1.39
9067.00,1.39
9066.00,1.39
9065.00,1.39
9064.00,1.39
9063.00,1.39
9062.00,1.39
9061.00,1.39
9060.00,1.39
9059.00,1.39
9058.00,1.39
9057.00,1.39
9056.00,1.39
9055.00,1.39
9054.00,1.38
9053.00,1.38
9052.00,1.38
9051.00,1.37
9050.00,1.37
9049.00,1.37
9048.00,1.36
9047.00,1.36
9046.00,1.36
9045.00,1.35
9044.00,1.35
9043.00,1.35
9042.00,1.35
9041.00,1.34
9040.00,1.34
9039.00,1.34
9038.00,1.34
9037.00,1.34
9036.00,1.34
9035.00,1.34
9034.00,1.35
9033.00,1.35
9032.00,1.35
9031.00,1.35
9030.00,1.35
9029.00,1.35
9028.00,1.35
9027.00,1.35
9026.00,1.35
9025.00,1.35
9024.00,1.35
9023.00,1.35
9022.00,1.35
9021.00,1.35
9020.00,1.35
9019.00,1.35
9018.00,1.34
9017.00,1.34
9016.00,1.34
9015.00,1.34
9014.00,1.34
9013.00,1.34
9012.00,1.34
9011.00,1.34
9010.00,1.34
9009.00,1.34
9008.00,1.34
9007.00,1.34
9006.00,1.34
9005.00,1.34
9004.00,1.34
9003.00,1.34
9002.00,1.35
9001.00,1.35
9000.00,1.35
8999.00,1.35
8998.00,1.35
8997.00,1.35
8996.00,1.36
8995.00,1.36
8994.00,1.36
8993.00,1.37
8992.00,1.37
8991.00,1.37
8990.00,1.38
8989.00,1.38
8988.00,1.38
8987.00,1.38
8986.00,1.39
8985.00,1.39
8984.00,1.39
8983.00,1.39
8982.00,1.39
8981.00,1.39
8980.00,1.39
8979.00,1.38
8978.00,1.38
8977.00,1.38
8976.00,1.38
8975.00,1.38
8974.00,1.38
8973.00,1.38
8972.00,1.39
8971.00,1.39
8970.00,1.39
8969.00,1.39
8968.00,1.39
8967.00,1.39
8966.00,1.40
8965.00,1.40
8964.00,1.40
8963.00,1.40
8962.00,1.40
8961.00,1.40
8960.00,1.41
8959.00,1.41
8958.00,1.41
8957.00,1.41
8956.00,1.42
8955.00,1.42
8954.00,1.43
8953.00,1.43
8952.00,1.44
8951.00,1.44
8950.00,1.45
8949.00,1.45
8948.00,1.45
8947.00,1.46
8946.00,1.46
8945.00,1.46
8944.00,1.46
8943.00,1.46
8942.00,1.46
8941.00,1.46
8940.00,1.46
8939.00,1.46
8938.00,1.46
8937.00,1.46
8936.00,1.46
8935.00,1.46
8934.00,1.47
8933.00,1.47
8932.00,1.47
8931.00,1.47
8930.00,1.47
8929.00,1.47
8928.00,1.46
8927.00,1.46
8926.00,1.46
8925.00,1.46
8924.00,1.46
8923.00,1.46
8922.00,1.46
8921.00,1.46
8920.00,1.46
8919.00,1.46
8918.00,1.46
8917.00,1.46
8916.00,1.46
8915.00,1.46
8914.00,1.46
8913.00,1.46
8912.00,1.46
8911.00,1.46
8910.00,1.45
8909.00,1.45
8908.00,1.45
8907.00,1.45
8906.00,1.45
8905.00,1.45
8904.00,1.44
8903.00,1.44
8902.00,1.44
8901.00,1.44
8900.00,1.44
8899.00,1.44
8898.00,1.44
8897.00,1.43
8896.00,1.43
8895.00,1.43
8894.00,1.43
8893.00,1.43
8892.00,1.43
8891.00,1.43
8890.00,1.43
8889.00,1.44
8888.00,1.44
8887.00,1.44
8886.00,1.45
8885.00,1.45
8884.00,1.45
8883.00,1.46
8882.00,1.46
8881.00,1.47
8880.00,1.47
8879.00,1.48
8878.00,1.48
8877.00,1.49
8876.00,1.49
8875.00,1.50
8874.00,1.50
8873.00,1.51
8872.00,1.51
8871.00,1.51
8870.00,1.52
8869.00,1.52
8868.00,1.52
8867.00,1.52
8866.00,1.52
8865.00,1.51
8864.00,1.51
8863.00,1.50
8862.00,1.50
8861.00,1.49
8860.00,1.49
8859.00,1.48
8858.00,1.47
8857.00,1.47
8856.00,1.46
8855.00,1.45
8854.00,1.44
8853.00,1.43
8852.00,1.42
8851.00,1.40
8850.00,1.39
8849.00,1.38
8848.00,1.37
8847.00,1.36
8846.00,1.35
8845.00,1.34
8844.00,1.33
8843.00,1.32
8842.00,1.31
8841.00,1.30
8840.00,1.30
8839.00,1.29
8838.00,1.29
8837.00,1.29
8836.00,1.28
8835.00,1.28
8834.00,1.28
8833.00,1.28
8832.00,1.28
8831.00,1.28
8830.00,1.28
8829.00,1.28
8828.00,1.29
8827.00,1.29
8826.00,1.29
8825.00,1.30
8824.00,1.30
8823.00,1.31
8822.00,1.31
8821.00,1.32
8820.00,1.32
8819.00,1.33
8818.00,1.33
8817.00,1.34
8816.00,1.34
8815.00,1.34
8814.00,1.35
8813.00,1.35
8812.00,1.35
8811.00,1.35
8810.00,1.36
8809.00,1.36
8808.00,1.36
8807.00,1.36
8806.00,1.36
8805.00,1.37
8804.00,1.37
8803.00,1.37
8802.00,1.37
8801.00,1.37
8800.00,1.38
8799.00,1.38
8798.00,1.38
8797.00,1.38
8796.00,1.38
8795.00,1.39
8794.00,1.39
8793.00,1.39
8792.00,1.39
8791.00,1.39
8790.00,1.39
8789.00,1.39
8788.00,1.40
8787.00,1.40
8786.00,1.40
8785.00,1.40
8784.00,1.40
8783.00,1.40
8782.00,1.40
8781.00,1.40
8780.00,1.40
8779.00,1.39
8778.00,1.39
8777.00,1.39
8776.00,1.39
8775.00,1.39
8774.00,1.38
8773.00,1.38
8772.00,1.37
8771.00,1.37
8770.00,1.37
8769.00,1.36
8768.00,1.36
8767.00,1.35
8766.00,1.35
8765.00,1.35
8764.00,1.35
8763.00,1.34
8762.00,1.34
8761.00,1.34
8760.00,1.34
8759.00,1.34
8758.00,1.34
8757.00,1.33
8756.00,1.33
8755.00,1.33
8754.00,1.33
8753.00,1.33
8752.00,1.33
8751.00,1.32
8750.00,1.32
8749.00,1.32
8748.00,1.32
8747.00,1.32
8746.00,1.32
8745.00,1.32
8744.00,1.32
8743.00,1.32
8742.00,1.31
8741.00,1.31
8740.00,1.31
8739.00,1.31
8738.00,1.31
8737.00,1.31
8736.00,1.31
8735.00,1.30
8734.00,1.30
8733.00,1.30
8732.00,1.30
8731.00,1.30
8730.00,1.30
8729.00,1.29
8728.00,1.29
8727.00,1.29
8726.00,1.29
8725.00,1.29
8724.00,1.29
8723.00,1.29
8722.00,1.29
8721.00,1.29
8720.00,1.30
8719.00,1.30
8718.00,1.30
8717.00,1.30
8716.00,1.30
8715.00,1.31
8714.00,1.31
8713.00,1.31
8712.00,1.31
8711.00,1.31
8710.00,1.31
8709.00,1.32
8708.00,1.32
8707.00,1.32
8706.00,1.32
8705.00,1.32
8704.00,1.32
8703.00,1.32
8702.00,1.33
8701.00,1.33
8700.00,1.33
8699.00,1.33
8698.00,1.33
8697.00,1.33
8696.00,1.33
8695.00,1.33
8694.00,1.33
8693.00,1.33
8692.00,1.34
8691.00,1.34
8690.00,1.34
8689.00,1.34
8688.00,1.34
8687.00,1.35
8686.00,1.35
8685.00,1.35
8684.00,1.36
8683.00,1.36
8682.00,1.36
8681.00,1.36
8680.00,1.37
8679.00,1.37
8678.00,1.37
8677.00,1.37
8676.00,1.38
8675.00,1.38
8674.00,1.38
8673.00,1.39
8672.00,1.39
8671.00,1.40
8670.00,1.40
8669.00,1.41
8668.00,1.41
8667.00,1.41
8666.00,1.41
8665.00,1.42
8664.00,1.42
8663.00,1.42
8662.00,1.42
8661.00,1.43
8660.00,1.43
8659.00,1.43
8658.00,1.43
8657.00,1.43
8656.00,1.43
8655.00,1.44
8654.00,1.44
8653.00,1.44
8652.00,1.44
8651.00,1.44
8650.00,1.44
8649.00,1.44
8648.00,1.44
8647.00,1.44
8646.00,1.44
8645.00,1.44
8644.00,1.44
8643.00,1.44
8642.00,1.44
8641.00,1.44
8640.00,1.44
8639.00,1.44
8638.00,1.44
8637.00,1.44
8636.00,1.44
8635.00,1.44
8634.00,1.44
8633.00,1.44
8632.00,1.44
8631.00,1.44
8630.00,1.44
8629.00,1.44
8628.00,1.44
8627.00,1.44
8626.00,1.44
8625.00,1.43
8624.00,1.43
8623.00,1.43
8622.00,1.43
8621.00,1.43
8620.00,1.43
8619.00,1.43
8618.00,1.43
8617.00,1.43
8616.00,1.42
8615.00,1.42
8614.00,1.42
8613.00,1.41
8612.00,1.41
8611.00,1.41
8610.00,1.41
8609.00,1.41
8608.00,1.40
8607.00,1.40
8606.00,1.40
8605.00,1.40
8604.00,1.40
8603.00,1.40
8602.00,1.40
8601.00,1.40
8600.00,1.40
8599.00,1.40
8598.00,1.40
8597.00,1.40
8596.00,1.40
8595.00,1.40
8594.00,1.40
8593.00,1.40
8592.00,1.40
8591.00,1.40
8590.00,1.40
8589.00,1.40
8588.00,1.40
8587.00,1.40
8586.00,1.40
8585.00,1.40
8584.00,1.40
8583.00,1.40
8582.00,1.40
8581.00,1.40
8580.00,1.40
8579.00,1.40
8578.00,1.40
8577.00,1.39
8576.00,1.39
8575.00,1.39
8574.00,1.38
8573.00,1.38
8572.00,1.38
8571.00,1.38
8570.00,1.38
8569.00,1.37
8568.00,1.37
8567.00,1.37
8566.00,1.37
8565.00,1.37
8564.00,1.37
8563.00,1.37
8562.00,1.37
8561.00,1.36
8560.00,1.36
8559.00,1.36
8558.00,1.36
8557.00,1.36
8556.00,1.36
8555.00,1.36
8554.00,1.36
8553.00,1.36
8552.00,1.36
8551.00,1.36
8550.00,1.37
8549.00,1.37
8548.00,1.37
8547.00,1.37
8546.00,1.37
8545.00,1.37
8544.00,1.38
8543.00,1.38
8542.00,1.38
8541.00,1.38
8540.00,1.39
8539.00,1.39
8538.00,1.39
8537.00,1.40
8536.00,1.40
8535.00,1.40
8534.00,1.41
8533.00,1.41
8532.00,1.41
8531.00,1.41
8530.00,1.41
8529.00,1.42
8528.00,1.42
8527.00,1.42
8526.00,1.42
8525.00,1.42
8524.00,1.42
8523.00,1.41
8522.00,1.41
8521.00,1.41
8520.00,1.41
8519.00,1.41
8518.00,1.40
8517.00,1.40
8516.00,1.39
8515.00,1.39
8514.00,1.39
8513.00,1.38
8512.00,1.38
8511.00,1.37
8510.00,1.37
8509.00,1.37
8508.00,1.36
8507.00,1.36
8506.00,1.36
8505.00,1.36
8504.00,1.35
8503.00,1.35
8502.00,1.35
8501.00,1.35
8500.00,1.35
8499.00,1.36
8498.00,1.36
8497.00,1.36
8496.00,1.37
8495.00,1.37
8494.00,1.38
8493.00,1.38
8492.00,1.39
8491.00,1.39
8490.00,1.40
8489.00,1.40
8488.00,1.40
8487.00,1.41
8486.00,1.41
8485.00,1.41
8484.00,1.42
8483.00,1.42
8482.00,1.42
8481.00,1.42
8480.00,1.42
8479.00,1.43
8478.00,1.43
8477.00,1.43
8476.00,1.43
8475.00,1.43
8474.00,1.43
8473.00,1.43
8472.00,1.43
8471.00,1.43
8470.00,1.43
8469.00,1.42
8468.00,1.42
8467.00,1.42
8466.00,1.42
8465.00,1.41
8464.00,1.41
8463.00,1.41
8462.00,1.41
8461.00,1.41
8460.00,1.41
8459.00,1.40
8458.00,1.40
8457.00,1.40
8456.00,1.40
8455.00,1.40
8454.00,1.40
8453.00,1.40
8452.00,1.40
8451.00,1.40
8450.00,1.40
8449.00,1.40
8448.00,1.40
8447.00,1.40
8446.00,1.40
8445.00,1.40
8444.00,1.40
8443.00,1.40
8442.00,1.40
8441.00,1.40
8440.00,1.40
8439.00,1.40
8438.00,1.40
8437.00,1.40
8436.00,1.40
8435.00,1.40
8434.00,1.40
8433.00,1.40
8432.00,1.39
8431.00,1.39
8430.00,1.39
8429.00,1.39
8428.00,1.39
8427.00,1.38
8426.00,1.38
8425.00,1.38
8424.00,1.38
8423.00,1.38
8422.00,1.38
8421.00,1.38
8420.00,1.38
8419.00,1.38
8418.00,1.38
8417.00,1.38
8416.00,1.38
8415.00,1.38
8414.00,1.38
8413.00,1.38
8412.00,1.38
8411.00,1.39
8410.00,1.39
8409.00,1.39
8408.00,1.39
8407.00,1.39
8406.00,1.40
8405.00,1.40
8404.00,1.40
8403.00,1.40
8402.00,1.40
8401.00,1.40
8400.00,1.40
8399.00,1.40
8398.00,1.40
8397.00,1.40
8396.00,1.40
8395.00,1.40
8394.00,1.40
8393.00,1.40
8392.00,1.39
8391.00,1.39
8390.00,1.39
8389.00,1.39
8388.00,1.38
8387.00,1.38
8386.00,1.38
8385.00,1.37
8384.00,1.37
8383.00,1.37
8382.00,1.37
8381.00,1.36
8380.00,1.36
8379.00,1.36
8378.00,1.35
8377.00,1.35
8376.00,1.35
8375.00,1.35
8374.00,1.35
8373.00,1.35
8372.00,1.35
8371.00,1.34
8370.00,1.35
8369.00,1.35
8368.00,1.35
8367.00,1.35
8366.00,1.35
8365.00,1.36
8364.00,1.36
8363.00,1.37
8362.00,1.37
8361.00,1.38
8360.00,1.38
8359.00,1.39
8358.00,1.39
8357.00,1.40
8356.00,1.40
8355.00,1.41
8354.00,1.41
8353.00,1.42
8352.00,1.42
8351.00,1.43
8350.00,1.43
8349.00,1.44
8348.00,1.44
8347.00,1.45
8346.00,1.45
8345.00,1.46
8344.00,1.47
8343.00,1.47
8342.00,1.48
8341.00,1.48
8340.00,1.49
8339.00,1.49
8338.00,1.50
8337.00,1.50
8336.00,1.50
8335.00,1.50
8334.00,1.51
8333.00,1.51
8332.00,1.51
8331.00,1.52
8330.00,1.52
8329.00,1.52
8328.00,1.52
8327.00,1.53
8326.00,1.53
8325.00,1.53
8324.00,1.53
8323.00,1.53
8322.00,1.53
8321.00,1.53
8320.00,1.53
8319.00,1.53
8318.00,1.52
8317.00,1.52
8316.00,1.52
8315.00,1.52
8314.00,1.51
8313.00,1.51
8312.00,1.50
8311.00,1.50
8310.00,1.50
8309.00,1.49
8308.00,1.49
8307.00,1.48
8306.00,1.48
8305.00,1.48
8304.00,1.47
8303.00,1.47
8302.00,1.47
8301.00,1.47
8300.00,1.46
8299.00,1.46
8298.00,1.46
8297.00,1.46
8296.00,1.46
8295.00,1.46
8294.00,1.46
8293.00,1.46
8292.00,1.46
8291.00,1.46
8290.00,1.46
8289.00,1.46
8288.00,1.47
8287.00,1.47
8286.00,1.47
8285.00,1.48
8284.00,1.48
8283.00,1.49
8282.00,1.49
8281.00,1.50
8280.00,1.50
8279.00,1.51
8278.00,1.52
8277.00,1.52
8276.00,1.53
8275.00,1.53
8274.00,1.53
8273.00,1.54
8272.00,1.54
8271.00,1.54
8270.00,1.55
8269.00,1.55
8268.00,1.55
8267.00,1.55
8266.00,1.55
8265.00,1.55
8264.00,1.55
8263.00,1.55
8262.00,1.55
8261.00,1.55
8260.00,1.55
8259.00,1.55
8258.00,1.55
8257.00,1.54
8256.00,1.54
8255.00,1.53
8254.00,1.53
8253.00,1.53
8252.00,1.52
8251.00,1.52
8250.00,1.51
8249.00,1.51
8248.00,1.50
8247.00,1.50
8246.00,1.50
8245.00,1.49
8244.00,1.49
8243.00,1.48
8242.00,1.48
8241.00,1.48
8240.00,1.47
8239.00,1.47
8238.00,1.47
8237.00,1.46
8236.00,1.46
8235.00,1.45
8234.00,1.45
8233.00,1.45
8232.00,1.44
8231.00,1.44
8230.00,1.43
8229.00,1.43
8228.00,1.43
8227.00,1.43
8226.00,1.42
8225.00,1.42
8224.00,1.42
8223.00,1.42
8222.00,1.41
8221.00,1.41
8220.00,1.41
8219.00,1.40
8218.00,1.40
8217.00,1.40
8216.00,1.39
8215.00,1.39
8214.00,1.39
8213.00,1.39
8212.00,1.39
8211.00,1.39
8210.00,1.39
8209.00,1.39
8208.00,1.39
8207.00,1.39
8206.00,1.39
8205.00,1.39
8204.00,1.39
8203.00,1.39
8202.00,1.40
8201.00,1.40
8200.00,1.40
8199.00,1.40
8198.00,1.39
8197.00,1.39
8196.00,1.39
8195.00,1.39
8194.00,1.40
8193.00,1.40
8192.00,1.40
8191.00,1.40
8190.00,1.40
8189.00,1.41
8188.00,1.41
8187.00,1.42
8186.00,1.42
8185.00,1.42
8184.00,1.43
8183.00,1.43
8182.00,1.44
8181.00,1.44
8180.00,1.45
8179.00,1.45
8178.00,1.45
8177.00,1.46
8176.00,1.46
8175.00,1.47
8174.00,1.48
8173.00,1.48
8172.00,1.49
8171.00,1.50
8170.00,1.50
8169.00,1.51
8168.00,1.51
8167.00,1.52
8166.00,1.52
8165.00,1.53
8164.00,1.53
8163.00,1.53
8162.00,1.54
8161.00,1.54
8160.00,1.54
8159.00,1.53
8158.00,1.53
8157.00,1.53
8156.00,1.53
8155.00,1.52
8154.00,1.52
8153.00,1.52
8152.00,1.52
8151.00,1.51
8150.00,1.51
8149.00,1.51
8148.00,1.51
8147.00,1.51
8146.00,1.50
8145.00,1.50
8144.00,1.50
8143.00,1.50
8142.00,1.50
8141.00,1.49
8140.00,1.49
8139.00,1.49
8138.00,1.49
8137.00,1.49
8136.00,1.49
8135.00,1.49
8134.00,1.49
8133.00,1.49
8132.00,1.49
8131.00,1.50
8130.00,1.50
8129.00,1.50
8128.00,1.51
8127.00,1.51
8126.00,1.51
8125.00,1.52
8124.00,1.52
8123.00,1.52
8122.00,1.52
8121.00,1.52
8120.00,1.53
8119.00,1.53
8118.00,1.53
8117.00,1.53
8116.00,1.53
8115.00,1.53
8114.00,1.53
8113.00,1.53
8112.00,1.53
8111.00,1.53
8110.00,1.53
8109.00,1.53
8108.00,1.53
8107.00,1.53
8106.00,1.53
8105.00,1.53
8104.00,1.53
8103.00,1.52
8102.00,1.52
8101.00,1.52
8100.00,1.51
8099.00,1.51
8098.00,1.50
8097.00,1.50
8096.00,1.50
8095.00,1.49
8094.00,1.49
8093.00,1.48
8092.00,1.48
8091.00,1.48
8090.00,1.47
8089.00,1.47
8088.00,1.47
8087.00,1.46
8086.00,1.46
8085.00,1.46
8084.00,1.46
8083.00,1.45
8082.00,1.45
8081.00,1.45
8080.00,1.45
8079.00,1.45
8078.00,1.45
8077.00,1.45
8076.00,1.45
8075.00,1.45
8074.00,1.45
8073.00,1.45
8072.00,1.45
8071.00,1.45
8070.00,1.45
8069.00,1.46
8068.00,1.46
8067.00,1.46
8066.00,1.46
8065.00,1.46
8064.00,1.47
8063.00,1.47
8062.00,1.47
8061.00,1.48
8060.00,1.48
8059.00,1.48
8058.00,1.48
8057.00,1.48
8056.00,1.48
8055.00,1.48
8054.00,1.48
8053.00,1.48
8052.00,1.48
8051.00,1.48
8050.00,1.48
8049.00,1.48
8048.00,1.49
8047.00,1.49
8046.00,1.49
8045.00,1.49
8044.00,1.49
8043.00,1.50
8042.00,1.50
8041.00,1.50
8040.00,1.50
8039.00,1.51
8038.00,1.51
8037.00,1.51
8036.00,1.51
8035.00,1.51
8034.00,1.51
8033.00,1.52
8032.00,1.52
8031.00,1.52
8030.00,1.52
8029.00,1.52
8028.00,1.53
8027.00,1.53
8026.00,1.54
8025.00,1.54
8024.00,1.55
8023.00,1.55
8022.00,1.56
8021.00,1.56
8020.00,1.56
8019.00,1.57
8018.00,1.57
8017.00,1.57
8016.00,1.58
8015.00,1.58
8014.00,1.58
8013.00,1.59
8012.00,1.59
8011.00,1.59
8010.00,1.60
8009.00,1.60
8008.00,1.61
8007.00,1.61
8006.00,1.61
8005.00,1.62
8004.00,1.62
8003.00,1.63
8002.00,1.63
8001.00,1.64
8000.00,1.64
7999.00,1.64
7998.00,1.64
7997.00,1.64
7996.00,1.65
7995.00,1.65
7994.00,1.65
7993.00,1.65
7992.00,1.65
7991.00,1.64
7990.00,1.64
7989.00,1.64
7988.00,1.64
7987.00,1.64
7986.00,1.64
7985.00,1.63
7984.00,1.63
7983.00,1.63
7982.00,1.63
7981.00,1.63
7980.00,1.62
7979.00,1.62
7978.00,1.62
7977.00,1.61
7976.00,1.61
7975.00,1.61
7974.00,1.60
7973.00,1.60
7972.00,1.59
7971.00,1.59
7970.00,1.58
7969.00,1.58
7968.00,1.57
7967.00,1.57
7966.00,1.57
7965.00,1.57
7964.00,1.57
7963.00,1.56
7962.00,1.56
7961.00,1.56
7960.00,1.56
7959.00,1.55
7958.00,1.55
7957.00,1.55
7956.00,1.55
7955.00,1.54
7954.00,1.54
7953.00,1.54
7952.00,1.53
7951.00,1.53
7950.00,1.53
7949.00,1.53
7948.00,1.53
7947.00,1.53
7946.00,1.53
7945.00,1.53
7944.00,1.53
7943.00,1.53
7942.00,1.53
7941.00,1.53
7940.00,1.53
7939.00,1.53
7938.00,1.53
7937.00,1.53
7936.00,1.53
7935.00,1.53
7934.00,1.53
7933.00,1.53
7932.00,1.53
7931.00,1.53
7930.00,1.53
7929.00,1.53
7928.00,1.53
7927.00,1.53
7926.00,1.53
7925.00,1.54
7924.00,1.54
7923.00,1.54
7922.00,1.54
7921.00,1.54
7920.00,1.54
7919.00,1.54
7918.00,1.55
7917.00,1.55
7916.00,1.55
7915.00,1.55
7914.00,1.55
7913.00,1.55
7912.00,1.55
7911.00,1.56
7910.00,1.56
7909.00,1.56
7908.00,1.56
7907.00,1.56
7906.00,1.56
7905.00,1.55
7904.00,1.55
7903.00,1.55
7902.00,1.55
7901.00,1.55
7900.00,1.55
7899.00,1.55
7898.00,1.55
7897.00,1.56
7896.00,1.56
7895.00,1.56
7894.00,1.56
7893.00,1.56
7892.00,1.56
7891.00,1.56
7890.00,1.56
7889.00,1.56
7888.00,1.56
7887.00,1.56
7886.00,1.56
7885.00,1.56
7884.00,1.56
7883.00,1.56
7882.00,1.56
7881.00,1.56
7880.00,1.57
7879.00,1.57
7878.00,1.57
7877.00,1.57
7876.00,1.57
7875.00,1.58
7874.00,1.58
7873.00,1.58
7872.00,1.58
7871.00,1.58
7870.00,1.58
7869.00,1.58
7868.00,1.58
7867.00,1.57
7866.00,1.57
7865.00,1.57
7864.00,1.57
7863.00,1.57
7862.00,1.57
7861.00,1.56
7860.00,1.56
7859.00,1.56
7858.00,1.56
7857.00,1.55
7856.00,1.55
7855.00,1.55
7854.00,1.54
7853.00,1.54
7852.00,1.54
7851.00,1.53
7850.00,1.53
7849.00,1.52
7848.00,1.52
7847.00,1.52
7846.00,1.51
7845.00,1.51
7844.00,1.51
7843.00,1.51
7842.00,1.50
7841.00,1.50
7840.00,1.50
7839.00,1.50
7838.00,1.49
7837.00,1.49
7836.00,1.49
7835.00,1.49
7834.00,1.49
7833.00,1.48
7832.00,1.48
7831.00,1.48
7830.00,1.48
7829.00,1.48
7828.00,1.48
7827.00,1.48
7826.00,1.48
7825.00,1.48
7824.00,1.48
7823.00,1.48
7822.00,1.48
7821.00,1.48
7820.00,1.48
7819.00,1.48
7818.00,1.49
7817.00,1.49
7816.00,1.49
7815.00,1.50
7814.00,1.50
7813.00,1.50
7812.00,1.51
7811.00,1.51
7810.00,1.52
7809.00,1.52
7808.00,1.53
7807.00,1.53
7806.00,1.53
7805.00,1.54
7804.00,1.54
7803.00,1.55
7802.00,1.55
7801.00,1.56
7800.00,1.56
7799.00,1.57
7798.00,1.57
7797.00,1.58
7796.00,1.58
7795.00,1.58
7794.00,1.59
7793.00,1.59
7792.00,1.59
7791.00,1.60
7790.00,1.60
7789.00,1.60
7788.00,1.60
7787.00,1.60
7786.00,1.60
7785.00,1.60
7784.00,1.60
7783.00,1.60
7782.00,1.60
7781.00,1.60
7780.00,1.60
7779.00,1.60
7778.00,1.60
7777.00,1.59
7776.00,1.59
7775.00,1.58
7774.00,1.58
7773.00,1.57
7772.00,1.57
7771.00,1.56
7770.00,1.55
7769.00,1.55
7768.00,1.54
7767.00,1.53
7766.00,1.52
7765.00,1.52
7764.00,1.51
7763.00,1.50
7762.00,1.49
7761.00,1.49
7760.00,1.48
7759.00,1.47
7758.00,1.47
7757.00,1.46
7756.00,1.46
7755.00,1.45
7754.00,1.45
7753.00,1.45
7752.00,1.44
7751.00,1.44
7750.00,1.44
7749.00,1.44
7748.00,1.44
7747.00,1.44
7746.00,1.45
7745.00,1.45
7744.00,1.45
7743.00,1.46
7742.00,1.46
7741.00,1.47
7740.00,1.48
7739.00,1.48
7738.00,1.49
7737.00,1.50
7736.00,1.50
7735.00,1.51
7734.00,1.52
7733.00,1.52
7732.00,1.53
7731.00,1.54
7730.00,1.54
7729.00,1.55
7728.00,1.56
7727.00,1.56
7726.00,1.57
7725.00,1.58
7724.00,1.58
7723.00,1.59
7722.00,1.59
7721.00,1.59
7720.00,1.60
7719.00,1.60
7718.00,1.60
7717.00,1.60
7716.00,1.60
7715.00,1.60
7714.00,1.60
7713.00,1.60
7712.00,1.59
7711.00,1.59
7710.00,1.59
7709.00,1.59
7708.00,1.58
7707.00,1.58
7706.00,1.58
7705.00,1.58
7704.00,1.58
7703.00,1.57
7702.00,1.57
7701.00,1.57
7700.00,1.56
7699.00,1.56
7698.00,1.56
7697.00,1.55
7696.00,1.55
7695.00,1.55
7694.00,1.55
7693.00,1.55
7692.00,1.54
7691.00,1.54
7690.00,1.54
7689.00,1.54
7688.00,1.54
7687.00,1.54
7686.00,1.55
7685.00,1.55
7684.00,1.55
7683.00,1.55
7682.00,1.55
7681.00,1.55
7680.00,1.55
7679.00,1.55
7678.00,1.55
7677.00,1.55
7676.00,1.55
7675.00,1.55
7674.00,1.55
7673.00,1.55
7672.00,1.55
7671.00,1.55
7670.00,1.55
7669.00,1.55
7668.00,1.55
7667.00,1.55
7666.00,1.55
7665.00,1.55
7664.00,1.55
7663.00,1.55
7662.00,1.55
7661.00,1.55
7660.00,1.55
7659.00,1.55
7658.00,1.55
7657.00,1.56
7656.00,1.56
7655.00,1.56
7654.00,1.56
7653.00,1.56
7652.00,1.56
7651.00,1.57
7650.00,1.57
7649.00,1.57
7648.00,1.57
7647.00,1.58
7646.00,1.58
7645.00,1.58
7644.00,1.59
7643.00,1.59
7642.00,1.59
7641.00,1.59
7640.00,1.60
7639.00,1.60
7638.00,1.60
7637.00,1.60
7636.00,1.60
7635.00,1.61
7634.00,1.61
7633.00,1.61
7632.00,1.61
7631.00,1.61
7630.00,1.61
7629.00,1.62
7628.00,1.62
7627.00,1.62
7626.00,1.62
7625.00,1.63
7624.00,1.63
7623.00,1.63
7622.00,1.63
7621.00,1.63
7620.00,1.63
7619.00,1.64
7618.00,1.64
7617.00,1.64
7616.00,1.64
7615.00,1.64
7614.00,1.65
7613.00,1.65
7612.00,1.65
7611.00,1.65
7610.00,1.65
7609.00,1.66
7608.00,1.66
7607.00,1.66
7606.00,1.66
7605.00,1.66
7604.00,1.66
7603.00,1.66
7602.00,1.66
7601.00,1.66
7600.00,1.66
7599.00,1.66
7598.00,1.65
7597.00,1.65
7596.00,1.65
7595.00,1.65
7594.00,1.64
7593.00,1.64
7592.00,1.64
7591.00,1.63
7590.00,1.63
7589.00,1.63
7588.00,1.62
7587.00,1.62
7586.00,1.61
7585.00,1.61
7584.00,1.60
7583.00,1.60
7582.00,1.60
7581.00,1.59
7580.00,1.59
7579.00,1.59
7578.00,1.58
7577.00,1.58
7576.00,1.58
7575.00,1.58
7574.00,1.58
7573.00,1.58
7572.00,1.57
7571.00,1.57
7570.00,1.57
7569.00,1.57
7568.00,1.57
7567.00,1.57
7566.00,1.57
7565.00,1.57
7564.00,1.57
7563.00,1.57
7562.00,1.57
7561.00,1.58
7560.00,1.58
7559.00,1.58
7558.00,1.58
7557.00,1.58
7556.00,1.59
7555.00,1.59
7554.00,1.59
7553.00,1.59
7552.00,1.60
7551.00,1.60
7550.00,1.60
7549.00,1.61
7548.00,1.61
7547.00,1.61
7546.00,1.61
7545.00,1.61
7544.00,1.62
7543.00,1.62
7542.00,1.62
7541.00,1.63
7540.00,1.63
7539.00,1.63
7538.00,1.63
7537.00,1.64
7536.00,1.64
7535.00,1.64
7534.00,1.64
7533.00,1.64
7532.00,1.64
7531.00,1.64
7530.00,1.64
7529.00,1.64
7528.00,1.64
7527.00,1.64
7526.00,1.63
7525.00,1.63
7524.00,1.63
7523.00,1.63
7522.00,1.63
7521.00,1.63
7520.00,1.63
7519.00,1.62
7518.00,1.62
7517.00,1.62
7516.00,1.62
7515.00,1.62
7514.00,1.62
7513.00,1.62
7512.00,1.61
7511.00,1.61
7510.00,1.61
7509.00,1.61
7508.00,1.61
7507.00,1.61
7506.00,1.61
7505.00,1.61
7504.00,1.61
7503.00,1.61
7502.00,1.61
7501.00,1.61
7500.00,1.61
7499.00,1.61
7498.00,1.61
7497.00,1.61
7496.00,1.61
7495.00,1.61
7494.00,1.61
7493.00,1.61
7492.00,1.61
7491.00,1.61
7490.00,1.61
7489.00,1.61
7488.00,1.61
7487.00,1.61
7486.00,1.61
7485.00,1.61
7484.00,1.60
7483.00,1.60
7482.00,1.60
7481.00,1.60
7480.00,1.60
7479.00,1.60
7478.00,1.59
7477.00,1.59
7476.00,1.59
7475.00,1.59
7474.00,1.59
7473.00,1.59
7472.00,1.60
7471.00,1.60
7470.00,1.60
7469.00,1.60
7468.00,1.60
7467.00,1.60
7466.00,1.61
7465.00,1.61
7464.00,1.61
7463.00,1.61
7462.00,1.62
7461.00,1.62
7460.00,1.62
7459.00,1.63
7458.00,1.63
7457.00,1.64
7456.00,1.64
7455.00,1.64
7454.00,1.64
7453.00,1.65
7452.00,1.65
7451.00,1.65
7450.00,1.65
7449.00,1.65
7448.00,1.65
7447.00,1.65
7446.00,1.65
7445.00,1.65
7444.00,1.65
7443.00,1.65
7442.00,1.65
7441.00,1.65
7440.00,1.64
7439.00,1.64
7438.00,1.64
7437.00,1.64
7436.00,1.63
7435.00,1.63
7434.00,1.63
7433.00,1.62
7432.00,1.62
7431.00,1.61
7430.00,1.61
7429.00,1.61
7428.00,1.61
7427.00,1.61
7426.00,1.60
7425.00,1.60
7424.00,1.60
7423.00,1.60
7422.00,1.60
7421.00,1.60
7420.00,1.60
7419.00,1.60
7418.00,1.60
7417.00,1.60
7416.00,1.60
7415.00,1.60
7414.00,1.60
7413.00,1.60
7412.00,1.59
7411.00,1.59
7410.00,1.59
7409.00,1.59
7408.00,1.59
7407.00,1.59
7406.00,1.59
7405.00,1.59
7404.00,1.59
7403.00,1.59
7402.00,1.58
7401.00,1.58
7400.00,1.58
7399.00,1.58
7398.00,1.57
7397.00,1.57
7396.00,1.57
7395.00,1.56
7394.00,1.56
7393.00,1.56
7392.00,1.56
7391.00,1.55
7390.00,1.55
7389.00,1.55
7388.00,1.55
7387.00,1.55
7386.00,1.55
7385.00,1.55
7384.00,1.54
7383.00,1.54
7382.00,1.54
7381.00,1.54
7380.00,1.54
7379.00,1.54
7378.00,1.54
7377.00,1.54
7376.00,1.54
7375.00,1.54
7374.00,1.54
7373.00,1.55
7372.00,1.55
7371.00,1.55
7370.00,1.55
7369.00,1.55
7368.00,1.55
7367.00,1.55
7366.00,1.55
7365.00,1.55
7364.00,1.55
7363.00,1.54
7362.00,1.54
7361.00,1.55
7360.00,1.55
7359.00,1.55
7358.00,1.55
7357.00,1.55
7356.00,1.55
7355.00,1.55
7354.00,1.55
7353.00,1.55
7352.00,1.55
7351.00,1.55
7350.00,1.55
7349.00,1.55
7348.00,1.56
7347.00,1.56
7346.00,1.56
7345.00,1.56
7344.00,1.56
7343.00,1.55
7342.00,1.55
7341.00,1.55
7340.00,1.55
7339.00,1.55
7338.00,1.55
7337.00,1.55
7336.00,1.55
7335.00,1.55
7334.00,1.54
7333.00,1.54
7332.00,1.54
7331.00,1.53
7330.00,1.53
7329.00,1.53
7328.00,1.52
7327.00,1.52
7326.00,1.52
7325.00,1.51
7324.00,1.51
7323.00,1.51
7322.00,1.51
7321.00,1.51
7320.00,1.51
7319.00,1.51
7318.00,1.51
7317.00,1.51
7316.00,1.51
7315.00,1.51
7314.00,1.51
7313.00,1.51
7312.00,1.52
7311.00,1.52
7310.00,1.52
7309.00,1.53
7308.00,1.53
7307.00,1.53
7306.00,1.54
7305.00,1.54
7304.00,1.54
7303.00,1.55
7302.00,1.55
7301.00,1.56
7300.00,1.56
7299.00,1.56
7298.00,1.56
7297.00,1.57
7296.00,1.57
7295.00,1.57
7294.00,1.57
7293.00,1.57
7292.00,1.57
7291.00,1.57
7290.00,1.57
7289.00,1.57
7288.00,1.57
7287.00,1.57
7286.00,1.57
7285.00,1.57
7284.00,1.57
7283.00,1.57
7282.00,1.56
7281.00,1.56
7280.00,1.56
7279.00,1.56
7278.00,1.56
7277.00,1.56
7276.00,1.55
7275.00,1.55
7274.00,1.55
7273.00,1.55
7272.00,1.55
7271.00,1.55
7270.00,1.54
7269.00,1.54
7268.00,1.54
7267.00,1.54
7266.00,1.54
7265.00,1.54
7264.00,1.54
7263.00,1.54
7262.00,1.54
7261.00,1.54
7260.00,1.54
7259.00,1.53
7258.00,1.53
7257.00,1.53
7256.00,1.53
7255.00,1.53
7254.00,1.52
7253.00,1.52
7252.00,1.52
7251.00,1.52
7250.00,1.52
7249.00,1.52
7248.00,1.51
7247.00,1.51
7246.00,1.51
7245.00,1.50
7244.00,1.50
7243.00,1.50
7242.00,1.49
7241.00,1.49
7240.00,1.48
7239.00,1.48
7238.00,1.47
7237.00,1.47
7236.00,1.47
7235.00,1.46
7234.00,1.46
7233.00,1.45
7232.00,1.45
7231.00,1.44
7230.00,1.44
7229.00,1.44
7228.00,1.43
7227.00,1.43
7226.00,1.43
7225.00,1.42
7224.00,1.42
7223.00,1.41
7222.00,1.41
7221.00,1.41
7220.00,1.40
7219.00,1.40
7218.00,1.39
7217.00,1.39
7216.00,1.39
7215.00,1.38
7214.00,1.38
7213.00,1.38
7212.00,1.38
7211.00,1.37
7210.00,1.37
7209.00,1.37
7208.00,1.37
7207.00,1.36
7206.00,1.36
7205.00,1.36
7204.00,1.36
7203.00,1.35
7202.00,1.35
7201.00,1.35
7200.00,1.35
7199.00,1.35
7198.00,1.35
7197.00,1.35
7196.00,1.35
7195.00,1.35
7194.00,1.35
7193.00,1.35
7192.00,1.35
7191.00,1.35
7190.00,1.35
7189.00,1.35
7188.00,1.35
7187.00,1.35
7186.00,1.35
7185.00,1.35
7184.00,1.35
7183.00,1.35
7182.00,1.35
7181.00,1.35
7180.00,1.35
7179.00,1.35
7178.00,1.35
7177.00,1.35
7176.00,1.35
7175.00,1.35
7174.00,1.35
7173.00,1.34
7172.00,1.34
7171.00,1.34
7170.00,1.33
7169.00,1.33
7168.00,1.32
7167.00,1.32
7166.00,1.31
7165.00,1.31
7164.00,1.30
7163.00,1.29
7162.00,1.29
7161.00,1.28
7160.00,1.28
7159.00,1.27
7158.00,1.27
7157.00,1.26
7156.00,1.26
7155.00,1.25
7154.00,1.24
7153.00,1.24
7152.00,1.24
7151.00,1.23
7150.00,1.23
7149.00,1.22
7148.00,1.22
7147.00,1.21
7146.00,1.21
7145.00,1.21
7144.00,1.20
7143.00,1.20
7142.00,1.20
7141.00,1.20
7140.00,1.20
7139.00,1.19
7138.00,1.19
7137.00,1.19
7136.00,1.19
7135.00,1.19
7134.00,1.19
7133.00,1.19
7132.00,1.19
7131.00,1.19
7130.00,1.19
7129.00,1.19
7128.00,1.19
7127.00,1.19
7126.00,1.18
7125.00,1.18
7124.00,1.18
7123.00,1.18
7122.00,1.18
7121.00,1.17
7120.00,1.17
7119.00,1.17
7118.00,1.17
7117.00,1.17
7116.00,1.16
7115.00,1.16
7114.00,1.16
7113.00,1.16
7112.00,1.15
7111.00,1.15
7110.00,1.14
7109.00,1.14
7108.00,1.14
7107.00,1.13
7106.00,1.13
7105.00,1.12
7104.00,1.12
7103.00,1.12
7102.00,1.11
7101.00,1.11
7100.00,1.11
7099.00,1.11
7098.00,1.10
7097.00,1.10
7096.00,1.10
7095.00,1.09
7094.00,1.09
7093.00,1.09
7092.00,1.08
7091.00,1.08
7090.00,1.07
7089.00,1.07
7088.00,1.07
7087.00,1.06
7086.00,1.06
7085.00,1.06
7084.00,1.05
7083.00,1.05
7082.00,1.05
7081.00,1.04
7080.00,1.04
7079.00,1.04
7078.00,1.04
7077.00,1.03
7076.00,1.03
7075.00,1.03
7074.00,1.02
7073.00,1.02
7072.00,1.02
7071.00,1.02
7070.00,1.01
7069.00,1.01
7068.00,1.01
7067.00,1.01
7066.00,1.00
7065.00,1.00
7064.00,1.00
7063.00,1.00
7062.00,1.00
7061.00,1.00
7060.00,1.00
7059.00,1.00
7058.00,0.99
7057.00,0.99
7056.00,0.99
7055.00,0.99
7054.00,0.99
7053.00,0.99
7052.00,0.99
7051.00,0.99
7050.00,0.99
7049.00,0.99
7048.00,0.98
7047.00,0.98
7046.00,0.98
7045.00,0.98
7044.00,0.98
7043.00,0.98
7042.00,0.98
7041.00,0.98
7040.00,0.98
7039.00,0.98
7038.00,0.98
7037.00,0.98
7036.00,0.98
7035.00,0.97
7034.00,0.97
7033.00,0.97
7032.00,0.97
7031.00,0.97
7030.00,0.97
7029.00,0.97
7028.00,0.96
7027.00,0.96
7026.00,0.96
7025.00,0.96
7024.00,0.96
7023.00,0.96
7022.00,0.95
7021.00,0.95
7020.00,0.95
7019.00,0.95
7018.00,0.94
7017.00,0.94
7016.00,0.94
7015.00,0.93
7014.00,0.93
7013.00,0.93
7012.00,0.92
7011.00,0.92
7010.00,0.92
7009.00,0.91
7008.00,0.91
7007.00,0.90
7006.00,0.90
7005.00,0.90
7004.00,0.89
7003.00,0.89
7002.00,0.89
7001.00,0.88
7000.00,0.88
6999.00,0.88
6998.00,0.87
6997.00,0.87
6996.00,0.87
6995.00,0.86
6994.00,0.86
6993.00,0.86
6992.00,0.86
6991.00,0.85
6990.00,0.85
6989.00,0.85
6988.00,0.85
6987.00,0.85
6986.00,0.85
6985.00,0.85
6984.00,0.85
6983.00,0.85
6982.00,0.84
6981.00,0.84
6980.00,0.84
6979.00,0.84
6978.00,0.84
6977.00,0.84
6976.00,0.84
6975.00,0.84
6974.00,0.84
6973.00,0.84
6972.00,0.84
6971.00,0.84
6970.00,0.83
6969.00,0.83
6968.00,0.83
6967.00,0.83
6966.00,0.83
6965.00,0.83
6964.00,0.83
6963.00,0.83
6962.00,0.83
6961.00,0.83
6960.00,0.82
6959.00,0.82
6958.00,0.82
6957.00,0.82
6956.00,0.82
6955.00,0.82
6954.00,0.82
6953.00,0.82
6952.00,0.82
6951.00,0.82
6950.00,0.82
6949.00,0.82
6948.00,0.83
6947.00,0.83
6946.00,0.83
6945.00,0.83
6944.00,0.83
6943.00,0.84
6942.00,0.84
6941.00,0.84
6940.00,0.84
6939.00,0.85
6938.00,0.85
6937.00,0.85
6936.00,0.85
6935.00,0.86
6934.00,0.86
6933.00,0.86
6932.00,0.87
6931.00,0.87
6930.00,0.88
6929.00,0.88
6928.00,0.88
6927.00,0.89
6926.00,0.89
6925.00,0.89
6924.00,0.89
6923.00,0.90
6922.00,0.90
6921.00,0.90
6920.00,0.90
6919.00,0.90
6918.00,0.90
6917.00,0.90
6916.00,0.90
6915.00,0.90
6914.00,0.91
6913.00,0.91
6912.00,0.91
6911.00,0.91
6910.00,0.91
6909.00,0.90
6908.00,0.90
6907.00,0.90
6906.00,0.90
6905.00,0.90
6904.00,0.90
6903.00,0.90
6902.00,0.90
6901.00,0.90
6900.00,0.89
6899.00,0.89
6898.00,0.89
6897.00,0.89
6896.00,0.89
6895.00,0.89
6894.00,0.89
6893.00,0.89
6892.00,0.89
6891.00,0.89
6890.00,0.89
6889.00,0.89
6888.00,0.89
6887.00,0.89
6886.00,0.89
6885.00,0.89
6884.00,0.89
6883.00,0.90
6882.00,0.90
6881.00,0.90
6880.00,0.90
6879.00,0.90
6878.00,0.89
6877.00,0.89
6876.00,0.89
6875.00,0.89
6874.00,0.89
6873.00,0.89
6872.00,0.89
6871.00,0.89
6870.00,0.89
6869.00,0.89
6868.00,0.88
6867.00,0.88
6866.00,0.88
6865.00,0.88
6864.00,0.88
6863.00,0.88
6862.00,0.88
6861.00,0.88
6860.00,0.88
6859.00,0.88
6858.00,0.88
6857.00,0.88
6856.00,0.88
6855.00,0.88
6854.00,0.88
6853.00,0.88
6852.00,0.88
6851.00,0.88
6850.00,0.88
6849.00,0.88
6848.00,0.88
6847.00,0.88
6846.00,0.88
6845.00,0.88
6844.00,0.88
6843.00,0.88
6842.00,0.88
6841.00,0.88
6840.00,0.88
6839.00,0.88
6838.00,0.88
6837.00,0.88
6836.00,0.88
6835.00,0.88
6834.00,0.87
6833.00,0.87
6832.00,0.87
6831.00,0.87
6830.00,0.86
6829.00,0.86
6828.00,0.86
6827.00,0.86
6826.00,0.85
6825.00,0.85
6824.00,0.85
6823.00,0.85
6822.00,0.85
6821.00,0.85
6820.00,0.85
6819.00,0.85
6818.00,0.85
6817.00,0.85
6816.00,0.85
6815.00,0.85
6814.00,0.85
6813.00,0.86
6812.00,0.86
6811.00,0.86
6810.00,0.86
6809.00,0.86
6808.00,0.87
6807.00,0.87
6806.00,0.87
6805.00,0.87
6804.00,0.88
6803.00,0.88
6802.00,0.88
6801.00,0.89
6800.00,0.89
6799.00,0.89
6798.00,0.89
6797.00,0.90
6796.00,0.90
6795.00,0.90
6794.00,0.90
6793.00,0.90
6792.00,0.90
6791.00,0.90
6790.00,0.90
6789.00,0.90
6788.00,0.90
6787.00,0.90
6786.00,0.90
6785.00,0.90
6784.00,0.90
6783.00,0.90
6782.00,0.90
6781.00,0.90
6780.00,0.90
6779.00,0.90
6778.00,0.90
6777.00,0.90
6776.00,0.90
6775.00,0.90
6774.00,0.90
6773.00,0.89
6772.00,0.89
6771.00,0.89
6770.00,0.89
6769.00,0.89
6768.00,0.89
6767.00,0.89
6766.00,0.89
6765.00,0.89
6764.00,0.89
6763.00,0.89
6762.00,0.89
6761.00,0.89
6760.00,0.89
6759.00,0.89
6758.00,0.89
6757.00,0.89
6756.00,0.89
6755.00,0.90
6754.00,0.90
6753.00,0.90
6752.00,0.90
6751.00,0.90
6750.00,0.90
6749.00,0.90
6748.00,0.90
6747.00,0.90
6746.00,0.90
6745.00,0.90
6744.00,0.91
6743.00,0.91
6742.00,0.91
6741.00,0.91
6740.00,0.91
6739.00,0.92
6738.00,0.92
6737.00,0.92
6736.00,0.92
6735.00,0.93
6734.00,0.93
6733.00,0.93
6732.00,0.94
6731.00,0.94
6730.00,0.94
6729.00,0.94
6728.00,0.95
6727.00,0.95
6726.00,0.95
6725.00,0.95
6724.00,0.96
6723.00,0.96
6722.00,0.96
6721.00,0.96
6720.00,0.97
6719.00,0.97
6718.00,0.97
6717.00,0.97
6716.00,0.98
6715.00,0.98
6714.00,0.98
6713.00,0.98
6712.00,0.98
6711.00,0.98
6710.00,0.98
6709.00,0.98
6708.00,0.98
6707.00,0.98
6706.00,0.98
6705.00,0.98
6704.00,0.98
6703.00,0.98
6702.00,0.98
6701.00,0.98
6700.00,0.98
6699.00,0.98
6698.00,0.98
6697.00,0.98
6696.00,0.98
6695.00,0.98
6694.00,0.98
6693.00,0.98
6692.00,0.98
6691.00,0.98
6690.00,0.98
6689.00,0.99
6688.00,0.99
6687.00,0.99
6686.00,0.99
6685.00,0.99
6684.00,0.99
6683.00,0.99
6682.00,1.00
6681.00,1.00
6680.00,1.00
6679.00,1.00
6678.00,1.00
6677.00,1.00
6676.00,1.01
6675.00,1.01
6674.00,1.01
6673.00,1.01
6672.00,1.01
6671.00,1.01
6670.00,1.02
6669.00,1.02
6668.00,1.02
6667.00,1.02
6666.00,1.02
6665.00,1.02
6664.00,1.02
6663.00,1.02
6662.00,1.02
6661.00,1.02
6660.00,1.02
6659.00,1.02
6658.00,1.02
6657.00,1.02
6656.00,1.02
6655.00,1.03
6654.00,1.03
6653.00,1.03
6652.00,1.03
6651.00,1.03
6650.00,1.03
6649.00,1.03
6648.00,1.03
6647.00,1.03
6646.00,1.03
6645.00,1.04
6644.00,1.04
6643.00,1.04
6642.00,1.04
6641.00,1.04
6640.00,1.04
6639.00,1.05
6638.00,1.05
6637.00,1.05
6636.00,1.05
6635.00,1.05
6634.00,1.06
6633.00,1.06
6632.00,1.06
6631.00,1.06
6630.00,1.07
6629.00,1.07
6628.00,1.07
6627.00,1.07
6626.00,1.07
6625.00,1.08
6624.00,1.08
6623.00,1.08
6622.00,1.08
6621.00,1.09
6620.00,1.09
6619.00,1.09
6618.00,1.10
6617.00,1.10
6616.00,1.10
6615.00,1.10
6614.00,1.11
6613.00,1.11
6612.00,1.11
6611.00,1.11
6610.00,1.12
6609.00,1.12
6608.00,1.12
6607.00,1.12
6606.00,1.13
6605.00,1.13
6604.00,1.13
6603.00,1.13
6602.00,1.13
6601.00,1.13
6600.00,1.13
6599.00,1.13
6598.00,1.13
6597.00,1.13
6596.00,1.12
6595.00,1.12
6594.00,1.12
6593.00,1.12
6592.00,1.12
6591.00,1.12
6590.00,1.12
6589.00,1.11
6588.00,1.11
6587.00,1.11
6586.00,1.11
6585.00,1.11
6584.00,1.11
6583.00,1.11
6582.00,1.11
6581.00,1.10
6580.00,1.10
6579.00,1.10
6578.00,1.10
6577.00,1.11
6576.00,1.11
6575.00,1.11
6574.00,1.11
6573.00,1.11
6572.00,1.12
6571.00,1.12
6570.00,1.12
6569.00,1.13
6568.00,1.13
6567.00,1.13
6566.00,1.14
6565.00,1.14
6564.00,1.14
6563.00,1.15
6562.00,1.15
6561.00,1.15
6560.00,1.16
6559.00,1.16
6558.00,1.16
6557.00,1.16
6556.00,1.17
6555.00,1.17
6554.00,1.17
6553.00,1.18
6552.00,1.18
6551.00,1.18
6550.00,1.18
6549.00,1.19
6548.00,1.19
6547.00,1.19
6546.00,1.19
6545.00,1.19
6544.00,1.19
6543.00,1.19
6542.00,1.19
6541.00,1.19
6540.00,1.19
6539.00,1.19
6538.00,1.19
6537.00,1.19
6536.00,1.18
6535.00,1.18
6534.00,1.18
6533.00,1.18
6532.00,1.18
6531.00,1.18
6530.00,1.18
6529.00,1.18
6528.00,1.18
6527.00,1.17
6526.00,1.17
6525.00,1.17
6524.00,1.17
6523.00,1.17
6522.00,1.17
6521.00,1.17
6520.00,1.16
6519.00,1.16
6518.00,1.16
6517.00,1.16
6516.00,1.16
6515.00,1.16
6514.00,1.16
6513.00,1.16
6512.00,1.16
6511.00,1.16
6510.00,1.16
6509.00,1.16
6508.00,1.17
6507.00,1.17
6506.00,1.17
6505.00,1.17
6504.00,1.17
6503.00,1.17
6502.00,1.18
6501.00,1.18
6500.00,1.18
6499.00,1.18
6498.00,1.19
6497.00,1.19
6496.00,1.19
6495.00,1.20
6494.00,1.20
6493.00,1.20
6492.00,1.21
6491.00,1.21
6490.00,1.22
6489.00,1.22
6488.00,1.22
6487.00,1.23
6486.00,1.23
6485.00,1.23
6484.00,1.23
6483.00,1.23
6482.00,1.24
6481.00,1.24
6480.00,1.24
6479.00,1.24
6478.00,1.24
6477.00,1.25
6476.00,1.25
6475.00,1.25
6474.00,1.25
6473.00,1.25
6472.00,1.25
6471.00,1.25
6470.00,1.25
6469.00,1.25
6468.00,1.25
6467.00,1.25
6466.00,1.24
6465.00,1.24
6464.00,1.24
6463.00,1.24
6462.00,1.24
6461.00,1.24
6460.00,1.24
6459.00,1.24
6458.00,1.24
6457.00,1.24
6456.00,1.24
6455.00,1.24
6454.00,1.24
6453.00,1.24
6452.00,1.24
6451.00,1.24
6450.00,1.24
6449.00,1.24
6448.00,1.24
6447.00,1.25
6446.00,1.25
6445.00,1.25
6444.00,1.25
6443.00,1.25
6442.00,1.26
6441.00,1.26
6440.00,1.26
6439.00,1.26
6438.00,1.26
6437.00,1.26
6436.00,1.27
6435.00,1.27
6434.00,1.27
6433.00,1.27
6432.00,1.27
6431.00,1.27
6430.00,1.28
6429.00,1.28
6428.00,1.28
6427.00,1.28
6426.00,1.28
6425.00,1.28
6424.00,1.28
6423.00,1.28
6422.00,1.28
6421.00,1.28
6420.00,1.28
6419.00,1.28
6418.00,1.28
6417.00,1.28
6416.00,1.28
6415.00,1.28
6414.00,1.28
6413.00,1.28
6412.00,1.29
6411.00,1.29
6410.00,1.29
6409.00,1.29
6408.00,1.29
6407.00,1.29
6406.00,1.29
6405.00,1.29
6404.00,1.29
6403.00,1.29
6402.00,1.29
6401.00,1.29
6400.00,1.29
6399.00,1.29
6398.00,1.29
6397.00,1.30
6396.00,1.30
6395.00,1.30
6394.00,1.30
6393.00,1.30
6392.00,1.30
6391.00,1.30
6390.00,1.30
6389.00,1.30
6388.00,1.31
6387.00,1.31
6386.00,1.31
6385.00,1.31
6384.00,1.31
6383.00,1.31
6382.00,1.31
6381.00,1.32
6380.00,1.32
6379.00,1.32
6378.00,1.32
6377.00,1.33
6376.00,1.33
6375.00,1.33
6374.00,1.33
6373.00,1.34
6372.00,1.34
6371.00,1.34
6370.00,1.35
6369.00,1.35
6368.00,1.35
6367.00,1.36
6366.00,1.36
6365.00,1.36
6364.00,1.36
6363.00,1.37
6362.00,1.37
6361.00,1.37
6360.00,1.37
6359.00,1.37
6358.00,1.37
6357.00,1.37
6356.00,1.37
6355.00,1.37
6354.00,1.37
6353.00,1.37
6352.00,1.37
6351.00,1.37
6350.00,1.37
6349.00,1.37
6348.00,1.37
6347.00,1.36
6346.00,1.36
6345.00,1.36
6344.00,1.36
6343.00,1.36
6342.00,1.35
6341.00,1.35
6340.00,1.35
6339.00,1.35
6338.00,1.35
6337.00,1.34
6336.00,1.34
6335.00,1.34
6334.00,1.34
6333.00,1.34
6332.00,1.33
6331.00,1.33
6330.00,1.33
6329.00,1.33
6328.00,1.33
6327.00,1.33
6326.00,1.33
6325.00,1.33
6324.00,1.33
6323.00,1.34
6322.00,1.34
6321.00,1.34
6320.00,1.34
6319.00,1.34
6318.00,1.34
6317.00,1.34
6316.00,1.34
6315.00,1.35
6314.00,1.35
6313.00,1.35
6312.00,1.35
6311.00,1.35
6310.00,1.35
6309.00,1.35
6308.00,1.36
6307.00,1.36
6306.00,1.36
6305.00,1.36
6304.00,1.36
6303.00,1.36
6302.00,1.37
6301.00,1.37
6300.00,1.37
6299.00,1.37
6298.00,1.37
6297.00,1.37
6296.00,1.37
6295.00,1.37
6294.00,1.37
6293.00,1.37
6292.00,1.38
6291.00,1.38
6290.00,1.38
6289.00,1.38
6288.00,1.38
6287.00,1.39
6286.00,1.39
6285.00,1.39
6284.00,1.39
6283.00,1.39
6282.00,1.40
6281.00,1.40
6280.00,1.40
6279.00,1.40
6278.00,1.40
6277.00,1.40
6276.00,1.41
6275.00,1.41
6274.00,1.41
6273.00,1.41
6272.00,1.41
6271.00,1.42
6270.00,1.42
6269.00,1.42
6268.00,1.42
6267.00,1.42
6266.00,1.42
6265.00,1.42
6264.00,1.42
6263.00,1.42
6262.00,1.42
6261.00,1.42
6260.00,1.42
6259.00,1.42
6258.00,1.42
6257.00,1.42
6256.00,1.42
6255.00,1.42
6254.00,1.42
6253.00,1.42
6252.00,1.42
6251.00,1.42
6250.00,1.42
6249.00,1.42
6248.00,1.42
6247.00,1.42
6246.00,1.42
6245.00,1.42
6244.00,1.42
6243.00,1.42
6242.00,1.42
6241.00,1.42
6240.00,1.43
6239.00,1.43
6238.00,1.43
6237.00,1.43
6236.00,1.43
6235.00,1.43
6234.00,1.44
6233.00,1.44
6232.00,1.44
6231.00,1.44
6230.00,1.44
6229.00,1.44
6228.00,1.45
6227.00,1.45
6226.00,1.45
6225.00,1.45
6224.00,1.45
6223.00,1.45
6222.00,1.45
6221.00,1.46
6220.00,1.46
6219.00,1.46
6218.00,1.46
6217.00,1.46
6216.00,1.46
6215.00,1.46
6214.00,1.47
6213.00,1.47
6212.00,1.47
6211.00,1.47
6210.00,1.47
6209.00,1.47
6208.00,1.48
6207.00,1.48
6206.00,1.48
6205.00,1.48
6204.00,1.48
6203.00,1.49
6202.00,1.49
6201.00,1.49
6200.00,1.49
6199.00,1.49
6198.00,1.49
6197.00,1.50
6196.00,1.50
6195.00,1.50
6194.00,1.50
6193.00,1.50
6192.00,1.50
6191.00,1.50
6190.00,1.50
6189.00,1.50
6188.00,1.50
6187.00,1.50
6186.00,1.50
6185.00,1.50
6184.00,1.50
6183.00,1.50
6182.00,1.50
6181.00,1.50
6180.00,1.50
6179.00,1.50
6178.00,1.50
6177.00,1.50
6176.00,1.50
6175.00,1.50
6174.00,1.50
6173.00,1.50
6172.00,1.50
6171.00,1.50
6170.00,1.50
6169.00,1.51
6168.00,1.51
6167.00,1.51
6166.00,1.51
6165.00,1.51
6164.00,1.51
6163.00,1.51
6162.00,1.51
6161.00,1.52
6160.00,1.52
6159.00,1.52
6158.00,1.52
6157.00,1.52
6156.00,1.52
6155.00,1.52
6154.00,1.53
6153.00,1.53
6152.00,1.53
6151.00,1.53
6150.00,1.54
6149.00,1.54
6148.00,1.54
6147.00,1.54
6146.00,1.54
6145.00,1.55
6144.00,1.55
6143.00,1.55
6142.00,1.55
6141.00,1.55
6140.00,1.56
6139.00,1.56
6138.00,1.56
6137.00,1.56
6136.00,1.57
6135.00,1.57
6134.00,1.57
6133.00,1.57
6132.00,1.57
6131.00,1.58
6130.00,1.58
6129.00,1.58
6128.00,1.58
6127.00,1.58
6126.00,1.59
6125.00,1.59
6124.00,1.59
6123.00,1.59
6122.00,1.59
6121.00,1.59
6120.00,1.59
6119.00,1.60
6118.00,1.60
6117.00,1.60
6116.00,1.60
6115.00,1.60
6114.00,1.60
6113.00,1.60
6112.00,1.60
6111.00,1.60
6110.00,1.60
6109.00,1.60
6108.00,1.60
6107.00,1.60
6106.00,1.60
6105.00,1.60
6104.00,1.60
6103.00,1.61
6102.00,1.61
6101.00,1.61
6100.00,1.61
6099.00,1.61
6098.00,1.61
6097.00,1.61
6096.00,1.61
6095.00,1.61
6094.00,1.61
6093.00,1.61
6092.00,1.61
6091.00,1.61
6090.00,1.61
6089.00,1.61
6088.00,1.61
6087.00,1.62
6086.00,1.62
6085.00,1.62
6084.00,1.62
6083.00,1.62
6082.00,1.62
6081.00,1.62
6080.00,1.62
6079.00,1.62
6078.00,1.62
6077.00,1.62
6076.00,1.62
6075.00,1.62
6074.00,1.62
6073.00,1.62
6072.00,1.63
6071.00,1.63
6070.00,1.63
6069.00,1.63
6068.00,1.63
6067.00,1.63
6066.00,1.63
6065.00,1.64
6064.00,1.64
6063.00,1.64
6062.00,1.64
6061.00,1.64
6060.00,1.64
6059.00,1.64
6058.00,1.65
6057.00,1.65
6056.00,1.65
6055.00,1.65
6054.00,1.65
6053.00,1.66
6052.00,1.66
6051.00,1.66
6050.00,1.66
6049.00,1.66
6048.00,1.66
6047.00,1.66
6046.00,1.67
6045.00,1.67
6044.00,1.67
6043.00,1.67
6042.00,1.67
6041.00,1.67
6040.00,1.67
6039.00,1.67
6038.00,1.67
6037.00,1.67
6036.00,1.67
6035.00,1.67
6034.00,1.67
6033.00,1.67
6032.00,1.67
6031.00,1.67
6030.00,1.67
6029.00,1.67
6028.00,1.67
6027.00,1.67
6026.00,1.67
6025.00,1.67
6024.00,1.67
6023.00,1.67
6022.00,1.67
6021.00,1.67
6020.00,1.67
6019.00,1.67
6018.00,1.67
6017.00,1.67
6016.00,1.66
6015.00,1.66
6014.00,1.66
6013.00,1.66
6012.00,1.66
6011.00,1.66
6010.00,1.66
6009.00,1.66
6008.00,1.66
6007.00,1.66
6006.00,1.66
6005.00,1.66
6004.00,1.65
6003.00,1.65
6002.00,1.65
6001.00,1.65
6000.00,1.65
5999.00,1.65
5998.00,1.65
5997.00,1.65
5996.00,1.65
5995.00,1.65
5994.00,1.65
5993.00,1.65
5992.00,1.64
5991.00,1.64
5990.00,1.64
5989.00,1.64
5988.00,1.64
5987.00,1.64
5986.00,1.64
5985.00,1.63
5984.00,1.63
5983.00,1.63
5982.00,1.63
5981.00,1.63
5980.00,1.62
5979.00,1.62
5978.00,1.62
5977.00,1.62
5976.00,1.61
5975.00,1.61
5974.00,1.61
5973.00,1.60
5972.00,1.60
5971.00,1.60
5970.00,1.59
5969.00,1.59
5968.00,1.59
5967.00,1.59
5966.00,1.58
5965.00,1.58
5964.00,1.58
5963.00,1.57
5962.00,1.57
5961.00,1.56
5960.00,1.56
5959.00,1.56
5958.00,1.55
5957.00,1.55
5956.00,1.54
5955.00,1.54
5954.00,1.54
5953.00,1.53
5952.00,1.53
5951.00,1.53
5950.00,1.52
5949.00,1.52
5948.00,1.51
5947.00,1.51
5946.00,1.51
5945.00,1.51
5944.00,1.50
5943.00,1.50
5942.00,1.50
5941.00,1.50
5940.00,1.49
5939.00,1.49
5938.00,1.49
5937.00,1.49
5936.00,1.49
5935.00,1.49
5934.00,1.49
5933.00,1.49
5932.00,1.49
5931.00,1.49
5930.00,1.49
5929.00,1.49
5928.00,1.49
5927.00,1.49
5926.00,1.49
5925.00,1.49
5924.00,1.49
5923.00,1.49
5922.00,1.49
5921.00,1.49
5920.00,1.49
5919.00,1.49
5918.00,1.49
5917.00,1.49
5916.00,1.49
5915.00,1.49
5914.00,1.49
5913.00,1.49
5912.00,1.49
5911.00,1.49
5910.00,1.49
5909.00,1.49
5908.00,1.48
5907.00,1.48
5906.00,1.48
5905.00,1.48
5904.00,1.48
5903.00,1.48
5902.00,1.48
5901.00,1.48
5900.00,1.48
5899.00,1.48
5898.00,1.48
5897.00,1.48
5896.00,1.48
5895.00,1.48
5894.00,1.48
5893.00,1.48
5892.00,1.48
5891.00,1.48
5890.00,1.48
5889.00,1.48
5888.00,1.48
5887.00,1.49
5886.00,1.49
5885.00,1.49
5884.00,1.49
5883.00,1.49
5882.00,1.49
5881.00,1.49
5880.00,1.50
5879.00,1.50
5878.00,1.50
5877.00,1.50
5876.00,1.50
5875.00,1.51
5874.00,1.51
5873.00,1.51
5872.00,1.51
5871.00,1.51
5870.00,1.52
5869.00,1.52
5868.00,1.52
5867.00,1.52
5866.00,1.52
5865.00,1.52
5864.00,1.52
5863.00,1.52
5862.00,1.52
5861.00,1.53
5860.00,1.53
5859.00,1.53
5858.00,1.53
5857.00,1.53
5856.00,1.53
5855.00,1.53
5854.00,1.53
5853.00,1.53
5852.00,1.53
5851.00,1.53
5850.00,1.53
5849.00,1.53
5848.00,1.52
5847.00,1.52
5846.00,1.52
5845.00,1.52
5844.00,1.52
5843.00,1.52
5842.00,1.52
5841.00,1.52
5840.00,1.52
5839.00,1.52
5838.00,1.52
5837.00,1.52
5836.00,1.52
5835.00,1.52
5834.00,1.52
5833.00,1.52
5832.00,1.52
5831.00,1.52
5830.00,1.52
5829.00,1.52
5828.00,1.52
5827.00,1.52
5826.00,1.52
5825.00,1.52
5824.00,1.52
5823.00,1.52
5822.00,1.53
5821.00,1.53
5820.00,1.53
5819.00,1.53
5818.00,1.53
5817.00,1.53
5816.00,1.53
5815.00,1.53
5814.00,1.53
5813.00,1.53
5812.00,1.53
5811.00,1.53
5810.00,1.53
5809.00,1.53
5808.00,1.52
5807.00,1.52
5806.00,1.52
5805.00,1.52
5804.00,1.52
5803.00,1.52
5802.00,1.52
5801.00,1.52
5800.00,1.51
5799.00,1.51
5798.00,1.51
5797.00,1.51
5796.00,1.51
5795.00,1.50
5794.00,1.50
5793.00,1.50
5792.00,1.50
5791.00,1.50
5790.00,1.49
5789.00,1.49
5788.00,1.49
5787.00,1.49
5786.00,1.48
5785.00,1.48
5784.00,1.48
5783.00,1.48
5782.00,1.47
5781.00,1.47
5780.00,1.47
5779.00,1.47
5778.00,1.47
5777.00,1.47
5776.00,1.47
5775.00,1.47
5774.00,1.47
5773.00,1.47
5772.00,1.47
5771.00,1.47
5770.00,1.47
5769.00,1.47
5768.00,1.47
5767.00,1.47
5766.00,1.47
5765.00,1.48
5764.00,1.48
5763.00,1.48
5762.00,1.48
5761.00,1.49
5760.00,1.49
5759.00,1.49
5758.00,1.49
5757.00,1.50
5756.00,1.50
5755.00,1.50
5754.00,1.50
5753.00,1.51
5752.00,1.51
5751.00,1.51
5750.00,1.51
5749.00,1.51
5748.00,1.52
5747.00,1.52
5746.00,1.52
5745.00,1.52
5744.00,1.52
5743.00,1.52
5742.00,1.52
5741.00,1.52
5740.00,1.52
5739.00,1.53
5738.00,1.53
5737.00,1.53
5736.00,1.53
5735.00,1.53
5734.00,1.53
5733.00,1.53
5732.00,1.53
5731.00,1.53
5730.00,1.54
5729.00,1.54
5728.00,1.54
5727.00,1.54
5726.00,1.54
5725.00,1.54
5724.00,1.54
5723.00,1.55
5722.00,1.55
5721.00,1.55
5720.00,1.55
5719.00,1.55
5718.00,1.55
5717.00,1.56
5716.00,1.56
5715.00,1.56
5714.00,1.56
5713.00,1.56
5712.00,1.56
5711.00,1.56
5710.00,1.56
5709.00,1.56
5708.00,1.56
5707.00,1.56
5706.00,1.56
5705.00,1.56
5704.00,1.56
5703.00,1.56
5702.00,1.56
5701.00,1.56
5700.00,1.56
5699.00,1.56
5698.00,1.56
5697.00,1.56
5696.00,1.55
5695.00,1.55
5694.00,1.55
5693.00,1.55
5692.00,1.55
5691.00,1.55
5690.00,1.54
5689.00,1.54
5688.00,1.54
5687.00,1.54
5686.00,1.53
5685.00,1.53
5684.00,1.53
5683.00,1.53
5682.00,1.53
5681.00,1.52
5680.00,1.52
5679.00,1.52
5678.00,1.52
5677.00,1.52
5676.00,1.51
5675.00,1.51
5674.00,1.51
5673.00,1.51
5672.00,1.51
5671.00,1.51
5670.00,1.51
5669.00,1.51
5668.00,1.51
5667.00,1.51
5666.00,1.50
5665.00,1.50
5664.00,1.50
5663.00,1.50
5662.00,1.50
5661.00,1.50
5660.00,1.50
5659.00,1.51
5658.00,1.51
5657.00,1.51
5656.00,1.51
5655.00,1.51
5654.00,1.51
5653.00,1.51
5652.00,1.51
5651.00,1.52
5650.00,1.52
5649.00,1.52
5648.00,1.52
5647.00,1.52
5646.00,1.52
5645.00,1.52
5644.00,1.52
5643.00,1.53
5642.00,1.53
5641.00,1.53
5640.00,1.53
5639.00,1.53
5638.00,1.53
5637.00,1.53
5636.00,1.54
5635.00,1.54
5634.00,1.54
5633.00,1.54
5632.00,1.54
5631.00,1.54
5630.00,1.54
5629.00,1.54
5628.00,1.54
5627.00,1.55
5626.00,1.55
5625.00,1.55
5624.00,1.55
5623.00,1.55
5622.00,1.55
5621.00,1.55
5620.00,1.55
5619.00,1.55
5618.00,1.56
5617.00,1.56
5616.00,1.56
5615.00,1.56
5614.00,1.56
5613.00,1.57
5612.00,1.57
5611.00,1.57
5610.00,1.58
5609.00,1.58
5608.00,1.58
5607.00,1.58
5606.00,1.58
5605.00,1.59
5604.00,1.59
5603.00,1.59
5602.00,1.59
5601.00,1.60
5600.00,1.60
5599.00,1.60
5598.00,1.60
5597.00,1.60
5596.00,1.61
5595.00,1.61
5594.00,1.61
5593.00,1.61
5592.00,1.61
5591.00,1.62
5590.00,1.62
5589.00,1.62
5588.00,1.62
5587.00,1.62
5586.00,1.62
5585.00,1.62
5584.00,1.62
5583.00,1.62
5582.00,1.62
5581.00,1.62
5580.00,1.63
5579.00,1.63
5578.00,1.63
5577.00,1.63
5576.00,1.63
5575.00,1.63
5574.00,1.63
5573.00,1.63
5572.00,1.63
5571.00,1.63
5570.00,1.63
5569.00,1.63
5568.00,1.63
5567.00,1.63
5566.00,1.63
5565.00,1.63
5564.00,1.63
5563.00,1.63
5562.00,1.63
5561.00,1.63
5560.00,1.63
5559.00,1.63
5558.00,1.63
5557.00,1.63
5556.00,1.63
5555.00,1.63
5554.00,1.63
5553.00,1.63
5552.00,1.63
5551.00,1.63
5550.00,1.63
5549.00,1.63
5548.00,1.63
5547.00,1.63
5546.00,1.63
5545.00,1.63
5544.00,1.63
5543.00,1.63
5542.00,1.63
5541.00,1.63
5540.00,1.63
5539.00,1.63
5538.00,1.63
5537.00,1.63
5536.00,1.64
5535.00,1.64
5534.00,1.64
5533.00,1.64
5532.00,1.64
5531.00,1.64
5530.00,1.64
5529.00,1.64
5528.00,1.65
5527.00,1.65
5526.00,1.65
5525.00,1.65
5524.00,1.65
5523.00,1.65
5522.00,1.65
5521.00,1.65
5520.00,1.66
5519.00,1.66
5518.00,1.66
5517.00,1.66
5516.00,1.66
5515.00,1.66
5514.00,1.66
5513.00,1.67
5512.00,1.67
5511.00,1.67
5510.00,1.67
5509.00,1.67
5508.00,1.68
5507.00,1.68
5506.00,1.68
5505.00,1.68
5504.00,1.68
5503.00,1.69
5502.00,1.69
5501.00,1.69
5500.00,1.69
5499.00,1.70
5498.00,1.70
5497.00,1.70
5496.00,1.70
5495.00,1.71
5494.00,1.71
5493.00,1.71
5492.00,1.71
5491.00,1.71
5490.00,1.72
5489.00,1.72
5488.00,1.72
5487.00,1.72
5486.00,1.72
5485.00,1.72
5484.00,1.72
5483.00,1.73
5482.00,1.73
5481.00,1.73
5480.00,1.73
5479.00,1.73
5478.00,1.73
5477.00,1.73
5476.00,1.73
5475.00,1.73
5474.00,1.73
5473.00,1.73
5472.00,1.73
5471.00,1.73
5470.00,1.73
5469.00,1.73
5468.00,1.73
5467.00,1.74
5466.00,1.74
5465.00,1.74
5464.00,1.74
5463.00,1.74
5462.00,1.74
5461.00,1.74
5460.00,1.75
5459.00,1.75
5458.00,1.75
5457.00,1.75
5456.00,1.75
5455.00,1.75
5454.00,1.76
5453.00,1.76
5452.00,1.76
5451.00,1.76
5450.00,1.76
5449.00,1.77
5448.00,1.77
5447.00,1.77
5446.00,1.77
5445.00,1.77
5444.00,1.77
5443.00,1.77
5442.00,1.78
5441.00,1.78
5440.00,1.78
5439.00,1.78
5438.00,1.78
5437.00,1.78
5436.00,1.78
5435.00,1.78
5434.00,1.78
5433.00,1.78
5432.00,1.78
5431.00,1.78
5430.00,1.77
5429.00,1.77
5428.00,1.77
5427.00,1.77
5426.00,1.77
5425.00,1.77
5424.00,1.76
5423.00,1.76
5422.00,1.76
5421.00,1.76
5420.00,1.76
5419.00,1.76
5418.00,1.76
5417.00,1.76
5416.00,1.76
5415.00,1.76
5414.00,1.76
5413.00,1.75
5412.00,1.75
5411.00,1.75
5410.00,1.75
5409.00,1.75
5408.00,1.75
5407.00,1.75
5406.00,1.75
5405.00,1.75
5404.00,1.75
5403.00,1.75
5402.00,1.75
5401.00,1.75
5400.00,1.76
5399.00,1.76
5398.00,1.76
5397.00,1.76
5396.00,1.76
5395.00,1.76
5394.00,1.76
5393.00,1.76
5392.00,1.76
5391.00,1.75
5390.00,1.75
5389.00,1.75
5388.00,1.75
5387.00,1.75
5386.00,1.75
5385.00,1.74
5384.00,1.74
5383.00,1.74
5382.00,1.74
5381.00,1.74
5380.00,1.74
5379.00,1.73
5378.00,1.73
5377.00,1.73
5376.00,1.72
5375.00,1.72
5374.00,1.72
5373.00,1.71
5372.00,1.71
5371.00,1.70
5370.00,1.70
5369.00,1.69
5368.00,1.69
5367.00,1.68
5366.00,1.68
5365.00,1.67
5364.00,1.67
5363.00,1.66
5362.00,1.66
5361.00,1.65
5360.00,1.65
5359.00,1.64
5358.00,1.63
5357.00,1.63
5356.00,1.62
5355.00,1.61
5354.00,1.61
5353.00,1.60
5352.00,1.59
5351.00,1.58
5350.00,1.57
5349.00,1.57
5348.00,1.56
5347.00,1.55
5346.00,1.54
5345.00,1.53
5344.00,1.52
5343.00,1.51
5342.00,1.50
5341.00,1.49
5340.00,1.48
5339.00,1.47
5338.00,1.46
5337.00,1.44
5336.00,1.43
5335.00,1.42
5334.00,1.41
5333.00,1.40
5332.00,1.38
5331.00,1.37
5330.00,1.36
5329.00,1.34
5328.00,1.33
5327.00,1.31
5326.00,1.30
5325.00,1.28
5324.00,1.27
5323.00,1.25
5322.00,1.24
5321.00,1.22
5320.00,1.21
5319.00,1.19
5318.00,1.18
5317.00,1.17
5316.00,1.15
5315.00,1.14
5314.00,1.12
5313.00,1.11
5312.00,1.09
5311.00,1.08
5310.00,1.07
5309.00,1.05
5308.00,1.04
5307.00,1.03
5306.00,1.02
5305.00,1.00
5304.00,0.99
5303.00,0.98
5302.00,0.97
5301.00,0.96
5300.00,0.95
5299.00,0.94
5298.00,0.93
5297.00,0.92
5296.00,0.91
5295.00,0.90
5294.00,0.89
5293.00,0.88
5292.00,0.87
5291.00,0.87
5290.00,0.86
5289.00,0.85
5288.00,0.85
5287.00,0.84
5286.00,0.83
5285.00,0.82
5284.00,0.82
5283.00,0.81
5282.00,0.81
5281.00,0.80
5280.00,0.79
5279.00,0.79
5278.00,0.78
5277.00,0.78
5276.00,0.77
5275.00,0.77
5274.00,0.76
5273.00,0.76
5272.00,0.75
5271.00,0.75
5270.00,0.74
5269.00,0.74
5268.00,0.74
5267.00,0.73
5266.00,0.73
5265.00,0.72
5264.00,0.72
5263.00,0.71
5262.00,0.71
5261.00,0.71
5260.00,0.70
5259.00,0.70
5258.00,0.70
5257.00,0.69
5256.00,0.69
5255.00,0.69
5254.00,0.68
5253.00,0.68
5252.00,0.68
5251.00,0.68
5250.00,0.67
5249.00,0.67
5248.00,0.67
5247.00,0.67
5246.00,0.67
5245.00,0.66
5244.00,0.66
5243.00,0.66
5242.00,0.66
5241.00,0.66
5240.00,0.66
5239.00,0.66
5238.00,0.65
5237.00,0.65
5236.00,0.65
5235.00,0.65
5234.00,0.65
5233.00,0.65
5232.00,0.65
5231.00,0.65
5230.00,0.65
5229.00,0.65
5228.00,0.65
5227.00,0.65
5226.00,0.65
5225.00,0.65
5224.00,0.65
5223.00,0.64
5222.00,0.64
5221.00,0.64
5220.00,0.64
5219.00,0.64
5218.00,0.64
5217.00,0.64
5216.00,0.64
5215.00,0.64
5214.00,0.64
5213.00,0.64
5212.00,0.64
5211.00,0.64
5210.00,0.64
5209.00,0.64
5208.00,0.64
5207.00,0.64
5206.00,0.64
5205.00,0.64
5204.00,0.63
5203.00,0.63
5202.00,0.63
5201.00,0.63
5200.00,0.63
5199.00,0.63
5198.00,0.63
5197.00,0.63
5196.00,0.63
5195.00,0.63
5194.00,0.63
5193.00,0.63
5192.00,0.63
5191.00,0.63
5190.00,0.63
5189.00,0.63
5188.00,0.63
5187.00,0.63
5186.00,0.63
5185.00,0.63
5184.00,0.63
5183.00,0.63
5182.00,0.63
5181.00,0.63
5180.00,0.63
5179.00,0.63
5178.00,0.63
5177.00,0.63
5176.00,0.63
5175.00,0.63
5174.00,0.63
5173.00,0.63
5172.00,0.63
5171.00,0.63
5170.00,0.63
5169.00,0.63
5168.00,0.63
5167.00,0.63
5166.00,0.63
5165.00,0.63
5164.00,0.63
5163.00,0.63
5162.00,0.63
5161.00,0.63
5160.00,0.63
5159.00,0.63
5158.00,0.63
5157.00,0.63
5156.00,0.63
5155.00,0.63
5154.00,0.63
5153.00,0.63
5152.00,0.63
5151.00,0.63
5150.00,0.63
5149.00,0.63
5148.00,0.63
5147.00,0.63
5146.00,0.63
5145.00,0.63
5144.00,0.63
5143.00,0.63
5142.00,0.63
5141.00,0.63
5140.00,0.63
5139.00,0.63
5138.00,0.63
5137.00,0.63
5136.00,0.63
5135.00,0.63
5134.00,0.63
5133.00,0.63
5132.00,0.63
5131.00,0.63
5130.00,0.63
5129.00,0.63
5128.00,0.63
5127.00,0.63
5126.00,0.63
5125.00,0.63
5124.00,0.63
5123.00,0.63
5122.00,0.64
5121.00,0.64
5120.00,0.64
5119.00,0.64
5118.00,0.64
5117.00,0.64
5116.00,0.65
5115.00,0.65
5114.00,0.65
5113.00,0.65
5112.00,0.65
5111.00,0.65
5110.00,0.65
5109.00,0.65
5108.00,0.65
5107.00,0.65
5106.00,0.65
5105.00,0.65
5104.00,0.65
5103.00,0.65
5102.00,0.65
5101.00,0.65
5100.00,0.65
5099.00,0.65
5098.00,0.65
5097.00,0.65
5096.00,0.65
5095.00,0.65
5094.00,0.65
5093.00,0.66
5092.00,0.66
5091.00,0.66
5090.00,0.66
5089.00,0.66
5088.00,0.66
5087.00,0.66
5086.00,0.66
5085.00,0.66
5084.00,0.66
5083.00,0.66
5082.00,0.67
5081.00,0.67
5080.00,0.67
5079.00,0.67
5078.00,0.67
5077.00,0.68
5076.00,0.68
5075.00,0.68
5074.00,0.68
5073.00,0.69
5072.00,0.69
5071.00,0.69
5070.00,0.69
5069.00,0.70
5068.00,0.70
5067.00,0.70
5066.00,0.70
5065.00,0.70
5064.00,0.71
5063.00,0.71
5062.00,0.71
5061.00,0.71
5060.00,0.71
5059.00,0.72
5058.00,0.72
5057.00,0.72
5056.00,0.72
5055.00,0.73
5054.00,0.73
5053.00,0.73
5052.00,0.73
5051.00,0.73
5050.00,0.73
5049.00,0.74
5048.00,0.74
5047.00,0.74
5046.00,0.74
5045.00,0.74
5044.00,0.75
5043.00,0.75
5042.00,0.75
5041.00,0.75
5040.00,0.75
5039.00,0.76
5038.00,0.76
5037.00,0.76
5036.00,0.76
5035.00,0.77
5034.00,0.77
5033.00,0.77
5032.00,0.78
5031.00,0.78
5030.00,0.78
5029.00,0.78
5028.00,0.79
5027.00,0.79
5026.00,0.79
5025.00,0.80
5024.00,0.80
5023.00,0.80
5022.00,0.81
5021.00,0.81
5020.00,0.81
5019.00,0.82
5018.00,0.82
5017.00,0.82
5016.00,0.83
5015.00,0.83
5014.00,0.83
5013.00,0.84
5012.00,0.84
5011.00,0.84
5010.00,0.84
5009.00,0.84
5008.00,0.85
5007.00,0.85
5006.00,0.85
5005.00,0.85
5004.00,0.85
5003.00,0.85
5002.00,0.86
5001.00,0.86
5000.00,0.86
4999.00,0.86
4998.00,0.86
4997.00,0.86
4996.00,0.86
4995.00,0.86
4994.00,0.86
4993.00,0.86
4992.00,0.86
4991.00,0.87
4990.00,0.87
4989.00,0.87
4988.00,0.87
4987.00,0.87
4986.00,0.87
4985.00,0.87
4984.00,0.87
4983.00,0.87
4982.00,0.88
4981.00,0.88
4980.00,0.88
4979.00,0.88
4978.00,0.88
4977.00,0.88
4976.00,0.89
4975.00,0.89
4974.00,0.89
4973.00,0.89
4972.00,0.89
4971.00,0.90
4970.00,0.90
4969.00,0.90
4968.00,0.90
4967.00,0.91
4966.00,0.91
4965.00,0.91
4964.00,0.91
4963.00,0.92
4962.00,0.92
4961.00,0.92
4960.00,0.92
4959.00,0.93
4958.00,0.93
4957.00,0.93
4956.00,0.93
4955.00,0.94
4954.00,0.94
4953.00,0.94
4952.00,0.94
4951.00,0.94
4950.00,0.95
4949.00,0.95
4948.00,0.95
4947.00,0.95
4946.00,0.95
4945.00,0.96
4944.00,0.96
4943.00,0.96
4942.00,0.96
4941.00,0.96
4940.00,0.97
4939.00,0.97
4938.00,0.97
4937.00,0.97
4936.00,0.98
4935.00,0.98
4934.00,0.98
4933.00,0.98
4932.00,0.98
4931.00,0.99
4930.00,0.99
4929.00,0.99
4928.00,1.00
4927.00,1.00
4926.00,1.00
4925.00,1.01
4924.00,1.01
4923.00,1.01
4922.00,1.01
4921.00,1.02
4920.00,1.02
4919.00,1.02
4918.00,1.02
4917.00,1.03
4916.00,1.03
4915.00,1.03
4914.00,1.04
4913.00,1.04
4912.00,1.04
4911.00,1.05
4910.00,1.05
4909.00,1.05
4908.00,1.05
4907.00,1.06
4906.00,1.06
4905.00,1.06
4904.00,1.06
4903.00,1.07
4902.00,1.07
4901.00,1.07
4900.00,1.07
4899.00,1.07
4898.00,1.07
4897.00,1.07
4896.00,1.08
4895.00,1.08
4894.00,1.08
4893.00,1.08
4892.00,1.08
4891.00,1.08
4890.00,1.08
4889.00,1.08
4888.00,1.08
4887.00,1.08
4886.00,1.08
4885.00,1.08
4884.00,1.08
4883.00,1.08
4882.00,1.08
4881.00,1.08
4880.00,1.08
4879.00,1.08
4878.00,1.08
4877.00,1.08
4876.00,1.08
4875.00,1.08
4874.00,1.08
4873.00,1.08
4872.00,1.08
4871.00,1.08
4870.00,1.07
4869.00,1.07
4868.00,1.07
4867.00,1.07
4866.00,1.07
4865.00,1.07
4864.00,1.07
4863.00,1.07
4862.00,1.07
4861.00,1.07
4860.00,1.07
4859.00,1.07
4858.00,1.07
4857.00,1.07
4856.00,1.07
4855.00,1.07
4854.00,1.07
4853.00,1.07
4852.00,1.07
4851.00,1.07
4850.00,1.07
4849.00,1.08
4848.00,1.08
4847.00,1.08
4846.00,1.08
4845.00,1.09
4844.00,1.09
4843.00,1.09
4842.00,1.09
4841.00,1.10
4840.00,1.10
4839.00,1.10
4838.00,1.11
4837.00,1.11
4836.00,1.11
4835.00,1.11
4834.00,1.12
4833.00,1.12
4832.00,1.13
4831.00,1.13
4830.00,1.14
4829.00,1.14
4828.00,1.15
4827.00,1.15
4826.00,1.16
4825.00,1.16
4824.00,1.16
4823.00,1.17
4822.00,1.17
4821.00,1.18
4820.00,1.18
4819.00,1.18
4818.00,1.19
4817.00,1.19
4816.00,1.19
4815.00,1.19
4814.00,1.20
4813.00,1.20
4812.00,1.20
4811.00,1.21
4810.00,1.21
4809.00,1.21
4808.00,1.21
4807.00,1.21
4806.00,1.21
4805.00,1.22
4804.00,1.22
4803.00,1.22
4802.00,1.22
4801.00,1.22
4800.00,1.22
4799.00,1.22
4798.00,1.22
4797.00,1.21
4796.00,1.21
4795.00,1.21
4794.00,1.21
4793.00,1.21
4792.00,1.21
4791.00,1.21
4790.00,1.21
4789.00,1.21
4788.00,1.21
4787.00,1.21
4786.00,1.21
4785.00,1.22
4784.00,1.22
4783.00,1.22
4782.00,1.22
4781.00,1.22
4780.00,1.22
4779.00,1.22
4778.00,1.22
4777.00,1.23
4776.00,1.23
4775.00,1.23
4774.00,1.23
4773.00,1.24
4772.00,1.24
4771.00,1.24
4770.00,1.25
4769.00,1.25
4768.00,1.25
4767.00,1.26
4766.00,1.26
4765.00,1.26
4764.00,1.26
4763.00,1.27
4762.00,1.27
4761.00,1.28
4760.00,1.28
4759.00,1.29
4758.00,1.29
4757.00,1.29
4756.00,1.30
4755.00,1.30
4754.00,1.31
4753.00,1.31
4752.00,1.31
4751.00,1.32
4750.00,1.32
4749.00,1.33
4748.00,1.33
4747.00,1.34
4746.00,1.34
4745.00,1.35
4744.00,1.35
4743.00,1.36
4742.00,1.36
4741.00,1.37
4740.00,1.37
4739.00,1.38
4738.00,1.38
4737.00,1.39
4736.00,1.40
4735.00,1.40
4734.00,1.41
4733.00,1.41
4732.00,1.42
4731.00,1.42
4730.00,1.43
4729.00,1.43
4728.00,1.43
4727.00,1.44
4726.00,1.44
4725.00,1.45
4724.00,1.45
4723.00,1.45
4722.00,1.46
4721.00,1.46
4720.00,1.47
4719.00,1.47
4718.00,1.47
4717.00,1.48
4716.00,1.48
4715.00,1.48
4714.00,1.48
4713.00,1.49
4712.00,1.49
4711.00,1.49
4710.00,1.49
4709.00,1.49
4708.00,1.49
4707.00,1.49
4706.00,1.50
4705.00,1.50
4704.00,1.50
4703.00,1.50
4702.00,1.50
4701.00,1.51
4700.00,1.51
4699.00,1.51
4698.00,1.51
4697.00,1.52
4696.00,1.52
4695.00,1.52
4694.00,1.52
4693.00,1.52
4692.00,1.53
4691.00,1.53
4690.00,1.53
4689.00,1.53
4688.00,1.53
4687.00,1.53
4686.00,1.54
4685.00,1.54
4684.00,1.54
4683.00,1.54
4682.00,1.55
4681.00,1.55
4680.00,1.55
4679.00,1.55
4678.00,1.56
4677.00,1.56
4676.00,1.56
4675.00,1.57
4674.00,1.57
4673.00,1.57
4672.00,1.57
4671.00,1.57
4670.00,1.58
4669.00,1.58
4668.00,1.58
4667.00,1.58
4666.00,1.58
4665.00,1.58
4664.00,1.58
4663.00,1.58
4662.00,1.59
4661.00,1.59
4660.00,1.59
4659.00,1.59
4658.00,1.59
4657.00,1.59
4656.00,1.59
4655.00,1.59
4654.00,1.59
4653.00,1.59
4652.00,1.59
4651.00,1.59
4650.00,1.59
4649.00,1.59
4648.00,1.59
4647.00,1.59
4646.00,1.59
4645.00,1.59
4644.00,1.59
4643.00,1.59
4642.00,1.59
4641.00,1.59
4640.00,1.59
4639.00,1.59
4638.00,1.59
4637.00,1.60
4636.00,1.60
4635.00,1.60
4634.00,1.60
4633.00,1.60
4632.00,1.60
4631.00,1.61
4630.00,1.61
4629.00,1.61
4628.00,1.61
4627.00,1.61
4626.00,1.61
4625.00,1.61
4624.00,1.62
4623.00,1.62
4622.00,1.62
4621.00,1.62
4620.00,1.62
4619.00,1.62
4618.00,1.62
4617.00,1.63
4616.00,1.63
4615.00,1.63
4614.00,1.63
4613.00,1.64
4612.00,1.64
4611.00,1.64
4610.00,1.64
4609.00,1.65
4608.00,1.65
4607.00,1.65
4606.00,1.65
4605.00,1.65
4604.00,1.66
4603.00,1.66
4602.00,1.66
4601.00,1.66
4600.00,1.66
4599.00,1.66
4598.00,1.66
4597.00,1.67
4596.00,1.67
4595.00,1.67
4594.00,1.67
4593.00,1.67
4592.00,1.67
4591.00,1.67
4590.00,1.67
4589.00,1.67
4588.00,1.67
4587.00,1.67
4586.00,1.67
4585.00,1.66
4584.00,1.66
4583.00,1.66
4582.00,1.66
4581.00,1.66
4580.00,1.66
4579.00,1.66
4578.00,1.66
4577.00,1.66
4576.00,1.66
4575.00,1.66
4574.00,1.66
4573.00,1.66
4572.00,1.66
4571.00,1.66
4570.00,1.66
4569.00,1.66
4568.00,1.66
4567.00,1.66
4566.00,1.66
4565.00,1.67
4564.00,1.67
4563.00,1.67
4562.00,1.67
4561.00,1.67
4560.00,1.68
4559.00,1.68
4558.00,1.68
4557.00,1.68
4556.00,1.69
4555.00,1.69
4554.00,1.69
4553.00,1.70
4552.00,1.70
4551.00,1.70
4550.00,1.70
4549.00,1.71
4548.00,1.71
4547.00,1.71
4546.00,1.71
4545.00,1.71
4544.00,1.72
4543.00,1.72
4542.00,1.72
4541.00,1.72
4540.00,1.72
4539.00,1.72
4538.00,1.72
4537.00,1.72
4536.00,1.72
4535.00,1.72
4534.00,1.72
4533.00,1.73
4532.00,1.73
4531.00,1.73
4530.00,1.73
4529.00,1.73
4528.00,1.73
4527.00,1.73
4526.00,1.73
4525.00,1.73
4524.00,1.73
4523.00,1.74
4522.00,1.74
4521.00,1.74
4520.00,1.74
4519.00,1.74
4518.00,1.74
4517.00,1.74
4516.00,1.75
4515.00,1.75
4514.00,1.75
4513.00,1.75
4512.00,1.75
4511.00,1.75
4510.00,1.76
4509.00,1.76
4508.00,1.76
4507.00,1.76
4506.00,1.76
4505.00,1.75
4504.00,1.75
4503.00,1.75
4502.00,1.75
4501.00,1.75
4500.00,1.75
4499.00,1.75
4498.00,1.75
4497.00,1.74
4496.00,1.74
4495.00,1.74
4494.00,1.74
4493.00,1.73
4492.00,1.73
4491.00,1.73
4490.00,1.73
4489.00,1.72
4488.00,1.72
4487.00,1.71
4486.00,1.71
4485.00,1.71
4484.00,1.70
4483.00,1.70
4482.00,1.69
4481.00,1.69
4480.00,1.69
4479.00,1.68
4478.00,1.68
4477.00,1.67
4476.00,1.67
4475.00,1.67
4474.00,1.66
4473.00,1.66
4472.00,1.66
4471.00,1.65
4470.00,1.65
4469.00,1.65
4468.00,1.64
4467.00,1.64
4466.00,1.63
4465.00,1.63
4464.00,1.62
4463.00,1.62
4462.00,1.61
4461.00,1.61
4460.00,1.61
4459.00,1.60
4458.00,1.60
4457.00,1.59
4456.00,1.59
4455.00,1.58
4454.00,1.58
4453.00,1.57
4452.00,1.57
4451.00,1.56
4450.00,1.56
4449.00,1.55
4448.00,1.54
4447.00,1.53
4446.00,1.53
4445.00,1.52
4444.00,1.51
4443.00,1.50
4442.00,1.49
4441.00,1.48
4440.00,1.47
4439.00,1.46
4438.00,1.45
4437.00,1.44
4436.00,1.43
4435.00,1.42
4434.00,1.40
4433.00,1.39
4432.00,1.38
4431.00,1.37
4430.00,1.36
4429.00,1.34
4428.00,1.33
4427.00,1.32
4426.00,1.31
4425.00,1.30
4424.00,1.29
4423.00,1.28
4422.00,1.27
4421.00,1.26
4420.00,1.25
4419.00,1.24
4418.00,1.24
4417.00,1.23
4416.00,1.23
4415.00,1.22
4414.00,1.22
4413.00,1.22
4412.00,1.21
4411.00,1.21
4410.00,1.21
4409.00,1.21
4408.00,1.21
4407.00,1.21
4406.00,1.22
4405.00,1.22
4404.00,1.22
4403.00,1.22
4402.00,1.23
4401.00,1.23
4400.00,1.24
4399.00,1.24
4398.00,1.25
4397.00,1.26
4396.00,1.26
4395.00,1.27
4394.00,1.27
4393.00,1.28
4392.00,1.29
4391.00,1.29
4390.00,1.30
4389.00,1.30
4388.00,1.31
4387.00,1.31
4386.00,1.32
4385.00,1.32
4384.00,1.33
4383.00,1.33
4382.00,1.34
4381.00,1.34
4380.00,1.34
4379.00,1.35
4378.00,1.35
4377.00,1.35
4376.00,1.35
4375.00,1.35
4374.00,1.36
4373.00,1.36
4372.00,1.36
4371.00,1.35
4370.00,1.35
4369.00,1.35
4368.00,1.35
4367.00,1.35
4366.00,1.35
4365.00,1.34
4364.00,1.34
4363.00,1.34
4362.00,1.34
4361.00,1.34
4360.00,1.33
4359.00,1.33
4358.00,1.33
4357.00,1.33
4356.00,1.32
4355.00,1.32
4354.00,1.32
4353.00,1.32
4352.00,1.31
4351.00,1.31
4350.00,1.31
4349.00,1.31
4348.00,1.30
4347.00,1.30
4346.00,1.30
4345.00,1.30
4344.00,1.30
4343.00,1.30
4342.00,1.30
4341.00,1.31
4340.00,1.31
4339.00,1.31
4338.00,1.31
4337.00,1.31
4336.00,1.31
4335.00,1.31
4334.00,1.31
4333.00,1.31
4332.00,1.32
4331.00,1.32
4330.00,1.32
4329.00,1.32
4328.00,1.33
4327.00,1.33
4326.00,1.34
4325.00,1.34
4324.00,1.34
4323.00,1.35
4322.00,1.36
4321.00,1.36
4320.00,1.37
4319.00,1.37
4318.00,1.38
4317.00,1.38
4316.00,1.39
4315.00,1.39
4314.00,1.40
4313.00,1.40
4312.00,1.41
4311.00,1.42
4310.00,1.42
4309.00,1.43
4308.00,1.44
4307.00,1.45
4306.00,1.46
4305.00,1.46
4304.00,1.47
4303.00,1.48
4302.00,1.48
4301.00,1.49
4300.00,1.49
4299.00,1.50
4298.00,1.51
4297.00,1.51
4296.00,1.52
4295.00,1.53
4294.00,1.53
4293.00,1.54
4292.00,1.55
4291.00,1.55
4290.00,1.56
4289.00,1.56
4288.00,1.56
4287.00,1.57
4286.00,1.57
4285.00,1.57
4284.00,1.57
4283.00,1.57
4282.00,1.58
4281.00,1.58
4280.00,1.58
4279.00,1.58
4278.00,1.58
4277.00,1.58
4276.00,1.58
4275.00,1.58
4274.00,1.58
4273.00,1.58
4272.00,1.57
4271.00,1.57
4270.00,1.57
4269.00,1.56
4268.00,1.56
4267.00,1.55
4266.00,1.55
4265.00,1.55
4264.00,1.54
4263.00,1.54
4262.00,1.54
4261.00,1.53
4260.00,1.53
4259.00,1.53
4258.00,1.52
4257.00,1.52
4256.00,1.52
4255.00,1.52
4254.00,1.52
4253.00,1.52
4252.00,1.52
4251.00,1.52
4250.00,1.52
4249.00,1.52
4248.00,1.52
4247.00,1.52
4246.00,1.53
4245.00,1.53
4244.00,1.53
4243.00,1.54
4242.00,1.54
4241.00,1.55
4240.00,1.55
4239.00,1.55
4238.00,1.56
4237.00,1.56
4236.00,1.57
4235.00,1.57
4234.00,1.58
4233.00,1.58
4232.00,1.59
4231.00,1.59
4230.00,1.60
4229.00,1.60
4228.00,1.61
4227.00,1.61
4226.00,1.61
4225.00,1.62
4224.00,1.62
4223.00,1.62
4222.00,1.62
4221.00,1.62
4220.00,1.63
4219.00,1.63
4218.00,1.63
4217.00,1.63
4216.00,1.63
4215.00,1.63
4214.00,1.63
4213.00,1.63
4212.00,1.63
4211.00,1.63
4210.00,1.63
4209.00,1.63
4208.00,1.63
4207.00,1.63
4206.00,1.63
4205.00,1.63
4204.00,1.63
4203.00,1.63
4202.00,1.62
4201.00,1.62
4200.00,1.62
4199.00,1.62
4198.00,1.62
4197.00,1.62
4196.00,1.62
4195.00,1.62
4194.00,1.61
4193.00,1.61
4192.00,1.61
4191.00,1.61
4190.00,1.61
4189.00,1.60
4188.00,1.60
4187.00,1.60
4186.00,1.60
4185.00,1.60
4184.00,1.60
4183.00,1.60
4182.00,1.59
4181.00,1.59
4180.00,1.59
4179.00,1.59
4178.00,1.59
4177.00,1.59
4176.00,1.59
4175.00,1.59
4174.00,1.59
4173.00,1.59
4172.00,1.59
4171.00,1.60
4170.00,1.60
4169.00,1.60
4168.00,1.60
4167.00,1.60
4166.00,1.60
4165.00,1.60
4164.00,1.61
4163.00,1.61
4162.00,1.61
4161.00,1.61
4160.00,1.61
4159.00,1.61
4158.00,1.61
4157.00,1.61
4156.00,1.62
4155.00,1.61
4154.00,1.61
4153.00,1.61
4152.00,1.61
4151.00,1.61
4150.00,1.61
4149.00,1.61
4148.00,1.60
4147.00,1.60
4146.00,1.60
4145.00,1.59
4144.00,1.59
4143.00,1.59
4142.00,1.58
4141.00,1.58
4140.00,1.58
4139.00,1.57
4138.00,1.57
4137.00,1.57
4136.00,1.56
4135.00,1.56
4134.00,1.56
4133.00,1.55
4132.00,1.55
4131.00,1.54
4130.00,1.54
4129.00,1.53
4128.00,1.53
4127.00,1.52
4126.00,1.52
4125.00,1.52
4124.00,1.51
4123.00,1.51
4122.00,1.51
4121.00,1.51
4120.00,1.51
4119.00,1.51
4118.00,1.51
4117.00,1.51
4116.00,1.51
4115.00,1.50
4114.00,1.50
4113.00,1.50
4112.00,1.50
4111.00,1.50
4110.00,1.50
4109.00,1.50
4108.00,1.50
4107.00,1.50
4106.00,1.50
4105.00,1.50
4104.00,1.50
4103.00,1.50
4102.00,1.50
4101.00,1.50
4100.00,1.50
4099.00,1.50
4098.00,1.50
4097.00,1.50
4096.00,1.50
4095.00,1.50
4094.00,1.50
4093.00,1.51
4092.00,1.51
4091.00,1.51
4090.00,1.51
4089.00,1.51
4088.00,1.51
4087.00,1.52
4086.00,1.52
4085.00,1.52
4084.00,1.53
4083.00,1.53
4082.00,1.53
4081.00,1.54
4080.00,1.54
4079.00,1.55
4078.00,1.55
4077.00,1.55
4076.00,1.56
4075.00,1.56
4074.00,1.57
4073.00,1.57
4072.00,1.58
4071.00,1.58
4070.00,1.59
4069.00,1.59
4068.00,1.60
4067.00,1.60
4066.00,1.60
4065.00,1.61
4064.00,1.61
4063.00,1.61
4062.00,1.61
4061.00,1.61
4060.00,1.61
4059.00,1.61
4058.00,1.61
4057.00,1.61
4056.00,1.61
4055.00,1.61
4054.00,1.61
4053.00,1.61
4052.00,1.60
4051.00,1.60
4050.00,1.60
4049.00,1.59
4048.00,1.59
4047.00,1.59
4046.00,1.58
4045.00,1.58
4044.00,1.58
4043.00,1.57
4042.00,1.57
4041.00,1.56
4040.00,1.56
4039.00,1.55
4038.00,1.55
4037.00,1.54
4036.00,1.54
4035.00,1.53
4034.00,1.53
4033.00,1.53
4032.00,1.52
4031.00,1.52
4030.00,1.51
4029.00,1.51
4028.00,1.50
4027.00,1.50
4026.00,1.50
4025.00,1.50
4024.00,1.50
4023.00,1.50
4022.00,1.50
4021.00,1.50
4020.00,1.51
4019.00,1.51
4018.00,1.52
4017.00,1.53
4016.00,1.54
4015.00,1.55
4014.00,1.56
4013.00,1.58
4012.00,1.59
4011.00,1.61
4010.00,1.63
4009.00,1.65
4008.00,1.68
4007.00,1.70
4006.00,1.73
4005.00,1.75
4004.00,1.78
4003.00,1.81
4002.00,1.84
4001.00,1.87
4000.00,1.90
