创建为新数据集,样品 1317 用户 Administrator 日期 星期六, 八月 17 2019
cm-1,%T
10000.00,1.29
9998.00,1.29
9996.00,1.29
9994.00,1.29
9992.00,1.29
9990.00,1.29
9988.00,1.29
9986.00,1.29
9984.00,1.29
9982.00,1.29
9980.00,1.29
9978.00,1.29
9976.00,1.29
9974.00,1.29
9972.00,1.29
9970.00,1.29
9968.00,1.28
9966.00,1.28
9964.00,1.28
9962.00,1.28
9960.00,1.28
9958.00,1.28
9956.00,1.28
9954.00,1.28
9952.00,1.28
9950.00,1.28
9948.00,1.28
9946.00,1.28
9944.00,1.28
9942.00,1.28
9940.00,1.28
9938.00,1.28
9936.00,1.28
9934.00,1.28
9932.00,1.28
9930.00,1.28
9928.00,1.28
9926.00,1.28
9924.00,1.27
9922.00,1.27
9920.00,1.27
9918.00,1.27
9916.00,1.27
9914.00,1.27
9912.00,1.27
9910.00,1.26
9908.00,1.26
9906.00,1.26
9904.00,1.26
9902.00,1.26
9900.00,1.26
9898.00,1.25
9896.00,1.25
9894.00,1.25
9892.00,1.25
9890.00,1.25
9888.00,1.25
9886.00,1.25
9884.00,1.25
9882.00,1.25
9880.00,1.25
9878.00,1.25
9876.00,1.26
9874.00,1.26
9872.00,1.26
9870.00,1.26
9868.00,1.26
9866.00,1.26
9864.00,1.27
9862.00,1.27
9860.00,1.27
9858.00,1.27
9856.00,1.27
9854.00,1.27
9852.00,1.27
9850.00,1.28
9848.00,1.28
9846.00,1.28
9844.00,1.28
9842.00,1.28
9840.00,1.27
9838.00,1.27
9836.00,1.27
9834.00,1.27
9832.00,1.27
9830.00,1.27
9828.00,1.27
9826.00,1.27
9824.00,1.27
9822.00,1.27
9820.00,1.27
9818.00,1.27
9816.00,1.27
9814.00,1.27
9812.00,1.27
9810.00,1.27
9808.00,1.27
9806.00,1.27
9804.00,1.27
9802.00,1.28
9800.00,1.28
9798.00,1.28
9796.00,1.28
9794.00,1.28
9792.00,1.28
9790.00,1.28
9788.00,1.28
9786.00,1.28
9784.00,1.28
9782.00,1.28
9780.00,1.28
9778.00,1.28
9776.00,1.28
9774.00,1.28
9772.00,1.28
9770.00,1.28
9768.00,1.28
9766.00,1.28
9764.00,1.27
9762.00,1.27
9760.00,1.27
9758.00,1.27
9756.00,1.27
9754.00,1.27
9752.00,1.27
9750.00,1.27
9748.00,1.27
9746.00,1.27
9744.00,1.27
9742.00,1.26
9740.00,1.26
9738.00,1.26
9736.00,1.26
9734.00,1.26
9732.00,1.26
9730.00,1.26
9728.00,1.26
9726.00,1.26
9724.00,1.26
9722.00,1.26
9720.00,1.26
9718.00,1.26
9716.00,1.26
9714.00,1.26
9712.00,1.26
9710.00,1.26
9708.00,1.26
9706.00,1.26
9704.00,1.26
9702.00,1.26
9700.00,1.26
9698.00,1.26
9696.00,1.26
9694.00,1.26
9692.00,1.26
9690.00,1.26
9688.00,1.26
9686.00,1.26
9684.00,1.26
9682.00,1.26
9680.00,1.26
9678.00,1.26
9676.00,1.26
9674.00,1.26
9672.00,1.27
9670.00,1.27
9668.00,1.27
9666.00,1.27
9664.00,1.27
9662.00,1.27
9660.00,1.27
9658.00,1.27
9656.00,1.27
9654.00,1.27
9652.00,1.27
9650.00,1.27
9648.00,1.27
9646.00,1.27
9644.00,1.27
9642.00,1.27
9640.00,1.27
9638.00,1.27
9636.00,1.27
9634.00,1.27
9632.00,1.26
9630.00,1.26
9628.00,1.26
9626.00,1.26
9624.00,1.26
9622.00,1.26
9620.00,1.26
9618.00,1.26
9616.00,1.26
9614.00,1.26
9612.00,1.27
9610.00,1.27
9608.00,1.27
9606.00,1.27
9604.00,1.27
9602.00,1.27
9600.00,1.27
9598.00,1.27
9596.00,1.27
9594.00,1.27
9592.00,1.27
9590.00,1.27
9588.00,1.27
9586.00,1.27
9584.00,1.27
9582.00,1.27
9580.00,1.27
9578.00,1.27
9576.00,1.27
9574.00,1.27
9572.00,1.27
9570.00,1.27
9568.00,1.27
9566.00,1.27
9564.00,1.27
9562.00,1.27
9560.00,1.27
9558.00,1.27
9556.00,1.27
9554.00,1.27
9552.00,1.27
9550.00,1.26
9548.00,1.26
9546.00,1.26
9544.00,1.26
9542.00,1.26
9540.00,1.26
9538.00,1.26
9536.00,1.26
9534.00,1.26
9532.00,1.26
9530.00,1.26
9528.00,1.26
9526.00,1.26
9524.00,1.26
9522.00,1.26
9520.00,1.26
9518.00,1.26
9516.00,1.26
9514.00,1.26
9512.00,1.26
9510.00,1.26
9508.00,1.26
9506.00,1.26
9504.00,1.26
9502.00,1.26
9500.00,1.27
9498.00,1.27
9496.00,1.27
9494.00,1.27
9492.00,1.27
9490.00,1.27
9488.00,1.27
9486.00,1.27
9484.00,1.27
9482.00,1.27
9480.00,1.27
9478.00,1.27
9476.00,1.27
9474.00,1.26
9472.00,1.26
9470.00,1.26
9468.00,1.26
9466.00,1.26
9464.00,1.26
9462.00,1.26
9460.00,1.26
9458.00,1.26
9456.00,1.26
9454.00,1.26
9452.00,1.26
9450.00,1.27
9448.00,1.27
9446.00,1.27
9444.00,1.27
9442.00,1.27
9440.00,1.27
9438.00,1.27
9436.00,1.27
9434.00,1.27
9432.00,1.27
9430.00,1.27
9428.00,1.27
9426.00,1.27
9424.00,1.27
9422.00,1.27
9420.00,1.27
9418.00,1.27
9416.00,1.27
9414.00,1.27
9412.00,1.27
9410.00,1.27
9408.00,1.27
9406.00,1.27
9404.00,1.27
9402.00,1.27
9400.00,1.27
9398.00,1.27
9396.00,1.27
9394.00,1.27
9392.00,1.27
9390.00,1.27
9388.00,1.27
9386.00,1.27
9384.00,1.27
9382.00,1.27
9380.00,1.27
9378.00,1.27
9376.00,1.27
9374.00,1.27
9372.00,1.27
9370.00,1.27
9368.00,1.27
9366.00,1.27
9364.00,1.27
9362.00,1.27
9360.00,1.27
9358.00,1.27
9356.00,1.26
9354.00,1.26
9352.00,1.26
9350.00,1.26
9348.00,1.26
9346.00,1.26
9344.00,1.26
9342.00,1.26
9340.00,1.26
9338.00,1.26
9336.00,1.26
9334.00,1.26
9332.00,1.26
9330.00,1.26
9328.00,1.27
9326.00,1.27
9324.00,1.27
9322.00,1.27
9320.00,1.27
9318.00,1.27
9316.00,1.27
9314.00,1.27
9312.00,1.27
9310.00,1.27
9308.00,1.27
9306.00,1.27
9304.00,1.27
9302.00,1.27
9300.00,1.27
9298.00,1.27
9296.00,1.27
9294.00,1.27
9292.00,1.27
9290.00,1.27
9288.00,1.27
9286.00,1.27
9284.00,1.27
9282.00,1.27
9280.00,1.27
9278.00,1.27
9276.00,1.27
9274.00,1.28
9272.00,1.28
9270.00,1.28
9268.00,1.28
9266.00,1.28
9264.00,1.28
9262.00,1.28
9260.00,1.28
9258.00,1.28
9256.00,1.28
9254.00,1.28
9252.00,1.28
9250.00,1.28
9248.00,1.28
9246.00,1.28
9244.00,1.28
9242.00,1.28
9240.00,1.28
9238.00,1.28
9236.00,1.28
9234.00,1.28
9232.00,1.28
9230.00,1.28
9228.00,1.28
9226.00,1.28
9224.00,1.28
9222.00,1.28
9220.00,1.28
9218.00,1.28
9216.00,1.28
9214.00,1.28
9212.00,1.28
9210.00,1.28
9208.00,1.28
9206.00,1.28
9204.00,1.28
9202.00,1.28
9200.00,1.28
9198.00,1.28
9196.00,1.28
9194.00,1.28
9192.00,1.28
9190.00,1.28
9188.00,1.29
9186.00,1.29
9184.00,1.29
9182.00,1.29
9180.00,1.29
9178.00,1.29
9176.00,1.29
9174.00,1.29
9172.00,1.29
9170.00,1.29
9168.00,1.29
9166.00,1.29
9164.00,1.29
9162.00,1.29
9160.00,1.29
9158.00,1.29
9156.00,1.29
9154.00,1.29
9152.00,1.29
9150.00,1.29
9148.00,1.29
9146.00,1.29
9144.00,1.29
9142.00,1.29
9140.00,1.29
9138.00,1.29
9136.00,1.29
9134.00,1.29
9132.00,1.28
9130.00,1.28
9128.00,1.28
9126.00,1.28
9124.00,1.28
9122.00,1.28
9120.00,1.28
9118.00,1.28
9116.00,1.28
9114.00,1.28
9112.00,1.28
9110.00,1.28
9108.00,1.28
9106.00,1.27
9104.00,1.27
9102.00,1.27
9100.00,1.27
9098.00,1.27
9096.00,1.27
9094.00,1.27
9092.00,1.27
9090.00,1.27
9088.00,1.27
9086.00,1.27
9084.00,1.27
9082.00,1.27
9080.00,1.27
9078.00,1.28
9076.00,1.28
9074.00,1.28
9072.00,1.28
9070.00,1.28
9068.00,1.28
9066.00,1.28
9064.00,1.28
9062.00,1.28
9060.00,1.28
9058.00,1.28
9056.00,1.28
9054.00,1.28
9052.00,1.28
9050.00,1.28
9048.00,1.28
9046.00,1.28
9044.00,1.28
9042.00,1.28
9040.00,1.28
9038.00,1.28
9036.00,1.28
9034.00,1.28
9032.00,1.28
9030.00,1.28
9028.00,1.28
9026.00,1.28
9024.00,1.27
9022.00,1.27
9020.00,1.27
9018.00,1.27
9016.00,1.27
9014.00,1.27
9012.00,1.27
9010.00,1.27
9008.00,1.27
9006.00,1.27
9004.00,1.27
9002.00,1.27
9000.00,1.27
8998.00,1.27
8996.00,1.27
8994.00,1.27
8992.00,1.28
8990.00,1.28
8988.00,1.28
8986.00,1.28
8984.00,1.28
8982.00,1.28
8980.00,1.28
8978.00,1.28
8976.00,1.28
8974.00,1.28
8972.00,1.28
8970.00,1.28
8968.00,1.28
8966.00,1.28
8964.00,1.28
8962.00,1.28
8960.00,1.28
8958.00,1.28
8956.00,1.28
8954.00,1.28
8952.00,1.28
8950.00,1.28
8948.00,1.28
8946.00,1.28
8944.00,1.28
8942.00,1.28
8940.00,1.28
8938.00,1.28
8936.00,1.28
8934.00,1.28
8932.00,1.28
8930.00,1.28
8928.00,1.28
8926.00,1.28
8924.00,1.27
8922.00,1.27
8920.00,1.27
8918.00,1.27
8916.00,1.27
8914.00,1.27
8912.00,1.27
8910.00,1.27
8908.00,1.27
8906.00,1.27
8904.00,1.26
8902.00,1.26
8900.00,1.26
8898.00,1.26
8896.00,1.26
8894.00,1.27
8892.00,1.27
8890.00,1.27
8888.00,1.27
8886.00,1.27
8884.00,1.27
8882.00,1.27
8880.00,1.27
8878.00,1.27
8876.00,1.27
8874.00,1.27
8872.00,1.27
8870.00,1.27
8868.00,1.27
8866.00,1.27
8864.00,1.27
8862.00,1.27
8860.00,1.27
8858.00,1.27
8856.00,1.27
8854.00,1.27
8852.00,1.26
8850.00,1.26
8848.00,1.26
8846.00,1.26
8844.00,1.26
8842.00,1.26
8840.00,1.26
8838.00,1.26
8836.00,1.26
8834.00,1.27
8832.00,1.27
8830.00,1.27
8828.00,1.27
8826.00,1.27
8824.00,1.27
8822.00,1.27
8820.00,1.27
8818.00,1.27
8816.00,1.27
8814.00,1.27
8812.00,1.27
8810.00,1.27
8808.00,1.27
8806.00,1.27
8804.00,1.27
8802.00,1.27
8800.00,1.27
8798.00,1.28
8796.00,1.28
8794.00,1.28
8792.00,1.28
8790.00,1.28
8788.00,1.28
8786.00,1.28
8784.00,1.28
8782.00,1.28
8780.00,1.28
8778.00,1.28
8776.00,1.27
8774.00,1.27
8772.00,1.27
8770.00,1.27
8768.00,1.27
8766.00,1.27
8764.00,1.27
8762.00,1.27
8760.00,1.27
8758.00,1.27
8756.00,1.26
8754.00,1.26
8752.00,1.26
8750.00,1.26
8748.00,1.26
8746.00,1.26
8744.00,1.26
8742.00,1.26
8740.00,1.26
8738.00,1.26
8736.00,1.26
8734.00,1.26
8732.00,1.26
8730.00,1.26
8728.00,1.26
8726.00,1.26
8724.00,1.26
8722.00,1.26
8720.00,1.26
8718.00,1.26
8716.00,1.26
8714.00,1.26
8712.00,1.26
8710.00,1.26
8708.00,1.26
8706.00,1.26
8704.00,1.26
8702.00,1.26
8700.00,1.26
8698.00,1.26
8696.00,1.26
8694.00,1.26
8692.00,1.26
8690.00,1.26
8688.00,1.26
8686.00,1.26
8684.00,1.26
8682.00,1.26
8680.00,1.26
8678.00,1.26
8676.00,1.26
8674.00,1.26
8672.00,1.26
8670.00,1.26
8668.00,1.26
8666.00,1.26
8664.00,1.26
8662.00,1.26
8660.00,1.26
8658.00,1.26
8656.00,1.26
8654.00,1.26
8652.00,1.26
8650.00,1.26
8648.00,1.26
8646.00,1.26
8644.00,1.26
8642.00,1.26
8640.00,1.26
8638.00,1.26
8636.00,1.26
8634.00,1.27
8632.00,1.27
8630.00,1.27
8628.00,1.27
8626.00,1.27
8624.00,1.27
8622.00,1.27
8620.00,1.27
8618.00,1.27
8616.00,1.27
8614.00,1.27
8612.00,1.27
8610.00,1.27
8608.00,1.27
8606.00,1.27
8604.00,1.27
8602.00,1.26
8600.00,1.26
8598.00,1.26
8596.00,1.26
8594.00,1.26
8592.00,1.26
8590.00,1.26
8588.00,1.26
8586.00,1.26
8584.00,1.26
8582.00,1.26
8580.00,1.26
8578.00,1.26
8576.00,1.26
8574.00,1.26
8572.00,1.26
8570.00,1.26
8568.00,1.26
8566.00,1.26
8564.00,1.26
8562.00,1.26
8560.00,1.26
8558.00,1.26
8556.00,1.26
8554.00,1.26
8552.00,1.26
8550.00,1.26
8548.00,1.26
8546.00,1.26
8544.00,1.26
8542.00,1.26
8540.00,1.26
8538.00,1.26
8536.00,1.26
8534.00,1.26
8532.00,1.26
8530.00,1.26
8528.00,1.26
8526.00,1.26
8524.00,1.26
8522.00,1.26
8520.00,1.26
8518.00,1.26
8516.00,1.26
8514.00,1.26
8512.00,1.26
8510.00,1.25
8508.00,1.25
8506.00,1.25
8504.00,1.25
8502.00,1.25
8500.00,1.25
8498.00,1.25
8496.00,1.25
8494.00,1.25
8492.00,1.25
8490.00,1.25
8488.00,1.25
8486.00,1.25
8484.00,1.25
8482.00,1.25
8480.00,1.25
8478.00,1.25
8476.00,1.25
8474.00,1.25
8472.00,1.25
8470.00,1.25
8468.00,1.25
8466.00,1.25
8464.00,1.25
8462.00,1.25
8460.00,1.25
8458.00,1.25
8456.00,1.25
8454.00,1.25
8452.00,1.25
8450.00,1.25
8448.00,1.25
8446.00,1.25
8444.00,1.25
8442.00,1.25
8440.00,1.25
8438.00,1.25
8436.00,1.25
8434.00,1.25
8432.00,1.25
8430.00,1.25
8428.00,1.25
8426.00,1.25
8424.00,1.25
8422.00,1.25
8420.00,1.25
8418.00,1.25
8416.00,1.25
8414.00,1.25
8412.00,1.25
8410.00,1.25
8408.00,1.25
8406.00,1.25
8404.00,1.25
8402.00,1.25
8400.00,1.25
8398.00,1.25
8396.00,1.25
8394.00,1.26
8392.00,1.26
8390.00,1.26
8388.00,1.26
8386.00,1.26
8384.00,1.26
8382.00,1.26
8380.00,1.26
8378.00,1.26
8376.00,1.26
8374.00,1.26
8372.00,1.26
8370.00,1.26
8368.00,1.26
8366.00,1.26
8364.00,1.26
8362.00,1.26
8360.00,1.26
8358.00,1.26
8356.00,1.26
8354.00,1.26
8352.00,1.26
8350.00,1.26
8348.00,1.26
8346.00,1.26
8344.00,1.26
8342.00,1.26
8340.00,1.26
8338.00,1.26
8336.00,1.26
8334.00,1.26
8332.00,1.26
8330.00,1.26
8328.00,1.26
8326.00,1.26
8324.00,1.26
8322.00,1.26
8320.00,1.26
8318.00,1.26
8316.00,1.26
8314.00,1.26
8312.00,1.26
8310.00,1.26
8308.00,1.26
8306.00,1.26
8304.00,1.26
8302.00,1.26
8300.00,1.27
8298.00,1.27
8296.00,1.27
8294.00,1.27
8292.00,1.27
8290.00,1.27
8288.00,1.27
8286.00,1.27
8284.00,1.27
8282.00,1.27
8280.00,1.27
8278.00,1.27
8276.00,1.27
8274.00,1.26
8272.00,1.26
8270.00,1.26
8268.00,1.26
8266.00,1.26
8264.00,1.26
8262.00,1.26
8260.00,1.26
8258.00,1.26
8256.00,1.26
8254.00,1.26
8252.00,1.26
8250.00,1.26
8248.00,1.26
8246.00,1.26
8244.00,1.26
8242.00,1.26
8240.00,1.26
8238.00,1.26
8236.00,1.27
8234.00,1.27
8232.00,1.27
8230.00,1.27
8228.00,1.27
8226.00,1.27
8224.00,1.27
8222.00,1.27
8220.00,1.27
8218.00,1.27
8216.00,1.27
8214.00,1.27
8212.00,1.27
8210.00,1.27
8208.00,1.27
8206.00,1.27
8204.00,1.27
8202.00,1.27
8200.00,1.27
8198.00,1.27
8196.00,1.27
8194.00,1.27
8192.00,1.27
8190.00,1.27
8188.00,1.27
8186.00,1.27
8184.00,1.27
8182.00,1.27
8180.00,1.27
8178.00,1.27
8176.00,1.27
8174.00,1.27
8172.00,1.27
8170.00,1.27
8168.00,1.27
8166.00,1.27
8164.00,1.27
8162.00,1.27
8160.00,1.27
8158.00,1.27
8156.00,1.27
8154.00,1.27
8152.00,1.27
8150.00,1.27
8148.00,1.27
8146.00,1.27
8144.00,1.27
8142.00,1.27
8140.00,1.27
8138.00,1.27
8136.00,1.27
8134.00,1.27
8132.00,1.27
8130.00,1.27
8128.00,1.27
8126.00,1.27
8124.00,1.28
8122.00,1.28
8120.00,1.28
8118.00,1.28
8116.00,1.28
8114.00,1.28
8112.00,1.28
8110.00,1.28
8108.00,1.28
8106.00,1.28
8104.00,1.28
8102.00,1.28
8100.00,1.28
8098.00,1.28
8096.00,1.27
8094.00,1.27
8092.00,1.27
8090.00,1.27
8088.00,1.27
8086.00,1.27
8084.00,1.27
8082.00,1.27
8080.00,1.27
8078.00,1.27
8076.00,1.27
8074.00,1.27
8072.00,1.27
8070.00,1.27
8068.00,1.27
8066.00,1.27
8064.00,1.27
8062.00,1.27
8060.00,1.27
8058.00,1.27
8056.00,1.27
8054.00,1.28
8052.00,1.28
8050.00,1.28
8048.00,1.27
8046.00,1.27
8044.00,1.27
8042.00,1.27
8040.00,1.27
8038.00,1.27
8036.00,1.27
8034.00,1.27
8032.00,1.27
8030.00,1.27
8028.00,1.27
8026.00,1.27
8024.00,1.27
8022.00,1.27
8020.00,1.27
8018.00,1.27
8016.00,1.27
8014.00,1.27
8012.00,1.27
8010.00,1.28
8008.00,1.28
8006.00,1.28
8004.00,1.28
8002.00,1.28
8000.00,1.28
7998.00,1.28
7996.00,1.28
7994.00,1.28
7992.00,1.28
7990.00,1.28
7988.00,1.28
7986.00,1.28
7984.00,1.28
7982.00,1.28
7980.00,1.28
7978.00,1.28
7976.00,1.28
7974.00,1.28
7972.00,1.28
7970.00,1.28
7968.00,1.28
7966.00,1.28
7964.00,1.28
7962.00,1.28
7960.00,1.28
7958.00,1.28
7956.00,1.28
7954.00,1.28
7952.00,1.28
7950.00,1.28
7948.00,1.28
7946.00,1.28
7944.00,1.28
7942.00,1.28
7940.00,1.29
7938.00,1.29
7936.00,1.29
7934.00,1.29
7932.00,1.29
7930.00,1.29
7928.00,1.29
7926.00,1.29
7924.00,1.29
7922.00,1.29
7920.00,1.29
7918.00,1.29
7916.00,1.29
7914.00,1.29
7912.00,1.28
7910.00,1.28
7908.00,1.28
7906.00,1.28
7904.00,1.28
7902.00,1.28
7900.00,1.28
7898.00,1.28
7896.00,1.28
7894.00,1.28
7892.00,1.28
7890.00,1.28
7888.00,1.27
7886.00,1.27
7884.00,1.27
7882.00,1.27
7880.00,1.27
7878.00,1.27
7876.00,1.27
7874.00,1.28
7872.00,1.28
7870.00,1.28
7868.00,1.28
7866.00,1.28
7864.00,1.28
7862.00,1.28
7860.00,1.28
7858.00,1.28
7856.00,1.28
7854.00,1.28
7852.00,1.28
7850.00,1.28
7848.00,1.28
7846.00,1.28
7844.00,1.28
7842.00,1.29
7840.00,1.29
7838.00,1.29
7836.00,1.29
7834.00,1.29
7832.00,1.29
7830.00,1.29
7828.00,1.29
7826.00,1.29
7824.00,1.29
7822.00,1.29
7820.00,1.29
7818.00,1.29
7816.00,1.29
7814.00,1.29
7812.00,1.29
7810.00,1.29
7808.00,1.29
7806.00,1.29
7804.00,1.29
7802.00,1.29
7800.00,1.29
7798.00,1.29
7796.00,1.29
7794.00,1.29
7792.00,1.29
7790.00,1.29
7788.00,1.29
7786.00,1.29
7784.00,1.29
7782.00,1.29
7780.00,1.29
7778.00,1.29
7776.00,1.29
7774.00,1.29
7772.00,1.29
7770.00,1.29
7768.00,1.29
7766.00,1.29
7764.00,1.29
7762.00,1.29
7760.00,1.29
7758.00,1.29
7756.00,1.29
7754.00,1.29
7752.00,1.29
7750.00,1.29
7748.00,1.29
7746.00,1.29
7744.00,1.29
7742.00,1.29
7740.00,1.29
7738.00,1.29
7736.00,1.29
7734.00,1.29
7732.00,1.29
7730.00,1.29
7728.00,1.29
7726.00,1.29
7724.00,1.29
7722.00,1.29
7720.00,1.29
7718.00,1.29
7716.00,1.29
7714.00,1.29
7712.00,1.29
7710.00,1.28
7708.00,1.28
7706.00,1.28
7704.00,1.28
7702.00,1.28
7700.00,1.28
7698.00,1.28
7696.00,1.28
7694.00,1.28
7692.00,1.28
7690.00,1.28
7688.00,1.28
7686.00,1.28
7684.00,1.29
7682.00,1.29
7680.00,1.29
7678.00,1.29
7676.00,1.29
7674.00,1.29
7672.00,1.29
7670.00,1.29
7668.00,1.29
7666.00,1.29
7664.00,1.29
7662.00,1.29
7660.00,1.29
7658.00,1.29
7656.00,1.29
7654.00,1.29
7652.00,1.29
7650.00,1.29
7648.00,1.29
7646.00,1.29
7644.00,1.29
7642.00,1.29
7640.00,1.29
7638.00,1.29
7636.00,1.29
7634.00,1.29
7632.00,1.29
7630.00,1.29
7628.00,1.29
7626.00,1.29
7624.00,1.29
7622.00,1.29
7620.00,1.29
7618.00,1.29
7616.00,1.29
7614.00,1.29
7612.00,1.29
7610.00,1.29
7608.00,1.29
7606.00,1.29
7604.00,1.29
7602.00,1.29
7600.00,1.29
7598.00,1.29
7596.00,1.29
7594.00,1.29
7592.00,1.29
7590.00,1.28
7588.00,1.28
7586.00,1.28
7584.00,1.28
7582.00,1.28
7580.00,1.28
7578.00,1.28
7576.00,1.28
7574.00,1.28
7572.00,1.28
7570.00,1.28
7568.00,1.28
7566.00,1.28
7564.00,1.28
7562.00,1.28
7560.00,1.28
7558.00,1.28
7556.00,1.28
7554.00,1.28
7552.00,1.28
7550.00,1.28
7548.00,1.28
7546.00,1.28
7544.00,1.28
7542.00,1.28
7540.00,1.28
7538.00,1.28
7536.00,1.28
7534.00,1.28
7532.00,1.28
7530.00,1.28
7528.00,1.28
7526.00,1.28
7524.00,1.28
7522.00,1.28
7520.00,1.28
7518.00,1.28
7516.00,1.28
7514.00,1.28
7512.00,1.28
7510.00,1.28
7508.00,1.28
7506.00,1.28
7504.00,1.28
7502.00,1.28
7500.00,1.28
7498.00,1.28
7496.00,1.28
7494.00,1.28
7492.00,1.28
7490.00,1.28
7488.00,1.28
7486.00,1.27
7484.00,1.27
7482.00,1.27
7480.00,1.27
7478.00,1.27
7476.00,1.27
7474.00,1.27
7472.00,1.27
7470.00,1.27
7468.00,1.27
7466.00,1.27
7464.00,1.27
7462.00,1.27
7460.00,1.27
7458.00,1.27
7456.00,1.27
7454.00,1.27
7452.00,1.27
7450.00,1.27
7448.00,1.27
7446.00,1.27
7444.00,1.27
7442.00,1.27
7440.00,1.27
7438.00,1.27
7436.00,1.26
7434.00,1.26
7432.00,1.26
7430.00,1.26
7428.00,1.26
7426.00,1.26
7424.00,1.26
7422.00,1.26
7420.00,1.26
7418.00,1.26
7416.00,1.26
7414.00,1.26
7412.00,1.26
7410.00,1.26
7408.00,1.26
7406.00,1.26
7404.00,1.26
7402.00,1.26
7400.00,1.26
7398.00,1.26
7396.00,1.26
7394.00,1.26
7392.00,1.26
7390.00,1.26
7388.00,1.26
7386.00,1.26
7384.00,1.26
7382.00,1.26
7380.00,1.26
7378.00,1.26
7376.00,1.26
7374.00,1.26
7372.00,1.26
7370.00,1.25
7368.00,1.25
7366.00,1.25
7364.00,1.25
7362.00,1.25
7360.00,1.25
7358.00,1.25
7356.00,1.25
7354.00,1.25
7352.00,1.25
7350.00,1.25
7348.00,1.25
7346.00,1.25
7344.00,1.25
7342.00,1.25
7340.00,1.25
7338.00,1.25
7336.00,1.25
7334.00,1.25
7332.00,1.25
7330.00,1.25
7328.00,1.25
7326.00,1.25
7324.00,1.25
7322.00,1.25
7320.00,1.25
7318.00,1.25
7316.00,1.25
7314.00,1.25
7312.00,1.25
7310.00,1.24
7308.00,1.24
7306.00,1.24
7304.00,1.24
7302.00,1.24
7300.00,1.24
7298.00,1.24
7296.00,1.24
7294.00,1.24
7292.00,1.24
7290.00,1.24
7288.00,1.23
7286.00,1.23
7284.00,1.23
7282.00,1.23
7280.00,1.23
7278.00,1.23
7276.00,1.23
7274.00,1.23
7272.00,1.23
7270.00,1.23
7268.00,1.23
7266.00,1.23
7264.00,1.23
7262.00,1.22
7260.00,1.22
7258.00,1.22
7256.00,1.22
7254.00,1.22
7252.00,1.22
7250.00,1.22
7248.00,1.22
7246.00,1.22
7244.00,1.22
7242.00,1.22
7240.00,1.22
7238.00,1.21
7236.00,1.21
7234.00,1.21
7232.00,1.21
7230.00,1.21
7228.00,1.20
7226.00,1.20
7224.00,1.20
7222.00,1.19
7220.00,1.19
7218.00,1.19
7216.00,1.18
7214.00,1.18
7212.00,1.18
7210.00,1.17
7208.00,1.17
7206.00,1.17
7204.00,1.16
7202.00,1.16
7200.00,1.16
7198.00,1.15
7196.00,1.15
7194.00,1.14
7192.00,1.14
7190.00,1.14
7188.00,1.13
7186.00,1.13
7184.00,1.13
7182.00,1.12
7180.00,1.12
7178.00,1.12
7176.00,1.11
7174.00,1.11
7172.00,1.11
7170.00,1.10
7168.00,1.10
7166.00,1.10
7164.00,1.09
7162.00,1.09
7160.00,1.09
7158.00,1.08
7156.00,1.08
7154.00,1.07
7152.00,1.07
7150.00,1.07
7148.00,1.06
7146.00,1.06
7144.00,1.06
7142.00,1.05
7140.00,1.05
7138.00,1.05
7136.00,1.04
7134.00,1.04
7132.00,1.04
7130.00,1.03
7128.00,1.03
7126.00,1.03
7124.00,1.03
7122.00,1.02
7120.00,1.02
7118.00,1.02
7116.00,1.02
7114.00,1.02
7112.00,1.01
7110.00,1.01
7108.00,1.01
7106.00,1.01
7104.00,1.00
7102.00,1.00
7100.00,1.00
7098.00,1.00
7096.00,0.99
7094.00,0.99
7092.00,0.99
7090.00,0.99
7088.00,0.99
7086.00,0.98
7084.00,0.98
7082.00,0.98
7080.00,0.98
7078.00,0.98
7076.00,0.98
7074.00,0.97
7072.00,0.97
7070.00,0.97
7068.00,0.97
7066.00,0.97
7064.00,0.97
7062.00,0.96
7060.00,0.96
7058.00,0.96
7056.00,0.96
7054.00,0.96
7052.00,0.95
7050.00,0.95
7048.00,0.95
7046.00,0.95
7044.00,0.95
7042.00,0.95
7040.00,0.94
7038.00,0.94
7036.00,0.94
7034.00,0.94
7032.00,0.94
7030.00,0.94
7028.00,0.94
7026.00,0.94
7024.00,0.93
7022.00,0.93
7020.00,0.93
7018.00,0.93
7016.00,0.93
7014.00,0.93
7012.00,0.93
7010.00,0.93
7008.00,0.93
7006.00,0.93
7004.00,0.93
7002.00,0.93
7000.00,0.92
6998.00,0.92
6996.00,0.92
6994.00,0.92
6992.00,0.92
6990.00,0.92
6988.00,0.92
6986.00,0.92
6984.00,0.92
6982.00,0.92
6980.00,0.92
6978.00,0.92
6976.00,0.91
6974.00,0.91
6972.00,0.91
6970.00,0.91
6968.00,0.91
6966.00,0.91
6964.00,0.91
6962.00,0.91
6960.00,0.91
6958.00,0.91
6956.00,0.91
6954.00,0.91
6952.00,0.91
6950.00,0.91
6948.00,0.91
6946.00,0.91
6944.00,0.91
6942.00,0.91
6940.00,0.91
6938.00,0.91
6936.00,0.91
6934.00,0.91
6932.00,0.90
6930.00,0.90
6928.00,0.90
6926.00,0.90
6924.00,0.90
6922.00,0.90
6920.00,0.90
6918.00,0.90
6916.00,0.90
6914.00,0.90
6912.00,0.90
6910.00,0.90
6908.00,0.90
6906.00,0.90
6904.00,0.90
6902.00,0.90
6900.00,0.90
6898.00,0.90
6896.00,0.90
6894.00,0.90
6892.00,0.90
6890.00,0.90
6888.00,0.90
6886.00,0.90
6884.00,0.90
6882.00,0.90
6880.00,0.90
6878.00,0.90
6876.00,0.90
6874.00,0.90
6872.00,0.90
6870.00,0.90
6868.00,0.90
6866.00,0.90
6864.00,0.90
6862.00,0.90
6860.00,0.90
6858.00,0.90
6856.00,0.90
6854.00,0.90
6852.00,0.90
6850.00,0.90
6848.00,0.90
6846.00,0.90
6844.00,0.90
6842.00,0.90
6840.00,0.90
6838.00,0.90
6836.00,0.90
6834.00,0.90
6832.00,0.90
6830.00,0.90
6828.00,0.90
6826.00,0.91
6824.00,0.91
6822.00,0.91
6820.00,0.91
6818.00,0.91
6816.00,0.91
6814.00,0.91
6812.00,0.91
6810.00,0.91
6808.00,0.91
6806.00,0.91
6804.00,0.92
6802.00,0.92
6800.00,0.92
6798.00,0.92
6796.00,0.92
6794.00,0.92
6792.00,0.92
6790.00,0.92
6788.00,0.92
6786.00,0.92
6784.00,0.92
6782.00,0.92
6780.00,0.92
6778.00,0.93
6776.00,0.93
6774.00,0.93
6772.00,0.93
6770.00,0.93
6768.00,0.93
6766.00,0.93
6764.00,0.93
6762.00,0.93
6760.00,0.93
6758.00,0.93
6756.00,0.94
6754.00,0.94
6752.00,0.94
6750.00,0.94
6748.00,0.94
6746.00,0.94
6744.00,0.94
6742.00,0.95
6740.00,0.95
6738.00,0.95
6736.00,0.95
6734.00,0.95
6732.00,0.95
6730.00,0.96
6728.00,0.96
6726.00,0.96
6724.00,0.96
6722.00,0.96
6720.00,0.96
6718.00,0.96
6716.00,0.97
6714.00,0.97
6712.00,0.97
6710.00,0.97
6708.00,0.97
6706.00,0.97
6704.00,0.97
6702.00,0.97
6700.00,0.98
6698.00,0.98
6696.00,0.98
6694.00,0.98
6692.00,0.98
6690.00,0.98
6688.00,0.98
6686.00,0.98
6684.00,0.99
6682.00,0.99
6680.00,0.99
6678.00,0.99
6676.00,0.99
6674.00,0.99
6672.00,0.99
6670.00,0.99
6668.00,1.00
6666.00,1.00
6664.00,1.00
6662.00,1.00
6660.00,1.00
6658.00,1.00
6656.00,1.01
6654.00,1.01
6652.00,1.01
6650.00,1.01
6648.00,1.01
6646.00,1.01
6644.00,1.01
6642.00,1.02
6640.00,1.02
6638.00,1.02
6636.00,1.02
6634.00,1.02
6632.00,1.02
6630.00,1.02
6628.00,1.03
6626.00,1.03
6624.00,1.03
6622.00,1.03
6620.00,1.03
6618.00,1.03
6616.00,1.03
6614.00,1.04
6612.00,1.04
6610.00,1.04
6608.00,1.04
6606.00,1.04
6604.00,1.04
6602.00,1.05
6600.00,1.05
6598.00,1.05
6596.00,1.05
6594.00,1.05
6592.00,1.05
6590.00,1.06
6588.00,1.06
6586.00,1.06
6584.00,1.06
6582.00,1.06
6580.00,1.06
6578.00,1.06
6576.00,1.06
6574.00,1.07
6572.00,1.07
6570.00,1.07
6568.00,1.07
6566.00,1.07
6564.00,1.07
6562.00,1.07
6560.00,1.07
6558.00,1.07
6556.00,1.07
6554.00,1.07
6552.00,1.08
6550.00,1.08
6548.00,1.08
6546.00,1.08
6544.00,1.08
6542.00,1.08
6540.00,1.08
6538.00,1.09
6536.00,1.09
6534.00,1.09
6532.00,1.09
6530.00,1.09
6528.00,1.09
6526.00,1.10
6524.00,1.10
6522.00,1.10
6520.00,1.10
6518.00,1.10
6516.00,1.10
6514.00,1.10
6512.00,1.11
6510.00,1.11
6508.00,1.11
6506.00,1.11
6504.00,1.11
6502.00,1.11
6500.00,1.11
6498.00,1.11
6496.00,1.11
6494.00,1.11
6492.00,1.11
6490.00,1.12
6488.00,1.12
6486.00,1.12
6484.00,1.12
6482.00,1.12
6480.00,1.12
6478.00,1.12
6476.00,1.12
6474.00,1.12
6472.00,1.12
6470.00,1.12
6468.00,1.12
6466.00,1.12
6464.00,1.12
6462.00,1.13
6460.00,1.13
6458.00,1.13
6456.00,1.13
6454.00,1.13
6452.00,1.13
6450.00,1.13
6448.00,1.13
6446.00,1.13
6444.00,1.13
6442.00,1.14
6440.00,1.14
6438.00,1.14
6436.00,1.14
6434.00,1.14
6432.00,1.14
6430.00,1.14
6428.00,1.15
6426.00,1.15
6424.00,1.15
6422.00,1.15
6420.00,1.15
6418.00,1.15
6416.00,1.15
6414.00,1.15
6412.00,1.16
6410.00,1.16
6408.00,1.16
6406.00,1.16
6404.00,1.16
6402.00,1.16
6400.00,1.16
6398.00,1.16
6396.00,1.16
6394.00,1.16
6392.00,1.16
6390.00,1.17
6388.00,1.17
6386.00,1.17
6384.00,1.17
6382.00,1.17
6380.00,1.17
6378.00,1.17
6376.00,1.17
6374.00,1.17
6372.00,1.17
6370.00,1.17
6368.00,1.18
6366.00,1.18
6364.00,1.18
6362.00,1.18
6360.00,1.18
6358.00,1.18
6356.00,1.18
6354.00,1.18
6352.00,1.18
6350.00,1.18
6348.00,1.19
6346.00,1.19
6344.00,1.19
6342.00,1.19
6340.00,1.19
6338.00,1.19
6336.00,1.19
6334.00,1.19
6332.00,1.19
6330.00,1.19
6328.00,1.19
6326.00,1.19
6324.00,1.20
6322.00,1.20
6320.00,1.20
6318.00,1.20
6316.00,1.20
6314.00,1.20
6312.00,1.20
6310.00,1.20
6308.00,1.20
6306.00,1.20
6304.00,1.20
6302.00,1.21
6300.00,1.21
6298.00,1.21
6296.00,1.21
6294.00,1.21
6292.00,1.21
6290.00,1.21
6288.00,1.21
6286.00,1.21
6284.00,1.21
6282.00,1.22
6280.00,1.22
6278.00,1.22
6276.00,1.22
6274.00,1.22
6272.00,1.22
6270.00,1.22
6268.00,1.22
6266.00,1.22
6264.00,1.22
6262.00,1.22
6260.00,1.22
6258.00,1.22
6256.00,1.23
6254.00,1.23
6252.00,1.23
6250.00,1.23
6248.00,1.23
6246.00,1.23
6244.00,1.23
6242.00,1.23
6240.00,1.23
6238.00,1.23
6236.00,1.23
6234.00,1.23
6232.00,1.23
6230.00,1.23
6228.00,1.23
6226.00,1.23
6224.00,1.23
6222.00,1.23
6220.00,1.23
6218.00,1.23
6216.00,1.23
6214.00,1.24
6212.00,1.24
6210.00,1.24
6208.00,1.24
6206.00,1.24
6204.00,1.24
6202.00,1.24
6200.00,1.24
6198.00,1.24
6196.00,1.24
6194.00,1.24
6192.00,1.25
6190.00,1.25
6188.00,1.25
6186.00,1.25
6184.00,1.25
6182.00,1.25
6180.00,1.25
6178.00,1.25
6176.00,1.25
6174.00,1.25
6172.00,1.25
6170.00,1.25
6168.00,1.25
6166.00,1.25
6164.00,1.25
6162.00,1.25
6160.00,1.26
6158.00,1.26
6156.00,1.26
6154.00,1.26
6152.00,1.26
6150.00,1.26
6148.00,1.26
6146.00,1.26
6144.00,1.26
6142.00,1.26
6140.00,1.26
6138.00,1.27
6136.00,1.27
6134.00,1.27
6132.00,1.27
6130.00,1.27
6128.00,1.27
6126.00,1.27
6124.00,1.27
6122.00,1.27
6120.00,1.27
6118.00,1.27
6116.00,1.27
6114.00,1.27
6112.00,1.27
6110.00,1.27
6108.00,1.28
6106.00,1.28
6104.00,1.28
6102.00,1.28
6100.00,1.28
6098.00,1.28
6096.00,1.28
6094.00,1.28
6092.00,1.28
6090.00,1.28
6088.00,1.28
6086.00,1.28
6084.00,1.28
6082.00,1.28
6080.00,1.28
6078.00,1.28
6076.00,1.28
6074.00,1.28
6072.00,1.28
6070.00,1.29
6068.00,1.29
6066.00,1.29
6064.00,1.29
6062.00,1.29
6060.00,1.29
6058.00,1.29
6056.00,1.29
6054.00,1.29
6052.00,1.29
6050.00,1.29
6048.00,1.29
6046.00,1.29
6044.00,1.29
6042.00,1.29
6040.00,1.29
6038.00,1.29
6036.00,1.29
6034.00,1.29
6032.00,1.29
6030.00,1.29
6028.00,1.29
6026.00,1.29
6024.00,1.29
6022.00,1.29
6020.00,1.29
6018.00,1.29
6016.00,1.29
6014.00,1.29
6012.00,1.29
6010.00,1.30
6008.00,1.30
6006.00,1.30
6004.00,1.30
6002.00,1.30
6000.00,1.29
5998.00,1.29
5996.00,1.29
5994.00,1.29
5992.00,1.29
5990.00,1.29
5988.00,1.29
5986.00,1.29
5984.00,1.29
5982.00,1.29
5980.00,1.29
5978.00,1.29
5976.00,1.29
5974.00,1.29
5972.00,1.29
5970.00,1.29
5968.00,1.28
5966.00,1.28
5964.00,1.28
5962.00,1.28
5960.00,1.28
5958.00,1.28
5956.00,1.28
5954.00,1.28
5952.00,1.28
5950.00,1.28
5948.00,1.28
5946.00,1.27
5944.00,1.27
5942.00,1.27
5940.00,1.27
5938.00,1.27
5936.00,1.27
5934.00,1.27
5932.00,1.27
5930.00,1.27
5928.00,1.27
5926.00,1.27
5924.00,1.27
5922.00,1.27
5920.00,1.27
5918.00,1.27
5916.00,1.27
5914.00,1.27
5912.00,1.27
5910.00,1.27
5908.00,1.27
5906.00,1.27
5904.00,1.27
5902.00,1.27
5900.00,1.27
5898.00,1.27
5896.00,1.27
5894.00,1.27
5892.00,1.27
5890.00,1.28
5888.00,1.28
5886.00,1.28
5884.00,1.28
5882.00,1.28
5880.00,1.28
5878.00,1.28
5876.00,1.28
5874.00,1.28
5872.00,1.28
5870.00,1.28
5868.00,1.28
5866.00,1.28
5864.00,1.28
5862.00,1.29
5860.00,1.29
5858.00,1.29
5856.00,1.29
5854.00,1.29
5852.00,1.29
5850.00,1.29
5848.00,1.29
5846.00,1.29
5844.00,1.29
5842.00,1.29
5840.00,1.29
5838.00,1.29
5836.00,1.29
5834.00,1.29
5832.00,1.29
5830.00,1.29
5828.00,1.29
5826.00,1.29
5824.00,1.29
5822.00,1.29
5820.00,1.29
5818.00,1.29
5816.00,1.28
5814.00,1.28
5812.00,1.28
5810.00,1.28
5808.00,1.28
5806.00,1.28
5804.00,1.28
5802.00,1.28
5800.00,1.28
5798.00,1.28
5796.00,1.28
5794.00,1.28
5792.00,1.28
5790.00,1.28
5788.00,1.28
5786.00,1.28
5784.00,1.28
5782.00,1.28
5780.00,1.28
5778.00,1.28
5776.00,1.28
5774.00,1.28
5772.00,1.28
5770.00,1.28
5768.00,1.28
5766.00,1.28
5764.00,1.28
5762.00,1.28
5760.00,1.28
5758.00,1.28
5756.00,1.28
5754.00,1.28
5752.00,1.28
5750.00,1.28
5748.00,1.28
5746.00,1.28
5744.00,1.28
5742.00,1.28
5740.00,1.28
5738.00,1.28
5736.00,1.28
5734.00,1.28
5732.00,1.28
5730.00,1.28
5728.00,1.28
5726.00,1.28
5724.00,1.28
5722.00,1.28
5720.00,1.28
5718.00,1.28
5716.00,1.28
5714.00,1.28
5712.00,1.28
5710.00,1.28
5708.00,1.28
5706.00,1.28
5704.00,1.28
5702.00,1.28
5700.00,1.27
5698.00,1.27
5696.00,1.27
5694.00,1.27
5692.00,1.27
5690.00,1.27
5688.00,1.27
5686.00,1.27
5684.00,1.27
5682.00,1.27
5680.00,1.27
5678.00,1.27
5676.00,1.27
5674.00,1.27
5672.00,1.27
5670.00,1.27
5668.00,1.27
5666.00,1.27
5664.00,1.27
5662.00,1.27
5660.00,1.27
5658.00,1.27
5656.00,1.27
5654.00,1.27
5652.00,1.27
5650.00,1.27
5648.00,1.27
5646.00,1.27
5644.00,1.27
5642.00,1.27
5640.00,1.27
5638.00,1.27
5636.00,1.27
5634.00,1.27
5632.00,1.27
5630.00,1.27
5628.00,1.27
5626.00,1.27
5624.00,1.27
5622.00,1.27
5620.00,1.27
5618.00,1.27
5616.00,1.27
5614.00,1.27
5612.00,1.27
5610.00,1.27
5608.00,1.27
5606.00,1.27
5604.00,1.27
5602.00,1.27
5600.00,1.27
5598.00,1.27
5596.00,1.27
5594.00,1.27
5592.00,1.27
5590.00,1.27
5588.00,1.27
5586.00,1.27
5584.00,1.27
5582.00,1.27
5580.00,1.27
5578.00,1.28
5576.00,1.28
5574.00,1.28
5572.00,1.28
5570.00,1.28
5568.00,1.28
5566.00,1.28
5564.00,1.28
5562.00,1.28
5560.00,1.28
5558.00,1.28
5556.00,1.28
5554.00,1.28
5552.00,1.28
5550.00,1.28
5548.00,1.28
5546.00,1.28
5544.00,1.28
5542.00,1.29
5540.00,1.29
5538.00,1.29
5536.00,1.29
5534.00,1.29
5532.00,1.29
5530.00,1.29
5528.00,1.29
5526.00,1.29
5524.00,1.29
5522.00,1.29
5520.00,1.29
5518.00,1.29
5516.00,1.29
5514.00,1.29
5512.00,1.29
5510.00,1.29
5508.00,1.29
5506.00,1.29
5504.00,1.29
5502.00,1.29
5500.00,1.29
5498.00,1.29
5496.00,1.29
5494.00,1.29
5492.00,1.29
5490.00,1.29
5488.00,1.29
5486.00,1.29
5484.00,1.29
5482.00,1.29
5480.00,1.29
5478.00,1.29
5476.00,1.29
5474.00,1.29
5472.00,1.29
5470.00,1.29
5468.00,1.29
5466.00,1.29
5464.00,1.29
5462.00,1.29
5460.00,1.29
5458.00,1.29
5456.00,1.29
5454.00,1.29
5452.00,1.29
5450.00,1.29
5448.00,1.29
5446.00,1.29
5444.00,1.29
5442.00,1.29
5440.00,1.29
5438.00,1.29
5436.00,1.29
5434.00,1.29
5432.00,1.29
5430.00,1.29
5428.00,1.29
5426.00,1.29
5424.00,1.29
5422.00,1.29
5420.00,1.29
5418.00,1.29
5416.00,1.29
5414.00,1.29
5412.00,1.29
5410.00,1.29
5408.00,1.29
5406.00,1.28
5404.00,1.28
5402.00,1.28
5400.00,1.28
5398.00,1.28
5396.00,1.28
5394.00,1.28
5392.00,1.27
5390.00,1.27
5388.00,1.27
5386.00,1.27
5384.00,1.26
5382.00,1.26
5380.00,1.26
5378.00,1.25
5376.00,1.25
5374.00,1.25
5372.00,1.24
5370.00,1.24
5368.00,1.23
5366.00,1.23
5364.00,1.22
5362.00,1.22
5360.00,1.21
5358.00,1.21
5356.00,1.20
5354.00,1.19
5352.00,1.18
5350.00,1.18
5348.00,1.17
5346.00,1.16
5344.00,1.15
5342.00,1.14
5340.00,1.13
5338.00,1.12
5336.00,1.11
5334.00,1.10
5332.00,1.09
5330.00,1.08
5328.00,1.07
5326.00,1.06
5324.00,1.05
5322.00,1.04
5320.00,1.03
5318.00,1.02
5316.00,1.01
5314.00,1.00
5312.00,0.98
5310.00,0.97
5308.00,0.96
5306.00,0.95
5304.00,0.94
5302.00,0.93
5300.00,0.92
5298.00,0.91
5296.00,0.90
5294.00,0.88
5292.00,0.87
5290.00,0.86
5288.00,0.85
5286.00,0.84
5284.00,0.83
5282.00,0.82
5280.00,0.82
5278.00,0.81
5276.00,0.80
5274.00,0.79
5272.00,0.78
5270.00,0.78
5268.00,0.77
5266.00,0.76
5264.00,0.76
5262.00,0.75
5260.00,0.74
5258.00,0.74
5256.00,0.74
5254.00,0.73
5252.00,0.73
5250.00,0.72
5248.00,0.72
5246.00,0.72
5244.00,0.71
5242.00,0.71
5240.00,0.71
5238.00,0.71
5236.00,0.71
5234.00,0.70
5232.00,0.70
5230.00,0.70
5228.00,0.70
5226.00,0.70
5224.00,0.70
5222.00,0.69
5220.00,0.69
5218.00,0.69
5216.00,0.69
5214.00,0.69
5212.00,0.69
5210.00,0.69
5208.00,0.69
5206.00,0.68
5204.00,0.68
5202.00,0.68
5200.00,0.68
5198.00,0.68
5196.00,0.68
5194.00,0.68
5192.00,0.68
5190.00,0.68
5188.00,0.68
5186.00,0.68
5184.00,0.68
5182.00,0.68
5180.00,0.68
5178.00,0.68
5176.00,0.68
5174.00,0.68
5172.00,0.68
5170.00,0.68
5168.00,0.68
5166.00,0.68
5164.00,0.68
5162.00,0.68
5160.00,0.69
5158.00,0.69
5156.00,0.69
5154.00,0.69
5152.00,0.69
5150.00,0.69
5148.00,0.69
5146.00,0.69
5144.00,0.69
5142.00,0.70
5140.00,0.70
5138.00,0.70
5136.00,0.70
5134.00,0.70
5132.00,0.70
5130.00,0.70
5128.00,0.70
5126.00,0.71
5124.00,0.71
5122.00,0.71
5120.00,0.71
5118.00,0.71
5116.00,0.71
5114.00,0.72
5112.00,0.72
5110.00,0.72
5108.00,0.72
5106.00,0.72
5104.00,0.73
5102.00,0.73
5100.00,0.73
5098.00,0.73
5096.00,0.73
5094.00,0.73
5092.00,0.74
5090.00,0.74
5088.00,0.74
5086.00,0.74
5084.00,0.74
5082.00,0.75
5080.00,0.75
5078.00,0.75
5076.00,0.75
5074.00,0.76
5072.00,0.76
5070.00,0.76
5068.00,0.76
5066.00,0.76
5064.00,0.77
5062.00,0.77
5060.00,0.77
5058.00,0.77
5056.00,0.78
5054.00,0.78
5052.00,0.78
5050.00,0.78
5048.00,0.79
5046.00,0.79
5044.00,0.79
5042.00,0.79
5040.00,0.80
5038.00,0.80
5036.00,0.80
5034.00,0.80
5032.00,0.81
5030.00,0.81
5028.00,0.81
5026.00,0.81
5024.00,0.82
5022.00,0.82
5020.00,0.82
5018.00,0.82
5016.00,0.83
5014.00,0.83
5012.00,0.83
5010.00,0.84
5008.00,0.84
5006.00,0.84
5004.00,0.84
5002.00,0.85
5000.00,0.85
4998.00,0.85
4996.00,0.85
4994.00,0.86
4992.00,0.86
4990.00,0.86
4988.00,0.86
4986.00,0.87
4984.00,0.87
4982.00,0.87
4980.00,0.87
4978.00,0.88
4976.00,0.88
4974.00,0.88
4972.00,0.89
4970.00,0.89
4968.00,0.89
4966.00,0.89
4964.00,0.90
4962.00,0.90
4960.00,0.90
4958.00,0.90
4956.00,0.91
4954.00,0.91
4952.00,0.91
4950.00,0.91
4948.00,0.92
4946.00,0.92
4944.00,0.92
4942.00,0.92
4940.00,0.93
4938.00,0.93
4936.00,0.93
4934.00,0.94
4932.00,0.94
4930.00,0.94
4928.00,0.94
4926.00,0.95
4924.00,0.95
4922.00,0.95
4920.00,0.95
4918.00,0.96
4916.00,0.96
4914.00,0.96
4912.00,0.96
4910.00,0.96
4908.00,0.97
4906.00,0.97
4904.00,0.97
4902.00,0.97
4900.00,0.98
4898.00,0.98
4896.00,0.98
4894.00,0.98
4892.00,0.98
4890.00,0.99
4888.00,0.99
4886.00,0.99
4884.00,0.99
4882.00,1.00
4880.00,1.00
4878.00,1.00
4876.00,1.00
4874.00,1.01
4872.00,1.01
4870.00,1.01
4868.00,1.01
4866.00,1.02
4864.00,1.02
4862.00,1.02
4860.00,1.02
4858.00,1.03
4856.00,1.03
4854.00,1.03
4852.00,1.03
4850.00,1.03
4848.00,1.04
4846.00,1.04
4844.00,1.04
4842.00,1.04
4840.00,1.05
4838.00,1.05
4836.00,1.05
4834.00,1.05
4832.00,1.05
4830.00,1.06
4828.00,1.06
4826.00,1.06
4824.00,1.06
4822.00,1.07
4820.00,1.07
4818.00,1.07
4816.00,1.07
4814.00,1.08
4812.00,1.08
4810.00,1.08
4808.00,1.08
4806.00,1.09
4804.00,1.09
4802.00,1.09
4800.00,1.09
4798.00,1.10
4796.00,1.10
4794.00,1.10
4792.00,1.10
4790.00,1.11
4788.00,1.11
4786.00,1.11
4784.00,1.12
4782.00,1.12
4780.00,1.12
4778.00,1.12
4776.00,1.12
4774.00,1.13
4772.00,1.13
4770.00,1.13
4768.00,1.13
4766.00,1.14
4764.00,1.14
4762.00,1.14
4760.00,1.14
4758.00,1.14
4756.00,1.15
4754.00,1.15
4752.00,1.15
4750.00,1.15
4748.00,1.15
4746.00,1.16
4744.00,1.16
4742.00,1.16
4740.00,1.16
4738.00,1.17
4736.00,1.17
4734.00,1.17
4732.00,1.17
4730.00,1.17
4728.00,1.18
4726.00,1.18
4724.00,1.18
4722.00,1.18
4720.00,1.19
4718.00,1.19
4716.00,1.19
4714.00,1.19
4712.00,1.20
4710.00,1.20
4708.00,1.20
4706.00,1.20
4704.00,1.20
4702.00,1.21
4700.00,1.21
4698.00,1.21
4696.00,1.21
4694.00,1.21
4692.00,1.22
4690.00,1.22
4688.00,1.22
4686.00,1.22
4684.00,1.22
4682.00,1.22
4680.00,1.23
4678.00,1.23
4676.00,1.23
4674.00,1.23
4672.00,1.23
4670.00,1.23
4668.00,1.23
4666.00,1.24
4664.00,1.24
4662.00,1.24
4660.00,1.24
4658.00,1.24
4656.00,1.24
4654.00,1.24
4652.00,1.24
4650.00,1.25
4648.00,1.25
4646.00,1.25
4644.00,1.25
4642.00,1.25
4640.00,1.25
4638.00,1.25
4636.00,1.25
4634.00,1.26
4632.00,1.26
4630.00,1.26
4628.00,1.26
4626.00,1.26
4624.00,1.26
4622.00,1.26
4620.00,1.26
4618.00,1.26
4616.00,1.27
4614.00,1.27
4612.00,1.27
4610.00,1.27
4608.00,1.27
4606.00,1.27
4604.00,1.27
4602.00,1.27
4600.00,1.27
4598.00,1.27
4596.00,1.28
4594.00,1.28
4592.00,1.28
4590.00,1.28
4588.00,1.28
4586.00,1.28
4584.00,1.28
4582.00,1.28
4580.00,1.28
4578.00,1.28
4576.00,1.28
4574.00,1.28
4572.00,1.28
4570.00,1.28
4568.00,1.28
4566.00,1.28
4564.00,1.28
4562.00,1.28
4560.00,1.28
4558.00,1.28
4556.00,1.28
4554.00,1.28
4552.00,1.28
4550.00,1.29
4548.00,1.29
4546.00,1.29
4544.00,1.29
4542.00,1.29
4540.00,1.29
4538.00,1.29
4536.00,1.29
4534.00,1.29
4532.00,1.29
4530.00,1.29
4528.00,1.29
4526.00,1.29
4524.00,1.29
4522.00,1.29
4520.00,1.29
4518.00,1.29
4516.00,1.29
4514.00,1.29
4512.00,1.29
4510.00,1.30
4508.00,1.30
4506.00,1.30
4504.00,1.30
4502.00,1.30
4500.00,1.30
4498.00,1.30
4496.00,1.30
4494.00,1.30
4492.00,1.30
4490.00,1.30
4488.00,1.30
4486.00,1.30
4484.00,1.30
4482.00,1.30
4480.00,1.30
4478.00,1.29
4476.00,1.29
4474.00,1.29
4472.00,1.29
4470.00,1.29
4468.00,1.29
4466.00,1.29
4464.00,1.29
4462.00,1.29
4460.00,1.28
4458.00,1.28
4456.00,1.28
4454.00,1.28
4452.00,1.27
4450.00,1.27
4448.00,1.27
4446.00,1.26
4444.00,1.26
4442.00,1.25
4440.00,1.25
4438.00,1.25
4436.00,1.24
4434.00,1.24
4432.00,1.23
4430.00,1.23
4428.00,1.23
4426.00,1.22
4424.00,1.22
4422.00,1.22
4420.00,1.22
4418.00,1.21
4416.00,1.21
4414.00,1.21
4412.00,1.21
4410.00,1.21
4408.00,1.22
4406.00,1.22
4404.00,1.22
4402.00,1.22
4400.00,1.22
4398.00,1.23
4396.00,1.23
4394.00,1.23
4392.00,1.24
4390.00,1.24
4388.00,1.24
4386.00,1.24
4384.00,1.25
4382.00,1.25
4380.00,1.25
4378.00,1.25
4376.00,1.25
4374.00,1.25
4372.00,1.25
4370.00,1.25
4368.00,1.25
4366.00,1.25
4364.00,1.24
4362.00,1.24
4360.00,1.24
4358.00,1.24
4356.00,1.24
4354.00,1.24
4352.00,1.24
4350.00,1.23
4348.00,1.23
4346.00,1.23
4344.00,1.23
4342.00,1.23
4340.00,1.24
4338.00,1.24
4336.00,1.24
4334.00,1.24
4332.00,1.24
4330.00,1.24
4328.00,1.25
4326.00,1.25
4324.00,1.25
4322.00,1.26
4320.00,1.26
4318.00,1.26
4316.00,1.27
4314.00,1.27
4312.00,1.27
4310.00,1.28
4308.00,1.28
4306.00,1.28
4304.00,1.28
4302.00,1.29
4300.00,1.29
4298.00,1.29
4296.00,1.29
4294.00,1.29
4292.00,1.29
4290.00,1.29
4288.00,1.29
4286.00,1.29
4284.00,1.29
4282.00,1.29
4280.00,1.29
4278.00,1.29
4276.00,1.29
4274.00,1.29
4272.00,1.29
4270.00,1.28
4268.00,1.28
4266.00,1.28
4264.00,1.28
4262.00,1.28
4260.00,1.28
4258.00,1.28
4256.00,1.28
4254.00,1.28
4252.00,1.28
4250.00,1.28
4248.00,1.28
4246.00,1.28
4244.00,1.28
4242.00,1.28
4240.00,1.29
4238.00,1.29
4236.00,1.29
4234.00,1.29
4232.00,1.29
4230.00,1.29
4228.00,1.29
4226.00,1.29
4224.00,1.29
4222.00,1.29
4220.00,1.29
4218.00,1.29
4216.00,1.29
4214.00,1.29
4212.00,1.29
4210.00,1.29
4208.00,1.29
4206.00,1.29
4204.00,1.29
4202.00,1.29
4200.00,1.29
4198.00,1.29
4196.00,1.29
4194.00,1.29
4192.00,1.29
4190.00,1.29
4188.00,1.29
4186.00,1.29
4184.00,1.29
4182.00,1.29
4180.00,1.29
4178.00,1.28
4176.00,1.28
4174.00,1.28
4172.00,1.28
4170.00,1.28
4168.00,1.28
4166.00,1.28
4164.00,1.28
4162.00,1.28
4160.00,1.28
4158.00,1.28
4156.00,1.28
4154.00,1.28
4152.00,1.28
4150.00,1.28
4148.00,1.28
4146.00,1.28
4144.00,1.28
4142.00,1.27
4140.00,1.27
4138.00,1.27
4136.00,1.27
4134.00,1.27
4132.00,1.27
4130.00,1.27
4128.00,1.27
4126.00,1.27
4124.00,1.27
4122.00,1.27
4120.00,1.27
4118.00,1.27
4116.00,1.27
4114.00,1.27
4112.00,1.27
4110.00,1.27
4108.00,1.27
4106.00,1.27
4104.00,1.27
4102.00,1.27
4100.00,1.27
4098.00,1.27
4096.00,1.26
4094.00,1.26
4092.00,1.26
4090.00,1.26
4088.00,1.26
4086.00,1.26
4084.00,1.26
4082.00,1.26
4080.00,1.26
4078.00,1.26
4076.00,1.26
4074.00,1.25
4072.00,1.25
4070.00,1.25
4068.00,1.25
4066.00,1.25
4064.00,1.25
4062.00,1.25
4060.00,1.25
4058.00,1.25
4056.00,1.26
4054.00,1.26
4052.00,1.26
4050.00,1.26
4048.00,1.26
4046.00,1.26
4044.00,1.26
4042.00,1.26
4040.00,1.26
4038.00,1.26
4036.00,1.26
4034.00,1.26
4032.00,1.26
4030.00,1.26
4028.00,1.26
4026.00,1.27
4024.00,1.27
4022.00,1.27
4020.00,1.27
4018.00,1.27
4016.00,1.27
4014.00,1.28
4012.00,1.28
4010.00,1.28
4008.00,1.29
4006.00,1.29
4004.00,1.29
4002.00,1.29
4000.00,1.30
