创建为新数据集,样品 709 用户 Administrator 日期 星期四, 七月 25 2019
cm-1,%T
10000.00,1.51
9999.00,1.54
9998.00,1.57
9997.00,1.60
9996.00,1.63
9995.00,1.66
9994.00,1.68
9993.00,1.71
9992.00,1.73
9991.00,1.75
9990.00,1.76
9989.00,1.77
9988.00,1.78
9987.00,1.79
9986.00,1.79
9985.00,1.79
9984.00,1.79
9983.00,1.79
9982.00,1.79
9981.00,1.78
9980.00,1.77
9979.00,1.77
9978.00,1.76
9977.00,1.75
9976.00,1.74
9975.00,1.73
9974.00,1.72
9973.00,1.72
9972.00,1.71
9971.00,1.71
9970.00,1.71
9969.00,1.71
9968.00,1.71
9967.00,1.72
9966.00,1.72
9965.00,1.72
9964.00,1.73
9963.00,1.73
9962.00,1.74
9961.00,1.74
9960.00,1.74
9959.00,1.74
9958.00,1.74
9957.00,1.74
9956.00,1.74
9955.00,1.73
9954.00,1.73
9953.00,1.72
9952.00,1.72
9951.00,1.71
9950.00,1.70
9949.00,1.70
9948.00,1.69
9947.00,1.69
9946.00,1.69
9945.00,1.69
9944.00,1.69
9943.00,1.70
9942.00,1.70
9941.00,1.71
9940.00,1.72
9939.00,1.73
9938.00,1.73
9937.00,1.74
9936.00,1.75
9935.00,1.75
9934.00,1.76
9933.00,1.76
9932.00,1.76
9931.00,1.76
9930.00,1.76
9929.00,1.76
9928.00,1.76
9927.00,1.76
9926.00,1.76
9925.00,1.75
9924.00,1.75
9923.00,1.75
9922.00,1.74
9921.00,1.74
9920.00,1.74
9919.00,1.73
9918.00,1.73
9917.00,1.73
9916.00,1.72
9915.00,1.72
9914.00,1.71
9913.00,1.70
9912.00,1.69
9911.00,1.68
9910.00,1.67
9909.00,1.65
9908.00,1.64
9907.00,1.62
9906.00,1.60
9905.00,1.59
9904.00,1.57
9903.00,1.56
9902.00,1.55
9901.00,1.54
9900.00,1.53
9899.00,1.52
9898.00,1.51
9897.00,1.50
9896.00,1.50
9895.00,1.50
9894.00,1.50
9893.00,1.50
9892.00,1.51
9891.00,1.52
9890.00,1.53
9889.00,1.54
9888.00,1.55
9887.00,1.56
9886.00,1.57
9885.00,1.58
9884.00,1.59
9883.00,1.61
9882.00,1.62
9881.00,1.63
9880.00,1.64
9879.00,1.65
9878.00,1.66
9877.00,1.67
9876.00,1.68
9875.00,1.69
9874.00,1.70
9873.00,1.71
9872.00,1.72
9871.00,1.73
9870.00,1.73
9869.00,1.74
9868.00,1.74
9867.00,1.74
9866.00,1.74
9865.00,1.74
9864.00,1.74
9863.00,1.73
9862.00,1.73
9861.00,1.72
9860.00,1.72
9859.00,1.71
9858.00,1.70
9857.00,1.70
9856.00,1.69
9855.00,1.68
9854.00,1.68
9853.00,1.67
9852.00,1.67
9851.00,1.66
9850.00,1.66
9849.00,1.65
9848.00,1.65
9847.00,1.65
9846.00,1.64
9845.00,1.64
9844.00,1.63
9843.00,1.63
9842.00,1.63
9841.00,1.62
9840.00,1.62
9839.00,1.62
9838.00,1.61
9837.00,1.61
9836.00,1.61
9835.00,1.60
9834.00,1.60
9833.00,1.60
9832.00,1.60
9831.00,1.61
9830.00,1.61
9829.00,1.61
9828.00,1.62
9827.00,1.62
9826.00,1.63
9825.00,1.63
9824.00,1.63
9823.00,1.64
9822.00,1.64
9821.00,1.64
9820.00,1.64
9819.00,1.63
9818.00,1.63
9817.00,1.62
9816.00,1.62
9815.00,1.61
9814.00,1.60
9813.00,1.60
9812.00,1.59
9811.00,1.58
9810.00,1.57
9809.00,1.56
9808.00,1.55
9807.00,1.54
9806.00,1.54
9805.00,1.53
9804.00,1.53
9803.00,1.53
9802.00,1.53
9801.00,1.54
9800.00,1.54
9799.00,1.55
9798.00,1.55
9797.00,1.56
9796.00,1.56
9795.00,1.57
9794.00,1.57
9793.00,1.58
9792.00,1.59
9791.00,1.59
9790.00,1.60
9789.00,1.61
9788.00,1.61
9787.00,1.62
9786.00,1.62
9785.00,1.62
9784.00,1.62
9783.00,1.62
9782.00,1.62
9781.00,1.62
9780.00,1.62
9779.00,1.62
9778.00,1.62
9777.00,1.62
9776.00,1.63
9775.00,1.63
9774.00,1.63
9773.00,1.63
9772.00,1.64
9771.00,1.64
9770.00,1.65
9769.00,1.65
9768.00,1.66
9767.00,1.67
9766.00,1.68
9765.00,1.69
9764.00,1.70
9763.00,1.71
9762.00,1.72
9761.00,1.72
9760.00,1.73
9759.00,1.74
9758.00,1.75
9757.00,1.75
9756.00,1.75
9755.00,1.76
9754.00,1.76
9753.00,1.76
9752.00,1.76
9751.00,1.77
9750.00,1.77
9749.00,1.77
9748.00,1.77
9747.00,1.77
9746.00,1.76
9745.00,1.76
9744.00,1.76
9743.00,1.76
9742.00,1.75
9741.00,1.75
9740.00,1.74
9739.00,1.73
9738.00,1.72
9737.00,1.71
9736.00,1.70
9735.00,1.69
9734.00,1.67
9733.00,1.65
9732.00,1.63
9731.00,1.62
9730.00,1.60
9729.00,1.58
9728.00,1.56
9727.00,1.55
9726.00,1.53
9725.00,1.52
9724.00,1.52
9723.00,1.51
9722.00,1.51
9721.00,1.51
9720.00,1.51
9719.00,1.52
9718.00,1.52
9717.00,1.53
9716.00,1.55
9715.00,1.56
9714.00,1.57
9713.00,1.59
9712.00,1.60
9711.00,1.62
9710.00,1.63
9709.00,1.65
9708.00,1.66
9707.00,1.67
9706.00,1.68
9705.00,1.69
9704.00,1.69
9703.00,1.70
9702.00,1.70
9701.00,1.70
9700.00,1.70
9699.00,1.70
9698.00,1.70
9697.00,1.69
9696.00,1.69
9695.00,1.68
9694.00,1.68
9693.00,1.67
9692.00,1.66
9691.00,1.65
9690.00,1.64
9689.00,1.63
9688.00,1.62
9687.00,1.61
9686.00,1.61
9685.00,1.60
9684.00,1.60
9683.00,1.59
9682.00,1.59
9681.00,1.59
9680.00,1.58
9679.00,1.58
9678.00,1.58
9677.00,1.58
9676.00,1.58
9675.00,1.58
9674.00,1.59
9673.00,1.59
9672.00,1.59
9671.00,1.59
9670.00,1.59
9669.00,1.60
9668.00,1.60
9667.00,1.60
9666.00,1.60
9665.00,1.60
9664.00,1.60
9663.00,1.60
9662.00,1.60
9661.00,1.61
9660.00,1.61
9659.00,1.62
9658.00,1.63
9657.00,1.64
9656.00,1.65
9655.00,1.67
9654.00,1.68
9653.00,1.69
9652.00,1.71
9651.00,1.72
9650.00,1.73
9649.00,1.74
9648.00,1.75
9647.00,1.76
9646.00,1.76
9645.00,1.77
9644.00,1.77
9643.00,1.76
9642.00,1.76
9641.00,1.75
9640.00,1.74
9639.00,1.72
9638.00,1.71
9637.00,1.69
9636.00,1.67
9635.00,1.66
9634.00,1.64
9633.00,1.62
9632.00,1.61
9631.00,1.59
9630.00,1.58
9629.00,1.57
9628.00,1.56
9627.00,1.55
9626.00,1.54
9625.00,1.54
9624.00,1.53
9623.00,1.53
9622.00,1.52
9621.00,1.52
9620.00,1.52
9619.00,1.52
9618.00,1.52
9617.00,1.52
9616.00,1.52
9615.00,1.52
9614.00,1.53
9613.00,1.53
9612.00,1.53
9611.00,1.53
9610.00,1.54
9609.00,1.54
9608.00,1.54
9607.00,1.55
9606.00,1.56
9605.00,1.56
9604.00,1.57
9603.00,1.58
9602.00,1.59
9601.00,1.59
9600.00,1.60
9599.00,1.61
9598.00,1.61
9597.00,1.61
9596.00,1.62
9595.00,1.62
9594.00,1.62
9593.00,1.62
9592.00,1.62
9591.00,1.62
9590.00,1.62
9589.00,1.62
9588.00,1.62
9587.00,1.62
9586.00,1.62
9585.00,1.62
9584.00,1.62
9583.00,1.63
9582.00,1.63
9581.00,1.64
9580.00,1.65
9579.00,1.66
9578.00,1.67
9577.00,1.68
9576.00,1.69
9575.00,1.69
9574.00,1.70
9573.00,1.70
9572.00,1.71
9571.00,1.71
9570.00,1.71
9569.00,1.71
9568.00,1.71
9567.00,1.71
9566.00,1.70
9565.00,1.69
9564.00,1.68
9563.00,1.67
9562.00,1.66
9561.00,1.65
9560.00,1.64
9559.00,1.64
9558.00,1.63
9557.00,1.63
9556.00,1.63
9555.00,1.63
9554.00,1.63
9553.00,1.63
9552.00,1.64
9551.00,1.64
9550.00,1.65
9549.00,1.66
9548.00,1.67
9547.00,1.67
9546.00,1.68
9545.00,1.69
9544.00,1.69
9543.00,1.70
9542.00,1.70
9541.00,1.71
9540.00,1.71
9539.00,1.71
9538.00,1.71
9537.00,1.70
9536.00,1.70
9535.00,1.70
9534.00,1.70
9533.00,1.70
9532.00,1.70
9531.00,1.70
9530.00,1.70
9529.00,1.70
9528.00,1.70
9527.00,1.70
9526.00,1.71
9525.00,1.71
9524.00,1.71
9523.00,1.72
9522.00,1.72
9521.00,1.72
9520.00,1.72
9519.00,1.72
9518.00,1.72
9517.00,1.72
9516.00,1.72
9515.00,1.72
9514.00,1.71
9513.00,1.71
9512.00,1.70
9511.00,1.70
9510.00,1.70
9509.00,1.69
9508.00,1.69
9507.00,1.68
9506.00,1.67
9505.00,1.67
9504.00,1.66
9503.00,1.66
9502.00,1.65
9501.00,1.65
9500.00,1.65
9499.00,1.64
9498.00,1.64
9497.00,1.64
9496.00,1.64
9495.00,1.64
9494.00,1.64
9493.00,1.64
9492.00,1.64
9491.00,1.64
9490.00,1.65
9489.00,1.65
9488.00,1.65
9487.00,1.66
9486.00,1.66
9485.00,1.67
9484.00,1.67
9483.00,1.67
9482.00,1.67
9481.00,1.67
9480.00,1.67
9479.00,1.67
9478.00,1.67
9477.00,1.67
9476.00,1.66
9475.00,1.66
9474.00,1.65
9473.00,1.65
9472.00,1.64
9471.00,1.63
9470.00,1.62
9469.00,1.62
9468.00,1.61
9467.00,1.61
9466.00,1.60
9465.00,1.60
9464.00,1.60
9463.00,1.59
9462.00,1.59
9461.00,1.60
9460.00,1.60
9459.00,1.60
9458.00,1.61
9457.00,1.62
9456.00,1.62
9455.00,1.63
9454.00,1.64
9453.00,1.65
9452.00,1.66
9451.00,1.67
9450.00,1.67
9449.00,1.68
9448.00,1.68
9447.00,1.68
9446.00,1.68
9445.00,1.67
9444.00,1.67
9443.00,1.66
9442.00,1.65
9441.00,1.64
9440.00,1.62
9439.00,1.61
9438.00,1.59
9437.00,1.58
9436.00,1.57
9435.00,1.56
9434.00,1.54
9433.00,1.54
9432.00,1.53
9431.00,1.53
9430.00,1.53
9429.00,1.53
9428.00,1.54
9427.00,1.55
9426.00,1.56
9425.00,1.57
9424.00,1.59
9423.00,1.61
9422.00,1.62
9421.00,1.64
9420.00,1.65
9419.00,1.67
9418.00,1.68
9417.00,1.70
9416.00,1.71
9415.00,1.72
9414.00,1.73
9413.00,1.74
9412.00,1.74
9411.00,1.75
9410.00,1.75
9409.00,1.75
9408.00,1.75
9407.00,1.75
9406.00,1.75
9405.00,1.75
9404.00,1.75
9403.00,1.74
9402.00,1.74
9401.00,1.73
9400.00,1.73
9399.00,1.72
9398.00,1.71
9397.00,1.70
9396.00,1.69
9395.00,1.68
9394.00,1.67
9393.00,1.66
9392.00,1.65
9391.00,1.64
9390.00,1.63
9389.00,1.62
9388.00,1.61
9387.00,1.60
9386.00,1.59
9385.00,1.58
9384.00,1.57
9383.00,1.56
9382.00,1.55
9381.00,1.55
9380.00,1.54
9379.00,1.54
9378.00,1.53
9377.00,1.53
9376.00,1.53
9375.00,1.52
9374.00,1.52
9373.00,1.52
9372.00,1.52
9371.00,1.52
9370.00,1.53
9369.00,1.53
9368.00,1.54
9367.00,1.55
9366.00,1.56
9365.00,1.58
9364.00,1.59
9363.00,1.60
9362.00,1.62
9361.00,1.63
9360.00,1.65
9359.00,1.66
9358.00,1.68
9357.00,1.69
9356.00,1.70
9355.00,1.71
9354.00,1.72
9353.00,1.72
9352.00,1.73
9351.00,1.73
9350.00,1.73
9349.00,1.73
9348.00,1.72
9347.00,1.72
9346.00,1.72
9345.00,1.72
9344.00,1.71
9343.00,1.71
9342.00,1.71
9341.00,1.70
9340.00,1.70
9339.00,1.70
9338.00,1.69
9337.00,1.69
9336.00,1.69
9335.00,1.68
9334.00,1.68
9333.00,1.67
9332.00,1.67
9331.00,1.67
9330.00,1.66
9329.00,1.66
9328.00,1.66
9327.00,1.66
9326.00,1.66
9325.00,1.66
9324.00,1.66
9323.00,1.67
9322.00,1.67
9321.00,1.68
9320.00,1.68
9319.00,1.69
9318.00,1.70
9317.00,1.71
9316.00,1.72
9315.00,1.72
9314.00,1.73
9313.00,1.73
9312.00,1.74
9311.00,1.73
9310.00,1.73
9309.00,1.73
9308.00,1.72
9307.00,1.71
9306.00,1.70
9305.00,1.69
9304.00,1.68
9303.00,1.67
9302.00,1.65
9301.00,1.63
9300.00,1.62
9299.00,1.60
9298.00,1.59
9297.00,1.57
9296.00,1.56
9295.00,1.55
9294.00,1.54
9293.00,1.53
9292.00,1.52
9291.00,1.51
9290.00,1.50
9289.00,1.50
9288.00,1.50
9287.00,1.49
9286.00,1.49
9285.00,1.50
9284.00,1.50
9283.00,1.50
9282.00,1.51
9281.00,1.52
9280.00,1.53
9279.00,1.54
9278.00,1.55
9277.00,1.56
9276.00,1.57
9275.00,1.58
9274.00,1.59
9273.00,1.60
9272.00,1.62
9271.00,1.63
9270.00,1.64
9269.00,1.65
9268.00,1.66
9267.00,1.67
9266.00,1.68
9265.00,1.68
9264.00,1.69
9263.00,1.69
9262.00,1.70
9261.00,1.70
9260.00,1.71
9259.00,1.71
9258.00,1.71
9257.00,1.72
9256.00,1.72
9255.00,1.72
9254.00,1.72
9253.00,1.73
9252.00,1.73
9251.00,1.73
9250.00,1.73
9249.00,1.73
9248.00,1.73
9247.00,1.72
9246.00,1.72
9245.00,1.72
9244.00,1.71
9243.00,1.71
9242.00,1.70
9241.00,1.69
9240.00,1.68
9239.00,1.67
9238.00,1.66
9237.00,1.65
9236.00,1.64
9235.00,1.63
9234.00,1.62
9233.00,1.61
9232.00,1.60
9231.00,1.59
9230.00,1.59
9229.00,1.58
9228.00,1.58
9227.00,1.57
9226.00,1.57
9225.00,1.57
9224.00,1.57
9223.00,1.58
9222.00,1.58
9221.00,1.58
9220.00,1.59
9219.00,1.59
9218.00,1.59
9217.00,1.60
9216.00,1.60
9215.00,1.60
9214.00,1.60
9213.00,1.60
9212.00,1.61
9211.00,1.61
9210.00,1.61
9209.00,1.61
9208.00,1.61
9207.00,1.61
9206.00,1.60
9205.00,1.60
9204.00,1.60
9203.00,1.60
9202.00,1.59
9201.00,1.59
9200.00,1.59
9199.00,1.59
9198.00,1.59
9197.00,1.59
9196.00,1.60
9195.00,1.60
9194.00,1.60
9193.00,1.60
9192.00,1.60
9191.00,1.61
9190.00,1.61
9189.00,1.61
9188.00,1.62
9187.00,1.63
9186.00,1.63
9185.00,1.64
9184.00,1.65
9183.00,1.65
9182.00,1.66
9181.00,1.67
9180.00,1.67
9179.00,1.68
9178.00,1.68
9177.00,1.69
9176.00,1.69
9175.00,1.70
9174.00,1.71
9173.00,1.71
9172.00,1.71
9171.00,1.71
9170.00,1.72
9169.00,1.72
9168.00,1.72
9167.00,1.71
9166.00,1.71
9165.00,1.71
9164.00,1.71
9163.00,1.71
9162.00,1.70
9161.00,1.70
9160.00,1.70
9159.00,1.69
9158.00,1.69
9157.00,1.69
9156.00,1.69
9155.00,1.69
9154.00,1.69
9153.00,1.69
9152.00,1.69
9151.00,1.69
9150.00,1.69
9149.00,1.70
9148.00,1.70
9147.00,1.70
9146.00,1.70
9145.00,1.70
9144.00,1.69
9143.00,1.69
9142.00,1.69
9141.00,1.68
9140.00,1.68
9139.00,1.67
9138.00,1.67
9137.00,1.66
9136.00,1.65
9135.00,1.64
9134.00,1.63
9133.00,1.63
9132.00,1.62
9131.00,1.61
9130.00,1.61
9129.00,1.60
9128.00,1.60
9127.00,1.60
9126.00,1.60
9125.00,1.60
9124.00,1.60
9123.00,1.60
9122.00,1.61
9121.00,1.61
9120.00,1.62
9119.00,1.62
9118.00,1.63
9117.00,1.64
9116.00,1.64
9115.00,1.65
9114.00,1.66
9113.00,1.67
9112.00,1.68
9111.00,1.68
9110.00,1.69
9109.00,1.70
9108.00,1.71
9107.00,1.71
9106.00,1.72
9105.00,1.72
9104.00,1.72
9103.00,1.73
9102.00,1.73
9101.00,1.73
9100.00,1.73
9099.00,1.73
9098.00,1.73
9097.00,1.72
9096.00,1.72
9095.00,1.71
9094.00,1.70
9093.00,1.70
9092.00,1.69
9091.00,1.68
9090.00,1.68
9089.00,1.67
9088.00,1.66
9087.00,1.66
9086.00,1.65
9085.00,1.65
9084.00,1.64
9083.00,1.64
9082.00,1.63
9081.00,1.63
9080.00,1.63
9079.00,1.63
9078.00,1.63
9077.00,1.62
9076.00,1.62
9075.00,1.63
9074.00,1.63
9073.00,1.63
9072.00,1.63
9071.00,1.63
9070.00,1.64
9069.00,1.64
9068.00,1.64
9067.00,1.65
9066.00,1.65
9065.00,1.66
9064.00,1.66
9063.00,1.67
9062.00,1.68
9061.00,1.69
9060.00,1.69
9059.00,1.70
9058.00,1.71
9057.00,1.72
9056.00,1.72
9055.00,1.73
9054.00,1.73
9053.00,1.74
9052.00,1.74
9051.00,1.75
9050.00,1.75
9049.00,1.75
9048.00,1.75
9047.00,1.75
9046.00,1.75
9045.00,1.75
9044.00,1.75
9043.00,1.75
9042.00,1.75
9041.00,1.75
9040.00,1.76
9039.00,1.76
9038.00,1.76
9037.00,1.76
9036.00,1.77
9035.00,1.77
9034.00,1.78
9033.00,1.78
9032.00,1.79
9031.00,1.79
9030.00,1.79
9029.00,1.80
9028.00,1.80
9027.00,1.80
9026.00,1.79
9025.00,1.79
9024.00,1.78
9023.00,1.78
9022.00,1.77
9021.00,1.76
9020.00,1.75
9019.00,1.74
9018.00,1.73
9017.00,1.73
9016.00,1.72
9015.00,1.71
9014.00,1.70
9013.00,1.70
9012.00,1.69
9011.00,1.69
9010.00,1.69
9009.00,1.68
9008.00,1.68
9007.00,1.68
9006.00,1.68
9005.00,1.68
9004.00,1.68
9003.00,1.68
9002.00,1.68
9001.00,1.67
9000.00,1.67
8999.00,1.67
8998.00,1.67
8997.00,1.66
8996.00,1.66
8995.00,1.65
8994.00,1.65
8993.00,1.64
8992.00,1.64
8991.00,1.63
8990.00,1.63
8989.00,1.62
8988.00,1.61
8987.00,1.61
8986.00,1.60
8985.00,1.59
8984.00,1.58
8983.00,1.58
8982.00,1.57
8981.00,1.56
8980.00,1.56
8979.00,1.55
8978.00,1.55
8977.00,1.54
8976.00,1.54
8975.00,1.54
8974.00,1.54
8973.00,1.54
8972.00,1.54
8971.00,1.54
8970.00,1.55
8969.00,1.55
8968.00,1.56
8967.00,1.56
8966.00,1.57
8965.00,1.58
8964.00,1.59
8963.00,1.60
8962.00,1.62
8961.00,1.63
8960.00,1.64
8959.00,1.65
8958.00,1.66
8957.00,1.67
8956.00,1.68
8955.00,1.69
8954.00,1.70
8953.00,1.70
8952.00,1.71
8951.00,1.71
8950.00,1.71
8949.00,1.71
8948.00,1.71
8947.00,1.71
8946.00,1.70
8945.00,1.70
8944.00,1.70
8943.00,1.69
8942.00,1.69
8941.00,1.68
8940.00,1.68
8939.00,1.68
8938.00,1.67
8937.00,1.67
8936.00,1.67
8935.00,1.66
8934.00,1.66
8933.00,1.66
8932.00,1.65
8931.00,1.65
8930.00,1.65
8929.00,1.64
8928.00,1.64
8927.00,1.64
8926.00,1.63
8925.00,1.63
8924.00,1.63
8923.00,1.63
8922.00,1.62
8921.00,1.62
8920.00,1.62
8919.00,1.62
8918.00,1.62
8917.00,1.62
8916.00,1.63
8915.00,1.63
8914.00,1.63
8913.00,1.64
8912.00,1.64
8911.00,1.64
8910.00,1.65
8909.00,1.65
8908.00,1.66
8907.00,1.66
8906.00,1.66
8905.00,1.66
8904.00,1.67
8903.00,1.67
8902.00,1.67
8901.00,1.67
8900.00,1.67
8899.00,1.67
8898.00,1.68
8897.00,1.68
8896.00,1.68
8895.00,1.68
8894.00,1.68
8893.00,1.68
8892.00,1.68
8891.00,1.69
8890.00,1.69
8889.00,1.69
8888.00,1.69
8887.00,1.69
8886.00,1.70
8885.00,1.70
8884.00,1.70
8883.00,1.70
8882.00,1.70
8881.00,1.71
8880.00,1.71
8879.00,1.71
8878.00,1.71
8877.00,1.71
8876.00,1.71
8875.00,1.72
8874.00,1.72
8873.00,1.72
8872.00,1.72
8871.00,1.72
8870.00,1.72
8869.00,1.72
8868.00,1.73
8867.00,1.73
8866.00,1.73
8865.00,1.73
8864.00,1.72
8863.00,1.72
8862.00,1.72
8861.00,1.72
8860.00,1.72
8859.00,1.72
8858.00,1.72
8857.00,1.71
8856.00,1.71
8855.00,1.71
8854.00,1.70
8853.00,1.70
8852.00,1.70
8851.00,1.69
8850.00,1.69
8849.00,1.69
8848.00,1.69
8847.00,1.69
8846.00,1.69
8845.00,1.69
8844.00,1.69
8843.00,1.70
8842.00,1.70
8841.00,1.70
8840.00,1.70
8839.00,1.71
8838.00,1.71
8837.00,1.71
8836.00,1.71
8835.00,1.71
8834.00,1.71
8833.00,1.70
8832.00,1.70
8831.00,1.69
8830.00,1.68
8829.00,1.66
8828.00,1.65
8827.00,1.64
8826.00,1.62
8825.00,1.61
8824.00,1.59
8823.00,1.58
8822.00,1.57
8821.00,1.56
8820.00,1.55
8819.00,1.54
8818.00,1.54
8817.00,1.53
8816.00,1.53
8815.00,1.54
8814.00,1.54
8813.00,1.54
8812.00,1.55
8811.00,1.56
8810.00,1.57
8809.00,1.58
8808.00,1.58
8807.00,1.59
8806.00,1.60
8805.00,1.61
8804.00,1.62
8803.00,1.62
8802.00,1.63
8801.00,1.63
8800.00,1.63
8799.00,1.63
8798.00,1.63
8797.00,1.63
8796.00,1.63
8795.00,1.63
8794.00,1.63
8793.00,1.62
8792.00,1.62
8791.00,1.62
8790.00,1.62
8789.00,1.62
8788.00,1.61
8787.00,1.61
8786.00,1.61
8785.00,1.61
8784.00,1.61
8783.00,1.61
8782.00,1.61
8781.00,1.61
8780.00,1.62
8779.00,1.62
8778.00,1.62
8777.00,1.63
8776.00,1.63
8775.00,1.63
8774.00,1.63
8773.00,1.63
8772.00,1.63
8771.00,1.63
8770.00,1.64
8769.00,1.64
8768.00,1.64
8767.00,1.64
8766.00,1.64
8765.00,1.64
8764.00,1.64
8763.00,1.64
8762.00,1.64
8761.00,1.64
8760.00,1.64
8759.00,1.64
8758.00,1.64
8757.00,1.64
8756.00,1.64
8755.00,1.64
8754.00,1.64
8753.00,1.64
8752.00,1.64
8751.00,1.64
8750.00,1.64
8749.00,1.64
8748.00,1.65
8747.00,1.65
8746.00,1.65
8745.00,1.66
8744.00,1.66
8743.00,1.66
8742.00,1.67
8741.00,1.67
8740.00,1.67
8739.00,1.67
8738.00,1.67
8737.00,1.68
8736.00,1.68
8735.00,1.68
8734.00,1.68
8733.00,1.67
8732.00,1.67
8731.00,1.67
8730.00,1.67
8729.00,1.67
8728.00,1.67
8727.00,1.67
8726.00,1.67
8725.00,1.67
8724.00,1.68
8723.00,1.68
8722.00,1.69
8721.00,1.69
8720.00,1.70
8719.00,1.71
8718.00,1.71
8717.00,1.72
8716.00,1.73
8715.00,1.73
8714.00,1.74
8713.00,1.74
8712.00,1.75
8711.00,1.75
8710.00,1.75
8709.00,1.75
8708.00,1.75
8707.00,1.75
8706.00,1.75
8705.00,1.74
8704.00,1.74
8703.00,1.73
8702.00,1.72
8701.00,1.72
8700.00,1.71
8699.00,1.70
8698.00,1.70
8697.00,1.69
8696.00,1.68
8695.00,1.68
8694.00,1.67
8693.00,1.66
8692.00,1.65
8691.00,1.64
8690.00,1.64
8689.00,1.63
8688.00,1.63
8687.00,1.62
8686.00,1.62
8685.00,1.61
8684.00,1.61
8683.00,1.61
8682.00,1.60
8681.00,1.60
8680.00,1.60
8679.00,1.59
8678.00,1.59
8677.00,1.59
8676.00,1.59
8675.00,1.59
8674.00,1.59
8673.00,1.59
8672.00,1.59
8671.00,1.59
8670.00,1.59
8669.00,1.59
8668.00,1.59
8667.00,1.59
8666.00,1.59
8665.00,1.59
8664.00,1.59
8663.00,1.59
8662.00,1.59
8661.00,1.59
8660.00,1.59
8659.00,1.59
8658.00,1.58
8657.00,1.58
8656.00,1.58
8655.00,1.58
8654.00,1.58
8653.00,1.57
8652.00,1.57
8651.00,1.57
8650.00,1.56
8649.00,1.56
8648.00,1.56
8647.00,1.56
8646.00,1.55
8645.00,1.55
8644.00,1.55
8643.00,1.54
8642.00,1.54
8641.00,1.53
8640.00,1.53
8639.00,1.53
8638.00,1.53
8637.00,1.52
8636.00,1.52
8635.00,1.52
8634.00,1.52
8633.00,1.52
8632.00,1.52
8631.00,1.53
8630.00,1.53
8629.00,1.53
8628.00,1.54
8627.00,1.55
8626.00,1.56
8625.00,1.56
8624.00,1.57
8623.00,1.58
8622.00,1.59
8621.00,1.60
8620.00,1.61
8619.00,1.62
8618.00,1.63
8617.00,1.63
8616.00,1.64
8615.00,1.64
8614.00,1.64
8613.00,1.64
8612.00,1.64
8611.00,1.64
8610.00,1.63
8609.00,1.63
8608.00,1.62
8607.00,1.62
8606.00,1.61
8605.00,1.60
8604.00,1.59
8603.00,1.59
8602.00,1.58
8601.00,1.57
8600.00,1.56
8599.00,1.56
8598.00,1.55
8597.00,1.55
8596.00,1.54
8595.00,1.54
8594.00,1.54
8593.00,1.54
8592.00,1.54
8591.00,1.54
8590.00,1.54
8589.00,1.54
8588.00,1.55
8587.00,1.55
8586.00,1.55
8585.00,1.55
8584.00,1.56
8583.00,1.56
8582.00,1.57
8581.00,1.57
8580.00,1.58
8579.00,1.58
8578.00,1.58
8577.00,1.58
8576.00,1.58
8575.00,1.59
8574.00,1.59
8573.00,1.59
8572.00,1.59
8571.00,1.59
8570.00,1.58
8569.00,1.58
8568.00,1.58
8567.00,1.58
8566.00,1.58
8565.00,1.57
8564.00,1.57
8563.00,1.56
8562.00,1.56
8561.00,1.55
8560.00,1.55
8559.00,1.55
8558.00,1.54
8557.00,1.54
8556.00,1.54
8555.00,1.54
8554.00,1.54
8553.00,1.54
8552.00,1.54
8551.00,1.55
8550.00,1.55
8549.00,1.56
8548.00,1.57
8547.00,1.58
8546.00,1.59
8545.00,1.60
8544.00,1.61
8543.00,1.62
8542.00,1.63
8541.00,1.64
8540.00,1.66
8539.00,1.66
8538.00,1.67
8537.00,1.68
8536.00,1.68
8535.00,1.69
8534.00,1.69
8533.00,1.69
8532.00,1.69
8531.00,1.69
8530.00,1.69
8529.00,1.68
8528.00,1.68
8527.00,1.67
8526.00,1.66
8525.00,1.66
8524.00,1.65
8523.00,1.64
8522.00,1.64
8521.00,1.63
8520.00,1.63
8519.00,1.62
8518.00,1.62
8517.00,1.62
8516.00,1.62
8515.00,1.62
8514.00,1.62
8513.00,1.62
8512.00,1.62
8511.00,1.62
8510.00,1.62
8509.00,1.63
8508.00,1.63
8507.00,1.63
8506.00,1.63
8505.00,1.63
8504.00,1.63
8503.00,1.62
8502.00,1.62
8501.00,1.62
8500.00,1.61
8499.00,1.60
8498.00,1.60
8497.00,1.59
8496.00,1.58
8495.00,1.57
8494.00,1.57
8493.00,1.56
8492.00,1.56
8491.00,1.55
8490.00,1.55
8489.00,1.54
8488.00,1.54
8487.00,1.53
8486.00,1.53
8485.00,1.53
8484.00,1.52
8483.00,1.52
8482.00,1.52
8481.00,1.52
8480.00,1.52
8479.00,1.52
8478.00,1.52
8477.00,1.52
8476.00,1.51
8475.00,1.51
8474.00,1.51
8473.00,1.50
8472.00,1.50
8471.00,1.50
8470.00,1.50
8469.00,1.49
8468.00,1.49
8467.00,1.49
8466.00,1.49
8465.00,1.48
8464.00,1.48
8463.00,1.48
8462.00,1.48
8461.00,1.48
8460.00,1.48
8459.00,1.48
8458.00,1.48
8457.00,1.48
8456.00,1.48
8455.00,1.49
8454.00,1.49
8453.00,1.49
8452.00,1.50
8451.00,1.50
8450.00,1.51
8449.00,1.51
8448.00,1.52
8447.00,1.52
8446.00,1.52
8445.00,1.53
8444.00,1.53
8443.00,1.53
8442.00,1.53
8441.00,1.53
8440.00,1.53
8439.00,1.53
8438.00,1.53
8437.00,1.53
8436.00,1.53
8435.00,1.53
8434.00,1.53
8433.00,1.53
8432.00,1.53
8431.00,1.52
8430.00,1.52
8429.00,1.52
8428.00,1.51
8427.00,1.51
8426.00,1.50
8425.00,1.50
8424.00,1.49
8423.00,1.48
8422.00,1.48
8421.00,1.47
8420.00,1.46
8419.00,1.46
8418.00,1.45
8417.00,1.45
8416.00,1.44
8415.00,1.44
8414.00,1.43
8413.00,1.43
8412.00,1.43
8411.00,1.43
8410.00,1.44
8409.00,1.44
8408.00,1.45
8407.00,1.46
8406.00,1.47
8405.00,1.47
8404.00,1.48
8403.00,1.49
8402.00,1.50
8401.00,1.52
8400.00,1.53
8399.00,1.54
8398.00,1.55
8397.00,1.56
8396.00,1.57
8395.00,1.58
8394.00,1.58
8393.00,1.59
8392.00,1.60
8391.00,1.60
8390.00,1.60
8389.00,1.61
8388.00,1.61
8387.00,1.61
8386.00,1.61
8385.00,1.61
8384.00,1.61
8383.00,1.61
8382.00,1.61
8381.00,1.60
8380.00,1.60
8379.00,1.59
8378.00,1.59
8377.00,1.59
8376.00,1.58
8375.00,1.58
8374.00,1.57
8373.00,1.57
8372.00,1.56
8371.00,1.56
8370.00,1.56
8369.00,1.56
8368.00,1.56
8367.00,1.56
8366.00,1.56
8365.00,1.56
8364.00,1.56
8363.00,1.56
8362.00,1.57
8361.00,1.57
8360.00,1.57
8359.00,1.57
8358.00,1.57
8357.00,1.57
8356.00,1.58
8355.00,1.58
8354.00,1.58
8353.00,1.58
8352.00,1.57
8351.00,1.57
8350.00,1.57
8349.00,1.57
8348.00,1.57
8347.00,1.57
8346.00,1.56
8345.00,1.56
8344.00,1.56
8343.00,1.57
8342.00,1.57
8341.00,1.57
8340.00,1.57
8339.00,1.58
8338.00,1.58
8337.00,1.58
8336.00,1.59
8335.00,1.59
8334.00,1.60
8333.00,1.60
8332.00,1.60
8331.00,1.61
8330.00,1.61
8329.00,1.61
8328.00,1.61
8327.00,1.61
8326.00,1.61
8325.00,1.61
8324.00,1.60
8323.00,1.60
8322.00,1.60
8321.00,1.59
8320.00,1.59
8319.00,1.58
8318.00,1.57
8317.00,1.57
8316.00,1.56
8315.00,1.55
8314.00,1.55
8313.00,1.54
8312.00,1.54
8311.00,1.53
8310.00,1.53
8309.00,1.52
8308.00,1.52
8307.00,1.52
8306.00,1.51
8305.00,1.51
8304.00,1.51
8303.00,1.51
8302.00,1.50
8301.00,1.50
8300.00,1.50
8299.00,1.50
8298.00,1.51
8297.00,1.51
8296.00,1.51
8295.00,1.51
8294.00,1.51
8293.00,1.51
8292.00,1.51
8291.00,1.51
8290.00,1.51
8289.00,1.51
8288.00,1.51
8287.00,1.51
8286.00,1.51
8285.00,1.51
8284.00,1.51
8283.00,1.50
8282.00,1.50
8281.00,1.50
8280.00,1.50
8279.00,1.50
8278.00,1.50
8277.00,1.50
8276.00,1.50
8275.00,1.51
8274.00,1.51
8273.00,1.51
8272.00,1.51
8271.00,1.51
8270.00,1.52
8269.00,1.52
8268.00,1.53
8267.00,1.53
8266.00,1.54
8265.00,1.54
8264.00,1.55
8263.00,1.55
8262.00,1.56
8261.00,1.56
8260.00,1.56
8259.00,1.57
8258.00,1.57
8257.00,1.57
8256.00,1.57
8255.00,1.58
8254.00,1.58
8253.00,1.58
8252.00,1.58
8251.00,1.58
8250.00,1.58
8249.00,1.58
8248.00,1.58
8247.00,1.58
8246.00,1.57
8245.00,1.57
8244.00,1.57
8243.00,1.56
8242.00,1.56
8241.00,1.56
8240.00,1.55
8239.00,1.55
8238.00,1.55
8237.00,1.54
8236.00,1.54
8235.00,1.53
8234.00,1.53
8233.00,1.53
8232.00,1.52
8231.00,1.52
8230.00,1.52
8229.00,1.51
8228.00,1.51
8227.00,1.51
8226.00,1.51
8225.00,1.51
8224.00,1.51
8223.00,1.50
8222.00,1.50
8221.00,1.50
8220.00,1.50
8219.00,1.50
8218.00,1.50
8217.00,1.51
8216.00,1.51
8215.00,1.51
8214.00,1.51
8213.00,1.52
8212.00,1.52
8211.00,1.53
8210.00,1.53
8209.00,1.54
8208.00,1.54
8207.00,1.55
8206.00,1.56
8205.00,1.56
8204.00,1.57
8203.00,1.57
8202.00,1.58
8201.00,1.58
8200.00,1.59
8199.00,1.59
8198.00,1.59
8197.00,1.60
8196.00,1.60
8195.00,1.60
8194.00,1.60
8193.00,1.60
8192.00,1.60
8191.00,1.60
8190.00,1.60
8189.00,1.60
8188.00,1.60
8187.00,1.59
8186.00,1.59
8185.00,1.59
8184.00,1.59
8183.00,1.59
8182.00,1.59
8181.00,1.59
8180.00,1.59
8179.00,1.59
8178.00,1.59
8177.00,1.59
8176.00,1.59
8175.00,1.59
8174.00,1.59
8173.00,1.59
8172.00,1.59
8171.00,1.60
8170.00,1.60
8169.00,1.60
8168.00,1.60
8167.00,1.61
8166.00,1.61
8165.00,1.62
8164.00,1.62
8163.00,1.62
8162.00,1.62
8161.00,1.63
8160.00,1.63
8159.00,1.63
8158.00,1.62
8157.00,1.62
8156.00,1.62
8155.00,1.62
8154.00,1.61
8153.00,1.61
8152.00,1.61
8151.00,1.60
8150.00,1.60
8149.00,1.60
8148.00,1.60
8147.00,1.60
8146.00,1.60
8145.00,1.60
8144.00,1.60
8143.00,1.60
8142.00,1.61
8141.00,1.61
8140.00,1.62
8139.00,1.62
8138.00,1.62
8137.00,1.63
8136.00,1.63
8135.00,1.63
8134.00,1.63
8133.00,1.63
8132.00,1.63
8131.00,1.63
8130.00,1.62
8129.00,1.62
8128.00,1.61
8127.00,1.60
8126.00,1.60
8125.00,1.59
8124.00,1.59
8123.00,1.58
8122.00,1.57
8121.00,1.56
8120.00,1.56
8119.00,1.55
8118.00,1.55
8117.00,1.55
8116.00,1.55
8115.00,1.55
8114.00,1.55
8113.00,1.55
8112.00,1.55
8111.00,1.55
8110.00,1.55
8109.00,1.55
8108.00,1.55
8107.00,1.55
8106.00,1.55
8105.00,1.55
8104.00,1.55
8103.00,1.55
8102.00,1.54
8101.00,1.53
8100.00,1.53
8099.00,1.52
8098.00,1.52
8097.00,1.51
8096.00,1.50
8095.00,1.50
8094.00,1.50
8093.00,1.50
8092.00,1.50
8091.00,1.50
8090.00,1.50
8089.00,1.51
8088.00,1.51
8087.00,1.52
8086.00,1.53
8085.00,1.54
8084.00,1.55
8083.00,1.56
8082.00,1.57
8081.00,1.58
8080.00,1.59
8079.00,1.59
8078.00,1.60
8077.00,1.60
8076.00,1.60
8075.00,1.60
8074.00,1.60
8073.00,1.60
8072.00,1.60
8071.00,1.60
8070.00,1.60
8069.00,1.60
8068.00,1.59
8067.00,1.59
8066.00,1.59
8065.00,1.59
8064.00,1.59
8063.00,1.59
8062.00,1.59
8061.00,1.59
8060.00,1.59
8059.00,1.59
8058.00,1.59
8057.00,1.59
8056.00,1.59
8055.00,1.59
8054.00,1.59
8053.00,1.59
8052.00,1.59
8051.00,1.59
8050.00,1.59
8049.00,1.59
8048.00,1.59
8047.00,1.59
8046.00,1.59
8045.00,1.59
8044.00,1.59
8043.00,1.59
8042.00,1.60
8041.00,1.60
8040.00,1.60
8039.00,1.61
8038.00,1.61
8037.00,1.62
8036.00,1.62
8035.00,1.63
8034.00,1.63
8033.00,1.64
8032.00,1.64
8031.00,1.64
8030.00,1.65
8029.00,1.65
8028.00,1.65
8027.00,1.66
8026.00,1.66
8025.00,1.67
8024.00,1.67
8023.00,1.67
8022.00,1.68
8021.00,1.68
8020.00,1.68
8019.00,1.68
8018.00,1.69
8017.00,1.69
8016.00,1.69
8015.00,1.70
8014.00,1.70
8013.00,1.70
8012.00,1.70
8011.00,1.70
8010.00,1.70
8009.00,1.69
8008.00,1.69
8007.00,1.68
8006.00,1.68
8005.00,1.67
8004.00,1.66
8003.00,1.66
8002.00,1.65
8001.00,1.64
8000.00,1.63
7999.00,1.62
7998.00,1.61
7997.00,1.60
7996.00,1.59
7995.00,1.59
7994.00,1.58
7993.00,1.58
7992.00,1.57
7991.00,1.57
7990.00,1.57
7989.00,1.57
7988.00,1.57
7987.00,1.57
7986.00,1.57
7985.00,1.58
7984.00,1.58
7983.00,1.58
7982.00,1.58
7981.00,1.59
7980.00,1.59
7979.00,1.59
7978.00,1.60
7977.00,1.60
7976.00,1.60
7975.00,1.60
7974.00,1.61
7973.00,1.61
7972.00,1.61
7971.00,1.61
7970.00,1.62
7969.00,1.62
7968.00,1.62
7967.00,1.62
7966.00,1.63
7965.00,1.63
7964.00,1.63
7963.00,1.64
7962.00,1.64
7961.00,1.64
7960.00,1.64
7959.00,1.64
7958.00,1.65
7957.00,1.65
7956.00,1.65
7955.00,1.64
7954.00,1.64
7953.00,1.64
7952.00,1.64
7951.00,1.64
7950.00,1.64
7949.00,1.63
7948.00,1.63
7947.00,1.63
7946.00,1.62
7945.00,1.62
7944.00,1.62
7943.00,1.62
7942.00,1.62
7941.00,1.62
7940.00,1.62
7939.00,1.62
7938.00,1.62
7937.00,1.63
7936.00,1.63
7935.00,1.63
7934.00,1.64
7933.00,1.64
7932.00,1.65
7931.00,1.65
7930.00,1.65
7929.00,1.66
7928.00,1.66
7927.00,1.66
7926.00,1.66
7925.00,1.65
7924.00,1.65
7923.00,1.64
7922.00,1.63
7921.00,1.63
7920.00,1.62
7919.00,1.61
7918.00,1.60
7917.00,1.60
7916.00,1.59
7915.00,1.58
7914.00,1.58
7913.00,1.57
7912.00,1.57
7911.00,1.56
7910.00,1.56
7909.00,1.57
7908.00,1.57
7907.00,1.57
7906.00,1.58
7905.00,1.58
7904.00,1.59
7903.00,1.59
7902.00,1.60
7901.00,1.61
7900.00,1.61
7899.00,1.62
7898.00,1.63
7897.00,1.63
7896.00,1.64
7895.00,1.64
7894.00,1.64
7893.00,1.64
7892.00,1.64
7891.00,1.64
7890.00,1.64
7889.00,1.64
7888.00,1.64
7887.00,1.64
7886.00,1.64
7885.00,1.64
7884.00,1.64
7883.00,1.64
7882.00,1.64
7881.00,1.64
7880.00,1.64
7879.00,1.64
7878.00,1.64
7877.00,1.64
7876.00,1.64
7875.00,1.64
7874.00,1.64
7873.00,1.64
7872.00,1.64
7871.00,1.64
7870.00,1.64
7869.00,1.64
7868.00,1.63
7867.00,1.63
7866.00,1.63
7865.00,1.63
7864.00,1.62
7863.00,1.62
7862.00,1.62
7861.00,1.62
7860.00,1.62
7859.00,1.62
7858.00,1.62
7857.00,1.62
7856.00,1.62
7855.00,1.62
7854.00,1.62
7853.00,1.63
7852.00,1.63
7851.00,1.63
7850.00,1.63
7849.00,1.64
7848.00,1.64
7847.00,1.64
7846.00,1.64
7845.00,1.65
7844.00,1.65
7843.00,1.66
7842.00,1.66
7841.00,1.67
7840.00,1.67
7839.00,1.68
7838.00,1.69
7837.00,1.70
7836.00,1.70
7835.00,1.71
7834.00,1.72
7833.00,1.73
7832.00,1.74
7831.00,1.75
7830.00,1.75
7829.00,1.76
7828.00,1.77
7827.00,1.77
7826.00,1.77
7825.00,1.77
7824.00,1.77
7823.00,1.77
7822.00,1.77
7821.00,1.77
7820.00,1.76
7819.00,1.75
7818.00,1.75
7817.00,1.74
7816.00,1.73
7815.00,1.72
7814.00,1.71
7813.00,1.70
7812.00,1.70
7811.00,1.69
7810.00,1.68
7809.00,1.67
7808.00,1.66
7807.00,1.66
7806.00,1.65
7805.00,1.65
7804.00,1.64
7803.00,1.64
7802.00,1.64
7801.00,1.63
7800.00,1.63
7799.00,1.63
7798.00,1.63
7797.00,1.63
7796.00,1.63
7795.00,1.63
7794.00,1.63
7793.00,1.62
7792.00,1.62
7791.00,1.62
7790.00,1.62
7789.00,1.62
7788.00,1.62
7787.00,1.62
7786.00,1.61
7785.00,1.61
7784.00,1.61
7783.00,1.60
7782.00,1.60
7781.00,1.60
7780.00,1.60
7779.00,1.59
7778.00,1.59
7777.00,1.59
7776.00,1.59
7775.00,1.58
7774.00,1.58
7773.00,1.59
7772.00,1.59
7771.00,1.59
7770.00,1.59
7769.00,1.59
7768.00,1.60
7767.00,1.60
7766.00,1.61
7765.00,1.61
7764.00,1.62
7763.00,1.62
7762.00,1.63
7761.00,1.64
7760.00,1.64
7759.00,1.65
7758.00,1.66
7757.00,1.66
7756.00,1.67
7755.00,1.67
7754.00,1.67
7753.00,1.68
7752.00,1.68
7751.00,1.68
7750.00,1.68
7749.00,1.68
7748.00,1.67
7747.00,1.67
7746.00,1.67
7745.00,1.67
7744.00,1.66
7743.00,1.66
7742.00,1.66
7741.00,1.66
7740.00,1.65
7739.00,1.65
7738.00,1.65
7737.00,1.65
7736.00,1.65
7735.00,1.65
7734.00,1.65
7733.00,1.65
7732.00,1.65
7731.00,1.66
7730.00,1.66
7729.00,1.66
7728.00,1.67
7727.00,1.67
7726.00,1.68
7725.00,1.68
7724.00,1.68
7723.00,1.69
7722.00,1.69
7721.00,1.70
7720.00,1.70
7719.00,1.70
7718.00,1.70
7717.00,1.70
7716.00,1.70
7715.00,1.70
7714.00,1.70
7713.00,1.70
7712.00,1.69
7711.00,1.69
7710.00,1.69
7709.00,1.68
7708.00,1.68
7707.00,1.67
7706.00,1.67
7705.00,1.67
7704.00,1.66
7703.00,1.66
7702.00,1.65
7701.00,1.65
7700.00,1.65
7699.00,1.64
7698.00,1.64
7697.00,1.64
7696.00,1.64
7695.00,1.63
7694.00,1.63
7693.00,1.63
7692.00,1.63
7691.00,1.63
7690.00,1.64
7689.00,1.64
7688.00,1.64
7687.00,1.64
7686.00,1.65
7685.00,1.65
7684.00,1.66
7683.00,1.66
7682.00,1.67
7681.00,1.67
7680.00,1.68
7679.00,1.69
7678.00,1.70
7677.00,1.70
7676.00,1.71
7675.00,1.71
7674.00,1.72
7673.00,1.72
7672.00,1.72
7671.00,1.72
7670.00,1.72
7669.00,1.72
7668.00,1.72
7667.00,1.72
7666.00,1.71
7665.00,1.71
7664.00,1.71
7663.00,1.70
7662.00,1.70
7661.00,1.69
7660.00,1.69
7659.00,1.69
7658.00,1.68
7657.00,1.68
7656.00,1.68
7655.00,1.68
7654.00,1.67
7653.00,1.67
7652.00,1.67
7651.00,1.67
7650.00,1.67
7649.00,1.67
7648.00,1.66
7647.00,1.66
7646.00,1.66
7645.00,1.66
7644.00,1.66
7643.00,1.65
7642.00,1.65
7641.00,1.65
7640.00,1.65
7639.00,1.65
7638.00,1.65
7637.00,1.64
7636.00,1.64
7635.00,1.64
7634.00,1.64
7633.00,1.64
7632.00,1.64
7631.00,1.65
7630.00,1.65
7629.00,1.65
7628.00,1.65
7627.00,1.66
7626.00,1.66
7625.00,1.66
7624.00,1.67
7623.00,1.67
7622.00,1.68
7621.00,1.68
7620.00,1.69
7619.00,1.69
7618.00,1.70
7617.00,1.70
7616.00,1.71
7615.00,1.71
7614.00,1.72
7613.00,1.72
7612.00,1.72
7611.00,1.73
7610.00,1.73
7609.00,1.74
7608.00,1.74
7607.00,1.74
7606.00,1.74
7605.00,1.75
7604.00,1.75
7603.00,1.75
7602.00,1.75
7601.00,1.75
7600.00,1.75
7599.00,1.75
7598.00,1.75
7597.00,1.74
7596.00,1.74
7595.00,1.74
7594.00,1.74
7593.00,1.73
7592.00,1.73
7591.00,1.73
7590.00,1.72
7589.00,1.72
7588.00,1.72
7587.00,1.71
7586.00,1.71
7585.00,1.71
7584.00,1.70
7583.00,1.70
7582.00,1.70
7581.00,1.70
7580.00,1.70
7579.00,1.70
7578.00,1.70
7577.00,1.70
7576.00,1.69
7575.00,1.69
7574.00,1.69
7573.00,1.69
7572.00,1.69
7571.00,1.69
7570.00,1.69
7569.00,1.69
7568.00,1.69
7567.00,1.69
7566.00,1.69
7565.00,1.69
7564.00,1.69
7563.00,1.69
7562.00,1.69
7561.00,1.69
7560.00,1.69
7559.00,1.69
7558.00,1.69
7557.00,1.69
7556.00,1.69
7555.00,1.69
7554.00,1.69
7553.00,1.69
7552.00,1.69
7551.00,1.69
7550.00,1.69
7549.00,1.69
7548.00,1.68
7547.00,1.68
7546.00,1.68
7545.00,1.67
7544.00,1.67
7543.00,1.66
7542.00,1.66
7541.00,1.65
7540.00,1.65
7539.00,1.64
7538.00,1.64
7537.00,1.63
7536.00,1.62
7535.00,1.62
7534.00,1.61
7533.00,1.61
7532.00,1.60
7531.00,1.60
7530.00,1.60
7529.00,1.59
7528.00,1.59
7527.00,1.59
7526.00,1.59
7525.00,1.59
7524.00,1.59
7523.00,1.60
7522.00,1.60
7521.00,1.60
7520.00,1.61
7519.00,1.61
7518.00,1.62
7517.00,1.62
7516.00,1.63
7515.00,1.63
7514.00,1.63
7513.00,1.64
7512.00,1.64
7511.00,1.65
7510.00,1.65
7509.00,1.65
7508.00,1.66
7507.00,1.66
7506.00,1.66
7505.00,1.66
7504.00,1.67
7503.00,1.67
7502.00,1.67
7501.00,1.67
7500.00,1.67
7499.00,1.68
7498.00,1.68
7497.00,1.68
7496.00,1.69
7495.00,1.69
7494.00,1.70
7493.00,1.70
7492.00,1.71
7491.00,1.71
7490.00,1.71
7489.00,1.72
7488.00,1.72
7487.00,1.73
7486.00,1.73
7485.00,1.73
7484.00,1.73
7483.00,1.73
7482.00,1.73
7481.00,1.73
7480.00,1.73
7479.00,1.73
7478.00,1.72
7477.00,1.72
7476.00,1.71
7475.00,1.71
7474.00,1.70
7473.00,1.69
7472.00,1.69
7471.00,1.68
7470.00,1.67
7469.00,1.66
7468.00,1.66
7467.00,1.65
7466.00,1.64
7465.00,1.64
7464.00,1.63
7463.00,1.63
7462.00,1.62
7461.00,1.62
7460.00,1.62
7459.00,1.62
7458.00,1.62
7457.00,1.62
7456.00,1.62
7455.00,1.62
7454.00,1.62
7453.00,1.63
7452.00,1.63
7451.00,1.64
7450.00,1.64
7449.00,1.64
7448.00,1.65
7447.00,1.65
7446.00,1.65
7445.00,1.66
7444.00,1.66
7443.00,1.66
7442.00,1.66
7441.00,1.66
7440.00,1.66
7439.00,1.66
7438.00,1.66
7437.00,1.66
7436.00,1.65
7435.00,1.65
7434.00,1.65
7433.00,1.65
7432.00,1.64
7431.00,1.64
7430.00,1.64
7429.00,1.64
7428.00,1.63
7427.00,1.63
7426.00,1.63
7425.00,1.63
7424.00,1.63
7423.00,1.62
7422.00,1.62
7421.00,1.62
7420.00,1.61
7419.00,1.61
7418.00,1.60
7417.00,1.60
7416.00,1.60
7415.00,1.59
7414.00,1.59
7413.00,1.59
7412.00,1.59
7411.00,1.59
7410.00,1.59
7409.00,1.58
7408.00,1.58
7407.00,1.59
7406.00,1.59
7405.00,1.59
7404.00,1.60
7403.00,1.60
7402.00,1.61
7401.00,1.61
7400.00,1.62
7399.00,1.63
7398.00,1.63
7397.00,1.64
7396.00,1.65
7395.00,1.65
7394.00,1.66
7393.00,1.67
7392.00,1.67
7391.00,1.68
7390.00,1.68
7389.00,1.68
7388.00,1.69
7387.00,1.69
7386.00,1.68
7385.00,1.68
7384.00,1.68
7383.00,1.67
7382.00,1.67
7381.00,1.66
7380.00,1.66
7379.00,1.65
7378.00,1.64
7377.00,1.63
7376.00,1.62
7375.00,1.61
7374.00,1.61
7373.00,1.60
7372.00,1.59
7371.00,1.58
7370.00,1.58
7369.00,1.57
7368.00,1.57
7367.00,1.57
7366.00,1.56
7365.00,1.56
7364.00,1.56
7363.00,1.56
7362.00,1.57
7361.00,1.57
7360.00,1.57
7359.00,1.58
7358.00,1.58
7357.00,1.58
7356.00,1.59
7355.00,1.60
7354.00,1.60
7353.00,1.61
7352.00,1.61
7351.00,1.61
7350.00,1.62
7349.00,1.62
7348.00,1.62
7347.00,1.62
7346.00,1.62
7345.00,1.62
7344.00,1.62
7343.00,1.61
7342.00,1.61
7341.00,1.61
7340.00,1.60
7339.00,1.59
7338.00,1.59
7337.00,1.58
7336.00,1.57
7335.00,1.56
7334.00,1.56
7333.00,1.55
7332.00,1.55
7331.00,1.54
7330.00,1.54
7329.00,1.53
7328.00,1.53
7327.00,1.53
7326.00,1.52
7325.00,1.52
7324.00,1.52
7323.00,1.52
7322.00,1.52
7321.00,1.52
7320.00,1.53
7319.00,1.53
7318.00,1.53
7317.00,1.53
7316.00,1.53
7315.00,1.53
7314.00,1.53
7313.00,1.52
7312.00,1.52
7311.00,1.52
7310.00,1.52
7309.00,1.51
7308.00,1.51
7307.00,1.51
7306.00,1.50
7305.00,1.50
7304.00,1.50
7303.00,1.50
7302.00,1.49
7301.00,1.49
7300.00,1.49
7299.00,1.49
7298.00,1.49
7297.00,1.50
7296.00,1.50
7295.00,1.51
7294.00,1.51
7293.00,1.51
7292.00,1.52
7291.00,1.53
7290.00,1.53
7289.00,1.54
7288.00,1.54
7287.00,1.55
7286.00,1.56
7285.00,1.56
7284.00,1.57
7283.00,1.57
7282.00,1.57
7281.00,1.58
7280.00,1.58
7279.00,1.58
7278.00,1.58
7277.00,1.58
7276.00,1.58
7275.00,1.58
7274.00,1.58
7273.00,1.58
7272.00,1.58
7271.00,1.57
7270.00,1.57
7269.00,1.56
7268.00,1.55
7267.00,1.55
7266.00,1.54
7265.00,1.53
7264.00,1.53
7263.00,1.52
7262.00,1.51
7261.00,1.51
7260.00,1.50
7259.00,1.50
7258.00,1.49
7257.00,1.49
7256.00,1.48
7255.00,1.48
7254.00,1.48
7253.00,1.48
7252.00,1.48
7251.00,1.48
7250.00,1.48
7249.00,1.48
7248.00,1.48
7247.00,1.48
7246.00,1.48
7245.00,1.48
7244.00,1.48
7243.00,1.48
7242.00,1.48
7241.00,1.48
7240.00,1.48
7239.00,1.48
7238.00,1.48
7237.00,1.48
7236.00,1.48
7235.00,1.47
7234.00,1.47
7233.00,1.47
7232.00,1.47
7231.00,1.47
7230.00,1.47
7229.00,1.46
7228.00,1.46
7227.00,1.45
7226.00,1.45
7225.00,1.44
7224.00,1.44
7223.00,1.43
7222.00,1.43
7221.00,1.42
7220.00,1.41
7219.00,1.41
7218.00,1.40
7217.00,1.40
7216.00,1.39
7215.00,1.39
7214.00,1.38
7213.00,1.38
7212.00,1.37
7211.00,1.37
7210.00,1.37
7209.00,1.36
7208.00,1.36
7207.00,1.36
7206.00,1.36
7205.00,1.36
7204.00,1.36
7203.00,1.35
7202.00,1.35
7201.00,1.35
7200.00,1.34
7199.00,1.34
7198.00,1.34
7197.00,1.34
7196.00,1.33
7195.00,1.33
7194.00,1.33
7193.00,1.33
7192.00,1.32
7191.00,1.32
7190.00,1.31
7189.00,1.31
7188.00,1.30
7187.00,1.30
7186.00,1.30
7185.00,1.29
7184.00,1.29
7183.00,1.28
7182.00,1.28
7181.00,1.27
7180.00,1.27
7179.00,1.27
7178.00,1.26
7177.00,1.26
7176.00,1.25
7175.00,1.25
7174.00,1.25
7173.00,1.24
7172.00,1.24
7171.00,1.24
7170.00,1.24
7169.00,1.24
7168.00,1.24
7167.00,1.24
7166.00,1.24
7165.00,1.24
7164.00,1.24
7163.00,1.24
7162.00,1.24
7161.00,1.23
7160.00,1.23
7159.00,1.23
7158.00,1.23
7157.00,1.23
7156.00,1.23
7155.00,1.23
7154.00,1.22
7153.00,1.22
7152.00,1.21
7151.00,1.21
7150.00,1.21
7149.00,1.20
7148.00,1.20
7147.00,1.19
7146.00,1.19
7145.00,1.18
7144.00,1.18
7143.00,1.17
7142.00,1.16
7141.00,1.16
7140.00,1.15
7139.00,1.14
7138.00,1.13
7137.00,1.13
7136.00,1.12
7135.00,1.11
7134.00,1.11
7133.00,1.10
7132.00,1.09
7131.00,1.09
7130.00,1.08
7129.00,1.08
7128.00,1.07
7127.00,1.07
7126.00,1.07
7125.00,1.06
7124.00,1.06
7123.00,1.06
7122.00,1.06
7121.00,1.06
7120.00,1.05
7119.00,1.05
7118.00,1.05
7117.00,1.05
7116.00,1.05
7115.00,1.04
7114.00,1.04
7113.00,1.04
7112.00,1.04
7111.00,1.03
7110.00,1.03
7109.00,1.03
7108.00,1.03
7107.00,1.02
7106.00,1.02
7105.00,1.02
7104.00,1.01
7103.00,1.01
7102.00,1.01
7101.00,1.00
7100.00,1.00
7099.00,1.00
7098.00,1.00
7097.00,1.00
7096.00,1.00
7095.00,1.00
7094.00,1.00
7093.00,1.01
7092.00,1.01
7091.00,1.01
7090.00,1.01
7089.00,1.01
7088.00,1.01
7087.00,1.01
7086.00,1.01
7085.00,1.01
7084.00,1.01
7083.00,1.00
7082.00,1.00
7081.00,1.00
7080.00,0.99
7079.00,0.99
7078.00,0.99
7077.00,0.98
7076.00,0.98
7075.00,0.98
7074.00,0.97
7073.00,0.97
7072.00,0.97
7071.00,0.96
7070.00,0.96
7069.00,0.96
7068.00,0.96
7067.00,0.96
7066.00,0.95
7065.00,0.95
7064.00,0.95
7063.00,0.95
7062.00,0.95
7061.00,0.94
7060.00,0.94
7059.00,0.94
7058.00,0.94
7057.00,0.94
7056.00,0.94
7055.00,0.94
7054.00,0.94
7053.00,0.94
7052.00,0.94
7051.00,0.94
7050.00,0.95
7049.00,0.95
7048.00,0.95
7047.00,0.95
7046.00,0.95
7045.00,0.95
7044.00,0.95
7043.00,0.95
7042.00,0.95
7041.00,0.95
7040.00,0.95
7039.00,0.94
7038.00,0.94
7037.00,0.94
7036.00,0.93
7035.00,0.93
7034.00,0.92
7033.00,0.91
7032.00,0.91
7031.00,0.90
7030.00,0.89
7029.00,0.89
7028.00,0.88
7027.00,0.88
7026.00,0.87
7025.00,0.87
7024.00,0.86
7023.00,0.86
7022.00,0.86
7021.00,0.86
7020.00,0.85
7019.00,0.85
7018.00,0.85
7017.00,0.85
7016.00,0.85
7015.00,0.85
7014.00,0.85
7013.00,0.85
7012.00,0.86
7011.00,0.86
7010.00,0.86
7009.00,0.86
7008.00,0.86
7007.00,0.86
7006.00,0.87
7005.00,0.87
7004.00,0.87
7003.00,0.87
7002.00,0.87
7001.00,0.87
7000.00,0.87
6999.00,0.87
6998.00,0.88
6997.00,0.88
6996.00,0.88
6995.00,0.88
6994.00,0.88
6993.00,0.88
6992.00,0.88
6991.00,0.88
6990.00,0.88
6989.00,0.88
6988.00,0.88
6987.00,0.88
6986.00,0.88
6985.00,0.88
6984.00,0.88
6983.00,0.88
6982.00,0.88
6981.00,0.88
6980.00,0.88
6979.00,0.88
6978.00,0.88
6977.00,0.88
6976.00,0.88
6975.00,0.88
6974.00,0.88
6973.00,0.88
6972.00,0.88
6971.00,0.88
6970.00,0.88
6969.00,0.87
6968.00,0.87
6967.00,0.87
6966.00,0.87
6965.00,0.87
6964.00,0.87
6963.00,0.87
6962.00,0.86
6961.00,0.86
6960.00,0.86
6959.00,0.86
6958.00,0.86
6957.00,0.86
6956.00,0.86
6955.00,0.86
6954.00,0.86
6953.00,0.86
6952.00,0.86
6951.00,0.86
6950.00,0.86
6949.00,0.86
6948.00,0.86
6947.00,0.86
6946.00,0.86
6945.00,0.86
6944.00,0.85
6943.00,0.85
6942.00,0.85
6941.00,0.85
6940.00,0.85
6939.00,0.85
6938.00,0.85
6937.00,0.85
6936.00,0.85
6935.00,0.86
6934.00,0.86
6933.00,0.86
6932.00,0.86
6931.00,0.87
6930.00,0.87
6929.00,0.87
6928.00,0.88
6927.00,0.88
6926.00,0.88
6925.00,0.88
6924.00,0.88
6923.00,0.89
6922.00,0.89
6921.00,0.88
6920.00,0.88
6919.00,0.88
6918.00,0.88
6917.00,0.87
6916.00,0.87
6915.00,0.87
6914.00,0.86
6913.00,0.86
6912.00,0.85
6911.00,0.85
6910.00,0.84
6909.00,0.83
6908.00,0.83
6907.00,0.82
6906.00,0.82
6905.00,0.82
6904.00,0.81
6903.00,0.81
6902.00,0.81
6901.00,0.81
6900.00,0.81
6899.00,0.81
6898.00,0.82
6897.00,0.82
6896.00,0.82
6895.00,0.82
6894.00,0.83
6893.00,0.83
6892.00,0.83
6891.00,0.84
6890.00,0.84
6889.00,0.85
6888.00,0.85
6887.00,0.85
6886.00,0.85
6885.00,0.85
6884.00,0.85
6883.00,0.85
6882.00,0.85
6881.00,0.85
6880.00,0.84
6879.00,0.84
6878.00,0.84
6877.00,0.84
6876.00,0.83
6875.00,0.83
6874.00,0.83
6873.00,0.83
6872.00,0.82
6871.00,0.82
6870.00,0.82
6869.00,0.82
6868.00,0.82
6867.00,0.82
6866.00,0.82
6865.00,0.83
6864.00,0.83
6863.00,0.83
6862.00,0.83
6861.00,0.83
6860.00,0.83
6859.00,0.83
6858.00,0.83
6857.00,0.83
6856.00,0.84
6855.00,0.84
6854.00,0.84
6853.00,0.84
6852.00,0.84
6851.00,0.84
6850.00,0.84
6849.00,0.83
6848.00,0.83
6847.00,0.83
6846.00,0.83
6845.00,0.83
6844.00,0.83
6843.00,0.83
6842.00,0.83
6841.00,0.82
6840.00,0.82
6839.00,0.82
6838.00,0.82
6837.00,0.81
6836.00,0.81
6835.00,0.81
6834.00,0.81
6833.00,0.81
6832.00,0.81
6831.00,0.81
6830.00,0.81
6829.00,0.81
6828.00,0.81
6827.00,0.81
6826.00,0.82
6825.00,0.82
6824.00,0.82
6823.00,0.82
6822.00,0.83
6821.00,0.83
6820.00,0.83
6819.00,0.84
6818.00,0.84
6817.00,0.84
6816.00,0.84
6815.00,0.84
6814.00,0.84
6813.00,0.84
6812.00,0.84
6811.00,0.84
6810.00,0.84
6809.00,0.84
6808.00,0.84
6807.00,0.84
6806.00,0.84
6805.00,0.84
6804.00,0.84
6803.00,0.84
6802.00,0.84
6801.00,0.83
6800.00,0.84
6799.00,0.84
6798.00,0.84
6797.00,0.84
6796.00,0.84
6795.00,0.84
6794.00,0.84
6793.00,0.84
6792.00,0.85
6791.00,0.85
6790.00,0.85
6789.00,0.85
6788.00,0.85
6787.00,0.86
6786.00,0.86
6785.00,0.86
6784.00,0.86
6783.00,0.87
6782.00,0.87
6781.00,0.87
6780.00,0.88
6779.00,0.88
6778.00,0.88
6777.00,0.88
6776.00,0.89
6775.00,0.89
6774.00,0.89
6773.00,0.90
6772.00,0.90
6771.00,0.91
6770.00,0.91
6769.00,0.91
6768.00,0.92
6767.00,0.92
6766.00,0.92
6765.00,0.92
6764.00,0.93
6763.00,0.93
6762.00,0.93
6761.00,0.93
6760.00,0.93
6759.00,0.93
6758.00,0.92
6757.00,0.92
6756.00,0.92
6755.00,0.92
6754.00,0.91
6753.00,0.91
6752.00,0.91
6751.00,0.90
6750.00,0.90
6749.00,0.90
6748.00,0.89
6747.00,0.89
6746.00,0.89
6745.00,0.89
6744.00,0.89
6743.00,0.89
6742.00,0.89
6741.00,0.89
6740.00,0.89
6739.00,0.89
6738.00,0.90
6737.00,0.90
6736.00,0.90
6735.00,0.91
6734.00,0.91
6733.00,0.92
6732.00,0.92
6731.00,0.93
6730.00,0.93
6729.00,0.94
6728.00,0.94
6727.00,0.94
6726.00,0.95
6725.00,0.95
6724.00,0.95
6723.00,0.95
6722.00,0.95
6721.00,0.95
6720.00,0.95
6719.00,0.95
6718.00,0.95
6717.00,0.95
6716.00,0.94
6715.00,0.94
6714.00,0.94
6713.00,0.94
6712.00,0.94
6711.00,0.94
6710.00,0.94
6709.00,0.93
6708.00,0.93
6707.00,0.93
6706.00,0.93
6705.00,0.93
6704.00,0.93
6703.00,0.93
6702.00,0.93
6701.00,0.93
6700.00,0.94
6699.00,0.94
6698.00,0.94
6697.00,0.94
6696.00,0.94
6695.00,0.95
6694.00,0.95
6693.00,0.95
6692.00,0.95
6691.00,0.96
6690.00,0.96
6689.00,0.96
6688.00,0.96
6687.00,0.97
6686.00,0.97
6685.00,0.97
6684.00,0.97
6683.00,0.97
6682.00,0.97
6681.00,0.97
6680.00,0.97
6679.00,0.98
6678.00,0.98
6677.00,0.98
6676.00,0.98
6675.00,0.98
6674.00,0.98
6673.00,0.98
6672.00,0.99
6671.00,0.99
6670.00,0.99
6669.00,0.99
6668.00,0.99
6667.00,0.99
6666.00,1.00
6665.00,1.00
6664.00,1.00
6663.00,1.00
6662.00,1.01
6661.00,1.01
6660.00,1.01
6659.00,1.01
6658.00,1.01
6657.00,1.01
6656.00,1.02
6655.00,1.02
6654.00,1.02
6653.00,1.02
6652.00,1.02
6651.00,1.02
6650.00,1.02
6649.00,1.02
6648.00,1.03
6647.00,1.03
6646.00,1.03
6645.00,1.03
6644.00,1.03
6643.00,1.03
6642.00,1.03
6641.00,1.03
6640.00,1.03
6639.00,1.03
6638.00,1.03
6637.00,1.03
6636.00,1.03
6635.00,1.03
6634.00,1.03
6633.00,1.03
6632.00,1.03
6631.00,1.03
6630.00,1.03
6629.00,1.03
6628.00,1.03
6627.00,1.02
6626.00,1.02
6625.00,1.02
6624.00,1.02
6623.00,1.02
6622.00,1.02
6621.00,1.02
6620.00,1.02
6619.00,1.03
6618.00,1.03
6617.00,1.03
6616.00,1.03
6615.00,1.03
6614.00,1.04
6613.00,1.04
6612.00,1.04
6611.00,1.05
6610.00,1.05
6609.00,1.06
6608.00,1.06
6607.00,1.06
6606.00,1.07
6605.00,1.07
6604.00,1.08
6603.00,1.08
6602.00,1.09
6601.00,1.09
6600.00,1.09
6599.00,1.10
6598.00,1.10
6597.00,1.10
6596.00,1.11
6595.00,1.11
6594.00,1.11
6593.00,1.11
6592.00,1.11
6591.00,1.11
6590.00,1.11
6589.00,1.11
6588.00,1.11
6587.00,1.11
6586.00,1.11
6585.00,1.11
6584.00,1.11
6583.00,1.11
6582.00,1.11
6581.00,1.11
6580.00,1.11
6579.00,1.11
6578.00,1.11
6577.00,1.12
6576.00,1.12
6575.00,1.12
6574.00,1.13
6573.00,1.13
6572.00,1.14
6571.00,1.14
6570.00,1.14
6569.00,1.15
6568.00,1.15
6567.00,1.15
6566.00,1.16
6565.00,1.16
6564.00,1.16
6563.00,1.16
6562.00,1.17
6561.00,1.17
6560.00,1.17
6559.00,1.17
6558.00,1.17
6557.00,1.16
6556.00,1.16
6555.00,1.16
6554.00,1.16
6553.00,1.16
6552.00,1.15
6551.00,1.15
6550.00,1.15
6549.00,1.15
6548.00,1.15
6547.00,1.15
6546.00,1.15
6545.00,1.15
6544.00,1.15
6543.00,1.15
6542.00,1.16
6541.00,1.16
6540.00,1.16
6539.00,1.17
6538.00,1.17
6537.00,1.18
6536.00,1.18
6535.00,1.19
6534.00,1.19
6533.00,1.20
6532.00,1.20
6531.00,1.20
6530.00,1.21
6529.00,1.21
6528.00,1.21
6527.00,1.21
6526.00,1.21
6525.00,1.21
6524.00,1.21
6523.00,1.20
6522.00,1.20
6521.00,1.20
6520.00,1.19
6519.00,1.19
6518.00,1.19
6517.00,1.19
6516.00,1.18
6515.00,1.18
6514.00,1.18
6513.00,1.18
6512.00,1.18
6511.00,1.19
6510.00,1.19
6509.00,1.19
6508.00,1.20
6507.00,1.20
6506.00,1.21
6505.00,1.21
6504.00,1.22
6503.00,1.22
6502.00,1.22
6501.00,1.23
6500.00,1.23
6499.00,1.23
6498.00,1.23
6497.00,1.23
6496.00,1.23
6495.00,1.23
6494.00,1.23
6493.00,1.23
6492.00,1.23
6491.00,1.23
6490.00,1.23
6489.00,1.23
6488.00,1.23
6487.00,1.23
6486.00,1.23
6485.00,1.23
6484.00,1.23
6483.00,1.23
6482.00,1.24
6481.00,1.24
6480.00,1.24
6479.00,1.25
6478.00,1.25
6477.00,1.25
6476.00,1.25
6475.00,1.25
6474.00,1.26
6473.00,1.26
6472.00,1.26
6471.00,1.26
6470.00,1.25
6469.00,1.25
6468.00,1.25
6467.00,1.25
6466.00,1.25
6465.00,1.25
6464.00,1.25
6463.00,1.25
6462.00,1.24
6461.00,1.24
6460.00,1.24
6459.00,1.24
6458.00,1.24
6457.00,1.24
6456.00,1.24
6455.00,1.24
6454.00,1.24
6453.00,1.24
6452.00,1.25
6451.00,1.25
6450.00,1.24
6449.00,1.24
6448.00,1.24
6447.00,1.24
6446.00,1.24
6445.00,1.24
6444.00,1.24
6443.00,1.24
6442.00,1.24
6441.00,1.23
6440.00,1.23
6439.00,1.23
6438.00,1.23
6437.00,1.23
6436.00,1.23
6435.00,1.23
6434.00,1.23
6433.00,1.24
6432.00,1.24
6431.00,1.25
6430.00,1.25
6429.00,1.26
6428.00,1.26
6427.00,1.27
6426.00,1.27
6425.00,1.28
6424.00,1.28
6423.00,1.29
6422.00,1.29
6421.00,1.29
6420.00,1.29
6419.00,1.30
6418.00,1.30
6417.00,1.30
6416.00,1.30
6415.00,1.30
6414.00,1.29
6413.00,1.29
6412.00,1.29
6411.00,1.29
6410.00,1.28
6409.00,1.28
6408.00,1.28
6407.00,1.28
6406.00,1.28
6405.00,1.27
6404.00,1.27
6403.00,1.27
6402.00,1.27
6401.00,1.26
6400.00,1.26
6399.00,1.26
6398.00,1.26
6397.00,1.26
6396.00,1.26
6395.00,1.26
6394.00,1.26
6393.00,1.26
6392.00,1.25
6391.00,1.26
6390.00,1.26
6389.00,1.26
6388.00,1.26
6387.00,1.26
6386.00,1.26
6385.00,1.26
6384.00,1.27
6383.00,1.27
6382.00,1.27
6381.00,1.27
6380.00,1.28
6379.00,1.28
6378.00,1.28
6377.00,1.29
6376.00,1.29
6375.00,1.29
6374.00,1.30
6373.00,1.30
6372.00,1.30
6371.00,1.30
6370.00,1.31
6369.00,1.31
6368.00,1.31
6367.00,1.31
6366.00,1.31
6365.00,1.31
6364.00,1.31
6363.00,1.31
6362.00,1.31
6361.00,1.31
6360.00,1.31
6359.00,1.31
6358.00,1.31
6357.00,1.31
6356.00,1.31
6355.00,1.31
6354.00,1.31
6353.00,1.31
6352.00,1.31
6351.00,1.31
6350.00,1.30
6349.00,1.30
6348.00,1.30
6347.00,1.30
6346.00,1.30
6345.00,1.30
6344.00,1.30
6343.00,1.30
6342.00,1.30
6341.00,1.30
6340.00,1.30
6339.00,1.30
6338.00,1.30
6337.00,1.30
6336.00,1.30
6335.00,1.30
6334.00,1.30
6333.00,1.30
6332.00,1.30
6331.00,1.30
6330.00,1.30
6329.00,1.30
6328.00,1.30
6327.00,1.31
6326.00,1.31
6325.00,1.31
6324.00,1.31
6323.00,1.31
6322.00,1.32
6321.00,1.32
6320.00,1.32
6319.00,1.32
6318.00,1.33
6317.00,1.33
6316.00,1.33
6315.00,1.34
6314.00,1.34
6313.00,1.34
6312.00,1.34
6311.00,1.35
6310.00,1.35
6309.00,1.35
6308.00,1.36
6307.00,1.36
6306.00,1.36
6305.00,1.36
6304.00,1.37
6303.00,1.37
6302.00,1.37
6301.00,1.37
6300.00,1.38
6299.00,1.38
6298.00,1.38
6297.00,1.38
6296.00,1.39
6295.00,1.39
6294.00,1.39
6293.00,1.39
6292.00,1.39
6291.00,1.40
6290.00,1.40
6289.00,1.40
6288.00,1.40
6287.00,1.40
6286.00,1.40
6285.00,1.40
6284.00,1.40
6283.00,1.40
6282.00,1.40
6281.00,1.40
6280.00,1.40
6279.00,1.40
6278.00,1.39
6277.00,1.39
6276.00,1.40
6275.00,1.40
6274.00,1.40
6273.00,1.40
6272.00,1.40
6271.00,1.40
6270.00,1.41
6269.00,1.41
6268.00,1.41
6267.00,1.42
6266.00,1.42
6265.00,1.43
6264.00,1.43
6263.00,1.43
6262.00,1.44
6261.00,1.44
6260.00,1.45
6259.00,1.45
6258.00,1.45
6257.00,1.45
6256.00,1.46
6255.00,1.46
6254.00,1.46
6253.00,1.46
6252.00,1.46
6251.00,1.46
6250.00,1.46
6249.00,1.46
6248.00,1.46
6247.00,1.46
6246.00,1.46
6245.00,1.46
6244.00,1.46
6243.00,1.46
6242.00,1.46
6241.00,1.46
6240.00,1.46
6239.00,1.46
6238.00,1.46
6237.00,1.46
6236.00,1.46
6235.00,1.46
6234.00,1.46
6233.00,1.46
6232.00,1.46
6231.00,1.46
6230.00,1.46
6229.00,1.46
6228.00,1.46
6227.00,1.46
6226.00,1.46
6225.00,1.45
6224.00,1.45
6223.00,1.45
6222.00,1.45
6221.00,1.45
6220.00,1.45
6219.00,1.45
6218.00,1.45
6217.00,1.45
6216.00,1.45
6215.00,1.45
6214.00,1.46
6213.00,1.46
6212.00,1.46
6211.00,1.46
6210.00,1.47
6209.00,1.47
6208.00,1.47
6207.00,1.48
6206.00,1.48
6205.00,1.49
6204.00,1.49
6203.00,1.49
6202.00,1.50
6201.00,1.50
6200.00,1.50
6199.00,1.51
6198.00,1.51
6197.00,1.51
6196.00,1.52
6195.00,1.52
6194.00,1.52
6193.00,1.52
6192.00,1.53
6191.00,1.53
6190.00,1.53
6189.00,1.53
6188.00,1.54
6187.00,1.54
6186.00,1.54
6185.00,1.54
6184.00,1.54
6183.00,1.54
6182.00,1.54
6181.00,1.54
6180.00,1.54
6179.00,1.54
6178.00,1.54
6177.00,1.54
6176.00,1.54
6175.00,1.54
6174.00,1.54
6173.00,1.54
6172.00,1.54
6171.00,1.54
6170.00,1.54
6169.00,1.54
6168.00,1.54
6167.00,1.54
6166.00,1.54
6165.00,1.54
6164.00,1.55
6163.00,1.55
6162.00,1.55
6161.00,1.55
6160.00,1.55
6159.00,1.55
6158.00,1.55
6157.00,1.55
6156.00,1.55
6155.00,1.55
6154.00,1.55
6153.00,1.55
6152.00,1.55
6151.00,1.55
6150.00,1.55
6149.00,1.56
6148.00,1.56
6147.00,1.56
6146.00,1.57
6145.00,1.57
6144.00,1.57
6143.00,1.58
6142.00,1.58
6141.00,1.59
6140.00,1.59
6139.00,1.59
6138.00,1.60
6137.00,1.60
6136.00,1.60
6135.00,1.60
6134.00,1.60
6133.00,1.60
6132.00,1.60
6131.00,1.60
6130.00,1.60
6129.00,1.60
6128.00,1.60
6127.00,1.60
6126.00,1.60
6125.00,1.60
6124.00,1.60
6123.00,1.60
6122.00,1.60
6121.00,1.60
6120.00,1.61
6119.00,1.61
6118.00,1.61
6117.00,1.61
6116.00,1.61
6115.00,1.62
6114.00,1.62
6113.00,1.62
6112.00,1.62
6111.00,1.62
6110.00,1.62
6109.00,1.62
6108.00,1.62
6107.00,1.62
6106.00,1.62
6105.00,1.62
6104.00,1.62
6103.00,1.62
6102.00,1.62
6101.00,1.62
6100.00,1.62
6099.00,1.62
6098.00,1.62
6097.00,1.62
6096.00,1.62
6095.00,1.62
6094.00,1.63
6093.00,1.63
6092.00,1.63
6091.00,1.63
6090.00,1.63
6089.00,1.63
6088.00,1.63
6087.00,1.64
6086.00,1.64
6085.00,1.64
6084.00,1.64
6083.00,1.64
6082.00,1.65
6081.00,1.65
6080.00,1.65
6079.00,1.66
6078.00,1.66
6077.00,1.66
6076.00,1.66
6075.00,1.67
6074.00,1.67
6073.00,1.67
6072.00,1.68
6071.00,1.68
6070.00,1.68
6069.00,1.68
6068.00,1.68
6067.00,1.68
6066.00,1.68
6065.00,1.68
6064.00,1.68
6063.00,1.68
6062.00,1.68
6061.00,1.68
6060.00,1.67
6059.00,1.67
6058.00,1.67
6057.00,1.67
6056.00,1.67
6055.00,1.67
6054.00,1.67
6053.00,1.67
6052.00,1.68
6051.00,1.68
6050.00,1.68
6049.00,1.68
6048.00,1.69
6047.00,1.69
6046.00,1.70
6045.00,1.70
6044.00,1.70
6043.00,1.71
6042.00,1.71
6041.00,1.71
6040.00,1.71
6039.00,1.72
6038.00,1.72
6037.00,1.72
6036.00,1.72
6035.00,1.72
6034.00,1.72
6033.00,1.72
6032.00,1.71
6031.00,1.71
6030.00,1.71
6029.00,1.71
6028.00,1.71
6027.00,1.70
6026.00,1.70
6025.00,1.70
6024.00,1.70
6023.00,1.69
6022.00,1.69
6021.00,1.69
6020.00,1.69
6019.00,1.69
6018.00,1.69
6017.00,1.69
6016.00,1.69
6015.00,1.69
6014.00,1.69
6013.00,1.69
6012.00,1.69
6011.00,1.70
6010.00,1.70
6009.00,1.70
6008.00,1.70
6007.00,1.70
6006.00,1.71
6005.00,1.71
6004.00,1.71
6003.00,1.71
6002.00,1.71
6001.00,1.71
6000.00,1.71
5999.00,1.71
5998.00,1.71
5997.00,1.71
5996.00,1.70
5995.00,1.70
5994.00,1.70
5993.00,1.70
5992.00,1.69
5991.00,1.69
5990.00,1.69
5989.00,1.68
5988.00,1.68
5987.00,1.68
5986.00,1.67
5985.00,1.67
5984.00,1.66
5983.00,1.66
5982.00,1.66
5981.00,1.65
5980.00,1.65
5979.00,1.65
5978.00,1.65
5977.00,1.64
5976.00,1.64
5975.00,1.64
5974.00,1.64
5973.00,1.64
5972.00,1.64
5971.00,1.64
5970.00,1.64
5969.00,1.64
5968.00,1.63
5967.00,1.63
5966.00,1.63
5965.00,1.62
5964.00,1.61
5963.00,1.61
5962.00,1.60
5961.00,1.59
5960.00,1.58
5959.00,1.58
5958.00,1.57
5957.00,1.56
5956.00,1.55
5955.00,1.54
5954.00,1.53
5953.00,1.52
5952.00,1.52
5951.00,1.51
5950.00,1.51
5949.00,1.50
5948.00,1.50
5947.00,1.50
5946.00,1.50
5945.00,1.50
5944.00,1.50
5943.00,1.50
5942.00,1.50
5941.00,1.50
5940.00,1.50
5939.00,1.50
5938.00,1.50
5937.00,1.50
5936.00,1.50
5935.00,1.50
5934.00,1.50
5933.00,1.50
5932.00,1.50
5931.00,1.50
5930.00,1.50
5929.00,1.50
5928.00,1.49
5927.00,1.49
5926.00,1.49
5925.00,1.49
5924.00,1.48
5923.00,1.48
5922.00,1.48
5921.00,1.47
5920.00,1.47
5919.00,1.46
5918.00,1.46
5917.00,1.45
5916.00,1.45
5915.00,1.45
5914.00,1.45
5913.00,1.44
5912.00,1.44
5911.00,1.44
5910.00,1.44
5909.00,1.44
5908.00,1.44
5907.00,1.44
5906.00,1.43
5905.00,1.44
5904.00,1.44
5903.00,1.44
5902.00,1.44
5901.00,1.44
5900.00,1.44
5899.00,1.45
5898.00,1.45
5897.00,1.45
5896.00,1.45
5895.00,1.46
5894.00,1.46
5893.00,1.46
5892.00,1.47
5891.00,1.47
5890.00,1.47
5889.00,1.48
5888.00,1.48
5887.00,1.49
5886.00,1.49
5885.00,1.49
5884.00,1.49
5883.00,1.50
5882.00,1.50
5881.00,1.50
5880.00,1.50
5879.00,1.50
5878.00,1.50
5877.00,1.50
5876.00,1.50
5875.00,1.50
5874.00,1.51
5873.00,1.51
5872.00,1.51
5871.00,1.51
5870.00,1.51
5869.00,1.51
5868.00,1.52
5867.00,1.52
5866.00,1.52
5865.00,1.53
5864.00,1.53
5863.00,1.54
5862.00,1.54
5861.00,1.55
5860.00,1.55
5859.00,1.56
5858.00,1.56
5857.00,1.56
5856.00,1.57
5855.00,1.57
5854.00,1.57
5853.00,1.57
5852.00,1.57
5851.00,1.57
5850.00,1.57
5849.00,1.56
5848.00,1.56
5847.00,1.56
5846.00,1.56
5845.00,1.56
5844.00,1.55
5843.00,1.55
5842.00,1.55
5841.00,1.55
5840.00,1.55
5839.00,1.55
5838.00,1.55
5837.00,1.55
5836.00,1.55
5835.00,1.55
5834.00,1.55
5833.00,1.55
5832.00,1.55
5831.00,1.55
5830.00,1.55
5829.00,1.55
5828.00,1.54
5827.00,1.54
5826.00,1.54
5825.00,1.54
5824.00,1.54
5823.00,1.54
5822.00,1.54
5821.00,1.54
5820.00,1.54
5819.00,1.54
5818.00,1.55
5817.00,1.55
5816.00,1.55
5815.00,1.55
5814.00,1.55
5813.00,1.55
5812.00,1.55
5811.00,1.55
5810.00,1.56
5809.00,1.56
5808.00,1.56
5807.00,1.56
5806.00,1.56
5805.00,1.56
5804.00,1.55
5803.00,1.55
5802.00,1.55
5801.00,1.55
5800.00,1.55
5799.00,1.55
5798.00,1.54
5797.00,1.54
5796.00,1.54
5795.00,1.53
5794.00,1.53
5793.00,1.53
5792.00,1.52
5791.00,1.52
5790.00,1.52
5789.00,1.51
5788.00,1.51
5787.00,1.51
5786.00,1.50
5785.00,1.50
5784.00,1.50
5783.00,1.50
5782.00,1.49
5781.00,1.49
5780.00,1.49
5779.00,1.49
5778.00,1.49
5777.00,1.49
5776.00,1.49
5775.00,1.49
5774.00,1.49
5773.00,1.49
5772.00,1.49
5771.00,1.49
5770.00,1.49
5769.00,1.49
5768.00,1.49
5767.00,1.49
5766.00,1.49
5765.00,1.49
5764.00,1.49
5763.00,1.49
5762.00,1.49
5761.00,1.49
5760.00,1.49
5759.00,1.50
5758.00,1.50
5757.00,1.50
5756.00,1.51
5755.00,1.51
5754.00,1.51
5753.00,1.52
5752.00,1.52
5751.00,1.52
5750.00,1.53
5749.00,1.53
5748.00,1.54
5747.00,1.54
5746.00,1.54
5745.00,1.55
5744.00,1.55
5743.00,1.55
5742.00,1.55
5741.00,1.56
5740.00,1.56
5739.00,1.56
5738.00,1.56
5737.00,1.57
5736.00,1.57
5735.00,1.57
5734.00,1.57
5733.00,1.57
5732.00,1.58
5731.00,1.58
5730.00,1.58
5729.00,1.58
5728.00,1.58
5727.00,1.58
5726.00,1.58
5725.00,1.58
5724.00,1.58
5723.00,1.58
5722.00,1.58
5721.00,1.58
5720.00,1.58
5719.00,1.58
5718.00,1.58
5717.00,1.58
5716.00,1.58
5715.00,1.58
5714.00,1.57
5713.00,1.57
5712.00,1.57
5711.00,1.57
5710.00,1.56
5709.00,1.56
5708.00,1.56
5707.00,1.56
5706.00,1.55
5705.00,1.55
5704.00,1.55
5703.00,1.55
5702.00,1.55
5701.00,1.55
5700.00,1.54
5699.00,1.54
5698.00,1.54
5697.00,1.54
5696.00,1.55
5695.00,1.55
5694.00,1.55
5693.00,1.55
5692.00,1.55
5691.00,1.55
5690.00,1.55
5689.00,1.55
5688.00,1.56
5687.00,1.56
5686.00,1.56
5685.00,1.56
5684.00,1.55
5683.00,1.55
5682.00,1.55
5681.00,1.55
5680.00,1.55
5679.00,1.55
5678.00,1.54
5677.00,1.54
5676.00,1.54
5675.00,1.53
5674.00,1.53
5673.00,1.53
5672.00,1.52
5671.00,1.52
5670.00,1.52
5669.00,1.51
5668.00,1.51
5667.00,1.51
5666.00,1.51
5665.00,1.51
5664.00,1.51
5663.00,1.51
5662.00,1.51
5661.00,1.51
5660.00,1.51
5659.00,1.51
5658.00,1.51
5657.00,1.51
5656.00,1.52
5655.00,1.52
5654.00,1.52
5653.00,1.52
5652.00,1.53
5651.00,1.53
5650.00,1.53
5649.00,1.53
5648.00,1.54
5647.00,1.54
5646.00,1.54
5645.00,1.54
5644.00,1.55
5643.00,1.55
5642.00,1.55
5641.00,1.55
5640.00,1.55
5639.00,1.56
5638.00,1.56
5637.00,1.56
5636.00,1.56
5635.00,1.56
5634.00,1.57
5633.00,1.57
5632.00,1.57
5631.00,1.57
5630.00,1.57
5629.00,1.58
5628.00,1.58
5627.00,1.58
5626.00,1.58
5625.00,1.58
5624.00,1.58
5623.00,1.58
5622.00,1.59
5621.00,1.59
5620.00,1.59
5619.00,1.59
5618.00,1.59
5617.00,1.59
5616.00,1.59
5615.00,1.59
5614.00,1.59
5613.00,1.59
5612.00,1.59
5611.00,1.59
5610.00,1.59
5609.00,1.59
5608.00,1.59
5607.00,1.59
5606.00,1.59
5605.00,1.59
5604.00,1.59
5603.00,1.59
5602.00,1.59
5601.00,1.59
5600.00,1.59
5599.00,1.59
5598.00,1.59
5597.00,1.59
5596.00,1.60
5595.00,1.60
5594.00,1.60
5593.00,1.60
5592.00,1.61
5591.00,1.61
5590.00,1.61
5589.00,1.61
5588.00,1.61
5587.00,1.62
5586.00,1.62
5585.00,1.62
5584.00,1.62
5583.00,1.63
5582.00,1.63
5581.00,1.63
5580.00,1.63
5579.00,1.63
5578.00,1.64
5577.00,1.64
5576.00,1.64
5575.00,1.64
5574.00,1.64
5573.00,1.65
5572.00,1.65
5571.00,1.65
5570.00,1.65
5569.00,1.65
5568.00,1.66
5567.00,1.66
5566.00,1.66
5565.00,1.66
5564.00,1.66
5563.00,1.67
5562.00,1.67
5561.00,1.67
5560.00,1.67
5559.00,1.68
5558.00,1.68
5557.00,1.68
5556.00,1.68
5555.00,1.68
5554.00,1.68
5553.00,1.68
5552.00,1.69
5551.00,1.69
5550.00,1.69
5549.00,1.69
5548.00,1.69
5547.00,1.69
5546.00,1.69
5545.00,1.69
5544.00,1.69
5543.00,1.69
5542.00,1.69
5541.00,1.69
5540.00,1.69
5539.00,1.69
5538.00,1.69
5537.00,1.69
5536.00,1.69
5535.00,1.69
5534.00,1.70
5533.00,1.70
5532.00,1.70
5531.00,1.70
5530.00,1.70
5529.00,1.70
5528.00,1.70
5527.00,1.70
5526.00,1.70
5525.00,1.70
5524.00,1.70
5523.00,1.70
5522.00,1.70
5521.00,1.70
5520.00,1.70
5519.00,1.70
5518.00,1.70
5517.00,1.70
5516.00,1.70
5515.00,1.70
5514.00,1.70
5513.00,1.70
5512.00,1.71
5511.00,1.70
5510.00,1.70
5509.00,1.70
5508.00,1.70
5507.00,1.70
5506.00,1.70
5505.00,1.70
5504.00,1.70
5503.00,1.70
5502.00,1.70
5501.00,1.70
5500.00,1.70
5499.00,1.70
5498.00,1.69
5497.00,1.69
5496.00,1.69
5495.00,1.69
5494.00,1.69
5493.00,1.69
5492.00,1.70
5491.00,1.70
5490.00,1.70
5489.00,1.70
5488.00,1.71
5487.00,1.71
5486.00,1.71
5485.00,1.72
5484.00,1.72
5483.00,1.72
5482.00,1.73
5481.00,1.73
5480.00,1.73
5479.00,1.74
5478.00,1.74
5477.00,1.74
5476.00,1.74
5475.00,1.75
5474.00,1.75
5473.00,1.75
5472.00,1.75
5471.00,1.75
5470.00,1.75
5469.00,1.74
5468.00,1.74
5467.00,1.74
5466.00,1.74
5465.00,1.74
5464.00,1.74
5463.00,1.74
5462.00,1.74
5461.00,1.75
5460.00,1.75
5459.00,1.75
5458.00,1.75
5457.00,1.75
5456.00,1.75
5455.00,1.76
5454.00,1.76
5453.00,1.76
5452.00,1.77
5451.00,1.77
5450.00,1.77
5449.00,1.77
5448.00,1.77
5447.00,1.77
5446.00,1.77
5445.00,1.77
5444.00,1.77
5443.00,1.77
5442.00,1.76
5441.00,1.76
5440.00,1.75
5439.00,1.75
5438.00,1.74
5437.00,1.74
5436.00,1.73
5435.00,1.73
5434.00,1.72
5433.00,1.72
5432.00,1.72
5431.00,1.71
5430.00,1.71
5429.00,1.71
5428.00,1.70
5427.00,1.70
5426.00,1.70
5425.00,1.70
5424.00,1.70
5423.00,1.70
5422.00,1.70
5421.00,1.71
5420.00,1.71
5419.00,1.71
5418.00,1.71
5417.00,1.71
5416.00,1.72
5415.00,1.72
5414.00,1.72
5413.00,1.72
5412.00,1.72
5411.00,1.73
5410.00,1.73
5409.00,1.73
5408.00,1.73
5407.00,1.73
5406.00,1.74
5405.00,1.74
5404.00,1.74
5403.00,1.74
5402.00,1.74
5401.00,1.74
5400.00,1.74
5399.00,1.74
5398.00,1.74
5397.00,1.74
5396.00,1.73
5395.00,1.73
5394.00,1.73
5393.00,1.73
5392.00,1.73
5391.00,1.72
5390.00,1.72
5389.00,1.72
5388.00,1.72
5387.00,1.71
5386.00,1.71
5385.00,1.71
5384.00,1.70
5383.00,1.70
5382.00,1.70
5381.00,1.69
5380.00,1.69
5379.00,1.69
5378.00,1.68
5377.00,1.68
5376.00,1.68
5375.00,1.67
5374.00,1.67
5373.00,1.67
5372.00,1.66
5371.00,1.66
5370.00,1.66
5369.00,1.66
5368.00,1.65
5367.00,1.65
5366.00,1.65
5365.00,1.64
5364.00,1.64
5363.00,1.64
5362.00,1.63
5361.00,1.63
5360.00,1.62
5359.00,1.61
5358.00,1.61
5357.00,1.60
5356.00,1.59
5355.00,1.58
5354.00,1.57
5353.00,1.56
5352.00,1.54
5351.00,1.53
5350.00,1.52
5349.00,1.51
5348.00,1.49
5347.00,1.48
5346.00,1.47
5345.00,1.45
5344.00,1.44
5343.00,1.43
5342.00,1.42
5341.00,1.41
5340.00,1.39
5339.00,1.38
5338.00,1.37
5337.00,1.36
5336.00,1.36
5335.00,1.35
5334.00,1.34
5333.00,1.33
5332.00,1.32
5331.00,1.32
5330.00,1.31
5329.00,1.30
5328.00,1.29
5327.00,1.28
5326.00,1.27
5325.00,1.26
5324.00,1.25
5323.00,1.24
5322.00,1.23
5321.00,1.21
5320.00,1.20
5319.00,1.19
5318.00,1.17
5317.00,1.16
5316.00,1.14
5315.00,1.12
5314.00,1.11
5313.00,1.09
5312.00,1.08
5311.00,1.06
5310.00,1.04
5309.00,1.03
5308.00,1.01
5307.00,1.00
5306.00,0.98
5305.00,0.97
5304.00,0.96
5303.00,0.94
5302.00,0.93
5301.00,0.92
5300.00,0.91
5299.00,0.90
5298.00,0.89
5297.00,0.88
5296.00,0.87
5295.00,0.86
5294.00,0.85
5293.00,0.85
5292.00,0.84
5291.00,0.83
5290.00,0.82
5289.00,0.81
5288.00,0.81
5287.00,0.80
5286.00,0.79
5285.00,0.79
5284.00,0.78
5283.00,0.77
5282.00,0.76
5281.00,0.76
5280.00,0.75
5279.00,0.75
5278.00,0.74
5277.00,0.74
5276.00,0.73
5275.00,0.73
5274.00,0.72
5273.00,0.72
5272.00,0.72
5271.00,0.71
5270.00,0.71
5269.00,0.71
5268.00,0.71
5267.00,0.70
5266.00,0.70
5265.00,0.70
5264.00,0.70
5263.00,0.70
5262.00,0.70
5261.00,0.70
5260.00,0.70
5259.00,0.70
5258.00,0.70
5257.00,0.70
5256.00,0.69
5255.00,0.69
5254.00,0.69
5253.00,0.69
5252.00,0.69
5251.00,0.69
5250.00,0.69
5249.00,0.69
5248.00,0.69
5247.00,0.69
5246.00,0.69
5245.00,0.69
5244.00,0.69
5243.00,0.69
5242.00,0.69
5241.00,0.69
5240.00,0.69
5239.00,0.69
5238.00,0.69
5237.00,0.69
5236.00,0.69
5235.00,0.69
5234.00,0.69
5233.00,0.68
5232.00,0.68
5231.00,0.68
5230.00,0.68
5229.00,0.68
5228.00,0.67
5227.00,0.67
5226.00,0.67
5225.00,0.67
5224.00,0.66
5223.00,0.66
5222.00,0.66
5221.00,0.66
5220.00,0.66
5219.00,0.66
5218.00,0.66
5217.00,0.66
5216.00,0.66
5215.00,0.66
5214.00,0.67
5213.00,0.67
5212.00,0.67
5211.00,0.68
5210.00,0.68
5209.00,0.68
5208.00,0.68
5207.00,0.68
5206.00,0.69
5205.00,0.69
5204.00,0.69
5203.00,0.69
5202.00,0.69
5201.00,0.69
5200.00,0.69
5199.00,0.68
5198.00,0.68
5197.00,0.68
5196.00,0.68
5195.00,0.68
5194.00,0.68
5193.00,0.68
5192.00,0.68
5191.00,0.68
5190.00,0.67
5189.00,0.67
5188.00,0.67
5187.00,0.67
5186.00,0.67
5185.00,0.68
5184.00,0.68
5183.00,0.68
5182.00,0.68
5181.00,0.68
5180.00,0.68
5179.00,0.68
5178.00,0.68
5177.00,0.68
5176.00,0.68
5175.00,0.68
5174.00,0.68
5173.00,0.69
5172.00,0.69
5171.00,0.69
5170.00,0.70
5169.00,0.70
5168.00,0.70
5167.00,0.71
5166.00,0.71
5165.00,0.72
5164.00,0.72
5163.00,0.72
5162.00,0.73
5161.00,0.73
5160.00,0.73
5159.00,0.73
5158.00,0.73
5157.00,0.73
5156.00,0.73
5155.00,0.73
5154.00,0.73
5153.00,0.73
5152.00,0.73
5151.00,0.73
5150.00,0.73
5149.00,0.72
5148.00,0.72
5147.00,0.72
5146.00,0.72
5145.00,0.72
5144.00,0.72
5143.00,0.72
5142.00,0.72
5141.00,0.72
5140.00,0.72
5139.00,0.72
5138.00,0.72
5137.00,0.72
5136.00,0.72
5135.00,0.72
5134.00,0.72
5133.00,0.73
5132.00,0.73
5131.00,0.73
5130.00,0.74
5129.00,0.74
5128.00,0.74
5127.00,0.75
5126.00,0.75
5125.00,0.75
5124.00,0.76
5123.00,0.76
5122.00,0.76
5121.00,0.76
5120.00,0.77
5119.00,0.77
5118.00,0.77
5117.00,0.77
5116.00,0.78
5115.00,0.78
5114.00,0.78
5113.00,0.78
5112.00,0.77
5111.00,0.77
5110.00,0.77
5109.00,0.77
5108.00,0.77
5107.00,0.77
5106.00,0.77
5105.00,0.77
5104.00,0.77
5103.00,0.77
5102.00,0.77
5101.00,0.77
5100.00,0.77
5099.00,0.77
5098.00,0.77
5097.00,0.77
5096.00,0.77
5095.00,0.77
5094.00,0.78
5093.00,0.78
5092.00,0.78
5091.00,0.78
5090.00,0.78
5089.00,0.78
5088.00,0.79
5087.00,0.79
5086.00,0.79
5085.00,0.79
5084.00,0.79
5083.00,0.79
5082.00,0.79
5081.00,0.79
5080.00,0.79
5079.00,0.79
5078.00,0.78
5077.00,0.78
5076.00,0.78
5075.00,0.78
5074.00,0.78
5073.00,0.78
5072.00,0.77
5071.00,0.77
5070.00,0.77
5069.00,0.77
5068.00,0.77
5067.00,0.77
5066.00,0.77
5065.00,0.77
5064.00,0.77
5063.00,0.77
5062.00,0.77
5061.00,0.77
5060.00,0.77
5059.00,0.78
5058.00,0.78
5057.00,0.79
5056.00,0.79
5055.00,0.80
5054.00,0.80
5053.00,0.81
5052.00,0.81
5051.00,0.82
5050.00,0.82
5049.00,0.83
5048.00,0.83
5047.00,0.83
5046.00,0.84
5045.00,0.84
5044.00,0.84
5043.00,0.84
5042.00,0.84
5041.00,0.84
5040.00,0.84
5039.00,0.84
5038.00,0.84
5037.00,0.84
5036.00,0.84
5035.00,0.84
5034.00,0.84
5033.00,0.84
5032.00,0.84
5031.00,0.85
5030.00,0.85
5029.00,0.85
5028.00,0.85
5027.00,0.85
5026.00,0.85
5025.00,0.85
5024.00,0.86
5023.00,0.86
5022.00,0.86
5021.00,0.85
5020.00,0.85
5019.00,0.85
5018.00,0.85
5017.00,0.85
5016.00,0.85
5015.00,0.85
5014.00,0.85
5013.00,0.85
5012.00,0.85
5011.00,0.85
5010.00,0.86
5009.00,0.86
5008.00,0.86
5007.00,0.86
5006.00,0.86
5005.00,0.87
5004.00,0.87
5003.00,0.87
5002.00,0.87
5001.00,0.88
5000.00,0.88
4999.00,0.88
4998.00,0.88
4997.00,0.88
4996.00,0.88
4995.00,0.89
4994.00,0.89
4993.00,0.89
4992.00,0.89
4991.00,0.89
4990.00,0.89
4989.00,0.89
4988.00,0.89
4987.00,0.89
4986.00,0.89
4985.00,0.89
4984.00,0.89
4983.00,0.89
4982.00,0.89
4981.00,0.90
4980.00,0.90
4979.00,0.90
4978.00,0.90
4977.00,0.91
4976.00,0.91
4975.00,0.91
4974.00,0.91
4973.00,0.92
4972.00,0.92
4971.00,0.92
4970.00,0.92
4969.00,0.93
4968.00,0.93
4967.00,0.93
4966.00,0.93
4965.00,0.93
4964.00,0.93
4963.00,0.94
4962.00,0.94
4961.00,0.94
4960.00,0.94
4959.00,0.94
4958.00,0.94
4957.00,0.94
4956.00,0.95
4955.00,0.95
4954.00,0.95
4953.00,0.95
4952.00,0.96
4951.00,0.96
4950.00,0.96
4949.00,0.97
4948.00,0.97
4947.00,0.98
4946.00,0.98
4945.00,0.98
4944.00,0.99
4943.00,0.99
4942.00,0.99
4941.00,1.00
4940.00,1.00
4939.00,1.00
4938.00,1.01
4937.00,1.01
4936.00,1.01
4935.00,1.01
4934.00,1.01
4933.00,1.01
4932.00,1.02
4931.00,1.02
4930.00,1.02
4929.00,1.02
4928.00,1.02
4927.00,1.02
4926.00,1.02
4925.00,1.02
4924.00,1.02
4923.00,1.03
4922.00,1.03
4921.00,1.03
4920.00,1.03
4919.00,1.03
4918.00,1.03
4917.00,1.04
4916.00,1.04
4915.00,1.05
4914.00,1.05
4913.00,1.05
4912.00,1.06
4911.00,1.06
4910.00,1.06
4909.00,1.06
4908.00,1.06
4907.00,1.06
4906.00,1.06
4905.00,1.06
4904.00,1.06
4903.00,1.06
4902.00,1.06
4901.00,1.06
4900.00,1.06
4899.00,1.05
4898.00,1.05
4897.00,1.05
4896.00,1.05
4895.00,1.05
4894.00,1.05
4893.00,1.04
4892.00,1.04
4891.00,1.04
4890.00,1.04
4889.00,1.05
4888.00,1.05
4887.00,1.05
4886.00,1.05
4885.00,1.05
4884.00,1.05
4883.00,1.05
4882.00,1.06
4881.00,1.06
4880.00,1.06
4879.00,1.06
4878.00,1.06
4877.00,1.06
4876.00,1.07
4875.00,1.07
4874.00,1.07
4873.00,1.07
4872.00,1.07
4871.00,1.08
4870.00,1.08
4869.00,1.08
4868.00,1.08
4867.00,1.09
4866.00,1.09
4865.00,1.09
4864.00,1.09
4863.00,1.10
4862.00,1.10
4861.00,1.10
4860.00,1.10
4859.00,1.11
4858.00,1.11
4857.00,1.11
4856.00,1.11
4855.00,1.11
4854.00,1.11
4853.00,1.11
4852.00,1.11
4851.00,1.11
4850.00,1.11
4849.00,1.11
4848.00,1.11
4847.00,1.11
4846.00,1.11
4845.00,1.12
4844.00,1.12
4843.00,1.12
4842.00,1.12
4841.00,1.12
4840.00,1.13
4839.00,1.13
4838.00,1.13
4837.00,1.13
4836.00,1.14
4835.00,1.14
4834.00,1.14
4833.00,1.15
4832.00,1.15
4831.00,1.15
4830.00,1.16
4829.00,1.16
4828.00,1.16
4827.00,1.16
4826.00,1.16
4825.00,1.16
4824.00,1.17
4823.00,1.17
4822.00,1.17
4821.00,1.17
4820.00,1.17
4819.00,1.17
4818.00,1.17
4817.00,1.17
4816.00,1.17
4815.00,1.17
4814.00,1.17
4813.00,1.18
4812.00,1.18
4811.00,1.18
4810.00,1.18
4809.00,1.18
4808.00,1.19
4807.00,1.19
4806.00,1.19
4805.00,1.20
4804.00,1.20
4803.00,1.20
4802.00,1.21
4801.00,1.21
4800.00,1.21
4799.00,1.21
4798.00,1.22
4797.00,1.22
4796.00,1.22
4795.00,1.22
4794.00,1.22
4793.00,1.22
4792.00,1.22
4791.00,1.22
4790.00,1.22
4789.00,1.22
4788.00,1.22
4787.00,1.23
4786.00,1.23
4785.00,1.23
4784.00,1.23
4783.00,1.23
4782.00,1.24
4781.00,1.24
4780.00,1.25
4779.00,1.25
4778.00,1.25
4777.00,1.26
4776.00,1.26
4775.00,1.27
4774.00,1.27
4773.00,1.27
4772.00,1.28
4771.00,1.28
4770.00,1.29
4769.00,1.29
4768.00,1.29
4767.00,1.30
4766.00,1.30
4765.00,1.30
4764.00,1.31
4763.00,1.31
4762.00,1.31
4761.00,1.31
4760.00,1.32
4759.00,1.32
4758.00,1.32
4757.00,1.32
4756.00,1.32
4755.00,1.32
4754.00,1.32
4753.00,1.32
4752.00,1.32
4751.00,1.31
4750.00,1.31
4749.00,1.31
4748.00,1.31
4747.00,1.30
4746.00,1.30
4745.00,1.30
4744.00,1.30
4743.00,1.30
4742.00,1.30
4741.00,1.30
4740.00,1.31
4739.00,1.31
4738.00,1.31
4737.00,1.32
4736.00,1.33
4735.00,1.33
4734.00,1.34
4733.00,1.35
4732.00,1.36
4731.00,1.37
4730.00,1.38
4729.00,1.38
4728.00,1.39
4727.00,1.40
4726.00,1.40
4725.00,1.41
4724.00,1.41
4723.00,1.42
4722.00,1.42
4721.00,1.43
4720.00,1.43
4719.00,1.43
4718.00,1.44
4717.00,1.44
4716.00,1.44
4715.00,1.44
4714.00,1.45
4713.00,1.45
4712.00,1.45
4711.00,1.45
4710.00,1.46
4709.00,1.46
4708.00,1.46
4707.00,1.46
4706.00,1.46
4705.00,1.46
4704.00,1.46
4703.00,1.46
4702.00,1.46
4701.00,1.46
4700.00,1.47
4699.00,1.47
4698.00,1.47
4697.00,1.47
4696.00,1.47
4695.00,1.47
4694.00,1.47
4693.00,1.47
4692.00,1.48
4691.00,1.48
4690.00,1.48
4689.00,1.49
4688.00,1.49
4687.00,1.50
4686.00,1.50
4685.00,1.51
4684.00,1.52
4683.00,1.52
4682.00,1.53
4681.00,1.54
4680.00,1.54
4679.00,1.55
4678.00,1.56
4677.00,1.56
4676.00,1.57
4675.00,1.57
4674.00,1.58
4673.00,1.58
4672.00,1.59
4671.00,1.59
4670.00,1.60
4669.00,1.60
4668.00,1.60
4667.00,1.61
4666.00,1.61
4665.00,1.61
4664.00,1.61
4663.00,1.61
4662.00,1.61
4661.00,1.60
4660.00,1.60
4659.00,1.60
4658.00,1.60
4657.00,1.60
4656.00,1.60
4655.00,1.59
4654.00,1.59
4653.00,1.59
4652.00,1.58
4651.00,1.58
4650.00,1.57
4649.00,1.57
4648.00,1.57
4647.00,1.57
4646.00,1.57
4645.00,1.57
4644.00,1.57
4643.00,1.58
4642.00,1.58
4641.00,1.58
4640.00,1.59
4639.00,1.59
4638.00,1.60
4637.00,1.60
4636.00,1.61
4635.00,1.61
4634.00,1.62
4633.00,1.63
4632.00,1.63
4631.00,1.64
4630.00,1.64
4629.00,1.65
4628.00,1.65
4627.00,1.65
4626.00,1.65
4625.00,1.66
4624.00,1.66
4623.00,1.66
4622.00,1.66
4621.00,1.66
4620.00,1.66
4619.00,1.67
4618.00,1.67
4617.00,1.67
4616.00,1.67
4615.00,1.67
4614.00,1.68
4613.00,1.68
4612.00,1.68
4611.00,1.69
4610.00,1.69
4609.00,1.69
4608.00,1.69
4607.00,1.69
4606.00,1.69
4605.00,1.69
4604.00,1.69
4603.00,1.69
4602.00,1.69
4601.00,1.68
4600.00,1.68
4599.00,1.68
4598.00,1.68
4597.00,1.67
4596.00,1.67
4595.00,1.67
4594.00,1.66
4593.00,1.66
4592.00,1.66
4591.00,1.66
4590.00,1.67
4589.00,1.67
4588.00,1.67
4587.00,1.68
4586.00,1.68
4585.00,1.68
4584.00,1.68
4583.00,1.69
4582.00,1.69
4581.00,1.69
4580.00,1.70
4579.00,1.70
4578.00,1.70
4577.00,1.70
4576.00,1.70
4575.00,1.70
4574.00,1.70
4573.00,1.70
4572.00,1.70
4571.00,1.70
4570.00,1.70
4569.00,1.70
4568.00,1.71
4567.00,1.71
4566.00,1.71
4565.00,1.71
4564.00,1.72
4563.00,1.72
4562.00,1.72
4561.00,1.72
4560.00,1.73
4559.00,1.73
4558.00,1.73
4557.00,1.74
4556.00,1.74
4555.00,1.74
4554.00,1.75
4553.00,1.75
4552.00,1.75
4551.00,1.76
4550.00,1.76
4549.00,1.76
4548.00,1.76
4547.00,1.76
4546.00,1.77
4545.00,1.77
4544.00,1.77
4543.00,1.77
4542.00,1.77
4541.00,1.77
4540.00,1.77
4539.00,1.77
4538.00,1.77
4537.00,1.77
4536.00,1.77
4535.00,1.77
4534.00,1.76
4533.00,1.76
4532.00,1.76
4531.00,1.76
4530.00,1.76
4529.00,1.76
4528.00,1.76
4527.00,1.76
4526.00,1.76
4525.00,1.76
4524.00,1.76
4523.00,1.76
4522.00,1.76
4521.00,1.76
4520.00,1.77
4519.00,1.77
4518.00,1.77
4517.00,1.77
4516.00,1.77
4515.00,1.78
4514.00,1.78
4513.00,1.78
4512.00,1.78
4511.00,1.78
4510.00,1.78
4509.00,1.79
4508.00,1.79
4507.00,1.79
4506.00,1.79
4505.00,1.80
4504.00,1.80
4503.00,1.80
4502.00,1.80
4501.00,1.80
4500.00,1.80
4499.00,1.80
4498.00,1.80
4497.00,1.80
4496.00,1.80
4495.00,1.80
4494.00,1.80
4493.00,1.80
4492.00,1.80
4491.00,1.79
4490.00,1.79
4489.00,1.79
4488.00,1.78
4487.00,1.78
4486.00,1.78
4485.00,1.77
4484.00,1.77
4483.00,1.77
4482.00,1.77
4481.00,1.76
4480.00,1.76
4479.00,1.75
4478.00,1.75
4477.00,1.74
4476.00,1.74
4475.00,1.73
4474.00,1.73
4473.00,1.73
4472.00,1.72
4471.00,1.72
4470.00,1.72
4469.00,1.72
4468.00,1.71
4467.00,1.71
4466.00,1.70
4465.00,1.70
4464.00,1.70
4463.00,1.69
4462.00,1.68
4461.00,1.68
4460.00,1.67
4459.00,1.67
4458.00,1.66
4457.00,1.65
4456.00,1.64
4455.00,1.63
4454.00,1.62
4453.00,1.61
4452.00,1.60
4451.00,1.58
4450.00,1.57
4449.00,1.56
4448.00,1.55
4447.00,1.54
4446.00,1.53
4445.00,1.52
4444.00,1.51
4443.00,1.50
4442.00,1.49
4441.00,1.48
4440.00,1.47
4439.00,1.46
4438.00,1.45
4437.00,1.44
4436.00,1.43
4435.00,1.42
4434.00,1.41
4433.00,1.39
4432.00,1.38
4431.00,1.37
4430.00,1.36
4429.00,1.35
4428.00,1.34
4427.00,1.32
4426.00,1.31
4425.00,1.30
4424.00,1.29
4423.00,1.28
4422.00,1.27
4421.00,1.26
4420.00,1.25
4419.00,1.25
4418.00,1.24
4417.00,1.24
4416.00,1.23
4415.00,1.23
4414.00,1.23
4413.00,1.22
4412.00,1.22
4411.00,1.22
4410.00,1.22
4409.00,1.22
4408.00,1.22
4407.00,1.22
4406.00,1.22
4405.00,1.23
4404.00,1.23
4403.00,1.23
4402.00,1.24
4401.00,1.24
4400.00,1.24
4399.00,1.25
4398.00,1.25
4397.00,1.26
4396.00,1.26
4395.00,1.26
4394.00,1.27
4393.00,1.27
4392.00,1.28
4391.00,1.28
4390.00,1.29
4389.00,1.29
4388.00,1.30
4387.00,1.31
4386.00,1.31
4385.00,1.32
4384.00,1.32
4383.00,1.33
4382.00,1.34
4381.00,1.34
4380.00,1.35
4379.00,1.36
4378.00,1.36
4377.00,1.37
4376.00,1.38
4375.00,1.38
4374.00,1.39
4373.00,1.39
4372.00,1.39
4371.00,1.39
4370.00,1.39
4369.00,1.39
4368.00,1.39
4367.00,1.39
4366.00,1.39
4365.00,1.38
4364.00,1.38
4363.00,1.37
4362.00,1.37
4361.00,1.36
4360.00,1.35
4359.00,1.34
4358.00,1.34
4357.00,1.33
4356.00,1.32
4355.00,1.31
4354.00,1.31
4353.00,1.30
4352.00,1.30
4351.00,1.29
4350.00,1.29
4349.00,1.28
4348.00,1.28
4347.00,1.28
4346.00,1.28
4345.00,1.28
4344.00,1.28
4343.00,1.28
4342.00,1.28
4341.00,1.28
4340.00,1.28
4339.00,1.29
4338.00,1.29
4337.00,1.30
4336.00,1.30
4335.00,1.31
4334.00,1.31
4333.00,1.32
4332.00,1.32
4331.00,1.33
4330.00,1.33
4329.00,1.34
4328.00,1.35
4327.00,1.35
4326.00,1.36
4325.00,1.37
4324.00,1.38
4323.00,1.39
4322.00,1.40
4321.00,1.40
4320.00,1.41
4319.00,1.42
4318.00,1.43
4317.00,1.44
4316.00,1.44
4315.00,1.45
4314.00,1.46
4313.00,1.47
4312.00,1.47
4311.00,1.48
4310.00,1.49
4309.00,1.49
4308.00,1.50
4307.00,1.51
4306.00,1.51
4305.00,1.52
4304.00,1.52
4303.00,1.53
4302.00,1.54
4301.00,1.54
4300.00,1.55
4299.00,1.56
4298.00,1.56
4297.00,1.57
4296.00,1.58
4295.00,1.58
4294.00,1.59
4293.00,1.59
4292.00,1.59
4291.00,1.60
4290.00,1.60
4289.00,1.60
4288.00,1.60
4287.00,1.60
4286.00,1.60
4285.00,1.59
4284.00,1.59
4283.00,1.59
4282.00,1.58
4281.00,1.58
4280.00,1.57
4279.00,1.56
4278.00,1.56
4277.00,1.55
4276.00,1.55
4275.00,1.55
4274.00,1.54
4273.00,1.54
4272.00,1.54
4271.00,1.54
4270.00,1.53
4269.00,1.53
4268.00,1.53
4267.00,1.53
4266.00,1.53
4265.00,1.53
4264.00,1.53
4263.00,1.52
4262.00,1.52
4261.00,1.52
4260.00,1.52
4259.00,1.51
4258.00,1.51
4257.00,1.50
4256.00,1.50
4255.00,1.49
4254.00,1.49
4253.00,1.49
4252.00,1.48
4251.00,1.48
4250.00,1.48
4249.00,1.48
4248.00,1.49
4247.00,1.49
4246.00,1.49
4245.00,1.50
4244.00,1.51
4243.00,1.51
4242.00,1.52
4241.00,1.53
4240.00,1.54
4239.00,1.55
4238.00,1.55
4237.00,1.56
4236.00,1.56
4235.00,1.57
4234.00,1.57
4233.00,1.57
4232.00,1.57
4231.00,1.57
4230.00,1.57
4229.00,1.57
4228.00,1.58
4227.00,1.58
4226.00,1.58
4225.00,1.58
4224.00,1.58
4223.00,1.59
4222.00,1.59
4221.00,1.60
4220.00,1.60
4219.00,1.61
4218.00,1.62
4217.00,1.63
4216.00,1.64
4215.00,1.65
4214.00,1.66
4213.00,1.67
4212.00,1.68
4211.00,1.69
4210.00,1.70
4209.00,1.70
4208.00,1.71
4207.00,1.72
4206.00,1.72
4205.00,1.72
4204.00,1.73
4203.00,1.73
4202.00,1.73
4201.00,1.73
4200.00,1.73
4199.00,1.73
4198.00,1.72
4197.00,1.72
4196.00,1.71
4195.00,1.71
4194.00,1.70
4193.00,1.70
4192.00,1.69
4191.00,1.69
4190.00,1.68
4189.00,1.68
4188.00,1.67
4187.00,1.67
4186.00,1.66
4185.00,1.66
4184.00,1.65
4183.00,1.65
4182.00,1.64
4181.00,1.64
4180.00,1.64
4179.00,1.64
4178.00,1.63
4177.00,1.63
4176.00,1.63
4175.00,1.63
4174.00,1.63
4173.00,1.62
4172.00,1.62
4171.00,1.61
4170.00,1.61
4169.00,1.61
4168.00,1.61
4167.00,1.61
4166.00,1.61
4165.00,1.61
4164.00,1.61
4163.00,1.61
4162.00,1.61
4161.00,1.61
4160.00,1.61
4159.00,1.61
4158.00,1.61
4157.00,1.61
4156.00,1.62
4155.00,1.62
4154.00,1.62
4153.00,1.62
4152.00,1.62
4151.00,1.62
4150.00,1.62
4149.00,1.62
4148.00,1.62
4147.00,1.62
4146.00,1.62
4145.00,1.62
4144.00,1.62
4143.00,1.62
4142.00,1.63
4141.00,1.63
4140.00,1.64
4139.00,1.64
4138.00,1.64
4137.00,1.65
4136.00,1.65
4135.00,1.65
4134.00,1.65
4133.00,1.65
4132.00,1.65
4131.00,1.66
4130.00,1.66
4129.00,1.66
4128.00,1.66
4127.00,1.66
4126.00,1.66
4125.00,1.66
4124.00,1.65
4123.00,1.65
4122.00,1.65
4121.00,1.65
4120.00,1.66
4119.00,1.66
4118.00,1.66
4117.00,1.67
4116.00,1.68
4115.00,1.68
4114.00,1.69
4113.00,1.70
4112.00,1.70
4111.00,1.71
4110.00,1.72
4109.00,1.72
4108.00,1.73
4107.00,1.73
4106.00,1.73
4105.00,1.74
4104.00,1.74
4103.00,1.74
4102.00,1.74
4101.00,1.74
4100.00,1.73
4099.00,1.73
4098.00,1.73
4097.00,1.72
4096.00,1.72
4095.00,1.72
4094.00,1.71
4093.00,1.71
4092.00,1.70
4091.00,1.70
4090.00,1.70
4089.00,1.70
4088.00,1.70
4087.00,1.69
4086.00,1.69
4085.00,1.69
4084.00,1.69
4083.00,1.69
4082.00,1.69
4081.00,1.69
4080.00,1.69
4079.00,1.69
4078.00,1.70
4077.00,1.70
4076.00,1.70
4075.00,1.70
4074.00,1.70
4073.00,1.69
4072.00,1.69
4071.00,1.69
4070.00,1.68
4069.00,1.68
4068.00,1.68
4067.00,1.67
4066.00,1.67
4065.00,1.67
4064.00,1.66
4063.00,1.66
4062.00,1.66
4061.00,1.66
4060.00,1.66
4059.00,1.66
4058.00,1.66
4057.00,1.67
4056.00,1.67
4055.00,1.68
4054.00,1.68
4053.00,1.69
4052.00,1.70
4051.00,1.71
4050.00,1.71
4049.00,1.72
4048.00,1.73
4047.00,1.74
4046.00,1.75
4045.00,1.75
4044.00,1.76
4043.00,1.76
4042.00,1.77
4041.00,1.77
4040.00,1.77
4039.00,1.78
4038.00,1.78
4037.00,1.79
4036.00,1.79
4035.00,1.79
4034.00,1.80
4033.00,1.80
4032.00,1.80
4031.00,1.80
4030.00,1.80
4029.00,1.80
4028.00,1.79
4027.00,1.79
4026.00,1.79
4025.00,1.79
4024.00,1.79
4023.00,1.78
4022.00,1.77
4021.00,1.77
4020.00,1.76
4019.00,1.76
4018.00,1.75
4017.00,1.74
4016.00,1.74
4015.00,1.73
4014.00,1.73
4013.00,1.73
4012.00,1.73
4011.00,1.73
4010.00,1.73
4009.00,1.73
4008.00,1.74
4007.00,1.74
4006.00,1.74
4005.00,1.75
4004.00,1.75
4003.00,1.76
4002.00,1.76
4001.00,1.77
4000.00,1.78
