创建为新数据集,样品 694 用户 Administrator 日期 星期四, 七月 25 2019
cm-1,%T
10000.00,2.35
9999.00,2.29
9998.00,2.24
9997.00,2.19
9996.00,2.13
9995.00,2.08
9994.00,2.04
9993.00,1.99
9992.00,1.95
9991.00,1.91
9990.00,1.87
9989.00,1.83
9988.00,1.80
9987.00,1.77
9986.00,1.75
9985.00,1.72
9984.00,1.70
9983.00,1.68
9982.00,1.67
9981.00,1.65
9980.00,1.64
9979.00,1.63
9978.00,1.62
9977.00,1.61
9976.00,1.60
9975.00,1.59
9974.00,1.59
9973.00,1.58
9972.00,1.58
9971.00,1.58
9970.00,1.58
9969.00,1.58
9968.00,1.58
9967.00,1.59
9966.00,1.59
9965.00,1.60
9964.00,1.61
9963.00,1.62
9962.00,1.62
9961.00,1.63
9960.00,1.64
9959.00,1.65
9958.00,1.65
9957.00,1.66
9956.00,1.66
9955.00,1.66
9954.00,1.65
9953.00,1.65
9952.00,1.64
9951.00,1.63
9950.00,1.62
9949.00,1.61
9948.00,1.60
9947.00,1.59
9946.00,1.58
9945.00,1.57
9944.00,1.56
9943.00,1.56
9942.00,1.56
9941.00,1.55
9940.00,1.55
9939.00,1.55
9938.00,1.56
9937.00,1.56
9936.00,1.57
9935.00,1.57
9934.00,1.57
9933.00,1.58
9932.00,1.59
9931.00,1.59
9930.00,1.59
9929.00,1.60
9928.00,1.60
9927.00,1.60
9926.00,1.60
9925.00,1.59
9924.00,1.59
9923.00,1.59
9922.00,1.58
9921.00,1.58
9920.00,1.58
9919.00,1.57
9918.00,1.57
9917.00,1.57
9916.00,1.57
9915.00,1.57
9914.00,1.57
9913.00,1.57
9912.00,1.57
9911.00,1.57
9910.00,1.57
9909.00,1.56
9908.00,1.56
9907.00,1.56
9906.00,1.56
9905.00,1.56
9904.00,1.55
9903.00,1.55
9902.00,1.54
9901.00,1.53
9900.00,1.52
9899.00,1.52
9898.00,1.51
9897.00,1.50
9896.00,1.49
9895.00,1.48
9894.00,1.47
9893.00,1.46
9892.00,1.45
9891.00,1.44
9890.00,1.43
9889.00,1.43
9888.00,1.42
9887.00,1.42
9886.00,1.41
9885.00,1.41
9884.00,1.40
9883.00,1.40
9882.00,1.40
9881.00,1.40
9880.00,1.40
9879.00,1.40
9878.00,1.41
9877.00,1.41
9876.00,1.42
9875.00,1.43
9874.00,1.43
9873.00,1.44
9872.00,1.46
9871.00,1.47
9870.00,1.48
9869.00,1.49
9868.00,1.50
9867.00,1.51
9866.00,1.52
9865.00,1.52
9864.00,1.52
9863.00,1.52
9862.00,1.52
9861.00,1.51
9860.00,1.50
9859.00,1.49
9858.00,1.47
9857.00,1.45
9856.00,1.43
9855.00,1.41
9854.00,1.39
9853.00,1.37
9852.00,1.35
9851.00,1.34
9850.00,1.32
9849.00,1.30
9848.00,1.29
9847.00,1.28
9846.00,1.28
9845.00,1.27
9844.00,1.27
9843.00,1.27
9842.00,1.27
9841.00,1.27
9840.00,1.28
9839.00,1.29
9838.00,1.29
9837.00,1.30
9836.00,1.31
9835.00,1.32
9834.00,1.32
9833.00,1.33
9832.00,1.34
9831.00,1.34
9830.00,1.35
9829.00,1.35
9828.00,1.36
9827.00,1.36
9826.00,1.36
9825.00,1.36
9824.00,1.36
9823.00,1.36
9822.00,1.36
9821.00,1.36
9820.00,1.36
9819.00,1.36
9818.00,1.36
9817.00,1.36
9816.00,1.37
9815.00,1.37
9814.00,1.37
9813.00,1.38
9812.00,1.38
9811.00,1.39
9810.00,1.40
9809.00,1.41
9808.00,1.42
9807.00,1.42
9806.00,1.43
9805.00,1.44
9804.00,1.45
9803.00,1.46
9802.00,1.47
9801.00,1.47
9800.00,1.48
9799.00,1.48
9798.00,1.49
9797.00,1.49
9796.00,1.50
9795.00,1.50
9794.00,1.50
9793.00,1.50
9792.00,1.51
9791.00,1.51
9790.00,1.51
9789.00,1.50
9788.00,1.50
9787.00,1.50
9786.00,1.49
9785.00,1.49
9784.00,1.48
9783.00,1.47
9782.00,1.47
9781.00,1.46
9780.00,1.45
9779.00,1.44
9778.00,1.43
9777.00,1.42
9776.00,1.41
9775.00,1.40
9774.00,1.40
9773.00,1.39
9772.00,1.38
9771.00,1.38
9770.00,1.38
9769.00,1.38
9768.00,1.38
9767.00,1.38
9766.00,1.39
9765.00,1.40
9764.00,1.40
9763.00,1.41
9762.00,1.42
9761.00,1.43
9760.00,1.44
9759.00,1.45
9758.00,1.46
9757.00,1.47
9756.00,1.48
9755.00,1.49
9754.00,1.50
9753.00,1.50
9752.00,1.51
9751.00,1.51
9750.00,1.51
9749.00,1.51
9748.00,1.50
9747.00,1.50
9746.00,1.49
9745.00,1.49
9744.00,1.48
9743.00,1.47
9742.00,1.47
9741.00,1.46
9740.00,1.45
9739.00,1.45
9738.00,1.44
9737.00,1.44
9736.00,1.44
9735.00,1.44
9734.00,1.44
9733.00,1.44
9732.00,1.44
9731.00,1.44
9730.00,1.45
9729.00,1.45
9728.00,1.46
9727.00,1.46
9726.00,1.47
9725.00,1.47
9724.00,1.48
9723.00,1.49
9722.00,1.49
9721.00,1.49
9720.00,1.50
9719.00,1.50
9718.00,1.50
9717.00,1.50
9716.00,1.51
9715.00,1.51
9714.00,1.51
9713.00,1.51
9712.00,1.52
9711.00,1.52
9710.00,1.52
9709.00,1.52
9708.00,1.52
9707.00,1.52
9706.00,1.52
9705.00,1.53
9704.00,1.53
9703.00,1.53
9702.00,1.53
9701.00,1.53
9700.00,1.53
9699.00,1.53
9698.00,1.53
9697.00,1.53
9696.00,1.53
9695.00,1.53
9694.00,1.52
9693.00,1.52
9692.00,1.52
9691.00,1.51
9690.00,1.51
9689.00,1.51
9688.00,1.50
9687.00,1.50
9686.00,1.49
9685.00,1.49
9684.00,1.48
9683.00,1.47
9682.00,1.47
9681.00,1.46
9680.00,1.46
9679.00,1.46
9678.00,1.45
9677.00,1.45
9676.00,1.45
9675.00,1.45
9674.00,1.46
9673.00,1.46
9672.00,1.46
9671.00,1.47
9670.00,1.47
9669.00,1.48
9668.00,1.48
9667.00,1.49
9666.00,1.50
9665.00,1.51
9664.00,1.52
9663.00,1.53
9662.00,1.53
9661.00,1.54
9660.00,1.55
9659.00,1.55
9658.00,1.56
9657.00,1.56
9656.00,1.56
9655.00,1.55
9654.00,1.55
9653.00,1.54
9652.00,1.54
9651.00,1.53
9650.00,1.51
9649.00,1.50
9648.00,1.49
9647.00,1.47
9646.00,1.45
9645.00,1.44
9644.00,1.42
9643.00,1.40
9642.00,1.39
9641.00,1.38
9640.00,1.37
9639.00,1.36
9638.00,1.35
9637.00,1.35
9636.00,1.35
9635.00,1.35
9634.00,1.35
9633.00,1.36
9632.00,1.37
9631.00,1.39
9630.00,1.40
9629.00,1.42
9628.00,1.43
9627.00,1.45
9626.00,1.46
9625.00,1.48
9624.00,1.50
9623.00,1.51
9622.00,1.52
9621.00,1.53
9620.00,1.53
9619.00,1.53
9618.00,1.54
9617.00,1.53
9616.00,1.53
9615.00,1.53
9614.00,1.52
9613.00,1.51
9612.00,1.51
9611.00,1.50
9610.00,1.49
9609.00,1.48
9608.00,1.48
9607.00,1.47
9606.00,1.47
9605.00,1.46
9604.00,1.46
9603.00,1.46
9602.00,1.46
9601.00,1.46
9600.00,1.46
9599.00,1.46
9598.00,1.46
9597.00,1.46
9596.00,1.45
9595.00,1.45
9594.00,1.44
9593.00,1.44
9592.00,1.43
9591.00,1.42
9590.00,1.42
9589.00,1.41
9588.00,1.40
9587.00,1.38
9586.00,1.37
9585.00,1.36
9584.00,1.35
9583.00,1.34
9582.00,1.33
9581.00,1.32
9580.00,1.31
9579.00,1.30
9578.00,1.29
9577.00,1.28
9576.00,1.28
9575.00,1.27
9574.00,1.27
9573.00,1.27
9572.00,1.27
9571.00,1.27
9570.00,1.27
9569.00,1.28
9568.00,1.28
9567.00,1.29
9566.00,1.29
9565.00,1.30
9564.00,1.31
9563.00,1.31
9562.00,1.32
9561.00,1.33
9560.00,1.33
9559.00,1.34
9558.00,1.34
9557.00,1.34
9556.00,1.34
9555.00,1.35
9554.00,1.35
9553.00,1.35
9552.00,1.35
9551.00,1.34
9550.00,1.34
9549.00,1.34
9548.00,1.34
9547.00,1.34
9546.00,1.34
9545.00,1.34
9544.00,1.34
9543.00,1.34
9542.00,1.34
9541.00,1.34
9540.00,1.34
9539.00,1.33
9538.00,1.33
9537.00,1.33
9536.00,1.33
9535.00,1.33
9534.00,1.32
9533.00,1.32
9532.00,1.32
9531.00,1.32
9530.00,1.32
9529.00,1.32
9528.00,1.32
9527.00,1.32
9526.00,1.32
9525.00,1.33
9524.00,1.33
9523.00,1.34
9522.00,1.34
9521.00,1.35
9520.00,1.36
9519.00,1.36
9518.00,1.37
9517.00,1.38
9516.00,1.39
9515.00,1.39
9514.00,1.40
9513.00,1.41
9512.00,1.41
9511.00,1.41
9510.00,1.42
9509.00,1.42
9508.00,1.42
9507.00,1.42
9506.00,1.42
9505.00,1.41
9504.00,1.41
9503.00,1.41
9502.00,1.40
9501.00,1.39
9500.00,1.39
9499.00,1.38
9498.00,1.37
9497.00,1.37
9496.00,1.36
9495.00,1.35
9494.00,1.35
9493.00,1.34
9492.00,1.33
9491.00,1.33
9490.00,1.32
9489.00,1.31
9488.00,1.31
9487.00,1.30
9486.00,1.30
9485.00,1.30
9484.00,1.30
9483.00,1.29
9482.00,1.29
9481.00,1.30
9480.00,1.30
9479.00,1.30
9478.00,1.30
9477.00,1.31
9476.00,1.31
9475.00,1.31
9474.00,1.32
9473.00,1.32
9472.00,1.33
9471.00,1.33
9470.00,1.34
9469.00,1.34
9468.00,1.34
9467.00,1.35
9466.00,1.35
9465.00,1.35
9464.00,1.36
9463.00,1.36
9462.00,1.36
9461.00,1.36
9460.00,1.37
9459.00,1.37
9458.00,1.37
9457.00,1.37
9456.00,1.38
9455.00,1.38
9454.00,1.38
9453.00,1.38
9452.00,1.38
9451.00,1.38
9450.00,1.38
9449.00,1.38
9448.00,1.38
9447.00,1.38
9446.00,1.38
9445.00,1.38
9444.00,1.38
9443.00,1.39
9442.00,1.39
9441.00,1.39
9440.00,1.40
9439.00,1.41
9438.00,1.42
9437.00,1.43
9436.00,1.44
9435.00,1.45
9434.00,1.47
9433.00,1.48
9432.00,1.50
9431.00,1.51
9430.00,1.52
9429.00,1.53
9428.00,1.54
9427.00,1.55
9426.00,1.56
9425.00,1.57
9424.00,1.57
9423.00,1.57
9422.00,1.58
9421.00,1.58
9420.00,1.57
9419.00,1.57
9418.00,1.56
9417.00,1.55
9416.00,1.54
9415.00,1.53
9414.00,1.52
9413.00,1.51
9412.00,1.50
9411.00,1.49
9410.00,1.48
9409.00,1.48
9408.00,1.47
9407.00,1.47
9406.00,1.46
9405.00,1.46
9404.00,1.45
9403.00,1.45
9402.00,1.45
9401.00,1.45
9400.00,1.45
9399.00,1.45
9398.00,1.45
9397.00,1.45
9396.00,1.45
9395.00,1.45
9394.00,1.44
9393.00,1.44
9392.00,1.43
9391.00,1.42
9390.00,1.41
9389.00,1.40
9388.00,1.39
9387.00,1.38
9386.00,1.36
9385.00,1.35
9384.00,1.34
9383.00,1.33
9382.00,1.32
9381.00,1.32
9380.00,1.32
9379.00,1.32
9378.00,1.32
9377.00,1.32
9376.00,1.33
9375.00,1.33
9374.00,1.34
9373.00,1.35
9372.00,1.36
9371.00,1.37
9370.00,1.38
9369.00,1.38
9368.00,1.39
9367.00,1.40
9366.00,1.40
9365.00,1.41
9364.00,1.41
9363.00,1.40
9362.00,1.40
9361.00,1.40
9360.00,1.39
9359.00,1.39
9358.00,1.38
9357.00,1.37
9356.00,1.37
9355.00,1.36
9354.00,1.36
9353.00,1.36
9352.00,1.36
9351.00,1.35
9350.00,1.35
9349.00,1.35
9348.00,1.35
9347.00,1.34
9346.00,1.34
9345.00,1.34
9344.00,1.34
9343.00,1.33
9342.00,1.33
9341.00,1.33
9340.00,1.33
9339.00,1.33
9338.00,1.33
9337.00,1.33
9336.00,1.33
9335.00,1.33
9334.00,1.33
9333.00,1.33
9332.00,1.33
9331.00,1.34
9330.00,1.34
9329.00,1.34
9328.00,1.34
9327.00,1.35
9326.00,1.35
9325.00,1.36
9324.00,1.36
9323.00,1.36
9322.00,1.37
9321.00,1.37
9320.00,1.37
9319.00,1.38
9318.00,1.38
9317.00,1.39
9316.00,1.40
9315.00,1.41
9314.00,1.41
9313.00,1.42
9312.00,1.43
9311.00,1.44
9310.00,1.45
9309.00,1.46
9308.00,1.46
9307.00,1.47
9306.00,1.47
9305.00,1.48
9304.00,1.48
9303.00,1.48
9302.00,1.48
9301.00,1.48
9300.00,1.48
9299.00,1.47
9298.00,1.47
9297.00,1.46
9296.00,1.45
9295.00,1.44
9294.00,1.43
9293.00,1.42
9292.00,1.41
9291.00,1.40
9290.00,1.39
9289.00,1.37
9288.00,1.36
9287.00,1.35
9286.00,1.34
9285.00,1.33
9284.00,1.32
9283.00,1.31
9282.00,1.30
9281.00,1.30
9280.00,1.29
9279.00,1.29
9278.00,1.29
9277.00,1.29
9276.00,1.29
9275.00,1.29
9274.00,1.30
9273.00,1.30
9272.00,1.31
9271.00,1.32
9270.00,1.33
9269.00,1.33
9268.00,1.34
9267.00,1.36
9266.00,1.37
9265.00,1.38
9264.00,1.39
9263.00,1.40
9262.00,1.40
9261.00,1.41
9260.00,1.41
9259.00,1.42
9258.00,1.42
9257.00,1.42
9256.00,1.42
9255.00,1.41
9254.00,1.41
9253.00,1.41
9252.00,1.40
9251.00,1.40
9250.00,1.39
9249.00,1.38
9248.00,1.38
9247.00,1.37
9246.00,1.37
9245.00,1.36
9244.00,1.36
9243.00,1.35
9242.00,1.35
9241.00,1.35
9240.00,1.35
9239.00,1.35
9238.00,1.35
9237.00,1.35
9236.00,1.35
9235.00,1.35
9234.00,1.35
9233.00,1.35
9232.00,1.35
9231.00,1.35
9230.00,1.35
9229.00,1.35
9228.00,1.34
9227.00,1.34
9226.00,1.33
9225.00,1.33
9224.00,1.32
9223.00,1.31
9222.00,1.30
9221.00,1.29
9220.00,1.28
9219.00,1.27
9218.00,1.26
9217.00,1.25
9216.00,1.24
9215.00,1.24
9214.00,1.23
9213.00,1.23
9212.00,1.23
9211.00,1.23
9210.00,1.23
9209.00,1.24
9208.00,1.24
9207.00,1.25
9206.00,1.26
9205.00,1.27
9204.00,1.29
9203.00,1.30
9202.00,1.31
9201.00,1.33
9200.00,1.34
9199.00,1.36
9198.00,1.37
9197.00,1.39
9196.00,1.40
9195.00,1.41
9194.00,1.42
9193.00,1.43
9192.00,1.43
9191.00,1.44
9190.00,1.44
9189.00,1.44
9188.00,1.44
9187.00,1.44
9186.00,1.43
9185.00,1.43
9184.00,1.43
9183.00,1.42
9182.00,1.42
9181.00,1.41
9180.00,1.41
9179.00,1.40
9178.00,1.40
9177.00,1.39
9176.00,1.39
9175.00,1.38
9174.00,1.38
9173.00,1.37
9172.00,1.36
9171.00,1.36
9170.00,1.35
9169.00,1.35
9168.00,1.34
9167.00,1.34
9166.00,1.33
9165.00,1.33
9164.00,1.32
9163.00,1.32
9162.00,1.31
9161.00,1.31
9160.00,1.31
9159.00,1.31
9158.00,1.30
9157.00,1.30
9156.00,1.30
9155.00,1.30
9154.00,1.31
9153.00,1.31
9152.00,1.31
9151.00,1.31
9150.00,1.32
9149.00,1.32
9148.00,1.33
9147.00,1.33
9146.00,1.34
9145.00,1.34
9144.00,1.35
9143.00,1.36
9142.00,1.37
9141.00,1.38
9140.00,1.38
9139.00,1.39
9138.00,1.40
9137.00,1.41
9136.00,1.41
9135.00,1.42
9134.00,1.42
9133.00,1.42
9132.00,1.43
9131.00,1.43
9130.00,1.43
9129.00,1.42
9128.00,1.42
9127.00,1.41
9126.00,1.40
9125.00,1.40
9124.00,1.39
9123.00,1.38
9122.00,1.37
9121.00,1.36
9120.00,1.36
9119.00,1.35
9118.00,1.35
9117.00,1.34
9116.00,1.34
9115.00,1.34
9114.00,1.34
9113.00,1.35
9112.00,1.35
9111.00,1.36
9110.00,1.37
9109.00,1.38
9108.00,1.39
9107.00,1.40
9106.00,1.41
9105.00,1.42
9104.00,1.43
9103.00,1.43
9102.00,1.44
9101.00,1.44
9100.00,1.45
9099.00,1.45
9098.00,1.44
9097.00,1.44
9096.00,1.44
9095.00,1.43
9094.00,1.42
9093.00,1.42
9092.00,1.41
9091.00,1.40
9090.00,1.39
9089.00,1.38
9088.00,1.37
9087.00,1.36
9086.00,1.36
9085.00,1.35
9084.00,1.35
9083.00,1.35
9082.00,1.35
9081.00,1.35
9080.00,1.36
9079.00,1.36
9078.00,1.37
9077.00,1.37
9076.00,1.38
9075.00,1.39
9074.00,1.39
9073.00,1.40
9072.00,1.41
9071.00,1.41
9070.00,1.42
9069.00,1.42
9068.00,1.42
9067.00,1.42
9066.00,1.42
9065.00,1.42
9064.00,1.42
9063.00,1.42
9062.00,1.41
9061.00,1.41
9060.00,1.40
9059.00,1.40
9058.00,1.39
9057.00,1.39
9056.00,1.38
9055.00,1.38
9054.00,1.37
9053.00,1.37
9052.00,1.37
9051.00,1.36
9050.00,1.36
9049.00,1.36
9048.00,1.36
9047.00,1.35
9046.00,1.35
9045.00,1.35
9044.00,1.35
9043.00,1.35
9042.00,1.35
9041.00,1.35
9040.00,1.35
9039.00,1.35
9038.00,1.35
9037.00,1.35
9036.00,1.34
9035.00,1.34
9034.00,1.34
9033.00,1.34
9032.00,1.34
9031.00,1.34
9030.00,1.34
9029.00,1.34
9028.00,1.34
9027.00,1.35
9026.00,1.35
9025.00,1.35
9024.00,1.35
9023.00,1.36
9022.00,1.36
9021.00,1.37
9020.00,1.37
9019.00,1.38
9018.00,1.38
9017.00,1.39
9016.00,1.39
9015.00,1.39
9014.00,1.40
9013.00,1.40
9012.00,1.40
9011.00,1.40
9010.00,1.40
9009.00,1.40
9008.00,1.40
9007.00,1.40
9006.00,1.40
9005.00,1.41
9004.00,1.41
9003.00,1.41
9002.00,1.41
9001.00,1.41
9000.00,1.42
8999.00,1.42
8998.00,1.42
8997.00,1.42
8996.00,1.43
8995.00,1.43
8994.00,1.44
8993.00,1.44
8992.00,1.45
8991.00,1.45
8990.00,1.46
8989.00,1.46
8988.00,1.47
8987.00,1.48
8986.00,1.48
8985.00,1.48
8984.00,1.49
8983.00,1.49
8982.00,1.49
8981.00,1.49
8980.00,1.50
8979.00,1.49
8978.00,1.49
8977.00,1.49
8976.00,1.48
8975.00,1.47
8974.00,1.46
8973.00,1.45
8972.00,1.44
8971.00,1.43
8970.00,1.41
8969.00,1.40
8968.00,1.39
8967.00,1.38
8966.00,1.37
8965.00,1.37
8964.00,1.36
8963.00,1.36
8962.00,1.36
8961.00,1.36
8960.00,1.36
8959.00,1.37
8958.00,1.38
8957.00,1.38
8956.00,1.39
8955.00,1.40
8954.00,1.42
8953.00,1.43
8952.00,1.44
8951.00,1.45
8950.00,1.46
8949.00,1.47
8948.00,1.48
8947.00,1.48
8946.00,1.49
8945.00,1.50
8944.00,1.50
8943.00,1.51
8942.00,1.51
8941.00,1.52
8940.00,1.52
8939.00,1.52
8938.00,1.52
8937.00,1.52
8936.00,1.51
8935.00,1.51
8934.00,1.50
8933.00,1.49
8932.00,1.48
8931.00,1.47
8930.00,1.46
8929.00,1.45
8928.00,1.44
8927.00,1.42
8926.00,1.41
8925.00,1.39
8924.00,1.38
8923.00,1.37
8922.00,1.35
8921.00,1.35
8920.00,1.34
8919.00,1.34
8918.00,1.33
8917.00,1.34
8916.00,1.34
8915.00,1.34
8914.00,1.35
8913.00,1.35
8912.00,1.36
8911.00,1.37
8910.00,1.37
8909.00,1.38
8908.00,1.38
8907.00,1.39
8906.00,1.39
8905.00,1.39
8904.00,1.39
8903.00,1.39
8902.00,1.38
8901.00,1.37
8900.00,1.37
8899.00,1.36
8898.00,1.35
8897.00,1.34
8896.00,1.33
8895.00,1.33
8894.00,1.32
8893.00,1.31
8892.00,1.31
8891.00,1.31
8890.00,1.31
8889.00,1.31
8888.00,1.31
8887.00,1.31
8886.00,1.32
8885.00,1.32
8884.00,1.33
8883.00,1.33
8882.00,1.34
8881.00,1.34
8880.00,1.35
8879.00,1.35
8878.00,1.35
8877.00,1.36
8876.00,1.36
8875.00,1.36
8874.00,1.37
8873.00,1.37
8872.00,1.37
8871.00,1.37
8870.00,1.37
8869.00,1.38
8868.00,1.38
8867.00,1.38
8866.00,1.38
8865.00,1.39
8864.00,1.39
8863.00,1.39
8862.00,1.40
8861.00,1.40
8860.00,1.40
8859.00,1.40
8858.00,1.39
8857.00,1.39
8856.00,1.39
8855.00,1.39
8854.00,1.38
8853.00,1.38
8852.00,1.37
8851.00,1.37
8850.00,1.36
8849.00,1.36
8848.00,1.36
8847.00,1.36
8846.00,1.36
8845.00,1.36
8844.00,1.36
8843.00,1.37
8842.00,1.37
8841.00,1.37
8840.00,1.37
8839.00,1.38
8838.00,1.38
8837.00,1.38
8836.00,1.38
8835.00,1.38
8834.00,1.38
8833.00,1.38
8832.00,1.38
8831.00,1.37
8830.00,1.37
8829.00,1.36
8828.00,1.36
8827.00,1.35
8826.00,1.35
8825.00,1.34
8824.00,1.34
8823.00,1.34
8822.00,1.34
8821.00,1.34
8820.00,1.35
8819.00,1.35
8818.00,1.35
8817.00,1.35
8816.00,1.36
8815.00,1.36
8814.00,1.37
8813.00,1.37
8812.00,1.38
8811.00,1.38
8810.00,1.38
8809.00,1.39
8808.00,1.39
8807.00,1.39
8806.00,1.38
8805.00,1.38
8804.00,1.38
8803.00,1.38
8802.00,1.37
8801.00,1.37
8800.00,1.37
8799.00,1.37
8798.00,1.37
8797.00,1.37
8796.00,1.38
8795.00,1.38
8794.00,1.38
8793.00,1.38
8792.00,1.39
8791.00,1.39
8790.00,1.39
8789.00,1.39
8788.00,1.40
8787.00,1.40
8786.00,1.40
8785.00,1.40
8784.00,1.40
8783.00,1.40
8782.00,1.40
8781.00,1.40
8780.00,1.40
8779.00,1.40
8778.00,1.40
8777.00,1.40
8776.00,1.40
8775.00,1.40
8774.00,1.40
8773.00,1.41
8772.00,1.41
8771.00,1.42
8770.00,1.42
8769.00,1.43
8768.00,1.43
8767.00,1.44
8766.00,1.44
8765.00,1.45
8764.00,1.45
8763.00,1.45
8762.00,1.45
8761.00,1.45
8760.00,1.45
8759.00,1.45
8758.00,1.44
8757.00,1.44
8756.00,1.44
8755.00,1.43
8754.00,1.43
8753.00,1.43
8752.00,1.42
8751.00,1.42
8750.00,1.42
8749.00,1.42
8748.00,1.41
8747.00,1.41
8746.00,1.41
8745.00,1.41
8744.00,1.41
8743.00,1.41
8742.00,1.41
8741.00,1.41
8740.00,1.41
8739.00,1.41
8738.00,1.41
8737.00,1.40
8736.00,1.40
8735.00,1.40
8734.00,1.39
8733.00,1.39
8732.00,1.39
8731.00,1.38
8730.00,1.38
8729.00,1.38
8728.00,1.38
8727.00,1.37
8726.00,1.37
8725.00,1.37
8724.00,1.37
8723.00,1.37
8722.00,1.37
8721.00,1.38
8720.00,1.38
8719.00,1.39
8718.00,1.39
8717.00,1.40
8716.00,1.40
8715.00,1.40
8714.00,1.40
8713.00,1.40
8712.00,1.40
8711.00,1.40
8710.00,1.40
8709.00,1.40
8708.00,1.40
8707.00,1.40
8706.00,1.40
8705.00,1.40
8704.00,1.39
8703.00,1.39
8702.00,1.39
8701.00,1.39
8700.00,1.38
8699.00,1.38
8698.00,1.39
8697.00,1.39
8696.00,1.39
8695.00,1.39
8694.00,1.40
8693.00,1.40
8692.00,1.41
8691.00,1.41
8690.00,1.42
8689.00,1.42
8688.00,1.42
8687.00,1.43
8686.00,1.43
8685.00,1.43
8684.00,1.43
8683.00,1.43
8682.00,1.43
8681.00,1.43
8680.00,1.43
8679.00,1.43
8678.00,1.42
8677.00,1.42
8676.00,1.42
8675.00,1.41
8674.00,1.41
8673.00,1.41
8672.00,1.40
8671.00,1.40
8670.00,1.40
8669.00,1.39
8668.00,1.39
8667.00,1.39
8666.00,1.38
8665.00,1.38
8664.00,1.38
8663.00,1.38
8662.00,1.38
8661.00,1.38
8660.00,1.38
8659.00,1.38
8658.00,1.38
8657.00,1.38
8656.00,1.39
8655.00,1.39
8654.00,1.39
8653.00,1.39
8652.00,1.40
8651.00,1.40
8650.00,1.40
8649.00,1.40
8648.00,1.41
8647.00,1.41
8646.00,1.41
8645.00,1.41
8644.00,1.41
8643.00,1.41
8642.00,1.41
8641.00,1.41
8640.00,1.41
8639.00,1.41
8638.00,1.41
8637.00,1.41
8636.00,1.40
8635.00,1.40
8634.00,1.40
8633.00,1.41
8632.00,1.41
8631.00,1.41
8630.00,1.41
8629.00,1.41
8628.00,1.41
8627.00,1.41
8626.00,1.41
8625.00,1.41
8624.00,1.41
8623.00,1.41
8622.00,1.40
8621.00,1.40
8620.00,1.39
8619.00,1.39
8618.00,1.38
8617.00,1.38
8616.00,1.37
8615.00,1.36
8614.00,1.35
8613.00,1.35
8612.00,1.34
8611.00,1.33
8610.00,1.32
8609.00,1.32
8608.00,1.31
8607.00,1.31
8606.00,1.31
8605.00,1.30
8604.00,1.30
8603.00,1.31
8602.00,1.31
8601.00,1.31
8600.00,1.31
8599.00,1.32
8598.00,1.32
8597.00,1.33
8596.00,1.33
8595.00,1.34
8594.00,1.34
8593.00,1.35
8592.00,1.35
8591.00,1.36
8590.00,1.36
8589.00,1.36
8588.00,1.36
8587.00,1.36
8586.00,1.37
8585.00,1.37
8584.00,1.37
8583.00,1.36
8582.00,1.36
8581.00,1.36
8580.00,1.36
8579.00,1.36
8578.00,1.36
8577.00,1.36
8576.00,1.36
8575.00,1.36
8574.00,1.36
8573.00,1.36
8572.00,1.36
8571.00,1.36
8570.00,1.36
8569.00,1.36
8568.00,1.37
8567.00,1.37
8566.00,1.38
8565.00,1.38
8564.00,1.38
8563.00,1.39
8562.00,1.39
8561.00,1.40
8560.00,1.40
8559.00,1.41
8558.00,1.41
8557.00,1.41
8556.00,1.42
8555.00,1.42
8554.00,1.42
8553.00,1.43
8552.00,1.43
8551.00,1.43
8550.00,1.43
8549.00,1.42
8548.00,1.42
8547.00,1.41
8546.00,1.41
8545.00,1.40
8544.00,1.40
8543.00,1.39
8542.00,1.38
8541.00,1.37
8540.00,1.37
8539.00,1.36
8538.00,1.35
8537.00,1.34
8536.00,1.33
8535.00,1.32
8534.00,1.32
8533.00,1.31
8532.00,1.31
8531.00,1.31
8530.00,1.31
8529.00,1.31
8528.00,1.31
8527.00,1.31
8526.00,1.32
8525.00,1.32
8524.00,1.33
8523.00,1.33
8522.00,1.34
8521.00,1.34
8520.00,1.35
8519.00,1.35
8518.00,1.36
8517.00,1.37
8516.00,1.37
8515.00,1.37
8514.00,1.38
8513.00,1.38
8512.00,1.38
8511.00,1.38
8510.00,1.38
8509.00,1.38
8508.00,1.37
8507.00,1.37
8506.00,1.36
8505.00,1.36
8504.00,1.36
8503.00,1.35
8502.00,1.35
8501.00,1.35
8500.00,1.35
8499.00,1.34
8498.00,1.34
8497.00,1.34
8496.00,1.34
8495.00,1.33
8494.00,1.33
8493.00,1.33
8492.00,1.33
8491.00,1.33
8490.00,1.33
8489.00,1.32
8488.00,1.32
8487.00,1.32
8486.00,1.31
8485.00,1.31
8484.00,1.30
8483.00,1.30
8482.00,1.30
8481.00,1.30
8480.00,1.29
8479.00,1.30
8478.00,1.30
8477.00,1.30
8476.00,1.30
8475.00,1.31
8474.00,1.31
8473.00,1.32
8472.00,1.32
8471.00,1.33
8470.00,1.34
8469.00,1.35
8468.00,1.36
8467.00,1.37
8466.00,1.38
8465.00,1.39
8464.00,1.39
8463.00,1.40
8462.00,1.40
8461.00,1.40
8460.00,1.40
8459.00,1.40
8458.00,1.40
8457.00,1.40
8456.00,1.40
8455.00,1.39
8454.00,1.39
8453.00,1.38
8452.00,1.37
8451.00,1.36
8450.00,1.36
8449.00,1.35
8448.00,1.34
8447.00,1.33
8446.00,1.32
8445.00,1.31
8444.00,1.31
8443.00,1.31
8442.00,1.30
8441.00,1.30
8440.00,1.30
8439.00,1.30
8438.00,1.31
8437.00,1.31
8436.00,1.32
8435.00,1.32
8434.00,1.33
8433.00,1.33
8432.00,1.34
8431.00,1.35
8430.00,1.35
8429.00,1.36
8428.00,1.36
8427.00,1.37
8426.00,1.37
8425.00,1.37
8424.00,1.37
8423.00,1.37
8422.00,1.37
8421.00,1.37
8420.00,1.36
8419.00,1.36
8418.00,1.36
8417.00,1.35
8416.00,1.35
8415.00,1.34
8414.00,1.34
8413.00,1.34
8412.00,1.34
8411.00,1.33
8410.00,1.33
8409.00,1.33
8408.00,1.33
8407.00,1.33
8406.00,1.33
8405.00,1.33
8404.00,1.33
8403.00,1.33
8402.00,1.33
8401.00,1.34
8400.00,1.34
8399.00,1.34
8398.00,1.35
8397.00,1.35
8396.00,1.35
8395.00,1.36
8394.00,1.36
8393.00,1.36
8392.00,1.37
8391.00,1.37
8390.00,1.37
8389.00,1.38
8388.00,1.38
8387.00,1.38
8386.00,1.38
8385.00,1.38
8384.00,1.38
8383.00,1.37
8382.00,1.37
8381.00,1.36
8380.00,1.36
8379.00,1.35
8378.00,1.34
8377.00,1.34
8376.00,1.33
8375.00,1.32
8374.00,1.31
8373.00,1.31
8372.00,1.30
8371.00,1.29
8370.00,1.29
8369.00,1.29
8368.00,1.29
8367.00,1.29
8366.00,1.29
8365.00,1.29
8364.00,1.30
8363.00,1.30
8362.00,1.31
8361.00,1.32
8360.00,1.33
8359.00,1.34
8358.00,1.35
8357.00,1.36
8356.00,1.37
8355.00,1.38
8354.00,1.39
8353.00,1.39
8352.00,1.40
8351.00,1.40
8350.00,1.41
8349.00,1.41
8348.00,1.41
8347.00,1.41
8346.00,1.42
8345.00,1.42
8344.00,1.42
8343.00,1.42
8342.00,1.41
8341.00,1.41
8340.00,1.41
8339.00,1.41
8338.00,1.41
8337.00,1.41
8336.00,1.41
8335.00,1.41
8334.00,1.41
8333.00,1.41
8332.00,1.41
8331.00,1.41
8330.00,1.42
8329.00,1.42
8328.00,1.42
8327.00,1.42
8326.00,1.42
8325.00,1.42
8324.00,1.42
8323.00,1.42
8322.00,1.42
8321.00,1.42
8320.00,1.42
8319.00,1.42
8318.00,1.42
8317.00,1.42
8316.00,1.42
8315.00,1.41
8314.00,1.41
8313.00,1.40
8312.00,1.40
8311.00,1.39
8310.00,1.38
8309.00,1.37
8308.00,1.36
8307.00,1.35
8306.00,1.34
8305.00,1.33
8304.00,1.33
8303.00,1.32
8302.00,1.31
8301.00,1.31
8300.00,1.30
8299.00,1.30
8298.00,1.29
8297.00,1.29
8296.00,1.29
8295.00,1.28
8294.00,1.28
8293.00,1.28
8292.00,1.29
8291.00,1.29
8290.00,1.29
8289.00,1.29
8288.00,1.29
8287.00,1.29
8286.00,1.30
8285.00,1.30
8284.00,1.30
8283.00,1.31
8282.00,1.31
8281.00,1.32
8280.00,1.32
8279.00,1.33
8278.00,1.34
8277.00,1.34
8276.00,1.35
8275.00,1.36
8274.00,1.37
8273.00,1.38
8272.00,1.39
8271.00,1.40
8270.00,1.40
8269.00,1.41
8268.00,1.42
8267.00,1.42
8266.00,1.42
8265.00,1.43
8264.00,1.43
8263.00,1.43
8262.00,1.43
8261.00,1.43
8260.00,1.42
8259.00,1.42
8258.00,1.42
8257.00,1.41
8256.00,1.41
8255.00,1.40
8254.00,1.40
8253.00,1.39
8252.00,1.39
8251.00,1.39
8250.00,1.38
8249.00,1.38
8248.00,1.37
8247.00,1.37
8246.00,1.36
8245.00,1.36
8244.00,1.36
8243.00,1.36
8242.00,1.36
8241.00,1.36
8240.00,1.36
8239.00,1.36
8238.00,1.36
8237.00,1.36
8236.00,1.36
8235.00,1.36
8234.00,1.36
8233.00,1.36
8232.00,1.36
8231.00,1.36
8230.00,1.36
8229.00,1.36
8228.00,1.36
8227.00,1.36
8226.00,1.35
8225.00,1.35
8224.00,1.35
8223.00,1.35
8222.00,1.34
8221.00,1.34
8220.00,1.34
8219.00,1.35
8218.00,1.35
8217.00,1.35
8216.00,1.36
8215.00,1.36
8214.00,1.37
8213.00,1.38
8212.00,1.38
8211.00,1.39
8210.00,1.40
8209.00,1.41
8208.00,1.41
8207.00,1.42
8206.00,1.43
8205.00,1.43
8204.00,1.44
8203.00,1.44
8202.00,1.44
8201.00,1.44
8200.00,1.44
8199.00,1.44
8198.00,1.44
8197.00,1.44
8196.00,1.43
8195.00,1.43
8194.00,1.43
8193.00,1.43
8192.00,1.43
8191.00,1.43
8190.00,1.42
8189.00,1.42
8188.00,1.42
8187.00,1.42
8186.00,1.42
8185.00,1.42
8184.00,1.42
8183.00,1.43
8182.00,1.43
8181.00,1.43
8180.00,1.43
8179.00,1.43
8178.00,1.43
8177.00,1.44
8176.00,1.44
8175.00,1.44
8174.00,1.44
8173.00,1.44
8172.00,1.44
8171.00,1.44
8170.00,1.44
8169.00,1.45
8168.00,1.45
8167.00,1.45
8166.00,1.45
8165.00,1.45
8164.00,1.45
8163.00,1.45
8162.00,1.45
8161.00,1.45
8160.00,1.45
8159.00,1.45
8158.00,1.45
8157.00,1.46
8156.00,1.46
8155.00,1.46
8154.00,1.46
8153.00,1.46
8152.00,1.46
8151.00,1.46
8150.00,1.45
8149.00,1.45
8148.00,1.45
8147.00,1.45
8146.00,1.45
8145.00,1.45
8144.00,1.44
8143.00,1.44
8142.00,1.44
8141.00,1.44
8140.00,1.43
8139.00,1.43
8138.00,1.42
8137.00,1.42
8136.00,1.42
8135.00,1.41
8134.00,1.41
8133.00,1.41
8132.00,1.41
8131.00,1.41
8130.00,1.41
8129.00,1.41
8128.00,1.41
8127.00,1.41
8126.00,1.41
8125.00,1.41
8124.00,1.41
8123.00,1.42
8122.00,1.42
8121.00,1.43
8120.00,1.44
8119.00,1.45
8118.00,1.45
8117.00,1.46
8116.00,1.47
8115.00,1.47
8114.00,1.48
8113.00,1.48
8112.00,1.49
8111.00,1.49
8110.00,1.50
8109.00,1.50
8108.00,1.50
8107.00,1.50
8106.00,1.50
8105.00,1.50
8104.00,1.50
8103.00,1.50
8102.00,1.50
8101.00,1.49
8100.00,1.49
8099.00,1.49
8098.00,1.48
8097.00,1.48
8096.00,1.48
8095.00,1.47
8094.00,1.47
8093.00,1.47
8092.00,1.46
8091.00,1.46
8090.00,1.46
8089.00,1.46
8088.00,1.46
8087.00,1.47
8086.00,1.47
8085.00,1.47
8084.00,1.47
8083.00,1.48
8082.00,1.48
8081.00,1.49
8080.00,1.49
8079.00,1.50
8078.00,1.50
8077.00,1.51
8076.00,1.51
8075.00,1.51
8074.00,1.51
8073.00,1.51
8072.00,1.51
8071.00,1.51
8070.00,1.51
8069.00,1.51
8068.00,1.51
8067.00,1.50
8066.00,1.50
8065.00,1.49
8064.00,1.48
8063.00,1.47
8062.00,1.47
8061.00,1.46
8060.00,1.45
8059.00,1.45
8058.00,1.44
8057.00,1.44
8056.00,1.44
8055.00,1.43
8054.00,1.43
8053.00,1.43
8052.00,1.43
8051.00,1.43
8050.00,1.43
8049.00,1.43
8048.00,1.43
8047.00,1.44
8046.00,1.44
8045.00,1.44
8044.00,1.44
8043.00,1.44
8042.00,1.44
8041.00,1.45
8040.00,1.45
8039.00,1.45
8038.00,1.45
8037.00,1.45
8036.00,1.46
8035.00,1.46
8034.00,1.46
8033.00,1.46
8032.00,1.47
8031.00,1.47
8030.00,1.47
8029.00,1.47
8028.00,1.48
8027.00,1.48
8026.00,1.48
8025.00,1.49
8024.00,1.49
8023.00,1.49
8022.00,1.48
8021.00,1.48
8020.00,1.48
8019.00,1.48
8018.00,1.47
8017.00,1.47
8016.00,1.47
8015.00,1.47
8014.00,1.46
8013.00,1.46
8012.00,1.46
8011.00,1.46
8010.00,1.45
8009.00,1.45
8008.00,1.45
8007.00,1.45
8006.00,1.45
8005.00,1.46
8004.00,1.46
8003.00,1.46
8002.00,1.46
8001.00,1.46
8000.00,1.46
7999.00,1.46
7998.00,1.46
7997.00,1.46
7996.00,1.46
7995.00,1.46
7994.00,1.46
7993.00,1.45
7992.00,1.45
7991.00,1.45
7990.00,1.45
7989.00,1.45
7988.00,1.45
7987.00,1.45
7986.00,1.45
7985.00,1.45
7984.00,1.45
7983.00,1.46
7982.00,1.46
7981.00,1.46
7980.00,1.46
7979.00,1.46
7978.00,1.46
7977.00,1.47
7976.00,1.47
7975.00,1.47
7974.00,1.47
7973.00,1.47
7972.00,1.47
7971.00,1.47
7970.00,1.47
7969.00,1.47
7968.00,1.47
7967.00,1.46
7966.00,1.46
7965.00,1.46
7964.00,1.45
7963.00,1.45
7962.00,1.45
7961.00,1.44
7960.00,1.44
7959.00,1.44
7958.00,1.43
7957.00,1.43
7956.00,1.42
7955.00,1.42
7954.00,1.41
7953.00,1.41
7952.00,1.40
7951.00,1.40
7950.00,1.40
7949.00,1.40
7948.00,1.39
7947.00,1.39
7946.00,1.39
7945.00,1.39
7944.00,1.39
7943.00,1.39
7942.00,1.39
7941.00,1.39
7940.00,1.39
7939.00,1.39
7938.00,1.39
7937.00,1.39
7936.00,1.39
7935.00,1.39
7934.00,1.39
7933.00,1.39
7932.00,1.39
7931.00,1.38
7930.00,1.38
7929.00,1.38
7928.00,1.38
7927.00,1.38
7926.00,1.38
7925.00,1.38
7924.00,1.38
7923.00,1.38
7922.00,1.38
7921.00,1.39
7920.00,1.39
7919.00,1.39
7918.00,1.40
7917.00,1.40
7916.00,1.41
7915.00,1.42
7914.00,1.43
7913.00,1.44
7912.00,1.44
7911.00,1.45
7910.00,1.46
7909.00,1.47
7908.00,1.47
7907.00,1.48
7906.00,1.49
7905.00,1.49
7904.00,1.50
7903.00,1.50
7902.00,1.51
7901.00,1.51
7900.00,1.51
7899.00,1.51
7898.00,1.52
7897.00,1.52
7896.00,1.52
7895.00,1.52
7894.00,1.52
7893.00,1.52
7892.00,1.52
7891.00,1.52
7890.00,1.52
7889.00,1.52
7888.00,1.52
7887.00,1.52
7886.00,1.52
7885.00,1.52
7884.00,1.52
7883.00,1.51
7882.00,1.51
7881.00,1.51
7880.00,1.51
7879.00,1.50
7878.00,1.50
7877.00,1.49
7876.00,1.49
7875.00,1.48
7874.00,1.48
7873.00,1.48
7872.00,1.48
7871.00,1.48
7870.00,1.47
7869.00,1.47
7868.00,1.47
7867.00,1.47
7866.00,1.47
7865.00,1.46
7864.00,1.46
7863.00,1.46
7862.00,1.47
7861.00,1.47
7860.00,1.47
7859.00,1.47
7858.00,1.47
7857.00,1.48
7856.00,1.48
7855.00,1.48
7854.00,1.48
7853.00,1.48
7852.00,1.48
7851.00,1.49
7850.00,1.49
7849.00,1.49
7848.00,1.49
7847.00,1.49
7846.00,1.49
7845.00,1.49
7844.00,1.49
7843.00,1.49
7842.00,1.49
7841.00,1.49
7840.00,1.49
7839.00,1.49
7838.00,1.49
7837.00,1.49
7836.00,1.49
7835.00,1.49
7834.00,1.49
7833.00,1.49
7832.00,1.49
7831.00,1.49
7830.00,1.49
7829.00,1.49
7828.00,1.49
7827.00,1.48
7826.00,1.48
7825.00,1.48
7824.00,1.48
7823.00,1.48
7822.00,1.48
7821.00,1.48
7820.00,1.48
7819.00,1.48
7818.00,1.48
7817.00,1.48
7816.00,1.48
7815.00,1.49
7814.00,1.49
7813.00,1.50
7812.00,1.51
7811.00,1.51
7810.00,1.52
7809.00,1.53
7808.00,1.53
7807.00,1.54
7806.00,1.55
7805.00,1.55
7804.00,1.56
7803.00,1.56
7802.00,1.56
7801.00,1.56
7800.00,1.56
7799.00,1.56
7798.00,1.55
7797.00,1.55
7796.00,1.54
7795.00,1.53
7794.00,1.53
7793.00,1.52
7792.00,1.51
7791.00,1.50
7790.00,1.50
7789.00,1.49
7788.00,1.48
7787.00,1.47
7786.00,1.47
7785.00,1.46
7784.00,1.46
7783.00,1.46
7782.00,1.45
7781.00,1.45
7780.00,1.45
7779.00,1.45
7778.00,1.45
7777.00,1.45
7776.00,1.46
7775.00,1.46
7774.00,1.46
7773.00,1.47
7772.00,1.47
7771.00,1.47
7770.00,1.48
7769.00,1.48
7768.00,1.49
7767.00,1.49
7766.00,1.49
7765.00,1.49
7764.00,1.50
7763.00,1.50
7762.00,1.50
7761.00,1.50
7760.00,1.51
7759.00,1.51
7758.00,1.51
7757.00,1.51
7756.00,1.51
7755.00,1.51
7754.00,1.51
7753.00,1.51
7752.00,1.51
7751.00,1.52
7750.00,1.52
7749.00,1.52
7748.00,1.52
7747.00,1.52
7746.00,1.53
7745.00,1.53
7744.00,1.53
7743.00,1.53
7742.00,1.53
7741.00,1.53
7740.00,1.53
7739.00,1.53
7738.00,1.53
7737.00,1.52
7736.00,1.52
7735.00,1.52
7734.00,1.52
7733.00,1.51
7732.00,1.51
7731.00,1.51
7730.00,1.51
7729.00,1.51
7728.00,1.51
7727.00,1.51
7726.00,1.51
7725.00,1.51
7724.00,1.51
7723.00,1.51
7722.00,1.51
7721.00,1.51
7720.00,1.51
7719.00,1.51
7718.00,1.51
7717.00,1.51
7716.00,1.51
7715.00,1.51
7714.00,1.51
7713.00,1.50
7712.00,1.50
7711.00,1.50
7710.00,1.50
7709.00,1.50
7708.00,1.50
7707.00,1.50
7706.00,1.50
7705.00,1.51
7704.00,1.51
7703.00,1.51
7702.00,1.52
7701.00,1.52
7700.00,1.53
7699.00,1.53
7698.00,1.53
7697.00,1.53
7696.00,1.54
7695.00,1.54
7694.00,1.54
7693.00,1.54
7692.00,1.53
7691.00,1.53
7690.00,1.53
7689.00,1.53
7688.00,1.53
7687.00,1.53
7686.00,1.52
7685.00,1.52
7684.00,1.52
7683.00,1.52
7682.00,1.52
7681.00,1.52
7680.00,1.52
7679.00,1.52
7678.00,1.53
7677.00,1.53
7676.00,1.53
7675.00,1.53
7674.00,1.53
7673.00,1.53
7672.00,1.53
7671.00,1.53
7670.00,1.53
7669.00,1.52
7668.00,1.52
7667.00,1.51
7666.00,1.51
7665.00,1.50
7664.00,1.50
7663.00,1.49
7662.00,1.48
7661.00,1.48
7660.00,1.47
7659.00,1.47
7658.00,1.47
7657.00,1.47
7656.00,1.47
7655.00,1.47
7654.00,1.48
7653.00,1.48
7652.00,1.49
7651.00,1.49
7650.00,1.50
7649.00,1.50
7648.00,1.51
7647.00,1.51
7646.00,1.52
7645.00,1.52
7644.00,1.52
7643.00,1.52
7642.00,1.52
7641.00,1.52
7640.00,1.52
7639.00,1.52
7638.00,1.51
7637.00,1.51
7636.00,1.50
7635.00,1.50
7634.00,1.49
7633.00,1.49
7632.00,1.49
7631.00,1.48
7630.00,1.48
7629.00,1.48
7628.00,1.48
7627.00,1.47
7626.00,1.48
7625.00,1.48
7624.00,1.48
7623.00,1.48
7622.00,1.49
7621.00,1.50
7620.00,1.50
7619.00,1.51
7618.00,1.52
7617.00,1.52
7616.00,1.53
7615.00,1.54
7614.00,1.54
7613.00,1.55
7612.00,1.55
7611.00,1.56
7610.00,1.56
7609.00,1.56
7608.00,1.56
7607.00,1.56
7606.00,1.56
7605.00,1.56
7604.00,1.56
7603.00,1.55
7602.00,1.55
7601.00,1.54
7600.00,1.54
7599.00,1.53
7598.00,1.53
7597.00,1.52
7596.00,1.52
7595.00,1.52
7594.00,1.51
7593.00,1.51
7592.00,1.51
7591.00,1.51
7590.00,1.50
7589.00,1.50
7588.00,1.50
7587.00,1.51
7586.00,1.51
7585.00,1.51
7584.00,1.51
7583.00,1.50
7582.00,1.50
7581.00,1.50
7580.00,1.50
7579.00,1.50
7578.00,1.50
7577.00,1.49
7576.00,1.49
7575.00,1.49
7574.00,1.49
7573.00,1.49
7572.00,1.49
7571.00,1.49
7570.00,1.49
7569.00,1.49
7568.00,1.49
7567.00,1.49
7566.00,1.50
7565.00,1.50
7564.00,1.50
7563.00,1.51
7562.00,1.51
7561.00,1.51
7560.00,1.51
7559.00,1.51
7558.00,1.51
7557.00,1.51
7556.00,1.51
7555.00,1.51
7554.00,1.51
7553.00,1.51
7552.00,1.50
7551.00,1.50
7550.00,1.50
7549.00,1.50
7548.00,1.49
7547.00,1.49
7546.00,1.49
7545.00,1.49
7544.00,1.48
7543.00,1.48
7542.00,1.48
7541.00,1.47
7540.00,1.47
7539.00,1.47
7538.00,1.46
7537.00,1.46
7536.00,1.45
7535.00,1.44
7534.00,1.44
7533.00,1.43
7532.00,1.43
7531.00,1.42
7530.00,1.42
7529.00,1.42
7528.00,1.41
7527.00,1.41
7526.00,1.41
7525.00,1.41
7524.00,1.41
7523.00,1.42
7522.00,1.42
7521.00,1.42
7520.00,1.43
7519.00,1.43
7518.00,1.44
7517.00,1.44
7516.00,1.45
7515.00,1.45
7514.00,1.46
7513.00,1.46
7512.00,1.46
7511.00,1.47
7510.00,1.47
7509.00,1.47
7508.00,1.47
7507.00,1.47
7506.00,1.47
7505.00,1.47
7504.00,1.47
7503.00,1.47
7502.00,1.46
7501.00,1.46
7500.00,1.46
7499.00,1.46
7498.00,1.47
7497.00,1.47
7496.00,1.47
7495.00,1.47
7494.00,1.47
7493.00,1.47
7492.00,1.47
7491.00,1.48
7490.00,1.48
7489.00,1.48
7488.00,1.48
7487.00,1.49
7486.00,1.49
7485.00,1.49
7484.00,1.50
7483.00,1.50
7482.00,1.50
7481.00,1.50
7480.00,1.51
7479.00,1.51
7478.00,1.51
7477.00,1.52
7476.00,1.52
7475.00,1.52
7474.00,1.53
7473.00,1.53
7472.00,1.53
7471.00,1.53
7470.00,1.53
7469.00,1.53
7468.00,1.53
7467.00,1.53
7466.00,1.53
7465.00,1.53
7464.00,1.53
7463.00,1.52
7462.00,1.52
7461.00,1.52
7460.00,1.52
7459.00,1.52
7458.00,1.51
7457.00,1.51
7456.00,1.51
7455.00,1.51
7454.00,1.50
7453.00,1.50
7452.00,1.50
7451.00,1.50
7450.00,1.51
7449.00,1.51
7448.00,1.51
7447.00,1.51
7446.00,1.51
7445.00,1.51
7444.00,1.51
7443.00,1.52
7442.00,1.52
7441.00,1.52
7440.00,1.52
7439.00,1.52
7438.00,1.51
7437.00,1.51
7436.00,1.51
7435.00,1.51
7434.00,1.50
7433.00,1.50
7432.00,1.50
7431.00,1.49
7430.00,1.49
7429.00,1.49
7428.00,1.49
7427.00,1.48
7426.00,1.48
7425.00,1.48
7424.00,1.48
7423.00,1.48
7422.00,1.48
7421.00,1.48
7420.00,1.48
7419.00,1.48
7418.00,1.48
7417.00,1.48
7416.00,1.48
7415.00,1.48
7414.00,1.48
7413.00,1.49
7412.00,1.48
7411.00,1.48
7410.00,1.48
7409.00,1.48
7408.00,1.48
7407.00,1.48
7406.00,1.48
7405.00,1.48
7404.00,1.48
7403.00,1.48
7402.00,1.48
7401.00,1.48
7400.00,1.48
7399.00,1.48
7398.00,1.49
7397.00,1.49
7396.00,1.49
7395.00,1.49
7394.00,1.49
7393.00,1.49
7392.00,1.49
7391.00,1.49
7390.00,1.49
7389.00,1.49
7388.00,1.49
7387.00,1.49
7386.00,1.48
7385.00,1.48
7384.00,1.48
7383.00,1.47
7382.00,1.47
7381.00,1.46
7380.00,1.45
7379.00,1.45
7378.00,1.44
7377.00,1.44
7376.00,1.43
7375.00,1.43
7374.00,1.42
7373.00,1.42
7372.00,1.41
7371.00,1.41
7370.00,1.41
7369.00,1.41
7368.00,1.41
7367.00,1.41
7366.00,1.41
7365.00,1.42
7364.00,1.42
7363.00,1.42
7362.00,1.43
7361.00,1.43
7360.00,1.44
7359.00,1.44
7358.00,1.45
7357.00,1.45
7356.00,1.45
7355.00,1.46
7354.00,1.46
7353.00,1.46
7352.00,1.46
7351.00,1.46
7350.00,1.46
7349.00,1.45
7348.00,1.45
7347.00,1.45
7346.00,1.44
7345.00,1.44
7344.00,1.43
7343.00,1.42
7342.00,1.42
7341.00,1.41
7340.00,1.40
7339.00,1.39
7338.00,1.39
7337.00,1.38
7336.00,1.38
7335.00,1.37
7334.00,1.37
7333.00,1.36
7332.00,1.36
7331.00,1.35
7330.00,1.35
7329.00,1.35
7328.00,1.35
7327.00,1.35
7326.00,1.35
7325.00,1.35
7324.00,1.35
7323.00,1.35
7322.00,1.35
7321.00,1.36
7320.00,1.36
7319.00,1.36
7318.00,1.37
7317.00,1.37
7316.00,1.37
7315.00,1.38
7314.00,1.38
7313.00,1.39
7312.00,1.39
7311.00,1.40
7310.00,1.40
7309.00,1.40
7308.00,1.40
7307.00,1.41
7306.00,1.41
7305.00,1.41
7304.00,1.41
7303.00,1.42
7302.00,1.42
7301.00,1.42
7300.00,1.42
7299.00,1.42
7298.00,1.43
7297.00,1.43
7296.00,1.43
7295.00,1.43
7294.00,1.43
7293.00,1.43
7292.00,1.43
7291.00,1.42
7290.00,1.42
7289.00,1.42
7288.00,1.42
7287.00,1.41
7286.00,1.41
7285.00,1.40
7284.00,1.40
7283.00,1.39
7282.00,1.38
7281.00,1.38
7280.00,1.37
7279.00,1.37
7278.00,1.36
7277.00,1.36
7276.00,1.35
7275.00,1.34
7274.00,1.34
7273.00,1.34
7272.00,1.33
7271.00,1.33
7270.00,1.33
7269.00,1.33
7268.00,1.33
7267.00,1.33
7266.00,1.33
7265.00,1.33
7264.00,1.34
7263.00,1.34
7262.00,1.35
7261.00,1.35
7260.00,1.36
7259.00,1.36
7258.00,1.37
7257.00,1.37
7256.00,1.38
7255.00,1.39
7254.00,1.39
7253.00,1.40
7252.00,1.40
7251.00,1.40
7250.00,1.41
7249.00,1.41
7248.00,1.41
7247.00,1.41
7246.00,1.41
7245.00,1.41
7244.00,1.41
7243.00,1.40
7242.00,1.40
7241.00,1.40
7240.00,1.39
7239.00,1.39
7238.00,1.38
7237.00,1.38
7236.00,1.37
7235.00,1.36
7234.00,1.36
7233.00,1.35
7232.00,1.34
7231.00,1.33
7230.00,1.33
7229.00,1.32
7228.00,1.32
7227.00,1.31
7226.00,1.31
7225.00,1.30
7224.00,1.30
7223.00,1.29
7222.00,1.29
7221.00,1.29
7220.00,1.29
7219.00,1.28
7218.00,1.28
7217.00,1.28
7216.00,1.28
7215.00,1.28
7214.00,1.28
7213.00,1.28
7212.00,1.28
7211.00,1.28
7210.00,1.28
7209.00,1.28
7208.00,1.27
7207.00,1.27
7206.00,1.27
7205.00,1.27
7204.00,1.27
7203.00,1.27
7202.00,1.27
7201.00,1.27
7200.00,1.27
7199.00,1.27
7198.00,1.27
7197.00,1.27
7196.00,1.27
7195.00,1.27
7194.00,1.27
7193.00,1.27
7192.00,1.27
7191.00,1.27
7190.00,1.27
7189.00,1.27
7188.00,1.27
7187.00,1.27
7186.00,1.27
7185.00,1.27
7184.00,1.26
7183.00,1.26
7182.00,1.26
7181.00,1.25
7180.00,1.24
7179.00,1.24
7178.00,1.23
7177.00,1.22
7176.00,1.22
7175.00,1.21
7174.00,1.21
7173.00,1.20
7172.00,1.20
7171.00,1.19
7170.00,1.19
7169.00,1.18
7168.00,1.18
7167.00,1.18
7166.00,1.18
7165.00,1.18
7164.00,1.18
7163.00,1.19
7162.00,1.19
7161.00,1.19
7160.00,1.19
7159.00,1.20
7158.00,1.20
7157.00,1.20
7156.00,1.20
7155.00,1.20
7154.00,1.20
7153.00,1.20
7152.00,1.20
7151.00,1.20
7150.00,1.19
7149.00,1.19
7148.00,1.18
7147.00,1.18
7146.00,1.17
7145.00,1.16
7144.00,1.15
7143.00,1.14
7142.00,1.14
7141.00,1.13
7140.00,1.12
7139.00,1.12
7138.00,1.11
7137.00,1.11
7136.00,1.10
7135.00,1.10
7134.00,1.09
7133.00,1.09
7132.00,1.09
7131.00,1.09
7130.00,1.09
7129.00,1.09
7128.00,1.08
7127.00,1.08
7126.00,1.08
7125.00,1.08
7124.00,1.08
7123.00,1.08
7122.00,1.08
7121.00,1.08
7120.00,1.08
7119.00,1.08
7118.00,1.08
7117.00,1.08
7116.00,1.08
7115.00,1.08
7114.00,1.08
7113.00,1.08
7112.00,1.08
7111.00,1.08
7110.00,1.08
7109.00,1.08
7108.00,1.08
7107.00,1.08
7106.00,1.08
7105.00,1.08
7104.00,1.07
7103.00,1.07
7102.00,1.06
7101.00,1.06
7100.00,1.06
7099.00,1.05
7098.00,1.05
7097.00,1.04
7096.00,1.04
7095.00,1.03
7094.00,1.03
7093.00,1.02
7092.00,1.02
7091.00,1.01
7090.00,1.01
7089.00,1.00
7088.00,1.00
7087.00,1.00
7086.00,0.99
7085.00,0.99
7084.00,0.99
7083.00,0.99
7082.00,0.99
7081.00,0.99
7080.00,0.99
7079.00,0.99
7078.00,0.99
7077.00,0.99
7076.00,0.99
7075.00,0.99
7074.00,0.99
7073.00,0.99
7072.00,0.99
7071.00,0.99
7070.00,1.00
7069.00,1.00
7068.00,1.00
7067.00,1.00
7066.00,1.00
7065.00,1.00
7064.00,1.00
7063.00,1.00
7062.00,1.00
7061.00,1.00
7060.00,1.00
7059.00,1.00
7058.00,1.00
7057.00,1.00
7056.00,1.00
7055.00,1.00
7054.00,1.00
7053.00,1.00
7052.00,1.00
7051.00,1.00
7050.00,1.00
7049.00,1.00
7048.00,0.99
7047.00,0.99
7046.00,0.99
7045.00,0.99
7044.00,0.98
7043.00,0.98
7042.00,0.98
7041.00,0.98
7040.00,0.97
7039.00,0.97
7038.00,0.97
7037.00,0.97
7036.00,0.97
7035.00,0.97
7034.00,0.96
7033.00,0.96
7032.00,0.96
7031.00,0.97
7030.00,0.97
7029.00,0.97
7028.00,0.97
7027.00,0.97
7026.00,0.97
7025.00,0.97
7024.00,0.97
7023.00,0.98
7022.00,0.98
7021.00,0.98
7020.00,0.98
7019.00,0.98
7018.00,0.98
7017.00,0.97
7016.00,0.97
7015.00,0.97
7014.00,0.97
7013.00,0.97
7012.00,0.96
7011.00,0.96
7010.00,0.96
7009.00,0.96
7008.00,0.95
7007.00,0.95
7006.00,0.95
7005.00,0.95
7004.00,0.95
7003.00,0.94
7002.00,0.94
7001.00,0.94
7000.00,0.94
6999.00,0.93
6998.00,0.93
6997.00,0.93
6996.00,0.93
6995.00,0.93
6994.00,0.93
6993.00,0.92
6992.00,0.92
6991.00,0.92
6990.00,0.92
6989.00,0.91
6988.00,0.91
6987.00,0.91
6986.00,0.91
6985.00,0.91
6984.00,0.91
6983.00,0.90
6982.00,0.90
6981.00,0.90
6980.00,0.89
6979.00,0.89
6978.00,0.88
6977.00,0.88
6976.00,0.88
6975.00,0.87
6974.00,0.87
6973.00,0.87
6972.00,0.87
6971.00,0.87
6970.00,0.86
6969.00,0.86
6968.00,0.86
6967.00,0.86
6966.00,0.86
6965.00,0.86
6964.00,0.86
6963.00,0.87
6962.00,0.87
6961.00,0.87
6960.00,0.87
6959.00,0.88
6958.00,0.88
6957.00,0.88
6956.00,0.88
6955.00,0.88
6954.00,0.88
6953.00,0.88
6952.00,0.88
6951.00,0.88
6950.00,0.88
6949.00,0.87
6948.00,0.87
6947.00,0.87
6946.00,0.87
6945.00,0.86
6944.00,0.86
6943.00,0.86
6942.00,0.86
6941.00,0.86
6940.00,0.86
6939.00,0.86
6938.00,0.86
6937.00,0.86
6936.00,0.86
6935.00,0.86
6934.00,0.86
6933.00,0.87
6932.00,0.87
6931.00,0.87
6930.00,0.88
6929.00,0.88
6928.00,0.88
6927.00,0.88
6926.00,0.89
6925.00,0.89
6924.00,0.89
6923.00,0.89
6922.00,0.89
6921.00,0.90
6920.00,0.90
6919.00,0.90
6918.00,0.90
6917.00,0.90
6916.00,0.90
6915.00,0.90
6914.00,0.90
6913.00,0.90
6912.00,0.90
6911.00,0.90
6910.00,0.90
6909.00,0.90
6908.00,0.90
6907.00,0.90
6906.00,0.91
6905.00,0.91
6904.00,0.91
6903.00,0.91
6902.00,0.91
6901.00,0.91
6900.00,0.91
6899.00,0.91
6898.00,0.91
6897.00,0.91
6896.00,0.91
6895.00,0.91
6894.00,0.91
6893.00,0.91
6892.00,0.90
6891.00,0.90
6890.00,0.90
6889.00,0.90
6888.00,0.90
6887.00,0.90
6886.00,0.90
6885.00,0.90
6884.00,0.89
6883.00,0.89
6882.00,0.89
6881.00,0.89
6880.00,0.89
6879.00,0.88
6878.00,0.88
6877.00,0.88
6876.00,0.87
6875.00,0.87
6874.00,0.87
6873.00,0.86
6872.00,0.86
6871.00,0.85
6870.00,0.85
6869.00,0.84
6868.00,0.84
6867.00,0.84
6866.00,0.83
6865.00,0.83
6864.00,0.83
6863.00,0.82
6862.00,0.82
6861.00,0.82
6860.00,0.82
6859.00,0.82
6858.00,0.82
6857.00,0.82
6856.00,0.82
6855.00,0.83
6854.00,0.83
6853.00,0.84
6852.00,0.84
6851.00,0.85
6850.00,0.86
6849.00,0.87
6848.00,0.87
6847.00,0.88
6846.00,0.89
6845.00,0.89
6844.00,0.90
6843.00,0.91
6842.00,0.91
6841.00,0.92
6840.00,0.92
6839.00,0.93
6838.00,0.93
6837.00,0.93
6836.00,0.93
6835.00,0.93
6834.00,0.93
6833.00,0.93
6832.00,0.92
6831.00,0.92
6830.00,0.92
6829.00,0.91
6828.00,0.91
6827.00,0.91
6826.00,0.90
6825.00,0.90
6824.00,0.89
6823.00,0.89
6822.00,0.89
6821.00,0.88
6820.00,0.88
6819.00,0.88
6818.00,0.88
6817.00,0.88
6816.00,0.88
6815.00,0.88
6814.00,0.88
6813.00,0.88
6812.00,0.88
6811.00,0.89
6810.00,0.89
6809.00,0.89
6808.00,0.90
6807.00,0.90
6806.00,0.90
6805.00,0.90
6804.00,0.90
6803.00,0.90
6802.00,0.90
6801.00,0.90
6800.00,0.90
6799.00,0.90
6798.00,0.90
6797.00,0.90
6796.00,0.90
6795.00,0.89
6794.00,0.89
6793.00,0.89
6792.00,0.88
6791.00,0.88
6790.00,0.88
6789.00,0.88
6788.00,0.88
6787.00,0.88
6786.00,0.88
6785.00,0.88
6784.00,0.88
6783.00,0.88
6782.00,0.88
6781.00,0.88
6780.00,0.88
6779.00,0.88
6778.00,0.88
6777.00,0.88
6776.00,0.88
6775.00,0.89
6774.00,0.89
6773.00,0.89
6772.00,0.89
6771.00,0.89
6770.00,0.89
6769.00,0.90
6768.00,0.90
6767.00,0.90
6766.00,0.90
6765.00,0.90
6764.00,0.91
6763.00,0.91
6762.00,0.91
6761.00,0.91
6760.00,0.91
6759.00,0.91
6758.00,0.92
6757.00,0.92
6756.00,0.92
6755.00,0.92
6754.00,0.92
6753.00,0.92
6752.00,0.92
6751.00,0.92
6750.00,0.92
6749.00,0.92
6748.00,0.92
6747.00,0.92
6746.00,0.91
6745.00,0.91
6744.00,0.91
6743.00,0.91
6742.00,0.91
6741.00,0.91
6740.00,0.91
6739.00,0.91
6738.00,0.91
6737.00,0.91
6736.00,0.91
6735.00,0.91
6734.00,0.91
6733.00,0.91
6732.00,0.92
6731.00,0.92
6730.00,0.92
6729.00,0.92
6728.00,0.92
6727.00,0.92
6726.00,0.92
6725.00,0.92
6724.00,0.92
6723.00,0.92
6722.00,0.91
6721.00,0.91
6720.00,0.91
6719.00,0.91
6718.00,0.91
6717.00,0.92
6716.00,0.92
6715.00,0.92
6714.00,0.92
6713.00,0.92
6712.00,0.93
6711.00,0.93
6710.00,0.93
6709.00,0.93
6708.00,0.94
6707.00,0.94
6706.00,0.94
6705.00,0.95
6704.00,0.95
6703.00,0.95
6702.00,0.95
6701.00,0.96
6700.00,0.96
6699.00,0.96
6698.00,0.96
6697.00,0.96
6696.00,0.97
6695.00,0.97
6694.00,0.97
6693.00,0.98
6692.00,0.98
6691.00,0.99
6690.00,0.99
6689.00,1.00
6688.00,1.00
6687.00,1.00
6686.00,1.01
6685.00,1.01
6684.00,1.01
6683.00,1.01
6682.00,1.01
6681.00,1.01
6680.00,1.01
6679.00,1.01
6678.00,1.01
6677.00,1.01
6676.00,1.00
6675.00,1.00
6674.00,0.99
6673.00,0.99
6672.00,0.98
6671.00,0.98
6670.00,0.97
6669.00,0.97
6668.00,0.97
6667.00,0.97
6666.00,0.97
6665.00,0.97
6664.00,0.97
6663.00,0.97
6662.00,0.97
6661.00,0.97
6660.00,0.98
6659.00,0.98
6658.00,0.98
6657.00,0.99
6656.00,0.99
6655.00,1.00
6654.00,1.00
6653.00,1.01
6652.00,1.01
6651.00,1.01
6650.00,1.01
6649.00,1.01
6648.00,1.01
6647.00,1.01
6646.00,1.01
6645.00,1.01
6644.00,1.01
6643.00,1.01
6642.00,1.01
6641.00,1.01
6640.00,1.01
6639.00,1.01
6638.00,1.02
6637.00,1.02
6636.00,1.02
6635.00,1.02
6634.00,1.03
6633.00,1.03
6632.00,1.03
6631.00,1.04
6630.00,1.04
6629.00,1.05
6628.00,1.05
6627.00,1.06
6626.00,1.06
6625.00,1.06
6624.00,1.06
6623.00,1.06
6622.00,1.06
6621.00,1.06
6620.00,1.06
6619.00,1.06
6618.00,1.06
6617.00,1.06
6616.00,1.06
6615.00,1.06
6614.00,1.06
6613.00,1.05
6612.00,1.05
6611.00,1.05
6610.00,1.05
6609.00,1.06
6608.00,1.06
6607.00,1.06
6606.00,1.06
6605.00,1.07
6604.00,1.07
6603.00,1.07
6602.00,1.07
6601.00,1.08
6600.00,1.08
6599.00,1.08
6598.00,1.08
6597.00,1.09
6596.00,1.09
6595.00,1.09
6594.00,1.09
6593.00,1.09
6592.00,1.09
6591.00,1.09
6590.00,1.09
6589.00,1.09
6588.00,1.09
6587.00,1.09
6586.00,1.08
6585.00,1.08
6584.00,1.08
6583.00,1.08
6582.00,1.08
6581.00,1.08
6580.00,1.08
6579.00,1.08
6578.00,1.08
6577.00,1.08
6576.00,1.08
6575.00,1.08
6574.00,1.08
6573.00,1.08
6572.00,1.08
6571.00,1.09
6570.00,1.09
6569.00,1.09
6568.00,1.10
6567.00,1.10
6566.00,1.10
6565.00,1.10
6564.00,1.11
6563.00,1.11
6562.00,1.11
6561.00,1.11
6560.00,1.11
6559.00,1.12
6558.00,1.12
6557.00,1.12
6556.00,1.12
6555.00,1.12
6554.00,1.12
6553.00,1.12
6552.00,1.12
6551.00,1.12
6550.00,1.12
6549.00,1.12
6548.00,1.13
6547.00,1.13
6546.00,1.13
6545.00,1.13
6544.00,1.14
6543.00,1.14
6542.00,1.14
6541.00,1.15
6540.00,1.15
6539.00,1.15
6538.00,1.16
6537.00,1.16
6536.00,1.17
6535.00,1.17
6534.00,1.17
6533.00,1.17
6532.00,1.18
6531.00,1.18
6530.00,1.18
6529.00,1.18
6528.00,1.18
6527.00,1.17
6526.00,1.17
6525.00,1.17
6524.00,1.17
6523.00,1.17
6522.00,1.16
6521.00,1.16
6520.00,1.15
6519.00,1.15
6518.00,1.15
6517.00,1.15
6516.00,1.14
6515.00,1.14
6514.00,1.14
6513.00,1.14
6512.00,1.13
6511.00,1.13
6510.00,1.13
6509.00,1.13
6508.00,1.13
6507.00,1.13
6506.00,1.13
6505.00,1.13
6504.00,1.13
6503.00,1.13
6502.00,1.13
6501.00,1.13
6500.00,1.13
6499.00,1.13
6498.00,1.13
6497.00,1.13
6496.00,1.13
6495.00,1.13
6494.00,1.13
6493.00,1.13
6492.00,1.13
6491.00,1.13
6490.00,1.13
6489.00,1.13
6488.00,1.13
6487.00,1.14
6486.00,1.14
6485.00,1.14
6484.00,1.14
6483.00,1.15
6482.00,1.15
6481.00,1.15
6480.00,1.16
6479.00,1.16
6478.00,1.16
6477.00,1.17
6476.00,1.17
6475.00,1.17
6474.00,1.17
6473.00,1.17
6472.00,1.18
6471.00,1.18
6470.00,1.18
6469.00,1.18
6468.00,1.18
6467.00,1.18
6466.00,1.18
6465.00,1.18
6464.00,1.18
6463.00,1.18
6462.00,1.18
6461.00,1.19
6460.00,1.19
6459.00,1.19
6458.00,1.19
6457.00,1.19
6456.00,1.20
6455.00,1.20
6454.00,1.20
6453.00,1.21
6452.00,1.21
6451.00,1.21
6450.00,1.21
6449.00,1.21
6448.00,1.21
6447.00,1.21
6446.00,1.21
6445.00,1.20
6444.00,1.20
6443.00,1.20
6442.00,1.19
6441.00,1.19
6440.00,1.19
6439.00,1.18
6438.00,1.18
6437.00,1.17
6436.00,1.17
6435.00,1.17
6434.00,1.16
6433.00,1.16
6432.00,1.16
6431.00,1.15
6430.00,1.15
6429.00,1.15
6428.00,1.15
6427.00,1.15
6426.00,1.15
6425.00,1.15
6424.00,1.15
6423.00,1.15
6422.00,1.15
6421.00,1.15
6420.00,1.15
6419.00,1.15
6418.00,1.16
6417.00,1.16
6416.00,1.16
6415.00,1.17
6414.00,1.17
6413.00,1.17
6412.00,1.18
6411.00,1.18
6410.00,1.18
6409.00,1.19
6408.00,1.19
6407.00,1.20
6406.00,1.20
6405.00,1.20
6404.00,1.21
6403.00,1.21
6402.00,1.21
6401.00,1.22
6400.00,1.22
6399.00,1.22
6398.00,1.22
6397.00,1.22
6396.00,1.22
6395.00,1.22
6394.00,1.22
6393.00,1.23
6392.00,1.23
6391.00,1.23
6390.00,1.23
6389.00,1.23
6388.00,1.23
6387.00,1.22
6386.00,1.22
6385.00,1.22
6384.00,1.22
6383.00,1.22
6382.00,1.22
6381.00,1.22
6380.00,1.22
6379.00,1.22
6378.00,1.22
6377.00,1.22
6376.00,1.21
6375.00,1.21
6374.00,1.21
6373.00,1.21
6372.00,1.21
6371.00,1.21
6370.00,1.21
6369.00,1.21
6368.00,1.21
6367.00,1.22
6366.00,1.22
6365.00,1.22
6364.00,1.22
6363.00,1.22
6362.00,1.22
6361.00,1.23
6360.00,1.23
6359.00,1.23
6358.00,1.24
6357.00,1.24
6356.00,1.24
6355.00,1.25
6354.00,1.25
6353.00,1.25
6352.00,1.25
6351.00,1.25
6350.00,1.25
6349.00,1.25
6348.00,1.25
6347.00,1.26
6346.00,1.26
6345.00,1.26
6344.00,1.26
6343.00,1.26
6342.00,1.26
6341.00,1.26
6340.00,1.26
6339.00,1.26
6338.00,1.26
6337.00,1.26
6336.00,1.26
6335.00,1.26
6334.00,1.26
6333.00,1.26
6332.00,1.26
6331.00,1.26
6330.00,1.26
6329.00,1.26
6328.00,1.26
6327.00,1.26
6326.00,1.25
6325.00,1.25
6324.00,1.25
6323.00,1.25
6322.00,1.25
6321.00,1.25
6320.00,1.25
6319.00,1.25
6318.00,1.25
6317.00,1.26
6316.00,1.26
6315.00,1.26
6314.00,1.27
6313.00,1.27
6312.00,1.28
6311.00,1.29
6310.00,1.29
6309.00,1.30
6308.00,1.30
6307.00,1.31
6306.00,1.31
6305.00,1.32
6304.00,1.33
6303.00,1.33
6302.00,1.34
6301.00,1.34
6300.00,1.34
6299.00,1.34
6298.00,1.35
6297.00,1.35
6296.00,1.35
6295.00,1.35
6294.00,1.35
6293.00,1.35
6292.00,1.35
6291.00,1.35
6290.00,1.35
6289.00,1.34
6288.00,1.34
6287.00,1.34
6286.00,1.34
6285.00,1.34
6284.00,1.33
6283.00,1.33
6282.00,1.33
6281.00,1.33
6280.00,1.33
6279.00,1.33
6278.00,1.32
6277.00,1.32
6276.00,1.32
6275.00,1.32
6274.00,1.32
6273.00,1.32
6272.00,1.32
6271.00,1.32
6270.00,1.32
6269.00,1.32
6268.00,1.32
6267.00,1.32
6266.00,1.32
6265.00,1.32
6264.00,1.32
6263.00,1.32
6262.00,1.32
6261.00,1.32
6260.00,1.33
6259.00,1.33
6258.00,1.33
6257.00,1.33
6256.00,1.33
6255.00,1.33
6254.00,1.33
6253.00,1.33
6252.00,1.33
6251.00,1.33
6250.00,1.33
6249.00,1.33
6248.00,1.33
6247.00,1.33
6246.00,1.33
6245.00,1.33
6244.00,1.33
6243.00,1.33
6242.00,1.33
6241.00,1.33
6240.00,1.33
6239.00,1.33
6238.00,1.33
6237.00,1.33
6236.00,1.33
6235.00,1.34
6234.00,1.34
6233.00,1.34
6232.00,1.34
6231.00,1.34
6230.00,1.35
6229.00,1.35
6228.00,1.35
6227.00,1.35
6226.00,1.35
6225.00,1.36
6224.00,1.36
6223.00,1.36
6222.00,1.36
6221.00,1.36
6220.00,1.36
6219.00,1.36
6218.00,1.36
6217.00,1.36
6216.00,1.36
6215.00,1.36
6214.00,1.36
6213.00,1.36
6212.00,1.36
6211.00,1.36
6210.00,1.36
6209.00,1.36
6208.00,1.36
6207.00,1.36
6206.00,1.36
6205.00,1.36
6204.00,1.36
6203.00,1.36
6202.00,1.36
6201.00,1.36
6200.00,1.36
6199.00,1.36
6198.00,1.36
6197.00,1.37
6196.00,1.37
6195.00,1.37
6194.00,1.37
6193.00,1.37
6192.00,1.37
6191.00,1.37
6190.00,1.37
6189.00,1.37
6188.00,1.37
6187.00,1.37
6186.00,1.37
6185.00,1.37
6184.00,1.36
6183.00,1.36
6182.00,1.37
6181.00,1.37
6180.00,1.37
6179.00,1.37
6178.00,1.37
6177.00,1.37
6176.00,1.37
6175.00,1.37
6174.00,1.38
6173.00,1.38
6172.00,1.38
6171.00,1.39
6170.00,1.39
6169.00,1.40
6168.00,1.40
6167.00,1.40
6166.00,1.41
6165.00,1.41
6164.00,1.41
6163.00,1.41
6162.00,1.42
6161.00,1.42
6160.00,1.42
6159.00,1.43
6158.00,1.43
6157.00,1.43
6156.00,1.43
6155.00,1.43
6154.00,1.44
6153.00,1.44
6152.00,1.44
6151.00,1.44
6150.00,1.44
6149.00,1.44
6148.00,1.45
6147.00,1.45
6146.00,1.45
6145.00,1.45
6144.00,1.45
6143.00,1.45
6142.00,1.45
6141.00,1.45
6140.00,1.45
6139.00,1.46
6138.00,1.46
6137.00,1.46
6136.00,1.46
6135.00,1.46
6134.00,1.46
6133.00,1.46
6132.00,1.47
6131.00,1.47
6130.00,1.47
6129.00,1.47
6128.00,1.47
6127.00,1.47
6126.00,1.47
6125.00,1.47
6124.00,1.47
6123.00,1.47
6122.00,1.47
6121.00,1.47
6120.00,1.47
6119.00,1.47
6118.00,1.47
6117.00,1.46
6116.00,1.46
6115.00,1.46
6114.00,1.46
6113.00,1.47
6112.00,1.47
6111.00,1.47
6110.00,1.47
6109.00,1.47
6108.00,1.48
6107.00,1.48
6106.00,1.48
6105.00,1.48
6104.00,1.49
6103.00,1.49
6102.00,1.49
6101.00,1.49
6100.00,1.49
6099.00,1.50
6098.00,1.50
6097.00,1.50
6096.00,1.50
6095.00,1.50
6094.00,1.50
6093.00,1.49
6092.00,1.49
6091.00,1.49
6090.00,1.49
6089.00,1.49
6088.00,1.48
6087.00,1.48
6086.00,1.48
6085.00,1.48
6084.00,1.48
6083.00,1.48
6082.00,1.48
6081.00,1.48
6080.00,1.48
6079.00,1.49
6078.00,1.49
6077.00,1.49
6076.00,1.49
6075.00,1.49
6074.00,1.49
6073.00,1.49
6072.00,1.49
6071.00,1.49
6070.00,1.49
6069.00,1.49
6068.00,1.49
6067.00,1.48
6066.00,1.48
6065.00,1.48
6064.00,1.48
6063.00,1.48
6062.00,1.47
6061.00,1.47
6060.00,1.47
6059.00,1.47
6058.00,1.47
6057.00,1.47
6056.00,1.48
6055.00,1.48
6054.00,1.48
6053.00,1.48
6052.00,1.49
6051.00,1.49
6050.00,1.49
6049.00,1.50
6048.00,1.50
6047.00,1.50
6046.00,1.51
6045.00,1.51
6044.00,1.52
6043.00,1.52
6042.00,1.52
6041.00,1.52
6040.00,1.52
6039.00,1.53
6038.00,1.53
6037.00,1.53
6036.00,1.53
6035.00,1.53
6034.00,1.53
6033.00,1.53
6032.00,1.54
6031.00,1.54
6030.00,1.54
6029.00,1.54
6028.00,1.54
6027.00,1.54
6026.00,1.54
6025.00,1.54
6024.00,1.54
6023.00,1.54
6022.00,1.54
6021.00,1.54
6020.00,1.54
6019.00,1.54
6018.00,1.54
6017.00,1.54
6016.00,1.54
6015.00,1.54
6014.00,1.53
6013.00,1.53
6012.00,1.53
6011.00,1.52
6010.00,1.52
6009.00,1.51
6008.00,1.51
6007.00,1.51
6006.00,1.50
6005.00,1.50
6004.00,1.50
6003.00,1.50
6002.00,1.50
6001.00,1.50
6000.00,1.50
5999.00,1.50
5998.00,1.50
5997.00,1.50
5996.00,1.50
5995.00,1.50
5994.00,1.50
5993.00,1.51
5992.00,1.51
5991.00,1.51
5990.00,1.51
5989.00,1.52
5988.00,1.52
5987.00,1.52
5986.00,1.52
5985.00,1.52
5984.00,1.52
5983.00,1.52
5982.00,1.51
5981.00,1.51
5980.00,1.51
5979.00,1.50
5978.00,1.50
5977.00,1.49
5976.00,1.48
5975.00,1.48
5974.00,1.47
5973.00,1.47
5972.00,1.46
5971.00,1.45
5970.00,1.45
5969.00,1.44
5968.00,1.43
5967.00,1.43
5966.00,1.43
5965.00,1.42
5964.00,1.42
5963.00,1.42
5962.00,1.41
5961.00,1.41
5960.00,1.41
5959.00,1.40
5958.00,1.40
5957.00,1.39
5956.00,1.39
5955.00,1.39
5954.00,1.38
5953.00,1.38
5952.00,1.37
5951.00,1.37
5950.00,1.36
5949.00,1.36
5948.00,1.35
5947.00,1.35
5946.00,1.34
5945.00,1.34
5944.00,1.34
5943.00,1.33
5942.00,1.33
5941.00,1.33
5940.00,1.33
5939.00,1.32
5938.00,1.32
5937.00,1.32
5936.00,1.32
5935.00,1.32
5934.00,1.32
5933.00,1.32
5932.00,1.33
5931.00,1.33
5930.00,1.33
5929.00,1.33
5928.00,1.33
5927.00,1.33
5926.00,1.33
5925.00,1.34
5924.00,1.34
5923.00,1.34
5922.00,1.34
5921.00,1.34
5920.00,1.34
5919.00,1.34
5918.00,1.34
5917.00,1.33
5916.00,1.33
5915.00,1.33
5914.00,1.33
5913.00,1.33
5912.00,1.33
5911.00,1.32
5910.00,1.32
5909.00,1.32
5908.00,1.31
5907.00,1.31
5906.00,1.31
5905.00,1.30
5904.00,1.30
5903.00,1.30
5902.00,1.29
5901.00,1.29
5900.00,1.29
5899.00,1.28
5898.00,1.28
5897.00,1.27
5896.00,1.27
5895.00,1.27
5894.00,1.27
5893.00,1.26
5892.00,1.26
5891.00,1.26
5890.00,1.27
5889.00,1.27
5888.00,1.27
5887.00,1.27
5886.00,1.27
5885.00,1.28
5884.00,1.28
5883.00,1.29
5882.00,1.29
5881.00,1.30
5880.00,1.31
5879.00,1.32
5878.00,1.32
5877.00,1.33
5876.00,1.34
5875.00,1.35
5874.00,1.35
5873.00,1.36
5872.00,1.36
5871.00,1.37
5870.00,1.37
5869.00,1.37
5868.00,1.37
5867.00,1.38
5866.00,1.38
5865.00,1.38
5864.00,1.37
5863.00,1.37
5862.00,1.37
5861.00,1.37
5860.00,1.37
5859.00,1.37
5858.00,1.36
5857.00,1.36
5856.00,1.36
5855.00,1.36
5854.00,1.36
5853.00,1.36
5852.00,1.36
5851.00,1.35
5850.00,1.35
5849.00,1.36
5848.00,1.36
5847.00,1.36
5846.00,1.36
5845.00,1.36
5844.00,1.36
5843.00,1.37
5842.00,1.37
5841.00,1.37
5840.00,1.37
5839.00,1.37
5838.00,1.37
5837.00,1.38
5836.00,1.38
5835.00,1.38
5834.00,1.38
5833.00,1.38
5832.00,1.38
5831.00,1.38
5830.00,1.38
5829.00,1.37
5828.00,1.37
5827.00,1.37
5826.00,1.36
5825.00,1.36
5824.00,1.36
5823.00,1.36
5822.00,1.35
5821.00,1.35
5820.00,1.35
5819.00,1.35
5818.00,1.35
5817.00,1.35
5816.00,1.35
5815.00,1.35
5814.00,1.35
5813.00,1.35
5812.00,1.35
5811.00,1.35
5810.00,1.36
5809.00,1.36
5808.00,1.36
5807.00,1.37
5806.00,1.37
5805.00,1.37
5804.00,1.37
5803.00,1.37
5802.00,1.38
5801.00,1.38
5800.00,1.38
5799.00,1.38
5798.00,1.38
5797.00,1.38
5796.00,1.38
5795.00,1.38
5794.00,1.39
5793.00,1.39
5792.00,1.39
5791.00,1.38
5790.00,1.38
5789.00,1.38
5788.00,1.38
5787.00,1.38
5786.00,1.38
5785.00,1.38
5784.00,1.38
5783.00,1.38
5782.00,1.37
5781.00,1.37
5780.00,1.37
5779.00,1.36
5778.00,1.36
5777.00,1.35
5776.00,1.35
5775.00,1.35
5774.00,1.34
5773.00,1.34
5772.00,1.34
5771.00,1.34
5770.00,1.34
5769.00,1.33
5768.00,1.33
5767.00,1.33
5766.00,1.33
5765.00,1.33
5764.00,1.33
5763.00,1.33
5762.00,1.33
5761.00,1.34
5760.00,1.34
5759.00,1.34
5758.00,1.34
5757.00,1.34
5756.00,1.35
5755.00,1.35
5754.00,1.35
5753.00,1.36
5752.00,1.36
5751.00,1.36
5750.00,1.37
5749.00,1.37
5748.00,1.38
5747.00,1.38
5746.00,1.39
5745.00,1.39
5744.00,1.40
5743.00,1.41
5742.00,1.41
5741.00,1.42
5740.00,1.43
5739.00,1.43
5738.00,1.44
5737.00,1.44
5736.00,1.45
5735.00,1.45
5734.00,1.46
5733.00,1.46
5732.00,1.46
5731.00,1.47
5730.00,1.47
5729.00,1.47
5728.00,1.47
5727.00,1.46
5726.00,1.46
5725.00,1.46
5724.00,1.46
5723.00,1.45
5722.00,1.45
5721.00,1.44
5720.00,1.44
5719.00,1.44
5718.00,1.43
5717.00,1.43
5716.00,1.42
5715.00,1.42
5714.00,1.42
5713.00,1.41
5712.00,1.41
5711.00,1.41
5710.00,1.41
5709.00,1.40
5708.00,1.40
5707.00,1.40
5706.00,1.40
5705.00,1.40
5704.00,1.40
5703.00,1.39
5702.00,1.39
5701.00,1.39
5700.00,1.39
5699.00,1.39
5698.00,1.39
5697.00,1.39
5696.00,1.39
5695.00,1.39
5694.00,1.39
5693.00,1.39
5692.00,1.39
5691.00,1.39
5690.00,1.39
5689.00,1.39
5688.00,1.39
5687.00,1.39
5686.00,1.39
5685.00,1.39
5684.00,1.39
5683.00,1.40
5682.00,1.40
5681.00,1.40
5680.00,1.40
5679.00,1.40
5678.00,1.40
5677.00,1.40
5676.00,1.40
5675.00,1.40
5674.00,1.40
5673.00,1.40
5672.00,1.40
5671.00,1.40
5670.00,1.41
5669.00,1.41
5668.00,1.41
5667.00,1.41
5666.00,1.41
5665.00,1.41
5664.00,1.41
5663.00,1.42
5662.00,1.42
5661.00,1.42
5660.00,1.42
5659.00,1.42
5658.00,1.42
5657.00,1.42
5656.00,1.42
5655.00,1.42
5654.00,1.42
5653.00,1.42
5652.00,1.42
5651.00,1.42
5650.00,1.42
5649.00,1.42
5648.00,1.43
5647.00,1.43
5646.00,1.43
5645.00,1.43
5644.00,1.43
5643.00,1.43
5642.00,1.43
5641.00,1.43
5640.00,1.43
5639.00,1.43
5638.00,1.43
5637.00,1.43
5636.00,1.43
5635.00,1.43
5634.00,1.43
5633.00,1.43
5632.00,1.43
5631.00,1.43
5630.00,1.43
5629.00,1.42
5628.00,1.42
5627.00,1.42
5626.00,1.42
5625.00,1.42
5624.00,1.42
5623.00,1.43
5622.00,1.43
5621.00,1.43
5620.00,1.43
5619.00,1.43
5618.00,1.44
5617.00,1.44
5616.00,1.44
5615.00,1.44
5614.00,1.45
5613.00,1.45
5612.00,1.45
5611.00,1.45
5610.00,1.45
5609.00,1.46
5608.00,1.46
5607.00,1.46
5606.00,1.46
5605.00,1.46
5604.00,1.46
5603.00,1.46
5602.00,1.46
5601.00,1.46
5600.00,1.46
5599.00,1.45
5598.00,1.45
5597.00,1.45
5596.00,1.45
5595.00,1.46
5594.00,1.46
5593.00,1.46
5592.00,1.46
5591.00,1.46
5590.00,1.46
5589.00,1.47
5588.00,1.47
5587.00,1.47
5586.00,1.48
5585.00,1.48
5584.00,1.48
5583.00,1.48
5582.00,1.49
5581.00,1.49
5580.00,1.49
5579.00,1.50
5578.00,1.50
5577.00,1.50
5576.00,1.50
5575.00,1.50
5574.00,1.51
5573.00,1.51
5572.00,1.51
5571.00,1.51
5570.00,1.51
5569.00,1.51
5568.00,1.51
5567.00,1.51
5566.00,1.51
5565.00,1.51
5564.00,1.51
5563.00,1.51
5562.00,1.51
5561.00,1.51
5560.00,1.51
5559.00,1.51
5558.00,1.52
5557.00,1.52
5556.00,1.52
5555.00,1.52
5554.00,1.52
5553.00,1.53
5552.00,1.53
5551.00,1.53
5550.00,1.53
5549.00,1.53
5548.00,1.54
5547.00,1.54
5546.00,1.54
5545.00,1.54
5544.00,1.54
5543.00,1.55
5542.00,1.55
5541.00,1.55
5540.00,1.55
5539.00,1.54
5538.00,1.54
5537.00,1.54
5536.00,1.54
5535.00,1.54
5534.00,1.54
5533.00,1.54
5532.00,1.54
5531.00,1.54
5530.00,1.54
5529.00,1.53
5528.00,1.53
5527.00,1.53
5526.00,1.53
5525.00,1.53
5524.00,1.53
5523.00,1.53
5522.00,1.53
5521.00,1.53
5520.00,1.52
5519.00,1.52
5518.00,1.52
5517.00,1.52
5516.00,1.52
5515.00,1.52
5514.00,1.52
5513.00,1.52
5512.00,1.52
5511.00,1.52
5510.00,1.52
5509.00,1.52
5508.00,1.52
5507.00,1.52
5506.00,1.52
5505.00,1.52
5504.00,1.52
5503.00,1.52
5502.00,1.52
5501.00,1.53
5500.00,1.53
5499.00,1.53
5498.00,1.54
5497.00,1.54
5496.00,1.55
5495.00,1.55
5494.00,1.55
5493.00,1.56
5492.00,1.56
5491.00,1.56
5490.00,1.57
5489.00,1.57
5488.00,1.57
5487.00,1.57
5486.00,1.58
5485.00,1.58
5484.00,1.58
5483.00,1.58
5482.00,1.58
5481.00,1.58
5480.00,1.58
5479.00,1.58
5478.00,1.58
5477.00,1.59
5476.00,1.59
5475.00,1.59
5474.00,1.59
5473.00,1.59
5472.00,1.59
5471.00,1.59
5470.00,1.59
5469.00,1.59
5468.00,1.59
5467.00,1.59
5466.00,1.59
5465.00,1.59
5464.00,1.59
5463.00,1.59
5462.00,1.59
5461.00,1.59
5460.00,1.59
5459.00,1.59
5458.00,1.59
5457.00,1.59
5456.00,1.59
5455.00,1.60
5454.00,1.60
5453.00,1.60
5452.00,1.60
5451.00,1.60
5450.00,1.60
5449.00,1.60
5448.00,1.60
5447.00,1.60
5446.00,1.60
5445.00,1.60
5444.00,1.61
5443.00,1.61
5442.00,1.61
5441.00,1.61
5440.00,1.61
5439.00,1.61
5438.00,1.61
5437.00,1.61
5436.00,1.62
5435.00,1.62
5434.00,1.62
5433.00,1.62
5432.00,1.62
5431.00,1.62
5430.00,1.61
5429.00,1.61
5428.00,1.61
5427.00,1.60
5426.00,1.60
5425.00,1.59
5424.00,1.59
5423.00,1.58
5422.00,1.58
5421.00,1.58
5420.00,1.57
5419.00,1.57
5418.00,1.56
5417.00,1.56
5416.00,1.55
5415.00,1.55
5414.00,1.55
5413.00,1.54
5412.00,1.54
5411.00,1.54
5410.00,1.54
5409.00,1.54
5408.00,1.54
5407.00,1.54
5406.00,1.54
5405.00,1.54
5404.00,1.54
5403.00,1.55
5402.00,1.55
5401.00,1.55
5400.00,1.56
5399.00,1.56
5398.00,1.57
5397.00,1.57
5396.00,1.58
5395.00,1.58
5394.00,1.58
5393.00,1.59
5392.00,1.59
5391.00,1.59
5390.00,1.59
5389.00,1.59
5388.00,1.59
5387.00,1.59
5386.00,1.59
5385.00,1.59
5384.00,1.59
5383.00,1.58
5382.00,1.58
5381.00,1.57
5380.00,1.57
5379.00,1.56
5378.00,1.56
5377.00,1.55
5376.00,1.55
5375.00,1.55
5374.00,1.54
5373.00,1.54
5372.00,1.53
5371.00,1.53
5370.00,1.52
5369.00,1.52
5368.00,1.52
5367.00,1.51
5366.00,1.51
5365.00,1.51
5364.00,1.51
5363.00,1.50
5362.00,1.50
5361.00,1.50
5360.00,1.50
5359.00,1.49
5358.00,1.49
5357.00,1.49
5356.00,1.49
5355.00,1.48
5354.00,1.48
5353.00,1.48
5352.00,1.47
5351.00,1.47
5350.00,1.46
5349.00,1.46
5348.00,1.45
5347.00,1.44
5346.00,1.44
5345.00,1.43
5344.00,1.42
5343.00,1.42
5342.00,1.41
5341.00,1.40
5340.00,1.39
5339.00,1.38
5338.00,1.36
5337.00,1.35
5336.00,1.34
5335.00,1.33
5334.00,1.32
5333.00,1.31
5332.00,1.29
5331.00,1.28
5330.00,1.27
5329.00,1.26
5328.00,1.25
5327.00,1.23
5326.00,1.22
5325.00,1.21
5324.00,1.20
5323.00,1.18
5322.00,1.17
5321.00,1.16
5320.00,1.15
5319.00,1.14
5318.00,1.12
5317.00,1.11
5316.00,1.10
5315.00,1.09
5314.00,1.08
5313.00,1.07
5312.00,1.05
5311.00,1.04
5310.00,1.03
5309.00,1.02
5308.00,1.01
5307.00,1.00
5306.00,0.99
5305.00,0.98
5304.00,0.97
5303.00,0.97
5302.00,0.96
5301.00,0.95
5300.00,0.94
5299.00,0.94
5298.00,0.93
5297.00,0.93
5296.00,0.92
5295.00,0.92
5294.00,0.92
5293.00,0.91
5292.00,0.91
5291.00,0.91
5290.00,0.90
5289.00,0.90
5288.00,0.90
5287.00,0.90
5286.00,0.89
5285.00,0.89
5284.00,0.89
5283.00,0.88
5282.00,0.88
5281.00,0.87
5280.00,0.87
5279.00,0.86
5278.00,0.86
5277.00,0.85
5276.00,0.85
5275.00,0.85
5274.00,0.84
5273.00,0.84
5272.00,0.83
5271.00,0.83
5270.00,0.83
5269.00,0.82
5268.00,0.82
5267.00,0.82
5266.00,0.82
5265.00,0.82
5264.00,0.82
5263.00,0.82
5262.00,0.82
5261.00,0.81
5260.00,0.81
5259.00,0.81
5258.00,0.81
5257.00,0.81
5256.00,0.81
5255.00,0.80
5254.00,0.80
5253.00,0.80
5252.00,0.80
5251.00,0.79
5250.00,0.79
5249.00,0.79
5248.00,0.78
5247.00,0.78
5246.00,0.78
5245.00,0.77
5244.00,0.77
5243.00,0.77
5242.00,0.76
5241.00,0.76
5240.00,0.76
5239.00,0.75
5238.00,0.75
5237.00,0.75
5236.00,0.75
5235.00,0.75
5234.00,0.75
5233.00,0.75
5232.00,0.75
5231.00,0.75
5230.00,0.75
5229.00,0.75
5228.00,0.75
5227.00,0.75
5226.00,0.75
5225.00,0.75
5224.00,0.75
5223.00,0.75
5222.00,0.75
5221.00,0.74
5220.00,0.74
5219.00,0.74
5218.00,0.74
5217.00,0.74
5216.00,0.73
5215.00,0.73
5214.00,0.73
5213.00,0.72
5212.00,0.72
5211.00,0.72
5210.00,0.72
5209.00,0.72
5208.00,0.72
5207.00,0.73
5206.00,0.73
5205.00,0.73
5204.00,0.73
5203.00,0.73
5202.00,0.74
5201.00,0.74
5200.00,0.74
5199.00,0.74
5198.00,0.74
5197.00,0.74
5196.00,0.74
5195.00,0.74
5194.00,0.74
5193.00,0.74
5192.00,0.74
5191.00,0.74
5190.00,0.74
5189.00,0.74
5188.00,0.74
5187.00,0.74
5186.00,0.74
5185.00,0.74
5184.00,0.74
5183.00,0.73
5182.00,0.73
5181.00,0.73
5180.00,0.73
5179.00,0.73
5178.00,0.72
5177.00,0.72
5176.00,0.71
5175.00,0.71
5174.00,0.71
5173.00,0.71
5172.00,0.70
5171.00,0.70
5170.00,0.70
5169.00,0.70
5168.00,0.70
5167.00,0.70
5166.00,0.70
5165.00,0.71
5164.00,0.71
5163.00,0.71
5162.00,0.71
5161.00,0.72
5160.00,0.72
5159.00,0.72
5158.00,0.72
5157.00,0.73
5156.00,0.73
5155.00,0.73
5154.00,0.73
5153.00,0.74
5152.00,0.74
5151.00,0.74
5150.00,0.74
5149.00,0.74
5148.00,0.75
5147.00,0.75
5146.00,0.75
5145.00,0.75
5144.00,0.75
5143.00,0.75
5142.00,0.75
5141.00,0.75
5140.00,0.75
5139.00,0.75
5138.00,0.75
5137.00,0.75
5136.00,0.75
5135.00,0.75
5134.00,0.75
5133.00,0.75
5132.00,0.75
5131.00,0.75
5130.00,0.76
5129.00,0.76
5128.00,0.76
5127.00,0.76
5126.00,0.76
5125.00,0.76
5124.00,0.76
5123.00,0.77
5122.00,0.77
5121.00,0.77
5120.00,0.77
5119.00,0.77
5118.00,0.77
5117.00,0.77
5116.00,0.77
5115.00,0.77
5114.00,0.78
5113.00,0.78
5112.00,0.78
5111.00,0.78
5110.00,0.78
5109.00,0.78
5108.00,0.78
5107.00,0.78
5106.00,0.79
5105.00,0.79
5104.00,0.79
5103.00,0.80
5102.00,0.80
5101.00,0.80
5100.00,0.81
5099.00,0.81
5098.00,0.81
5097.00,0.82
5096.00,0.82
5095.00,0.82
5094.00,0.82
5093.00,0.83
5092.00,0.83
5091.00,0.83
5090.00,0.83
5089.00,0.83
5088.00,0.83
5087.00,0.83
5086.00,0.83
5085.00,0.83
5084.00,0.83
5083.00,0.83
5082.00,0.83
5081.00,0.82
5080.00,0.82
5079.00,0.82
5078.00,0.82
5077.00,0.82
5076.00,0.82
5075.00,0.82
5074.00,0.82
5073.00,0.82
5072.00,0.82
5071.00,0.82
5070.00,0.82
5069.00,0.82
5068.00,0.82
5067.00,0.82
5066.00,0.83
5065.00,0.83
5064.00,0.83
5063.00,0.84
5062.00,0.84
5061.00,0.85
5060.00,0.85
5059.00,0.86
5058.00,0.86
5057.00,0.87
5056.00,0.88
5055.00,0.88
5054.00,0.89
5053.00,0.89
5052.00,0.90
5051.00,0.90
5050.00,0.90
5049.00,0.91
5048.00,0.91
5047.00,0.91
5046.00,0.91
5045.00,0.91
5044.00,0.91
5043.00,0.91
5042.00,0.91
5041.00,0.91
5040.00,0.91
5039.00,0.90
5038.00,0.90
5037.00,0.90
5036.00,0.90
5035.00,0.90
5034.00,0.90
5033.00,0.90
5032.00,0.90
5031.00,0.89
5030.00,0.90
5029.00,0.90
5028.00,0.90
5027.00,0.90
5026.00,0.90
5025.00,0.90
5024.00,0.90
5023.00,0.90
5022.00,0.90
5021.00,0.90
5020.00,0.90
5019.00,0.90
5018.00,0.90
5017.00,0.90
5016.00,0.90
5015.00,0.90
5014.00,0.90
5013.00,0.90
5012.00,0.90
5011.00,0.90
5010.00,0.90
5009.00,0.90
5008.00,0.90
5007.00,0.90
5006.00,0.90
5005.00,0.90
5004.00,0.90
5003.00,0.90
5002.00,0.91
5001.00,0.91
5000.00,0.91
4999.00,0.91
4998.00,0.91
4997.00,0.92
4996.00,0.92
4995.00,0.92
4994.00,0.92
4993.00,0.93
4992.00,0.93
4991.00,0.93
4990.00,0.94
4989.00,0.94
4988.00,0.95
4987.00,0.95
4986.00,0.95
4985.00,0.96
4984.00,0.96
4983.00,0.96
4982.00,0.97
4981.00,0.97
4980.00,0.97
4979.00,0.98
4978.00,0.98
4977.00,0.98
4976.00,0.99
4975.00,0.99
4974.00,0.99
4973.00,0.99
4972.00,0.99
4971.00,1.00
4970.00,1.00
4969.00,1.00
4968.00,1.00
4967.00,1.00
4966.00,1.01
4965.00,1.01
4964.00,1.01
4963.00,1.01
4962.00,1.02
4961.00,1.02
4960.00,1.02
4959.00,1.02
4958.00,1.02
4957.00,1.02
4956.00,1.02
4955.00,1.02
4954.00,1.02
4953.00,1.02
4952.00,1.02
4951.00,1.02
4950.00,1.02
4949.00,1.01
4948.00,1.01
4947.00,1.01
4946.00,1.01
4945.00,1.01
4944.00,1.01
4943.00,1.01
4942.00,1.01
4941.00,1.01
4940.00,1.01
4939.00,1.01
4938.00,1.02
4937.00,1.02
4936.00,1.02
4935.00,1.02
4934.00,1.02
4933.00,1.02
4932.00,1.02
4931.00,1.02
4930.00,1.02
4929.00,1.03
4928.00,1.03
4927.00,1.03
4926.00,1.03
4925.00,1.03
4924.00,1.03
4923.00,1.03
4922.00,1.03
4921.00,1.03
4920.00,1.03
4919.00,1.04
4918.00,1.04
4917.00,1.04
4916.00,1.05
4915.00,1.05
4914.00,1.05
4913.00,1.05
4912.00,1.05
4911.00,1.06
4910.00,1.06
4909.00,1.06
4908.00,1.06
4907.00,1.06
4906.00,1.06
4905.00,1.07
4904.00,1.07
4903.00,1.07
4902.00,1.07
4901.00,1.07
4900.00,1.07
4899.00,1.07
4898.00,1.07
4897.00,1.06
4896.00,1.06
4895.00,1.06
4894.00,1.06
4893.00,1.06
4892.00,1.06
4891.00,1.05
4890.00,1.05
4889.00,1.05
4888.00,1.05
4887.00,1.05
4886.00,1.04
4885.00,1.04
4884.00,1.04
4883.00,1.04
4882.00,1.04
4881.00,1.04
4880.00,1.04
4879.00,1.04
4878.00,1.04
4877.00,1.05
4876.00,1.05
4875.00,1.05
4874.00,1.05
4873.00,1.05
4872.00,1.06
4871.00,1.06
4870.00,1.06
4869.00,1.06
4868.00,1.06
4867.00,1.06
4866.00,1.07
4865.00,1.07
4864.00,1.07
4863.00,1.07
4862.00,1.07
4861.00,1.07
4860.00,1.08
4859.00,1.08
4858.00,1.08
4857.00,1.08
4856.00,1.08
4855.00,1.08
4854.00,1.09
4853.00,1.09
4852.00,1.09
4851.00,1.09
4850.00,1.09
4849.00,1.10
4848.00,1.10
4847.00,1.10
4846.00,1.10
4845.00,1.10
4844.00,1.11
4843.00,1.11
4842.00,1.11
4841.00,1.11
4840.00,1.11
4839.00,1.11
4838.00,1.11
4837.00,1.11
4836.00,1.11
4835.00,1.11
4834.00,1.11
4833.00,1.11
4832.00,1.11
4831.00,1.11
4830.00,1.10
4829.00,1.10
4828.00,1.10
4827.00,1.10
4826.00,1.10
4825.00,1.09
4824.00,1.09
4823.00,1.09
4822.00,1.09
4821.00,1.09
4820.00,1.08
4819.00,1.08
4818.00,1.08
4817.00,1.08
4816.00,1.08
4815.00,1.08
4814.00,1.08
4813.00,1.08
4812.00,1.09
4811.00,1.09
4810.00,1.10
4809.00,1.10
4808.00,1.11
4807.00,1.11
4806.00,1.12
4805.00,1.12
4804.00,1.13
4803.00,1.13
4802.00,1.14
4801.00,1.14
4800.00,1.15
4799.00,1.15
4798.00,1.15
4797.00,1.16
4796.00,1.16
4795.00,1.16
4794.00,1.16
4793.00,1.16
4792.00,1.16
4791.00,1.16
4790.00,1.16
4789.00,1.15
4788.00,1.15
4787.00,1.15
4786.00,1.15
4785.00,1.16
4784.00,1.16
4783.00,1.16
4782.00,1.16
4781.00,1.17
4780.00,1.17
4779.00,1.17
4778.00,1.17
4777.00,1.18
4776.00,1.18
4775.00,1.19
4774.00,1.19
4773.00,1.20
4772.00,1.20
4771.00,1.20
4770.00,1.21
4769.00,1.21
4768.00,1.21
4767.00,1.21
4766.00,1.21
4765.00,1.21
4764.00,1.21
4763.00,1.21
4762.00,1.21
4761.00,1.21
4760.00,1.21
4759.00,1.21
4758.00,1.21
4757.00,1.21
4756.00,1.21
4755.00,1.21
4754.00,1.21
4753.00,1.21
4752.00,1.21
4751.00,1.21
4750.00,1.21
4749.00,1.21
4748.00,1.21
4747.00,1.21
4746.00,1.21
4745.00,1.21
4744.00,1.21
4743.00,1.22
4742.00,1.22
4741.00,1.22
4740.00,1.22
4739.00,1.22
4738.00,1.22
4737.00,1.23
4736.00,1.23
4735.00,1.23
4734.00,1.23
4733.00,1.24
4732.00,1.24
4731.00,1.24
4730.00,1.24
4729.00,1.25
4728.00,1.25
4727.00,1.25
4726.00,1.25
4725.00,1.26
4724.00,1.26
4723.00,1.27
4722.00,1.27
4721.00,1.27
4720.00,1.28
4719.00,1.28
4718.00,1.29
4717.00,1.29
4716.00,1.29
4715.00,1.30
4714.00,1.30
4713.00,1.30
4712.00,1.31
4711.00,1.31
4710.00,1.31
4709.00,1.31
4708.00,1.31
4707.00,1.31
4706.00,1.31
4705.00,1.31
4704.00,1.31
4703.00,1.31
4702.00,1.31
4701.00,1.31
4700.00,1.31
4699.00,1.31
4698.00,1.31
4697.00,1.31
4696.00,1.32
4695.00,1.32
4694.00,1.32
4693.00,1.33
4692.00,1.33
4691.00,1.34
4690.00,1.34
4689.00,1.34
4688.00,1.35
4687.00,1.35
4686.00,1.36
4685.00,1.36
4684.00,1.37
4683.00,1.37
4682.00,1.38
4681.00,1.38
4680.00,1.38
4679.00,1.39
4678.00,1.39
4677.00,1.39
4676.00,1.40
4675.00,1.40
4674.00,1.40
4673.00,1.41
4672.00,1.41
4671.00,1.41
4670.00,1.41
4669.00,1.42
4668.00,1.42
4667.00,1.42
4666.00,1.42
4665.00,1.42
4664.00,1.42
4663.00,1.42
4662.00,1.42
4661.00,1.42
4660.00,1.42
4659.00,1.41
4658.00,1.41
4657.00,1.41
4656.00,1.41
4655.00,1.41
4654.00,1.40
4653.00,1.40
4652.00,1.40
4651.00,1.40
4650.00,1.40
4649.00,1.40
4648.00,1.40
4647.00,1.40
4646.00,1.41
4645.00,1.41
4644.00,1.41
4643.00,1.41
4642.00,1.41
4641.00,1.41
4640.00,1.42
4639.00,1.42
4638.00,1.42
4637.00,1.43
4636.00,1.43
4635.00,1.43
4634.00,1.44
4633.00,1.44
4632.00,1.44
4631.00,1.44
4630.00,1.44
4629.00,1.44
4628.00,1.44
4627.00,1.44
4626.00,1.44
4625.00,1.44
4624.00,1.44
4623.00,1.44
4622.00,1.44
4621.00,1.44
4620.00,1.45
4619.00,1.45
4618.00,1.45
4617.00,1.45
4616.00,1.45
4615.00,1.46
4614.00,1.46
4613.00,1.47
4612.00,1.47
4611.00,1.47
4610.00,1.48
4609.00,1.48
4608.00,1.49
4607.00,1.49
4606.00,1.49
4605.00,1.49
4604.00,1.49
4603.00,1.50
4602.00,1.50
4601.00,1.50
4600.00,1.50
4599.00,1.50
4598.00,1.50
4597.00,1.49
4596.00,1.49
4595.00,1.49
4594.00,1.49
4593.00,1.48
4592.00,1.48
4591.00,1.48
4590.00,1.48
4589.00,1.48
4588.00,1.48
4587.00,1.48
4586.00,1.49
4585.00,1.49
4584.00,1.49
4583.00,1.49
4582.00,1.49
4581.00,1.50
4580.00,1.50
4579.00,1.50
4578.00,1.51
4577.00,1.51
4576.00,1.51
4575.00,1.52
4574.00,1.52
4573.00,1.52
4572.00,1.52
4571.00,1.52
4570.00,1.52
4569.00,1.52
4568.00,1.52
4567.00,1.52
4566.00,1.53
4565.00,1.53
4564.00,1.53
4563.00,1.53
4562.00,1.52
4561.00,1.52
4560.00,1.52
4559.00,1.52
4558.00,1.52
4557.00,1.52
4556.00,1.52
4555.00,1.52
4554.00,1.52
4553.00,1.52
4552.00,1.52
4551.00,1.51
4550.00,1.51
4549.00,1.51
4548.00,1.51
4547.00,1.51
4546.00,1.51
4545.00,1.51
4544.00,1.51
4543.00,1.51
4542.00,1.52
4541.00,1.52
4540.00,1.52
4539.00,1.52
4538.00,1.53
4537.00,1.53
4536.00,1.53
4535.00,1.54
4534.00,1.55
4533.00,1.55
4532.00,1.56
4531.00,1.56
4530.00,1.57
4529.00,1.58
4528.00,1.58
4527.00,1.59
4526.00,1.59
4525.00,1.59
4524.00,1.60
4523.00,1.60
4522.00,1.60
4521.00,1.60
4520.00,1.60
4519.00,1.60
4518.00,1.60
4517.00,1.60
4516.00,1.60
4515.00,1.60
4514.00,1.60
4513.00,1.59
4512.00,1.59
4511.00,1.59
4510.00,1.59
4509.00,1.58
4508.00,1.58
4507.00,1.58
4506.00,1.58
4505.00,1.57
4504.00,1.57
4503.00,1.57
4502.00,1.56
4501.00,1.56
4500.00,1.56
4499.00,1.56
4498.00,1.55
4497.00,1.55
4496.00,1.55
4495.00,1.55
4494.00,1.55
4493.00,1.55
4492.00,1.55
4491.00,1.55
4490.00,1.55
4489.00,1.55
4488.00,1.55
4487.00,1.55
4486.00,1.55
4485.00,1.55
4484.00,1.55
4483.00,1.55
4482.00,1.55
4481.00,1.55
4480.00,1.55
4479.00,1.54
4478.00,1.54
4477.00,1.54
4476.00,1.53
4475.00,1.52
4474.00,1.52
4473.00,1.51
4472.00,1.50
4471.00,1.49
4470.00,1.49
4469.00,1.48
4468.00,1.47
4467.00,1.47
4466.00,1.46
4465.00,1.46
4464.00,1.45
4463.00,1.45
4462.00,1.44
4461.00,1.44
4460.00,1.43
4459.00,1.43
4458.00,1.42
4457.00,1.42
4456.00,1.42
4455.00,1.41
4454.00,1.41
4453.00,1.40
4452.00,1.40
4451.00,1.39
4450.00,1.38
4449.00,1.37
4448.00,1.37
4447.00,1.36
4446.00,1.35
4445.00,1.34
4444.00,1.33
4443.00,1.33
4442.00,1.32
4441.00,1.31
4440.00,1.31
4439.00,1.30
4438.00,1.29
4437.00,1.29
4436.00,1.28
4435.00,1.27
4434.00,1.27
4433.00,1.26
4432.00,1.26
4431.00,1.26
4430.00,1.25
4429.00,1.25
4428.00,1.24
4427.00,1.24
4426.00,1.23
4425.00,1.22
4424.00,1.22
4423.00,1.21
4422.00,1.21
4421.00,1.21
4420.00,1.20
4419.00,1.20
4418.00,1.20
4417.00,1.20
4416.00,1.19
4415.00,1.19
4414.00,1.18
4413.00,1.18
4412.00,1.18
4411.00,1.18
4410.00,1.18
4409.00,1.18
4408.00,1.18
4407.00,1.18
4406.00,1.18
4405.00,1.18
4404.00,1.18
4403.00,1.17
4402.00,1.17
4401.00,1.17
4400.00,1.18
4399.00,1.18
4398.00,1.18
4397.00,1.19
4396.00,1.19
4395.00,1.19
4394.00,1.20
4393.00,1.20
4392.00,1.20
4391.00,1.20
4390.00,1.21
4389.00,1.21
4388.00,1.21
4387.00,1.21
4386.00,1.21
4385.00,1.22
4384.00,1.22
4383.00,1.22
4382.00,1.22
4381.00,1.23
4380.00,1.23
4379.00,1.23
4378.00,1.23
4377.00,1.23
4376.00,1.24
4375.00,1.24
4374.00,1.25
4373.00,1.25
4372.00,1.25
4371.00,1.26
4370.00,1.26
4369.00,1.26
4368.00,1.26
4367.00,1.27
4366.00,1.27
4365.00,1.27
4364.00,1.27
4363.00,1.27
4362.00,1.26
4361.00,1.26
4360.00,1.26
4359.00,1.25
4358.00,1.25
4357.00,1.24
4356.00,1.23
4355.00,1.22
4354.00,1.22
4353.00,1.21
4352.00,1.20
4351.00,1.20
4350.00,1.19
4349.00,1.18
4348.00,1.18
4347.00,1.17
4346.00,1.16
4345.00,1.16
4344.00,1.15
4343.00,1.15
4342.00,1.14
4341.00,1.14
4340.00,1.14
4339.00,1.14
4338.00,1.14
4337.00,1.13
4336.00,1.13
4335.00,1.13
4334.00,1.14
4333.00,1.14
4332.00,1.14
4331.00,1.15
4330.00,1.15
4329.00,1.16
4328.00,1.17
4327.00,1.17
4326.00,1.18
4325.00,1.19
4324.00,1.20
4323.00,1.21
4322.00,1.22
4321.00,1.22
4320.00,1.23
4319.00,1.24
4318.00,1.25
4317.00,1.26
4316.00,1.26
4315.00,1.27
4314.00,1.27
4313.00,1.28
4312.00,1.28
4311.00,1.29
4310.00,1.29
4309.00,1.30
4308.00,1.31
4307.00,1.32
4306.00,1.33
4305.00,1.34
4304.00,1.34
4303.00,1.35
4302.00,1.36
4301.00,1.37
4300.00,1.38
4299.00,1.39
4298.00,1.40
4297.00,1.42
4296.00,1.43
4295.00,1.44
4294.00,1.45
4293.00,1.46
4292.00,1.46
4291.00,1.47
4290.00,1.48
4289.00,1.48
4288.00,1.48
4287.00,1.49
4286.00,1.49
4285.00,1.50
4284.00,1.50
4283.00,1.50
4282.00,1.50
4281.00,1.50
4280.00,1.50
4279.00,1.50
4278.00,1.50
4277.00,1.50
4276.00,1.49
4275.00,1.49
4274.00,1.48
4273.00,1.48
4272.00,1.47
4271.00,1.46
4270.00,1.45
4269.00,1.45
4268.00,1.44
4267.00,1.43
4266.00,1.42
4265.00,1.41
4264.00,1.41
4263.00,1.40
4262.00,1.39
4261.00,1.39
4260.00,1.38
4259.00,1.38
4258.00,1.38
4257.00,1.37
4256.00,1.38
4255.00,1.38
4254.00,1.38
4253.00,1.39
4252.00,1.39
4251.00,1.40
4250.00,1.40
4249.00,1.40
4248.00,1.41
4247.00,1.41
4246.00,1.41
4245.00,1.42
4244.00,1.42
4243.00,1.42
4242.00,1.42
4241.00,1.43
4240.00,1.43
4239.00,1.42
4238.00,1.42
4237.00,1.42
4236.00,1.41
4235.00,1.40
4234.00,1.40
4233.00,1.39
4232.00,1.39
4231.00,1.38
4230.00,1.38
4229.00,1.38
4228.00,1.38
4227.00,1.38
4226.00,1.38
4225.00,1.38
4224.00,1.38
4223.00,1.38
4222.00,1.38
4221.00,1.38
4220.00,1.38
4219.00,1.38
4218.00,1.39
4217.00,1.39
4216.00,1.39
4215.00,1.40
4214.00,1.40
4213.00,1.40
4212.00,1.40
4211.00,1.40
4210.00,1.40
4209.00,1.40
4208.00,1.41
4207.00,1.41
4206.00,1.41
4205.00,1.41
4204.00,1.42
4203.00,1.42
4202.00,1.42
4201.00,1.42
4200.00,1.42
4199.00,1.42
4198.00,1.42
4197.00,1.42
4196.00,1.42
4195.00,1.42
4194.00,1.42
4193.00,1.42
4192.00,1.42
4191.00,1.42
4190.00,1.42
4189.00,1.42
4188.00,1.42
4187.00,1.42
4186.00,1.42
4185.00,1.42
4184.00,1.42
4183.00,1.42
4182.00,1.42
4181.00,1.42
4180.00,1.43
4179.00,1.43
4178.00,1.43
4177.00,1.43
4176.00,1.43
4175.00,1.43
4174.00,1.42
4173.00,1.42
4172.00,1.42
4171.00,1.42
4170.00,1.42
4169.00,1.42
4168.00,1.41
4167.00,1.41
4166.00,1.41
4165.00,1.41
4164.00,1.41
4163.00,1.40
4162.00,1.40
4161.00,1.40
4160.00,1.40
4159.00,1.40
4158.00,1.40
4157.00,1.40
4156.00,1.39
4155.00,1.39
4154.00,1.39
4153.00,1.38
4152.00,1.38
4151.00,1.38
4150.00,1.37
4149.00,1.37
4148.00,1.36
4147.00,1.36
4146.00,1.36
4145.00,1.36
4144.00,1.36
4143.00,1.35
4142.00,1.35
4141.00,1.35
4140.00,1.35
4139.00,1.35
4138.00,1.36
4137.00,1.36
4136.00,1.37
4135.00,1.37
4134.00,1.38
4133.00,1.39
4132.00,1.40
4131.00,1.40
4130.00,1.41
4129.00,1.42
4128.00,1.42
4127.00,1.43
4126.00,1.43
4125.00,1.44
4124.00,1.44
4123.00,1.45
4122.00,1.46
4121.00,1.46
4120.00,1.46
4119.00,1.46
4118.00,1.46
4117.00,1.46
4116.00,1.46
4115.00,1.46
4114.00,1.47
4113.00,1.47
4112.00,1.47
4111.00,1.48
4110.00,1.48
4109.00,1.49
4108.00,1.49
4107.00,1.50
4106.00,1.50
4105.00,1.51
4104.00,1.51
4103.00,1.52
4102.00,1.53
4101.00,1.54
4100.00,1.54
4099.00,1.55
4098.00,1.55
4097.00,1.56
4096.00,1.56
4095.00,1.56
4094.00,1.56
4093.00,1.56
4092.00,1.55
4091.00,1.55
4090.00,1.55
4089.00,1.54
4088.00,1.54
4087.00,1.53
4086.00,1.53
4085.00,1.52
4084.00,1.52
4083.00,1.51
4082.00,1.51
4081.00,1.51
4080.00,1.50
4079.00,1.50
4078.00,1.50
4077.00,1.50
4076.00,1.50
4075.00,1.50
4074.00,1.49
4073.00,1.49
4072.00,1.49
4071.00,1.49
4070.00,1.48
4069.00,1.48
4068.00,1.47
4067.00,1.46
4066.00,1.46
4065.00,1.45
4064.00,1.45
4063.00,1.44
4062.00,1.44
4061.00,1.44
4060.00,1.44
4059.00,1.44
4058.00,1.44
4057.00,1.44
4056.00,1.44
4055.00,1.45
4054.00,1.45
4053.00,1.46
4052.00,1.47
4051.00,1.48
4050.00,1.49
4049.00,1.49
4048.00,1.50
4047.00,1.50
4046.00,1.51
4045.00,1.51
4044.00,1.51
4043.00,1.51
4042.00,1.51
4041.00,1.51
4040.00,1.50
4039.00,1.50
4038.00,1.49
4037.00,1.48
4036.00,1.47
4035.00,1.46
4034.00,1.45
4033.00,1.44
4032.00,1.44
4031.00,1.43
4030.00,1.43
4029.00,1.43
4028.00,1.42
4027.00,1.42
4026.00,1.42
4025.00,1.42
4024.00,1.42
4023.00,1.41
4022.00,1.41
4021.00,1.42
4020.00,1.42
4019.00,1.42
4018.00,1.43
4017.00,1.44
4016.00,1.45
4015.00,1.45
4014.00,1.46
4013.00,1.47
4012.00,1.48
4011.00,1.48
4010.00,1.49
4009.00,1.50
4008.00,1.51
4007.00,1.53
4006.00,1.54
4005.00,1.55
4004.00,1.57
4003.00,1.58
4002.00,1.59
4001.00,1.61
4000.00,1.62
