创建为新数据集,样品 642 用户 Administrator 日期 星期四, 七月 25 2019
cm-1,%T
10000.00,1.48
9999.00,1.47
9998.00,1.46
9997.00,1.44
9996.00,1.43
9995.00,1.42
9994.00,1.42
9993.00,1.41
9992.00,1.41
9991.00,1.40
9990.00,1.40
9989.00,1.40
9988.00,1.40
9987.00,1.41
9986.00,1.41
9985.00,1.42
9984.00,1.42
9983.00,1.43
9982.00,1.44
9981.00,1.44
9980.00,1.45
9979.00,1.45
9978.00,1.46
9977.00,1.46
9976.00,1.46
9975.00,1.46
9974.00,1.47
9973.00,1.47
9972.00,1.47
9971.00,1.47
9970.00,1.47
9969.00,1.47
9968.00,1.47
9967.00,1.47
9966.00,1.47
9965.00,1.47
9964.00,1.47
9963.00,1.46
9962.00,1.46
9961.00,1.46
9960.00,1.45
9959.00,1.45
9958.00,1.44
9957.00,1.43
9956.00,1.43
9955.00,1.42
9954.00,1.41
9953.00,1.40
9952.00,1.39
9951.00,1.38
9950.00,1.36
9949.00,1.35
9948.00,1.34
9947.00,1.33
9946.00,1.33
9945.00,1.32
9944.00,1.31
9943.00,1.31
9942.00,1.30
9941.00,1.30
9940.00,1.30
9939.00,1.29
9938.00,1.29
9937.00,1.29
9936.00,1.29
9935.00,1.29
9934.00,1.29
9933.00,1.29
9932.00,1.29
9931.00,1.29
9930.00,1.29
9929.00,1.29
9928.00,1.29
9927.00,1.29
9926.00,1.29
9925.00,1.28
9924.00,1.28
9923.00,1.28
9922.00,1.28
9921.00,1.27
9920.00,1.27
9919.00,1.26
9918.00,1.26
9917.00,1.25
9916.00,1.24
9915.00,1.23
9914.00,1.22
9913.00,1.21
9912.00,1.19
9911.00,1.18
9910.00,1.17
9909.00,1.16
9908.00,1.14
9907.00,1.13
9906.00,1.12
9905.00,1.11
9904.00,1.09
9903.00,1.08
9902.00,1.08
9901.00,1.07
9900.00,1.07
9899.00,1.07
9898.00,1.07
9897.00,1.07
9896.00,1.08
9895.00,1.09
9894.00,1.10
9893.00,1.11
9892.00,1.12
9891.00,1.14
9890.00,1.15
9889.00,1.17
9888.00,1.19
9887.00,1.21
9886.00,1.22
9885.00,1.24
9884.00,1.25
9883.00,1.26
9882.00,1.27
9881.00,1.28
9880.00,1.29
9879.00,1.30
9878.00,1.30
9877.00,1.30
9876.00,1.30
9875.00,1.30
9874.00,1.30
9873.00,1.30
9872.00,1.30
9871.00,1.29
9870.00,1.29
9869.00,1.29
9868.00,1.29
9867.00,1.29
9866.00,1.29
9865.00,1.29
9864.00,1.29
9863.00,1.29
9862.00,1.30
9861.00,1.30
9860.00,1.31
9859.00,1.31
9858.00,1.31
9857.00,1.32
9856.00,1.32
9855.00,1.33
9854.00,1.33
9853.00,1.33
9852.00,1.34
9851.00,1.34
9850.00,1.34
9849.00,1.34
9848.00,1.34
9847.00,1.34
9846.00,1.34
9845.00,1.34
9844.00,1.33
9843.00,1.33
9842.00,1.33
9841.00,1.33
9840.00,1.33
9839.00,1.33
9838.00,1.33
9837.00,1.33
9836.00,1.33
9835.00,1.33
9834.00,1.33
9833.00,1.33
9832.00,1.32
9831.00,1.32
9830.00,1.32
9829.00,1.32
9828.00,1.31
9827.00,1.31
9826.00,1.30
9825.00,1.30
9824.00,1.29
9823.00,1.28
9822.00,1.27
9821.00,1.27
9820.00,1.26
9819.00,1.25
9818.00,1.25
9817.00,1.25
9816.00,1.25
9815.00,1.25
9814.00,1.26
9813.00,1.27
9812.00,1.28
9811.00,1.29
9810.00,1.30
9809.00,1.32
9808.00,1.33
9807.00,1.35
9806.00,1.37
9805.00,1.38
9804.00,1.39
9803.00,1.40
9802.00,1.41
9801.00,1.42
9800.00,1.42
9799.00,1.42
9798.00,1.42
9797.00,1.41
9796.00,1.40
9795.00,1.39
9794.00,1.38
9793.00,1.36
9792.00,1.34
9791.00,1.32
9790.00,1.30
9789.00,1.28
9788.00,1.26
9787.00,1.25
9786.00,1.23
9785.00,1.22
9784.00,1.21
9783.00,1.20
9782.00,1.19
9781.00,1.19
9780.00,1.18
9779.00,1.18
9778.00,1.18
9777.00,1.18
9776.00,1.19
9775.00,1.19
9774.00,1.19
9773.00,1.20
9772.00,1.21
9771.00,1.22
9770.00,1.22
9769.00,1.23
9768.00,1.23
9767.00,1.24
9766.00,1.24
9765.00,1.25
9764.00,1.25
9763.00,1.26
9762.00,1.26
9761.00,1.26
9760.00,1.26
9759.00,1.26
9758.00,1.27
9757.00,1.27
9756.00,1.27
9755.00,1.27
9754.00,1.27
9753.00,1.27
9752.00,1.26
9751.00,1.26
9750.00,1.26
9749.00,1.26
9748.00,1.26
9747.00,1.26
9746.00,1.26
9745.00,1.26
9744.00,1.26
9743.00,1.25
9742.00,1.25
9741.00,1.25
9740.00,1.25
9739.00,1.25
9738.00,1.26
9737.00,1.26
9736.00,1.26
9735.00,1.27
9734.00,1.27
9733.00,1.28
9732.00,1.29
9731.00,1.30
9730.00,1.31
9729.00,1.31
9728.00,1.32
9727.00,1.33
9726.00,1.34
9725.00,1.35
9724.00,1.36
9723.00,1.36
9722.00,1.36
9721.00,1.36
9720.00,1.36
9719.00,1.35
9718.00,1.35
9717.00,1.34
9716.00,1.32
9715.00,1.31
9714.00,1.30
9713.00,1.28
9712.00,1.26
9711.00,1.25
9710.00,1.23
9709.00,1.22
9708.00,1.21
9707.00,1.19
9706.00,1.18
9705.00,1.17
9704.00,1.17
9703.00,1.16
9702.00,1.16
9701.00,1.16
9700.00,1.15
9699.00,1.15
9698.00,1.15
9697.00,1.15
9696.00,1.15
9695.00,1.15
9694.00,1.16
9693.00,1.16
9692.00,1.16
9691.00,1.16
9690.00,1.17
9689.00,1.17
9688.00,1.17
9687.00,1.18
9686.00,1.18
9685.00,1.19
9684.00,1.19
9683.00,1.20
9682.00,1.21
9681.00,1.21
9680.00,1.22
9679.00,1.23
9678.00,1.24
9677.00,1.25
9676.00,1.26
9675.00,1.27
9674.00,1.28
9673.00,1.28
9672.00,1.29
9671.00,1.29
9670.00,1.30
9669.00,1.31
9668.00,1.31
9667.00,1.32
9666.00,1.32
9665.00,1.33
9664.00,1.34
9663.00,1.34
9662.00,1.35
9661.00,1.35
9660.00,1.36
9659.00,1.36
9658.00,1.36
9657.00,1.36
9656.00,1.37
9655.00,1.37
9654.00,1.37
9653.00,1.37
9652.00,1.37
9651.00,1.37
9650.00,1.37
9649.00,1.36
9648.00,1.36
9647.00,1.35
9646.00,1.35
9645.00,1.34
9644.00,1.34
9643.00,1.33
9642.00,1.33
9641.00,1.32
9640.00,1.32
9639.00,1.31
9638.00,1.31
9637.00,1.30
9636.00,1.30
9635.00,1.29
9634.00,1.29
9633.00,1.29
9632.00,1.28
9631.00,1.28
9630.00,1.28
9629.00,1.27
9628.00,1.27
9627.00,1.27
9626.00,1.27
9625.00,1.27
9624.00,1.27
9623.00,1.27
9622.00,1.27
9621.00,1.27
9620.00,1.27
9619.00,1.27
9618.00,1.27
9617.00,1.28
9616.00,1.28
9615.00,1.28
9614.00,1.28
9613.00,1.28
9612.00,1.28
9611.00,1.29
9610.00,1.29
9609.00,1.29
9608.00,1.29
9607.00,1.29
9606.00,1.29
9605.00,1.30
9604.00,1.30
9603.00,1.30
9602.00,1.31
9601.00,1.31
9600.00,1.32
9599.00,1.32
9598.00,1.33
9597.00,1.34
9596.00,1.34
9595.00,1.35
9594.00,1.36
9593.00,1.37
9592.00,1.38
9591.00,1.38
9590.00,1.39
9589.00,1.40
9588.00,1.41
9587.00,1.41
9586.00,1.42
9585.00,1.42
9584.00,1.43
9583.00,1.43
9582.00,1.44
9581.00,1.44
9580.00,1.44
9579.00,1.44
9578.00,1.44
9577.00,1.45
9576.00,1.45
9575.00,1.45
9574.00,1.45
9573.00,1.44
9572.00,1.44
9571.00,1.44
9570.00,1.44
9569.00,1.44
9568.00,1.44
9567.00,1.44
9566.00,1.43
9565.00,1.43
9564.00,1.43
9563.00,1.42
9562.00,1.41
9561.00,1.41
9560.00,1.40
9559.00,1.39
9558.00,1.37
9557.00,1.36
9556.00,1.35
9555.00,1.34
9554.00,1.32
9553.00,1.31
9552.00,1.29
9551.00,1.28
9550.00,1.27
9549.00,1.26
9548.00,1.25
9547.00,1.24
9546.00,1.24
9545.00,1.24
9544.00,1.24
9543.00,1.24
9542.00,1.24
9541.00,1.25
9540.00,1.26
9539.00,1.27
9538.00,1.28
9537.00,1.29
9536.00,1.30
9535.00,1.32
9534.00,1.33
9533.00,1.33
9532.00,1.34
9531.00,1.35
9530.00,1.35
9529.00,1.36
9528.00,1.36
9527.00,1.36
9526.00,1.35
9525.00,1.35
9524.00,1.34
9523.00,1.34
9522.00,1.33
9521.00,1.33
9520.00,1.32
9519.00,1.32
9518.00,1.31
9517.00,1.31
9516.00,1.31
9515.00,1.30
9514.00,1.30
9513.00,1.31
9512.00,1.31
9511.00,1.31
9510.00,1.32
9509.00,1.32
9508.00,1.33
9507.00,1.33
9506.00,1.34
9505.00,1.34
9504.00,1.35
9503.00,1.35
9502.00,1.35
9501.00,1.35
9500.00,1.34
9499.00,1.34
9498.00,1.33
9497.00,1.32
9496.00,1.30
9495.00,1.29
9494.00,1.28
9493.00,1.26
9492.00,1.24
9491.00,1.23
9490.00,1.21
9489.00,1.19
9488.00,1.18
9487.00,1.17
9486.00,1.16
9485.00,1.15
9484.00,1.14
9483.00,1.13
9482.00,1.13
9481.00,1.13
9480.00,1.13
9479.00,1.14
9478.00,1.14
9477.00,1.14
9476.00,1.15
9475.00,1.15
9474.00,1.16
9473.00,1.16
9472.00,1.16
9471.00,1.17
9470.00,1.17
9469.00,1.17
9468.00,1.18
9467.00,1.18
9466.00,1.18
9465.00,1.19
9464.00,1.19
9463.00,1.20
9462.00,1.20
9461.00,1.21
9460.00,1.22
9459.00,1.22
9458.00,1.23
9457.00,1.24
9456.00,1.25
9455.00,1.26
9454.00,1.28
9453.00,1.29
9452.00,1.30
9451.00,1.31
9450.00,1.32
9449.00,1.33
9448.00,1.33
9447.00,1.34
9446.00,1.34
9445.00,1.35
9444.00,1.35
9443.00,1.35
9442.00,1.35
9441.00,1.36
9440.00,1.36
9439.00,1.36
9438.00,1.36
9437.00,1.36
9436.00,1.36
9435.00,1.36
9434.00,1.36
9433.00,1.35
9432.00,1.35
9431.00,1.35
9430.00,1.36
9429.00,1.36
9428.00,1.36
9427.00,1.36
9426.00,1.36
9425.00,1.36
9424.00,1.36
9423.00,1.36
9422.00,1.35
9421.00,1.35
9420.00,1.35
9419.00,1.35
9418.00,1.35
9417.00,1.35
9416.00,1.35
9415.00,1.34
9414.00,1.34
9413.00,1.34
9412.00,1.34
9411.00,1.33
9410.00,1.33
9409.00,1.33
9408.00,1.33
9407.00,1.32
9406.00,1.32
9405.00,1.32
9404.00,1.31
9403.00,1.31
9402.00,1.30
9401.00,1.30
9400.00,1.29
9399.00,1.29
9398.00,1.28
9397.00,1.28
9396.00,1.27
9395.00,1.26
9394.00,1.26
9393.00,1.25
9392.00,1.25
9391.00,1.24
9390.00,1.24
9389.00,1.23
9388.00,1.23
9387.00,1.23
9386.00,1.23
9385.00,1.23
9384.00,1.23
9383.00,1.23
9382.00,1.23
9381.00,1.24
9380.00,1.24
9379.00,1.25
9378.00,1.25
9377.00,1.25
9376.00,1.26
9375.00,1.26
9374.00,1.26
9373.00,1.26
9372.00,1.26
9371.00,1.26
9370.00,1.26
9369.00,1.26
9368.00,1.26
9367.00,1.25
9366.00,1.25
9365.00,1.25
9364.00,1.24
9363.00,1.24
9362.00,1.23
9361.00,1.23
9360.00,1.23
9359.00,1.23
9358.00,1.23
9357.00,1.23
9356.00,1.23
9355.00,1.23
9354.00,1.24
9353.00,1.24
9352.00,1.24
9351.00,1.24
9350.00,1.24
9349.00,1.24
9348.00,1.24
9347.00,1.24
9346.00,1.24
9345.00,1.24
9344.00,1.24
9343.00,1.24
9342.00,1.24
9341.00,1.24
9340.00,1.25
9339.00,1.25
9338.00,1.25
9337.00,1.26
9336.00,1.27
9335.00,1.27
9334.00,1.28
9333.00,1.29
9332.00,1.31
9331.00,1.32
9330.00,1.33
9329.00,1.34
9328.00,1.35
9327.00,1.36
9326.00,1.36
9325.00,1.37
9324.00,1.38
9323.00,1.38
9322.00,1.39
9321.00,1.39
9320.00,1.39
9319.00,1.39
9318.00,1.39
9317.00,1.39
9316.00,1.39
9315.00,1.38
9314.00,1.38
9313.00,1.38
9312.00,1.37
9311.00,1.37
9310.00,1.37
9309.00,1.36
9308.00,1.36
9307.00,1.36
9306.00,1.36
9305.00,1.35
9304.00,1.35
9303.00,1.35
9302.00,1.35
9301.00,1.34
9300.00,1.34
9299.00,1.34
9298.00,1.34
9297.00,1.34
9296.00,1.34
9295.00,1.33
9294.00,1.33
9293.00,1.33
9292.00,1.32
9291.00,1.32
9290.00,1.32
9289.00,1.31
9288.00,1.31
9287.00,1.31
9286.00,1.30
9285.00,1.30
9284.00,1.30
9283.00,1.29
9282.00,1.29
9281.00,1.28
9280.00,1.28
9279.00,1.28
9278.00,1.28
9277.00,1.27
9276.00,1.27
9275.00,1.27
9274.00,1.27
9273.00,1.27
9272.00,1.26
9271.00,1.26
9270.00,1.26
9269.00,1.26
9268.00,1.26
9267.00,1.25
9266.00,1.25
9265.00,1.25
9264.00,1.24
9263.00,1.24
9262.00,1.23
9261.00,1.23
9260.00,1.22
9259.00,1.22
9258.00,1.21
9257.00,1.21
9256.00,1.21
9255.00,1.20
9254.00,1.20
9253.00,1.20
9252.00,1.20
9251.00,1.20
9250.00,1.20
9249.00,1.21
9248.00,1.21
9247.00,1.22
9246.00,1.22
9245.00,1.23
9244.00,1.24
9243.00,1.25
9242.00,1.26
9241.00,1.27
9240.00,1.28
9239.00,1.29
9238.00,1.30
9237.00,1.31
9236.00,1.32
9235.00,1.33
9234.00,1.34
9233.00,1.35
9232.00,1.36
9231.00,1.36
9230.00,1.37
9229.00,1.37
9228.00,1.37
9227.00,1.37
9226.00,1.37
9225.00,1.37
9224.00,1.37
9223.00,1.36
9222.00,1.36
9221.00,1.35
9220.00,1.35
9219.00,1.34
9218.00,1.33
9217.00,1.33
9216.00,1.32
9215.00,1.31
9214.00,1.31
9213.00,1.30
9212.00,1.29
9211.00,1.29
9210.00,1.28
9209.00,1.28
9208.00,1.27
9207.00,1.27
9206.00,1.27
9205.00,1.26
9204.00,1.26
9203.00,1.26
9202.00,1.25
9201.00,1.25
9200.00,1.24
9199.00,1.24
9198.00,1.24
9197.00,1.23
9196.00,1.23
9195.00,1.22
9194.00,1.22
9193.00,1.22
9192.00,1.22
9191.00,1.22
9190.00,1.22
9189.00,1.22
9188.00,1.22
9187.00,1.23
9186.00,1.23
9185.00,1.23
9184.00,1.24
9183.00,1.25
9182.00,1.25
9181.00,1.26
9180.00,1.27
9179.00,1.27
9178.00,1.28
9177.00,1.29
9176.00,1.29
9175.00,1.30
9174.00,1.30
9173.00,1.31
9172.00,1.31
9171.00,1.31
9170.00,1.31
9169.00,1.32
9168.00,1.31
9167.00,1.31
9166.00,1.31
9165.00,1.31
9164.00,1.31
9163.00,1.30
9162.00,1.30
9161.00,1.30
9160.00,1.30
9159.00,1.30
9158.00,1.29
9157.00,1.29
9156.00,1.29
9155.00,1.29
9154.00,1.28
9153.00,1.28
9152.00,1.29
9151.00,1.29
9150.00,1.29
9149.00,1.29
9148.00,1.30
9147.00,1.30
9146.00,1.30
9145.00,1.30
9144.00,1.31
9143.00,1.31
9142.00,1.31
9141.00,1.32
9140.00,1.32
9139.00,1.33
9138.00,1.33
9137.00,1.34
9136.00,1.34
9135.00,1.35
9134.00,1.35
9133.00,1.36
9132.00,1.36
9131.00,1.36
9130.00,1.37
9129.00,1.37
9128.00,1.37
9127.00,1.38
9126.00,1.38
9125.00,1.38
9124.00,1.38
9123.00,1.38
9122.00,1.38
9121.00,1.38
9120.00,1.37
9119.00,1.37
9118.00,1.36
9117.00,1.35
9116.00,1.35
9115.00,1.34
9114.00,1.33
9113.00,1.32
9112.00,1.31
9111.00,1.31
9110.00,1.30
9109.00,1.29
9108.00,1.29
9107.00,1.28
9106.00,1.28
9105.00,1.28
9104.00,1.27
9103.00,1.27
9102.00,1.27
9101.00,1.28
9100.00,1.28
9099.00,1.28
9098.00,1.28
9097.00,1.28
9096.00,1.29
9095.00,1.29
9094.00,1.29
9093.00,1.29
9092.00,1.30
9091.00,1.30
9090.00,1.30
9089.00,1.30
9088.00,1.30
9087.00,1.30
9086.00,1.31
9085.00,1.31
9084.00,1.31
9083.00,1.31
9082.00,1.32
9081.00,1.32
9080.00,1.32
9079.00,1.33
9078.00,1.33
9077.00,1.34
9076.00,1.34
9075.00,1.35
9074.00,1.35
9073.00,1.36
9072.00,1.36
9071.00,1.36
9070.00,1.36
9069.00,1.37
9068.00,1.37
9067.00,1.37
9066.00,1.36
9065.00,1.36
9064.00,1.36
9063.00,1.35
9062.00,1.35
9061.00,1.34
9060.00,1.33
9059.00,1.33
9058.00,1.32
9057.00,1.32
9056.00,1.31
9055.00,1.31
9054.00,1.30
9053.00,1.30
9052.00,1.30
9051.00,1.30
9050.00,1.30
9049.00,1.30
9048.00,1.31
9047.00,1.31
9046.00,1.32
9045.00,1.33
9044.00,1.33
9043.00,1.34
9042.00,1.35
9041.00,1.36
9040.00,1.36
9039.00,1.37
9038.00,1.37
9037.00,1.38
9036.00,1.38
9035.00,1.38
9034.00,1.38
9033.00,1.38
9032.00,1.38
9031.00,1.38
9030.00,1.38
9029.00,1.37
9028.00,1.37
9027.00,1.37
9026.00,1.37
9025.00,1.36
9024.00,1.36
9023.00,1.36
9022.00,1.36
9021.00,1.35
9020.00,1.35
9019.00,1.35
9018.00,1.35
9017.00,1.35
9016.00,1.34
9015.00,1.34
9014.00,1.34
9013.00,1.33
9012.00,1.33
9011.00,1.33
9010.00,1.32
9009.00,1.32
9008.00,1.32
9007.00,1.31
9006.00,1.31
9005.00,1.31
9004.00,1.30
9003.00,1.30
9002.00,1.30
9001.00,1.30
9000.00,1.30
8999.00,1.30
8998.00,1.31
8997.00,1.31
8996.00,1.32
8995.00,1.32
8994.00,1.32
8993.00,1.33
8992.00,1.33
8991.00,1.34
8990.00,1.34
8989.00,1.35
8988.00,1.35
8987.00,1.36
8986.00,1.36
8985.00,1.36
8984.00,1.36
8983.00,1.36
8982.00,1.36
8981.00,1.36
8980.00,1.36
8979.00,1.36
8978.00,1.35
8977.00,1.35
8976.00,1.35
8975.00,1.34
8974.00,1.34
8973.00,1.33
8972.00,1.33
8971.00,1.33
8970.00,1.33
8969.00,1.32
8968.00,1.32
8967.00,1.32
8966.00,1.32
8965.00,1.32
8964.00,1.32
8963.00,1.32
8962.00,1.32
8961.00,1.31
8960.00,1.31
8959.00,1.31
8958.00,1.31
8957.00,1.31
8956.00,1.31
8955.00,1.31
8954.00,1.31
8953.00,1.31
8952.00,1.31
8951.00,1.30
8950.00,1.30
8949.00,1.30
8948.00,1.30
8947.00,1.29
8946.00,1.29
8945.00,1.29
8944.00,1.29
8943.00,1.29
8942.00,1.29
8941.00,1.29
8940.00,1.29
8939.00,1.29
8938.00,1.29
8937.00,1.29
8936.00,1.28
8935.00,1.28
8934.00,1.28
8933.00,1.27
8932.00,1.27
8931.00,1.27
8930.00,1.26
8929.00,1.26
8928.00,1.25
8927.00,1.25
8926.00,1.25
8925.00,1.25
8924.00,1.24
8923.00,1.24
8922.00,1.24
8921.00,1.25
8920.00,1.25
8919.00,1.25
8918.00,1.26
8917.00,1.27
8916.00,1.28
8915.00,1.29
8914.00,1.30
8913.00,1.31
8912.00,1.32
8911.00,1.33
8910.00,1.34
8909.00,1.35
8908.00,1.36
8907.00,1.36
8906.00,1.37
8905.00,1.37
8904.00,1.37
8903.00,1.37
8902.00,1.37
8901.00,1.37
8900.00,1.36
8899.00,1.36
8898.00,1.35
8897.00,1.34
8896.00,1.34
8895.00,1.33
8894.00,1.32
8893.00,1.32
8892.00,1.31
8891.00,1.31
8890.00,1.30
8889.00,1.30
8888.00,1.30
8887.00,1.29
8886.00,1.29
8885.00,1.29
8884.00,1.29
8883.00,1.30
8882.00,1.30
8881.00,1.30
8880.00,1.31
8879.00,1.31
8878.00,1.31
8877.00,1.32
8876.00,1.32
8875.00,1.33
8874.00,1.33
8873.00,1.34
8872.00,1.34
8871.00,1.34
8870.00,1.35
8869.00,1.35
8868.00,1.35
8867.00,1.35
8866.00,1.34
8865.00,1.34
8864.00,1.34
8863.00,1.33
8862.00,1.33
8861.00,1.32
8860.00,1.32
8859.00,1.31
8858.00,1.30
8857.00,1.30
8856.00,1.29
8855.00,1.28
8854.00,1.28
8853.00,1.27
8852.00,1.27
8851.00,1.26
8850.00,1.26
8849.00,1.26
8848.00,1.26
8847.00,1.26
8846.00,1.26
8845.00,1.27
8844.00,1.27
8843.00,1.27
8842.00,1.27
8841.00,1.28
8840.00,1.28
8839.00,1.29
8838.00,1.29
8837.00,1.30
8836.00,1.30
8835.00,1.31
8834.00,1.31
8833.00,1.31
8832.00,1.31
8831.00,1.31
8830.00,1.32
8829.00,1.32
8828.00,1.32
8827.00,1.32
8826.00,1.31
8825.00,1.31
8824.00,1.31
8823.00,1.31
8822.00,1.31
8821.00,1.30
8820.00,1.30
8819.00,1.30
8818.00,1.30
8817.00,1.30
8816.00,1.29
8815.00,1.29
8814.00,1.29
8813.00,1.29
8812.00,1.29
8811.00,1.30
8810.00,1.30
8809.00,1.30
8808.00,1.30
8807.00,1.30
8806.00,1.30
8805.00,1.30
8804.00,1.30
8803.00,1.30
8802.00,1.30
8801.00,1.30
8800.00,1.30
8799.00,1.29
8798.00,1.29
8797.00,1.28
8796.00,1.27
8795.00,1.27
8794.00,1.26
8793.00,1.25
8792.00,1.24
8791.00,1.23
8790.00,1.22
8789.00,1.21
8788.00,1.20
8787.00,1.19
8786.00,1.18
8785.00,1.17
8784.00,1.17
8783.00,1.17
8782.00,1.17
8781.00,1.17
8780.00,1.17
8779.00,1.17
8778.00,1.18
8777.00,1.18
8776.00,1.19
8775.00,1.20
8774.00,1.20
8773.00,1.21
8772.00,1.22
8771.00,1.23
8770.00,1.23
8769.00,1.24
8768.00,1.25
8767.00,1.25
8766.00,1.25
8765.00,1.26
8764.00,1.26
8763.00,1.26
8762.00,1.26
8761.00,1.26
8760.00,1.26
8759.00,1.25
8758.00,1.25
8757.00,1.25
8756.00,1.25
8755.00,1.25
8754.00,1.25
8753.00,1.24
8752.00,1.24
8751.00,1.24
8750.00,1.24
8749.00,1.23
8748.00,1.23
8747.00,1.23
8746.00,1.23
8745.00,1.23
8744.00,1.23
8743.00,1.23
8742.00,1.23
8741.00,1.24
8740.00,1.24
8739.00,1.24
8738.00,1.24
8737.00,1.24
8736.00,1.24
8735.00,1.24
8734.00,1.24
8733.00,1.24
8732.00,1.24
8731.00,1.24
8730.00,1.23
8729.00,1.23
8728.00,1.23
8727.00,1.23
8726.00,1.22
8725.00,1.22
8724.00,1.21
8723.00,1.21
8722.00,1.21
8721.00,1.20
8720.00,1.20
8719.00,1.20
8718.00,1.20
8717.00,1.20
8716.00,1.20
8715.00,1.20
8714.00,1.21
8713.00,1.21
8712.00,1.21
8711.00,1.22
8710.00,1.22
8709.00,1.23
8708.00,1.23
8707.00,1.23
8706.00,1.24
8705.00,1.24
8704.00,1.25
8703.00,1.25
8702.00,1.26
8701.00,1.26
8700.00,1.27
8699.00,1.27
8698.00,1.27
8697.00,1.28
8696.00,1.28
8695.00,1.28
8694.00,1.28
8693.00,1.28
8692.00,1.28
8691.00,1.28
8690.00,1.28
8689.00,1.28
8688.00,1.28
8687.00,1.28
8686.00,1.28
8685.00,1.28
8684.00,1.28
8683.00,1.28
8682.00,1.28
8681.00,1.28
8680.00,1.28
8679.00,1.28
8678.00,1.28
8677.00,1.28
8676.00,1.28
8675.00,1.27
8674.00,1.27
8673.00,1.27
8672.00,1.27
8671.00,1.26
8670.00,1.26
8669.00,1.26
8668.00,1.25
8667.00,1.25
8666.00,1.25
8665.00,1.25
8664.00,1.25
8663.00,1.25
8662.00,1.26
8661.00,1.26
8660.00,1.27
8659.00,1.27
8658.00,1.28
8657.00,1.29
8656.00,1.30
8655.00,1.31
8654.00,1.32
8653.00,1.33
8652.00,1.34
8651.00,1.35
8650.00,1.36
8649.00,1.36
8648.00,1.36
8647.00,1.36
8646.00,1.36
8645.00,1.35
8644.00,1.35
8643.00,1.34
8642.00,1.33
8641.00,1.32
8640.00,1.31
8639.00,1.29
8638.00,1.28
8637.00,1.27
8636.00,1.26
8635.00,1.25
8634.00,1.24
8633.00,1.23
8632.00,1.22
8631.00,1.21
8630.00,1.21
8629.00,1.21
8628.00,1.20
8627.00,1.20
8626.00,1.20
8625.00,1.20
8624.00,1.20
8623.00,1.21
8622.00,1.21
8621.00,1.21
8620.00,1.21
8619.00,1.22
8618.00,1.22
8617.00,1.22
8616.00,1.23
8615.00,1.23
8614.00,1.24
8613.00,1.24
8612.00,1.24
8611.00,1.25
8610.00,1.25
8609.00,1.26
8608.00,1.26
8607.00,1.26
8606.00,1.27
8605.00,1.27
8604.00,1.28
8603.00,1.28
8602.00,1.29
8601.00,1.29
8600.00,1.30
8599.00,1.30
8598.00,1.30
8597.00,1.30
8596.00,1.31
8595.00,1.31
8594.00,1.31
8593.00,1.31
8592.00,1.31
8591.00,1.31
8590.00,1.31
8589.00,1.31
8588.00,1.31
8587.00,1.31
8586.00,1.30
8585.00,1.30
8584.00,1.30
8583.00,1.30
8582.00,1.29
8581.00,1.29
8580.00,1.29
8579.00,1.29
8578.00,1.29
8577.00,1.29
8576.00,1.29
8575.00,1.29
8574.00,1.29
8573.00,1.29
8572.00,1.29
8571.00,1.29
8570.00,1.29
8569.00,1.29
8568.00,1.29
8567.00,1.29
8566.00,1.29
8565.00,1.29
8564.00,1.29
8563.00,1.29
8562.00,1.28
8561.00,1.28
8560.00,1.28
8559.00,1.28
8558.00,1.28
8557.00,1.27
8556.00,1.27
8555.00,1.27
8554.00,1.27
8553.00,1.27
8552.00,1.26
8551.00,1.26
8550.00,1.26
8549.00,1.26
8548.00,1.26
8547.00,1.26
8546.00,1.26
8545.00,1.26
8544.00,1.26
8543.00,1.26
8542.00,1.26
8541.00,1.26
8540.00,1.26
8539.00,1.27
8538.00,1.27
8537.00,1.27
8536.00,1.27
8535.00,1.27
8534.00,1.27
8533.00,1.27
8532.00,1.26
8531.00,1.26
8530.00,1.26
8529.00,1.26
8528.00,1.26
8527.00,1.26
8526.00,1.26
8525.00,1.26
8524.00,1.26
8523.00,1.26
8522.00,1.26
8521.00,1.25
8520.00,1.25
8519.00,1.25
8518.00,1.24
8517.00,1.24
8516.00,1.24
8515.00,1.23
8514.00,1.23
8513.00,1.22
8512.00,1.22
8511.00,1.22
8510.00,1.21
8509.00,1.21
8508.00,1.21
8507.00,1.20
8506.00,1.20
8505.00,1.20
8504.00,1.21
8503.00,1.21
8502.00,1.21
8501.00,1.22
8500.00,1.22
8499.00,1.23
8498.00,1.23
8497.00,1.24
8496.00,1.24
8495.00,1.25
8494.00,1.25
8493.00,1.26
8492.00,1.26
8491.00,1.26
8490.00,1.27
8489.00,1.27
8488.00,1.27
8487.00,1.27
8486.00,1.27
8485.00,1.27
8484.00,1.28
8483.00,1.28
8482.00,1.28
8481.00,1.28
8480.00,1.28
8479.00,1.27
8478.00,1.27
8477.00,1.27
8476.00,1.27
8475.00,1.27
8474.00,1.27
8473.00,1.28
8472.00,1.28
8471.00,1.28
8470.00,1.28
8469.00,1.29
8468.00,1.29
8467.00,1.29
8466.00,1.29
8465.00,1.30
8464.00,1.30
8463.00,1.30
8462.00,1.31
8461.00,1.32
8460.00,1.32
8459.00,1.33
8458.00,1.33
8457.00,1.34
8456.00,1.35
8455.00,1.35
8454.00,1.35
8453.00,1.36
8452.00,1.36
8451.00,1.36
8450.00,1.36
8449.00,1.36
8448.00,1.36
8447.00,1.36
8446.00,1.36
8445.00,1.36
8444.00,1.36
8443.00,1.35
8442.00,1.35
8441.00,1.34
8440.00,1.33
8439.00,1.33
8438.00,1.33
8437.00,1.33
8436.00,1.33
8435.00,1.33
8434.00,1.33
8433.00,1.33
8432.00,1.33
8431.00,1.34
8430.00,1.34
8429.00,1.35
8428.00,1.35
8427.00,1.36
8426.00,1.37
8425.00,1.37
8424.00,1.38
8423.00,1.38
8422.00,1.38
8421.00,1.38
8420.00,1.38
8419.00,1.38
8418.00,1.38
8417.00,1.37
8416.00,1.37
8415.00,1.37
8414.00,1.36
8413.00,1.36
8412.00,1.35
8411.00,1.35
8410.00,1.34
8409.00,1.34
8408.00,1.34
8407.00,1.34
8406.00,1.33
8405.00,1.33
8404.00,1.33
8403.00,1.33
8402.00,1.33
8401.00,1.33
8400.00,1.33
8399.00,1.33
8398.00,1.33
8397.00,1.33
8396.00,1.33
8395.00,1.33
8394.00,1.32
8393.00,1.32
8392.00,1.32
8391.00,1.31
8390.00,1.31
8389.00,1.31
8388.00,1.30
8387.00,1.30
8386.00,1.30
8385.00,1.30
8384.00,1.30
8383.00,1.31
8382.00,1.31
8381.00,1.31
8380.00,1.31
8379.00,1.31
8378.00,1.31
8377.00,1.31
8376.00,1.31
8375.00,1.32
8374.00,1.32
8373.00,1.31
8372.00,1.31
8371.00,1.31
8370.00,1.30
8369.00,1.30
8368.00,1.29
8367.00,1.29
8366.00,1.28
8365.00,1.28
8364.00,1.28
8363.00,1.27
8362.00,1.27
8361.00,1.27
8360.00,1.27
8359.00,1.28
8358.00,1.28
8357.00,1.28
8356.00,1.28
8355.00,1.28
8354.00,1.29
8353.00,1.29
8352.00,1.30
8351.00,1.30
8350.00,1.30
8349.00,1.30
8348.00,1.31
8347.00,1.31
8346.00,1.31
8345.00,1.31
8344.00,1.30
8343.00,1.30
8342.00,1.30
8341.00,1.31
8340.00,1.31
8339.00,1.31
8338.00,1.31
8337.00,1.31
8336.00,1.32
8335.00,1.32
8334.00,1.32
8333.00,1.33
8332.00,1.33
8331.00,1.33
8330.00,1.34
8329.00,1.34
8328.00,1.34
8327.00,1.35
8326.00,1.35
8325.00,1.35
8324.00,1.36
8323.00,1.36
8322.00,1.36
8321.00,1.36
8320.00,1.36
8319.00,1.35
8318.00,1.35
8317.00,1.35
8316.00,1.35
8315.00,1.35
8314.00,1.34
8313.00,1.34
8312.00,1.33
8311.00,1.33
8310.00,1.32
8309.00,1.32
8308.00,1.31
8307.00,1.31
8306.00,1.30
8305.00,1.30
8304.00,1.30
8303.00,1.30
8302.00,1.29
8301.00,1.29
8300.00,1.29
8299.00,1.29
8298.00,1.29
8297.00,1.29
8296.00,1.30
8295.00,1.30
8294.00,1.30
8293.00,1.30
8292.00,1.31
8291.00,1.31
8290.00,1.31
8289.00,1.31
8288.00,1.31
8287.00,1.31
8286.00,1.31
8285.00,1.31
8284.00,1.31
8283.00,1.30
8282.00,1.30
8281.00,1.30
8280.00,1.30
8279.00,1.29
8278.00,1.29
8277.00,1.29
8276.00,1.28
8275.00,1.28
8274.00,1.28
8273.00,1.28
8272.00,1.27
8271.00,1.27
8270.00,1.27
8269.00,1.27
8268.00,1.27
8267.00,1.27
8266.00,1.27
8265.00,1.27
8264.00,1.27
8263.00,1.27
8262.00,1.27
8261.00,1.27
8260.00,1.27
8259.00,1.27
8258.00,1.27
8257.00,1.28
8256.00,1.28
8255.00,1.28
8254.00,1.28
8253.00,1.28
8252.00,1.28
8251.00,1.28
8250.00,1.28
8249.00,1.28
8248.00,1.28
8247.00,1.29
8246.00,1.29
8245.00,1.29
8244.00,1.29
8243.00,1.29
8242.00,1.29
8241.00,1.29
8240.00,1.29
8239.00,1.29
8238.00,1.29
8237.00,1.29
8236.00,1.29
8235.00,1.29
8234.00,1.29
8233.00,1.30
8232.00,1.30
8231.00,1.30
8230.00,1.30
8229.00,1.30
8228.00,1.30
8227.00,1.30
8226.00,1.30
8225.00,1.30
8224.00,1.30
8223.00,1.30
8222.00,1.30
8221.00,1.30
8220.00,1.30
8219.00,1.30
8218.00,1.30
8217.00,1.30
8216.00,1.29
8215.00,1.29
8214.00,1.29
8213.00,1.29
8212.00,1.29
8211.00,1.29
8210.00,1.29
8209.00,1.29
8208.00,1.29
8207.00,1.29
8206.00,1.29
8205.00,1.29
8204.00,1.30
8203.00,1.30
8202.00,1.31
8201.00,1.31
8200.00,1.32
8199.00,1.32
8198.00,1.33
8197.00,1.34
8196.00,1.35
8195.00,1.35
8194.00,1.36
8193.00,1.37
8192.00,1.38
8191.00,1.38
8190.00,1.39
8189.00,1.39
8188.00,1.40
8187.00,1.40
8186.00,1.40
8185.00,1.40
8184.00,1.41
8183.00,1.41
8182.00,1.41
8181.00,1.40
8180.00,1.40
8179.00,1.40
8178.00,1.40
8177.00,1.39
8176.00,1.38
8175.00,1.38
8174.00,1.37
8173.00,1.36
8172.00,1.35
8171.00,1.35
8170.00,1.34
8169.00,1.33
8168.00,1.32
8167.00,1.32
8166.00,1.31
8165.00,1.31
8164.00,1.30
8163.00,1.30
8162.00,1.29
8161.00,1.29
8160.00,1.29
8159.00,1.29
8158.00,1.29
8157.00,1.30
8156.00,1.30
8155.00,1.30
8154.00,1.31
8153.00,1.31
8152.00,1.32
8151.00,1.32
8150.00,1.32
8149.00,1.32
8148.00,1.32
8147.00,1.32
8146.00,1.31
8145.00,1.31
8144.00,1.31
8143.00,1.30
8142.00,1.30
8141.00,1.29
8140.00,1.29
8139.00,1.28
8138.00,1.28
8137.00,1.27
8136.00,1.27
8135.00,1.27
8134.00,1.26
8133.00,1.26
8132.00,1.26
8131.00,1.27
8130.00,1.27
8129.00,1.27
8128.00,1.27
8127.00,1.28
8126.00,1.28
8125.00,1.28
8124.00,1.28
8123.00,1.28
8122.00,1.28
8121.00,1.28
8120.00,1.28
8119.00,1.28
8118.00,1.28
8117.00,1.28
8116.00,1.28
8115.00,1.28
8114.00,1.28
8113.00,1.28
8112.00,1.28
8111.00,1.28
8110.00,1.28
8109.00,1.29
8108.00,1.29
8107.00,1.30
8106.00,1.30
8105.00,1.31
8104.00,1.32
8103.00,1.32
8102.00,1.33
8101.00,1.33
8100.00,1.34
8099.00,1.34
8098.00,1.34
8097.00,1.35
8096.00,1.35
8095.00,1.35
8094.00,1.35
8093.00,1.35
8092.00,1.36
8091.00,1.36
8090.00,1.36
8089.00,1.36
8088.00,1.35
8087.00,1.35
8086.00,1.35
8085.00,1.35
8084.00,1.35
8083.00,1.35
8082.00,1.35
8081.00,1.35
8080.00,1.35
8079.00,1.35
8078.00,1.35
8077.00,1.35
8076.00,1.35
8075.00,1.35
8074.00,1.35
8073.00,1.35
8072.00,1.35
8071.00,1.36
8070.00,1.36
8069.00,1.36
8068.00,1.37
8067.00,1.37
8066.00,1.38
8065.00,1.38
8064.00,1.39
8063.00,1.40
8062.00,1.40
8061.00,1.41
8060.00,1.41
8059.00,1.41
8058.00,1.42
8057.00,1.42
8056.00,1.42
8055.00,1.42
8054.00,1.42
8053.00,1.41
8052.00,1.41
8051.00,1.40
8050.00,1.39
8049.00,1.39
8048.00,1.38
8047.00,1.37
8046.00,1.36
8045.00,1.35
8044.00,1.34
8043.00,1.33
8042.00,1.32
8041.00,1.31
8040.00,1.30
8039.00,1.29
8038.00,1.29
8037.00,1.28
8036.00,1.28
8035.00,1.28
8034.00,1.27
8033.00,1.27
8032.00,1.28
8031.00,1.28
8030.00,1.28
8029.00,1.29
8028.00,1.29
8027.00,1.30
8026.00,1.31
8025.00,1.32
8024.00,1.33
8023.00,1.34
8022.00,1.35
8021.00,1.36
8020.00,1.37
8019.00,1.38
8018.00,1.39
8017.00,1.39
8016.00,1.40
8015.00,1.40
8014.00,1.41
8013.00,1.41
8012.00,1.41
8011.00,1.41
8010.00,1.41
8009.00,1.41
8008.00,1.40
8007.00,1.40
8006.00,1.39
8005.00,1.39
8004.00,1.38
8003.00,1.37
8002.00,1.36
8001.00,1.36
8000.00,1.35
7999.00,1.34
7998.00,1.34
7997.00,1.33
7996.00,1.33
7995.00,1.32
7994.00,1.32
7993.00,1.31
7992.00,1.31
7991.00,1.31
7990.00,1.31
7989.00,1.31
7988.00,1.31
7987.00,1.31
7986.00,1.31
7985.00,1.31
7984.00,1.31
7983.00,1.31
7982.00,1.31
7981.00,1.31
7980.00,1.31
7979.00,1.32
7978.00,1.32
7977.00,1.32
7976.00,1.32
7975.00,1.32
7974.00,1.33
7973.00,1.33
7972.00,1.33
7971.00,1.33
7970.00,1.33
7969.00,1.33
7968.00,1.33
7967.00,1.33
7966.00,1.33
7965.00,1.33
7964.00,1.33
7963.00,1.33
7962.00,1.33
7961.00,1.33
7960.00,1.34
7959.00,1.34
7958.00,1.34
7957.00,1.34
7956.00,1.35
7955.00,1.35
7954.00,1.36
7953.00,1.36
7952.00,1.37
7951.00,1.37
7950.00,1.37
7949.00,1.38
7948.00,1.38
7947.00,1.38
7946.00,1.39
7945.00,1.39
7944.00,1.39
7943.00,1.39
7942.00,1.39
7941.00,1.39
7940.00,1.39
7939.00,1.39
7938.00,1.38
7937.00,1.38
7936.00,1.38
7935.00,1.37
7934.00,1.37
7933.00,1.37
7932.00,1.36
7931.00,1.36
7930.00,1.36
7929.00,1.36
7928.00,1.35
7927.00,1.35
7926.00,1.35
7925.00,1.35
7924.00,1.35
7923.00,1.35
7922.00,1.35
7921.00,1.35
7920.00,1.35
7919.00,1.35
7918.00,1.35
7917.00,1.35
7916.00,1.34
7915.00,1.34
7914.00,1.34
7913.00,1.33
7912.00,1.33
7911.00,1.32
7910.00,1.32
7909.00,1.31
7908.00,1.31
7907.00,1.31
7906.00,1.30
7905.00,1.30
7904.00,1.30
7903.00,1.29
7902.00,1.29
7901.00,1.29
7900.00,1.29
7899.00,1.29
7898.00,1.29
7897.00,1.30
7896.00,1.30
7895.00,1.30
7894.00,1.31
7893.00,1.31
7892.00,1.32
7891.00,1.32
7890.00,1.33
7889.00,1.33
7888.00,1.34
7887.00,1.34
7886.00,1.35
7885.00,1.35
7884.00,1.35
7883.00,1.36
7882.00,1.36
7881.00,1.36
7880.00,1.37
7879.00,1.37
7878.00,1.37
7877.00,1.38
7876.00,1.38
7875.00,1.38
7874.00,1.39
7873.00,1.39
7872.00,1.39
7871.00,1.40
7870.00,1.40
7869.00,1.40
7868.00,1.40
7867.00,1.40
7866.00,1.40
7865.00,1.40
7864.00,1.40
7863.00,1.41
7862.00,1.40
7861.00,1.40
7860.00,1.40
7859.00,1.40
7858.00,1.40
7857.00,1.40
7856.00,1.39
7855.00,1.39
7854.00,1.39
7853.00,1.39
7852.00,1.39
7851.00,1.38
7850.00,1.38
7849.00,1.38
7848.00,1.38
7847.00,1.38
7846.00,1.37
7845.00,1.37
7844.00,1.37
7843.00,1.37
7842.00,1.36
7841.00,1.36
7840.00,1.36
7839.00,1.35
7838.00,1.35
7837.00,1.35
7836.00,1.34
7835.00,1.34
7834.00,1.34
7833.00,1.33
7832.00,1.33
7831.00,1.33
7830.00,1.32
7829.00,1.32
7828.00,1.32
7827.00,1.31
7826.00,1.31
7825.00,1.31
7824.00,1.30
7823.00,1.30
7822.00,1.30
7821.00,1.30
7820.00,1.29
7819.00,1.29
7818.00,1.29
7817.00,1.29
7816.00,1.29
7815.00,1.29
7814.00,1.29
7813.00,1.29
7812.00,1.29
7811.00,1.29
7810.00,1.29
7809.00,1.29
7808.00,1.30
7807.00,1.30
7806.00,1.30
7805.00,1.31
7804.00,1.31
7803.00,1.31
7802.00,1.31
7801.00,1.31
7800.00,1.32
7799.00,1.32
7798.00,1.32
7797.00,1.32
7796.00,1.32
7795.00,1.31
7794.00,1.31
7793.00,1.31
7792.00,1.31
7791.00,1.31
7790.00,1.31
7789.00,1.31
7788.00,1.32
7787.00,1.32
7786.00,1.32
7785.00,1.32
7784.00,1.32
7783.00,1.32
7782.00,1.32
7781.00,1.32
7780.00,1.33
7779.00,1.33
7778.00,1.33
7777.00,1.33
7776.00,1.33
7775.00,1.33
7774.00,1.33
7773.00,1.33
7772.00,1.33
7771.00,1.33
7770.00,1.33
7769.00,1.34
7768.00,1.34
7767.00,1.34
7766.00,1.34
7765.00,1.34
7764.00,1.33
7763.00,1.33
7762.00,1.33
7761.00,1.33
7760.00,1.33
7759.00,1.32
7758.00,1.32
7757.00,1.32
7756.00,1.32
7755.00,1.31
7754.00,1.31
7753.00,1.31
7752.00,1.31
7751.00,1.31
7750.00,1.31
7749.00,1.31
7748.00,1.31
7747.00,1.31
7746.00,1.32
7745.00,1.32
7744.00,1.33
7743.00,1.33
7742.00,1.34
7741.00,1.35
7740.00,1.36
7739.00,1.37
7738.00,1.37
7737.00,1.38
7736.00,1.39
7735.00,1.40
7734.00,1.40
7733.00,1.41
7732.00,1.41
7731.00,1.41
7730.00,1.42
7729.00,1.42
7728.00,1.42
7727.00,1.41
7726.00,1.41
7725.00,1.41
7724.00,1.40
7723.00,1.40
7722.00,1.40
7721.00,1.39
7720.00,1.39
7719.00,1.38
7718.00,1.38
7717.00,1.37
7716.00,1.37
7715.00,1.36
7714.00,1.36
7713.00,1.36
7712.00,1.35
7711.00,1.35
7710.00,1.35
7709.00,1.35
7708.00,1.35
7707.00,1.35
7706.00,1.35
7705.00,1.35
7704.00,1.35
7703.00,1.35
7702.00,1.35
7701.00,1.35
7700.00,1.35
7699.00,1.35
7698.00,1.35
7697.00,1.36
7696.00,1.36
7695.00,1.37
7694.00,1.37
7693.00,1.38
7692.00,1.38
7691.00,1.38
7690.00,1.39
7689.00,1.39
7688.00,1.40
7687.00,1.40
7686.00,1.40
7685.00,1.40
7684.00,1.40
7683.00,1.40
7682.00,1.40
7681.00,1.40
7680.00,1.39
7679.00,1.39
7678.00,1.38
7677.00,1.38
7676.00,1.37
7675.00,1.36
7674.00,1.36
7673.00,1.35
7672.00,1.35
7671.00,1.34
7670.00,1.34
7669.00,1.33
7668.00,1.33
7667.00,1.33
7666.00,1.33
7665.00,1.33
7664.00,1.33
7663.00,1.32
7662.00,1.32
7661.00,1.32
7660.00,1.32
7659.00,1.32
7658.00,1.32
7657.00,1.32
7656.00,1.32
7655.00,1.32
7654.00,1.32
7653.00,1.32
7652.00,1.32
7651.00,1.32
7650.00,1.31
7649.00,1.31
7648.00,1.31
7647.00,1.31
7646.00,1.31
7645.00,1.31
7644.00,1.31
7643.00,1.31
7642.00,1.31
7641.00,1.30
7640.00,1.30
7639.00,1.30
7638.00,1.30
7637.00,1.30
7636.00,1.31
7635.00,1.31
7634.00,1.31
7633.00,1.31
7632.00,1.31
7631.00,1.32
7630.00,1.32
7629.00,1.32
7628.00,1.32
7627.00,1.32
7626.00,1.33
7625.00,1.33
7624.00,1.33
7623.00,1.33
7622.00,1.33
7621.00,1.33
7620.00,1.33
7619.00,1.33
7618.00,1.33
7617.00,1.33
7616.00,1.33
7615.00,1.33
7614.00,1.33
7613.00,1.33
7612.00,1.33
7611.00,1.33
7610.00,1.33
7609.00,1.34
7608.00,1.34
7607.00,1.34
7606.00,1.34
7605.00,1.34
7604.00,1.34
7603.00,1.35
7602.00,1.35
7601.00,1.35
7600.00,1.35
7599.00,1.35
7598.00,1.35
7597.00,1.35
7596.00,1.35
7595.00,1.35
7594.00,1.35
7593.00,1.35
7592.00,1.35
7591.00,1.35
7590.00,1.35
7589.00,1.35
7588.00,1.34
7587.00,1.34
7586.00,1.34
7585.00,1.34
7584.00,1.34
7583.00,1.34
7582.00,1.35
7581.00,1.35
7580.00,1.35
7579.00,1.35
7578.00,1.35
7577.00,1.35
7576.00,1.35
7575.00,1.35
7574.00,1.35
7573.00,1.35
7572.00,1.34
7571.00,1.34
7570.00,1.34
7569.00,1.33
7568.00,1.33
7567.00,1.33
7566.00,1.33
7565.00,1.32
7564.00,1.32
7563.00,1.32
7562.00,1.31
7561.00,1.31
7560.00,1.31
7559.00,1.31
7558.00,1.31
7557.00,1.31
7556.00,1.31
7555.00,1.31
7554.00,1.31
7553.00,1.31
7552.00,1.32
7551.00,1.32
7550.00,1.32
7549.00,1.32
7548.00,1.32
7547.00,1.32
7546.00,1.32
7545.00,1.32
7544.00,1.32
7543.00,1.32
7542.00,1.32
7541.00,1.32
7540.00,1.32
7539.00,1.32
7538.00,1.32
7537.00,1.32
7536.00,1.32
7535.00,1.32
7534.00,1.32
7533.00,1.33
7532.00,1.33
7531.00,1.33
7530.00,1.34
7529.00,1.34
7528.00,1.34
7527.00,1.35
7526.00,1.35
7525.00,1.36
7524.00,1.36
7523.00,1.37
7522.00,1.37
7521.00,1.37
7520.00,1.38
7519.00,1.38
7518.00,1.38
7517.00,1.38
7516.00,1.38
7515.00,1.38
7514.00,1.38
7513.00,1.38
7512.00,1.38
7511.00,1.37
7510.00,1.37
7509.00,1.37
7508.00,1.36
7507.00,1.36
7506.00,1.35
7505.00,1.35
7504.00,1.35
7503.00,1.34
7502.00,1.34
7501.00,1.34
7500.00,1.34
7499.00,1.33
7498.00,1.33
7497.00,1.33
7496.00,1.33
7495.00,1.34
7494.00,1.34
7493.00,1.34
7492.00,1.34
7491.00,1.35
7490.00,1.35
7489.00,1.36
7488.00,1.36
7487.00,1.37
7486.00,1.37
7485.00,1.37
7484.00,1.38
7483.00,1.38
7482.00,1.38
7481.00,1.38
7480.00,1.38
7479.00,1.38
7478.00,1.38
7477.00,1.38
7476.00,1.38
7475.00,1.38
7474.00,1.38
7473.00,1.38
7472.00,1.38
7471.00,1.37
7470.00,1.37
7469.00,1.37
7468.00,1.37
7467.00,1.37
7466.00,1.37
7465.00,1.37
7464.00,1.37
7463.00,1.37
7462.00,1.37
7461.00,1.37
7460.00,1.37
7459.00,1.38
7458.00,1.38
7457.00,1.38
7456.00,1.38
7455.00,1.38
7454.00,1.38
7453.00,1.38
7452.00,1.38
7451.00,1.39
7450.00,1.39
7449.00,1.39
7448.00,1.39
7447.00,1.39
7446.00,1.39
7445.00,1.39
7444.00,1.39
7443.00,1.39
7442.00,1.39
7441.00,1.39
7440.00,1.39
7439.00,1.39
7438.00,1.39
7437.00,1.39
7436.00,1.39
7435.00,1.38
7434.00,1.38
7433.00,1.38
7432.00,1.37
7431.00,1.37
7430.00,1.37
7429.00,1.36
7428.00,1.36
7427.00,1.36
7426.00,1.35
7425.00,1.35
7424.00,1.35
7423.00,1.35
7422.00,1.35
7421.00,1.34
7420.00,1.34
7419.00,1.34
7418.00,1.34
7417.00,1.34
7416.00,1.34
7415.00,1.34
7414.00,1.34
7413.00,1.34
7412.00,1.34
7411.00,1.34
7410.00,1.33
7409.00,1.33
7408.00,1.33
7407.00,1.32
7406.00,1.32
7405.00,1.32
7404.00,1.31
7403.00,1.31
7402.00,1.30
7401.00,1.30
7400.00,1.30
7399.00,1.29
7398.00,1.29
7397.00,1.29
7396.00,1.29
7395.00,1.29
7394.00,1.29
7393.00,1.29
7392.00,1.29
7391.00,1.30
7390.00,1.30
7389.00,1.30
7388.00,1.30
7387.00,1.31
7386.00,1.31
7385.00,1.31
7384.00,1.32
7383.00,1.32
7382.00,1.32
7381.00,1.32
7380.00,1.33
7379.00,1.33
7378.00,1.33
7377.00,1.33
7376.00,1.33
7375.00,1.33
7374.00,1.33
7373.00,1.33
7372.00,1.33
7371.00,1.33
7370.00,1.33
7369.00,1.32
7368.00,1.32
7367.00,1.32
7366.00,1.31
7365.00,1.31
7364.00,1.30
7363.00,1.30
7362.00,1.29
7361.00,1.29
7360.00,1.28
7359.00,1.28
7358.00,1.27
7357.00,1.27
7356.00,1.26
7355.00,1.26
7354.00,1.25
7353.00,1.25
7352.00,1.25
7351.00,1.24
7350.00,1.24
7349.00,1.24
7348.00,1.23
7347.00,1.23
7346.00,1.23
7345.00,1.23
7344.00,1.22
7343.00,1.22
7342.00,1.22
7341.00,1.22
7340.00,1.22
7339.00,1.23
7338.00,1.23
7337.00,1.23
7336.00,1.24
7335.00,1.24
7334.00,1.25
7333.00,1.25
7332.00,1.26
7331.00,1.27
7330.00,1.28
7329.00,1.28
7328.00,1.29
7327.00,1.30
7326.00,1.30
7325.00,1.31
7324.00,1.31
7323.00,1.32
7322.00,1.32
7321.00,1.32
7320.00,1.32
7319.00,1.33
7318.00,1.33
7317.00,1.33
7316.00,1.33
7315.00,1.33
7314.00,1.34
7313.00,1.34
7312.00,1.34
7311.00,1.35
7310.00,1.35
7309.00,1.35
7308.00,1.35
7307.00,1.36
7306.00,1.36
7305.00,1.36
7304.00,1.36
7303.00,1.36
7302.00,1.36
7301.00,1.36
7300.00,1.36
7299.00,1.36
7298.00,1.35
7297.00,1.35
7296.00,1.35
7295.00,1.35
7294.00,1.34
7293.00,1.34
7292.00,1.34
7291.00,1.33
7290.00,1.33
7289.00,1.33
7288.00,1.32
7287.00,1.32
7286.00,1.32
7285.00,1.32
7284.00,1.32
7283.00,1.32
7282.00,1.32
7281.00,1.32
7280.00,1.32
7279.00,1.32
7278.00,1.32
7277.00,1.32
7276.00,1.31
7275.00,1.31
7274.00,1.31
7273.00,1.31
7272.00,1.31
7271.00,1.31
7270.00,1.31
7269.00,1.30
7268.00,1.30
7267.00,1.30
7266.00,1.30
7265.00,1.29
7264.00,1.29
7263.00,1.29
7262.00,1.29
7261.00,1.28
7260.00,1.28
7259.00,1.28
7258.00,1.28
7257.00,1.27
7256.00,1.27
7255.00,1.27
7254.00,1.27
7253.00,1.27
7252.00,1.26
7251.00,1.26
7250.00,1.26
7249.00,1.26
7248.00,1.26
7247.00,1.26
7246.00,1.26
7245.00,1.26
7244.00,1.26
7243.00,1.26
7242.00,1.26
7241.00,1.25
7240.00,1.25
7239.00,1.25
7238.00,1.25
7237.00,1.25
7236.00,1.25
7235.00,1.25
7234.00,1.25
7233.00,1.25
7232.00,1.25
7231.00,1.25
7230.00,1.25
7229.00,1.24
7228.00,1.24
7227.00,1.24
7226.00,1.24
7225.00,1.24
7224.00,1.24
7223.00,1.24
7222.00,1.24
7221.00,1.24
7220.00,1.24
7219.00,1.24
7218.00,1.24
7217.00,1.24
7216.00,1.25
7215.00,1.25
7214.00,1.25
7213.00,1.25
7212.00,1.25
7211.00,1.25
7210.00,1.25
7209.00,1.25
7208.00,1.26
7207.00,1.26
7206.00,1.26
7205.00,1.26
7204.00,1.26
7203.00,1.26
7202.00,1.26
7201.00,1.26
7200.00,1.26
7199.00,1.26
7198.00,1.26
7197.00,1.26
7196.00,1.25
7195.00,1.25
7194.00,1.25
7193.00,1.24
7192.00,1.24
7191.00,1.24
7190.00,1.24
7189.00,1.23
7188.00,1.23
7187.00,1.22
7186.00,1.22
7185.00,1.21
7184.00,1.21
7183.00,1.20
7182.00,1.19
7181.00,1.19
7180.00,1.18
7179.00,1.18
7178.00,1.17
7177.00,1.16
7176.00,1.16
7175.00,1.15
7174.00,1.15
7173.00,1.14
7172.00,1.14
7171.00,1.14
7170.00,1.14
7169.00,1.14
7168.00,1.14
7167.00,1.14
7166.00,1.14
7165.00,1.14
7164.00,1.15
7163.00,1.15
7162.00,1.16
7161.00,1.16
7160.00,1.16
7159.00,1.17
7158.00,1.17
7157.00,1.18
7156.00,1.18
7155.00,1.18
7154.00,1.19
7153.00,1.19
7152.00,1.19
7151.00,1.19
7150.00,1.19
7149.00,1.19
7148.00,1.19
7147.00,1.19
7146.00,1.19
7145.00,1.19
7144.00,1.19
7143.00,1.19
7142.00,1.19
7141.00,1.19
7140.00,1.18
7139.00,1.18
7138.00,1.18
7137.00,1.18
7136.00,1.18
7135.00,1.18
7134.00,1.18
7133.00,1.18
7132.00,1.17
7131.00,1.17
7130.00,1.17
7129.00,1.17
7128.00,1.16
7127.00,1.16
7126.00,1.15
7125.00,1.15
7124.00,1.14
7123.00,1.13
7122.00,1.13
7121.00,1.12
7120.00,1.11
7119.00,1.10
7118.00,1.09
7117.00,1.08
7116.00,1.08
7115.00,1.07
7114.00,1.06
7113.00,1.06
7112.00,1.05
7111.00,1.05
7110.00,1.04
7109.00,1.04
7108.00,1.04
7107.00,1.04
7106.00,1.04
7105.00,1.04
7104.00,1.05
7103.00,1.05
7102.00,1.05
7101.00,1.05
7100.00,1.06
7099.00,1.06
7098.00,1.06
7097.00,1.06
7096.00,1.06
7095.00,1.06
7094.00,1.06
7093.00,1.06
7092.00,1.06
7091.00,1.06
7090.00,1.05
7089.00,1.05
7088.00,1.05
7087.00,1.04
7086.00,1.04
7085.00,1.03
7084.00,1.03
7083.00,1.02
7082.00,1.02
7081.00,1.02
7080.00,1.01
7079.00,1.01
7078.00,1.01
7077.00,1.01
7076.00,1.01
7075.00,1.01
7074.00,1.01
7073.00,1.01
7072.00,1.01
7071.00,1.01
7070.00,1.01
7069.00,1.02
7068.00,1.02
7067.00,1.02
7066.00,1.03
7065.00,1.03
7064.00,1.03
7063.00,1.03
7062.00,1.04
7061.00,1.04
7060.00,1.04
7059.00,1.05
7058.00,1.05
7057.00,1.05
7056.00,1.05
7055.00,1.06
7054.00,1.06
7053.00,1.06
7052.00,1.06
7051.00,1.06
7050.00,1.06
7049.00,1.05
7048.00,1.05
7047.00,1.05
7046.00,1.04
7045.00,1.04
7044.00,1.04
7043.00,1.03
7042.00,1.02
7041.00,1.02
7040.00,1.01
7039.00,1.01
7038.00,1.00
7037.00,1.00
7036.00,1.00
7035.00,0.99
7034.00,0.99
7033.00,0.99
7032.00,0.99
7031.00,0.99
7030.00,0.99
7029.00,0.99
7028.00,0.99
7027.00,0.99
7026.00,0.99
7025.00,0.99
7024.00,0.99
7023.00,1.00
7022.00,1.00
7021.00,1.00
7020.00,1.00
7019.00,1.00
7018.00,1.01
7017.00,1.01
7016.00,1.01
7015.00,1.01
7014.00,1.01
7013.00,1.01
7012.00,1.01
7011.00,1.01
7010.00,1.01
7009.00,1.02
7008.00,1.02
7007.00,1.02
7006.00,1.02
7005.00,1.02
7004.00,1.02
7003.00,1.03
7002.00,1.03
7001.00,1.03
7000.00,1.03
6999.00,1.02
6998.00,1.02
6997.00,1.02
6996.00,1.02
6995.00,1.01
6994.00,1.01
6993.00,1.01
6992.00,1.00
6991.00,1.00
6990.00,0.99
6989.00,0.99
6988.00,0.98
6987.00,0.98
6986.00,0.97
6985.00,0.97
6984.00,0.97
6983.00,0.97
6982.00,0.97
6981.00,0.97
6980.00,0.97
6979.00,0.97
6978.00,0.98
6977.00,0.98
6976.00,0.98
6975.00,0.99
6974.00,0.99
6973.00,0.99
6972.00,1.00
6971.00,1.00
6970.00,1.01
6969.00,1.01
6968.00,1.01
6967.00,1.02
6966.00,1.02
6965.00,1.02
6964.00,1.02
6963.00,1.02
6962.00,1.02
6961.00,1.02
6960.00,1.02
6959.00,1.02
6958.00,1.02
6957.00,1.02
6956.00,1.02
6955.00,1.02
6954.00,1.02
6953.00,1.02
6952.00,1.02
6951.00,1.02
6950.00,1.01
6949.00,1.01
6948.00,1.01
6947.00,1.01
6946.00,1.00
6945.00,1.00
6944.00,1.00
6943.00,0.99
6942.00,0.99
6941.00,0.99
6940.00,0.98
6939.00,0.98
6938.00,0.98
6937.00,0.97
6936.00,0.97
6935.00,0.97
6934.00,0.97
6933.00,0.97
6932.00,0.97
6931.00,0.97
6930.00,0.97
6929.00,0.97
6928.00,0.97
6927.00,0.97
6926.00,0.97
6925.00,0.98
6924.00,0.98
6923.00,0.98
6922.00,0.98
6921.00,0.99
6920.00,0.99
6919.00,0.99
6918.00,1.00
6917.00,1.00
6916.00,1.00
6915.00,1.00
6914.00,1.01
6913.00,1.01
6912.00,1.01
6911.00,1.01
6910.00,1.02
6909.00,1.02
6908.00,1.02
6907.00,1.03
6906.00,1.03
6905.00,1.03
6904.00,1.03
6903.00,1.03
6902.00,1.03
6901.00,1.03
6900.00,1.03
6899.00,1.03
6898.00,1.03
6897.00,1.02
6896.00,1.02
6895.00,1.02
6894.00,1.01
6893.00,1.01
6892.00,1.01
6891.00,1.00
6890.00,1.00
6889.00,1.00
6888.00,0.99
6887.00,0.99
6886.00,0.99
6885.00,0.99
6884.00,0.99
6883.00,0.99
6882.00,0.99
6881.00,0.99
6880.00,0.99
6879.00,0.99
6878.00,0.99
6877.00,0.99
6876.00,0.99
6875.00,0.99
6874.00,0.99
6873.00,0.99
6872.00,0.99
6871.00,0.99
6870.00,0.99
6869.00,0.99
6868.00,0.99
6867.00,0.99
6866.00,0.99
6865.00,0.99
6864.00,1.00
6863.00,1.00
6862.00,1.00
6861.00,1.00
6860.00,1.00
6859.00,1.00
6858.00,1.00
6857.00,1.01
6856.00,1.01
6855.00,1.01
6854.00,1.01
6853.00,1.01
6852.00,1.02
6851.00,1.02
6850.00,1.02
6849.00,1.02
6848.00,1.02
6847.00,1.03
6846.00,1.03
6845.00,1.03
6844.00,1.03
6843.00,1.03
6842.00,1.03
6841.00,1.03
6840.00,1.03
6839.00,1.03
6838.00,1.03
6837.00,1.02
6836.00,1.02
6835.00,1.02
6834.00,1.01
6833.00,1.01
6832.00,1.01
6831.00,1.01
6830.00,1.00
6829.00,1.00
6828.00,1.00
6827.00,1.00
6826.00,1.00
6825.00,1.00
6824.00,1.00
6823.00,1.00
6822.00,1.00
6821.00,1.01
6820.00,1.01
6819.00,1.01
6818.00,1.01
6817.00,1.02
6816.00,1.02
6815.00,1.02
6814.00,1.02
6813.00,1.02
6812.00,1.02
6811.00,1.02
6810.00,1.02
6809.00,1.02
6808.00,1.02
6807.00,1.02
6806.00,1.02
6805.00,1.02
6804.00,1.02
6803.00,1.02
6802.00,1.02
6801.00,1.02
6800.00,1.01
6799.00,1.01
6798.00,1.01
6797.00,1.01
6796.00,1.01
6795.00,1.01
6794.00,1.01
6793.00,1.01
6792.00,1.01
6791.00,1.01
6790.00,1.01
6789.00,1.01
6788.00,1.01
6787.00,1.01
6786.00,1.01
6785.00,1.01
6784.00,1.01
6783.00,1.01
6782.00,1.01
6781.00,1.01
6780.00,1.01
6779.00,1.01
6778.00,1.01
6777.00,1.01
6776.00,1.01
6775.00,1.01
6774.00,1.01
6773.00,1.01
6772.00,1.01
6771.00,1.02
6770.00,1.02
6769.00,1.02
6768.00,1.03
6767.00,1.03
6766.00,1.03
6765.00,1.03
6764.00,1.04
6763.00,1.04
6762.00,1.04
6761.00,1.05
6760.00,1.05
6759.00,1.05
6758.00,1.05
6757.00,1.06
6756.00,1.06
6755.00,1.06
6754.00,1.05
6753.00,1.05
6752.00,1.05
6751.00,1.05
6750.00,1.05
6749.00,1.05
6748.00,1.05
6747.00,1.05
6746.00,1.04
6745.00,1.04
6744.00,1.04
6743.00,1.04
6742.00,1.04
6741.00,1.04
6740.00,1.04
6739.00,1.05
6738.00,1.05
6737.00,1.05
6736.00,1.05
6735.00,1.05
6734.00,1.06
6733.00,1.06
6732.00,1.06
6731.00,1.06
6730.00,1.06
6729.00,1.06
6728.00,1.05
6727.00,1.05
6726.00,1.05
6725.00,1.05
6724.00,1.05
6723.00,1.05
6722.00,1.04
6721.00,1.04
6720.00,1.04
6719.00,1.04
6718.00,1.04
6717.00,1.04
6716.00,1.04
6715.00,1.04
6714.00,1.04
6713.00,1.04
6712.00,1.05
6711.00,1.05
6710.00,1.05
6709.00,1.05
6708.00,1.06
6707.00,1.06
6706.00,1.06
6705.00,1.06
6704.00,1.07
6703.00,1.07
6702.00,1.07
6701.00,1.08
6700.00,1.08
6699.00,1.08
6698.00,1.08
6697.00,1.08
6696.00,1.08
6695.00,1.09
6694.00,1.09
6693.00,1.09
6692.00,1.09
6691.00,1.09
6690.00,1.09
6689.00,1.09
6688.00,1.09
6687.00,1.09
6686.00,1.09
6685.00,1.09
6684.00,1.09
6683.00,1.09
6682.00,1.08
6681.00,1.08
6680.00,1.08
6679.00,1.08
6678.00,1.08
6677.00,1.08
6676.00,1.08
6675.00,1.09
6674.00,1.09
6673.00,1.09
6672.00,1.09
6671.00,1.10
6670.00,1.10
6669.00,1.10
6668.00,1.11
6667.00,1.11
6666.00,1.11
6665.00,1.12
6664.00,1.12
6663.00,1.12
6662.00,1.13
6661.00,1.13
6660.00,1.13
6659.00,1.13
6658.00,1.13
6657.00,1.13
6656.00,1.13
6655.00,1.13
6654.00,1.13
6653.00,1.13
6652.00,1.13
6651.00,1.12
6650.00,1.12
6649.00,1.12
6648.00,1.12
6647.00,1.12
6646.00,1.12
6645.00,1.13
6644.00,1.13
6643.00,1.13
6642.00,1.13
6641.00,1.13
6640.00,1.13
6639.00,1.13
6638.00,1.13
6637.00,1.13
6636.00,1.13
6635.00,1.13
6634.00,1.13
6633.00,1.13
6632.00,1.13
6631.00,1.13
6630.00,1.13
6629.00,1.13
6628.00,1.13
6627.00,1.13
6626.00,1.13
6625.00,1.13
6624.00,1.14
6623.00,1.14
6622.00,1.14
6621.00,1.14
6620.00,1.14
6619.00,1.14
6618.00,1.14
6617.00,1.14
6616.00,1.14
6615.00,1.15
6614.00,1.15
6613.00,1.15
6612.00,1.15
6611.00,1.15
6610.00,1.15
6609.00,1.15
6608.00,1.16
6607.00,1.16
6606.00,1.16
6605.00,1.16
6604.00,1.16
6603.00,1.16
6602.00,1.16
6601.00,1.17
6600.00,1.17
6599.00,1.17
6598.00,1.17
6597.00,1.17
6596.00,1.17
6595.00,1.17
6594.00,1.18
6593.00,1.18
6592.00,1.18
6591.00,1.18
6590.00,1.18
6589.00,1.18
6588.00,1.18
6587.00,1.18
6586.00,1.18
6585.00,1.19
6584.00,1.19
6583.00,1.19
6582.00,1.19
6581.00,1.19
6580.00,1.19
6579.00,1.19
6578.00,1.19
6577.00,1.19
6576.00,1.19
6575.00,1.19
6574.00,1.19
6573.00,1.19
6572.00,1.19
6571.00,1.19
6570.00,1.18
6569.00,1.18
6568.00,1.18
6567.00,1.18
6566.00,1.18
6565.00,1.18
6564.00,1.17
6563.00,1.17
6562.00,1.17
6561.00,1.17
6560.00,1.17
6559.00,1.17
6558.00,1.17
6557.00,1.17
6556.00,1.17
6555.00,1.17
6554.00,1.17
6553.00,1.17
6552.00,1.17
6551.00,1.17
6550.00,1.17
6549.00,1.17
6548.00,1.17
6547.00,1.17
6546.00,1.17
6545.00,1.17
6544.00,1.17
6543.00,1.17
6542.00,1.17
6541.00,1.17
6540.00,1.17
6539.00,1.18
6538.00,1.18
6537.00,1.18
6536.00,1.18
6535.00,1.19
6534.00,1.19
6533.00,1.20
6532.00,1.20
6531.00,1.20
6530.00,1.21
6529.00,1.21
6528.00,1.22
6527.00,1.22
6526.00,1.23
6525.00,1.23
6524.00,1.23
6523.00,1.23
6522.00,1.24
6521.00,1.24
6520.00,1.24
6519.00,1.24
6518.00,1.24
6517.00,1.25
6516.00,1.25
6515.00,1.25
6514.00,1.25
6513.00,1.24
6512.00,1.24
6511.00,1.24
6510.00,1.24
6509.00,1.24
6508.00,1.24
6507.00,1.24
6506.00,1.24
6505.00,1.24
6504.00,1.23
6503.00,1.23
6502.00,1.23
6501.00,1.23
6500.00,1.23
6499.00,1.23
6498.00,1.23
6497.00,1.23
6496.00,1.24
6495.00,1.24
6494.00,1.24
6493.00,1.24
6492.00,1.24
6491.00,1.24
6490.00,1.24
6489.00,1.24
6488.00,1.24
6487.00,1.24
6486.00,1.24
6485.00,1.24
6484.00,1.24
6483.00,1.24
6482.00,1.24
6481.00,1.24
6480.00,1.24
6479.00,1.23
6478.00,1.23
6477.00,1.23
6476.00,1.23
6475.00,1.23
6474.00,1.23
6473.00,1.23
6472.00,1.23
6471.00,1.24
6470.00,1.24
6469.00,1.24
6468.00,1.24
6467.00,1.25
6466.00,1.25
6465.00,1.25
6464.00,1.26
6463.00,1.26
6462.00,1.27
6461.00,1.27
6460.00,1.28
6459.00,1.28
6458.00,1.29
6457.00,1.29
6456.00,1.29
6455.00,1.30
6454.00,1.30
6453.00,1.30
6452.00,1.31
6451.00,1.31
6450.00,1.31
6449.00,1.31
6448.00,1.32
6447.00,1.32
6446.00,1.32
6445.00,1.32
6444.00,1.32
6443.00,1.32
6442.00,1.31
6441.00,1.31
6440.00,1.31
6439.00,1.31
6438.00,1.30
6437.00,1.30
6436.00,1.29
6435.00,1.29
6434.00,1.29
6433.00,1.28
6432.00,1.28
6431.00,1.28
6430.00,1.27
6429.00,1.27
6428.00,1.27
6427.00,1.26
6426.00,1.26
6425.00,1.26
6424.00,1.26
6423.00,1.26
6422.00,1.26
6421.00,1.26
6420.00,1.26
6419.00,1.27
6418.00,1.27
6417.00,1.27
6416.00,1.27
6415.00,1.27
6414.00,1.27
6413.00,1.27
6412.00,1.28
6411.00,1.28
6410.00,1.28
6409.00,1.28
6408.00,1.28
6407.00,1.28
6406.00,1.28
6405.00,1.28
6404.00,1.28
6403.00,1.28
6402.00,1.28
6401.00,1.28
6400.00,1.28
6399.00,1.28
6398.00,1.28
6397.00,1.28
6396.00,1.28
6395.00,1.28
6394.00,1.28
6393.00,1.28
6392.00,1.28
6391.00,1.28
6390.00,1.28
6389.00,1.28
6388.00,1.28
6387.00,1.27
6386.00,1.27
6385.00,1.27
6384.00,1.27
6383.00,1.27
6382.00,1.27
6381.00,1.28
6380.00,1.28
6379.00,1.28
6378.00,1.28
6377.00,1.28
6376.00,1.28
6375.00,1.28
6374.00,1.29
6373.00,1.29
6372.00,1.29
6371.00,1.30
6370.00,1.30
6369.00,1.30
6368.00,1.30
6367.00,1.31
6366.00,1.31
6365.00,1.31
6364.00,1.31
6363.00,1.31
6362.00,1.31
6361.00,1.31
6360.00,1.31
6359.00,1.31
6358.00,1.31
6357.00,1.31
6356.00,1.30
6355.00,1.30
6354.00,1.30
6353.00,1.30
6352.00,1.30
6351.00,1.30
6350.00,1.30
6349.00,1.30
6348.00,1.30
6347.00,1.29
6346.00,1.29
6345.00,1.29
6344.00,1.29
6343.00,1.30
6342.00,1.30
6341.00,1.30
6340.00,1.30
6339.00,1.30
6338.00,1.30
6337.00,1.30
6336.00,1.30
6335.00,1.30
6334.00,1.30
6333.00,1.30
6332.00,1.30
6331.00,1.30
6330.00,1.31
6329.00,1.31
6328.00,1.31
6327.00,1.31
6326.00,1.31
6325.00,1.31
6324.00,1.31
6323.00,1.31
6322.00,1.31
6321.00,1.31
6320.00,1.31
6319.00,1.31
6318.00,1.31
6317.00,1.31
6316.00,1.31
6315.00,1.31
6314.00,1.31
6313.00,1.31
6312.00,1.31
6311.00,1.31
6310.00,1.31
6309.00,1.31
6308.00,1.32
6307.00,1.32
6306.00,1.32
6305.00,1.33
6304.00,1.33
6303.00,1.33
6302.00,1.34
6301.00,1.34
6300.00,1.34
6299.00,1.35
6298.00,1.35
6297.00,1.35
6296.00,1.35
6295.00,1.35
6294.00,1.35
6293.00,1.35
6292.00,1.35
6291.00,1.35
6290.00,1.35
6289.00,1.34
6288.00,1.34
6287.00,1.34
6286.00,1.33
6285.00,1.33
6284.00,1.33
6283.00,1.32
6282.00,1.32
6281.00,1.32
6280.00,1.31
6279.00,1.31
6278.00,1.31
6277.00,1.31
6276.00,1.30
6275.00,1.30
6274.00,1.30
6273.00,1.30
6272.00,1.30
6271.00,1.30
6270.00,1.30
6269.00,1.30
6268.00,1.30
6267.00,1.31
6266.00,1.31
6265.00,1.31
6264.00,1.31
6263.00,1.31
6262.00,1.32
6261.00,1.32
6260.00,1.32
6259.00,1.32
6258.00,1.33
6257.00,1.33
6256.00,1.33
6255.00,1.33
6254.00,1.34
6253.00,1.34
6252.00,1.34
6251.00,1.34
6250.00,1.35
6249.00,1.35
6248.00,1.35
6247.00,1.35
6246.00,1.36
6245.00,1.36
6244.00,1.36
6243.00,1.37
6242.00,1.37
6241.00,1.37
6240.00,1.37
6239.00,1.37
6238.00,1.38
6237.00,1.38
6236.00,1.38
6235.00,1.38
6234.00,1.38
6233.00,1.38
6232.00,1.38
6231.00,1.39
6230.00,1.39
6229.00,1.39
6228.00,1.39
6227.00,1.38
6226.00,1.38
6225.00,1.38
6224.00,1.38
6223.00,1.38
6222.00,1.38
6221.00,1.38
6220.00,1.38
6219.00,1.38
6218.00,1.37
6217.00,1.37
6216.00,1.37
6215.00,1.36
6214.00,1.36
6213.00,1.36
6212.00,1.35
6211.00,1.35
6210.00,1.35
6209.00,1.35
6208.00,1.34
6207.00,1.34
6206.00,1.34
6205.00,1.34
6204.00,1.34
6203.00,1.34
6202.00,1.34
6201.00,1.34
6200.00,1.34
6199.00,1.34
6198.00,1.34
6197.00,1.34
6196.00,1.35
6195.00,1.35
6194.00,1.35
6193.00,1.35
6192.00,1.36
6191.00,1.36
6190.00,1.36
6189.00,1.37
6188.00,1.37
6187.00,1.37
6186.00,1.38
6185.00,1.38
6184.00,1.38
6183.00,1.38
6182.00,1.38
6181.00,1.38
6180.00,1.38
6179.00,1.38
6178.00,1.38
6177.00,1.38
6176.00,1.38
6175.00,1.38
6174.00,1.37
6173.00,1.37
6172.00,1.37
6171.00,1.37
6170.00,1.36
6169.00,1.36
6168.00,1.36
6167.00,1.36
6166.00,1.36
6165.00,1.36
6164.00,1.36
6163.00,1.36
6162.00,1.36
6161.00,1.36
6160.00,1.36
6159.00,1.37
6158.00,1.37
6157.00,1.37
6156.00,1.37
6155.00,1.38
6154.00,1.38
6153.00,1.38
6152.00,1.39
6151.00,1.39
6150.00,1.39
6149.00,1.40
6148.00,1.40
6147.00,1.40
6146.00,1.41
6145.00,1.41
6144.00,1.41
6143.00,1.41
6142.00,1.41
6141.00,1.41
6140.00,1.41
6139.00,1.41
6138.00,1.41
6137.00,1.41
6136.00,1.41
6135.00,1.41
6134.00,1.41
6133.00,1.41
6132.00,1.41
6131.00,1.41
6130.00,1.41
6129.00,1.41
6128.00,1.41
6127.00,1.41
6126.00,1.41
6125.00,1.41
6124.00,1.41
6123.00,1.41
6122.00,1.41
6121.00,1.41
6120.00,1.41
6119.00,1.40
6118.00,1.40
6117.00,1.40
6116.00,1.40
6115.00,1.40
6114.00,1.39
6113.00,1.39
6112.00,1.39
6111.00,1.39
6110.00,1.39
6109.00,1.39
6108.00,1.39
6107.00,1.39
6106.00,1.39
6105.00,1.38
6104.00,1.38
6103.00,1.38
6102.00,1.38
6101.00,1.38
6100.00,1.38
6099.00,1.38
6098.00,1.38
6097.00,1.38
6096.00,1.38
6095.00,1.38
6094.00,1.38
6093.00,1.38
6092.00,1.38
6091.00,1.38
6090.00,1.38
6089.00,1.38
6088.00,1.38
6087.00,1.38
6086.00,1.38
6085.00,1.38
6084.00,1.38
6083.00,1.38
6082.00,1.38
6081.00,1.38
6080.00,1.38
6079.00,1.38
6078.00,1.38
6077.00,1.38
6076.00,1.38
6075.00,1.38
6074.00,1.38
6073.00,1.39
6072.00,1.39
6071.00,1.39
6070.00,1.39
6069.00,1.39
6068.00,1.39
6067.00,1.39
6066.00,1.40
6065.00,1.40
6064.00,1.40
6063.00,1.40
6062.00,1.40
6061.00,1.40
6060.00,1.40
6059.00,1.40
6058.00,1.40
6057.00,1.40
6056.00,1.40
6055.00,1.40
6054.00,1.40
6053.00,1.40
6052.00,1.40
6051.00,1.40
6050.00,1.40
6049.00,1.40
6048.00,1.41
6047.00,1.41
6046.00,1.41
6045.00,1.41
6044.00,1.41
6043.00,1.41
6042.00,1.41
6041.00,1.41
6040.00,1.41
6039.00,1.41
6038.00,1.41
6037.00,1.41
6036.00,1.41
6035.00,1.41
6034.00,1.41
6033.00,1.40
6032.00,1.40
6031.00,1.40
6030.00,1.40
6029.00,1.40
6028.00,1.40
6027.00,1.40
6026.00,1.40
6025.00,1.40
6024.00,1.40
6023.00,1.40
6022.00,1.41
6021.00,1.41
6020.00,1.41
6019.00,1.41
6018.00,1.41
6017.00,1.42
6016.00,1.42
6015.00,1.42
6014.00,1.42
6013.00,1.42
6012.00,1.42
6011.00,1.42
6010.00,1.42
6009.00,1.42
6008.00,1.42
6007.00,1.42
6006.00,1.42
6005.00,1.42
6004.00,1.42
6003.00,1.41
6002.00,1.41
6001.00,1.41
6000.00,1.41
5999.00,1.41
5998.00,1.41
5997.00,1.40
5996.00,1.40
5995.00,1.40
5994.00,1.40
5993.00,1.40
5992.00,1.39
5991.00,1.39
5990.00,1.39
5989.00,1.39
5988.00,1.39
5987.00,1.39
5986.00,1.39
5985.00,1.39
5984.00,1.39
5983.00,1.39
5982.00,1.39
5981.00,1.39
5980.00,1.40
5979.00,1.40
5978.00,1.40
5977.00,1.40
5976.00,1.40
5975.00,1.41
5974.00,1.41
5973.00,1.41
5972.00,1.41
5971.00,1.41
5970.00,1.41
5969.00,1.41
5968.00,1.41
5967.00,1.41
5966.00,1.41
5965.00,1.41
5964.00,1.41
5963.00,1.40
5962.00,1.40
5961.00,1.40
5960.00,1.40
5959.00,1.40
5958.00,1.39
5957.00,1.39
5956.00,1.39
5955.00,1.39
5954.00,1.39
5953.00,1.38
5952.00,1.38
5951.00,1.38
5950.00,1.38
5949.00,1.38
5948.00,1.37
5947.00,1.37
5946.00,1.37
5945.00,1.37
5944.00,1.37
5943.00,1.37
5942.00,1.37
5941.00,1.37
5940.00,1.37
5939.00,1.37
5938.00,1.37
5937.00,1.37
5936.00,1.37
5935.00,1.37
5934.00,1.38
5933.00,1.38
5932.00,1.38
5931.00,1.38
5930.00,1.38
5929.00,1.39
5928.00,1.39
5927.00,1.39
5926.00,1.39
5925.00,1.39
5924.00,1.40
5923.00,1.40
5922.00,1.40
5921.00,1.40
5920.00,1.40
5919.00,1.39
5918.00,1.39
5917.00,1.39
5916.00,1.39
5915.00,1.39
5914.00,1.39
5913.00,1.39
5912.00,1.39
5911.00,1.39
5910.00,1.39
5909.00,1.39
5908.00,1.39
5907.00,1.40
5906.00,1.40
5905.00,1.40
5904.00,1.40
5903.00,1.40
5902.00,1.40
5901.00,1.40
5900.00,1.40
5899.00,1.40
5898.00,1.40
5897.00,1.40
5896.00,1.40
5895.00,1.40
5894.00,1.39
5893.00,1.39
5892.00,1.39
5891.00,1.39
5890.00,1.38
5889.00,1.38
5888.00,1.38
5887.00,1.38
5886.00,1.37
5885.00,1.37
5884.00,1.37
5883.00,1.37
5882.00,1.36
5881.00,1.36
5880.00,1.36
5879.00,1.36
5878.00,1.36
5877.00,1.36
5876.00,1.36
5875.00,1.36
5874.00,1.36
5873.00,1.37
5872.00,1.37
5871.00,1.37
5870.00,1.37
5869.00,1.38
5868.00,1.38
5867.00,1.38
5866.00,1.39
5865.00,1.39
5864.00,1.40
5863.00,1.40
5862.00,1.40
5861.00,1.41
5860.00,1.41
5859.00,1.41
5858.00,1.42
5857.00,1.42
5856.00,1.42
5855.00,1.42
5854.00,1.43
5853.00,1.43
5852.00,1.43
5851.00,1.43
5850.00,1.43
5849.00,1.43
5848.00,1.43
5847.00,1.43
5846.00,1.43
5845.00,1.43
5844.00,1.43
5843.00,1.42
5842.00,1.42
5841.00,1.42
5840.00,1.42
5839.00,1.42
5838.00,1.42
5837.00,1.41
5836.00,1.41
5835.00,1.41
5834.00,1.41
5833.00,1.40
5832.00,1.40
5831.00,1.40
5830.00,1.40
5829.00,1.40
5828.00,1.40
5827.00,1.40
5826.00,1.39
5825.00,1.39
5824.00,1.39
5823.00,1.39
5822.00,1.39
5821.00,1.39
5820.00,1.39
5819.00,1.39
5818.00,1.39
5817.00,1.39
5816.00,1.39
5815.00,1.39
5814.00,1.39
5813.00,1.39
5812.00,1.39
5811.00,1.40
5810.00,1.40
5809.00,1.40
5808.00,1.40
5807.00,1.40
5806.00,1.40
5805.00,1.40
5804.00,1.40
5803.00,1.40
5802.00,1.41
5801.00,1.41
5800.00,1.41
5799.00,1.41
5798.00,1.41
5797.00,1.41
5796.00,1.41
5795.00,1.41
5794.00,1.41
5793.00,1.41
5792.00,1.41
5791.00,1.41
5790.00,1.41
5789.00,1.42
5788.00,1.42
5787.00,1.42
5786.00,1.42
5785.00,1.43
5784.00,1.43
5783.00,1.43
5782.00,1.43
5781.00,1.44
5780.00,1.44
5779.00,1.44
5778.00,1.44
5777.00,1.44
5776.00,1.44
5775.00,1.44
5774.00,1.44
5773.00,1.44
5772.00,1.44
5771.00,1.44
5770.00,1.43
5769.00,1.43
5768.00,1.43
5767.00,1.42
5766.00,1.42
5765.00,1.41
5764.00,1.41
5763.00,1.41
5762.00,1.40
5761.00,1.40
5760.00,1.40
5759.00,1.40
5758.00,1.39
5757.00,1.39
5756.00,1.39
5755.00,1.39
5754.00,1.39
5753.00,1.39
5752.00,1.39
5751.00,1.39
5750.00,1.39
5749.00,1.39
5748.00,1.39
5747.00,1.39
5746.00,1.39
5745.00,1.39
5744.00,1.39
5743.00,1.39
5742.00,1.39
5741.00,1.39
5740.00,1.39
5739.00,1.39
5738.00,1.39
5737.00,1.39
5736.00,1.39
5735.00,1.39
5734.00,1.39
5733.00,1.39
5732.00,1.39
5731.00,1.39
5730.00,1.39
5729.00,1.39
5728.00,1.39
5727.00,1.39
5726.00,1.39
5725.00,1.39
5724.00,1.39
5723.00,1.39
5722.00,1.39
5721.00,1.39
5720.00,1.39
5719.00,1.39
5718.00,1.39
5717.00,1.40
5716.00,1.40
5715.00,1.40
5714.00,1.40
5713.00,1.40
5712.00,1.40
5711.00,1.40
5710.00,1.40
5709.00,1.40
5708.00,1.40
5707.00,1.40
5706.00,1.40
5705.00,1.40
5704.00,1.40
5703.00,1.40
5702.00,1.40
5701.00,1.40
5700.00,1.40
5699.00,1.40
5698.00,1.40
5697.00,1.40
5696.00,1.40
5695.00,1.40
5694.00,1.40
5693.00,1.40
5692.00,1.40
5691.00,1.40
5690.00,1.40
5689.00,1.40
5688.00,1.40
5687.00,1.40
5686.00,1.40
5685.00,1.39
5684.00,1.39
5683.00,1.39
5682.00,1.39
5681.00,1.39
5680.00,1.39
5679.00,1.39
5678.00,1.39
5677.00,1.39
5676.00,1.39
5675.00,1.39
5674.00,1.38
5673.00,1.38
5672.00,1.38
5671.00,1.38
5670.00,1.38
5669.00,1.38
5668.00,1.38
5667.00,1.38
5666.00,1.38
5665.00,1.38
5664.00,1.39
5663.00,1.39
5662.00,1.39
5661.00,1.39
5660.00,1.39
5659.00,1.39
5658.00,1.39
5657.00,1.39
5656.00,1.39
5655.00,1.39
5654.00,1.39
5653.00,1.40
5652.00,1.40
5651.00,1.40
5650.00,1.40
5649.00,1.40
5648.00,1.40
5647.00,1.41
5646.00,1.41
5645.00,1.41
5644.00,1.41
5643.00,1.41
5642.00,1.41
5641.00,1.42
5640.00,1.42
5639.00,1.42
5638.00,1.42
5637.00,1.42
5636.00,1.42
5635.00,1.42
5634.00,1.42
5633.00,1.42
5632.00,1.41
5631.00,1.41
5630.00,1.41
5629.00,1.41
5628.00,1.41
5627.00,1.41
5626.00,1.41
5625.00,1.41
5624.00,1.41
5623.00,1.41
5622.00,1.41
5621.00,1.41
5620.00,1.41
5619.00,1.41
5618.00,1.41
5617.00,1.41
5616.00,1.42
5615.00,1.42
5614.00,1.42
5613.00,1.42
5612.00,1.42
5611.00,1.42
5610.00,1.41
5609.00,1.41
5608.00,1.41
5607.00,1.41
5606.00,1.41
5605.00,1.41
5604.00,1.41
5603.00,1.40
5602.00,1.40
5601.00,1.40
5600.00,1.40
5599.00,1.40
5598.00,1.39
5597.00,1.39
5596.00,1.39
5595.00,1.39
5594.00,1.39
5593.00,1.39
5592.00,1.39
5591.00,1.39
5590.00,1.40
5589.00,1.40
5588.00,1.40
5587.00,1.40
5586.00,1.40
5585.00,1.40
5584.00,1.40
5583.00,1.41
5582.00,1.41
5581.00,1.41
5580.00,1.41
5579.00,1.41
5578.00,1.41
5577.00,1.41
5576.00,1.41
5575.00,1.41
5574.00,1.41
5573.00,1.41
5572.00,1.41
5571.00,1.41
5570.00,1.41
5569.00,1.41
5568.00,1.41
5567.00,1.41
5566.00,1.41
5565.00,1.41
5564.00,1.41
5563.00,1.41
5562.00,1.41
5561.00,1.41
5560.00,1.41
5559.00,1.41
5558.00,1.40
5557.00,1.40
5556.00,1.40
5555.00,1.40
5554.00,1.40
5553.00,1.40
5552.00,1.40
5551.00,1.39
5550.00,1.39
5549.00,1.39
5548.00,1.39
5547.00,1.39
5546.00,1.39
5545.00,1.40
5544.00,1.40
5543.00,1.40
5542.00,1.40
5541.00,1.40
5540.00,1.41
5539.00,1.41
5538.00,1.41
5537.00,1.42
5536.00,1.42
5535.00,1.42
5534.00,1.43
5533.00,1.43
5532.00,1.43
5531.00,1.43
5530.00,1.43
5529.00,1.43
5528.00,1.43
5527.00,1.43
5526.00,1.43
5525.00,1.43
5524.00,1.43
5523.00,1.43
5522.00,1.43
5521.00,1.43
5520.00,1.43
5519.00,1.43
5518.00,1.42
5517.00,1.42
5516.00,1.42
5515.00,1.42
5514.00,1.42
5513.00,1.42
5512.00,1.41
5511.00,1.41
5510.00,1.41
5509.00,1.41
5508.00,1.41
5507.00,1.41
5506.00,1.41
5505.00,1.41
5504.00,1.41
5503.00,1.41
5502.00,1.41
5501.00,1.41
5500.00,1.41
5499.00,1.42
5498.00,1.42
5497.00,1.42
5496.00,1.42
5495.00,1.42
5494.00,1.42
5493.00,1.42
5492.00,1.41
5491.00,1.41
5490.00,1.41
5489.00,1.41
5488.00,1.41
5487.00,1.41
5486.00,1.41
5485.00,1.41
5484.00,1.40
5483.00,1.40
5482.00,1.40
5481.00,1.40
5480.00,1.40
5479.00,1.40
5478.00,1.40
5477.00,1.40
5476.00,1.40
5475.00,1.40
5474.00,1.40
5473.00,1.40
5472.00,1.40
5471.00,1.39
5470.00,1.39
5469.00,1.39
5468.00,1.39
5467.00,1.39
5466.00,1.39
5465.00,1.39
5464.00,1.39
5463.00,1.39
5462.00,1.39
5461.00,1.39
5460.00,1.39
5459.00,1.39
5458.00,1.39
5457.00,1.39
5456.00,1.39
5455.00,1.39
5454.00,1.39
5453.00,1.39
5452.00,1.39
5451.00,1.39
5450.00,1.39
5449.00,1.39
5448.00,1.39
5447.00,1.39
5446.00,1.39
5445.00,1.39
5444.00,1.39
5443.00,1.39
5442.00,1.39
5441.00,1.39
5440.00,1.39
5439.00,1.39
5438.00,1.38
5437.00,1.38
5436.00,1.38
5435.00,1.38
5434.00,1.38
5433.00,1.38
5432.00,1.38
5431.00,1.38
5430.00,1.38
5429.00,1.38
5428.00,1.38
5427.00,1.38
5426.00,1.38
5425.00,1.38
5424.00,1.39
5423.00,1.39
5422.00,1.39
5421.00,1.39
5420.00,1.39
5419.00,1.39
5418.00,1.39
5417.00,1.39
5416.00,1.39
5415.00,1.39
5414.00,1.38
5413.00,1.38
5412.00,1.38
5411.00,1.38
5410.00,1.37
5409.00,1.37
5408.00,1.37
5407.00,1.36
5406.00,1.36
5405.00,1.36
5404.00,1.36
5403.00,1.36
5402.00,1.36
5401.00,1.35
5400.00,1.35
5399.00,1.35
5398.00,1.35
5397.00,1.35
5396.00,1.35
5395.00,1.35
5394.00,1.35
5393.00,1.35
5392.00,1.35
5391.00,1.35
5390.00,1.35
5389.00,1.35
5388.00,1.35
5387.00,1.35
5386.00,1.35
5385.00,1.35
5384.00,1.35
5383.00,1.36
5382.00,1.36
5381.00,1.36
5380.00,1.36
5379.00,1.36
5378.00,1.36
5377.00,1.36
5376.00,1.36
5375.00,1.37
5374.00,1.37
5373.00,1.37
5372.00,1.37
5371.00,1.37
5370.00,1.37
5369.00,1.37
5368.00,1.37
5367.00,1.37
5366.00,1.36
5365.00,1.36
5364.00,1.36
5363.00,1.35
5362.00,1.35
5361.00,1.34
5360.00,1.34
5359.00,1.33
5358.00,1.32
5357.00,1.32
5356.00,1.31
5355.00,1.30
5354.00,1.29
5353.00,1.29
5352.00,1.28
5351.00,1.27
5350.00,1.27
5349.00,1.26
5348.00,1.25
5347.00,1.25
5346.00,1.24
5345.00,1.24
5344.00,1.23
5343.00,1.23
5342.00,1.22
5341.00,1.22
5340.00,1.21
5339.00,1.21
5338.00,1.21
5337.00,1.20
5336.00,1.20
5335.00,1.20
5334.00,1.19
5333.00,1.19
5332.00,1.19
5331.00,1.18
5330.00,1.18
5329.00,1.18
5328.00,1.17
5327.00,1.17
5326.00,1.17
5325.00,1.17
5324.00,1.16
5323.00,1.16
5322.00,1.15
5321.00,1.15
5320.00,1.15
5319.00,1.14
5318.00,1.14
5317.00,1.13
5316.00,1.13
5315.00,1.12
5314.00,1.12
5313.00,1.11
5312.00,1.11
5311.00,1.10
5310.00,1.09
5309.00,1.08
5308.00,1.08
5307.00,1.07
5306.00,1.06
5305.00,1.06
5304.00,1.05
5303.00,1.04
5302.00,1.04
5301.00,1.03
5300.00,1.02
5299.00,1.02
5298.00,1.01
5297.00,1.00
5296.00,1.00
5295.00,0.99
5294.00,0.99
5293.00,0.98
5292.00,0.98
5291.00,0.97
5290.00,0.96
5289.00,0.96
5288.00,0.95
5287.00,0.95
5286.00,0.94
5285.00,0.94
5284.00,0.93
5283.00,0.93
5282.00,0.92
5281.00,0.92
5280.00,0.91
5279.00,0.91
5278.00,0.91
5277.00,0.90
5276.00,0.90
5275.00,0.89
5274.00,0.89
5273.00,0.89
5272.00,0.89
5271.00,0.88
5270.00,0.88
5269.00,0.87
5268.00,0.87
5267.00,0.87
5266.00,0.86
5265.00,0.86
5264.00,0.85
5263.00,0.85
5262.00,0.84
5261.00,0.84
5260.00,0.83
5259.00,0.83
5258.00,0.83
5257.00,0.82
5256.00,0.82
5255.00,0.82
5254.00,0.82
5253.00,0.81
5252.00,0.81
5251.00,0.81
5250.00,0.81
5249.00,0.81
5248.00,0.81
5247.00,0.82
5246.00,0.82
5245.00,0.82
5244.00,0.82
5243.00,0.82
5242.00,0.82
5241.00,0.83
5240.00,0.83
5239.00,0.83
5238.00,0.83
5237.00,0.83
5236.00,0.83
5235.00,0.83
5234.00,0.83
5233.00,0.83
5232.00,0.82
5231.00,0.82
5230.00,0.82
5229.00,0.82
5228.00,0.81
5227.00,0.81
5226.00,0.81
5225.00,0.81
5224.00,0.80
5223.00,0.80
5222.00,0.80
5221.00,0.80
5220.00,0.80
5219.00,0.80
5218.00,0.79
5217.00,0.79
5216.00,0.79
5215.00,0.79
5214.00,0.79
5213.00,0.79
5212.00,0.79
5211.00,0.79
5210.00,0.79
5209.00,0.79
5208.00,0.79
5207.00,0.79
5206.00,0.79
5205.00,0.79
5204.00,0.79
5203.00,0.79
5202.00,0.79
5201.00,0.79
5200.00,0.79
5199.00,0.79
5198.00,0.79
5197.00,0.79
5196.00,0.80
5195.00,0.80
5194.00,0.80
5193.00,0.80
5192.00,0.80
5191.00,0.80
5190.00,0.80
5189.00,0.79
5188.00,0.79
5187.00,0.79
5186.00,0.79
5185.00,0.79
5184.00,0.79
5183.00,0.79
5182.00,0.79
5181.00,0.78
5180.00,0.78
5179.00,0.78
5178.00,0.78
5177.00,0.77
5176.00,0.77
5175.00,0.77
5174.00,0.77
5173.00,0.77
5172.00,0.77
5171.00,0.77
5170.00,0.77
5169.00,0.77
5168.00,0.76
5167.00,0.76
5166.00,0.76
5165.00,0.76
5164.00,0.76
5163.00,0.76
5162.00,0.77
5161.00,0.77
5160.00,0.77
5159.00,0.77
5158.00,0.77
5157.00,0.77
5156.00,0.78
5155.00,0.78
5154.00,0.78
5153.00,0.78
5152.00,0.79
5151.00,0.79
5150.00,0.79
5149.00,0.80
5148.00,0.80
5147.00,0.80
5146.00,0.80
5145.00,0.81
5144.00,0.81
5143.00,0.81
5142.00,0.81
5141.00,0.82
5140.00,0.82
5139.00,0.82
5138.00,0.82
5137.00,0.83
5136.00,0.83
5135.00,0.83
5134.00,0.83
5133.00,0.84
5132.00,0.84
5131.00,0.84
5130.00,0.84
5129.00,0.84
5128.00,0.85
5127.00,0.85
5126.00,0.85
5125.00,0.85
5124.00,0.85
5123.00,0.85
5122.00,0.85
5121.00,0.85
5120.00,0.85
5119.00,0.85
5118.00,0.85
5117.00,0.85
5116.00,0.86
5115.00,0.86
5114.00,0.86
5113.00,0.86
5112.00,0.86
5111.00,0.86
5110.00,0.86
5109.00,0.86
5108.00,0.86
5107.00,0.86
5106.00,0.86
5105.00,0.86
5104.00,0.86
5103.00,0.86
5102.00,0.86
5101.00,0.86
5100.00,0.86
5099.00,0.86
5098.00,0.86
5097.00,0.86
5096.00,0.86
5095.00,0.86
5094.00,0.86
5093.00,0.86
5092.00,0.86
5091.00,0.86
5090.00,0.86
5089.00,0.86
5088.00,0.86
5087.00,0.86
5086.00,0.87
5085.00,0.87
5084.00,0.87
5083.00,0.87
5082.00,0.88
5081.00,0.88
5080.00,0.88
5079.00,0.88
5078.00,0.88
5077.00,0.89
5076.00,0.89
5075.00,0.89
5074.00,0.89
5073.00,0.89
5072.00,0.89
5071.00,0.89
5070.00,0.89
5069.00,0.89
5068.00,0.89
5067.00,0.89
5066.00,0.89
5065.00,0.88
5064.00,0.88
5063.00,0.88
5062.00,0.88
5061.00,0.88
5060.00,0.88
5059.00,0.88
5058.00,0.88
5057.00,0.88
5056.00,0.88
5055.00,0.88
5054.00,0.89
5053.00,0.89
5052.00,0.89
5051.00,0.89
5050.00,0.89
5049.00,0.89
5048.00,0.90
5047.00,0.90
5046.00,0.90
5045.00,0.90
5044.00,0.90
5043.00,0.90
5042.00,0.90
5041.00,0.90
5040.00,0.91
5039.00,0.91
5038.00,0.91
5037.00,0.91
5036.00,0.91
5035.00,0.91
5034.00,0.91
5033.00,0.91
5032.00,0.91
5031.00,0.92
5030.00,0.92
5029.00,0.92
5028.00,0.92
5027.00,0.92
5026.00,0.93
5025.00,0.93
5024.00,0.93
5023.00,0.93
5022.00,0.94
5021.00,0.94
5020.00,0.94
5019.00,0.95
5018.00,0.95
5017.00,0.95
5016.00,0.95
5015.00,0.95
5014.00,0.96
5013.00,0.96
5012.00,0.96
5011.00,0.96
5010.00,0.97
5009.00,0.97
5008.00,0.97
5007.00,0.97
5006.00,0.98
5005.00,0.98
5004.00,0.98
5003.00,0.98
5002.00,0.99
5001.00,0.99
5000.00,0.99
4999.00,0.99
4998.00,1.00
4997.00,1.00
4996.00,1.00
4995.00,1.00
4994.00,1.01
4993.00,1.01
4992.00,1.01
4991.00,1.01
4990.00,1.01
4989.00,1.01
4988.00,1.01
4987.00,1.02
4986.00,1.02
4985.00,1.02
4984.00,1.02
4983.00,1.02
4982.00,1.02
4981.00,1.02
4980.00,1.02
4979.00,1.02
4978.00,1.02
4977.00,1.02
4976.00,1.02
4975.00,1.03
4974.00,1.03
4973.00,1.03
4972.00,1.03
4971.00,1.03
4970.00,1.03
4969.00,1.03
4968.00,1.03
4967.00,1.03
4966.00,1.03
4965.00,1.03
4964.00,1.03
4963.00,1.03
4962.00,1.03
4961.00,1.03
4960.00,1.03
4959.00,1.03
4958.00,1.03
4957.00,1.03
4956.00,1.03
4955.00,1.04
4954.00,1.04
4953.00,1.04
4952.00,1.04
4951.00,1.04
4950.00,1.04
4949.00,1.04
4948.00,1.04
4947.00,1.05
4946.00,1.05
4945.00,1.06
4944.00,1.06
4943.00,1.06
4942.00,1.07
4941.00,1.07
4940.00,1.07
4939.00,1.07
4938.00,1.08
4937.00,1.08
4936.00,1.08
4935.00,1.08
4934.00,1.09
4933.00,1.09
4932.00,1.09
4931.00,1.09
4930.00,1.09
4929.00,1.09
4928.00,1.09
4927.00,1.09
4926.00,1.09
4925.00,1.10
4924.00,1.10
4923.00,1.10
4922.00,1.10
4921.00,1.10
4920.00,1.10
4919.00,1.10
4918.00,1.10
4917.00,1.10
4916.00,1.10
4915.00,1.10
4914.00,1.10
4913.00,1.10
4912.00,1.10
4911.00,1.10
4910.00,1.10
4909.00,1.09
4908.00,1.09
4907.00,1.09
4906.00,1.09
4905.00,1.09
4904.00,1.09
4903.00,1.10
4902.00,1.10
4901.00,1.10
4900.00,1.10
4899.00,1.10
4898.00,1.10
4897.00,1.10
4896.00,1.10
4895.00,1.11
4894.00,1.11
4893.00,1.11
4892.00,1.11
4891.00,1.12
4890.00,1.12
4889.00,1.12
4888.00,1.12
4887.00,1.12
4886.00,1.12
4885.00,1.12
4884.00,1.13
4883.00,1.13
4882.00,1.13
4881.00,1.13
4880.00,1.13
4879.00,1.13
4878.00,1.14
4877.00,1.14
4876.00,1.14
4875.00,1.14
4874.00,1.14
4873.00,1.15
4872.00,1.15
4871.00,1.15
4870.00,1.16
4869.00,1.16
4868.00,1.16
4867.00,1.17
4866.00,1.17
4865.00,1.18
4864.00,1.18
4863.00,1.19
4862.00,1.19
4861.00,1.20
4860.00,1.20
4859.00,1.20
4858.00,1.21
4857.00,1.21
4856.00,1.22
4855.00,1.22
4854.00,1.22
4853.00,1.22
4852.00,1.23
4851.00,1.23
4850.00,1.23
4849.00,1.23
4848.00,1.23
4847.00,1.23
4846.00,1.22
4845.00,1.22
4844.00,1.22
4843.00,1.22
4842.00,1.22
4841.00,1.21
4840.00,1.21
4839.00,1.21
4838.00,1.21
4837.00,1.21
4836.00,1.20
4835.00,1.20
4834.00,1.20
4833.00,1.20
4832.00,1.20
4831.00,1.21
4830.00,1.21
4829.00,1.21
4828.00,1.22
4827.00,1.22
4826.00,1.22
4825.00,1.23
4824.00,1.23
4823.00,1.24
4822.00,1.24
4821.00,1.25
4820.00,1.25
4819.00,1.26
4818.00,1.26
4817.00,1.26
4816.00,1.26
4815.00,1.27
4814.00,1.27
4813.00,1.27
4812.00,1.27
4811.00,1.27
4810.00,1.26
4809.00,1.26
4808.00,1.26
4807.00,1.26
4806.00,1.26
4805.00,1.26
4804.00,1.26
4803.00,1.26
4802.00,1.26
4801.00,1.26
4800.00,1.26
4799.00,1.26
4798.00,1.26
4797.00,1.26
4796.00,1.26
4795.00,1.27
4794.00,1.27
4793.00,1.27
4792.00,1.27
4791.00,1.28
4790.00,1.28
4789.00,1.28
4788.00,1.28
4787.00,1.28
4786.00,1.28
4785.00,1.28
4784.00,1.28
4783.00,1.28
4782.00,1.29
4781.00,1.29
4780.00,1.29
4779.00,1.29
4778.00,1.29
4777.00,1.29
4776.00,1.29
4775.00,1.29
4774.00,1.29
4773.00,1.29
4772.00,1.29
4771.00,1.29
4770.00,1.29
4769.00,1.29
4768.00,1.30
4767.00,1.30
4766.00,1.30
4765.00,1.30
4764.00,1.29
4763.00,1.29
4762.00,1.29
4761.00,1.29
4760.00,1.29
4759.00,1.29
4758.00,1.29
4757.00,1.29
4756.00,1.29
4755.00,1.29
4754.00,1.29
4753.00,1.29
4752.00,1.30
4751.00,1.30
4750.00,1.30
4749.00,1.30
4748.00,1.30
4747.00,1.30
4746.00,1.30
4745.00,1.31
4744.00,1.31
4743.00,1.31
4742.00,1.31
4741.00,1.31
4740.00,1.31
4739.00,1.31
4738.00,1.31
4737.00,1.32
4736.00,1.32
4735.00,1.32
4734.00,1.32
4733.00,1.33
4732.00,1.33
4731.00,1.33
4730.00,1.33
4729.00,1.34
4728.00,1.34
4727.00,1.34
4726.00,1.35
4725.00,1.35
4724.00,1.36
4723.00,1.36
4722.00,1.36
4721.00,1.36
4720.00,1.37
4719.00,1.37
4718.00,1.37
4717.00,1.37
4716.00,1.37
4715.00,1.37
4714.00,1.37
4713.00,1.37
4712.00,1.37
4711.00,1.37
4710.00,1.37
4709.00,1.37
4708.00,1.37
4707.00,1.37
4706.00,1.37
4705.00,1.37
4704.00,1.37
4703.00,1.37
4702.00,1.37
4701.00,1.37
4700.00,1.37
4699.00,1.37
4698.00,1.37
4697.00,1.37
4696.00,1.37
4695.00,1.37
4694.00,1.37
4693.00,1.37
4692.00,1.37
4691.00,1.38
4690.00,1.38
4689.00,1.38
4688.00,1.38
4687.00,1.38
4686.00,1.39
4685.00,1.39
4684.00,1.39
4683.00,1.39
4682.00,1.39
4681.00,1.39
4680.00,1.39
4679.00,1.39
4678.00,1.39
4677.00,1.39
4676.00,1.39
4675.00,1.39
4674.00,1.39
4673.00,1.39
4672.00,1.39
4671.00,1.39
4670.00,1.39
4669.00,1.39
4668.00,1.39
4667.00,1.39
4666.00,1.39
4665.00,1.39
4664.00,1.39
4663.00,1.39
4662.00,1.39
4661.00,1.39
4660.00,1.39
4659.00,1.40
4658.00,1.40
4657.00,1.40
4656.00,1.40
4655.00,1.41
4654.00,1.41
4653.00,1.41
4652.00,1.41
4651.00,1.41
4650.00,1.41
4649.00,1.42
4648.00,1.42
4647.00,1.42
4646.00,1.42
4645.00,1.42
4644.00,1.42
4643.00,1.42
4642.00,1.42
4641.00,1.41
4640.00,1.41
4639.00,1.41
4638.00,1.41
4637.00,1.41
4636.00,1.41
4635.00,1.41
4634.00,1.41
4633.00,1.41
4632.00,1.42
4631.00,1.42
4630.00,1.42
4629.00,1.42
4628.00,1.42
4627.00,1.42
4626.00,1.42
4625.00,1.42
4624.00,1.42
4623.00,1.42
4622.00,1.42
4621.00,1.42
4620.00,1.41
4619.00,1.41
4618.00,1.41
4617.00,1.40
4616.00,1.40
4615.00,1.39
4614.00,1.39
4613.00,1.39
4612.00,1.38
4611.00,1.38
4610.00,1.37
4609.00,1.37
4608.00,1.36
4607.00,1.36
4606.00,1.36
4605.00,1.36
4604.00,1.36
4603.00,1.36
4602.00,1.36
4601.00,1.36
4600.00,1.36
4599.00,1.36
4598.00,1.36
4597.00,1.37
4596.00,1.37
4595.00,1.38
4594.00,1.38
4593.00,1.39
4592.00,1.40
4591.00,1.40
4590.00,1.41
4589.00,1.42
4588.00,1.42
4587.00,1.43
4586.00,1.43
4585.00,1.44
4584.00,1.44
4583.00,1.44
4582.00,1.45
4581.00,1.45
4580.00,1.45
4579.00,1.45
4578.00,1.45
4577.00,1.45
4576.00,1.45
4575.00,1.44
4574.00,1.44
4573.00,1.44
4572.00,1.44
4571.00,1.43
4570.00,1.43
4569.00,1.43
4568.00,1.42
4567.00,1.42
4566.00,1.42
4565.00,1.42
4564.00,1.41
4563.00,1.41
4562.00,1.41
4561.00,1.41
4560.00,1.41
4559.00,1.41
4558.00,1.41
4557.00,1.41
4556.00,1.41
4555.00,1.41
4554.00,1.41
4553.00,1.41
4552.00,1.41
4551.00,1.41
4550.00,1.42
4549.00,1.42
4548.00,1.42
4547.00,1.42
4546.00,1.42
4545.00,1.42
4544.00,1.42
4543.00,1.42
4542.00,1.42
4541.00,1.42
4540.00,1.42
4539.00,1.42
4538.00,1.42
4537.00,1.42
4536.00,1.42
4535.00,1.42
4534.00,1.41
4533.00,1.41
4532.00,1.41
4531.00,1.41
4530.00,1.41
4529.00,1.40
4528.00,1.40
4527.00,1.40
4526.00,1.40
4525.00,1.40
4524.00,1.40
4523.00,1.41
4522.00,1.41
4521.00,1.41
4520.00,1.41
4519.00,1.41
4518.00,1.41
4517.00,1.41
4516.00,1.42
4515.00,1.42
4514.00,1.42
4513.00,1.42
4512.00,1.42
4511.00,1.42
4510.00,1.43
4509.00,1.43
4508.00,1.43
4507.00,1.43
4506.00,1.43
4505.00,1.43
4504.00,1.43
4503.00,1.42
4502.00,1.42
4501.00,1.42
4500.00,1.42
4499.00,1.42
4498.00,1.42
4497.00,1.42
4496.00,1.42
4495.00,1.42
4494.00,1.42
4493.00,1.42
4492.00,1.42
4491.00,1.43
4490.00,1.43
4489.00,1.43
4488.00,1.43
4487.00,1.43
4486.00,1.44
4485.00,1.44
4484.00,1.44
4483.00,1.45
4482.00,1.45
4481.00,1.45
4480.00,1.45
4479.00,1.45
4478.00,1.45
4477.00,1.45
4476.00,1.46
4475.00,1.46
4474.00,1.46
4473.00,1.46
4472.00,1.46
4471.00,1.46
4470.00,1.45
4469.00,1.45
4468.00,1.45
4467.00,1.45
4466.00,1.45
4465.00,1.44
4464.00,1.44
4463.00,1.44
4462.00,1.44
4461.00,1.44
4460.00,1.44
4459.00,1.44
4458.00,1.43
4457.00,1.43
4456.00,1.43
4455.00,1.43
4454.00,1.43
4453.00,1.43
4452.00,1.44
4451.00,1.44
4450.00,1.44
4449.00,1.44
4448.00,1.44
4447.00,1.44
4446.00,1.44
4445.00,1.44
4444.00,1.44
4443.00,1.44
4442.00,1.44
4441.00,1.44
4440.00,1.44
4439.00,1.44
4438.00,1.43
4437.00,1.43
4436.00,1.43
4435.00,1.42
4434.00,1.42
4433.00,1.42
4432.00,1.41
4431.00,1.41
4430.00,1.40
4429.00,1.40
4428.00,1.40
4427.00,1.39
4426.00,1.39
4425.00,1.39
4424.00,1.38
4423.00,1.38
4422.00,1.38
4421.00,1.38
4420.00,1.38
4419.00,1.38
4418.00,1.38
4417.00,1.38
4416.00,1.38
4415.00,1.38
4414.00,1.38
4413.00,1.39
4412.00,1.39
4411.00,1.39
4410.00,1.40
4409.00,1.40
4408.00,1.40
4407.00,1.41
4406.00,1.41
4405.00,1.42
4404.00,1.42
4403.00,1.43
4402.00,1.43
4401.00,1.44
4400.00,1.44
4399.00,1.44
4398.00,1.45
4397.00,1.45
4396.00,1.45
4395.00,1.45
4394.00,1.45
4393.00,1.45
4392.00,1.45
4391.00,1.45
4390.00,1.45
4389.00,1.45
4388.00,1.45
4387.00,1.45
4386.00,1.45
4385.00,1.45
4384.00,1.45
4383.00,1.45
4382.00,1.45
4381.00,1.45
4380.00,1.45
4379.00,1.44
4378.00,1.44
4377.00,1.44
4376.00,1.44
4375.00,1.44
4374.00,1.44
4373.00,1.44
4372.00,1.44
4371.00,1.44
4370.00,1.43
4369.00,1.43
4368.00,1.43
4367.00,1.43
4366.00,1.42
4365.00,1.42
4364.00,1.42
4363.00,1.41
4362.00,1.41
4361.00,1.41
4360.00,1.41
4359.00,1.41
4358.00,1.40
4357.00,1.40
4356.00,1.40
4355.00,1.40
4354.00,1.40
4353.00,1.40
4352.00,1.40
4351.00,1.40
4350.00,1.40
4349.00,1.40
4348.00,1.40
4347.00,1.40
4346.00,1.40
4345.00,1.40
4344.00,1.40
4343.00,1.40
4342.00,1.40
4341.00,1.40
4340.00,1.39
4339.00,1.39
4338.00,1.39
4337.00,1.39
4336.00,1.39
4335.00,1.39
4334.00,1.39
4333.00,1.39
4332.00,1.39
4331.00,1.39
4330.00,1.39
4329.00,1.39
4328.00,1.39
4327.00,1.40
4326.00,1.40
4325.00,1.40
4324.00,1.40
4323.00,1.40
4322.00,1.40
4321.00,1.40
4320.00,1.41
4319.00,1.41
4318.00,1.41
4317.00,1.41
4316.00,1.42
4315.00,1.42
4314.00,1.42
4313.00,1.43
4312.00,1.43
4311.00,1.43
4310.00,1.43
4309.00,1.43
4308.00,1.44
4307.00,1.44
4306.00,1.44
4305.00,1.44
4304.00,1.44
4303.00,1.44
4302.00,1.44
4301.00,1.44
4300.00,1.44
4299.00,1.44
4298.00,1.44
4297.00,1.44
4296.00,1.43
4295.00,1.43
4294.00,1.43
4293.00,1.43
4292.00,1.43
4291.00,1.42
4290.00,1.42
4289.00,1.42
4288.00,1.42
4287.00,1.42
4286.00,1.42
4285.00,1.42
4284.00,1.42
4283.00,1.42
4282.00,1.43
4281.00,1.43
4280.00,1.43
4279.00,1.43
4278.00,1.43
4277.00,1.44
4276.00,1.44
4275.00,1.44
4274.00,1.44
4273.00,1.44
4272.00,1.44
4271.00,1.44
4270.00,1.44
4269.00,1.44
4268.00,1.44
4267.00,1.44
4266.00,1.44
4265.00,1.44
4264.00,1.43
4263.00,1.43
4262.00,1.43
4261.00,1.43
4260.00,1.43
4259.00,1.43
4258.00,1.44
4257.00,1.44
4256.00,1.44
4255.00,1.44
4254.00,1.44
4253.00,1.44
4252.00,1.44
4251.00,1.44
4250.00,1.44
4249.00,1.43
4248.00,1.43
4247.00,1.43
4246.00,1.43
4245.00,1.42
4244.00,1.42
4243.00,1.42
4242.00,1.41
4241.00,1.41
4240.00,1.40
4239.00,1.40
4238.00,1.39
4237.00,1.39
4236.00,1.39
4235.00,1.39
4234.00,1.38
4233.00,1.38
4232.00,1.38
4231.00,1.38
4230.00,1.38
4229.00,1.38
4228.00,1.38
4227.00,1.38
4226.00,1.39
4225.00,1.39
4224.00,1.39
4223.00,1.39
4222.00,1.40
4221.00,1.40
4220.00,1.40
4219.00,1.40
4218.00,1.40
4217.00,1.41
4216.00,1.41
4215.00,1.41
4214.00,1.41
4213.00,1.42
4212.00,1.42
4211.00,1.42
4210.00,1.42
4209.00,1.42
4208.00,1.42
4207.00,1.42
4206.00,1.42
4205.00,1.42
4204.00,1.42
4203.00,1.42
4202.00,1.42
4201.00,1.42
4200.00,1.42
4199.00,1.41
4198.00,1.41
4197.00,1.41
4196.00,1.41
4195.00,1.41
4194.00,1.41
4193.00,1.41
4192.00,1.41
4191.00,1.41
4190.00,1.41
4189.00,1.41
4188.00,1.41
4187.00,1.41
4186.00,1.41
4185.00,1.42
4184.00,1.42
4183.00,1.42
4182.00,1.42
4181.00,1.42
4180.00,1.42
4179.00,1.42
4178.00,1.41
4177.00,1.41
4176.00,1.41
4175.00,1.40
4174.00,1.40
4173.00,1.39
4172.00,1.39
4171.00,1.38
4170.00,1.38
4169.00,1.38
4168.00,1.37
4167.00,1.37
4166.00,1.36
4165.00,1.36
4164.00,1.36
4163.00,1.36
4162.00,1.36
4161.00,1.36
4160.00,1.37
4159.00,1.37
4158.00,1.37
4157.00,1.37
4156.00,1.38
4155.00,1.38
4154.00,1.38
4153.00,1.38
4152.00,1.38
4151.00,1.38
4150.00,1.39
4149.00,1.39
4148.00,1.39
4147.00,1.39
4146.00,1.39
4145.00,1.39
4144.00,1.39
4143.00,1.38
4142.00,1.38
4141.00,1.38
4140.00,1.38
4139.00,1.38
4138.00,1.38
4137.00,1.38
4136.00,1.38
4135.00,1.38
4134.00,1.38
4133.00,1.38
4132.00,1.38
4131.00,1.37
4130.00,1.37
4129.00,1.37
4128.00,1.37
4127.00,1.37
4126.00,1.37
4125.00,1.37
4124.00,1.37
4123.00,1.36
4122.00,1.36
4121.00,1.36
4120.00,1.36
4119.00,1.36
4118.00,1.36
4117.00,1.36
4116.00,1.36
4115.00,1.36
4114.00,1.36
4113.00,1.36
4112.00,1.36
4111.00,1.36
4110.00,1.36
4109.00,1.36
4108.00,1.36
4107.00,1.36
4106.00,1.36
4105.00,1.36
4104.00,1.36
4103.00,1.36
4102.00,1.36
4101.00,1.36
4100.00,1.36
4099.00,1.36
4098.00,1.35
4097.00,1.35
4096.00,1.35
4095.00,1.35
4094.00,1.35
4093.00,1.35
4092.00,1.35
4091.00,1.35
4090.00,1.35
4089.00,1.35
4088.00,1.35
4087.00,1.35
4086.00,1.35
4085.00,1.35
4084.00,1.36
4083.00,1.36
4082.00,1.37
4081.00,1.37
4080.00,1.38
4079.00,1.39
4078.00,1.39
4077.00,1.40
4076.00,1.40
4075.00,1.41
4074.00,1.41
4073.00,1.41
4072.00,1.41
4071.00,1.41
4070.00,1.41
4069.00,1.41
4068.00,1.41
4067.00,1.40
4066.00,1.40
4065.00,1.39
4064.00,1.38
4063.00,1.38
4062.00,1.37
4061.00,1.36
4060.00,1.35
4059.00,1.34
4058.00,1.34
4057.00,1.33
4056.00,1.32
4055.00,1.32
4054.00,1.32
4053.00,1.32
4052.00,1.32
4051.00,1.31
4050.00,1.31
4049.00,1.31
4048.00,1.31
4047.00,1.31
4046.00,1.31
4045.00,1.31
4044.00,1.31
4043.00,1.31
4042.00,1.31
4041.00,1.31
4040.00,1.31
4039.00,1.31
4038.00,1.31
4037.00,1.31
4036.00,1.30
4035.00,1.30
4034.00,1.30
4033.00,1.31
4032.00,1.31
4031.00,1.31
4030.00,1.32
4029.00,1.32
4028.00,1.33
4027.00,1.33
4026.00,1.34
4025.00,1.35
4024.00,1.36
4023.00,1.37
4022.00,1.38
4021.00,1.39
4020.00,1.40
4019.00,1.41
4018.00,1.42
4017.00,1.43
4016.00,1.44
4015.00,1.45
4014.00,1.46
4013.00,1.46
4012.00,1.47
4011.00,1.47
4010.00,1.47
4009.00,1.47
4008.00,1.47
4007.00,1.47
4006.00,1.47
4005.00,1.47
4004.00,1.47
4003.00,1.46
4002.00,1.46
4001.00,1.46
4000.00,1.45
