创建为新数据集,样品 929 用户 Administrator 日期 星期一, 七月 29 2019
cm-1,%T
10000.00,1.95
9999.00,1.95
9998.00,1.95
9997.00,1.95
9996.00,1.95
9995.00,1.95
9994.00,1.95
9993.00,1.94
9992.00,1.94
9991.00,1.93
9990.00,1.93
9989.00,1.92
9988.00,1.91
9987.00,1.89
9986.00,1.88
9985.00,1.86
9984.00,1.83
9983.00,1.81
9982.00,1.79
9981.00,1.76
9980.00,1.74
9979.00,1.71
9978.00,1.68
9977.00,1.66
9976.00,1.63
9975.00,1.60
9974.00,1.58
9973.00,1.55
9972.00,1.53
9971.00,1.50
9970.00,1.48
9969.00,1.46
9968.00,1.43
9967.00,1.41
9966.00,1.39
9965.00,1.37
9964.00,1.35
9963.00,1.34
9962.00,1.32
9961.00,1.30
9960.00,1.29
9959.00,1.27
9958.00,1.26
9957.00,1.25
9956.00,1.23
9955.00,1.22
9954.00,1.21
9953.00,1.21
9952.00,1.20
9951.00,1.19
9950.00,1.19
9949.00,1.18
9948.00,1.18
9947.00,1.17
9946.00,1.17
9945.00,1.16
9944.00,1.16
9943.00,1.16
9942.00,1.15
9941.00,1.15
9940.00,1.14
9939.00,1.14
9938.00,1.14
9937.00,1.14
9936.00,1.14
9935.00,1.14
9934.00,1.14
9933.00,1.15
9932.00,1.15
9931.00,1.16
9930.00,1.16
9929.00,1.17
9928.00,1.18
9927.00,1.18
9926.00,1.19
9925.00,1.19
9924.00,1.20
9923.00,1.20
9922.00,1.20
9921.00,1.21
9920.00,1.21
9919.00,1.21
9918.00,1.21
9917.00,1.21
9916.00,1.22
9915.00,1.22
9914.00,1.22
9913.00,1.22
9912.00,1.22
9911.00,1.22
9910.00,1.22
9909.00,1.22
9908.00,1.22
9907.00,1.22
9906.00,1.21
9905.00,1.21
9904.00,1.20
9903.00,1.19
9902.00,1.18
9901.00,1.17
9900.00,1.15
9899.00,1.14
9898.00,1.13
9897.00,1.12
9896.00,1.11
9895.00,1.10
9894.00,1.09
9893.00,1.08
9892.00,1.07
9891.00,1.07
9890.00,1.06
9889.00,1.06
9888.00,1.05
9887.00,1.05
9886.00,1.05
9885.00,1.04
9884.00,1.04
9883.00,1.04
9882.00,1.04
9881.00,1.05
9880.00,1.05
9879.00,1.05
9878.00,1.06
9877.00,1.07
9876.00,1.08
9875.00,1.09
9874.00,1.11
9873.00,1.12
9872.00,1.14
9871.00,1.15
9870.00,1.17
9869.00,1.19
9868.00,1.20
9867.00,1.22
9866.00,1.23
9865.00,1.25
9864.00,1.26
9863.00,1.27
9862.00,1.28
9861.00,1.29
9860.00,1.29
9859.00,1.30
9858.00,1.30
9857.00,1.31
9856.00,1.31
9855.00,1.31
9854.00,1.31
9853.00,1.31
9852.00,1.31
9851.00,1.30
9850.00,1.30
9849.00,1.29
9848.00,1.28
9847.00,1.27
9846.00,1.26
9845.00,1.25
9844.00,1.23
9843.00,1.22
9842.00,1.20
9841.00,1.18
9840.00,1.17
9839.00,1.15
9838.00,1.14
9837.00,1.12
9836.00,1.11
9835.00,1.09
9834.00,1.08
9833.00,1.07
9832.00,1.06
9831.00,1.05
9830.00,1.04
9829.00,1.03
9828.00,1.02
9827.00,1.02
9826.00,1.01
9825.00,1.00
9824.00,1.00
9823.00,0.99
9822.00,0.98
9821.00,0.98
9820.00,0.97
9819.00,0.97
9818.00,0.97
9817.00,0.96
9816.00,0.96
9815.00,0.96
9814.00,0.95
9813.00,0.95
9812.00,0.95
9811.00,0.95
9810.00,0.94
9809.00,0.94
9808.00,0.94
9807.00,0.93
9806.00,0.93
9805.00,0.92
9804.00,0.92
9803.00,0.92
9802.00,0.91
9801.00,0.91
9800.00,0.91
9799.00,0.91
9798.00,0.91
9797.00,0.91
9796.00,0.91
9795.00,0.91
9794.00,0.91
9793.00,0.92
9792.00,0.92
9791.00,0.93
9790.00,0.94
9789.00,0.94
9788.00,0.95
9787.00,0.96
9786.00,0.97
9785.00,0.98
9784.00,0.99
9783.00,1.00
9782.00,1.01
9781.00,1.02
9780.00,1.03
9779.00,1.04
9778.00,1.05
9777.00,1.06
9776.00,1.07
9775.00,1.08
9774.00,1.09
9773.00,1.09
9772.00,1.09
9771.00,1.10
9770.00,1.10
9769.00,1.10
9768.00,1.10
9767.00,1.10
9766.00,1.10
9765.00,1.10
9764.00,1.09
9763.00,1.09
9762.00,1.09
9761.00,1.09
9760.00,1.08
9759.00,1.08
9758.00,1.08
9757.00,1.07
9756.00,1.07
9755.00,1.06
9754.00,1.06
9753.00,1.05
9752.00,1.05
9751.00,1.04
9750.00,1.04
9749.00,1.04
9748.00,1.04
9747.00,1.03
9746.00,1.03
9745.00,1.04
9744.00,1.04
9743.00,1.04
9742.00,1.05
9741.00,1.05
9740.00,1.06
9739.00,1.06
9738.00,1.07
9737.00,1.08
9736.00,1.08
9735.00,1.09
9734.00,1.10
9733.00,1.10
9732.00,1.11
9731.00,1.11
9730.00,1.12
9729.00,1.13
9728.00,1.13
9727.00,1.14
9726.00,1.14
9725.00,1.15
9724.00,1.16
9723.00,1.16
9722.00,1.17
9721.00,1.17
9720.00,1.18
9719.00,1.18
9718.00,1.18
9717.00,1.18
9716.00,1.18
9715.00,1.18
9714.00,1.18
9713.00,1.18
9712.00,1.17
9711.00,1.16
9710.00,1.16
9709.00,1.15
9708.00,1.14
9707.00,1.13
9706.00,1.13
9705.00,1.12
9704.00,1.11
9703.00,1.10
9702.00,1.09
9701.00,1.08
9700.00,1.07
9699.00,1.07
9698.00,1.06
9697.00,1.05
9696.00,1.04
9695.00,1.03
9694.00,1.02
9693.00,1.01
9692.00,1.00
9691.00,1.00
9690.00,0.99
9689.00,0.98
9688.00,0.98
9687.00,0.98
9686.00,0.97
9685.00,0.97
9684.00,0.97
9683.00,0.97
9682.00,0.97
9681.00,0.97
9680.00,0.97
9679.00,0.98
9678.00,0.98
9677.00,0.98
9676.00,0.98
9675.00,0.98
9674.00,0.98
9673.00,0.99
9672.00,0.99
9671.00,0.99
9670.00,0.98
9669.00,0.98
9668.00,0.98
9667.00,0.98
9666.00,0.97
9665.00,0.97
9664.00,0.97
9663.00,0.96
9662.00,0.96
9661.00,0.96
9660.00,0.95
9659.00,0.95
9658.00,0.95
9657.00,0.94
9656.00,0.94
9655.00,0.93
9654.00,0.93
9653.00,0.92
9652.00,0.92
9651.00,0.91
9650.00,0.91
9649.00,0.91
9648.00,0.90
9647.00,0.90
9646.00,0.90
9645.00,0.91
9644.00,0.91
9643.00,0.91
9642.00,0.92
9641.00,0.92
9640.00,0.93
9639.00,0.94
9638.00,0.95
9637.00,0.95
9636.00,0.96
9635.00,0.97
9634.00,0.98
9633.00,0.99
9632.00,1.00
9631.00,1.01
9630.00,1.02
9629.00,1.03
9628.00,1.04
9627.00,1.05
9626.00,1.06
9625.00,1.07
9624.00,1.08
9623.00,1.09
9622.00,1.09
9621.00,1.10
9620.00,1.11
9619.00,1.11
9618.00,1.12
9617.00,1.12
9616.00,1.13
9615.00,1.13
9614.00,1.13
9613.00,1.13
9612.00,1.14
9611.00,1.14
9610.00,1.14
9609.00,1.14
9608.00,1.13
9607.00,1.13
9606.00,1.13
9605.00,1.13
9604.00,1.13
9603.00,1.14
9602.00,1.14
9601.00,1.14
9600.00,1.14
9599.00,1.15
9598.00,1.15
9597.00,1.16
9596.00,1.16
9595.00,1.17
9594.00,1.17
9593.00,1.18
9592.00,1.18
9591.00,1.19
9590.00,1.19
9589.00,1.20
9588.00,1.20
9587.00,1.21
9586.00,1.22
9585.00,1.22
9584.00,1.23
9583.00,1.23
9582.00,1.24
9581.00,1.25
9580.00,1.25
9579.00,1.25
9578.00,1.26
9577.00,1.26
9576.00,1.26
9575.00,1.26
9574.00,1.26
9573.00,1.25
9572.00,1.25
9571.00,1.24
9570.00,1.24
9569.00,1.24
9568.00,1.23
9567.00,1.23
9566.00,1.22
9565.00,1.22
9564.00,1.22
9563.00,1.22
9562.00,1.21
9561.00,1.21
9560.00,1.21
9559.00,1.20
9558.00,1.20
9557.00,1.19
9556.00,1.19
9555.00,1.18
9554.00,1.18
9553.00,1.17
9552.00,1.17
9551.00,1.16
9550.00,1.16
9549.00,1.15
9548.00,1.15
9547.00,1.14
9546.00,1.14
9545.00,1.14
9544.00,1.13
9543.00,1.13
9542.00,1.13
9541.00,1.13
9540.00,1.12
9539.00,1.12
9538.00,1.11
9537.00,1.11
9536.00,1.10
9535.00,1.10
9534.00,1.09
9533.00,1.09
9532.00,1.08
9531.00,1.08
9530.00,1.07
9529.00,1.07
9528.00,1.07
9527.00,1.07
9526.00,1.07
9525.00,1.06
9524.00,1.06
9523.00,1.07
9522.00,1.07
9521.00,1.07
9520.00,1.07
9519.00,1.07
9518.00,1.07
9517.00,1.08
9516.00,1.08
9515.00,1.08
9514.00,1.08
9513.00,1.08
9512.00,1.09
9511.00,1.09
9510.00,1.09
9509.00,1.10
9508.00,1.10
9507.00,1.10
9506.00,1.11
9505.00,1.11
9504.00,1.12
9503.00,1.12
9502.00,1.12
9501.00,1.13
9500.00,1.13
9499.00,1.14
9498.00,1.14
9497.00,1.14
9496.00,1.14
9495.00,1.14
9494.00,1.14
9493.00,1.14
9492.00,1.14
9491.00,1.14
9490.00,1.13
9489.00,1.13
9488.00,1.13
9487.00,1.12
9486.00,1.12
9485.00,1.11
9484.00,1.11
9483.00,1.10
9482.00,1.10
9481.00,1.09
9480.00,1.09
9479.00,1.08
9478.00,1.07
9477.00,1.07
9476.00,1.06
9475.00,1.06
9474.00,1.05
9473.00,1.05
9472.00,1.04
9471.00,1.04
9470.00,1.03
9469.00,1.03
9468.00,1.03
9467.00,1.03
9466.00,1.03
9465.00,1.03
9464.00,1.03
9463.00,1.04
9462.00,1.04
9461.00,1.04
9460.00,1.05
9459.00,1.05
9458.00,1.05
9457.00,1.06
9456.00,1.06
9455.00,1.07
9454.00,1.07
9453.00,1.07
9452.00,1.08
9451.00,1.08
9450.00,1.08
9449.00,1.09
9448.00,1.09
9447.00,1.09
9446.00,1.10
9445.00,1.10
9444.00,1.10
9443.00,1.10
9442.00,1.10
9441.00,1.10
9440.00,1.10
9439.00,1.10
9438.00,1.10
9437.00,1.09
9436.00,1.09
9435.00,1.08
9434.00,1.08
9433.00,1.07
9432.00,1.07
9431.00,1.06
9430.00,1.06
9429.00,1.05
9428.00,1.05
9427.00,1.04
9426.00,1.04
9425.00,1.04
9424.00,1.03
9423.00,1.03
9422.00,1.02
9421.00,1.02
9420.00,1.02
9419.00,1.01
9418.00,1.01
9417.00,1.01
9416.00,1.00
9415.00,1.00
9414.00,1.00
9413.00,1.00
9412.00,1.00
9411.00,1.00
9410.00,1.00
9409.00,1.01
9408.00,1.01
9407.00,1.02
9406.00,1.03
9405.00,1.03
9404.00,1.04
9403.00,1.04
9402.00,1.05
9401.00,1.06
9400.00,1.06
9399.00,1.07
9398.00,1.07
9397.00,1.08
9396.00,1.08
9395.00,1.08
9394.00,1.09
9393.00,1.09
9392.00,1.10
9391.00,1.10
9390.00,1.10
9389.00,1.10
9388.00,1.10
9387.00,1.11
9386.00,1.11
9385.00,1.11
9384.00,1.10
9383.00,1.10
9382.00,1.10
9381.00,1.10
9380.00,1.09
9379.00,1.09
9378.00,1.09
9377.00,1.08
9376.00,1.08
9375.00,1.08
9374.00,1.08
9373.00,1.07
9372.00,1.07
9371.00,1.07
9370.00,1.07
9369.00,1.06
9368.00,1.06
9367.00,1.06
9366.00,1.06
9365.00,1.05
9364.00,1.05
9363.00,1.05
9362.00,1.05
9361.00,1.05
9360.00,1.05
9359.00,1.05
9358.00,1.05
9357.00,1.05
9356.00,1.05
9355.00,1.05
9354.00,1.05
9353.00,1.05
9352.00,1.05
9351.00,1.05
9350.00,1.05
9349.00,1.05
9348.00,1.05
9347.00,1.05
9346.00,1.05
9345.00,1.05
9344.00,1.05
9343.00,1.05
9342.00,1.05
9341.00,1.05
9340.00,1.05
9339.00,1.05
9338.00,1.05
9337.00,1.05
9336.00,1.05
9335.00,1.05
9334.00,1.05
9333.00,1.05
9332.00,1.05
9331.00,1.05
9330.00,1.05
9329.00,1.05
9328.00,1.04
9327.00,1.04
9326.00,1.04
9325.00,1.04
9324.00,1.03
9323.00,1.03
9322.00,1.03
9321.00,1.03
9320.00,1.02
9319.00,1.02
9318.00,1.02
9317.00,1.02
9316.00,1.02
9315.00,1.02
9314.00,1.02
9313.00,1.03
9312.00,1.03
9311.00,1.03
9310.00,1.03
9309.00,1.04
9308.00,1.04
9307.00,1.04
9306.00,1.05
9305.00,1.05
9304.00,1.06
9303.00,1.06
9302.00,1.07
9301.00,1.08
9300.00,1.08
9299.00,1.09
9298.00,1.11
9297.00,1.12
9296.00,1.13
9295.00,1.14
9294.00,1.15
9293.00,1.16
9292.00,1.18
9291.00,1.19
9290.00,1.20
9289.00,1.21
9288.00,1.21
9287.00,1.22
9286.00,1.23
9285.00,1.24
9284.00,1.24
9283.00,1.25
9282.00,1.26
9281.00,1.26
9280.00,1.27
9279.00,1.27
9278.00,1.28
9277.00,1.28
9276.00,1.29
9275.00,1.29
9274.00,1.29
9273.00,1.29
9272.00,1.29
9271.00,1.29
9270.00,1.28
9269.00,1.28
9268.00,1.27
9267.00,1.26
9266.00,1.25
9265.00,1.24
9264.00,1.23
9263.00,1.22
9262.00,1.21
9261.00,1.20
9260.00,1.18
9259.00,1.17
9258.00,1.16
9257.00,1.15
9256.00,1.13
9255.00,1.12
9254.00,1.11
9253.00,1.10
9252.00,1.08
9251.00,1.07
9250.00,1.06
9249.00,1.05
9248.00,1.04
9247.00,1.03
9246.00,1.02
9245.00,1.01
9244.00,1.01
9243.00,1.00
9242.00,1.00
9241.00,0.99
9240.00,0.99
9239.00,0.99
9238.00,0.99
9237.00,0.99
9236.00,0.99
9235.00,0.99
9234.00,1.00
9233.00,1.00
9232.00,1.00
9231.00,1.01
9230.00,1.01
9229.00,1.02
9228.00,1.02
9227.00,1.02
9226.00,1.03
9225.00,1.03
9224.00,1.04
9223.00,1.04
9222.00,1.04
9221.00,1.05
9220.00,1.05
9219.00,1.06
9218.00,1.06
9217.00,1.06
9216.00,1.07
9215.00,1.07
9214.00,1.07
9213.00,1.07
9212.00,1.07
9211.00,1.07
9210.00,1.07
9209.00,1.07
9208.00,1.07
9207.00,1.07
9206.00,1.07
9205.00,1.06
9204.00,1.06
9203.00,1.06
9202.00,1.05
9201.00,1.05
9200.00,1.04
9199.00,1.04
9198.00,1.04
9197.00,1.03
9196.00,1.03
9195.00,1.02
9194.00,1.02
9193.00,1.02
9192.00,1.01
9191.00,1.01
9190.00,1.01
9189.00,1.00
9188.00,1.00
9187.00,1.00
9186.00,1.00
9185.00,1.00
9184.00,1.00
9183.00,1.00
9182.00,1.00
9181.00,1.00
9180.00,1.00
9179.00,1.00
9178.00,1.01
9177.00,1.01
9176.00,1.01
9175.00,1.02
9174.00,1.02
9173.00,1.03
9172.00,1.03
9171.00,1.04
9170.00,1.04
9169.00,1.05
9168.00,1.05
9167.00,1.06
9166.00,1.06
9165.00,1.06
9164.00,1.07
9163.00,1.07
9162.00,1.08
9161.00,1.08
9160.00,1.09
9159.00,1.09
9158.00,1.10
9157.00,1.10
9156.00,1.11
9155.00,1.11
9154.00,1.12
9153.00,1.12
9152.00,1.12
9151.00,1.12
9150.00,1.13
9149.00,1.13
9148.00,1.13
9147.00,1.13
9146.00,1.13
9145.00,1.13
9144.00,1.13
9143.00,1.13
9142.00,1.13
9141.00,1.13
9140.00,1.13
9139.00,1.13
9138.00,1.12
9137.00,1.12
9136.00,1.12
9135.00,1.11
9134.00,1.11
9133.00,1.10
9132.00,1.10
9131.00,1.09
9130.00,1.09
9129.00,1.08
9128.00,1.08
9127.00,1.07
9126.00,1.07
9125.00,1.07
9124.00,1.06
9123.00,1.06
9122.00,1.06
9121.00,1.06
9120.00,1.06
9119.00,1.06
9118.00,1.06
9117.00,1.07
9116.00,1.07
9115.00,1.07
9114.00,1.08
9113.00,1.08
9112.00,1.09
9111.00,1.09
9110.00,1.10
9109.00,1.11
9108.00,1.11
9107.00,1.12
9106.00,1.13
9105.00,1.13
9104.00,1.14
9103.00,1.14
9102.00,1.15
9101.00,1.15
9100.00,1.16
9099.00,1.16
9098.00,1.16
9097.00,1.17
9096.00,1.17
9095.00,1.17
9094.00,1.16
9093.00,1.16
9092.00,1.16
9091.00,1.15
9090.00,1.15
9089.00,1.14
9088.00,1.13
9087.00,1.13
9086.00,1.12
9085.00,1.11
9084.00,1.10
9083.00,1.10
9082.00,1.09
9081.00,1.08
9080.00,1.07
9079.00,1.07
9078.00,1.06
9077.00,1.05
9076.00,1.04
9075.00,1.04
9074.00,1.03
9073.00,1.02
9072.00,1.02
9071.00,1.01
9070.00,1.01
9069.00,1.01
9068.00,1.00
9067.00,1.00
9066.00,1.00
9065.00,1.00
9064.00,1.00
9063.00,1.00
9062.00,1.01
9061.00,1.01
9060.00,1.01
9059.00,1.01
9058.00,1.02
9057.00,1.02
9056.00,1.02
9055.00,1.03
9054.00,1.03
9053.00,1.04
9052.00,1.04
9051.00,1.05
9050.00,1.05
9049.00,1.06
9048.00,1.06
9047.00,1.07
9046.00,1.07
9045.00,1.07
9044.00,1.08
9043.00,1.08
9042.00,1.08
9041.00,1.09
9040.00,1.09
9039.00,1.09
9038.00,1.09
9037.00,1.09
9036.00,1.09
9035.00,1.09
9034.00,1.09
9033.00,1.10
9032.00,1.10
9031.00,1.10
9030.00,1.10
9029.00,1.11
9028.00,1.11
9027.00,1.11
9026.00,1.11
9025.00,1.11
9024.00,1.12
9023.00,1.12
9022.00,1.12
9021.00,1.12
9020.00,1.12
9019.00,1.12
9018.00,1.13
9017.00,1.13
9016.00,1.13
9015.00,1.13
9014.00,1.14
9013.00,1.14
9012.00,1.15
9011.00,1.15
9010.00,1.16
9009.00,1.16
9008.00,1.16
9007.00,1.16
9006.00,1.16
9005.00,1.16
9004.00,1.16
9003.00,1.16
9002.00,1.15
9001.00,1.15
9000.00,1.15
8999.00,1.14
8998.00,1.14
8997.00,1.14
8996.00,1.13
8995.00,1.13
8994.00,1.12
8993.00,1.12
8992.00,1.12
8991.00,1.11
8990.00,1.11
8989.00,1.10
8988.00,1.10
8987.00,1.09
8986.00,1.08
8985.00,1.08
8984.00,1.07
8983.00,1.06
8982.00,1.06
8981.00,1.05
8980.00,1.05
8979.00,1.04
8978.00,1.04
8977.00,1.04
8976.00,1.04
8975.00,1.04
8974.00,1.03
8973.00,1.03
8972.00,1.03
8971.00,1.03
8970.00,1.03
8969.00,1.03
8968.00,1.03
8967.00,1.03
8966.00,1.03
8965.00,1.03
8964.00,1.03
8963.00,1.03
8962.00,1.03
8961.00,1.03
8960.00,1.03
8959.00,1.04
8958.00,1.04
8957.00,1.04
8956.00,1.04
8955.00,1.04
8954.00,1.05
8953.00,1.05
8952.00,1.05
8951.00,1.05
8950.00,1.06
8949.00,1.06
8948.00,1.06
8947.00,1.07
8946.00,1.07
8945.00,1.07
8944.00,1.08
8943.00,1.08
8942.00,1.09
8941.00,1.09
8940.00,1.09
8939.00,1.10
8938.00,1.10
8937.00,1.10
8936.00,1.10
8935.00,1.10
8934.00,1.11
8933.00,1.11
8932.00,1.11
8931.00,1.11
8930.00,1.11
8929.00,1.11
8928.00,1.11
8927.00,1.11
8926.00,1.12
8925.00,1.12
8924.00,1.12
8923.00,1.12
8922.00,1.12
8921.00,1.12
8920.00,1.12
8919.00,1.12
8918.00,1.12
8917.00,1.12
8916.00,1.11
8915.00,1.11
8914.00,1.11
8913.00,1.11
8912.00,1.10
8911.00,1.10
8910.00,1.10
8909.00,1.10
8908.00,1.10
8907.00,1.09
8906.00,1.09
8905.00,1.09
8904.00,1.08
8903.00,1.08
8902.00,1.07
8901.00,1.07
8900.00,1.06
8899.00,1.06
8898.00,1.05
8897.00,1.05
8896.00,1.04
8895.00,1.04
8894.00,1.04
8893.00,1.03
8892.00,1.03
8891.00,1.02
8890.00,1.02
8889.00,1.02
8888.00,1.02
8887.00,1.01
8886.00,1.01
8885.00,1.01
8884.00,1.01
8883.00,1.01
8882.00,1.01
8881.00,1.01
8880.00,1.01
8879.00,1.02
8878.00,1.02
8877.00,1.02
8876.00,1.02
8875.00,1.02
8874.00,1.03
8873.00,1.03
8872.00,1.03
8871.00,1.03
8870.00,1.04
8869.00,1.04
8868.00,1.04
8867.00,1.04
8866.00,1.04
8865.00,1.04
8864.00,1.04
8863.00,1.04
8862.00,1.04
8861.00,1.04
8860.00,1.04
8859.00,1.04
8858.00,1.04
8857.00,1.04
8856.00,1.04
8855.00,1.04
8854.00,1.04
8853.00,1.04
8852.00,1.04
8851.00,1.04
8850.00,1.03
8849.00,1.03
8848.00,1.03
8847.00,1.03
8846.00,1.03
8845.00,1.03
8844.00,1.03
8843.00,1.03
8842.00,1.03
8841.00,1.03
8840.00,1.03
8839.00,1.03
8838.00,1.03
8837.00,1.03
8836.00,1.03
8835.00,1.04
8834.00,1.04
8833.00,1.04
8832.00,1.04
8831.00,1.04
8830.00,1.04
8829.00,1.04
8828.00,1.04
8827.00,1.04
8826.00,1.04
8825.00,1.04
8824.00,1.04
8823.00,1.04
8822.00,1.04
8821.00,1.04
8820.00,1.04
8819.00,1.04
8818.00,1.03
8817.00,1.03
8816.00,1.03
8815.00,1.03
8814.00,1.03
8813.00,1.02
8812.00,1.02
8811.00,1.02
8810.00,1.01
8809.00,1.01
8808.00,1.01
8807.00,1.00
8806.00,1.00
8805.00,1.00
8804.00,1.00
8803.00,0.99
8802.00,0.99
8801.00,0.99
8800.00,0.99
8799.00,0.99
8798.00,0.99
8797.00,0.99
8796.00,0.99
8795.00,0.99
8794.00,0.99
8793.00,0.99
8792.00,0.99
8791.00,0.99
8790.00,0.99
8789.00,1.00
8788.00,1.00
8787.00,1.00
8786.00,1.01
8785.00,1.01
8784.00,1.02
8783.00,1.03
8782.00,1.03
8781.00,1.03
8780.00,1.04
8779.00,1.04
8778.00,1.05
8777.00,1.05
8776.00,1.05
8775.00,1.06
8774.00,1.06
8773.00,1.06
8772.00,1.06
8771.00,1.07
8770.00,1.07
8769.00,1.07
8768.00,1.07
8767.00,1.07
8766.00,1.07
8765.00,1.07
8764.00,1.07
8763.00,1.07
8762.00,1.06
8761.00,1.06
8760.00,1.06
8759.00,1.05
8758.00,1.05
8757.00,1.05
8756.00,1.04
8755.00,1.04
8754.00,1.04
8753.00,1.04
8752.00,1.04
8751.00,1.04
8750.00,1.04
8749.00,1.04
8748.00,1.04
8747.00,1.04
8746.00,1.04
8745.00,1.04
8744.00,1.04
8743.00,1.04
8742.00,1.04
8741.00,1.05
8740.00,1.05
8739.00,1.05
8738.00,1.05
8737.00,1.05
8736.00,1.05
8735.00,1.06
8734.00,1.06
8733.00,1.06
8732.00,1.06
8731.00,1.06
8730.00,1.06
8729.00,1.06
8728.00,1.06
8727.00,1.06
8726.00,1.06
8725.00,1.06
8724.00,1.05
8723.00,1.05
8722.00,1.05
8721.00,1.05
8720.00,1.05
8719.00,1.05
8718.00,1.05
8717.00,1.05
8716.00,1.05
8715.00,1.05
8714.00,1.06
8713.00,1.06
8712.00,1.06
8711.00,1.07
8710.00,1.07
8709.00,1.07
8708.00,1.08
8707.00,1.08
8706.00,1.09
8705.00,1.09
8704.00,1.09
8703.00,1.10
8702.00,1.10
8701.00,1.11
8700.00,1.11
8699.00,1.12
8698.00,1.12
8697.00,1.13
8696.00,1.13
8695.00,1.14
8694.00,1.14
8693.00,1.14
8692.00,1.14
8691.00,1.15
8690.00,1.15
8689.00,1.15
8688.00,1.15
8687.00,1.15
8686.00,1.15
8685.00,1.14
8684.00,1.14
8683.00,1.14
8682.00,1.14
8681.00,1.13
8680.00,1.13
8679.00,1.13
8678.00,1.13
8677.00,1.13
8676.00,1.13
8675.00,1.13
8674.00,1.13
8673.00,1.12
8672.00,1.12
8671.00,1.12
8670.00,1.12
8669.00,1.12
8668.00,1.12
8667.00,1.11
8666.00,1.11
8665.00,1.11
8664.00,1.11
8663.00,1.11
8662.00,1.10
8661.00,1.10
8660.00,1.10
8659.00,1.09
8658.00,1.09
8657.00,1.09
8656.00,1.09
8655.00,1.08
8654.00,1.08
8653.00,1.08
8652.00,1.08
8651.00,1.07
8650.00,1.07
8649.00,1.06
8648.00,1.06
8647.00,1.06
8646.00,1.05
8645.00,1.05
8644.00,1.04
8643.00,1.04
8642.00,1.03
8641.00,1.03
8640.00,1.02
8639.00,1.02
8638.00,1.01
8637.00,1.01
8636.00,1.01
8635.00,1.00
8634.00,1.00
8633.00,1.00
8632.00,1.00
8631.00,1.00
8630.00,1.00
8629.00,1.00
8628.00,1.00
8627.00,1.00
8626.00,1.00
8625.00,1.00
8624.00,1.01
8623.00,1.01
8622.00,1.01
8621.00,1.02
8620.00,1.02
8619.00,1.03
8618.00,1.03
8617.00,1.03
8616.00,1.04
8615.00,1.04
8614.00,1.05
8613.00,1.05
8612.00,1.06
8611.00,1.06
8610.00,1.06
8609.00,1.07
8608.00,1.07
8607.00,1.07
8606.00,1.08
8605.00,1.08
8604.00,1.08
8603.00,1.08
8602.00,1.08
8601.00,1.08
8600.00,1.08
8599.00,1.08
8598.00,1.08
8597.00,1.08
8596.00,1.08
8595.00,1.08
8594.00,1.08
8593.00,1.08
8592.00,1.08
8591.00,1.08
8590.00,1.08
8589.00,1.08
8588.00,1.08
8587.00,1.08
8586.00,1.09
8585.00,1.09
8584.00,1.09
8583.00,1.09
8582.00,1.09
8581.00,1.09
8580.00,1.10
8579.00,1.10
8578.00,1.10
8577.00,1.10
8576.00,1.11
8575.00,1.11
8574.00,1.11
8573.00,1.11
8572.00,1.11
8571.00,1.12
8570.00,1.12
8569.00,1.12
8568.00,1.12
8567.00,1.12
8566.00,1.12
8565.00,1.12
8564.00,1.12
8563.00,1.12
8562.00,1.12
8561.00,1.12
8560.00,1.12
8559.00,1.11
8558.00,1.11
8557.00,1.11
8556.00,1.11
8555.00,1.10
8554.00,1.10
8553.00,1.09
8552.00,1.09
8551.00,1.08
8550.00,1.07
8549.00,1.07
8548.00,1.06
8547.00,1.05
8546.00,1.05
8545.00,1.04
8544.00,1.03
8543.00,1.03
8542.00,1.02
8541.00,1.01
8540.00,1.00
8539.00,1.00
8538.00,0.99
8537.00,0.99
8536.00,0.98
8535.00,0.98
8534.00,0.97
8533.00,0.97
8532.00,0.97
8531.00,0.96
8530.00,0.96
8529.00,0.96
8528.00,0.96
8527.00,0.96
8526.00,0.96
8525.00,0.96
8524.00,0.96
8523.00,0.96
8522.00,0.96
8521.00,0.97
8520.00,0.97
8519.00,0.97
8518.00,0.98
8517.00,0.98
8516.00,0.98
8515.00,0.99
8514.00,0.99
8513.00,1.00
8512.00,1.00
8511.00,1.00
8510.00,1.01
8509.00,1.01
8508.00,1.01
8507.00,1.01
8506.00,1.02
8505.00,1.02
8504.00,1.02
8503.00,1.02
8502.00,1.02
8501.00,1.02
8500.00,1.03
8499.00,1.03
8498.00,1.03
8497.00,1.03
8496.00,1.03
8495.00,1.03
8494.00,1.03
8493.00,1.03
8492.00,1.03
8491.00,1.03
8490.00,1.03
8489.00,1.03
8488.00,1.03
8487.00,1.03
8486.00,1.03
8485.00,1.03
8484.00,1.03
8483.00,1.03
8482.00,1.03
8481.00,1.03
8480.00,1.03
8479.00,1.03
8478.00,1.03
8477.00,1.03
8476.00,1.03
8475.00,1.03
8474.00,1.04
8473.00,1.04
8472.00,1.04
8471.00,1.05
8470.00,1.05
8469.00,1.06
8468.00,1.07
8467.00,1.07
8466.00,1.08
8465.00,1.09
8464.00,1.10
8463.00,1.10
8462.00,1.11
8461.00,1.12
8460.00,1.13
8459.00,1.14
8458.00,1.14
8457.00,1.15
8456.00,1.16
8455.00,1.17
8454.00,1.18
8453.00,1.19
8452.00,1.19
8451.00,1.20
8450.00,1.21
8449.00,1.21
8448.00,1.22
8447.00,1.22
8446.00,1.23
8445.00,1.23
8444.00,1.23
8443.00,1.23
8442.00,1.23
8441.00,1.22
8440.00,1.22
8439.00,1.21
8438.00,1.21
8437.00,1.21
8436.00,1.20
8435.00,1.20
8434.00,1.19
8433.00,1.19
8432.00,1.18
8431.00,1.18
8430.00,1.18
8429.00,1.17
8428.00,1.17
8427.00,1.16
8426.00,1.16
8425.00,1.15
8424.00,1.14
8423.00,1.14
8422.00,1.13
8421.00,1.13
8420.00,1.13
8419.00,1.12
8418.00,1.12
8417.00,1.12
8416.00,1.11
8415.00,1.11
8414.00,1.11
8413.00,1.11
8412.00,1.11
8411.00,1.10
8410.00,1.10
8409.00,1.10
8408.00,1.10
8407.00,1.10
8406.00,1.09
8405.00,1.09
8404.00,1.09
8403.00,1.09
8402.00,1.08
8401.00,1.08
8400.00,1.08
8399.00,1.08
8398.00,1.07
8397.00,1.07
8396.00,1.07
8395.00,1.07
8394.00,1.06
8393.00,1.06
8392.00,1.06
8391.00,1.06
8390.00,1.06
8389.00,1.06
8388.00,1.06
8387.00,1.06
8386.00,1.06
8385.00,1.07
8384.00,1.07
8383.00,1.07
8382.00,1.07
8381.00,1.08
8380.00,1.08
8379.00,1.08
8378.00,1.08
8377.00,1.09
8376.00,1.09
8375.00,1.09
8374.00,1.10
8373.00,1.10
8372.00,1.11
8371.00,1.11
8370.00,1.12
8369.00,1.12
8368.00,1.12
8367.00,1.13
8366.00,1.13
8365.00,1.14
8364.00,1.14
8363.00,1.14
8362.00,1.14
8361.00,1.14
8360.00,1.15
8359.00,1.15
8358.00,1.15
8357.00,1.15
8356.00,1.15
8355.00,1.15
8354.00,1.15
8353.00,1.14
8352.00,1.14
8351.00,1.14
8350.00,1.14
8349.00,1.14
8348.00,1.14
8347.00,1.14
8346.00,1.14
8345.00,1.14
8344.00,1.14
8343.00,1.13
8342.00,1.13
8341.00,1.13
8340.00,1.13
8339.00,1.13
8338.00,1.12
8337.00,1.12
8336.00,1.12
8335.00,1.12
8334.00,1.11
8333.00,1.11
8332.00,1.11
8331.00,1.11
8330.00,1.11
8329.00,1.11
8328.00,1.11
8327.00,1.10
8326.00,1.10
8325.00,1.10
8324.00,1.10
8323.00,1.10
8322.00,1.09
8321.00,1.09
8320.00,1.09
8319.00,1.09
8318.00,1.09
8317.00,1.08
8316.00,1.08
8315.00,1.08
8314.00,1.08
8313.00,1.08
8312.00,1.08
8311.00,1.09
8310.00,1.09
8309.00,1.09
8308.00,1.09
8307.00,1.09
8306.00,1.09
8305.00,1.09
8304.00,1.09
8303.00,1.10
8302.00,1.10
8301.00,1.10
8300.00,1.10
8299.00,1.10
8298.00,1.11
8297.00,1.11
8296.00,1.11
8295.00,1.11
8294.00,1.11
8293.00,1.12
8292.00,1.12
8291.00,1.12
8290.00,1.12
8289.00,1.12
8288.00,1.12
8287.00,1.12
8286.00,1.13
8285.00,1.13
8284.00,1.13
8283.00,1.13
8282.00,1.13
8281.00,1.13
8280.00,1.13
8279.00,1.13
8278.00,1.13
8277.00,1.13
8276.00,1.14
8275.00,1.14
8274.00,1.14
8273.00,1.14
8272.00,1.14
8271.00,1.15
8270.00,1.15
8269.00,1.15
8268.00,1.15
8267.00,1.15
8266.00,1.16
8265.00,1.16
8264.00,1.16
8263.00,1.16
8262.00,1.17
8261.00,1.17
8260.00,1.17
8259.00,1.17
8258.00,1.17
8257.00,1.17
8256.00,1.17
8255.00,1.17
8254.00,1.17
8253.00,1.17
8252.00,1.17
8251.00,1.17
8250.00,1.17
8249.00,1.17
8248.00,1.17
8247.00,1.17
8246.00,1.17
8245.00,1.16
8244.00,1.16
8243.00,1.16
8242.00,1.16
8241.00,1.16
8240.00,1.16
8239.00,1.15
8238.00,1.15
8237.00,1.15
8236.00,1.15
8235.00,1.15
8234.00,1.15
8233.00,1.15
8232.00,1.15
8231.00,1.15
8230.00,1.15
8229.00,1.16
8228.00,1.16
8227.00,1.16
8226.00,1.16
8225.00,1.17
8224.00,1.17
8223.00,1.17
8222.00,1.17
8221.00,1.17
8220.00,1.16
8219.00,1.16
8218.00,1.16
8217.00,1.16
8216.00,1.16
8215.00,1.16
8214.00,1.16
8213.00,1.15
8212.00,1.15
8211.00,1.15
8210.00,1.15
8209.00,1.15
8208.00,1.14
8207.00,1.14
8206.00,1.14
8205.00,1.13
8204.00,1.12
8203.00,1.12
8202.00,1.11
8201.00,1.10
8200.00,1.10
8199.00,1.09
8198.00,1.08
8197.00,1.08
8196.00,1.08
8195.00,1.07
8194.00,1.07
8193.00,1.07
8192.00,1.07
8191.00,1.07
8190.00,1.07
8189.00,1.07
8188.00,1.07
8187.00,1.06
8186.00,1.06
8185.00,1.06
8184.00,1.06
8183.00,1.06
8182.00,1.06
8181.00,1.06
8180.00,1.06
8179.00,1.06
8178.00,1.06
8177.00,1.06
8176.00,1.07
8175.00,1.07
8174.00,1.07
8173.00,1.07
8172.00,1.08
8171.00,1.08
8170.00,1.08
8169.00,1.08
8168.00,1.08
8167.00,1.08
8166.00,1.08
8165.00,1.09
8164.00,1.09
8163.00,1.09
8162.00,1.09
8161.00,1.09
8160.00,1.10
8159.00,1.10
8158.00,1.10
8157.00,1.11
8156.00,1.11
8155.00,1.12
8154.00,1.12
8153.00,1.13
8152.00,1.13
8151.00,1.14
8150.00,1.14
8149.00,1.15
8148.00,1.15
8147.00,1.16
8146.00,1.16
8145.00,1.17
8144.00,1.18
8143.00,1.18
8142.00,1.19
8141.00,1.19
8140.00,1.20
8139.00,1.20
8138.00,1.21
8137.00,1.21
8136.00,1.22
8135.00,1.22
8134.00,1.22
8133.00,1.23
8132.00,1.23
8131.00,1.23
8130.00,1.24
8129.00,1.24
8128.00,1.24
8127.00,1.24
8126.00,1.24
8125.00,1.25
8124.00,1.25
8123.00,1.25
8122.00,1.25
8121.00,1.25
8120.00,1.25
8119.00,1.25
8118.00,1.25
8117.00,1.25
8116.00,1.25
8115.00,1.25
8114.00,1.25
8113.00,1.25
8112.00,1.24
8111.00,1.24
8110.00,1.24
8109.00,1.24
8108.00,1.24
8107.00,1.23
8106.00,1.23
8105.00,1.23
8104.00,1.22
8103.00,1.22
8102.00,1.22
8101.00,1.21
8100.00,1.21
8099.00,1.21
8098.00,1.20
8097.00,1.20
8096.00,1.20
8095.00,1.19
8094.00,1.19
8093.00,1.19
8092.00,1.19
8091.00,1.18
8090.00,1.18
8089.00,1.18
8088.00,1.17
8087.00,1.17
8086.00,1.17
8085.00,1.17
8084.00,1.16
8083.00,1.16
8082.00,1.16
8081.00,1.16
8080.00,1.15
8079.00,1.15
8078.00,1.15
8077.00,1.15
8076.00,1.15
8075.00,1.15
8074.00,1.15
8073.00,1.15
8072.00,1.15
8071.00,1.14
8070.00,1.14
8069.00,1.14
8068.00,1.14
8067.00,1.14
8066.00,1.14
8065.00,1.14
8064.00,1.14
8063.00,1.14
8062.00,1.14
8061.00,1.14
8060.00,1.14
8059.00,1.14
8058.00,1.14
8057.00,1.14
8056.00,1.14
8055.00,1.14
8054.00,1.15
8053.00,1.15
8052.00,1.15
8051.00,1.15
8050.00,1.15
8049.00,1.15
8048.00,1.16
8047.00,1.16
8046.00,1.16
8045.00,1.16
8044.00,1.16
8043.00,1.17
8042.00,1.17
8041.00,1.17
8040.00,1.17
8039.00,1.18
8038.00,1.18
8037.00,1.18
8036.00,1.18
8035.00,1.18
8034.00,1.18
8033.00,1.19
8032.00,1.19
8031.00,1.19
8030.00,1.19
8029.00,1.19
8028.00,1.19
8027.00,1.19
8026.00,1.19
8025.00,1.19
8024.00,1.20
8023.00,1.20
8022.00,1.20
8021.00,1.20
8020.00,1.20
8019.00,1.20
8018.00,1.21
8017.00,1.21
8016.00,1.21
8015.00,1.21
8014.00,1.22
8013.00,1.22
8012.00,1.22
8011.00,1.23
8010.00,1.23
8009.00,1.23
8008.00,1.23
8007.00,1.23
8006.00,1.24
8005.00,1.24
8004.00,1.24
8003.00,1.24
8002.00,1.24
8001.00,1.25
8000.00,1.25
7999.00,1.25
7998.00,1.25
7997.00,1.25
7996.00,1.25
7995.00,1.25
7994.00,1.25
7993.00,1.25
7992.00,1.24
7991.00,1.24
7990.00,1.24
7989.00,1.24
7988.00,1.23
7987.00,1.23
7986.00,1.23
7985.00,1.23
7984.00,1.22
7983.00,1.22
7982.00,1.22
7981.00,1.22
7980.00,1.21
7979.00,1.21
7978.00,1.21
7977.00,1.21
7976.00,1.21
7975.00,1.21
7974.00,1.21
7973.00,1.21
7972.00,1.21
7971.00,1.21
7970.00,1.21
7969.00,1.21
7968.00,1.21
7967.00,1.22
7966.00,1.22
7965.00,1.22
7964.00,1.22
7963.00,1.22
7962.00,1.22
7961.00,1.23
7960.00,1.23
7959.00,1.23
7958.00,1.23
7957.00,1.23
7956.00,1.23
7955.00,1.23
7954.00,1.23
7953.00,1.23
7952.00,1.24
7951.00,1.24
7950.00,1.24
7949.00,1.24
7948.00,1.24
7947.00,1.24
7946.00,1.24
7945.00,1.24
7944.00,1.24
7943.00,1.24
7942.00,1.24
7941.00,1.23
7940.00,1.23
7939.00,1.23
7938.00,1.23
7937.00,1.23
7936.00,1.23
7935.00,1.23
7934.00,1.23
7933.00,1.23
7932.00,1.23
7931.00,1.23
7930.00,1.23
7929.00,1.23
7928.00,1.23
7927.00,1.23
7926.00,1.23
7925.00,1.23
7924.00,1.23
7923.00,1.23
7922.00,1.22
7921.00,1.22
7920.00,1.22
7919.00,1.22
7918.00,1.21
7917.00,1.21
7916.00,1.21
7915.00,1.20
7914.00,1.20
7913.00,1.20
7912.00,1.19
7911.00,1.19
7910.00,1.19
7909.00,1.18
7908.00,1.18
7907.00,1.18
7906.00,1.18
7905.00,1.18
7904.00,1.17
7903.00,1.17
7902.00,1.17
7901.00,1.17
7900.00,1.17
7899.00,1.17
7898.00,1.17
7897.00,1.17
7896.00,1.17
7895.00,1.17
7894.00,1.17
7893.00,1.17
7892.00,1.17
7891.00,1.17
7890.00,1.17
7889.00,1.18
7888.00,1.18
7887.00,1.18
7886.00,1.19
7885.00,1.19
7884.00,1.19
7883.00,1.20
7882.00,1.20
7881.00,1.21
7880.00,1.21
7879.00,1.21
7878.00,1.22
7877.00,1.22
7876.00,1.23
7875.00,1.23
7874.00,1.23
7873.00,1.24
7872.00,1.24
7871.00,1.25
7870.00,1.25
7869.00,1.26
7868.00,1.26
7867.00,1.27
7866.00,1.27
7865.00,1.28
7864.00,1.28
7863.00,1.28
7862.00,1.28
7861.00,1.29
7860.00,1.29
7859.00,1.29
7858.00,1.29
7857.00,1.29
7856.00,1.30
7855.00,1.30
7854.00,1.30
7853.00,1.30
7852.00,1.30
7851.00,1.30
7850.00,1.30
7849.00,1.30
7848.00,1.30
7847.00,1.30
7846.00,1.30
7845.00,1.30
7844.00,1.30
7843.00,1.30
7842.00,1.30
7841.00,1.30
7840.00,1.30
7839.00,1.29
7838.00,1.29
7837.00,1.29
7836.00,1.29
7835.00,1.29
7834.00,1.29
7833.00,1.29
7832.00,1.29
7831.00,1.29
7830.00,1.29
7829.00,1.29
7828.00,1.29
7827.00,1.29
7826.00,1.28
7825.00,1.28
7824.00,1.28
7823.00,1.28
7822.00,1.28
7821.00,1.28
7820.00,1.27
7819.00,1.27
7818.00,1.27
7817.00,1.27
7816.00,1.27
7815.00,1.27
7814.00,1.26
7813.00,1.26
7812.00,1.26
7811.00,1.26
7810.00,1.25
7809.00,1.25
7808.00,1.25
7807.00,1.25
7806.00,1.25
7805.00,1.24
7804.00,1.24
7803.00,1.24
7802.00,1.24
7801.00,1.24
7800.00,1.24
7799.00,1.24
7798.00,1.24
7797.00,1.24
7796.00,1.24
7795.00,1.24
7794.00,1.24
7793.00,1.24
7792.00,1.24
7791.00,1.24
7790.00,1.24
7789.00,1.24
7788.00,1.24
7787.00,1.24
7786.00,1.24
7785.00,1.25
7784.00,1.25
7783.00,1.25
7782.00,1.25
7781.00,1.26
7780.00,1.26
7779.00,1.26
7778.00,1.27
7777.00,1.27
7776.00,1.27
7775.00,1.27
7774.00,1.27
7773.00,1.28
7772.00,1.28
7771.00,1.28
7770.00,1.28
7769.00,1.29
7768.00,1.29
7767.00,1.29
7766.00,1.29
7765.00,1.29
7764.00,1.29
7763.00,1.30
7762.00,1.30
7761.00,1.30
7760.00,1.30
7759.00,1.30
7758.00,1.30
7757.00,1.30
7756.00,1.30
7755.00,1.30
7754.00,1.30
7753.00,1.30
7752.00,1.30
7751.00,1.30
7750.00,1.30
7749.00,1.30
7748.00,1.30
7747.00,1.30
7746.00,1.30
7745.00,1.30
7744.00,1.30
7743.00,1.30
7742.00,1.30
7741.00,1.30
7740.00,1.30
7739.00,1.31
7738.00,1.31
7737.00,1.31
7736.00,1.31
7735.00,1.31
7734.00,1.31
7733.00,1.31
7732.00,1.31
7731.00,1.32
7730.00,1.32
7729.00,1.32
7728.00,1.32
7727.00,1.32
7726.00,1.32
7725.00,1.32
7724.00,1.32
7723.00,1.32
7722.00,1.32
7721.00,1.32
7720.00,1.32
7719.00,1.32
7718.00,1.32
7717.00,1.32
7716.00,1.31
7715.00,1.31
7714.00,1.31
7713.00,1.31
7712.00,1.30
7711.00,1.30
7710.00,1.30
7709.00,1.29
7708.00,1.29
7707.00,1.29
7706.00,1.28
7705.00,1.28
7704.00,1.28
7703.00,1.27
7702.00,1.27
7701.00,1.27
7700.00,1.27
7699.00,1.27
7698.00,1.27
7697.00,1.26
7696.00,1.26
7695.00,1.26
7694.00,1.26
7693.00,1.26
7692.00,1.26
7691.00,1.26
7690.00,1.26
7689.00,1.26
7688.00,1.27
7687.00,1.27
7686.00,1.27
7685.00,1.28
7684.00,1.28
7683.00,1.28
7682.00,1.29
7681.00,1.29
7680.00,1.30
7679.00,1.31
7678.00,1.31
7677.00,1.32
7676.00,1.32
7675.00,1.33
7674.00,1.33
7673.00,1.34
7672.00,1.34
7671.00,1.34
7670.00,1.35
7669.00,1.35
7668.00,1.35
7667.00,1.36
7666.00,1.36
7665.00,1.36
7664.00,1.36
7663.00,1.36
7662.00,1.36
7661.00,1.36
7660.00,1.36
7659.00,1.36
7658.00,1.36
7657.00,1.36
7656.00,1.36
7655.00,1.36
7654.00,1.36
7653.00,1.36
7652.00,1.35
7651.00,1.35
7650.00,1.35
7649.00,1.35
7648.00,1.35
7647.00,1.35
7646.00,1.35
7645.00,1.35
7644.00,1.35
7643.00,1.35
7642.00,1.34
7641.00,1.34
7640.00,1.34
7639.00,1.34
7638.00,1.34
7637.00,1.34
7636.00,1.34
7635.00,1.34
7634.00,1.34
7633.00,1.34
7632.00,1.34
7631.00,1.33
7630.00,1.33
7629.00,1.33
7628.00,1.33
7627.00,1.33
7626.00,1.33
7625.00,1.32
7624.00,1.32
7623.00,1.32
7622.00,1.31
7621.00,1.31
7620.00,1.30
7619.00,1.30
7618.00,1.30
7617.00,1.29
7616.00,1.29
7615.00,1.29
7614.00,1.29
7613.00,1.28
7612.00,1.28
7611.00,1.28
7610.00,1.28
7609.00,1.28
7608.00,1.28
7607.00,1.28
7606.00,1.28
7605.00,1.28
7604.00,1.28
7603.00,1.28
7602.00,1.28
7601.00,1.28
7600.00,1.28
7599.00,1.28
7598.00,1.28
7597.00,1.29
7596.00,1.29
7595.00,1.30
7594.00,1.30
7593.00,1.30
7592.00,1.31
7591.00,1.31
7590.00,1.31
7589.00,1.32
7588.00,1.32
7587.00,1.32
7586.00,1.32
7585.00,1.32
7584.00,1.32
7583.00,1.32
7582.00,1.32
7581.00,1.32
7580.00,1.32
7579.00,1.32
7578.00,1.32
7577.00,1.32
7576.00,1.32
7575.00,1.32
7574.00,1.32
7573.00,1.32
7572.00,1.32
7571.00,1.32
7570.00,1.31
7569.00,1.31
7568.00,1.31
7567.00,1.31
7566.00,1.31
7565.00,1.31
7564.00,1.31
7563.00,1.31
7562.00,1.31
7561.00,1.31
7560.00,1.31
7559.00,1.32
7558.00,1.32
7557.00,1.32
7556.00,1.32
7555.00,1.32
7554.00,1.32
7553.00,1.33
7552.00,1.33
7551.00,1.33
7550.00,1.33
7549.00,1.33
7548.00,1.33
7547.00,1.34
7546.00,1.34
7545.00,1.34
7544.00,1.34
7543.00,1.34
7542.00,1.34
7541.00,1.34
7540.00,1.34
7539.00,1.34
7538.00,1.34
7537.00,1.34
7536.00,1.34
7535.00,1.34
7534.00,1.34
7533.00,1.33
7532.00,1.33
7531.00,1.33
7530.00,1.33
7529.00,1.33
7528.00,1.32
7527.00,1.32
7526.00,1.32
7525.00,1.32
7524.00,1.32
7523.00,1.32
7522.00,1.31
7521.00,1.31
7520.00,1.31
7519.00,1.31
7518.00,1.31
7517.00,1.30
7516.00,1.30
7515.00,1.30
7514.00,1.30
7513.00,1.29
7512.00,1.29
7511.00,1.29
7510.00,1.29
7509.00,1.29
7508.00,1.29
7507.00,1.29
7506.00,1.29
7505.00,1.29
7504.00,1.28
7503.00,1.28
7502.00,1.28
7501.00,1.28
7500.00,1.28
7499.00,1.28
7498.00,1.28
7497.00,1.28
7496.00,1.28
7495.00,1.27
7494.00,1.27
7493.00,1.27
7492.00,1.27
7491.00,1.27
7490.00,1.27
7489.00,1.27
7488.00,1.27
7487.00,1.27
7486.00,1.27
7485.00,1.27
7484.00,1.27
7483.00,1.27
7482.00,1.27
7481.00,1.27
7480.00,1.26
7479.00,1.26
7478.00,1.26
7477.00,1.26
7476.00,1.26
7475.00,1.26
7474.00,1.26
7473.00,1.26
7472.00,1.26
7471.00,1.26
7470.00,1.26
7469.00,1.26
7468.00,1.26
7467.00,1.26
7466.00,1.26
7465.00,1.26
7464.00,1.26
7463.00,1.26
7462.00,1.26
7461.00,1.26
7460.00,1.26
7459.00,1.26
7458.00,1.26
7457.00,1.26
7456.00,1.26
7455.00,1.26
7454.00,1.27
7453.00,1.27
7452.00,1.27
7451.00,1.27
7450.00,1.27
7449.00,1.28
7448.00,1.28
7447.00,1.28
7446.00,1.29
7445.00,1.29
7444.00,1.29
7443.00,1.29
7442.00,1.30
7441.00,1.30
7440.00,1.30
7439.00,1.30
7438.00,1.30
7437.00,1.31
7436.00,1.31
7435.00,1.31
7434.00,1.31
7433.00,1.31
7432.00,1.31
7431.00,1.31
7430.00,1.31
7429.00,1.31
7428.00,1.31
7427.00,1.31
7426.00,1.31
7425.00,1.31
7424.00,1.31
7423.00,1.31
7422.00,1.31
7421.00,1.31
7420.00,1.31
7419.00,1.30
7418.00,1.30
7417.00,1.30
7416.00,1.30
7415.00,1.30
7414.00,1.29
7413.00,1.29
7412.00,1.29
7411.00,1.29
7410.00,1.28
7409.00,1.28
7408.00,1.28
7407.00,1.28
7406.00,1.27
7405.00,1.27
7404.00,1.27
7403.00,1.27
7402.00,1.27
7401.00,1.26
7400.00,1.26
7399.00,1.26
7398.00,1.26
7397.00,1.26
7396.00,1.25
7395.00,1.25
7394.00,1.25
7393.00,1.24
7392.00,1.24
7391.00,1.24
7390.00,1.24
7389.00,1.23
7388.00,1.23
7387.00,1.23
7386.00,1.23
7385.00,1.23
7384.00,1.23
7383.00,1.23
7382.00,1.23
7381.00,1.22
7380.00,1.22
7379.00,1.22
7378.00,1.22
7377.00,1.22
7376.00,1.22
7375.00,1.22
7374.00,1.22
7373.00,1.22
7372.00,1.22
7371.00,1.22
7370.00,1.22
7369.00,1.22
7368.00,1.22
7367.00,1.22
7366.00,1.22
7365.00,1.22
7364.00,1.22
7363.00,1.22
7362.00,1.22
7361.00,1.22
7360.00,1.22
7359.00,1.22
7358.00,1.22
7357.00,1.22
7356.00,1.22
7355.00,1.22
7354.00,1.22
7353.00,1.21
7352.00,1.21
7351.00,1.21
7350.00,1.21
7349.00,1.21
7348.00,1.20
7347.00,1.20
7346.00,1.20
7345.00,1.20
7344.00,1.19
7343.00,1.19
7342.00,1.19
7341.00,1.18
7340.00,1.18
7339.00,1.18
7338.00,1.18
7337.00,1.17
7336.00,1.17
7335.00,1.17
7334.00,1.16
7333.00,1.16
7332.00,1.16
7331.00,1.15
7330.00,1.15
7329.00,1.15
7328.00,1.15
7327.00,1.14
7326.00,1.14
7325.00,1.14
7324.00,1.14
7323.00,1.14
7322.00,1.14
7321.00,1.14
7320.00,1.14
7319.00,1.14
7318.00,1.14
7317.00,1.14
7316.00,1.14
7315.00,1.14
7314.00,1.14
7313.00,1.14
7312.00,1.14
7311.00,1.14
7310.00,1.14
7309.00,1.14
7308.00,1.15
7307.00,1.15
7306.00,1.15
7305.00,1.15
7304.00,1.16
7303.00,1.16
7302.00,1.16
7301.00,1.16
7300.00,1.16
7299.00,1.17
7298.00,1.17
7297.00,1.17
7296.00,1.17
7295.00,1.17
7294.00,1.17
7293.00,1.17
7292.00,1.17
7291.00,1.17
7290.00,1.17
7289.00,1.17
7288.00,1.17
7287.00,1.17
7286.00,1.17
7285.00,1.17
7284.00,1.17
7283.00,1.16
7282.00,1.16
7281.00,1.16
7280.00,1.16
7279.00,1.16
7278.00,1.15
7277.00,1.15
7276.00,1.15
7275.00,1.15
7274.00,1.15
7273.00,1.14
7272.00,1.14
7271.00,1.14
7270.00,1.14
7269.00,1.13
7268.00,1.13
7267.00,1.13
7266.00,1.13
7265.00,1.13
7264.00,1.12
7263.00,1.12
7262.00,1.12
7261.00,1.12
7260.00,1.12
7259.00,1.12
7258.00,1.12
7257.00,1.12
7256.00,1.12
7255.00,1.12
7254.00,1.12
7253.00,1.12
7252.00,1.11
7251.00,1.11
7250.00,1.11
7249.00,1.11
7248.00,1.11
7247.00,1.11
7246.00,1.11
7245.00,1.11
7244.00,1.11
7243.00,1.11
7242.00,1.11
7241.00,1.11
7240.00,1.10
7239.00,1.10
7238.00,1.10
7237.00,1.10
7236.00,1.10
7235.00,1.10
7234.00,1.10
7233.00,1.09
7232.00,1.09
7231.00,1.09
7230.00,1.09
7229.00,1.08
7228.00,1.08
7227.00,1.08
7226.00,1.08
7225.00,1.07
7224.00,1.07
7223.00,1.07
7222.00,1.07
7221.00,1.06
7220.00,1.06
7219.00,1.06
7218.00,1.06
7217.00,1.05
7216.00,1.05
7215.00,1.05
7214.00,1.04
7213.00,1.04
7212.00,1.04
7211.00,1.04
7210.00,1.03
7209.00,1.03
7208.00,1.03
7207.00,1.02
7206.00,1.02
7205.00,1.02
7204.00,1.01
7203.00,1.01
7202.00,1.01
7201.00,1.01
7200.00,1.00
7199.00,1.00
7198.00,1.00
7197.00,1.00
7196.00,0.99
7195.00,0.99
7194.00,0.99
7193.00,0.99
7192.00,0.99
7191.00,0.99
7190.00,0.99
7189.00,0.98
7188.00,0.98
7187.00,0.98
7186.00,0.98
7185.00,0.98
7184.00,0.98
7183.00,0.98
7182.00,0.98
7181.00,0.98
7180.00,0.98
7179.00,0.98
7178.00,0.98
7177.00,0.98
7176.00,0.98
7175.00,0.97
7174.00,0.97
7173.00,0.97
7172.00,0.96
7171.00,0.96
7170.00,0.96
7169.00,0.95
7168.00,0.95
7167.00,0.94
7166.00,0.94
7165.00,0.93
7164.00,0.93
7163.00,0.92
7162.00,0.91
7161.00,0.91
7160.00,0.90
7159.00,0.90
7158.00,0.89
7157.00,0.88
7156.00,0.88
7155.00,0.87
7154.00,0.87
7153.00,0.86
7152.00,0.85
7151.00,0.85
7150.00,0.84
7149.00,0.84
7148.00,0.83
7147.00,0.83
7146.00,0.82
7145.00,0.82
7144.00,0.82
7143.00,0.81
7142.00,0.81
7141.00,0.81
7140.00,0.80
7139.00,0.80
7138.00,0.79
7137.00,0.79
7136.00,0.79
7135.00,0.79
7134.00,0.78
7133.00,0.78
7132.00,0.78
7131.00,0.78
7130.00,0.77
7129.00,0.77
7128.00,0.77
7127.00,0.77
7126.00,0.77
7125.00,0.76
7124.00,0.76
7123.00,0.76
7122.00,0.76
7121.00,0.76
7120.00,0.76
7119.00,0.76
7118.00,0.76
7117.00,0.75
7116.00,0.75
7115.00,0.75
7114.00,0.75
7113.00,0.75
7112.00,0.75
7111.00,0.75
7110.00,0.75
7109.00,0.75
7108.00,0.75
7107.00,0.75
7106.00,0.75
7105.00,0.75
7104.00,0.75
7103.00,0.75
7102.00,0.75
7101.00,0.75
7100.00,0.75
7099.00,0.75
7098.00,0.75
7097.00,0.74
7096.00,0.74
7095.00,0.74
7094.00,0.74
7093.00,0.74
7092.00,0.73
7091.00,0.73
7090.00,0.73
7089.00,0.73
7088.00,0.72
7087.00,0.72
7086.00,0.72
7085.00,0.71
7084.00,0.71
7083.00,0.71
7082.00,0.71
7081.00,0.70
7080.00,0.70
7079.00,0.70
7078.00,0.69
7077.00,0.69
7076.00,0.68
7075.00,0.68
7074.00,0.68
7073.00,0.67
7072.00,0.67
7071.00,0.67
7070.00,0.67
7069.00,0.66
7068.00,0.66
7067.00,0.66
7066.00,0.66
7065.00,0.66
7064.00,0.66
7063.00,0.66
7062.00,0.66
7061.00,0.66
7060.00,0.66
7059.00,0.65
7058.00,0.65
7057.00,0.65
7056.00,0.65
7055.00,0.66
7054.00,0.66
7053.00,0.66
7052.00,0.66
7051.00,0.66
7050.00,0.66
7049.00,0.67
7048.00,0.67
7047.00,0.67
7046.00,0.67
7045.00,0.67
7044.00,0.67
7043.00,0.67
7042.00,0.68
7041.00,0.68
7040.00,0.68
7039.00,0.68
7038.00,0.67
7037.00,0.67
7036.00,0.67
7035.00,0.67
7034.00,0.67
7033.00,0.67
7032.00,0.67
7031.00,0.67
7030.00,0.66
7029.00,0.66
7028.00,0.66
7027.00,0.66
7026.00,0.65
7025.00,0.65
7024.00,0.65
7023.00,0.65
7022.00,0.64
7021.00,0.64
7020.00,0.64
7019.00,0.64
7018.00,0.64
7017.00,0.64
7016.00,0.64
7015.00,0.64
7014.00,0.64
7013.00,0.64
7012.00,0.64
7011.00,0.64
7010.00,0.64
7009.00,0.64
7008.00,0.64
7007.00,0.64
7006.00,0.65
7005.00,0.65
7004.00,0.65
7003.00,0.66
7002.00,0.66
7001.00,0.66
7000.00,0.66
6999.00,0.67
6998.00,0.67
6997.00,0.67
6996.00,0.67
6995.00,0.67
6994.00,0.67
6993.00,0.67
6992.00,0.67
6991.00,0.68
6990.00,0.68
6989.00,0.68
6988.00,0.68
6987.00,0.67
6986.00,0.67
6985.00,0.67
6984.00,0.67
6983.00,0.67
6982.00,0.67
6981.00,0.67
6980.00,0.66
6979.00,0.66
6978.00,0.66
6977.00,0.66
6976.00,0.65
6975.00,0.65
6974.00,0.65
6973.00,0.64
6972.00,0.64
6971.00,0.64
6970.00,0.63
6969.00,0.63
6968.00,0.63
6967.00,0.63
6966.00,0.62
6965.00,0.62
6964.00,0.62
6963.00,0.61
6962.00,0.61
6961.00,0.61
6960.00,0.60
6959.00,0.60
6958.00,0.60
6957.00,0.60
6956.00,0.59
6955.00,0.59
6954.00,0.59
6953.00,0.59
6952.00,0.59
6951.00,0.58
6950.00,0.58
6949.00,0.58
6948.00,0.58
6947.00,0.58
6946.00,0.58
6945.00,0.58
6944.00,0.58
6943.00,0.58
6942.00,0.58
6941.00,0.58
6940.00,0.58
6939.00,0.58
6938.00,0.58
6937.00,0.58
6936.00,0.58
6935.00,0.58
6934.00,0.58
6933.00,0.58
6932.00,0.58
6931.00,0.59
6930.00,0.59
6929.00,0.59
6928.00,0.59
6927.00,0.59
6926.00,0.59
6925.00,0.59
6924.00,0.59
6923.00,0.60
6922.00,0.60
6921.00,0.60
6920.00,0.60
6919.00,0.60
6918.00,0.60
6917.00,0.60
6916.00,0.60
6915.00,0.60
6914.00,0.60
6913.00,0.60
6912.00,0.60
6911.00,0.60
6910.00,0.60
6909.00,0.60
6908.00,0.60
6907.00,0.60
6906.00,0.60
6905.00,0.60
6904.00,0.60
6903.00,0.60
6902.00,0.60
6901.00,0.60
6900.00,0.59
6899.00,0.59
6898.00,0.59
6897.00,0.59
6896.00,0.59
6895.00,0.59
6894.00,0.60
6893.00,0.60
6892.00,0.60
6891.00,0.60
6890.00,0.60
6889.00,0.60
6888.00,0.61
6887.00,0.61
6886.00,0.61
6885.00,0.61
6884.00,0.62
6883.00,0.62
6882.00,0.62
6881.00,0.63
6880.00,0.63
6879.00,0.63
6878.00,0.64
6877.00,0.64
6876.00,0.64
6875.00,0.64
6874.00,0.65
6873.00,0.65
6872.00,0.65
6871.00,0.65
6870.00,0.65
6869.00,0.65
6868.00,0.65
6867.00,0.65
6866.00,0.65
6865.00,0.65
6864.00,0.65
6863.00,0.65
6862.00,0.65
6861.00,0.64
6860.00,0.64
6859.00,0.64
6858.00,0.64
6857.00,0.64
6856.00,0.63
6855.00,0.63
6854.00,0.63
6853.00,0.63
6852.00,0.63
6851.00,0.63
6850.00,0.63
6849.00,0.63
6848.00,0.63
6847.00,0.63
6846.00,0.63
6845.00,0.62
6844.00,0.62
6843.00,0.62
6842.00,0.62
6841.00,0.62
6840.00,0.62
6839.00,0.63
6838.00,0.63
6837.00,0.63
6836.00,0.63
6835.00,0.63
6834.00,0.63
6833.00,0.63
6832.00,0.64
6831.00,0.64
6830.00,0.64
6829.00,0.64
6828.00,0.64
6827.00,0.64
6826.00,0.64
6825.00,0.64
6824.00,0.64
6823.00,0.64
6822.00,0.64
6821.00,0.64
6820.00,0.64
6819.00,0.64
6818.00,0.64
6817.00,0.64
6816.00,0.64
6815.00,0.64
6814.00,0.64
6813.00,0.64
6812.00,0.64
6811.00,0.64
6810.00,0.64
6809.00,0.64
6808.00,0.64
6807.00,0.64
6806.00,0.63
6805.00,0.63
6804.00,0.63
6803.00,0.63
6802.00,0.63
6801.00,0.62
6800.00,0.62
6799.00,0.62
6798.00,0.62
6797.00,0.62
6796.00,0.62
6795.00,0.61
6794.00,0.61
6793.00,0.61
6792.00,0.61
6791.00,0.60
6790.00,0.60
6789.00,0.60
6788.00,0.60
6787.00,0.60
6786.00,0.60
6785.00,0.59
6784.00,0.59
6783.00,0.59
6782.00,0.60
6781.00,0.60
6780.00,0.60
6779.00,0.60
6778.00,0.60
6777.00,0.60
6776.00,0.60
6775.00,0.61
6774.00,0.61
6773.00,0.61
6772.00,0.61
6771.00,0.62
6770.00,0.62
6769.00,0.62
6768.00,0.63
6767.00,0.63
6766.00,0.63
6765.00,0.64
6764.00,0.64
6763.00,0.65
6762.00,0.65
6761.00,0.65
6760.00,0.66
6759.00,0.66
6758.00,0.66
6757.00,0.67
6756.00,0.67
6755.00,0.67
6754.00,0.67
6753.00,0.68
6752.00,0.68
6751.00,0.68
6750.00,0.68
6749.00,0.68
6748.00,0.68
6747.00,0.68
6746.00,0.69
6745.00,0.69
6744.00,0.69
6743.00,0.69
6742.00,0.69
6741.00,0.69
6740.00,0.69
6739.00,0.68
6738.00,0.68
6737.00,0.68
6736.00,0.68
6735.00,0.68
6734.00,0.68
6733.00,0.68
6732.00,0.68
6731.00,0.68
6730.00,0.68
6729.00,0.68
6728.00,0.68
6727.00,0.68
6726.00,0.68
6725.00,0.68
6724.00,0.68
6723.00,0.68
6722.00,0.68
6721.00,0.68
6720.00,0.68
6719.00,0.68
6718.00,0.68
6717.00,0.69
6716.00,0.69
6715.00,0.69
6714.00,0.69
6713.00,0.69
6712.00,0.69
6711.00,0.69
6710.00,0.69
6709.00,0.69
6708.00,0.69
6707.00,0.69
6706.00,0.69
6705.00,0.69
6704.00,0.69
6703.00,0.70
6702.00,0.70
6701.00,0.70
6700.00,0.70
6699.00,0.70
6698.00,0.70
6697.00,0.70
6696.00,0.70
6695.00,0.70
6694.00,0.70
6693.00,0.70
6692.00,0.70
6691.00,0.70
6690.00,0.70
6689.00,0.70
6688.00,0.70
6687.00,0.70
6686.00,0.70
6685.00,0.70
6684.00,0.71
6683.00,0.71
6682.00,0.71
6681.00,0.71
6680.00,0.71
6679.00,0.71
6678.00,0.71
6677.00,0.71
6676.00,0.71
6675.00,0.72
6674.00,0.72
6673.00,0.72
6672.00,0.72
6671.00,0.72
6670.00,0.72
6669.00,0.72
6668.00,0.73
6667.00,0.73
6666.00,0.73
6665.00,0.73
6664.00,0.73
6663.00,0.73
6662.00,0.73
6661.00,0.73
6660.00,0.74
6659.00,0.74
6658.00,0.74
6657.00,0.74
6656.00,0.74
6655.00,0.75
6654.00,0.75
6653.00,0.75
6652.00,0.75
6651.00,0.76
6650.00,0.76
6649.00,0.76
6648.00,0.76
6647.00,0.77
6646.00,0.77
6645.00,0.77
6644.00,0.77
6643.00,0.77
6642.00,0.77
6641.00,0.78
6640.00,0.78
6639.00,0.78
6638.00,0.78
6637.00,0.78
6636.00,0.78
6635.00,0.78
6634.00,0.78
6633.00,0.78
6632.00,0.78
6631.00,0.78
6630.00,0.78
6629.00,0.78
6628.00,0.78
6627.00,0.78
6626.00,0.77
6625.00,0.77
6624.00,0.77
6623.00,0.77
6622.00,0.77
6621.00,0.77
6620.00,0.77
6619.00,0.77
6618.00,0.77
6617.00,0.77
6616.00,0.77
6615.00,0.78
6614.00,0.78
6613.00,0.78
6612.00,0.78
6611.00,0.78
6610.00,0.78
6609.00,0.79
6608.00,0.79
6607.00,0.79
6606.00,0.80
6605.00,0.80
6604.00,0.80
6603.00,0.81
6602.00,0.81
6601.00,0.81
6600.00,0.82
6599.00,0.82
6598.00,0.82
6597.00,0.82
6596.00,0.83
6595.00,0.83
6594.00,0.83
6593.00,0.84
6592.00,0.84
6591.00,0.84
6590.00,0.84
6589.00,0.85
6588.00,0.85
6587.00,0.85
6586.00,0.85
6585.00,0.85
6584.00,0.85
6583.00,0.85
6582.00,0.85
6581.00,0.85
6580.00,0.85
6579.00,0.86
6578.00,0.86
6577.00,0.86
6576.00,0.86
6575.00,0.86
6574.00,0.86
6573.00,0.86
6572.00,0.86
6571.00,0.86
6570.00,0.86
6569.00,0.86
6568.00,0.86
6567.00,0.86
6566.00,0.86
6565.00,0.86
6564.00,0.86
6563.00,0.86
6562.00,0.86
6561.00,0.86
6560.00,0.86
6559.00,0.86
6558.00,0.86
6557.00,0.86
6556.00,0.86
6555.00,0.86
6554.00,0.87
6553.00,0.87
6552.00,0.87
6551.00,0.87
6550.00,0.87
6549.00,0.87
6548.00,0.87
6547.00,0.87
6546.00,0.87
6545.00,0.88
6544.00,0.88
6543.00,0.88
6542.00,0.88
6541.00,0.88
6540.00,0.88
6539.00,0.88
6538.00,0.88
6537.00,0.88
6536.00,0.89
6535.00,0.89
6534.00,0.89
6533.00,0.89
6532.00,0.89
6531.00,0.89
6530.00,0.89
6529.00,0.89
6528.00,0.89
6527.00,0.89
6526.00,0.88
6525.00,0.88
6524.00,0.88
6523.00,0.89
6522.00,0.89
6521.00,0.89
6520.00,0.89
6519.00,0.89
6518.00,0.89
6517.00,0.89
6516.00,0.89
6515.00,0.89
6514.00,0.89
6513.00,0.89
6512.00,0.89
6511.00,0.89
6510.00,0.89
6509.00,0.89
6508.00,0.89
6507.00,0.89
6506.00,0.89
6505.00,0.89
6504.00,0.90
6503.00,0.90
6502.00,0.90
6501.00,0.90
6500.00,0.90
6499.00,0.90
6498.00,0.91
6497.00,0.91
6496.00,0.91
6495.00,0.91
6494.00,0.91
6493.00,0.92
6492.00,0.92
6491.00,0.92
6490.00,0.92
6489.00,0.93
6488.00,0.93
6487.00,0.93
6486.00,0.93
6485.00,0.94
6484.00,0.94
6483.00,0.94
6482.00,0.94
6481.00,0.94
6480.00,0.95
6479.00,0.95
6478.00,0.95
6477.00,0.95
6476.00,0.95
6475.00,0.95
6474.00,0.96
6473.00,0.96
6472.00,0.96
6471.00,0.96
6470.00,0.96
6469.00,0.96
6468.00,0.96
6467.00,0.96
6466.00,0.97
6465.00,0.97
6464.00,0.97
6463.00,0.97
6462.00,0.97
6461.00,0.97
6460.00,0.97
6459.00,0.97
6458.00,0.97
6457.00,0.97
6456.00,0.97
6455.00,0.97
6454.00,0.97
6453.00,0.97
6452.00,0.97
6451.00,0.97
6450.00,0.97
6449.00,0.97
6448.00,0.97
6447.00,0.97
6446.00,0.97
6445.00,0.97
6444.00,0.97
6443.00,0.97
6442.00,0.97
6441.00,0.97
6440.00,0.96
6439.00,0.96
6438.00,0.96
6437.00,0.96
6436.00,0.96
6435.00,0.96
6434.00,0.96
6433.00,0.96
6432.00,0.96
6431.00,0.96
6430.00,0.96
6429.00,0.96
6428.00,0.96
6427.00,0.96
6426.00,0.96
6425.00,0.96
6424.00,0.96
6423.00,0.96
6422.00,0.97
6421.00,0.97
6420.00,0.97
6419.00,0.97
6418.00,0.97
6417.00,0.97
6416.00,0.98
6415.00,0.98
6414.00,0.98
6413.00,0.98
6412.00,0.98
6411.00,0.98
6410.00,0.99
6409.00,0.99
6408.00,0.99
6407.00,0.99
6406.00,0.99
6405.00,0.99
6404.00,0.99
6403.00,0.99
6402.00,0.99
6401.00,0.99
6400.00,0.99
6399.00,0.99
6398.00,0.99
6397.00,0.99
6396.00,0.99
6395.00,0.99
6394.00,0.98
6393.00,0.98
6392.00,0.98
6391.00,0.98
6390.00,0.98
6389.00,0.98
6388.00,0.98
6387.00,0.98
6386.00,0.97
6385.00,0.97
6384.00,0.97
6383.00,0.97
6382.00,0.97
6381.00,0.97
6380.00,0.97
6379.00,0.98
6378.00,0.98
6377.00,0.98
6376.00,0.98
6375.00,0.98
6374.00,0.98
6373.00,0.98
6372.00,0.98
6371.00,0.98
6370.00,0.98
6369.00,0.98
6368.00,0.98
6367.00,0.98
6366.00,0.98
6365.00,0.98
6364.00,0.98
6363.00,0.98
6362.00,0.98
6361.00,0.99
6360.00,0.99
6359.00,0.99
6358.00,0.99
6357.00,0.99
6356.00,0.99
6355.00,0.99
6354.00,0.99
6353.00,0.99
6352.00,0.99
6351.00,0.99
6350.00,0.99
6349.00,0.99
6348.00,0.99
6347.00,0.99
6346.00,0.99
6345.00,0.99
6344.00,1.00
6343.00,1.00
6342.00,1.00
6341.00,1.00
6340.00,1.00
6339.00,1.00
6338.00,1.01
6337.00,1.01
6336.00,1.01
6335.00,1.01
6334.00,1.02
6333.00,1.02
6332.00,1.02
6331.00,1.02
6330.00,1.03
6329.00,1.03
6328.00,1.03
6327.00,1.03
6326.00,1.04
6325.00,1.04
6324.00,1.04
6323.00,1.05
6322.00,1.05
6321.00,1.05
6320.00,1.06
6319.00,1.06
6318.00,1.06
6317.00,1.07
6316.00,1.07
6315.00,1.07
6314.00,1.07
6313.00,1.08
6312.00,1.08
6311.00,1.08
6310.00,1.08
6309.00,1.08
6308.00,1.08
6307.00,1.09
6306.00,1.09
6305.00,1.09
6304.00,1.09
6303.00,1.09
6302.00,1.09
6301.00,1.09
6300.00,1.09
6299.00,1.09
6298.00,1.09
6297.00,1.10
6296.00,1.10
6295.00,1.10
6294.00,1.10
6293.00,1.10
6292.00,1.10
6291.00,1.10
6290.00,1.10
6289.00,1.10
6288.00,1.10
6287.00,1.09
6286.00,1.09
6285.00,1.09
6284.00,1.09
6283.00,1.09
6282.00,1.09
6281.00,1.09
6280.00,1.09
6279.00,1.09
6278.00,1.09
6277.00,1.09
6276.00,1.09
6275.00,1.10
6274.00,1.10
6273.00,1.10
6272.00,1.10
6271.00,1.10
6270.00,1.10
6269.00,1.10
6268.00,1.10
6267.00,1.10
6266.00,1.11
6265.00,1.11
6264.00,1.11
6263.00,1.11
6262.00,1.11
6261.00,1.11
6260.00,1.11
6259.00,1.11
6258.00,1.11
6257.00,1.11
6256.00,1.11
6255.00,1.12
6254.00,1.12
6253.00,1.12
6252.00,1.11
6251.00,1.11
6250.00,1.11
6249.00,1.11
6248.00,1.11
6247.00,1.11
6246.00,1.11
6245.00,1.10
6244.00,1.10
6243.00,1.10
6242.00,1.10
6241.00,1.10
6240.00,1.09
6239.00,1.09
6238.00,1.09
6237.00,1.09
6236.00,1.09
6235.00,1.09
6234.00,1.09
6233.00,1.09
6232.00,1.10
6231.00,1.10
6230.00,1.10
6229.00,1.10
6228.00,1.10
6227.00,1.11
6226.00,1.11
6225.00,1.11
6224.00,1.11
6223.00,1.12
6222.00,1.12
6221.00,1.12
6220.00,1.13
6219.00,1.13
6218.00,1.14
6217.00,1.14
6216.00,1.14
6215.00,1.15
6214.00,1.15
6213.00,1.16
6212.00,1.16
6211.00,1.16
6210.00,1.16
6209.00,1.17
6208.00,1.17
6207.00,1.17
6206.00,1.17
6205.00,1.17
6204.00,1.18
6203.00,1.18
6202.00,1.18
6201.00,1.18
6200.00,1.18
6199.00,1.18
6198.00,1.18
6197.00,1.19
6196.00,1.19
6195.00,1.19
6194.00,1.19
6193.00,1.19
6192.00,1.19
6191.00,1.19
6190.00,1.19
6189.00,1.20
6188.00,1.20
6187.00,1.20
6186.00,1.20
6185.00,1.20
6184.00,1.20
6183.00,1.20
6182.00,1.21
6181.00,1.21
6180.00,1.21
6179.00,1.21
6178.00,1.21
6177.00,1.21
6176.00,1.22
6175.00,1.22
6174.00,1.22
6173.00,1.22
6172.00,1.22
6171.00,1.23
6170.00,1.23
6169.00,1.23
6168.00,1.23
6167.00,1.23
6166.00,1.23
6165.00,1.23
6164.00,1.23
6163.00,1.23
6162.00,1.24
6161.00,1.24
6160.00,1.24
6159.00,1.24
6158.00,1.24
6157.00,1.24
6156.00,1.24
6155.00,1.25
6154.00,1.25
6153.00,1.25
6152.00,1.25
6151.00,1.25
6150.00,1.25
6149.00,1.25
6148.00,1.25
6147.00,1.25
6146.00,1.25
6145.00,1.25
6144.00,1.25
6143.00,1.25
6142.00,1.25
6141.00,1.26
6140.00,1.26
6139.00,1.26
6138.00,1.26
6137.00,1.26
6136.00,1.26
6135.00,1.26
6134.00,1.26
6133.00,1.26
6132.00,1.26
6131.00,1.26
6130.00,1.26
6129.00,1.26
6128.00,1.26
6127.00,1.26
6126.00,1.26
6125.00,1.27
6124.00,1.27
6123.00,1.27
6122.00,1.27
6121.00,1.27
6120.00,1.27
6119.00,1.27
6118.00,1.27
6117.00,1.28
6116.00,1.28
6115.00,1.28
6114.00,1.28
6113.00,1.28
6112.00,1.28
6111.00,1.29
6110.00,1.29
6109.00,1.29
6108.00,1.29
6107.00,1.29
6106.00,1.30
6105.00,1.30
6104.00,1.30
6103.00,1.30
6102.00,1.30
6101.00,1.30
6100.00,1.30
6099.00,1.31
6098.00,1.31
6097.00,1.31
6096.00,1.31
6095.00,1.31
6094.00,1.31
6093.00,1.31
6092.00,1.31
6091.00,1.31
6090.00,1.31
6089.00,1.31
6088.00,1.31
6087.00,1.31
6086.00,1.31
6085.00,1.31
6084.00,1.31
6083.00,1.31
6082.00,1.31
6081.00,1.30
6080.00,1.30
6079.00,1.30
6078.00,1.30
6077.00,1.30
6076.00,1.30
6075.00,1.30
6074.00,1.30
6073.00,1.30
6072.00,1.30
6071.00,1.30
6070.00,1.30
6069.00,1.30
6068.00,1.30
6067.00,1.30
6066.00,1.30
6065.00,1.30
6064.00,1.30
6063.00,1.30
6062.00,1.31
6061.00,1.31
6060.00,1.31
6059.00,1.31
6058.00,1.31
6057.00,1.31
6056.00,1.32
6055.00,1.32
6054.00,1.32
6053.00,1.32
6052.00,1.32
6051.00,1.32
6050.00,1.33
6049.00,1.33
6048.00,1.33
6047.00,1.33
6046.00,1.33
6045.00,1.33
6044.00,1.33
6043.00,1.33
6042.00,1.33
6041.00,1.33
6040.00,1.33
6039.00,1.34
6038.00,1.34
6037.00,1.34
6036.00,1.34
6035.00,1.34
6034.00,1.34
6033.00,1.34
6032.00,1.34
6031.00,1.35
6030.00,1.35
6029.00,1.35
6028.00,1.35
6027.00,1.35
6026.00,1.35
6025.00,1.36
6024.00,1.36
6023.00,1.36
6022.00,1.36
6021.00,1.36
6020.00,1.37
6019.00,1.37
6018.00,1.37
6017.00,1.37
6016.00,1.37
6015.00,1.37
6014.00,1.38
6013.00,1.38
6012.00,1.38
6011.00,1.38
6010.00,1.38
6009.00,1.38
6008.00,1.38
6007.00,1.38
6006.00,1.38
6005.00,1.38
6004.00,1.38
6003.00,1.37
6002.00,1.37
6001.00,1.37
6000.00,1.37
5999.00,1.36
5998.00,1.36
5997.00,1.36
5996.00,1.36
5995.00,1.35
5994.00,1.35
5993.00,1.35
5992.00,1.34
5991.00,1.34
5990.00,1.34
5989.00,1.34
5988.00,1.33
5987.00,1.33
5986.00,1.33
5985.00,1.32
5984.00,1.32
5983.00,1.32
5982.00,1.31
5981.00,1.31
5980.00,1.31
5979.00,1.31
5978.00,1.30
5977.00,1.30
5976.00,1.30
5975.00,1.29
5974.00,1.29
5973.00,1.29
5972.00,1.29
5971.00,1.28
5970.00,1.28
5969.00,1.28
5968.00,1.27
5967.00,1.27
5966.00,1.26
5965.00,1.26
5964.00,1.25
5963.00,1.25
5962.00,1.24
5961.00,1.24
5960.00,1.23
5959.00,1.23
5958.00,1.22
5957.00,1.22
5956.00,1.21
5955.00,1.20
5954.00,1.20
5953.00,1.19
5952.00,1.18
5951.00,1.18
5950.00,1.17
5949.00,1.17
5948.00,1.16
5947.00,1.16
5946.00,1.15
5945.00,1.15
5944.00,1.14
5943.00,1.14
5942.00,1.13
5941.00,1.13
5940.00,1.12
5939.00,1.12
5938.00,1.12
5937.00,1.12
5936.00,1.11
5935.00,1.11
5934.00,1.11
5933.00,1.11
5932.00,1.11
5931.00,1.11
5930.00,1.11
5929.00,1.11
5928.00,1.12
5927.00,1.12
5926.00,1.12
5925.00,1.12
5924.00,1.12
5923.00,1.12
5922.00,1.12
5921.00,1.13
5920.00,1.13
5919.00,1.13
5918.00,1.13
5917.00,1.13
5916.00,1.13
5915.00,1.13
5914.00,1.13
5913.00,1.13
5912.00,1.14
5911.00,1.14
5910.00,1.14
5909.00,1.14
5908.00,1.14
5907.00,1.14
5906.00,1.14
5905.00,1.14
5904.00,1.14
5903.00,1.14
5902.00,1.14
5901.00,1.14
5900.00,1.14
5899.00,1.14
5898.00,1.14
5897.00,1.15
5896.00,1.15
5895.00,1.15
5894.00,1.15
5893.00,1.15
5892.00,1.16
5891.00,1.16
5890.00,1.16
5889.00,1.16
5888.00,1.16
5887.00,1.17
5886.00,1.17
5885.00,1.17
5884.00,1.17
5883.00,1.17
5882.00,1.18
5881.00,1.18
5880.00,1.18
5879.00,1.18
5878.00,1.19
5877.00,1.19
5876.00,1.19
5875.00,1.19
5874.00,1.19
5873.00,1.19
5872.00,1.19
5871.00,1.19
5870.00,1.20
5869.00,1.20
5868.00,1.20
5867.00,1.20
5866.00,1.20
5865.00,1.20
5864.00,1.20
5863.00,1.20
5862.00,1.20
5861.00,1.20
5860.00,1.20
5859.00,1.20
5858.00,1.20
5857.00,1.20
5856.00,1.19
5855.00,1.19
5854.00,1.19
5853.00,1.19
5852.00,1.19
5851.00,1.19
5850.00,1.19
5849.00,1.19
5848.00,1.19
5847.00,1.19
5846.00,1.19
5845.00,1.19
5844.00,1.19
5843.00,1.19
5842.00,1.19
5841.00,1.19
5840.00,1.19
5839.00,1.19
5838.00,1.18
5837.00,1.18
5836.00,1.18
5835.00,1.19
5834.00,1.19
5833.00,1.19
5832.00,1.19
5831.00,1.19
5830.00,1.19
5829.00,1.19
5828.00,1.19
5827.00,1.19
5826.00,1.19
5825.00,1.19
5824.00,1.19
5823.00,1.19
5822.00,1.20
5821.00,1.20
5820.00,1.20
5819.00,1.20
5818.00,1.20
5817.00,1.20
5816.00,1.20
5815.00,1.20
5814.00,1.20
5813.00,1.20
5812.00,1.20
5811.00,1.21
5810.00,1.21
5809.00,1.21
5808.00,1.21
5807.00,1.20
5806.00,1.20
5805.00,1.20
5804.00,1.20
5803.00,1.20
5802.00,1.20
5801.00,1.20
5800.00,1.20
5799.00,1.19
5798.00,1.19
5797.00,1.19
5796.00,1.19
5795.00,1.19
5794.00,1.18
5793.00,1.18
5792.00,1.18
5791.00,1.17
5790.00,1.17
5789.00,1.17
5788.00,1.16
5787.00,1.16
5786.00,1.16
5785.00,1.16
5784.00,1.15
5783.00,1.15
5782.00,1.15
5781.00,1.15
5780.00,1.14
5779.00,1.14
5778.00,1.14
5777.00,1.14
5776.00,1.14
5775.00,1.14
5774.00,1.14
5773.00,1.14
5772.00,1.14
5771.00,1.14
5770.00,1.14
5769.00,1.14
5768.00,1.14
5767.00,1.14
5766.00,1.14
5765.00,1.14
5764.00,1.15
5763.00,1.15
5762.00,1.15
5761.00,1.15
5760.00,1.15
5759.00,1.16
5758.00,1.16
5757.00,1.16
5756.00,1.16
5755.00,1.17
5754.00,1.17
5753.00,1.17
5752.00,1.17
5751.00,1.18
5750.00,1.18
5749.00,1.18
5748.00,1.18
5747.00,1.18
5746.00,1.19
5745.00,1.19
5744.00,1.19
5743.00,1.19
5742.00,1.20
5741.00,1.20
5740.00,1.20
5739.00,1.20
5738.00,1.20
5737.00,1.20
5736.00,1.20
5735.00,1.20
5734.00,1.21
5733.00,1.21
5732.00,1.21
5731.00,1.21
5730.00,1.21
5729.00,1.21
5728.00,1.21
5727.00,1.21
5726.00,1.22
5725.00,1.22
5724.00,1.22
5723.00,1.22
5722.00,1.22
5721.00,1.22
5720.00,1.22
5719.00,1.22
5718.00,1.23
5717.00,1.23
5716.00,1.23
5715.00,1.23
5714.00,1.23
5713.00,1.23
5712.00,1.23
5711.00,1.23
5710.00,1.24
5709.00,1.24
5708.00,1.24
5707.00,1.24
5706.00,1.24
5705.00,1.24
5704.00,1.24
5703.00,1.24
5702.00,1.24
5701.00,1.24
5700.00,1.24
5699.00,1.24
5698.00,1.24
5697.00,1.24
5696.00,1.24
5695.00,1.24
5694.00,1.24
5693.00,1.24
5692.00,1.24
5691.00,1.24
5690.00,1.24
5689.00,1.24
5688.00,1.24
5687.00,1.23
5686.00,1.23
5685.00,1.23
5684.00,1.23
5683.00,1.23
5682.00,1.23
5681.00,1.23
5680.00,1.23
5679.00,1.23
5678.00,1.23
5677.00,1.23
5676.00,1.23
5675.00,1.23
5674.00,1.23
5673.00,1.23
5672.00,1.23
5671.00,1.23
5670.00,1.23
5669.00,1.23
5668.00,1.23
5667.00,1.23
5666.00,1.23
5665.00,1.22
5664.00,1.22
5663.00,1.22
5662.00,1.22
5661.00,1.22
5660.00,1.22
5659.00,1.22
5658.00,1.22
5657.00,1.22
5656.00,1.23
5655.00,1.23
5654.00,1.23
5653.00,1.23
5652.00,1.23
5651.00,1.23
5650.00,1.23
5649.00,1.23
5648.00,1.23
5647.00,1.23
5646.00,1.23
5645.00,1.23
5644.00,1.23
5643.00,1.23
5642.00,1.23
5641.00,1.23
5640.00,1.23
5639.00,1.23
5638.00,1.23
5637.00,1.24
5636.00,1.24
5635.00,1.24
5634.00,1.24
5633.00,1.24
5632.00,1.24
5631.00,1.24
5630.00,1.24
5629.00,1.24
5628.00,1.24
5627.00,1.24
5626.00,1.24
5625.00,1.24
5624.00,1.24
5623.00,1.24
5622.00,1.25
5621.00,1.25
5620.00,1.25
5619.00,1.25
5618.00,1.25
5617.00,1.25
5616.00,1.25
5615.00,1.25
5614.00,1.26
5613.00,1.26
5612.00,1.26
5611.00,1.26
5610.00,1.26
5609.00,1.27
5608.00,1.27
5607.00,1.27
5606.00,1.27
5605.00,1.28
5604.00,1.28
5603.00,1.28
5602.00,1.28
5601.00,1.28
5600.00,1.29
5599.00,1.29
5598.00,1.29
5597.00,1.29
5596.00,1.29
5595.00,1.29
5594.00,1.29
5593.00,1.29
5592.00,1.29
5591.00,1.29
5590.00,1.29
5589.00,1.29
5588.00,1.29
5587.00,1.30
5586.00,1.30
5585.00,1.30
5584.00,1.30
5583.00,1.29
5582.00,1.29
5581.00,1.29
5580.00,1.29
5579.00,1.29
5578.00,1.29
5577.00,1.29
5576.00,1.29
5575.00,1.29
5574.00,1.29
5573.00,1.29
5572.00,1.29
5571.00,1.30
5570.00,1.30
5569.00,1.30
5568.00,1.30
5567.00,1.30
5566.00,1.30
5565.00,1.30
5564.00,1.31
5563.00,1.31
5562.00,1.31
5561.00,1.31
5560.00,1.31
5559.00,1.32
5558.00,1.32
5557.00,1.32
5556.00,1.32
5555.00,1.33
5554.00,1.33
5553.00,1.33
5552.00,1.34
5551.00,1.34
5550.00,1.34
5549.00,1.34
5548.00,1.35
5547.00,1.35
5546.00,1.35
5545.00,1.35
5544.00,1.35
5543.00,1.35
5542.00,1.36
5541.00,1.36
5540.00,1.36
5539.00,1.36
5538.00,1.36
5537.00,1.36
5536.00,1.36
5535.00,1.36
5534.00,1.37
5533.00,1.37
5532.00,1.37
5531.00,1.37
5530.00,1.37
5529.00,1.37
5528.00,1.37
5527.00,1.37
5526.00,1.37
5525.00,1.37
5524.00,1.37
5523.00,1.37
5522.00,1.36
5521.00,1.36
5520.00,1.36
5519.00,1.36
5518.00,1.36
5517.00,1.36
5516.00,1.36
5515.00,1.36
5514.00,1.36
5513.00,1.36
5512.00,1.36
5511.00,1.36
5510.00,1.35
5509.00,1.35
5508.00,1.35
5507.00,1.35
5506.00,1.34
5505.00,1.34
5504.00,1.34
5503.00,1.33
5502.00,1.33
5501.00,1.33
5500.00,1.33
5499.00,1.33
5498.00,1.32
5497.00,1.32
5496.00,1.32
5495.00,1.32
5494.00,1.32
5493.00,1.32
5492.00,1.32
5491.00,1.31
5490.00,1.31
5489.00,1.31
5488.00,1.31
5487.00,1.31
5486.00,1.31
5485.00,1.31
5484.00,1.31
5483.00,1.31
5482.00,1.31
5481.00,1.31
5480.00,1.31
5479.00,1.32
5478.00,1.32
5477.00,1.32
5476.00,1.32
5475.00,1.33
5474.00,1.33
5473.00,1.33
5472.00,1.33
5471.00,1.33
5470.00,1.34
5469.00,1.34
5468.00,1.34
5467.00,1.34
5466.00,1.35
5465.00,1.35
5464.00,1.35
5463.00,1.35
5462.00,1.36
5461.00,1.36
5460.00,1.36
5459.00,1.37
5458.00,1.37
5457.00,1.37
5456.00,1.37
5455.00,1.38
5454.00,1.38
5453.00,1.38
5452.00,1.38
5451.00,1.38
5450.00,1.38
5449.00,1.38
5448.00,1.38
5447.00,1.38
5446.00,1.38
5445.00,1.38
5444.00,1.38
5443.00,1.38
5442.00,1.38
5441.00,1.38
5440.00,1.38
5439.00,1.38
5438.00,1.38
5437.00,1.38
5436.00,1.38
5435.00,1.38
5434.00,1.38
5433.00,1.38
5432.00,1.37
5431.00,1.37
5430.00,1.37
5429.00,1.37
5428.00,1.37
5427.00,1.37
5426.00,1.37
5425.00,1.37
5424.00,1.37
5423.00,1.37
5422.00,1.37
5421.00,1.37
5420.00,1.37
5419.00,1.37
5418.00,1.37
5417.00,1.37
5416.00,1.37
5415.00,1.37
5414.00,1.37
5413.00,1.37
5412.00,1.37
5411.00,1.37
5410.00,1.37
5409.00,1.37
5408.00,1.37
5407.00,1.37
5406.00,1.37
5405.00,1.37
5404.00,1.37
5403.00,1.37
5402.00,1.37
5401.00,1.37
5400.00,1.37
5399.00,1.37
5398.00,1.37
5397.00,1.37
5396.00,1.37
5395.00,1.37
5394.00,1.37
5393.00,1.37
5392.00,1.37
5391.00,1.36
5390.00,1.36
5389.00,1.36
5388.00,1.36
5387.00,1.35
5386.00,1.35
5385.00,1.35
5384.00,1.34
5383.00,1.34
5382.00,1.34
5381.00,1.33
5380.00,1.33
5379.00,1.32
5378.00,1.32
5377.00,1.31
5376.00,1.31
5375.00,1.30
5374.00,1.30
5373.00,1.29
5372.00,1.29
5371.00,1.28
5370.00,1.27
5369.00,1.27
5368.00,1.26
5367.00,1.25
5366.00,1.25
5365.00,1.24
5364.00,1.23
5363.00,1.23
5362.00,1.22
5361.00,1.21
5360.00,1.20
5359.00,1.20
5358.00,1.19
5357.00,1.18
5356.00,1.17
5355.00,1.17
5354.00,1.16
5353.00,1.15
5352.00,1.14
5351.00,1.14
5350.00,1.13
5349.00,1.12
5348.00,1.12
5347.00,1.11
5346.00,1.10
5345.00,1.09
5344.00,1.09
5343.00,1.08
5342.00,1.07
5341.00,1.06
5340.00,1.06
5339.00,1.05
5338.00,1.04
5337.00,1.04
5336.00,1.03
5335.00,1.02
5334.00,1.01
5333.00,1.01
5332.00,1.00
5331.00,0.99
5330.00,0.99
5329.00,0.98
5328.00,0.97
5327.00,0.97
5326.00,0.96
5325.00,0.95
5324.00,0.94
5323.00,0.93
5322.00,0.93
5321.00,0.92
5320.00,0.91
5319.00,0.90
5318.00,0.89
5317.00,0.88
5316.00,0.87
5315.00,0.87
5314.00,0.86
5313.00,0.85
5312.00,0.84
5311.00,0.83
5310.00,0.82
5309.00,0.82
5308.00,0.81
5307.00,0.80
5306.00,0.79
5305.00,0.78
5304.00,0.78
5303.00,0.77
5302.00,0.76
5301.00,0.75
5300.00,0.75
5299.00,0.74
5298.00,0.73
5297.00,0.73
5296.00,0.72
5295.00,0.71
5294.00,0.71
5293.00,0.70
5292.00,0.70
5291.00,0.70
5290.00,0.69
5289.00,0.69
5288.00,0.68
5287.00,0.68
5286.00,0.68
5285.00,0.67
5284.00,0.67
5283.00,0.67
5282.00,0.66
5281.00,0.66
5280.00,0.66
5279.00,0.66
5278.00,0.65
5277.00,0.65
5276.00,0.65
5275.00,0.65
5274.00,0.65
5273.00,0.65
5272.00,0.65
5271.00,0.65
5270.00,0.64
5269.00,0.64
5268.00,0.64
5267.00,0.64
5266.00,0.64
5265.00,0.64
5264.00,0.64
5263.00,0.64
5262.00,0.64
5261.00,0.64
5260.00,0.64
5259.00,0.63
5258.00,0.63
5257.00,0.63
5256.00,0.63
5255.00,0.63
5254.00,0.63
5253.00,0.63
5252.00,0.63
5251.00,0.63
5250.00,0.63
5249.00,0.63
5248.00,0.63
5247.00,0.62
5246.00,0.62
5245.00,0.62
5244.00,0.62
5243.00,0.62
5242.00,0.62
5241.00,0.62
5240.00,0.62
5239.00,0.62
5238.00,0.62
5237.00,0.62
5236.00,0.62
5235.00,0.62
5234.00,0.62
5233.00,0.62
5232.00,0.63
5231.00,0.63
5230.00,0.63
5229.00,0.63
5228.00,0.63
5227.00,0.63
5226.00,0.63
5225.00,0.63
5224.00,0.64
5223.00,0.64
5222.00,0.64
5221.00,0.64
5220.00,0.64
5219.00,0.64
5218.00,0.65
5217.00,0.65
5216.00,0.65
5215.00,0.65
5214.00,0.65
5213.00,0.65
5212.00,0.65
5211.00,0.65
5210.00,0.65
5209.00,0.65
5208.00,0.66
5207.00,0.66
5206.00,0.66
5205.00,0.66
5204.00,0.66
5203.00,0.66
5202.00,0.66
5201.00,0.66
5200.00,0.66
5199.00,0.65
5198.00,0.65
5197.00,0.65
5196.00,0.65
5195.00,0.65
5194.00,0.65
5193.00,0.65
5192.00,0.65
5191.00,0.65
5190.00,0.66
5189.00,0.66
5188.00,0.66
5187.00,0.66
5186.00,0.66
5185.00,0.66
5184.00,0.66
5183.00,0.66
5182.00,0.66
5181.00,0.66
5180.00,0.66
5179.00,0.66
5178.00,0.66
5177.00,0.66
5176.00,0.66
5175.00,0.66
5174.00,0.66
5173.00,0.66
5172.00,0.66
5171.00,0.66
5170.00,0.66
5169.00,0.66
5168.00,0.66
5167.00,0.66
5166.00,0.66
5165.00,0.66
5164.00,0.66
5163.00,0.66
5162.00,0.66
5161.00,0.66
5160.00,0.65
5159.00,0.65
5158.00,0.65
5157.00,0.65
5156.00,0.65
5155.00,0.65
5154.00,0.65
5153.00,0.65
5152.00,0.65
5151.00,0.65
5150.00,0.65
5149.00,0.65
5148.00,0.65
5147.00,0.65
5146.00,0.65
5145.00,0.65
5144.00,0.65
5143.00,0.65
5142.00,0.65
5141.00,0.65
5140.00,0.65
5139.00,0.66
5138.00,0.66
5137.00,0.66
5136.00,0.66
5135.00,0.67
5134.00,0.67
5133.00,0.67
5132.00,0.67
5131.00,0.67
5130.00,0.68
5129.00,0.68
5128.00,0.68
5127.00,0.68
5126.00,0.68
5125.00,0.69
5124.00,0.69
5123.00,0.69
5122.00,0.69
5121.00,0.69
5120.00,0.69
5119.00,0.69
5118.00,0.69
5117.00,0.69
5116.00,0.69
5115.00,0.69
5114.00,0.69
5113.00,0.69
5112.00,0.69
5111.00,0.69
5110.00,0.69
5109.00,0.69
5108.00,0.69
5107.00,0.69
5106.00,0.69
5105.00,0.70
5104.00,0.70
5103.00,0.70
5102.00,0.70
5101.00,0.70
5100.00,0.70
5099.00,0.70
5098.00,0.70
5097.00,0.70
5096.00,0.70
5095.00,0.70
5094.00,0.70
5093.00,0.70
5092.00,0.71
5091.00,0.71
5090.00,0.71
5089.00,0.71
5088.00,0.71
5087.00,0.71
5086.00,0.71
5085.00,0.71
5084.00,0.72
5083.00,0.72
5082.00,0.72
5081.00,0.72
5080.00,0.72
5079.00,0.72
5078.00,0.72
5077.00,0.72
5076.00,0.72
5075.00,0.72
5074.00,0.72
5073.00,0.72
5072.00,0.72
5071.00,0.72
5070.00,0.72
5069.00,0.71
5068.00,0.71
5067.00,0.71
5066.00,0.71
5065.00,0.71
5064.00,0.71
5063.00,0.71
5062.00,0.71
5061.00,0.71
5060.00,0.71
5059.00,0.71
5058.00,0.71
5057.00,0.71
5056.00,0.71
5055.00,0.71
5054.00,0.71
5053.00,0.71
5052.00,0.71
5051.00,0.71
5050.00,0.72
5049.00,0.72
5048.00,0.72
5047.00,0.72
5046.00,0.72
5045.00,0.72
5044.00,0.72
5043.00,0.72
5042.00,0.72
5041.00,0.72
5040.00,0.72
5039.00,0.72
5038.00,0.73
5037.00,0.73
5036.00,0.73
5035.00,0.73
5034.00,0.73
5033.00,0.73
5032.00,0.73
5031.00,0.74
5030.00,0.74
5029.00,0.74
5028.00,0.74
5027.00,0.74
5026.00,0.74
5025.00,0.74
5024.00,0.74
5023.00,0.74
5022.00,0.74
5021.00,0.74
5020.00,0.75
5019.00,0.75
5018.00,0.75
5017.00,0.75
5016.00,0.75
5015.00,0.75
5014.00,0.75
5013.00,0.75
5012.00,0.75
5011.00,0.76
5010.00,0.76
5009.00,0.76
5008.00,0.76
5007.00,0.76
5006.00,0.76
5005.00,0.76
5004.00,0.76
5003.00,0.76
5002.00,0.76
5001.00,0.76
5000.00,0.76
4999.00,0.76
4998.00,0.76
4997.00,0.77
4996.00,0.77
4995.00,0.77
4994.00,0.77
4993.00,0.77
4992.00,0.77
4991.00,0.77
4990.00,0.78
4989.00,0.78
4988.00,0.78
4987.00,0.78
4986.00,0.78
4985.00,0.78
4984.00,0.79
4983.00,0.79
4982.00,0.79
4981.00,0.79
4980.00,0.79
4979.00,0.80
4978.00,0.80
4977.00,0.80
4976.00,0.80
4975.00,0.81
4974.00,0.81
4973.00,0.81
4972.00,0.82
4971.00,0.82
4970.00,0.82
4969.00,0.82
4968.00,0.83
4967.00,0.83
4966.00,0.83
4965.00,0.83
4964.00,0.83
4963.00,0.83
4962.00,0.83
4961.00,0.84
4960.00,0.84
4959.00,0.84
4958.00,0.84
4957.00,0.84
4956.00,0.84
4955.00,0.84
4954.00,0.84
4953.00,0.84
4952.00,0.84
4951.00,0.83
4950.00,0.83
4949.00,0.83
4948.00,0.83
4947.00,0.83
4946.00,0.83
4945.00,0.82
4944.00,0.82
4943.00,0.82
4942.00,0.82
4941.00,0.82
4940.00,0.82
4939.00,0.82
4938.00,0.81
4937.00,0.81
4936.00,0.81
4935.00,0.81
4934.00,0.81
4933.00,0.81
4932.00,0.81
4931.00,0.81
4930.00,0.81
4929.00,0.81
4928.00,0.81
4927.00,0.81
4926.00,0.81
4925.00,0.81
4924.00,0.81
4923.00,0.81
4922.00,0.81
4921.00,0.81
4920.00,0.81
4919.00,0.81
4918.00,0.81
4917.00,0.81
4916.00,0.81
4915.00,0.82
4914.00,0.82
4913.00,0.82
4912.00,0.82
4911.00,0.83
4910.00,0.83
4909.00,0.83
4908.00,0.83
4907.00,0.84
4906.00,0.84
4905.00,0.84
4904.00,0.84
4903.00,0.85
4902.00,0.85
4901.00,0.85
4900.00,0.86
4899.00,0.86
4898.00,0.86
4897.00,0.87
4896.00,0.87
4895.00,0.87
4894.00,0.87
4893.00,0.88
4892.00,0.88
4891.00,0.88
4890.00,0.89
4889.00,0.89
4888.00,0.89
4887.00,0.89
4886.00,0.90
4885.00,0.90
4884.00,0.90
4883.00,0.90
4882.00,0.90
4881.00,0.91
4880.00,0.91
4879.00,0.91
4878.00,0.91
4877.00,0.91
4876.00,0.91
4875.00,0.91
4874.00,0.91
4873.00,0.91
4872.00,0.91
4871.00,0.91
4870.00,0.91
4869.00,0.91
4868.00,0.91
4867.00,0.91
4866.00,0.90
4865.00,0.90
4864.00,0.90
4863.00,0.90
4862.00,0.90
4861.00,0.90
4860.00,0.90
4859.00,0.90
4858.00,0.90
4857.00,0.90
4856.00,0.90
4855.00,0.90
4854.00,0.90
4853.00,0.90
4852.00,0.90
4851.00,0.90
4850.00,0.90
4849.00,0.90
4848.00,0.90
4847.00,0.90
4846.00,0.90
4845.00,0.90
4844.00,0.90
4843.00,0.90
4842.00,0.90
4841.00,0.90
4840.00,0.90
4839.00,0.90
4838.00,0.90
4837.00,0.90
4836.00,0.90
4835.00,0.90
4834.00,0.90
4833.00,0.90
4832.00,0.90
4831.00,0.90
4830.00,0.90
4829.00,0.90
4828.00,0.90
4827.00,0.90
4826.00,0.90
4825.00,0.90
4824.00,0.90
4823.00,0.90
4822.00,0.90
4821.00,0.90
4820.00,0.90
4819.00,0.90
4818.00,0.90
4817.00,0.90
4816.00,0.90
4815.00,0.90
4814.00,0.90
4813.00,0.91
4812.00,0.91
4811.00,0.91
4810.00,0.91
4809.00,0.92
4808.00,0.92
4807.00,0.92
4806.00,0.92
4805.00,0.93
4804.00,0.93
4803.00,0.93
4802.00,0.93
4801.00,0.94
4800.00,0.94
4799.00,0.94
4798.00,0.94
4797.00,0.95
4796.00,0.95
4795.00,0.95
4794.00,0.96
4793.00,0.96
4792.00,0.96
4791.00,0.97
4790.00,0.97
4789.00,0.97
4788.00,0.98
4787.00,0.98
4786.00,0.98
4785.00,0.99
4784.00,0.99
4783.00,0.99
4782.00,0.99
4781.00,1.00
4780.00,1.00
4779.00,1.00
4778.00,1.01
4777.00,1.01
4776.00,1.01
4775.00,1.02
4774.00,1.02
4773.00,1.02
4772.00,1.03
4771.00,1.03
4770.00,1.03
4769.00,1.03
4768.00,1.04
4767.00,1.04
4766.00,1.04
4765.00,1.04
4764.00,1.04
4763.00,1.04
4762.00,1.04
4761.00,1.04
4760.00,1.04
4759.00,1.04
4758.00,1.05
4757.00,1.05
4756.00,1.05
4755.00,1.05
4754.00,1.05
4753.00,1.05
4752.00,1.05
4751.00,1.05
4750.00,1.05
4749.00,1.05
4748.00,1.05
4747.00,1.05
4746.00,1.05
4745.00,1.05
4744.00,1.05
4743.00,1.05
4742.00,1.05
4741.00,1.05
4740.00,1.05
4739.00,1.05
4738.00,1.05
4737.00,1.05
4736.00,1.05
4735.00,1.05
4734.00,1.05
4733.00,1.06
4732.00,1.06
4731.00,1.06
4730.00,1.06
4729.00,1.06
4728.00,1.06
4727.00,1.06
4726.00,1.06
4725.00,1.06
4724.00,1.07
4723.00,1.07
4722.00,1.07
4721.00,1.07
4720.00,1.08
4719.00,1.08
4718.00,1.08
4717.00,1.08
4716.00,1.08
4715.00,1.09
4714.00,1.09
4713.00,1.09
4712.00,1.09
4711.00,1.09
4710.00,1.10
4709.00,1.10
4708.00,1.10
4707.00,1.10
4706.00,1.10
4705.00,1.11
4704.00,1.11
4703.00,1.11
4702.00,1.11
4701.00,1.11
4700.00,1.11
4699.00,1.12
4698.00,1.12
4697.00,1.12
4696.00,1.12
4695.00,1.12
4694.00,1.12
4693.00,1.13
4692.00,1.13
4691.00,1.13
4690.00,1.13
4689.00,1.14
4688.00,1.14
4687.00,1.14
4686.00,1.14
4685.00,1.14
4684.00,1.15
4683.00,1.15
4682.00,1.15
4681.00,1.15
4680.00,1.15
4679.00,1.16
4678.00,1.16
4677.00,1.16
4676.00,1.17
4675.00,1.17
4674.00,1.17
4673.00,1.18
4672.00,1.18
4671.00,1.18
4670.00,1.19
4669.00,1.19
4668.00,1.19
4667.00,1.19
4666.00,1.20
4665.00,1.20
4664.00,1.20
4663.00,1.20
4662.00,1.20
4661.00,1.20
4660.00,1.21
4659.00,1.21
4658.00,1.21
4657.00,1.21
4656.00,1.21
4655.00,1.21
4654.00,1.22
4653.00,1.22
4652.00,1.22
4651.00,1.22
4650.00,1.22
4649.00,1.22
4648.00,1.22
4647.00,1.22
4646.00,1.22
4645.00,1.22
4644.00,1.22
4643.00,1.22
4642.00,1.22
4641.00,1.22
4640.00,1.22
4639.00,1.22
4638.00,1.22
4637.00,1.22
4636.00,1.22
4635.00,1.22
4634.00,1.22
4633.00,1.22
4632.00,1.22
4631.00,1.22
4630.00,1.22
4629.00,1.22
4628.00,1.22
4627.00,1.22
4626.00,1.22
4625.00,1.22
4624.00,1.23
4623.00,1.23
4622.00,1.23
4621.00,1.23
4620.00,1.23
4619.00,1.23
4618.00,1.23
4617.00,1.23
4616.00,1.23
4615.00,1.23
4614.00,1.23
4613.00,1.23
4612.00,1.23
4611.00,1.23
4610.00,1.23
4609.00,1.23
4608.00,1.23
4607.00,1.23
4606.00,1.23
4605.00,1.23
4604.00,1.23
4603.00,1.23
4602.00,1.23
4601.00,1.23
4600.00,1.23
4599.00,1.23
4598.00,1.23
4597.00,1.23
4596.00,1.23
4595.00,1.23
4594.00,1.23
4593.00,1.23
4592.00,1.23
4591.00,1.23
4590.00,1.23
4589.00,1.23
4588.00,1.23
4587.00,1.23
4586.00,1.23
4585.00,1.23
4584.00,1.23
4583.00,1.24
4582.00,1.24
4581.00,1.24
4580.00,1.24
4579.00,1.25
4578.00,1.25
4577.00,1.25
4576.00,1.25
4575.00,1.25
4574.00,1.25
4573.00,1.26
4572.00,1.26
4571.00,1.26
4570.00,1.26
4569.00,1.26
4568.00,1.26
4567.00,1.26
4566.00,1.27
4565.00,1.27
4564.00,1.27
4563.00,1.27
4562.00,1.27
4561.00,1.27
4560.00,1.27
4559.00,1.27
4558.00,1.27
4557.00,1.27
4556.00,1.27
4555.00,1.27
4554.00,1.27
4553.00,1.27
4552.00,1.27
4551.00,1.27
4550.00,1.27
4549.00,1.27
4548.00,1.27
4547.00,1.27
4546.00,1.27
4545.00,1.27
4544.00,1.27
4543.00,1.27
4542.00,1.27
4541.00,1.27
4540.00,1.28
4539.00,1.28
4538.00,1.28
4537.00,1.28
4536.00,1.28
4535.00,1.28
4534.00,1.28
4533.00,1.28
4532.00,1.28
4531.00,1.28
4530.00,1.28
4529.00,1.28
4528.00,1.29
4527.00,1.29
4526.00,1.29
4525.00,1.29
4524.00,1.29
4523.00,1.29
4522.00,1.29
4521.00,1.29
4520.00,1.29
4519.00,1.30
4518.00,1.30
4517.00,1.30
4516.00,1.30
4515.00,1.30
4514.00,1.30
4513.00,1.30
4512.00,1.30
4511.00,1.30
4510.00,1.30
4509.00,1.30
4508.00,1.31
4507.00,1.31
4506.00,1.31
4505.00,1.31
4504.00,1.31
4503.00,1.31
4502.00,1.31
4501.00,1.31
4500.00,1.31
4499.00,1.31
4498.00,1.31
4497.00,1.31
4496.00,1.30
4495.00,1.30
4494.00,1.30
4493.00,1.30
4492.00,1.29
4491.00,1.29
4490.00,1.29
4489.00,1.29
4488.00,1.28
4487.00,1.28
4486.00,1.27
4485.00,1.27
4484.00,1.26
4483.00,1.26
4482.00,1.26
4481.00,1.25
4480.00,1.25
4479.00,1.25
4478.00,1.24
4477.00,1.24
4476.00,1.23
4475.00,1.23
4474.00,1.23
4473.00,1.22
4472.00,1.22
4471.00,1.22
4470.00,1.21
4469.00,1.21
4468.00,1.21
4467.00,1.20
4466.00,1.20
4465.00,1.20
4464.00,1.19
4463.00,1.19
4462.00,1.19
4461.00,1.19
4460.00,1.18
4459.00,1.18
4458.00,1.18
4457.00,1.18
4456.00,1.17
4455.00,1.17
4454.00,1.17
4453.00,1.16
4452.00,1.16
4451.00,1.15
4450.00,1.15
4449.00,1.15
4448.00,1.14
4447.00,1.14
4446.00,1.13
4445.00,1.13
4444.00,1.13
4443.00,1.12
4442.00,1.12
4441.00,1.11
4440.00,1.11
4439.00,1.11
4438.00,1.11
4437.00,1.10
4436.00,1.10
4435.00,1.10
4434.00,1.09
4433.00,1.09
4432.00,1.09
4431.00,1.08
4430.00,1.08
4429.00,1.07
4428.00,1.07
4427.00,1.07
4426.00,1.07
4425.00,1.07
4424.00,1.06
4423.00,1.06
4422.00,1.06
4421.00,1.06
4420.00,1.06
4419.00,1.06
4418.00,1.06
4417.00,1.06
4416.00,1.05
4415.00,1.05
4414.00,1.05
4413.00,1.05
4412.00,1.05
4411.00,1.05
4410.00,1.05
4409.00,1.05
4408.00,1.05
4407.00,1.05
4406.00,1.06
4405.00,1.06
4404.00,1.06
4403.00,1.06
4402.00,1.06
4401.00,1.06
4400.00,1.06
4399.00,1.07
4398.00,1.07
4397.00,1.07
4396.00,1.07
4395.00,1.07
4394.00,1.07
4393.00,1.07
4392.00,1.07
4391.00,1.07
4390.00,1.07
4389.00,1.07
4388.00,1.07
4387.00,1.07
4386.00,1.07
4385.00,1.07
4384.00,1.07
4383.00,1.07
4382.00,1.07
4381.00,1.07
4380.00,1.07
4379.00,1.07
4378.00,1.08
4377.00,1.08
4376.00,1.08
4375.00,1.08
4374.00,1.08
4373.00,1.08
4372.00,1.08
4371.00,1.09
4370.00,1.09
4369.00,1.09
4368.00,1.09
4367.00,1.09
4366.00,1.09
4365.00,1.10
4364.00,1.10
4363.00,1.10
4362.00,1.10
4361.00,1.10
4360.00,1.11
4359.00,1.11
4358.00,1.11
4357.00,1.12
4356.00,1.12
4355.00,1.12
4354.00,1.12
4353.00,1.12
4352.00,1.12
4351.00,1.12
4350.00,1.12
4349.00,1.11
4348.00,1.11
4347.00,1.11
4346.00,1.11
4345.00,1.11
4344.00,1.11
4343.00,1.11
4342.00,1.10
4341.00,1.10
4340.00,1.10
4339.00,1.10
4338.00,1.10
4337.00,1.10
4336.00,1.09
4335.00,1.09
4334.00,1.09
4333.00,1.09
4332.00,1.09
4331.00,1.09
4330.00,1.09
4329.00,1.09
4328.00,1.09
4327.00,1.09
4326.00,1.09
4325.00,1.10
4324.00,1.10
4323.00,1.10
4322.00,1.10
4321.00,1.11
4320.00,1.11
4319.00,1.11
4318.00,1.12
4317.00,1.12
4316.00,1.12
4315.00,1.12
4314.00,1.13
4313.00,1.13
4312.00,1.13
4311.00,1.14
4310.00,1.14
4309.00,1.14
4308.00,1.15
4307.00,1.15
4306.00,1.15
4305.00,1.15
4304.00,1.15
4303.00,1.15
4302.00,1.15
4301.00,1.14
4300.00,1.14
4299.00,1.14
4298.00,1.14
4297.00,1.14
4296.00,1.13
4295.00,1.13
4294.00,1.13
4293.00,1.13
4292.00,1.13
4291.00,1.13
4290.00,1.13
4289.00,1.12
4288.00,1.12
4287.00,1.12
4286.00,1.12
4285.00,1.12
4284.00,1.12
4283.00,1.11
4282.00,1.11
4281.00,1.11
4280.00,1.11
4279.00,1.11
4278.00,1.11
4277.00,1.11
4276.00,1.11
4275.00,1.12
4274.00,1.12
4273.00,1.12
4272.00,1.12
4271.00,1.12
4270.00,1.12
4269.00,1.12
4268.00,1.12
4267.00,1.13
4266.00,1.13
4265.00,1.13
4264.00,1.13
4263.00,1.13
4262.00,1.13
4261.00,1.13
4260.00,1.13
4259.00,1.13
4258.00,1.13
4257.00,1.13
4256.00,1.13
4255.00,1.14
4254.00,1.14
4253.00,1.14
4252.00,1.14
4251.00,1.14
4250.00,1.14
4249.00,1.14
4248.00,1.14
4247.00,1.14
4246.00,1.15
4245.00,1.15
4244.00,1.15
4243.00,1.15
4242.00,1.15
4241.00,1.16
4240.00,1.16
4239.00,1.16
4238.00,1.16
4237.00,1.16
4236.00,1.17
4235.00,1.17
4234.00,1.17
4233.00,1.18
4232.00,1.18
4231.00,1.18
4230.00,1.19
4229.00,1.19
4228.00,1.20
4227.00,1.20
4226.00,1.20
4225.00,1.20
4224.00,1.21
4223.00,1.21
4222.00,1.21
4221.00,1.21
4220.00,1.21
4219.00,1.21
4218.00,1.21
4217.00,1.21
4216.00,1.21
4215.00,1.21
4214.00,1.21
4213.00,1.21
4212.00,1.21
4211.00,1.21
4210.00,1.21
4209.00,1.21
4208.00,1.21
4207.00,1.21
4206.00,1.21
4205.00,1.21
4204.00,1.20
4203.00,1.20
4202.00,1.20
4201.00,1.20
4200.00,1.20
4199.00,1.20
4198.00,1.19
4197.00,1.19
4196.00,1.19
4195.00,1.19
4194.00,1.19
4193.00,1.19
4192.00,1.19
4191.00,1.19
4190.00,1.19
4189.00,1.19
4188.00,1.19
4187.00,1.19
4186.00,1.19
4185.00,1.19
4184.00,1.19
4183.00,1.18
4182.00,1.18
4181.00,1.18
4180.00,1.19
4179.00,1.19
4178.00,1.19
4177.00,1.19
4176.00,1.19
4175.00,1.19
4174.00,1.19
4173.00,1.19
4172.00,1.19
4171.00,1.20
4170.00,1.20
4169.00,1.20
4168.00,1.20
4167.00,1.21
4166.00,1.21
4165.00,1.21
4164.00,1.21
4163.00,1.21
4162.00,1.22
4161.00,1.22
4160.00,1.22
4159.00,1.22
4158.00,1.22
4157.00,1.22
4156.00,1.22
4155.00,1.22
4154.00,1.22
4153.00,1.22
4152.00,1.22
4151.00,1.22
4150.00,1.22
4149.00,1.22
4148.00,1.22
4147.00,1.22
4146.00,1.22
4145.00,1.22
4144.00,1.22
4143.00,1.22
4142.00,1.21
4141.00,1.21
4140.00,1.21
4139.00,1.21
4138.00,1.21
4137.00,1.21
4136.00,1.21
4135.00,1.21
4134.00,1.21
4133.00,1.21
4132.00,1.21
4131.00,1.21
4130.00,1.22
4129.00,1.22
4128.00,1.22
4127.00,1.22
4126.00,1.21
4125.00,1.21
4124.00,1.22
4123.00,1.22
4122.00,1.22
4121.00,1.22
4120.00,1.22
4119.00,1.22
4118.00,1.22
4117.00,1.22
4116.00,1.22
4115.00,1.22
4114.00,1.22
4113.00,1.22
4112.00,1.22
4111.00,1.22
4110.00,1.22
4109.00,1.22
4108.00,1.21
4107.00,1.21
4106.00,1.21
4105.00,1.22
4104.00,1.22
4103.00,1.22
4102.00,1.22
4101.00,1.23
4100.00,1.23
4099.00,1.24
4098.00,1.24
4097.00,1.25
4096.00,1.25
4095.00,1.25
4094.00,1.26
4093.00,1.26
4092.00,1.26
4091.00,1.27
4090.00,1.27
4089.00,1.28
4088.00,1.28
4087.00,1.29
4086.00,1.29
4085.00,1.29
4084.00,1.30
4083.00,1.30
4082.00,1.31
4081.00,1.31
4080.00,1.31
4079.00,1.31
4078.00,1.31
4077.00,1.31
4076.00,1.31
4075.00,1.31
4074.00,1.31
4073.00,1.30
4072.00,1.30
4071.00,1.30
4070.00,1.29
4069.00,1.29
4068.00,1.28
4067.00,1.28
4066.00,1.28
4065.00,1.27
4064.00,1.27
4063.00,1.26
4062.00,1.25
4061.00,1.25
4060.00,1.24
4059.00,1.24
4058.00,1.23
4057.00,1.23
4056.00,1.22
4055.00,1.21
4054.00,1.21
4053.00,1.21
4052.00,1.20
4051.00,1.20
4050.00,1.20
4049.00,1.19
4048.00,1.19
4047.00,1.19
4046.00,1.19
4045.00,1.19
4044.00,1.18
4043.00,1.18
4042.00,1.18
4041.00,1.18
4040.00,1.18
4039.00,1.18
4038.00,1.18
4037.00,1.18
4036.00,1.18
4035.00,1.18
4034.00,1.19
4033.00,1.19
4032.00,1.19
4031.00,1.19
4030.00,1.20
4029.00,1.20
4028.00,1.20
4027.00,1.21
4026.00,1.21
4025.00,1.21
4024.00,1.22
4023.00,1.22
4022.00,1.23
4021.00,1.23
4020.00,1.24
4019.00,1.24
4018.00,1.25
4017.00,1.25
4016.00,1.26
4015.00,1.26
4014.00,1.27
4013.00,1.28
4012.00,1.29
4011.00,1.29
4010.00,1.30
4009.00,1.31
4008.00,1.32
4007.00,1.33
4006.00,1.34
4005.00,1.35
4004.00,1.36
4003.00,1.37
4002.00,1.38
4001.00,1.39
4000.00,1.40
