创建为新数据集,样品 882 用户 Administrator 日期 星期一, 七月 29 2019
cm-1,%T
10000.00,1.04
9999.00,1.06
9998.00,1.08
9997.00,1.10
9996.00,1.11
9995.00,1.13
9994.00,1.14
9993.00,1.16
9992.00,1.17
9991.00,1.18
9990.00,1.19
9989.00,1.19
9988.00,1.20
9987.00,1.20
9986.00,1.20
9985.00,1.21
9984.00,1.21
9983.00,1.21
9982.00,1.21
9981.00,1.21
9980.00,1.20
9979.00,1.20
9978.00,1.20
9977.00,1.19
9976.00,1.19
9975.00,1.18
9974.00,1.17
9973.00,1.17
9972.00,1.16
9971.00,1.16
9970.00,1.15
9969.00,1.15
9968.00,1.15
9967.00,1.15
9966.00,1.16
9965.00,1.16
9964.00,1.17
9963.00,1.17
9962.00,1.18
9961.00,1.19
9960.00,1.20
9959.00,1.22
9958.00,1.23
9957.00,1.24
9956.00,1.25
9955.00,1.26
9954.00,1.27
9953.00,1.29
9952.00,1.30
9951.00,1.31
9950.00,1.33
9949.00,1.34
9948.00,1.35
9947.00,1.36
9946.00,1.38
9945.00,1.39
9944.00,1.40
9943.00,1.41
9942.00,1.41
9941.00,1.42
9940.00,1.42
9939.00,1.43
9938.00,1.43
9937.00,1.43
9936.00,1.43
9935.00,1.43
9934.00,1.43
9933.00,1.42
9932.00,1.42
9931.00,1.42
9930.00,1.41
9929.00,1.41
9928.00,1.40
9927.00,1.40
9926.00,1.39
9925.00,1.38
9924.00,1.38
9923.00,1.37
9922.00,1.37
9921.00,1.36
9920.00,1.36
9919.00,1.36
9918.00,1.36
9917.00,1.36
9916.00,1.36
9915.00,1.37
9914.00,1.37
9913.00,1.38
9912.00,1.39
9911.00,1.40
9910.00,1.40
9909.00,1.41
9908.00,1.42
9907.00,1.43
9906.00,1.44
9905.00,1.45
9904.00,1.47
9903.00,1.48
9902.00,1.49
9901.00,1.50
9900.00,1.51
9899.00,1.52
9898.00,1.53
9897.00,1.54
9896.00,1.55
9895.00,1.55
9894.00,1.56
9893.00,1.56
9892.00,1.56
9891.00,1.56
9890.00,1.56
9889.00,1.55
9888.00,1.54
9887.00,1.54
9886.00,1.53
9885.00,1.52
9884.00,1.50
9883.00,1.49
9882.00,1.48
9881.00,1.46
9880.00,1.44
9879.00,1.43
9878.00,1.41
9877.00,1.39
9876.00,1.38
9875.00,1.36
9874.00,1.35
9873.00,1.33
9872.00,1.32
9871.00,1.30
9870.00,1.29
9869.00,1.28
9868.00,1.27
9867.00,1.26
9866.00,1.25
9865.00,1.24
9864.00,1.23
9863.00,1.22
9862.00,1.22
9861.00,1.21
9860.00,1.20
9859.00,1.20
9858.00,1.20
9857.00,1.20
9856.00,1.20
9855.00,1.20
9854.00,1.20
9853.00,1.20
9852.00,1.20
9851.00,1.21
9850.00,1.21
9849.00,1.21
9848.00,1.22
9847.00,1.22
9846.00,1.23
9845.00,1.23
9844.00,1.23
9843.00,1.24
9842.00,1.24
9841.00,1.25
9840.00,1.25
9839.00,1.26
9838.00,1.27
9837.00,1.27
9836.00,1.28
9835.00,1.28
9834.00,1.29
9833.00,1.30
9832.00,1.30
9831.00,1.31
9830.00,1.31
9829.00,1.31
9828.00,1.31
9827.00,1.31
9826.00,1.32
9825.00,1.32
9824.00,1.32
9823.00,1.32
9822.00,1.31
9821.00,1.31
9820.00,1.31
9819.00,1.31
9818.00,1.31
9817.00,1.31
9816.00,1.30
9815.00,1.30
9814.00,1.30
9813.00,1.30
9812.00,1.30
9811.00,1.29
9810.00,1.29
9809.00,1.29
9808.00,1.28
9807.00,1.28
9806.00,1.28
9805.00,1.28
9804.00,1.27
9803.00,1.27
9802.00,1.27
9801.00,1.27
9800.00,1.27
9799.00,1.27
9798.00,1.27
9797.00,1.27
9796.00,1.28
9795.00,1.28
9794.00,1.28
9793.00,1.28
9792.00,1.28
9791.00,1.28
9790.00,1.28
9789.00,1.27
9788.00,1.27
9787.00,1.27
9786.00,1.26
9785.00,1.26
9784.00,1.25
9783.00,1.25
9782.00,1.24
9781.00,1.24
9780.00,1.23
9779.00,1.23
9778.00,1.22
9777.00,1.22
9776.00,1.22
9775.00,1.22
9774.00,1.21
9773.00,1.21
9772.00,1.21
9771.00,1.21
9770.00,1.21
9769.00,1.20
9768.00,1.20
9767.00,1.20
9766.00,1.20
9765.00,1.19
9764.00,1.19
9763.00,1.19
9762.00,1.19
9761.00,1.19
9760.00,1.19
9759.00,1.20
9758.00,1.20
9757.00,1.20
9756.00,1.21
9755.00,1.21
9754.00,1.22
9753.00,1.22
9752.00,1.23
9751.00,1.23
9750.00,1.23
9749.00,1.23
9748.00,1.23
9747.00,1.23
9746.00,1.23
9745.00,1.23
9744.00,1.23
9743.00,1.23
9742.00,1.23
9741.00,1.23
9740.00,1.23
9739.00,1.23
9738.00,1.23
9737.00,1.23
9736.00,1.23
9735.00,1.23
9734.00,1.23
9733.00,1.24
9732.00,1.24
9731.00,1.24
9730.00,1.24
9729.00,1.24
9728.00,1.24
9727.00,1.24
9726.00,1.24
9725.00,1.24
9724.00,1.24
9723.00,1.24
9722.00,1.24
9721.00,1.24
9720.00,1.24
9719.00,1.24
9718.00,1.25
9717.00,1.25
9716.00,1.25
9715.00,1.25
9714.00,1.25
9713.00,1.26
9712.00,1.26
9711.00,1.26
9710.00,1.26
9709.00,1.26
9708.00,1.26
9707.00,1.26
9706.00,1.26
9705.00,1.27
9704.00,1.27
9703.00,1.27
9702.00,1.27
9701.00,1.27
9700.00,1.27
9699.00,1.27
9698.00,1.27
9697.00,1.27
9696.00,1.27
9695.00,1.27
9694.00,1.27
9693.00,1.27
9692.00,1.28
9691.00,1.28
9690.00,1.27
9689.00,1.27
9688.00,1.27
9687.00,1.27
9686.00,1.27
9685.00,1.27
9684.00,1.26
9683.00,1.26
9682.00,1.26
9681.00,1.26
9680.00,1.25
9679.00,1.25
9678.00,1.25
9677.00,1.25
9676.00,1.25
9675.00,1.25
9674.00,1.25
9673.00,1.25
9672.00,1.26
9671.00,1.26
9670.00,1.26
9669.00,1.26
9668.00,1.26
9667.00,1.27
9666.00,1.27
9665.00,1.27
9664.00,1.27
9663.00,1.27
9662.00,1.28
9661.00,1.28
9660.00,1.28
9659.00,1.28
9658.00,1.28
9657.00,1.28
9656.00,1.28
9655.00,1.28
9654.00,1.28
9653.00,1.28
9652.00,1.28
9651.00,1.28
9650.00,1.27
9649.00,1.27
9648.00,1.27
9647.00,1.26
9646.00,1.26
9645.00,1.26
9644.00,1.25
9643.00,1.25
9642.00,1.25
9641.00,1.24
9640.00,1.24
9639.00,1.24
9638.00,1.24
9637.00,1.24
9636.00,1.24
9635.00,1.24
9634.00,1.24
9633.00,1.24
9632.00,1.24
9631.00,1.25
9630.00,1.25
9629.00,1.26
9628.00,1.26
9627.00,1.26
9626.00,1.27
9625.00,1.27
9624.00,1.28
9623.00,1.28
9622.00,1.29
9621.00,1.29
9620.00,1.29
9619.00,1.29
9618.00,1.29
9617.00,1.29
9616.00,1.29
9615.00,1.29
9614.00,1.29
9613.00,1.29
9612.00,1.28
9611.00,1.28
9610.00,1.27
9609.00,1.27
9608.00,1.26
9607.00,1.25
9606.00,1.24
9605.00,1.23
9604.00,1.22
9603.00,1.21
9602.00,1.20
9601.00,1.18
9600.00,1.17
9599.00,1.16
9598.00,1.14
9597.00,1.13
9596.00,1.12
9595.00,1.10
9594.00,1.09
9593.00,1.08
9592.00,1.07
9591.00,1.06
9590.00,1.05
9589.00,1.04
9588.00,1.03
9587.00,1.03
9586.00,1.02
9585.00,1.02
9584.00,1.01
9583.00,1.01
9582.00,1.01
9581.00,1.00
9580.00,1.00
9579.00,1.01
9578.00,1.01
9577.00,1.01
9576.00,1.02
9575.00,1.02
9574.00,1.03
9573.00,1.03
9572.00,1.04
9571.00,1.04
9570.00,1.05
9569.00,1.06
9568.00,1.06
9567.00,1.07
9566.00,1.08
9565.00,1.08
9564.00,1.09
9563.00,1.09
9562.00,1.10
9561.00,1.11
9560.00,1.11
9559.00,1.12
9558.00,1.12
9557.00,1.13
9556.00,1.13
9555.00,1.14
9554.00,1.14
9553.00,1.14
9552.00,1.14
9551.00,1.14
9550.00,1.14
9549.00,1.14
9548.00,1.14
9547.00,1.14
9546.00,1.13
9545.00,1.13
9544.00,1.13
9543.00,1.13
9542.00,1.13
9541.00,1.13
9540.00,1.13
9539.00,1.13
9538.00,1.13
9537.00,1.13
9536.00,1.13
9535.00,1.12
9534.00,1.12
9533.00,1.12
9532.00,1.12
9531.00,1.12
9530.00,1.11
9529.00,1.11
9528.00,1.11
9527.00,1.12
9526.00,1.12
9525.00,1.12
9524.00,1.12
9523.00,1.13
9522.00,1.13
9521.00,1.14
9520.00,1.14
9519.00,1.15
9518.00,1.15
9517.00,1.16
9516.00,1.16
9515.00,1.17
9514.00,1.17
9513.00,1.18
9512.00,1.19
9511.00,1.19
9510.00,1.20
9509.00,1.20
9508.00,1.21
9507.00,1.22
9506.00,1.23
9505.00,1.23
9504.00,1.24
9503.00,1.25
9502.00,1.25
9501.00,1.26
9500.00,1.27
9499.00,1.27
9498.00,1.27
9497.00,1.28
9496.00,1.28
9495.00,1.28
9494.00,1.28
9493.00,1.28
9492.00,1.28
9491.00,1.28
9490.00,1.29
9489.00,1.29
9488.00,1.28
9487.00,1.28
9486.00,1.28
9485.00,1.28
9484.00,1.28
9483.00,1.28
9482.00,1.27
9481.00,1.27
9480.00,1.26
9479.00,1.25
9478.00,1.25
9477.00,1.24
9476.00,1.23
9475.00,1.23
9474.00,1.22
9473.00,1.21
9472.00,1.21
9471.00,1.20
9470.00,1.19
9469.00,1.19
9468.00,1.18
9467.00,1.18
9466.00,1.17
9465.00,1.17
9464.00,1.17
9463.00,1.17
9462.00,1.16
9461.00,1.16
9460.00,1.16
9459.00,1.16
9458.00,1.16
9457.00,1.17
9456.00,1.17
9455.00,1.17
9454.00,1.17
9453.00,1.17
9452.00,1.17
9451.00,1.18
9450.00,1.18
9449.00,1.18
9448.00,1.18
9447.00,1.19
9446.00,1.19
9445.00,1.19
9444.00,1.19
9443.00,1.19
9442.00,1.19
9441.00,1.19
9440.00,1.18
9439.00,1.18
9438.00,1.18
9437.00,1.17
9436.00,1.17
9435.00,1.16
9434.00,1.15
9433.00,1.15
9432.00,1.14
9431.00,1.13
9430.00,1.12
9429.00,1.12
9428.00,1.11
9427.00,1.11
9426.00,1.10
9425.00,1.10
9424.00,1.09
9423.00,1.09
9422.00,1.09
9421.00,1.09
9420.00,1.09
9419.00,1.09
9418.00,1.09
9417.00,1.09
9416.00,1.09
9415.00,1.09
9414.00,1.10
9413.00,1.10
9412.00,1.10
9411.00,1.11
9410.00,1.11
9409.00,1.12
9408.00,1.13
9407.00,1.13
9406.00,1.14
9405.00,1.15
9404.00,1.16
9403.00,1.17
9402.00,1.17
9401.00,1.18
9400.00,1.19
9399.00,1.20
9398.00,1.20
9397.00,1.21
9396.00,1.22
9395.00,1.22
9394.00,1.22
9393.00,1.23
9392.00,1.23
9391.00,1.23
9390.00,1.24
9389.00,1.24
9388.00,1.24
9387.00,1.24
9386.00,1.24
9385.00,1.24
9384.00,1.24
9383.00,1.23
9382.00,1.23
9381.00,1.23
9380.00,1.23
9379.00,1.22
9378.00,1.21
9377.00,1.21
9376.00,1.20
9375.00,1.20
9374.00,1.19
9373.00,1.18
9372.00,1.17
9371.00,1.17
9370.00,1.16
9369.00,1.15
9368.00,1.15
9367.00,1.14
9366.00,1.14
9365.00,1.13
9364.00,1.13
9363.00,1.13
9362.00,1.13
9361.00,1.12
9360.00,1.13
9359.00,1.13
9358.00,1.13
9357.00,1.13
9356.00,1.14
9355.00,1.14
9354.00,1.15
9353.00,1.16
9352.00,1.17
9351.00,1.18
9350.00,1.20
9349.00,1.21
9348.00,1.22
9347.00,1.23
9346.00,1.25
9345.00,1.26
9344.00,1.27
9343.00,1.28
9342.00,1.29
9341.00,1.30
9340.00,1.31
9339.00,1.32
9338.00,1.32
9337.00,1.33
9336.00,1.34
9335.00,1.34
9334.00,1.35
9333.00,1.35
9332.00,1.35
9331.00,1.35
9330.00,1.35
9329.00,1.35
9328.00,1.35
9327.00,1.35
9326.00,1.34
9325.00,1.34
9324.00,1.33
9323.00,1.32
9322.00,1.32
9321.00,1.31
9320.00,1.30
9319.00,1.29
9318.00,1.29
9317.00,1.28
9316.00,1.28
9315.00,1.27
9314.00,1.27
9313.00,1.26
9312.00,1.26
9311.00,1.26
9310.00,1.26
9309.00,1.26
9308.00,1.26
9307.00,1.26
9306.00,1.26
9305.00,1.26
9304.00,1.26
9303.00,1.26
9302.00,1.26
9301.00,1.26
9300.00,1.26
9299.00,1.26
9298.00,1.26
9297.00,1.26
9296.00,1.26
9295.00,1.26
9294.00,1.26
9293.00,1.26
9292.00,1.25
9291.00,1.25
9290.00,1.25
9289.00,1.25
9288.00,1.24
9287.00,1.24
9286.00,1.24
9285.00,1.23
9284.00,1.22
9283.00,1.22
9282.00,1.21
9281.00,1.20
9280.00,1.19
9279.00,1.17
9278.00,1.16
9277.00,1.15
9276.00,1.14
9275.00,1.13
9274.00,1.13
9273.00,1.12
9272.00,1.11
9271.00,1.11
9270.00,1.11
9269.00,1.10
9268.00,1.10
9267.00,1.10
9266.00,1.09
9265.00,1.09
9264.00,1.09
9263.00,1.09
9262.00,1.08
9261.00,1.08
9260.00,1.08
9259.00,1.08
9258.00,1.08
9257.00,1.08
9256.00,1.09
9255.00,1.09
9254.00,1.10
9253.00,1.10
9252.00,1.11
9251.00,1.11
9250.00,1.12
9249.00,1.13
9248.00,1.13
9247.00,1.14
9246.00,1.14
9245.00,1.14
9244.00,1.14
9243.00,1.15
9242.00,1.15
9241.00,1.15
9240.00,1.16
9239.00,1.16
9238.00,1.17
9237.00,1.17
9236.00,1.17
9235.00,1.18
9234.00,1.18
9233.00,1.19
9232.00,1.19
9231.00,1.19
9230.00,1.20
9229.00,1.20
9228.00,1.20
9227.00,1.20
9226.00,1.20
9225.00,1.20
9224.00,1.20
9223.00,1.21
9222.00,1.21
9221.00,1.21
9220.00,1.21
9219.00,1.21
9218.00,1.21
9217.00,1.21
9216.00,1.21
9215.00,1.21
9214.00,1.21
9213.00,1.21
9212.00,1.21
9211.00,1.20
9210.00,1.20
9209.00,1.19
9208.00,1.19
9207.00,1.18
9206.00,1.18
9205.00,1.17
9204.00,1.17
9203.00,1.16
9202.00,1.16
9201.00,1.15
9200.00,1.15
9199.00,1.14
9198.00,1.13
9197.00,1.12
9196.00,1.12
9195.00,1.11
9194.00,1.10
9193.00,1.10
9192.00,1.09
9191.00,1.09
9190.00,1.08
9189.00,1.08
9188.00,1.08
9187.00,1.07
9186.00,1.07
9185.00,1.07
9184.00,1.07
9183.00,1.07
9182.00,1.07
9181.00,1.08
9180.00,1.08
9179.00,1.08
9178.00,1.09
9177.00,1.09
9176.00,1.10
9175.00,1.10
9174.00,1.11
9173.00,1.12
9172.00,1.12
9171.00,1.13
9170.00,1.14
9169.00,1.14
9168.00,1.15
9167.00,1.15
9166.00,1.16
9165.00,1.17
9164.00,1.17
9163.00,1.18
9162.00,1.18
9161.00,1.18
9160.00,1.19
9159.00,1.19
9158.00,1.19
9157.00,1.20
9156.00,1.20
9155.00,1.20
9154.00,1.20
9153.00,1.20
9152.00,1.20
9151.00,1.20
9150.00,1.20
9149.00,1.20
9148.00,1.21
9147.00,1.21
9146.00,1.21
9145.00,1.21
9144.00,1.21
9143.00,1.21
9142.00,1.22
9141.00,1.22
9140.00,1.22
9139.00,1.22
9138.00,1.22
9137.00,1.22
9136.00,1.23
9135.00,1.23
9134.00,1.23
9133.00,1.23
9132.00,1.23
9131.00,1.24
9130.00,1.24
9129.00,1.24
9128.00,1.24
9127.00,1.24
9126.00,1.25
9125.00,1.25
9124.00,1.25
9123.00,1.25
9122.00,1.25
9121.00,1.25
9120.00,1.26
9119.00,1.26
9118.00,1.26
9117.00,1.26
9116.00,1.26
9115.00,1.26
9114.00,1.25
9113.00,1.25
9112.00,1.25
9111.00,1.25
9110.00,1.25
9109.00,1.26
9108.00,1.26
9107.00,1.26
9106.00,1.26
9105.00,1.26
9104.00,1.27
9103.00,1.27
9102.00,1.27
9101.00,1.28
9100.00,1.28
9099.00,1.28
9098.00,1.28
9097.00,1.29
9096.00,1.29
9095.00,1.29
9094.00,1.30
9093.00,1.30
9092.00,1.30
9091.00,1.31
9090.00,1.31
9089.00,1.31
9088.00,1.32
9087.00,1.32
9086.00,1.33
9085.00,1.33
9084.00,1.33
9083.00,1.34
9082.00,1.34
9081.00,1.34
9080.00,1.34
9079.00,1.34
9078.00,1.34
9077.00,1.33
9076.00,1.33
9075.00,1.33
9074.00,1.33
9073.00,1.32
9072.00,1.32
9071.00,1.32
9070.00,1.32
9069.00,1.32
9068.00,1.31
9067.00,1.31
9066.00,1.31
9065.00,1.30
9064.00,1.30
9063.00,1.30
9062.00,1.29
9061.00,1.29
9060.00,1.28
9059.00,1.28
9058.00,1.27
9057.00,1.27
9056.00,1.26
9055.00,1.26
9054.00,1.25
9053.00,1.25
9052.00,1.24
9051.00,1.24
9050.00,1.23
9049.00,1.23
9048.00,1.22
9047.00,1.22
9046.00,1.21
9045.00,1.21
9044.00,1.20
9043.00,1.20
9042.00,1.19
9041.00,1.19
9040.00,1.19
9039.00,1.18
9038.00,1.18
9037.00,1.18
9036.00,1.17
9035.00,1.17
9034.00,1.17
9033.00,1.17
9032.00,1.17
9031.00,1.17
9030.00,1.17
9029.00,1.17
9028.00,1.17
9027.00,1.17
9026.00,1.17
9025.00,1.18
9024.00,1.18
9023.00,1.18
9022.00,1.19
9021.00,1.19
9020.00,1.20
9019.00,1.20
9018.00,1.21
9017.00,1.22
9016.00,1.22
9015.00,1.23
9014.00,1.23
9013.00,1.24
9012.00,1.25
9011.00,1.25
9010.00,1.26
9009.00,1.26
9008.00,1.27
9007.00,1.27
9006.00,1.27
9005.00,1.28
9004.00,1.28
9003.00,1.28
9002.00,1.29
9001.00,1.29
9000.00,1.29
8999.00,1.29
8998.00,1.29
8997.00,1.29
8996.00,1.29
8995.00,1.29
8994.00,1.29
8993.00,1.29
8992.00,1.28
8991.00,1.28
8990.00,1.28
8989.00,1.27
8988.00,1.27
8987.00,1.26
8986.00,1.26
8985.00,1.25
8984.00,1.25
8983.00,1.24
8982.00,1.24
8981.00,1.24
8980.00,1.23
8979.00,1.23
8978.00,1.23
8977.00,1.22
8976.00,1.22
8975.00,1.22
8974.00,1.22
8973.00,1.22
8972.00,1.21
8971.00,1.21
8970.00,1.21
8969.00,1.21
8968.00,1.21
8967.00,1.21
8966.00,1.21
8965.00,1.21
8964.00,1.21
8963.00,1.21
8962.00,1.21
8961.00,1.21
8960.00,1.22
8959.00,1.22
8958.00,1.22
8957.00,1.22
8956.00,1.22
8955.00,1.22
8954.00,1.22
8953.00,1.22
8952.00,1.22
8951.00,1.22
8950.00,1.22
8949.00,1.22
8948.00,1.22
8947.00,1.22
8946.00,1.22
8945.00,1.22
8944.00,1.22
8943.00,1.22
8942.00,1.22
8941.00,1.22
8940.00,1.21
8939.00,1.21
8938.00,1.21
8937.00,1.21
8936.00,1.21
8935.00,1.21
8934.00,1.21
8933.00,1.21
8932.00,1.21
8931.00,1.21
8930.00,1.21
8929.00,1.21
8928.00,1.21
8927.00,1.22
8926.00,1.22
8925.00,1.22
8924.00,1.22
8923.00,1.22
8922.00,1.22
8921.00,1.22
8920.00,1.23
8919.00,1.23
8918.00,1.23
8917.00,1.23
8916.00,1.24
8915.00,1.24
8914.00,1.25
8913.00,1.25
8912.00,1.25
8911.00,1.26
8910.00,1.26
8909.00,1.26
8908.00,1.27
8907.00,1.27
8906.00,1.27
8905.00,1.27
8904.00,1.27
8903.00,1.27
8902.00,1.27
8901.00,1.27
8900.00,1.27
8899.00,1.27
8898.00,1.26
8897.00,1.26
8896.00,1.26
8895.00,1.26
8894.00,1.25
8893.00,1.25
8892.00,1.25
8891.00,1.24
8890.00,1.24
8889.00,1.23
8888.00,1.22
8887.00,1.22
8886.00,1.21
8885.00,1.21
8884.00,1.20
8883.00,1.20
8882.00,1.19
8881.00,1.19
8880.00,1.19
8879.00,1.19
8878.00,1.19
8877.00,1.19
8876.00,1.19
8875.00,1.19
8874.00,1.19
8873.00,1.19
8872.00,1.20
8871.00,1.20
8870.00,1.20
8869.00,1.20
8868.00,1.21
8867.00,1.21
8866.00,1.22
8865.00,1.22
8864.00,1.23
8863.00,1.23
8862.00,1.24
8861.00,1.24
8860.00,1.25
8859.00,1.25
8858.00,1.26
8857.00,1.26
8856.00,1.26
8855.00,1.27
8854.00,1.27
8853.00,1.27
8852.00,1.27
8851.00,1.26
8850.00,1.26
8849.00,1.26
8848.00,1.26
8847.00,1.25
8846.00,1.25
8845.00,1.25
8844.00,1.24
8843.00,1.24
8842.00,1.24
8841.00,1.23
8840.00,1.23
8839.00,1.23
8838.00,1.22
8837.00,1.22
8836.00,1.22
8835.00,1.22
8834.00,1.21
8833.00,1.21
8832.00,1.21
8831.00,1.20
8830.00,1.20
8829.00,1.20
8828.00,1.20
8827.00,1.20
8826.00,1.20
8825.00,1.20
8824.00,1.20
8823.00,1.21
8822.00,1.21
8821.00,1.21
8820.00,1.21
8819.00,1.21
8818.00,1.22
8817.00,1.22
8816.00,1.22
8815.00,1.22
8814.00,1.23
8813.00,1.23
8812.00,1.23
8811.00,1.23
8810.00,1.23
8809.00,1.23
8808.00,1.24
8807.00,1.24
8806.00,1.24
8805.00,1.25
8804.00,1.25
8803.00,1.26
8802.00,1.26
8801.00,1.26
8800.00,1.27
8799.00,1.27
8798.00,1.28
8797.00,1.28
8796.00,1.29
8795.00,1.29
8794.00,1.30
8793.00,1.30
8792.00,1.30
8791.00,1.31
8790.00,1.31
8789.00,1.32
8788.00,1.32
8787.00,1.32
8786.00,1.33
8785.00,1.33
8784.00,1.33
8783.00,1.33
8782.00,1.34
8781.00,1.34
8780.00,1.34
8779.00,1.34
8778.00,1.34
8777.00,1.34
8776.00,1.33
8775.00,1.33
8774.00,1.33
8773.00,1.33
8772.00,1.32
8771.00,1.32
8770.00,1.31
8769.00,1.31
8768.00,1.30
8767.00,1.29
8766.00,1.29
8765.00,1.28
8764.00,1.27
8763.00,1.27
8762.00,1.26
8761.00,1.25
8760.00,1.25
8759.00,1.24
8758.00,1.23
8757.00,1.23
8756.00,1.22
8755.00,1.21
8754.00,1.21
8753.00,1.20
8752.00,1.19
8751.00,1.19
8750.00,1.18
8749.00,1.17
8748.00,1.17
8747.00,1.16
8746.00,1.16
8745.00,1.15
8744.00,1.14
8743.00,1.14
8742.00,1.14
8741.00,1.13
8740.00,1.13
8739.00,1.13
8738.00,1.12
8737.00,1.12
8736.00,1.12
8735.00,1.12
8734.00,1.12
8733.00,1.11
8732.00,1.11
8731.00,1.11
8730.00,1.11
8729.00,1.11
8728.00,1.11
8727.00,1.11
8726.00,1.11
8725.00,1.11
8724.00,1.11
8723.00,1.11
8722.00,1.12
8721.00,1.12
8720.00,1.12
8719.00,1.13
8718.00,1.13
8717.00,1.14
8716.00,1.15
8715.00,1.15
8714.00,1.16
8713.00,1.17
8712.00,1.17
8711.00,1.18
8710.00,1.19
8709.00,1.19
8708.00,1.20
8707.00,1.21
8706.00,1.22
8705.00,1.22
8704.00,1.23
8703.00,1.24
8702.00,1.25
8701.00,1.26
8700.00,1.26
8699.00,1.27
8698.00,1.28
8697.00,1.28
8696.00,1.29
8695.00,1.30
8694.00,1.30
8693.00,1.30
8692.00,1.30
8691.00,1.30
8690.00,1.30
8689.00,1.30
8688.00,1.30
8687.00,1.30
8686.00,1.30
8685.00,1.30
8684.00,1.29
8683.00,1.29
8682.00,1.29
8681.00,1.28
8680.00,1.28
8679.00,1.27
8678.00,1.27
8677.00,1.26
8676.00,1.25
8675.00,1.25
8674.00,1.24
8673.00,1.24
8672.00,1.23
8671.00,1.23
8670.00,1.22
8669.00,1.22
8668.00,1.21
8667.00,1.21
8666.00,1.21
8665.00,1.20
8664.00,1.20
8663.00,1.20
8662.00,1.20
8661.00,1.20
8660.00,1.20
8659.00,1.20
8658.00,1.20
8657.00,1.20
8656.00,1.20
8655.00,1.20
8654.00,1.20
8653.00,1.20
8652.00,1.21
8651.00,1.21
8650.00,1.21
8649.00,1.21
8648.00,1.22
8647.00,1.22
8646.00,1.22
8645.00,1.22
8644.00,1.22
8643.00,1.22
8642.00,1.23
8641.00,1.23
8640.00,1.23
8639.00,1.23
8638.00,1.23
8637.00,1.23
8636.00,1.23
8635.00,1.23
8634.00,1.23
8633.00,1.23
8632.00,1.23
8631.00,1.24
8630.00,1.24
8629.00,1.24
8628.00,1.24
8627.00,1.24
8626.00,1.24
8625.00,1.24
8624.00,1.24
8623.00,1.24
8622.00,1.24
8621.00,1.24
8620.00,1.24
8619.00,1.24
8618.00,1.24
8617.00,1.24
8616.00,1.24
8615.00,1.23
8614.00,1.23
8613.00,1.23
8612.00,1.23
8611.00,1.22
8610.00,1.22
8609.00,1.22
8608.00,1.22
8607.00,1.22
8606.00,1.21
8605.00,1.21
8604.00,1.21
8603.00,1.20
8602.00,1.20
8601.00,1.20
8600.00,1.19
8599.00,1.19
8598.00,1.19
8597.00,1.18
8596.00,1.18
8595.00,1.18
8594.00,1.18
8593.00,1.18
8592.00,1.17
8591.00,1.17
8590.00,1.17
8589.00,1.17
8588.00,1.17
8587.00,1.17
8586.00,1.17
8585.00,1.17
8584.00,1.17
8583.00,1.17
8582.00,1.17
8581.00,1.17
8580.00,1.17
8579.00,1.17
8578.00,1.17
8577.00,1.17
8576.00,1.17
8575.00,1.17
8574.00,1.17
8573.00,1.17
8572.00,1.18
8571.00,1.18
8570.00,1.18
8569.00,1.18
8568.00,1.18
8567.00,1.18
8566.00,1.18
8565.00,1.18
8564.00,1.19
8563.00,1.19
8562.00,1.19
8561.00,1.19
8560.00,1.19
8559.00,1.19
8558.00,1.20
8557.00,1.20
8556.00,1.20
8555.00,1.20
8554.00,1.20
8553.00,1.20
8552.00,1.20
8551.00,1.20
8550.00,1.20
8549.00,1.20
8548.00,1.20
8547.00,1.20
8546.00,1.20
8545.00,1.20
8544.00,1.20
8543.00,1.19
8542.00,1.19
8541.00,1.19
8540.00,1.19
8539.00,1.18
8538.00,1.18
8537.00,1.18
8536.00,1.18
8535.00,1.18
8534.00,1.17
8533.00,1.17
8532.00,1.17
8531.00,1.17
8530.00,1.17
8529.00,1.17
8528.00,1.17
8527.00,1.17
8526.00,1.17
8525.00,1.17
8524.00,1.17
8523.00,1.18
8522.00,1.18
8521.00,1.18
8520.00,1.18
8519.00,1.18
8518.00,1.18
8517.00,1.19
8516.00,1.19
8515.00,1.19
8514.00,1.19
8513.00,1.19
8512.00,1.19
8511.00,1.20
8510.00,1.20
8509.00,1.20
8508.00,1.20
8507.00,1.20
8506.00,1.20
8505.00,1.20
8504.00,1.20
8503.00,1.20
8502.00,1.20
8501.00,1.20
8500.00,1.20
8499.00,1.21
8498.00,1.21
8497.00,1.21
8496.00,1.21
8495.00,1.21
8494.00,1.21
8493.00,1.21
8492.00,1.21
8491.00,1.22
8490.00,1.22
8489.00,1.22
8488.00,1.22
8487.00,1.23
8486.00,1.23
8485.00,1.23
8484.00,1.23
8483.00,1.24
8482.00,1.24
8481.00,1.24
8480.00,1.24
8479.00,1.25
8478.00,1.25
8477.00,1.25
8476.00,1.25
8475.00,1.25
8474.00,1.25
8473.00,1.25
8472.00,1.25
8471.00,1.25
8470.00,1.25
8469.00,1.25
8468.00,1.25
8467.00,1.25
8466.00,1.25
8465.00,1.25
8464.00,1.25
8463.00,1.25
8462.00,1.25
8461.00,1.25
8460.00,1.24
8459.00,1.24
8458.00,1.24
8457.00,1.24
8456.00,1.24
8455.00,1.24
8454.00,1.24
8453.00,1.24
8452.00,1.24
8451.00,1.24
8450.00,1.24
8449.00,1.24
8448.00,1.24
8447.00,1.24
8446.00,1.24
8445.00,1.24
8444.00,1.24
8443.00,1.24
8442.00,1.24
8441.00,1.24
8440.00,1.24
8439.00,1.24
8438.00,1.24
8437.00,1.24
8436.00,1.24
8435.00,1.23
8434.00,1.23
8433.00,1.23
8432.00,1.23
8431.00,1.23
8430.00,1.22
8429.00,1.22
8428.00,1.22
8427.00,1.21
8426.00,1.21
8425.00,1.21
8424.00,1.20
8423.00,1.20
8422.00,1.19
8421.00,1.19
8420.00,1.18
8419.00,1.18
8418.00,1.17
8417.00,1.17
8416.00,1.17
8415.00,1.16
8414.00,1.16
8413.00,1.16
8412.00,1.16
8411.00,1.15
8410.00,1.15
8409.00,1.15
8408.00,1.15
8407.00,1.15
8406.00,1.14
8405.00,1.14
8404.00,1.14
8403.00,1.14
8402.00,1.14
8401.00,1.14
8400.00,1.14
8399.00,1.14
8398.00,1.14
8397.00,1.15
8396.00,1.15
8395.00,1.15
8394.00,1.15
8393.00,1.16
8392.00,1.16
8391.00,1.16
8390.00,1.16
8389.00,1.16
8388.00,1.17
8387.00,1.17
8386.00,1.17
8385.00,1.17
8384.00,1.17
8383.00,1.17
8382.00,1.18
8381.00,1.18
8380.00,1.18
8379.00,1.18
8378.00,1.19
8377.00,1.19
8376.00,1.19
8375.00,1.19
8374.00,1.19
8373.00,1.19
8372.00,1.19
8371.00,1.19
8370.00,1.19
8369.00,1.19
8368.00,1.19
8367.00,1.19
8366.00,1.20
8365.00,1.20
8364.00,1.20
8363.00,1.20
8362.00,1.20
8361.00,1.20
8360.00,1.20
8359.00,1.20
8358.00,1.20
8357.00,1.20
8356.00,1.20
8355.00,1.20
8354.00,1.20
8353.00,1.20
8352.00,1.20
8351.00,1.19
8350.00,1.19
8349.00,1.19
8348.00,1.19
8347.00,1.19
8346.00,1.19
8345.00,1.19
8344.00,1.19
8343.00,1.19
8342.00,1.19
8341.00,1.19
8340.00,1.19
8339.00,1.19
8338.00,1.19
8337.00,1.19
8336.00,1.19
8335.00,1.19
8334.00,1.19
8333.00,1.19
8332.00,1.18
8331.00,1.18
8330.00,1.18
8329.00,1.18
8328.00,1.18
8327.00,1.18
8326.00,1.18
8325.00,1.18
8324.00,1.18
8323.00,1.18
8322.00,1.17
8321.00,1.17
8320.00,1.17
8319.00,1.17
8318.00,1.17
8317.00,1.17
8316.00,1.17
8315.00,1.17
8314.00,1.17
8313.00,1.17
8312.00,1.16
8311.00,1.16
8310.00,1.16
8309.00,1.16
8308.00,1.16
8307.00,1.16
8306.00,1.15
8305.00,1.15
8304.00,1.15
8303.00,1.15
8302.00,1.15
8301.00,1.15
8300.00,1.15
8299.00,1.15
8298.00,1.15
8297.00,1.16
8296.00,1.16
8295.00,1.16
8294.00,1.16
8293.00,1.16
8292.00,1.16
8291.00,1.16
8290.00,1.16
8289.00,1.16
8288.00,1.16
8287.00,1.16
8286.00,1.16
8285.00,1.16
8284.00,1.17
8283.00,1.17
8282.00,1.17
8281.00,1.18
8280.00,1.18
8279.00,1.18
8278.00,1.18
8277.00,1.19
8276.00,1.19
8275.00,1.19
8274.00,1.19
8273.00,1.19
8272.00,1.19
8271.00,1.20
8270.00,1.20
8269.00,1.20
8268.00,1.20
8267.00,1.20
8266.00,1.20
8265.00,1.20
8264.00,1.20
8263.00,1.20
8262.00,1.20
8261.00,1.20
8260.00,1.20
8259.00,1.20
8258.00,1.20
8257.00,1.20
8256.00,1.20
8255.00,1.20
8254.00,1.20
8253.00,1.20
8252.00,1.20
8251.00,1.20
8250.00,1.20
8249.00,1.20
8248.00,1.19
8247.00,1.19
8246.00,1.19
8245.00,1.19
8244.00,1.20
8243.00,1.20
8242.00,1.20
8241.00,1.20
8240.00,1.20
8239.00,1.20
8238.00,1.21
8237.00,1.21
8236.00,1.21
8235.00,1.21
8234.00,1.22
8233.00,1.22
8232.00,1.22
8231.00,1.22
8230.00,1.23
8229.00,1.23
8228.00,1.23
8227.00,1.24
8226.00,1.24
8225.00,1.24
8224.00,1.25
8223.00,1.25
8222.00,1.26
8221.00,1.26
8220.00,1.26
8219.00,1.27
8218.00,1.27
8217.00,1.27
8216.00,1.28
8215.00,1.28
8214.00,1.28
8213.00,1.28
8212.00,1.28
8211.00,1.28
8210.00,1.28
8209.00,1.28
8208.00,1.28
8207.00,1.28
8206.00,1.28
8205.00,1.28
8204.00,1.28
8203.00,1.28
8202.00,1.28
8201.00,1.28
8200.00,1.28
8199.00,1.27
8198.00,1.27
8197.00,1.27
8196.00,1.27
8195.00,1.26
8194.00,1.26
8193.00,1.26
8192.00,1.26
8191.00,1.25
8190.00,1.25
8189.00,1.25
8188.00,1.25
8187.00,1.25
8186.00,1.25
8185.00,1.25
8184.00,1.25
8183.00,1.25
8182.00,1.25
8181.00,1.24
8180.00,1.24
8179.00,1.24
8178.00,1.24
8177.00,1.24
8176.00,1.24
8175.00,1.24
8174.00,1.24
8173.00,1.24
8172.00,1.24
8171.00,1.24
8170.00,1.24
8169.00,1.24
8168.00,1.23
8167.00,1.23
8166.00,1.23
8165.00,1.23
8164.00,1.23
8163.00,1.23
8162.00,1.22
8161.00,1.22
8160.00,1.22
8159.00,1.22
8158.00,1.21
8157.00,1.21
8156.00,1.21
8155.00,1.21
8154.00,1.20
8153.00,1.20
8152.00,1.20
8151.00,1.20
8150.00,1.20
8149.00,1.20
8148.00,1.20
8147.00,1.20
8146.00,1.20
8145.00,1.20
8144.00,1.20
8143.00,1.20
8142.00,1.20
8141.00,1.20
8140.00,1.20
8139.00,1.21
8138.00,1.21
8137.00,1.21
8136.00,1.22
8135.00,1.22
8134.00,1.22
8133.00,1.23
8132.00,1.23
8131.00,1.23
8130.00,1.24
8129.00,1.24
8128.00,1.24
8127.00,1.25
8126.00,1.25
8125.00,1.25
8124.00,1.25
8123.00,1.26
8122.00,1.26
8121.00,1.26
8120.00,1.26
8119.00,1.26
8118.00,1.27
8117.00,1.27
8116.00,1.27
8115.00,1.27
8114.00,1.27
8113.00,1.27
8112.00,1.27
8111.00,1.27
8110.00,1.27
8109.00,1.27
8108.00,1.27
8107.00,1.27
8106.00,1.28
8105.00,1.28
8104.00,1.28
8103.00,1.28
8102.00,1.28
8101.00,1.28
8100.00,1.28
8099.00,1.28
8098.00,1.28
8097.00,1.28
8096.00,1.28
8095.00,1.28
8094.00,1.29
8093.00,1.29
8092.00,1.29
8091.00,1.29
8090.00,1.29
8089.00,1.29
8088.00,1.30
8087.00,1.30
8086.00,1.30
8085.00,1.30
8084.00,1.30
8083.00,1.30
8082.00,1.30
8081.00,1.30
8080.00,1.30
8079.00,1.31
8078.00,1.31
8077.00,1.31
8076.00,1.31
8075.00,1.31
8074.00,1.32
8073.00,1.32
8072.00,1.32
8071.00,1.32
8070.00,1.32
8069.00,1.32
8068.00,1.32
8067.00,1.32
8066.00,1.32
8065.00,1.32
8064.00,1.32
8063.00,1.32
8062.00,1.31
8061.00,1.31
8060.00,1.31
8059.00,1.31
8058.00,1.30
8057.00,1.30
8056.00,1.30
8055.00,1.30
8054.00,1.29
8053.00,1.29
8052.00,1.28
8051.00,1.28
8050.00,1.27
8049.00,1.27
8048.00,1.26
8047.00,1.26
8046.00,1.26
8045.00,1.25
8044.00,1.25
8043.00,1.24
8042.00,1.24
8041.00,1.24
8040.00,1.24
8039.00,1.23
8038.00,1.23
8037.00,1.23
8036.00,1.23
8035.00,1.23
8034.00,1.23
8033.00,1.23
8032.00,1.23
8031.00,1.23
8030.00,1.23
8029.00,1.23
8028.00,1.23
8027.00,1.23
8026.00,1.23
8025.00,1.23
8024.00,1.23
8023.00,1.23
8022.00,1.23
8021.00,1.23
8020.00,1.24
8019.00,1.24
8018.00,1.24
8017.00,1.24
8016.00,1.24
8015.00,1.24
8014.00,1.25
8013.00,1.25
8012.00,1.25
8011.00,1.25
8010.00,1.25
8009.00,1.25
8008.00,1.26
8007.00,1.26
8006.00,1.26
8005.00,1.26
8004.00,1.26
8003.00,1.26
8002.00,1.27
8001.00,1.27
8000.00,1.27
7999.00,1.27
7998.00,1.27
7997.00,1.27
7996.00,1.27
7995.00,1.27
7994.00,1.27
7993.00,1.27
7992.00,1.27
7991.00,1.27
7990.00,1.27
7989.00,1.27
7988.00,1.27
7987.00,1.27
7986.00,1.27
7985.00,1.27
7984.00,1.27
7983.00,1.27
7982.00,1.27
7981.00,1.27
7980.00,1.27
7979.00,1.27
7978.00,1.27
7977.00,1.27
7976.00,1.27
7975.00,1.27
7974.00,1.27
7973.00,1.27
7972.00,1.27
7971.00,1.27
7970.00,1.27
7969.00,1.27
7968.00,1.27
7967.00,1.27
7966.00,1.27
7965.00,1.27
7964.00,1.27
7963.00,1.28
7962.00,1.28
7961.00,1.28
7960.00,1.28
7959.00,1.28
7958.00,1.28
7957.00,1.28
7956.00,1.29
7955.00,1.29
7954.00,1.29
7953.00,1.29
7952.00,1.29
7951.00,1.29
7950.00,1.29
7949.00,1.29
7948.00,1.29
7947.00,1.29
7946.00,1.29
7945.00,1.29
7944.00,1.29
7943.00,1.29
7942.00,1.29
7941.00,1.29
7940.00,1.28
7939.00,1.28
7938.00,1.28
7937.00,1.28
7936.00,1.28
7935.00,1.28
7934.00,1.28
7933.00,1.28
7932.00,1.28
7931.00,1.28
7930.00,1.28
7929.00,1.28
7928.00,1.28
7927.00,1.28
7926.00,1.28
7925.00,1.28
7924.00,1.28
7923.00,1.28
7922.00,1.28
7921.00,1.28
7920.00,1.28
7919.00,1.29
7918.00,1.29
7917.00,1.29
7916.00,1.29
7915.00,1.29
7914.00,1.29
7913.00,1.29
7912.00,1.29
7911.00,1.29
7910.00,1.29
7909.00,1.29
7908.00,1.29
7907.00,1.30
7906.00,1.30
7905.00,1.30
7904.00,1.30
7903.00,1.30
7902.00,1.31
7901.00,1.31
7900.00,1.31
7899.00,1.31
7898.00,1.31
7897.00,1.31
7896.00,1.31
7895.00,1.32
7894.00,1.32
7893.00,1.32
7892.00,1.32
7891.00,1.32
7890.00,1.32
7889.00,1.32
7888.00,1.33
7887.00,1.33
7886.00,1.33
7885.00,1.33
7884.00,1.33
7883.00,1.33
7882.00,1.33
7881.00,1.33
7880.00,1.33
7879.00,1.33
7878.00,1.33
7877.00,1.33
7876.00,1.33
7875.00,1.33
7874.00,1.33
7873.00,1.33
7872.00,1.33
7871.00,1.33
7870.00,1.33
7869.00,1.33
7868.00,1.33
7867.00,1.34
7866.00,1.34
7865.00,1.34
7864.00,1.34
7863.00,1.34
7862.00,1.34
7861.00,1.33
7860.00,1.33
7859.00,1.33
7858.00,1.33
7857.00,1.33
7856.00,1.33
7855.00,1.32
7854.00,1.32
7853.00,1.32
7852.00,1.32
7851.00,1.32
7850.00,1.31
7849.00,1.31
7848.00,1.31
7847.00,1.31
7846.00,1.31
7845.00,1.31
7844.00,1.31
7843.00,1.30
7842.00,1.30
7841.00,1.30
7840.00,1.30
7839.00,1.30
7838.00,1.29
7837.00,1.29
7836.00,1.29
7835.00,1.29
7834.00,1.29
7833.00,1.29
7832.00,1.29
7831.00,1.29
7830.00,1.29
7829.00,1.29
7828.00,1.29
7827.00,1.29
7826.00,1.30
7825.00,1.30
7824.00,1.30
7823.00,1.30
7822.00,1.30
7821.00,1.30
7820.00,1.31
7819.00,1.31
7818.00,1.31
7817.00,1.31
7816.00,1.31
7815.00,1.32
7814.00,1.32
7813.00,1.32
7812.00,1.33
7811.00,1.33
7810.00,1.33
7809.00,1.34
7808.00,1.34
7807.00,1.34
7806.00,1.34
7805.00,1.34
7804.00,1.34
7803.00,1.34
7802.00,1.34
7801.00,1.34
7800.00,1.34
7799.00,1.34
7798.00,1.34
7797.00,1.34
7796.00,1.34
7795.00,1.34
7794.00,1.34
7793.00,1.34
7792.00,1.34
7791.00,1.34
7790.00,1.34
7789.00,1.34
7788.00,1.34
7787.00,1.34
7786.00,1.34
7785.00,1.34
7784.00,1.34
7783.00,1.33
7782.00,1.33
7781.00,1.33
7780.00,1.33
7779.00,1.33
7778.00,1.33
7777.00,1.33
7776.00,1.33
7775.00,1.34
7774.00,1.34
7773.00,1.34
7772.00,1.34
7771.00,1.34
7770.00,1.34
7769.00,1.34
7768.00,1.34
7767.00,1.34
7766.00,1.34
7765.00,1.34
7764.00,1.34
7763.00,1.34
7762.00,1.34
7761.00,1.34
7760.00,1.35
7759.00,1.35
7758.00,1.35
7757.00,1.35
7756.00,1.35
7755.00,1.35
7754.00,1.36
7753.00,1.36
7752.00,1.36
7751.00,1.36
7750.00,1.36
7749.00,1.36
7748.00,1.36
7747.00,1.37
7746.00,1.37
7745.00,1.37
7744.00,1.37
7743.00,1.37
7742.00,1.37
7741.00,1.37
7740.00,1.38
7739.00,1.38
7738.00,1.38
7737.00,1.38
7736.00,1.38
7735.00,1.38
7734.00,1.38
7733.00,1.38
7732.00,1.38
7731.00,1.38
7730.00,1.38
7729.00,1.38
7728.00,1.38
7727.00,1.38
7726.00,1.38
7725.00,1.38
7724.00,1.38
7723.00,1.38
7722.00,1.38
7721.00,1.38
7720.00,1.37
7719.00,1.37
7718.00,1.37
7717.00,1.37
7716.00,1.37
7715.00,1.37
7714.00,1.37
7713.00,1.37
7712.00,1.37
7711.00,1.37
7710.00,1.37
7709.00,1.37
7708.00,1.36
7707.00,1.36
7706.00,1.36
7705.00,1.36
7704.00,1.36
7703.00,1.36
7702.00,1.36
7701.00,1.36
7700.00,1.36
7699.00,1.36
7698.00,1.35
7697.00,1.35
7696.00,1.35
7695.00,1.35
7694.00,1.35
7693.00,1.35
7692.00,1.34
7691.00,1.34
7690.00,1.34
7689.00,1.34
7688.00,1.33
7687.00,1.33
7686.00,1.33
7685.00,1.33
7684.00,1.33
7683.00,1.33
7682.00,1.32
7681.00,1.32
7680.00,1.32
7679.00,1.32
7678.00,1.32
7677.00,1.32
7676.00,1.32
7675.00,1.32
7674.00,1.32
7673.00,1.32
7672.00,1.33
7671.00,1.33
7670.00,1.33
7669.00,1.33
7668.00,1.33
7667.00,1.33
7666.00,1.33
7665.00,1.33
7664.00,1.33
7663.00,1.33
7662.00,1.33
7661.00,1.34
7660.00,1.34
7659.00,1.34
7658.00,1.34
7657.00,1.34
7656.00,1.34
7655.00,1.33
7654.00,1.33
7653.00,1.33
7652.00,1.33
7651.00,1.33
7650.00,1.33
7649.00,1.33
7648.00,1.32
7647.00,1.32
7646.00,1.32
7645.00,1.32
7644.00,1.31
7643.00,1.31
7642.00,1.31
7641.00,1.31
7640.00,1.31
7639.00,1.31
7638.00,1.31
7637.00,1.31
7636.00,1.31
7635.00,1.31
7634.00,1.31
7633.00,1.31
7632.00,1.31
7631.00,1.31
7630.00,1.31
7629.00,1.31
7628.00,1.31
7627.00,1.31
7626.00,1.31
7625.00,1.31
7624.00,1.31
7623.00,1.32
7622.00,1.32
7621.00,1.32
7620.00,1.32
7619.00,1.32
7618.00,1.32
7617.00,1.32
7616.00,1.32
7615.00,1.33
7614.00,1.33
7613.00,1.33
7612.00,1.33
7611.00,1.33
7610.00,1.33
7609.00,1.33
7608.00,1.33
7607.00,1.33
7606.00,1.33
7605.00,1.33
7604.00,1.33
7603.00,1.33
7602.00,1.33
7601.00,1.33
7600.00,1.33
7599.00,1.33
7598.00,1.33
7597.00,1.34
7596.00,1.34
7595.00,1.34
7594.00,1.34
7593.00,1.34
7592.00,1.34
7591.00,1.33
7590.00,1.33
7589.00,1.33
7588.00,1.33
7587.00,1.33
7586.00,1.33
7585.00,1.33
7584.00,1.33
7583.00,1.33
7582.00,1.33
7581.00,1.34
7580.00,1.33
7579.00,1.33
7578.00,1.33
7577.00,1.33
7576.00,1.33
7575.00,1.33
7574.00,1.33
7573.00,1.33
7572.00,1.33
7571.00,1.33
7570.00,1.32
7569.00,1.32
7568.00,1.32
7567.00,1.32
7566.00,1.32
7565.00,1.32
7564.00,1.32
7563.00,1.32
7562.00,1.32
7561.00,1.32
7560.00,1.32
7559.00,1.32
7558.00,1.32
7557.00,1.32
7556.00,1.32
7555.00,1.32
7554.00,1.32
7553.00,1.32
7552.00,1.33
7551.00,1.33
7550.00,1.33
7549.00,1.33
7548.00,1.33
7547.00,1.33
7546.00,1.33
7545.00,1.33
7544.00,1.33
7543.00,1.33
7542.00,1.33
7541.00,1.33
7540.00,1.33
7539.00,1.33
7538.00,1.33
7537.00,1.33
7536.00,1.33
7535.00,1.33
7534.00,1.34
7533.00,1.34
7532.00,1.34
7531.00,1.34
7530.00,1.34
7529.00,1.34
7528.00,1.34
7527.00,1.34
7526.00,1.34
7525.00,1.34
7524.00,1.34
7523.00,1.34
7522.00,1.34
7521.00,1.34
7520.00,1.35
7519.00,1.35
7518.00,1.35
7517.00,1.35
7516.00,1.35
7515.00,1.35
7514.00,1.36
7513.00,1.36
7512.00,1.36
7511.00,1.36
7510.00,1.36
7509.00,1.36
7508.00,1.36
7507.00,1.36
7506.00,1.36
7505.00,1.36
7504.00,1.36
7503.00,1.36
7502.00,1.36
7501.00,1.36
7500.00,1.36
7499.00,1.36
7498.00,1.36
7497.00,1.36
7496.00,1.36
7495.00,1.36
7494.00,1.36
7493.00,1.36
7492.00,1.36
7491.00,1.35
7490.00,1.35
7489.00,1.35
7488.00,1.35
7487.00,1.35
7486.00,1.34
7485.00,1.34
7484.00,1.34
7483.00,1.34
7482.00,1.34
7481.00,1.33
7480.00,1.33
7479.00,1.33
7478.00,1.33
7477.00,1.33
7476.00,1.33
7475.00,1.32
7474.00,1.32
7473.00,1.32
7472.00,1.32
7471.00,1.32
7470.00,1.31
7469.00,1.31
7468.00,1.31
7467.00,1.31
7466.00,1.31
7465.00,1.31
7464.00,1.30
7463.00,1.30
7462.00,1.30
7461.00,1.30
7460.00,1.30
7459.00,1.30
7458.00,1.30
7457.00,1.29
7456.00,1.29
7455.00,1.29
7454.00,1.29
7453.00,1.29
7452.00,1.29
7451.00,1.29
7450.00,1.28
7449.00,1.28
7448.00,1.28
7447.00,1.28
7446.00,1.28
7445.00,1.27
7444.00,1.27
7443.00,1.27
7442.00,1.27
7441.00,1.26
7440.00,1.26
7439.00,1.26
7438.00,1.26
7437.00,1.26
7436.00,1.25
7435.00,1.25
7434.00,1.25
7433.00,1.25
7432.00,1.25
7431.00,1.25
7430.00,1.25
7429.00,1.24
7428.00,1.24
7427.00,1.24
7426.00,1.24
7425.00,1.25
7424.00,1.25
7423.00,1.25
7422.00,1.25
7421.00,1.25
7420.00,1.25
7419.00,1.26
7418.00,1.26
7417.00,1.26
7416.00,1.27
7415.00,1.27
7414.00,1.27
7413.00,1.28
7412.00,1.28
7411.00,1.28
7410.00,1.28
7409.00,1.29
7408.00,1.29
7407.00,1.29
7406.00,1.30
7405.00,1.30
7404.00,1.30
7403.00,1.30
7402.00,1.31
7401.00,1.31
7400.00,1.31
7399.00,1.31
7398.00,1.31
7397.00,1.31
7396.00,1.31
7395.00,1.31
7394.00,1.31
7393.00,1.31
7392.00,1.30
7391.00,1.30
7390.00,1.30
7389.00,1.30
7388.00,1.29
7387.00,1.29
7386.00,1.29
7385.00,1.28
7384.00,1.28
7383.00,1.28
7382.00,1.28
7381.00,1.28
7380.00,1.27
7379.00,1.27
7378.00,1.27
7377.00,1.27
7376.00,1.27
7375.00,1.27
7374.00,1.26
7373.00,1.26
7372.00,1.26
7371.00,1.26
7370.00,1.26
7369.00,1.26
7368.00,1.26
7367.00,1.27
7366.00,1.27
7365.00,1.27
7364.00,1.27
7363.00,1.27
7362.00,1.27
7361.00,1.28
7360.00,1.28
7359.00,1.28
7358.00,1.29
7357.00,1.29
7356.00,1.29
7355.00,1.30
7354.00,1.30
7353.00,1.30
7352.00,1.30
7351.00,1.31
7350.00,1.31
7349.00,1.31
7348.00,1.31
7347.00,1.32
7346.00,1.32
7345.00,1.32
7344.00,1.32
7343.00,1.32
7342.00,1.33
7341.00,1.33
7340.00,1.33
7339.00,1.33
7338.00,1.34
7337.00,1.34
7336.00,1.34
7335.00,1.34
7334.00,1.34
7333.00,1.34
7332.00,1.34
7331.00,1.34
7330.00,1.34
7329.00,1.34
7328.00,1.34
7327.00,1.34
7326.00,1.33
7325.00,1.33
7324.00,1.33
7323.00,1.33
7322.00,1.33
7321.00,1.32
7320.00,1.32
7319.00,1.32
7318.00,1.31
7317.00,1.31
7316.00,1.30
7315.00,1.30
7314.00,1.30
7313.00,1.29
7312.00,1.29
7311.00,1.29
7310.00,1.28
7309.00,1.28
7308.00,1.28
7307.00,1.27
7306.00,1.27
7305.00,1.27
7304.00,1.27
7303.00,1.26
7302.00,1.26
7301.00,1.26
7300.00,1.26
7299.00,1.26
7298.00,1.26
7297.00,1.26
7296.00,1.26
7295.00,1.26
7294.00,1.26
7293.00,1.26
7292.00,1.26
7291.00,1.27
7290.00,1.27
7289.00,1.27
7288.00,1.27
7287.00,1.28
7286.00,1.28
7285.00,1.28
7284.00,1.28
7283.00,1.29
7282.00,1.29
7281.00,1.29
7280.00,1.29
7279.00,1.29
7278.00,1.30
7277.00,1.30
7276.00,1.30
7275.00,1.30
7274.00,1.30
7273.00,1.30
7272.00,1.30
7271.00,1.31
7270.00,1.30
7269.00,1.30
7268.00,1.30
7267.00,1.30
7266.00,1.30
7265.00,1.30
7264.00,1.29
7263.00,1.29
7262.00,1.28
7261.00,1.28
7260.00,1.28
7259.00,1.27
7258.00,1.27
7257.00,1.27
7256.00,1.26
7255.00,1.26
7254.00,1.26
7253.00,1.25
7252.00,1.25
7251.00,1.25
7250.00,1.24
7249.00,1.24
7248.00,1.24
7247.00,1.23
7246.00,1.23
7245.00,1.23
7244.00,1.22
7243.00,1.22
7242.00,1.22
7241.00,1.22
7240.00,1.22
7239.00,1.22
7238.00,1.22
7237.00,1.22
7236.00,1.22
7235.00,1.22
7234.00,1.21
7233.00,1.21
7232.00,1.21
7231.00,1.21
7230.00,1.21
7229.00,1.21
7228.00,1.20
7227.00,1.20
7226.00,1.20
7225.00,1.19
7224.00,1.19
7223.00,1.18
7222.00,1.18
7221.00,1.17
7220.00,1.17
7219.00,1.16
7218.00,1.16
7217.00,1.15
7216.00,1.14
7215.00,1.14
7214.00,1.13
7213.00,1.12
7212.00,1.12
7211.00,1.11
7210.00,1.10
7209.00,1.10
7208.00,1.09
7207.00,1.09
7206.00,1.08
7205.00,1.08
7204.00,1.07
7203.00,1.07
7202.00,1.07
7201.00,1.06
7200.00,1.06
7199.00,1.06
7198.00,1.06
7197.00,1.06
7196.00,1.06
7195.00,1.06
7194.00,1.06
7193.00,1.06
7192.00,1.06
7191.00,1.06
7190.00,1.06
7189.00,1.06
7188.00,1.07
7187.00,1.07
7186.00,1.07
7185.00,1.07
7184.00,1.07
7183.00,1.07
7182.00,1.07
7181.00,1.07
7180.00,1.07
7179.00,1.07
7178.00,1.06
7177.00,1.06
7176.00,1.06
7175.00,1.06
7174.00,1.06
7173.00,1.05
7172.00,1.05
7171.00,1.05
7170.00,1.04
7169.00,1.04
7168.00,1.04
7167.00,1.04
7166.00,1.03
7165.00,1.03
7164.00,1.03
7163.00,1.02
7162.00,1.02
7161.00,1.02
7160.00,1.02
7159.00,1.02
7158.00,1.01
7157.00,1.01
7156.00,1.01
7155.00,1.01
7154.00,1.01
7153.00,1.01
7152.00,1.00
7151.00,1.00
7150.00,1.00
7149.00,1.00
7148.00,1.00
7147.00,1.00
7146.00,1.00
7145.00,1.00
7144.00,0.99
7143.00,0.99
7142.00,0.99
7141.00,0.99
7140.00,0.99
7139.00,0.98
7138.00,0.98
7137.00,0.98
7136.00,0.97
7135.00,0.97
7134.00,0.97
7133.00,0.96
7132.00,0.96
7131.00,0.96
7130.00,0.96
7129.00,0.95
7128.00,0.95
7127.00,0.95
7126.00,0.94
7125.00,0.94
7124.00,0.94
7123.00,0.93
7122.00,0.93
7121.00,0.93
7120.00,0.93
7119.00,0.92
7118.00,0.92
7117.00,0.92
7116.00,0.92
7115.00,0.92
7114.00,0.92
7113.00,0.92
7112.00,0.92
7111.00,0.92
7110.00,0.92
7109.00,0.92
7108.00,0.92
7107.00,0.92
7106.00,0.92
7105.00,0.92
7104.00,0.92
7103.00,0.92
7102.00,0.92
7101.00,0.92
7100.00,0.92
7099.00,0.92
7098.00,0.92
7097.00,0.92
7096.00,0.92
7095.00,0.92
7094.00,0.92
7093.00,0.92
7092.00,0.91
7091.00,0.91
7090.00,0.91
7089.00,0.91
7088.00,0.91
7087.00,0.91
7086.00,0.90
7085.00,0.90
7084.00,0.90
7083.00,0.90
7082.00,0.89
7081.00,0.89
7080.00,0.89
7079.00,0.88
7078.00,0.88
7077.00,0.88
7076.00,0.88
7075.00,0.88
7074.00,0.87
7073.00,0.87
7072.00,0.87
7071.00,0.87
7070.00,0.87
7069.00,0.86
7068.00,0.86
7067.00,0.86
7066.00,0.86
7065.00,0.86
7064.00,0.86
7063.00,0.86
7062.00,0.85
7061.00,0.85
7060.00,0.85
7059.00,0.85
7058.00,0.85
7057.00,0.85
7056.00,0.85
7055.00,0.85
7054.00,0.85
7053.00,0.85
7052.00,0.85
7051.00,0.85
7050.00,0.84
7049.00,0.84
7048.00,0.84
7047.00,0.84
7046.00,0.84
7045.00,0.84
7044.00,0.84
7043.00,0.84
7042.00,0.84
7041.00,0.84
7040.00,0.84
7039.00,0.84
7038.00,0.84
7037.00,0.83
7036.00,0.83
7035.00,0.83
7034.00,0.83
7033.00,0.83
7032.00,0.82
7031.00,0.82
7030.00,0.82
7029.00,0.82
7028.00,0.82
7027.00,0.82
7026.00,0.81
7025.00,0.81
7024.00,0.81
7023.00,0.81
7022.00,0.80
7021.00,0.80
7020.00,0.80
7019.00,0.79
7018.00,0.79
7017.00,0.79
7016.00,0.79
7015.00,0.78
7014.00,0.78
7013.00,0.78
7012.00,0.78
7011.00,0.78
7010.00,0.78
7009.00,0.78
7008.00,0.78
7007.00,0.78
7006.00,0.78
7005.00,0.78
7004.00,0.78
7003.00,0.78
7002.00,0.78
7001.00,0.78
7000.00,0.78
6999.00,0.78
6998.00,0.78
6997.00,0.78
6996.00,0.78
6995.00,0.78
6994.00,0.78
6993.00,0.79
6992.00,0.79
6991.00,0.79
6990.00,0.79
6989.00,0.79
6988.00,0.79
6987.00,0.79
6986.00,0.79
6985.00,0.79
6984.00,0.78
6983.00,0.78
6982.00,0.78
6981.00,0.78
6980.00,0.78
6979.00,0.78
6978.00,0.77
6977.00,0.77
6976.00,0.77
6975.00,0.77
6974.00,0.77
6973.00,0.77
6972.00,0.77
6971.00,0.77
6970.00,0.77
6969.00,0.77
6968.00,0.77
6967.00,0.77
6966.00,0.77
6965.00,0.77
6964.00,0.77
6963.00,0.76
6962.00,0.76
6961.00,0.76
6960.00,0.76
6959.00,0.77
6958.00,0.77
6957.00,0.77
6956.00,0.77
6955.00,0.77
6954.00,0.77
6953.00,0.77
6952.00,0.77
6951.00,0.77
6950.00,0.77
6949.00,0.77
6948.00,0.77
6947.00,0.77
6946.00,0.76
6945.00,0.76
6944.00,0.76
6943.00,0.76
6942.00,0.76
6941.00,0.76
6940.00,0.76
6939.00,0.75
6938.00,0.75
6937.00,0.75
6936.00,0.75
6935.00,0.75
6934.00,0.75
6933.00,0.75
6932.00,0.75
6931.00,0.75
6930.00,0.74
6929.00,0.74
6928.00,0.74
6927.00,0.74
6926.00,0.74
6925.00,0.74
6924.00,0.74
6923.00,0.74
6922.00,0.74
6921.00,0.75
6920.00,0.75
6919.00,0.75
6918.00,0.75
6917.00,0.76
6916.00,0.76
6915.00,0.76
6914.00,0.76
6913.00,0.76
6912.00,0.77
6911.00,0.77
6910.00,0.77
6909.00,0.77
6908.00,0.77
6907.00,0.78
6906.00,0.78
6905.00,0.78
6904.00,0.78
6903.00,0.78
6902.00,0.78
6901.00,0.78
6900.00,0.78
6899.00,0.78
6898.00,0.78
6897.00,0.78
6896.00,0.78
6895.00,0.78
6894.00,0.78
6893.00,0.78
6892.00,0.77
6891.00,0.77
6890.00,0.77
6889.00,0.77
6888.00,0.77
6887.00,0.76
6886.00,0.76
6885.00,0.76
6884.00,0.76
6883.00,0.76
6882.00,0.76
6881.00,0.75
6880.00,0.75
6879.00,0.75
6878.00,0.75
6877.00,0.75
6876.00,0.75
6875.00,0.75
6874.00,0.75
6873.00,0.75
6872.00,0.75
6871.00,0.75
6870.00,0.74
6869.00,0.74
6868.00,0.74
6867.00,0.74
6866.00,0.74
6865.00,0.74
6864.00,0.74
6863.00,0.74
6862.00,0.74
6861.00,0.74
6860.00,0.74
6859.00,0.73
6858.00,0.73
6857.00,0.73
6856.00,0.73
6855.00,0.73
6854.00,0.73
6853.00,0.73
6852.00,0.73
6851.00,0.73
6850.00,0.73
6849.00,0.73
6848.00,0.73
6847.00,0.73
6846.00,0.73
6845.00,0.73
6844.00,0.73
6843.00,0.73
6842.00,0.73
6841.00,0.74
6840.00,0.74
6839.00,0.74
6838.00,0.74
6837.00,0.74
6836.00,0.74
6835.00,0.75
6834.00,0.75
6833.00,0.75
6832.00,0.75
6831.00,0.75
6830.00,0.76
6829.00,0.76
6828.00,0.76
6827.00,0.76
6826.00,0.76
6825.00,0.77
6824.00,0.77
6823.00,0.77
6822.00,0.77
6821.00,0.77
6820.00,0.77
6819.00,0.77
6818.00,0.78
6817.00,0.78
6816.00,0.78
6815.00,0.78
6814.00,0.78
6813.00,0.78
6812.00,0.78
6811.00,0.78
6810.00,0.78
6809.00,0.78
6808.00,0.78
6807.00,0.78
6806.00,0.78
6805.00,0.78
6804.00,0.78
6803.00,0.78
6802.00,0.78
6801.00,0.78
6800.00,0.78
6799.00,0.78
6798.00,0.78
6797.00,0.77
6796.00,0.77
6795.00,0.77
6794.00,0.77
6793.00,0.77
6792.00,0.77
6791.00,0.77
6790.00,0.77
6789.00,0.76
6788.00,0.76
6787.00,0.76
6786.00,0.76
6785.00,0.76
6784.00,0.76
6783.00,0.76
6782.00,0.76
6781.00,0.76
6780.00,0.76
6779.00,0.76
6778.00,0.76
6777.00,0.76
6776.00,0.76
6775.00,0.77
6774.00,0.77
6773.00,0.77
6772.00,0.77
6771.00,0.77
6770.00,0.77
6769.00,0.78
6768.00,0.78
6767.00,0.78
6766.00,0.78
6765.00,0.79
6764.00,0.79
6763.00,0.79
6762.00,0.80
6761.00,0.80
6760.00,0.80
6759.00,0.80
6758.00,0.81
6757.00,0.81
6756.00,0.81
6755.00,0.81
6754.00,0.82
6753.00,0.82
6752.00,0.82
6751.00,0.82
6750.00,0.82
6749.00,0.82
6748.00,0.82
6747.00,0.82
6746.00,0.82
6745.00,0.82
6744.00,0.82
6743.00,0.82
6742.00,0.82
6741.00,0.82
6740.00,0.82
6739.00,0.83
6738.00,0.83
6737.00,0.83
6736.00,0.83
6735.00,0.83
6734.00,0.82
6733.00,0.82
6732.00,0.82
6731.00,0.82
6730.00,0.82
6729.00,0.82
6728.00,0.82
6727.00,0.82
6726.00,0.83
6725.00,0.83
6724.00,0.83
6723.00,0.83
6722.00,0.83
6721.00,0.83
6720.00,0.83
6719.00,0.84
6718.00,0.84
6717.00,0.84
6716.00,0.84
6715.00,0.84
6714.00,0.84
6713.00,0.84
6712.00,0.84
6711.00,0.84
6710.00,0.84
6709.00,0.84
6708.00,0.85
6707.00,0.85
6706.00,0.85
6705.00,0.85
6704.00,0.85
6703.00,0.85
6702.00,0.85
6701.00,0.85
6700.00,0.85
6699.00,0.85
6698.00,0.85
6697.00,0.85
6696.00,0.85
6695.00,0.85
6694.00,0.85
6693.00,0.85
6692.00,0.85
6691.00,0.85
6690.00,0.85
6689.00,0.85
6688.00,0.85
6687.00,0.85
6686.00,0.85
6685.00,0.85
6684.00,0.85
6683.00,0.85
6682.00,0.85
6681.00,0.85
6680.00,0.85
6679.00,0.85
6678.00,0.85
6677.00,0.85
6676.00,0.85
6675.00,0.85
6674.00,0.85
6673.00,0.85
6672.00,0.85
6671.00,0.85
6670.00,0.85
6669.00,0.85
6668.00,0.86
6667.00,0.86
6666.00,0.86
6665.00,0.86
6664.00,0.86
6663.00,0.86
6662.00,0.87
6661.00,0.87
6660.00,0.87
6659.00,0.87
6658.00,0.87
6657.00,0.87
6656.00,0.87
6655.00,0.88
6654.00,0.88
6653.00,0.88
6652.00,0.88
6651.00,0.88
6650.00,0.88
6649.00,0.89
6648.00,0.89
6647.00,0.89
6646.00,0.89
6645.00,0.89
6644.00,0.90
6643.00,0.90
6642.00,0.90
6641.00,0.90
6640.00,0.90
6639.00,0.90
6638.00,0.90
6637.00,0.91
6636.00,0.91
6635.00,0.91
6634.00,0.91
6633.00,0.91
6632.00,0.91
6631.00,0.91
6630.00,0.91
6629.00,0.91
6628.00,0.91
6627.00,0.91
6626.00,0.92
6625.00,0.92
6624.00,0.92
6623.00,0.92
6622.00,0.92
6621.00,0.91
6620.00,0.91
6619.00,0.91
6618.00,0.91
6617.00,0.91
6616.00,0.91
6615.00,0.91
6614.00,0.91
6613.00,0.91
6612.00,0.91
6611.00,0.91
6610.00,0.91
6609.00,0.90
6608.00,0.90
6607.00,0.90
6606.00,0.90
6605.00,0.90
6604.00,0.90
6603.00,0.89
6602.00,0.89
6601.00,0.89
6600.00,0.89
6599.00,0.89
6598.00,0.89
6597.00,0.88
6596.00,0.88
6595.00,0.88
6594.00,0.88
6593.00,0.88
6592.00,0.88
6591.00,0.87
6590.00,0.87
6589.00,0.87
6588.00,0.87
6587.00,0.87
6586.00,0.87
6585.00,0.87
6584.00,0.86
6583.00,0.86
6582.00,0.86
6581.00,0.86
6580.00,0.86
6579.00,0.86
6578.00,0.86
6577.00,0.87
6576.00,0.87
6575.00,0.87
6574.00,0.87
6573.00,0.87
6572.00,0.88
6571.00,0.88
6570.00,0.88
6569.00,0.88
6568.00,0.89
6567.00,0.89
6566.00,0.90
6565.00,0.90
6564.00,0.91
6563.00,0.91
6562.00,0.92
6561.00,0.92
6560.00,0.93
6559.00,0.93
6558.00,0.94
6557.00,0.94
6556.00,0.95
6555.00,0.95
6554.00,0.96
6553.00,0.96
6552.00,0.97
6551.00,0.97
6550.00,0.98
6549.00,0.98
6548.00,0.98
6547.00,0.99
6546.00,0.99
6545.00,0.99
6544.00,1.00
6543.00,1.00
6542.00,1.00
6541.00,1.00
6540.00,1.00
6539.00,1.01
6538.00,1.01
6537.00,1.01
6536.00,1.01
6535.00,1.01
6534.00,1.01
6533.00,1.01
6532.00,1.01
6531.00,1.02
6530.00,1.02
6529.00,1.02
6528.00,1.02
6527.00,1.02
6526.00,1.02
6525.00,1.02
6524.00,1.02
6523.00,1.02
6522.00,1.03
6521.00,1.03
6520.00,1.03
6519.00,1.03
6518.00,1.03
6517.00,1.03
6516.00,1.03
6515.00,1.03
6514.00,1.03
6513.00,1.03
6512.00,1.03
6511.00,1.03
6510.00,1.03
6509.00,1.04
6508.00,1.04
6507.00,1.04
6506.00,1.04
6505.00,1.04
6504.00,1.04
6503.00,1.04
6502.00,1.04
6501.00,1.04
6500.00,1.04
6499.00,1.04
6498.00,1.05
6497.00,1.05
6496.00,1.05
6495.00,1.05
6494.00,1.05
6493.00,1.05
6492.00,1.06
6491.00,1.06
6490.00,1.06
6489.00,1.06
6488.00,1.06
6487.00,1.06
6486.00,1.06
6485.00,1.06
6484.00,1.06
6483.00,1.07
6482.00,1.07
6481.00,1.06
6480.00,1.06
6479.00,1.06
6478.00,1.06
6477.00,1.06
6476.00,1.06
6475.00,1.05
6474.00,1.05
6473.00,1.05
6472.00,1.05
6471.00,1.04
6470.00,1.04
6469.00,1.04
6468.00,1.03
6467.00,1.03
6466.00,1.03
6465.00,1.02
6464.00,1.02
6463.00,1.02
6462.00,1.01
6461.00,1.01
6460.00,1.01
6459.00,1.01
6458.00,1.01
6457.00,1.00
6456.00,1.00
6455.00,1.00
6454.00,1.00
6453.00,1.00
6452.00,1.00
6451.00,1.00
6450.00,1.00
6449.00,1.01
6448.00,1.01
6447.00,1.01
6446.00,1.01
6445.00,1.02
6444.00,1.02
6443.00,1.02
6442.00,1.02
6441.00,1.03
6440.00,1.03
6439.00,1.03
6438.00,1.03
6437.00,1.04
6436.00,1.04
6435.00,1.04
6434.00,1.04
6433.00,1.05
6432.00,1.05
6431.00,1.05
6430.00,1.05
6429.00,1.06
6428.00,1.06
6427.00,1.06
6426.00,1.06
6425.00,1.06
6424.00,1.06
6423.00,1.07
6422.00,1.07
6421.00,1.07
6420.00,1.07
6419.00,1.07
6418.00,1.07
6417.00,1.07
6416.00,1.07
6415.00,1.07
6414.00,1.07
6413.00,1.07
6412.00,1.07
6411.00,1.07
6410.00,1.07
6409.00,1.07
6408.00,1.07
6407.00,1.07
6406.00,1.07
6405.00,1.07
6404.00,1.07
6403.00,1.07
6402.00,1.07
6401.00,1.07
6400.00,1.07
6399.00,1.07
6398.00,1.07
6397.00,1.07
6396.00,1.07
6395.00,1.07
6394.00,1.07
6393.00,1.07
6392.00,1.07
6391.00,1.08
6390.00,1.08
6389.00,1.08
6388.00,1.08
6387.00,1.08
6386.00,1.08
6385.00,1.08
6384.00,1.09
6383.00,1.09
6382.00,1.09
6381.00,1.09
6380.00,1.09
6379.00,1.09
6378.00,1.09
6377.00,1.10
6376.00,1.10
6375.00,1.10
6374.00,1.10
6373.00,1.10
6372.00,1.10
6371.00,1.10
6370.00,1.10
6369.00,1.10
6368.00,1.10
6367.00,1.10
6366.00,1.11
6365.00,1.11
6364.00,1.11
6363.00,1.11
6362.00,1.11
6361.00,1.11
6360.00,1.11
6359.00,1.11
6358.00,1.11
6357.00,1.11
6356.00,1.11
6355.00,1.11
6354.00,1.11
6353.00,1.11
6352.00,1.11
6351.00,1.11
6350.00,1.11
6349.00,1.11
6348.00,1.11
6347.00,1.10
6346.00,1.10
6345.00,1.10
6344.00,1.10
6343.00,1.10
6342.00,1.10
6341.00,1.10
6340.00,1.10
6339.00,1.10
6338.00,1.10
6337.00,1.10
6336.00,1.10
6335.00,1.10
6334.00,1.10
6333.00,1.10
6332.00,1.10
6331.00,1.10
6330.00,1.10
6329.00,1.10
6328.00,1.10
6327.00,1.10
6326.00,1.10
6325.00,1.10
6324.00,1.10
6323.00,1.10
6322.00,1.10
6321.00,1.10
6320.00,1.10
6319.00,1.11
6318.00,1.11
6317.00,1.11
6316.00,1.11
6315.00,1.11
6314.00,1.11
6313.00,1.11
6312.00,1.12
6311.00,1.12
6310.00,1.12
6309.00,1.12
6308.00,1.12
6307.00,1.12
6306.00,1.12
6305.00,1.12
6304.00,1.12
6303.00,1.12
6302.00,1.12
6301.00,1.12
6300.00,1.12
6299.00,1.12
6298.00,1.12
6297.00,1.13
6296.00,1.13
6295.00,1.13
6294.00,1.13
6293.00,1.13
6292.00,1.13
6291.00,1.13
6290.00,1.13
6289.00,1.13
6288.00,1.13
6287.00,1.13
6286.00,1.13
6285.00,1.13
6284.00,1.13
6283.00,1.13
6282.00,1.13
6281.00,1.14
6280.00,1.14
6279.00,1.14
6278.00,1.14
6277.00,1.14
6276.00,1.14
6275.00,1.15
6274.00,1.15
6273.00,1.15
6272.00,1.15
6271.00,1.15
6270.00,1.15
6269.00,1.16
6268.00,1.16
6267.00,1.16
6266.00,1.16
6265.00,1.16
6264.00,1.16
6263.00,1.16
6262.00,1.17
6261.00,1.17
6260.00,1.17
6259.00,1.17
6258.00,1.17
6257.00,1.17
6256.00,1.17
6255.00,1.17
6254.00,1.17
6253.00,1.18
6252.00,1.18
6251.00,1.18
6250.00,1.18
6249.00,1.18
6248.00,1.18
6247.00,1.18
6246.00,1.18
6245.00,1.18
6244.00,1.18
6243.00,1.18
6242.00,1.19
6241.00,1.19
6240.00,1.19
6239.00,1.19
6238.00,1.19
6237.00,1.19
6236.00,1.19
6235.00,1.19
6234.00,1.20
6233.00,1.20
6232.00,1.20
6231.00,1.20
6230.00,1.20
6229.00,1.20
6228.00,1.20
6227.00,1.20
6226.00,1.20
6225.00,1.20
6224.00,1.20
6223.00,1.21
6222.00,1.21
6221.00,1.21
6220.00,1.21
6219.00,1.21
6218.00,1.21
6217.00,1.21
6216.00,1.21
6215.00,1.21
6214.00,1.21
6213.00,1.21
6212.00,1.21
6211.00,1.21
6210.00,1.21
6209.00,1.21
6208.00,1.21
6207.00,1.21
6206.00,1.22
6205.00,1.22
6204.00,1.22
6203.00,1.22
6202.00,1.22
6201.00,1.22
6200.00,1.22
6199.00,1.22
6198.00,1.22
6197.00,1.22
6196.00,1.23
6195.00,1.23
6194.00,1.23
6193.00,1.23
6192.00,1.23
6191.00,1.23
6190.00,1.23
6189.00,1.23
6188.00,1.24
6187.00,1.24
6186.00,1.24
6185.00,1.24
6184.00,1.24
6183.00,1.24
6182.00,1.24
6181.00,1.24
6180.00,1.24
6179.00,1.24
6178.00,1.24
6177.00,1.24
6176.00,1.24
6175.00,1.24
6174.00,1.24
6173.00,1.25
6172.00,1.25
6171.00,1.25
6170.00,1.25
6169.00,1.25
6168.00,1.25
6167.00,1.25
6166.00,1.25
6165.00,1.26
6164.00,1.26
6163.00,1.26
6162.00,1.26
6161.00,1.26
6160.00,1.27
6159.00,1.27
6158.00,1.27
6157.00,1.27
6156.00,1.27
6155.00,1.27
6154.00,1.28
6153.00,1.28
6152.00,1.28
6151.00,1.28
6150.00,1.28
6149.00,1.28
6148.00,1.29
6147.00,1.29
6146.00,1.29
6145.00,1.29
6144.00,1.29
6143.00,1.29
6142.00,1.29
6141.00,1.29
6140.00,1.29
6139.00,1.29
6138.00,1.29
6137.00,1.29
6136.00,1.29
6135.00,1.29
6134.00,1.29
6133.00,1.29
6132.00,1.29
6131.00,1.29
6130.00,1.29
6129.00,1.29
6128.00,1.29
6127.00,1.29
6126.00,1.29
6125.00,1.30
6124.00,1.30
6123.00,1.30
6122.00,1.30
6121.00,1.30
6120.00,1.30
6119.00,1.30
6118.00,1.31
6117.00,1.31
6116.00,1.31
6115.00,1.31
6114.00,1.31
6113.00,1.32
6112.00,1.32
6111.00,1.32
6110.00,1.32
6109.00,1.32
6108.00,1.32
6107.00,1.33
6106.00,1.33
6105.00,1.33
6104.00,1.33
6103.00,1.33
6102.00,1.33
6101.00,1.33
6100.00,1.33
6099.00,1.34
6098.00,1.34
6097.00,1.34
6096.00,1.34
6095.00,1.34
6094.00,1.34
6093.00,1.34
6092.00,1.34
6091.00,1.34
6090.00,1.34
6089.00,1.34
6088.00,1.34
6087.00,1.34
6086.00,1.34
6085.00,1.34
6084.00,1.34
6083.00,1.34
6082.00,1.34
6081.00,1.34
6080.00,1.34
6079.00,1.34
6078.00,1.34
6077.00,1.34
6076.00,1.34
6075.00,1.34
6074.00,1.34
6073.00,1.34
6072.00,1.34
6071.00,1.34
6070.00,1.33
6069.00,1.33
6068.00,1.33
6067.00,1.33
6066.00,1.33
6065.00,1.33
6064.00,1.33
6063.00,1.33
6062.00,1.33
6061.00,1.33
6060.00,1.33
6059.00,1.33
6058.00,1.33
6057.00,1.33
6056.00,1.33
6055.00,1.33
6054.00,1.33
6053.00,1.33
6052.00,1.33
6051.00,1.33
6050.00,1.33
6049.00,1.33
6048.00,1.33
6047.00,1.33
6046.00,1.33
6045.00,1.33
6044.00,1.33
6043.00,1.33
6042.00,1.33
6041.00,1.33
6040.00,1.33
6039.00,1.33
6038.00,1.33
6037.00,1.33
6036.00,1.33
6035.00,1.34
6034.00,1.34
6033.00,1.34
6032.00,1.34
6031.00,1.34
6030.00,1.34
6029.00,1.34
6028.00,1.34
6027.00,1.34
6026.00,1.34
6025.00,1.34
6024.00,1.35
6023.00,1.35
6022.00,1.35
6021.00,1.35
6020.00,1.35
6019.00,1.35
6018.00,1.35
6017.00,1.35
6016.00,1.35
6015.00,1.35
6014.00,1.35
6013.00,1.35
6012.00,1.35
6011.00,1.35
6010.00,1.35
6009.00,1.34
6008.00,1.34
6007.00,1.34
6006.00,1.34
6005.00,1.34
6004.00,1.34
6003.00,1.34
6002.00,1.34
6001.00,1.34
6000.00,1.34
5999.00,1.34
5998.00,1.34
5997.00,1.34
5996.00,1.33
5995.00,1.33
5994.00,1.33
5993.00,1.33
5992.00,1.33
5991.00,1.33
5990.00,1.33
5989.00,1.33
5988.00,1.32
5987.00,1.32
5986.00,1.32
5985.00,1.32
5984.00,1.32
5983.00,1.32
5982.00,1.31
5981.00,1.31
5980.00,1.31
5979.00,1.31
5978.00,1.30
5977.00,1.30
5976.00,1.30
5975.00,1.30
5974.00,1.29
5973.00,1.29
5972.00,1.29
5971.00,1.28
5970.00,1.28
5969.00,1.28
5968.00,1.27
5967.00,1.27
5966.00,1.27
5965.00,1.26
5964.00,1.26
5963.00,1.25
5962.00,1.25
5961.00,1.25
5960.00,1.24
5959.00,1.24
5958.00,1.24
5957.00,1.23
5956.00,1.23
5955.00,1.23
5954.00,1.22
5953.00,1.22
5952.00,1.22
5951.00,1.21
5950.00,1.21
5949.00,1.21
5948.00,1.20
5947.00,1.20
5946.00,1.20
5945.00,1.20
5944.00,1.19
5943.00,1.19
5942.00,1.19
5941.00,1.19
5940.00,1.19
5939.00,1.19
5938.00,1.19
5937.00,1.18
5936.00,1.18
5935.00,1.18
5934.00,1.18
5933.00,1.18
5932.00,1.18
5931.00,1.18
5930.00,1.18
5929.00,1.18
5928.00,1.18
5927.00,1.18
5926.00,1.17
5925.00,1.17
5924.00,1.17
5923.00,1.17
5922.00,1.17
5921.00,1.17
5920.00,1.17
5919.00,1.17
5918.00,1.17
5917.00,1.17
5916.00,1.17
5915.00,1.17
5914.00,1.17
5913.00,1.17
5912.00,1.17
5911.00,1.17
5910.00,1.17
5909.00,1.17
5908.00,1.17
5907.00,1.17
5906.00,1.17
5905.00,1.17
5904.00,1.17
5903.00,1.17
5902.00,1.17
5901.00,1.17
5900.00,1.17
5899.00,1.18
5898.00,1.18
5897.00,1.18
5896.00,1.18
5895.00,1.18
5894.00,1.18
5893.00,1.18
5892.00,1.19
5891.00,1.19
5890.00,1.19
5889.00,1.19
5888.00,1.19
5887.00,1.20
5886.00,1.20
5885.00,1.20
5884.00,1.20
5883.00,1.20
5882.00,1.20
5881.00,1.20
5880.00,1.20
5879.00,1.21
5878.00,1.21
5877.00,1.21
5876.00,1.21
5875.00,1.21
5874.00,1.21
5873.00,1.21
5872.00,1.21
5871.00,1.22
5870.00,1.22
5869.00,1.22
5868.00,1.22
5867.00,1.22
5866.00,1.22
5865.00,1.22
5864.00,1.22
5863.00,1.22
5862.00,1.22
5861.00,1.22
5860.00,1.22
5859.00,1.22
5858.00,1.22
5857.00,1.22
5856.00,1.22
5855.00,1.22
5854.00,1.22
5853.00,1.22
5852.00,1.22
5851.00,1.22
5850.00,1.22
5849.00,1.22
5848.00,1.22
5847.00,1.22
5846.00,1.22
5845.00,1.21
5844.00,1.21
5843.00,1.21
5842.00,1.21
5841.00,1.21
5840.00,1.21
5839.00,1.21
5838.00,1.21
5837.00,1.21
5836.00,1.21
5835.00,1.21
5834.00,1.21
5833.00,1.22
5832.00,1.22
5831.00,1.22
5830.00,1.22
5829.00,1.22
5828.00,1.22
5827.00,1.22
5826.00,1.22
5825.00,1.22
5824.00,1.22
5823.00,1.22
5822.00,1.22
5821.00,1.22
5820.00,1.23
5819.00,1.23
5818.00,1.23
5817.00,1.23
5816.00,1.23
5815.00,1.23
5814.00,1.23
5813.00,1.23
5812.00,1.23
5811.00,1.23
5810.00,1.23
5809.00,1.23
5808.00,1.23
5807.00,1.23
5806.00,1.23
5805.00,1.23
5804.00,1.23
5803.00,1.23
5802.00,1.22
5801.00,1.22
5800.00,1.22
5799.00,1.22
5798.00,1.22
5797.00,1.22
5796.00,1.22
5795.00,1.22
5794.00,1.21
5793.00,1.21
5792.00,1.21
5791.00,1.21
5790.00,1.21
5789.00,1.21
5788.00,1.20
5787.00,1.20
5786.00,1.20
5785.00,1.20
5784.00,1.20
5783.00,1.20
5782.00,1.20
5781.00,1.20
5780.00,1.20
5779.00,1.20
5778.00,1.20
5777.00,1.20
5776.00,1.20
5775.00,1.20
5774.00,1.20
5773.00,1.20
5772.00,1.20
5771.00,1.20
5770.00,1.20
5769.00,1.21
5768.00,1.21
5767.00,1.21
5766.00,1.21
5765.00,1.21
5764.00,1.21
5763.00,1.21
5762.00,1.21
5761.00,1.22
5760.00,1.22
5759.00,1.22
5758.00,1.22
5757.00,1.22
5756.00,1.22
5755.00,1.22
5754.00,1.22
5753.00,1.22
5752.00,1.22
5751.00,1.22
5750.00,1.22
5749.00,1.22
5748.00,1.22
5747.00,1.22
5746.00,1.22
5745.00,1.22
5744.00,1.22
5743.00,1.22
5742.00,1.22
5741.00,1.22
5740.00,1.22
5739.00,1.22
5738.00,1.22
5737.00,1.22
5736.00,1.22
5735.00,1.22
5734.00,1.22
5733.00,1.22
5732.00,1.22
5731.00,1.22
5730.00,1.22
5729.00,1.22
5728.00,1.22
5727.00,1.22
5726.00,1.22
5725.00,1.22
5724.00,1.22
5723.00,1.22
5722.00,1.22
5721.00,1.22
5720.00,1.22
5719.00,1.23
5718.00,1.23
5717.00,1.23
5716.00,1.23
5715.00,1.23
5714.00,1.23
5713.00,1.23
5712.00,1.23
5711.00,1.23
5710.00,1.23
5709.00,1.23
5708.00,1.23
5707.00,1.23
5706.00,1.23
5705.00,1.23
5704.00,1.22
5703.00,1.22
5702.00,1.22
5701.00,1.23
5700.00,1.23
5699.00,1.23
5698.00,1.23
5697.00,1.23
5696.00,1.23
5695.00,1.23
5694.00,1.23
5693.00,1.23
5692.00,1.23
5691.00,1.23
5690.00,1.23
5689.00,1.23
5688.00,1.23
5687.00,1.23
5686.00,1.23
5685.00,1.23
5684.00,1.23
5683.00,1.23
5682.00,1.23
5681.00,1.23
5680.00,1.23
5679.00,1.23
5678.00,1.23
5677.00,1.23
5676.00,1.23
5675.00,1.23
5674.00,1.23
5673.00,1.23
5672.00,1.23
5671.00,1.23
5670.00,1.23
5669.00,1.23
5668.00,1.23
5667.00,1.23
5666.00,1.24
5665.00,1.24
5664.00,1.24
5663.00,1.24
5662.00,1.24
5661.00,1.24
5660.00,1.24
5659.00,1.24
5658.00,1.24
5657.00,1.24
5656.00,1.24
5655.00,1.24
5654.00,1.24
5653.00,1.24
5652.00,1.25
5651.00,1.25
5650.00,1.25
5649.00,1.25
5648.00,1.25
5647.00,1.25
5646.00,1.25
5645.00,1.25
5644.00,1.25
5643.00,1.25
5642.00,1.26
5641.00,1.26
5640.00,1.26
5639.00,1.26
5638.00,1.26
5637.00,1.26
5636.00,1.26
5635.00,1.26
5634.00,1.26
5633.00,1.26
5632.00,1.26
5631.00,1.27
5630.00,1.27
5629.00,1.27
5628.00,1.27
5627.00,1.27
5626.00,1.27
5625.00,1.27
5624.00,1.27
5623.00,1.27
5622.00,1.27
5621.00,1.27
5620.00,1.27
5619.00,1.27
5618.00,1.28
5617.00,1.28
5616.00,1.28
5615.00,1.28
5614.00,1.28
5613.00,1.28
5612.00,1.28
5611.00,1.28
5610.00,1.28
5609.00,1.28
5608.00,1.28
5607.00,1.28
5606.00,1.28
5605.00,1.28
5604.00,1.28
5603.00,1.29
5602.00,1.29
5601.00,1.29
5600.00,1.29
5599.00,1.29
5598.00,1.29
5597.00,1.29
5596.00,1.29
5595.00,1.29
5594.00,1.29
5593.00,1.29
5592.00,1.29
5591.00,1.29
5590.00,1.29
5589.00,1.29
5588.00,1.29
5587.00,1.29
5586.00,1.29
5585.00,1.29
5584.00,1.29
5583.00,1.29
5582.00,1.29
5581.00,1.29
5580.00,1.29
5579.00,1.29
5578.00,1.29
5577.00,1.29
5576.00,1.29
5575.00,1.29
5574.00,1.29
5573.00,1.30
5572.00,1.30
5571.00,1.30
5570.00,1.30
5569.00,1.30
5568.00,1.30
5567.00,1.30
5566.00,1.30
5565.00,1.30
5564.00,1.30
5563.00,1.30
5562.00,1.30
5561.00,1.30
5560.00,1.30
5559.00,1.30
5558.00,1.30
5557.00,1.31
5556.00,1.31
5555.00,1.31
5554.00,1.31
5553.00,1.31
5552.00,1.31
5551.00,1.31
5550.00,1.31
5549.00,1.31
5548.00,1.31
5547.00,1.32
5546.00,1.32
5545.00,1.32
5544.00,1.32
5543.00,1.32
5542.00,1.32
5541.00,1.32
5540.00,1.32
5539.00,1.33
5538.00,1.33
5537.00,1.33
5536.00,1.33
5535.00,1.33
5534.00,1.33
5533.00,1.33
5532.00,1.33
5531.00,1.33
5530.00,1.33
5529.00,1.33
5528.00,1.34
5527.00,1.34
5526.00,1.34
5525.00,1.34
5524.00,1.34
5523.00,1.34
5522.00,1.34
5521.00,1.34
5520.00,1.34
5519.00,1.34
5518.00,1.34
5517.00,1.34
5516.00,1.34
5515.00,1.35
5514.00,1.35
5513.00,1.35
5512.00,1.35
5511.00,1.35
5510.00,1.35
5509.00,1.35
5508.00,1.35
5507.00,1.35
5506.00,1.36
5505.00,1.36
5504.00,1.36
5503.00,1.36
5502.00,1.36
5501.00,1.36
5500.00,1.36
5499.00,1.37
5498.00,1.37
5497.00,1.37
5496.00,1.37
5495.00,1.37
5494.00,1.37
5493.00,1.37
5492.00,1.37
5491.00,1.37
5490.00,1.37
5489.00,1.37
5488.00,1.37
5487.00,1.37
5486.00,1.37
5485.00,1.37
5484.00,1.37
5483.00,1.37
5482.00,1.37
5481.00,1.37
5480.00,1.37
5479.00,1.37
5478.00,1.37
5477.00,1.37
5476.00,1.37
5475.00,1.37
5474.00,1.37
5473.00,1.37
5472.00,1.37
5471.00,1.37
5470.00,1.37
5469.00,1.37
5468.00,1.37
5467.00,1.38
5466.00,1.38
5465.00,1.38
5464.00,1.38
5463.00,1.38
5462.00,1.38
5461.00,1.38
5460.00,1.38
5459.00,1.39
5458.00,1.39
5457.00,1.39
5456.00,1.39
5455.00,1.39
5454.00,1.39
5453.00,1.39
5452.00,1.39
5451.00,1.39
5450.00,1.39
5449.00,1.39
5448.00,1.39
5447.00,1.39
5446.00,1.40
5445.00,1.40
5444.00,1.40
5443.00,1.40
5442.00,1.40
5441.00,1.40
5440.00,1.40
5439.00,1.40
5438.00,1.40
5437.00,1.40
5436.00,1.40
5435.00,1.40
5434.00,1.40
5433.00,1.40
5432.00,1.40
5431.00,1.40
5430.00,1.40
5429.00,1.40
5428.00,1.40
5427.00,1.40
5426.00,1.40
5425.00,1.40
5424.00,1.40
5423.00,1.40
5422.00,1.39
5421.00,1.39
5420.00,1.39
5419.00,1.39
5418.00,1.39
5417.00,1.39
5416.00,1.39
5415.00,1.38
5414.00,1.38
5413.00,1.38
5412.00,1.38
5411.00,1.38
5410.00,1.38
5409.00,1.38
5408.00,1.38
5407.00,1.38
5406.00,1.37
5405.00,1.37
5404.00,1.37
5403.00,1.37
5402.00,1.37
5401.00,1.37
5400.00,1.37
5399.00,1.37
5398.00,1.37
5397.00,1.37
5396.00,1.37
5395.00,1.37
5394.00,1.37
5393.00,1.37
5392.00,1.37
5391.00,1.37
5390.00,1.37
5389.00,1.37
5388.00,1.37
5387.00,1.37
5386.00,1.37
5385.00,1.37
5384.00,1.37
5383.00,1.37
5382.00,1.37
5381.00,1.37
5380.00,1.37
5379.00,1.36
5378.00,1.36
5377.00,1.36
5376.00,1.36
5375.00,1.36
5374.00,1.36
5373.00,1.36
5372.00,1.36
5371.00,1.36
5370.00,1.35
5369.00,1.35
5368.00,1.35
5367.00,1.35
5366.00,1.35
5365.00,1.34
5364.00,1.34
5363.00,1.34
5362.00,1.34
5361.00,1.33
5360.00,1.33
5359.00,1.33
5358.00,1.32
5357.00,1.32
5356.00,1.31
5355.00,1.31
5354.00,1.30
5353.00,1.30
5352.00,1.29
5351.00,1.29
5350.00,1.28
5349.00,1.28
5348.00,1.27
5347.00,1.26
5346.00,1.26
5345.00,1.25
5344.00,1.24
5343.00,1.23
5342.00,1.23
5341.00,1.22
5340.00,1.21
5339.00,1.20
5338.00,1.19
5337.00,1.18
5336.00,1.17
5335.00,1.17
5334.00,1.16
5333.00,1.14
5332.00,1.13
5331.00,1.12
5330.00,1.11
5329.00,1.10
5328.00,1.09
5327.00,1.08
5326.00,1.07
5325.00,1.06
5324.00,1.05
5323.00,1.04
5322.00,1.03
5321.00,1.02
5320.00,1.01
5319.00,1.00
5318.00,0.98
5317.00,0.97
5316.00,0.96
5315.00,0.95
5314.00,0.94
5313.00,0.93
5312.00,0.92
5311.00,0.91
5310.00,0.90
5309.00,0.89
5308.00,0.88
5307.00,0.87
5306.00,0.86
5305.00,0.85
5304.00,0.84
5303.00,0.83
5302.00,0.82
5301.00,0.81
5300.00,0.80
5299.00,0.79
5298.00,0.78
5297.00,0.78
5296.00,0.77
5295.00,0.76
5294.00,0.75
5293.00,0.74
5292.00,0.74
5291.00,0.73
5290.00,0.72
5289.00,0.72
5288.00,0.71
5287.00,0.71
5286.00,0.70
5285.00,0.70
5284.00,0.69
5283.00,0.69
5282.00,0.68
5281.00,0.68
5280.00,0.67
5279.00,0.67
5278.00,0.67
5277.00,0.66
5276.00,0.66
5275.00,0.66
5274.00,0.66
5273.00,0.66
5272.00,0.65
5271.00,0.65
5270.00,0.65
5269.00,0.65
5268.00,0.65
5267.00,0.65
5266.00,0.65
5265.00,0.65
5264.00,0.64
5263.00,0.64
5262.00,0.64
5261.00,0.64
5260.00,0.64
5259.00,0.64
5258.00,0.64
5257.00,0.64
5256.00,0.64
5255.00,0.64
5254.00,0.64
5253.00,0.64
5252.00,0.64
5251.00,0.64
5250.00,0.63
5249.00,0.63
5248.00,0.63
5247.00,0.63
5246.00,0.63
5245.00,0.62
5244.00,0.62
5243.00,0.62
5242.00,0.61
5241.00,0.61
5240.00,0.61
5239.00,0.61
5238.00,0.60
5237.00,0.60
5236.00,0.60
5235.00,0.59
5234.00,0.59
5233.00,0.59
5232.00,0.59
5231.00,0.58
5230.00,0.58
5229.00,0.58
5228.00,0.58
5227.00,0.58
5226.00,0.57
5225.00,0.57
5224.00,0.57
5223.00,0.57
5222.00,0.57
5221.00,0.57
5220.00,0.57
5219.00,0.57
5218.00,0.57
5217.00,0.57
5216.00,0.57
5215.00,0.57
5214.00,0.57
5213.00,0.57
5212.00,0.57
5211.00,0.57
5210.00,0.57
5209.00,0.57
5208.00,0.57
5207.00,0.57
5206.00,0.57
5205.00,0.57
5204.00,0.57
5203.00,0.57
5202.00,0.58
5201.00,0.58
5200.00,0.58
5199.00,0.58
5198.00,0.58
5197.00,0.58
5196.00,0.58
5195.00,0.58
5194.00,0.58
5193.00,0.58
5192.00,0.58
5191.00,0.58
5190.00,0.58
5189.00,0.58
5188.00,0.58
5187.00,0.58
5186.00,0.58
5185.00,0.58
5184.00,0.58
5183.00,0.58
5182.00,0.58
5181.00,0.58
5180.00,0.58
5179.00,0.58
5178.00,0.58
5177.00,0.58
5176.00,0.58
5175.00,0.58
5174.00,0.58
5173.00,0.58
5172.00,0.59
5171.00,0.59
5170.00,0.59
5169.00,0.59
5168.00,0.59
5167.00,0.59
5166.00,0.59
5165.00,0.59
5164.00,0.59
5163.00,0.60
5162.00,0.60
5161.00,0.60
5160.00,0.60
5159.00,0.60
5158.00,0.60
5157.00,0.60
5156.00,0.60
5155.00,0.61
5154.00,0.61
5153.00,0.61
5152.00,0.61
5151.00,0.61
5150.00,0.61
5149.00,0.62
5148.00,0.62
5147.00,0.62
5146.00,0.62
5145.00,0.62
5144.00,0.62
5143.00,0.62
5142.00,0.62
5141.00,0.63
5140.00,0.63
5139.00,0.63
5138.00,0.63
5137.00,0.63
5136.00,0.63
5135.00,0.63
5134.00,0.63
5133.00,0.63
5132.00,0.63
5131.00,0.63
5130.00,0.63
5129.00,0.63
5128.00,0.63
5127.00,0.63
5126.00,0.63
5125.00,0.63
5124.00,0.63
5123.00,0.63
5122.00,0.63
5121.00,0.63
5120.00,0.63
5119.00,0.63
5118.00,0.63
5117.00,0.63
5116.00,0.63
5115.00,0.63
5114.00,0.63
5113.00,0.63
5112.00,0.63
5111.00,0.63
5110.00,0.63
5109.00,0.63
5108.00,0.64
5107.00,0.64
5106.00,0.64
5105.00,0.64
5104.00,0.64
5103.00,0.64
5102.00,0.64
5101.00,0.64
5100.00,0.64
5099.00,0.64
5098.00,0.64
5097.00,0.64
5096.00,0.64
5095.00,0.64
5094.00,0.64
5093.00,0.64
5092.00,0.64
5091.00,0.65
5090.00,0.65
5089.00,0.65
5088.00,0.65
5087.00,0.65
5086.00,0.65
5085.00,0.65
5084.00,0.65
5083.00,0.65
5082.00,0.65
5081.00,0.65
5080.00,0.65
5079.00,0.66
5078.00,0.66
5077.00,0.66
5076.00,0.66
5075.00,0.66
5074.00,0.66
5073.00,0.66
5072.00,0.66
5071.00,0.66
5070.00,0.66
5069.00,0.66
5068.00,0.66
5067.00,0.66
5066.00,0.67
5065.00,0.67
5064.00,0.67
5063.00,0.67
5062.00,0.67
5061.00,0.67
5060.00,0.67
5059.00,0.67
5058.00,0.67
5057.00,0.67
5056.00,0.68
5055.00,0.68
5054.00,0.68
5053.00,0.68
5052.00,0.68
5051.00,0.69
5050.00,0.69
5049.00,0.69
5048.00,0.69
5047.00,0.69
5046.00,0.70
5045.00,0.70
5044.00,0.70
5043.00,0.70
5042.00,0.71
5041.00,0.71
5040.00,0.71
5039.00,0.71
5038.00,0.72
5037.00,0.72
5036.00,0.72
5035.00,0.72
5034.00,0.73
5033.00,0.73
5032.00,0.73
5031.00,0.73
5030.00,0.73
5029.00,0.74
5028.00,0.74
5027.00,0.74
5026.00,0.74
5025.00,0.74
5024.00,0.74
5023.00,0.75
5022.00,0.75
5021.00,0.75
5020.00,0.75
5019.00,0.75
5018.00,0.75
5017.00,0.75
5016.00,0.75
5015.00,0.75
5014.00,0.75
5013.00,0.75
5012.00,0.75
5011.00,0.75
5010.00,0.75
5009.00,0.76
5008.00,0.76
5007.00,0.76
5006.00,0.76
5005.00,0.76
5004.00,0.76
5003.00,0.76
5002.00,0.76
5001.00,0.77
5000.00,0.77
4999.00,0.77
4998.00,0.77
4997.00,0.77
4996.00,0.78
4995.00,0.78
4994.00,0.78
4993.00,0.78
4992.00,0.79
4991.00,0.79
4990.00,0.79
4989.00,0.80
4988.00,0.80
4987.00,0.80
4986.00,0.81
4985.00,0.81
4984.00,0.81
4983.00,0.82
4982.00,0.82
4981.00,0.82
4980.00,0.83
4979.00,0.83
4978.00,0.83
4977.00,0.83
4976.00,0.84
4975.00,0.84
4974.00,0.84
4973.00,0.84
4972.00,0.84
4971.00,0.84
4970.00,0.84
4969.00,0.84
4968.00,0.85
4967.00,0.85
4966.00,0.85
4965.00,0.85
4964.00,0.85
4963.00,0.85
4962.00,0.85
4961.00,0.85
4960.00,0.85
4959.00,0.85
4958.00,0.85
4957.00,0.85
4956.00,0.85
4955.00,0.85
4954.00,0.85
4953.00,0.85
4952.00,0.85
4951.00,0.85
4950.00,0.85
4949.00,0.85
4948.00,0.85
4947.00,0.85
4946.00,0.85
4945.00,0.85
4944.00,0.85
4943.00,0.85
4942.00,0.86
4941.00,0.86
4940.00,0.86
4939.00,0.86
4938.00,0.86
4937.00,0.86
4936.00,0.87
4935.00,0.87
4934.00,0.87
4933.00,0.87
4932.00,0.87
4931.00,0.87
4930.00,0.87
4929.00,0.88
4928.00,0.88
4927.00,0.88
4926.00,0.88
4925.00,0.88
4924.00,0.89
4923.00,0.89
4922.00,0.89
4921.00,0.89
4920.00,0.89
4919.00,0.90
4918.00,0.90
4917.00,0.90
4916.00,0.90
4915.00,0.90
4914.00,0.90
4913.00,0.91
4912.00,0.91
4911.00,0.91
4910.00,0.91
4909.00,0.91
4908.00,0.91
4907.00,0.92
4906.00,0.92
4905.00,0.92
4904.00,0.92
4903.00,0.92
4902.00,0.92
4901.00,0.92
4900.00,0.92
4899.00,0.92
4898.00,0.92
4897.00,0.92
4896.00,0.92
4895.00,0.92
4894.00,0.92
4893.00,0.92
4892.00,0.92
4891.00,0.92
4890.00,0.92
4889.00,0.92
4888.00,0.92
4887.00,0.92
4886.00,0.92
4885.00,0.92
4884.00,0.92
4883.00,0.92
4882.00,0.92
4881.00,0.92
4880.00,0.92
4879.00,0.92
4878.00,0.92
4877.00,0.92
4876.00,0.92
4875.00,0.92
4874.00,0.92
4873.00,0.92
4872.00,0.92
4871.00,0.92
4870.00,0.93
4869.00,0.93
4868.00,0.93
4867.00,0.93
4866.00,0.93
4865.00,0.94
4864.00,0.94
4863.00,0.94
4862.00,0.94
4861.00,0.94
4860.00,0.95
4859.00,0.95
4858.00,0.95
4857.00,0.95
4856.00,0.95
4855.00,0.96
4854.00,0.96
4853.00,0.96
4852.00,0.96
4851.00,0.96
4850.00,0.96
4849.00,0.96
4848.00,0.96
4847.00,0.96
4846.00,0.96
4845.00,0.96
4844.00,0.96
4843.00,0.96
4842.00,0.96
4841.00,0.96
4840.00,0.96
4839.00,0.96
4838.00,0.96
4837.00,0.96
4836.00,0.96
4835.00,0.96
4834.00,0.95
4833.00,0.95
4832.00,0.95
4831.00,0.95
4830.00,0.95
4829.00,0.95
4828.00,0.95
4827.00,0.95
4826.00,0.95
4825.00,0.95
4824.00,0.96
4823.00,0.96
4822.00,0.96
4821.00,0.96
4820.00,0.96
4819.00,0.96
4818.00,0.96
4817.00,0.97
4816.00,0.97
4815.00,0.97
4814.00,0.97
4813.00,0.98
4812.00,0.98
4811.00,0.98
4810.00,0.99
4809.00,0.99
4808.00,0.99
4807.00,1.00
4806.00,1.00
4805.00,1.00
4804.00,1.01
4803.00,1.01
4802.00,1.01
4801.00,1.01
4800.00,1.01
4799.00,1.02
4798.00,1.02
4797.00,1.02
4796.00,1.02
4795.00,1.03
4794.00,1.03
4793.00,1.03
4792.00,1.03
4791.00,1.03
4790.00,1.04
4789.00,1.04
4788.00,1.04
4787.00,1.04
4786.00,1.04
4785.00,1.05
4784.00,1.05
4783.00,1.05
4782.00,1.05
4781.00,1.05
4780.00,1.05
4779.00,1.05
4778.00,1.06
4777.00,1.06
4776.00,1.06
4775.00,1.06
4774.00,1.06
4773.00,1.06
4772.00,1.06
4771.00,1.07
4770.00,1.07
4769.00,1.07
4768.00,1.07
4767.00,1.07
4766.00,1.07
4765.00,1.07
4764.00,1.08
4763.00,1.08
4762.00,1.08
4761.00,1.08
4760.00,1.08
4759.00,1.08
4758.00,1.08
4757.00,1.08
4756.00,1.08
4755.00,1.09
4754.00,1.09
4753.00,1.09
4752.00,1.09
4751.00,1.09
4750.00,1.10
4749.00,1.10
4748.00,1.10
4747.00,1.10
4746.00,1.11
4745.00,1.11
4744.00,1.11
4743.00,1.11
4742.00,1.12
4741.00,1.12
4740.00,1.12
4739.00,1.12
4738.00,1.13
4737.00,1.13
4736.00,1.13
4735.00,1.14
4734.00,1.14
4733.00,1.14
4732.00,1.15
4731.00,1.15
4730.00,1.16
4729.00,1.16
4728.00,1.16
4727.00,1.17
4726.00,1.17
4725.00,1.18
4724.00,1.18
4723.00,1.18
4722.00,1.19
4721.00,1.19
4720.00,1.20
4719.00,1.20
4718.00,1.20
4717.00,1.21
4716.00,1.21
4715.00,1.21
4714.00,1.22
4713.00,1.22
4712.00,1.22
4711.00,1.23
4710.00,1.23
4709.00,1.23
4708.00,1.23
4707.00,1.24
4706.00,1.24
4705.00,1.24
4704.00,1.24
4703.00,1.24
4702.00,1.24
4701.00,1.24
4700.00,1.25
4699.00,1.25
4698.00,1.24
4697.00,1.24
4696.00,1.24
4695.00,1.24
4694.00,1.24
4693.00,1.24
4692.00,1.24
4691.00,1.24
4690.00,1.24
4689.00,1.24
4688.00,1.24
4687.00,1.24
4686.00,1.23
4685.00,1.23
4684.00,1.23
4683.00,1.23
4682.00,1.23
4681.00,1.23
4680.00,1.22
4679.00,1.22
4678.00,1.22
4677.00,1.22
4676.00,1.22
4675.00,1.22
4674.00,1.22
4673.00,1.22
4672.00,1.22
4671.00,1.22
4670.00,1.22
4669.00,1.22
4668.00,1.22
4667.00,1.22
4666.00,1.22
4665.00,1.22
4664.00,1.22
4663.00,1.23
4662.00,1.23
4661.00,1.23
4660.00,1.23
4659.00,1.24
4658.00,1.24
4657.00,1.24
4656.00,1.24
4655.00,1.25
4654.00,1.25
4653.00,1.25
4652.00,1.26
4651.00,1.26
4650.00,1.27
4649.00,1.27
4648.00,1.27
4647.00,1.28
4646.00,1.28
4645.00,1.29
4644.00,1.29
4643.00,1.29
4642.00,1.30
4641.00,1.30
4640.00,1.30
4639.00,1.31
4638.00,1.31
4637.00,1.31
4636.00,1.31
4635.00,1.32
4634.00,1.32
4633.00,1.32
4632.00,1.32
4631.00,1.32
4630.00,1.33
4629.00,1.33
4628.00,1.33
4627.00,1.33
4626.00,1.33
4625.00,1.33
4624.00,1.33
4623.00,1.33
4622.00,1.33
4621.00,1.33
4620.00,1.33
4619.00,1.33
4618.00,1.33
4617.00,1.32
4616.00,1.32
4615.00,1.32
4614.00,1.32
4613.00,1.32
4612.00,1.32
4611.00,1.32
4610.00,1.32
4609.00,1.32
4608.00,1.32
4607.00,1.32
4606.00,1.32
4605.00,1.32
4604.00,1.33
4603.00,1.33
4602.00,1.33
4601.00,1.33
4600.00,1.33
4599.00,1.33
4598.00,1.33
4597.00,1.34
4596.00,1.34
4595.00,1.34
4594.00,1.35
4593.00,1.35
4592.00,1.35
4591.00,1.36
4590.00,1.36
4589.00,1.36
4588.00,1.36
4587.00,1.37
4586.00,1.37
4585.00,1.37
4584.00,1.38
4583.00,1.38
4582.00,1.38
4581.00,1.38
4580.00,1.38
4579.00,1.38
4578.00,1.38
4577.00,1.39
4576.00,1.39
4575.00,1.39
4574.00,1.39
4573.00,1.39
4572.00,1.39
4571.00,1.39
4570.00,1.39
4569.00,1.39
4568.00,1.39
4567.00,1.39
4566.00,1.39
4565.00,1.39
4564.00,1.39
4563.00,1.39
4562.00,1.39
4561.00,1.39
4560.00,1.39
4559.00,1.39
4558.00,1.39
4557.00,1.39
4556.00,1.39
4555.00,1.39
4554.00,1.39
4553.00,1.39
4552.00,1.39
4551.00,1.39
4550.00,1.39
4549.00,1.39
4548.00,1.39
4547.00,1.39
4546.00,1.39
4545.00,1.39
4544.00,1.39
4543.00,1.39
4542.00,1.39
4541.00,1.39
4540.00,1.39
4539.00,1.39
4538.00,1.39
4537.00,1.39
4536.00,1.39
4535.00,1.39
4534.00,1.39
4533.00,1.39
4532.00,1.39
4531.00,1.39
4530.00,1.39
4529.00,1.39
4528.00,1.39
4527.00,1.39
4526.00,1.39
4525.00,1.39
4524.00,1.39
4523.00,1.39
4522.00,1.39
4521.00,1.40
4520.00,1.40
4519.00,1.40
4518.00,1.39
4517.00,1.39
4516.00,1.39
4515.00,1.39
4514.00,1.39
4513.00,1.39
4512.00,1.39
4511.00,1.39
4510.00,1.39
4509.00,1.39
4508.00,1.39
4507.00,1.39
4506.00,1.39
4505.00,1.39
4504.00,1.39
4503.00,1.39
4502.00,1.39
4501.00,1.39
4500.00,1.39
4499.00,1.39
4498.00,1.39
4497.00,1.39
4496.00,1.39
4495.00,1.39
4494.00,1.39
4493.00,1.39
4492.00,1.39
4491.00,1.39
4490.00,1.39
4489.00,1.39
4488.00,1.38
4487.00,1.38
4486.00,1.38
4485.00,1.38
4484.00,1.38
4483.00,1.38
4482.00,1.38
4481.00,1.38
4480.00,1.37
4479.00,1.37
4478.00,1.37
4477.00,1.37
4476.00,1.37
4475.00,1.36
4474.00,1.36
4473.00,1.36
4472.00,1.35
4471.00,1.35
4470.00,1.35
4469.00,1.34
4468.00,1.34
4467.00,1.34
4466.00,1.33
4465.00,1.33
4464.00,1.32
4463.00,1.32
4462.00,1.31
4461.00,1.31
4460.00,1.30
4459.00,1.30
4458.00,1.29
4457.00,1.28
4456.00,1.28
4455.00,1.27
4454.00,1.27
4453.00,1.26
4452.00,1.25
4451.00,1.25
4450.00,1.24
4449.00,1.24
4448.00,1.23
4447.00,1.22
4446.00,1.22
4445.00,1.21
4444.00,1.20
4443.00,1.20
4442.00,1.19
4441.00,1.18
4440.00,1.18
4439.00,1.17
4438.00,1.16
4437.00,1.15
4436.00,1.15
4435.00,1.14
4434.00,1.13
4433.00,1.13
4432.00,1.12
4431.00,1.11
4430.00,1.11
4429.00,1.10
4428.00,1.10
4427.00,1.09
4426.00,1.09
4425.00,1.08
4424.00,1.08
4423.00,1.07
4422.00,1.07
4421.00,1.06
4420.00,1.06
4419.00,1.05
4418.00,1.05
4417.00,1.05
4416.00,1.05
4415.00,1.04
4414.00,1.04
4413.00,1.04
4412.00,1.04
4411.00,1.04
4410.00,1.04
4409.00,1.04
4408.00,1.04
4407.00,1.04
4406.00,1.05
4405.00,1.05
4404.00,1.05
4403.00,1.05
4402.00,1.05
4401.00,1.06
4400.00,1.06
4399.00,1.06
4398.00,1.07
4397.00,1.07
4396.00,1.07
4395.00,1.08
4394.00,1.08
4393.00,1.08
4392.00,1.09
4391.00,1.09
4390.00,1.09
4389.00,1.09
4388.00,1.10
4387.00,1.10
4386.00,1.10
4385.00,1.10
4384.00,1.11
4383.00,1.11
4382.00,1.11
4381.00,1.11
4380.00,1.11
4379.00,1.11
4378.00,1.11
4377.00,1.12
4376.00,1.12
4375.00,1.12
4374.00,1.12
4373.00,1.12
4372.00,1.12
4371.00,1.13
4370.00,1.13
4369.00,1.13
4368.00,1.13
4367.00,1.13
4366.00,1.13
4365.00,1.13
4364.00,1.13
4363.00,1.14
4362.00,1.14
4361.00,1.14
4360.00,1.14
4359.00,1.14
4358.00,1.14
4357.00,1.14
4356.00,1.14
4355.00,1.13
4354.00,1.13
4353.00,1.13
4352.00,1.13
4351.00,1.13
4350.00,1.13
4349.00,1.12
4348.00,1.12
4347.00,1.12
4346.00,1.12
4345.00,1.11
4344.00,1.11
4343.00,1.11
4342.00,1.11
4341.00,1.10
4340.00,1.10
4339.00,1.10
4338.00,1.10
4337.00,1.10
4336.00,1.09
4335.00,1.09
4334.00,1.09
4333.00,1.10
4332.00,1.10
4331.00,1.10
4330.00,1.10
4329.00,1.10
4328.00,1.10
4327.00,1.11
4326.00,1.11
4325.00,1.11
4324.00,1.12
4323.00,1.12
4322.00,1.13
4321.00,1.13
4320.00,1.13
4319.00,1.14
4318.00,1.14
4317.00,1.15
4316.00,1.15
4315.00,1.16
4314.00,1.17
4313.00,1.17
4312.00,1.18
4311.00,1.18
4310.00,1.19
4309.00,1.20
4308.00,1.20
4307.00,1.21
4306.00,1.21
4305.00,1.22
4304.00,1.22
4303.00,1.22
4302.00,1.23
4301.00,1.23
4300.00,1.23
4299.00,1.23
4298.00,1.24
4297.00,1.24
4296.00,1.24
4295.00,1.24
4294.00,1.24
4293.00,1.25
4292.00,1.25
4291.00,1.25
4290.00,1.25
4289.00,1.25
4288.00,1.25
4287.00,1.25
4286.00,1.25
4285.00,1.25
4284.00,1.25
4283.00,1.25
4282.00,1.25
4281.00,1.25
4280.00,1.24
4279.00,1.24
4278.00,1.24
4277.00,1.24
4276.00,1.24
4275.00,1.24
4274.00,1.24
4273.00,1.24
4272.00,1.24
4271.00,1.24
4270.00,1.24
4269.00,1.23
4268.00,1.23
4267.00,1.23
4266.00,1.23
4265.00,1.23
4264.00,1.23
4263.00,1.23
4262.00,1.23
4261.00,1.23
4260.00,1.24
4259.00,1.24
4258.00,1.24
4257.00,1.24
4256.00,1.24
4255.00,1.24
4254.00,1.24
4253.00,1.25
4252.00,1.25
4251.00,1.25
4250.00,1.25
4249.00,1.25
4248.00,1.26
4247.00,1.26
4246.00,1.26
4245.00,1.26
4244.00,1.27
4243.00,1.27
4242.00,1.27
4241.00,1.27
4240.00,1.28
4239.00,1.28
4238.00,1.28
4237.00,1.28
4236.00,1.28
4235.00,1.28
4234.00,1.28
4233.00,1.28
4232.00,1.28
4231.00,1.28
4230.00,1.28
4229.00,1.28
4228.00,1.28
4227.00,1.28
4226.00,1.28
4225.00,1.28
4224.00,1.28
4223.00,1.28
4222.00,1.28
4221.00,1.28
4220.00,1.28
4219.00,1.28
4218.00,1.28
4217.00,1.28
4216.00,1.28
4215.00,1.28
4214.00,1.28
4213.00,1.28
4212.00,1.28
4211.00,1.28
4210.00,1.28
4209.00,1.28
4208.00,1.28
4207.00,1.29
4206.00,1.29
4205.00,1.29
4204.00,1.29
4203.00,1.29
4202.00,1.30
4201.00,1.30
4200.00,1.30
4199.00,1.30
4198.00,1.30
4197.00,1.30
4196.00,1.30
4195.00,1.30
4194.00,1.30
4193.00,1.30
4192.00,1.30
4191.00,1.30
4190.00,1.30
4189.00,1.30
4188.00,1.29
4187.00,1.29
4186.00,1.29
4185.00,1.29
4184.00,1.29
4183.00,1.29
4182.00,1.29
4181.00,1.29
4180.00,1.29
4179.00,1.29
4178.00,1.28
4177.00,1.28
4176.00,1.28
4175.00,1.28
4174.00,1.28
4173.00,1.28
4172.00,1.27
4171.00,1.27
4170.00,1.27
4169.00,1.27
4168.00,1.27
4167.00,1.27
4166.00,1.27
4165.00,1.26
4164.00,1.26
4163.00,1.26
4162.00,1.26
4161.00,1.26
4160.00,1.26
4159.00,1.26
4158.00,1.25
4157.00,1.25
4156.00,1.25
4155.00,1.25
4154.00,1.25
4153.00,1.25
4152.00,1.25
4151.00,1.24
4150.00,1.24
4149.00,1.24
4148.00,1.24
4147.00,1.24
4146.00,1.24
4145.00,1.24
4144.00,1.24
4143.00,1.24
4142.00,1.24
4141.00,1.24
4140.00,1.24
4139.00,1.25
4138.00,1.25
4137.00,1.25
4136.00,1.25
4135.00,1.25
4134.00,1.25
4133.00,1.25
4132.00,1.25
4131.00,1.25
4130.00,1.25
4129.00,1.25
4128.00,1.26
4127.00,1.26
4126.00,1.26
4125.00,1.26
4124.00,1.26
4123.00,1.26
4122.00,1.26
4121.00,1.27
4120.00,1.27
4119.00,1.27
4118.00,1.27
4117.00,1.27
4116.00,1.27
4115.00,1.27
4114.00,1.28
4113.00,1.28
4112.00,1.28
4111.00,1.28
4110.00,1.28
4109.00,1.28
4108.00,1.28
4107.00,1.28
4106.00,1.28
4105.00,1.28
4104.00,1.28
4103.00,1.28
4102.00,1.28
4101.00,1.28
4100.00,1.29
4099.00,1.29
4098.00,1.29
4097.00,1.28
4096.00,1.28
4095.00,1.28
4094.00,1.28
4093.00,1.28
4092.00,1.28
4091.00,1.28
4090.00,1.27
4089.00,1.27
4088.00,1.27
4087.00,1.27
4086.00,1.27
4085.00,1.26
4084.00,1.26
4083.00,1.26
4082.00,1.26
4081.00,1.26
4080.00,1.26
4079.00,1.25
4078.00,1.25
4077.00,1.25
4076.00,1.25
4075.00,1.25
4074.00,1.24
4073.00,1.24
4072.00,1.24
4071.00,1.24
4070.00,1.23
4069.00,1.23
4068.00,1.23
4067.00,1.23
4066.00,1.23
4065.00,1.23
4064.00,1.23
4063.00,1.23
4062.00,1.23
4061.00,1.23
4060.00,1.23
4059.00,1.23
4058.00,1.23
4057.00,1.24
4056.00,1.24
4055.00,1.24
4054.00,1.24
4053.00,1.25
4052.00,1.25
4051.00,1.25
4050.00,1.25
4049.00,1.26
4048.00,1.26
4047.00,1.27
4046.00,1.27
4045.00,1.28
4044.00,1.28
4043.00,1.29
4042.00,1.29
4041.00,1.30
4040.00,1.30
4039.00,1.30
4038.00,1.31
4037.00,1.31
4036.00,1.31
4035.00,1.31
4034.00,1.31
4033.00,1.31
4032.00,1.31
4031.00,1.31
4030.00,1.31
4029.00,1.31
4028.00,1.31
4027.00,1.31
4026.00,1.31
4025.00,1.31
4024.00,1.31
4023.00,1.31
4022.00,1.32
4021.00,1.32
4020.00,1.32
4019.00,1.32
4018.00,1.32
4017.00,1.32
4016.00,1.32
4015.00,1.32
4014.00,1.33
4013.00,1.33
4012.00,1.34
4011.00,1.35
4010.00,1.36
4009.00,1.37
4008.00,1.38
4007.00,1.38
4006.00,1.39
4005.00,1.40
4004.00,1.41
4003.00,1.42
4002.00,1.43
4001.00,1.45
4000.00,1.46
