创建为新数据集,样品 941 用户 Administrator 日期 星期一, 七月 29 2019
cm-1,%T
10000.00,1.24
9999.00,1.27
9998.00,1.29
9997.00,1.31
9996.00,1.33
9995.00,1.35
9994.00,1.37
9993.00,1.39
9992.00,1.41
9991.00,1.43
9990.00,1.45
9989.00,1.46
9988.00,1.48
9987.00,1.49
9986.00,1.51
9985.00,1.52
9984.00,1.53
9983.00,1.54
9982.00,1.55
9981.00,1.56
9980.00,1.57
9979.00,1.58
9978.00,1.59
9977.00,1.60
9976.00,1.60
9975.00,1.61
9974.00,1.61
9973.00,1.61
9972.00,1.61
9971.00,1.60
9970.00,1.60
9969.00,1.59
9968.00,1.58
9967.00,1.58
9966.00,1.57
9965.00,1.56
9964.00,1.55
9963.00,1.54
9962.00,1.53
9961.00,1.52
9960.00,1.52
9959.00,1.51
9958.00,1.50
9957.00,1.49
9956.00,1.48
9955.00,1.48
9954.00,1.47
9953.00,1.46
9952.00,1.45
9951.00,1.44
9950.00,1.43
9949.00,1.42
9948.00,1.41
9947.00,1.40
9946.00,1.39
9945.00,1.38
9944.00,1.38
9943.00,1.37
9942.00,1.37
9941.00,1.37
9940.00,1.36
9939.00,1.36
9938.00,1.36
9937.00,1.35
9936.00,1.35
9935.00,1.35
9934.00,1.34
9933.00,1.34
9932.00,1.33
9931.00,1.32
9930.00,1.32
9929.00,1.31
9928.00,1.30
9927.00,1.30
9926.00,1.29
9925.00,1.28
9924.00,1.28
9923.00,1.27
9922.00,1.27
9921.00,1.26
9920.00,1.26
9919.00,1.25
9918.00,1.25
9917.00,1.24
9916.00,1.24
9915.00,1.23
9914.00,1.23
9913.00,1.22
9912.00,1.22
9911.00,1.21
9910.00,1.21
9909.00,1.20
9908.00,1.20
9907.00,1.20
9906.00,1.19
9905.00,1.19
9904.00,1.20
9903.00,1.20
9902.00,1.20
9901.00,1.21
9900.00,1.21
9899.00,1.22
9898.00,1.22
9897.00,1.23
9896.00,1.24
9895.00,1.24
9894.00,1.25
9893.00,1.25
9892.00,1.26
9891.00,1.26
9890.00,1.27
9889.00,1.27
9888.00,1.28
9887.00,1.29
9886.00,1.29
9885.00,1.30
9884.00,1.31
9883.00,1.32
9882.00,1.32
9881.00,1.33
9880.00,1.34
9879.00,1.35
9878.00,1.35
9877.00,1.36
9876.00,1.36
9875.00,1.37
9874.00,1.37
9873.00,1.37
9872.00,1.37
9871.00,1.37
9870.00,1.37
9869.00,1.37
9868.00,1.37
9867.00,1.37
9866.00,1.37
9865.00,1.37
9864.00,1.37
9863.00,1.37
9862.00,1.37
9861.00,1.36
9860.00,1.36
9859.00,1.35
9858.00,1.35
9857.00,1.34
9856.00,1.33
9855.00,1.32
9854.00,1.31
9853.00,1.31
9852.00,1.30
9851.00,1.29
9850.00,1.28
9849.00,1.28
9848.00,1.27
9847.00,1.26
9846.00,1.26
9845.00,1.25
9844.00,1.25
9843.00,1.24
9842.00,1.24
9841.00,1.24
9840.00,1.23
9839.00,1.23
9838.00,1.22
9837.00,1.22
9836.00,1.22
9835.00,1.22
9834.00,1.22
9833.00,1.22
9832.00,1.22
9831.00,1.22
9830.00,1.22
9829.00,1.22
9828.00,1.22
9827.00,1.22
9826.00,1.23
9825.00,1.23
9824.00,1.23
9823.00,1.23
9822.00,1.24
9821.00,1.24
9820.00,1.24
9819.00,1.24
9818.00,1.25
9817.00,1.25
9816.00,1.25
9815.00,1.25
9814.00,1.25
9813.00,1.25
9812.00,1.25
9811.00,1.25
9810.00,1.25
9809.00,1.25
9808.00,1.25
9807.00,1.25
9806.00,1.25
9805.00,1.25
9804.00,1.25
9803.00,1.25
9802.00,1.25
9801.00,1.25
9800.00,1.25
9799.00,1.24
9798.00,1.24
9797.00,1.24
9796.00,1.24
9795.00,1.23
9794.00,1.23
9793.00,1.23
9792.00,1.22
9791.00,1.22
9790.00,1.21
9789.00,1.21
9788.00,1.21
9787.00,1.21
9786.00,1.21
9785.00,1.21
9784.00,1.20
9783.00,1.20
9782.00,1.20
9781.00,1.20
9780.00,1.20
9779.00,1.21
9778.00,1.21
9777.00,1.21
9776.00,1.21
9775.00,1.21
9774.00,1.22
9773.00,1.22
9772.00,1.23
9771.00,1.23
9770.00,1.24
9769.00,1.25
9768.00,1.26
9767.00,1.26
9766.00,1.27
9765.00,1.28
9764.00,1.29
9763.00,1.30
9762.00,1.31
9761.00,1.32
9760.00,1.33
9759.00,1.34
9758.00,1.35
9757.00,1.36
9756.00,1.37
9755.00,1.38
9754.00,1.39
9753.00,1.39
9752.00,1.40
9751.00,1.41
9750.00,1.41
9749.00,1.42
9748.00,1.42
9747.00,1.43
9746.00,1.43
9745.00,1.43
9744.00,1.43
9743.00,1.43
9742.00,1.43
9741.00,1.43
9740.00,1.43
9739.00,1.43
9738.00,1.42
9737.00,1.42
9736.00,1.41
9735.00,1.40
9734.00,1.40
9733.00,1.39
9732.00,1.38
9731.00,1.38
9730.00,1.37
9729.00,1.36
9728.00,1.36
9727.00,1.35
9726.00,1.35
9725.00,1.34
9724.00,1.33
9723.00,1.33
9722.00,1.32
9721.00,1.31
9720.00,1.31
9719.00,1.30
9718.00,1.30
9717.00,1.29
9716.00,1.28
9715.00,1.28
9714.00,1.28
9713.00,1.27
9712.00,1.27
9711.00,1.27
9710.00,1.27
9709.00,1.27
9708.00,1.27
9707.00,1.27
9706.00,1.27
9705.00,1.27
9704.00,1.26
9703.00,1.26
9702.00,1.26
9701.00,1.26
9700.00,1.26
9699.00,1.25
9698.00,1.25
9697.00,1.25
9696.00,1.25
9695.00,1.25
9694.00,1.25
9693.00,1.24
9692.00,1.24
9691.00,1.24
9690.00,1.24
9689.00,1.24
9688.00,1.24
9687.00,1.24
9686.00,1.24
9685.00,1.23
9684.00,1.23
9683.00,1.23
9682.00,1.22
9681.00,1.22
9680.00,1.21
9679.00,1.21
9678.00,1.21
9677.00,1.21
9676.00,1.20
9675.00,1.20
9674.00,1.20
9673.00,1.20
9672.00,1.19
9671.00,1.19
9670.00,1.19
9669.00,1.19
9668.00,1.18
9667.00,1.18
9666.00,1.18
9665.00,1.18
9664.00,1.18
9663.00,1.18
9662.00,1.18
9661.00,1.18
9660.00,1.18
9659.00,1.19
9658.00,1.19
9657.00,1.19
9656.00,1.19
9655.00,1.19
9654.00,1.20
9653.00,1.20
9652.00,1.20
9651.00,1.20
9650.00,1.21
9649.00,1.21
9648.00,1.21
9647.00,1.21
9646.00,1.21
9645.00,1.21
9644.00,1.22
9643.00,1.22
9642.00,1.21
9641.00,1.21
9640.00,1.21
9639.00,1.21
9638.00,1.21
9637.00,1.20
9636.00,1.20
9635.00,1.20
9634.00,1.19
9633.00,1.19
9632.00,1.18
9631.00,1.18
9630.00,1.17
9629.00,1.17
9628.00,1.17
9627.00,1.16
9626.00,1.16
9625.00,1.15
9624.00,1.15
9623.00,1.14
9622.00,1.14
9621.00,1.13
9620.00,1.13
9619.00,1.12
9618.00,1.12
9617.00,1.11
9616.00,1.11
9615.00,1.10
9614.00,1.10
9613.00,1.09
9612.00,1.09
9611.00,1.08
9610.00,1.08
9609.00,1.08
9608.00,1.08
9607.00,1.08
9606.00,1.07
9605.00,1.08
9604.00,1.08
9603.00,1.08
9602.00,1.08
9601.00,1.09
9600.00,1.09
9599.00,1.09
9598.00,1.10
9597.00,1.10
9596.00,1.11
9595.00,1.12
9594.00,1.12
9593.00,1.13
9592.00,1.14
9591.00,1.14
9590.00,1.15
9589.00,1.16
9588.00,1.16
9587.00,1.17
9586.00,1.18
9585.00,1.18
9584.00,1.19
9583.00,1.19
9582.00,1.20
9581.00,1.20
9580.00,1.20
9579.00,1.21
9578.00,1.21
9577.00,1.21
9576.00,1.21
9575.00,1.21
9574.00,1.20
9573.00,1.20
9572.00,1.20
9571.00,1.19
9570.00,1.19
9569.00,1.19
9568.00,1.19
9567.00,1.18
9566.00,1.18
9565.00,1.18
9564.00,1.18
9563.00,1.19
9562.00,1.19
9561.00,1.20
9560.00,1.20
9559.00,1.21
9558.00,1.21
9557.00,1.22
9556.00,1.23
9555.00,1.24
9554.00,1.24
9553.00,1.25
9552.00,1.26
9551.00,1.27
9550.00,1.28
9549.00,1.28
9548.00,1.29
9547.00,1.30
9546.00,1.31
9545.00,1.31
9544.00,1.32
9543.00,1.32
9542.00,1.33
9541.00,1.33
9540.00,1.33
9539.00,1.33
9538.00,1.33
9537.00,1.33
9536.00,1.32
9535.00,1.32
9534.00,1.31
9533.00,1.30
9532.00,1.29
9531.00,1.29
9530.00,1.27
9529.00,1.26
9528.00,1.25
9527.00,1.24
9526.00,1.23
9525.00,1.22
9524.00,1.21
9523.00,1.20
9522.00,1.19
9521.00,1.18
9520.00,1.17
9519.00,1.16
9518.00,1.15
9517.00,1.14
9516.00,1.14
9515.00,1.13
9514.00,1.12
9513.00,1.12
9512.00,1.11
9511.00,1.10
9510.00,1.10
9509.00,1.09
9508.00,1.09
9507.00,1.08
9506.00,1.08
9505.00,1.08
9504.00,1.07
9503.00,1.07
9502.00,1.07
9501.00,1.07
9500.00,1.07
9499.00,1.07
9498.00,1.07
9497.00,1.08
9496.00,1.08
9495.00,1.08
9494.00,1.08
9493.00,1.08
9492.00,1.08
9491.00,1.08
9490.00,1.08
9489.00,1.08
9488.00,1.08
9487.00,1.08
9486.00,1.08
9485.00,1.08
9484.00,1.09
9483.00,1.09
9482.00,1.09
9481.00,1.10
9480.00,1.10
9479.00,1.11
9478.00,1.12
9477.00,1.12
9476.00,1.12
9475.00,1.13
9474.00,1.13
9473.00,1.14
9472.00,1.14
9471.00,1.14
9470.00,1.14
9469.00,1.15
9468.00,1.15
9467.00,1.16
9466.00,1.16
9465.00,1.17
9464.00,1.17
9463.00,1.18
9462.00,1.18
9461.00,1.19
9460.00,1.20
9459.00,1.20
9458.00,1.20
9457.00,1.21
9456.00,1.21
9455.00,1.21
9454.00,1.21
9453.00,1.21
9452.00,1.21
9451.00,1.21
9450.00,1.20
9449.00,1.20
9448.00,1.20
9447.00,1.20
9446.00,1.21
9445.00,1.21
9444.00,1.21
9443.00,1.21
9442.00,1.21
9441.00,1.22
9440.00,1.22
9439.00,1.22
9438.00,1.22
9437.00,1.22
9436.00,1.22
9435.00,1.22
9434.00,1.22
9433.00,1.22
9432.00,1.22
9431.00,1.22
9430.00,1.22
9429.00,1.22
9428.00,1.22
9427.00,1.22
9426.00,1.22
9425.00,1.21
9424.00,1.21
9423.00,1.21
9422.00,1.20
9421.00,1.20
9420.00,1.19
9419.00,1.19
9418.00,1.18
9417.00,1.17
9416.00,1.16
9415.00,1.15
9414.00,1.14
9413.00,1.13
9412.00,1.12
9411.00,1.11
9410.00,1.10
9409.00,1.10
9408.00,1.09
9407.00,1.08
9406.00,1.08
9405.00,1.08
9404.00,1.08
9403.00,1.07
9402.00,1.07
9401.00,1.07
9400.00,1.08
9399.00,1.08
9398.00,1.08
9397.00,1.09
9396.00,1.09
9395.00,1.10
9394.00,1.11
9393.00,1.12
9392.00,1.13
9391.00,1.14
9390.00,1.15
9389.00,1.16
9388.00,1.17
9387.00,1.19
9386.00,1.20
9385.00,1.21
9384.00,1.22
9383.00,1.23
9382.00,1.23
9381.00,1.24
9380.00,1.25
9379.00,1.25
9378.00,1.25
9377.00,1.26
9376.00,1.26
9375.00,1.26
9374.00,1.26
9373.00,1.26
9372.00,1.26
9371.00,1.26
9370.00,1.25
9369.00,1.25
9368.00,1.25
9367.00,1.24
9366.00,1.24
9365.00,1.24
9364.00,1.23
9363.00,1.23
9362.00,1.22
9361.00,1.22
9360.00,1.21
9359.00,1.21
9358.00,1.21
9357.00,1.21
9356.00,1.20
9355.00,1.20
9354.00,1.20
9353.00,1.20
9352.00,1.20
9351.00,1.20
9350.00,1.20
9349.00,1.20
9348.00,1.20
9347.00,1.20
9346.00,1.20
9345.00,1.20
9344.00,1.20
9343.00,1.20
9342.00,1.21
9341.00,1.21
9340.00,1.21
9339.00,1.21
9338.00,1.21
9337.00,1.21
9336.00,1.21
9335.00,1.21
9334.00,1.20
9333.00,1.20
9332.00,1.20
9331.00,1.20
9330.00,1.20
9329.00,1.20
9328.00,1.20
9327.00,1.20
9326.00,1.20
9325.00,1.20
9324.00,1.20
9323.00,1.20
9322.00,1.20
9321.00,1.20
9320.00,1.20
9319.00,1.21
9318.00,1.21
9317.00,1.21
9316.00,1.21
9315.00,1.22
9314.00,1.22
9313.00,1.22
9312.00,1.23
9311.00,1.23
9310.00,1.23
9309.00,1.23
9308.00,1.23
9307.00,1.24
9306.00,1.24
9305.00,1.24
9304.00,1.24
9303.00,1.24
9302.00,1.24
9301.00,1.24
9300.00,1.24
9299.00,1.24
9298.00,1.25
9297.00,1.25
9296.00,1.25
9295.00,1.25
9294.00,1.25
9293.00,1.25
9292.00,1.25
9291.00,1.25
9290.00,1.25
9289.00,1.25
9288.00,1.25
9287.00,1.25
9286.00,1.25
9285.00,1.25
9284.00,1.25
9283.00,1.25
9282.00,1.25
9281.00,1.25
9280.00,1.25
9279.00,1.25
9278.00,1.25
9277.00,1.25
9276.00,1.25
9275.00,1.24
9274.00,1.24
9273.00,1.24
9272.00,1.23
9271.00,1.23
9270.00,1.23
9269.00,1.22
9268.00,1.22
9267.00,1.21
9266.00,1.21
9265.00,1.20
9264.00,1.20
9263.00,1.19
9262.00,1.19
9261.00,1.18
9260.00,1.18
9259.00,1.17
9258.00,1.17
9257.00,1.17
9256.00,1.16
9255.00,1.16
9254.00,1.16
9253.00,1.16
9252.00,1.16
9251.00,1.16
9250.00,1.16
9249.00,1.16
9248.00,1.16
9247.00,1.16
9246.00,1.16
9245.00,1.17
9244.00,1.17
9243.00,1.17
9242.00,1.18
9241.00,1.18
9240.00,1.18
9239.00,1.19
9238.00,1.19
9237.00,1.20
9236.00,1.20
9235.00,1.21
9234.00,1.21
9233.00,1.21
9232.00,1.22
9231.00,1.22
9230.00,1.22
9229.00,1.22
9228.00,1.22
9227.00,1.22
9226.00,1.21
9225.00,1.21
9224.00,1.21
9223.00,1.21
9222.00,1.20
9221.00,1.20
9220.00,1.20
9219.00,1.20
9218.00,1.20
9217.00,1.19
9216.00,1.19
9215.00,1.19
9214.00,1.19
9213.00,1.18
9212.00,1.18
9211.00,1.17
9210.00,1.17
9209.00,1.16
9208.00,1.16
9207.00,1.15
9206.00,1.15
9205.00,1.15
9204.00,1.15
9203.00,1.15
9202.00,1.15
9201.00,1.15
9200.00,1.15
9199.00,1.15
9198.00,1.15
9197.00,1.15
9196.00,1.15
9195.00,1.15
9194.00,1.15
9193.00,1.15
9192.00,1.15
9191.00,1.15
9190.00,1.15
9189.00,1.15
9188.00,1.15
9187.00,1.16
9186.00,1.16
9185.00,1.16
9184.00,1.17
9183.00,1.17
9182.00,1.18
9181.00,1.18
9180.00,1.18
9179.00,1.19
9178.00,1.19
9177.00,1.19
9176.00,1.19
9175.00,1.20
9174.00,1.20
9173.00,1.20
9172.00,1.20
9171.00,1.20
9170.00,1.20
9169.00,1.20
9168.00,1.20
9167.00,1.20
9166.00,1.20
9165.00,1.21
9164.00,1.21
9163.00,1.21
9162.00,1.21
9161.00,1.21
9160.00,1.21
9159.00,1.20
9158.00,1.20
9157.00,1.20
9156.00,1.20
9155.00,1.20
9154.00,1.20
9153.00,1.20
9152.00,1.20
9151.00,1.20
9150.00,1.20
9149.00,1.20
9148.00,1.20
9147.00,1.20
9146.00,1.20
9145.00,1.20
9144.00,1.20
9143.00,1.20
9142.00,1.20
9141.00,1.20
9140.00,1.20
9139.00,1.20
9138.00,1.20
9137.00,1.20
9136.00,1.20
9135.00,1.20
9134.00,1.20
9133.00,1.20
9132.00,1.20
9131.00,1.19
9130.00,1.19
9129.00,1.19
9128.00,1.19
9127.00,1.18
9126.00,1.18
9125.00,1.18
9124.00,1.18
9123.00,1.18
9122.00,1.18
9121.00,1.18
9120.00,1.18
9119.00,1.18
9118.00,1.18
9117.00,1.18
9116.00,1.18
9115.00,1.18
9114.00,1.19
9113.00,1.19
9112.00,1.19
9111.00,1.19
9110.00,1.20
9109.00,1.20
9108.00,1.20
9107.00,1.21
9106.00,1.22
9105.00,1.22
9104.00,1.23
9103.00,1.24
9102.00,1.24
9101.00,1.25
9100.00,1.25
9099.00,1.26
9098.00,1.27
9097.00,1.27
9096.00,1.28
9095.00,1.28
9094.00,1.28
9093.00,1.29
9092.00,1.29
9091.00,1.29
9090.00,1.30
9089.00,1.30
9088.00,1.30
9087.00,1.30
9086.00,1.31
9085.00,1.31
9084.00,1.32
9083.00,1.32
9082.00,1.32
9081.00,1.33
9080.00,1.33
9079.00,1.34
9078.00,1.34
9077.00,1.35
9076.00,1.35
9075.00,1.36
9074.00,1.36
9073.00,1.37
9072.00,1.37
9071.00,1.37
9070.00,1.37
9069.00,1.38
9068.00,1.38
9067.00,1.38
9066.00,1.38
9065.00,1.38
9064.00,1.38
9063.00,1.39
9062.00,1.39
9061.00,1.39
9060.00,1.38
9059.00,1.38
9058.00,1.38
9057.00,1.37
9056.00,1.37
9055.00,1.36
9054.00,1.35
9053.00,1.34
9052.00,1.33
9051.00,1.32
9050.00,1.31
9049.00,1.30
9048.00,1.29
9047.00,1.28
9046.00,1.28
9045.00,1.27
9044.00,1.26
9043.00,1.26
9042.00,1.26
9041.00,1.25
9040.00,1.25
9039.00,1.25
9038.00,1.24
9037.00,1.24
9036.00,1.24
9035.00,1.24
9034.00,1.24
9033.00,1.24
9032.00,1.25
9031.00,1.25
9030.00,1.25
9029.00,1.26
9028.00,1.26
9027.00,1.27
9026.00,1.28
9025.00,1.29
9024.00,1.29
9023.00,1.30
9022.00,1.31
9021.00,1.31
9020.00,1.32
9019.00,1.32
9018.00,1.32
9017.00,1.32
9016.00,1.33
9015.00,1.33
9014.00,1.33
9013.00,1.33
9012.00,1.33
9011.00,1.33
9010.00,1.33
9009.00,1.33
9008.00,1.33
9007.00,1.33
9006.00,1.33
9005.00,1.33
9004.00,1.33
9003.00,1.33
9002.00,1.32
9001.00,1.32
9000.00,1.32
8999.00,1.32
8998.00,1.32
8997.00,1.32
8996.00,1.32
8995.00,1.32
8994.00,1.32
8993.00,1.32
8992.00,1.32
8991.00,1.33
8990.00,1.33
8989.00,1.33
8988.00,1.34
8987.00,1.34
8986.00,1.34
8985.00,1.34
8984.00,1.34
8983.00,1.35
8982.00,1.35
8981.00,1.35
8980.00,1.35
8979.00,1.35
8978.00,1.36
8977.00,1.36
8976.00,1.36
8975.00,1.36
8974.00,1.36
8973.00,1.36
8972.00,1.36
8971.00,1.36
8970.00,1.36
8969.00,1.36
8968.00,1.35
8967.00,1.35
8966.00,1.34
8965.00,1.34
8964.00,1.33
8963.00,1.33
8962.00,1.32
8961.00,1.32
8960.00,1.31
8959.00,1.31
8958.00,1.30
8957.00,1.30
8956.00,1.29
8955.00,1.29
8954.00,1.28
8953.00,1.28
8952.00,1.27
8951.00,1.27
8950.00,1.26
8949.00,1.26
8948.00,1.26
8947.00,1.25
8946.00,1.25
8945.00,1.25
8944.00,1.24
8943.00,1.24
8942.00,1.24
8941.00,1.24
8940.00,1.24
8939.00,1.24
8938.00,1.24
8937.00,1.24
8936.00,1.24
8935.00,1.24
8934.00,1.23
8933.00,1.23
8932.00,1.23
8931.00,1.23
8930.00,1.23
8929.00,1.23
8928.00,1.23
8927.00,1.22
8926.00,1.22
8925.00,1.22
8924.00,1.22
8923.00,1.22
8922.00,1.22
8921.00,1.22
8920.00,1.21
8919.00,1.21
8918.00,1.21
8917.00,1.21
8916.00,1.21
8915.00,1.20
8914.00,1.20
8913.00,1.20
8912.00,1.20
8911.00,1.20
8910.00,1.21
8909.00,1.21
8908.00,1.21
8907.00,1.21
8906.00,1.22
8905.00,1.22
8904.00,1.22
8903.00,1.23
8902.00,1.23
8901.00,1.24
8900.00,1.24
8899.00,1.25
8898.00,1.26
8897.00,1.26
8896.00,1.27
8895.00,1.28
8894.00,1.29
8893.00,1.29
8892.00,1.30
8891.00,1.31
8890.00,1.31
8889.00,1.32
8888.00,1.32
8887.00,1.33
8886.00,1.33
8885.00,1.34
8884.00,1.34
8883.00,1.34
8882.00,1.35
8881.00,1.35
8880.00,1.35
8879.00,1.35
8878.00,1.35
8877.00,1.35
8876.00,1.36
8875.00,1.36
8874.00,1.36
8873.00,1.36
8872.00,1.35
8871.00,1.35
8870.00,1.35
8869.00,1.35
8868.00,1.35
8867.00,1.34
8866.00,1.34
8865.00,1.34
8864.00,1.34
8863.00,1.34
8862.00,1.33
8861.00,1.33
8860.00,1.33
8859.00,1.33
8858.00,1.33
8857.00,1.33
8856.00,1.33
8855.00,1.33
8854.00,1.33
8853.00,1.33
8852.00,1.33
8851.00,1.33
8850.00,1.33
8849.00,1.33
8848.00,1.33
8847.00,1.33
8846.00,1.33
8845.00,1.33
8844.00,1.33
8843.00,1.33
8842.00,1.33
8841.00,1.33
8840.00,1.33
8839.00,1.33
8838.00,1.33
8837.00,1.33
8836.00,1.32
8835.00,1.32
8834.00,1.31
8833.00,1.31
8832.00,1.30
8831.00,1.30
8830.00,1.29
8829.00,1.29
8828.00,1.28
8827.00,1.28
8826.00,1.27
8825.00,1.27
8824.00,1.27
8823.00,1.26
8822.00,1.26
8821.00,1.25
8820.00,1.25
8819.00,1.25
8818.00,1.24
8817.00,1.24
8816.00,1.24
8815.00,1.23
8814.00,1.23
8813.00,1.23
8812.00,1.23
8811.00,1.23
8810.00,1.23
8809.00,1.23
8808.00,1.23
8807.00,1.23
8806.00,1.23
8805.00,1.23
8804.00,1.23
8803.00,1.23
8802.00,1.24
8801.00,1.24
8800.00,1.24
8799.00,1.23
8798.00,1.23
8797.00,1.23
8796.00,1.23
8795.00,1.23
8794.00,1.23
8793.00,1.23
8792.00,1.23
8791.00,1.23
8790.00,1.23
8789.00,1.23
8788.00,1.23
8787.00,1.24
8786.00,1.24
8785.00,1.24
8784.00,1.24
8783.00,1.24
8782.00,1.24
8781.00,1.24
8780.00,1.24
8779.00,1.24
8778.00,1.24
8777.00,1.24
8776.00,1.24
8775.00,1.25
8774.00,1.25
8773.00,1.25
8772.00,1.25
8771.00,1.26
8770.00,1.26
8769.00,1.26
8768.00,1.27
8767.00,1.27
8766.00,1.27
8765.00,1.27
8764.00,1.27
8763.00,1.27
8762.00,1.27
8761.00,1.27
8760.00,1.28
8759.00,1.28
8758.00,1.28
8757.00,1.28
8756.00,1.28
8755.00,1.28
8754.00,1.29
8753.00,1.29
8752.00,1.29
8751.00,1.30
8750.00,1.30
8749.00,1.30
8748.00,1.31
8747.00,1.31
8746.00,1.32
8745.00,1.32
8744.00,1.32
8743.00,1.33
8742.00,1.33
8741.00,1.34
8740.00,1.34
8739.00,1.35
8738.00,1.36
8737.00,1.36
8736.00,1.37
8735.00,1.37
8734.00,1.38
8733.00,1.38
8732.00,1.38
8731.00,1.38
8730.00,1.38
8729.00,1.38
8728.00,1.38
8727.00,1.38
8726.00,1.38
8725.00,1.37
8724.00,1.37
8723.00,1.37
8722.00,1.36
8721.00,1.36
8720.00,1.36
8719.00,1.35
8718.00,1.35
8717.00,1.34
8716.00,1.33
8715.00,1.32
8714.00,1.32
8713.00,1.31
8712.00,1.30
8711.00,1.29
8710.00,1.28
8709.00,1.28
8708.00,1.27
8707.00,1.27
8706.00,1.26
8705.00,1.26
8704.00,1.26
8703.00,1.26
8702.00,1.26
8701.00,1.25
8700.00,1.25
8699.00,1.25
8698.00,1.25
8697.00,1.24
8696.00,1.24
8695.00,1.24
8694.00,1.24
8693.00,1.24
8692.00,1.24
8691.00,1.24
8690.00,1.24
8689.00,1.24
8688.00,1.25
8687.00,1.25
8686.00,1.25
8685.00,1.26
8684.00,1.26
8683.00,1.26
8682.00,1.26
8681.00,1.26
8680.00,1.26
8679.00,1.26
8678.00,1.25
8677.00,1.25
8676.00,1.25
8675.00,1.25
8674.00,1.24
8673.00,1.24
8672.00,1.24
8671.00,1.24
8670.00,1.24
8669.00,1.24
8668.00,1.23
8667.00,1.23
8666.00,1.23
8665.00,1.23
8664.00,1.22
8663.00,1.22
8662.00,1.21
8661.00,1.20
8660.00,1.20
8659.00,1.19
8658.00,1.18
8657.00,1.18
8656.00,1.17
8655.00,1.17
8654.00,1.16
8653.00,1.16
8652.00,1.16
8651.00,1.16
8650.00,1.16
8649.00,1.16
8648.00,1.16
8647.00,1.16
8646.00,1.16
8645.00,1.16
8644.00,1.16
8643.00,1.16
8642.00,1.16
8641.00,1.16
8640.00,1.16
8639.00,1.17
8638.00,1.17
8637.00,1.17
8636.00,1.17
8635.00,1.18
8634.00,1.18
8633.00,1.19
8632.00,1.19
8631.00,1.20
8630.00,1.20
8629.00,1.20
8628.00,1.21
8627.00,1.21
8626.00,1.21
8625.00,1.22
8624.00,1.22
8623.00,1.22
8622.00,1.22
8621.00,1.22
8620.00,1.22
8619.00,1.22
8618.00,1.22
8617.00,1.22
8616.00,1.22
8615.00,1.22
8614.00,1.22
8613.00,1.22
8612.00,1.23
8611.00,1.23
8610.00,1.23
8609.00,1.23
8608.00,1.23
8607.00,1.24
8606.00,1.24
8605.00,1.24
8604.00,1.24
8603.00,1.24
8602.00,1.24
8601.00,1.24
8600.00,1.24
8599.00,1.24
8598.00,1.24
8597.00,1.24
8596.00,1.24
8595.00,1.25
8594.00,1.25
8593.00,1.25
8592.00,1.25
8591.00,1.25
8590.00,1.25
8589.00,1.25
8588.00,1.25
8587.00,1.25
8586.00,1.25
8585.00,1.24
8584.00,1.24
8583.00,1.24
8582.00,1.23
8581.00,1.23
8580.00,1.23
8579.00,1.22
8578.00,1.22
8577.00,1.22
8576.00,1.22
8575.00,1.22
8574.00,1.22
8573.00,1.22
8572.00,1.21
8571.00,1.21
8570.00,1.21
8569.00,1.21
8568.00,1.21
8567.00,1.21
8566.00,1.21
8565.00,1.20
8564.00,1.20
8563.00,1.20
8562.00,1.20
8561.00,1.20
8560.00,1.21
8559.00,1.21
8558.00,1.21
8557.00,1.21
8556.00,1.21
8555.00,1.22
8554.00,1.22
8553.00,1.22
8552.00,1.23
8551.00,1.23
8550.00,1.23
8549.00,1.23
8548.00,1.23
8547.00,1.24
8546.00,1.24
8545.00,1.24
8544.00,1.24
8543.00,1.24
8542.00,1.24
8541.00,1.24
8540.00,1.25
8539.00,1.25
8538.00,1.25
8537.00,1.25
8536.00,1.25
8535.00,1.25
8534.00,1.25
8533.00,1.25
8532.00,1.25
8531.00,1.25
8530.00,1.25
8529.00,1.25
8528.00,1.25
8527.00,1.25
8526.00,1.25
8525.00,1.25
8524.00,1.25
8523.00,1.24
8522.00,1.24
8521.00,1.24
8520.00,1.24
8519.00,1.23
8518.00,1.23
8517.00,1.23
8516.00,1.23
8515.00,1.23
8514.00,1.23
8513.00,1.23
8512.00,1.23
8511.00,1.23
8510.00,1.23
8509.00,1.22
8508.00,1.22
8507.00,1.22
8506.00,1.22
8505.00,1.22
8504.00,1.22
8503.00,1.22
8502.00,1.22
8501.00,1.22
8500.00,1.22
8499.00,1.22
8498.00,1.22
8497.00,1.22
8496.00,1.22
8495.00,1.22
8494.00,1.22
8493.00,1.22
8492.00,1.22
8491.00,1.22
8490.00,1.22
8489.00,1.22
8488.00,1.21
8487.00,1.21
8486.00,1.21
8485.00,1.21
8484.00,1.21
8483.00,1.20
8482.00,1.20
8481.00,1.20
8480.00,1.20
8479.00,1.19
8478.00,1.19
8477.00,1.19
8476.00,1.19
8475.00,1.19
8474.00,1.19
8473.00,1.19
8472.00,1.19
8471.00,1.19
8470.00,1.20
8469.00,1.20
8468.00,1.20
8467.00,1.20
8466.00,1.20
8465.00,1.20
8464.00,1.20
8463.00,1.21
8462.00,1.21
8461.00,1.21
8460.00,1.21
8459.00,1.21
8458.00,1.21
8457.00,1.21
8456.00,1.22
8455.00,1.22
8454.00,1.22
8453.00,1.22
8452.00,1.23
8451.00,1.23
8450.00,1.23
8449.00,1.23
8448.00,1.23
8447.00,1.23
8446.00,1.22
8445.00,1.22
8444.00,1.22
8443.00,1.22
8442.00,1.22
8441.00,1.21
8440.00,1.21
8439.00,1.21
8438.00,1.21
8437.00,1.21
8436.00,1.21
8435.00,1.21
8434.00,1.21
8433.00,1.21
8432.00,1.21
8431.00,1.21
8430.00,1.21
8429.00,1.21
8428.00,1.21
8427.00,1.21
8426.00,1.21
8425.00,1.21
8424.00,1.22
8423.00,1.22
8422.00,1.22
8421.00,1.22
8420.00,1.22
8419.00,1.22
8418.00,1.23
8417.00,1.23
8416.00,1.23
8415.00,1.23
8414.00,1.23
8413.00,1.23
8412.00,1.23
8411.00,1.23
8410.00,1.23
8409.00,1.23
8408.00,1.23
8407.00,1.23
8406.00,1.22
8405.00,1.22
8404.00,1.22
8403.00,1.22
8402.00,1.22
8401.00,1.22
8400.00,1.21
8399.00,1.21
8398.00,1.21
8397.00,1.21
8396.00,1.20
8395.00,1.20
8394.00,1.20
8393.00,1.20
8392.00,1.20
8391.00,1.20
8390.00,1.19
8389.00,1.19
8388.00,1.19
8387.00,1.20
8386.00,1.20
8385.00,1.20
8384.00,1.20
8383.00,1.20
8382.00,1.20
8381.00,1.21
8380.00,1.21
8379.00,1.21
8378.00,1.21
8377.00,1.21
8376.00,1.21
8375.00,1.21
8374.00,1.22
8373.00,1.22
8372.00,1.22
8371.00,1.22
8370.00,1.22
8369.00,1.22
8368.00,1.23
8367.00,1.23
8366.00,1.23
8365.00,1.23
8364.00,1.23
8363.00,1.24
8362.00,1.24
8361.00,1.24
8360.00,1.24
8359.00,1.24
8358.00,1.24
8357.00,1.24
8356.00,1.24
8355.00,1.25
8354.00,1.25
8353.00,1.25
8352.00,1.25
8351.00,1.26
8350.00,1.26
8349.00,1.26
8348.00,1.27
8347.00,1.27
8346.00,1.27
8345.00,1.27
8344.00,1.28
8343.00,1.28
8342.00,1.28
8341.00,1.28
8340.00,1.28
8339.00,1.28
8338.00,1.28
8337.00,1.28
8336.00,1.28
8335.00,1.28
8334.00,1.28
8333.00,1.28
8332.00,1.28
8331.00,1.28
8330.00,1.28
8329.00,1.27
8328.00,1.27
8327.00,1.27
8326.00,1.26
8325.00,1.26
8324.00,1.25
8323.00,1.24
8322.00,1.24
8321.00,1.23
8320.00,1.23
8319.00,1.22
8318.00,1.22
8317.00,1.22
8316.00,1.21
8315.00,1.21
8314.00,1.21
8313.00,1.21
8312.00,1.21
8311.00,1.20
8310.00,1.20
8309.00,1.20
8308.00,1.20
8307.00,1.20
8306.00,1.20
8305.00,1.19
8304.00,1.19
8303.00,1.19
8302.00,1.19
8301.00,1.19
8300.00,1.19
8299.00,1.19
8298.00,1.19
8297.00,1.20
8296.00,1.20
8295.00,1.20
8294.00,1.20
8293.00,1.20
8292.00,1.20
8291.00,1.20
8290.00,1.20
8289.00,1.20
8288.00,1.20
8287.00,1.20
8286.00,1.20
8285.00,1.20
8284.00,1.21
8283.00,1.21
8282.00,1.21
8281.00,1.21
8280.00,1.21
8279.00,1.22
8278.00,1.22
8277.00,1.23
8276.00,1.23
8275.00,1.23
8274.00,1.24
8273.00,1.24
8272.00,1.25
8271.00,1.25
8270.00,1.26
8269.00,1.26
8268.00,1.27
8267.00,1.27
8266.00,1.27
8265.00,1.28
8264.00,1.28
8263.00,1.29
8262.00,1.29
8261.00,1.30
8260.00,1.30
8259.00,1.30
8258.00,1.30
8257.00,1.30
8256.00,1.30
8255.00,1.30
8254.00,1.30
8253.00,1.30
8252.00,1.29
8251.00,1.29
8250.00,1.29
8249.00,1.28
8248.00,1.28
8247.00,1.27
8246.00,1.27
8245.00,1.26
8244.00,1.25
8243.00,1.25
8242.00,1.24
8241.00,1.24
8240.00,1.23
8239.00,1.22
8238.00,1.22
8237.00,1.21
8236.00,1.20
8235.00,1.20
8234.00,1.19
8233.00,1.19
8232.00,1.18
8231.00,1.18
8230.00,1.17
8229.00,1.17
8228.00,1.17
8227.00,1.17
8226.00,1.16
8225.00,1.16
8224.00,1.16
8223.00,1.16
8222.00,1.16
8221.00,1.15
8220.00,1.15
8219.00,1.15
8218.00,1.15
8217.00,1.15
8216.00,1.15
8215.00,1.15
8214.00,1.15
8213.00,1.15
8212.00,1.15
8211.00,1.15
8210.00,1.16
8209.00,1.16
8208.00,1.15
8207.00,1.15
8206.00,1.15
8205.00,1.15
8204.00,1.15
8203.00,1.15
8202.00,1.15
8201.00,1.15
8200.00,1.16
8199.00,1.16
8198.00,1.16
8197.00,1.16
8196.00,1.16
8195.00,1.17
8194.00,1.17
8193.00,1.17
8192.00,1.17
8191.00,1.18
8190.00,1.18
8189.00,1.18
8188.00,1.19
8187.00,1.19
8186.00,1.19
8185.00,1.20
8184.00,1.20
8183.00,1.20
8182.00,1.21
8181.00,1.21
8180.00,1.22
8179.00,1.22
8178.00,1.23
8177.00,1.23
8176.00,1.23
8175.00,1.24
8174.00,1.24
8173.00,1.24
8172.00,1.24
8171.00,1.25
8170.00,1.25
8169.00,1.25
8168.00,1.25
8167.00,1.25
8166.00,1.25
8165.00,1.26
8164.00,1.26
8163.00,1.26
8162.00,1.26
8161.00,1.26
8160.00,1.26
8159.00,1.26
8158.00,1.26
8157.00,1.26
8156.00,1.25
8155.00,1.25
8154.00,1.25
8153.00,1.25
8152.00,1.25
8151.00,1.25
8150.00,1.25
8149.00,1.25
8148.00,1.25
8147.00,1.25
8146.00,1.26
8145.00,1.26
8144.00,1.26
8143.00,1.26
8142.00,1.26
8141.00,1.26
8140.00,1.26
8139.00,1.26
8138.00,1.26
8137.00,1.27
8136.00,1.27
8135.00,1.27
8134.00,1.27
8133.00,1.28
8132.00,1.28
8131.00,1.28
8130.00,1.28
8129.00,1.29
8128.00,1.29
8127.00,1.29
8126.00,1.29
8125.00,1.29
8124.00,1.30
8123.00,1.30
8122.00,1.30
8121.00,1.30
8120.00,1.30
8119.00,1.30
8118.00,1.30
8117.00,1.30
8116.00,1.30
8115.00,1.30
8114.00,1.30
8113.00,1.30
8112.00,1.30
8111.00,1.30
8110.00,1.30
8109.00,1.30
8108.00,1.29
8107.00,1.29
8106.00,1.29
8105.00,1.29
8104.00,1.29
8103.00,1.29
8102.00,1.29
8101.00,1.29
8100.00,1.29
8099.00,1.29
8098.00,1.29
8097.00,1.29
8096.00,1.29
8095.00,1.29
8094.00,1.29
8093.00,1.29
8092.00,1.30
8091.00,1.30
8090.00,1.30
8089.00,1.30
8088.00,1.30
8087.00,1.31
8086.00,1.31
8085.00,1.31
8084.00,1.31
8083.00,1.32
8082.00,1.32
8081.00,1.32
8080.00,1.33
8079.00,1.33
8078.00,1.33
8077.00,1.34
8076.00,1.34
8075.00,1.34
8074.00,1.35
8073.00,1.35
8072.00,1.35
8071.00,1.35
8070.00,1.35
8069.00,1.35
8068.00,1.36
8067.00,1.36
8066.00,1.36
8065.00,1.36
8064.00,1.36
8063.00,1.36
8062.00,1.36
8061.00,1.36
8060.00,1.36
8059.00,1.36
8058.00,1.36
8057.00,1.36
8056.00,1.36
8055.00,1.36
8054.00,1.36
8053.00,1.35
8052.00,1.35
8051.00,1.35
8050.00,1.35
8049.00,1.35
8048.00,1.34
8047.00,1.34
8046.00,1.34
8045.00,1.34
8044.00,1.34
8043.00,1.34
8042.00,1.34
8041.00,1.34
8040.00,1.33
8039.00,1.33
8038.00,1.33
8037.00,1.33
8036.00,1.33
8035.00,1.33
8034.00,1.33
8033.00,1.32
8032.00,1.32
8031.00,1.32
8030.00,1.32
8029.00,1.31
8028.00,1.31
8027.00,1.31
8026.00,1.31
8025.00,1.31
8024.00,1.31
8023.00,1.31
8022.00,1.31
8021.00,1.31
8020.00,1.30
8019.00,1.30
8018.00,1.30
8017.00,1.30
8016.00,1.30
8015.00,1.29
8014.00,1.29
8013.00,1.29
8012.00,1.29
8011.00,1.29
8010.00,1.29
8009.00,1.29
8008.00,1.29
8007.00,1.30
8006.00,1.30
8005.00,1.30
8004.00,1.30
8003.00,1.30
8002.00,1.31
8001.00,1.31
8000.00,1.31
7999.00,1.31
7998.00,1.31
7997.00,1.32
7996.00,1.32
7995.00,1.32
7994.00,1.33
7993.00,1.33
7992.00,1.33
7991.00,1.34
7990.00,1.34
7989.00,1.35
7988.00,1.35
7987.00,1.35
7986.00,1.35
7985.00,1.36
7984.00,1.36
7983.00,1.36
7982.00,1.36
7981.00,1.36
7980.00,1.36
7979.00,1.36
7978.00,1.36
7977.00,1.36
7976.00,1.36
7975.00,1.37
7974.00,1.37
7973.00,1.37
7972.00,1.37
7971.00,1.36
7970.00,1.36
7969.00,1.36
7968.00,1.36
7967.00,1.36
7966.00,1.35
7965.00,1.35
7964.00,1.35
7963.00,1.34
7962.00,1.34
7961.00,1.34
7960.00,1.34
7959.00,1.33
7958.00,1.33
7957.00,1.33
7956.00,1.32
7955.00,1.32
7954.00,1.32
7953.00,1.32
7952.00,1.31
7951.00,1.31
7950.00,1.31
7949.00,1.30
7948.00,1.30
7947.00,1.30
7946.00,1.30
7945.00,1.29
7944.00,1.29
7943.00,1.29
7942.00,1.29
7941.00,1.29
7940.00,1.29
7939.00,1.29
7938.00,1.29
7937.00,1.29
7936.00,1.29
7935.00,1.28
7934.00,1.28
7933.00,1.28
7932.00,1.28
7931.00,1.28
7930.00,1.28
7929.00,1.28
7928.00,1.29
7927.00,1.29
7926.00,1.29
7925.00,1.29
7924.00,1.29
7923.00,1.29
7922.00,1.29
7921.00,1.29
7920.00,1.29
7919.00,1.29
7918.00,1.29
7917.00,1.30
7916.00,1.30
7915.00,1.30
7914.00,1.30
7913.00,1.30
7912.00,1.30
7911.00,1.31
7910.00,1.31
7909.00,1.31
7908.00,1.31
7907.00,1.31
7906.00,1.31
7905.00,1.32
7904.00,1.32
7903.00,1.32
7902.00,1.32
7901.00,1.32
7900.00,1.33
7899.00,1.33
7898.00,1.33
7897.00,1.33
7896.00,1.33
7895.00,1.34
7894.00,1.34
7893.00,1.34
7892.00,1.34
7891.00,1.34
7890.00,1.34
7889.00,1.34
7888.00,1.35
7887.00,1.35
7886.00,1.35
7885.00,1.35
7884.00,1.35
7883.00,1.35
7882.00,1.35
7881.00,1.35
7880.00,1.35
7879.00,1.35
7878.00,1.35
7877.00,1.35
7876.00,1.35
7875.00,1.35
7874.00,1.35
7873.00,1.35
7872.00,1.35
7871.00,1.35
7870.00,1.35
7869.00,1.35
7868.00,1.35
7867.00,1.35
7866.00,1.35
7865.00,1.35
7864.00,1.35
7863.00,1.35
7862.00,1.35
7861.00,1.35
7860.00,1.35
7859.00,1.35
7858.00,1.36
7857.00,1.36
7856.00,1.36
7855.00,1.36
7854.00,1.36
7853.00,1.36
7852.00,1.36
7851.00,1.36
7850.00,1.37
7849.00,1.37
7848.00,1.37
7847.00,1.37
7846.00,1.37
7845.00,1.37
7844.00,1.37
7843.00,1.38
7842.00,1.38
7841.00,1.38
7840.00,1.38
7839.00,1.38
7838.00,1.38
7837.00,1.38
7836.00,1.38
7835.00,1.38
7834.00,1.38
7833.00,1.38
7832.00,1.38
7831.00,1.38
7830.00,1.38
7829.00,1.38
7828.00,1.38
7827.00,1.38
7826.00,1.38
7825.00,1.38
7824.00,1.38
7823.00,1.38
7822.00,1.37
7821.00,1.37
7820.00,1.37
7819.00,1.37
7818.00,1.37
7817.00,1.37
7816.00,1.37
7815.00,1.36
7814.00,1.36
7813.00,1.36
7812.00,1.37
7811.00,1.37
7810.00,1.37
7809.00,1.37
7808.00,1.37
7807.00,1.37
7806.00,1.37
7805.00,1.37
7804.00,1.37
7803.00,1.38
7802.00,1.38
7801.00,1.38
7800.00,1.38
7799.00,1.39
7798.00,1.39
7797.00,1.39
7796.00,1.39
7795.00,1.40
7794.00,1.40
7793.00,1.40
7792.00,1.41
7791.00,1.41
7790.00,1.41
7789.00,1.41
7788.00,1.42
7787.00,1.42
7786.00,1.42
7785.00,1.42
7784.00,1.42
7783.00,1.42
7782.00,1.42
7781.00,1.42
7780.00,1.41
7779.00,1.41
7778.00,1.41
7777.00,1.40
7776.00,1.40
7775.00,1.40
7774.00,1.39
7773.00,1.39
7772.00,1.38
7771.00,1.38
7770.00,1.38
7769.00,1.37
7768.00,1.37
7767.00,1.37
7766.00,1.36
7765.00,1.36
7764.00,1.36
7763.00,1.35
7762.00,1.35
7761.00,1.35
7760.00,1.35
7759.00,1.35
7758.00,1.35
7757.00,1.35
7756.00,1.35
7755.00,1.35
7754.00,1.35
7753.00,1.35
7752.00,1.35
7751.00,1.36
7750.00,1.36
7749.00,1.36
7748.00,1.37
7747.00,1.37
7746.00,1.38
7745.00,1.38
7744.00,1.38
7743.00,1.39
7742.00,1.39
7741.00,1.39
7740.00,1.39
7739.00,1.40
7738.00,1.40
7737.00,1.40
7736.00,1.40
7735.00,1.40
7734.00,1.40
7733.00,1.40
7732.00,1.40
7731.00,1.40
7730.00,1.41
7729.00,1.41
7728.00,1.41
7727.00,1.41
7726.00,1.41
7725.00,1.40
7724.00,1.40
7723.00,1.40
7722.00,1.40
7721.00,1.40
7720.00,1.40
7719.00,1.40
7718.00,1.40
7717.00,1.40
7716.00,1.40
7715.00,1.40
7714.00,1.40
7713.00,1.40
7712.00,1.40
7711.00,1.40
7710.00,1.40
7709.00,1.40
7708.00,1.40
7707.00,1.40
7706.00,1.40
7705.00,1.40
7704.00,1.40
7703.00,1.40
7702.00,1.40
7701.00,1.40
7700.00,1.40
7699.00,1.40
7698.00,1.40
7697.00,1.40
7696.00,1.40
7695.00,1.40
7694.00,1.39
7693.00,1.39
7692.00,1.39
7691.00,1.39
7690.00,1.39
7689.00,1.39
7688.00,1.39
7687.00,1.39
7686.00,1.39
7685.00,1.39
7684.00,1.39
7683.00,1.39
7682.00,1.39
7681.00,1.39
7680.00,1.39
7679.00,1.39
7678.00,1.39
7677.00,1.39
7676.00,1.39
7675.00,1.39
7674.00,1.39
7673.00,1.39
7672.00,1.39
7671.00,1.39
7670.00,1.39
7669.00,1.39
7668.00,1.39
7667.00,1.39
7666.00,1.39
7665.00,1.39
7664.00,1.39
7663.00,1.40
7662.00,1.40
7661.00,1.40
7660.00,1.40
7659.00,1.40
7658.00,1.40
7657.00,1.40
7656.00,1.40
7655.00,1.40
7654.00,1.40
7653.00,1.41
7652.00,1.41
7651.00,1.41
7650.00,1.41
7649.00,1.41
7648.00,1.41
7647.00,1.41
7646.00,1.41
7645.00,1.41
7644.00,1.41
7643.00,1.41
7642.00,1.41
7641.00,1.41
7640.00,1.41
7639.00,1.41
7638.00,1.41
7637.00,1.40
7636.00,1.40
7635.00,1.40
7634.00,1.40
7633.00,1.40
7632.00,1.40
7631.00,1.40
7630.00,1.40
7629.00,1.40
7628.00,1.40
7627.00,1.40
7626.00,1.39
7625.00,1.39
7624.00,1.39
7623.00,1.39
7622.00,1.39
7621.00,1.39
7620.00,1.39
7619.00,1.39
7618.00,1.39
7617.00,1.39
7616.00,1.39
7615.00,1.39
7614.00,1.39
7613.00,1.39
7612.00,1.39
7611.00,1.40
7610.00,1.40
7609.00,1.40
7608.00,1.40
7607.00,1.40
7606.00,1.40
7605.00,1.40
7604.00,1.40
7603.00,1.40
7602.00,1.40
7601.00,1.40
7600.00,1.40
7599.00,1.40
7598.00,1.40
7597.00,1.40
7596.00,1.40
7595.00,1.40
7594.00,1.40
7593.00,1.39
7592.00,1.39
7591.00,1.39
7590.00,1.39
7589.00,1.39
7588.00,1.39
7587.00,1.38
7586.00,1.38
7585.00,1.38
7584.00,1.38
7583.00,1.38
7582.00,1.38
7581.00,1.37
7580.00,1.37
7579.00,1.37
7578.00,1.37
7577.00,1.37
7576.00,1.37
7575.00,1.37
7574.00,1.37
7573.00,1.36
7572.00,1.36
7571.00,1.36
7570.00,1.36
7569.00,1.36
7568.00,1.36
7567.00,1.37
7566.00,1.37
7565.00,1.37
7564.00,1.37
7563.00,1.37
7562.00,1.37
7561.00,1.37
7560.00,1.37
7559.00,1.37
7558.00,1.37
7557.00,1.37
7556.00,1.37
7555.00,1.37
7554.00,1.37
7553.00,1.37
7552.00,1.38
7551.00,1.38
7550.00,1.38
7549.00,1.38
7548.00,1.38
7547.00,1.38
7546.00,1.38
7545.00,1.38
7544.00,1.38
7543.00,1.38
7542.00,1.38
7541.00,1.38
7540.00,1.38
7539.00,1.38
7538.00,1.38
7537.00,1.38
7536.00,1.38
7535.00,1.38
7534.00,1.38
7533.00,1.38
7532.00,1.38
7531.00,1.38
7530.00,1.38
7529.00,1.37
7528.00,1.37
7527.00,1.37
7526.00,1.37
7525.00,1.37
7524.00,1.37
7523.00,1.36
7522.00,1.36
7521.00,1.36
7520.00,1.36
7519.00,1.36
7518.00,1.36
7517.00,1.35
7516.00,1.35
7515.00,1.35
7514.00,1.35
7513.00,1.35
7512.00,1.35
7511.00,1.35
7510.00,1.35
7509.00,1.35
7508.00,1.35
7507.00,1.35
7506.00,1.35
7505.00,1.35
7504.00,1.35
7503.00,1.36
7502.00,1.36
7501.00,1.36
7500.00,1.36
7499.00,1.36
7498.00,1.37
7497.00,1.37
7496.00,1.37
7495.00,1.37
7494.00,1.38
7493.00,1.38
7492.00,1.38
7491.00,1.38
7490.00,1.39
7489.00,1.39
7488.00,1.39
7487.00,1.40
7486.00,1.40
7485.00,1.40
7484.00,1.40
7483.00,1.40
7482.00,1.41
7481.00,1.41
7480.00,1.41
7479.00,1.41
7478.00,1.41
7477.00,1.41
7476.00,1.41
7475.00,1.41
7474.00,1.41
7473.00,1.41
7472.00,1.41
7471.00,1.41
7470.00,1.40
7469.00,1.40
7468.00,1.40
7467.00,1.40
7466.00,1.40
7465.00,1.39
7464.00,1.39
7463.00,1.39
7462.00,1.38
7461.00,1.38
7460.00,1.38
7459.00,1.37
7458.00,1.37
7457.00,1.37
7456.00,1.37
7455.00,1.37
7454.00,1.37
7453.00,1.37
7452.00,1.36
7451.00,1.36
7450.00,1.36
7449.00,1.36
7448.00,1.36
7447.00,1.36
7446.00,1.36
7445.00,1.37
7444.00,1.37
7443.00,1.37
7442.00,1.37
7441.00,1.37
7440.00,1.38
7439.00,1.38
7438.00,1.38
7437.00,1.39
7436.00,1.39
7435.00,1.39
7434.00,1.39
7433.00,1.39
7432.00,1.40
7431.00,1.40
7430.00,1.40
7429.00,1.40
7428.00,1.40
7427.00,1.40
7426.00,1.40
7425.00,1.40
7424.00,1.40
7423.00,1.40
7422.00,1.40
7421.00,1.40
7420.00,1.40
7419.00,1.40
7418.00,1.40
7417.00,1.39
7416.00,1.39
7415.00,1.39
7414.00,1.39
7413.00,1.39
7412.00,1.38
7411.00,1.38
7410.00,1.38
7409.00,1.38
7408.00,1.38
7407.00,1.37
7406.00,1.37
7405.00,1.37
7404.00,1.37
7403.00,1.37
7402.00,1.37
7401.00,1.37
7400.00,1.37
7399.00,1.37
7398.00,1.37
7397.00,1.37
7396.00,1.36
7395.00,1.36
7394.00,1.36
7393.00,1.36
7392.00,1.36
7391.00,1.36
7390.00,1.35
7389.00,1.35
7388.00,1.35
7387.00,1.35
7386.00,1.35
7385.00,1.35
7384.00,1.34
7383.00,1.34
7382.00,1.34
7381.00,1.34
7380.00,1.34
7379.00,1.34
7378.00,1.34
7377.00,1.33
7376.00,1.33
7375.00,1.33
7374.00,1.33
7373.00,1.33
7372.00,1.33
7371.00,1.33
7370.00,1.32
7369.00,1.32
7368.00,1.32
7367.00,1.32
7366.00,1.32
7365.00,1.32
7364.00,1.32
7363.00,1.33
7362.00,1.33
7361.00,1.33
7360.00,1.33
7359.00,1.33
7358.00,1.33
7357.00,1.34
7356.00,1.34
7355.00,1.34
7354.00,1.34
7353.00,1.34
7352.00,1.35
7351.00,1.35
7350.00,1.35
7349.00,1.35
7348.00,1.36
7347.00,1.36
7346.00,1.36
7345.00,1.36
7344.00,1.37
7343.00,1.37
7342.00,1.37
7341.00,1.38
7340.00,1.38
7339.00,1.38
7338.00,1.38
7337.00,1.39
7336.00,1.39
7335.00,1.39
7334.00,1.39
7333.00,1.39
7332.00,1.39
7331.00,1.39
7330.00,1.39
7329.00,1.38
7328.00,1.38
7327.00,1.38
7326.00,1.38
7325.00,1.38
7324.00,1.37
7323.00,1.37
7322.00,1.37
7321.00,1.37
7320.00,1.36
7319.00,1.36
7318.00,1.35
7317.00,1.35
7316.00,1.35
7315.00,1.34
7314.00,1.34
7313.00,1.34
7312.00,1.33
7311.00,1.33
7310.00,1.33
7309.00,1.32
7308.00,1.32
7307.00,1.32
7306.00,1.32
7305.00,1.32
7304.00,1.32
7303.00,1.32
7302.00,1.31
7301.00,1.31
7300.00,1.31
7299.00,1.31
7298.00,1.31
7297.00,1.31
7296.00,1.31
7295.00,1.31
7294.00,1.31
7293.00,1.31
7292.00,1.31
7291.00,1.31
7290.00,1.31
7289.00,1.31
7288.00,1.31
7287.00,1.31
7286.00,1.31
7285.00,1.31
7284.00,1.31
7283.00,1.31
7282.00,1.30
7281.00,1.30
7280.00,1.30
7279.00,1.30
7278.00,1.30
7277.00,1.30
7276.00,1.30
7275.00,1.30
7274.00,1.30
7273.00,1.30
7272.00,1.29
7271.00,1.29
7270.00,1.29
7269.00,1.29
7268.00,1.29
7267.00,1.29
7266.00,1.29
7265.00,1.29
7264.00,1.28
7263.00,1.28
7262.00,1.28
7261.00,1.28
7260.00,1.28
7259.00,1.27
7258.00,1.27
7257.00,1.27
7256.00,1.27
7255.00,1.26
7254.00,1.26
7253.00,1.26
7252.00,1.26
7251.00,1.25
7250.00,1.25
7249.00,1.25
7248.00,1.24
7247.00,1.24
7246.00,1.24
7245.00,1.23
7244.00,1.23
7243.00,1.22
7242.00,1.22
7241.00,1.22
7240.00,1.22
7239.00,1.21
7238.00,1.21
7237.00,1.21
7236.00,1.21
7235.00,1.20
7234.00,1.20
7233.00,1.20
7232.00,1.20
7231.00,1.19
7230.00,1.19
7229.00,1.19
7228.00,1.19
7227.00,1.19
7226.00,1.19
7225.00,1.18
7224.00,1.18
7223.00,1.18
7222.00,1.18
7221.00,1.17
7220.00,1.17
7219.00,1.17
7218.00,1.17
7217.00,1.16
7216.00,1.16
7215.00,1.16
7214.00,1.16
7213.00,1.16
7212.00,1.15
7211.00,1.15
7210.00,1.15
7209.00,1.15
7208.00,1.15
7207.00,1.14
7206.00,1.14
7205.00,1.14
7204.00,1.14
7203.00,1.13
7202.00,1.13
7201.00,1.13
7200.00,1.12
7199.00,1.12
7198.00,1.11
7197.00,1.11
7196.00,1.11
7195.00,1.10
7194.00,1.10
7193.00,1.09
7192.00,1.09
7191.00,1.09
7190.00,1.08
7189.00,1.08
7188.00,1.07
7187.00,1.07
7186.00,1.07
7185.00,1.06
7184.00,1.06
7183.00,1.05
7182.00,1.05
7181.00,1.04
7180.00,1.04
7179.00,1.03
7178.00,1.03
7177.00,1.03
7176.00,1.02
7175.00,1.02
7174.00,1.02
7173.00,1.01
7172.00,1.01
7171.00,1.01
7170.00,1.01
7169.00,1.00
7168.00,1.00
7167.00,1.00
7166.00,1.00
7165.00,0.99
7164.00,0.99
7163.00,0.99
7162.00,0.99
7161.00,0.98
7160.00,0.98
7159.00,0.98
7158.00,0.98
7157.00,0.98
7156.00,0.98
7155.00,0.97
7154.00,0.97
7153.00,0.97
7152.00,0.97
7151.00,0.97
7150.00,0.97
7149.00,0.96
7148.00,0.96
7147.00,0.96
7146.00,0.96
7145.00,0.96
7144.00,0.96
7143.00,0.95
7142.00,0.95
7141.00,0.95
7140.00,0.95
7139.00,0.95
7138.00,0.95
7137.00,0.95
7136.00,0.95
7135.00,0.95
7134.00,0.95
7133.00,0.94
7132.00,0.94
7131.00,0.94
7130.00,0.94
7129.00,0.94
7128.00,0.94
7127.00,0.93
7126.00,0.93
7125.00,0.93
7124.00,0.93
7123.00,0.93
7122.00,0.92
7121.00,0.92
7120.00,0.92
7119.00,0.91
7118.00,0.91
7117.00,0.91
7116.00,0.90
7115.00,0.90
7114.00,0.90
7113.00,0.89
7112.00,0.89
7111.00,0.89
7110.00,0.88
7109.00,0.88
7108.00,0.88
7107.00,0.88
7106.00,0.87
7105.00,0.87
7104.00,0.87
7103.00,0.87
7102.00,0.87
7101.00,0.87
7100.00,0.86
7099.00,0.86
7098.00,0.86
7097.00,0.86
7096.00,0.86
7095.00,0.86
7094.00,0.85
7093.00,0.85
7092.00,0.85
7091.00,0.85
7090.00,0.85
7089.00,0.85
7088.00,0.84
7087.00,0.84
7086.00,0.84
7085.00,0.84
7084.00,0.84
7083.00,0.83
7082.00,0.83
7081.00,0.83
7080.00,0.83
7079.00,0.82
7078.00,0.82
7077.00,0.82
7076.00,0.81
7075.00,0.81
7074.00,0.81
7073.00,0.80
7072.00,0.80
7071.00,0.80
7070.00,0.80
7069.00,0.80
7068.00,0.80
7067.00,0.79
7066.00,0.79
7065.00,0.79
7064.00,0.79
7063.00,0.79
7062.00,0.79
7061.00,0.79
7060.00,0.79
7059.00,0.79
7058.00,0.79
7057.00,0.79
7056.00,0.79
7055.00,0.79
7054.00,0.78
7053.00,0.78
7052.00,0.78
7051.00,0.78
7050.00,0.78
7049.00,0.78
7048.00,0.78
7047.00,0.78
7046.00,0.78
7045.00,0.78
7044.00,0.78
7043.00,0.78
7042.00,0.78
7041.00,0.77
7040.00,0.77
7039.00,0.77
7038.00,0.77
7037.00,0.77
7036.00,0.77
7035.00,0.77
7034.00,0.77
7033.00,0.77
7032.00,0.77
7031.00,0.77
7030.00,0.77
7029.00,0.77
7028.00,0.77
7027.00,0.77
7026.00,0.77
7025.00,0.77
7024.00,0.77
7023.00,0.77
7022.00,0.77
7021.00,0.77
7020.00,0.77
7019.00,0.77
7018.00,0.77
7017.00,0.77
7016.00,0.77
7015.00,0.77
7014.00,0.77
7013.00,0.77
7012.00,0.77
7011.00,0.77
7010.00,0.76
7009.00,0.76
7008.00,0.76
7007.00,0.75
7006.00,0.75
7005.00,0.75
7004.00,0.75
7003.00,0.75
7002.00,0.74
7001.00,0.74
7000.00,0.74
6999.00,0.74
6998.00,0.74
6997.00,0.74
6996.00,0.73
6995.00,0.73
6994.00,0.73
6993.00,0.73
6992.00,0.73
6991.00,0.73
6990.00,0.73
6989.00,0.73
6988.00,0.73
6987.00,0.73
6986.00,0.73
6985.00,0.73
6984.00,0.73
6983.00,0.73
6982.00,0.73
6981.00,0.73
6980.00,0.74
6979.00,0.74
6978.00,0.74
6977.00,0.74
6976.00,0.74
6975.00,0.74
6974.00,0.74
6973.00,0.74
6972.00,0.74
6971.00,0.74
6970.00,0.74
6969.00,0.74
6968.00,0.74
6967.00,0.74
6966.00,0.74
6965.00,0.74
6964.00,0.73
6963.00,0.73
6962.00,0.73
6961.00,0.73
6960.00,0.73
6959.00,0.73
6958.00,0.73
6957.00,0.72
6956.00,0.72
6955.00,0.72
6954.00,0.72
6953.00,0.72
6952.00,0.72
6951.00,0.72
6950.00,0.71
6949.00,0.71
6948.00,0.71
6947.00,0.71
6946.00,0.71
6945.00,0.71
6944.00,0.71
6943.00,0.71
6942.00,0.71
6941.00,0.71
6940.00,0.71
6939.00,0.71
6938.00,0.71
6937.00,0.71
6936.00,0.71
6935.00,0.72
6934.00,0.72
6933.00,0.72
6932.00,0.72
6931.00,0.72
6930.00,0.72
6929.00,0.72
6928.00,0.72
6927.00,0.72
6926.00,0.72
6925.00,0.72
6924.00,0.72
6923.00,0.72
6922.00,0.72
6921.00,0.72
6920.00,0.72
6919.00,0.72
6918.00,0.72
6917.00,0.72
6916.00,0.72
6915.00,0.72
6914.00,0.72
6913.00,0.72
6912.00,0.72
6911.00,0.72
6910.00,0.72
6909.00,0.72
6908.00,0.72
6907.00,0.72
6906.00,0.72
6905.00,0.72
6904.00,0.72
6903.00,0.72
6902.00,0.72
6901.00,0.72
6900.00,0.72
6899.00,0.72
6898.00,0.72
6897.00,0.72
6896.00,0.72
6895.00,0.72
6894.00,0.72
6893.00,0.72
6892.00,0.72
6891.00,0.72
6890.00,0.72
6889.00,0.72
6888.00,0.72
6887.00,0.73
6886.00,0.73
6885.00,0.73
6884.00,0.73
6883.00,0.73
6882.00,0.73
6881.00,0.73
6880.00,0.73
6879.00,0.73
6878.00,0.73
6877.00,0.73
6876.00,0.73
6875.00,0.73
6874.00,0.73
6873.00,0.72
6872.00,0.72
6871.00,0.72
6870.00,0.72
6869.00,0.72
6868.00,0.72
6867.00,0.72
6866.00,0.72
6865.00,0.71
6864.00,0.71
6863.00,0.71
6862.00,0.71
6861.00,0.71
6860.00,0.71
6859.00,0.70
6858.00,0.70
6857.00,0.70
6856.00,0.70
6855.00,0.70
6854.00,0.70
6853.00,0.70
6852.00,0.69
6851.00,0.69
6850.00,0.69
6849.00,0.69
6848.00,0.69
6847.00,0.69
6846.00,0.70
6845.00,0.70
6844.00,0.70
6843.00,0.70
6842.00,0.70
6841.00,0.70
6840.00,0.70
6839.00,0.70
6838.00,0.70
6837.00,0.70
6836.00,0.70
6835.00,0.70
6834.00,0.70
6833.00,0.70
6832.00,0.70
6831.00,0.70
6830.00,0.70
6829.00,0.70
6828.00,0.70
6827.00,0.70
6826.00,0.70
6825.00,0.70
6824.00,0.70
6823.00,0.69
6822.00,0.69
6821.00,0.69
6820.00,0.69
6819.00,0.69
6818.00,0.69
6817.00,0.68
6816.00,0.68
6815.00,0.68
6814.00,0.68
6813.00,0.68
6812.00,0.68
6811.00,0.68
6810.00,0.68
6809.00,0.68
6808.00,0.68
6807.00,0.67
6806.00,0.67
6805.00,0.67
6804.00,0.67
6803.00,0.67
6802.00,0.67
6801.00,0.67
6800.00,0.67
6799.00,0.67
6798.00,0.67
6797.00,0.67
6796.00,0.67
6795.00,0.68
6794.00,0.68
6793.00,0.68
6792.00,0.68
6791.00,0.68
6790.00,0.68
6789.00,0.68
6788.00,0.68
6787.00,0.68
6786.00,0.67
6785.00,0.67
6784.00,0.67
6783.00,0.67
6782.00,0.68
6781.00,0.68
6780.00,0.68
6779.00,0.68
6778.00,0.68
6777.00,0.68
6776.00,0.68
6775.00,0.69
6774.00,0.69
6773.00,0.69
6772.00,0.69
6771.00,0.69
6770.00,0.70
6769.00,0.70
6768.00,0.70
6767.00,0.71
6766.00,0.71
6765.00,0.71
6764.00,0.72
6763.00,0.72
6762.00,0.72
6761.00,0.73
6760.00,0.73
6759.00,0.73
6758.00,0.74
6757.00,0.74
6756.00,0.74
6755.00,0.74
6754.00,0.75
6753.00,0.75
6752.00,0.75
6751.00,0.75
6750.00,0.75
6749.00,0.75
6748.00,0.75
6747.00,0.75
6746.00,0.75
6745.00,0.75
6744.00,0.75
6743.00,0.75
6742.00,0.75
6741.00,0.75
6740.00,0.75
6739.00,0.75
6738.00,0.74
6737.00,0.74
6736.00,0.74
6735.00,0.74
6734.00,0.74
6733.00,0.74
6732.00,0.74
6731.00,0.74
6730.00,0.74
6729.00,0.74
6728.00,0.74
6727.00,0.75
6726.00,0.75
6725.00,0.75
6724.00,0.75
6723.00,0.75
6722.00,0.75
6721.00,0.75
6720.00,0.76
6719.00,0.76
6718.00,0.76
6717.00,0.76
6716.00,0.76
6715.00,0.77
6714.00,0.77
6713.00,0.77
6712.00,0.77
6711.00,0.77
6710.00,0.77
6709.00,0.77
6708.00,0.78
6707.00,0.78
6706.00,0.78
6705.00,0.78
6704.00,0.78
6703.00,0.78
6702.00,0.78
6701.00,0.78
6700.00,0.78
6699.00,0.79
6698.00,0.79
6697.00,0.79
6696.00,0.79
6695.00,0.79
6694.00,0.79
6693.00,0.79
6692.00,0.80
6691.00,0.80
6690.00,0.80
6689.00,0.80
6688.00,0.80
6687.00,0.80
6686.00,0.80
6685.00,0.81
6684.00,0.81
6683.00,0.81
6682.00,0.81
6681.00,0.81
6680.00,0.81
6679.00,0.81
6678.00,0.81
6677.00,0.81
6676.00,0.81
6675.00,0.82
6674.00,0.82
6673.00,0.82
6672.00,0.82
6671.00,0.82
6670.00,0.82
6669.00,0.82
6668.00,0.83
6667.00,0.83
6666.00,0.83
6665.00,0.83
6664.00,0.83
6663.00,0.83
6662.00,0.83
6661.00,0.83
6660.00,0.83
6659.00,0.84
6658.00,0.84
6657.00,0.84
6656.00,0.84
6655.00,0.84
6654.00,0.84
6653.00,0.85
6652.00,0.85
6651.00,0.85
6650.00,0.85
6649.00,0.85
6648.00,0.85
6647.00,0.85
6646.00,0.85
6645.00,0.85
6644.00,0.85
6643.00,0.85
6642.00,0.85
6641.00,0.85
6640.00,0.85
6639.00,0.85
6638.00,0.85
6637.00,0.84
6636.00,0.84
6635.00,0.84
6634.00,0.84
6633.00,0.84
6632.00,0.84
6631.00,0.84
6630.00,0.84
6629.00,0.84
6628.00,0.84
6627.00,0.84
6626.00,0.84
6625.00,0.84
6624.00,0.84
6623.00,0.84
6622.00,0.84
6621.00,0.84
6620.00,0.84
6619.00,0.84
6618.00,0.84
6617.00,0.85
6616.00,0.85
6615.00,0.85
6614.00,0.85
6613.00,0.85
6612.00,0.86
6611.00,0.86
6610.00,0.86
6609.00,0.86
6608.00,0.86
6607.00,0.86
6606.00,0.87
6605.00,0.87
6604.00,0.87
6603.00,0.87
6602.00,0.87
6601.00,0.87
6600.00,0.88
6599.00,0.88
6598.00,0.88
6597.00,0.88
6596.00,0.88
6595.00,0.88
6594.00,0.88
6593.00,0.88
6592.00,0.88
6591.00,0.88
6590.00,0.89
6589.00,0.89
6588.00,0.89
6587.00,0.89
6586.00,0.89
6585.00,0.89
6584.00,0.89
6583.00,0.90
6582.00,0.90
6581.00,0.90
6580.00,0.90
6579.00,0.90
6578.00,0.90
6577.00,0.90
6576.00,0.91
6575.00,0.91
6574.00,0.91
6573.00,0.91
6572.00,0.91
6571.00,0.91
6570.00,0.91
6569.00,0.91
6568.00,0.91
6567.00,0.92
6566.00,0.92
6565.00,0.92
6564.00,0.92
6563.00,0.92
6562.00,0.92
6561.00,0.92
6560.00,0.92
6559.00,0.92
6558.00,0.92
6557.00,0.92
6556.00,0.92
6555.00,0.92
6554.00,0.92
6553.00,0.92
6552.00,0.92
6551.00,0.92
6550.00,0.92
6549.00,0.92
6548.00,0.92
6547.00,0.93
6546.00,0.93
6545.00,0.93
6544.00,0.93
6543.00,0.93
6542.00,0.93
6541.00,0.94
6540.00,0.94
6539.00,0.94
6538.00,0.94
6537.00,0.95
6536.00,0.95
6535.00,0.95
6534.00,0.95
6533.00,0.96
6532.00,0.96
6531.00,0.96
6530.00,0.96
6529.00,0.96
6528.00,0.96
6527.00,0.97
6526.00,0.97
6525.00,0.97
6524.00,0.97
6523.00,0.97
6522.00,0.97
6521.00,0.97
6520.00,0.97
6519.00,0.97
6518.00,0.97
6517.00,0.98
6516.00,0.98
6515.00,0.98
6514.00,0.98
6513.00,0.98
6512.00,0.98
6511.00,0.99
6510.00,0.99
6509.00,0.99
6508.00,0.99
6507.00,0.99
6506.00,1.00
6505.00,1.00
6504.00,1.00
6503.00,1.00
6502.00,1.00
6501.00,1.00
6500.00,1.00
6499.00,1.01
6498.00,1.01
6497.00,1.01
6496.00,1.01
6495.00,1.01
6494.00,1.01
6493.00,1.01
6492.00,1.01
6491.00,1.01
6490.00,1.01
6489.00,1.01
6488.00,1.01
6487.00,1.01
6486.00,1.01
6485.00,1.01
6484.00,1.01
6483.00,1.01
6482.00,1.00
6481.00,1.00
6480.00,1.00
6479.00,1.00
6478.00,1.01
6477.00,1.01
6476.00,1.01
6475.00,1.01
6474.00,1.01
6473.00,1.01
6472.00,1.01
6471.00,1.01
6470.00,1.02
6469.00,1.02
6468.00,1.02
6467.00,1.02
6466.00,1.02
6465.00,1.03
6464.00,1.03
6463.00,1.03
6462.00,1.04
6461.00,1.04
6460.00,1.04
6459.00,1.04
6458.00,1.05
6457.00,1.05
6456.00,1.05
6455.00,1.05
6454.00,1.05
6453.00,1.05
6452.00,1.05
6451.00,1.05
6450.00,1.05
6449.00,1.04
6448.00,1.04
6447.00,1.04
6446.00,1.04
6445.00,1.04
6444.00,1.04
6443.00,1.04
6442.00,1.03
6441.00,1.03
6440.00,1.03
6439.00,1.03
6438.00,1.03
6437.00,1.03
6436.00,1.02
6435.00,1.02
6434.00,1.02
6433.00,1.02
6432.00,1.02
6431.00,1.02
6430.00,1.02
6429.00,1.02
6428.00,1.02
6427.00,1.02
6426.00,1.02
6425.00,1.02
6424.00,1.03
6423.00,1.03
6422.00,1.03
6421.00,1.03
6420.00,1.03
6419.00,1.03
6418.00,1.03
6417.00,1.03
6416.00,1.04
6415.00,1.04
6414.00,1.04
6413.00,1.04
6412.00,1.04
6411.00,1.04
6410.00,1.04
6409.00,1.04
6408.00,1.04
6407.00,1.04
6406.00,1.04
6405.00,1.04
6404.00,1.04
6403.00,1.05
6402.00,1.05
6401.00,1.05
6400.00,1.05
6399.00,1.05
6398.00,1.05
6397.00,1.05
6396.00,1.05
6395.00,1.05
6394.00,1.05
6393.00,1.05
6392.00,1.05
6391.00,1.05
6390.00,1.05
6389.00,1.05
6388.00,1.05
6387.00,1.05
6386.00,1.05
6385.00,1.05
6384.00,1.05
6383.00,1.05
6382.00,1.06
6381.00,1.06
6380.00,1.06
6379.00,1.06
6378.00,1.06
6377.00,1.06
6376.00,1.06
6375.00,1.07
6374.00,1.07
6373.00,1.07
6372.00,1.07
6371.00,1.07
6370.00,1.07
6369.00,1.07
6368.00,1.08
6367.00,1.08
6366.00,1.08
6365.00,1.08
6364.00,1.08
6363.00,1.08
6362.00,1.09
6361.00,1.09
6360.00,1.09
6359.00,1.09
6358.00,1.09
6357.00,1.09
6356.00,1.09
6355.00,1.09
6354.00,1.08
6353.00,1.08
6352.00,1.08
6351.00,1.08
6350.00,1.08
6349.00,1.08
6348.00,1.08
6347.00,1.08
6346.00,1.08
6345.00,1.08
6344.00,1.08
6343.00,1.08
6342.00,1.08
6341.00,1.08
6340.00,1.08
6339.00,1.08
6338.00,1.08
6337.00,1.09
6336.00,1.09
6335.00,1.09
6334.00,1.09
6333.00,1.09
6332.00,1.09
6331.00,1.10
6330.00,1.10
6329.00,1.10
6328.00,1.10
6327.00,1.11
6326.00,1.11
6325.00,1.11
6324.00,1.11
6323.00,1.11
6322.00,1.12
6321.00,1.12
6320.00,1.12
6319.00,1.12
6318.00,1.12
6317.00,1.12
6316.00,1.12
6315.00,1.12
6314.00,1.12
6313.00,1.13
6312.00,1.13
6311.00,1.13
6310.00,1.13
6309.00,1.13
6308.00,1.13
6307.00,1.13
6306.00,1.13
6305.00,1.13
6304.00,1.13
6303.00,1.13
6302.00,1.13
6301.00,1.13
6300.00,1.13
6299.00,1.14
6298.00,1.14
6297.00,1.14
6296.00,1.14
6295.00,1.14
6294.00,1.15
6293.00,1.15
6292.00,1.15
6291.00,1.15
6290.00,1.16
6289.00,1.16
6288.00,1.16
6287.00,1.16
6286.00,1.17
6285.00,1.17
6284.00,1.17
6283.00,1.17
6282.00,1.17
6281.00,1.18
6280.00,1.18
6279.00,1.18
6278.00,1.18
6277.00,1.18
6276.00,1.18
6275.00,1.18
6274.00,1.18
6273.00,1.19
6272.00,1.19
6271.00,1.19
6270.00,1.19
6269.00,1.19
6268.00,1.19
6267.00,1.19
6266.00,1.19
6265.00,1.19
6264.00,1.19
6263.00,1.19
6262.00,1.18
6261.00,1.18
6260.00,1.18
6259.00,1.18
6258.00,1.18
6257.00,1.18
6256.00,1.18
6255.00,1.18
6254.00,1.18
6253.00,1.18
6252.00,1.18
6251.00,1.18
6250.00,1.18
6249.00,1.19
6248.00,1.19
6247.00,1.19
6246.00,1.19
6245.00,1.18
6244.00,1.18
6243.00,1.18
6242.00,1.18
6241.00,1.18
6240.00,1.18
6239.00,1.18
6238.00,1.18
6237.00,1.18
6236.00,1.18
6235.00,1.18
6234.00,1.18
6233.00,1.18
6232.00,1.18
6231.00,1.18
6230.00,1.18
6229.00,1.18
6228.00,1.18
6227.00,1.19
6226.00,1.19
6225.00,1.19
6224.00,1.19
6223.00,1.19
6222.00,1.19
6221.00,1.19
6220.00,1.19
6219.00,1.19
6218.00,1.19
6217.00,1.20
6216.00,1.20
6215.00,1.20
6214.00,1.20
6213.00,1.21
6212.00,1.21
6211.00,1.21
6210.00,1.21
6209.00,1.22
6208.00,1.22
6207.00,1.22
6206.00,1.22
6205.00,1.22
6204.00,1.23
6203.00,1.23
6202.00,1.23
6201.00,1.23
6200.00,1.23
6199.00,1.24
6198.00,1.24
6197.00,1.24
6196.00,1.24
6195.00,1.25
6194.00,1.25
6193.00,1.25
6192.00,1.26
6191.00,1.26
6190.00,1.26
6189.00,1.26
6188.00,1.26
6187.00,1.27
6186.00,1.27
6185.00,1.27
6184.00,1.27
6183.00,1.28
6182.00,1.28
6181.00,1.28
6180.00,1.28
6179.00,1.28
6178.00,1.28
6177.00,1.28
6176.00,1.28
6175.00,1.28
6174.00,1.28
6173.00,1.28
6172.00,1.28
6171.00,1.28
6170.00,1.28
6169.00,1.28
6168.00,1.28
6167.00,1.28
6166.00,1.28
6165.00,1.28
6164.00,1.28
6163.00,1.28
6162.00,1.28
6161.00,1.28
6160.00,1.28
6159.00,1.28
6158.00,1.28
6157.00,1.28
6156.00,1.28
6155.00,1.28
6154.00,1.28
6153.00,1.28
6152.00,1.28
6151.00,1.28
6150.00,1.28
6149.00,1.28
6148.00,1.28
6147.00,1.28
6146.00,1.28
6145.00,1.28
6144.00,1.29
6143.00,1.29
6142.00,1.29
6141.00,1.29
6140.00,1.29
6139.00,1.29
6138.00,1.29
6137.00,1.30
6136.00,1.30
6135.00,1.30
6134.00,1.30
6133.00,1.30
6132.00,1.30
6131.00,1.31
6130.00,1.31
6129.00,1.31
6128.00,1.31
6127.00,1.31
6126.00,1.31
6125.00,1.31
6124.00,1.31
6123.00,1.31
6122.00,1.31
6121.00,1.31
6120.00,1.31
6119.00,1.31
6118.00,1.31
6117.00,1.31
6116.00,1.31
6115.00,1.31
6114.00,1.31
6113.00,1.31
6112.00,1.31
6111.00,1.31
6110.00,1.31
6109.00,1.32
6108.00,1.32
6107.00,1.32
6106.00,1.32
6105.00,1.32
6104.00,1.32
6103.00,1.33
6102.00,1.33
6101.00,1.33
6100.00,1.34
6099.00,1.34
6098.00,1.34
6097.00,1.35
6096.00,1.35
6095.00,1.35
6094.00,1.36
6093.00,1.36
6092.00,1.36
6091.00,1.37
6090.00,1.37
6089.00,1.37
6088.00,1.38
6087.00,1.38
6086.00,1.38
6085.00,1.38
6084.00,1.39
6083.00,1.39
6082.00,1.39
6081.00,1.39
6080.00,1.39
6079.00,1.39
6078.00,1.39
6077.00,1.39
6076.00,1.39
6075.00,1.39
6074.00,1.39
6073.00,1.39
6072.00,1.39
6071.00,1.39
6070.00,1.39
6069.00,1.39
6068.00,1.38
6067.00,1.38
6066.00,1.38
6065.00,1.38
6064.00,1.38
6063.00,1.38
6062.00,1.38
6061.00,1.38
6060.00,1.38
6059.00,1.38
6058.00,1.37
6057.00,1.37
6056.00,1.37
6055.00,1.37
6054.00,1.37
6053.00,1.37
6052.00,1.37
6051.00,1.37
6050.00,1.37
6049.00,1.37
6048.00,1.37
6047.00,1.37
6046.00,1.37
6045.00,1.37
6044.00,1.37
6043.00,1.37
6042.00,1.37
6041.00,1.38
6040.00,1.38
6039.00,1.38
6038.00,1.38
6037.00,1.38
6036.00,1.38
6035.00,1.37
6034.00,1.37
6033.00,1.37
6032.00,1.37
6031.00,1.37
6030.00,1.37
6029.00,1.38
6028.00,1.38
6027.00,1.38
6026.00,1.38
6025.00,1.38
6024.00,1.38
6023.00,1.38
6022.00,1.38
6021.00,1.38
6020.00,1.38
6019.00,1.38
6018.00,1.38
6017.00,1.38
6016.00,1.38
6015.00,1.39
6014.00,1.39
6013.00,1.39
6012.00,1.39
6011.00,1.39
6010.00,1.39
6009.00,1.39
6008.00,1.39
6007.00,1.39
6006.00,1.40
6005.00,1.40
6004.00,1.40
6003.00,1.40
6002.00,1.40
6001.00,1.40
6000.00,1.40
5999.00,1.39
5998.00,1.39
5997.00,1.39
5996.00,1.39
5995.00,1.39
5994.00,1.39
5993.00,1.39
5992.00,1.39
5991.00,1.38
5990.00,1.38
5989.00,1.38
5988.00,1.38
5987.00,1.38
5986.00,1.38
5985.00,1.37
5984.00,1.37
5983.00,1.37
5982.00,1.37
5981.00,1.37
5980.00,1.36
5979.00,1.36
5978.00,1.36
5977.00,1.35
5976.00,1.35
5975.00,1.35
5974.00,1.35
5973.00,1.34
5972.00,1.34
5971.00,1.33
5970.00,1.33
5969.00,1.32
5968.00,1.32
5967.00,1.32
5966.00,1.31
5965.00,1.31
5964.00,1.30
5963.00,1.30
5962.00,1.29
5961.00,1.29
5960.00,1.28
5959.00,1.28
5958.00,1.27
5957.00,1.27
5956.00,1.26
5955.00,1.26
5954.00,1.25
5953.00,1.25
5952.00,1.24
5951.00,1.24
5950.00,1.23
5949.00,1.23
5948.00,1.23
5947.00,1.22
5946.00,1.22
5945.00,1.22
5944.00,1.22
5943.00,1.22
5942.00,1.21
5941.00,1.21
5940.00,1.21
5939.00,1.21
5938.00,1.21
5937.00,1.21
5936.00,1.21
5935.00,1.21
5934.00,1.21
5933.00,1.20
5932.00,1.20
5931.00,1.20
5930.00,1.20
5929.00,1.20
5928.00,1.20
5927.00,1.20
5926.00,1.20
5925.00,1.20
5924.00,1.20
5923.00,1.20
5922.00,1.20
5921.00,1.20
5920.00,1.20
5919.00,1.20
5918.00,1.20
5917.00,1.20
5916.00,1.20
5915.00,1.20
5914.00,1.19
5913.00,1.19
5912.00,1.19
5911.00,1.19
5910.00,1.19
5909.00,1.19
5908.00,1.19
5907.00,1.19
5906.00,1.19
5905.00,1.19
5904.00,1.19
5903.00,1.19
5902.00,1.19
5901.00,1.19
5900.00,1.19
5899.00,1.19
5898.00,1.19
5897.00,1.19
5896.00,1.19
5895.00,1.19
5894.00,1.19
5893.00,1.19
5892.00,1.20
5891.00,1.20
5890.00,1.20
5889.00,1.20
5888.00,1.20
5887.00,1.20
5886.00,1.20
5885.00,1.21
5884.00,1.21
5883.00,1.21
5882.00,1.21
5881.00,1.22
5880.00,1.22
5879.00,1.22
5878.00,1.22
5877.00,1.22
5876.00,1.22
5875.00,1.23
5874.00,1.23
5873.00,1.23
5872.00,1.23
5871.00,1.23
5870.00,1.23
5869.00,1.23
5868.00,1.23
5867.00,1.23
5866.00,1.24
5865.00,1.24
5864.00,1.24
5863.00,1.24
5862.00,1.25
5861.00,1.25
5860.00,1.25
5859.00,1.25
5858.00,1.25
5857.00,1.26
5856.00,1.26
5855.00,1.26
5854.00,1.26
5853.00,1.26
5852.00,1.26
5851.00,1.26
5850.00,1.27
5849.00,1.27
5848.00,1.27
5847.00,1.27
5846.00,1.27
5845.00,1.27
5844.00,1.28
5843.00,1.28
5842.00,1.28
5841.00,1.28
5840.00,1.28
5839.00,1.28
5838.00,1.28
5837.00,1.28
5836.00,1.28
5835.00,1.28
5834.00,1.28
5833.00,1.28
5832.00,1.28
5831.00,1.28
5830.00,1.28
5829.00,1.27
5828.00,1.27
5827.00,1.27
5826.00,1.27
5825.00,1.27
5824.00,1.27
5823.00,1.27
5822.00,1.27
5821.00,1.27
5820.00,1.27
5819.00,1.27
5818.00,1.27
5817.00,1.27
5816.00,1.27
5815.00,1.27
5814.00,1.27
5813.00,1.26
5812.00,1.26
5811.00,1.26
5810.00,1.26
5809.00,1.26
5808.00,1.26
5807.00,1.26
5806.00,1.26
5805.00,1.26
5804.00,1.26
5803.00,1.26
5802.00,1.25
5801.00,1.25
5800.00,1.25
5799.00,1.25
5798.00,1.25
5797.00,1.25
5796.00,1.25
5795.00,1.24
5794.00,1.24
5793.00,1.24
5792.00,1.24
5791.00,1.24
5790.00,1.24
5789.00,1.23
5788.00,1.23
5787.00,1.23
5786.00,1.23
5785.00,1.23
5784.00,1.23
5783.00,1.23
5782.00,1.23
5781.00,1.23
5780.00,1.23
5779.00,1.23
5778.00,1.23
5777.00,1.23
5776.00,1.23
5775.00,1.23
5774.00,1.22
5773.00,1.22
5772.00,1.22
5771.00,1.23
5770.00,1.23
5769.00,1.23
5768.00,1.23
5767.00,1.23
5766.00,1.23
5765.00,1.23
5764.00,1.23
5763.00,1.23
5762.00,1.23
5761.00,1.24
5760.00,1.24
5759.00,1.24
5758.00,1.24
5757.00,1.24
5756.00,1.24
5755.00,1.24
5754.00,1.25
5753.00,1.25
5752.00,1.25
5751.00,1.25
5750.00,1.26
5749.00,1.26
5748.00,1.26
5747.00,1.26
5746.00,1.27
5745.00,1.27
5744.00,1.27
5743.00,1.27
5742.00,1.28
5741.00,1.28
5740.00,1.28
5739.00,1.28
5738.00,1.28
5737.00,1.29
5736.00,1.29
5735.00,1.29
5734.00,1.29
5733.00,1.29
5732.00,1.30
5731.00,1.30
5730.00,1.30
5729.00,1.30
5728.00,1.30
5727.00,1.30
5726.00,1.30
5725.00,1.31
5724.00,1.31
5723.00,1.31
5722.00,1.31
5721.00,1.31
5720.00,1.31
5719.00,1.31
5718.00,1.31
5717.00,1.31
5716.00,1.31
5715.00,1.31
5714.00,1.31
5713.00,1.31
5712.00,1.31
5711.00,1.31
5710.00,1.31
5709.00,1.31
5708.00,1.31
5707.00,1.31
5706.00,1.31
5705.00,1.31
5704.00,1.30
5703.00,1.30
5702.00,1.30
5701.00,1.30
5700.00,1.30
5699.00,1.30
5698.00,1.29
5697.00,1.29
5696.00,1.29
5695.00,1.29
5694.00,1.29
5693.00,1.28
5692.00,1.28
5691.00,1.28
5690.00,1.28
5689.00,1.27
5688.00,1.27
5687.00,1.27
5686.00,1.27
5685.00,1.26
5684.00,1.26
5683.00,1.26
5682.00,1.26
5681.00,1.26
5680.00,1.26
5679.00,1.26
5678.00,1.26
5677.00,1.26
5676.00,1.26
5675.00,1.26
5674.00,1.26
5673.00,1.26
5672.00,1.26
5671.00,1.26
5670.00,1.26
5669.00,1.26
5668.00,1.26
5667.00,1.26
5666.00,1.26
5665.00,1.26
5664.00,1.26
5663.00,1.26
5662.00,1.26
5661.00,1.26
5660.00,1.26
5659.00,1.26
5658.00,1.26
5657.00,1.27
5656.00,1.27
5655.00,1.27
5654.00,1.27
5653.00,1.27
5652.00,1.27
5651.00,1.27
5650.00,1.27
5649.00,1.27
5648.00,1.27
5647.00,1.27
5646.00,1.27
5645.00,1.27
5644.00,1.27
5643.00,1.27
5642.00,1.27
5641.00,1.27
5640.00,1.27
5639.00,1.27
5638.00,1.27
5637.00,1.28
5636.00,1.28
5635.00,1.28
5634.00,1.28
5633.00,1.28
5632.00,1.28
5631.00,1.28
5630.00,1.28
5629.00,1.29
5628.00,1.29
5627.00,1.29
5626.00,1.29
5625.00,1.29
5624.00,1.30
5623.00,1.30
5622.00,1.30
5621.00,1.30
5620.00,1.31
5619.00,1.31
5618.00,1.31
5617.00,1.31
5616.00,1.32
5615.00,1.32
5614.00,1.32
5613.00,1.32
5612.00,1.33
5611.00,1.33
5610.00,1.33
5609.00,1.33
5608.00,1.34
5607.00,1.34
5606.00,1.34
5605.00,1.34
5604.00,1.35
5603.00,1.35
5602.00,1.35
5601.00,1.35
5600.00,1.35
5599.00,1.36
5598.00,1.36
5597.00,1.36
5596.00,1.36
5595.00,1.36
5594.00,1.36
5593.00,1.36
5592.00,1.36
5591.00,1.36
5590.00,1.36
5589.00,1.37
5588.00,1.37
5587.00,1.37
5586.00,1.37
5585.00,1.37
5584.00,1.37
5583.00,1.37
5582.00,1.37
5581.00,1.37
5580.00,1.37
5579.00,1.37
5578.00,1.37
5577.00,1.37
5576.00,1.37
5575.00,1.37
5574.00,1.37
5573.00,1.37
5572.00,1.37
5571.00,1.37
5570.00,1.37
5569.00,1.37
5568.00,1.37
5567.00,1.37
5566.00,1.37
5565.00,1.37
5564.00,1.37
5563.00,1.37
5562.00,1.37
5561.00,1.37
5560.00,1.37
5559.00,1.37
5558.00,1.37
5557.00,1.38
5556.00,1.38
5555.00,1.38
5554.00,1.38
5553.00,1.38
5552.00,1.38
5551.00,1.39
5550.00,1.39
5549.00,1.39
5548.00,1.39
5547.00,1.39
5546.00,1.40
5545.00,1.40
5544.00,1.40
5543.00,1.40
5542.00,1.40
5541.00,1.40
5540.00,1.41
5539.00,1.41
5538.00,1.41
5537.00,1.41
5536.00,1.41
5535.00,1.42
5534.00,1.42
5533.00,1.42
5532.00,1.42
5531.00,1.43
5530.00,1.43
5529.00,1.43
5528.00,1.43
5527.00,1.43
5526.00,1.43
5525.00,1.43
5524.00,1.43
5523.00,1.44
5522.00,1.44
5521.00,1.44
5520.00,1.44
5519.00,1.44
5518.00,1.44
5517.00,1.44
5516.00,1.44
5515.00,1.44
5514.00,1.44
5513.00,1.44
5512.00,1.44
5511.00,1.44
5510.00,1.44
5509.00,1.44
5508.00,1.44
5507.00,1.44
5506.00,1.44
5505.00,1.44
5504.00,1.44
5503.00,1.44
5502.00,1.44
5501.00,1.44
5500.00,1.44
5499.00,1.44
5498.00,1.44
5497.00,1.44
5496.00,1.44
5495.00,1.44
5494.00,1.44
5493.00,1.44
5492.00,1.44
5491.00,1.44
5490.00,1.44
5489.00,1.44
5488.00,1.44
5487.00,1.44
5486.00,1.44
5485.00,1.45
5484.00,1.45
5483.00,1.45
5482.00,1.45
5481.00,1.45
5480.00,1.45
5479.00,1.45
5478.00,1.45
5477.00,1.44
5476.00,1.44
5475.00,1.44
5474.00,1.44
5473.00,1.44
5472.00,1.44
5471.00,1.44
5470.00,1.44
5469.00,1.44
5468.00,1.44
5467.00,1.44
5466.00,1.44
5465.00,1.44
5464.00,1.44
5463.00,1.44
5462.00,1.44
5461.00,1.44
5460.00,1.44
5459.00,1.44
5458.00,1.44
5457.00,1.44
5456.00,1.45
5455.00,1.45
5454.00,1.45
5453.00,1.45
5452.00,1.45
5451.00,1.45
5450.00,1.46
5449.00,1.46
5448.00,1.46
5447.00,1.46
5446.00,1.47
5445.00,1.47
5444.00,1.47
5443.00,1.47
5442.00,1.47
5441.00,1.48
5440.00,1.48
5439.00,1.48
5438.00,1.48
5437.00,1.48
5436.00,1.49
5435.00,1.49
5434.00,1.49
5433.00,1.49
5432.00,1.49
5431.00,1.49
5430.00,1.49
5429.00,1.49
5428.00,1.49
5427.00,1.49
5426.00,1.49
5425.00,1.49
5424.00,1.49
5423.00,1.49
5422.00,1.49
5421.00,1.49
5420.00,1.49
5419.00,1.49
5418.00,1.49
5417.00,1.49
5416.00,1.49
5415.00,1.49
5414.00,1.49
5413.00,1.49
5412.00,1.49
5411.00,1.49
5410.00,1.48
5409.00,1.48
5408.00,1.48
5407.00,1.48
5406.00,1.48
5405.00,1.48
5404.00,1.48
5403.00,1.47
5402.00,1.47
5401.00,1.47
5400.00,1.47
5399.00,1.47
5398.00,1.47
5397.00,1.46
5396.00,1.46
5395.00,1.46
5394.00,1.46
5393.00,1.46
5392.00,1.46
5391.00,1.45
5390.00,1.45
5389.00,1.45
5388.00,1.45
5387.00,1.45
5386.00,1.44
5385.00,1.44
5384.00,1.44
5383.00,1.44
5382.00,1.44
5381.00,1.43
5380.00,1.43
5379.00,1.43
5378.00,1.43
5377.00,1.42
5376.00,1.42
5375.00,1.42
5374.00,1.42
5373.00,1.41
5372.00,1.41
5371.00,1.41
5370.00,1.41
5369.00,1.40
5368.00,1.40
5367.00,1.39
5366.00,1.39
5365.00,1.38
5364.00,1.38
5363.00,1.37
5362.00,1.36
5361.00,1.36
5360.00,1.35
5359.00,1.35
5358.00,1.34
5357.00,1.33
5356.00,1.33
5355.00,1.32
5354.00,1.31
5353.00,1.30
5352.00,1.30
5351.00,1.29
5350.00,1.28
5349.00,1.27
5348.00,1.26
5347.00,1.26
5346.00,1.25
5345.00,1.24
5344.00,1.23
5343.00,1.22
5342.00,1.21
5341.00,1.21
5340.00,1.20
5339.00,1.19
5338.00,1.18
5337.00,1.17
5336.00,1.16
5335.00,1.15
5334.00,1.14
5333.00,1.13
5332.00,1.12
5331.00,1.11
5330.00,1.10
5329.00,1.09
5328.00,1.08
5327.00,1.07
5326.00,1.06
5325.00,1.05
5324.00,1.04
5323.00,1.03
5322.00,1.02
5321.00,1.01
5320.00,1.00
5319.00,0.99
5318.00,0.97
5317.00,0.96
5316.00,0.95
5315.00,0.94
5314.00,0.93
5313.00,0.92
5312.00,0.91
5311.00,0.90
5310.00,0.89
5309.00,0.88
5308.00,0.87
5307.00,0.87
5306.00,0.86
5305.00,0.85
5304.00,0.84
5303.00,0.83
5302.00,0.83
5301.00,0.82
5300.00,0.81
5299.00,0.81
5298.00,0.80
5297.00,0.79
5296.00,0.79
5295.00,0.78
5294.00,0.78
5293.00,0.77
5292.00,0.77
5291.00,0.77
5290.00,0.76
5289.00,0.76
5288.00,0.75
5287.00,0.75
5286.00,0.75
5285.00,0.74
5284.00,0.74
5283.00,0.74
5282.00,0.73
5281.00,0.73
5280.00,0.73
5279.00,0.72
5278.00,0.72
5277.00,0.72
5276.00,0.72
5275.00,0.71
5274.00,0.71
5273.00,0.71
5272.00,0.71
5271.00,0.71
5270.00,0.70
5269.00,0.70
5268.00,0.70
5267.00,0.70
5266.00,0.70
5265.00,0.70
5264.00,0.70
5263.00,0.70
5262.00,0.69
5261.00,0.69
5260.00,0.69
5259.00,0.69
5258.00,0.69
5257.00,0.69
5256.00,0.69
5255.00,0.69
5254.00,0.69
5253.00,0.69
5252.00,0.69
5251.00,0.69
5250.00,0.69
5249.00,0.69
5248.00,0.69
5247.00,0.68
5246.00,0.68
5245.00,0.68
5244.00,0.68
5243.00,0.68
5242.00,0.68
5241.00,0.68
5240.00,0.68
5239.00,0.67
5238.00,0.67
5237.00,0.67
5236.00,0.67
5235.00,0.67
5234.00,0.67
5233.00,0.67
5232.00,0.67
5231.00,0.67
5230.00,0.66
5229.00,0.66
5228.00,0.66
5227.00,0.66
5226.00,0.66
5225.00,0.66
5224.00,0.66
5223.00,0.67
5222.00,0.67
5221.00,0.67
5220.00,0.67
5219.00,0.67
5218.00,0.67
5217.00,0.67
5216.00,0.67
5215.00,0.67
5214.00,0.67
5213.00,0.67
5212.00,0.67
5211.00,0.68
5210.00,0.68
5209.00,0.68
5208.00,0.68
5207.00,0.68
5206.00,0.68
5205.00,0.68
5204.00,0.68
5203.00,0.68
5202.00,0.68
5201.00,0.68
5200.00,0.68
5199.00,0.68
5198.00,0.68
5197.00,0.68
5196.00,0.68
5195.00,0.68
5194.00,0.67
5193.00,0.67
5192.00,0.67
5191.00,0.67
5190.00,0.67
5189.00,0.67
5188.00,0.67
5187.00,0.67
5186.00,0.67
5185.00,0.67
5184.00,0.67
5183.00,0.68
5182.00,0.68
5181.00,0.68
5180.00,0.68
5179.00,0.68
5178.00,0.68
5177.00,0.68
5176.00,0.68
5175.00,0.68
5174.00,0.68
5173.00,0.68
5172.00,0.69
5171.00,0.69
5170.00,0.69
5169.00,0.69
5168.00,0.69
5167.00,0.69
5166.00,0.69
5165.00,0.69
5164.00,0.69
5163.00,0.69
5162.00,0.69
5161.00,0.69
5160.00,0.70
5159.00,0.70
5158.00,0.70
5157.00,0.70
5156.00,0.70
5155.00,0.70
5154.00,0.70
5153.00,0.70
5152.00,0.70
5151.00,0.70
5150.00,0.70
5149.00,0.70
5148.00,0.71
5147.00,0.71
5146.00,0.71
5145.00,0.71
5144.00,0.71
5143.00,0.71
5142.00,0.71
5141.00,0.71
5140.00,0.71
5139.00,0.71
5138.00,0.71
5137.00,0.71
5136.00,0.72
5135.00,0.72
5134.00,0.72
5133.00,0.72
5132.00,0.72
5131.00,0.71
5130.00,0.71
5129.00,0.71
5128.00,0.71
5127.00,0.71
5126.00,0.71
5125.00,0.71
5124.00,0.71
5123.00,0.71
5122.00,0.71
5121.00,0.71
5120.00,0.71
5119.00,0.71
5118.00,0.71
5117.00,0.71
5116.00,0.71
5115.00,0.71
5114.00,0.71
5113.00,0.72
5112.00,0.72
5111.00,0.72
5110.00,0.72
5109.00,0.72
5108.00,0.72
5107.00,0.72
5106.00,0.72
5105.00,0.72
5104.00,0.72
5103.00,0.72
5102.00,0.73
5101.00,0.73
5100.00,0.73
5099.00,0.73
5098.00,0.73
5097.00,0.73
5096.00,0.73
5095.00,0.73
5094.00,0.73
5093.00,0.73
5092.00,0.73
5091.00,0.73
5090.00,0.73
5089.00,0.74
5088.00,0.74
5087.00,0.74
5086.00,0.74
5085.00,0.74
5084.00,0.74
5083.00,0.74
5082.00,0.74
5081.00,0.74
5080.00,0.74
5079.00,0.75
5078.00,0.75
5077.00,0.75
5076.00,0.75
5075.00,0.75
5074.00,0.75
5073.00,0.75
5072.00,0.75
5071.00,0.75
5070.00,0.75
5069.00,0.76
5068.00,0.76
5067.00,0.76
5066.00,0.76
5065.00,0.76
5064.00,0.76
5063.00,0.76
5062.00,0.76
5061.00,0.76
5060.00,0.76
5059.00,0.77
5058.00,0.77
5057.00,0.77
5056.00,0.77
5055.00,0.77
5054.00,0.77
5053.00,0.77
5052.00,0.77
5051.00,0.77
5050.00,0.78
5049.00,0.78
5048.00,0.78
5047.00,0.78
5046.00,0.78
5045.00,0.79
5044.00,0.79
5043.00,0.79
5042.00,0.79
5041.00,0.79
5040.00,0.80
5039.00,0.80
5038.00,0.80
5037.00,0.80
5036.00,0.80
5035.00,0.81
5034.00,0.81
5033.00,0.81
5032.00,0.81
5031.00,0.81
5030.00,0.81
5029.00,0.81
5028.00,0.81
5027.00,0.81
5026.00,0.81
5025.00,0.81
5024.00,0.81
5023.00,0.81
5022.00,0.81
5021.00,0.81
5020.00,0.81
5019.00,0.81
5018.00,0.81
5017.00,0.81
5016.00,0.81
5015.00,0.81
5014.00,0.81
5013.00,0.80
5012.00,0.80
5011.00,0.80
5010.00,0.80
5009.00,0.80
5008.00,0.79
5007.00,0.79
5006.00,0.79
5005.00,0.79
5004.00,0.79
5003.00,0.79
5002.00,0.79
5001.00,0.79
5000.00,0.79
4999.00,0.79
4998.00,0.79
4997.00,0.79
4996.00,0.79
4995.00,0.79
4994.00,0.79
4993.00,0.79
4992.00,0.79
4991.00,0.79
4990.00,0.79
4989.00,0.79
4988.00,0.79
4987.00,0.79
4986.00,0.79
4985.00,0.80
4984.00,0.80
4983.00,0.80
4982.00,0.80
4981.00,0.81
4980.00,0.81
4979.00,0.81
4978.00,0.81
4977.00,0.81
4976.00,0.82
4975.00,0.82
4974.00,0.82
4973.00,0.82
4972.00,0.82
4971.00,0.82
4970.00,0.83
4969.00,0.83
4968.00,0.83
4967.00,0.83
4966.00,0.83
4965.00,0.83
4964.00,0.84
4963.00,0.84
4962.00,0.84
4961.00,0.84
4960.00,0.84
4959.00,0.85
4958.00,0.85
4957.00,0.85
4956.00,0.85
4955.00,0.85
4954.00,0.85
4953.00,0.85
4952.00,0.85
4951.00,0.85
4950.00,0.86
4949.00,0.86
4948.00,0.86
4947.00,0.86
4946.00,0.86
4945.00,0.86
4944.00,0.86
4943.00,0.86
4942.00,0.86
4941.00,0.86
4940.00,0.86
4939.00,0.86
4938.00,0.87
4937.00,0.87
4936.00,0.87
4935.00,0.87
4934.00,0.87
4933.00,0.87
4932.00,0.87
4931.00,0.87
4930.00,0.87
4929.00,0.87
4928.00,0.87
4927.00,0.87
4926.00,0.87
4925.00,0.87
4924.00,0.87
4923.00,0.87
4922.00,0.87
4921.00,0.87
4920.00,0.87
4919.00,0.87
4918.00,0.88
4917.00,0.88
4916.00,0.88
4915.00,0.88
4914.00,0.88
4913.00,0.88
4912.00,0.88
4911.00,0.88
4910.00,0.88
4909.00,0.88
4908.00,0.88
4907.00,0.89
4906.00,0.89
4905.00,0.89
4904.00,0.89
4903.00,0.89
4902.00,0.89
4901.00,0.90
4900.00,0.90
4899.00,0.90
4898.00,0.90
4897.00,0.91
4896.00,0.91
4895.00,0.91
4894.00,0.91
4893.00,0.91
4892.00,0.92
4891.00,0.92
4890.00,0.92
4889.00,0.92
4888.00,0.92
4887.00,0.92
4886.00,0.93
4885.00,0.93
4884.00,0.93
4883.00,0.93
4882.00,0.93
4881.00,0.94
4880.00,0.94
4879.00,0.94
4878.00,0.94
4877.00,0.94
4876.00,0.94
4875.00,0.94
4874.00,0.94
4873.00,0.94
4872.00,0.94
4871.00,0.94
4870.00,0.94
4869.00,0.94
4868.00,0.94
4867.00,0.94
4866.00,0.94
4865.00,0.94
4864.00,0.94
4863.00,0.94
4862.00,0.94
4861.00,0.94
4860.00,0.94
4859.00,0.94
4858.00,0.94
4857.00,0.94
4856.00,0.94
4855.00,0.94
4854.00,0.94
4853.00,0.94
4852.00,0.94
4851.00,0.94
4850.00,0.94
4849.00,0.94
4848.00,0.94
4847.00,0.94
4846.00,0.94
4845.00,0.94
4844.00,0.94
4843.00,0.94
4842.00,0.94
4841.00,0.94
4840.00,0.94
4839.00,0.95
4838.00,0.95
4837.00,0.95
4836.00,0.95
4835.00,0.95
4834.00,0.95
4833.00,0.95
4832.00,0.96
4831.00,0.96
4830.00,0.96
4829.00,0.96
4828.00,0.96
4827.00,0.96
4826.00,0.97
4825.00,0.97
4824.00,0.97
4823.00,0.97
4822.00,0.97
4821.00,0.97
4820.00,0.98
4819.00,0.98
4818.00,0.98
4817.00,0.98
4816.00,0.98
4815.00,0.98
4814.00,0.98
4813.00,0.99
4812.00,0.99
4811.00,0.99
4810.00,0.99
4809.00,0.99
4808.00,0.99
4807.00,0.99
4806.00,0.99
4805.00,0.99
4804.00,0.99
4803.00,0.99
4802.00,0.99
4801.00,0.99
4800.00,1.00
4799.00,1.00
4798.00,1.00
4797.00,1.00
4796.00,1.00
4795.00,1.00
4794.00,1.01
4793.00,1.01
4792.00,1.01
4791.00,1.01
4790.00,1.01
4789.00,1.02
4788.00,1.02
4787.00,1.02
4786.00,1.03
4785.00,1.03
4784.00,1.03
4783.00,1.04
4782.00,1.04
4781.00,1.04
4780.00,1.04
4779.00,1.05
4778.00,1.05
4777.00,1.05
4776.00,1.05
4775.00,1.06
4774.00,1.06
4773.00,1.06
4772.00,1.06
4771.00,1.07
4770.00,1.07
4769.00,1.07
4768.00,1.08
4767.00,1.08
4766.00,1.08
4765.00,1.08
4764.00,1.08
4763.00,1.09
4762.00,1.09
4761.00,1.09
4760.00,1.09
4759.00,1.09
4758.00,1.09
4757.00,1.09
4756.00,1.09
4755.00,1.10
4754.00,1.10
4753.00,1.10
4752.00,1.10
4751.00,1.10
4750.00,1.11
4749.00,1.11
4748.00,1.11
4747.00,1.11
4746.00,1.11
4745.00,1.11
4744.00,1.11
4743.00,1.11
4742.00,1.11
4741.00,1.11
4740.00,1.11
4739.00,1.11
4738.00,1.11
4737.00,1.11
4736.00,1.11
4735.00,1.11
4734.00,1.11
4733.00,1.12
4732.00,1.12
4731.00,1.12
4730.00,1.12
4729.00,1.13
4728.00,1.13
4727.00,1.13
4726.00,1.13
4725.00,1.13
4724.00,1.14
4723.00,1.14
4722.00,1.14
4721.00,1.14
4720.00,1.15
4719.00,1.15
4718.00,1.15
4717.00,1.16
4716.00,1.16
4715.00,1.16
4714.00,1.17
4713.00,1.17
4712.00,1.17
4711.00,1.18
4710.00,1.18
4709.00,1.18
4708.00,1.18
4707.00,1.19
4706.00,1.19
4705.00,1.19
4704.00,1.19
4703.00,1.20
4702.00,1.20
4701.00,1.20
4700.00,1.20
4699.00,1.20
4698.00,1.20
4697.00,1.21
4696.00,1.21
4695.00,1.21
4694.00,1.21
4693.00,1.21
4692.00,1.22
4691.00,1.22
4690.00,1.22
4689.00,1.22
4688.00,1.23
4687.00,1.23
4686.00,1.23
4685.00,1.23
4684.00,1.23
4683.00,1.23
4682.00,1.23
4681.00,1.23
4680.00,1.24
4679.00,1.24
4678.00,1.24
4677.00,1.24
4676.00,1.24
4675.00,1.24
4674.00,1.24
4673.00,1.24
4672.00,1.24
4671.00,1.24
4670.00,1.24
4669.00,1.25
4668.00,1.25
4667.00,1.25
4666.00,1.25
4665.00,1.25
4664.00,1.25
4663.00,1.25
4662.00,1.25
4661.00,1.25
4660.00,1.25
4659.00,1.25
4658.00,1.25
4657.00,1.25
4656.00,1.25
4655.00,1.25
4654.00,1.25
4653.00,1.25
4652.00,1.26
4651.00,1.26
4650.00,1.26
4649.00,1.26
4648.00,1.26
4647.00,1.26
4646.00,1.26
4645.00,1.26
4644.00,1.27
4643.00,1.27
4642.00,1.27
4641.00,1.27
4640.00,1.27
4639.00,1.27
4638.00,1.28
4637.00,1.28
4636.00,1.28
4635.00,1.28
4634.00,1.28
4633.00,1.28
4632.00,1.29
4631.00,1.29
4630.00,1.29
4629.00,1.29
4628.00,1.29
4627.00,1.29
4626.00,1.30
4625.00,1.30
4624.00,1.30
4623.00,1.30
4622.00,1.30
4621.00,1.31
4620.00,1.31
4619.00,1.31
4618.00,1.31
4617.00,1.31
4616.00,1.32
4615.00,1.32
4614.00,1.32
4613.00,1.32
4612.00,1.33
4611.00,1.33
4610.00,1.33
4609.00,1.33
4608.00,1.34
4607.00,1.34
4606.00,1.34
4605.00,1.34
4604.00,1.34
4603.00,1.35
4602.00,1.35
4601.00,1.35
4600.00,1.35
4599.00,1.36
4598.00,1.36
4597.00,1.36
4596.00,1.36
4595.00,1.36
4594.00,1.36
4593.00,1.36
4592.00,1.36
4591.00,1.36
4590.00,1.36
4589.00,1.36
4588.00,1.36
4587.00,1.36
4586.00,1.36
4585.00,1.36
4584.00,1.36
4583.00,1.36
4582.00,1.36
4581.00,1.36
4580.00,1.36
4579.00,1.35
4578.00,1.35
4577.00,1.35
4576.00,1.35
4575.00,1.34
4574.00,1.34
4573.00,1.34
4572.00,1.33
4571.00,1.33
4570.00,1.33
4569.00,1.33
4568.00,1.32
4567.00,1.32
4566.00,1.32
4565.00,1.32
4564.00,1.32
4563.00,1.31
4562.00,1.31
4561.00,1.31
4560.00,1.31
4559.00,1.31
4558.00,1.31
4557.00,1.30
4556.00,1.30
4555.00,1.30
4554.00,1.30
4553.00,1.30
4552.00,1.30
4551.00,1.30
4550.00,1.30
4549.00,1.30
4548.00,1.30
4547.00,1.30
4546.00,1.30
4545.00,1.30
4544.00,1.30
4543.00,1.30
4542.00,1.30
4541.00,1.30
4540.00,1.31
4539.00,1.31
4538.00,1.31
4537.00,1.31
4536.00,1.31
4535.00,1.31
4534.00,1.31
4533.00,1.32
4532.00,1.32
4531.00,1.32
4530.00,1.32
4529.00,1.33
4528.00,1.33
4527.00,1.33
4526.00,1.33
4525.00,1.34
4524.00,1.34
4523.00,1.34
4522.00,1.34
4521.00,1.34
4520.00,1.35
4519.00,1.35
4518.00,1.35
4517.00,1.35
4516.00,1.35
4515.00,1.36
4514.00,1.36
4513.00,1.36
4512.00,1.36
4511.00,1.36
4510.00,1.36
4509.00,1.36
4508.00,1.36
4507.00,1.36
4506.00,1.36
4505.00,1.36
4504.00,1.36
4503.00,1.36
4502.00,1.36
4501.00,1.36
4500.00,1.36
4499.00,1.36
4498.00,1.36
4497.00,1.36
4496.00,1.36
4495.00,1.36
4494.00,1.36
4493.00,1.35
4492.00,1.35
4491.00,1.35
4490.00,1.35
4489.00,1.35
4488.00,1.35
4487.00,1.35
4486.00,1.35
4485.00,1.34
4484.00,1.34
4483.00,1.34
4482.00,1.34
4481.00,1.34
4480.00,1.34
4479.00,1.34
4478.00,1.33
4477.00,1.33
4476.00,1.33
4475.00,1.33
4474.00,1.32
4473.00,1.32
4472.00,1.32
4471.00,1.31
4470.00,1.31
4469.00,1.31
4468.00,1.30
4467.00,1.30
4466.00,1.30
4465.00,1.29
4464.00,1.29
4463.00,1.28
4462.00,1.28
4461.00,1.27
4460.00,1.27
4459.00,1.26
4458.00,1.26
4457.00,1.25
4456.00,1.25
4455.00,1.24
4454.00,1.24
4453.00,1.23
4452.00,1.23
4451.00,1.22
4450.00,1.22
4449.00,1.21
4448.00,1.21
4447.00,1.20
4446.00,1.20
4445.00,1.19
4444.00,1.18
4443.00,1.18
4442.00,1.17
4441.00,1.17
4440.00,1.17
4439.00,1.16
4438.00,1.16
4437.00,1.15
4436.00,1.15
4435.00,1.14
4434.00,1.14
4433.00,1.13
4432.00,1.13
4431.00,1.12
4430.00,1.12
4429.00,1.12
4428.00,1.11
4427.00,1.11
4426.00,1.11
4425.00,1.11
4424.00,1.10
4423.00,1.10
4422.00,1.10
4421.00,1.10
4420.00,1.10
4419.00,1.09
4418.00,1.09
4417.00,1.09
4416.00,1.09
4415.00,1.09
4414.00,1.09
4413.00,1.09
4412.00,1.09
4411.00,1.09
4410.00,1.09
4409.00,1.09
4408.00,1.09
4407.00,1.09
4406.00,1.09
4405.00,1.09
4404.00,1.09
4403.00,1.09
4402.00,1.10
4401.00,1.10
4400.00,1.10
4399.00,1.10
4398.00,1.10
4397.00,1.10
4396.00,1.10
4395.00,1.10
4394.00,1.10
4393.00,1.10
4392.00,1.10
4391.00,1.10
4390.00,1.10
4389.00,1.11
4388.00,1.11
4387.00,1.11
4386.00,1.11
4385.00,1.11
4384.00,1.11
4383.00,1.12
4382.00,1.12
4381.00,1.12
4380.00,1.12
4379.00,1.12
4378.00,1.13
4377.00,1.13
4376.00,1.13
4375.00,1.13
4374.00,1.13
4373.00,1.14
4372.00,1.14
4371.00,1.14
4370.00,1.14
4369.00,1.14
4368.00,1.14
4367.00,1.15
4366.00,1.15
4365.00,1.15
4364.00,1.15
4363.00,1.15
4362.00,1.15
4361.00,1.15
4360.00,1.15
4359.00,1.15
4358.00,1.15
4357.00,1.14
4356.00,1.14
4355.00,1.14
4354.00,1.14
4353.00,1.14
4352.00,1.13
4351.00,1.13
4350.00,1.13
4349.00,1.13
4348.00,1.12
4347.00,1.12
4346.00,1.12
4345.00,1.11
4344.00,1.11
4343.00,1.11
4342.00,1.10
4341.00,1.10
4340.00,1.10
4339.00,1.09
4338.00,1.09
4337.00,1.09
4336.00,1.08
4335.00,1.08
4334.00,1.08
4333.00,1.08
4332.00,1.08
4331.00,1.08
4330.00,1.08
4329.00,1.08
4328.00,1.08
4327.00,1.08
4326.00,1.08
4325.00,1.08
4324.00,1.08
4323.00,1.09
4322.00,1.09
4321.00,1.09
4320.00,1.09
4319.00,1.10
4318.00,1.10
4317.00,1.10
4316.00,1.11
4315.00,1.11
4314.00,1.11
4313.00,1.12
4312.00,1.12
4311.00,1.13
4310.00,1.13
4309.00,1.13
4308.00,1.14
4307.00,1.14
4306.00,1.14
4305.00,1.14
4304.00,1.15
4303.00,1.15
4302.00,1.15
4301.00,1.15
4300.00,1.16
4299.00,1.16
4298.00,1.16
4297.00,1.16
4296.00,1.16
4295.00,1.16
4294.00,1.16
4293.00,1.16
4292.00,1.16
4291.00,1.16
4290.00,1.16
4289.00,1.15
4288.00,1.15
4287.00,1.15
4286.00,1.15
4285.00,1.15
4284.00,1.15
4283.00,1.15
4282.00,1.15
4281.00,1.15
4280.00,1.15
4279.00,1.15
4278.00,1.15
4277.00,1.15
4276.00,1.15
4275.00,1.15
4274.00,1.16
4273.00,1.16
4272.00,1.16
4271.00,1.16
4270.00,1.17
4269.00,1.17
4268.00,1.17
4267.00,1.18
4266.00,1.18
4265.00,1.18
4264.00,1.18
4263.00,1.19
4262.00,1.19
4261.00,1.19
4260.00,1.19
4259.00,1.19
4258.00,1.20
4257.00,1.20
4256.00,1.20
4255.00,1.20
4254.00,1.20
4253.00,1.21
4252.00,1.21
4251.00,1.21
4250.00,1.21
4249.00,1.21
4248.00,1.21
4247.00,1.21
4246.00,1.21
4245.00,1.21
4244.00,1.21
4243.00,1.21
4242.00,1.21
4241.00,1.21
4240.00,1.21
4239.00,1.21
4238.00,1.21
4237.00,1.21
4236.00,1.21
4235.00,1.21
4234.00,1.21
4233.00,1.21
4232.00,1.21
4231.00,1.21
4230.00,1.20
4229.00,1.20
4228.00,1.20
4227.00,1.20
4226.00,1.20
4225.00,1.20
4224.00,1.20
4223.00,1.20
4222.00,1.20
4221.00,1.21
4220.00,1.21
4219.00,1.21
4218.00,1.21
4217.00,1.21
4216.00,1.21
4215.00,1.21
4214.00,1.21
4213.00,1.21
4212.00,1.21
4211.00,1.21
4210.00,1.21
4209.00,1.21
4208.00,1.21
4207.00,1.21
4206.00,1.21
4205.00,1.21
4204.00,1.21
4203.00,1.22
4202.00,1.22
4201.00,1.22
4200.00,1.22
4199.00,1.22
4198.00,1.22
4197.00,1.22
4196.00,1.23
4195.00,1.23
4194.00,1.23
4193.00,1.23
4192.00,1.23
4191.00,1.24
4190.00,1.24
4189.00,1.24
4188.00,1.24
4187.00,1.24
4186.00,1.24
4185.00,1.25
4184.00,1.25
4183.00,1.25
4182.00,1.25
4181.00,1.25
4180.00,1.25
4179.00,1.25
4178.00,1.25
4177.00,1.25
4176.00,1.25
4175.00,1.25
4174.00,1.25
4173.00,1.25
4172.00,1.25
4171.00,1.24
4170.00,1.24
4169.00,1.24
4168.00,1.24
4167.00,1.23
4166.00,1.23
4165.00,1.23
4164.00,1.23
4163.00,1.23
4162.00,1.23
4161.00,1.23
4160.00,1.23
4159.00,1.23
4158.00,1.23
4157.00,1.22
4156.00,1.22
4155.00,1.22
4154.00,1.22
4153.00,1.22
4152.00,1.22
4151.00,1.22
4150.00,1.22
4149.00,1.22
4148.00,1.22
4147.00,1.21
4146.00,1.21
4145.00,1.22
4144.00,1.22
4143.00,1.22
4142.00,1.22
4141.00,1.22
4140.00,1.22
4139.00,1.22
4138.00,1.22
4137.00,1.22
4136.00,1.23
4135.00,1.23
4134.00,1.23
4133.00,1.23
4132.00,1.23
4131.00,1.23
4130.00,1.23
4129.00,1.23
4128.00,1.23
4127.00,1.24
4126.00,1.24
4125.00,1.24
4124.00,1.24
4123.00,1.25
4122.00,1.25
4121.00,1.25
4120.00,1.25
4119.00,1.25
4118.00,1.25
4117.00,1.25
4116.00,1.25
4115.00,1.25
4114.00,1.25
4113.00,1.25
4112.00,1.25
4111.00,1.25
4110.00,1.25
4109.00,1.25
4108.00,1.25
4107.00,1.24
4106.00,1.24
4105.00,1.24
4104.00,1.24
4103.00,1.24
4102.00,1.23
4101.00,1.23
4100.00,1.23
4099.00,1.23
4098.00,1.22
4097.00,1.22
4096.00,1.22
4095.00,1.21
4094.00,1.21
4093.00,1.21
4092.00,1.21
4091.00,1.20
4090.00,1.20
4089.00,1.20
4088.00,1.20
4087.00,1.20
4086.00,1.19
4085.00,1.19
4084.00,1.19
4083.00,1.19
4082.00,1.19
4081.00,1.19
4080.00,1.19
4079.00,1.18
4078.00,1.18
4077.00,1.18
4076.00,1.18
4075.00,1.18
4074.00,1.18
4073.00,1.18
4072.00,1.18
4071.00,1.18
4070.00,1.18
4069.00,1.18
4068.00,1.18
4067.00,1.18
4066.00,1.19
4065.00,1.19
4064.00,1.19
4063.00,1.19
4062.00,1.19
4061.00,1.19
4060.00,1.20
4059.00,1.20
4058.00,1.20
4057.00,1.20
4056.00,1.20
4055.00,1.20
4054.00,1.21
4053.00,1.21
4052.00,1.21
4051.00,1.21
4050.00,1.21
4049.00,1.21
4048.00,1.21
4047.00,1.21
4046.00,1.21
4045.00,1.21
4044.00,1.21
4043.00,1.21
4042.00,1.21
4041.00,1.20
4040.00,1.20
4039.00,1.20
4038.00,1.20
4037.00,1.19
4036.00,1.19
4035.00,1.18
4034.00,1.18
4033.00,1.18
4032.00,1.18
4031.00,1.18
4030.00,1.18
4029.00,1.18
4028.00,1.18
4027.00,1.18
4026.00,1.19
4025.00,1.19
4024.00,1.20
4023.00,1.20
4022.00,1.21
4021.00,1.21
4020.00,1.22
4019.00,1.22
4018.00,1.23
4017.00,1.24
4016.00,1.25
4015.00,1.26
4014.00,1.27
4013.00,1.28
4012.00,1.30
4011.00,1.31
4010.00,1.33
4009.00,1.34
4008.00,1.36
4007.00,1.38
4006.00,1.39
4005.00,1.41
4004.00,1.42
4003.00,1.44
4002.00,1.45
4001.00,1.47
4000.00,1.48
