创建为新数据集,样品 1250 用户 Administrator 日期 星期六, 八月 17 2019
cm-1,%T
10000.00,1.49
9998.00,1.49
9996.00,1.48
9994.00,1.48
9992.00,1.48
9990.00,1.47
9988.00,1.47
9986.00,1.46
9984.00,1.46
9982.00,1.46
9980.00,1.46
9978.00,1.45
9976.00,1.45
9974.00,1.45
9972.00,1.45
9970.00,1.45
9968.00,1.45
9966.00,1.45
9964.00,1.45
9962.00,1.45
9960.00,1.45
9958.00,1.45
9956.00,1.45
9954.00,1.45
9952.00,1.45
9950.00,1.45
9948.00,1.45
9946.00,1.45
9944.00,1.45
9942.00,1.45
9940.00,1.45
9938.00,1.45
9936.00,1.45
9934.00,1.45
9932.00,1.45
9930.00,1.45
9928.00,1.45
9926.00,1.45
9924.00,1.45
9922.00,1.45
9920.00,1.45
9918.00,1.45
9916.00,1.45
9914.00,1.45
9912.00,1.45
9910.00,1.46
9908.00,1.46
9906.00,1.46
9904.00,1.46
9902.00,1.46
9900.00,1.46
9898.00,1.46
9896.00,1.46
9894.00,1.46
9892.00,1.47
9890.00,1.47
9888.00,1.47
9886.00,1.47
9884.00,1.47
9882.00,1.47
9880.00,1.47
9878.00,1.47
9876.00,1.47
9874.00,1.48
9872.00,1.48
9870.00,1.48
9868.00,1.48
9866.00,1.48
9864.00,1.47
9862.00,1.47
9860.00,1.47
9858.00,1.47
9856.00,1.47
9854.00,1.47
9852.00,1.46
9850.00,1.46
9848.00,1.46
9846.00,1.45
9844.00,1.45
9842.00,1.45
9840.00,1.45
9838.00,1.45
9836.00,1.45
9834.00,1.44
9832.00,1.44
9830.00,1.44
9828.00,1.44
9826.00,1.44
9824.00,1.44
9822.00,1.44
9820.00,1.44
9818.00,1.44
9816.00,1.44
9814.00,1.44
9812.00,1.44
9810.00,1.44
9808.00,1.44
9806.00,1.44
9804.00,1.44
9802.00,1.44
9800.00,1.45
9798.00,1.45
9796.00,1.45
9794.00,1.45
9792.00,1.45
9790.00,1.45
9788.00,1.45
9786.00,1.46
9784.00,1.46
9782.00,1.46
9780.00,1.46
9778.00,1.46
9776.00,1.46
9774.00,1.47
9772.00,1.47
9770.00,1.47
9768.00,1.47
9766.00,1.47
9764.00,1.47
9762.00,1.47
9760.00,1.47
9758.00,1.47
9756.00,1.47
9754.00,1.47
9752.00,1.47
9750.00,1.47
9748.00,1.47
9746.00,1.47
9744.00,1.47
9742.00,1.47
9740.00,1.46
9738.00,1.46
9736.00,1.46
9734.00,1.46
9732.00,1.46
9730.00,1.46
9728.00,1.45
9726.00,1.45
9724.00,1.45
9722.00,1.45
9720.00,1.45
9718.00,1.45
9716.00,1.45
9714.00,1.45
9712.00,1.45
9710.00,1.45
9708.00,1.45
9706.00,1.46
9704.00,1.46
9702.00,1.46
9700.00,1.46
9698.00,1.46
9696.00,1.46
9694.00,1.47
9692.00,1.47
9690.00,1.47
9688.00,1.47
9686.00,1.47
9684.00,1.47
9682.00,1.47
9680.00,1.47
9678.00,1.47
9676.00,1.47
9674.00,1.47
9672.00,1.47
9670.00,1.47
9668.00,1.47
9666.00,1.47
9664.00,1.47
9662.00,1.47
9660.00,1.47
9658.00,1.47
9656.00,1.47
9654.00,1.47
9652.00,1.47
9650.00,1.47
9648.00,1.47
9646.00,1.47
9644.00,1.47
9642.00,1.47
9640.00,1.47
9638.00,1.47
9636.00,1.47
9634.00,1.47
9632.00,1.47
9630.00,1.47
9628.00,1.47
9626.00,1.47
9624.00,1.47
9622.00,1.47
9620.00,1.47
9618.00,1.47
9616.00,1.47
9614.00,1.47
9612.00,1.47
9610.00,1.47
9608.00,1.48
9606.00,1.48
9604.00,1.48
9602.00,1.48
9600.00,1.48
9598.00,1.48
9596.00,1.48
9594.00,1.48
9592.00,1.47
9590.00,1.47
9588.00,1.47
9586.00,1.47
9584.00,1.47
9582.00,1.47
9580.00,1.46
9578.00,1.46
9576.00,1.46
9574.00,1.46
9572.00,1.46
9570.00,1.45
9568.00,1.45
9566.00,1.45
9564.00,1.45
9562.00,1.45
9560.00,1.45
9558.00,1.45
9556.00,1.45
9554.00,1.45
9552.00,1.45
9550.00,1.45
9548.00,1.45
9546.00,1.45
9544.00,1.45
9542.00,1.45
9540.00,1.45
9538.00,1.46
9536.00,1.46
9534.00,1.46
9532.00,1.46
9530.00,1.46
9528.00,1.46
9526.00,1.46
9524.00,1.46
9522.00,1.46
9520.00,1.46
9518.00,1.46
9516.00,1.46
9514.00,1.46
9512.00,1.46
9510.00,1.47
9508.00,1.47
9506.00,1.47
9504.00,1.47
9502.00,1.47
9500.00,1.47
9498.00,1.47
9496.00,1.47
9494.00,1.47
9492.00,1.47
9490.00,1.47
9488.00,1.47
9486.00,1.47
9484.00,1.47
9482.00,1.47
9480.00,1.47
9478.00,1.47
9476.00,1.47
9474.00,1.47
9472.00,1.47
9470.00,1.47
9468.00,1.47
9466.00,1.47
9464.00,1.47
9462.00,1.47
9460.00,1.47
9458.00,1.47
9456.00,1.47
9454.00,1.47
9452.00,1.47
9450.00,1.47
9448.00,1.47
9446.00,1.47
9444.00,1.47
9442.00,1.47
9440.00,1.47
9438.00,1.47
9436.00,1.47
9434.00,1.47
9432.00,1.47
9430.00,1.47
9428.00,1.47
9426.00,1.47
9424.00,1.47
9422.00,1.47
9420.00,1.47
9418.00,1.47
9416.00,1.47
9414.00,1.47
9412.00,1.47
9410.00,1.47
9408.00,1.47
9406.00,1.47
9404.00,1.47
9402.00,1.47
9400.00,1.46
9398.00,1.46
9396.00,1.46
9394.00,1.46
9392.00,1.46
9390.00,1.46
9388.00,1.45
9386.00,1.45
9384.00,1.45
9382.00,1.45
9380.00,1.45
9378.00,1.44
9376.00,1.44
9374.00,1.44
9372.00,1.44
9370.00,1.44
9368.00,1.44
9366.00,1.44
9364.00,1.44
9362.00,1.44
9360.00,1.44
9358.00,1.44
9356.00,1.44
9354.00,1.45
9352.00,1.45
9350.00,1.45
9348.00,1.45
9346.00,1.45
9344.00,1.46
9342.00,1.46
9340.00,1.46
9338.00,1.46
9336.00,1.46
9334.00,1.46
9332.00,1.47
9330.00,1.47
9328.00,1.47
9326.00,1.47
9324.00,1.47
9322.00,1.47
9320.00,1.46
9318.00,1.46
9316.00,1.46
9314.00,1.46
9312.00,1.46
9310.00,1.46
9308.00,1.46
9306.00,1.46
9304.00,1.46
9302.00,1.46
9300.00,1.46
9298.00,1.46
9296.00,1.45
9294.00,1.45
9292.00,1.46
9290.00,1.46
9288.00,1.46
9286.00,1.46
9284.00,1.46
9282.00,1.46
9280.00,1.46
9278.00,1.46
9276.00,1.46
9274.00,1.46
9272.00,1.46
9270.00,1.47
9268.00,1.47
9266.00,1.47
9264.00,1.47
9262.00,1.47
9260.00,1.47
9258.00,1.47
9256.00,1.47
9254.00,1.47
9252.00,1.47
9250.00,1.47
9248.00,1.47
9246.00,1.47
9244.00,1.47
9242.00,1.47
9240.00,1.47
9238.00,1.47
9236.00,1.47
9234.00,1.47
9232.00,1.47
9230.00,1.47
9228.00,1.47
9226.00,1.47
9224.00,1.47
9222.00,1.47
9220.00,1.47
9218.00,1.47
9216.00,1.47
9214.00,1.48
9212.00,1.48
9210.00,1.48
9208.00,1.47
9206.00,1.47
9204.00,1.47
9202.00,1.47
9200.00,1.47
9198.00,1.47
9196.00,1.47
9194.00,1.47
9192.00,1.47
9190.00,1.47
9188.00,1.46
9186.00,1.46
9184.00,1.46
9182.00,1.46
9180.00,1.46
9178.00,1.46
9176.00,1.46
9174.00,1.46
9172.00,1.46
9170.00,1.46
9168.00,1.46
9166.00,1.46
9164.00,1.46
9162.00,1.46
9160.00,1.46
9158.00,1.46
9156.00,1.46
9154.00,1.46
9152.00,1.46
9150.00,1.46
9148.00,1.47
9146.00,1.47
9144.00,1.47
9142.00,1.47
9140.00,1.47
9138.00,1.47
9136.00,1.47
9134.00,1.47
9132.00,1.47
9130.00,1.47
9128.00,1.47
9126.00,1.47
9124.00,1.47
9122.00,1.47
9120.00,1.47
9118.00,1.47
9116.00,1.47
9114.00,1.47
9112.00,1.47
9110.00,1.47
9108.00,1.47
9106.00,1.47
9104.00,1.47
9102.00,1.47
9100.00,1.47
9098.00,1.47
9096.00,1.47
9094.00,1.47
9092.00,1.47
9090.00,1.47
9088.00,1.47
9086.00,1.47
9084.00,1.47
9082.00,1.47
9080.00,1.47
9078.00,1.47
9076.00,1.47
9074.00,1.47
9072.00,1.47
9070.00,1.47
9068.00,1.47
9066.00,1.47
9064.00,1.47
9062.00,1.47
9060.00,1.47
9058.00,1.47
9056.00,1.47
9054.00,1.47
9052.00,1.47
9050.00,1.47
9048.00,1.47
9046.00,1.47
9044.00,1.47
9042.00,1.47
9040.00,1.46
9038.00,1.46
9036.00,1.46
9034.00,1.46
9032.00,1.46
9030.00,1.46
9028.00,1.46
9026.00,1.46
9024.00,1.45
9022.00,1.45
9020.00,1.45
9018.00,1.45
9016.00,1.45
9014.00,1.45
9012.00,1.45
9010.00,1.45
9008.00,1.45
9006.00,1.45
9004.00,1.45
9002.00,1.45
9000.00,1.45
8998.00,1.46
8996.00,1.46
8994.00,1.46
8992.00,1.46
8990.00,1.46
8988.00,1.46
8986.00,1.46
8984.00,1.46
8982.00,1.46
8980.00,1.46
8978.00,1.46
8976.00,1.46
8974.00,1.46
8972.00,1.46
8970.00,1.46
8968.00,1.46
8966.00,1.46
8964.00,1.46
8962.00,1.46
8960.00,1.46
8958.00,1.46
8956.00,1.46
8954.00,1.46
8952.00,1.46
8950.00,1.46
8948.00,1.46
8946.00,1.46
8944.00,1.46
8942.00,1.46
8940.00,1.46
8938.00,1.46
8936.00,1.46
8934.00,1.46
8932.00,1.46
8930.00,1.46
8928.00,1.46
8926.00,1.46
8924.00,1.46
8922.00,1.45
8920.00,1.45
8918.00,1.45
8916.00,1.45
8914.00,1.45
8912.00,1.45
8910.00,1.45
8908.00,1.45
8906.00,1.45
8904.00,1.45
8902.00,1.45
8900.00,1.45
8898.00,1.46
8896.00,1.46
8894.00,1.46
8892.00,1.46
8890.00,1.46
8888.00,1.46
8886.00,1.46
8884.00,1.46
8882.00,1.46
8880.00,1.46
8878.00,1.46
8876.00,1.46
8874.00,1.46
8872.00,1.46
8870.00,1.46
8868.00,1.46
8866.00,1.46
8864.00,1.46
8862.00,1.46
8860.00,1.46
8858.00,1.46
8856.00,1.46
8854.00,1.45
8852.00,1.45
8850.00,1.45
8848.00,1.45
8846.00,1.45
8844.00,1.45
8842.00,1.45
8840.00,1.45
8838.00,1.45
8836.00,1.45
8834.00,1.45
8832.00,1.45
8830.00,1.45
8828.00,1.45
8826.00,1.45
8824.00,1.45
8822.00,1.45
8820.00,1.45
8818.00,1.45
8816.00,1.45
8814.00,1.45
8812.00,1.45
8810.00,1.45
8808.00,1.45
8806.00,1.45
8804.00,1.45
8802.00,1.45
8800.00,1.45
8798.00,1.45
8796.00,1.45
8794.00,1.45
8792.00,1.45
8790.00,1.45
8788.00,1.45
8786.00,1.45
8784.00,1.45
8782.00,1.45
8780.00,1.45
8778.00,1.45
8776.00,1.45
8774.00,1.45
8772.00,1.45
8770.00,1.45
8768.00,1.45
8766.00,1.45
8764.00,1.45
8762.00,1.45
8760.00,1.45
8758.00,1.45
8756.00,1.45
8754.00,1.45
8752.00,1.45
8750.00,1.45
8748.00,1.45
8746.00,1.45
8744.00,1.45
8742.00,1.45
8740.00,1.45
8738.00,1.45
8736.00,1.45
8734.00,1.45
8732.00,1.45
8730.00,1.45
8728.00,1.45
8726.00,1.45
8724.00,1.45
8722.00,1.45
8720.00,1.45
8718.00,1.45
8716.00,1.45
8714.00,1.45
8712.00,1.45
8710.00,1.44
8708.00,1.44
8706.00,1.44
8704.00,1.44
8702.00,1.44
8700.00,1.44
8698.00,1.44
8696.00,1.44
8694.00,1.44
8692.00,1.44
8690.00,1.44
8688.00,1.44
8686.00,1.44
8684.00,1.44
8682.00,1.44
8680.00,1.44
8678.00,1.44
8676.00,1.44
8674.00,1.44
8672.00,1.44
8670.00,1.44
8668.00,1.44
8666.00,1.45
8664.00,1.45
8662.00,1.45
8660.00,1.45
8658.00,1.45
8656.00,1.45
8654.00,1.45
8652.00,1.45
8650.00,1.45
8648.00,1.45
8646.00,1.45
8644.00,1.45
8642.00,1.45
8640.00,1.44
8638.00,1.44
8636.00,1.44
8634.00,1.44
8632.00,1.44
8630.00,1.44
8628.00,1.44
8626.00,1.44
8624.00,1.44
8622.00,1.44
8620.00,1.44
8618.00,1.44
8616.00,1.44
8614.00,1.44
8612.00,1.44
8610.00,1.44
8608.00,1.44
8606.00,1.45
8604.00,1.45
8602.00,1.45
8600.00,1.45
8598.00,1.45
8596.00,1.45
8594.00,1.45
8592.00,1.45
8590.00,1.45
8588.00,1.45
8586.00,1.45
8584.00,1.45
8582.00,1.45
8580.00,1.45
8578.00,1.45
8576.00,1.45
8574.00,1.45
8572.00,1.45
8570.00,1.45
8568.00,1.45
8566.00,1.45
8564.00,1.45
8562.00,1.45
8560.00,1.45
8558.00,1.45
8556.00,1.45
8554.00,1.45
8552.00,1.45
8550.00,1.45
8548.00,1.45
8546.00,1.45
8544.00,1.44
8542.00,1.44
8540.00,1.44
8538.00,1.44
8536.00,1.44
8534.00,1.44
8532.00,1.44
8530.00,1.44
8528.00,1.44
8526.00,1.44
8524.00,1.44
8522.00,1.44
8520.00,1.44
8518.00,1.44
8516.00,1.44
8514.00,1.44
8512.00,1.44
8510.00,1.44
8508.00,1.44
8506.00,1.44
8504.00,1.44
8502.00,1.44
8500.00,1.44
8498.00,1.44
8496.00,1.44
8494.00,1.44
8492.00,1.44
8490.00,1.44
8488.00,1.44
8486.00,1.44
8484.00,1.44
8482.00,1.43
8480.00,1.43
8478.00,1.43
8476.00,1.43
8474.00,1.43
8472.00,1.43
8470.00,1.43
8468.00,1.43
8466.00,1.42
8464.00,1.42
8462.00,1.42
8460.00,1.42
8458.00,1.42
8456.00,1.42
8454.00,1.42
8452.00,1.42
8450.00,1.42
8448.00,1.42
8446.00,1.41
8444.00,1.41
8442.00,1.41
8440.00,1.41
8438.00,1.41
8436.00,1.41
8434.00,1.41
8432.00,1.41
8430.00,1.41
8428.00,1.41
8426.00,1.41
8424.00,1.41
8422.00,1.41
8420.00,1.41
8418.00,1.42
8416.00,1.42
8414.00,1.42
8412.00,1.42
8410.00,1.42
8408.00,1.42
8406.00,1.42
8404.00,1.42
8402.00,1.42
8400.00,1.42
8398.00,1.42
8396.00,1.42
8394.00,1.42
8392.00,1.42
8390.00,1.42
8388.00,1.43
8386.00,1.43
8384.00,1.43
8382.00,1.43
8380.00,1.43
8378.00,1.43
8376.00,1.43
8374.00,1.43
8372.00,1.43
8370.00,1.43
8368.00,1.43
8366.00,1.43
8364.00,1.43
8362.00,1.43
8360.00,1.43
8358.00,1.43
8356.00,1.43
8354.00,1.43
8352.00,1.43
8350.00,1.43
8348.00,1.43
8346.00,1.43
8344.00,1.43
8342.00,1.43
8340.00,1.43
8338.00,1.43
8336.00,1.42
8334.00,1.42
8332.00,1.42
8330.00,1.42
8328.00,1.42
8326.00,1.42
8324.00,1.42
8322.00,1.42
8320.00,1.42
8318.00,1.42
8316.00,1.42
8314.00,1.42
8312.00,1.42
8310.00,1.42
8308.00,1.42
8306.00,1.42
8304.00,1.42
8302.00,1.42
8300.00,1.42
8298.00,1.42
8296.00,1.42
8294.00,1.42
8292.00,1.42
8290.00,1.42
8288.00,1.43
8286.00,1.43
8284.00,1.43
8282.00,1.43
8280.00,1.43
8278.00,1.43
8276.00,1.43
8274.00,1.43
8272.00,1.44
8270.00,1.44
8268.00,1.44
8266.00,1.44
8264.00,1.44
8262.00,1.44
8260.00,1.44
8258.00,1.44
8256.00,1.44
8254.00,1.44
8252.00,1.44
8250.00,1.44
8248.00,1.44
8246.00,1.44
8244.00,1.44
8242.00,1.44
8240.00,1.44
8238.00,1.44
8236.00,1.44
8234.00,1.44
8232.00,1.44
8230.00,1.44
8228.00,1.44
8226.00,1.44
8224.00,1.44
8222.00,1.44
8220.00,1.44
8218.00,1.45
8216.00,1.45
8214.00,1.45
8212.00,1.45
8210.00,1.45
8208.00,1.45
8206.00,1.45
8204.00,1.45
8202.00,1.45
8200.00,1.45
8198.00,1.45
8196.00,1.45
8194.00,1.45
8192.00,1.45
8190.00,1.45
8188.00,1.45
8186.00,1.45
8184.00,1.45
8182.00,1.45
8180.00,1.45
8178.00,1.45
8176.00,1.45
8174.00,1.45
8172.00,1.45
8170.00,1.45
8168.00,1.45
8166.00,1.45
8164.00,1.45
8162.00,1.45
8160.00,1.45
8158.00,1.45
8156.00,1.45
8154.00,1.45
8152.00,1.45
8150.00,1.45
8148.00,1.45
8146.00,1.45
8144.00,1.45
8142.00,1.45
8140.00,1.45
8138.00,1.45
8136.00,1.45
8134.00,1.45
8132.00,1.45
8130.00,1.45
8128.00,1.45
8126.00,1.45
8124.00,1.45
8122.00,1.45
8120.00,1.45
8118.00,1.45
8116.00,1.45
8114.00,1.45
8112.00,1.45
8110.00,1.45
8108.00,1.45
8106.00,1.45
8104.00,1.45
8102.00,1.45
8100.00,1.46
8098.00,1.46
8096.00,1.46
8094.00,1.46
8092.00,1.46
8090.00,1.46
8088.00,1.46
8086.00,1.46
8084.00,1.46
8082.00,1.46
8080.00,1.46
8078.00,1.46
8076.00,1.46
8074.00,1.46
8072.00,1.46
8070.00,1.46
8068.00,1.46
8066.00,1.46
8064.00,1.46
8062.00,1.46
8060.00,1.46
8058.00,1.46
8056.00,1.46
8054.00,1.46
8052.00,1.46
8050.00,1.46
8048.00,1.46
8046.00,1.46
8044.00,1.46
8042.00,1.46
8040.00,1.46
8038.00,1.46
8036.00,1.46
8034.00,1.46
8032.00,1.46
8030.00,1.46
8028.00,1.46
8026.00,1.46
8024.00,1.46
8022.00,1.46
8020.00,1.46
8018.00,1.46
8016.00,1.46
8014.00,1.46
8012.00,1.46
8010.00,1.46
8008.00,1.46
8006.00,1.46
8004.00,1.46
8002.00,1.46
8000.00,1.46
7998.00,1.46
7996.00,1.46
7994.00,1.46
7992.00,1.46
7990.00,1.46
7988.00,1.46
7986.00,1.46
7984.00,1.46
7982.00,1.46
7980.00,1.46
7978.00,1.46
7976.00,1.46
7974.00,1.46
7972.00,1.46
7970.00,1.46
7968.00,1.46
7966.00,1.46
7964.00,1.46
7962.00,1.46
7960.00,1.46
7958.00,1.46
7956.00,1.46
7954.00,1.46
7952.00,1.46
7950.00,1.46
7948.00,1.46
7946.00,1.47
7944.00,1.47
7942.00,1.47
7940.00,1.47
7938.00,1.47
7936.00,1.47
7934.00,1.47
7932.00,1.47
7930.00,1.47
7928.00,1.47
7926.00,1.47
7924.00,1.47
7922.00,1.47
7920.00,1.47
7918.00,1.47
7916.00,1.47
7914.00,1.47
7912.00,1.47
7910.00,1.47
7908.00,1.47
7906.00,1.47
7904.00,1.47
7902.00,1.47
7900.00,1.47
7898.00,1.47
7896.00,1.47
7894.00,1.47
7892.00,1.47
7890.00,1.47
7888.00,1.47
7886.00,1.47
7884.00,1.47
7882.00,1.47
7880.00,1.47
7878.00,1.47
7876.00,1.47
7874.00,1.47
7872.00,1.47
7870.00,1.47
7868.00,1.47
7866.00,1.47
7864.00,1.47
7862.00,1.47
7860.00,1.47
7858.00,1.47
7856.00,1.47
7854.00,1.47
7852.00,1.47
7850.00,1.47
7848.00,1.47
7846.00,1.47
7844.00,1.47
7842.00,1.47
7840.00,1.47
7838.00,1.47
7836.00,1.47
7834.00,1.47
7832.00,1.47
7830.00,1.47
7828.00,1.47
7826.00,1.47
7824.00,1.47
7822.00,1.47
7820.00,1.47
7818.00,1.47
7816.00,1.47
7814.00,1.47
7812.00,1.47
7810.00,1.47
7808.00,1.48
7806.00,1.48
7804.00,1.48
7802.00,1.48
7800.00,1.48
7798.00,1.48
7796.00,1.48
7794.00,1.48
7792.00,1.48
7790.00,1.48
7788.00,1.48
7786.00,1.48
7784.00,1.48
7782.00,1.48
7780.00,1.48
7778.00,1.48
7776.00,1.48
7774.00,1.48
7772.00,1.48
7770.00,1.48
7768.00,1.48
7766.00,1.48
7764.00,1.48
7762.00,1.48
7760.00,1.48
7758.00,1.48
7756.00,1.48
7754.00,1.48
7752.00,1.48
7750.00,1.48
7748.00,1.48
7746.00,1.48
7744.00,1.48
7742.00,1.48
7740.00,1.48
7738.00,1.48
7736.00,1.48
7734.00,1.48
7732.00,1.48
7730.00,1.48
7728.00,1.48
7726.00,1.48
7724.00,1.48
7722.00,1.48
7720.00,1.48
7718.00,1.48
7716.00,1.48
7714.00,1.48
7712.00,1.48
7710.00,1.48
7708.00,1.48
7706.00,1.48
7704.00,1.48
7702.00,1.48
7700.00,1.48
7698.00,1.48
7696.00,1.48
7694.00,1.48
7692.00,1.48
7690.00,1.48
7688.00,1.48
7686.00,1.48
7684.00,1.48
7682.00,1.48
7680.00,1.48
7678.00,1.48
7676.00,1.48
7674.00,1.48
7672.00,1.48
7670.00,1.48
7668.00,1.48
7666.00,1.48
7664.00,1.48
7662.00,1.48
7660.00,1.48
7658.00,1.48
7656.00,1.48
7654.00,1.48
7652.00,1.48
7650.00,1.48
7648.00,1.48
7646.00,1.48
7644.00,1.48
7642.00,1.48
7640.00,1.48
7638.00,1.48
7636.00,1.48
7634.00,1.48
7632.00,1.48
7630.00,1.48
7628.00,1.48
7626.00,1.48
7624.00,1.48
7622.00,1.48
7620.00,1.48
7618.00,1.48
7616.00,1.48
7614.00,1.48
7612.00,1.48
7610.00,1.48
7608.00,1.48
7606.00,1.48
7604.00,1.48
7602.00,1.48
7600.00,1.48
7598.00,1.48
7596.00,1.48
7594.00,1.48
7592.00,1.48
7590.00,1.48
7588.00,1.48
7586.00,1.48
7584.00,1.48
7582.00,1.48
7580.00,1.48
7578.00,1.48
7576.00,1.48
7574.00,1.48
7572.00,1.48
7570.00,1.48
7568.00,1.48
7566.00,1.48
7564.00,1.48
7562.00,1.48
7560.00,1.48
7558.00,1.48
7556.00,1.48
7554.00,1.48
7552.00,1.48
7550.00,1.48
7548.00,1.48
7546.00,1.48
7544.00,1.48
7542.00,1.48
7540.00,1.48
7538.00,1.48
7536.00,1.48
7534.00,1.47
7532.00,1.47
7530.00,1.47
7528.00,1.47
7526.00,1.47
7524.00,1.47
7522.00,1.47
7520.00,1.47
7518.00,1.47
7516.00,1.47
7514.00,1.47
7512.00,1.47
7510.00,1.47
7508.00,1.47
7506.00,1.47
7504.00,1.47
7502.00,1.47
7500.00,1.47
7498.00,1.47
7496.00,1.47
7494.00,1.47
7492.00,1.47
7490.00,1.47
7488.00,1.47
7486.00,1.47
7484.00,1.47
7482.00,1.47
7480.00,1.47
7478.00,1.47
7476.00,1.47
7474.00,1.47
7472.00,1.47
7470.00,1.46
7468.00,1.46
7466.00,1.46
7464.00,1.46
7462.00,1.46
7460.00,1.46
7458.00,1.46
7456.00,1.46
7454.00,1.46
7452.00,1.46
7450.00,1.46
7448.00,1.46
7446.00,1.46
7444.00,1.46
7442.00,1.46
7440.00,1.46
7438.00,1.46
7436.00,1.46
7434.00,1.46
7432.00,1.46
7430.00,1.46
7428.00,1.46
7426.00,1.46
7424.00,1.46
7422.00,1.45
7420.00,1.45
7418.00,1.45
7416.00,1.45
7414.00,1.45
7412.00,1.45
7410.00,1.45
7408.00,1.45
7406.00,1.45
7404.00,1.45
7402.00,1.45
7400.00,1.45
7398.00,1.45
7396.00,1.45
7394.00,1.45
7392.00,1.45
7390.00,1.45
7388.00,1.45
7386.00,1.45
7384.00,1.45
7382.00,1.45
7380.00,1.45
7378.00,1.45
7376.00,1.45
7374.00,1.45
7372.00,1.45
7370.00,1.45
7368.00,1.45
7366.00,1.45
7364.00,1.45
7362.00,1.45
7360.00,1.45
7358.00,1.45
7356.00,1.45
7354.00,1.45
7352.00,1.45
7350.00,1.45
7348.00,1.45
7346.00,1.45
7344.00,1.45
7342.00,1.45
7340.00,1.45
7338.00,1.45
7336.00,1.45
7334.00,1.45
7332.00,1.45
7330.00,1.45
7328.00,1.45
7326.00,1.45
7324.00,1.45
7322.00,1.45
7320.00,1.45
7318.00,1.45
7316.00,1.45
7314.00,1.45
7312.00,1.45
7310.00,1.45
7308.00,1.45
7306.00,1.45
7304.00,1.45
7302.00,1.45
7300.00,1.45
7298.00,1.45
7296.00,1.45
7294.00,1.45
7292.00,1.45
7290.00,1.44
7288.00,1.44
7286.00,1.44
7284.00,1.44
7282.00,1.44
7280.00,1.43
7278.00,1.43
7276.00,1.43
7274.00,1.43
7272.00,1.43
7270.00,1.43
7268.00,1.42
7266.00,1.42
7264.00,1.42
7262.00,1.42
7260.00,1.42
7258.00,1.42
7256.00,1.41
7254.00,1.41
7252.00,1.41
7250.00,1.41
7248.00,1.41
7246.00,1.40
7244.00,1.40
7242.00,1.40
7240.00,1.40
7238.00,1.40
7236.00,1.39
7234.00,1.39
7232.00,1.39
7230.00,1.39
7228.00,1.38
7226.00,1.38
7224.00,1.38
7222.00,1.37
7220.00,1.37
7218.00,1.37
7216.00,1.37
7214.00,1.36
7212.00,1.36
7210.00,1.36
7208.00,1.35
7206.00,1.35
7204.00,1.35
7202.00,1.35
7200.00,1.34
7198.00,1.34
7196.00,1.34
7194.00,1.33
7192.00,1.33
7190.00,1.33
7188.00,1.32
7186.00,1.32
7184.00,1.32
7182.00,1.31
7180.00,1.31
7178.00,1.31
7176.00,1.30
7174.00,1.30
7172.00,1.30
7170.00,1.29
7168.00,1.29
7166.00,1.29
7164.00,1.28
7162.00,1.28
7160.00,1.28
7158.00,1.27
7156.00,1.27
7154.00,1.27
7152.00,1.27
7150.00,1.26
7148.00,1.26
7146.00,1.26
7144.00,1.26
7142.00,1.25
7140.00,1.25
7138.00,1.25
7136.00,1.24
7134.00,1.24
7132.00,1.24
7130.00,1.23
7128.00,1.23
7126.00,1.23
7124.00,1.22
7122.00,1.22
7120.00,1.22
7118.00,1.21
7116.00,1.21
7114.00,1.21
7112.00,1.20
7110.00,1.20
7108.00,1.19
7106.00,1.19
7104.00,1.19
7102.00,1.18
7100.00,1.18
7098.00,1.18
7096.00,1.17
7094.00,1.17
7092.00,1.17
7090.00,1.16
7088.00,1.16
7086.00,1.16
7084.00,1.16
7082.00,1.16
7080.00,1.15
7078.00,1.15
7076.00,1.15
7074.00,1.15
7072.00,1.15
7070.00,1.14
7068.00,1.14
7066.00,1.14
7064.00,1.14
7062.00,1.14
7060.00,1.14
7058.00,1.13
7056.00,1.13
7054.00,1.13
7052.00,1.13
7050.00,1.13
7048.00,1.12
7046.00,1.12
7044.00,1.12
7042.00,1.12
7040.00,1.11
7038.00,1.11
7036.00,1.11
7034.00,1.11
7032.00,1.10
7030.00,1.10
7028.00,1.10
7026.00,1.10
7024.00,1.10
7022.00,1.09
7020.00,1.09
7018.00,1.09
7016.00,1.09
7014.00,1.09
7012.00,1.09
7010.00,1.08
7008.00,1.08
7006.00,1.08
7004.00,1.08
7002.00,1.08
7000.00,1.08
6998.00,1.07
6996.00,1.07
6994.00,1.07
6992.00,1.07
6990.00,1.07
6988.00,1.07
6986.00,1.07
6984.00,1.07
6982.00,1.07
6980.00,1.06
6978.00,1.06
6976.00,1.06
6974.00,1.06
6972.00,1.06
6970.00,1.06
6968.00,1.06
6966.00,1.06
6964.00,1.06
6962.00,1.06
6960.00,1.06
6958.00,1.05
6956.00,1.05
6954.00,1.05
6952.00,1.05
6950.00,1.05
6948.00,1.05
6946.00,1.05
6944.00,1.05
6942.00,1.05
6940.00,1.05
6938.00,1.05
6936.00,1.05
6934.00,1.05
6932.00,1.04
6930.00,1.04
6928.00,1.04
6926.00,1.04
6924.00,1.04
6922.00,1.04
6920.00,1.04
6918.00,1.04
6916.00,1.04
6914.00,1.04
6912.00,1.04
6910.00,1.04
6908.00,1.04
6906.00,1.04
6904.00,1.04
6902.00,1.04
6900.00,1.04
6898.00,1.04
6896.00,1.04
6894.00,1.04
6892.00,1.04
6890.00,1.04
6888.00,1.04
6886.00,1.04
6884.00,1.04
6882.00,1.04
6880.00,1.04
6878.00,1.04
6876.00,1.04
6874.00,1.04
6872.00,1.04
6870.00,1.04
6868.00,1.04
6866.00,1.04
6864.00,1.04
6862.00,1.04
6860.00,1.04
6858.00,1.04
6856.00,1.04
6854.00,1.04
6852.00,1.04
6850.00,1.04
6848.00,1.04
6846.00,1.04
6844.00,1.04
6842.00,1.04
6840.00,1.04
6838.00,1.04
6836.00,1.04
6834.00,1.04
6832.00,1.04
6830.00,1.04
6828.00,1.04
6826.00,1.04
6824.00,1.04
6822.00,1.04
6820.00,1.04
6818.00,1.04
6816.00,1.04
6814.00,1.04
6812.00,1.04
6810.00,1.04
6808.00,1.04
6806.00,1.04
6804.00,1.05
6802.00,1.05
6800.00,1.05
6798.00,1.05
6796.00,1.05
6794.00,1.05
6792.00,1.05
6790.00,1.05
6788.00,1.05
6786.00,1.05
6784.00,1.06
6782.00,1.06
6780.00,1.06
6778.00,1.06
6776.00,1.06
6774.00,1.06
6772.00,1.06
6770.00,1.07
6768.00,1.07
6766.00,1.07
6764.00,1.07
6762.00,1.07
6760.00,1.07
6758.00,1.08
6756.00,1.08
6754.00,1.08
6752.00,1.08
6750.00,1.08
6748.00,1.08
6746.00,1.08
6744.00,1.09
6742.00,1.09
6740.00,1.09
6738.00,1.09
6736.00,1.09
6734.00,1.09
6732.00,1.09
6730.00,1.10
6728.00,1.10
6726.00,1.10
6724.00,1.10
6722.00,1.10
6720.00,1.11
6718.00,1.11
6716.00,1.11
6714.00,1.11
6712.00,1.11
6710.00,1.12
6708.00,1.12
6706.00,1.12
6704.00,1.12
6702.00,1.12
6700.00,1.12
6698.00,1.13
6696.00,1.13
6694.00,1.13
6692.00,1.13
6690.00,1.13
6688.00,1.13
6686.00,1.13
6684.00,1.14
6682.00,1.14
6680.00,1.14
6678.00,1.14
6676.00,1.14
6674.00,1.14
6672.00,1.14
6670.00,1.15
6668.00,1.15
6666.00,1.15
6664.00,1.15
6662.00,1.15
6660.00,1.15
6658.00,1.16
6656.00,1.16
6654.00,1.16
6652.00,1.16
6650.00,1.16
6648.00,1.16
6646.00,1.17
6644.00,1.17
6642.00,1.17
6640.00,1.17
6638.00,1.17
6636.00,1.18
6634.00,1.18
6632.00,1.18
6630.00,1.18
6628.00,1.18
6626.00,1.18
6624.00,1.19
6622.00,1.19
6620.00,1.19
6618.00,1.19
6616.00,1.19
6614.00,1.20
6612.00,1.20
6610.00,1.20
6608.00,1.20
6606.00,1.20
6604.00,1.20
6602.00,1.20
6600.00,1.21
6598.00,1.21
6596.00,1.21
6594.00,1.21
6592.00,1.21
6590.00,1.21
6588.00,1.21
6586.00,1.21
6584.00,1.21
6582.00,1.22
6580.00,1.22
6578.00,1.22
6576.00,1.22
6574.00,1.22
6572.00,1.22
6570.00,1.22
6568.00,1.22
6566.00,1.22
6564.00,1.23
6562.00,1.23
6560.00,1.23
6558.00,1.23
6556.00,1.23
6554.00,1.23
6552.00,1.23
6550.00,1.24
6548.00,1.24
6546.00,1.24
6544.00,1.24
6542.00,1.24
6540.00,1.24
6538.00,1.24
6536.00,1.25
6534.00,1.25
6532.00,1.25
6530.00,1.25
6528.00,1.25
6526.00,1.25
6524.00,1.25
6522.00,1.26
6520.00,1.26
6518.00,1.26
6516.00,1.26
6514.00,1.26
6512.00,1.26
6510.00,1.26
6508.00,1.26
6506.00,1.27
6504.00,1.27
6502.00,1.27
6500.00,1.27
6498.00,1.27
6496.00,1.27
6494.00,1.27
6492.00,1.27
6490.00,1.27
6488.00,1.27
6486.00,1.27
6484.00,1.27
6482.00,1.28
6480.00,1.28
6478.00,1.28
6476.00,1.28
6474.00,1.28
6472.00,1.28
6470.00,1.28
6468.00,1.28
6466.00,1.28
6464.00,1.28
6462.00,1.28
6460.00,1.28
6458.00,1.29
6456.00,1.29
6454.00,1.29
6452.00,1.29
6450.00,1.29
6448.00,1.29
6446.00,1.29
6444.00,1.29
6442.00,1.29
6440.00,1.29
6438.00,1.29
6436.00,1.29
6434.00,1.29
6432.00,1.30
6430.00,1.30
6428.00,1.30
6426.00,1.30
6424.00,1.30
6422.00,1.30
6420.00,1.30
6418.00,1.30
6416.00,1.30
6414.00,1.30
6412.00,1.31
6410.00,1.31
6408.00,1.31
6406.00,1.31
6404.00,1.31
6402.00,1.31
6400.00,1.31
6398.00,1.31
6396.00,1.31
6394.00,1.32
6392.00,1.32
6390.00,1.32
6388.00,1.32
6386.00,1.32
6384.00,1.32
6382.00,1.32
6380.00,1.32
6378.00,1.32
6376.00,1.32
6374.00,1.32
6372.00,1.32
6370.00,1.32
6368.00,1.32
6366.00,1.32
6364.00,1.32
6362.00,1.32
6360.00,1.33
6358.00,1.33
6356.00,1.33
6354.00,1.33
6352.00,1.33
6350.00,1.33
6348.00,1.33
6346.00,1.33
6344.00,1.33
6342.00,1.33
6340.00,1.33
6338.00,1.34
6336.00,1.34
6334.00,1.34
6332.00,1.34
6330.00,1.34
6328.00,1.34
6326.00,1.34
6324.00,1.34
6322.00,1.34
6320.00,1.34
6318.00,1.34
6316.00,1.35
6314.00,1.35
6312.00,1.35
6310.00,1.35
6308.00,1.35
6306.00,1.35
6304.00,1.35
6302.00,1.36
6300.00,1.36
6298.00,1.36
6296.00,1.36
6294.00,1.36
6292.00,1.36
6290.00,1.36
6288.00,1.37
6286.00,1.37
6284.00,1.37
6282.00,1.37
6280.00,1.37
6278.00,1.37
6276.00,1.37
6274.00,1.37
6272.00,1.37
6270.00,1.37
6268.00,1.37
6266.00,1.37
6264.00,1.38
6262.00,1.38
6260.00,1.38
6258.00,1.38
6256.00,1.38
6254.00,1.38
6252.00,1.38
6250.00,1.38
6248.00,1.38
6246.00,1.38
6244.00,1.38
6242.00,1.38
6240.00,1.39
6238.00,1.39
6236.00,1.39
6234.00,1.39
6232.00,1.39
6230.00,1.39
6228.00,1.39
6226.00,1.39
6224.00,1.39
6222.00,1.40
6220.00,1.40
6218.00,1.40
6216.00,1.40
6214.00,1.40
6212.00,1.40
6210.00,1.40
6208.00,1.40
6206.00,1.40
6204.00,1.41
6202.00,1.41
6200.00,1.41
6198.00,1.41
6196.00,1.41
6194.00,1.41
6192.00,1.41
6190.00,1.41
6188.00,1.41
6186.00,1.41
6184.00,1.41
6182.00,1.42
6180.00,1.42
6178.00,1.42
6176.00,1.42
6174.00,1.42
6172.00,1.42
6170.00,1.42
6168.00,1.42
6166.00,1.42
6164.00,1.42
6162.00,1.42
6160.00,1.43
6158.00,1.43
6156.00,1.43
6154.00,1.43
6152.00,1.43
6150.00,1.43
6148.00,1.43
6146.00,1.43
6144.00,1.43
6142.00,1.44
6140.00,1.44
6138.00,1.44
6136.00,1.44
6134.00,1.44
6132.00,1.44
6130.00,1.44
6128.00,1.44
6126.00,1.44
6124.00,1.45
6122.00,1.45
6120.00,1.45
6118.00,1.45
6116.00,1.45
6114.00,1.45
6112.00,1.45
6110.00,1.45
6108.00,1.45
6106.00,1.46
6104.00,1.46
6102.00,1.46
6100.00,1.46
6098.00,1.46
6096.00,1.46
6094.00,1.46
6092.00,1.46
6090.00,1.46
6088.00,1.46
6086.00,1.46
6084.00,1.47
6082.00,1.47
6080.00,1.47
6078.00,1.47
6076.00,1.47
6074.00,1.47
6072.00,1.47
6070.00,1.47
6068.00,1.47
6066.00,1.47
6064.00,1.47
6062.00,1.47
6060.00,1.48
6058.00,1.48
6056.00,1.48
6054.00,1.48
6052.00,1.48
6050.00,1.48
6048.00,1.48
6046.00,1.48
6044.00,1.48
6042.00,1.48
6040.00,1.48
6038.00,1.48
6036.00,1.48
6034.00,1.48
6032.00,1.48
6030.00,1.48
6028.00,1.48
6026.00,1.48
6024.00,1.49
6022.00,1.49
6020.00,1.49
6018.00,1.49
6016.00,1.49
6014.00,1.49
6012.00,1.49
6010.00,1.49
6008.00,1.48
6006.00,1.48
6004.00,1.48
6002.00,1.48
6000.00,1.48
5998.00,1.48
5996.00,1.48
5994.00,1.48
5992.00,1.48
5990.00,1.48
5988.00,1.47
5986.00,1.47
5984.00,1.47
5982.00,1.47
5980.00,1.47
5978.00,1.46
5976.00,1.46
5974.00,1.46
5972.00,1.45
5970.00,1.45
5968.00,1.45
5966.00,1.44
5964.00,1.44
5962.00,1.44
5960.00,1.43
5958.00,1.43
5956.00,1.43
5954.00,1.42
5952.00,1.42
5950.00,1.42
5948.00,1.41
5946.00,1.41
5944.00,1.41
5942.00,1.41
5940.00,1.40
5938.00,1.40
5936.00,1.40
5934.00,1.40
5932.00,1.40
5930.00,1.40
5928.00,1.40
5926.00,1.39
5924.00,1.39
5922.00,1.39
5920.00,1.39
5918.00,1.39
5916.00,1.39
5914.00,1.39
5912.00,1.39
5910.00,1.39
5908.00,1.39
5906.00,1.39
5904.00,1.39
5902.00,1.39
5900.00,1.39
5898.00,1.39
5896.00,1.39
5894.00,1.39
5892.00,1.39
5890.00,1.39
5888.00,1.39
5886.00,1.39
5884.00,1.39
5882.00,1.39
5880.00,1.40
5878.00,1.40
5876.00,1.40
5874.00,1.40
5872.00,1.40
5870.00,1.40
5868.00,1.40
5866.00,1.41
5864.00,1.41
5862.00,1.41
5860.00,1.41
5858.00,1.41
5856.00,1.41
5854.00,1.41
5852.00,1.41
5850.00,1.41
5848.00,1.41
5846.00,1.42
5844.00,1.42
5842.00,1.42
5840.00,1.42
5838.00,1.42
5836.00,1.42
5834.00,1.42
5832.00,1.42
5830.00,1.42
5828.00,1.42
5826.00,1.42
5824.00,1.41
5822.00,1.41
5820.00,1.41
5818.00,1.41
5816.00,1.41
5814.00,1.41
5812.00,1.41
5810.00,1.41
5808.00,1.41
5806.00,1.41
5804.00,1.41
5802.00,1.41
5800.00,1.41
5798.00,1.41
5796.00,1.40
5794.00,1.40
5792.00,1.40
5790.00,1.40
5788.00,1.40
5786.00,1.40
5784.00,1.40
5782.00,1.40
5780.00,1.40
5778.00,1.40
5776.00,1.40
5774.00,1.40
5772.00,1.40
5770.00,1.40
5768.00,1.40
5766.00,1.40
5764.00,1.40
5762.00,1.40
5760.00,1.41
5758.00,1.41
5756.00,1.41
5754.00,1.41
5752.00,1.41
5750.00,1.41
5748.00,1.41
5746.00,1.41
5744.00,1.41
5742.00,1.42
5740.00,1.42
5738.00,1.42
5736.00,1.42
5734.00,1.42
5732.00,1.42
5730.00,1.42
5728.00,1.42
5726.00,1.42
5724.00,1.42
5722.00,1.42
5720.00,1.42
5718.00,1.42
5716.00,1.42
5714.00,1.42
5712.00,1.42
5710.00,1.42
5708.00,1.42
5706.00,1.42
5704.00,1.42
5702.00,1.41
5700.00,1.41
5698.00,1.41
5696.00,1.41
5694.00,1.41
5692.00,1.41
5690.00,1.41
5688.00,1.41
5686.00,1.41
5684.00,1.41
5682.00,1.41
5680.00,1.41
5678.00,1.40
5676.00,1.40
5674.00,1.40
5672.00,1.40
5670.00,1.41
5668.00,1.41
5666.00,1.41
5664.00,1.41
5662.00,1.41
5660.00,1.41
5658.00,1.41
5656.00,1.41
5654.00,1.41
5652.00,1.41
5650.00,1.41
5648.00,1.42
5646.00,1.42
5644.00,1.42
5642.00,1.42
5640.00,1.42
5638.00,1.42
5636.00,1.42
5634.00,1.42
5632.00,1.42
5630.00,1.42
5628.00,1.42
5626.00,1.42
5624.00,1.43
5622.00,1.43
5620.00,1.43
5618.00,1.43
5616.00,1.43
5614.00,1.43
5612.00,1.43
5610.00,1.43
5608.00,1.43
5606.00,1.43
5604.00,1.43
5602.00,1.43
5600.00,1.44
5598.00,1.44
5596.00,1.44
5594.00,1.44
5592.00,1.44
5590.00,1.44
5588.00,1.44
5586.00,1.44
5584.00,1.44
5582.00,1.45
5580.00,1.45
5578.00,1.45
5576.00,1.45
5574.00,1.45
5572.00,1.45
5570.00,1.45
5568.00,1.45
5566.00,1.45
5564.00,1.45
5562.00,1.46
5560.00,1.46
5558.00,1.46
5556.00,1.46
5554.00,1.46
5552.00,1.46
5550.00,1.46
5548.00,1.46
5546.00,1.46
5544.00,1.46
5542.00,1.46
5540.00,1.46
5538.00,1.46
5536.00,1.46
5534.00,1.46
5532.00,1.46
5530.00,1.46
5528.00,1.47
5526.00,1.47
5524.00,1.47
5522.00,1.47
5520.00,1.47
5518.00,1.47
5516.00,1.47
5514.00,1.47
5512.00,1.47
5510.00,1.47
5508.00,1.47
5506.00,1.47
5504.00,1.47
5502.00,1.47
5500.00,1.47
5498.00,1.47
5496.00,1.47
5494.00,1.47
5492.00,1.47
5490.00,1.48
5488.00,1.48
5486.00,1.48
5484.00,1.48
5482.00,1.48
5480.00,1.48
5478.00,1.48
5476.00,1.48
5474.00,1.48
5472.00,1.48
5470.00,1.48
5468.00,1.48
5466.00,1.48
5464.00,1.48
5462.00,1.49
5460.00,1.49
5458.00,1.49
5456.00,1.49
5454.00,1.49
5452.00,1.49
5450.00,1.49
5448.00,1.49
5446.00,1.49
5444.00,1.49
5442.00,1.49
5440.00,1.49
5438.00,1.49
5436.00,1.49
5434.00,1.49
5432.00,1.49
5430.00,1.49
5428.00,1.49
5426.00,1.49
5424.00,1.49
5422.00,1.49
5420.00,1.49
5418.00,1.49
5416.00,1.49
5414.00,1.49
5412.00,1.49
5410.00,1.49
5408.00,1.49
5406.00,1.49
5404.00,1.49
5402.00,1.48
5400.00,1.48
5398.00,1.48
5396.00,1.48
5394.00,1.48
5392.00,1.48
5390.00,1.48
5388.00,1.47
5386.00,1.47
5384.00,1.47
5382.00,1.47
5380.00,1.46
5378.00,1.46
5376.00,1.46
5374.00,1.45
5372.00,1.45
5370.00,1.45
5368.00,1.44
5366.00,1.44
5364.00,1.43
5362.00,1.42
5360.00,1.42
5358.00,1.41
5356.00,1.40
5354.00,1.40
5352.00,1.39
5350.00,1.38
5348.00,1.37
5346.00,1.36
5344.00,1.35
5342.00,1.34
5340.00,1.33
5338.00,1.32
5336.00,1.30
5334.00,1.29
5332.00,1.28
5330.00,1.26
5328.00,1.25
5326.00,1.24
5324.00,1.22
5322.00,1.21
5320.00,1.19
5318.00,1.17
5316.00,1.16
5314.00,1.14
5312.00,1.12
5310.00,1.11
5308.00,1.09
5306.00,1.07
5304.00,1.06
5302.00,1.04
5300.00,1.03
5298.00,1.01
5296.00,0.99
5294.00,0.98
5292.00,0.96
5290.00,0.95
5288.00,0.94
5286.00,0.92
5284.00,0.91
5282.00,0.90
5280.00,0.89
5278.00,0.87
5276.00,0.86
5274.00,0.85
5272.00,0.84
5270.00,0.83
5268.00,0.82
5266.00,0.81
5264.00,0.81
5262.00,0.80
5260.00,0.79
5258.00,0.78
5256.00,0.78
5254.00,0.77
5252.00,0.76
5250.00,0.76
5248.00,0.75
5246.00,0.75
5244.00,0.74
5242.00,0.73
5240.00,0.73
5238.00,0.73
5236.00,0.72
5234.00,0.72
5232.00,0.71
5230.00,0.71
5228.00,0.70
5226.00,0.70
5224.00,0.70
5222.00,0.69
5220.00,0.69
5218.00,0.69
5216.00,0.68
5214.00,0.68
5212.00,0.68
5210.00,0.68
5208.00,0.67
5206.00,0.67
5204.00,0.67
5202.00,0.67
5200.00,0.67
5198.00,0.66
5196.00,0.66
5194.00,0.66
5192.00,0.66
5190.00,0.66
5188.00,0.66
5186.00,0.66
5184.00,0.66
5182.00,0.66
5180.00,0.66
5178.00,0.66
5176.00,0.66
5174.00,0.66
5172.00,0.66
5170.00,0.66
5168.00,0.66
5166.00,0.66
5164.00,0.66
5162.00,0.66
5160.00,0.66
5158.00,0.66
5156.00,0.66
5154.00,0.67
5152.00,0.67
5150.00,0.67
5148.00,0.67
5146.00,0.67
5144.00,0.67
5142.00,0.68
5140.00,0.68
5138.00,0.68
5136.00,0.68
5134.00,0.69
5132.00,0.69
5130.00,0.69
5128.00,0.69
5126.00,0.70
5124.00,0.70
5122.00,0.70
5120.00,0.70
5118.00,0.71
5116.00,0.71
5114.00,0.71
5112.00,0.72
5110.00,0.72
5108.00,0.72
5106.00,0.72
5104.00,0.73
5102.00,0.73
5100.00,0.73
5098.00,0.74
5096.00,0.74
5094.00,0.74
5092.00,0.75
5090.00,0.75
5088.00,0.75
5086.00,0.76
5084.00,0.76
5082.00,0.76
5080.00,0.77
5078.00,0.77
5076.00,0.77
5074.00,0.78
5072.00,0.78
5070.00,0.79
5068.00,0.79
5066.00,0.79
5064.00,0.80
5062.00,0.80
5060.00,0.81
5058.00,0.81
5056.00,0.81
5054.00,0.82
5052.00,0.82
5050.00,0.83
5048.00,0.83
5046.00,0.84
5044.00,0.84
5042.00,0.85
5040.00,0.85
5038.00,0.85
5036.00,0.86
5034.00,0.86
5032.00,0.87
5030.00,0.87
5028.00,0.88
5026.00,0.88
5024.00,0.88
5022.00,0.89
5020.00,0.89
5018.00,0.90
5016.00,0.90
5014.00,0.90
5012.00,0.91
5010.00,0.91
5008.00,0.92
5006.00,0.92
5004.00,0.92
5002.00,0.93
5000.00,0.93
4998.00,0.94
4996.00,0.94
4994.00,0.94
4992.00,0.95
4990.00,0.95
4988.00,0.96
4986.00,0.96
4984.00,0.96
4982.00,0.97
4980.00,0.97
4978.00,0.98
4976.00,0.98
4974.00,0.98
4972.00,0.99
4970.00,0.99
4968.00,0.99
4966.00,1.00
4964.00,1.00
4962.00,1.00
4960.00,1.01
4958.00,1.01
4956.00,1.01
4954.00,1.01
4952.00,1.02
4950.00,1.02
4948.00,1.02
4946.00,1.03
4944.00,1.03
4942.00,1.03
4940.00,1.04
4938.00,1.04
4936.00,1.04
4934.00,1.05
4932.00,1.05
4930.00,1.05
4928.00,1.05
4926.00,1.06
4924.00,1.06
4922.00,1.06
4920.00,1.06
4918.00,1.07
4916.00,1.07
4914.00,1.07
4912.00,1.07
4910.00,1.08
4908.00,1.08
4906.00,1.08
4904.00,1.08
4902.00,1.08
4900.00,1.09
4898.00,1.09
4896.00,1.09
4894.00,1.09
4892.00,1.09
4890.00,1.10
4888.00,1.10
4886.00,1.10
4884.00,1.10
4882.00,1.10
4880.00,1.11
4878.00,1.11
4876.00,1.11
4874.00,1.11
4872.00,1.11
4870.00,1.12
4868.00,1.12
4866.00,1.12
4864.00,1.12
4862.00,1.13
4860.00,1.13
4858.00,1.13
4856.00,1.13
4854.00,1.13
4852.00,1.14
4850.00,1.14
4848.00,1.14
4846.00,1.14
4844.00,1.15
4842.00,1.15
4840.00,1.15
4838.00,1.15
4836.00,1.16
4834.00,1.16
4832.00,1.16
4830.00,1.16
4828.00,1.17
4826.00,1.17
4824.00,1.17
4822.00,1.17
4820.00,1.18
4818.00,1.18
4816.00,1.18
4814.00,1.19
4812.00,1.19
4810.00,1.19
4808.00,1.20
4806.00,1.20
4804.00,1.20
4802.00,1.21
4800.00,1.21
4798.00,1.21
4796.00,1.22
4794.00,1.22
4792.00,1.22
4790.00,1.23
4788.00,1.23
4786.00,1.23
4784.00,1.24
4782.00,1.24
4780.00,1.24
4778.00,1.25
4776.00,1.25
4774.00,1.25
4772.00,1.26
4770.00,1.26
4768.00,1.26
4766.00,1.27
4764.00,1.27
4762.00,1.28
4760.00,1.28
4758.00,1.28
4756.00,1.29
4754.00,1.29
4752.00,1.29
4750.00,1.30
4748.00,1.30
4746.00,1.30
4744.00,1.31
4742.00,1.31
4740.00,1.31
4738.00,1.32
4736.00,1.32
4734.00,1.33
4732.00,1.33
4730.00,1.33
4728.00,1.34
4726.00,1.34
4724.00,1.34
4722.00,1.35
4720.00,1.35
4718.00,1.35
4716.00,1.36
4714.00,1.36
4712.00,1.36
4710.00,1.37
4708.00,1.37
4706.00,1.37
4704.00,1.38
4702.00,1.38
4700.00,1.38
4698.00,1.39
4696.00,1.39
4694.00,1.39
4692.00,1.40
4690.00,1.40
4688.00,1.40
4686.00,1.41
4684.00,1.41
4682.00,1.41
4680.00,1.41
4678.00,1.42
4676.00,1.42
4674.00,1.42
4672.00,1.42
4670.00,1.43
4668.00,1.43
4666.00,1.43
4664.00,1.43
4662.00,1.43
4660.00,1.44
4658.00,1.44
4656.00,1.44
4654.00,1.44
4652.00,1.44
4650.00,1.45
4648.00,1.45
4646.00,1.45
4644.00,1.45
4642.00,1.45
4640.00,1.45
4638.00,1.45
4636.00,1.46
4634.00,1.46
4632.00,1.46
4630.00,1.46
4628.00,1.46
4626.00,1.46
4624.00,1.46
4622.00,1.46
4620.00,1.46
4618.00,1.46
4616.00,1.46
4614.00,1.47
4612.00,1.47
4610.00,1.47
4608.00,1.47
4606.00,1.47
4604.00,1.47
4602.00,1.47
4600.00,1.47
4598.00,1.47
4596.00,1.47
4594.00,1.47
4592.00,1.47
4590.00,1.47
4588.00,1.47
4586.00,1.47
4584.00,1.47
4582.00,1.47
4580.00,1.47
4578.00,1.47
4576.00,1.48
4574.00,1.48
4572.00,1.48
4570.00,1.48
4568.00,1.48
4566.00,1.48
4564.00,1.48
4562.00,1.48
4560.00,1.48
4558.00,1.48
4556.00,1.48
4554.00,1.48
4552.00,1.48
4550.00,1.48
4548.00,1.48
4546.00,1.48
4544.00,1.48
4542.00,1.48
4540.00,1.48
4538.00,1.48
4536.00,1.48
4534.00,1.48
4532.00,1.48
4530.00,1.48
4528.00,1.48
4526.00,1.48
4524.00,1.48
4522.00,1.48
4520.00,1.48
4518.00,1.48
4516.00,1.48
4514.00,1.48
4512.00,1.48
4510.00,1.48
4508.00,1.49
4506.00,1.49
4504.00,1.49
4502.00,1.49
4500.00,1.49
4498.00,1.49
4496.00,1.49
4494.00,1.49
4492.00,1.48
4490.00,1.48
4488.00,1.48
4486.00,1.48
4484.00,1.48
4482.00,1.48
4480.00,1.48
4478.00,1.48
4476.00,1.47
4474.00,1.47
4472.00,1.47
4470.00,1.46
4468.00,1.46
4466.00,1.46
4464.00,1.45
4462.00,1.45
4460.00,1.44
4458.00,1.43
4456.00,1.42
4454.00,1.42
4452.00,1.41
4450.00,1.40
4448.00,1.39
4446.00,1.38
4444.00,1.36
4442.00,1.35
4440.00,1.34
4438.00,1.33
4436.00,1.31
4434.00,1.30
4432.00,1.29
4430.00,1.28
4428.00,1.26
4426.00,1.25
4424.00,1.24
4422.00,1.23
4420.00,1.23
4418.00,1.22
4416.00,1.21
4414.00,1.21
4412.00,1.21
4410.00,1.20
4408.00,1.20
4406.00,1.20
4404.00,1.21
4402.00,1.21
4400.00,1.21
4398.00,1.22
4396.00,1.22
4394.00,1.23
4392.00,1.23
4390.00,1.24
4388.00,1.24
4386.00,1.25
4384.00,1.25
4382.00,1.26
4380.00,1.26
4378.00,1.26
4376.00,1.27
4374.00,1.27
4372.00,1.27
4370.00,1.27
4368.00,1.27
4366.00,1.27
4364.00,1.26
4362.00,1.26
4360.00,1.26
4358.00,1.25
4356.00,1.25
4354.00,1.25
4352.00,1.24
4350.00,1.24
4348.00,1.24
4346.00,1.24
4344.00,1.24
4342.00,1.24
4340.00,1.24
4338.00,1.24
4336.00,1.25
4334.00,1.25
4332.00,1.26
4330.00,1.26
4328.00,1.27
4326.00,1.28
4324.00,1.29
4322.00,1.30
4320.00,1.31
4318.00,1.32
4316.00,1.33
4314.00,1.34
4312.00,1.35
4310.00,1.36
4308.00,1.38
4306.00,1.39
4304.00,1.39
4302.00,1.40
4300.00,1.41
4298.00,1.42
4296.00,1.43
4294.00,1.43
4292.00,1.44
4290.00,1.44
4288.00,1.44
4286.00,1.45
4284.00,1.45
4282.00,1.45
4280.00,1.45
4278.00,1.45
4276.00,1.45
4274.00,1.45
4272.00,1.44
4270.00,1.44
4268.00,1.44
4266.00,1.44
4264.00,1.44
4262.00,1.43
4260.00,1.43
4258.00,1.43
4256.00,1.43
4254.00,1.43
4252.00,1.43
4250.00,1.43
4248.00,1.43
4246.00,1.44
4244.00,1.44
4242.00,1.44
4240.00,1.45
4238.00,1.45
4236.00,1.45
4234.00,1.46
4232.00,1.46
4230.00,1.46
4228.00,1.47
4226.00,1.47
4224.00,1.47
4222.00,1.47
4220.00,1.48
4218.00,1.48
4216.00,1.48
4214.00,1.48
4212.00,1.48
4210.00,1.48
4208.00,1.48
4206.00,1.48
4204.00,1.48
4202.00,1.49
4200.00,1.49
4198.00,1.49
4196.00,1.49
4194.00,1.48
4192.00,1.48
4190.00,1.48
4188.00,1.48
4186.00,1.48
4184.00,1.48
4182.00,1.48
4180.00,1.48
4178.00,1.48
4176.00,1.48
4174.00,1.48
4172.00,1.48
4170.00,1.48
4168.00,1.48
4166.00,1.48
4164.00,1.48
4162.00,1.47
4160.00,1.47
4158.00,1.47
4156.00,1.47
4154.00,1.47
4152.00,1.47
4150.00,1.47
4148.00,1.47
4146.00,1.47
4144.00,1.47
4142.00,1.47
4140.00,1.47
4138.00,1.47
4136.00,1.47
4134.00,1.47
4132.00,1.47
4130.00,1.47
4128.00,1.47
4126.00,1.47
4124.00,1.47
4122.00,1.47
4120.00,1.47
4118.00,1.47
4116.00,1.46
4114.00,1.46
4112.00,1.46
4110.00,1.46
4108.00,1.46
4106.00,1.45
4104.00,1.45
4102.00,1.45
4100.00,1.45
4098.00,1.45
4096.00,1.44
4094.00,1.44
4092.00,1.44
4090.00,1.43
4088.00,1.43
4086.00,1.43
4084.00,1.43
4082.00,1.42
4080.00,1.42
4078.00,1.42
4076.00,1.42
4074.00,1.41
4072.00,1.41
4070.00,1.41
4068.00,1.41
4066.00,1.41
4064.00,1.40
4062.00,1.40
4060.00,1.40
4058.00,1.40
4056.00,1.40
4054.00,1.40
4052.00,1.41
4050.00,1.41
4048.00,1.41
4046.00,1.41
4044.00,1.41
4042.00,1.41
4040.00,1.42
4038.00,1.42
4036.00,1.42
4034.00,1.43
4032.00,1.43
4030.00,1.43
4028.00,1.44
4026.00,1.44
4024.00,1.44
4022.00,1.45
4020.00,1.45
4018.00,1.45
4016.00,1.46
4014.00,1.46
4012.00,1.46
4010.00,1.47
4008.00,1.47
4006.00,1.47
4004.00,1.47
4002.00,1.48
4000.00,1.48
