创建为新数据集,样品 926 用户 Administrator 日期 星期一, 七月 29 2019
cm-1,%T
10000.00,1.67
9999.00,1.67
9998.00,1.66
9997.00,1.66
9996.00,1.65
9995.00,1.65
9994.00,1.65
9993.00,1.64
9992.00,1.64
9991.00,1.64
9990.00,1.63
9989.00,1.63
9988.00,1.63
9987.00,1.63
9986.00,1.62
9985.00,1.62
9984.00,1.62
9983.00,1.62
9982.00,1.62
9981.00,1.62
9980.00,1.62
9979.00,1.62
9978.00,1.62
9977.00,1.62
9976.00,1.62
9975.00,1.62
9974.00,1.62
9973.00,1.62
9972.00,1.63
9971.00,1.63
9970.00,1.63
9969.00,1.63
9968.00,1.63
9967.00,1.63
9966.00,1.62
9965.00,1.62
9964.00,1.61
9963.00,1.60
9962.00,1.59
9961.00,1.58
9960.00,1.57
9959.00,1.56
9958.00,1.55
9957.00,1.54
9956.00,1.53
9955.00,1.52
9954.00,1.50
9953.00,1.49
9952.00,1.48
9951.00,1.47
9950.00,1.45
9949.00,1.44
9948.00,1.43
9947.00,1.41
9946.00,1.40
9945.00,1.38
9944.00,1.37
9943.00,1.35
9942.00,1.34
9941.00,1.33
9940.00,1.32
9939.00,1.31
9938.00,1.31
9937.00,1.30
9936.00,1.30
9935.00,1.30
9934.00,1.30
9933.00,1.31
9932.00,1.31
9931.00,1.31
9930.00,1.31
9929.00,1.32
9928.00,1.32
9927.00,1.33
9926.00,1.33
9925.00,1.34
9924.00,1.34
9923.00,1.35
9922.00,1.36
9921.00,1.37
9920.00,1.37
9919.00,1.38
9918.00,1.39
9917.00,1.41
9916.00,1.42
9915.00,1.43
9914.00,1.44
9913.00,1.45
9912.00,1.46
9911.00,1.47
9910.00,1.48
9909.00,1.49
9908.00,1.50
9907.00,1.50
9906.00,1.51
9905.00,1.51
9904.00,1.52
9903.00,1.52
9902.00,1.53
9901.00,1.53
9900.00,1.53
9899.00,1.54
9898.00,1.54
9897.00,1.54
9896.00,1.54
9895.00,1.54
9894.00,1.54
9893.00,1.54
9892.00,1.54
9891.00,1.53
9890.00,1.53
9889.00,1.52
9888.00,1.51
9887.00,1.51
9886.00,1.50
9885.00,1.49
9884.00,1.48
9883.00,1.48
9882.00,1.47
9881.00,1.47
9880.00,1.47
9879.00,1.46
9878.00,1.46
9877.00,1.46
9876.00,1.46
9875.00,1.46
9874.00,1.46
9873.00,1.46
9872.00,1.46
9871.00,1.46
9870.00,1.46
9869.00,1.46
9868.00,1.47
9867.00,1.47
9866.00,1.48
9865.00,1.48
9864.00,1.49
9863.00,1.50
9862.00,1.51
9861.00,1.52
9860.00,1.53
9859.00,1.54
9858.00,1.55
9857.00,1.56
9856.00,1.57
9855.00,1.57
9854.00,1.58
9853.00,1.58
9852.00,1.58
9851.00,1.58
9850.00,1.59
9849.00,1.59
9848.00,1.59
9847.00,1.59
9846.00,1.59
9845.00,1.59
9844.00,1.59
9843.00,1.59
9842.00,1.58
9841.00,1.58
9840.00,1.58
9839.00,1.57
9838.00,1.57
9837.00,1.56
9836.00,1.55
9835.00,1.54
9834.00,1.53
9833.00,1.52
9832.00,1.52
9831.00,1.51
9830.00,1.50
9829.00,1.49
9828.00,1.48
9827.00,1.48
9826.00,1.47
9825.00,1.46
9824.00,1.46
9823.00,1.45
9822.00,1.45
9821.00,1.44
9820.00,1.44
9819.00,1.43
9818.00,1.43
9817.00,1.42
9816.00,1.42
9815.00,1.41
9814.00,1.41
9813.00,1.40
9812.00,1.40
9811.00,1.40
9810.00,1.39
9809.00,1.39
9808.00,1.38
9807.00,1.38
9806.00,1.38
9805.00,1.38
9804.00,1.37
9803.00,1.37
9802.00,1.37
9801.00,1.37
9800.00,1.37
9799.00,1.37
9798.00,1.37
9797.00,1.37
9796.00,1.37
9795.00,1.37
9794.00,1.37
9793.00,1.37
9792.00,1.37
9791.00,1.38
9790.00,1.38
9789.00,1.38
9788.00,1.39
9787.00,1.39
9786.00,1.39
9785.00,1.39
9784.00,1.40
9783.00,1.40
9782.00,1.40
9781.00,1.41
9780.00,1.41
9779.00,1.41
9778.00,1.42
9777.00,1.42
9776.00,1.43
9775.00,1.43
9774.00,1.44
9773.00,1.44
9772.00,1.45
9771.00,1.45
9770.00,1.45
9769.00,1.45
9768.00,1.45
9767.00,1.45
9766.00,1.45
9765.00,1.45
9764.00,1.45
9763.00,1.45
9762.00,1.46
9761.00,1.46
9760.00,1.46
9759.00,1.46
9758.00,1.47
9757.00,1.47
9756.00,1.47
9755.00,1.48
9754.00,1.48
9753.00,1.49
9752.00,1.49
9751.00,1.49
9750.00,1.49
9749.00,1.50
9748.00,1.50
9747.00,1.50
9746.00,1.50
9745.00,1.51
9744.00,1.51
9743.00,1.51
9742.00,1.51
9741.00,1.52
9740.00,1.52
9739.00,1.52
9738.00,1.53
9737.00,1.53
9736.00,1.53
9735.00,1.53
9734.00,1.54
9733.00,1.54
9732.00,1.54
9731.00,1.54
9730.00,1.54
9729.00,1.54
9728.00,1.54
9727.00,1.54
9726.00,1.54
9725.00,1.55
9724.00,1.54
9723.00,1.54
9722.00,1.54
9721.00,1.54
9720.00,1.54
9719.00,1.54
9718.00,1.54
9717.00,1.53
9716.00,1.53
9715.00,1.53
9714.00,1.53
9713.00,1.53
9712.00,1.53
9711.00,1.53
9710.00,1.53
9709.00,1.52
9708.00,1.52
9707.00,1.52
9706.00,1.52
9705.00,1.52
9704.00,1.51
9703.00,1.51
9702.00,1.51
9701.00,1.50
9700.00,1.50
9699.00,1.50
9698.00,1.50
9697.00,1.50
9696.00,1.50
9695.00,1.50
9694.00,1.51
9693.00,1.51
9692.00,1.51
9691.00,1.52
9690.00,1.52
9689.00,1.53
9688.00,1.53
9687.00,1.53
9686.00,1.54
9685.00,1.54
9684.00,1.54
9683.00,1.55
9682.00,1.55
9681.00,1.55
9680.00,1.56
9679.00,1.56
9678.00,1.56
9677.00,1.57
9676.00,1.57
9675.00,1.57
9674.00,1.57
9673.00,1.57
9672.00,1.57
9671.00,1.57
9670.00,1.57
9669.00,1.57
9668.00,1.57
9667.00,1.57
9666.00,1.56
9665.00,1.56
9664.00,1.55
9663.00,1.55
9662.00,1.54
9661.00,1.54
9660.00,1.53
9659.00,1.52
9658.00,1.52
9657.00,1.51
9656.00,1.51
9655.00,1.51
9654.00,1.50
9653.00,1.50
9652.00,1.50
9651.00,1.49
9650.00,1.49
9649.00,1.49
9648.00,1.49
9647.00,1.49
9646.00,1.49
9645.00,1.49
9644.00,1.49
9643.00,1.49
9642.00,1.49
9641.00,1.49
9640.00,1.50
9639.00,1.50
9638.00,1.51
9637.00,1.51
9636.00,1.52
9635.00,1.52
9634.00,1.53
9633.00,1.53
9632.00,1.54
9631.00,1.54
9630.00,1.54
9629.00,1.55
9628.00,1.55
9627.00,1.56
9626.00,1.56
9625.00,1.57
9624.00,1.57
9623.00,1.57
9622.00,1.58
9621.00,1.58
9620.00,1.58
9619.00,1.59
9618.00,1.59
9617.00,1.59
9616.00,1.59
9615.00,1.59
9614.00,1.58
9613.00,1.58
9612.00,1.58
9611.00,1.58
9610.00,1.57
9609.00,1.57
9608.00,1.56
9607.00,1.56
9606.00,1.56
9605.00,1.55
9604.00,1.55
9603.00,1.54
9602.00,1.54
9601.00,1.54
9600.00,1.53
9599.00,1.53
9598.00,1.52
9597.00,1.51
9596.00,1.51
9595.00,1.50
9594.00,1.49
9593.00,1.48
9592.00,1.48
9591.00,1.47
9590.00,1.47
9589.00,1.46
9588.00,1.46
9587.00,1.45
9586.00,1.45
9585.00,1.45
9584.00,1.45
9583.00,1.45
9582.00,1.45
9581.00,1.45
9580.00,1.45
9579.00,1.45
9578.00,1.45
9577.00,1.44
9576.00,1.44
9575.00,1.44
9574.00,1.44
9573.00,1.43
9572.00,1.43
9571.00,1.43
9570.00,1.43
9569.00,1.43
9568.00,1.43
9567.00,1.43
9566.00,1.43
9565.00,1.43
9564.00,1.43
9563.00,1.43
9562.00,1.43
9561.00,1.43
9560.00,1.43
9559.00,1.43
9558.00,1.43
9557.00,1.43
9556.00,1.42
9555.00,1.42
9554.00,1.42
9553.00,1.42
9552.00,1.42
9551.00,1.43
9550.00,1.43
9549.00,1.43
9548.00,1.44
9547.00,1.44
9546.00,1.45
9545.00,1.45
9544.00,1.46
9543.00,1.47
9542.00,1.47
9541.00,1.48
9540.00,1.48
9539.00,1.49
9538.00,1.49
9537.00,1.50
9536.00,1.50
9535.00,1.51
9534.00,1.51
9533.00,1.51
9532.00,1.52
9531.00,1.52
9530.00,1.52
9529.00,1.52
9528.00,1.52
9527.00,1.53
9526.00,1.53
9525.00,1.53
9524.00,1.52
9523.00,1.52
9522.00,1.52
9521.00,1.52
9520.00,1.51
9519.00,1.51
9518.00,1.51
9517.00,1.50
9516.00,1.50
9515.00,1.50
9514.00,1.50
9513.00,1.50
9512.00,1.50
9511.00,1.50
9510.00,1.51
9509.00,1.51
9508.00,1.51
9507.00,1.51
9506.00,1.52
9505.00,1.52
9504.00,1.52
9503.00,1.52
9502.00,1.53
9501.00,1.53
9500.00,1.53
9499.00,1.54
9498.00,1.54
9497.00,1.54
9496.00,1.55
9495.00,1.55
9494.00,1.56
9493.00,1.56
9492.00,1.57
9491.00,1.57
9490.00,1.57
9489.00,1.57
9488.00,1.57
9487.00,1.57
9486.00,1.57
9485.00,1.57
9484.00,1.57
9483.00,1.56
9482.00,1.56
9481.00,1.56
9480.00,1.56
9479.00,1.55
9478.00,1.55
9477.00,1.55
9476.00,1.55
9475.00,1.55
9474.00,1.55
9473.00,1.55
9472.00,1.55
9471.00,1.54
9470.00,1.54
9469.00,1.54
9468.00,1.53
9467.00,1.53
9466.00,1.52
9465.00,1.52
9464.00,1.51
9463.00,1.51
9462.00,1.51
9461.00,1.51
9460.00,1.50
9459.00,1.50
9458.00,1.50
9457.00,1.50
9456.00,1.50
9455.00,1.49
9454.00,1.49
9453.00,1.49
9452.00,1.49
9451.00,1.48
9450.00,1.48
9449.00,1.48
9448.00,1.48
9447.00,1.48
9446.00,1.48
9445.00,1.48
9444.00,1.48
9443.00,1.49
9442.00,1.49
9441.00,1.49
9440.00,1.50
9439.00,1.50
9438.00,1.50
9437.00,1.51
9436.00,1.51
9435.00,1.51
9434.00,1.51
9433.00,1.52
9432.00,1.52
9431.00,1.52
9430.00,1.52
9429.00,1.52
9428.00,1.52
9427.00,1.52
9426.00,1.51
9425.00,1.51
9424.00,1.51
9423.00,1.50
9422.00,1.50
9421.00,1.49
9420.00,1.49
9419.00,1.48
9418.00,1.47
9417.00,1.46
9416.00,1.46
9415.00,1.45
9414.00,1.44
9413.00,1.43
9412.00,1.42
9411.00,1.42
9410.00,1.41
9409.00,1.41
9408.00,1.41
9407.00,1.40
9406.00,1.40
9405.00,1.40
9404.00,1.40
9403.00,1.40
9402.00,1.40
9401.00,1.41
9400.00,1.41
9399.00,1.42
9398.00,1.42
9397.00,1.43
9396.00,1.44
9395.00,1.45
9394.00,1.46
9393.00,1.47
9392.00,1.48
9391.00,1.49
9390.00,1.50
9389.00,1.51
9388.00,1.52
9387.00,1.53
9386.00,1.54
9385.00,1.55
9384.00,1.56
9383.00,1.57
9382.00,1.57
9381.00,1.58
9380.00,1.59
9379.00,1.59
9378.00,1.59
9377.00,1.59
9376.00,1.60
9375.00,1.60
9374.00,1.60
9373.00,1.60
9372.00,1.60
9371.00,1.60
9370.00,1.60
9369.00,1.59
9368.00,1.59
9367.00,1.59
9366.00,1.59
9365.00,1.59
9364.00,1.58
9363.00,1.58
9362.00,1.58
9361.00,1.58
9360.00,1.57
9359.00,1.57
9358.00,1.57
9357.00,1.57
9356.00,1.57
9355.00,1.57
9354.00,1.57
9353.00,1.57
9352.00,1.57
9351.00,1.57
9350.00,1.58
9349.00,1.58
9348.00,1.58
9347.00,1.58
9346.00,1.58
9345.00,1.58
9344.00,1.58
9343.00,1.58
9342.00,1.57
9341.00,1.57
9340.00,1.57
9339.00,1.57
9338.00,1.57
9337.00,1.57
9336.00,1.56
9335.00,1.56
9334.00,1.56
9333.00,1.56
9332.00,1.55
9331.00,1.55
9330.00,1.55
9329.00,1.54
9328.00,1.54
9327.00,1.53
9326.00,1.53
9325.00,1.52
9324.00,1.52
9323.00,1.52
9322.00,1.51
9321.00,1.51
9320.00,1.50
9319.00,1.50
9318.00,1.50
9317.00,1.49
9316.00,1.49
9315.00,1.49
9314.00,1.48
9313.00,1.48
9312.00,1.48
9311.00,1.48
9310.00,1.47
9309.00,1.47
9308.00,1.47
9307.00,1.47
9306.00,1.46
9305.00,1.46
9304.00,1.46
9303.00,1.46
9302.00,1.46
9301.00,1.46
9300.00,1.46
9299.00,1.46
9298.00,1.46
9297.00,1.46
9296.00,1.46
9295.00,1.46
9294.00,1.46
9293.00,1.45
9292.00,1.45
9291.00,1.45
9290.00,1.45
9289.00,1.44
9288.00,1.44
9287.00,1.44
9286.00,1.44
9285.00,1.43
9284.00,1.43
9283.00,1.43
9282.00,1.43
9281.00,1.43
9280.00,1.42
9279.00,1.42
9278.00,1.42
9277.00,1.42
9276.00,1.41
9275.00,1.41
9274.00,1.41
9273.00,1.40
9272.00,1.40
9271.00,1.40
9270.00,1.40
9269.00,1.40
9268.00,1.40
9267.00,1.40
9266.00,1.41
9265.00,1.41
9264.00,1.41
9263.00,1.41
9262.00,1.41
9261.00,1.42
9260.00,1.42
9259.00,1.42
9258.00,1.42
9257.00,1.42
9256.00,1.42
9255.00,1.42
9254.00,1.42
9253.00,1.42
9252.00,1.42
9251.00,1.42
9250.00,1.42
9249.00,1.42
9248.00,1.42
9247.00,1.42
9246.00,1.43
9245.00,1.43
9244.00,1.43
9243.00,1.43
9242.00,1.43
9241.00,1.43
9240.00,1.43
9239.00,1.43
9238.00,1.43
9237.00,1.43
9236.00,1.43
9235.00,1.43
9234.00,1.44
9233.00,1.44
9232.00,1.44
9231.00,1.44
9230.00,1.45
9229.00,1.45
9228.00,1.45
9227.00,1.46
9226.00,1.46
9225.00,1.46
9224.00,1.47
9223.00,1.47
9222.00,1.47
9221.00,1.47
9220.00,1.47
9219.00,1.47
9218.00,1.47
9217.00,1.47
9216.00,1.47
9215.00,1.47
9214.00,1.47
9213.00,1.47
9212.00,1.47
9211.00,1.46
9210.00,1.46
9209.00,1.46
9208.00,1.46
9207.00,1.45
9206.00,1.45
9205.00,1.45
9204.00,1.45
9203.00,1.45
9202.00,1.45
9201.00,1.44
9200.00,1.44
9199.00,1.44
9198.00,1.44
9197.00,1.44
9196.00,1.44
9195.00,1.44
9194.00,1.44
9193.00,1.44
9192.00,1.44
9191.00,1.44
9190.00,1.44
9189.00,1.44
9188.00,1.44
9187.00,1.44
9186.00,1.45
9185.00,1.45
9184.00,1.45
9183.00,1.46
9182.00,1.46
9181.00,1.46
9180.00,1.47
9179.00,1.47
9178.00,1.47
9177.00,1.48
9176.00,1.48
9175.00,1.48
9174.00,1.48
9173.00,1.49
9172.00,1.49
9171.00,1.49
9170.00,1.49
9169.00,1.50
9168.00,1.50
9167.00,1.50
9166.00,1.51
9165.00,1.51
9164.00,1.51
9163.00,1.51
9162.00,1.51
9161.00,1.52
9160.00,1.52
9159.00,1.52
9158.00,1.52
9157.00,1.52
9156.00,1.52
9155.00,1.52
9154.00,1.52
9153.00,1.52
9152.00,1.52
9151.00,1.52
9150.00,1.52
9149.00,1.52
9148.00,1.52
9147.00,1.52
9146.00,1.51
9145.00,1.51
9144.00,1.51
9143.00,1.51
9142.00,1.51
9141.00,1.50
9140.00,1.50
9139.00,1.50
9138.00,1.50
9137.00,1.50
9136.00,1.50
9135.00,1.50
9134.00,1.50
9133.00,1.50
9132.00,1.50
9131.00,1.50
9130.00,1.50
9129.00,1.50
9128.00,1.50
9127.00,1.50
9126.00,1.50
9125.00,1.50
9124.00,1.50
9123.00,1.51
9122.00,1.51
9121.00,1.51
9120.00,1.51
9119.00,1.52
9118.00,1.52
9117.00,1.52
9116.00,1.53
9115.00,1.53
9114.00,1.53
9113.00,1.54
9112.00,1.54
9111.00,1.54
9110.00,1.54
9109.00,1.54
9108.00,1.54
9107.00,1.55
9106.00,1.55
9105.00,1.55
9104.00,1.54
9103.00,1.54
9102.00,1.54
9101.00,1.54
9100.00,1.54
9099.00,1.54
9098.00,1.53
9097.00,1.53
9096.00,1.53
9095.00,1.53
9094.00,1.52
9093.00,1.52
9092.00,1.52
9091.00,1.52
9090.00,1.52
9089.00,1.52
9088.00,1.52
9087.00,1.51
9086.00,1.51
9085.00,1.51
9084.00,1.51
9083.00,1.51
9082.00,1.51
9081.00,1.51
9080.00,1.51
9079.00,1.51
9078.00,1.51
9077.00,1.51
9076.00,1.51
9075.00,1.51
9074.00,1.51
9073.00,1.50
9072.00,1.50
9071.00,1.50
9070.00,1.50
9069.00,1.49
9068.00,1.49
9067.00,1.48
9066.00,1.48
9065.00,1.48
9064.00,1.47
9063.00,1.47
9062.00,1.46
9061.00,1.46
9060.00,1.45
9059.00,1.45
9058.00,1.44
9057.00,1.44
9056.00,1.43
9055.00,1.43
9054.00,1.42
9053.00,1.42
9052.00,1.41
9051.00,1.41
9050.00,1.40
9049.00,1.40
9048.00,1.40
9047.00,1.40
9046.00,1.40
9045.00,1.40
9044.00,1.41
9043.00,1.41
9042.00,1.41
9041.00,1.42
9040.00,1.42
9039.00,1.42
9038.00,1.42
9037.00,1.43
9036.00,1.43
9035.00,1.44
9034.00,1.44
9033.00,1.45
9032.00,1.45
9031.00,1.46
9030.00,1.47
9029.00,1.48
9028.00,1.48
9027.00,1.49
9026.00,1.50
9025.00,1.51
9024.00,1.51
9023.00,1.52
9022.00,1.53
9021.00,1.53
9020.00,1.53
9019.00,1.54
9018.00,1.54
9017.00,1.55
9016.00,1.55
9015.00,1.55
9014.00,1.55
9013.00,1.56
9012.00,1.56
9011.00,1.56
9010.00,1.56
9009.00,1.57
9008.00,1.57
9007.00,1.57
9006.00,1.57
9005.00,1.56
9004.00,1.56
9003.00,1.56
9002.00,1.56
9001.00,1.55
9000.00,1.55
8999.00,1.54
8998.00,1.54
8997.00,1.53
8996.00,1.53
8995.00,1.52
8994.00,1.51
8993.00,1.51
8992.00,1.50
8991.00,1.49
8990.00,1.49
8989.00,1.48
8988.00,1.47
8987.00,1.46
8986.00,1.45
8985.00,1.44
8984.00,1.44
8983.00,1.43
8982.00,1.42
8981.00,1.41
8980.00,1.40
8979.00,1.39
8978.00,1.39
8977.00,1.38
8976.00,1.37
8975.00,1.37
8974.00,1.36
8973.00,1.35
8972.00,1.35
8971.00,1.35
8970.00,1.34
8969.00,1.34
8968.00,1.34
8967.00,1.34
8966.00,1.34
8965.00,1.35
8964.00,1.35
8963.00,1.35
8962.00,1.36
8961.00,1.36
8960.00,1.37
8959.00,1.38
8958.00,1.38
8957.00,1.39
8956.00,1.40
8955.00,1.40
8954.00,1.41
8953.00,1.42
8952.00,1.43
8951.00,1.43
8950.00,1.44
8949.00,1.45
8948.00,1.46
8947.00,1.47
8946.00,1.47
8945.00,1.48
8944.00,1.48
8943.00,1.49
8942.00,1.50
8941.00,1.50
8940.00,1.50
8939.00,1.50
8938.00,1.51
8937.00,1.51
8936.00,1.51
8935.00,1.50
8934.00,1.50
8933.00,1.50
8932.00,1.50
8931.00,1.49
8930.00,1.49
8929.00,1.49
8928.00,1.49
8927.00,1.49
8926.00,1.49
8925.00,1.49
8924.00,1.48
8923.00,1.48
8922.00,1.48
8921.00,1.48
8920.00,1.48
8919.00,1.48
8918.00,1.48
8917.00,1.48
8916.00,1.48
8915.00,1.48
8914.00,1.49
8913.00,1.49
8912.00,1.49
8911.00,1.49
8910.00,1.50
8909.00,1.50
8908.00,1.50
8907.00,1.51
8906.00,1.51
8905.00,1.52
8904.00,1.52
8903.00,1.52
8902.00,1.53
8901.00,1.53
8900.00,1.53
8899.00,1.53
8898.00,1.53
8897.00,1.53
8896.00,1.53
8895.00,1.54
8894.00,1.54
8893.00,1.53
8892.00,1.53
8891.00,1.53
8890.00,1.53
8889.00,1.53
8888.00,1.52
8887.00,1.52
8886.00,1.51
8885.00,1.51
8884.00,1.50
8883.00,1.50
8882.00,1.50
8881.00,1.49
8880.00,1.49
8879.00,1.48
8878.00,1.48
8877.00,1.48
8876.00,1.47
8875.00,1.47
8874.00,1.46
8873.00,1.46
8872.00,1.45
8871.00,1.45
8870.00,1.44
8869.00,1.44
8868.00,1.44
8867.00,1.43
8866.00,1.43
8865.00,1.43
8864.00,1.42
8863.00,1.42
8862.00,1.42
8861.00,1.42
8860.00,1.42
8859.00,1.42
8858.00,1.43
8857.00,1.43
8856.00,1.43
8855.00,1.43
8854.00,1.43
8853.00,1.43
8852.00,1.44
8851.00,1.44
8850.00,1.44
8849.00,1.45
8848.00,1.45
8847.00,1.45
8846.00,1.46
8845.00,1.46
8844.00,1.47
8843.00,1.47
8842.00,1.48
8841.00,1.48
8840.00,1.48
8839.00,1.49
8838.00,1.49
8837.00,1.49
8836.00,1.50
8835.00,1.50
8834.00,1.50
8833.00,1.51
8832.00,1.51
8831.00,1.51
8830.00,1.51
8829.00,1.52
8828.00,1.52
8827.00,1.52
8826.00,1.52
8825.00,1.52
8824.00,1.52
8823.00,1.52
8822.00,1.52
8821.00,1.51
8820.00,1.51
8819.00,1.51
8818.00,1.51
8817.00,1.51
8816.00,1.51
8815.00,1.51
8814.00,1.51
8813.00,1.51
8812.00,1.51
8811.00,1.51
8810.00,1.50
8809.00,1.50
8808.00,1.50
8807.00,1.50
8806.00,1.50
8805.00,1.50
8804.00,1.49
8803.00,1.49
8802.00,1.49
8801.00,1.49
8800.00,1.49
8799.00,1.49
8798.00,1.49
8797.00,1.49
8796.00,1.49
8795.00,1.49
8794.00,1.49
8793.00,1.49
8792.00,1.49
8791.00,1.49
8790.00,1.49
8789.00,1.49
8788.00,1.48
8787.00,1.48
8786.00,1.48
8785.00,1.48
8784.00,1.48
8783.00,1.48
8782.00,1.47
8781.00,1.47
8780.00,1.47
8779.00,1.47
8778.00,1.46
8777.00,1.46
8776.00,1.46
8775.00,1.46
8774.00,1.45
8773.00,1.45
8772.00,1.45
8771.00,1.45
8770.00,1.44
8769.00,1.44
8768.00,1.44
8767.00,1.44
8766.00,1.44
8765.00,1.43
8764.00,1.43
8763.00,1.43
8762.00,1.43
8761.00,1.42
8760.00,1.42
8759.00,1.42
8758.00,1.42
8757.00,1.42
8756.00,1.41
8755.00,1.41
8754.00,1.41
8753.00,1.41
8752.00,1.41
8751.00,1.41
8750.00,1.41
8749.00,1.41
8748.00,1.41
8747.00,1.41
8746.00,1.41
8745.00,1.41
8744.00,1.41
8743.00,1.41
8742.00,1.41
8741.00,1.42
8740.00,1.42
8739.00,1.42
8738.00,1.42
8737.00,1.42
8736.00,1.42
8735.00,1.42
8734.00,1.43
8733.00,1.43
8732.00,1.43
8731.00,1.44
8730.00,1.44
8729.00,1.44
8728.00,1.45
8727.00,1.45
8726.00,1.45
8725.00,1.46
8724.00,1.46
8723.00,1.46
8722.00,1.47
8721.00,1.47
8720.00,1.47
8719.00,1.47
8718.00,1.48
8717.00,1.48
8716.00,1.48
8715.00,1.48
8714.00,1.49
8713.00,1.49
8712.00,1.49
8711.00,1.49
8710.00,1.49
8709.00,1.49
8708.00,1.49
8707.00,1.48
8706.00,1.48
8705.00,1.48
8704.00,1.48
8703.00,1.48
8702.00,1.47
8701.00,1.47
8700.00,1.47
8699.00,1.46
8698.00,1.46
8697.00,1.45
8696.00,1.45
8695.00,1.44
8694.00,1.44
8693.00,1.43
8692.00,1.43
8691.00,1.42
8690.00,1.42
8689.00,1.41
8688.00,1.41
8687.00,1.40
8686.00,1.40
8685.00,1.40
8684.00,1.40
8683.00,1.39
8682.00,1.39
8681.00,1.39
8680.00,1.39
8679.00,1.39
8678.00,1.39
8677.00,1.39
8676.00,1.39
8675.00,1.39
8674.00,1.39
8673.00,1.39
8672.00,1.39
8671.00,1.39
8670.00,1.39
8669.00,1.39
8668.00,1.39
8667.00,1.40
8666.00,1.40
8665.00,1.40
8664.00,1.41
8663.00,1.41
8662.00,1.41
8661.00,1.42
8660.00,1.42
8659.00,1.42
8658.00,1.42
8657.00,1.43
8656.00,1.43
8655.00,1.43
8654.00,1.43
8653.00,1.43
8652.00,1.43
8651.00,1.43
8650.00,1.44
8649.00,1.44
8648.00,1.44
8647.00,1.44
8646.00,1.44
8645.00,1.44
8644.00,1.44
8643.00,1.45
8642.00,1.45
8641.00,1.45
8640.00,1.45
8639.00,1.45
8638.00,1.45
8637.00,1.45
8636.00,1.45
8635.00,1.45
8634.00,1.45
8633.00,1.45
8632.00,1.46
8631.00,1.46
8630.00,1.46
8629.00,1.46
8628.00,1.46
8627.00,1.46
8626.00,1.46
8625.00,1.46
8624.00,1.46
8623.00,1.46
8622.00,1.46
8621.00,1.46
8620.00,1.46
8619.00,1.46
8618.00,1.47
8617.00,1.47
8616.00,1.47
8615.00,1.47
8614.00,1.48
8613.00,1.48
8612.00,1.48
8611.00,1.48
8610.00,1.48
8609.00,1.48
8608.00,1.49
8607.00,1.49
8606.00,1.49
8605.00,1.49
8604.00,1.49
8603.00,1.49
8602.00,1.49
8601.00,1.49
8600.00,1.50
8599.00,1.50
8598.00,1.50
8597.00,1.50
8596.00,1.50
8595.00,1.50
8594.00,1.50
8593.00,1.49
8592.00,1.49
8591.00,1.49
8590.00,1.49
8589.00,1.49
8588.00,1.49
8587.00,1.48
8586.00,1.48
8585.00,1.48
8584.00,1.47
8583.00,1.47
8582.00,1.47
8581.00,1.46
8580.00,1.46
8579.00,1.45
8578.00,1.45
8577.00,1.44
8576.00,1.44
8575.00,1.44
8574.00,1.43
8573.00,1.43
8572.00,1.43
8571.00,1.42
8570.00,1.42
8569.00,1.42
8568.00,1.41
8567.00,1.41
8566.00,1.41
8565.00,1.40
8564.00,1.40
8563.00,1.40
8562.00,1.39
8561.00,1.39
8560.00,1.39
8559.00,1.39
8558.00,1.39
8557.00,1.39
8556.00,1.39
8555.00,1.39
8554.00,1.39
8553.00,1.39
8552.00,1.39
8551.00,1.39
8550.00,1.39
8549.00,1.40
8548.00,1.40
8547.00,1.40
8546.00,1.40
8545.00,1.40
8544.00,1.40
8543.00,1.40
8542.00,1.40
8541.00,1.40
8540.00,1.40
8539.00,1.40
8538.00,1.41
8537.00,1.41
8536.00,1.41
8535.00,1.41
8534.00,1.41
8533.00,1.41
8532.00,1.42
8531.00,1.42
8530.00,1.42
8529.00,1.42
8528.00,1.42
8527.00,1.42
8526.00,1.42
8525.00,1.42
8524.00,1.42
8523.00,1.42
8522.00,1.42
8521.00,1.42
8520.00,1.43
8519.00,1.43
8518.00,1.43
8517.00,1.44
8516.00,1.44
8515.00,1.45
8514.00,1.45
8513.00,1.46
8512.00,1.46
8511.00,1.47
8510.00,1.47
8509.00,1.48
8508.00,1.49
8507.00,1.49
8506.00,1.50
8505.00,1.50
8504.00,1.51
8503.00,1.51
8502.00,1.52
8501.00,1.52
8500.00,1.53
8499.00,1.53
8498.00,1.54
8497.00,1.54
8496.00,1.54
8495.00,1.55
8494.00,1.55
8493.00,1.55
8492.00,1.55
8491.00,1.54
8490.00,1.54
8489.00,1.54
8488.00,1.54
8487.00,1.53
8486.00,1.53
8485.00,1.53
8484.00,1.52
8483.00,1.52
8482.00,1.52
8481.00,1.51
8480.00,1.51
8479.00,1.51
8478.00,1.51
8477.00,1.50
8476.00,1.50
8475.00,1.50
8474.00,1.49
8473.00,1.49
8472.00,1.49
8471.00,1.49
8470.00,1.48
8469.00,1.48
8468.00,1.48
8467.00,1.48
8466.00,1.48
8465.00,1.48
8464.00,1.47
8463.00,1.47
8462.00,1.47
8461.00,1.47
8460.00,1.47
8459.00,1.47
8458.00,1.47
8457.00,1.47
8456.00,1.47
8455.00,1.47
8454.00,1.46
8453.00,1.46
8452.00,1.46
8451.00,1.46
8450.00,1.46
8449.00,1.45
8448.00,1.45
8447.00,1.45
8446.00,1.45
8445.00,1.45
8444.00,1.45
8443.00,1.45
8442.00,1.46
8441.00,1.46
8440.00,1.46
8439.00,1.46
8438.00,1.47
8437.00,1.47
8436.00,1.47
8435.00,1.48
8434.00,1.48
8433.00,1.48
8432.00,1.49
8431.00,1.49
8430.00,1.50
8429.00,1.50
8428.00,1.51
8427.00,1.51
8426.00,1.52
8425.00,1.52
8424.00,1.52
8423.00,1.53
8422.00,1.53
8421.00,1.54
8420.00,1.54
8419.00,1.54
8418.00,1.55
8417.00,1.55
8416.00,1.55
8415.00,1.55
8414.00,1.55
8413.00,1.55
8412.00,1.55
8411.00,1.55
8410.00,1.55
8409.00,1.55
8408.00,1.55
8407.00,1.55
8406.00,1.55
8405.00,1.54
8404.00,1.54
8403.00,1.54
8402.00,1.54
8401.00,1.54
8400.00,1.54
8399.00,1.54
8398.00,1.54
8397.00,1.54
8396.00,1.54
8395.00,1.53
8394.00,1.53
8393.00,1.53
8392.00,1.53
8391.00,1.53
8390.00,1.53
8389.00,1.53
8388.00,1.53
8387.00,1.53
8386.00,1.53
8385.00,1.53
8384.00,1.52
8383.00,1.52
8382.00,1.52
8381.00,1.52
8380.00,1.52
8379.00,1.52
8378.00,1.52
8377.00,1.52
8376.00,1.51
8375.00,1.51
8374.00,1.50
8373.00,1.50
8372.00,1.50
8371.00,1.49
8370.00,1.49
8369.00,1.48
8368.00,1.48
8367.00,1.47
8366.00,1.47
8365.00,1.46
8364.00,1.46
8363.00,1.46
8362.00,1.46
8361.00,1.45
8360.00,1.45
8359.00,1.45
8358.00,1.45
8357.00,1.45
8356.00,1.45
8355.00,1.45
8354.00,1.45
8353.00,1.45
8352.00,1.45
8351.00,1.45
8350.00,1.45
8349.00,1.46
8348.00,1.46
8347.00,1.46
8346.00,1.47
8345.00,1.47
8344.00,1.48
8343.00,1.48
8342.00,1.49
8341.00,1.50
8340.00,1.50
8339.00,1.51
8338.00,1.51
8337.00,1.51
8336.00,1.52
8335.00,1.52
8334.00,1.52
8333.00,1.52
8332.00,1.53
8331.00,1.53
8330.00,1.53
8329.00,1.53
8328.00,1.53
8327.00,1.53
8326.00,1.53
8325.00,1.52
8324.00,1.52
8323.00,1.52
8322.00,1.52
8321.00,1.51
8320.00,1.51
8319.00,1.51
8318.00,1.51
8317.00,1.50
8316.00,1.50
8315.00,1.49
8314.00,1.49
8313.00,1.49
8312.00,1.48
8311.00,1.48
8310.00,1.48
8309.00,1.47
8308.00,1.47
8307.00,1.46
8306.00,1.46
8305.00,1.46
8304.00,1.45
8303.00,1.45
8302.00,1.44
8301.00,1.44
8300.00,1.44
8299.00,1.43
8298.00,1.43
8297.00,1.42
8296.00,1.42
8295.00,1.42
8294.00,1.41
8293.00,1.41
8292.00,1.40
8291.00,1.40
8290.00,1.39
8289.00,1.39
8288.00,1.38
8287.00,1.37
8286.00,1.37
8285.00,1.36
8284.00,1.35
8283.00,1.35
8282.00,1.34
8281.00,1.34
8280.00,1.33
8279.00,1.32
8278.00,1.32
8277.00,1.32
8276.00,1.31
8275.00,1.31
8274.00,1.31
8273.00,1.30
8272.00,1.30
8271.00,1.30
8270.00,1.30
8269.00,1.30
8268.00,1.30
8267.00,1.30
8266.00,1.30
8265.00,1.30
8264.00,1.30
8263.00,1.31
8262.00,1.31
8261.00,1.31
8260.00,1.32
8259.00,1.32
8258.00,1.33
8257.00,1.33
8256.00,1.34
8255.00,1.35
8254.00,1.35
8253.00,1.36
8252.00,1.36
8251.00,1.37
8250.00,1.38
8249.00,1.38
8248.00,1.38
8247.00,1.39
8246.00,1.39
8245.00,1.40
8244.00,1.40
8243.00,1.40
8242.00,1.40
8241.00,1.41
8240.00,1.41
8239.00,1.41
8238.00,1.41
8237.00,1.41
8236.00,1.41
8235.00,1.42
8234.00,1.42
8233.00,1.42
8232.00,1.42
8231.00,1.42
8230.00,1.42
8229.00,1.42
8228.00,1.42
8227.00,1.42
8226.00,1.43
8225.00,1.43
8224.00,1.43
8223.00,1.43
8222.00,1.43
8221.00,1.43
8220.00,1.44
8219.00,1.44
8218.00,1.44
8217.00,1.44
8216.00,1.45
8215.00,1.45
8214.00,1.45
8213.00,1.45
8212.00,1.46
8211.00,1.46
8210.00,1.46
8209.00,1.46
8208.00,1.47
8207.00,1.47
8206.00,1.47
8205.00,1.47
8204.00,1.47
8203.00,1.47
8202.00,1.47
8201.00,1.47
8200.00,1.47
8199.00,1.47
8198.00,1.47
8197.00,1.46
8196.00,1.46
8195.00,1.46
8194.00,1.46
8193.00,1.46
8192.00,1.46
8191.00,1.46
8190.00,1.46
8189.00,1.46
8188.00,1.46
8187.00,1.46
8186.00,1.45
8185.00,1.45
8184.00,1.45
8183.00,1.45
8182.00,1.45
8181.00,1.45
8180.00,1.44
8179.00,1.44
8178.00,1.44
8177.00,1.44
8176.00,1.44
8175.00,1.43
8174.00,1.43
8173.00,1.43
8172.00,1.43
8171.00,1.43
8170.00,1.43
8169.00,1.42
8168.00,1.42
8167.00,1.42
8166.00,1.42
8165.00,1.42
8164.00,1.42
8163.00,1.41
8162.00,1.41
8161.00,1.41
8160.00,1.41
8159.00,1.41
8158.00,1.41
8157.00,1.41
8156.00,1.41
8155.00,1.42
8154.00,1.42
8153.00,1.42
8152.00,1.43
8151.00,1.43
8150.00,1.44
8149.00,1.44
8148.00,1.45
8147.00,1.45
8146.00,1.46
8145.00,1.46
8144.00,1.47
8143.00,1.47
8142.00,1.48
8141.00,1.48
8140.00,1.49
8139.00,1.49
8138.00,1.49
8137.00,1.50
8136.00,1.50
8135.00,1.50
8134.00,1.51
8133.00,1.51
8132.00,1.51
8131.00,1.51
8130.00,1.51
8129.00,1.51
8128.00,1.51
8127.00,1.51
8126.00,1.51
8125.00,1.50
8124.00,1.50
8123.00,1.50
8122.00,1.50
8121.00,1.49
8120.00,1.49
8119.00,1.49
8118.00,1.48
8117.00,1.48
8116.00,1.48
8115.00,1.48
8114.00,1.48
8113.00,1.47
8112.00,1.47
8111.00,1.47
8110.00,1.47
8109.00,1.47
8108.00,1.47
8107.00,1.47
8106.00,1.47
8105.00,1.47
8104.00,1.47
8103.00,1.48
8102.00,1.48
8101.00,1.48
8100.00,1.48
8099.00,1.48
8098.00,1.48
8097.00,1.48
8096.00,1.48
8095.00,1.48
8094.00,1.49
8093.00,1.49
8092.00,1.49
8091.00,1.49
8090.00,1.50
8089.00,1.50
8088.00,1.50
8087.00,1.51
8086.00,1.51
8085.00,1.51
8084.00,1.51
8083.00,1.51
8082.00,1.52
8081.00,1.52
8080.00,1.52
8079.00,1.52
8078.00,1.52
8077.00,1.52
8076.00,1.52
8075.00,1.52
8074.00,1.52
8073.00,1.52
8072.00,1.52
8071.00,1.51
8070.00,1.51
8069.00,1.51
8068.00,1.51
8067.00,1.51
8066.00,1.50
8065.00,1.50
8064.00,1.49
8063.00,1.49
8062.00,1.48
8061.00,1.48
8060.00,1.47
8059.00,1.47
8058.00,1.47
8057.00,1.46
8056.00,1.46
8055.00,1.46
8054.00,1.46
8053.00,1.46
8052.00,1.45
8051.00,1.46
8050.00,1.46
8049.00,1.46
8048.00,1.46
8047.00,1.46
8046.00,1.46
8045.00,1.46
8044.00,1.46
8043.00,1.47
8042.00,1.47
8041.00,1.47
8040.00,1.48
8039.00,1.48
8038.00,1.48
8037.00,1.49
8036.00,1.50
8035.00,1.50
8034.00,1.51
8033.00,1.51
8032.00,1.52
8031.00,1.52
8030.00,1.53
8029.00,1.53
8028.00,1.54
8027.00,1.54
8026.00,1.54
8025.00,1.55
8024.00,1.55
8023.00,1.55
8022.00,1.55
8021.00,1.55
8020.00,1.55
8019.00,1.55
8018.00,1.56
8017.00,1.56
8016.00,1.56
8015.00,1.56
8014.00,1.56
8013.00,1.56
8012.00,1.56
8011.00,1.56
8010.00,1.56
8009.00,1.56
8008.00,1.56
8007.00,1.56
8006.00,1.56
8005.00,1.56
8004.00,1.55
8003.00,1.55
8002.00,1.55
8001.00,1.55
8000.00,1.55
7999.00,1.55
7998.00,1.55
7997.00,1.55
7996.00,1.55
7995.00,1.55
7994.00,1.55
7993.00,1.55
7992.00,1.55
7991.00,1.55
7990.00,1.55
7989.00,1.54
7988.00,1.54
7987.00,1.54
7986.00,1.54
7985.00,1.54
7984.00,1.54
7983.00,1.54
7982.00,1.54
7981.00,1.54
7980.00,1.54
7979.00,1.54
7978.00,1.54
7977.00,1.54
7976.00,1.54
7975.00,1.54
7974.00,1.54
7973.00,1.54
7972.00,1.54
7971.00,1.54
7970.00,1.54
7969.00,1.55
7968.00,1.55
7967.00,1.55
7966.00,1.55
7965.00,1.55
7964.00,1.55
7963.00,1.55
7962.00,1.55
7961.00,1.55
7960.00,1.55
7959.00,1.55
7958.00,1.55
7957.00,1.54
7956.00,1.54
7955.00,1.54
7954.00,1.54
7953.00,1.54
7952.00,1.54
7951.00,1.54
7950.00,1.54
7949.00,1.54
7948.00,1.53
7947.00,1.53
7946.00,1.53
7945.00,1.53
7944.00,1.53
7943.00,1.53
7942.00,1.53
7941.00,1.53
7940.00,1.53
7939.00,1.53
7938.00,1.53
7937.00,1.53
7936.00,1.53
7935.00,1.53
7934.00,1.53
7933.00,1.54
7932.00,1.54
7931.00,1.54
7930.00,1.54
7929.00,1.55
7928.00,1.55
7927.00,1.55
7926.00,1.55
7925.00,1.55
7924.00,1.55
7923.00,1.55
7922.00,1.55
7921.00,1.55
7920.00,1.55
7919.00,1.55
7918.00,1.55
7917.00,1.55
7916.00,1.55
7915.00,1.55
7914.00,1.55
7913.00,1.55
7912.00,1.55
7911.00,1.54
7910.00,1.54
7909.00,1.54
7908.00,1.54
7907.00,1.54
7906.00,1.54
7905.00,1.54
7904.00,1.54
7903.00,1.54
7902.00,1.54
7901.00,1.54
7900.00,1.54
7899.00,1.54
7898.00,1.54
7897.00,1.54
7896.00,1.54
7895.00,1.54
7894.00,1.54
7893.00,1.55
7892.00,1.55
7891.00,1.55
7890.00,1.56
7889.00,1.56
7888.00,1.56
7887.00,1.57
7886.00,1.57
7885.00,1.57
7884.00,1.58
7883.00,1.58
7882.00,1.58
7881.00,1.58
7880.00,1.59
7879.00,1.59
7878.00,1.59
7877.00,1.59
7876.00,1.59
7875.00,1.60
7874.00,1.60
7873.00,1.60
7872.00,1.60
7871.00,1.60
7870.00,1.60
7869.00,1.61
7868.00,1.61
7867.00,1.61
7866.00,1.61
7865.00,1.61
7864.00,1.61
7863.00,1.61
7862.00,1.61
7861.00,1.61
7860.00,1.62
7859.00,1.62
7858.00,1.62
7857.00,1.62
7856.00,1.62
7855.00,1.62
7854.00,1.62
7853.00,1.62
7852.00,1.62
7851.00,1.62
7850.00,1.62
7849.00,1.62
7848.00,1.62
7847.00,1.62
7846.00,1.62
7845.00,1.62
7844.00,1.62
7843.00,1.62
7842.00,1.61
7841.00,1.61
7840.00,1.61
7839.00,1.61
7838.00,1.61
7837.00,1.60
7836.00,1.60
7835.00,1.60
7834.00,1.60
7833.00,1.60
7832.00,1.60
7831.00,1.59
7830.00,1.59
7829.00,1.59
7828.00,1.59
7827.00,1.59
7826.00,1.59
7825.00,1.59
7824.00,1.59
7823.00,1.59
7822.00,1.59
7821.00,1.59
7820.00,1.59
7819.00,1.59
7818.00,1.59
7817.00,1.59
7816.00,1.59
7815.00,1.59
7814.00,1.59
7813.00,1.59
7812.00,1.59
7811.00,1.59
7810.00,1.59
7809.00,1.59
7808.00,1.59
7807.00,1.59
7806.00,1.59
7805.00,1.59
7804.00,1.59
7803.00,1.59
7802.00,1.59
7801.00,1.58
7800.00,1.58
7799.00,1.58
7798.00,1.58
7797.00,1.57
7796.00,1.57
7795.00,1.57
7794.00,1.56
7793.00,1.56
7792.00,1.56
7791.00,1.55
7790.00,1.55
7789.00,1.55
7788.00,1.54
7787.00,1.54
7786.00,1.53
7785.00,1.53
7784.00,1.53
7783.00,1.52
7782.00,1.52
7781.00,1.51
7780.00,1.51
7779.00,1.51
7778.00,1.51
7777.00,1.50
7776.00,1.50
7775.00,1.50
7774.00,1.50
7773.00,1.50
7772.00,1.50
7771.00,1.50
7770.00,1.50
7769.00,1.50
7768.00,1.50
7767.00,1.50
7766.00,1.50
7765.00,1.50
7764.00,1.50
7763.00,1.50
7762.00,1.50
7761.00,1.50
7760.00,1.51
7759.00,1.51
7758.00,1.51
7757.00,1.52
7756.00,1.52
7755.00,1.52
7754.00,1.53
7753.00,1.53
7752.00,1.53
7751.00,1.54
7750.00,1.54
7749.00,1.54
7748.00,1.54
7747.00,1.55
7746.00,1.55
7745.00,1.55
7744.00,1.55
7743.00,1.56
7742.00,1.56
7741.00,1.56
7740.00,1.56
7739.00,1.56
7738.00,1.56
7737.00,1.56
7736.00,1.56
7735.00,1.56
7734.00,1.56
7733.00,1.56
7732.00,1.56
7731.00,1.56
7730.00,1.55
7729.00,1.55
7728.00,1.55
7727.00,1.55
7726.00,1.55
7725.00,1.55
7724.00,1.55
7723.00,1.55
7722.00,1.55
7721.00,1.55
7720.00,1.55
7719.00,1.55
7718.00,1.55
7717.00,1.55
7716.00,1.55
7715.00,1.55
7714.00,1.55
7713.00,1.55
7712.00,1.55
7711.00,1.55
7710.00,1.56
7709.00,1.56
7708.00,1.56
7707.00,1.56
7706.00,1.56
7705.00,1.56
7704.00,1.57
7703.00,1.57
7702.00,1.57
7701.00,1.57
7700.00,1.57
7699.00,1.57
7698.00,1.57
7697.00,1.57
7696.00,1.57
7695.00,1.57
7694.00,1.57
7693.00,1.57
7692.00,1.57
7691.00,1.57
7690.00,1.57
7689.00,1.57
7688.00,1.57
7687.00,1.57
7686.00,1.57
7685.00,1.57
7684.00,1.57
7683.00,1.57
7682.00,1.56
7681.00,1.56
7680.00,1.56
7679.00,1.56
7678.00,1.56
7677.00,1.56
7676.00,1.56
7675.00,1.56
7674.00,1.56
7673.00,1.56
7672.00,1.56
7671.00,1.56
7670.00,1.56
7669.00,1.56
7668.00,1.57
7667.00,1.57
7666.00,1.57
7665.00,1.57
7664.00,1.57
7663.00,1.57
7662.00,1.57
7661.00,1.57
7660.00,1.57
7659.00,1.57
7658.00,1.58
7657.00,1.58
7656.00,1.58
7655.00,1.58
7654.00,1.58
7653.00,1.58
7652.00,1.58
7651.00,1.58
7650.00,1.58
7649.00,1.59
7648.00,1.59
7647.00,1.59
7646.00,1.59
7645.00,1.59
7644.00,1.59
7643.00,1.58
7642.00,1.58
7641.00,1.58
7640.00,1.58
7639.00,1.58
7638.00,1.58
7637.00,1.58
7636.00,1.58
7635.00,1.58
7634.00,1.58
7633.00,1.58
7632.00,1.58
7631.00,1.58
7630.00,1.58
7629.00,1.58
7628.00,1.58
7627.00,1.58
7626.00,1.58
7625.00,1.58
7624.00,1.58
7623.00,1.58
7622.00,1.58
7621.00,1.58
7620.00,1.58
7619.00,1.59
7618.00,1.59
7617.00,1.59
7616.00,1.59
7615.00,1.59
7614.00,1.59
7613.00,1.60
7612.00,1.60
7611.00,1.60
7610.00,1.60
7609.00,1.60
7608.00,1.60
7607.00,1.60
7606.00,1.60
7605.00,1.60
7604.00,1.60
7603.00,1.60
7602.00,1.60
7601.00,1.60
7600.00,1.60
7599.00,1.60
7598.00,1.60
7597.00,1.60
7596.00,1.61
7595.00,1.61
7594.00,1.61
7593.00,1.61
7592.00,1.61
7591.00,1.61
7590.00,1.61
7589.00,1.61
7588.00,1.61
7587.00,1.61
7586.00,1.61
7585.00,1.61
7584.00,1.61
7583.00,1.61
7582.00,1.61
7581.00,1.61
7580.00,1.61
7579.00,1.61
7578.00,1.61
7577.00,1.61
7576.00,1.61
7575.00,1.60
7574.00,1.60
7573.00,1.60
7572.00,1.60
7571.00,1.60
7570.00,1.59
7569.00,1.59
7568.00,1.59
7567.00,1.59
7566.00,1.58
7565.00,1.58
7564.00,1.58
7563.00,1.57
7562.00,1.57
7561.00,1.57
7560.00,1.57
7559.00,1.57
7558.00,1.56
7557.00,1.56
7556.00,1.56
7555.00,1.56
7554.00,1.56
7553.00,1.56
7552.00,1.56
7551.00,1.56
7550.00,1.56
7549.00,1.56
7548.00,1.56
7547.00,1.56
7546.00,1.56
7545.00,1.56
7544.00,1.56
7543.00,1.56
7542.00,1.57
7541.00,1.57
7540.00,1.57
7539.00,1.57
7538.00,1.57
7537.00,1.58
7536.00,1.58
7535.00,1.58
7534.00,1.58
7533.00,1.59
7532.00,1.59
7531.00,1.59
7530.00,1.59
7529.00,1.59
7528.00,1.60
7527.00,1.60
7526.00,1.60
7525.00,1.60
7524.00,1.61
7523.00,1.61
7522.00,1.61
7521.00,1.61
7520.00,1.61
7519.00,1.61
7518.00,1.61
7517.00,1.61
7516.00,1.62
7515.00,1.62
7514.00,1.62
7513.00,1.62
7512.00,1.62
7511.00,1.62
7510.00,1.61
7509.00,1.61
7508.00,1.61
7507.00,1.61
7506.00,1.61
7505.00,1.61
7504.00,1.61
7503.00,1.60
7502.00,1.60
7501.00,1.60
7500.00,1.60
7499.00,1.59
7498.00,1.59
7497.00,1.59
7496.00,1.58
7495.00,1.58
7494.00,1.58
7493.00,1.57
7492.00,1.57
7491.00,1.57
7490.00,1.56
7489.00,1.56
7488.00,1.56
7487.00,1.56
7486.00,1.55
7485.00,1.55
7484.00,1.55
7483.00,1.55
7482.00,1.55
7481.00,1.54
7480.00,1.54
7479.00,1.54
7478.00,1.54
7477.00,1.54
7476.00,1.54
7475.00,1.54
7474.00,1.54
7473.00,1.54
7472.00,1.54
7471.00,1.54
7470.00,1.54
7469.00,1.55
7468.00,1.55
7467.00,1.55
7466.00,1.55
7465.00,1.55
7464.00,1.55
7463.00,1.55
7462.00,1.56
7461.00,1.56
7460.00,1.56
7459.00,1.56
7458.00,1.56
7457.00,1.56
7456.00,1.56
7455.00,1.56
7454.00,1.56
7453.00,1.56
7452.00,1.56
7451.00,1.56
7450.00,1.56
7449.00,1.56
7448.00,1.56
7447.00,1.56
7446.00,1.56
7445.00,1.56
7444.00,1.56
7443.00,1.55
7442.00,1.55
7441.00,1.55
7440.00,1.55
7439.00,1.54
7438.00,1.54
7437.00,1.54
7436.00,1.54
7435.00,1.54
7434.00,1.54
7433.00,1.54
7432.00,1.54
7431.00,1.54
7430.00,1.54
7429.00,1.55
7428.00,1.55
7427.00,1.55
7426.00,1.55
7425.00,1.56
7424.00,1.56
7423.00,1.56
7422.00,1.56
7421.00,1.57
7420.00,1.57
7419.00,1.57
7418.00,1.57
7417.00,1.58
7416.00,1.58
7415.00,1.59
7414.00,1.59
7413.00,1.59
7412.00,1.59
7411.00,1.60
7410.00,1.60
7409.00,1.60
7408.00,1.60
7407.00,1.60
7406.00,1.60
7405.00,1.60
7404.00,1.60
7403.00,1.59
7402.00,1.59
7401.00,1.59
7400.00,1.59
7399.00,1.58
7398.00,1.58
7397.00,1.58
7396.00,1.57
7395.00,1.57
7394.00,1.57
7393.00,1.57
7392.00,1.56
7391.00,1.56
7390.00,1.56
7389.00,1.55
7388.00,1.55
7387.00,1.55
7386.00,1.54
7385.00,1.54
7384.00,1.54
7383.00,1.53
7382.00,1.53
7381.00,1.53
7380.00,1.53
7379.00,1.52
7378.00,1.52
7377.00,1.52
7376.00,1.52
7375.00,1.52
7374.00,1.52
7373.00,1.52
7372.00,1.52
7371.00,1.52
7370.00,1.51
7369.00,1.51
7368.00,1.51
7367.00,1.51
7366.00,1.51
7365.00,1.51
7364.00,1.51
7363.00,1.51
7362.00,1.51
7361.00,1.51
7360.00,1.51
7359.00,1.51
7358.00,1.51
7357.00,1.51
7356.00,1.51
7355.00,1.51
7354.00,1.51
7353.00,1.51
7352.00,1.51
7351.00,1.51
7350.00,1.51
7349.00,1.51
7348.00,1.51
7347.00,1.51
7346.00,1.51
7345.00,1.51
7344.00,1.51
7343.00,1.51
7342.00,1.51
7341.00,1.51
7340.00,1.51
7339.00,1.51
7338.00,1.51
7337.00,1.51
7336.00,1.51
7335.00,1.51
7334.00,1.50
7333.00,1.50
7332.00,1.50
7331.00,1.50
7330.00,1.50
7329.00,1.51
7328.00,1.51
7327.00,1.51
7326.00,1.51
7325.00,1.51
7324.00,1.51
7323.00,1.51
7322.00,1.51
7321.00,1.51
7320.00,1.51
7319.00,1.51
7318.00,1.51
7317.00,1.51
7316.00,1.51
7315.00,1.52
7314.00,1.52
7313.00,1.52
7312.00,1.52
7311.00,1.52
7310.00,1.51
7309.00,1.51
7308.00,1.51
7307.00,1.51
7306.00,1.50
7305.00,1.50
7304.00,1.50
7303.00,1.49
7302.00,1.49
7301.00,1.49
7300.00,1.48
7299.00,1.48
7298.00,1.47
7297.00,1.47
7296.00,1.46
7295.00,1.46
7294.00,1.46
7293.00,1.45
7292.00,1.45
7291.00,1.45
7290.00,1.44
7289.00,1.44
7288.00,1.44
7287.00,1.44
7286.00,1.44
7285.00,1.44
7284.00,1.44
7283.00,1.44
7282.00,1.44
7281.00,1.44
7280.00,1.44
7279.00,1.44
7278.00,1.44
7277.00,1.44
7276.00,1.45
7275.00,1.45
7274.00,1.45
7273.00,1.45
7272.00,1.45
7271.00,1.46
7270.00,1.46
7269.00,1.46
7268.00,1.46
7267.00,1.46
7266.00,1.46
7265.00,1.46
7264.00,1.47
7263.00,1.47
7262.00,1.47
7261.00,1.47
7260.00,1.47
7259.00,1.47
7258.00,1.47
7257.00,1.47
7256.00,1.47
7255.00,1.47
7254.00,1.47
7253.00,1.47
7252.00,1.47
7251.00,1.47
7250.00,1.47
7249.00,1.47
7248.00,1.47
7247.00,1.47
7246.00,1.47
7245.00,1.47
7244.00,1.47
7243.00,1.47
7242.00,1.47
7241.00,1.47
7240.00,1.47
7239.00,1.47
7238.00,1.47
7237.00,1.47
7236.00,1.46
7235.00,1.46
7234.00,1.46
7233.00,1.46
7232.00,1.46
7231.00,1.46
7230.00,1.45
7229.00,1.45
7228.00,1.45
7227.00,1.44
7226.00,1.44
7225.00,1.43
7224.00,1.43
7223.00,1.43
7222.00,1.42
7221.00,1.42
7220.00,1.41
7219.00,1.41
7218.00,1.41
7217.00,1.40
7216.00,1.40
7215.00,1.40
7214.00,1.39
7213.00,1.39
7212.00,1.38
7211.00,1.38
7210.00,1.38
7209.00,1.37
7208.00,1.37
7207.00,1.37
7206.00,1.36
7205.00,1.36
7204.00,1.36
7203.00,1.36
7202.00,1.35
7201.00,1.35
7200.00,1.35
7199.00,1.35
7198.00,1.35
7197.00,1.34
7196.00,1.34
7195.00,1.34
7194.00,1.34
7193.00,1.33
7192.00,1.33
7191.00,1.33
7190.00,1.33
7189.00,1.32
7188.00,1.32
7187.00,1.32
7186.00,1.31
7185.00,1.31
7184.00,1.31
7183.00,1.31
7182.00,1.30
7181.00,1.30
7180.00,1.30
7179.00,1.30
7178.00,1.30
7177.00,1.29
7176.00,1.29
7175.00,1.29
7174.00,1.29
7173.00,1.28
7172.00,1.28
7171.00,1.28
7170.00,1.28
7169.00,1.28
7168.00,1.27
7167.00,1.27
7166.00,1.27
7165.00,1.27
7164.00,1.27
7163.00,1.26
7162.00,1.26
7161.00,1.26
7160.00,1.26
7159.00,1.25
7158.00,1.25
7157.00,1.25
7156.00,1.25
7155.00,1.24
7154.00,1.24
7153.00,1.24
7152.00,1.23
7151.00,1.23
7150.00,1.23
7149.00,1.22
7148.00,1.22
7147.00,1.22
7146.00,1.22
7145.00,1.21
7144.00,1.21
7143.00,1.21
7142.00,1.21
7141.00,1.21
7140.00,1.20
7139.00,1.20
7138.00,1.20
7137.00,1.20
7136.00,1.20
7135.00,1.20
7134.00,1.20
7133.00,1.20
7132.00,1.20
7131.00,1.20
7130.00,1.20
7129.00,1.20
7128.00,1.20
7127.00,1.20
7126.00,1.20
7125.00,1.20
7124.00,1.21
7123.00,1.21
7122.00,1.21
7121.00,1.21
7120.00,1.21
7119.00,1.21
7118.00,1.21
7117.00,1.21
7116.00,1.21
7115.00,1.21
7114.00,1.21
7113.00,1.20
7112.00,1.20
7111.00,1.20
7110.00,1.20
7109.00,1.20
7108.00,1.20
7107.00,1.20
7106.00,1.19
7105.00,1.19
7104.00,1.19
7103.00,1.19
7102.00,1.19
7101.00,1.19
7100.00,1.19
7099.00,1.19
7098.00,1.19
7097.00,1.19
7096.00,1.19
7095.00,1.18
7094.00,1.18
7093.00,1.18
7092.00,1.18
7091.00,1.17
7090.00,1.17
7089.00,1.17
7088.00,1.17
7087.00,1.16
7086.00,1.16
7085.00,1.16
7084.00,1.16
7083.00,1.15
7082.00,1.15
7081.00,1.15
7080.00,1.14
7079.00,1.14
7078.00,1.14
7077.00,1.13
7076.00,1.13
7075.00,1.12
7074.00,1.12
7073.00,1.11
7072.00,1.11
7071.00,1.10
7070.00,1.10
7069.00,1.10
7068.00,1.09
7067.00,1.09
7066.00,1.08
7065.00,1.08
7064.00,1.08
7063.00,1.08
7062.00,1.07
7061.00,1.07
7060.00,1.07
7059.00,1.06
7058.00,1.06
7057.00,1.06
7056.00,1.06
7055.00,1.06
7054.00,1.05
7053.00,1.05
7052.00,1.05
7051.00,1.05
7050.00,1.05
7049.00,1.04
7048.00,1.04
7047.00,1.04
7046.00,1.04
7045.00,1.04
7044.00,1.04
7043.00,1.03
7042.00,1.03
7041.00,1.03
7040.00,1.03
7039.00,1.03
7038.00,1.03
7037.00,1.02
7036.00,1.02
7035.00,1.02
7034.00,1.02
7033.00,1.02
7032.00,1.02
7031.00,1.02
7030.00,1.01
7029.00,1.01
7028.00,1.01
7027.00,1.01
7026.00,1.01
7025.00,1.00
7024.00,1.00
7023.00,1.00
7022.00,1.00
7021.00,1.00
7020.00,1.00
7019.00,0.99
7018.00,0.99
7017.00,0.99
7016.00,0.99
7015.00,0.99
7014.00,0.99
7013.00,0.99
7012.00,0.99
7011.00,0.99
7010.00,0.98
7009.00,0.98
7008.00,0.98
7007.00,0.98
7006.00,0.98
7005.00,0.98
7004.00,0.98
7003.00,0.98
7002.00,0.98
7001.00,0.98
7000.00,0.98
6999.00,0.98
6998.00,0.99
6997.00,0.99
6996.00,0.99
6995.00,0.99
6994.00,0.99
6993.00,0.99
6992.00,0.99
6991.00,0.99
6990.00,0.99
6989.00,0.99
6988.00,0.99
6987.00,0.99
6986.00,0.99
6985.00,0.99
6984.00,0.99
6983.00,0.99
6982.00,0.99
6981.00,0.99
6980.00,0.99
6979.00,0.99
6978.00,0.98
6977.00,0.98
6976.00,0.98
6975.00,0.98
6974.00,0.98
6973.00,0.98
6972.00,0.98
6971.00,0.97
6970.00,0.97
6969.00,0.97
6968.00,0.97
6967.00,0.97
6966.00,0.97
6965.00,0.97
6964.00,0.96
6963.00,0.96
6962.00,0.96
6961.00,0.96
6960.00,0.96
6959.00,0.96
6958.00,0.96
6957.00,0.96
6956.00,0.96
6955.00,0.96
6954.00,0.96
6953.00,0.95
6952.00,0.95
6951.00,0.95
6950.00,0.95
6949.00,0.95
6948.00,0.95
6947.00,0.95
6946.00,0.95
6945.00,0.95
6944.00,0.95
6943.00,0.95
6942.00,0.95
6941.00,0.95
6940.00,0.95
6939.00,0.95
6938.00,0.95
6937.00,0.95
6936.00,0.95
6935.00,0.95
6934.00,0.95
6933.00,0.95
6932.00,0.95
6931.00,0.95
6930.00,0.95
6929.00,0.95
6928.00,0.95
6927.00,0.95
6926.00,0.95
6925.00,0.95
6924.00,0.95
6923.00,0.95
6922.00,0.95
6921.00,0.95
6920.00,0.95
6919.00,0.94
6918.00,0.94
6917.00,0.94
6916.00,0.94
6915.00,0.94
6914.00,0.94
6913.00,0.94
6912.00,0.94
6911.00,0.94
6910.00,0.94
6909.00,0.94
6908.00,0.94
6907.00,0.94
6906.00,0.94
6905.00,0.94
6904.00,0.93
6903.00,0.93
6902.00,0.93
6901.00,0.93
6900.00,0.93
6899.00,0.93
6898.00,0.94
6897.00,0.94
6896.00,0.94
6895.00,0.94
6894.00,0.94
6893.00,0.94
6892.00,0.94
6891.00,0.94
6890.00,0.94
6889.00,0.94
6888.00,0.94
6887.00,0.94
6886.00,0.95
6885.00,0.95
6884.00,0.95
6883.00,0.95
6882.00,0.95
6881.00,0.95
6880.00,0.95
6879.00,0.95
6878.00,0.95
6877.00,0.95
6876.00,0.95
6875.00,0.95
6874.00,0.95
6873.00,0.95
6872.00,0.95
6871.00,0.95
6870.00,0.95
6869.00,0.95
6868.00,0.95
6867.00,0.95
6866.00,0.95
6865.00,0.95
6864.00,0.95
6863.00,0.95
6862.00,0.95
6861.00,0.96
6860.00,0.96
6859.00,0.96
6858.00,0.96
6857.00,0.96
6856.00,0.96
6855.00,0.96
6854.00,0.97
6853.00,0.97
6852.00,0.97
6851.00,0.97
6850.00,0.98
6849.00,0.98
6848.00,0.98
6847.00,0.98
6846.00,0.98
6845.00,0.98
6844.00,0.98
6843.00,0.99
6842.00,0.99
6841.00,0.99
6840.00,0.99
6839.00,0.99
6838.00,0.99
6837.00,0.99
6836.00,0.99
6835.00,0.99
6834.00,0.99
6833.00,0.99
6832.00,0.99
6831.00,0.99
6830.00,0.99
6829.00,0.99
6828.00,0.99
6827.00,0.99
6826.00,0.99
6825.00,0.99
6824.00,0.99
6823.00,0.99
6822.00,0.99
6821.00,0.99
6820.00,0.99
6819.00,0.99
6818.00,0.99
6817.00,0.99
6816.00,0.99
6815.00,0.99
6814.00,0.99
6813.00,0.99
6812.00,0.99
6811.00,1.00
6810.00,1.00
6809.00,1.00
6808.00,1.00
6807.00,1.00
6806.00,1.00
6805.00,1.00
6804.00,1.00
6803.00,1.00
6802.00,1.00
6801.00,1.00
6800.00,1.00
6799.00,1.00
6798.00,1.00
6797.00,1.00
6796.00,1.00
6795.00,1.00
6794.00,1.00
6793.00,1.00
6792.00,1.00
6791.00,1.00
6790.00,0.99
6789.00,0.99
6788.00,0.99
6787.00,0.99
6786.00,0.99
6785.00,0.99
6784.00,0.99
6783.00,0.99
6782.00,0.99
6781.00,0.98
6780.00,0.98
6779.00,0.98
6778.00,0.98
6777.00,0.98
6776.00,0.98
6775.00,0.98
6774.00,0.97
6773.00,0.97
6772.00,0.97
6771.00,0.97
6770.00,0.97
6769.00,0.97
6768.00,0.97
6767.00,0.97
6766.00,0.97
6765.00,0.97
6764.00,0.98
6763.00,0.98
6762.00,0.98
6761.00,0.98
6760.00,0.98
6759.00,0.98
6758.00,0.98
6757.00,0.98
6756.00,0.98
6755.00,0.99
6754.00,0.99
6753.00,0.99
6752.00,0.99
6751.00,0.99
6750.00,1.00
6749.00,1.00
6748.00,1.00
6747.00,1.00
6746.00,1.00
6745.00,1.00
6744.00,1.01
6743.00,1.01
6742.00,1.01
6741.00,1.01
6740.00,1.01
6739.00,1.01
6738.00,1.01
6737.00,1.01
6736.00,1.01
6735.00,1.01
6734.00,1.02
6733.00,1.02
6732.00,1.02
6731.00,1.02
6730.00,1.02
6729.00,1.02
6728.00,1.02
6727.00,1.02
6726.00,1.02
6725.00,1.02
6724.00,1.02
6723.00,1.02
6722.00,1.02
6721.00,1.02
6720.00,1.02
6719.00,1.02
6718.00,1.03
6717.00,1.03
6716.00,1.03
6715.00,1.03
6714.00,1.03
6713.00,1.03
6712.00,1.03
6711.00,1.03
6710.00,1.03
6709.00,1.03
6708.00,1.03
6707.00,1.03
6706.00,1.03
6705.00,1.03
6704.00,1.03
6703.00,1.03
6702.00,1.03
6701.00,1.03
6700.00,1.03
6699.00,1.03
6698.00,1.03
6697.00,1.03
6696.00,1.03
6695.00,1.03
6694.00,1.03
6693.00,1.03
6692.00,1.03
6691.00,1.03
6690.00,1.03
6689.00,1.03
6688.00,1.03
6687.00,1.03
6686.00,1.03
6685.00,1.04
6684.00,1.04
6683.00,1.04
6682.00,1.04
6681.00,1.04
6680.00,1.04
6679.00,1.05
6678.00,1.05
6677.00,1.05
6676.00,1.05
6675.00,1.06
6674.00,1.06
6673.00,1.06
6672.00,1.07
6671.00,1.07
6670.00,1.07
6669.00,1.08
6668.00,1.08
6667.00,1.08
6666.00,1.08
6665.00,1.09
6664.00,1.09
6663.00,1.09
6662.00,1.10
6661.00,1.10
6660.00,1.10
6659.00,1.11
6658.00,1.11
6657.00,1.11
6656.00,1.11
6655.00,1.12
6654.00,1.12
6653.00,1.12
6652.00,1.12
6651.00,1.13
6650.00,1.13
6649.00,1.13
6648.00,1.13
6647.00,1.13
6646.00,1.13
6645.00,1.13
6644.00,1.14
6643.00,1.14
6642.00,1.14
6641.00,1.14
6640.00,1.14
6639.00,1.14
6638.00,1.14
6637.00,1.14
6636.00,1.14
6635.00,1.14
6634.00,1.14
6633.00,1.14
6632.00,1.14
6631.00,1.14
6630.00,1.14
6629.00,1.14
6628.00,1.14
6627.00,1.14
6626.00,1.14
6625.00,1.14
6624.00,1.14
6623.00,1.14
6622.00,1.14
6621.00,1.14
6620.00,1.14
6619.00,1.14
6618.00,1.14
6617.00,1.14
6616.00,1.14
6615.00,1.14
6614.00,1.14
6613.00,1.14
6612.00,1.14
6611.00,1.14
6610.00,1.14
6609.00,1.14
6608.00,1.14
6607.00,1.15
6606.00,1.15
6605.00,1.15
6604.00,1.15
6603.00,1.15
6602.00,1.15
6601.00,1.15
6600.00,1.15
6599.00,1.15
6598.00,1.15
6597.00,1.15
6596.00,1.15
6595.00,1.15
6594.00,1.16
6593.00,1.16
6592.00,1.16
6591.00,1.16
6590.00,1.16
6589.00,1.16
6588.00,1.16
6587.00,1.16
6586.00,1.16
6585.00,1.16
6584.00,1.16
6583.00,1.16
6582.00,1.16
6581.00,1.16
6580.00,1.16
6579.00,1.16
6578.00,1.16
6577.00,1.16
6576.00,1.16
6575.00,1.17
6574.00,1.17
6573.00,1.17
6572.00,1.17
6571.00,1.17
6570.00,1.17
6569.00,1.17
6568.00,1.17
6567.00,1.17
6566.00,1.18
6565.00,1.18
6564.00,1.18
6563.00,1.18
6562.00,1.18
6561.00,1.18
6560.00,1.18
6559.00,1.18
6558.00,1.18
6557.00,1.18
6556.00,1.18
6555.00,1.19
6554.00,1.19
6553.00,1.19
6552.00,1.19
6551.00,1.19
6550.00,1.19
6549.00,1.19
6548.00,1.20
6547.00,1.20
6546.00,1.20
6545.00,1.20
6544.00,1.20
6543.00,1.20
6542.00,1.20
6541.00,1.20
6540.00,1.21
6539.00,1.21
6538.00,1.21
6537.00,1.21
6536.00,1.21
6535.00,1.21
6534.00,1.22
6533.00,1.22
6532.00,1.22
6531.00,1.22
6530.00,1.22
6529.00,1.23
6528.00,1.23
6527.00,1.23
6526.00,1.23
6525.00,1.23
6524.00,1.23
6523.00,1.23
6522.00,1.23
6521.00,1.24
6520.00,1.24
6519.00,1.24
6518.00,1.24
6517.00,1.24
6516.00,1.24
6515.00,1.25
6514.00,1.25
6513.00,1.25
6512.00,1.25
6511.00,1.25
6510.00,1.25
6509.00,1.25
6508.00,1.25
6507.00,1.25
6506.00,1.25
6505.00,1.25
6504.00,1.26
6503.00,1.26
6502.00,1.26
6501.00,1.26
6500.00,1.26
6499.00,1.26
6498.00,1.26
6497.00,1.26
6496.00,1.26
6495.00,1.26
6494.00,1.26
6493.00,1.26
6492.00,1.27
6491.00,1.27
6490.00,1.27
6489.00,1.27
6488.00,1.27
6487.00,1.27
6486.00,1.27
6485.00,1.27
6484.00,1.27
6483.00,1.28
6482.00,1.28
6481.00,1.28
6480.00,1.28
6479.00,1.28
6478.00,1.28
6477.00,1.28
6476.00,1.29
6475.00,1.29
6474.00,1.29
6473.00,1.29
6472.00,1.29
6471.00,1.29
6470.00,1.29
6469.00,1.29
6468.00,1.29
6467.00,1.29
6466.00,1.29
6465.00,1.29
6464.00,1.29
6463.00,1.30
6462.00,1.30
6461.00,1.30
6460.00,1.30
6459.00,1.30
6458.00,1.30
6457.00,1.29
6456.00,1.29
6455.00,1.29
6454.00,1.29
6453.00,1.29
6452.00,1.29
6451.00,1.29
6450.00,1.29
6449.00,1.29
6448.00,1.29
6447.00,1.29
6446.00,1.29
6445.00,1.29
6444.00,1.30
6443.00,1.30
6442.00,1.30
6441.00,1.30
6440.00,1.30
6439.00,1.30
6438.00,1.30
6437.00,1.30
6436.00,1.30
6435.00,1.31
6434.00,1.31
6433.00,1.31
6432.00,1.31
6431.00,1.31
6430.00,1.31
6429.00,1.32
6428.00,1.32
6427.00,1.32
6426.00,1.32
6425.00,1.32
6424.00,1.33
6423.00,1.33
6422.00,1.33
6421.00,1.33
6420.00,1.33
6419.00,1.33
6418.00,1.33
6417.00,1.33
6416.00,1.33
6415.00,1.33
6414.00,1.33
6413.00,1.34
6412.00,1.34
6411.00,1.34
6410.00,1.34
6409.00,1.34
6408.00,1.34
6407.00,1.34
6406.00,1.34
6405.00,1.34
6404.00,1.34
6403.00,1.34
6402.00,1.34
6401.00,1.34
6400.00,1.34
6399.00,1.34
6398.00,1.34
6397.00,1.34
6396.00,1.35
6395.00,1.35
6394.00,1.35
6393.00,1.35
6392.00,1.35
6391.00,1.35
6390.00,1.35
6389.00,1.35
6388.00,1.35
6387.00,1.35
6386.00,1.35
6385.00,1.35
6384.00,1.35
6383.00,1.35
6382.00,1.35
6381.00,1.35
6380.00,1.35
6379.00,1.35
6378.00,1.35
6377.00,1.35
6376.00,1.35
6375.00,1.35
6374.00,1.35
6373.00,1.35
6372.00,1.35
6371.00,1.35
6370.00,1.35
6369.00,1.35
6368.00,1.35
6367.00,1.35
6366.00,1.35
6365.00,1.35
6364.00,1.35
6363.00,1.35
6362.00,1.34
6361.00,1.34
6360.00,1.34
6359.00,1.34
6358.00,1.34
6357.00,1.35
6356.00,1.35
6355.00,1.35
6354.00,1.35
6353.00,1.35
6352.00,1.35
6351.00,1.35
6350.00,1.35
6349.00,1.35
6348.00,1.35
6347.00,1.35
6346.00,1.35
6345.00,1.35
6344.00,1.35
6343.00,1.35
6342.00,1.35
6341.00,1.35
6340.00,1.35
6339.00,1.35
6338.00,1.36
6337.00,1.36
6336.00,1.36
6335.00,1.36
6334.00,1.36
6333.00,1.36
6332.00,1.36
6331.00,1.36
6330.00,1.36
6329.00,1.36
6328.00,1.36
6327.00,1.36
6326.00,1.36
6325.00,1.36
6324.00,1.36
6323.00,1.36
6322.00,1.36
6321.00,1.36
6320.00,1.36
6319.00,1.36
6318.00,1.36
6317.00,1.36
6316.00,1.36
6315.00,1.36
6314.00,1.37
6313.00,1.37
6312.00,1.37
6311.00,1.37
6310.00,1.37
6309.00,1.37
6308.00,1.37
6307.00,1.38
6306.00,1.38
6305.00,1.38
6304.00,1.38
6303.00,1.38
6302.00,1.38
6301.00,1.39
6300.00,1.39
6299.00,1.39
6298.00,1.39
6297.00,1.39
6296.00,1.40
6295.00,1.40
6294.00,1.40
6293.00,1.40
6292.00,1.40
6291.00,1.40
6290.00,1.41
6289.00,1.41
6288.00,1.41
6287.00,1.41
6286.00,1.41
6285.00,1.41
6284.00,1.41
6283.00,1.41
6282.00,1.41
6281.00,1.41
6280.00,1.41
6279.00,1.41
6278.00,1.41
6277.00,1.41
6276.00,1.41
6275.00,1.41
6274.00,1.41
6273.00,1.41
6272.00,1.41
6271.00,1.41
6270.00,1.41
6269.00,1.41
6268.00,1.41
6267.00,1.41
6266.00,1.41
6265.00,1.41
6264.00,1.41
6263.00,1.41
6262.00,1.41
6261.00,1.41
6260.00,1.41
6259.00,1.41
6258.00,1.41
6257.00,1.41
6256.00,1.41
6255.00,1.41
6254.00,1.41
6253.00,1.41
6252.00,1.41
6251.00,1.41
6250.00,1.41
6249.00,1.41
6248.00,1.41
6247.00,1.42
6246.00,1.42
6245.00,1.42
6244.00,1.42
6243.00,1.42
6242.00,1.42
6241.00,1.42
6240.00,1.42
6239.00,1.42
6238.00,1.43
6237.00,1.43
6236.00,1.43
6235.00,1.43
6234.00,1.43
6233.00,1.43
6232.00,1.43
6231.00,1.44
6230.00,1.44
6229.00,1.44
6228.00,1.44
6227.00,1.44
6226.00,1.45
6225.00,1.45
6224.00,1.45
6223.00,1.45
6222.00,1.45
6221.00,1.46
6220.00,1.46
6219.00,1.46
6218.00,1.46
6217.00,1.46
6216.00,1.47
6215.00,1.47
6214.00,1.47
6213.00,1.47
6212.00,1.48
6211.00,1.48
6210.00,1.48
6209.00,1.48
6208.00,1.49
6207.00,1.49
6206.00,1.49
6205.00,1.49
6204.00,1.49
6203.00,1.49
6202.00,1.49
6201.00,1.50
6200.00,1.50
6199.00,1.50
6198.00,1.50
6197.00,1.50
6196.00,1.50
6195.00,1.50
6194.00,1.50
6193.00,1.50
6192.00,1.50
6191.00,1.50
6190.00,1.50
6189.00,1.50
6188.00,1.50
6187.00,1.50
6186.00,1.50
6185.00,1.50
6184.00,1.50
6183.00,1.49
6182.00,1.49
6181.00,1.49
6180.00,1.49
6179.00,1.49
6178.00,1.49
6177.00,1.49
6176.00,1.49
6175.00,1.49
6174.00,1.49
6173.00,1.49
6172.00,1.49
6171.00,1.49
6170.00,1.49
6169.00,1.49
6168.00,1.49
6167.00,1.49
6166.00,1.49
6165.00,1.49
6164.00,1.50
6163.00,1.50
6162.00,1.50
6161.00,1.50
6160.00,1.50
6159.00,1.51
6158.00,1.51
6157.00,1.51
6156.00,1.51
6155.00,1.52
6154.00,1.52
6153.00,1.52
6152.00,1.53
6151.00,1.53
6150.00,1.53
6149.00,1.54
6148.00,1.54
6147.00,1.54
6146.00,1.54
6145.00,1.55
6144.00,1.55
6143.00,1.55
6142.00,1.55
6141.00,1.55
6140.00,1.56
6139.00,1.56
6138.00,1.56
6137.00,1.56
6136.00,1.56
6135.00,1.56
6134.00,1.56
6133.00,1.56
6132.00,1.56
6131.00,1.56
6130.00,1.56
6129.00,1.56
6128.00,1.56
6127.00,1.56
6126.00,1.56
6125.00,1.56
6124.00,1.56
6123.00,1.56
6122.00,1.56
6121.00,1.56
6120.00,1.56
6119.00,1.56
6118.00,1.56
6117.00,1.56
6116.00,1.56
6115.00,1.56
6114.00,1.56
6113.00,1.56
6112.00,1.56
6111.00,1.56
6110.00,1.56
6109.00,1.56
6108.00,1.56
6107.00,1.56
6106.00,1.56
6105.00,1.56
6104.00,1.56
6103.00,1.56
6102.00,1.56
6101.00,1.56
6100.00,1.56
6099.00,1.56
6098.00,1.56
6097.00,1.56
6096.00,1.56
6095.00,1.56
6094.00,1.57
6093.00,1.57
6092.00,1.57
6091.00,1.57
6090.00,1.57
6089.00,1.57
6088.00,1.57
6087.00,1.57
6086.00,1.57
6085.00,1.57
6084.00,1.57
6083.00,1.57
6082.00,1.57
6081.00,1.57
6080.00,1.57
6079.00,1.57
6078.00,1.58
6077.00,1.58
6076.00,1.58
6075.00,1.58
6074.00,1.58
6073.00,1.58
6072.00,1.58
6071.00,1.58
6070.00,1.59
6069.00,1.59
6068.00,1.59
6067.00,1.59
6066.00,1.59
6065.00,1.59
6064.00,1.59
6063.00,1.60
6062.00,1.60
6061.00,1.60
6060.00,1.60
6059.00,1.60
6058.00,1.60
6057.00,1.61
6056.00,1.61
6055.00,1.61
6054.00,1.61
6053.00,1.61
6052.00,1.61
6051.00,1.61
6050.00,1.61
6049.00,1.61
6048.00,1.62
6047.00,1.62
6046.00,1.62
6045.00,1.62
6044.00,1.62
6043.00,1.62
6042.00,1.62
6041.00,1.62
6040.00,1.62
6039.00,1.62
6038.00,1.62
6037.00,1.62
6036.00,1.62
6035.00,1.62
6034.00,1.62
6033.00,1.62
6032.00,1.62
6031.00,1.62
6030.00,1.62
6029.00,1.62
6028.00,1.62
6027.00,1.62
6026.00,1.62
6025.00,1.62
6024.00,1.62
6023.00,1.62
6022.00,1.62
6021.00,1.62
6020.00,1.62
6019.00,1.62
6018.00,1.62
6017.00,1.62
6016.00,1.62
6015.00,1.62
6014.00,1.61
6013.00,1.61
6012.00,1.61
6011.00,1.61
6010.00,1.61
6009.00,1.61
6008.00,1.61
6007.00,1.61
6006.00,1.61
6005.00,1.61
6004.00,1.61
6003.00,1.61
6002.00,1.61
6001.00,1.61
6000.00,1.61
5999.00,1.61
5998.00,1.60
5997.00,1.60
5996.00,1.60
5995.00,1.60
5994.00,1.60
5993.00,1.60
5992.00,1.60
5991.00,1.60
5990.00,1.60
5989.00,1.59
5988.00,1.59
5987.00,1.59
5986.00,1.59
5985.00,1.59
5984.00,1.59
5983.00,1.59
5982.00,1.59
5981.00,1.58
5980.00,1.58
5979.00,1.58
5978.00,1.58
5977.00,1.58
5976.00,1.58
5975.00,1.58
5974.00,1.57
5973.00,1.57
5972.00,1.57
5971.00,1.57
5970.00,1.57
5969.00,1.57
5968.00,1.56
5967.00,1.56
5966.00,1.56
5965.00,1.56
5964.00,1.55
5963.00,1.55
5962.00,1.55
5961.00,1.55
5960.00,1.55
5959.00,1.54
5958.00,1.54
5957.00,1.54
5956.00,1.54
5955.00,1.54
5954.00,1.53
5953.00,1.53
5952.00,1.53
5951.00,1.53
5950.00,1.52
5949.00,1.52
5948.00,1.52
5947.00,1.51
5946.00,1.51
5945.00,1.51
5944.00,1.51
5943.00,1.50
5942.00,1.50
5941.00,1.50
5940.00,1.49
5939.00,1.49
5938.00,1.49
5937.00,1.49
5936.00,1.48
5935.00,1.48
5934.00,1.48
5933.00,1.48
5932.00,1.47
5931.00,1.47
5930.00,1.47
5929.00,1.46
5928.00,1.46
5927.00,1.46
5926.00,1.46
5925.00,1.45
5924.00,1.45
5923.00,1.45
5922.00,1.45
5921.00,1.45
5920.00,1.44
5919.00,1.44
5918.00,1.44
5917.00,1.44
5916.00,1.44
5915.00,1.44
5914.00,1.43
5913.00,1.43
5912.00,1.43
5911.00,1.43
5910.00,1.43
5909.00,1.43
5908.00,1.43
5907.00,1.43
5906.00,1.43
5905.00,1.43
5904.00,1.43
5903.00,1.43
5902.00,1.43
5901.00,1.43
5900.00,1.43
5899.00,1.43
5898.00,1.43
5897.00,1.44
5896.00,1.44
5895.00,1.44
5894.00,1.44
5893.00,1.44
5892.00,1.44
5891.00,1.44
5890.00,1.45
5889.00,1.45
5888.00,1.45
5887.00,1.45
5886.00,1.46
5885.00,1.46
5884.00,1.46
5883.00,1.47
5882.00,1.47
5881.00,1.47
5880.00,1.47
5879.00,1.48
5878.00,1.48
5877.00,1.48
5876.00,1.48
5875.00,1.48
5874.00,1.49
5873.00,1.49
5872.00,1.49
5871.00,1.49
5870.00,1.49
5869.00,1.49
5868.00,1.50
5867.00,1.50
5866.00,1.50
5865.00,1.50
5864.00,1.50
5863.00,1.50
5862.00,1.50
5861.00,1.50
5860.00,1.50
5859.00,1.50
5858.00,1.50
5857.00,1.50
5856.00,1.50
5855.00,1.50
5854.00,1.50
5853.00,1.50
5852.00,1.50
5851.00,1.50
5850.00,1.50
5849.00,1.50
5848.00,1.50
5847.00,1.50
5846.00,1.50
5845.00,1.50
5844.00,1.50
5843.00,1.50
5842.00,1.50
5841.00,1.50
5840.00,1.50
5839.00,1.50
5838.00,1.50
5837.00,1.50
5836.00,1.50
5835.00,1.50
5834.00,1.50
5833.00,1.50
5832.00,1.50
5831.00,1.51
5830.00,1.51
5829.00,1.51
5828.00,1.51
5827.00,1.51
5826.00,1.51
5825.00,1.51
5824.00,1.51
5823.00,1.51
5822.00,1.51
5821.00,1.51
5820.00,1.51
5819.00,1.51
5818.00,1.51
5817.00,1.51
5816.00,1.51
5815.00,1.51
5814.00,1.51
5813.00,1.51
5812.00,1.51
5811.00,1.51
5810.00,1.50
5809.00,1.50
5808.00,1.50
5807.00,1.50
5806.00,1.50
5805.00,1.50
5804.00,1.50
5803.00,1.50
5802.00,1.50
5801.00,1.50
5800.00,1.50
5799.00,1.50
5798.00,1.49
5797.00,1.49
5796.00,1.49
5795.00,1.49
5794.00,1.49
5793.00,1.49
5792.00,1.49
5791.00,1.48
5790.00,1.48
5789.00,1.48
5788.00,1.48
5787.00,1.48
5786.00,1.48
5785.00,1.47
5784.00,1.47
5783.00,1.47
5782.00,1.47
5781.00,1.47
5780.00,1.47
5779.00,1.47
5778.00,1.47
5777.00,1.47
5776.00,1.46
5775.00,1.46
5774.00,1.46
5773.00,1.46
5772.00,1.46
5771.00,1.46
5770.00,1.46
5769.00,1.46
5768.00,1.46
5767.00,1.46
5766.00,1.46
5765.00,1.46
5764.00,1.47
5763.00,1.47
5762.00,1.47
5761.00,1.47
5760.00,1.47
5759.00,1.47
5758.00,1.48
5757.00,1.48
5756.00,1.48
5755.00,1.48
5754.00,1.48
5753.00,1.48
5752.00,1.49
5751.00,1.49
5750.00,1.49
5749.00,1.49
5748.00,1.49
5747.00,1.50
5746.00,1.50
5745.00,1.50
5744.00,1.50
5743.00,1.50
5742.00,1.51
5741.00,1.51
5740.00,1.51
5739.00,1.51
5738.00,1.51
5737.00,1.51
5736.00,1.52
5735.00,1.52
5734.00,1.52
5733.00,1.52
5732.00,1.52
5731.00,1.52
5730.00,1.52
5729.00,1.52
5728.00,1.53
5727.00,1.53
5726.00,1.53
5725.00,1.53
5724.00,1.53
5723.00,1.53
5722.00,1.53
5721.00,1.53
5720.00,1.53
5719.00,1.53
5718.00,1.53
5717.00,1.53
5716.00,1.53
5715.00,1.52
5714.00,1.52
5713.00,1.52
5712.00,1.52
5711.00,1.52
5710.00,1.52
5709.00,1.52
5708.00,1.52
5707.00,1.52
5706.00,1.51
5705.00,1.51
5704.00,1.51
5703.00,1.51
5702.00,1.51
5701.00,1.50
5700.00,1.50
5699.00,1.50
5698.00,1.50
5697.00,1.50
5696.00,1.49
5695.00,1.49
5694.00,1.49
5693.00,1.49
5692.00,1.49
5691.00,1.49
5690.00,1.49
5689.00,1.49
5688.00,1.49
5687.00,1.48
5686.00,1.48
5685.00,1.48
5684.00,1.48
5683.00,1.48
5682.00,1.48
5681.00,1.48
5680.00,1.48
5679.00,1.48
5678.00,1.49
5677.00,1.49
5676.00,1.49
5675.00,1.49
5674.00,1.49
5673.00,1.49
5672.00,1.49
5671.00,1.49
5670.00,1.49
5669.00,1.50
5668.00,1.50
5667.00,1.50
5666.00,1.50
5665.00,1.50
5664.00,1.50
5663.00,1.50
5662.00,1.50
5661.00,1.50
5660.00,1.50
5659.00,1.50
5658.00,1.50
5657.00,1.50
5656.00,1.50
5655.00,1.50
5654.00,1.51
5653.00,1.51
5652.00,1.51
5651.00,1.51
5650.00,1.51
5649.00,1.51
5648.00,1.51
5647.00,1.51
5646.00,1.51
5645.00,1.51
5644.00,1.51
5643.00,1.51
5642.00,1.51
5641.00,1.51
5640.00,1.51
5639.00,1.51
5638.00,1.51
5637.00,1.51
5636.00,1.51
5635.00,1.51
5634.00,1.51
5633.00,1.51
5632.00,1.51
5631.00,1.51
5630.00,1.51
5629.00,1.51
5628.00,1.52
5627.00,1.52
5626.00,1.52
5625.00,1.52
5624.00,1.52
5623.00,1.52
5622.00,1.52
5621.00,1.53
5620.00,1.53
5619.00,1.53
5618.00,1.53
5617.00,1.53
5616.00,1.53
5615.00,1.53
5614.00,1.53
5613.00,1.54
5612.00,1.54
5611.00,1.54
5610.00,1.54
5609.00,1.54
5608.00,1.54
5607.00,1.54
5606.00,1.54
5605.00,1.55
5604.00,1.55
5603.00,1.55
5602.00,1.55
5601.00,1.55
5600.00,1.55
5599.00,1.55
5598.00,1.55
5597.00,1.55
5596.00,1.56
5595.00,1.56
5594.00,1.56
5593.00,1.56
5592.00,1.56
5591.00,1.56
5590.00,1.56
5589.00,1.56
5588.00,1.57
5587.00,1.57
5586.00,1.57
5585.00,1.57
5584.00,1.57
5583.00,1.57
5582.00,1.57
5581.00,1.57
5580.00,1.58
5579.00,1.58
5578.00,1.58
5577.00,1.58
5576.00,1.58
5575.00,1.58
5574.00,1.58
5573.00,1.58
5572.00,1.58
5571.00,1.59
5570.00,1.59
5569.00,1.59
5568.00,1.59
5567.00,1.59
5566.00,1.59
5565.00,1.59
5564.00,1.60
5563.00,1.60
5562.00,1.60
5561.00,1.60
5560.00,1.60
5559.00,1.60
5558.00,1.61
5557.00,1.61
5556.00,1.61
5555.00,1.61
5554.00,1.61
5553.00,1.61
5552.00,1.62
5551.00,1.62
5550.00,1.62
5549.00,1.62
5548.00,1.62
5547.00,1.63
5546.00,1.63
5545.00,1.63
5544.00,1.63
5543.00,1.63
5542.00,1.63
5541.00,1.63
5540.00,1.64
5539.00,1.64
5538.00,1.64
5537.00,1.64
5536.00,1.64
5535.00,1.64
5534.00,1.64
5533.00,1.64
5532.00,1.64
5531.00,1.64
5530.00,1.64
5529.00,1.64
5528.00,1.64
5527.00,1.64
5526.00,1.64
5525.00,1.64
5524.00,1.64
5523.00,1.64
5522.00,1.64
5521.00,1.64
5520.00,1.64
5519.00,1.64
5518.00,1.64
5517.00,1.64
5516.00,1.64
5515.00,1.64
5514.00,1.64
5513.00,1.64
5512.00,1.64
5511.00,1.64
5510.00,1.64
5509.00,1.64
5508.00,1.64
5507.00,1.64
5506.00,1.64
5505.00,1.63
5504.00,1.63
5503.00,1.63
5502.00,1.63
5501.00,1.63
5500.00,1.63
5499.00,1.63
5498.00,1.64
5497.00,1.64
5496.00,1.64
5495.00,1.64
5494.00,1.64
5493.00,1.64
5492.00,1.64
5491.00,1.64
5490.00,1.64
5489.00,1.64
5488.00,1.64
5487.00,1.64
5486.00,1.64
5485.00,1.64
5484.00,1.64
5483.00,1.64
5482.00,1.64
5481.00,1.64
5480.00,1.65
5479.00,1.65
5478.00,1.65
5477.00,1.65
5476.00,1.65
5475.00,1.65
5474.00,1.65
5473.00,1.65
5472.00,1.65
5471.00,1.65
5470.00,1.65
5469.00,1.65
5468.00,1.65
5467.00,1.65
5466.00,1.65
5465.00,1.65
5464.00,1.65
5463.00,1.66
5462.00,1.66
5461.00,1.66
5460.00,1.66
5459.00,1.66
5458.00,1.66
5457.00,1.65
5456.00,1.65
5455.00,1.65
5454.00,1.65
5453.00,1.65
5452.00,1.65
5451.00,1.65
5450.00,1.65
5449.00,1.65
5448.00,1.65
5447.00,1.65
5446.00,1.65
5445.00,1.65
5444.00,1.65
5443.00,1.65
5442.00,1.65
5441.00,1.65
5440.00,1.65
5439.00,1.65
5438.00,1.65
5437.00,1.65
5436.00,1.65
5435.00,1.65
5434.00,1.65
5433.00,1.65
5432.00,1.65
5431.00,1.66
5430.00,1.66
5429.00,1.66
5428.00,1.66
5427.00,1.66
5426.00,1.66
5425.00,1.66
5424.00,1.66
5423.00,1.66
5422.00,1.66
5421.00,1.66
5420.00,1.66
5419.00,1.66
5418.00,1.66
5417.00,1.66
5416.00,1.66
5415.00,1.66
5414.00,1.66
5413.00,1.66
5412.00,1.66
5411.00,1.66
5410.00,1.66
5409.00,1.66
5408.00,1.65
5407.00,1.65
5406.00,1.65
5405.00,1.65
5404.00,1.65
5403.00,1.65
5402.00,1.64
5401.00,1.64
5400.00,1.64
5399.00,1.64
5398.00,1.64
5397.00,1.63
5396.00,1.63
5395.00,1.63
5394.00,1.63
5393.00,1.63
5392.00,1.63
5391.00,1.62
5390.00,1.62
5389.00,1.62
5388.00,1.62
5387.00,1.62
5386.00,1.62
5385.00,1.62
5384.00,1.61
5383.00,1.61
5382.00,1.61
5381.00,1.61
5380.00,1.61
5379.00,1.61
5378.00,1.61
5377.00,1.61
5376.00,1.61
5375.00,1.60
5374.00,1.60
5373.00,1.60
5372.00,1.60
5371.00,1.60
5370.00,1.59
5369.00,1.59
5368.00,1.59
5367.00,1.59
5366.00,1.58
5365.00,1.58
5364.00,1.58
5363.00,1.57
5362.00,1.57
5361.00,1.56
5360.00,1.56
5359.00,1.55
5358.00,1.55
5357.00,1.54
5356.00,1.54
5355.00,1.53
5354.00,1.52
5353.00,1.52
5352.00,1.51
5351.00,1.50
5350.00,1.50
5349.00,1.49
5348.00,1.48
5347.00,1.47
5346.00,1.46
5345.00,1.45
5344.00,1.45
5343.00,1.44
5342.00,1.43
5341.00,1.42
5340.00,1.41
5339.00,1.40
5338.00,1.39
5337.00,1.38
5336.00,1.37
5335.00,1.36
5334.00,1.35
5333.00,1.34
5332.00,1.33
5331.00,1.32
5330.00,1.31
5329.00,1.30
5328.00,1.29
5327.00,1.28
5326.00,1.26
5325.00,1.25
5324.00,1.24
5323.00,1.23
5322.00,1.22
5321.00,1.21
5320.00,1.20
5319.00,1.19
5318.00,1.17
5317.00,1.16
5316.00,1.15
5315.00,1.14
5314.00,1.13
5313.00,1.11
5312.00,1.10
5311.00,1.09
5310.00,1.08
5309.00,1.07
5308.00,1.05
5307.00,1.04
5306.00,1.03
5305.00,1.02
5304.00,1.01
5303.00,0.99
5302.00,0.98
5301.00,0.97
5300.00,0.96
5299.00,0.95
5298.00,0.94
5297.00,0.93
5296.00,0.92
5295.00,0.91
5294.00,0.90
5293.00,0.89
5292.00,0.88
5291.00,0.87
5290.00,0.86
5289.00,0.86
5288.00,0.85
5287.00,0.84
5286.00,0.83
5285.00,0.83
5284.00,0.82
5283.00,0.82
5282.00,0.81
5281.00,0.80
5280.00,0.80
5279.00,0.79
5278.00,0.79
5277.00,0.78
5276.00,0.78
5275.00,0.77
5274.00,0.77
5273.00,0.76
5272.00,0.76
5271.00,0.75
5270.00,0.75
5269.00,0.74
5268.00,0.74
5267.00,0.73
5266.00,0.73
5265.00,0.72
5264.00,0.72
5263.00,0.72
5262.00,0.71
5261.00,0.71
5260.00,0.70
5259.00,0.70
5258.00,0.70
5257.00,0.69
5256.00,0.69
5255.00,0.69
5254.00,0.68
5253.00,0.68
5252.00,0.68
5251.00,0.68
5250.00,0.67
5249.00,0.67
5248.00,0.67
5247.00,0.67
5246.00,0.67
5245.00,0.66
5244.00,0.66
5243.00,0.66
5242.00,0.66
5241.00,0.66
5240.00,0.66
5239.00,0.66
5238.00,0.66
5237.00,0.66
5236.00,0.66
5235.00,0.65
5234.00,0.65
5233.00,0.65
5232.00,0.65
5231.00,0.65
5230.00,0.65
5229.00,0.65
5228.00,0.65
5227.00,0.65
5226.00,0.64
5225.00,0.64
5224.00,0.64
5223.00,0.64
5222.00,0.64
5221.00,0.64
5220.00,0.64
5219.00,0.64
5218.00,0.63
5217.00,0.63
5216.00,0.63
5215.00,0.63
5214.00,0.63
5213.00,0.63
5212.00,0.62
5211.00,0.62
5210.00,0.62
5209.00,0.62
5208.00,0.62
5207.00,0.62
5206.00,0.61
5205.00,0.61
5204.00,0.61
5203.00,0.61
5202.00,0.61
5201.00,0.61
5200.00,0.61
5199.00,0.61
5198.00,0.60
5197.00,0.60
5196.00,0.60
5195.00,0.60
5194.00,0.60
5193.00,0.60
5192.00,0.60
5191.00,0.60
5190.00,0.60
5189.00,0.60
5188.00,0.60
5187.00,0.60
5186.00,0.60
5185.00,0.60
5184.00,0.60
5183.00,0.60
5182.00,0.60
5181.00,0.60
5180.00,0.60
5179.00,0.60
5178.00,0.60
5177.00,0.60
5176.00,0.60
5175.00,0.60
5174.00,0.60
5173.00,0.60
5172.00,0.60
5171.00,0.60
5170.00,0.60
5169.00,0.61
5168.00,0.61
5167.00,0.61
5166.00,0.61
5165.00,0.61
5164.00,0.61
5163.00,0.61
5162.00,0.61
5161.00,0.61
5160.00,0.61
5159.00,0.61
5158.00,0.61
5157.00,0.61
5156.00,0.61
5155.00,0.61
5154.00,0.61
5153.00,0.61
5152.00,0.61
5151.00,0.61
5150.00,0.61
5149.00,0.61
5148.00,0.61
5147.00,0.61
5146.00,0.61
5145.00,0.62
5144.00,0.62
5143.00,0.62
5142.00,0.62
5141.00,0.62
5140.00,0.62
5139.00,0.62
5138.00,0.62
5137.00,0.62
5136.00,0.62
5135.00,0.62
5134.00,0.62
5133.00,0.62
5132.00,0.62
5131.00,0.62
5130.00,0.62
5129.00,0.62
5128.00,0.62
5127.00,0.63
5126.00,0.63
5125.00,0.63
5124.00,0.63
5123.00,0.63
5122.00,0.63
5121.00,0.64
5120.00,0.64
5119.00,0.64
5118.00,0.64
5117.00,0.64
5116.00,0.65
5115.00,0.65
5114.00,0.65
5113.00,0.65
5112.00,0.66
5111.00,0.66
5110.00,0.66
5109.00,0.66
5108.00,0.66
5107.00,0.66
5106.00,0.66
5105.00,0.67
5104.00,0.67
5103.00,0.67
5102.00,0.67
5101.00,0.67
5100.00,0.67
5099.00,0.67
5098.00,0.68
5097.00,0.68
5096.00,0.68
5095.00,0.68
5094.00,0.68
5093.00,0.68
5092.00,0.68
5091.00,0.68
5090.00,0.69
5089.00,0.69
5088.00,0.69
5087.00,0.69
5086.00,0.69
5085.00,0.69
5084.00,0.69
5083.00,0.69
5082.00,0.69
5081.00,0.70
5080.00,0.70
5079.00,0.70
5078.00,0.70
5077.00,0.70
5076.00,0.71
5075.00,0.71
5074.00,0.71
5073.00,0.71
5072.00,0.71
5071.00,0.72
5070.00,0.72
5069.00,0.72
5068.00,0.72
5067.00,0.72
5066.00,0.72
5065.00,0.73
5064.00,0.73
5063.00,0.73
5062.00,0.73
5061.00,0.74
5060.00,0.74
5059.00,0.74
5058.00,0.74
5057.00,0.75
5056.00,0.75
5055.00,0.75
5054.00,0.75
5053.00,0.75
5052.00,0.76
5051.00,0.76
5050.00,0.76
5049.00,0.76
5048.00,0.76
5047.00,0.76
5046.00,0.77
5045.00,0.77
5044.00,0.77
5043.00,0.77
5042.00,0.78
5041.00,0.78
5040.00,0.78
5039.00,0.78
5038.00,0.79
5037.00,0.79
5036.00,0.79
5035.00,0.79
5034.00,0.79
5033.00,0.80
5032.00,0.80
5031.00,0.80
5030.00,0.80
5029.00,0.80
5028.00,0.81
5027.00,0.81
5026.00,0.81
5025.00,0.81
5024.00,0.82
5023.00,0.82
5022.00,0.82
5021.00,0.82
5020.00,0.83
5019.00,0.83
5018.00,0.83
5017.00,0.83
5016.00,0.84
5015.00,0.84
5014.00,0.84
5013.00,0.84
5012.00,0.84
5011.00,0.85
5010.00,0.85
5009.00,0.85
5008.00,0.85
5007.00,0.86
5006.00,0.86
5005.00,0.86
5004.00,0.86
5003.00,0.87
5002.00,0.87
5001.00,0.87
5000.00,0.87
4999.00,0.87
4998.00,0.88
4997.00,0.88
4996.00,0.88
4995.00,0.88
4994.00,0.88
4993.00,0.88
4992.00,0.89
4991.00,0.89
4990.00,0.89
4989.00,0.89
4988.00,0.89
4987.00,0.90
4986.00,0.90
4985.00,0.90
4984.00,0.90
4983.00,0.90
4982.00,0.90
4981.00,0.91
4980.00,0.91
4979.00,0.91
4978.00,0.91
4977.00,0.91
4976.00,0.92
4975.00,0.92
4974.00,0.92
4973.00,0.93
4972.00,0.93
4971.00,0.93
4970.00,0.93
4969.00,0.94
4968.00,0.94
4967.00,0.94
4966.00,0.94
4965.00,0.95
4964.00,0.95
4963.00,0.95
4962.00,0.95
4961.00,0.96
4960.00,0.96
4959.00,0.96
4958.00,0.96
4957.00,0.97
4956.00,0.97
4955.00,0.97
4954.00,0.97
4953.00,0.97
4952.00,0.97
4951.00,0.98
4950.00,0.98
4949.00,0.98
4948.00,0.98
4947.00,0.98
4946.00,0.98
4945.00,0.98
4944.00,0.98
4943.00,0.99
4942.00,0.99
4941.00,0.99
4940.00,0.99
4939.00,0.99
4938.00,0.99
4937.00,1.00
4936.00,1.00
4935.00,1.00
4934.00,1.00
4933.00,1.00
4932.00,1.01
4931.00,1.01
4930.00,1.01
4929.00,1.02
4928.00,1.02
4927.00,1.02
4926.00,1.02
4925.00,1.03
4924.00,1.03
4923.00,1.03
4922.00,1.03
4921.00,1.03
4920.00,1.04
4919.00,1.04
4918.00,1.04
4917.00,1.04
4916.00,1.04
4915.00,1.04
4914.00,1.05
4913.00,1.05
4912.00,1.05
4911.00,1.05
4910.00,1.05
4909.00,1.05
4908.00,1.06
4907.00,1.06
4906.00,1.06
4905.00,1.06
4904.00,1.06
4903.00,1.06
4902.00,1.06
4901.00,1.06
4900.00,1.06
4899.00,1.07
4898.00,1.07
4897.00,1.07
4896.00,1.07
4895.00,1.07
4894.00,1.07
4893.00,1.07
4892.00,1.07
4891.00,1.07
4890.00,1.07
4889.00,1.08
4888.00,1.08
4887.00,1.08
4886.00,1.08
4885.00,1.08
4884.00,1.08
4883.00,1.08
4882.00,1.08
4881.00,1.08
4880.00,1.08
4879.00,1.08
4878.00,1.08
4877.00,1.08
4876.00,1.08
4875.00,1.09
4874.00,1.09
4873.00,1.09
4872.00,1.09
4871.00,1.09
4870.00,1.09
4869.00,1.09
4868.00,1.09
4867.00,1.10
4866.00,1.10
4865.00,1.10
4864.00,1.10
4863.00,1.10
4862.00,1.10
4861.00,1.11
4860.00,1.11
4859.00,1.11
4858.00,1.11
4857.00,1.11
4856.00,1.11
4855.00,1.11
4854.00,1.12
4853.00,1.12
4852.00,1.12
4851.00,1.12
4850.00,1.12
4849.00,1.13
4848.00,1.13
4847.00,1.13
4846.00,1.13
4845.00,1.13
4844.00,1.13
4843.00,1.14
4842.00,1.14
4841.00,1.14
4840.00,1.14
4839.00,1.14
4838.00,1.14
4837.00,1.14
4836.00,1.15
4835.00,1.15
4834.00,1.15
4833.00,1.15
4832.00,1.16
4831.00,1.16
4830.00,1.16
4829.00,1.16
4828.00,1.17
4827.00,1.17
4826.00,1.17
4825.00,1.17
4824.00,1.18
4823.00,1.18
4822.00,1.18
4821.00,1.18
4820.00,1.18
4819.00,1.18
4818.00,1.19
4817.00,1.19
4816.00,1.19
4815.00,1.19
4814.00,1.19
4813.00,1.19
4812.00,1.19
4811.00,1.19
4810.00,1.20
4809.00,1.20
4808.00,1.20
4807.00,1.20
4806.00,1.20
4805.00,1.20
4804.00,1.20
4803.00,1.20
4802.00,1.20
4801.00,1.20
4800.00,1.20
4799.00,1.21
4798.00,1.21
4797.00,1.21
4796.00,1.21
4795.00,1.21
4794.00,1.22
4793.00,1.22
4792.00,1.22
4791.00,1.22
4790.00,1.23
4789.00,1.23
4788.00,1.23
4787.00,1.23
4786.00,1.24
4785.00,1.24
4784.00,1.24
4783.00,1.25
4782.00,1.25
4781.00,1.25
4780.00,1.25
4779.00,1.26
4778.00,1.26
4777.00,1.26
4776.00,1.26
4775.00,1.26
4774.00,1.27
4773.00,1.27
4772.00,1.27
4771.00,1.27
4770.00,1.27
4769.00,1.27
4768.00,1.28
4767.00,1.28
4766.00,1.28
4765.00,1.28
4764.00,1.29
4763.00,1.29
4762.00,1.29
4761.00,1.29
4760.00,1.29
4759.00,1.30
4758.00,1.30
4757.00,1.30
4756.00,1.30
4755.00,1.31
4754.00,1.31
4753.00,1.31
4752.00,1.32
4751.00,1.32
4750.00,1.32
4749.00,1.33
4748.00,1.33
4747.00,1.33
4746.00,1.34
4745.00,1.34
4744.00,1.34
4743.00,1.35
4742.00,1.35
4741.00,1.35
4740.00,1.35
4739.00,1.36
4738.00,1.36
4737.00,1.36
4736.00,1.37
4735.00,1.37
4734.00,1.38
4733.00,1.38
4732.00,1.38
4731.00,1.39
4730.00,1.39
4729.00,1.39
4728.00,1.39
4727.00,1.40
4726.00,1.40
4725.00,1.40
4724.00,1.41
4723.00,1.41
4722.00,1.41
4721.00,1.41
4720.00,1.42
4719.00,1.42
4718.00,1.42
4717.00,1.43
4716.00,1.43
4715.00,1.43
4714.00,1.43
4713.00,1.44
4712.00,1.44
4711.00,1.44
4710.00,1.44
4709.00,1.44
4708.00,1.45
4707.00,1.45
4706.00,1.45
4705.00,1.45
4704.00,1.45
4703.00,1.46
4702.00,1.46
4701.00,1.46
4700.00,1.46
4699.00,1.46
4698.00,1.46
4697.00,1.47
4696.00,1.47
4695.00,1.47
4694.00,1.47
4693.00,1.47
4692.00,1.47
4691.00,1.48
4690.00,1.48
4689.00,1.48
4688.00,1.48
4687.00,1.48
4686.00,1.49
4685.00,1.49
4684.00,1.49
4683.00,1.49
4682.00,1.49
4681.00,1.50
4680.00,1.50
4679.00,1.50
4678.00,1.50
4677.00,1.50
4676.00,1.50
4675.00,1.51
4674.00,1.51
4673.00,1.51
4672.00,1.51
4671.00,1.51
4670.00,1.51
4669.00,1.51
4668.00,1.51
4667.00,1.51
4666.00,1.52
4665.00,1.52
4664.00,1.52
4663.00,1.52
4662.00,1.52
4661.00,1.52
4660.00,1.52
4659.00,1.52
4658.00,1.52
4657.00,1.52
4656.00,1.52
4655.00,1.52
4654.00,1.52
4653.00,1.52
4652.00,1.52
4651.00,1.52
4650.00,1.52
4649.00,1.52
4648.00,1.52
4647.00,1.52
4646.00,1.52
4645.00,1.52
4644.00,1.52
4643.00,1.52
4642.00,1.52
4641.00,1.52
4640.00,1.53
4639.00,1.53
4638.00,1.53
4637.00,1.53
4636.00,1.53
4635.00,1.53
4634.00,1.54
4633.00,1.54
4632.00,1.54
4631.00,1.54
4630.00,1.54
4629.00,1.54
4628.00,1.54
4627.00,1.55
4626.00,1.55
4625.00,1.55
4624.00,1.55
4623.00,1.55
4622.00,1.55
4621.00,1.55
4620.00,1.56
4619.00,1.56
4618.00,1.56
4617.00,1.56
4616.00,1.56
4615.00,1.56
4614.00,1.57
4613.00,1.57
4612.00,1.57
4611.00,1.57
4610.00,1.57
4609.00,1.57
4608.00,1.58
4607.00,1.58
4606.00,1.58
4605.00,1.58
4604.00,1.58
4603.00,1.58
4602.00,1.59
4601.00,1.59
4600.00,1.59
4599.00,1.59
4598.00,1.59
4597.00,1.59
4596.00,1.59
4595.00,1.60
4594.00,1.60
4593.00,1.60
4592.00,1.60
4591.00,1.60
4590.00,1.60
4589.00,1.60
4588.00,1.60
4587.00,1.60
4586.00,1.60
4585.00,1.60
4584.00,1.60
4583.00,1.60
4582.00,1.60
4581.00,1.60
4580.00,1.60
4579.00,1.60
4578.00,1.60
4577.00,1.60
4576.00,1.60
4575.00,1.60
4574.00,1.60
4573.00,1.60
4572.00,1.60
4571.00,1.60
4570.00,1.60
4569.00,1.60
4568.00,1.60
4567.00,1.60
4566.00,1.60
4565.00,1.60
4564.00,1.60
4563.00,1.60
4562.00,1.60
4561.00,1.60
4560.00,1.60
4559.00,1.60
4558.00,1.60
4557.00,1.61
4556.00,1.61
4555.00,1.61
4554.00,1.61
4553.00,1.61
4552.00,1.61
4551.00,1.62
4550.00,1.62
4549.00,1.62
4548.00,1.62
4547.00,1.62
4546.00,1.62
4545.00,1.63
4544.00,1.63
4543.00,1.63
4542.00,1.63
4541.00,1.63
4540.00,1.63
4539.00,1.63
4538.00,1.64
4537.00,1.64
4536.00,1.64
4535.00,1.64
4534.00,1.64
4533.00,1.64
4532.00,1.64
4531.00,1.65
4530.00,1.65
4529.00,1.65
4528.00,1.65
4527.00,1.65
4526.00,1.65
4525.00,1.65
4524.00,1.65
4523.00,1.65
4522.00,1.65
4521.00,1.65
4520.00,1.65
4519.00,1.65
4518.00,1.65
4517.00,1.65
4516.00,1.65
4515.00,1.65
4514.00,1.65
4513.00,1.65
4512.00,1.65
4511.00,1.65
4510.00,1.64
4509.00,1.64
4508.00,1.64
4507.00,1.64
4506.00,1.64
4505.00,1.64
4504.00,1.64
4503.00,1.64
4502.00,1.63
4501.00,1.63
4500.00,1.63
4499.00,1.63
4498.00,1.63
4497.00,1.62
4496.00,1.62
4495.00,1.62
4494.00,1.62
4493.00,1.62
4492.00,1.62
4491.00,1.61
4490.00,1.61
4489.00,1.61
4488.00,1.61
4487.00,1.61
4486.00,1.60
4485.00,1.60
4484.00,1.60
4483.00,1.60
4482.00,1.60
4481.00,1.60
4480.00,1.59
4479.00,1.59
4478.00,1.59
4477.00,1.59
4476.00,1.59
4475.00,1.58
4474.00,1.58
4473.00,1.58
4472.00,1.58
4471.00,1.58
4470.00,1.57
4469.00,1.57
4468.00,1.57
4467.00,1.56
4466.00,1.56
4465.00,1.56
4464.00,1.55
4463.00,1.55
4462.00,1.55
4461.00,1.54
4460.00,1.54
4459.00,1.53
4458.00,1.53
4457.00,1.52
4456.00,1.52
4455.00,1.51
4454.00,1.51
4453.00,1.50
4452.00,1.49
4451.00,1.49
4450.00,1.48
4449.00,1.47
4448.00,1.46
4447.00,1.46
4446.00,1.45
4445.00,1.44
4444.00,1.43
4443.00,1.42
4442.00,1.41
4441.00,1.41
4440.00,1.40
4439.00,1.39
4438.00,1.38
4437.00,1.37
4436.00,1.36
4435.00,1.35
4434.00,1.34
4433.00,1.33
4432.00,1.32
4431.00,1.31
4430.00,1.30
4429.00,1.29
4428.00,1.28
4427.00,1.27
4426.00,1.26
4425.00,1.26
4424.00,1.25
4423.00,1.24
4422.00,1.23
4421.00,1.22
4420.00,1.22
4419.00,1.21
4418.00,1.20
4417.00,1.20
4416.00,1.19
4415.00,1.19
4414.00,1.18
4413.00,1.18
4412.00,1.17
4411.00,1.17
4410.00,1.16
4409.00,1.16
4408.00,1.16
4407.00,1.16
4406.00,1.15
4405.00,1.15
4404.00,1.15
4403.00,1.16
4402.00,1.16
4401.00,1.16
4400.00,1.16
4399.00,1.16
4398.00,1.17
4397.00,1.17
4396.00,1.17
4395.00,1.18
4394.00,1.18
4393.00,1.18
4392.00,1.19
4391.00,1.19
4390.00,1.20
4389.00,1.20
4388.00,1.21
4387.00,1.22
4386.00,1.22
4385.00,1.23
4384.00,1.24
4383.00,1.24
4382.00,1.25
4381.00,1.26
4380.00,1.26
4379.00,1.26
4378.00,1.27
4377.00,1.27
4376.00,1.28
4375.00,1.28
4374.00,1.28
4373.00,1.28
4372.00,1.29
4371.00,1.29
4370.00,1.29
4369.00,1.29
4368.00,1.29
4367.00,1.29
4366.00,1.29
4365.00,1.28
4364.00,1.28
4363.00,1.28
4362.00,1.27
4361.00,1.27
4360.00,1.26
4359.00,1.26
4358.00,1.25
4357.00,1.25
4356.00,1.24
4355.00,1.23
4354.00,1.23
4353.00,1.22
4352.00,1.22
4351.00,1.21
4350.00,1.21
4349.00,1.20
4348.00,1.20
4347.00,1.20
4346.00,1.19
4345.00,1.19
4344.00,1.19
4343.00,1.18
4342.00,1.18
4341.00,1.18
4340.00,1.18
4339.00,1.18
4338.00,1.18
4337.00,1.19
4336.00,1.19
4335.00,1.19
4334.00,1.20
4333.00,1.20
4332.00,1.21
4331.00,1.21
4330.00,1.22
4329.00,1.23
4328.00,1.23
4327.00,1.24
4326.00,1.25
4325.00,1.25
4324.00,1.26
4323.00,1.27
4322.00,1.28
4321.00,1.28
4320.00,1.29
4319.00,1.30
4318.00,1.31
4317.00,1.32
4316.00,1.33
4315.00,1.33
4314.00,1.34
4313.00,1.35
4312.00,1.36
4311.00,1.37
4310.00,1.38
4309.00,1.38
4308.00,1.39
4307.00,1.40
4306.00,1.41
4305.00,1.41
4304.00,1.42
4303.00,1.43
4302.00,1.44
4301.00,1.44
4300.00,1.45
4299.00,1.46
4298.00,1.46
4297.00,1.47
4296.00,1.48
4295.00,1.48
4294.00,1.49
4293.00,1.49
4292.00,1.50
4291.00,1.50
4290.00,1.51
4289.00,1.51
4288.00,1.51
4287.00,1.52
4286.00,1.52
4285.00,1.52
4284.00,1.52
4283.00,1.52
4282.00,1.52
4281.00,1.52
4280.00,1.52
4279.00,1.52
4278.00,1.52
4277.00,1.52
4276.00,1.52
4275.00,1.52
4274.00,1.52
4273.00,1.52
4272.00,1.52
4271.00,1.51
4270.00,1.51
4269.00,1.51
4268.00,1.51
4267.00,1.50
4266.00,1.50
4265.00,1.50
4264.00,1.50
4263.00,1.50
4262.00,1.50
4261.00,1.50
4260.00,1.50
4259.00,1.50
4258.00,1.50
4257.00,1.50
4256.00,1.50
4255.00,1.50
4254.00,1.50
4253.00,1.50
4252.00,1.50
4251.00,1.50
4250.00,1.50
4249.00,1.50
4248.00,1.51
4247.00,1.51
4246.00,1.51
4245.00,1.51
4244.00,1.52
4243.00,1.52
4242.00,1.52
4241.00,1.52
4240.00,1.53
4239.00,1.53
4238.00,1.53
4237.00,1.54
4236.00,1.54
4235.00,1.54
4234.00,1.55
4233.00,1.55
4232.00,1.55
4231.00,1.56
4230.00,1.56
4229.00,1.57
4228.00,1.57
4227.00,1.57
4226.00,1.58
4225.00,1.58
4224.00,1.58
4223.00,1.59
4222.00,1.59
4221.00,1.59
4220.00,1.59
4219.00,1.59
4218.00,1.60
4217.00,1.60
4216.00,1.60
4215.00,1.60
4214.00,1.60
4213.00,1.60
4212.00,1.60
4211.00,1.60
4210.00,1.60
4209.00,1.60
4208.00,1.60
4207.00,1.60
4206.00,1.60
4205.00,1.59
4204.00,1.59
4203.00,1.58
4202.00,1.58
4201.00,1.58
4200.00,1.57
4199.00,1.57
4198.00,1.56
4197.00,1.56
4196.00,1.55
4195.00,1.55
4194.00,1.54
4193.00,1.54
4192.00,1.54
4191.00,1.53
4190.00,1.53
4189.00,1.52
4188.00,1.52
4187.00,1.51
4186.00,1.51
4185.00,1.51
4184.00,1.50
4183.00,1.50
4182.00,1.50
4181.00,1.50
4180.00,1.49
4179.00,1.49
4178.00,1.49
4177.00,1.49
4176.00,1.49
4175.00,1.50
4174.00,1.50
4173.00,1.50
4172.00,1.50
4171.00,1.50
4170.00,1.50
4169.00,1.50
4168.00,1.50
4167.00,1.50
4166.00,1.51
4165.00,1.51
4164.00,1.51
4163.00,1.51
4162.00,1.51
4161.00,1.51
4160.00,1.51
4159.00,1.52
4158.00,1.52
4157.00,1.52
4156.00,1.52
4155.00,1.52
4154.00,1.52
4153.00,1.52
4152.00,1.53
4151.00,1.53
4150.00,1.53
4149.00,1.53
4148.00,1.53
4147.00,1.53
4146.00,1.53
4145.00,1.53
4144.00,1.54
4143.00,1.54
4142.00,1.54
4141.00,1.54
4140.00,1.54
4139.00,1.54
4138.00,1.54
4137.00,1.54
4136.00,1.54
4135.00,1.54
4134.00,1.55
4133.00,1.55
4132.00,1.55
4131.00,1.55
4130.00,1.55
4129.00,1.55
4128.00,1.55
4127.00,1.55
4126.00,1.55
4125.00,1.55
4124.00,1.55
4123.00,1.55
4122.00,1.55
4121.00,1.55
4120.00,1.55
4119.00,1.55
4118.00,1.54
4117.00,1.54
4116.00,1.54
4115.00,1.54
4114.00,1.54
4113.00,1.53
4112.00,1.53
4111.00,1.53
4110.00,1.53
4109.00,1.53
4108.00,1.53
4107.00,1.52
4106.00,1.52
4105.00,1.52
4104.00,1.52
4103.00,1.52
4102.00,1.52
4101.00,1.51
4100.00,1.51
4099.00,1.51
4098.00,1.50
4097.00,1.50
4096.00,1.50
4095.00,1.50
4094.00,1.50
4093.00,1.50
4092.00,1.50
4091.00,1.50
4090.00,1.50
4089.00,1.50
4088.00,1.50
4087.00,1.50
4086.00,1.50
4085.00,1.50
4084.00,1.50
4083.00,1.50
4082.00,1.50
4081.00,1.50
4080.00,1.49
4079.00,1.49
4078.00,1.49
4077.00,1.49
4076.00,1.49
4075.00,1.49
4074.00,1.49
4073.00,1.48
4072.00,1.48
4071.00,1.48
4070.00,1.48
4069.00,1.48
4068.00,1.47
4067.00,1.47
4066.00,1.47
4065.00,1.46
4064.00,1.46
4063.00,1.45
4062.00,1.45
4061.00,1.45
4060.00,1.44
4059.00,1.44
4058.00,1.44
4057.00,1.44
4056.00,1.44
4055.00,1.43
4054.00,1.43
4053.00,1.43
4052.00,1.43
4051.00,1.43
4050.00,1.43
4049.00,1.43
4048.00,1.43
4047.00,1.43
4046.00,1.43
4045.00,1.43
4044.00,1.44
4043.00,1.44
4042.00,1.44
4041.00,1.44
4040.00,1.45
4039.00,1.45
4038.00,1.45
4037.00,1.45
4036.00,1.45
4035.00,1.45
4034.00,1.46
4033.00,1.46
4032.00,1.46
4031.00,1.46
4030.00,1.46
4029.00,1.46
4028.00,1.47
4027.00,1.47
4026.00,1.47
4025.00,1.47
4024.00,1.48
4023.00,1.48
4022.00,1.49
4021.00,1.49
4020.00,1.50
4019.00,1.51
4018.00,1.51
4017.00,1.52
4016.00,1.53
4015.00,1.54
4014.00,1.55
4013.00,1.56
4012.00,1.58
4011.00,1.60
4010.00,1.61
4009.00,1.63
4008.00,1.65
4007.00,1.67
4006.00,1.69
4005.00,1.71
4004.00,1.73
4003.00,1.76
4002.00,1.78
4001.00,1.80
4000.00,1.83
