创建为新数据集,样品 898 用户 Administrator 日期 星期一, 七月 29 2019
cm-1,%T
10000.00,1.53
9999.00,1.53
9998.00,1.53
9997.00,1.53
9996.00,1.53
9995.00,1.54
9994.00,1.54
9993.00,1.54
9992.00,1.54
9991.00,1.54
9990.00,1.53
9989.00,1.53
9988.00,1.53
9987.00,1.54
9986.00,1.54
9985.00,1.54
9984.00,1.54
9983.00,1.54
9982.00,1.54
9981.00,1.54
9980.00,1.54
9979.00,1.54
9978.00,1.53
9977.00,1.53
9976.00,1.53
9975.00,1.52
9974.00,1.52
9973.00,1.51
9972.00,1.50
9971.00,1.49
9970.00,1.49
9969.00,1.48
9968.00,1.47
9967.00,1.46
9966.00,1.45
9965.00,1.43
9964.00,1.42
9963.00,1.41
9962.00,1.40
9961.00,1.39
9960.00,1.37
9959.00,1.36
9958.00,1.35
9957.00,1.34
9956.00,1.33
9955.00,1.32
9954.00,1.31
9953.00,1.30
9952.00,1.29
9951.00,1.28
9950.00,1.28
9949.00,1.28
9948.00,1.27
9947.00,1.27
9946.00,1.27
9945.00,1.27
9944.00,1.28
9943.00,1.28
9942.00,1.29
9941.00,1.29
9940.00,1.30
9939.00,1.31
9938.00,1.32
9937.00,1.33
9936.00,1.34
9935.00,1.35
9934.00,1.36
9933.00,1.36
9932.00,1.37
9931.00,1.38
9930.00,1.39
9929.00,1.40
9928.00,1.41
9927.00,1.42
9926.00,1.43
9925.00,1.43
9924.00,1.44
9923.00,1.45
9922.00,1.45
9921.00,1.45
9920.00,1.45
9919.00,1.45
9918.00,1.45
9917.00,1.45
9916.00,1.45
9915.00,1.44
9914.00,1.44
9913.00,1.43
9912.00,1.42
9911.00,1.42
9910.00,1.41
9909.00,1.40
9908.00,1.39
9907.00,1.39
9906.00,1.38
9905.00,1.37
9904.00,1.36
9903.00,1.36
9902.00,1.35
9901.00,1.34
9900.00,1.33
9899.00,1.32
9898.00,1.31
9897.00,1.29
9896.00,1.28
9895.00,1.27
9894.00,1.27
9893.00,1.26
9892.00,1.25
9891.00,1.24
9890.00,1.24
9889.00,1.23
9888.00,1.23
9887.00,1.22
9886.00,1.22
9885.00,1.22
9884.00,1.22
9883.00,1.22
9882.00,1.22
9881.00,1.22
9880.00,1.22
9879.00,1.22
9878.00,1.22
9877.00,1.22
9876.00,1.23
9875.00,1.23
9874.00,1.24
9873.00,1.24
9872.00,1.25
9871.00,1.26
9870.00,1.27
9869.00,1.28
9868.00,1.30
9867.00,1.31
9866.00,1.32
9865.00,1.33
9864.00,1.34
9863.00,1.36
9862.00,1.37
9861.00,1.38
9860.00,1.39
9859.00,1.39
9858.00,1.40
9857.00,1.41
9856.00,1.42
9855.00,1.43
9854.00,1.43
9853.00,1.44
9852.00,1.44
9851.00,1.45
9850.00,1.45
9849.00,1.45
9848.00,1.45
9847.00,1.45
9846.00,1.45
9845.00,1.44
9844.00,1.44
9843.00,1.43
9842.00,1.42
9841.00,1.41
9840.00,1.40
9839.00,1.39
9838.00,1.38
9837.00,1.37
9836.00,1.36
9835.00,1.34
9834.00,1.33
9833.00,1.32
9832.00,1.31
9831.00,1.30
9830.00,1.28
9829.00,1.27
9828.00,1.26
9827.00,1.25
9826.00,1.23
9825.00,1.22
9824.00,1.21
9823.00,1.20
9822.00,1.19
9821.00,1.18
9820.00,1.17
9819.00,1.16
9818.00,1.15
9817.00,1.14
9816.00,1.14
9815.00,1.13
9814.00,1.13
9813.00,1.12
9812.00,1.12
9811.00,1.12
9810.00,1.12
9809.00,1.11
9808.00,1.11
9807.00,1.11
9806.00,1.11
9805.00,1.11
9804.00,1.11
9803.00,1.11
9802.00,1.11
9801.00,1.11
9800.00,1.11
9799.00,1.12
9798.00,1.12
9797.00,1.12
9796.00,1.13
9795.00,1.13
9794.00,1.14
9793.00,1.14
9792.00,1.15
9791.00,1.15
9790.00,1.16
9789.00,1.16
9788.00,1.16
9787.00,1.16
9786.00,1.17
9785.00,1.17
9784.00,1.17
9783.00,1.17
9782.00,1.17
9781.00,1.17
9780.00,1.17
9779.00,1.18
9778.00,1.18
9777.00,1.18
9776.00,1.18
9775.00,1.18
9774.00,1.18
9773.00,1.19
9772.00,1.19
9771.00,1.19
9770.00,1.19
9769.00,1.19
9768.00,1.19
9767.00,1.19
9766.00,1.19
9765.00,1.19
9764.00,1.19
9763.00,1.19
9762.00,1.20
9761.00,1.20
9760.00,1.20
9759.00,1.21
9758.00,1.21
9757.00,1.21
9756.00,1.22
9755.00,1.22
9754.00,1.23
9753.00,1.23
9752.00,1.23
9751.00,1.24
9750.00,1.24
9749.00,1.24
9748.00,1.25
9747.00,1.25
9746.00,1.26
9745.00,1.26
9744.00,1.26
9743.00,1.27
9742.00,1.27
9741.00,1.27
9740.00,1.27
9739.00,1.27
9738.00,1.27
9737.00,1.27
9736.00,1.27
9735.00,1.26
9734.00,1.26
9733.00,1.26
9732.00,1.26
9731.00,1.25
9730.00,1.25
9729.00,1.25
9728.00,1.25
9727.00,1.24
9726.00,1.24
9725.00,1.24
9724.00,1.24
9723.00,1.23
9722.00,1.23
9721.00,1.23
9720.00,1.22
9719.00,1.22
9718.00,1.21
9717.00,1.21
9716.00,1.21
9715.00,1.20
9714.00,1.20
9713.00,1.20
9712.00,1.19
9711.00,1.19
9710.00,1.19
9709.00,1.19
9708.00,1.19
9707.00,1.19
9706.00,1.20
9705.00,1.20
9704.00,1.20
9703.00,1.20
9702.00,1.21
9701.00,1.21
9700.00,1.21
9699.00,1.22
9698.00,1.22
9697.00,1.22
9696.00,1.22
9695.00,1.22
9694.00,1.23
9693.00,1.23
9692.00,1.23
9691.00,1.23
9690.00,1.23
9689.00,1.24
9688.00,1.24
9687.00,1.24
9686.00,1.24
9685.00,1.25
9684.00,1.25
9683.00,1.25
9682.00,1.25
9681.00,1.25
9680.00,1.25
9679.00,1.25
9678.00,1.25
9677.00,1.25
9676.00,1.24
9675.00,1.24
9674.00,1.24
9673.00,1.24
9672.00,1.24
9671.00,1.24
9670.00,1.24
9669.00,1.24
9668.00,1.24
9667.00,1.25
9666.00,1.25
9665.00,1.26
9664.00,1.26
9663.00,1.27
9662.00,1.27
9661.00,1.28
9660.00,1.28
9659.00,1.29
9658.00,1.29
9657.00,1.30
9656.00,1.31
9655.00,1.31
9654.00,1.32
9653.00,1.32
9652.00,1.33
9651.00,1.33
9650.00,1.34
9649.00,1.34
9648.00,1.35
9647.00,1.35
9646.00,1.36
9645.00,1.36
9644.00,1.36
9643.00,1.37
9642.00,1.37
9641.00,1.37
9640.00,1.37
9639.00,1.37
9638.00,1.37
9637.00,1.37
9636.00,1.37
9635.00,1.37
9634.00,1.37
9633.00,1.37
9632.00,1.36
9631.00,1.36
9630.00,1.36
9629.00,1.36
9628.00,1.35
9627.00,1.35
9626.00,1.35
9625.00,1.35
9624.00,1.34
9623.00,1.34
9622.00,1.34
9621.00,1.33
9620.00,1.33
9619.00,1.33
9618.00,1.32
9617.00,1.32
9616.00,1.31
9615.00,1.31
9614.00,1.31
9613.00,1.30
9612.00,1.30
9611.00,1.30
9610.00,1.30
9609.00,1.30
9608.00,1.29
9607.00,1.29
9606.00,1.29
9605.00,1.29
9604.00,1.29
9603.00,1.29
9602.00,1.29
9601.00,1.29
9600.00,1.29
9599.00,1.29
9598.00,1.28
9597.00,1.28
9596.00,1.29
9595.00,1.29
9594.00,1.29
9593.00,1.29
9592.00,1.29
9591.00,1.30
9590.00,1.30
9589.00,1.30
9588.00,1.30
9587.00,1.31
9586.00,1.31
9585.00,1.31
9584.00,1.31
9583.00,1.32
9582.00,1.32
9581.00,1.32
9580.00,1.33
9579.00,1.33
9578.00,1.33
9577.00,1.34
9576.00,1.34
9575.00,1.35
9574.00,1.35
9573.00,1.36
9572.00,1.36
9571.00,1.37
9570.00,1.38
9569.00,1.38
9568.00,1.38
9567.00,1.39
9566.00,1.39
9565.00,1.39
9564.00,1.40
9563.00,1.40
9562.00,1.40
9561.00,1.40
9560.00,1.41
9559.00,1.41
9558.00,1.41
9557.00,1.41
9556.00,1.41
9555.00,1.41
9554.00,1.41
9553.00,1.40
9552.00,1.40
9551.00,1.40
9550.00,1.40
9549.00,1.40
9548.00,1.39
9547.00,1.39
9546.00,1.39
9545.00,1.39
9544.00,1.39
9543.00,1.39
9542.00,1.39
9541.00,1.39
9540.00,1.39
9539.00,1.39
9538.00,1.39
9537.00,1.39
9536.00,1.40
9535.00,1.40
9534.00,1.40
9533.00,1.41
9532.00,1.41
9531.00,1.42
9530.00,1.43
9529.00,1.43
9528.00,1.44
9527.00,1.45
9526.00,1.45
9525.00,1.46
9524.00,1.47
9523.00,1.48
9522.00,1.48
9521.00,1.49
9520.00,1.49
9519.00,1.50
9518.00,1.50
9517.00,1.51
9516.00,1.51
9515.00,1.51
9514.00,1.51
9513.00,1.51
9512.00,1.51
9511.00,1.51
9510.00,1.51
9509.00,1.51
9508.00,1.50
9507.00,1.50
9506.00,1.50
9505.00,1.49
9504.00,1.49
9503.00,1.48
9502.00,1.47
9501.00,1.47
9500.00,1.46
9499.00,1.45
9498.00,1.45
9497.00,1.44
9496.00,1.43
9495.00,1.42
9494.00,1.41
9493.00,1.40
9492.00,1.39
9491.00,1.38
9490.00,1.37
9489.00,1.37
9488.00,1.36
9487.00,1.35
9486.00,1.35
9485.00,1.34
9484.00,1.34
9483.00,1.33
9482.00,1.33
9481.00,1.32
9480.00,1.32
9479.00,1.31
9478.00,1.31
9477.00,1.30
9476.00,1.30
9475.00,1.30
9474.00,1.29
9473.00,1.29
9472.00,1.29
9471.00,1.28
9470.00,1.28
9469.00,1.28
9468.00,1.28
9467.00,1.28
9466.00,1.28
9465.00,1.28
9464.00,1.28
9463.00,1.28
9462.00,1.27
9461.00,1.27
9460.00,1.27
9459.00,1.27
9458.00,1.27
9457.00,1.26
9456.00,1.26
9455.00,1.26
9454.00,1.26
9453.00,1.26
9452.00,1.26
9451.00,1.26
9450.00,1.26
9449.00,1.26
9448.00,1.26
9447.00,1.26
9446.00,1.26
9445.00,1.26
9444.00,1.26
9443.00,1.26
9442.00,1.26
9441.00,1.27
9440.00,1.27
9439.00,1.27
9438.00,1.27
9437.00,1.27
9436.00,1.27
9435.00,1.27
9434.00,1.27
9433.00,1.27
9432.00,1.28
9431.00,1.28
9430.00,1.28
9429.00,1.28
9428.00,1.29
9427.00,1.29
9426.00,1.29
9425.00,1.29
9424.00,1.29
9423.00,1.29
9422.00,1.28
9421.00,1.28
9420.00,1.28
9419.00,1.28
9418.00,1.28
9417.00,1.27
9416.00,1.27
9415.00,1.27
9414.00,1.27
9413.00,1.27
9412.00,1.27
9411.00,1.27
9410.00,1.27
9409.00,1.27
9408.00,1.28
9407.00,1.27
9406.00,1.27
9405.00,1.27
9404.00,1.27
9403.00,1.27
9402.00,1.27
9401.00,1.27
9400.00,1.26
9399.00,1.26
9398.00,1.26
9397.00,1.26
9396.00,1.26
9395.00,1.26
9394.00,1.26
9393.00,1.26
9392.00,1.26
9391.00,1.26
9390.00,1.25
9389.00,1.25
9388.00,1.25
9387.00,1.24
9386.00,1.24
9385.00,1.23
9384.00,1.23
9383.00,1.22
9382.00,1.22
9381.00,1.21
9380.00,1.21
9379.00,1.20
9378.00,1.20
9377.00,1.19
9376.00,1.19
9375.00,1.19
9374.00,1.18
9373.00,1.18
9372.00,1.18
9371.00,1.17
9370.00,1.17
9369.00,1.17
9368.00,1.16
9367.00,1.16
9366.00,1.16
9365.00,1.16
9364.00,1.15
9363.00,1.15
9362.00,1.15
9361.00,1.15
9360.00,1.16
9359.00,1.16
9358.00,1.16
9357.00,1.17
9356.00,1.17
9355.00,1.17
9354.00,1.18
9353.00,1.18
9352.00,1.19
9351.00,1.19
9350.00,1.19
9349.00,1.20
9348.00,1.20
9347.00,1.20
9346.00,1.21
9345.00,1.21
9344.00,1.21
9343.00,1.22
9342.00,1.22
9341.00,1.23
9340.00,1.23
9339.00,1.23
9338.00,1.24
9337.00,1.24
9336.00,1.24
9335.00,1.24
9334.00,1.24
9333.00,1.24
9332.00,1.24
9331.00,1.24
9330.00,1.24
9329.00,1.24
9328.00,1.24
9327.00,1.24
9326.00,1.24
9325.00,1.24
9324.00,1.24
9323.00,1.25
9322.00,1.25
9321.00,1.25
9320.00,1.25
9319.00,1.25
9318.00,1.25
9317.00,1.25
9316.00,1.25
9315.00,1.25
9314.00,1.25
9313.00,1.25
9312.00,1.25
9311.00,1.25
9310.00,1.25
9309.00,1.25
9308.00,1.25
9307.00,1.25
9306.00,1.25
9305.00,1.25
9304.00,1.25
9303.00,1.25
9302.00,1.25
9301.00,1.25
9300.00,1.24
9299.00,1.24
9298.00,1.23
9297.00,1.23
9296.00,1.23
9295.00,1.22
9294.00,1.22
9293.00,1.22
9292.00,1.21
9291.00,1.21
9290.00,1.21
9289.00,1.21
9288.00,1.21
9287.00,1.21
9286.00,1.20
9285.00,1.20
9284.00,1.20
9283.00,1.20
9282.00,1.20
9281.00,1.19
9280.00,1.19
9279.00,1.19
9278.00,1.19
9277.00,1.20
9276.00,1.20
9275.00,1.20
9274.00,1.20
9273.00,1.20
9272.00,1.20
9271.00,1.20
9270.00,1.20
9269.00,1.20
9268.00,1.21
9267.00,1.21
9266.00,1.21
9265.00,1.21
9264.00,1.21
9263.00,1.21
9262.00,1.21
9261.00,1.21
9260.00,1.22
9259.00,1.22
9258.00,1.22
9257.00,1.22
9256.00,1.23
9255.00,1.23
9254.00,1.23
9253.00,1.23
9252.00,1.23
9251.00,1.23
9250.00,1.24
9249.00,1.24
9248.00,1.24
9247.00,1.24
9246.00,1.24
9245.00,1.25
9244.00,1.25
9243.00,1.25
9242.00,1.25
9241.00,1.26
9240.00,1.26
9239.00,1.26
9238.00,1.26
9237.00,1.27
9236.00,1.27
9235.00,1.27
9234.00,1.27
9233.00,1.28
9232.00,1.28
9231.00,1.28
9230.00,1.28
9229.00,1.28
9228.00,1.29
9227.00,1.29
9226.00,1.29
9225.00,1.29
9224.00,1.29
9223.00,1.29
9222.00,1.29
9221.00,1.30
9220.00,1.30
9219.00,1.30
9218.00,1.30
9217.00,1.31
9216.00,1.31
9215.00,1.31
9214.00,1.31
9213.00,1.31
9212.00,1.31
9211.00,1.31
9210.00,1.31
9209.00,1.31
9208.00,1.31
9207.00,1.30
9206.00,1.30
9205.00,1.29
9204.00,1.29
9203.00,1.28
9202.00,1.28
9201.00,1.27
9200.00,1.27
9199.00,1.26
9198.00,1.26
9197.00,1.25
9196.00,1.25
9195.00,1.24
9194.00,1.24
9193.00,1.23
9192.00,1.22
9191.00,1.22
9190.00,1.21
9189.00,1.20
9188.00,1.19
9187.00,1.19
9186.00,1.18
9185.00,1.17
9184.00,1.17
9183.00,1.16
9182.00,1.16
9181.00,1.16
9180.00,1.15
9179.00,1.15
9178.00,1.15
9177.00,1.15
9176.00,1.15
9175.00,1.15
9174.00,1.15
9173.00,1.14
9172.00,1.14
9171.00,1.14
9170.00,1.14
9169.00,1.14
9168.00,1.15
9167.00,1.15
9166.00,1.15
9165.00,1.15
9164.00,1.16
9163.00,1.16
9162.00,1.17
9161.00,1.17
9160.00,1.18
9159.00,1.19
9158.00,1.20
9157.00,1.21
9156.00,1.22
9155.00,1.23
9154.00,1.24
9153.00,1.25
9152.00,1.26
9151.00,1.27
9150.00,1.28
9149.00,1.30
9148.00,1.31
9147.00,1.32
9146.00,1.33
9145.00,1.34
9144.00,1.36
9143.00,1.37
9142.00,1.38
9141.00,1.39
9140.00,1.40
9139.00,1.41
9138.00,1.41
9137.00,1.42
9136.00,1.42
9135.00,1.43
9134.00,1.43
9133.00,1.43
9132.00,1.43
9131.00,1.43
9130.00,1.43
9129.00,1.43
9128.00,1.43
9127.00,1.42
9126.00,1.42
9125.00,1.42
9124.00,1.41
9123.00,1.40
9122.00,1.40
9121.00,1.39
9120.00,1.38
9119.00,1.37
9118.00,1.36
9117.00,1.35
9116.00,1.35
9115.00,1.34
9114.00,1.33
9113.00,1.32
9112.00,1.32
9111.00,1.31
9110.00,1.31
9109.00,1.30
9108.00,1.30
9107.00,1.29
9106.00,1.29
9105.00,1.28
9104.00,1.28
9103.00,1.27
9102.00,1.27
9101.00,1.26
9100.00,1.26
9099.00,1.26
9098.00,1.25
9097.00,1.25
9096.00,1.25
9095.00,1.25
9094.00,1.25
9093.00,1.25
9092.00,1.25
9091.00,1.24
9090.00,1.24
9089.00,1.24
9088.00,1.24
9087.00,1.24
9086.00,1.24
9085.00,1.24
9084.00,1.24
9083.00,1.24
9082.00,1.24
9081.00,1.24
9080.00,1.24
9079.00,1.24
9078.00,1.25
9077.00,1.25
9076.00,1.25
9075.00,1.25
9074.00,1.26
9073.00,1.26
9072.00,1.26
9071.00,1.27
9070.00,1.27
9069.00,1.27
9068.00,1.28
9067.00,1.28
9066.00,1.29
9065.00,1.29
9064.00,1.30
9063.00,1.30
9062.00,1.31
9061.00,1.31
9060.00,1.32
9059.00,1.32
9058.00,1.33
9057.00,1.33
9056.00,1.34
9055.00,1.34
9054.00,1.34
9053.00,1.35
9052.00,1.35
9051.00,1.35
9050.00,1.35
9049.00,1.35
9048.00,1.35
9047.00,1.35
9046.00,1.35
9045.00,1.35
9044.00,1.35
9043.00,1.35
9042.00,1.35
9041.00,1.35
9040.00,1.35
9039.00,1.35
9038.00,1.34
9037.00,1.34
9036.00,1.34
9035.00,1.33
9034.00,1.33
9033.00,1.32
9032.00,1.32
9031.00,1.32
9030.00,1.31
9029.00,1.31
9028.00,1.31
9027.00,1.30
9026.00,1.30
9025.00,1.30
9024.00,1.29
9023.00,1.29
9022.00,1.29
9021.00,1.29
9020.00,1.28
9019.00,1.28
9018.00,1.28
9017.00,1.28
9016.00,1.27
9015.00,1.27
9014.00,1.27
9013.00,1.27
9012.00,1.27
9011.00,1.27
9010.00,1.27
9009.00,1.27
9008.00,1.27
9007.00,1.27
9006.00,1.27
9005.00,1.27
9004.00,1.27
9003.00,1.27
9002.00,1.27
9001.00,1.28
9000.00,1.28
8999.00,1.28
8998.00,1.28
8997.00,1.28
8996.00,1.29
8995.00,1.29
8994.00,1.29
8993.00,1.30
8992.00,1.30
8991.00,1.30
8990.00,1.31
8989.00,1.31
8988.00,1.32
8987.00,1.32
8986.00,1.33
8985.00,1.33
8984.00,1.33
8983.00,1.34
8982.00,1.34
8981.00,1.34
8980.00,1.35
8979.00,1.35
8978.00,1.35
8977.00,1.35
8976.00,1.36
8975.00,1.36
8974.00,1.36
8973.00,1.36
8972.00,1.36
8971.00,1.37
8970.00,1.37
8969.00,1.37
8968.00,1.37
8967.00,1.37
8966.00,1.37
8965.00,1.37
8964.00,1.37
8963.00,1.37
8962.00,1.37
8961.00,1.37
8960.00,1.37
8959.00,1.36
8958.00,1.36
8957.00,1.36
8956.00,1.36
8955.00,1.36
8954.00,1.35
8953.00,1.35
8952.00,1.35
8951.00,1.35
8950.00,1.35
8949.00,1.35
8948.00,1.35
8947.00,1.35
8946.00,1.35
8945.00,1.35
8944.00,1.35
8943.00,1.35
8942.00,1.35
8941.00,1.35
8940.00,1.35
8939.00,1.35
8938.00,1.35
8937.00,1.35
8936.00,1.35
8935.00,1.35
8934.00,1.35
8933.00,1.35
8932.00,1.35
8931.00,1.35
8930.00,1.36
8929.00,1.36
8928.00,1.36
8927.00,1.36
8926.00,1.36
8925.00,1.36
8924.00,1.36
8923.00,1.36
8922.00,1.36
8921.00,1.36
8920.00,1.35
8919.00,1.35
8918.00,1.35
8917.00,1.35
8916.00,1.35
8915.00,1.34
8914.00,1.34
8913.00,1.34
8912.00,1.34
8911.00,1.34
8910.00,1.33
8909.00,1.33
8908.00,1.33
8907.00,1.32
8906.00,1.32
8905.00,1.32
8904.00,1.31
8903.00,1.31
8902.00,1.30
8901.00,1.30
8900.00,1.30
8899.00,1.29
8898.00,1.29
8897.00,1.29
8896.00,1.29
8895.00,1.29
8894.00,1.29
8893.00,1.29
8892.00,1.29
8891.00,1.30
8890.00,1.30
8889.00,1.30
8888.00,1.30
8887.00,1.31
8886.00,1.31
8885.00,1.32
8884.00,1.32
8883.00,1.33
8882.00,1.33
8881.00,1.34
8880.00,1.34
8879.00,1.35
8878.00,1.36
8877.00,1.37
8876.00,1.37
8875.00,1.38
8874.00,1.39
8873.00,1.39
8872.00,1.40
8871.00,1.40
8870.00,1.40
8869.00,1.41
8868.00,1.41
8867.00,1.40
8866.00,1.40
8865.00,1.40
8864.00,1.39
8863.00,1.39
8862.00,1.38
8861.00,1.37
8860.00,1.37
8859.00,1.36
8858.00,1.35
8857.00,1.34
8856.00,1.33
8855.00,1.32
8854.00,1.31
8853.00,1.31
8852.00,1.30
8851.00,1.29
8850.00,1.28
8849.00,1.28
8848.00,1.27
8847.00,1.26
8846.00,1.26
8845.00,1.25
8844.00,1.25
8843.00,1.24
8842.00,1.24
8841.00,1.24
8840.00,1.24
8839.00,1.24
8838.00,1.24
8837.00,1.24
8836.00,1.24
8835.00,1.25
8834.00,1.25
8833.00,1.26
8832.00,1.26
8831.00,1.27
8830.00,1.28
8829.00,1.28
8828.00,1.29
8827.00,1.29
8826.00,1.30
8825.00,1.30
8824.00,1.31
8823.00,1.31
8822.00,1.31
8821.00,1.32
8820.00,1.32
8819.00,1.32
8818.00,1.33
8817.00,1.33
8816.00,1.33
8815.00,1.33
8814.00,1.33
8813.00,1.33
8812.00,1.33
8811.00,1.33
8810.00,1.33
8809.00,1.33
8808.00,1.33
8807.00,1.33
8806.00,1.33
8805.00,1.32
8804.00,1.32
8803.00,1.32
8802.00,1.32
8801.00,1.31
8800.00,1.31
8799.00,1.31
8798.00,1.30
8797.00,1.30
8796.00,1.30
8795.00,1.29
8794.00,1.29
8793.00,1.29
8792.00,1.29
8791.00,1.28
8790.00,1.28
8789.00,1.28
8788.00,1.28
8787.00,1.27
8786.00,1.27
8785.00,1.27
8784.00,1.28
8783.00,1.28
8782.00,1.28
8781.00,1.28
8780.00,1.28
8779.00,1.28
8778.00,1.28
8777.00,1.29
8776.00,1.29
8775.00,1.29
8774.00,1.29
8773.00,1.30
8772.00,1.30
8771.00,1.30
8770.00,1.31
8769.00,1.31
8768.00,1.32
8767.00,1.33
8766.00,1.33
8765.00,1.34
8764.00,1.34
8763.00,1.35
8762.00,1.36
8761.00,1.36
8760.00,1.37
8759.00,1.37
8758.00,1.38
8757.00,1.38
8756.00,1.38
8755.00,1.38
8754.00,1.38
8753.00,1.38
8752.00,1.38
8751.00,1.38
8750.00,1.38
8749.00,1.38
8748.00,1.38
8747.00,1.38
8746.00,1.38
8745.00,1.37
8744.00,1.37
8743.00,1.36
8742.00,1.36
8741.00,1.35
8740.00,1.34
8739.00,1.34
8738.00,1.33
8737.00,1.32
8736.00,1.31
8735.00,1.30
8734.00,1.29
8733.00,1.28
8732.00,1.27
8731.00,1.27
8730.00,1.26
8729.00,1.25
8728.00,1.24
8727.00,1.23
8726.00,1.23
8725.00,1.22
8724.00,1.21
8723.00,1.21
8722.00,1.20
8721.00,1.19
8720.00,1.19
8719.00,1.18
8718.00,1.18
8717.00,1.18
8716.00,1.18
8715.00,1.17
8714.00,1.17
8713.00,1.17
8712.00,1.17
8711.00,1.17
8710.00,1.17
8709.00,1.17
8708.00,1.17
8707.00,1.17
8706.00,1.17
8705.00,1.17
8704.00,1.18
8703.00,1.18
8702.00,1.18
8701.00,1.18
8700.00,1.18
8699.00,1.19
8698.00,1.19
8697.00,1.19
8696.00,1.19
8695.00,1.19
8694.00,1.19
8693.00,1.19
8692.00,1.19
8691.00,1.19
8690.00,1.20
8689.00,1.20
8688.00,1.20
8687.00,1.20
8686.00,1.20
8685.00,1.20
8684.00,1.20
8683.00,1.21
8682.00,1.21
8681.00,1.21
8680.00,1.21
8679.00,1.22
8678.00,1.22
8677.00,1.22
8676.00,1.23
8675.00,1.23
8674.00,1.23
8673.00,1.24
8672.00,1.24
8671.00,1.24
8670.00,1.25
8669.00,1.25
8668.00,1.26
8667.00,1.26
8666.00,1.27
8665.00,1.27
8664.00,1.27
8663.00,1.28
8662.00,1.28
8661.00,1.28
8660.00,1.29
8659.00,1.29
8658.00,1.29
8657.00,1.30
8656.00,1.30
8655.00,1.30
8654.00,1.30
8653.00,1.30
8652.00,1.30
8651.00,1.30
8650.00,1.30
8649.00,1.30
8648.00,1.30
8647.00,1.30
8646.00,1.30
8645.00,1.30
8644.00,1.29
8643.00,1.29
8642.00,1.29
8641.00,1.29
8640.00,1.28
8639.00,1.28
8638.00,1.28
8637.00,1.28
8636.00,1.28
8635.00,1.27
8634.00,1.27
8633.00,1.27
8632.00,1.26
8631.00,1.26
8630.00,1.26
8629.00,1.25
8628.00,1.25
8627.00,1.25
8626.00,1.24
8625.00,1.24
8624.00,1.23
8623.00,1.23
8622.00,1.23
8621.00,1.22
8620.00,1.22
8619.00,1.21
8618.00,1.21
8617.00,1.21
8616.00,1.20
8615.00,1.20
8614.00,1.20
8613.00,1.19
8612.00,1.19
8611.00,1.19
8610.00,1.18
8609.00,1.18
8608.00,1.18
8607.00,1.17
8606.00,1.17
8605.00,1.17
8604.00,1.17
8603.00,1.16
8602.00,1.16
8601.00,1.16
8600.00,1.16
8599.00,1.16
8598.00,1.16
8597.00,1.15
8596.00,1.15
8595.00,1.15
8594.00,1.15
8593.00,1.15
8592.00,1.15
8591.00,1.15
8590.00,1.15
8589.00,1.15
8588.00,1.15
8587.00,1.15
8586.00,1.15
8585.00,1.15
8584.00,1.15
8583.00,1.15
8582.00,1.15
8581.00,1.16
8580.00,1.16
8579.00,1.16
8578.00,1.16
8577.00,1.16
8576.00,1.17
8575.00,1.17
8574.00,1.17
8573.00,1.17
8572.00,1.18
8571.00,1.18
8570.00,1.19
8569.00,1.19
8568.00,1.19
8567.00,1.20
8566.00,1.20
8565.00,1.20
8564.00,1.21
8563.00,1.21
8562.00,1.21
8561.00,1.22
8560.00,1.22
8559.00,1.23
8558.00,1.23
8557.00,1.23
8556.00,1.24
8555.00,1.24
8554.00,1.25
8553.00,1.25
8552.00,1.25
8551.00,1.25
8550.00,1.26
8549.00,1.26
8548.00,1.26
8547.00,1.26
8546.00,1.26
8545.00,1.26
8544.00,1.26
8543.00,1.26
8542.00,1.26
8541.00,1.26
8540.00,1.26
8539.00,1.26
8538.00,1.25
8537.00,1.25
8536.00,1.25
8535.00,1.25
8534.00,1.25
8533.00,1.24
8532.00,1.24
8531.00,1.24
8530.00,1.24
8529.00,1.23
8528.00,1.23
8527.00,1.23
8526.00,1.22
8525.00,1.22
8524.00,1.22
8523.00,1.21
8522.00,1.21
8521.00,1.21
8520.00,1.21
8519.00,1.20
8518.00,1.20
8517.00,1.20
8516.00,1.20
8515.00,1.19
8514.00,1.19
8513.00,1.19
8512.00,1.18
8511.00,1.18
8510.00,1.18
8509.00,1.17
8508.00,1.17
8507.00,1.17
8506.00,1.16
8505.00,1.16
8504.00,1.16
8503.00,1.16
8502.00,1.15
8501.00,1.15
8500.00,1.15
8499.00,1.15
8498.00,1.14
8497.00,1.14
8496.00,1.14
8495.00,1.13
8494.00,1.13
8493.00,1.13
8492.00,1.13
8491.00,1.12
8490.00,1.12
8489.00,1.12
8488.00,1.12
8487.00,1.11
8486.00,1.11
8485.00,1.11
8484.00,1.11
8483.00,1.10
8482.00,1.10
8481.00,1.10
8480.00,1.10
8479.00,1.09
8478.00,1.09
8477.00,1.09
8476.00,1.08
8475.00,1.08
8474.00,1.08
8473.00,1.08
8472.00,1.07
8471.00,1.07
8470.00,1.07
8469.00,1.07
8468.00,1.07
8467.00,1.07
8466.00,1.06
8465.00,1.06
8464.00,1.06
8463.00,1.06
8462.00,1.06
8461.00,1.06
8460.00,1.06
8459.00,1.06
8458.00,1.06
8457.00,1.07
8456.00,1.07
8455.00,1.07
8454.00,1.08
8453.00,1.08
8452.00,1.09
8451.00,1.09
8450.00,1.09
8449.00,1.10
8448.00,1.10
8447.00,1.11
8446.00,1.11
8445.00,1.11
8444.00,1.12
8443.00,1.12
8442.00,1.13
8441.00,1.13
8440.00,1.14
8439.00,1.14
8438.00,1.15
8437.00,1.15
8436.00,1.15
8435.00,1.16
8434.00,1.16
8433.00,1.16
8432.00,1.16
8431.00,1.16
8430.00,1.17
8429.00,1.17
8428.00,1.17
8427.00,1.17
8426.00,1.17
8425.00,1.17
8424.00,1.17
8423.00,1.17
8422.00,1.17
8421.00,1.17
8420.00,1.17
8419.00,1.17
8418.00,1.17
8417.00,1.17
8416.00,1.18
8415.00,1.18
8414.00,1.18
8413.00,1.19
8412.00,1.19
8411.00,1.20
8410.00,1.20
8409.00,1.21
8408.00,1.21
8407.00,1.21
8406.00,1.22
8405.00,1.23
8404.00,1.23
8403.00,1.24
8402.00,1.24
8401.00,1.25
8400.00,1.25
8399.00,1.26
8398.00,1.27
8397.00,1.27
8396.00,1.28
8395.00,1.28
8394.00,1.28
8393.00,1.29
8392.00,1.29
8391.00,1.29
8390.00,1.29
8389.00,1.29
8388.00,1.29
8387.00,1.28
8386.00,1.28
8385.00,1.28
8384.00,1.28
8383.00,1.27
8382.00,1.27
8381.00,1.26
8380.00,1.26
8379.00,1.26
8378.00,1.25
8377.00,1.25
8376.00,1.24
8375.00,1.24
8374.00,1.23
8373.00,1.23
8372.00,1.22
8371.00,1.22
8370.00,1.21
8369.00,1.21
8368.00,1.21
8367.00,1.20
8366.00,1.20
8365.00,1.20
8364.00,1.20
8363.00,1.19
8362.00,1.19
8361.00,1.19
8360.00,1.19
8359.00,1.19
8358.00,1.19
8357.00,1.19
8356.00,1.19
8355.00,1.19
8354.00,1.19
8353.00,1.19
8352.00,1.19
8351.00,1.19
8350.00,1.19
8349.00,1.19
8348.00,1.19
8347.00,1.20
8346.00,1.20
8345.00,1.20
8344.00,1.20
8343.00,1.20
8342.00,1.20
8341.00,1.21
8340.00,1.21
8339.00,1.21
8338.00,1.21
8337.00,1.21
8336.00,1.21
8335.00,1.22
8334.00,1.22
8333.00,1.22
8332.00,1.22
8331.00,1.22
8330.00,1.23
8329.00,1.23
8328.00,1.23
8327.00,1.24
8326.00,1.24
8325.00,1.24
8324.00,1.25
8323.00,1.25
8322.00,1.25
8321.00,1.26
8320.00,1.26
8319.00,1.26
8318.00,1.26
8317.00,1.26
8316.00,1.26
8315.00,1.26
8314.00,1.26
8313.00,1.26
8312.00,1.26
8311.00,1.26
8310.00,1.26
8309.00,1.26
8308.00,1.26
8307.00,1.25
8306.00,1.25
8305.00,1.25
8304.00,1.24
8303.00,1.24
8302.00,1.23
8301.00,1.23
8300.00,1.22
8299.00,1.22
8298.00,1.21
8297.00,1.21
8296.00,1.20
8295.00,1.20
8294.00,1.19
8293.00,1.19
8292.00,1.19
8291.00,1.18
8290.00,1.18
8289.00,1.17
8288.00,1.17
8287.00,1.17
8286.00,1.17
8285.00,1.16
8284.00,1.16
8283.00,1.16
8282.00,1.16
8281.00,1.16
8280.00,1.16
8279.00,1.16
8278.00,1.16
8277.00,1.17
8276.00,1.17
8275.00,1.17
8274.00,1.17
8273.00,1.18
8272.00,1.18
8271.00,1.18
8270.00,1.18
8269.00,1.18
8268.00,1.18
8267.00,1.19
8266.00,1.19
8265.00,1.19
8264.00,1.19
8263.00,1.20
8262.00,1.20
8261.00,1.20
8260.00,1.21
8259.00,1.21
8258.00,1.21
8257.00,1.21
8256.00,1.22
8255.00,1.22
8254.00,1.22
8253.00,1.22
8252.00,1.23
8251.00,1.23
8250.00,1.23
8249.00,1.23
8248.00,1.23
8247.00,1.23
8246.00,1.24
8245.00,1.24
8244.00,1.24
8243.00,1.24
8242.00,1.24
8241.00,1.24
8240.00,1.24
8239.00,1.24
8238.00,1.24
8237.00,1.24
8236.00,1.24
8235.00,1.24
8234.00,1.24
8233.00,1.24
8232.00,1.24
8231.00,1.24
8230.00,1.24
8229.00,1.24
8228.00,1.24
8227.00,1.24
8226.00,1.24
8225.00,1.24
8224.00,1.24
8223.00,1.24
8222.00,1.24
8221.00,1.24
8220.00,1.24
8219.00,1.24
8218.00,1.24
8217.00,1.24
8216.00,1.24
8215.00,1.24
8214.00,1.24
8213.00,1.24
8212.00,1.24
8211.00,1.24
8210.00,1.24
8209.00,1.24
8208.00,1.24
8207.00,1.24
8206.00,1.24
8205.00,1.24
8204.00,1.24
8203.00,1.23
8202.00,1.23
8201.00,1.23
8200.00,1.23
8199.00,1.22
8198.00,1.22
8197.00,1.22
8196.00,1.22
8195.00,1.21
8194.00,1.21
8193.00,1.21
8192.00,1.21
8191.00,1.21
8190.00,1.21
8189.00,1.21
8188.00,1.21
8187.00,1.21
8186.00,1.21
8185.00,1.21
8184.00,1.21
8183.00,1.21
8182.00,1.21
8181.00,1.21
8180.00,1.21
8179.00,1.21
8178.00,1.21
8177.00,1.21
8176.00,1.22
8175.00,1.22
8174.00,1.22
8173.00,1.22
8172.00,1.22
8171.00,1.22
8170.00,1.23
8169.00,1.23
8168.00,1.23
8167.00,1.23
8166.00,1.23
8165.00,1.24
8164.00,1.24
8163.00,1.24
8162.00,1.24
8161.00,1.24
8160.00,1.25
8159.00,1.25
8158.00,1.25
8157.00,1.25
8156.00,1.25
8155.00,1.26
8154.00,1.26
8153.00,1.26
8152.00,1.26
8151.00,1.26
8150.00,1.27
8149.00,1.27
8148.00,1.27
8147.00,1.27
8146.00,1.27
8145.00,1.28
8144.00,1.28
8143.00,1.28
8142.00,1.28
8141.00,1.28
8140.00,1.28
8139.00,1.28
8138.00,1.28
8137.00,1.28
8136.00,1.28
8135.00,1.28
8134.00,1.28
8133.00,1.28
8132.00,1.28
8131.00,1.28
8130.00,1.28
8129.00,1.28
8128.00,1.28
8127.00,1.28
8126.00,1.28
8125.00,1.28
8124.00,1.28
8123.00,1.28
8122.00,1.28
8121.00,1.28
8120.00,1.28
8119.00,1.28
8118.00,1.29
8117.00,1.29
8116.00,1.29
8115.00,1.29
8114.00,1.29
8113.00,1.30
8112.00,1.30
8111.00,1.30
8110.00,1.31
8109.00,1.31
8108.00,1.32
8107.00,1.32
8106.00,1.32
8105.00,1.33
8104.00,1.33
8103.00,1.34
8102.00,1.34
8101.00,1.35
8100.00,1.35
8099.00,1.36
8098.00,1.37
8097.00,1.37
8096.00,1.38
8095.00,1.38
8094.00,1.38
8093.00,1.39
8092.00,1.39
8091.00,1.39
8090.00,1.39
8089.00,1.39
8088.00,1.39
8087.00,1.39
8086.00,1.39
8085.00,1.39
8084.00,1.39
8083.00,1.38
8082.00,1.38
8081.00,1.38
8080.00,1.37
8079.00,1.37
8078.00,1.36
8077.00,1.36
8076.00,1.36
8075.00,1.35
8074.00,1.34
8073.00,1.34
8072.00,1.33
8071.00,1.33
8070.00,1.32
8069.00,1.32
8068.00,1.31
8067.00,1.31
8066.00,1.31
8065.00,1.31
8064.00,1.30
8063.00,1.30
8062.00,1.30
8061.00,1.30
8060.00,1.30
8059.00,1.30
8058.00,1.30
8057.00,1.31
8056.00,1.31
8055.00,1.31
8054.00,1.31
8053.00,1.32
8052.00,1.32
8051.00,1.32
8050.00,1.33
8049.00,1.33
8048.00,1.33
8047.00,1.34
8046.00,1.34
8045.00,1.34
8044.00,1.35
8043.00,1.35
8042.00,1.35
8041.00,1.36
8040.00,1.36
8039.00,1.36
8038.00,1.36
8037.00,1.36
8036.00,1.37
8035.00,1.37
8034.00,1.37
8033.00,1.37
8032.00,1.37
8031.00,1.37
8030.00,1.37
8029.00,1.37
8028.00,1.37
8027.00,1.37
8026.00,1.37
8025.00,1.37
8024.00,1.37
8023.00,1.37
8022.00,1.37
8021.00,1.37
8020.00,1.36
8019.00,1.36
8018.00,1.36
8017.00,1.36
8016.00,1.36
8015.00,1.36
8014.00,1.36
8013.00,1.36
8012.00,1.36
8011.00,1.36
8010.00,1.36
8009.00,1.36
8008.00,1.36
8007.00,1.36
8006.00,1.36
8005.00,1.36
8004.00,1.36
8003.00,1.37
8002.00,1.37
8001.00,1.37
8000.00,1.37
7999.00,1.37
7998.00,1.37
7997.00,1.38
7996.00,1.38
7995.00,1.38
7994.00,1.38
7993.00,1.38
7992.00,1.38
7991.00,1.39
7990.00,1.39
7989.00,1.39
7988.00,1.39
7987.00,1.39
7986.00,1.40
7985.00,1.40
7984.00,1.40
7983.00,1.40
7982.00,1.41
7981.00,1.41
7980.00,1.41
7979.00,1.41
7978.00,1.41
7977.00,1.41
7976.00,1.41
7975.00,1.41
7974.00,1.42
7973.00,1.42
7972.00,1.42
7971.00,1.42
7970.00,1.42
7969.00,1.42
7968.00,1.42
7967.00,1.42
7966.00,1.42
7965.00,1.42
7964.00,1.42
7963.00,1.42
7962.00,1.42
7961.00,1.42
7960.00,1.42
7959.00,1.42
7958.00,1.42
7957.00,1.42
7956.00,1.42
7955.00,1.42
7954.00,1.42
7953.00,1.42
7952.00,1.42
7951.00,1.42
7950.00,1.42
7949.00,1.42
7948.00,1.42
7947.00,1.42
7946.00,1.42
7945.00,1.42
7944.00,1.42
7943.00,1.42
7942.00,1.42
7941.00,1.42
7940.00,1.43
7939.00,1.43
7938.00,1.43
7937.00,1.43
7936.00,1.43
7935.00,1.43
7934.00,1.43
7933.00,1.42
7932.00,1.42
7931.00,1.42
7930.00,1.42
7929.00,1.42
7928.00,1.42
7927.00,1.41
7926.00,1.41
7925.00,1.41
7924.00,1.41
7923.00,1.41
7922.00,1.40
7921.00,1.40
7920.00,1.40
7919.00,1.40
7918.00,1.39
7917.00,1.39
7916.00,1.39
7915.00,1.39
7914.00,1.38
7913.00,1.38
7912.00,1.38
7911.00,1.38
7910.00,1.38
7909.00,1.38
7908.00,1.38
7907.00,1.38
7906.00,1.38
7905.00,1.38
7904.00,1.38
7903.00,1.38
7902.00,1.38
7901.00,1.39
7900.00,1.39
7899.00,1.39
7898.00,1.39
7897.00,1.40
7896.00,1.40
7895.00,1.40
7894.00,1.40
7893.00,1.41
7892.00,1.41
7891.00,1.41
7890.00,1.42
7889.00,1.42
7888.00,1.42
7887.00,1.43
7886.00,1.43
7885.00,1.43
7884.00,1.44
7883.00,1.44
7882.00,1.44
7881.00,1.45
7880.00,1.45
7879.00,1.45
7878.00,1.46
7877.00,1.46
7876.00,1.46
7875.00,1.46
7874.00,1.46
7873.00,1.46
7872.00,1.47
7871.00,1.47
7870.00,1.47
7869.00,1.47
7868.00,1.47
7867.00,1.48
7866.00,1.48
7865.00,1.48
7864.00,1.48
7863.00,1.48
7862.00,1.48
7861.00,1.48
7860.00,1.48
7859.00,1.48
7858.00,1.48
7857.00,1.48
7856.00,1.48
7855.00,1.47
7854.00,1.47
7853.00,1.47
7852.00,1.47
7851.00,1.47
7850.00,1.47
7849.00,1.47
7848.00,1.47
7847.00,1.47
7846.00,1.47
7845.00,1.47
7844.00,1.46
7843.00,1.46
7842.00,1.46
7841.00,1.46
7840.00,1.45
7839.00,1.45
7838.00,1.45
7837.00,1.45
7836.00,1.45
7835.00,1.44
7834.00,1.44
7833.00,1.44
7832.00,1.44
7831.00,1.44
7830.00,1.44
7829.00,1.44
7828.00,1.44
7827.00,1.44
7826.00,1.44
7825.00,1.44
7824.00,1.44
7823.00,1.43
7822.00,1.43
7821.00,1.43
7820.00,1.43
7819.00,1.43
7818.00,1.43
7817.00,1.43
7816.00,1.43
7815.00,1.43
7814.00,1.44
7813.00,1.44
7812.00,1.44
7811.00,1.44
7810.00,1.44
7809.00,1.44
7808.00,1.44
7807.00,1.44
7806.00,1.44
7805.00,1.44
7804.00,1.44
7803.00,1.44
7802.00,1.44
7801.00,1.44
7800.00,1.44
7799.00,1.44
7798.00,1.44
7797.00,1.44
7796.00,1.44
7795.00,1.44
7794.00,1.44
7793.00,1.44
7792.00,1.44
7791.00,1.44
7790.00,1.44
7789.00,1.44
7788.00,1.44
7787.00,1.44
7786.00,1.44
7785.00,1.44
7784.00,1.44
7783.00,1.44
7782.00,1.44
7781.00,1.44
7780.00,1.45
7779.00,1.45
7778.00,1.45
7777.00,1.45
7776.00,1.45
7775.00,1.45
7774.00,1.45
7773.00,1.46
7772.00,1.46
7771.00,1.46
7770.00,1.46
7769.00,1.46
7768.00,1.46
7767.00,1.47
7766.00,1.47
7765.00,1.47
7764.00,1.47
7763.00,1.47
7762.00,1.47
7761.00,1.48
7760.00,1.48
7759.00,1.48
7758.00,1.48
7757.00,1.48
7756.00,1.48
7755.00,1.48
7754.00,1.47
7753.00,1.47
7752.00,1.47
7751.00,1.47
7750.00,1.47
7749.00,1.47
7748.00,1.47
7747.00,1.46
7746.00,1.46
7745.00,1.46
7744.00,1.46
7743.00,1.45
7742.00,1.45
7741.00,1.45
7740.00,1.45
7739.00,1.44
7738.00,1.44
7737.00,1.44
7736.00,1.43
7735.00,1.43
7734.00,1.43
7733.00,1.43
7732.00,1.42
7731.00,1.42
7730.00,1.42
7729.00,1.42
7728.00,1.42
7727.00,1.42
7726.00,1.41
7725.00,1.41
7724.00,1.41
7723.00,1.41
7722.00,1.41
7721.00,1.41
7720.00,1.41
7719.00,1.41
7718.00,1.41
7717.00,1.41
7716.00,1.41
7715.00,1.42
7714.00,1.42
7713.00,1.42
7712.00,1.42
7711.00,1.42
7710.00,1.43
7709.00,1.43
7708.00,1.43
7707.00,1.43
7706.00,1.43
7705.00,1.43
7704.00,1.43
7703.00,1.44
7702.00,1.44
7701.00,1.44
7700.00,1.44
7699.00,1.45
7698.00,1.45
7697.00,1.45
7696.00,1.45
7695.00,1.46
7694.00,1.46
7693.00,1.46
7692.00,1.46
7691.00,1.46
7690.00,1.47
7689.00,1.47
7688.00,1.47
7687.00,1.47
7686.00,1.47
7685.00,1.47
7684.00,1.47
7683.00,1.47
7682.00,1.47
7681.00,1.47
7680.00,1.47
7679.00,1.47
7678.00,1.47
7677.00,1.47
7676.00,1.47
7675.00,1.47
7674.00,1.47
7673.00,1.47
7672.00,1.47
7671.00,1.47
7670.00,1.46
7669.00,1.46
7668.00,1.46
7667.00,1.46
7666.00,1.46
7665.00,1.45
7664.00,1.45
7663.00,1.45
7662.00,1.45
7661.00,1.44
7660.00,1.44
7659.00,1.44
7658.00,1.44
7657.00,1.44
7656.00,1.43
7655.00,1.43
7654.00,1.43
7653.00,1.43
7652.00,1.43
7651.00,1.43
7650.00,1.43
7649.00,1.43
7648.00,1.43
7647.00,1.43
7646.00,1.43
7645.00,1.43
7644.00,1.43
7643.00,1.43
7642.00,1.43
7641.00,1.43
7640.00,1.43
7639.00,1.44
7638.00,1.44
7637.00,1.44
7636.00,1.44
7635.00,1.45
7634.00,1.45
7633.00,1.45
7632.00,1.46
7631.00,1.46
7630.00,1.46
7629.00,1.46
7628.00,1.46
7627.00,1.46
7626.00,1.46
7625.00,1.46
7624.00,1.46
7623.00,1.46
7622.00,1.46
7621.00,1.46
7620.00,1.46
7619.00,1.46
7618.00,1.46
7617.00,1.46
7616.00,1.46
7615.00,1.46
7614.00,1.46
7613.00,1.45
7612.00,1.45
7611.00,1.45
7610.00,1.44
7609.00,1.44
7608.00,1.43
7607.00,1.43
7606.00,1.42
7605.00,1.42
7604.00,1.41
7603.00,1.41
7602.00,1.40
7601.00,1.40
7600.00,1.40
7599.00,1.40
7598.00,1.40
7597.00,1.40
7596.00,1.40
7595.00,1.40
7594.00,1.40
7593.00,1.40
7592.00,1.40
7591.00,1.40
7590.00,1.40
7589.00,1.41
7588.00,1.41
7587.00,1.41
7586.00,1.42
7585.00,1.42
7584.00,1.43
7583.00,1.43
7582.00,1.44
7581.00,1.45
7580.00,1.45
7579.00,1.46
7578.00,1.47
7577.00,1.47
7576.00,1.48
7575.00,1.49
7574.00,1.49
7573.00,1.49
7572.00,1.50
7571.00,1.50
7570.00,1.50
7569.00,1.50
7568.00,1.51
7567.00,1.51
7566.00,1.51
7565.00,1.51
7564.00,1.51
7563.00,1.50
7562.00,1.50
7561.00,1.50
7560.00,1.50
7559.00,1.49
7558.00,1.49
7557.00,1.49
7556.00,1.48
7555.00,1.48
7554.00,1.47
7553.00,1.47
7552.00,1.46
7551.00,1.45
7550.00,1.45
7549.00,1.44
7548.00,1.44
7547.00,1.44
7546.00,1.43
7545.00,1.43
7544.00,1.42
7543.00,1.42
7542.00,1.42
7541.00,1.42
7540.00,1.41
7539.00,1.41
7538.00,1.41
7537.00,1.41
7536.00,1.41
7535.00,1.41
7534.00,1.41
7533.00,1.41
7532.00,1.41
7531.00,1.41
7530.00,1.41
7529.00,1.41
7528.00,1.41
7527.00,1.41
7526.00,1.41
7525.00,1.41
7524.00,1.42
7523.00,1.42
7522.00,1.42
7521.00,1.42
7520.00,1.42
7519.00,1.42
7518.00,1.42
7517.00,1.43
7516.00,1.43
7515.00,1.43
7514.00,1.43
7513.00,1.43
7512.00,1.43
7511.00,1.43
7510.00,1.43
7509.00,1.43
7508.00,1.43
7507.00,1.43
7506.00,1.43
7505.00,1.43
7504.00,1.43
7503.00,1.43
7502.00,1.43
7501.00,1.43
7500.00,1.43
7499.00,1.43
7498.00,1.43
7497.00,1.42
7496.00,1.42
7495.00,1.42
7494.00,1.42
7493.00,1.42
7492.00,1.42
7491.00,1.42
7490.00,1.42
7489.00,1.41
7488.00,1.41
7487.00,1.41
7486.00,1.41
7485.00,1.41
7484.00,1.41
7483.00,1.41
7482.00,1.41
7481.00,1.41
7480.00,1.41
7479.00,1.41
7478.00,1.41
7477.00,1.42
7476.00,1.42
7475.00,1.42
7474.00,1.42
7473.00,1.42
7472.00,1.42
7471.00,1.43
7470.00,1.43
7469.00,1.43
7468.00,1.43
7467.00,1.43
7466.00,1.43
7465.00,1.43
7464.00,1.43
7463.00,1.43
7462.00,1.43
7461.00,1.43
7460.00,1.43
7459.00,1.43
7458.00,1.43
7457.00,1.43
7456.00,1.43
7455.00,1.43
7454.00,1.42
7453.00,1.42
7452.00,1.42
7451.00,1.42
7450.00,1.41
7449.00,1.41
7448.00,1.41
7447.00,1.41
7446.00,1.41
7445.00,1.40
7444.00,1.40
7443.00,1.40
7442.00,1.40
7441.00,1.40
7440.00,1.39
7439.00,1.39
7438.00,1.39
7437.00,1.39
7436.00,1.39
7435.00,1.39
7434.00,1.39
7433.00,1.39
7432.00,1.40
7431.00,1.40
7430.00,1.40
7429.00,1.40
7428.00,1.40
7427.00,1.41
7426.00,1.41
7425.00,1.41
7424.00,1.41
7423.00,1.41
7422.00,1.41
7421.00,1.42
7420.00,1.42
7419.00,1.42
7418.00,1.42
7417.00,1.42
7416.00,1.42
7415.00,1.42
7414.00,1.42
7413.00,1.42
7412.00,1.42
7411.00,1.42
7410.00,1.42
7409.00,1.42
7408.00,1.42
7407.00,1.41
7406.00,1.41
7405.00,1.41
7404.00,1.41
7403.00,1.40
7402.00,1.40
7401.00,1.40
7400.00,1.40
7399.00,1.39
7398.00,1.39
7397.00,1.39
7396.00,1.39
7395.00,1.39
7394.00,1.38
7393.00,1.38
7392.00,1.38
7391.00,1.37
7390.00,1.37
7389.00,1.37
7388.00,1.37
7387.00,1.36
7386.00,1.36
7385.00,1.36
7384.00,1.36
7383.00,1.35
7382.00,1.35
7381.00,1.35
7380.00,1.35
7379.00,1.34
7378.00,1.34
7377.00,1.34
7376.00,1.34
7375.00,1.33
7374.00,1.33
7373.00,1.32
7372.00,1.32
7371.00,1.32
7370.00,1.31
7369.00,1.31
7368.00,1.30
7367.00,1.30
7366.00,1.30
7365.00,1.29
7364.00,1.29
7363.00,1.28
7362.00,1.28
7361.00,1.28
7360.00,1.28
7359.00,1.27
7358.00,1.27
7357.00,1.27
7356.00,1.27
7355.00,1.26
7354.00,1.26
7353.00,1.26
7352.00,1.26
7351.00,1.26
7350.00,1.26
7349.00,1.26
7348.00,1.26
7347.00,1.26
7346.00,1.26
7345.00,1.26
7344.00,1.26
7343.00,1.27
7342.00,1.27
7341.00,1.27
7340.00,1.27
7339.00,1.28
7338.00,1.28
7337.00,1.28
7336.00,1.28
7335.00,1.29
7334.00,1.29
7333.00,1.29
7332.00,1.29
7331.00,1.29
7330.00,1.29
7329.00,1.29
7328.00,1.29
7327.00,1.29
7326.00,1.29
7325.00,1.29
7324.00,1.29
7323.00,1.29
7322.00,1.28
7321.00,1.28
7320.00,1.28
7319.00,1.28
7318.00,1.27
7317.00,1.27
7316.00,1.27
7315.00,1.26
7314.00,1.26
7313.00,1.25
7312.00,1.25
7311.00,1.24
7310.00,1.24
7309.00,1.23
7308.00,1.23
7307.00,1.23
7306.00,1.22
7305.00,1.22
7304.00,1.22
7303.00,1.22
7302.00,1.21
7301.00,1.21
7300.00,1.21
7299.00,1.21
7298.00,1.20
7297.00,1.20
7296.00,1.20
7295.00,1.20
7294.00,1.20
7293.00,1.19
7292.00,1.19
7291.00,1.19
7290.00,1.19
7289.00,1.19
7288.00,1.19
7287.00,1.19
7286.00,1.19
7285.00,1.19
7284.00,1.19
7283.00,1.19
7282.00,1.19
7281.00,1.19
7280.00,1.19
7279.00,1.18
7278.00,1.18
7277.00,1.18
7276.00,1.18
7275.00,1.18
7274.00,1.17
7273.00,1.17
7272.00,1.17
7271.00,1.17
7270.00,1.17
7269.00,1.17
7268.00,1.16
7267.00,1.16
7266.00,1.16
7265.00,1.16
7264.00,1.16
7263.00,1.16
7262.00,1.15
7261.00,1.15
7260.00,1.15
7259.00,1.15
7258.00,1.15
7257.00,1.15
7256.00,1.14
7255.00,1.14
7254.00,1.14
7253.00,1.14
7252.00,1.13
7251.00,1.13
7250.00,1.13
7249.00,1.12
7248.00,1.12
7247.00,1.12
7246.00,1.11
7245.00,1.11
7244.00,1.11
7243.00,1.11
7242.00,1.10
7241.00,1.10
7240.00,1.10
7239.00,1.10
7238.00,1.09
7237.00,1.09
7236.00,1.09
7235.00,1.08
7234.00,1.08
7233.00,1.08
7232.00,1.07
7231.00,1.07
7230.00,1.07
7229.00,1.07
7228.00,1.07
7227.00,1.07
7226.00,1.07
7225.00,1.07
7224.00,1.07
7223.00,1.07
7222.00,1.07
7221.00,1.07
7220.00,1.07
7219.00,1.07
7218.00,1.06
7217.00,1.06
7216.00,1.06
7215.00,1.06
7214.00,1.06
7213.00,1.06
7212.00,1.05
7211.00,1.05
7210.00,1.05
7209.00,1.04
7208.00,1.04
7207.00,1.04
7206.00,1.03
7205.00,1.03
7204.00,1.02
7203.00,1.02
7202.00,1.01
7201.00,1.00
7200.00,1.00
7199.00,0.99
7198.00,0.98
7197.00,0.97
7196.00,0.97
7195.00,0.96
7194.00,0.95
7193.00,0.95
7192.00,0.94
7191.00,0.94
7190.00,0.93
7189.00,0.92
7188.00,0.92
7187.00,0.91
7186.00,0.91
7185.00,0.90
7184.00,0.89
7183.00,0.89
7182.00,0.88
7181.00,0.88
7180.00,0.88
7179.00,0.87
7178.00,0.87
7177.00,0.87
7176.00,0.86
7175.00,0.86
7174.00,0.86
7173.00,0.85
7172.00,0.85
7171.00,0.85
7170.00,0.84
7169.00,0.84
7168.00,0.84
7167.00,0.84
7166.00,0.84
7165.00,0.83
7164.00,0.83
7163.00,0.83
7162.00,0.83
7161.00,0.83
7160.00,0.83
7159.00,0.83
7158.00,0.82
7157.00,0.82
7156.00,0.82
7155.00,0.82
7154.00,0.82
7153.00,0.82
7152.00,0.82
7151.00,0.82
7150.00,0.82
7149.00,0.82
7148.00,0.82
7147.00,0.82
7146.00,0.82
7145.00,0.82
7144.00,0.82
7143.00,0.82
7142.00,0.82
7141.00,0.81
7140.00,0.81
7139.00,0.81
7138.00,0.81
7137.00,0.81
7136.00,0.81
7135.00,0.81
7134.00,0.81
7133.00,0.81
7132.00,0.80
7131.00,0.80
7130.00,0.80
7129.00,0.80
7128.00,0.80
7127.00,0.80
7126.00,0.79
7125.00,0.79
7124.00,0.79
7123.00,0.79
7122.00,0.78
7121.00,0.78
7120.00,0.77
7119.00,0.77
7118.00,0.77
7117.00,0.76
7116.00,0.76
7115.00,0.75
7114.00,0.75
7113.00,0.74
7112.00,0.74
7111.00,0.73
7110.00,0.73
7109.00,0.73
7108.00,0.72
7107.00,0.72
7106.00,0.71
7105.00,0.71
7104.00,0.70
7103.00,0.70
7102.00,0.69
7101.00,0.69
7100.00,0.68
7099.00,0.68
7098.00,0.68
7097.00,0.67
7096.00,0.67
7095.00,0.67
7094.00,0.67
7093.00,0.67
7092.00,0.67
7091.00,0.67
7090.00,0.67
7089.00,0.66
7088.00,0.66
7087.00,0.66
7086.00,0.66
7085.00,0.66
7084.00,0.66
7083.00,0.66
7082.00,0.66
7081.00,0.66
7080.00,0.66
7079.00,0.66
7078.00,0.66
7077.00,0.65
7076.00,0.65
7075.00,0.65
7074.00,0.65
7073.00,0.65
7072.00,0.65
7071.00,0.64
7070.00,0.64
7069.00,0.64
7068.00,0.64
7067.00,0.64
7066.00,0.63
7065.00,0.63
7064.00,0.63
7063.00,0.63
7062.00,0.62
7061.00,0.62
7060.00,0.62
7059.00,0.62
7058.00,0.61
7057.00,0.61
7056.00,0.61
7055.00,0.61
7054.00,0.61
7053.00,0.61
7052.00,0.61
7051.00,0.61
7050.00,0.61
7049.00,0.61
7048.00,0.61
7047.00,0.61
7046.00,0.61
7045.00,0.61
7044.00,0.61
7043.00,0.62
7042.00,0.62
7041.00,0.62
7040.00,0.62
7039.00,0.62
7038.00,0.62
7037.00,0.62
7036.00,0.62
7035.00,0.62
7034.00,0.62
7033.00,0.63
7032.00,0.63
7031.00,0.63
7030.00,0.63
7029.00,0.63
7028.00,0.63
7027.00,0.63
7026.00,0.63
7025.00,0.63
7024.00,0.63
7023.00,0.63
7022.00,0.63
7021.00,0.63
7020.00,0.63
7019.00,0.63
7018.00,0.63
7017.00,0.63
7016.00,0.63
7015.00,0.63
7014.00,0.62
7013.00,0.62
7012.00,0.62
7011.00,0.62
7010.00,0.62
7009.00,0.62
7008.00,0.62
7007.00,0.62
7006.00,0.62
7005.00,0.62
7004.00,0.62
7003.00,0.61
7002.00,0.61
7001.00,0.61
7000.00,0.61
6999.00,0.61
6998.00,0.60
6997.00,0.60
6996.00,0.60
6995.00,0.60
6994.00,0.60
6993.00,0.59
6992.00,0.59
6991.00,0.59
6990.00,0.58
6989.00,0.58
6988.00,0.58
6987.00,0.58
6986.00,0.57
6985.00,0.57
6984.00,0.57
6983.00,0.57
6982.00,0.56
6981.00,0.56
6980.00,0.56
6979.00,0.55
6978.00,0.55
6977.00,0.55
6976.00,0.55
6975.00,0.55
6974.00,0.55
6973.00,0.54
6972.00,0.54
6971.00,0.54
6970.00,0.54
6969.00,0.54
6968.00,0.54
6967.00,0.54
6966.00,0.55
6965.00,0.55
6964.00,0.55
6963.00,0.55
6962.00,0.55
6961.00,0.55
6960.00,0.56
6959.00,0.56
6958.00,0.56
6957.00,0.56
6956.00,0.57
6955.00,0.57
6954.00,0.57
6953.00,0.57
6952.00,0.58
6951.00,0.58
6950.00,0.58
6949.00,0.59
6948.00,0.59
6947.00,0.59
6946.00,0.59
6945.00,0.60
6944.00,0.60
6943.00,0.60
6942.00,0.60
6941.00,0.60
6940.00,0.60
6939.00,0.60
6938.00,0.60
6937.00,0.60
6936.00,0.60
6935.00,0.60
6934.00,0.59
6933.00,0.59
6932.00,0.59
6931.00,0.59
6930.00,0.59
6929.00,0.59
6928.00,0.58
6927.00,0.58
6926.00,0.58
6925.00,0.58
6924.00,0.57
6923.00,0.57
6922.00,0.57
6921.00,0.57
6920.00,0.56
6919.00,0.56
6918.00,0.56
6917.00,0.56
6916.00,0.56
6915.00,0.56
6914.00,0.56
6913.00,0.56
6912.00,0.56
6911.00,0.56
6910.00,0.56
6909.00,0.56
6908.00,0.56
6907.00,0.55
6906.00,0.55
6905.00,0.55
6904.00,0.55
6903.00,0.55
6902.00,0.55
6901.00,0.55
6900.00,0.55
6899.00,0.55
6898.00,0.54
6897.00,0.54
6896.00,0.54
6895.00,0.54
6894.00,0.54
6893.00,0.54
6892.00,0.53
6891.00,0.53
6890.00,0.53
6889.00,0.53
6888.00,0.53
6887.00,0.53
6886.00,0.52
6885.00,0.52
6884.00,0.52
6883.00,0.52
6882.00,0.52
6881.00,0.52
6880.00,0.52
6879.00,0.52
6878.00,0.52
6877.00,0.53
6876.00,0.53
6875.00,0.53
6874.00,0.53
6873.00,0.53
6872.00,0.54
6871.00,0.54
6870.00,0.54
6869.00,0.55
6868.00,0.55
6867.00,0.55
6866.00,0.55
6865.00,0.56
6864.00,0.56
6863.00,0.56
6862.00,0.56
6861.00,0.57
6860.00,0.57
6859.00,0.57
6858.00,0.57
6857.00,0.58
6856.00,0.58
6855.00,0.58
6854.00,0.58
6853.00,0.58
6852.00,0.58
6851.00,0.58
6850.00,0.58
6849.00,0.59
6848.00,0.59
6847.00,0.59
6846.00,0.59
6845.00,0.59
6844.00,0.59
6843.00,0.59
6842.00,0.59
6841.00,0.59
6840.00,0.59
6839.00,0.59
6838.00,0.59
6837.00,0.59
6836.00,0.59
6835.00,0.59
6834.00,0.60
6833.00,0.60
6832.00,0.60
6831.00,0.60
6830.00,0.60
6829.00,0.60
6828.00,0.60
6827.00,0.60
6826.00,0.61
6825.00,0.61
6824.00,0.61
6823.00,0.61
6822.00,0.61
6821.00,0.61
6820.00,0.61
6819.00,0.61
6818.00,0.61
6817.00,0.61
6816.00,0.61
6815.00,0.61
6814.00,0.61
6813.00,0.61
6812.00,0.61
6811.00,0.61
6810.00,0.61
6809.00,0.61
6808.00,0.61
6807.00,0.60
6806.00,0.60
6805.00,0.60
6804.00,0.60
6803.00,0.60
6802.00,0.60
6801.00,0.60
6800.00,0.61
6799.00,0.61
6798.00,0.61
6797.00,0.61
6796.00,0.61
6795.00,0.61
6794.00,0.61
6793.00,0.61
6792.00,0.62
6791.00,0.62
6790.00,0.62
6789.00,0.62
6788.00,0.62
6787.00,0.63
6786.00,0.63
6785.00,0.63
6784.00,0.63
6783.00,0.63
6782.00,0.63
6781.00,0.63
6780.00,0.63
6779.00,0.64
6778.00,0.64
6777.00,0.64
6776.00,0.64
6775.00,0.64
6774.00,0.64
6773.00,0.63
6772.00,0.63
6771.00,0.63
6770.00,0.63
6769.00,0.63
6768.00,0.63
6767.00,0.62
6766.00,0.62
6765.00,0.62
6764.00,0.62
6763.00,0.61
6762.00,0.61
6761.00,0.61
6760.00,0.60
6759.00,0.60
6758.00,0.60
6757.00,0.59
6756.00,0.59
6755.00,0.59
6754.00,0.59
6753.00,0.59
6752.00,0.58
6751.00,0.58
6750.00,0.58
6749.00,0.58
6748.00,0.58
6747.00,0.58
6746.00,0.58
6745.00,0.58
6744.00,0.58
6743.00,0.58
6742.00,0.58
6741.00,0.58
6740.00,0.58
6739.00,0.58
6738.00,0.59
6737.00,0.59
6736.00,0.59
6735.00,0.59
6734.00,0.60
6733.00,0.60
6732.00,0.60
6731.00,0.60
6730.00,0.61
6729.00,0.61
6728.00,0.61
6727.00,0.61
6726.00,0.61
6725.00,0.61
6724.00,0.62
6723.00,0.62
6722.00,0.62
6721.00,0.62
6720.00,0.62
6719.00,0.62
6718.00,0.62
6717.00,0.62
6716.00,0.62
6715.00,0.62
6714.00,0.62
6713.00,0.62
6712.00,0.62
6711.00,0.62
6710.00,0.62
6709.00,0.62
6708.00,0.62
6707.00,0.62
6706.00,0.62
6705.00,0.62
6704.00,0.62
6703.00,0.62
6702.00,0.63
6701.00,0.63
6700.00,0.63
6699.00,0.63
6698.00,0.63
6697.00,0.63
6696.00,0.63
6695.00,0.64
6694.00,0.64
6693.00,0.64
6692.00,0.64
6691.00,0.65
6690.00,0.65
6689.00,0.65
6688.00,0.65
6687.00,0.65
6686.00,0.65
6685.00,0.66
6684.00,0.66
6683.00,0.66
6682.00,0.66
6681.00,0.66
6680.00,0.67
6679.00,0.67
6678.00,0.67
6677.00,0.67
6676.00,0.67
6675.00,0.68
6674.00,0.68
6673.00,0.68
6672.00,0.68
6671.00,0.68
6670.00,0.69
6669.00,0.69
6668.00,0.69
6667.00,0.69
6666.00,0.69
6665.00,0.69
6664.00,0.69
6663.00,0.69
6662.00,0.69
6661.00,0.69
6660.00,0.69
6659.00,0.69
6658.00,0.69
6657.00,0.69
6656.00,0.69
6655.00,0.69
6654.00,0.69
6653.00,0.69
6652.00,0.69
6651.00,0.69
6650.00,0.68
6649.00,0.68
6648.00,0.68
6647.00,0.68
6646.00,0.68
6645.00,0.68
6644.00,0.68
6643.00,0.68
6642.00,0.68
6641.00,0.68
6640.00,0.68
6639.00,0.68
6638.00,0.68
6637.00,0.68
6636.00,0.68
6635.00,0.68
6634.00,0.68
6633.00,0.68
6632.00,0.68
6631.00,0.68
6630.00,0.69
6629.00,0.69
6628.00,0.69
6627.00,0.69
6626.00,0.69
6625.00,0.69
6624.00,0.70
6623.00,0.70
6622.00,0.70
6621.00,0.70
6620.00,0.71
6619.00,0.71
6618.00,0.71
6617.00,0.72
6616.00,0.72
6615.00,0.72
6614.00,0.73
6613.00,0.73
6612.00,0.73
6611.00,0.74
6610.00,0.74
6609.00,0.74
6608.00,0.75
6607.00,0.75
6606.00,0.75
6605.00,0.76
6604.00,0.76
6603.00,0.76
6602.00,0.77
6601.00,0.77
6600.00,0.77
6599.00,0.78
6598.00,0.78
6597.00,0.78
6596.00,0.78
6595.00,0.79
6594.00,0.79
6593.00,0.79
6592.00,0.79
6591.00,0.79
6590.00,0.79
6589.00,0.80
6588.00,0.80
6587.00,0.80
6586.00,0.80
6585.00,0.80
6584.00,0.80
6583.00,0.79
6582.00,0.79
6581.00,0.79
6580.00,0.79
6579.00,0.79
6578.00,0.79
6577.00,0.79
6576.00,0.78
6575.00,0.78
6574.00,0.78
6573.00,0.78
6572.00,0.77
6571.00,0.77
6570.00,0.77
6569.00,0.77
6568.00,0.76
6567.00,0.76
6566.00,0.76
6565.00,0.76
6564.00,0.76
6563.00,0.76
6562.00,0.76
6561.00,0.76
6560.00,0.76
6559.00,0.77
6558.00,0.77
6557.00,0.77
6556.00,0.77
6555.00,0.77
6554.00,0.77
6553.00,0.77
6552.00,0.78
6551.00,0.78
6550.00,0.78
6549.00,0.78
6548.00,0.78
6547.00,0.79
6546.00,0.79
6545.00,0.79
6544.00,0.79
6543.00,0.79
6542.00,0.79
6541.00,0.80
6540.00,0.80
6539.00,0.80
6538.00,0.80
6537.00,0.80
6536.00,0.80
6535.00,0.80
6534.00,0.80
6533.00,0.80
6532.00,0.80
6531.00,0.80
6530.00,0.80
6529.00,0.80
6528.00,0.80
6527.00,0.80
6526.00,0.80
6525.00,0.80
6524.00,0.80
6523.00,0.80
6522.00,0.81
6521.00,0.81
6520.00,0.81
6519.00,0.81
6518.00,0.81
6517.00,0.81
6516.00,0.82
6515.00,0.82
6514.00,0.82
6513.00,0.82
6512.00,0.83
6511.00,0.83
6510.00,0.83
6509.00,0.83
6508.00,0.84
6507.00,0.84
6506.00,0.84
6505.00,0.84
6504.00,0.85
6503.00,0.85
6502.00,0.85
6501.00,0.85
6500.00,0.85
6499.00,0.85
6498.00,0.85
6497.00,0.85
6496.00,0.85
6495.00,0.85
6494.00,0.85
6493.00,0.85
6492.00,0.85
6491.00,0.85
6490.00,0.85
6489.00,0.84
6488.00,0.84
6487.00,0.84
6486.00,0.84
6485.00,0.84
6484.00,0.84
6483.00,0.84
6482.00,0.84
6481.00,0.83
6480.00,0.83
6479.00,0.83
6478.00,0.83
6477.00,0.83
6476.00,0.83
6475.00,0.83
6474.00,0.83
6473.00,0.83
6472.00,0.83
6471.00,0.83
6470.00,0.83
6469.00,0.83
6468.00,0.83
6467.00,0.84
6466.00,0.84
6465.00,0.84
6464.00,0.84
6463.00,0.84
6462.00,0.84
6461.00,0.84
6460.00,0.84
6459.00,0.84
6458.00,0.84
6457.00,0.84
6456.00,0.85
6455.00,0.85
6454.00,0.85
6453.00,0.85
6452.00,0.85
6451.00,0.85
6450.00,0.85
6449.00,0.85
6448.00,0.86
6447.00,0.86
6446.00,0.86
6445.00,0.86
6444.00,0.86
6443.00,0.86
6442.00,0.86
6441.00,0.86
6440.00,0.87
6439.00,0.87
6438.00,0.87
6437.00,0.87
6436.00,0.87
6435.00,0.87
6434.00,0.88
6433.00,0.88
6432.00,0.88
6431.00,0.88
6430.00,0.88
6429.00,0.88
6428.00,0.89
6427.00,0.89
6426.00,0.89
6425.00,0.89
6424.00,0.89
6423.00,0.89
6422.00,0.89
6421.00,0.89
6420.00,0.89
6419.00,0.89
6418.00,0.89
6417.00,0.89
6416.00,0.89
6415.00,0.89
6414.00,0.88
6413.00,0.88
6412.00,0.88
6411.00,0.88
6410.00,0.88
6409.00,0.88
6408.00,0.88
6407.00,0.88
6406.00,0.88
6405.00,0.87
6404.00,0.87
6403.00,0.87
6402.00,0.87
6401.00,0.87
6400.00,0.87
6399.00,0.87
6398.00,0.87
6397.00,0.88
6396.00,0.88
6395.00,0.88
6394.00,0.88
6393.00,0.88
6392.00,0.88
6391.00,0.88
6390.00,0.88
6389.00,0.88
6388.00,0.88
6387.00,0.88
6386.00,0.88
6385.00,0.89
6384.00,0.89
6383.00,0.89
6382.00,0.89
6381.00,0.89
6380.00,0.89
6379.00,0.89
6378.00,0.89
6377.00,0.89
6376.00,0.89
6375.00,0.89
6374.00,0.89
6373.00,0.89
6372.00,0.89
6371.00,0.89
6370.00,0.89
6369.00,0.89
6368.00,0.89
6367.00,0.89
6366.00,0.90
6365.00,0.90
6364.00,0.90
6363.00,0.90
6362.00,0.90
6361.00,0.90
6360.00,0.90
6359.00,0.90
6358.00,0.90
6357.00,0.90
6356.00,0.91
6355.00,0.91
6354.00,0.91
6353.00,0.91
6352.00,0.91
6351.00,0.92
6350.00,0.92
6349.00,0.92
6348.00,0.92
6347.00,0.92
6346.00,0.92
6345.00,0.93
6344.00,0.93
6343.00,0.93
6342.00,0.93
6341.00,0.93
6340.00,0.94
6339.00,0.94
6338.00,0.94
6337.00,0.94
6336.00,0.94
6335.00,0.94
6334.00,0.94
6333.00,0.95
6332.00,0.95
6331.00,0.95
6330.00,0.95
6329.00,0.95
6328.00,0.95
6327.00,0.95
6326.00,0.95
6325.00,0.95
6324.00,0.96
6323.00,0.96
6322.00,0.96
6321.00,0.96
6320.00,0.96
6319.00,0.97
6318.00,0.97
6317.00,0.97
6316.00,0.97
6315.00,0.98
6314.00,0.98
6313.00,0.98
6312.00,0.99
6311.00,0.99
6310.00,0.99
6309.00,1.00
6308.00,1.00
6307.00,1.00
6306.00,1.00
6305.00,1.01
6304.00,1.01
6303.00,1.01
6302.00,1.02
6301.00,1.02
6300.00,1.02
6299.00,1.02
6298.00,1.02
6297.00,1.02
6296.00,1.03
6295.00,1.03
6294.00,1.03
6293.00,1.03
6292.00,1.03
6291.00,1.03
6290.00,1.03
6289.00,1.02
6288.00,1.02
6287.00,1.02
6286.00,1.02
6285.00,1.02
6284.00,1.02
6283.00,1.02
6282.00,1.02
6281.00,1.01
6280.00,1.01
6279.00,1.01
6278.00,1.01
6277.00,1.01
6276.00,1.01
6275.00,1.01
6274.00,1.01
6273.00,1.01
6272.00,1.01
6271.00,1.01
6270.00,1.01
6269.00,1.01
6268.00,1.01
6267.00,1.01
6266.00,1.01
6265.00,1.02
6264.00,1.02
6263.00,1.02
6262.00,1.02
6261.00,1.03
6260.00,1.03
6259.00,1.03
6258.00,1.03
6257.00,1.04
6256.00,1.04
6255.00,1.04
6254.00,1.05
6253.00,1.05
6252.00,1.05
6251.00,1.06
6250.00,1.06
6249.00,1.06
6248.00,1.07
6247.00,1.07
6246.00,1.07
6245.00,1.08
6244.00,1.08
6243.00,1.09
6242.00,1.09
6241.00,1.09
6240.00,1.10
6239.00,1.10
6238.00,1.10
6237.00,1.11
6236.00,1.11
6235.00,1.11
6234.00,1.12
6233.00,1.12
6232.00,1.12
6231.00,1.12
6230.00,1.12
6229.00,1.12
6228.00,1.13
6227.00,1.13
6226.00,1.13
6225.00,1.13
6224.00,1.13
6223.00,1.13
6222.00,1.13
6221.00,1.13
6220.00,1.13
6219.00,1.14
6218.00,1.14
6217.00,1.14
6216.00,1.14
6215.00,1.14
6214.00,1.14
6213.00,1.14
6212.00,1.14
6211.00,1.15
6210.00,1.15
6209.00,1.15
6208.00,1.15
6207.00,1.15
6206.00,1.16
6205.00,1.16
6204.00,1.16
6203.00,1.16
6202.00,1.17
6201.00,1.17
6200.00,1.17
6199.00,1.18
6198.00,1.18
6197.00,1.18
6196.00,1.19
6195.00,1.19
6194.00,1.19
6193.00,1.19
6192.00,1.19
6191.00,1.19
6190.00,1.20
6189.00,1.20
6188.00,1.20
6187.00,1.20
6186.00,1.20
6185.00,1.20
6184.00,1.20
6183.00,1.20
6182.00,1.20
6181.00,1.20
6180.00,1.20
6179.00,1.20
6178.00,1.20
6177.00,1.20
6176.00,1.20
6175.00,1.20
6174.00,1.20
6173.00,1.20
6172.00,1.20
6171.00,1.20
6170.00,1.20
6169.00,1.20
6168.00,1.20
6167.00,1.20
6166.00,1.20
6165.00,1.20
6164.00,1.20
6163.00,1.20
6162.00,1.20
6161.00,1.20
6160.00,1.20
6159.00,1.20
6158.00,1.20
6157.00,1.20
6156.00,1.20
6155.00,1.20
6154.00,1.21
6153.00,1.21
6152.00,1.21
6151.00,1.21
6150.00,1.21
6149.00,1.21
6148.00,1.21
6147.00,1.22
6146.00,1.22
6145.00,1.22
6144.00,1.22
6143.00,1.23
6142.00,1.23
6141.00,1.23
6140.00,1.24
6139.00,1.24
6138.00,1.24
6137.00,1.25
6136.00,1.25
6135.00,1.25
6134.00,1.26
6133.00,1.26
6132.00,1.27
6131.00,1.27
6130.00,1.27
6129.00,1.28
6128.00,1.28
6127.00,1.29
6126.00,1.29
6125.00,1.29
6124.00,1.30
6123.00,1.30
6122.00,1.30
6121.00,1.30
6120.00,1.31
6119.00,1.31
6118.00,1.31
6117.00,1.31
6116.00,1.31
6115.00,1.31
6114.00,1.31
6113.00,1.31
6112.00,1.31
6111.00,1.31
6110.00,1.31
6109.00,1.31
6108.00,1.31
6107.00,1.31
6106.00,1.31
6105.00,1.31
6104.00,1.31
6103.00,1.31
6102.00,1.31
6101.00,1.31
6100.00,1.31
6099.00,1.31
6098.00,1.31
6097.00,1.31
6096.00,1.31
6095.00,1.31
6094.00,1.31
6093.00,1.31
6092.00,1.31
6091.00,1.31
6090.00,1.31
6089.00,1.32
6088.00,1.32
6087.00,1.32
6086.00,1.32
6085.00,1.32
6084.00,1.33
6083.00,1.33
6082.00,1.33
6081.00,1.33
6080.00,1.34
6079.00,1.34
6078.00,1.34
6077.00,1.35
6076.00,1.35
6075.00,1.35
6074.00,1.35
6073.00,1.36
6072.00,1.36
6071.00,1.36
6070.00,1.37
6069.00,1.37
6068.00,1.37
6067.00,1.38
6066.00,1.38
6065.00,1.38
6064.00,1.38
6063.00,1.38
6062.00,1.39
6061.00,1.39
6060.00,1.39
6059.00,1.39
6058.00,1.39
6057.00,1.39
6056.00,1.39
6055.00,1.39
6054.00,1.39
6053.00,1.40
6052.00,1.40
6051.00,1.40
6050.00,1.40
6049.00,1.40
6048.00,1.39
6047.00,1.39
6046.00,1.39
6045.00,1.39
6044.00,1.39
6043.00,1.39
6042.00,1.39
6041.00,1.39
6040.00,1.39
6039.00,1.39
6038.00,1.39
6037.00,1.39
6036.00,1.39
6035.00,1.39
6034.00,1.39
6033.00,1.39
6032.00,1.39
6031.00,1.39
6030.00,1.39
6029.00,1.39
6028.00,1.39
6027.00,1.40
6026.00,1.40
6025.00,1.40
6024.00,1.40
6023.00,1.40
6022.00,1.40
6021.00,1.41
6020.00,1.41
6019.00,1.41
6018.00,1.41
6017.00,1.41
6016.00,1.41
6015.00,1.42
6014.00,1.42
6013.00,1.42
6012.00,1.42
6011.00,1.42
6010.00,1.42
6009.00,1.42
6008.00,1.43
6007.00,1.43
6006.00,1.43
6005.00,1.43
6004.00,1.43
6003.00,1.43
6002.00,1.43
6001.00,1.43
6000.00,1.43
5999.00,1.43
5998.00,1.43
5997.00,1.42
5996.00,1.42
5995.00,1.42
5994.00,1.42
5993.00,1.41
5992.00,1.41
5991.00,1.41
5990.00,1.40
5989.00,1.40
5988.00,1.40
5987.00,1.39
5986.00,1.39
5985.00,1.38
5984.00,1.38
5983.00,1.37
5982.00,1.37
5981.00,1.36
5980.00,1.36
5979.00,1.35
5978.00,1.35
5977.00,1.34
5976.00,1.33
5975.00,1.33
5974.00,1.32
5973.00,1.32
5972.00,1.31
5971.00,1.31
5970.00,1.30
5969.00,1.30
5968.00,1.29
5967.00,1.29
5966.00,1.28
5965.00,1.28
5964.00,1.27
5963.00,1.27
5962.00,1.26
5961.00,1.25
5960.00,1.25
5959.00,1.24
5958.00,1.24
5957.00,1.23
5956.00,1.23
5955.00,1.23
5954.00,1.22
5953.00,1.22
5952.00,1.21
5951.00,1.21
5950.00,1.21
5949.00,1.20
5948.00,1.20
5947.00,1.19
5946.00,1.19
5945.00,1.18
5944.00,1.18
5943.00,1.18
5942.00,1.17
5941.00,1.17
5940.00,1.16
5939.00,1.16
5938.00,1.16
5937.00,1.15
5936.00,1.15
5935.00,1.15
5934.00,1.14
5933.00,1.14
5932.00,1.14
5931.00,1.13
5930.00,1.13
5929.00,1.13
5928.00,1.12
5927.00,1.12
5926.00,1.12
5925.00,1.11
5924.00,1.11
5923.00,1.11
5922.00,1.10
5921.00,1.10
5920.00,1.10
5919.00,1.09
5918.00,1.09
5917.00,1.09
5916.00,1.09
5915.00,1.08
5914.00,1.08
5913.00,1.08
5912.00,1.08
5911.00,1.07
5910.00,1.07
5909.00,1.07
5908.00,1.07
5907.00,1.07
5906.00,1.06
5905.00,1.06
5904.00,1.06
5903.00,1.06
5902.00,1.06
5901.00,1.06
5900.00,1.06
5899.00,1.06
5898.00,1.06
5897.00,1.06
5896.00,1.06
5895.00,1.06
5894.00,1.06
5893.00,1.06
5892.00,1.06
5891.00,1.06
5890.00,1.06
5889.00,1.06
5888.00,1.06
5887.00,1.07
5886.00,1.07
5885.00,1.07
5884.00,1.07
5883.00,1.08
5882.00,1.08
5881.00,1.08
5880.00,1.08
5879.00,1.09
5878.00,1.09
5877.00,1.09
5876.00,1.09
5875.00,1.09
5874.00,1.10
5873.00,1.10
5872.00,1.10
5871.00,1.11
5870.00,1.11
5869.00,1.11
5868.00,1.12
5867.00,1.12
5866.00,1.12
5865.00,1.13
5864.00,1.13
5863.00,1.13
5862.00,1.14
5861.00,1.14
5860.00,1.14
5859.00,1.15
5858.00,1.15
5857.00,1.15
5856.00,1.15
5855.00,1.16
5854.00,1.16
5853.00,1.16
5852.00,1.16
5851.00,1.16
5850.00,1.17
5849.00,1.17
5848.00,1.17
5847.00,1.17
5846.00,1.17
5845.00,1.18
5844.00,1.18
5843.00,1.18
5842.00,1.18
5841.00,1.18
5840.00,1.18
5839.00,1.18
5838.00,1.18
5837.00,1.18
5836.00,1.18
5835.00,1.18
5834.00,1.18
5833.00,1.18
5832.00,1.18
5831.00,1.18
5830.00,1.18
5829.00,1.18
5828.00,1.18
5827.00,1.18
5826.00,1.18
5825.00,1.18
5824.00,1.18
5823.00,1.18
5822.00,1.18
5821.00,1.18
5820.00,1.18
5819.00,1.18
5818.00,1.18
5817.00,1.18
5816.00,1.18
5815.00,1.18
5814.00,1.18
5813.00,1.18
5812.00,1.18
5811.00,1.18
5810.00,1.18
5809.00,1.18
5808.00,1.18
5807.00,1.18
5806.00,1.18
5805.00,1.19
5804.00,1.19
5803.00,1.19
5802.00,1.19
5801.00,1.19
5800.00,1.19
5799.00,1.19
5798.00,1.19
5797.00,1.19
5796.00,1.19
5795.00,1.19
5794.00,1.18
5793.00,1.18
5792.00,1.18
5791.00,1.18
5790.00,1.18
5789.00,1.17
5788.00,1.17
5787.00,1.17
5786.00,1.16
5785.00,1.16
5784.00,1.15
5783.00,1.15
5782.00,1.15
5781.00,1.14
5780.00,1.14
5779.00,1.14
5778.00,1.14
5777.00,1.13
5776.00,1.13
5775.00,1.13
5774.00,1.13
5773.00,1.12
5772.00,1.12
5771.00,1.12
5770.00,1.12
5769.00,1.12
5768.00,1.12
5767.00,1.12
5766.00,1.12
5765.00,1.12
5764.00,1.13
5763.00,1.13
5762.00,1.13
5761.00,1.14
5760.00,1.14
5759.00,1.14
5758.00,1.15
5757.00,1.15
5756.00,1.15
5755.00,1.16
5754.00,1.16
5753.00,1.16
5752.00,1.16
5751.00,1.17
5750.00,1.17
5749.00,1.17
5748.00,1.17
5747.00,1.18
5746.00,1.18
5745.00,1.18
5744.00,1.18
5743.00,1.19
5742.00,1.19
5741.00,1.19
5740.00,1.19
5739.00,1.19
5738.00,1.19
5737.00,1.19
5736.00,1.19
5735.00,1.19
5734.00,1.19
5733.00,1.19
5732.00,1.19
5731.00,1.19
5730.00,1.19
5729.00,1.19
5728.00,1.19
5727.00,1.20
5726.00,1.20
5725.00,1.20
5724.00,1.20
5723.00,1.20
5722.00,1.20
5721.00,1.20
5720.00,1.21
5719.00,1.21
5718.00,1.21
5717.00,1.21
5716.00,1.21
5715.00,1.22
5714.00,1.22
5713.00,1.22
5712.00,1.22
5711.00,1.22
5710.00,1.23
5709.00,1.23
5708.00,1.23
5707.00,1.23
5706.00,1.23
5705.00,1.23
5704.00,1.23
5703.00,1.24
5702.00,1.24
5701.00,1.24
5700.00,1.24
5699.00,1.24
5698.00,1.24
5697.00,1.24
5696.00,1.24
5695.00,1.24
5694.00,1.23
5693.00,1.23
5692.00,1.23
5691.00,1.23
5690.00,1.23
5689.00,1.23
5688.00,1.22
5687.00,1.22
5686.00,1.22
5685.00,1.22
5684.00,1.22
5683.00,1.22
5682.00,1.21
5681.00,1.21
5680.00,1.21
5679.00,1.21
5678.00,1.21
5677.00,1.20
5676.00,1.20
5675.00,1.20
5674.00,1.20
5673.00,1.19
5672.00,1.19
5671.00,1.19
5670.00,1.19
5669.00,1.19
5668.00,1.19
5667.00,1.19
5666.00,1.19
5665.00,1.19
5664.00,1.19
5663.00,1.19
5662.00,1.19
5661.00,1.19
5660.00,1.19
5659.00,1.20
5658.00,1.20
5657.00,1.20
5656.00,1.20
5655.00,1.20
5654.00,1.20
5653.00,1.21
5652.00,1.21
5651.00,1.21
5650.00,1.22
5649.00,1.22
5648.00,1.22
5647.00,1.23
5646.00,1.23
5645.00,1.23
5644.00,1.23
5643.00,1.24
5642.00,1.24
5641.00,1.24
5640.00,1.24
5639.00,1.24
5638.00,1.25
5637.00,1.25
5636.00,1.25
5635.00,1.25
5634.00,1.25
5633.00,1.26
5632.00,1.26
5631.00,1.26
5630.00,1.26
5629.00,1.26
5628.00,1.26
5627.00,1.27
5626.00,1.27
5625.00,1.27
5624.00,1.27
5623.00,1.27
5622.00,1.27
5621.00,1.28
5620.00,1.28
5619.00,1.28
5618.00,1.28
5617.00,1.29
5616.00,1.29
5615.00,1.29
5614.00,1.29
5613.00,1.29
5612.00,1.30
5611.00,1.30
5610.00,1.30
5609.00,1.30
5608.00,1.31
5607.00,1.31
5606.00,1.31
5605.00,1.31
5604.00,1.31
5603.00,1.32
5602.00,1.32
5601.00,1.32
5600.00,1.32
5599.00,1.32
5598.00,1.33
5597.00,1.33
5596.00,1.33
5595.00,1.33
5594.00,1.33
5593.00,1.34
5592.00,1.34
5591.00,1.34
5590.00,1.34
5589.00,1.35
5588.00,1.35
5587.00,1.35
5586.00,1.36
5585.00,1.36
5584.00,1.36
5583.00,1.36
5582.00,1.37
5581.00,1.37
5580.00,1.37
5579.00,1.37
5578.00,1.38
5577.00,1.38
5576.00,1.38
5575.00,1.38
5574.00,1.39
5573.00,1.39
5572.00,1.39
5571.00,1.39
5570.00,1.39
5569.00,1.40
5568.00,1.40
5567.00,1.40
5566.00,1.40
5565.00,1.40
5564.00,1.40
5563.00,1.41
5562.00,1.41
5561.00,1.41
5560.00,1.41
5559.00,1.41
5558.00,1.41
5557.00,1.41
5556.00,1.42
5555.00,1.42
5554.00,1.42
5553.00,1.42
5552.00,1.42
5551.00,1.42
5550.00,1.42
5549.00,1.43
5548.00,1.43
5547.00,1.43
5546.00,1.43
5545.00,1.43
5544.00,1.43
5543.00,1.43
5542.00,1.44
5541.00,1.44
5540.00,1.44
5539.00,1.44
5538.00,1.44
5537.00,1.44
5536.00,1.44
5535.00,1.44
5534.00,1.44
5533.00,1.44
5532.00,1.44
5531.00,1.44
5530.00,1.44
5529.00,1.44
5528.00,1.44
5527.00,1.44
5526.00,1.44
5525.00,1.44
5524.00,1.44
5523.00,1.45
5522.00,1.45
5521.00,1.45
5520.00,1.45
5519.00,1.45
5518.00,1.45
5517.00,1.46
5516.00,1.46
5515.00,1.46
5514.00,1.46
5513.00,1.47
5512.00,1.47
5511.00,1.47
5510.00,1.48
5509.00,1.48
5508.00,1.48
5507.00,1.49
5506.00,1.49
5505.00,1.49
5504.00,1.50
5503.00,1.50
5502.00,1.50
5501.00,1.51
5500.00,1.51
5499.00,1.51
5498.00,1.52
5497.00,1.52
5496.00,1.52
5495.00,1.52
5494.00,1.52
5493.00,1.52
5492.00,1.53
5491.00,1.53
5490.00,1.53
5489.00,1.53
5488.00,1.53
5487.00,1.53
5486.00,1.53
5485.00,1.53
5484.00,1.53
5483.00,1.53
5482.00,1.53
5481.00,1.53
5480.00,1.53
5479.00,1.53
5478.00,1.53
5477.00,1.52
5476.00,1.52
5475.00,1.52
5474.00,1.52
5473.00,1.52
5472.00,1.52
5471.00,1.52
5470.00,1.52
5469.00,1.52
5468.00,1.52
5467.00,1.52
5466.00,1.53
5465.00,1.53
5464.00,1.53
5463.00,1.53
5462.00,1.53
5461.00,1.53
5460.00,1.54
5459.00,1.54
5458.00,1.54
5457.00,1.54
5456.00,1.54
5455.00,1.54
5454.00,1.54
5453.00,1.54
5452.00,1.55
5451.00,1.55
5450.00,1.55
5449.00,1.55
5448.00,1.55
5447.00,1.55
5446.00,1.55
5445.00,1.55
5444.00,1.56
5443.00,1.56
5442.00,1.56
5441.00,1.56
5440.00,1.56
5439.00,1.56
5438.00,1.55
5437.00,1.55
5436.00,1.55
5435.00,1.55
5434.00,1.55
5433.00,1.55
5432.00,1.54
5431.00,1.54
5430.00,1.54
5429.00,1.54
5428.00,1.54
5427.00,1.54
5426.00,1.53
5425.00,1.53
5424.00,1.53
5423.00,1.53
5422.00,1.52
5421.00,1.52
5420.00,1.52
5419.00,1.52
5418.00,1.51
5417.00,1.51
5416.00,1.51
5415.00,1.51
5414.00,1.50
5413.00,1.50
5412.00,1.50
5411.00,1.50
5410.00,1.50
5409.00,1.50
5408.00,1.49
5407.00,1.49
5406.00,1.49
5405.00,1.49
5404.00,1.49
5403.00,1.49
5402.00,1.49
5401.00,1.49
5400.00,1.49
5399.00,1.49
5398.00,1.49
5397.00,1.49
5396.00,1.49
5395.00,1.48
5394.00,1.48
5393.00,1.48
5392.00,1.48
5391.00,1.48
5390.00,1.48
5389.00,1.48
5388.00,1.47
5387.00,1.47
5386.00,1.47
5385.00,1.47
5384.00,1.46
5383.00,1.46
5382.00,1.46
5381.00,1.45
5380.00,1.45
5379.00,1.44
5378.00,1.44
5377.00,1.43
5376.00,1.43
5375.00,1.42
5374.00,1.42
5373.00,1.41
5372.00,1.40
5371.00,1.40
5370.00,1.39
5369.00,1.38
5368.00,1.37
5367.00,1.36
5366.00,1.36
5365.00,1.35
5364.00,1.34
5363.00,1.33
5362.00,1.32
5361.00,1.31
5360.00,1.31
5359.00,1.30
5358.00,1.29
5357.00,1.28
5356.00,1.27
5355.00,1.26
5354.00,1.25
5353.00,1.24
5352.00,1.23
5351.00,1.22
5350.00,1.21
5349.00,1.20
5348.00,1.19
5347.00,1.18
5346.00,1.17
5345.00,1.17
5344.00,1.16
5343.00,1.15
5342.00,1.14
5341.00,1.13
5340.00,1.12
5339.00,1.11
5338.00,1.10
5337.00,1.09
5336.00,1.08
5335.00,1.07
5334.00,1.07
5333.00,1.06
5332.00,1.05
5331.00,1.04
5330.00,1.03
5329.00,1.02
5328.00,1.01
5327.00,1.00
5326.00,0.99
5325.00,0.98
5324.00,0.97
5323.00,0.96
5322.00,0.95
5321.00,0.95
5320.00,0.94
5319.00,0.93
5318.00,0.92
5317.00,0.91
5316.00,0.91
5315.00,0.90
5314.00,0.89
5313.00,0.88
5312.00,0.88
5311.00,0.87
5310.00,0.86
5309.00,0.86
5308.00,0.85
5307.00,0.85
5306.00,0.84
5305.00,0.84
5304.00,0.83
5303.00,0.83
5302.00,0.83
5301.00,0.82
5300.00,0.82
5299.00,0.81
5298.00,0.81
5297.00,0.81
5296.00,0.80
5295.00,0.80
5294.00,0.79
5293.00,0.79
5292.00,0.79
5291.00,0.78
5290.00,0.78
5289.00,0.78
5288.00,0.77
5287.00,0.77
5286.00,0.77
5285.00,0.77
5284.00,0.76
5283.00,0.76
5282.00,0.76
5281.00,0.76
5280.00,0.76
5279.00,0.75
5278.00,0.75
5277.00,0.75
5276.00,0.75
5275.00,0.75
5274.00,0.75
5273.00,0.75
5272.00,0.75
5271.00,0.75
5270.00,0.75
5269.00,0.76
5268.00,0.76
5267.00,0.76
5266.00,0.76
5265.00,0.76
5264.00,0.76
5263.00,0.77
5262.00,0.77
5261.00,0.77
5260.00,0.78
5259.00,0.78
5258.00,0.78
5257.00,0.78
5256.00,0.79
5255.00,0.79
5254.00,0.79
5253.00,0.79
5252.00,0.80
5251.00,0.80
5250.00,0.80
5249.00,0.80
5248.00,0.80
5247.00,0.80
5246.00,0.81
5245.00,0.81
5244.00,0.81
5243.00,0.81
5242.00,0.81
5241.00,0.81
5240.00,0.81
5239.00,0.81
5238.00,0.81
5237.00,0.81
5236.00,0.81
5235.00,0.81
5234.00,0.81
5233.00,0.81
5232.00,0.81
5231.00,0.81
5230.00,0.81
5229.00,0.81
5228.00,0.81
5227.00,0.81
5226.00,0.81
5225.00,0.81
5224.00,0.81
5223.00,0.81
5222.00,0.81
5221.00,0.81
5220.00,0.81
5219.00,0.81
5218.00,0.81
5217.00,0.81
5216.00,0.82
5215.00,0.82
5214.00,0.82
5213.00,0.82
5212.00,0.82
5211.00,0.83
5210.00,0.83
5209.00,0.83
5208.00,0.83
5207.00,0.83
5206.00,0.84
5205.00,0.84
5204.00,0.84
5203.00,0.84
5202.00,0.84
5201.00,0.84
5200.00,0.84
5199.00,0.85
5198.00,0.85
5197.00,0.85
5196.00,0.85
5195.00,0.85
5194.00,0.85
5193.00,0.85
5192.00,0.85
5191.00,0.85
5190.00,0.85
5189.00,0.85
5188.00,0.85
5187.00,0.86
5186.00,0.86
5185.00,0.86
5184.00,0.86
5183.00,0.86
5182.00,0.86
5181.00,0.85
5180.00,0.85
5179.00,0.85
5178.00,0.85
5177.00,0.85
5176.00,0.85
5175.00,0.85
5174.00,0.85
5173.00,0.85
5172.00,0.85
5171.00,0.85
5170.00,0.85
5169.00,0.85
5168.00,0.85
5167.00,0.85
5166.00,0.85
5165.00,0.86
5164.00,0.86
5163.00,0.86
5162.00,0.86
5161.00,0.86
5160.00,0.86
5159.00,0.86
5158.00,0.86
5157.00,0.86
5156.00,0.86
5155.00,0.86
5154.00,0.86
5153.00,0.86
5152.00,0.87
5151.00,0.87
5150.00,0.87
5149.00,0.87
5148.00,0.87
5147.00,0.87
5146.00,0.87
5145.00,0.87
5144.00,0.87
5143.00,0.87
5142.00,0.87
5141.00,0.87
5140.00,0.87
5139.00,0.86
5138.00,0.86
5137.00,0.86
5136.00,0.86
5135.00,0.86
5134.00,0.86
5133.00,0.86
5132.00,0.86
5131.00,0.85
5130.00,0.85
5129.00,0.85
5128.00,0.85
5127.00,0.85
5126.00,0.84
5125.00,0.84
5124.00,0.84
5123.00,0.84
5122.00,0.84
5121.00,0.83
5120.00,0.83
5119.00,0.83
5118.00,0.83
5117.00,0.83
5116.00,0.83
5115.00,0.83
5114.00,0.83
5113.00,0.83
5112.00,0.83
5111.00,0.83
5110.00,0.83
5109.00,0.83
5108.00,0.83
5107.00,0.83
5106.00,0.83
5105.00,0.84
5104.00,0.84
5103.00,0.84
5102.00,0.84
5101.00,0.84
5100.00,0.84
5099.00,0.84
5098.00,0.84
5097.00,0.84
5096.00,0.85
5095.00,0.85
5094.00,0.85
5093.00,0.85
5092.00,0.85
5091.00,0.85
5090.00,0.86
5089.00,0.86
5088.00,0.86
5087.00,0.86
5086.00,0.86
5085.00,0.86
5084.00,0.86
5083.00,0.86
5082.00,0.86
5081.00,0.87
5080.00,0.87
5079.00,0.87
5078.00,0.87
5077.00,0.87
5076.00,0.87
5075.00,0.87
5074.00,0.87
5073.00,0.88
5072.00,0.88
5071.00,0.88
5070.00,0.88
5069.00,0.88
5068.00,0.88
5067.00,0.88
5066.00,0.88
5065.00,0.88
5064.00,0.88
5063.00,0.88
5062.00,0.88
5061.00,0.88
5060.00,0.88
5059.00,0.88
5058.00,0.88
5057.00,0.88
5056.00,0.88
5055.00,0.88
5054.00,0.87
5053.00,0.87
5052.00,0.87
5051.00,0.87
5050.00,0.87
5049.00,0.87
5048.00,0.87
5047.00,0.87
5046.00,0.87
5045.00,0.87
5044.00,0.87
5043.00,0.87
5042.00,0.87
5041.00,0.88
5040.00,0.88
5039.00,0.88
5038.00,0.88
5037.00,0.88
5036.00,0.88
5035.00,0.88
5034.00,0.88
5033.00,0.88
5032.00,0.89
5031.00,0.89
5030.00,0.89
5029.00,0.89
5028.00,0.89
5027.00,0.89
5026.00,0.90
5025.00,0.90
5024.00,0.90
5023.00,0.90
5022.00,0.90
5021.00,0.90
5020.00,0.90
5019.00,0.90
5018.00,0.90
5017.00,0.90
5016.00,0.90
5015.00,0.90
5014.00,0.90
5013.00,0.90
5012.00,0.90
5011.00,0.91
5010.00,0.91
5009.00,0.91
5008.00,0.91
5007.00,0.91
5006.00,0.91
5005.00,0.91
5004.00,0.90
5003.00,0.90
5002.00,0.90
5001.00,0.90
5000.00,0.90
4999.00,0.90
4998.00,0.90
4997.00,0.90
4996.00,0.90
4995.00,0.90
4994.00,0.90
4993.00,0.89
4992.00,0.89
4991.00,0.89
4990.00,0.89
4989.00,0.89
4988.00,0.89
4987.00,0.88
4986.00,0.88
4985.00,0.88
4984.00,0.88
4983.00,0.88
4982.00,0.88
4981.00,0.88
4980.00,0.88
4979.00,0.87
4978.00,0.87
4977.00,0.87
4976.00,0.87
4975.00,0.88
4974.00,0.88
4973.00,0.88
4972.00,0.88
4971.00,0.88
4970.00,0.88
4969.00,0.88
4968.00,0.89
4967.00,0.89
4966.00,0.89
4965.00,0.89
4964.00,0.89
4963.00,0.90
4962.00,0.90
4961.00,0.90
4960.00,0.90
4959.00,0.91
4958.00,0.91
4957.00,0.91
4956.00,0.91
4955.00,0.92
4954.00,0.92
4953.00,0.92
4952.00,0.92
4951.00,0.92
4950.00,0.92
4949.00,0.92
4948.00,0.92
4947.00,0.92
4946.00,0.92
4945.00,0.93
4944.00,0.93
4943.00,0.93
4942.00,0.93
4941.00,0.93
4940.00,0.93
4939.00,0.93
4938.00,0.93
4937.00,0.93
4936.00,0.93
4935.00,0.94
4934.00,0.94
4933.00,0.94
4932.00,0.94
4931.00,0.94
4930.00,0.94
4929.00,0.94
4928.00,0.94
4927.00,0.94
4926.00,0.95
4925.00,0.95
4924.00,0.95
4923.00,0.95
4922.00,0.95
4921.00,0.95
4920.00,0.95
4919.00,0.95
4918.00,0.96
4917.00,0.96
4916.00,0.96
4915.00,0.96
4914.00,0.96
4913.00,0.96
4912.00,0.96
4911.00,0.97
4910.00,0.97
4909.00,0.97
4908.00,0.97
4907.00,0.97
4906.00,0.97
4905.00,0.97
4904.00,0.98
4903.00,0.98
4902.00,0.98
4901.00,0.98
4900.00,0.98
4899.00,0.98
4898.00,0.98
4897.00,0.98
4896.00,0.98
4895.00,0.98
4894.00,0.99
4893.00,0.99
4892.00,0.99
4891.00,0.99
4890.00,0.98
4889.00,0.98
4888.00,0.98
4887.00,0.98
4886.00,0.98
4885.00,0.98
4884.00,0.98
4883.00,0.98
4882.00,0.97
4881.00,0.97
4880.00,0.97
4879.00,0.97
4878.00,0.97
4877.00,0.97
4876.00,0.96
4875.00,0.96
4874.00,0.96
4873.00,0.96
4872.00,0.96
4871.00,0.96
4870.00,0.96
4869.00,0.95
4868.00,0.95
4867.00,0.95
4866.00,0.95
4865.00,0.95
4864.00,0.95
4863.00,0.95
4862.00,0.95
4861.00,0.95
4860.00,0.95
4859.00,0.95
4858.00,0.95
4857.00,0.95
4856.00,0.95
4855.00,0.95
4854.00,0.96
4853.00,0.96
4852.00,0.96
4851.00,0.96
4850.00,0.96
4849.00,0.96
4848.00,0.96
4847.00,0.96
4846.00,0.96
4845.00,0.97
4844.00,0.97
4843.00,0.97
4842.00,0.97
4841.00,0.97
4840.00,0.97
4839.00,0.97
4838.00,0.97
4837.00,0.98
4836.00,0.98
4835.00,0.98
4834.00,0.98
4833.00,0.98
4832.00,0.98
4831.00,0.98
4830.00,0.98
4829.00,0.98
4828.00,0.98
4827.00,0.98
4826.00,0.99
4825.00,0.99
4824.00,0.99
4823.00,0.99
4822.00,0.99
4821.00,1.00
4820.00,1.00
4819.00,1.00
4818.00,1.00
4817.00,1.00
4816.00,1.01
4815.00,1.01
4814.00,1.01
4813.00,1.01
4812.00,1.02
4811.00,1.02
4810.00,1.02
4809.00,1.03
4808.00,1.03
4807.00,1.03
4806.00,1.03
4805.00,1.04
4804.00,1.04
4803.00,1.04
4802.00,1.04
4801.00,1.04
4800.00,1.04
4799.00,1.04
4798.00,1.04
4797.00,1.04
4796.00,1.04
4795.00,1.04
4794.00,1.04
4793.00,1.04
4792.00,1.04
4791.00,1.04
4790.00,1.04
4789.00,1.04
4788.00,1.04
4787.00,1.04
4786.00,1.04
4785.00,1.04
4784.00,1.04
4783.00,1.04
4782.00,1.03
4781.00,1.03
4780.00,1.03
4779.00,1.03
4778.00,1.04
4777.00,1.04
4776.00,1.04
4775.00,1.04
4774.00,1.04
4773.00,1.04
4772.00,1.04
4771.00,1.04
4770.00,1.04
4769.00,1.04
4768.00,1.05
4767.00,1.05
4766.00,1.05
4765.00,1.05
4764.00,1.05
4763.00,1.05
4762.00,1.05
4761.00,1.05
4760.00,1.05
4759.00,1.05
4758.00,1.05
4757.00,1.05
4756.00,1.05
4755.00,1.05
4754.00,1.05
4753.00,1.05
4752.00,1.05
4751.00,1.05
4750.00,1.04
4749.00,1.04
4748.00,1.04
4747.00,1.04
4746.00,1.04
4745.00,1.04
4744.00,1.04
4743.00,1.04
4742.00,1.03
4741.00,1.03
4740.00,1.03
4739.00,1.03
4738.00,1.03
4737.00,1.03
4736.00,1.03
4735.00,1.03
4734.00,1.03
4733.00,1.03
4732.00,1.03
4731.00,1.03
4730.00,1.04
4729.00,1.04
4728.00,1.04
4727.00,1.04
4726.00,1.05
4725.00,1.05
4724.00,1.05
4723.00,1.05
4722.00,1.06
4721.00,1.06
4720.00,1.06
4719.00,1.06
4718.00,1.07
4717.00,1.07
4716.00,1.07
4715.00,1.08
4714.00,1.08
4713.00,1.08
4712.00,1.09
4711.00,1.09
4710.00,1.09
4709.00,1.09
4708.00,1.09
4707.00,1.10
4706.00,1.10
4705.00,1.10
4704.00,1.10
4703.00,1.10
4702.00,1.10
4701.00,1.10
4700.00,1.10
4699.00,1.11
4698.00,1.11
4697.00,1.11
4696.00,1.11
4695.00,1.11
4694.00,1.11
4693.00,1.11
4692.00,1.11
4691.00,1.11
4690.00,1.11
4689.00,1.11
4688.00,1.11
4687.00,1.11
4686.00,1.11
4685.00,1.12
4684.00,1.12
4683.00,1.12
4682.00,1.13
4681.00,1.13
4680.00,1.14
4679.00,1.14
4678.00,1.14
4677.00,1.15
4676.00,1.15
4675.00,1.16
4674.00,1.16
4673.00,1.16
4672.00,1.17
4671.00,1.17
4670.00,1.17
4669.00,1.18
4668.00,1.18
4667.00,1.19
4666.00,1.19
4665.00,1.20
4664.00,1.20
4663.00,1.21
4662.00,1.21
4661.00,1.22
4660.00,1.22
4659.00,1.22
4658.00,1.22
4657.00,1.22
4656.00,1.22
4655.00,1.22
4654.00,1.22
4653.00,1.22
4652.00,1.22
4651.00,1.22
4650.00,1.22
4649.00,1.22
4648.00,1.21
4647.00,1.21
4646.00,1.21
4645.00,1.21
4644.00,1.21
4643.00,1.20
4642.00,1.20
4641.00,1.20
4640.00,1.19
4639.00,1.19
4638.00,1.19
4637.00,1.19
4636.00,1.18
4635.00,1.18
4634.00,1.18
4633.00,1.18
4632.00,1.18
4631.00,1.18
4630.00,1.18
4629.00,1.18
4628.00,1.18
4627.00,1.18
4626.00,1.18
4625.00,1.18
4624.00,1.18
4623.00,1.18
4622.00,1.19
4621.00,1.19
4620.00,1.19
4619.00,1.19
4618.00,1.20
4617.00,1.20
4616.00,1.20
4615.00,1.20
4614.00,1.20
4613.00,1.21
4612.00,1.21
4611.00,1.21
4610.00,1.21
4609.00,1.21
4608.00,1.21
4607.00,1.22
4606.00,1.22
4605.00,1.22
4604.00,1.22
4603.00,1.22
4602.00,1.22
4601.00,1.22
4600.00,1.22
4599.00,1.22
4598.00,1.22
4597.00,1.22
4596.00,1.22
4595.00,1.22
4594.00,1.23
4593.00,1.23
4592.00,1.23
4591.00,1.23
4590.00,1.23
4589.00,1.23
4588.00,1.23
4587.00,1.23
4586.00,1.23
4585.00,1.23
4584.00,1.23
4583.00,1.24
4582.00,1.24
4581.00,1.24
4580.00,1.24
4579.00,1.24
4578.00,1.24
4577.00,1.24
4576.00,1.24
4575.00,1.24
4574.00,1.25
4573.00,1.25
4572.00,1.25
4571.00,1.25
4570.00,1.25
4569.00,1.25
4568.00,1.25
4567.00,1.25
4566.00,1.25
4565.00,1.25
4564.00,1.25
4563.00,1.25
4562.00,1.26
4561.00,1.26
4560.00,1.26
4559.00,1.26
4558.00,1.26
4557.00,1.27
4556.00,1.27
4555.00,1.27
4554.00,1.27
4553.00,1.27
4552.00,1.27
4551.00,1.28
4550.00,1.28
4549.00,1.28
4548.00,1.28
4547.00,1.29
4546.00,1.29
4545.00,1.29
4544.00,1.29
4543.00,1.29
4542.00,1.30
4541.00,1.30
4540.00,1.30
4539.00,1.30
4538.00,1.30
4537.00,1.30
4536.00,1.30
4535.00,1.30
4534.00,1.30
4533.00,1.30
4532.00,1.30
4531.00,1.30
4530.00,1.30
4529.00,1.29
4528.00,1.29
4527.00,1.29
4526.00,1.29
4525.00,1.29
4524.00,1.29
4523.00,1.28
4522.00,1.28
4521.00,1.28
4520.00,1.28
4519.00,1.27
4518.00,1.27
4517.00,1.27
4516.00,1.27
4515.00,1.27
4514.00,1.27
4513.00,1.26
4512.00,1.26
4511.00,1.26
4510.00,1.26
4509.00,1.26
4508.00,1.26
4507.00,1.26
4506.00,1.26
4505.00,1.26
4504.00,1.26
4503.00,1.26
4502.00,1.25
4501.00,1.25
4500.00,1.25
4499.00,1.25
4498.00,1.25
4497.00,1.25
4496.00,1.25
4495.00,1.25
4494.00,1.25
4493.00,1.24
4492.00,1.24
4491.00,1.24
4490.00,1.24
4489.00,1.24
4488.00,1.23
4487.00,1.23
4486.00,1.23
4485.00,1.22
4484.00,1.22
4483.00,1.22
4482.00,1.22
4481.00,1.21
4480.00,1.21
4479.00,1.21
4478.00,1.20
4477.00,1.20
4476.00,1.20
4475.00,1.20
4474.00,1.19
4473.00,1.19
4472.00,1.19
4471.00,1.19
4470.00,1.18
4469.00,1.18
4468.00,1.18
4467.00,1.18
4466.00,1.17
4465.00,1.17
4464.00,1.17
4463.00,1.17
4462.00,1.17
4461.00,1.17
4460.00,1.17
4459.00,1.17
4458.00,1.17
4457.00,1.18
4456.00,1.18
4455.00,1.18
4454.00,1.18
4453.00,1.18
4452.00,1.18
4451.00,1.18
4450.00,1.18
4449.00,1.18
4448.00,1.19
4447.00,1.19
4446.00,1.19
4445.00,1.19
4444.00,1.19
4443.00,1.19
4442.00,1.20
4441.00,1.20
4440.00,1.20
4439.00,1.20
4438.00,1.20
4437.00,1.20
4436.00,1.20
4435.00,1.20
4434.00,1.20
4433.00,1.20
4432.00,1.20
4431.00,1.20
4430.00,1.20
4429.00,1.20
4428.00,1.20
4427.00,1.20
4426.00,1.20
4425.00,1.20
4424.00,1.20
4423.00,1.20
4422.00,1.20
4421.00,1.20
4420.00,1.20
4419.00,1.19
4418.00,1.19
4417.00,1.19
4416.00,1.19
4415.00,1.19
4414.00,1.19
4413.00,1.19
4412.00,1.19
4411.00,1.19
4410.00,1.19
4409.00,1.19
4408.00,1.19
4407.00,1.19
4406.00,1.19
4405.00,1.19
4404.00,1.19
4403.00,1.19
4402.00,1.19
4401.00,1.19
4400.00,1.19
4399.00,1.19
4398.00,1.19
4397.00,1.19
4396.00,1.19
4395.00,1.19
4394.00,1.19
4393.00,1.19
4392.00,1.19
4391.00,1.19
4390.00,1.19
4389.00,1.19
4388.00,1.19
4387.00,1.19
4386.00,1.19
4385.00,1.19
4384.00,1.19
4383.00,1.19
4382.00,1.19
4381.00,1.19
4380.00,1.19
4379.00,1.18
4378.00,1.18
4377.00,1.18
4376.00,1.18
4375.00,1.17
4374.00,1.17
4373.00,1.17
4372.00,1.17
4371.00,1.17
4370.00,1.17
4369.00,1.17
4368.00,1.17
4367.00,1.17
4366.00,1.17
4365.00,1.17
4364.00,1.17
4363.00,1.17
4362.00,1.17
4361.00,1.17
4360.00,1.17
4359.00,1.17
4358.00,1.18
4357.00,1.18
4356.00,1.18
4355.00,1.18
4354.00,1.19
4353.00,1.19
4352.00,1.19
4351.00,1.20
4350.00,1.20
4349.00,1.20
4348.00,1.20
4347.00,1.21
4346.00,1.21
4345.00,1.21
4344.00,1.21
4343.00,1.21
4342.00,1.21
4341.00,1.21
4340.00,1.21
4339.00,1.21
4338.00,1.21
4337.00,1.21
4336.00,1.21
4335.00,1.21
4334.00,1.21
4333.00,1.21
4332.00,1.21
4331.00,1.20
4330.00,1.20
4329.00,1.20
4328.00,1.20
4327.00,1.20
4326.00,1.20
4325.00,1.20
4324.00,1.19
4323.00,1.19
4322.00,1.19
4321.00,1.19
4320.00,1.19
4319.00,1.19
4318.00,1.19
4317.00,1.20
4316.00,1.20
4315.00,1.20
4314.00,1.20
4313.00,1.21
4312.00,1.21
4311.00,1.21
4310.00,1.22
4309.00,1.22
4308.00,1.23
4307.00,1.24
4306.00,1.24
4305.00,1.25
4304.00,1.25
4303.00,1.26
4302.00,1.26
4301.00,1.27
4300.00,1.27
4299.00,1.27
4298.00,1.28
4297.00,1.28
4296.00,1.28
4295.00,1.29
4294.00,1.29
4293.00,1.29
4292.00,1.30
4291.00,1.30
4290.00,1.30
4289.00,1.30
4288.00,1.30
4287.00,1.30
4286.00,1.30
4285.00,1.30
4284.00,1.29
4283.00,1.29
4282.00,1.29
4281.00,1.29
4280.00,1.29
4279.00,1.29
4278.00,1.29
4277.00,1.29
4276.00,1.29
4275.00,1.29
4274.00,1.29
4273.00,1.28
4272.00,1.28
4271.00,1.28
4270.00,1.28
4269.00,1.28
4268.00,1.28
4267.00,1.28
4266.00,1.28
4265.00,1.28
4264.00,1.28
4263.00,1.28
4262.00,1.28
4261.00,1.28
4260.00,1.28
4259.00,1.29
4258.00,1.29
4257.00,1.29
4256.00,1.29
4255.00,1.29
4254.00,1.29
4253.00,1.30
4252.00,1.30
4251.00,1.30
4250.00,1.30
4249.00,1.30
4248.00,1.30
4247.00,1.30
4246.00,1.30
4245.00,1.30
4244.00,1.30
4243.00,1.30
4242.00,1.30
4241.00,1.30
4240.00,1.31
4239.00,1.31
4238.00,1.31
4237.00,1.31
4236.00,1.31
4235.00,1.31
4234.00,1.31
4233.00,1.31
4232.00,1.31
4231.00,1.31
4230.00,1.31
4229.00,1.31
4228.00,1.32
4227.00,1.32
4226.00,1.32
4225.00,1.32
4224.00,1.32
4223.00,1.32
4222.00,1.33
4221.00,1.33
4220.00,1.33
4219.00,1.33
4218.00,1.34
4217.00,1.34
4216.00,1.34
4215.00,1.34
4214.00,1.34
4213.00,1.34
4212.00,1.34
4211.00,1.34
4210.00,1.34
4209.00,1.34
4208.00,1.34
4207.00,1.34
4206.00,1.34
4205.00,1.34
4204.00,1.34
4203.00,1.34
4202.00,1.34
4201.00,1.34
4200.00,1.34
4199.00,1.34
4198.00,1.34
4197.00,1.33
4196.00,1.33
4195.00,1.33
4194.00,1.32
4193.00,1.32
4192.00,1.32
4191.00,1.31
4190.00,1.31
4189.00,1.31
4188.00,1.31
4187.00,1.31
4186.00,1.31
4185.00,1.31
4184.00,1.31
4183.00,1.31
4182.00,1.31
4181.00,1.32
4180.00,1.32
4179.00,1.32
4178.00,1.32
4177.00,1.32
4176.00,1.32
4175.00,1.32
4174.00,1.32
4173.00,1.32
4172.00,1.32
4171.00,1.31
4170.00,1.31
4169.00,1.31
4168.00,1.31
4167.00,1.31
4166.00,1.31
4165.00,1.31
4164.00,1.31
4163.00,1.31
4162.00,1.31
4161.00,1.31
4160.00,1.31
4159.00,1.31
4158.00,1.30
4157.00,1.30
4156.00,1.30
4155.00,1.29
4154.00,1.29
4153.00,1.29
4152.00,1.29
4151.00,1.28
4150.00,1.28
4149.00,1.28
4148.00,1.28
4147.00,1.28
4146.00,1.28
4145.00,1.28
4144.00,1.29
4143.00,1.29
4142.00,1.29
4141.00,1.29
4140.00,1.29
4139.00,1.29
4138.00,1.30
4137.00,1.30
4136.00,1.30
4135.00,1.30
4134.00,1.31
4133.00,1.31
4132.00,1.31
4131.00,1.32
4130.00,1.32
4129.00,1.32
4128.00,1.33
4127.00,1.33
4126.00,1.33
4125.00,1.33
4124.00,1.33
4123.00,1.34
4122.00,1.34
4121.00,1.34
4120.00,1.34
4119.00,1.34
4118.00,1.34
4117.00,1.34
4116.00,1.34
4115.00,1.34
4114.00,1.35
4113.00,1.35
4112.00,1.35
4111.00,1.35
4110.00,1.35
4109.00,1.35
4108.00,1.35
4107.00,1.35
4106.00,1.35
4105.00,1.35
4104.00,1.35
4103.00,1.35
4102.00,1.36
4101.00,1.36
4100.00,1.36
4099.00,1.36
4098.00,1.36
4097.00,1.36
4096.00,1.37
4095.00,1.37
4094.00,1.37
4093.00,1.37
4092.00,1.37
4091.00,1.37
4090.00,1.37
4089.00,1.37
4088.00,1.37
4087.00,1.37
4086.00,1.37
4085.00,1.37
4084.00,1.37
4083.00,1.37
4082.00,1.37
4081.00,1.37
4080.00,1.36
4079.00,1.36
4078.00,1.36
4077.00,1.36
4076.00,1.36
4075.00,1.36
4074.00,1.35
4073.00,1.35
4072.00,1.35
4071.00,1.35
4070.00,1.35
4069.00,1.35
4068.00,1.35
4067.00,1.35
4066.00,1.35
4065.00,1.36
4064.00,1.36
4063.00,1.36
4062.00,1.37
4061.00,1.37
4060.00,1.37
4059.00,1.37
4058.00,1.37
4057.00,1.37
4056.00,1.38
4055.00,1.38
4054.00,1.38
4053.00,1.38
4052.00,1.38
4051.00,1.38
4050.00,1.38
4049.00,1.38
4048.00,1.38
4047.00,1.38
4046.00,1.38
4045.00,1.38
4044.00,1.37
4043.00,1.37
4042.00,1.37
4041.00,1.36
4040.00,1.36
4039.00,1.35
4038.00,1.34
4037.00,1.34
4036.00,1.33
4035.00,1.32
4034.00,1.32
4033.00,1.32
4032.00,1.32
4031.00,1.32
4030.00,1.32
4029.00,1.32
4028.00,1.32
4027.00,1.33
4026.00,1.33
4025.00,1.33
4024.00,1.34
4023.00,1.34
4022.00,1.35
4021.00,1.35
4020.00,1.36
4019.00,1.36
4018.00,1.37
4017.00,1.38
4016.00,1.38
4015.00,1.39
4014.00,1.39
4013.00,1.40
4012.00,1.41
4011.00,1.42
4010.00,1.43
4009.00,1.43
4008.00,1.44
4007.00,1.45
4006.00,1.45
4005.00,1.45
4004.00,1.46
4003.00,1.46
4002.00,1.46
4001.00,1.46
4000.00,1.46
