创建为新数据集,样品 879 用户 Administrator 日期 星期一, 七月 29 2019
cm-1,%T
10000.00,2.03
9999.00,2.02
9998.00,2.02
9997.00,2.02
9996.00,2.01
9995.00,2.01
9994.00,2.00
9993.00,2.00
9992.00,1.99
9991.00,1.99
9990.00,1.98
9989.00,1.97
9988.00,1.96
9987.00,1.95
9986.00,1.94
9985.00,1.92
9984.00,1.91
9983.00,1.89
9982.00,1.87
9981.00,1.86
9980.00,1.84
9979.00,1.82
9978.00,1.81
9977.00,1.79
9976.00,1.78
9975.00,1.76
9974.00,1.75
9973.00,1.74
9972.00,1.72
9971.00,1.71
9970.00,1.70
9969.00,1.69
9968.00,1.68
9967.00,1.67
9966.00,1.66
9965.00,1.65
9964.00,1.65
9963.00,1.64
9962.00,1.64
9961.00,1.64
9960.00,1.64
9959.00,1.64
9958.00,1.64
9957.00,1.64
9956.00,1.65
9955.00,1.65
9954.00,1.65
9953.00,1.66
9952.00,1.66
9951.00,1.66
9950.00,1.66
9949.00,1.66
9948.00,1.66
9947.00,1.66
9946.00,1.66
9945.00,1.66
9944.00,1.66
9943.00,1.65
9942.00,1.65
9941.00,1.65
9940.00,1.65
9939.00,1.65
9938.00,1.64
9937.00,1.64
9936.00,1.64
9935.00,1.63
9934.00,1.63
9933.00,1.62
9932.00,1.62
9931.00,1.61
9930.00,1.61
9929.00,1.60
9928.00,1.60
9927.00,1.59
9926.00,1.59
9925.00,1.58
9924.00,1.58
9923.00,1.58
9922.00,1.58
9921.00,1.58
9920.00,1.57
9919.00,1.57
9918.00,1.57
9917.00,1.57
9916.00,1.57
9915.00,1.56
9914.00,1.56
9913.00,1.56
9912.00,1.55
9911.00,1.55
9910.00,1.55
9909.00,1.54
9908.00,1.54
9907.00,1.53
9906.00,1.53
9905.00,1.53
9904.00,1.52
9903.00,1.52
9902.00,1.51
9901.00,1.51
9900.00,1.50
9899.00,1.50
9898.00,1.49
9897.00,1.49
9896.00,1.48
9895.00,1.47
9894.00,1.47
9893.00,1.46
9892.00,1.46
9891.00,1.45
9890.00,1.45
9889.00,1.45
9888.00,1.44
9887.00,1.44
9886.00,1.44
9885.00,1.44
9884.00,1.44
9883.00,1.44
9882.00,1.44
9881.00,1.44
9880.00,1.44
9879.00,1.44
9878.00,1.44
9877.00,1.45
9876.00,1.45
9875.00,1.45
9874.00,1.46
9873.00,1.46
9872.00,1.46
9871.00,1.47
9870.00,1.47
9869.00,1.48
9868.00,1.49
9867.00,1.49
9866.00,1.50
9865.00,1.50
9864.00,1.51
9863.00,1.52
9862.00,1.52
9861.00,1.53
9860.00,1.53
9859.00,1.53
9858.00,1.54
9857.00,1.54
9856.00,1.53
9855.00,1.53
9854.00,1.53
9853.00,1.53
9852.00,1.52
9851.00,1.52
9850.00,1.52
9849.00,1.51
9848.00,1.51
9847.00,1.50
9846.00,1.50
9845.00,1.49
9844.00,1.49
9843.00,1.48
9842.00,1.48
9841.00,1.47
9840.00,1.47
9839.00,1.46
9838.00,1.46
9837.00,1.45
9836.00,1.45
9835.00,1.44
9834.00,1.44
9833.00,1.43
9832.00,1.43
9831.00,1.43
9830.00,1.43
9829.00,1.43
9828.00,1.44
9827.00,1.44
9826.00,1.45
9825.00,1.45
9824.00,1.45
9823.00,1.46
9822.00,1.46
9821.00,1.47
9820.00,1.47
9819.00,1.48
9818.00,1.48
9817.00,1.48
9816.00,1.49
9815.00,1.49
9814.00,1.49
9813.00,1.50
9812.00,1.50
9811.00,1.50
9810.00,1.51
9809.00,1.51
9808.00,1.51
9807.00,1.51
9806.00,1.51
9805.00,1.52
9804.00,1.52
9803.00,1.52
9802.00,1.52
9801.00,1.52
9800.00,1.52
9799.00,1.52
9798.00,1.51
9797.00,1.51
9796.00,1.51
9795.00,1.51
9794.00,1.50
9793.00,1.50
9792.00,1.50
9791.00,1.49
9790.00,1.49
9789.00,1.49
9788.00,1.49
9787.00,1.49
9786.00,1.49
9785.00,1.48
9784.00,1.48
9783.00,1.48
9782.00,1.48
9781.00,1.47
9780.00,1.47
9779.00,1.46
9778.00,1.45
9777.00,1.45
9776.00,1.44
9775.00,1.43
9774.00,1.43
9773.00,1.42
9772.00,1.42
9771.00,1.41
9770.00,1.41
9769.00,1.40
9768.00,1.40
9767.00,1.40
9766.00,1.40
9765.00,1.39
9764.00,1.39
9763.00,1.39
9762.00,1.39
9761.00,1.39
9760.00,1.38
9759.00,1.38
9758.00,1.38
9757.00,1.38
9756.00,1.39
9755.00,1.39
9754.00,1.39
9753.00,1.39
9752.00,1.40
9751.00,1.41
9750.00,1.41
9749.00,1.42
9748.00,1.43
9747.00,1.44
9746.00,1.45
9745.00,1.45
9744.00,1.46
9743.00,1.47
9742.00,1.48
9741.00,1.49
9740.00,1.50
9739.00,1.51
9738.00,1.52
9737.00,1.53
9736.00,1.53
9735.00,1.54
9734.00,1.55
9733.00,1.55
9732.00,1.56
9731.00,1.57
9730.00,1.57
9729.00,1.57
9728.00,1.58
9727.00,1.58
9726.00,1.58
9725.00,1.58
9724.00,1.58
9723.00,1.58
9722.00,1.58
9721.00,1.58
9720.00,1.57
9719.00,1.56
9718.00,1.56
9717.00,1.55
9716.00,1.54
9715.00,1.53
9714.00,1.52
9713.00,1.50
9712.00,1.49
9711.00,1.48
9710.00,1.46
9709.00,1.45
9708.00,1.44
9707.00,1.43
9706.00,1.41
9705.00,1.40
9704.00,1.39
9703.00,1.38
9702.00,1.37
9701.00,1.36
9700.00,1.35
9699.00,1.34
9698.00,1.33
9697.00,1.32
9696.00,1.31
9695.00,1.30
9694.00,1.29
9693.00,1.29
9692.00,1.28
9691.00,1.28
9690.00,1.27
9689.00,1.27
9688.00,1.27
9687.00,1.27
9686.00,1.27
9685.00,1.27
9684.00,1.27
9683.00,1.27
9682.00,1.27
9681.00,1.27
9680.00,1.27
9679.00,1.28
9678.00,1.28
9677.00,1.28
9676.00,1.28
9675.00,1.29
9674.00,1.29
9673.00,1.29
9672.00,1.30
9671.00,1.31
9670.00,1.31
9669.00,1.32
9668.00,1.32
9667.00,1.33
9666.00,1.34
9665.00,1.35
9664.00,1.36
9663.00,1.36
9662.00,1.37
9661.00,1.38
9660.00,1.39
9659.00,1.40
9658.00,1.41
9657.00,1.42
9656.00,1.44
9655.00,1.45
9654.00,1.46
9653.00,1.47
9652.00,1.48
9651.00,1.49
9650.00,1.50
9649.00,1.51
9648.00,1.52
9647.00,1.53
9646.00,1.54
9645.00,1.55
9644.00,1.56
9643.00,1.56
9642.00,1.57
9641.00,1.58
9640.00,1.59
9639.00,1.59
9638.00,1.60
9637.00,1.60
9636.00,1.61
9635.00,1.61
9634.00,1.61
9633.00,1.62
9632.00,1.62
9631.00,1.62
9630.00,1.62
9629.00,1.62
9628.00,1.62
9627.00,1.62
9626.00,1.62
9625.00,1.62
9624.00,1.61
9623.00,1.61
9622.00,1.61
9621.00,1.61
9620.00,1.61
9619.00,1.61
9618.00,1.61
9617.00,1.61
9616.00,1.61
9615.00,1.61
9614.00,1.61
9613.00,1.61
9612.00,1.61
9611.00,1.61
9610.00,1.61
9609.00,1.61
9608.00,1.60
9607.00,1.60
9606.00,1.60
9605.00,1.60
9604.00,1.60
9603.00,1.61
9602.00,1.61
9601.00,1.61
9600.00,1.61
9599.00,1.61
9598.00,1.61
9597.00,1.62
9596.00,1.62
9595.00,1.62
9594.00,1.61
9593.00,1.61
9592.00,1.61
9591.00,1.61
9590.00,1.61
9589.00,1.60
9588.00,1.60
9587.00,1.60
9586.00,1.59
9585.00,1.59
9584.00,1.59
9583.00,1.58
9582.00,1.58
9581.00,1.57
9580.00,1.57
9579.00,1.56
9578.00,1.56
9577.00,1.55
9576.00,1.55
9575.00,1.54
9574.00,1.53
9573.00,1.53
9572.00,1.52
9571.00,1.52
9570.00,1.51
9569.00,1.51
9568.00,1.50
9567.00,1.50
9566.00,1.50
9565.00,1.49
9564.00,1.49
9563.00,1.49
9562.00,1.49
9561.00,1.49
9560.00,1.49
9559.00,1.49
9558.00,1.49
9557.00,1.49
9556.00,1.49
9555.00,1.49
9554.00,1.49
9553.00,1.49
9552.00,1.49
9551.00,1.50
9550.00,1.50
9549.00,1.50
9548.00,1.50
9547.00,1.50
9546.00,1.51
9545.00,1.51
9544.00,1.51
9543.00,1.51
9542.00,1.51
9541.00,1.51
9540.00,1.51
9539.00,1.51
9538.00,1.52
9537.00,1.52
9536.00,1.52
9535.00,1.52
9534.00,1.51
9533.00,1.51
9532.00,1.51
9531.00,1.51
9530.00,1.51
9529.00,1.51
9528.00,1.51
9527.00,1.51
9526.00,1.51
9525.00,1.51
9524.00,1.51
9523.00,1.51
9522.00,1.51
9521.00,1.51
9520.00,1.51
9519.00,1.51
9518.00,1.51
9517.00,1.51
9516.00,1.51
9515.00,1.51
9514.00,1.51
9513.00,1.51
9512.00,1.51
9511.00,1.51
9510.00,1.52
9509.00,1.52
9508.00,1.52
9507.00,1.52
9506.00,1.51
9505.00,1.51
9504.00,1.51
9503.00,1.51
9502.00,1.50
9501.00,1.50
9500.00,1.49
9499.00,1.49
9498.00,1.48
9497.00,1.47
9496.00,1.47
9495.00,1.46
9494.00,1.45
9493.00,1.45
9492.00,1.44
9491.00,1.44
9490.00,1.43
9489.00,1.43
9488.00,1.42
9487.00,1.42
9486.00,1.41
9485.00,1.41
9484.00,1.40
9483.00,1.40
9482.00,1.40
9481.00,1.39
9480.00,1.39
9479.00,1.39
9478.00,1.39
9477.00,1.40
9476.00,1.40
9475.00,1.40
9474.00,1.41
9473.00,1.41
9472.00,1.42
9471.00,1.42
9470.00,1.42
9469.00,1.43
9468.00,1.43
9467.00,1.43
9466.00,1.44
9465.00,1.44
9464.00,1.44
9463.00,1.45
9462.00,1.45
9461.00,1.45
9460.00,1.45
9459.00,1.46
9458.00,1.46
9457.00,1.46
9456.00,1.46
9455.00,1.46
9454.00,1.46
9453.00,1.46
9452.00,1.46
9451.00,1.46
9450.00,1.45
9449.00,1.45
9448.00,1.45
9447.00,1.44
9446.00,1.44
9445.00,1.44
9444.00,1.44
9443.00,1.44
9442.00,1.44
9441.00,1.44
9440.00,1.44
9439.00,1.44
9438.00,1.44
9437.00,1.44
9436.00,1.44
9435.00,1.45
9434.00,1.45
9433.00,1.45
9432.00,1.45
9431.00,1.45
9430.00,1.45
9429.00,1.45
9428.00,1.45
9427.00,1.45
9426.00,1.45
9425.00,1.46
9424.00,1.46
9423.00,1.46
9422.00,1.46
9421.00,1.46
9420.00,1.47
9419.00,1.47
9418.00,1.47
9417.00,1.47
9416.00,1.47
9415.00,1.47
9414.00,1.47
9413.00,1.47
9412.00,1.47
9411.00,1.47
9410.00,1.47
9409.00,1.46
9408.00,1.46
9407.00,1.46
9406.00,1.46
9405.00,1.46
9404.00,1.46
9403.00,1.46
9402.00,1.45
9401.00,1.45
9400.00,1.45
9399.00,1.45
9398.00,1.45
9397.00,1.45
9396.00,1.45
9395.00,1.44
9394.00,1.44
9393.00,1.44
9392.00,1.44
9391.00,1.44
9390.00,1.43
9389.00,1.43
9388.00,1.43
9387.00,1.43
9386.00,1.43
9385.00,1.42
9384.00,1.42
9383.00,1.42
9382.00,1.42
9381.00,1.42
9380.00,1.41
9379.00,1.41
9378.00,1.41
9377.00,1.41
9376.00,1.41
9375.00,1.41
9374.00,1.41
9373.00,1.40
9372.00,1.40
9371.00,1.40
9370.00,1.40
9369.00,1.39
9368.00,1.39
9367.00,1.39
9366.00,1.39
9365.00,1.39
9364.00,1.38
9363.00,1.39
9362.00,1.39
9361.00,1.39
9360.00,1.39
9359.00,1.39
9358.00,1.39
9357.00,1.40
9356.00,1.40
9355.00,1.41
9354.00,1.41
9353.00,1.41
9352.00,1.42
9351.00,1.42
9350.00,1.43
9349.00,1.43
9348.00,1.43
9347.00,1.44
9346.00,1.44
9345.00,1.45
9344.00,1.45
9343.00,1.46
9342.00,1.46
9341.00,1.47
9340.00,1.47
9339.00,1.48
9338.00,1.48
9337.00,1.49
9336.00,1.49
9335.00,1.49
9334.00,1.49
9333.00,1.50
9332.00,1.49
9331.00,1.49
9330.00,1.49
9329.00,1.49
9328.00,1.49
9327.00,1.48
9326.00,1.48
9325.00,1.48
9324.00,1.47
9323.00,1.47
9322.00,1.47
9321.00,1.47
9320.00,1.47
9319.00,1.47
9318.00,1.46
9317.00,1.46
9316.00,1.46
9315.00,1.46
9314.00,1.46
9313.00,1.45
9312.00,1.45
9311.00,1.45
9310.00,1.45
9309.00,1.44
9308.00,1.44
9307.00,1.44
9306.00,1.44
9305.00,1.44
9304.00,1.43
9303.00,1.43
9302.00,1.43
9301.00,1.43
9300.00,1.43
9299.00,1.43
9298.00,1.43
9297.00,1.43
9296.00,1.43
9295.00,1.43
9294.00,1.42
9293.00,1.42
9292.00,1.42
9291.00,1.42
9290.00,1.42
9289.00,1.42
9288.00,1.42
9287.00,1.42
9286.00,1.42
9285.00,1.42
9284.00,1.42
9283.00,1.42
9282.00,1.42
9281.00,1.43
9280.00,1.43
9279.00,1.43
9278.00,1.43
9277.00,1.43
9276.00,1.44
9275.00,1.44
9274.00,1.44
9273.00,1.44
9272.00,1.45
9271.00,1.45
9270.00,1.46
9269.00,1.46
9268.00,1.47
9267.00,1.48
9266.00,1.48
9265.00,1.49
9264.00,1.49
9263.00,1.50
9262.00,1.50
9261.00,1.50
9260.00,1.50
9259.00,1.51
9258.00,1.51
9257.00,1.51
9256.00,1.51
9255.00,1.51
9254.00,1.51
9253.00,1.52
9252.00,1.52
9251.00,1.52
9250.00,1.52
9249.00,1.52
9248.00,1.52
9247.00,1.52
9246.00,1.52
9245.00,1.52
9244.00,1.52
9243.00,1.51
9242.00,1.51
9241.00,1.51
9240.00,1.50
9239.00,1.50
9238.00,1.50
9237.00,1.49
9236.00,1.49
9235.00,1.49
9234.00,1.48
9233.00,1.48
9232.00,1.48
9231.00,1.48
9230.00,1.47
9229.00,1.47
9228.00,1.46
9227.00,1.46
9226.00,1.45
9225.00,1.45
9224.00,1.45
9223.00,1.44
9222.00,1.44
9221.00,1.43
9220.00,1.43
9219.00,1.43
9218.00,1.42
9217.00,1.41
9216.00,1.41
9215.00,1.40
9214.00,1.39
9213.00,1.39
9212.00,1.38
9211.00,1.37
9210.00,1.36
9209.00,1.36
9208.00,1.35
9207.00,1.35
9206.00,1.34
9205.00,1.33
9204.00,1.33
9203.00,1.33
9202.00,1.32
9201.00,1.32
9200.00,1.32
9199.00,1.32
9198.00,1.32
9197.00,1.32
9196.00,1.32
9195.00,1.33
9194.00,1.33
9193.00,1.33
9192.00,1.34
9191.00,1.35
9190.00,1.35
9189.00,1.36
9188.00,1.37
9187.00,1.38
9186.00,1.39
9185.00,1.40
9184.00,1.42
9183.00,1.43
9182.00,1.44
9181.00,1.45
9180.00,1.46
9179.00,1.47
9178.00,1.48
9177.00,1.49
9176.00,1.50
9175.00,1.51
9174.00,1.52
9173.00,1.53
9172.00,1.53
9171.00,1.54
9170.00,1.54
9169.00,1.55
9168.00,1.55
9167.00,1.56
9166.00,1.56
9165.00,1.57
9164.00,1.57
9163.00,1.57
9162.00,1.57
9161.00,1.57
9160.00,1.57
9159.00,1.57
9158.00,1.57
9157.00,1.57
9156.00,1.57
9155.00,1.57
9154.00,1.57
9153.00,1.57
9152.00,1.57
9151.00,1.57
9150.00,1.57
9149.00,1.57
9148.00,1.57
9147.00,1.57
9146.00,1.57
9145.00,1.57
9144.00,1.57
9143.00,1.57
9142.00,1.57
9141.00,1.57
9140.00,1.57
9139.00,1.56
9138.00,1.56
9137.00,1.56
9136.00,1.55
9135.00,1.55
9134.00,1.55
9133.00,1.54
9132.00,1.54
9131.00,1.53
9130.00,1.52
9129.00,1.52
9128.00,1.51
9127.00,1.50
9126.00,1.50
9125.00,1.49
9124.00,1.48
9123.00,1.47
9122.00,1.47
9121.00,1.46
9120.00,1.45
9119.00,1.45
9118.00,1.44
9117.00,1.44
9116.00,1.43
9115.00,1.43
9114.00,1.42
9113.00,1.42
9112.00,1.41
9111.00,1.41
9110.00,1.41
9109.00,1.40
9108.00,1.40
9107.00,1.40
9106.00,1.40
9105.00,1.40
9104.00,1.40
9103.00,1.40
9102.00,1.40
9101.00,1.40
9100.00,1.40
9099.00,1.40
9098.00,1.41
9097.00,1.41
9096.00,1.41
9095.00,1.41
9094.00,1.42
9093.00,1.42
9092.00,1.42
9091.00,1.42
9090.00,1.43
9089.00,1.43
9088.00,1.43
9087.00,1.44
9086.00,1.44
9085.00,1.45
9084.00,1.45
9083.00,1.45
9082.00,1.46
9081.00,1.46
9080.00,1.47
9079.00,1.47
9078.00,1.47
9077.00,1.47
9076.00,1.48
9075.00,1.48
9074.00,1.48
9073.00,1.48
9072.00,1.48
9071.00,1.48
9070.00,1.48
9069.00,1.48
9068.00,1.48
9067.00,1.48
9066.00,1.48
9065.00,1.47
9064.00,1.47
9063.00,1.46
9062.00,1.46
9061.00,1.45
9060.00,1.45
9059.00,1.44
9058.00,1.43
9057.00,1.43
9056.00,1.42
9055.00,1.42
9054.00,1.41
9053.00,1.40
9052.00,1.40
9051.00,1.39
9050.00,1.38
9049.00,1.38
9048.00,1.37
9047.00,1.36
9046.00,1.35
9045.00,1.35
9044.00,1.34
9043.00,1.34
9042.00,1.33
9041.00,1.33
9040.00,1.33
9039.00,1.33
9038.00,1.33
9037.00,1.33
9036.00,1.33
9035.00,1.33
9034.00,1.33
9033.00,1.34
9032.00,1.34
9031.00,1.34
9030.00,1.34
9029.00,1.34
9028.00,1.34
9027.00,1.34
9026.00,1.34
9025.00,1.34
9024.00,1.34
9023.00,1.34
9022.00,1.34
9021.00,1.35
9020.00,1.35
9019.00,1.35
9018.00,1.35
9017.00,1.36
9016.00,1.36
9015.00,1.36
9014.00,1.36
9013.00,1.37
9012.00,1.37
9011.00,1.37
9010.00,1.37
9009.00,1.37
9008.00,1.38
9007.00,1.38
9006.00,1.39
9005.00,1.39
9004.00,1.40
9003.00,1.40
9002.00,1.41
9001.00,1.42
9000.00,1.43
8999.00,1.44
8998.00,1.45
8997.00,1.46
8996.00,1.47
8995.00,1.48
8994.00,1.49
8993.00,1.50
8992.00,1.51
8991.00,1.52
8990.00,1.53
8989.00,1.53
8988.00,1.54
8987.00,1.55
8986.00,1.55
8985.00,1.56
8984.00,1.56
8983.00,1.57
8982.00,1.57
8981.00,1.58
8980.00,1.58
8979.00,1.58
8978.00,1.58
8977.00,1.58
8976.00,1.57
8975.00,1.57
8974.00,1.57
8973.00,1.56
8972.00,1.56
8971.00,1.55
8970.00,1.54
8969.00,1.54
8968.00,1.53
8967.00,1.53
8966.00,1.52
8965.00,1.52
8964.00,1.51
8963.00,1.51
8962.00,1.51
8961.00,1.50
8960.00,1.50
8959.00,1.50
8958.00,1.49
8957.00,1.49
8956.00,1.49
8955.00,1.49
8954.00,1.49
8953.00,1.49
8952.00,1.49
8951.00,1.49
8950.00,1.49
8949.00,1.50
8948.00,1.50
8947.00,1.50
8946.00,1.51
8945.00,1.51
8944.00,1.51
8943.00,1.52
8942.00,1.52
8941.00,1.53
8940.00,1.53
8939.00,1.54
8938.00,1.54
8937.00,1.55
8936.00,1.55
8935.00,1.55
8934.00,1.56
8933.00,1.56
8932.00,1.56
8931.00,1.57
8930.00,1.57
8929.00,1.57
8928.00,1.57
8927.00,1.57
8926.00,1.57
8925.00,1.58
8924.00,1.58
8923.00,1.58
8922.00,1.58
8921.00,1.58
8920.00,1.57
8919.00,1.57
8918.00,1.57
8917.00,1.57
8916.00,1.56
8915.00,1.56
8914.00,1.56
8913.00,1.55
8912.00,1.55
8911.00,1.55
8910.00,1.54
8909.00,1.54
8908.00,1.54
8907.00,1.53
8906.00,1.53
8905.00,1.53
8904.00,1.53
8903.00,1.53
8902.00,1.52
8901.00,1.52
8900.00,1.52
8899.00,1.52
8898.00,1.52
8897.00,1.51
8896.00,1.51
8895.00,1.51
8894.00,1.51
8893.00,1.51
8892.00,1.51
8891.00,1.52
8890.00,1.52
8889.00,1.52
8888.00,1.52
8887.00,1.52
8886.00,1.52
8885.00,1.53
8884.00,1.53
8883.00,1.53
8882.00,1.53
8881.00,1.53
8880.00,1.53
8879.00,1.53
8878.00,1.54
8877.00,1.54
8876.00,1.54
8875.00,1.54
8874.00,1.54
8873.00,1.54
8872.00,1.54
8871.00,1.54
8870.00,1.55
8869.00,1.55
8868.00,1.55
8867.00,1.55
8866.00,1.55
8865.00,1.55
8864.00,1.55
8863.00,1.55
8862.00,1.55
8861.00,1.55
8860.00,1.55
8859.00,1.55
8858.00,1.55
8857.00,1.54
8856.00,1.54
8855.00,1.54
8854.00,1.54
8853.00,1.53
8852.00,1.53
8851.00,1.53
8850.00,1.52
8849.00,1.52
8848.00,1.52
8847.00,1.52
8846.00,1.51
8845.00,1.51
8844.00,1.51
8843.00,1.51
8842.00,1.50
8841.00,1.50
8840.00,1.50
8839.00,1.50
8838.00,1.49
8837.00,1.49
8836.00,1.49
8835.00,1.49
8834.00,1.49
8833.00,1.49
8832.00,1.49
8831.00,1.49
8830.00,1.49
8829.00,1.49
8828.00,1.49
8827.00,1.49
8826.00,1.50
8825.00,1.50
8824.00,1.50
8823.00,1.51
8822.00,1.51
8821.00,1.51
8820.00,1.51
8819.00,1.52
8818.00,1.52
8817.00,1.52
8816.00,1.52
8815.00,1.52
8814.00,1.52
8813.00,1.52
8812.00,1.52
8811.00,1.52
8810.00,1.52
8809.00,1.52
8808.00,1.52
8807.00,1.51
8806.00,1.51
8805.00,1.51
8804.00,1.51
8803.00,1.50
8802.00,1.50
8801.00,1.50
8800.00,1.49
8799.00,1.49
8798.00,1.48
8797.00,1.48
8796.00,1.47
8795.00,1.47
8794.00,1.46
8793.00,1.46
8792.00,1.46
8791.00,1.45
8790.00,1.45
8789.00,1.45
8788.00,1.45
8787.00,1.45
8786.00,1.44
8785.00,1.44
8784.00,1.44
8783.00,1.44
8782.00,1.44
8781.00,1.44
8780.00,1.44
8779.00,1.44
8778.00,1.44
8777.00,1.45
8776.00,1.45
8775.00,1.45
8774.00,1.45
8773.00,1.46
8772.00,1.46
8771.00,1.46
8770.00,1.46
8769.00,1.47
8768.00,1.47
8767.00,1.47
8766.00,1.47
8765.00,1.47
8764.00,1.47
8763.00,1.47
8762.00,1.47
8761.00,1.47
8760.00,1.47
8759.00,1.47
8758.00,1.47
8757.00,1.47
8756.00,1.47
8755.00,1.46
8754.00,1.46
8753.00,1.46
8752.00,1.45
8751.00,1.45
8750.00,1.44
8749.00,1.44
8748.00,1.43
8747.00,1.43
8746.00,1.42
8745.00,1.41
8744.00,1.41
8743.00,1.40
8742.00,1.40
8741.00,1.40
8740.00,1.39
8739.00,1.39
8738.00,1.39
8737.00,1.39
8736.00,1.39
8735.00,1.39
8734.00,1.39
8733.00,1.39
8732.00,1.39
8731.00,1.39
8730.00,1.39
8729.00,1.39
8728.00,1.39
8727.00,1.39
8726.00,1.39
8725.00,1.40
8724.00,1.40
8723.00,1.41
8722.00,1.41
8721.00,1.42
8720.00,1.42
8719.00,1.43
8718.00,1.43
8717.00,1.44
8716.00,1.44
8715.00,1.45
8714.00,1.45
8713.00,1.46
8712.00,1.46
8711.00,1.47
8710.00,1.47
8709.00,1.48
8708.00,1.48
8707.00,1.49
8706.00,1.49
8705.00,1.50
8704.00,1.51
8703.00,1.51
8702.00,1.52
8701.00,1.52
8700.00,1.53
8699.00,1.53
8698.00,1.54
8697.00,1.54
8696.00,1.54
8695.00,1.54
8694.00,1.54
8693.00,1.54
8692.00,1.54
8691.00,1.53
8690.00,1.53
8689.00,1.53
8688.00,1.53
8687.00,1.52
8686.00,1.52
8685.00,1.51
8684.00,1.50
8683.00,1.50
8682.00,1.49
8681.00,1.48
8680.00,1.47
8679.00,1.46
8678.00,1.45
8677.00,1.44
8676.00,1.43
8675.00,1.42
8674.00,1.41
8673.00,1.40
8672.00,1.40
8671.00,1.39
8670.00,1.38
8669.00,1.38
8668.00,1.37
8667.00,1.37
8666.00,1.37
8665.00,1.36
8664.00,1.36
8663.00,1.36
8662.00,1.36
8661.00,1.36
8660.00,1.36
8659.00,1.36
8658.00,1.36
8657.00,1.37
8656.00,1.37
8655.00,1.37
8654.00,1.38
8653.00,1.38
8652.00,1.38
8651.00,1.39
8650.00,1.39
8649.00,1.39
8648.00,1.40
8647.00,1.40
8646.00,1.40
8645.00,1.41
8644.00,1.41
8643.00,1.41
8642.00,1.41
8641.00,1.42
8640.00,1.42
8639.00,1.42
8638.00,1.42
8637.00,1.42
8636.00,1.42
8635.00,1.42
8634.00,1.42
8633.00,1.42
8632.00,1.42
8631.00,1.42
8630.00,1.42
8629.00,1.41
8628.00,1.41
8627.00,1.41
8626.00,1.41
8625.00,1.41
8624.00,1.41
8623.00,1.41
8622.00,1.40
8621.00,1.40
8620.00,1.40
8619.00,1.40
8618.00,1.39
8617.00,1.39
8616.00,1.39
8615.00,1.39
8614.00,1.38
8613.00,1.38
8612.00,1.38
8611.00,1.38
8610.00,1.38
8609.00,1.38
8608.00,1.38
8607.00,1.38
8606.00,1.38
8605.00,1.38
8604.00,1.39
8603.00,1.39
8602.00,1.39
8601.00,1.39
8600.00,1.39
8599.00,1.39
8598.00,1.39
8597.00,1.39
8596.00,1.39
8595.00,1.39
8594.00,1.40
8593.00,1.40
8592.00,1.40
8591.00,1.40
8590.00,1.41
8589.00,1.41
8588.00,1.41
8587.00,1.41
8586.00,1.41
8585.00,1.42
8584.00,1.42
8583.00,1.42
8582.00,1.42
8581.00,1.42
8580.00,1.42
8579.00,1.42
8578.00,1.42
8577.00,1.42
8576.00,1.42
8575.00,1.42
8574.00,1.42
8573.00,1.43
8572.00,1.43
8571.00,1.43
8570.00,1.43
8569.00,1.43
8568.00,1.43
8567.00,1.43
8566.00,1.43
8565.00,1.43
8564.00,1.43
8563.00,1.43
8562.00,1.43
8561.00,1.43
8560.00,1.43
8559.00,1.43
8558.00,1.43
8557.00,1.43
8556.00,1.43
8555.00,1.43
8554.00,1.43
8553.00,1.43
8552.00,1.43
8551.00,1.43
8550.00,1.42
8549.00,1.42
8548.00,1.42
8547.00,1.42
8546.00,1.42
8545.00,1.42
8544.00,1.41
8543.00,1.41
8542.00,1.41
8541.00,1.41
8540.00,1.41
8539.00,1.41
8538.00,1.41
8537.00,1.42
8536.00,1.42
8535.00,1.42
8534.00,1.42
8533.00,1.42
8532.00,1.42
8531.00,1.42
8530.00,1.43
8529.00,1.43
8528.00,1.43
8527.00,1.43
8526.00,1.43
8525.00,1.43
8524.00,1.43
8523.00,1.43
8522.00,1.43
8521.00,1.43
8520.00,1.43
8519.00,1.43
8518.00,1.43
8517.00,1.43
8516.00,1.43
8515.00,1.43
8514.00,1.43
8513.00,1.42
8512.00,1.42
8511.00,1.42
8510.00,1.42
8509.00,1.42
8508.00,1.41
8507.00,1.41
8506.00,1.41
8505.00,1.41
8504.00,1.41
8503.00,1.40
8502.00,1.40
8501.00,1.40
8500.00,1.40
8499.00,1.40
8498.00,1.39
8497.00,1.39
8496.00,1.39
8495.00,1.39
8494.00,1.38
8493.00,1.38
8492.00,1.38
8491.00,1.38
8490.00,1.38
8489.00,1.38
8488.00,1.38
8487.00,1.39
8486.00,1.39
8485.00,1.39
8484.00,1.39
8483.00,1.39
8482.00,1.40
8481.00,1.40
8480.00,1.40
8479.00,1.40
8478.00,1.40
8477.00,1.40
8476.00,1.41
8475.00,1.41
8474.00,1.41
8473.00,1.41
8472.00,1.41
8471.00,1.42
8470.00,1.42
8469.00,1.42
8468.00,1.42
8467.00,1.42
8466.00,1.42
8465.00,1.42
8464.00,1.42
8463.00,1.41
8462.00,1.41
8461.00,1.41
8460.00,1.41
8459.00,1.40
8458.00,1.40
8457.00,1.40
8456.00,1.39
8455.00,1.39
8454.00,1.38
8453.00,1.38
8452.00,1.38
8451.00,1.37
8450.00,1.37
8449.00,1.36
8448.00,1.36
8447.00,1.35
8446.00,1.35
8445.00,1.35
8444.00,1.34
8443.00,1.34
8442.00,1.34
8441.00,1.33
8440.00,1.33
8439.00,1.33
8438.00,1.33
8437.00,1.33
8436.00,1.33
8435.00,1.33
8434.00,1.33
8433.00,1.33
8432.00,1.33
8431.00,1.33
8430.00,1.33
8429.00,1.34
8428.00,1.34
8427.00,1.34
8426.00,1.34
8425.00,1.35
8424.00,1.35
8423.00,1.35
8422.00,1.36
8421.00,1.36
8420.00,1.37
8419.00,1.37
8418.00,1.38
8417.00,1.38
8416.00,1.39
8415.00,1.40
8414.00,1.40
8413.00,1.41
8412.00,1.41
8411.00,1.42
8410.00,1.42
8409.00,1.43
8408.00,1.43
8407.00,1.43
8406.00,1.44
8405.00,1.44
8404.00,1.45
8403.00,1.45
8402.00,1.45
8401.00,1.45
8400.00,1.46
8399.00,1.46
8398.00,1.46
8397.00,1.46
8396.00,1.46
8395.00,1.46
8394.00,1.46
8393.00,1.46
8392.00,1.46
8391.00,1.45
8390.00,1.45
8389.00,1.45
8388.00,1.45
8387.00,1.45
8386.00,1.45
8385.00,1.45
8384.00,1.44
8383.00,1.44
8382.00,1.44
8381.00,1.44
8380.00,1.44
8379.00,1.44
8378.00,1.44
8377.00,1.44
8376.00,1.44
8375.00,1.44
8374.00,1.44
8373.00,1.44
8372.00,1.44
8371.00,1.44
8370.00,1.44
8369.00,1.44
8368.00,1.44
8367.00,1.44
8366.00,1.44
8365.00,1.44
8364.00,1.44
8363.00,1.44
8362.00,1.44
8361.00,1.44
8360.00,1.44
8359.00,1.44
8358.00,1.43
8357.00,1.43
8356.00,1.42
8355.00,1.42
8354.00,1.42
8353.00,1.41
8352.00,1.41
8351.00,1.41
8350.00,1.40
8349.00,1.40
8348.00,1.40
8347.00,1.40
8346.00,1.40
8345.00,1.39
8344.00,1.39
8343.00,1.39
8342.00,1.39
8341.00,1.39
8340.00,1.38
8339.00,1.38
8338.00,1.38
8337.00,1.38
8336.00,1.38
8335.00,1.38
8334.00,1.38
8333.00,1.38
8332.00,1.39
8331.00,1.39
8330.00,1.39
8329.00,1.39
8328.00,1.40
8327.00,1.40
8326.00,1.40
8325.00,1.40
8324.00,1.40
8323.00,1.40
8322.00,1.40
8321.00,1.40
8320.00,1.40
8319.00,1.41
8318.00,1.41
8317.00,1.41
8316.00,1.41
8315.00,1.41
8314.00,1.41
8313.00,1.41
8312.00,1.41
8311.00,1.41
8310.00,1.41
8309.00,1.41
8308.00,1.41
8307.00,1.41
8306.00,1.41
8305.00,1.41
8304.00,1.41
8303.00,1.41
8302.00,1.41
8301.00,1.41
8300.00,1.41
8299.00,1.41
8298.00,1.41
8297.00,1.42
8296.00,1.42
8295.00,1.42
8294.00,1.43
8293.00,1.43
8292.00,1.43
8291.00,1.44
8290.00,1.44
8289.00,1.44
8288.00,1.45
8287.00,1.45
8286.00,1.46
8285.00,1.46
8284.00,1.47
8283.00,1.47
8282.00,1.48
8281.00,1.48
8280.00,1.48
8279.00,1.49
8278.00,1.49
8277.00,1.49
8276.00,1.49
8275.00,1.49
8274.00,1.49
8273.00,1.49
8272.00,1.49
8271.00,1.49
8270.00,1.49
8269.00,1.48
8268.00,1.48
8267.00,1.48
8266.00,1.47
8265.00,1.47
8264.00,1.47
8263.00,1.46
8262.00,1.46
8261.00,1.46
8260.00,1.46
8259.00,1.45
8258.00,1.45
8257.00,1.45
8256.00,1.44
8255.00,1.44
8254.00,1.44
8253.00,1.44
8252.00,1.44
8251.00,1.44
8250.00,1.44
8249.00,1.44
8248.00,1.44
8247.00,1.45
8246.00,1.45
8245.00,1.45
8244.00,1.46
8243.00,1.46
8242.00,1.46
8241.00,1.47
8240.00,1.47
8239.00,1.47
8238.00,1.48
8237.00,1.48
8236.00,1.48
8235.00,1.48
8234.00,1.48
8233.00,1.48
8232.00,1.48
8231.00,1.48
8230.00,1.48
8229.00,1.48
8228.00,1.48
8227.00,1.48
8226.00,1.48
8225.00,1.48
8224.00,1.48
8223.00,1.47
8222.00,1.47
8221.00,1.47
8220.00,1.47
8219.00,1.47
8218.00,1.47
8217.00,1.46
8216.00,1.46
8215.00,1.46
8214.00,1.46
8213.00,1.46
8212.00,1.46
8211.00,1.46
8210.00,1.46
8209.00,1.46
8208.00,1.46
8207.00,1.46
8206.00,1.47
8205.00,1.47
8204.00,1.47
8203.00,1.47
8202.00,1.47
8201.00,1.47
8200.00,1.47
8199.00,1.47
8198.00,1.47
8197.00,1.47
8196.00,1.47
8195.00,1.47
8194.00,1.47
8193.00,1.48
8192.00,1.48
8191.00,1.48
8190.00,1.48
8189.00,1.48
8188.00,1.48
8187.00,1.48
8186.00,1.48
8185.00,1.48
8184.00,1.47
8183.00,1.47
8182.00,1.47
8181.00,1.47
8180.00,1.47
8179.00,1.47
8178.00,1.47
8177.00,1.47
8176.00,1.47
8175.00,1.47
8174.00,1.47
8173.00,1.47
8172.00,1.47
8171.00,1.47
8170.00,1.47
8169.00,1.47
8168.00,1.47
8167.00,1.46
8166.00,1.46
8165.00,1.46
8164.00,1.46
8163.00,1.46
8162.00,1.45
8161.00,1.45
8160.00,1.45
8159.00,1.45
8158.00,1.45
8157.00,1.45
8156.00,1.44
8155.00,1.44
8154.00,1.44
8153.00,1.44
8152.00,1.44
8151.00,1.43
8150.00,1.43
8149.00,1.43
8148.00,1.43
8147.00,1.43
8146.00,1.43
8145.00,1.43
8144.00,1.43
8143.00,1.43
8142.00,1.43
8141.00,1.44
8140.00,1.44
8139.00,1.44
8138.00,1.44
8137.00,1.44
8136.00,1.44
8135.00,1.44
8134.00,1.44
8133.00,1.45
8132.00,1.45
8131.00,1.45
8130.00,1.45
8129.00,1.45
8128.00,1.45
8127.00,1.46
8126.00,1.46
8125.00,1.46
8124.00,1.46
8123.00,1.46
8122.00,1.46
8121.00,1.46
8120.00,1.47
8119.00,1.47
8118.00,1.47
8117.00,1.47
8116.00,1.46
8115.00,1.46
8114.00,1.46
8113.00,1.46
8112.00,1.46
8111.00,1.46
8110.00,1.46
8109.00,1.46
8108.00,1.46
8107.00,1.45
8106.00,1.45
8105.00,1.45
8104.00,1.45
8103.00,1.45
8102.00,1.44
8101.00,1.44
8100.00,1.44
8099.00,1.44
8098.00,1.44
8097.00,1.43
8096.00,1.43
8095.00,1.43
8094.00,1.43
8093.00,1.43
8092.00,1.43
8091.00,1.43
8090.00,1.43
8089.00,1.43
8088.00,1.43
8087.00,1.43
8086.00,1.44
8085.00,1.44
8084.00,1.44
8083.00,1.45
8082.00,1.45
8081.00,1.46
8080.00,1.46
8079.00,1.47
8078.00,1.47
8077.00,1.47
8076.00,1.48
8075.00,1.48
8074.00,1.49
8073.00,1.49
8072.00,1.49
8071.00,1.50
8070.00,1.50
8069.00,1.51
8068.00,1.51
8067.00,1.51
8066.00,1.52
8065.00,1.52
8064.00,1.52
8063.00,1.52
8062.00,1.53
8061.00,1.53
8060.00,1.53
8059.00,1.53
8058.00,1.53
8057.00,1.53
8056.00,1.53
8055.00,1.53
8054.00,1.53
8053.00,1.53
8052.00,1.53
8051.00,1.53
8050.00,1.53
8049.00,1.53
8048.00,1.53
8047.00,1.53
8046.00,1.53
8045.00,1.53
8044.00,1.53
8043.00,1.53
8042.00,1.53
8041.00,1.53
8040.00,1.53
8039.00,1.53
8038.00,1.53
8037.00,1.53
8036.00,1.53
8035.00,1.53
8034.00,1.53
8033.00,1.53
8032.00,1.53
8031.00,1.53
8030.00,1.53
8029.00,1.53
8028.00,1.53
8027.00,1.53
8026.00,1.53
8025.00,1.53
8024.00,1.52
8023.00,1.52
8022.00,1.52
8021.00,1.52
8020.00,1.52
8019.00,1.51
8018.00,1.51
8017.00,1.51
8016.00,1.51
8015.00,1.51
8014.00,1.50
8013.00,1.50
8012.00,1.50
8011.00,1.50
8010.00,1.50
8009.00,1.49
8008.00,1.49
8007.00,1.49
8006.00,1.49
8005.00,1.49
8004.00,1.48
8003.00,1.48
8002.00,1.48
8001.00,1.48
8000.00,1.48
7999.00,1.48
7998.00,1.48
7997.00,1.48
7996.00,1.48
7995.00,1.48
7994.00,1.49
7993.00,1.49
7992.00,1.49
7991.00,1.50
7990.00,1.50
7989.00,1.51
7988.00,1.51
7987.00,1.51
7986.00,1.52
7985.00,1.52
7984.00,1.53
7983.00,1.53
7982.00,1.54
7981.00,1.54
7980.00,1.55
7979.00,1.55
7978.00,1.56
7977.00,1.56
7976.00,1.57
7975.00,1.57
7974.00,1.58
7973.00,1.58
7972.00,1.58
7971.00,1.58
7970.00,1.59
7969.00,1.59
7968.00,1.59
7967.00,1.59
7966.00,1.59
7965.00,1.59
7964.00,1.59
7963.00,1.59
7962.00,1.59
7961.00,1.58
7960.00,1.58
7959.00,1.58
7958.00,1.58
7957.00,1.58
7956.00,1.57
7955.00,1.57
7954.00,1.57
7953.00,1.57
7952.00,1.57
7951.00,1.57
7950.00,1.57
7949.00,1.57
7948.00,1.57
7947.00,1.57
7946.00,1.57
7945.00,1.57
7944.00,1.57
7943.00,1.57
7942.00,1.57
7941.00,1.57
7940.00,1.57
7939.00,1.58
7938.00,1.58
7937.00,1.58
7936.00,1.58
7935.00,1.58
7934.00,1.58
7933.00,1.58
7932.00,1.58
7931.00,1.58
7930.00,1.58
7929.00,1.58
7928.00,1.58
7927.00,1.58
7926.00,1.58
7925.00,1.58
7924.00,1.58
7923.00,1.58
7922.00,1.57
7921.00,1.57
7920.00,1.57
7919.00,1.56
7918.00,1.56
7917.00,1.56
7916.00,1.56
7915.00,1.56
7914.00,1.55
7913.00,1.55
7912.00,1.55
7911.00,1.55
7910.00,1.55
7909.00,1.55
7908.00,1.55
7907.00,1.55
7906.00,1.55
7905.00,1.55
7904.00,1.55
7903.00,1.56
7902.00,1.56
7901.00,1.56
7900.00,1.56
7899.00,1.57
7898.00,1.57
7897.00,1.57
7896.00,1.58
7895.00,1.58
7894.00,1.58
7893.00,1.58
7892.00,1.59
7891.00,1.59
7890.00,1.59
7889.00,1.59
7888.00,1.60
7887.00,1.60
7886.00,1.60
7885.00,1.60
7884.00,1.60
7883.00,1.60
7882.00,1.60
7881.00,1.60
7880.00,1.60
7879.00,1.60
7878.00,1.60
7877.00,1.60
7876.00,1.60
7875.00,1.60
7874.00,1.60
7873.00,1.60
7872.00,1.60
7871.00,1.59
7870.00,1.59
7869.00,1.59
7868.00,1.59
7867.00,1.59
7866.00,1.59
7865.00,1.58
7864.00,1.58
7863.00,1.58
7862.00,1.58
7861.00,1.58
7860.00,1.58
7859.00,1.58
7858.00,1.57
7857.00,1.57
7856.00,1.57
7855.00,1.57
7854.00,1.57
7853.00,1.57
7852.00,1.57
7851.00,1.57
7850.00,1.57
7849.00,1.57
7848.00,1.57
7847.00,1.57
7846.00,1.57
7845.00,1.57
7844.00,1.58
7843.00,1.58
7842.00,1.58
7841.00,1.58
7840.00,1.58
7839.00,1.58
7838.00,1.59
7837.00,1.59
7836.00,1.59
7835.00,1.59
7834.00,1.60
7833.00,1.60
7832.00,1.60
7831.00,1.60
7830.00,1.61
7829.00,1.61
7828.00,1.61
7827.00,1.61
7826.00,1.61
7825.00,1.61
7824.00,1.61
7823.00,1.61
7822.00,1.61
7821.00,1.61
7820.00,1.61
7819.00,1.61
7818.00,1.60
7817.00,1.60
7816.00,1.60
7815.00,1.60
7814.00,1.60
7813.00,1.60
7812.00,1.60
7811.00,1.59
7810.00,1.59
7809.00,1.59
7808.00,1.59
7807.00,1.59
7806.00,1.58
7805.00,1.58
7804.00,1.58
7803.00,1.58
7802.00,1.58
7801.00,1.57
7800.00,1.57
7799.00,1.57
7798.00,1.57
7797.00,1.57
7796.00,1.57
7795.00,1.57
7794.00,1.57
7793.00,1.57
7792.00,1.57
7791.00,1.57
7790.00,1.57
7789.00,1.57
7788.00,1.57
7787.00,1.57
7786.00,1.57
7785.00,1.57
7784.00,1.57
7783.00,1.57
7782.00,1.57
7781.00,1.57
7780.00,1.57
7779.00,1.57
7778.00,1.57
7777.00,1.57
7776.00,1.57
7775.00,1.57
7774.00,1.57
7773.00,1.57
7772.00,1.57
7771.00,1.57
7770.00,1.57
7769.00,1.57
7768.00,1.57
7767.00,1.58
7766.00,1.58
7765.00,1.58
7764.00,1.58
7763.00,1.58
7762.00,1.58
7761.00,1.58
7760.00,1.58
7759.00,1.58
7758.00,1.58
7757.00,1.59
7756.00,1.59
7755.00,1.59
7754.00,1.59
7753.00,1.59
7752.00,1.59
7751.00,1.59
7750.00,1.59
7749.00,1.59
7748.00,1.59
7747.00,1.59
7746.00,1.59
7745.00,1.59
7744.00,1.59
7743.00,1.59
7742.00,1.59
7741.00,1.59
7740.00,1.59
7739.00,1.59
7738.00,1.59
7737.00,1.59
7736.00,1.59
7735.00,1.59
7734.00,1.58
7733.00,1.58
7732.00,1.58
7731.00,1.58
7730.00,1.58
7729.00,1.58
7728.00,1.58
7727.00,1.58
7726.00,1.58
7725.00,1.58
7724.00,1.58
7723.00,1.58
7722.00,1.58
7721.00,1.58
7720.00,1.58
7719.00,1.58
7718.00,1.58
7717.00,1.58
7716.00,1.58
7715.00,1.58
7714.00,1.58
7713.00,1.59
7712.00,1.59
7711.00,1.59
7710.00,1.59
7709.00,1.59
7708.00,1.60
7707.00,1.60
7706.00,1.60
7705.00,1.60
7704.00,1.61
7703.00,1.61
7702.00,1.61
7701.00,1.61
7700.00,1.61
7699.00,1.62
7698.00,1.62
7697.00,1.62
7696.00,1.62
7695.00,1.62
7694.00,1.62
7693.00,1.62
7692.00,1.62
7691.00,1.62
7690.00,1.62
7689.00,1.62
7688.00,1.62
7687.00,1.62
7686.00,1.62
7685.00,1.62
7684.00,1.61
7683.00,1.61
7682.00,1.61
7681.00,1.60
7680.00,1.60
7679.00,1.59
7678.00,1.59
7677.00,1.59
7676.00,1.58
7675.00,1.58
7674.00,1.58
7673.00,1.57
7672.00,1.57
7671.00,1.57
7670.00,1.57
7669.00,1.57
7668.00,1.57
7667.00,1.57
7666.00,1.57
7665.00,1.57
7664.00,1.57
7663.00,1.57
7662.00,1.57
7661.00,1.57
7660.00,1.57
7659.00,1.57
7658.00,1.57
7657.00,1.58
7656.00,1.58
7655.00,1.59
7654.00,1.59
7653.00,1.59
7652.00,1.60
7651.00,1.60
7650.00,1.61
7649.00,1.61
7648.00,1.62
7647.00,1.62
7646.00,1.62
7645.00,1.63
7644.00,1.63
7643.00,1.63
7642.00,1.63
7641.00,1.63
7640.00,1.63
7639.00,1.63
7638.00,1.63
7637.00,1.63
7636.00,1.63
7635.00,1.63
7634.00,1.63
7633.00,1.62
7632.00,1.62
7631.00,1.62
7630.00,1.61
7629.00,1.61
7628.00,1.61
7627.00,1.60
7626.00,1.60
7625.00,1.60
7624.00,1.60
7623.00,1.59
7622.00,1.59
7621.00,1.59
7620.00,1.59
7619.00,1.59
7618.00,1.59
7617.00,1.59
7616.00,1.59
7615.00,1.59
7614.00,1.59
7613.00,1.59
7612.00,1.59
7611.00,1.59
7610.00,1.60
7609.00,1.60
7608.00,1.61
7607.00,1.61
7606.00,1.61
7605.00,1.62
7604.00,1.62
7603.00,1.63
7602.00,1.63
7601.00,1.63
7600.00,1.63
7599.00,1.64
7598.00,1.64
7597.00,1.64
7596.00,1.64
7595.00,1.64
7594.00,1.64
7593.00,1.64
7592.00,1.63
7591.00,1.63
7590.00,1.63
7589.00,1.63
7588.00,1.62
7587.00,1.62
7586.00,1.62
7585.00,1.61
7584.00,1.61
7583.00,1.61
7582.00,1.60
7581.00,1.60
7580.00,1.60
7579.00,1.59
7578.00,1.59
7577.00,1.59
7576.00,1.59
7575.00,1.59
7574.00,1.59
7573.00,1.58
7572.00,1.59
7571.00,1.59
7570.00,1.59
7569.00,1.59
7568.00,1.59
7567.00,1.59
7566.00,1.60
7565.00,1.60
7564.00,1.60
7563.00,1.61
7562.00,1.61
7561.00,1.62
7560.00,1.62
7559.00,1.62
7558.00,1.63
7557.00,1.63
7556.00,1.63
7555.00,1.63
7554.00,1.64
7553.00,1.64
7552.00,1.64
7551.00,1.64
7550.00,1.64
7549.00,1.64
7548.00,1.64
7547.00,1.64
7546.00,1.64
7545.00,1.64
7544.00,1.63
7543.00,1.63
7542.00,1.63
7541.00,1.63
7540.00,1.62
7539.00,1.62
7538.00,1.62
7537.00,1.62
7536.00,1.61
7535.00,1.61
7534.00,1.61
7533.00,1.60
7532.00,1.60
7531.00,1.60
7530.00,1.60
7529.00,1.59
7528.00,1.59
7527.00,1.59
7526.00,1.59
7525.00,1.58
7524.00,1.58
7523.00,1.58
7522.00,1.58
7521.00,1.58
7520.00,1.58
7519.00,1.58
7518.00,1.57
7517.00,1.57
7516.00,1.57
7515.00,1.57
7514.00,1.57
7513.00,1.57
7512.00,1.57
7511.00,1.57
7510.00,1.57
7509.00,1.56
7508.00,1.56
7507.00,1.56
7506.00,1.56
7505.00,1.56
7504.00,1.55
7503.00,1.55
7502.00,1.55
7501.00,1.55
7500.00,1.54
7499.00,1.54
7498.00,1.54
7497.00,1.54
7496.00,1.54
7495.00,1.54
7494.00,1.54
7493.00,1.53
7492.00,1.53
7491.00,1.53
7490.00,1.53
7489.00,1.53
7488.00,1.52
7487.00,1.52
7486.00,1.52
7485.00,1.52
7484.00,1.52
7483.00,1.53
7482.00,1.53
7481.00,1.53
7480.00,1.53
7479.00,1.53
7478.00,1.53
7477.00,1.53
7476.00,1.54
7475.00,1.54
7474.00,1.54
7473.00,1.54
7472.00,1.54
7471.00,1.54
7470.00,1.55
7469.00,1.55
7468.00,1.55
7467.00,1.55
7466.00,1.56
7465.00,1.56
7464.00,1.56
7463.00,1.56
7462.00,1.56
7461.00,1.56
7460.00,1.57
7459.00,1.57
7458.00,1.57
7457.00,1.56
7456.00,1.56
7455.00,1.56
7454.00,1.56
7453.00,1.56
7452.00,1.56
7451.00,1.56
7450.00,1.56
7449.00,1.56
7448.00,1.56
7447.00,1.56
7446.00,1.56
7445.00,1.56
7444.00,1.55
7443.00,1.55
7442.00,1.55
7441.00,1.55
7440.00,1.55
7439.00,1.55
7438.00,1.55
7437.00,1.54
7436.00,1.54
7435.00,1.54
7434.00,1.54
7433.00,1.54
7432.00,1.54
7431.00,1.54
7430.00,1.54
7429.00,1.54
7428.00,1.54
7427.00,1.54
7426.00,1.54
7425.00,1.54
7424.00,1.54
7423.00,1.54
7422.00,1.54
7421.00,1.54
7420.00,1.54
7419.00,1.54
7418.00,1.53
7417.00,1.53
7416.00,1.53
7415.00,1.53
7414.00,1.52
7413.00,1.52
7412.00,1.52
7411.00,1.52
7410.00,1.52
7409.00,1.51
7408.00,1.51
7407.00,1.51
7406.00,1.51
7405.00,1.51
7404.00,1.51
7403.00,1.50
7402.00,1.50
7401.00,1.50
7400.00,1.50
7399.00,1.49
7398.00,1.49
7397.00,1.49
7396.00,1.49
7395.00,1.49
7394.00,1.48
7393.00,1.48
7392.00,1.48
7391.00,1.48
7390.00,1.48
7389.00,1.48
7388.00,1.48
7387.00,1.48
7386.00,1.48
7385.00,1.47
7384.00,1.47
7383.00,1.47
7382.00,1.47
7381.00,1.47
7380.00,1.47
7379.00,1.47
7378.00,1.47
7377.00,1.46
7376.00,1.46
7375.00,1.46
7374.00,1.46
7373.00,1.46
7372.00,1.46
7371.00,1.46
7370.00,1.46
7369.00,1.45
7368.00,1.45
7367.00,1.45
7366.00,1.46
7365.00,1.46
7364.00,1.46
7363.00,1.46
7362.00,1.46
7361.00,1.46
7360.00,1.46
7359.00,1.47
7358.00,1.47
7357.00,1.47
7356.00,1.48
7355.00,1.48
7354.00,1.48
7353.00,1.48
7352.00,1.49
7351.00,1.49
7350.00,1.49
7349.00,1.50
7348.00,1.50
7347.00,1.50
7346.00,1.51
7345.00,1.51
7344.00,1.51
7343.00,1.51
7342.00,1.52
7341.00,1.52
7340.00,1.52
7339.00,1.52
7338.00,1.52
7337.00,1.52
7336.00,1.52
7335.00,1.52
7334.00,1.52
7333.00,1.52
7332.00,1.51
7331.00,1.51
7330.00,1.51
7329.00,1.51
7328.00,1.51
7327.00,1.50
7326.00,1.50
7325.00,1.50
7324.00,1.50
7323.00,1.50
7322.00,1.49
7321.00,1.49
7320.00,1.49
7319.00,1.49
7318.00,1.48
7317.00,1.48
7316.00,1.48
7315.00,1.48
7314.00,1.47
7313.00,1.47
7312.00,1.47
7311.00,1.47
7310.00,1.47
7309.00,1.47
7308.00,1.47
7307.00,1.47
7306.00,1.47
7305.00,1.47
7304.00,1.47
7303.00,1.47
7302.00,1.47
7301.00,1.47
7300.00,1.46
7299.00,1.46
7298.00,1.46
7297.00,1.46
7296.00,1.46
7295.00,1.46
7294.00,1.45
7293.00,1.45
7292.00,1.45
7291.00,1.45
7290.00,1.44
7289.00,1.44
7288.00,1.44
7287.00,1.44
7286.00,1.43
7285.00,1.43
7284.00,1.43
7283.00,1.42
7282.00,1.42
7281.00,1.41
7280.00,1.41
7279.00,1.41
7278.00,1.40
7277.00,1.40
7276.00,1.40
7275.00,1.39
7274.00,1.39
7273.00,1.38
7272.00,1.38
7271.00,1.38
7270.00,1.37
7269.00,1.37
7268.00,1.37
7267.00,1.36
7266.00,1.36
7265.00,1.36
7264.00,1.36
7263.00,1.36
7262.00,1.36
7261.00,1.36
7260.00,1.35
7259.00,1.35
7258.00,1.35
7257.00,1.35
7256.00,1.35
7255.00,1.35
7254.00,1.35
7253.00,1.35
7252.00,1.35
7251.00,1.35
7250.00,1.35
7249.00,1.35
7248.00,1.35
7247.00,1.35
7246.00,1.35
7245.00,1.35
7244.00,1.35
7243.00,1.35
7242.00,1.35
7241.00,1.35
7240.00,1.34
7239.00,1.34
7238.00,1.34
7237.00,1.34
7236.00,1.33
7235.00,1.33
7234.00,1.33
7233.00,1.32
7232.00,1.32
7231.00,1.31
7230.00,1.31
7229.00,1.30
7228.00,1.30
7227.00,1.29
7226.00,1.29
7225.00,1.28
7224.00,1.28
7223.00,1.27
7222.00,1.26
7221.00,1.26
7220.00,1.25
7219.00,1.24
7218.00,1.24
7217.00,1.23
7216.00,1.23
7215.00,1.22
7214.00,1.21
7213.00,1.21
7212.00,1.20
7211.00,1.20
7210.00,1.19
7209.00,1.19
7208.00,1.18
7207.00,1.18
7206.00,1.18
7205.00,1.17
7204.00,1.17
7203.00,1.16
7202.00,1.16
7201.00,1.16
7200.00,1.16
7199.00,1.15
7198.00,1.15
7197.00,1.15
7196.00,1.15
7195.00,1.15
7194.00,1.14
7193.00,1.14
7192.00,1.14
7191.00,1.14
7190.00,1.14
7189.00,1.14
7188.00,1.14
7187.00,1.14
7186.00,1.13
7185.00,1.13
7184.00,1.13
7183.00,1.13
7182.00,1.13
7181.00,1.12
7180.00,1.12
7179.00,1.12
7178.00,1.11
7177.00,1.11
7176.00,1.11
7175.00,1.11
7174.00,1.10
7173.00,1.10
7172.00,1.09
7171.00,1.09
7170.00,1.09
7169.00,1.08
7168.00,1.08
7167.00,1.07
7166.00,1.07
7165.00,1.07
7164.00,1.06
7163.00,1.06
7162.00,1.05
7161.00,1.05
7160.00,1.04
7159.00,1.04
7158.00,1.03
7157.00,1.03
7156.00,1.03
7155.00,1.02
7154.00,1.02
7153.00,1.02
7152.00,1.01
7151.00,1.01
7150.00,1.01
7149.00,1.00
7148.00,1.00
7147.00,0.99
7146.00,0.99
7145.00,0.99
7144.00,0.98
7143.00,0.98
7142.00,0.97
7141.00,0.97
7140.00,0.97
7139.00,0.97
7138.00,0.96
7137.00,0.96
7136.00,0.96
7135.00,0.96
7134.00,0.96
7133.00,0.95
7132.00,0.95
7131.00,0.95
7130.00,0.94
7129.00,0.94
7128.00,0.93
7127.00,0.93
7126.00,0.93
7125.00,0.92
7124.00,0.92
7123.00,0.92
7122.00,0.91
7121.00,0.91
7120.00,0.91
7119.00,0.91
7118.00,0.90
7117.00,0.90
7116.00,0.90
7115.00,0.89
7114.00,0.89
7113.00,0.89
7112.00,0.88
7111.00,0.88
7110.00,0.87
7109.00,0.87
7108.00,0.86
7107.00,0.86
7106.00,0.85
7105.00,0.85
7104.00,0.85
7103.00,0.84
7102.00,0.84
7101.00,0.84
7100.00,0.84
7099.00,0.83
7098.00,0.83
7097.00,0.83
7096.00,0.83
7095.00,0.82
7094.00,0.82
7093.00,0.82
7092.00,0.81
7091.00,0.81
7090.00,0.81
7089.00,0.81
7088.00,0.81
7087.00,0.80
7086.00,0.80
7085.00,0.80
7084.00,0.80
7083.00,0.80
7082.00,0.80
7081.00,0.80
7080.00,0.80
7079.00,0.80
7078.00,0.80
7077.00,0.80
7076.00,0.80
7075.00,0.80
7074.00,0.80
7073.00,0.79
7072.00,0.79
7071.00,0.79
7070.00,0.79
7069.00,0.79
7068.00,0.79
7067.00,0.78
7066.00,0.78
7065.00,0.78
7064.00,0.78
7063.00,0.78
7062.00,0.78
7061.00,0.78
7060.00,0.77
7059.00,0.77
7058.00,0.77
7057.00,0.77
7056.00,0.76
7055.00,0.76
7054.00,0.76
7053.00,0.76
7052.00,0.75
7051.00,0.75
7050.00,0.75
7049.00,0.75
7048.00,0.75
7047.00,0.75
7046.00,0.74
7045.00,0.74
7044.00,0.74
7043.00,0.74
7042.00,0.74
7041.00,0.74
7040.00,0.74
7039.00,0.73
7038.00,0.73
7037.00,0.73
7036.00,0.73
7035.00,0.73
7034.00,0.73
7033.00,0.73
7032.00,0.73
7031.00,0.73
7030.00,0.73
7029.00,0.73
7028.00,0.73
7027.00,0.73
7026.00,0.73
7025.00,0.73
7024.00,0.73
7023.00,0.73
7022.00,0.73
7021.00,0.73
7020.00,0.73
7019.00,0.73
7018.00,0.73
7017.00,0.73
7016.00,0.73
7015.00,0.73
7014.00,0.73
7013.00,0.73
7012.00,0.73
7011.00,0.73
7010.00,0.73
7009.00,0.73
7008.00,0.72
7007.00,0.72
7006.00,0.72
7005.00,0.72
7004.00,0.72
7003.00,0.72
7002.00,0.71
7001.00,0.71
7000.00,0.71
6999.00,0.71
6998.00,0.71
6997.00,0.70
6996.00,0.70
6995.00,0.70
6994.00,0.70
6993.00,0.70
6992.00,0.70
6991.00,0.70
6990.00,0.70
6989.00,0.70
6988.00,0.71
6987.00,0.71
6986.00,0.71
6985.00,0.71
6984.00,0.71
6983.00,0.71
6982.00,0.71
6981.00,0.71
6980.00,0.71
6979.00,0.71
6978.00,0.71
6977.00,0.71
6976.00,0.71
6975.00,0.71
6974.00,0.71
6973.00,0.72
6972.00,0.72
6971.00,0.72
6970.00,0.72
6969.00,0.72
6968.00,0.72
6967.00,0.72
6966.00,0.72
6965.00,0.72
6964.00,0.72
6963.00,0.71
6962.00,0.71
6961.00,0.71
6960.00,0.71
6959.00,0.71
6958.00,0.71
6957.00,0.71
6956.00,0.71
6955.00,0.71
6954.00,0.70
6953.00,0.70
6952.00,0.70
6951.00,0.70
6950.00,0.70
6949.00,0.70
6948.00,0.70
6947.00,0.70
6946.00,0.70
6945.00,0.70
6944.00,0.70
6943.00,0.69
6942.00,0.69
6941.00,0.69
6940.00,0.69
6939.00,0.69
6938.00,0.69
6937.00,0.69
6936.00,0.69
6935.00,0.68
6934.00,0.68
6933.00,0.68
6932.00,0.68
6931.00,0.68
6930.00,0.68
6929.00,0.68
6928.00,0.67
6927.00,0.67
6926.00,0.67
6925.00,0.67
6924.00,0.67
6923.00,0.66
6922.00,0.66
6921.00,0.66
6920.00,0.65
6919.00,0.65
6918.00,0.65
6917.00,0.65
6916.00,0.64
6915.00,0.64
6914.00,0.64
6913.00,0.64
6912.00,0.64
6911.00,0.63
6910.00,0.63
6909.00,0.63
6908.00,0.63
6907.00,0.63
6906.00,0.63
6905.00,0.62
6904.00,0.62
6903.00,0.62
6902.00,0.62
6901.00,0.63
6900.00,0.63
6899.00,0.63
6898.00,0.63
6897.00,0.63
6896.00,0.63
6895.00,0.64
6894.00,0.64
6893.00,0.64
6892.00,0.64
6891.00,0.64
6890.00,0.65
6889.00,0.65
6888.00,0.65
6887.00,0.65
6886.00,0.65
6885.00,0.66
6884.00,0.66
6883.00,0.66
6882.00,0.66
6881.00,0.66
6880.00,0.67
6879.00,0.67
6878.00,0.67
6877.00,0.67
6876.00,0.67
6875.00,0.67
6874.00,0.67
6873.00,0.67
6872.00,0.67
6871.00,0.67
6870.00,0.67
6869.00,0.67
6868.00,0.67
6867.00,0.67
6866.00,0.67
6865.00,0.67
6864.00,0.67
6863.00,0.67
6862.00,0.67
6861.00,0.67
6860.00,0.67
6859.00,0.67
6858.00,0.67
6857.00,0.67
6856.00,0.67
6855.00,0.67
6854.00,0.67
6853.00,0.67
6852.00,0.67
6851.00,0.67
6850.00,0.67
6849.00,0.67
6848.00,0.67
6847.00,0.67
6846.00,0.67
6845.00,0.67
6844.00,0.67
6843.00,0.67
6842.00,0.67
6841.00,0.67
6840.00,0.67
6839.00,0.67
6838.00,0.67
6837.00,0.68
6836.00,0.68
6835.00,0.68
6834.00,0.68
6833.00,0.68
6832.00,0.69
6831.00,0.69
6830.00,0.69
6829.00,0.69
6828.00,0.69
6827.00,0.70
6826.00,0.70
6825.00,0.70
6824.00,0.70
6823.00,0.70
6822.00,0.70
6821.00,0.71
6820.00,0.71
6819.00,0.71
6818.00,0.71
6817.00,0.71
6816.00,0.71
6815.00,0.71
6814.00,0.70
6813.00,0.70
6812.00,0.70
6811.00,0.70
6810.00,0.70
6809.00,0.70
6808.00,0.70
6807.00,0.70
6806.00,0.69
6805.00,0.69
6804.00,0.69
6803.00,0.69
6802.00,0.69
6801.00,0.69
6800.00,0.69
6799.00,0.69
6798.00,0.69
6797.00,0.69
6796.00,0.69
6795.00,0.69
6794.00,0.69
6793.00,0.69
6792.00,0.69
6791.00,0.69
6790.00,0.69
6789.00,0.69
6788.00,0.69
6787.00,0.69
6786.00,0.69
6785.00,0.70
6784.00,0.70
6783.00,0.70
6782.00,0.70
6781.00,0.70
6780.00,0.70
6779.00,0.70
6778.00,0.70
6777.00,0.70
6776.00,0.70
6775.00,0.70
6774.00,0.70
6773.00,0.70
6772.00,0.70
6771.00,0.70
6770.00,0.70
6769.00,0.70
6768.00,0.70
6767.00,0.71
6766.00,0.71
6765.00,0.71
6764.00,0.71
6763.00,0.71
6762.00,0.71
6761.00,0.71
6760.00,0.71
6759.00,0.71
6758.00,0.71
6757.00,0.71
6756.00,0.72
6755.00,0.72
6754.00,0.72
6753.00,0.72
6752.00,0.72
6751.00,0.72
6750.00,0.73
6749.00,0.73
6748.00,0.73
6747.00,0.73
6746.00,0.73
6745.00,0.74
6744.00,0.74
6743.00,0.74
6742.00,0.74
6741.00,0.74
6740.00,0.75
6739.00,0.75
6738.00,0.75
6737.00,0.75
6736.00,0.75
6735.00,0.76
6734.00,0.76
6733.00,0.76
6732.00,0.76
6731.00,0.76
6730.00,0.76
6729.00,0.77
6728.00,0.77
6727.00,0.77
6726.00,0.77
6725.00,0.77
6724.00,0.77
6723.00,0.77
6722.00,0.78
6721.00,0.78
6720.00,0.78
6719.00,0.78
6718.00,0.78
6717.00,0.79
6716.00,0.79
6715.00,0.79
6714.00,0.79
6713.00,0.79
6712.00,0.79
6711.00,0.79
6710.00,0.80
6709.00,0.80
6708.00,0.80
6707.00,0.80
6706.00,0.80
6705.00,0.80
6704.00,0.80
6703.00,0.80
6702.00,0.80
6701.00,0.80
6700.00,0.81
6699.00,0.81
6698.00,0.81
6697.00,0.81
6696.00,0.81
6695.00,0.81
6694.00,0.81
6693.00,0.82
6692.00,0.82
6691.00,0.82
6690.00,0.82
6689.00,0.82
6688.00,0.82
6687.00,0.83
6686.00,0.83
6685.00,0.83
6684.00,0.83
6683.00,0.84
6682.00,0.84
6681.00,0.84
6680.00,0.85
6679.00,0.85
6678.00,0.85
6677.00,0.86
6676.00,0.86
6675.00,0.86
6674.00,0.87
6673.00,0.87
6672.00,0.87
6671.00,0.87
6670.00,0.87
6669.00,0.87
6668.00,0.88
6667.00,0.88
6666.00,0.88
6665.00,0.88
6664.00,0.88
6663.00,0.88
6662.00,0.88
6661.00,0.88
6660.00,0.88
6659.00,0.88
6658.00,0.88
6657.00,0.88
6656.00,0.88
6655.00,0.88
6654.00,0.88
6653.00,0.88
6652.00,0.88
6651.00,0.88
6650.00,0.88
6649.00,0.88
6648.00,0.88
6647.00,0.88
6646.00,0.88
6645.00,0.88
6644.00,0.88
6643.00,0.88
6642.00,0.88
6641.00,0.88
6640.00,0.88
6639.00,0.88
6638.00,0.88
6637.00,0.88
6636.00,0.89
6635.00,0.89
6634.00,0.89
6633.00,0.89
6632.00,0.89
6631.00,0.89
6630.00,0.89
6629.00,0.89
6628.00,0.89
6627.00,0.90
6626.00,0.90
6625.00,0.90
6624.00,0.90
6623.00,0.90
6622.00,0.90
6621.00,0.90
6620.00,0.90
6619.00,0.90
6618.00,0.90
6617.00,0.90
6616.00,0.90
6615.00,0.90
6614.00,0.90
6613.00,0.90
6612.00,0.90
6611.00,0.90
6610.00,0.90
6609.00,0.90
6608.00,0.90
6607.00,0.90
6606.00,0.91
6605.00,0.91
6604.00,0.91
6603.00,0.91
6602.00,0.91
6601.00,0.91
6600.00,0.91
6599.00,0.91
6598.00,0.91
6597.00,0.91
6596.00,0.91
6595.00,0.91
6594.00,0.92
6593.00,0.92
6592.00,0.92
6591.00,0.92
6590.00,0.92
6589.00,0.93
6588.00,0.93
6587.00,0.93
6586.00,0.93
6585.00,0.94
6584.00,0.94
6583.00,0.94
6582.00,0.94
6581.00,0.94
6580.00,0.94
6579.00,0.95
6578.00,0.95
6577.00,0.95
6576.00,0.95
6575.00,0.95
6574.00,0.95
6573.00,0.96
6572.00,0.96
6571.00,0.96
6570.00,0.96
6569.00,0.96
6568.00,0.96
6567.00,0.96
6566.00,0.97
6565.00,0.97
6564.00,0.97
6563.00,0.97
6562.00,0.97
6561.00,0.97
6560.00,0.97
6559.00,0.97
6558.00,0.97
6557.00,0.97
6556.00,0.97
6555.00,0.97
6554.00,0.97
6553.00,0.97
6552.00,0.98
6551.00,0.98
6550.00,0.98
6549.00,0.98
6548.00,0.98
6547.00,0.98
6546.00,0.99
6545.00,0.99
6544.00,0.99
6543.00,0.99
6542.00,0.99
6541.00,0.99
6540.00,0.99
6539.00,1.00
6538.00,1.00
6537.00,1.00
6536.00,1.00
6535.00,1.00
6534.00,1.00
6533.00,1.01
6532.00,1.01
6531.00,1.01
6530.00,1.01
6529.00,1.01
6528.00,1.01
6527.00,1.01
6526.00,1.01
6525.00,1.01
6524.00,1.01
6523.00,1.01
6522.00,1.01
6521.00,1.01
6520.00,1.00
6519.00,1.00
6518.00,1.00
6517.00,1.00
6516.00,1.00
6515.00,1.00
6514.00,1.00
6513.00,1.00
6512.00,1.00
6511.00,1.00
6510.00,1.00
6509.00,1.00
6508.00,1.01
6507.00,1.01
6506.00,1.01
6505.00,1.01
6504.00,1.01
6503.00,1.01
6502.00,1.01
6501.00,1.02
6500.00,1.02
6499.00,1.02
6498.00,1.02
6497.00,1.03
6496.00,1.03
6495.00,1.03
6494.00,1.03
6493.00,1.04
6492.00,1.04
6491.00,1.04
6490.00,1.04
6489.00,1.04
6488.00,1.04
6487.00,1.04
6486.00,1.04
6485.00,1.04
6484.00,1.04
6483.00,1.04
6482.00,1.04
6481.00,1.04
6480.00,1.04
6479.00,1.04
6478.00,1.04
6477.00,1.04
6476.00,1.04
6475.00,1.04
6474.00,1.04
6473.00,1.04
6472.00,1.03
6471.00,1.03
6470.00,1.03
6469.00,1.03
6468.00,1.03
6467.00,1.03
6466.00,1.03
6465.00,1.03
6464.00,1.03
6463.00,1.03
6462.00,1.03
6461.00,1.03
6460.00,1.03
6459.00,1.04
6458.00,1.04
6457.00,1.04
6456.00,1.04
6455.00,1.04
6454.00,1.05
6453.00,1.05
6452.00,1.05
6451.00,1.05
6450.00,1.06
6449.00,1.06
6448.00,1.06
6447.00,1.07
6446.00,1.07
6445.00,1.07
6444.00,1.07
6443.00,1.08
6442.00,1.08
6441.00,1.08
6440.00,1.09
6439.00,1.09
6438.00,1.09
6437.00,1.10
6436.00,1.10
6435.00,1.10
6434.00,1.11
6433.00,1.11
6432.00,1.11
6431.00,1.12
6430.00,1.12
6429.00,1.12
6428.00,1.12
6427.00,1.12
6426.00,1.13
6425.00,1.13
6424.00,1.13
6423.00,1.13
6422.00,1.13
6421.00,1.13
6420.00,1.13
6419.00,1.13
6418.00,1.13
6417.00,1.13
6416.00,1.13
6415.00,1.13
6414.00,1.13
6413.00,1.12
6412.00,1.12
6411.00,1.12
6410.00,1.12
6409.00,1.12
6408.00,1.12
6407.00,1.11
6406.00,1.11
6405.00,1.11
6404.00,1.11
6403.00,1.11
6402.00,1.11
6401.00,1.10
6400.00,1.10
6399.00,1.10
6398.00,1.10
6397.00,1.10
6396.00,1.10
6395.00,1.10
6394.00,1.10
6393.00,1.10
6392.00,1.10
6391.00,1.10
6390.00,1.10
6389.00,1.11
6388.00,1.11
6387.00,1.11
6386.00,1.11
6385.00,1.11
6384.00,1.11
6383.00,1.12
6382.00,1.12
6381.00,1.12
6380.00,1.12
6379.00,1.12
6378.00,1.13
6377.00,1.13
6376.00,1.13
6375.00,1.13
6374.00,1.13
6373.00,1.13
6372.00,1.14
6371.00,1.14
6370.00,1.14
6369.00,1.14
6368.00,1.14
6367.00,1.14
6366.00,1.15
6365.00,1.15
6364.00,1.15
6363.00,1.15
6362.00,1.15
6361.00,1.15
6360.00,1.15
6359.00,1.15
6358.00,1.15
6357.00,1.15
6356.00,1.16
6355.00,1.16
6354.00,1.16
6353.00,1.16
6352.00,1.16
6351.00,1.16
6350.00,1.16
6349.00,1.16
6348.00,1.16
6347.00,1.16
6346.00,1.16
6345.00,1.17
6344.00,1.17
6343.00,1.17
6342.00,1.17
6341.00,1.17
6340.00,1.17
6339.00,1.17
6338.00,1.17
6337.00,1.17
6336.00,1.17
6335.00,1.18
6334.00,1.18
6333.00,1.18
6332.00,1.18
6331.00,1.18
6330.00,1.18
6329.00,1.18
6328.00,1.18
6327.00,1.18
6326.00,1.19
6325.00,1.19
6324.00,1.19
6323.00,1.19
6322.00,1.19
6321.00,1.19
6320.00,1.19
6319.00,1.19
6318.00,1.20
6317.00,1.20
6316.00,1.20
6315.00,1.20
6314.00,1.20
6313.00,1.20
6312.00,1.20
6311.00,1.20
6310.00,1.20
6309.00,1.21
6308.00,1.21
6307.00,1.21
6306.00,1.21
6305.00,1.21
6304.00,1.21
6303.00,1.21
6302.00,1.21
6301.00,1.22
6300.00,1.22
6299.00,1.22
6298.00,1.22
6297.00,1.22
6296.00,1.22
6295.00,1.22
6294.00,1.22
6293.00,1.22
6292.00,1.22
6291.00,1.22
6290.00,1.23
6289.00,1.23
6288.00,1.23
6287.00,1.23
6286.00,1.23
6285.00,1.23
6284.00,1.23
6283.00,1.23
6282.00,1.24
6281.00,1.24
6280.00,1.24
6279.00,1.24
6278.00,1.24
6277.00,1.24
6276.00,1.24
6275.00,1.24
6274.00,1.24
6273.00,1.25
6272.00,1.25
6271.00,1.25
6270.00,1.25
6269.00,1.25
6268.00,1.25
6267.00,1.26
6266.00,1.26
6265.00,1.26
6264.00,1.26
6263.00,1.26
6262.00,1.26
6261.00,1.26
6260.00,1.26
6259.00,1.27
6258.00,1.27
6257.00,1.27
6256.00,1.27
6255.00,1.27
6254.00,1.27
6253.00,1.27
6252.00,1.28
6251.00,1.28
6250.00,1.28
6249.00,1.28
6248.00,1.28
6247.00,1.29
6246.00,1.29
6245.00,1.29
6244.00,1.29
6243.00,1.29
6242.00,1.29
6241.00,1.30
6240.00,1.30
6239.00,1.30
6238.00,1.30
6237.00,1.30
6236.00,1.30
6235.00,1.31
6234.00,1.31
6233.00,1.31
6232.00,1.31
6231.00,1.31
6230.00,1.31
6229.00,1.31
6228.00,1.31
6227.00,1.32
6226.00,1.32
6225.00,1.32
6224.00,1.32
6223.00,1.32
6222.00,1.32
6221.00,1.32
6220.00,1.32
6219.00,1.32
6218.00,1.32
6217.00,1.32
6216.00,1.32
6215.00,1.32
6214.00,1.32
6213.00,1.33
6212.00,1.33
6211.00,1.33
6210.00,1.33
6209.00,1.33
6208.00,1.33
6207.00,1.34
6206.00,1.34
6205.00,1.34
6204.00,1.34
6203.00,1.34
6202.00,1.35
6201.00,1.35
6200.00,1.35
6199.00,1.35
6198.00,1.36
6197.00,1.36
6196.00,1.36
6195.00,1.36
6194.00,1.37
6193.00,1.37
6192.00,1.37
6191.00,1.37
6190.00,1.37
6189.00,1.38
6188.00,1.38
6187.00,1.38
6186.00,1.38
6185.00,1.38
6184.00,1.38
6183.00,1.38
6182.00,1.38
6181.00,1.38
6180.00,1.39
6179.00,1.39
6178.00,1.39
6177.00,1.39
6176.00,1.39
6175.00,1.39
6174.00,1.40
6173.00,1.40
6172.00,1.40
6171.00,1.40
6170.00,1.40
6169.00,1.41
6168.00,1.41
6167.00,1.41
6166.00,1.41
6165.00,1.41
6164.00,1.41
6163.00,1.42
6162.00,1.42
6161.00,1.42
6160.00,1.42
6159.00,1.42
6158.00,1.42
6157.00,1.42
6156.00,1.42
6155.00,1.43
6154.00,1.43
6153.00,1.43
6152.00,1.43
6151.00,1.42
6150.00,1.42
6149.00,1.42
6148.00,1.42
6147.00,1.42
6146.00,1.42
6145.00,1.42
6144.00,1.42
6143.00,1.42
6142.00,1.42
6141.00,1.42
6140.00,1.42
6139.00,1.42
6138.00,1.42
6137.00,1.42
6136.00,1.42
6135.00,1.43
6134.00,1.43
6133.00,1.43
6132.00,1.43
6131.00,1.44
6130.00,1.44
6129.00,1.44
6128.00,1.45
6127.00,1.45
6126.00,1.45
6125.00,1.46
6124.00,1.46
6123.00,1.46
6122.00,1.47
6121.00,1.47
6120.00,1.48
6119.00,1.48
6118.00,1.48
6117.00,1.49
6116.00,1.49
6115.00,1.49
6114.00,1.49
6113.00,1.50
6112.00,1.50
6111.00,1.50
6110.00,1.50
6109.00,1.50
6108.00,1.51
6107.00,1.51
6106.00,1.51
6105.00,1.51
6104.00,1.51
6103.00,1.51
6102.00,1.51
6101.00,1.51
6100.00,1.51
6099.00,1.51
6098.00,1.51
6097.00,1.51
6096.00,1.52
6095.00,1.52
6094.00,1.52
6093.00,1.52
6092.00,1.52
6091.00,1.52
6090.00,1.53
6089.00,1.53
6088.00,1.53
6087.00,1.53
6086.00,1.53
6085.00,1.54
6084.00,1.54
6083.00,1.54
6082.00,1.54
6081.00,1.54
6080.00,1.55
6079.00,1.55
6078.00,1.55
6077.00,1.55
6076.00,1.56
6075.00,1.56
6074.00,1.56
6073.00,1.57
6072.00,1.57
6071.00,1.57
6070.00,1.58
6069.00,1.58
6068.00,1.58
6067.00,1.58
6066.00,1.59
6065.00,1.59
6064.00,1.59
6063.00,1.59
6062.00,1.60
6061.00,1.60
6060.00,1.60
6059.00,1.60
6058.00,1.60
6057.00,1.61
6056.00,1.61
6055.00,1.61
6054.00,1.61
6053.00,1.61
6052.00,1.61
6051.00,1.62
6050.00,1.62
6049.00,1.62
6048.00,1.62
6047.00,1.62
6046.00,1.62
6045.00,1.62
6044.00,1.62
6043.00,1.62
6042.00,1.62
6041.00,1.62
6040.00,1.62
6039.00,1.62
6038.00,1.62
6037.00,1.62
6036.00,1.62
6035.00,1.62
6034.00,1.61
6033.00,1.61
6032.00,1.61
6031.00,1.61
6030.00,1.61
6029.00,1.61
6028.00,1.61
6027.00,1.61
6026.00,1.61
6025.00,1.61
6024.00,1.61
6023.00,1.61
6022.00,1.61
6021.00,1.60
6020.00,1.60
6019.00,1.60
6018.00,1.60
6017.00,1.60
6016.00,1.60
6015.00,1.60
6014.00,1.60
6013.00,1.60
6012.00,1.60
6011.00,1.60
6010.00,1.60
6009.00,1.60
6008.00,1.60
6007.00,1.60
6006.00,1.60
6005.00,1.60
6004.00,1.60
6003.00,1.60
6002.00,1.60
6001.00,1.60
6000.00,1.60
5999.00,1.60
5998.00,1.60
5997.00,1.60
5996.00,1.60
5995.00,1.60
5994.00,1.60
5993.00,1.60
5992.00,1.60
5991.00,1.60
5990.00,1.60
5989.00,1.60
5988.00,1.59
5987.00,1.59
5986.00,1.59
5985.00,1.59
5984.00,1.59
5983.00,1.58
5982.00,1.58
5981.00,1.58
5980.00,1.57
5979.00,1.57
5978.00,1.57
5977.00,1.56
5976.00,1.56
5975.00,1.55
5974.00,1.55
5973.00,1.54
5972.00,1.54
5971.00,1.53
5970.00,1.53
5969.00,1.52
5968.00,1.52
5967.00,1.51
5966.00,1.51
5965.00,1.50
5964.00,1.50
5963.00,1.49
5962.00,1.49
5961.00,1.48
5960.00,1.47
5959.00,1.47
5958.00,1.46
5957.00,1.46
5956.00,1.45
5955.00,1.44
5954.00,1.44
5953.00,1.43
5952.00,1.43
5951.00,1.42
5950.00,1.42
5949.00,1.41
5948.00,1.41
5947.00,1.40
5946.00,1.40
5945.00,1.39
5944.00,1.39
5943.00,1.38
5942.00,1.38
5941.00,1.37
5940.00,1.37
5939.00,1.36
5938.00,1.36
5937.00,1.36
5936.00,1.35
5935.00,1.35
5934.00,1.35
5933.00,1.34
5932.00,1.34
5931.00,1.33
5930.00,1.33
5929.00,1.33
5928.00,1.32
5927.00,1.32
5926.00,1.32
5925.00,1.31
5924.00,1.31
5923.00,1.31
5922.00,1.31
5921.00,1.30
5920.00,1.30
5919.00,1.30
5918.00,1.30
5917.00,1.30
5916.00,1.30
5915.00,1.30
5914.00,1.30
5913.00,1.29
5912.00,1.29
5911.00,1.29
5910.00,1.29
5909.00,1.29
5908.00,1.29
5907.00,1.30
5906.00,1.30
5905.00,1.30
5904.00,1.30
5903.00,1.30
5902.00,1.31
5901.00,1.31
5900.00,1.31
5899.00,1.32
5898.00,1.32
5897.00,1.32
5896.00,1.33
5895.00,1.33
5894.00,1.33
5893.00,1.34
5892.00,1.34
5891.00,1.34
5890.00,1.34
5889.00,1.35
5888.00,1.35
5887.00,1.35
5886.00,1.35
5885.00,1.36
5884.00,1.36
5883.00,1.36
5882.00,1.37
5881.00,1.37
5880.00,1.37
5879.00,1.37
5878.00,1.38
5877.00,1.38
5876.00,1.38
5875.00,1.38
5874.00,1.38
5873.00,1.39
5872.00,1.39
5871.00,1.39
5870.00,1.39
5869.00,1.39
5868.00,1.39
5867.00,1.39
5866.00,1.40
5865.00,1.40
5864.00,1.40
5863.00,1.40
5862.00,1.40
5861.00,1.41
5860.00,1.41
5859.00,1.41
5858.00,1.41
5857.00,1.41
5856.00,1.41
5855.00,1.41
5854.00,1.41
5853.00,1.41
5852.00,1.41
5851.00,1.41
5850.00,1.41
5849.00,1.41
5848.00,1.41
5847.00,1.41
5846.00,1.41
5845.00,1.41
5844.00,1.41
5843.00,1.41
5842.00,1.41
5841.00,1.41
5840.00,1.40
5839.00,1.40
5838.00,1.40
5837.00,1.40
5836.00,1.40
5835.00,1.39
5834.00,1.39
5833.00,1.39
5832.00,1.38
5831.00,1.38
5830.00,1.38
5829.00,1.38
5828.00,1.38
5827.00,1.37
5826.00,1.37
5825.00,1.37
5824.00,1.37
5823.00,1.37
5822.00,1.37
5821.00,1.37
5820.00,1.37
5819.00,1.36
5818.00,1.36
5817.00,1.36
5816.00,1.36
5815.00,1.36
5814.00,1.36
5813.00,1.36
5812.00,1.36
5811.00,1.36
5810.00,1.36
5809.00,1.36
5808.00,1.36
5807.00,1.36
5806.00,1.36
5805.00,1.36
5804.00,1.35
5803.00,1.35
5802.00,1.35
5801.00,1.35
5800.00,1.35
5799.00,1.35
5798.00,1.35
5797.00,1.35
5796.00,1.35
5795.00,1.35
5794.00,1.35
5793.00,1.35
5792.00,1.34
5791.00,1.34
5790.00,1.34
5789.00,1.34
5788.00,1.34
5787.00,1.34
5786.00,1.34
5785.00,1.33
5784.00,1.33
5783.00,1.33
5782.00,1.33
5781.00,1.33
5780.00,1.33
5779.00,1.33
5778.00,1.33
5777.00,1.33
5776.00,1.33
5775.00,1.33
5774.00,1.33
5773.00,1.33
5772.00,1.33
5771.00,1.33
5770.00,1.33
5769.00,1.33
5768.00,1.33
5767.00,1.33
5766.00,1.34
5765.00,1.34
5764.00,1.34
5763.00,1.35
5762.00,1.35
5761.00,1.35
5760.00,1.36
5759.00,1.36
5758.00,1.37
5757.00,1.37
5756.00,1.37
5755.00,1.38
5754.00,1.38
5753.00,1.39
5752.00,1.39
5751.00,1.40
5750.00,1.40
5749.00,1.41
5748.00,1.41
5747.00,1.41
5746.00,1.42
5745.00,1.42
5744.00,1.43
5743.00,1.43
5742.00,1.43
5741.00,1.44
5740.00,1.44
5739.00,1.44
5738.00,1.44
5737.00,1.45
5736.00,1.45
5735.00,1.45
5734.00,1.45
5733.00,1.45
5732.00,1.45
5731.00,1.45
5730.00,1.45
5729.00,1.45
5728.00,1.45
5727.00,1.45
5726.00,1.44
5725.00,1.44
5724.00,1.44
5723.00,1.44
5722.00,1.44
5721.00,1.44
5720.00,1.44
5719.00,1.44
5718.00,1.43
5717.00,1.43
5716.00,1.43
5715.00,1.43
5714.00,1.43
5713.00,1.43
5712.00,1.42
5711.00,1.42
5710.00,1.42
5709.00,1.42
5708.00,1.42
5707.00,1.42
5706.00,1.42
5705.00,1.42
5704.00,1.41
5703.00,1.41
5702.00,1.41
5701.00,1.41
5700.00,1.41
5699.00,1.41
5698.00,1.41
5697.00,1.41
5696.00,1.41
5695.00,1.41
5694.00,1.41
5693.00,1.41
5692.00,1.40
5691.00,1.40
5690.00,1.40
5689.00,1.40
5688.00,1.40
5687.00,1.40
5686.00,1.40
5685.00,1.40
5684.00,1.39
5683.00,1.39
5682.00,1.39
5681.00,1.39
5680.00,1.39
5679.00,1.39
5678.00,1.39
5677.00,1.39
5676.00,1.38
5675.00,1.38
5674.00,1.38
5673.00,1.38
5672.00,1.38
5671.00,1.38
5670.00,1.37
5669.00,1.37
5668.00,1.37
5667.00,1.37
5666.00,1.37
5665.00,1.37
5664.00,1.37
5663.00,1.37
5662.00,1.37
5661.00,1.37
5660.00,1.37
5659.00,1.37
5658.00,1.37
5657.00,1.37
5656.00,1.37
5655.00,1.37
5654.00,1.37
5653.00,1.37
5652.00,1.37
5651.00,1.38
5650.00,1.38
5649.00,1.38
5648.00,1.38
5647.00,1.39
5646.00,1.39
5645.00,1.39
5644.00,1.39
5643.00,1.40
5642.00,1.40
5641.00,1.40
5640.00,1.41
5639.00,1.41
5638.00,1.41
5637.00,1.41
5636.00,1.42
5635.00,1.42
5634.00,1.42
5633.00,1.42
5632.00,1.43
5631.00,1.43
5630.00,1.43
5629.00,1.44
5628.00,1.44
5627.00,1.44
5626.00,1.44
5625.00,1.45
5624.00,1.45
5623.00,1.45
5622.00,1.45
5621.00,1.46
5620.00,1.46
5619.00,1.46
5618.00,1.46
5617.00,1.46
5616.00,1.47
5615.00,1.47
5614.00,1.47
5613.00,1.47
5612.00,1.48
5611.00,1.48
5610.00,1.48
5609.00,1.48
5608.00,1.49
5607.00,1.49
5606.00,1.49
5605.00,1.49
5604.00,1.49
5603.00,1.50
5602.00,1.50
5601.00,1.50
5600.00,1.50
5599.00,1.50
5598.00,1.50
5597.00,1.50
5596.00,1.51
5595.00,1.51
5594.00,1.51
5593.00,1.51
5592.00,1.51
5591.00,1.51
5590.00,1.52
5589.00,1.52
5588.00,1.52
5587.00,1.52
5586.00,1.52
5585.00,1.52
5584.00,1.53
5583.00,1.53
5582.00,1.53
5581.00,1.53
5580.00,1.53
5579.00,1.53
5578.00,1.54
5577.00,1.54
5576.00,1.54
5575.00,1.54
5574.00,1.54
5573.00,1.54
5572.00,1.55
5571.00,1.55
5570.00,1.55
5569.00,1.55
5568.00,1.55
5567.00,1.55
5566.00,1.55
5565.00,1.56
5564.00,1.56
5563.00,1.56
5562.00,1.56
5561.00,1.56
5560.00,1.56
5559.00,1.56
5558.00,1.56
5557.00,1.57
5556.00,1.57
5555.00,1.57
5554.00,1.57
5553.00,1.57
5552.00,1.57
5551.00,1.57
5550.00,1.57
5549.00,1.57
5548.00,1.57
5547.00,1.58
5546.00,1.58
5545.00,1.58
5544.00,1.58
5543.00,1.58
5542.00,1.59
5541.00,1.59
5540.00,1.59
5539.00,1.59
5538.00,1.60
5537.00,1.60
5536.00,1.60
5535.00,1.60
5534.00,1.61
5533.00,1.61
5532.00,1.61
5531.00,1.61
5530.00,1.61
5529.00,1.62
5528.00,1.62
5527.00,1.62
5526.00,1.62
5525.00,1.63
5524.00,1.63
5523.00,1.63
5522.00,1.63
5521.00,1.63
5520.00,1.63
5519.00,1.64
5518.00,1.64
5517.00,1.64
5516.00,1.64
5515.00,1.64
5514.00,1.64
5513.00,1.64
5512.00,1.64
5511.00,1.64
5510.00,1.64
5509.00,1.64
5508.00,1.64
5507.00,1.64
5506.00,1.64
5505.00,1.64
5504.00,1.64
5503.00,1.64
5502.00,1.64
5501.00,1.64
5500.00,1.64
5499.00,1.64
5498.00,1.64
5497.00,1.65
5496.00,1.65
5495.00,1.65
5494.00,1.65
5493.00,1.65
5492.00,1.65
5491.00,1.65
5490.00,1.66
5489.00,1.66
5488.00,1.66
5487.00,1.66
5486.00,1.66
5485.00,1.67
5484.00,1.67
5483.00,1.67
5482.00,1.67
5481.00,1.68
5480.00,1.68
5479.00,1.68
5478.00,1.68
5477.00,1.69
5476.00,1.69
5475.00,1.69
5474.00,1.69
5473.00,1.70
5472.00,1.70
5471.00,1.70
5470.00,1.70
5469.00,1.70
5468.00,1.70
5467.00,1.70
5466.00,1.70
5465.00,1.70
5464.00,1.70
5463.00,1.70
5462.00,1.70
5461.00,1.70
5460.00,1.70
5459.00,1.70
5458.00,1.70
5457.00,1.70
5456.00,1.70
5455.00,1.70
5454.00,1.70
5453.00,1.70
5452.00,1.70
5451.00,1.70
5450.00,1.70
5449.00,1.70
5448.00,1.70
5447.00,1.70
5446.00,1.70
5445.00,1.70
5444.00,1.70
5443.00,1.70
5442.00,1.70
5441.00,1.70
5440.00,1.70
5439.00,1.70
5438.00,1.70
5437.00,1.70
5436.00,1.70
5435.00,1.70
5434.00,1.70
5433.00,1.70
5432.00,1.70
5431.00,1.70
5430.00,1.70
5429.00,1.70
5428.00,1.70
5427.00,1.71
5426.00,1.71
5425.00,1.71
5424.00,1.71
5423.00,1.71
5422.00,1.71
5421.00,1.71
5420.00,1.71
5419.00,1.71
5418.00,1.70
5417.00,1.70
5416.00,1.70
5415.00,1.70
5414.00,1.70
5413.00,1.70
5412.00,1.70
5411.00,1.70
5410.00,1.70
5409.00,1.69
5408.00,1.69
5407.00,1.69
5406.00,1.69
5405.00,1.69
5404.00,1.69
5403.00,1.68
5402.00,1.68
5401.00,1.68
5400.00,1.68
5399.00,1.68
5398.00,1.67
5397.00,1.67
5396.00,1.67
5395.00,1.67
5394.00,1.67
5393.00,1.66
5392.00,1.66
5391.00,1.66
5390.00,1.66
5389.00,1.65
5388.00,1.65
5387.00,1.65
5386.00,1.64
5385.00,1.64
5384.00,1.64
5383.00,1.63
5382.00,1.63
5381.00,1.63
5380.00,1.62
5379.00,1.62
5378.00,1.61
5377.00,1.61
5376.00,1.60
5375.00,1.60
5374.00,1.59
5373.00,1.59
5372.00,1.58
5371.00,1.57
5370.00,1.57
5369.00,1.56
5368.00,1.55
5367.00,1.55
5366.00,1.54
5365.00,1.53
5364.00,1.53
5363.00,1.52
5362.00,1.51
5361.00,1.50
5360.00,1.49
5359.00,1.48
5358.00,1.48
5357.00,1.47
5356.00,1.46
5355.00,1.45
5354.00,1.44
5353.00,1.43
5352.00,1.42
5351.00,1.41
5350.00,1.40
5349.00,1.39
5348.00,1.38
5347.00,1.37
5346.00,1.36
5345.00,1.35
5344.00,1.33
5343.00,1.32
5342.00,1.31
5341.00,1.30
5340.00,1.28
5339.00,1.27
5338.00,1.26
5337.00,1.25
5336.00,1.23
5335.00,1.22
5334.00,1.21
5333.00,1.19
5332.00,1.18
5331.00,1.17
5330.00,1.15
5329.00,1.14
5328.00,1.13
5327.00,1.11
5326.00,1.10
5325.00,1.09
5324.00,1.07
5323.00,1.06
5322.00,1.05
5321.00,1.04
5320.00,1.02
5319.00,1.01
5318.00,1.00
5317.00,0.99
5316.00,0.98
5315.00,0.97
5314.00,0.96
5313.00,0.95
5312.00,0.94
5311.00,0.93
5310.00,0.92
5309.00,0.91
5308.00,0.91
5307.00,0.90
5306.00,0.89
5305.00,0.88
5304.00,0.87
5303.00,0.86
5302.00,0.86
5301.00,0.85
5300.00,0.84
5299.00,0.84
5298.00,0.83
5297.00,0.82
5296.00,0.82
5295.00,0.81
5294.00,0.81
5293.00,0.81
5292.00,0.80
5291.00,0.80
5290.00,0.79
5289.00,0.79
5288.00,0.79
5287.00,0.78
5286.00,0.78
5285.00,0.78
5284.00,0.78
5283.00,0.78
5282.00,0.78
5281.00,0.78
5280.00,0.78
5279.00,0.78
5278.00,0.78
5277.00,0.78
5276.00,0.78
5275.00,0.78
5274.00,0.78
5273.00,0.78
5272.00,0.78
5271.00,0.79
5270.00,0.79
5269.00,0.79
5268.00,0.79
5267.00,0.79
5266.00,0.79
5265.00,0.79
5264.00,0.79
5263.00,0.79
5262.00,0.80
5261.00,0.80
5260.00,0.80
5259.00,0.80
5258.00,0.80
5257.00,0.80
5256.00,0.80
5255.00,0.80
5254.00,0.79
5253.00,0.79
5252.00,0.79
5251.00,0.79
5250.00,0.79
5249.00,0.78
5248.00,0.78
5247.00,0.78
5246.00,0.78
5245.00,0.78
5244.00,0.77
5243.00,0.77
5242.00,0.77
5241.00,0.77
5240.00,0.76
5239.00,0.76
5238.00,0.76
5237.00,0.76
5236.00,0.75
5235.00,0.75
5234.00,0.75
5233.00,0.75
5232.00,0.75
5231.00,0.74
5230.00,0.74
5229.00,0.74
5228.00,0.74
5227.00,0.74
5226.00,0.75
5225.00,0.75
5224.00,0.75
5223.00,0.75
5222.00,0.75
5221.00,0.75
5220.00,0.76
5219.00,0.76
5218.00,0.76
5217.00,0.76
5216.00,0.76
5215.00,0.77
5214.00,0.77
5213.00,0.77
5212.00,0.77
5211.00,0.78
5210.00,0.78
5209.00,0.78
5208.00,0.78
5207.00,0.78
5206.00,0.78
5205.00,0.78
5204.00,0.78
5203.00,0.78
5202.00,0.78
5201.00,0.78
5200.00,0.78
5199.00,0.78
5198.00,0.78
5197.00,0.78
5196.00,0.78
5195.00,0.77
5194.00,0.77
5193.00,0.77
5192.00,0.77
5191.00,0.77
5190.00,0.76
5189.00,0.76
5188.00,0.76
5187.00,0.76
5186.00,0.76
5185.00,0.75
5184.00,0.75
5183.00,0.75
5182.00,0.75
5181.00,0.75
5180.00,0.75
5179.00,0.75
5178.00,0.75
5177.00,0.75
5176.00,0.75
5175.00,0.75
5174.00,0.75
5173.00,0.75
5172.00,0.75
5171.00,0.75
5170.00,0.75
5169.00,0.75
5168.00,0.75
5167.00,0.75
5166.00,0.75
5165.00,0.75
5164.00,0.75
5163.00,0.75
5162.00,0.75
5161.00,0.75
5160.00,0.75
5159.00,0.75
5158.00,0.75
5157.00,0.75
5156.00,0.75
5155.00,0.75
5154.00,0.75
5153.00,0.75
5152.00,0.75
5151.00,0.75
5150.00,0.75
5149.00,0.75
5148.00,0.75
5147.00,0.75
5146.00,0.75
5145.00,0.75
5144.00,0.75
5143.00,0.75
5142.00,0.75
5141.00,0.75
5140.00,0.75
5139.00,0.75
5138.00,0.76
5137.00,0.76
5136.00,0.76
5135.00,0.76
5134.00,0.76
5133.00,0.76
5132.00,0.77
5131.00,0.77
5130.00,0.77
5129.00,0.77
5128.00,0.78
5127.00,0.78
5126.00,0.78
5125.00,0.78
5124.00,0.79
5123.00,0.79
5122.00,0.79
5121.00,0.79
5120.00,0.80
5119.00,0.80
5118.00,0.80
5117.00,0.80
5116.00,0.80
5115.00,0.81
5114.00,0.81
5113.00,0.81
5112.00,0.81
5111.00,0.81
5110.00,0.81
5109.00,0.82
5108.00,0.82
5107.00,0.82
5106.00,0.82
5105.00,0.82
5104.00,0.82
5103.00,0.82
5102.00,0.82
5101.00,0.82
5100.00,0.82
5099.00,0.82
5098.00,0.82
5097.00,0.82
5096.00,0.83
5095.00,0.83
5094.00,0.83
5093.00,0.83
5092.00,0.83
5091.00,0.83
5090.00,0.83
5089.00,0.83
5088.00,0.83
5087.00,0.83
5086.00,0.83
5085.00,0.83
5084.00,0.83
5083.00,0.83
5082.00,0.83
5081.00,0.83
5080.00,0.83
5079.00,0.83
5078.00,0.83
5077.00,0.83
5076.00,0.83
5075.00,0.83
5074.00,0.83
5073.00,0.83
5072.00,0.83
5071.00,0.83
5070.00,0.83
5069.00,0.83
5068.00,0.82
5067.00,0.82
5066.00,0.82
5065.00,0.82
5064.00,0.82
5063.00,0.82
5062.00,0.82
5061.00,0.82
5060.00,0.82
5059.00,0.82
5058.00,0.82
5057.00,0.82
5056.00,0.82
5055.00,0.82
5054.00,0.82
5053.00,0.82
5052.00,0.83
5051.00,0.83
5050.00,0.83
5049.00,0.83
5048.00,0.83
5047.00,0.84
5046.00,0.84
5045.00,0.84
5044.00,0.85
5043.00,0.85
5042.00,0.85
5041.00,0.85
5040.00,0.86
5039.00,0.86
5038.00,0.86
5037.00,0.87
5036.00,0.87
5035.00,0.87
5034.00,0.87
5033.00,0.88
5032.00,0.88
5031.00,0.88
5030.00,0.88
5029.00,0.88
5028.00,0.88
5027.00,0.88
5026.00,0.88
5025.00,0.88
5024.00,0.88
5023.00,0.88
5022.00,0.88
5021.00,0.88
5020.00,0.88
5019.00,0.88
5018.00,0.88
5017.00,0.88
5016.00,0.88
5015.00,0.88
5014.00,0.88
5013.00,0.88
5012.00,0.88
5011.00,0.88
5010.00,0.88
5009.00,0.88
5008.00,0.88
5007.00,0.88
5006.00,0.88
5005.00,0.88
5004.00,0.88
5003.00,0.88
5002.00,0.88
5001.00,0.89
5000.00,0.89
4999.00,0.89
4998.00,0.89
4997.00,0.89
4996.00,0.90
4995.00,0.90
4994.00,0.90
4993.00,0.90
4992.00,0.90
4991.00,0.90
4990.00,0.91
4989.00,0.91
4988.00,0.91
4987.00,0.91
4986.00,0.91
4985.00,0.91
4984.00,0.91
4983.00,0.91
4982.00,0.92
4981.00,0.92
4980.00,0.92
4979.00,0.92
4978.00,0.92
4977.00,0.92
4976.00,0.92
4975.00,0.92
4974.00,0.92
4973.00,0.92
4972.00,0.92
4971.00,0.92
4970.00,0.92
4969.00,0.92
4968.00,0.92
4967.00,0.92
4966.00,0.92
4965.00,0.93
4964.00,0.93
4963.00,0.93
4962.00,0.93
4961.00,0.93
4960.00,0.94
4959.00,0.94
4958.00,0.94
4957.00,0.94
4956.00,0.94
4955.00,0.94
4954.00,0.94
4953.00,0.95
4952.00,0.95
4951.00,0.95
4950.00,0.95
4949.00,0.95
4948.00,0.95
4947.00,0.95
4946.00,0.95
4945.00,0.95
4944.00,0.95
4943.00,0.96
4942.00,0.96
4941.00,0.96
4940.00,0.96
4939.00,0.96
4938.00,0.96
4937.00,0.96
4936.00,0.96
4935.00,0.96
4934.00,0.96
4933.00,0.96
4932.00,0.96
4931.00,0.96
4930.00,0.96
4929.00,0.96
4928.00,0.96
4927.00,0.96
4926.00,0.97
4925.00,0.97
4924.00,0.97
4923.00,0.97
4922.00,0.97
4921.00,0.97
4920.00,0.98
4919.00,0.98
4918.00,0.98
4917.00,0.98
4916.00,0.98
4915.00,0.98
4914.00,0.98
4913.00,0.98
4912.00,0.98
4911.00,0.98
4910.00,0.99
4909.00,0.99
4908.00,0.99
4907.00,0.99
4906.00,0.99
4905.00,0.99
4904.00,0.99
4903.00,0.99
4902.00,0.99
4901.00,0.99
4900.00,0.99
4899.00,0.99
4898.00,0.99
4897.00,0.99
4896.00,0.99
4895.00,0.99
4894.00,0.99
4893.00,0.99
4892.00,0.99
4891.00,0.99
4890.00,0.99
4889.00,0.99
4888.00,0.99
4887.00,0.99
4886.00,0.99
4885.00,0.99
4884.00,0.99
4883.00,0.99
4882.00,0.99
4881.00,0.99
4880.00,0.99
4879.00,0.99
4878.00,1.00
4877.00,1.00
4876.00,1.00
4875.00,1.00
4874.00,1.00
4873.00,1.00
4872.00,1.00
4871.00,1.01
4870.00,1.01
4869.00,1.01
4868.00,1.01
4867.00,1.01
4866.00,1.02
4865.00,1.02
4864.00,1.02
4863.00,1.02
4862.00,1.02
4861.00,1.03
4860.00,1.03
4859.00,1.03
4858.00,1.03
4857.00,1.03
4856.00,1.03
4855.00,1.04
4854.00,1.04
4853.00,1.04
4852.00,1.04
4851.00,1.04
4850.00,1.04
4849.00,1.05
4848.00,1.05
4847.00,1.05
4846.00,1.05
4845.00,1.05
4844.00,1.05
4843.00,1.05
4842.00,1.06
4841.00,1.06
4840.00,1.06
4839.00,1.06
4838.00,1.06
4837.00,1.06
4836.00,1.06
4835.00,1.06
4834.00,1.06
4833.00,1.07
4832.00,1.07
4831.00,1.07
4830.00,1.07
4829.00,1.07
4828.00,1.07
4827.00,1.08
4826.00,1.08
4825.00,1.08
4824.00,1.08
4823.00,1.08
4822.00,1.09
4821.00,1.09
4820.00,1.09
4819.00,1.10
4818.00,1.10
4817.00,1.10
4816.00,1.10
4815.00,1.11
4814.00,1.11
4813.00,1.11
4812.00,1.12
4811.00,1.12
4810.00,1.12
4809.00,1.13
4808.00,1.13
4807.00,1.13
4806.00,1.14
4805.00,1.14
4804.00,1.14
4803.00,1.14
4802.00,1.14
4801.00,1.14
4800.00,1.15
4799.00,1.15
4798.00,1.15
4797.00,1.15
4796.00,1.15
4795.00,1.15
4794.00,1.15
4793.00,1.16
4792.00,1.16
4791.00,1.16
4790.00,1.16
4789.00,1.16
4788.00,1.16
4787.00,1.16
4786.00,1.16
4785.00,1.17
4784.00,1.17
4783.00,1.17
4782.00,1.17
4781.00,1.17
4780.00,1.18
4779.00,1.18
4778.00,1.18
4777.00,1.18
4776.00,1.19
4775.00,1.19
4774.00,1.19
4773.00,1.19
4772.00,1.20
4771.00,1.20
4770.00,1.20
4769.00,1.20
4768.00,1.20
4767.00,1.20
4766.00,1.21
4765.00,1.21
4764.00,1.21
4763.00,1.21
4762.00,1.21
4761.00,1.21
4760.00,1.21
4759.00,1.21
4758.00,1.21
4757.00,1.21
4756.00,1.21
4755.00,1.21
4754.00,1.21
4753.00,1.21
4752.00,1.21
4751.00,1.21
4750.00,1.21
4749.00,1.21
4748.00,1.21
4747.00,1.21
4746.00,1.21
4745.00,1.21
4744.00,1.21
4743.00,1.21
4742.00,1.21
4741.00,1.22
4740.00,1.22
4739.00,1.22
4738.00,1.22
4737.00,1.22
4736.00,1.22
4735.00,1.22
4734.00,1.23
4733.00,1.23
4732.00,1.23
4731.00,1.23
4730.00,1.24
4729.00,1.24
4728.00,1.24
4727.00,1.25
4726.00,1.25
4725.00,1.25
4724.00,1.26
4723.00,1.26
4722.00,1.27
4721.00,1.27
4720.00,1.27
4719.00,1.28
4718.00,1.28
4717.00,1.28
4716.00,1.29
4715.00,1.29
4714.00,1.29
4713.00,1.29
4712.00,1.30
4711.00,1.30
4710.00,1.30
4709.00,1.30
4708.00,1.31
4707.00,1.31
4706.00,1.31
4705.00,1.32
4704.00,1.32
4703.00,1.33
4702.00,1.33
4701.00,1.33
4700.00,1.33
4699.00,1.34
4698.00,1.34
4697.00,1.34
4696.00,1.34
4695.00,1.35
4694.00,1.35
4693.00,1.35
4692.00,1.35
4691.00,1.36
4690.00,1.36
4689.00,1.36
4688.00,1.37
4687.00,1.37
4686.00,1.37
4685.00,1.38
4684.00,1.38
4683.00,1.38
4682.00,1.39
4681.00,1.39
4680.00,1.39
4679.00,1.39
4678.00,1.39
4677.00,1.39
4676.00,1.40
4675.00,1.40
4674.00,1.40
4673.00,1.40
4672.00,1.40
4671.00,1.40
4670.00,1.40
4669.00,1.40
4668.00,1.40
4667.00,1.41
4666.00,1.41
4665.00,1.41
4664.00,1.41
4663.00,1.41
4662.00,1.41
4661.00,1.41
4660.00,1.42
4659.00,1.42
4658.00,1.42
4657.00,1.42
4656.00,1.43
4655.00,1.43
4654.00,1.43
4653.00,1.43
4652.00,1.43
4651.00,1.44
4650.00,1.44
4649.00,1.44
4648.00,1.44
4647.00,1.45
4646.00,1.45
4645.00,1.45
4644.00,1.45
4643.00,1.45
4642.00,1.46
4641.00,1.46
4640.00,1.46
4639.00,1.46
4638.00,1.46
4637.00,1.46
4636.00,1.46
4635.00,1.46
4634.00,1.46
4633.00,1.46
4632.00,1.45
4631.00,1.45
4630.00,1.45
4629.00,1.45
4628.00,1.45
4627.00,1.45
4626.00,1.45
4625.00,1.45
4624.00,1.45
4623.00,1.45
4622.00,1.45
4621.00,1.45
4620.00,1.45
4619.00,1.45
4618.00,1.46
4617.00,1.46
4616.00,1.46
4615.00,1.46
4614.00,1.47
4613.00,1.47
4612.00,1.47
4611.00,1.48
4610.00,1.48
4609.00,1.48
4608.00,1.49
4607.00,1.49
4606.00,1.49
4605.00,1.50
4604.00,1.50
4603.00,1.50
4602.00,1.50
4601.00,1.51
4600.00,1.51
4599.00,1.51
4598.00,1.51
4597.00,1.51
4596.00,1.51
4595.00,1.51
4594.00,1.51
4593.00,1.51
4592.00,1.51
4591.00,1.51
4590.00,1.51
4589.00,1.51
4588.00,1.50
4587.00,1.50
4586.00,1.50
4585.00,1.50
4584.00,1.50
4583.00,1.50
4582.00,1.50
4581.00,1.50
4580.00,1.50
4579.00,1.50
4578.00,1.50
4577.00,1.50
4576.00,1.50
4575.00,1.50
4574.00,1.50
4573.00,1.50
4572.00,1.51
4571.00,1.51
4570.00,1.51
4569.00,1.51
4568.00,1.51
4567.00,1.52
4566.00,1.52
4565.00,1.52
4564.00,1.52
4563.00,1.53
4562.00,1.53
4561.00,1.53
4560.00,1.53
4559.00,1.53
4558.00,1.54
4557.00,1.54
4556.00,1.54
4555.00,1.54
4554.00,1.54
4553.00,1.54
4552.00,1.54
4551.00,1.54
4550.00,1.54
4549.00,1.55
4548.00,1.55
4547.00,1.55
4546.00,1.55
4545.00,1.55
4544.00,1.55
4543.00,1.55
4542.00,1.55
4541.00,1.55
4540.00,1.55
4539.00,1.55
4538.00,1.55
4537.00,1.55
4536.00,1.55
4535.00,1.55
4534.00,1.55
4533.00,1.55
4532.00,1.55
4531.00,1.55
4530.00,1.55
4529.00,1.54
4528.00,1.54
4527.00,1.54
4526.00,1.54
4525.00,1.54
4524.00,1.54
4523.00,1.54
4522.00,1.54
4521.00,1.54
4520.00,1.54
4519.00,1.54
4518.00,1.54
4517.00,1.54
4516.00,1.54
4515.00,1.54
4514.00,1.54
4513.00,1.54
4512.00,1.54
4511.00,1.54
4510.00,1.54
4509.00,1.54
4508.00,1.54
4507.00,1.54
4506.00,1.54
4505.00,1.54
4504.00,1.54
4503.00,1.54
4502.00,1.54
4501.00,1.54
4500.00,1.53
4499.00,1.53
4498.00,1.53
4497.00,1.53
4496.00,1.53
4495.00,1.53
4494.00,1.53
4493.00,1.53
4492.00,1.53
4491.00,1.53
4490.00,1.53
4489.00,1.53
4488.00,1.53
4487.00,1.53
4486.00,1.53
4485.00,1.53
4484.00,1.53
4483.00,1.52
4482.00,1.52
4481.00,1.52
4480.00,1.52
4479.00,1.51
4478.00,1.51
4477.00,1.51
4476.00,1.50
4475.00,1.50
4474.00,1.50
4473.00,1.50
4472.00,1.49
4471.00,1.49
4470.00,1.49
4469.00,1.48
4468.00,1.48
4467.00,1.48
4466.00,1.47
4465.00,1.47
4464.00,1.46
4463.00,1.46
4462.00,1.46
4461.00,1.45
4460.00,1.45
4459.00,1.44
4458.00,1.44
4457.00,1.43
4456.00,1.43
4455.00,1.42
4454.00,1.42
4453.00,1.42
4452.00,1.41
4451.00,1.41
4450.00,1.40
4449.00,1.40
4448.00,1.40
4447.00,1.39
4446.00,1.39
4445.00,1.38
4444.00,1.38
4443.00,1.37
4442.00,1.37
4441.00,1.36
4440.00,1.35
4439.00,1.35
4438.00,1.34
4437.00,1.34
4436.00,1.33
4435.00,1.33
4434.00,1.32
4433.00,1.32
4432.00,1.31
4431.00,1.30
4430.00,1.30
4429.00,1.29
4428.00,1.29
4427.00,1.28
4426.00,1.27
4425.00,1.27
4424.00,1.26
4423.00,1.25
4422.00,1.25
4421.00,1.24
4420.00,1.24
4419.00,1.23
4418.00,1.22
4417.00,1.22
4416.00,1.22
4415.00,1.21
4414.00,1.21
4413.00,1.20
4412.00,1.20
4411.00,1.20
4410.00,1.20
4409.00,1.19
4408.00,1.19
4407.00,1.19
4406.00,1.19
4405.00,1.19
4404.00,1.19
4403.00,1.19
4402.00,1.20
4401.00,1.20
4400.00,1.20
4399.00,1.21
4398.00,1.21
4397.00,1.22
4396.00,1.22
4395.00,1.23
4394.00,1.24
4393.00,1.24
4392.00,1.25
4391.00,1.26
4390.00,1.26
4389.00,1.27
4388.00,1.27
4387.00,1.28
4386.00,1.28
4385.00,1.29
4384.00,1.29
4383.00,1.30
4382.00,1.30
4381.00,1.31
4380.00,1.31
4379.00,1.31
4378.00,1.32
4377.00,1.32
4376.00,1.32
4375.00,1.32
4374.00,1.32
4373.00,1.32
4372.00,1.32
4371.00,1.32
4370.00,1.32
4369.00,1.32
4368.00,1.32
4367.00,1.32
4366.00,1.31
4365.00,1.31
4364.00,1.31
4363.00,1.31
4362.00,1.31
4361.00,1.31
4360.00,1.31
4359.00,1.31
4358.00,1.31
4357.00,1.31
4356.00,1.31
4355.00,1.30
4354.00,1.30
4353.00,1.30
4352.00,1.30
4351.00,1.30
4350.00,1.30
4349.00,1.30
4348.00,1.31
4347.00,1.31
4346.00,1.31
4345.00,1.31
4344.00,1.31
4343.00,1.31
4342.00,1.32
4341.00,1.32
4340.00,1.32
4339.00,1.32
4338.00,1.33
4337.00,1.33
4336.00,1.33
4335.00,1.33
4334.00,1.33
4333.00,1.33
4332.00,1.33
4331.00,1.33
4330.00,1.33
4329.00,1.33
4328.00,1.33
4327.00,1.33
4326.00,1.34
4325.00,1.34
4324.00,1.34
4323.00,1.34
4322.00,1.34
4321.00,1.34
4320.00,1.34
4319.00,1.35
4318.00,1.35
4317.00,1.35
4316.00,1.35
4315.00,1.35
4314.00,1.35
4313.00,1.35
4312.00,1.35
4311.00,1.35
4310.00,1.35
4309.00,1.35
4308.00,1.36
4307.00,1.36
4306.00,1.36
4305.00,1.37
4304.00,1.37
4303.00,1.38
4302.00,1.38
4301.00,1.38
4300.00,1.39
4299.00,1.39
4298.00,1.39
4297.00,1.39
4296.00,1.40
4295.00,1.40
4294.00,1.40
4293.00,1.41
4292.00,1.41
4291.00,1.41
4290.00,1.42
4289.00,1.42
4288.00,1.43
4287.00,1.43
4286.00,1.44
4285.00,1.44
4284.00,1.45
4283.00,1.45
4282.00,1.45
4281.00,1.45
4280.00,1.46
4279.00,1.46
4278.00,1.46
4277.00,1.46
4276.00,1.47
4275.00,1.47
4274.00,1.47
4273.00,1.48
4272.00,1.48
4271.00,1.48
4270.00,1.48
4269.00,1.49
4268.00,1.49
4267.00,1.49
4266.00,1.49
4265.00,1.50
4264.00,1.50
4263.00,1.50
4262.00,1.50
4261.00,1.51
4260.00,1.51
4259.00,1.51
4258.00,1.51
4257.00,1.50
4256.00,1.50
4255.00,1.50
4254.00,1.50
4253.00,1.50
4252.00,1.50
4251.00,1.50
4250.00,1.49
4249.00,1.49
4248.00,1.49
4247.00,1.49
4246.00,1.48
4245.00,1.48
4244.00,1.48
4243.00,1.47
4242.00,1.47
4241.00,1.47
4240.00,1.47
4239.00,1.46
4238.00,1.46
4237.00,1.46
4236.00,1.45
4235.00,1.45
4234.00,1.45
4233.00,1.45
4232.00,1.45
4231.00,1.45
4230.00,1.46
4229.00,1.46
4228.00,1.46
4227.00,1.46
4226.00,1.46
4225.00,1.47
4224.00,1.47
4223.00,1.47
4222.00,1.47
4221.00,1.48
4220.00,1.48
4219.00,1.48
4218.00,1.48
4217.00,1.49
4216.00,1.49
4215.00,1.49
4214.00,1.49
4213.00,1.50
4212.00,1.50
4211.00,1.50
4210.00,1.50
4209.00,1.51
4208.00,1.51
4207.00,1.51
4206.00,1.51
4205.00,1.51
4204.00,1.50
4203.00,1.50
4202.00,1.50
4201.00,1.50
4200.00,1.50
4199.00,1.50
4198.00,1.50
4197.00,1.50
4196.00,1.50
4195.00,1.50
4194.00,1.50
4193.00,1.50
4192.00,1.50
4191.00,1.50
4190.00,1.51
4189.00,1.51
4188.00,1.51
4187.00,1.51
4186.00,1.51
4185.00,1.51
4184.00,1.51
4183.00,1.51
4182.00,1.51
4181.00,1.51
4180.00,1.51
4179.00,1.52
4178.00,1.52
4177.00,1.52
4176.00,1.52
4175.00,1.52
4174.00,1.53
4173.00,1.53
4172.00,1.53
4171.00,1.54
4170.00,1.54
4169.00,1.54
4168.00,1.54
4167.00,1.54
4166.00,1.55
4165.00,1.55
4164.00,1.55
4163.00,1.55
4162.00,1.55
4161.00,1.55
4160.00,1.55
4159.00,1.55
4158.00,1.55
4157.00,1.56
4156.00,1.56
4155.00,1.56
4154.00,1.56
4153.00,1.57
4152.00,1.57
4151.00,1.57
4150.00,1.57
4149.00,1.57
4148.00,1.57
4147.00,1.57
4146.00,1.57
4145.00,1.57
4144.00,1.57
4143.00,1.56
4142.00,1.56
4141.00,1.56
4140.00,1.56
4139.00,1.56
4138.00,1.55
4137.00,1.55
4136.00,1.55
4135.00,1.55
4134.00,1.55
4133.00,1.54
4132.00,1.54
4131.00,1.54
4130.00,1.53
4129.00,1.53
4128.00,1.52
4127.00,1.52
4126.00,1.51
4125.00,1.51
4124.00,1.50
4123.00,1.50
4122.00,1.49
4121.00,1.49
4120.00,1.48
4119.00,1.48
4118.00,1.47
4117.00,1.47
4116.00,1.47
4115.00,1.46
4114.00,1.46
4113.00,1.46
4112.00,1.45
4111.00,1.45
4110.00,1.44
4109.00,1.44
4108.00,1.44
4107.00,1.43
4106.00,1.43
4105.00,1.43
4104.00,1.43
4103.00,1.43
4102.00,1.42
4101.00,1.42
4100.00,1.42
4099.00,1.42
4098.00,1.42
4097.00,1.42
4096.00,1.42
4095.00,1.42
4094.00,1.42
4093.00,1.43
4092.00,1.43
4091.00,1.43
4090.00,1.43
4089.00,1.43
4088.00,1.44
4087.00,1.44
4086.00,1.44
4085.00,1.44
4084.00,1.45
4083.00,1.45
4082.00,1.46
4081.00,1.46
4080.00,1.47
4079.00,1.47
4078.00,1.48
4077.00,1.49
4076.00,1.50
4075.00,1.50
4074.00,1.51
4073.00,1.52
4072.00,1.52
4071.00,1.53
4070.00,1.54
4069.00,1.54
4068.00,1.55
4067.00,1.56
4066.00,1.56
4065.00,1.57
4064.00,1.57
4063.00,1.58
4062.00,1.58
4061.00,1.58
4060.00,1.59
4059.00,1.59
4058.00,1.60
4057.00,1.60
4056.00,1.60
4055.00,1.60
4054.00,1.61
4053.00,1.61
4052.00,1.61
4051.00,1.61
4050.00,1.61
4049.00,1.61
4048.00,1.61
4047.00,1.61
4046.00,1.62
4045.00,1.62
4044.00,1.62
4043.00,1.62
4042.00,1.63
4041.00,1.63
4040.00,1.64
4039.00,1.64
4038.00,1.64
4037.00,1.65
4036.00,1.65
4035.00,1.65
4034.00,1.66
4033.00,1.66
4032.00,1.66
4031.00,1.66
4030.00,1.66
4029.00,1.67
4028.00,1.67
4027.00,1.67
4026.00,1.67
4025.00,1.67
4024.00,1.67
4023.00,1.67
4022.00,1.67
4021.00,1.67
4020.00,1.68
4019.00,1.68
4018.00,1.68
4017.00,1.68
4016.00,1.68
4015.00,1.68
4014.00,1.68
4013.00,1.69
4012.00,1.69
4011.00,1.69
4010.00,1.70
4009.00,1.70
4008.00,1.71
4007.00,1.71
4006.00,1.72
4005.00,1.73
4004.00,1.73
4003.00,1.74
4002.00,1.75
4001.00,1.76
4000.00,1.77
