创建为新数据集,样品 1247 用户 Administrator 日期 星期六, 八月 17 2019
cm-1,%T
10000.00,1.83
9998.00,1.83
9996.00,1.83
9994.00,1.83
9992.00,1.83
9990.00,1.83
9988.00,1.83
9986.00,1.83
9984.00,1.83
9982.00,1.83
9980.00,1.83
9978.00,1.82
9976.00,1.82
9974.00,1.82
9972.00,1.82
9970.00,1.82
9968.00,1.82
9966.00,1.82
9964.00,1.82
9962.00,1.81
9960.00,1.81
9958.00,1.81
9956.00,1.81
9954.00,1.81
9952.00,1.81
9950.00,1.81
9948.00,1.81
9946.00,1.81
9944.00,1.81
9942.00,1.81
9940.00,1.81
9938.00,1.81
9936.00,1.81
9934.00,1.81
9932.00,1.81
9930.00,1.81
9928.00,1.82
9926.00,1.82
9924.00,1.82
9922.00,1.82
9920.00,1.82
9918.00,1.82
9916.00,1.82
9914.00,1.82
9912.00,1.82
9910.00,1.82
9908.00,1.82
9906.00,1.82
9904.00,1.82
9902.00,1.82
9900.00,1.82
9898.00,1.81
9896.00,1.81
9894.00,1.81
9892.00,1.81
9890.00,1.81
9888.00,1.81
9886.00,1.81
9884.00,1.81
9882.00,1.81
9880.00,1.81
9878.00,1.81
9876.00,1.81
9874.00,1.81
9872.00,1.81
9870.00,1.81
9868.00,1.81
9866.00,1.81
9864.00,1.81
9862.00,1.81
9860.00,1.81
9858.00,1.81
9856.00,1.81
9854.00,1.81
9852.00,1.81
9850.00,1.81
9848.00,1.81
9846.00,1.81
9844.00,1.81
9842.00,1.81
9840.00,1.81
9838.00,1.81
9836.00,1.81
9834.00,1.81
9832.00,1.81
9830.00,1.81
9828.00,1.81
9826.00,1.81
9824.00,1.81
9822.00,1.81
9820.00,1.80
9818.00,1.80
9816.00,1.80
9814.00,1.80
9812.00,1.80
9810.00,1.80
9808.00,1.80
9806.00,1.81
9804.00,1.81
9802.00,1.81
9800.00,1.81
9798.00,1.81
9796.00,1.81
9794.00,1.81
9792.00,1.81
9790.00,1.81
9788.00,1.81
9786.00,1.82
9784.00,1.82
9782.00,1.82
9780.00,1.82
9778.00,1.82
9776.00,1.82
9774.00,1.82
9772.00,1.82
9770.00,1.82
9768.00,1.82
9766.00,1.82
9764.00,1.82
9762.00,1.82
9760.00,1.82
9758.00,1.82
9756.00,1.82
9754.00,1.82
9752.00,1.82
9750.00,1.82
9748.00,1.82
9746.00,1.82
9744.00,1.81
9742.00,1.81
9740.00,1.81
9738.00,1.81
9736.00,1.81
9734.00,1.81
9732.00,1.81
9730.00,1.81
9728.00,1.81
9726.00,1.81
9724.00,1.81
9722.00,1.81
9720.00,1.81
9718.00,1.81
9716.00,1.81
9714.00,1.81
9712.00,1.81
9710.00,1.81
9708.00,1.81
9706.00,1.81
9704.00,1.81
9702.00,1.81
9700.00,1.81
9698.00,1.81
9696.00,1.81
9694.00,1.81
9692.00,1.81
9690.00,1.80
9688.00,1.80
9686.00,1.80
9684.00,1.80
9682.00,1.80
9680.00,1.80
9678.00,1.80
9676.00,1.80
9674.00,1.80
9672.00,1.80
9670.00,1.80
9668.00,1.80
9666.00,1.80
9664.00,1.80
9662.00,1.80
9660.00,1.80
9658.00,1.80
9656.00,1.80
9654.00,1.80
9652.00,1.80
9650.00,1.79
9648.00,1.79
9646.00,1.79
9644.00,1.79
9642.00,1.79
9640.00,1.79
9638.00,1.79
9636.00,1.79
9634.00,1.79
9632.00,1.79
9630.00,1.79
9628.00,1.79
9626.00,1.79
9624.00,1.79
9622.00,1.79
9620.00,1.79
9618.00,1.79
9616.00,1.80
9614.00,1.80
9612.00,1.80
9610.00,1.80
9608.00,1.80
9606.00,1.80
9604.00,1.81
9602.00,1.81
9600.00,1.81
9598.00,1.81
9596.00,1.81
9594.00,1.81
9592.00,1.81
9590.00,1.81
9588.00,1.81
9586.00,1.81
9584.00,1.81
9582.00,1.81
9580.00,1.80
9578.00,1.80
9576.00,1.80
9574.00,1.80
9572.00,1.80
9570.00,1.79
9568.00,1.79
9566.00,1.79
9564.00,1.79
9562.00,1.79
9560.00,1.79
9558.00,1.79
9556.00,1.79
9554.00,1.79
9552.00,1.79
9550.00,1.79
9548.00,1.79
9546.00,1.79
9544.00,1.79
9542.00,1.80
9540.00,1.80
9538.00,1.80
9536.00,1.80
9534.00,1.80
9532.00,1.80
9530.00,1.81
9528.00,1.81
9526.00,1.81
9524.00,1.81
9522.00,1.81
9520.00,1.81
9518.00,1.81
9516.00,1.82
9514.00,1.82
9512.00,1.82
9510.00,1.82
9508.00,1.82
9506.00,1.82
9504.00,1.82
9502.00,1.82
9500.00,1.82
9498.00,1.82
9496.00,1.82
9494.00,1.82
9492.00,1.82
9490.00,1.81
9488.00,1.81
9486.00,1.81
9484.00,1.81
9482.00,1.82
9480.00,1.82
9478.00,1.82
9476.00,1.82
9474.00,1.82
9472.00,1.82
9470.00,1.82
9468.00,1.82
9466.00,1.82
9464.00,1.82
9462.00,1.82
9460.00,1.82
9458.00,1.82
9456.00,1.81
9454.00,1.81
9452.00,1.81
9450.00,1.81
9448.00,1.81
9446.00,1.81
9444.00,1.81
9442.00,1.81
9440.00,1.80
9438.00,1.80
9436.00,1.80
9434.00,1.80
9432.00,1.80
9430.00,1.80
9428.00,1.79
9426.00,1.79
9424.00,1.79
9422.00,1.79
9420.00,1.79
9418.00,1.79
9416.00,1.79
9414.00,1.79
9412.00,1.79
9410.00,1.79
9408.00,1.79
9406.00,1.79
9404.00,1.80
9402.00,1.80
9400.00,1.80
9398.00,1.80
9396.00,1.80
9394.00,1.80
9392.00,1.80
9390.00,1.80
9388.00,1.80
9386.00,1.80
9384.00,1.80
9382.00,1.80
9380.00,1.80
9378.00,1.80
9376.00,1.80
9374.00,1.80
9372.00,1.80
9370.00,1.80
9368.00,1.80
9366.00,1.80
9364.00,1.80
9362.00,1.80
9360.00,1.79
9358.00,1.79
9356.00,1.79
9354.00,1.79
9352.00,1.79
9350.00,1.79
9348.00,1.79
9346.00,1.79
9344.00,1.79
9342.00,1.79
9340.00,1.79
9338.00,1.79
9336.00,1.80
9334.00,1.80
9332.00,1.80
9330.00,1.80
9328.00,1.80
9326.00,1.80
9324.00,1.80
9322.00,1.80
9320.00,1.80
9318.00,1.80
9316.00,1.80
9314.00,1.80
9312.00,1.80
9310.00,1.80
9308.00,1.80
9306.00,1.80
9304.00,1.80
9302.00,1.80
9300.00,1.80
9298.00,1.80
9296.00,1.80
9294.00,1.80
9292.00,1.80
9290.00,1.80
9288.00,1.80
9286.00,1.80
9284.00,1.80
9282.00,1.80
9280.00,1.80
9278.00,1.80
9276.00,1.80
9274.00,1.80
9272.00,1.80
9270.00,1.80
9268.00,1.80
9266.00,1.80
9264.00,1.80
9262.00,1.80
9260.00,1.80
9258.00,1.80
9256.00,1.80
9254.00,1.80
9252.00,1.80
9250.00,1.80
9248.00,1.80
9246.00,1.80
9244.00,1.80
9242.00,1.80
9240.00,1.80
9238.00,1.80
9236.00,1.80
9234.00,1.80
9232.00,1.80
9230.00,1.80
9228.00,1.80
9226.00,1.80
9224.00,1.80
9222.00,1.80
9220.00,1.80
9218.00,1.79
9216.00,1.79
9214.00,1.79
9212.00,1.79
9210.00,1.79
9208.00,1.79
9206.00,1.79
9204.00,1.79
9202.00,1.79
9200.00,1.79
9198.00,1.79
9196.00,1.79
9194.00,1.79
9192.00,1.79
9190.00,1.79
9188.00,1.80
9186.00,1.80
9184.00,1.80
9182.00,1.80
9180.00,1.80
9178.00,1.80
9176.00,1.80
9174.00,1.80
9172.00,1.80
9170.00,1.80
9168.00,1.80
9166.00,1.80
9164.00,1.80
9162.00,1.80
9160.00,1.80
9158.00,1.80
9156.00,1.80
9154.00,1.80
9152.00,1.80
9150.00,1.80
9148.00,1.80
9146.00,1.80
9144.00,1.80
9142.00,1.80
9140.00,1.80
9138.00,1.80
9136.00,1.80
9134.00,1.80
9132.00,1.80
9130.00,1.80
9128.00,1.80
9126.00,1.80
9124.00,1.80
9122.00,1.80
9120.00,1.80
9118.00,1.80
9116.00,1.80
9114.00,1.80
9112.00,1.80
9110.00,1.80
9108.00,1.80
9106.00,1.80
9104.00,1.80
9102.00,1.80
9100.00,1.79
9098.00,1.79
9096.00,1.79
9094.00,1.79
9092.00,1.79
9090.00,1.79
9088.00,1.79
9086.00,1.79
9084.00,1.79
9082.00,1.79
9080.00,1.79
9078.00,1.79
9076.00,1.79
9074.00,1.79
9072.00,1.79
9070.00,1.79
9068.00,1.79
9066.00,1.79
9064.00,1.79
9062.00,1.79
9060.00,1.79
9058.00,1.79
9056.00,1.79
9054.00,1.80
9052.00,1.80
9050.00,1.80
9048.00,1.80
9046.00,1.80
9044.00,1.80
9042.00,1.80
9040.00,1.80
9038.00,1.80
9036.00,1.81
9034.00,1.81
9032.00,1.81
9030.00,1.81
9028.00,1.81
9026.00,1.81
9024.00,1.81
9022.00,1.81
9020.00,1.81
9018.00,1.81
9016.00,1.81
9014.00,1.81
9012.00,1.81
9010.00,1.81
9008.00,1.81
9006.00,1.81
9004.00,1.81
9002.00,1.81
9000.00,1.81
8998.00,1.81
8996.00,1.81
8994.00,1.81
8992.00,1.81
8990.00,1.81
8988.00,1.81
8986.00,1.81
8984.00,1.81
8982.00,1.81
8980.00,1.81
8978.00,1.81
8976.00,1.81
8974.00,1.81
8972.00,1.81
8970.00,1.81
8968.00,1.80
8966.00,1.80
8964.00,1.80
8962.00,1.80
8960.00,1.80
8958.00,1.80
8956.00,1.80
8954.00,1.80
8952.00,1.80
8950.00,1.80
8948.00,1.79
8946.00,1.79
8944.00,1.79
8942.00,1.79
8940.00,1.79
8938.00,1.79
8936.00,1.79
8934.00,1.79
8932.00,1.80
8930.00,1.80
8928.00,1.80
8926.00,1.80
8924.00,1.80
8922.00,1.80
8920.00,1.80
8918.00,1.80
8916.00,1.80
8914.00,1.80
8912.00,1.80
8910.00,1.80
8908.00,1.80
8906.00,1.80
8904.00,1.80
8902.00,1.80
8900.00,1.80
8898.00,1.80
8896.00,1.80
8894.00,1.80
8892.00,1.80
8890.00,1.79
8888.00,1.79
8886.00,1.79
8884.00,1.79
8882.00,1.79
8880.00,1.79
8878.00,1.79
8876.00,1.79
8874.00,1.79
8872.00,1.79
8870.00,1.79
8868.00,1.79
8866.00,1.79
8864.00,1.79
8862.00,1.79
8860.00,1.79
8858.00,1.79
8856.00,1.79
8854.00,1.79
8852.00,1.79
8850.00,1.79
8848.00,1.79
8846.00,1.79
8844.00,1.79
8842.00,1.79
8840.00,1.79
8838.00,1.79
8836.00,1.79
8834.00,1.79
8832.00,1.79
8830.00,1.79
8828.00,1.79
8826.00,1.79
8824.00,1.79
8822.00,1.79
8820.00,1.79
8818.00,1.79
8816.00,1.80
8814.00,1.80
8812.00,1.80
8810.00,1.80
8808.00,1.80
8806.00,1.80
8804.00,1.80
8802.00,1.80
8800.00,1.80
8798.00,1.80
8796.00,1.80
8794.00,1.80
8792.00,1.80
8790.00,1.80
8788.00,1.80
8786.00,1.80
8784.00,1.80
8782.00,1.80
8780.00,1.80
8778.00,1.80
8776.00,1.80
8774.00,1.80
8772.00,1.80
8770.00,1.80
8768.00,1.80
8766.00,1.80
8764.00,1.80
8762.00,1.80
8760.00,1.80
8758.00,1.80
8756.00,1.80
8754.00,1.80
8752.00,1.80
8750.00,1.80
8748.00,1.80
8746.00,1.80
8744.00,1.80
8742.00,1.80
8740.00,1.80
8738.00,1.80
8736.00,1.80
8734.00,1.80
8732.00,1.80
8730.00,1.80
8728.00,1.80
8726.00,1.80
8724.00,1.80
8722.00,1.80
8720.00,1.79
8718.00,1.79
8716.00,1.79
8714.00,1.79
8712.00,1.79
8710.00,1.79
8708.00,1.79
8706.00,1.79
8704.00,1.79
8702.00,1.79
8700.00,1.79
8698.00,1.79
8696.00,1.79
8694.00,1.79
8692.00,1.79
8690.00,1.79
8688.00,1.79
8686.00,1.79
8684.00,1.79
8682.00,1.79
8680.00,1.79
8678.00,1.79
8676.00,1.79
8674.00,1.79
8672.00,1.79
8670.00,1.79
8668.00,1.78
8666.00,1.78
8664.00,1.78
8662.00,1.78
8660.00,1.78
8658.00,1.78
8656.00,1.78
8654.00,1.78
8652.00,1.78
8650.00,1.78
8648.00,1.78
8646.00,1.78
8644.00,1.78
8642.00,1.78
8640.00,1.78
8638.00,1.78
8636.00,1.78
8634.00,1.78
8632.00,1.78
8630.00,1.78
8628.00,1.78
8626.00,1.78
8624.00,1.78
8622.00,1.78
8620.00,1.78
8618.00,1.78
8616.00,1.78
8614.00,1.78
8612.00,1.78
8610.00,1.78
8608.00,1.78
8606.00,1.77
8604.00,1.77
8602.00,1.77
8600.00,1.77
8598.00,1.77
8596.00,1.77
8594.00,1.77
8592.00,1.77
8590.00,1.77
8588.00,1.77
8586.00,1.77
8584.00,1.77
8582.00,1.77
8580.00,1.77
8578.00,1.77
8576.00,1.77
8574.00,1.77
8572.00,1.77
8570.00,1.77
8568.00,1.77
8566.00,1.77
8564.00,1.77
8562.00,1.77
8560.00,1.77
8558.00,1.76
8556.00,1.76
8554.00,1.76
8552.00,1.76
8550.00,1.76
8548.00,1.76
8546.00,1.77
8544.00,1.77
8542.00,1.77
8540.00,1.77
8538.00,1.77
8536.00,1.77
8534.00,1.77
8532.00,1.76
8530.00,1.76
8528.00,1.76
8526.00,1.76
8524.00,1.76
8522.00,1.76
8520.00,1.76
8518.00,1.76
8516.00,1.76
8514.00,1.76
8512.00,1.76
8510.00,1.76
8508.00,1.76
8506.00,1.76
8504.00,1.75
8502.00,1.75
8500.00,1.75
8498.00,1.75
8496.00,1.75
8494.00,1.75
8492.00,1.75
8490.00,1.75
8488.00,1.75
8486.00,1.75
8484.00,1.75
8482.00,1.75
8480.00,1.75
8478.00,1.75
8476.00,1.75
8474.00,1.75
8472.00,1.75
8470.00,1.75
8468.00,1.75
8466.00,1.75
8464.00,1.75
8462.00,1.75
8460.00,1.75
8458.00,1.75
8456.00,1.75
8454.00,1.75
8452.00,1.75
8450.00,1.75
8448.00,1.75
8446.00,1.74
8444.00,1.74
8442.00,1.74
8440.00,1.74
8438.00,1.74
8436.00,1.74
8434.00,1.74
8432.00,1.74
8430.00,1.74
8428.00,1.74
8426.00,1.74
8424.00,1.74
8422.00,1.74
8420.00,1.74
8418.00,1.74
8416.00,1.74
8414.00,1.74
8412.00,1.74
8410.00,1.74
8408.00,1.74
8406.00,1.74
8404.00,1.74
8402.00,1.74
8400.00,1.74
8398.00,1.74
8396.00,1.75
8394.00,1.75
8392.00,1.75
8390.00,1.75
8388.00,1.75
8386.00,1.75
8384.00,1.75
8382.00,1.75
8380.00,1.75
8378.00,1.75
8376.00,1.75
8374.00,1.75
8372.00,1.75
8370.00,1.75
8368.00,1.75
8366.00,1.75
8364.00,1.75
8362.00,1.75
8360.00,1.75
8358.00,1.75
8356.00,1.75
8354.00,1.75
8352.00,1.75
8350.00,1.75
8348.00,1.75
8346.00,1.75
8344.00,1.75
8342.00,1.75
8340.00,1.75
8338.00,1.75
8336.00,1.75
8334.00,1.75
8332.00,1.75
8330.00,1.75
8328.00,1.75
8326.00,1.75
8324.00,1.75
8322.00,1.75
8320.00,1.76
8318.00,1.76
8316.00,1.76
8314.00,1.76
8312.00,1.76
8310.00,1.76
8308.00,1.76
8306.00,1.76
8304.00,1.76
8302.00,1.76
8300.00,1.76
8298.00,1.76
8296.00,1.76
8294.00,1.76
8292.00,1.76
8290.00,1.76
8288.00,1.76
8286.00,1.76
8284.00,1.76
8282.00,1.76
8280.00,1.76
8278.00,1.76
8276.00,1.76
8274.00,1.77
8272.00,1.77
8270.00,1.77
8268.00,1.77
8266.00,1.77
8264.00,1.77
8262.00,1.77
8260.00,1.77
8258.00,1.77
8256.00,1.77
8254.00,1.77
8252.00,1.77
8250.00,1.77
8248.00,1.77
8246.00,1.77
8244.00,1.77
8242.00,1.77
8240.00,1.77
8238.00,1.77
8236.00,1.77
8234.00,1.77
8232.00,1.77
8230.00,1.77
8228.00,1.77
8226.00,1.77
8224.00,1.78
8222.00,1.78
8220.00,1.78
8218.00,1.78
8216.00,1.78
8214.00,1.78
8212.00,1.78
8210.00,1.78
8208.00,1.78
8206.00,1.78
8204.00,1.79
8202.00,1.79
8200.00,1.79
8198.00,1.79
8196.00,1.79
8194.00,1.79
8192.00,1.79
8190.00,1.79
8188.00,1.78
8186.00,1.78
8184.00,1.78
8182.00,1.78
8180.00,1.78
8178.00,1.78
8176.00,1.78
8174.00,1.78
8172.00,1.78
8170.00,1.78
8168.00,1.78
8166.00,1.78
8164.00,1.78
8162.00,1.78
8160.00,1.77
8158.00,1.77
8156.00,1.77
8154.00,1.77
8152.00,1.77
8150.00,1.77
8148.00,1.77
8146.00,1.77
8144.00,1.77
8142.00,1.77
8140.00,1.77
8138.00,1.77
8136.00,1.78
8134.00,1.78
8132.00,1.78
8130.00,1.78
8128.00,1.78
8126.00,1.78
8124.00,1.78
8122.00,1.78
8120.00,1.78
8118.00,1.79
8116.00,1.79
8114.00,1.79
8112.00,1.79
8110.00,1.79
8108.00,1.79
8106.00,1.79
8104.00,1.79
8102.00,1.79
8100.00,1.79
8098.00,1.79
8096.00,1.79
8094.00,1.79
8092.00,1.80
8090.00,1.80
8088.00,1.80
8086.00,1.80
8084.00,1.80
8082.00,1.80
8080.00,1.80
8078.00,1.80
8076.00,1.80
8074.00,1.80
8072.00,1.80
8070.00,1.80
8068.00,1.80
8066.00,1.80
8064.00,1.80
8062.00,1.80
8060.00,1.80
8058.00,1.80
8056.00,1.80
8054.00,1.80
8052.00,1.80
8050.00,1.80
8048.00,1.80
8046.00,1.80
8044.00,1.80
8042.00,1.80
8040.00,1.80
8038.00,1.80
8036.00,1.81
8034.00,1.81
8032.00,1.81
8030.00,1.81
8028.00,1.81
8026.00,1.81
8024.00,1.81
8022.00,1.81
8020.00,1.81
8018.00,1.81
8016.00,1.81
8014.00,1.81
8012.00,1.81
8010.00,1.81
8008.00,1.81
8006.00,1.81
8004.00,1.81
8002.00,1.81
8000.00,1.81
7998.00,1.81
7996.00,1.81
7994.00,1.81
7992.00,1.81
7990.00,1.81
7988.00,1.81
7986.00,1.81
7984.00,1.81
7982.00,1.81
7980.00,1.81
7978.00,1.81
7976.00,1.81
7974.00,1.81
7972.00,1.81
7970.00,1.81
7968.00,1.81
7966.00,1.81
7964.00,1.81
7962.00,1.81
7960.00,1.81
7958.00,1.80
7956.00,1.80
7954.00,1.80
7952.00,1.80
7950.00,1.80
7948.00,1.80
7946.00,1.80
7944.00,1.80
7942.00,1.80
7940.00,1.80
7938.00,1.80
7936.00,1.80
7934.00,1.80
7932.00,1.80
7930.00,1.80
7928.00,1.80
7926.00,1.80
7924.00,1.80
7922.00,1.80
7920.00,1.80
7918.00,1.80
7916.00,1.80
7914.00,1.80
7912.00,1.80
7910.00,1.80
7908.00,1.80
7906.00,1.80
7904.00,1.80
7902.00,1.80
7900.00,1.80
7898.00,1.80
7896.00,1.80
7894.00,1.80
7892.00,1.80
7890.00,1.80
7888.00,1.80
7886.00,1.80
7884.00,1.81
7882.00,1.81
7880.00,1.81
7878.00,1.81
7876.00,1.81
7874.00,1.81
7872.00,1.81
7870.00,1.81
7868.00,1.81
7866.00,1.81
7864.00,1.81
7862.00,1.81
7860.00,1.81
7858.00,1.81
7856.00,1.81
7854.00,1.81
7852.00,1.81
7850.00,1.81
7848.00,1.81
7846.00,1.81
7844.00,1.81
7842.00,1.81
7840.00,1.81
7838.00,1.81
7836.00,1.81
7834.00,1.81
7832.00,1.82
7830.00,1.82
7828.00,1.82
7826.00,1.82
7824.00,1.82
7822.00,1.82
7820.00,1.82
7818.00,1.82
7816.00,1.82
7814.00,1.82
7812.00,1.82
7810.00,1.82
7808.00,1.81
7806.00,1.81
7804.00,1.81
7802.00,1.81
7800.00,1.81
7798.00,1.81
7796.00,1.81
7794.00,1.81
7792.00,1.81
7790.00,1.81
7788.00,1.81
7786.00,1.81
7784.00,1.81
7782.00,1.81
7780.00,1.81
7778.00,1.81
7776.00,1.81
7774.00,1.81
7772.00,1.81
7770.00,1.81
7768.00,1.81
7766.00,1.81
7764.00,1.81
7762.00,1.81
7760.00,1.81
7758.00,1.81
7756.00,1.81
7754.00,1.81
7752.00,1.81
7750.00,1.82
7748.00,1.82
7746.00,1.82
7744.00,1.82
7742.00,1.82
7740.00,1.82
7738.00,1.82
7736.00,1.82
7734.00,1.82
7732.00,1.82
7730.00,1.82
7728.00,1.82
7726.00,1.82
7724.00,1.82
7722.00,1.82
7720.00,1.82
7718.00,1.82
7716.00,1.82
7714.00,1.82
7712.00,1.82
7710.00,1.82
7708.00,1.82
7706.00,1.82
7704.00,1.82
7702.00,1.82
7700.00,1.82
7698.00,1.82
7696.00,1.82
7694.00,1.82
7692.00,1.82
7690.00,1.82
7688.00,1.82
7686.00,1.82
7684.00,1.82
7682.00,1.82
7680.00,1.82
7678.00,1.82
7676.00,1.82
7674.00,1.82
7672.00,1.82
7670.00,1.82
7668.00,1.82
7666.00,1.82
7664.00,1.82
7662.00,1.82
7660.00,1.82
7658.00,1.82
7656.00,1.82
7654.00,1.82
7652.00,1.82
7650.00,1.82
7648.00,1.82
7646.00,1.82
7644.00,1.82
7642.00,1.82
7640.00,1.82
7638.00,1.82
7636.00,1.82
7634.00,1.82
7632.00,1.82
7630.00,1.83
7628.00,1.83
7626.00,1.83
7624.00,1.83
7622.00,1.83
7620.00,1.83
7618.00,1.83
7616.00,1.83
7614.00,1.83
7612.00,1.83
7610.00,1.83
7608.00,1.83
7606.00,1.83
7604.00,1.83
7602.00,1.83
7600.00,1.83
7598.00,1.83
7596.00,1.82
7594.00,1.82
7592.00,1.82
7590.00,1.82
7588.00,1.82
7586.00,1.82
7584.00,1.82
7582.00,1.82
7580.00,1.82
7578.00,1.82
7576.00,1.82
7574.00,1.82
7572.00,1.82
7570.00,1.82
7568.00,1.82
7566.00,1.82
7564.00,1.82
7562.00,1.82
7560.00,1.82
7558.00,1.82
7556.00,1.82
7554.00,1.82
7552.00,1.82
7550.00,1.82
7548.00,1.82
7546.00,1.81
7544.00,1.81
7542.00,1.81
7540.00,1.81
7538.00,1.81
7536.00,1.82
7534.00,1.82
7532.00,1.82
7530.00,1.82
7528.00,1.82
7526.00,1.82
7524.00,1.82
7522.00,1.82
7520.00,1.82
7518.00,1.82
7516.00,1.82
7514.00,1.82
7512.00,1.82
7510.00,1.82
7508.00,1.82
7506.00,1.82
7504.00,1.82
7502.00,1.82
7500.00,1.81
7498.00,1.81
7496.00,1.81
7494.00,1.81
7492.00,1.81
7490.00,1.81
7488.00,1.81
7486.00,1.81
7484.00,1.81
7482.00,1.81
7480.00,1.81
7478.00,1.81
7476.00,1.81
7474.00,1.80
7472.00,1.80
7470.00,1.80
7468.00,1.80
7466.00,1.80
7464.00,1.80
7462.00,1.80
7460.00,1.80
7458.00,1.80
7456.00,1.80
7454.00,1.80
7452.00,1.80
7450.00,1.80
7448.00,1.80
7446.00,1.80
7444.00,1.80
7442.00,1.80
7440.00,1.80
7438.00,1.80
7436.00,1.80
7434.00,1.80
7432.00,1.80
7430.00,1.80
7428.00,1.80
7426.00,1.80
7424.00,1.80
7422.00,1.80
7420.00,1.79
7418.00,1.79
7416.00,1.79
7414.00,1.79
7412.00,1.79
7410.00,1.79
7408.00,1.79
7406.00,1.79
7404.00,1.79
7402.00,1.79
7400.00,1.79
7398.00,1.78
7396.00,1.78
7394.00,1.78
7392.00,1.78
7390.00,1.78
7388.00,1.78
7386.00,1.78
7384.00,1.78
7382.00,1.78
7380.00,1.78
7378.00,1.78
7376.00,1.78
7374.00,1.78
7372.00,1.78
7370.00,1.78
7368.00,1.78
7366.00,1.78
7364.00,1.78
7362.00,1.78
7360.00,1.78
7358.00,1.78
7356.00,1.78
7354.00,1.78
7352.00,1.78
7350.00,1.78
7348.00,1.78
7346.00,1.78
7344.00,1.78
7342.00,1.78
7340.00,1.78
7338.00,1.78
7336.00,1.78
7334.00,1.78
7332.00,1.78
7330.00,1.78
7328.00,1.78
7326.00,1.78
7324.00,1.78
7322.00,1.78
7320.00,1.78
7318.00,1.78
7316.00,1.78
7314.00,1.78
7312.00,1.77
7310.00,1.77
7308.00,1.77
7306.00,1.77
7304.00,1.77
7302.00,1.77
7300.00,1.77
7298.00,1.76
7296.00,1.76
7294.00,1.76
7292.00,1.76
7290.00,1.76
7288.00,1.76
7286.00,1.75
7284.00,1.75
7282.00,1.75
7280.00,1.75
7278.00,1.75
7276.00,1.75
7274.00,1.75
7272.00,1.75
7270.00,1.75
7268.00,1.75
7266.00,1.74
7264.00,1.74
7262.00,1.74
7260.00,1.74
7258.00,1.74
7256.00,1.74
7254.00,1.74
7252.00,1.74
7250.00,1.73
7248.00,1.73
7246.00,1.73
7244.00,1.73
7242.00,1.73
7240.00,1.72
7238.00,1.72
7236.00,1.72
7234.00,1.71
7232.00,1.71
7230.00,1.71
7228.00,1.70
7226.00,1.70
7224.00,1.69
7222.00,1.69
7220.00,1.69
7218.00,1.68
7216.00,1.68
7214.00,1.67
7212.00,1.67
7210.00,1.67
7208.00,1.66
7206.00,1.66
7204.00,1.65
7202.00,1.65
7200.00,1.64
7198.00,1.64
7196.00,1.63
7194.00,1.63
7192.00,1.62
7190.00,1.62
7188.00,1.61
7186.00,1.61
7184.00,1.60
7182.00,1.60
7180.00,1.59
7178.00,1.59
7176.00,1.58
7174.00,1.58
7172.00,1.57
7170.00,1.57
7168.00,1.56
7166.00,1.56
7164.00,1.56
7162.00,1.55
7160.00,1.55
7158.00,1.54
7156.00,1.54
7154.00,1.54
7152.00,1.53
7150.00,1.53
7148.00,1.53
7146.00,1.52
7144.00,1.52
7142.00,1.51
7140.00,1.51
7138.00,1.50
7136.00,1.50
7134.00,1.50
7132.00,1.49
7130.00,1.49
7128.00,1.48
7126.00,1.48
7124.00,1.47
7122.00,1.47
7120.00,1.46
7118.00,1.46
7116.00,1.45
7114.00,1.44
7112.00,1.44
7110.00,1.43
7108.00,1.43
7106.00,1.43
7104.00,1.42
7102.00,1.42
7100.00,1.41
7098.00,1.41
7096.00,1.40
7094.00,1.40
7092.00,1.40
7090.00,1.39
7088.00,1.39
7086.00,1.39
7084.00,1.38
7082.00,1.38
7080.00,1.38
7078.00,1.38
7076.00,1.37
7074.00,1.37
7072.00,1.37
7070.00,1.36
7068.00,1.36
7066.00,1.36
7064.00,1.36
7062.00,1.35
7060.00,1.35
7058.00,1.35
7056.00,1.34
7054.00,1.34
7052.00,1.34
7050.00,1.34
7048.00,1.33
7046.00,1.33
7044.00,1.33
7042.00,1.33
7040.00,1.33
7038.00,1.32
7036.00,1.32
7034.00,1.32
7032.00,1.32
7030.00,1.32
7028.00,1.31
7026.00,1.31
7024.00,1.31
7022.00,1.31
7020.00,1.31
7018.00,1.31
7016.00,1.30
7014.00,1.30
7012.00,1.30
7010.00,1.30
7008.00,1.30
7006.00,1.29
7004.00,1.29
7002.00,1.29
7000.00,1.29
6998.00,1.29
6996.00,1.29
6994.00,1.28
6992.00,1.28
6990.00,1.28
6988.00,1.28
6986.00,1.28
6984.00,1.28
6982.00,1.27
6980.00,1.27
6978.00,1.27
6976.00,1.27
6974.00,1.27
6972.00,1.27
6970.00,1.26
6968.00,1.26
6966.00,1.26
6964.00,1.26
6962.00,1.26
6960.00,1.26
6958.00,1.26
6956.00,1.26
6954.00,1.25
6952.00,1.25
6950.00,1.25
6948.00,1.25
6946.00,1.25
6944.00,1.25
6942.00,1.25
6940.00,1.25
6938.00,1.25
6936.00,1.24
6934.00,1.24
6932.00,1.24
6930.00,1.24
6928.00,1.24
6926.00,1.24
6924.00,1.24
6922.00,1.24
6920.00,1.24
6918.00,1.24
6916.00,1.24
6914.00,1.24
6912.00,1.24
6910.00,1.24
6908.00,1.24
6906.00,1.24
6904.00,1.24
6902.00,1.24
6900.00,1.23
6898.00,1.23
6896.00,1.23
6894.00,1.23
6892.00,1.23
6890.00,1.23
6888.00,1.23
6886.00,1.23
6884.00,1.23
6882.00,1.23
6880.00,1.23
6878.00,1.23
6876.00,1.23
6874.00,1.23
6872.00,1.23
6870.00,1.23
6868.00,1.23
6866.00,1.23
6864.00,1.23
6862.00,1.23
6860.00,1.23
6858.00,1.23
6856.00,1.23
6854.00,1.23
6852.00,1.23
6850.00,1.23
6848.00,1.23
6846.00,1.23
6844.00,1.23
6842.00,1.23
6840.00,1.23
6838.00,1.23
6836.00,1.23
6834.00,1.24
6832.00,1.24
6830.00,1.24
6828.00,1.24
6826.00,1.24
6824.00,1.24
6822.00,1.24
6820.00,1.24
6818.00,1.25
6816.00,1.25
6814.00,1.25
6812.00,1.25
6810.00,1.25
6808.00,1.25
6806.00,1.25
6804.00,1.25
6802.00,1.26
6800.00,1.26
6798.00,1.26
6796.00,1.26
6794.00,1.26
6792.00,1.27
6790.00,1.27
6788.00,1.27
6786.00,1.27
6784.00,1.27
6782.00,1.28
6780.00,1.28
6778.00,1.28
6776.00,1.28
6774.00,1.28
6772.00,1.29
6770.00,1.29
6768.00,1.29
6766.00,1.29
6764.00,1.29
6762.00,1.29
6760.00,1.29
6758.00,1.30
6756.00,1.30
6754.00,1.30
6752.00,1.30
6750.00,1.30
6748.00,1.30
6746.00,1.30
6744.00,1.31
6742.00,1.31
6740.00,1.31
6738.00,1.31
6736.00,1.31
6734.00,1.32
6732.00,1.32
6730.00,1.32
6728.00,1.32
6726.00,1.32
6724.00,1.33
6722.00,1.33
6720.00,1.33
6718.00,1.33
6716.00,1.34
6714.00,1.34
6712.00,1.34
6710.00,1.34
6708.00,1.34
6706.00,1.34
6704.00,1.35
6702.00,1.35
6700.00,1.35
6698.00,1.35
6696.00,1.35
6694.00,1.35
6692.00,1.36
6690.00,1.36
6688.00,1.36
6686.00,1.36
6684.00,1.36
6682.00,1.37
6680.00,1.37
6678.00,1.37
6676.00,1.37
6674.00,1.37
6672.00,1.37
6670.00,1.38
6668.00,1.38
6666.00,1.38
6664.00,1.38
6662.00,1.38
6660.00,1.39
6658.00,1.39
6656.00,1.39
6654.00,1.39
6652.00,1.40
6650.00,1.40
6648.00,1.40
6646.00,1.40
6644.00,1.40
6642.00,1.41
6640.00,1.41
6638.00,1.41
6636.00,1.41
6634.00,1.42
6632.00,1.42
6630.00,1.42
6628.00,1.42
6626.00,1.43
6624.00,1.43
6622.00,1.43
6620.00,1.43
6618.00,1.44
6616.00,1.44
6614.00,1.44
6612.00,1.44
6610.00,1.45
6608.00,1.45
6606.00,1.45
6604.00,1.45
6602.00,1.45
6600.00,1.46
6598.00,1.46
6596.00,1.46
6594.00,1.46
6592.00,1.46
6590.00,1.46
6588.00,1.47
6586.00,1.47
6584.00,1.47
6582.00,1.47
6580.00,1.47
6578.00,1.48
6576.00,1.48
6574.00,1.48
6572.00,1.48
6570.00,1.48
6568.00,1.48
6566.00,1.49
6564.00,1.49
6562.00,1.49
6560.00,1.49
6558.00,1.49
6556.00,1.49
6554.00,1.49
6552.00,1.50
6550.00,1.50
6548.00,1.50
6546.00,1.50
6544.00,1.50
6542.00,1.50
6540.00,1.51
6538.00,1.51
6536.00,1.51
6534.00,1.51
6532.00,1.51
6530.00,1.51
6528.00,1.52
6526.00,1.52
6524.00,1.52
6522.00,1.52
6520.00,1.52
6518.00,1.53
6516.00,1.53
6514.00,1.53
6512.00,1.53
6510.00,1.53
6508.00,1.53
6506.00,1.54
6504.00,1.54
6502.00,1.54
6500.00,1.54
6498.00,1.54
6496.00,1.54
6494.00,1.54
6492.00,1.54
6490.00,1.54
6488.00,1.54
6486.00,1.55
6484.00,1.55
6482.00,1.55
6480.00,1.55
6478.00,1.55
6476.00,1.55
6474.00,1.55
6472.00,1.55
6470.00,1.55
6468.00,1.55
6466.00,1.55
6464.00,1.55
6462.00,1.56
6460.00,1.56
6458.00,1.56
6456.00,1.56
6454.00,1.56
6452.00,1.56
6450.00,1.56
6448.00,1.56
6446.00,1.56
6444.00,1.57
6442.00,1.57
6440.00,1.57
6438.00,1.57
6436.00,1.57
6434.00,1.57
6432.00,1.57
6430.00,1.57
6428.00,1.57
6426.00,1.58
6424.00,1.58
6422.00,1.58
6420.00,1.58
6418.00,1.58
6416.00,1.58
6414.00,1.58
6412.00,1.58
6410.00,1.59
6408.00,1.59
6406.00,1.59
6404.00,1.59
6402.00,1.59
6400.00,1.59
6398.00,1.59
6396.00,1.60
6394.00,1.60
6392.00,1.60
6390.00,1.60
6388.00,1.60
6386.00,1.60
6384.00,1.60
6382.00,1.61
6380.00,1.61
6378.00,1.61
6376.00,1.61
6374.00,1.61
6372.00,1.61
6370.00,1.61
6368.00,1.62
6366.00,1.62
6364.00,1.62
6362.00,1.62
6360.00,1.62
6358.00,1.62
6356.00,1.62
6354.00,1.62
6352.00,1.63
6350.00,1.63
6348.00,1.63
6346.00,1.63
6344.00,1.63
6342.00,1.63
6340.00,1.63
6338.00,1.63
6336.00,1.64
6334.00,1.64
6332.00,1.64
6330.00,1.64
6328.00,1.64
6326.00,1.64
6324.00,1.64
6322.00,1.64
6320.00,1.65
6318.00,1.65
6316.00,1.65
6314.00,1.65
6312.00,1.65
6310.00,1.65
6308.00,1.65
6306.00,1.66
6304.00,1.66
6302.00,1.66
6300.00,1.66
6298.00,1.66
6296.00,1.66
6294.00,1.66
6292.00,1.67
6290.00,1.67
6288.00,1.67
6286.00,1.67
6284.00,1.67
6282.00,1.67
6280.00,1.67
6278.00,1.67
6276.00,1.68
6274.00,1.68
6272.00,1.68
6270.00,1.68
6268.00,1.68
6266.00,1.68
6264.00,1.68
6262.00,1.69
6260.00,1.69
6258.00,1.69
6256.00,1.69
6254.00,1.69
6252.00,1.69
6250.00,1.69
6248.00,1.70
6246.00,1.70
6244.00,1.70
6242.00,1.70
6240.00,1.70
6238.00,1.70
6236.00,1.70
6234.00,1.70
6232.00,1.71
6230.00,1.71
6228.00,1.71
6226.00,1.71
6224.00,1.71
6222.00,1.71
6220.00,1.71
6218.00,1.71
6216.00,1.72
6214.00,1.72
6212.00,1.72
6210.00,1.72
6208.00,1.72
6206.00,1.72
6204.00,1.72
6202.00,1.73
6200.00,1.73
6198.00,1.73
6196.00,1.73
6194.00,1.73
6192.00,1.73
6190.00,1.73
6188.00,1.74
6186.00,1.74
6184.00,1.74
6182.00,1.74
6180.00,1.74
6178.00,1.74
6176.00,1.74
6174.00,1.75
6172.00,1.75
6170.00,1.75
6168.00,1.75
6166.00,1.75
6164.00,1.75
6162.00,1.76
6160.00,1.76
6158.00,1.76
6156.00,1.76
6154.00,1.76
6152.00,1.76
6150.00,1.77
6148.00,1.77
6146.00,1.77
6144.00,1.77
6142.00,1.77
6140.00,1.77
6138.00,1.77
6136.00,1.78
6134.00,1.78
6132.00,1.78
6130.00,1.78
6128.00,1.78
6126.00,1.78
6124.00,1.79
6122.00,1.79
6120.00,1.79
6118.00,1.79
6116.00,1.79
6114.00,1.79
6112.00,1.79
6110.00,1.79
6108.00,1.80
6106.00,1.80
6104.00,1.80
6102.00,1.80
6100.00,1.80
6098.00,1.80
6096.00,1.80
6094.00,1.80
6092.00,1.80
6090.00,1.80
6088.00,1.81
6086.00,1.81
6084.00,1.81
6082.00,1.81
6080.00,1.81
6078.00,1.81
6076.00,1.81
6074.00,1.81
6072.00,1.81
6070.00,1.81
6068.00,1.82
6066.00,1.82
6064.00,1.82
6062.00,1.82
6060.00,1.82
6058.00,1.82
6056.00,1.82
6054.00,1.82
6052.00,1.82
6050.00,1.82
6048.00,1.82
6046.00,1.82
6044.00,1.82
6042.00,1.82
6040.00,1.82
6038.00,1.82
6036.00,1.83
6034.00,1.83
6032.00,1.83
6030.00,1.83
6028.00,1.83
6026.00,1.83
6024.00,1.83
6022.00,1.83
6020.00,1.83
6018.00,1.83
6016.00,1.83
6014.00,1.83
6012.00,1.83
6010.00,1.83
6008.00,1.83
6006.00,1.83
6004.00,1.83
6002.00,1.83
6000.00,1.83
5998.00,1.82
5996.00,1.82
5994.00,1.82
5992.00,1.82
5990.00,1.82
5988.00,1.82
5986.00,1.82
5984.00,1.81
5982.00,1.81
5980.00,1.81
5978.00,1.80
5976.00,1.80
5974.00,1.80
5972.00,1.79
5970.00,1.79
5968.00,1.78
5966.00,1.78
5964.00,1.78
5962.00,1.77
5960.00,1.77
5958.00,1.76
5956.00,1.76
5954.00,1.75
5952.00,1.75
5950.00,1.75
5948.00,1.74
5946.00,1.74
5944.00,1.74
5942.00,1.73
5940.00,1.73
5938.00,1.73
5936.00,1.72
5934.00,1.72
5932.00,1.72
5930.00,1.72
5928.00,1.71
5926.00,1.71
5924.00,1.71
5922.00,1.71
5920.00,1.70
5918.00,1.70
5916.00,1.70
5914.00,1.70
5912.00,1.70
5910.00,1.70
5908.00,1.70
5906.00,1.70
5904.00,1.70
5902.00,1.70
5900.00,1.70
5898.00,1.70
5896.00,1.70
5894.00,1.70
5892.00,1.70
5890.00,1.71
5888.00,1.71
5886.00,1.71
5884.00,1.71
5882.00,1.72
5880.00,1.72
5878.00,1.72
5876.00,1.72
5874.00,1.73
5872.00,1.73
5870.00,1.73
5868.00,1.73
5866.00,1.74
5864.00,1.74
5862.00,1.74
5860.00,1.74
5858.00,1.74
5856.00,1.74
5854.00,1.74
5852.00,1.74
5850.00,1.75
5848.00,1.75
5846.00,1.75
5844.00,1.75
5842.00,1.75
5840.00,1.75
5838.00,1.75
5836.00,1.75
5834.00,1.75
5832.00,1.75
5830.00,1.75
5828.00,1.75
5826.00,1.75
5824.00,1.75
5822.00,1.75
5820.00,1.74
5818.00,1.74
5816.00,1.74
5814.00,1.74
5812.00,1.74
5810.00,1.74
5808.00,1.74
5806.00,1.74
5804.00,1.74
5802.00,1.74
5800.00,1.74
5798.00,1.74
5796.00,1.74
5794.00,1.73
5792.00,1.73
5790.00,1.73
5788.00,1.73
5786.00,1.73
5784.00,1.73
5782.00,1.73
5780.00,1.73
5778.00,1.72
5776.00,1.72
5774.00,1.72
5772.00,1.72
5770.00,1.72
5768.00,1.73
5766.00,1.73
5764.00,1.73
5762.00,1.73
5760.00,1.73
5758.00,1.73
5756.00,1.73
5754.00,1.73
5752.00,1.74
5750.00,1.74
5748.00,1.74
5746.00,1.74
5744.00,1.74
5742.00,1.74
5740.00,1.75
5738.00,1.75
5736.00,1.75
5734.00,1.75
5732.00,1.75
5730.00,1.75
5728.00,1.75
5726.00,1.75
5724.00,1.75
5722.00,1.75
5720.00,1.75
5718.00,1.75
5716.00,1.75
5714.00,1.75
5712.00,1.75
5710.00,1.75
5708.00,1.75
5706.00,1.75
5704.00,1.75
5702.00,1.75
5700.00,1.74
5698.00,1.74
5696.00,1.74
5694.00,1.74
5692.00,1.74
5690.00,1.74
5688.00,1.74
5686.00,1.73
5684.00,1.73
5682.00,1.73
5680.00,1.73
5678.00,1.73
5676.00,1.73
5674.00,1.73
5672.00,1.73
5670.00,1.73
5668.00,1.73
5666.00,1.73
5664.00,1.73
5662.00,1.73
5660.00,1.73
5658.00,1.73
5656.00,1.73
5654.00,1.73
5652.00,1.73
5650.00,1.74
5648.00,1.74
5646.00,1.74
5644.00,1.74
5642.00,1.74
5640.00,1.74
5638.00,1.74
5636.00,1.75
5634.00,1.75
5632.00,1.75
5630.00,1.75
5628.00,1.75
5626.00,1.75
5624.00,1.75
5622.00,1.75
5620.00,1.76
5618.00,1.76
5616.00,1.76
5614.00,1.76
5612.00,1.76
5610.00,1.76
5608.00,1.76
5606.00,1.76
5604.00,1.76
5602.00,1.76
5600.00,1.77
5598.00,1.77
5596.00,1.77
5594.00,1.77
5592.00,1.77
5590.00,1.77
5588.00,1.77
5586.00,1.77
5584.00,1.77
5582.00,1.77
5580.00,1.77
5578.00,1.77
5576.00,1.78
5574.00,1.78
5572.00,1.78
5570.00,1.78
5568.00,1.78
5566.00,1.78
5564.00,1.78
5562.00,1.78
5560.00,1.79
5558.00,1.79
5556.00,1.79
5554.00,1.79
5552.00,1.79
5550.00,1.79
5548.00,1.79
5546.00,1.79
5544.00,1.79
5542.00,1.80
5540.00,1.80
5538.00,1.80
5536.00,1.80
5534.00,1.80
5532.00,1.80
5530.00,1.80
5528.00,1.80
5526.00,1.80
5524.00,1.80
5522.00,1.80
5520.00,1.80
5518.00,1.80
5516.00,1.80
5514.00,1.80
5512.00,1.81
5510.00,1.81
5508.00,1.81
5506.00,1.81
5504.00,1.81
5502.00,1.81
5500.00,1.81
5498.00,1.81
5496.00,1.81
5494.00,1.81
5492.00,1.81
5490.00,1.81
5488.00,1.81
5486.00,1.81
5484.00,1.82
5482.00,1.82
5480.00,1.82
5478.00,1.82
5476.00,1.82
5474.00,1.82
5472.00,1.82
5470.00,1.82
5468.00,1.82
5466.00,1.82
5464.00,1.82
5462.00,1.83
5460.00,1.83
5458.00,1.83
5456.00,1.83
5454.00,1.83
5452.00,1.83
5450.00,1.83
5448.00,1.83
5446.00,1.83
5444.00,1.83
5442.00,1.83
5440.00,1.83
5438.00,1.83
5436.00,1.83
5434.00,1.83
5432.00,1.83
5430.00,1.83
5428.00,1.83
5426.00,1.83
5424.00,1.83
5422.00,1.83
5420.00,1.83
5418.00,1.83
5416.00,1.83
5414.00,1.83
5412.00,1.83
5410.00,1.83
5408.00,1.83
5406.00,1.82
5404.00,1.82
5402.00,1.82
5400.00,1.82
5398.00,1.82
5396.00,1.82
5394.00,1.82
5392.00,1.81
5390.00,1.81
5388.00,1.81
5386.00,1.81
5384.00,1.80
5382.00,1.80
5380.00,1.79
5378.00,1.79
5376.00,1.79
5374.00,1.78
5372.00,1.77
5370.00,1.77
5368.00,1.76
5366.00,1.75
5364.00,1.75
5362.00,1.74
5360.00,1.73
5358.00,1.72
5356.00,1.71
5354.00,1.70
5352.00,1.69
5350.00,1.68
5348.00,1.66
5346.00,1.65
5344.00,1.64
5342.00,1.62
5340.00,1.61
5338.00,1.59
5336.00,1.58
5334.00,1.56
5332.00,1.54
5330.00,1.52
5328.00,1.50
5326.00,1.48
5324.00,1.47
5322.00,1.44
5320.00,1.42
5318.00,1.40
5316.00,1.38
5314.00,1.36
5312.00,1.34
5310.00,1.32
5308.00,1.30
5306.00,1.28
5304.00,1.25
5302.00,1.23
5300.00,1.21
5298.00,1.19
5296.00,1.17
5294.00,1.15
5292.00,1.14
5290.00,1.12
5288.00,1.10
5286.00,1.08
5284.00,1.07
5282.00,1.05
5280.00,1.04
5278.00,1.02
5276.00,1.01
5274.00,1.00
5272.00,0.98
5270.00,0.97
5268.00,0.96
5266.00,0.95
5264.00,0.94
5262.00,0.93
5260.00,0.92
5258.00,0.91
5256.00,0.90
5254.00,0.90
5252.00,0.89
5250.00,0.88
5248.00,0.88
5246.00,0.87
5244.00,0.86
5242.00,0.86
5240.00,0.85
5238.00,0.85
5236.00,0.84
5234.00,0.84
5232.00,0.84
5230.00,0.83
5228.00,0.83
5226.00,0.83
5224.00,0.82
5222.00,0.82
5220.00,0.82
5218.00,0.81
5216.00,0.81
5214.00,0.81
5212.00,0.80
5210.00,0.80
5208.00,0.80
5206.00,0.80
5204.00,0.79
5202.00,0.79
5200.00,0.79
5198.00,0.79
5196.00,0.79
5194.00,0.79
5192.00,0.79
5190.00,0.78
5188.00,0.78
5186.00,0.78
5184.00,0.78
5182.00,0.78
5180.00,0.78
5178.00,0.78
5176.00,0.78
5174.00,0.78
5172.00,0.78
5170.00,0.78
5168.00,0.78
5166.00,0.79
5164.00,0.79
5162.00,0.79
5160.00,0.79
5158.00,0.79
5156.00,0.79
5154.00,0.79
5152.00,0.79
5150.00,0.80
5148.00,0.80
5146.00,0.80
5144.00,0.80
5142.00,0.80
5140.00,0.81
5138.00,0.81
5136.00,0.81
5134.00,0.81
5132.00,0.81
5130.00,0.82
5128.00,0.82
5126.00,0.82
5124.00,0.82
5122.00,0.83
5120.00,0.83
5118.00,0.83
5116.00,0.84
5114.00,0.84
5112.00,0.84
5110.00,0.85
5108.00,0.85
5106.00,0.85
5104.00,0.85
5102.00,0.86
5100.00,0.86
5098.00,0.86
5096.00,0.87
5094.00,0.87
5092.00,0.88
5090.00,0.88
5088.00,0.88
5086.00,0.89
5084.00,0.89
5082.00,0.90
5080.00,0.90
5078.00,0.90
5076.00,0.91
5074.00,0.91
5072.00,0.92
5070.00,0.92
5068.00,0.92
5066.00,0.93
5064.00,0.93
5062.00,0.94
5060.00,0.94
5058.00,0.95
5056.00,0.95
5054.00,0.96
5052.00,0.96
5050.00,0.97
5048.00,0.97
5046.00,0.98
5044.00,0.98
5042.00,0.99
5040.00,0.99
5038.00,1.00
5036.00,1.00
5034.00,1.01
5032.00,1.01
5030.00,1.02
5028.00,1.02
5026.00,1.03
5024.00,1.03
5022.00,1.04
5020.00,1.04
5018.00,1.05
5016.00,1.05
5014.00,1.06
5012.00,1.06
5010.00,1.07
5008.00,1.07
5006.00,1.08
5004.00,1.08
5002.00,1.09
5000.00,1.09
4998.00,1.10
4996.00,1.10
4994.00,1.10
4992.00,1.11
4990.00,1.11
4988.00,1.12
4986.00,1.12
4984.00,1.13
4982.00,1.13
4980.00,1.14
4978.00,1.14
4976.00,1.15
4974.00,1.15
4972.00,1.15
4970.00,1.16
4968.00,1.16
4966.00,1.17
4964.00,1.17
4962.00,1.18
4960.00,1.18
4958.00,1.18
4956.00,1.19
4954.00,1.19
4952.00,1.20
4950.00,1.20
4948.00,1.20
4946.00,1.21
4944.00,1.21
4942.00,1.22
4940.00,1.22
4938.00,1.22
4936.00,1.23
4934.00,1.23
4932.00,1.23
4930.00,1.24
4928.00,1.24
4926.00,1.25
4924.00,1.25
4922.00,1.25
4920.00,1.26
4918.00,1.26
4916.00,1.26
4914.00,1.27
4912.00,1.27
4910.00,1.27
4908.00,1.28
4906.00,1.28
4904.00,1.28
4902.00,1.28
4900.00,1.29
4898.00,1.29
4896.00,1.29
4894.00,1.30
4892.00,1.30
4890.00,1.30
4888.00,1.30
4886.00,1.31
4884.00,1.31
4882.00,1.31
4880.00,1.31
4878.00,1.32
4876.00,1.32
4874.00,1.32
4872.00,1.33
4870.00,1.33
4868.00,1.33
4866.00,1.33
4864.00,1.34
4862.00,1.34
4860.00,1.34
4858.00,1.35
4856.00,1.35
4854.00,1.35
4852.00,1.35
4850.00,1.36
4848.00,1.36
4846.00,1.36
4844.00,1.37
4842.00,1.37
4840.00,1.37
4838.00,1.38
4836.00,1.38
4834.00,1.38
4832.00,1.39
4830.00,1.39
4828.00,1.39
4826.00,1.40
4824.00,1.40
4822.00,1.40
4820.00,1.41
4818.00,1.41
4816.00,1.41
4814.00,1.42
4812.00,1.42
4810.00,1.43
4808.00,1.43
4806.00,1.44
4804.00,1.44
4802.00,1.45
4800.00,1.45
4798.00,1.46
4796.00,1.46
4794.00,1.47
4792.00,1.47
4790.00,1.48
4788.00,1.48
4786.00,1.49
4784.00,1.49
4782.00,1.50
4780.00,1.50
4778.00,1.51
4776.00,1.51
4774.00,1.52
4772.00,1.52
4770.00,1.53
4768.00,1.53
4766.00,1.54
4764.00,1.54
4762.00,1.55
4760.00,1.55
4758.00,1.56
4756.00,1.56
4754.00,1.57
4752.00,1.57
4750.00,1.58
4748.00,1.58
4746.00,1.58
4744.00,1.59
4742.00,1.59
4740.00,1.60
4738.00,1.61
4736.00,1.61
4734.00,1.62
4732.00,1.62
4730.00,1.63
4728.00,1.63
4726.00,1.64
4724.00,1.64
4722.00,1.65
4720.00,1.65
4718.00,1.66
4716.00,1.66
4714.00,1.67
4712.00,1.67
4710.00,1.68
4708.00,1.68
4706.00,1.69
4704.00,1.69
4702.00,1.70
4700.00,1.70
4698.00,1.71
4696.00,1.71
4694.00,1.72
4692.00,1.72
4690.00,1.72
4688.00,1.73
4686.00,1.73
4684.00,1.73
4682.00,1.74
4680.00,1.74
4678.00,1.74
4676.00,1.75
4674.00,1.75
4672.00,1.75
4670.00,1.75
4668.00,1.76
4666.00,1.76
4664.00,1.76
4662.00,1.76
4660.00,1.77
4658.00,1.77
4656.00,1.77
4654.00,1.77
4652.00,1.78
4650.00,1.78
4648.00,1.78
4646.00,1.78
4644.00,1.78
4642.00,1.79
4640.00,1.79
4638.00,1.79
4636.00,1.79
4634.00,1.79
4632.00,1.79
4630.00,1.79
4628.00,1.80
4626.00,1.80
4624.00,1.80
4622.00,1.80
4620.00,1.80
4618.00,1.80
4616.00,1.80
4614.00,1.80
4612.00,1.80
4610.00,1.80
4608.00,1.80
4606.00,1.80
4604.00,1.80
4602.00,1.80
4600.00,1.80
4598.00,1.80
4596.00,1.80
4594.00,1.81
4592.00,1.81
4590.00,1.81
4588.00,1.81
4586.00,1.81
4584.00,1.81
4582.00,1.81
4580.00,1.81
4578.00,1.81
4576.00,1.81
4574.00,1.81
4572.00,1.81
4570.00,1.81
4568.00,1.81
4566.00,1.82
4564.00,1.82
4562.00,1.82
4560.00,1.82
4558.00,1.82
4556.00,1.82
4554.00,1.82
4552.00,1.82
4550.00,1.82
4548.00,1.82
4546.00,1.82
4544.00,1.82
4542.00,1.82
4540.00,1.82
4538.00,1.82
4536.00,1.82
4534.00,1.82
4532.00,1.82
4530.00,1.82
4528.00,1.82
4526.00,1.83
4524.00,1.83
4522.00,1.83
4520.00,1.83
4518.00,1.83
4516.00,1.83
4514.00,1.83
4512.00,1.83
4510.00,1.83
4508.00,1.83
4506.00,1.83
4504.00,1.83
4502.00,1.83
4500.00,1.83
4498.00,1.83
4496.00,1.83
4494.00,1.83
4492.00,1.83
4490.00,1.83
4488.00,1.82
4486.00,1.82
4484.00,1.82
4482.00,1.82
4480.00,1.82
4478.00,1.81
4476.00,1.81
4474.00,1.81
4472.00,1.80
4470.00,1.80
4468.00,1.79
4466.00,1.79
4464.00,1.78
4462.00,1.77
4460.00,1.76
4458.00,1.76
4456.00,1.75
4454.00,1.74
4452.00,1.72
4450.00,1.71
4448.00,1.70
4446.00,1.68
4444.00,1.67
4442.00,1.65
4440.00,1.64
4438.00,1.62
4436.00,1.60
4434.00,1.59
4432.00,1.57
4430.00,1.56
4428.00,1.54
4426.00,1.53
4424.00,1.51
4422.00,1.50
4420.00,1.49
4418.00,1.48
4416.00,1.47
4414.00,1.47
4412.00,1.47
4410.00,1.46
4408.00,1.46
4406.00,1.46
4404.00,1.47
4402.00,1.47
4400.00,1.47
4398.00,1.48
4396.00,1.49
4394.00,1.49
4392.00,1.50
4390.00,1.51
4388.00,1.52
4386.00,1.52
4384.00,1.53
4382.00,1.54
4380.00,1.54
4378.00,1.55
4376.00,1.55
4374.00,1.55
4372.00,1.55
4370.00,1.55
4368.00,1.55
4366.00,1.55
4364.00,1.55
4362.00,1.54
4360.00,1.54
4358.00,1.53
4356.00,1.53
4354.00,1.52
4352.00,1.52
4350.00,1.51
4348.00,1.51
4346.00,1.51
4344.00,1.51
4342.00,1.51
4340.00,1.51
4338.00,1.51
4336.00,1.52
4334.00,1.53
4332.00,1.53
4330.00,1.54
4328.00,1.55
4326.00,1.56
4324.00,1.58
4322.00,1.59
4320.00,1.60
4318.00,1.62
4316.00,1.63
4314.00,1.64
4312.00,1.66
4310.00,1.67
4308.00,1.69
4306.00,1.70
4304.00,1.71
4302.00,1.72
4300.00,1.73
4298.00,1.74
4296.00,1.75
4294.00,1.76
4292.00,1.76
4290.00,1.77
4288.00,1.77
4286.00,1.77
4284.00,1.78
4282.00,1.78
4280.00,1.78
4278.00,1.78
4276.00,1.78
4274.00,1.77
4272.00,1.77
4270.00,1.77
4268.00,1.77
4266.00,1.76
4264.00,1.76
4262.00,1.76
4260.00,1.76
4258.00,1.76
4256.00,1.76
4254.00,1.76
4252.00,1.76
4250.00,1.76
4248.00,1.76
4246.00,1.76
4244.00,1.77
4242.00,1.77
4240.00,1.77
4238.00,1.78
4236.00,1.78
4234.00,1.79
4232.00,1.79
4230.00,1.80
4228.00,1.80
4226.00,1.81
4224.00,1.81
4222.00,1.81
4220.00,1.82
4218.00,1.82
4216.00,1.82
4214.00,1.82
4212.00,1.82
4210.00,1.83
4208.00,1.83
4206.00,1.83
4204.00,1.83
4202.00,1.83
4200.00,1.83
4198.00,1.83
4196.00,1.82
4194.00,1.82
4192.00,1.82
4190.00,1.82
4188.00,1.82
4186.00,1.82
4184.00,1.82
4182.00,1.82
4180.00,1.82
4178.00,1.81
4176.00,1.81
4174.00,1.81
4172.00,1.81
4170.00,1.81
4168.00,1.81
4166.00,1.81
4164.00,1.81
4162.00,1.81
4160.00,1.81
4158.00,1.81
4156.00,1.81
4154.00,1.81
4152.00,1.81
4150.00,1.81
4148.00,1.81
4146.00,1.81
4144.00,1.81
4142.00,1.80
4140.00,1.80
4138.00,1.80
4136.00,1.80
4134.00,1.80
4132.00,1.80
4130.00,1.80
4128.00,1.80
4126.00,1.80
4124.00,1.80
4122.00,1.79
4120.00,1.79
4118.00,1.79
4116.00,1.79
4114.00,1.79
4112.00,1.78
4110.00,1.78
4108.00,1.78
4106.00,1.78
4104.00,1.77
4102.00,1.77
4100.00,1.77
4098.00,1.76
4096.00,1.76
4094.00,1.75
4092.00,1.75
4090.00,1.75
4088.00,1.74
4086.00,1.74
4084.00,1.73
4082.00,1.73
4080.00,1.72
4078.00,1.72
4076.00,1.72
4074.00,1.71
4072.00,1.71
4070.00,1.71
4068.00,1.71
4066.00,1.70
4064.00,1.70
4062.00,1.70
4060.00,1.70
4058.00,1.70
4056.00,1.70
4054.00,1.71
4052.00,1.71
4050.00,1.71
4048.00,1.71
4046.00,1.71
4044.00,1.72
4042.00,1.72
4040.00,1.72
4038.00,1.73
4036.00,1.73
4034.00,1.73
4032.00,1.74
4030.00,1.74
4028.00,1.74
4026.00,1.75
4024.00,1.75
4022.00,1.76
4020.00,1.76
4018.00,1.77
4016.00,1.77
4014.00,1.78
4012.00,1.79
4010.00,1.79
4008.00,1.80
4006.00,1.81
4004.00,1.82
4002.00,1.82
4000.00,1.83
