创建为新数据集,样品 1253 用户 Administrator 日期 星期六, 八月 17 2019
cm-1,%T
10000.00,1.28
9998.00,1.28
9996.00,1.28
9994.00,1.28
9992.00,1.27
9990.00,1.27
9988.00,1.27
9986.00,1.27
9984.00,1.27
9982.00,1.26
9980.00,1.26
9978.00,1.26
9976.00,1.26
9974.00,1.26
9972.00,1.25
9970.00,1.25
9968.00,1.25
9966.00,1.25
9964.00,1.24
9962.00,1.24
9960.00,1.24
9958.00,1.24
9956.00,1.24
9954.00,1.24
9952.00,1.24
9950.00,1.24
9948.00,1.24
9946.00,1.24
9944.00,1.24
9942.00,1.24
9940.00,1.24
9938.00,1.24
9936.00,1.24
9934.00,1.24
9932.00,1.24
9930.00,1.24
9928.00,1.24
9926.00,1.25
9924.00,1.25
9922.00,1.25
9920.00,1.25
9918.00,1.25
9916.00,1.25
9914.00,1.25
9912.00,1.25
9910.00,1.25
9908.00,1.25
9906.00,1.25
9904.00,1.25
9902.00,1.25
9900.00,1.25
9898.00,1.25
9896.00,1.25
9894.00,1.26
9892.00,1.26
9890.00,1.26
9888.00,1.26
9886.00,1.26
9884.00,1.26
9882.00,1.26
9880.00,1.26
9878.00,1.26
9876.00,1.26
9874.00,1.25
9872.00,1.25
9870.00,1.25
9868.00,1.25
9866.00,1.25
9864.00,1.25
9862.00,1.25
9860.00,1.25
9858.00,1.25
9856.00,1.25
9854.00,1.25
9852.00,1.25
9850.00,1.25
9848.00,1.25
9846.00,1.25
9844.00,1.25
9842.00,1.25
9840.00,1.25
9838.00,1.25
9836.00,1.25
9834.00,1.24
9832.00,1.24
9830.00,1.24
9828.00,1.24
9826.00,1.24
9824.00,1.24
9822.00,1.24
9820.00,1.24
9818.00,1.23
9816.00,1.23
9814.00,1.23
9812.00,1.23
9810.00,1.23
9808.00,1.23
9806.00,1.23
9804.00,1.23
9802.00,1.23
9800.00,1.23
9798.00,1.24
9796.00,1.24
9794.00,1.24
9792.00,1.24
9790.00,1.24
9788.00,1.25
9786.00,1.25
9784.00,1.25
9782.00,1.25
9780.00,1.25
9778.00,1.25
9776.00,1.26
9774.00,1.26
9772.00,1.26
9770.00,1.26
9768.00,1.26
9766.00,1.26
9764.00,1.26
9762.00,1.26
9760.00,1.26
9758.00,1.26
9756.00,1.26
9754.00,1.26
9752.00,1.27
9750.00,1.27
9748.00,1.27
9746.00,1.27
9744.00,1.27
9742.00,1.27
9740.00,1.27
9738.00,1.27
9736.00,1.27
9734.00,1.27
9732.00,1.27
9730.00,1.27
9728.00,1.26
9726.00,1.26
9724.00,1.26
9722.00,1.26
9720.00,1.26
9718.00,1.26
9716.00,1.26
9714.00,1.26
9712.00,1.26
9710.00,1.26
9708.00,1.26
9706.00,1.26
9704.00,1.26
9702.00,1.26
9700.00,1.26
9698.00,1.26
9696.00,1.26
9694.00,1.26
9692.00,1.26
9690.00,1.26
9688.00,1.26
9686.00,1.26
9684.00,1.26
9682.00,1.26
9680.00,1.26
9678.00,1.26
9676.00,1.26
9674.00,1.26
9672.00,1.26
9670.00,1.26
9668.00,1.26
9666.00,1.26
9664.00,1.26
9662.00,1.26
9660.00,1.26
9658.00,1.25
9656.00,1.25
9654.00,1.25
9652.00,1.25
9650.00,1.25
9648.00,1.25
9646.00,1.25
9644.00,1.25
9642.00,1.25
9640.00,1.25
9638.00,1.25
9636.00,1.25
9634.00,1.25
9632.00,1.25
9630.00,1.25
9628.00,1.25
9626.00,1.24
9624.00,1.24
9622.00,1.24
9620.00,1.24
9618.00,1.24
9616.00,1.25
9614.00,1.25
9612.00,1.25
9610.00,1.25
9608.00,1.25
9606.00,1.25
9604.00,1.25
9602.00,1.25
9600.00,1.25
9598.00,1.25
9596.00,1.25
9594.00,1.26
9592.00,1.26
9590.00,1.26
9588.00,1.26
9586.00,1.26
9584.00,1.26
9582.00,1.26
9580.00,1.26
9578.00,1.26
9576.00,1.27
9574.00,1.27
9572.00,1.27
9570.00,1.27
9568.00,1.27
9566.00,1.27
9564.00,1.27
9562.00,1.27
9560.00,1.27
9558.00,1.27
9556.00,1.27
9554.00,1.27
9552.00,1.27
9550.00,1.27
9548.00,1.27
9546.00,1.27
9544.00,1.27
9542.00,1.27
9540.00,1.27
9538.00,1.27
9536.00,1.27
9534.00,1.27
9532.00,1.27
9530.00,1.26
9528.00,1.26
9526.00,1.26
9524.00,1.26
9522.00,1.26
9520.00,1.25
9518.00,1.25
9516.00,1.25
9514.00,1.25
9512.00,1.25
9510.00,1.24
9508.00,1.24
9506.00,1.24
9504.00,1.24
9502.00,1.24
9500.00,1.24
9498.00,1.24
9496.00,1.24
9494.00,1.24
9492.00,1.24
9490.00,1.24
9488.00,1.24
9486.00,1.24
9484.00,1.24
9482.00,1.24
9480.00,1.24
9478.00,1.25
9476.00,1.25
9474.00,1.25
9472.00,1.25
9470.00,1.25
9468.00,1.25
9466.00,1.25
9464.00,1.25
9462.00,1.26
9460.00,1.26
9458.00,1.26
9456.00,1.26
9454.00,1.26
9452.00,1.26
9450.00,1.26
9448.00,1.26
9446.00,1.26
9444.00,1.26
9442.00,1.26
9440.00,1.26
9438.00,1.27
9436.00,1.27
9434.00,1.27
9432.00,1.27
9430.00,1.27
9428.00,1.27
9426.00,1.27
9424.00,1.27
9422.00,1.27
9420.00,1.27
9418.00,1.27
9416.00,1.27
9414.00,1.27
9412.00,1.27
9410.00,1.27
9408.00,1.26
9406.00,1.26
9404.00,1.26
9402.00,1.26
9400.00,1.26
9398.00,1.26
9396.00,1.26
9394.00,1.26
9392.00,1.26
9390.00,1.26
9388.00,1.26
9386.00,1.26
9384.00,1.26
9382.00,1.26
9380.00,1.26
9378.00,1.26
9376.00,1.26
9374.00,1.26
9372.00,1.26
9370.00,1.26
9368.00,1.26
9366.00,1.26
9364.00,1.26
9362.00,1.26
9360.00,1.26
9358.00,1.26
9356.00,1.26
9354.00,1.25
9352.00,1.25
9350.00,1.25
9348.00,1.25
9346.00,1.25
9344.00,1.25
9342.00,1.25
9340.00,1.25
9338.00,1.25
9336.00,1.25
9334.00,1.25
9332.00,1.25
9330.00,1.25
9328.00,1.25
9326.00,1.25
9324.00,1.25
9322.00,1.25
9320.00,1.25
9318.00,1.25
9316.00,1.25
9314.00,1.25
9312.00,1.26
9310.00,1.26
9308.00,1.26
9306.00,1.26
9304.00,1.26
9302.00,1.26
9300.00,1.26
9298.00,1.26
9296.00,1.25
9294.00,1.25
9292.00,1.25
9290.00,1.25
9288.00,1.25
9286.00,1.25
9284.00,1.25
9282.00,1.25
9280.00,1.25
9278.00,1.25
9276.00,1.26
9274.00,1.26
9272.00,1.26
9270.00,1.26
9268.00,1.26
9266.00,1.26
9264.00,1.26
9262.00,1.26
9260.00,1.27
9258.00,1.27
9256.00,1.27
9254.00,1.27
9252.00,1.27
9250.00,1.27
9248.00,1.27
9246.00,1.27
9244.00,1.27
9242.00,1.27
9240.00,1.27
9238.00,1.27
9236.00,1.27
9234.00,1.26
9232.00,1.26
9230.00,1.26
9228.00,1.26
9226.00,1.26
9224.00,1.26
9222.00,1.26
9220.00,1.26
9218.00,1.25
9216.00,1.25
9214.00,1.25
9212.00,1.25
9210.00,1.25
9208.00,1.25
9206.00,1.25
9204.00,1.25
9202.00,1.26
9200.00,1.26
9198.00,1.26
9196.00,1.26
9194.00,1.26
9192.00,1.26
9190.00,1.26
9188.00,1.26
9186.00,1.26
9184.00,1.26
9182.00,1.26
9180.00,1.26
9178.00,1.26
9176.00,1.26
9174.00,1.26
9172.00,1.26
9170.00,1.26
9168.00,1.25
9166.00,1.25
9164.00,1.25
9162.00,1.25
9160.00,1.25
9158.00,1.25
9156.00,1.25
9154.00,1.25
9152.00,1.25
9150.00,1.25
9148.00,1.25
9146.00,1.25
9144.00,1.25
9142.00,1.25
9140.00,1.25
9138.00,1.25
9136.00,1.25
9134.00,1.25
9132.00,1.25
9130.00,1.25
9128.00,1.25
9126.00,1.25
9124.00,1.25
9122.00,1.25
9120.00,1.25
9118.00,1.25
9116.00,1.25
9114.00,1.26
9112.00,1.26
9110.00,1.26
9108.00,1.26
9106.00,1.26
9104.00,1.26
9102.00,1.26
9100.00,1.26
9098.00,1.26
9096.00,1.26
9094.00,1.26
9092.00,1.26
9090.00,1.26
9088.00,1.26
9086.00,1.26
9084.00,1.26
9082.00,1.26
9080.00,1.26
9078.00,1.26
9076.00,1.26
9074.00,1.26
9072.00,1.26
9070.00,1.26
9068.00,1.26
9066.00,1.26
9064.00,1.26
9062.00,1.26
9060.00,1.26
9058.00,1.26
9056.00,1.26
9054.00,1.26
9052.00,1.26
9050.00,1.26
9048.00,1.26
9046.00,1.26
9044.00,1.26
9042.00,1.26
9040.00,1.26
9038.00,1.26
9036.00,1.26
9034.00,1.26
9032.00,1.25
9030.00,1.25
9028.00,1.25
9026.00,1.25
9024.00,1.25
9022.00,1.25
9020.00,1.25
9018.00,1.25
9016.00,1.25
9014.00,1.25
9012.00,1.25
9010.00,1.25
9008.00,1.25
9006.00,1.25
9004.00,1.25
9002.00,1.25
9000.00,1.26
8998.00,1.26
8996.00,1.26
8994.00,1.26
8992.00,1.26
8990.00,1.26
8988.00,1.26
8986.00,1.26
8984.00,1.26
8982.00,1.26
8980.00,1.27
8978.00,1.27
8976.00,1.27
8974.00,1.27
8972.00,1.27
8970.00,1.27
8968.00,1.27
8966.00,1.27
8964.00,1.27
8962.00,1.27
8960.00,1.27
8958.00,1.27
8956.00,1.27
8954.00,1.27
8952.00,1.27
8950.00,1.27
8948.00,1.27
8946.00,1.26
8944.00,1.26
8942.00,1.26
8940.00,1.26
8938.00,1.26
8936.00,1.26
8934.00,1.26
8932.00,1.26
8930.00,1.26
8928.00,1.26
8926.00,1.26
8924.00,1.26
8922.00,1.26
8920.00,1.26
8918.00,1.26
8916.00,1.26
8914.00,1.26
8912.00,1.26
8910.00,1.26
8908.00,1.26
8906.00,1.26
8904.00,1.26
8902.00,1.26
8900.00,1.26
8898.00,1.26
8896.00,1.26
8894.00,1.26
8892.00,1.26
8890.00,1.26
8888.00,1.26
8886.00,1.26
8884.00,1.25
8882.00,1.25
8880.00,1.25
8878.00,1.25
8876.00,1.25
8874.00,1.25
8872.00,1.25
8870.00,1.25
8868.00,1.25
8866.00,1.25
8864.00,1.25
8862.00,1.25
8860.00,1.25
8858.00,1.25
8856.00,1.24
8854.00,1.24
8852.00,1.24
8850.00,1.24
8848.00,1.24
8846.00,1.24
8844.00,1.25
8842.00,1.25
8840.00,1.25
8838.00,1.25
8836.00,1.25
8834.00,1.25
8832.00,1.25
8830.00,1.25
8828.00,1.25
8826.00,1.25
8824.00,1.25
8822.00,1.25
8820.00,1.25
8818.00,1.25
8816.00,1.25
8814.00,1.25
8812.00,1.25
8810.00,1.25
8808.00,1.25
8806.00,1.25
8804.00,1.25
8802.00,1.25
8800.00,1.25
8798.00,1.25
8796.00,1.25
8794.00,1.25
8792.00,1.25
8790.00,1.25
8788.00,1.25
8786.00,1.25
8784.00,1.25
8782.00,1.25
8780.00,1.25
8778.00,1.25
8776.00,1.25
8774.00,1.25
8772.00,1.25
8770.00,1.25
8768.00,1.25
8766.00,1.25
8764.00,1.25
8762.00,1.25
8760.00,1.25
8758.00,1.25
8756.00,1.25
8754.00,1.25
8752.00,1.25
8750.00,1.25
8748.00,1.25
8746.00,1.25
8744.00,1.25
8742.00,1.25
8740.00,1.25
8738.00,1.25
8736.00,1.25
8734.00,1.25
8732.00,1.25
8730.00,1.25
8728.00,1.25
8726.00,1.25
8724.00,1.25
8722.00,1.25
8720.00,1.25
8718.00,1.25
8716.00,1.25
8714.00,1.25
8712.00,1.25
8710.00,1.25
8708.00,1.25
8706.00,1.25
8704.00,1.25
8702.00,1.25
8700.00,1.24
8698.00,1.24
8696.00,1.24
8694.00,1.24
8692.00,1.24
8690.00,1.24
8688.00,1.24
8686.00,1.24
8684.00,1.24
8682.00,1.24
8680.00,1.24
8678.00,1.24
8676.00,1.24
8674.00,1.24
8672.00,1.23
8670.00,1.23
8668.00,1.23
8666.00,1.23
8664.00,1.23
8662.00,1.23
8660.00,1.23
8658.00,1.23
8656.00,1.23
8654.00,1.23
8652.00,1.23
8650.00,1.23
8648.00,1.23
8646.00,1.23
8644.00,1.23
8642.00,1.23
8640.00,1.23
8638.00,1.24
8636.00,1.24
8634.00,1.24
8632.00,1.24
8630.00,1.24
8628.00,1.24
8626.00,1.24
8624.00,1.24
8622.00,1.24
8620.00,1.24
8618.00,1.24
8616.00,1.24
8614.00,1.24
8612.00,1.24
8610.00,1.24
8608.00,1.24
8606.00,1.24
8604.00,1.24
8602.00,1.24
8600.00,1.24
8598.00,1.24
8596.00,1.24
8594.00,1.24
8592.00,1.24
8590.00,1.24
8588.00,1.24
8586.00,1.24
8584.00,1.24
8582.00,1.24
8580.00,1.24
8578.00,1.24
8576.00,1.24
8574.00,1.24
8572.00,1.24
8570.00,1.24
8568.00,1.24
8566.00,1.24
8564.00,1.24
8562.00,1.24
8560.00,1.24
8558.00,1.24
8556.00,1.24
8554.00,1.24
8552.00,1.24
8550.00,1.24
8548.00,1.24
8546.00,1.24
8544.00,1.24
8542.00,1.24
8540.00,1.24
8538.00,1.24
8536.00,1.24
8534.00,1.23
8532.00,1.23
8530.00,1.23
8528.00,1.23
8526.00,1.23
8524.00,1.23
8522.00,1.23
8520.00,1.23
8518.00,1.23
8516.00,1.23
8514.00,1.23
8512.00,1.23
8510.00,1.23
8508.00,1.23
8506.00,1.23
8504.00,1.23
8502.00,1.23
8500.00,1.22
8498.00,1.22
8496.00,1.22
8494.00,1.22
8492.00,1.22
8490.00,1.22
8488.00,1.22
8486.00,1.22
8484.00,1.22
8482.00,1.22
8480.00,1.22
8478.00,1.22
8476.00,1.23
8474.00,1.23
8472.00,1.23
8470.00,1.23
8468.00,1.23
8466.00,1.23
8464.00,1.23
8462.00,1.23
8460.00,1.23
8458.00,1.23
8456.00,1.23
8454.00,1.23
8452.00,1.23
8450.00,1.23
8448.00,1.23
8446.00,1.23
8444.00,1.23
8442.00,1.23
8440.00,1.23
8438.00,1.23
8436.00,1.23
8434.00,1.23
8432.00,1.23
8430.00,1.23
8428.00,1.23
8426.00,1.23
8424.00,1.23
8422.00,1.23
8420.00,1.23
8418.00,1.23
8416.00,1.23
8414.00,1.23
8412.00,1.23
8410.00,1.23
8408.00,1.23
8406.00,1.23
8404.00,1.24
8402.00,1.24
8400.00,1.24
8398.00,1.24
8396.00,1.24
8394.00,1.24
8392.00,1.24
8390.00,1.24
8388.00,1.24
8386.00,1.24
8384.00,1.24
8382.00,1.24
8380.00,1.24
8378.00,1.24
8376.00,1.24
8374.00,1.24
8372.00,1.24
8370.00,1.24
8368.00,1.24
8366.00,1.24
8364.00,1.24
8362.00,1.24
8360.00,1.24
8358.00,1.24
8356.00,1.24
8354.00,1.24
8352.00,1.24
8350.00,1.24
8348.00,1.24
8346.00,1.23
8344.00,1.23
8342.00,1.23
8340.00,1.23
8338.00,1.23
8336.00,1.23
8334.00,1.23
8332.00,1.23
8330.00,1.23
8328.00,1.23
8326.00,1.22
8324.00,1.22
8322.00,1.22
8320.00,1.22
8318.00,1.22
8316.00,1.23
8314.00,1.23
8312.00,1.23
8310.00,1.23
8308.00,1.23
8306.00,1.23
8304.00,1.23
8302.00,1.23
8300.00,1.23
8298.00,1.23
8296.00,1.23
8294.00,1.23
8292.00,1.23
8290.00,1.23
8288.00,1.23
8286.00,1.24
8284.00,1.24
8282.00,1.24
8280.00,1.24
8278.00,1.24
8276.00,1.24
8274.00,1.24
8272.00,1.24
8270.00,1.24
8268.00,1.24
8266.00,1.24
8264.00,1.24
8262.00,1.24
8260.00,1.24
8258.00,1.24
8256.00,1.24
8254.00,1.24
8252.00,1.24
8250.00,1.24
8248.00,1.24
8246.00,1.24
8244.00,1.24
8242.00,1.24
8240.00,1.24
8238.00,1.24
8236.00,1.24
8234.00,1.24
8232.00,1.24
8230.00,1.24
8228.00,1.24
8226.00,1.24
8224.00,1.24
8222.00,1.24
8220.00,1.24
8218.00,1.24
8216.00,1.24
8214.00,1.24
8212.00,1.24
8210.00,1.24
8208.00,1.24
8206.00,1.25
8204.00,1.25
8202.00,1.25
8200.00,1.25
8198.00,1.25
8196.00,1.25
8194.00,1.25
8192.00,1.25
8190.00,1.25
8188.00,1.25
8186.00,1.25
8184.00,1.25
8182.00,1.25
8180.00,1.25
8178.00,1.25
8176.00,1.25
8174.00,1.24
8172.00,1.24
8170.00,1.24
8168.00,1.24
8166.00,1.24
8164.00,1.24
8162.00,1.24
8160.00,1.24
8158.00,1.24
8156.00,1.24
8154.00,1.24
8152.00,1.24
8150.00,1.24
8148.00,1.24
8146.00,1.24
8144.00,1.24
8142.00,1.24
8140.00,1.24
8138.00,1.24
8136.00,1.25
8134.00,1.25
8132.00,1.25
8130.00,1.25
8128.00,1.25
8126.00,1.25
8124.00,1.25
8122.00,1.25
8120.00,1.25
8118.00,1.26
8116.00,1.26
8114.00,1.26
8112.00,1.26
8110.00,1.26
8108.00,1.26
8106.00,1.26
8104.00,1.26
8102.00,1.26
8100.00,1.26
8098.00,1.26
8096.00,1.26
8094.00,1.25
8092.00,1.25
8090.00,1.25
8088.00,1.25
8086.00,1.25
8084.00,1.25
8082.00,1.25
8080.00,1.25
8078.00,1.25
8076.00,1.25
8074.00,1.25
8072.00,1.25
8070.00,1.25
8068.00,1.25
8066.00,1.24
8064.00,1.24
8062.00,1.24
8060.00,1.24
8058.00,1.24
8056.00,1.24
8054.00,1.25
8052.00,1.25
8050.00,1.25
8048.00,1.25
8046.00,1.25
8044.00,1.25
8042.00,1.25
8040.00,1.25
8038.00,1.25
8036.00,1.25
8034.00,1.25
8032.00,1.25
8030.00,1.26
8028.00,1.26
8026.00,1.26
8024.00,1.26
8022.00,1.26
8020.00,1.26
8018.00,1.26
8016.00,1.26
8014.00,1.26
8012.00,1.26
8010.00,1.26
8008.00,1.26
8006.00,1.26
8004.00,1.26
8002.00,1.26
8000.00,1.26
7998.00,1.26
7996.00,1.26
7994.00,1.26
7992.00,1.26
7990.00,1.26
7988.00,1.26
7986.00,1.26
7984.00,1.26
7982.00,1.26
7980.00,1.26
7978.00,1.26
7976.00,1.26
7974.00,1.26
7972.00,1.26
7970.00,1.26
7968.00,1.26
7966.00,1.26
7964.00,1.26
7962.00,1.26
7960.00,1.26
7958.00,1.26
7956.00,1.26
7954.00,1.26
7952.00,1.26
7950.00,1.26
7948.00,1.26
7946.00,1.26
7944.00,1.26
7942.00,1.26
7940.00,1.26
7938.00,1.26
7936.00,1.26
7934.00,1.26
7932.00,1.26
7930.00,1.26
7928.00,1.26
7926.00,1.26
7924.00,1.26
7922.00,1.26
7920.00,1.26
7918.00,1.26
7916.00,1.26
7914.00,1.26
7912.00,1.26
7910.00,1.26
7908.00,1.26
7906.00,1.26
7904.00,1.26
7902.00,1.26
7900.00,1.26
7898.00,1.26
7896.00,1.26
7894.00,1.26
7892.00,1.26
7890.00,1.26
7888.00,1.26
7886.00,1.26
7884.00,1.26
7882.00,1.26
7880.00,1.26
7878.00,1.26
7876.00,1.26
7874.00,1.26
7872.00,1.26
7870.00,1.26
7868.00,1.27
7866.00,1.27
7864.00,1.27
7862.00,1.27
7860.00,1.27
7858.00,1.27
7856.00,1.27
7854.00,1.27
7852.00,1.27
7850.00,1.26
7848.00,1.26
7846.00,1.26
7844.00,1.26
7842.00,1.26
7840.00,1.26
7838.00,1.26
7836.00,1.26
7834.00,1.26
7832.00,1.26
7830.00,1.26
7828.00,1.26
7826.00,1.26
7824.00,1.26
7822.00,1.26
7820.00,1.26
7818.00,1.26
7816.00,1.26
7814.00,1.26
7812.00,1.26
7810.00,1.26
7808.00,1.26
7806.00,1.26
7804.00,1.26
7802.00,1.26
7800.00,1.26
7798.00,1.26
7796.00,1.26
7794.00,1.26
7792.00,1.26
7790.00,1.26
7788.00,1.26
7786.00,1.26
7784.00,1.26
7782.00,1.27
7780.00,1.27
7778.00,1.27
7776.00,1.27
7774.00,1.27
7772.00,1.27
7770.00,1.27
7768.00,1.27
7766.00,1.27
7764.00,1.27
7762.00,1.27
7760.00,1.27
7758.00,1.27
7756.00,1.27
7754.00,1.27
7752.00,1.27
7750.00,1.27
7748.00,1.27
7746.00,1.27
7744.00,1.27
7742.00,1.27
7740.00,1.27
7738.00,1.27
7736.00,1.27
7734.00,1.27
7732.00,1.27
7730.00,1.27
7728.00,1.27
7726.00,1.27
7724.00,1.27
7722.00,1.27
7720.00,1.27
7718.00,1.27
7716.00,1.27
7714.00,1.27
7712.00,1.27
7710.00,1.27
7708.00,1.27
7706.00,1.27
7704.00,1.27
7702.00,1.27
7700.00,1.27
7698.00,1.27
7696.00,1.27
7694.00,1.27
7692.00,1.27
7690.00,1.27
7688.00,1.27
7686.00,1.27
7684.00,1.27
7682.00,1.27
7680.00,1.27
7678.00,1.27
7676.00,1.27
7674.00,1.27
7672.00,1.27
7670.00,1.27
7668.00,1.27
7666.00,1.27
7664.00,1.27
7662.00,1.27
7660.00,1.27
7658.00,1.27
7656.00,1.27
7654.00,1.27
7652.00,1.28
7650.00,1.28
7648.00,1.28
7646.00,1.28
7644.00,1.28
7642.00,1.28
7640.00,1.28
7638.00,1.27
7636.00,1.27
7634.00,1.27
7632.00,1.27
7630.00,1.27
7628.00,1.27
7626.00,1.27
7624.00,1.27
7622.00,1.27
7620.00,1.27
7618.00,1.27
7616.00,1.27
7614.00,1.27
7612.00,1.27
7610.00,1.27
7608.00,1.26
7606.00,1.26
7604.00,1.26
7602.00,1.26
7600.00,1.26
7598.00,1.26
7596.00,1.26
7594.00,1.26
7592.00,1.26
7590.00,1.26
7588.00,1.26
7586.00,1.26
7584.00,1.26
7582.00,1.26
7580.00,1.26
7578.00,1.26
7576.00,1.26
7574.00,1.26
7572.00,1.26
7570.00,1.26
7568.00,1.27
7566.00,1.27
7564.00,1.27
7562.00,1.27
7560.00,1.27
7558.00,1.27
7556.00,1.27
7554.00,1.27
7552.00,1.27
7550.00,1.27
7548.00,1.27
7546.00,1.27
7544.00,1.27
7542.00,1.27
7540.00,1.27
7538.00,1.27
7536.00,1.27
7534.00,1.27
7532.00,1.27
7530.00,1.27
7528.00,1.27
7526.00,1.27
7524.00,1.27
7522.00,1.27
7520.00,1.27
7518.00,1.26
7516.00,1.26
7514.00,1.26
7512.00,1.26
7510.00,1.26
7508.00,1.26
7506.00,1.26
7504.00,1.26
7502.00,1.26
7500.00,1.26
7498.00,1.26
7496.00,1.26
7494.00,1.26
7492.00,1.26
7490.00,1.26
7488.00,1.26
7486.00,1.26
7484.00,1.26
7482.00,1.26
7480.00,1.26
7478.00,1.26
7476.00,1.26
7474.00,1.26
7472.00,1.26
7470.00,1.26
7468.00,1.26
7466.00,1.26
7464.00,1.26
7462.00,1.26
7460.00,1.26
7458.00,1.26
7456.00,1.26
7454.00,1.26
7452.00,1.26
7450.00,1.26
7448.00,1.26
7446.00,1.26
7444.00,1.26
7442.00,1.26
7440.00,1.26
7438.00,1.26
7436.00,1.26
7434.00,1.26
7432.00,1.26
7430.00,1.26
7428.00,1.26
7426.00,1.25
7424.00,1.25
7422.00,1.25
7420.00,1.25
7418.00,1.25
7416.00,1.25
7414.00,1.25
7412.00,1.25
7410.00,1.25
7408.00,1.25
7406.00,1.25
7404.00,1.25
7402.00,1.25
7400.00,1.25
7398.00,1.24
7396.00,1.24
7394.00,1.24
7392.00,1.24
7390.00,1.24
7388.00,1.24
7386.00,1.24
7384.00,1.24
7382.00,1.24
7380.00,1.24
7378.00,1.24
7376.00,1.24
7374.00,1.24
7372.00,1.24
7370.00,1.24
7368.00,1.24
7366.00,1.24
7364.00,1.24
7362.00,1.24
7360.00,1.24
7358.00,1.24
7356.00,1.24
7354.00,1.24
7352.00,1.24
7350.00,1.24
7348.00,1.24
7346.00,1.23
7344.00,1.23
7342.00,1.23
7340.00,1.23
7338.00,1.23
7336.00,1.23
7334.00,1.23
7332.00,1.23
7330.00,1.23
7328.00,1.23
7326.00,1.23
7324.00,1.23
7322.00,1.23
7320.00,1.23
7318.00,1.23
7316.00,1.23
7314.00,1.23
7312.00,1.23
7310.00,1.23
7308.00,1.23
7306.00,1.23
7304.00,1.23
7302.00,1.23
7300.00,1.23
7298.00,1.23
7296.00,1.23
7294.00,1.23
7292.00,1.23
7290.00,1.23
7288.00,1.23
7286.00,1.23
7284.00,1.23
7282.00,1.23
7280.00,1.23
7278.00,1.23
7276.00,1.23
7274.00,1.23
7272.00,1.23
7270.00,1.23
7268.00,1.22
7266.00,1.22
7264.00,1.22
7262.00,1.22
7260.00,1.22
7258.00,1.22
7256.00,1.22
7254.00,1.22
7252.00,1.22
7250.00,1.21
7248.00,1.21
7246.00,1.21
7244.00,1.21
7242.00,1.20
7240.00,1.20
7238.00,1.20
7236.00,1.20
7234.00,1.19
7232.00,1.19
7230.00,1.19
7228.00,1.19
7226.00,1.18
7224.00,1.18
7222.00,1.18
7220.00,1.18
7218.00,1.17
7216.00,1.17
7214.00,1.17
7212.00,1.17
7210.00,1.16
7208.00,1.16
7206.00,1.16
7204.00,1.16
7202.00,1.16
7200.00,1.15
7198.00,1.15
7196.00,1.15
7194.00,1.15
7192.00,1.15
7190.00,1.14
7188.00,1.14
7186.00,1.14
7184.00,1.14
7182.00,1.13
7180.00,1.13
7178.00,1.13
7176.00,1.13
7174.00,1.12
7172.00,1.12
7170.00,1.12
7168.00,1.12
7166.00,1.11
7164.00,1.11
7162.00,1.11
7160.00,1.11
7158.00,1.10
7156.00,1.10
7154.00,1.10
7152.00,1.09
7150.00,1.09
7148.00,1.09
7146.00,1.09
7144.00,1.09
7142.00,1.08
7140.00,1.08
7138.00,1.08
7136.00,1.08
7134.00,1.07
7132.00,1.07
7130.00,1.07
7128.00,1.07
7126.00,1.07
7124.00,1.07
7122.00,1.06
7120.00,1.06
7118.00,1.06
7116.00,1.06
7114.00,1.06
7112.00,1.06
7110.00,1.05
7108.00,1.05
7106.00,1.05
7104.00,1.05
7102.00,1.05
7100.00,1.04
7098.00,1.04
7096.00,1.04
7094.00,1.04
7092.00,1.04
7090.00,1.03
7088.00,1.03
7086.00,1.03
7084.00,1.03
7082.00,1.03
7080.00,1.03
7078.00,1.02
7076.00,1.02
7074.00,1.02
7072.00,1.02
7070.00,1.02
7068.00,1.02
7066.00,1.01
7064.00,1.01
7062.00,1.01
7060.00,1.01
7058.00,1.01
7056.00,1.01
7054.00,1.00
7052.00,1.00
7050.00,1.00
7048.00,1.00
7046.00,1.00
7044.00,0.99
7042.00,0.99
7040.00,0.99
7038.00,0.99
7036.00,0.99
7034.00,0.99
7032.00,0.99
7030.00,0.99
7028.00,0.99
7026.00,0.99
7024.00,0.98
7022.00,0.98
7020.00,0.98
7018.00,0.98
7016.00,0.98
7014.00,0.98
7012.00,0.98
7010.00,0.98
7008.00,0.98
7006.00,0.98
7004.00,0.98
7002.00,0.97
7000.00,0.97
6998.00,0.97
6996.00,0.97
6994.00,0.97
6992.00,0.97
6990.00,0.97
6988.00,0.97
6986.00,0.96
6984.00,0.96
6982.00,0.96
6980.00,0.96
6978.00,0.96
6976.00,0.96
6974.00,0.96
6972.00,0.96
6970.00,0.96
6968.00,0.96
6966.00,0.96
6964.00,0.95
6962.00,0.95
6960.00,0.95
6958.00,0.95
6956.00,0.95
6954.00,0.95
6952.00,0.95
6950.00,0.95
6948.00,0.95
6946.00,0.95
6944.00,0.94
6942.00,0.94
6940.00,0.94
6938.00,0.94
6936.00,0.94
6934.00,0.94
6932.00,0.94
6930.00,0.94
6928.00,0.94
6926.00,0.94
6924.00,0.94
6922.00,0.94
6920.00,0.94
6918.00,0.94
6916.00,0.94
6914.00,0.94
6912.00,0.94
6910.00,0.94
6908.00,0.94
6906.00,0.94
6904.00,0.94
6902.00,0.94
6900.00,0.94
6898.00,0.94
6896.00,0.94
6894.00,0.94
6892.00,0.94
6890.00,0.94
6888.00,0.94
6886.00,0.94
6884.00,0.94
6882.00,0.94
6880.00,0.94
6878.00,0.94
6876.00,0.94
6874.00,0.94
6872.00,0.94
6870.00,0.94
6868.00,0.94
6866.00,0.94
6864.00,0.94
6862.00,0.94
6860.00,0.94
6858.00,0.94
6856.00,0.94
6854.00,0.94
6852.00,0.94
6850.00,0.94
6848.00,0.94
6846.00,0.94
6844.00,0.94
6842.00,0.94
6840.00,0.94
6838.00,0.94
6836.00,0.94
6834.00,0.95
6832.00,0.95
6830.00,0.95
6828.00,0.95
6826.00,0.95
6824.00,0.95
6822.00,0.95
6820.00,0.95
6818.00,0.95
6816.00,0.95
6814.00,0.95
6812.00,0.95
6810.00,0.95
6808.00,0.95
6806.00,0.95
6804.00,0.95
6802.00,0.95
6800.00,0.96
6798.00,0.96
6796.00,0.96
6794.00,0.96
6792.00,0.96
6790.00,0.96
6788.00,0.96
6786.00,0.96
6784.00,0.96
6782.00,0.97
6780.00,0.97
6778.00,0.97
6776.00,0.97
6774.00,0.97
6772.00,0.97
6770.00,0.97
6768.00,0.97
6766.00,0.98
6764.00,0.98
6762.00,0.98
6760.00,0.98
6758.00,0.98
6756.00,0.98
6754.00,0.98
6752.00,0.98
6750.00,0.98
6748.00,0.98
6746.00,0.98
6744.00,0.98
6742.00,0.98
6740.00,0.98
6738.00,0.98
6736.00,0.98
6734.00,0.99
6732.00,0.99
6730.00,0.99
6728.00,0.99
6726.00,0.99
6724.00,0.99
6722.00,0.99
6720.00,0.99
6718.00,1.00
6716.00,1.00
6714.00,1.00
6712.00,1.00
6710.00,1.00
6708.00,1.00
6706.00,1.01
6704.00,1.01
6702.00,1.01
6700.00,1.01
6698.00,1.01
6696.00,1.01
6694.00,1.01
6692.00,1.01
6690.00,1.02
6688.00,1.02
6686.00,1.02
6684.00,1.02
6682.00,1.02
6680.00,1.02
6678.00,1.02
6676.00,1.02
6674.00,1.03
6672.00,1.03
6670.00,1.03
6668.00,1.03
6666.00,1.03
6664.00,1.03
6662.00,1.03
6660.00,1.03
6658.00,1.03
6656.00,1.03
6654.00,1.03
6652.00,1.04
6650.00,1.04
6648.00,1.04
6646.00,1.04
6644.00,1.04
6642.00,1.04
6640.00,1.04
6638.00,1.04
6636.00,1.04
6634.00,1.05
6632.00,1.05
6630.00,1.05
6628.00,1.05
6626.00,1.05
6624.00,1.05
6622.00,1.05
6620.00,1.06
6618.00,1.06
6616.00,1.06
6614.00,1.06
6612.00,1.06
6610.00,1.06
6608.00,1.06
6606.00,1.07
6604.00,1.07
6602.00,1.07
6600.00,1.07
6598.00,1.07
6596.00,1.07
6594.00,1.07
6592.00,1.07
6590.00,1.08
6588.00,1.08
6586.00,1.08
6584.00,1.08
6582.00,1.08
6580.00,1.08
6578.00,1.08
6576.00,1.08
6574.00,1.08
6572.00,1.08
6570.00,1.08
6568.00,1.08
6566.00,1.08
6564.00,1.08
6562.00,1.09
6560.00,1.09
6558.00,1.09
6556.00,1.09
6554.00,1.09
6552.00,1.09
6550.00,1.09
6548.00,1.09
6546.00,1.09
6544.00,1.09
6542.00,1.09
6540.00,1.10
6538.00,1.10
6536.00,1.10
6534.00,1.10
6532.00,1.10
6530.00,1.10
6528.00,1.10
6526.00,1.10
6524.00,1.10
6522.00,1.10
6520.00,1.10
6518.00,1.10
6516.00,1.10
6514.00,1.10
6512.00,1.11
6510.00,1.11
6508.00,1.11
6506.00,1.11
6504.00,1.11
6502.00,1.11
6500.00,1.11
6498.00,1.11
6496.00,1.11
6494.00,1.11
6492.00,1.11
6490.00,1.11
6488.00,1.12
6486.00,1.12
6484.00,1.12
6482.00,1.12
6480.00,1.12
6478.00,1.12
6476.00,1.12
6474.00,1.12
6472.00,1.12
6470.00,1.13
6468.00,1.13
6466.00,1.13
6464.00,1.13
6462.00,1.13
6460.00,1.13
6458.00,1.13
6456.00,1.13
6454.00,1.13
6452.00,1.13
6450.00,1.13
6448.00,1.13
6446.00,1.13
6444.00,1.13
6442.00,1.13
6440.00,1.13
6438.00,1.14
6436.00,1.14
6434.00,1.14
6432.00,1.14
6430.00,1.14
6428.00,1.14
6426.00,1.14
6424.00,1.14
6422.00,1.14
6420.00,1.14
6418.00,1.14
6416.00,1.14
6414.00,1.14
6412.00,1.14
6410.00,1.14
6408.00,1.14
6406.00,1.14
6404.00,1.14
6402.00,1.14
6400.00,1.14
6398.00,1.14
6396.00,1.15
6394.00,1.15
6392.00,1.15
6390.00,1.15
6388.00,1.15
6386.00,1.15
6384.00,1.15
6382.00,1.15
6380.00,1.15
6378.00,1.15
6376.00,1.15
6374.00,1.15
6372.00,1.15
6370.00,1.15
6368.00,1.15
6366.00,1.15
6364.00,1.15
6362.00,1.15
6360.00,1.15
6358.00,1.15
6356.00,1.16
6354.00,1.16
6352.00,1.16
6350.00,1.16
6348.00,1.16
6346.00,1.16
6344.00,1.16
6342.00,1.16
6340.00,1.16
6338.00,1.17
6336.00,1.17
6334.00,1.17
6332.00,1.17
6330.00,1.17
6328.00,1.17
6326.00,1.17
6324.00,1.17
6322.00,1.17
6320.00,1.17
6318.00,1.18
6316.00,1.18
6314.00,1.18
6312.00,1.18
6310.00,1.18
6308.00,1.18
6306.00,1.18
6304.00,1.18
6302.00,1.18
6300.00,1.18
6298.00,1.18
6296.00,1.19
6294.00,1.19
6292.00,1.19
6290.00,1.19
6288.00,1.19
6286.00,1.19
6284.00,1.19
6282.00,1.19
6280.00,1.19
6278.00,1.19
6276.00,1.19
6274.00,1.19
6272.00,1.19
6270.00,1.20
6268.00,1.20
6266.00,1.20
6264.00,1.20
6262.00,1.20
6260.00,1.20
6258.00,1.20
6256.00,1.20
6254.00,1.20
6252.00,1.20
6250.00,1.20
6248.00,1.20
6246.00,1.20
6244.00,1.20
6242.00,1.20
6240.00,1.20
6238.00,1.21
6236.00,1.21
6234.00,1.21
6232.00,1.21
6230.00,1.21
6228.00,1.21
6226.00,1.21
6224.00,1.21
6222.00,1.21
6220.00,1.21
6218.00,1.21
6216.00,1.21
6214.00,1.21
6212.00,1.21
6210.00,1.21
6208.00,1.21
6206.00,1.21
6204.00,1.21
6202.00,1.21
6200.00,1.22
6198.00,1.22
6196.00,1.22
6194.00,1.22
6192.00,1.22
6190.00,1.22
6188.00,1.22
6186.00,1.22
6184.00,1.22
6182.00,1.22
6180.00,1.22
6178.00,1.23
6176.00,1.23
6174.00,1.23
6172.00,1.23
6170.00,1.23
6168.00,1.23
6166.00,1.23
6164.00,1.23
6162.00,1.23
6160.00,1.23
6158.00,1.23
6156.00,1.23
6154.00,1.24
6152.00,1.24
6150.00,1.24
6148.00,1.24
6146.00,1.24
6144.00,1.24
6142.00,1.24
6140.00,1.24
6138.00,1.24
6136.00,1.24
6134.00,1.24
6132.00,1.24
6130.00,1.25
6128.00,1.25
6126.00,1.25
6124.00,1.25
6122.00,1.25
6120.00,1.25
6118.00,1.25
6116.00,1.25
6114.00,1.25
6112.00,1.25
6110.00,1.25
6108.00,1.25
6106.00,1.25
6104.00,1.25
6102.00,1.26
6100.00,1.26
6098.00,1.26
6096.00,1.26
6094.00,1.26
6092.00,1.26
6090.00,1.26
6088.00,1.26
6086.00,1.26
6084.00,1.26
6082.00,1.26
6080.00,1.26
6078.00,1.26
6076.00,1.26
6074.00,1.26
6072.00,1.26
6070.00,1.26
6068.00,1.27
6066.00,1.27
6064.00,1.27
6062.00,1.27
6060.00,1.27
6058.00,1.27
6056.00,1.27
6054.00,1.27
6052.00,1.27
6050.00,1.27
6048.00,1.27
6046.00,1.27
6044.00,1.27
6042.00,1.27
6040.00,1.27
6038.00,1.27
6036.00,1.27
6034.00,1.27
6032.00,1.27
6030.00,1.27
6028.00,1.27
6026.00,1.27
6024.00,1.27
6022.00,1.27
6020.00,1.27
6018.00,1.27
6016.00,1.28
6014.00,1.28
6012.00,1.28
6010.00,1.28
6008.00,1.28
6006.00,1.28
6004.00,1.28
6002.00,1.28
6000.00,1.27
5998.00,1.27
5996.00,1.27
5994.00,1.27
5992.00,1.27
5990.00,1.27
5988.00,1.27
5986.00,1.27
5984.00,1.27
5982.00,1.26
5980.00,1.26
5978.00,1.26
5976.00,1.26
5974.00,1.26
5972.00,1.25
5970.00,1.25
5968.00,1.25
5966.00,1.25
5964.00,1.24
5962.00,1.24
5960.00,1.24
5958.00,1.24
5956.00,1.24
5954.00,1.23
5952.00,1.23
5950.00,1.23
5948.00,1.23
5946.00,1.22
5944.00,1.22
5942.00,1.22
5940.00,1.22
5938.00,1.22
5936.00,1.22
5934.00,1.21
5932.00,1.21
5930.00,1.21
5928.00,1.21
5926.00,1.21
5924.00,1.21
5922.00,1.21
5920.00,1.21
5918.00,1.21
5916.00,1.20
5914.00,1.20
5912.00,1.20
5910.00,1.20
5908.00,1.20
5906.00,1.20
5904.00,1.20
5902.00,1.20
5900.00,1.20
5898.00,1.20
5896.00,1.20
5894.00,1.21
5892.00,1.21
5890.00,1.21
5888.00,1.21
5886.00,1.21
5884.00,1.21
5882.00,1.21
5880.00,1.21
5878.00,1.21
5876.00,1.22
5874.00,1.22
5872.00,1.22
5870.00,1.22
5868.00,1.22
5866.00,1.22
5864.00,1.22
5862.00,1.22
5860.00,1.22
5858.00,1.23
5856.00,1.23
5854.00,1.23
5852.00,1.23
5850.00,1.23
5848.00,1.23
5846.00,1.23
5844.00,1.23
5842.00,1.23
5840.00,1.23
5838.00,1.23
5836.00,1.23
5834.00,1.23
5832.00,1.23
5830.00,1.23
5828.00,1.23
5826.00,1.23
5824.00,1.23
5822.00,1.23
5820.00,1.23
5818.00,1.23
5816.00,1.23
5814.00,1.23
5812.00,1.23
5810.00,1.22
5808.00,1.22
5806.00,1.22
5804.00,1.22
5802.00,1.22
5800.00,1.22
5798.00,1.22
5796.00,1.22
5794.00,1.22
5792.00,1.22
5790.00,1.22
5788.00,1.22
5786.00,1.22
5784.00,1.22
5782.00,1.22
5780.00,1.22
5778.00,1.22
5776.00,1.22
5774.00,1.22
5772.00,1.22
5770.00,1.22
5768.00,1.22
5766.00,1.22
5764.00,1.22
5762.00,1.22
5760.00,1.22
5758.00,1.22
5756.00,1.22
5754.00,1.22
5752.00,1.22
5750.00,1.22
5748.00,1.23
5746.00,1.23
5744.00,1.23
5742.00,1.23
5740.00,1.23
5738.00,1.23
5736.00,1.23
5734.00,1.23
5732.00,1.23
5730.00,1.23
5728.00,1.24
5726.00,1.24
5724.00,1.24
5722.00,1.24
5720.00,1.24
5718.00,1.24
5716.00,1.24
5714.00,1.24
5712.00,1.23
5710.00,1.23
5708.00,1.23
5706.00,1.23
5704.00,1.23
5702.00,1.23
5700.00,1.23
5698.00,1.23
5696.00,1.23
5694.00,1.23
5692.00,1.23
5690.00,1.23
5688.00,1.23
5686.00,1.23
5684.00,1.22
5682.00,1.22
5680.00,1.22
5678.00,1.22
5676.00,1.22
5674.00,1.23
5672.00,1.23
5670.00,1.23
5668.00,1.23
5666.00,1.23
5664.00,1.23
5662.00,1.23
5660.00,1.23
5658.00,1.23
5656.00,1.23
5654.00,1.23
5652.00,1.23
5650.00,1.23
5648.00,1.23
5646.00,1.23
5644.00,1.23
5642.00,1.23
5640.00,1.24
5638.00,1.24
5636.00,1.24
5634.00,1.24
5632.00,1.24
5630.00,1.24
5628.00,1.24
5626.00,1.24
5624.00,1.24
5622.00,1.24
5620.00,1.24
5618.00,1.24
5616.00,1.24
5614.00,1.25
5612.00,1.25
5610.00,1.25
5608.00,1.25
5606.00,1.25
5604.00,1.25
5602.00,1.25
5600.00,1.25
5598.00,1.25
5596.00,1.25
5594.00,1.25
5592.00,1.25
5590.00,1.25
5588.00,1.25
5586.00,1.26
5584.00,1.26
5582.00,1.26
5580.00,1.26
5578.00,1.26
5576.00,1.26
5574.00,1.26
5572.00,1.26
5570.00,1.26
5568.00,1.26
5566.00,1.26
5564.00,1.26
5562.00,1.27
5560.00,1.27
5558.00,1.27
5556.00,1.27
5554.00,1.27
5552.00,1.27
5550.00,1.27
5548.00,1.27
5546.00,1.27
5544.00,1.27
5542.00,1.27
5540.00,1.27
5538.00,1.27
5536.00,1.27
5534.00,1.27
5532.00,1.27
5530.00,1.27
5528.00,1.27
5526.00,1.27
5524.00,1.27
5522.00,1.27
5520.00,1.27
5518.00,1.27
5516.00,1.27
5514.00,1.27
5512.00,1.27
5510.00,1.27
5508.00,1.27
5506.00,1.27
5504.00,1.27
5502.00,1.27
5500.00,1.27
5498.00,1.27
5496.00,1.27
5494.00,1.27
5492.00,1.27
5490.00,1.27
5488.00,1.27
5486.00,1.27
5484.00,1.27
5482.00,1.27
5480.00,1.27
5478.00,1.27
5476.00,1.27
5474.00,1.28
5472.00,1.28
5470.00,1.28
5468.00,1.28
5466.00,1.28
5464.00,1.28
5462.00,1.28
5460.00,1.28
5458.00,1.28
5456.00,1.28
5454.00,1.28
5452.00,1.28
5450.00,1.28
5448.00,1.28
5446.00,1.28
5444.00,1.28
5442.00,1.28
5440.00,1.28
5438.00,1.28
5436.00,1.28
5434.00,1.28
5432.00,1.28
5430.00,1.28
5428.00,1.28
5426.00,1.28
5424.00,1.28
5422.00,1.28
5420.00,1.28
5418.00,1.28
5416.00,1.28
5414.00,1.28
5412.00,1.28
5410.00,1.28
5408.00,1.28
5406.00,1.28
5404.00,1.28
5402.00,1.28
5400.00,1.28
5398.00,1.28
5396.00,1.27
5394.00,1.27
5392.00,1.27
5390.00,1.27
5388.00,1.27
5386.00,1.27
5384.00,1.27
5382.00,1.26
5380.00,1.26
5378.00,1.26
5376.00,1.26
5374.00,1.25
5372.00,1.25
5370.00,1.25
5368.00,1.24
5366.00,1.24
5364.00,1.23
5362.00,1.23
5360.00,1.22
5358.00,1.22
5356.00,1.21
5354.00,1.21
5352.00,1.20
5350.00,1.20
5348.00,1.19
5346.00,1.18
5344.00,1.17
5342.00,1.17
5340.00,1.16
5338.00,1.15
5336.00,1.14
5334.00,1.13
5332.00,1.12
5330.00,1.12
5328.00,1.11
5326.00,1.10
5324.00,1.09
5322.00,1.08
5320.00,1.06
5318.00,1.05
5316.00,1.04
5314.00,1.03
5312.00,1.02
5310.00,1.01
5308.00,1.00
5306.00,0.99
5304.00,0.97
5302.00,0.96
5300.00,0.95
5298.00,0.94
5296.00,0.93
5294.00,0.92
5292.00,0.91
5290.00,0.90
5288.00,0.89
5286.00,0.88
5284.00,0.87
5282.00,0.86
5280.00,0.85
5278.00,0.84
5276.00,0.84
5274.00,0.83
5272.00,0.82
5270.00,0.81
5268.00,0.81
5266.00,0.80
5264.00,0.79
5262.00,0.79
5260.00,0.78
5258.00,0.78
5256.00,0.77
5254.00,0.77
5252.00,0.76
5250.00,0.76
5248.00,0.75
5246.00,0.75
5244.00,0.75
5242.00,0.74
5240.00,0.74
5238.00,0.73
5236.00,0.73
5234.00,0.73
5232.00,0.73
5230.00,0.72
5228.00,0.72
5226.00,0.72
5224.00,0.71
5222.00,0.71
5220.00,0.71
5218.00,0.71
5216.00,0.71
5214.00,0.70
5212.00,0.70
5210.00,0.70
5208.00,0.70
5206.00,0.70
5204.00,0.69
5202.00,0.69
5200.00,0.69
5198.00,0.69
5196.00,0.69
5194.00,0.69
5192.00,0.69
5190.00,0.69
5188.00,0.69
5186.00,0.68
5184.00,0.68
5182.00,0.68
5180.00,0.68
5178.00,0.68
5176.00,0.68
5174.00,0.68
5172.00,0.68
5170.00,0.68
5168.00,0.68
5166.00,0.68
5164.00,0.68
5162.00,0.69
5160.00,0.69
5158.00,0.69
5156.00,0.69
5154.00,0.69
5152.00,0.69
5150.00,0.69
5148.00,0.69
5146.00,0.69
5144.00,0.70
5142.00,0.70
5140.00,0.70
5138.00,0.70
5136.00,0.70
5134.00,0.70
5132.00,0.71
5130.00,0.71
5128.00,0.71
5126.00,0.71
5124.00,0.71
5122.00,0.72
5120.00,0.72
5118.00,0.72
5116.00,0.72
5114.00,0.72
5112.00,0.73
5110.00,0.73
5108.00,0.73
5106.00,0.73
5104.00,0.74
5102.00,0.74
5100.00,0.74
5098.00,0.74
5096.00,0.75
5094.00,0.75
5092.00,0.75
5090.00,0.75
5088.00,0.76
5086.00,0.76
5084.00,0.76
5082.00,0.76
5080.00,0.77
5078.00,0.77
5076.00,0.77
5074.00,0.77
5072.00,0.78
5070.00,0.78
5068.00,0.78
5066.00,0.79
5064.00,0.79
5062.00,0.79
5060.00,0.80
5058.00,0.80
5056.00,0.80
5054.00,0.81
5052.00,0.81
5050.00,0.81
5048.00,0.82
5046.00,0.82
5044.00,0.82
5042.00,0.83
5040.00,0.83
5038.00,0.83
5036.00,0.84
5034.00,0.84
5032.00,0.84
5030.00,0.85
5028.00,0.85
5026.00,0.85
5024.00,0.85
5022.00,0.86
5020.00,0.86
5018.00,0.86
5016.00,0.87
5014.00,0.87
5012.00,0.87
5010.00,0.87
5008.00,0.88
5006.00,0.88
5004.00,0.88
5002.00,0.89
5000.00,0.89
4998.00,0.89
4996.00,0.89
4994.00,0.90
4992.00,0.90
4990.00,0.90
4988.00,0.91
4986.00,0.91
4984.00,0.91
4982.00,0.91
4980.00,0.92
4978.00,0.92
4976.00,0.92
4974.00,0.92
4972.00,0.93
4970.00,0.93
4968.00,0.93
4966.00,0.93
4964.00,0.94
4962.00,0.94
4960.00,0.94
4958.00,0.94
4956.00,0.95
4954.00,0.95
4952.00,0.95
4950.00,0.95
4948.00,0.96
4946.00,0.96
4944.00,0.96
4942.00,0.96
4940.00,0.97
4938.00,0.97
4936.00,0.97
4934.00,0.97
4932.00,0.97
4930.00,0.98
4928.00,0.98
4926.00,0.98
4924.00,0.98
4922.00,0.98
4920.00,0.99
4918.00,0.99
4916.00,0.99
4914.00,0.99
4912.00,0.99
4910.00,0.99
4908.00,1.00
4906.00,1.00
4904.00,1.00
4902.00,1.00
4900.00,1.00
4898.00,1.00
4896.00,1.00
4894.00,1.01
4892.00,1.01
4890.00,1.01
4888.00,1.01
4886.00,1.01
4884.00,1.01
4882.00,1.01
4880.00,1.01
4878.00,1.02
4876.00,1.02
4874.00,1.02
4872.00,1.02
4870.00,1.02
4868.00,1.02
4866.00,1.02
4864.00,1.03
4862.00,1.03
4860.00,1.03
4858.00,1.03
4856.00,1.03
4854.00,1.03
4852.00,1.04
4850.00,1.04
4848.00,1.04
4846.00,1.04
4844.00,1.04
4842.00,1.04
4840.00,1.05
4838.00,1.05
4836.00,1.05
4834.00,1.05
4832.00,1.05
4830.00,1.05
4828.00,1.06
4826.00,1.06
4824.00,1.06
4822.00,1.06
4820.00,1.06
4818.00,1.06
4816.00,1.07
4814.00,1.07
4812.00,1.07
4810.00,1.07
4808.00,1.07
4806.00,1.08
4804.00,1.08
4802.00,1.08
4800.00,1.08
4798.00,1.08
4796.00,1.09
4794.00,1.09
4792.00,1.09
4790.00,1.09
4788.00,1.10
4786.00,1.10
4784.00,1.10
4782.00,1.10
4780.00,1.11
4778.00,1.11
4776.00,1.11
4774.00,1.12
4772.00,1.12
4770.00,1.12
4768.00,1.12
4766.00,1.12
4764.00,1.13
4762.00,1.13
4760.00,1.13
4758.00,1.13
4756.00,1.14
4754.00,1.14
4752.00,1.14
4750.00,1.14
4748.00,1.15
4746.00,1.15
4744.00,1.15
4742.00,1.15
4740.00,1.15
4738.00,1.16
4736.00,1.16
4734.00,1.16
4732.00,1.16
4730.00,1.17
4728.00,1.17
4726.00,1.17
4724.00,1.17
4722.00,1.18
4720.00,1.18
4718.00,1.18
4716.00,1.18
4714.00,1.18
4712.00,1.19
4710.00,1.19
4708.00,1.19
4706.00,1.19
4704.00,1.19
4702.00,1.20
4700.00,1.20
4698.00,1.20
4696.00,1.20
4694.00,1.20
4692.00,1.20
4690.00,1.21
4688.00,1.21
4686.00,1.21
4684.00,1.21
4682.00,1.21
4680.00,1.21
4678.00,1.21
4676.00,1.22
4674.00,1.22
4672.00,1.22
4670.00,1.22
4668.00,1.22
4666.00,1.22
4664.00,1.23
4662.00,1.23
4660.00,1.23
4658.00,1.23
4656.00,1.23
4654.00,1.23
4652.00,1.23
4650.00,1.24
4648.00,1.24
4646.00,1.24
4644.00,1.24
4642.00,1.24
4640.00,1.24
4638.00,1.24
4636.00,1.25
4634.00,1.25
4632.00,1.25
4630.00,1.25
4628.00,1.25
4626.00,1.25
4624.00,1.25
4622.00,1.25
4620.00,1.25
4618.00,1.25
4616.00,1.25
4614.00,1.25
4612.00,1.26
4610.00,1.26
4608.00,1.26
4606.00,1.26
4604.00,1.26
4602.00,1.26
4600.00,1.26
4598.00,1.26
4596.00,1.26
4594.00,1.26
4592.00,1.26
4590.00,1.26
4588.00,1.26
4586.00,1.26
4584.00,1.26
4582.00,1.26
4580.00,1.27
4578.00,1.27
4576.00,1.27
4574.00,1.27
4572.00,1.27
4570.00,1.27
4568.00,1.27
4566.00,1.27
4564.00,1.27
4562.00,1.27
4560.00,1.27
4558.00,1.27
4556.00,1.27
4554.00,1.27
4552.00,1.27
4550.00,1.27
4548.00,1.27
4546.00,1.27
4544.00,1.27
4542.00,1.27
4540.00,1.27
4538.00,1.27
4536.00,1.27
4534.00,1.27
4532.00,1.27
4530.00,1.27
4528.00,1.27
4526.00,1.27
4524.00,1.27
4522.00,1.27
4520.00,1.28
4518.00,1.28
4516.00,1.28
4514.00,1.28
4512.00,1.28
4510.00,1.28
4508.00,1.28
4506.00,1.28
4504.00,1.28
4502.00,1.28
4500.00,1.28
4498.00,1.28
4496.00,1.28
4494.00,1.28
4492.00,1.28
4490.00,1.28
4488.00,1.28
4486.00,1.28
4484.00,1.28
4482.00,1.28
4480.00,1.28
4478.00,1.27
4476.00,1.27
4474.00,1.27
4472.00,1.27
4470.00,1.27
4468.00,1.27
4466.00,1.26
4464.00,1.26
4462.00,1.26
4460.00,1.25
4458.00,1.25
4456.00,1.24
4454.00,1.24
4452.00,1.23
4450.00,1.22
4448.00,1.22
4446.00,1.21
4444.00,1.20
4442.00,1.19
4440.00,1.19
4438.00,1.18
4436.00,1.17
4434.00,1.16
4432.00,1.15
4430.00,1.14
4428.00,1.13
4426.00,1.13
4424.00,1.12
4422.00,1.11
4420.00,1.11
4418.00,1.10
4416.00,1.10
4414.00,1.10
4412.00,1.09
4410.00,1.09
4408.00,1.09
4406.00,1.09
4404.00,1.09
4402.00,1.09
4400.00,1.10
4398.00,1.10
4396.00,1.10
4394.00,1.11
4392.00,1.11
4390.00,1.12
4388.00,1.12
4386.00,1.13
4384.00,1.13
4382.00,1.13
4380.00,1.14
4378.00,1.14
4376.00,1.14
4374.00,1.14
4372.00,1.14
4370.00,1.14
4368.00,1.14
4366.00,1.14
4364.00,1.14
4362.00,1.14
4360.00,1.14
4358.00,1.14
4356.00,1.13
4354.00,1.13
4352.00,1.13
4350.00,1.13
4348.00,1.13
4346.00,1.12
4344.00,1.12
4342.00,1.12
4340.00,1.13
4338.00,1.13
4336.00,1.13
4334.00,1.13
4332.00,1.14
4330.00,1.14
4328.00,1.15
4326.00,1.15
4324.00,1.16
4322.00,1.16
4320.00,1.17
4318.00,1.18
4316.00,1.18
4314.00,1.19
4312.00,1.20
4310.00,1.20
4308.00,1.21
4306.00,1.21
4304.00,1.22
4302.00,1.22
4300.00,1.23
4298.00,1.23
4296.00,1.24
4294.00,1.24
4292.00,1.24
4290.00,1.24
4288.00,1.25
4286.00,1.25
4284.00,1.25
4282.00,1.25
4280.00,1.25
4278.00,1.25
4276.00,1.25
4274.00,1.25
4272.00,1.25
4270.00,1.25
4268.00,1.25
4266.00,1.25
4264.00,1.25
4262.00,1.25
4260.00,1.25
4258.00,1.25
4256.00,1.25
4254.00,1.25
4252.00,1.25
4250.00,1.25
4248.00,1.25
4246.00,1.25
4244.00,1.25
4242.00,1.25
4240.00,1.25
4238.00,1.25
4236.00,1.26
4234.00,1.26
4232.00,1.26
4230.00,1.26
4228.00,1.27
4226.00,1.27
4224.00,1.27
4222.00,1.27
4220.00,1.27
4218.00,1.27
4216.00,1.28
4214.00,1.28
4212.00,1.28
4210.00,1.28
4208.00,1.28
4206.00,1.28
4204.00,1.28
4202.00,1.28
4200.00,1.28
4198.00,1.28
4196.00,1.28
4194.00,1.28
4192.00,1.28
4190.00,1.28
4188.00,1.28
4186.00,1.28
4184.00,1.28
4182.00,1.28
4180.00,1.27
4178.00,1.27
4176.00,1.27
4174.00,1.27
4172.00,1.27
4170.00,1.27
4168.00,1.27
4166.00,1.27
4164.00,1.27
4162.00,1.27
4160.00,1.27
4158.00,1.27
4156.00,1.27
4154.00,1.27
4152.00,1.27
4150.00,1.27
4148.00,1.27
4146.00,1.27
4144.00,1.27
4142.00,1.27
4140.00,1.27
4138.00,1.27
4136.00,1.27
4134.00,1.27
4132.00,1.27
4130.00,1.27
4128.00,1.27
4126.00,1.27
4124.00,1.26
4122.00,1.26
4120.00,1.26
4118.00,1.26
4116.00,1.26
4114.00,1.26
4112.00,1.26
4110.00,1.26
4108.00,1.26
4106.00,1.26
4104.00,1.26
4102.00,1.26
4100.00,1.26
4098.00,1.26
4096.00,1.26
4094.00,1.26
4092.00,1.26
4090.00,1.26
4088.00,1.25
4086.00,1.25
4084.00,1.25
4082.00,1.25
4080.00,1.25
4078.00,1.25
4076.00,1.24
4074.00,1.24
4072.00,1.24
4070.00,1.24
4068.00,1.24
4066.00,1.24
4064.00,1.24
4062.00,1.24
4060.00,1.24
4058.00,1.24
4056.00,1.24
4054.00,1.24
4052.00,1.24
4050.00,1.24
4048.00,1.24
4046.00,1.24
4044.00,1.24
4042.00,1.24
4040.00,1.24
4038.00,1.25
4036.00,1.25
4034.00,1.25
4032.00,1.25
4030.00,1.25
4028.00,1.25
4026.00,1.25
4024.00,1.26
4022.00,1.26
4020.00,1.26
4018.00,1.26
4016.00,1.26
4014.00,1.26
4012.00,1.27
4010.00,1.27
4008.00,1.27
4006.00,1.28
4004.00,1.28
4002.00,1.28
4000.00,1.28
