创建为新数据集,样品 1141 用户 Administrator 日期 星期二, 七月 30 2019
cm-1,%T
10000.00,2.11
9999.00,2.10
9998.00,2.09
9997.00,2.08
9996.00,2.07
9995.00,2.05
9994.00,2.04
9993.00,2.03
9992.00,2.02
9991.00,2.01
9990.00,2.00
9989.00,1.98
9988.00,1.97
9987.00,1.96
9986.00,1.95
9985.00,1.93
9984.00,1.92
9983.00,1.90
9982.00,1.89
9981.00,1.88
9980.00,1.86
9979.00,1.85
9978.00,1.84
9977.00,1.83
9976.00,1.82
9975.00,1.82
9974.00,1.81
9973.00,1.81
9972.00,1.80
9971.00,1.80
9970.00,1.80
9969.00,1.80
9968.00,1.81
9967.00,1.81
9966.00,1.81
9965.00,1.81
9964.00,1.81
9963.00,1.82
9962.00,1.82
9961.00,1.81
9960.00,1.81
9959.00,1.80
9958.00,1.80
9957.00,1.79
9956.00,1.77
9955.00,1.76
9954.00,1.74
9953.00,1.73
9952.00,1.71
9951.00,1.69
9950.00,1.67
9949.00,1.66
9948.00,1.64
9947.00,1.63
9946.00,1.62
9945.00,1.61
9944.00,1.60
9943.00,1.59
9942.00,1.59
9941.00,1.58
9940.00,1.58
9939.00,1.57
9938.00,1.57
9937.00,1.57
9936.00,1.57
9935.00,1.57
9934.00,1.58
9933.00,1.58
9932.00,1.59
9931.00,1.60
9930.00,1.61
9929.00,1.63
9928.00,1.65
9927.00,1.66
9926.00,1.68
9925.00,1.71
9924.00,1.73
9923.00,1.75
9922.00,1.77
9921.00,1.79
9920.00,1.80
9919.00,1.82
9918.00,1.83
9917.00,1.85
9916.00,1.86
9915.00,1.87
9914.00,1.88
9913.00,1.89
9912.00,1.91
9911.00,1.92
9910.00,1.93
9909.00,1.94
9908.00,1.95
9907.00,1.97
9906.00,1.98
9905.00,2.00
9904.00,2.01
9903.00,2.03
9902.00,2.05
9901.00,2.07
9900.00,2.09
9899.00,2.11
9898.00,2.13
9897.00,2.15
9896.00,2.16
9895.00,2.18
9894.00,2.19
9893.00,2.20
9892.00,2.20
9891.00,2.20
9890.00,2.20
9889.00,2.19
9888.00,2.19
9887.00,2.17
9886.00,2.16
9885.00,2.14
9884.00,2.12
9883.00,2.10
9882.00,2.08
9881.00,2.06
9880.00,2.03
9879.00,2.01
9878.00,1.98
9877.00,1.94
9876.00,1.91
9875.00,1.87
9874.00,1.83
9873.00,1.79
9872.00,1.75
9871.00,1.71
9870.00,1.67
9869.00,1.63
9868.00,1.59
9867.00,1.56
9866.00,1.53
9865.00,1.50
9864.00,1.47
9863.00,1.45
9862.00,1.43
9861.00,1.41
9860.00,1.40
9859.00,1.39
9858.00,1.38
9857.00,1.37
9856.00,1.36
9855.00,1.36
9854.00,1.36
9853.00,1.36
9852.00,1.35
9851.00,1.35
9850.00,1.35
9849.00,1.36
9848.00,1.36
9847.00,1.36
9846.00,1.36
9845.00,1.36
9844.00,1.36
9843.00,1.36
9842.00,1.37
9841.00,1.37
9840.00,1.37
9839.00,1.38
9838.00,1.39
9837.00,1.40
9836.00,1.41
9835.00,1.42
9834.00,1.44
9833.00,1.45
9832.00,1.46
9831.00,1.48
9830.00,1.49
9829.00,1.50
9828.00,1.51
9827.00,1.52
9826.00,1.53
9825.00,1.55
9824.00,1.56
9823.00,1.58
9822.00,1.59
9821.00,1.61
9820.00,1.63
9819.00,1.66
9818.00,1.68
9817.00,1.70
9816.00,1.72
9815.00,1.73
9814.00,1.75
9813.00,1.76
9812.00,1.77
9811.00,1.78
9810.00,1.78
9809.00,1.78
9808.00,1.79
9807.00,1.79
9806.00,1.79
9805.00,1.79
9804.00,1.79
9803.00,1.79
9802.00,1.78
9801.00,1.78
9800.00,1.78
9799.00,1.77
9798.00,1.77
9797.00,1.76
9796.00,1.75
9795.00,1.74
9794.00,1.72
9793.00,1.71
9792.00,1.69
9791.00,1.67
9790.00,1.65
9789.00,1.64
9788.00,1.62
9787.00,1.61
9786.00,1.60
9785.00,1.58
9784.00,1.57
9783.00,1.56
9782.00,1.55
9781.00,1.54
9780.00,1.54
9779.00,1.53
9778.00,1.53
9777.00,1.52
9776.00,1.52
9775.00,1.52
9774.00,1.52
9773.00,1.52
9772.00,1.52
9771.00,1.53
9770.00,1.53
9769.00,1.54
9768.00,1.55
9767.00,1.57
9766.00,1.58
9765.00,1.60
9764.00,1.62
9763.00,1.64
9762.00,1.66
9761.00,1.67
9760.00,1.69
9759.00,1.71
9758.00,1.73
9757.00,1.75
9756.00,1.77
9755.00,1.79
9754.00,1.80
9753.00,1.81
9752.00,1.83
9751.00,1.84
9750.00,1.85
9749.00,1.86
9748.00,1.86
9747.00,1.87
9746.00,1.87
9745.00,1.88
9744.00,1.88
9743.00,1.87
9742.00,1.87
9741.00,1.86
9740.00,1.85
9739.00,1.83
9738.00,1.82
9737.00,1.80
9736.00,1.79
9735.00,1.77
9734.00,1.75
9733.00,1.73
9732.00,1.72
9731.00,1.70
9730.00,1.68
9729.00,1.67
9728.00,1.65
9727.00,1.64
9726.00,1.62
9725.00,1.61
9724.00,1.59
9723.00,1.57
9722.00,1.55
9721.00,1.53
9720.00,1.51
9719.00,1.49
9718.00,1.47
9717.00,1.46
9716.00,1.44
9715.00,1.43
9714.00,1.42
9713.00,1.42
9712.00,1.42
9711.00,1.42
9710.00,1.42
9709.00,1.42
9708.00,1.42
9707.00,1.42
9706.00,1.42
9705.00,1.42
9704.00,1.42
9703.00,1.42
9702.00,1.41
9701.00,1.41
9700.00,1.41
9699.00,1.41
9698.00,1.41
9697.00,1.42
9696.00,1.42
9695.00,1.43
9694.00,1.44
9693.00,1.45
9692.00,1.46
9691.00,1.47
9690.00,1.48
9689.00,1.49
9688.00,1.50
9687.00,1.51
9686.00,1.51
9685.00,1.52
9684.00,1.52
9683.00,1.52
9682.00,1.52
9681.00,1.53
9680.00,1.53
9679.00,1.53
9678.00,1.53
9677.00,1.54
9676.00,1.54
9675.00,1.54
9674.00,1.54
9673.00,1.54
9672.00,1.54
9671.00,1.54
9670.00,1.54
9669.00,1.54
9668.00,1.54
9667.00,1.53
9666.00,1.53
9665.00,1.53
9664.00,1.53
9663.00,1.53
9662.00,1.53
9661.00,1.53
9660.00,1.53
9659.00,1.53
9658.00,1.53
9657.00,1.53
9656.00,1.53
9655.00,1.53
9654.00,1.53
9653.00,1.52
9652.00,1.52
9651.00,1.52
9650.00,1.52
9649.00,1.52
9648.00,1.51
9647.00,1.51
9646.00,1.51
9645.00,1.50
9644.00,1.50
9643.00,1.49
9642.00,1.48
9641.00,1.47
9640.00,1.46
9639.00,1.44
9638.00,1.42
9637.00,1.40
9636.00,1.37
9635.00,1.35
9634.00,1.32
9633.00,1.29
9632.00,1.26
9631.00,1.23
9630.00,1.19
9629.00,1.16
9628.00,1.13
9627.00,1.10
9626.00,1.07
9625.00,1.05
9624.00,1.02
9623.00,1.00
9622.00,0.97
9621.00,0.95
9620.00,0.93
9619.00,0.92
9618.00,0.90
9617.00,0.89
9616.00,0.89
9615.00,0.89
9614.00,0.89
9613.00,0.90
9612.00,0.91
9611.00,0.93
9610.00,0.95
9609.00,0.97
9608.00,1.00
9607.00,1.03
9606.00,1.06
9605.00,1.09
9604.00,1.13
9603.00,1.17
9602.00,1.20
9601.00,1.24
9600.00,1.28
9599.00,1.31
9598.00,1.35
9597.00,1.38
9596.00,1.42
9595.00,1.46
9594.00,1.49
9593.00,1.53
9592.00,1.56
9591.00,1.59
9590.00,1.62
9589.00,1.65
9588.00,1.68
9587.00,1.70
9586.00,1.72
9585.00,1.74
9584.00,1.76
9583.00,1.77
9582.00,1.79
9581.00,1.80
9580.00,1.81
9579.00,1.83
9578.00,1.83
9577.00,1.84
9576.00,1.85
9575.00,1.87
9574.00,1.88
9573.00,1.89
9572.00,1.90
9571.00,1.92
9570.00,1.93
9569.00,1.94
9568.00,1.96
9567.00,1.97
9566.00,1.98
9565.00,1.99
9564.00,2.00
9563.00,2.00
9562.00,2.01
9561.00,2.02
9560.00,2.02
9559.00,2.03
9558.00,2.03
9557.00,2.03
9556.00,2.04
9555.00,2.04
9554.00,2.04
9553.00,2.05
9552.00,2.05
9551.00,2.05
9550.00,2.06
9549.00,2.06
9548.00,2.06
9547.00,2.06
9546.00,2.05
9545.00,2.04
9544.00,2.03
9543.00,2.02
9542.00,2.01
9541.00,2.00
9540.00,1.98
9539.00,1.97
9538.00,1.96
9537.00,1.94
9536.00,1.93
9535.00,1.91
9534.00,1.90
9533.00,1.88
9532.00,1.86
9531.00,1.85
9530.00,1.83
9529.00,1.81
9528.00,1.79
9527.00,1.77
9526.00,1.75
9525.00,1.72
9524.00,1.70
9523.00,1.68
9522.00,1.66
9521.00,1.63
9520.00,1.62
9519.00,1.60
9518.00,1.58
9517.00,1.57
9516.00,1.56
9515.00,1.55
9514.00,1.54
9513.00,1.53
9512.00,1.52
9511.00,1.51
9510.00,1.50
9509.00,1.50
9508.00,1.50
9507.00,1.50
9506.00,1.50
9505.00,1.50
9504.00,1.51
9503.00,1.51
9502.00,1.52
9501.00,1.53
9500.00,1.54
9499.00,1.55
9498.00,1.56
9497.00,1.58
9496.00,1.59
9495.00,1.60
9494.00,1.61
9493.00,1.63
9492.00,1.64
9491.00,1.65
9490.00,1.67
9489.00,1.68
9488.00,1.69
9487.00,1.71
9486.00,1.72
9485.00,1.73
9484.00,1.75
9483.00,1.76
9482.00,1.77
9481.00,1.78
9480.00,1.79
9479.00,1.80
9478.00,1.81
9477.00,1.82
9476.00,1.82
9475.00,1.82
9474.00,1.82
9473.00,1.82
9472.00,1.82
9471.00,1.82
9470.00,1.82
9469.00,1.82
9468.00,1.82
9467.00,1.82
9466.00,1.82
9465.00,1.82
9464.00,1.82
9463.00,1.82
9462.00,1.82
9461.00,1.82
9460.00,1.82
9459.00,1.82
9458.00,1.81
9457.00,1.81
9456.00,1.81
9455.00,1.81
9454.00,1.82
9453.00,1.82
9452.00,1.82
9451.00,1.83
9450.00,1.83
9449.00,1.84
9448.00,1.85
9447.00,1.86
9446.00,1.87
9445.00,1.89
9444.00,1.90
9443.00,1.91
9442.00,1.92
9441.00,1.93
9440.00,1.94
9439.00,1.94
9438.00,1.95
9437.00,1.95
9436.00,1.95
9435.00,1.95
9434.00,1.95
9433.00,1.95
9432.00,1.94
9431.00,1.94
9430.00,1.93
9429.00,1.93
9428.00,1.92
9427.00,1.91
9426.00,1.91
9425.00,1.90
9424.00,1.88
9423.00,1.87
9422.00,1.86
9421.00,1.84
9420.00,1.83
9419.00,1.81
9418.00,1.79
9417.00,1.78
9416.00,1.76
9415.00,1.74
9414.00,1.73
9413.00,1.71
9412.00,1.70
9411.00,1.68
9410.00,1.67
9409.00,1.65
9408.00,1.64
9407.00,1.62
9406.00,1.61
9405.00,1.59
9404.00,1.58
9403.00,1.56
9402.00,1.55
9401.00,1.54
9400.00,1.52
9399.00,1.51
9398.00,1.50
9397.00,1.48
9396.00,1.47
9395.00,1.46
9394.00,1.45
9393.00,1.44
9392.00,1.43
9391.00,1.42
9390.00,1.41
9389.00,1.40
9388.00,1.39
9387.00,1.38
9386.00,1.37
9385.00,1.37
9384.00,1.36
9383.00,1.36
9382.00,1.36
9381.00,1.36
9380.00,1.36
9379.00,1.36
9378.00,1.36
9377.00,1.37
9376.00,1.38
9375.00,1.39
9374.00,1.40
9373.00,1.41
9372.00,1.42
9371.00,1.43
9370.00,1.44
9369.00,1.46
9368.00,1.47
9367.00,1.48
9366.00,1.49
9365.00,1.50
9364.00,1.51
9363.00,1.52
9362.00,1.53
9361.00,1.54
9360.00,1.55
9359.00,1.56
9358.00,1.57
9357.00,1.58
9356.00,1.59
9355.00,1.60
9354.00,1.61
9353.00,1.61
9352.00,1.62
9351.00,1.63
9350.00,1.63
9349.00,1.63
9348.00,1.63
9347.00,1.63
9346.00,1.63
9345.00,1.62
9344.00,1.62
9343.00,1.62
9342.00,1.61
9341.00,1.61
9340.00,1.61
9339.00,1.61
9338.00,1.61
9337.00,1.61
9336.00,1.61
9335.00,1.61
9334.00,1.61
9333.00,1.61
9332.00,1.61
9331.00,1.61
9330.00,1.60
9329.00,1.60
9328.00,1.59
9327.00,1.59
9326.00,1.59
9325.00,1.58
9324.00,1.58
9323.00,1.58
9322.00,1.58
9321.00,1.58
9320.00,1.58
9319.00,1.58
9318.00,1.58
9317.00,1.58
9316.00,1.58
9315.00,1.58
9314.00,1.58
9313.00,1.58
9312.00,1.57
9311.00,1.57
9310.00,1.57
9309.00,1.56
9308.00,1.56
9307.00,1.56
9306.00,1.55
9305.00,1.55
9304.00,1.54
9303.00,1.53
9302.00,1.53
9301.00,1.52
9300.00,1.52
9299.00,1.51
9298.00,1.50
9297.00,1.49
9296.00,1.49
9295.00,1.48
9294.00,1.47
9293.00,1.46
9292.00,1.46
9291.00,1.45
9290.00,1.44
9289.00,1.44
9288.00,1.43
9287.00,1.42
9286.00,1.41
9285.00,1.41
9284.00,1.41
9283.00,1.40
9282.00,1.40
9281.00,1.41
9280.00,1.41
9279.00,1.42
9278.00,1.43
9277.00,1.44
9276.00,1.45
9275.00,1.46
9274.00,1.47
9273.00,1.48
9272.00,1.50
9271.00,1.51
9270.00,1.52
9269.00,1.53
9268.00,1.54
9267.00,1.55
9266.00,1.56
9265.00,1.56
9264.00,1.57
9263.00,1.58
9262.00,1.59
9261.00,1.61
9260.00,1.62
9259.00,1.62
9258.00,1.63
9257.00,1.64
9256.00,1.65
9255.00,1.65
9254.00,1.65
9253.00,1.65
9252.00,1.65
9251.00,1.65
9250.00,1.65
9249.00,1.64
9248.00,1.64
9247.00,1.63
9246.00,1.62
9245.00,1.62
9244.00,1.61
9243.00,1.60
9242.00,1.59
9241.00,1.58
9240.00,1.57
9239.00,1.56
9238.00,1.55
9237.00,1.54
9236.00,1.53
9235.00,1.52
9234.00,1.50
9233.00,1.49
9232.00,1.48
9231.00,1.47
9230.00,1.46
9229.00,1.45
9228.00,1.43
9227.00,1.42
9226.00,1.41
9225.00,1.39
9224.00,1.38
9223.00,1.37
9222.00,1.36
9221.00,1.35
9220.00,1.34
9219.00,1.34
9218.00,1.34
9217.00,1.34
9216.00,1.34
9215.00,1.34
9214.00,1.35
9213.00,1.35
9212.00,1.36
9211.00,1.37
9210.00,1.38
9209.00,1.39
9208.00,1.40
9207.00,1.41
9206.00,1.42
9205.00,1.43
9204.00,1.44
9203.00,1.44
9202.00,1.45
9201.00,1.46
9200.00,1.47
9199.00,1.48
9198.00,1.49
9197.00,1.49
9196.00,1.50
9195.00,1.50
9194.00,1.50
9193.00,1.50
9192.00,1.50
9191.00,1.50
9190.00,1.49
9189.00,1.48
9188.00,1.47
9187.00,1.46
9186.00,1.45
9185.00,1.44
9184.00,1.43
9183.00,1.42
9182.00,1.40
9181.00,1.39
9180.00,1.38
9179.00,1.37
9178.00,1.37
9177.00,1.36
9176.00,1.36
9175.00,1.35
9174.00,1.35
9173.00,1.35
9172.00,1.36
9171.00,1.36
9170.00,1.36
9169.00,1.37
9168.00,1.38
9167.00,1.39
9166.00,1.40
9165.00,1.41
9164.00,1.42
9163.00,1.43
9162.00,1.44
9161.00,1.45
9160.00,1.47
9159.00,1.48
9158.00,1.50
9157.00,1.51
9156.00,1.53
9155.00,1.54
9154.00,1.56
9153.00,1.57
9152.00,1.58
9151.00,1.60
9150.00,1.61
9149.00,1.61
9148.00,1.62
9147.00,1.63
9146.00,1.63
9145.00,1.63
9144.00,1.63
9143.00,1.63
9142.00,1.63
9141.00,1.63
9140.00,1.64
9139.00,1.64
9138.00,1.64
9137.00,1.64
9136.00,1.65
9135.00,1.65
9134.00,1.66
9133.00,1.66
9132.00,1.66
9131.00,1.66
9130.00,1.66
9129.00,1.65
9128.00,1.65
9127.00,1.64
9126.00,1.64
9125.00,1.63
9124.00,1.62
9123.00,1.61
9122.00,1.60
9121.00,1.60
9120.00,1.59
9119.00,1.58
9118.00,1.57
9117.00,1.57
9116.00,1.56
9115.00,1.55
9114.00,1.54
9113.00,1.52
9112.00,1.51
9111.00,1.49
9110.00,1.47
9109.00,1.45
9108.00,1.43
9107.00,1.40
9106.00,1.38
9105.00,1.36
9104.00,1.33
9103.00,1.31
9102.00,1.29
9101.00,1.27
9100.00,1.24
9099.00,1.22
9098.00,1.20
9097.00,1.19
9096.00,1.17
9095.00,1.15
9094.00,1.14
9093.00,1.12
9092.00,1.11
9091.00,1.10
9090.00,1.09
9089.00,1.08
9088.00,1.07
9087.00,1.06
9086.00,1.06
9085.00,1.06
9084.00,1.06
9083.00,1.06
9082.00,1.06
9081.00,1.07
9080.00,1.07
9079.00,1.08
9078.00,1.09
9077.00,1.11
9076.00,1.12
9075.00,1.14
9074.00,1.16
9073.00,1.18
9072.00,1.20
9071.00,1.23
9070.00,1.25
9069.00,1.28
9068.00,1.31
9067.00,1.34
9066.00,1.36
9065.00,1.39
9064.00,1.42
9063.00,1.44
9062.00,1.46
9061.00,1.48
9060.00,1.50
9059.00,1.52
9058.00,1.54
9057.00,1.56
9056.00,1.58
9055.00,1.59
9054.00,1.61
9053.00,1.62
9052.00,1.64
9051.00,1.65
9050.00,1.66
9049.00,1.67
9048.00,1.68
9047.00,1.68
9046.00,1.69
9045.00,1.69
9044.00,1.69
9043.00,1.68
9042.00,1.67
9041.00,1.66
9040.00,1.65
9039.00,1.63
9038.00,1.62
9037.00,1.60
9036.00,1.59
9035.00,1.58
9034.00,1.57
9033.00,1.56
9032.00,1.56
9031.00,1.55
9030.00,1.54
9029.00,1.54
9028.00,1.53
9027.00,1.52
9026.00,1.51
9025.00,1.50
9024.00,1.49
9023.00,1.47
9022.00,1.46
9021.00,1.44
9020.00,1.43
9019.00,1.42
9018.00,1.41
9017.00,1.40
9016.00,1.39
9015.00,1.39
9014.00,1.38
9013.00,1.38
9012.00,1.38
9011.00,1.38
9010.00,1.37
9009.00,1.37
9008.00,1.36
9007.00,1.36
9006.00,1.35
9005.00,1.34
9004.00,1.33
9003.00,1.33
9002.00,1.32
9001.00,1.31
9000.00,1.31
8999.00,1.30
8998.00,1.30
8997.00,1.30
8996.00,1.30
8995.00,1.30
8994.00,1.30
8993.00,1.30
8992.00,1.31
8991.00,1.31
8990.00,1.31
8989.00,1.32
8988.00,1.33
8987.00,1.34
8986.00,1.34
8985.00,1.35
8984.00,1.37
8983.00,1.38
8982.00,1.39
8981.00,1.40
8980.00,1.42
8979.00,1.43
8978.00,1.45
8977.00,1.46
8976.00,1.48
8975.00,1.50
8974.00,1.51
8973.00,1.53
8972.00,1.55
8971.00,1.58
8970.00,1.60
8969.00,1.63
8968.00,1.65
8967.00,1.67
8966.00,1.70
8965.00,1.72
8964.00,1.74
8963.00,1.75
8962.00,1.77
8961.00,1.78
8960.00,1.79
8959.00,1.80
8958.00,1.81
8957.00,1.82
8956.00,1.83
8955.00,1.83
8954.00,1.84
8953.00,1.84
8952.00,1.84
8951.00,1.84
8950.00,1.84
8949.00,1.83
8948.00,1.82
8947.00,1.81
8946.00,1.80
8945.00,1.79
8944.00,1.77
8943.00,1.75
8942.00,1.73
8941.00,1.72
8940.00,1.70
8939.00,1.68
8938.00,1.66
8937.00,1.65
8936.00,1.63
8935.00,1.61
8934.00,1.60
8933.00,1.58
8932.00,1.56
8931.00,1.54
8930.00,1.52
8929.00,1.50
8928.00,1.49
8927.00,1.47
8926.00,1.45
8925.00,1.43
8924.00,1.42
8923.00,1.41
8922.00,1.39
8921.00,1.38
8920.00,1.37
8919.00,1.36
8918.00,1.35
8917.00,1.35
8916.00,1.34
8915.00,1.33
8914.00,1.32
8913.00,1.31
8912.00,1.29
8911.00,1.28
8910.00,1.27
8909.00,1.25
8908.00,1.24
8907.00,1.23
8906.00,1.22
8905.00,1.21
8904.00,1.20
8903.00,1.19
8902.00,1.19
8901.00,1.19
8900.00,1.18
8899.00,1.18
8898.00,1.18
8897.00,1.18
8896.00,1.18
8895.00,1.18
8894.00,1.18
8893.00,1.17
8892.00,1.17
8891.00,1.17
8890.00,1.17
8889.00,1.17
8888.00,1.17
8887.00,1.17
8886.00,1.18
8885.00,1.19
8884.00,1.20
8883.00,1.21
8882.00,1.23
8881.00,1.24
8880.00,1.26
8879.00,1.28
8878.00,1.29
8877.00,1.31
8876.00,1.33
8875.00,1.34
8874.00,1.35
8873.00,1.37
8872.00,1.38
8871.00,1.39
8870.00,1.40
8869.00,1.42
8868.00,1.43
8867.00,1.44
8866.00,1.45
8865.00,1.46
8864.00,1.47
8863.00,1.49
8862.00,1.49
8861.00,1.50
8860.00,1.51
8859.00,1.51
8858.00,1.51
8857.00,1.51
8856.00,1.51
8855.00,1.51
8854.00,1.50
8853.00,1.50
8852.00,1.50
8851.00,1.50
8850.00,1.50
8849.00,1.50
8848.00,1.51
8847.00,1.51
8846.00,1.51
8845.00,1.51
8844.00,1.52
8843.00,1.52
8842.00,1.52
8841.00,1.52
8840.00,1.53
8839.00,1.53
8838.00,1.53
8837.00,1.54
8836.00,1.54
8835.00,1.55
8834.00,1.56
8833.00,1.56
8832.00,1.57
8831.00,1.58
8830.00,1.59
8829.00,1.59
8828.00,1.60
8827.00,1.60
8826.00,1.61
8825.00,1.61
8824.00,1.61
8823.00,1.61
8822.00,1.61
8821.00,1.61
8820.00,1.61
8819.00,1.60
8818.00,1.60
8817.00,1.60
8816.00,1.60
8815.00,1.60
8814.00,1.60
8813.00,1.60
8812.00,1.60
8811.00,1.60
8810.00,1.60
8809.00,1.60
8808.00,1.60
8807.00,1.60
8806.00,1.61
8805.00,1.61
8804.00,1.61
8803.00,1.61
8802.00,1.61
8801.00,1.61
8800.00,1.61
8799.00,1.61
8798.00,1.61
8797.00,1.61
8796.00,1.61
8795.00,1.61
8794.00,1.61
8793.00,1.61
8792.00,1.60
8791.00,1.60
8790.00,1.60
8789.00,1.60
8788.00,1.60
8787.00,1.59
8786.00,1.59
8785.00,1.59
8784.00,1.59
8783.00,1.59
8782.00,1.59
8781.00,1.58
8780.00,1.58
8779.00,1.58
8778.00,1.57
8777.00,1.57
8776.00,1.57
8775.00,1.56
8774.00,1.56
8773.00,1.56
8772.00,1.56
8771.00,1.56
8770.00,1.56
8769.00,1.56
8768.00,1.56
8767.00,1.56
8766.00,1.56
8765.00,1.56
8764.00,1.57
8763.00,1.57
8762.00,1.58
8761.00,1.58
8760.00,1.59
8759.00,1.59
8758.00,1.59
8757.00,1.60
8756.00,1.60
8755.00,1.60
8754.00,1.60
8753.00,1.60
8752.00,1.60
8751.00,1.60
8750.00,1.60
8749.00,1.60
8748.00,1.61
8747.00,1.61
8746.00,1.61
8745.00,1.61
8744.00,1.61
8743.00,1.61
8742.00,1.61
8741.00,1.61
8740.00,1.61
8739.00,1.60
8738.00,1.59
8737.00,1.59
8736.00,1.58
8735.00,1.57
8734.00,1.56
8733.00,1.56
8732.00,1.55
8731.00,1.55
8730.00,1.54
8729.00,1.54
8728.00,1.54
8727.00,1.54
8726.00,1.54
8725.00,1.54
8724.00,1.55
8723.00,1.55
8722.00,1.56
8721.00,1.56
8720.00,1.57
8719.00,1.57
8718.00,1.58
8717.00,1.59
8716.00,1.59
8715.00,1.60
8714.00,1.61
8713.00,1.61
8712.00,1.62
8711.00,1.63
8710.00,1.64
8709.00,1.64
8708.00,1.65
8707.00,1.66
8706.00,1.66
8705.00,1.67
8704.00,1.67
8703.00,1.67
8702.00,1.67
8701.00,1.67
8700.00,1.67
8699.00,1.67
8698.00,1.66
8697.00,1.66
8696.00,1.65
8695.00,1.64
8694.00,1.63
8693.00,1.62
8692.00,1.60
8691.00,1.59
8690.00,1.58
8689.00,1.57
8688.00,1.56
8687.00,1.55
8686.00,1.54
8685.00,1.53
8684.00,1.51
8683.00,1.50
8682.00,1.49
8681.00,1.48
8680.00,1.46
8679.00,1.45
8678.00,1.44
8677.00,1.42
8676.00,1.41
8675.00,1.40
8674.00,1.38
8673.00,1.37
8672.00,1.36
8671.00,1.35
8670.00,1.34
8669.00,1.33
8668.00,1.33
8667.00,1.33
8666.00,1.32
8665.00,1.32
8664.00,1.32
8663.00,1.32
8662.00,1.32
8661.00,1.32
8660.00,1.32
8659.00,1.32
8658.00,1.32
8657.00,1.32
8656.00,1.33
8655.00,1.33
8654.00,1.33
8653.00,1.34
8652.00,1.34
8651.00,1.35
8650.00,1.35
8649.00,1.36
8648.00,1.36
8647.00,1.37
8646.00,1.37
8645.00,1.38
8644.00,1.38
8643.00,1.38
8642.00,1.38
8641.00,1.38
8640.00,1.38
8639.00,1.38
8638.00,1.38
8637.00,1.38
8636.00,1.38
8635.00,1.39
8634.00,1.39
8633.00,1.39
8632.00,1.40
8631.00,1.40
8630.00,1.41
8629.00,1.42
8628.00,1.42
8627.00,1.43
8626.00,1.44
8625.00,1.45
8624.00,1.46
8623.00,1.47
8622.00,1.48
8621.00,1.49
8620.00,1.50
8619.00,1.51
8618.00,1.52
8617.00,1.53
8616.00,1.54
8615.00,1.55
8614.00,1.55
8613.00,1.56
8612.00,1.57
8611.00,1.58
8610.00,1.58
8609.00,1.58
8608.00,1.59
8607.00,1.59
8606.00,1.59
8605.00,1.58
8604.00,1.58
8603.00,1.58
8602.00,1.57
8601.00,1.57
8600.00,1.56
8599.00,1.56
8598.00,1.55
8597.00,1.54
8596.00,1.54
8595.00,1.53
8594.00,1.53
8593.00,1.52
8592.00,1.52
8591.00,1.52
8590.00,1.52
8589.00,1.53
8588.00,1.53
8587.00,1.53
8586.00,1.53
8585.00,1.54
8584.00,1.54
8583.00,1.54
8582.00,1.54
8581.00,1.54
8580.00,1.54
8579.00,1.54
8578.00,1.54
8577.00,1.54
8576.00,1.55
8575.00,1.55
8574.00,1.55
8573.00,1.56
8572.00,1.56
8571.00,1.56
8570.00,1.56
8569.00,1.56
8568.00,1.55
8567.00,1.55
8566.00,1.54
8565.00,1.54
8564.00,1.53
8563.00,1.52
8562.00,1.52
8561.00,1.51
8560.00,1.50
8559.00,1.50
8558.00,1.49
8557.00,1.49
8556.00,1.49
8555.00,1.48
8554.00,1.48
8553.00,1.48
8552.00,1.48
8551.00,1.48
8550.00,1.48
8549.00,1.47
8548.00,1.47
8547.00,1.46
8546.00,1.46
8545.00,1.45
8544.00,1.45
8543.00,1.45
8542.00,1.44
8541.00,1.44
8540.00,1.44
8539.00,1.43
8538.00,1.43
8537.00,1.43
8536.00,1.43
8535.00,1.42
8534.00,1.42
8533.00,1.42
8532.00,1.42
8531.00,1.41
8530.00,1.41
8529.00,1.41
8528.00,1.41
8527.00,1.41
8526.00,1.41
8525.00,1.40
8524.00,1.40
8523.00,1.40
8522.00,1.41
8521.00,1.41
8520.00,1.41
8519.00,1.41
8518.00,1.41
8517.00,1.42
8516.00,1.42
8515.00,1.43
8514.00,1.44
8513.00,1.45
8512.00,1.46
8511.00,1.47
8510.00,1.48
8509.00,1.49
8508.00,1.50
8507.00,1.51
8506.00,1.52
8505.00,1.53
8504.00,1.54
8503.00,1.55
8502.00,1.56
8501.00,1.56
8500.00,1.57
8499.00,1.58
8498.00,1.59
8497.00,1.59
8496.00,1.60
8495.00,1.61
8494.00,1.62
8493.00,1.63
8492.00,1.64
8491.00,1.65
8490.00,1.66
8489.00,1.66
8488.00,1.67
8487.00,1.67
8486.00,1.67
8485.00,1.67
8484.00,1.67
8483.00,1.66
8482.00,1.66
8481.00,1.65
8480.00,1.64
8479.00,1.63
8478.00,1.62
8477.00,1.61
8476.00,1.60
8475.00,1.59
8474.00,1.58
8473.00,1.57
8472.00,1.56
8471.00,1.55
8470.00,1.55
8469.00,1.54
8468.00,1.53
8467.00,1.53
8466.00,1.53
8465.00,1.52
8464.00,1.52
8463.00,1.52
8462.00,1.52
8461.00,1.52
8460.00,1.53
8459.00,1.53
8458.00,1.54
8457.00,1.55
8456.00,1.56
8455.00,1.58
8454.00,1.59
8453.00,1.61
8452.00,1.63
8451.00,1.65
8450.00,1.66
8449.00,1.68
8448.00,1.70
8447.00,1.71
8446.00,1.72
8445.00,1.73
8444.00,1.74
8443.00,1.74
8442.00,1.74
8441.00,1.74
8440.00,1.74
8439.00,1.74
8438.00,1.74
8437.00,1.74
8436.00,1.73
8435.00,1.73
8434.00,1.73
8433.00,1.72
8432.00,1.71
8431.00,1.71
8430.00,1.70
8429.00,1.69
8428.00,1.68
8427.00,1.66
8426.00,1.65
8425.00,1.64
8424.00,1.64
8423.00,1.63
8422.00,1.62
8421.00,1.62
8420.00,1.62
8419.00,1.62
8418.00,1.62
8417.00,1.62
8416.00,1.63
8415.00,1.63
8414.00,1.64
8413.00,1.64
8412.00,1.65
8411.00,1.65
8410.00,1.66
8409.00,1.66
8408.00,1.66
8407.00,1.66
8406.00,1.67
8405.00,1.67
8404.00,1.68
8403.00,1.69
8402.00,1.69
8401.00,1.70
8400.00,1.71
8399.00,1.72
8398.00,1.73
8397.00,1.74
8396.00,1.75
8395.00,1.76
8394.00,1.77
8393.00,1.77
8392.00,1.78
8391.00,1.78
8390.00,1.79
8389.00,1.79
8388.00,1.79
8387.00,1.80
8386.00,1.80
8385.00,1.80
8384.00,1.80
8383.00,1.79
8382.00,1.79
8381.00,1.79
8380.00,1.79
8379.00,1.78
8378.00,1.77
8377.00,1.77
8376.00,1.75
8375.00,1.74
8374.00,1.73
8373.00,1.71
8372.00,1.69
8371.00,1.67
8370.00,1.65
8369.00,1.63
8368.00,1.61
8367.00,1.58
8366.00,1.56
8365.00,1.54
8364.00,1.52
8363.00,1.50
8362.00,1.48
8361.00,1.47
8360.00,1.46
8359.00,1.45
8358.00,1.44
8357.00,1.43
8356.00,1.42
8355.00,1.42
8354.00,1.42
8353.00,1.41
8352.00,1.41
8351.00,1.41
8350.00,1.41
8349.00,1.41
8348.00,1.41
8347.00,1.42
8346.00,1.42
8345.00,1.43
8344.00,1.43
8343.00,1.44
8342.00,1.45
8341.00,1.46
8340.00,1.47
8339.00,1.48
8338.00,1.49
8337.00,1.50
8336.00,1.51
8335.00,1.52
8334.00,1.53
8333.00,1.53
8332.00,1.54
8331.00,1.54
8330.00,1.54
8329.00,1.54
8328.00,1.54
8327.00,1.54
8326.00,1.54
8325.00,1.54
8324.00,1.54
8323.00,1.54
8322.00,1.54
8321.00,1.54
8320.00,1.54
8319.00,1.55
8318.00,1.55
8317.00,1.55
8316.00,1.55
8315.00,1.54
8314.00,1.54
8313.00,1.54
8312.00,1.53
8311.00,1.53
8310.00,1.52
8309.00,1.52
8308.00,1.51
8307.00,1.51
8306.00,1.50
8305.00,1.50
8304.00,1.49
8303.00,1.49
8302.00,1.49
8301.00,1.49
8300.00,1.48
8299.00,1.48
8298.00,1.48
8297.00,1.48
8296.00,1.49
8295.00,1.49
8294.00,1.49
8293.00,1.49
8292.00,1.49
8291.00,1.49
8290.00,1.50
8289.00,1.50
8288.00,1.51
8287.00,1.51
8286.00,1.52
8285.00,1.53
8284.00,1.54
8283.00,1.55
8282.00,1.56
8281.00,1.57
8280.00,1.58
8279.00,1.59
8278.00,1.60
8277.00,1.61
8276.00,1.62
8275.00,1.63
8274.00,1.63
8273.00,1.64
8272.00,1.64
8271.00,1.65
8270.00,1.65
8269.00,1.66
8268.00,1.66
8267.00,1.67
8266.00,1.67
8265.00,1.67
8264.00,1.67
8263.00,1.67
8262.00,1.67
8261.00,1.67
8260.00,1.66
8259.00,1.65
8258.00,1.65
8257.00,1.64
8256.00,1.63
8255.00,1.62
8254.00,1.61
8253.00,1.60
8252.00,1.59
8251.00,1.58
8250.00,1.57
8249.00,1.57
8248.00,1.56
8247.00,1.55
8246.00,1.54
8245.00,1.53
8244.00,1.52
8243.00,1.51
8242.00,1.50
8241.00,1.49
8240.00,1.48
8239.00,1.46
8238.00,1.45
8237.00,1.44
8236.00,1.43
8235.00,1.43
8234.00,1.42
8233.00,1.42
8232.00,1.41
8231.00,1.41
8230.00,1.41
8229.00,1.40
8228.00,1.40
8227.00,1.40
8226.00,1.39
8225.00,1.39
8224.00,1.39
8223.00,1.39
8222.00,1.39
8221.00,1.39
8220.00,1.39
8219.00,1.39
8218.00,1.39
8217.00,1.39
8216.00,1.39
8215.00,1.40
8214.00,1.40
8213.00,1.41
8212.00,1.41
8211.00,1.42
8210.00,1.42
8209.00,1.43
8208.00,1.43
8207.00,1.44
8206.00,1.44
8205.00,1.44
8204.00,1.45
8203.00,1.45
8202.00,1.46
8201.00,1.46
8200.00,1.47
8199.00,1.48
8198.00,1.48
8197.00,1.49
8196.00,1.50
8195.00,1.50
8194.00,1.51
8193.00,1.51
8192.00,1.52
8191.00,1.53
8190.00,1.53
8189.00,1.54
8188.00,1.55
8187.00,1.56
8186.00,1.56
8185.00,1.57
8184.00,1.58
8183.00,1.59
8182.00,1.59
8181.00,1.60
8180.00,1.61
8179.00,1.62
8178.00,1.63
8177.00,1.63
8176.00,1.64
8175.00,1.65
8174.00,1.65
8173.00,1.66
8172.00,1.66
8171.00,1.66
8170.00,1.67
8169.00,1.67
8168.00,1.68
8167.00,1.68
8166.00,1.69
8165.00,1.70
8164.00,1.70
8163.00,1.71
8162.00,1.72
8161.00,1.72
8160.00,1.73
8159.00,1.73
8158.00,1.74
8157.00,1.75
8156.00,1.75
8155.00,1.75
8154.00,1.76
8153.00,1.76
8152.00,1.77
8151.00,1.77
8150.00,1.77
8149.00,1.77
8148.00,1.78
8147.00,1.78
8146.00,1.78
8145.00,1.79
8144.00,1.79
8143.00,1.79
8142.00,1.79
8141.00,1.79
8140.00,1.79
8139.00,1.79
8138.00,1.78
8137.00,1.78
8136.00,1.77
8135.00,1.77
8134.00,1.76
8133.00,1.75
8132.00,1.75
8131.00,1.74
8130.00,1.74
8129.00,1.73
8128.00,1.73
8127.00,1.72
8126.00,1.72
8125.00,1.72
8124.00,1.72
8123.00,1.72
8122.00,1.72
8121.00,1.72
8120.00,1.71
8119.00,1.71
8118.00,1.71
8117.00,1.71
8116.00,1.70
8115.00,1.70
8114.00,1.70
8113.00,1.70
8112.00,1.70
8111.00,1.70
8110.00,1.70
8109.00,1.71
8108.00,1.71
8107.00,1.71
8106.00,1.72
8105.00,1.72
8104.00,1.72
8103.00,1.73
8102.00,1.72
8101.00,1.72
8100.00,1.72
8099.00,1.71
8098.00,1.71
8097.00,1.70
8096.00,1.69
8095.00,1.68
8094.00,1.67
8093.00,1.66
8092.00,1.65
8091.00,1.64
8090.00,1.63
8089.00,1.62
8088.00,1.61
8087.00,1.60
8086.00,1.59
8085.00,1.57
8084.00,1.56
8083.00,1.55
8082.00,1.53
8081.00,1.51
8080.00,1.50
8079.00,1.48
8078.00,1.47
8077.00,1.46
8076.00,1.45
8075.00,1.44
8074.00,1.43
8073.00,1.42
8072.00,1.42
8071.00,1.42
8070.00,1.42
8069.00,1.42
8068.00,1.42
8067.00,1.43
8066.00,1.43
8065.00,1.44
8064.00,1.44
8063.00,1.45
8062.00,1.45
8061.00,1.46
8060.00,1.46
8059.00,1.47
8058.00,1.47
8057.00,1.48
8056.00,1.48
8055.00,1.49
8054.00,1.49
8053.00,1.50
8052.00,1.50
8051.00,1.50
8050.00,1.51
8049.00,1.51
8048.00,1.52
8047.00,1.52
8046.00,1.52
8045.00,1.53
8044.00,1.53
8043.00,1.53
8042.00,1.53
8041.00,1.53
8040.00,1.53
8039.00,1.53
8038.00,1.53
8037.00,1.53
8036.00,1.53
8035.00,1.53
8034.00,1.53
8033.00,1.53
8032.00,1.53
8031.00,1.53
8030.00,1.53
8029.00,1.53
8028.00,1.54
8027.00,1.54
8026.00,1.55
8025.00,1.55
8024.00,1.56
8023.00,1.56
8022.00,1.57
8021.00,1.57
8020.00,1.58
8019.00,1.58
8018.00,1.59
8017.00,1.60
8016.00,1.61
8015.00,1.61
8014.00,1.62
8013.00,1.63
8012.00,1.64
8011.00,1.64
8010.00,1.65
8009.00,1.66
8008.00,1.67
8007.00,1.68
8006.00,1.68
8005.00,1.69
8004.00,1.70
8003.00,1.71
8002.00,1.71
8001.00,1.72
8000.00,1.72
7999.00,1.72
7998.00,1.72
7997.00,1.71
7996.00,1.71
7995.00,1.70
7994.00,1.69
7993.00,1.67
7992.00,1.66
7991.00,1.65
7990.00,1.63
7989.00,1.62
7988.00,1.60
7987.00,1.59
7986.00,1.58
7985.00,1.57
7984.00,1.56
7983.00,1.56
7982.00,1.55
7981.00,1.55
7980.00,1.55
7979.00,1.54
7978.00,1.54
7977.00,1.54
7976.00,1.54
7975.00,1.54
7974.00,1.54
7973.00,1.55
7972.00,1.56
7971.00,1.57
7970.00,1.58
7969.00,1.60
7968.00,1.61
7967.00,1.63
7966.00,1.65
7965.00,1.66
7964.00,1.68
7963.00,1.70
7962.00,1.72
7961.00,1.73
7960.00,1.74
7959.00,1.75
7958.00,1.76
7957.00,1.76
7956.00,1.77
7955.00,1.77
7954.00,1.77
7953.00,1.78
7952.00,1.78
7951.00,1.78
7950.00,1.77
7949.00,1.77
7948.00,1.77
7947.00,1.76
7946.00,1.75
7945.00,1.74
7944.00,1.73
7943.00,1.72
7942.00,1.70
7941.00,1.69
7940.00,1.67
7939.00,1.66
7938.00,1.64
7937.00,1.63
7936.00,1.61
7935.00,1.60
7934.00,1.59
7933.00,1.58
7932.00,1.57
7931.00,1.56
7930.00,1.55
7929.00,1.55
7928.00,1.54
7927.00,1.53
7926.00,1.52
7925.00,1.52
7924.00,1.51
7923.00,1.51
7922.00,1.50
7921.00,1.50
7920.00,1.50
7919.00,1.50
7918.00,1.50
7917.00,1.51
7916.00,1.52
7915.00,1.52
7914.00,1.53
7913.00,1.55
7912.00,1.56
7911.00,1.57
7910.00,1.58
7909.00,1.59
7908.00,1.60
7907.00,1.60
7906.00,1.61
7905.00,1.62
7904.00,1.62
7903.00,1.63
7902.00,1.64
7901.00,1.64
7900.00,1.65
7899.00,1.66
7898.00,1.66
7897.00,1.67
7896.00,1.67
7895.00,1.67
7894.00,1.68
7893.00,1.68
7892.00,1.68
7891.00,1.68
7890.00,1.68
7889.00,1.67
7888.00,1.67
7887.00,1.66
7886.00,1.66
7885.00,1.65
7884.00,1.65
7883.00,1.64
7882.00,1.64
7881.00,1.64
7880.00,1.63
7879.00,1.63
7878.00,1.63
7877.00,1.63
7876.00,1.63
7875.00,1.62
7874.00,1.62
7873.00,1.62
7872.00,1.62
7871.00,1.62
7870.00,1.62
7869.00,1.62
7868.00,1.62
7867.00,1.62
7866.00,1.62
7865.00,1.62
7864.00,1.63
7863.00,1.63
7862.00,1.63
7861.00,1.63
7860.00,1.64
7859.00,1.64
7858.00,1.64
7857.00,1.64
7856.00,1.64
7855.00,1.64
7854.00,1.64
7853.00,1.64
7852.00,1.64
7851.00,1.64
7850.00,1.64
7849.00,1.64
7848.00,1.64
7847.00,1.65
7846.00,1.65
7845.00,1.65
7844.00,1.66
7843.00,1.66
7842.00,1.66
7841.00,1.66
7840.00,1.66
7839.00,1.65
7838.00,1.65
7837.00,1.65
7836.00,1.64
7835.00,1.64
7834.00,1.64
7833.00,1.64
7832.00,1.64
7831.00,1.64
7830.00,1.64
7829.00,1.64
7828.00,1.64
7827.00,1.64
7826.00,1.64
7825.00,1.64
7824.00,1.63
7823.00,1.63
7822.00,1.62
7821.00,1.61
7820.00,1.61
7819.00,1.60
7818.00,1.59
7817.00,1.59
7816.00,1.58
7815.00,1.58
7814.00,1.58
7813.00,1.58
7812.00,1.58
7811.00,1.58
7810.00,1.58
7809.00,1.58
7808.00,1.58
7807.00,1.58
7806.00,1.58
7805.00,1.58
7804.00,1.58
7803.00,1.58
7802.00,1.58
7801.00,1.58
7800.00,1.58
7799.00,1.58
7798.00,1.58
7797.00,1.58
7796.00,1.58
7795.00,1.58
7794.00,1.58
7793.00,1.58
7792.00,1.58
7791.00,1.58
7790.00,1.58
7789.00,1.58
7788.00,1.58
7787.00,1.57
7786.00,1.57
7785.00,1.57
7784.00,1.56
7783.00,1.56
7782.00,1.56
7781.00,1.56
7780.00,1.56
7779.00,1.56
7778.00,1.56
7777.00,1.56
7776.00,1.56
7775.00,1.56
7774.00,1.56
7773.00,1.56
7772.00,1.56
7771.00,1.56
7770.00,1.57
7769.00,1.57
7768.00,1.58
7767.00,1.58
7766.00,1.59
7765.00,1.60
7764.00,1.60
7763.00,1.61
7762.00,1.61
7761.00,1.62
7760.00,1.62
7759.00,1.63
7758.00,1.63
7757.00,1.63
7756.00,1.63
7755.00,1.63
7754.00,1.62
7753.00,1.62
7752.00,1.61
7751.00,1.60
7750.00,1.59
7749.00,1.59
7748.00,1.58
7747.00,1.57
7746.00,1.56
7745.00,1.55
7744.00,1.54
7743.00,1.53
7742.00,1.52
7741.00,1.51
7740.00,1.50
7739.00,1.49
7738.00,1.47
7737.00,1.46
7736.00,1.45
7735.00,1.45
7734.00,1.44
7733.00,1.44
7732.00,1.43
7731.00,1.43
7730.00,1.44
7729.00,1.44
7728.00,1.45
7727.00,1.45
7726.00,1.46
7725.00,1.47
7724.00,1.49
7723.00,1.50
7722.00,1.51
7721.00,1.52
7720.00,1.53
7719.00,1.55
7718.00,1.56
7717.00,1.58
7716.00,1.59
7715.00,1.61
7714.00,1.62
7713.00,1.64
7712.00,1.65
7711.00,1.67
7710.00,1.68
7709.00,1.69
7708.00,1.70
7707.00,1.70
7706.00,1.71
7705.00,1.71
7704.00,1.71
7703.00,1.71
7702.00,1.71
7701.00,1.71
7700.00,1.70
7699.00,1.70
7698.00,1.69
7697.00,1.69
7696.00,1.68
7695.00,1.68
7694.00,1.67
7693.00,1.66
7692.00,1.65
7691.00,1.64
7690.00,1.63
7689.00,1.62
7688.00,1.61
7687.00,1.60
7686.00,1.60
7685.00,1.59
7684.00,1.58
7683.00,1.58
7682.00,1.57
7681.00,1.57
7680.00,1.57
7679.00,1.57
7678.00,1.56
7677.00,1.56
7676.00,1.56
7675.00,1.56
7674.00,1.57
7673.00,1.57
7672.00,1.57
7671.00,1.57
7670.00,1.58
7669.00,1.58
7668.00,1.58
7667.00,1.58
7666.00,1.59
7665.00,1.59
7664.00,1.59
7663.00,1.60
7662.00,1.60
7661.00,1.60
7660.00,1.61
7659.00,1.61
7658.00,1.61
7657.00,1.61
7656.00,1.61
7655.00,1.61
7654.00,1.61
7653.00,1.60
7652.00,1.60
7651.00,1.60
7650.00,1.60
7649.00,1.60
7648.00,1.60
7647.00,1.60
7646.00,1.59
7645.00,1.59
7644.00,1.59
7643.00,1.59
7642.00,1.59
7641.00,1.58
7640.00,1.58
7639.00,1.58
7638.00,1.58
7637.00,1.58
7636.00,1.58
7635.00,1.58
7634.00,1.58
7633.00,1.58
7632.00,1.59
7631.00,1.59
7630.00,1.59
7629.00,1.60
7628.00,1.60
7627.00,1.60
7626.00,1.61
7625.00,1.61
7624.00,1.61
7623.00,1.62
7622.00,1.62
7621.00,1.62
7620.00,1.62
7619.00,1.62
7618.00,1.62
7617.00,1.62
7616.00,1.62
7615.00,1.62
7614.00,1.62
7613.00,1.62
7612.00,1.62
7611.00,1.62
7610.00,1.62
7609.00,1.61
7608.00,1.61
7607.00,1.61
7606.00,1.61
7605.00,1.60
7604.00,1.60
7603.00,1.60
7602.00,1.60
7601.00,1.60
7600.00,1.60
7599.00,1.59
7598.00,1.59
7597.00,1.59
7596.00,1.59
7595.00,1.59
7594.00,1.59
7593.00,1.60
7592.00,1.60
7591.00,1.60
7590.00,1.60
7589.00,1.61
7588.00,1.61
7587.00,1.62
7586.00,1.62
7585.00,1.62
7584.00,1.63
7583.00,1.63
7582.00,1.64
7581.00,1.65
7580.00,1.65
7579.00,1.66
7578.00,1.66
7577.00,1.67
7576.00,1.67
7575.00,1.67
7574.00,1.68
7573.00,1.68
7572.00,1.68
7571.00,1.69
7570.00,1.69
7569.00,1.69
7568.00,1.70
7567.00,1.70
7566.00,1.70
7565.00,1.71
7564.00,1.71
7563.00,1.72
7562.00,1.72
7561.00,1.73
7560.00,1.74
7559.00,1.74
7558.00,1.75
7557.00,1.75
7556.00,1.76
7555.00,1.77
7554.00,1.77
7553.00,1.78
7552.00,1.79
7551.00,1.80
7550.00,1.80
7549.00,1.81
7548.00,1.82
7547.00,1.82
7546.00,1.83
7545.00,1.83
7544.00,1.84
7543.00,1.84
7542.00,1.85
7541.00,1.85
7540.00,1.85
7539.00,1.85
7538.00,1.85
7537.00,1.85
7536.00,1.85
7535.00,1.85
7534.00,1.84
7533.00,1.84
7532.00,1.83
7531.00,1.83
7530.00,1.82
7529.00,1.81
7528.00,1.80
7527.00,1.78
7526.00,1.77
7525.00,1.75
7524.00,1.74
7523.00,1.73
7522.00,1.71
7521.00,1.70
7520.00,1.69
7519.00,1.68
7518.00,1.66
7517.00,1.65
7516.00,1.65
7515.00,1.64
7514.00,1.63
7513.00,1.62
7512.00,1.62
7511.00,1.61
7510.00,1.61
7509.00,1.61
7508.00,1.60
7507.00,1.60
7506.00,1.60
7505.00,1.60
7504.00,1.60
7503.00,1.60
7502.00,1.60
7501.00,1.61
7500.00,1.61
7499.00,1.62
7498.00,1.63
7497.00,1.63
7496.00,1.64
7495.00,1.65
7494.00,1.66
7493.00,1.66
7492.00,1.67
7491.00,1.67
7490.00,1.67
7489.00,1.68
7488.00,1.68
7487.00,1.68
7486.00,1.68
7485.00,1.68
7484.00,1.68
7483.00,1.68
7482.00,1.68
7481.00,1.69
7480.00,1.69
7479.00,1.69
7478.00,1.69
7477.00,1.69
7476.00,1.70
7475.00,1.70
7474.00,1.70
7473.00,1.70
7472.00,1.70
7471.00,1.70
7470.00,1.71
7469.00,1.71
7468.00,1.71
7467.00,1.72
7466.00,1.72
7465.00,1.73
7464.00,1.73
7463.00,1.74
7462.00,1.75
7461.00,1.75
7460.00,1.76
7459.00,1.76
7458.00,1.77
7457.00,1.77
7456.00,1.78
7455.00,1.78
7454.00,1.78
7453.00,1.78
7452.00,1.78
7451.00,1.78
7450.00,1.78
7449.00,1.77
7448.00,1.77
7447.00,1.77
7446.00,1.77
7445.00,1.76
7444.00,1.76
7443.00,1.76
7442.00,1.76
7441.00,1.76
7440.00,1.76
7439.00,1.75
7438.00,1.75
7437.00,1.75
7436.00,1.75
7435.00,1.75
7434.00,1.74
7433.00,1.74
7432.00,1.75
7431.00,1.75
7430.00,1.75
7429.00,1.76
7428.00,1.76
7427.00,1.77
7426.00,1.78
7425.00,1.79
7424.00,1.80
7423.00,1.81
7422.00,1.82
7421.00,1.82
7420.00,1.83
7419.00,1.84
7418.00,1.84
7417.00,1.85
7416.00,1.85
7415.00,1.86
7414.00,1.86
7413.00,1.86
7412.00,1.86
7411.00,1.87
7410.00,1.87
7409.00,1.87
7408.00,1.87
7407.00,1.87
7406.00,1.87
7405.00,1.87
7404.00,1.87
7403.00,1.87
7402.00,1.86
7401.00,1.86
7400.00,1.85
7399.00,1.84
7398.00,1.84
7397.00,1.83
7396.00,1.82
7395.00,1.82
7394.00,1.81
7393.00,1.81
7392.00,1.81
7391.00,1.80
7390.00,1.80
7389.00,1.80
7388.00,1.80
7387.00,1.80
7386.00,1.80
7385.00,1.80
7384.00,1.79
7383.00,1.79
7382.00,1.78
7381.00,1.78
7380.00,1.78
7379.00,1.78
7378.00,1.77
7377.00,1.77
7376.00,1.77
7375.00,1.77
7374.00,1.77
7373.00,1.77
7372.00,1.77
7371.00,1.77
7370.00,1.77
7369.00,1.77
7368.00,1.77
7367.00,1.76
7366.00,1.76
7365.00,1.75
7364.00,1.75
7363.00,1.74
7362.00,1.73
7361.00,1.72
7360.00,1.72
7359.00,1.71
7358.00,1.71
7357.00,1.70
7356.00,1.70
7355.00,1.70
7354.00,1.69
7353.00,1.69
7352.00,1.69
7351.00,1.69
7350.00,1.69
7349.00,1.69
7348.00,1.69
7347.00,1.69
7346.00,1.69
7345.00,1.69
7344.00,1.69
7343.00,1.69
7342.00,1.69
7341.00,1.69
7340.00,1.69
7339.00,1.69
7338.00,1.69
7337.00,1.70
7336.00,1.70
7335.00,1.71
7334.00,1.71
7333.00,1.72
7332.00,1.73
7331.00,1.73
7330.00,1.74
7329.00,1.74
7328.00,1.75
7327.00,1.75
7326.00,1.75
7325.00,1.75
7324.00,1.75
7323.00,1.75
7322.00,1.75
7321.00,1.75
7320.00,1.75
7319.00,1.75
7318.00,1.75
7317.00,1.75
7316.00,1.75
7315.00,1.75
7314.00,1.75
7313.00,1.75
7312.00,1.75
7311.00,1.75
7310.00,1.75
7309.00,1.74
7308.00,1.74
7307.00,1.74
7306.00,1.73
7305.00,1.73
7304.00,1.73
7303.00,1.73
7302.00,1.72
7301.00,1.72
7300.00,1.72
7299.00,1.71
7298.00,1.71
7297.00,1.71
7296.00,1.70
7295.00,1.70
7294.00,1.70
7293.00,1.69
7292.00,1.69
7291.00,1.69
7290.00,1.68
7289.00,1.68
7288.00,1.68
7287.00,1.68
7286.00,1.68
7285.00,1.67
7284.00,1.67
7283.00,1.67
7282.00,1.67
7281.00,1.67
7280.00,1.67
7279.00,1.67
7278.00,1.67
7277.00,1.67
7276.00,1.67
7275.00,1.68
7274.00,1.68
7273.00,1.68
7272.00,1.68
7271.00,1.68
7270.00,1.69
7269.00,1.69
7268.00,1.69
7267.00,1.69
7266.00,1.69
7265.00,1.69
7264.00,1.68
7263.00,1.68
7262.00,1.68
7261.00,1.67
7260.00,1.67
7259.00,1.66
7258.00,1.66
7257.00,1.66
7256.00,1.65
7255.00,1.65
7254.00,1.65
7253.00,1.64
7252.00,1.64
7251.00,1.63
7250.00,1.63
7249.00,1.63
7248.00,1.62
7247.00,1.62
7246.00,1.62
7245.00,1.61
7244.00,1.61
7243.00,1.61
7242.00,1.62
7241.00,1.62
7240.00,1.62
7239.00,1.63
7238.00,1.63
7237.00,1.64
7236.00,1.64
7235.00,1.65
7234.00,1.66
7233.00,1.66
7232.00,1.67
7231.00,1.68
7230.00,1.68
7229.00,1.69
7228.00,1.70
7227.00,1.70
7226.00,1.71
7225.00,1.72
7224.00,1.72
7223.00,1.73
7222.00,1.74
7221.00,1.74
7220.00,1.75
7219.00,1.75
7218.00,1.75
7217.00,1.76
7216.00,1.76
7215.00,1.76
7214.00,1.76
7213.00,1.76
7212.00,1.76
7211.00,1.76
7210.00,1.77
7209.00,1.77
7208.00,1.77
7207.00,1.77
7206.00,1.77
7205.00,1.77
7204.00,1.77
7203.00,1.76
7202.00,1.76
7201.00,1.76
7200.00,1.77
7199.00,1.77
7198.00,1.77
7197.00,1.77
7196.00,1.77
7195.00,1.77
7194.00,1.77
7193.00,1.78
7192.00,1.78
7191.00,1.78
7190.00,1.78
7189.00,1.78
7188.00,1.78
7187.00,1.78
7186.00,1.78
7185.00,1.78
7184.00,1.78
7183.00,1.78
7182.00,1.78
7181.00,1.77
7180.00,1.77
7179.00,1.77
7178.00,1.77
7177.00,1.77
7176.00,1.77
7175.00,1.76
7174.00,1.76
7173.00,1.75
7172.00,1.75
7171.00,1.74
7170.00,1.74
7169.00,1.73
7168.00,1.73
7167.00,1.72
7166.00,1.71
7165.00,1.71
7164.00,1.70
7163.00,1.70
7162.00,1.69
7161.00,1.69
7160.00,1.68
7159.00,1.68
7158.00,1.68
7157.00,1.67
7156.00,1.67
7155.00,1.66
7154.00,1.66
7153.00,1.66
7152.00,1.65
7151.00,1.65
7150.00,1.64
7149.00,1.64
7148.00,1.63
7147.00,1.63
7146.00,1.63
7145.00,1.63
7144.00,1.62
7143.00,1.62
7142.00,1.62
7141.00,1.62
7140.00,1.62
7139.00,1.62
7138.00,1.61
7137.00,1.61
7136.00,1.61
7135.00,1.61
7134.00,1.61
7133.00,1.61
7132.00,1.61
7131.00,1.60
7130.00,1.60
7129.00,1.60
7128.00,1.61
7127.00,1.61
7126.00,1.61
7125.00,1.61
7124.00,1.62
7123.00,1.62
7122.00,1.62
7121.00,1.62
7120.00,1.62
7119.00,1.62
7118.00,1.62
7117.00,1.61
7116.00,1.61
7115.00,1.60
7114.00,1.60
7113.00,1.59
7112.00,1.59
7111.00,1.58
7110.00,1.57
7109.00,1.56
7108.00,1.55
7107.00,1.54
7106.00,1.53
7105.00,1.52
7104.00,1.51
7103.00,1.50
7102.00,1.49
7101.00,1.48
7100.00,1.47
7099.00,1.46
7098.00,1.45
7097.00,1.43
7096.00,1.42
7095.00,1.41
7094.00,1.40
7093.00,1.39
7092.00,1.38
7091.00,1.37
7090.00,1.36
7089.00,1.36
7088.00,1.35
7087.00,1.35
7086.00,1.34
7085.00,1.34
7084.00,1.34
7083.00,1.33
7082.00,1.33
7081.00,1.33
7080.00,1.33
7079.00,1.33
7078.00,1.33
7077.00,1.33
7076.00,1.32
7075.00,1.32
7074.00,1.32
7073.00,1.32
7072.00,1.31
7071.00,1.31
7070.00,1.31
7069.00,1.31
7068.00,1.31
7067.00,1.31
7066.00,1.31
7065.00,1.31
7064.00,1.31
7063.00,1.31
7062.00,1.32
7061.00,1.32
7060.00,1.32
7059.00,1.33
7058.00,1.33
7057.00,1.33
7056.00,1.34
7055.00,1.34
7054.00,1.34
7053.00,1.35
7052.00,1.35
7051.00,1.36
7050.00,1.36
7049.00,1.37
7048.00,1.38
7047.00,1.38
7046.00,1.39
7045.00,1.40
7044.00,1.41
7043.00,1.41
7042.00,1.42
7041.00,1.43
7040.00,1.44
7039.00,1.44
7038.00,1.45
7037.00,1.46
7036.00,1.46
7035.00,1.47
7034.00,1.47
7033.00,1.47
7032.00,1.48
7031.00,1.48
7030.00,1.49
7029.00,1.49
7028.00,1.49
7027.00,1.50
7026.00,1.50
7025.00,1.50
7024.00,1.50
7023.00,1.51
7022.00,1.51
7021.00,1.51
7020.00,1.51
7019.00,1.51
7018.00,1.51
7017.00,1.51
7016.00,1.51
7015.00,1.50
7014.00,1.50
7013.00,1.50
7012.00,1.49
7011.00,1.49
7010.00,1.49
7009.00,1.48
7008.00,1.48
7007.00,1.47
7006.00,1.47
7005.00,1.47
7004.00,1.46
7003.00,1.46
7002.00,1.45
7001.00,1.45
7000.00,1.44
6999.00,1.44
6998.00,1.43
6997.00,1.43
6996.00,1.42
6995.00,1.42
6994.00,1.41
6993.00,1.41
6992.00,1.41
6991.00,1.40
6990.00,1.40
6989.00,1.40
6988.00,1.39
6987.00,1.39
6986.00,1.39
6985.00,1.39
6984.00,1.38
6983.00,1.38
6982.00,1.38
6981.00,1.38
6980.00,1.38
6979.00,1.38
6978.00,1.38
6977.00,1.38
6976.00,1.38
6975.00,1.38
6974.00,1.38
6973.00,1.38
6972.00,1.37
6971.00,1.37
6970.00,1.37
6969.00,1.37
6968.00,1.37
6967.00,1.37
6966.00,1.37
6965.00,1.37
6964.00,1.37
6963.00,1.37
6962.00,1.37
6961.00,1.37
6960.00,1.37
6959.00,1.37
6958.00,1.37
6957.00,1.37
6956.00,1.37
6955.00,1.36
6954.00,1.36
6953.00,1.36
6952.00,1.36
6951.00,1.36
6950.00,1.36
6949.00,1.36
6948.00,1.36
6947.00,1.36
6946.00,1.36
6945.00,1.36
6944.00,1.36
6943.00,1.36
6942.00,1.36
6941.00,1.36
6940.00,1.35
6939.00,1.35
6938.00,1.35
6937.00,1.35
6936.00,1.34
6935.00,1.34
6934.00,1.34
6933.00,1.34
6932.00,1.34
6931.00,1.33
6930.00,1.33
6929.00,1.33
6928.00,1.32
6927.00,1.32
6926.00,1.31
6925.00,1.31
6924.00,1.30
6923.00,1.30
6922.00,1.29
6921.00,1.29
6920.00,1.28
6919.00,1.28
6918.00,1.28
6917.00,1.27
6916.00,1.27
6915.00,1.27
6914.00,1.27
6913.00,1.26
6912.00,1.26
6911.00,1.26
6910.00,1.26
6909.00,1.26
6908.00,1.26
6907.00,1.26
6906.00,1.26
6905.00,1.26
6904.00,1.26
6903.00,1.26
6902.00,1.26
6901.00,1.26
6900.00,1.26
6899.00,1.27
6898.00,1.27
6897.00,1.27
6896.00,1.27
6895.00,1.28
6894.00,1.28
6893.00,1.28
6892.00,1.28
6891.00,1.28
6890.00,1.28
6889.00,1.28
6888.00,1.29
6887.00,1.29
6886.00,1.29
6885.00,1.29
6884.00,1.29
6883.00,1.30
6882.00,1.30
6881.00,1.30
6880.00,1.30
6879.00,1.30
6878.00,1.30
6877.00,1.30
6876.00,1.30
6875.00,1.30
6874.00,1.30
6873.00,1.30
6872.00,1.30
6871.00,1.30
6870.00,1.31
6869.00,1.31
6868.00,1.31
6867.00,1.31
6866.00,1.31
6865.00,1.31
6864.00,1.31
6863.00,1.31
6862.00,1.31
6861.00,1.31
6860.00,1.32
6859.00,1.32
6858.00,1.32
6857.00,1.32
6856.00,1.33
6855.00,1.33
6854.00,1.33
6853.00,1.34
6852.00,1.34
6851.00,1.35
6850.00,1.35
6849.00,1.36
6848.00,1.36
6847.00,1.37
6846.00,1.37
6845.00,1.38
6844.00,1.38
6843.00,1.38
6842.00,1.39
6841.00,1.39
6840.00,1.40
6839.00,1.40
6838.00,1.41
6837.00,1.41
6836.00,1.41
6835.00,1.41
6834.00,1.41
6833.00,1.42
6832.00,1.42
6831.00,1.42
6830.00,1.42
6829.00,1.42
6828.00,1.41
6827.00,1.41
6826.00,1.41
6825.00,1.41
6824.00,1.41
6823.00,1.41
6822.00,1.41
6821.00,1.41
6820.00,1.40
6819.00,1.40
6818.00,1.40
6817.00,1.41
6816.00,1.41
6815.00,1.41
6814.00,1.41
6813.00,1.41
6812.00,1.41
6811.00,1.41
6810.00,1.41
6809.00,1.41
6808.00,1.41
6807.00,1.41
6806.00,1.40
6805.00,1.40
6804.00,1.40
6803.00,1.41
6802.00,1.41
6801.00,1.41
6800.00,1.41
6799.00,1.41
6798.00,1.41
6797.00,1.41
6796.00,1.41
6795.00,1.41
6794.00,1.40
6793.00,1.40
6792.00,1.40
6791.00,1.40
6790.00,1.39
6789.00,1.39
6788.00,1.38
6787.00,1.38
6786.00,1.38
6785.00,1.38
6784.00,1.38
6783.00,1.38
6782.00,1.38
6781.00,1.38
6780.00,1.38
6779.00,1.38
6778.00,1.38
6777.00,1.38
6776.00,1.38
6775.00,1.38
6774.00,1.38
6773.00,1.38
6772.00,1.38
6771.00,1.38
6770.00,1.38
6769.00,1.38
6768.00,1.38
6767.00,1.38
6766.00,1.39
6765.00,1.39
6764.00,1.39
6763.00,1.39
6762.00,1.39
6761.00,1.39
6760.00,1.39
6759.00,1.39
6758.00,1.39
6757.00,1.39
6756.00,1.40
6755.00,1.39
6754.00,1.39
6753.00,1.39
6752.00,1.39
6751.00,1.39
6750.00,1.39
6749.00,1.38
6748.00,1.38
6747.00,1.38
6746.00,1.37
6745.00,1.37
6744.00,1.37
6743.00,1.37
6742.00,1.37
6741.00,1.37
6740.00,1.37
6739.00,1.37
6738.00,1.37
6737.00,1.37
6736.00,1.37
6735.00,1.37
6734.00,1.37
6733.00,1.37
6732.00,1.37
6731.00,1.37
6730.00,1.38
6729.00,1.38
6728.00,1.38
6727.00,1.38
6726.00,1.38
6725.00,1.39
6724.00,1.39
6723.00,1.40
6722.00,1.40
6721.00,1.41
6720.00,1.42
6719.00,1.42
6718.00,1.43
6717.00,1.43
6716.00,1.44
6715.00,1.45
6714.00,1.45
6713.00,1.46
6712.00,1.46
6711.00,1.47
6710.00,1.47
6709.00,1.47
6708.00,1.48
6707.00,1.48
6706.00,1.49
6705.00,1.49
6704.00,1.50
6703.00,1.50
6702.00,1.51
6701.00,1.51
6700.00,1.51
6699.00,1.52
6698.00,1.52
6697.00,1.52
6696.00,1.52
6695.00,1.52
6694.00,1.52
6693.00,1.52
6692.00,1.52
6691.00,1.52
6690.00,1.52
6689.00,1.52
6688.00,1.52
6687.00,1.52
6686.00,1.51
6685.00,1.51
6684.00,1.51
6683.00,1.51
6682.00,1.51
6681.00,1.51
6680.00,1.51
6679.00,1.50
6678.00,1.50
6677.00,1.50
6676.00,1.50
6675.00,1.50
6674.00,1.49
6673.00,1.49
6672.00,1.49
6671.00,1.49
6670.00,1.49
6669.00,1.49
6668.00,1.49
6667.00,1.49
6666.00,1.49
6665.00,1.49
6664.00,1.49
6663.00,1.50
6662.00,1.50
6661.00,1.50
6660.00,1.50
6659.00,1.51
6658.00,1.51
6657.00,1.51
6656.00,1.52
6655.00,1.52
6654.00,1.52
6653.00,1.53
6652.00,1.53
6651.00,1.53
6650.00,1.53
6649.00,1.53
6648.00,1.53
6647.00,1.53
6646.00,1.53
6645.00,1.53
6644.00,1.53
6643.00,1.53
6642.00,1.53
6641.00,1.53
6640.00,1.53
6639.00,1.53
6638.00,1.53
6637.00,1.53
6636.00,1.53
6635.00,1.53
6634.00,1.53
6633.00,1.53
6632.00,1.53
6631.00,1.53
6630.00,1.53
6629.00,1.53
6628.00,1.53
6627.00,1.53
6626.00,1.53
6625.00,1.53
6624.00,1.53
6623.00,1.54
6622.00,1.54
6621.00,1.54
6620.00,1.55
6619.00,1.55
6618.00,1.55
6617.00,1.56
6616.00,1.56
6615.00,1.57
6614.00,1.57
6613.00,1.58
6612.00,1.58
6611.00,1.58
6610.00,1.59
6609.00,1.59
6608.00,1.59
6607.00,1.59
6606.00,1.59
6605.00,1.59
6604.00,1.59
6603.00,1.59
6602.00,1.59
6601.00,1.59
6600.00,1.59
6599.00,1.60
6598.00,1.60
6597.00,1.60
6596.00,1.60
6595.00,1.59
6594.00,1.59
6593.00,1.59
6592.00,1.59
6591.00,1.59
6590.00,1.59
6589.00,1.59
6588.00,1.59
6587.00,1.59
6586.00,1.59
6585.00,1.59
6584.00,1.59
6583.00,1.59
6582.00,1.59
6581.00,1.59
6580.00,1.59
6579.00,1.59
6578.00,1.60
6577.00,1.60
6576.00,1.60
6575.00,1.60
6574.00,1.60
6573.00,1.60
6572.00,1.60
6571.00,1.61
6570.00,1.61
6569.00,1.61
6568.00,1.61
6567.00,1.61
6566.00,1.61
6565.00,1.62
6564.00,1.62
6563.00,1.62
6562.00,1.62
6561.00,1.62
6560.00,1.62
6559.00,1.63
6558.00,1.63
6557.00,1.63
6556.00,1.63
6555.00,1.63
6554.00,1.63
6553.00,1.63
6552.00,1.63
6551.00,1.63
6550.00,1.63
6549.00,1.63
6548.00,1.63
6547.00,1.63
6546.00,1.64
6545.00,1.64
6544.00,1.64
6543.00,1.64
6542.00,1.64
6541.00,1.64
6540.00,1.64
6539.00,1.64
6538.00,1.64
6537.00,1.64
6536.00,1.64
6535.00,1.64
6534.00,1.64
6533.00,1.64
6532.00,1.64
6531.00,1.64
6530.00,1.64
6529.00,1.64
6528.00,1.64
6527.00,1.64
6526.00,1.64
6525.00,1.64
6524.00,1.64
6523.00,1.64
6522.00,1.64
6521.00,1.64
6520.00,1.64
6519.00,1.64
6518.00,1.64
6517.00,1.64
6516.00,1.64
6515.00,1.64
6514.00,1.64
6513.00,1.64
6512.00,1.64
6511.00,1.64
6510.00,1.64
6509.00,1.64
6508.00,1.65
6507.00,1.65
6506.00,1.66
6505.00,1.66
6504.00,1.67
6503.00,1.67
6502.00,1.68
6501.00,1.68
6500.00,1.69
6499.00,1.69
6498.00,1.70
6497.00,1.70
6496.00,1.71
6495.00,1.71
6494.00,1.72
6493.00,1.72
6492.00,1.73
6491.00,1.74
6490.00,1.74
6489.00,1.75
6488.00,1.76
6487.00,1.76
6486.00,1.77
6485.00,1.77
6484.00,1.78
6483.00,1.78
6482.00,1.79
6481.00,1.79
6480.00,1.79
6479.00,1.79
6478.00,1.80
6477.00,1.80
6476.00,1.80
6475.00,1.80
6474.00,1.81
6473.00,1.81
6472.00,1.81
6471.00,1.81
6470.00,1.81
6469.00,1.81
6468.00,1.81
6467.00,1.81
6466.00,1.81
6465.00,1.80
6464.00,1.80
6463.00,1.80
6462.00,1.80
6461.00,1.80
6460.00,1.80
6459.00,1.79
6458.00,1.79
6457.00,1.79
6456.00,1.79
6455.00,1.78
6454.00,1.78
6453.00,1.78
6452.00,1.78
6451.00,1.78
6450.00,1.77
6449.00,1.77
6448.00,1.77
6447.00,1.77
6446.00,1.77
6445.00,1.76
6444.00,1.76
6443.00,1.76
6442.00,1.76
6441.00,1.76
6440.00,1.75
6439.00,1.75
6438.00,1.75
6437.00,1.75
6436.00,1.75
6435.00,1.75
6434.00,1.75
6433.00,1.75
6432.00,1.75
6431.00,1.75
6430.00,1.75
6429.00,1.75
6428.00,1.75
6427.00,1.75
6426.00,1.74
6425.00,1.74
6424.00,1.74
6423.00,1.74
6422.00,1.74
6421.00,1.73
6420.00,1.73
6419.00,1.73
6418.00,1.73
6417.00,1.73
6416.00,1.73
6415.00,1.73
6414.00,1.73
6413.00,1.73
6412.00,1.73
6411.00,1.73
6410.00,1.73
6409.00,1.73
6408.00,1.73
6407.00,1.73
6406.00,1.73
6405.00,1.73
6404.00,1.73
6403.00,1.73
6402.00,1.74
6401.00,1.74
6400.00,1.74
6399.00,1.75
6398.00,1.75
6397.00,1.76
6396.00,1.76
6395.00,1.77
6394.00,1.77
6393.00,1.78
6392.00,1.79
6391.00,1.79
6390.00,1.80
6389.00,1.80
6388.00,1.81
6387.00,1.81
6386.00,1.81
6385.00,1.82
6384.00,1.82
6383.00,1.82
6382.00,1.83
6381.00,1.83
6380.00,1.83
6379.00,1.83
6378.00,1.84
6377.00,1.84
6376.00,1.84
6375.00,1.84
6374.00,1.84
6373.00,1.84
6372.00,1.84
6371.00,1.84
6370.00,1.83
6369.00,1.83
6368.00,1.83
6367.00,1.83
6366.00,1.82
6365.00,1.82
6364.00,1.82
6363.00,1.82
6362.00,1.81
6361.00,1.81
6360.00,1.81
6359.00,1.80
6358.00,1.80
6357.00,1.80
6356.00,1.79
6355.00,1.79
6354.00,1.78
6353.00,1.78
6352.00,1.77
6351.00,1.77
6350.00,1.77
6349.00,1.76
6348.00,1.76
6347.00,1.76
6346.00,1.75
6345.00,1.75
6344.00,1.75
6343.00,1.75
6342.00,1.75
6341.00,1.75
6340.00,1.74
6339.00,1.74
6338.00,1.74
6337.00,1.74
6336.00,1.74
6335.00,1.74
6334.00,1.74
6333.00,1.74
6332.00,1.74
6331.00,1.74
6330.00,1.74
6329.00,1.74
6328.00,1.75
6327.00,1.75
6326.00,1.75
6325.00,1.76
6324.00,1.76
6323.00,1.76
6322.00,1.77
6321.00,1.77
6320.00,1.77
6319.00,1.78
6318.00,1.78
6317.00,1.78
6316.00,1.79
6315.00,1.79
6314.00,1.79
6313.00,1.79
6312.00,1.80
6311.00,1.80
6310.00,1.80
6309.00,1.81
6308.00,1.81
6307.00,1.81
6306.00,1.81
6305.00,1.81
6304.00,1.82
6303.00,1.82
6302.00,1.82
6301.00,1.82
6300.00,1.82
6299.00,1.82
6298.00,1.82
6297.00,1.81
6296.00,1.81
6295.00,1.81
6294.00,1.81
6293.00,1.81
6292.00,1.81
6291.00,1.80
6290.00,1.80
6289.00,1.80
6288.00,1.80
6287.00,1.80
6286.00,1.80
6285.00,1.79
6284.00,1.79
6283.00,1.79
6282.00,1.79
6281.00,1.79
6280.00,1.79
6279.00,1.80
6278.00,1.80
6277.00,1.80
6276.00,1.80
6275.00,1.80
6274.00,1.80
6273.00,1.81
6272.00,1.81
6271.00,1.81
6270.00,1.81
6269.00,1.81
6268.00,1.82
6267.00,1.82
6266.00,1.82
6265.00,1.82
6264.00,1.83
6263.00,1.83
6262.00,1.83
6261.00,1.84
6260.00,1.84
6259.00,1.84
6258.00,1.84
6257.00,1.85
6256.00,1.85
6255.00,1.85
6254.00,1.85
6253.00,1.85
6252.00,1.86
6251.00,1.86
6250.00,1.86
6249.00,1.86
6248.00,1.86
6247.00,1.86
6246.00,1.87
6245.00,1.87
6244.00,1.87
6243.00,1.87
6242.00,1.88
6241.00,1.88
6240.00,1.88
6239.00,1.88
6238.00,1.88
6237.00,1.88
6236.00,1.88
6235.00,1.88
6234.00,1.88
6233.00,1.88
6232.00,1.88
6231.00,1.88
6230.00,1.88
6229.00,1.88
6228.00,1.88
6227.00,1.88
6226.00,1.88
6225.00,1.88
6224.00,1.88
6223.00,1.88
6222.00,1.88
6221.00,1.88
6220.00,1.88
6219.00,1.88
6218.00,1.88
6217.00,1.88
6216.00,1.88
6215.00,1.88
6214.00,1.88
6213.00,1.88
6212.00,1.88
6211.00,1.88
6210.00,1.89
6209.00,1.89
6208.00,1.89
6207.00,1.90
6206.00,1.90
6205.00,1.90
6204.00,1.91
6203.00,1.91
6202.00,1.91
6201.00,1.91
6200.00,1.91
6199.00,1.91
6198.00,1.91
6197.00,1.91
6196.00,1.91
6195.00,1.91
6194.00,1.91
6193.00,1.91
6192.00,1.91
6191.00,1.91
6190.00,1.91
6189.00,1.91
6188.00,1.91
6187.00,1.91
6186.00,1.91
6185.00,1.91
6184.00,1.91
6183.00,1.90
6182.00,1.90
6181.00,1.90
6180.00,1.90
6179.00,1.90
6178.00,1.89
6177.00,1.89
6176.00,1.89
6175.00,1.89
6174.00,1.89
6173.00,1.89
6172.00,1.89
6171.00,1.89
6170.00,1.89
6169.00,1.89
6168.00,1.89
6167.00,1.89
6166.00,1.89
6165.00,1.89
6164.00,1.89
6163.00,1.90
6162.00,1.90
6161.00,1.90
6160.00,1.90
6159.00,1.90
6158.00,1.91
6157.00,1.91
6156.00,1.91
6155.00,1.92
6154.00,1.92
6153.00,1.92
6152.00,1.93
6151.00,1.93
6150.00,1.93
6149.00,1.94
6148.00,1.94
6147.00,1.94
6146.00,1.95
6145.00,1.95
6144.00,1.95
6143.00,1.96
6142.00,1.96
6141.00,1.96
6140.00,1.96
6139.00,1.96
6138.00,1.97
6137.00,1.97
6136.00,1.97
6135.00,1.97
6134.00,1.97
6133.00,1.97
6132.00,1.97
6131.00,1.97
6130.00,1.97
6129.00,1.97
6128.00,1.98
6127.00,1.98
6126.00,1.98
6125.00,1.98
6124.00,1.98
6123.00,1.98
6122.00,1.98
6121.00,1.98
6120.00,1.98
6119.00,1.98
6118.00,1.99
6117.00,1.99
6116.00,1.99
6115.00,1.99
6114.00,1.99
6113.00,1.98
6112.00,1.98
6111.00,1.98
6110.00,1.98
6109.00,1.98
6108.00,1.98
6107.00,1.97
6106.00,1.97
6105.00,1.97
6104.00,1.96
6103.00,1.96
6102.00,1.96
6101.00,1.95
6100.00,1.95
6099.00,1.94
6098.00,1.94
6097.00,1.93
6096.00,1.93
6095.00,1.93
6094.00,1.92
6093.00,1.92
6092.00,1.91
6091.00,1.91
6090.00,1.91
6089.00,1.91
6088.00,1.90
6087.00,1.90
6086.00,1.90
6085.00,1.90
6084.00,1.90
6083.00,1.90
6082.00,1.90
6081.00,1.90
6080.00,1.91
6079.00,1.91
6078.00,1.91
6077.00,1.92
6076.00,1.92
6075.00,1.93
6074.00,1.93
6073.00,1.94
6072.00,1.94
6071.00,1.95
6070.00,1.95
6069.00,1.95
6068.00,1.96
6067.00,1.96
6066.00,1.97
6065.00,1.97
6064.00,1.97
6063.00,1.97
6062.00,1.98
6061.00,1.98
6060.00,1.98
6059.00,1.98
6058.00,1.98
6057.00,1.98
6056.00,1.98
6055.00,1.98
6054.00,1.98
6053.00,1.97
6052.00,1.97
6051.00,1.97
6050.00,1.97
6049.00,1.96
6048.00,1.96
6047.00,1.96
6046.00,1.95
6045.00,1.95
6044.00,1.95
6043.00,1.95
6042.00,1.94
6041.00,1.94
6040.00,1.94
6039.00,1.94
6038.00,1.94
6037.00,1.94
6036.00,1.94
6035.00,1.94
6034.00,1.94
6033.00,1.94
6032.00,1.94
6031.00,1.94
6030.00,1.94
6029.00,1.94
6028.00,1.95
6027.00,1.95
6026.00,1.95
6025.00,1.95
6024.00,1.96
6023.00,1.96
6022.00,1.96
6021.00,1.97
6020.00,1.97
6019.00,1.97
6018.00,1.97
6017.00,1.98
6016.00,1.98
6015.00,1.98
6014.00,1.98
6013.00,1.98
6012.00,1.98
6011.00,1.98
6010.00,1.98
6009.00,1.98
6008.00,1.98
6007.00,1.98
6006.00,1.98
6005.00,1.98
6004.00,1.98
6003.00,1.98
6002.00,1.98
6001.00,1.98
6000.00,1.98
5999.00,1.98
5998.00,1.98
5997.00,1.97
5996.00,1.97
5995.00,1.97
5994.00,1.97
5993.00,1.97
5992.00,1.97
5991.00,1.97
5990.00,1.97
5989.00,1.97
5988.00,1.97
5987.00,1.97
5986.00,1.97
5985.00,1.97
5984.00,1.97
5983.00,1.97
5982.00,1.97
5981.00,1.97
5980.00,1.97
5979.00,1.97
5978.00,1.97
5977.00,1.97
5976.00,1.97
5975.00,1.97
5974.00,1.97
5973.00,1.97
5972.00,1.97
5971.00,1.97
5970.00,1.97
5969.00,1.97
5968.00,1.97
5967.00,1.97
5966.00,1.97
5965.00,1.97
5964.00,1.97
5963.00,1.97
5962.00,1.97
5961.00,1.97
5960.00,1.97
5959.00,1.96
5958.00,1.96
5957.00,1.96
5956.00,1.96
5955.00,1.96
5954.00,1.97
5953.00,1.97
5952.00,1.97
5951.00,1.97
5950.00,1.97
5949.00,1.97
5948.00,1.97
5947.00,1.97
5946.00,1.97
5945.00,1.97
5944.00,1.97
5943.00,1.97
5942.00,1.97
5941.00,1.97
5940.00,1.97
5939.00,1.97
5938.00,1.97
5937.00,1.97
5936.00,1.97
5935.00,1.97
5934.00,1.97
5933.00,1.97
5932.00,1.97
5931.00,1.97
5930.00,1.97
5929.00,1.97
5928.00,1.97
5927.00,1.97
5926.00,1.96
5925.00,1.96
5924.00,1.96
5923.00,1.96
5922.00,1.96
5921.00,1.96
5920.00,1.97
5919.00,1.97
5918.00,1.97
5917.00,1.97
5916.00,1.97
5915.00,1.97
5914.00,1.97
5913.00,1.97
5912.00,1.97
5911.00,1.97
5910.00,1.98
5909.00,1.98
5908.00,1.98
5907.00,1.98
5906.00,1.98
5905.00,1.98
5904.00,1.98
5903.00,1.98
5902.00,1.98
5901.00,1.98
5900.00,1.99
5899.00,1.99
5898.00,1.98
5897.00,1.98
5896.00,1.98
5895.00,1.98
5894.00,1.98
5893.00,1.98
5892.00,1.98
5891.00,1.97
5890.00,1.97
5889.00,1.97
5888.00,1.97
5887.00,1.97
5886.00,1.97
5885.00,1.97
5884.00,1.97
5883.00,1.97
5882.00,1.98
5881.00,1.98
5880.00,1.98
5879.00,1.98
5878.00,1.98
5877.00,1.99
5876.00,1.99
5875.00,1.99
5874.00,1.99
5873.00,1.99
5872.00,2.00
5871.00,2.00
5870.00,2.00
5869.00,2.00
5868.00,2.01
5867.00,2.01
5866.00,2.01
5865.00,2.02
5864.00,2.02
5863.00,2.02
5862.00,2.03
5861.00,2.03
5860.00,2.03
5859.00,2.03
5858.00,2.03
5857.00,2.04
5856.00,2.04
5855.00,2.04
5854.00,2.04
5853.00,2.04
5852.00,2.04
5851.00,2.04
5850.00,2.04
5849.00,2.04
5848.00,2.04
5847.00,2.04
5846.00,2.04
5845.00,2.04
5844.00,2.05
5843.00,2.05
5842.00,2.05
5841.00,2.05
5840.00,2.05
5839.00,2.05
5838.00,2.05
5837.00,2.05
5836.00,2.05
5835.00,2.05
5834.00,2.05
5833.00,2.05
5832.00,2.05
5831.00,2.04
5830.00,2.04
5829.00,2.04
5828.00,2.04
5827.00,2.03
5826.00,2.03
5825.00,2.03
5824.00,2.02
5823.00,2.02
5822.00,2.02
5821.00,2.01
5820.00,2.01
5819.00,2.01
5818.00,2.00
5817.00,2.00
5816.00,2.00
5815.00,1.99
5814.00,1.99
5813.00,1.98
5812.00,1.98
5811.00,1.98
5810.00,1.98
5809.00,1.97
5808.00,1.97
5807.00,1.97
5806.00,1.97
5805.00,1.97
5804.00,1.97
5803.00,1.97
5802.00,1.97
5801.00,1.97
5800.00,1.97
5799.00,1.97
5798.00,1.97
5797.00,1.96
5796.00,1.96
5795.00,1.96
5794.00,1.96
5793.00,1.96
5792.00,1.96
5791.00,1.96
5790.00,1.96
5789.00,1.96
5788.00,1.96
5787.00,1.96
5786.00,1.96
5785.00,1.96
5784.00,1.96
5783.00,1.96
5782.00,1.96
5781.00,1.96
5780.00,1.96
5779.00,1.96
5778.00,1.95
5777.00,1.95
5776.00,1.95
5775.00,1.95
5774.00,1.95
5773.00,1.95
5772.00,1.95
5771.00,1.95
5770.00,1.95
5769.00,1.95
5768.00,1.95
5767.00,1.95
5766.00,1.95
5765.00,1.95
5764.00,1.95
5763.00,1.95
5762.00,1.94
5761.00,1.94
5760.00,1.94
5759.00,1.94
5758.00,1.94
5757.00,1.94
5756.00,1.94
5755.00,1.94
5754.00,1.94
5753.00,1.94
5752.00,1.94
5751.00,1.94
5750.00,1.94
5749.00,1.94
5748.00,1.94
5747.00,1.94
5746.00,1.94
5745.00,1.94
5744.00,1.95
5743.00,1.95
5742.00,1.95
5741.00,1.95
5740.00,1.96
5739.00,1.96
5738.00,1.96
5737.00,1.97
5736.00,1.97
5735.00,1.97
5734.00,1.98
5733.00,1.98
5732.00,1.98
5731.00,1.98
5730.00,1.98
5729.00,1.99
5728.00,1.99
5727.00,1.99
5726.00,1.99
5725.00,1.99
5724.00,1.99
5723.00,1.99
5722.00,1.99
5721.00,1.99
5720.00,2.00
5719.00,1.99
5718.00,1.99
5717.00,1.99
5716.00,1.99
5715.00,1.99
5714.00,1.99
5713.00,1.99
5712.00,1.99
5711.00,1.99
5710.00,1.98
5709.00,1.98
5708.00,1.98
5707.00,1.98
5706.00,1.98
5705.00,1.99
5704.00,1.99
5703.00,1.99
5702.00,1.99
5701.00,1.99
5700.00,1.99
5699.00,1.99
5698.00,1.99
5697.00,1.99
5696.00,1.99
5695.00,1.99
5694.00,2.00
5693.00,2.00
5692.00,2.00
5691.00,2.00
5690.00,2.00
5689.00,2.00
5688.00,2.00
5687.00,2.00
5686.00,2.00
5685.00,2.00
5684.00,2.00
5683.00,2.00
5682.00,1.99
5681.00,1.99
5680.00,1.99
5679.00,1.99
5678.00,1.99
5677.00,1.98
5676.00,1.98
5675.00,1.98
5674.00,1.98
5673.00,1.98
5672.00,1.97
5671.00,1.97
5670.00,1.97
5669.00,1.97
5668.00,1.97
5667.00,1.96
5666.00,1.96
5665.00,1.96
5664.00,1.96
5663.00,1.96
5662.00,1.96
5661.00,1.96
5660.00,1.96
5659.00,1.97
5658.00,1.97
5657.00,1.97
5656.00,1.97
5655.00,1.98
5654.00,1.98
5653.00,1.98
5652.00,1.98
5651.00,1.99
5650.00,1.99
5649.00,1.99
5648.00,1.99
5647.00,2.00
5646.00,2.00
5645.00,2.00
5644.00,2.00
5643.00,2.00
5642.00,2.01
5641.00,2.01
5640.00,2.01
5639.00,2.01
5638.00,2.01
5637.00,2.01
5636.00,2.01
5635.00,2.00
5634.00,2.00
5633.00,2.00
5632.00,2.00
5631.00,2.00
5630.00,1.99
5629.00,1.99
5628.00,1.99
5627.00,1.99
5626.00,1.98
5625.00,1.98
5624.00,1.98
5623.00,1.98
5622.00,1.98
5621.00,1.98
5620.00,1.97
5619.00,1.97
5618.00,1.97
5617.00,1.97
5616.00,1.97
5615.00,1.97
5614.00,1.97
5613.00,1.97
5612.00,1.97
5611.00,1.97
5610.00,1.97
5609.00,1.97
5608.00,1.97
5607.00,1.97
5606.00,1.97
5605.00,1.97
5604.00,1.97
5603.00,1.98
5602.00,1.98
5601.00,1.98
5600.00,1.98
5599.00,1.98
5598.00,1.98
5597.00,1.98
5596.00,1.98
5595.00,1.98
5594.00,1.98
5593.00,1.98
5592.00,1.99
5591.00,1.99
5590.00,1.99
5589.00,1.99
5588.00,2.00
5587.00,2.00
5586.00,2.00
5585.00,2.01
5584.00,2.01
5583.00,2.01
5582.00,2.01
5581.00,2.02
5580.00,2.02
5579.00,2.02
5578.00,2.02
5577.00,2.03
5576.00,2.03
5575.00,2.03
5574.00,2.04
5573.00,2.04
5572.00,2.04
5571.00,2.04
5570.00,2.05
5569.00,2.05
5568.00,2.05
5567.00,2.05
5566.00,2.05
5565.00,2.05
5564.00,2.05
5563.00,2.06
5562.00,2.06
5561.00,2.06
5560.00,2.05
5559.00,2.05
5558.00,2.05
5557.00,2.05
5556.00,2.05
5555.00,2.05
5554.00,2.05
5553.00,2.05
5552.00,2.04
5551.00,2.04
5550.00,2.04
5549.00,2.04
5548.00,2.04
5547.00,2.04
5546.00,2.04
5545.00,2.04
5544.00,2.04
5543.00,2.04
5542.00,2.04
5541.00,2.04
5540.00,2.04
5539.00,2.04
5538.00,2.04
5537.00,2.04
5536.00,2.04
5535.00,2.04
5534.00,2.04
5533.00,2.04
5532.00,2.05
5531.00,2.05
5530.00,2.05
5529.00,2.06
5528.00,2.06
5527.00,2.06
5526.00,2.07
5525.00,2.07
5524.00,2.08
5523.00,2.08
5522.00,2.08
5521.00,2.09
5520.00,2.09
5519.00,2.09
5518.00,2.10
5517.00,2.10
5516.00,2.11
5515.00,2.11
5514.00,2.12
5513.00,2.12
5512.00,2.13
5511.00,2.13
5510.00,2.13
5509.00,2.14
5508.00,2.14
5507.00,2.14
5506.00,2.14
5505.00,2.14
5504.00,2.14
5503.00,2.14
5502.00,2.14
5501.00,2.14
5500.00,2.14
5499.00,2.14
5498.00,2.14
5497.00,2.14
5496.00,2.14
5495.00,2.14
5494.00,2.14
5493.00,2.14
5492.00,2.13
5491.00,2.13
5490.00,2.13
5489.00,2.13
5488.00,2.12
5487.00,2.12
5486.00,2.11
5485.00,2.11
5484.00,2.11
5483.00,2.11
5482.00,2.10
5481.00,2.10
5480.00,2.10
5479.00,2.10
5478.00,2.09
5477.00,2.09
5476.00,2.09
5475.00,2.09
5474.00,2.08
5473.00,2.08
5472.00,2.08
5471.00,2.08
5470.00,2.07
5469.00,2.07
5468.00,2.07
5467.00,2.06
5466.00,2.06
5465.00,2.06
5464.00,2.05
5463.00,2.05
5462.00,2.05
5461.00,2.05
5460.00,2.05
5459.00,2.04
5458.00,2.04
5457.00,2.04
5456.00,2.04
5455.00,2.04
5454.00,2.04
5453.00,2.04
5452.00,2.04
5451.00,2.04
5450.00,2.04
5449.00,2.04
5448.00,2.04
5447.00,2.04
5446.00,2.04
5445.00,2.04
5444.00,2.05
5443.00,2.05
5442.00,2.05
5441.00,2.05
5440.00,2.06
5439.00,2.06
5438.00,2.07
5437.00,2.07
5436.00,2.07
5435.00,2.08
5434.00,2.08
5433.00,2.08
5432.00,2.09
5431.00,2.09
5430.00,2.09
5429.00,2.10
5428.00,2.10
5427.00,2.10
5426.00,2.10
5425.00,2.10
5424.00,2.11
5423.00,2.11
5422.00,2.11
5421.00,2.11
5420.00,2.11
5419.00,2.11
5418.00,2.12
5417.00,2.12
5416.00,2.12
5415.00,2.12
5414.00,2.11
5413.00,2.11
5412.00,2.11
5411.00,2.11
5410.00,2.11
5409.00,2.10
5408.00,2.10
5407.00,2.10
5406.00,2.10
5405.00,2.09
5404.00,2.09
5403.00,2.09
5402.00,2.09
5401.00,2.08
5400.00,2.08
5399.00,2.08
5398.00,2.08
5397.00,2.07
5396.00,2.07
5395.00,2.07
5394.00,2.07
5393.00,2.06
5392.00,2.06
5391.00,2.06
5390.00,2.06
5389.00,2.05
5388.00,2.05
5387.00,2.05
5386.00,2.05
5385.00,2.05
5384.00,2.05
5383.00,2.05
5382.00,2.05
5381.00,2.05
5380.00,2.05
5379.00,2.05
5378.00,2.05
5377.00,2.05
5376.00,2.05
5375.00,2.05
5374.00,2.05
5373.00,2.05
5372.00,2.05
5371.00,2.05
5370.00,2.05
5369.00,2.05
5368.00,2.04
5367.00,2.04
5366.00,2.04
5365.00,2.04
5364.00,2.03
5363.00,2.03
5362.00,2.03
5361.00,2.02
5360.00,2.02
5359.00,2.01
5358.00,2.01
5357.00,2.00
5356.00,2.00
5355.00,1.99
5354.00,1.98
5353.00,1.98
5352.00,1.97
5351.00,1.97
5350.00,1.96
5349.00,1.95
5348.00,1.95
5347.00,1.94
5346.00,1.93
5345.00,1.93
5344.00,1.92
5343.00,1.91
5342.00,1.90
5341.00,1.90
5340.00,1.89
5339.00,1.89
5338.00,1.88
5337.00,1.87
5336.00,1.87
5335.00,1.86
5334.00,1.85
5333.00,1.84
5332.00,1.84
5331.00,1.83
5330.00,1.82
5329.00,1.82
5328.00,1.81
5327.00,1.81
5326.00,1.80
5325.00,1.79
5324.00,1.79
5323.00,1.78
5322.00,1.77
5321.00,1.76
5320.00,1.76
5319.00,1.75
5318.00,1.74
5317.00,1.73
5316.00,1.72
5315.00,1.71
5314.00,1.70
5313.00,1.69
5312.00,1.68
5311.00,1.67
5310.00,1.66
5309.00,1.65
5308.00,1.64
5307.00,1.62
5306.00,1.61
5305.00,1.60
5304.00,1.59
5303.00,1.57
5302.00,1.56
5301.00,1.54
5300.00,1.53
5299.00,1.51
5298.00,1.49
5297.00,1.48
5296.00,1.46
5295.00,1.45
5294.00,1.43
5293.00,1.42
5292.00,1.40
5291.00,1.39
5290.00,1.37
5289.00,1.36
5288.00,1.35
5287.00,1.34
5286.00,1.33
5285.00,1.31
5284.00,1.30
5283.00,1.29
5282.00,1.28
5281.00,1.27
5280.00,1.26
5279.00,1.26
5278.00,1.25
5277.00,1.24
5276.00,1.23
5275.00,1.23
5274.00,1.22
5273.00,1.21
5272.00,1.20
5271.00,1.20
5270.00,1.19
5269.00,1.19
5268.00,1.18
5267.00,1.17
5266.00,1.17
5265.00,1.16
5264.00,1.15
5263.00,1.15
5262.00,1.14
5261.00,1.14
5260.00,1.13
5259.00,1.12
5258.00,1.12
5257.00,1.11
5256.00,1.11
5255.00,1.10
5254.00,1.10
5253.00,1.09
5252.00,1.09
5251.00,1.08
5250.00,1.08
5249.00,1.08
5248.00,1.07
5247.00,1.07
5246.00,1.07
5245.00,1.07
5244.00,1.07
5243.00,1.07
5242.00,1.07
5241.00,1.07
5240.00,1.07
5239.00,1.07
5238.00,1.07
5237.00,1.07
5236.00,1.07
5235.00,1.07
5234.00,1.07
5233.00,1.07
5232.00,1.07
5231.00,1.07
5230.00,1.07
5229.00,1.07
5228.00,1.07
5227.00,1.07
5226.00,1.07
5225.00,1.07
5224.00,1.07
5223.00,1.07
5222.00,1.07
5221.00,1.07
5220.00,1.07
5219.00,1.06
5218.00,1.06
5217.00,1.06
5216.00,1.06
5215.00,1.06
5214.00,1.06
5213.00,1.05
5212.00,1.05
5211.00,1.05
5210.00,1.05
5209.00,1.05
5208.00,1.04
5207.00,1.04
5206.00,1.04
5205.00,1.04
5204.00,1.03
5203.00,1.03
5202.00,1.03
5201.00,1.02
5200.00,1.02
5199.00,1.02
5198.00,1.01
5197.00,1.01
5196.00,1.01
5195.00,1.00
5194.00,1.00
5193.00,1.00
5192.00,1.00
5191.00,0.99
5190.00,0.99
5189.00,0.99
5188.00,0.98
5187.00,0.98
5186.00,0.98
5185.00,0.98
5184.00,0.98
5183.00,0.98
5182.00,0.97
5181.00,0.97
5180.00,0.97
5179.00,0.97
5178.00,0.97
5177.00,0.97
5176.00,0.97
5175.00,0.97
5174.00,0.97
5173.00,0.97
5172.00,0.97
5171.00,0.97
5170.00,0.98
5169.00,0.98
5168.00,0.98
5167.00,0.98
5166.00,0.99
5165.00,0.99
5164.00,0.99
5163.00,1.00
5162.00,1.00
5161.00,1.00
5160.00,1.01
5159.00,1.01
5158.00,1.01
5157.00,1.02
5156.00,1.02
5155.00,1.02
5154.00,1.03
5153.00,1.03
5152.00,1.03
5151.00,1.04
5150.00,1.04
5149.00,1.04
5148.00,1.05
5147.00,1.05
5146.00,1.05
5145.00,1.05
5144.00,1.06
5143.00,1.06
5142.00,1.06
5141.00,1.06
5140.00,1.06
5139.00,1.06
5138.00,1.06
5137.00,1.06
5136.00,1.06
5135.00,1.06
5134.00,1.05
5133.00,1.05
5132.00,1.05
5131.00,1.05
5130.00,1.05
5129.00,1.05
5128.00,1.05
5127.00,1.04
5126.00,1.04
5125.00,1.04
5124.00,1.04
5123.00,1.04
5122.00,1.04
5121.00,1.04
5120.00,1.04
5119.00,1.04
5118.00,1.04
5117.00,1.04
5116.00,1.04
5115.00,1.04
5114.00,1.04
5113.00,1.04
5112.00,1.04
5111.00,1.05
5110.00,1.05
5109.00,1.05
5108.00,1.05
5107.00,1.05
5106.00,1.05
5105.00,1.06
5104.00,1.06
5103.00,1.06
5102.00,1.06
5101.00,1.06
5100.00,1.07
5099.00,1.07
5098.00,1.07
5097.00,1.07
5096.00,1.07
5095.00,1.07
5094.00,1.07
5093.00,1.07
5092.00,1.07
5091.00,1.07
5090.00,1.07
5089.00,1.07
5088.00,1.07
5087.00,1.07
5086.00,1.07
5085.00,1.08
5084.00,1.08
5083.00,1.08
5082.00,1.08
5081.00,1.09
5080.00,1.09
5079.00,1.09
5078.00,1.09
5077.00,1.10
5076.00,1.10
5075.00,1.10
5074.00,1.11
5073.00,1.11
5072.00,1.11
5071.00,1.12
5070.00,1.12
5069.00,1.13
5068.00,1.14
5067.00,1.14
5066.00,1.15
5065.00,1.15
5064.00,1.15
5063.00,1.16
5062.00,1.16
5061.00,1.17
5060.00,1.17
5059.00,1.17
5058.00,1.18
5057.00,1.18
5056.00,1.18
5055.00,1.18
5054.00,1.18
5053.00,1.19
5052.00,1.19
5051.00,1.19
5050.00,1.19
5049.00,1.19
5048.00,1.19
5047.00,1.19
5046.00,1.19
5045.00,1.19
5044.00,1.19
5043.00,1.19
5042.00,1.19
5041.00,1.19
5040.00,1.19
5039.00,1.19
5038.00,1.20
5037.00,1.20
5036.00,1.20
5035.00,1.20
5034.00,1.20
5033.00,1.20
5032.00,1.20
5031.00,1.20
5030.00,1.21
5029.00,1.21
5028.00,1.21
5027.00,1.21
5026.00,1.22
5025.00,1.22
5024.00,1.22
5023.00,1.23
5022.00,1.23
5021.00,1.24
5020.00,1.24
5019.00,1.24
5018.00,1.25
5017.00,1.25
5016.00,1.26
5015.00,1.26
5014.00,1.26
5013.00,1.27
5012.00,1.27
5011.00,1.28
5010.00,1.28
5009.00,1.28
5008.00,1.29
5007.00,1.29
5006.00,1.29
5005.00,1.29
5004.00,1.30
5003.00,1.30
5002.00,1.30
5001.00,1.30
5000.00,1.30
4999.00,1.30
4998.00,1.31
4997.00,1.31
4996.00,1.31
4995.00,1.31
4994.00,1.31
4993.00,1.31
4992.00,1.32
4991.00,1.32
4990.00,1.32
4989.00,1.32
4988.00,1.32
4987.00,1.32
4986.00,1.32
4985.00,1.32
4984.00,1.32
4983.00,1.33
4982.00,1.33
4981.00,1.33
4980.00,1.34
4979.00,1.34
4978.00,1.34
4977.00,1.35
4976.00,1.35
4975.00,1.36
4974.00,1.36
4973.00,1.37
4972.00,1.38
4971.00,1.38
4970.00,1.39
4969.00,1.39
4968.00,1.39
4967.00,1.40
4966.00,1.40
4965.00,1.41
4964.00,1.41
4963.00,1.41
4962.00,1.42
4961.00,1.42
4960.00,1.43
4959.00,1.43
4958.00,1.43
4957.00,1.44
4956.00,1.44
4955.00,1.44
4954.00,1.45
4953.00,1.45
4952.00,1.45
4951.00,1.45
4950.00,1.45
4949.00,1.46
4948.00,1.46
4947.00,1.46
4946.00,1.46
4945.00,1.46
4944.00,1.46
4943.00,1.46
4942.00,1.46
4941.00,1.46
4940.00,1.47
4939.00,1.47
4938.00,1.47
4937.00,1.48
4936.00,1.48
4935.00,1.48
4934.00,1.48
4933.00,1.48
4932.00,1.49
4931.00,1.49
4930.00,1.49
4929.00,1.49
4928.00,1.49
4927.00,1.49
4926.00,1.49
4925.00,1.49
4924.00,1.49
4923.00,1.49
4922.00,1.49
4921.00,1.50
4920.00,1.50
4919.00,1.50
4918.00,1.50
4917.00,1.50
4916.00,1.50
4915.00,1.50
4914.00,1.50
4913.00,1.50
4912.00,1.50
4911.00,1.51
4910.00,1.51
4909.00,1.51
4908.00,1.51
4907.00,1.51
4906.00,1.51
4905.00,1.51
4904.00,1.51
4903.00,1.52
4902.00,1.52
4901.00,1.52
4900.00,1.53
4899.00,1.53
4898.00,1.53
4897.00,1.54
4896.00,1.54
4895.00,1.55
4894.00,1.55
4893.00,1.55
4892.00,1.56
4891.00,1.56
4890.00,1.57
4889.00,1.57
4888.00,1.57
4887.00,1.58
4886.00,1.58
4885.00,1.58
4884.00,1.59
4883.00,1.59
4882.00,1.59
4881.00,1.60
4880.00,1.60
4879.00,1.61
4878.00,1.61
4877.00,1.61
4876.00,1.61
4875.00,1.62
4874.00,1.62
4873.00,1.62
4872.00,1.62
4871.00,1.63
4870.00,1.63
4869.00,1.63
4868.00,1.63
4867.00,1.63
4866.00,1.63
4865.00,1.64
4864.00,1.64
4863.00,1.64
4862.00,1.64
4861.00,1.64
4860.00,1.64
4859.00,1.65
4858.00,1.65
4857.00,1.65
4856.00,1.65
4855.00,1.65
4854.00,1.65
4853.00,1.66
4852.00,1.66
4851.00,1.66
4850.00,1.66
4849.00,1.66
4848.00,1.67
4847.00,1.67
4846.00,1.67
4845.00,1.67
4844.00,1.68
4843.00,1.68
4842.00,1.68
4841.00,1.68
4840.00,1.69
4839.00,1.69
4838.00,1.69
4837.00,1.69
4836.00,1.70
4835.00,1.70
4834.00,1.70
4833.00,1.71
4832.00,1.71
4831.00,1.71
4830.00,1.71
4829.00,1.72
4828.00,1.72
4827.00,1.72
4826.00,1.72
4825.00,1.73
4824.00,1.73
4823.00,1.73
4822.00,1.73
4821.00,1.74
4820.00,1.74
4819.00,1.74
4818.00,1.75
4817.00,1.75
4816.00,1.75
4815.00,1.75
4814.00,1.76
4813.00,1.76
4812.00,1.76
4811.00,1.76
4810.00,1.77
4809.00,1.77
4808.00,1.77
4807.00,1.77
4806.00,1.77
4805.00,1.78
4804.00,1.78
4803.00,1.78
4802.00,1.78
4801.00,1.78
4800.00,1.78
4799.00,1.79
4798.00,1.79
4797.00,1.79
4796.00,1.80
4795.00,1.80
4794.00,1.80
4793.00,1.81
4792.00,1.81
4791.00,1.81
4790.00,1.82
4789.00,1.82
4788.00,1.83
4787.00,1.83
4786.00,1.84
4785.00,1.84
4784.00,1.85
4783.00,1.85
4782.00,1.86
4781.00,1.86
4780.00,1.87
4779.00,1.87
4778.00,1.88
4777.00,1.88
4776.00,1.88
4775.00,1.89
4774.00,1.89
4773.00,1.89
4772.00,1.90
4771.00,1.90
4770.00,1.90
4769.00,1.90
4768.00,1.90
4767.00,1.90
4766.00,1.90
4765.00,1.90
4764.00,1.90
4763.00,1.90
4762.00,1.89
4761.00,1.89
4760.00,1.89
4759.00,1.89
4758.00,1.89
4757.00,1.89
4756.00,1.89
4755.00,1.88
4754.00,1.88
4753.00,1.88
4752.00,1.88
4751.00,1.88
4750.00,1.88
4749.00,1.88
4748.00,1.89
4747.00,1.89
4746.00,1.89
4745.00,1.89
4744.00,1.89
4743.00,1.90
4742.00,1.90
4741.00,1.90
4740.00,1.91
4739.00,1.91
4738.00,1.91
4737.00,1.92
4736.00,1.92
4735.00,1.93
4734.00,1.93
4733.00,1.94
4732.00,1.94
4731.00,1.94
4730.00,1.95
4729.00,1.95
4728.00,1.96
4727.00,1.96
4726.00,1.96
4725.00,1.97
4724.00,1.97
4723.00,1.97
4722.00,1.97
4721.00,1.98
4720.00,1.98
4719.00,1.98
4718.00,1.98
4717.00,1.98
4716.00,1.98
4715.00,1.98
4714.00,1.98
4713.00,1.98
4712.00,1.99
4711.00,1.99
4710.00,1.99
4709.00,1.99
4708.00,1.99
4707.00,1.99
4706.00,1.99
4705.00,1.99
4704.00,1.99
4703.00,1.99
4702.00,1.99
4701.00,1.99
4700.00,1.99
4699.00,2.00
4698.00,2.00
4697.00,2.00
4696.00,2.00
4695.00,2.00
4694.00,2.00
4693.00,2.01
4692.00,2.01
4691.00,2.01
4690.00,2.01
4689.00,2.01
4688.00,2.02
4687.00,2.02
4686.00,2.02
4685.00,2.02
4684.00,2.02
4683.00,2.02
4682.00,2.02
4681.00,2.03
4680.00,2.03
4679.00,2.03
4678.00,2.03
4677.00,2.03
4676.00,2.03
4675.00,2.03
4674.00,2.03
4673.00,2.03
4672.00,2.03
4671.00,2.03
4670.00,2.04
4669.00,2.04
4668.00,2.04
4667.00,2.04
4666.00,2.04
4665.00,2.04
4664.00,2.04
4663.00,2.04
4662.00,2.05
4661.00,2.05
4660.00,2.05
4659.00,2.05
4658.00,2.06
4657.00,2.06
4656.00,2.06
4655.00,2.07
4654.00,2.07
4653.00,2.07
4652.00,2.08
4651.00,2.08
4650.00,2.08
4649.00,2.09
4648.00,2.09
4647.00,2.09
4646.00,2.10
4645.00,2.10
4644.00,2.10
4643.00,2.11
4642.00,2.11
4641.00,2.11
4640.00,2.11
4639.00,2.11
4638.00,2.12
4637.00,2.12
4636.00,2.12
4635.00,2.12
4634.00,2.12
4633.00,2.12
4632.00,2.11
4631.00,2.11
4630.00,2.11
4629.00,2.11
4628.00,2.11
4627.00,2.10
4626.00,2.10
4625.00,2.10
4624.00,2.10
4623.00,2.09
4622.00,2.09
4621.00,2.09
4620.00,2.09
4619.00,2.08
4618.00,2.08
4617.00,2.08
4616.00,2.08
4615.00,2.08
4614.00,2.08
4613.00,2.07
4612.00,2.07
4611.00,2.07
4610.00,2.08
4609.00,2.08
4608.00,2.08
4607.00,2.08
4606.00,2.08
4605.00,2.08
4604.00,2.08
4603.00,2.08
4602.00,2.08
4601.00,2.07
4600.00,2.07
4599.00,2.07
4598.00,2.07
4597.00,2.07
4596.00,2.07
4595.00,2.07
4594.00,2.07
4593.00,2.07
4592.00,2.07
4591.00,2.07
4590.00,2.07
4589.00,2.07
4588.00,2.06
4587.00,2.06
4586.00,2.06
4585.00,2.06
4584.00,2.05
4583.00,2.05
4582.00,2.05
4581.00,2.05
4580.00,2.04
4579.00,2.04
4578.00,2.04
4577.00,2.04
4576.00,2.04
4575.00,2.04
4574.00,2.04
4573.00,2.04
4572.00,2.04
4571.00,2.04
4570.00,2.04
4569.00,2.04
4568.00,2.04
4567.00,2.04
4566.00,2.05
4565.00,2.05
4564.00,2.05
4563.00,2.05
4562.00,2.05
4561.00,2.05
4560.00,2.05
4559.00,2.05
4558.00,2.06
4557.00,2.06
4556.00,2.06
4555.00,2.06
4554.00,2.06
4553.00,2.06
4552.00,2.06
4551.00,2.07
4550.00,2.07
4549.00,2.07
4548.00,2.07
4547.00,2.07
4546.00,2.08
4545.00,2.08
4544.00,2.08
4543.00,2.08
4542.00,2.08
4541.00,2.08
4540.00,2.09
4539.00,2.09
4538.00,2.09
4537.00,2.09
4536.00,2.09
4535.00,2.09
4534.00,2.09
4533.00,2.10
4532.00,2.10
4531.00,2.10
4530.00,2.10
4529.00,2.11
4528.00,2.11
4527.00,2.11
4526.00,2.12
4525.00,2.12
4524.00,2.12
4523.00,2.12
4522.00,2.13
4521.00,2.13
4520.00,2.13
4519.00,2.13
4518.00,2.13
4517.00,2.13
4516.00,2.13
4515.00,2.13
4514.00,2.13
4513.00,2.13
4512.00,2.13
4511.00,2.13
4510.00,2.13
4509.00,2.13
4508.00,2.12
4507.00,2.12
4506.00,2.12
4505.00,2.12
4504.00,2.11
4503.00,2.11
4502.00,2.11
4501.00,2.10
4500.00,2.10
4499.00,2.10
4498.00,2.09
4497.00,2.09
4496.00,2.09
4495.00,2.08
4494.00,2.08
4493.00,2.08
4492.00,2.08
4491.00,2.08
4490.00,2.07
4489.00,2.07
4488.00,2.07
4487.00,2.07
4486.00,2.07
4485.00,2.07
4484.00,2.07
4483.00,2.07
4482.00,2.07
4481.00,2.07
4480.00,2.07
4479.00,2.07
4478.00,2.07
4477.00,2.08
4476.00,2.08
4475.00,2.08
4474.00,2.08
4473.00,2.08
4472.00,2.08
4471.00,2.09
4470.00,2.09
4469.00,2.09
4468.00,2.09
4467.00,2.09
4466.00,2.09
4465.00,2.09
4464.00,2.09
4463.00,2.09
4462.00,2.09
4461.00,2.09
4460.00,2.09
4459.00,2.09
4458.00,2.09
4457.00,2.09
4456.00,2.09
4455.00,2.09
4454.00,2.09
4453.00,2.09
4452.00,2.09
4451.00,2.09
4450.00,2.09
4449.00,2.09
4448.00,2.08
4447.00,2.08
4446.00,2.08
4445.00,2.08
4444.00,2.07
4443.00,2.07
4442.00,2.07
4441.00,2.07
4440.00,2.07
4439.00,2.06
4438.00,2.06
4437.00,2.06
4436.00,2.05
4435.00,2.05
4434.00,2.05
4433.00,2.04
4432.00,2.04
4431.00,2.04
4430.00,2.03
4429.00,2.03
4428.00,2.03
4427.00,2.02
4426.00,2.02
4425.00,2.02
4424.00,2.01
4423.00,2.01
4422.00,2.01
4421.00,2.00
4420.00,2.00
4419.00,2.00
4418.00,2.00
4417.00,2.00
4416.00,2.00
4415.00,1.99
4414.00,1.99
4413.00,1.99
4412.00,1.99
4411.00,1.99
4410.00,1.99
4409.00,1.99
4408.00,1.99
4407.00,1.99
4406.00,1.99
4405.00,1.98
4404.00,1.98
4403.00,1.98
4402.00,1.98
4401.00,1.98
4400.00,1.99
4399.00,1.99
4398.00,1.99
4397.00,1.99
4396.00,1.99
4395.00,1.99
4394.00,2.00
4393.00,2.00
4392.00,2.00
4391.00,2.00
4390.00,2.00
4389.00,2.00
4388.00,2.00
4387.00,2.00
4386.00,2.01
4385.00,2.01
4384.00,2.01
4383.00,2.01
4382.00,2.01
4381.00,2.01
4380.00,2.01
4379.00,2.01
4378.00,2.00
4377.00,2.00
4376.00,2.00
4375.00,2.00
4374.00,2.00
4373.00,2.00
4372.00,1.99
4371.00,1.99
4370.00,1.99
4369.00,1.98
4368.00,1.98
4367.00,1.98
4366.00,1.98
4365.00,1.98
4364.00,1.97
4363.00,1.97
4362.00,1.97
4361.00,1.97
4360.00,1.97
4359.00,1.96
4358.00,1.96
4357.00,1.96
4356.00,1.96
4355.00,1.96
4354.00,1.96
4353.00,1.96
4352.00,1.96
4351.00,1.96
4350.00,1.96
4349.00,1.96
4348.00,1.96
4347.00,1.96
4346.00,1.96
4345.00,1.96
4344.00,1.96
4343.00,1.97
4342.00,1.97
4341.00,1.97
4340.00,1.97
4339.00,1.97
4338.00,1.98
4337.00,1.98
4336.00,1.98
4335.00,1.98
4334.00,1.98
4333.00,1.99
4332.00,1.99
4331.00,1.99
4330.00,1.99
4329.00,2.00
4328.00,2.00
4327.00,2.00
4326.00,2.00
4325.00,2.01
4324.00,2.01
4323.00,2.01
4322.00,2.01
4321.00,2.02
4320.00,2.02
4319.00,2.02
4318.00,2.02
4317.00,2.02
4316.00,2.02
4315.00,2.02
4314.00,2.03
4313.00,2.03
4312.00,2.03
4311.00,2.03
4310.00,2.03
4309.00,2.03
4308.00,2.04
4307.00,2.04
4306.00,2.04
4305.00,2.04
4304.00,2.05
4303.00,2.05
4302.00,2.05
4301.00,2.05
4300.00,2.06
4299.00,2.06
4298.00,2.06
4297.00,2.06
4296.00,2.07
4295.00,2.07
4294.00,2.07
4293.00,2.07
4292.00,2.08
4291.00,2.08
4290.00,2.08
4289.00,2.08
4288.00,2.09
4287.00,2.09
4286.00,2.09
4285.00,2.09
4284.00,2.09
4283.00,2.10
4282.00,2.10
4281.00,2.10
4280.00,2.10
4279.00,2.10
4278.00,2.10
4277.00,2.10
4276.00,2.10
4275.00,2.10
4274.00,2.10
4273.00,2.10
4272.00,2.10
4271.00,2.10
4270.00,2.10
4269.00,2.10
4268.00,2.10
4267.00,2.09
4266.00,2.09
4265.00,2.09
4264.00,2.09
4263.00,2.08
4262.00,2.08
4261.00,2.08
4260.00,2.08
4259.00,2.08
4258.00,2.07
4257.00,2.07
4256.00,2.07
4255.00,2.07
4254.00,2.07
4253.00,2.06
4252.00,2.06
4251.00,2.06
4250.00,2.06
4249.00,2.06
4248.00,2.06
4247.00,2.06
4246.00,2.06
4245.00,2.07
4244.00,2.07
4243.00,2.07
4242.00,2.07
4241.00,2.07
4240.00,2.08
4239.00,2.08
4238.00,2.08
4237.00,2.08
4236.00,2.09
4235.00,2.09
4234.00,2.09
4233.00,2.09
4232.00,2.09
4231.00,2.10
4230.00,2.10
4229.00,2.10
4228.00,2.10
4227.00,2.11
4226.00,2.11
4225.00,2.11
4224.00,2.11
4223.00,2.11
4222.00,2.11
4221.00,2.11
4220.00,2.11
4219.00,2.11
4218.00,2.11
4217.00,2.11
4216.00,2.11
4215.00,2.10
4214.00,2.10
4213.00,2.10
4212.00,2.10
4211.00,2.09
4210.00,2.09
4209.00,2.09
4208.00,2.08
4207.00,2.08
4206.00,2.08
4205.00,2.08
4204.00,2.07
4203.00,2.07
4202.00,2.07
4201.00,2.07
4200.00,2.07
4199.00,2.06
4198.00,2.06
4197.00,2.06
4196.00,2.06
4195.00,2.06
4194.00,2.05
4193.00,2.05
4192.00,2.05
4191.00,2.05
4190.00,2.05
4189.00,2.05
4188.00,2.05
4187.00,2.05
4186.00,2.05
4185.00,2.05
4184.00,2.05
4183.00,2.05
4182.00,2.05
4181.00,2.05
4180.00,2.05
4179.00,2.05
4178.00,2.05
4177.00,2.05
4176.00,2.04
4175.00,2.04
4174.00,2.04
4173.00,2.04
4172.00,2.03
4171.00,2.03
4170.00,2.03
4169.00,2.03
4168.00,2.03
4167.00,2.03
4166.00,2.03
4165.00,2.03
4164.00,2.03
4163.00,2.03
4162.00,2.03
4161.00,2.03
4160.00,2.03
4159.00,2.03
4158.00,2.03
4157.00,2.03
4156.00,2.03
4155.00,2.03
4154.00,2.03
4153.00,2.03
4152.00,2.03
4151.00,2.03
4150.00,2.03
4149.00,2.02
4148.00,2.02
4147.00,2.02
4146.00,2.02
4145.00,2.02
4144.00,2.02
4143.00,2.02
4142.00,2.02
4141.00,2.01
4140.00,2.01
4139.00,2.00
4138.00,2.00
4137.00,2.00
4136.00,1.99
4135.00,1.99
4134.00,1.99
4133.00,1.98
4132.00,1.98
4131.00,1.98
4130.00,1.97
4129.00,1.97
4128.00,1.97
4127.00,1.97
4126.00,1.96
4125.00,1.96
4124.00,1.96
4123.00,1.96
4122.00,1.96
4121.00,1.96
4120.00,1.95
4119.00,1.95
4118.00,1.95
4117.00,1.94
4116.00,1.94
4115.00,1.94
4114.00,1.94
4113.00,1.94
4112.00,1.93
4111.00,1.93
4110.00,1.93
4109.00,1.93
4108.00,1.92
4107.00,1.92
4106.00,1.91
4105.00,1.90
4104.00,1.90
4103.00,1.89
4102.00,1.88
4101.00,1.88
4100.00,1.87
4099.00,1.86
4098.00,1.86
4097.00,1.85
4096.00,1.84
4095.00,1.84
4094.00,1.83
4093.00,1.83
4092.00,1.83
4091.00,1.83
4090.00,1.83
4089.00,1.83
4088.00,1.83
4087.00,1.83
4086.00,1.83
4085.00,1.83
4084.00,1.83
4083.00,1.83
4082.00,1.84
4081.00,1.84
4080.00,1.85
4079.00,1.86
4078.00,1.86
4077.00,1.87
4076.00,1.88
4075.00,1.89
4074.00,1.90
4073.00,1.91
4072.00,1.92
4071.00,1.93
4070.00,1.94
4069.00,1.95
4068.00,1.96
4067.00,1.96
4066.00,1.97
4065.00,1.97
4064.00,1.98
4063.00,1.98
4062.00,1.98
4061.00,1.98
4060.00,1.98
4059.00,1.98
4058.00,1.98
4057.00,1.98
4056.00,1.97
4055.00,1.97
4054.00,1.96
4053.00,1.96
4052.00,1.95
4051.00,1.94
4050.00,1.94
4049.00,1.93
4048.00,1.92
4047.00,1.91
4046.00,1.90
4045.00,1.89
4044.00,1.87
4043.00,1.86
4042.00,1.85
4041.00,1.84
4040.00,1.83
4039.00,1.82
4038.00,1.81
4037.00,1.81
4036.00,1.80
4035.00,1.79
4034.00,1.79
4033.00,1.78
4032.00,1.78
4031.00,1.78
4030.00,1.77
4029.00,1.77
4028.00,1.78
4027.00,1.78
4026.00,1.78
4025.00,1.79
4024.00,1.80
4023.00,1.80
4022.00,1.81
4021.00,1.82
4020.00,1.82
4019.00,1.83
4018.00,1.85
4017.00,1.86
4016.00,1.87
4015.00,1.89
4014.00,1.90
4013.00,1.92
4012.00,1.94
4011.00,1.96
4010.00,1.98
4009.00,2.00
4008.00,2.03
4007.00,2.05
4006.00,2.08
4005.00,2.10
4004.00,2.13
4003.00,2.15
4002.00,2.17
4001.00,2.20
4000.00,2.22
