创建为新数据集,样品 1098 用户 Administrator 日期 星期二, 七月 30 2019
cm-1,%T
10000.00,2.16
9999.00,2.16
9998.00,2.15
9997.00,2.15
9996.00,2.15
9995.00,2.14
9994.00,2.13
9993.00,2.13
9992.00,2.12
9991.00,2.12
9990.00,2.11
9989.00,2.11
9988.00,2.11
9987.00,2.11
9986.00,2.11
9985.00,2.11
9984.00,2.11
9983.00,2.12
9982.00,2.12
9981.00,2.13
9980.00,2.14
9979.00,2.14
9978.00,2.15
9977.00,2.15
9976.00,2.16
9975.00,2.16
9974.00,2.16
9973.00,2.16
9972.00,2.16
9971.00,2.16
9970.00,2.16
9969.00,2.16
9968.00,2.16
9967.00,2.16
9966.00,2.16
9965.00,2.16
9964.00,2.16
9963.00,2.16
9962.00,2.15
9961.00,2.15
9960.00,2.14
9959.00,2.14
9958.00,2.13
9957.00,2.12
9956.00,2.11
9955.00,2.11
9954.00,2.10
9953.00,2.10
9952.00,2.09
9951.00,2.09
9950.00,2.09
9949.00,2.09
9948.00,2.09
9947.00,2.09
9946.00,2.09
9945.00,2.09
9944.00,2.09
9943.00,2.09
9942.00,2.09
9941.00,2.10
9940.00,2.10
9939.00,2.10
9938.00,2.10
9937.00,2.10
9936.00,2.11
9935.00,2.11
9934.00,2.12
9933.00,2.13
9932.00,2.14
9931.00,2.15
9930.00,2.17
9929.00,2.18
9928.00,2.19
9927.00,2.19
9926.00,2.20
9925.00,2.20
9924.00,2.20
9923.00,2.20
9922.00,2.19
9921.00,2.19
9920.00,2.18
9919.00,2.17
9918.00,2.17
9917.00,2.16
9916.00,2.15
9915.00,2.13
9914.00,2.12
9913.00,2.10
9912.00,2.09
9911.00,2.07
9910.00,2.05
9909.00,2.03
9908.00,2.00
9907.00,1.98
9906.00,1.95
9905.00,1.93
9904.00,1.90
9903.00,1.87
9902.00,1.84
9901.00,1.82
9900.00,1.79
9899.00,1.76
9898.00,1.74
9897.00,1.72
9896.00,1.70
9895.00,1.69
9894.00,1.68
9893.00,1.67
9892.00,1.66
9891.00,1.65
9890.00,1.65
9889.00,1.65
9888.00,1.65
9887.00,1.66
9886.00,1.66
9885.00,1.67
9884.00,1.68
9883.00,1.69
9882.00,1.70
9881.00,1.71
9880.00,1.73
9879.00,1.74
9878.00,1.76
9877.00,1.77
9876.00,1.78
9875.00,1.80
9874.00,1.81
9873.00,1.82
9872.00,1.83
9871.00,1.84
9870.00,1.85
9869.00,1.86
9868.00,1.86
9867.00,1.86
9866.00,1.86
9865.00,1.86
9864.00,1.86
9863.00,1.85
9862.00,1.85
9861.00,1.84
9860.00,1.84
9859.00,1.83
9858.00,1.82
9857.00,1.80
9856.00,1.79
9855.00,1.77
9854.00,1.75
9853.00,1.73
9852.00,1.71
9851.00,1.69
9850.00,1.67
9849.00,1.65
9848.00,1.63
9847.00,1.61
9846.00,1.60
9845.00,1.58
9844.00,1.57
9843.00,1.57
9842.00,1.56
9841.00,1.56
9840.00,1.55
9839.00,1.55
9838.00,1.55
9837.00,1.55
9836.00,1.55
9835.00,1.55
9834.00,1.55
9833.00,1.55
9832.00,1.55
9831.00,1.56
9830.00,1.56
9829.00,1.57
9828.00,1.58
9827.00,1.59
9826.00,1.61
9825.00,1.62
9824.00,1.64
9823.00,1.65
9822.00,1.67
9821.00,1.68
9820.00,1.70
9819.00,1.71
9818.00,1.72
9817.00,1.73
9816.00,1.74
9815.00,1.74
9814.00,1.74
9813.00,1.74
9812.00,1.74
9811.00,1.73
9810.00,1.73
9809.00,1.72
9808.00,1.71
9807.00,1.70
9806.00,1.69
9805.00,1.68
9804.00,1.66
9803.00,1.65
9802.00,1.63
9801.00,1.62
9800.00,1.60
9799.00,1.58
9798.00,1.56
9797.00,1.54
9796.00,1.52
9795.00,1.50
9794.00,1.48
9793.00,1.46
9792.00,1.44
9791.00,1.43
9790.00,1.41
9789.00,1.40
9788.00,1.39
9787.00,1.39
9786.00,1.39
9785.00,1.39
9784.00,1.39
9783.00,1.40
9782.00,1.41
9781.00,1.42
9780.00,1.44
9779.00,1.45
9778.00,1.47
9777.00,1.49
9776.00,1.52
9775.00,1.54
9774.00,1.57
9773.00,1.59
9772.00,1.62
9771.00,1.65
9770.00,1.67
9769.00,1.70
9768.00,1.72
9767.00,1.75
9766.00,1.77
9765.00,1.78
9764.00,1.80
9763.00,1.81
9762.00,1.82
9761.00,1.83
9760.00,1.83
9759.00,1.84
9758.00,1.84
9757.00,1.84
9756.00,1.83
9755.00,1.83
9754.00,1.82
9753.00,1.82
9752.00,1.81
9751.00,1.80
9750.00,1.79
9749.00,1.78
9748.00,1.77
9747.00,1.76
9746.00,1.75
9745.00,1.74
9744.00,1.73
9743.00,1.73
9742.00,1.72
9741.00,1.72
9740.00,1.72
9739.00,1.72
9738.00,1.72
9737.00,1.72
9736.00,1.72
9735.00,1.72
9734.00,1.72
9733.00,1.72
9732.00,1.72
9731.00,1.72
9730.00,1.72
9729.00,1.72
9728.00,1.72
9727.00,1.72
9726.00,1.72
9725.00,1.71
9724.00,1.71
9723.00,1.70
9722.00,1.70
9721.00,1.68
9720.00,1.67
9719.00,1.65
9718.00,1.62
9717.00,1.60
9716.00,1.57
9715.00,1.55
9714.00,1.52
9713.00,1.50
9712.00,1.47
9711.00,1.45
9710.00,1.43
9709.00,1.41
9708.00,1.39
9707.00,1.38
9706.00,1.36
9705.00,1.34
9704.00,1.33
9703.00,1.31
9702.00,1.30
9701.00,1.28
9700.00,1.26
9699.00,1.25
9698.00,1.24
9697.00,1.22
9696.00,1.22
9695.00,1.21
9694.00,1.21
9693.00,1.21
9692.00,1.22
9691.00,1.23
9690.00,1.24
9689.00,1.25
9688.00,1.26
9687.00,1.27
9686.00,1.29
9685.00,1.31
9684.00,1.32
9683.00,1.34
9682.00,1.36
9681.00,1.39
9680.00,1.41
9679.00,1.44
9678.00,1.47
9677.00,1.51
9676.00,1.54
9675.00,1.58
9674.00,1.62
9673.00,1.66
9672.00,1.70
9671.00,1.74
9670.00,1.78
9669.00,1.82
9668.00,1.85
9667.00,1.89
9666.00,1.92
9665.00,1.95
9664.00,1.98
9663.00,2.01
9662.00,2.04
9661.00,2.07
9660.00,2.10
9659.00,2.12
9658.00,2.14
9657.00,2.16
9656.00,2.18
9655.00,2.19
9654.00,2.19
9653.00,2.19
9652.00,2.19
9651.00,2.18
9650.00,2.16
9649.00,2.14
9648.00,2.12
9647.00,2.10
9646.00,2.08
9645.00,2.05
9644.00,2.03
9643.00,2.00
9642.00,1.97
9641.00,1.95
9640.00,1.92
9639.00,1.89
9638.00,1.86
9637.00,1.83
9636.00,1.79
9635.00,1.76
9634.00,1.72
9633.00,1.68
9632.00,1.65
9631.00,1.61
9630.00,1.58
9629.00,1.54
9628.00,1.51
9627.00,1.48
9626.00,1.46
9625.00,1.43
9624.00,1.41
9623.00,1.39
9622.00,1.37
9621.00,1.35
9620.00,1.33
9619.00,1.32
9618.00,1.30
9617.00,1.28
9616.00,1.27
9615.00,1.25
9614.00,1.24
9613.00,1.22
9612.00,1.21
9611.00,1.20
9610.00,1.18
9609.00,1.17
9608.00,1.16
9607.00,1.15
9606.00,1.13
9605.00,1.12
9604.00,1.11
9603.00,1.09
9602.00,1.08
9601.00,1.07
9600.00,1.05
9599.00,1.04
9598.00,1.03
9597.00,1.02
9596.00,1.02
9595.00,1.02
9594.00,1.03
9593.00,1.04
9592.00,1.05
9591.00,1.07
9590.00,1.09
9589.00,1.12
9588.00,1.15
9587.00,1.18
9586.00,1.22
9585.00,1.26
9584.00,1.30
9583.00,1.35
9582.00,1.40
9581.00,1.45
9580.00,1.51
9579.00,1.57
9578.00,1.63
9577.00,1.69
9576.00,1.75
9575.00,1.82
9574.00,1.88
9573.00,1.94
9572.00,1.99
9571.00,2.04
9570.00,2.09
9569.00,2.13
9568.00,2.17
9567.00,2.20
9566.00,2.22
9565.00,2.24
9564.00,2.25
9563.00,2.25
9562.00,2.24
9561.00,2.23
9560.00,2.21
9559.00,2.19
9558.00,2.16
9557.00,2.13
9556.00,2.09
9555.00,2.05
9554.00,2.01
9553.00,1.96
9552.00,1.92
9551.00,1.87
9550.00,1.82
9549.00,1.77
9548.00,1.72
9547.00,1.67
9546.00,1.62
9545.00,1.57
9544.00,1.52
9543.00,1.47
9542.00,1.43
9541.00,1.38
9540.00,1.35
9539.00,1.31
9538.00,1.28
9537.00,1.25
9536.00,1.22
9535.00,1.20
9534.00,1.18
9533.00,1.16
9532.00,1.15
9531.00,1.13
9530.00,1.12
9529.00,1.10
9528.00,1.09
9527.00,1.08
9526.00,1.06
9525.00,1.05
9524.00,1.03
9523.00,1.02
9522.00,1.01
9521.00,1.00
9520.00,0.98
9519.00,0.97
9518.00,0.96
9517.00,0.95
9516.00,0.94
9515.00,0.93
9514.00,0.92
9513.00,0.91
9512.00,0.91
9511.00,0.90
9510.00,0.89
9509.00,0.89
9508.00,0.89
9507.00,0.88
9506.00,0.88
9505.00,0.88
9504.00,0.88
9503.00,0.89
9502.00,0.89
9501.00,0.90
9500.00,0.91
9499.00,0.92
9498.00,0.93
9497.00,0.95
9496.00,0.96
9495.00,0.98
9494.00,1.00
9493.00,1.02
9492.00,1.05
9491.00,1.07
9490.00,1.10
9489.00,1.13
9488.00,1.17
9487.00,1.20
9486.00,1.24
9485.00,1.27
9484.00,1.30
9483.00,1.33
9482.00,1.35
9481.00,1.38
9480.00,1.40
9479.00,1.42
9478.00,1.43
9477.00,1.45
9476.00,1.47
9475.00,1.48
9474.00,1.50
9473.00,1.52
9472.00,1.53
9471.00,1.55
9470.00,1.57
9469.00,1.58
9468.00,1.59
9467.00,1.60
9466.00,1.60
9465.00,1.60
9464.00,1.60
9463.00,1.59
9462.00,1.58
9461.00,1.57
9460.00,1.55
9459.00,1.53
9458.00,1.52
9457.00,1.50
9456.00,1.49
9455.00,1.48
9454.00,1.47
9453.00,1.46
9452.00,1.45
9451.00,1.44
9450.00,1.43
9449.00,1.42
9448.00,1.41
9447.00,1.40
9446.00,1.39
9445.00,1.38
9444.00,1.36
9443.00,1.35
9442.00,1.34
9441.00,1.33
9440.00,1.32
9439.00,1.31
9438.00,1.31
9437.00,1.31
9436.00,1.31
9435.00,1.32
9434.00,1.32
9433.00,1.33
9432.00,1.35
9431.00,1.36
9430.00,1.37
9429.00,1.38
9428.00,1.39
9427.00,1.41
9426.00,1.42
9425.00,1.43
9424.00,1.45
9423.00,1.46
9422.00,1.48
9421.00,1.50
9420.00,1.51
9419.00,1.53
9418.00,1.54
9417.00,1.56
9416.00,1.57
9415.00,1.58
9414.00,1.59
9413.00,1.60
9412.00,1.61
9411.00,1.62
9410.00,1.62
9409.00,1.63
9408.00,1.63
9407.00,1.63
9406.00,1.62
9405.00,1.62
9404.00,1.61
9403.00,1.61
9402.00,1.60
9401.00,1.59
9400.00,1.58
9399.00,1.57
9398.00,1.55
9397.00,1.54
9396.00,1.53
9395.00,1.52
9394.00,1.50
9393.00,1.49
9392.00,1.48
9391.00,1.46
9390.00,1.45
9389.00,1.44
9388.00,1.42
9387.00,1.41
9386.00,1.40
9385.00,1.39
9384.00,1.38
9383.00,1.36
9382.00,1.35
9381.00,1.34
9380.00,1.33
9379.00,1.32
9378.00,1.31
9377.00,1.30
9376.00,1.29
9375.00,1.28
9374.00,1.27
9373.00,1.27
9372.00,1.26
9371.00,1.26
9370.00,1.25
9369.00,1.25
9368.00,1.25
9367.00,1.25
9366.00,1.26
9365.00,1.26
9364.00,1.26
9363.00,1.27
9362.00,1.27
9361.00,1.28
9360.00,1.28
9359.00,1.29
9358.00,1.30
9357.00,1.30
9356.00,1.31
9355.00,1.32
9354.00,1.33
9353.00,1.33
9352.00,1.34
9351.00,1.35
9350.00,1.35
9349.00,1.36
9348.00,1.36
9347.00,1.36
9346.00,1.36
9345.00,1.37
9344.00,1.37
9343.00,1.37
9342.00,1.37
9341.00,1.36
9340.00,1.36
9339.00,1.36
9338.00,1.35
9337.00,1.35
9336.00,1.34
9335.00,1.34
9334.00,1.34
9333.00,1.34
9332.00,1.33
9331.00,1.33
9330.00,1.33
9329.00,1.33
9328.00,1.34
9327.00,1.34
9326.00,1.35
9325.00,1.35
9324.00,1.36
9323.00,1.37
9322.00,1.39
9321.00,1.40
9320.00,1.41
9319.00,1.43
9318.00,1.44
9317.00,1.45
9316.00,1.47
9315.00,1.48
9314.00,1.49
9313.00,1.50
9312.00,1.51
9311.00,1.52
9310.00,1.52
9309.00,1.53
9308.00,1.54
9307.00,1.54
9306.00,1.54
9305.00,1.55
9304.00,1.55
9303.00,1.55
9302.00,1.54
9301.00,1.54
9300.00,1.53
9299.00,1.53
9298.00,1.52
9297.00,1.51
9296.00,1.50
9295.00,1.48
9294.00,1.47
9293.00,1.46
9292.00,1.44
9291.00,1.43
9290.00,1.41
9289.00,1.40
9288.00,1.39
9287.00,1.37
9286.00,1.36
9285.00,1.35
9284.00,1.33
9283.00,1.32
9282.00,1.30
9281.00,1.29
9280.00,1.28
9279.00,1.26
9278.00,1.25
9277.00,1.24
9276.00,1.23
9275.00,1.22
9274.00,1.22
9273.00,1.21
9272.00,1.21
9271.00,1.21
9270.00,1.21
9269.00,1.21
9268.00,1.21
9267.00,1.21
9266.00,1.22
9265.00,1.22
9264.00,1.23
9263.00,1.23
9262.00,1.24
9261.00,1.24
9260.00,1.25
9259.00,1.26
9258.00,1.26
9257.00,1.27
9256.00,1.28
9255.00,1.29
9254.00,1.30
9253.00,1.31
9252.00,1.32
9251.00,1.33
9250.00,1.34
9249.00,1.35
9248.00,1.36
9247.00,1.36
9246.00,1.37
9245.00,1.37
9244.00,1.37
9243.00,1.37
9242.00,1.37
9241.00,1.36
9240.00,1.36
9239.00,1.35
9238.00,1.34
9237.00,1.34
9236.00,1.33
9235.00,1.32
9234.00,1.31
9233.00,1.30
9232.00,1.29
9231.00,1.28
9230.00,1.27
9229.00,1.26
9228.00,1.24
9227.00,1.23
9226.00,1.21
9225.00,1.20
9224.00,1.18
9223.00,1.16
9222.00,1.13
9221.00,1.11
9220.00,1.09
9219.00,1.06
9218.00,1.04
9217.00,1.03
9216.00,1.01
9215.00,1.00
9214.00,0.99
9213.00,0.98
9212.00,0.97
9211.00,0.96
9210.00,0.96
9209.00,0.95
9208.00,0.95
9207.00,0.95
9206.00,0.95
9205.00,0.95
9204.00,0.95
9203.00,0.95
9202.00,0.96
9201.00,0.97
9200.00,0.98
9199.00,0.99
9198.00,1.01
9197.00,1.03
9196.00,1.06
9195.00,1.08
9194.00,1.11
9193.00,1.14
9192.00,1.17
9191.00,1.19
9190.00,1.22
9189.00,1.24
9188.00,1.27
9187.00,1.29
9186.00,1.31
9185.00,1.32
9184.00,1.34
9183.00,1.36
9182.00,1.38
9181.00,1.39
9180.00,1.41
9179.00,1.43
9178.00,1.44
9177.00,1.45
9176.00,1.47
9175.00,1.48
9174.00,1.48
9173.00,1.49
9172.00,1.50
9171.00,1.50
9170.00,1.50
9169.00,1.50
9168.00,1.50
9167.00,1.50
9166.00,1.50
9165.00,1.50
9164.00,1.50
9163.00,1.50
9162.00,1.50
9161.00,1.50
9160.00,1.51
9159.00,1.51
9158.00,1.52
9157.00,1.52
9156.00,1.52
9155.00,1.53
9154.00,1.53
9153.00,1.54
9152.00,1.54
9151.00,1.54
9150.00,1.54
9149.00,1.54
9148.00,1.54
9147.00,1.54
9146.00,1.54
9145.00,1.53
9144.00,1.53
9143.00,1.52
9142.00,1.52
9141.00,1.52
9140.00,1.51
9139.00,1.51
9138.00,1.51
9137.00,1.51
9136.00,1.51
9135.00,1.51
9134.00,1.51
9133.00,1.51
9132.00,1.51
9131.00,1.52
9130.00,1.52
9129.00,1.52
9128.00,1.53
9127.00,1.53
9126.00,1.54
9125.00,1.54
9124.00,1.54
9123.00,1.55
9122.00,1.55
9121.00,1.56
9120.00,1.56
9119.00,1.56
9118.00,1.57
9117.00,1.57
9116.00,1.58
9115.00,1.58
9114.00,1.58
9113.00,1.58
9112.00,1.58
9111.00,1.58
9110.00,1.57
9109.00,1.57
9108.00,1.56
9107.00,1.56
9106.00,1.55
9105.00,1.55
9104.00,1.54
9103.00,1.53
9102.00,1.53
9101.00,1.52
9100.00,1.52
9099.00,1.52
9098.00,1.52
9097.00,1.52
9096.00,1.53
9095.00,1.53
9094.00,1.54
9093.00,1.55
9092.00,1.56
9091.00,1.57
9090.00,1.59
9089.00,1.60
9088.00,1.62
9087.00,1.63
9086.00,1.65
9085.00,1.66
9084.00,1.67
9083.00,1.68
9082.00,1.69
9081.00,1.70
9080.00,1.71
9079.00,1.71
9078.00,1.71
9077.00,1.70
9076.00,1.70
9075.00,1.69
9074.00,1.68
9073.00,1.67
9072.00,1.66
9071.00,1.64
9070.00,1.62
9069.00,1.60
9068.00,1.57
9067.00,1.55
9066.00,1.52
9065.00,1.49
9064.00,1.46
9063.00,1.44
9062.00,1.41
9061.00,1.39
9060.00,1.36
9059.00,1.34
9058.00,1.33
9057.00,1.31
9056.00,1.30
9055.00,1.30
9054.00,1.29
9053.00,1.29
9052.00,1.29
9051.00,1.30
9050.00,1.31
9049.00,1.31
9048.00,1.32
9047.00,1.33
9046.00,1.35
9045.00,1.36
9044.00,1.37
9043.00,1.39
9042.00,1.40
9041.00,1.42
9040.00,1.44
9039.00,1.46
9038.00,1.48
9037.00,1.50
9036.00,1.52
9035.00,1.54
9034.00,1.55
9033.00,1.57
9032.00,1.58
9031.00,1.58
9030.00,1.59
9029.00,1.59
9028.00,1.59
9027.00,1.58
9026.00,1.58
9025.00,1.57
9024.00,1.56
9023.00,1.56
9022.00,1.55
9021.00,1.54
9020.00,1.53
9019.00,1.52
9018.00,1.52
9017.00,1.51
9016.00,1.50
9015.00,1.50
9014.00,1.49
9013.00,1.48
9012.00,1.48
9011.00,1.47
9010.00,1.46
9009.00,1.45
9008.00,1.45
9007.00,1.44
9006.00,1.44
9005.00,1.44
9004.00,1.44
9003.00,1.44
9002.00,1.44
9001.00,1.44
9000.00,1.44
8999.00,1.44
8998.00,1.44
8997.00,1.45
8996.00,1.45
8995.00,1.45
8994.00,1.45
8993.00,1.44
8992.00,1.44
8991.00,1.44
8990.00,1.43
8989.00,1.43
8988.00,1.42
8987.00,1.41
8986.00,1.41
8985.00,1.40
8984.00,1.39
8983.00,1.38
8982.00,1.37
8981.00,1.36
8980.00,1.35
8979.00,1.34
8978.00,1.33
8977.00,1.32
8976.00,1.31
8975.00,1.30
8974.00,1.30
8973.00,1.29
8972.00,1.29
8971.00,1.28
8970.00,1.28
8969.00,1.28
8968.00,1.27
8967.00,1.27
8966.00,1.27
8965.00,1.27
8964.00,1.27
8963.00,1.27
8962.00,1.27
8961.00,1.27
8960.00,1.27
8959.00,1.27
8958.00,1.27
8957.00,1.27
8956.00,1.27
8955.00,1.26
8954.00,1.26
8953.00,1.26
8952.00,1.25
8951.00,1.25
8950.00,1.24
8949.00,1.24
8948.00,1.23
8947.00,1.23
8946.00,1.22
8945.00,1.22
8944.00,1.21
8943.00,1.21
8942.00,1.21
8941.00,1.20
8940.00,1.20
8939.00,1.21
8938.00,1.21
8937.00,1.21
8936.00,1.22
8935.00,1.23
8934.00,1.23
8933.00,1.24
8932.00,1.25
8931.00,1.26
8930.00,1.28
8929.00,1.29
8928.00,1.30
8927.00,1.32
8926.00,1.33
8925.00,1.35
8924.00,1.37
8923.00,1.39
8922.00,1.41
8921.00,1.43
8920.00,1.46
8919.00,1.48
8918.00,1.50
8917.00,1.52
8916.00,1.54
8915.00,1.55
8914.00,1.57
8913.00,1.58
8912.00,1.60
8911.00,1.61
8910.00,1.62
8909.00,1.63
8908.00,1.64
8907.00,1.65
8906.00,1.66
8905.00,1.66
8904.00,1.66
8903.00,1.67
8902.00,1.67
8901.00,1.67
8900.00,1.67
8899.00,1.66
8898.00,1.66
8897.00,1.65
8896.00,1.64
8895.00,1.63
8894.00,1.62
8893.00,1.61
8892.00,1.60
8891.00,1.59
8890.00,1.58
8889.00,1.57
8888.00,1.55
8887.00,1.54
8886.00,1.52
8885.00,1.50
8884.00,1.49
8883.00,1.47
8882.00,1.45
8881.00,1.43
8880.00,1.41
8879.00,1.39
8878.00,1.37
8877.00,1.35
8876.00,1.33
8875.00,1.32
8874.00,1.30
8873.00,1.29
8872.00,1.27
8871.00,1.26
8870.00,1.25
8869.00,1.23
8868.00,1.21
8867.00,1.20
8866.00,1.18
8865.00,1.16
8864.00,1.14
8863.00,1.13
8862.00,1.11
8861.00,1.10
8860.00,1.09
8859.00,1.08
8858.00,1.08
8857.00,1.07
8856.00,1.07
8855.00,1.07
8854.00,1.07
8853.00,1.07
8852.00,1.07
8851.00,1.08
8850.00,1.08
8849.00,1.09
8848.00,1.09
8847.00,1.10
8846.00,1.11
8845.00,1.12
8844.00,1.13
8843.00,1.15
8842.00,1.17
8841.00,1.19
8840.00,1.21
8839.00,1.23
8838.00,1.26
8837.00,1.28
8836.00,1.30
8835.00,1.32
8834.00,1.34
8833.00,1.36
8832.00,1.38
8831.00,1.39
8830.00,1.40
8829.00,1.42
8828.00,1.43
8827.00,1.45
8826.00,1.46
8825.00,1.47
8824.00,1.49
8823.00,1.50
8822.00,1.51
8821.00,1.52
8820.00,1.53
8819.00,1.53
8818.00,1.54
8817.00,1.54
8816.00,1.54
8815.00,1.53
8814.00,1.53
8813.00,1.52
8812.00,1.51
8811.00,1.50
8810.00,1.49
8809.00,1.49
8808.00,1.48
8807.00,1.47
8806.00,1.47
8805.00,1.46
8804.00,1.46
8803.00,1.45
8802.00,1.44
8801.00,1.44
8800.00,1.43
8799.00,1.41
8798.00,1.40
8797.00,1.39
8796.00,1.38
8795.00,1.36
8794.00,1.35
8793.00,1.34
8792.00,1.34
8791.00,1.33
8790.00,1.33
8789.00,1.34
8788.00,1.34
8787.00,1.35
8786.00,1.37
8785.00,1.38
8784.00,1.39
8783.00,1.41
8782.00,1.43
8781.00,1.44
8780.00,1.46
8779.00,1.47
8778.00,1.49
8777.00,1.51
8776.00,1.53
8775.00,1.55
8774.00,1.57
8773.00,1.60
8772.00,1.62
8771.00,1.65
8770.00,1.67
8769.00,1.70
8768.00,1.72
8767.00,1.74
8766.00,1.76
8765.00,1.77
8764.00,1.78
8763.00,1.79
8762.00,1.79
8761.00,1.79
8760.00,1.78
8759.00,1.77
8758.00,1.77
8757.00,1.75
8756.00,1.74
8755.00,1.73
8754.00,1.72
8753.00,1.71
8752.00,1.69
8751.00,1.68
8750.00,1.66
8749.00,1.64
8748.00,1.62
8747.00,1.60
8746.00,1.58
8745.00,1.55
8744.00,1.53
8743.00,1.50
8742.00,1.47
8741.00,1.45
8740.00,1.42
8739.00,1.40
8738.00,1.38
8737.00,1.35
8736.00,1.33
8735.00,1.31
8734.00,1.29
8733.00,1.28
8732.00,1.26
8731.00,1.24
8730.00,1.22
8729.00,1.20
8728.00,1.18
8727.00,1.17
8726.00,1.15
8725.00,1.13
8724.00,1.11
8723.00,1.10
8722.00,1.09
8721.00,1.08
8720.00,1.07
8719.00,1.07
8718.00,1.07
8717.00,1.07
8716.00,1.08
8715.00,1.09
8714.00,1.10
8713.00,1.11
8712.00,1.12
8711.00,1.14
8710.00,1.15
8709.00,1.17
8708.00,1.18
8707.00,1.20
8706.00,1.22
8705.00,1.24
8704.00,1.26
8703.00,1.28
8702.00,1.30
8701.00,1.32
8700.00,1.34
8699.00,1.36
8698.00,1.38
8697.00,1.40
8696.00,1.42
8695.00,1.43
8694.00,1.45
8693.00,1.45
8692.00,1.46
8691.00,1.46
8690.00,1.46
8689.00,1.46
8688.00,1.45
8687.00,1.44
8686.00,1.43
8685.00,1.42
8684.00,1.40
8683.00,1.39
8682.00,1.38
8681.00,1.36
8680.00,1.35
8679.00,1.34
8678.00,1.32
8677.00,1.31
8676.00,1.30
8675.00,1.29
8674.00,1.28
8673.00,1.27
8672.00,1.26
8671.00,1.25
8670.00,1.24
8669.00,1.23
8668.00,1.21
8667.00,1.20
8666.00,1.19
8665.00,1.18
8664.00,1.18
8663.00,1.17
8662.00,1.17
8661.00,1.17
8660.00,1.17
8659.00,1.18
8658.00,1.18
8657.00,1.19
8656.00,1.19
8655.00,1.20
8654.00,1.20
8653.00,1.20
8652.00,1.21
8651.00,1.21
8650.00,1.21
8649.00,1.22
8648.00,1.22
8647.00,1.23
8646.00,1.24
8645.00,1.25
8644.00,1.26
8643.00,1.27
8642.00,1.29
8641.00,1.30
8640.00,1.32
8639.00,1.34
8638.00,1.36
8637.00,1.37
8636.00,1.39
8635.00,1.41
8634.00,1.42
8633.00,1.44
8632.00,1.45
8631.00,1.47
8630.00,1.48
8629.00,1.49
8628.00,1.50
8627.00,1.51
8626.00,1.52
8625.00,1.53
8624.00,1.53
8623.00,1.53
8622.00,1.53
8621.00,1.53
8620.00,1.52
8619.00,1.51
8618.00,1.50
8617.00,1.48
8616.00,1.46
8615.00,1.44
8614.00,1.41
8613.00,1.38
8612.00,1.36
8611.00,1.33
8610.00,1.30
8609.00,1.27
8608.00,1.24
8607.00,1.21
8606.00,1.18
8605.00,1.15
8604.00,1.13
8603.00,1.10
8602.00,1.07
8601.00,1.05
8600.00,1.02
8599.00,1.00
8598.00,0.98
8597.00,0.96
8596.00,0.94
8595.00,0.93
8594.00,0.92
8593.00,0.91
8592.00,0.90
8591.00,0.90
8590.00,0.90
8589.00,0.90
8588.00,0.91
8587.00,0.91
8586.00,0.93
8585.00,0.94
8584.00,0.95
8583.00,0.97
8582.00,0.98
8581.00,1.00
8580.00,1.01
8579.00,1.03
8578.00,1.05
8577.00,1.07
8576.00,1.08
8575.00,1.10
8574.00,1.12
8573.00,1.14
8572.00,1.15
8571.00,1.17
8570.00,1.19
8569.00,1.21
8568.00,1.22
8567.00,1.24
8566.00,1.25
8565.00,1.26
8564.00,1.27
8563.00,1.28
8562.00,1.29
8561.00,1.30
8560.00,1.30
8559.00,1.30
8558.00,1.31
8557.00,1.31
8556.00,1.31
8555.00,1.30
8554.00,1.30
8553.00,1.30
8552.00,1.29
8551.00,1.29
8550.00,1.28
8549.00,1.27
8548.00,1.27
8547.00,1.26
8546.00,1.25
8545.00,1.24
8544.00,1.24
8543.00,1.23
8542.00,1.22
8541.00,1.22
8540.00,1.21
8539.00,1.21
8538.00,1.20
8537.00,1.20
8536.00,1.20
8535.00,1.20
8534.00,1.20
8533.00,1.20
8532.00,1.20
8531.00,1.20
8530.00,1.21
8529.00,1.21
8528.00,1.21
8527.00,1.22
8526.00,1.22
8525.00,1.23
8524.00,1.24
8523.00,1.25
8522.00,1.26
8521.00,1.27
8520.00,1.28
8519.00,1.29
8518.00,1.30
8517.00,1.31
8516.00,1.32
8515.00,1.33
8514.00,1.35
8513.00,1.36
8512.00,1.37
8511.00,1.39
8510.00,1.40
8509.00,1.42
8508.00,1.43
8507.00,1.45
8506.00,1.46
8505.00,1.48
8504.00,1.49
8503.00,1.51
8502.00,1.53
8501.00,1.55
8500.00,1.57
8499.00,1.60
8498.00,1.62
8497.00,1.64
8496.00,1.67
8495.00,1.69
8494.00,1.71
8493.00,1.74
8492.00,1.76
8491.00,1.78
8490.00,1.80
8489.00,1.82
8488.00,1.84
8487.00,1.86
8486.00,1.87
8485.00,1.88
8484.00,1.89
8483.00,1.90
8482.00,1.91
8481.00,1.92
8480.00,1.92
8479.00,1.93
8478.00,1.93
8477.00,1.93
8476.00,1.93
8475.00,1.92
8474.00,1.92
8473.00,1.91
8472.00,1.90
8471.00,1.89
8470.00,1.88
8469.00,1.86
8468.00,1.84
8467.00,1.83
8466.00,1.81
8465.00,1.79
8464.00,1.78
8463.00,1.76
8462.00,1.75
8461.00,1.73
8460.00,1.72
8459.00,1.70
8458.00,1.69
8457.00,1.68
8456.00,1.67
8455.00,1.65
8454.00,1.64
8453.00,1.63
8452.00,1.61
8451.00,1.60
8450.00,1.59
8449.00,1.58
8448.00,1.57
8447.00,1.56
8446.00,1.55
8445.00,1.54
8444.00,1.53
8443.00,1.53
8442.00,1.52
8441.00,1.52
8440.00,1.52
8439.00,1.52
8438.00,1.51
8437.00,1.51
8436.00,1.51
8435.00,1.50
8434.00,1.50
8433.00,1.50
8432.00,1.50
8431.00,1.50
8430.00,1.50
8429.00,1.51
8428.00,1.51
8427.00,1.51
8426.00,1.52
8425.00,1.52
8424.00,1.53
8423.00,1.54
8422.00,1.54
8421.00,1.54
8420.00,1.55
8419.00,1.55
8418.00,1.55
8417.00,1.55
8416.00,1.55
8415.00,1.54
8414.00,1.54
8413.00,1.53
8412.00,1.53
8411.00,1.52
8410.00,1.51
8409.00,1.51
8408.00,1.50
8407.00,1.49
8406.00,1.49
8405.00,1.48
8404.00,1.48
8403.00,1.47
8402.00,1.47
8401.00,1.46
8400.00,1.46
8399.00,1.45
8398.00,1.45
8397.00,1.45
8396.00,1.44
8395.00,1.44
8394.00,1.44
8393.00,1.43
8392.00,1.43
8391.00,1.43
8390.00,1.43
8389.00,1.44
8388.00,1.44
8387.00,1.44
8386.00,1.45
8385.00,1.46
8384.00,1.46
8383.00,1.47
8382.00,1.48
8381.00,1.48
8380.00,1.49
8379.00,1.49
8378.00,1.49
8377.00,1.49
8376.00,1.49
8375.00,1.48
8374.00,1.47
8373.00,1.47
8372.00,1.46
8371.00,1.46
8370.00,1.45
8369.00,1.45
8368.00,1.44
8367.00,1.44
8366.00,1.44
8365.00,1.44
8364.00,1.44
8363.00,1.44
8362.00,1.44
8361.00,1.44
8360.00,1.44
8359.00,1.43
8358.00,1.43
8357.00,1.43
8356.00,1.42
8355.00,1.42
8354.00,1.41
8353.00,1.41
8352.00,1.41
8351.00,1.41
8350.00,1.42
8349.00,1.42
8348.00,1.43
8347.00,1.44
8346.00,1.44
8345.00,1.45
8344.00,1.46
8343.00,1.46
8342.00,1.47
8341.00,1.47
8340.00,1.48
8339.00,1.48
8338.00,1.49
8337.00,1.49
8336.00,1.50
8335.00,1.50
8334.00,1.51
8333.00,1.52
8332.00,1.53
8331.00,1.53
8330.00,1.54
8329.00,1.55
8328.00,1.56
8327.00,1.57
8326.00,1.57
8325.00,1.58
8324.00,1.58
8323.00,1.59
8322.00,1.59
8321.00,1.59
8320.00,1.59
8319.00,1.59
8318.00,1.59
8317.00,1.59
8316.00,1.59
8315.00,1.59
8314.00,1.59
8313.00,1.59
8312.00,1.59
8311.00,1.59
8310.00,1.59
8309.00,1.59
8308.00,1.59
8307.00,1.58
8306.00,1.58
8305.00,1.58
8304.00,1.59
8303.00,1.59
8302.00,1.59
8301.00,1.60
8300.00,1.60
8299.00,1.61
8298.00,1.62
8297.00,1.62
8296.00,1.63
8295.00,1.64
8294.00,1.65
8293.00,1.65
8292.00,1.66
8291.00,1.67
8290.00,1.68
8289.00,1.69
8288.00,1.70
8287.00,1.70
8286.00,1.71
8285.00,1.72
8284.00,1.73
8283.00,1.74
8282.00,1.74
8281.00,1.75
8280.00,1.75
8279.00,1.75
8278.00,1.75
8277.00,1.74
8276.00,1.74
8275.00,1.73
8274.00,1.72
8273.00,1.72
8272.00,1.71
8271.00,1.70
8270.00,1.69
8269.00,1.69
8268.00,1.68
8267.00,1.67
8266.00,1.66
8265.00,1.65
8264.00,1.64
8263.00,1.63
8262.00,1.61
8261.00,1.60
8260.00,1.58
8259.00,1.57
8258.00,1.55
8257.00,1.53
8256.00,1.52
8255.00,1.50
8254.00,1.49
8253.00,1.48
8252.00,1.47
8251.00,1.46
8250.00,1.46
8249.00,1.46
8248.00,1.46
8247.00,1.46
8246.00,1.46
8245.00,1.46
8244.00,1.46
8243.00,1.46
8242.00,1.46
8241.00,1.46
8240.00,1.47
8239.00,1.47
8238.00,1.47
8237.00,1.48
8236.00,1.48
8235.00,1.49
8234.00,1.49
8233.00,1.50
8232.00,1.51
8231.00,1.53
8230.00,1.54
8229.00,1.55
8228.00,1.56
8227.00,1.58
8226.00,1.59
8225.00,1.59
8224.00,1.60
8223.00,1.61
8222.00,1.61
8221.00,1.62
8220.00,1.62
8219.00,1.63
8218.00,1.63
8217.00,1.63
8216.00,1.64
8215.00,1.64
8214.00,1.65
8213.00,1.65
8212.00,1.65
8211.00,1.66
8210.00,1.66
8209.00,1.66
8208.00,1.67
8207.00,1.67
8206.00,1.67
8205.00,1.67
8204.00,1.66
8203.00,1.66
8202.00,1.65
8201.00,1.64
8200.00,1.63
8199.00,1.62
8198.00,1.61
8197.00,1.60
8196.00,1.59
8195.00,1.58
8194.00,1.56
8193.00,1.55
8192.00,1.54
8191.00,1.52
8190.00,1.51
8189.00,1.49
8188.00,1.48
8187.00,1.46
8186.00,1.45
8185.00,1.43
8184.00,1.42
8183.00,1.40
8182.00,1.39
8181.00,1.37
8180.00,1.36
8179.00,1.35
8178.00,1.34
8177.00,1.34
8176.00,1.33
8175.00,1.33
8174.00,1.33
8173.00,1.33
8172.00,1.33
8171.00,1.33
8170.00,1.33
8169.00,1.33
8168.00,1.34
8167.00,1.34
8166.00,1.34
8165.00,1.35
8164.00,1.35
8163.00,1.36
8162.00,1.37
8161.00,1.37
8160.00,1.38
8159.00,1.39
8158.00,1.40
8157.00,1.42
8156.00,1.43
8155.00,1.44
8154.00,1.46
8153.00,1.47
8152.00,1.48
8151.00,1.49
8150.00,1.51
8149.00,1.52
8148.00,1.53
8147.00,1.54
8146.00,1.55
8145.00,1.56
8144.00,1.57
8143.00,1.59
8142.00,1.60
8141.00,1.61
8140.00,1.63
8139.00,1.64
8138.00,1.66
8137.00,1.67
8136.00,1.68
8135.00,1.70
8134.00,1.71
8133.00,1.72
8132.00,1.73
8131.00,1.73
8130.00,1.74
8129.00,1.74
8128.00,1.75
8127.00,1.75
8126.00,1.76
8125.00,1.76
8124.00,1.77
8123.00,1.77
8122.00,1.78
8121.00,1.78
8120.00,1.78
8119.00,1.78
8118.00,1.78
8117.00,1.78
8116.00,1.78
8115.00,1.78
8114.00,1.78
8113.00,1.77
8112.00,1.77
8111.00,1.77
8110.00,1.77
8109.00,1.77
8108.00,1.76
8107.00,1.76
8106.00,1.75
8105.00,1.75
8104.00,1.74
8103.00,1.73
8102.00,1.73
8101.00,1.72
8100.00,1.71
8099.00,1.70
8098.00,1.69
8097.00,1.68
8096.00,1.67
8095.00,1.66
8094.00,1.65
8093.00,1.64
8092.00,1.63
8091.00,1.62
8090.00,1.61
8089.00,1.61
8088.00,1.60
8087.00,1.59
8086.00,1.58
8085.00,1.57
8084.00,1.56
8083.00,1.56
8082.00,1.55
8081.00,1.54
8080.00,1.53
8079.00,1.53
8078.00,1.53
8077.00,1.53
8076.00,1.53
8075.00,1.53
8074.00,1.54
8073.00,1.54
8072.00,1.55
8071.00,1.55
8070.00,1.56
8069.00,1.56
8068.00,1.57
8067.00,1.57
8066.00,1.58
8065.00,1.58
8064.00,1.58
8063.00,1.59
8062.00,1.59
8061.00,1.59
8060.00,1.59
8059.00,1.59
8058.00,1.59
8057.00,1.59
8056.00,1.59
8055.00,1.59
8054.00,1.59
8053.00,1.59
8052.00,1.59
8051.00,1.59
8050.00,1.58
8049.00,1.58
8048.00,1.57
8047.00,1.56
8046.00,1.55
8045.00,1.54
8044.00,1.53
8043.00,1.52
8042.00,1.50
8041.00,1.50
8040.00,1.49
8039.00,1.48
8038.00,1.47
8037.00,1.47
8036.00,1.47
8035.00,1.46
8034.00,1.46
8033.00,1.45
8032.00,1.45
8031.00,1.45
8030.00,1.45
8029.00,1.45
8028.00,1.45
8027.00,1.45
8026.00,1.45
8025.00,1.45
8024.00,1.45
8023.00,1.45
8022.00,1.45
8021.00,1.46
8020.00,1.46
8019.00,1.47
8018.00,1.47
8017.00,1.48
8016.00,1.49
8015.00,1.50
8014.00,1.50
8013.00,1.51
8012.00,1.52
8011.00,1.52
8010.00,1.53
8009.00,1.53
8008.00,1.54
8007.00,1.55
8006.00,1.55
8005.00,1.56
8004.00,1.57
8003.00,1.57
8002.00,1.58
8001.00,1.59
8000.00,1.59
7999.00,1.60
7998.00,1.61
7997.00,1.61
7996.00,1.62
7995.00,1.63
7994.00,1.63
7993.00,1.64
7992.00,1.64
7991.00,1.65
7990.00,1.65
7989.00,1.65
7988.00,1.66
7987.00,1.66
7986.00,1.66
7985.00,1.66
7984.00,1.67
7983.00,1.67
7982.00,1.67
7981.00,1.66
7980.00,1.66
7979.00,1.66
7978.00,1.65
7977.00,1.65
7976.00,1.64
7975.00,1.63
7974.00,1.63
7973.00,1.62
7972.00,1.61
7971.00,1.61
7970.00,1.60
7969.00,1.59
7968.00,1.59
7967.00,1.58
7966.00,1.57
7965.00,1.56
7964.00,1.55
7963.00,1.54
7962.00,1.54
7961.00,1.53
7960.00,1.52
7959.00,1.51
7958.00,1.50
7957.00,1.50
7956.00,1.49
7955.00,1.49
7954.00,1.48
7953.00,1.48
7952.00,1.48
7951.00,1.48
7950.00,1.49
7949.00,1.49
7948.00,1.49
7947.00,1.49
7946.00,1.49
7945.00,1.49
7944.00,1.49
7943.00,1.49
7942.00,1.49
7941.00,1.49
7940.00,1.49
7939.00,1.50
7938.00,1.50
7937.00,1.51
7936.00,1.52
7935.00,1.53
7934.00,1.53
7933.00,1.54
7932.00,1.54
7931.00,1.55
7930.00,1.55
7929.00,1.55
7928.00,1.55
7927.00,1.54
7926.00,1.54
7925.00,1.53
7924.00,1.52
7923.00,1.52
7922.00,1.51
7921.00,1.51
7920.00,1.50
7919.00,1.50
7918.00,1.50
7917.00,1.49
7916.00,1.49
7915.00,1.48
7914.00,1.48
7913.00,1.47
7912.00,1.46
7911.00,1.45
7910.00,1.44
7909.00,1.43
7908.00,1.42
7907.00,1.41
7906.00,1.41
7905.00,1.40
7904.00,1.39
7903.00,1.39
7902.00,1.39
7901.00,1.39
7900.00,1.39
7899.00,1.39
7898.00,1.40
7897.00,1.40
7896.00,1.40
7895.00,1.41
7894.00,1.41
7893.00,1.41
7892.00,1.41
7891.00,1.41
7890.00,1.41
7889.00,1.41
7888.00,1.42
7887.00,1.42
7886.00,1.42
7885.00,1.42
7884.00,1.43
7883.00,1.43
7882.00,1.44
7881.00,1.44
7880.00,1.45
7879.00,1.45
7878.00,1.46
7877.00,1.46
7876.00,1.47
7875.00,1.47
7874.00,1.47
7873.00,1.47
7872.00,1.48
7871.00,1.48
7870.00,1.48
7869.00,1.48
7868.00,1.48
7867.00,1.49
7866.00,1.49
7865.00,1.50
7864.00,1.50
7863.00,1.51
7862.00,1.52
7861.00,1.52
7860.00,1.53
7859.00,1.53
7858.00,1.53
7857.00,1.53
7856.00,1.54
7855.00,1.53
7854.00,1.53
7853.00,1.53
7852.00,1.53
7851.00,1.53
7850.00,1.53
7849.00,1.53
7848.00,1.54
7847.00,1.54
7846.00,1.54
7845.00,1.55
7844.00,1.56
7843.00,1.56
7842.00,1.57
7841.00,1.57
7840.00,1.58
7839.00,1.58
7838.00,1.58
7837.00,1.58
7836.00,1.59
7835.00,1.59
7834.00,1.59
7833.00,1.59
7832.00,1.59
7831.00,1.60
7830.00,1.61
7829.00,1.62
7828.00,1.63
7827.00,1.64
7826.00,1.65
7825.00,1.66
7824.00,1.67
7823.00,1.69
7822.00,1.69
7821.00,1.70
7820.00,1.71
7819.00,1.72
7818.00,1.72
7817.00,1.73
7816.00,1.73
7815.00,1.74
7814.00,1.75
7813.00,1.76
7812.00,1.77
7811.00,1.79
7810.00,1.80
7809.00,1.81
7808.00,1.82
7807.00,1.84
7806.00,1.85
7805.00,1.86
7804.00,1.87
7803.00,1.88
7802.00,1.88
7801.00,1.89
7800.00,1.89
7799.00,1.90
7798.00,1.90
7797.00,1.91
7796.00,1.91
7795.00,1.92
7794.00,1.92
7793.00,1.92
7792.00,1.93
7791.00,1.93
7790.00,1.93
7789.00,1.93
7788.00,1.93
7787.00,1.93
7786.00,1.92
7785.00,1.92
7784.00,1.92
7783.00,1.92
7782.00,1.91
7781.00,1.91
7780.00,1.90
7779.00,1.90
7778.00,1.89
7777.00,1.88
7776.00,1.87
7775.00,1.86
7774.00,1.85
7773.00,1.84
7772.00,1.83
7771.00,1.81
7770.00,1.80
7769.00,1.78
7768.00,1.76
7767.00,1.74
7766.00,1.72
7765.00,1.70
7764.00,1.68
7763.00,1.66
7762.00,1.64
7761.00,1.62
7760.00,1.59
7759.00,1.57
7758.00,1.54
7757.00,1.52
7756.00,1.50
7755.00,1.47
7754.00,1.45
7753.00,1.43
7752.00,1.41
7751.00,1.39
7750.00,1.37
7749.00,1.36
7748.00,1.34
7747.00,1.33
7746.00,1.32
7745.00,1.31
7744.00,1.30
7743.00,1.30
7742.00,1.29
7741.00,1.29
7740.00,1.29
7739.00,1.29
7738.00,1.29
7737.00,1.30
7736.00,1.30
7735.00,1.32
7734.00,1.33
7733.00,1.34
7732.00,1.35
7731.00,1.37
7730.00,1.38
7729.00,1.40
7728.00,1.41
7727.00,1.43
7726.00,1.45
7725.00,1.47
7724.00,1.48
7723.00,1.50
7722.00,1.52
7721.00,1.53
7720.00,1.55
7719.00,1.56
7718.00,1.58
7717.00,1.59
7716.00,1.61
7715.00,1.62
7714.00,1.64
7713.00,1.65
7712.00,1.67
7711.00,1.68
7710.00,1.69
7709.00,1.70
7708.00,1.72
7707.00,1.73
7706.00,1.74
7705.00,1.75
7704.00,1.76
7703.00,1.76
7702.00,1.77
7701.00,1.78
7700.00,1.78
7699.00,1.78
7698.00,1.78
7697.00,1.78
7696.00,1.78
7695.00,1.78
7694.00,1.78
7693.00,1.78
7692.00,1.78
7691.00,1.78
7690.00,1.78
7689.00,1.78
7688.00,1.77
7687.00,1.77
7686.00,1.76
7685.00,1.76
7684.00,1.75
7683.00,1.74
7682.00,1.73
7681.00,1.71
7680.00,1.70
7679.00,1.69
7678.00,1.67
7677.00,1.66
7676.00,1.64
7675.00,1.63
7674.00,1.62
7673.00,1.60
7672.00,1.59
7671.00,1.58
7670.00,1.57
7669.00,1.56
7668.00,1.55
7667.00,1.54
7666.00,1.53
7665.00,1.51
7664.00,1.50
7663.00,1.49
7662.00,1.48
7661.00,1.48
7660.00,1.47
7659.00,1.46
7658.00,1.46
7657.00,1.46
7656.00,1.45
7655.00,1.45
7654.00,1.45
7653.00,1.45
7652.00,1.45
7651.00,1.45
7650.00,1.45
7649.00,1.45
7648.00,1.45
7647.00,1.45
7646.00,1.46
7645.00,1.46
7644.00,1.46
7643.00,1.47
7642.00,1.47
7641.00,1.48
7640.00,1.48
7639.00,1.49
7638.00,1.49
7637.00,1.50
7636.00,1.51
7635.00,1.51
7634.00,1.51
7633.00,1.52
7632.00,1.52
7631.00,1.52
7630.00,1.52
7629.00,1.53
7628.00,1.53
7627.00,1.53
7626.00,1.53
7625.00,1.54
7624.00,1.54
7623.00,1.54
7622.00,1.55
7621.00,1.55
7620.00,1.56
7619.00,1.56
7618.00,1.57
7617.00,1.57
7616.00,1.57
7615.00,1.57
7614.00,1.57
7613.00,1.58
7612.00,1.58
7611.00,1.58
7610.00,1.58
7609.00,1.58
7608.00,1.58
7607.00,1.58
7606.00,1.58
7605.00,1.59
7604.00,1.59
7603.00,1.60
7602.00,1.60
7601.00,1.61
7600.00,1.62
7599.00,1.62
7598.00,1.63
7597.00,1.63
7596.00,1.64
7595.00,1.64
7594.00,1.64
7593.00,1.64
7592.00,1.64
7591.00,1.64
7590.00,1.64
7589.00,1.65
7588.00,1.65
7587.00,1.65
7586.00,1.65
7585.00,1.66
7584.00,1.66
7583.00,1.66
7582.00,1.66
7581.00,1.67
7580.00,1.67
7579.00,1.67
7578.00,1.67
7577.00,1.67
7576.00,1.67
7575.00,1.67
7574.00,1.67
7573.00,1.66
7572.00,1.66
7571.00,1.65
7570.00,1.65
7569.00,1.65
7568.00,1.65
7567.00,1.64
7566.00,1.64
7565.00,1.65
7564.00,1.65
7563.00,1.65
7562.00,1.65
7561.00,1.65
7560.00,1.65
7559.00,1.65
7558.00,1.65
7557.00,1.65
7556.00,1.65
7555.00,1.66
7554.00,1.66
7553.00,1.66
7552.00,1.67
7551.00,1.67
7550.00,1.68
7549.00,1.68
7548.00,1.69
7547.00,1.69
7546.00,1.70
7545.00,1.70
7544.00,1.71
7543.00,1.71
7542.00,1.71
7541.00,1.72
7540.00,1.72
7539.00,1.72
7538.00,1.72
7537.00,1.72
7536.00,1.72
7535.00,1.72
7534.00,1.72
7533.00,1.71
7532.00,1.71
7531.00,1.70
7530.00,1.70
7529.00,1.69
7528.00,1.68
7527.00,1.68
7526.00,1.67
7525.00,1.66
7524.00,1.65
7523.00,1.65
7522.00,1.64
7521.00,1.63
7520.00,1.63
7519.00,1.63
7518.00,1.63
7517.00,1.62
7516.00,1.62
7515.00,1.62
7514.00,1.63
7513.00,1.63
7512.00,1.63
7511.00,1.63
7510.00,1.63
7509.00,1.63
7508.00,1.64
7507.00,1.64
7506.00,1.65
7505.00,1.66
7504.00,1.66
7503.00,1.67
7502.00,1.68
7501.00,1.69
7500.00,1.70
7499.00,1.71
7498.00,1.72
7497.00,1.72
7496.00,1.73
7495.00,1.73
7494.00,1.73
7493.00,1.73
7492.00,1.73
7491.00,1.73
7490.00,1.73
7489.00,1.73
7488.00,1.72
7487.00,1.72
7486.00,1.72
7485.00,1.72
7484.00,1.72
7483.00,1.72
7482.00,1.72
7481.00,1.72
7480.00,1.71
7479.00,1.71
7478.00,1.71
7477.00,1.70
7476.00,1.70
7475.00,1.69
7474.00,1.69
7473.00,1.69
7472.00,1.68
7471.00,1.68
7470.00,1.68
7469.00,1.68
7468.00,1.69
7467.00,1.69
7466.00,1.69
7465.00,1.70
7464.00,1.71
7463.00,1.71
7462.00,1.72
7461.00,1.73
7460.00,1.73
7459.00,1.74
7458.00,1.74
7457.00,1.74
7456.00,1.74
7455.00,1.74
7454.00,1.74
7453.00,1.74
7452.00,1.74
7451.00,1.74
7450.00,1.74
7449.00,1.74
7448.00,1.73
7447.00,1.73
7446.00,1.72
7445.00,1.72
7444.00,1.71
7443.00,1.70
7442.00,1.69
7441.00,1.69
7440.00,1.68
7439.00,1.67
7438.00,1.66
7437.00,1.65
7436.00,1.63
7435.00,1.62
7434.00,1.61
7433.00,1.60
7432.00,1.60
7431.00,1.59
7430.00,1.58
7429.00,1.58
7428.00,1.57
7427.00,1.57
7426.00,1.57
7425.00,1.57
7424.00,1.57
7423.00,1.57
7422.00,1.58
7421.00,1.58
7420.00,1.59
7419.00,1.59
7418.00,1.60
7417.00,1.61
7416.00,1.61
7415.00,1.62
7414.00,1.63
7413.00,1.63
7412.00,1.64
7411.00,1.65
7410.00,1.66
7409.00,1.67
7408.00,1.68
7407.00,1.69
7406.00,1.70
7405.00,1.71
7404.00,1.72
7403.00,1.73
7402.00,1.74
7401.00,1.75
7400.00,1.76
7399.00,1.77
7398.00,1.78
7397.00,1.79
7396.00,1.80
7395.00,1.80
7394.00,1.81
7393.00,1.82
7392.00,1.83
7391.00,1.83
7390.00,1.84
7389.00,1.85
7388.00,1.85
7387.00,1.86
7386.00,1.86
7385.00,1.86
7384.00,1.86
7383.00,1.86
7382.00,1.87
7381.00,1.87
7380.00,1.87
7379.00,1.87
7378.00,1.86
7377.00,1.86
7376.00,1.86
7375.00,1.85
7374.00,1.85
7373.00,1.84
7372.00,1.83
7371.00,1.82
7370.00,1.81
7369.00,1.80
7368.00,1.79
7367.00,1.78
7366.00,1.77
7365.00,1.76
7364.00,1.74
7363.00,1.73
7362.00,1.72
7361.00,1.71
7360.00,1.70
7359.00,1.69
7358.00,1.68
7357.00,1.67
7356.00,1.66
7355.00,1.65
7354.00,1.64
7353.00,1.62
7352.00,1.61
7351.00,1.60
7350.00,1.58
7349.00,1.57
7348.00,1.55
7347.00,1.54
7346.00,1.53
7345.00,1.52
7344.00,1.51
7343.00,1.50
7342.00,1.50
7341.00,1.49
7340.00,1.49
7339.00,1.49
7338.00,1.48
7337.00,1.48
7336.00,1.48
7335.00,1.48
7334.00,1.48
7333.00,1.49
7332.00,1.49
7331.00,1.49
7330.00,1.50
7329.00,1.50
7328.00,1.51
7327.00,1.52
7326.00,1.53
7325.00,1.54
7324.00,1.55
7323.00,1.57
7322.00,1.58
7321.00,1.60
7320.00,1.62
7319.00,1.63
7318.00,1.65
7317.00,1.67
7316.00,1.68
7315.00,1.69
7314.00,1.70
7313.00,1.71
7312.00,1.72
7311.00,1.73
7310.00,1.73
7309.00,1.73
7308.00,1.73
7307.00,1.73
7306.00,1.73
7305.00,1.73
7304.00,1.73
7303.00,1.73
7302.00,1.72
7301.00,1.72
7300.00,1.72
7299.00,1.71
7298.00,1.71
7297.00,1.70
7296.00,1.70
7295.00,1.69
7294.00,1.69
7293.00,1.69
7292.00,1.68
7291.00,1.68
7290.00,1.68
7289.00,1.68
7288.00,1.68
7287.00,1.68
7286.00,1.68
7285.00,1.68
7284.00,1.69
7283.00,1.70
7282.00,1.70
7281.00,1.71
7280.00,1.72
7279.00,1.73
7278.00,1.74
7277.00,1.75
7276.00,1.76
7275.00,1.77
7274.00,1.77
7273.00,1.78
7272.00,1.78
7271.00,1.78
7270.00,1.78
7269.00,1.78
7268.00,1.78
7267.00,1.78
7266.00,1.77
7265.00,1.77
7264.00,1.76
7263.00,1.75
7262.00,1.74
7261.00,1.74
7260.00,1.73
7259.00,1.72
7258.00,1.71
7257.00,1.70
7256.00,1.69
7255.00,1.68
7254.00,1.67
7253.00,1.66
7252.00,1.65
7251.00,1.64
7250.00,1.63
7249.00,1.63
7248.00,1.62
7247.00,1.62
7246.00,1.61
7245.00,1.61
7244.00,1.61
7243.00,1.61
7242.00,1.61
7241.00,1.61
7240.00,1.61
7239.00,1.62
7238.00,1.62
7237.00,1.62
7236.00,1.63
7235.00,1.63
7234.00,1.63
7233.00,1.63
7232.00,1.63
7231.00,1.63
7230.00,1.63
7229.00,1.63
7228.00,1.63
7227.00,1.63
7226.00,1.63
7225.00,1.63
7224.00,1.62
7223.00,1.62
7222.00,1.61
7221.00,1.60
7220.00,1.60
7219.00,1.59
7218.00,1.58
7217.00,1.57
7216.00,1.57
7215.00,1.56
7214.00,1.55
7213.00,1.54
7212.00,1.53
7211.00,1.52
7210.00,1.51
7209.00,1.50
7208.00,1.49
7207.00,1.48
7206.00,1.47
7205.00,1.46
7204.00,1.45
7203.00,1.44
7202.00,1.43
7201.00,1.42
7200.00,1.42
7199.00,1.41
7198.00,1.40
7197.00,1.39
7196.00,1.39
7195.00,1.38
7194.00,1.38
7193.00,1.37
7192.00,1.37
7191.00,1.36
7190.00,1.36
7189.00,1.35
7188.00,1.35
7187.00,1.35
7186.00,1.35
7185.00,1.35
7184.00,1.34
7183.00,1.34
7182.00,1.35
7181.00,1.35
7180.00,1.35
7179.00,1.36
7178.00,1.36
7177.00,1.37
7176.00,1.38
7175.00,1.38
7174.00,1.39
7173.00,1.40
7172.00,1.40
7171.00,1.41
7170.00,1.42
7169.00,1.43
7168.00,1.44
7167.00,1.44
7166.00,1.45
7165.00,1.46
7164.00,1.46
7163.00,1.47
7162.00,1.47
7161.00,1.48
7160.00,1.48
7159.00,1.48
7158.00,1.48
7157.00,1.49
7156.00,1.49
7155.00,1.49
7154.00,1.48
7153.00,1.48
7152.00,1.48
7151.00,1.47
7150.00,1.46
7149.00,1.46
7148.00,1.45
7147.00,1.44
7146.00,1.43
7145.00,1.42
7144.00,1.41
7143.00,1.40
7142.00,1.39
7141.00,1.38
7140.00,1.37
7139.00,1.36
7138.00,1.34
7137.00,1.33
7136.00,1.32
7135.00,1.31
7134.00,1.30
7133.00,1.28
7132.00,1.27
7131.00,1.26
7130.00,1.25
7129.00,1.24
7128.00,1.22
7127.00,1.21
7126.00,1.20
7125.00,1.19
7124.00,1.18
7123.00,1.17
7122.00,1.16
7121.00,1.15
7120.00,1.14
7119.00,1.13
7118.00,1.12
7117.00,1.12
7116.00,1.11
7115.00,1.10
7114.00,1.10
7113.00,1.10
7112.00,1.10
7111.00,1.10
7110.00,1.10
7109.00,1.10
7108.00,1.10
7107.00,1.10
7106.00,1.11
7105.00,1.11
7104.00,1.11
7103.00,1.12
7102.00,1.12
7101.00,1.12
7100.00,1.13
7099.00,1.13
7098.00,1.13
7097.00,1.13
7096.00,1.14
7095.00,1.14
7094.00,1.14
7093.00,1.15
7092.00,1.15
7091.00,1.15
7090.00,1.15
7089.00,1.16
7088.00,1.16
7087.00,1.16
7086.00,1.15
7085.00,1.15
7084.00,1.15
7083.00,1.14
7082.00,1.14
7081.00,1.13
7080.00,1.12
7079.00,1.11
7078.00,1.11
7077.00,1.10
7076.00,1.10
7075.00,1.09
7074.00,1.09
7073.00,1.09
7072.00,1.08
7071.00,1.08
7070.00,1.08
7069.00,1.07
7068.00,1.07
7067.00,1.07
7066.00,1.07
7065.00,1.06
7064.00,1.06
7063.00,1.06
7062.00,1.06
7061.00,1.06
7060.00,1.07
7059.00,1.07
7058.00,1.07
7057.00,1.07
7056.00,1.08
7055.00,1.09
7054.00,1.09
7053.00,1.10
7052.00,1.10
7051.00,1.11
7050.00,1.12
7049.00,1.12
7048.00,1.12
7047.00,1.13
7046.00,1.13
7045.00,1.13
7044.00,1.14
7043.00,1.14
7042.00,1.14
7041.00,1.14
7040.00,1.14
7039.00,1.14
7038.00,1.14
7037.00,1.14
7036.00,1.14
7035.00,1.14
7034.00,1.13
7033.00,1.13
7032.00,1.13
7031.00,1.13
7030.00,1.12
7029.00,1.12
7028.00,1.11
7027.00,1.11
7026.00,1.10
7025.00,1.10
7024.00,1.09
7023.00,1.09
7022.00,1.08
7021.00,1.07
7020.00,1.07
7019.00,1.06
7018.00,1.06
7017.00,1.05
7016.00,1.05
7015.00,1.04
7014.00,1.03
7013.00,1.02
7012.00,1.02
7011.00,1.01
7010.00,1.00
7009.00,0.99
7008.00,0.98
7007.00,0.98
7006.00,0.97
7005.00,0.96
7004.00,0.96
7003.00,0.95
7002.00,0.94
7001.00,0.94
7000.00,0.93
6999.00,0.93
6998.00,0.92
6997.00,0.92
6996.00,0.91
6995.00,0.91
6994.00,0.90
6993.00,0.90
6992.00,0.90
6991.00,0.89
6990.00,0.89
6989.00,0.89
6988.00,0.89
6987.00,0.89
6986.00,0.89
6985.00,0.89
6984.00,0.89
6983.00,0.89
6982.00,0.89
6981.00,0.89
6980.00,0.89
6979.00,0.89
6978.00,0.89
6977.00,0.89
6976.00,0.89
6975.00,0.89
6974.00,0.89
6973.00,0.89
6972.00,0.89
6971.00,0.88
6970.00,0.88
6969.00,0.88
6968.00,0.88
6967.00,0.88
6966.00,0.88
6965.00,0.88
6964.00,0.88
6963.00,0.88
6962.00,0.88
6961.00,0.88
6960.00,0.88
6959.00,0.89
6958.00,0.89
6957.00,0.89
6956.00,0.89
6955.00,0.89
6954.00,0.89
6953.00,0.90
6952.00,0.90
6951.00,0.90
6950.00,0.91
6949.00,0.91
6948.00,0.92
6947.00,0.92
6946.00,0.93
6945.00,0.93
6944.00,0.94
6943.00,0.94
6942.00,0.95
6941.00,0.96
6940.00,0.96
6939.00,0.97
6938.00,0.97
6937.00,0.98
6936.00,0.98
6935.00,0.98
6934.00,0.98
6933.00,0.99
6932.00,0.99
6931.00,0.99
6930.00,1.00
6929.00,1.00
6928.00,1.00
6927.00,1.01
6926.00,1.01
6925.00,1.01
6924.00,1.01
6923.00,1.01
6922.00,1.01
6921.00,1.00
6920.00,1.00
6919.00,1.00
6918.00,1.00
6917.00,0.99
6916.00,0.99
6915.00,0.99
6914.00,0.99
6913.00,0.99
6912.00,0.98
6911.00,0.98
6910.00,0.98
6909.00,0.98
6908.00,0.98
6907.00,0.98
6906.00,0.98
6905.00,0.97
6904.00,0.97
6903.00,0.97
6902.00,0.96
6901.00,0.96
6900.00,0.96
6899.00,0.96
6898.00,0.96
6897.00,0.96
6896.00,0.96
6895.00,0.97
6894.00,0.97
6893.00,0.97
6892.00,0.98
6891.00,0.98
6890.00,0.98
6889.00,0.98
6888.00,0.98
6887.00,0.97
6886.00,0.97
6885.00,0.97
6884.00,0.97
6883.00,0.97
6882.00,0.97
6881.00,0.97
6880.00,0.97
6879.00,0.97
6878.00,0.97
6877.00,0.98
6876.00,0.98
6875.00,0.98
6874.00,0.98
6873.00,0.98
6872.00,0.98
6871.00,0.97
6870.00,0.97
6869.00,0.96
6868.00,0.96
6867.00,0.95
6866.00,0.95
6865.00,0.94
6864.00,0.94
6863.00,0.94
6862.00,0.93
6861.00,0.93
6860.00,0.92
6859.00,0.92
6858.00,0.91
6857.00,0.90
6856.00,0.89
6855.00,0.89
6854.00,0.88
6853.00,0.87
6852.00,0.86
6851.00,0.85
6850.00,0.84
6849.00,0.83
6848.00,0.82
6847.00,0.81
6846.00,0.80
6845.00,0.79
6844.00,0.79
6843.00,0.78
6842.00,0.77
6841.00,0.77
6840.00,0.76
6839.00,0.75
6838.00,0.75
6837.00,0.74
6836.00,0.74
6835.00,0.73
6834.00,0.73
6833.00,0.73
6832.00,0.73
6831.00,0.73
6830.00,0.73
6829.00,0.73
6828.00,0.73
6827.00,0.74
6826.00,0.74
6825.00,0.74
6824.00,0.75
6823.00,0.75
6822.00,0.76
6821.00,0.77
6820.00,0.77
6819.00,0.78
6818.00,0.79
6817.00,0.79
6816.00,0.80
6815.00,0.81
6814.00,0.81
6813.00,0.82
6812.00,0.83
6811.00,0.83
6810.00,0.84
6809.00,0.84
6808.00,0.85
6807.00,0.86
6806.00,0.86
6805.00,0.87
6804.00,0.87
6803.00,0.87
6802.00,0.88
6801.00,0.88
6800.00,0.88
6799.00,0.88
6798.00,0.88
6797.00,0.87
6796.00,0.87
6795.00,0.87
6794.00,0.87
6793.00,0.87
6792.00,0.86
6791.00,0.86
6790.00,0.86
6789.00,0.86
6788.00,0.86
6787.00,0.86
6786.00,0.86
6785.00,0.86
6784.00,0.86
6783.00,0.86
6782.00,0.86
6781.00,0.86
6780.00,0.86
6779.00,0.86
6778.00,0.85
6777.00,0.85
6776.00,0.85
6775.00,0.85
6774.00,0.86
6773.00,0.86
6772.00,0.86
6771.00,0.87
6770.00,0.87
6769.00,0.87
6768.00,0.88
6767.00,0.88
6766.00,0.88
6765.00,0.89
6764.00,0.89
6763.00,0.89
6762.00,0.89
6761.00,0.89
6760.00,0.89
6759.00,0.89
6758.00,0.89
6757.00,0.90
6756.00,0.90
6755.00,0.91
6754.00,0.91
6753.00,0.92
6752.00,0.93
6751.00,0.94
6750.00,0.94
6749.00,0.95
6748.00,0.96
6747.00,0.97
6746.00,0.98
6745.00,0.99
6744.00,0.99
6743.00,1.00
6742.00,1.01
6741.00,1.02
6740.00,1.03
6739.00,1.04
6738.00,1.05
6737.00,1.06
6736.00,1.07
6735.00,1.08
6734.00,1.08
6733.00,1.09
6732.00,1.10
6731.00,1.11
6730.00,1.11
6729.00,1.11
6728.00,1.12
6727.00,1.12
6726.00,1.12
6725.00,1.12
6724.00,1.12
6723.00,1.12
6722.00,1.11
6721.00,1.11
6720.00,1.11
6719.00,1.10
6718.00,1.10
6717.00,1.09
6716.00,1.08
6715.00,1.08
6714.00,1.07
6713.00,1.07
6712.00,1.06
6711.00,1.06
6710.00,1.05
6709.00,1.05
6708.00,1.04
6707.00,1.04
6706.00,1.04
6705.00,1.03
6704.00,1.03
6703.00,1.03
6702.00,1.03
6701.00,1.03
6700.00,1.03
6699.00,1.03
6698.00,1.03
6697.00,1.03
6696.00,1.03
6695.00,1.04
6694.00,1.04
6693.00,1.04
6692.00,1.05
6691.00,1.05
6690.00,1.06
6689.00,1.06
6688.00,1.07
6687.00,1.07
6686.00,1.08
6685.00,1.09
6684.00,1.09
6683.00,1.10
6682.00,1.10
6681.00,1.11
6680.00,1.12
6679.00,1.12
6678.00,1.13
6677.00,1.13
6676.00,1.14
6675.00,1.14
6674.00,1.15
6673.00,1.15
6672.00,1.16
6671.00,1.17
6670.00,1.17
6669.00,1.18
6668.00,1.19
6667.00,1.19
6666.00,1.20
6665.00,1.21
6664.00,1.21
6663.00,1.22
6662.00,1.22
6661.00,1.23
6660.00,1.23
6659.00,1.23
6658.00,1.24
6657.00,1.24
6656.00,1.25
6655.00,1.26
6654.00,1.26
6653.00,1.27
6652.00,1.28
6651.00,1.28
6650.00,1.29
6649.00,1.30
6648.00,1.30
6647.00,1.31
6646.00,1.31
6645.00,1.32
6644.00,1.32
6643.00,1.32
6642.00,1.32
6641.00,1.32
6640.00,1.32
6639.00,1.32
6638.00,1.33
6637.00,1.33
6636.00,1.33
6635.00,1.33
6634.00,1.33
6633.00,1.33
6632.00,1.33
6631.00,1.33
6630.00,1.32
6629.00,1.32
6628.00,1.31
6627.00,1.31
6626.00,1.31
6625.00,1.30
6624.00,1.30
6623.00,1.29
6622.00,1.29
6621.00,1.29
6620.00,1.28
6619.00,1.28
6618.00,1.28
6617.00,1.27
6616.00,1.27
6615.00,1.26
6614.00,1.26
6613.00,1.26
6612.00,1.25
6611.00,1.25
6610.00,1.25
6609.00,1.24
6608.00,1.24
6607.00,1.24
6606.00,1.24
6605.00,1.24
6604.00,1.24
6603.00,1.24
6602.00,1.24
6601.00,1.24
6600.00,1.24
6599.00,1.24
6598.00,1.25
6597.00,1.25
6596.00,1.25
6595.00,1.25
6594.00,1.25
6593.00,1.25
6592.00,1.25
6591.00,1.25
6590.00,1.26
6589.00,1.26
6588.00,1.26
6587.00,1.26
6586.00,1.27
6585.00,1.27
6584.00,1.27
6583.00,1.27
6582.00,1.28
6581.00,1.28
6580.00,1.28
6579.00,1.29
6578.00,1.29
6577.00,1.29
6576.00,1.30
6575.00,1.30
6574.00,1.30
6573.00,1.31
6572.00,1.31
6571.00,1.32
6570.00,1.32
6569.00,1.33
6568.00,1.33
6567.00,1.34
6566.00,1.34
6565.00,1.35
6564.00,1.35
6563.00,1.36
6562.00,1.37
6561.00,1.38
6560.00,1.38
6559.00,1.39
6558.00,1.40
6557.00,1.41
6556.00,1.42
6555.00,1.42
6554.00,1.43
6553.00,1.44
6552.00,1.44
6551.00,1.45
6550.00,1.46
6549.00,1.46
6548.00,1.47
6547.00,1.47
6546.00,1.47
6545.00,1.47
6544.00,1.47
6543.00,1.47
6542.00,1.47
6541.00,1.47
6540.00,1.47
6539.00,1.47
6538.00,1.47
6537.00,1.47
6536.00,1.47
6535.00,1.47
6534.00,1.46
6533.00,1.46
6532.00,1.45
6531.00,1.45
6530.00,1.44
6529.00,1.44
6528.00,1.43
6527.00,1.42
6526.00,1.42
6525.00,1.41
6524.00,1.40
6523.00,1.39
6522.00,1.39
6521.00,1.38
6520.00,1.37
6519.00,1.37
6518.00,1.37
6517.00,1.37
6516.00,1.36
6515.00,1.36
6514.00,1.36
6513.00,1.36
6512.00,1.36
6511.00,1.35
6510.00,1.35
6509.00,1.35
6508.00,1.34
6507.00,1.34
6506.00,1.34
6505.00,1.34
6504.00,1.34
6503.00,1.34
6502.00,1.35
6501.00,1.35
6500.00,1.35
6499.00,1.35
6498.00,1.36
6497.00,1.36
6496.00,1.37
6495.00,1.37
6494.00,1.37
6493.00,1.37
6492.00,1.38
6491.00,1.38
6490.00,1.38
6489.00,1.38
6488.00,1.38
6487.00,1.37
6486.00,1.37
6485.00,1.37
6484.00,1.37
6483.00,1.37
6482.00,1.37
6481.00,1.36
6480.00,1.36
6479.00,1.36
6478.00,1.36
6477.00,1.35
6476.00,1.35
6475.00,1.35
6474.00,1.34
6473.00,1.34
6472.00,1.34
6471.00,1.34
6470.00,1.34
6469.00,1.34
6468.00,1.34
6467.00,1.34
6466.00,1.34
6465.00,1.34
6464.00,1.34
6463.00,1.35
6462.00,1.35
6461.00,1.36
6460.00,1.37
6459.00,1.38
6458.00,1.38
6457.00,1.39
6456.00,1.40
6455.00,1.41
6454.00,1.43
6453.00,1.44
6452.00,1.45
6451.00,1.46
6450.00,1.47
6449.00,1.48
6448.00,1.49
6447.00,1.50
6446.00,1.51
6445.00,1.52
6444.00,1.53
6443.00,1.55
6442.00,1.56
6441.00,1.57
6440.00,1.58
6439.00,1.59
6438.00,1.60
6437.00,1.61
6436.00,1.61
6435.00,1.62
6434.00,1.63
6433.00,1.63
6432.00,1.64
6431.00,1.65
6430.00,1.66
6429.00,1.66
6428.00,1.67
6427.00,1.67
6426.00,1.68
6425.00,1.68
6424.00,1.69
6423.00,1.69
6422.00,1.69
6421.00,1.70
6420.00,1.70
6419.00,1.70
6418.00,1.70
6417.00,1.70
6416.00,1.70
6415.00,1.69
6414.00,1.69
6413.00,1.69
6412.00,1.68
6411.00,1.68
6410.00,1.67
6409.00,1.67
6408.00,1.66
6407.00,1.65
6406.00,1.64
6405.00,1.64
6404.00,1.63
6403.00,1.62
6402.00,1.61
6401.00,1.60
6400.00,1.60
6399.00,1.59
6398.00,1.58
6397.00,1.58
6396.00,1.58
6395.00,1.57
6394.00,1.57
6393.00,1.57
6392.00,1.57
6391.00,1.57
6390.00,1.57
6389.00,1.57
6388.00,1.57
6387.00,1.57
6386.00,1.57
6385.00,1.57
6384.00,1.57
6383.00,1.57
6382.00,1.57
6381.00,1.57
6380.00,1.57
6379.00,1.57
6378.00,1.57
6377.00,1.57
6376.00,1.57
6375.00,1.57
6374.00,1.57
6373.00,1.57
6372.00,1.57
6371.00,1.57
6370.00,1.56
6369.00,1.56
6368.00,1.56
6367.00,1.56
6366.00,1.55
6365.00,1.55
6364.00,1.55
6363.00,1.55
6362.00,1.55
6361.00,1.55
6360.00,1.55
6359.00,1.55
6358.00,1.55
6357.00,1.56
6356.00,1.56
6355.00,1.57
6354.00,1.57
6353.00,1.58
6352.00,1.58
6351.00,1.59
6350.00,1.60
6349.00,1.60
6348.00,1.61
6347.00,1.62
6346.00,1.63
6345.00,1.63
6344.00,1.64
6343.00,1.65
6342.00,1.65
6341.00,1.66
6340.00,1.66
6339.00,1.67
6338.00,1.67
6337.00,1.68
6336.00,1.68
6335.00,1.69
6334.00,1.69
6333.00,1.70
6332.00,1.70
6331.00,1.70
6330.00,1.70
6329.00,1.70
6328.00,1.71
6327.00,1.71
6326.00,1.71
6325.00,1.71
6324.00,1.71
6323.00,1.71
6322.00,1.71
6321.00,1.71
6320.00,1.71
6319.00,1.71
6318.00,1.72
6317.00,1.72
6316.00,1.72
6315.00,1.72
6314.00,1.73
6313.00,1.73
6312.00,1.74
6311.00,1.74
6310.00,1.75
6309.00,1.75
6308.00,1.76
6307.00,1.76
6306.00,1.77
6305.00,1.77
6304.00,1.78
6303.00,1.78
6302.00,1.79
6301.00,1.79
6300.00,1.80
6299.00,1.80
6298.00,1.81
6297.00,1.81
6296.00,1.81
6295.00,1.81
6294.00,1.81
6293.00,1.81
6292.00,1.81
6291.00,1.81
6290.00,1.81
6289.00,1.81
6288.00,1.81
6287.00,1.81
6286.00,1.81
6285.00,1.81
6284.00,1.81
6283.00,1.81
6282.00,1.81
6281.00,1.80
6280.00,1.80
6279.00,1.80
6278.00,1.80
6277.00,1.80
6276.00,1.79
6275.00,1.79
6274.00,1.79
6273.00,1.79
6272.00,1.79
6271.00,1.79
6270.00,1.79
6269.00,1.79
6268.00,1.79
6267.00,1.79
6266.00,1.80
6265.00,1.80
6264.00,1.80
6263.00,1.81
6262.00,1.81
6261.00,1.81
6260.00,1.81
6259.00,1.82
6258.00,1.82
6257.00,1.82
6256.00,1.82
6255.00,1.82
6254.00,1.83
6253.00,1.83
6252.00,1.83
6251.00,1.83
6250.00,1.84
6249.00,1.84
6248.00,1.84
6247.00,1.84
6246.00,1.84
6245.00,1.83
6244.00,1.83
6243.00,1.83
6242.00,1.83
6241.00,1.82
6240.00,1.82
6239.00,1.81
6238.00,1.81
6237.00,1.80
6236.00,1.79
6235.00,1.79
6234.00,1.78
6233.00,1.78
6232.00,1.78
6231.00,1.77
6230.00,1.77
6229.00,1.77
6228.00,1.76
6227.00,1.76
6226.00,1.75
6225.00,1.75
6224.00,1.75
6223.00,1.75
6222.00,1.75
6221.00,1.75
6220.00,1.75
6219.00,1.75
6218.00,1.75
6217.00,1.76
6216.00,1.76
6215.00,1.76
6214.00,1.77
6213.00,1.78
6212.00,1.78
6211.00,1.79
6210.00,1.79
6209.00,1.80
6208.00,1.80
6207.00,1.81
6206.00,1.81
6205.00,1.81
6204.00,1.82
6203.00,1.82
6202.00,1.82
6201.00,1.82
6200.00,1.83
6199.00,1.83
6198.00,1.83
6197.00,1.84
6196.00,1.84
6195.00,1.84
6194.00,1.84
6193.00,1.84
6192.00,1.84
6191.00,1.85
6190.00,1.85
6189.00,1.85
6188.00,1.85
6187.00,1.85
6186.00,1.85
6185.00,1.85
6184.00,1.85
6183.00,1.86
6182.00,1.86
6181.00,1.86
6180.00,1.87
6179.00,1.88
6178.00,1.88
6177.00,1.89
6176.00,1.89
6175.00,1.90
6174.00,1.90
6173.00,1.91
6172.00,1.91
6171.00,1.91
6170.00,1.92
6169.00,1.92
6168.00,1.92
6167.00,1.93
6166.00,1.93
6165.00,1.93
6164.00,1.93
6163.00,1.93
6162.00,1.93
6161.00,1.94
6160.00,1.93
6159.00,1.93
6158.00,1.93
6157.00,1.93
6156.00,1.93
6155.00,1.92
6154.00,1.92
6153.00,1.91
6152.00,1.90
6151.00,1.90
6150.00,1.89
6149.00,1.89
6148.00,1.89
6147.00,1.88
6146.00,1.88
6145.00,1.88
6144.00,1.88
6143.00,1.87
6142.00,1.87
6141.00,1.87
6140.00,1.87
6139.00,1.87
6138.00,1.87
6137.00,1.87
6136.00,1.87
6135.00,1.87
6134.00,1.87
6133.00,1.87
6132.00,1.87
6131.00,1.87
6130.00,1.87
6129.00,1.87
6128.00,1.87
6127.00,1.87
6126.00,1.88
6125.00,1.88
6124.00,1.88
6123.00,1.88
6122.00,1.88
6121.00,1.88
6120.00,1.88
6119.00,1.88
6118.00,1.88
6117.00,1.88
6116.00,1.88
6115.00,1.88
6114.00,1.88
6113.00,1.88
6112.00,1.88
6111.00,1.88
6110.00,1.88
6109.00,1.89
6108.00,1.89
6107.00,1.89
6106.00,1.90
6105.00,1.91
6104.00,1.91
6103.00,1.92
6102.00,1.93
6101.00,1.93
6100.00,1.94
6099.00,1.95
6098.00,1.96
6097.00,1.97
6096.00,1.97
6095.00,1.98
6094.00,1.99
6093.00,2.00
6092.00,2.00
6091.00,2.01
6090.00,2.01
6089.00,2.02
6088.00,2.02
6087.00,2.02
6086.00,2.03
6085.00,2.03
6084.00,2.03
6083.00,2.03
6082.00,2.04
6081.00,2.04
6080.00,2.04
6079.00,2.04
6078.00,2.04
6077.00,2.03
6076.00,2.03
6075.00,2.03
6074.00,2.03
6073.00,2.03
6072.00,2.03
6071.00,2.03
6070.00,2.03
6069.00,2.03
6068.00,2.03
6067.00,2.03
6066.00,2.03
6065.00,2.04
6064.00,2.04
6063.00,2.04
6062.00,2.05
6061.00,2.05
6060.00,2.06
6059.00,2.06
6058.00,2.07
6057.00,2.07
6056.00,2.08
6055.00,2.08
6054.00,2.09
6053.00,2.09
6052.00,2.10
6051.00,2.10
6050.00,2.11
6049.00,2.11
6048.00,2.11
6047.00,2.12
6046.00,2.12
6045.00,2.12
6044.00,2.12
6043.00,2.13
6042.00,2.13
6041.00,2.13
6040.00,2.13
6039.00,2.13
6038.00,2.13
6037.00,2.13
6036.00,2.13
6035.00,2.13
6034.00,2.13
6033.00,2.14
6032.00,2.14
6031.00,2.14
6030.00,2.15
6029.00,2.15
6028.00,2.15
6027.00,2.15
6026.00,2.16
6025.00,2.16
6024.00,2.16
6023.00,2.16
6022.00,2.17
6021.00,2.17
6020.00,2.18
6019.00,2.18
6018.00,2.18
6017.00,2.19
6016.00,2.19
6015.00,2.19
6014.00,2.20
6013.00,2.20
6012.00,2.20
6011.00,2.20
6010.00,2.21
6009.00,2.21
6008.00,2.21
6007.00,2.20
6006.00,2.20
6005.00,2.20
6004.00,2.20
6003.00,2.19
6002.00,2.19
6001.00,2.19
6000.00,2.18
5999.00,2.18
5998.00,2.17
5997.00,2.17
5996.00,2.17
5995.00,2.16
5994.00,2.16
5993.00,2.16
5992.00,2.15
5991.00,2.15
5990.00,2.15
5989.00,2.14
5988.00,2.14
5987.00,2.14
5986.00,2.13
5985.00,2.13
5984.00,2.13
5983.00,2.12
5982.00,2.12
5981.00,2.11
5980.00,2.11
5979.00,2.11
5978.00,2.10
5977.00,2.10
5976.00,2.09
5975.00,2.09
5974.00,2.09
5973.00,2.08
5972.00,2.08
5971.00,2.08
5970.00,2.07
5969.00,2.07
5968.00,2.06
5967.00,2.06
5966.00,2.05
5965.00,2.05
5964.00,2.04
5963.00,2.04
5962.00,2.03
5961.00,2.03
5960.00,2.03
5959.00,2.03
5958.00,2.02
5957.00,2.02
5956.00,2.01
5955.00,2.01
5954.00,2.01
5953.00,2.00
5952.00,2.00
5951.00,2.00
5950.00,2.00
5949.00,1.99
5948.00,1.99
5947.00,1.99
5946.00,1.99
5945.00,1.99
5944.00,1.99
5943.00,1.99
5942.00,2.00
5941.00,2.00
5940.00,2.00
5939.00,2.00
5938.00,2.00
5937.00,2.00
5936.00,2.00
5935.00,2.00
5934.00,2.00
5933.00,2.00
5932.00,2.00
5931.00,2.00
5930.00,2.00
5929.00,2.01
5928.00,2.01
5927.00,2.01
5926.00,2.02
5925.00,2.02
5924.00,2.03
5923.00,2.03
5922.00,2.04
5921.00,2.04
5920.00,2.04
5919.00,2.04
5918.00,2.04
5917.00,2.04
5916.00,2.04
5915.00,2.04
5914.00,2.04
5913.00,2.04
5912.00,2.04
5911.00,2.04
5910.00,2.05
5909.00,2.05
5908.00,2.05
5907.00,2.06
5906.00,2.06
5905.00,2.07
5904.00,2.07
5903.00,2.07
5902.00,2.08
5901.00,2.08
5900.00,2.08
5899.00,2.09
5898.00,2.09
5897.00,2.09
5896.00,2.09
5895.00,2.10
5894.00,2.10
5893.00,2.10
5892.00,2.11
5891.00,2.12
5890.00,2.12
5889.00,2.13
5888.00,2.14
5887.00,2.14
5886.00,2.15
5885.00,2.16
5884.00,2.16
5883.00,2.17
5882.00,2.17
5881.00,2.18
5880.00,2.18
5879.00,2.18
5878.00,2.19
5877.00,2.19
5876.00,2.20
5875.00,2.20
5874.00,2.20
5873.00,2.21
5872.00,2.21
5871.00,2.21
5870.00,2.22
5869.00,2.22
5868.00,2.22
5867.00,2.22
5866.00,2.22
5865.00,2.22
5864.00,2.22
5863.00,2.22
5862.00,2.22
5861.00,2.22
5860.00,2.22
5859.00,2.21
5858.00,2.21
5857.00,2.21
5856.00,2.21
5855.00,2.20
5854.00,2.20
5853.00,2.20
5852.00,2.19
5851.00,2.19
5850.00,2.18
5849.00,2.18
5848.00,2.18
5847.00,2.17
5846.00,2.17
5845.00,2.16
5844.00,2.16
5843.00,2.16
5842.00,2.15
5841.00,2.15
5840.00,2.15
5839.00,2.15
5838.00,2.14
5837.00,2.14
5836.00,2.14
5835.00,2.14
5834.00,2.14
5833.00,2.14
5832.00,2.14
5831.00,2.14
5830.00,2.15
5829.00,2.15
5828.00,2.15
5827.00,2.15
5826.00,2.15
5825.00,2.15
5824.00,2.15
5823.00,2.16
5822.00,2.16
5821.00,2.16
5820.00,2.16
5819.00,2.16
5818.00,2.16
5817.00,2.16
5816.00,2.15
5815.00,2.15
5814.00,2.15
5813.00,2.14
5812.00,2.14
5811.00,2.14
5810.00,2.13
5809.00,2.12
5808.00,2.12
5807.00,2.11
5806.00,2.10
5805.00,2.09
5804.00,2.09
5803.00,2.08
5802.00,2.07
5801.00,2.06
5800.00,2.06
5799.00,2.05
5798.00,2.04
5797.00,2.03
5796.00,2.03
5795.00,2.02
5794.00,2.02
5793.00,2.01
5792.00,2.01
5791.00,2.01
5790.00,2.01
5789.00,2.01
5788.00,2.00
5787.00,2.00
5786.00,2.00
5785.00,2.01
5784.00,2.01
5783.00,2.01
5782.00,2.01
5781.00,2.02
5780.00,2.02
5779.00,2.02
5778.00,2.03
5777.00,2.04
5776.00,2.04
5775.00,2.05
5774.00,2.06
5773.00,2.06
5772.00,2.07
5771.00,2.08
5770.00,2.09
5769.00,2.09
5768.00,2.10
5767.00,2.10
5766.00,2.11
5765.00,2.12
5764.00,2.12
5763.00,2.13
5762.00,2.13
5761.00,2.14
5760.00,2.15
5759.00,2.15
5758.00,2.16
5757.00,2.16
5756.00,2.17
5755.00,2.18
5754.00,2.18
5753.00,2.19
5752.00,2.19
5751.00,2.19
5750.00,2.20
5749.00,2.20
5748.00,2.21
5747.00,2.21
5746.00,2.21
5745.00,2.22
5744.00,2.22
5743.00,2.22
5742.00,2.23
5741.00,2.23
5740.00,2.23
5739.00,2.24
5738.00,2.24
5737.00,2.24
5736.00,2.24
5735.00,2.25
5734.00,2.25
5733.00,2.25
5732.00,2.25
5731.00,2.25
5730.00,2.25
5729.00,2.25
5728.00,2.25
5727.00,2.25
5726.00,2.25
5725.00,2.25
5724.00,2.25
5723.00,2.25
5722.00,2.25
5721.00,2.25
5720.00,2.24
5719.00,2.24
5718.00,2.23
5717.00,2.23
5716.00,2.23
5715.00,2.22
5714.00,2.22
5713.00,2.21
5712.00,2.21
5711.00,2.20
5710.00,2.20
5709.00,2.19
5708.00,2.19
5707.00,2.18
5706.00,2.18
5705.00,2.17
5704.00,2.16
5703.00,2.16
5702.00,2.15
5701.00,2.15
5700.00,2.14
5699.00,2.14
5698.00,2.14
5697.00,2.13
5696.00,2.13
5695.00,2.13
5694.00,2.13
5693.00,2.12
5692.00,2.12
5691.00,2.12
5690.00,2.12
5689.00,2.12
5688.00,2.13
5687.00,2.13
5686.00,2.13
5685.00,2.13
5684.00,2.13
5683.00,2.13
5682.00,2.13
5681.00,2.13
5680.00,2.13
5679.00,2.13
5678.00,2.13
5677.00,2.13
5676.00,2.13
5675.00,2.14
5674.00,2.14
5673.00,2.14
5672.00,2.14
5671.00,2.14
5670.00,2.14
5669.00,2.14
5668.00,2.14
5667.00,2.14
5666.00,2.13
5665.00,2.13
5664.00,2.13
5663.00,2.13
5662.00,2.13
5661.00,2.12
5660.00,2.12
5659.00,2.12
5658.00,2.12
5657.00,2.12
5656.00,2.12
5655.00,2.12
5654.00,2.11
5653.00,2.11
5652.00,2.11
5651.00,2.11
5650.00,2.11
5649.00,2.11
5648.00,2.11
5647.00,2.11
5646.00,2.11
5645.00,2.11
5644.00,2.11
5643.00,2.10
5642.00,2.11
5641.00,2.11
5640.00,2.11
5639.00,2.11
5638.00,2.11
5637.00,2.11
5636.00,2.11
5635.00,2.10
5634.00,2.10
5633.00,2.10
5632.00,2.10
5631.00,2.10
5630.00,2.09
5629.00,2.09
5628.00,2.09
5627.00,2.09
5626.00,2.08
5625.00,2.08
5624.00,2.07
5623.00,2.07
5622.00,2.07
5621.00,2.07
5620.00,2.06
5619.00,2.06
5618.00,2.05
5617.00,2.05
5616.00,2.04
5615.00,2.04
5614.00,2.03
5613.00,2.03
5612.00,2.03
5611.00,2.03
5610.00,2.03
5609.00,2.02
5608.00,2.03
5607.00,2.03
5606.00,2.03
5605.00,2.03
5604.00,2.03
5603.00,2.03
5602.00,2.04
5601.00,2.04
5600.00,2.04
5599.00,2.05
5598.00,2.05
5597.00,2.05
5596.00,2.05
5595.00,2.06
5594.00,2.06
5593.00,2.06
5592.00,2.07
5591.00,2.07
5590.00,2.08
5589.00,2.08
5588.00,2.09
5587.00,2.09
5586.00,2.10
5585.00,2.10
5584.00,2.10
5583.00,2.10
5582.00,2.10
5581.00,2.10
5580.00,2.10
5579.00,2.10
5578.00,2.10
5577.00,2.10
5576.00,2.10
5575.00,2.10
5574.00,2.10
5573.00,2.10
5572.00,2.10
5571.00,2.10
5570.00,2.10
5569.00,2.11
5568.00,2.11
5567.00,2.11
5566.00,2.11
5565.00,2.11
5564.00,2.11
5563.00,2.11
5562.00,2.11
5561.00,2.11
5560.00,2.11
5559.00,2.12
5558.00,2.12
5557.00,2.12
5556.00,2.12
5555.00,2.13
5554.00,2.13
5553.00,2.13
5552.00,2.14
5551.00,2.14
5550.00,2.15
5549.00,2.15
5548.00,2.15
5547.00,2.16
5546.00,2.16
5545.00,2.16
5544.00,2.17
5543.00,2.17
5542.00,2.17
5541.00,2.18
5540.00,2.18
5539.00,2.18
5538.00,2.18
5537.00,2.19
5536.00,2.19
5535.00,2.19
5534.00,2.19
5533.00,2.20
5532.00,2.20
5531.00,2.20
5530.00,2.20
5529.00,2.20
5528.00,2.21
5527.00,2.21
5526.00,2.21
5525.00,2.21
5524.00,2.21
5523.00,2.21
5522.00,2.21
5521.00,2.21
5520.00,2.21
5519.00,2.21
5518.00,2.21
5517.00,2.21
5516.00,2.21
5515.00,2.22
5514.00,2.22
5513.00,2.22
5512.00,2.22
5511.00,2.22
5510.00,2.22
5509.00,2.22
5508.00,2.22
5507.00,2.22
5506.00,2.22
5505.00,2.22
5504.00,2.22
5503.00,2.23
5502.00,2.23
5501.00,2.23
5500.00,2.23
5499.00,2.23
5498.00,2.23
5497.00,2.24
5496.00,2.24
5495.00,2.24
5494.00,2.24
5493.00,2.25
5492.00,2.25
5491.00,2.25
5490.00,2.25
5489.00,2.25
5488.00,2.26
5487.00,2.26
5486.00,2.26
5485.00,2.26
5484.00,2.26
5483.00,2.26
5482.00,2.27
5481.00,2.27
5480.00,2.27
5479.00,2.27
5478.00,2.27
5477.00,2.27
5476.00,2.27
5475.00,2.27
5474.00,2.27
5473.00,2.27
5472.00,2.27
5471.00,2.27
5470.00,2.27
5469.00,2.27
5468.00,2.27
5467.00,2.27
5466.00,2.27
5465.00,2.27
5464.00,2.27
5463.00,2.27
5462.00,2.27
5461.00,2.27
5460.00,2.27
5459.00,2.26
5458.00,2.26
5457.00,2.26
5456.00,2.25
5455.00,2.25
5454.00,2.24
5453.00,2.24
5452.00,2.23
5451.00,2.23
5450.00,2.22
5449.00,2.22
5448.00,2.21
5447.00,2.20
5446.00,2.20
5445.00,2.19
5444.00,2.19
5443.00,2.18
5442.00,2.17
5441.00,2.16
5440.00,2.16
5439.00,2.15
5438.00,2.14
5437.00,2.13
5436.00,2.12
5435.00,2.11
5434.00,2.11
5433.00,2.10
5432.00,2.09
5431.00,2.09
5430.00,2.09
5429.00,2.08
5428.00,2.08
5427.00,2.08
5426.00,2.08
5425.00,2.08
5424.00,2.08
5423.00,2.08
5422.00,2.08
5421.00,2.07
5420.00,2.07
5419.00,2.07
5418.00,2.07
5417.00,2.07
5416.00,2.07
5415.00,2.07
5414.00,2.07
5413.00,2.07
5412.00,2.07
5411.00,2.07
5410.00,2.08
5409.00,2.08
5408.00,2.08
5407.00,2.08
5406.00,2.08
5405.00,2.08
5404.00,2.07
5403.00,2.07
5402.00,2.07
5401.00,2.06
5400.00,2.06
5399.00,2.05
5398.00,2.04
5397.00,2.04
5396.00,2.03
5395.00,2.03
5394.00,2.02
5393.00,2.02
5392.00,2.01
5391.00,2.01
5390.00,2.01
5389.00,2.00
5388.00,2.00
5387.00,2.00
5386.00,1.99
5385.00,1.99
5384.00,1.98
5383.00,1.98
5382.00,1.98
5381.00,1.97
5380.00,1.97
5379.00,1.96
5378.00,1.96
5377.00,1.96
5376.00,1.95
5375.00,1.95
5374.00,1.95
5373.00,1.95
5372.00,1.94
5371.00,1.94
5370.00,1.94
5369.00,1.94
5368.00,1.93
5367.00,1.93
5366.00,1.92
5365.00,1.91
5364.00,1.90
5363.00,1.89
5362.00,1.88
5361.00,1.87
5360.00,1.86
5359.00,1.85
5358.00,1.84
5357.00,1.82
5356.00,1.81
5355.00,1.80
5354.00,1.78
5353.00,1.77
5352.00,1.75
5351.00,1.74
5350.00,1.72
5349.00,1.70
5348.00,1.69
5347.00,1.67
5346.00,1.65
5345.00,1.63
5344.00,1.62
5343.00,1.60
5342.00,1.59
5341.00,1.57
5340.00,1.56
5339.00,1.54
5338.00,1.53
5337.00,1.52
5336.00,1.51
5335.00,1.50
5334.00,1.49
5333.00,1.48
5332.00,1.47
5331.00,1.46
5330.00,1.45
5329.00,1.45
5328.00,1.44
5327.00,1.43
5326.00,1.43
5325.00,1.42
5324.00,1.42
5323.00,1.41
5322.00,1.41
5321.00,1.41
5320.00,1.40
5319.00,1.40
5318.00,1.40
5317.00,1.39
5316.00,1.39
5315.00,1.38
5314.00,1.38
5313.00,1.37
5312.00,1.37
5311.00,1.36
5310.00,1.36
5309.00,1.35
5308.00,1.34
5307.00,1.34
5306.00,1.33
5305.00,1.32
5304.00,1.32
5303.00,1.31
5302.00,1.31
5301.00,1.31
5300.00,1.30
5299.00,1.30
5298.00,1.29
5297.00,1.29
5296.00,1.29
5295.00,1.28
5294.00,1.28
5293.00,1.27
5292.00,1.27
5291.00,1.27
5290.00,1.27
5289.00,1.26
5288.00,1.26
5287.00,1.26
5286.00,1.26
5285.00,1.26
5284.00,1.26
5283.00,1.26
5282.00,1.26
5281.00,1.26
5280.00,1.26
5279.00,1.26
5278.00,1.26
5277.00,1.26
5276.00,1.25
5275.00,1.25
5274.00,1.25
5273.00,1.24
5272.00,1.24
5271.00,1.24
5270.00,1.23
5269.00,1.23
5268.00,1.22
5267.00,1.22
5266.00,1.22
5265.00,1.21
5264.00,1.21
5263.00,1.21
5262.00,1.20
5261.00,1.20
5260.00,1.19
5259.00,1.19
5258.00,1.19
5257.00,1.18
5256.00,1.18
5255.00,1.18
5254.00,1.18
5253.00,1.17
5252.00,1.17
5251.00,1.17
5250.00,1.17
5249.00,1.18
5248.00,1.18
5247.00,1.18
5246.00,1.19
5245.00,1.19
5244.00,1.19
5243.00,1.20
5242.00,1.20
5241.00,1.21
5240.00,1.21
5239.00,1.22
5238.00,1.22
5237.00,1.23
5236.00,1.23
5235.00,1.24
5234.00,1.24
5233.00,1.25
5232.00,1.26
5231.00,1.26
5230.00,1.27
5229.00,1.27
5228.00,1.27
5227.00,1.27
5226.00,1.28
5225.00,1.28
5224.00,1.28
5223.00,1.28
5222.00,1.28
5221.00,1.28
5220.00,1.27
5219.00,1.27
5218.00,1.27
5217.00,1.27
5216.00,1.26
5215.00,1.26
5214.00,1.26
5213.00,1.26
5212.00,1.25
5211.00,1.25
5210.00,1.25
5209.00,1.24
5208.00,1.24
5207.00,1.23
5206.00,1.23
5205.00,1.22
5204.00,1.22
5203.00,1.22
5202.00,1.21
5201.00,1.21
5200.00,1.21
5199.00,1.21
5198.00,1.20
5197.00,1.20
5196.00,1.20
5195.00,1.20
5194.00,1.20
5193.00,1.20
5192.00,1.20
5191.00,1.20
5190.00,1.20
5189.00,1.20
5188.00,1.20
5187.00,1.20
5186.00,1.20
5185.00,1.20
5184.00,1.20
5183.00,1.21
5182.00,1.21
5181.00,1.21
5180.00,1.21
5179.00,1.22
5178.00,1.22
5177.00,1.22
5176.00,1.22
5175.00,1.23
5174.00,1.23
5173.00,1.23
5172.00,1.23
5171.00,1.23
5170.00,1.24
5169.00,1.24
5168.00,1.24
5167.00,1.24
5166.00,1.24
5165.00,1.25
5164.00,1.25
5163.00,1.25
5162.00,1.25
5161.00,1.25
5160.00,1.25
5159.00,1.25
5158.00,1.26
5157.00,1.26
5156.00,1.26
5155.00,1.26
5154.00,1.26
5153.00,1.26
5152.00,1.26
5151.00,1.26
5150.00,1.27
5149.00,1.27
5148.00,1.27
5147.00,1.27
5146.00,1.27
5145.00,1.27
5144.00,1.27
5143.00,1.27
5142.00,1.27
5141.00,1.27
5140.00,1.27
5139.00,1.27
5138.00,1.27
5137.00,1.27
5136.00,1.27
5135.00,1.27
5134.00,1.27
5133.00,1.27
5132.00,1.27
5131.00,1.27
5130.00,1.27
5129.00,1.27
5128.00,1.27
5127.00,1.27
5126.00,1.27
5125.00,1.27
5124.00,1.26
5123.00,1.26
5122.00,1.26
5121.00,1.26
5120.00,1.26
5119.00,1.26
5118.00,1.26
5117.00,1.27
5116.00,1.27
5115.00,1.27
5114.00,1.27
5113.00,1.27
5112.00,1.28
5111.00,1.28
5110.00,1.28
5109.00,1.28
5108.00,1.29
5107.00,1.29
5106.00,1.29
5105.00,1.29
5104.00,1.29
5103.00,1.30
5102.00,1.30
5101.00,1.30
5100.00,1.31
5099.00,1.31
5098.00,1.31
5097.00,1.32
5096.00,1.32
5095.00,1.32
5094.00,1.32
5093.00,1.33
5092.00,1.33
5091.00,1.33
5090.00,1.33
5089.00,1.33
5088.00,1.33
5087.00,1.34
5086.00,1.34
5085.00,1.34
5084.00,1.34
5083.00,1.34
5082.00,1.34
5081.00,1.35
5080.00,1.35
5079.00,1.35
5078.00,1.35
5077.00,1.35
5076.00,1.35
5075.00,1.34
5074.00,1.34
5073.00,1.34
5072.00,1.34
5071.00,1.34
5070.00,1.33
5069.00,1.33
5068.00,1.33
5067.00,1.33
5066.00,1.32
5065.00,1.32
5064.00,1.32
5063.00,1.32
5062.00,1.32
5061.00,1.32
5060.00,1.32
5059.00,1.32
5058.00,1.31
5057.00,1.31
5056.00,1.31
5055.00,1.31
5054.00,1.31
5053.00,1.31
5052.00,1.31
5051.00,1.31
5050.00,1.32
5049.00,1.32
5048.00,1.32
5047.00,1.32
5046.00,1.33
5045.00,1.33
5044.00,1.33
5043.00,1.34
5042.00,1.34
5041.00,1.34
5040.00,1.35
5039.00,1.35
5038.00,1.36
5037.00,1.36
5036.00,1.36
5035.00,1.37
5034.00,1.37
5033.00,1.37
5032.00,1.38
5031.00,1.38
5030.00,1.38
5029.00,1.38
5028.00,1.39
5027.00,1.39
5026.00,1.39
5025.00,1.39
5024.00,1.39
5023.00,1.39
5022.00,1.39
5021.00,1.39
5020.00,1.39
5019.00,1.39
5018.00,1.39
5017.00,1.39
5016.00,1.39
5015.00,1.38
5014.00,1.38
5013.00,1.38
5012.00,1.38
5011.00,1.37
5010.00,1.37
5009.00,1.36
5008.00,1.36
5007.00,1.36
5006.00,1.35
5005.00,1.35
5004.00,1.35
5003.00,1.34
5002.00,1.34
5001.00,1.34
5000.00,1.34
4999.00,1.34
4998.00,1.34
4997.00,1.35
4996.00,1.35
4995.00,1.35
4994.00,1.35
4993.00,1.35
4992.00,1.35
4991.00,1.36
4990.00,1.36
4989.00,1.36
4988.00,1.37
4987.00,1.37
4986.00,1.37
4985.00,1.38
4984.00,1.38
4983.00,1.39
4982.00,1.39
4981.00,1.40
4980.00,1.40
4979.00,1.41
4978.00,1.41
4977.00,1.42
4976.00,1.42
4975.00,1.42
4974.00,1.42
4973.00,1.42
4972.00,1.42
4971.00,1.43
4970.00,1.43
4969.00,1.43
4968.00,1.43
4967.00,1.43
4966.00,1.43
4965.00,1.44
4964.00,1.44
4963.00,1.44
4962.00,1.44
4961.00,1.44
4960.00,1.44
4959.00,1.44
4958.00,1.44
4957.00,1.44
4956.00,1.44
4955.00,1.43
4954.00,1.43
4953.00,1.43
4952.00,1.43
4951.00,1.44
4950.00,1.44
4949.00,1.44
4948.00,1.44
4947.00,1.44
4946.00,1.44
4945.00,1.44
4944.00,1.43
4943.00,1.43
4942.00,1.43
4941.00,1.43
4940.00,1.42
4939.00,1.42
4938.00,1.42
4937.00,1.41
4936.00,1.41
4935.00,1.41
4934.00,1.41
4933.00,1.40
4932.00,1.40
4931.00,1.40
4930.00,1.40
4929.00,1.40
4928.00,1.39
4927.00,1.39
4926.00,1.39
4925.00,1.39
4924.00,1.38
4923.00,1.38
4922.00,1.38
4921.00,1.38
4920.00,1.38
4919.00,1.38
4918.00,1.38
4917.00,1.38
4916.00,1.38
4915.00,1.38
4914.00,1.38
4913.00,1.38
4912.00,1.38
4911.00,1.38
4910.00,1.38
4909.00,1.38
4908.00,1.39
4907.00,1.39
4906.00,1.39
4905.00,1.39
4904.00,1.40
4903.00,1.40
4902.00,1.40
4901.00,1.40
4900.00,1.41
4899.00,1.41
4898.00,1.42
4897.00,1.42
4896.00,1.42
4895.00,1.43
4894.00,1.43
4893.00,1.43
4892.00,1.44
4891.00,1.44
4890.00,1.45
4889.00,1.45
4888.00,1.46
4887.00,1.46
4886.00,1.47
4885.00,1.47
4884.00,1.48
4883.00,1.48
4882.00,1.49
4881.00,1.49
4880.00,1.50
4879.00,1.50
4878.00,1.51
4877.00,1.52
4876.00,1.52
4875.00,1.52
4874.00,1.53
4873.00,1.53
4872.00,1.54
4871.00,1.54
4870.00,1.54
4869.00,1.55
4868.00,1.55
4867.00,1.56
4866.00,1.56
4865.00,1.57
4864.00,1.57
4863.00,1.58
4862.00,1.58
4861.00,1.58
4860.00,1.59
4859.00,1.59
4858.00,1.59
4857.00,1.59
4856.00,1.60
4855.00,1.60
4854.00,1.60
4853.00,1.60
4852.00,1.60
4851.00,1.60
4850.00,1.60
4849.00,1.60
4848.00,1.60
4847.00,1.60
4846.00,1.60
4845.00,1.60
4844.00,1.60
4843.00,1.60
4842.00,1.60
4841.00,1.60
4840.00,1.60
4839.00,1.60
4838.00,1.60
4837.00,1.60
4836.00,1.60
4835.00,1.60
4834.00,1.60
4833.00,1.60
4832.00,1.60
4831.00,1.60
4830.00,1.60
4829.00,1.61
4828.00,1.61
4827.00,1.61
4826.00,1.61
4825.00,1.61
4824.00,1.61
4823.00,1.61
4822.00,1.62
4821.00,1.62
4820.00,1.62
4819.00,1.62
4818.00,1.63
4817.00,1.63
4816.00,1.63
4815.00,1.63
4814.00,1.63
4813.00,1.64
4812.00,1.64
4811.00,1.64
4810.00,1.64
4809.00,1.64
4808.00,1.64
4807.00,1.64
4806.00,1.65
4805.00,1.65
4804.00,1.65
4803.00,1.65
4802.00,1.66
4801.00,1.66
4800.00,1.66
4799.00,1.66
4798.00,1.66
4797.00,1.67
4796.00,1.67
4795.00,1.67
4794.00,1.67
4793.00,1.67
4792.00,1.67
4791.00,1.67
4790.00,1.67
4789.00,1.67
4788.00,1.67
4787.00,1.67
4786.00,1.67
4785.00,1.67
4784.00,1.67
4783.00,1.67
4782.00,1.67
4781.00,1.67
4780.00,1.67
4779.00,1.67
4778.00,1.67
4777.00,1.67
4776.00,1.67
4775.00,1.67
4774.00,1.67
4773.00,1.67
4772.00,1.67
4771.00,1.67
4770.00,1.67
4769.00,1.67
4768.00,1.67
4767.00,1.67
4766.00,1.67
4765.00,1.67
4764.00,1.67
4763.00,1.67
4762.00,1.67
4761.00,1.68
4760.00,1.68
4759.00,1.69
4758.00,1.69
4757.00,1.69
4756.00,1.70
4755.00,1.70
4754.00,1.71
4753.00,1.71
4752.00,1.71
4751.00,1.72
4750.00,1.72
4749.00,1.73
4748.00,1.73
4747.00,1.74
4746.00,1.74
4745.00,1.75
4744.00,1.76
4743.00,1.76
4742.00,1.77
4741.00,1.78
4740.00,1.79
4739.00,1.80
4738.00,1.81
4737.00,1.82
4736.00,1.83
4735.00,1.84
4734.00,1.84
4733.00,1.85
4732.00,1.85
4731.00,1.85
4730.00,1.86
4729.00,1.86
4728.00,1.87
4727.00,1.87
4726.00,1.88
4725.00,1.88
4724.00,1.89
4723.00,1.89
4722.00,1.90
4721.00,1.90
4720.00,1.91
4719.00,1.91
4718.00,1.91
4717.00,1.91
4716.00,1.91
4715.00,1.91
4714.00,1.91
4713.00,1.91
4712.00,1.91
4711.00,1.91
4710.00,1.90
4709.00,1.90
4708.00,1.90
4707.00,1.90
4706.00,1.90
4705.00,1.89
4704.00,1.89
4703.00,1.89
4702.00,1.89
4701.00,1.89
4700.00,1.89
4699.00,1.88
4698.00,1.88
4697.00,1.88
4696.00,1.87
4695.00,1.86
4694.00,1.86
4693.00,1.85
4692.00,1.85
4691.00,1.84
4690.00,1.84
4689.00,1.83
4688.00,1.83
4687.00,1.82
4686.00,1.82
4685.00,1.82
4684.00,1.82
4683.00,1.81
4682.00,1.81
4681.00,1.81
4680.00,1.81
4679.00,1.81
4678.00,1.81
4677.00,1.81
4676.00,1.82
4675.00,1.82
4674.00,1.82
4673.00,1.82
4672.00,1.83
4671.00,1.83
4670.00,1.84
4669.00,1.84
4668.00,1.85
4667.00,1.86
4666.00,1.87
4665.00,1.88
4664.00,1.89
4663.00,1.90
4662.00,1.91
4661.00,1.92
4660.00,1.93
4659.00,1.94
4658.00,1.95
4657.00,1.96
4656.00,1.97
4655.00,1.98
4654.00,1.99
4653.00,2.00
4652.00,2.01
4651.00,2.02
4650.00,2.02
4649.00,2.03
4648.00,2.04
4647.00,2.04
4646.00,2.05
4645.00,2.05
4644.00,2.06
4643.00,2.06
4642.00,2.07
4641.00,2.07
4640.00,2.07
4639.00,2.07
4638.00,2.07
4637.00,2.06
4636.00,2.06
4635.00,2.06
4634.00,2.05
4633.00,2.05
4632.00,2.05
4631.00,2.04
4630.00,2.04
4629.00,2.04
4628.00,2.03
4627.00,2.03
4626.00,2.03
4625.00,2.02
4624.00,2.02
4623.00,2.02
4622.00,2.02
4621.00,2.01
4620.00,2.01
4619.00,2.01
4618.00,2.01
4617.00,2.01
4616.00,2.01
4615.00,2.00
4614.00,2.00
4613.00,2.00
4612.00,2.01
4611.00,2.01
4610.00,2.01
4609.00,2.01
4608.00,2.02
4607.00,2.02
4606.00,2.03
4605.00,2.03
4604.00,2.03
4603.00,2.04
4602.00,2.04
4601.00,2.04
4600.00,2.05
4599.00,2.05
4598.00,2.05
4597.00,2.05
4596.00,2.05
4595.00,2.05
4594.00,2.05
4593.00,2.05
4592.00,2.05
4591.00,2.06
4590.00,2.06
4589.00,2.06
4588.00,2.06
4587.00,2.06
4586.00,2.07
4585.00,2.07
4584.00,2.07
4583.00,2.07
4582.00,2.07
4581.00,2.07
4580.00,2.07
4579.00,2.07
4578.00,2.07
4577.00,2.07
4576.00,2.07
4575.00,2.07
4574.00,2.07
4573.00,2.07
4572.00,2.07
4571.00,2.08
4570.00,2.08
4569.00,2.08
4568.00,2.09
4567.00,2.09
4566.00,2.09
4565.00,2.10
4564.00,2.10
4563.00,2.10
4562.00,2.10
4561.00,2.11
4560.00,2.11
4559.00,2.11
4558.00,2.11
4557.00,2.11
4556.00,2.11
4555.00,2.11
4554.00,2.11
4553.00,2.11
4552.00,2.11
4551.00,2.11
4550.00,2.11
4549.00,2.11
4548.00,2.11
4547.00,2.11
4546.00,2.11
4545.00,2.11
4544.00,2.11
4543.00,2.11
4542.00,2.11
4541.00,2.11
4540.00,2.10
4539.00,2.10
4538.00,2.10
4537.00,2.09
4536.00,2.09
4535.00,2.09
4534.00,2.09
4533.00,2.09
4532.00,2.09
4531.00,2.09
4530.00,2.09
4529.00,2.09
4528.00,2.08
4527.00,2.08
4526.00,2.08
4525.00,2.08
4524.00,2.08
4523.00,2.08
4522.00,2.08
4521.00,2.08
4520.00,2.08
4519.00,2.07
4518.00,2.07
4517.00,2.07
4516.00,2.07
4515.00,2.07
4514.00,2.07
4513.00,2.07
4512.00,2.07
4511.00,2.08
4510.00,2.08
4509.00,2.08
4508.00,2.08
4507.00,2.08
4506.00,2.08
4505.00,2.08
4504.00,2.07
4503.00,2.07
4502.00,2.07
4501.00,2.07
4500.00,2.08
4499.00,2.08
4498.00,2.08
4497.00,2.08
4496.00,2.09
4495.00,2.09
4494.00,2.09
4493.00,2.09
4492.00,2.10
4491.00,2.10
4490.00,2.10
4489.00,2.10
4488.00,2.11
4487.00,2.11
4486.00,2.11
4485.00,2.12
4484.00,2.12
4483.00,2.12
4482.00,2.13
4481.00,2.13
4480.00,2.14
4479.00,2.15
4478.00,2.15
4477.00,2.16
4476.00,2.16
4475.00,2.16
4474.00,2.17
4473.00,2.17
4472.00,2.17
4471.00,2.17
4470.00,2.17
4469.00,2.17
4468.00,2.17
4467.00,2.17
4466.00,2.16
4465.00,2.16
4464.00,2.16
4463.00,2.16
4462.00,2.15
4461.00,2.15
4460.00,2.15
4459.00,2.14
4458.00,2.14
4457.00,2.13
4456.00,2.13
4455.00,2.12
4454.00,2.11
4453.00,2.11
4452.00,2.10
4451.00,2.10
4450.00,2.09
4449.00,2.08
4448.00,2.08
4447.00,2.07
4446.00,2.07
4445.00,2.06
4444.00,2.05
4443.00,2.05
4442.00,2.04
4441.00,2.04
4440.00,2.03
4439.00,2.03
4438.00,2.03
4437.00,2.02
4436.00,2.02
4435.00,2.02
4434.00,2.01
4433.00,2.01
4432.00,2.01
4431.00,2.01
4430.00,2.01
4429.00,2.01
4428.00,2.00
4427.00,2.00
4426.00,2.00
4425.00,2.00
4424.00,2.00
4423.00,2.00
4422.00,2.00
4421.00,2.00
4420.00,2.00
4419.00,2.01
4418.00,2.01
4417.00,2.02
4416.00,2.02
4415.00,2.03
4414.00,2.03
4413.00,2.04
4412.00,2.04
4411.00,2.04
4410.00,2.04
4409.00,2.04
4408.00,2.04
4407.00,2.05
4406.00,2.05
4405.00,2.05
4404.00,2.04
4403.00,2.04
4402.00,2.04
4401.00,2.04
4400.00,2.05
4399.00,2.05
4398.00,2.05
4397.00,2.05
4396.00,2.05
4395.00,2.05
4394.00,2.05
4393.00,2.05
4392.00,2.05
4391.00,2.05
4390.00,2.04
4389.00,2.04
4388.00,2.04
4387.00,2.04
4386.00,2.03
4385.00,2.03
4384.00,2.03
4383.00,2.03
4382.00,2.03
4381.00,2.04
4380.00,2.04
4379.00,2.04
4378.00,2.05
4377.00,2.05
4376.00,2.05
4375.00,2.06
4374.00,2.06
4373.00,2.06
4372.00,2.06
4371.00,2.06
4370.00,2.05
4369.00,2.05
4368.00,2.05
4367.00,2.05
4366.00,2.05
4365.00,2.05
4364.00,2.05
4363.00,2.05
4362.00,2.04
4361.00,2.04
4360.00,2.04
4359.00,2.03
4358.00,2.03
4357.00,2.02
4356.00,2.02
4355.00,2.01
4354.00,2.00
4353.00,2.00
4352.00,1.99
4351.00,1.98
4350.00,1.97
4349.00,1.96
4348.00,1.95
4347.00,1.94
4346.00,1.93
4345.00,1.93
4344.00,1.92
4343.00,1.91
4342.00,1.90
4341.00,1.89
4340.00,1.89
4339.00,1.88
4338.00,1.87
4337.00,1.86
4336.00,1.86
4335.00,1.86
4334.00,1.86
4333.00,1.86
4332.00,1.85
4331.00,1.85
4330.00,1.85
4329.00,1.85
4328.00,1.85
4327.00,1.86
4326.00,1.86
4325.00,1.86
4324.00,1.86
4323.00,1.86
4322.00,1.87
4321.00,1.87
4320.00,1.87
4319.00,1.87
4318.00,1.87
4317.00,1.87
4316.00,1.87
4315.00,1.88
4314.00,1.88
4313.00,1.88
4312.00,1.88
4311.00,1.89
4310.00,1.89
4309.00,1.89
4308.00,1.88
4307.00,1.88
4306.00,1.88
4305.00,1.88
4304.00,1.87
4303.00,1.87
4302.00,1.87
4301.00,1.87
4300.00,1.87
4299.00,1.86
4298.00,1.86
4297.00,1.86
4296.00,1.86
4295.00,1.86
4294.00,1.86
4293.00,1.86
4292.00,1.86
4291.00,1.86
4290.00,1.86
4289.00,1.86
4288.00,1.86
4287.00,1.86
4286.00,1.86
4285.00,1.87
4284.00,1.87
4283.00,1.87
4282.00,1.87
4281.00,1.87
4280.00,1.88
4279.00,1.88
4278.00,1.88
4277.00,1.89
4276.00,1.89
4275.00,1.89
4274.00,1.89
4273.00,1.89
4272.00,1.89
4271.00,1.89
4270.00,1.89
4269.00,1.89
4268.00,1.90
4267.00,1.90
4266.00,1.90
4265.00,1.90
4264.00,1.91
4263.00,1.91
4262.00,1.91
4261.00,1.91
4260.00,1.91
4259.00,1.91
4258.00,1.91
4257.00,1.91
4256.00,1.91
4255.00,1.91
4254.00,1.91
4253.00,1.91
4252.00,1.92
4251.00,1.92
4250.00,1.92
4249.00,1.92
4248.00,1.92
4247.00,1.93
4246.00,1.93
4245.00,1.93
4244.00,1.93
4243.00,1.93
4242.00,1.93
4241.00,1.93
4240.00,1.93
4239.00,1.93
4238.00,1.93
4237.00,1.94
4236.00,1.94
4235.00,1.95
4234.00,1.95
4233.00,1.96
4232.00,1.96
4231.00,1.97
4230.00,1.97
4229.00,1.98
4228.00,1.98
4227.00,1.99
4226.00,1.99
4225.00,2.00
4224.00,2.00
4223.00,2.01
4222.00,2.01
4221.00,2.02
4220.00,2.02
4219.00,2.03
4218.00,2.04
4217.00,2.04
4216.00,2.05
4215.00,2.05
4214.00,2.06
4213.00,2.06
4212.00,2.07
4211.00,2.07
4210.00,2.07
4209.00,2.07
4208.00,2.07
4207.00,2.07
4206.00,2.07
4205.00,2.07
4204.00,2.07
4203.00,2.06
4202.00,2.06
4201.00,2.05
4200.00,2.05
4199.00,2.04
4198.00,2.03
4197.00,2.02
4196.00,2.02
4195.00,2.01
4194.00,2.00
4193.00,1.99
4192.00,1.99
4191.00,1.98
4190.00,1.98
4189.00,1.97
4188.00,1.96
4187.00,1.95
4186.00,1.95
4185.00,1.94
4184.00,1.93
4183.00,1.92
4182.00,1.92
4181.00,1.91
4180.00,1.91
4179.00,1.90
4178.00,1.90
4177.00,1.89
4176.00,1.89
4175.00,1.89
4174.00,1.90
4173.00,1.90
4172.00,1.90
4171.00,1.90
4170.00,1.91
4169.00,1.91
4168.00,1.91
4167.00,1.91
4166.00,1.91
4165.00,1.91
4164.00,1.91
4163.00,1.90
4162.00,1.90
4161.00,1.90
4160.00,1.90
4159.00,1.89
4158.00,1.89
4157.00,1.89
4156.00,1.88
4155.00,1.88
4154.00,1.88
4153.00,1.88
4152.00,1.88
4151.00,1.88
4150.00,1.87
4149.00,1.87
4148.00,1.87
4147.00,1.86
4146.00,1.86
4145.00,1.86
4144.00,1.85
4143.00,1.85
4142.00,1.85
4141.00,1.85
4140.00,1.85
4139.00,1.85
4138.00,1.85
4137.00,1.86
4136.00,1.87
4135.00,1.87
4134.00,1.88
4133.00,1.89
4132.00,1.90
4131.00,1.91
4130.00,1.92
4129.00,1.93
4128.00,1.94
4127.00,1.95
4126.00,1.96
4125.00,1.96
4124.00,1.97
4123.00,1.97
4122.00,1.97
4121.00,1.98
4120.00,1.98
4119.00,1.98
4118.00,1.99
4117.00,1.99
4116.00,1.99
4115.00,1.99
4114.00,2.00
4113.00,2.00
4112.00,2.00
4111.00,2.00
4110.00,2.00
4109.00,2.00
4108.00,2.00
4107.00,2.00
4106.00,2.00
4105.00,2.00
4104.00,2.00
4103.00,2.00
4102.00,2.00
4101.00,2.00
4100.00,2.00
4099.00,2.00
4098.00,2.01
4097.00,2.01
4096.00,2.02
4095.00,2.03
4094.00,2.03
4093.00,2.04
4092.00,2.05
4091.00,2.06
4090.00,2.06
4089.00,2.07
4088.00,2.08
4087.00,2.08
4086.00,2.09
4085.00,2.09
4084.00,2.09
4083.00,2.10
4082.00,2.10
4081.00,2.10
4080.00,2.10
4079.00,2.10
4078.00,2.09
4077.00,2.09
4076.00,2.09
4075.00,2.08
4074.00,2.08
4073.00,2.07
4072.00,2.07
4071.00,2.06
4070.00,2.05
4069.00,2.04
4068.00,2.03
4067.00,2.02
4066.00,2.01
4065.00,2.00
4064.00,1.99
4063.00,1.98
4062.00,1.97
4061.00,1.96
4060.00,1.95
4059.00,1.94
4058.00,1.93
4057.00,1.92
4056.00,1.91
4055.00,1.90
4054.00,1.90
4053.00,1.90
4052.00,1.89
4051.00,1.89
4050.00,1.89
4049.00,1.89
4048.00,1.89
4047.00,1.89
4046.00,1.90
4045.00,1.90
4044.00,1.91
4043.00,1.91
4042.00,1.92
4041.00,1.93
4040.00,1.93
4039.00,1.94
4038.00,1.96
4037.00,1.97
4036.00,1.98
4035.00,2.00
4034.00,2.01
4033.00,2.02
4032.00,2.03
4031.00,2.04
4030.00,2.06
4029.00,2.07
4028.00,2.08
4027.00,2.10
4026.00,2.11
4025.00,2.12
4024.00,2.14
4023.00,2.14
4022.00,2.15
4021.00,2.16
4020.00,2.16
4019.00,2.16
4018.00,2.17
4017.00,2.17
4016.00,2.17
4015.00,2.18
4014.00,2.18
4013.00,2.18
4012.00,2.18
4011.00,2.18
4010.00,2.17
4009.00,2.17
4008.00,2.17
4007.00,2.17
4006.00,2.17
4005.00,2.17
4004.00,2.17
4003.00,2.17
4002.00,2.16
4001.00,2.15
4000.00,2.14
