创建为新数据集,样品 1145 用户 Administrator 日期 星期二, 七月 30 2019
cm-1,%T
10000.00,0.18
9999.00,0.35
9998.00,0.53
9997.00,0.71
9996.00,0.89
9995.00,1.06
9994.00,1.23
9993.00,1.39
9992.00,1.54
9991.00,1.69
9990.00,1.83
9989.00,1.96
9988.00,2.07
9987.00,2.18
9986.00,2.27
9985.00,2.35
9984.00,2.42
9983.00,2.47
9982.00,2.52
9981.00,2.55
9980.00,2.58
9979.00,2.60
9978.00,2.62
9977.00,2.62
9976.00,2.63
9975.00,2.62
9974.00,2.62
9973.00,2.61
9972.00,2.60
9971.00,2.59
9970.00,2.57
9969.00,2.55
9968.00,2.52
9967.00,2.50
9966.00,2.47
9965.00,2.45
9964.00,2.42
9963.00,2.40
9962.00,2.37
9961.00,2.35
9960.00,2.32
9959.00,2.30
9958.00,2.28
9957.00,2.27
9956.00,2.25
9955.00,2.24
9954.00,2.23
9953.00,2.21
9952.00,2.20
9951.00,2.19
9950.00,2.18
9949.00,2.17
9948.00,2.16
9947.00,2.15
9946.00,2.14
9945.00,2.13
9944.00,2.12
9943.00,2.12
9942.00,2.11
9941.00,2.11
9940.00,2.11
9939.00,2.11
9938.00,2.11
9937.00,2.11
9936.00,2.12
9935.00,2.12
9934.00,2.13
9933.00,2.13
9932.00,2.14
9931.00,2.15
9930.00,2.16
9929.00,2.17
9928.00,2.18
9927.00,2.18
9926.00,2.19
9925.00,2.20
9924.00,2.20
9923.00,2.20
9922.00,2.20
9921.00,2.20
9920.00,2.20
9919.00,2.19
9918.00,2.19
9917.00,2.18
9916.00,2.18
9915.00,2.17
9914.00,2.16
9913.00,2.14
9912.00,2.13
9911.00,2.11
9910.00,2.09
9909.00,2.07
9908.00,2.04
9907.00,2.02
9906.00,1.99
9905.00,1.96
9904.00,1.94
9903.00,1.91
9902.00,1.88
9901.00,1.86
9900.00,1.83
9899.00,1.81
9898.00,1.79
9897.00,1.76
9896.00,1.74
9895.00,1.72
9894.00,1.70
9893.00,1.69
9892.00,1.67
9891.00,1.65
9890.00,1.64
9889.00,1.63
9888.00,1.61
9887.00,1.61
9886.00,1.60
9885.00,1.60
9884.00,1.60
9883.00,1.60
9882.00,1.61
9881.00,1.62
9880.00,1.63
9879.00,1.64
9878.00,1.65
9877.00,1.66
9876.00,1.67
9875.00,1.67
9874.00,1.68
9873.00,1.69
9872.00,1.70
9871.00,1.71
9870.00,1.73
9869.00,1.74
9868.00,1.75
9867.00,1.77
9866.00,1.79
9865.00,1.80
9864.00,1.82
9863.00,1.83
9862.00,1.85
9861.00,1.86
9860.00,1.86
9859.00,1.87
9858.00,1.87
9857.00,1.87
9856.00,1.87
9855.00,1.86
9854.00,1.86
9853.00,1.85
9852.00,1.84
9851.00,1.84
9850.00,1.83
9849.00,1.82
9848.00,1.81
9847.00,1.81
9846.00,1.80
9845.00,1.79
9844.00,1.78
9843.00,1.77
9842.00,1.76
9841.00,1.75
9840.00,1.74
9839.00,1.73
9838.00,1.72
9837.00,1.71
9836.00,1.71
9835.00,1.70
9834.00,1.70
9833.00,1.70
9832.00,1.70
9831.00,1.70
9830.00,1.71
9829.00,1.71
9828.00,1.72
9827.00,1.73
9826.00,1.74
9825.00,1.75
9824.00,1.76
9823.00,1.78
9822.00,1.79
9821.00,1.81
9820.00,1.83
9819.00,1.84
9818.00,1.86
9817.00,1.88
9816.00,1.90
9815.00,1.91
9814.00,1.93
9813.00,1.94
9812.00,1.95
9811.00,1.96
9810.00,1.97
9809.00,1.97
9808.00,1.97
9807.00,1.97
9806.00,1.97
9805.00,1.97
9804.00,1.97
9803.00,1.96
9802.00,1.95
9801.00,1.94
9800.00,1.93
9799.00,1.92
9798.00,1.91
9797.00,1.89
9796.00,1.87
9795.00,1.85
9794.00,1.82
9793.00,1.80
9792.00,1.77
9791.00,1.74
9790.00,1.71
9789.00,1.67
9788.00,1.64
9787.00,1.61
9786.00,1.58
9785.00,1.55
9784.00,1.53
9783.00,1.50
9782.00,1.49
9781.00,1.47
9780.00,1.45
9779.00,1.44
9778.00,1.43
9777.00,1.42
9776.00,1.41
9775.00,1.41
9774.00,1.40
9773.00,1.40
9772.00,1.40
9771.00,1.40
9770.00,1.40
9769.00,1.41
9768.00,1.42
9767.00,1.44
9766.00,1.46
9765.00,1.48
9764.00,1.51
9763.00,1.54
9762.00,1.57
9761.00,1.60
9760.00,1.64
9759.00,1.67
9758.00,1.70
9757.00,1.74
9756.00,1.77
9755.00,1.80
9754.00,1.82
9753.00,1.85
9752.00,1.87
9751.00,1.90
9750.00,1.92
9749.00,1.95
9748.00,1.97
9747.00,2.00
9746.00,2.02
9745.00,2.05
9744.00,2.08
9743.00,2.10
9742.00,2.12
9741.00,2.14
9740.00,2.16
9739.00,2.18
9738.00,2.19
9737.00,2.20
9736.00,2.20
9735.00,2.21
9734.00,2.21
9733.00,2.21
9732.00,2.21
9731.00,2.20
9730.00,2.20
9729.00,2.19
9728.00,2.18
9727.00,2.17
9726.00,2.15
9725.00,2.14
9724.00,2.12
9723.00,2.11
9722.00,2.09
9721.00,2.07
9720.00,2.04
9719.00,2.02
9718.00,1.99
9717.00,1.95
9716.00,1.92
9715.00,1.88
9714.00,1.85
9713.00,1.81
9712.00,1.77
9711.00,1.73
9710.00,1.69
9709.00,1.65
9708.00,1.62
9707.00,1.58
9706.00,1.55
9705.00,1.52
9704.00,1.49
9703.00,1.47
9702.00,1.44
9701.00,1.42
9700.00,1.41
9699.00,1.40
9698.00,1.39
9697.00,1.38
9696.00,1.38
9695.00,1.38
9694.00,1.38
9693.00,1.38
9692.00,1.39
9691.00,1.40
9690.00,1.41
9689.00,1.42
9688.00,1.44
9687.00,1.46
9686.00,1.48
9685.00,1.50
9684.00,1.52
9683.00,1.54
9682.00,1.57
9681.00,1.59
9680.00,1.61
9679.00,1.64
9678.00,1.66
9677.00,1.68
9676.00,1.70
9675.00,1.72
9674.00,1.73
9673.00,1.74
9672.00,1.75
9671.00,1.76
9670.00,1.76
9669.00,1.76
9668.00,1.76
9667.00,1.75
9666.00,1.75
9665.00,1.74
9664.00,1.74
9663.00,1.73
9662.00,1.72
9661.00,1.71
9660.00,1.70
9659.00,1.68
9658.00,1.67
9657.00,1.65
9656.00,1.63
9655.00,1.61
9654.00,1.59
9653.00,1.58
9652.00,1.56
9651.00,1.54
9650.00,1.53
9649.00,1.51
9648.00,1.50
9647.00,1.49
9646.00,1.48
9645.00,1.47
9644.00,1.46
9643.00,1.45
9642.00,1.43
9641.00,1.42
9640.00,1.41
9639.00,1.40
9638.00,1.39
9637.00,1.38
9636.00,1.37
9635.00,1.36
9634.00,1.35
9633.00,1.35
9632.00,1.34
9631.00,1.35
9630.00,1.35
9629.00,1.36
9628.00,1.36
9627.00,1.37
9626.00,1.38
9625.00,1.39
9624.00,1.40
9623.00,1.41
9622.00,1.42
9621.00,1.44
9620.00,1.45
9619.00,1.47
9618.00,1.49
9617.00,1.51
9616.00,1.53
9615.00,1.56
9614.00,1.58
9613.00,1.61
9612.00,1.63
9611.00,1.66
9610.00,1.68
9609.00,1.71
9608.00,1.73
9607.00,1.75
9606.00,1.77
9605.00,1.78
9604.00,1.80
9603.00,1.81
9602.00,1.82
9601.00,1.82
9600.00,1.83
9599.00,1.84
9598.00,1.84
9597.00,1.85
9596.00,1.85
9595.00,1.85
9594.00,1.86
9593.00,1.86
9592.00,1.86
9591.00,1.87
9590.00,1.87
9589.00,1.87
9588.00,1.87
9587.00,1.87
9586.00,1.87
9585.00,1.87
9584.00,1.88
9583.00,1.88
9582.00,1.88
9581.00,1.87
9580.00,1.87
9579.00,1.87
9578.00,1.86
9577.00,1.86
9576.00,1.85
9575.00,1.84
9574.00,1.83
9573.00,1.82
9572.00,1.81
9571.00,1.80
9570.00,1.78
9569.00,1.77
9568.00,1.75
9567.00,1.74
9566.00,1.72
9565.00,1.70
9564.00,1.68
9563.00,1.67
9562.00,1.65
9561.00,1.63
9560.00,1.61
9559.00,1.59
9558.00,1.58
9557.00,1.56
9556.00,1.55
9555.00,1.54
9554.00,1.54
9553.00,1.53
9552.00,1.53
9551.00,1.53
9550.00,1.54
9549.00,1.54
9548.00,1.55
9547.00,1.55
9546.00,1.56
9545.00,1.56
9544.00,1.56
9543.00,1.56
9542.00,1.55
9541.00,1.55
9540.00,1.54
9539.00,1.53
9538.00,1.52
9537.00,1.50
9536.00,1.49
9535.00,1.47
9534.00,1.46
9533.00,1.44
9532.00,1.42
9531.00,1.41
9530.00,1.39
9529.00,1.37
9528.00,1.35
9527.00,1.33
9526.00,1.31
9525.00,1.30
9524.00,1.28
9523.00,1.26
9522.00,1.24
9521.00,1.23
9520.00,1.22
9519.00,1.20
9518.00,1.20
9517.00,1.19
9516.00,1.19
9515.00,1.19
9514.00,1.20
9513.00,1.21
9512.00,1.22
9511.00,1.23
9510.00,1.25
9509.00,1.27
9508.00,1.29
9507.00,1.31
9506.00,1.33
9505.00,1.35
9504.00,1.37
9503.00,1.39
9502.00,1.40
9501.00,1.41
9500.00,1.42
9499.00,1.43
9498.00,1.43
9497.00,1.44
9496.00,1.44
9495.00,1.45
9494.00,1.45
9493.00,1.46
9492.00,1.46
9491.00,1.47
9490.00,1.47
9489.00,1.48
9488.00,1.48
9487.00,1.48
9486.00,1.48
9485.00,1.49
9484.00,1.49
9483.00,1.49
9482.00,1.49
9481.00,1.49
9480.00,1.49
9479.00,1.50
9478.00,1.50
9477.00,1.51
9476.00,1.52
9475.00,1.53
9474.00,1.54
9473.00,1.56
9472.00,1.58
9471.00,1.59
9470.00,1.61
9469.00,1.63
9468.00,1.64
9467.00,1.65
9466.00,1.67
9465.00,1.68
9464.00,1.69
9463.00,1.70
9462.00,1.70
9461.00,1.71
9460.00,1.72
9459.00,1.73
9458.00,1.74
9457.00,1.74
9456.00,1.75
9455.00,1.76
9454.00,1.76
9453.00,1.77
9452.00,1.77
9451.00,1.77
9450.00,1.77
9449.00,1.77
9448.00,1.77
9447.00,1.76
9446.00,1.76
9445.00,1.75
9444.00,1.75
9443.00,1.74
9442.00,1.74
9441.00,1.74
9440.00,1.74
9439.00,1.74
9438.00,1.74
9437.00,1.75
9436.00,1.75
9435.00,1.75
9434.00,1.75
9433.00,1.75
9432.00,1.75
9431.00,1.74
9430.00,1.73
9429.00,1.72
9428.00,1.71
9427.00,1.69
9426.00,1.68
9425.00,1.66
9424.00,1.65
9423.00,1.64
9422.00,1.63
9421.00,1.62
9420.00,1.61
9419.00,1.60
9418.00,1.58
9417.00,1.57
9416.00,1.56
9415.00,1.54
9414.00,1.53
9413.00,1.51
9412.00,1.49
9411.00,1.47
9410.00,1.46
9409.00,1.44
9408.00,1.43
9407.00,1.42
9406.00,1.42
9405.00,1.42
9404.00,1.42
9403.00,1.43
9402.00,1.43
9401.00,1.44
9400.00,1.46
9399.00,1.47
9398.00,1.48
9397.00,1.50
9396.00,1.51
9395.00,1.53
9394.00,1.54
9393.00,1.56
9392.00,1.57
9391.00,1.59
9390.00,1.61
9389.00,1.63
9388.00,1.65
9387.00,1.66
9386.00,1.68
9385.00,1.70
9384.00,1.72
9383.00,1.73
9382.00,1.74
9381.00,1.75
9380.00,1.76
9379.00,1.76
9378.00,1.76
9377.00,1.76
9376.00,1.75
9375.00,1.75
9374.00,1.74
9373.00,1.74
9372.00,1.73
9371.00,1.73
9370.00,1.73
9369.00,1.72
9368.00,1.72
9367.00,1.72
9366.00,1.72
9365.00,1.71
9364.00,1.70
9363.00,1.69
9362.00,1.68
9361.00,1.67
9360.00,1.66
9359.00,1.65
9358.00,1.64
9357.00,1.62
9356.00,1.61
9355.00,1.60
9354.00,1.59
9353.00,1.58
9352.00,1.57
9351.00,1.57
9350.00,1.56
9349.00,1.56
9348.00,1.56
9347.00,1.56
9346.00,1.56
9345.00,1.56
9344.00,1.55
9343.00,1.55
9342.00,1.54
9341.00,1.54
9340.00,1.53
9339.00,1.52
9338.00,1.52
9337.00,1.51
9336.00,1.51
9335.00,1.50
9334.00,1.50
9333.00,1.50
9332.00,1.49
9331.00,1.50
9330.00,1.50
9329.00,1.50
9328.00,1.50
9327.00,1.51
9326.00,1.51
9325.00,1.51
9324.00,1.51
9323.00,1.51
9322.00,1.51
9321.00,1.50
9320.00,1.49
9319.00,1.49
9318.00,1.48
9317.00,1.47
9316.00,1.47
9315.00,1.47
9314.00,1.47
9313.00,1.47
9312.00,1.47
9311.00,1.48
9310.00,1.49
9309.00,1.50
9308.00,1.51
9307.00,1.52
9306.00,1.53
9305.00,1.54
9304.00,1.55
9303.00,1.56
9302.00,1.57
9301.00,1.58
9300.00,1.59
9299.00,1.60
9298.00,1.61
9297.00,1.62
9296.00,1.63
9295.00,1.64
9294.00,1.66
9293.00,1.67
9292.00,1.68
9291.00,1.69
9290.00,1.69
9289.00,1.69
9288.00,1.69
9287.00,1.68
9286.00,1.67
9285.00,1.66
9284.00,1.64
9283.00,1.63
9282.00,1.61
9281.00,1.59
9280.00,1.57
9279.00,1.55
9278.00,1.53
9277.00,1.51
9276.00,1.49
9275.00,1.48
9274.00,1.46
9273.00,1.44
9272.00,1.42
9271.00,1.41
9270.00,1.39
9269.00,1.38
9268.00,1.36
9267.00,1.34
9266.00,1.33
9265.00,1.32
9264.00,1.31
9263.00,1.31
9262.00,1.31
9261.00,1.31
9260.00,1.32
9259.00,1.33
9258.00,1.34
9257.00,1.35
9256.00,1.36
9255.00,1.37
9254.00,1.38
9253.00,1.39
9252.00,1.40
9251.00,1.40
9250.00,1.41
9249.00,1.41
9248.00,1.42
9247.00,1.42
9246.00,1.43
9245.00,1.43
9244.00,1.44
9243.00,1.44
9242.00,1.44
9241.00,1.45
9240.00,1.45
9239.00,1.45
9238.00,1.45
9237.00,1.45
9236.00,1.44
9235.00,1.44
9234.00,1.43
9233.00,1.42
9232.00,1.41
9231.00,1.41
9230.00,1.40
9229.00,1.40
9228.00,1.40
9227.00,1.40
9226.00,1.40
9225.00,1.40
9224.00,1.41
9223.00,1.41
9222.00,1.42
9221.00,1.43
9220.00,1.43
9219.00,1.44
9218.00,1.45
9217.00,1.46
9216.00,1.47
9215.00,1.48
9214.00,1.49
9213.00,1.50
9212.00,1.52
9211.00,1.53
9210.00,1.55
9209.00,1.57
9208.00,1.58
9207.00,1.60
9206.00,1.62
9205.00,1.63
9204.00,1.65
9203.00,1.66
9202.00,1.67
9201.00,1.68
9200.00,1.69
9199.00,1.70
9198.00,1.70
9197.00,1.70
9196.00,1.70
9195.00,1.70
9194.00,1.70
9193.00,1.69
9192.00,1.69
9191.00,1.68
9190.00,1.67
9189.00,1.66
9188.00,1.65
9187.00,1.64
9186.00,1.63
9185.00,1.62
9184.00,1.60
9183.00,1.59
9182.00,1.58
9181.00,1.56
9180.00,1.55
9179.00,1.53
9178.00,1.52
9177.00,1.51
9176.00,1.50
9175.00,1.49
9174.00,1.48
9173.00,1.48
9172.00,1.47
9171.00,1.48
9170.00,1.48
9169.00,1.49
9168.00,1.50
9167.00,1.51
9166.00,1.52
9165.00,1.54
9164.00,1.55
9163.00,1.57
9162.00,1.59
9161.00,1.61
9160.00,1.64
9159.00,1.66
9158.00,1.68
9157.00,1.71
9156.00,1.73
9155.00,1.76
9154.00,1.78
9153.00,1.81
9152.00,1.83
9151.00,1.85
9150.00,1.88
9149.00,1.90
9148.00,1.92
9147.00,1.93
9146.00,1.95
9145.00,1.96
9144.00,1.97
9143.00,1.98
9142.00,1.98
9141.00,1.99
9140.00,1.99
9139.00,1.98
9138.00,1.98
9137.00,1.97
9136.00,1.96
9135.00,1.95
9134.00,1.94
9133.00,1.92
9132.00,1.90
9131.00,1.88
9130.00,1.85
9129.00,1.83
9128.00,1.80
9127.00,1.78
9126.00,1.75
9125.00,1.73
9124.00,1.70
9123.00,1.68
9122.00,1.66
9121.00,1.64
9120.00,1.62
9119.00,1.60
9118.00,1.58
9117.00,1.56
9116.00,1.54
9115.00,1.52
9114.00,1.51
9113.00,1.49
9112.00,1.48
9111.00,1.46
9110.00,1.45
9109.00,1.43
9108.00,1.42
9107.00,1.41
9106.00,1.41
9105.00,1.40
9104.00,1.39
9103.00,1.39
9102.00,1.38
9101.00,1.38
9100.00,1.37
9099.00,1.37
9098.00,1.37
9097.00,1.36
9096.00,1.36
9095.00,1.36
9094.00,1.36
9093.00,1.36
9092.00,1.37
9091.00,1.37
9090.00,1.37
9089.00,1.37
9088.00,1.38
9087.00,1.38
9086.00,1.39
9085.00,1.39
9084.00,1.40
9083.00,1.41
9082.00,1.42
9081.00,1.43
9080.00,1.45
9079.00,1.47
9078.00,1.49
9077.00,1.51
9076.00,1.53
9075.00,1.56
9074.00,1.59
9073.00,1.62
9072.00,1.64
9071.00,1.67
9070.00,1.69
9069.00,1.72
9068.00,1.74
9067.00,1.76
9066.00,1.78
9065.00,1.80
9064.00,1.82
9063.00,1.84
9062.00,1.86
9061.00,1.88
9060.00,1.90
9059.00,1.92
9058.00,1.94
9057.00,1.96
9056.00,1.98
9055.00,1.99
9054.00,2.00
9053.00,2.01
9052.00,2.01
9051.00,2.01
9050.00,2.01
9049.00,2.00
9048.00,1.99
9047.00,1.97
9046.00,1.96
9045.00,1.94
9044.00,1.93
9043.00,1.91
9042.00,1.90
9041.00,1.88
9040.00,1.87
9039.00,1.86
9038.00,1.84
9037.00,1.83
9036.00,1.81
9035.00,1.80
9034.00,1.79
9033.00,1.77
9032.00,1.76
9031.00,1.75
9030.00,1.74
9029.00,1.73
9028.00,1.72
9027.00,1.71
9026.00,1.71
9025.00,1.71
9024.00,1.71
9023.00,1.72
9022.00,1.73
9021.00,1.74
9020.00,1.75
9019.00,1.76
9018.00,1.77
9017.00,1.78
9016.00,1.79
9015.00,1.80
9014.00,1.80
9013.00,1.81
9012.00,1.82
9011.00,1.82
9010.00,1.83
9009.00,1.83
9008.00,1.84
9007.00,1.84
9006.00,1.84
9005.00,1.85
9004.00,1.85
9003.00,1.85
9002.00,1.85
9001.00,1.84
9000.00,1.84
8999.00,1.83
8998.00,1.82
8997.00,1.81
8996.00,1.79
8995.00,1.78
8994.00,1.76
8993.00,1.74
8992.00,1.73
8991.00,1.71
8990.00,1.69
8989.00,1.67
8988.00,1.65
8987.00,1.63
8986.00,1.61
8985.00,1.59
8984.00,1.57
8983.00,1.55
8982.00,1.52
8981.00,1.50
8980.00,1.48
8979.00,1.45
8978.00,1.43
8977.00,1.40
8976.00,1.38
8975.00,1.36
8974.00,1.34
8973.00,1.32
8972.00,1.31
8971.00,1.30
8970.00,1.29
8969.00,1.28
8968.00,1.27
8967.00,1.27
8966.00,1.27
8965.00,1.26
8964.00,1.26
8963.00,1.26
8962.00,1.26
8961.00,1.26
8960.00,1.27
8959.00,1.27
8958.00,1.27
8957.00,1.27
8956.00,1.28
8955.00,1.29
8954.00,1.29
8953.00,1.30
8952.00,1.31
8951.00,1.32
8950.00,1.32
8949.00,1.33
8948.00,1.34
8947.00,1.34
8946.00,1.35
8945.00,1.35
8944.00,1.36
8943.00,1.36
8942.00,1.37
8941.00,1.38
8940.00,1.39
8939.00,1.39
8938.00,1.40
8937.00,1.42
8936.00,1.43
8935.00,1.44
8934.00,1.45
8933.00,1.46
8932.00,1.48
8931.00,1.49
8930.00,1.50
8929.00,1.52
8928.00,1.53
8927.00,1.54
8926.00,1.56
8925.00,1.57
8924.00,1.59
8923.00,1.60
8922.00,1.62
8921.00,1.64
8920.00,1.66
8919.00,1.68
8918.00,1.69
8917.00,1.71
8916.00,1.73
8915.00,1.75
8914.00,1.76
8913.00,1.78
8912.00,1.79
8911.00,1.80
8910.00,1.82
8909.00,1.83
8908.00,1.84
8907.00,1.85
8906.00,1.87
8905.00,1.88
8904.00,1.89
8903.00,1.90
8902.00,1.92
8901.00,1.93
8900.00,1.93
8899.00,1.94
8898.00,1.95
8897.00,1.95
8896.00,1.96
8895.00,1.96
8894.00,1.96
8893.00,1.96
8892.00,1.96
8891.00,1.96
8890.00,1.96
8889.00,1.96
8888.00,1.95
8887.00,1.94
8886.00,1.93
8885.00,1.92
8884.00,1.90
8883.00,1.89
8882.00,1.87
8881.00,1.85
8880.00,1.83
8879.00,1.81
8878.00,1.79
8877.00,1.77
8876.00,1.75
8875.00,1.73
8874.00,1.71
8873.00,1.69
8872.00,1.68
8871.00,1.66
8870.00,1.64
8869.00,1.62
8868.00,1.61
8867.00,1.59
8866.00,1.57
8865.00,1.55
8864.00,1.53
8863.00,1.51
8862.00,1.50
8861.00,1.49
8860.00,1.48
8859.00,1.47
8858.00,1.47
8857.00,1.47
8856.00,1.47
8855.00,1.47
8854.00,1.48
8853.00,1.48
8852.00,1.49
8851.00,1.49
8850.00,1.49
8849.00,1.50
8848.00,1.50
8847.00,1.51
8846.00,1.52
8845.00,1.53
8844.00,1.54
8843.00,1.55
8842.00,1.56
8841.00,1.58
8840.00,1.60
8839.00,1.62
8838.00,1.64
8837.00,1.67
8836.00,1.69
8835.00,1.71
8834.00,1.74
8833.00,1.76
8832.00,1.78
8831.00,1.80
8830.00,1.82
8829.00,1.84
8828.00,1.85
8827.00,1.87
8826.00,1.88
8825.00,1.90
8824.00,1.91
8823.00,1.93
8822.00,1.94
8821.00,1.96
8820.00,1.97
8819.00,1.98
8818.00,1.99
8817.00,2.00
8816.00,2.00
8815.00,2.00
8814.00,2.00
8813.00,2.00
8812.00,1.99
8811.00,1.98
8810.00,1.97
8809.00,1.96
8808.00,1.95
8807.00,1.93
8806.00,1.92
8805.00,1.90
8804.00,1.88
8803.00,1.87
8802.00,1.85
8801.00,1.83
8800.00,1.82
8799.00,1.80
8798.00,1.78
8797.00,1.76
8796.00,1.74
8795.00,1.73
8794.00,1.71
8793.00,1.69
8792.00,1.67
8791.00,1.66
8790.00,1.64
8789.00,1.63
8788.00,1.61
8787.00,1.60
8786.00,1.59
8785.00,1.58
8784.00,1.57
8783.00,1.57
8782.00,1.56
8781.00,1.56
8780.00,1.55
8779.00,1.55
8778.00,1.54
8777.00,1.54
8776.00,1.53
8775.00,1.53
8774.00,1.52
8773.00,1.51
8772.00,1.50
8771.00,1.50
8770.00,1.49
8769.00,1.48
8768.00,1.48
8767.00,1.47
8766.00,1.46
8765.00,1.46
8764.00,1.45
8763.00,1.45
8762.00,1.44
8761.00,1.44
8760.00,1.43
8759.00,1.42
8758.00,1.41
8757.00,1.41
8756.00,1.40
8755.00,1.38
8754.00,1.37
8753.00,1.37
8752.00,1.36
8751.00,1.35
8750.00,1.34
8749.00,1.34
8748.00,1.34
8747.00,1.34
8746.00,1.34
8745.00,1.34
8744.00,1.35
8743.00,1.35
8742.00,1.35
8741.00,1.36
8740.00,1.36
8739.00,1.36
8738.00,1.36
8737.00,1.36
8736.00,1.36
8735.00,1.36
8734.00,1.36
8733.00,1.37
8732.00,1.37
8731.00,1.38
8730.00,1.38
8729.00,1.39
8728.00,1.40
8727.00,1.41
8726.00,1.42
8725.00,1.43
8724.00,1.43
8723.00,1.44
8722.00,1.44
8721.00,1.45
8720.00,1.45
8719.00,1.45
8718.00,1.45
8717.00,1.46
8716.00,1.46
8715.00,1.46
8714.00,1.47
8713.00,1.47
8712.00,1.48
8711.00,1.49
8710.00,1.50
8709.00,1.51
8708.00,1.52
8707.00,1.53
8706.00,1.54
8705.00,1.55
8704.00,1.56
8703.00,1.57
8702.00,1.58
8701.00,1.59
8700.00,1.60
8699.00,1.61
8698.00,1.62
8697.00,1.63
8696.00,1.64
8695.00,1.65
8694.00,1.66
8693.00,1.68
8692.00,1.69
8691.00,1.70
8690.00,1.71
8689.00,1.72
8688.00,1.72
8687.00,1.73
8686.00,1.74
8685.00,1.74
8684.00,1.75
8683.00,1.75
8682.00,1.75
8681.00,1.75
8680.00,1.75
8679.00,1.74
8678.00,1.74
8677.00,1.73
8676.00,1.72
8675.00,1.71
8674.00,1.70
8673.00,1.70
8672.00,1.69
8671.00,1.69
8670.00,1.68
8669.00,1.68
8668.00,1.67
8667.00,1.67
8666.00,1.66
8665.00,1.66
8664.00,1.66
8663.00,1.65
8662.00,1.65
8661.00,1.64
8660.00,1.64
8659.00,1.63
8658.00,1.63
8657.00,1.62
8656.00,1.62
8655.00,1.62
8654.00,1.62
8653.00,1.62
8652.00,1.62
8651.00,1.62
8650.00,1.62
8649.00,1.62
8648.00,1.62
8647.00,1.62
8646.00,1.61
8645.00,1.61
8644.00,1.61
8643.00,1.60
8642.00,1.59
8641.00,1.59
8640.00,1.58
8639.00,1.58
8638.00,1.58
8637.00,1.58
8636.00,1.58
8635.00,1.58
8634.00,1.59
8633.00,1.59
8632.00,1.60
8631.00,1.60
8630.00,1.61
8629.00,1.61
8628.00,1.62
8627.00,1.62
8626.00,1.63
8625.00,1.64
8624.00,1.64
8623.00,1.65
8622.00,1.66
8621.00,1.67
8620.00,1.68
8619.00,1.69
8618.00,1.70
8617.00,1.70
8616.00,1.71
8615.00,1.72
8614.00,1.72
8613.00,1.72
8612.00,1.72
8611.00,1.72
8610.00,1.71
8609.00,1.71
8608.00,1.70
8607.00,1.69
8606.00,1.68
8605.00,1.67
8604.00,1.67
8603.00,1.66
8602.00,1.65
8601.00,1.65
8600.00,1.64
8599.00,1.64
8598.00,1.63
8597.00,1.63
8596.00,1.63
8595.00,1.62
8594.00,1.62
8593.00,1.63
8592.00,1.63
8591.00,1.63
8590.00,1.64
8589.00,1.65
8588.00,1.65
8587.00,1.66
8586.00,1.67
8585.00,1.68
8584.00,1.69
8583.00,1.70
8582.00,1.71
8581.00,1.72
8580.00,1.73
8579.00,1.73
8578.00,1.74
8577.00,1.74
8576.00,1.74
8575.00,1.74
8574.00,1.74
8573.00,1.74
8572.00,1.74
8571.00,1.74
8570.00,1.73
8569.00,1.73
8568.00,1.73
8567.00,1.72
8566.00,1.71
8565.00,1.70
8564.00,1.69
8563.00,1.69
8562.00,1.68
8561.00,1.67
8560.00,1.66
8559.00,1.65
8558.00,1.64
8557.00,1.64
8556.00,1.63
8555.00,1.63
8554.00,1.63
8553.00,1.62
8552.00,1.62
8551.00,1.62
8550.00,1.62
8549.00,1.62
8548.00,1.61
8547.00,1.61
8546.00,1.60
8545.00,1.60
8544.00,1.59
8543.00,1.59
8542.00,1.58
8541.00,1.58
8540.00,1.58
8539.00,1.57
8538.00,1.57
8537.00,1.56
8536.00,1.56
8535.00,1.55
8534.00,1.54
8533.00,1.53
8532.00,1.52
8531.00,1.51
8530.00,1.50
8529.00,1.50
8528.00,1.49
8527.00,1.48
8526.00,1.48
8525.00,1.48
8524.00,1.48
8523.00,1.48
8522.00,1.48
8521.00,1.49
8520.00,1.49
8519.00,1.50
8518.00,1.51
8517.00,1.52
8516.00,1.52
8515.00,1.53
8514.00,1.54
8513.00,1.55
8512.00,1.56
8511.00,1.57
8510.00,1.59
8509.00,1.61
8508.00,1.62
8507.00,1.64
8506.00,1.66
8505.00,1.68
8504.00,1.70
8503.00,1.71
8502.00,1.73
8501.00,1.74
8500.00,1.76
8499.00,1.77
8498.00,1.78
8497.00,1.79
8496.00,1.79
8495.00,1.80
8494.00,1.81
8493.00,1.81
8492.00,1.82
8491.00,1.82
8490.00,1.83
8489.00,1.83
8488.00,1.84
8487.00,1.84
8486.00,1.85
8485.00,1.85
8484.00,1.85
8483.00,1.85
8482.00,1.85
8481.00,1.85
8480.00,1.85
8479.00,1.85
8478.00,1.85
8477.00,1.85
8476.00,1.85
8475.00,1.85
8474.00,1.84
8473.00,1.84
8472.00,1.84
8471.00,1.84
8470.00,1.83
8469.00,1.83
8468.00,1.83
8467.00,1.83
8466.00,1.83
8465.00,1.84
8464.00,1.84
8463.00,1.84
8462.00,1.84
8461.00,1.84
8460.00,1.85
8459.00,1.85
8458.00,1.84
8457.00,1.84
8456.00,1.84
8455.00,1.84
8454.00,1.84
8453.00,1.84
8452.00,1.83
8451.00,1.83
8450.00,1.84
8449.00,1.84
8448.00,1.84
8447.00,1.84
8446.00,1.85
8445.00,1.85
8444.00,1.86
8443.00,1.86
8442.00,1.86
8441.00,1.86
8440.00,1.86
8439.00,1.86
8438.00,1.85
8437.00,1.84
8436.00,1.83
8435.00,1.82
8434.00,1.81
8433.00,1.80
8432.00,1.79
8431.00,1.78
8430.00,1.77
8429.00,1.77
8428.00,1.76
8427.00,1.76
8426.00,1.76
8425.00,1.76
8424.00,1.76
8423.00,1.76
8422.00,1.76
8421.00,1.76
8420.00,1.76
8419.00,1.76
8418.00,1.75
8417.00,1.75
8416.00,1.75
8415.00,1.76
8414.00,1.76
8413.00,1.76
8412.00,1.77
8411.00,1.78
8410.00,1.79
8409.00,1.81
8408.00,1.82
8407.00,1.83
8406.00,1.85
8405.00,1.86
8404.00,1.88
8403.00,1.89
8402.00,1.90
8401.00,1.90
8400.00,1.90
8399.00,1.90
8398.00,1.90
8397.00,1.89
8396.00,1.88
8395.00,1.87
8394.00,1.86
8393.00,1.85
8392.00,1.84
8391.00,1.83
8390.00,1.82
8389.00,1.81
8388.00,1.80
8387.00,1.80
8386.00,1.79
8385.00,1.78
8384.00,1.76
8383.00,1.75
8382.00,1.73
8381.00,1.72
8380.00,1.70
8379.00,1.69
8378.00,1.67
8377.00,1.66
8376.00,1.65
8375.00,1.64
8374.00,1.64
8373.00,1.63
8372.00,1.64
8371.00,1.64
8370.00,1.65
8369.00,1.65
8368.00,1.66
8367.00,1.67
8366.00,1.68
8365.00,1.69
8364.00,1.69
8363.00,1.69
8362.00,1.69
8361.00,1.69
8360.00,1.69
8359.00,1.69
8358.00,1.69
8357.00,1.69
8356.00,1.70
8355.00,1.70
8354.00,1.70
8353.00,1.70
8352.00,1.70
8351.00,1.70
8350.00,1.70
8349.00,1.69
8348.00,1.68
8347.00,1.68
8346.00,1.66
8345.00,1.65
8344.00,1.64
8343.00,1.63
8342.00,1.62
8341.00,1.61
8340.00,1.60
8339.00,1.59
8338.00,1.59
8337.00,1.59
8336.00,1.58
8335.00,1.58
8334.00,1.59
8333.00,1.59
8332.00,1.59
8331.00,1.59
8330.00,1.59
8329.00,1.59
8328.00,1.59
8327.00,1.59
8326.00,1.59
8325.00,1.59
8324.00,1.59
8323.00,1.59
8322.00,1.58
8321.00,1.58
8320.00,1.58
8319.00,1.58
8318.00,1.58
8317.00,1.58
8316.00,1.58
8315.00,1.58
8314.00,1.58
8313.00,1.57
8312.00,1.57
8311.00,1.56
8310.00,1.55
8309.00,1.54
8308.00,1.54
8307.00,1.53
8306.00,1.53
8305.00,1.52
8304.00,1.52
8303.00,1.52
8302.00,1.52
8301.00,1.53
8300.00,1.53
8299.00,1.54
8298.00,1.55
8297.00,1.56
8296.00,1.58
8295.00,1.59
8294.00,1.61
8293.00,1.62
8292.00,1.64
8291.00,1.65
8290.00,1.67
8289.00,1.68
8288.00,1.70
8287.00,1.72
8286.00,1.73
8285.00,1.75
8284.00,1.76
8283.00,1.77
8282.00,1.79
8281.00,1.80
8280.00,1.81
8279.00,1.81
8278.00,1.82
8277.00,1.83
8276.00,1.83
8275.00,1.83
8274.00,1.83
8273.00,1.83
8272.00,1.83
8271.00,1.83
8270.00,1.82
8269.00,1.81
8268.00,1.81
8267.00,1.80
8266.00,1.79
8265.00,1.77
8264.00,1.76
8263.00,1.75
8262.00,1.73
8261.00,1.72
8260.00,1.70
8259.00,1.69
8258.00,1.68
8257.00,1.67
8256.00,1.66
8255.00,1.65
8254.00,1.65
8253.00,1.64
8252.00,1.63
8251.00,1.63
8250.00,1.62
8249.00,1.62
8248.00,1.61
8247.00,1.61
8246.00,1.61
8245.00,1.60
8244.00,1.60
8243.00,1.60
8242.00,1.60
8241.00,1.60
8240.00,1.61
8239.00,1.61
8238.00,1.61
8237.00,1.62
8236.00,1.62
8235.00,1.63
8234.00,1.64
8233.00,1.65
8232.00,1.65
8231.00,1.66
8230.00,1.66
8229.00,1.67
8228.00,1.67
8227.00,1.67
8226.00,1.68
8225.00,1.68
8224.00,1.68
8223.00,1.68
8222.00,1.68
8221.00,1.68
8220.00,1.68
8219.00,1.68
8218.00,1.68
8217.00,1.69
8216.00,1.69
8215.00,1.69
8214.00,1.69
8213.00,1.69
8212.00,1.70
8211.00,1.70
8210.00,1.70
8209.00,1.70
8208.00,1.70
8207.00,1.70
8206.00,1.70
8205.00,1.70
8204.00,1.70
8203.00,1.70
8202.00,1.70
8201.00,1.70
8200.00,1.71
8199.00,1.71
8198.00,1.71
8197.00,1.72
8196.00,1.72
8195.00,1.72
8194.00,1.72
8193.00,1.73
8192.00,1.73
8191.00,1.73
8190.00,1.72
8189.00,1.72
8188.00,1.72
8187.00,1.72
8186.00,1.71
8185.00,1.71
8184.00,1.71
8183.00,1.71
8182.00,1.70
8181.00,1.70
8180.00,1.70
8179.00,1.71
8178.00,1.71
8177.00,1.71
8176.00,1.72
8175.00,1.73
8174.00,1.73
8173.00,1.74
8172.00,1.74
8171.00,1.75
8170.00,1.75
8169.00,1.76
8168.00,1.76
8167.00,1.76
8166.00,1.76
8165.00,1.77
8164.00,1.77
8163.00,1.77
8162.00,1.77
8161.00,1.77
8160.00,1.77
8159.00,1.77
8158.00,1.77
8157.00,1.78
8156.00,1.78
8155.00,1.78
8154.00,1.78
8153.00,1.78
8152.00,1.77
8151.00,1.77
8150.00,1.76
8149.00,1.75
8148.00,1.74
8147.00,1.73
8146.00,1.72
8145.00,1.71
8144.00,1.71
8143.00,1.70
8142.00,1.69
8141.00,1.69
8140.00,1.68
8139.00,1.68
8138.00,1.67
8137.00,1.67
8136.00,1.67
8135.00,1.67
8134.00,1.67
8133.00,1.67
8132.00,1.67
8131.00,1.67
8130.00,1.67
8129.00,1.66
8128.00,1.66
8127.00,1.65
8126.00,1.65
8125.00,1.64
8124.00,1.64
8123.00,1.63
8122.00,1.63
8121.00,1.63
8120.00,1.62
8119.00,1.62
8118.00,1.62
8117.00,1.62
8116.00,1.62
8115.00,1.62
8114.00,1.61
8113.00,1.61
8112.00,1.61
8111.00,1.61
8110.00,1.60
8109.00,1.60
8108.00,1.60
8107.00,1.59
8106.00,1.58
8105.00,1.58
8104.00,1.57
8103.00,1.57
8102.00,1.57
8101.00,1.56
8100.00,1.57
8099.00,1.57
8098.00,1.57
8097.00,1.58
8096.00,1.59
8095.00,1.60
8094.00,1.61
8093.00,1.62
8092.00,1.63
8091.00,1.64
8090.00,1.65
8089.00,1.65
8088.00,1.66
8087.00,1.67
8086.00,1.67
8085.00,1.68
8084.00,1.69
8083.00,1.69
8082.00,1.70
8081.00,1.72
8080.00,1.73
8079.00,1.74
8078.00,1.76
8077.00,1.77
8076.00,1.78
8075.00,1.80
8074.00,1.81
8073.00,1.82
8072.00,1.83
8071.00,1.83
8070.00,1.84
8069.00,1.84
8068.00,1.84
8067.00,1.84
8066.00,1.84
8065.00,1.84
8064.00,1.84
8063.00,1.85
8062.00,1.85
8061.00,1.85
8060.00,1.85
8059.00,1.86
8058.00,1.86
8057.00,1.86
8056.00,1.86
8055.00,1.86
8054.00,1.86
8053.00,1.86
8052.00,1.86
8051.00,1.86
8050.00,1.86
8049.00,1.86
8048.00,1.86
8047.00,1.86
8046.00,1.86
8045.00,1.86
8044.00,1.87
8043.00,1.87
8042.00,1.87
8041.00,1.88
8040.00,1.89
8039.00,1.89
8038.00,1.90
8037.00,1.91
8036.00,1.92
8035.00,1.92
8034.00,1.93
8033.00,1.94
8032.00,1.94
8031.00,1.95
8030.00,1.95
8029.00,1.96
8028.00,1.96
8027.00,1.96
8026.00,1.97
8025.00,1.97
8024.00,1.97
8023.00,1.96
8022.00,1.96
8021.00,1.96
8020.00,1.96
8019.00,1.95
8018.00,1.95
8017.00,1.95
8016.00,1.94
8015.00,1.94
8014.00,1.93
8013.00,1.92
8012.00,1.91
8011.00,1.90
8010.00,1.90
8009.00,1.89
8008.00,1.88
8007.00,1.88
8006.00,1.87
8005.00,1.87
8004.00,1.87
8003.00,1.87
8002.00,1.87
8001.00,1.87
8000.00,1.87
7999.00,1.87
7998.00,1.88
7997.00,1.88
7996.00,1.88
7995.00,1.88
7994.00,1.89
7993.00,1.89
7992.00,1.90
7991.00,1.90
7990.00,1.91
7989.00,1.91
7988.00,1.92
7987.00,1.92
7986.00,1.93
7985.00,1.93
7984.00,1.94
7983.00,1.94
7982.00,1.94
7981.00,1.94
7980.00,1.93
7979.00,1.93
7978.00,1.92
7977.00,1.91
7976.00,1.90
7975.00,1.89
7974.00,1.88
7973.00,1.87
7972.00,1.86
7971.00,1.86
7970.00,1.85
7969.00,1.84
7968.00,1.83
7967.00,1.83
7966.00,1.82
7965.00,1.81
7964.00,1.80
7963.00,1.79
7962.00,1.78
7961.00,1.77
7960.00,1.76
7959.00,1.75
7958.00,1.74
7957.00,1.73
7956.00,1.72
7955.00,1.72
7954.00,1.71
7953.00,1.71
7952.00,1.71
7951.00,1.71
7950.00,1.70
7949.00,1.70
7948.00,1.70
7947.00,1.70
7946.00,1.71
7945.00,1.71
7944.00,1.71
7943.00,1.71
7942.00,1.71
7941.00,1.71
7940.00,1.72
7939.00,1.72
7938.00,1.73
7937.00,1.73
7936.00,1.74
7935.00,1.75
7934.00,1.76
7933.00,1.77
7932.00,1.78
7931.00,1.79
7930.00,1.80
7929.00,1.81
7928.00,1.82
7927.00,1.83
7926.00,1.84
7925.00,1.85
7924.00,1.86
7923.00,1.87
7922.00,1.88
7921.00,1.89
7920.00,1.90
7919.00,1.90
7918.00,1.91
7917.00,1.92
7916.00,1.93
7915.00,1.93
7914.00,1.94
7913.00,1.94
7912.00,1.95
7911.00,1.95
7910.00,1.95
7909.00,1.96
7908.00,1.96
7907.00,1.96
7906.00,1.95
7905.00,1.95
7904.00,1.95
7903.00,1.95
7902.00,1.95
7901.00,1.95
7900.00,1.95
7899.00,1.94
7898.00,1.94
7897.00,1.94
7896.00,1.93
7895.00,1.93
7894.00,1.92
7893.00,1.91
7892.00,1.91
7891.00,1.90
7890.00,1.89
7889.00,1.88
7888.00,1.87
7887.00,1.86
7886.00,1.85
7885.00,1.85
7884.00,1.84
7883.00,1.83
7882.00,1.83
7881.00,1.82
7880.00,1.82
7879.00,1.82
7878.00,1.81
7877.00,1.81
7876.00,1.81
7875.00,1.81
7874.00,1.81
7873.00,1.81
7872.00,1.81
7871.00,1.81
7870.00,1.82
7869.00,1.82
7868.00,1.82
7867.00,1.83
7866.00,1.83
7865.00,1.83
7864.00,1.84
7863.00,1.84
7862.00,1.85
7861.00,1.85
7860.00,1.85
7859.00,1.86
7858.00,1.86
7857.00,1.86
7856.00,1.87
7855.00,1.87
7854.00,1.88
7853.00,1.88
7852.00,1.89
7851.00,1.89
7850.00,1.89
7849.00,1.89
7848.00,1.89
7847.00,1.89
7846.00,1.88
7845.00,1.88
7844.00,1.88
7843.00,1.87
7842.00,1.87
7841.00,1.86
7840.00,1.86
7839.00,1.86
7838.00,1.86
7837.00,1.86
7836.00,1.86
7835.00,1.86
7834.00,1.87
7833.00,1.87
7832.00,1.87
7831.00,1.87
7830.00,1.87
7829.00,1.86
7828.00,1.86
7827.00,1.86
7826.00,1.85
7825.00,1.85
7824.00,1.85
7823.00,1.85
7822.00,1.85
7821.00,1.85
7820.00,1.85
7819.00,1.86
7818.00,1.86
7817.00,1.87
7816.00,1.87
7815.00,1.88
7814.00,1.88
7813.00,1.88
7812.00,1.89
7811.00,1.89
7810.00,1.89
7809.00,1.89
7808.00,1.89
7807.00,1.89
7806.00,1.89
7805.00,1.89
7804.00,1.90
7803.00,1.90
7802.00,1.91
7801.00,1.91
7800.00,1.92
7799.00,1.93
7798.00,1.93
7797.00,1.94
7796.00,1.95
7795.00,1.95
7794.00,1.96
7793.00,1.96
7792.00,1.97
7791.00,1.97
7790.00,1.98
7789.00,1.98
7788.00,1.99
7787.00,2.00
7786.00,2.00
7785.00,2.01
7784.00,2.02
7783.00,2.03
7782.00,2.04
7781.00,2.05
7780.00,2.06
7779.00,2.07
7778.00,2.08
7777.00,2.08
7776.00,2.09
7775.00,2.09
7774.00,2.09
7773.00,2.09
7772.00,2.09
7771.00,2.09
7770.00,2.09
7769.00,2.09
7768.00,2.09
7767.00,2.08
7766.00,2.08
7765.00,2.07
7764.00,2.06
7763.00,2.05
7762.00,2.04
7761.00,2.02
7760.00,2.00
7759.00,1.99
7758.00,1.97
7757.00,1.95
7756.00,1.93
7755.00,1.91
7754.00,1.90
7753.00,1.88
7752.00,1.86
7751.00,1.84
7750.00,1.83
7749.00,1.81
7748.00,1.80
7747.00,1.79
7746.00,1.77
7745.00,1.76
7744.00,1.76
7743.00,1.75
7742.00,1.75
7741.00,1.74
7740.00,1.74
7739.00,1.74
7738.00,1.74
7737.00,1.75
7736.00,1.75
7735.00,1.76
7734.00,1.76
7733.00,1.77
7732.00,1.78
7731.00,1.79
7730.00,1.80
7729.00,1.81
7728.00,1.82
7727.00,1.83
7726.00,1.84
7725.00,1.85
7724.00,1.86
7723.00,1.87
7722.00,1.88
7721.00,1.89
7720.00,1.90
7719.00,1.91
7718.00,1.91
7717.00,1.92
7716.00,1.92
7715.00,1.92
7714.00,1.93
7713.00,1.93
7712.00,1.93
7711.00,1.93
7710.00,1.93
7709.00,1.93
7708.00,1.93
7707.00,1.93
7706.00,1.93
7705.00,1.92
7704.00,1.92
7703.00,1.92
7702.00,1.92
7701.00,1.91
7700.00,1.91
7699.00,1.91
7698.00,1.91
7697.00,1.90
7696.00,1.90
7695.00,1.90
7694.00,1.89
7693.00,1.89
7692.00,1.89
7691.00,1.89
7690.00,1.89
7689.00,1.89
7688.00,1.89
7687.00,1.89
7686.00,1.88
7685.00,1.88
7684.00,1.88
7683.00,1.88
7682.00,1.88
7681.00,1.89
7680.00,1.89
7679.00,1.89
7678.00,1.89
7677.00,1.89
7676.00,1.89
7675.00,1.89
7674.00,1.89
7673.00,1.89
7672.00,1.89
7671.00,1.88
7670.00,1.88
7669.00,1.88
7668.00,1.88
7667.00,1.87
7666.00,1.87
7665.00,1.87
7664.00,1.87
7663.00,1.87
7662.00,1.86
7661.00,1.86
7660.00,1.86
7659.00,1.85
7658.00,1.85
7657.00,1.84
7656.00,1.84
7655.00,1.84
7654.00,1.84
7653.00,1.84
7652.00,1.84
7651.00,1.84
7650.00,1.84
7649.00,1.84
7648.00,1.84
7647.00,1.85
7646.00,1.85
7645.00,1.85
7644.00,1.86
7643.00,1.86
7642.00,1.86
7641.00,1.86
7640.00,1.86
7639.00,1.86
7638.00,1.86
7637.00,1.86
7636.00,1.86
7635.00,1.86
7634.00,1.86
7633.00,1.86
7632.00,1.86
7631.00,1.86
7630.00,1.86
7629.00,1.86
7628.00,1.85
7627.00,1.85
7626.00,1.84
7625.00,1.83
7624.00,1.82
7623.00,1.82
7622.00,1.81
7621.00,1.80
7620.00,1.79
7619.00,1.78
7618.00,1.77
7617.00,1.76
7616.00,1.76
7615.00,1.75
7614.00,1.75
7613.00,1.75
7612.00,1.75
7611.00,1.75
7610.00,1.75
7609.00,1.75
7608.00,1.75
7607.00,1.76
7606.00,1.76
7605.00,1.76
7604.00,1.76
7603.00,1.76
7602.00,1.77
7601.00,1.77
7600.00,1.78
7599.00,1.78
7598.00,1.79
7597.00,1.80
7596.00,1.80
7595.00,1.81
7594.00,1.82
7593.00,1.83
7592.00,1.83
7591.00,1.84
7590.00,1.84
7589.00,1.85
7588.00,1.85
7587.00,1.85
7586.00,1.85
7585.00,1.85
7584.00,1.85
7583.00,1.85
7582.00,1.85
7581.00,1.85
7580.00,1.85
7579.00,1.85
7578.00,1.85
7577.00,1.86
7576.00,1.86
7575.00,1.87
7574.00,1.87
7573.00,1.88
7572.00,1.88
7571.00,1.88
7570.00,1.89
7569.00,1.89
7568.00,1.90
7567.00,1.90
7566.00,1.91
7565.00,1.92
7564.00,1.93
7563.00,1.94
7562.00,1.95
7561.00,1.97
7560.00,1.98
7559.00,2.00
7558.00,2.01
7557.00,2.02
7556.00,2.03
7555.00,2.04
7554.00,2.05
7553.00,2.05
7552.00,2.05
7551.00,2.06
7550.00,2.06
7549.00,2.05
7548.00,2.05
7547.00,2.05
7546.00,2.05
7545.00,2.05
7544.00,2.04
7543.00,2.04
7542.00,2.04
7541.00,2.03
7540.00,2.03
7539.00,2.02
7538.00,2.01
7537.00,2.01
7536.00,2.00
7535.00,1.99
7534.00,1.98
7533.00,1.97
7532.00,1.96
7531.00,1.95
7530.00,1.94
7529.00,1.94
7528.00,1.93
7527.00,1.93
7526.00,1.93
7525.00,1.93
7524.00,1.92
7523.00,1.92
7522.00,1.92
7521.00,1.92
7520.00,1.92
7519.00,1.92
7518.00,1.91
7517.00,1.91
7516.00,1.91
7515.00,1.90
7514.00,1.90
7513.00,1.90
7512.00,1.89
7511.00,1.89
7510.00,1.88
7509.00,1.88
7508.00,1.88
7507.00,1.87
7506.00,1.87
7505.00,1.87
7504.00,1.86
7503.00,1.86
7502.00,1.85
7501.00,1.85
7500.00,1.85
7499.00,1.84
7498.00,1.84
7497.00,1.84
7496.00,1.84
7495.00,1.83
7494.00,1.83
7493.00,1.84
7492.00,1.84
7491.00,1.84
7490.00,1.85
7489.00,1.85
7488.00,1.85
7487.00,1.86
7486.00,1.86
7485.00,1.87
7484.00,1.87
7483.00,1.88
7482.00,1.88
7481.00,1.88
7480.00,1.89
7479.00,1.89
7478.00,1.89
7477.00,1.90
7476.00,1.90
7475.00,1.90
7474.00,1.90
7473.00,1.91
7472.00,1.91
7471.00,1.91
7470.00,1.91
7469.00,1.91
7468.00,1.91
7467.00,1.91
7466.00,1.90
7465.00,1.90
7464.00,1.90
7463.00,1.89
7462.00,1.89
7461.00,1.89
7460.00,1.88
7459.00,1.88
7458.00,1.88
7457.00,1.88
7456.00,1.88
7455.00,1.88
7454.00,1.88
7453.00,1.88
7452.00,1.88
7451.00,1.88
7450.00,1.88
7449.00,1.88
7448.00,1.88
7447.00,1.88
7446.00,1.88
7445.00,1.88
7444.00,1.88
7443.00,1.88
7442.00,1.88
7441.00,1.88
7440.00,1.88
7439.00,1.88
7438.00,1.88
7437.00,1.88
7436.00,1.88
7435.00,1.88
7434.00,1.88
7433.00,1.87
7432.00,1.87
7431.00,1.87
7430.00,1.86
7429.00,1.86
7428.00,1.86
7427.00,1.85
7426.00,1.85
7425.00,1.84
7424.00,1.83
7423.00,1.83
7422.00,1.82
7421.00,1.82
7420.00,1.81
7419.00,1.80
7418.00,1.80
7417.00,1.80
7416.00,1.79
7415.00,1.79
7414.00,1.79
7413.00,1.79
7412.00,1.79
7411.00,1.79
7410.00,1.80
7409.00,1.80
7408.00,1.80
7407.00,1.81
7406.00,1.81
7405.00,1.81
7404.00,1.81
7403.00,1.82
7402.00,1.82
7401.00,1.82
7400.00,1.83
7399.00,1.83
7398.00,1.83
7397.00,1.84
7396.00,1.85
7395.00,1.86
7394.00,1.87
7393.00,1.88
7392.00,1.89
7391.00,1.90
7390.00,1.91
7389.00,1.91
7388.00,1.92
7387.00,1.93
7386.00,1.93
7385.00,1.94
7384.00,1.94
7383.00,1.94
7382.00,1.95
7381.00,1.95
7380.00,1.96
7379.00,1.97
7378.00,1.97
7377.00,1.98
7376.00,1.98
7375.00,1.99
7374.00,2.00
7373.00,2.00
7372.00,2.00
7371.00,2.01
7370.00,2.01
7369.00,2.00
7368.00,2.00
7367.00,2.00
7366.00,1.99
7365.00,1.99
7364.00,1.99
7363.00,1.98
7362.00,1.98
7361.00,1.98
7360.00,1.98
7359.00,1.97
7358.00,1.97
7357.00,1.97
7356.00,1.96
7355.00,1.96
7354.00,1.95
7353.00,1.94
7352.00,1.93
7351.00,1.93
7350.00,1.92
7349.00,1.91
7348.00,1.90
7347.00,1.90
7346.00,1.89
7345.00,1.89
7344.00,1.88
7343.00,1.88
7342.00,1.87
7341.00,1.87
7340.00,1.86
7339.00,1.86
7338.00,1.85
7337.00,1.84
7336.00,1.84
7335.00,1.83
7334.00,1.82
7333.00,1.82
7332.00,1.81
7331.00,1.81
7330.00,1.81
7329.00,1.80
7328.00,1.80
7327.00,1.80
7326.00,1.80
7325.00,1.80
7324.00,1.80
7323.00,1.80
7322.00,1.80
7321.00,1.80
7320.00,1.80
7319.00,1.80
7318.00,1.80
7317.00,1.80
7316.00,1.80
7315.00,1.80
7314.00,1.81
7313.00,1.81
7312.00,1.81
7311.00,1.82
7310.00,1.82
7309.00,1.82
7308.00,1.83
7307.00,1.83
7306.00,1.83
7305.00,1.83
7304.00,1.82
7303.00,1.82
7302.00,1.82
7301.00,1.81
7300.00,1.81
7299.00,1.80
7298.00,1.80
7297.00,1.80
7296.00,1.79
7295.00,1.79
7294.00,1.78
7293.00,1.78
7292.00,1.78
7291.00,1.78
7290.00,1.77
7289.00,1.77
7288.00,1.77
7287.00,1.77
7286.00,1.76
7285.00,1.76
7284.00,1.76
7283.00,1.76
7282.00,1.76
7281.00,1.76
7280.00,1.76
7279.00,1.76
7278.00,1.77
7277.00,1.77
7276.00,1.78
7275.00,1.78
7274.00,1.78
7273.00,1.79
7272.00,1.79
7271.00,1.79
7270.00,1.79
7269.00,1.79
7268.00,1.79
7267.00,1.79
7266.00,1.79
7265.00,1.79
7264.00,1.78
7263.00,1.78
7262.00,1.77
7261.00,1.76
7260.00,1.75
7259.00,1.75
7258.00,1.74
7257.00,1.73
7256.00,1.72
7255.00,1.71
7254.00,1.69
7253.00,1.68
7252.00,1.67
7251.00,1.66
7250.00,1.65
7249.00,1.64
7248.00,1.63
7247.00,1.62
7246.00,1.61
7245.00,1.60
7244.00,1.60
7243.00,1.59
7242.00,1.59
7241.00,1.59
7240.00,1.59
7239.00,1.58
7238.00,1.58
7237.00,1.59
7236.00,1.59
7235.00,1.59
7234.00,1.60
7233.00,1.60
7232.00,1.61
7231.00,1.62
7230.00,1.62
7229.00,1.63
7228.00,1.64
7227.00,1.65
7226.00,1.65
7225.00,1.66
7224.00,1.67
7223.00,1.68
7222.00,1.69
7221.00,1.70
7220.00,1.70
7219.00,1.71
7218.00,1.72
7217.00,1.73
7216.00,1.73
7215.00,1.74
7214.00,1.75
7213.00,1.75
7212.00,1.76
7211.00,1.76
7210.00,1.76
7209.00,1.76
7208.00,1.76
7207.00,1.76
7206.00,1.76
7205.00,1.76
7204.00,1.76
7203.00,1.76
7202.00,1.75
7201.00,1.75
7200.00,1.75
7199.00,1.75
7198.00,1.74
7197.00,1.74
7196.00,1.74
7195.00,1.73
7194.00,1.72
7193.00,1.72
7192.00,1.71
7191.00,1.71
7190.00,1.70
7189.00,1.69
7188.00,1.69
7187.00,1.68
7186.00,1.68
7185.00,1.67
7184.00,1.67
7183.00,1.66
7182.00,1.66
7181.00,1.65
7180.00,1.65
7179.00,1.65
7178.00,1.64
7177.00,1.64
7176.00,1.64
7175.00,1.63
7174.00,1.63
7173.00,1.62
7172.00,1.62
7171.00,1.62
7170.00,1.61
7169.00,1.61
7168.00,1.60
7167.00,1.60
7166.00,1.60
7165.00,1.59
7164.00,1.58
7163.00,1.58
7162.00,1.57
7161.00,1.57
7160.00,1.56
7159.00,1.55
7158.00,1.54
7157.00,1.53
7156.00,1.53
7155.00,1.52
7154.00,1.51
7153.00,1.51
7152.00,1.50
7151.00,1.49
7150.00,1.49
7149.00,1.48
7148.00,1.47
7147.00,1.46
7146.00,1.46
7145.00,1.45
7144.00,1.44
7143.00,1.43
7142.00,1.43
7141.00,1.42
7140.00,1.42
7139.00,1.41
7138.00,1.41
7137.00,1.41
7136.00,1.40
7135.00,1.40
7134.00,1.40
7133.00,1.40
7132.00,1.40
7131.00,1.40
7130.00,1.40
7129.00,1.41
7128.00,1.41
7127.00,1.41
7126.00,1.41
7125.00,1.42
7124.00,1.42
7123.00,1.43
7122.00,1.43
7121.00,1.44
7120.00,1.44
7119.00,1.45
7118.00,1.45
7117.00,1.46
7116.00,1.46
7115.00,1.47
7114.00,1.47
7113.00,1.47
7112.00,1.48
7111.00,1.48
7110.00,1.48
7109.00,1.48
7108.00,1.48
7107.00,1.48
7106.00,1.48
7105.00,1.48
7104.00,1.48
7103.00,1.48
7102.00,1.48
7101.00,1.47
7100.00,1.47
7099.00,1.46
7098.00,1.45
7097.00,1.45
7096.00,1.44
7095.00,1.43
7094.00,1.43
7093.00,1.42
7092.00,1.41
7091.00,1.41
7090.00,1.40
7089.00,1.40
7088.00,1.39
7087.00,1.39
7086.00,1.38
7085.00,1.38
7084.00,1.37
7083.00,1.37
7082.00,1.37
7081.00,1.36
7080.00,1.36
7079.00,1.35
7078.00,1.35
7077.00,1.35
7076.00,1.34
7075.00,1.34
7074.00,1.34
7073.00,1.34
7072.00,1.34
7071.00,1.34
7070.00,1.33
7069.00,1.33
7068.00,1.33
7067.00,1.33
7066.00,1.33
7065.00,1.33
7064.00,1.33
7063.00,1.32
7062.00,1.32
7061.00,1.32
7060.00,1.31
7059.00,1.31
7058.00,1.31
7057.00,1.30
7056.00,1.30
7055.00,1.29
7054.00,1.29
7053.00,1.29
7052.00,1.28
7051.00,1.28
7050.00,1.28
7049.00,1.28
7048.00,1.28
7047.00,1.27
7046.00,1.27
7045.00,1.27
7044.00,1.27
7043.00,1.27
7042.00,1.27
7041.00,1.27
7040.00,1.27
7039.00,1.27
7038.00,1.27
7037.00,1.27
7036.00,1.28
7035.00,1.28
7034.00,1.28
7033.00,1.28
7032.00,1.28
7031.00,1.28
7030.00,1.29
7029.00,1.29
7028.00,1.29
7027.00,1.29
7026.00,1.29
7025.00,1.30
7024.00,1.30
7023.00,1.29
7022.00,1.29
7021.00,1.29
7020.00,1.28
7019.00,1.28
7018.00,1.27
7017.00,1.26
7016.00,1.25
7015.00,1.25
7014.00,1.24
7013.00,1.23
7012.00,1.22
7011.00,1.22
7010.00,1.21
7009.00,1.21
7008.00,1.20
7007.00,1.20
7006.00,1.19
7005.00,1.19
7004.00,1.19
7003.00,1.18
7002.00,1.18
7001.00,1.17
7000.00,1.17
6999.00,1.17
6998.00,1.16
6997.00,1.16
6996.00,1.16
6995.00,1.16
6994.00,1.16
6993.00,1.16
6992.00,1.17
6991.00,1.17
6990.00,1.18
6989.00,1.19
6988.00,1.20
6987.00,1.20
6986.00,1.21
6985.00,1.21
6984.00,1.22
6983.00,1.22
6982.00,1.22
6981.00,1.22
6980.00,1.22
6979.00,1.22
6978.00,1.22
6977.00,1.22
6976.00,1.22
6975.00,1.22
6974.00,1.23
6973.00,1.23
6972.00,1.23
6971.00,1.24
6970.00,1.24
6969.00,1.24
6968.00,1.25
6967.00,1.25
6966.00,1.25
6965.00,1.25
6964.00,1.25
6963.00,1.25
6962.00,1.25
6961.00,1.25
6960.00,1.25
6959.00,1.24
6958.00,1.24
6957.00,1.24
6956.00,1.25
6955.00,1.25
6954.00,1.25
6953.00,1.25
6952.00,1.25
6951.00,1.25
6950.00,1.25
6949.00,1.25
6948.00,1.26
6947.00,1.26
6946.00,1.26
6945.00,1.26
6944.00,1.25
6943.00,1.25
6942.00,1.25
6941.00,1.25
6940.00,1.25
6939.00,1.24
6938.00,1.24
6937.00,1.24
6936.00,1.23
6935.00,1.23
6934.00,1.23
6933.00,1.23
6932.00,1.24
6931.00,1.24
6930.00,1.24
6929.00,1.24
6928.00,1.24
6927.00,1.24
6926.00,1.24
6925.00,1.24
6924.00,1.24
6923.00,1.24
6922.00,1.23
6921.00,1.23
6920.00,1.22
6919.00,1.22
6918.00,1.22
6917.00,1.21
6916.00,1.21
6915.00,1.20
6914.00,1.20
6913.00,1.20
6912.00,1.20
6911.00,1.20
6910.00,1.19
6909.00,1.19
6908.00,1.19
6907.00,1.19
6906.00,1.18
6905.00,1.18
6904.00,1.17
6903.00,1.17
6902.00,1.17
6901.00,1.17
6900.00,1.17
6899.00,1.17
6898.00,1.17
6897.00,1.17
6896.00,1.17
6895.00,1.18
6894.00,1.18
6893.00,1.18
6892.00,1.19
6891.00,1.19
6890.00,1.20
6889.00,1.20
6888.00,1.21
6887.00,1.22
6886.00,1.22
6885.00,1.23
6884.00,1.24
6883.00,1.25
6882.00,1.26
6881.00,1.26
6880.00,1.27
6879.00,1.28
6878.00,1.29
6877.00,1.29
6876.00,1.30
6875.00,1.31
6874.00,1.31
6873.00,1.32
6872.00,1.33
6871.00,1.33
6870.00,1.34
6869.00,1.34
6868.00,1.35
6867.00,1.35
6866.00,1.36
6865.00,1.36
6864.00,1.36
6863.00,1.37
6862.00,1.37
6861.00,1.37
6860.00,1.37
6859.00,1.37
6858.00,1.37
6857.00,1.37
6856.00,1.37
6855.00,1.37
6854.00,1.37
6853.00,1.36
6852.00,1.36
6851.00,1.35
6850.00,1.35
6849.00,1.34
6848.00,1.34
6847.00,1.33
6846.00,1.33
6845.00,1.32
6844.00,1.32
6843.00,1.31
6842.00,1.31
6841.00,1.31
6840.00,1.30
6839.00,1.30
6838.00,1.30
6837.00,1.29
6836.00,1.29
6835.00,1.29
6834.00,1.29
6833.00,1.28
6832.00,1.28
6831.00,1.28
6830.00,1.27
6829.00,1.27
6828.00,1.26
6827.00,1.26
6826.00,1.26
6825.00,1.25
6824.00,1.25
6823.00,1.25
6822.00,1.25
6821.00,1.25
6820.00,1.25
6819.00,1.25
6818.00,1.26
6817.00,1.26
6816.00,1.26
6815.00,1.25
6814.00,1.25
6813.00,1.25
6812.00,1.25
6811.00,1.25
6810.00,1.25
6809.00,1.25
6808.00,1.25
6807.00,1.25
6806.00,1.25
6805.00,1.25
6804.00,1.26
6803.00,1.26
6802.00,1.27
6801.00,1.28
6800.00,1.28
6799.00,1.29
6798.00,1.30
6797.00,1.31
6796.00,1.31
6795.00,1.32
6794.00,1.33
6793.00,1.34
6792.00,1.34
6791.00,1.35
6790.00,1.36
6789.00,1.36
6788.00,1.37
6787.00,1.37
6786.00,1.38
6785.00,1.38
6784.00,1.39
6783.00,1.39
6782.00,1.40
6781.00,1.40
6780.00,1.40
6779.00,1.40
6778.00,1.40
6777.00,1.40
6776.00,1.39
6775.00,1.39
6774.00,1.39
6773.00,1.38
6772.00,1.38
6771.00,1.37
6770.00,1.37
6769.00,1.36
6768.00,1.35
6767.00,1.35
6766.00,1.34
6765.00,1.33
6764.00,1.33
6763.00,1.32
6762.00,1.32
6761.00,1.32
6760.00,1.32
6759.00,1.31
6758.00,1.31
6757.00,1.31
6756.00,1.31
6755.00,1.31
6754.00,1.31
6753.00,1.31
6752.00,1.31
6751.00,1.32
6750.00,1.32
6749.00,1.32
6748.00,1.33
6747.00,1.33
6746.00,1.33
6745.00,1.34
6744.00,1.34
6743.00,1.35
6742.00,1.35
6741.00,1.35
6740.00,1.36
6739.00,1.36
6738.00,1.37
6737.00,1.37
6736.00,1.37
6735.00,1.38
6734.00,1.38
6733.00,1.38
6732.00,1.38
6731.00,1.39
6730.00,1.39
6729.00,1.39
6728.00,1.39
6727.00,1.40
6726.00,1.40
6725.00,1.40
6724.00,1.40
6723.00,1.41
6722.00,1.41
6721.00,1.41
6720.00,1.42
6719.00,1.42
6718.00,1.42
6717.00,1.43
6716.00,1.43
6715.00,1.43
6714.00,1.44
6713.00,1.44
6712.00,1.45
6711.00,1.45
6710.00,1.46
6709.00,1.46
6708.00,1.47
6707.00,1.47
6706.00,1.48
6705.00,1.48
6704.00,1.49
6703.00,1.49
6702.00,1.50
6701.00,1.50
6700.00,1.51
6699.00,1.51
6698.00,1.52
6697.00,1.52
6696.00,1.52
6695.00,1.52
6694.00,1.53
6693.00,1.53
6692.00,1.53
6691.00,1.53
6690.00,1.53
6689.00,1.53
6688.00,1.52
6687.00,1.52
6686.00,1.52
6685.00,1.52
6684.00,1.51
6683.00,1.51
6682.00,1.51
6681.00,1.50
6680.00,1.50
6679.00,1.49
6678.00,1.49
6677.00,1.48
6676.00,1.47
6675.00,1.46
6674.00,1.46
6673.00,1.45
6672.00,1.44
6671.00,1.43
6670.00,1.43
6669.00,1.42
6668.00,1.42
6667.00,1.41
6666.00,1.41
6665.00,1.40
6664.00,1.40
6663.00,1.40
6662.00,1.40
6661.00,1.40
6660.00,1.40
6659.00,1.40
6658.00,1.40
6657.00,1.40
6656.00,1.40
6655.00,1.41
6654.00,1.41
6653.00,1.41
6652.00,1.42
6651.00,1.42
6650.00,1.43
6649.00,1.43
6648.00,1.43
6647.00,1.44
6646.00,1.44
6645.00,1.45
6644.00,1.45
6643.00,1.46
6642.00,1.46
6641.00,1.47
6640.00,1.47
6639.00,1.48
6638.00,1.48
6637.00,1.48
6636.00,1.49
6635.00,1.49
6634.00,1.49
6633.00,1.49
6632.00,1.49
6631.00,1.49
6630.00,1.49
6629.00,1.49
6628.00,1.49
6627.00,1.49
6626.00,1.49
6625.00,1.49
6624.00,1.49
6623.00,1.49
6622.00,1.49
6621.00,1.50
6620.00,1.50
6619.00,1.50
6618.00,1.50
6617.00,1.50
6616.00,1.50
6615.00,1.50
6614.00,1.50
6613.00,1.50
6612.00,1.50
6611.00,1.51
6610.00,1.51
6609.00,1.51
6608.00,1.51
6607.00,1.51
6606.00,1.52
6605.00,1.52
6604.00,1.52
6603.00,1.53
6602.00,1.53
6601.00,1.53
6600.00,1.53
6599.00,1.54
6598.00,1.54
6597.00,1.54
6596.00,1.54
6595.00,1.54
6594.00,1.55
6593.00,1.55
6592.00,1.56
6591.00,1.56
6590.00,1.57
6589.00,1.57
6588.00,1.58
6587.00,1.58
6586.00,1.59
6585.00,1.59
6584.00,1.60
6583.00,1.60
6582.00,1.61
6581.00,1.62
6580.00,1.62
6579.00,1.63
6578.00,1.63
6577.00,1.64
6576.00,1.64
6575.00,1.65
6574.00,1.65
6573.00,1.66
6572.00,1.66
6571.00,1.66
6570.00,1.67
6569.00,1.67
6568.00,1.67
6567.00,1.67
6566.00,1.67
6565.00,1.67
6564.00,1.67
6563.00,1.66
6562.00,1.66
6561.00,1.66
6560.00,1.66
6559.00,1.65
6558.00,1.65
6557.00,1.65
6556.00,1.64
6555.00,1.64
6554.00,1.63
6553.00,1.63
6552.00,1.63
6551.00,1.62
6550.00,1.62
6549.00,1.61
6548.00,1.61
6547.00,1.61
6546.00,1.61
6545.00,1.61
6544.00,1.61
6543.00,1.61
6542.00,1.61
6541.00,1.61
6540.00,1.61
6539.00,1.61
6538.00,1.62
6537.00,1.62
6536.00,1.63
6535.00,1.63
6534.00,1.64
6533.00,1.65
6532.00,1.66
6531.00,1.67
6530.00,1.68
6529.00,1.69
6528.00,1.70
6527.00,1.71
6526.00,1.72
6525.00,1.73
6524.00,1.74
6523.00,1.75
6522.00,1.76
6521.00,1.76
6520.00,1.77
6519.00,1.78
6518.00,1.79
6517.00,1.80
6516.00,1.81
6515.00,1.81
6514.00,1.82
6513.00,1.83
6512.00,1.83
6511.00,1.84
6510.00,1.84
6509.00,1.84
6508.00,1.84
6507.00,1.84
6506.00,1.84
6505.00,1.83
6504.00,1.83
6503.00,1.83
6502.00,1.82
6501.00,1.82
6500.00,1.82
6499.00,1.81
6498.00,1.81
6497.00,1.80
6496.00,1.80
6495.00,1.79
6494.00,1.78
6493.00,1.78
6492.00,1.77
6491.00,1.76
6490.00,1.75
6489.00,1.74
6488.00,1.73
6487.00,1.73
6486.00,1.72
6485.00,1.71
6484.00,1.70
6483.00,1.70
6482.00,1.70
6481.00,1.69
6480.00,1.69
6479.00,1.69
6478.00,1.69
6477.00,1.69
6476.00,1.69
6475.00,1.68
6474.00,1.68
6473.00,1.68
6472.00,1.68
6471.00,1.68
6470.00,1.68
6469.00,1.68
6468.00,1.69
6467.00,1.69
6466.00,1.69
6465.00,1.69
6464.00,1.70
6463.00,1.70
6462.00,1.71
6461.00,1.71
6460.00,1.71
6459.00,1.72
6458.00,1.72
6457.00,1.72
6456.00,1.72
6455.00,1.72
6454.00,1.72
6453.00,1.72
6452.00,1.72
6451.00,1.72
6450.00,1.72
6449.00,1.72
6448.00,1.72
6447.00,1.72
6446.00,1.71
6445.00,1.71
6444.00,1.71
6443.00,1.71
6442.00,1.70
6441.00,1.70
6440.00,1.70
6439.00,1.69
6438.00,1.69
6437.00,1.68
6436.00,1.68
6435.00,1.68
6434.00,1.67
6433.00,1.67
6432.00,1.67
6431.00,1.67
6430.00,1.67
6429.00,1.67
6428.00,1.67
6427.00,1.67
6426.00,1.67
6425.00,1.67
6424.00,1.68
6423.00,1.68
6422.00,1.68
6421.00,1.68
6420.00,1.69
6419.00,1.69
6418.00,1.69
6417.00,1.70
6416.00,1.70
6415.00,1.71
6414.00,1.71
6413.00,1.72
6412.00,1.73
6411.00,1.73
6410.00,1.74
6409.00,1.75
6408.00,1.75
6407.00,1.76
6406.00,1.77
6405.00,1.77
6404.00,1.78
6403.00,1.78
6402.00,1.79
6401.00,1.79
6400.00,1.79
6399.00,1.80
6398.00,1.80
6397.00,1.80
6396.00,1.80
6395.00,1.80
6394.00,1.80
6393.00,1.80
6392.00,1.79
6391.00,1.79
6390.00,1.79
6389.00,1.79
6388.00,1.79
6387.00,1.79
6386.00,1.79
6385.00,1.79
6384.00,1.79
6383.00,1.79
6382.00,1.79
6381.00,1.78
6380.00,1.78
6379.00,1.78
6378.00,1.77
6377.00,1.77
6376.00,1.77
6375.00,1.76
6374.00,1.76
6373.00,1.76
6372.00,1.76
6371.00,1.76
6370.00,1.76
6369.00,1.77
6368.00,1.77
6367.00,1.77
6366.00,1.78
6365.00,1.78
6364.00,1.79
6363.00,1.79
6362.00,1.79
6361.00,1.79
6360.00,1.79
6359.00,1.79
6358.00,1.79
6357.00,1.79
6356.00,1.79
6355.00,1.79
6354.00,1.79
6353.00,1.79
6352.00,1.79
6351.00,1.79
6350.00,1.79
6349.00,1.79
6348.00,1.79
6347.00,1.80
6346.00,1.80
6345.00,1.80
6344.00,1.80
6343.00,1.80
6342.00,1.80
6341.00,1.80
6340.00,1.80
6339.00,1.80
6338.00,1.80
6337.00,1.80
6336.00,1.80
6335.00,1.81
6334.00,1.81
6333.00,1.81
6332.00,1.82
6331.00,1.83
6330.00,1.83
6329.00,1.84
6328.00,1.84
6327.00,1.85
6326.00,1.86
6325.00,1.86
6324.00,1.87
6323.00,1.87
6322.00,1.88
6321.00,1.88
6320.00,1.89
6319.00,1.89
6318.00,1.90
6317.00,1.90
6316.00,1.90
6315.00,1.90
6314.00,1.90
6313.00,1.90
6312.00,1.90
6311.00,1.90
6310.00,1.90
6309.00,1.90
6308.00,1.90
6307.00,1.90
6306.00,1.90
6305.00,1.90
6304.00,1.89
6303.00,1.89
6302.00,1.89
6301.00,1.89
6300.00,1.89
6299.00,1.89
6298.00,1.89
6297.00,1.89
6296.00,1.90
6295.00,1.90
6294.00,1.90
6293.00,1.90
6292.00,1.90
6291.00,1.90
6290.00,1.90
6289.00,1.90
6288.00,1.90
6287.00,1.90
6286.00,1.91
6285.00,1.91
6284.00,1.91
6283.00,1.91
6282.00,1.91
6281.00,1.91
6280.00,1.91
6279.00,1.91
6278.00,1.91
6277.00,1.91
6276.00,1.91
6275.00,1.91
6274.00,1.91
6273.00,1.91
6272.00,1.91
6271.00,1.91
6270.00,1.91
6269.00,1.91
6268.00,1.91
6267.00,1.91
6266.00,1.91
6265.00,1.91
6264.00,1.91
6263.00,1.90
6262.00,1.90
6261.00,1.90
6260.00,1.90
6259.00,1.90
6258.00,1.90
6257.00,1.90
6256.00,1.90
6255.00,1.90
6254.00,1.90
6253.00,1.90
6252.00,1.90
6251.00,1.90
6250.00,1.90
6249.00,1.90
6248.00,1.90
6247.00,1.90
6246.00,1.90
6245.00,1.90
6244.00,1.90
6243.00,1.90
6242.00,1.90
6241.00,1.90
6240.00,1.90
6239.00,1.90
6238.00,1.91
6237.00,1.91
6236.00,1.91
6235.00,1.92
6234.00,1.92
6233.00,1.93
6232.00,1.93
6231.00,1.94
6230.00,1.94
6229.00,1.95
6228.00,1.95
6227.00,1.95
6226.00,1.96
6225.00,1.96
6224.00,1.96
6223.00,1.96
6222.00,1.97
6221.00,1.97
6220.00,1.97
6219.00,1.98
6218.00,1.98
6217.00,1.98
6216.00,1.98
6215.00,1.98
6214.00,1.98
6213.00,1.98
6212.00,1.98
6211.00,1.98
6210.00,1.98
6209.00,1.98
6208.00,1.98
6207.00,1.98
6206.00,1.97
6205.00,1.97
6204.00,1.97
6203.00,1.97
6202.00,1.97
6201.00,1.97
6200.00,1.97
6199.00,1.97
6198.00,1.97
6197.00,1.97
6196.00,1.97
6195.00,1.97
6194.00,1.97
6193.00,1.97
6192.00,1.97
6191.00,1.97
6190.00,1.97
6189.00,1.98
6188.00,1.98
6187.00,1.98
6186.00,1.98
6185.00,1.98
6184.00,1.98
6183.00,1.98
6182.00,1.98
6181.00,1.98
6180.00,1.98
6179.00,1.98
6178.00,1.99
6177.00,1.99
6176.00,1.99
6175.00,1.99
6174.00,1.99
6173.00,2.00
6172.00,2.00
6171.00,2.00
6170.00,2.00
6169.00,2.01
6168.00,2.01
6167.00,2.01
6166.00,2.02
6165.00,2.02
6164.00,2.02
6163.00,2.03
6162.00,2.03
6161.00,2.04
6160.00,2.04
6159.00,2.05
6158.00,2.05
6157.00,2.06
6156.00,2.07
6155.00,2.07
6154.00,2.08
6153.00,2.08
6152.00,2.09
6151.00,2.10
6150.00,2.10
6149.00,2.11
6148.00,2.11
6147.00,2.12
6146.00,2.13
6145.00,2.13
6144.00,2.14
6143.00,2.15
6142.00,2.15
6141.00,2.16
6140.00,2.16
6139.00,2.16
6138.00,2.17
6137.00,2.17
6136.00,2.18
6135.00,2.18
6134.00,2.18
6133.00,2.18
6132.00,2.18
6131.00,2.19
6130.00,2.19
6129.00,2.19
6128.00,2.19
6127.00,2.19
6126.00,2.20
6125.00,2.20
6124.00,2.20
6123.00,2.20
6122.00,2.20
6121.00,2.20
6120.00,2.20
6119.00,2.20
6118.00,2.20
6117.00,2.19
6116.00,2.19
6115.00,2.19
6114.00,2.19
6113.00,2.19
6112.00,2.19
6111.00,2.19
6110.00,2.19
6109.00,2.19
6108.00,2.19
6107.00,2.18
6106.00,2.18
6105.00,2.18
6104.00,2.17
6103.00,2.17
6102.00,2.17
6101.00,2.16
6100.00,2.16
6099.00,2.15
6098.00,2.14
6097.00,2.14
6096.00,2.14
6095.00,2.13
6094.00,2.13
6093.00,2.12
6092.00,2.12
6091.00,2.11
6090.00,2.11
6089.00,2.11
6088.00,2.10
6087.00,2.10
6086.00,2.09
6085.00,2.09
6084.00,2.08
6083.00,2.08
6082.00,2.08
6081.00,2.07
6080.00,2.07
6079.00,2.07
6078.00,2.07
6077.00,2.07
6076.00,2.07
6075.00,2.07
6074.00,2.07
6073.00,2.08
6072.00,2.08
6071.00,2.08
6070.00,2.08
6069.00,2.08
6068.00,2.08
6067.00,2.09
6066.00,2.09
6065.00,2.09
6064.00,2.09
6063.00,2.09
6062.00,2.10
6061.00,2.10
6060.00,2.10
6059.00,2.11
6058.00,2.11
6057.00,2.12
6056.00,2.12
6055.00,2.12
6054.00,2.13
6053.00,2.13
6052.00,2.14
6051.00,2.14
6050.00,2.14
6049.00,2.15
6048.00,2.15
6047.00,2.16
6046.00,2.16
6045.00,2.17
6044.00,2.17
6043.00,2.17
6042.00,2.18
6041.00,2.18
6040.00,2.18
6039.00,2.19
6038.00,2.19
6037.00,2.19
6036.00,2.20
6035.00,2.20
6034.00,2.20
6033.00,2.20
6032.00,2.20
6031.00,2.21
6030.00,2.21
6029.00,2.21
6028.00,2.21
6027.00,2.21
6026.00,2.21
6025.00,2.21
6024.00,2.20
6023.00,2.20
6022.00,2.20
6021.00,2.20
6020.00,2.20
6019.00,2.19
6018.00,2.19
6017.00,2.19
6016.00,2.19
6015.00,2.19
6014.00,2.19
6013.00,2.18
6012.00,2.18
6011.00,2.18
6010.00,2.18
6009.00,2.18
6008.00,2.18
6007.00,2.17
6006.00,2.17
6005.00,2.17
6004.00,2.17
6003.00,2.17
6002.00,2.17
6001.00,2.17
6000.00,2.17
5999.00,2.18
5998.00,2.18
5997.00,2.18
5996.00,2.18
5995.00,2.18
5994.00,2.18
5993.00,2.18
5992.00,2.19
5991.00,2.19
5990.00,2.19
5989.00,2.19
5988.00,2.19
5987.00,2.19
5986.00,2.19
5985.00,2.19
5984.00,2.20
5983.00,2.20
5982.00,2.19
5981.00,2.19
5980.00,2.19
5979.00,2.19
5978.00,2.18
5977.00,2.18
5976.00,2.18
5975.00,2.17
5974.00,2.17
5973.00,2.16
5972.00,2.16
5971.00,2.15
5970.00,2.15
5969.00,2.14
5968.00,2.14
5967.00,2.14
5966.00,2.13
5965.00,2.13
5964.00,2.13
5963.00,2.12
5962.00,2.12
5961.00,2.12
5960.00,2.12
5959.00,2.12
5958.00,2.11
5957.00,2.11
5956.00,2.11
5955.00,2.11
5954.00,2.11
5953.00,2.11
5952.00,2.11
5951.00,2.11
5950.00,2.12
5949.00,2.12
5948.00,2.12
5947.00,2.12
5946.00,2.12
5945.00,2.12
5944.00,2.13
5943.00,2.13
5942.00,2.13
5941.00,2.12
5940.00,2.12
5939.00,2.12
5938.00,2.12
5937.00,2.12
5936.00,2.11
5935.00,2.11
5934.00,2.10
5933.00,2.10
5932.00,2.09
5931.00,2.09
5930.00,2.08
5929.00,2.08
5928.00,2.08
5927.00,2.07
5926.00,2.07
5925.00,2.06
5924.00,2.06
5923.00,2.06
5922.00,2.05
5921.00,2.05
5920.00,2.05
5919.00,2.04
5918.00,2.04
5917.00,2.04
5916.00,2.04
5915.00,2.04
5914.00,2.04
5913.00,2.04
5912.00,2.04
5911.00,2.04
5910.00,2.04
5909.00,2.04
5908.00,2.05
5907.00,2.05
5906.00,2.05
5905.00,2.05
5904.00,2.06
5903.00,2.06
5902.00,2.07
5901.00,2.07
5900.00,2.07
5899.00,2.08
5898.00,2.08
5897.00,2.09
5896.00,2.09
5895.00,2.09
5894.00,2.10
5893.00,2.10
5892.00,2.11
5891.00,2.11
5890.00,2.11
5889.00,2.12
5888.00,2.12
5887.00,2.12
5886.00,2.13
5885.00,2.13
5884.00,2.13
5883.00,2.13
5882.00,2.14
5881.00,2.14
5880.00,2.14
5879.00,2.14
5878.00,2.15
5877.00,2.15
5876.00,2.15
5875.00,2.15
5874.00,2.15
5873.00,2.16
5872.00,2.16
5871.00,2.16
5870.00,2.16
5869.00,2.16
5868.00,2.16
5867.00,2.16
5866.00,2.16
5865.00,2.16
5864.00,2.16
5863.00,2.16
5862.00,2.17
5861.00,2.17
5860.00,2.17
5859.00,2.17
5858.00,2.17
5857.00,2.18
5856.00,2.18
5855.00,2.18
5854.00,2.19
5853.00,2.19
5852.00,2.20
5851.00,2.20
5850.00,2.20
5849.00,2.21
5848.00,2.21
5847.00,2.21
5846.00,2.21
5845.00,2.21
5844.00,2.22
5843.00,2.22
5842.00,2.22
5841.00,2.23
5840.00,2.23
5839.00,2.23
5838.00,2.23
5837.00,2.24
5836.00,2.24
5835.00,2.24
5834.00,2.24
5833.00,2.24
5832.00,2.24
5831.00,2.24
5830.00,2.23
5829.00,2.23
5828.00,2.23
5827.00,2.22
5826.00,2.22
5825.00,2.22
5824.00,2.21
5823.00,2.21
5822.00,2.21
5821.00,2.20
5820.00,2.20
5819.00,2.20
5818.00,2.19
5817.00,2.19
5816.00,2.18
5815.00,2.18
5814.00,2.17
5813.00,2.17
5812.00,2.16
5811.00,2.15
5810.00,2.15
5809.00,2.14
5808.00,2.14
5807.00,2.14
5806.00,2.13
5805.00,2.13
5804.00,2.13
5803.00,2.13
5802.00,2.12
5801.00,2.12
5800.00,2.12
5799.00,2.12
5798.00,2.12
5797.00,2.12
5796.00,2.12
5795.00,2.12
5794.00,2.12
5793.00,2.13
5792.00,2.13
5791.00,2.13
5790.00,2.14
5789.00,2.14
5788.00,2.14
5787.00,2.15
5786.00,2.15
5785.00,2.16
5784.00,2.16
5783.00,2.17
5782.00,2.17
5781.00,2.17
5780.00,2.18
5779.00,2.18
5778.00,2.18
5777.00,2.19
5776.00,2.19
5775.00,2.19
5774.00,2.20
5773.00,2.20
5772.00,2.20
5771.00,2.20
5770.00,2.20
5769.00,2.20
5768.00,2.21
5767.00,2.21
5766.00,2.21
5765.00,2.21
5764.00,2.21
5763.00,2.21
5762.00,2.21
5761.00,2.21
5760.00,2.21
5759.00,2.21
5758.00,2.21
5757.00,2.21
5756.00,2.21
5755.00,2.21
5754.00,2.21
5753.00,2.21
5752.00,2.21
5751.00,2.21
5750.00,2.21
5749.00,2.21
5748.00,2.21
5747.00,2.21
5746.00,2.21
5745.00,2.20
5744.00,2.20
5743.00,2.20
5742.00,2.20
5741.00,2.20
5740.00,2.20
5739.00,2.20
5738.00,2.20
5737.00,2.20
5736.00,2.19
5735.00,2.19
5734.00,2.19
5733.00,2.19
5732.00,2.19
5731.00,2.19
5730.00,2.19
5729.00,2.19
5728.00,2.19
5727.00,2.19
5726.00,2.19
5725.00,2.19
5724.00,2.19
5723.00,2.19
5722.00,2.19
5721.00,2.19
5720.00,2.19
5719.00,2.19
5718.00,2.19
5717.00,2.19
5716.00,2.19
5715.00,2.19
5714.00,2.19
5713.00,2.20
5712.00,2.20
5711.00,2.20
5710.00,2.20
5709.00,2.20
5708.00,2.20
5707.00,2.20
5706.00,2.20
5705.00,2.20
5704.00,2.20
5703.00,2.20
5702.00,2.20
5701.00,2.20
5700.00,2.20
5699.00,2.20
5698.00,2.20
5697.00,2.20
5696.00,2.20
5695.00,2.20
5694.00,2.20
5693.00,2.20
5692.00,2.20
5691.00,2.20
5690.00,2.20
5689.00,2.20
5688.00,2.19
5687.00,2.19
5686.00,2.19
5685.00,2.19
5684.00,2.19
5683.00,2.19
5682.00,2.19
5681.00,2.19
5680.00,2.19
5679.00,2.19
5678.00,2.19
5677.00,2.19
5676.00,2.19
5675.00,2.19
5674.00,2.19
5673.00,2.19
5672.00,2.19
5671.00,2.19
5670.00,2.19
5669.00,2.19
5668.00,2.19
5667.00,2.18
5666.00,2.18
5665.00,2.18
5664.00,2.18
5663.00,2.18
5662.00,2.18
5661.00,2.18
5660.00,2.18
5659.00,2.18
5658.00,2.18
5657.00,2.18
5656.00,2.18
5655.00,2.19
5654.00,2.19
5653.00,2.19
5652.00,2.19
5651.00,2.19
5650.00,2.19
5649.00,2.18
5648.00,2.18
5647.00,2.18
5646.00,2.18
5645.00,2.18
5644.00,2.18
5643.00,2.18
5642.00,2.18
5641.00,2.18
5640.00,2.18
5639.00,2.18
5638.00,2.18
5637.00,2.18
5636.00,2.18
5635.00,2.18
5634.00,2.17
5633.00,2.17
5632.00,2.17
5631.00,2.17
5630.00,2.16
5629.00,2.16
5628.00,2.16
5627.00,2.15
5626.00,2.15
5625.00,2.15
5624.00,2.15
5623.00,2.15
5622.00,2.15
5621.00,2.15
5620.00,2.15
5619.00,2.15
5618.00,2.16
5617.00,2.16
5616.00,2.16
5615.00,2.17
5614.00,2.17
5613.00,2.17
5612.00,2.18
5611.00,2.18
5610.00,2.19
5609.00,2.19
5608.00,2.20
5607.00,2.20
5606.00,2.21
5605.00,2.21
5604.00,2.22
5603.00,2.22
5602.00,2.23
5601.00,2.24
5600.00,2.24
5599.00,2.25
5598.00,2.25
5597.00,2.26
5596.00,2.27
5595.00,2.27
5594.00,2.27
5593.00,2.28
5592.00,2.28
5591.00,2.28
5590.00,2.28
5589.00,2.29
5588.00,2.29
5587.00,2.29
5586.00,2.29
5585.00,2.29
5584.00,2.29
5583.00,2.29
5582.00,2.28
5581.00,2.28
5580.00,2.28
5579.00,2.28
5578.00,2.28
5577.00,2.28
5576.00,2.27
5575.00,2.27
5574.00,2.27
5573.00,2.27
5572.00,2.26
5571.00,2.26
5570.00,2.26
5569.00,2.25
5568.00,2.25
5567.00,2.25
5566.00,2.25
5565.00,2.25
5564.00,2.24
5563.00,2.24
5562.00,2.24
5561.00,2.24
5560.00,2.24
5559.00,2.24
5558.00,2.25
5557.00,2.25
5556.00,2.25
5555.00,2.25
5554.00,2.25
5553.00,2.26
5552.00,2.26
5551.00,2.26
5550.00,2.26
5549.00,2.27
5548.00,2.27
5547.00,2.27
5546.00,2.28
5545.00,2.28
5544.00,2.28
5543.00,2.29
5542.00,2.29
5541.00,2.29
5540.00,2.29
5539.00,2.29
5538.00,2.30
5537.00,2.30
5536.00,2.30
5535.00,2.29
5534.00,2.29
5533.00,2.29
5532.00,2.29
5531.00,2.29
5530.00,2.28
5529.00,2.28
5528.00,2.28
5527.00,2.28
5526.00,2.27
5525.00,2.27
5524.00,2.26
5523.00,2.26
5522.00,2.26
5521.00,2.25
5520.00,2.25
5519.00,2.25
5518.00,2.24
5517.00,2.24
5516.00,2.24
5515.00,2.23
5514.00,2.23
5513.00,2.22
5512.00,2.22
5511.00,2.22
5510.00,2.22
5509.00,2.22
5508.00,2.22
5507.00,2.22
5506.00,2.22
5505.00,2.22
5504.00,2.22
5503.00,2.22
5502.00,2.22
5501.00,2.22
5500.00,2.23
5499.00,2.23
5498.00,2.23
5497.00,2.23
5496.00,2.23
5495.00,2.23
5494.00,2.23
5493.00,2.24
5492.00,2.24
5491.00,2.24
5490.00,2.24
5489.00,2.25
5488.00,2.25
5487.00,2.25
5486.00,2.26
5485.00,2.26
5484.00,2.26
5483.00,2.26
5482.00,2.27
5481.00,2.27
5480.00,2.27
5479.00,2.27
5478.00,2.27
5477.00,2.27
5476.00,2.27
5475.00,2.27
5474.00,2.28
5473.00,2.28
5472.00,2.28
5471.00,2.28
5470.00,2.28
5469.00,2.29
5468.00,2.29
5467.00,2.29
5466.00,2.30
5465.00,2.30
5464.00,2.30
5463.00,2.30
5462.00,2.30
5461.00,2.30
5460.00,2.31
5459.00,2.31
5458.00,2.31
5457.00,2.31
5456.00,2.31
5455.00,2.31
5454.00,2.31
5453.00,2.31
5452.00,2.31
5451.00,2.31
5450.00,2.31
5449.00,2.31
5448.00,2.30
5447.00,2.30
5446.00,2.30
5445.00,2.30
5444.00,2.29
5443.00,2.29
5442.00,2.28
5441.00,2.28
5440.00,2.28
5439.00,2.27
5438.00,2.27
5437.00,2.27
5436.00,2.26
5435.00,2.26
5434.00,2.26
5433.00,2.25
5432.00,2.25
5431.00,2.25
5430.00,2.24
5429.00,2.24
5428.00,2.24
5427.00,2.24
5426.00,2.23
5425.00,2.23
5424.00,2.23
5423.00,2.23
5422.00,2.22
5421.00,2.22
5420.00,2.22
5419.00,2.23
5418.00,2.23
5417.00,2.23
5416.00,2.23
5415.00,2.23
5414.00,2.23
5413.00,2.24
5412.00,2.24
5411.00,2.24
5410.00,2.24
5409.00,2.23
5408.00,2.23
5407.00,2.23
5406.00,2.23
5405.00,2.23
5404.00,2.23
5403.00,2.23
5402.00,2.23
5401.00,2.23
5400.00,2.23
5399.00,2.23
5398.00,2.23
5397.00,2.23
5396.00,2.23
5395.00,2.23
5394.00,2.23
5393.00,2.22
5392.00,2.22
5391.00,2.22
5390.00,2.21
5389.00,2.21
5388.00,2.20
5387.00,2.20
5386.00,2.19
5385.00,2.19
5384.00,2.19
5383.00,2.18
5382.00,2.18
5381.00,2.18
5380.00,2.17
5379.00,2.17
5378.00,2.17
5377.00,2.16
5376.00,2.16
5375.00,2.15
5374.00,2.15
5373.00,2.14
5372.00,2.14
5371.00,2.13
5370.00,2.13
5369.00,2.12
5368.00,2.11
5367.00,2.11
5366.00,2.10
5365.00,2.09
5364.00,2.09
5363.00,2.08
5362.00,2.07
5361.00,2.06
5360.00,2.06
5359.00,2.05
5358.00,2.04
5357.00,2.03
5356.00,2.02
5355.00,2.01
5354.00,2.00
5353.00,1.99
5352.00,1.98
5351.00,1.97
5350.00,1.96
5349.00,1.95
5348.00,1.94
5347.00,1.93
5346.00,1.92
5345.00,1.91
5344.00,1.90
5343.00,1.89
5342.00,1.88
5341.00,1.88
5340.00,1.87
5339.00,1.86
5338.00,1.85
5337.00,1.85
5336.00,1.84
5335.00,1.83
5334.00,1.83
5333.00,1.82
5332.00,1.81
5331.00,1.81
5330.00,1.80
5329.00,1.79
5328.00,1.79
5327.00,1.78
5326.00,1.77
5325.00,1.76
5324.00,1.76
5323.00,1.75
5322.00,1.74
5321.00,1.73
5320.00,1.73
5319.00,1.72
5318.00,1.71
5317.00,1.70
5316.00,1.69
5315.00,1.68
5314.00,1.67
5313.00,1.66
5312.00,1.65
5311.00,1.64
5310.00,1.63
5309.00,1.62
5308.00,1.60
5307.00,1.59
5306.00,1.58
5305.00,1.57
5304.00,1.56
5303.00,1.55
5302.00,1.53
5301.00,1.52
5300.00,1.51
5299.00,1.50
5298.00,1.49
5297.00,1.48
5296.00,1.47
5295.00,1.46
5294.00,1.45
5293.00,1.44
5292.00,1.43
5291.00,1.42
5290.00,1.41
5289.00,1.40
5288.00,1.39
5287.00,1.38
5286.00,1.37
5285.00,1.37
5284.00,1.36
5283.00,1.35
5282.00,1.35
5281.00,1.34
5280.00,1.33
5279.00,1.33
5278.00,1.32
5277.00,1.32
5276.00,1.31
5275.00,1.30
5274.00,1.30
5273.00,1.29
5272.00,1.29
5271.00,1.28
5270.00,1.27
5269.00,1.27
5268.00,1.26
5267.00,1.26
5266.00,1.25
5265.00,1.24
5264.00,1.24
5263.00,1.23
5262.00,1.22
5261.00,1.22
5260.00,1.21
5259.00,1.20
5258.00,1.20
5257.00,1.19
5256.00,1.18
5255.00,1.18
5254.00,1.17
5253.00,1.16
5252.00,1.16
5251.00,1.15
5250.00,1.14
5249.00,1.14
5248.00,1.13
5247.00,1.13
5246.00,1.12
5245.00,1.12
5244.00,1.11
5243.00,1.11
5242.00,1.10
5241.00,1.10
5240.00,1.10
5239.00,1.09
5238.00,1.09
5237.00,1.09
5236.00,1.09
5235.00,1.09
5234.00,1.09
5233.00,1.09
5232.00,1.09
5231.00,1.10
5230.00,1.10
5229.00,1.10
5228.00,1.10
5227.00,1.10
5226.00,1.11
5225.00,1.11
5224.00,1.11
5223.00,1.11
5222.00,1.12
5221.00,1.12
5220.00,1.12
5219.00,1.13
5218.00,1.13
5217.00,1.13
5216.00,1.13
5215.00,1.13
5214.00,1.13
5213.00,1.13
5212.00,1.13
5211.00,1.13
5210.00,1.13
5209.00,1.13
5208.00,1.13
5207.00,1.13
5206.00,1.13
5205.00,1.12
5204.00,1.12
5203.00,1.12
5202.00,1.12
5201.00,1.11
5200.00,1.11
5199.00,1.11
5198.00,1.10
5197.00,1.10
5196.00,1.09
5195.00,1.09
5194.00,1.08
5193.00,1.08
5192.00,1.08
5191.00,1.07
5190.00,1.07
5189.00,1.07
5188.00,1.06
5187.00,1.06
5186.00,1.06
5185.00,1.06
5184.00,1.06
5183.00,1.06
5182.00,1.06
5181.00,1.06
5180.00,1.06
5179.00,1.06
5178.00,1.06
5177.00,1.06
5176.00,1.06
5175.00,1.06
5174.00,1.06
5173.00,1.06
5172.00,1.06
5171.00,1.06
5170.00,1.06
5169.00,1.07
5168.00,1.07
5167.00,1.07
5166.00,1.08
5165.00,1.08
5164.00,1.08
5163.00,1.09
5162.00,1.09
5161.00,1.09
5160.00,1.10
5159.00,1.10
5158.00,1.10
5157.00,1.10
5156.00,1.10
5155.00,1.10
5154.00,1.10
5153.00,1.10
5152.00,1.10
5151.00,1.11
5150.00,1.11
5149.00,1.11
5148.00,1.11
5147.00,1.11
5146.00,1.11
5145.00,1.11
5144.00,1.11
5143.00,1.11
5142.00,1.11
5141.00,1.11
5140.00,1.11
5139.00,1.12
5138.00,1.12
5137.00,1.12
5136.00,1.12
5135.00,1.12
5134.00,1.13
5133.00,1.13
5132.00,1.13
5131.00,1.13
5130.00,1.13
5129.00,1.14
5128.00,1.14
5127.00,1.15
5126.00,1.15
5125.00,1.16
5124.00,1.16
5123.00,1.17
5122.00,1.17
5121.00,1.18
5120.00,1.18
5119.00,1.19
5118.00,1.19
5117.00,1.20
5116.00,1.20
5115.00,1.21
5114.00,1.21
5113.00,1.21
5112.00,1.21
5111.00,1.22
5110.00,1.22
5109.00,1.22
5108.00,1.22
5107.00,1.22
5106.00,1.22
5105.00,1.23
5104.00,1.23
5103.00,1.23
5102.00,1.23
5101.00,1.23
5100.00,1.23
5099.00,1.23
5098.00,1.23
5097.00,1.23
5096.00,1.23
5095.00,1.23
5094.00,1.22
5093.00,1.22
5092.00,1.22
5091.00,1.22
5090.00,1.22
5089.00,1.22
5088.00,1.22
5087.00,1.22
5086.00,1.22
5085.00,1.22
5084.00,1.22
5083.00,1.22
5082.00,1.21
5081.00,1.21
5080.00,1.21
5079.00,1.21
5078.00,1.21
5077.00,1.21
5076.00,1.21
5075.00,1.20
5074.00,1.20
5073.00,1.20
5072.00,1.20
5071.00,1.20
5070.00,1.19
5069.00,1.19
5068.00,1.19
5067.00,1.19
5066.00,1.19
5065.00,1.19
5064.00,1.19
5063.00,1.18
5062.00,1.18
5061.00,1.18
5060.00,1.18
5059.00,1.18
5058.00,1.18
5057.00,1.18
5056.00,1.18
5055.00,1.18
5054.00,1.18
5053.00,1.18
5052.00,1.18
5051.00,1.19
5050.00,1.19
5049.00,1.19
5048.00,1.20
5047.00,1.20
5046.00,1.21
5045.00,1.21
5044.00,1.22
5043.00,1.22
5042.00,1.23
5041.00,1.23
5040.00,1.24
5039.00,1.24
5038.00,1.25
5037.00,1.26
5036.00,1.26
5035.00,1.27
5034.00,1.27
5033.00,1.28
5032.00,1.28
5031.00,1.29
5030.00,1.29
5029.00,1.30
5028.00,1.31
5027.00,1.31
5026.00,1.32
5025.00,1.32
5024.00,1.33
5023.00,1.33
5022.00,1.34
5021.00,1.34
5020.00,1.34
5019.00,1.35
5018.00,1.35
5017.00,1.35
5016.00,1.35
5015.00,1.36
5014.00,1.36
5013.00,1.36
5012.00,1.36
5011.00,1.36
5010.00,1.36
5009.00,1.37
5008.00,1.37
5007.00,1.37
5006.00,1.37
5005.00,1.37
5004.00,1.37
5003.00,1.37
5002.00,1.37
5001.00,1.36
5000.00,1.36
4999.00,1.36
4998.00,1.35
4997.00,1.35
4996.00,1.35
4995.00,1.35
4994.00,1.34
4993.00,1.34
4992.00,1.34
4991.00,1.34
4990.00,1.34
4989.00,1.34
4988.00,1.33
4987.00,1.33
4986.00,1.33
4985.00,1.33
4984.00,1.33
4983.00,1.33
4982.00,1.33
4981.00,1.33
4980.00,1.33
4979.00,1.33
4978.00,1.34
4977.00,1.34
4976.00,1.34
4975.00,1.35
4974.00,1.35
4973.00,1.36
4972.00,1.37
4971.00,1.37
4970.00,1.38
4969.00,1.39
4968.00,1.40
4967.00,1.40
4966.00,1.41
4965.00,1.42
4964.00,1.42
4963.00,1.43
4962.00,1.44
4961.00,1.44
4960.00,1.45
4959.00,1.45
4958.00,1.46
4957.00,1.46
4956.00,1.46
4955.00,1.47
4954.00,1.47
4953.00,1.47
4952.00,1.47
4951.00,1.48
4950.00,1.48
4949.00,1.48
4948.00,1.48
4947.00,1.48
4946.00,1.47
4945.00,1.47
4944.00,1.47
4943.00,1.47
4942.00,1.46
4941.00,1.46
4940.00,1.46
4939.00,1.45
4938.00,1.45
4937.00,1.45
4936.00,1.44
4935.00,1.44
4934.00,1.44
4933.00,1.44
4932.00,1.44
4931.00,1.44
4930.00,1.44
4929.00,1.44
4928.00,1.44
4927.00,1.44
4926.00,1.44
4925.00,1.44
4924.00,1.45
4923.00,1.45
4922.00,1.45
4921.00,1.45
4920.00,1.46
4919.00,1.46
4918.00,1.47
4917.00,1.47
4916.00,1.48
4915.00,1.48
4914.00,1.49
4913.00,1.50
4912.00,1.50
4911.00,1.51
4910.00,1.51
4909.00,1.52
4908.00,1.52
4907.00,1.53
4906.00,1.53
4905.00,1.54
4904.00,1.54
4903.00,1.54
4902.00,1.55
4901.00,1.55
4900.00,1.55
4899.00,1.56
4898.00,1.56
4897.00,1.57
4896.00,1.57
4895.00,1.57
4894.00,1.58
4893.00,1.58
4892.00,1.58
4891.00,1.59
4890.00,1.59
4889.00,1.59
4888.00,1.59
4887.00,1.60
4886.00,1.60
4885.00,1.60
4884.00,1.61
4883.00,1.61
4882.00,1.61
4881.00,1.62
4880.00,1.63
4879.00,1.63
4878.00,1.64
4877.00,1.64
4876.00,1.65
4875.00,1.65
4874.00,1.66
4873.00,1.66
4872.00,1.67
4871.00,1.67
4870.00,1.67
4869.00,1.68
4868.00,1.68
4867.00,1.68
4866.00,1.68
4865.00,1.69
4864.00,1.69
4863.00,1.69
4862.00,1.70
4861.00,1.70
4860.00,1.70
4859.00,1.70
4858.00,1.70
4857.00,1.70
4856.00,1.70
4855.00,1.70
4854.00,1.70
4853.00,1.69
4852.00,1.69
4851.00,1.69
4850.00,1.68
4849.00,1.68
4848.00,1.68
4847.00,1.68
4846.00,1.67
4845.00,1.67
4844.00,1.67
4843.00,1.67
4842.00,1.67
4841.00,1.67
4840.00,1.67
4839.00,1.67
4838.00,1.66
4837.00,1.66
4836.00,1.66
4835.00,1.66
4834.00,1.66
4833.00,1.66
4832.00,1.66
4831.00,1.66
4830.00,1.66
4829.00,1.66
4828.00,1.67
4827.00,1.67
4826.00,1.68
4825.00,1.68
4824.00,1.68
4823.00,1.69
4822.00,1.69
4821.00,1.70
4820.00,1.70
4819.00,1.70
4818.00,1.71
4817.00,1.71
4816.00,1.71
4815.00,1.71
4814.00,1.72
4813.00,1.72
4812.00,1.72
4811.00,1.73
4810.00,1.73
4809.00,1.73
4808.00,1.73
4807.00,1.74
4806.00,1.74
4805.00,1.74
4804.00,1.74
4803.00,1.74
4802.00,1.74
4801.00,1.74
4800.00,1.74
4799.00,1.74
4798.00,1.74
4797.00,1.74
4796.00,1.74
4795.00,1.75
4794.00,1.75
4793.00,1.75
4792.00,1.76
4791.00,1.76
4790.00,1.76
4789.00,1.77
4788.00,1.77
4787.00,1.77
4786.00,1.78
4785.00,1.78
4784.00,1.79
4783.00,1.80
4782.00,1.80
4781.00,1.81
4780.00,1.82
4779.00,1.82
4778.00,1.83
4777.00,1.84
4776.00,1.85
4775.00,1.86
4774.00,1.86
4773.00,1.87
4772.00,1.87
4771.00,1.88
4770.00,1.88
4769.00,1.89
4768.00,1.89
4767.00,1.89
4766.00,1.90
4765.00,1.90
4764.00,1.90
4763.00,1.91
4762.00,1.91
4761.00,1.91
4760.00,1.91
4759.00,1.91
4758.00,1.92
4757.00,1.92
4756.00,1.92
4755.00,1.92
4754.00,1.92
4753.00,1.92
4752.00,1.92
4751.00,1.92
4750.00,1.91
4749.00,1.91
4748.00,1.91
4747.00,1.91
4746.00,1.91
4745.00,1.91
4744.00,1.92
4743.00,1.92
4742.00,1.92
4741.00,1.92
4740.00,1.92
4739.00,1.92
4738.00,1.93
4737.00,1.93
4736.00,1.93
4735.00,1.93
4734.00,1.93
4733.00,1.94
4732.00,1.94
4731.00,1.94
4730.00,1.94
4729.00,1.95
4728.00,1.95
4727.00,1.95
4726.00,1.95
4725.00,1.95
4724.00,1.96
4723.00,1.96
4722.00,1.96
4721.00,1.96
4720.00,1.97
4719.00,1.97
4718.00,1.97
4717.00,1.97
4716.00,1.98
4715.00,1.98
4714.00,1.99
4713.00,1.99
4712.00,1.99
4711.00,2.00
4710.00,2.00
4709.00,2.00
4708.00,2.01
4707.00,2.01
4706.00,2.01
4705.00,2.02
4704.00,2.02
4703.00,2.03
4702.00,2.03
4701.00,2.04
4700.00,2.04
4699.00,2.05
4698.00,2.05
4697.00,2.06
4696.00,2.06
4695.00,2.07
4694.00,2.07
4693.00,2.08
4692.00,2.08
4691.00,2.09
4690.00,2.09
4689.00,2.09
4688.00,2.10
4687.00,2.10
4686.00,2.10
4685.00,2.10
4684.00,2.11
4683.00,2.11
4682.00,2.11
4681.00,2.12
4680.00,2.12
4679.00,2.12
4678.00,2.13
4677.00,2.13
4676.00,2.14
4675.00,2.14
4674.00,2.15
4673.00,2.15
4672.00,2.15
4671.00,2.16
4670.00,2.16
4669.00,2.17
4668.00,2.17
4667.00,2.17
4666.00,2.17
4665.00,2.17
4664.00,2.17
4663.00,2.18
4662.00,2.18
4661.00,2.18
4660.00,2.18
4659.00,2.18
4658.00,2.18
4657.00,2.18
4656.00,2.18
4655.00,2.18
4654.00,2.18
4653.00,2.18
4652.00,2.17
4651.00,2.17
4650.00,2.17
4649.00,2.16
4648.00,2.16
4647.00,2.15
4646.00,2.15
4645.00,2.14
4644.00,2.13
4643.00,2.13
4642.00,2.12
4641.00,2.12
4640.00,2.11
4639.00,2.11
4638.00,2.11
4637.00,2.10
4636.00,2.10
4635.00,2.10
4634.00,2.10
4633.00,2.10
4632.00,2.10
4631.00,2.10
4630.00,2.10
4629.00,2.10
4628.00,2.11
4627.00,2.11
4626.00,2.11
4625.00,2.11
4624.00,2.12
4623.00,2.12
4622.00,2.13
4621.00,2.13
4620.00,2.13
4619.00,2.14
4618.00,2.15
4617.00,2.15
4616.00,2.16
4615.00,2.16
4614.00,2.17
4613.00,2.18
4612.00,2.19
4611.00,2.19
4610.00,2.20
4609.00,2.20
4608.00,2.21
4607.00,2.21
4606.00,2.21
4605.00,2.21
4604.00,2.22
4603.00,2.22
4602.00,2.22
4601.00,2.22
4600.00,2.22
4599.00,2.23
4598.00,2.23
4597.00,2.23
4596.00,2.24
4595.00,2.24
4594.00,2.24
4593.00,2.24
4592.00,2.25
4591.00,2.25
4590.00,2.25
4589.00,2.25
4588.00,2.25
4587.00,2.25
4586.00,2.25
4585.00,2.25
4584.00,2.25
4583.00,2.25
4582.00,2.25
4581.00,2.25
4580.00,2.25
4579.00,2.25
4578.00,2.25
4577.00,2.25
4576.00,2.25
4575.00,2.25
4574.00,2.25
4573.00,2.25
4572.00,2.25
4571.00,2.25
4570.00,2.25
4569.00,2.25
4568.00,2.25
4567.00,2.25
4566.00,2.24
4565.00,2.24
4564.00,2.24
4563.00,2.24
4562.00,2.24
4561.00,2.24
4560.00,2.24
4559.00,2.24
4558.00,2.24
4557.00,2.24
4556.00,2.24
4555.00,2.24
4554.00,2.24
4553.00,2.24
4552.00,2.24
4551.00,2.24
4550.00,2.24
4549.00,2.24
4548.00,2.24
4547.00,2.23
4546.00,2.23
4545.00,2.23
4544.00,2.24
4543.00,2.24
4542.00,2.24
4541.00,2.24
4540.00,2.24
4539.00,2.24
4538.00,2.24
4537.00,2.25
4536.00,2.25
4535.00,2.25
4534.00,2.25
4533.00,2.26
4532.00,2.26
4531.00,2.26
4530.00,2.27
4529.00,2.27
4528.00,2.27
4527.00,2.28
4526.00,2.28
4525.00,2.29
4524.00,2.29
4523.00,2.29
4522.00,2.30
4521.00,2.30
4520.00,2.30
4519.00,2.31
4518.00,2.31
4517.00,2.31
4516.00,2.32
4515.00,2.32
4514.00,2.32
4513.00,2.32
4512.00,2.32
4511.00,2.32
4510.00,2.32
4509.00,2.32
4508.00,2.32
4507.00,2.31
4506.00,2.31
4505.00,2.31
4504.00,2.31
4503.00,2.30
4502.00,2.30
4501.00,2.30
4500.00,2.30
4499.00,2.30
4498.00,2.29
4497.00,2.29
4496.00,2.29
4495.00,2.29
4494.00,2.29
4493.00,2.28
4492.00,2.28
4491.00,2.28
4490.00,2.27
4489.00,2.27
4488.00,2.27
4487.00,2.27
4486.00,2.27
4485.00,2.26
4484.00,2.26
4483.00,2.27
4482.00,2.27
4481.00,2.27
4480.00,2.27
4479.00,2.27
4478.00,2.27
4477.00,2.27
4476.00,2.27
4475.00,2.27
4474.00,2.27
4473.00,2.27
4472.00,2.27
4471.00,2.27
4470.00,2.27
4469.00,2.27
4468.00,2.27
4467.00,2.27
4466.00,2.26
4465.00,2.26
4464.00,2.26
4463.00,2.26
4462.00,2.26
4461.00,2.26
4460.00,2.26
4459.00,2.26
4458.00,2.26
4457.00,2.26
4456.00,2.25
4455.00,2.25
4454.00,2.25
4453.00,2.24
4452.00,2.24
4451.00,2.23
4450.00,2.23
4449.00,2.22
4448.00,2.22
4447.00,2.21
4446.00,2.20
4445.00,2.20
4444.00,2.19
4443.00,2.19
4442.00,2.18
4441.00,2.17
4440.00,2.17
4439.00,2.16
4438.00,2.15
4437.00,2.15
4436.00,2.14
4435.00,2.13
4434.00,2.12
4433.00,2.11
4432.00,2.10
4431.00,2.09
4430.00,2.08
4429.00,2.07
4428.00,2.06
4427.00,2.05
4426.00,2.04
4425.00,2.04
4424.00,2.03
4423.00,2.02
4422.00,2.02
4421.00,2.01
4420.00,2.01
4419.00,2.01
4418.00,2.00
4417.00,2.00
4416.00,2.00
4415.00,1.99
4414.00,1.99
4413.00,1.99
4412.00,1.99
4411.00,1.99
4410.00,1.98
4409.00,1.98
4408.00,1.99
4407.00,1.99
4406.00,1.99
4405.00,1.99
4404.00,2.00
4403.00,2.00
4402.00,2.01
4401.00,2.01
4400.00,2.02
4399.00,2.02
4398.00,2.02
4397.00,2.02
4396.00,2.03
4395.00,2.03
4394.00,2.03
4393.00,2.03
4392.00,2.03
4391.00,2.03
4390.00,2.03
4389.00,2.03
4388.00,2.03
4387.00,2.03
4386.00,2.03
4385.00,2.02
4384.00,2.02
4383.00,2.02
4382.00,2.02
4381.00,2.01
4380.00,2.01
4379.00,2.01
4378.00,2.00
4377.00,2.00
4376.00,1.99
4375.00,1.99
4374.00,1.98
4373.00,1.98
4372.00,1.98
4371.00,1.97
4370.00,1.97
4369.00,1.97
4368.00,1.96
4367.00,1.96
4366.00,1.96
4365.00,1.96
4364.00,1.95
4363.00,1.95
4362.00,1.95
4361.00,1.95
4360.00,1.95
4359.00,1.95
4358.00,1.95
4357.00,1.95
4356.00,1.95
4355.00,1.95
4354.00,1.95
4353.00,1.95
4352.00,1.95
4351.00,1.96
4350.00,1.96
4349.00,1.96
4348.00,1.96
4347.00,1.96
4346.00,1.96
4345.00,1.96
4344.00,1.96
4343.00,1.97
4342.00,1.97
4341.00,1.97
4340.00,1.98
4339.00,1.98
4338.00,1.98
4337.00,1.99
4336.00,1.99
4335.00,2.00
4334.00,2.00
4333.00,2.01
4332.00,2.01
4331.00,2.02
4330.00,2.02
4329.00,2.03
4328.00,2.03
4327.00,2.04
4326.00,2.04
4325.00,2.04
4324.00,2.05
4323.00,2.05
4322.00,2.05
4321.00,2.06
4320.00,2.06
4319.00,2.07
4318.00,2.07
4317.00,2.07
4316.00,2.08
4315.00,2.08
4314.00,2.08
4313.00,2.08
4312.00,2.08
4311.00,2.09
4310.00,2.09
4309.00,2.09
4308.00,2.09
4307.00,2.10
4306.00,2.10
4305.00,2.10
4304.00,2.11
4303.00,2.11
4302.00,2.11
4301.00,2.12
4300.00,2.12
4299.00,2.12
4298.00,2.13
4297.00,2.13
4296.00,2.14
4295.00,2.14
4294.00,2.14
4293.00,2.15
4292.00,2.15
4291.00,2.15
4290.00,2.15
4289.00,2.15
4288.00,2.15
4287.00,2.15
4286.00,2.15
4285.00,2.15
4284.00,2.15
4283.00,2.15
4282.00,2.14
4281.00,2.14
4280.00,2.13
4279.00,2.13
4278.00,2.12
4277.00,2.11
4276.00,2.10
4275.00,2.09
4274.00,2.09
4273.00,2.08
4272.00,2.07
4271.00,2.06
4270.00,2.05
4269.00,2.04
4268.00,2.03
4267.00,2.02
4266.00,2.01
4265.00,2.01
4264.00,2.00
4263.00,1.99
4262.00,1.99
4261.00,1.99
4260.00,1.98
4259.00,1.98
4258.00,1.97
4257.00,1.97
4256.00,1.96
4255.00,1.96
4254.00,1.95
4253.00,1.95
4252.00,1.95
4251.00,1.95
4250.00,1.95
4249.00,1.95
4248.00,1.95
4247.00,1.95
4246.00,1.95
4245.00,1.95
4244.00,1.95
4243.00,1.95
4242.00,1.95
4241.00,1.95
4240.00,1.96
4239.00,1.96
4238.00,1.96
4237.00,1.96
4236.00,1.96
4235.00,1.96
4234.00,1.96
4233.00,1.96
4232.00,1.96
4231.00,1.96
4230.00,1.96
4229.00,1.97
4228.00,1.97
4227.00,1.97
4226.00,1.98
4225.00,1.98
4224.00,1.99
4223.00,1.99
4222.00,2.00
4221.00,2.00
4220.00,2.00
4219.00,2.00
4218.00,2.01
4217.00,2.01
4216.00,2.00
4215.00,2.00
4214.00,2.00
4213.00,2.00
4212.00,2.00
4211.00,2.00
4210.00,2.00
4209.00,1.99
4208.00,1.99
4207.00,1.99
4206.00,1.99
4205.00,1.99
4204.00,1.99
4203.00,1.99
4202.00,1.98
4201.00,1.98
4200.00,1.98
4199.00,1.97
4198.00,1.97
4197.00,1.96
4196.00,1.95
4195.00,1.95
4194.00,1.94
4193.00,1.94
4192.00,1.93
4191.00,1.93
4190.00,1.93
4189.00,1.93
4188.00,1.93
4187.00,1.94
4186.00,1.94
4185.00,1.94
4184.00,1.95
4183.00,1.95
4182.00,1.95
4181.00,1.96
4180.00,1.96
4179.00,1.97
4178.00,1.97
4177.00,1.98
4176.00,1.99
4175.00,1.99
4174.00,2.00
4173.00,2.01
4172.00,2.02
4171.00,2.03
4170.00,2.04
4169.00,2.05
4168.00,2.06
4167.00,2.07
4166.00,2.09
4165.00,2.10
4164.00,2.10
4163.00,2.11
4162.00,2.12
4161.00,2.13
4160.00,2.14
4159.00,2.15
4158.00,2.16
4157.00,2.16
4156.00,2.17
4155.00,2.17
4154.00,2.18
4153.00,2.18
4152.00,2.19
4151.00,2.19
4150.00,2.20
4149.00,2.20
4148.00,2.20
4147.00,2.20
4146.00,2.20
4145.00,2.20
4144.00,2.20
4143.00,2.20
4142.00,2.19
4141.00,2.19
4140.00,2.19
4139.00,2.18
4138.00,2.18
4137.00,2.18
4136.00,2.17
4135.00,2.16
4134.00,2.16
4133.00,2.15
4132.00,2.15
4131.00,2.14
4130.00,2.14
4129.00,2.13
4128.00,2.12
4127.00,2.12
4126.00,2.11
4125.00,2.10
4124.00,2.09
4123.00,2.08
4122.00,2.07
4121.00,2.07
4120.00,2.06
4119.00,2.05
4118.00,2.04
4117.00,2.04
4116.00,2.04
4115.00,2.03
4114.00,2.03
4113.00,2.02
4112.00,2.01
4111.00,2.01
4110.00,2.00
4109.00,2.00
4108.00,1.99
4107.00,1.99
4106.00,1.98
4105.00,1.98
4104.00,1.98
4103.00,1.97
4102.00,1.97
4101.00,1.96
4100.00,1.96
4099.00,1.95
4098.00,1.95
4097.00,1.95
4096.00,1.95
4095.00,1.94
4094.00,1.94
4093.00,1.94
4092.00,1.94
4091.00,1.93
4090.00,1.93
4089.00,1.92
4088.00,1.92
4087.00,1.91
4086.00,1.91
4085.00,1.91
4084.00,1.91
4083.00,1.91
4082.00,1.90
4081.00,1.90
4080.00,1.90
4079.00,1.89
4078.00,1.89
4077.00,1.89
4076.00,1.89
4075.00,1.89
4074.00,1.89
4073.00,1.88
4072.00,1.88
4071.00,1.88
4070.00,1.88
4069.00,1.88
4068.00,1.88
4067.00,1.88
4066.00,1.88
4065.00,1.88
4064.00,1.88
4063.00,1.89
4062.00,1.89
4061.00,1.89
4060.00,1.89
4059.00,1.89
4058.00,1.88
4057.00,1.88
4056.00,1.88
4055.00,1.88
4054.00,1.87
4053.00,1.87
4052.00,1.87
4051.00,1.87
4050.00,1.86
4049.00,1.86
4048.00,1.86
4047.00,1.85
4046.00,1.85
4045.00,1.85
4044.00,1.84
4043.00,1.84
4042.00,1.84
4041.00,1.83
4040.00,1.83
4039.00,1.83
4038.00,1.83
4037.00,1.83
4036.00,1.83
4035.00,1.83
4034.00,1.83
4033.00,1.83
4032.00,1.83
4031.00,1.84
4030.00,1.84
4029.00,1.85
4028.00,1.86
4027.00,1.86
4026.00,1.87
4025.00,1.88
4024.00,1.89
4023.00,1.90
4022.00,1.92
4021.00,1.93
4020.00,1.95
4019.00,1.96
4018.00,1.98
4017.00,2.00
4016.00,2.02
4015.00,2.04
4014.00,2.06
4013.00,2.08
4012.00,2.10
4011.00,2.12
4010.00,2.14
4009.00,2.16
4008.00,2.18
4007.00,2.20
4006.00,2.23
4005.00,2.25
4004.00,2.28
4003.00,2.30
4002.00,2.33
4001.00,2.35
4000.00,2.38
