创建为新数据集,样品 1121 用户 Administrator 日期 星期二, 七月 30 2019
cm-1,%T
10000.00,3.04
9999.00,3.04
9998.00,3.04
9997.00,3.04
9996.00,3.04
9995.00,3.05
9994.00,3.06
9993.00,3.06
9992.00,3.07
9991.00,3.07
9990.00,3.07
9989.00,3.07
9988.00,3.07
9987.00,3.06
9986.00,3.05
9985.00,3.04
9984.00,3.02
9983.00,3.00
9982.00,2.98
9981.00,2.95
9980.00,2.92
9979.00,2.89
9978.00,2.85
9977.00,2.82
9976.00,2.78
9975.00,2.75
9974.00,2.71
9973.00,2.67
9972.00,2.64
9971.00,2.60
9970.00,2.56
9969.00,2.52
9968.00,2.48
9967.00,2.43
9966.00,2.38
9965.00,2.33
9964.00,2.28
9963.00,2.24
9962.00,2.19
9961.00,2.14
9960.00,2.10
9959.00,2.06
9958.00,2.02
9957.00,1.99
9956.00,1.95
9955.00,1.93
9954.00,1.91
9953.00,1.88
9952.00,1.87
9951.00,1.85
9950.00,1.83
9949.00,1.81
9948.00,1.79
9947.00,1.78
9946.00,1.76
9945.00,1.75
9944.00,1.73
9943.00,1.72
9942.00,1.71
9941.00,1.70
9940.00,1.70
9939.00,1.70
9938.00,1.70
9937.00,1.71
9936.00,1.72
9935.00,1.74
9934.00,1.75
9933.00,1.77
9932.00,1.79
9931.00,1.82
9930.00,1.84
9929.00,1.87
9928.00,1.89
9927.00,1.92
9926.00,1.95
9925.00,1.98
9924.00,2.01
9923.00,2.05
9922.00,2.08
9921.00,2.12
9920.00,2.15
9919.00,2.18
9918.00,2.21
9917.00,2.24
9916.00,2.27
9915.00,2.29
9914.00,2.31
9913.00,2.32
9912.00,2.33
9911.00,2.33
9910.00,2.33
9909.00,2.32
9908.00,2.31
9907.00,2.30
9906.00,2.28
9905.00,2.26
9904.00,2.23
9903.00,2.20
9902.00,2.16
9901.00,2.12
9900.00,2.08
9899.00,2.03
9898.00,1.98
9897.00,1.94
9896.00,1.89
9895.00,1.84
9894.00,1.79
9893.00,1.75
9892.00,1.71
9891.00,1.68
9890.00,1.65
9889.00,1.63
9888.00,1.61
9887.00,1.60
9886.00,1.60
9885.00,1.60
9884.00,1.61
9883.00,1.62
9882.00,1.64
9881.00,1.66
9880.00,1.69
9879.00,1.71
9878.00,1.74
9877.00,1.78
9876.00,1.81
9875.00,1.85
9874.00,1.89
9873.00,1.93
9872.00,1.97
9871.00,2.02
9870.00,2.06
9869.00,2.11
9868.00,2.15
9867.00,2.19
9866.00,2.23
9865.00,2.27
9864.00,2.30
9863.00,2.33
9862.00,2.35
9861.00,2.37
9860.00,2.38
9859.00,2.38
9858.00,2.38
9857.00,2.38
9856.00,2.37
9855.00,2.36
9854.00,2.35
9853.00,2.34
9852.00,2.33
9851.00,2.32
9850.00,2.30
9849.00,2.29
9848.00,2.27
9847.00,2.25
9846.00,2.23
9845.00,2.21
9844.00,2.19
9843.00,2.16
9842.00,2.14
9841.00,2.11
9840.00,2.08
9839.00,2.06
9838.00,2.03
9837.00,2.01
9836.00,1.99
9835.00,1.97
9834.00,1.95
9833.00,1.94
9832.00,1.93
9831.00,1.91
9830.00,1.90
9829.00,1.90
9828.00,1.89
9827.00,1.88
9826.00,1.88
9825.00,1.87
9824.00,1.87
9823.00,1.87
9822.00,1.87
9821.00,1.87
9820.00,1.88
9819.00,1.89
9818.00,1.90
9817.00,1.91
9816.00,1.92
9815.00,1.94
9814.00,1.96
9813.00,1.98
9812.00,1.99
9811.00,2.01
9810.00,2.03
9809.00,2.04
9808.00,2.05
9807.00,2.07
9806.00,2.08
9805.00,2.08
9804.00,2.09
9803.00,2.10
9802.00,2.10
9801.00,2.11
9800.00,2.12
9799.00,2.12
9798.00,2.13
9797.00,2.14
9796.00,2.15
9795.00,2.16
9794.00,2.16
9793.00,2.17
9792.00,2.18
9791.00,2.18
9790.00,2.19
9789.00,2.19
9788.00,2.19
9787.00,2.20
9786.00,2.20
9785.00,2.20
9784.00,2.20
9783.00,2.19
9782.00,2.19
9781.00,2.19
9780.00,2.18
9779.00,2.18
9778.00,2.17
9777.00,2.16
9776.00,2.15
9775.00,2.14
9774.00,2.12
9773.00,2.11
9772.00,2.09
9771.00,2.07
9770.00,2.04
9769.00,2.02
9768.00,1.99
9767.00,1.97
9766.00,1.94
9765.00,1.91
9764.00,1.88
9763.00,1.85
9762.00,1.82
9761.00,1.79
9760.00,1.77
9759.00,1.75
9758.00,1.73
9757.00,1.71
9756.00,1.70
9755.00,1.69
9754.00,1.69
9753.00,1.69
9752.00,1.70
9751.00,1.71
9750.00,1.72
9749.00,1.74
9748.00,1.76
9747.00,1.79
9746.00,1.82
9745.00,1.84
9744.00,1.88
9743.00,1.91
9742.00,1.94
9741.00,1.98
9740.00,2.01
9739.00,2.05
9738.00,2.08
9737.00,2.12
9736.00,2.16
9735.00,2.19
9734.00,2.23
9733.00,2.27
9732.00,2.30
9731.00,2.33
9730.00,2.36
9729.00,2.39
9728.00,2.41
9727.00,2.43
9726.00,2.45
9725.00,2.47
9724.00,2.48
9723.00,2.49
9722.00,2.49
9721.00,2.50
9720.00,2.50
9719.00,2.49
9718.00,2.49
9717.00,2.48
9716.00,2.47
9715.00,2.46
9714.00,2.45
9713.00,2.44
9712.00,2.43
9711.00,2.42
9710.00,2.40
9709.00,2.38
9708.00,2.36
9707.00,2.35
9706.00,2.33
9705.00,2.30
9704.00,2.28
9703.00,2.26
9702.00,2.23
9701.00,2.21
9700.00,2.19
9699.00,2.17
9698.00,2.15
9697.00,2.13
9696.00,2.11
9695.00,2.09
9694.00,2.08
9693.00,2.06
9692.00,2.04
9691.00,2.02
9690.00,2.01
9689.00,1.99
9688.00,1.97
9687.00,1.96
9686.00,1.94
9685.00,1.93
9684.00,1.92
9683.00,1.91
9682.00,1.90
9681.00,1.89
9680.00,1.89
9679.00,1.88
9678.00,1.88
9677.00,1.87
9676.00,1.87
9675.00,1.86
9674.00,1.85
9673.00,1.83
9672.00,1.82
9671.00,1.80
9670.00,1.79
9669.00,1.77
9668.00,1.76
9667.00,1.74
9666.00,1.73
9665.00,1.72
9664.00,1.71
9663.00,1.70
9662.00,1.70
9661.00,1.69
9660.00,1.68
9659.00,1.67
9658.00,1.67
9657.00,1.66
9656.00,1.65
9655.00,1.64
9654.00,1.63
9653.00,1.62
9652.00,1.62
9651.00,1.62
9650.00,1.62
9649.00,1.63
9648.00,1.64
9647.00,1.65
9646.00,1.66
9645.00,1.68
9644.00,1.70
9643.00,1.72
9642.00,1.74
9641.00,1.76
9640.00,1.78
9639.00,1.80
9638.00,1.81
9637.00,1.83
9636.00,1.85
9635.00,1.87
9634.00,1.89
9633.00,1.91
9632.00,1.94
9631.00,1.96
9630.00,1.98
9629.00,2.01
9628.00,2.03
9627.00,2.05
9626.00,2.08
9625.00,2.09
9624.00,2.11
9623.00,2.12
9622.00,2.13
9621.00,2.14
9620.00,2.15
9619.00,2.16
9618.00,2.16
9617.00,2.17
9616.00,2.17
9615.00,2.18
9614.00,2.18
9613.00,2.19
9612.00,2.19
9611.00,2.20
9610.00,2.20
9609.00,2.20
9608.00,2.20
9607.00,2.20
9606.00,2.20
9605.00,2.19
9604.00,2.18
9603.00,2.17
9602.00,2.15
9601.00,2.14
9600.00,2.12
9599.00,2.10
9598.00,2.08
9597.00,2.07
9596.00,2.05
9595.00,2.04
9594.00,2.03
9593.00,2.01
9592.00,2.00
9591.00,2.00
9590.00,1.99
9589.00,1.98
9588.00,1.97
9587.00,1.97
9586.00,1.96
9585.00,1.96
9584.00,1.95
9583.00,1.95
9582.00,1.95
9581.00,1.95
9580.00,1.96
9579.00,1.96
9578.00,1.97
9577.00,1.98
9576.00,2.00
9575.00,2.01
9574.00,2.04
9573.00,2.06
9572.00,2.08
9571.00,2.10
9570.00,2.13
9569.00,2.15
9568.00,2.16
9567.00,2.18
9566.00,2.20
9565.00,2.21
9564.00,2.22
9563.00,2.23
9562.00,2.23
9561.00,2.24
9560.00,2.23
9559.00,2.23
9558.00,2.23
9557.00,2.22
9556.00,2.21
9555.00,2.20
9554.00,2.19
9553.00,2.18
9552.00,2.17
9551.00,2.16
9550.00,2.15
9549.00,2.14
9548.00,2.12
9547.00,2.11
9546.00,2.10
9545.00,2.09
9544.00,2.08
9543.00,2.06
9542.00,2.06
9541.00,2.05
9540.00,2.04
9539.00,2.03
9538.00,2.03
9537.00,2.03
9536.00,2.03
9535.00,2.02
9534.00,2.02
9533.00,2.03
9532.00,2.03
9531.00,2.03
9530.00,2.04
9529.00,2.04
9528.00,2.05
9527.00,2.05
9526.00,2.06
9525.00,2.06
9524.00,2.06
9523.00,2.06
9522.00,2.06
9521.00,2.05
9520.00,2.04
9519.00,2.03
9518.00,2.02
9517.00,2.01
9516.00,2.00
9515.00,1.98
9514.00,1.97
9513.00,1.95
9512.00,1.94
9511.00,1.92
9510.00,1.91
9509.00,1.89
9508.00,1.88
9507.00,1.86
9506.00,1.84
9505.00,1.83
9504.00,1.81
9503.00,1.79
9502.00,1.77
9501.00,1.75
9500.00,1.72
9499.00,1.70
9498.00,1.68
9497.00,1.66
9496.00,1.65
9495.00,1.63
9494.00,1.62
9493.00,1.61
9492.00,1.60
9491.00,1.59
9490.00,1.59
9489.00,1.58
9488.00,1.58
9487.00,1.58
9486.00,1.58
9485.00,1.58
9484.00,1.59
9483.00,1.59
9482.00,1.60
9481.00,1.61
9480.00,1.62
9479.00,1.63
9478.00,1.65
9477.00,1.66
9476.00,1.68
9475.00,1.69
9474.00,1.71
9473.00,1.73
9472.00,1.74
9471.00,1.75
9470.00,1.77
9469.00,1.78
9468.00,1.79
9467.00,1.80
9466.00,1.80
9465.00,1.81
9464.00,1.82
9463.00,1.82
9462.00,1.82
9461.00,1.82
9460.00,1.82
9459.00,1.82
9458.00,1.82
9457.00,1.81
9456.00,1.81
9455.00,1.80
9454.00,1.79
9453.00,1.78
9452.00,1.77
9451.00,1.76
9450.00,1.75
9449.00,1.75
9448.00,1.74
9447.00,1.74
9446.00,1.74
9445.00,1.74
9444.00,1.75
9443.00,1.76
9442.00,1.77
9441.00,1.78
9440.00,1.79
9439.00,1.80
9438.00,1.82
9437.00,1.83
9436.00,1.84
9435.00,1.86
9434.00,1.87
9433.00,1.88
9432.00,1.89
9431.00,1.90
9430.00,1.91
9429.00,1.92
9428.00,1.93
9427.00,1.93
9426.00,1.94
9425.00,1.95
9424.00,1.96
9423.00,1.97
9422.00,1.98
9421.00,1.99
9420.00,2.00
9419.00,2.01
9418.00,2.02
9417.00,2.02
9416.00,2.02
9415.00,2.02
9414.00,2.02
9413.00,2.01
9412.00,2.01
9411.00,2.01
9410.00,2.00
9409.00,2.00
9408.00,2.00
9407.00,2.00
9406.00,2.00
9405.00,2.01
9404.00,2.01
9403.00,2.02
9402.00,2.03
9401.00,2.03
9400.00,2.03
9399.00,2.03
9398.00,2.03
9397.00,2.02
9396.00,2.02
9395.00,2.01
9394.00,1.99
9393.00,1.98
9392.00,1.97
9391.00,1.95
9390.00,1.94
9389.00,1.93
9388.00,1.92
9387.00,1.91
9386.00,1.91
9385.00,1.91
9384.00,1.90
9383.00,1.90
9382.00,1.90
9381.00,1.90
9380.00,1.90
9379.00,1.90
9378.00,1.90
9377.00,1.90
9376.00,1.91
9375.00,1.91
9374.00,1.92
9373.00,1.93
9372.00,1.95
9371.00,1.96
9370.00,1.98
9369.00,2.00
9368.00,2.03
9367.00,2.05
9366.00,2.08
9365.00,2.10
9364.00,2.13
9363.00,2.16
9362.00,2.18
9361.00,2.21
9360.00,2.23
9359.00,2.25
9358.00,2.27
9357.00,2.29
9356.00,2.30
9355.00,2.32
9354.00,2.33
9353.00,2.34
9352.00,2.34
9351.00,2.35
9350.00,2.36
9349.00,2.36
9348.00,2.36
9347.00,2.36
9346.00,2.37
9345.00,2.37
9344.00,2.36
9343.00,2.36
9342.00,2.36
9341.00,2.36
9340.00,2.36
9339.00,2.37
9338.00,2.37
9337.00,2.37
9336.00,2.37
9335.00,2.37
9334.00,2.38
9333.00,2.38
9332.00,2.38
9331.00,2.38
9330.00,2.38
9329.00,2.38
9328.00,2.39
9327.00,2.39
9326.00,2.39
9325.00,2.39
9324.00,2.39
9323.00,2.39
9322.00,2.39
9321.00,2.38
9320.00,2.38
9319.00,2.38
9318.00,2.37
9317.00,2.37
9316.00,2.36
9315.00,2.35
9314.00,2.34
9313.00,2.33
9312.00,2.31
9311.00,2.29
9310.00,2.27
9309.00,2.24
9308.00,2.22
9307.00,2.19
9306.00,2.16
9305.00,2.14
9304.00,2.11
9303.00,2.08
9302.00,2.06
9301.00,2.04
9300.00,2.02
9299.00,2.00
9298.00,1.98
9297.00,1.96
9296.00,1.95
9295.00,1.93
9294.00,1.92
9293.00,1.90
9292.00,1.89
9291.00,1.87
9290.00,1.86
9289.00,1.85
9288.00,1.84
9287.00,1.83
9286.00,1.82
9285.00,1.82
9284.00,1.82
9283.00,1.82
9282.00,1.83
9281.00,1.84
9280.00,1.86
9279.00,1.87
9278.00,1.89
9277.00,1.91
9276.00,1.93
9275.00,1.94
9274.00,1.96
9273.00,1.98
9272.00,2.00
9271.00,2.01
9270.00,2.03
9269.00,2.04
9268.00,2.06
9267.00,2.07
9266.00,2.09
9265.00,2.10
9264.00,2.12
9263.00,2.13
9262.00,2.14
9261.00,2.15
9260.00,2.16
9259.00,2.17
9258.00,2.18
9257.00,2.18
9256.00,2.18
9255.00,2.18
9254.00,2.17
9253.00,2.17
9252.00,2.16
9251.00,2.16
9250.00,2.15
9249.00,2.14
9248.00,2.13
9247.00,2.12
9246.00,2.11
9245.00,2.11
9244.00,2.10
9243.00,2.10
9242.00,2.10
9241.00,2.10
9240.00,2.10
9239.00,2.11
9238.00,2.12
9237.00,2.12
9236.00,2.13
9235.00,2.14
9234.00,2.15
9233.00,2.16
9232.00,2.17
9231.00,2.19
9230.00,2.20
9229.00,2.21
9228.00,2.22
9227.00,2.23
9226.00,2.24
9225.00,2.25
9224.00,2.26
9223.00,2.27
9222.00,2.27
9221.00,2.28
9220.00,2.28
9219.00,2.28
9218.00,2.28
9217.00,2.27
9216.00,2.26
9215.00,2.25
9214.00,2.24
9213.00,2.22
9212.00,2.21
9211.00,2.19
9210.00,2.17
9209.00,2.16
9208.00,2.14
9207.00,2.12
9206.00,2.11
9205.00,2.09
9204.00,2.08
9203.00,2.07
9202.00,2.05
9201.00,2.04
9200.00,2.03
9199.00,2.02
9198.00,2.01
9197.00,2.01
9196.00,2.01
9195.00,2.01
9194.00,2.02
9193.00,2.03
9192.00,2.04
9191.00,2.05
9190.00,2.06
9189.00,2.08
9188.00,2.09
9187.00,2.10
9186.00,2.12
9185.00,2.13
9184.00,2.14
9183.00,2.15
9182.00,2.17
9181.00,2.18
9180.00,2.19
9179.00,2.20
9178.00,2.22
9177.00,2.23
9176.00,2.25
9175.00,2.26
9174.00,2.28
9173.00,2.30
9172.00,2.32
9171.00,2.33
9170.00,2.34
9169.00,2.35
9168.00,2.36
9167.00,2.37
9166.00,2.37
9165.00,2.38
9164.00,2.38
9163.00,2.38
9162.00,2.38
9161.00,2.38
9160.00,2.39
9159.00,2.39
9158.00,2.38
9157.00,2.38
9156.00,2.38
9155.00,2.37
9154.00,2.36
9153.00,2.35
9152.00,2.33
9151.00,2.32
9150.00,2.30
9149.00,2.28
9148.00,2.26
9147.00,2.23
9146.00,2.21
9145.00,2.18
9144.00,2.15
9143.00,2.13
9142.00,2.11
9141.00,2.08
9140.00,2.06
9139.00,2.04
9138.00,2.02
9137.00,2.01
9136.00,1.99
9135.00,1.97
9134.00,1.96
9133.00,1.95
9132.00,1.94
9131.00,1.94
9130.00,1.94
9129.00,1.94
9128.00,1.95
9127.00,1.96
9126.00,1.97
9125.00,1.99
9124.00,2.00
9123.00,2.02
9122.00,2.03
9121.00,2.05
9120.00,2.06
9119.00,2.08
9118.00,2.09
9117.00,2.10
9116.00,2.11
9115.00,2.12
9114.00,2.13
9113.00,2.13
9112.00,2.14
9111.00,2.14
9110.00,2.14
9109.00,2.13
9108.00,2.13
9107.00,2.12
9106.00,2.11
9105.00,2.10
9104.00,2.08
9103.00,2.06
9102.00,2.04
9101.00,2.01
9100.00,1.98
9099.00,1.95
9098.00,1.92
9097.00,1.89
9096.00,1.87
9095.00,1.84
9094.00,1.81
9093.00,1.79
9092.00,1.77
9091.00,1.75
9090.00,1.73
9089.00,1.71
9088.00,1.69
9087.00,1.68
9086.00,1.66
9085.00,1.65
9084.00,1.64
9083.00,1.63
9082.00,1.63
9081.00,1.62
9080.00,1.62
9079.00,1.62
9078.00,1.63
9077.00,1.63
9076.00,1.64
9075.00,1.65
9074.00,1.66
9073.00,1.67
9072.00,1.68
9071.00,1.70
9070.00,1.71
9069.00,1.72
9068.00,1.73
9067.00,1.74
9066.00,1.76
9065.00,1.77
9064.00,1.79
9063.00,1.80
9062.00,1.82
9061.00,1.84
9060.00,1.86
9059.00,1.88
9058.00,1.90
9057.00,1.91
9056.00,1.93
9055.00,1.95
9054.00,1.96
9053.00,1.97
9052.00,1.98
9051.00,1.99
9050.00,2.00
9049.00,2.01
9048.00,2.01
9047.00,2.02
9046.00,2.02
9045.00,2.03
9044.00,2.03
9043.00,2.04
9042.00,2.04
9041.00,2.04
9040.00,2.04
9039.00,2.04
9038.00,2.04
9037.00,2.03
9036.00,2.03
9035.00,2.02
9034.00,2.01
9033.00,1.99
9032.00,1.98
9031.00,1.97
9030.00,1.96
9029.00,1.95
9028.00,1.94
9027.00,1.92
9026.00,1.91
9025.00,1.90
9024.00,1.89
9023.00,1.88
9022.00,1.87
9021.00,1.86
9020.00,1.85
9019.00,1.84
9018.00,1.83
9017.00,1.82
9016.00,1.81
9015.00,1.80
9014.00,1.79
9013.00,1.78
9012.00,1.77
9011.00,1.76
9010.00,1.76
9009.00,1.75
9008.00,1.74
9007.00,1.74
9006.00,1.73
9005.00,1.72
9004.00,1.72
9003.00,1.71
9002.00,1.71
9001.00,1.70
9000.00,1.70
8999.00,1.69
8998.00,1.69
8997.00,1.69
8996.00,1.69
8995.00,1.69
8994.00,1.69
8993.00,1.69
8992.00,1.69
8991.00,1.70
8990.00,1.70
8989.00,1.70
8988.00,1.71
8987.00,1.71
8986.00,1.72
8985.00,1.73
8984.00,1.74
8983.00,1.75
8982.00,1.76
8981.00,1.77
8980.00,1.79
8979.00,1.80
8978.00,1.81
8977.00,1.83
8976.00,1.84
8975.00,1.85
8974.00,1.86
8973.00,1.88
8972.00,1.89
8971.00,1.90
8970.00,1.91
8969.00,1.92
8968.00,1.93
8967.00,1.94
8966.00,1.95
8965.00,1.95
8964.00,1.96
8963.00,1.96
8962.00,1.97
8961.00,1.97
8960.00,1.97
8959.00,1.98
8958.00,1.98
8957.00,1.98
8956.00,1.98
8955.00,1.98
8954.00,1.98
8953.00,1.98
8952.00,1.98
8951.00,1.98
8950.00,1.98
8949.00,1.98
8948.00,1.98
8947.00,1.98
8946.00,1.97
8945.00,1.97
8944.00,1.96
8943.00,1.96
8942.00,1.95
8941.00,1.95
8940.00,1.95
8939.00,1.95
8938.00,1.95
8937.00,1.95
8936.00,1.95
8935.00,1.96
8934.00,1.96
8933.00,1.97
8932.00,1.97
8931.00,1.98
8930.00,1.98
8929.00,1.99
8928.00,1.99
8927.00,2.00
8926.00,2.00
8925.00,2.00
8924.00,2.01
8923.00,2.01
8922.00,2.01
8921.00,2.02
8920.00,2.02
8919.00,2.03
8918.00,2.03
8917.00,2.04
8916.00,2.05
8915.00,2.05
8914.00,2.06
8913.00,2.06
8912.00,2.06
8911.00,2.06
8910.00,2.06
8909.00,2.05
8908.00,2.05
8907.00,2.04
8906.00,2.03
8905.00,2.01
8904.00,2.00
8903.00,1.99
8902.00,1.98
8901.00,1.96
8900.00,1.95
8899.00,1.94
8898.00,1.94
8897.00,1.93
8896.00,1.93
8895.00,1.93
8894.00,1.93
8893.00,1.93
8892.00,1.93
8891.00,1.93
8890.00,1.94
8889.00,1.94
8888.00,1.95
8887.00,1.96
8886.00,1.97
8885.00,1.98
8884.00,1.99
8883.00,2.00
8882.00,2.01
8881.00,2.02
8880.00,2.03
8879.00,2.05
8878.00,2.06
8877.00,2.08
8876.00,2.09
8875.00,2.10
8874.00,2.11
8873.00,2.13
8872.00,2.14
8871.00,2.14
8870.00,2.15
8869.00,2.16
8868.00,2.17
8867.00,2.17
8866.00,2.17
8865.00,2.18
8864.00,2.18
8863.00,2.18
8862.00,2.18
8861.00,2.17
8860.00,2.17
8859.00,2.16
8858.00,2.16
8857.00,2.15
8856.00,2.15
8855.00,2.14
8854.00,2.14
8853.00,2.14
8852.00,2.14
8851.00,2.14
8850.00,2.14
8849.00,2.14
8848.00,2.14
8847.00,2.13
8846.00,2.13
8845.00,2.13
8844.00,2.13
8843.00,2.12
8842.00,2.12
8841.00,2.11
8840.00,2.11
8839.00,2.10
8838.00,2.10
8837.00,2.09
8836.00,2.09
8835.00,2.09
8834.00,2.09
8833.00,2.09
8832.00,2.09
8831.00,2.09
8830.00,2.10
8829.00,2.11
8828.00,2.11
8827.00,2.12
8826.00,2.14
8825.00,2.15
8824.00,2.17
8823.00,2.19
8822.00,2.21
8821.00,2.23
8820.00,2.25
8819.00,2.27
8818.00,2.30
8817.00,2.32
8816.00,2.35
8815.00,2.37
8814.00,2.39
8813.00,2.41
8812.00,2.43
8811.00,2.45
8810.00,2.47
8809.00,2.49
8808.00,2.51
8807.00,2.52
8806.00,2.54
8805.00,2.55
8804.00,2.56
8803.00,2.57
8802.00,2.58
8801.00,2.58
8800.00,2.58
8799.00,2.57
8798.00,2.56
8797.00,2.54
8796.00,2.52
8795.00,2.50
8794.00,2.48
8793.00,2.45
8792.00,2.43
8791.00,2.40
8790.00,2.38
8789.00,2.36
8788.00,2.33
8787.00,2.31
8786.00,2.28
8785.00,2.26
8784.00,2.24
8783.00,2.21
8782.00,2.18
8781.00,2.15
8780.00,2.12
8779.00,2.09
8778.00,2.06
8777.00,2.03
8776.00,2.00
8775.00,1.97
8774.00,1.95
8773.00,1.92
8772.00,1.90
8771.00,1.89
8770.00,1.87
8769.00,1.86
8768.00,1.85
8767.00,1.84
8766.00,1.84
8765.00,1.83
8764.00,1.83
8763.00,1.83
8762.00,1.82
8761.00,1.83
8760.00,1.83
8759.00,1.83
8758.00,1.84
8757.00,1.85
8756.00,1.86
8755.00,1.87
8754.00,1.88
8753.00,1.90
8752.00,1.92
8751.00,1.94
8750.00,1.96
8749.00,1.98
8748.00,2.00
8747.00,2.02
8746.00,2.04
8745.00,2.06
8744.00,2.08
8743.00,2.09
8742.00,2.10
8741.00,2.11
8740.00,2.12
8739.00,2.13
8738.00,2.14
8737.00,2.14
8736.00,2.15
8735.00,2.15
8734.00,2.15
8733.00,2.15
8732.00,2.15
8731.00,2.15
8730.00,2.15
8729.00,2.15
8728.00,2.15
8727.00,2.14
8726.00,2.14
8725.00,2.13
8724.00,2.12
8723.00,2.12
8722.00,2.11
8721.00,2.10
8720.00,2.09
8719.00,2.08
8718.00,2.08
8717.00,2.07
8716.00,2.07
8715.00,2.07
8714.00,2.07
8713.00,2.07
8712.00,2.07
8711.00,2.08
8710.00,2.08
8709.00,2.08
8708.00,2.08
8707.00,2.08
8706.00,2.09
8705.00,2.09
8704.00,2.09
8703.00,2.10
8702.00,2.11
8701.00,2.11
8700.00,2.12
8699.00,2.13
8698.00,2.14
8697.00,2.16
8696.00,2.17
8695.00,2.19
8694.00,2.20
8693.00,2.21
8692.00,2.23
8691.00,2.24
8690.00,2.25
8689.00,2.26
8688.00,2.28
8687.00,2.29
8686.00,2.29
8685.00,2.30
8684.00,2.31
8683.00,2.32
8682.00,2.33
8681.00,2.34
8680.00,2.34
8679.00,2.35
8678.00,2.36
8677.00,2.36
8676.00,2.36
8675.00,2.36
8674.00,2.36
8673.00,2.35
8672.00,2.35
8671.00,2.34
8670.00,2.33
8669.00,2.32
8668.00,2.31
8667.00,2.30
8666.00,2.28
8665.00,2.27
8664.00,2.26
8663.00,2.25
8662.00,2.24
8661.00,2.23
8660.00,2.22
8659.00,2.21
8658.00,2.20
8657.00,2.19
8656.00,2.19
8655.00,2.18
8654.00,2.17
8653.00,2.16
8652.00,2.15
8651.00,2.14
8650.00,2.13
8649.00,2.13
8648.00,2.12
8647.00,2.11
8646.00,2.10
8645.00,2.10
8644.00,2.10
8643.00,2.09
8642.00,2.09
8641.00,2.08
8640.00,2.08
8639.00,2.07
8638.00,2.07
8637.00,2.06
8636.00,2.05
8635.00,2.03
8634.00,2.02
8633.00,2.01
8632.00,1.99
8631.00,1.98
8630.00,1.96
8629.00,1.94
8628.00,1.93
8627.00,1.91
8626.00,1.89
8625.00,1.88
8624.00,1.87
8623.00,1.86
8622.00,1.85
8621.00,1.84
8620.00,1.84
8619.00,1.83
8618.00,1.83
8617.00,1.83
8616.00,1.82
8615.00,1.82
8614.00,1.82
8613.00,1.82
8612.00,1.82
8611.00,1.82
8610.00,1.82
8609.00,1.83
8608.00,1.84
8607.00,1.84
8606.00,1.85
8605.00,1.87
8604.00,1.88
8603.00,1.89
8602.00,1.91
8601.00,1.93
8600.00,1.94
8599.00,1.96
8598.00,1.97
8597.00,1.99
8596.00,2.00
8595.00,2.01
8594.00,2.02
8593.00,2.03
8592.00,2.04
8591.00,2.04
8590.00,2.05
8589.00,2.06
8588.00,2.06
8587.00,2.07
8586.00,2.08
8585.00,2.09
8584.00,2.11
8583.00,2.12
8582.00,2.13
8581.00,2.14
8580.00,2.15
8579.00,2.16
8578.00,2.17
8577.00,2.18
8576.00,2.18
8575.00,2.19
8574.00,2.19
8573.00,2.19
8572.00,2.19
8571.00,2.19
8570.00,2.19
8569.00,2.19
8568.00,2.18
8567.00,2.18
8566.00,2.18
8565.00,2.18
8564.00,2.18
8563.00,2.17
8562.00,2.16
8561.00,2.15
8560.00,2.14
8559.00,2.12
8558.00,2.11
8557.00,2.09
8556.00,2.08
8555.00,2.06
8554.00,2.05
8553.00,2.04
8552.00,2.02
8551.00,2.02
8550.00,2.01
8549.00,2.01
8548.00,2.01
8547.00,2.01
8546.00,2.01
8545.00,2.01
8544.00,2.01
8543.00,2.02
8542.00,2.02
8541.00,2.02
8540.00,2.03
8539.00,2.03
8538.00,2.04
8537.00,2.05
8536.00,2.06
8535.00,2.07
8534.00,2.09
8533.00,2.10
8532.00,2.12
8531.00,2.14
8530.00,2.15
8529.00,2.16
8528.00,2.17
8527.00,2.18
8526.00,2.19
8525.00,2.19
8524.00,2.20
8523.00,2.20
8522.00,2.20
8521.00,2.19
8520.00,2.19
8519.00,2.19
8518.00,2.18
8517.00,2.18
8516.00,2.17
8515.00,2.16
8514.00,2.16
8513.00,2.15
8512.00,2.14
8511.00,2.12
8510.00,2.11
8509.00,2.09
8508.00,2.08
8507.00,2.06
8506.00,2.05
8505.00,2.04
8504.00,2.03
8503.00,2.02
8502.00,2.01
8501.00,2.00
8500.00,1.99
8499.00,1.99
8498.00,1.98
8497.00,1.98
8496.00,1.97
8495.00,1.97
8494.00,1.96
8493.00,1.96
8492.00,1.95
8491.00,1.95
8490.00,1.94
8489.00,1.94
8488.00,1.94
8487.00,1.94
8486.00,1.94
8485.00,1.94
8484.00,1.95
8483.00,1.95
8482.00,1.96
8481.00,1.96
8480.00,1.96
8479.00,1.96
8478.00,1.96
8477.00,1.96
8476.00,1.95
8475.00,1.95
8474.00,1.94
8473.00,1.94
8472.00,1.93
8471.00,1.93
8470.00,1.93
8469.00,1.93
8468.00,1.93
8467.00,1.93
8466.00,1.94
8465.00,1.94
8464.00,1.95
8463.00,1.95
8462.00,1.96
8461.00,1.96
8460.00,1.97
8459.00,1.97
8458.00,1.97
8457.00,1.97
8456.00,1.98
8455.00,1.98
8454.00,1.98
8453.00,1.99
8452.00,1.99
8451.00,2.00
8450.00,2.00
8449.00,2.01
8448.00,2.01
8447.00,2.01
8446.00,2.01
8445.00,2.01
8444.00,2.01
8443.00,2.01
8442.00,2.01
8441.00,2.00
8440.00,1.99
8439.00,1.99
8438.00,1.98
8437.00,1.97
8436.00,1.95
8435.00,1.94
8434.00,1.93
8433.00,1.92
8432.00,1.91
8431.00,1.90
8430.00,1.88
8429.00,1.87
8428.00,1.86
8427.00,1.85
8426.00,1.84
8425.00,1.83
8424.00,1.82
8423.00,1.81
8422.00,1.80
8421.00,1.80
8420.00,1.79
8419.00,1.79
8418.00,1.79
8417.00,1.79
8416.00,1.79
8415.00,1.80
8414.00,1.80
8413.00,1.81
8412.00,1.82
8411.00,1.83
8410.00,1.84
8409.00,1.85
8408.00,1.87
8407.00,1.88
8406.00,1.90
8405.00,1.91
8404.00,1.93
8403.00,1.95
8402.00,1.96
8401.00,1.98
8400.00,2.00
8399.00,2.02
8398.00,2.03
8397.00,2.05
8396.00,2.06
8395.00,2.07
8394.00,2.08
8393.00,2.09
8392.00,2.10
8391.00,2.11
8390.00,2.12
8389.00,2.12
8388.00,2.13
8387.00,2.14
8386.00,2.14
8385.00,2.15
8384.00,2.15
8383.00,2.15
8382.00,2.16
8381.00,2.16
8380.00,2.16
8379.00,2.17
8378.00,2.17
8377.00,2.17
8376.00,2.17
8375.00,2.16
8374.00,2.16
8373.00,2.15
8372.00,2.15
8371.00,2.14
8370.00,2.13
8369.00,2.13
8368.00,2.12
8367.00,2.12
8366.00,2.11
8365.00,2.11
8364.00,2.10
8363.00,2.10
8362.00,2.09
8361.00,2.09
8360.00,2.08
8359.00,2.07
8358.00,2.06
8357.00,2.05
8356.00,2.04
8355.00,2.03
8354.00,2.02
8353.00,2.01
8352.00,2.00
8351.00,1.99
8350.00,1.98
8349.00,1.97
8348.00,1.97
8347.00,1.97
8346.00,1.97
8345.00,1.97
8344.00,1.97
8343.00,1.98
8342.00,1.99
8341.00,2.00
8340.00,2.01
8339.00,2.02
8338.00,2.03
8337.00,2.04
8336.00,2.06
8335.00,2.07
8334.00,2.09
8333.00,2.10
8332.00,2.11
8331.00,2.13
8330.00,2.14
8329.00,2.16
8328.00,2.17
8327.00,2.19
8326.00,2.20
8325.00,2.21
8324.00,2.22
8323.00,2.24
8322.00,2.25
8321.00,2.26
8320.00,2.27
8319.00,2.28
8318.00,2.28
8317.00,2.29
8316.00,2.29
8315.00,2.29
8314.00,2.29
8313.00,2.28
8312.00,2.27
8311.00,2.27
8310.00,2.26
8309.00,2.25
8308.00,2.24
8307.00,2.23
8306.00,2.22
8305.00,2.21
8304.00,2.20
8303.00,2.19
8302.00,2.18
8301.00,2.17
8300.00,2.17
8299.00,2.16
8298.00,2.15
8297.00,2.14
8296.00,2.13
8295.00,2.12
8294.00,2.11
8293.00,2.10
8292.00,2.09
8291.00,2.08
8290.00,2.07
8289.00,2.06
8288.00,2.05
8287.00,2.04
8286.00,2.04
8285.00,2.03
8284.00,2.03
8283.00,2.03
8282.00,2.03
8281.00,2.02
8280.00,2.02
8279.00,2.02
8278.00,2.01
8277.00,2.01
8276.00,2.01
8275.00,2.00
8274.00,2.00
8273.00,1.99
8272.00,1.99
8271.00,1.98
8270.00,1.98
8269.00,1.97
8268.00,1.97
8267.00,1.97
8266.00,1.96
8265.00,1.96
8264.00,1.96
8263.00,1.97
8262.00,1.97
8261.00,1.97
8260.00,1.98
8259.00,1.99
8258.00,2.00
8257.00,2.00
8256.00,2.02
8255.00,2.03
8254.00,2.04
8253.00,2.05
8252.00,2.07
8251.00,2.09
8250.00,2.10
8249.00,2.12
8248.00,2.14
8247.00,2.17
8246.00,2.19
8245.00,2.22
8244.00,2.24
8243.00,2.27
8242.00,2.30
8241.00,2.33
8240.00,2.36
8239.00,2.39
8238.00,2.42
8237.00,2.44
8236.00,2.47
8235.00,2.49
8234.00,2.51
8233.00,2.52
8232.00,2.54
8231.00,2.55
8230.00,2.56
8229.00,2.57
8228.00,2.57
8227.00,2.58
8226.00,2.58
8225.00,2.58
8224.00,2.58
8223.00,2.57
8222.00,2.57
8221.00,2.56
8220.00,2.56
8219.00,2.55
8218.00,2.54
8217.00,2.53
8216.00,2.51
8215.00,2.50
8214.00,2.48
8213.00,2.47
8212.00,2.45
8211.00,2.44
8210.00,2.42
8209.00,2.41
8208.00,2.40
8207.00,2.38
8206.00,2.37
8205.00,2.36
8204.00,2.35
8203.00,2.34
8202.00,2.33
8201.00,2.32
8200.00,2.30
8199.00,2.29
8198.00,2.28
8197.00,2.26
8196.00,2.25
8195.00,2.23
8194.00,2.21
8193.00,2.20
8192.00,2.18
8191.00,2.16
8190.00,2.14
8189.00,2.11
8188.00,2.09
8187.00,2.07
8186.00,2.05
8185.00,2.02
8184.00,2.00
8183.00,1.98
8182.00,1.96
8181.00,1.94
8180.00,1.92
8179.00,1.90
8178.00,1.88
8177.00,1.86
8176.00,1.85
8175.00,1.83
8174.00,1.82
8173.00,1.81
8172.00,1.80
8171.00,1.80
8170.00,1.79
8169.00,1.79
8168.00,1.79
8167.00,1.80
8166.00,1.80
8165.00,1.81
8164.00,1.83
8163.00,1.84
8162.00,1.86
8161.00,1.87
8160.00,1.89
8159.00,1.91
8158.00,1.93
8157.00,1.95
8156.00,1.97
8155.00,1.99
8154.00,2.01
8153.00,2.03
8152.00,2.05
8151.00,2.07
8150.00,2.09
8149.00,2.11
8148.00,2.13
8147.00,2.15
8146.00,2.17
8145.00,2.19
8144.00,2.21
8143.00,2.23
8142.00,2.24
8141.00,2.25
8140.00,2.27
8139.00,2.28
8138.00,2.28
8137.00,2.29
8136.00,2.30
8135.00,2.30
8134.00,2.30
8133.00,2.30
8132.00,2.30
8131.00,2.30
8130.00,2.30
8129.00,2.29
8128.00,2.29
8127.00,2.29
8126.00,2.29
8125.00,2.28
8124.00,2.28
8123.00,2.28
8122.00,2.27
8121.00,2.26
8120.00,2.25
8119.00,2.25
8118.00,2.24
8117.00,2.23
8116.00,2.22
8115.00,2.21
8114.00,2.20
8113.00,2.19
8112.00,2.19
8111.00,2.18
8110.00,2.17
8109.00,2.17
8108.00,2.16
8107.00,2.16
8106.00,2.16
8105.00,2.15
8104.00,2.15
8103.00,2.15
8102.00,2.15
8101.00,2.15
8100.00,2.15
8099.00,2.15
8098.00,2.15
8097.00,2.15
8096.00,2.15
8095.00,2.15
8094.00,2.15
8093.00,2.16
8092.00,2.16
8091.00,2.16
8090.00,2.16
8089.00,2.16
8088.00,2.16
8087.00,2.17
8086.00,2.17
8085.00,2.17
8084.00,2.17
8083.00,2.17
8082.00,2.17
8081.00,2.18
8080.00,2.18
8079.00,2.18
8078.00,2.18
8077.00,2.19
8076.00,2.19
8075.00,2.19
8074.00,2.19
8073.00,2.19
8072.00,2.20
8071.00,2.20
8070.00,2.20
8069.00,2.20
8068.00,2.20
8067.00,2.21
8066.00,2.21
8065.00,2.22
8064.00,2.22
8063.00,2.23
8062.00,2.24
8061.00,2.25
8060.00,2.25
8059.00,2.26
8058.00,2.27
8057.00,2.27
8056.00,2.28
8055.00,2.28
8054.00,2.28
8053.00,2.28
8052.00,2.29
8051.00,2.29
8050.00,2.29
8049.00,2.29
8048.00,2.29
8047.00,2.29
8046.00,2.29
8045.00,2.29
8044.00,2.30
8043.00,2.30
8042.00,2.30
8041.00,2.29
8040.00,2.29
8039.00,2.29
8038.00,2.29
8037.00,2.29
8036.00,2.28
8035.00,2.28
8034.00,2.28
8033.00,2.27
8032.00,2.27
8031.00,2.27
8030.00,2.27
8029.00,2.26
8028.00,2.26
8027.00,2.26
8026.00,2.26
8025.00,2.26
8024.00,2.26
8023.00,2.26
8022.00,2.25
8021.00,2.25
8020.00,2.25
8019.00,2.25
8018.00,2.25
8017.00,2.25
8016.00,2.25
8015.00,2.25
8014.00,2.25
8013.00,2.25
8012.00,2.25
8011.00,2.24
8010.00,2.24
8009.00,2.24
8008.00,2.23
8007.00,2.23
8006.00,2.23
8005.00,2.22
8004.00,2.22
8003.00,2.22
8002.00,2.22
8001.00,2.21
8000.00,2.21
7999.00,2.21
7998.00,2.21
7997.00,2.20
7996.00,2.20
7995.00,2.20
7994.00,2.19
7993.00,2.19
7992.00,2.19
7991.00,2.18
7990.00,2.18
7989.00,2.17
7988.00,2.17
7987.00,2.16
7986.00,2.16
7985.00,2.15
7984.00,2.15
7983.00,2.15
7982.00,2.15
7981.00,2.15
7980.00,2.15
7979.00,2.15
7978.00,2.15
7977.00,2.16
7976.00,2.16
7975.00,2.16
7974.00,2.17
7973.00,2.17
7972.00,2.17
7971.00,2.18
7970.00,2.18
7969.00,2.19
7968.00,2.20
7967.00,2.21
7966.00,2.21
7965.00,2.22
7964.00,2.23
7963.00,2.24
7962.00,2.26
7961.00,2.27
7960.00,2.28
7959.00,2.29
7958.00,2.30
7957.00,2.30
7956.00,2.31
7955.00,2.32
7954.00,2.32
7953.00,2.32
7952.00,2.32
7951.00,2.33
7950.00,2.32
7949.00,2.32
7948.00,2.32
7947.00,2.32
7946.00,2.32
7945.00,2.31
7944.00,2.31
7943.00,2.30
7942.00,2.30
7941.00,2.29
7940.00,2.28
7939.00,2.28
7938.00,2.27
7937.00,2.26
7936.00,2.26
7935.00,2.25
7934.00,2.24
7933.00,2.24
7932.00,2.23
7931.00,2.23
7930.00,2.22
7929.00,2.22
7928.00,2.22
7927.00,2.22
7926.00,2.22
7925.00,2.22
7924.00,2.23
7923.00,2.23
7922.00,2.23
7921.00,2.24
7920.00,2.24
7919.00,2.25
7918.00,2.25
7917.00,2.26
7916.00,2.27
7915.00,2.27
7914.00,2.28
7913.00,2.28
7912.00,2.29
7911.00,2.29
7910.00,2.29
7909.00,2.29
7908.00,2.30
7907.00,2.30
7906.00,2.30
7905.00,2.30
7904.00,2.31
7903.00,2.31
7902.00,2.31
7901.00,2.31
7900.00,2.31
7899.00,2.31
7898.00,2.31
7897.00,2.31
7896.00,2.31
7895.00,2.30
7894.00,2.30
7893.00,2.29
7892.00,2.29
7891.00,2.29
7890.00,2.28
7889.00,2.28
7888.00,2.28
7887.00,2.27
7886.00,2.27
7885.00,2.27
7884.00,2.27
7883.00,2.27
7882.00,2.27
7881.00,2.27
7880.00,2.27
7879.00,2.27
7878.00,2.27
7877.00,2.26
7876.00,2.26
7875.00,2.26
7874.00,2.26
7873.00,2.26
7872.00,2.26
7871.00,2.26
7870.00,2.26
7869.00,2.27
7868.00,2.27
7867.00,2.27
7866.00,2.27
7865.00,2.27
7864.00,2.27
7863.00,2.27
7862.00,2.26
7861.00,2.26
7860.00,2.26
7859.00,2.25
7858.00,2.25
7857.00,2.25
7856.00,2.24
7855.00,2.24
7854.00,2.24
7853.00,2.23
7852.00,2.23
7851.00,2.23
7850.00,2.22
7849.00,2.22
7848.00,2.22
7847.00,2.21
7846.00,2.21
7845.00,2.21
7844.00,2.20
7843.00,2.20
7842.00,2.20
7841.00,2.20
7840.00,2.20
7839.00,2.20
7838.00,2.20
7837.00,2.21
7836.00,2.21
7835.00,2.22
7834.00,2.22
7833.00,2.23
7832.00,2.24
7831.00,2.25
7830.00,2.25
7829.00,2.26
7828.00,2.27
7827.00,2.28
7826.00,2.29
7825.00,2.30
7824.00,2.30
7823.00,2.31
7822.00,2.32
7821.00,2.33
7820.00,2.33
7819.00,2.34
7818.00,2.35
7817.00,2.35
7816.00,2.36
7815.00,2.36
7814.00,2.37
7813.00,2.37
7812.00,2.37
7811.00,2.38
7810.00,2.38
7809.00,2.38
7808.00,2.38
7807.00,2.37
7806.00,2.37
7805.00,2.37
7804.00,2.36
7803.00,2.36
7802.00,2.36
7801.00,2.35
7800.00,2.35
7799.00,2.35
7798.00,2.35
7797.00,2.34
7796.00,2.34
7795.00,2.34
7794.00,2.34
7793.00,2.34
7792.00,2.33
7791.00,2.33
7790.00,2.33
7789.00,2.33
7788.00,2.33
7787.00,2.33
7786.00,2.33
7785.00,2.34
7784.00,2.34
7783.00,2.34
7782.00,2.34
7781.00,2.35
7780.00,2.36
7779.00,2.36
7778.00,2.37
7777.00,2.38
7776.00,2.39
7775.00,2.40
7774.00,2.41
7773.00,2.42
7772.00,2.43
7771.00,2.45
7770.00,2.46
7769.00,2.47
7768.00,2.48
7767.00,2.49
7766.00,2.51
7765.00,2.52
7764.00,2.53
7763.00,2.54
7762.00,2.55
7761.00,2.56
7760.00,2.57
7759.00,2.58
7758.00,2.59
7757.00,2.59
7756.00,2.60
7755.00,2.61
7754.00,2.61
7753.00,2.61
7752.00,2.61
7751.00,2.61
7750.00,2.60
7749.00,2.60
7748.00,2.59
7747.00,2.58
7746.00,2.57
7745.00,2.56
7744.00,2.54
7743.00,2.53
7742.00,2.51
7741.00,2.49
7740.00,2.48
7739.00,2.46
7738.00,2.44
7737.00,2.42
7736.00,2.40
7735.00,2.38
7734.00,2.37
7733.00,2.35
7732.00,2.33
7731.00,2.32
7730.00,2.30
7729.00,2.29
7728.00,2.27
7727.00,2.26
7726.00,2.25
7725.00,2.24
7724.00,2.23
7723.00,2.23
7722.00,2.23
7721.00,2.23
7720.00,2.24
7719.00,2.25
7718.00,2.25
7717.00,2.26
7716.00,2.27
7715.00,2.28
7714.00,2.29
7713.00,2.30
7712.00,2.31
7711.00,2.32
7710.00,2.33
7709.00,2.35
7708.00,2.36
7707.00,2.37
7706.00,2.38
7705.00,2.39
7704.00,2.40
7703.00,2.42
7702.00,2.43
7701.00,2.44
7700.00,2.45
7699.00,2.45
7698.00,2.46
7697.00,2.46
7696.00,2.47
7695.00,2.47
7694.00,2.46
7693.00,2.46
7692.00,2.46
7691.00,2.45
7690.00,2.45
7689.00,2.45
7688.00,2.45
7687.00,2.45
7686.00,2.44
7685.00,2.44
7684.00,2.44
7683.00,2.44
7682.00,2.44
7681.00,2.43
7680.00,2.43
7679.00,2.43
7678.00,2.43
7677.00,2.43
7676.00,2.42
7675.00,2.42
7674.00,2.42
7673.00,2.41
7672.00,2.41
7671.00,2.41
7670.00,2.40
7669.00,2.40
7668.00,2.40
7667.00,2.40
7666.00,2.40
7665.00,2.40
7664.00,2.40
7663.00,2.40
7662.00,2.40
7661.00,2.40
7660.00,2.40
7659.00,2.40
7658.00,2.40
7657.00,2.40
7656.00,2.40
7655.00,2.40
7654.00,2.40
7653.00,2.41
7652.00,2.41
7651.00,2.42
7650.00,2.42
7649.00,2.43
7648.00,2.44
7647.00,2.45
7646.00,2.46
7645.00,2.47
7644.00,2.48
7643.00,2.49
7642.00,2.50
7641.00,2.51
7640.00,2.52
7639.00,2.53
7638.00,2.54
7637.00,2.55
7636.00,2.56
7635.00,2.57
7634.00,2.57
7633.00,2.58
7632.00,2.58
7631.00,2.59
7630.00,2.59
7629.00,2.59
7628.00,2.59
7627.00,2.59
7626.00,2.58
7625.00,2.58
7624.00,2.57
7623.00,2.56
7622.00,2.55
7621.00,2.53
7620.00,2.52
7619.00,2.51
7618.00,2.49
7617.00,2.47
7616.00,2.46
7615.00,2.44
7614.00,2.43
7613.00,2.41
7612.00,2.40
7611.00,2.39
7610.00,2.37
7609.00,2.36
7608.00,2.35
7607.00,2.33
7606.00,2.32
7605.00,2.31
7604.00,2.29
7603.00,2.28
7602.00,2.27
7601.00,2.26
7600.00,2.25
7599.00,2.24
7598.00,2.24
7597.00,2.23
7596.00,2.23
7595.00,2.22
7594.00,2.22
7593.00,2.22
7592.00,2.22
7591.00,2.21
7590.00,2.21
7589.00,2.21
7588.00,2.21
7587.00,2.21
7586.00,2.21
7585.00,2.21
7584.00,2.22
7583.00,2.22
7582.00,2.22
7581.00,2.23
7580.00,2.23
7579.00,2.24
7578.00,2.25
7577.00,2.26
7576.00,2.27
7575.00,2.28
7574.00,2.28
7573.00,2.29
7572.00,2.30
7571.00,2.31
7570.00,2.32
7569.00,2.33
7568.00,2.34
7567.00,2.35
7566.00,2.35
7565.00,2.36
7564.00,2.37
7563.00,2.38
7562.00,2.38
7561.00,2.39
7560.00,2.39
7559.00,2.39
7558.00,2.40
7557.00,2.40
7556.00,2.40
7555.00,2.41
7554.00,2.41
7553.00,2.41
7552.00,2.42
7551.00,2.42
7550.00,2.42
7549.00,2.43
7548.00,2.43
7547.00,2.44
7546.00,2.44
7545.00,2.44
7544.00,2.45
7543.00,2.45
7542.00,2.45
7541.00,2.46
7540.00,2.46
7539.00,2.46
7538.00,2.47
7537.00,2.47
7536.00,2.48
7535.00,2.48
7534.00,2.48
7533.00,2.49
7532.00,2.49
7531.00,2.50
7530.00,2.50
7529.00,2.50
7528.00,2.50
7527.00,2.50
7526.00,2.50
7525.00,2.50
7524.00,2.50
7523.00,2.50
7522.00,2.49
7521.00,2.49
7520.00,2.48
7519.00,2.48
7518.00,2.47
7517.00,2.46
7516.00,2.46
7515.00,2.45
7514.00,2.44
7513.00,2.44
7512.00,2.43
7511.00,2.42
7510.00,2.42
7509.00,2.41
7508.00,2.41
7507.00,2.40
7506.00,2.40
7505.00,2.39
7504.00,2.39
7503.00,2.39
7502.00,2.39
7501.00,2.39
7500.00,2.39
7499.00,2.39
7498.00,2.39
7497.00,2.40
7496.00,2.40
7495.00,2.40
7494.00,2.40
7493.00,2.40
7492.00,2.40
7491.00,2.40
7490.00,2.40
7489.00,2.40
7488.00,2.40
7487.00,2.40
7486.00,2.40
7485.00,2.40
7484.00,2.41
7483.00,2.41
7482.00,2.41
7481.00,2.41
7480.00,2.40
7479.00,2.40
7478.00,2.39
7477.00,2.39
7476.00,2.38
7475.00,2.37
7474.00,2.36
7473.00,2.35
7472.00,2.34
7471.00,2.33
7470.00,2.32
7469.00,2.31
7468.00,2.31
7467.00,2.30
7466.00,2.30
7465.00,2.30
7464.00,2.30
7463.00,2.29
7462.00,2.29
7461.00,2.29
7460.00,2.29
7459.00,2.29
7458.00,2.29
7457.00,2.29
7456.00,2.29
7455.00,2.29
7454.00,2.29
7453.00,2.29
7452.00,2.29
7451.00,2.29
7450.00,2.29
7449.00,2.30
7448.00,2.30
7447.00,2.31
7446.00,2.31
7445.00,2.32
7444.00,2.33
7443.00,2.33
7442.00,2.34
7441.00,2.35
7440.00,2.35
7439.00,2.36
7438.00,2.36
7437.00,2.36
7436.00,2.36
7435.00,2.36
7434.00,2.36
7433.00,2.36
7432.00,2.36
7431.00,2.36
7430.00,2.36
7429.00,2.36
7428.00,2.36
7427.00,2.37
7426.00,2.38
7425.00,2.38
7424.00,2.39
7423.00,2.40
7422.00,2.41
7421.00,2.42
7420.00,2.43
7419.00,2.43
7418.00,2.44
7417.00,2.44
7416.00,2.44
7415.00,2.45
7414.00,2.45
7413.00,2.45
7412.00,2.46
7411.00,2.46
7410.00,2.47
7409.00,2.48
7408.00,2.48
7407.00,2.49
7406.00,2.50
7405.00,2.50
7404.00,2.51
7403.00,2.51
7402.00,2.50
7401.00,2.50
7400.00,2.49
7399.00,2.49
7398.00,2.48
7397.00,2.47
7396.00,2.45
7395.00,2.44
7394.00,2.43
7393.00,2.42
7392.00,2.41
7391.00,2.39
7390.00,2.38
7389.00,2.37
7388.00,2.35
7387.00,2.33
7386.00,2.32
7385.00,2.30
7384.00,2.28
7383.00,2.26
7382.00,2.25
7381.00,2.23
7380.00,2.21
7379.00,2.20
7378.00,2.19
7377.00,2.18
7376.00,2.17
7375.00,2.16
7374.00,2.15
7373.00,2.15
7372.00,2.14
7371.00,2.14
7370.00,2.14
7369.00,2.14
7368.00,2.14
7367.00,2.14
7366.00,2.15
7365.00,2.15
7364.00,2.15
7363.00,2.16
7362.00,2.16
7361.00,2.17
7360.00,2.18
7359.00,2.19
7358.00,2.20
7357.00,2.20
7356.00,2.21
7355.00,2.22
7354.00,2.22
7353.00,2.23
7352.00,2.23
7351.00,2.24
7350.00,2.24
7349.00,2.24
7348.00,2.25
7347.00,2.25
7346.00,2.25
7345.00,2.25
7344.00,2.25
7343.00,2.25
7342.00,2.25
7341.00,2.25
7340.00,2.26
7339.00,2.26
7338.00,2.26
7337.00,2.27
7336.00,2.28
7335.00,2.28
7334.00,2.29
7333.00,2.30
7332.00,2.31
7331.00,2.32
7330.00,2.33
7329.00,2.33
7328.00,2.34
7327.00,2.35
7326.00,2.36
7325.00,2.37
7324.00,2.38
7323.00,2.39
7322.00,2.40
7321.00,2.41
7320.00,2.42
7319.00,2.43
7318.00,2.44
7317.00,2.45
7316.00,2.46
7315.00,2.47
7314.00,2.47
7313.00,2.47
7312.00,2.48
7311.00,2.48
7310.00,2.47
7309.00,2.47
7308.00,2.47
7307.00,2.46
7306.00,2.46
7305.00,2.45
7304.00,2.45
7303.00,2.45
7302.00,2.44
7301.00,2.44
7300.00,2.43
7299.00,2.43
7298.00,2.42
7297.00,2.42
7296.00,2.41
7295.00,2.40
7294.00,2.40
7293.00,2.39
7292.00,2.38
7291.00,2.37
7290.00,2.36
7289.00,2.35
7288.00,2.34
7287.00,2.33
7286.00,2.32
7285.00,2.31
7284.00,2.30
7283.00,2.30
7282.00,2.29
7281.00,2.28
7280.00,2.27
7279.00,2.26
7278.00,2.25
7277.00,2.25
7276.00,2.24
7275.00,2.23
7274.00,2.22
7273.00,2.22
7272.00,2.21
7271.00,2.21
7270.00,2.20
7269.00,2.20
7268.00,2.20
7267.00,2.19
7266.00,2.19
7265.00,2.19
7264.00,2.19
7263.00,2.19
7262.00,2.19
7261.00,2.20
7260.00,2.20
7259.00,2.20
7258.00,2.21
7257.00,2.21
7256.00,2.22
7255.00,2.22
7254.00,2.23
7253.00,2.23
7252.00,2.24
7251.00,2.24
7250.00,2.24
7249.00,2.24
7248.00,2.24
7247.00,2.24
7246.00,2.24
7245.00,2.24
7244.00,2.23
7243.00,2.23
7242.00,2.22
7241.00,2.21
7240.00,2.20
7239.00,2.20
7238.00,2.19
7237.00,2.18
7236.00,2.17
7235.00,2.16
7234.00,2.15
7233.00,2.14
7232.00,2.13
7231.00,2.12
7230.00,2.12
7229.00,2.11
7228.00,2.10
7227.00,2.09
7226.00,2.09
7225.00,2.08
7224.00,2.08
7223.00,2.08
7222.00,2.07
7221.00,2.07
7220.00,2.07
7219.00,2.07
7218.00,2.08
7217.00,2.08
7216.00,2.09
7215.00,2.09
7214.00,2.10
7213.00,2.11
7212.00,2.11
7211.00,2.12
7210.00,2.13
7209.00,2.14
7208.00,2.14
7207.00,2.14
7206.00,2.14
7205.00,2.14
7204.00,2.14
7203.00,2.14
7202.00,2.14
7201.00,2.14
7200.00,2.14
7199.00,2.14
7198.00,2.13
7197.00,2.13
7196.00,2.13
7195.00,2.12
7194.00,2.12
7193.00,2.11
7192.00,2.10
7191.00,2.09
7190.00,2.08
7189.00,2.07
7188.00,2.06
7187.00,2.05
7186.00,2.04
7185.00,2.03
7184.00,2.02
7183.00,2.01
7182.00,2.01
7181.00,2.00
7180.00,2.00
7179.00,2.00
7178.00,2.00
7177.00,2.00
7176.00,2.00
7175.00,2.00
7174.00,2.00
7173.00,2.00
7172.00,2.00
7171.00,1.99
7170.00,1.99
7169.00,1.99
7168.00,1.99
7167.00,1.99
7166.00,1.99
7165.00,1.99
7164.00,2.00
7163.00,2.00
7162.00,2.01
7161.00,2.01
7160.00,2.01
7159.00,2.02
7158.00,2.02
7157.00,2.03
7156.00,2.03
7155.00,2.03
7154.00,2.03
7153.00,2.03
7152.00,2.03
7151.00,2.02
7150.00,2.02
7149.00,2.02
7148.00,2.02
7147.00,2.02
7146.00,2.02
7145.00,2.02
7144.00,2.02
7143.00,2.02
7142.00,2.02
7141.00,2.02
7140.00,2.02
7139.00,2.01
7138.00,2.00
7137.00,1.99
7136.00,1.99
7135.00,1.97
7134.00,1.96
7133.00,1.95
7132.00,1.94
7131.00,1.92
7130.00,1.91
7129.00,1.89
7128.00,1.88
7127.00,1.86
7126.00,1.85
7125.00,1.83
7124.00,1.82
7123.00,1.80
7122.00,1.79
7121.00,1.77
7120.00,1.76
7119.00,1.74
7118.00,1.72
7117.00,1.71
7116.00,1.69
7115.00,1.67
7114.00,1.66
7113.00,1.65
7112.00,1.63
7111.00,1.62
7110.00,1.60
7109.00,1.59
7108.00,1.58
7107.00,1.57
7106.00,1.56
7105.00,1.54
7104.00,1.53
7103.00,1.52
7102.00,1.51
7101.00,1.50
7100.00,1.49
7099.00,1.49
7098.00,1.48
7097.00,1.47
7096.00,1.46
7095.00,1.45
7094.00,1.44
7093.00,1.43
7092.00,1.42
7091.00,1.41
7090.00,1.40
7089.00,1.40
7088.00,1.39
7087.00,1.38
7086.00,1.38
7085.00,1.38
7084.00,1.37
7083.00,1.37
7082.00,1.37
7081.00,1.37
7080.00,1.36
7079.00,1.36
7078.00,1.36
7077.00,1.36
7076.00,1.36
7075.00,1.36
7074.00,1.36
7073.00,1.36
7072.00,1.36
7071.00,1.36
7070.00,1.36
7069.00,1.36
7068.00,1.36
7067.00,1.37
7066.00,1.37
7065.00,1.37
7064.00,1.38
7063.00,1.38
7062.00,1.38
7061.00,1.38
7060.00,1.39
7059.00,1.39
7058.00,1.39
7057.00,1.39
7056.00,1.39
7055.00,1.39
7054.00,1.39
7053.00,1.40
7052.00,1.40
7051.00,1.40
7050.00,1.40
7049.00,1.40
7048.00,1.41
7047.00,1.41
7046.00,1.41
7045.00,1.41
7044.00,1.42
7043.00,1.42
7042.00,1.42
7041.00,1.42
7040.00,1.42
7039.00,1.42
7038.00,1.42
7037.00,1.42
7036.00,1.42
7035.00,1.42
7034.00,1.42
7033.00,1.42
7032.00,1.42
7031.00,1.42
7030.00,1.42
7029.00,1.42
7028.00,1.42
7027.00,1.42
7026.00,1.42
7025.00,1.42
7024.00,1.42
7023.00,1.42
7022.00,1.42
7021.00,1.42
7020.00,1.42
7019.00,1.42
7018.00,1.42
7017.00,1.42
7016.00,1.42
7015.00,1.42
7014.00,1.42
7013.00,1.41
7012.00,1.41
7011.00,1.41
7010.00,1.40
7009.00,1.40
7008.00,1.40
7007.00,1.39
7006.00,1.39
7005.00,1.38
7004.00,1.38
7003.00,1.37
7002.00,1.36
7001.00,1.36
7000.00,1.35
6999.00,1.34
6998.00,1.33
6997.00,1.33
6996.00,1.32
6995.00,1.31
6994.00,1.31
6993.00,1.30
6992.00,1.29
6991.00,1.29
6990.00,1.28
6989.00,1.28
6988.00,1.27
6987.00,1.27
6986.00,1.26
6985.00,1.26
6984.00,1.25
6983.00,1.25
6982.00,1.25
6981.00,1.25
6980.00,1.25
6979.00,1.25
6978.00,1.25
6977.00,1.25
6976.00,1.26
6975.00,1.27
6974.00,1.27
6973.00,1.28
6972.00,1.29
6971.00,1.29
6970.00,1.30
6969.00,1.31
6968.00,1.32
6967.00,1.32
6966.00,1.33
6965.00,1.34
6964.00,1.35
6963.00,1.36
6962.00,1.37
6961.00,1.37
6960.00,1.38
6959.00,1.39
6958.00,1.40
6957.00,1.40
6956.00,1.41
6955.00,1.41
6954.00,1.42
6953.00,1.42
6952.00,1.43
6951.00,1.43
6950.00,1.43
6949.00,1.43
6948.00,1.43
6947.00,1.43
6946.00,1.42
6945.00,1.42
6944.00,1.41
6943.00,1.41
6942.00,1.40
6941.00,1.40
6940.00,1.39
6939.00,1.38
6938.00,1.37
6937.00,1.37
6936.00,1.36
6935.00,1.35
6934.00,1.34
6933.00,1.34
6932.00,1.33
6931.00,1.33
6930.00,1.33
6929.00,1.33
6928.00,1.33
6927.00,1.32
6926.00,1.32
6925.00,1.32
6924.00,1.32
6923.00,1.32
6922.00,1.32
6921.00,1.32
6920.00,1.32
6919.00,1.32
6918.00,1.32
6917.00,1.33
6916.00,1.33
6915.00,1.33
6914.00,1.34
6913.00,1.34
6912.00,1.35
6911.00,1.35
6910.00,1.36
6909.00,1.36
6908.00,1.37
6907.00,1.37
6906.00,1.38
6905.00,1.38
6904.00,1.38
6903.00,1.38
6902.00,1.38
6901.00,1.38
6900.00,1.38
6899.00,1.38
6898.00,1.37
6897.00,1.37
6896.00,1.37
6895.00,1.37
6894.00,1.37
6893.00,1.36
6892.00,1.36
6891.00,1.36
6890.00,1.36
6889.00,1.36
6888.00,1.36
6887.00,1.35
6886.00,1.35
6885.00,1.35
6884.00,1.34
6883.00,1.34
6882.00,1.33
6881.00,1.33
6880.00,1.32
6879.00,1.32
6878.00,1.31
6877.00,1.31
6876.00,1.30
6875.00,1.30
6874.00,1.30
6873.00,1.29
6872.00,1.29
6871.00,1.29
6870.00,1.29
6869.00,1.28
6868.00,1.28
6867.00,1.27
6866.00,1.27
6865.00,1.26
6864.00,1.26
6863.00,1.25
6862.00,1.25
6861.00,1.24
6860.00,1.24
6859.00,1.23
6858.00,1.23
6857.00,1.23
6856.00,1.23
6855.00,1.22
6854.00,1.22
6853.00,1.22
6852.00,1.22
6851.00,1.22
6850.00,1.22
6849.00,1.22
6848.00,1.22
6847.00,1.22
6846.00,1.22
6845.00,1.22
6844.00,1.22
6843.00,1.22
6842.00,1.22
6841.00,1.23
6840.00,1.23
6839.00,1.23
6838.00,1.24
6837.00,1.24
6836.00,1.25
6835.00,1.25
6834.00,1.26
6833.00,1.26
6832.00,1.26
6831.00,1.27
6830.00,1.27
6829.00,1.27
6828.00,1.28
6827.00,1.28
6826.00,1.28
6825.00,1.28
6824.00,1.28
6823.00,1.28
6822.00,1.28
6821.00,1.29
6820.00,1.29
6819.00,1.29
6818.00,1.29
6817.00,1.30
6816.00,1.30
6815.00,1.30
6814.00,1.31
6813.00,1.31
6812.00,1.32
6811.00,1.32
6810.00,1.32
6809.00,1.33
6808.00,1.33
6807.00,1.33
6806.00,1.34
6805.00,1.34
6804.00,1.35
6803.00,1.35
6802.00,1.35
6801.00,1.36
6800.00,1.36
6799.00,1.37
6798.00,1.37
6797.00,1.38
6796.00,1.38
6795.00,1.38
6794.00,1.39
6793.00,1.39
6792.00,1.39
6791.00,1.39
6790.00,1.39
6789.00,1.39
6788.00,1.39
6787.00,1.38
6786.00,1.38
6785.00,1.38
6784.00,1.37
6783.00,1.37
6782.00,1.36
6781.00,1.36
6780.00,1.35
6779.00,1.35
6778.00,1.35
6777.00,1.34
6776.00,1.34
6775.00,1.34
6774.00,1.34
6773.00,1.34
6772.00,1.34
6771.00,1.33
6770.00,1.33
6769.00,1.33
6768.00,1.33
6767.00,1.33
6766.00,1.33
6765.00,1.33
6764.00,1.33
6763.00,1.33
6762.00,1.33
6761.00,1.33
6760.00,1.33
6759.00,1.34
6758.00,1.34
6757.00,1.34
6756.00,1.35
6755.00,1.35
6754.00,1.36
6753.00,1.36
6752.00,1.37
6751.00,1.37
6750.00,1.37
6749.00,1.37
6748.00,1.38
6747.00,1.38
6746.00,1.39
6745.00,1.39
6744.00,1.40
6743.00,1.41
6742.00,1.41
6741.00,1.42
6740.00,1.43
6739.00,1.43
6738.00,1.44
6737.00,1.44
6736.00,1.45
6735.00,1.45
6734.00,1.46
6733.00,1.46
6732.00,1.47
6731.00,1.47
6730.00,1.47
6729.00,1.48
6728.00,1.48
6727.00,1.48
6726.00,1.48
6725.00,1.48
6724.00,1.48
6723.00,1.49
6722.00,1.49
6721.00,1.49
6720.00,1.49
6719.00,1.49
6718.00,1.49
6717.00,1.48
6716.00,1.48
6715.00,1.48
6714.00,1.48
6713.00,1.48
6712.00,1.48
6711.00,1.48
6710.00,1.48
6709.00,1.48
6708.00,1.48
6707.00,1.49
6706.00,1.49
6705.00,1.49
6704.00,1.50
6703.00,1.50
6702.00,1.51
6701.00,1.52
6700.00,1.52
6699.00,1.53
6698.00,1.54
6697.00,1.55
6696.00,1.55
6695.00,1.56
6694.00,1.57
6693.00,1.57
6692.00,1.58
6691.00,1.59
6690.00,1.59
6689.00,1.60
6688.00,1.61
6687.00,1.61
6686.00,1.62
6685.00,1.62
6684.00,1.63
6683.00,1.63
6682.00,1.63
6681.00,1.63
6680.00,1.63
6679.00,1.63
6678.00,1.63
6677.00,1.63
6676.00,1.63
6675.00,1.63
6674.00,1.62
6673.00,1.62
6672.00,1.62
6671.00,1.61
6670.00,1.61
6669.00,1.61
6668.00,1.60
6667.00,1.60
6666.00,1.60
6665.00,1.60
6664.00,1.60
6663.00,1.59
6662.00,1.59
6661.00,1.59
6660.00,1.59
6659.00,1.59
6658.00,1.59
6657.00,1.59
6656.00,1.59
6655.00,1.59
6654.00,1.60
6653.00,1.60
6652.00,1.61
6651.00,1.61
6650.00,1.62
6649.00,1.63
6648.00,1.64
6647.00,1.64
6646.00,1.65
6645.00,1.66
6644.00,1.67
6643.00,1.68
6642.00,1.69
6641.00,1.70
6640.00,1.71
6639.00,1.71
6638.00,1.72
6637.00,1.73
6636.00,1.74
6635.00,1.75
6634.00,1.76
6633.00,1.77
6632.00,1.78
6631.00,1.79
6630.00,1.80
6629.00,1.80
6628.00,1.81
6627.00,1.81
6626.00,1.81
6625.00,1.82
6624.00,1.82
6623.00,1.82
6622.00,1.82
6621.00,1.82
6620.00,1.82
6619.00,1.82
6618.00,1.81
6617.00,1.81
6616.00,1.81
6615.00,1.81
6614.00,1.81
6613.00,1.80
6612.00,1.80
6611.00,1.80
6610.00,1.79
6609.00,1.79
6608.00,1.78
6607.00,1.78
6606.00,1.77
6605.00,1.77
6604.00,1.76
6603.00,1.76
6602.00,1.76
6601.00,1.76
6600.00,1.76
6599.00,1.76
6598.00,1.76
6597.00,1.76
6596.00,1.76
6595.00,1.76
6594.00,1.76
6593.00,1.76
6592.00,1.76
6591.00,1.76
6590.00,1.76
6589.00,1.76
6588.00,1.76
6587.00,1.76
6586.00,1.76
6585.00,1.77
6584.00,1.77
6583.00,1.78
6582.00,1.78
6581.00,1.79
6580.00,1.79
6579.00,1.80
6578.00,1.80
6577.00,1.81
6576.00,1.81
6575.00,1.82
6574.00,1.82
6573.00,1.82
6572.00,1.83
6571.00,1.83
6570.00,1.84
6569.00,1.84
6568.00,1.84
6567.00,1.85
6566.00,1.85
6565.00,1.86
6564.00,1.86
6563.00,1.86
6562.00,1.87
6561.00,1.87
6560.00,1.87
6559.00,1.87
6558.00,1.87
6557.00,1.87
6556.00,1.87
6555.00,1.87
6554.00,1.87
6553.00,1.87
6552.00,1.87
6551.00,1.87
6550.00,1.87
6549.00,1.87
6548.00,1.86
6547.00,1.86
6546.00,1.86
6545.00,1.86
6544.00,1.86
6543.00,1.86
6542.00,1.86
6541.00,1.86
6540.00,1.86
6539.00,1.86
6538.00,1.86
6537.00,1.86
6536.00,1.86
6535.00,1.86
6534.00,1.86
6533.00,1.86
6532.00,1.87
6531.00,1.87
6530.00,1.87
6529.00,1.87
6528.00,1.88
6527.00,1.88
6526.00,1.88
6525.00,1.88
6524.00,1.89
6523.00,1.89
6522.00,1.89
6521.00,1.90
6520.00,1.90
6519.00,1.90
6518.00,1.90
6517.00,1.91
6516.00,1.91
6515.00,1.91
6514.00,1.91
6513.00,1.91
6512.00,1.91
6511.00,1.91
6510.00,1.91
6509.00,1.91
6508.00,1.91
6507.00,1.91
6506.00,1.91
6505.00,1.91
6504.00,1.92
6503.00,1.92
6502.00,1.92
6501.00,1.92
6500.00,1.92
6499.00,1.93
6498.00,1.93
6497.00,1.93
6496.00,1.94
6495.00,1.94
6494.00,1.95
6493.00,1.95
6492.00,1.96
6491.00,1.96
6490.00,1.97
6489.00,1.98
6488.00,1.99
6487.00,1.99
6486.00,2.00
6485.00,2.02
6484.00,2.03
6483.00,2.04
6482.00,2.05
6481.00,2.06
6480.00,2.07
6479.00,2.08
6478.00,2.09
6477.00,2.09
6476.00,2.10
6475.00,2.11
6474.00,2.12
6473.00,2.12
6472.00,2.13
6471.00,2.14
6470.00,2.14
6469.00,2.15
6468.00,2.15
6467.00,2.16
6466.00,2.16
6465.00,2.17
6464.00,2.17
6463.00,2.17
6462.00,2.18
6461.00,2.18
6460.00,2.18
6459.00,2.18
6458.00,2.18
6457.00,2.18
6456.00,2.18
6455.00,2.18
6454.00,2.18
6453.00,2.18
6452.00,2.18
6451.00,2.18
6450.00,2.18
6449.00,2.18
6448.00,2.18
6447.00,2.18
6446.00,2.18
6445.00,2.18
6444.00,2.18
6443.00,2.18
6442.00,2.18
6441.00,2.17
6440.00,2.17
6439.00,2.17
6438.00,2.17
6437.00,2.17
6436.00,2.16
6435.00,2.16
6434.00,2.16
6433.00,2.15
6432.00,2.15
6431.00,2.15
6430.00,2.14
6429.00,2.14
6428.00,2.14
6427.00,2.14
6426.00,2.14
6425.00,2.14
6424.00,2.14
6423.00,2.14
6422.00,2.13
6421.00,2.13
6420.00,2.13
6419.00,2.13
6418.00,2.13
6417.00,2.13
6416.00,2.13
6415.00,2.13
6414.00,2.13
6413.00,2.13
6412.00,2.13
6411.00,2.13
6410.00,2.13
6409.00,2.13
6408.00,2.14
6407.00,2.14
6406.00,2.14
6405.00,2.14
6404.00,2.15
6403.00,2.15
6402.00,2.15
6401.00,2.16
6400.00,2.16
6399.00,2.16
6398.00,2.17
6397.00,2.17
6396.00,2.17
6395.00,2.18
6394.00,2.18
6393.00,2.18
6392.00,2.18
6391.00,2.19
6390.00,2.19
6389.00,2.19
6388.00,2.19
6387.00,2.19
6386.00,2.20
6385.00,2.20
6384.00,2.20
6383.00,2.21
6382.00,2.21
6381.00,2.21
6380.00,2.22
6379.00,2.22
6378.00,2.22
6377.00,2.22
6376.00,2.23
6375.00,2.23
6374.00,2.23
6373.00,2.23
6372.00,2.23
6371.00,2.23
6370.00,2.23
6369.00,2.23
6368.00,2.23
6367.00,2.23
6366.00,2.23
6365.00,2.23
6364.00,2.23
6363.00,2.24
6362.00,2.24
6361.00,2.24
6360.00,2.24
6359.00,2.23
6358.00,2.23
6357.00,2.23
6356.00,2.24
6355.00,2.24
6354.00,2.24
6353.00,2.24
6352.00,2.24
6351.00,2.25
6350.00,2.25
6349.00,2.26
6348.00,2.26
6347.00,2.27
6346.00,2.27
6345.00,2.28
6344.00,2.28
6343.00,2.29
6342.00,2.29
6341.00,2.30
6340.00,2.31
6339.00,2.31
6338.00,2.32
6337.00,2.33
6336.00,2.33
6335.00,2.34
6334.00,2.34
6333.00,2.35
6332.00,2.36
6331.00,2.36
6330.00,2.37
6329.00,2.37
6328.00,2.37
6327.00,2.37
6326.00,2.37
6325.00,2.37
6324.00,2.37
6323.00,2.37
6322.00,2.36
6321.00,2.36
6320.00,2.36
6319.00,2.36
6318.00,2.35
6317.00,2.35
6316.00,2.35
6315.00,2.34
6314.00,2.34
6313.00,2.33
6312.00,2.33
6311.00,2.33
6310.00,2.33
6309.00,2.32
6308.00,2.32
6307.00,2.32
6306.00,2.32
6305.00,2.32
6304.00,2.32
6303.00,2.32
6302.00,2.33
6301.00,2.33
6300.00,2.33
6299.00,2.34
6298.00,2.35
6297.00,2.35
6296.00,2.36
6295.00,2.37
6294.00,2.37
6293.00,2.38
6292.00,2.39
6291.00,2.40
6290.00,2.40
6289.00,2.41
6288.00,2.42
6287.00,2.43
6286.00,2.43
6285.00,2.44
6284.00,2.44
6283.00,2.45
6282.00,2.45
6281.00,2.46
6280.00,2.46
6279.00,2.46
6278.00,2.47
6277.00,2.47
6276.00,2.47
6275.00,2.47
6274.00,2.47
6273.00,2.47
6272.00,2.47
6271.00,2.47
6270.00,2.47
6269.00,2.47
6268.00,2.47
6267.00,2.47
6266.00,2.47
6265.00,2.47
6264.00,2.48
6263.00,2.48
6262.00,2.48
6261.00,2.48
6260.00,2.49
6259.00,2.49
6258.00,2.49
6257.00,2.50
6256.00,2.50
6255.00,2.51
6254.00,2.52
6253.00,2.52
6252.00,2.53
6251.00,2.53
6250.00,2.54
6249.00,2.54
6248.00,2.54
6247.00,2.55
6246.00,2.55
6245.00,2.55
6244.00,2.55
6243.00,2.55
6242.00,2.55
6241.00,2.55
6240.00,2.55
6239.00,2.54
6238.00,2.54
6237.00,2.54
6236.00,2.53
6235.00,2.53
6234.00,2.52
6233.00,2.51
6232.00,2.50
6231.00,2.49
6230.00,2.48
6229.00,2.47
6228.00,2.46
6227.00,2.45
6226.00,2.44
6225.00,2.44
6224.00,2.43
6223.00,2.42
6222.00,2.41
6221.00,2.41
6220.00,2.40
6219.00,2.40
6218.00,2.39
6217.00,2.39
6216.00,2.39
6215.00,2.39
6214.00,2.39
6213.00,2.39
6212.00,2.39
6211.00,2.40
6210.00,2.40
6209.00,2.41
6208.00,2.42
6207.00,2.42
6206.00,2.43
6205.00,2.44
6204.00,2.45
6203.00,2.46
6202.00,2.47
6201.00,2.48
6200.00,2.49
6199.00,2.50
6198.00,2.51
6197.00,2.52
6196.00,2.52
6195.00,2.53
6194.00,2.54
6193.00,2.55
6192.00,2.55
6191.00,2.56
6190.00,2.56
6189.00,2.57
6188.00,2.57
6187.00,2.57
6186.00,2.57
6185.00,2.57
6184.00,2.57
6183.00,2.57
6182.00,2.57
6181.00,2.56
6180.00,2.56
6179.00,2.56
6178.00,2.56
6177.00,2.56
6176.00,2.56
6175.00,2.56
6174.00,2.56
6173.00,2.56
6172.00,2.56
6171.00,2.56
6170.00,2.56
6169.00,2.56
6168.00,2.56
6167.00,2.56
6166.00,2.56
6165.00,2.56
6164.00,2.56
6163.00,2.56
6162.00,2.57
6161.00,2.57
6160.00,2.57
6159.00,2.58
6158.00,2.59
6157.00,2.59
6156.00,2.60
6155.00,2.60
6154.00,2.61
6153.00,2.62
6152.00,2.62
6151.00,2.63
6150.00,2.63
6149.00,2.64
6148.00,2.65
6147.00,2.65
6146.00,2.66
6145.00,2.66
6144.00,2.67
6143.00,2.67
6142.00,2.68
6141.00,2.68
6140.00,2.69
6139.00,2.69
6138.00,2.70
6137.00,2.71
6136.00,2.71
6135.00,2.71
6134.00,2.72
6133.00,2.72
6132.00,2.72
6131.00,2.73
6130.00,2.73
6129.00,2.73
6128.00,2.73
6127.00,2.73
6126.00,2.73
6125.00,2.73
6124.00,2.73
6123.00,2.73
6122.00,2.73
6121.00,2.73
6120.00,2.73
6119.00,2.73
6118.00,2.72
6117.00,2.72
6116.00,2.72
6115.00,2.72
6114.00,2.71
6113.00,2.71
6112.00,2.70
6111.00,2.70
6110.00,2.70
6109.00,2.69
6108.00,2.69
6107.00,2.69
6106.00,2.68
6105.00,2.68
6104.00,2.68
6103.00,2.68
6102.00,2.68
6101.00,2.67
6100.00,2.67
6099.00,2.67
6098.00,2.67
6097.00,2.67
6096.00,2.67
6095.00,2.67
6094.00,2.66
6093.00,2.66
6092.00,2.66
6091.00,2.66
6090.00,2.67
6089.00,2.67
6088.00,2.67
6087.00,2.67
6086.00,2.68
6085.00,2.68
6084.00,2.69
6083.00,2.69
6082.00,2.70
6081.00,2.70
6080.00,2.71
6079.00,2.71
6078.00,2.72
6077.00,2.73
6076.00,2.73
6075.00,2.74
6074.00,2.74
6073.00,2.75
6072.00,2.75
6071.00,2.76
6070.00,2.76
6069.00,2.77
6068.00,2.77
6067.00,2.78
6066.00,2.78
6065.00,2.79
6064.00,2.79
6063.00,2.79
6062.00,2.80
6061.00,2.80
6060.00,2.80
6059.00,2.80
6058.00,2.80
6057.00,2.80
6056.00,2.80
6055.00,2.79
6054.00,2.79
6053.00,2.79
6052.00,2.78
6051.00,2.78
6050.00,2.78
6049.00,2.77
6048.00,2.77
6047.00,2.77
6046.00,2.76
6045.00,2.76
6044.00,2.76
6043.00,2.75
6042.00,2.75
6041.00,2.75
6040.00,2.75
6039.00,2.75
6038.00,2.75
6037.00,2.75
6036.00,2.75
6035.00,2.75
6034.00,2.75
6033.00,2.75
6032.00,2.76
6031.00,2.76
6030.00,2.76
6029.00,2.76
6028.00,2.77
6027.00,2.77
6026.00,2.77
6025.00,2.77
6024.00,2.78
6023.00,2.78
6022.00,2.78
6021.00,2.78
6020.00,2.79
6019.00,2.79
6018.00,2.79
6017.00,2.80
6016.00,2.80
6015.00,2.80
6014.00,2.80
6013.00,2.80
6012.00,2.80
6011.00,2.80
6010.00,2.80
6009.00,2.80
6008.00,2.79
6007.00,2.79
6006.00,2.79
6005.00,2.79
6004.00,2.79
6003.00,2.78
6002.00,2.78
6001.00,2.78
6000.00,2.78
5999.00,2.78
5998.00,2.78
5997.00,2.78
5996.00,2.78
5995.00,2.78
5994.00,2.78
5993.00,2.78
5992.00,2.78
5991.00,2.78
5990.00,2.78
5989.00,2.78
5988.00,2.77
5987.00,2.77
5986.00,2.77
5985.00,2.77
5984.00,2.77
5983.00,2.77
5982.00,2.77
5981.00,2.77
5980.00,2.77
5979.00,2.77
5978.00,2.77
5977.00,2.77
5976.00,2.77
5975.00,2.77
5974.00,2.77
5973.00,2.76
5972.00,2.76
5971.00,2.76
5970.00,2.76
5969.00,2.75
5968.00,2.75
5967.00,2.75
5966.00,2.75
5965.00,2.75
5964.00,2.74
5963.00,2.74
5962.00,2.74
5961.00,2.74
5960.00,2.74
5959.00,2.74
5958.00,2.74
5957.00,2.74
5956.00,2.74
5955.00,2.74
5954.00,2.74
5953.00,2.74
5952.00,2.73
5951.00,2.73
5950.00,2.73
5949.00,2.73
5948.00,2.72
5947.00,2.72
5946.00,2.72
5945.00,2.72
5944.00,2.72
5943.00,2.72
5942.00,2.72
5941.00,2.71
5940.00,2.71
5939.00,2.71
5938.00,2.71
5937.00,2.71
5936.00,2.70
5935.00,2.70
5934.00,2.70
5933.00,2.70
5932.00,2.70
5931.00,2.70
5930.00,2.70
5929.00,2.70
5928.00,2.70
5927.00,2.70
5926.00,2.70
5925.00,2.70
5924.00,2.70
5923.00,2.70
5922.00,2.70
5921.00,2.70
5920.00,2.70
5919.00,2.70
5918.00,2.70
5917.00,2.70
5916.00,2.70
5915.00,2.70
5914.00,2.70
5913.00,2.70
5912.00,2.70
5911.00,2.70
5910.00,2.70
5909.00,2.69
5908.00,2.69
5907.00,2.69
5906.00,2.69
5905.00,2.69
5904.00,2.69
5903.00,2.69
5902.00,2.69
5901.00,2.69
5900.00,2.69
5899.00,2.68
5898.00,2.68
5897.00,2.68
5896.00,2.68
5895.00,2.68
5894.00,2.69
5893.00,2.69
5892.00,2.69
5891.00,2.69
5890.00,2.69
5889.00,2.69
5888.00,2.70
5887.00,2.70
5886.00,2.70
5885.00,2.71
5884.00,2.71
5883.00,2.72
5882.00,2.72
5881.00,2.73
5880.00,2.73
5879.00,2.73
5878.00,2.74
5877.00,2.74
5876.00,2.75
5875.00,2.75
5874.00,2.76
5873.00,2.76
5872.00,2.77
5871.00,2.77
5870.00,2.77
5869.00,2.78
5868.00,2.78
5867.00,2.78
5866.00,2.78
5865.00,2.78
5864.00,2.78
5863.00,2.79
5862.00,2.79
5861.00,2.79
5860.00,2.79
5859.00,2.79
5858.00,2.78
5857.00,2.78
5856.00,2.78
5855.00,2.78
5854.00,2.78
5853.00,2.77
5852.00,2.77
5851.00,2.77
5850.00,2.77
5849.00,2.76
5848.00,2.76
5847.00,2.76
5846.00,2.76
5845.00,2.76
5844.00,2.76
5843.00,2.76
5842.00,2.75
5841.00,2.75
5840.00,2.75
5839.00,2.75
5838.00,2.75
5837.00,2.75
5836.00,2.75
5835.00,2.75
5834.00,2.75
5833.00,2.75
5832.00,2.75
5831.00,2.75
5830.00,2.75
5829.00,2.75
5828.00,2.76
5827.00,2.76
5826.00,2.76
5825.00,2.76
5824.00,2.77
5823.00,2.77
5822.00,2.77
5821.00,2.77
5820.00,2.77
5819.00,2.77
5818.00,2.77
5817.00,2.77
5816.00,2.77
5815.00,2.76
5814.00,2.76
5813.00,2.76
5812.00,2.76
5811.00,2.75
5810.00,2.75
5809.00,2.75
5808.00,2.75
5807.00,2.74
5806.00,2.74
5805.00,2.74
5804.00,2.74
5803.00,2.73
5802.00,2.73
5801.00,2.72
5800.00,2.72
5799.00,2.71
5798.00,2.71
5797.00,2.70
5796.00,2.70
5795.00,2.69
5794.00,2.69
5793.00,2.68
5792.00,2.68
5791.00,2.68
5790.00,2.67
5789.00,2.67
5788.00,2.67
5787.00,2.67
5786.00,2.67
5785.00,2.67
5784.00,2.67
5783.00,2.67
5782.00,2.67
5781.00,2.67
5780.00,2.67
5779.00,2.67
5778.00,2.67
5777.00,2.67
5776.00,2.68
5775.00,2.68
5774.00,2.68
5773.00,2.68
5772.00,2.69
5771.00,2.69
5770.00,2.69
5769.00,2.70
5768.00,2.70
5767.00,2.71
5766.00,2.71
5765.00,2.72
5764.00,2.72
5763.00,2.72
5762.00,2.73
5761.00,2.73
5760.00,2.73
5759.00,2.73
5758.00,2.74
5757.00,2.74
5756.00,2.74
5755.00,2.74
5754.00,2.74
5753.00,2.75
5752.00,2.75
5751.00,2.75
5750.00,2.76
5749.00,2.76
5748.00,2.76
5747.00,2.76
5746.00,2.76
5745.00,2.76
5744.00,2.76
5743.00,2.76
5742.00,2.76
5741.00,2.76
5740.00,2.76
5739.00,2.76
5738.00,2.76
5737.00,2.76
5736.00,2.76
5735.00,2.76
5734.00,2.76
5733.00,2.76
5732.00,2.76
5731.00,2.75
5730.00,2.75
5729.00,2.75
5728.00,2.75
5727.00,2.74
5726.00,2.74
5725.00,2.74
5724.00,2.74
5723.00,2.73
5722.00,2.73
5721.00,2.73
5720.00,2.72
5719.00,2.72
5718.00,2.72
5717.00,2.72
5716.00,2.71
5715.00,2.71
5714.00,2.71
5713.00,2.70
5712.00,2.70
5711.00,2.70
5710.00,2.69
5709.00,2.69
5708.00,2.69
5707.00,2.68
5706.00,2.68
5705.00,2.68
5704.00,2.68
5703.00,2.68
5702.00,2.67
5701.00,2.67
5700.00,2.67
5699.00,2.67
5698.00,2.67
5697.00,2.66
5696.00,2.66
5695.00,2.66
5694.00,2.66
5693.00,2.65
5692.00,2.65
5691.00,2.65
5690.00,2.65
5689.00,2.64
5688.00,2.64
5687.00,2.64
5686.00,2.64
5685.00,2.64
5684.00,2.63
5683.00,2.63
5682.00,2.63
5681.00,2.63
5680.00,2.63
5679.00,2.63
5678.00,2.63
5677.00,2.63
5676.00,2.62
5675.00,2.62
5674.00,2.62
5673.00,2.62
5672.00,2.62
5671.00,2.62
5670.00,2.62
5669.00,2.62
5668.00,2.62
5667.00,2.62
5666.00,2.62
5665.00,2.62
5664.00,2.63
5663.00,2.63
5662.00,2.63
5661.00,2.63
5660.00,2.63
5659.00,2.63
5658.00,2.63
5657.00,2.63
5656.00,2.63
5655.00,2.63
5654.00,2.63
5653.00,2.63
5652.00,2.63
5651.00,2.63
5650.00,2.63
5649.00,2.63
5648.00,2.63
5647.00,2.63
5646.00,2.63
5645.00,2.63
5644.00,2.64
5643.00,2.64
5642.00,2.64
5641.00,2.64
5640.00,2.64
5639.00,2.64
5638.00,2.64
5637.00,2.65
5636.00,2.65
5635.00,2.65
5634.00,2.66
5633.00,2.66
5632.00,2.66
5631.00,2.67
5630.00,2.67
5629.00,2.68
5628.00,2.68
5627.00,2.69
5626.00,2.69
5625.00,2.70
5624.00,2.70
5623.00,2.70
5622.00,2.71
5621.00,2.71
5620.00,2.71
5619.00,2.72
5618.00,2.72
5617.00,2.73
5616.00,2.73
5615.00,2.73
5614.00,2.74
5613.00,2.74
5612.00,2.74
5611.00,2.74
5610.00,2.75
5609.00,2.75
5608.00,2.75
5607.00,2.75
5606.00,2.75
5605.00,2.75
5604.00,2.75
5603.00,2.75
5602.00,2.75
5601.00,2.74
5600.00,2.74
5599.00,2.74
5598.00,2.74
5597.00,2.74
5596.00,2.74
5595.00,2.74
5594.00,2.74
5593.00,2.73
5592.00,2.73
5591.00,2.73
5590.00,2.73
5589.00,2.73
5588.00,2.73
5587.00,2.73
5586.00,2.73
5585.00,2.72
5584.00,2.72
5583.00,2.72
5582.00,2.72
5581.00,2.72
5580.00,2.73
5579.00,2.73
5578.00,2.73
5577.00,2.73
5576.00,2.73
5575.00,2.73
5574.00,2.74
5573.00,2.74
5572.00,2.74
5571.00,2.75
5570.00,2.75
5569.00,2.75
5568.00,2.76
5567.00,2.76
5566.00,2.76
5565.00,2.77
5564.00,2.77
5563.00,2.77
5562.00,2.78
5561.00,2.78
5560.00,2.78
5559.00,2.78
5558.00,2.78
5557.00,2.78
5556.00,2.78
5555.00,2.78
5554.00,2.78
5553.00,2.78
5552.00,2.78
5551.00,2.77
5550.00,2.77
5549.00,2.77
5548.00,2.77
5547.00,2.76
5546.00,2.76
5545.00,2.76
5544.00,2.75
5543.00,2.75
5542.00,2.75
5541.00,2.75
5540.00,2.74
5539.00,2.74
5538.00,2.74
5537.00,2.73
5536.00,2.73
5535.00,2.73
5534.00,2.73
5533.00,2.72
5532.00,2.72
5531.00,2.72
5530.00,2.72
5529.00,2.72
5528.00,2.72
5527.00,2.72
5526.00,2.72
5525.00,2.72
5524.00,2.72
5523.00,2.72
5522.00,2.72
5521.00,2.72
5520.00,2.72
5519.00,2.72
5518.00,2.72
5517.00,2.72
5516.00,2.72
5515.00,2.72
5514.00,2.72
5513.00,2.72
5512.00,2.72
5511.00,2.72
5510.00,2.72
5509.00,2.72
5508.00,2.73
5507.00,2.73
5506.00,2.73
5505.00,2.74
5504.00,2.74
5503.00,2.74
5502.00,2.74
5501.00,2.75
5500.00,2.75
5499.00,2.75
5498.00,2.75
5497.00,2.75
5496.00,2.75
5495.00,2.75
5494.00,2.75
5493.00,2.75
5492.00,2.75
5491.00,2.75
5490.00,2.75
5489.00,2.75
5488.00,2.75
5487.00,2.75
5486.00,2.75
5485.00,2.76
5484.00,2.76
5483.00,2.75
5482.00,2.75
5481.00,2.75
5480.00,2.75
5479.00,2.75
5478.00,2.75
5477.00,2.75
5476.00,2.75
5475.00,2.75
5474.00,2.76
5473.00,2.76
5472.00,2.76
5471.00,2.76
5470.00,2.77
5469.00,2.77
5468.00,2.77
5467.00,2.78
5466.00,2.78
5465.00,2.78
5464.00,2.79
5463.00,2.80
5462.00,2.80
5461.00,2.81
5460.00,2.81
5459.00,2.82
5458.00,2.83
5457.00,2.83
5456.00,2.84
5455.00,2.84
5454.00,2.85
5453.00,2.85
5452.00,2.85
5451.00,2.85
5450.00,2.85
5449.00,2.85
5448.00,2.85
5447.00,2.85
5446.00,2.85
5445.00,2.85
5444.00,2.85
5443.00,2.86
5442.00,2.86
5441.00,2.86
5440.00,2.86
5439.00,2.86
5438.00,2.86
5437.00,2.85
5436.00,2.85
5435.00,2.85
5434.00,2.84
5433.00,2.84
5432.00,2.83
5431.00,2.83
5430.00,2.83
5429.00,2.83
5428.00,2.83
5427.00,2.83
5426.00,2.83
5425.00,2.83
5424.00,2.83
5423.00,2.83
5422.00,2.83
5421.00,2.84
5420.00,2.84
5419.00,2.84
5418.00,2.83
5417.00,2.83
5416.00,2.83
5415.00,2.83
5414.00,2.82
5413.00,2.82
5412.00,2.82
5411.00,2.82
5410.00,2.81
5409.00,2.81
5408.00,2.81
5407.00,2.81
5406.00,2.80
5405.00,2.80
5404.00,2.80
5403.00,2.79
5402.00,2.79
5401.00,2.78
5400.00,2.78
5399.00,2.77
5398.00,2.76
5397.00,2.76
5396.00,2.75
5395.00,2.74
5394.00,2.74
5393.00,2.74
5392.00,2.73
5391.00,2.73
5390.00,2.73
5389.00,2.72
5388.00,2.72
5387.00,2.72
5386.00,2.72
5385.00,2.71
5384.00,2.71
5383.00,2.71
5382.00,2.71
5381.00,2.70
5380.00,2.70
5379.00,2.69
5378.00,2.69
5377.00,2.68
5376.00,2.67
5375.00,2.67
5374.00,2.66
5373.00,2.65
5372.00,2.64
5371.00,2.63
5370.00,2.62
5369.00,2.61
5368.00,2.60
5367.00,2.59
5366.00,2.58
5365.00,2.57
5364.00,2.55
5363.00,2.54
5362.00,2.52
5361.00,2.51
5360.00,2.49
5359.00,2.47
5358.00,2.45
5357.00,2.44
5356.00,2.42
5355.00,2.40
5354.00,2.38
5353.00,2.36
5352.00,2.35
5351.00,2.33
5350.00,2.32
5349.00,2.30
5348.00,2.29
5347.00,2.27
5346.00,2.26
5345.00,2.24
5344.00,2.23
5343.00,2.21
5342.00,2.20
5341.00,2.18
5340.00,2.17
5339.00,2.15
5338.00,2.13
5337.00,2.12
5336.00,2.10
5335.00,2.08
5334.00,2.07
5333.00,2.05
5332.00,2.04
5331.00,2.02
5330.00,2.00
5329.00,1.99
5328.00,1.97
5327.00,1.95
5326.00,1.93
5325.00,1.91
5324.00,1.89
5323.00,1.87
5322.00,1.85
5321.00,1.83
5320.00,1.80
5319.00,1.78
5318.00,1.76
5317.00,1.74
5316.00,1.71
5315.00,1.69
5314.00,1.67
5313.00,1.65
5312.00,1.63
5311.00,1.60
5310.00,1.58
5309.00,1.56
5308.00,1.54
5307.00,1.52
5306.00,1.50
5305.00,1.48
5304.00,1.47
5303.00,1.45
5302.00,1.43
5301.00,1.42
5300.00,1.40
5299.00,1.38
5298.00,1.37
5297.00,1.36
5296.00,1.34
5295.00,1.33
5294.00,1.32
5293.00,1.31
5292.00,1.29
5291.00,1.28
5290.00,1.27
5289.00,1.26
5288.00,1.25
5287.00,1.24
5286.00,1.23
5285.00,1.23
5284.00,1.22
5283.00,1.21
5282.00,1.20
5281.00,1.19
5280.00,1.19
5279.00,1.18
5278.00,1.17
5277.00,1.16
5276.00,1.16
5275.00,1.15
5274.00,1.14
5273.00,1.13
5272.00,1.12
5271.00,1.12
5270.00,1.11
5269.00,1.10
5268.00,1.10
5267.00,1.09
5266.00,1.08
5265.00,1.08
5264.00,1.07
5263.00,1.07
5262.00,1.06
5261.00,1.06
5260.00,1.06
5259.00,1.05
5258.00,1.05
5257.00,1.05
5256.00,1.04
5255.00,1.04
5254.00,1.04
5253.00,1.03
5252.00,1.03
5251.00,1.03
5250.00,1.03
5249.00,1.03
5248.00,1.03
5247.00,1.03
5246.00,1.03
5245.00,1.03
5244.00,1.03
5243.00,1.03
5242.00,1.04
5241.00,1.04
5240.00,1.04
5239.00,1.04
5238.00,1.04
5237.00,1.04
5236.00,1.04
5235.00,1.04
5234.00,1.04
5233.00,1.04
5232.00,1.04
5231.00,1.03
5230.00,1.03
5229.00,1.03
5228.00,1.03
5227.00,1.03
5226.00,1.03
5225.00,1.03
5224.00,1.03
5223.00,1.03
5222.00,1.02
5221.00,1.02
5220.00,1.02
5219.00,1.02
5218.00,1.02
5217.00,1.02
5216.00,1.02
5215.00,1.02
5214.00,1.02
5213.00,1.03
5212.00,1.03
5211.00,1.03
5210.00,1.03
5209.00,1.04
5208.00,1.04
5207.00,1.04
5206.00,1.04
5205.00,1.04
5204.00,1.05
5203.00,1.05
5202.00,1.05
5201.00,1.05
5200.00,1.06
5199.00,1.06
5198.00,1.06
5197.00,1.06
5196.00,1.06
5195.00,1.06
5194.00,1.06
5193.00,1.06
5192.00,1.06
5191.00,1.06
5190.00,1.06
5189.00,1.05
5188.00,1.05
5187.00,1.05
5186.00,1.04
5185.00,1.04
5184.00,1.03
5183.00,1.03
5182.00,1.02
5181.00,1.02
5180.00,1.02
5179.00,1.01
5178.00,1.01
5177.00,1.01
5176.00,1.00
5175.00,1.00
5174.00,1.00
5173.00,0.99
5172.00,0.99
5171.00,0.99
5170.00,0.98
5169.00,0.98
5168.00,0.98
5167.00,0.98
5166.00,0.98
5165.00,0.98
5164.00,0.98
5163.00,0.98
5162.00,0.98
5161.00,0.99
5160.00,0.99
5159.00,0.99
5158.00,1.00
5157.00,1.00
5156.00,1.00
5155.00,1.01
5154.00,1.01
5153.00,1.01
5152.00,1.02
5151.00,1.02
5150.00,1.03
5149.00,1.03
5148.00,1.03
5147.00,1.04
5146.00,1.04
5145.00,1.05
5144.00,1.05
5143.00,1.06
5142.00,1.06
5141.00,1.07
5140.00,1.07
5139.00,1.07
5138.00,1.08
5137.00,1.08
5136.00,1.08
5135.00,1.08
5134.00,1.08
5133.00,1.08
5132.00,1.08
5131.00,1.08
5130.00,1.08
5129.00,1.08
5128.00,1.08
5127.00,1.08
5126.00,1.08
5125.00,1.08
5124.00,1.08
5123.00,1.08
5122.00,1.08
5121.00,1.08
5120.00,1.08
5119.00,1.08
5118.00,1.08
5117.00,1.08
5116.00,1.08
5115.00,1.08
5114.00,1.08
5113.00,1.08
5112.00,1.08
5111.00,1.08
5110.00,1.08
5109.00,1.08
5108.00,1.09
5107.00,1.09
5106.00,1.09
5105.00,1.10
5104.00,1.10
5103.00,1.10
5102.00,1.10
5101.00,1.11
5100.00,1.11
5099.00,1.12
5098.00,1.12
5097.00,1.12
5096.00,1.13
5095.00,1.13
5094.00,1.14
5093.00,1.14
5092.00,1.15
5091.00,1.15
5090.00,1.15
5089.00,1.16
5088.00,1.16
5087.00,1.17
5086.00,1.17
5085.00,1.17
5084.00,1.18
5083.00,1.18
5082.00,1.18
5081.00,1.18
5080.00,1.18
5079.00,1.19
5078.00,1.19
5077.00,1.19
5076.00,1.19
5075.00,1.19
5074.00,1.20
5073.00,1.20
5072.00,1.20
5071.00,1.20
5070.00,1.20
5069.00,1.20
5068.00,1.20
5067.00,1.20
5066.00,1.20
5065.00,1.20
5064.00,1.20
5063.00,1.20
5062.00,1.20
5061.00,1.20
5060.00,1.20
5059.00,1.20
5058.00,1.20
5057.00,1.20
5056.00,1.20
5055.00,1.21
5054.00,1.21
5053.00,1.21
5052.00,1.21
5051.00,1.21
5050.00,1.21
5049.00,1.21
5048.00,1.21
5047.00,1.21
5046.00,1.21
5045.00,1.21
5044.00,1.21
5043.00,1.21
5042.00,1.21
5041.00,1.21
5040.00,1.21
5039.00,1.21
5038.00,1.21
5037.00,1.21
5036.00,1.21
5035.00,1.21
5034.00,1.20
5033.00,1.20
5032.00,1.20
5031.00,1.20
5030.00,1.20
5029.00,1.20
5028.00,1.20
5027.00,1.19
5026.00,1.19
5025.00,1.19
5024.00,1.19
5023.00,1.19
5022.00,1.19
5021.00,1.19
5020.00,1.20
5019.00,1.20
5018.00,1.20
5017.00,1.21
5016.00,1.21
5015.00,1.22
5014.00,1.22
5013.00,1.23
5012.00,1.23
5011.00,1.24
5010.00,1.25
5009.00,1.25
5008.00,1.26
5007.00,1.27
5006.00,1.27
5005.00,1.28
5004.00,1.29
5003.00,1.29
5002.00,1.30
5001.00,1.30
5000.00,1.31
4999.00,1.31
4998.00,1.32
4997.00,1.32
4996.00,1.32
4995.00,1.33
4994.00,1.33
4993.00,1.33
4992.00,1.33
4991.00,1.34
4990.00,1.34
4989.00,1.34
4988.00,1.34
4987.00,1.33
4986.00,1.33
4985.00,1.33
4984.00,1.33
4983.00,1.33
4982.00,1.33
4981.00,1.33
4980.00,1.33
4979.00,1.33
4978.00,1.33
4977.00,1.33
4976.00,1.34
4975.00,1.34
4974.00,1.34
4973.00,1.35
4972.00,1.35
4971.00,1.35
4970.00,1.36
4969.00,1.36
4968.00,1.37
4967.00,1.37
4966.00,1.38
4965.00,1.38
4964.00,1.38
4963.00,1.39
4962.00,1.39
4961.00,1.40
4960.00,1.41
4959.00,1.41
4958.00,1.42
4957.00,1.42
4956.00,1.43
4955.00,1.43
4954.00,1.44
4953.00,1.44
4952.00,1.45
4951.00,1.45
4950.00,1.45
4949.00,1.46
4948.00,1.46
4947.00,1.46
4946.00,1.47
4945.00,1.47
4944.00,1.47
4943.00,1.47
4942.00,1.48
4941.00,1.48
4940.00,1.49
4939.00,1.49
4938.00,1.49
4937.00,1.50
4936.00,1.50
4935.00,1.51
4934.00,1.51
4933.00,1.52
4932.00,1.52
4931.00,1.52
4930.00,1.53
4929.00,1.53
4928.00,1.53
4927.00,1.54
4926.00,1.54
4925.00,1.54
4924.00,1.55
4923.00,1.55
4922.00,1.55
4921.00,1.55
4920.00,1.56
4919.00,1.56
4918.00,1.56
4917.00,1.56
4916.00,1.57
4915.00,1.57
4914.00,1.57
4913.00,1.58
4912.00,1.58
4911.00,1.58
4910.00,1.59
4909.00,1.59
4908.00,1.60
4907.00,1.60
4906.00,1.60
4905.00,1.61
4904.00,1.62
4903.00,1.62
4902.00,1.63
4901.00,1.63
4900.00,1.64
4899.00,1.65
4898.00,1.65
4897.00,1.66
4896.00,1.66
4895.00,1.67
4894.00,1.68
4893.00,1.68
4892.00,1.69
4891.00,1.69
4890.00,1.70
4889.00,1.70
4888.00,1.71
4887.00,1.71
4886.00,1.71
4885.00,1.71
4884.00,1.72
4883.00,1.72
4882.00,1.72
4881.00,1.72
4880.00,1.72
4879.00,1.72
4878.00,1.72
4877.00,1.72
4876.00,1.72
4875.00,1.72
4874.00,1.72
4873.00,1.72
4872.00,1.72
4871.00,1.72
4870.00,1.72
4869.00,1.72
4868.00,1.73
4867.00,1.73
4866.00,1.73
4865.00,1.73
4864.00,1.74
4863.00,1.74
4862.00,1.74
4861.00,1.74
4860.00,1.75
4859.00,1.75
4858.00,1.75
4857.00,1.76
4856.00,1.76
4855.00,1.77
4854.00,1.77
4853.00,1.78
4852.00,1.78
4851.00,1.79
4850.00,1.80
4849.00,1.80
4848.00,1.80
4847.00,1.81
4846.00,1.81
4845.00,1.82
4844.00,1.82
4843.00,1.82
4842.00,1.83
4841.00,1.83
4840.00,1.83
4839.00,1.84
4838.00,1.84
4837.00,1.85
4836.00,1.85
4835.00,1.86
4834.00,1.86
4833.00,1.87
4832.00,1.88
4831.00,1.89
4830.00,1.89
4829.00,1.90
4828.00,1.91
4827.00,1.91
4826.00,1.92
4825.00,1.93
4824.00,1.94
4823.00,1.94
4822.00,1.95
4821.00,1.96
4820.00,1.96
4819.00,1.97
4818.00,1.98
4817.00,1.99
4816.00,1.99
4815.00,2.00
4814.00,2.01
4813.00,2.01
4812.00,2.02
4811.00,2.02
4810.00,2.03
4809.00,2.03
4808.00,2.03
4807.00,2.03
4806.00,2.03
4805.00,2.03
4804.00,2.03
4803.00,2.02
4802.00,2.02
4801.00,2.02
4800.00,2.01
4799.00,2.01
4798.00,2.00
4797.00,2.00
4796.00,2.00
4795.00,1.99
4794.00,1.99
4793.00,1.99
4792.00,1.99
4791.00,1.98
4790.00,1.98
4789.00,1.98
4788.00,1.98
4787.00,1.98
4786.00,1.98
4785.00,1.98
4784.00,1.98
4783.00,1.99
4782.00,1.99
4781.00,1.99
4780.00,2.00
4779.00,2.00
4778.00,2.01
4777.00,2.02
4776.00,2.03
4775.00,2.04
4774.00,2.05
4773.00,2.06
4772.00,2.07
4771.00,2.08
4770.00,2.09
4769.00,2.10
4768.00,2.11
4767.00,2.11
4766.00,2.12
4765.00,2.13
4764.00,2.14
4763.00,2.14
4762.00,2.15
4761.00,2.16
4760.00,2.16
4759.00,2.17
4758.00,2.17
4757.00,2.18
4756.00,2.18
4755.00,2.19
4754.00,2.19
4753.00,2.19
4752.00,2.19
4751.00,2.20
4750.00,2.20
4749.00,2.20
4748.00,2.20
4747.00,2.20
4746.00,2.20
4745.00,2.21
4744.00,2.21
4743.00,2.21
4742.00,2.21
4741.00,2.22
4740.00,2.22
4739.00,2.22
4738.00,2.22
4737.00,2.23
4736.00,2.23
4735.00,2.24
4734.00,2.24
4733.00,2.25
4732.00,2.25
4731.00,2.26
4730.00,2.27
4729.00,2.27
4728.00,2.28
4727.00,2.29
4726.00,2.30
4725.00,2.30
4724.00,2.31
4723.00,2.32
4722.00,2.32
4721.00,2.33
4720.00,2.33
4719.00,2.34
4718.00,2.34
4717.00,2.35
4716.00,2.35
4715.00,2.36
4714.00,2.36
4713.00,2.37
4712.00,2.38
4711.00,2.39
4710.00,2.40
4709.00,2.41
4708.00,2.42
4707.00,2.43
4706.00,2.43
4705.00,2.44
4704.00,2.45
4703.00,2.45
4702.00,2.46
4701.00,2.46
4700.00,2.47
4699.00,2.47
4698.00,2.48
4697.00,2.49
4696.00,2.50
4695.00,2.50
4694.00,2.51
4693.00,2.52
4692.00,2.53
4691.00,2.54
4690.00,2.54
4689.00,2.55
4688.00,2.56
4687.00,2.56
4686.00,2.56
4685.00,2.56
4684.00,2.56
4683.00,2.56
4682.00,2.56
4681.00,2.56
4680.00,2.55
4679.00,2.55
4678.00,2.55
4677.00,2.55
4676.00,2.55
4675.00,2.56
4674.00,2.56
4673.00,2.56
4672.00,2.56
4671.00,2.56
4670.00,2.56
4669.00,2.56
4668.00,2.56
4667.00,2.56
4666.00,2.57
4665.00,2.57
4664.00,2.57
4663.00,2.57
4662.00,2.58
4661.00,2.58
4660.00,2.58
4659.00,2.59
4658.00,2.59
4657.00,2.60
4656.00,2.60
4655.00,2.61
4654.00,2.61
4653.00,2.62
4652.00,2.62
4651.00,2.63
4650.00,2.63
4649.00,2.63
4648.00,2.64
4647.00,2.64
4646.00,2.64
4645.00,2.64
4644.00,2.64
4643.00,2.64
4642.00,2.64
4641.00,2.64
4640.00,2.63
4639.00,2.63
4638.00,2.62
4637.00,2.62
4636.00,2.62
4635.00,2.61
4634.00,2.61
4633.00,2.61
4632.00,2.61
4631.00,2.61
4630.00,2.61
4629.00,2.62
4628.00,2.62
4627.00,2.62
4626.00,2.62
4625.00,2.63
4624.00,2.63
4623.00,2.63
4622.00,2.63
4621.00,2.63
4620.00,2.64
4619.00,2.64
4618.00,2.65
4617.00,2.65
4616.00,2.66
4615.00,2.67
4614.00,2.68
4613.00,2.68
4612.00,2.69
4611.00,2.70
4610.00,2.71
4609.00,2.72
4608.00,2.72
4607.00,2.73
4606.00,2.73
4605.00,2.73
4604.00,2.73
4603.00,2.73
4602.00,2.74
4601.00,2.74
4600.00,2.74
4599.00,2.74
4598.00,2.74
4597.00,2.74
4596.00,2.75
4595.00,2.75
4594.00,2.75
4593.00,2.76
4592.00,2.76
4591.00,2.76
4590.00,2.76
4589.00,2.76
4588.00,2.76
4587.00,2.76
4586.00,2.76
4585.00,2.76
4584.00,2.76
4583.00,2.76
4582.00,2.77
4581.00,2.77
4580.00,2.77
4579.00,2.77
4578.00,2.78
4577.00,2.78
4576.00,2.78
4575.00,2.78
4574.00,2.78
4573.00,2.78
4572.00,2.78
4571.00,2.78
4570.00,2.78
4569.00,2.78
4568.00,2.78
4567.00,2.77
4566.00,2.77
4565.00,2.77
4564.00,2.76
4563.00,2.76
4562.00,2.76
4561.00,2.76
4560.00,2.76
4559.00,2.76
4558.00,2.76
4557.00,2.76
4556.00,2.76
4555.00,2.76
4554.00,2.76
4553.00,2.76
4552.00,2.76
4551.00,2.76
4550.00,2.76
4549.00,2.77
4548.00,2.77
4547.00,2.78
4546.00,2.78
4545.00,2.79
4544.00,2.79
4543.00,2.80
4542.00,2.81
4541.00,2.82
4540.00,2.83
4539.00,2.83
4538.00,2.84
4537.00,2.85
4536.00,2.86
4535.00,2.86
4534.00,2.87
4533.00,2.88
4532.00,2.89
4531.00,2.89
4530.00,2.90
4529.00,2.90
4528.00,2.91
4527.00,2.91
4526.00,2.92
4525.00,2.92
4524.00,2.92
4523.00,2.93
4522.00,2.93
4521.00,2.93
4520.00,2.93
4519.00,2.94
4518.00,2.94
4517.00,2.94
4516.00,2.94
4515.00,2.94
4514.00,2.94
4513.00,2.94
4512.00,2.94
4511.00,2.93
4510.00,2.93
4509.00,2.93
4508.00,2.93
4507.00,2.93
4506.00,2.93
4505.00,2.92
4504.00,2.92
4503.00,2.92
4502.00,2.92
4501.00,2.92
4500.00,2.92
4499.00,2.92
4498.00,2.92
4497.00,2.92
4496.00,2.92
4495.00,2.91
4494.00,2.91
4493.00,2.91
4492.00,2.91
4491.00,2.91
4490.00,2.91
4489.00,2.91
4488.00,2.91
4487.00,2.91
4486.00,2.91
4485.00,2.91
4484.00,2.90
4483.00,2.90
4482.00,2.90
4481.00,2.90
4480.00,2.89
4479.00,2.89
4478.00,2.89
4477.00,2.89
4476.00,2.89
4475.00,2.89
4474.00,2.89
4473.00,2.89
4472.00,2.88
4471.00,2.88
4470.00,2.88
4469.00,2.88
4468.00,2.87
4467.00,2.87
4466.00,2.87
4465.00,2.86
4464.00,2.86
4463.00,2.85
4462.00,2.85
4461.00,2.85
4460.00,2.84
4459.00,2.84
4458.00,2.84
4457.00,2.84
4456.00,2.83
4455.00,2.83
4454.00,2.82
4453.00,2.82
4452.00,2.81
4451.00,2.80
4450.00,2.80
4449.00,2.79
4448.00,2.78
4447.00,2.76
4446.00,2.75
4445.00,2.74
4444.00,2.73
4443.00,2.72
4442.00,2.71
4441.00,2.70
4440.00,2.68
4439.00,2.67
4438.00,2.66
4437.00,2.65
4436.00,2.63
4435.00,2.62
4434.00,2.61
4433.00,2.59
4432.00,2.58
4431.00,2.57
4430.00,2.55
4429.00,2.54
4428.00,2.52
4427.00,2.51
4426.00,2.50
4425.00,2.49
4424.00,2.48
4423.00,2.48
4422.00,2.47
4421.00,2.46
4420.00,2.46
4419.00,2.45
4418.00,2.45
4417.00,2.44
4416.00,2.44
4415.00,2.43
4414.00,2.43
4413.00,2.43
4412.00,2.43
4411.00,2.43
4410.00,2.44
4409.00,2.44
4408.00,2.44
4407.00,2.45
4406.00,2.45
4405.00,2.46
4404.00,2.46
4403.00,2.47
4402.00,2.48
4401.00,2.49
4400.00,2.50
4399.00,2.51
4398.00,2.52
4397.00,2.53
4396.00,2.54
4395.00,2.55
4394.00,2.56
4393.00,2.57
4392.00,2.59
4391.00,2.60
4390.00,2.61
4389.00,2.62
4388.00,2.63
4387.00,2.64
4386.00,2.65
4385.00,2.66
4384.00,2.67
4383.00,2.68
4382.00,2.69
4381.00,2.69
4380.00,2.70
4379.00,2.70
4378.00,2.70
4377.00,2.70
4376.00,2.70
4375.00,2.70
4374.00,2.70
4373.00,2.69
4372.00,2.68
4371.00,2.67
4370.00,2.66
4369.00,2.65
4368.00,2.64
4367.00,2.63
4366.00,2.62
4365.00,2.61
4364.00,2.60
4363.00,2.58
4362.00,2.57
4361.00,2.56
4360.00,2.55
4359.00,2.53
4358.00,2.52
4357.00,2.51
4356.00,2.50
4355.00,2.49
4354.00,2.48
4353.00,2.47
4352.00,2.47
4351.00,2.46
4350.00,2.45
4349.00,2.45
4348.00,2.45
4347.00,2.45
4346.00,2.45
4345.00,2.45
4344.00,2.45
4343.00,2.46
4342.00,2.46
4341.00,2.47
4340.00,2.48
4339.00,2.48
4338.00,2.49
4337.00,2.50
4336.00,2.51
4335.00,2.52
4334.00,2.52
4333.00,2.53
4332.00,2.54
4331.00,2.55
4330.00,2.56
4329.00,2.57
4328.00,2.57
4327.00,2.58
4326.00,2.60
4325.00,2.61
4324.00,2.62
4323.00,2.63
4322.00,2.64
4321.00,2.65
4320.00,2.66
4319.00,2.67
4318.00,2.68
4317.00,2.69
4316.00,2.70
4315.00,2.71
4314.00,2.71
4313.00,2.72
4312.00,2.73
4311.00,2.74
4310.00,2.74
4309.00,2.75
4308.00,2.76
4307.00,2.77
4306.00,2.78
4305.00,2.79
4304.00,2.79
4303.00,2.80
4302.00,2.80
4301.00,2.81
4300.00,2.81
4299.00,2.81
4298.00,2.81
4297.00,2.80
4296.00,2.80
4295.00,2.80
4294.00,2.79
4293.00,2.79
4292.00,2.78
4291.00,2.78
4290.00,2.77
4289.00,2.77
4288.00,2.76
4287.00,2.76
4286.00,2.76
4285.00,2.75
4284.00,2.75
4283.00,2.74
4282.00,2.74
4281.00,2.73
4280.00,2.72
4279.00,2.72
4278.00,2.71
4277.00,2.70
4276.00,2.70
4275.00,2.69
4274.00,2.68
4273.00,2.68
4272.00,2.68
4271.00,2.67
4270.00,2.67
4269.00,2.67
4268.00,2.67
4267.00,2.67
4266.00,2.67
4265.00,2.67
4264.00,2.67
4263.00,2.67
4262.00,2.67
4261.00,2.66
4260.00,2.66
4259.00,2.66
4258.00,2.66
4257.00,2.66
4256.00,2.66
4255.00,2.66
4254.00,2.65
4253.00,2.65
4252.00,2.65
4251.00,2.65
4250.00,2.65
4249.00,2.65
4248.00,2.65
4247.00,2.65
4246.00,2.65
4245.00,2.64
4244.00,2.64
4243.00,2.64
4242.00,2.64
4241.00,2.64
4240.00,2.64
4239.00,2.64
4238.00,2.64
4237.00,2.64
4236.00,2.64
4235.00,2.64
4234.00,2.64
4233.00,2.64
4232.00,2.64
4231.00,2.65
4230.00,2.65
4229.00,2.65
4228.00,2.65
4227.00,2.66
4226.00,2.66
4225.00,2.67
4224.00,2.67
4223.00,2.68
4222.00,2.69
4221.00,2.69
4220.00,2.70
4219.00,2.71
4218.00,2.72
4217.00,2.72
4216.00,2.73
4215.00,2.73
4214.00,2.74
4213.00,2.74
4212.00,2.74
4211.00,2.75
4210.00,2.75
4209.00,2.75
4208.00,2.74
4207.00,2.74
4206.00,2.74
4205.00,2.73
4204.00,2.73
4203.00,2.72
4202.00,2.71
4201.00,2.70
4200.00,2.69
4199.00,2.68
4198.00,2.68
4197.00,2.67
4196.00,2.66
4195.00,2.65
4194.00,2.64
4193.00,2.63
4192.00,2.62
4191.00,2.61
4190.00,2.61
4189.00,2.60
4188.00,2.59
4187.00,2.58
4186.00,2.58
4185.00,2.58
4184.00,2.57
4183.00,2.57
4182.00,2.57
4181.00,2.57
4180.00,2.58
4179.00,2.58
4178.00,2.58
4177.00,2.58
4176.00,2.59
4175.00,2.59
4174.00,2.59
4173.00,2.59
4172.00,2.59
4171.00,2.59
4170.00,2.59
4169.00,2.59
4168.00,2.58
4167.00,2.58
4166.00,2.57
4165.00,2.56
4164.00,2.55
4163.00,2.54
4162.00,2.53
4161.00,2.51
4160.00,2.50
4159.00,2.48
4158.00,2.46
4157.00,2.44
4156.00,2.41
4155.00,2.39
4154.00,2.37
4153.00,2.35
4152.00,2.33
4151.00,2.31
4150.00,2.29
4149.00,2.27
4148.00,2.25
4147.00,2.24
4146.00,2.22
4145.00,2.21
4144.00,2.20
4143.00,2.19
4142.00,2.18
4141.00,2.17
4140.00,2.17
4139.00,2.16
4138.00,2.16
4137.00,2.16
4136.00,2.17
4135.00,2.17
4134.00,2.18
4133.00,2.19
4132.00,2.20
4131.00,2.22
4130.00,2.23
4129.00,2.25
4128.00,2.27
4127.00,2.28
4126.00,2.30
4125.00,2.31
4124.00,2.33
4123.00,2.35
4122.00,2.36
4121.00,2.38
4120.00,2.39
4119.00,2.41
4118.00,2.42
4117.00,2.43
4116.00,2.44
4115.00,2.45
4114.00,2.46
4113.00,2.47
4112.00,2.48
4111.00,2.49
4110.00,2.49
4109.00,2.50
4108.00,2.50
4107.00,2.50
4106.00,2.50
4105.00,2.50
4104.00,2.50
4103.00,2.50
4102.00,2.50
4101.00,2.51
4100.00,2.51
4099.00,2.51
4098.00,2.52
4097.00,2.52
4096.00,2.52
4095.00,2.51
4094.00,2.51
4093.00,2.51
4092.00,2.51
4091.00,2.50
4090.00,2.50
4089.00,2.51
4088.00,2.51
4087.00,2.51
4086.00,2.51
4085.00,2.51
4084.00,2.51
4083.00,2.51
4082.00,2.51
4081.00,2.51
4080.00,2.51
4079.00,2.52
4078.00,2.52
4077.00,2.52
4076.00,2.52
4075.00,2.52
4074.00,2.52
4073.00,2.51
4072.00,2.51
4071.00,2.51
4070.00,2.50
4069.00,2.50
4068.00,2.51
4067.00,2.51
4066.00,2.51
4065.00,2.51
4064.00,2.51
4063.00,2.51
4062.00,2.51
4061.00,2.51
4060.00,2.50
4059.00,2.50
4058.00,2.50
4057.00,2.49
4056.00,2.49
4055.00,2.49
4054.00,2.49
4053.00,2.49
4052.00,2.49
4051.00,2.48
4050.00,2.48
4049.00,2.48
4048.00,2.48
4047.00,2.47
4046.00,2.47
4045.00,2.47
4044.00,2.46
4043.00,2.46
4042.00,2.45
4041.00,2.44
4040.00,2.43
4039.00,2.42
4038.00,2.42
4037.00,2.41
4036.00,2.40
4035.00,2.40
4034.00,2.40
4033.00,2.40
4032.00,2.40
4031.00,2.40
4030.00,2.40
4029.00,2.40
4028.00,2.40
4027.00,2.40
4026.00,2.40
4025.00,2.41
4024.00,2.41
4023.00,2.42
4022.00,2.42
4021.00,2.43
4020.00,2.44
4019.00,2.46
4018.00,2.47
4017.00,2.49
4016.00,2.51
4015.00,2.53
4014.00,2.55
4013.00,2.58
4012.00,2.61
4011.00,2.64
4010.00,2.67
4009.00,2.70
4008.00,2.74
4007.00,2.77
4006.00,2.80
4005.00,2.84
4004.00,2.87
4003.00,2.91
4002.00,2.94
4001.00,2.98
4000.00,3.01
