创建为新数据集,样品 1074 用户 Administrator 日期 星期二, 七月 30 2019
cm-1,%T
10000.00,1.64
9999.00,1.78
9998.00,1.92
9997.00,2.05
9996.00,2.19
9995.00,2.31
9994.00,2.43
9993.00,2.55
9992.00,2.65
9991.00,2.75
9990.00,2.85
9989.00,2.94
9988.00,3.03
9987.00,3.12
9986.00,3.20
9985.00,3.28
9984.00,3.36
9983.00,3.43
9982.00,3.49
9981.00,3.55
9980.00,3.60
9979.00,3.64
9978.00,3.67
9977.00,3.68
9976.00,3.69
9975.00,3.68
9974.00,3.66
9973.00,3.64
9972.00,3.60
9971.00,3.56
9970.00,3.51
9969.00,3.46
9968.00,3.41
9967.00,3.35
9966.00,3.29
9965.00,3.24
9964.00,3.18
9963.00,3.13
9962.00,3.07
9961.00,3.01
9960.00,2.95
9959.00,2.89
9958.00,2.84
9957.00,2.78
9956.00,2.73
9955.00,2.68
9954.00,2.63
9953.00,2.59
9952.00,2.55
9951.00,2.53
9950.00,2.51
9949.00,2.50
9948.00,2.49
9947.00,2.49
9946.00,2.49
9945.00,2.50
9944.00,2.52
9943.00,2.53
9942.00,2.54
9941.00,2.56
9940.00,2.57
9939.00,2.59
9938.00,2.60
9937.00,2.61
9936.00,2.62
9935.00,2.63
9934.00,2.64
9933.00,2.64
9932.00,2.65
9931.00,2.65
9930.00,2.65
9929.00,2.64
9928.00,2.63
9927.00,2.62
9926.00,2.60
9925.00,2.58
9924.00,2.55
9923.00,2.52
9922.00,2.49
9921.00,2.46
9920.00,2.42
9919.00,2.38
9918.00,2.35
9917.00,2.31
9916.00,2.28
9915.00,2.24
9914.00,2.21
9913.00,2.18
9912.00,2.15
9911.00,2.13
9910.00,2.10
9909.00,2.08
9908.00,2.06
9907.00,2.04
9906.00,2.02
9905.00,2.00
9904.00,1.99
9903.00,1.98
9902.00,1.97
9901.00,1.96
9900.00,1.96
9899.00,1.96
9898.00,1.96
9897.00,1.96
9896.00,1.97
9895.00,1.98
9894.00,1.99
9893.00,2.00
9892.00,2.01
9891.00,2.02
9890.00,2.03
9889.00,2.04
9888.00,2.05
9887.00,2.06
9886.00,2.07
9885.00,2.07
9884.00,2.08
9883.00,2.08
9882.00,2.08
9881.00,2.08
9880.00,2.08
9879.00,2.08
9878.00,2.08
9877.00,2.08
9876.00,2.08
9875.00,2.08
9874.00,2.08
9873.00,2.08
9872.00,2.07
9871.00,2.07
9870.00,2.07
9869.00,2.06
9868.00,2.06
9867.00,2.05
9866.00,2.04
9865.00,2.03
9864.00,2.02
9863.00,2.02
9862.00,2.01
9861.00,2.00
9860.00,2.00
9859.00,1.99
9858.00,1.99
9857.00,1.99
9856.00,2.00
9855.00,2.01
9854.00,2.02
9853.00,2.03
9852.00,2.05
9851.00,2.06
9850.00,2.08
9849.00,2.09
9848.00,2.11
9847.00,2.12
9846.00,2.14
9845.00,2.15
9844.00,2.16
9843.00,2.17
9842.00,2.18
9841.00,2.18
9840.00,2.19
9839.00,2.20
9838.00,2.21
9837.00,2.21
9836.00,2.22
9835.00,2.22
9834.00,2.23
9833.00,2.23
9832.00,2.23
9831.00,2.23
9830.00,2.23
9829.00,2.22
9828.00,2.21
9827.00,2.20
9826.00,2.19
9825.00,2.18
9824.00,2.17
9823.00,2.16
9822.00,2.15
9821.00,2.14
9820.00,2.14
9819.00,2.14
9818.00,2.14
9817.00,2.14
9816.00,2.15
9815.00,2.15
9814.00,2.16
9813.00,2.17
9812.00,2.17
9811.00,2.18
9810.00,2.18
9809.00,2.19
9808.00,2.19
9807.00,2.20
9806.00,2.20
9805.00,2.20
9804.00,2.21
9803.00,2.21
9802.00,2.22
9801.00,2.22
9800.00,2.23
9799.00,2.23
9798.00,2.23
9797.00,2.23
9796.00,2.23
9795.00,2.22
9794.00,2.22
9793.00,2.21
9792.00,2.19
9791.00,2.18
9790.00,2.16
9789.00,2.15
9788.00,2.13
9787.00,2.11
9786.00,2.10
9785.00,2.08
9784.00,2.07
9783.00,2.06
9782.00,2.05
9781.00,2.04
9780.00,2.03
9779.00,2.03
9778.00,2.02
9777.00,2.01
9776.00,2.01
9775.00,2.00
9774.00,2.00
9773.00,1.99
9772.00,1.98
9771.00,1.98
9770.00,1.97
9769.00,1.96
9768.00,1.96
9767.00,1.95
9766.00,1.94
9765.00,1.94
9764.00,1.93
9763.00,1.92
9762.00,1.92
9761.00,1.91
9760.00,1.90
9759.00,1.90
9758.00,1.89
9757.00,1.89
9756.00,1.88
9755.00,1.87
9754.00,1.86
9753.00,1.86
9752.00,1.85
9751.00,1.84
9750.00,1.84
9749.00,1.83
9748.00,1.82
9747.00,1.82
9746.00,1.81
9745.00,1.81
9744.00,1.80
9743.00,1.80
9742.00,1.80
9741.00,1.80
9740.00,1.81
9739.00,1.81
9738.00,1.82
9737.00,1.83
9736.00,1.84
9735.00,1.84
9734.00,1.85
9733.00,1.86
9732.00,1.87
9731.00,1.88
9730.00,1.89
9729.00,1.90
9728.00,1.91
9727.00,1.92
9726.00,1.93
9725.00,1.94
9724.00,1.95
9723.00,1.96
9722.00,1.97
9721.00,1.98
9720.00,1.99
9719.00,2.00
9718.00,2.01
9717.00,2.02
9716.00,2.03
9715.00,2.04
9714.00,2.04
9713.00,2.04
9712.00,2.04
9711.00,2.04
9710.00,2.04
9709.00,2.04
9708.00,2.03
9707.00,2.02
9706.00,2.01
9705.00,2.00
9704.00,1.98
9703.00,1.97
9702.00,1.95
9701.00,1.93
9700.00,1.91
9699.00,1.88
9698.00,1.86
9697.00,1.83
9696.00,1.81
9695.00,1.79
9694.00,1.76
9693.00,1.74
9692.00,1.72
9691.00,1.71
9690.00,1.69
9689.00,1.68
9688.00,1.68
9687.00,1.67
9686.00,1.67
9685.00,1.67
9684.00,1.67
9683.00,1.68
9682.00,1.69
9681.00,1.70
9680.00,1.71
9679.00,1.73
9678.00,1.75
9677.00,1.77
9676.00,1.79
9675.00,1.82
9674.00,1.84
9673.00,1.87
9672.00,1.90
9671.00,1.93
9670.00,1.95
9669.00,1.98
9668.00,2.00
9667.00,2.02
9666.00,2.04
9665.00,2.05
9664.00,2.07
9663.00,2.08
9662.00,2.08
9661.00,2.09
9660.00,2.09
9659.00,2.09
9658.00,2.09
9657.00,2.09
9656.00,2.08
9655.00,2.08
9654.00,2.08
9653.00,2.08
9652.00,2.07
9651.00,2.07
9650.00,2.07
9649.00,2.07
9648.00,2.07
9647.00,2.06
9646.00,2.06
9645.00,2.06
9644.00,2.05
9643.00,2.05
9642.00,2.04
9641.00,2.03
9640.00,2.02
9639.00,2.01
9638.00,2.00
9637.00,1.99
9636.00,1.98
9635.00,1.97
9634.00,1.95
9633.00,1.94
9632.00,1.93
9631.00,1.91
9630.00,1.90
9629.00,1.88
9628.00,1.86
9627.00,1.84
9626.00,1.82
9625.00,1.80
9624.00,1.77
9623.00,1.74
9622.00,1.72
9621.00,1.69
9620.00,1.66
9619.00,1.64
9618.00,1.62
9617.00,1.59
9616.00,1.58
9615.00,1.56
9614.00,1.55
9613.00,1.54
9612.00,1.53
9611.00,1.52
9610.00,1.52
9609.00,1.52
9608.00,1.52
9607.00,1.52
9606.00,1.52
9605.00,1.52
9604.00,1.53
9603.00,1.53
9602.00,1.54
9601.00,1.55
9600.00,1.56
9599.00,1.58
9598.00,1.59
9597.00,1.61
9596.00,1.63
9595.00,1.65
9594.00,1.67
9593.00,1.69
9592.00,1.71
9591.00,1.73
9590.00,1.75
9589.00,1.77
9588.00,1.79
9587.00,1.82
9586.00,1.84
9585.00,1.86
9584.00,1.89
9583.00,1.91
9582.00,1.94
9581.00,1.96
9580.00,1.99
9579.00,2.02
9578.00,2.05
9577.00,2.07
9576.00,2.09
9575.00,2.12
9574.00,2.14
9573.00,2.17
9572.00,2.19
9571.00,2.21
9570.00,2.23
9569.00,2.25
9568.00,2.27
9567.00,2.28
9566.00,2.30
9565.00,2.31
9564.00,2.33
9563.00,2.33
9562.00,2.34
9561.00,2.34
9560.00,2.34
9559.00,2.34
9558.00,2.33
9557.00,2.33
9556.00,2.31
9555.00,2.30
9554.00,2.28
9553.00,2.26
9552.00,2.24
9551.00,2.22
9550.00,2.20
9549.00,2.17
9548.00,2.15
9547.00,2.12
9546.00,2.09
9545.00,2.06
9544.00,2.02
9543.00,1.98
9542.00,1.95
9541.00,1.91
9540.00,1.87
9539.00,1.84
9538.00,1.80
9537.00,1.77
9536.00,1.75
9535.00,1.73
9534.00,1.71
9533.00,1.69
9532.00,1.68
9531.00,1.67
9530.00,1.67
9529.00,1.66
9528.00,1.66
9527.00,1.67
9526.00,1.67
9525.00,1.67
9524.00,1.68
9523.00,1.69
9522.00,1.70
9521.00,1.71
9520.00,1.72
9519.00,1.74
9518.00,1.76
9517.00,1.77
9516.00,1.79
9515.00,1.82
9514.00,1.84
9513.00,1.86
9512.00,1.89
9511.00,1.92
9510.00,1.94
9509.00,1.97
9508.00,1.99
9507.00,2.02
9506.00,2.04
9505.00,2.06
9504.00,2.08
9503.00,2.10
9502.00,2.12
9501.00,2.13
9500.00,2.14
9499.00,2.16
9498.00,2.17
9497.00,2.19
9496.00,2.20
9495.00,2.22
9494.00,2.24
9493.00,2.25
9492.00,2.27
9491.00,2.29
9490.00,2.31
9489.00,2.32
9488.00,2.34
9487.00,2.35
9486.00,2.35
9485.00,2.35
9484.00,2.35
9483.00,2.34
9482.00,2.34
9481.00,2.33
9480.00,2.31
9479.00,2.30
9478.00,2.29
9477.00,2.28
9476.00,2.26
9475.00,2.25
9474.00,2.24
9473.00,2.23
9472.00,2.22
9471.00,2.20
9470.00,2.18
9469.00,2.16
9468.00,2.14
9467.00,2.12
9466.00,2.09
9465.00,2.07
9464.00,2.04
9463.00,2.02
9462.00,2.00
9461.00,1.98
9460.00,1.97
9459.00,1.96
9458.00,1.95
9457.00,1.94
9456.00,1.93
9455.00,1.92
9454.00,1.92
9453.00,1.91
9452.00,1.90
9451.00,1.89
9450.00,1.88
9449.00,1.87
9448.00,1.86
9447.00,1.84
9446.00,1.83
9445.00,1.81
9444.00,1.80
9443.00,1.78
9442.00,1.77
9441.00,1.75
9440.00,1.74
9439.00,1.72
9438.00,1.71
9437.00,1.69
9436.00,1.68
9435.00,1.66
9434.00,1.64
9433.00,1.62
9432.00,1.60
9431.00,1.58
9430.00,1.56
9429.00,1.54
9428.00,1.52
9427.00,1.51
9426.00,1.49
9425.00,1.48
9424.00,1.47
9423.00,1.47
9422.00,1.46
9421.00,1.46
9420.00,1.46
9419.00,1.46
9418.00,1.47
9417.00,1.48
9416.00,1.49
9415.00,1.50
9414.00,1.52
9413.00,1.53
9412.00,1.55
9411.00,1.58
9410.00,1.60
9409.00,1.62
9408.00,1.65
9407.00,1.68
9406.00,1.71
9405.00,1.73
9404.00,1.76
9403.00,1.79
9402.00,1.82
9401.00,1.85
9400.00,1.87
9399.00,1.90
9398.00,1.92
9397.00,1.95
9396.00,1.97
9395.00,1.99
9394.00,2.01
9393.00,2.03
9392.00,2.05
9391.00,2.06
9390.00,2.08
9389.00,2.09
9388.00,2.10
9387.00,2.11
9386.00,2.11
9385.00,2.11
9384.00,2.12
9383.00,2.12
9382.00,2.11
9381.00,2.11
9380.00,2.11
9379.00,2.11
9378.00,2.11
9377.00,2.11
9376.00,2.11
9375.00,2.11
9374.00,2.11
9373.00,2.11
9372.00,2.11
9371.00,2.11
9370.00,2.11
9369.00,2.11
9368.00,2.11
9367.00,2.11
9366.00,2.12
9365.00,2.12
9364.00,2.12
9363.00,2.13
9362.00,2.13
9361.00,2.14
9360.00,2.15
9359.00,2.16
9358.00,2.17
9357.00,2.17
9356.00,2.18
9355.00,2.18
9354.00,2.18
9353.00,2.18
9352.00,2.18
9351.00,2.17
9350.00,2.17
9349.00,2.16
9348.00,2.15
9347.00,2.13
9346.00,2.12
9345.00,2.11
9344.00,2.10
9343.00,2.09
9342.00,2.07
9341.00,2.06
9340.00,2.04
9339.00,2.03
9338.00,2.01
9337.00,1.99
9336.00,1.96
9335.00,1.94
9334.00,1.91
9333.00,1.88
9332.00,1.85
9331.00,1.82
9330.00,1.80
9329.00,1.77
9328.00,1.75
9327.00,1.72
9326.00,1.70
9325.00,1.69
9324.00,1.67
9323.00,1.66
9322.00,1.65
9321.00,1.64
9320.00,1.63
9319.00,1.62
9318.00,1.61
9317.00,1.59
9316.00,1.58
9315.00,1.57
9314.00,1.56
9313.00,1.56
9312.00,1.55
9311.00,1.54
9310.00,1.54
9309.00,1.54
9308.00,1.55
9307.00,1.55
9306.00,1.56
9305.00,1.57
9304.00,1.58
9303.00,1.59
9302.00,1.60
9301.00,1.61
9300.00,1.62
9299.00,1.63
9298.00,1.63
9297.00,1.64
9296.00,1.65
9295.00,1.65
9294.00,1.66
9293.00,1.67
9292.00,1.67
9291.00,1.69
9290.00,1.70
9289.00,1.72
9288.00,1.73
9287.00,1.75
9286.00,1.78
9285.00,1.80
9284.00,1.82
9283.00,1.84
9282.00,1.85
9281.00,1.87
9280.00,1.89
9279.00,1.90
9278.00,1.92
9277.00,1.94
9276.00,1.96
9275.00,1.97
9274.00,1.99
9273.00,2.02
9272.00,2.04
9271.00,2.06
9270.00,2.09
9269.00,2.11
9268.00,2.14
9267.00,2.16
9266.00,2.18
9265.00,2.21
9264.00,2.22
9263.00,2.24
9262.00,2.25
9261.00,2.26
9260.00,2.27
9259.00,2.27
9258.00,2.27
9257.00,2.27
9256.00,2.27
9255.00,2.27
9254.00,2.27
9253.00,2.27
9252.00,2.26
9251.00,2.26
9250.00,2.25
9249.00,2.25
9248.00,2.24
9247.00,2.24
9246.00,2.23
9245.00,2.22
9244.00,2.21
9243.00,2.20
9242.00,2.19
9241.00,2.18
9240.00,2.16
9239.00,2.15
9238.00,2.14
9237.00,2.13
9236.00,2.12
9235.00,2.11
9234.00,2.10
9233.00,2.09
9232.00,2.09
9231.00,2.08
9230.00,2.08
9229.00,2.08
9228.00,2.08
9227.00,2.08
9226.00,2.08
9225.00,2.08
9224.00,2.08
9223.00,2.07
9222.00,2.07
9221.00,2.06
9220.00,2.05
9219.00,2.04
9218.00,2.02
9217.00,2.01
9216.00,2.00
9215.00,1.99
9214.00,1.98
9213.00,1.97
9212.00,1.96
9211.00,1.96
9210.00,1.95
9209.00,1.95
9208.00,1.95
9207.00,1.94
9206.00,1.94
9205.00,1.94
9204.00,1.94
9203.00,1.94
9202.00,1.94
9201.00,1.95
9200.00,1.95
9199.00,1.96
9198.00,1.96
9197.00,1.97
9196.00,1.98
9195.00,1.99
9194.00,2.01
9193.00,2.02
9192.00,2.04
9191.00,2.06
9190.00,2.08
9189.00,2.10
9188.00,2.11
9187.00,2.13
9186.00,2.15
9185.00,2.16
9184.00,2.17
9183.00,2.18
9182.00,2.19
9181.00,2.20
9180.00,2.21
9179.00,2.22
9178.00,2.22
9177.00,2.23
9176.00,2.23
9175.00,2.23
9174.00,2.24
9173.00,2.24
9172.00,2.24
9171.00,2.24
9170.00,2.25
9169.00,2.25
9168.00,2.26
9167.00,2.26
9166.00,2.27
9165.00,2.27
9164.00,2.28
9163.00,2.28
9162.00,2.28
9161.00,2.28
9160.00,2.28
9159.00,2.28
9158.00,2.27
9157.00,2.27
9156.00,2.27
9155.00,2.28
9154.00,2.28
9153.00,2.28
9152.00,2.29
9151.00,2.29
9150.00,2.29
9149.00,2.29
9148.00,2.29
9147.00,2.29
9146.00,2.29
9145.00,2.28
9144.00,2.27
9143.00,2.26
9142.00,2.25
9141.00,2.24
9140.00,2.22
9139.00,2.21
9138.00,2.20
9137.00,2.20
9136.00,2.19
9135.00,2.19
9134.00,2.18
9133.00,2.18
9132.00,2.18
9131.00,2.18
9130.00,2.18
9129.00,2.18
9128.00,2.18
9127.00,2.17
9126.00,2.16
9125.00,2.15
9124.00,2.15
9123.00,2.14
9122.00,2.14
9121.00,2.14
9120.00,2.14
9119.00,2.14
9118.00,2.15
9117.00,2.16
9116.00,2.16
9115.00,2.17
9114.00,2.18
9113.00,2.19
9112.00,2.19
9111.00,2.19
9110.00,2.20
9109.00,2.20
9108.00,2.19
9107.00,2.19
9106.00,2.19
9105.00,2.19
9104.00,2.18
9103.00,2.18
9102.00,2.18
9101.00,2.18
9100.00,2.18
9099.00,2.19
9098.00,2.19
9097.00,2.19
9096.00,2.18
9095.00,2.18
9094.00,2.17
9093.00,2.16
9092.00,2.16
9091.00,2.14
9090.00,2.13
9089.00,2.12
9088.00,2.11
9087.00,2.09
9086.00,2.08
9085.00,2.07
9084.00,2.05
9083.00,2.04
9082.00,2.02
9081.00,2.01
9080.00,1.99
9079.00,1.97
9078.00,1.95
9077.00,1.93
9076.00,1.92
9075.00,1.90
9074.00,1.88
9073.00,1.87
9072.00,1.85
9071.00,1.84
9070.00,1.82
9069.00,1.81
9068.00,1.80
9067.00,1.79
9066.00,1.78
9065.00,1.77
9064.00,1.76
9063.00,1.76
9062.00,1.75
9061.00,1.74
9060.00,1.73
9059.00,1.72
9058.00,1.72
9057.00,1.71
9056.00,1.71
9055.00,1.70
9054.00,1.70
9053.00,1.70
9052.00,1.70
9051.00,1.69
9050.00,1.69
9049.00,1.69
9048.00,1.68
9047.00,1.68
9046.00,1.67
9045.00,1.67
9044.00,1.66
9043.00,1.66
9042.00,1.65
9041.00,1.65
9040.00,1.64
9039.00,1.64
9038.00,1.64
9037.00,1.64
9036.00,1.64
9035.00,1.64
9034.00,1.64
9033.00,1.64
9032.00,1.64
9031.00,1.65
9030.00,1.65
9029.00,1.66
9028.00,1.66
9027.00,1.67
9026.00,1.68
9025.00,1.69
9024.00,1.70
9023.00,1.72
9022.00,1.73
9021.00,1.75
9020.00,1.77
9019.00,1.79
9018.00,1.81
9017.00,1.83
9016.00,1.85
9015.00,1.87
9014.00,1.89
9013.00,1.91
9012.00,1.94
9011.00,1.96
9010.00,1.98
9009.00,2.01
9008.00,2.03
9007.00,2.06
9006.00,2.08
9005.00,2.11
9004.00,2.13
9003.00,2.15
9002.00,2.17
9001.00,2.19
9000.00,2.21
8999.00,2.23
8998.00,2.25
8997.00,2.27
8996.00,2.29
8995.00,2.31
8994.00,2.32
8993.00,2.33
8992.00,2.34
8991.00,2.35
8990.00,2.36
8989.00,2.36
8988.00,2.37
8987.00,2.37
8986.00,2.37
8985.00,2.37
8984.00,2.37
8983.00,2.37
8982.00,2.36
8981.00,2.36
8980.00,2.35
8979.00,2.35
8978.00,2.34
8977.00,2.34
8976.00,2.33
8975.00,2.33
8974.00,2.32
8973.00,2.31
8972.00,2.30
8971.00,2.29
8970.00,2.28
8969.00,2.27
8968.00,2.25
8967.00,2.24
8966.00,2.22
8965.00,2.21
8964.00,2.20
8963.00,2.19
8962.00,2.18
8961.00,2.17
8960.00,2.16
8959.00,2.15
8958.00,2.14
8957.00,2.13
8956.00,2.12
8955.00,2.11
8954.00,2.10
8953.00,2.09
8952.00,2.08
8951.00,2.08
8950.00,2.07
8949.00,2.06
8948.00,2.04
8947.00,2.03
8946.00,2.02
8945.00,2.01
8944.00,2.01
8943.00,2.00
8942.00,1.99
8941.00,1.98
8940.00,1.98
8939.00,1.97
8938.00,1.97
8937.00,1.96
8936.00,1.96
8935.00,1.95
8934.00,1.95
8933.00,1.94
8932.00,1.94
8931.00,1.93
8930.00,1.93
8929.00,1.93
8928.00,1.92
8927.00,1.92
8926.00,1.92
8925.00,1.92
8924.00,1.92
8923.00,1.92
8922.00,1.92
8921.00,1.93
8920.00,1.93
8919.00,1.94
8918.00,1.94
8917.00,1.95
8916.00,1.95
8915.00,1.96
8914.00,1.96
8913.00,1.97
8912.00,1.97
8911.00,1.98
8910.00,1.98
8909.00,1.99
8908.00,2.00
8907.00,2.01
8906.00,2.01
8905.00,2.02
8904.00,2.03
8903.00,2.04
8902.00,2.05
8901.00,2.05
8900.00,2.05
8899.00,2.05
8898.00,2.05
8897.00,2.05
8896.00,2.04
8895.00,2.03
8894.00,2.03
8893.00,2.02
8892.00,2.01
8891.00,2.01
8890.00,2.00
8889.00,1.99
8888.00,1.99
8887.00,1.98
8886.00,1.98
8885.00,1.97
8884.00,1.97
8883.00,1.97
8882.00,1.96
8881.00,1.96
8880.00,1.96
8879.00,1.96
8878.00,1.96
8877.00,1.97
8876.00,1.97
8875.00,1.98
8874.00,1.99
8873.00,2.01
8872.00,2.02
8871.00,2.04
8870.00,2.06
8869.00,2.09
8868.00,2.11
8867.00,2.13
8866.00,2.16
8865.00,2.18
8864.00,2.20
8863.00,2.23
8862.00,2.25
8861.00,2.28
8860.00,2.30
8859.00,2.32
8858.00,2.34
8857.00,2.36
8856.00,2.38
8855.00,2.40
8854.00,2.41
8853.00,2.42
8852.00,2.42
8851.00,2.42
8850.00,2.42
8849.00,2.42
8848.00,2.41
8847.00,2.40
8846.00,2.39
8845.00,2.38
8844.00,2.36
8843.00,2.35
8842.00,2.34
8841.00,2.32
8840.00,2.30
8839.00,2.29
8838.00,2.27
8837.00,2.25
8836.00,2.23
8835.00,2.21
8834.00,2.19
8833.00,2.17
8832.00,2.16
8831.00,2.14
8830.00,2.13
8829.00,2.12
8828.00,2.12
8827.00,2.11
8826.00,2.12
8825.00,2.12
8824.00,2.13
8823.00,2.14
8822.00,2.16
8821.00,2.17
8820.00,2.19
8819.00,2.21
8818.00,2.23
8817.00,2.25
8816.00,2.27
8815.00,2.29
8814.00,2.31
8813.00,2.33
8812.00,2.34
8811.00,2.36
8810.00,2.37
8809.00,2.39
8808.00,2.40
8807.00,2.41
8806.00,2.42
8805.00,2.43
8804.00,2.43
8803.00,2.44
8802.00,2.43
8801.00,2.43
8800.00,2.42
8799.00,2.41
8798.00,2.39
8797.00,2.37
8796.00,2.35
8795.00,2.33
8794.00,2.30
8793.00,2.27
8792.00,2.24
8791.00,2.21
8790.00,2.18
8789.00,2.16
8788.00,2.13
8787.00,2.11
8786.00,2.10
8785.00,2.08
8784.00,2.07
8783.00,2.05
8782.00,2.04
8781.00,2.03
8780.00,2.02
8779.00,2.01
8778.00,2.00
8777.00,1.99
8776.00,1.99
8775.00,1.99
8774.00,1.98
8773.00,1.98
8772.00,1.99
8771.00,2.00
8770.00,2.01
8769.00,2.02
8768.00,2.04
8767.00,2.05
8766.00,2.07
8765.00,2.09
8764.00,2.11
8763.00,2.13
8762.00,2.14
8761.00,2.16
8760.00,2.17
8759.00,2.19
8758.00,2.20
8757.00,2.21
8756.00,2.23
8755.00,2.24
8754.00,2.25
8753.00,2.26
8752.00,2.26
8751.00,2.27
8750.00,2.28
8749.00,2.28
8748.00,2.29
8747.00,2.29
8746.00,2.29
8745.00,2.29
8744.00,2.29
8743.00,2.28
8742.00,2.27
8741.00,2.26
8740.00,2.25
8739.00,2.23
8738.00,2.22
8737.00,2.20
8736.00,2.18
8735.00,2.17
8734.00,2.15
8733.00,2.12
8732.00,2.10
8731.00,2.08
8730.00,2.05
8729.00,2.03
8728.00,2.01
8727.00,1.99
8726.00,1.97
8725.00,1.95
8724.00,1.94
8723.00,1.93
8722.00,1.92
8721.00,1.91
8720.00,1.90
8719.00,1.90
8718.00,1.89
8717.00,1.89
8716.00,1.89
8715.00,1.89
8714.00,1.89
8713.00,1.89
8712.00,1.90
8711.00,1.90
8710.00,1.91
8709.00,1.91
8708.00,1.92
8707.00,1.92
8706.00,1.93
8705.00,1.94
8704.00,1.95
8703.00,1.96
8702.00,1.97
8701.00,1.98
8700.00,1.99
8699.00,2.00
8698.00,2.01
8697.00,2.02
8696.00,2.02
8695.00,2.03
8694.00,2.03
8693.00,2.03
8692.00,2.03
8691.00,2.03
8690.00,2.04
8689.00,2.04
8688.00,2.03
8687.00,2.03
8686.00,2.03
8685.00,2.03
8684.00,2.02
8683.00,2.02
8682.00,2.02
8681.00,2.02
8680.00,2.02
8679.00,2.02
8678.00,2.02
8677.00,2.02
8676.00,2.02
8675.00,2.02
8674.00,2.02
8673.00,2.02
8672.00,2.02
8671.00,2.01
8670.00,2.01
8669.00,2.00
8668.00,2.00
8667.00,1.99
8666.00,1.99
8665.00,1.98
8664.00,1.97
8663.00,1.97
8662.00,1.97
8661.00,1.96
8660.00,1.96
8659.00,1.96
8658.00,1.97
8657.00,1.97
8656.00,1.97
8655.00,1.97
8654.00,1.98
8653.00,1.98
8652.00,1.98
8651.00,1.98
8650.00,1.98
8649.00,1.97
8648.00,1.97
8647.00,1.97
8646.00,1.98
8645.00,1.98
8644.00,1.99
8643.00,2.00
8642.00,2.01
8641.00,2.02
8640.00,2.03
8639.00,2.05
8638.00,2.06
8637.00,2.07
8636.00,2.09
8635.00,2.10
8634.00,2.11
8633.00,2.12
8632.00,2.13
8631.00,2.14
8630.00,2.14
8629.00,2.15
8628.00,2.16
8627.00,2.17
8626.00,2.18
8625.00,2.20
8624.00,2.21
8623.00,2.23
8622.00,2.25
8621.00,2.26
8620.00,2.28
8619.00,2.29
8618.00,2.31
8617.00,2.32
8616.00,2.33
8615.00,2.33
8614.00,2.34
8613.00,2.35
8612.00,2.35
8611.00,2.35
8610.00,2.36
8609.00,2.36
8608.00,2.37
8607.00,2.37
8606.00,2.38
8605.00,2.38
8604.00,2.39
8603.00,2.39
8602.00,2.39
8601.00,2.39
8600.00,2.39
8599.00,2.38
8598.00,2.38
8597.00,2.36
8596.00,2.35
8595.00,2.33
8594.00,2.31
8593.00,2.30
8592.00,2.28
8591.00,2.26
8590.00,2.24
8589.00,2.22
8588.00,2.20
8587.00,2.18
8586.00,2.17
8585.00,2.15
8584.00,2.14
8583.00,2.12
8582.00,2.11
8581.00,2.10
8580.00,2.09
8579.00,2.08
8578.00,2.07
8577.00,2.06
8576.00,2.05
8575.00,2.04
8574.00,2.03
8573.00,2.02
8572.00,2.01
8571.00,2.00
8570.00,1.99
8569.00,1.99
8568.00,1.98
8567.00,1.98
8566.00,1.97
8565.00,1.97
8564.00,1.97
8563.00,1.97
8562.00,1.97
8561.00,1.97
8560.00,1.97
8559.00,1.96
8558.00,1.96
8557.00,1.95
8556.00,1.94
8555.00,1.92
8554.00,1.91
8553.00,1.89
8552.00,1.87
8551.00,1.85
8550.00,1.84
8549.00,1.82
8548.00,1.81
8547.00,1.80
8546.00,1.80
8545.00,1.79
8544.00,1.80
8543.00,1.80
8542.00,1.80
8541.00,1.81
8540.00,1.81
8539.00,1.82
8538.00,1.82
8537.00,1.83
8536.00,1.83
8535.00,1.84
8534.00,1.85
8533.00,1.86
8532.00,1.87
8531.00,1.89
8530.00,1.91
8529.00,1.93
8528.00,1.96
8527.00,1.98
8526.00,2.01
8525.00,2.04
8524.00,2.07
8523.00,2.09
8522.00,2.12
8521.00,2.14
8520.00,2.16
8519.00,2.18
8518.00,2.20
8517.00,2.22
8516.00,2.23
8515.00,2.25
8514.00,2.26
8513.00,2.27
8512.00,2.27
8511.00,2.28
8510.00,2.28
8509.00,2.28
8508.00,2.28
8507.00,2.28
8506.00,2.27
8505.00,2.26
8504.00,2.25
8503.00,2.24
8502.00,2.22
8501.00,2.21
8500.00,2.19
8499.00,2.18
8498.00,2.17
8497.00,2.15
8496.00,2.14
8495.00,2.13
8494.00,2.11
8493.00,2.10
8492.00,2.09
8491.00,2.07
8490.00,2.06
8489.00,2.05
8488.00,2.03
8487.00,2.02
8486.00,2.02
8485.00,2.01
8484.00,2.01
8483.00,2.00
8482.00,2.00
8481.00,2.00
8480.00,2.01
8479.00,2.01
8478.00,2.02
8477.00,2.03
8476.00,2.04
8475.00,2.06
8474.00,2.07
8473.00,2.08
8472.00,2.09
8471.00,2.10
8470.00,2.11
8469.00,2.12
8468.00,2.13
8467.00,2.14
8466.00,2.15
8465.00,2.16
8464.00,2.17
8463.00,2.18
8462.00,2.19
8461.00,2.20
8460.00,2.21
8459.00,2.23
8458.00,2.24
8457.00,2.25
8456.00,2.26
8455.00,2.27
8454.00,2.28
8453.00,2.29
8452.00,2.30
8451.00,2.30
8450.00,2.31
8449.00,2.31
8448.00,2.32
8447.00,2.32
8446.00,2.32
8445.00,2.32
8444.00,2.33
8443.00,2.33
8442.00,2.33
8441.00,2.34
8440.00,2.34
8439.00,2.35
8438.00,2.35
8437.00,2.35
8436.00,2.35
8435.00,2.35
8434.00,2.35
8433.00,2.35
8432.00,2.34
8431.00,2.33
8430.00,2.33
8429.00,2.32
8428.00,2.31
8427.00,2.29
8426.00,2.28
8425.00,2.27
8424.00,2.26
8423.00,2.25
8422.00,2.23
8421.00,2.22
8420.00,2.20
8419.00,2.19
8418.00,2.17
8417.00,2.16
8416.00,2.14
8415.00,2.12
8414.00,2.11
8413.00,2.09
8412.00,2.08
8411.00,2.07
8410.00,2.06
8409.00,2.05
8408.00,2.04
8407.00,2.04
8406.00,2.03
8405.00,2.03
8404.00,2.03
8403.00,2.03
8402.00,2.03
8401.00,2.03
8400.00,2.03
8399.00,2.03
8398.00,2.04
8397.00,2.04
8396.00,2.05
8395.00,2.06
8394.00,2.07
8393.00,2.08
8392.00,2.09
8391.00,2.10
8390.00,2.11
8389.00,2.12
8388.00,2.14
8387.00,2.15
8386.00,2.16
8385.00,2.17
8384.00,2.18
8383.00,2.18
8382.00,2.19
8381.00,2.19
8380.00,2.20
8379.00,2.20
8378.00,2.21
8377.00,2.21
8376.00,2.22
8375.00,2.22
8374.00,2.23
8373.00,2.24
8372.00,2.25
8371.00,2.26
8370.00,2.27
8369.00,2.28
8368.00,2.29
8367.00,2.29
8366.00,2.30
8365.00,2.31
8364.00,2.31
8363.00,2.32
8362.00,2.32
8361.00,2.32
8360.00,2.33
8359.00,2.33
8358.00,2.33
8357.00,2.34
8356.00,2.34
8355.00,2.35
8354.00,2.35
8353.00,2.36
8352.00,2.36
8351.00,2.36
8350.00,2.37
8349.00,2.37
8348.00,2.37
8347.00,2.37
8346.00,2.36
8345.00,2.36
8344.00,2.35
8343.00,2.34
8342.00,2.33
8341.00,2.33
8340.00,2.32
8339.00,2.31
8338.00,2.30
8337.00,2.29
8336.00,2.28
8335.00,2.28
8334.00,2.27
8333.00,2.27
8332.00,2.27
8331.00,2.26
8330.00,2.26
8329.00,2.26
8328.00,2.26
8327.00,2.25
8326.00,2.25
8325.00,2.24
8324.00,2.24
8323.00,2.23
8322.00,2.22
8321.00,2.22
8320.00,2.21
8319.00,2.21
8318.00,2.20
8317.00,2.20
8316.00,2.19
8315.00,2.19
8314.00,2.19
8313.00,2.18
8312.00,2.18
8311.00,2.18
8310.00,2.18
8309.00,2.17
8308.00,2.17
8307.00,2.16
8306.00,2.15
8305.00,2.13
8304.00,2.12
8303.00,2.11
8302.00,2.09
8301.00,2.07
8300.00,2.06
8299.00,2.05
8298.00,2.04
8297.00,2.03
8296.00,2.02
8295.00,2.01
8294.00,2.00
8293.00,2.00
8292.00,1.99
8291.00,1.99
8290.00,1.98
8289.00,1.98
8288.00,1.98
8287.00,1.98
8286.00,1.97
8285.00,1.97
8284.00,1.97
8283.00,1.97
8282.00,1.98
8281.00,1.98
8280.00,1.99
8279.00,1.99
8278.00,2.00
8277.00,2.02
8276.00,2.03
8275.00,2.04
8274.00,2.05
8273.00,2.06
8272.00,2.07
8271.00,2.07
8270.00,2.08
8269.00,2.09
8268.00,2.09
8267.00,2.09
8266.00,2.09
8265.00,2.09
8264.00,2.09
8263.00,2.09
8262.00,2.09
8261.00,2.08
8260.00,2.08
8259.00,2.08
8258.00,2.07
8257.00,2.07
8256.00,2.06
8255.00,2.05
8254.00,2.05
8253.00,2.04
8252.00,2.03
8251.00,2.03
8250.00,2.02
8249.00,2.02
8248.00,2.02
8247.00,2.02
8246.00,2.03
8245.00,2.04
8244.00,2.05
8243.00,2.07
8242.00,2.09
8241.00,2.11
8240.00,2.13
8239.00,2.15
8238.00,2.18
8237.00,2.20
8236.00,2.23
8235.00,2.25
8234.00,2.28
8233.00,2.30
8232.00,2.32
8231.00,2.34
8230.00,2.36
8229.00,2.38
8228.00,2.39
8227.00,2.41
8226.00,2.42
8225.00,2.43
8224.00,2.44
8223.00,2.45
8222.00,2.46
8221.00,2.46
8220.00,2.45
8219.00,2.45
8218.00,2.44
8217.00,2.42
8216.00,2.40
8215.00,2.38
8214.00,2.36
8213.00,2.34
8212.00,2.32
8211.00,2.30
8210.00,2.28
8209.00,2.26
8208.00,2.25
8207.00,2.23
8206.00,2.22
8205.00,2.21
8204.00,2.20
8203.00,2.19
8202.00,2.18
8201.00,2.18
8200.00,2.17
8199.00,2.17
8198.00,2.16
8197.00,2.16
8196.00,2.16
8195.00,2.16
8194.00,2.16
8193.00,2.16
8192.00,2.17
8191.00,2.17
8190.00,2.18
8189.00,2.19
8188.00,2.19
8187.00,2.20
8186.00,2.21
8185.00,2.21
8184.00,2.22
8183.00,2.22
8182.00,2.22
8181.00,2.22
8180.00,2.23
8179.00,2.23
8178.00,2.23
8177.00,2.23
8176.00,2.23
8175.00,2.23
8174.00,2.24
8173.00,2.24
8172.00,2.24
8171.00,2.25
8170.00,2.25
8169.00,2.25
8168.00,2.26
8167.00,2.26
8166.00,2.26
8165.00,2.26
8164.00,2.25
8163.00,2.25
8162.00,2.25
8161.00,2.25
8160.00,2.25
8159.00,2.24
8158.00,2.24
8157.00,2.24
8156.00,2.24
8155.00,2.24
8154.00,2.24
8153.00,2.23
8152.00,2.23
8151.00,2.23
8150.00,2.22
8149.00,2.22
8148.00,2.21
8147.00,2.21
8146.00,2.20
8145.00,2.19
8144.00,2.19
8143.00,2.18
8142.00,2.18
8141.00,2.18
8140.00,2.18
8139.00,2.18
8138.00,2.18
8137.00,2.18
8136.00,2.19
8135.00,2.20
8134.00,2.21
8133.00,2.22
8132.00,2.23
8131.00,2.24
8130.00,2.25
8129.00,2.26
8128.00,2.27
8127.00,2.27
8126.00,2.28
8125.00,2.29
8124.00,2.30
8123.00,2.31
8122.00,2.32
8121.00,2.33
8120.00,2.34
8119.00,2.35
8118.00,2.36
8117.00,2.37
8116.00,2.38
8115.00,2.39
8114.00,2.40
8113.00,2.41
8112.00,2.42
8111.00,2.43
8110.00,2.43
8109.00,2.44
8108.00,2.44
8107.00,2.44
8106.00,2.44
8105.00,2.44
8104.00,2.44
8103.00,2.44
8102.00,2.43
8101.00,2.43
8100.00,2.43
8099.00,2.43
8098.00,2.43
8097.00,2.43
8096.00,2.43
8095.00,2.43
8094.00,2.43
8093.00,2.43
8092.00,2.43
8091.00,2.43
8090.00,2.43
8089.00,2.42
8088.00,2.42
8087.00,2.42
8086.00,2.41
8085.00,2.41
8084.00,2.40
8083.00,2.40
8082.00,2.39
8081.00,2.39
8080.00,2.38
8079.00,2.38
8078.00,2.38
8077.00,2.37
8076.00,2.37
8075.00,2.37
8074.00,2.37
8073.00,2.36
8072.00,2.36
8071.00,2.36
8070.00,2.35
8069.00,2.35
8068.00,2.34
8067.00,2.33
8066.00,2.32
8065.00,2.31
8064.00,2.30
8063.00,2.29
8062.00,2.28
8061.00,2.28
8060.00,2.27
8059.00,2.27
8058.00,2.26
8057.00,2.26
8056.00,2.26
8055.00,2.26
8054.00,2.26
8053.00,2.26
8052.00,2.26
8051.00,2.26
8050.00,2.27
8049.00,2.27
8048.00,2.27
8047.00,2.28
8046.00,2.28
8045.00,2.28
8044.00,2.29
8043.00,2.30
8042.00,2.30
8041.00,2.31
8040.00,2.32
8039.00,2.33
8038.00,2.35
8037.00,2.36
8036.00,2.37
8035.00,2.39
8034.00,2.40
8033.00,2.41
8032.00,2.42
8031.00,2.44
8030.00,2.45
8029.00,2.46
8028.00,2.47
8027.00,2.47
8026.00,2.48
8025.00,2.49
8024.00,2.49
8023.00,2.50
8022.00,2.51
8021.00,2.51
8020.00,2.52
8019.00,2.53
8018.00,2.53
8017.00,2.54
8016.00,2.54
8015.00,2.55
8014.00,2.55
8013.00,2.55
8012.00,2.55
8011.00,2.55
8010.00,2.54
8009.00,2.54
8008.00,2.53
8007.00,2.52
8006.00,2.52
8005.00,2.51
8004.00,2.50
8003.00,2.49
8002.00,2.49
8001.00,2.48
8000.00,2.47
7999.00,2.47
7998.00,2.46
7997.00,2.46
7996.00,2.45
7995.00,2.44
7994.00,2.44
7993.00,2.43
7992.00,2.42
7991.00,2.41
7990.00,2.41
7989.00,2.40
7988.00,2.40
7987.00,2.39
7986.00,2.39
7985.00,2.39
7984.00,2.39
7983.00,2.39
7982.00,2.40
7981.00,2.40
7980.00,2.40
7979.00,2.40
7978.00,2.40
7977.00,2.40
7976.00,2.39
7975.00,2.39
7974.00,2.38
7973.00,2.37
7972.00,2.37
7971.00,2.36
7970.00,2.35
7969.00,2.34
7968.00,2.34
7967.00,2.33
7966.00,2.32
7965.00,2.31
7964.00,2.31
7963.00,2.30
7962.00,2.29
7961.00,2.29
7960.00,2.28
7959.00,2.27
7958.00,2.27
7957.00,2.26
7956.00,2.25
7955.00,2.24
7954.00,2.24
7953.00,2.23
7952.00,2.23
7951.00,2.23
7950.00,2.23
7949.00,2.23
7948.00,2.24
7947.00,2.25
7946.00,2.25
7945.00,2.26
7944.00,2.27
7943.00,2.28
7942.00,2.29
7941.00,2.30
7940.00,2.31
7939.00,2.32
7938.00,2.33
7937.00,2.34
7936.00,2.35
7935.00,2.35
7934.00,2.36
7933.00,2.37
7932.00,2.38
7931.00,2.38
7930.00,2.39
7929.00,2.40
7928.00,2.40
7927.00,2.41
7926.00,2.42
7925.00,2.42
7924.00,2.42
7923.00,2.42
7922.00,2.42
7921.00,2.42
7920.00,2.42
7919.00,2.42
7918.00,2.42
7917.00,2.42
7916.00,2.42
7915.00,2.41
7914.00,2.41
7913.00,2.41
7912.00,2.41
7911.00,2.40
7910.00,2.40
7909.00,2.40
7908.00,2.39
7907.00,2.39
7906.00,2.39
7905.00,2.39
7904.00,2.39
7903.00,2.39
7902.00,2.39
7901.00,2.39
7900.00,2.40
7899.00,2.41
7898.00,2.42
7897.00,2.43
7896.00,2.44
7895.00,2.45
7894.00,2.46
7893.00,2.47
7892.00,2.48
7891.00,2.49
7890.00,2.49
7889.00,2.50
7888.00,2.51
7887.00,2.52
7886.00,2.53
7885.00,2.54
7884.00,2.55
7883.00,2.56
7882.00,2.58
7881.00,2.59
7880.00,2.60
7879.00,2.61
7878.00,2.62
7877.00,2.62
7876.00,2.63
7875.00,2.63
7874.00,2.63
7873.00,2.63
7872.00,2.63
7871.00,2.63
7870.00,2.62
7869.00,2.62
7868.00,2.61
7867.00,2.61
7866.00,2.61
7865.00,2.60
7864.00,2.60
7863.00,2.60
7862.00,2.60
7861.00,2.60
7860.00,2.60
7859.00,2.60
7858.00,2.59
7857.00,2.59
7856.00,2.59
7855.00,2.59
7854.00,2.59
7853.00,2.59
7852.00,2.59
7851.00,2.58
7850.00,2.59
7849.00,2.59
7848.00,2.59
7847.00,2.59
7846.00,2.59
7845.00,2.59
7844.00,2.59
7843.00,2.60
7842.00,2.60
7841.00,2.60
7840.00,2.60
7839.00,2.60
7838.00,2.59
7837.00,2.59
7836.00,2.58
7835.00,2.57
7834.00,2.56
7833.00,2.55
7832.00,2.54
7831.00,2.53
7830.00,2.52
7829.00,2.51
7828.00,2.50
7827.00,2.49
7826.00,2.48
7825.00,2.46
7824.00,2.45
7823.00,2.44
7822.00,2.43
7821.00,2.42
7820.00,2.41
7819.00,2.40
7818.00,2.39
7817.00,2.39
7816.00,2.38
7815.00,2.37
7814.00,2.36
7813.00,2.36
7812.00,2.35
7811.00,2.35
7810.00,2.35
7809.00,2.34
7808.00,2.34
7807.00,2.34
7806.00,2.34
7805.00,2.34
7804.00,2.34
7803.00,2.34
7802.00,2.34
7801.00,2.34
7800.00,2.34
7799.00,2.34
7798.00,2.34
7797.00,2.34
7796.00,2.33
7795.00,2.33
7794.00,2.33
7793.00,2.33
7792.00,2.32
7791.00,2.32
7790.00,2.32
7789.00,2.32
7788.00,2.32
7787.00,2.32
7786.00,2.33
7785.00,2.33
7784.00,2.33
7783.00,2.33
7782.00,2.34
7781.00,2.34
7780.00,2.34
7779.00,2.34
7778.00,2.35
7777.00,2.35
7776.00,2.35
7775.00,2.35
7774.00,2.36
7773.00,2.36
7772.00,2.36
7771.00,2.37
7770.00,2.37
7769.00,2.37
7768.00,2.38
7767.00,2.38
7766.00,2.38
7765.00,2.38
7764.00,2.38
7763.00,2.38
7762.00,2.38
7761.00,2.38
7760.00,2.37
7759.00,2.37
7758.00,2.36
7757.00,2.35
7756.00,2.35
7755.00,2.34
7754.00,2.34
7753.00,2.33
7752.00,2.33
7751.00,2.32
7750.00,2.32
7749.00,2.32
7748.00,2.32
7747.00,2.32
7746.00,2.32
7745.00,2.32
7744.00,2.32
7743.00,2.32
7742.00,2.33
7741.00,2.33
7740.00,2.33
7739.00,2.33
7738.00,2.33
7737.00,2.34
7736.00,2.34
7735.00,2.35
7734.00,2.36
7733.00,2.36
7732.00,2.37
7731.00,2.38
7730.00,2.39
7729.00,2.39
7728.00,2.40
7727.00,2.41
7726.00,2.42
7725.00,2.43
7724.00,2.43
7723.00,2.44
7722.00,2.44
7721.00,2.45
7720.00,2.45
7719.00,2.46
7718.00,2.46
7717.00,2.47
7716.00,2.47
7715.00,2.48
7714.00,2.48
7713.00,2.49
7712.00,2.49
7711.00,2.50
7710.00,2.50
7709.00,2.51
7708.00,2.51
7707.00,2.51
7706.00,2.51
7705.00,2.52
7704.00,2.52
7703.00,2.52
7702.00,2.52
7701.00,2.52
7700.00,2.52
7699.00,2.51
7698.00,2.51
7697.00,2.51
7696.00,2.51
7695.00,2.51
7694.00,2.50
7693.00,2.50
7692.00,2.50
7691.00,2.50
7690.00,2.50
7689.00,2.50
7688.00,2.49
7687.00,2.49
7686.00,2.49
7685.00,2.48
7684.00,2.48
7683.00,2.47
7682.00,2.47
7681.00,2.46
7680.00,2.46
7679.00,2.45
7678.00,2.45
7677.00,2.45
7676.00,2.45
7675.00,2.45
7674.00,2.45
7673.00,2.45
7672.00,2.45
7671.00,2.45
7670.00,2.45
7669.00,2.45
7668.00,2.45
7667.00,2.45
7666.00,2.45
7665.00,2.45
7664.00,2.45
7663.00,2.45
7662.00,2.46
7661.00,2.46
7660.00,2.46
7659.00,2.46
7658.00,2.47
7657.00,2.47
7656.00,2.48
7655.00,2.48
7654.00,2.48
7653.00,2.49
7652.00,2.49
7651.00,2.50
7650.00,2.50
7649.00,2.50
7648.00,2.50
7647.00,2.49
7646.00,2.49
7645.00,2.49
7644.00,2.48
7643.00,2.48
7642.00,2.48
7641.00,2.47
7640.00,2.47
7639.00,2.47
7638.00,2.47
7637.00,2.46
7636.00,2.46
7635.00,2.45
7634.00,2.45
7633.00,2.44
7632.00,2.44
7631.00,2.43
7630.00,2.42
7629.00,2.42
7628.00,2.41
7627.00,2.40
7626.00,2.40
7625.00,2.39
7624.00,2.39
7623.00,2.39
7622.00,2.39
7621.00,2.39
7620.00,2.39
7619.00,2.39
7618.00,2.40
7617.00,2.40
7616.00,2.40
7615.00,2.41
7614.00,2.41
7613.00,2.42
7612.00,2.42
7611.00,2.42
7610.00,2.43
7609.00,2.44
7608.00,2.44
7607.00,2.45
7606.00,2.46
7605.00,2.47
7604.00,2.48
7603.00,2.49
7602.00,2.50
7601.00,2.51
7600.00,2.52
7599.00,2.53
7598.00,2.53
7597.00,2.54
7596.00,2.55
7595.00,2.55
7594.00,2.56
7593.00,2.56
7592.00,2.56
7591.00,2.56
7590.00,2.57
7589.00,2.57
7588.00,2.57
7587.00,2.56
7586.00,2.56
7585.00,2.56
7584.00,2.56
7583.00,2.55
7582.00,2.54
7581.00,2.54
7580.00,2.53
7579.00,2.52
7578.00,2.52
7577.00,2.51
7576.00,2.50
7575.00,2.50
7574.00,2.49
7573.00,2.48
7572.00,2.47
7571.00,2.47
7570.00,2.46
7569.00,2.45
7568.00,2.44
7567.00,2.43
7566.00,2.42
7565.00,2.41
7564.00,2.40
7563.00,2.39
7562.00,2.38
7561.00,2.37
7560.00,2.37
7559.00,2.36
7558.00,2.36
7557.00,2.35
7556.00,2.34
7555.00,2.34
7554.00,2.33
7553.00,2.32
7552.00,2.31
7551.00,2.31
7550.00,2.30
7549.00,2.29
7548.00,2.28
7547.00,2.27
7546.00,2.26
7545.00,2.25
7544.00,2.25
7543.00,2.24
7542.00,2.24
7541.00,2.23
7540.00,2.23
7539.00,2.23
7538.00,2.23
7537.00,2.23
7536.00,2.22
7535.00,2.22
7534.00,2.22
7533.00,2.22
7532.00,2.23
7531.00,2.23
7530.00,2.24
7529.00,2.24
7528.00,2.25
7527.00,2.26
7526.00,2.27
7525.00,2.29
7524.00,2.30
7523.00,2.31
7522.00,2.33
7521.00,2.34
7520.00,2.35
7519.00,2.37
7518.00,2.38
7517.00,2.40
7516.00,2.42
7515.00,2.44
7514.00,2.45
7513.00,2.47
7512.00,2.49
7511.00,2.51
7510.00,2.53
7509.00,2.55
7508.00,2.56
7507.00,2.58
7506.00,2.59
7505.00,2.61
7504.00,2.62
7503.00,2.63
7502.00,2.64
7501.00,2.65
7500.00,2.66
7499.00,2.67
7498.00,2.68
7497.00,2.69
7496.00,2.70
7495.00,2.71
7494.00,2.71
7493.00,2.72
7492.00,2.73
7491.00,2.73
7490.00,2.73
7489.00,2.73
7488.00,2.72
7487.00,2.72
7486.00,2.72
7485.00,2.71
7484.00,2.71
7483.00,2.70
7482.00,2.70
7481.00,2.69
7480.00,2.69
7479.00,2.69
7478.00,2.68
7477.00,2.68
7476.00,2.67
7475.00,2.67
7474.00,2.66
7473.00,2.66
7472.00,2.65
7471.00,2.64
7470.00,2.63
7469.00,2.63
7468.00,2.62
7467.00,2.61
7466.00,2.60
7465.00,2.60
7464.00,2.59
7463.00,2.59
7462.00,2.58
7461.00,2.58
7460.00,2.58
7459.00,2.58
7458.00,2.58
7457.00,2.57
7456.00,2.57
7455.00,2.57
7454.00,2.57
7453.00,2.57
7452.00,2.57
7451.00,2.57
7450.00,2.56
7449.00,2.56
7448.00,2.57
7447.00,2.57
7446.00,2.57
7445.00,2.57
7444.00,2.57
7443.00,2.57
7442.00,2.58
7441.00,2.58
7440.00,2.58
7439.00,2.58
7438.00,2.58
7437.00,2.58
7436.00,2.57
7435.00,2.57
7434.00,2.57
7433.00,2.57
7432.00,2.57
7431.00,2.56
7430.00,2.56
7429.00,2.56
7428.00,2.56
7427.00,2.55
7426.00,2.55
7425.00,2.55
7424.00,2.54
7423.00,2.54
7422.00,2.54
7421.00,2.53
7420.00,2.52
7419.00,2.52
7418.00,2.51
7417.00,2.50
7416.00,2.49
7415.00,2.48
7414.00,2.48
7413.00,2.47
7412.00,2.47
7411.00,2.47
7410.00,2.47
7409.00,2.47
7408.00,2.46
7407.00,2.46
7406.00,2.46
7405.00,2.46
7404.00,2.46
7403.00,2.46
7402.00,2.46
7401.00,2.46
7400.00,2.46
7399.00,2.45
7398.00,2.45
7397.00,2.45
7396.00,2.45
7395.00,2.44
7394.00,2.44
7393.00,2.44
7392.00,2.44
7391.00,2.43
7390.00,2.43
7389.00,2.43
7388.00,2.43
7387.00,2.42
7386.00,2.42
7385.00,2.42
7384.00,2.41
7383.00,2.41
7382.00,2.40
7381.00,2.39
7380.00,2.39
7379.00,2.39
7378.00,2.38
7377.00,2.38
7376.00,2.38
7375.00,2.38
7374.00,2.38
7373.00,2.39
7372.00,2.39
7371.00,2.40
7370.00,2.40
7369.00,2.41
7368.00,2.42
7367.00,2.43
7366.00,2.44
7365.00,2.45
7364.00,2.46
7363.00,2.47
7362.00,2.47
7361.00,2.48
7360.00,2.49
7359.00,2.49
7358.00,2.50
7357.00,2.50
7356.00,2.50
7355.00,2.51
7354.00,2.51
7353.00,2.51
7352.00,2.51
7351.00,2.50
7350.00,2.50
7349.00,2.49
7348.00,2.49
7347.00,2.48
7346.00,2.47
7345.00,2.46
7344.00,2.45
7343.00,2.44
7342.00,2.43
7341.00,2.41
7340.00,2.40
7339.00,2.39
7338.00,2.37
7337.00,2.36
7336.00,2.35
7335.00,2.35
7334.00,2.34
7333.00,2.34
7332.00,2.33
7331.00,2.33
7330.00,2.33
7329.00,2.33
7328.00,2.33
7327.00,2.33
7326.00,2.33
7325.00,2.33
7324.00,2.34
7323.00,2.34
7322.00,2.35
7321.00,2.35
7320.00,2.36
7319.00,2.37
7318.00,2.38
7317.00,2.39
7316.00,2.40
7315.00,2.41
7314.00,2.42
7313.00,2.44
7312.00,2.45
7311.00,2.47
7310.00,2.48
7309.00,2.49
7308.00,2.51
7307.00,2.52
7306.00,2.54
7305.00,2.55
7304.00,2.56
7303.00,2.57
7302.00,2.59
7301.00,2.60
7300.00,2.61
7299.00,2.62
7298.00,2.63
7297.00,2.64
7296.00,2.65
7295.00,2.65
7294.00,2.66
7293.00,2.66
7292.00,2.67
7291.00,2.67
7290.00,2.67
7289.00,2.67
7288.00,2.67
7287.00,2.66
7286.00,2.66
7285.00,2.65
7284.00,2.64
7283.00,2.63
7282.00,2.62
7281.00,2.61
7280.00,2.59
7279.00,2.58
7278.00,2.56
7277.00,2.55
7276.00,2.54
7275.00,2.52
7274.00,2.51
7273.00,2.49
7272.00,2.48
7271.00,2.47
7270.00,2.45
7269.00,2.44
7268.00,2.43
7267.00,2.42
7266.00,2.42
7265.00,2.41
7264.00,2.40
7263.00,2.40
7262.00,2.39
7261.00,2.39
7260.00,2.39
7259.00,2.39
7258.00,2.39
7257.00,2.39
7256.00,2.39
7255.00,2.39
7254.00,2.40
7253.00,2.40
7252.00,2.41
7251.00,2.41
7250.00,2.41
7249.00,2.42
7248.00,2.42
7247.00,2.42
7246.00,2.43
7245.00,2.43
7244.00,2.43
7243.00,2.43
7242.00,2.43
7241.00,2.43
7240.00,2.43
7239.00,2.43
7238.00,2.43
7237.00,2.43
7236.00,2.42
7235.00,2.42
7234.00,2.42
7233.00,2.41
7232.00,2.40
7231.00,2.40
7230.00,2.39
7229.00,2.38
7228.00,2.37
7227.00,2.36
7226.00,2.35
7225.00,2.35
7224.00,2.34
7223.00,2.33
7222.00,2.32
7221.00,2.31
7220.00,2.30
7219.00,2.29
7218.00,2.28
7217.00,2.28
7216.00,2.27
7215.00,2.26
7214.00,2.26
7213.00,2.26
7212.00,2.25
7211.00,2.25
7210.00,2.25
7209.00,2.25
7208.00,2.25
7207.00,2.25
7206.00,2.25
7205.00,2.25
7204.00,2.25
7203.00,2.25
7202.00,2.26
7201.00,2.26
7200.00,2.26
7199.00,2.26
7198.00,2.27
7197.00,2.27
7196.00,2.27
7195.00,2.27
7194.00,2.27
7193.00,2.28
7192.00,2.28
7191.00,2.28
7190.00,2.28
7189.00,2.28
7188.00,2.29
7187.00,2.29
7186.00,2.29
7185.00,2.29
7184.00,2.29
7183.00,2.28
7182.00,2.28
7181.00,2.28
7180.00,2.28
7179.00,2.28
7178.00,2.28
7177.00,2.28
7176.00,2.28
7175.00,2.28
7174.00,2.28
7173.00,2.28
7172.00,2.28
7171.00,2.28
7170.00,2.28
7169.00,2.29
7168.00,2.29
7167.00,2.29
7166.00,2.29
7165.00,2.30
7164.00,2.30
7163.00,2.30
7162.00,2.30
7161.00,2.30
7160.00,2.30
7159.00,2.31
7158.00,2.31
7157.00,2.31
7156.00,2.31
7155.00,2.31
7154.00,2.32
7153.00,2.32
7152.00,2.32
7151.00,2.32
7150.00,2.33
7149.00,2.33
7148.00,2.32
7147.00,2.32
7146.00,2.32
7145.00,2.31
7144.00,2.31
7143.00,2.30
7142.00,2.30
7141.00,2.29
7140.00,2.28
7139.00,2.28
7138.00,2.27
7137.00,2.26
7136.00,2.25
7135.00,2.24
7134.00,2.23
7133.00,2.23
7132.00,2.22
7131.00,2.21
7130.00,2.20
7129.00,2.19
7128.00,2.18
7127.00,2.17
7126.00,2.16
7125.00,2.16
7124.00,2.15
7123.00,2.14
7122.00,2.13
7121.00,2.13
7120.00,2.12
7119.00,2.12
7118.00,2.12
7117.00,2.11
7116.00,2.11
7115.00,2.11
7114.00,2.11
7113.00,2.11
7112.00,2.11
7111.00,2.11
7110.00,2.11
7109.00,2.11
7108.00,2.12
7107.00,2.12
7106.00,2.12
7105.00,2.12
7104.00,2.13
7103.00,2.13
7102.00,2.13
7101.00,2.12
7100.00,2.12
7099.00,2.12
7098.00,2.12
7097.00,2.12
7096.00,2.12
7095.00,2.11
7094.00,2.11
7093.00,2.10
7092.00,2.10
7091.00,2.09
7090.00,2.08
7089.00,2.07
7088.00,2.06
7087.00,2.05
7086.00,2.05
7085.00,2.04
7084.00,2.03
7083.00,2.02
7082.00,2.00
7081.00,1.99
7080.00,1.98
7079.00,1.97
7078.00,1.96
7077.00,1.95
7076.00,1.94
7075.00,1.94
7074.00,1.93
7073.00,1.92
7072.00,1.91
7071.00,1.91
7070.00,1.90
7069.00,1.90
7068.00,1.89
7067.00,1.89
7066.00,1.89
7065.00,1.89
7064.00,1.89
7063.00,1.90
7062.00,1.90
7061.00,1.91
7060.00,1.91
7059.00,1.92
7058.00,1.93
7057.00,1.93
7056.00,1.94
7055.00,1.94
7054.00,1.95
7053.00,1.95
7052.00,1.96
7051.00,1.96
7050.00,1.96
7049.00,1.97
7048.00,1.97
7047.00,1.97
7046.00,1.97
7045.00,1.97
7044.00,1.97
7043.00,1.96
7042.00,1.96
7041.00,1.96
7040.00,1.95
7039.00,1.94
7038.00,1.94
7037.00,1.93
7036.00,1.92
7035.00,1.91
7034.00,1.90
7033.00,1.89
7032.00,1.88
7031.00,1.87
7030.00,1.87
7029.00,1.86
7028.00,1.85
7027.00,1.85
7026.00,1.84
7025.00,1.84
7024.00,1.83
7023.00,1.83
7022.00,1.82
7021.00,1.82
7020.00,1.82
7019.00,1.82
7018.00,1.82
7017.00,1.82
7016.00,1.82
7015.00,1.82
7014.00,1.82
7013.00,1.82
7012.00,1.82
7011.00,1.82
7010.00,1.82
7009.00,1.82
7008.00,1.82
7007.00,1.82
7006.00,1.82
7005.00,1.82
7004.00,1.82
7003.00,1.82
7002.00,1.82
7001.00,1.82
7000.00,1.82
6999.00,1.82
6998.00,1.82
6997.00,1.82
6996.00,1.82
6995.00,1.82
6994.00,1.82
6993.00,1.82
6992.00,1.82
6991.00,1.82
6990.00,1.82
6989.00,1.82
6988.00,1.82
6987.00,1.82
6986.00,1.82
6985.00,1.81
6984.00,1.81
6983.00,1.81
6982.00,1.81
6981.00,1.81
6980.00,1.81
6979.00,1.81
6978.00,1.80
6977.00,1.80
6976.00,1.80
6975.00,1.80
6974.00,1.80
6973.00,1.80
6972.00,1.79
6971.00,1.79
6970.00,1.79
6969.00,1.79
6968.00,1.79
6967.00,1.79
6966.00,1.79
6965.00,1.79
6964.00,1.78
6963.00,1.78
6962.00,1.78
6961.00,1.78
6960.00,1.78
6959.00,1.78
6958.00,1.78
6957.00,1.78
6956.00,1.78
6955.00,1.78
6954.00,1.78
6953.00,1.79
6952.00,1.79
6951.00,1.80
6950.00,1.80
6949.00,1.81
6948.00,1.82
6947.00,1.82
6946.00,1.83
6945.00,1.84
6944.00,1.85
6943.00,1.86
6942.00,1.86
6941.00,1.87
6940.00,1.88
6939.00,1.88
6938.00,1.89
6937.00,1.90
6936.00,1.90
6935.00,1.91
6934.00,1.92
6933.00,1.92
6932.00,1.93
6931.00,1.94
6930.00,1.95
6929.00,1.96
6928.00,1.96
6927.00,1.97
6926.00,1.98
6925.00,1.98
6924.00,1.98
6923.00,1.99
6922.00,1.99
6921.00,1.99
6920.00,1.99
6919.00,1.98
6918.00,1.98
6917.00,1.97
6916.00,1.97
6915.00,1.96
6914.00,1.96
6913.00,1.95
6912.00,1.94
6911.00,1.94
6910.00,1.93
6909.00,1.92
6908.00,1.91
6907.00,1.91
6906.00,1.90
6905.00,1.89
6904.00,1.88
6903.00,1.87
6902.00,1.86
6901.00,1.85
6900.00,1.84
6899.00,1.83
6898.00,1.81
6897.00,1.80
6896.00,1.79
6895.00,1.78
6894.00,1.77
6893.00,1.76
6892.00,1.75
6891.00,1.75
6890.00,1.74
6889.00,1.74
6888.00,1.74
6887.00,1.73
6886.00,1.73
6885.00,1.73
6884.00,1.73
6883.00,1.73
6882.00,1.73
6881.00,1.72
6880.00,1.72
6879.00,1.72
6878.00,1.72
6877.00,1.72
6876.00,1.72
6875.00,1.72
6874.00,1.71
6873.00,1.71
6872.00,1.71
6871.00,1.72
6870.00,1.72
6869.00,1.72
6868.00,1.72
6867.00,1.73
6866.00,1.73
6865.00,1.73
6864.00,1.73
6863.00,1.73
6862.00,1.73
6861.00,1.73
6860.00,1.73
6859.00,1.73
6858.00,1.73
6857.00,1.73
6856.00,1.73
6855.00,1.73
6854.00,1.73
6853.00,1.73
6852.00,1.73
6851.00,1.73
6850.00,1.73
6849.00,1.73
6848.00,1.73
6847.00,1.73
6846.00,1.73
6845.00,1.72
6844.00,1.72
6843.00,1.72
6842.00,1.72
6841.00,1.71
6840.00,1.71
6839.00,1.70
6838.00,1.69
6837.00,1.69
6836.00,1.68
6835.00,1.67
6834.00,1.66
6833.00,1.65
6832.00,1.64
6831.00,1.64
6830.00,1.63
6829.00,1.62
6828.00,1.61
6827.00,1.61
6826.00,1.61
6825.00,1.60
6824.00,1.60
6823.00,1.60
6822.00,1.60
6821.00,1.60
6820.00,1.61
6819.00,1.61
6818.00,1.61
6817.00,1.62
6816.00,1.62
6815.00,1.63
6814.00,1.64
6813.00,1.65
6812.00,1.66
6811.00,1.67
6810.00,1.68
6809.00,1.70
6808.00,1.71
6807.00,1.72
6806.00,1.74
6805.00,1.75
6804.00,1.76
6803.00,1.78
6802.00,1.79
6801.00,1.80
6800.00,1.81
6799.00,1.82
6798.00,1.83
6797.00,1.84
6796.00,1.85
6795.00,1.85
6794.00,1.85
6793.00,1.86
6792.00,1.86
6791.00,1.86
6790.00,1.86
6789.00,1.86
6788.00,1.86
6787.00,1.86
6786.00,1.86
6785.00,1.86
6784.00,1.86
6783.00,1.86
6782.00,1.86
6781.00,1.85
6780.00,1.85
6779.00,1.85
6778.00,1.85
6777.00,1.85
6776.00,1.85
6775.00,1.85
6774.00,1.85
6773.00,1.85
6772.00,1.85
6771.00,1.85
6770.00,1.85
6769.00,1.85
6768.00,1.86
6767.00,1.86
6766.00,1.86
6765.00,1.87
6764.00,1.87
6763.00,1.88
6762.00,1.88
6761.00,1.89
6760.00,1.89
6759.00,1.89
6758.00,1.90
6757.00,1.90
6756.00,1.90
6755.00,1.90
6754.00,1.91
6753.00,1.91
6752.00,1.91
6751.00,1.92
6750.00,1.92
6749.00,1.93
6748.00,1.94
6747.00,1.94
6746.00,1.95
6745.00,1.95
6744.00,1.96
6743.00,1.96
6742.00,1.97
6741.00,1.97
6740.00,1.97
6739.00,1.98
6738.00,1.98
6737.00,1.98
6736.00,1.99
6735.00,1.99
6734.00,2.00
6733.00,2.00
6732.00,2.01
6731.00,2.02
6730.00,2.02
6729.00,2.03
6728.00,2.04
6727.00,2.05
6726.00,2.05
6725.00,2.06
6724.00,2.06
6723.00,2.06
6722.00,2.07
6721.00,2.07
6720.00,2.07
6719.00,2.07
6718.00,2.07
6717.00,2.07
6716.00,2.07
6715.00,2.07
6714.00,2.08
6713.00,2.08
6712.00,2.08
6711.00,2.08
6710.00,2.09
6709.00,2.09
6708.00,2.09
6707.00,2.09
6706.00,2.09
6705.00,2.09
6704.00,2.09
6703.00,2.09
6702.00,2.09
6701.00,2.09
6700.00,2.09
6699.00,2.09
6698.00,2.09
6697.00,2.09
6696.00,2.10
6695.00,2.10
6694.00,2.10
6693.00,2.11
6692.00,2.12
6691.00,2.12
6690.00,2.13
6689.00,2.13
6688.00,2.14
6687.00,2.14
6686.00,2.14
6685.00,2.15
6684.00,2.15
6683.00,2.15
6682.00,2.15
6681.00,2.16
6680.00,2.16
6679.00,2.17
6678.00,2.17
6677.00,2.18
6676.00,2.18
6675.00,2.18
6674.00,2.19
6673.00,2.19
6672.00,2.19
6671.00,2.19
6670.00,2.20
6669.00,2.20
6668.00,2.20
6667.00,2.20
6666.00,2.20
6665.00,2.19
6664.00,2.19
6663.00,2.19
6662.00,2.19
6661.00,2.19
6660.00,2.18
6659.00,2.18
6658.00,2.18
6657.00,2.18
6656.00,2.18
6655.00,2.18
6654.00,2.18
6653.00,2.18
6652.00,2.18
6651.00,2.18
6650.00,2.17
6649.00,2.17
6648.00,2.17
6647.00,2.17
6646.00,2.17
6645.00,2.17
6644.00,2.18
6643.00,2.18
6642.00,2.18
6641.00,2.18
6640.00,2.18
6639.00,2.19
6638.00,2.19
6637.00,2.20
6636.00,2.20
6635.00,2.20
6634.00,2.21
6633.00,2.21
6632.00,2.21
6631.00,2.21
6630.00,2.21
6629.00,2.21
6628.00,2.21
6627.00,2.21
6626.00,2.21
6625.00,2.21
6624.00,2.21
6623.00,2.21
6622.00,2.21
6621.00,2.21
6620.00,2.21
6619.00,2.20
6618.00,2.20
6617.00,2.20
6616.00,2.20
6615.00,2.20
6614.00,2.19
6613.00,2.19
6612.00,2.19
6611.00,2.19
6610.00,2.18
6609.00,2.18
6608.00,2.18
6607.00,2.18
6606.00,2.18
6605.00,2.18
6604.00,2.18
6603.00,2.19
6602.00,2.19
6601.00,2.19
6600.00,2.20
6599.00,2.20
6598.00,2.21
6597.00,2.21
6596.00,2.22
6595.00,2.22
6594.00,2.22
6593.00,2.23
6592.00,2.23
6591.00,2.23
6590.00,2.24
6589.00,2.24
6588.00,2.24
6587.00,2.25
6586.00,2.25
6585.00,2.25
6584.00,2.25
6583.00,2.26
6582.00,2.26
6581.00,2.26
6580.00,2.27
6579.00,2.27
6578.00,2.27
6577.00,2.27
6576.00,2.27
6575.00,2.27
6574.00,2.26
6573.00,2.26
6572.00,2.26
6571.00,2.26
6570.00,2.26
6569.00,2.26
6568.00,2.27
6567.00,2.27
6566.00,2.27
6565.00,2.27
6564.00,2.27
6563.00,2.27
6562.00,2.28
6561.00,2.28
6560.00,2.28
6559.00,2.28
6558.00,2.29
6557.00,2.29
6556.00,2.29
6555.00,2.29
6554.00,2.30
6553.00,2.30
6552.00,2.30
6551.00,2.30
6550.00,2.30
6549.00,2.31
6548.00,2.31
6547.00,2.31
6546.00,2.31
6545.00,2.32
6544.00,2.32
6543.00,2.32
6542.00,2.33
6541.00,2.33
6540.00,2.34
6539.00,2.34
6538.00,2.35
6537.00,2.35
6536.00,2.36
6535.00,2.36
6534.00,2.37
6533.00,2.37
6532.00,2.38
6531.00,2.38
6530.00,2.39
6529.00,2.40
6528.00,2.40
6527.00,2.41
6526.00,2.42
6525.00,2.43
6524.00,2.43
6523.00,2.44
6522.00,2.45
6521.00,2.46
6520.00,2.47
6519.00,2.47
6518.00,2.48
6517.00,2.49
6516.00,2.49
6515.00,2.49
6514.00,2.50
6513.00,2.50
6512.00,2.50
6511.00,2.50
6510.00,2.50
6509.00,2.50
6508.00,2.50
6507.00,2.50
6506.00,2.50
6505.00,2.50
6504.00,2.50
6503.00,2.50
6502.00,2.50
6501.00,2.49
6500.00,2.49
6499.00,2.49
6498.00,2.48
6497.00,2.48
6496.00,2.47
6495.00,2.47
6494.00,2.47
6493.00,2.46
6492.00,2.46
6491.00,2.45
6490.00,2.45
6489.00,2.44
6488.00,2.44
6487.00,2.44
6486.00,2.43
6485.00,2.43
6484.00,2.43
6483.00,2.43
6482.00,2.42
6481.00,2.42
6480.00,2.42
6479.00,2.41
6478.00,2.41
6477.00,2.41
6476.00,2.40
6475.00,2.40
6474.00,2.40
6473.00,2.39
6472.00,2.39
6471.00,2.39
6470.00,2.39
6469.00,2.39
6468.00,2.39
6467.00,2.39
6466.00,2.39
6465.00,2.39
6464.00,2.39
6463.00,2.39
6462.00,2.39
6461.00,2.39
6460.00,2.39
6459.00,2.39
6458.00,2.39
6457.00,2.39
6456.00,2.40
6455.00,2.40
6454.00,2.40
6453.00,2.41
6452.00,2.41
6451.00,2.42
6450.00,2.42
6449.00,2.43
6448.00,2.44
6447.00,2.44
6446.00,2.45
6445.00,2.46
6444.00,2.46
6443.00,2.47
6442.00,2.47
6441.00,2.48
6440.00,2.48
6439.00,2.48
6438.00,2.49
6437.00,2.49
6436.00,2.50
6435.00,2.50
6434.00,2.50
6433.00,2.51
6432.00,2.51
6431.00,2.51
6430.00,2.51
6429.00,2.52
6428.00,2.52
6427.00,2.52
6426.00,2.52
6425.00,2.52
6424.00,2.52
6423.00,2.51
6422.00,2.51
6421.00,2.51
6420.00,2.51
6419.00,2.51
6418.00,2.50
6417.00,2.50
6416.00,2.50
6415.00,2.50
6414.00,2.50
6413.00,2.50
6412.00,2.50
6411.00,2.50
6410.00,2.50
6409.00,2.50
6408.00,2.50
6407.00,2.50
6406.00,2.50
6405.00,2.51
6404.00,2.51
6403.00,2.51
6402.00,2.51
6401.00,2.51
6400.00,2.51
6399.00,2.52
6398.00,2.52
6397.00,2.52
6396.00,2.52
6395.00,2.53
6394.00,2.53
6393.00,2.53
6392.00,2.53
6391.00,2.54
6390.00,2.54
6389.00,2.54
6388.00,2.55
6387.00,2.55
6386.00,2.55
6385.00,2.55
6384.00,2.55
6383.00,2.55
6382.00,2.55
6381.00,2.55
6380.00,2.55
6379.00,2.55
6378.00,2.55
6377.00,2.56
6376.00,2.56
6375.00,2.56
6374.00,2.56
6373.00,2.56
6372.00,2.56
6371.00,2.57
6370.00,2.57
6369.00,2.57
6368.00,2.57
6367.00,2.57
6366.00,2.57
6365.00,2.57
6364.00,2.57
6363.00,2.57
6362.00,2.57
6361.00,2.57
6360.00,2.57
6359.00,2.57
6358.00,2.57
6357.00,2.57
6356.00,2.57
6355.00,2.57
6354.00,2.57
6353.00,2.57
6352.00,2.57
6351.00,2.57
6350.00,2.57
6349.00,2.57
6348.00,2.57
6347.00,2.57
6346.00,2.57
6345.00,2.57
6344.00,2.57
6343.00,2.57
6342.00,2.57
6341.00,2.58
6340.00,2.58
6339.00,2.58
6338.00,2.58
6337.00,2.59
6336.00,2.59
6335.00,2.60
6334.00,2.60
6333.00,2.60
6332.00,2.61
6331.00,2.61
6330.00,2.62
6329.00,2.62
6328.00,2.63
6327.00,2.63
6326.00,2.64
6325.00,2.64
6324.00,2.65
6323.00,2.66
6322.00,2.66
6321.00,2.67
6320.00,2.67
6319.00,2.68
6318.00,2.68
6317.00,2.69
6316.00,2.69
6315.00,2.70
6314.00,2.70
6313.00,2.71
6312.00,2.71
6311.00,2.72
6310.00,2.72
6309.00,2.72
6308.00,2.73
6307.00,2.73
6306.00,2.73
6305.00,2.74
6304.00,2.74
6303.00,2.74
6302.00,2.74
6301.00,2.74
6300.00,2.73
6299.00,2.73
6298.00,2.73
6297.00,2.73
6296.00,2.73
6295.00,2.73
6294.00,2.73
6293.00,2.73
6292.00,2.73
6291.00,2.73
6290.00,2.73
6289.00,2.73
6288.00,2.72
6287.00,2.72
6286.00,2.72
6285.00,2.71
6284.00,2.71
6283.00,2.71
6282.00,2.70
6281.00,2.70
6280.00,2.70
6279.00,2.70
6278.00,2.70
6277.00,2.70
6276.00,2.70
6275.00,2.70
6274.00,2.70
6273.00,2.71
6272.00,2.71
6271.00,2.71
6270.00,2.71
6269.00,2.72
6268.00,2.72
6267.00,2.72
6266.00,2.72
6265.00,2.72
6264.00,2.72
6263.00,2.73
6262.00,2.73
6261.00,2.73
6260.00,2.73
6259.00,2.74
6258.00,2.74
6257.00,2.75
6256.00,2.75
6255.00,2.75
6254.00,2.75
6253.00,2.76
6252.00,2.76
6251.00,2.76
6250.00,2.76
6249.00,2.76
6248.00,2.77
6247.00,2.77
6246.00,2.77
6245.00,2.77
6244.00,2.77
6243.00,2.77
6242.00,2.77
6241.00,2.77
6240.00,2.78
6239.00,2.78
6238.00,2.78
6237.00,2.78
6236.00,2.78
6235.00,2.78
6234.00,2.78
6233.00,2.77
6232.00,2.77
6231.00,2.77
6230.00,2.77
6229.00,2.76
6228.00,2.76
6227.00,2.76
6226.00,2.75
6225.00,2.75
6224.00,2.75
6223.00,2.74
6222.00,2.74
6221.00,2.73
6220.00,2.73
6219.00,2.72
6218.00,2.72
6217.00,2.71
6216.00,2.70
6215.00,2.70
6214.00,2.69
6213.00,2.69
6212.00,2.68
6211.00,2.67
6210.00,2.67
6209.00,2.67
6208.00,2.66
6207.00,2.66
6206.00,2.66
6205.00,2.66
6204.00,2.66
6203.00,2.66
6202.00,2.66
6201.00,2.66
6200.00,2.66
6199.00,2.66
6198.00,2.66
6197.00,2.66
6196.00,2.66
6195.00,2.66
6194.00,2.67
6193.00,2.67
6192.00,2.67
6191.00,2.67
6190.00,2.68
6189.00,2.68
6188.00,2.68
6187.00,2.69
6186.00,2.69
6185.00,2.69
6184.00,2.70
6183.00,2.70
6182.00,2.70
6181.00,2.71
6180.00,2.71
6179.00,2.71
6178.00,2.71
6177.00,2.72
6176.00,2.72
6175.00,2.72
6174.00,2.72
6173.00,2.73
6172.00,2.73
6171.00,2.73
6170.00,2.73
6169.00,2.74
6168.00,2.74
6167.00,2.74
6166.00,2.75
6165.00,2.75
6164.00,2.76
6163.00,2.76
6162.00,2.77
6161.00,2.77
6160.00,2.77
6159.00,2.78
6158.00,2.78
6157.00,2.79
6156.00,2.79
6155.00,2.80
6154.00,2.80
6153.00,2.81
6152.00,2.81
6151.00,2.82
6150.00,2.82
6149.00,2.83
6148.00,2.83
6147.00,2.83
6146.00,2.83
6145.00,2.84
6144.00,2.84
6143.00,2.84
6142.00,2.85
6141.00,2.85
6140.00,2.85
6139.00,2.85
6138.00,2.85
6137.00,2.85
6136.00,2.85
6135.00,2.86
6134.00,2.86
6133.00,2.86
6132.00,2.85
6131.00,2.85
6130.00,2.85
6129.00,2.85
6128.00,2.85
6127.00,2.85
6126.00,2.84
6125.00,2.84
6124.00,2.84
6123.00,2.84
6122.00,2.84
6121.00,2.84
6120.00,2.84
6119.00,2.84
6118.00,2.84
6117.00,2.84
6116.00,2.84
6115.00,2.84
6114.00,2.84
6113.00,2.84
6112.00,2.84
6111.00,2.84
6110.00,2.83
6109.00,2.83
6108.00,2.83
6107.00,2.83
6106.00,2.84
6105.00,2.84
6104.00,2.84
6103.00,2.84
6102.00,2.84
6101.00,2.85
6100.00,2.85
6099.00,2.85
6098.00,2.85
6097.00,2.86
6096.00,2.86
6095.00,2.86
6094.00,2.86
6093.00,2.86
6092.00,2.86
6091.00,2.86
6090.00,2.86
6089.00,2.86
6088.00,2.86
6087.00,2.86
6086.00,2.86
6085.00,2.86
6084.00,2.85
6083.00,2.85
6082.00,2.85
6081.00,2.85
6080.00,2.84
6079.00,2.84
6078.00,2.84
6077.00,2.83
6076.00,2.83
6075.00,2.83
6074.00,2.82
6073.00,2.82
6072.00,2.82
6071.00,2.81
6070.00,2.81
6069.00,2.80
6068.00,2.80
6067.00,2.80
6066.00,2.79
6065.00,2.79
6064.00,2.79
6063.00,2.78
6062.00,2.78
6061.00,2.78
6060.00,2.78
6059.00,2.78
6058.00,2.78
6057.00,2.78
6056.00,2.78
6055.00,2.78
6054.00,2.78
6053.00,2.78
6052.00,2.79
6051.00,2.79
6050.00,2.79
6049.00,2.80
6048.00,2.80
6047.00,2.80
6046.00,2.80
6045.00,2.81
6044.00,2.81
6043.00,2.81
6042.00,2.82
6041.00,2.82
6040.00,2.82
6039.00,2.83
6038.00,2.83
6037.00,2.84
6036.00,2.84
6035.00,2.85
6034.00,2.85
6033.00,2.86
6032.00,2.86
6031.00,2.86
6030.00,2.87
6029.00,2.87
6028.00,2.87
6027.00,2.88
6026.00,2.88
6025.00,2.88
6024.00,2.88
6023.00,2.88
6022.00,2.89
6021.00,2.89
6020.00,2.89
6019.00,2.90
6018.00,2.90
6017.00,2.90
6016.00,2.91
6015.00,2.91
6014.00,2.92
6013.00,2.92
6012.00,2.92
6011.00,2.93
6010.00,2.93
6009.00,2.93
6008.00,2.93
6007.00,2.93
6006.00,2.93
6005.00,2.93
6004.00,2.93
6003.00,2.93
6002.00,2.93
6001.00,2.93
6000.00,2.93
5999.00,2.93
5998.00,2.93
5997.00,2.93
5996.00,2.93
5995.00,2.93
5994.00,2.93
5993.00,2.93
5992.00,2.92
5991.00,2.92
5990.00,2.92
5989.00,2.91
5988.00,2.91
5987.00,2.90
5986.00,2.90
5985.00,2.90
5984.00,2.89
5983.00,2.89
5982.00,2.88
5981.00,2.88
5980.00,2.87
5979.00,2.87
5978.00,2.87
5977.00,2.86
5976.00,2.86
5975.00,2.86
5974.00,2.85
5973.00,2.85
5972.00,2.85
5971.00,2.85
5970.00,2.84
5969.00,2.84
5968.00,2.84
5967.00,2.84
5966.00,2.84
5965.00,2.84
5964.00,2.84
5963.00,2.84
5962.00,2.84
5961.00,2.84
5960.00,2.84
5959.00,2.84
5958.00,2.84
5957.00,2.84
5956.00,2.84
5955.00,2.84
5954.00,2.84
5953.00,2.84
5952.00,2.84
5951.00,2.84
5950.00,2.84
5949.00,2.84
5948.00,2.84
5947.00,2.84
5946.00,2.84
5945.00,2.84
5944.00,2.84
5943.00,2.84
5942.00,2.84
5941.00,2.84
5940.00,2.84
5939.00,2.84
5938.00,2.84
5937.00,2.84
5936.00,2.84
5935.00,2.83
5934.00,2.83
5933.00,2.83
5932.00,2.83
5931.00,2.83
5930.00,2.83
5929.00,2.83
5928.00,2.82
5927.00,2.82
5926.00,2.82
5925.00,2.82
5924.00,2.82
5923.00,2.82
5922.00,2.82
5921.00,2.82
5920.00,2.82
5919.00,2.82
5918.00,2.82
5917.00,2.82
5916.00,2.83
5915.00,2.83
5914.00,2.83
5913.00,2.83
5912.00,2.83
5911.00,2.84
5910.00,2.84
5909.00,2.84
5908.00,2.84
5907.00,2.85
5906.00,2.85
5905.00,2.85
5904.00,2.85
5903.00,2.86
5902.00,2.86
5901.00,2.86
5900.00,2.86
5899.00,2.86
5898.00,2.86
5897.00,2.87
5896.00,2.87
5895.00,2.87
5894.00,2.87
5893.00,2.87
5892.00,2.87
5891.00,2.86
5890.00,2.86
5889.00,2.86
5888.00,2.86
5887.00,2.86
5886.00,2.86
5885.00,2.86
5884.00,2.85
5883.00,2.85
5882.00,2.85
5881.00,2.85
5880.00,2.85
5879.00,2.85
5878.00,2.85
5877.00,2.84
5876.00,2.84
5875.00,2.84
5874.00,2.84
5873.00,2.84
5872.00,2.84
5871.00,2.84
5870.00,2.84
5869.00,2.84
5868.00,2.84
5867.00,2.84
5866.00,2.85
5865.00,2.85
5864.00,2.85
5863.00,2.85
5862.00,2.85
5861.00,2.85
5860.00,2.86
5859.00,2.86
5858.00,2.86
5857.00,2.86
5856.00,2.87
5855.00,2.87
5854.00,2.87
5853.00,2.88
5852.00,2.88
5851.00,2.88
5850.00,2.89
5849.00,2.89
5848.00,2.90
5847.00,2.90
5846.00,2.90
5845.00,2.91
5844.00,2.91
5843.00,2.91
5842.00,2.92
5841.00,2.92
5840.00,2.92
5839.00,2.93
5838.00,2.93
5837.00,2.94
5836.00,2.94
5835.00,2.94
5834.00,2.95
5833.00,2.95
5832.00,2.95
5831.00,2.95
5830.00,2.96
5829.00,2.96
5828.00,2.96
5827.00,2.96
5826.00,2.96
5825.00,2.96
5824.00,2.96
5823.00,2.96
5822.00,2.95
5821.00,2.95
5820.00,2.95
5819.00,2.95
5818.00,2.95
5817.00,2.95
5816.00,2.95
5815.00,2.95
5814.00,2.95
5813.00,2.94
5812.00,2.94
5811.00,2.94
5810.00,2.93
5809.00,2.93
5808.00,2.93
5807.00,2.92
5806.00,2.92
5805.00,2.92
5804.00,2.92
5803.00,2.91
5802.00,2.91
5801.00,2.91
5800.00,2.91
5799.00,2.91
5798.00,2.91
5797.00,2.91
5796.00,2.91
5795.00,2.91
5794.00,2.91
5793.00,2.91
5792.00,2.91
5791.00,2.91
5790.00,2.91
5789.00,2.91
5788.00,2.90
5787.00,2.90
5786.00,2.90
5785.00,2.90
5784.00,2.90
5783.00,2.90
5782.00,2.90
5781.00,2.90
5780.00,2.90
5779.00,2.90
5778.00,2.89
5777.00,2.89
5776.00,2.89
5775.00,2.89
5774.00,2.88
5773.00,2.88
5772.00,2.88
5771.00,2.87
5770.00,2.87
5769.00,2.87
5768.00,2.86
5767.00,2.86
5766.00,2.86
5765.00,2.86
5764.00,2.86
5763.00,2.86
5762.00,2.86
5761.00,2.86
5760.00,2.86
5759.00,2.86
5758.00,2.86
5757.00,2.86
5756.00,2.86
5755.00,2.86
5754.00,2.86
5753.00,2.87
5752.00,2.87
5751.00,2.87
5750.00,2.87
5749.00,2.88
5748.00,2.88
5747.00,2.88
5746.00,2.89
5745.00,2.89
5744.00,2.89
5743.00,2.89
5742.00,2.89
5741.00,2.90
5740.00,2.90
5739.00,2.90
5738.00,2.90
5737.00,2.90
5736.00,2.90
5735.00,2.90
5734.00,2.90
5733.00,2.91
5732.00,2.91
5731.00,2.91
5730.00,2.91
5729.00,2.91
5728.00,2.91
5727.00,2.90
5726.00,2.90
5725.00,2.90
5724.00,2.90
5723.00,2.89
5722.00,2.89
5721.00,2.89
5720.00,2.89
5719.00,2.89
5718.00,2.89
5717.00,2.89
5716.00,2.89
5715.00,2.88
5714.00,2.88
5713.00,2.88
5712.00,2.88
5711.00,2.88
5710.00,2.88
5709.00,2.88
5708.00,2.88
5707.00,2.87
5706.00,2.87
5705.00,2.87
5704.00,2.87
5703.00,2.87
5702.00,2.87
5701.00,2.87
5700.00,2.87
5699.00,2.87
5698.00,2.87
5697.00,2.87
5696.00,2.87
5695.00,2.87
5694.00,2.87
5693.00,2.88
5692.00,2.88
5691.00,2.88
5690.00,2.88
5689.00,2.88
5688.00,2.88
5687.00,2.88
5686.00,2.88
5685.00,2.89
5684.00,2.89
5683.00,2.89
5682.00,2.89
5681.00,2.89
5680.00,2.89
5679.00,2.90
5678.00,2.90
5677.00,2.90
5676.00,2.90
5675.00,2.90
5674.00,2.90
5673.00,2.90
5672.00,2.90
5671.00,2.90
5670.00,2.90
5669.00,2.90
5668.00,2.90
5667.00,2.90
5666.00,2.90
5665.00,2.90
5664.00,2.89
5663.00,2.89
5662.00,2.89
5661.00,2.89
5660.00,2.89
5659.00,2.89
5658.00,2.88
5657.00,2.88
5656.00,2.88
5655.00,2.88
5654.00,2.88
5653.00,2.87
5652.00,2.87
5651.00,2.87
5650.00,2.87
5649.00,2.87
5648.00,2.87
5647.00,2.87
5646.00,2.87
5645.00,2.87
5644.00,2.87
5643.00,2.87
5642.00,2.87
5641.00,2.87
5640.00,2.87
5639.00,2.86
5638.00,2.86
5637.00,2.86
5636.00,2.86
5635.00,2.86
5634.00,2.86
5633.00,2.86
5632.00,2.86
5631.00,2.86
5630.00,2.86
5629.00,2.86
5628.00,2.86
5627.00,2.86
5626.00,2.86
5625.00,2.86
5624.00,2.86
5623.00,2.86
5622.00,2.86
5621.00,2.86
5620.00,2.86
5619.00,2.86
5618.00,2.86
5617.00,2.86
5616.00,2.86
5615.00,2.87
5614.00,2.87
5613.00,2.87
5612.00,2.87
5611.00,2.88
5610.00,2.88
5609.00,2.88
5608.00,2.88
5607.00,2.89
5606.00,2.89
5605.00,2.89
5604.00,2.90
5603.00,2.90
5602.00,2.90
5601.00,2.90
5600.00,2.90
5599.00,2.90
5598.00,2.91
5597.00,2.91
5596.00,2.91
5595.00,2.91
5594.00,2.91
5593.00,2.91
5592.00,2.92
5591.00,2.92
5590.00,2.92
5589.00,2.92
5588.00,2.92
5587.00,2.93
5586.00,2.93
5585.00,2.93
5584.00,2.93
5583.00,2.93
5582.00,2.93
5581.00,2.93
5580.00,2.93
5579.00,2.93
5578.00,2.93
5577.00,2.93
5576.00,2.93
5575.00,2.92
5574.00,2.92
5573.00,2.93
5572.00,2.93
5571.00,2.93
5570.00,2.93
5569.00,2.93
5568.00,2.93
5567.00,2.93
5566.00,2.93
5565.00,2.93
5564.00,2.93
5563.00,2.93
5562.00,2.93
5561.00,2.93
5560.00,2.92
5559.00,2.92
5558.00,2.92
5557.00,2.92
5556.00,2.92
5555.00,2.92
5554.00,2.92
5553.00,2.93
5552.00,2.93
5551.00,2.93
5550.00,2.93
5549.00,2.94
5548.00,2.94
5547.00,2.94
5546.00,2.94
5545.00,2.94
5544.00,2.95
5543.00,2.95
5542.00,2.95
5541.00,2.95
5540.00,2.95
5539.00,2.95
5538.00,2.96
5537.00,2.96
5536.00,2.96
5535.00,2.96
5534.00,2.96
5533.00,2.96
5532.00,2.97
5531.00,2.97
5530.00,2.97
5529.00,2.97
5528.00,2.97
5527.00,2.97
5526.00,2.97
5525.00,2.97
5524.00,2.97
5523.00,2.97
5522.00,2.97
5521.00,2.97
5520.00,2.97
5519.00,2.97
5518.00,2.97
5517.00,2.97
5516.00,2.97
5515.00,2.97
5514.00,2.97
5513.00,2.97
5512.00,2.97
5511.00,2.97
5510.00,2.97
5509.00,2.97
5508.00,2.97
5507.00,2.97
5506.00,2.97
5505.00,2.97
5504.00,2.97
5503.00,2.97
5502.00,2.97
5501.00,2.98
5500.00,2.98
5499.00,2.98
5498.00,2.98
5497.00,2.98
5496.00,2.98
5495.00,2.98
5494.00,2.98
5493.00,2.98
5492.00,2.98
5491.00,2.98
5490.00,2.98
5489.00,2.98
5488.00,2.98
5487.00,2.98
5486.00,2.99
5485.00,2.99
5484.00,2.99
5483.00,2.99
5482.00,2.99
5481.00,2.99
5480.00,2.99
5479.00,2.99
5478.00,3.00
5477.00,3.00
5476.00,3.00
5475.00,2.99
5474.00,2.99
5473.00,2.99
5472.00,3.00
5471.00,3.00
5470.00,3.00
5469.00,3.00
5468.00,3.00
5467.00,3.00
5466.00,3.00
5465.00,3.00
5464.00,3.00
5463.00,3.00
5462.00,3.00
5461.00,3.00
5460.00,3.00
5459.00,2.99
5458.00,2.99
5457.00,2.99
5456.00,2.99
5455.00,2.98
5454.00,2.98
5453.00,2.98
5452.00,2.98
5451.00,2.98
5450.00,2.97
5449.00,2.97
5448.00,2.97
5447.00,2.97
5446.00,2.97
5445.00,2.97
5444.00,2.97
5443.00,2.97
5442.00,2.97
5441.00,2.97
5440.00,2.97
5439.00,2.97
5438.00,2.97
5437.00,2.97
5436.00,2.97
5435.00,2.98
5434.00,2.98
5433.00,2.98
5432.00,2.98
5431.00,2.99
5430.00,2.99
5429.00,2.99
5428.00,3.00
5427.00,3.00
5426.00,3.00
5425.00,3.01
5424.00,3.01
5423.00,3.01
5422.00,3.01
5421.00,3.01
5420.00,3.02
5419.00,3.02
5418.00,3.02
5417.00,3.02
5416.00,3.02
5415.00,3.03
5414.00,3.03
5413.00,3.03
5412.00,3.03
5411.00,3.03
5410.00,3.03
5409.00,3.03
5408.00,3.03
5407.00,3.03
5406.00,3.03
5405.00,3.03
5404.00,3.03
5403.00,3.02
5402.00,3.02
5401.00,3.02
5400.00,3.02
5399.00,3.02
5398.00,3.02
5397.00,3.02
5396.00,3.01
5395.00,3.01
5394.00,3.01
5393.00,3.01
5392.00,3.00
5391.00,3.00
5390.00,2.99
5389.00,2.99
5388.00,2.98
5387.00,2.97
5386.00,2.97
5385.00,2.96
5384.00,2.96
5383.00,2.95
5382.00,2.95
5381.00,2.94
5380.00,2.94
5379.00,2.93
5378.00,2.93
5377.00,2.92
5376.00,2.91
5375.00,2.91
5374.00,2.90
5373.00,2.89
5372.00,2.89
5371.00,2.88
5370.00,2.87
5369.00,2.86
5368.00,2.85
5367.00,2.84
5366.00,2.83
5365.00,2.83
5364.00,2.82
5363.00,2.81
5362.00,2.80
5361.00,2.79
5360.00,2.79
5359.00,2.78
5358.00,2.77
5357.00,2.76
5356.00,2.74
5355.00,2.73
5354.00,2.72
5353.00,2.71
5352.00,2.70
5351.00,2.68
5350.00,2.67
5349.00,2.66
5348.00,2.64
5347.00,2.63
5346.00,2.62
5345.00,2.61
5344.00,2.59
5343.00,2.58
5342.00,2.57
5341.00,2.56
5340.00,2.55
5339.00,2.54
5338.00,2.52
5337.00,2.51
5336.00,2.50
5335.00,2.48
5334.00,2.47
5333.00,2.45
5332.00,2.44
5331.00,2.43
5330.00,2.41
5329.00,2.40
5328.00,2.38
5327.00,2.37
5326.00,2.36
5325.00,2.34
5324.00,2.33
5323.00,2.31
5322.00,2.29
5321.00,2.28
5320.00,2.26
5319.00,2.24
5318.00,2.23
5317.00,2.21
5316.00,2.19
5315.00,2.17
5314.00,2.15
5313.00,2.13
5312.00,2.12
5311.00,2.10
5310.00,2.08
5309.00,2.06
5308.00,2.04
5307.00,2.02
5306.00,2.00
5305.00,1.98
5304.00,1.97
5303.00,1.95
5302.00,1.93
5301.00,1.91
5300.00,1.90
5299.00,1.88
5298.00,1.86
5297.00,1.85
5296.00,1.83
5295.00,1.81
5294.00,1.80
5293.00,1.78
5292.00,1.77
5291.00,1.75
5290.00,1.74
5289.00,1.72
5288.00,1.71
5287.00,1.70
5286.00,1.68
5285.00,1.67
5284.00,1.66
5283.00,1.65
5282.00,1.63
5281.00,1.62
5280.00,1.61
5279.00,1.60
5278.00,1.59
5277.00,1.58
5276.00,1.57
5275.00,1.56
5274.00,1.55
5273.00,1.54
5272.00,1.53
5271.00,1.52
5270.00,1.51
5269.00,1.50
5268.00,1.49
5267.00,1.48
5266.00,1.48
5265.00,1.47
5264.00,1.46
5263.00,1.46
5262.00,1.45
5261.00,1.44
5260.00,1.44
5259.00,1.43
5258.00,1.43
5257.00,1.43
5256.00,1.42
5255.00,1.42
5254.00,1.41
5253.00,1.41
5252.00,1.41
5251.00,1.41
5250.00,1.40
5249.00,1.40
5248.00,1.40
5247.00,1.40
5246.00,1.39
5245.00,1.39
5244.00,1.39
5243.00,1.39
5242.00,1.39
5241.00,1.38
5240.00,1.38
5239.00,1.38
5238.00,1.38
5237.00,1.37
5236.00,1.37
5235.00,1.37
5234.00,1.36
5233.00,1.36
5232.00,1.36
5231.00,1.35
5230.00,1.35
5229.00,1.34
5228.00,1.34
5227.00,1.33
5226.00,1.33
5225.00,1.32
5224.00,1.32
5223.00,1.31
5222.00,1.31
5221.00,1.30
5220.00,1.30
5219.00,1.30
5218.00,1.29
5217.00,1.29
5216.00,1.29
5215.00,1.29
5214.00,1.29
5213.00,1.28
5212.00,1.28
5211.00,1.28
5210.00,1.28
5209.00,1.28
5208.00,1.28
5207.00,1.28
5206.00,1.29
5205.00,1.29
5204.00,1.29
5203.00,1.29
5202.00,1.29
5201.00,1.30
5200.00,1.30
5199.00,1.30
5198.00,1.31
5197.00,1.31
5196.00,1.31
5195.00,1.32
5194.00,1.32
5193.00,1.32
5192.00,1.33
5191.00,1.33
5190.00,1.33
5189.00,1.33
5188.00,1.33
5187.00,1.34
5186.00,1.34
5185.00,1.34
5184.00,1.34
5183.00,1.34
5182.00,1.34
5181.00,1.34
5180.00,1.34
5179.00,1.34
5178.00,1.35
5177.00,1.35
5176.00,1.35
5175.00,1.35
5174.00,1.35
5173.00,1.35
5172.00,1.35
5171.00,1.35
5170.00,1.35
5169.00,1.35
5168.00,1.35
5167.00,1.35
5166.00,1.35
5165.00,1.35
5164.00,1.35
5163.00,1.35
5162.00,1.35
5161.00,1.35
5160.00,1.35
5159.00,1.35
5158.00,1.35
5157.00,1.35
5156.00,1.35
5155.00,1.35
5154.00,1.35
5153.00,1.35
5152.00,1.35
5151.00,1.35
5150.00,1.35
5149.00,1.34
5148.00,1.34
5147.00,1.34
5146.00,1.34
5145.00,1.33
5144.00,1.33
5143.00,1.33
5142.00,1.32
5141.00,1.32
5140.00,1.32
5139.00,1.31
5138.00,1.31
5137.00,1.31
5136.00,1.31
5135.00,1.30
5134.00,1.30
5133.00,1.30
5132.00,1.30
5131.00,1.29
5130.00,1.29
5129.00,1.29
5128.00,1.29
5127.00,1.30
5126.00,1.30
5125.00,1.30
5124.00,1.30
5123.00,1.31
5122.00,1.31
5121.00,1.32
5120.00,1.32
5119.00,1.33
5118.00,1.34
5117.00,1.34
5116.00,1.35
5115.00,1.36
5114.00,1.36
5113.00,1.37
5112.00,1.38
5111.00,1.39
5110.00,1.39
5109.00,1.40
5108.00,1.41
5107.00,1.42
5106.00,1.42
5105.00,1.43
5104.00,1.44
5103.00,1.44
5102.00,1.45
5101.00,1.45
5100.00,1.45
5099.00,1.46
5098.00,1.46
5097.00,1.46
5096.00,1.46
5095.00,1.46
5094.00,1.46
5093.00,1.46
5092.00,1.46
5091.00,1.46
5090.00,1.46
5089.00,1.46
5088.00,1.46
5087.00,1.46
5086.00,1.46
5085.00,1.46
5084.00,1.46
5083.00,1.45
5082.00,1.45
5081.00,1.45
5080.00,1.45
5079.00,1.45
5078.00,1.45
5077.00,1.46
5076.00,1.46
5075.00,1.46
5074.00,1.46
5073.00,1.46
5072.00,1.47
5071.00,1.47
5070.00,1.48
5069.00,1.48
5068.00,1.49
5067.00,1.49
5066.00,1.50
5065.00,1.50
5064.00,1.51
5063.00,1.51
5062.00,1.52
5061.00,1.52
5060.00,1.53
5059.00,1.54
5058.00,1.54
5057.00,1.55
5056.00,1.55
5055.00,1.56
5054.00,1.57
5053.00,1.57
5052.00,1.58
5051.00,1.58
5050.00,1.58
5049.00,1.59
5048.00,1.59
5047.00,1.59
5046.00,1.60
5045.00,1.60
5044.00,1.60
5043.00,1.60
5042.00,1.60
5041.00,1.61
5040.00,1.61
5039.00,1.61
5038.00,1.61
5037.00,1.61
5036.00,1.62
5035.00,1.62
5034.00,1.62
5033.00,1.62
5032.00,1.62
5031.00,1.62
5030.00,1.62
5029.00,1.62
5028.00,1.62
5027.00,1.62
5026.00,1.62
5025.00,1.63
5024.00,1.63
5023.00,1.63
5022.00,1.63
5021.00,1.63
5020.00,1.64
5019.00,1.64
5018.00,1.64
5017.00,1.65
5016.00,1.65
5015.00,1.65
5014.00,1.66
5013.00,1.66
5012.00,1.66
5011.00,1.67
5010.00,1.67
5009.00,1.67
5008.00,1.67
5007.00,1.68
5006.00,1.68
5005.00,1.69
5004.00,1.69
5003.00,1.69
5002.00,1.70
5001.00,1.70
5000.00,1.71
4999.00,1.72
4998.00,1.72
4997.00,1.73
4996.00,1.73
4995.00,1.74
4994.00,1.74
4993.00,1.75
4992.00,1.76
4991.00,1.76
4990.00,1.77
4989.00,1.77
4988.00,1.78
4987.00,1.79
4986.00,1.79
4985.00,1.80
4984.00,1.81
4983.00,1.82
4982.00,1.83
4981.00,1.84
4980.00,1.85
4979.00,1.86
4978.00,1.86
4977.00,1.87
4976.00,1.88
4975.00,1.89
4974.00,1.89
4973.00,1.90
4972.00,1.91
4971.00,1.91
4970.00,1.92
4969.00,1.92
4968.00,1.93
4967.00,1.93
4966.00,1.94
4965.00,1.94
4964.00,1.94
4963.00,1.95
4962.00,1.95
4961.00,1.95
4960.00,1.95
4959.00,1.95
4958.00,1.95
4957.00,1.95
4956.00,1.95
4955.00,1.95
4954.00,1.94
4953.00,1.94
4952.00,1.94
4951.00,1.94
4950.00,1.93
4949.00,1.93
4948.00,1.93
4947.00,1.92
4946.00,1.92
4945.00,1.92
4944.00,1.92
4943.00,1.91
4942.00,1.91
4941.00,1.91
4940.00,1.92
4939.00,1.92
4938.00,1.92
4937.00,1.92
4936.00,1.93
4935.00,1.93
4934.00,1.93
4933.00,1.94
4932.00,1.94
4931.00,1.95
4930.00,1.95
4929.00,1.95
4928.00,1.96
4927.00,1.97
4926.00,1.97
4925.00,1.98
4924.00,1.99
4923.00,1.99
4922.00,2.00
4921.00,2.01
4920.00,2.02
4919.00,2.03
4918.00,2.03
4917.00,2.04
4916.00,2.05
4915.00,2.05
4914.00,2.06
4913.00,2.06
4912.00,2.06
4911.00,2.07
4910.00,2.07
4909.00,2.07
4908.00,2.07
4907.00,2.08
4906.00,2.08
4905.00,2.08
4904.00,2.09
4903.00,2.09
4902.00,2.09
4901.00,2.10
4900.00,2.10
4899.00,2.10
4898.00,2.11
4897.00,2.11
4896.00,2.11
4895.00,2.11
4894.00,2.12
4893.00,2.12
4892.00,2.12
4891.00,2.12
4890.00,2.13
4889.00,2.13
4888.00,2.13
4887.00,2.14
4886.00,2.14
4885.00,2.14
4884.00,2.15
4883.00,2.15
4882.00,2.16
4881.00,2.16
4880.00,2.16
4879.00,2.17
4878.00,2.17
4877.00,2.17
4876.00,2.18
4875.00,2.18
4874.00,2.18
4873.00,2.19
4872.00,2.19
4871.00,2.19
4870.00,2.20
4869.00,2.20
4868.00,2.20
4867.00,2.21
4866.00,2.21
4865.00,2.21
4864.00,2.21
4863.00,2.22
4862.00,2.22
4861.00,2.22
4860.00,2.22
4859.00,2.23
4858.00,2.23
4857.00,2.23
4856.00,2.24
4855.00,2.24
4854.00,2.24
4853.00,2.24
4852.00,2.25
4851.00,2.25
4850.00,2.25
4849.00,2.25
4848.00,2.25
4847.00,2.26
4846.00,2.26
4845.00,2.26
4844.00,2.26
4843.00,2.27
4842.00,2.27
4841.00,2.27
4840.00,2.27
4839.00,2.28
4838.00,2.28
4837.00,2.28
4836.00,2.29
4835.00,2.29
4834.00,2.29
4833.00,2.29
4832.00,2.30
4831.00,2.30
4830.00,2.31
4829.00,2.31
4828.00,2.32
4827.00,2.32
4826.00,2.33
4825.00,2.33
4824.00,2.34
4823.00,2.34
4822.00,2.35
4821.00,2.35
4820.00,2.36
4819.00,2.36
4818.00,2.36
4817.00,2.36
4816.00,2.37
4815.00,2.37
4814.00,2.37
4813.00,2.37
4812.00,2.38
4811.00,2.38
4810.00,2.38
4809.00,2.38
4808.00,2.38
4807.00,2.38
4806.00,2.38
4805.00,2.38
4804.00,2.38
4803.00,2.37
4802.00,2.37
4801.00,2.37
4800.00,2.36
4799.00,2.36
4798.00,2.36
4797.00,2.35
4796.00,2.35
4795.00,2.35
4794.00,2.35
4793.00,2.35
4792.00,2.35
4791.00,2.35
4790.00,2.35
4789.00,2.36
4788.00,2.36
4787.00,2.36
4786.00,2.36
4785.00,2.37
4784.00,2.37
4783.00,2.38
4782.00,2.38
4781.00,2.39
4780.00,2.39
4779.00,2.40
4778.00,2.41
4777.00,2.42
4776.00,2.42
4775.00,2.43
4774.00,2.44
4773.00,2.45
4772.00,2.46
4771.00,2.47
4770.00,2.48
4769.00,2.49
4768.00,2.50
4767.00,2.51
4766.00,2.52
4765.00,2.53
4764.00,2.53
4763.00,2.54
4762.00,2.55
4761.00,2.56
4760.00,2.56
4759.00,2.57
4758.00,2.58
4757.00,2.58
4756.00,2.59
4755.00,2.59
4754.00,2.60
4753.00,2.60
4752.00,2.61
4751.00,2.61
4750.00,2.62
4749.00,2.62
4748.00,2.62
4747.00,2.62
4746.00,2.63
4745.00,2.63
4744.00,2.63
4743.00,2.63
4742.00,2.63
4741.00,2.64
4740.00,2.64
4739.00,2.64
4738.00,2.64
4737.00,2.64
4736.00,2.64
4735.00,2.64
4734.00,2.64
4733.00,2.64
4732.00,2.65
4731.00,2.65
4730.00,2.65
4729.00,2.65
4728.00,2.66
4727.00,2.66
4726.00,2.66
4725.00,2.66
4724.00,2.67
4723.00,2.67
4722.00,2.67
4721.00,2.67
4720.00,2.68
4719.00,2.68
4718.00,2.68
4717.00,2.68
4716.00,2.69
4715.00,2.69
4714.00,2.69
4713.00,2.69
4712.00,2.70
4711.00,2.70
4710.00,2.71
4709.00,2.71
4708.00,2.71
4707.00,2.72
4706.00,2.72
4705.00,2.72
4704.00,2.73
4703.00,2.73
4702.00,2.74
4701.00,2.74
4700.00,2.74
4699.00,2.75
4698.00,2.75
4697.00,2.75
4696.00,2.76
4695.00,2.76
4694.00,2.77
4693.00,2.78
4692.00,2.78
4691.00,2.79
4690.00,2.79
4689.00,2.80
4688.00,2.81
4687.00,2.81
4686.00,2.82
4685.00,2.82
4684.00,2.83
4683.00,2.83
4682.00,2.84
4681.00,2.85
4680.00,2.85
4679.00,2.86
4678.00,2.86
4677.00,2.86
4676.00,2.87
4675.00,2.87
4674.00,2.87
4673.00,2.88
4672.00,2.88
4671.00,2.88
4670.00,2.89
4669.00,2.89
4668.00,2.89
4667.00,2.89
4666.00,2.89
4665.00,2.90
4664.00,2.90
4663.00,2.90
4662.00,2.90
4661.00,2.90
4660.00,2.90
4659.00,2.90
4658.00,2.90
4657.00,2.90
4656.00,2.90
4655.00,2.90
4654.00,2.90
4653.00,2.90
4652.00,2.90
4651.00,2.90
4650.00,2.89
4649.00,2.89
4648.00,2.89
4647.00,2.89
4646.00,2.89
4645.00,2.89
4644.00,2.89
4643.00,2.89
4642.00,2.89
4641.00,2.89
4640.00,2.89
4639.00,2.89
4638.00,2.89
4637.00,2.89
4636.00,2.89
4635.00,2.89
4634.00,2.89
4633.00,2.89
4632.00,2.89
4631.00,2.89
4630.00,2.89
4629.00,2.89
4628.00,2.89
4627.00,2.89
4626.00,2.89
4625.00,2.89
4624.00,2.89
4623.00,2.90
4622.00,2.90
4621.00,2.90
4620.00,2.91
4619.00,2.91
4618.00,2.91
4617.00,2.92
4616.00,2.92
4615.00,2.92
4614.00,2.92
4613.00,2.93
4612.00,2.93
4611.00,2.93
4610.00,2.93
4609.00,2.93
4608.00,2.93
4607.00,2.93
4606.00,2.93
4605.00,2.93
4604.00,2.93
4603.00,2.93
4602.00,2.93
4601.00,2.93
4600.00,2.93
4599.00,2.93
4598.00,2.93
4597.00,2.93
4596.00,2.92
4595.00,2.92
4594.00,2.92
4593.00,2.91
4592.00,2.91
4591.00,2.91
4590.00,2.90
4589.00,2.90
4588.00,2.90
4587.00,2.90
4586.00,2.89
4585.00,2.89
4584.00,2.89
4583.00,2.89
4582.00,2.89
4581.00,2.89
4580.00,2.90
4579.00,2.90
4578.00,2.90
4577.00,2.90
4576.00,2.90
4575.00,2.91
4574.00,2.91
4573.00,2.91
4572.00,2.92
4571.00,2.92
4570.00,2.92
4569.00,2.93
4568.00,2.93
4567.00,2.94
4566.00,2.94
4565.00,2.94
4564.00,2.95
4563.00,2.95
4562.00,2.95
4561.00,2.95
4560.00,2.96
4559.00,2.96
4558.00,2.96
4557.00,2.96
4556.00,2.96
4555.00,2.96
4554.00,2.97
4553.00,2.97
4552.00,2.97
4551.00,2.97
4550.00,2.97
4549.00,2.97
4548.00,2.97
4547.00,2.97
4546.00,2.98
4545.00,2.98
4544.00,2.98
4543.00,2.98
4542.00,2.98
4541.00,2.98
4540.00,2.98
4539.00,2.99
4538.00,2.99
4537.00,2.99
4536.00,2.99
4535.00,3.00
4534.00,3.00
4533.00,3.00
4532.00,3.00
4531.00,3.01
4530.00,3.01
4529.00,3.01
4528.00,3.01
4527.00,3.01
4526.00,3.02
4525.00,3.02
4524.00,3.02
4523.00,3.02
4522.00,3.02
4521.00,3.02
4520.00,3.02
4519.00,3.02
4518.00,3.03
4517.00,3.03
4516.00,3.03
4515.00,3.03
4514.00,3.03
4513.00,3.03
4512.00,3.03
4511.00,3.03
4510.00,3.03
4509.00,3.03
4508.00,3.02
4507.00,3.02
4506.00,3.02
4505.00,3.02
4504.00,3.02
4503.00,3.02
4502.00,3.02
4501.00,3.02
4500.00,3.01
4499.00,3.01
4498.00,3.01
4497.00,3.01
4496.00,3.01
4495.00,3.01
4494.00,3.01
4493.00,3.00
4492.00,3.00
4491.00,3.00
4490.00,3.00
4489.00,2.99
4488.00,2.99
4487.00,2.99
4486.00,2.99
4485.00,2.98
4484.00,2.98
4483.00,2.98
4482.00,2.98
4481.00,2.98
4480.00,2.98
4479.00,2.98
4478.00,2.98
4477.00,2.97
4476.00,2.97
4475.00,2.97
4474.00,2.96
4473.00,2.96
4472.00,2.95
4471.00,2.95
4470.00,2.94
4469.00,2.94
4468.00,2.93
4467.00,2.93
4466.00,2.92
4465.00,2.91
4464.00,2.91
4463.00,2.90
4462.00,2.90
4461.00,2.89
4460.00,2.88
4459.00,2.88
4458.00,2.87
4457.00,2.86
4456.00,2.85
4455.00,2.84
4454.00,2.84
4453.00,2.83
4452.00,2.82
4451.00,2.81
4450.00,2.80
4449.00,2.79
4448.00,2.79
4447.00,2.78
4446.00,2.77
4445.00,2.76
4444.00,2.75
4443.00,2.74
4442.00,2.73
4441.00,2.73
4440.00,2.72
4439.00,2.71
4438.00,2.70
4437.00,2.69
4436.00,2.67
4435.00,2.66
4434.00,2.65
4433.00,2.64
4432.00,2.62
4431.00,2.61
4430.00,2.60
4429.00,2.59
4428.00,2.58
4427.00,2.56
4426.00,2.55
4425.00,2.54
4424.00,2.53
4423.00,2.52
4422.00,2.51
4421.00,2.50
4420.00,2.49
4419.00,2.48
4418.00,2.48
4417.00,2.47
4416.00,2.47
4415.00,2.46
4414.00,2.46
4413.00,2.46
4412.00,2.45
4411.00,2.45
4410.00,2.46
4409.00,2.46
4408.00,2.46
4407.00,2.47
4406.00,2.48
4405.00,2.48
4404.00,2.49
4403.00,2.50
4402.00,2.51
4401.00,2.52
4400.00,2.53
4399.00,2.54
4398.00,2.55
4397.00,2.56
4396.00,2.57
4395.00,2.58
4394.00,2.60
4393.00,2.61
4392.00,2.62
4391.00,2.63
4390.00,2.65
4389.00,2.66
4388.00,2.67
4387.00,2.68
4386.00,2.70
4385.00,2.71
4384.00,2.72
4383.00,2.73
4382.00,2.74
4381.00,2.74
4380.00,2.75
4379.00,2.75
4378.00,2.76
4377.00,2.76
4376.00,2.77
4375.00,2.77
4374.00,2.77
4373.00,2.77
4372.00,2.77
4371.00,2.77
4370.00,2.77
4369.00,2.77
4368.00,2.76
4367.00,2.76
4366.00,2.75
4365.00,2.74
4364.00,2.74
4363.00,2.73
4362.00,2.72
4361.00,2.71
4360.00,2.71
4359.00,2.70
4358.00,2.69
4357.00,2.68
4356.00,2.67
4355.00,2.67
4354.00,2.66
4353.00,2.66
4352.00,2.65
4351.00,2.65
4350.00,2.64
4349.00,2.64
4348.00,2.63
4347.00,2.63
4346.00,2.63
4345.00,2.63
4344.00,2.63
4343.00,2.63
4342.00,2.63
4341.00,2.63
4340.00,2.63
4339.00,2.64
4338.00,2.64
4337.00,2.64
4336.00,2.64
4335.00,2.65
4334.00,2.65
4333.00,2.66
4332.00,2.66
4331.00,2.66
4330.00,2.67
4329.00,2.67
4328.00,2.68
4327.00,2.69
4326.00,2.69
4325.00,2.70
4324.00,2.70
4323.00,2.71
4322.00,2.71
4321.00,2.72
4320.00,2.72
4319.00,2.73
4318.00,2.73
4317.00,2.74
4316.00,2.75
4315.00,2.75
4314.00,2.76
4313.00,2.77
4312.00,2.78
4311.00,2.79
4310.00,2.79
4309.00,2.80
4308.00,2.81
4307.00,2.82
4306.00,2.82
4305.00,2.83
4304.00,2.84
4303.00,2.84
4302.00,2.85
4301.00,2.86
4300.00,2.86
4299.00,2.87
4298.00,2.88
4297.00,2.89
4296.00,2.89
4295.00,2.90
4294.00,2.91
4293.00,2.91
4292.00,2.92
4291.00,2.92
4290.00,2.93
4289.00,2.93
4288.00,2.93
4287.00,2.94
4286.00,2.94
4285.00,2.94
4284.00,2.94
4283.00,2.94
4282.00,2.94
4281.00,2.94
4280.00,2.94
4279.00,2.93
4278.00,2.93
4277.00,2.93
4276.00,2.93
4275.00,2.92
4274.00,2.92
4273.00,2.91
4272.00,2.91
4271.00,2.90
4270.00,2.90
4269.00,2.89
4268.00,2.89
4267.00,2.88
4266.00,2.88
4265.00,2.87
4264.00,2.87
4263.00,2.86
4262.00,2.86
4261.00,2.85
4260.00,2.85
4259.00,2.84
4258.00,2.84
4257.00,2.84
4256.00,2.83
4255.00,2.83
4254.00,2.83
4253.00,2.83
4252.00,2.83
4251.00,2.83
4250.00,2.83
4249.00,2.83
4248.00,2.83
4247.00,2.84
4246.00,2.84
4245.00,2.84
4244.00,2.84
4243.00,2.84
4242.00,2.84
4241.00,2.84
4240.00,2.84
4239.00,2.84
4238.00,2.85
4237.00,2.85
4236.00,2.85
4235.00,2.86
4234.00,2.86
4233.00,2.86
4232.00,2.87
4231.00,2.87
4230.00,2.87
4229.00,2.88
4228.00,2.88
4227.00,2.88
4226.00,2.89
4225.00,2.89
4224.00,2.89
4223.00,2.89
4222.00,2.90
4221.00,2.90
4220.00,2.91
4219.00,2.91
4218.00,2.92
4217.00,2.92
4216.00,2.93
4215.00,2.93
4214.00,2.94
4213.00,2.94
4212.00,2.95
4211.00,2.95
4210.00,2.95
4209.00,2.96
4208.00,2.96
4207.00,2.96
4206.00,2.96
4205.00,2.96
4204.00,2.96
4203.00,2.96
4202.00,2.96
4201.00,2.96
4200.00,2.96
4199.00,2.96
4198.00,2.96
4197.00,2.95
4196.00,2.95
4195.00,2.95
4194.00,2.95
4193.00,2.94
4192.00,2.93
4191.00,2.93
4190.00,2.92
4189.00,2.91
4188.00,2.91
4187.00,2.90
4186.00,2.89
4185.00,2.88
4184.00,2.88
4183.00,2.87
4182.00,2.87
4181.00,2.86
4180.00,2.85
4179.00,2.85
4178.00,2.84
4177.00,2.83
4176.00,2.83
4175.00,2.82
4174.00,2.82
4173.00,2.81
4172.00,2.80
4171.00,2.80
4170.00,2.79
4169.00,2.79
4168.00,2.78
4167.00,2.78
4166.00,2.78
4165.00,2.77
4164.00,2.77
4163.00,2.77
4162.00,2.77
4161.00,2.77
4160.00,2.77
4159.00,2.76
4158.00,2.76
4157.00,2.76
4156.00,2.76
4155.00,2.76
4154.00,2.76
4153.00,2.76
4152.00,2.76
4151.00,2.76
4150.00,2.76
4149.00,2.76
4148.00,2.76
4147.00,2.77
4146.00,2.77
4145.00,2.77
4144.00,2.78
4143.00,2.78
4142.00,2.78
4141.00,2.79
4140.00,2.79
4139.00,2.79
4138.00,2.79
4137.00,2.79
4136.00,2.79
4135.00,2.79
4134.00,2.79
4133.00,2.79
4132.00,2.80
4131.00,2.80
4130.00,2.80
4129.00,2.81
4128.00,2.81
4127.00,2.81
4126.00,2.82
4125.00,2.82
4124.00,2.83
4123.00,2.83
4122.00,2.84
4121.00,2.84
4120.00,2.84
4119.00,2.84
4118.00,2.84
4117.00,2.84
4116.00,2.84
4115.00,2.84
4114.00,2.84
4113.00,2.85
4112.00,2.85
4111.00,2.85
4110.00,2.86
4109.00,2.86
4108.00,2.86
4107.00,2.86
4106.00,2.86
4105.00,2.86
4104.00,2.86
4103.00,2.86
4102.00,2.86
4101.00,2.86
4100.00,2.85
4099.00,2.85
4098.00,2.84
4097.00,2.83
4096.00,2.83
4095.00,2.82
4094.00,2.81
4093.00,2.81
4092.00,2.81
4091.00,2.80
4090.00,2.80
4089.00,2.80
4088.00,2.79
4087.00,2.79
4086.00,2.78
4085.00,2.78
4084.00,2.77
4083.00,2.76
4082.00,2.75
4081.00,2.74
4080.00,2.74
4079.00,2.73
4078.00,2.72
4077.00,2.71
4076.00,2.70
4075.00,2.70
4074.00,2.69
4073.00,2.69
4072.00,2.68
4071.00,2.67
4070.00,2.67
4069.00,2.66
4068.00,2.65
4067.00,2.65
4066.00,2.64
4065.00,2.64
4064.00,2.63
4063.00,2.63
4062.00,2.63
4061.00,2.62
4060.00,2.63
4059.00,2.63
4058.00,2.63
4057.00,2.64
4056.00,2.64
4055.00,2.65
4054.00,2.65
4053.00,2.66
4052.00,2.66
4051.00,2.67
4050.00,2.67
4049.00,2.68
4048.00,2.68
4047.00,2.69
4046.00,2.69
4045.00,2.70
4044.00,2.71
4043.00,2.72
4042.00,2.72
4041.00,2.73
4040.00,2.74
4039.00,2.74
4038.00,2.74
4037.00,2.75
4036.00,2.75
4035.00,2.75
4034.00,2.75
4033.00,2.74
4032.00,2.74
4031.00,2.73
4030.00,2.73
4029.00,2.72
4028.00,2.72
4027.00,2.71
4026.00,2.71
4025.00,2.71
4024.00,2.72
4023.00,2.72
4022.00,2.72
4021.00,2.73
4020.00,2.74
4019.00,2.74
4018.00,2.75
4017.00,2.76
4016.00,2.77
4015.00,2.78
4014.00,2.80
4013.00,2.81
4012.00,2.83
4011.00,2.85
4010.00,2.87
4009.00,2.90
4008.00,2.92
4007.00,2.95
4006.00,2.98
4005.00,3.01
4004.00,3.04
4003.00,3.07
4002.00,3.10
4001.00,3.14
4000.00,3.17
