创建为新数据集,样品 1123 用户 Administrator 日期 星期二, 七月 30 2019
cm-1,%T
10000.00,2.03
9999.00,2.01
9998.00,1.99
9997.00,1.97
9996.00,1.95
9995.00,1.93
9994.00,1.90
9993.00,1.88
9992.00,1.86
9991.00,1.84
9990.00,1.81
9989.00,1.79
9988.00,1.77
9987.00,1.75
9986.00,1.73
9985.00,1.71
9984.00,1.69
9983.00,1.68
9982.00,1.66
9981.00,1.64
9980.00,1.63
9979.00,1.61
9978.00,1.59
9977.00,1.57
9976.00,1.55
9975.00,1.53
9974.00,1.51
9973.00,1.49
9972.00,1.47
9971.00,1.46
9970.00,1.44
9969.00,1.43
9968.00,1.42
9967.00,1.41
9966.00,1.41
9965.00,1.40
9964.00,1.40
9963.00,1.40
9962.00,1.41
9961.00,1.41
9960.00,1.42
9959.00,1.42
9958.00,1.43
9957.00,1.44
9956.00,1.44
9955.00,1.45
9954.00,1.46
9953.00,1.47
9952.00,1.49
9951.00,1.50
9950.00,1.51
9949.00,1.53
9948.00,1.54
9947.00,1.55
9946.00,1.57
9945.00,1.58
9944.00,1.59
9943.00,1.60
9942.00,1.60
9941.00,1.60
9940.00,1.60
9939.00,1.60
9938.00,1.60
9937.00,1.59
9936.00,1.58
9935.00,1.57
9934.00,1.57
9933.00,1.56
9932.00,1.55
9931.00,1.54
9930.00,1.54
9929.00,1.53
9928.00,1.52
9927.00,1.51
9926.00,1.50
9925.00,1.49
9924.00,1.48
9923.00,1.47
9922.00,1.47
9921.00,1.46
9920.00,1.46
9919.00,1.46
9918.00,1.46
9917.00,1.46
9916.00,1.47
9915.00,1.48
9914.00,1.48
9913.00,1.49
9912.00,1.50
9911.00,1.51
9910.00,1.51
9909.00,1.52
9908.00,1.52
9907.00,1.52
9906.00,1.51
9905.00,1.51
9904.00,1.51
9903.00,1.51
9902.00,1.51
9901.00,1.50
9900.00,1.50
9899.00,1.51
9898.00,1.51
9897.00,1.51
9896.00,1.51
9895.00,1.51
9894.00,1.50
9893.00,1.50
9892.00,1.49
9891.00,1.48
9890.00,1.47
9889.00,1.46
9888.00,1.44
9887.00,1.43
9886.00,1.42
9885.00,1.41
9884.00,1.40
9883.00,1.40
9882.00,1.39
9881.00,1.39
9880.00,1.39
9879.00,1.39
9878.00,1.39
9877.00,1.39
9876.00,1.39
9875.00,1.39
9874.00,1.39
9873.00,1.38
9872.00,1.38
9871.00,1.38
9870.00,1.38
9869.00,1.38
9868.00,1.39
9867.00,1.39
9866.00,1.40
9865.00,1.41
9864.00,1.42
9863.00,1.43
9862.00,1.44
9861.00,1.45
9860.00,1.46
9859.00,1.47
9858.00,1.47
9857.00,1.48
9856.00,1.48
9855.00,1.48
9854.00,1.48
9853.00,1.48
9852.00,1.48
9851.00,1.48
9850.00,1.48
9849.00,1.48
9848.00,1.48
9847.00,1.48
9846.00,1.48
9845.00,1.48
9844.00,1.47
9843.00,1.46
9842.00,1.45
9841.00,1.45
9840.00,1.44
9839.00,1.43
9838.00,1.42
9837.00,1.41
9836.00,1.41
9835.00,1.40
9834.00,1.39
9833.00,1.39
9832.00,1.39
9831.00,1.38
9830.00,1.38
9829.00,1.38
9828.00,1.38
9827.00,1.38
9826.00,1.38
9825.00,1.38
9824.00,1.37
9823.00,1.37
9822.00,1.37
9821.00,1.36
9820.00,1.36
9819.00,1.35
9818.00,1.35
9817.00,1.34
9816.00,1.33
9815.00,1.32
9814.00,1.31
9813.00,1.30
9812.00,1.29
9811.00,1.27
9810.00,1.25
9809.00,1.24
9808.00,1.22
9807.00,1.20
9806.00,1.18
9805.00,1.16
9804.00,1.14
9803.00,1.12
9802.00,1.11
9801.00,1.09
9800.00,1.07
9799.00,1.06
9798.00,1.04
9797.00,1.03
9796.00,1.02
9795.00,1.00
9794.00,0.99
9793.00,0.99
9792.00,0.98
9791.00,0.97
9790.00,0.97
9789.00,0.97
9788.00,0.97
9787.00,0.98
9786.00,0.99
9785.00,1.00
9784.00,1.01
9783.00,1.03
9782.00,1.04
9781.00,1.05
9780.00,1.07
9779.00,1.08
9778.00,1.09
9777.00,1.11
9776.00,1.12
9775.00,1.13
9774.00,1.15
9773.00,1.16
9772.00,1.17
9771.00,1.19
9770.00,1.20
9769.00,1.22
9768.00,1.24
9767.00,1.25
9766.00,1.27
9765.00,1.28
9764.00,1.29
9763.00,1.30
9762.00,1.31
9761.00,1.31
9760.00,1.32
9759.00,1.32
9758.00,1.31
9757.00,1.31
9756.00,1.31
9755.00,1.30
9754.00,1.30
9753.00,1.29
9752.00,1.29
9751.00,1.28
9750.00,1.28
9749.00,1.27
9748.00,1.26
9747.00,1.25
9746.00,1.25
9745.00,1.24
9744.00,1.23
9743.00,1.22
9742.00,1.21
9741.00,1.21
9740.00,1.20
9739.00,1.20
9738.00,1.20
9737.00,1.20
9736.00,1.20
9735.00,1.21
9734.00,1.21
9733.00,1.22
9732.00,1.23
9731.00,1.24
9730.00,1.24
9729.00,1.25
9728.00,1.25
9727.00,1.26
9726.00,1.26
9725.00,1.27
9724.00,1.27
9723.00,1.28
9722.00,1.28
9721.00,1.29
9720.00,1.29
9719.00,1.30
9718.00,1.30
9717.00,1.31
9716.00,1.31
9715.00,1.31
9714.00,1.31
9713.00,1.30
9712.00,1.30
9711.00,1.29
9710.00,1.28
9709.00,1.27
9708.00,1.26
9707.00,1.25
9706.00,1.24
9705.00,1.23
9704.00,1.23
9703.00,1.22
9702.00,1.22
9701.00,1.22
9700.00,1.22
9699.00,1.22
9698.00,1.22
9697.00,1.22
9696.00,1.22
9695.00,1.23
9694.00,1.23
9693.00,1.23
9692.00,1.23
9691.00,1.24
9690.00,1.24
9689.00,1.24
9688.00,1.25
9687.00,1.25
9686.00,1.26
9685.00,1.26
9684.00,1.27
9683.00,1.27
9682.00,1.27
9681.00,1.27
9680.00,1.27
9679.00,1.27
9678.00,1.26
9677.00,1.25
9676.00,1.24
9675.00,1.23
9674.00,1.22
9673.00,1.20
9672.00,1.19
9671.00,1.17
9670.00,1.16
9669.00,1.14
9668.00,1.12
9667.00,1.11
9666.00,1.09
9665.00,1.08
9664.00,1.06
9663.00,1.05
9662.00,1.03
9661.00,1.02
9660.00,1.00
9659.00,0.99
9658.00,0.97
9657.00,0.96
9656.00,0.95
9655.00,0.95
9654.00,0.94
9653.00,0.94
9652.00,0.94
9651.00,0.94
9650.00,0.95
9649.00,0.95
9648.00,0.96
9647.00,0.97
9646.00,0.98
9645.00,0.99
9644.00,1.00
9643.00,1.00
9642.00,1.01
9641.00,1.02
9640.00,1.03
9639.00,1.04
9638.00,1.05
9637.00,1.06
9636.00,1.07
9635.00,1.08
9634.00,1.09
9633.00,1.10
9632.00,1.11
9631.00,1.12
9630.00,1.13
9629.00,1.13
9628.00,1.14
9627.00,1.14
9626.00,1.15
9625.00,1.15
9624.00,1.15
9623.00,1.15
9622.00,1.15
9621.00,1.15
9620.00,1.14
9619.00,1.14
9618.00,1.14
9617.00,1.14
9616.00,1.14
9615.00,1.15
9614.00,1.15
9613.00,1.15
9612.00,1.16
9611.00,1.16
9610.00,1.17
9609.00,1.18
9608.00,1.18
9607.00,1.19
9606.00,1.21
9605.00,1.22
9604.00,1.23
9603.00,1.25
9602.00,1.26
9601.00,1.27
9600.00,1.29
9599.00,1.30
9598.00,1.31
9597.00,1.33
9596.00,1.34
9595.00,1.36
9594.00,1.37
9593.00,1.39
9592.00,1.40
9591.00,1.42
9590.00,1.43
9589.00,1.44
9588.00,1.45
9587.00,1.46
9586.00,1.47
9585.00,1.48
9584.00,1.48
9583.00,1.48
9582.00,1.48
9581.00,1.48
9580.00,1.47
9579.00,1.47
9578.00,1.46
9577.00,1.44
9576.00,1.43
9575.00,1.42
9574.00,1.41
9573.00,1.39
9572.00,1.38
9571.00,1.37
9570.00,1.36
9569.00,1.35
9568.00,1.34
9567.00,1.33
9566.00,1.32
9565.00,1.31
9564.00,1.30
9563.00,1.28
9562.00,1.27
9561.00,1.26
9560.00,1.24
9559.00,1.23
9558.00,1.22
9557.00,1.20
9556.00,1.19
9555.00,1.18
9554.00,1.17
9553.00,1.16
9552.00,1.15
9551.00,1.14
9550.00,1.14
9549.00,1.13
9548.00,1.13
9547.00,1.12
9546.00,1.11
9545.00,1.11
9544.00,1.10
9543.00,1.09
9542.00,1.08
9541.00,1.07
9540.00,1.05
9539.00,1.04
9538.00,1.03
9537.00,1.02
9536.00,1.02
9535.00,1.01
9534.00,1.01
9533.00,1.00
9532.00,1.00
9531.00,1.00
9530.00,1.00
9529.00,1.00
9528.00,1.01
9527.00,1.02
9526.00,1.02
9525.00,1.03
9524.00,1.04
9523.00,1.06
9522.00,1.07
9521.00,1.08
9520.00,1.10
9519.00,1.11
9518.00,1.13
9517.00,1.15
9516.00,1.17
9515.00,1.19
9514.00,1.22
9513.00,1.24
9512.00,1.26
9511.00,1.29
9510.00,1.31
9509.00,1.33
9508.00,1.36
9507.00,1.38
9506.00,1.40
9505.00,1.42
9504.00,1.44
9503.00,1.46
9502.00,1.47
9501.00,1.49
9500.00,1.50
9499.00,1.50
9498.00,1.51
9497.00,1.51
9496.00,1.51
9495.00,1.50
9494.00,1.49
9493.00,1.48
9492.00,1.47
9491.00,1.46
9490.00,1.45
9489.00,1.44
9488.00,1.42
9487.00,1.41
9486.00,1.40
9485.00,1.38
9484.00,1.37
9483.00,1.35
9482.00,1.34
9481.00,1.32
9480.00,1.31
9479.00,1.30
9478.00,1.29
9477.00,1.28
9476.00,1.28
9475.00,1.27
9474.00,1.27
9473.00,1.27
9472.00,1.27
9471.00,1.27
9470.00,1.27
9469.00,1.27
9468.00,1.28
9467.00,1.29
9466.00,1.30
9465.00,1.31
9464.00,1.32
9463.00,1.33
9462.00,1.34
9461.00,1.35
9460.00,1.36
9459.00,1.37
9458.00,1.37
9457.00,1.37
9456.00,1.38
9455.00,1.38
9454.00,1.38
9453.00,1.37
9452.00,1.37
9451.00,1.36
9450.00,1.36
9449.00,1.35
9448.00,1.34
9447.00,1.33
9446.00,1.32
9445.00,1.31
9444.00,1.31
9443.00,1.30
9442.00,1.30
9441.00,1.30
9440.00,1.29
9439.00,1.29
9438.00,1.29
9437.00,1.29
9436.00,1.29
9435.00,1.29
9434.00,1.29
9433.00,1.29
9432.00,1.30
9431.00,1.31
9430.00,1.32
9429.00,1.33
9428.00,1.34
9427.00,1.35
9426.00,1.36
9425.00,1.37
9424.00,1.39
9423.00,1.40
9422.00,1.42
9421.00,1.44
9420.00,1.46
9419.00,1.47
9418.00,1.49
9417.00,1.50
9416.00,1.52
9415.00,1.53
9414.00,1.55
9413.00,1.56
9412.00,1.56
9411.00,1.57
9410.00,1.58
9409.00,1.58
9408.00,1.59
9407.00,1.59
9406.00,1.60
9405.00,1.60
9404.00,1.60
9403.00,1.60
9402.00,1.60
9401.00,1.60
9400.00,1.60
9399.00,1.59
9398.00,1.59
9397.00,1.58
9396.00,1.57
9395.00,1.56
9394.00,1.55
9393.00,1.53
9392.00,1.52
9391.00,1.50
9390.00,1.49
9389.00,1.47
9388.00,1.45
9387.00,1.43
9386.00,1.41
9385.00,1.39
9384.00,1.37
9383.00,1.34
9382.00,1.32
9381.00,1.30
9380.00,1.28
9379.00,1.26
9378.00,1.24
9377.00,1.22
9376.00,1.20
9375.00,1.19
9374.00,1.17
9373.00,1.15
9372.00,1.14
9371.00,1.12
9370.00,1.11
9369.00,1.10
9368.00,1.09
9367.00,1.08
9366.00,1.07
9365.00,1.07
9364.00,1.06
9363.00,1.05
9362.00,1.05
9361.00,1.05
9360.00,1.05
9359.00,1.05
9358.00,1.05
9357.00,1.05
9356.00,1.05
9355.00,1.06
9354.00,1.06
9353.00,1.07
9352.00,1.07
9351.00,1.07
9350.00,1.08
9349.00,1.08
9348.00,1.08
9347.00,1.09
9346.00,1.09
9345.00,1.09
9344.00,1.09
9343.00,1.09
9342.00,1.09
9341.00,1.10
9340.00,1.10
9339.00,1.10
9338.00,1.10
9337.00,1.11
9336.00,1.11
9335.00,1.11
9334.00,1.12
9333.00,1.12
9332.00,1.12
9331.00,1.13
9330.00,1.13
9329.00,1.14
9328.00,1.14
9327.00,1.15
9326.00,1.16
9325.00,1.16
9324.00,1.17
9323.00,1.18
9322.00,1.19
9321.00,1.20
9320.00,1.21
9319.00,1.21
9318.00,1.22
9317.00,1.23
9316.00,1.24
9315.00,1.25
9314.00,1.26
9313.00,1.26
9312.00,1.27
9311.00,1.28
9310.00,1.29
9309.00,1.29
9308.00,1.30
9307.00,1.30
9306.00,1.30
9305.00,1.30
9304.00,1.30
9303.00,1.30
9302.00,1.30
9301.00,1.29
9300.00,1.28
9299.00,1.27
9298.00,1.26
9297.00,1.25
9296.00,1.24
9295.00,1.23
9294.00,1.22
9293.00,1.20
9292.00,1.19
9291.00,1.18
9290.00,1.17
9289.00,1.16
9288.00,1.15
9287.00,1.15
9286.00,1.14
9285.00,1.14
9284.00,1.13
9283.00,1.13
9282.00,1.12
9281.00,1.12
9280.00,1.12
9279.00,1.12
9278.00,1.12
9277.00,1.12
9276.00,1.12
9275.00,1.13
9274.00,1.14
9273.00,1.15
9272.00,1.16
9271.00,1.17
9270.00,1.19
9269.00,1.20
9268.00,1.22
9267.00,1.23
9266.00,1.24
9265.00,1.25
9264.00,1.26
9263.00,1.27
9262.00,1.28
9261.00,1.28
9260.00,1.29
9259.00,1.29
9258.00,1.30
9257.00,1.30
9256.00,1.30
9255.00,1.31
9254.00,1.31
9253.00,1.31
9252.00,1.31
9251.00,1.32
9250.00,1.32
9249.00,1.31
9248.00,1.31
9247.00,1.30
9246.00,1.30
9245.00,1.29
9244.00,1.28
9243.00,1.27
9242.00,1.25
9241.00,1.24
9240.00,1.24
9239.00,1.23
9238.00,1.22
9237.00,1.21
9236.00,1.20
9235.00,1.19
9234.00,1.18
9233.00,1.17
9232.00,1.16
9231.00,1.14
9230.00,1.13
9229.00,1.11
9228.00,1.09
9227.00,1.07
9226.00,1.05
9225.00,1.03
9224.00,1.01
9223.00,0.99
9222.00,0.97
9221.00,0.95
9220.00,0.94
9219.00,0.92
9218.00,0.91
9217.00,0.90
9216.00,0.89
9215.00,0.88
9214.00,0.87
9213.00,0.87
9212.00,0.86
9211.00,0.85
9210.00,0.85
9209.00,0.85
9208.00,0.84
9207.00,0.84
9206.00,0.84
9205.00,0.85
9204.00,0.85
9203.00,0.86
9202.00,0.87
9201.00,0.89
9200.00,0.90
9199.00,0.92
9198.00,0.93
9197.00,0.95
9196.00,0.96
9195.00,0.98
9194.00,0.99
9193.00,1.01
9192.00,1.02
9191.00,1.03
9190.00,1.04
9189.00,1.04
9188.00,1.05
9187.00,1.06
9186.00,1.06
9185.00,1.07
9184.00,1.07
9183.00,1.08
9182.00,1.08
9181.00,1.09
9180.00,1.09
9179.00,1.10
9178.00,1.10
9177.00,1.10
9176.00,1.11
9175.00,1.11
9174.00,1.10
9173.00,1.10
9172.00,1.10
9171.00,1.10
9170.00,1.09
9169.00,1.09
9168.00,1.09
9167.00,1.09
9166.00,1.08
9165.00,1.08
9164.00,1.08
9163.00,1.09
9162.00,1.09
9161.00,1.09
9160.00,1.09
9159.00,1.09
9158.00,1.09
9157.00,1.09
9156.00,1.09
9155.00,1.10
9154.00,1.10
9153.00,1.10
9152.00,1.10
9151.00,1.10
9150.00,1.10
9149.00,1.10
9148.00,1.10
9147.00,1.10
9146.00,1.10
9145.00,1.10
9144.00,1.10
9143.00,1.09
9142.00,1.09
9141.00,1.09
9140.00,1.08
9139.00,1.08
9138.00,1.07
9137.00,1.07
9136.00,1.06
9135.00,1.06
9134.00,1.06
9133.00,1.06
9132.00,1.05
9131.00,1.05
9130.00,1.05
9129.00,1.04
9128.00,1.04
9127.00,1.03
9126.00,1.03
9125.00,1.02
9124.00,1.02
9123.00,1.02
9122.00,1.02
9121.00,1.02
9120.00,1.02
9119.00,1.02
9118.00,1.03
9117.00,1.03
9116.00,1.04
9115.00,1.05
9114.00,1.06
9113.00,1.06
9112.00,1.07
9111.00,1.08
9110.00,1.08
9109.00,1.09
9108.00,1.09
9107.00,1.09
9106.00,1.09
9105.00,1.09
9104.00,1.09
9103.00,1.09
9102.00,1.09
9101.00,1.09
9100.00,1.09
9099.00,1.09
9098.00,1.09
9097.00,1.09
9096.00,1.09
9095.00,1.08
9094.00,1.08
9093.00,1.07
9092.00,1.05
9091.00,1.04
9090.00,1.02
9089.00,1.01
9088.00,0.99
9087.00,0.97
9086.00,0.95
9085.00,0.93
9084.00,0.92
9083.00,0.90
9082.00,0.89
9081.00,0.88
9080.00,0.87
9079.00,0.86
9078.00,0.85
9077.00,0.85
9076.00,0.84
9075.00,0.84
9074.00,0.83
9073.00,0.83
9072.00,0.83
9071.00,0.82
9070.00,0.82
9069.00,0.82
9068.00,0.83
9067.00,0.83
9066.00,0.84
9065.00,0.85
9064.00,0.86
9063.00,0.88
9062.00,0.90
9061.00,0.91
9060.00,0.93
9059.00,0.96
9058.00,0.98
9057.00,1.00
9056.00,1.03
9055.00,1.05
9054.00,1.07
9053.00,1.09
9052.00,1.11
9051.00,1.13
9050.00,1.15
9049.00,1.16
9048.00,1.17
9047.00,1.18
9046.00,1.19
9045.00,1.20
9044.00,1.21
9043.00,1.22
9042.00,1.22
9041.00,1.22
9040.00,1.23
9039.00,1.23
9038.00,1.23
9037.00,1.23
9036.00,1.23
9035.00,1.23
9034.00,1.23
9033.00,1.22
9032.00,1.21
9031.00,1.20
9030.00,1.19
9029.00,1.18
9028.00,1.16
9027.00,1.15
9026.00,1.14
9025.00,1.12
9024.00,1.11
9023.00,1.10
9022.00,1.09
9021.00,1.08
9020.00,1.08
9019.00,1.07
9018.00,1.07
9017.00,1.07
9016.00,1.07
9015.00,1.06
9014.00,1.06
9013.00,1.06
9012.00,1.06
9011.00,1.06
9010.00,1.06
9009.00,1.07
9008.00,1.07
9007.00,1.07
9006.00,1.07
9005.00,1.08
9004.00,1.08
9003.00,1.09
9002.00,1.09
9001.00,1.10
9000.00,1.10
8999.00,1.11
8998.00,1.11
8997.00,1.12
8996.00,1.12
8995.00,1.12
8994.00,1.12
8993.00,1.12
8992.00,1.12
8991.00,1.12
8990.00,1.12
8989.00,1.12
8988.00,1.12
8987.00,1.11
8986.00,1.11
8985.00,1.11
8984.00,1.10
8983.00,1.10
8982.00,1.09
8981.00,1.08
8980.00,1.08
8979.00,1.07
8978.00,1.07
8977.00,1.07
8976.00,1.06
8975.00,1.06
8974.00,1.07
8973.00,1.07
8972.00,1.08
8971.00,1.08
8970.00,1.09
8969.00,1.10
8968.00,1.11
8967.00,1.12
8966.00,1.13
8965.00,1.14
8964.00,1.14
8963.00,1.15
8962.00,1.16
8961.00,1.16
8960.00,1.16
8959.00,1.17
8958.00,1.17
8957.00,1.17
8956.00,1.17
8955.00,1.18
8954.00,1.18
8953.00,1.18
8952.00,1.19
8951.00,1.19
8950.00,1.19
8949.00,1.19
8948.00,1.19
8947.00,1.20
8946.00,1.20
8945.00,1.20
8944.00,1.20
8943.00,1.19
8942.00,1.19
8941.00,1.19
8940.00,1.18
8939.00,1.18
8938.00,1.17
8937.00,1.17
8936.00,1.17
8935.00,1.16
8934.00,1.16
8933.00,1.16
8932.00,1.16
8931.00,1.16
8930.00,1.16
8929.00,1.17
8928.00,1.17
8927.00,1.17
8926.00,1.16
8925.00,1.16
8924.00,1.15
8923.00,1.14
8922.00,1.13
8921.00,1.12
8920.00,1.11
8919.00,1.09
8918.00,1.07
8917.00,1.06
8916.00,1.04
8915.00,1.03
8914.00,1.02
8913.00,1.01
8912.00,1.01
8911.00,1.00
8910.00,1.00
8909.00,1.01
8908.00,1.01
8907.00,1.02
8906.00,1.03
8905.00,1.04
8904.00,1.05
8903.00,1.06
8902.00,1.08
8901.00,1.09
8900.00,1.11
8899.00,1.13
8898.00,1.15
8897.00,1.17
8896.00,1.20
8895.00,1.22
8894.00,1.25
8893.00,1.28
8892.00,1.31
8891.00,1.34
8890.00,1.37
8889.00,1.40
8888.00,1.43
8887.00,1.45
8886.00,1.47
8885.00,1.49
8884.00,1.51
8883.00,1.52
8882.00,1.53
8881.00,1.54
8880.00,1.54
8879.00,1.54
8878.00,1.54
8877.00,1.53
8876.00,1.53
8875.00,1.52
8874.00,1.51
8873.00,1.50
8872.00,1.48
8871.00,1.47
8870.00,1.46
8869.00,1.44
8868.00,1.43
8867.00,1.41
8866.00,1.39
8865.00,1.38
8864.00,1.36
8863.00,1.34
8862.00,1.31
8861.00,1.29
8860.00,1.27
8859.00,1.24
8858.00,1.21
8857.00,1.19
8856.00,1.16
8855.00,1.14
8854.00,1.11
8853.00,1.08
8852.00,1.06
8851.00,1.03
8850.00,1.01
8849.00,0.98
8848.00,0.96
8847.00,0.94
8846.00,0.92
8845.00,0.90
8844.00,0.88
8843.00,0.86
8842.00,0.84
8841.00,0.83
8840.00,0.81
8839.00,0.79
8838.00,0.78
8837.00,0.76
8836.00,0.75
8835.00,0.74
8834.00,0.73
8833.00,0.72
8832.00,0.72
8831.00,0.72
8830.00,0.72
8829.00,0.72
8828.00,0.72
8827.00,0.73
8826.00,0.74
8825.00,0.75
8824.00,0.76
8823.00,0.77
8822.00,0.78
8821.00,0.79
8820.00,0.80
8819.00,0.81
8818.00,0.81
8817.00,0.82
8816.00,0.82
8815.00,0.82
8814.00,0.82
8813.00,0.82
8812.00,0.82
8811.00,0.82
8810.00,0.82
8809.00,0.82
8808.00,0.82
8807.00,0.82
8806.00,0.83
8805.00,0.83
8804.00,0.83
8803.00,0.82
8802.00,0.82
8801.00,0.82
8800.00,0.81
8799.00,0.81
8798.00,0.80
8797.00,0.79
8796.00,0.79
8795.00,0.78
8794.00,0.77
8793.00,0.77
8792.00,0.77
8791.00,0.76
8790.00,0.77
8789.00,0.77
8788.00,0.78
8787.00,0.78
8786.00,0.79
8785.00,0.80
8784.00,0.81
8783.00,0.81
8782.00,0.82
8781.00,0.82
8780.00,0.83
8779.00,0.83
8778.00,0.84
8777.00,0.84
8776.00,0.84
8775.00,0.85
8774.00,0.85
8773.00,0.86
8772.00,0.86
8771.00,0.87
8770.00,0.87
8769.00,0.88
8768.00,0.89
8767.00,0.90
8766.00,0.91
8765.00,0.92
8764.00,0.94
8763.00,0.95
8762.00,0.96
8761.00,0.97
8760.00,0.98
8759.00,0.99
8758.00,1.00
8757.00,1.02
8756.00,1.03
8755.00,1.04
8754.00,1.06
8753.00,1.07
8752.00,1.09
8751.00,1.11
8750.00,1.12
8749.00,1.14
8748.00,1.16
8747.00,1.18
8746.00,1.20
8745.00,1.22
8744.00,1.24
8743.00,1.26
8742.00,1.27
8741.00,1.28
8740.00,1.29
8739.00,1.30
8738.00,1.30
8737.00,1.30
8736.00,1.30
8735.00,1.30
8734.00,1.29
8733.00,1.29
8732.00,1.28
8731.00,1.27
8730.00,1.26
8729.00,1.25
8728.00,1.24
8727.00,1.22
8726.00,1.20
8725.00,1.18
8724.00,1.16
8723.00,1.14
8722.00,1.11
8721.00,1.08
8720.00,1.05
8719.00,1.03
8718.00,1.00
8717.00,0.97
8716.00,0.95
8715.00,0.93
8714.00,0.91
8713.00,0.90
8712.00,0.88
8711.00,0.87
8710.00,0.86
8709.00,0.86
8708.00,0.85
8707.00,0.85
8706.00,0.85
8705.00,0.85
8704.00,0.85
8703.00,0.86
8702.00,0.87
8701.00,0.87
8700.00,0.89
8699.00,0.90
8698.00,0.91
8697.00,0.93
8696.00,0.95
8695.00,0.97
8694.00,1.00
8693.00,1.02
8692.00,1.04
8691.00,1.07
8690.00,1.09
8689.00,1.11
8688.00,1.13
8687.00,1.15
8686.00,1.17
8685.00,1.19
8684.00,1.20
8683.00,1.22
8682.00,1.23
8681.00,1.24
8680.00,1.25
8679.00,1.25
8678.00,1.26
8677.00,1.26
8676.00,1.26
8675.00,1.26
8674.00,1.26
8673.00,1.26
8672.00,1.25
8671.00,1.25
8670.00,1.24
8669.00,1.23
8668.00,1.22
8667.00,1.21
8666.00,1.20
8665.00,1.19
8664.00,1.18
8663.00,1.16
8662.00,1.15
8661.00,1.13
8660.00,1.12
8659.00,1.10
8658.00,1.09
8657.00,1.07
8656.00,1.05
8655.00,1.04
8654.00,1.02
8653.00,1.00
8652.00,0.99
8651.00,0.97
8650.00,0.96
8649.00,0.95
8648.00,0.94
8647.00,0.93
8646.00,0.91
8645.00,0.90
8644.00,0.89
8643.00,0.88
8642.00,0.87
8641.00,0.86
8640.00,0.85
8639.00,0.84
8638.00,0.84
8637.00,0.83
8636.00,0.82
8635.00,0.82
8634.00,0.81
8633.00,0.81
8632.00,0.81
8631.00,0.81
8630.00,0.81
8629.00,0.81
8628.00,0.82
8627.00,0.83
8626.00,0.84
8625.00,0.85
8624.00,0.86
8623.00,0.87
8622.00,0.88
8621.00,0.90
8620.00,0.91
8619.00,0.93
8618.00,0.94
8617.00,0.96
8616.00,0.97
8615.00,0.99
8614.00,1.01
8613.00,1.02
8612.00,1.04
8611.00,1.05
8610.00,1.06
8609.00,1.08
8608.00,1.09
8607.00,1.10
8606.00,1.10
8605.00,1.11
8604.00,1.12
8603.00,1.12
8602.00,1.13
8601.00,1.13
8600.00,1.13
8599.00,1.13
8598.00,1.13
8597.00,1.12
8596.00,1.11
8595.00,1.11
8594.00,1.10
8593.00,1.09
8592.00,1.09
8591.00,1.08
8590.00,1.08
8589.00,1.07
8588.00,1.07
8587.00,1.07
8586.00,1.07
8585.00,1.07
8584.00,1.07
8583.00,1.08
8582.00,1.08
8581.00,1.09
8580.00,1.10
8579.00,1.11
8578.00,1.12
8577.00,1.13
8576.00,1.14
8575.00,1.15
8574.00,1.16
8573.00,1.17
8572.00,1.19
8571.00,1.20
8570.00,1.22
8569.00,1.23
8568.00,1.25
8567.00,1.27
8566.00,1.28
8565.00,1.29
8564.00,1.30
8563.00,1.31
8562.00,1.31
8561.00,1.32
8560.00,1.32
8559.00,1.32
8558.00,1.32
8557.00,1.32
8556.00,1.32
8555.00,1.32
8554.00,1.32
8553.00,1.32
8552.00,1.32
8551.00,1.31
8550.00,1.31
8549.00,1.30
8548.00,1.30
8547.00,1.29
8546.00,1.28
8545.00,1.27
8544.00,1.26
8543.00,1.25
8542.00,1.23
8541.00,1.22
8540.00,1.21
8539.00,1.19
8538.00,1.18
8537.00,1.17
8536.00,1.16
8535.00,1.15
8534.00,1.14
8533.00,1.13
8532.00,1.12
8531.00,1.11
8530.00,1.10
8529.00,1.09
8528.00,1.08
8527.00,1.07
8526.00,1.06
8525.00,1.05
8524.00,1.04
8523.00,1.04
8522.00,1.03
8521.00,1.03
8520.00,1.03
8519.00,1.03
8518.00,1.03
8517.00,1.04
8516.00,1.05
8515.00,1.06
8514.00,1.07
8513.00,1.08
8512.00,1.09
8511.00,1.11
8510.00,1.12
8509.00,1.13
8508.00,1.14
8507.00,1.16
8506.00,1.17
8505.00,1.18
8504.00,1.19
8503.00,1.21
8502.00,1.22
8501.00,1.23
8500.00,1.25
8499.00,1.26
8498.00,1.27
8497.00,1.29
8496.00,1.30
8495.00,1.31
8494.00,1.31
8493.00,1.32
8492.00,1.32
8491.00,1.32
8490.00,1.32
8489.00,1.31
8488.00,1.31
8487.00,1.31
8486.00,1.30
8485.00,1.29
8484.00,1.29
8483.00,1.28
8482.00,1.28
8481.00,1.27
8480.00,1.27
8479.00,1.26
8478.00,1.26
8477.00,1.26
8476.00,1.25
8475.00,1.25
8474.00,1.25
8473.00,1.25
8472.00,1.24
8471.00,1.24
8470.00,1.24
8469.00,1.24
8468.00,1.24
8467.00,1.24
8466.00,1.25
8465.00,1.25
8464.00,1.26
8463.00,1.26
8462.00,1.27
8461.00,1.28
8460.00,1.29
8459.00,1.30
8458.00,1.31
8457.00,1.32
8456.00,1.33
8455.00,1.34
8454.00,1.35
8453.00,1.36
8452.00,1.37
8451.00,1.37
8450.00,1.38
8449.00,1.38
8448.00,1.39
8447.00,1.39
8446.00,1.39
8445.00,1.38
8444.00,1.38
8443.00,1.38
8442.00,1.37
8441.00,1.37
8440.00,1.36
8439.00,1.36
8438.00,1.35
8437.00,1.35
8436.00,1.34
8435.00,1.33
8434.00,1.32
8433.00,1.31
8432.00,1.30
8431.00,1.29
8430.00,1.27
8429.00,1.26
8428.00,1.24
8427.00,1.23
8426.00,1.21
8425.00,1.20
8424.00,1.18
8423.00,1.17
8422.00,1.16
8421.00,1.15
8420.00,1.15
8419.00,1.14
8418.00,1.14
8417.00,1.14
8416.00,1.13
8415.00,1.13
8414.00,1.13
8413.00,1.13
8412.00,1.13
8411.00,1.13
8410.00,1.12
8409.00,1.12
8408.00,1.12
8407.00,1.12
8406.00,1.12
8405.00,1.12
8404.00,1.12
8403.00,1.12
8402.00,1.12
8401.00,1.12
8400.00,1.12
8399.00,1.12
8398.00,1.12
8397.00,1.12
8396.00,1.12
8395.00,1.12
8394.00,1.12
8393.00,1.11
8392.00,1.11
8391.00,1.11
8390.00,1.10
8389.00,1.10
8388.00,1.10
8387.00,1.10
8386.00,1.10
8385.00,1.10
8384.00,1.10
8383.00,1.10
8382.00,1.10
8381.00,1.10
8380.00,1.11
8379.00,1.11
8378.00,1.11
8377.00,1.12
8376.00,1.13
8375.00,1.13
8374.00,1.14
8373.00,1.15
8372.00,1.17
8371.00,1.18
8370.00,1.19
8369.00,1.21
8368.00,1.22
8367.00,1.23
8366.00,1.24
8365.00,1.26
8364.00,1.27
8363.00,1.28
8362.00,1.28
8361.00,1.29
8360.00,1.30
8359.00,1.31
8358.00,1.31
8357.00,1.32
8356.00,1.33
8355.00,1.33
8354.00,1.33
8353.00,1.34
8352.00,1.34
8351.00,1.34
8350.00,1.33
8349.00,1.33
8348.00,1.32
8347.00,1.31
8346.00,1.30
8345.00,1.29
8344.00,1.27
8343.00,1.26
8342.00,1.24
8341.00,1.23
8340.00,1.22
8339.00,1.20
8338.00,1.19
8337.00,1.18
8336.00,1.16
8335.00,1.15
8334.00,1.14
8333.00,1.13
8332.00,1.11
8331.00,1.10
8330.00,1.09
8329.00,1.08
8328.00,1.06
8327.00,1.05
8326.00,1.04
8325.00,1.03
8324.00,1.02
8323.00,1.01
8322.00,1.01
8321.00,1.01
8320.00,1.00
8319.00,1.00
8318.00,1.00
8317.00,1.00
8316.00,0.99
8315.00,0.99
8314.00,0.99
8313.00,0.99
8312.00,0.99
8311.00,0.99
8310.00,0.98
8309.00,0.98
8308.00,0.98
8307.00,0.98
8306.00,0.98
8305.00,0.98
8304.00,0.98
8303.00,0.99
8302.00,0.99
8301.00,1.00
8300.00,1.00
8299.00,1.01
8298.00,1.02
8297.00,1.02
8296.00,1.03
8295.00,1.04
8294.00,1.05
8293.00,1.06
8292.00,1.07
8291.00,1.08
8290.00,1.09
8289.00,1.09
8288.00,1.10
8287.00,1.11
8286.00,1.11
8285.00,1.12
8284.00,1.12
8283.00,1.12
8282.00,1.12
8281.00,1.12
8280.00,1.13
8279.00,1.13
8278.00,1.13
8277.00,1.13
8276.00,1.13
8275.00,1.13
8274.00,1.13
8273.00,1.13
8272.00,1.12
8271.00,1.11
8270.00,1.11
8269.00,1.10
8268.00,1.09
8267.00,1.08
8266.00,1.07
8265.00,1.06
8264.00,1.05
8263.00,1.04
8262.00,1.04
8261.00,1.04
8260.00,1.03
8259.00,1.03
8258.00,1.04
8257.00,1.04
8256.00,1.04
8255.00,1.04
8254.00,1.05
8253.00,1.05
8252.00,1.06
8251.00,1.06
8250.00,1.07
8249.00,1.07
8248.00,1.08
8247.00,1.09
8246.00,1.10
8245.00,1.11
8244.00,1.12
8243.00,1.14
8242.00,1.15
8241.00,1.16
8240.00,1.18
8239.00,1.19
8238.00,1.20
8237.00,1.21
8236.00,1.22
8235.00,1.23
8234.00,1.24
8233.00,1.25
8232.00,1.26
8231.00,1.26
8230.00,1.27
8229.00,1.28
8228.00,1.29
8227.00,1.29
8226.00,1.29
8225.00,1.29
8224.00,1.29
8223.00,1.28
8222.00,1.28
8221.00,1.27
8220.00,1.26
8219.00,1.25
8218.00,1.24
8217.00,1.23
8216.00,1.21
8215.00,1.20
8214.00,1.18
8213.00,1.17
8212.00,1.15
8211.00,1.14
8210.00,1.12
8209.00,1.10
8208.00,1.09
8207.00,1.07
8206.00,1.05
8205.00,1.03
8204.00,1.01
8203.00,0.99
8202.00,0.98
8201.00,0.96
8200.00,0.95
8199.00,0.94
8198.00,0.93
8197.00,0.92
8196.00,0.92
8195.00,0.91
8194.00,0.91
8193.00,0.90
8192.00,0.90
8191.00,0.89
8190.00,0.89
8189.00,0.89
8188.00,0.89
8187.00,0.89
8186.00,0.89
8185.00,0.89
8184.00,0.90
8183.00,0.90
8182.00,0.91
8181.00,0.91
8180.00,0.92
8179.00,0.92
8178.00,0.93
8177.00,0.93
8176.00,0.94
8175.00,0.94
8174.00,0.94
8173.00,0.95
8172.00,0.95
8171.00,0.96
8170.00,0.96
8169.00,0.97
8168.00,0.98
8167.00,0.99
8166.00,1.01
8165.00,1.02
8164.00,1.04
8163.00,1.05
8162.00,1.07
8161.00,1.08
8160.00,1.10
8159.00,1.12
8158.00,1.14
8157.00,1.15
8156.00,1.17
8155.00,1.19
8154.00,1.21
8153.00,1.24
8152.00,1.26
8151.00,1.28
8150.00,1.30
8149.00,1.32
8148.00,1.34
8147.00,1.35
8146.00,1.37
8145.00,1.38
8144.00,1.38
8143.00,1.39
8142.00,1.39
8141.00,1.39
8140.00,1.38
8139.00,1.37
8138.00,1.37
8137.00,1.35
8136.00,1.34
8135.00,1.33
8134.00,1.31
8133.00,1.30
8132.00,1.28
8131.00,1.26
8130.00,1.24
8129.00,1.22
8128.00,1.20
8127.00,1.18
8126.00,1.16
8125.00,1.14
8124.00,1.12
8123.00,1.10
8122.00,1.08
8121.00,1.06
8120.00,1.04
8119.00,1.03
8118.00,1.02
8117.00,1.01
8116.00,1.00
8115.00,1.00
8114.00,1.01
8113.00,1.01
8112.00,1.01
8111.00,1.02
8110.00,1.03
8109.00,1.04
8108.00,1.05
8107.00,1.06
8106.00,1.07
8105.00,1.07
8104.00,1.08
8103.00,1.09
8102.00,1.10
8101.00,1.10
8100.00,1.11
8099.00,1.11
8098.00,1.12
8097.00,1.12
8096.00,1.13
8095.00,1.14
8094.00,1.15
8093.00,1.15
8092.00,1.16
8091.00,1.17
8090.00,1.17
8089.00,1.18
8088.00,1.18
8087.00,1.18
8086.00,1.18
8085.00,1.17
8084.00,1.17
8083.00,1.17
8082.00,1.17
8081.00,1.17
8080.00,1.17
8079.00,1.18
8078.00,1.18
8077.00,1.19
8076.00,1.19
8075.00,1.20
8074.00,1.21
8073.00,1.22
8072.00,1.24
8071.00,1.25
8070.00,1.26
8069.00,1.26
8068.00,1.27
8067.00,1.28
8066.00,1.29
8065.00,1.29
8064.00,1.30
8063.00,1.30
8062.00,1.31
8061.00,1.32
8060.00,1.32
8059.00,1.33
8058.00,1.33
8057.00,1.34
8056.00,1.34
8055.00,1.35
8054.00,1.35
8053.00,1.35
8052.00,1.35
8051.00,1.35
8050.00,1.34
8049.00,1.34
8048.00,1.34
8047.00,1.33
8046.00,1.33
8045.00,1.32
8044.00,1.32
8043.00,1.32
8042.00,1.31
8041.00,1.31
8040.00,1.30
8039.00,1.29
8038.00,1.29
8037.00,1.28
8036.00,1.27
8035.00,1.26
8034.00,1.26
8033.00,1.25
8032.00,1.24
8031.00,1.24
8030.00,1.23
8029.00,1.23
8028.00,1.22
8027.00,1.22
8026.00,1.21
8025.00,1.21
8024.00,1.20
8023.00,1.20
8022.00,1.19
8021.00,1.19
8020.00,1.18
8019.00,1.18
8018.00,1.17
8017.00,1.17
8016.00,1.17
8015.00,1.16
8014.00,1.16
8013.00,1.17
8012.00,1.17
8011.00,1.18
8010.00,1.19
8009.00,1.19
8008.00,1.20
8007.00,1.21
8006.00,1.23
8005.00,1.24
8004.00,1.25
8003.00,1.26
8002.00,1.27
8001.00,1.29
8000.00,1.30
7999.00,1.32
7998.00,1.33
7997.00,1.35
7996.00,1.36
7995.00,1.38
7994.00,1.40
7993.00,1.42
7992.00,1.43
7991.00,1.45
7990.00,1.46
7989.00,1.47
7988.00,1.48
7987.00,1.49
7986.00,1.49
7985.00,1.49
7984.00,1.49
7983.00,1.49
7982.00,1.49
7981.00,1.49
7980.00,1.49
7979.00,1.49
7978.00,1.48
7977.00,1.48
7976.00,1.47
7975.00,1.46
7974.00,1.46
7973.00,1.45
7972.00,1.44
7971.00,1.43
7970.00,1.41
7969.00,1.40
7968.00,1.38
7967.00,1.36
7966.00,1.35
7965.00,1.33
7964.00,1.32
7963.00,1.30
7962.00,1.29
7961.00,1.28
7960.00,1.27
7959.00,1.26
7958.00,1.26
7957.00,1.25
7956.00,1.24
7955.00,1.24
7954.00,1.23
7953.00,1.23
7952.00,1.22
7951.00,1.22
7950.00,1.22
7949.00,1.21
7948.00,1.21
7947.00,1.21
7946.00,1.21
7945.00,1.21
7944.00,1.21
7943.00,1.22
7942.00,1.22
7941.00,1.23
7940.00,1.24
7939.00,1.26
7938.00,1.27
7937.00,1.28
7936.00,1.29
7935.00,1.31
7934.00,1.32
7933.00,1.33
7932.00,1.34
7931.00,1.35
7930.00,1.35
7929.00,1.36
7928.00,1.37
7927.00,1.37
7926.00,1.38
7925.00,1.38
7924.00,1.38
7923.00,1.38
7922.00,1.38
7921.00,1.38
7920.00,1.37
7919.00,1.37
7918.00,1.37
7917.00,1.37
7916.00,1.36
7915.00,1.35
7914.00,1.34
7913.00,1.33
7912.00,1.32
7911.00,1.30
7910.00,1.28
7909.00,1.26
7908.00,1.24
7907.00,1.22
7906.00,1.21
7905.00,1.19
7904.00,1.17
7903.00,1.16
7902.00,1.15
7901.00,1.13
7900.00,1.12
7899.00,1.11
7898.00,1.11
7897.00,1.10
7896.00,1.09
7895.00,1.09
7894.00,1.08
7893.00,1.08
7892.00,1.07
7891.00,1.06
7890.00,1.06
7889.00,1.05
7888.00,1.05
7887.00,1.05
7886.00,1.05
7885.00,1.05
7884.00,1.05
7883.00,1.06
7882.00,1.07
7881.00,1.07
7880.00,1.08
7879.00,1.09
7878.00,1.10
7877.00,1.10
7876.00,1.11
7875.00,1.11
7874.00,1.12
7873.00,1.12
7872.00,1.12
7871.00,1.13
7870.00,1.13
7869.00,1.14
7868.00,1.14
7867.00,1.15
7866.00,1.16
7865.00,1.16
7864.00,1.17
7863.00,1.18
7862.00,1.19
7861.00,1.20
7860.00,1.21
7859.00,1.22
7858.00,1.22
7857.00,1.23
7856.00,1.24
7855.00,1.25
7854.00,1.26
7853.00,1.26
7852.00,1.27
7851.00,1.28
7850.00,1.29
7849.00,1.30
7848.00,1.31
7847.00,1.32
7846.00,1.33
7845.00,1.34
7844.00,1.35
7843.00,1.36
7842.00,1.37
7841.00,1.37
7840.00,1.38
7839.00,1.39
7838.00,1.40
7837.00,1.40
7836.00,1.40
7835.00,1.41
7834.00,1.41
7833.00,1.41
7832.00,1.41
7831.00,1.41
7830.00,1.41
7829.00,1.41
7828.00,1.41
7827.00,1.41
7826.00,1.41
7825.00,1.41
7824.00,1.41
7823.00,1.41
7822.00,1.40
7821.00,1.40
7820.00,1.40
7819.00,1.39
7818.00,1.38
7817.00,1.38
7816.00,1.37
7815.00,1.36
7814.00,1.36
7813.00,1.35
7812.00,1.35
7811.00,1.34
7810.00,1.34
7809.00,1.33
7808.00,1.33
7807.00,1.33
7806.00,1.32
7805.00,1.32
7804.00,1.32
7803.00,1.31
7802.00,1.31
7801.00,1.30
7800.00,1.30
7799.00,1.29
7798.00,1.28
7797.00,1.27
7796.00,1.26
7795.00,1.26
7794.00,1.25
7793.00,1.24
7792.00,1.24
7791.00,1.24
7790.00,1.23
7789.00,1.23
7788.00,1.23
7787.00,1.23
7786.00,1.22
7785.00,1.22
7784.00,1.21
7783.00,1.21
7782.00,1.20
7781.00,1.20
7780.00,1.19
7779.00,1.19
7778.00,1.18
7777.00,1.18
7776.00,1.17
7775.00,1.17
7774.00,1.16
7773.00,1.16
7772.00,1.16
7771.00,1.15
7770.00,1.15
7769.00,1.15
7768.00,1.15
7767.00,1.15
7766.00,1.15
7765.00,1.14
7764.00,1.14
7763.00,1.13
7762.00,1.12
7761.00,1.11
7760.00,1.11
7759.00,1.10
7758.00,1.09
7757.00,1.09
7756.00,1.09
7755.00,1.08
7754.00,1.08
7753.00,1.08
7752.00,1.08
7751.00,1.08
7750.00,1.08
7749.00,1.08
7748.00,1.09
7747.00,1.09
7746.00,1.09
7745.00,1.10
7744.00,1.10
7743.00,1.10
7742.00,1.11
7741.00,1.11
7740.00,1.12
7739.00,1.13
7738.00,1.14
7737.00,1.15
7736.00,1.16
7735.00,1.17
7734.00,1.18
7733.00,1.19
7732.00,1.20
7731.00,1.21
7730.00,1.22
7729.00,1.23
7728.00,1.23
7727.00,1.24
7726.00,1.24
7725.00,1.24
7724.00,1.25
7723.00,1.25
7722.00,1.25
7721.00,1.25
7720.00,1.25
7719.00,1.25
7718.00,1.25
7717.00,1.26
7716.00,1.26
7715.00,1.25
7714.00,1.25
7713.00,1.25
7712.00,1.24
7711.00,1.24
7710.00,1.23
7709.00,1.22
7708.00,1.22
7707.00,1.21
7706.00,1.21
7705.00,1.20
7704.00,1.20
7703.00,1.20
7702.00,1.20
7701.00,1.20
7700.00,1.20
7699.00,1.20
7698.00,1.20
7697.00,1.20
7696.00,1.21
7695.00,1.21
7694.00,1.21
7693.00,1.21
7692.00,1.21
7691.00,1.21
7690.00,1.21
7689.00,1.21
7688.00,1.21
7687.00,1.21
7686.00,1.21
7685.00,1.21
7684.00,1.22
7683.00,1.22
7682.00,1.22
7681.00,1.23
7680.00,1.23
7679.00,1.23
7678.00,1.23
7677.00,1.23
7676.00,1.23
7675.00,1.23
7674.00,1.23
7673.00,1.23
7672.00,1.22
7671.00,1.22
7670.00,1.21
7669.00,1.21
7668.00,1.20
7667.00,1.20
7666.00,1.20
7665.00,1.20
7664.00,1.20
7663.00,1.20
7662.00,1.20
7661.00,1.20
7660.00,1.20
7659.00,1.21
7658.00,1.21
7657.00,1.21
7656.00,1.22
7655.00,1.22
7654.00,1.23
7653.00,1.23
7652.00,1.24
7651.00,1.25
7650.00,1.26
7649.00,1.26
7648.00,1.27
7647.00,1.28
7646.00,1.29
7645.00,1.30
7644.00,1.31
7643.00,1.32
7642.00,1.33
7641.00,1.33
7640.00,1.34
7639.00,1.35
7638.00,1.35
7637.00,1.35
7636.00,1.35
7635.00,1.35
7634.00,1.35
7633.00,1.35
7632.00,1.34
7631.00,1.34
7630.00,1.33
7629.00,1.33
7628.00,1.32
7627.00,1.31
7626.00,1.30
7625.00,1.29
7624.00,1.28
7623.00,1.27
7622.00,1.25
7621.00,1.24
7620.00,1.23
7619.00,1.22
7618.00,1.21
7617.00,1.20
7616.00,1.19
7615.00,1.18
7614.00,1.17
7613.00,1.16
7612.00,1.16
7611.00,1.15
7610.00,1.15
7609.00,1.14
7608.00,1.14
7607.00,1.14
7606.00,1.14
7605.00,1.14
7604.00,1.14
7603.00,1.14
7602.00,1.15
7601.00,1.15
7600.00,1.15
7599.00,1.15
7598.00,1.15
7597.00,1.16
7596.00,1.16
7595.00,1.17
7594.00,1.17
7593.00,1.17
7592.00,1.18
7591.00,1.18
7590.00,1.18
7589.00,1.19
7588.00,1.19
7587.00,1.19
7586.00,1.19
7585.00,1.19
7584.00,1.19
7583.00,1.19
7582.00,1.18
7581.00,1.18
7580.00,1.18
7579.00,1.18
7578.00,1.18
7577.00,1.18
7576.00,1.18
7575.00,1.18
7574.00,1.18
7573.00,1.18
7572.00,1.19
7571.00,1.19
7570.00,1.19
7569.00,1.19
7568.00,1.19
7567.00,1.19
7566.00,1.19
7565.00,1.20
7564.00,1.20
7563.00,1.20
7562.00,1.20
7561.00,1.21
7560.00,1.21
7559.00,1.21
7558.00,1.22
7557.00,1.22
7556.00,1.23
7555.00,1.24
7554.00,1.24
7553.00,1.24
7552.00,1.25
7551.00,1.25
7550.00,1.25
7549.00,1.26
7548.00,1.26
7547.00,1.26
7546.00,1.26
7545.00,1.26
7544.00,1.26
7543.00,1.25
7542.00,1.25
7541.00,1.25
7540.00,1.25
7539.00,1.25
7538.00,1.25
7537.00,1.25
7536.00,1.25
7535.00,1.25
7534.00,1.25
7533.00,1.26
7532.00,1.26
7531.00,1.26
7530.00,1.26
7529.00,1.26
7528.00,1.26
7527.00,1.26
7526.00,1.27
7525.00,1.27
7524.00,1.27
7523.00,1.28
7522.00,1.28
7521.00,1.29
7520.00,1.29
7519.00,1.30
7518.00,1.31
7517.00,1.32
7516.00,1.33
7515.00,1.34
7514.00,1.35
7513.00,1.36
7512.00,1.37
7511.00,1.38
7510.00,1.39
7509.00,1.40
7508.00,1.41
7507.00,1.42
7506.00,1.43
7505.00,1.44
7504.00,1.45
7503.00,1.46
7502.00,1.47
7501.00,1.47
7500.00,1.48
7499.00,1.49
7498.00,1.49
7497.00,1.49
7496.00,1.50
7495.00,1.50
7494.00,1.50
7493.00,1.49
7492.00,1.49
7491.00,1.49
7490.00,1.48
7489.00,1.48
7488.00,1.47
7487.00,1.46
7486.00,1.45
7485.00,1.45
7484.00,1.44
7483.00,1.43
7482.00,1.42
7481.00,1.41
7480.00,1.41
7479.00,1.40
7478.00,1.39
7477.00,1.38
7476.00,1.37
7475.00,1.36
7474.00,1.35
7473.00,1.34
7472.00,1.33
7471.00,1.32
7470.00,1.32
7469.00,1.31
7468.00,1.30
7467.00,1.30
7466.00,1.29
7465.00,1.29
7464.00,1.29
7463.00,1.28
7462.00,1.28
7461.00,1.28
7460.00,1.28
7459.00,1.28
7458.00,1.27
7457.00,1.27
7456.00,1.27
7455.00,1.27
7454.00,1.26
7453.00,1.26
7452.00,1.26
7451.00,1.26
7450.00,1.26
7449.00,1.26
7448.00,1.26
7447.00,1.27
7446.00,1.27
7445.00,1.28
7444.00,1.28
7443.00,1.29
7442.00,1.29
7441.00,1.30
7440.00,1.30
7439.00,1.30
7438.00,1.31
7437.00,1.31
7436.00,1.31
7435.00,1.31
7434.00,1.31
7433.00,1.32
7432.00,1.32
7431.00,1.32
7430.00,1.32
7429.00,1.32
7428.00,1.32
7427.00,1.33
7426.00,1.33
7425.00,1.33
7424.00,1.33
7423.00,1.33
7422.00,1.33
7421.00,1.33
7420.00,1.33
7419.00,1.32
7418.00,1.32
7417.00,1.32
7416.00,1.31
7415.00,1.31
7414.00,1.31
7413.00,1.31
7412.00,1.30
7411.00,1.30
7410.00,1.30
7409.00,1.30
7408.00,1.29
7407.00,1.29
7406.00,1.29
7405.00,1.29
7404.00,1.29
7403.00,1.29
7402.00,1.29
7401.00,1.29
7400.00,1.29
7399.00,1.29
7398.00,1.28
7397.00,1.28
7396.00,1.28
7395.00,1.28
7394.00,1.28
7393.00,1.28
7392.00,1.27
7391.00,1.27
7390.00,1.27
7389.00,1.27
7388.00,1.26
7387.00,1.26
7386.00,1.26
7385.00,1.26
7384.00,1.26
7383.00,1.26
7382.00,1.26
7381.00,1.26
7380.00,1.26
7379.00,1.26
7378.00,1.26
7377.00,1.26
7376.00,1.27
7375.00,1.27
7374.00,1.27
7373.00,1.27
7372.00,1.27
7371.00,1.27
7370.00,1.27
7369.00,1.27
7368.00,1.27
7367.00,1.27
7366.00,1.27
7365.00,1.27
7364.00,1.27
7363.00,1.27
7362.00,1.28
7361.00,1.28
7360.00,1.28
7359.00,1.28
7358.00,1.28
7357.00,1.29
7356.00,1.29
7355.00,1.29
7354.00,1.29
7353.00,1.30
7352.00,1.30
7351.00,1.30
7350.00,1.30
7349.00,1.30
7348.00,1.30
7347.00,1.30
7346.00,1.30
7345.00,1.30
7344.00,1.31
7343.00,1.31
7342.00,1.31
7341.00,1.32
7340.00,1.32
7339.00,1.33
7338.00,1.33
7337.00,1.33
7336.00,1.33
7335.00,1.33
7334.00,1.33
7333.00,1.33
7332.00,1.33
7331.00,1.33
7330.00,1.33
7329.00,1.33
7328.00,1.32
7327.00,1.32
7326.00,1.32
7325.00,1.32
7324.00,1.32
7323.00,1.32
7322.00,1.32
7321.00,1.32
7320.00,1.32
7319.00,1.33
7318.00,1.33
7317.00,1.33
7316.00,1.33
7315.00,1.34
7314.00,1.34
7313.00,1.35
7312.00,1.36
7311.00,1.37
7310.00,1.37
7309.00,1.38
7308.00,1.40
7307.00,1.41
7306.00,1.42
7305.00,1.43
7304.00,1.44
7303.00,1.45
7302.00,1.47
7301.00,1.48
7300.00,1.49
7299.00,1.50
7298.00,1.51
7297.00,1.52
7296.00,1.52
7295.00,1.53
7294.00,1.54
7293.00,1.55
7292.00,1.55
7291.00,1.56
7290.00,1.56
7289.00,1.56
7288.00,1.57
7287.00,1.57
7286.00,1.56
7285.00,1.56
7284.00,1.55
7283.00,1.55
7282.00,1.54
7281.00,1.53
7280.00,1.53
7279.00,1.52
7278.00,1.51
7277.00,1.51
7276.00,1.50
7275.00,1.49
7274.00,1.49
7273.00,1.48
7272.00,1.47
7271.00,1.47
7270.00,1.46
7269.00,1.46
7268.00,1.45
7267.00,1.44
7266.00,1.44
7265.00,1.43
7264.00,1.42
7263.00,1.42
7262.00,1.41
7261.00,1.41
7260.00,1.40
7259.00,1.40
7258.00,1.40
7257.00,1.39
7256.00,1.39
7255.00,1.39
7254.00,1.39
7253.00,1.39
7252.00,1.39
7251.00,1.38
7250.00,1.38
7249.00,1.37
7248.00,1.37
7247.00,1.36
7246.00,1.36
7245.00,1.35
7244.00,1.34
7243.00,1.33
7242.00,1.33
7241.00,1.32
7240.00,1.31
7239.00,1.30
7238.00,1.29
7237.00,1.29
7236.00,1.28
7235.00,1.27
7234.00,1.26
7233.00,1.25
7232.00,1.24
7231.00,1.23
7230.00,1.22
7229.00,1.21
7228.00,1.20
7227.00,1.20
7226.00,1.19
7225.00,1.18
7224.00,1.18
7223.00,1.17
7222.00,1.17
7221.00,1.17
7220.00,1.17
7219.00,1.17
7218.00,1.17
7217.00,1.17
7216.00,1.17
7215.00,1.17
7214.00,1.17
7213.00,1.17
7212.00,1.17
7211.00,1.17
7210.00,1.17
7209.00,1.18
7208.00,1.18
7207.00,1.18
7206.00,1.18
7205.00,1.19
7204.00,1.19
7203.00,1.20
7202.00,1.20
7201.00,1.21
7200.00,1.21
7199.00,1.21
7198.00,1.22
7197.00,1.22
7196.00,1.22
7195.00,1.22
7194.00,1.22
7193.00,1.22
7192.00,1.22
7191.00,1.22
7190.00,1.22
7189.00,1.22
7188.00,1.22
7187.00,1.22
7186.00,1.22
7185.00,1.23
7184.00,1.23
7183.00,1.23
7182.00,1.23
7181.00,1.23
7180.00,1.23
7179.00,1.23
7178.00,1.23
7177.00,1.22
7176.00,1.21
7175.00,1.21
7174.00,1.20
7173.00,1.19
7172.00,1.18
7171.00,1.17
7170.00,1.17
7169.00,1.16
7168.00,1.15
7167.00,1.15
7166.00,1.14
7165.00,1.14
7164.00,1.13
7163.00,1.12
7162.00,1.12
7161.00,1.11
7160.00,1.10
7159.00,1.09
7158.00,1.09
7157.00,1.08
7156.00,1.07
7155.00,1.06
7154.00,1.05
7153.00,1.05
7152.00,1.04
7151.00,1.04
7150.00,1.04
7149.00,1.04
7148.00,1.04
7147.00,1.05
7146.00,1.05
7145.00,1.06
7144.00,1.07
7143.00,1.07
7142.00,1.08
7141.00,1.08
7140.00,1.09
7139.00,1.10
7138.00,1.10
7137.00,1.11
7136.00,1.11
7135.00,1.12
7134.00,1.13
7133.00,1.14
7132.00,1.15
7131.00,1.15
7130.00,1.16
7129.00,1.17
7128.00,1.18
7127.00,1.19
7126.00,1.19
7125.00,1.20
7124.00,1.20
7123.00,1.21
7122.00,1.21
7121.00,1.21
7120.00,1.21
7119.00,1.21
7118.00,1.21
7117.00,1.21
7116.00,1.21
7115.00,1.21
7114.00,1.20
7113.00,1.20
7112.00,1.20
7111.00,1.20
7110.00,1.19
7109.00,1.19
7108.00,1.19
7107.00,1.19
7106.00,1.19
7105.00,1.19
7104.00,1.19
7103.00,1.19
7102.00,1.20
7101.00,1.20
7100.00,1.21
7099.00,1.22
7098.00,1.23
7097.00,1.23
7096.00,1.24
7095.00,1.25
7094.00,1.26
7093.00,1.27
7092.00,1.28
7091.00,1.29
7090.00,1.30
7089.00,1.31
7088.00,1.32
7087.00,1.33
7086.00,1.34
7085.00,1.36
7084.00,1.37
7083.00,1.38
7082.00,1.39
7081.00,1.40
7080.00,1.41
7079.00,1.41
7078.00,1.42
7077.00,1.42
7076.00,1.42
7075.00,1.42
7074.00,1.42
7073.00,1.41
7072.00,1.41
7071.00,1.40
7070.00,1.39
7069.00,1.39
7068.00,1.38
7067.00,1.37
7066.00,1.36
7065.00,1.35
7064.00,1.33
7063.00,1.32
7062.00,1.31
7061.00,1.29
7060.00,1.28
7059.00,1.26
7058.00,1.25
7057.00,1.23
7056.00,1.22
7055.00,1.20
7054.00,1.19
7053.00,1.17
7052.00,1.16
7051.00,1.15
7050.00,1.14
7049.00,1.12
7048.00,1.11
7047.00,1.10
7046.00,1.10
7045.00,1.09
7044.00,1.08
7043.00,1.08
7042.00,1.07
7041.00,1.07
7040.00,1.07
7039.00,1.07
7038.00,1.06
7037.00,1.06
7036.00,1.06
7035.00,1.06
7034.00,1.06
7033.00,1.06
7032.00,1.06
7031.00,1.06
7030.00,1.06
7029.00,1.06
7028.00,1.07
7027.00,1.07
7026.00,1.07
7025.00,1.08
7024.00,1.08
7023.00,1.08
7022.00,1.09
7021.00,1.09
7020.00,1.09
7019.00,1.09
7018.00,1.09
7017.00,1.10
7016.00,1.10
7015.00,1.10
7014.00,1.11
7013.00,1.11
7012.00,1.11
7011.00,1.12
7010.00,1.12
7009.00,1.13
7008.00,1.13
7007.00,1.14
7006.00,1.14
7005.00,1.15
7004.00,1.15
7003.00,1.15
7002.00,1.16
7001.00,1.16
7000.00,1.17
6999.00,1.17
6998.00,1.17
6997.00,1.18
6996.00,1.19
6995.00,1.19
6994.00,1.20
6993.00,1.21
6992.00,1.21
6991.00,1.22
6990.00,1.22
6989.00,1.23
6988.00,1.23
6987.00,1.24
6986.00,1.24
6985.00,1.24
6984.00,1.25
6983.00,1.25
6982.00,1.25
6981.00,1.25
6980.00,1.26
6979.00,1.26
6978.00,1.26
6977.00,1.26
6976.00,1.26
6975.00,1.26
6974.00,1.26
6973.00,1.26
6972.00,1.26
6971.00,1.26
6970.00,1.25
6969.00,1.25
6968.00,1.24
6967.00,1.23
6966.00,1.23
6965.00,1.22
6964.00,1.22
6963.00,1.21
6962.00,1.21
6961.00,1.21
6960.00,1.20
6959.00,1.20
6958.00,1.20
6957.00,1.19
6956.00,1.19
6955.00,1.19
6954.00,1.18
6953.00,1.18
6952.00,1.17
6951.00,1.17
6950.00,1.16
6949.00,1.16
6948.00,1.15
6947.00,1.15
6946.00,1.15
6945.00,1.15
6944.00,1.15
6943.00,1.15
6942.00,1.16
6941.00,1.16
6940.00,1.16
6939.00,1.17
6938.00,1.17
6937.00,1.17
6936.00,1.18
6935.00,1.18
6934.00,1.19
6933.00,1.19
6932.00,1.19
6931.00,1.19
6930.00,1.19
6929.00,1.20
6928.00,1.20
6927.00,1.20
6926.00,1.20
6925.00,1.21
6924.00,1.21
6923.00,1.21
6922.00,1.21
6921.00,1.22
6920.00,1.22
6919.00,1.22
6918.00,1.22
6917.00,1.22
6916.00,1.22
6915.00,1.21
6914.00,1.21
6913.00,1.21
6912.00,1.20
6911.00,1.20
6910.00,1.20
6909.00,1.19
6908.00,1.19
6907.00,1.18
6906.00,1.18
6905.00,1.18
6904.00,1.18
6903.00,1.17
6902.00,1.17
6901.00,1.17
6900.00,1.17
6899.00,1.18
6898.00,1.18
6897.00,1.18
6896.00,1.18
6895.00,1.18
6894.00,1.18
6893.00,1.18
6892.00,1.18
6891.00,1.18
6890.00,1.18
6889.00,1.18
6888.00,1.19
6887.00,1.19
6886.00,1.20
6885.00,1.20
6884.00,1.21
6883.00,1.21
6882.00,1.22
6881.00,1.22
6880.00,1.22
6879.00,1.23
6878.00,1.23
6877.00,1.23
6876.00,1.23
6875.00,1.23
6874.00,1.23
6873.00,1.23
6872.00,1.23
6871.00,1.23
6870.00,1.23
6869.00,1.23
6868.00,1.24
6867.00,1.24
6866.00,1.25
6865.00,1.25
6864.00,1.25
6863.00,1.26
6862.00,1.26
6861.00,1.26
6860.00,1.26
6859.00,1.26
6858.00,1.27
6857.00,1.27
6856.00,1.27
6855.00,1.28
6854.00,1.28
6853.00,1.29
6852.00,1.29
6851.00,1.30
6850.00,1.31
6849.00,1.31
6848.00,1.32
6847.00,1.32
6846.00,1.33
6845.00,1.33
6844.00,1.33
6843.00,1.33
6842.00,1.33
6841.00,1.34
6840.00,1.34
6839.00,1.34
6838.00,1.34
6837.00,1.34
6836.00,1.34
6835.00,1.34
6834.00,1.34
6833.00,1.34
6832.00,1.34
6831.00,1.34
6830.00,1.34
6829.00,1.34
6828.00,1.34
6827.00,1.34
6826.00,1.33
6825.00,1.33
6824.00,1.33
6823.00,1.33
6822.00,1.33
6821.00,1.33
6820.00,1.33
6819.00,1.33
6818.00,1.33
6817.00,1.33
6816.00,1.33
6815.00,1.33
6814.00,1.33
6813.00,1.33
6812.00,1.33
6811.00,1.33
6810.00,1.32
6809.00,1.32
6808.00,1.32
6807.00,1.32
6806.00,1.32
6805.00,1.31
6804.00,1.31
6803.00,1.31
6802.00,1.31
6801.00,1.31
6800.00,1.31
6799.00,1.31
6798.00,1.30
6797.00,1.30
6796.00,1.30
6795.00,1.30
6794.00,1.30
6793.00,1.30
6792.00,1.29
6791.00,1.29
6790.00,1.29
6789.00,1.29
6788.00,1.29
6787.00,1.28
6786.00,1.28
6785.00,1.28
6784.00,1.28
6783.00,1.28
6782.00,1.28
6781.00,1.28
6780.00,1.28
6779.00,1.28
6778.00,1.28
6777.00,1.28
6776.00,1.28
6775.00,1.28
6774.00,1.28
6773.00,1.28
6772.00,1.28
6771.00,1.28
6770.00,1.28
6769.00,1.28
6768.00,1.28
6767.00,1.28
6766.00,1.28
6765.00,1.28
6764.00,1.28
6763.00,1.28
6762.00,1.28
6761.00,1.28
6760.00,1.28
6759.00,1.28
6758.00,1.29
6757.00,1.29
6756.00,1.29
6755.00,1.29
6754.00,1.29
6753.00,1.30
6752.00,1.30
6751.00,1.30
6750.00,1.30
6749.00,1.30
6748.00,1.30
6747.00,1.30
6746.00,1.30
6745.00,1.30
6744.00,1.30
6743.00,1.31
6742.00,1.31
6741.00,1.31
6740.00,1.32
6739.00,1.32
6738.00,1.33
6737.00,1.33
6736.00,1.33
6735.00,1.34
6734.00,1.34
6733.00,1.34
6732.00,1.34
6731.00,1.34
6730.00,1.35
6729.00,1.35
6728.00,1.35
6727.00,1.35
6726.00,1.35
6725.00,1.36
6724.00,1.36
6723.00,1.36
6722.00,1.36
6721.00,1.37
6720.00,1.37
6719.00,1.37
6718.00,1.37
6717.00,1.37
6716.00,1.38
6715.00,1.38
6714.00,1.38
6713.00,1.38
6712.00,1.37
6711.00,1.37
6710.00,1.37
6709.00,1.37
6708.00,1.37
6707.00,1.37
6706.00,1.37
6705.00,1.36
6704.00,1.36
6703.00,1.36
6702.00,1.36
6701.00,1.36
6700.00,1.36
6699.00,1.35
6698.00,1.35
6697.00,1.34
6696.00,1.34
6695.00,1.33
6694.00,1.32
6693.00,1.32
6692.00,1.31
6691.00,1.30
6690.00,1.29
6689.00,1.29
6688.00,1.28
6687.00,1.27
6686.00,1.26
6685.00,1.26
6684.00,1.25
6683.00,1.25
6682.00,1.24
6681.00,1.23
6680.00,1.23
6679.00,1.22
6678.00,1.21
6677.00,1.21
6676.00,1.20
6675.00,1.20
6674.00,1.19
6673.00,1.19
6672.00,1.19
6671.00,1.18
6670.00,1.19
6669.00,1.19
6668.00,1.19
6667.00,1.19
6666.00,1.20
6665.00,1.20
6664.00,1.21
6663.00,1.22
6662.00,1.22
6661.00,1.23
6660.00,1.24
6659.00,1.25
6658.00,1.26
6657.00,1.27
6656.00,1.28
6655.00,1.29
6654.00,1.30
6653.00,1.32
6652.00,1.33
6651.00,1.34
6650.00,1.35
6649.00,1.36
6648.00,1.37
6647.00,1.38
6646.00,1.39
6645.00,1.40
6644.00,1.41
6643.00,1.42
6642.00,1.42
6641.00,1.43
6640.00,1.43
6639.00,1.44
6638.00,1.44
6637.00,1.44
6636.00,1.44
6635.00,1.44
6634.00,1.44
6633.00,1.44
6632.00,1.44
6631.00,1.44
6630.00,1.44
6629.00,1.43
6628.00,1.43
6627.00,1.43
6626.00,1.42
6625.00,1.42
6624.00,1.41
6623.00,1.41
6622.00,1.41
6621.00,1.41
6620.00,1.41
6619.00,1.41
6618.00,1.41
6617.00,1.41
6616.00,1.41
6615.00,1.41
6614.00,1.41
6613.00,1.41
6612.00,1.41
6611.00,1.41
6610.00,1.41
6609.00,1.41
6608.00,1.41
6607.00,1.41
6606.00,1.41
6605.00,1.41
6604.00,1.41
6603.00,1.42
6602.00,1.42
6601.00,1.42
6600.00,1.43
6599.00,1.43
6598.00,1.43
6597.00,1.43
6596.00,1.44
6595.00,1.44
6594.00,1.44
6593.00,1.44
6592.00,1.44
6591.00,1.44
6590.00,1.43
6589.00,1.43
6588.00,1.43
6587.00,1.43
6586.00,1.43
6585.00,1.43
6584.00,1.43
6583.00,1.43
6582.00,1.43
6581.00,1.43
6580.00,1.43
6579.00,1.43
6578.00,1.43
6577.00,1.43
6576.00,1.42
6575.00,1.42
6574.00,1.42
6573.00,1.41
6572.00,1.41
6571.00,1.40
6570.00,1.40
6569.00,1.39
6568.00,1.39
6567.00,1.39
6566.00,1.38
6565.00,1.38
6564.00,1.37
6563.00,1.37
6562.00,1.37
6561.00,1.36
6560.00,1.36
6559.00,1.36
6558.00,1.35
6557.00,1.35
6556.00,1.34
6555.00,1.34
6554.00,1.33
6553.00,1.33
6552.00,1.32
6551.00,1.32
6550.00,1.32
6549.00,1.31
6548.00,1.31
6547.00,1.30
6546.00,1.30
6545.00,1.30
6544.00,1.30
6543.00,1.30
6542.00,1.30
6541.00,1.30
6540.00,1.30
6539.00,1.30
6538.00,1.30
6537.00,1.30
6536.00,1.30
6535.00,1.30
6534.00,1.30
6533.00,1.31
6532.00,1.31
6531.00,1.31
6530.00,1.32
6529.00,1.32
6528.00,1.33
6527.00,1.33
6526.00,1.34
6525.00,1.35
6524.00,1.35
6523.00,1.36
6522.00,1.37
6521.00,1.37
6520.00,1.38
6519.00,1.39
6518.00,1.39
6517.00,1.39
6516.00,1.40
6515.00,1.40
6514.00,1.40
6513.00,1.41
6512.00,1.41
6511.00,1.41
6510.00,1.41
6509.00,1.41
6508.00,1.41
6507.00,1.41
6506.00,1.42
6505.00,1.42
6504.00,1.42
6503.00,1.42
6502.00,1.42
6501.00,1.42
6500.00,1.42
6499.00,1.42
6498.00,1.42
6497.00,1.42
6496.00,1.42
6495.00,1.42
6494.00,1.43
6493.00,1.43
6492.00,1.43
6491.00,1.44
6490.00,1.44
6489.00,1.45
6488.00,1.45
6487.00,1.46
6486.00,1.47
6485.00,1.47
6484.00,1.48
6483.00,1.49
6482.00,1.50
6481.00,1.50
6480.00,1.51
6479.00,1.52
6478.00,1.52
6477.00,1.53
6476.00,1.53
6475.00,1.54
6474.00,1.54
6473.00,1.54
6472.00,1.55
6471.00,1.55
6470.00,1.55
6469.00,1.55
6468.00,1.55
6467.00,1.55
6466.00,1.55
6465.00,1.55
6464.00,1.55
6463.00,1.55
6462.00,1.54
6461.00,1.54
6460.00,1.54
6459.00,1.53
6458.00,1.53
6457.00,1.53
6456.00,1.53
6455.00,1.52
6454.00,1.52
6453.00,1.52
6452.00,1.52
6451.00,1.51
6450.00,1.51
6449.00,1.51
6448.00,1.51
6447.00,1.51
6446.00,1.51
6445.00,1.51
6444.00,1.51
6443.00,1.51
6442.00,1.51
6441.00,1.51
6440.00,1.52
6439.00,1.52
6438.00,1.52
6437.00,1.52
6436.00,1.52
6435.00,1.52
6434.00,1.53
6433.00,1.53
6432.00,1.53
6431.00,1.53
6430.00,1.53
6429.00,1.54
6428.00,1.54
6427.00,1.54
6426.00,1.54
6425.00,1.54
6424.00,1.54
6423.00,1.54
6422.00,1.54
6421.00,1.54
6420.00,1.54
6419.00,1.54
6418.00,1.53
6417.00,1.53
6416.00,1.53
6415.00,1.52
6414.00,1.52
6413.00,1.52
6412.00,1.51
6411.00,1.51
6410.00,1.51
6409.00,1.50
6408.00,1.50
6407.00,1.49
6406.00,1.49
6405.00,1.48
6404.00,1.48
6403.00,1.47
6402.00,1.47
6401.00,1.47
6400.00,1.46
6399.00,1.46
6398.00,1.45
6397.00,1.45
6396.00,1.45
6395.00,1.45
6394.00,1.45
6393.00,1.45
6392.00,1.45
6391.00,1.45
6390.00,1.46
6389.00,1.46
6388.00,1.46
6387.00,1.46
6386.00,1.47
6385.00,1.47
6384.00,1.47
6383.00,1.48
6382.00,1.48
6381.00,1.48
6380.00,1.49
6379.00,1.49
6378.00,1.49
6377.00,1.50
6376.00,1.50
6375.00,1.50
6374.00,1.51
6373.00,1.51
6372.00,1.51
6371.00,1.51
6370.00,1.51
6369.00,1.51
6368.00,1.51
6367.00,1.51
6366.00,1.51
6365.00,1.51
6364.00,1.51
6363.00,1.51
6362.00,1.51
6361.00,1.51
6360.00,1.51
6359.00,1.50
6358.00,1.50
6357.00,1.50
6356.00,1.50
6355.00,1.50
6354.00,1.50
6353.00,1.50
6352.00,1.50
6351.00,1.50
6350.00,1.50
6349.00,1.50
6348.00,1.51
6347.00,1.51
6346.00,1.51
6345.00,1.51
6344.00,1.51
6343.00,1.52
6342.00,1.52
6341.00,1.52
6340.00,1.52
6339.00,1.53
6338.00,1.53
6337.00,1.53
6336.00,1.54
6335.00,1.54
6334.00,1.55
6333.00,1.55
6332.00,1.55
6331.00,1.55
6330.00,1.56
6329.00,1.56
6328.00,1.56
6327.00,1.55
6326.00,1.55
6325.00,1.55
6324.00,1.55
6323.00,1.54
6322.00,1.54
6321.00,1.54
6320.00,1.53
6319.00,1.53
6318.00,1.52
6317.00,1.52
6316.00,1.52
6315.00,1.51
6314.00,1.51
6313.00,1.50
6312.00,1.50
6311.00,1.49
6310.00,1.49
6309.00,1.49
6308.00,1.48
6307.00,1.48
6306.00,1.48
6305.00,1.48
6304.00,1.48
6303.00,1.48
6302.00,1.48
6301.00,1.48
6300.00,1.48
6299.00,1.49
6298.00,1.49
6297.00,1.50
6296.00,1.50
6295.00,1.50
6294.00,1.51
6293.00,1.51
6292.00,1.52
6291.00,1.52
6290.00,1.53
6289.00,1.53
6288.00,1.53
6287.00,1.54
6286.00,1.54
6285.00,1.55
6284.00,1.55
6283.00,1.56
6282.00,1.56
6281.00,1.56
6280.00,1.56
6279.00,1.56
6278.00,1.56
6277.00,1.56
6276.00,1.56
6275.00,1.56
6274.00,1.56
6273.00,1.56
6272.00,1.56
6271.00,1.56
6270.00,1.56
6269.00,1.56
6268.00,1.56
6267.00,1.57
6266.00,1.57
6265.00,1.57
6264.00,1.57
6263.00,1.57
6262.00,1.57
6261.00,1.57
6260.00,1.57
6259.00,1.58
6258.00,1.58
6257.00,1.58
6256.00,1.58
6255.00,1.58
6254.00,1.58
6253.00,1.59
6252.00,1.59
6251.00,1.59
6250.00,1.60
6249.00,1.60
6248.00,1.60
6247.00,1.61
6246.00,1.61
6245.00,1.62
6244.00,1.62
6243.00,1.62
6242.00,1.62
6241.00,1.62
6240.00,1.62
6239.00,1.62
6238.00,1.62
6237.00,1.62
6236.00,1.62
6235.00,1.62
6234.00,1.62
6233.00,1.62
6232.00,1.61
6231.00,1.61
6230.00,1.61
6229.00,1.61
6228.00,1.61
6227.00,1.61
6226.00,1.61
6225.00,1.61
6224.00,1.60
6223.00,1.60
6222.00,1.60
6221.00,1.59
6220.00,1.59
6219.00,1.59
6218.00,1.58
6217.00,1.58
6216.00,1.58
6215.00,1.58
6214.00,1.57
6213.00,1.57
6212.00,1.57
6211.00,1.57
6210.00,1.57
6209.00,1.56
6208.00,1.56
6207.00,1.56
6206.00,1.56
6205.00,1.57
6204.00,1.57
6203.00,1.57
6202.00,1.57
6201.00,1.57
6200.00,1.57
6199.00,1.58
6198.00,1.58
6197.00,1.58
6196.00,1.58
6195.00,1.59
6194.00,1.59
6193.00,1.59
6192.00,1.60
6191.00,1.60
6190.00,1.60
6189.00,1.60
6188.00,1.61
6187.00,1.61
6186.00,1.61
6185.00,1.62
6184.00,1.62
6183.00,1.62
6182.00,1.62
6181.00,1.62
6180.00,1.62
6179.00,1.62
6178.00,1.62
6177.00,1.61
6176.00,1.61
6175.00,1.61
6174.00,1.60
6173.00,1.60
6172.00,1.59
6171.00,1.59
6170.00,1.58
6169.00,1.58
6168.00,1.57
6167.00,1.57
6166.00,1.57
6165.00,1.56
6164.00,1.56
6163.00,1.56
6162.00,1.56
6161.00,1.56
6160.00,1.55
6159.00,1.55
6158.00,1.55
6157.00,1.55
6156.00,1.55
6155.00,1.55
6154.00,1.55
6153.00,1.55
6152.00,1.56
6151.00,1.56
6150.00,1.57
6149.00,1.57
6148.00,1.58
6147.00,1.58
6146.00,1.59
6145.00,1.59
6144.00,1.60
6143.00,1.61
6142.00,1.61
6141.00,1.62
6140.00,1.63
6139.00,1.63
6138.00,1.64
6137.00,1.64
6136.00,1.65
6135.00,1.65
6134.00,1.65
6133.00,1.66
6132.00,1.66
6131.00,1.67
6130.00,1.67
6129.00,1.67
6128.00,1.68
6127.00,1.68
6126.00,1.68
6125.00,1.68
6124.00,1.69
6123.00,1.69
6122.00,1.69
6121.00,1.69
6120.00,1.69
6119.00,1.69
6118.00,1.69
6117.00,1.69
6116.00,1.69
6115.00,1.69
6114.00,1.69
6113.00,1.69
6112.00,1.69
6111.00,1.68
6110.00,1.68
6109.00,1.68
6108.00,1.68
6107.00,1.68
6106.00,1.68
6105.00,1.68
6104.00,1.67
6103.00,1.67
6102.00,1.67
6101.00,1.67
6100.00,1.67
6099.00,1.67
6098.00,1.66
6097.00,1.66
6096.00,1.66
6095.00,1.66
6094.00,1.66
6093.00,1.66
6092.00,1.66
6091.00,1.67
6090.00,1.67
6089.00,1.67
6088.00,1.67
6087.00,1.67
6086.00,1.67
6085.00,1.67
6084.00,1.68
6083.00,1.68
6082.00,1.68
6081.00,1.68
6080.00,1.68
6079.00,1.68
6078.00,1.68
6077.00,1.68
6076.00,1.69
6075.00,1.69
6074.00,1.69
6073.00,1.69
6072.00,1.70
6071.00,1.70
6070.00,1.70
6069.00,1.70
6068.00,1.70
6067.00,1.70
6066.00,1.70
6065.00,1.70
6064.00,1.69
6063.00,1.69
6062.00,1.69
6061.00,1.69
6060.00,1.69
6059.00,1.69
6058.00,1.69
6057.00,1.69
6056.00,1.69
6055.00,1.69
6054.00,1.69
6053.00,1.69
6052.00,1.69
6051.00,1.69
6050.00,1.69
6049.00,1.69
6048.00,1.69
6047.00,1.69
6046.00,1.68
6045.00,1.68
6044.00,1.68
6043.00,1.68
6042.00,1.68
6041.00,1.68
6040.00,1.68
6039.00,1.68
6038.00,1.68
6037.00,1.68
6036.00,1.68
6035.00,1.68
6034.00,1.68
6033.00,1.68
6032.00,1.68
6031.00,1.68
6030.00,1.68
6029.00,1.68
6028.00,1.68
6027.00,1.68
6026.00,1.68
6025.00,1.68
6024.00,1.68
6023.00,1.68
6022.00,1.68
6021.00,1.68
6020.00,1.68
6019.00,1.68
6018.00,1.68
6017.00,1.68
6016.00,1.68
6015.00,1.67
6014.00,1.67
6013.00,1.67
6012.00,1.67
6011.00,1.67
6010.00,1.67
6009.00,1.67
6008.00,1.66
6007.00,1.66
6006.00,1.66
6005.00,1.66
6004.00,1.65
6003.00,1.65
6002.00,1.65
6001.00,1.65
6000.00,1.65
5999.00,1.65
5998.00,1.65
5997.00,1.65
5996.00,1.65
5995.00,1.65
5994.00,1.65
5993.00,1.65
5992.00,1.65
5991.00,1.66
5990.00,1.66
5989.00,1.66
5988.00,1.67
5987.00,1.67
5986.00,1.67
5985.00,1.67
5984.00,1.68
5983.00,1.68
5982.00,1.69
5981.00,1.69
5980.00,1.70
5979.00,1.70
5978.00,1.71
5977.00,1.71
5976.00,1.71
5975.00,1.72
5974.00,1.72
5973.00,1.72
5972.00,1.72
5971.00,1.72
5970.00,1.72
5969.00,1.72
5968.00,1.72
5967.00,1.72
5966.00,1.72
5965.00,1.72
5964.00,1.71
5963.00,1.71
5962.00,1.71
5961.00,1.71
5960.00,1.71
5959.00,1.71
5958.00,1.70
5957.00,1.70
5956.00,1.70
5955.00,1.70
5954.00,1.70
5953.00,1.70
5952.00,1.70
5951.00,1.69
5950.00,1.69
5949.00,1.69
5948.00,1.69
5947.00,1.69
5946.00,1.69
5945.00,1.69
5944.00,1.69
5943.00,1.69
5942.00,1.69
5941.00,1.69
5940.00,1.69
5939.00,1.70
5938.00,1.70
5937.00,1.70
5936.00,1.70
5935.00,1.70
5934.00,1.70
5933.00,1.70
5932.00,1.70
5931.00,1.70
5930.00,1.70
5929.00,1.69
5928.00,1.69
5927.00,1.69
5926.00,1.69
5925.00,1.69
5924.00,1.69
5923.00,1.69
5922.00,1.69
5921.00,1.69
5920.00,1.69
5919.00,1.70
5918.00,1.70
5917.00,1.70
5916.00,1.70
5915.00,1.70
5914.00,1.70
5913.00,1.71
5912.00,1.71
5911.00,1.71
5910.00,1.71
5909.00,1.72
5908.00,1.72
5907.00,1.72
5906.00,1.73
5905.00,1.73
5904.00,1.74
5903.00,1.74
5902.00,1.75
5901.00,1.75
5900.00,1.76
5899.00,1.76
5898.00,1.76
5897.00,1.77
5896.00,1.77
5895.00,1.77
5894.00,1.76
5893.00,1.76
5892.00,1.76
5891.00,1.76
5890.00,1.76
5889.00,1.75
5888.00,1.75
5887.00,1.75
5886.00,1.74
5885.00,1.74
5884.00,1.74
5883.00,1.73
5882.00,1.73
5881.00,1.73
5880.00,1.72
5879.00,1.72
5878.00,1.72
5877.00,1.72
5876.00,1.72
5875.00,1.71
5874.00,1.71
5873.00,1.71
5872.00,1.72
5871.00,1.72
5870.00,1.72
5869.00,1.72
5868.00,1.73
5867.00,1.73
5866.00,1.74
5865.00,1.74
5864.00,1.74
5863.00,1.75
5862.00,1.75
5861.00,1.76
5860.00,1.76
5859.00,1.77
5858.00,1.77
5857.00,1.77
5856.00,1.78
5855.00,1.78
5854.00,1.78
5853.00,1.78
5852.00,1.78
5851.00,1.78
5850.00,1.78
5849.00,1.78
5848.00,1.78
5847.00,1.77
5846.00,1.77
5845.00,1.77
5844.00,1.76
5843.00,1.76
5842.00,1.75
5841.00,1.75
5840.00,1.74
5839.00,1.74
5838.00,1.73
5837.00,1.73
5836.00,1.72
5835.00,1.72
5834.00,1.72
5833.00,1.71
5832.00,1.71
5831.00,1.70
5830.00,1.70
5829.00,1.70
5828.00,1.69
5827.00,1.69
5826.00,1.69
5825.00,1.69
5824.00,1.68
5823.00,1.68
5822.00,1.68
5821.00,1.68
5820.00,1.68
5819.00,1.67
5818.00,1.67
5817.00,1.67
5816.00,1.67
5815.00,1.67
5814.00,1.67
5813.00,1.67
5812.00,1.66
5811.00,1.66
5810.00,1.66
5809.00,1.66
5808.00,1.66
5807.00,1.67
5806.00,1.67
5805.00,1.67
5804.00,1.67
5803.00,1.67
5802.00,1.67
5801.00,1.67
5800.00,1.67
5799.00,1.67
5798.00,1.67
5797.00,1.67
5796.00,1.67
5795.00,1.68
5794.00,1.68
5793.00,1.68
5792.00,1.68
5791.00,1.68
5790.00,1.68
5789.00,1.68
5788.00,1.68
5787.00,1.69
5786.00,1.69
5785.00,1.69
5784.00,1.69
5783.00,1.69
5782.00,1.69
5781.00,1.69
5780.00,1.69
5779.00,1.68
5778.00,1.68
5777.00,1.68
5776.00,1.68
5775.00,1.68
5774.00,1.68
5773.00,1.68
5772.00,1.68
5771.00,1.69
5770.00,1.69
5769.00,1.69
5768.00,1.69
5767.00,1.70
5766.00,1.70
5765.00,1.70
5764.00,1.71
5763.00,1.71
5762.00,1.72
5761.00,1.72
5760.00,1.72
5759.00,1.73
5758.00,1.73
5757.00,1.74
5756.00,1.75
5755.00,1.75
5754.00,1.76
5753.00,1.76
5752.00,1.77
5751.00,1.77
5750.00,1.78
5749.00,1.78
5748.00,1.79
5747.00,1.79
5746.00,1.79
5745.00,1.80
5744.00,1.80
5743.00,1.80
5742.00,1.80
5741.00,1.80
5740.00,1.80
5739.00,1.80
5738.00,1.80
5737.00,1.80
5736.00,1.80
5735.00,1.80
5734.00,1.80
5733.00,1.80
5732.00,1.80
5731.00,1.79
5730.00,1.79
5729.00,1.79
5728.00,1.79
5727.00,1.79
5726.00,1.78
5725.00,1.78
5724.00,1.78
5723.00,1.78
5722.00,1.78
5721.00,1.78
5720.00,1.78
5719.00,1.77
5718.00,1.77
5717.00,1.77
5716.00,1.77
5715.00,1.77
5714.00,1.77
5713.00,1.77
5712.00,1.77
5711.00,1.78
5710.00,1.78
5709.00,1.78
5708.00,1.78
5707.00,1.78
5706.00,1.78
5705.00,1.78
5704.00,1.78
5703.00,1.79
5702.00,1.79
5701.00,1.79
5700.00,1.79
5699.00,1.79
5698.00,1.79
5697.00,1.79
5696.00,1.80
5695.00,1.80
5694.00,1.80
5693.00,1.80
5692.00,1.80
5691.00,1.80
5690.00,1.80
5689.00,1.81
5688.00,1.81
5687.00,1.81
5686.00,1.81
5685.00,1.81
5684.00,1.81
5683.00,1.81
5682.00,1.82
5681.00,1.82
5680.00,1.82
5679.00,1.82
5678.00,1.82
5677.00,1.82
5676.00,1.82
5675.00,1.82
5674.00,1.81
5673.00,1.81
5672.00,1.81
5671.00,1.81
5670.00,1.81
5669.00,1.81
5668.00,1.81
5667.00,1.81
5666.00,1.81
5665.00,1.81
5664.00,1.80
5663.00,1.80
5662.00,1.80
5661.00,1.80
5660.00,1.80
5659.00,1.79
5658.00,1.79
5657.00,1.79
5656.00,1.79
5655.00,1.79
5654.00,1.79
5653.00,1.78
5652.00,1.78
5651.00,1.78
5650.00,1.78
5649.00,1.78
5648.00,1.78
5647.00,1.78
5646.00,1.78
5645.00,1.78
5644.00,1.78
5643.00,1.78
5642.00,1.78
5641.00,1.78
5640.00,1.78
5639.00,1.78
5638.00,1.79
5637.00,1.79
5636.00,1.79
5635.00,1.79
5634.00,1.79
5633.00,1.80
5632.00,1.80
5631.00,1.80
5630.00,1.80
5629.00,1.81
5628.00,1.81
5627.00,1.81
5626.00,1.81
5625.00,1.81
5624.00,1.82
5623.00,1.82
5622.00,1.82
5621.00,1.82
5620.00,1.82
5619.00,1.82
5618.00,1.82
5617.00,1.82
5616.00,1.82
5615.00,1.82
5614.00,1.82
5613.00,1.82
5612.00,1.82
5611.00,1.82
5610.00,1.82
5609.00,1.82
5608.00,1.81
5607.00,1.81
5606.00,1.81
5605.00,1.80
5604.00,1.80
5603.00,1.80
5602.00,1.79
5601.00,1.79
5600.00,1.79
5599.00,1.79
5598.00,1.78
5597.00,1.78
5596.00,1.78
5595.00,1.77
5594.00,1.77
5593.00,1.77
5592.00,1.77
5591.00,1.77
5590.00,1.77
5589.00,1.76
5588.00,1.76
5587.00,1.76
5586.00,1.76
5585.00,1.76
5584.00,1.76
5583.00,1.76
5582.00,1.76
5581.00,1.76
5580.00,1.76
5579.00,1.76
5578.00,1.76
5577.00,1.77
5576.00,1.77
5575.00,1.77
5574.00,1.77
5573.00,1.77
5572.00,1.78
5571.00,1.78
5570.00,1.78
5569.00,1.78
5568.00,1.78
5567.00,1.78
5566.00,1.78
5565.00,1.78
5564.00,1.78
5563.00,1.78
5562.00,1.78
5561.00,1.78
5560.00,1.78
5559.00,1.78
5558.00,1.78
5557.00,1.78
5556.00,1.78
5555.00,1.79
5554.00,1.79
5553.00,1.79
5552.00,1.79
5551.00,1.78
5550.00,1.78
5549.00,1.78
5548.00,1.78
5547.00,1.78
5546.00,1.78
5545.00,1.78
5544.00,1.78
5543.00,1.78
5542.00,1.78
5541.00,1.78
5540.00,1.78
5539.00,1.79
5538.00,1.79
5537.00,1.79
5536.00,1.79
5535.00,1.79
5534.00,1.80
5533.00,1.80
5532.00,1.80
5531.00,1.80
5530.00,1.80
5529.00,1.80
5528.00,1.81
5527.00,1.81
5526.00,1.81
5525.00,1.81
5524.00,1.82
5523.00,1.82
5522.00,1.82
5521.00,1.82
5520.00,1.83
5519.00,1.83
5518.00,1.83
5517.00,1.84
5516.00,1.84
5515.00,1.84
5514.00,1.85
5513.00,1.85
5512.00,1.85
5511.00,1.86
5510.00,1.86
5509.00,1.86
5508.00,1.86
5507.00,1.87
5506.00,1.87
5505.00,1.87
5504.00,1.87
5503.00,1.87
5502.00,1.88
5501.00,1.88
5500.00,1.88
5499.00,1.88
5498.00,1.88
5497.00,1.88
5496.00,1.88
5495.00,1.88
5494.00,1.88
5493.00,1.88
5492.00,1.88
5491.00,1.88
5490.00,1.88
5489.00,1.88
5488.00,1.88
5487.00,1.88
5486.00,1.88
5485.00,1.88
5484.00,1.87
5483.00,1.87
5482.00,1.87
5481.00,1.87
5480.00,1.87
5479.00,1.87
5478.00,1.86
5477.00,1.86
5476.00,1.86
5475.00,1.86
5474.00,1.86
5473.00,1.86
5472.00,1.86
5471.00,1.86
5470.00,1.86
5469.00,1.86
5468.00,1.86
5467.00,1.86
5466.00,1.86
5465.00,1.86
5464.00,1.86
5463.00,1.86
5462.00,1.86
5461.00,1.86
5460.00,1.86
5459.00,1.87
5458.00,1.87
5457.00,1.87
5456.00,1.87
5455.00,1.87
5454.00,1.88
5453.00,1.88
5452.00,1.88
5451.00,1.88
5450.00,1.88
5449.00,1.88
5448.00,1.88
5447.00,1.88
5446.00,1.89
5445.00,1.89
5444.00,1.89
5443.00,1.89
5442.00,1.89
5441.00,1.89
5440.00,1.89
5439.00,1.89
5438.00,1.89
5437.00,1.90
5436.00,1.90
5435.00,1.90
5434.00,1.89
5433.00,1.89
5432.00,1.89
5431.00,1.89
5430.00,1.89
5429.00,1.89
5428.00,1.89
5427.00,1.89
5426.00,1.89
5425.00,1.89
5424.00,1.89
5423.00,1.89
5422.00,1.89
5421.00,1.89
5420.00,1.89
5419.00,1.89
5418.00,1.89
5417.00,1.89
5416.00,1.89
5415.00,1.90
5414.00,1.90
5413.00,1.90
5412.00,1.90
5411.00,1.90
5410.00,1.90
5409.00,1.90
5408.00,1.91
5407.00,1.91
5406.00,1.91
5405.00,1.91
5404.00,1.91
5403.00,1.91
5402.00,1.91
5401.00,1.92
5400.00,1.92
5399.00,1.92
5398.00,1.92
5397.00,1.91
5396.00,1.91
5395.00,1.91
5394.00,1.91
5393.00,1.91
5392.00,1.91
5391.00,1.90
5390.00,1.90
5389.00,1.90
5388.00,1.89
5387.00,1.89
5386.00,1.89
5385.00,1.88
5384.00,1.88
5383.00,1.87
5382.00,1.87
5381.00,1.86
5380.00,1.86
5379.00,1.86
5378.00,1.85
5377.00,1.85
5376.00,1.84
5375.00,1.84
5374.00,1.83
5373.00,1.83
5372.00,1.82
5371.00,1.82
5370.00,1.81
5369.00,1.81
5368.00,1.80
5367.00,1.80
5366.00,1.80
5365.00,1.79
5364.00,1.79
5363.00,1.79
5362.00,1.79
5361.00,1.79
5360.00,1.79
5359.00,1.79
5358.00,1.79
5357.00,1.79
5356.00,1.79
5355.00,1.79
5354.00,1.79
5353.00,1.78
5352.00,1.78
5351.00,1.79
5350.00,1.79
5349.00,1.79
5348.00,1.79
5347.00,1.79
5346.00,1.79
5345.00,1.79
5344.00,1.80
5343.00,1.80
5342.00,1.80
5341.00,1.80
5340.00,1.80
5339.00,1.79
5338.00,1.79
5337.00,1.79
5336.00,1.79
5335.00,1.78
5334.00,1.77
5333.00,1.77
5332.00,1.76
5331.00,1.75
5330.00,1.75
5329.00,1.74
5328.00,1.73
5327.00,1.72
5326.00,1.71
5325.00,1.71
5324.00,1.70
5323.00,1.69
5322.00,1.68
5321.00,1.67
5320.00,1.66
5319.00,1.65
5318.00,1.64
5317.00,1.63
5316.00,1.62
5315.00,1.61
5314.00,1.60
5313.00,1.59
5312.00,1.58
5311.00,1.57
5310.00,1.56
5309.00,1.55
5308.00,1.54
5307.00,1.54
5306.00,1.53
5305.00,1.53
5304.00,1.52
5303.00,1.52
5302.00,1.52
5301.00,1.51
5300.00,1.51
5299.00,1.51
5298.00,1.50
5297.00,1.50
5296.00,1.49
5295.00,1.49
5294.00,1.49
5293.00,1.48
5292.00,1.48
5291.00,1.48
5290.00,1.47
5289.00,1.47
5288.00,1.47
5287.00,1.46
5286.00,1.46
5285.00,1.46
5284.00,1.45
5283.00,1.45
5282.00,1.44
5281.00,1.44
5280.00,1.43
5279.00,1.43
5278.00,1.42
5277.00,1.42
5276.00,1.41
5275.00,1.41
5274.00,1.41
5273.00,1.40
5272.00,1.40
5271.00,1.40
5270.00,1.39
5269.00,1.39
5268.00,1.39
5267.00,1.38
5266.00,1.38
5265.00,1.38
5264.00,1.38
5263.00,1.37
5262.00,1.37
5261.00,1.37
5260.00,1.36
5259.00,1.36
5258.00,1.36
5257.00,1.36
5256.00,1.35
5255.00,1.35
5254.00,1.35
5253.00,1.35
5252.00,1.34
5251.00,1.34
5250.00,1.34
5249.00,1.33
5248.00,1.33
5247.00,1.32
5246.00,1.32
5245.00,1.31
5244.00,1.30
5243.00,1.30
5242.00,1.29
5241.00,1.28
5240.00,1.28
5239.00,1.27
5238.00,1.26
5237.00,1.26
5236.00,1.25
5235.00,1.25
5234.00,1.24
5233.00,1.23
5232.00,1.23
5231.00,1.22
5230.00,1.22
5229.00,1.21
5228.00,1.21
5227.00,1.20
5226.00,1.20
5225.00,1.19
5224.00,1.19
5223.00,1.19
5222.00,1.18
5221.00,1.18
5220.00,1.18
5219.00,1.17
5218.00,1.17
5217.00,1.17
5216.00,1.17
5215.00,1.17
5214.00,1.17
5213.00,1.17
5212.00,1.17
5211.00,1.17
5210.00,1.17
5209.00,1.17
5208.00,1.17
5207.00,1.17
5206.00,1.16
5205.00,1.16
5204.00,1.16
5203.00,1.16
5202.00,1.16
5201.00,1.16
5200.00,1.16
5199.00,1.16
5198.00,1.16
5197.00,1.16
5196.00,1.16
5195.00,1.16
5194.00,1.16
5193.00,1.16
5192.00,1.16
5191.00,1.16
5190.00,1.16
5189.00,1.16
5188.00,1.16
5187.00,1.16
5186.00,1.16
5185.00,1.16
5184.00,1.16
5183.00,1.16
5182.00,1.16
5181.00,1.16
5180.00,1.17
5179.00,1.17
5178.00,1.17
5177.00,1.17
5176.00,1.17
5175.00,1.18
5174.00,1.18
5173.00,1.18
5172.00,1.18
5171.00,1.19
5170.00,1.19
5169.00,1.19
5168.00,1.19
5167.00,1.19
5166.00,1.19
5165.00,1.19
5164.00,1.19
5163.00,1.19
5162.00,1.19
5161.00,1.19
5160.00,1.19
5159.00,1.19
5158.00,1.19
5157.00,1.19
5156.00,1.19
5155.00,1.18
5154.00,1.18
5153.00,1.18
5152.00,1.18
5151.00,1.18
5150.00,1.18
5149.00,1.18
5148.00,1.18
5147.00,1.18
5146.00,1.17
5145.00,1.17
5144.00,1.17
5143.00,1.18
5142.00,1.18
5141.00,1.18
5140.00,1.18
5139.00,1.18
5138.00,1.18
5137.00,1.18
5136.00,1.18
5135.00,1.19
5134.00,1.19
5133.00,1.19
5132.00,1.19
5131.00,1.19
5130.00,1.19
5129.00,1.19
5128.00,1.20
5127.00,1.20
5126.00,1.20
5125.00,1.20
5124.00,1.20
5123.00,1.20
5122.00,1.20
5121.00,1.20
5120.00,1.21
5119.00,1.21
5118.00,1.21
5117.00,1.21
5116.00,1.21
5115.00,1.21
5114.00,1.21
5113.00,1.21
5112.00,1.21
5111.00,1.21
5110.00,1.21
5109.00,1.21
5108.00,1.21
5107.00,1.22
5106.00,1.22
5105.00,1.22
5104.00,1.22
5103.00,1.22
5102.00,1.23
5101.00,1.23
5100.00,1.23
5099.00,1.23
5098.00,1.24
5097.00,1.24
5096.00,1.24
5095.00,1.25
5094.00,1.25
5093.00,1.25
5092.00,1.25
5091.00,1.26
5090.00,1.26
5089.00,1.26
5088.00,1.27
5087.00,1.27
5086.00,1.27
5085.00,1.28
5084.00,1.28
5083.00,1.28
5082.00,1.28
5081.00,1.28
5080.00,1.28
5079.00,1.29
5078.00,1.29
5077.00,1.29
5076.00,1.29
5075.00,1.29
5074.00,1.29
5073.00,1.30
5072.00,1.30
5071.00,1.30
5070.00,1.30
5069.00,1.30
5068.00,1.30
5067.00,1.31
5066.00,1.31
5065.00,1.31
5064.00,1.31
5063.00,1.31
5062.00,1.31
5061.00,1.31
5060.00,1.31
5059.00,1.31
5058.00,1.31
5057.00,1.31
5056.00,1.31
5055.00,1.31
5054.00,1.31
5053.00,1.31
5052.00,1.31
5051.00,1.31
5050.00,1.31
5049.00,1.31
5048.00,1.31
5047.00,1.31
5046.00,1.30
5045.00,1.30
5044.00,1.30
5043.00,1.30
5042.00,1.30
5041.00,1.30
5040.00,1.29
5039.00,1.29
5038.00,1.29
5037.00,1.29
5036.00,1.29
5035.00,1.29
5034.00,1.29
5033.00,1.29
5032.00,1.30
5031.00,1.30
5030.00,1.30
5029.00,1.30
5028.00,1.30
5027.00,1.30
5026.00,1.30
5025.00,1.30
5024.00,1.31
5023.00,1.31
5022.00,1.31
5021.00,1.31
5020.00,1.32
5019.00,1.32
5018.00,1.32
5017.00,1.32
5016.00,1.33
5015.00,1.33
5014.00,1.33
5013.00,1.34
5012.00,1.34
5011.00,1.34
5010.00,1.35
5009.00,1.35
5008.00,1.35
5007.00,1.35
5006.00,1.36
5005.00,1.36
5004.00,1.36
5003.00,1.37
5002.00,1.37
5001.00,1.38
5000.00,1.38
4999.00,1.38
4998.00,1.39
4997.00,1.39
4996.00,1.40
4995.00,1.40
4994.00,1.40
4993.00,1.41
4992.00,1.41
4991.00,1.42
4990.00,1.42
4989.00,1.43
4988.00,1.43
4987.00,1.44
4986.00,1.44
4985.00,1.45
4984.00,1.45
4983.00,1.46
4982.00,1.46
4981.00,1.46
4980.00,1.47
4979.00,1.47
4978.00,1.47
4977.00,1.47
4976.00,1.48
4975.00,1.48
4974.00,1.48
4973.00,1.48
4972.00,1.49
4971.00,1.49
4970.00,1.49
4969.00,1.49
4968.00,1.49
4967.00,1.49
4966.00,1.49
4965.00,1.49
4964.00,1.49
4963.00,1.49
4962.00,1.49
4961.00,1.49
4960.00,1.49
4959.00,1.49
4958.00,1.49
4957.00,1.49
4956.00,1.48
4955.00,1.48
4954.00,1.48
4953.00,1.48
4952.00,1.49
4951.00,1.49
4950.00,1.49
4949.00,1.49
4948.00,1.49
4947.00,1.49
4946.00,1.50
4945.00,1.50
4944.00,1.50
4943.00,1.50
4942.00,1.51
4941.00,1.51
4940.00,1.51
4939.00,1.51
4938.00,1.52
4937.00,1.52
4936.00,1.52
4935.00,1.53
4934.00,1.53
4933.00,1.54
4932.00,1.54
4931.00,1.55
4930.00,1.55
4929.00,1.56
4928.00,1.56
4927.00,1.56
4926.00,1.57
4925.00,1.57
4924.00,1.57
4923.00,1.57
4922.00,1.57
4921.00,1.57
4920.00,1.57
4919.00,1.57
4918.00,1.57
4917.00,1.57
4916.00,1.57
4915.00,1.57
4914.00,1.57
4913.00,1.57
4912.00,1.57
4911.00,1.57
4910.00,1.57
4909.00,1.57
4908.00,1.57
4907.00,1.56
4906.00,1.56
4905.00,1.56
4904.00,1.56
4903.00,1.56
4902.00,1.56
4901.00,1.56
4900.00,1.56
4899.00,1.56
4898.00,1.56
4897.00,1.56
4896.00,1.56
4895.00,1.56
4894.00,1.56
4893.00,1.56
4892.00,1.57
4891.00,1.57
4890.00,1.57
4889.00,1.57
4888.00,1.57
4887.00,1.57
4886.00,1.57
4885.00,1.58
4884.00,1.58
4883.00,1.58
4882.00,1.58
4881.00,1.59
4880.00,1.59
4879.00,1.59
4878.00,1.59
4877.00,1.59
4876.00,1.60
4875.00,1.60
4874.00,1.60
4873.00,1.60
4872.00,1.60
4871.00,1.60
4870.00,1.60
4869.00,1.59
4868.00,1.59
4867.00,1.59
4866.00,1.59
4865.00,1.59
4864.00,1.59
4863.00,1.59
4862.00,1.59
4861.00,1.59
4860.00,1.59
4859.00,1.59
4858.00,1.59
4857.00,1.59
4856.00,1.59
4855.00,1.59
4854.00,1.59
4853.00,1.59
4852.00,1.59
4851.00,1.59
4850.00,1.59
4849.00,1.59
4848.00,1.59
4847.00,1.59
4846.00,1.60
4845.00,1.60
4844.00,1.60
4843.00,1.60
4842.00,1.60
4841.00,1.61
4840.00,1.61
4839.00,1.61
4838.00,1.61
4837.00,1.61
4836.00,1.62
4835.00,1.62
4834.00,1.62
4833.00,1.62
4832.00,1.62
4831.00,1.63
4830.00,1.63
4829.00,1.63
4828.00,1.63
4827.00,1.63
4826.00,1.63
4825.00,1.63
4824.00,1.63
4823.00,1.63
4822.00,1.63
4821.00,1.63
4820.00,1.63
4819.00,1.63
4818.00,1.63
4817.00,1.63
4816.00,1.63
4815.00,1.63
4814.00,1.63
4813.00,1.63
4812.00,1.63
4811.00,1.63
4810.00,1.63
4809.00,1.63
4808.00,1.63
4807.00,1.63
4806.00,1.63
4805.00,1.63
4804.00,1.64
4803.00,1.64
4802.00,1.64
4801.00,1.64
4800.00,1.64
4799.00,1.64
4798.00,1.64
4797.00,1.65
4796.00,1.65
4795.00,1.65
4794.00,1.65
4793.00,1.65
4792.00,1.65
4791.00,1.66
4790.00,1.66
4789.00,1.66
4788.00,1.66
4787.00,1.67
4786.00,1.67
4785.00,1.67
4784.00,1.67
4783.00,1.68
4782.00,1.68
4781.00,1.68
4780.00,1.68
4779.00,1.68
4778.00,1.68
4777.00,1.69
4776.00,1.69
4775.00,1.69
4774.00,1.69
4773.00,1.69
4772.00,1.70
4771.00,1.70
4770.00,1.70
4769.00,1.70
4768.00,1.71
4767.00,1.71
4766.00,1.71
4765.00,1.71
4764.00,1.71
4763.00,1.72
4762.00,1.72
4761.00,1.72
4760.00,1.72
4759.00,1.72
4758.00,1.72
4757.00,1.72
4756.00,1.72
4755.00,1.72
4754.00,1.72
4753.00,1.72
4752.00,1.72
4751.00,1.72
4750.00,1.72
4749.00,1.72
4748.00,1.72
4747.00,1.71
4746.00,1.71
4745.00,1.71
4744.00,1.71
4743.00,1.71
4742.00,1.71
4741.00,1.70
4740.00,1.70
4739.00,1.70
4738.00,1.70
4737.00,1.70
4736.00,1.70
4735.00,1.70
4734.00,1.70
4733.00,1.70
4732.00,1.70
4731.00,1.70
4730.00,1.70
4729.00,1.70
4728.00,1.70
4727.00,1.70
4726.00,1.71
4725.00,1.71
4724.00,1.71
4723.00,1.71
4722.00,1.72
4721.00,1.72
4720.00,1.72
4719.00,1.73
4718.00,1.73
4717.00,1.73
4716.00,1.74
4715.00,1.74
4714.00,1.74
4713.00,1.74
4712.00,1.75
4711.00,1.75
4710.00,1.75
4709.00,1.75
4708.00,1.75
4707.00,1.75
4706.00,1.75
4705.00,1.76
4704.00,1.76
4703.00,1.76
4702.00,1.76
4701.00,1.76
4700.00,1.76
4699.00,1.75
4698.00,1.75
4697.00,1.75
4696.00,1.75
4695.00,1.75
4694.00,1.75
4693.00,1.75
4692.00,1.75
4691.00,1.75
4690.00,1.75
4689.00,1.75
4688.00,1.75
4687.00,1.75
4686.00,1.74
4685.00,1.74
4684.00,1.74
4683.00,1.74
4682.00,1.74
4681.00,1.74
4680.00,1.74
4679.00,1.74
4678.00,1.75
4677.00,1.75
4676.00,1.75
4675.00,1.75
4674.00,1.75
4673.00,1.75
4672.00,1.75
4671.00,1.76
4670.00,1.76
4669.00,1.76
4668.00,1.76
4667.00,1.77
4666.00,1.77
4665.00,1.77
4664.00,1.77
4663.00,1.77
4662.00,1.77
4661.00,1.78
4660.00,1.78
4659.00,1.78
4658.00,1.78
4657.00,1.78
4656.00,1.79
4655.00,1.79
4654.00,1.79
4653.00,1.79
4652.00,1.79
4651.00,1.79
4650.00,1.79
4649.00,1.79
4648.00,1.78
4647.00,1.78
4646.00,1.78
4645.00,1.78
4644.00,1.78
4643.00,1.79
4642.00,1.79
4641.00,1.79
4640.00,1.79
4639.00,1.79
4638.00,1.79
4637.00,1.79
4636.00,1.79
4635.00,1.80
4634.00,1.80
4633.00,1.80
4632.00,1.80
4631.00,1.81
4630.00,1.81
4629.00,1.81
4628.00,1.81
4627.00,1.82
4626.00,1.82
4625.00,1.83
4624.00,1.83
4623.00,1.84
4622.00,1.84
4621.00,1.85
4620.00,1.85
4619.00,1.86
4618.00,1.86
4617.00,1.87
4616.00,1.87
4615.00,1.87
4614.00,1.87
4613.00,1.87
4612.00,1.87
4611.00,1.87
4610.00,1.87
4609.00,1.87
4608.00,1.87
4607.00,1.87
4606.00,1.87
4605.00,1.87
4604.00,1.87
4603.00,1.87
4602.00,1.86
4601.00,1.86
4600.00,1.86
4599.00,1.86
4598.00,1.85
4597.00,1.85
4596.00,1.85
4595.00,1.84
4594.00,1.84
4593.00,1.84
4592.00,1.84
4591.00,1.83
4590.00,1.83
4589.00,1.83
4588.00,1.83
4587.00,1.83
4586.00,1.83
4585.00,1.83
4584.00,1.83
4583.00,1.83
4582.00,1.83
4581.00,1.83
4580.00,1.83
4579.00,1.83
4578.00,1.83
4577.00,1.83
4576.00,1.83
4575.00,1.83
4574.00,1.83
4573.00,1.83
4572.00,1.83
4571.00,1.83
4570.00,1.83
4569.00,1.82
4568.00,1.82
4567.00,1.82
4566.00,1.82
4565.00,1.82
4564.00,1.81
4563.00,1.81
4562.00,1.81
4561.00,1.81
4560.00,1.80
4559.00,1.80
4558.00,1.80
4557.00,1.80
4556.00,1.80
4555.00,1.80
4554.00,1.80
4553.00,1.80
4552.00,1.80
4551.00,1.80
4550.00,1.80
4549.00,1.80
4548.00,1.80
4547.00,1.80
4546.00,1.80
4545.00,1.80
4544.00,1.81
4543.00,1.81
4542.00,1.81
4541.00,1.82
4540.00,1.82
4539.00,1.83
4538.00,1.83
4537.00,1.84
4536.00,1.84
4535.00,1.84
4534.00,1.85
4533.00,1.85
4532.00,1.86
4531.00,1.86
4530.00,1.87
4529.00,1.87
4528.00,1.88
4527.00,1.88
4526.00,1.88
4525.00,1.89
4524.00,1.89
4523.00,1.89
4522.00,1.89
4521.00,1.89
4520.00,1.89
4519.00,1.90
4518.00,1.90
4517.00,1.90
4516.00,1.90
4515.00,1.90
4514.00,1.90
4513.00,1.90
4512.00,1.89
4511.00,1.89
4510.00,1.89
4509.00,1.89
4508.00,1.89
4507.00,1.88
4506.00,1.88
4505.00,1.88
4504.00,1.88
4503.00,1.87
4502.00,1.87
4501.00,1.87
4500.00,1.86
4499.00,1.86
4498.00,1.86
4497.00,1.86
4496.00,1.85
4495.00,1.85
4494.00,1.85
4493.00,1.85
4492.00,1.84
4491.00,1.84
4490.00,1.84
4489.00,1.84
4488.00,1.83
4487.00,1.83
4486.00,1.83
4485.00,1.83
4484.00,1.83
4483.00,1.83
4482.00,1.83
4481.00,1.83
4480.00,1.84
4479.00,1.84
4478.00,1.84
4477.00,1.84
4476.00,1.84
4475.00,1.84
4474.00,1.85
4473.00,1.85
4472.00,1.85
4471.00,1.86
4470.00,1.86
4469.00,1.86
4468.00,1.86
4467.00,1.86
4466.00,1.86
4465.00,1.87
4464.00,1.87
4463.00,1.87
4462.00,1.87
4461.00,1.87
4460.00,1.87
4459.00,1.87
4458.00,1.87
4457.00,1.87
4456.00,1.87
4455.00,1.87
4454.00,1.87
4453.00,1.87
4452.00,1.87
4451.00,1.87
4450.00,1.86
4449.00,1.86
4448.00,1.86
4447.00,1.85
4446.00,1.85
4445.00,1.85
4444.00,1.85
4443.00,1.84
4442.00,1.84
4441.00,1.84
4440.00,1.83
4439.00,1.83
4438.00,1.83
4437.00,1.82
4436.00,1.82
4435.00,1.81
4434.00,1.81
4433.00,1.81
4432.00,1.80
4431.00,1.80
4430.00,1.79
4429.00,1.79
4428.00,1.78
4427.00,1.77
4426.00,1.77
4425.00,1.76
4424.00,1.76
4423.00,1.76
4422.00,1.75
4421.00,1.75
4420.00,1.75
4419.00,1.74
4418.00,1.74
4417.00,1.74
4416.00,1.74
4415.00,1.74
4414.00,1.73
4413.00,1.73
4412.00,1.73
4411.00,1.73
4410.00,1.73
4409.00,1.74
4408.00,1.74
4407.00,1.74
4406.00,1.75
4405.00,1.75
4404.00,1.75
4403.00,1.76
4402.00,1.76
4401.00,1.76
4400.00,1.77
4399.00,1.77
4398.00,1.78
4397.00,1.78
4396.00,1.79
4395.00,1.79
4394.00,1.79
4393.00,1.80
4392.00,1.80
4391.00,1.80
4390.00,1.80
4389.00,1.80
4388.00,1.81
4387.00,1.81
4386.00,1.81
4385.00,1.81
4384.00,1.81
4383.00,1.81
4382.00,1.81
4381.00,1.81
4380.00,1.81
4379.00,1.80
4378.00,1.80
4377.00,1.80
4376.00,1.80
4375.00,1.80
4374.00,1.79
4373.00,1.79
4372.00,1.79
4371.00,1.79
4370.00,1.79
4369.00,1.79
4368.00,1.79
4367.00,1.79
4366.00,1.79
4365.00,1.79
4364.00,1.79
4363.00,1.79
4362.00,1.79
4361.00,1.79
4360.00,1.80
4359.00,1.80
4358.00,1.80
4357.00,1.80
4356.00,1.80
4355.00,1.81
4354.00,1.81
4353.00,1.82
4352.00,1.82
4351.00,1.83
4350.00,1.83
4349.00,1.84
4348.00,1.84
4347.00,1.84
4346.00,1.85
4345.00,1.85
4344.00,1.85
4343.00,1.86
4342.00,1.86
4341.00,1.87
4340.00,1.87
4339.00,1.87
4338.00,1.88
4337.00,1.88
4336.00,1.88
4335.00,1.89
4334.00,1.89
4333.00,1.89
4332.00,1.89
4331.00,1.89
4330.00,1.90
4329.00,1.90
4328.00,1.90
4327.00,1.90
4326.00,1.90
4325.00,1.90
4324.00,1.90
4323.00,1.90
4322.00,1.90
4321.00,1.91
4320.00,1.91
4319.00,1.91
4318.00,1.91
4317.00,1.91
4316.00,1.91
4315.00,1.91
4314.00,1.92
4313.00,1.92
4312.00,1.92
4311.00,1.92
4310.00,1.92
4309.00,1.92
4308.00,1.92
4307.00,1.93
4306.00,1.93
4305.00,1.93
4304.00,1.93
4303.00,1.93
4302.00,1.93
4301.00,1.93
4300.00,1.93
4299.00,1.93
4298.00,1.93
4297.00,1.93
4296.00,1.93
4295.00,1.93
4294.00,1.93
4293.00,1.92
4292.00,1.92
4291.00,1.92
4290.00,1.92
4289.00,1.91
4288.00,1.91
4287.00,1.91
4286.00,1.90
4285.00,1.90
4284.00,1.89
4283.00,1.89
4282.00,1.88
4281.00,1.88
4280.00,1.87
4279.00,1.87
4278.00,1.86
4277.00,1.86
4276.00,1.85
4275.00,1.85
4274.00,1.84
4273.00,1.84
4272.00,1.83
4271.00,1.83
4270.00,1.82
4269.00,1.82
4268.00,1.82
4267.00,1.81
4266.00,1.81
4265.00,1.80
4264.00,1.80
4263.00,1.79
4262.00,1.79
4261.00,1.79
4260.00,1.78
4259.00,1.78
4258.00,1.78
4257.00,1.77
4256.00,1.77
4255.00,1.77
4254.00,1.76
4253.00,1.76
4252.00,1.76
4251.00,1.76
4250.00,1.76
4249.00,1.76
4248.00,1.76
4247.00,1.76
4246.00,1.76
4245.00,1.76
4244.00,1.76
4243.00,1.76
4242.00,1.76
4241.00,1.76
4240.00,1.76
4239.00,1.76
4238.00,1.77
4237.00,1.77
4236.00,1.78
4235.00,1.78
4234.00,1.79
4233.00,1.79
4232.00,1.80
4231.00,1.81
4230.00,1.82
4229.00,1.82
4228.00,1.83
4227.00,1.84
4226.00,1.85
4225.00,1.85
4224.00,1.86
4223.00,1.86
4222.00,1.87
4221.00,1.88
4220.00,1.88
4219.00,1.89
4218.00,1.89
4217.00,1.89
4216.00,1.90
4215.00,1.90
4214.00,1.90
4213.00,1.90
4212.00,1.90
4211.00,1.90
4210.00,1.90
4209.00,1.90
4208.00,1.89
4207.00,1.89
4206.00,1.89
4205.00,1.89
4204.00,1.88
4203.00,1.88
4202.00,1.87
4201.00,1.87
4200.00,1.86
4199.00,1.85
4198.00,1.85
4197.00,1.84
4196.00,1.83
4195.00,1.82
4194.00,1.82
4193.00,1.81
4192.00,1.81
4191.00,1.80
4190.00,1.80
4189.00,1.79
4188.00,1.79
4187.00,1.79
4186.00,1.79
4185.00,1.78
4184.00,1.78
4183.00,1.78
4182.00,1.78
4181.00,1.78
4180.00,1.78
4179.00,1.78
4178.00,1.78
4177.00,1.78
4176.00,1.78
4175.00,1.78
4174.00,1.79
4173.00,1.79
4172.00,1.79
4171.00,1.80
4170.00,1.80
4169.00,1.81
4168.00,1.82
4167.00,1.82
4166.00,1.83
4165.00,1.83
4164.00,1.84
4163.00,1.84
4162.00,1.85
4161.00,1.85
4160.00,1.85
4159.00,1.86
4158.00,1.86
4157.00,1.86
4156.00,1.86
4155.00,1.87
4154.00,1.87
4153.00,1.87
4152.00,1.87
4151.00,1.88
4150.00,1.88
4149.00,1.88
4148.00,1.88
4147.00,1.87
4146.00,1.87
4145.00,1.87
4144.00,1.87
4143.00,1.87
4142.00,1.86
4141.00,1.86
4140.00,1.86
4139.00,1.85
4138.00,1.85
4137.00,1.85
4136.00,1.84
4135.00,1.84
4134.00,1.84
4133.00,1.83
4132.00,1.83
4131.00,1.82
4130.00,1.82
4129.00,1.82
4128.00,1.81
4127.00,1.81
4126.00,1.81
4125.00,1.81
4124.00,1.81
4123.00,1.81
4122.00,1.81
4121.00,1.81
4120.00,1.81
4119.00,1.81
4118.00,1.81
4117.00,1.81
4116.00,1.80
4115.00,1.80
4114.00,1.80
4113.00,1.80
4112.00,1.80
4111.00,1.80
4110.00,1.80
4109.00,1.80
4108.00,1.80
4107.00,1.80
4106.00,1.80
4105.00,1.80
4104.00,1.81
4103.00,1.81
4102.00,1.81
4101.00,1.80
4100.00,1.80
4099.00,1.80
4098.00,1.80
4097.00,1.79
4096.00,1.79
4095.00,1.79
4094.00,1.78
4093.00,1.78
4092.00,1.78
4091.00,1.78
4090.00,1.78
4089.00,1.78
4088.00,1.78
4087.00,1.78
4086.00,1.78
4085.00,1.78
4084.00,1.78
4083.00,1.78
4082.00,1.78
4081.00,1.77
4080.00,1.77
4079.00,1.77
4078.00,1.77
4077.00,1.77
4076.00,1.77
4075.00,1.77
4074.00,1.77
4073.00,1.78
4072.00,1.78
4071.00,1.78
4070.00,1.78
4069.00,1.79
4068.00,1.79
4067.00,1.79
4066.00,1.79
4065.00,1.79
4064.00,1.79
4063.00,1.79
4062.00,1.79
4061.00,1.79
4060.00,1.79
4059.00,1.79
4058.00,1.79
4057.00,1.80
4056.00,1.80
4055.00,1.80
4054.00,1.80
4053.00,1.81
4052.00,1.81
4051.00,1.81
4050.00,1.81
4049.00,1.81
4048.00,1.81
4047.00,1.81
4046.00,1.81
4045.00,1.81
4044.00,1.81
4043.00,1.80
4042.00,1.80
4041.00,1.80
4040.00,1.81
4039.00,1.81
4038.00,1.81
4037.00,1.81
4036.00,1.81
4035.00,1.81
4034.00,1.81
4033.00,1.81
4032.00,1.82
4031.00,1.82
4030.00,1.82
4029.00,1.82
4028.00,1.83
4027.00,1.83
4026.00,1.83
4025.00,1.84
4024.00,1.84
4023.00,1.85
4022.00,1.85
4021.00,1.86
4020.00,1.86
4019.00,1.87
4018.00,1.87
4017.00,1.87
4016.00,1.88
4015.00,1.88
4014.00,1.89
4013.00,1.89
4012.00,1.89
4011.00,1.89
4010.00,1.89
4009.00,1.89
4008.00,1.89
4007.00,1.89
4006.00,1.89
4005.00,1.89
4004.00,1.89
4003.00,1.89
4002.00,1.89
4001.00,1.89
4000.00,1.89
