创建为新数据集,样品 1101 用户 Administrator 日期 星期二, 七月 30 2019
cm-1,%T
10000.00,1.23
9999.00,1.33
9998.00,1.43
9997.00,1.53
9996.00,1.63
9995.00,1.73
9994.00,1.82
9993.00,1.91
9992.00,2.00
9991.00,2.09
9990.00,2.18
9989.00,2.26
9988.00,2.35
9987.00,2.44
9986.00,2.52
9985.00,2.60
9984.00,2.69
9983.00,2.77
9982.00,2.84
9981.00,2.92
9980.00,2.99
9979.00,3.06
9978.00,3.13
9977.00,3.19
9976.00,3.25
9975.00,3.31
9974.00,3.37
9973.00,3.42
9972.00,3.48
9971.00,3.53
9970.00,3.58
9969.00,3.62
9968.00,3.67
9967.00,3.71
9966.00,3.75
9965.00,3.79
9964.00,3.82
9963.00,3.85
9962.00,3.87
9961.00,3.88
9960.00,3.89
9959.00,3.89
9958.00,3.88
9957.00,3.88
9956.00,3.87
9955.00,3.85
9954.00,3.84
9953.00,3.82
9952.00,3.80
9951.00,3.78
9950.00,3.75
9949.00,3.72
9948.00,3.69
9947.00,3.65
9946.00,3.61
9945.00,3.57
9944.00,3.52
9943.00,3.46
9942.00,3.41
9941.00,3.35
9940.00,3.30
9939.00,3.24
9938.00,3.18
9937.00,3.12
9936.00,3.06
9935.00,3.00
9934.00,2.94
9933.00,2.89
9932.00,2.84
9931.00,2.80
9930.00,2.75
9929.00,2.71
9928.00,2.67
9927.00,2.63
9926.00,2.59
9925.00,2.56
9924.00,2.53
9923.00,2.50
9922.00,2.48
9921.00,2.45
9920.00,2.44
9919.00,2.43
9918.00,2.42
9917.00,2.41
9916.00,2.41
9915.00,2.42
9914.00,2.42
9913.00,2.43
9912.00,2.44
9911.00,2.45
9910.00,2.47
9909.00,2.49
9908.00,2.51
9907.00,2.53
9906.00,2.55
9905.00,2.57
9904.00,2.58
9903.00,2.60
9902.00,2.61
9901.00,2.62
9900.00,2.64
9899.00,2.64
9898.00,2.65
9897.00,2.65
9896.00,2.66
9895.00,2.66
9894.00,2.65
9893.00,2.65
9892.00,2.64
9891.00,2.63
9890.00,2.61
9889.00,2.60
9888.00,2.58
9887.00,2.57
9886.00,2.55
9885.00,2.53
9884.00,2.50
9883.00,2.48
9882.00,2.45
9881.00,2.43
9880.00,2.40
9879.00,2.38
9878.00,2.36
9877.00,2.34
9876.00,2.32
9875.00,2.30
9874.00,2.29
9873.00,2.27
9872.00,2.26
9871.00,2.25
9870.00,2.24
9869.00,2.24
9868.00,2.24
9867.00,2.24
9866.00,2.24
9865.00,2.24
9864.00,2.25
9863.00,2.26
9862.00,2.27
9861.00,2.28
9860.00,2.29
9859.00,2.30
9858.00,2.31
9857.00,2.33
9856.00,2.35
9855.00,2.37
9854.00,2.38
9853.00,2.40
9852.00,2.43
9851.00,2.45
9850.00,2.46
9849.00,2.48
9848.00,2.50
9847.00,2.52
9846.00,2.53
9845.00,2.54
9844.00,2.56
9843.00,2.57
9842.00,2.57
9841.00,2.58
9840.00,2.58
9839.00,2.59
9838.00,2.58
9837.00,2.58
9836.00,2.58
9835.00,2.57
9834.00,2.56
9833.00,2.55
9832.00,2.54
9831.00,2.53
9830.00,2.51
9829.00,2.50
9828.00,2.48
9827.00,2.47
9826.00,2.45
9825.00,2.42
9824.00,2.40
9823.00,2.38
9822.00,2.35
9821.00,2.32
9820.00,2.29
9819.00,2.27
9818.00,2.24
9817.00,2.21
9816.00,2.18
9815.00,2.16
9814.00,2.13
9813.00,2.11
9812.00,2.09
9811.00,2.08
9810.00,2.06
9809.00,2.05
9808.00,2.05
9807.00,2.04
9806.00,2.03
9805.00,2.03
9804.00,2.03
9803.00,2.02
9802.00,2.02
9801.00,2.02
9800.00,2.02
9799.00,2.02
9798.00,2.02
9797.00,2.03
9796.00,2.04
9795.00,2.04
9794.00,2.05
9793.00,2.06
9792.00,2.07
9791.00,2.07
9790.00,2.08
9789.00,2.08
9788.00,2.09
9787.00,2.09
9786.00,2.09
9785.00,2.08
9784.00,2.08
9783.00,2.07
9782.00,2.06
9781.00,2.05
9780.00,2.05
9779.00,2.04
9778.00,2.03
9777.00,2.03
9776.00,2.02
9775.00,2.02
9774.00,2.02
9773.00,2.02
9772.00,2.02
9771.00,2.02
9770.00,2.02
9769.00,2.01
9768.00,2.01
9767.00,2.01
9766.00,2.01
9765.00,2.01
9764.00,2.01
9763.00,2.02
9762.00,2.03
9761.00,2.04
9760.00,2.05
9759.00,2.06
9758.00,2.08
9757.00,2.10
9756.00,2.12
9755.00,2.14
9754.00,2.16
9753.00,2.18
9752.00,2.20
9751.00,2.21
9750.00,2.23
9749.00,2.25
9748.00,2.26
9747.00,2.28
9746.00,2.29
9745.00,2.31
9744.00,2.32
9743.00,2.34
9742.00,2.36
9741.00,2.38
9740.00,2.39
9739.00,2.41
9738.00,2.43
9737.00,2.45
9736.00,2.46
9735.00,2.48
9734.00,2.49
9733.00,2.50
9732.00,2.51
9731.00,2.52
9730.00,2.53
9729.00,2.53
9728.00,2.54
9727.00,2.54
9726.00,2.54
9725.00,2.53
9724.00,2.53
9723.00,2.52
9722.00,2.51
9721.00,2.50
9720.00,2.48
9719.00,2.46
9718.00,2.44
9717.00,2.42
9716.00,2.39
9715.00,2.37
9714.00,2.34
9713.00,2.31
9712.00,2.28
9711.00,2.25
9710.00,2.22
9709.00,2.19
9708.00,2.16
9707.00,2.13
9706.00,2.09
9705.00,2.06
9704.00,2.02
9703.00,1.99
9702.00,1.96
9701.00,1.92
9700.00,1.89
9699.00,1.86
9698.00,1.83
9697.00,1.80
9696.00,1.77
9695.00,1.75
9694.00,1.72
9693.00,1.71
9692.00,1.69
9691.00,1.68
9690.00,1.67
9689.00,1.66
9688.00,1.66
9687.00,1.66
9686.00,1.66
9685.00,1.66
9684.00,1.66
9683.00,1.66
9682.00,1.67
9681.00,1.68
9680.00,1.68
9679.00,1.69
9678.00,1.70
9677.00,1.71
9676.00,1.72
9675.00,1.74
9674.00,1.75
9673.00,1.77
9672.00,1.78
9671.00,1.80
9670.00,1.82
9669.00,1.84
9668.00,1.85
9667.00,1.87
9666.00,1.89
9665.00,1.90
9664.00,1.92
9663.00,1.93
9662.00,1.94
9661.00,1.95
9660.00,1.96
9659.00,1.96
9658.00,1.97
9657.00,1.97
9656.00,1.98
9655.00,1.98
9654.00,1.99
9653.00,1.99
9652.00,2.00
9651.00,2.01
9650.00,2.02
9649.00,2.04
9648.00,2.05
9647.00,2.06
9646.00,2.07
9645.00,2.09
9644.00,2.10
9643.00,2.11
9642.00,2.12
9641.00,2.12
9640.00,2.13
9639.00,2.14
9638.00,2.15
9637.00,2.15
9636.00,2.16
9635.00,2.16
9634.00,2.17
9633.00,2.17
9632.00,2.18
9631.00,2.18
9630.00,2.18
9629.00,2.18
9628.00,2.18
9627.00,2.17
9626.00,2.16
9625.00,2.15
9624.00,2.13
9623.00,2.11
9622.00,2.09
9621.00,2.07
9620.00,2.05
9619.00,2.04
9618.00,2.02
9617.00,2.00
9616.00,1.99
9615.00,1.97
9614.00,1.96
9613.00,1.94
9612.00,1.93
9611.00,1.92
9610.00,1.91
9609.00,1.90
9608.00,1.89
9607.00,1.89
9606.00,1.88
9605.00,1.88
9604.00,1.88
9603.00,1.89
9602.00,1.89
9601.00,1.90
9600.00,1.91
9599.00,1.92
9598.00,1.93
9597.00,1.95
9596.00,1.96
9595.00,1.98
9594.00,2.00
9593.00,2.02
9592.00,2.04
9591.00,2.06
9590.00,2.08
9589.00,2.10
9588.00,2.12
9587.00,2.14
9586.00,2.15
9585.00,2.17
9584.00,2.18
9583.00,2.19
9582.00,2.20
9581.00,2.21
9580.00,2.21
9579.00,2.22
9578.00,2.23
9577.00,2.23
9576.00,2.24
9575.00,2.24
9574.00,2.25
9573.00,2.25
9572.00,2.26
9571.00,2.27
9570.00,2.27
9569.00,2.27
9568.00,2.27
9567.00,2.27
9566.00,2.26
9565.00,2.25
9564.00,2.24
9563.00,2.23
9562.00,2.22
9561.00,2.21
9560.00,2.20
9559.00,2.19
9558.00,2.19
9557.00,2.18
9556.00,2.17
9555.00,2.16
9554.00,2.16
9553.00,2.15
9552.00,2.14
9551.00,2.13
9550.00,2.11
9549.00,2.10
9548.00,2.08
9547.00,2.06
9546.00,2.05
9545.00,2.03
9544.00,2.01
9543.00,1.99
9542.00,1.98
9541.00,1.97
9540.00,1.96
9539.00,1.95
9538.00,1.95
9537.00,1.95
9536.00,1.95
9535.00,1.95
9534.00,1.95
9533.00,1.95
9532.00,1.95
9531.00,1.96
9530.00,1.96
9529.00,1.97
9528.00,1.99
9527.00,2.00
9526.00,2.02
9525.00,2.05
9524.00,2.07
9523.00,2.10
9522.00,2.14
9521.00,2.17
9520.00,2.20
9519.00,2.24
9518.00,2.27
9517.00,2.31
9516.00,2.34
9515.00,2.38
9514.00,2.41
9513.00,2.44
9512.00,2.48
9511.00,2.51
9510.00,2.54
9509.00,2.57
9508.00,2.60
9507.00,2.63
9506.00,2.66
9505.00,2.68
9504.00,2.71
9503.00,2.72
9502.00,2.74
9501.00,2.75
9500.00,2.76
9499.00,2.76
9498.00,2.76
9497.00,2.75
9496.00,2.74
9495.00,2.74
9494.00,2.73
9493.00,2.72
9492.00,2.71
9491.00,2.70
9490.00,2.69
9489.00,2.69
9488.00,2.68
9487.00,2.67
9486.00,2.66
9485.00,2.65
9484.00,2.64
9483.00,2.63
9482.00,2.62
9481.00,2.60
9480.00,2.59
9479.00,2.58
9478.00,2.56
9477.00,2.56
9476.00,2.55
9475.00,2.54
9474.00,2.54
9473.00,2.54
9472.00,2.54
9471.00,2.55
9470.00,2.56
9469.00,2.57
9468.00,2.57
9467.00,2.58
9466.00,2.59
9465.00,2.60
9464.00,2.60
9463.00,2.60
9462.00,2.61
9461.00,2.61
9460.00,2.61
9459.00,2.61
9458.00,2.61
9457.00,2.61
9456.00,2.61
9455.00,2.61
9454.00,2.61
9453.00,2.60
9452.00,2.60
9451.00,2.60
9450.00,2.60
9449.00,2.59
9448.00,2.58
9447.00,2.57
9446.00,2.56
9445.00,2.54
9444.00,2.52
9443.00,2.50
9442.00,2.48
9441.00,2.46
9440.00,2.44
9439.00,2.41
9438.00,2.39
9437.00,2.36
9436.00,2.34
9435.00,2.31
9434.00,2.29
9433.00,2.27
9432.00,2.25
9431.00,2.23
9430.00,2.21
9429.00,2.19
9428.00,2.18
9427.00,2.16
9426.00,2.14
9425.00,2.12
9424.00,2.10
9423.00,2.08
9422.00,2.06
9421.00,2.05
9420.00,2.03
9419.00,2.02
9418.00,2.01
9417.00,2.00
9416.00,2.00
9415.00,1.99
9414.00,1.99
9413.00,1.99
9412.00,1.99
9411.00,1.98
9410.00,1.98
9409.00,1.97
9408.00,1.97
9407.00,1.96
9406.00,1.95
9405.00,1.94
9404.00,1.94
9403.00,1.93
9402.00,1.93
9401.00,1.93
9400.00,1.93
9399.00,1.94
9398.00,1.95
9397.00,1.96
9396.00,1.97
9395.00,1.98
9394.00,1.99
9393.00,2.01
9392.00,2.02
9391.00,2.03
9390.00,2.04
9389.00,2.05
9388.00,2.06
9387.00,2.07
9386.00,2.08
9385.00,2.09
9384.00,2.10
9383.00,2.11
9382.00,2.13
9381.00,2.14
9380.00,2.16
9379.00,2.17
9378.00,2.19
9377.00,2.20
9376.00,2.22
9375.00,2.22
9374.00,2.23
9373.00,2.24
9372.00,2.24
9371.00,2.23
9370.00,2.23
9369.00,2.22
9368.00,2.22
9367.00,2.21
9366.00,2.20
9365.00,2.20
9364.00,2.20
9363.00,2.20
9362.00,2.20
9361.00,2.20
9360.00,2.21
9359.00,2.22
9358.00,2.23
9357.00,2.25
9356.00,2.26
9355.00,2.28
9354.00,2.30
9353.00,2.32
9352.00,2.34
9351.00,2.36
9350.00,2.39
9349.00,2.41
9348.00,2.44
9347.00,2.46
9346.00,2.49
9345.00,2.51
9344.00,2.54
9343.00,2.57
9342.00,2.60
9341.00,2.63
9340.00,2.66
9339.00,2.68
9338.00,2.71
9337.00,2.73
9336.00,2.75
9335.00,2.76
9334.00,2.77
9333.00,2.78
9332.00,2.78
9331.00,2.78
9330.00,2.78
9329.00,2.77
9328.00,2.76
9327.00,2.75
9326.00,2.74
9325.00,2.72
9324.00,2.70
9323.00,2.68
9322.00,2.65
9321.00,2.63
9320.00,2.60
9319.00,2.58
9318.00,2.55
9317.00,2.52
9316.00,2.50
9315.00,2.47
9314.00,2.45
9313.00,2.43
9312.00,2.41
9311.00,2.40
9310.00,2.39
9309.00,2.37
9308.00,2.36
9307.00,2.35
9306.00,2.35
9305.00,2.34
9304.00,2.33
9303.00,2.33
9302.00,2.32
9301.00,2.32
9300.00,2.32
9299.00,2.32
9298.00,2.33
9297.00,2.33
9296.00,2.34
9295.00,2.35
9294.00,2.37
9293.00,2.38
9292.00,2.40
9291.00,2.42
9290.00,2.44
9289.00,2.45
9288.00,2.47
9287.00,2.48
9286.00,2.49
9285.00,2.50
9284.00,2.51
9283.00,2.52
9282.00,2.52
9281.00,2.53
9280.00,2.54
9279.00,2.54
9278.00,2.55
9277.00,2.56
9276.00,2.56
9275.00,2.57
9274.00,2.57
9273.00,2.58
9272.00,2.58
9271.00,2.59
9270.00,2.59
9269.00,2.60
9268.00,2.60
9267.00,2.60
9266.00,2.60
9265.00,2.60
9264.00,2.60
9263.00,2.59
9262.00,2.58
9261.00,2.58
9260.00,2.57
9259.00,2.56
9258.00,2.55
9257.00,2.54
9256.00,2.53
9255.00,2.52
9254.00,2.51
9253.00,2.50
9252.00,2.48
9251.00,2.46
9250.00,2.45
9249.00,2.43
9248.00,2.41
9247.00,2.38
9246.00,2.36
9245.00,2.33
9244.00,2.31
9243.00,2.28
9242.00,2.25
9241.00,2.22
9240.00,2.20
9239.00,2.17
9238.00,2.15
9237.00,2.12
9236.00,2.10
9235.00,2.08
9234.00,2.05
9233.00,2.03
9232.00,2.01
9231.00,1.99
9230.00,1.98
9229.00,1.96
9228.00,1.94
9227.00,1.93
9226.00,1.92
9225.00,1.91
9224.00,1.90
9223.00,1.89
9222.00,1.89
9221.00,1.88
9220.00,1.88
9219.00,1.88
9218.00,1.88
9217.00,1.89
9216.00,1.89
9215.00,1.89
9214.00,1.89
9213.00,1.89
9212.00,1.89
9211.00,1.89
9210.00,1.89
9209.00,1.89
9208.00,1.89
9207.00,1.89
9206.00,1.89
9205.00,1.89
9204.00,1.90
9203.00,1.90
9202.00,1.90
9201.00,1.90
9200.00,1.90
9199.00,1.91
9198.00,1.91
9197.00,1.91
9196.00,1.91
9195.00,1.92
9194.00,1.92
9193.00,1.92
9192.00,1.92
9191.00,1.92
9190.00,1.92
9189.00,1.93
9188.00,1.93
9187.00,1.94
9186.00,1.94
9185.00,1.95
9184.00,1.96
9183.00,1.97
9182.00,1.98
9181.00,1.99
9180.00,2.00
9179.00,2.01
9178.00,2.03
9177.00,2.04
9176.00,2.05
9175.00,2.07
9174.00,2.08
9173.00,2.09
9172.00,2.10
9171.00,2.11
9170.00,2.12
9169.00,2.12
9168.00,2.13
9167.00,2.14
9166.00,2.14
9165.00,2.15
9164.00,2.16
9163.00,2.17
9162.00,2.17
9161.00,2.18
9160.00,2.19
9159.00,2.19
9158.00,2.20
9157.00,2.20
9156.00,2.21
9155.00,2.21
9154.00,2.21
9153.00,2.21
9152.00,2.21
9151.00,2.20
9150.00,2.20
9149.00,2.20
9148.00,2.20
9147.00,2.20
9146.00,2.20
9145.00,2.21
9144.00,2.21
9143.00,2.22
9142.00,2.23
9141.00,2.23
9140.00,2.24
9139.00,2.25
9138.00,2.26
9137.00,2.27
9136.00,2.28
9135.00,2.28
9134.00,2.29
9133.00,2.30
9132.00,2.31
9131.00,2.32
9130.00,2.33
9129.00,2.34
9128.00,2.35
9127.00,2.36
9126.00,2.37
9125.00,2.38
9124.00,2.39
9123.00,2.40
9122.00,2.41
9121.00,2.42
9120.00,2.42
9119.00,2.43
9118.00,2.43
9117.00,2.43
9116.00,2.43
9115.00,2.43
9114.00,2.43
9113.00,2.42
9112.00,2.42
9111.00,2.41
9110.00,2.41
9109.00,2.40
9108.00,2.39
9107.00,2.38
9106.00,2.37
9105.00,2.36
9104.00,2.35
9103.00,2.34
9102.00,2.33
9101.00,2.31
9100.00,2.30
9099.00,2.28
9098.00,2.26
9097.00,2.24
9096.00,2.23
9095.00,2.21
9094.00,2.19
9093.00,2.17
9092.00,2.15
9091.00,2.13
9090.00,2.11
9089.00,2.09
9088.00,2.08
9087.00,2.06
9086.00,2.05
9085.00,2.04
9084.00,2.03
9083.00,2.02
9082.00,2.01
9081.00,2.00
9080.00,2.00
9079.00,1.99
9078.00,1.98
9077.00,1.97
9076.00,1.97
9075.00,1.96
9074.00,1.95
9073.00,1.94
9072.00,1.94
9071.00,1.93
9070.00,1.92
9069.00,1.92
9068.00,1.92
9067.00,1.92
9066.00,1.92
9065.00,1.92
9064.00,1.92
9063.00,1.92
9062.00,1.92
9061.00,1.93
9060.00,1.93
9059.00,1.94
9058.00,1.94
9057.00,1.94
9056.00,1.94
9055.00,1.94
9054.00,1.94
9053.00,1.94
9052.00,1.94
9051.00,1.94
9050.00,1.94
9049.00,1.94
9048.00,1.94
9047.00,1.95
9046.00,1.95
9045.00,1.96
9044.00,1.96
9043.00,1.97
9042.00,1.97
9041.00,1.98
9040.00,1.99
9039.00,1.99
9038.00,2.00
9037.00,2.01
9036.00,2.01
9035.00,2.01
9034.00,2.02
9033.00,2.02
9032.00,2.01
9031.00,2.01
9030.00,2.01
9029.00,2.00
9028.00,2.00
9027.00,1.99
9026.00,1.99
9025.00,1.99
9024.00,1.99
9023.00,1.99
9022.00,1.99
9021.00,1.99
9020.00,2.00
9019.00,2.00
9018.00,2.01
9017.00,2.02
9016.00,2.02
9015.00,2.03
9014.00,2.03
9013.00,2.03
9012.00,2.04
9011.00,2.03
9010.00,2.03
9009.00,2.03
9008.00,2.02
9007.00,2.02
9006.00,2.02
9005.00,2.01
9004.00,2.01
9003.00,2.01
9002.00,2.01
9001.00,2.01
9000.00,2.01
8999.00,2.01
8998.00,2.00
8997.00,2.00
8996.00,1.99
8995.00,1.98
8994.00,1.97
8993.00,1.96
8992.00,1.94
8991.00,1.93
8990.00,1.91
8989.00,1.89
8988.00,1.88
8987.00,1.86
8986.00,1.85
8985.00,1.84
8984.00,1.82
8983.00,1.82
8982.00,1.81
8981.00,1.80
8980.00,1.79
8979.00,1.79
8978.00,1.79
8977.00,1.78
8976.00,1.78
8975.00,1.78
8974.00,1.78
8973.00,1.78
8972.00,1.78
8971.00,1.78
8970.00,1.79
8969.00,1.80
8968.00,1.80
8967.00,1.81
8966.00,1.81
8965.00,1.82
8964.00,1.83
8963.00,1.84
8962.00,1.85
8961.00,1.85
8960.00,1.86
8959.00,1.88
8958.00,1.89
8957.00,1.90
8956.00,1.92
8955.00,1.93
8954.00,1.95
8953.00,1.97
8952.00,1.99
8951.00,2.02
8950.00,2.04
8949.00,2.05
8948.00,2.07
8947.00,2.09
8946.00,2.11
8945.00,2.12
8944.00,2.14
8943.00,2.16
8942.00,2.17
8941.00,2.19
8940.00,2.21
8939.00,2.22
8938.00,2.24
8937.00,2.26
8936.00,2.27
8935.00,2.29
8934.00,2.30
8933.00,2.32
8932.00,2.33
8931.00,2.33
8930.00,2.34
8929.00,2.35
8928.00,2.35
8927.00,2.35
8926.00,2.35
8925.00,2.35
8924.00,2.34
8923.00,2.34
8922.00,2.33
8921.00,2.33
8920.00,2.32
8919.00,2.32
8918.00,2.31
8917.00,2.30
8916.00,2.29
8915.00,2.28
8914.00,2.27
8913.00,2.26
8912.00,2.25
8911.00,2.24
8910.00,2.23
8909.00,2.22
8908.00,2.20
8907.00,2.19
8906.00,2.18
8905.00,2.17
8904.00,2.15
8903.00,2.14
8902.00,2.12
8901.00,2.11
8900.00,2.10
8899.00,2.08
8898.00,2.07
8897.00,2.06
8896.00,2.06
8895.00,2.05
8894.00,2.05
8893.00,2.05
8892.00,2.04
8891.00,2.05
8890.00,2.05
8889.00,2.05
8888.00,2.06
8887.00,2.07
8886.00,2.08
8885.00,2.08
8884.00,2.09
8883.00,2.11
8882.00,2.12
8881.00,2.13
8880.00,2.14
8879.00,2.16
8878.00,2.18
8877.00,2.20
8876.00,2.22
8875.00,2.24
8874.00,2.26
8873.00,2.27
8872.00,2.29
8871.00,2.30
8870.00,2.31
8869.00,2.32
8868.00,2.33
8867.00,2.33
8866.00,2.33
8865.00,2.33
8864.00,2.33
8863.00,2.32
8862.00,2.31
8861.00,2.30
8860.00,2.29
8859.00,2.28
8858.00,2.27
8857.00,2.26
8856.00,2.25
8855.00,2.23
8854.00,2.22
8853.00,2.21
8852.00,2.19
8851.00,2.17
8850.00,2.15
8849.00,2.14
8848.00,2.12
8847.00,2.10
8846.00,2.09
8845.00,2.08
8844.00,2.07
8843.00,2.06
8842.00,2.06
8841.00,2.05
8840.00,2.05
8839.00,2.06
8838.00,2.06
8837.00,2.06
8836.00,2.07
8835.00,2.08
8834.00,2.09
8833.00,2.10
8832.00,2.10
8831.00,2.11
8830.00,2.12
8829.00,2.13
8828.00,2.14
8827.00,2.15
8826.00,2.16
8825.00,2.18
8824.00,2.19
8823.00,2.20
8822.00,2.22
8821.00,2.23
8820.00,2.24
8819.00,2.26
8818.00,2.27
8817.00,2.28
8816.00,2.28
8815.00,2.29
8814.00,2.30
8813.00,2.30
8812.00,2.30
8811.00,2.30
8810.00,2.30
8809.00,2.30
8808.00,2.30
8807.00,2.30
8806.00,2.30
8805.00,2.30
8804.00,2.29
8803.00,2.29
8802.00,2.29
8801.00,2.28
8800.00,2.27
8799.00,2.27
8798.00,2.26
8797.00,2.25
8796.00,2.24
8795.00,2.22
8794.00,2.21
8793.00,2.20
8792.00,2.19
8791.00,2.18
8790.00,2.16
8789.00,2.15
8788.00,2.14
8787.00,2.13
8786.00,2.11
8785.00,2.10
8784.00,2.09
8783.00,2.08
8782.00,2.07
8781.00,2.06
8780.00,2.05
8779.00,2.04
8778.00,2.03
8777.00,2.03
8776.00,2.02
8775.00,2.01
8774.00,2.00
8773.00,1.99
8772.00,1.99
8771.00,1.98
8770.00,1.98
8769.00,1.97
8768.00,1.97
8767.00,1.97
8766.00,1.96
8765.00,1.96
8764.00,1.96
8763.00,1.96
8762.00,1.96
8761.00,1.96
8760.00,1.96
8759.00,1.97
8758.00,1.97
8757.00,1.98
8756.00,1.98
8755.00,1.99
8754.00,2.00
8753.00,2.02
8752.00,2.03
8751.00,2.05
8750.00,2.06
8749.00,2.08
8748.00,2.09
8747.00,2.11
8746.00,2.12
8745.00,2.13
8744.00,2.14
8743.00,2.15
8742.00,2.16
8741.00,2.17
8740.00,2.18
8739.00,2.19
8738.00,2.20
8737.00,2.21
8736.00,2.21
8735.00,2.22
8734.00,2.23
8733.00,2.23
8732.00,2.24
8731.00,2.24
8730.00,2.24
8729.00,2.23
8728.00,2.22
8727.00,2.21
8726.00,2.20
8725.00,2.19
8724.00,2.18
8723.00,2.17
8722.00,2.16
8721.00,2.15
8720.00,2.15
8719.00,2.15
8718.00,2.15
8717.00,2.15
8716.00,2.16
8715.00,2.16
8714.00,2.17
8713.00,2.18
8712.00,2.19
8711.00,2.20
8710.00,2.21
8709.00,2.22
8708.00,2.23
8707.00,2.25
8706.00,2.26
8705.00,2.28
8704.00,2.30
8703.00,2.32
8702.00,2.34
8701.00,2.36
8700.00,2.39
8699.00,2.41
8698.00,2.43
8697.00,2.46
8696.00,2.48
8695.00,2.50
8694.00,2.51
8693.00,2.53
8692.00,2.54
8691.00,2.55
8690.00,2.56
8689.00,2.56
8688.00,2.56
8687.00,2.56
8686.00,2.56
8685.00,2.55
8684.00,2.54
8683.00,2.52
8682.00,2.51
8681.00,2.49
8680.00,2.48
8679.00,2.46
8678.00,2.44
8677.00,2.42
8676.00,2.40
8675.00,2.38
8674.00,2.36
8673.00,2.33
8672.00,2.31
8671.00,2.28
8670.00,2.26
8669.00,2.23
8668.00,2.21
8667.00,2.18
8666.00,2.16
8665.00,2.13
8664.00,2.11
8663.00,2.09
8662.00,2.07
8661.00,2.06
8660.00,2.04
8659.00,2.03
8658.00,2.02
8657.00,2.02
8656.00,2.01
8655.00,2.01
8654.00,2.00
8653.00,2.00
8652.00,1.99
8651.00,1.99
8650.00,1.98
8649.00,1.98
8648.00,1.97
8647.00,1.97
8646.00,1.96
8645.00,1.96
8644.00,1.95
8643.00,1.95
8642.00,1.95
8641.00,1.95
8640.00,1.96
8639.00,1.96
8638.00,1.96
8637.00,1.97
8636.00,1.97
8635.00,1.98
8634.00,1.98
8633.00,1.99
8632.00,1.99
8631.00,2.00
8630.00,2.01
8629.00,2.01
8628.00,2.02
8627.00,2.04
8626.00,2.05
8625.00,2.06
8624.00,2.08
8623.00,2.10
8622.00,2.11
8621.00,2.13
8620.00,2.15
8619.00,2.17
8618.00,2.19
8617.00,2.22
8616.00,2.24
8615.00,2.25
8614.00,2.27
8613.00,2.29
8612.00,2.30
8611.00,2.31
8610.00,2.33
8609.00,2.34
8608.00,2.34
8607.00,2.35
8606.00,2.36
8605.00,2.36
8604.00,2.36
8603.00,2.36
8602.00,2.35
8601.00,2.35
8600.00,2.34
8599.00,2.34
8598.00,2.33
8597.00,2.32
8596.00,2.31
8595.00,2.30
8594.00,2.29
8593.00,2.28
8592.00,2.27
8591.00,2.26
8590.00,2.25
8589.00,2.24
8588.00,2.23
8587.00,2.22
8586.00,2.21
8585.00,2.20
8584.00,2.19
8583.00,2.19
8582.00,2.18
8581.00,2.18
8580.00,2.18
8579.00,2.18
8578.00,2.18
8577.00,2.18
8576.00,2.19
8575.00,2.19
8574.00,2.19
8573.00,2.20
8572.00,2.20
8571.00,2.20
8570.00,2.21
8569.00,2.21
8568.00,2.21
8567.00,2.21
8566.00,2.22
8565.00,2.22
8564.00,2.22
8563.00,2.22
8562.00,2.22
8561.00,2.22
8560.00,2.22
8559.00,2.22
8558.00,2.21
8557.00,2.21
8556.00,2.21
8555.00,2.20
8554.00,2.20
8553.00,2.20
8552.00,2.19
8551.00,2.19
8550.00,2.18
8549.00,2.18
8548.00,2.17
8547.00,2.17
8546.00,2.17
8545.00,2.16
8544.00,2.16
8543.00,2.15
8542.00,2.15
8541.00,2.14
8540.00,2.14
8539.00,2.14
8538.00,2.14
8537.00,2.13
8536.00,2.13
8535.00,2.13
8534.00,2.13
8533.00,2.13
8532.00,2.13
8531.00,2.13
8530.00,2.13
8529.00,2.13
8528.00,2.13
8527.00,2.13
8526.00,2.13
8525.00,2.12
8524.00,2.12
8523.00,2.12
8522.00,2.12
8521.00,2.13
8520.00,2.13
8519.00,2.13
8518.00,2.13
8517.00,2.14
8516.00,2.14
8515.00,2.15
8514.00,2.15
8513.00,2.16
8512.00,2.16
8511.00,2.16
8510.00,2.17
8509.00,2.18
8508.00,2.18
8507.00,2.19
8506.00,2.20
8505.00,2.21
8504.00,2.22
8503.00,2.23
8502.00,2.24
8501.00,2.26
8500.00,2.27
8499.00,2.29
8498.00,2.30
8497.00,2.31
8496.00,2.33
8495.00,2.34
8494.00,2.35
8493.00,2.36
8492.00,2.37
8491.00,2.38
8490.00,2.39
8489.00,2.39
8488.00,2.40
8487.00,2.41
8486.00,2.41
8485.00,2.42
8484.00,2.43
8483.00,2.43
8482.00,2.44
8481.00,2.44
8480.00,2.44
8479.00,2.44
8478.00,2.44
8477.00,2.43
8476.00,2.42
8475.00,2.41
8474.00,2.40
8473.00,2.38
8472.00,2.36
8471.00,2.35
8470.00,2.33
8469.00,2.31
8468.00,2.29
8467.00,2.27
8466.00,2.25
8465.00,2.23
8464.00,2.22
8463.00,2.20
8462.00,2.19
8461.00,2.18
8460.00,2.16
8459.00,2.15
8458.00,2.14
8457.00,2.13
8456.00,2.11
8455.00,2.10
8454.00,2.10
8453.00,2.09
8452.00,2.08
8451.00,2.08
8450.00,2.08
8449.00,2.08
8448.00,2.09
8447.00,2.10
8446.00,2.11
8445.00,2.12
8444.00,2.14
8443.00,2.16
8442.00,2.17
8441.00,2.19
8440.00,2.21
8439.00,2.22
8438.00,2.24
8437.00,2.25
8436.00,2.26
8435.00,2.27
8434.00,2.28
8433.00,2.28
8432.00,2.29
8431.00,2.29
8430.00,2.30
8429.00,2.30
8428.00,2.31
8427.00,2.31
8426.00,2.31
8425.00,2.31
8424.00,2.31
8423.00,2.31
8422.00,2.31
8421.00,2.31
8420.00,2.30
8419.00,2.30
8418.00,2.29
8417.00,2.28
8416.00,2.27
8415.00,2.26
8414.00,2.25
8413.00,2.24
8412.00,2.23
8411.00,2.22
8410.00,2.21
8409.00,2.20
8408.00,2.19
8407.00,2.18
8406.00,2.17
8405.00,2.16
8404.00,2.15
8403.00,2.14
8402.00,2.13
8401.00,2.12
8400.00,2.11
8399.00,2.10
8398.00,2.09
8397.00,2.08
8396.00,2.08
8395.00,2.07
8394.00,2.06
8393.00,2.05
8392.00,2.04
8391.00,2.03
8390.00,2.03
8389.00,2.02
8388.00,2.01
8387.00,2.01
8386.00,2.00
8385.00,2.00
8384.00,1.99
8383.00,1.99
8382.00,1.99
8381.00,1.98
8380.00,1.98
8379.00,1.97
8378.00,1.97
8377.00,1.97
8376.00,1.96
8375.00,1.96
8374.00,1.95
8373.00,1.95
8372.00,1.94
8371.00,1.94
8370.00,1.94
8369.00,1.94
8368.00,1.93
8367.00,1.93
8366.00,1.93
8365.00,1.93
8364.00,1.94
8363.00,1.94
8362.00,1.94
8361.00,1.94
8360.00,1.94
8359.00,1.94
8358.00,1.95
8357.00,1.95
8356.00,1.95
8355.00,1.96
8354.00,1.96
8353.00,1.97
8352.00,1.98
8351.00,1.99
8350.00,2.01
8349.00,2.02
8348.00,2.03
8347.00,2.05
8346.00,2.06
8345.00,2.08
8344.00,2.09
8343.00,2.10
8342.00,2.10
8341.00,2.11
8340.00,2.11
8339.00,2.12
8338.00,2.12
8337.00,2.12
8336.00,2.13
8335.00,2.13
8334.00,2.14
8333.00,2.14
8332.00,2.15
8331.00,2.15
8330.00,2.16
8329.00,2.17
8328.00,2.17
8327.00,2.18
8326.00,2.18
8325.00,2.18
8324.00,2.19
8323.00,2.19
8322.00,2.19
8321.00,2.19
8320.00,2.19
8319.00,2.20
8318.00,2.20
8317.00,2.21
8316.00,2.22
8315.00,2.23
8314.00,2.24
8313.00,2.25
8312.00,2.26
8311.00,2.27
8310.00,2.28
8309.00,2.29
8308.00,2.30
8307.00,2.30
8306.00,2.31
8305.00,2.31
8304.00,2.32
8303.00,2.32
8302.00,2.32
8301.00,2.33
8300.00,2.33
8299.00,2.33
8298.00,2.33
8297.00,2.33
8296.00,2.33
8295.00,2.33
8294.00,2.33
8293.00,2.32
8292.00,2.32
8291.00,2.32
8290.00,2.31
8289.00,2.31
8288.00,2.31
8287.00,2.31
8286.00,2.31
8285.00,2.31
8284.00,2.31
8283.00,2.32
8282.00,2.32
8281.00,2.32
8280.00,2.33
8279.00,2.33
8278.00,2.34
8277.00,2.34
8276.00,2.35
8275.00,2.35
8274.00,2.35
8273.00,2.36
8272.00,2.37
8271.00,2.37
8270.00,2.38
8269.00,2.38
8268.00,2.39
8267.00,2.39
8266.00,2.40
8265.00,2.40
8264.00,2.40
8263.00,2.40
8262.00,2.40
8261.00,2.40
8260.00,2.39
8259.00,2.39
8258.00,2.38
8257.00,2.38
8256.00,2.37
8255.00,2.37
8254.00,2.36
8253.00,2.35
8252.00,2.35
8251.00,2.34
8250.00,2.33
8249.00,2.33
8248.00,2.32
8247.00,2.32
8246.00,2.31
8245.00,2.30
8244.00,2.30
8243.00,2.30
8242.00,2.29
8241.00,2.29
8240.00,2.29
8239.00,2.28
8238.00,2.28
8237.00,2.28
8236.00,2.28
8235.00,2.28
8234.00,2.28
8233.00,2.27
8232.00,2.27
8231.00,2.27
8230.00,2.27
8229.00,2.27
8228.00,2.26
8227.00,2.26
8226.00,2.26
8225.00,2.26
8224.00,2.25
8223.00,2.25
8222.00,2.25
8221.00,2.24
8220.00,2.24
8219.00,2.23
8218.00,2.22
8217.00,2.22
8216.00,2.21
8215.00,2.21
8214.00,2.20
8213.00,2.19
8212.00,2.19
8211.00,2.18
8210.00,2.18
8209.00,2.17
8208.00,2.17
8207.00,2.17
8206.00,2.16
8205.00,2.17
8204.00,2.17
8203.00,2.17
8202.00,2.17
8201.00,2.17
8200.00,2.18
8199.00,2.18
8198.00,2.18
8197.00,2.18
8196.00,2.19
8195.00,2.19
8194.00,2.20
8193.00,2.20
8192.00,2.21
8191.00,2.21
8190.00,2.22
8189.00,2.23
8188.00,2.23
8187.00,2.24
8186.00,2.25
8185.00,2.25
8184.00,2.26
8183.00,2.27
8182.00,2.28
8181.00,2.28
8180.00,2.29
8179.00,2.29
8178.00,2.30
8177.00,2.30
8176.00,2.30
8175.00,2.30
8174.00,2.30
8173.00,2.31
8172.00,2.31
8171.00,2.32
8170.00,2.32
8169.00,2.33
8168.00,2.33
8167.00,2.34
8166.00,2.35
8165.00,2.35
8164.00,2.36
8163.00,2.37
8162.00,2.38
8161.00,2.39
8160.00,2.40
8159.00,2.40
8158.00,2.41
8157.00,2.42
8156.00,2.43
8155.00,2.43
8154.00,2.44
8153.00,2.45
8152.00,2.45
8151.00,2.46
8150.00,2.46
8149.00,2.47
8148.00,2.48
8147.00,2.48
8146.00,2.49
8145.00,2.50
8144.00,2.50
8143.00,2.51
8142.00,2.51
8141.00,2.51
8140.00,2.51
8139.00,2.52
8138.00,2.52
8137.00,2.52
8136.00,2.52
8135.00,2.51
8134.00,2.51
8133.00,2.51
8132.00,2.50
8131.00,2.49
8130.00,2.49
8129.00,2.48
8128.00,2.48
8127.00,2.47
8126.00,2.47
8125.00,2.47
8124.00,2.46
8123.00,2.46
8122.00,2.46
8121.00,2.45
8120.00,2.44
8119.00,2.44
8118.00,2.43
8117.00,2.42
8116.00,2.41
8115.00,2.40
8114.00,2.39
8113.00,2.37
8112.00,2.36
8111.00,2.35
8110.00,2.34
8109.00,2.33
8108.00,2.32
8107.00,2.31
8106.00,2.31
8105.00,2.30
8104.00,2.29
8103.00,2.29
8102.00,2.29
8101.00,2.28
8100.00,2.28
8099.00,2.27
8098.00,2.27
8097.00,2.26
8096.00,2.26
8095.00,2.26
8094.00,2.25
8093.00,2.25
8092.00,2.25
8091.00,2.25
8090.00,2.25
8089.00,2.25
8088.00,2.25
8087.00,2.26
8086.00,2.26
8085.00,2.26
8084.00,2.27
8083.00,2.27
8082.00,2.27
8081.00,2.28
8080.00,2.27
8079.00,2.27
8078.00,2.27
8077.00,2.27
8076.00,2.27
8075.00,2.27
8074.00,2.27
8073.00,2.27
8072.00,2.27
8071.00,2.27
8070.00,2.27
8069.00,2.27
8068.00,2.28
8067.00,2.28
8066.00,2.28
8065.00,2.29
8064.00,2.29
8063.00,2.29
8062.00,2.29
8061.00,2.29
8060.00,2.29
8059.00,2.29
8058.00,2.29
8057.00,2.29
8056.00,2.29
8055.00,2.29
8054.00,2.29
8053.00,2.30
8052.00,2.30
8051.00,2.30
8050.00,2.31
8049.00,2.31
8048.00,2.31
8047.00,2.30
8046.00,2.30
8045.00,2.29
8044.00,2.29
8043.00,2.28
8042.00,2.27
8041.00,2.26
8040.00,2.25
8039.00,2.24
8038.00,2.23
8037.00,2.23
8036.00,2.22
8035.00,2.21
8034.00,2.20
8033.00,2.19
8032.00,2.19
8031.00,2.18
8030.00,2.17
8029.00,2.17
8028.00,2.16
8027.00,2.16
8026.00,2.15
8025.00,2.15
8024.00,2.15
8023.00,2.14
8022.00,2.14
8021.00,2.15
8020.00,2.15
8019.00,2.15
8018.00,2.15
8017.00,2.16
8016.00,2.16
8015.00,2.17
8014.00,2.17
8013.00,2.17
8012.00,2.18
8011.00,2.18
8010.00,2.19
8009.00,2.20
8008.00,2.20
8007.00,2.21
8006.00,2.22
8005.00,2.23
8004.00,2.24
8003.00,2.25
8002.00,2.25
8001.00,2.26
8000.00,2.27
7999.00,2.27
7998.00,2.27
7997.00,2.28
7996.00,2.28
7995.00,2.28
7994.00,2.28
7993.00,2.28
7992.00,2.28
7991.00,2.29
7990.00,2.29
7989.00,2.29
7988.00,2.29
7987.00,2.29
7986.00,2.30
7985.00,2.30
7984.00,2.30
7983.00,2.30
7982.00,2.30
7981.00,2.30
7980.00,2.30
7979.00,2.29
7978.00,2.29
7977.00,2.29
7976.00,2.28
7975.00,2.28
7974.00,2.28
7973.00,2.28
7972.00,2.27
7971.00,2.27
7970.00,2.28
7969.00,2.28
7968.00,2.28
7967.00,2.28
7966.00,2.29
7965.00,2.29
7964.00,2.29
7963.00,2.30
7962.00,2.30
7961.00,2.31
7960.00,2.31
7959.00,2.31
7958.00,2.32
7957.00,2.32
7956.00,2.32
7955.00,2.32
7954.00,2.33
7953.00,2.33
7952.00,2.34
7951.00,2.34
7950.00,2.35
7949.00,2.35
7948.00,2.36
7947.00,2.36
7946.00,2.37
7945.00,2.37
7944.00,2.38
7943.00,2.38
7942.00,2.38
7941.00,2.38
7940.00,2.38
7939.00,2.38
7938.00,2.37
7937.00,2.37
7936.00,2.37
7935.00,2.37
7934.00,2.37
7933.00,2.37
7932.00,2.37
7931.00,2.37
7930.00,2.36
7929.00,2.36
7928.00,2.36
7927.00,2.36
7926.00,2.36
7925.00,2.36
7924.00,2.35
7923.00,2.35
7922.00,2.35
7921.00,2.34
7920.00,2.34
7919.00,2.34
7918.00,2.34
7917.00,2.34
7916.00,2.34
7915.00,2.34
7914.00,2.35
7913.00,2.35
7912.00,2.36
7911.00,2.36
7910.00,2.37
7909.00,2.38
7908.00,2.38
7907.00,2.39
7906.00,2.39
7905.00,2.40
7904.00,2.40
7903.00,2.41
7902.00,2.42
7901.00,2.43
7900.00,2.43
7899.00,2.44
7898.00,2.45
7897.00,2.46
7896.00,2.46
7895.00,2.47
7894.00,2.47
7893.00,2.48
7892.00,2.48
7891.00,2.48
7890.00,2.48
7889.00,2.48
7888.00,2.48
7887.00,2.47
7886.00,2.47
7885.00,2.46
7884.00,2.45
7883.00,2.45
7882.00,2.44
7881.00,2.44
7880.00,2.43
7879.00,2.42
7878.00,2.42
7877.00,2.41
7876.00,2.40
7875.00,2.39
7874.00,2.39
7873.00,2.38
7872.00,2.37
7871.00,2.36
7870.00,2.35
7869.00,2.34
7868.00,2.33
7867.00,2.33
7866.00,2.32
7865.00,2.31
7864.00,2.31
7863.00,2.31
7862.00,2.31
7861.00,2.31
7860.00,2.31
7859.00,2.31
7858.00,2.31
7857.00,2.31
7856.00,2.31
7855.00,2.32
7854.00,2.32
7853.00,2.32
7852.00,2.33
7851.00,2.33
7850.00,2.34
7849.00,2.34
7848.00,2.35
7847.00,2.36
7846.00,2.37
7845.00,2.38
7844.00,2.40
7843.00,2.41
7842.00,2.42
7841.00,2.43
7840.00,2.45
7839.00,2.46
7838.00,2.47
7837.00,2.48
7836.00,2.49
7835.00,2.50
7834.00,2.51
7833.00,2.52
7832.00,2.53
7831.00,2.53
7830.00,2.54
7829.00,2.55
7828.00,2.55
7827.00,2.56
7826.00,2.57
7825.00,2.57
7824.00,2.58
7823.00,2.59
7822.00,2.59
7821.00,2.59
7820.00,2.60
7819.00,2.60
7818.00,2.61
7817.00,2.61
7816.00,2.61
7815.00,2.62
7814.00,2.62
7813.00,2.63
7812.00,2.63
7811.00,2.63
7810.00,2.64
7809.00,2.64
7808.00,2.65
7807.00,2.66
7806.00,2.66
7805.00,2.66
7804.00,2.67
7803.00,2.67
7802.00,2.67
7801.00,2.67
7800.00,2.67
7799.00,2.67
7798.00,2.66
7797.00,2.66
7796.00,2.66
7795.00,2.65
7794.00,2.65
7793.00,2.64
7792.00,2.63
7791.00,2.62
7790.00,2.61
7789.00,2.60
7788.00,2.59
7787.00,2.57
7786.00,2.55
7785.00,2.54
7784.00,2.52
7783.00,2.50
7782.00,2.48
7781.00,2.47
7780.00,2.45
7779.00,2.43
7778.00,2.42
7777.00,2.41
7776.00,2.39
7775.00,2.38
7774.00,2.37
7773.00,2.36
7772.00,2.36
7771.00,2.35
7770.00,2.34
7769.00,2.33
7768.00,2.33
7767.00,2.32
7766.00,2.32
7765.00,2.32
7764.00,2.31
7763.00,2.31
7762.00,2.32
7761.00,2.32
7760.00,2.32
7759.00,2.33
7758.00,2.33
7757.00,2.34
7756.00,2.34
7755.00,2.35
7754.00,2.36
7753.00,2.36
7752.00,2.37
7751.00,2.37
7750.00,2.37
7749.00,2.38
7748.00,2.38
7747.00,2.38
7746.00,2.38
7745.00,2.38
7744.00,2.38
7743.00,2.38
7742.00,2.38
7741.00,2.38
7740.00,2.38
7739.00,2.37
7738.00,2.37
7737.00,2.37
7736.00,2.37
7735.00,2.36
7734.00,2.36
7733.00,2.36
7732.00,2.35
7731.00,2.35
7730.00,2.35
7729.00,2.35
7728.00,2.35
7727.00,2.35
7726.00,2.35
7725.00,2.36
7724.00,2.36
7723.00,2.36
7722.00,2.37
7721.00,2.37
7720.00,2.37
7719.00,2.37
7718.00,2.38
7717.00,2.38
7716.00,2.38
7715.00,2.38
7714.00,2.39
7713.00,2.39
7712.00,2.40
7711.00,2.40
7710.00,2.40
7709.00,2.41
7708.00,2.42
7707.00,2.42
7706.00,2.43
7705.00,2.43
7704.00,2.43
7703.00,2.43
7702.00,2.44
7701.00,2.44
7700.00,2.43
7699.00,2.43
7698.00,2.43
7697.00,2.43
7696.00,2.44
7695.00,2.44
7694.00,2.44
7693.00,2.44
7692.00,2.45
7691.00,2.45
7690.00,2.45
7689.00,2.46
7688.00,2.46
7687.00,2.46
7686.00,2.46
7685.00,2.46
7684.00,2.46
7683.00,2.46
7682.00,2.45
7681.00,2.45
7680.00,2.44
7679.00,2.44
7678.00,2.43
7677.00,2.42
7676.00,2.42
7675.00,2.41
7674.00,2.41
7673.00,2.41
7672.00,2.40
7671.00,2.40
7670.00,2.39
7669.00,2.38
7668.00,2.38
7667.00,2.37
7666.00,2.36
7665.00,2.35
7664.00,2.35
7663.00,2.34
7662.00,2.33
7661.00,2.32
7660.00,2.32
7659.00,2.31
7658.00,2.31
7657.00,2.31
7656.00,2.31
7655.00,2.31
7654.00,2.31
7653.00,2.31
7652.00,2.32
7651.00,2.32
7650.00,2.33
7649.00,2.33
7648.00,2.33
7647.00,2.34
7646.00,2.34
7645.00,2.35
7644.00,2.35
7643.00,2.35
7642.00,2.36
7641.00,2.36
7640.00,2.37
7639.00,2.37
7638.00,2.38
7637.00,2.38
7636.00,2.39
7635.00,2.39
7634.00,2.40
7633.00,2.40
7632.00,2.40
7631.00,2.41
7630.00,2.41
7629.00,2.41
7628.00,2.41
7627.00,2.41
7626.00,2.40
7625.00,2.40
7624.00,2.40
7623.00,2.39
7622.00,2.39
7621.00,2.39
7620.00,2.38
7619.00,2.38
7618.00,2.37
7617.00,2.37
7616.00,2.36
7615.00,2.36
7614.00,2.36
7613.00,2.36
7612.00,2.36
7611.00,2.36
7610.00,2.36
7609.00,2.36
7608.00,2.36
7607.00,2.36
7606.00,2.36
7605.00,2.37
7604.00,2.37
7603.00,2.38
7602.00,2.39
7601.00,2.40
7600.00,2.40
7599.00,2.41
7598.00,2.42
7597.00,2.43
7596.00,2.44
7595.00,2.45
7594.00,2.46
7593.00,2.47
7592.00,2.49
7591.00,2.50
7590.00,2.51
7589.00,2.52
7588.00,2.52
7587.00,2.53
7586.00,2.54
7585.00,2.54
7584.00,2.54
7583.00,2.54
7582.00,2.54
7581.00,2.54
7580.00,2.54
7579.00,2.54
7578.00,2.54
7577.00,2.54
7576.00,2.53
7575.00,2.53
7574.00,2.52
7573.00,2.52
7572.00,2.51
7571.00,2.50
7570.00,2.49
7569.00,2.48
7568.00,2.48
7567.00,2.47
7566.00,2.46
7565.00,2.45
7564.00,2.45
7563.00,2.44
7562.00,2.43
7561.00,2.43
7560.00,2.42
7559.00,2.42
7558.00,2.41
7557.00,2.41
7556.00,2.40
7555.00,2.40
7554.00,2.39
7553.00,2.38
7552.00,2.38
7551.00,2.37
7550.00,2.37
7549.00,2.36
7548.00,2.35
7547.00,2.35
7546.00,2.34
7545.00,2.34
7544.00,2.33
7543.00,2.32
7542.00,2.32
7541.00,2.31
7540.00,2.31
7539.00,2.30
7538.00,2.30
7537.00,2.30
7536.00,2.29
7535.00,2.29
7534.00,2.28
7533.00,2.28
7532.00,2.28
7531.00,2.28
7530.00,2.27
7529.00,2.27
7528.00,2.27
7527.00,2.28
7526.00,2.28
7525.00,2.28
7524.00,2.28
7523.00,2.29
7522.00,2.29
7521.00,2.29
7520.00,2.30
7519.00,2.30
7518.00,2.31
7517.00,2.31
7516.00,2.32
7515.00,2.32
7514.00,2.32
7513.00,2.32
7512.00,2.32
7511.00,2.33
7510.00,2.32
7509.00,2.32
7508.00,2.32
7507.00,2.32
7506.00,2.32
7505.00,2.32
7504.00,2.32
7503.00,2.32
7502.00,2.32
7501.00,2.32
7500.00,2.31
7499.00,2.31
7498.00,2.31
7497.00,2.31
7496.00,2.31
7495.00,2.30
7494.00,2.30
7493.00,2.30
7492.00,2.30
7491.00,2.30
7490.00,2.30
7489.00,2.30
7488.00,2.30
7487.00,2.30
7486.00,2.31
7485.00,2.31
7484.00,2.31
7483.00,2.32
7482.00,2.32
7481.00,2.32
7480.00,2.33
7479.00,2.33
7478.00,2.33
7477.00,2.34
7476.00,2.34
7475.00,2.34
7474.00,2.35
7473.00,2.35
7472.00,2.35
7471.00,2.35
7470.00,2.35
7469.00,2.36
7468.00,2.36
7467.00,2.36
7466.00,2.36
7465.00,2.36
7464.00,2.36
7463.00,2.36
7462.00,2.36
7461.00,2.36
7460.00,2.36
7459.00,2.36
7458.00,2.36
7457.00,2.36
7456.00,2.36
7455.00,2.36
7454.00,2.36
7453.00,2.36
7452.00,2.36
7451.00,2.36
7450.00,2.36
7449.00,2.36
7448.00,2.36
7447.00,2.36
7446.00,2.36
7445.00,2.36
7444.00,2.36
7443.00,2.36
7442.00,2.37
7441.00,2.37
7440.00,2.37
7439.00,2.37
7438.00,2.38
7437.00,2.38
7436.00,2.39
7435.00,2.39
7434.00,2.40
7433.00,2.40
7432.00,2.40
7431.00,2.41
7430.00,2.41
7429.00,2.41
7428.00,2.41
7427.00,2.41
7426.00,2.41
7425.00,2.41
7424.00,2.41
7423.00,2.41
7422.00,2.41
7421.00,2.41
7420.00,2.41
7419.00,2.41
7418.00,2.40
7417.00,2.40
7416.00,2.40
7415.00,2.39
7414.00,2.39
7413.00,2.38
7412.00,2.37
7411.00,2.37
7410.00,2.36
7409.00,2.36
7408.00,2.35
7407.00,2.34
7406.00,2.34
7405.00,2.33
7404.00,2.33
7403.00,2.32
7402.00,2.32
7401.00,2.32
7400.00,2.32
7399.00,2.32
7398.00,2.32
7397.00,2.33
7396.00,2.33
7395.00,2.34
7394.00,2.34
7393.00,2.35
7392.00,2.36
7391.00,2.37
7390.00,2.38
7389.00,2.39
7388.00,2.40
7387.00,2.41
7386.00,2.41
7385.00,2.42
7384.00,2.43
7383.00,2.44
7382.00,2.45
7381.00,2.46
7380.00,2.47
7379.00,2.47
7378.00,2.48
7377.00,2.49
7376.00,2.49
7375.00,2.50
7374.00,2.50
7373.00,2.50
7372.00,2.51
7371.00,2.51
7370.00,2.51
7369.00,2.51
7368.00,2.50
7367.00,2.50
7366.00,2.50
7365.00,2.50
7364.00,2.49
7363.00,2.49
7362.00,2.48
7361.00,2.48
7360.00,2.48
7359.00,2.48
7358.00,2.48
7357.00,2.48
7356.00,2.48
7355.00,2.48
7354.00,2.48
7353.00,2.48
7352.00,2.48
7351.00,2.48
7350.00,2.48
7349.00,2.48
7348.00,2.48
7347.00,2.48
7346.00,2.48
7345.00,2.47
7344.00,2.47
7343.00,2.47
7342.00,2.47
7341.00,2.48
7340.00,2.48
7339.00,2.48
7338.00,2.48
7337.00,2.47
7336.00,2.47
7335.00,2.47
7334.00,2.46
7333.00,2.46
7332.00,2.45
7331.00,2.45
7330.00,2.44
7329.00,2.43
7328.00,2.43
7327.00,2.42
7326.00,2.41
7325.00,2.41
7324.00,2.40
7323.00,2.39
7322.00,2.39
7321.00,2.38
7320.00,2.38
7319.00,2.38
7318.00,2.37
7317.00,2.37
7316.00,2.37
7315.00,2.37
7314.00,2.36
7313.00,2.36
7312.00,2.36
7311.00,2.36
7310.00,2.36
7309.00,2.37
7308.00,2.37
7307.00,2.37
7306.00,2.37
7305.00,2.38
7304.00,2.38
7303.00,2.39
7302.00,2.39
7301.00,2.40
7300.00,2.40
7299.00,2.40
7298.00,2.41
7297.00,2.41
7296.00,2.41
7295.00,2.42
7294.00,2.42
7293.00,2.42
7292.00,2.42
7291.00,2.41
7290.00,2.41
7289.00,2.41
7288.00,2.40
7287.00,2.39
7286.00,2.39
7285.00,2.38
7284.00,2.37
7283.00,2.36
7282.00,2.36
7281.00,2.35
7280.00,2.34
7279.00,2.33
7278.00,2.32
7277.00,2.31
7276.00,2.29
7275.00,2.28
7274.00,2.27
7273.00,2.26
7272.00,2.25
7271.00,2.24
7270.00,2.23
7269.00,2.22
7268.00,2.21
7267.00,2.20
7266.00,2.19
7265.00,2.19
7264.00,2.18
7263.00,2.18
7262.00,2.17
7261.00,2.17
7260.00,2.17
7259.00,2.17
7258.00,2.17
7257.00,2.17
7256.00,2.17
7255.00,2.17
7254.00,2.18
7253.00,2.18
7252.00,2.19
7251.00,2.19
7250.00,2.20
7249.00,2.21
7248.00,2.22
7247.00,2.23
7246.00,2.23
7245.00,2.24
7244.00,2.25
7243.00,2.26
7242.00,2.26
7241.00,2.27
7240.00,2.28
7239.00,2.28
7238.00,2.28
7237.00,2.29
7236.00,2.29
7235.00,2.29
7234.00,2.29
7233.00,2.29
7232.00,2.29
7231.00,2.29
7230.00,2.28
7229.00,2.28
7228.00,2.27
7227.00,2.27
7226.00,2.26
7225.00,2.25
7224.00,2.23
7223.00,2.22
7222.00,2.20
7221.00,2.19
7220.00,2.17
7219.00,2.16
7218.00,2.14
7217.00,2.13
7216.00,2.12
7215.00,2.10
7214.00,2.09
7213.00,2.08
7212.00,2.07
7211.00,2.07
7210.00,2.06
7209.00,2.05
7208.00,2.04
7207.00,2.03
7206.00,2.03
7205.00,2.02
7204.00,2.02
7203.00,2.01
7202.00,2.01
7201.00,2.01
7200.00,2.01
7199.00,2.00
7198.00,2.01
7197.00,2.01
7196.00,2.01
7195.00,2.01
7194.00,2.01
7193.00,2.01
7192.00,2.01
7191.00,2.01
7190.00,2.01
7189.00,2.01
7188.00,2.01
7187.00,2.01
7186.00,2.01
7185.00,2.01
7184.00,2.00
7183.00,2.00
7182.00,2.00
7181.00,1.99
7180.00,1.99
7179.00,1.98
7178.00,1.97
7177.00,1.97
7176.00,1.96
7175.00,1.95
7174.00,1.94
7173.00,1.94
7172.00,1.93
7171.00,1.92
7170.00,1.92
7169.00,1.91
7168.00,1.90
7167.00,1.89
7166.00,1.89
7165.00,1.88
7164.00,1.87
7163.00,1.86
7162.00,1.85
7161.00,1.85
7160.00,1.84
7159.00,1.83
7158.00,1.82
7157.00,1.81
7156.00,1.81
7155.00,1.80
7154.00,1.79
7153.00,1.79
7152.00,1.78
7151.00,1.78
7150.00,1.77
7149.00,1.77
7148.00,1.76
7147.00,1.76
7146.00,1.75
7145.00,1.74
7144.00,1.74
7143.00,1.73
7142.00,1.73
7141.00,1.72
7140.00,1.71
7139.00,1.71
7138.00,1.71
7137.00,1.70
7136.00,1.70
7135.00,1.70
7134.00,1.70
7133.00,1.70
7132.00,1.70
7131.00,1.70
7130.00,1.70
7129.00,1.70
7128.00,1.70
7127.00,1.70
7126.00,1.70
7125.00,1.69
7124.00,1.69
7123.00,1.69
7122.00,1.69
7121.00,1.68
7120.00,1.68
7119.00,1.68
7118.00,1.68
7117.00,1.68
7116.00,1.67
7115.00,1.67
7114.00,1.67
7113.00,1.67
7112.00,1.67
7111.00,1.67
7110.00,1.66
7109.00,1.66
7108.00,1.65
7107.00,1.65
7106.00,1.64
7105.00,1.63
7104.00,1.62
7103.00,1.61
7102.00,1.60
7101.00,1.59
7100.00,1.59
7099.00,1.58
7098.00,1.57
7097.00,1.56
7096.00,1.55
7095.00,1.54
7094.00,1.54
7093.00,1.53
7092.00,1.52
7091.00,1.51
7090.00,1.50
7089.00,1.49
7088.00,1.48
7087.00,1.47
7086.00,1.46
7085.00,1.45
7084.00,1.44
7083.00,1.44
7082.00,1.43
7081.00,1.42
7080.00,1.41
7079.00,1.40
7078.00,1.39
7077.00,1.39
7076.00,1.38
7075.00,1.38
7074.00,1.37
7073.00,1.37
7072.00,1.36
7071.00,1.36
7070.00,1.36
7069.00,1.35
7068.00,1.35
7067.00,1.35
7066.00,1.35
7065.00,1.35
7064.00,1.35
7063.00,1.35
7062.00,1.35
7061.00,1.35
7060.00,1.35
7059.00,1.35
7058.00,1.35
7057.00,1.36
7056.00,1.36
7055.00,1.36
7054.00,1.37
7053.00,1.37
7052.00,1.38
7051.00,1.38
7050.00,1.39
7049.00,1.40
7048.00,1.40
7047.00,1.41
7046.00,1.41
7045.00,1.42
7044.00,1.43
7043.00,1.43
7042.00,1.44
7041.00,1.44
7040.00,1.44
7039.00,1.45
7038.00,1.45
7037.00,1.45
7036.00,1.46
7035.00,1.46
7034.00,1.46
7033.00,1.47
7032.00,1.47
7031.00,1.47
7030.00,1.47
7029.00,1.48
7028.00,1.48
7027.00,1.48
7026.00,1.48
7025.00,1.48
7024.00,1.47
7023.00,1.47
7022.00,1.47
7021.00,1.47
7020.00,1.46
7019.00,1.46
7018.00,1.46
7017.00,1.45
7016.00,1.45
7015.00,1.45
7014.00,1.44
7013.00,1.44
7012.00,1.43
7011.00,1.43
7010.00,1.42
7009.00,1.42
7008.00,1.41
7007.00,1.41
7006.00,1.40
7005.00,1.40
7004.00,1.39
7003.00,1.38
7002.00,1.38
7001.00,1.37
7000.00,1.36
6999.00,1.36
6998.00,1.35
6997.00,1.34
6996.00,1.34
6995.00,1.33
6994.00,1.33
6993.00,1.32
6992.00,1.32
6991.00,1.31
6990.00,1.31
6989.00,1.30
6988.00,1.29
6987.00,1.29
6986.00,1.28
6985.00,1.28
6984.00,1.27
6983.00,1.27
6982.00,1.27
6981.00,1.26
6980.00,1.26
6979.00,1.25
6978.00,1.25
6977.00,1.24
6976.00,1.24
6975.00,1.24
6974.00,1.24
6973.00,1.24
6972.00,1.23
6971.00,1.23
6970.00,1.23
6969.00,1.23
6968.00,1.23
6967.00,1.22
6966.00,1.22
6965.00,1.22
6964.00,1.22
6963.00,1.21
6962.00,1.21
6961.00,1.21
6960.00,1.21
6959.00,1.21
6958.00,1.21
6957.00,1.21
6956.00,1.21
6955.00,1.21
6954.00,1.21
6953.00,1.21
6952.00,1.21
6951.00,1.21
6950.00,1.21
6949.00,1.21
6948.00,1.21
6947.00,1.21
6946.00,1.21
6945.00,1.21
6944.00,1.21
6943.00,1.22
6942.00,1.22
6941.00,1.22
6940.00,1.22
6939.00,1.23
6938.00,1.23
6937.00,1.23
6936.00,1.24
6935.00,1.24
6934.00,1.24
6933.00,1.25
6932.00,1.25
6931.00,1.26
6930.00,1.26
6929.00,1.27
6928.00,1.27
6927.00,1.28
6926.00,1.28
6925.00,1.29
6924.00,1.29
6923.00,1.29
6922.00,1.29
6921.00,1.30
6920.00,1.30
6919.00,1.30
6918.00,1.30
6917.00,1.30
6916.00,1.30
6915.00,1.30
6914.00,1.30
6913.00,1.30
6912.00,1.30
6911.00,1.30
6910.00,1.30
6909.00,1.30
6908.00,1.31
6907.00,1.31
6906.00,1.30
6905.00,1.30
6904.00,1.30
6903.00,1.30
6902.00,1.29
6901.00,1.29
6900.00,1.29
6899.00,1.28
6898.00,1.28
6897.00,1.28
6896.00,1.27
6895.00,1.27
6894.00,1.27
6893.00,1.27
6892.00,1.27
6891.00,1.27
6890.00,1.27
6889.00,1.27
6888.00,1.27
6887.00,1.27
6886.00,1.27
6885.00,1.27
6884.00,1.26
6883.00,1.26
6882.00,1.26
6881.00,1.25
6880.00,1.25
6879.00,1.25
6878.00,1.25
6877.00,1.24
6876.00,1.24
6875.00,1.24
6874.00,1.24
6873.00,1.24
6872.00,1.24
6871.00,1.23
6870.00,1.23
6869.00,1.23
6868.00,1.23
6867.00,1.22
6866.00,1.22
6865.00,1.21
6864.00,1.21
6863.00,1.20
6862.00,1.20
6861.00,1.19
6860.00,1.19
6859.00,1.19
6858.00,1.19
6857.00,1.18
6856.00,1.18
6855.00,1.18
6854.00,1.18
6853.00,1.19
6852.00,1.19
6851.00,1.19
6850.00,1.19
6849.00,1.19
6848.00,1.19
6847.00,1.19
6846.00,1.20
6845.00,1.20
6844.00,1.20
6843.00,1.20
6842.00,1.21
6841.00,1.21
6840.00,1.22
6839.00,1.22
6838.00,1.23
6837.00,1.24
6836.00,1.24
6835.00,1.25
6834.00,1.26
6833.00,1.26
6832.00,1.27
6831.00,1.27
6830.00,1.28
6829.00,1.28
6828.00,1.29
6827.00,1.29
6826.00,1.29
6825.00,1.30
6824.00,1.30
6823.00,1.30
6822.00,1.31
6821.00,1.31
6820.00,1.32
6819.00,1.32
6818.00,1.32
6817.00,1.33
6816.00,1.33
6815.00,1.33
6814.00,1.34
6813.00,1.34
6812.00,1.34
6811.00,1.34
6810.00,1.33
6809.00,1.33
6808.00,1.33
6807.00,1.33
6806.00,1.33
6805.00,1.33
6804.00,1.32
6803.00,1.32
6802.00,1.32
6801.00,1.32
6800.00,1.32
6799.00,1.32
6798.00,1.32
6797.00,1.32
6796.00,1.31
6795.00,1.31
6794.00,1.31
6793.00,1.31
6792.00,1.31
6791.00,1.31
6790.00,1.31
6789.00,1.31
6788.00,1.31
6787.00,1.31
6786.00,1.31
6785.00,1.31
6784.00,1.32
6783.00,1.32
6782.00,1.32
6781.00,1.32
6780.00,1.33
6779.00,1.33
6778.00,1.33
6777.00,1.34
6776.00,1.34
6775.00,1.34
6774.00,1.35
6773.00,1.35
6772.00,1.35
6771.00,1.35
6770.00,1.35
6769.00,1.36
6768.00,1.36
6767.00,1.36
6766.00,1.36
6765.00,1.36
6764.00,1.36
6763.00,1.36
6762.00,1.36
6761.00,1.36
6760.00,1.36
6759.00,1.36
6758.00,1.36
6757.00,1.36
6756.00,1.36
6755.00,1.36
6754.00,1.36
6753.00,1.36
6752.00,1.36
6751.00,1.36
6750.00,1.36
6749.00,1.35
6748.00,1.35
6747.00,1.35
6746.00,1.35
6745.00,1.34
6744.00,1.34
6743.00,1.34
6742.00,1.34
6741.00,1.34
6740.00,1.34
6739.00,1.34
6738.00,1.34
6737.00,1.34
6736.00,1.34
6735.00,1.34
6734.00,1.33
6733.00,1.33
6732.00,1.33
6731.00,1.33
6730.00,1.33
6729.00,1.32
6728.00,1.32
6727.00,1.32
6726.00,1.32
6725.00,1.32
6724.00,1.32
6723.00,1.32
6722.00,1.32
6721.00,1.32
6720.00,1.32
6719.00,1.32
6718.00,1.32
6717.00,1.33
6716.00,1.33
6715.00,1.33
6714.00,1.33
6713.00,1.33
6712.00,1.33
6711.00,1.34
6710.00,1.34
6709.00,1.34
6708.00,1.35
6707.00,1.35
6706.00,1.36
6705.00,1.36
6704.00,1.36
6703.00,1.37
6702.00,1.37
6701.00,1.37
6700.00,1.38
6699.00,1.38
6698.00,1.39
6697.00,1.39
6696.00,1.39
6695.00,1.40
6694.00,1.40
6693.00,1.41
6692.00,1.41
6691.00,1.41
6690.00,1.42
6689.00,1.42
6688.00,1.43
6687.00,1.43
6686.00,1.43
6685.00,1.44
6684.00,1.44
6683.00,1.44
6682.00,1.45
6681.00,1.45
6680.00,1.45
6679.00,1.45
6678.00,1.46
6677.00,1.46
6676.00,1.47
6675.00,1.47
6674.00,1.47
6673.00,1.48
6672.00,1.48
6671.00,1.48
6670.00,1.49
6669.00,1.49
6668.00,1.49
6667.00,1.49
6666.00,1.50
6665.00,1.50
6664.00,1.50
6663.00,1.50
6662.00,1.51
6661.00,1.51
6660.00,1.51
6659.00,1.52
6658.00,1.52
6657.00,1.52
6656.00,1.52
6655.00,1.53
6654.00,1.53
6653.00,1.53
6652.00,1.53
6651.00,1.53
6650.00,1.53
6649.00,1.53
6648.00,1.53
6647.00,1.53
6646.00,1.53
6645.00,1.53
6644.00,1.54
6643.00,1.54
6642.00,1.54
6641.00,1.55
6640.00,1.55
6639.00,1.55
6638.00,1.55
6637.00,1.56
6636.00,1.56
6635.00,1.56
6634.00,1.56
6633.00,1.56
6632.00,1.56
6631.00,1.57
6630.00,1.57
6629.00,1.57
6628.00,1.57
6627.00,1.57
6626.00,1.57
6625.00,1.57
6624.00,1.57
6623.00,1.57
6622.00,1.58
6621.00,1.58
6620.00,1.59
6619.00,1.59
6618.00,1.60
6617.00,1.60
6616.00,1.60
6615.00,1.61
6614.00,1.61
6613.00,1.61
6612.00,1.61
6611.00,1.61
6610.00,1.62
6609.00,1.62
6608.00,1.62
6607.00,1.62
6606.00,1.62
6605.00,1.62
6604.00,1.62
6603.00,1.62
6602.00,1.62
6601.00,1.62
6600.00,1.62
6599.00,1.61
6598.00,1.61
6597.00,1.61
6596.00,1.61
6595.00,1.61
6594.00,1.60
6593.00,1.60
6592.00,1.59
6591.00,1.59
6590.00,1.58
6589.00,1.58
6588.00,1.57
6587.00,1.57
6586.00,1.56
6585.00,1.56
6584.00,1.55
6583.00,1.55
6582.00,1.55
6581.00,1.55
6580.00,1.54
6579.00,1.54
6578.00,1.55
6577.00,1.55
6576.00,1.55
6575.00,1.55
6574.00,1.55
6573.00,1.55
6572.00,1.56
6571.00,1.56
6570.00,1.56
6569.00,1.57
6568.00,1.57
6567.00,1.58
6566.00,1.58
6565.00,1.59
6564.00,1.60
6563.00,1.60
6562.00,1.61
6561.00,1.62
6560.00,1.63
6559.00,1.63
6558.00,1.64
6557.00,1.65
6556.00,1.66
6555.00,1.67
6554.00,1.67
6553.00,1.68
6552.00,1.69
6551.00,1.69
6550.00,1.70
6549.00,1.71
6548.00,1.71
6547.00,1.72
6546.00,1.73
6545.00,1.73
6544.00,1.74
6543.00,1.74
6542.00,1.75
6541.00,1.75
6540.00,1.76
6539.00,1.76
6538.00,1.77
6537.00,1.77
6536.00,1.77
6535.00,1.78
6534.00,1.78
6533.00,1.78
6532.00,1.79
6531.00,1.79
6530.00,1.79
6529.00,1.80
6528.00,1.80
6527.00,1.80
6526.00,1.80
6525.00,1.80
6524.00,1.80
6523.00,1.80
6522.00,1.80
6521.00,1.81
6520.00,1.81
6519.00,1.81
6518.00,1.81
6517.00,1.80
6516.00,1.80
6515.00,1.80
6514.00,1.80
6513.00,1.80
6512.00,1.80
6511.00,1.80
6510.00,1.80
6509.00,1.80
6508.00,1.79
6507.00,1.79
6506.00,1.79
6505.00,1.79
6504.00,1.79
6503.00,1.79
6502.00,1.78
6501.00,1.78
6500.00,1.78
6499.00,1.78
6498.00,1.78
6497.00,1.78
6496.00,1.78
6495.00,1.78
6494.00,1.78
6493.00,1.78
6492.00,1.78
6491.00,1.78
6490.00,1.78
6489.00,1.78
6488.00,1.78
6487.00,1.78
6486.00,1.78
6485.00,1.79
6484.00,1.79
6483.00,1.79
6482.00,1.79
6481.00,1.79
6480.00,1.80
6479.00,1.80
6478.00,1.80
6477.00,1.80
6476.00,1.81
6475.00,1.81
6474.00,1.81
6473.00,1.81
6472.00,1.82
6471.00,1.82
6470.00,1.82
6469.00,1.82
6468.00,1.83
6467.00,1.83
6466.00,1.83
6465.00,1.83
6464.00,1.84
6463.00,1.84
6462.00,1.84
6461.00,1.85
6460.00,1.85
6459.00,1.85
6458.00,1.85
6457.00,1.85
6456.00,1.85
6455.00,1.85
6454.00,1.85
6453.00,1.85
6452.00,1.85
6451.00,1.85
6450.00,1.84
6449.00,1.84
6448.00,1.84
6447.00,1.83
6446.00,1.83
6445.00,1.83
6444.00,1.82
6443.00,1.82
6442.00,1.82
6441.00,1.81
6440.00,1.81
6439.00,1.81
6438.00,1.80
6437.00,1.80
6436.00,1.80
6435.00,1.79
6434.00,1.79
6433.00,1.79
6432.00,1.78
6431.00,1.78
6430.00,1.78
6429.00,1.78
6428.00,1.78
6427.00,1.79
6426.00,1.79
6425.00,1.79
6424.00,1.80
6423.00,1.80
6422.00,1.81
6421.00,1.81
6420.00,1.82
6419.00,1.83
6418.00,1.83
6417.00,1.84
6416.00,1.84
6415.00,1.85
6414.00,1.86
6413.00,1.86
6412.00,1.87
6411.00,1.88
6410.00,1.89
6409.00,1.90
6408.00,1.90
6407.00,1.91
6406.00,1.92
6405.00,1.92
6404.00,1.93
6403.00,1.93
6402.00,1.93
6401.00,1.93
6400.00,1.94
6399.00,1.94
6398.00,1.94
6397.00,1.94
6396.00,1.93
6395.00,1.93
6394.00,1.93
6393.00,1.93
6392.00,1.93
6391.00,1.93
6390.00,1.92
6389.00,1.92
6388.00,1.92
6387.00,1.91
6386.00,1.91
6385.00,1.90
6384.00,1.90
6383.00,1.90
6382.00,1.89
6381.00,1.89
6380.00,1.89
6379.00,1.89
6378.00,1.89
6377.00,1.89
6376.00,1.89
6375.00,1.89
6374.00,1.89
6373.00,1.90
6372.00,1.90
6371.00,1.91
6370.00,1.91
6369.00,1.92
6368.00,1.92
6367.00,1.93
6366.00,1.93
6365.00,1.94
6364.00,1.95
6363.00,1.96
6362.00,1.96
6361.00,1.97
6360.00,1.98
6359.00,1.99
6358.00,2.00
6357.00,2.01
6356.00,2.01
6355.00,2.02
6354.00,2.03
6353.00,2.03
6352.00,2.04
6351.00,2.04
6350.00,2.05
6349.00,2.05
6348.00,2.05
6347.00,2.05
6346.00,2.06
6345.00,2.06
6344.00,2.06
6343.00,2.06
6342.00,2.06
6341.00,2.06
6340.00,2.06
6339.00,2.06
6338.00,2.06
6337.00,2.05
6336.00,2.05
6335.00,2.05
6334.00,2.04
6333.00,2.04
6332.00,2.03
6331.00,2.03
6330.00,2.02
6329.00,2.02
6328.00,2.01
6327.00,2.01
6326.00,2.01
6325.00,2.00
6324.00,2.00
6323.00,2.00
6322.00,2.00
6321.00,2.00
6320.00,2.00
6319.00,2.00
6318.00,2.00
6317.00,2.00
6316.00,2.00
6315.00,2.01
6314.00,2.01
6313.00,2.01
6312.00,2.01
6311.00,2.02
6310.00,2.02
6309.00,2.02
6308.00,2.03
6307.00,2.03
6306.00,2.04
6305.00,2.04
6304.00,2.05
6303.00,2.06
6302.00,2.06
6301.00,2.07
6300.00,2.07
6299.00,2.08
6298.00,2.08
6297.00,2.09
6296.00,2.09
6295.00,2.09
6294.00,2.10
6293.00,2.10
6292.00,2.10
6291.00,2.10
6290.00,2.11
6289.00,2.11
6288.00,2.11
6287.00,2.12
6286.00,2.12
6285.00,2.12
6284.00,2.13
6283.00,2.13
6282.00,2.13
6281.00,2.14
6280.00,2.14
6279.00,2.14
6278.00,2.14
6277.00,2.14
6276.00,2.14
6275.00,2.15
6274.00,2.15
6273.00,2.15
6272.00,2.15
6271.00,2.16
6270.00,2.16
6269.00,2.16
6268.00,2.16
6267.00,2.17
6266.00,2.17
6265.00,2.18
6264.00,2.18
6263.00,2.18
6262.00,2.18
6261.00,2.19
6260.00,2.19
6259.00,2.19
6258.00,2.19
6257.00,2.19
6256.00,2.18
6255.00,2.18
6254.00,2.18
6253.00,2.18
6252.00,2.19
6251.00,2.19
6250.00,2.19
6249.00,2.19
6248.00,2.19
6247.00,2.19
6246.00,2.19
6245.00,2.19
6244.00,2.20
6243.00,2.20
6242.00,2.20
6241.00,2.20
6240.00,2.20
6239.00,2.20
6238.00,2.20
6237.00,2.20
6236.00,2.20
6235.00,2.21
6234.00,2.21
6233.00,2.21
6232.00,2.21
6231.00,2.22
6230.00,2.22
6229.00,2.22
6228.00,2.22
6227.00,2.23
6226.00,2.23
6225.00,2.23
6224.00,2.23
6223.00,2.23
6222.00,2.23
6221.00,2.23
6220.00,2.23
6219.00,2.23
6218.00,2.23
6217.00,2.23
6216.00,2.22
6215.00,2.22
6214.00,2.22
6213.00,2.22
6212.00,2.22
6211.00,2.22
6210.00,2.22
6209.00,2.22
6208.00,2.22
6207.00,2.22
6206.00,2.22
6205.00,2.22
6204.00,2.22
6203.00,2.22
6202.00,2.22
6201.00,2.22
6200.00,2.21
6199.00,2.21
6198.00,2.21
6197.00,2.21
6196.00,2.21
6195.00,2.21
6194.00,2.21
6193.00,2.21
6192.00,2.21
6191.00,2.22
6190.00,2.22
6189.00,2.22
6188.00,2.22
6187.00,2.22
6186.00,2.22
6185.00,2.22
6184.00,2.22
6183.00,2.22
6182.00,2.22
6181.00,2.22
6180.00,2.22
6179.00,2.22
6178.00,2.22
6177.00,2.22
6176.00,2.22
6175.00,2.22
6174.00,2.22
6173.00,2.23
6172.00,2.23
6171.00,2.23
6170.00,2.24
6169.00,2.24
6168.00,2.25
6167.00,2.25
6166.00,2.26
6165.00,2.26
6164.00,2.26
6163.00,2.27
6162.00,2.27
6161.00,2.28
6160.00,2.28
6159.00,2.29
6158.00,2.29
6157.00,2.30
6156.00,2.30
6155.00,2.31
6154.00,2.31
6153.00,2.32
6152.00,2.32
6151.00,2.32
6150.00,2.32
6149.00,2.33
6148.00,2.33
6147.00,2.33
6146.00,2.33
6145.00,2.33
6144.00,2.33
6143.00,2.33
6142.00,2.33
6141.00,2.33
6140.00,2.33
6139.00,2.33
6138.00,2.33
6137.00,2.33
6136.00,2.33
6135.00,2.33
6134.00,2.33
6133.00,2.33
6132.00,2.33
6131.00,2.33
6130.00,2.33
6129.00,2.33
6128.00,2.33
6127.00,2.33
6126.00,2.33
6125.00,2.33
6124.00,2.33
6123.00,2.33
6122.00,2.33
6121.00,2.33
6120.00,2.33
6119.00,2.34
6118.00,2.34
6117.00,2.34
6116.00,2.34
6115.00,2.34
6114.00,2.34
6113.00,2.35
6112.00,2.35
6111.00,2.35
6110.00,2.35
6109.00,2.35
6108.00,2.36
6107.00,2.36
6106.00,2.36
6105.00,2.36
6104.00,2.36
6103.00,2.37
6102.00,2.37
6101.00,2.37
6100.00,2.37
6099.00,2.38
6098.00,2.38
6097.00,2.38
6096.00,2.38
6095.00,2.39
6094.00,2.39
6093.00,2.39
6092.00,2.40
6091.00,2.40
6090.00,2.40
6089.00,2.40
6088.00,2.40
6087.00,2.41
6086.00,2.41
6085.00,2.41
6084.00,2.41
6083.00,2.41
6082.00,2.41
6081.00,2.41
6080.00,2.42
6079.00,2.42
6078.00,2.42
6077.00,2.42
6076.00,2.42
6075.00,2.42
6074.00,2.42
6073.00,2.42
6072.00,2.42
6071.00,2.42
6070.00,2.42
6069.00,2.42
6068.00,2.42
6067.00,2.42
6066.00,2.42
6065.00,2.41
6064.00,2.41
6063.00,2.41
6062.00,2.41
6061.00,2.40
6060.00,2.40
6059.00,2.40
6058.00,2.40
6057.00,2.39
6056.00,2.39
6055.00,2.39
6054.00,2.38
6053.00,2.38
6052.00,2.37
6051.00,2.37
6050.00,2.37
6049.00,2.36
6048.00,2.36
6047.00,2.36
6046.00,2.36
6045.00,2.36
6044.00,2.35
6043.00,2.35
6042.00,2.35
6041.00,2.36
6040.00,2.36
6039.00,2.36
6038.00,2.36
6037.00,2.36
6036.00,2.37
6035.00,2.37
6034.00,2.37
6033.00,2.37
6032.00,2.38
6031.00,2.38
6030.00,2.39
6029.00,2.39
6028.00,2.39
6027.00,2.40
6026.00,2.40
6025.00,2.41
6024.00,2.41
6023.00,2.41
6022.00,2.42
6021.00,2.42
6020.00,2.42
6019.00,2.42
6018.00,2.43
6017.00,2.43
6016.00,2.43
6015.00,2.43
6014.00,2.43
6013.00,2.43
6012.00,2.43
6011.00,2.43
6010.00,2.43
6009.00,2.43
6008.00,2.43
6007.00,2.43
6006.00,2.43
6005.00,2.43
6004.00,2.42
6003.00,2.42
6002.00,2.42
6001.00,2.42
6000.00,2.41
5999.00,2.41
5998.00,2.41
5997.00,2.40
5996.00,2.40
5995.00,2.40
5994.00,2.40
5993.00,2.39
5992.00,2.39
5991.00,2.39
5990.00,2.39
5989.00,2.39
5988.00,2.38
5987.00,2.38
5986.00,2.38
5985.00,2.38
5984.00,2.37
5983.00,2.37
5982.00,2.37
5981.00,2.36
5980.00,2.36
5979.00,2.36
5978.00,2.35
5977.00,2.35
5976.00,2.35
5975.00,2.35
5974.00,2.35
5973.00,2.35
5972.00,2.34
5971.00,2.34
5970.00,2.34
5969.00,2.34
5968.00,2.34
5967.00,2.34
5966.00,2.34
5965.00,2.34
5964.00,2.34
5963.00,2.34
5962.00,2.34
5961.00,2.34
5960.00,2.34
5959.00,2.33
5958.00,2.33
5957.00,2.33
5956.00,2.33
5955.00,2.33
5954.00,2.33
5953.00,2.33
5952.00,2.33
5951.00,2.33
5950.00,2.33
5949.00,2.33
5948.00,2.33
5947.00,2.32
5946.00,2.32
5945.00,2.32
5944.00,2.32
5943.00,2.32
5942.00,2.31
5941.00,2.31
5940.00,2.31
5939.00,2.31
5938.00,2.30
5937.00,2.30
5936.00,2.30
5935.00,2.30
5934.00,2.30
5933.00,2.30
5932.00,2.30
5931.00,2.30
5930.00,2.30
5929.00,2.30
5928.00,2.30
5927.00,2.29
5926.00,2.29
5925.00,2.29
5924.00,2.29
5923.00,2.28
5922.00,2.28
5921.00,2.28
5920.00,2.27
5919.00,2.27
5918.00,2.27
5917.00,2.26
5916.00,2.26
5915.00,2.26
5914.00,2.26
5913.00,2.25
5912.00,2.25
5911.00,2.25
5910.00,2.25
5909.00,2.24
5908.00,2.24
5907.00,2.24
5906.00,2.23
5905.00,2.23
5904.00,2.22
5903.00,2.22
5902.00,2.22
5901.00,2.22
5900.00,2.22
5899.00,2.22
5898.00,2.22
5897.00,2.22
5896.00,2.22
5895.00,2.22
5894.00,2.22
5893.00,2.23
5892.00,2.23
5891.00,2.23
5890.00,2.23
5889.00,2.24
5888.00,2.24
5887.00,2.24
5886.00,2.24
5885.00,2.25
5884.00,2.25
5883.00,2.25
5882.00,2.26
5881.00,2.26
5880.00,2.27
5879.00,2.27
5878.00,2.28
5877.00,2.28
5876.00,2.29
5875.00,2.29
5874.00,2.30
5873.00,2.30
5872.00,2.30
5871.00,2.30
5870.00,2.31
5869.00,2.31
5868.00,2.31
5867.00,2.31
5866.00,2.32
5865.00,2.32
5864.00,2.32
5863.00,2.32
5862.00,2.33
5861.00,2.33
5860.00,2.33
5859.00,2.33
5858.00,2.34
5857.00,2.34
5856.00,2.34
5855.00,2.34
5854.00,2.34
5853.00,2.34
5852.00,2.34
5851.00,2.34
5850.00,2.34
5849.00,2.34
5848.00,2.34
5847.00,2.34
5846.00,2.34
5845.00,2.35
5844.00,2.35
5843.00,2.35
5842.00,2.35
5841.00,2.35
5840.00,2.35
5839.00,2.35
5838.00,2.35
5837.00,2.35
5836.00,2.35
5835.00,2.35
5834.00,2.35
5833.00,2.34
5832.00,2.34
5831.00,2.34
5830.00,2.34
5829.00,2.34
5828.00,2.34
5827.00,2.34
5826.00,2.34
5825.00,2.34
5824.00,2.34
5823.00,2.35
5822.00,2.35
5821.00,2.35
5820.00,2.35
5819.00,2.35
5818.00,2.35
5817.00,2.35
5816.00,2.35
5815.00,2.35
5814.00,2.35
5813.00,2.35
5812.00,2.34
5811.00,2.34
5810.00,2.34
5809.00,2.34
5808.00,2.34
5807.00,2.34
5806.00,2.34
5805.00,2.34
5804.00,2.34
5803.00,2.33
5802.00,2.33
5801.00,2.33
5800.00,2.33
5799.00,2.33
5798.00,2.32
5797.00,2.32
5796.00,2.32
5795.00,2.31
5794.00,2.31
5793.00,2.31
5792.00,2.30
5791.00,2.30
5790.00,2.30
5789.00,2.30
5788.00,2.29
5787.00,2.29
5786.00,2.29
5785.00,2.28
5784.00,2.28
5783.00,2.28
5782.00,2.28
5781.00,2.28
5780.00,2.27
5779.00,2.27
5778.00,2.27
5777.00,2.27
5776.00,2.26
5775.00,2.26
5774.00,2.26
5773.00,2.26
5772.00,2.26
5771.00,2.26
5770.00,2.25
5769.00,2.25
5768.00,2.25
5767.00,2.25
5766.00,2.25
5765.00,2.25
5764.00,2.25
5763.00,2.26
5762.00,2.26
5761.00,2.26
5760.00,2.26
5759.00,2.26
5758.00,2.26
5757.00,2.26
5756.00,2.26
5755.00,2.27
5754.00,2.27
5753.00,2.27
5752.00,2.27
5751.00,2.27
5750.00,2.28
5749.00,2.28
5748.00,2.28
5747.00,2.29
5746.00,2.29
5745.00,2.29
5744.00,2.30
5743.00,2.30
5742.00,2.30
5741.00,2.31
5740.00,2.31
5739.00,2.31
5738.00,2.31
5737.00,2.31
5736.00,2.31
5735.00,2.31
5734.00,2.32
5733.00,2.32
5732.00,2.32
5731.00,2.32
5730.00,2.32
5729.00,2.32
5728.00,2.32
5727.00,2.32
5726.00,2.32
5725.00,2.32
5724.00,2.32
5723.00,2.32
5722.00,2.32
5721.00,2.32
5720.00,2.31
5719.00,2.31
5718.00,2.31
5717.00,2.31
5716.00,2.30
5715.00,2.30
5714.00,2.30
5713.00,2.30
5712.00,2.29
5711.00,2.29
5710.00,2.29
5709.00,2.29
5708.00,2.28
5707.00,2.28
5706.00,2.28
5705.00,2.27
5704.00,2.27
5703.00,2.27
5702.00,2.27
5701.00,2.26
5700.00,2.26
5699.00,2.26
5698.00,2.26
5697.00,2.25
5696.00,2.25
5695.00,2.25
5694.00,2.25
5693.00,2.25
5692.00,2.25
5691.00,2.24
5690.00,2.24
5689.00,2.24
5688.00,2.24
5687.00,2.24
5686.00,2.24
5685.00,2.24
5684.00,2.24
5683.00,2.24
5682.00,2.24
5681.00,2.24
5680.00,2.24
5679.00,2.24
5678.00,2.24
5677.00,2.24
5676.00,2.24
5675.00,2.25
5674.00,2.25
5673.00,2.25
5672.00,2.25
5671.00,2.25
5670.00,2.26
5669.00,2.26
5668.00,2.26
5667.00,2.26
5666.00,2.26
5665.00,2.26
5664.00,2.27
5663.00,2.27
5662.00,2.27
5661.00,2.27
5660.00,2.27
5659.00,2.28
5658.00,2.28
5657.00,2.28
5656.00,2.28
5655.00,2.28
5654.00,2.29
5653.00,2.29
5652.00,2.29
5651.00,2.29
5650.00,2.29
5649.00,2.29
5648.00,2.29
5647.00,2.29
5646.00,2.29
5645.00,2.29
5644.00,2.29
5643.00,2.29
5642.00,2.29
5641.00,2.29
5640.00,2.28
5639.00,2.28
5638.00,2.28
5637.00,2.28
5636.00,2.28
5635.00,2.28
5634.00,2.28
5633.00,2.28
5632.00,2.28
5631.00,2.28
5630.00,2.28
5629.00,2.29
5628.00,2.29
5627.00,2.29
5626.00,2.29
5625.00,2.29
5624.00,2.30
5623.00,2.30
5622.00,2.30
5621.00,2.30
5620.00,2.31
5619.00,2.31
5618.00,2.31
5617.00,2.32
5616.00,2.32
5615.00,2.32
5614.00,2.33
5613.00,2.33
5612.00,2.33
5611.00,2.33
5610.00,2.33
5609.00,2.34
5608.00,2.34
5607.00,2.34
5606.00,2.34
5605.00,2.34
5604.00,2.33
5603.00,2.33
5602.00,2.33
5601.00,2.33
5600.00,2.33
5599.00,2.33
5598.00,2.32
5597.00,2.32
5596.00,2.32
5595.00,2.32
5594.00,2.32
5593.00,2.32
5592.00,2.31
5591.00,2.31
5590.00,2.31
5589.00,2.31
5588.00,2.31
5587.00,2.31
5586.00,2.31
5585.00,2.31
5584.00,2.31
5583.00,2.31
5582.00,2.31
5581.00,2.31
5580.00,2.32
5579.00,2.32
5578.00,2.32
5577.00,2.33
5576.00,2.33
5575.00,2.33
5574.00,2.34
5573.00,2.34
5572.00,2.34
5571.00,2.35
5570.00,2.35
5569.00,2.35
5568.00,2.35
5567.00,2.36
5566.00,2.36
5565.00,2.36
5564.00,2.36
5563.00,2.36
5562.00,2.36
5561.00,2.37
5560.00,2.37
5559.00,2.37
5558.00,2.37
5557.00,2.37
5556.00,2.37
5555.00,2.37
5554.00,2.37
5553.00,2.37
5552.00,2.37
5551.00,2.37
5550.00,2.37
5549.00,2.37
5548.00,2.37
5547.00,2.37
5546.00,2.37
5545.00,2.37
5544.00,2.37
5543.00,2.37
5542.00,2.37
5541.00,2.37
5540.00,2.37
5539.00,2.38
5538.00,2.38
5537.00,2.38
5536.00,2.38
5535.00,2.38
5534.00,2.39
5533.00,2.39
5532.00,2.39
5531.00,2.39
5530.00,2.39
5529.00,2.39
5528.00,2.39
5527.00,2.39
5526.00,2.40
5525.00,2.40
5524.00,2.40
5523.00,2.40
5522.00,2.40
5521.00,2.41
5520.00,2.41
5519.00,2.41
5518.00,2.41
5517.00,2.41
5516.00,2.42
5515.00,2.42
5514.00,2.42
5513.00,2.42
5512.00,2.42
5511.00,2.42
5510.00,2.42
5509.00,2.42
5508.00,2.43
5507.00,2.43
5506.00,2.43
5505.00,2.43
5504.00,2.43
5503.00,2.44
5502.00,2.44
5501.00,2.44
5500.00,2.44
5499.00,2.44
5498.00,2.45
5497.00,2.45
5496.00,2.45
5495.00,2.45
5494.00,2.45
5493.00,2.45
5492.00,2.46
5491.00,2.46
5490.00,2.46
5489.00,2.46
5488.00,2.46
5487.00,2.46
5486.00,2.46
5485.00,2.46
5484.00,2.46
5483.00,2.46
5482.00,2.46
5481.00,2.46
5480.00,2.46
5479.00,2.47
5478.00,2.47
5477.00,2.47
5476.00,2.47
5475.00,2.48
5474.00,2.48
5473.00,2.48
5472.00,2.49
5471.00,2.49
5470.00,2.50
5469.00,2.50
5468.00,2.51
5467.00,2.51
5466.00,2.52
5465.00,2.53
5464.00,2.53
5463.00,2.54
5462.00,2.55
5461.00,2.56
5460.00,2.57
5459.00,2.58
5458.00,2.59
5457.00,2.60
5456.00,2.61
5455.00,2.62
5454.00,2.63
5453.00,2.64
5452.00,2.64
5451.00,2.65
5450.00,2.65
5449.00,2.66
5448.00,2.67
5447.00,2.67
5446.00,2.68
5445.00,2.68
5444.00,2.68
5443.00,2.69
5442.00,2.69
5441.00,2.69
5440.00,2.69
5439.00,2.69
5438.00,2.68
5437.00,2.68
5436.00,2.68
5435.00,2.67
5434.00,2.67
5433.00,2.66
5432.00,2.66
5431.00,2.65
5430.00,2.65
5429.00,2.64
5428.00,2.64
5427.00,2.63
5426.00,2.63
5425.00,2.62
5424.00,2.62
5423.00,2.61
5422.00,2.60
5421.00,2.60
5420.00,2.59
5419.00,2.58
5418.00,2.58
5417.00,2.57
5416.00,2.57
5415.00,2.56
5414.00,2.56
5413.00,2.56
5412.00,2.55
5411.00,2.55
5410.00,2.55
5409.00,2.54
5408.00,2.54
5407.00,2.54
5406.00,2.53
5405.00,2.53
5404.00,2.52
5403.00,2.52
5402.00,2.52
5401.00,2.52
5400.00,2.51
5399.00,2.51
5398.00,2.51
5397.00,2.51
5396.00,2.51
5395.00,2.51
5394.00,2.51
5393.00,2.51
5392.00,2.51
5391.00,2.51
5390.00,2.51
5389.00,2.51
5388.00,2.50
5387.00,2.50
5386.00,2.50
5385.00,2.50
5384.00,2.49
5383.00,2.49
5382.00,2.49
5381.00,2.48
5380.00,2.48
5379.00,2.47
5378.00,2.47
5377.00,2.47
5376.00,2.46
5375.00,2.46
5374.00,2.45
5373.00,2.44
5372.00,2.44
5371.00,2.43
5370.00,2.42
5369.00,2.41
5368.00,2.40
5367.00,2.39
5366.00,2.38
5365.00,2.37
5364.00,2.36
5363.00,2.35
5362.00,2.34
5361.00,2.33
5360.00,2.32
5359.00,2.32
5358.00,2.31
5357.00,2.30
5356.00,2.29
5355.00,2.28
5354.00,2.27
5353.00,2.26
5352.00,2.25
5351.00,2.24
5350.00,2.23
5349.00,2.22
5348.00,2.22
5347.00,2.21
5346.00,2.20
5345.00,2.18
5344.00,2.17
5343.00,2.16
5342.00,2.15
5341.00,2.14
5340.00,2.12
5339.00,2.11
5338.00,2.10
5337.00,2.08
5336.00,2.07
5335.00,2.05
5334.00,2.04
5333.00,2.02
5332.00,2.00
5331.00,1.99
5330.00,1.97
5329.00,1.95
5328.00,1.94
5327.00,1.92
5326.00,1.90
5325.00,1.88
5324.00,1.87
5323.00,1.85
5322.00,1.83
5321.00,1.81
5320.00,1.79
5319.00,1.77
5318.00,1.75
5317.00,1.73
5316.00,1.71
5315.00,1.69
5314.00,1.67
5313.00,1.65
5312.00,1.64
5311.00,1.62
5310.00,1.60
5309.00,1.59
5308.00,1.57
5307.00,1.56
5306.00,1.54
5305.00,1.52
5304.00,1.51
5303.00,1.49
5302.00,1.47
5301.00,1.46
5300.00,1.44
5299.00,1.43
5298.00,1.41
5297.00,1.40
5296.00,1.39
5295.00,1.37
5294.00,1.36
5293.00,1.35
5292.00,1.34
5291.00,1.33
5290.00,1.32
5289.00,1.31
5288.00,1.30
5287.00,1.29
5286.00,1.28
5285.00,1.27
5284.00,1.26
5283.00,1.25
5282.00,1.24
5281.00,1.23
5280.00,1.22
5279.00,1.21
5278.00,1.20
5277.00,1.19
5276.00,1.19
5275.00,1.18
5274.00,1.17
5273.00,1.17
5272.00,1.16
5271.00,1.16
5270.00,1.15
5269.00,1.15
5268.00,1.14
5267.00,1.14
5266.00,1.13
5265.00,1.13
5264.00,1.13
5263.00,1.12
5262.00,1.12
5261.00,1.11
5260.00,1.11
5259.00,1.11
5258.00,1.10
5257.00,1.10
5256.00,1.10
5255.00,1.10
5254.00,1.10
5253.00,1.09
5252.00,1.09
5251.00,1.09
5250.00,1.09
5249.00,1.09
5248.00,1.09
5247.00,1.09
5246.00,1.09
5245.00,1.09
5244.00,1.09
5243.00,1.09
5242.00,1.09
5241.00,1.09
5240.00,1.09
5239.00,1.08
5238.00,1.08
5237.00,1.08
5236.00,1.08
5235.00,1.08
5234.00,1.08
5233.00,1.08
5232.00,1.07
5231.00,1.07
5230.00,1.07
5229.00,1.07
5228.00,1.07
5227.00,1.07
5226.00,1.07
5225.00,1.07
5224.00,1.06
5223.00,1.06
5222.00,1.06
5221.00,1.05
5220.00,1.05
5219.00,1.05
5218.00,1.05
5217.00,1.04
5216.00,1.04
5215.00,1.04
5214.00,1.04
5213.00,1.04
5212.00,1.03
5211.00,1.03
5210.00,1.03
5209.00,1.03
5208.00,1.03
5207.00,1.03
5206.00,1.03
5205.00,1.03
5204.00,1.03
5203.00,1.03
5202.00,1.03
5201.00,1.02
5200.00,1.02
5199.00,1.02
5198.00,1.02
5197.00,1.02
5196.00,1.02
5195.00,1.02
5194.00,1.02
5193.00,1.02
5192.00,1.03
5191.00,1.03
5190.00,1.03
5189.00,1.03
5188.00,1.04
5187.00,1.04
5186.00,1.04
5185.00,1.05
5184.00,1.05
5183.00,1.05
5182.00,1.06
5181.00,1.06
5180.00,1.06
5179.00,1.07
5178.00,1.07
5177.00,1.07
5176.00,1.07
5175.00,1.08
5174.00,1.08
5173.00,1.08
5172.00,1.09
5171.00,1.09
5170.00,1.09
5169.00,1.09
5168.00,1.10
5167.00,1.10
5166.00,1.10
5165.00,1.10
5164.00,1.10
5163.00,1.10
5162.00,1.09
5161.00,1.09
5160.00,1.09
5159.00,1.09
5158.00,1.09
5157.00,1.09
5156.00,1.09
5155.00,1.08
5154.00,1.08
5153.00,1.08
5152.00,1.08
5151.00,1.08
5150.00,1.08
5149.00,1.08
5148.00,1.08
5147.00,1.08
5146.00,1.07
5145.00,1.07
5144.00,1.07
5143.00,1.07
5142.00,1.07
5141.00,1.07
5140.00,1.07
5139.00,1.07
5138.00,1.07
5137.00,1.07
5136.00,1.07
5135.00,1.07
5134.00,1.07
5133.00,1.07
5132.00,1.07
5131.00,1.07
5130.00,1.07
5129.00,1.07
5128.00,1.07
5127.00,1.07
5126.00,1.07
5125.00,1.07
5124.00,1.07
5123.00,1.07
5122.00,1.07
5121.00,1.07
5120.00,1.07
5119.00,1.07
5118.00,1.08
5117.00,1.08
5116.00,1.08
5115.00,1.08
5114.00,1.08
5113.00,1.08
5112.00,1.08
5111.00,1.08
5110.00,1.09
5109.00,1.09
5108.00,1.09
5107.00,1.09
5106.00,1.09
5105.00,1.10
5104.00,1.10
5103.00,1.10
5102.00,1.11
5101.00,1.11
5100.00,1.12
5099.00,1.12
5098.00,1.13
5097.00,1.13
5096.00,1.13
5095.00,1.14
5094.00,1.14
5093.00,1.15
5092.00,1.15
5091.00,1.15
5090.00,1.15
5089.00,1.16
5088.00,1.16
5087.00,1.16
5086.00,1.17
5085.00,1.17
5084.00,1.17
5083.00,1.17
5082.00,1.18
5081.00,1.18
5080.00,1.18
5079.00,1.18
5078.00,1.18
5077.00,1.18
5076.00,1.19
5075.00,1.19
5074.00,1.19
5073.00,1.19
5072.00,1.19
5071.00,1.19
5070.00,1.19
5069.00,1.19
5068.00,1.19
5067.00,1.19
5066.00,1.19
5065.00,1.19
5064.00,1.19
5063.00,1.19
5062.00,1.19
5061.00,1.19
5060.00,1.19
5059.00,1.19
5058.00,1.20
5057.00,1.20
5056.00,1.20
5055.00,1.20
5054.00,1.20
5053.00,1.20
5052.00,1.20
5051.00,1.20
5050.00,1.20
5049.00,1.20
5048.00,1.20
5047.00,1.20
5046.00,1.21
5045.00,1.21
5044.00,1.21
5043.00,1.21
5042.00,1.21
5041.00,1.21
5040.00,1.22
5039.00,1.22
5038.00,1.22
5037.00,1.23
5036.00,1.23
5035.00,1.24
5034.00,1.24
5033.00,1.25
5032.00,1.25
5031.00,1.26
5030.00,1.26
5029.00,1.27
5028.00,1.27
5027.00,1.27
5026.00,1.28
5025.00,1.28
5024.00,1.28
5023.00,1.28
5022.00,1.29
5021.00,1.29
5020.00,1.29
5019.00,1.29
5018.00,1.29
5017.00,1.29
5016.00,1.29
5015.00,1.29
5014.00,1.29
5013.00,1.29
5012.00,1.29
5011.00,1.29
5010.00,1.29
5009.00,1.29
5008.00,1.29
5007.00,1.29
5006.00,1.28
5005.00,1.28
5004.00,1.28
5003.00,1.28
5002.00,1.28
5001.00,1.28
5000.00,1.28
4999.00,1.28
4998.00,1.28
4997.00,1.28
4996.00,1.29
4995.00,1.29
4994.00,1.29
4993.00,1.29
4992.00,1.30
4991.00,1.30
4990.00,1.31
4989.00,1.31
4988.00,1.31
4987.00,1.32
4986.00,1.32
4985.00,1.33
4984.00,1.33
4983.00,1.34
4982.00,1.34
4981.00,1.35
4980.00,1.35
4979.00,1.36
4978.00,1.37
4977.00,1.37
4976.00,1.38
4975.00,1.38
4974.00,1.38
4973.00,1.39
4972.00,1.39
4971.00,1.40
4970.00,1.40
4969.00,1.40
4968.00,1.41
4967.00,1.41
4966.00,1.41
4965.00,1.41
4964.00,1.42
4963.00,1.42
4962.00,1.42
4961.00,1.43
4960.00,1.43
4959.00,1.43
4958.00,1.43
4957.00,1.44
4956.00,1.44
4955.00,1.45
4954.00,1.45
4953.00,1.45
4952.00,1.46
4951.00,1.46
4950.00,1.47
4949.00,1.47
4948.00,1.48
4947.00,1.48
4946.00,1.49
4945.00,1.49
4944.00,1.50
4943.00,1.51
4942.00,1.51
4941.00,1.52
4940.00,1.53
4939.00,1.53
4938.00,1.54
4937.00,1.55
4936.00,1.55
4935.00,1.56
4934.00,1.56
4933.00,1.57
4932.00,1.57
4931.00,1.58
4930.00,1.58
4929.00,1.58
4928.00,1.59
4927.00,1.59
4926.00,1.59
4925.00,1.59
4924.00,1.60
4923.00,1.60
4922.00,1.60
4921.00,1.60
4920.00,1.60
4919.00,1.60
4918.00,1.60
4917.00,1.61
4916.00,1.61
4915.00,1.61
4914.00,1.61
4913.00,1.61
4912.00,1.61
4911.00,1.61
4910.00,1.61
4909.00,1.61
4908.00,1.61
4907.00,1.61
4906.00,1.61
4905.00,1.61
4904.00,1.61
4903.00,1.61
4902.00,1.61
4901.00,1.61
4900.00,1.61
4899.00,1.61
4898.00,1.61
4897.00,1.61
4896.00,1.61
4895.00,1.62
4894.00,1.62
4893.00,1.62
4892.00,1.62
4891.00,1.62
4890.00,1.63
4889.00,1.63
4888.00,1.63
4887.00,1.63
4886.00,1.63
4885.00,1.63
4884.00,1.63
4883.00,1.63
4882.00,1.63
4881.00,1.64
4880.00,1.64
4879.00,1.64
4878.00,1.64
4877.00,1.64
4876.00,1.64
4875.00,1.64
4874.00,1.64
4873.00,1.64
4872.00,1.64
4871.00,1.64
4870.00,1.64
4869.00,1.65
4868.00,1.65
4867.00,1.65
4866.00,1.65
4865.00,1.65
4864.00,1.65
4863.00,1.65
4862.00,1.66
4861.00,1.66
4860.00,1.66
4859.00,1.67
4858.00,1.67
4857.00,1.67
4856.00,1.68
4855.00,1.68
4854.00,1.69
4853.00,1.69
4852.00,1.70
4851.00,1.70
4850.00,1.71
4849.00,1.72
4848.00,1.73
4847.00,1.73
4846.00,1.74
4845.00,1.75
4844.00,1.75
4843.00,1.76
4842.00,1.77
4841.00,1.77
4840.00,1.78
4839.00,1.79
4838.00,1.79
4837.00,1.80
4836.00,1.81
4835.00,1.81
4834.00,1.82
4833.00,1.82
4832.00,1.83
4831.00,1.83
4830.00,1.84
4829.00,1.84
4828.00,1.85
4827.00,1.85
4826.00,1.85
4825.00,1.86
4824.00,1.86
4823.00,1.87
4822.00,1.87
4821.00,1.88
4820.00,1.88
4819.00,1.88
4818.00,1.88
4817.00,1.89
4816.00,1.89
4815.00,1.90
4814.00,1.90
4813.00,1.90
4812.00,1.91
4811.00,1.91
4810.00,1.91
4809.00,1.92
4808.00,1.92
4807.00,1.92
4806.00,1.93
4805.00,1.93
4804.00,1.93
4803.00,1.93
4802.00,1.94
4801.00,1.94
4800.00,1.94
4799.00,1.94
4798.00,1.94
4797.00,1.95
4796.00,1.95
4795.00,1.95
4794.00,1.95
4793.00,1.95
4792.00,1.95
4791.00,1.96
4790.00,1.96
4789.00,1.96
4788.00,1.96
4787.00,1.96
4786.00,1.97
4785.00,1.97
4784.00,1.97
4783.00,1.98
4782.00,1.98
4781.00,1.98
4780.00,1.99
4779.00,1.99
4778.00,2.00
4777.00,2.00
4776.00,2.01
4775.00,2.01
4774.00,2.02
4773.00,2.02
4772.00,2.03
4771.00,2.04
4770.00,2.04
4769.00,2.05
4768.00,2.05
4767.00,2.06
4766.00,2.07
4765.00,2.07
4764.00,2.08
4763.00,2.08
4762.00,2.09
4761.00,2.09
4760.00,2.09
4759.00,2.10
4758.00,2.10
4757.00,2.11
4756.00,2.11
4755.00,2.12
4754.00,2.12
4753.00,2.12
4752.00,2.13
4751.00,2.13
4750.00,2.13
4749.00,2.14
4748.00,2.14
4747.00,2.14
4746.00,2.15
4745.00,2.15
4744.00,2.15
4743.00,2.16
4742.00,2.16
4741.00,2.17
4740.00,2.17
4739.00,2.17
4738.00,2.18
4737.00,2.18
4736.00,2.19
4735.00,2.19
4734.00,2.20
4733.00,2.21
4732.00,2.21
4731.00,2.22
4730.00,2.22
4729.00,2.23
4728.00,2.24
4727.00,2.24
4726.00,2.25
4725.00,2.26
4724.00,2.26
4723.00,2.27
4722.00,2.28
4721.00,2.28
4720.00,2.29
4719.00,2.30
4718.00,2.31
4717.00,2.31
4716.00,2.32
4715.00,2.33
4714.00,2.33
4713.00,2.34
4712.00,2.35
4711.00,2.35
4710.00,2.36
4709.00,2.37
4708.00,2.37
4707.00,2.38
4706.00,2.38
4705.00,2.39
4704.00,2.39
4703.00,2.39
4702.00,2.40
4701.00,2.40
4700.00,2.40
4699.00,2.41
4698.00,2.41
4697.00,2.42
4696.00,2.42
4695.00,2.42
4694.00,2.43
4693.00,2.43
4692.00,2.43
4691.00,2.44
4690.00,2.44
4689.00,2.44
4688.00,2.45
4687.00,2.45
4686.00,2.45
4685.00,2.45
4684.00,2.45
4683.00,2.46
4682.00,2.46
4681.00,2.46
4680.00,2.46
4679.00,2.47
4678.00,2.47
4677.00,2.47
4676.00,2.47
4675.00,2.48
4674.00,2.48
4673.00,2.48
4672.00,2.48
4671.00,2.48
4670.00,2.48
4669.00,2.47
4668.00,2.47
4667.00,2.47
4666.00,2.47
4665.00,2.46
4664.00,2.46
4663.00,2.46
4662.00,2.46
4661.00,2.45
4660.00,2.45
4659.00,2.45
4658.00,2.45
4657.00,2.45
4656.00,2.45
4655.00,2.45
4654.00,2.45
4653.00,2.45
4652.00,2.45
4651.00,2.45
4650.00,2.45
4649.00,2.46
4648.00,2.46
4647.00,2.46
4646.00,2.47
4645.00,2.48
4644.00,2.48
4643.00,2.49
4642.00,2.50
4641.00,2.51
4640.00,2.52
4639.00,2.52
4638.00,2.53
4637.00,2.54
4636.00,2.55
4635.00,2.55
4634.00,2.56
4633.00,2.57
4632.00,2.57
4631.00,2.58
4630.00,2.58
4629.00,2.59
4628.00,2.59
4627.00,2.59
4626.00,2.59
4625.00,2.59
4624.00,2.59
4623.00,2.59
4622.00,2.59
4621.00,2.59
4620.00,2.59
4619.00,2.58
4618.00,2.58
4617.00,2.58
4616.00,2.57
4615.00,2.57
4614.00,2.56
4613.00,2.56
4612.00,2.56
4611.00,2.55
4610.00,2.55
4609.00,2.54
4608.00,2.54
4607.00,2.54
4606.00,2.53
4605.00,2.53
4604.00,2.53
4603.00,2.53
4602.00,2.53
4601.00,2.52
4600.00,2.52
4599.00,2.53
4598.00,2.53
4597.00,2.53
4596.00,2.53
4595.00,2.54
4594.00,2.54
4593.00,2.54
4592.00,2.55
4591.00,2.55
4590.00,2.56
4589.00,2.56
4588.00,2.56
4587.00,2.57
4586.00,2.57
4585.00,2.57
4584.00,2.58
4583.00,2.58
4582.00,2.59
4581.00,2.59
4580.00,2.60
4579.00,2.60
4578.00,2.61
4577.00,2.61
4576.00,2.62
4575.00,2.62
4574.00,2.63
4573.00,2.63
4572.00,2.64
4571.00,2.64
4570.00,2.65
4569.00,2.65
4568.00,2.66
4567.00,2.66
4566.00,2.66
4565.00,2.67
4564.00,2.67
4563.00,2.67
4562.00,2.68
4561.00,2.68
4560.00,2.68
4559.00,2.68
4558.00,2.69
4557.00,2.69
4556.00,2.69
4555.00,2.69
4554.00,2.70
4553.00,2.70
4552.00,2.70
4551.00,2.71
4550.00,2.71
4549.00,2.71
4548.00,2.71
4547.00,2.71
4546.00,2.71
4545.00,2.71
4544.00,2.71
4543.00,2.71
4542.00,2.71
4541.00,2.72
4540.00,2.72
4539.00,2.72
4538.00,2.72
4537.00,2.72
4536.00,2.72
4535.00,2.72
4534.00,2.72
4533.00,2.72
4532.00,2.73
4531.00,2.73
4530.00,2.73
4529.00,2.73
4528.00,2.73
4527.00,2.73
4526.00,2.73
4525.00,2.73
4524.00,2.73
4523.00,2.73
4522.00,2.73
4521.00,2.73
4520.00,2.73
4519.00,2.73
4518.00,2.73
4517.00,2.72
4516.00,2.72
4515.00,2.72
4514.00,2.72
4513.00,2.72
4512.00,2.72
4511.00,2.72
4510.00,2.71
4509.00,2.71
4508.00,2.71
4507.00,2.71
4506.00,2.71
4505.00,2.71
4504.00,2.71
4503.00,2.71
4502.00,2.71
4501.00,2.71
4500.00,2.71
4499.00,2.71
4498.00,2.71
4497.00,2.71
4496.00,2.71
4495.00,2.71
4494.00,2.71
4493.00,2.72
4492.00,2.72
4491.00,2.72
4490.00,2.73
4489.00,2.73
4488.00,2.73
4487.00,2.74
4486.00,2.74
4485.00,2.74
4484.00,2.75
4483.00,2.75
4482.00,2.75
4481.00,2.75
4480.00,2.75
4479.00,2.75
4478.00,2.75
4477.00,2.75
4476.00,2.75
4475.00,2.75
4474.00,2.75
4473.00,2.75
4472.00,2.74
4471.00,2.74
4470.00,2.74
4469.00,2.73
4468.00,2.73
4467.00,2.72
4466.00,2.71
4465.00,2.71
4464.00,2.70
4463.00,2.69
4462.00,2.68
4461.00,2.67
4460.00,2.66
4459.00,2.65
4458.00,2.65
4457.00,2.64
4456.00,2.63
4455.00,2.62
4454.00,2.61
4453.00,2.60
4452.00,2.59
4451.00,2.58
4450.00,2.57
4449.00,2.56
4448.00,2.56
4447.00,2.55
4446.00,2.54
4445.00,2.53
4444.00,2.52
4443.00,2.51
4442.00,2.50
4441.00,2.49
4440.00,2.48
4439.00,2.47
4438.00,2.46
4437.00,2.45
4436.00,2.44
4435.00,2.43
4434.00,2.42
4433.00,2.41
4432.00,2.40
4431.00,2.39
4430.00,2.38
4429.00,2.36
4428.00,2.35
4427.00,2.34
4426.00,2.33
4425.00,2.32
4424.00,2.31
4423.00,2.30
4422.00,2.28
4421.00,2.27
4420.00,2.26
4419.00,2.25
4418.00,2.24
4417.00,2.24
4416.00,2.23
4415.00,2.22
4414.00,2.22
4413.00,2.21
4412.00,2.21
4411.00,2.20
4410.00,2.20
4409.00,2.20
4408.00,2.20
4407.00,2.20
4406.00,2.20
4405.00,2.20
4404.00,2.20
4403.00,2.21
4402.00,2.21
4401.00,2.21
4400.00,2.22
4399.00,2.22
4398.00,2.23
4397.00,2.23
4396.00,2.24
4395.00,2.24
4394.00,2.25
4393.00,2.26
4392.00,2.26
4391.00,2.27
4390.00,2.27
4389.00,2.28
4388.00,2.28
4387.00,2.28
4386.00,2.29
4385.00,2.29
4384.00,2.29
4383.00,2.29
4382.00,2.29
4381.00,2.29
4380.00,2.29
4379.00,2.29
4378.00,2.29
4377.00,2.29
4376.00,2.28
4375.00,2.28
4374.00,2.28
4373.00,2.28
4372.00,2.27
4371.00,2.27
4370.00,2.27
4369.00,2.26
4368.00,2.26
4367.00,2.26
4366.00,2.25
4365.00,2.25
4364.00,2.25
4363.00,2.24
4362.00,2.24
4361.00,2.24
4360.00,2.23
4359.00,2.23
4358.00,2.23
4357.00,2.23
4356.00,2.22
4355.00,2.22
4354.00,2.22
4353.00,2.22
4352.00,2.22
4351.00,2.22
4350.00,2.22
4349.00,2.21
4348.00,2.21
4347.00,2.21
4346.00,2.21
4345.00,2.21
4344.00,2.21
4343.00,2.21
4342.00,2.21
4341.00,2.21
4340.00,2.21
4339.00,2.22
4338.00,2.22
4337.00,2.22
4336.00,2.22
4335.00,2.22
4334.00,2.23
4333.00,2.23
4332.00,2.24
4331.00,2.24
4330.00,2.24
4329.00,2.25
4328.00,2.25
4327.00,2.26
4326.00,2.26
4325.00,2.27
4324.00,2.28
4323.00,2.28
4322.00,2.29
4321.00,2.30
4320.00,2.31
4319.00,2.32
4318.00,2.32
4317.00,2.33
4316.00,2.34
4315.00,2.35
4314.00,2.36
4313.00,2.37
4312.00,2.38
4311.00,2.39
4310.00,2.40
4309.00,2.41
4308.00,2.42
4307.00,2.43
4306.00,2.44
4305.00,2.45
4304.00,2.46
4303.00,2.47
4302.00,2.48
4301.00,2.49
4300.00,2.50
4299.00,2.51
4298.00,2.51
4297.00,2.52
4296.00,2.53
4295.00,2.53
4294.00,2.54
4293.00,2.54
4292.00,2.54
4291.00,2.54
4290.00,2.54
4289.00,2.54
4288.00,2.54
4287.00,2.54
4286.00,2.54
4285.00,2.53
4284.00,2.53
4283.00,2.53
4282.00,2.52
4281.00,2.51
4280.00,2.51
4279.00,2.50
4278.00,2.49
4277.00,2.49
4276.00,2.48
4275.00,2.47
4274.00,2.46
4273.00,2.45
4272.00,2.44
4271.00,2.43
4270.00,2.42
4269.00,2.41
4268.00,2.41
4267.00,2.40
4266.00,2.40
4265.00,2.39
4264.00,2.39
4263.00,2.38
4262.00,2.38
4261.00,2.38
4260.00,2.37
4259.00,2.37
4258.00,2.37
4257.00,2.37
4256.00,2.37
4255.00,2.37
4254.00,2.37
4253.00,2.37
4252.00,2.38
4251.00,2.38
4250.00,2.39
4249.00,2.39
4248.00,2.40
4247.00,2.40
4246.00,2.41
4245.00,2.42
4244.00,2.42
4243.00,2.43
4242.00,2.43
4241.00,2.44
4240.00,2.44
4239.00,2.44
4238.00,2.44
4237.00,2.45
4236.00,2.45
4235.00,2.46
4234.00,2.46
4233.00,2.47
4232.00,2.47
4231.00,2.48
4230.00,2.49
4229.00,2.49
4228.00,2.50
4227.00,2.51
4226.00,2.51
4225.00,2.51
4224.00,2.52
4223.00,2.52
4222.00,2.52
4221.00,2.52
4220.00,2.52
4219.00,2.52
4218.00,2.52
4217.00,2.52
4216.00,2.52
4215.00,2.52
4214.00,2.52
4213.00,2.52
4212.00,2.52
4211.00,2.52
4210.00,2.52
4209.00,2.51
4208.00,2.51
4207.00,2.51
4206.00,2.50
4205.00,2.50
4204.00,2.49
4203.00,2.49
4202.00,2.48
4201.00,2.47
4200.00,2.47
4199.00,2.46
4198.00,2.46
4197.00,2.45
4196.00,2.45
4195.00,2.45
4194.00,2.44
4193.00,2.44
4192.00,2.43
4191.00,2.43
4190.00,2.43
4189.00,2.42
4188.00,2.42
4187.00,2.42
4186.00,2.42
4185.00,2.42
4184.00,2.42
4183.00,2.41
4182.00,2.41
4181.00,2.41
4180.00,2.41
4179.00,2.40
4178.00,2.40
4177.00,2.40
4176.00,2.39
4175.00,2.39
4174.00,2.38
4173.00,2.38
4172.00,2.37
4171.00,2.37
4170.00,2.36
4169.00,2.35
4168.00,2.35
4167.00,2.34
4166.00,2.33
4165.00,2.32
4164.00,2.31
4163.00,2.31
4162.00,2.30
4161.00,2.29
4160.00,2.28
4159.00,2.27
4158.00,2.26
4157.00,2.25
4156.00,2.25
4155.00,2.24
4154.00,2.24
4153.00,2.23
4152.00,2.23
4151.00,2.23
4150.00,2.23
4149.00,2.22
4148.00,2.22
4147.00,2.22
4146.00,2.23
4145.00,2.23
4144.00,2.23
4143.00,2.23
4142.00,2.24
4141.00,2.25
4140.00,2.25
4139.00,2.26
4138.00,2.27
4137.00,2.28
4136.00,2.29
4135.00,2.30
4134.00,2.31
4133.00,2.32
4132.00,2.33
4131.00,2.34
4130.00,2.35
4129.00,2.36
4128.00,2.37
4127.00,2.38
4126.00,2.38
4125.00,2.39
4124.00,2.40
4123.00,2.40
4122.00,2.41
4121.00,2.42
4120.00,2.42
4119.00,2.43
4118.00,2.44
4117.00,2.44
4116.00,2.45
4115.00,2.45
4114.00,2.45
4113.00,2.46
4112.00,2.46
4111.00,2.46
4110.00,2.47
4109.00,2.47
4108.00,2.47
4107.00,2.47
4106.00,2.47
4105.00,2.47
4104.00,2.47
4103.00,2.47
4102.00,2.47
4101.00,2.47
4100.00,2.47
4099.00,2.47
4098.00,2.47
4097.00,2.47
4096.00,2.48
4095.00,2.48
4094.00,2.48
4093.00,2.48
4092.00,2.48
4091.00,2.47
4090.00,2.47
4089.00,2.47
4088.00,2.47
4087.00,2.46
4086.00,2.46
4085.00,2.46
4084.00,2.46
4083.00,2.46
4082.00,2.46
4081.00,2.46
4080.00,2.46
4079.00,2.46
4078.00,2.46
4077.00,2.46
4076.00,2.46
4075.00,2.46
4074.00,2.46
4073.00,2.46
4072.00,2.46
4071.00,2.46
4070.00,2.46
4069.00,2.46
4068.00,2.47
4067.00,2.47
4066.00,2.47
4065.00,2.47
4064.00,2.47
4063.00,2.48
4062.00,2.48
4061.00,2.48
4060.00,2.48
4059.00,2.48
4058.00,2.48
4057.00,2.49
4056.00,2.49
4055.00,2.49
4054.00,2.49
4053.00,2.49
4052.00,2.49
4051.00,2.49
4050.00,2.50
4049.00,2.50
4048.00,2.50
4047.00,2.51
4046.00,2.51
4045.00,2.51
4044.00,2.52
4043.00,2.52
4042.00,2.52
4041.00,2.52
4040.00,2.52
4039.00,2.52
4038.00,2.53
4037.00,2.53
4036.00,2.53
4035.00,2.54
4034.00,2.54
4033.00,2.55
4032.00,2.55
4031.00,2.56
4030.00,2.56
4029.00,2.57
4028.00,2.57
4027.00,2.58
4026.00,2.58
4025.00,2.58
4024.00,2.59
4023.00,2.59
4022.00,2.60
4021.00,2.60
4020.00,2.61
4019.00,2.62
4018.00,2.62
4017.00,2.63
4016.00,2.64
4015.00,2.65
4014.00,2.66
4013.00,2.67
4012.00,2.69
4011.00,2.70
4010.00,2.71
4009.00,2.72
4008.00,2.73
4007.00,2.75
4006.00,2.76
4005.00,2.77
4004.00,2.79
4003.00,2.80
4002.00,2.82
4001.00,2.83
4000.00,2.85
