创建为新数据集,样品 1107 用户 Administrator 日期 星期二, 七月 30 2019
cm-1,%T
10000.00,5.05
9999.00,4.94
9998.00,4.83
9997.00,4.72
9996.00,4.61
9995.00,4.51
9994.00,4.42
9993.00,4.33
9992.00,4.25
9991.00,4.17
9990.00,4.09
9989.00,4.03
9988.00,3.96
9987.00,3.90
9986.00,3.85
9985.00,3.80
9984.00,3.75
9983.00,3.71
9982.00,3.68
9981.00,3.65
9980.00,3.63
9979.00,3.61
9978.00,3.59
9977.00,3.57
9976.00,3.55
9975.00,3.53
9974.00,3.51
9973.00,3.49
9972.00,3.46
9971.00,3.42
9970.00,3.38
9969.00,3.34
9968.00,3.30
9967.00,3.25
9966.00,3.20
9965.00,3.15
9964.00,3.11
9963.00,3.06
9962.00,3.02
9961.00,2.97
9960.00,2.93
9959.00,2.89
9958.00,2.85
9957.00,2.81
9956.00,2.77
9955.00,2.73
9954.00,2.69
9953.00,2.66
9952.00,2.63
9951.00,2.60
9950.00,2.57
9949.00,2.55
9948.00,2.53
9947.00,2.52
9946.00,2.51
9945.00,2.51
9944.00,2.51
9943.00,2.51
9942.00,2.52
9941.00,2.52
9940.00,2.53
9939.00,2.54
9938.00,2.54
9937.00,2.55
9936.00,2.56
9935.00,2.57
9934.00,2.57
9933.00,2.58
9932.00,2.58
9931.00,2.59
9930.00,2.59
9929.00,2.59
9928.00,2.59
9927.00,2.59
9926.00,2.59
9925.00,2.58
9924.00,2.57
9923.00,2.56
9922.00,2.55
9921.00,2.54
9920.00,2.53
9919.00,2.52
9918.00,2.52
9917.00,2.51
9916.00,2.50
9915.00,2.50
9914.00,2.50
9913.00,2.50
9912.00,2.50
9911.00,2.49
9910.00,2.49
9909.00,2.49
9908.00,2.49
9907.00,2.49
9906.00,2.49
9905.00,2.49
9904.00,2.50
9903.00,2.50
9902.00,2.51
9901.00,2.52
9900.00,2.53
9899.00,2.55
9898.00,2.56
9897.00,2.58
9896.00,2.59
9895.00,2.60
9894.00,2.61
9893.00,2.61
9892.00,2.61
9891.00,2.60
9890.00,2.59
9889.00,2.58
9888.00,2.56
9887.00,2.55
9886.00,2.53
9885.00,2.51
9884.00,2.49
9883.00,2.47
9882.00,2.44
9881.00,2.42
9880.00,2.40
9879.00,2.37
9878.00,2.35
9877.00,2.32
9876.00,2.30
9875.00,2.28
9874.00,2.25
9873.00,2.23
9872.00,2.21
9871.00,2.19
9870.00,2.18
9869.00,2.17
9868.00,2.17
9867.00,2.16
9866.00,2.17
9865.00,2.18
9864.00,2.19
9863.00,2.20
9862.00,2.22
9861.00,2.24
9860.00,2.26
9859.00,2.28
9858.00,2.30
9857.00,2.32
9856.00,2.34
9855.00,2.36
9854.00,2.38
9853.00,2.39
9852.00,2.41
9851.00,2.42
9850.00,2.42
9849.00,2.43
9848.00,2.44
9847.00,2.44
9846.00,2.44
9845.00,2.44
9844.00,2.43
9843.00,2.42
9842.00,2.41
9841.00,2.40
9840.00,2.38
9839.00,2.37
9838.00,2.35
9837.00,2.33
9836.00,2.31
9835.00,2.30
9834.00,2.28
9833.00,2.27
9832.00,2.26
9831.00,2.25
9830.00,2.24
9829.00,2.23
9828.00,2.23
9827.00,2.22
9826.00,2.22
9825.00,2.22
9824.00,2.22
9823.00,2.22
9822.00,2.22
9821.00,2.22
9820.00,2.22
9819.00,2.22
9818.00,2.22
9817.00,2.21
9816.00,2.21
9815.00,2.21
9814.00,2.20
9813.00,2.19
9812.00,2.18
9811.00,2.17
9810.00,2.16
9809.00,2.15
9808.00,2.13
9807.00,2.12
9806.00,2.10
9805.00,2.09
9804.00,2.07
9803.00,2.05
9802.00,2.03
9801.00,2.01
9800.00,1.99
9799.00,1.97
9798.00,1.95
9797.00,1.93
9796.00,1.92
9795.00,1.90
9794.00,1.89
9793.00,1.88
9792.00,1.86
9791.00,1.86
9790.00,1.85
9789.00,1.84
9788.00,1.84
9787.00,1.84
9786.00,1.84
9785.00,1.84
9784.00,1.84
9783.00,1.84
9782.00,1.85
9781.00,1.85
9780.00,1.86
9779.00,1.87
9778.00,1.88
9777.00,1.89
9776.00,1.90
9775.00,1.91
9774.00,1.92
9773.00,1.94
9772.00,1.95
9771.00,1.97
9770.00,1.99
9769.00,2.01
9768.00,2.03
9767.00,2.05
9766.00,2.07
9765.00,2.09
9764.00,2.11
9763.00,2.13
9762.00,2.15
9761.00,2.18
9760.00,2.20
9759.00,2.22
9758.00,2.25
9757.00,2.27
9756.00,2.30
9755.00,2.33
9754.00,2.35
9753.00,2.38
9752.00,2.40
9751.00,2.42
9750.00,2.45
9749.00,2.47
9748.00,2.50
9747.00,2.52
9746.00,2.54
9745.00,2.56
9744.00,2.58
9743.00,2.59
9742.00,2.61
9741.00,2.62
9740.00,2.63
9739.00,2.64
9738.00,2.64
9737.00,2.64
9736.00,2.64
9735.00,2.64
9734.00,2.64
9733.00,2.63
9732.00,2.62
9731.00,2.61
9730.00,2.59
9729.00,2.58
9728.00,2.56
9727.00,2.54
9726.00,2.52
9725.00,2.49
9724.00,2.47
9723.00,2.44
9722.00,2.41
9721.00,2.37
9720.00,2.34
9719.00,2.30
9718.00,2.27
9717.00,2.23
9716.00,2.20
9715.00,2.16
9714.00,2.13
9713.00,2.09
9712.00,2.07
9711.00,2.04
9710.00,2.01
9709.00,1.99
9708.00,1.97
9707.00,1.94
9706.00,1.92
9705.00,1.91
9704.00,1.89
9703.00,1.87
9702.00,1.85
9701.00,1.83
9700.00,1.81
9699.00,1.79
9698.00,1.77
9697.00,1.75
9696.00,1.74
9695.00,1.72
9694.00,1.70
9693.00,1.69
9692.00,1.68
9691.00,1.66
9690.00,1.66
9689.00,1.65
9688.00,1.64
9687.00,1.63
9686.00,1.62
9685.00,1.62
9684.00,1.61
9683.00,1.60
9682.00,1.59
9681.00,1.58
9680.00,1.58
9679.00,1.57
9678.00,1.56
9677.00,1.55
9676.00,1.55
9675.00,1.55
9674.00,1.55
9673.00,1.55
9672.00,1.55
9671.00,1.56
9670.00,1.57
9669.00,1.58
9668.00,1.59
9667.00,1.60
9666.00,1.61
9665.00,1.62
9664.00,1.63
9663.00,1.63
9662.00,1.64
9661.00,1.64
9660.00,1.65
9659.00,1.65
9658.00,1.65
9657.00,1.65
9656.00,1.65
9655.00,1.65
9654.00,1.66
9653.00,1.66
9652.00,1.66
9651.00,1.66
9650.00,1.66
9649.00,1.66
9648.00,1.66
9647.00,1.65
9646.00,1.65
9645.00,1.64
9644.00,1.64
9643.00,1.63
9642.00,1.62
9641.00,1.61
9640.00,1.59
9639.00,1.58
9638.00,1.57
9637.00,1.56
9636.00,1.55
9635.00,1.54
9634.00,1.54
9633.00,1.53
9632.00,1.53
9631.00,1.53
9630.00,1.53
9629.00,1.53
9628.00,1.54
9627.00,1.54
9626.00,1.54
9625.00,1.54
9624.00,1.55
9623.00,1.55
9622.00,1.55
9621.00,1.56
9620.00,1.57
9619.00,1.57
9618.00,1.58
9617.00,1.60
9616.00,1.61
9615.00,1.63
9614.00,1.65
9613.00,1.67
9612.00,1.69
9611.00,1.72
9610.00,1.74
9609.00,1.77
9608.00,1.79
9607.00,1.82
9606.00,1.84
9605.00,1.86
9604.00,1.88
9603.00,1.90
9602.00,1.91
9601.00,1.93
9600.00,1.95
9599.00,1.96
9598.00,1.98
9597.00,2.00
9596.00,2.02
9595.00,2.04
9594.00,2.06
9593.00,2.08
9592.00,2.10
9591.00,2.12
9590.00,2.14
9589.00,2.16
9588.00,2.17
9587.00,2.19
9586.00,2.20
9585.00,2.21
9584.00,2.23
9583.00,2.23
9582.00,2.24
9581.00,2.25
9580.00,2.26
9579.00,2.26
9578.00,2.27
9577.00,2.27
9576.00,2.28
9575.00,2.28
9574.00,2.28
9573.00,2.27
9572.00,2.27
9571.00,2.26
9570.00,2.25
9569.00,2.23
9568.00,2.22
9567.00,2.20
9566.00,2.18
9565.00,2.16
9564.00,2.14
9563.00,2.12
9562.00,2.10
9561.00,2.07
9560.00,2.05
9559.00,2.02
9558.00,2.00
9557.00,1.97
9556.00,1.94
9555.00,1.91
9554.00,1.88
9553.00,1.85
9552.00,1.82
9551.00,1.79
9550.00,1.77
9549.00,1.74
9548.00,1.71
9547.00,1.69
9546.00,1.67
9545.00,1.65
9544.00,1.64
9543.00,1.62
9542.00,1.61
9541.00,1.59
9540.00,1.58
9539.00,1.56
9538.00,1.55
9537.00,1.53
9536.00,1.52
9535.00,1.51
9534.00,1.49
9533.00,1.48
9532.00,1.47
9531.00,1.46
9530.00,1.46
9529.00,1.45
9528.00,1.45
9527.00,1.45
9526.00,1.45
9525.00,1.46
9524.00,1.47
9523.00,1.48
9522.00,1.49
9521.00,1.50
9520.00,1.52
9519.00,1.53
9518.00,1.55
9517.00,1.56
9516.00,1.58
9515.00,1.60
9514.00,1.62
9513.00,1.64
9512.00,1.67
9511.00,1.69
9510.00,1.72
9509.00,1.74
9508.00,1.77
9507.00,1.80
9506.00,1.83
9505.00,1.86
9504.00,1.89
9503.00,1.92
9502.00,1.94
9501.00,1.97
9500.00,1.99
9499.00,2.01
9498.00,2.02
9497.00,2.03
9496.00,2.04
9495.00,2.04
9494.00,2.04
9493.00,2.04
9492.00,2.03
9491.00,2.03
9490.00,2.03
9489.00,2.03
9488.00,2.02
9487.00,2.02
9486.00,2.03
9485.00,2.03
9484.00,2.03
9483.00,2.03
9482.00,2.04
9481.00,2.04
9480.00,2.04
9479.00,2.04
9478.00,2.05
9477.00,2.05
9476.00,2.05
9475.00,2.05
9474.00,2.05
9473.00,2.05
9472.00,2.06
9471.00,2.06
9470.00,2.07
9469.00,2.08
9468.00,2.08
9467.00,2.09
9466.00,2.10
9465.00,2.11
9464.00,2.11
9463.00,2.12
9462.00,2.12
9461.00,2.11
9460.00,2.11
9459.00,2.10
9458.00,2.09
9457.00,2.08
9456.00,2.06
9455.00,2.04
9454.00,2.03
9453.00,2.01
9452.00,2.00
9451.00,1.98
9450.00,1.96
9449.00,1.95
9448.00,1.93
9447.00,1.92
9446.00,1.91
9445.00,1.90
9444.00,1.89
9443.00,1.89
9442.00,1.88
9441.00,1.88
9440.00,1.88
9439.00,1.88
9438.00,1.89
9437.00,1.89
9436.00,1.89
9435.00,1.90
9434.00,1.91
9433.00,1.91
9432.00,1.92
9431.00,1.93
9430.00,1.94
9429.00,1.95
9428.00,1.96
9427.00,1.98
9426.00,1.99
9425.00,2.00
9424.00,2.02
9423.00,2.03
9422.00,2.04
9421.00,2.05
9420.00,2.06
9419.00,2.07
9418.00,2.07
9417.00,2.08
9416.00,2.08
9415.00,2.08
9414.00,2.09
9413.00,2.09
9412.00,2.09
9411.00,2.08
9410.00,2.08
9409.00,2.08
9408.00,2.07
9407.00,2.07
9406.00,2.06
9405.00,2.05
9404.00,2.05
9403.00,2.04
9402.00,2.03
9401.00,2.01
9400.00,2.00
9399.00,1.98
9398.00,1.96
9397.00,1.94
9396.00,1.92
9395.00,1.89
9394.00,1.87
9393.00,1.84
9392.00,1.81
9391.00,1.78
9390.00,1.75
9389.00,1.72
9388.00,1.69
9387.00,1.66
9386.00,1.63
9385.00,1.60
9384.00,1.58
9383.00,1.55
9382.00,1.53
9381.00,1.50
9380.00,1.48
9379.00,1.46
9378.00,1.45
9377.00,1.43
9376.00,1.42
9375.00,1.41
9374.00,1.40
9373.00,1.40
9372.00,1.40
9371.00,1.40
9370.00,1.41
9369.00,1.42
9368.00,1.43
9367.00,1.45
9366.00,1.47
9365.00,1.49
9364.00,1.52
9363.00,1.54
9362.00,1.57
9361.00,1.60
9360.00,1.63
9359.00,1.66
9358.00,1.68
9357.00,1.71
9356.00,1.73
9355.00,1.75
9354.00,1.77
9353.00,1.79
9352.00,1.80
9351.00,1.81
9350.00,1.82
9349.00,1.83
9348.00,1.84
9347.00,1.84
9346.00,1.85
9345.00,1.85
9344.00,1.85
9343.00,1.86
9342.00,1.86
9341.00,1.86
9340.00,1.86
9339.00,1.86
9338.00,1.85
9337.00,1.85
9336.00,1.84
9335.00,1.84
9334.00,1.83
9333.00,1.83
9332.00,1.82
9331.00,1.82
9330.00,1.82
9329.00,1.82
9328.00,1.83
9327.00,1.84
9326.00,1.85
9325.00,1.86
9324.00,1.88
9323.00,1.90
9322.00,1.91
9321.00,1.92
9320.00,1.94
9319.00,1.94
9318.00,1.95
9317.00,1.95
9316.00,1.95
9315.00,1.95
9314.00,1.94
9313.00,1.94
9312.00,1.93
9311.00,1.92
9310.00,1.91
9309.00,1.91
9308.00,1.90
9307.00,1.89
9306.00,1.88
9305.00,1.87
9304.00,1.86
9303.00,1.84
9302.00,1.83
9301.00,1.80
9300.00,1.78
9299.00,1.75
9298.00,1.72
9297.00,1.70
9296.00,1.67
9295.00,1.64
9294.00,1.62
9293.00,1.59
9292.00,1.57
9291.00,1.55
9290.00,1.54
9289.00,1.52
9288.00,1.51
9287.00,1.50
9286.00,1.49
9285.00,1.48
9284.00,1.47
9283.00,1.46
9282.00,1.45
9281.00,1.44
9280.00,1.43
9279.00,1.42
9278.00,1.42
9277.00,1.41
9276.00,1.41
9275.00,1.41
9274.00,1.42
9273.00,1.42
9272.00,1.43
9271.00,1.44
9270.00,1.45
9269.00,1.45
9268.00,1.46
9267.00,1.47
9266.00,1.48
9265.00,1.50
9264.00,1.51
9263.00,1.53
9262.00,1.54
9261.00,1.56
9260.00,1.58
9259.00,1.60
9258.00,1.62
9257.00,1.64
9256.00,1.67
9255.00,1.69
9254.00,1.71
9253.00,1.73
9252.00,1.75
9251.00,1.77
9250.00,1.79
9249.00,1.81
9248.00,1.84
9247.00,1.86
9246.00,1.88
9245.00,1.90
9244.00,1.92
9243.00,1.94
9242.00,1.96
9241.00,1.98
9240.00,2.00
9239.00,2.01
9238.00,2.03
9237.00,2.04
9236.00,2.05
9235.00,2.05
9234.00,2.06
9233.00,2.06
9232.00,2.06
9231.00,2.06
9230.00,2.06
9229.00,2.06
9228.00,2.06
9227.00,2.06
9226.00,2.06
9225.00,2.06
9224.00,2.06
9223.00,2.05
9222.00,2.05
9221.00,2.05
9220.00,2.04
9219.00,2.03
9218.00,2.03
9217.00,2.02
9216.00,2.01
9215.00,2.01
9214.00,2.00
9213.00,2.00
9212.00,2.00
9211.00,1.99
9210.00,2.00
9209.00,2.00
9208.00,2.00
9207.00,2.01
9206.00,2.02
9205.00,2.03
9204.00,2.04
9203.00,2.05
9202.00,2.06
9201.00,2.07
9200.00,2.08
9199.00,2.08
9198.00,2.09
9197.00,2.09
9196.00,2.10
9195.00,2.10
9194.00,2.10
9193.00,2.11
9192.00,2.12
9191.00,2.12
9190.00,2.13
9189.00,2.13
9188.00,2.13
9187.00,2.13
9186.00,2.13
9185.00,2.13
9184.00,2.12
9183.00,2.11
9182.00,2.10
9181.00,2.09
9180.00,2.08
9179.00,2.07
9178.00,2.06
9177.00,2.05
9176.00,2.04
9175.00,2.03
9174.00,2.02
9173.00,2.01
9172.00,2.00
9171.00,1.99
9170.00,1.99
9169.00,1.98
9168.00,1.97
9167.00,1.96
9166.00,1.95
9165.00,1.94
9164.00,1.93
9163.00,1.91
9162.00,1.90
9161.00,1.89
9160.00,1.87
9159.00,1.86
9158.00,1.85
9157.00,1.84
9156.00,1.83
9155.00,1.82
9154.00,1.81
9153.00,1.80
9152.00,1.79
9151.00,1.78
9150.00,1.76
9149.00,1.75
9148.00,1.73
9147.00,1.72
9146.00,1.71
9145.00,1.69
9144.00,1.68
9143.00,1.67
9142.00,1.65
9141.00,1.64
9140.00,1.64
9139.00,1.63
9138.00,1.63
9137.00,1.63
9136.00,1.63
9135.00,1.64
9134.00,1.64
9133.00,1.65
9132.00,1.66
9131.00,1.67
9130.00,1.69
9129.00,1.70
9128.00,1.71
9127.00,1.72
9126.00,1.74
9125.00,1.75
9124.00,1.77
9123.00,1.78
9122.00,1.79
9121.00,1.81
9120.00,1.82
9119.00,1.83
9118.00,1.84
9117.00,1.85
9116.00,1.85
9115.00,1.85
9114.00,1.85
9113.00,1.85
9112.00,1.85
9111.00,1.84
9110.00,1.83
9109.00,1.82
9108.00,1.80
9107.00,1.79
9106.00,1.78
9105.00,1.76
9104.00,1.75
9103.00,1.74
9102.00,1.72
9101.00,1.71
9100.00,1.70
9099.00,1.69
9098.00,1.69
9097.00,1.68
9096.00,1.68
9095.00,1.67
9094.00,1.67
9093.00,1.67
9092.00,1.67
9091.00,1.68
9090.00,1.68
9089.00,1.69
9088.00,1.70
9087.00,1.71
9086.00,1.72
9085.00,1.74
9084.00,1.75
9083.00,1.76
9082.00,1.78
9081.00,1.79
9080.00,1.80
9079.00,1.81
9078.00,1.81
9077.00,1.82
9076.00,1.82
9075.00,1.82
9074.00,1.82
9073.00,1.82
9072.00,1.81
9071.00,1.81
9070.00,1.80
9069.00,1.79
9068.00,1.78
9067.00,1.78
9066.00,1.77
9065.00,1.76
9064.00,1.76
9063.00,1.75
9062.00,1.75
9061.00,1.75
9060.00,1.75
9059.00,1.75
9058.00,1.75
9057.00,1.75
9056.00,1.75
9055.00,1.75
9054.00,1.75
9053.00,1.75
9052.00,1.76
9051.00,1.76
9050.00,1.77
9049.00,1.78
9048.00,1.79
9047.00,1.80
9046.00,1.82
9045.00,1.84
9044.00,1.86
9043.00,1.87
9042.00,1.89
9041.00,1.91
9040.00,1.93
9039.00,1.94
9038.00,1.95
9037.00,1.96
9036.00,1.96
9035.00,1.96
9034.00,1.96
9033.00,1.95
9032.00,1.95
9031.00,1.93
9030.00,1.92
9029.00,1.91
9028.00,1.89
9027.00,1.88
9026.00,1.86
9025.00,1.84
9024.00,1.83
9023.00,1.81
9022.00,1.78
9021.00,1.76
9020.00,1.74
9019.00,1.71
9018.00,1.68
9017.00,1.65
9016.00,1.61
9015.00,1.58
9014.00,1.55
9013.00,1.52
9012.00,1.49
9011.00,1.46
9010.00,1.43
9009.00,1.41
9008.00,1.39
9007.00,1.37
9006.00,1.36
9005.00,1.35
9004.00,1.34
9003.00,1.33
9002.00,1.33
9001.00,1.33
9000.00,1.33
8999.00,1.33
8998.00,1.34
8997.00,1.34
8996.00,1.35
8995.00,1.36
8994.00,1.37
8993.00,1.38
8992.00,1.40
8991.00,1.41
8990.00,1.43
8989.00,1.44
8988.00,1.46
8987.00,1.47
8986.00,1.49
8985.00,1.50
8984.00,1.52
8983.00,1.54
8982.00,1.55
8981.00,1.57
8980.00,1.58
8979.00,1.60
8978.00,1.61
8977.00,1.62
8976.00,1.63
8975.00,1.63
8974.00,1.63
8973.00,1.63
8972.00,1.62
8971.00,1.61
8970.00,1.60
8969.00,1.59
8968.00,1.58
8967.00,1.57
8966.00,1.56
8965.00,1.55
8964.00,1.54
8963.00,1.54
8962.00,1.53
8961.00,1.52
8960.00,1.51
8959.00,1.50
8958.00,1.49
8957.00,1.49
8956.00,1.47
8955.00,1.46
8954.00,1.45
8953.00,1.44
8952.00,1.43
8951.00,1.42
8950.00,1.41
8949.00,1.40
8948.00,1.41
8947.00,1.41
8946.00,1.42
8945.00,1.43
8944.00,1.44
8943.00,1.46
8942.00,1.48
8941.00,1.49
8940.00,1.51
8939.00,1.53
8938.00,1.54
8937.00,1.56
8936.00,1.57
8935.00,1.59
8934.00,1.61
8933.00,1.62
8932.00,1.64
8931.00,1.66
8930.00,1.68
8929.00,1.70
8928.00,1.72
8927.00,1.74
8926.00,1.76
8925.00,1.77
8924.00,1.79
8923.00,1.81
8922.00,1.82
8921.00,1.83
8920.00,1.84
8919.00,1.85
8918.00,1.85
8917.00,1.85
8916.00,1.85
8915.00,1.85
8914.00,1.85
8913.00,1.84
8912.00,1.84
8911.00,1.83
8910.00,1.82
8909.00,1.81
8908.00,1.80
8907.00,1.79
8906.00,1.77
8905.00,1.76
8904.00,1.75
8903.00,1.73
8902.00,1.72
8901.00,1.71
8900.00,1.69
8899.00,1.68
8898.00,1.67
8897.00,1.67
8896.00,1.66
8895.00,1.66
8894.00,1.65
8893.00,1.65
8892.00,1.66
8891.00,1.66
8890.00,1.67
8889.00,1.67
8888.00,1.69
8887.00,1.70
8886.00,1.71
8885.00,1.73
8884.00,1.75
8883.00,1.77
8882.00,1.80
8881.00,1.82
8880.00,1.85
8879.00,1.88
8878.00,1.91
8877.00,1.94
8876.00,1.96
8875.00,1.99
8874.00,2.01
8873.00,2.04
8872.00,2.06
8871.00,2.08
8870.00,2.10
8869.00,2.11
8868.00,2.12
8867.00,2.13
8866.00,2.14
8865.00,2.14
8864.00,2.14
8863.00,2.14
8862.00,2.13
8861.00,2.13
8860.00,2.12
8859.00,2.11
8858.00,2.10
8857.00,2.08
8856.00,2.07
8855.00,2.05
8854.00,2.03
8853.00,2.01
8852.00,1.99
8851.00,1.97
8850.00,1.95
8849.00,1.93
8848.00,1.91
8847.00,1.90
8846.00,1.89
8845.00,1.88
8844.00,1.87
8843.00,1.87
8842.00,1.86
8841.00,1.86
8840.00,1.86
8839.00,1.86
8838.00,1.87
8837.00,1.87
8836.00,1.88
8835.00,1.89
8834.00,1.90
8833.00,1.91
8832.00,1.92
8831.00,1.93
8830.00,1.95
8829.00,1.96
8828.00,1.98
8827.00,2.00
8826.00,2.02
8825.00,2.04
8824.00,2.06
8823.00,2.07
8822.00,2.09
8821.00,2.10
8820.00,2.11
8819.00,2.12
8818.00,2.12
8817.00,2.12
8816.00,2.13
8815.00,2.13
8814.00,2.13
8813.00,2.13
8812.00,2.13
8811.00,2.13
8810.00,2.13
8809.00,2.13
8808.00,2.13
8807.00,2.13
8806.00,2.12
8805.00,2.12
8804.00,2.11
8803.00,2.10
8802.00,2.08
8801.00,2.07
8800.00,2.06
8799.00,2.05
8798.00,2.04
8797.00,2.03
8796.00,2.02
8795.00,2.01
8794.00,2.00
8793.00,1.99
8792.00,1.98
8791.00,1.97
8790.00,1.96
8789.00,1.95
8788.00,1.93
8787.00,1.92
8786.00,1.91
8785.00,1.90
8784.00,1.88
8783.00,1.87
8782.00,1.86
8781.00,1.85
8780.00,1.83
8779.00,1.82
8778.00,1.81
8777.00,1.81
8776.00,1.80
8775.00,1.79
8774.00,1.78
8773.00,1.78
8772.00,1.77
8771.00,1.76
8770.00,1.75
8769.00,1.75
8768.00,1.74
8767.00,1.73
8766.00,1.72
8765.00,1.72
8764.00,1.71
8763.00,1.71
8762.00,1.70
8761.00,1.70
8760.00,1.70
8759.00,1.70
8758.00,1.70
8757.00,1.70
8756.00,1.70
8755.00,1.70
8754.00,1.70
8753.00,1.70
8752.00,1.70
8751.00,1.70
8750.00,1.70
8749.00,1.70
8748.00,1.70
8747.00,1.70
8746.00,1.69
8745.00,1.69
8744.00,1.69
8743.00,1.69
8742.00,1.69
8741.00,1.69
8740.00,1.69
8739.00,1.69
8738.00,1.69
8737.00,1.69
8736.00,1.69
8735.00,1.69
8734.00,1.70
8733.00,1.70
8732.00,1.70
8731.00,1.70
8730.00,1.70
8729.00,1.71
8728.00,1.71
8727.00,1.71
8726.00,1.72
8725.00,1.72
8724.00,1.73
8723.00,1.74
8722.00,1.75
8721.00,1.76
8720.00,1.78
8719.00,1.79
8718.00,1.80
8717.00,1.82
8716.00,1.83
8715.00,1.84
8714.00,1.85
8713.00,1.86
8712.00,1.87
8711.00,1.87
8710.00,1.88
8709.00,1.89
8708.00,1.89
8707.00,1.89
8706.00,1.89
8705.00,1.90
8704.00,1.90
8703.00,1.90
8702.00,1.90
8701.00,1.90
8700.00,1.91
8699.00,1.91
8698.00,1.90
8697.00,1.90
8696.00,1.89
8695.00,1.88
8694.00,1.87
8693.00,1.86
8692.00,1.85
8691.00,1.84
8690.00,1.83
8689.00,1.81
8688.00,1.80
8687.00,1.79
8686.00,1.78
8685.00,1.77
8684.00,1.76
8683.00,1.75
8682.00,1.74
8681.00,1.74
8680.00,1.73
8679.00,1.72
8678.00,1.72
8677.00,1.71
8676.00,1.70
8675.00,1.69
8674.00,1.68
8673.00,1.67
8672.00,1.65
8671.00,1.64
8670.00,1.63
8669.00,1.61
8668.00,1.60
8667.00,1.59
8666.00,1.58
8665.00,1.58
8664.00,1.57
8663.00,1.56
8662.00,1.56
8661.00,1.55
8660.00,1.55
8659.00,1.54
8658.00,1.54
8657.00,1.54
8656.00,1.53
8655.00,1.53
8654.00,1.53
8653.00,1.52
8652.00,1.52
8651.00,1.51
8650.00,1.51
8649.00,1.51
8648.00,1.50
8647.00,1.50
8646.00,1.50
8645.00,1.50
8644.00,1.51
8643.00,1.51
8642.00,1.51
8641.00,1.51
8640.00,1.51
8639.00,1.51
8638.00,1.52
8637.00,1.52
8636.00,1.52
8635.00,1.52
8634.00,1.52
8633.00,1.52
8632.00,1.52
8631.00,1.52
8630.00,1.52
8629.00,1.52
8628.00,1.52
8627.00,1.53
8626.00,1.53
8625.00,1.53
8624.00,1.54
8623.00,1.54
8622.00,1.54
8621.00,1.55
8620.00,1.55
8619.00,1.56
8618.00,1.56
8617.00,1.57
8616.00,1.58
8615.00,1.59
8614.00,1.60
8613.00,1.62
8612.00,1.63
8611.00,1.65
8610.00,1.66
8609.00,1.68
8608.00,1.70
8607.00,1.72
8606.00,1.74
8605.00,1.76
8604.00,1.79
8603.00,1.81
8602.00,1.83
8601.00,1.85
8600.00,1.87
8599.00,1.89
8598.00,1.91
8597.00,1.93
8596.00,1.96
8595.00,1.98
8594.00,2.00
8593.00,2.03
8592.00,2.05
8591.00,2.07
8590.00,2.09
8589.00,2.11
8588.00,2.12
8587.00,2.14
8586.00,2.16
8585.00,2.17
8584.00,2.18
8583.00,2.19
8582.00,2.20
8581.00,2.20
8580.00,2.20
8579.00,2.21
8578.00,2.21
8577.00,2.21
8576.00,2.20
8575.00,2.20
8574.00,2.20
8573.00,2.20
8572.00,2.19
8571.00,2.19
8570.00,2.18
8569.00,2.18
8568.00,2.17
8567.00,2.17
8566.00,2.16
8565.00,2.15
8564.00,2.14
8563.00,2.13
8562.00,2.12
8561.00,2.11
8560.00,2.10
8559.00,2.09
8558.00,2.08
8557.00,2.06
8556.00,2.05
8555.00,2.03
8554.00,2.02
8553.00,2.00
8552.00,1.98
8551.00,1.97
8550.00,1.95
8549.00,1.94
8548.00,1.92
8547.00,1.91
8546.00,1.89
8545.00,1.88
8544.00,1.87
8543.00,1.86
8542.00,1.85
8541.00,1.83
8540.00,1.82
8539.00,1.81
8538.00,1.80
8537.00,1.79
8536.00,1.77
8535.00,1.76
8534.00,1.75
8533.00,1.74
8532.00,1.73
8531.00,1.72
8530.00,1.72
8529.00,1.71
8528.00,1.71
8527.00,1.71
8526.00,1.71
8525.00,1.71
8524.00,1.71
8523.00,1.72
8522.00,1.72
8521.00,1.72
8520.00,1.72
8519.00,1.72
8518.00,1.72
8517.00,1.71
8516.00,1.71
8515.00,1.70
8514.00,1.70
8513.00,1.69
8512.00,1.69
8511.00,1.68
8510.00,1.68
8509.00,1.68
8508.00,1.68
8507.00,1.69
8506.00,1.69
8505.00,1.69
8504.00,1.70
8503.00,1.70
8502.00,1.70
8501.00,1.70
8500.00,1.70
8499.00,1.70
8498.00,1.70
8497.00,1.70
8496.00,1.69
8495.00,1.69
8494.00,1.68
8493.00,1.68
8492.00,1.68
8491.00,1.67
8490.00,1.67
8489.00,1.67
8488.00,1.67
8487.00,1.67
8486.00,1.67
8485.00,1.67
8484.00,1.67
8483.00,1.67
8482.00,1.66
8481.00,1.66
8480.00,1.65
8479.00,1.64
8478.00,1.62
8477.00,1.61
8476.00,1.60
8475.00,1.59
8474.00,1.58
8473.00,1.58
8472.00,1.58
8471.00,1.58
8470.00,1.58
8469.00,1.59
8468.00,1.60
8467.00,1.61
8466.00,1.62
8465.00,1.64
8464.00,1.66
8463.00,1.67
8462.00,1.69
8461.00,1.71
8460.00,1.72
8459.00,1.74
8458.00,1.76
8457.00,1.77
8456.00,1.79
8455.00,1.80
8454.00,1.82
8453.00,1.84
8452.00,1.86
8451.00,1.88
8450.00,1.91
8449.00,1.93
8448.00,1.94
8447.00,1.96
8446.00,1.97
8445.00,1.98
8444.00,1.99
8443.00,1.99
8442.00,1.99
8441.00,1.99
8440.00,1.98
8439.00,1.98
8438.00,1.97
8437.00,1.96
8436.00,1.95
8435.00,1.93
8434.00,1.92
8433.00,1.91
8432.00,1.90
8431.00,1.90
8430.00,1.89
8429.00,1.88
8428.00,1.87
8427.00,1.87
8426.00,1.86
8425.00,1.85
8424.00,1.85
8423.00,1.84
8422.00,1.84
8421.00,1.83
8420.00,1.83
8419.00,1.83
8418.00,1.83
8417.00,1.82
8416.00,1.82
8415.00,1.82
8414.00,1.82
8413.00,1.81
8412.00,1.81
8411.00,1.81
8410.00,1.80
8409.00,1.80
8408.00,1.79
8407.00,1.78
8406.00,1.78
8405.00,1.77
8404.00,1.76
8403.00,1.75
8402.00,1.74
8401.00,1.73
8400.00,1.72
8399.00,1.70
8398.00,1.69
8397.00,1.68
8396.00,1.67
8395.00,1.66
8394.00,1.65
8393.00,1.64
8392.00,1.63
8391.00,1.62
8390.00,1.62
8389.00,1.61
8388.00,1.61
8387.00,1.61
8386.00,1.61
8385.00,1.62
8384.00,1.62
8383.00,1.63
8382.00,1.63
8381.00,1.64
8380.00,1.64
8379.00,1.64
8378.00,1.65
8377.00,1.65
8376.00,1.65
8375.00,1.65
8374.00,1.65
8373.00,1.66
8372.00,1.66
8371.00,1.66
8370.00,1.66
8369.00,1.66
8368.00,1.66
8367.00,1.66
8366.00,1.66
8365.00,1.66
8364.00,1.66
8363.00,1.65
8362.00,1.65
8361.00,1.65
8360.00,1.65
8359.00,1.65
8358.00,1.65
8357.00,1.65
8356.00,1.65
8355.00,1.66
8354.00,1.67
8353.00,1.68
8352.00,1.69
8351.00,1.71
8350.00,1.73
8349.00,1.75
8348.00,1.77
8347.00,1.79
8346.00,1.82
8345.00,1.84
8344.00,1.87
8343.00,1.89
8342.00,1.92
8341.00,1.95
8340.00,1.97
8339.00,2.00
8338.00,2.02
8337.00,2.05
8336.00,2.07
8335.00,2.08
8334.00,2.10
8333.00,2.12
8332.00,2.13
8331.00,2.14
8330.00,2.15
8329.00,2.16
8328.00,2.17
8327.00,2.18
8326.00,2.18
8325.00,2.18
8324.00,2.18
8323.00,2.17
8322.00,2.17
8321.00,2.16
8320.00,2.14
8319.00,2.13
8318.00,2.11
8317.00,2.10
8316.00,2.08
8315.00,2.06
8314.00,2.05
8313.00,2.03
8312.00,2.02
8311.00,2.00
8310.00,1.99
8309.00,1.98
8308.00,1.97
8307.00,1.96
8306.00,1.95
8305.00,1.94
8304.00,1.94
8303.00,1.93
8302.00,1.92
8301.00,1.92
8300.00,1.92
8299.00,1.91
8298.00,1.91
8297.00,1.91
8296.00,1.92
8295.00,1.92
8294.00,1.93
8293.00,1.94
8292.00,1.95
8291.00,1.96
8290.00,1.98
8289.00,1.99
8288.00,2.00
8287.00,2.02
8286.00,2.03
8285.00,2.04
8284.00,2.05
8283.00,2.06
8282.00,2.07
8281.00,2.07
8280.00,2.08
8279.00,2.08
8278.00,2.08
8277.00,2.08
8276.00,2.08
8275.00,2.08
8274.00,2.08
8273.00,2.08
8272.00,2.07
8271.00,2.07
8270.00,2.06
8269.00,2.05
8268.00,2.04
8267.00,2.03
8266.00,2.02
8265.00,2.00
8264.00,1.98
8263.00,1.97
8262.00,1.95
8261.00,1.93
8260.00,1.91
8259.00,1.89
8258.00,1.87
8257.00,1.86
8256.00,1.85
8255.00,1.83
8254.00,1.83
8253.00,1.82
8252.00,1.81
8251.00,1.81
8250.00,1.80
8249.00,1.80
8248.00,1.80
8247.00,1.79
8246.00,1.79
8245.00,1.79
8244.00,1.79
8243.00,1.79
8242.00,1.80
8241.00,1.80
8240.00,1.81
8239.00,1.82
8238.00,1.83
8237.00,1.84
8236.00,1.85
8235.00,1.86
8234.00,1.87
8233.00,1.89
8232.00,1.90
8231.00,1.91
8230.00,1.92
8229.00,1.92
8228.00,1.93
8227.00,1.94
8226.00,1.95
8225.00,1.95
8224.00,1.96
8223.00,1.96
8222.00,1.97
8221.00,1.98
8220.00,1.98
8219.00,1.98
8218.00,1.99
8217.00,1.99
8216.00,1.99
8215.00,1.99
8214.00,1.99
8213.00,1.99
8212.00,1.99
8211.00,1.99
8210.00,1.99
8209.00,1.99
8208.00,2.00
8207.00,2.00
8206.00,2.00
8205.00,2.00
8204.00,2.00
8203.00,2.00
8202.00,2.00
8201.00,2.00
8200.00,2.00
8199.00,2.00
8198.00,2.00
8197.00,2.00
8196.00,2.00
8195.00,2.00
8194.00,1.99
8193.00,1.99
8192.00,1.99
8191.00,1.99
8190.00,1.98
8189.00,1.98
8188.00,1.97
8187.00,1.96
8186.00,1.96
8185.00,1.95
8184.00,1.93
8183.00,1.92
8182.00,1.91
8181.00,1.90
8180.00,1.89
8179.00,1.88
8178.00,1.87
8177.00,1.86
8176.00,1.86
8175.00,1.85
8174.00,1.84
8173.00,1.84
8172.00,1.83
8171.00,1.83
8170.00,1.82
8169.00,1.82
8168.00,1.81
8167.00,1.81
8166.00,1.81
8165.00,1.81
8164.00,1.81
8163.00,1.82
8162.00,1.82
8161.00,1.83
8160.00,1.84
8159.00,1.85
8158.00,1.86
8157.00,1.87
8156.00,1.88
8155.00,1.89
8154.00,1.90
8153.00,1.92
8152.00,1.93
8151.00,1.94
8150.00,1.96
8149.00,1.97
8148.00,1.98
8147.00,1.99
8146.00,2.00
8145.00,2.01
8144.00,2.02
8143.00,2.02
8142.00,2.03
8141.00,2.03
8140.00,2.04
8139.00,2.04
8138.00,2.04
8137.00,2.04
8136.00,2.04
8135.00,2.04
8134.00,2.04
8133.00,2.03
8132.00,2.03
8131.00,2.02
8130.00,2.01
8129.00,2.01
8128.00,2.00
8127.00,1.99
8126.00,1.98
8125.00,1.97
8124.00,1.95
8123.00,1.95
8122.00,1.94
8121.00,1.93
8120.00,1.92
8119.00,1.92
8118.00,1.91
8117.00,1.91
8116.00,1.90
8115.00,1.90
8114.00,1.90
8113.00,1.91
8112.00,1.91
8111.00,1.91
8110.00,1.92
8109.00,1.92
8108.00,1.93
8107.00,1.93
8106.00,1.94
8105.00,1.94
8104.00,1.95
8103.00,1.96
8102.00,1.97
8101.00,1.98
8100.00,1.99
8099.00,2.00
8098.00,2.01
8097.00,2.02
8096.00,2.03
8095.00,2.04
8094.00,2.04
8093.00,2.05
8092.00,2.05
8091.00,2.05
8090.00,2.05
8089.00,2.05
8088.00,2.05
8087.00,2.05
8086.00,2.05
8085.00,2.05
8084.00,2.04
8083.00,2.04
8082.00,2.04
8081.00,2.04
8080.00,2.04
8079.00,2.04
8078.00,2.04
8077.00,2.04
8076.00,2.04
8075.00,2.03
8074.00,2.03
8073.00,2.02
8072.00,2.02
8071.00,2.02
8070.00,2.02
8069.00,2.02
8068.00,2.02
8067.00,2.02
8066.00,2.03
8065.00,2.04
8064.00,2.05
8063.00,2.06
8062.00,2.08
8061.00,2.09
8060.00,2.10
8059.00,2.12
8058.00,2.13
8057.00,2.14
8056.00,2.15
8055.00,2.16
8054.00,2.17
8053.00,2.18
8052.00,2.19
8051.00,2.19
8050.00,2.20
8049.00,2.21
8048.00,2.22
8047.00,2.23
8046.00,2.25
8045.00,2.26
8044.00,2.27
8043.00,2.28
8042.00,2.28
8041.00,2.29
8040.00,2.30
8039.00,2.30
8038.00,2.30
8037.00,2.31
8036.00,2.31
8035.00,2.31
8034.00,2.31
8033.00,2.31
8032.00,2.31
8031.00,2.32
8030.00,2.32
8029.00,2.32
8028.00,2.33
8027.00,2.34
8026.00,2.34
8025.00,2.35
8024.00,2.35
8023.00,2.36
8022.00,2.36
8021.00,2.37
8020.00,2.37
8019.00,2.37
8018.00,2.37
8017.00,2.37
8016.00,2.37
8015.00,2.37
8014.00,2.37
8013.00,2.37
8012.00,2.37
8011.00,2.37
8010.00,2.38
8009.00,2.37
8008.00,2.37
8007.00,2.37
8006.00,2.37
8005.00,2.37
8004.00,2.36
8003.00,2.36
8002.00,2.35
8001.00,2.35
8000.00,2.34
7999.00,2.33
7998.00,2.32
7997.00,2.32
7996.00,2.31
7995.00,2.31
7994.00,2.30
7993.00,2.30
7992.00,2.29
7991.00,2.29
7990.00,2.29
7989.00,2.28
7988.00,2.28
7987.00,2.27
7986.00,2.27
7985.00,2.26
7984.00,2.25
7983.00,2.24
7982.00,2.23
7981.00,2.22
7980.00,2.20
7979.00,2.19
7978.00,2.18
7977.00,2.17
7976.00,2.16
7975.00,2.15
7974.00,2.14
7973.00,2.14
7972.00,2.13
7971.00,2.12
7970.00,2.11
7969.00,2.11
7968.00,2.10
7967.00,2.09
7966.00,2.08
7965.00,2.07
7964.00,2.06
7963.00,2.05
7962.00,2.05
7961.00,2.04
7960.00,2.04
7959.00,2.04
7958.00,2.04
7957.00,2.04
7956.00,2.05
7955.00,2.05
7954.00,2.06
7953.00,2.07
7952.00,2.08
7951.00,2.08
7950.00,2.09
7949.00,2.09
7948.00,2.10
7947.00,2.10
7946.00,2.11
7945.00,2.11
7944.00,2.11
7943.00,2.11
7942.00,2.12
7941.00,2.12
7940.00,2.12
7939.00,2.12
7938.00,2.11
7937.00,2.11
7936.00,2.10
7935.00,2.10
7934.00,2.09
7933.00,2.08
7932.00,2.06
7931.00,2.05
7930.00,2.04
7929.00,2.03
7928.00,2.01
7927.00,2.00
7926.00,1.99
7925.00,1.98
7924.00,1.96
7923.00,1.95
7922.00,1.94
7921.00,1.93
7920.00,1.92
7919.00,1.92
7918.00,1.91
7917.00,1.91
7916.00,1.91
7915.00,1.90
7914.00,1.91
7913.00,1.91
7912.00,1.91
7911.00,1.92
7910.00,1.93
7909.00,1.94
7908.00,1.95
7907.00,1.96
7906.00,1.97
7905.00,1.98
7904.00,1.99
7903.00,2.01
7902.00,2.01
7901.00,2.02
7900.00,2.03
7899.00,2.04
7898.00,2.04
7897.00,2.05
7896.00,2.05
7895.00,2.05
7894.00,2.05
7893.00,2.06
7892.00,2.06
7891.00,2.06
7890.00,2.05
7889.00,2.05
7888.00,2.05
7887.00,2.05
7886.00,2.04
7885.00,2.04
7884.00,2.03
7883.00,2.03
7882.00,2.02
7881.00,2.02
7880.00,2.01
7879.00,2.01
7878.00,2.01
7877.00,2.00
7876.00,2.00
7875.00,2.00
7874.00,2.00
7873.00,2.00
7872.00,2.00
7871.00,2.00
7870.00,2.00
7869.00,2.01
7868.00,2.01
7867.00,2.02
7866.00,2.02
7865.00,2.03
7864.00,2.04
7863.00,2.05
7862.00,2.05
7861.00,2.06
7860.00,2.07
7859.00,2.07
7858.00,2.08
7857.00,2.08
7856.00,2.09
7855.00,2.09
7854.00,2.09
7853.00,2.09
7852.00,2.09
7851.00,2.09
7850.00,2.09
7849.00,2.09
7848.00,2.09
7847.00,2.08
7846.00,2.08
7845.00,2.08
7844.00,2.08
7843.00,2.07
7842.00,2.07
7841.00,2.06
7840.00,2.06
7839.00,2.05
7838.00,2.05
7837.00,2.04
7836.00,2.04
7835.00,2.03
7834.00,2.02
7833.00,2.02
7832.00,2.01
7831.00,2.01
7830.00,2.00
7829.00,2.00
7828.00,2.00
7827.00,2.00
7826.00,2.00
7825.00,2.00
7824.00,2.00
7823.00,2.01
7822.00,2.01
7821.00,2.02
7820.00,2.03
7819.00,2.04
7818.00,2.05
7817.00,2.05
7816.00,2.06
7815.00,2.07
7814.00,2.08
7813.00,2.09
7812.00,2.10
7811.00,2.11
7810.00,2.12
7809.00,2.13
7808.00,2.14
7807.00,2.15
7806.00,2.16
7805.00,2.17
7804.00,2.18
7803.00,2.19
7802.00,2.20
7801.00,2.21
7800.00,2.21
7799.00,2.22
7798.00,2.23
7797.00,2.23
7796.00,2.24
7795.00,2.24
7794.00,2.25
7793.00,2.25
7792.00,2.26
7791.00,2.27
7790.00,2.27
7789.00,2.28
7788.00,2.28
7787.00,2.29
7786.00,2.30
7785.00,2.30
7784.00,2.31
7783.00,2.31
7782.00,2.32
7781.00,2.32
7780.00,2.33
7779.00,2.33
7778.00,2.33
7777.00,2.34
7776.00,2.34
7775.00,2.34
7774.00,2.34
7773.00,2.34
7772.00,2.34
7771.00,2.33
7770.00,2.33
7769.00,2.32
7768.00,2.31
7767.00,2.30
7766.00,2.29
7765.00,2.27
7764.00,2.26
7763.00,2.24
7762.00,2.23
7761.00,2.21
7760.00,2.20
7759.00,2.18
7758.00,2.17
7757.00,2.15
7756.00,2.14
7755.00,2.12
7754.00,2.11
7753.00,2.09
7752.00,2.08
7751.00,2.06
7750.00,2.05
7749.00,2.03
7748.00,2.02
7747.00,2.01
7746.00,2.00
7745.00,1.99
7744.00,1.98
7743.00,1.97
7742.00,1.96
7741.00,1.96
7740.00,1.95
7739.00,1.95
7738.00,1.95
7737.00,1.94
7736.00,1.94
7735.00,1.94
7734.00,1.94
7733.00,1.94
7732.00,1.94
7731.00,1.93
7730.00,1.93
7729.00,1.93
7728.00,1.93
7727.00,1.93
7726.00,1.94
7725.00,1.94
7724.00,1.94
7723.00,1.95
7722.00,1.95
7721.00,1.96
7720.00,1.97
7719.00,1.98
7718.00,1.99
7717.00,2.00
7716.00,2.01
7715.00,2.02
7714.00,2.03
7713.00,2.04
7712.00,2.06
7711.00,2.07
7710.00,2.08
7709.00,2.09
7708.00,2.10
7707.00,2.11
7706.00,2.11
7705.00,2.12
7704.00,2.13
7703.00,2.14
7702.00,2.15
7701.00,2.15
7700.00,2.16
7699.00,2.16
7698.00,2.17
7697.00,2.17
7696.00,2.17
7695.00,2.17
7694.00,2.17
7693.00,2.16
7692.00,2.16
7691.00,2.16
7690.00,2.15
7689.00,2.14
7688.00,2.14
7687.00,2.13
7686.00,2.12
7685.00,2.11
7684.00,2.11
7683.00,2.10
7682.00,2.10
7681.00,2.10
7680.00,2.10
7679.00,2.10
7678.00,2.10
7677.00,2.10
7676.00,2.11
7675.00,2.11
7674.00,2.12
7673.00,2.13
7672.00,2.14
7671.00,2.15
7670.00,2.16
7669.00,2.17
7668.00,2.18
7667.00,2.19
7666.00,2.21
7665.00,2.22
7664.00,2.23
7663.00,2.24
7662.00,2.26
7661.00,2.27
7660.00,2.28
7659.00,2.29
7658.00,2.30
7657.00,2.32
7656.00,2.33
7655.00,2.34
7654.00,2.34
7653.00,2.35
7652.00,2.35
7651.00,2.35
7650.00,2.36
7649.00,2.36
7648.00,2.35
7647.00,2.35
7646.00,2.35
7645.00,2.34
7644.00,2.34
7643.00,2.33
7642.00,2.32
7641.00,2.31
7640.00,2.31
7639.00,2.30
7638.00,2.29
7637.00,2.28
7636.00,2.28
7635.00,2.27
7634.00,2.27
7633.00,2.26
7632.00,2.26
7631.00,2.25
7630.00,2.25
7629.00,2.24
7628.00,2.24
7627.00,2.23
7626.00,2.23
7625.00,2.23
7624.00,2.22
7623.00,2.22
7622.00,2.22
7621.00,2.22
7620.00,2.21
7619.00,2.21
7618.00,2.21
7617.00,2.21
7616.00,2.21
7615.00,2.21
7614.00,2.21
7613.00,2.21
7612.00,2.21
7611.00,2.21
7610.00,2.21
7609.00,2.21
7608.00,2.21
7607.00,2.20
7606.00,2.20
7605.00,2.20
7604.00,2.19
7603.00,2.19
7602.00,2.19
7601.00,2.18
7600.00,2.18
7599.00,2.18
7598.00,2.18
7597.00,2.17
7596.00,2.17
7595.00,2.17
7594.00,2.17
7593.00,2.17
7592.00,2.17
7591.00,2.17
7590.00,2.17
7589.00,2.17
7588.00,2.18
7587.00,2.18
7586.00,2.18
7585.00,2.19
7584.00,2.20
7583.00,2.20
7582.00,2.21
7581.00,2.22
7580.00,2.22
7579.00,2.23
7578.00,2.24
7577.00,2.25
7576.00,2.26
7575.00,2.26
7574.00,2.27
7573.00,2.28
7572.00,2.29
7571.00,2.30
7570.00,2.31
7569.00,2.32
7568.00,2.33
7567.00,2.33
7566.00,2.34
7565.00,2.35
7564.00,2.35
7563.00,2.36
7562.00,2.36
7561.00,2.37
7560.00,2.37
7559.00,2.38
7558.00,2.38
7557.00,2.38
7556.00,2.38
7555.00,2.38
7554.00,2.38
7553.00,2.38
7552.00,2.37
7551.00,2.37
7550.00,2.37
7549.00,2.37
7548.00,2.36
7547.00,2.36
7546.00,2.35
7545.00,2.35
7544.00,2.34
7543.00,2.34
7542.00,2.33
7541.00,2.33
7540.00,2.32
7539.00,2.32
7538.00,2.31
7537.00,2.30
7536.00,2.30
7535.00,2.29
7534.00,2.29
7533.00,2.29
7532.00,2.28
7531.00,2.28
7530.00,2.28
7529.00,2.28
7528.00,2.28
7527.00,2.28
7526.00,2.29
7525.00,2.29
7524.00,2.29
7523.00,2.30
7522.00,2.31
7521.00,2.31
7520.00,2.32
7519.00,2.32
7518.00,2.33
7517.00,2.34
7516.00,2.34
7515.00,2.35
7514.00,2.35
7513.00,2.36
7512.00,2.36
7511.00,2.37
7510.00,2.37
7509.00,2.37
7508.00,2.37
7507.00,2.37
7506.00,2.37
7505.00,2.37
7504.00,2.36
7503.00,2.36
7502.00,2.35
7501.00,2.34
7500.00,2.34
7499.00,2.33
7498.00,2.32
7497.00,2.31
7496.00,2.30
7495.00,2.29
7494.00,2.28
7493.00,2.28
7492.00,2.27
7491.00,2.26
7490.00,2.25
7489.00,2.24
7488.00,2.24
7487.00,2.24
7486.00,2.23
7485.00,2.23
7484.00,2.23
7483.00,2.23
7482.00,2.23
7481.00,2.24
7480.00,2.24
7479.00,2.25
7478.00,2.25
7477.00,2.26
7476.00,2.27
7475.00,2.28
7474.00,2.29
7473.00,2.29
7472.00,2.30
7471.00,2.31
7470.00,2.32
7469.00,2.33
7468.00,2.34
7467.00,2.34
7466.00,2.35
7465.00,2.36
7464.00,2.36
7463.00,2.37
7462.00,2.37
7461.00,2.37
7460.00,2.38
7459.00,2.38
7458.00,2.38
7457.00,2.37
7456.00,2.37
7455.00,2.37
7454.00,2.37
7453.00,2.36
7452.00,2.36
7451.00,2.36
7450.00,2.35
7449.00,2.34
7448.00,2.34
7447.00,2.33
7446.00,2.33
7445.00,2.33
7444.00,2.33
7443.00,2.32
7442.00,2.33
7441.00,2.33
7440.00,2.33
7439.00,2.33
7438.00,2.33
7437.00,2.34
7436.00,2.34
7435.00,2.34
7434.00,2.34
7433.00,2.34
7432.00,2.34
7431.00,2.35
7430.00,2.35
7429.00,2.35
7428.00,2.35
7427.00,2.35
7426.00,2.34
7425.00,2.34
7424.00,2.34
7423.00,2.34
7422.00,2.34
7421.00,2.33
7420.00,2.33
7419.00,2.32
7418.00,2.31
7417.00,2.30
7416.00,2.29
7415.00,2.28
7414.00,2.26
7413.00,2.25
7412.00,2.23
7411.00,2.22
7410.00,2.20
7409.00,2.19
7408.00,2.18
7407.00,2.17
7406.00,2.16
7405.00,2.15
7404.00,2.14
7403.00,2.13
7402.00,2.12
7401.00,2.12
7400.00,2.11
7399.00,2.11
7398.00,2.10
7397.00,2.10
7396.00,2.10
7395.00,2.11
7394.00,2.11
7393.00,2.12
7392.00,2.13
7391.00,2.13
7390.00,2.14
7389.00,2.15
7388.00,2.15
7387.00,2.16
7386.00,2.17
7385.00,2.17
7384.00,2.18
7383.00,2.18
7382.00,2.19
7381.00,2.19
7380.00,2.20
7379.00,2.20
7378.00,2.21
7377.00,2.21
7376.00,2.21
7375.00,2.21
7374.00,2.21
7373.00,2.21
7372.00,2.21
7371.00,2.21
7370.00,2.20
7369.00,2.20
7368.00,2.19
7367.00,2.18
7366.00,2.17
7365.00,2.16
7364.00,2.16
7363.00,2.15
7362.00,2.14
7361.00,2.14
7360.00,2.14
7359.00,2.13
7358.00,2.13
7357.00,2.13
7356.00,2.13
7355.00,2.13
7354.00,2.12
7353.00,2.12
7352.00,2.12
7351.00,2.12
7350.00,2.12
7349.00,2.12
7348.00,2.12
7347.00,2.13
7346.00,2.13
7345.00,2.13
7344.00,2.14
7343.00,2.14
7342.00,2.14
7341.00,2.15
7340.00,2.15
7339.00,2.16
7338.00,2.16
7337.00,2.16
7336.00,2.17
7335.00,2.17
7334.00,2.17
7333.00,2.17
7332.00,2.18
7331.00,2.18
7330.00,2.18
7329.00,2.19
7328.00,2.19
7327.00,2.19
7326.00,2.20
7325.00,2.20
7324.00,2.20
7323.00,2.20
7322.00,2.21
7321.00,2.21
7320.00,2.21
7319.00,2.21
7318.00,2.21
7317.00,2.21
7316.00,2.22
7315.00,2.22
7314.00,2.22
7313.00,2.23
7312.00,2.23
7311.00,2.24
7310.00,2.24
7309.00,2.24
7308.00,2.25
7307.00,2.25
7306.00,2.26
7305.00,2.26
7304.00,2.26
7303.00,2.27
7302.00,2.27
7301.00,2.27
7300.00,2.28
7299.00,2.28
7298.00,2.28
7297.00,2.28
7296.00,2.28
7295.00,2.28
7294.00,2.28
7293.00,2.28
7292.00,2.28
7291.00,2.28
7290.00,2.28
7289.00,2.27
7288.00,2.27
7287.00,2.26
7286.00,2.26
7285.00,2.25
7284.00,2.25
7283.00,2.24
7282.00,2.24
7281.00,2.23
7280.00,2.23
7279.00,2.22
7278.00,2.21
7277.00,2.21
7276.00,2.20
7275.00,2.19
7274.00,2.18
7273.00,2.17
7272.00,2.17
7271.00,2.16
7270.00,2.15
7269.00,2.15
7268.00,2.14
7267.00,2.14
7266.00,2.13
7265.00,2.13
7264.00,2.13
7263.00,2.13
7262.00,2.13
7261.00,2.13
7260.00,2.13
7259.00,2.13
7258.00,2.13
7257.00,2.13
7256.00,2.13
7255.00,2.12
7254.00,2.12
7253.00,2.12
7252.00,2.12
7251.00,2.12
7250.00,2.12
7249.00,2.12
7248.00,2.12
7247.00,2.12
7246.00,2.13
7245.00,2.13
7244.00,2.13
7243.00,2.13
7242.00,2.14
7241.00,2.14
7240.00,2.14
7239.00,2.14
7238.00,2.14
7237.00,2.14
7236.00,2.14
7235.00,2.14
7234.00,2.14
7233.00,2.13
7232.00,2.13
7231.00,2.13
7230.00,2.13
7229.00,2.13
7228.00,2.13
7227.00,2.13
7226.00,2.13
7225.00,2.13
7224.00,2.13
7223.00,2.13
7222.00,2.13
7221.00,2.12
7220.00,2.12
7219.00,2.12
7218.00,2.11
7217.00,2.11
7216.00,2.11
7215.00,2.10
7214.00,2.10
7213.00,2.09
7212.00,2.09
7211.00,2.09
7210.00,2.09
7209.00,2.09
7208.00,2.10
7207.00,2.10
7206.00,2.11
7205.00,2.11
7204.00,2.12
7203.00,2.12
7202.00,2.13
7201.00,2.13
7200.00,2.13
7199.00,2.14
7198.00,2.14
7197.00,2.14
7196.00,2.14
7195.00,2.14
7194.00,2.14
7193.00,2.14
7192.00,2.14
7191.00,2.14
7190.00,2.14
7189.00,2.13
7188.00,2.13
7187.00,2.13
7186.00,2.13
7185.00,2.13
7184.00,2.12
7183.00,2.12
7182.00,2.11
7181.00,2.10
7180.00,2.09
7179.00,2.08
7178.00,2.07
7177.00,2.06
7176.00,2.05
7175.00,2.04
7174.00,2.03
7173.00,2.02
7172.00,2.02
7171.00,2.01
7170.00,2.00
7169.00,2.00
7168.00,1.99
7167.00,1.99
7166.00,1.99
7165.00,1.99
7164.00,1.99
7163.00,1.99
7162.00,1.99
7161.00,1.99
7160.00,1.98
7159.00,1.98
7158.00,1.98
7157.00,1.98
7156.00,1.98
7155.00,1.98
7154.00,1.98
7153.00,1.99
7152.00,1.99
7151.00,1.99
7150.00,1.99
7149.00,1.99
7148.00,1.99
7147.00,1.99
7146.00,1.99
7145.00,1.99
7144.00,1.99
7143.00,1.99
7142.00,1.98
7141.00,1.98
7140.00,1.98
7139.00,1.98
7138.00,1.97
7137.00,1.97
7136.00,1.96
7135.00,1.96
7134.00,1.95
7133.00,1.94
7132.00,1.94
7131.00,1.93
7130.00,1.92
7129.00,1.92
7128.00,1.91
7127.00,1.90
7126.00,1.90
7125.00,1.89
7124.00,1.88
7123.00,1.88
7122.00,1.87
7121.00,1.87
7120.00,1.86
7119.00,1.85
7118.00,1.85
7117.00,1.84
7116.00,1.84
7115.00,1.83
7114.00,1.83
7113.00,1.82
7112.00,1.82
7111.00,1.81
7110.00,1.81
7109.00,1.81
7108.00,1.80
7107.00,1.80
7106.00,1.80
7105.00,1.79
7104.00,1.79
7103.00,1.79
7102.00,1.79
7101.00,1.79
7100.00,1.78
7099.00,1.78
7098.00,1.78
7097.00,1.77
7096.00,1.77
7095.00,1.77
7094.00,1.76
7093.00,1.76
7092.00,1.75
7091.00,1.75
7090.00,1.75
7089.00,1.74
7088.00,1.74
7087.00,1.73
7086.00,1.72
7085.00,1.71
7084.00,1.71
7083.00,1.70
7082.00,1.69
7081.00,1.69
7080.00,1.68
7079.00,1.67
7078.00,1.67
7077.00,1.67
7076.00,1.66
7075.00,1.66
7074.00,1.65
7073.00,1.65
7072.00,1.65
7071.00,1.65
7070.00,1.65
7069.00,1.65
7068.00,1.65
7067.00,1.65
7066.00,1.65
7065.00,1.65
7064.00,1.66
7063.00,1.66
7062.00,1.67
7061.00,1.68
7060.00,1.68
7059.00,1.69
7058.00,1.70
7057.00,1.72
7056.00,1.73
7055.00,1.74
7054.00,1.75
7053.00,1.75
7052.00,1.76
7051.00,1.77
7050.00,1.78
7049.00,1.78
7048.00,1.79
7047.00,1.80
7046.00,1.81
7045.00,1.81
7044.00,1.82
7043.00,1.83
7042.00,1.83
7041.00,1.84
7040.00,1.85
7039.00,1.85
7038.00,1.86
7037.00,1.86
7036.00,1.86
7035.00,1.86
7034.00,1.86
7033.00,1.86
7032.00,1.86
7031.00,1.86
7030.00,1.86
7029.00,1.86
7028.00,1.86
7027.00,1.86
7026.00,1.86
7025.00,1.86
7024.00,1.86
7023.00,1.85
7022.00,1.85
7021.00,1.85
7020.00,1.84
7019.00,1.83
7018.00,1.83
7017.00,1.82
7016.00,1.81
7015.00,1.80
7014.00,1.79
7013.00,1.78
7012.00,1.78
7011.00,1.77
7010.00,1.76
7009.00,1.75
7008.00,1.75
7007.00,1.74
7006.00,1.74
7005.00,1.73
7004.00,1.72
7003.00,1.72
7002.00,1.72
7001.00,1.71
7000.00,1.71
6999.00,1.71
6998.00,1.70
6997.00,1.70
6996.00,1.71
6995.00,1.71
6994.00,1.71
6993.00,1.72
6992.00,1.72
6991.00,1.73
6990.00,1.73
6989.00,1.74
6988.00,1.75
6987.00,1.75
6986.00,1.76
6985.00,1.77
6984.00,1.77
6983.00,1.78
6982.00,1.78
6981.00,1.79
6980.00,1.79
6979.00,1.80
6978.00,1.80
6977.00,1.81
6976.00,1.81
6975.00,1.81
6974.00,1.82
6973.00,1.82
6972.00,1.82
6971.00,1.82
6970.00,1.82
6969.00,1.82
6968.00,1.82
6967.00,1.82
6966.00,1.82
6965.00,1.82
6964.00,1.82
6963.00,1.82
6962.00,1.82
6961.00,1.82
6960.00,1.82
6959.00,1.82
6958.00,1.81
6957.00,1.81
6956.00,1.81
6955.00,1.80
6954.00,1.80
6953.00,1.80
6952.00,1.79
6951.00,1.79
6950.00,1.78
6949.00,1.78
6948.00,1.77
6947.00,1.76
6946.00,1.75
6945.00,1.75
6944.00,1.74
6943.00,1.73
6942.00,1.72
6941.00,1.71
6940.00,1.70
6939.00,1.69
6938.00,1.67
6937.00,1.66
6936.00,1.65
6935.00,1.64
6934.00,1.63
6933.00,1.61
6932.00,1.60
6931.00,1.59
6930.00,1.58
6929.00,1.58
6928.00,1.57
6927.00,1.56
6926.00,1.55
6925.00,1.55
6924.00,1.54
6923.00,1.54
6922.00,1.54
6921.00,1.53
6920.00,1.53
6919.00,1.53
6918.00,1.53
6917.00,1.54
6916.00,1.54
6915.00,1.54
6914.00,1.55
6913.00,1.56
6912.00,1.57
6911.00,1.58
6910.00,1.59
6909.00,1.61
6908.00,1.62
6907.00,1.63
6906.00,1.64
6905.00,1.66
6904.00,1.67
6903.00,1.68
6902.00,1.69
6901.00,1.70
6900.00,1.71
6899.00,1.72
6898.00,1.73
6897.00,1.74
6896.00,1.75
6895.00,1.76
6894.00,1.77
6893.00,1.78
6892.00,1.79
6891.00,1.79
6890.00,1.79
6889.00,1.79
6888.00,1.79
6887.00,1.79
6886.00,1.79
6885.00,1.78
6884.00,1.78
6883.00,1.77
6882.00,1.76
6881.00,1.76
6880.00,1.75
6879.00,1.74
6878.00,1.74
6877.00,1.73
6876.00,1.73
6875.00,1.72
6874.00,1.71
6873.00,1.71
6872.00,1.70
6871.00,1.69
6870.00,1.69
6869.00,1.68
6868.00,1.67
6867.00,1.66
6866.00,1.65
6865.00,1.65
6864.00,1.64
6863.00,1.63
6862.00,1.63
6861.00,1.62
6860.00,1.62
6859.00,1.62
6858.00,1.61
6857.00,1.61
6856.00,1.61
6855.00,1.61
6854.00,1.60
6853.00,1.60
6852.00,1.60
6851.00,1.60
6850.00,1.60
6849.00,1.60
6848.00,1.60
6847.00,1.60
6846.00,1.60
6845.00,1.60
6844.00,1.61
6843.00,1.61
6842.00,1.61
6841.00,1.62
6840.00,1.63
6839.00,1.63
6838.00,1.64
6837.00,1.65
6836.00,1.66
6835.00,1.67
6834.00,1.68
6833.00,1.69
6832.00,1.70
6831.00,1.71
6830.00,1.72
6829.00,1.72
6828.00,1.73
6827.00,1.74
6826.00,1.74
6825.00,1.75
6824.00,1.75
6823.00,1.75
6822.00,1.75
6821.00,1.75
6820.00,1.75
6819.00,1.74
6818.00,1.74
6817.00,1.73
6816.00,1.73
6815.00,1.72
6814.00,1.72
6813.00,1.71
6812.00,1.71
6811.00,1.70
6810.00,1.69
6809.00,1.69
6808.00,1.68
6807.00,1.68
6806.00,1.67
6805.00,1.67
6804.00,1.66
6803.00,1.66
6802.00,1.65
6801.00,1.65
6800.00,1.65
6799.00,1.65
6798.00,1.65
6797.00,1.65
6796.00,1.66
6795.00,1.66
6794.00,1.67
6793.00,1.68
6792.00,1.68
6791.00,1.69
6790.00,1.70
6789.00,1.71
6788.00,1.72
6787.00,1.72
6786.00,1.73
6785.00,1.74
6784.00,1.74
6783.00,1.75
6782.00,1.75
6781.00,1.75
6780.00,1.76
6779.00,1.76
6778.00,1.76
6777.00,1.76
6776.00,1.76
6775.00,1.77
6774.00,1.77
6773.00,1.77
6772.00,1.77
6771.00,1.77
6770.00,1.77
6769.00,1.77
6768.00,1.76
6767.00,1.76
6766.00,1.76
6765.00,1.76
6764.00,1.76
6763.00,1.76
6762.00,1.76
6761.00,1.76
6760.00,1.76
6759.00,1.76
6758.00,1.76
6757.00,1.76
6756.00,1.76
6755.00,1.76
6754.00,1.77
6753.00,1.77
6752.00,1.77
6751.00,1.78
6750.00,1.78
6749.00,1.79
6748.00,1.79
6747.00,1.80
6746.00,1.80
6745.00,1.81
6744.00,1.82
6743.00,1.82
6742.00,1.83
6741.00,1.83
6740.00,1.83
6739.00,1.84
6738.00,1.84
6737.00,1.84
6736.00,1.84
6735.00,1.85
6734.00,1.85
6733.00,1.85
6732.00,1.85
6731.00,1.85
6730.00,1.86
6729.00,1.86
6728.00,1.86
6727.00,1.86
6726.00,1.87
6725.00,1.87
6724.00,1.87
6723.00,1.88
6722.00,1.88
6721.00,1.88
6720.00,1.88
6719.00,1.89
6718.00,1.89
6717.00,1.89
6716.00,1.89
6715.00,1.90
6714.00,1.90
6713.00,1.91
6712.00,1.91
6711.00,1.92
6710.00,1.92
6709.00,1.93
6708.00,1.94
6707.00,1.94
6706.00,1.95
6705.00,1.95
6704.00,1.96
6703.00,1.96
6702.00,1.97
6701.00,1.97
6700.00,1.97
6699.00,1.98
6698.00,1.98
6697.00,1.98
6696.00,1.99
6695.00,1.99
6694.00,1.99
6693.00,2.00
6692.00,2.00
6691.00,2.00
6690.00,2.00
6689.00,2.01
6688.00,2.01
6687.00,2.01
6686.00,2.01
6685.00,2.00
6684.00,2.00
6683.00,2.00
6682.00,2.00
6681.00,2.00
6680.00,1.99
6679.00,1.99
6678.00,1.99
6677.00,1.99
6676.00,1.98
6675.00,1.98
6674.00,1.97
6673.00,1.97
6672.00,1.97
6671.00,1.96
6670.00,1.96
6669.00,1.95
6668.00,1.95
6667.00,1.94
6666.00,1.94
6665.00,1.93
6664.00,1.93
6663.00,1.92
6662.00,1.92
6661.00,1.92
6660.00,1.91
6659.00,1.91
6658.00,1.91
6657.00,1.91
6656.00,1.91
6655.00,1.91
6654.00,1.91
6653.00,1.92
6652.00,1.92
6651.00,1.92
6650.00,1.92
6649.00,1.92
6648.00,1.91
6647.00,1.91
6646.00,1.91
6645.00,1.91
6644.00,1.91
6643.00,1.91
6642.00,1.91
6641.00,1.91
6640.00,1.91
6639.00,1.91
6638.00,1.92
6637.00,1.92
6636.00,1.92
6635.00,1.92
6634.00,1.92
6633.00,1.93
6632.00,1.93
6631.00,1.93
6630.00,1.93
6629.00,1.93
6628.00,1.93
6627.00,1.93
6626.00,1.93
6625.00,1.93
6624.00,1.94
6623.00,1.94
6622.00,1.95
6621.00,1.95
6620.00,1.96
6619.00,1.96
6618.00,1.97
6617.00,1.98
6616.00,1.98
6615.00,1.99
6614.00,1.99
6613.00,1.99
6612.00,2.00
6611.00,2.00
6610.00,2.00
6609.00,2.00
6608.00,2.00
6607.00,2.01
6606.00,2.01
6605.00,2.01
6604.00,2.01
6603.00,2.01
6602.00,2.01
6601.00,2.01
6600.00,2.01
6599.00,2.02
6598.00,2.02
6597.00,2.02
6596.00,2.03
6595.00,2.03
6594.00,2.03
6593.00,2.04
6592.00,2.04
6591.00,2.05
6590.00,2.06
6589.00,2.06
6588.00,2.07
6587.00,2.08
6586.00,2.08
6585.00,2.09
6584.00,2.10
6583.00,2.10
6582.00,2.11
6581.00,2.12
6580.00,2.13
6579.00,2.14
6578.00,2.15
6577.00,2.15
6576.00,2.16
6575.00,2.17
6574.00,2.17
6573.00,2.18
6572.00,2.18
6571.00,2.19
6570.00,2.19
6569.00,2.19
6568.00,2.19
6567.00,2.19
6566.00,2.19
6565.00,2.19
6564.00,2.19
6563.00,2.18
6562.00,2.18
6561.00,2.18
6560.00,2.17
6559.00,2.17
6558.00,2.16
6557.00,2.16
6556.00,2.15
6555.00,2.15
6554.00,2.15
6553.00,2.15
6552.00,2.14
6551.00,2.14
6550.00,2.14
6549.00,2.14
6548.00,2.14
6547.00,2.14
6546.00,2.13
6545.00,2.13
6544.00,2.13
6543.00,2.13
6542.00,2.13
6541.00,2.13
6540.00,2.14
6539.00,2.14
6538.00,2.14
6537.00,2.14
6536.00,2.15
6535.00,2.15
6534.00,2.15
6533.00,2.16
6532.00,2.16
6531.00,2.17
6530.00,2.17
6529.00,2.18
6528.00,2.18
6527.00,2.18
6526.00,2.18
6525.00,2.19
6524.00,2.19
6523.00,2.19
6522.00,2.19
6521.00,2.19
6520.00,2.19
6519.00,2.19
6518.00,2.20
6517.00,2.20
6516.00,2.20
6515.00,2.19
6514.00,2.19
6513.00,2.19
6512.00,2.19
6511.00,2.19
6510.00,2.19
6509.00,2.19
6508.00,2.19
6507.00,2.19
6506.00,2.19
6505.00,2.19
6504.00,2.19
6503.00,2.19
6502.00,2.19
6501.00,2.19
6500.00,2.19
6499.00,2.19
6498.00,2.19
6497.00,2.19
6496.00,2.19
6495.00,2.20
6494.00,2.20
6493.00,2.20
6492.00,2.20
6491.00,2.20
6490.00,2.20
6489.00,2.21
6488.00,2.21
6487.00,2.22
6486.00,2.22
6485.00,2.23
6484.00,2.24
6483.00,2.24
6482.00,2.25
6481.00,2.25
6480.00,2.26
6479.00,2.26
6478.00,2.27
6477.00,2.27
6476.00,2.27
6475.00,2.28
6474.00,2.28
6473.00,2.28
6472.00,2.29
6471.00,2.29
6470.00,2.30
6469.00,2.30
6468.00,2.31
6467.00,2.31
6466.00,2.32
6465.00,2.32
6464.00,2.33
6463.00,2.33
6462.00,2.33
6461.00,2.34
6460.00,2.34
6459.00,2.34
6458.00,2.34
6457.00,2.34
6456.00,2.34
6455.00,2.34
6454.00,2.34
6453.00,2.34
6452.00,2.34
6451.00,2.34
6450.00,2.34
6449.00,2.34
6448.00,2.34
6447.00,2.35
6446.00,2.35
6445.00,2.35
6444.00,2.35
6443.00,2.35
6442.00,2.35
6441.00,2.35
6440.00,2.35
6439.00,2.35
6438.00,2.35
6437.00,2.35
6436.00,2.35
6435.00,2.35
6434.00,2.35
6433.00,2.36
6432.00,2.36
6431.00,2.36
6430.00,2.36
6429.00,2.36
6428.00,2.36
6427.00,2.37
6426.00,2.37
6425.00,2.37
6424.00,2.37
6423.00,2.37
6422.00,2.38
6421.00,2.38
6420.00,2.38
6419.00,2.38
6418.00,2.38
6417.00,2.38
6416.00,2.37
6415.00,2.37
6414.00,2.37
6413.00,2.37
6412.00,2.38
6411.00,2.38
6410.00,2.38
6409.00,2.38
6408.00,2.38
6407.00,2.39
6406.00,2.39
6405.00,2.39
6404.00,2.40
6403.00,2.40
6402.00,2.41
6401.00,2.41
6400.00,2.41
6399.00,2.42
6398.00,2.42
6397.00,2.42
6396.00,2.43
6395.00,2.43
6394.00,2.43
6393.00,2.44
6392.00,2.44
6391.00,2.44
6390.00,2.45
6389.00,2.45
6388.00,2.45
6387.00,2.45
6386.00,2.45
6385.00,2.45
6384.00,2.45
6383.00,2.45
6382.00,2.45
6381.00,2.44
6380.00,2.44
6379.00,2.43
6378.00,2.43
6377.00,2.42
6376.00,2.42
6375.00,2.41
6374.00,2.41
6373.00,2.40
6372.00,2.39
6371.00,2.39
6370.00,2.38
6369.00,2.38
6368.00,2.37
6367.00,2.37
6366.00,2.36
6365.00,2.36
6364.00,2.36
6363.00,2.35
6362.00,2.35
6361.00,2.35
6360.00,2.35
6359.00,2.34
6358.00,2.34
6357.00,2.34
6356.00,2.34
6355.00,2.34
6354.00,2.35
6353.00,2.35
6352.00,2.35
6351.00,2.35
6350.00,2.36
6349.00,2.36
6348.00,2.37
6347.00,2.37
6346.00,2.37
6345.00,2.38
6344.00,2.38
6343.00,2.38
6342.00,2.39
6341.00,2.39
6340.00,2.39
6339.00,2.40
6338.00,2.40
6337.00,2.40
6336.00,2.40
6335.00,2.41
6334.00,2.41
6333.00,2.41
6332.00,2.41
6331.00,2.42
6330.00,2.42
6329.00,2.42
6328.00,2.42
6327.00,2.42
6326.00,2.43
6325.00,2.43
6324.00,2.43
6323.00,2.43
6322.00,2.43
6321.00,2.44
6320.00,2.44
6319.00,2.44
6318.00,2.44
6317.00,2.45
6316.00,2.45
6315.00,2.45
6314.00,2.46
6313.00,2.46
6312.00,2.46
6311.00,2.47
6310.00,2.47
6309.00,2.47
6308.00,2.48
6307.00,2.48
6306.00,2.48
6305.00,2.48
6304.00,2.49
6303.00,2.49
6302.00,2.49
6301.00,2.49
6300.00,2.49
6299.00,2.49
6298.00,2.50
6297.00,2.50
6296.00,2.50
6295.00,2.50
6294.00,2.50
6293.00,2.50
6292.00,2.50
6291.00,2.50
6290.00,2.51
6289.00,2.51
6288.00,2.51
6287.00,2.51
6286.00,2.51
6285.00,2.51
6284.00,2.52
6283.00,2.52
6282.00,2.52
6281.00,2.53
6280.00,2.53
6279.00,2.54
6278.00,2.54
6277.00,2.54
6276.00,2.55
6275.00,2.55
6274.00,2.56
6273.00,2.56
6272.00,2.57
6271.00,2.57
6270.00,2.58
6269.00,2.58
6268.00,2.59
6267.00,2.59
6266.00,2.59
6265.00,2.60
6264.00,2.60
6263.00,2.60
6262.00,2.61
6261.00,2.61
6260.00,2.62
6259.00,2.62
6258.00,2.62
6257.00,2.62
6256.00,2.62
6255.00,2.62
6254.00,2.62
6253.00,2.62
6252.00,2.61
6251.00,2.61
6250.00,2.61
6249.00,2.61
6248.00,2.61
6247.00,2.61
6246.00,2.60
6245.00,2.60
6244.00,2.60
6243.00,2.60
6242.00,2.60
6241.00,2.60
6240.00,2.59
6239.00,2.59
6238.00,2.59
6237.00,2.59
6236.00,2.59
6235.00,2.58
6234.00,2.58
6233.00,2.58
6232.00,2.57
6231.00,2.57
6230.00,2.57
6229.00,2.57
6228.00,2.57
6227.00,2.57
6226.00,2.57
6225.00,2.57
6224.00,2.57
6223.00,2.57
6222.00,2.57
6221.00,2.57
6220.00,2.57
6219.00,2.57
6218.00,2.57
6217.00,2.56
6216.00,2.56
6215.00,2.56
6214.00,2.56
6213.00,2.56
6212.00,2.56
6211.00,2.55
6210.00,2.55
6209.00,2.56
6208.00,2.56
6207.00,2.56
6206.00,2.56
6205.00,2.56
6204.00,2.56
6203.00,2.56
6202.00,2.56
6201.00,2.55
6200.00,2.55
6199.00,2.55
6198.00,2.55
6197.00,2.55
6196.00,2.55
6195.00,2.55
6194.00,2.56
6193.00,2.56
6192.00,2.56
6191.00,2.56
6190.00,2.57
6189.00,2.57
6188.00,2.58
6187.00,2.58
6186.00,2.59
6185.00,2.59
6184.00,2.60
6183.00,2.60
6182.00,2.61
6181.00,2.61
6180.00,2.62
6179.00,2.62
6178.00,2.63
6177.00,2.63
6176.00,2.63
6175.00,2.64
6174.00,2.64
6173.00,2.65
6172.00,2.65
6171.00,2.65
6170.00,2.66
6169.00,2.66
6168.00,2.67
6167.00,2.67
6166.00,2.68
6165.00,2.68
6164.00,2.69
6163.00,2.69
6162.00,2.69
6161.00,2.69
6160.00,2.69
6159.00,2.69
6158.00,2.69
6157.00,2.69
6156.00,2.69
6155.00,2.68
6154.00,2.68
6153.00,2.68
6152.00,2.68
6151.00,2.68
6150.00,2.68
6149.00,2.69
6148.00,2.69
6147.00,2.69
6146.00,2.69
6145.00,2.69
6144.00,2.70
6143.00,2.70
6142.00,2.70
6141.00,2.70
6140.00,2.70
6139.00,2.70
6138.00,2.70
6137.00,2.70
6136.00,2.70
6135.00,2.70
6134.00,2.70
6133.00,2.71
6132.00,2.71
6131.00,2.71
6130.00,2.72
6129.00,2.72
6128.00,2.73
6127.00,2.73
6126.00,2.74
6125.00,2.74
6124.00,2.74
6123.00,2.75
6122.00,2.75
6121.00,2.75
6120.00,2.75
6119.00,2.75
6118.00,2.76
6117.00,2.76
6116.00,2.76
6115.00,2.77
6114.00,2.77
6113.00,2.77
6112.00,2.78
6111.00,2.78
6110.00,2.78
6109.00,2.78
6108.00,2.79
6107.00,2.79
6106.00,2.79
6105.00,2.78
6104.00,2.78
6103.00,2.78
6102.00,2.78
6101.00,2.78
6100.00,2.77
6099.00,2.77
6098.00,2.77
6097.00,2.77
6096.00,2.76
6095.00,2.76
6094.00,2.76
6093.00,2.75
6092.00,2.75
6091.00,2.75
6090.00,2.74
6089.00,2.74
6088.00,2.73
6087.00,2.73
6086.00,2.73
6085.00,2.72
6084.00,2.72
6083.00,2.72
6082.00,2.71
6081.00,2.71
6080.00,2.71
6079.00,2.71
6078.00,2.71
6077.00,2.71
6076.00,2.71
6075.00,2.71
6074.00,2.71
6073.00,2.71
6072.00,2.71
6071.00,2.72
6070.00,2.72
6069.00,2.72
6068.00,2.73
6067.00,2.73
6066.00,2.73
6065.00,2.73
6064.00,2.74
6063.00,2.74
6062.00,2.74
6061.00,2.75
6060.00,2.75
6059.00,2.75
6058.00,2.76
6057.00,2.76
6056.00,2.76
6055.00,2.76
6054.00,2.77
6053.00,2.77
6052.00,2.77
6051.00,2.77
6050.00,2.78
6049.00,2.78
6048.00,2.78
6047.00,2.78
6046.00,2.78
6045.00,2.78
6044.00,2.78
6043.00,2.78
6042.00,2.78
6041.00,2.78
6040.00,2.78
6039.00,2.78
6038.00,2.78
6037.00,2.78
6036.00,2.79
6035.00,2.79
6034.00,2.79
6033.00,2.79
6032.00,2.79
6031.00,2.79
6030.00,2.79
6029.00,2.79
6028.00,2.79
6027.00,2.79
6026.00,2.79
6025.00,2.79
6024.00,2.79
6023.00,2.79
6022.00,2.79
6021.00,2.78
6020.00,2.78
6019.00,2.78
6018.00,2.78
6017.00,2.78
6016.00,2.78
6015.00,2.78
6014.00,2.77
6013.00,2.77
6012.00,2.77
6011.00,2.76
6010.00,2.76
6009.00,2.76
6008.00,2.75
6007.00,2.75
6006.00,2.75
6005.00,2.75
6004.00,2.75
6003.00,2.75
6002.00,2.74
6001.00,2.74
6000.00,2.74
5999.00,2.74
5998.00,2.74
5997.00,2.74
5996.00,2.74
5995.00,2.74
5994.00,2.74
5993.00,2.74
5992.00,2.74
5991.00,2.74
5990.00,2.75
5989.00,2.75
5988.00,2.75
5987.00,2.76
5986.00,2.76
5985.00,2.76
5984.00,2.77
5983.00,2.77
5982.00,2.77
5981.00,2.78
5980.00,2.78
5979.00,2.78
5978.00,2.78
5977.00,2.78
5976.00,2.79
5975.00,2.79
5974.00,2.78
5973.00,2.78
5972.00,2.78
5971.00,2.78
5970.00,2.78
5969.00,2.78
5968.00,2.78
5967.00,2.78
5966.00,2.78
5965.00,2.78
5964.00,2.78
5963.00,2.77
5962.00,2.77
5961.00,2.77
5960.00,2.76
5959.00,2.76
5958.00,2.76
5957.00,2.75
5956.00,2.75
5955.00,2.75
5954.00,2.75
5953.00,2.74
5952.00,2.74
5951.00,2.74
5950.00,2.74
5949.00,2.74
5948.00,2.73
5947.00,2.73
5946.00,2.73
5945.00,2.73
5944.00,2.73
5943.00,2.73
5942.00,2.73
5941.00,2.73
5940.00,2.72
5939.00,2.72
5938.00,2.72
5937.00,2.72
5936.00,2.72
5935.00,2.72
5934.00,2.72
5933.00,2.72
5932.00,2.72
5931.00,2.72
5930.00,2.72
5929.00,2.72
5928.00,2.72
5927.00,2.72
5926.00,2.72
5925.00,2.72
5924.00,2.72
5923.00,2.72
5922.00,2.72
5921.00,2.72
5920.00,2.72
5919.00,2.73
5918.00,2.73
5917.00,2.73
5916.00,2.73
5915.00,2.73
5914.00,2.73
5913.00,2.74
5912.00,2.74
5911.00,2.74
5910.00,2.75
5909.00,2.75
5908.00,2.75
5907.00,2.76
5906.00,2.76
5905.00,2.76
5904.00,2.77
5903.00,2.77
5902.00,2.77
5901.00,2.77
5900.00,2.77
5899.00,2.77
5898.00,2.77
5897.00,2.77
5896.00,2.77
5895.00,2.77
5894.00,2.77
5893.00,2.77
5892.00,2.77
5891.00,2.77
5890.00,2.77
5889.00,2.77
5888.00,2.77
5887.00,2.76
5886.00,2.76
5885.00,2.76
5884.00,2.76
5883.00,2.75
5882.00,2.75
5881.00,2.75
5880.00,2.74
5879.00,2.74
5878.00,2.74
5877.00,2.74
5876.00,2.74
5875.00,2.74
5874.00,2.73
5873.00,2.73
5872.00,2.73
5871.00,2.73
5870.00,2.73
5869.00,2.73
5868.00,2.73
5867.00,2.73
5866.00,2.73
5865.00,2.73
5864.00,2.73
5863.00,2.74
5862.00,2.74
5861.00,2.74
5860.00,2.74
5859.00,2.74
5858.00,2.74
5857.00,2.74
5856.00,2.74
5855.00,2.74
5854.00,2.74
5853.00,2.73
5852.00,2.73
5851.00,2.73
5850.00,2.73
5849.00,2.72
5848.00,2.72
5847.00,2.72
5846.00,2.71
5845.00,2.71
5844.00,2.70
5843.00,2.70
5842.00,2.70
5841.00,2.69
5840.00,2.69
5839.00,2.69
5838.00,2.68
5837.00,2.68
5836.00,2.68
5835.00,2.68
5834.00,2.68
5833.00,2.68
5832.00,2.68
5831.00,2.68
5830.00,2.68
5829.00,2.68
5828.00,2.68
5827.00,2.69
5826.00,2.69
5825.00,2.69
5824.00,2.70
5823.00,2.70
5822.00,2.71
5821.00,2.72
5820.00,2.72
5819.00,2.73
5818.00,2.74
5817.00,2.75
5816.00,2.76
5815.00,2.77
5814.00,2.78
5813.00,2.79
5812.00,2.79
5811.00,2.80
5810.00,2.81
5809.00,2.81
5808.00,2.82
5807.00,2.82
5806.00,2.83
5805.00,2.83
5804.00,2.83
5803.00,2.83
5802.00,2.84
5801.00,2.84
5800.00,2.84
5799.00,2.84
5798.00,2.84
5797.00,2.83
5796.00,2.83
5795.00,2.83
5794.00,2.83
5793.00,2.82
5792.00,2.82
5791.00,2.81
5790.00,2.81
5789.00,2.80
5788.00,2.80
5787.00,2.79
5786.00,2.79
5785.00,2.78
5784.00,2.78
5783.00,2.78
5782.00,2.77
5781.00,2.77
5780.00,2.76
5779.00,2.76
5778.00,2.76
5777.00,2.76
5776.00,2.76
5775.00,2.75
5774.00,2.75
5773.00,2.75
5772.00,2.75
5771.00,2.75
5770.00,2.75
5769.00,2.75
5768.00,2.75
5767.00,2.75
5766.00,2.75
5765.00,2.76
5764.00,2.76
5763.00,2.76
5762.00,2.76
5761.00,2.76
5760.00,2.76
5759.00,2.76
5758.00,2.77
5757.00,2.77
5756.00,2.77
5755.00,2.77
5754.00,2.78
5753.00,2.78
5752.00,2.78
5751.00,2.78
5750.00,2.79
5749.00,2.79
5748.00,2.79
5747.00,2.79
5746.00,2.79
5745.00,2.79
5744.00,2.80
5743.00,2.80
5742.00,2.80
5741.00,2.80
5740.00,2.80
5739.00,2.80
5738.00,2.81
5737.00,2.81
5736.00,2.81
5735.00,2.81
5734.00,2.81
5733.00,2.81
5732.00,2.81
5731.00,2.81
5730.00,2.81
5729.00,2.81
5728.00,2.81
5727.00,2.81
5726.00,2.81
5725.00,2.81
5724.00,2.81
5723.00,2.81
5722.00,2.81
5721.00,2.81
5720.00,2.80
5719.00,2.80
5718.00,2.80
5717.00,2.80
5716.00,2.80
5715.00,2.80
5714.00,2.80
5713.00,2.80
5712.00,2.80
5711.00,2.80
5710.00,2.80
5709.00,2.80
5708.00,2.80
5707.00,2.79
5706.00,2.79
5705.00,2.79
5704.00,2.79
5703.00,2.79
5702.00,2.79
5701.00,2.79
5700.00,2.79
5699.00,2.79
5698.00,2.79
5697.00,2.80
5696.00,2.80
5695.00,2.80
5694.00,2.80
5693.00,2.80
5692.00,2.80
5691.00,2.80
5690.00,2.80
5689.00,2.80
5688.00,2.80
5687.00,2.79
5686.00,2.79
5685.00,2.79
5684.00,2.79
5683.00,2.78
5682.00,2.78
5681.00,2.78
5680.00,2.78
5679.00,2.77
5678.00,2.77
5677.00,2.77
5676.00,2.77
5675.00,2.76
5674.00,2.76
5673.00,2.75
5672.00,2.75
5671.00,2.75
5670.00,2.74
5669.00,2.74
5668.00,2.74
5667.00,2.73
5666.00,2.73
5665.00,2.73
5664.00,2.73
5663.00,2.73
5662.00,2.73
5661.00,2.73
5660.00,2.72
5659.00,2.72
5658.00,2.72
5657.00,2.72
5656.00,2.72
5655.00,2.72
5654.00,2.72
5653.00,2.72
5652.00,2.73
5651.00,2.73
5650.00,2.73
5649.00,2.73
5648.00,2.73
5647.00,2.73
5646.00,2.73
5645.00,2.73
5644.00,2.73
5643.00,2.73
5642.00,2.73
5641.00,2.73
5640.00,2.73
5639.00,2.73
5638.00,2.73
5637.00,2.73
5636.00,2.73
5635.00,2.74
5634.00,2.74
5633.00,2.74
5632.00,2.74
5631.00,2.74
5630.00,2.75
5629.00,2.75
5628.00,2.75
5627.00,2.75
5626.00,2.75
5625.00,2.75
5624.00,2.75
5623.00,2.75
5622.00,2.76
5621.00,2.76
5620.00,2.76
5619.00,2.76
5618.00,2.76
5617.00,2.76
5616.00,2.76
5615.00,2.77
5614.00,2.77
5613.00,2.77
5612.00,2.77
5611.00,2.77
5610.00,2.77
5609.00,2.77
5608.00,2.77
5607.00,2.77
5606.00,2.78
5605.00,2.78
5604.00,2.78
5603.00,2.78
5602.00,2.79
5601.00,2.79
5600.00,2.79
5599.00,2.80
5598.00,2.80
5597.00,2.80
5596.00,2.80
5595.00,2.81
5594.00,2.81
5593.00,2.81
5592.00,2.82
5591.00,2.82
5590.00,2.82
5589.00,2.83
5588.00,2.83
5587.00,2.83
5586.00,2.84
5585.00,2.84
5584.00,2.85
5583.00,2.85
5582.00,2.85
5581.00,2.86
5580.00,2.86
5579.00,2.86
5578.00,2.86
5577.00,2.87
5576.00,2.87
5575.00,2.87
5574.00,2.87
5573.00,2.87
5572.00,2.87
5571.00,2.87
5570.00,2.88
5569.00,2.88
5568.00,2.88
5567.00,2.88
5566.00,2.88
5565.00,2.88
5564.00,2.88
5563.00,2.88
5562.00,2.88
5561.00,2.88
5560.00,2.88
5559.00,2.88
5558.00,2.87
5557.00,2.87
5556.00,2.87
5555.00,2.87
5554.00,2.87
5553.00,2.86
5552.00,2.86
5551.00,2.86
5550.00,2.86
5549.00,2.85
5548.00,2.85
5547.00,2.85
5546.00,2.85
5545.00,2.85
5544.00,2.85
5543.00,2.84
5542.00,2.84
5541.00,2.84
5540.00,2.84
5539.00,2.84
5538.00,2.84
5537.00,2.84
5536.00,2.84
5535.00,2.84
5534.00,2.84
5533.00,2.85
5532.00,2.85
5531.00,2.85
5530.00,2.85
5529.00,2.85
5528.00,2.85
5527.00,2.85
5526.00,2.86
5525.00,2.86
5524.00,2.86
5523.00,2.86
5522.00,2.86
5521.00,2.86
5520.00,2.87
5519.00,2.87
5518.00,2.87
5517.00,2.87
5516.00,2.87
5515.00,2.87
5514.00,2.88
5513.00,2.88
5512.00,2.88
5511.00,2.88
5510.00,2.88
5509.00,2.89
5508.00,2.89
5507.00,2.89
5506.00,2.89
5505.00,2.89
5504.00,2.89
5503.00,2.90
5502.00,2.90
5501.00,2.90
5500.00,2.90
5499.00,2.90
5498.00,2.90
5497.00,2.90
5496.00,2.90
5495.00,2.90
5494.00,2.90
5493.00,2.90
5492.00,2.90
5491.00,2.90
5490.00,2.90
5489.00,2.90
5488.00,2.89
5487.00,2.89
5486.00,2.89
5485.00,2.89
5484.00,2.89
5483.00,2.88
5482.00,2.88
5481.00,2.88
5480.00,2.88
5479.00,2.87
5478.00,2.87
5477.00,2.87
5476.00,2.87
5475.00,2.86
5474.00,2.86
5473.00,2.86
5472.00,2.86
5471.00,2.86
5470.00,2.86
5469.00,2.86
5468.00,2.86
5467.00,2.86
5466.00,2.86
5465.00,2.85
5464.00,2.85
5463.00,2.85
5462.00,2.85
5461.00,2.85
5460.00,2.85
5459.00,2.84
5458.00,2.84
5457.00,2.84
5456.00,2.84
5455.00,2.84
5454.00,2.84
5453.00,2.84
5452.00,2.84
5451.00,2.84
5450.00,2.84
5449.00,2.84
5448.00,2.84
5447.00,2.84
5446.00,2.84
5445.00,2.84
5444.00,2.84
5443.00,2.84
5442.00,2.84
5441.00,2.84
5440.00,2.84
5439.00,2.85
5438.00,2.85
5437.00,2.85
5436.00,2.85
5435.00,2.86
5434.00,2.86
5433.00,2.86
5432.00,2.87
5431.00,2.87
5430.00,2.88
5429.00,2.88
5428.00,2.89
5427.00,2.89
5426.00,2.89
5425.00,2.90
5424.00,2.90
5423.00,2.90
5422.00,2.90
5421.00,2.90
5420.00,2.91
5419.00,2.91
5418.00,2.91
5417.00,2.91
5416.00,2.92
5415.00,2.92
5414.00,2.92
5413.00,2.93
5412.00,2.93
5411.00,2.93
5410.00,2.93
5409.00,2.94
5408.00,2.94
5407.00,2.94
5406.00,2.94
5405.00,2.94
5404.00,2.93
5403.00,2.93
5402.00,2.93
5401.00,2.94
5400.00,2.94
5399.00,2.94
5398.00,2.94
5397.00,2.95
5396.00,2.95
5395.00,2.95
5394.00,2.96
5393.00,2.96
5392.00,2.96
5391.00,2.96
5390.00,2.97
5389.00,2.96
5388.00,2.96
5387.00,2.96
5386.00,2.96
5385.00,2.96
5384.00,2.95
5383.00,2.95
5382.00,2.95
5381.00,2.94
5380.00,2.94
5379.00,2.94
5378.00,2.93
5377.00,2.93
5376.00,2.92
5375.00,2.91
5374.00,2.91
5373.00,2.90
5372.00,2.89
5371.00,2.88
5370.00,2.87
5369.00,2.85
5368.00,2.84
5367.00,2.83
5366.00,2.82
5365.00,2.81
5364.00,2.80
5363.00,2.79
5362.00,2.78
5361.00,2.77
5360.00,2.76
5359.00,2.75
5358.00,2.74
5357.00,2.73
5356.00,2.73
5355.00,2.72
5354.00,2.71
5353.00,2.70
5352.00,2.69
5351.00,2.68
5350.00,2.68
5349.00,2.67
5348.00,2.66
5347.00,2.65
5346.00,2.64
5345.00,2.63
5344.00,2.62
5343.00,2.61
5342.00,2.60
5341.00,2.59
5340.00,2.58
5339.00,2.57
5338.00,2.56
5337.00,2.54
5336.00,2.53
5335.00,2.51
5334.00,2.50
5333.00,2.48
5332.00,2.46
5331.00,2.44
5330.00,2.42
5329.00,2.40
5328.00,2.38
5327.00,2.36
5326.00,2.34
5325.00,2.32
5324.00,2.30
5323.00,2.28
5322.00,2.26
5321.00,2.24
5320.00,2.22
5319.00,2.20
5318.00,2.18
5317.00,2.16
5316.00,2.14
5315.00,2.12
5314.00,2.10
5313.00,2.08
5312.00,2.06
5311.00,2.04
5310.00,2.02
5309.00,2.01
5308.00,1.99
5307.00,1.97
5306.00,1.95
5305.00,1.93
5304.00,1.91
5303.00,1.89
5302.00,1.88
5301.00,1.86
5300.00,1.84
5299.00,1.82
5298.00,1.81
5297.00,1.79
5296.00,1.77
5295.00,1.76
5294.00,1.74
5293.00,1.72
5292.00,1.71
5291.00,1.69
5290.00,1.68
5289.00,1.66
5288.00,1.65
5287.00,1.63
5286.00,1.62
5285.00,1.61
5284.00,1.59
5283.00,1.58
5282.00,1.57
5281.00,1.56
5280.00,1.55
5279.00,1.54
5278.00,1.53
5277.00,1.52
5276.00,1.51
5275.00,1.51
5274.00,1.50
5273.00,1.50
5272.00,1.49
5271.00,1.49
5270.00,1.48
5269.00,1.48
5268.00,1.47
5267.00,1.47
5266.00,1.47
5265.00,1.46
5264.00,1.46
5263.00,1.46
5262.00,1.45
5261.00,1.45
5260.00,1.45
5259.00,1.45
5258.00,1.44
5257.00,1.44
5256.00,1.44
5255.00,1.44
5254.00,1.44
5253.00,1.44
5252.00,1.44
5251.00,1.43
5250.00,1.43
5249.00,1.43
5248.00,1.42
5247.00,1.42
5246.00,1.42
5245.00,1.41
5244.00,1.41
5243.00,1.41
5242.00,1.40
5241.00,1.40
5240.00,1.39
5239.00,1.39
5238.00,1.39
5237.00,1.38
5236.00,1.38
5235.00,1.37
5234.00,1.37
5233.00,1.36
5232.00,1.36
5231.00,1.35
5230.00,1.35
5229.00,1.35
5228.00,1.34
5227.00,1.34
5226.00,1.33
5225.00,1.33
5224.00,1.33
5223.00,1.32
5222.00,1.32
5221.00,1.32
5220.00,1.32
5219.00,1.32
5218.00,1.31
5217.00,1.31
5216.00,1.31
5215.00,1.31
5214.00,1.31
5213.00,1.31
5212.00,1.32
5211.00,1.32
5210.00,1.32
5209.00,1.32
5208.00,1.32
5207.00,1.32
5206.00,1.32
5205.00,1.33
5204.00,1.33
5203.00,1.33
5202.00,1.33
5201.00,1.33
5200.00,1.33
5199.00,1.33
5198.00,1.33
5197.00,1.33
5196.00,1.33
5195.00,1.33
5194.00,1.33
5193.00,1.33
5192.00,1.33
5191.00,1.33
5190.00,1.33
5189.00,1.33
5188.00,1.33
5187.00,1.33
5186.00,1.33
5185.00,1.32
5184.00,1.32
5183.00,1.32
5182.00,1.32
5181.00,1.32
5180.00,1.31
5179.00,1.31
5178.00,1.31
5177.00,1.31
5176.00,1.31
5175.00,1.31
5174.00,1.31
5173.00,1.31
5172.00,1.30
5171.00,1.30
5170.00,1.30
5169.00,1.30
5168.00,1.29
5167.00,1.29
5166.00,1.29
5165.00,1.29
5164.00,1.29
5163.00,1.29
5162.00,1.29
5161.00,1.29
5160.00,1.29
5159.00,1.29
5158.00,1.29
5157.00,1.29
5156.00,1.29
5155.00,1.29
5154.00,1.29
5153.00,1.29
5152.00,1.30
5151.00,1.30
5150.00,1.30
5149.00,1.30
5148.00,1.30
5147.00,1.31
5146.00,1.31
5145.00,1.32
5144.00,1.32
5143.00,1.32
5142.00,1.33
5141.00,1.33
5140.00,1.34
5139.00,1.35
5138.00,1.35
5137.00,1.36
5136.00,1.36
5135.00,1.36
5134.00,1.37
5133.00,1.37
5132.00,1.37
5131.00,1.38
5130.00,1.38
5129.00,1.38
5128.00,1.38
5127.00,1.38
5126.00,1.39
5125.00,1.39
5124.00,1.39
5123.00,1.39
5122.00,1.39
5121.00,1.39
5120.00,1.39
5119.00,1.39
5118.00,1.39
5117.00,1.39
5116.00,1.39
5115.00,1.39
5114.00,1.39
5113.00,1.39
5112.00,1.39
5111.00,1.39
5110.00,1.39
5109.00,1.39
5108.00,1.39
5107.00,1.39
5106.00,1.39
5105.00,1.39
5104.00,1.39
5103.00,1.39
5102.00,1.40
5101.00,1.40
5100.00,1.40
5099.00,1.40
5098.00,1.41
5097.00,1.41
5096.00,1.41
5095.00,1.42
5094.00,1.42
5093.00,1.42
5092.00,1.43
5091.00,1.43
5090.00,1.43
5089.00,1.44
5088.00,1.44
5087.00,1.44
5086.00,1.45
5085.00,1.45
5084.00,1.45
5083.00,1.46
5082.00,1.46
5081.00,1.46
5080.00,1.46
5079.00,1.46
5078.00,1.46
5077.00,1.46
5076.00,1.46
5075.00,1.46
5074.00,1.46
5073.00,1.46
5072.00,1.46
5071.00,1.46
5070.00,1.46
5069.00,1.46
5068.00,1.46
5067.00,1.46
5066.00,1.46
5065.00,1.46
5064.00,1.46
5063.00,1.46
5062.00,1.47
5061.00,1.47
5060.00,1.47
5059.00,1.47
5058.00,1.47
5057.00,1.47
5056.00,1.48
5055.00,1.48
5054.00,1.48
5053.00,1.49
5052.00,1.49
5051.00,1.50
5050.00,1.50
5049.00,1.51
5048.00,1.51
5047.00,1.52
5046.00,1.53
5045.00,1.53
5044.00,1.54
5043.00,1.54
5042.00,1.55
5041.00,1.56
5040.00,1.56
5039.00,1.57
5038.00,1.57
5037.00,1.58
5036.00,1.58
5035.00,1.59
5034.00,1.59
5033.00,1.60
5032.00,1.61
5031.00,1.61
5030.00,1.62
5029.00,1.63
5028.00,1.63
5027.00,1.64
5026.00,1.64
5025.00,1.65
5024.00,1.66
5023.00,1.66
5022.00,1.67
5021.00,1.67
5020.00,1.68
5019.00,1.69
5018.00,1.69
5017.00,1.70
5016.00,1.70
5015.00,1.71
5014.00,1.71
5013.00,1.72
5012.00,1.72
5011.00,1.72
5010.00,1.73
5009.00,1.73
5008.00,1.73
5007.00,1.74
5006.00,1.74
5005.00,1.74
5004.00,1.74
5003.00,1.74
5002.00,1.74
5001.00,1.75
5000.00,1.75
4999.00,1.75
4998.00,1.75
4997.00,1.75
4996.00,1.75
4995.00,1.75
4994.00,1.75
4993.00,1.75
4992.00,1.75
4991.00,1.75
4990.00,1.75
4989.00,1.75
4988.00,1.75
4987.00,1.75
4986.00,1.76
4985.00,1.76
4984.00,1.76
4983.00,1.77
4982.00,1.77
4981.00,1.77
4980.00,1.78
4979.00,1.78
4978.00,1.78
4977.00,1.78
4976.00,1.79
4975.00,1.79
4974.00,1.80
4973.00,1.80
4972.00,1.80
4971.00,1.81
4970.00,1.81
4969.00,1.82
4968.00,1.83
4967.00,1.83
4966.00,1.84
4965.00,1.84
4964.00,1.84
4963.00,1.85
4962.00,1.85
4961.00,1.85
4960.00,1.86
4959.00,1.86
4958.00,1.86
4957.00,1.86
4956.00,1.87
4955.00,1.87
4954.00,1.87
4953.00,1.88
4952.00,1.88
4951.00,1.88
4950.00,1.89
4949.00,1.89
4948.00,1.90
4947.00,1.90
4946.00,1.90
4945.00,1.91
4944.00,1.91
4943.00,1.91
4942.00,1.92
4941.00,1.92
4940.00,1.92
4939.00,1.93
4938.00,1.93
4937.00,1.94
4936.00,1.94
4935.00,1.94
4934.00,1.95
4933.00,1.96
4932.00,1.96
4931.00,1.97
4930.00,1.97
4929.00,1.97
4928.00,1.98
4927.00,1.98
4926.00,1.99
4925.00,1.99
4924.00,2.00
4923.00,2.00
4922.00,2.01
4921.00,2.01
4920.00,2.02
4919.00,2.02
4918.00,2.03
4917.00,2.03
4916.00,2.03
4915.00,2.04
4914.00,2.04
4913.00,2.05
4912.00,2.05
4911.00,2.05
4910.00,2.06
4909.00,2.06
4908.00,2.06
4907.00,2.07
4906.00,2.07
4905.00,2.07
4904.00,2.08
4903.00,2.08
4902.00,2.08
4901.00,2.09
4900.00,2.09
4899.00,2.09
4898.00,2.10
4897.00,2.10
4896.00,2.10
4895.00,2.10
4894.00,2.11
4893.00,2.11
4892.00,2.11
4891.00,2.11
4890.00,2.11
4889.00,2.12
4888.00,2.12
4887.00,2.12
4886.00,2.12
4885.00,2.12
4884.00,2.12
4883.00,2.12
4882.00,2.12
4881.00,2.11
4880.00,2.11
4879.00,2.11
4878.00,2.11
4877.00,2.11
4876.00,2.11
4875.00,2.11
4874.00,2.10
4873.00,2.10
4872.00,2.10
4871.00,2.10
4870.00,2.10
4869.00,2.10
4868.00,2.10
4867.00,2.10
4866.00,2.10
4865.00,2.10
4864.00,2.10
4863.00,2.11
4862.00,2.11
4861.00,2.11
4860.00,2.12
4859.00,2.12
4858.00,2.13
4857.00,2.13
4856.00,2.14
4855.00,2.15
4854.00,2.16
4853.00,2.16
4852.00,2.17
4851.00,2.18
4850.00,2.19
4849.00,2.20
4848.00,2.20
4847.00,2.21
4846.00,2.22
4845.00,2.23
4844.00,2.24
4843.00,2.24
4842.00,2.25
4841.00,2.26
4840.00,2.27
4839.00,2.27
4838.00,2.28
4837.00,2.29
4836.00,2.29
4835.00,2.30
4834.00,2.31
4833.00,2.31
4832.00,2.31
4831.00,2.32
4830.00,2.32
4829.00,2.32
4828.00,2.33
4827.00,2.33
4826.00,2.33
4825.00,2.34
4824.00,2.34
4823.00,2.35
4822.00,2.35
4821.00,2.35
4820.00,2.36
4819.00,2.36
4818.00,2.36
4817.00,2.37
4816.00,2.37
4815.00,2.38
4814.00,2.38
4813.00,2.38
4812.00,2.39
4811.00,2.39
4810.00,2.39
4809.00,2.40
4808.00,2.40
4807.00,2.40
4806.00,2.41
4805.00,2.41
4804.00,2.42
4803.00,2.43
4802.00,2.43
4801.00,2.43
4800.00,2.44
4799.00,2.44
4798.00,2.44
4797.00,2.44
4796.00,2.45
4795.00,2.45
4794.00,2.45
4793.00,2.45
4792.00,2.46
4791.00,2.46
4790.00,2.46
4789.00,2.46
4788.00,2.46
4787.00,2.47
4786.00,2.47
4785.00,2.47
4784.00,2.47
4783.00,2.47
4782.00,2.47
4781.00,2.47
4780.00,2.46
4779.00,2.46
4778.00,2.46
4777.00,2.46
4776.00,2.45
4775.00,2.45
4774.00,2.45
4773.00,2.45
4772.00,2.45
4771.00,2.45
4770.00,2.45
4769.00,2.45
4768.00,2.44
4767.00,2.44
4766.00,2.44
4765.00,2.44
4764.00,2.44
4763.00,2.44
4762.00,2.44
4761.00,2.44
4760.00,2.44
4759.00,2.45
4758.00,2.45
4757.00,2.45
4756.00,2.46
4755.00,2.46
4754.00,2.47
4753.00,2.47
4752.00,2.48
4751.00,2.48
4750.00,2.49
4749.00,2.49
4748.00,2.50
4747.00,2.50
4746.00,2.51
4745.00,2.51
4744.00,2.52
4743.00,2.52
4742.00,2.53
4741.00,2.53
4740.00,2.54
4739.00,2.54
4738.00,2.55
4737.00,2.55
4736.00,2.56
4735.00,2.56
4734.00,2.57
4733.00,2.57
4732.00,2.58
4731.00,2.58
4730.00,2.59
4729.00,2.59
4728.00,2.59
4727.00,2.60
4726.00,2.60
4725.00,2.60
4724.00,2.60
4723.00,2.61
4722.00,2.61
4721.00,2.61
4720.00,2.61
4719.00,2.62
4718.00,2.62
4717.00,2.63
4716.00,2.63
4715.00,2.63
4714.00,2.64
4713.00,2.64
4712.00,2.64
4711.00,2.65
4710.00,2.65
4709.00,2.65
4708.00,2.65
4707.00,2.65
4706.00,2.65
4705.00,2.66
4704.00,2.66
4703.00,2.66
4702.00,2.66
4701.00,2.67
4700.00,2.67
4699.00,2.67
4698.00,2.68
4697.00,2.68
4696.00,2.69
4695.00,2.69
4694.00,2.70
4693.00,2.70
4692.00,2.71
4691.00,2.72
4690.00,2.72
4689.00,2.73
4688.00,2.73
4687.00,2.74
4686.00,2.75
4685.00,2.75
4684.00,2.76
4683.00,2.76
4682.00,2.77
4681.00,2.77
4680.00,2.78
4679.00,2.79
4678.00,2.79
4677.00,2.80
4676.00,2.81
4675.00,2.81
4674.00,2.82
4673.00,2.82
4672.00,2.82
4671.00,2.83
4670.00,2.83
4669.00,2.83
4668.00,2.84
4667.00,2.84
4666.00,2.84
4665.00,2.84
4664.00,2.84
4663.00,2.84
4662.00,2.84
4661.00,2.84
4660.00,2.84
4659.00,2.84
4658.00,2.84
4657.00,2.84
4656.00,2.85
4655.00,2.85
4654.00,2.85
4653.00,2.85
4652.00,2.85
4651.00,2.85
4650.00,2.84
4649.00,2.84
4648.00,2.84
4647.00,2.84
4646.00,2.84
4645.00,2.84
4644.00,2.84
4643.00,2.84
4642.00,2.84
4641.00,2.85
4640.00,2.85
4639.00,2.85
4638.00,2.85
4637.00,2.85
4636.00,2.85
4635.00,2.85
4634.00,2.85
4633.00,2.85
4632.00,2.85
4631.00,2.85
4630.00,2.85
4629.00,2.86
4628.00,2.86
4627.00,2.86
4626.00,2.87
4625.00,2.87
4624.00,2.87
4623.00,2.88
4622.00,2.88
4621.00,2.88
4620.00,2.89
4619.00,2.89
4618.00,2.90
4617.00,2.90
4616.00,2.90
4615.00,2.90
4614.00,2.91
4613.00,2.91
4612.00,2.91
4611.00,2.92
4610.00,2.92
4609.00,2.92
4608.00,2.93
4607.00,2.93
4606.00,2.94
4605.00,2.94
4604.00,2.94
4603.00,2.94
4602.00,2.94
4601.00,2.94
4600.00,2.94
4599.00,2.94
4598.00,2.94
4597.00,2.94
4596.00,2.94
4595.00,2.94
4594.00,2.94
4593.00,2.94
4592.00,2.94
4591.00,2.94
4590.00,2.95
4589.00,2.95
4588.00,2.95
4587.00,2.95
4586.00,2.95
4585.00,2.96
4584.00,2.96
4583.00,2.96
4582.00,2.96
4581.00,2.96
4580.00,2.96
4579.00,2.96
4578.00,2.96
4577.00,2.96
4576.00,2.96
4575.00,2.96
4574.00,2.96
4573.00,2.96
4572.00,2.97
4571.00,2.97
4570.00,2.97
4569.00,2.96
4568.00,2.96
4567.00,2.96
4566.00,2.96
4565.00,2.95
4564.00,2.95
4563.00,2.94
4562.00,2.93
4561.00,2.93
4560.00,2.92
4559.00,2.91
4558.00,2.91
4557.00,2.90
4556.00,2.90
4555.00,2.89
4554.00,2.88
4553.00,2.88
4552.00,2.87
4551.00,2.87
4550.00,2.86
4549.00,2.86
4548.00,2.85
4547.00,2.85
4546.00,2.84
4545.00,2.84
4544.00,2.84
4543.00,2.83
4542.00,2.83
4541.00,2.83
4540.00,2.83
4539.00,2.83
4538.00,2.83
4537.00,2.84
4536.00,2.84
4535.00,2.84
4534.00,2.84
4533.00,2.85
4532.00,2.85
4531.00,2.86
4530.00,2.86
4529.00,2.86
4528.00,2.87
4527.00,2.87
4526.00,2.87
4525.00,2.87
4524.00,2.88
4523.00,2.88
4522.00,2.88
4521.00,2.88
4520.00,2.89
4519.00,2.89
4518.00,2.89
4517.00,2.90
4516.00,2.90
4515.00,2.90
4514.00,2.90
4513.00,2.90
4512.00,2.91
4511.00,2.91
4510.00,2.91
4509.00,2.92
4508.00,2.92
4507.00,2.92
4506.00,2.92
4505.00,2.93
4504.00,2.93
4503.00,2.93
4502.00,2.93
4501.00,2.93
4500.00,2.93
4499.00,2.94
4498.00,2.94
4497.00,2.94
4496.00,2.94
4495.00,2.94
4494.00,2.94
4493.00,2.94
4492.00,2.94
4491.00,2.94
4490.00,2.94
4489.00,2.95
4488.00,2.95
4487.00,2.95
4486.00,2.95
4485.00,2.94
4484.00,2.94
4483.00,2.94
4482.00,2.94
4481.00,2.94
4480.00,2.93
4479.00,2.93
4478.00,2.93
4477.00,2.93
4476.00,2.93
4475.00,2.93
4474.00,2.93
4473.00,2.93
4472.00,2.93
4471.00,2.93
4470.00,2.93
4469.00,2.93
4468.00,2.94
4467.00,2.94
4466.00,2.94
4465.00,2.94
4464.00,2.94
4463.00,2.94
4462.00,2.93
4461.00,2.93
4460.00,2.93
4459.00,2.93
4458.00,2.92
4457.00,2.92
4456.00,2.92
4455.00,2.91
4454.00,2.91
4453.00,2.90
4452.00,2.89
4451.00,2.89
4450.00,2.88
4449.00,2.87
4448.00,2.86
4447.00,2.85
4446.00,2.84
4445.00,2.83
4444.00,2.81
4443.00,2.80
4442.00,2.79
4441.00,2.78
4440.00,2.77
4439.00,2.76
4438.00,2.75
4437.00,2.73
4436.00,2.72
4435.00,2.71
4434.00,2.70
4433.00,2.69
4432.00,2.68
4431.00,2.67
4430.00,2.66
4429.00,2.65
4428.00,2.64
4427.00,2.63
4426.00,2.62
4425.00,2.62
4424.00,2.61
4423.00,2.61
4422.00,2.60
4421.00,2.60
4420.00,2.59
4419.00,2.59
4418.00,2.58
4417.00,2.58
4416.00,2.57
4415.00,2.56
4414.00,2.56
4413.00,2.55
4412.00,2.55
4411.00,2.55
4410.00,2.54
4409.00,2.54
4408.00,2.54
4407.00,2.54
4406.00,2.54
4405.00,2.54
4404.00,2.54
4403.00,2.54
4402.00,2.54
4401.00,2.54
4400.00,2.54
4399.00,2.54
4398.00,2.55
4397.00,2.55
4396.00,2.55
4395.00,2.55
4394.00,2.55
4393.00,2.56
4392.00,2.56
4391.00,2.57
4390.00,2.58
4389.00,2.58
4388.00,2.59
4387.00,2.60
4386.00,2.61
4385.00,2.62
4384.00,2.62
4383.00,2.63
4382.00,2.64
4381.00,2.65
4380.00,2.66
4379.00,2.67
4378.00,2.68
4377.00,2.68
4376.00,2.69
4375.00,2.70
4374.00,2.70
4373.00,2.71
4372.00,2.71
4371.00,2.71
4370.00,2.71
4369.00,2.72
4368.00,2.72
4367.00,2.72
4366.00,2.71
4365.00,2.71
4364.00,2.71
4363.00,2.70
4362.00,2.69
4361.00,2.69
4360.00,2.68
4359.00,2.67
4358.00,2.66
4357.00,2.65
4356.00,2.64
4355.00,2.63
4354.00,2.62
4353.00,2.61
4352.00,2.60
4351.00,2.59
4350.00,2.58
4349.00,2.57
4348.00,2.56
4347.00,2.55
4346.00,2.55
4345.00,2.54
4344.00,2.54
4343.00,2.54
4342.00,2.54
4341.00,2.54
4340.00,2.54
4339.00,2.54
4338.00,2.55
4337.00,2.55
4336.00,2.56
4335.00,2.56
4334.00,2.57
4333.00,2.57
4332.00,2.58
4331.00,2.59
4330.00,2.59
4329.00,2.60
4328.00,2.61
4327.00,2.62
4326.00,2.62
4325.00,2.63
4324.00,2.63
4323.00,2.64
4322.00,2.64
4321.00,2.65
4320.00,2.65
4319.00,2.66
4318.00,2.66
4317.00,2.66
4316.00,2.67
4315.00,2.67
4314.00,2.67
4313.00,2.67
4312.00,2.67
4311.00,2.66
4310.00,2.66
4309.00,2.66
4308.00,2.66
4307.00,2.66
4306.00,2.66
4305.00,2.66
4304.00,2.66
4303.00,2.66
4302.00,2.66
4301.00,2.66
4300.00,2.66
4299.00,2.66
4298.00,2.65
4297.00,2.65
4296.00,2.65
4295.00,2.65
4294.00,2.65
4293.00,2.65
4292.00,2.66
4291.00,2.66
4290.00,2.66
4289.00,2.66
4288.00,2.66
4287.00,2.66
4286.00,2.67
4285.00,2.67
4284.00,2.67
4283.00,2.67
4282.00,2.67
4281.00,2.67
4280.00,2.67
4279.00,2.67
4278.00,2.67
4277.00,2.67
4276.00,2.67
4275.00,2.67
4274.00,2.67
4273.00,2.67
4272.00,2.67
4271.00,2.66
4270.00,2.66
4269.00,2.66
4268.00,2.66
4267.00,2.66
4266.00,2.66
4265.00,2.65
4264.00,2.65
4263.00,2.65
4262.00,2.65
4261.00,2.65
4260.00,2.64
4259.00,2.64
4258.00,2.64
4257.00,2.64
4256.00,2.64
4255.00,2.65
4254.00,2.65
4253.00,2.65
4252.00,2.65
4251.00,2.66
4250.00,2.66
4249.00,2.67
4248.00,2.67
4247.00,2.68
4246.00,2.69
4245.00,2.69
4244.00,2.70
4243.00,2.71
4242.00,2.72
4241.00,2.73
4240.00,2.74
4239.00,2.76
4238.00,2.77
4237.00,2.78
4236.00,2.78
4235.00,2.79
4234.00,2.80
4233.00,2.81
4232.00,2.82
4231.00,2.83
4230.00,2.83
4229.00,2.84
4228.00,2.84
4227.00,2.84
4226.00,2.84
4225.00,2.84
4224.00,2.84
4223.00,2.84
4222.00,2.83
4221.00,2.83
4220.00,2.82
4219.00,2.82
4218.00,2.81
4217.00,2.80
4216.00,2.79
4215.00,2.79
4214.00,2.78
4213.00,2.77
4212.00,2.76
4211.00,2.75
4210.00,2.75
4209.00,2.74
4208.00,2.74
4207.00,2.73
4206.00,2.73
4205.00,2.72
4204.00,2.72
4203.00,2.71
4202.00,2.71
4201.00,2.71
4200.00,2.71
4199.00,2.72
4198.00,2.72
4197.00,2.73
4196.00,2.74
4195.00,2.74
4194.00,2.75
4193.00,2.76
4192.00,2.77
4191.00,2.78
4190.00,2.80
4189.00,2.81
4188.00,2.82
4187.00,2.83
4186.00,2.84
4185.00,2.85
4184.00,2.86
4183.00,2.87
4182.00,2.87
4181.00,2.88
4180.00,2.89
4179.00,2.89
4178.00,2.90
4177.00,2.90
4176.00,2.91
4175.00,2.91
4174.00,2.91
4173.00,2.92
4172.00,2.92
4171.00,2.92
4170.00,2.92
4169.00,2.92
4168.00,2.92
4167.00,2.91
4166.00,2.91
4165.00,2.90
4164.00,2.90
4163.00,2.89
4162.00,2.88
4161.00,2.87
4160.00,2.87
4159.00,2.86
4158.00,2.85
4157.00,2.85
4156.00,2.84
4155.00,2.84
4154.00,2.83
4153.00,2.83
4152.00,2.82
4151.00,2.82
4150.00,2.81
4149.00,2.81
4148.00,2.80
4147.00,2.79
4146.00,2.79
4145.00,2.78
4144.00,2.77
4143.00,2.76
4142.00,2.76
4141.00,2.75
4140.00,2.74
4139.00,2.74
4138.00,2.73
4137.00,2.73
4136.00,2.73
4135.00,2.73
4134.00,2.73
4133.00,2.73
4132.00,2.73
4131.00,2.73
4130.00,2.73
4129.00,2.73
4128.00,2.73
4127.00,2.73
4126.00,2.74
4125.00,2.74
4124.00,2.75
4123.00,2.75
4122.00,2.76
4121.00,2.77
4120.00,2.78
4119.00,2.79
4118.00,2.80
4117.00,2.81
4116.00,2.82
4115.00,2.83
4114.00,2.84
4113.00,2.86
4112.00,2.87
4111.00,2.88
4110.00,2.88
4109.00,2.89
4108.00,2.90
4107.00,2.91
4106.00,2.91
4105.00,2.92
4104.00,2.93
4103.00,2.93
4102.00,2.94
4101.00,2.94
4100.00,2.95
4099.00,2.95
4098.00,2.96
4097.00,2.96
4096.00,2.96
4095.00,2.96
4094.00,2.96
4093.00,2.96
4092.00,2.96
4091.00,2.96
4090.00,2.96
4089.00,2.95
4088.00,2.95
4087.00,2.95
4086.00,2.94
4085.00,2.94
4084.00,2.94
4083.00,2.93
4082.00,2.93
4081.00,2.92
4080.00,2.92
4079.00,2.91
4078.00,2.91
4077.00,2.90
4076.00,2.90
4075.00,2.89
4074.00,2.88
4073.00,2.87
4072.00,2.87
4071.00,2.86
4070.00,2.85
4069.00,2.84
4068.00,2.83
4067.00,2.83
4066.00,2.82
4065.00,2.81
4064.00,2.81
4063.00,2.80
4062.00,2.80
4061.00,2.79
4060.00,2.79
4059.00,2.79
4058.00,2.78
4057.00,2.78
4056.00,2.78
4055.00,2.78
4054.00,2.78
4053.00,2.78
4052.00,2.79
4051.00,2.79
4050.00,2.79
4049.00,2.79
4048.00,2.79
4047.00,2.79
4046.00,2.80
4045.00,2.80
4044.00,2.80
4043.00,2.80
4042.00,2.81
4041.00,2.81
4040.00,2.82
4039.00,2.82
4038.00,2.83
4037.00,2.83
4036.00,2.83
4035.00,2.83
4034.00,2.83
4033.00,2.83
4032.00,2.83
4031.00,2.83
4030.00,2.83
4029.00,2.82
4028.00,2.82
4027.00,2.82
4026.00,2.82
4025.00,2.81
4024.00,2.81
4023.00,2.81
4022.00,2.81
4021.00,2.82
4020.00,2.82
4019.00,2.83
4018.00,2.83
4017.00,2.84
4016.00,2.85
4015.00,2.85
4014.00,2.86
4013.00,2.86
4012.00,2.87
4011.00,2.88
4010.00,2.89
4009.00,2.90
4008.00,2.91
4007.00,2.93
4006.00,2.94
4005.00,2.95
4004.00,2.97
4003.00,2.99
4002.00,3.01
4001.00,3.02
4000.00,3.04
