创建为新数据集,样品 1128 用户 Administrator 日期 星期二, 七月 30 2019
cm-1,%T
10000.00,2.39
9999.00,2.36
9998.00,2.33
9997.00,2.30
9996.00,2.27
9995.00,2.24
9994.00,2.21
9993.00,2.18
9992.00,2.15
9991.00,2.13
9990.00,2.11
9989.00,2.09
9988.00,2.07
9987.00,2.06
9986.00,2.05
9985.00,2.04
9984.00,2.04
9983.00,2.04
9982.00,2.05
9981.00,2.05
9980.00,2.06
9979.00,2.07
9978.00,2.08
9977.00,2.09
9976.00,2.10
9975.00,2.10
9974.00,2.10
9973.00,2.10
9972.00,2.10
9971.00,2.09
9970.00,2.08
9969.00,2.07
9968.00,2.06
9967.00,2.04
9966.00,2.03
9965.00,2.01
9964.00,2.00
9963.00,1.99
9962.00,1.98
9961.00,1.96
9960.00,1.95
9959.00,1.94
9958.00,1.93
9957.00,1.91
9956.00,1.90
9955.00,1.88
9954.00,1.86
9953.00,1.84
9952.00,1.82
9951.00,1.81
9950.00,1.79
9949.00,1.78
9948.00,1.77
9947.00,1.76
9946.00,1.76
9945.00,1.77
9944.00,1.77
9943.00,1.78
9942.00,1.79
9941.00,1.80
9940.00,1.82
9939.00,1.82
9938.00,1.83
9937.00,1.84
9936.00,1.84
9935.00,1.85
9934.00,1.85
9933.00,1.86
9932.00,1.86
9931.00,1.87
9930.00,1.88
9929.00,1.88
9928.00,1.90
9927.00,1.91
9926.00,1.92
9925.00,1.92
9924.00,1.93
9923.00,1.94
9922.00,1.94
9921.00,1.93
9920.00,1.93
9919.00,1.91
9918.00,1.90
9917.00,1.88
9916.00,1.86
9915.00,1.84
9914.00,1.82
9913.00,1.80
9912.00,1.78
9911.00,1.75
9910.00,1.73
9909.00,1.70
9908.00,1.68
9907.00,1.65
9906.00,1.62
9905.00,1.59
9904.00,1.55
9903.00,1.51
9902.00,1.48
9901.00,1.44
9900.00,1.40
9899.00,1.37
9898.00,1.34
9897.00,1.31
9896.00,1.28
9895.00,1.26
9894.00,1.24
9893.00,1.22
9892.00,1.21
9891.00,1.21
9890.00,1.20
9889.00,1.20
9888.00,1.20
9887.00,1.21
9886.00,1.22
9885.00,1.23
9884.00,1.24
9883.00,1.25
9882.00,1.27
9881.00,1.29
9880.00,1.31
9879.00,1.33
9878.00,1.35
9877.00,1.38
9876.00,1.40
9875.00,1.42
9874.00,1.45
9873.00,1.47
9872.00,1.49
9871.00,1.51
9870.00,1.53
9869.00,1.54
9868.00,1.56
9867.00,1.57
9866.00,1.58
9865.00,1.58
9864.00,1.58
9863.00,1.58
9862.00,1.57
9861.00,1.57
9860.00,1.56
9859.00,1.55
9858.00,1.54
9857.00,1.52
9856.00,1.51
9855.00,1.50
9854.00,1.48
9853.00,1.46
9852.00,1.45
9851.00,1.44
9850.00,1.42
9849.00,1.41
9848.00,1.39
9847.00,1.38
9846.00,1.37
9845.00,1.36
9844.00,1.35
9843.00,1.35
9842.00,1.34
9841.00,1.34
9840.00,1.34
9839.00,1.34
9838.00,1.34
9837.00,1.34
9836.00,1.34
9835.00,1.35
9834.00,1.35
9833.00,1.35
9832.00,1.35
9831.00,1.35
9830.00,1.36
9829.00,1.36
9828.00,1.37
9827.00,1.38
9826.00,1.39
9825.00,1.39
9824.00,1.41
9823.00,1.42
9822.00,1.43
9821.00,1.44
9820.00,1.45
9819.00,1.45
9818.00,1.46
9817.00,1.46
9816.00,1.46
9815.00,1.46
9814.00,1.46
9813.00,1.45
9812.00,1.45
9811.00,1.45
9810.00,1.44
9809.00,1.44
9808.00,1.44
9807.00,1.44
9806.00,1.44
9805.00,1.45
9804.00,1.45
9803.00,1.46
9802.00,1.46
9801.00,1.47
9800.00,1.47
9799.00,1.47
9798.00,1.48
9797.00,1.48
9796.00,1.48
9795.00,1.48
9794.00,1.48
9793.00,1.48
9792.00,1.48
9791.00,1.48
9790.00,1.48
9789.00,1.49
9788.00,1.49
9787.00,1.50
9786.00,1.50
9785.00,1.50
9784.00,1.50
9783.00,1.50
9782.00,1.50
9781.00,1.50
9780.00,1.50
9779.00,1.49
9778.00,1.48
9777.00,1.47
9776.00,1.46
9775.00,1.45
9774.00,1.44
9773.00,1.43
9772.00,1.41
9771.00,1.40
9770.00,1.38
9769.00,1.37
9768.00,1.35
9767.00,1.33
9766.00,1.32
9765.00,1.30
9764.00,1.28
9763.00,1.27
9762.00,1.25
9761.00,1.24
9760.00,1.23
9759.00,1.22
9758.00,1.21
9757.00,1.21
9756.00,1.20
9755.00,1.20
9754.00,1.20
9753.00,1.20
9752.00,1.20
9751.00,1.20
9750.00,1.20
9749.00,1.21
9748.00,1.21
9747.00,1.21
9746.00,1.22
9745.00,1.23
9744.00,1.24
9743.00,1.26
9742.00,1.28
9741.00,1.29
9740.00,1.32
9739.00,1.34
9738.00,1.36
9737.00,1.39
9736.00,1.41
9735.00,1.44
9734.00,1.46
9733.00,1.49
9732.00,1.51
9731.00,1.53
9730.00,1.55
9729.00,1.57
9728.00,1.59
9727.00,1.60
9726.00,1.62
9725.00,1.63
9724.00,1.64
9723.00,1.65
9722.00,1.66
9721.00,1.66
9720.00,1.67
9719.00,1.68
9718.00,1.68
9717.00,1.69
9716.00,1.69
9715.00,1.69
9714.00,1.68
9713.00,1.68
9712.00,1.67
9711.00,1.66
9710.00,1.65
9709.00,1.64
9708.00,1.63
9707.00,1.62
9706.00,1.60
9705.00,1.59
9704.00,1.58
9703.00,1.57
9702.00,1.57
9701.00,1.56
9700.00,1.55
9699.00,1.55
9698.00,1.54
9697.00,1.54
9696.00,1.53
9695.00,1.53
9694.00,1.52
9693.00,1.51
9692.00,1.51
9691.00,1.50
9690.00,1.50
9689.00,1.49
9688.00,1.49
9687.00,1.49
9686.00,1.49
9685.00,1.49
9684.00,1.50
9683.00,1.50
9682.00,1.50
9681.00,1.49
9680.00,1.49
9679.00,1.49
9678.00,1.48
9677.00,1.47
9676.00,1.47
9675.00,1.46
9674.00,1.46
9673.00,1.45
9672.00,1.45
9671.00,1.45
9670.00,1.44
9669.00,1.44
9668.00,1.44
9667.00,1.44
9666.00,1.44
9665.00,1.44
9664.00,1.44
9663.00,1.43
9662.00,1.43
9661.00,1.42
9660.00,1.41
9659.00,1.40
9658.00,1.39
9657.00,1.37
9656.00,1.36
9655.00,1.36
9654.00,1.35
9653.00,1.34
9652.00,1.34
9651.00,1.33
9650.00,1.33
9649.00,1.33
9648.00,1.32
9647.00,1.32
9646.00,1.32
9645.00,1.31
9644.00,1.31
9643.00,1.30
9642.00,1.29
9641.00,1.28
9640.00,1.28
9639.00,1.27
9638.00,1.27
9637.00,1.26
9636.00,1.26
9635.00,1.26
9634.00,1.26
9633.00,1.26
9632.00,1.27
9631.00,1.28
9630.00,1.28
9629.00,1.29
9628.00,1.29
9627.00,1.30
9626.00,1.31
9625.00,1.31
9624.00,1.32
9623.00,1.33
9622.00,1.34
9621.00,1.35
9620.00,1.36
9619.00,1.37
9618.00,1.38
9617.00,1.39
9616.00,1.40
9615.00,1.41
9614.00,1.42
9613.00,1.43
9612.00,1.44
9611.00,1.45
9610.00,1.45
9609.00,1.46
9608.00,1.46
9607.00,1.46
9606.00,1.46
9605.00,1.45
9604.00,1.45
9603.00,1.44
9602.00,1.44
9601.00,1.43
9600.00,1.43
9599.00,1.42
9598.00,1.41
9597.00,1.40
9596.00,1.40
9595.00,1.39
9594.00,1.38
9593.00,1.37
9592.00,1.36
9591.00,1.35
9590.00,1.34
9589.00,1.33
9588.00,1.32
9587.00,1.31
9586.00,1.30
9585.00,1.29
9584.00,1.29
9583.00,1.28
9582.00,1.28
9581.00,1.28
9580.00,1.28
9579.00,1.28
9578.00,1.29
9577.00,1.30
9576.00,1.31
9575.00,1.32
9574.00,1.34
9573.00,1.35
9572.00,1.36
9571.00,1.36
9570.00,1.37
9569.00,1.38
9568.00,1.38
9567.00,1.39
9566.00,1.40
9565.00,1.41
9564.00,1.42
9563.00,1.43
9562.00,1.44
9561.00,1.46
9560.00,1.47
9559.00,1.49
9558.00,1.51
9557.00,1.52
9556.00,1.53
9555.00,1.54
9554.00,1.55
9553.00,1.55
9552.00,1.55
9551.00,1.54
9550.00,1.53
9549.00,1.52
9548.00,1.51
9547.00,1.49
9546.00,1.47
9545.00,1.46
9544.00,1.44
9543.00,1.42
9542.00,1.41
9541.00,1.39
9540.00,1.37
9539.00,1.36
9538.00,1.34
9537.00,1.32
9536.00,1.30
9535.00,1.28
9534.00,1.26
9533.00,1.25
9532.00,1.23
9531.00,1.22
9530.00,1.21
9529.00,1.20
9528.00,1.20
9527.00,1.20
9526.00,1.20
9525.00,1.21
9524.00,1.21
9523.00,1.22
9522.00,1.23
9521.00,1.25
9520.00,1.26
9519.00,1.28
9518.00,1.30
9517.00,1.32
9516.00,1.34
9515.00,1.37
9514.00,1.39
9513.00,1.41
9512.00,1.43
9511.00,1.45
9510.00,1.47
9509.00,1.49
9508.00,1.51
9507.00,1.52
9506.00,1.53
9505.00,1.54
9504.00,1.55
9503.00,1.56
9502.00,1.56
9501.00,1.57
9500.00,1.57
9499.00,1.58
9498.00,1.58
9497.00,1.58
9496.00,1.59
9495.00,1.60
9494.00,1.60
9493.00,1.61
9492.00,1.62
9491.00,1.63
9490.00,1.64
9489.00,1.66
9488.00,1.67
9487.00,1.68
9486.00,1.69
9485.00,1.71
9484.00,1.72
9483.00,1.73
9482.00,1.74
9481.00,1.75
9480.00,1.75
9479.00,1.76
9478.00,1.76
9477.00,1.77
9476.00,1.77
9475.00,1.77
9474.00,1.77
9473.00,1.77
9472.00,1.76
9471.00,1.76
9470.00,1.75
9469.00,1.74
9468.00,1.73
9467.00,1.71
9466.00,1.69
9465.00,1.67
9464.00,1.65
9463.00,1.63
9462.00,1.61
9461.00,1.58
9460.00,1.56
9459.00,1.54
9458.00,1.52
9457.00,1.50
9456.00,1.48
9455.00,1.46
9454.00,1.45
9453.00,1.43
9452.00,1.42
9451.00,1.41
9450.00,1.40
9449.00,1.40
9448.00,1.39
9447.00,1.39
9446.00,1.39
9445.00,1.40
9444.00,1.40
9443.00,1.41
9442.00,1.43
9441.00,1.44
9440.00,1.46
9439.00,1.48
9438.00,1.50
9437.00,1.52
9436.00,1.54
9435.00,1.55
9434.00,1.57
9433.00,1.59
9432.00,1.60
9431.00,1.62
9430.00,1.63
9429.00,1.65
9428.00,1.66
9427.00,1.68
9426.00,1.69
9425.00,1.70
9424.00,1.72
9423.00,1.72
9422.00,1.73
9421.00,1.73
9420.00,1.73
9419.00,1.73
9418.00,1.72
9417.00,1.70
9416.00,1.68
9415.00,1.66
9414.00,1.63
9413.00,1.61
9412.00,1.58
9411.00,1.55
9410.00,1.52
9409.00,1.49
9408.00,1.46
9407.00,1.43
9406.00,1.40
9405.00,1.37
9404.00,1.34
9403.00,1.31
9402.00,1.28
9401.00,1.25
9400.00,1.22
9399.00,1.18
9398.00,1.15
9397.00,1.12
9396.00,1.10
9395.00,1.07
9394.00,1.05
9393.00,1.03
9392.00,1.02
9391.00,1.01
9390.00,1.00
9389.00,0.99
9388.00,0.99
9387.00,0.98
9386.00,0.98
9385.00,0.97
9384.00,0.97
9383.00,0.96
9382.00,0.96
9381.00,0.95
9380.00,0.95
9379.00,0.94
9378.00,0.94
9377.00,0.93
9376.00,0.93
9375.00,0.93
9374.00,0.93
9373.00,0.94
9372.00,0.94
9371.00,0.94
9370.00,0.94
9369.00,0.94
9368.00,0.94
9367.00,0.93
9366.00,0.93
9365.00,0.92
9364.00,0.92
9363.00,0.91
9362.00,0.91
9361.00,0.90
9360.00,0.90
9359.00,0.90
9358.00,0.91
9357.00,0.92
9356.00,0.92
9355.00,0.93
9354.00,0.94
9353.00,0.95
9352.00,0.96
9351.00,0.97
9350.00,0.98
9349.00,0.99
9348.00,0.99
9347.00,1.00
9346.00,1.01
9345.00,1.01
9344.00,1.02
9343.00,1.03
9342.00,1.03
9341.00,1.04
9340.00,1.05
9339.00,1.06
9338.00,1.07
9337.00,1.08
9336.00,1.08
9335.00,1.08
9334.00,1.08
9333.00,1.08
9332.00,1.07
9331.00,1.06
9330.00,1.05
9329.00,1.04
9328.00,1.02
9327.00,1.01
9326.00,0.99
9325.00,0.98
9324.00,0.97
9323.00,0.96
9322.00,0.94
9321.00,0.93
9320.00,0.92
9319.00,0.90
9318.00,0.89
9317.00,0.88
9316.00,0.86
9315.00,0.85
9314.00,0.84
9313.00,0.83
9312.00,0.83
9311.00,0.83
9310.00,0.83
9309.00,0.84
9308.00,0.84
9307.00,0.86
9306.00,0.87
9305.00,0.89
9304.00,0.91
9303.00,0.93
9302.00,0.95
9301.00,0.97
9300.00,0.99
9299.00,1.01
9298.00,1.03
9297.00,1.06
9296.00,1.08
9295.00,1.11
9294.00,1.13
9293.00,1.16
9292.00,1.18
9291.00,1.21
9290.00,1.24
9289.00,1.27
9288.00,1.29
9287.00,1.31
9286.00,1.33
9285.00,1.35
9284.00,1.36
9283.00,1.37
9282.00,1.37
9281.00,1.37
9280.00,1.37
9279.00,1.37
9278.00,1.37
9277.00,1.37
9276.00,1.37
9275.00,1.36
9274.00,1.36
9273.00,1.36
9272.00,1.35
9271.00,1.35
9270.00,1.34
9269.00,1.34
9268.00,1.33
9267.00,1.32
9266.00,1.31
9265.00,1.29
9264.00,1.28
9263.00,1.26
9262.00,1.24
9261.00,1.23
9260.00,1.21
9259.00,1.19
9258.00,1.18
9257.00,1.17
9256.00,1.15
9255.00,1.14
9254.00,1.14
9253.00,1.13
9252.00,1.12
9251.00,1.11
9250.00,1.10
9249.00,1.09
9248.00,1.08
9247.00,1.07
9246.00,1.06
9245.00,1.06
9244.00,1.05
9243.00,1.04
9242.00,1.03
9241.00,1.03
9240.00,1.03
9239.00,1.03
9238.00,1.03
9237.00,1.03
9236.00,1.03
9235.00,1.04
9234.00,1.04
9233.00,1.05
9232.00,1.06
9231.00,1.07
9230.00,1.09
9229.00,1.10
9228.00,1.11
9227.00,1.12
9226.00,1.13
9225.00,1.14
9224.00,1.15
9223.00,1.16
9222.00,1.17
9221.00,1.18
9220.00,1.19
9219.00,1.20
9218.00,1.21
9217.00,1.22
9216.00,1.23
9215.00,1.24
9214.00,1.26
9213.00,1.27
9212.00,1.28
9211.00,1.30
9210.00,1.31
9209.00,1.32
9208.00,1.33
9207.00,1.34
9206.00,1.35
9205.00,1.36
9204.00,1.37
9203.00,1.38
9202.00,1.38
9201.00,1.39
9200.00,1.39
9199.00,1.40
9198.00,1.41
9197.00,1.41
9196.00,1.42
9195.00,1.42
9194.00,1.43
9193.00,1.43
9192.00,1.44
9191.00,1.44
9190.00,1.44
9189.00,1.44
9188.00,1.43
9187.00,1.42
9186.00,1.41
9185.00,1.41
9184.00,1.40
9183.00,1.39
9182.00,1.38
9181.00,1.37
9180.00,1.36
9179.00,1.35
9178.00,1.34
9177.00,1.33
9176.00,1.31
9175.00,1.30
9174.00,1.29
9173.00,1.28
9172.00,1.27
9171.00,1.25
9170.00,1.24
9169.00,1.23
9168.00,1.23
9167.00,1.22
9166.00,1.22
9165.00,1.21
9164.00,1.21
9163.00,1.21
9162.00,1.21
9161.00,1.22
9160.00,1.22
9159.00,1.23
9158.00,1.23
9157.00,1.24
9156.00,1.25
9155.00,1.25
9154.00,1.26
9153.00,1.27
9152.00,1.28
9151.00,1.29
9150.00,1.31
9149.00,1.32
9148.00,1.34
9147.00,1.36
9146.00,1.38
9145.00,1.40
9144.00,1.42
9143.00,1.44
9142.00,1.46
9141.00,1.47
9140.00,1.48
9139.00,1.49
9138.00,1.50
9137.00,1.51
9136.00,1.52
9135.00,1.52
9134.00,1.53
9133.00,1.54
9132.00,1.54
9131.00,1.55
9130.00,1.55
9129.00,1.55
9128.00,1.56
9127.00,1.56
9126.00,1.56
9125.00,1.55
9124.00,1.55
9123.00,1.54
9122.00,1.53
9121.00,1.52
9120.00,1.50
9119.00,1.49
9118.00,1.48
9117.00,1.47
9116.00,1.46
9115.00,1.45
9114.00,1.44
9113.00,1.43
9112.00,1.43
9111.00,1.42
9110.00,1.41
9109.00,1.40
9108.00,1.39
9107.00,1.39
9106.00,1.38
9105.00,1.37
9104.00,1.37
9103.00,1.36
9102.00,1.36
9101.00,1.36
9100.00,1.36
9099.00,1.36
9098.00,1.37
9097.00,1.38
9096.00,1.38
9095.00,1.39
9094.00,1.40
9093.00,1.40
9092.00,1.41
9091.00,1.41
9090.00,1.42
9089.00,1.42
9088.00,1.42
9087.00,1.42
9086.00,1.42
9085.00,1.41
9084.00,1.41
9083.00,1.41
9082.00,1.41
9081.00,1.41
9080.00,1.41
9079.00,1.41
9078.00,1.41
9077.00,1.41
9076.00,1.40
9075.00,1.39
9074.00,1.38
9073.00,1.37
9072.00,1.36
9071.00,1.34
9070.00,1.32
9069.00,1.30
9068.00,1.28
9067.00,1.26
9066.00,1.24
9065.00,1.23
9064.00,1.21
9063.00,1.19
9062.00,1.18
9061.00,1.17
9060.00,1.16
9059.00,1.16
9058.00,1.15
9057.00,1.14
9056.00,1.14
9055.00,1.13
9054.00,1.13
9053.00,1.13
9052.00,1.12
9051.00,1.12
9050.00,1.12
9049.00,1.12
9048.00,1.12
9047.00,1.13
9046.00,1.13
9045.00,1.14
9044.00,1.15
9043.00,1.16
9042.00,1.18
9041.00,1.19
9040.00,1.21
9039.00,1.23
9038.00,1.25
9037.00,1.27
9036.00,1.29
9035.00,1.31
9034.00,1.33
9033.00,1.35
9032.00,1.37
9031.00,1.38
9030.00,1.40
9029.00,1.41
9028.00,1.42
9027.00,1.43
9026.00,1.44
9025.00,1.45
9024.00,1.46
9023.00,1.46
9022.00,1.47
9021.00,1.47
9020.00,1.48
9019.00,1.48
9018.00,1.48
9017.00,1.48
9016.00,1.48
9015.00,1.48
9014.00,1.47
9013.00,1.46
9012.00,1.45
9011.00,1.43
9010.00,1.42
9009.00,1.40
9008.00,1.39
9007.00,1.37
9006.00,1.36
9005.00,1.34
9004.00,1.33
9003.00,1.31
9002.00,1.30
9001.00,1.28
9000.00,1.27
8999.00,1.25
8998.00,1.24
8997.00,1.22
8996.00,1.21
8995.00,1.19
8994.00,1.18
8993.00,1.16
8992.00,1.14
8991.00,1.13
8990.00,1.11
8989.00,1.10
8988.00,1.09
8987.00,1.07
8986.00,1.06
8985.00,1.05
8984.00,1.03
8983.00,1.02
8982.00,1.01
8981.00,1.00
8980.00,0.98
8979.00,0.97
8978.00,0.96
8977.00,0.94
8976.00,0.93
8975.00,0.92
8974.00,0.92
8973.00,0.91
8972.00,0.91
8971.00,0.90
8970.00,0.90
8969.00,0.90
8968.00,0.90
8967.00,0.90
8966.00,0.90
8965.00,0.90
8964.00,0.90
8963.00,0.90
8962.00,0.90
8961.00,0.90
8960.00,0.91
8959.00,0.91
8958.00,0.92
8957.00,0.93
8956.00,0.95
8955.00,0.96
8954.00,0.98
8953.00,0.99
8952.00,1.01
8951.00,1.03
8950.00,1.04
8949.00,1.06
8948.00,1.07
8947.00,1.09
8946.00,1.10
8945.00,1.11
8944.00,1.13
8943.00,1.14
8942.00,1.16
8941.00,1.18
8940.00,1.20
8939.00,1.22
8938.00,1.24
8937.00,1.26
8936.00,1.28
8935.00,1.30
8934.00,1.31
8933.00,1.33
8932.00,1.34
8931.00,1.36
8930.00,1.36
8929.00,1.37
8928.00,1.37
8927.00,1.38
8926.00,1.38
8925.00,1.38
8924.00,1.37
8923.00,1.37
8922.00,1.36
8921.00,1.36
8920.00,1.35
8919.00,1.35
8918.00,1.34
8917.00,1.33
8916.00,1.31
8915.00,1.30
8914.00,1.29
8913.00,1.27
8912.00,1.25
8911.00,1.24
8910.00,1.22
8909.00,1.21
8908.00,1.19
8907.00,1.17
8906.00,1.16
8905.00,1.15
8904.00,1.13
8903.00,1.12
8902.00,1.11
8901.00,1.11
8900.00,1.10
8899.00,1.10
8898.00,1.10
8897.00,1.10
8896.00,1.10
8895.00,1.11
8894.00,1.11
8893.00,1.12
8892.00,1.13
8891.00,1.13
8890.00,1.14
8889.00,1.15
8888.00,1.16
8887.00,1.17
8886.00,1.18
8885.00,1.19
8884.00,1.20
8883.00,1.21
8882.00,1.22
8881.00,1.23
8880.00,1.24
8879.00,1.26
8878.00,1.27
8877.00,1.28
8876.00,1.29
8875.00,1.29
8874.00,1.30
8873.00,1.30
8872.00,1.30
8871.00,1.30
8870.00,1.30
8869.00,1.30
8868.00,1.30
8867.00,1.29
8866.00,1.28
8865.00,1.28
8864.00,1.27
8863.00,1.25
8862.00,1.24
8861.00,1.23
8860.00,1.22
8859.00,1.20
8858.00,1.19
8857.00,1.17
8856.00,1.16
8855.00,1.15
8854.00,1.13
8853.00,1.12
8852.00,1.11
8851.00,1.09
8850.00,1.09
8849.00,1.08
8848.00,1.07
8847.00,1.06
8846.00,1.06
8845.00,1.06
8844.00,1.06
8843.00,1.06
8842.00,1.07
8841.00,1.07
8840.00,1.08
8839.00,1.09
8838.00,1.11
8837.00,1.13
8836.00,1.15
8835.00,1.17
8834.00,1.19
8833.00,1.22
8832.00,1.25
8831.00,1.27
8830.00,1.30
8829.00,1.33
8828.00,1.36
8827.00,1.38
8826.00,1.40
8825.00,1.42
8824.00,1.44
8823.00,1.45
8822.00,1.46
8821.00,1.47
8820.00,1.48
8819.00,1.49
8818.00,1.49
8817.00,1.50
8816.00,1.50
8815.00,1.50
8814.00,1.50
8813.00,1.50
8812.00,1.49
8811.00,1.48
8810.00,1.46
8809.00,1.45
8808.00,1.42
8807.00,1.40
8806.00,1.37
8805.00,1.35
8804.00,1.32
8803.00,1.30
8802.00,1.27
8801.00,1.25
8800.00,1.23
8799.00,1.21
8798.00,1.19
8797.00,1.17
8796.00,1.15
8795.00,1.14
8794.00,1.12
8793.00,1.11
8792.00,1.09
8791.00,1.08
8790.00,1.07
8789.00,1.06
8788.00,1.04
8787.00,1.03
8786.00,1.03
8785.00,1.02
8784.00,1.02
8783.00,1.02
8782.00,1.02
8781.00,1.02
8780.00,1.03
8779.00,1.03
8778.00,1.04
8777.00,1.04
8776.00,1.05
8775.00,1.05
8774.00,1.06
8773.00,1.07
8772.00,1.07
8771.00,1.08
8770.00,1.09
8769.00,1.10
8768.00,1.12
8767.00,1.13
8766.00,1.14
8765.00,1.16
8764.00,1.17
8763.00,1.18
8762.00,1.19
8761.00,1.20
8760.00,1.21
8759.00,1.22
8758.00,1.23
8757.00,1.23
8756.00,1.24
8755.00,1.25
8754.00,1.26
8753.00,1.26
8752.00,1.27
8751.00,1.27
8750.00,1.28
8749.00,1.28
8748.00,1.29
8747.00,1.29
8746.00,1.29
8745.00,1.28
8744.00,1.28
8743.00,1.27
8742.00,1.27
8741.00,1.26
8740.00,1.25
8739.00,1.24
8738.00,1.23
8737.00,1.22
8736.00,1.21
8735.00,1.20
8734.00,1.19
8733.00,1.18
8732.00,1.17
8731.00,1.17
8730.00,1.16
8729.00,1.15
8728.00,1.14
8727.00,1.14
8726.00,1.13
8725.00,1.12
8724.00,1.11
8723.00,1.10
8722.00,1.10
8721.00,1.09
8720.00,1.09
8719.00,1.09
8718.00,1.08
8717.00,1.08
8716.00,1.08
8715.00,1.07
8714.00,1.07
8713.00,1.07
8712.00,1.07
8711.00,1.07
8710.00,1.06
8709.00,1.06
8708.00,1.06
8707.00,1.06
8706.00,1.06
8705.00,1.06
8704.00,1.06
8703.00,1.06
8702.00,1.06
8701.00,1.06
8700.00,1.05
8699.00,1.05
8698.00,1.05
8697.00,1.04
8696.00,1.04
8695.00,1.03
8694.00,1.02
8693.00,1.01
8692.00,1.01
8691.00,1.00
8690.00,0.99
8689.00,0.98
8688.00,0.98
8687.00,0.97
8686.00,0.97
8685.00,0.97
8684.00,0.97
8683.00,0.97
8682.00,0.97
8681.00,0.96
8680.00,0.96
8679.00,0.96
8678.00,0.96
8677.00,0.96
8676.00,0.95
8675.00,0.95
8674.00,0.96
8673.00,0.96
8672.00,0.97
8671.00,0.98
8670.00,0.99
8669.00,1.01
8668.00,1.02
8667.00,1.04
8666.00,1.06
8665.00,1.08
8664.00,1.10
8663.00,1.12
8662.00,1.14
8661.00,1.16
8660.00,1.17
8659.00,1.19
8658.00,1.20
8657.00,1.22
8656.00,1.23
8655.00,1.24
8654.00,1.26
8653.00,1.27
8652.00,1.29
8651.00,1.30
8650.00,1.31
8649.00,1.33
8648.00,1.33
8647.00,1.34
8646.00,1.35
8645.00,1.35
8644.00,1.35
8643.00,1.35
8642.00,1.35
8641.00,1.34
8640.00,1.34
8639.00,1.34
8638.00,1.33
8637.00,1.32
8636.00,1.32
8635.00,1.32
8634.00,1.32
8633.00,1.31
8632.00,1.31
8631.00,1.31
8630.00,1.31
8629.00,1.31
8628.00,1.31
8627.00,1.31
8626.00,1.31
8625.00,1.31
8624.00,1.31
8623.00,1.31
8622.00,1.31
8621.00,1.31
8620.00,1.31
8619.00,1.31
8618.00,1.31
8617.00,1.31
8616.00,1.31
8615.00,1.31
8614.00,1.30
8613.00,1.30
8612.00,1.30
8611.00,1.29
8610.00,1.29
8609.00,1.28
8608.00,1.27
8607.00,1.26
8606.00,1.25
8605.00,1.24
8604.00,1.23
8603.00,1.21
8602.00,1.20
8601.00,1.19
8600.00,1.17
8599.00,1.16
8598.00,1.14
8597.00,1.12
8596.00,1.11
8595.00,1.09
8594.00,1.08
8593.00,1.06
8592.00,1.05
8591.00,1.04
8590.00,1.03
8589.00,1.03
8588.00,1.02
8587.00,1.01
8586.00,1.01
8585.00,1.00
8584.00,1.00
8583.00,1.00
8582.00,1.00
8581.00,1.00
8580.00,1.00
8579.00,1.00
8578.00,1.00
8577.00,1.00
8576.00,1.00
8575.00,1.01
8574.00,1.01
8573.00,1.02
8572.00,1.02
8571.00,1.03
8570.00,1.03
8569.00,1.04
8568.00,1.04
8567.00,1.05
8566.00,1.05
8565.00,1.06
8564.00,1.06
8563.00,1.07
8562.00,1.07
8561.00,1.08
8560.00,1.09
8559.00,1.10
8558.00,1.11
8557.00,1.11
8556.00,1.12
8555.00,1.13
8554.00,1.13
8553.00,1.14
8552.00,1.14
8551.00,1.15
8550.00,1.16
8549.00,1.16
8548.00,1.17
8547.00,1.18
8546.00,1.19
8545.00,1.20
8544.00,1.21
8543.00,1.22
8542.00,1.24
8541.00,1.25
8540.00,1.26
8539.00,1.27
8538.00,1.28
8537.00,1.29
8536.00,1.30
8535.00,1.30
8534.00,1.31
8533.00,1.31
8532.00,1.31
8531.00,1.32
8530.00,1.32
8529.00,1.32
8528.00,1.32
8527.00,1.32
8526.00,1.32
8525.00,1.32
8524.00,1.32
8523.00,1.32
8522.00,1.31
8521.00,1.30
8520.00,1.29
8519.00,1.28
8518.00,1.27
8517.00,1.25
8516.00,1.24
8515.00,1.22
8514.00,1.20
8513.00,1.19
8512.00,1.17
8511.00,1.15
8510.00,1.14
8509.00,1.12
8508.00,1.11
8507.00,1.09
8506.00,1.08
8505.00,1.07
8504.00,1.05
8503.00,1.04
8502.00,1.04
8501.00,1.03
8500.00,1.02
8499.00,1.02
8498.00,1.02
8497.00,1.02
8496.00,1.03
8495.00,1.04
8494.00,1.04
8493.00,1.05
8492.00,1.07
8491.00,1.08
8490.00,1.10
8489.00,1.11
8488.00,1.13
8487.00,1.15
8486.00,1.17
8485.00,1.18
8484.00,1.20
8483.00,1.22
8482.00,1.24
8481.00,1.26
8480.00,1.28
8479.00,1.30
8478.00,1.32
8477.00,1.34
8476.00,1.35
8475.00,1.37
8474.00,1.38
8473.00,1.39
8472.00,1.40
8471.00,1.40
8470.00,1.40
8469.00,1.41
8468.00,1.41
8467.00,1.41
8466.00,1.41
8465.00,1.40
8464.00,1.40
8463.00,1.40
8462.00,1.40
8461.00,1.40
8460.00,1.39
8459.00,1.39
8458.00,1.38
8457.00,1.38
8456.00,1.37
8455.00,1.36
8454.00,1.36
8453.00,1.35
8452.00,1.35
8451.00,1.34
8450.00,1.34
8449.00,1.33
8448.00,1.33
8447.00,1.33
8446.00,1.33
8445.00,1.33
8444.00,1.34
8443.00,1.34
8442.00,1.35
8441.00,1.35
8440.00,1.36
8439.00,1.36
8438.00,1.37
8437.00,1.37
8436.00,1.38
8435.00,1.38
8434.00,1.38
8433.00,1.38
8432.00,1.39
8431.00,1.39
8430.00,1.39
8429.00,1.40
8428.00,1.40
8427.00,1.40
8426.00,1.40
8425.00,1.40
8424.00,1.40
8423.00,1.39
8422.00,1.39
8421.00,1.38
8420.00,1.37
8419.00,1.36
8418.00,1.35
8417.00,1.34
8416.00,1.33
8415.00,1.32
8414.00,1.31
8413.00,1.30
8412.00,1.29
8411.00,1.28
8410.00,1.27
8409.00,1.26
8408.00,1.26
8407.00,1.25
8406.00,1.24
8405.00,1.23
8404.00,1.23
8403.00,1.22
8402.00,1.22
8401.00,1.21
8400.00,1.21
8399.00,1.21
8398.00,1.21
8397.00,1.21
8396.00,1.22
8395.00,1.22
8394.00,1.23
8393.00,1.24
8392.00,1.25
8391.00,1.26
8390.00,1.27
8389.00,1.28
8388.00,1.29
8387.00,1.30
8386.00,1.30
8385.00,1.31
8384.00,1.32
8383.00,1.32
8382.00,1.33
8381.00,1.33
8380.00,1.34
8379.00,1.35
8378.00,1.35
8377.00,1.36
8376.00,1.36
8375.00,1.36
8374.00,1.37
8373.00,1.37
8372.00,1.37
8371.00,1.37
8370.00,1.36
8369.00,1.36
8368.00,1.35
8367.00,1.34
8366.00,1.34
8365.00,1.33
8364.00,1.32
8363.00,1.31
8362.00,1.30
8361.00,1.29
8360.00,1.28
8359.00,1.27
8358.00,1.26
8357.00,1.25
8356.00,1.24
8355.00,1.23
8354.00,1.22
8353.00,1.22
8352.00,1.21
8351.00,1.20
8350.00,1.19
8349.00,1.18
8348.00,1.17
8347.00,1.17
8346.00,1.16
8345.00,1.16
8344.00,1.16
8343.00,1.15
8342.00,1.15
8341.00,1.15
8340.00,1.15
8339.00,1.15
8338.00,1.14
8337.00,1.14
8336.00,1.14
8335.00,1.14
8334.00,1.14
8333.00,1.15
8332.00,1.15
8331.00,1.15
8330.00,1.16
8329.00,1.16
8328.00,1.17
8327.00,1.17
8326.00,1.18
8325.00,1.18
8324.00,1.18
8323.00,1.18
8322.00,1.18
8321.00,1.18
8320.00,1.18
8319.00,1.17
8318.00,1.17
8317.00,1.16
8316.00,1.16
8315.00,1.16
8314.00,1.16
8313.00,1.17
8312.00,1.18
8311.00,1.19
8310.00,1.20
8309.00,1.21
8308.00,1.22
8307.00,1.24
8306.00,1.25
8305.00,1.27
8304.00,1.28
8303.00,1.30
8302.00,1.31
8301.00,1.32
8300.00,1.34
8299.00,1.36
8298.00,1.37
8297.00,1.39
8296.00,1.41
8295.00,1.43
8294.00,1.45
8293.00,1.48
8292.00,1.50
8291.00,1.53
8290.00,1.55
8289.00,1.57
8288.00,1.59
8287.00,1.60
8286.00,1.62
8285.00,1.63
8284.00,1.63
8283.00,1.64
8282.00,1.64
8281.00,1.65
8280.00,1.65
8279.00,1.65
8278.00,1.64
8277.00,1.64
8276.00,1.64
8275.00,1.63
8274.00,1.63
8273.00,1.63
8272.00,1.62
8271.00,1.62
8270.00,1.62
8269.00,1.61
8268.00,1.61
8267.00,1.60
8266.00,1.60
8265.00,1.59
8264.00,1.58
8263.00,1.58
8262.00,1.57
8261.00,1.57
8260.00,1.56
8259.00,1.56
8258.00,1.56
8257.00,1.56
8256.00,1.55
8255.00,1.55
8254.00,1.55
8253.00,1.54
8252.00,1.54
8251.00,1.54
8250.00,1.54
8249.00,1.54
8248.00,1.53
8247.00,1.53
8246.00,1.53
8245.00,1.52
8244.00,1.52
8243.00,1.51
8242.00,1.51
8241.00,1.50
8240.00,1.50
8239.00,1.49
8238.00,1.48
8237.00,1.47
8236.00,1.47
8235.00,1.46
8234.00,1.45
8233.00,1.44
8232.00,1.43
8231.00,1.42
8230.00,1.41
8229.00,1.40
8228.00,1.39
8227.00,1.37
8226.00,1.36
8225.00,1.35
8224.00,1.34
8223.00,1.32
8222.00,1.31
8221.00,1.29
8220.00,1.28
8219.00,1.26
8218.00,1.25
8217.00,1.23
8216.00,1.22
8215.00,1.20
8214.00,1.19
8213.00,1.18
8212.00,1.16
8211.00,1.15
8210.00,1.14
8209.00,1.13
8208.00,1.11
8207.00,1.10
8206.00,1.09
8205.00,1.08
8204.00,1.07
8203.00,1.06
8202.00,1.05
8201.00,1.05
8200.00,1.04
8199.00,1.04
8198.00,1.04
8197.00,1.04
8196.00,1.04
8195.00,1.05
8194.00,1.05
8193.00,1.05
8192.00,1.06
8191.00,1.07
8190.00,1.07
8189.00,1.07
8188.00,1.08
8187.00,1.08
8186.00,1.08
8185.00,1.09
8184.00,1.09
8183.00,1.10
8182.00,1.10
8181.00,1.11
8180.00,1.12
8179.00,1.12
8178.00,1.13
8177.00,1.14
8176.00,1.15
8175.00,1.15
8174.00,1.16
8173.00,1.16
8172.00,1.16
8171.00,1.16
8170.00,1.16
8169.00,1.15
8168.00,1.15
8167.00,1.14
8166.00,1.13
8165.00,1.12
8164.00,1.12
8163.00,1.11
8162.00,1.11
8161.00,1.10
8160.00,1.10
8159.00,1.09
8158.00,1.09
8157.00,1.08
8156.00,1.07
8155.00,1.07
8154.00,1.06
8153.00,1.05
8152.00,1.04
8151.00,1.03
8150.00,1.02
8149.00,1.02
8148.00,1.01
8147.00,1.01
8146.00,1.01
8145.00,1.01
8144.00,1.02
8143.00,1.03
8142.00,1.04
8141.00,1.05
8140.00,1.07
8139.00,1.08
8138.00,1.10
8137.00,1.11
8136.00,1.13
8135.00,1.15
8134.00,1.16
8133.00,1.18
8132.00,1.20
8131.00,1.23
8130.00,1.25
8129.00,1.27
8128.00,1.30
8127.00,1.32
8126.00,1.34
8125.00,1.36
8124.00,1.38
8123.00,1.39
8122.00,1.41
8121.00,1.42
8120.00,1.43
8119.00,1.43
8118.00,1.44
8117.00,1.44
8116.00,1.44
8115.00,1.43
8114.00,1.43
8113.00,1.42
8112.00,1.41
8111.00,1.40
8110.00,1.39
8109.00,1.38
8108.00,1.37
8107.00,1.36
8106.00,1.34
8105.00,1.33
8104.00,1.31
8103.00,1.29
8102.00,1.28
8101.00,1.26
8100.00,1.24
8099.00,1.23
8098.00,1.22
8097.00,1.21
8096.00,1.20
8095.00,1.20
8094.00,1.19
8093.00,1.19
8092.00,1.19
8091.00,1.20
8090.00,1.20
8089.00,1.21
8088.00,1.22
8087.00,1.23
8086.00,1.24
8085.00,1.25
8084.00,1.26
8083.00,1.28
8082.00,1.30
8081.00,1.31
8080.00,1.33
8079.00,1.35
8078.00,1.37
8077.00,1.38
8076.00,1.40
8075.00,1.42
8074.00,1.44
8073.00,1.45
8072.00,1.47
8071.00,1.48
8070.00,1.50
8069.00,1.51
8068.00,1.52
8067.00,1.53
8066.00,1.54
8065.00,1.55
8064.00,1.55
8063.00,1.56
8062.00,1.56
8061.00,1.56
8060.00,1.56
8059.00,1.55
8058.00,1.54
8057.00,1.53
8056.00,1.52
8055.00,1.51
8054.00,1.49
8053.00,1.48
8052.00,1.46
8051.00,1.44
8050.00,1.43
8049.00,1.41
8048.00,1.39
8047.00,1.38
8046.00,1.37
8045.00,1.36
8044.00,1.34
8043.00,1.33
8042.00,1.32
8041.00,1.31
8040.00,1.30
8039.00,1.29
8038.00,1.28
8037.00,1.27
8036.00,1.27
8035.00,1.26
8034.00,1.26
8033.00,1.26
8032.00,1.26
8031.00,1.27
8030.00,1.28
8029.00,1.29
8028.00,1.30
8027.00,1.31
8026.00,1.32
8025.00,1.33
8024.00,1.34
8023.00,1.36
8022.00,1.37
8021.00,1.37
8020.00,1.38
8019.00,1.39
8018.00,1.40
8017.00,1.40
8016.00,1.41
8015.00,1.41
8014.00,1.42
8013.00,1.42
8012.00,1.43
8011.00,1.43
8010.00,1.44
8009.00,1.44
8008.00,1.44
8007.00,1.44
8006.00,1.44
8005.00,1.44
8004.00,1.44
8003.00,1.43
8002.00,1.43
8001.00,1.43
8000.00,1.42
7999.00,1.42
7998.00,1.41
7997.00,1.41
7996.00,1.40
7995.00,1.40
7994.00,1.40
7993.00,1.39
7992.00,1.39
7991.00,1.39
7990.00,1.38
7989.00,1.38
7988.00,1.38
7987.00,1.37
7986.00,1.37
7985.00,1.37
7984.00,1.37
7983.00,1.37
7982.00,1.37
7981.00,1.37
7980.00,1.37
7979.00,1.37
7978.00,1.38
7977.00,1.38
7976.00,1.38
7975.00,1.38
7974.00,1.38
7973.00,1.38
7972.00,1.38
7971.00,1.38
7970.00,1.38
7969.00,1.38
7968.00,1.37
7967.00,1.37
7966.00,1.37
7965.00,1.37
7964.00,1.36
7963.00,1.36
7962.00,1.36
7961.00,1.35
7960.00,1.34
7959.00,1.34
7958.00,1.33
7957.00,1.32
7956.00,1.31
7955.00,1.29
7954.00,1.28
7953.00,1.27
7952.00,1.26
7951.00,1.25
7950.00,1.24
7949.00,1.23
7948.00,1.22
7947.00,1.21
7946.00,1.20
7945.00,1.20
7944.00,1.19
7943.00,1.19
7942.00,1.19
7941.00,1.19
7940.00,1.19
7939.00,1.19
7938.00,1.20
7937.00,1.21
7936.00,1.22
7935.00,1.23
7934.00,1.24
7933.00,1.25
7932.00,1.26
7931.00,1.28
7930.00,1.30
7929.00,1.31
7928.00,1.33
7927.00,1.35
7926.00,1.37
7925.00,1.39
7924.00,1.40
7923.00,1.42
7922.00,1.44
7921.00,1.45
7920.00,1.47
7919.00,1.49
7918.00,1.50
7917.00,1.52
7916.00,1.53
7915.00,1.54
7914.00,1.56
7913.00,1.57
7912.00,1.58
7911.00,1.59
7910.00,1.60
7909.00,1.60
7908.00,1.61
7907.00,1.61
7906.00,1.62
7905.00,1.61
7904.00,1.61
7903.00,1.61
7902.00,1.60
7901.00,1.60
7900.00,1.59
7899.00,1.59
7898.00,1.58
7897.00,1.58
7896.00,1.57
7895.00,1.57
7894.00,1.57
7893.00,1.56
7892.00,1.56
7891.00,1.55
7890.00,1.55
7889.00,1.54
7888.00,1.53
7887.00,1.52
7886.00,1.51
7885.00,1.50
7884.00,1.49
7883.00,1.48
7882.00,1.47
7881.00,1.46
7880.00,1.45
7879.00,1.44
7878.00,1.43
7877.00,1.43
7876.00,1.42
7875.00,1.42
7874.00,1.42
7873.00,1.42
7872.00,1.41
7871.00,1.41
7870.00,1.41
7869.00,1.40
7868.00,1.39
7867.00,1.39
7866.00,1.38
7865.00,1.37
7864.00,1.37
7863.00,1.37
7862.00,1.36
7861.00,1.36
7860.00,1.36
7859.00,1.37
7858.00,1.37
7857.00,1.37
7856.00,1.38
7855.00,1.38
7854.00,1.39
7853.00,1.39
7852.00,1.40
7851.00,1.40
7850.00,1.41
7849.00,1.41
7848.00,1.42
7847.00,1.42
7846.00,1.43
7845.00,1.43
7844.00,1.44
7843.00,1.44
7842.00,1.45
7841.00,1.46
7840.00,1.47
7839.00,1.47
7838.00,1.48
7837.00,1.48
7836.00,1.49
7835.00,1.49
7834.00,1.49
7833.00,1.50
7832.00,1.50
7831.00,1.50
7830.00,1.51
7829.00,1.51
7828.00,1.52
7827.00,1.52
7826.00,1.52
7825.00,1.52
7824.00,1.53
7823.00,1.53
7822.00,1.53
7821.00,1.53
7820.00,1.53
7819.00,1.53
7818.00,1.53
7817.00,1.53
7816.00,1.53
7815.00,1.53
7814.00,1.54
7813.00,1.54
7812.00,1.54
7811.00,1.54
7810.00,1.54
7809.00,1.54
7808.00,1.54
7807.00,1.53
7806.00,1.53
7805.00,1.52
7804.00,1.51
7803.00,1.50
7802.00,1.49
7801.00,1.48
7800.00,1.47
7799.00,1.46
7798.00,1.45
7797.00,1.44
7796.00,1.43
7795.00,1.42
7794.00,1.41
7793.00,1.40
7792.00,1.40
7791.00,1.39
7790.00,1.39
7789.00,1.38
7788.00,1.37
7787.00,1.36
7786.00,1.36
7785.00,1.35
7784.00,1.35
7783.00,1.34
7782.00,1.34
7781.00,1.34
7780.00,1.34
7779.00,1.35
7778.00,1.36
7777.00,1.36
7776.00,1.37
7775.00,1.38
7774.00,1.39
7773.00,1.40
7772.00,1.41
7771.00,1.42
7770.00,1.43
7769.00,1.43
7768.00,1.44
7767.00,1.44
7766.00,1.44
7765.00,1.45
7764.00,1.45
7763.00,1.45
7762.00,1.45
7761.00,1.45
7760.00,1.45
7759.00,1.45
7758.00,1.45
7757.00,1.45
7756.00,1.45
7755.00,1.45
7754.00,1.44
7753.00,1.44
7752.00,1.43
7751.00,1.42
7750.00,1.42
7749.00,1.41
7748.00,1.40
7747.00,1.39
7746.00,1.37
7745.00,1.36
7744.00,1.35
7743.00,1.34
7742.00,1.33
7741.00,1.32
7740.00,1.32
7739.00,1.31
7738.00,1.30
7737.00,1.30
7736.00,1.30
7735.00,1.29
7734.00,1.29
7733.00,1.28
7732.00,1.27
7731.00,1.27
7730.00,1.26
7729.00,1.26
7728.00,1.25
7727.00,1.25
7726.00,1.25
7725.00,1.24
7724.00,1.25
7723.00,1.25
7722.00,1.25
7721.00,1.26
7720.00,1.26
7719.00,1.27
7718.00,1.28
7717.00,1.28
7716.00,1.28
7715.00,1.29
7714.00,1.29
7713.00,1.29
7712.00,1.29
7711.00,1.29
7710.00,1.29
7709.00,1.29
7708.00,1.29
7707.00,1.29
7706.00,1.29
7705.00,1.30
7704.00,1.30
7703.00,1.30
7702.00,1.31
7701.00,1.31
7700.00,1.31
7699.00,1.32
7698.00,1.32
7697.00,1.32
7696.00,1.32
7695.00,1.32
7694.00,1.31
7693.00,1.31
7692.00,1.31
7691.00,1.31
7690.00,1.31
7689.00,1.31
7688.00,1.31
7687.00,1.31
7686.00,1.32
7685.00,1.32
7684.00,1.33
7683.00,1.33
7682.00,1.34
7681.00,1.34
7680.00,1.35
7679.00,1.35
7678.00,1.35
7677.00,1.35
7676.00,1.36
7675.00,1.36
7674.00,1.36
7673.00,1.36
7672.00,1.36
7671.00,1.36
7670.00,1.37
7669.00,1.37
7668.00,1.37
7667.00,1.38
7666.00,1.38
7665.00,1.39
7664.00,1.39
7663.00,1.40
7662.00,1.40
7661.00,1.41
7660.00,1.41
7659.00,1.41
7658.00,1.41
7657.00,1.42
7656.00,1.42
7655.00,1.41
7654.00,1.41
7653.00,1.41
7652.00,1.41
7651.00,1.41
7650.00,1.40
7649.00,1.40
7648.00,1.39
7647.00,1.39
7646.00,1.38
7645.00,1.37
7644.00,1.37
7643.00,1.36
7642.00,1.35
7641.00,1.34
7640.00,1.33
7639.00,1.32
7638.00,1.31
7637.00,1.30
7636.00,1.28
7635.00,1.27
7634.00,1.25
7633.00,1.24
7632.00,1.22
7631.00,1.21
7630.00,1.20
7629.00,1.19
7628.00,1.18
7627.00,1.17
7626.00,1.17
7625.00,1.16
7624.00,1.16
7623.00,1.16
7622.00,1.16
7621.00,1.16
7620.00,1.16
7619.00,1.17
7618.00,1.17
7617.00,1.18
7616.00,1.19
7615.00,1.19
7614.00,1.20
7613.00,1.21
7612.00,1.22
7611.00,1.23
7610.00,1.24
7609.00,1.25
7608.00,1.26
7607.00,1.28
7606.00,1.29
7605.00,1.31
7604.00,1.32
7603.00,1.34
7602.00,1.35
7601.00,1.37
7600.00,1.38
7599.00,1.39
7598.00,1.40
7597.00,1.40
7596.00,1.41
7595.00,1.41
7594.00,1.41
7593.00,1.41
7592.00,1.41
7591.00,1.42
7590.00,1.42
7589.00,1.42
7588.00,1.42
7587.00,1.42
7586.00,1.42
7585.00,1.42
7584.00,1.41
7583.00,1.41
7582.00,1.41
7581.00,1.41
7580.00,1.41
7579.00,1.40
7578.00,1.40
7577.00,1.39
7576.00,1.39
7575.00,1.38
7574.00,1.37
7573.00,1.37
7572.00,1.37
7571.00,1.36
7570.00,1.36
7569.00,1.36
7568.00,1.36
7567.00,1.36
7566.00,1.36
7565.00,1.36
7564.00,1.36
7563.00,1.36
7562.00,1.36
7561.00,1.36
7560.00,1.36
7559.00,1.37
7558.00,1.37
7557.00,1.37
7556.00,1.37
7555.00,1.37
7554.00,1.37
7553.00,1.37
7552.00,1.38
7551.00,1.38
7550.00,1.38
7549.00,1.39
7548.00,1.40
7547.00,1.40
7546.00,1.41
7545.00,1.41
7544.00,1.42
7543.00,1.42
7542.00,1.43
7541.00,1.43
7540.00,1.44
7539.00,1.44
7538.00,1.44
7537.00,1.45
7536.00,1.45
7535.00,1.46
7534.00,1.46
7533.00,1.46
7532.00,1.47
7531.00,1.47
7530.00,1.47
7529.00,1.47
7528.00,1.47
7527.00,1.47
7526.00,1.47
7525.00,1.46
7524.00,1.46
7523.00,1.46
7522.00,1.45
7521.00,1.45
7520.00,1.45
7519.00,1.44
7518.00,1.44
7517.00,1.44
7516.00,1.44
7515.00,1.43
7514.00,1.43
7513.00,1.43
7512.00,1.43
7511.00,1.43
7510.00,1.43
7509.00,1.42
7508.00,1.42
7507.00,1.42
7506.00,1.42
7505.00,1.42
7504.00,1.41
7503.00,1.41
7502.00,1.41
7501.00,1.42
7500.00,1.42
7499.00,1.42
7498.00,1.42
7497.00,1.42
7496.00,1.42
7495.00,1.43
7494.00,1.43
7493.00,1.43
7492.00,1.44
7491.00,1.44
7490.00,1.44
7489.00,1.44
7488.00,1.44
7487.00,1.44
7486.00,1.44
7485.00,1.44
7484.00,1.44
7483.00,1.44
7482.00,1.44
7481.00,1.44
7480.00,1.44
7479.00,1.44
7478.00,1.43
7477.00,1.43
7476.00,1.43
7475.00,1.43
7474.00,1.43
7473.00,1.43
7472.00,1.43
7471.00,1.42
7470.00,1.42
7469.00,1.42
7468.00,1.41
7467.00,1.41
7466.00,1.40
7465.00,1.40
7464.00,1.40
7463.00,1.39
7462.00,1.39
7461.00,1.39
7460.00,1.38
7459.00,1.38
7458.00,1.38
7457.00,1.38
7456.00,1.37
7455.00,1.37
7454.00,1.37
7453.00,1.37
7452.00,1.37
7451.00,1.37
7450.00,1.37
7449.00,1.37
7448.00,1.38
7447.00,1.38
7446.00,1.39
7445.00,1.39
7444.00,1.40
7443.00,1.41
7442.00,1.42
7441.00,1.43
7440.00,1.44
7439.00,1.44
7438.00,1.45
7437.00,1.46
7436.00,1.46
7435.00,1.47
7434.00,1.47
7433.00,1.47
7432.00,1.48
7431.00,1.48
7430.00,1.49
7429.00,1.49
7428.00,1.49
7427.00,1.50
7426.00,1.50
7425.00,1.50
7424.00,1.50
7423.00,1.50
7422.00,1.50
7421.00,1.49
7420.00,1.49
7419.00,1.48
7418.00,1.47
7417.00,1.46
7416.00,1.45
7415.00,1.44
7414.00,1.43
7413.00,1.42
7412.00,1.41
7411.00,1.40
7410.00,1.40
7409.00,1.39
7408.00,1.39
7407.00,1.38
7406.00,1.38
7405.00,1.38
7404.00,1.38
7403.00,1.38
7402.00,1.39
7401.00,1.39
7400.00,1.39
7399.00,1.40
7398.00,1.40
7397.00,1.41
7396.00,1.42
7395.00,1.43
7394.00,1.44
7393.00,1.45
7392.00,1.46
7391.00,1.47
7390.00,1.49
7389.00,1.50
7388.00,1.52
7387.00,1.53
7386.00,1.55
7385.00,1.56
7384.00,1.58
7383.00,1.59
7382.00,1.61
7381.00,1.62
7380.00,1.63
7379.00,1.63
7378.00,1.64
7377.00,1.64
7376.00,1.64
7375.00,1.64
7374.00,1.64
7373.00,1.64
7372.00,1.64
7371.00,1.63
7370.00,1.63
7369.00,1.63
7368.00,1.63
7367.00,1.62
7366.00,1.62
7365.00,1.62
7364.00,1.62
7363.00,1.61
7362.00,1.61
7361.00,1.60
7360.00,1.59
7359.00,1.59
7358.00,1.58
7357.00,1.57
7356.00,1.56
7355.00,1.55
7354.00,1.55
7353.00,1.55
7352.00,1.54
7351.00,1.54
7350.00,1.54
7349.00,1.55
7348.00,1.55
7347.00,1.55
7346.00,1.56
7345.00,1.56
7344.00,1.56
7343.00,1.56
7342.00,1.56
7341.00,1.56
7340.00,1.56
7339.00,1.55
7338.00,1.55
7337.00,1.54
7336.00,1.54
7335.00,1.53
7334.00,1.52
7333.00,1.52
7332.00,1.51
7331.00,1.50
7330.00,1.49
7329.00,1.48
7328.00,1.47
7327.00,1.46
7326.00,1.45
7325.00,1.44
7324.00,1.43
7323.00,1.42
7322.00,1.40
7321.00,1.39
7320.00,1.38
7319.00,1.37
7318.00,1.36
7317.00,1.35
7316.00,1.34
7315.00,1.33
7314.00,1.32
7313.00,1.32
7312.00,1.32
7311.00,1.32
7310.00,1.32
7309.00,1.32
7308.00,1.32
7307.00,1.32
7306.00,1.33
7305.00,1.33
7304.00,1.34
7303.00,1.35
7302.00,1.36
7301.00,1.36
7300.00,1.37
7299.00,1.38
7298.00,1.39
7297.00,1.39
7296.00,1.40
7295.00,1.41
7294.00,1.41
7293.00,1.42
7292.00,1.43
7291.00,1.43
7290.00,1.44
7289.00,1.44
7288.00,1.45
7287.00,1.45
7286.00,1.45
7285.00,1.46
7284.00,1.46
7283.00,1.47
7282.00,1.47
7281.00,1.47
7280.00,1.47
7279.00,1.47
7278.00,1.48
7277.00,1.48
7276.00,1.48
7275.00,1.48
7274.00,1.48
7273.00,1.48
7272.00,1.48
7271.00,1.48
7270.00,1.48
7269.00,1.49
7268.00,1.49
7267.00,1.49
7266.00,1.50
7265.00,1.50
7264.00,1.51
7263.00,1.51
7262.00,1.52
7261.00,1.52
7260.00,1.52
7259.00,1.53
7258.00,1.53
7257.00,1.53
7256.00,1.54
7255.00,1.54
7254.00,1.54
7253.00,1.55
7252.00,1.55
7251.00,1.55
7250.00,1.56
7249.00,1.56
7248.00,1.56
7247.00,1.57
7246.00,1.57
7245.00,1.58
7244.00,1.58
7243.00,1.59
7242.00,1.59
7241.00,1.59
7240.00,1.60
7239.00,1.60
7238.00,1.60
7237.00,1.60
7236.00,1.60
7235.00,1.60
7234.00,1.60
7233.00,1.60
7232.00,1.60
7231.00,1.59
7230.00,1.59
7229.00,1.59
7228.00,1.59
7227.00,1.58
7226.00,1.58
7225.00,1.58
7224.00,1.58
7223.00,1.58
7222.00,1.58
7221.00,1.58
7220.00,1.57
7219.00,1.57
7218.00,1.57
7217.00,1.57
7216.00,1.56
7215.00,1.56
7214.00,1.56
7213.00,1.55
7212.00,1.55
7211.00,1.55
7210.00,1.55
7209.00,1.55
7208.00,1.54
7207.00,1.54
7206.00,1.54
7205.00,1.54
7204.00,1.54
7203.00,1.55
7202.00,1.55
7201.00,1.55
7200.00,1.55
7199.00,1.55
7198.00,1.55
7197.00,1.54
7196.00,1.54
7195.00,1.54
7194.00,1.53
7193.00,1.53
7192.00,1.52
7191.00,1.52
7190.00,1.52
7189.00,1.51
7188.00,1.51
7187.00,1.51
7186.00,1.50
7185.00,1.50
7184.00,1.50
7183.00,1.50
7182.00,1.50
7181.00,1.50
7180.00,1.50
7179.00,1.50
7178.00,1.50
7177.00,1.50
7176.00,1.50
7175.00,1.50
7174.00,1.50
7173.00,1.51
7172.00,1.51
7171.00,1.51
7170.00,1.52
7169.00,1.52
7168.00,1.52
7167.00,1.53
7166.00,1.53
7165.00,1.53
7164.00,1.54
7163.00,1.54
7162.00,1.54
7161.00,1.55
7160.00,1.55
7159.00,1.56
7158.00,1.57
7157.00,1.57
7156.00,1.57
7155.00,1.58
7154.00,1.58
7153.00,1.58
7152.00,1.58
7151.00,1.58
7150.00,1.58
7149.00,1.58
7148.00,1.57
7147.00,1.57
7146.00,1.57
7145.00,1.57
7144.00,1.56
7143.00,1.56
7142.00,1.56
7141.00,1.56
7140.00,1.55
7139.00,1.55
7138.00,1.55
7137.00,1.54
7136.00,1.54
7135.00,1.53
7134.00,1.52
7133.00,1.51
7132.00,1.50
7131.00,1.49
7130.00,1.48
7129.00,1.47
7128.00,1.46
7127.00,1.44
7126.00,1.43
7125.00,1.41
7124.00,1.40
7123.00,1.39
7122.00,1.37
7121.00,1.36
7120.00,1.35
7119.00,1.33
7118.00,1.32
7117.00,1.30
7116.00,1.29
7115.00,1.28
7114.00,1.26
7113.00,1.25
7112.00,1.24
7111.00,1.23
7110.00,1.22
7109.00,1.21
7108.00,1.20
7107.00,1.19
7106.00,1.19
7105.00,1.19
7104.00,1.18
7103.00,1.18
7102.00,1.19
7101.00,1.19
7100.00,1.19
7099.00,1.20
7098.00,1.20
7097.00,1.21
7096.00,1.22
7095.00,1.22
7094.00,1.23
7093.00,1.24
7092.00,1.24
7091.00,1.25
7090.00,1.26
7089.00,1.26
7088.00,1.27
7087.00,1.28
7086.00,1.28
7085.00,1.29
7084.00,1.30
7083.00,1.31
7082.00,1.32
7081.00,1.33
7080.00,1.34
7079.00,1.34
7078.00,1.35
7077.00,1.36
7076.00,1.37
7075.00,1.38
7074.00,1.39
7073.00,1.39
7072.00,1.40
7071.00,1.41
7070.00,1.41
7069.00,1.42
7068.00,1.42
7067.00,1.43
7066.00,1.44
7065.00,1.44
7064.00,1.45
7063.00,1.45
7062.00,1.46
7061.00,1.46
7060.00,1.46
7059.00,1.46
7058.00,1.46
7057.00,1.46
7056.00,1.46
7055.00,1.46
7054.00,1.46
7053.00,1.45
7052.00,1.45
7051.00,1.44
7050.00,1.44
7049.00,1.43
7048.00,1.42
7047.00,1.42
7046.00,1.41
7045.00,1.40
7044.00,1.40
7043.00,1.39
7042.00,1.39
7041.00,1.39
7040.00,1.39
7039.00,1.38
7038.00,1.38
7037.00,1.39
7036.00,1.39
7035.00,1.39
7034.00,1.40
7033.00,1.40
7032.00,1.41
7031.00,1.41
7030.00,1.42
7029.00,1.42
7028.00,1.43
7027.00,1.43
7026.00,1.44
7025.00,1.44
7024.00,1.45
7023.00,1.45
7022.00,1.46
7021.00,1.46
7020.00,1.47
7019.00,1.47
7018.00,1.47
7017.00,1.48
7016.00,1.48
7015.00,1.49
7014.00,1.49
7013.00,1.49
7012.00,1.49
7011.00,1.49
7010.00,1.49
7009.00,1.48
7008.00,1.48
7007.00,1.47
7006.00,1.46
7005.00,1.45
7004.00,1.45
7003.00,1.44
7002.00,1.43
7001.00,1.43
7000.00,1.42
6999.00,1.42
6998.00,1.42
6997.00,1.41
6996.00,1.41
6995.00,1.41
6994.00,1.41
6993.00,1.40
6992.00,1.40
6991.00,1.40
6990.00,1.40
6989.00,1.39
6988.00,1.39
6987.00,1.39
6986.00,1.38
6985.00,1.38
6984.00,1.38
6983.00,1.38
6982.00,1.38
6981.00,1.38
6980.00,1.39
6979.00,1.39
6978.00,1.39
6977.00,1.40
6976.00,1.40
6975.00,1.41
6974.00,1.41
6973.00,1.41
6972.00,1.42
6971.00,1.42
6970.00,1.43
6969.00,1.43
6968.00,1.43
6967.00,1.44
6966.00,1.44
6965.00,1.44
6964.00,1.44
6963.00,1.45
6962.00,1.45
6961.00,1.45
6960.00,1.45
6959.00,1.45
6958.00,1.45
6957.00,1.45
6956.00,1.45
6955.00,1.45
6954.00,1.45
6953.00,1.45
6952.00,1.45
6951.00,1.45
6950.00,1.44
6949.00,1.44
6948.00,1.44
6947.00,1.44
6946.00,1.43
6945.00,1.43
6944.00,1.43
6943.00,1.42
6942.00,1.42
6941.00,1.41
6940.00,1.41
6939.00,1.41
6938.00,1.40
6937.00,1.40
6936.00,1.39
6935.00,1.39
6934.00,1.39
6933.00,1.39
6932.00,1.38
6931.00,1.38
6930.00,1.38
6929.00,1.38
6928.00,1.38
6927.00,1.37
6926.00,1.37
6925.00,1.36
6924.00,1.36
6923.00,1.35
6922.00,1.35
6921.00,1.35
6920.00,1.34
6919.00,1.34
6918.00,1.34
6917.00,1.33
6916.00,1.33
6915.00,1.33
6914.00,1.33
6913.00,1.33
6912.00,1.34
6911.00,1.34
6910.00,1.35
6909.00,1.35
6908.00,1.36
6907.00,1.36
6906.00,1.37
6905.00,1.37
6904.00,1.38
6903.00,1.38
6902.00,1.39
6901.00,1.39
6900.00,1.39
6899.00,1.40
6898.00,1.40
6897.00,1.41
6896.00,1.41
6895.00,1.42
6894.00,1.42
6893.00,1.42
6892.00,1.43
6891.00,1.43
6890.00,1.43
6889.00,1.43
6888.00,1.42
6887.00,1.42
6886.00,1.41
6885.00,1.40
6884.00,1.39
6883.00,1.38
6882.00,1.36
6881.00,1.35
6880.00,1.34
6879.00,1.33
6878.00,1.32
6877.00,1.31
6876.00,1.30
6875.00,1.29
6874.00,1.28
6873.00,1.28
6872.00,1.27
6871.00,1.26
6870.00,1.26
6869.00,1.25
6868.00,1.25
6867.00,1.24
6866.00,1.24
6865.00,1.23
6864.00,1.23
6863.00,1.23
6862.00,1.24
6861.00,1.24
6860.00,1.25
6859.00,1.25
6858.00,1.26
6857.00,1.27
6856.00,1.29
6855.00,1.30
6854.00,1.31
6853.00,1.32
6852.00,1.33
6851.00,1.34
6850.00,1.35
6849.00,1.36
6848.00,1.37
6847.00,1.37
6846.00,1.38
6845.00,1.39
6844.00,1.40
6843.00,1.41
6842.00,1.41
6841.00,1.42
6840.00,1.42
6839.00,1.43
6838.00,1.43
6837.00,1.43
6836.00,1.43
6835.00,1.43
6834.00,1.43
6833.00,1.43
6832.00,1.43
6831.00,1.43
6830.00,1.43
6829.00,1.42
6828.00,1.42
6827.00,1.41
6826.00,1.41
6825.00,1.40
6824.00,1.40
6823.00,1.39
6822.00,1.38
6821.00,1.38
6820.00,1.37
6819.00,1.36
6818.00,1.36
6817.00,1.35
6816.00,1.34
6815.00,1.34
6814.00,1.34
6813.00,1.33
6812.00,1.33
6811.00,1.33
6810.00,1.33
6809.00,1.33
6808.00,1.33
6807.00,1.33
6806.00,1.33
6805.00,1.33
6804.00,1.33
6803.00,1.33
6802.00,1.33
6801.00,1.33
6800.00,1.33
6799.00,1.33
6798.00,1.34
6797.00,1.34
6796.00,1.35
6795.00,1.35
6794.00,1.36
6793.00,1.37
6792.00,1.37
6791.00,1.38
6790.00,1.39
6789.00,1.39
6788.00,1.40
6787.00,1.41
6786.00,1.41
6785.00,1.42
6784.00,1.42
6783.00,1.43
6782.00,1.43
6781.00,1.43
6780.00,1.44
6779.00,1.44
6778.00,1.45
6777.00,1.45
6776.00,1.46
6775.00,1.46
6774.00,1.47
6773.00,1.47
6772.00,1.48
6771.00,1.49
6770.00,1.49
6769.00,1.50
6768.00,1.51
6767.00,1.51
6766.00,1.52
6765.00,1.52
6764.00,1.53
6763.00,1.54
6762.00,1.54
6761.00,1.54
6760.00,1.55
6759.00,1.55
6758.00,1.56
6757.00,1.57
6756.00,1.57
6755.00,1.58
6754.00,1.58
6753.00,1.59
6752.00,1.60
6751.00,1.60
6750.00,1.61
6749.00,1.62
6748.00,1.62
6747.00,1.63
6746.00,1.63
6745.00,1.63
6744.00,1.63
6743.00,1.63
6742.00,1.63
6741.00,1.62
6740.00,1.62
6739.00,1.62
6738.00,1.61
6737.00,1.61
6736.00,1.61
6735.00,1.60
6734.00,1.60
6733.00,1.59
6732.00,1.59
6731.00,1.59
6730.00,1.58
6729.00,1.58
6728.00,1.57
6727.00,1.57
6726.00,1.56
6725.00,1.56
6724.00,1.55
6723.00,1.54
6722.00,1.54
6721.00,1.53
6720.00,1.52
6719.00,1.52
6718.00,1.51
6717.00,1.51
6716.00,1.51
6715.00,1.50
6714.00,1.50
6713.00,1.50
6712.00,1.50
6711.00,1.50
6710.00,1.50
6709.00,1.51
6708.00,1.51
6707.00,1.51
6706.00,1.51
6705.00,1.51
6704.00,1.51
6703.00,1.51
6702.00,1.51
6701.00,1.51
6700.00,1.51
6699.00,1.51
6698.00,1.51
6697.00,1.52
6696.00,1.52
6695.00,1.52
6694.00,1.52
6693.00,1.53
6692.00,1.53
6691.00,1.53
6690.00,1.53
6689.00,1.54
6688.00,1.54
6687.00,1.54
6686.00,1.54
6685.00,1.54
6684.00,1.54
6683.00,1.54
6682.00,1.54
6681.00,1.54
6680.00,1.54
6679.00,1.55
6678.00,1.55
6677.00,1.55
6676.00,1.55
6675.00,1.56
6674.00,1.56
6673.00,1.56
6672.00,1.56
6671.00,1.57
6670.00,1.57
6669.00,1.57
6668.00,1.58
6667.00,1.58
6666.00,1.58
6665.00,1.58
6664.00,1.58
6663.00,1.59
6662.00,1.59
6661.00,1.59
6660.00,1.59
6659.00,1.59
6658.00,1.59
6657.00,1.59
6656.00,1.59
6655.00,1.59
6654.00,1.59
6653.00,1.59
6652.00,1.59
6651.00,1.59
6650.00,1.59
6649.00,1.58
6648.00,1.58
6647.00,1.58
6646.00,1.58
6645.00,1.58
6644.00,1.57
6643.00,1.57
6642.00,1.57
6641.00,1.56
6640.00,1.56
6639.00,1.56
6638.00,1.55
6637.00,1.55
6636.00,1.55
6635.00,1.55
6634.00,1.55
6633.00,1.55
6632.00,1.55
6631.00,1.55
6630.00,1.55
6629.00,1.55
6628.00,1.56
6627.00,1.56
6626.00,1.56
6625.00,1.57
6624.00,1.57
6623.00,1.57
6622.00,1.58
6621.00,1.58
6620.00,1.58
6619.00,1.59
6618.00,1.59
6617.00,1.60
6616.00,1.60
6615.00,1.61
6614.00,1.62
6613.00,1.62
6612.00,1.63
6611.00,1.63
6610.00,1.64
6609.00,1.64
6608.00,1.64
6607.00,1.65
6606.00,1.65
6605.00,1.65
6604.00,1.65
6603.00,1.65
6602.00,1.65
6601.00,1.65
6600.00,1.65
6599.00,1.65
6598.00,1.65
6597.00,1.64
6596.00,1.64
6595.00,1.64
6594.00,1.63
6593.00,1.63
6592.00,1.62
6591.00,1.62
6590.00,1.61
6589.00,1.61
6588.00,1.60
6587.00,1.59
6586.00,1.59
6585.00,1.58
6584.00,1.57
6583.00,1.57
6582.00,1.56
6581.00,1.55
6580.00,1.55
6579.00,1.54
6578.00,1.54
6577.00,1.54
6576.00,1.54
6575.00,1.53
6574.00,1.53
6573.00,1.53
6572.00,1.53
6571.00,1.53
6570.00,1.53
6569.00,1.54
6568.00,1.54
6567.00,1.54
6566.00,1.54
6565.00,1.55
6564.00,1.55
6563.00,1.55
6562.00,1.56
6561.00,1.56
6560.00,1.57
6559.00,1.57
6558.00,1.58
6557.00,1.59
6556.00,1.59
6555.00,1.60
6554.00,1.60
6553.00,1.61
6552.00,1.61
6551.00,1.61
6550.00,1.62
6549.00,1.62
6548.00,1.62
6547.00,1.62
6546.00,1.62
6545.00,1.62
6544.00,1.62
6543.00,1.62
6542.00,1.61
6541.00,1.61
6540.00,1.61
6539.00,1.61
6538.00,1.61
6537.00,1.61
6536.00,1.61
6535.00,1.61
6534.00,1.61
6533.00,1.61
6532.00,1.60
6531.00,1.60
6530.00,1.60
6529.00,1.60
6528.00,1.60
6527.00,1.60
6526.00,1.60
6525.00,1.60
6524.00,1.61
6523.00,1.61
6522.00,1.61
6521.00,1.62
6520.00,1.62
6519.00,1.63
6518.00,1.63
6517.00,1.64
6516.00,1.64
6515.00,1.64
6514.00,1.65
6513.00,1.65
6512.00,1.65
6511.00,1.66
6510.00,1.66
6509.00,1.66
6508.00,1.67
6507.00,1.67
6506.00,1.67
6505.00,1.68
6504.00,1.68
6503.00,1.68
6502.00,1.69
6501.00,1.69
6500.00,1.69
6499.00,1.69
6498.00,1.69
6497.00,1.69
6496.00,1.69
6495.00,1.69
6494.00,1.69
6493.00,1.69
6492.00,1.69
6491.00,1.69
6490.00,1.69
6489.00,1.69
6488.00,1.68
6487.00,1.68
6486.00,1.68
6485.00,1.68
6484.00,1.68
6483.00,1.68
6482.00,1.68
6481.00,1.68
6480.00,1.68
6479.00,1.68
6478.00,1.68
6477.00,1.68
6476.00,1.68
6475.00,1.68
6474.00,1.68
6473.00,1.68
6472.00,1.68
6471.00,1.69
6470.00,1.69
6469.00,1.69
6468.00,1.69
6467.00,1.69
6466.00,1.70
6465.00,1.70
6464.00,1.70
6463.00,1.70
6462.00,1.71
6461.00,1.71
6460.00,1.71
6459.00,1.72
6458.00,1.72
6457.00,1.72
6456.00,1.72
6455.00,1.72
6454.00,1.72
6453.00,1.72
6452.00,1.72
6451.00,1.72
6450.00,1.72
6449.00,1.72
6448.00,1.72
6447.00,1.72
6446.00,1.72
6445.00,1.72
6444.00,1.71
6443.00,1.71
6442.00,1.71
6441.00,1.71
6440.00,1.71
6439.00,1.71
6438.00,1.71
6437.00,1.71
6436.00,1.71
6435.00,1.71
6434.00,1.71
6433.00,1.71
6432.00,1.71
6431.00,1.71
6430.00,1.71
6429.00,1.71
6428.00,1.71
6427.00,1.72
6426.00,1.72
6425.00,1.72
6424.00,1.73
6423.00,1.73
6422.00,1.74
6421.00,1.74
6420.00,1.75
6419.00,1.75
6418.00,1.76
6417.00,1.76
6416.00,1.77
6415.00,1.77
6414.00,1.78
6413.00,1.78
6412.00,1.78
6411.00,1.79
6410.00,1.79
6409.00,1.79
6408.00,1.79
6407.00,1.80
6406.00,1.80
6405.00,1.80
6404.00,1.80
6403.00,1.81
6402.00,1.81
6401.00,1.81
6400.00,1.81
6399.00,1.81
6398.00,1.80
6397.00,1.80
6396.00,1.80
6395.00,1.79
6394.00,1.79
6393.00,1.79
6392.00,1.78
6391.00,1.78
6390.00,1.77
6389.00,1.77
6388.00,1.76
6387.00,1.76
6386.00,1.75
6385.00,1.75
6384.00,1.74
6383.00,1.74
6382.00,1.74
6381.00,1.73
6380.00,1.73
6379.00,1.73
6378.00,1.72
6377.00,1.72
6376.00,1.72
6375.00,1.72
6374.00,1.72
6373.00,1.72
6372.00,1.72
6371.00,1.72
6370.00,1.73
6369.00,1.73
6368.00,1.73
6367.00,1.74
6366.00,1.74
6365.00,1.74
6364.00,1.75
6363.00,1.75
6362.00,1.75
6361.00,1.75
6360.00,1.76
6359.00,1.76
6358.00,1.77
6357.00,1.77
6356.00,1.77
6355.00,1.78
6354.00,1.78
6353.00,1.78
6352.00,1.78
6351.00,1.78
6350.00,1.78
6349.00,1.78
6348.00,1.77
6347.00,1.77
6346.00,1.77
6345.00,1.76
6344.00,1.76
6343.00,1.76
6342.00,1.76
6341.00,1.75
6340.00,1.75
6339.00,1.75
6338.00,1.75
6337.00,1.75
6336.00,1.75
6335.00,1.75
6334.00,1.75
6333.00,1.75
6332.00,1.75
6331.00,1.75
6330.00,1.75
6329.00,1.75
6328.00,1.76
6327.00,1.76
6326.00,1.76
6325.00,1.77
6324.00,1.78
6323.00,1.78
6322.00,1.79
6321.00,1.79
6320.00,1.80
6319.00,1.81
6318.00,1.81
6317.00,1.82
6316.00,1.82
6315.00,1.83
6314.00,1.83
6313.00,1.84
6312.00,1.84
6311.00,1.85
6310.00,1.85
6309.00,1.86
6308.00,1.86
6307.00,1.86
6306.00,1.86
6305.00,1.86
6304.00,1.86
6303.00,1.86
6302.00,1.86
6301.00,1.86
6300.00,1.85
6299.00,1.85
6298.00,1.85
6297.00,1.85
6296.00,1.85
6295.00,1.85
6294.00,1.85
6293.00,1.84
6292.00,1.84
6291.00,1.84
6290.00,1.84
6289.00,1.84
6288.00,1.84
6287.00,1.84
6286.00,1.84
6285.00,1.84
6284.00,1.83
6283.00,1.83
6282.00,1.83
6281.00,1.83
6280.00,1.83
6279.00,1.83
6278.00,1.83
6277.00,1.83
6276.00,1.83
6275.00,1.83
6274.00,1.83
6273.00,1.84
6272.00,1.84
6271.00,1.84
6270.00,1.84
6269.00,1.84
6268.00,1.84
6267.00,1.84
6266.00,1.84
6265.00,1.84
6264.00,1.84
6263.00,1.84
6262.00,1.84
6261.00,1.84
6260.00,1.85
6259.00,1.85
6258.00,1.85
6257.00,1.86
6256.00,1.86
6255.00,1.86
6254.00,1.87
6253.00,1.87
6252.00,1.87
6251.00,1.87
6250.00,1.87
6249.00,1.88
6248.00,1.88
6247.00,1.88
6246.00,1.88
6245.00,1.88
6244.00,1.88
6243.00,1.88
6242.00,1.88
6241.00,1.88
6240.00,1.89
6239.00,1.89
6238.00,1.89
6237.00,1.89
6236.00,1.89
6235.00,1.89
6234.00,1.89
6233.00,1.89
6232.00,1.89
6231.00,1.89
6230.00,1.89
6229.00,1.89
6228.00,1.89
6227.00,1.89
6226.00,1.89
6225.00,1.89
6224.00,1.89
6223.00,1.89
6222.00,1.89
6221.00,1.89
6220.00,1.89
6219.00,1.89
6218.00,1.89
6217.00,1.90
6216.00,1.90
6215.00,1.89
6214.00,1.89
6213.00,1.89
6212.00,1.89
6211.00,1.89
6210.00,1.89
6209.00,1.89
6208.00,1.89
6207.00,1.89
6206.00,1.89
6205.00,1.89
6204.00,1.89
6203.00,1.90
6202.00,1.90
6201.00,1.90
6200.00,1.90
6199.00,1.90
6198.00,1.90
6197.00,1.90
6196.00,1.90
6195.00,1.90
6194.00,1.90
6193.00,1.90
6192.00,1.90
6191.00,1.90
6190.00,1.90
6189.00,1.90
6188.00,1.90
6187.00,1.90
6186.00,1.91
6185.00,1.91
6184.00,1.91
6183.00,1.91
6182.00,1.91
6181.00,1.91
6180.00,1.91
6179.00,1.91
6178.00,1.91
6177.00,1.91
6176.00,1.91
6175.00,1.91
6174.00,1.91
6173.00,1.91
6172.00,1.91
6171.00,1.91
6170.00,1.91
6169.00,1.91
6168.00,1.91
6167.00,1.91
6166.00,1.91
6165.00,1.91
6164.00,1.90
6163.00,1.90
6162.00,1.90
6161.00,1.90
6160.00,1.89
6159.00,1.89
6158.00,1.89
6157.00,1.88
6156.00,1.88
6155.00,1.88
6154.00,1.88
6153.00,1.87
6152.00,1.87
6151.00,1.87
6150.00,1.87
6149.00,1.87
6148.00,1.87
6147.00,1.87
6146.00,1.86
6145.00,1.86
6144.00,1.86
6143.00,1.86
6142.00,1.86
6141.00,1.86
6140.00,1.86
6139.00,1.86
6138.00,1.87
6137.00,1.87
6136.00,1.87
6135.00,1.87
6134.00,1.87
6133.00,1.87
6132.00,1.87
6131.00,1.87
6130.00,1.87
6129.00,1.88
6128.00,1.88
6127.00,1.88
6126.00,1.88
6125.00,1.88
6124.00,1.88
6123.00,1.88
6122.00,1.88
6121.00,1.88
6120.00,1.89
6119.00,1.89
6118.00,1.89
6117.00,1.89
6116.00,1.89
6115.00,1.89
6114.00,1.89
6113.00,1.89
6112.00,1.89
6111.00,1.89
6110.00,1.89
6109.00,1.89
6108.00,1.89
6107.00,1.89
6106.00,1.89
6105.00,1.89
6104.00,1.89
6103.00,1.89
6102.00,1.89
6101.00,1.90
6100.00,1.90
6099.00,1.90
6098.00,1.90
6097.00,1.90
6096.00,1.90
6095.00,1.90
6094.00,1.90
6093.00,1.90
6092.00,1.90
6091.00,1.90
6090.00,1.90
6089.00,1.90
6088.00,1.90
6087.00,1.89
6086.00,1.89
6085.00,1.89
6084.00,1.89
6083.00,1.89
6082.00,1.89
6081.00,1.88
6080.00,1.88
6079.00,1.88
6078.00,1.88
6077.00,1.88
6076.00,1.88
6075.00,1.88
6074.00,1.88
6073.00,1.88
6072.00,1.88
6071.00,1.88
6070.00,1.87
6069.00,1.87
6068.00,1.87
6067.00,1.87
6066.00,1.88
6065.00,1.88
6064.00,1.88
6063.00,1.88
6062.00,1.89
6061.00,1.89
6060.00,1.90
6059.00,1.91
6058.00,1.91
6057.00,1.92
6056.00,1.92
6055.00,1.93
6054.00,1.94
6053.00,1.94
6052.00,1.94
6051.00,1.95
6050.00,1.95
6049.00,1.96
6048.00,1.96
6047.00,1.97
6046.00,1.97
6045.00,1.98
6044.00,1.98
6043.00,1.98
6042.00,1.98
6041.00,1.99
6040.00,1.99
6039.00,1.99
6038.00,1.99
6037.00,1.99
6036.00,1.99
6035.00,1.99
6034.00,1.98
6033.00,1.98
6032.00,1.98
6031.00,1.98
6030.00,1.98
6029.00,1.97
6028.00,1.97
6027.00,1.97
6026.00,1.97
6025.00,1.97
6024.00,1.97
6023.00,1.96
6022.00,1.96
6021.00,1.96
6020.00,1.96
6019.00,1.96
6018.00,1.96
6017.00,1.96
6016.00,1.96
6015.00,1.96
6014.00,1.96
6013.00,1.96
6012.00,1.96
6011.00,1.95
6010.00,1.95
6009.00,1.95
6008.00,1.95
6007.00,1.95
6006.00,1.95
6005.00,1.95
6004.00,1.95
6003.00,1.95
6002.00,1.95
6001.00,1.95
6000.00,1.95
5999.00,1.95
5998.00,1.95
5997.00,1.95
5996.00,1.95
5995.00,1.96
5994.00,1.96
5993.00,1.96
5992.00,1.96
5991.00,1.96
5990.00,1.96
5989.00,1.96
5988.00,1.96
5987.00,1.97
5986.00,1.97
5985.00,1.97
5984.00,1.97
5983.00,1.97
5982.00,1.98
5981.00,1.98
5980.00,1.99
5979.00,1.99
5978.00,1.99
5977.00,1.99
5976.00,2.00
5975.00,2.00
5974.00,2.00
5973.00,2.00
5972.00,1.99
5971.00,1.99
5970.00,1.99
5969.00,1.99
5968.00,1.99
5967.00,1.99
5966.00,1.99
5965.00,1.99
5964.00,1.99
5963.00,1.99
5962.00,1.99
5961.00,1.99
5960.00,1.99
5959.00,1.99
5958.00,1.99
5957.00,1.99
5956.00,1.99
5955.00,1.99
5954.00,1.99
5953.00,1.99
5952.00,1.99
5951.00,1.99
5950.00,1.99
5949.00,1.99
5948.00,1.99
5947.00,2.00
5946.00,2.00
5945.00,2.00
5944.00,2.01
5943.00,2.01
5942.00,2.01
5941.00,2.01
5940.00,2.02
5939.00,2.02
5938.00,2.02
5937.00,2.02
5936.00,2.03
5935.00,2.03
5934.00,2.03
5933.00,2.03
5932.00,2.03
5931.00,2.03
5930.00,2.03
5929.00,2.03
5928.00,2.03
5927.00,2.02
5926.00,2.02
5925.00,2.02
5924.00,2.01
5923.00,2.01
5922.00,2.01
5921.00,2.00
5920.00,2.00
5919.00,2.00
5918.00,1.99
5917.00,1.99
5916.00,1.99
5915.00,1.99
5914.00,1.98
5913.00,1.98
5912.00,1.98
5911.00,1.97
5910.00,1.97
5909.00,1.97
5908.00,1.96
5907.00,1.96
5906.00,1.96
5905.00,1.95
5904.00,1.95
5903.00,1.95
5902.00,1.95
5901.00,1.95
5900.00,1.95
5899.00,1.95
5898.00,1.95
5897.00,1.94
5896.00,1.94
5895.00,1.94
5894.00,1.94
5893.00,1.94
5892.00,1.94
5891.00,1.94
5890.00,1.94
5889.00,1.94
5888.00,1.94
5887.00,1.94
5886.00,1.94
5885.00,1.94
5884.00,1.94
5883.00,1.94
5882.00,1.94
5881.00,1.95
5880.00,1.95
5879.00,1.95
5878.00,1.95
5877.00,1.95
5876.00,1.96
5875.00,1.96
5874.00,1.96
5873.00,1.97
5872.00,1.97
5871.00,1.97
5870.00,1.98
5869.00,1.98
5868.00,1.98
5867.00,1.99
5866.00,1.99
5865.00,2.00
5864.00,2.00
5863.00,2.01
5862.00,2.01
5861.00,2.01
5860.00,2.02
5859.00,2.02
5858.00,2.02
5857.00,2.02
5856.00,2.03
5855.00,2.03
5854.00,2.03
5853.00,2.03
5852.00,2.03
5851.00,2.03
5850.00,2.04
5849.00,2.04
5848.00,2.04
5847.00,2.04
5846.00,2.04
5845.00,2.04
5844.00,2.04
5843.00,2.03
5842.00,2.03
5841.00,2.03
5840.00,2.03
5839.00,2.03
5838.00,2.02
5837.00,2.02
5836.00,2.02
5835.00,2.01
5834.00,2.01
5833.00,2.01
5832.00,2.01
5831.00,2.01
5830.00,2.00
5829.00,2.00
5828.00,2.00
5827.00,2.00
5826.00,2.00
5825.00,2.00
5824.00,2.00
5823.00,2.00
5822.00,2.00
5821.00,2.00
5820.00,2.00
5819.00,2.00
5818.00,2.00
5817.00,2.00
5816.00,2.00
5815.00,2.00
5814.00,2.00
5813.00,2.00
5812.00,2.00
5811.00,2.00
5810.00,2.01
5809.00,2.01
5808.00,2.01
5807.00,2.01
5806.00,2.01
5805.00,2.01
5804.00,2.01
5803.00,2.01
5802.00,2.01
5801.00,2.01
5800.00,2.01
5799.00,2.01
5798.00,2.01
5797.00,2.01
5796.00,2.01
5795.00,2.01
5794.00,2.01
5793.00,2.01
5792.00,2.01
5791.00,2.01
5790.00,2.01
5789.00,2.02
5788.00,2.02
5787.00,2.02
5786.00,2.02
5785.00,2.02
5784.00,2.02
5783.00,2.02
5782.00,2.03
5781.00,2.03
5780.00,2.03
5779.00,2.03
5778.00,2.03
5777.00,2.03
5776.00,2.03
5775.00,2.04
5774.00,2.04
5773.00,2.04
5772.00,2.04
5771.00,2.04
5770.00,2.05
5769.00,2.05
5768.00,2.05
5767.00,2.06
5766.00,2.06
5765.00,2.06
5764.00,2.06
5763.00,2.07
5762.00,2.07
5761.00,2.07
5760.00,2.07
5759.00,2.07
5758.00,2.07
5757.00,2.07
5756.00,2.08
5755.00,2.08
5754.00,2.08
5753.00,2.08
5752.00,2.08
5751.00,2.09
5750.00,2.09
5749.00,2.09
5748.00,2.09
5747.00,2.09
5746.00,2.09
5745.00,2.10
5744.00,2.10
5743.00,2.10
5742.00,2.10
5741.00,2.10
5740.00,2.10
5739.00,2.09
5738.00,2.09
5737.00,2.09
5736.00,2.09
5735.00,2.09
5734.00,2.09
5733.00,2.09
5732.00,2.09
5731.00,2.09
5730.00,2.09
5729.00,2.09
5728.00,2.09
5727.00,2.09
5726.00,2.09
5725.00,2.08
5724.00,2.08
5723.00,2.08
5722.00,2.08
5721.00,2.08
5720.00,2.08
5719.00,2.07
5718.00,2.07
5717.00,2.07
5716.00,2.07
5715.00,2.07
5714.00,2.07
5713.00,2.07
5712.00,2.07
5711.00,2.06
5710.00,2.06
5709.00,2.06
5708.00,2.06
5707.00,2.06
5706.00,2.06
5705.00,2.06
5704.00,2.05
5703.00,2.05
5702.00,2.05
5701.00,2.05
5700.00,2.05
5699.00,2.05
5698.00,2.04
5697.00,2.04
5696.00,2.04
5695.00,2.04
5694.00,2.04
5693.00,2.03
5692.00,2.03
5691.00,2.03
5690.00,2.02
5689.00,2.02
5688.00,2.02
5687.00,2.01
5686.00,2.01
5685.00,2.01
5684.00,2.01
5683.00,2.01
5682.00,2.01
5681.00,2.01
5680.00,2.00
5679.00,2.00
5678.00,2.00
5677.00,2.00
5676.00,2.00
5675.00,2.00
5674.00,1.99
5673.00,1.99
5672.00,1.99
5671.00,1.99
5670.00,1.99
5669.00,1.99
5668.00,1.99
5667.00,1.98
5666.00,1.98
5665.00,1.98
5664.00,1.98
5663.00,1.98
5662.00,1.98
5661.00,1.98
5660.00,1.98
5659.00,1.98
5658.00,1.98
5657.00,1.98
5656.00,1.98
5655.00,1.98
5654.00,1.97
5653.00,1.97
5652.00,1.97
5651.00,1.97
5650.00,1.97
5649.00,1.97
5648.00,1.97
5647.00,1.97
5646.00,1.97
5645.00,1.97
5644.00,1.97
5643.00,1.97
5642.00,1.97
5641.00,1.97
5640.00,1.97
5639.00,1.97
5638.00,1.98
5637.00,1.98
5636.00,1.98
5635.00,1.98
5634.00,1.99
5633.00,1.99
5632.00,1.99
5631.00,2.00
5630.00,2.00
5629.00,2.01
5628.00,2.01
5627.00,2.02
5626.00,2.02
5625.00,2.03
5624.00,2.03
5623.00,2.04
5622.00,2.04
5621.00,2.05
5620.00,2.05
5619.00,2.05
5618.00,2.06
5617.00,2.06
5616.00,2.06
5615.00,2.06
5614.00,2.07
5613.00,2.07
5612.00,2.07
5611.00,2.07
5610.00,2.07
5609.00,2.07
5608.00,2.07
5607.00,2.07
5606.00,2.07
5605.00,2.06
5604.00,2.06
5603.00,2.06
5602.00,2.06
5601.00,2.06
5600.00,2.05
5599.00,2.05
5598.00,2.05
5597.00,2.05
5596.00,2.05
5595.00,2.05
5594.00,2.05
5593.00,2.04
5592.00,2.04
5591.00,2.04
5590.00,2.04
5589.00,2.05
5588.00,2.05
5587.00,2.05
5586.00,2.05
5585.00,2.05
5584.00,2.05
5583.00,2.06
5582.00,2.06
5581.00,2.07
5580.00,2.07
5579.00,2.08
5578.00,2.08
5577.00,2.08
5576.00,2.09
5575.00,2.09
5574.00,2.10
5573.00,2.10
5572.00,2.10
5571.00,2.11
5570.00,2.11
5569.00,2.11
5568.00,2.11
5567.00,2.12
5566.00,2.12
5565.00,2.12
5564.00,2.12
5563.00,2.12
5562.00,2.12
5561.00,2.12
5560.00,2.13
5559.00,2.13
5558.00,2.13
5557.00,2.13
5556.00,2.12
5555.00,2.12
5554.00,2.12
5553.00,2.12
5552.00,2.12
5551.00,2.11
5550.00,2.11
5549.00,2.11
5548.00,2.11
5547.00,2.10
5546.00,2.10
5545.00,2.10
5544.00,2.10
5543.00,2.10
5542.00,2.09
5541.00,2.09
5540.00,2.09
5539.00,2.09
5538.00,2.09
5537.00,2.09
5536.00,2.09
5535.00,2.09
5534.00,2.09
5533.00,2.09
5532.00,2.09
5531.00,2.08
5530.00,2.08
5529.00,2.08
5528.00,2.08
5527.00,2.08
5526.00,2.08
5525.00,2.08
5524.00,2.08
5523.00,2.08
5522.00,2.08
5521.00,2.07
5520.00,2.07
5519.00,2.07
5518.00,2.07
5517.00,2.07
5516.00,2.07
5515.00,2.07
5514.00,2.07
5513.00,2.07
5512.00,2.07
5511.00,2.07
5510.00,2.06
5509.00,2.06
5508.00,2.06
5507.00,2.06
5506.00,2.06
5505.00,2.06
5504.00,2.06
5503.00,2.06
5502.00,2.06
5501.00,2.06
5500.00,2.06
5499.00,2.06
5498.00,2.06
5497.00,2.06
5496.00,2.06
5495.00,2.06
5494.00,2.07
5493.00,2.07
5492.00,2.07
5491.00,2.07
5490.00,2.07
5489.00,2.07
5488.00,2.07
5487.00,2.07
5486.00,2.08
5485.00,2.08
5484.00,2.08
5483.00,2.08
5482.00,2.08
5481.00,2.08
5480.00,2.08
5479.00,2.08
5478.00,2.08
5477.00,2.08
5476.00,2.08
5475.00,2.08
5474.00,2.08
5473.00,2.08
5472.00,2.08
5471.00,2.08
5470.00,2.08
5469.00,2.08
5468.00,2.08
5467.00,2.08
5466.00,2.08
5465.00,2.08
5464.00,2.08
5463.00,2.08
5462.00,2.08
5461.00,2.08
5460.00,2.08
5459.00,2.08
5458.00,2.09
5457.00,2.09
5456.00,2.09
5455.00,2.10
5454.00,2.10
5453.00,2.10
5452.00,2.11
5451.00,2.11
5450.00,2.12
5449.00,2.13
5448.00,2.14
5447.00,2.14
5446.00,2.15
5445.00,2.16
5444.00,2.17
5443.00,2.17
5442.00,2.18
5441.00,2.19
5440.00,2.19
5439.00,2.20
5438.00,2.21
5437.00,2.21
5436.00,2.22
5435.00,2.22
5434.00,2.22
5433.00,2.23
5432.00,2.23
5431.00,2.23
5430.00,2.24
5429.00,2.24
5428.00,2.24
5427.00,2.24
5426.00,2.24
5425.00,2.24
5424.00,2.24
5423.00,2.24
5422.00,2.24
5421.00,2.23
5420.00,2.23
5419.00,2.23
5418.00,2.23
5417.00,2.22
5416.00,2.22
5415.00,2.22
5414.00,2.21
5413.00,2.21
5412.00,2.21
5411.00,2.21
5410.00,2.21
5409.00,2.20
5408.00,2.20
5407.00,2.20
5406.00,2.20
5405.00,2.20
5404.00,2.19
5403.00,2.19
5402.00,2.19
5401.00,2.19
5400.00,2.18
5399.00,2.18
5398.00,2.18
5397.00,2.18
5396.00,2.18
5395.00,2.18
5394.00,2.17
5393.00,2.17
5392.00,2.17
5391.00,2.17
5390.00,2.17
5389.00,2.16
5388.00,2.16
5387.00,2.16
5386.00,2.15
5385.00,2.15
5384.00,2.15
5383.00,2.14
5382.00,2.14
5381.00,2.13
5380.00,2.13
5379.00,2.12
5378.00,2.12
5377.00,2.11
5376.00,2.11
5375.00,2.10
5374.00,2.10
5373.00,2.09
5372.00,2.09
5371.00,2.08
5370.00,2.08
5369.00,2.08
5368.00,2.07
5367.00,2.07
5366.00,2.07
5365.00,2.06
5364.00,2.06
5363.00,2.06
5362.00,2.06
5361.00,2.05
5360.00,2.05
5359.00,2.05
5358.00,2.05
5357.00,2.05
5356.00,2.05
5355.00,2.05
5354.00,2.05
5353.00,2.05
5352.00,2.05
5351.00,2.05
5350.00,2.05
5349.00,2.05
5348.00,2.05
5347.00,2.05
5346.00,2.05
5345.00,2.05
5344.00,2.05
5343.00,2.05
5342.00,2.04
5341.00,2.04
5340.00,2.04
5339.00,2.03
5338.00,2.03
5337.00,2.03
5336.00,2.02
5335.00,2.02
5334.00,2.02
5333.00,2.01
5332.00,2.01
5331.00,2.01
5330.00,2.00
5329.00,2.00
5328.00,2.00
5327.00,1.99
5326.00,1.99
5325.00,1.98
5324.00,1.98
5323.00,1.97
5322.00,1.97
5321.00,1.97
5320.00,1.96
5319.00,1.96
5318.00,1.95
5317.00,1.95
5316.00,1.94
5315.00,1.94
5314.00,1.93
5313.00,1.93
5312.00,1.92
5311.00,1.92
5310.00,1.91
5309.00,1.91
5308.00,1.90
5307.00,1.89
5306.00,1.89
5305.00,1.88
5304.00,1.87
5303.00,1.86
5302.00,1.86
5301.00,1.85
5300.00,1.84
5299.00,1.83
5298.00,1.82
5297.00,1.81
5296.00,1.80
5295.00,1.79
5294.00,1.78
5293.00,1.77
5292.00,1.76
5291.00,1.75
5290.00,1.74
5289.00,1.73
5288.00,1.72
5287.00,1.72
5286.00,1.71
5285.00,1.70
5284.00,1.69
5283.00,1.69
5282.00,1.68
5281.00,1.67
5280.00,1.67
5279.00,1.66
5278.00,1.65
5277.00,1.65
5276.00,1.64
5275.00,1.64
5274.00,1.63
5273.00,1.63
5272.00,1.62
5271.00,1.62
5270.00,1.61
5269.00,1.61
5268.00,1.61
5267.00,1.60
5266.00,1.60
5265.00,1.60
5264.00,1.59
5263.00,1.59
5262.00,1.58
5261.00,1.58
5260.00,1.57
5259.00,1.56
5258.00,1.56
5257.00,1.55
5256.00,1.55
5255.00,1.54
5254.00,1.53
5253.00,1.53
5252.00,1.52
5251.00,1.52
5250.00,1.51
5249.00,1.50
5248.00,1.50
5247.00,1.49
5246.00,1.49
5245.00,1.48
5244.00,1.47
5243.00,1.47
5242.00,1.46
5241.00,1.46
5240.00,1.45
5239.00,1.44
5238.00,1.44
5237.00,1.44
5236.00,1.43
5235.00,1.43
5234.00,1.43
5233.00,1.42
5232.00,1.42
5231.00,1.42
5230.00,1.42
5229.00,1.42
5228.00,1.42
5227.00,1.41
5226.00,1.41
5225.00,1.41
5224.00,1.41
5223.00,1.41
5222.00,1.41
5221.00,1.41
5220.00,1.41
5219.00,1.40
5218.00,1.40
5217.00,1.40
5216.00,1.40
5215.00,1.40
5214.00,1.40
5213.00,1.40
5212.00,1.40
5211.00,1.40
5210.00,1.40
5209.00,1.40
5208.00,1.40
5207.00,1.40
5206.00,1.39
5205.00,1.39
5204.00,1.39
5203.00,1.39
5202.00,1.39
5201.00,1.39
5200.00,1.39
5199.00,1.39
5198.00,1.39
5197.00,1.39
5196.00,1.39
5195.00,1.39
5194.00,1.39
5193.00,1.39
5192.00,1.40
5191.00,1.40
5190.00,1.40
5189.00,1.40
5188.00,1.40
5187.00,1.40
5186.00,1.40
5185.00,1.40
5184.00,1.40
5183.00,1.40
5182.00,1.41
5181.00,1.41
5180.00,1.41
5179.00,1.41
5178.00,1.41
5177.00,1.41
5176.00,1.41
5175.00,1.41
5174.00,1.41
5173.00,1.41
5172.00,1.40
5171.00,1.40
5170.00,1.40
5169.00,1.40
5168.00,1.39
5167.00,1.39
5166.00,1.39
5165.00,1.38
5164.00,1.38
5163.00,1.37
5162.00,1.37
5161.00,1.37
5160.00,1.37
5159.00,1.37
5158.00,1.37
5157.00,1.36
5156.00,1.36
5155.00,1.36
5154.00,1.36
5153.00,1.36
5152.00,1.36
5151.00,1.36
5150.00,1.36
5149.00,1.35
5148.00,1.35
5147.00,1.35
5146.00,1.35
5145.00,1.35
5144.00,1.35
5143.00,1.35
5142.00,1.35
5141.00,1.35
5140.00,1.35
5139.00,1.35
5138.00,1.36
5137.00,1.36
5136.00,1.35
5135.00,1.35
5134.00,1.35
5133.00,1.35
5132.00,1.35
5131.00,1.35
5130.00,1.35
5129.00,1.35
5128.00,1.35
5127.00,1.35
5126.00,1.35
5125.00,1.35
5124.00,1.35
5123.00,1.35
5122.00,1.36
5121.00,1.36
5120.00,1.36
5119.00,1.36
5118.00,1.37
5117.00,1.37
5116.00,1.37
5115.00,1.38
5114.00,1.38
5113.00,1.38
5112.00,1.39
5111.00,1.39
5110.00,1.40
5109.00,1.41
5108.00,1.41
5107.00,1.42
5106.00,1.43
5105.00,1.43
5104.00,1.44
5103.00,1.45
5102.00,1.45
5101.00,1.46
5100.00,1.47
5099.00,1.47
5098.00,1.48
5097.00,1.49
5096.00,1.49
5095.00,1.50
5094.00,1.50
5093.00,1.51
5092.00,1.51
5091.00,1.52
5090.00,1.52
5089.00,1.53
5088.00,1.53
5087.00,1.54
5086.00,1.54
5085.00,1.55
5084.00,1.55
5083.00,1.56
5082.00,1.56
5081.00,1.56
5080.00,1.57
5079.00,1.57
5078.00,1.58
5077.00,1.58
5076.00,1.58
5075.00,1.59
5074.00,1.59
5073.00,1.60
5072.00,1.60
5071.00,1.60
5070.00,1.61
5069.00,1.61
5068.00,1.61
5067.00,1.62
5066.00,1.62
5065.00,1.63
5064.00,1.63
5063.00,1.63
5062.00,1.64
5061.00,1.64
5060.00,1.64
5059.00,1.64
5058.00,1.65
5057.00,1.65
5056.00,1.65
5055.00,1.66
5054.00,1.66
5053.00,1.66
5052.00,1.67
5051.00,1.67
5050.00,1.67
5049.00,1.67
5048.00,1.67
5047.00,1.67
5046.00,1.67
5045.00,1.67
5044.00,1.67
5043.00,1.67
5042.00,1.67
5041.00,1.67
5040.00,1.67
5039.00,1.67
5038.00,1.67
5037.00,1.67
5036.00,1.67
5035.00,1.67
5034.00,1.67
5033.00,1.67
5032.00,1.67
5031.00,1.67
5030.00,1.66
5029.00,1.66
5028.00,1.66
5027.00,1.65
5026.00,1.65
5025.00,1.65
5024.00,1.64
5023.00,1.64
5022.00,1.64
5021.00,1.64
5020.00,1.63
5019.00,1.63
5018.00,1.63
5017.00,1.63
5016.00,1.63
5015.00,1.63
5014.00,1.63
5013.00,1.63
5012.00,1.64
5011.00,1.64
5010.00,1.64
5009.00,1.64
5008.00,1.64
5007.00,1.64
5006.00,1.64
5005.00,1.65
5004.00,1.65
5003.00,1.65
5002.00,1.66
5001.00,1.66
5000.00,1.67
4999.00,1.67
4998.00,1.68
4997.00,1.68
4996.00,1.69
4995.00,1.69
4994.00,1.70
4993.00,1.70
4992.00,1.71
4991.00,1.71
4990.00,1.72
4989.00,1.72
4988.00,1.73
4987.00,1.73
4986.00,1.74
4985.00,1.74
4984.00,1.75
4983.00,1.75
4982.00,1.75
4981.00,1.76
4980.00,1.76
4979.00,1.76
4978.00,1.77
4977.00,1.77
4976.00,1.77
4975.00,1.77
4974.00,1.78
4973.00,1.78
4972.00,1.78
4971.00,1.78
4970.00,1.79
4969.00,1.79
4968.00,1.79
4967.00,1.79
4966.00,1.79
4965.00,1.79
4964.00,1.80
4963.00,1.80
4962.00,1.80
4961.00,1.80
4960.00,1.80
4959.00,1.81
4958.00,1.81
4957.00,1.81
4956.00,1.81
4955.00,1.81
4954.00,1.82
4953.00,1.82
4952.00,1.82
4951.00,1.82
4950.00,1.83
4949.00,1.83
4948.00,1.84
4947.00,1.84
4946.00,1.84
4945.00,1.85
4944.00,1.85
4943.00,1.86
4942.00,1.86
4941.00,1.86
4940.00,1.87
4939.00,1.87
4938.00,1.87
4937.00,1.87
4936.00,1.87
4935.00,1.87
4934.00,1.87
4933.00,1.87
4932.00,1.87
4931.00,1.87
4930.00,1.87
4929.00,1.87
4928.00,1.87
4927.00,1.87
4926.00,1.87
4925.00,1.87
4924.00,1.86
4923.00,1.86
4922.00,1.86
4921.00,1.85
4920.00,1.85
4919.00,1.84
4918.00,1.84
4917.00,1.83
4916.00,1.83
4915.00,1.83
4914.00,1.83
4913.00,1.82
4912.00,1.82
4911.00,1.82
4910.00,1.82
4909.00,1.82
4908.00,1.82
4907.00,1.82
4906.00,1.83
4905.00,1.83
4904.00,1.83
4903.00,1.83
4902.00,1.84
4901.00,1.84
4900.00,1.85
4899.00,1.85
4898.00,1.85
4897.00,1.86
4896.00,1.87
4895.00,1.87
4894.00,1.88
4893.00,1.89
4892.00,1.89
4891.00,1.90
4890.00,1.91
4889.00,1.91
4888.00,1.92
4887.00,1.92
4886.00,1.93
4885.00,1.93
4884.00,1.94
4883.00,1.94
4882.00,1.95
4881.00,1.95
4880.00,1.95
4879.00,1.96
4878.00,1.96
4877.00,1.96
4876.00,1.97
4875.00,1.97
4874.00,1.97
4873.00,1.97
4872.00,1.97
4871.00,1.97
4870.00,1.97
4869.00,1.97
4868.00,1.97
4867.00,1.97
4866.00,1.97
4865.00,1.97
4864.00,1.97
4863.00,1.97
4862.00,1.97
4861.00,1.97
4860.00,1.97
4859.00,1.97
4858.00,1.97
4857.00,1.97
4856.00,1.96
4855.00,1.96
4854.00,1.96
4853.00,1.96
4852.00,1.96
4851.00,1.96
4850.00,1.96
4849.00,1.96
4848.00,1.96
4847.00,1.96
4846.00,1.96
4845.00,1.96
4844.00,1.96
4843.00,1.96
4842.00,1.96
4841.00,1.96
4840.00,1.96
4839.00,1.96
4838.00,1.96
4837.00,1.96
4836.00,1.96
4835.00,1.96
4834.00,1.96
4833.00,1.96
4832.00,1.96
4831.00,1.97
4830.00,1.97
4829.00,1.97
4828.00,1.97
4827.00,1.98
4826.00,1.98
4825.00,1.98
4824.00,1.99
4823.00,1.99
4822.00,2.00
4821.00,2.00
4820.00,2.00
4819.00,2.01
4818.00,2.01
4817.00,2.02
4816.00,2.02
4815.00,2.02
4814.00,2.03
4813.00,2.03
4812.00,2.03
4811.00,2.04
4810.00,2.04
4809.00,2.04
4808.00,2.04
4807.00,2.04
4806.00,2.04
4805.00,2.05
4804.00,2.05
4803.00,2.05
4802.00,2.04
4801.00,2.04
4800.00,2.04
4799.00,2.04
4798.00,2.04
4797.00,2.04
4796.00,2.03
4795.00,2.03
4794.00,2.03
4793.00,2.03
4792.00,2.03
4791.00,2.02
4790.00,2.02
4789.00,2.02
4788.00,2.02
4787.00,2.02
4786.00,2.02
4785.00,2.02
4784.00,2.03
4783.00,2.03
4782.00,2.03
4781.00,2.03
4780.00,2.04
4779.00,2.04
4778.00,2.04
4777.00,2.04
4776.00,2.05
4775.00,2.05
4774.00,2.05
4773.00,2.05
4772.00,2.06
4771.00,2.06
4770.00,2.06
4769.00,2.06
4768.00,2.07
4767.00,2.07
4766.00,2.07
4765.00,2.07
4764.00,2.08
4763.00,2.08
4762.00,2.08
4761.00,2.08
4760.00,2.08
4759.00,2.08
4758.00,2.08
4757.00,2.08
4756.00,2.08
4755.00,2.07
4754.00,2.07
4753.00,2.07
4752.00,2.07
4751.00,2.07
4750.00,2.07
4749.00,2.07
4748.00,2.07
4747.00,2.06
4746.00,2.06
4745.00,2.06
4744.00,2.06
4743.00,2.06
4742.00,2.06
4741.00,2.06
4740.00,2.06
4739.00,2.06
4738.00,2.05
4737.00,2.05
4736.00,2.05
4735.00,2.05
4734.00,2.05
4733.00,2.05
4732.00,2.05
4731.00,2.05
4730.00,2.05
4729.00,2.05
4728.00,2.05
4727.00,2.05
4726.00,2.06
4725.00,2.06
4724.00,2.06
4723.00,2.06
4722.00,2.06
4721.00,2.07
4720.00,2.07
4719.00,2.07
4718.00,2.08
4717.00,2.08
4716.00,2.08
4715.00,2.09
4714.00,2.09
4713.00,2.09
4712.00,2.10
4711.00,2.10
4710.00,2.10
4709.00,2.11
4708.00,2.11
4707.00,2.11
4706.00,2.12
4705.00,2.12
4704.00,2.12
4703.00,2.13
4702.00,2.13
4701.00,2.13
4700.00,2.13
4699.00,2.14
4698.00,2.14
4697.00,2.14
4696.00,2.14
4695.00,2.14
4694.00,2.14
4693.00,2.14
4692.00,2.14
4691.00,2.14
4690.00,2.14
4689.00,2.14
4688.00,2.14
4687.00,2.13
4686.00,2.13
4685.00,2.13
4684.00,2.13
4683.00,2.13
4682.00,2.13
4681.00,2.13
4680.00,2.13
4679.00,2.13
4678.00,2.12
4677.00,2.12
4676.00,2.12
4675.00,2.12
4674.00,2.12
4673.00,2.12
4672.00,2.12
4671.00,2.12
4670.00,2.12
4669.00,2.12
4668.00,2.12
4667.00,2.12
4666.00,2.13
4665.00,2.13
4664.00,2.13
4663.00,2.13
4662.00,2.13
4661.00,2.13
4660.00,2.14
4659.00,2.14
4658.00,2.14
4657.00,2.14
4656.00,2.15
4655.00,2.15
4654.00,2.15
4653.00,2.16
4652.00,2.16
4651.00,2.16
4650.00,2.17
4649.00,2.17
4648.00,2.17
4647.00,2.18
4646.00,2.18
4645.00,2.18
4644.00,2.18
4643.00,2.18
4642.00,2.19
4641.00,2.19
4640.00,2.19
4639.00,2.19
4638.00,2.20
4637.00,2.20
4636.00,2.20
4635.00,2.20
4634.00,2.21
4633.00,2.21
4632.00,2.21
4631.00,2.21
4630.00,2.21
4629.00,2.21
4628.00,2.21
4627.00,2.21
4626.00,2.22
4625.00,2.22
4624.00,2.22
4623.00,2.22
4622.00,2.22
4621.00,2.22
4620.00,2.22
4619.00,2.22
4618.00,2.22
4617.00,2.22
4616.00,2.22
4615.00,2.22
4614.00,2.22
4613.00,2.22
4612.00,2.22
4611.00,2.22
4610.00,2.22
4609.00,2.22
4608.00,2.22
4607.00,2.22
4606.00,2.22
4605.00,2.22
4604.00,2.22
4603.00,2.22
4602.00,2.22
4601.00,2.22
4600.00,2.22
4599.00,2.22
4598.00,2.21
4597.00,2.21
4596.00,2.21
4595.00,2.21
4594.00,2.20
4593.00,2.20
4592.00,2.20
4591.00,2.19
4590.00,2.19
4589.00,2.19
4588.00,2.18
4587.00,2.18
4586.00,2.18
4585.00,2.18
4584.00,2.17
4583.00,2.17
4582.00,2.17
4581.00,2.17
4580.00,2.17
4579.00,2.17
4578.00,2.17
4577.00,2.17
4576.00,2.17
4575.00,2.17
4574.00,2.17
4573.00,2.17
4572.00,2.17
4571.00,2.17
4570.00,2.18
4569.00,2.18
4568.00,2.18
4567.00,2.19
4566.00,2.19
4565.00,2.19
4564.00,2.20
4563.00,2.20
4562.00,2.21
4561.00,2.21
4560.00,2.21
4559.00,2.21
4558.00,2.22
4557.00,2.22
4556.00,2.22
4555.00,2.22
4554.00,2.22
4553.00,2.21
4552.00,2.21
4551.00,2.21
4550.00,2.21
4549.00,2.21
4548.00,2.21
4547.00,2.20
4546.00,2.20
4545.00,2.20
4544.00,2.20
4543.00,2.19
4542.00,2.19
4541.00,2.19
4540.00,2.18
4539.00,2.18
4538.00,2.17
4537.00,2.17
4536.00,2.17
4535.00,2.16
4534.00,2.16
4533.00,2.15
4532.00,2.15
4531.00,2.15
4530.00,2.15
4529.00,2.14
4528.00,2.14
4527.00,2.14
4526.00,2.14
4525.00,2.14
4524.00,2.13
4523.00,2.13
4522.00,2.13
4521.00,2.13
4520.00,2.13
4519.00,2.12
4518.00,2.12
4517.00,2.12
4516.00,2.12
4515.00,2.12
4514.00,2.12
4513.00,2.12
4512.00,2.12
4511.00,2.12
4510.00,2.11
4509.00,2.11
4508.00,2.11
4507.00,2.11
4506.00,2.11
4505.00,2.10
4504.00,2.10
4503.00,2.10
4502.00,2.10
4501.00,2.10
4500.00,2.10
4499.00,2.10
4498.00,2.09
4497.00,2.09
4496.00,2.09
4495.00,2.09
4494.00,2.09
4493.00,2.08
4492.00,2.08
4491.00,2.08
4490.00,2.08
4489.00,2.07
4488.00,2.07
4487.00,2.07
4486.00,2.07
4485.00,2.07
4484.00,2.07
4483.00,2.07
4482.00,2.07
4481.00,2.07
4480.00,2.07
4479.00,2.07
4478.00,2.07
4477.00,2.07
4476.00,2.07
4475.00,2.07
4474.00,2.07
4473.00,2.08
4472.00,2.08
4471.00,2.08
4470.00,2.08
4469.00,2.08
4468.00,2.09
4467.00,2.09
4466.00,2.09
4465.00,2.10
4464.00,2.10
4463.00,2.10
4462.00,2.10
4461.00,2.11
4460.00,2.11
4459.00,2.11
4458.00,2.11
4457.00,2.11
4456.00,2.11
4455.00,2.12
4454.00,2.12
4453.00,2.12
4452.00,2.12
4451.00,2.12
4450.00,2.12
4449.00,2.13
4448.00,2.13
4447.00,2.13
4446.00,2.13
4445.00,2.14
4444.00,2.14
4443.00,2.14
4442.00,2.14
4441.00,2.15
4440.00,2.15
4439.00,2.15
4438.00,2.16
4437.00,2.16
4436.00,2.16
4435.00,2.16
4434.00,2.17
4433.00,2.17
4432.00,2.17
4431.00,2.18
4430.00,2.18
4429.00,2.18
4428.00,2.18
4427.00,2.18
4426.00,2.19
4425.00,2.19
4424.00,2.19
4423.00,2.19
4422.00,2.18
4421.00,2.18
4420.00,2.18
4419.00,2.18
4418.00,2.18
4417.00,2.18
4416.00,2.18
4415.00,2.18
4414.00,2.18
4413.00,2.17
4412.00,2.17
4411.00,2.17
4410.00,2.17
4409.00,2.16
4408.00,2.16
4407.00,2.16
4406.00,2.16
4405.00,2.15
4404.00,2.15
4403.00,2.15
4402.00,2.15
4401.00,2.15
4400.00,2.15
4399.00,2.15
4398.00,2.15
4397.00,2.15
4396.00,2.15
4395.00,2.15
4394.00,2.15
4393.00,2.14
4392.00,2.14
4391.00,2.14
4390.00,2.14
4389.00,2.14
4388.00,2.14
4387.00,2.14
4386.00,2.14
4385.00,2.14
4384.00,2.14
4383.00,2.14
4382.00,2.14
4381.00,2.14
4380.00,2.14
4379.00,2.14
4378.00,2.14
4377.00,2.14
4376.00,2.14
4375.00,2.14
4374.00,2.14
4373.00,2.14
4372.00,2.14
4371.00,2.14
4370.00,2.14
4369.00,2.14
4368.00,2.15
4367.00,2.15
4366.00,2.15
4365.00,2.15
4364.00,2.15
4363.00,2.15
4362.00,2.15
4361.00,2.15
4360.00,2.15
4359.00,2.15
4358.00,2.15
4357.00,2.15
4356.00,2.15
4355.00,2.15
4354.00,2.15
4353.00,2.15
4352.00,2.15
4351.00,2.15
4350.00,2.15
4349.00,2.15
4348.00,2.15
4347.00,2.15
4346.00,2.15
4345.00,2.15
4344.00,2.15
4343.00,2.15
4342.00,2.15
4341.00,2.15
4340.00,2.15
4339.00,2.15
4338.00,2.15
4337.00,2.15
4336.00,2.14
4335.00,2.14
4334.00,2.14
4333.00,2.14
4332.00,2.14
4331.00,2.14
4330.00,2.14
4329.00,2.14
4328.00,2.14
4327.00,2.14
4326.00,2.14
4325.00,2.14
4324.00,2.13
4323.00,2.13
4322.00,2.13
4321.00,2.13
4320.00,2.12
4319.00,2.12
4318.00,2.12
4317.00,2.11
4316.00,2.11
4315.00,2.11
4314.00,2.11
4313.00,2.10
4312.00,2.10
4311.00,2.10
4310.00,2.11
4309.00,2.11
4308.00,2.11
4307.00,2.11
4306.00,2.11
4305.00,2.12
4304.00,2.12
4303.00,2.12
4302.00,2.13
4301.00,2.13
4300.00,2.14
4299.00,2.14
4298.00,2.14
4297.00,2.15
4296.00,2.15
4295.00,2.16
4294.00,2.16
4293.00,2.17
4292.00,2.17
4291.00,2.18
4290.00,2.18
4289.00,2.19
4288.00,2.20
4287.00,2.20
4286.00,2.21
4285.00,2.21
4284.00,2.21
4283.00,2.21
4282.00,2.22
4281.00,2.22
4280.00,2.22
4279.00,2.22
4278.00,2.22
4277.00,2.22
4276.00,2.21
4275.00,2.21
4274.00,2.21
4273.00,2.21
4272.00,2.21
4271.00,2.21
4270.00,2.21
4269.00,2.21
4268.00,2.20
4267.00,2.20
4266.00,2.20
4265.00,2.20
4264.00,2.20
4263.00,2.20
4262.00,2.20
4261.00,2.19
4260.00,2.19
4259.00,2.19
4258.00,2.19
4257.00,2.19
4256.00,2.18
4255.00,2.18
4254.00,2.18
4253.00,2.18
4252.00,2.18
4251.00,2.18
4250.00,2.18
4249.00,2.18
4248.00,2.18
4247.00,2.18
4246.00,2.18
4245.00,2.18
4244.00,2.18
4243.00,2.18
4242.00,2.18
4241.00,2.18
4240.00,2.17
4239.00,2.17
4238.00,2.17
4237.00,2.17
4236.00,2.16
4235.00,2.16
4234.00,2.16
4233.00,2.15
4232.00,2.15
4231.00,2.15
4230.00,2.14
4229.00,2.14
4228.00,2.13
4227.00,2.13
4226.00,2.13
4225.00,2.12
4224.00,2.12
4223.00,2.11
4222.00,2.11
4221.00,2.10
4220.00,2.10
4219.00,2.09
4218.00,2.09
4217.00,2.08
4216.00,2.08
4215.00,2.07
4214.00,2.07
4213.00,2.07
4212.00,2.07
4211.00,2.06
4210.00,2.06
4209.00,2.06
4208.00,2.06
4207.00,2.06
4206.00,2.06
4205.00,2.06
4204.00,2.06
4203.00,2.07
4202.00,2.07
4201.00,2.07
4200.00,2.07
4199.00,2.08
4198.00,2.08
4197.00,2.08
4196.00,2.08
4195.00,2.09
4194.00,2.09
4193.00,2.09
4192.00,2.10
4191.00,2.10
4190.00,2.10
4189.00,2.10
4188.00,2.10
4187.00,2.10
4186.00,2.10
4185.00,2.10
4184.00,2.10
4183.00,2.10
4182.00,2.10
4181.00,2.10
4180.00,2.09
4179.00,2.09
4178.00,2.09
4177.00,2.09
4176.00,2.08
4175.00,2.08
4174.00,2.08
4173.00,2.08
4172.00,2.08
4171.00,2.08
4170.00,2.08
4169.00,2.07
4168.00,2.07
4167.00,2.07
4166.00,2.07
4165.00,2.07
4164.00,2.07
4163.00,2.07
4162.00,2.07
4161.00,2.08
4160.00,2.08
4159.00,2.08
4158.00,2.08
4157.00,2.09
4156.00,2.09
4155.00,2.10
4154.00,2.10
4153.00,2.11
4152.00,2.11
4151.00,2.12
4150.00,2.12
4149.00,2.12
4148.00,2.13
4147.00,2.13
4146.00,2.13
4145.00,2.14
4144.00,2.14
4143.00,2.15
4142.00,2.15
4141.00,2.16
4140.00,2.16
4139.00,2.17
4138.00,2.17
4137.00,2.18
4136.00,2.18
4135.00,2.18
4134.00,2.18
4133.00,2.18
4132.00,2.18
4131.00,2.18
4130.00,2.18
4129.00,2.18
4128.00,2.17
4127.00,2.17
4126.00,2.17
4125.00,2.16
4124.00,2.16
4123.00,2.15
4122.00,2.15
4121.00,2.14
4120.00,2.14
4119.00,2.13
4118.00,2.12
4117.00,2.12
4116.00,2.11
4115.00,2.10
4114.00,2.09
4113.00,2.07
4112.00,2.06
4111.00,2.05
4110.00,2.04
4109.00,2.03
4108.00,2.02
4107.00,2.02
4106.00,2.01
4105.00,2.00
4104.00,2.00
4103.00,1.99
4102.00,1.98
4101.00,1.98
4100.00,1.97
4099.00,1.97
4098.00,1.97
4097.00,1.96
4096.00,1.96
4095.00,1.96
4094.00,1.96
4093.00,1.96
4092.00,1.96
4091.00,1.96
4090.00,1.96
4089.00,1.97
4088.00,1.97
4087.00,1.97
4086.00,1.98
4085.00,1.98
4084.00,1.98
4083.00,1.99
4082.00,1.99
4081.00,1.99
4080.00,1.99
4079.00,2.00
4078.00,2.00
4077.00,2.00
4076.00,2.01
4075.00,2.01
4074.00,2.01
4073.00,2.02
4072.00,2.02
4071.00,2.03
4070.00,2.03
4069.00,2.03
4068.00,2.04
4067.00,2.04
4066.00,2.04
4065.00,2.05
4064.00,2.05
4063.00,2.05
4062.00,2.06
4061.00,2.06
4060.00,2.06
4059.00,2.07
4058.00,2.07
4057.00,2.07
4056.00,2.08
4055.00,2.08
4054.00,2.08
4053.00,2.09
4052.00,2.09
4051.00,2.10
4050.00,2.10
4049.00,2.11
4048.00,2.11
4047.00,2.12
4046.00,2.12
4045.00,2.12
4044.00,2.12
4043.00,2.13
4042.00,2.13
4041.00,2.13
4040.00,2.13
4039.00,2.13
4038.00,2.13
4037.00,2.13
4036.00,2.13
4035.00,2.13
4034.00,2.14
4033.00,2.14
4032.00,2.14
4031.00,2.14
4030.00,2.14
4029.00,2.14
4028.00,2.15
4027.00,2.15
4026.00,2.15
4025.00,2.15
4024.00,2.16
4023.00,2.16
4022.00,2.16
4021.00,2.16
4020.00,2.17
4019.00,2.17
4018.00,2.18
4017.00,2.18
4016.00,2.19
4015.00,2.19
4014.00,2.20
4013.00,2.20
4012.00,2.21
4011.00,2.21
4010.00,2.21
4009.00,2.22
4008.00,2.22
4007.00,2.22
4006.00,2.22
4005.00,2.23
4004.00,2.23
4003.00,2.24
4002.00,2.24
4001.00,2.24
4000.00,2.24
