创建为新数据集,样品 983 用户 Administrator 日期 星期二, 七月 30 2019
cm-1,%T
10000.00,1.33
9999.00,1.33
9998.00,1.32
9997.00,1.32
9996.00,1.31
9995.00,1.31
9994.00,1.30
9993.00,1.29
9992.00,1.29
9991.00,1.28
9990.00,1.27
9989.00,1.27
9988.00,1.26
9987.00,1.26
9986.00,1.25
9985.00,1.25
9984.00,1.25
9983.00,1.25
9982.00,1.25
9981.00,1.25
9980.00,1.25
9979.00,1.25
9978.00,1.26
9977.00,1.26
9976.00,1.26
9975.00,1.26
9974.00,1.26
9973.00,1.26
9972.00,1.26
9971.00,1.26
9970.00,1.25
9969.00,1.25
9968.00,1.25
9967.00,1.26
9966.00,1.26
9965.00,1.26
9964.00,1.26
9963.00,1.27
9962.00,1.27
9961.00,1.28
9960.00,1.28
9959.00,1.28
9958.00,1.29
9957.00,1.29
9956.00,1.29
9955.00,1.29
9954.00,1.29
9953.00,1.29
9952.00,1.29
9951.00,1.28
9950.00,1.28
9949.00,1.28
9948.00,1.27
9947.00,1.27
9946.00,1.27
9945.00,1.26
9944.00,1.26
9943.00,1.25
9942.00,1.25
9941.00,1.24
9940.00,1.23
9939.00,1.22
9938.00,1.21
9937.00,1.20
9936.00,1.19
9935.00,1.18
9934.00,1.16
9933.00,1.15
9932.00,1.13
9931.00,1.12
9930.00,1.10
9929.00,1.09
9928.00,1.07
9927.00,1.06
9926.00,1.04
9925.00,1.03
9924.00,1.01
9923.00,1.00
9922.00,0.99
9921.00,0.98
9920.00,0.97
9919.00,0.96
9918.00,0.94
9917.00,0.93
9916.00,0.92
9915.00,0.91
9914.00,0.90
9913.00,0.89
9912.00,0.88
9911.00,0.88
9910.00,0.87
9909.00,0.86
9908.00,0.86
9907.00,0.85
9906.00,0.85
9905.00,0.85
9904.00,0.85
9903.00,0.85
9902.00,0.85
9901.00,0.85
9900.00,0.86
9899.00,0.86
9898.00,0.87
9897.00,0.87
9896.00,0.88
9895.00,0.88
9894.00,0.89
9893.00,0.89
9892.00,0.90
9891.00,0.91
9890.00,0.92
9889.00,0.93
9888.00,0.93
9887.00,0.94
9886.00,0.95
9885.00,0.96
9884.00,0.97
9883.00,0.98
9882.00,0.99
9881.00,1.00
9880.00,1.01
9879.00,1.02
9878.00,1.02
9877.00,1.03
9876.00,1.04
9875.00,1.04
9874.00,1.05
9873.00,1.05
9872.00,1.05
9871.00,1.06
9870.00,1.06
9869.00,1.06
9868.00,1.06
9867.00,1.06
9866.00,1.06
9865.00,1.06
9864.00,1.06
9863.00,1.06
9862.00,1.05
9861.00,1.05
9860.00,1.05
9859.00,1.04
9858.00,1.04
9857.00,1.04
9856.00,1.04
9855.00,1.03
9854.00,1.03
9853.00,1.03
9852.00,1.03
9851.00,1.03
9850.00,1.03
9849.00,1.02
9848.00,1.02
9847.00,1.02
9846.00,1.02
9845.00,1.02
9844.00,1.01
9843.00,1.01
9842.00,1.01
9841.00,1.01
9840.00,1.00
9839.00,1.00
9838.00,1.00
9837.00,1.00
9836.00,1.00
9835.00,1.00
9834.00,1.00
9833.00,1.00
9832.00,1.00
9831.00,1.00
9830.00,1.00
9829.00,1.00
9828.00,1.00
9827.00,1.00
9826.00,1.00
9825.00,1.00
9824.00,0.99
9823.00,0.99
9822.00,0.99
9821.00,0.99
9820.00,1.00
9819.00,1.00
9818.00,1.00
9817.00,1.01
9816.00,1.01
9815.00,1.02
9814.00,1.03
9813.00,1.04
9812.00,1.05
9811.00,1.06
9810.00,1.06
9809.00,1.07
9808.00,1.08
9807.00,1.09
9806.00,1.09
9805.00,1.10
9804.00,1.10
9803.00,1.11
9802.00,1.11
9801.00,1.12
9800.00,1.12
9799.00,1.13
9798.00,1.14
9797.00,1.14
9796.00,1.15
9795.00,1.16
9794.00,1.16
9793.00,1.17
9792.00,1.17
9791.00,1.17
9790.00,1.18
9789.00,1.18
9788.00,1.18
9787.00,1.18
9786.00,1.18
9785.00,1.18
9784.00,1.18
9783.00,1.18
9782.00,1.18
9781.00,1.18
9780.00,1.18
9779.00,1.19
9778.00,1.19
9777.00,1.20
9776.00,1.20
9775.00,1.20
9774.00,1.21
9773.00,1.21
9772.00,1.21
9771.00,1.22
9770.00,1.22
9769.00,1.22
9768.00,1.22
9767.00,1.23
9766.00,1.23
9765.00,1.23
9764.00,1.24
9763.00,1.24
9762.00,1.25
9761.00,1.25
9760.00,1.25
9759.00,1.25
9758.00,1.25
9757.00,1.26
9756.00,1.26
9755.00,1.26
9754.00,1.25
9753.00,1.25
9752.00,1.25
9751.00,1.25
9750.00,1.25
9749.00,1.24
9748.00,1.24
9747.00,1.24
9746.00,1.23
9745.00,1.23
9744.00,1.23
9743.00,1.23
9742.00,1.23
9741.00,1.23
9740.00,1.22
9739.00,1.22
9738.00,1.22
9737.00,1.22
9736.00,1.22
9735.00,1.21
9734.00,1.21
9733.00,1.21
9732.00,1.21
9731.00,1.20
9730.00,1.20
9729.00,1.20
9728.00,1.20
9727.00,1.19
9726.00,1.19
9725.00,1.19
9724.00,1.19
9723.00,1.19
9722.00,1.19
9721.00,1.18
9720.00,1.18
9719.00,1.18
9718.00,1.17
9717.00,1.17
9716.00,1.16
9715.00,1.16
9714.00,1.15
9713.00,1.14
9712.00,1.14
9711.00,1.13
9710.00,1.13
9709.00,1.12
9708.00,1.12
9707.00,1.11
9706.00,1.11
9705.00,1.11
9704.00,1.11
9703.00,1.10
9702.00,1.10
9701.00,1.10
9700.00,1.10
9699.00,1.10
9698.00,1.10
9697.00,1.10
9696.00,1.10
9695.00,1.10
9694.00,1.10
9693.00,1.10
9692.00,1.11
9691.00,1.11
9690.00,1.12
9689.00,1.13
9688.00,1.14
9687.00,1.15
9686.00,1.16
9685.00,1.16
9684.00,1.17
9683.00,1.18
9682.00,1.19
9681.00,1.20
9680.00,1.20
9679.00,1.21
9678.00,1.21
9677.00,1.22
9676.00,1.23
9675.00,1.23
9674.00,1.23
9673.00,1.24
9672.00,1.24
9671.00,1.24
9670.00,1.24
9669.00,1.24
9668.00,1.24
9667.00,1.24
9666.00,1.23
9665.00,1.22
9664.00,1.21
9663.00,1.20
9662.00,1.19
9661.00,1.18
9660.00,1.17
9659.00,1.15
9658.00,1.14
9657.00,1.12
9656.00,1.11
9655.00,1.09
9654.00,1.08
9653.00,1.06
9652.00,1.05
9651.00,1.03
9650.00,1.02
9649.00,1.01
9648.00,0.99
9647.00,0.98
9646.00,0.96
9645.00,0.95
9644.00,0.94
9643.00,0.93
9642.00,0.92
9641.00,0.91
9640.00,0.91
9639.00,0.90
9638.00,0.90
9637.00,0.89
9636.00,0.89
9635.00,0.89
9634.00,0.89
9633.00,0.89
9632.00,0.89
9631.00,0.89
9630.00,0.89
9629.00,0.90
9628.00,0.90
9627.00,0.90
9626.00,0.91
9625.00,0.91
9624.00,0.92
9623.00,0.92
9622.00,0.93
9621.00,0.94
9620.00,0.94
9619.00,0.95
9618.00,0.96
9617.00,0.96
9616.00,0.97
9615.00,0.97
9614.00,0.98
9613.00,0.99
9612.00,0.99
9611.00,0.99
9610.00,1.00
9609.00,1.00
9608.00,1.01
9607.00,1.01
9606.00,1.02
9605.00,1.02
9604.00,1.02
9603.00,1.03
9602.00,1.03
9601.00,1.03
9600.00,1.04
9599.00,1.04
9598.00,1.04
9597.00,1.05
9596.00,1.05
9595.00,1.05
9594.00,1.05
9593.00,1.05
9592.00,1.05
9591.00,1.05
9590.00,1.05
9589.00,1.05
9588.00,1.05
9587.00,1.06
9586.00,1.06
9585.00,1.06
9584.00,1.06
9583.00,1.06
9582.00,1.06
9581.00,1.06
9580.00,1.06
9579.00,1.06
9578.00,1.06
9577.00,1.05
9576.00,1.05
9575.00,1.05
9574.00,1.05
9573.00,1.05
9572.00,1.05
9571.00,1.04
9570.00,1.04
9569.00,1.04
9568.00,1.04
9567.00,1.03
9566.00,1.03
9565.00,1.03
9564.00,1.03
9563.00,1.02
9562.00,1.02
9561.00,1.02
9560.00,1.02
9559.00,1.02
9558.00,1.01
9557.00,1.01
9556.00,1.01
9555.00,1.01
9554.00,1.01
9553.00,1.01
9552.00,1.02
9551.00,1.02
9550.00,1.02
9549.00,1.02
9548.00,1.03
9547.00,1.03
9546.00,1.03
9545.00,1.04
9544.00,1.04
9543.00,1.04
9542.00,1.05
9541.00,1.05
9540.00,1.06
9539.00,1.06
9538.00,1.06
9537.00,1.07
9536.00,1.07
9535.00,1.07
9534.00,1.08
9533.00,1.08
9532.00,1.09
9531.00,1.09
9530.00,1.09
9529.00,1.10
9528.00,1.10
9527.00,1.10
9526.00,1.11
9525.00,1.11
9524.00,1.11
9523.00,1.11
9522.00,1.11
9521.00,1.11
9520.00,1.11
9519.00,1.12
9518.00,1.12
9517.00,1.12
9516.00,1.12
9515.00,1.12
9514.00,1.12
9513.00,1.13
9512.00,1.13
9511.00,1.13
9510.00,1.13
9509.00,1.13
9508.00,1.13
9507.00,1.13
9506.00,1.14
9505.00,1.14
9504.00,1.14
9503.00,1.14
9502.00,1.14
9501.00,1.14
9500.00,1.14
9499.00,1.14
9498.00,1.14
9497.00,1.14
9496.00,1.14
9495.00,1.14
9494.00,1.14
9493.00,1.15
9492.00,1.15
9491.00,1.15
9490.00,1.15
9489.00,1.15
9488.00,1.15
9487.00,1.15
9486.00,1.14
9485.00,1.14
9484.00,1.14
9483.00,1.14
9482.00,1.14
9481.00,1.13
9480.00,1.13
9479.00,1.13
9478.00,1.13
9477.00,1.12
9476.00,1.12
9475.00,1.11
9474.00,1.11
9473.00,1.10
9472.00,1.09
9471.00,1.08
9470.00,1.07
9469.00,1.06
9468.00,1.05
9467.00,1.05
9466.00,1.04
9465.00,1.03
9464.00,1.02
9463.00,1.01
9462.00,1.01
9461.00,1.00
9460.00,0.99
9459.00,0.99
9458.00,0.98
9457.00,0.98
9456.00,0.97
9455.00,0.97
9454.00,0.97
9453.00,0.96
9452.00,0.96
9451.00,0.96
9450.00,0.96
9449.00,0.96
9448.00,0.97
9447.00,0.97
9446.00,0.97
9445.00,0.98
9444.00,0.98
9443.00,0.99
9442.00,0.99
9441.00,1.00
9440.00,1.00
9439.00,1.01
9438.00,1.01
9437.00,1.02
9436.00,1.02
9435.00,1.02
9434.00,1.03
9433.00,1.03
9432.00,1.04
9431.00,1.04
9430.00,1.04
9429.00,1.05
9428.00,1.05
9427.00,1.05
9426.00,1.05
9425.00,1.05
9424.00,1.05
9423.00,1.05
9422.00,1.05
9421.00,1.05
9420.00,1.05
9419.00,1.04
9418.00,1.04
9417.00,1.04
9416.00,1.04
9415.00,1.03
9414.00,1.03
9413.00,1.03
9412.00,1.03
9411.00,1.03
9410.00,1.03
9409.00,1.03
9408.00,1.03
9407.00,1.02
9406.00,1.02
9405.00,1.02
9404.00,1.02
9403.00,1.02
9402.00,1.02
9401.00,1.02
9400.00,1.02
9399.00,1.03
9398.00,1.03
9397.00,1.03
9396.00,1.03
9395.00,1.03
9394.00,1.04
9393.00,1.04
9392.00,1.05
9391.00,1.05
9390.00,1.06
9389.00,1.06
9388.00,1.07
9387.00,1.07
9386.00,1.08
9385.00,1.08
9384.00,1.08
9383.00,1.09
9382.00,1.09
9381.00,1.09
9380.00,1.09
9379.00,1.09
9378.00,1.09
9377.00,1.09
9376.00,1.09
9375.00,1.09
9374.00,1.09
9373.00,1.09
9372.00,1.08
9371.00,1.08
9370.00,1.08
9369.00,1.08
9368.00,1.08
9367.00,1.07
9366.00,1.07
9365.00,1.07
9364.00,1.06
9363.00,1.06
9362.00,1.05
9361.00,1.05
9360.00,1.05
9359.00,1.05
9358.00,1.04
9357.00,1.04
9356.00,1.04
9355.00,1.04
9354.00,1.04
9353.00,1.04
9352.00,1.05
9351.00,1.05
9350.00,1.05
9349.00,1.05
9348.00,1.05
9347.00,1.06
9346.00,1.06
9345.00,1.06
9344.00,1.07
9343.00,1.07
9342.00,1.07
9341.00,1.08
9340.00,1.08
9339.00,1.09
9338.00,1.09
9337.00,1.10
9336.00,1.10
9335.00,1.11
9334.00,1.11
9333.00,1.11
9332.00,1.12
9331.00,1.12
9330.00,1.12
9329.00,1.13
9328.00,1.13
9327.00,1.13
9326.00,1.13
9325.00,1.13
9324.00,1.13
9323.00,1.13
9322.00,1.14
9321.00,1.14
9320.00,1.14
9319.00,1.15
9318.00,1.15
9317.00,1.15
9316.00,1.16
9315.00,1.16
9314.00,1.16
9313.00,1.16
9312.00,1.16
9311.00,1.16
9310.00,1.16
9309.00,1.16
9308.00,1.16
9307.00,1.16
9306.00,1.16
9305.00,1.16
9304.00,1.16
9303.00,1.16
9302.00,1.16
9301.00,1.16
9300.00,1.17
9299.00,1.17
9298.00,1.17
9297.00,1.17
9296.00,1.17
9295.00,1.17
9294.00,1.16
9293.00,1.16
9292.00,1.16
9291.00,1.16
9290.00,1.15
9289.00,1.15
9288.00,1.15
9287.00,1.15
9286.00,1.14
9285.00,1.14
9284.00,1.14
9283.00,1.14
9282.00,1.14
9281.00,1.13
9280.00,1.13
9279.00,1.13
9278.00,1.13
9277.00,1.13
9276.00,1.13
9275.00,1.13
9274.00,1.13
9273.00,1.13
9272.00,1.13
9271.00,1.13
9270.00,1.13
9269.00,1.14
9268.00,1.14
9267.00,1.14
9266.00,1.14
9265.00,1.14
9264.00,1.14
9263.00,1.15
9262.00,1.15
9261.00,1.15
9260.00,1.15
9259.00,1.15
9258.00,1.15
9257.00,1.15
9256.00,1.15
9255.00,1.15
9254.00,1.15
9253.00,1.15
9252.00,1.15
9251.00,1.15
9250.00,1.14
9249.00,1.14
9248.00,1.14
9247.00,1.14
9246.00,1.13
9245.00,1.13
9244.00,1.12
9243.00,1.12
9242.00,1.11
9241.00,1.11
9240.00,1.10
9239.00,1.10
9238.00,1.09
9237.00,1.09
9236.00,1.09
9235.00,1.08
9234.00,1.08
9233.00,1.08
9232.00,1.07
9231.00,1.07
9230.00,1.07
9229.00,1.07
9228.00,1.06
9227.00,1.06
9226.00,1.06
9225.00,1.05
9224.00,1.05
9223.00,1.05
9222.00,1.04
9221.00,1.04
9220.00,1.04
9219.00,1.04
9218.00,1.04
9217.00,1.04
9216.00,1.04
9215.00,1.04
9214.00,1.04
9213.00,1.05
9212.00,1.05
9211.00,1.05
9210.00,1.05
9209.00,1.05
9208.00,1.05
9207.00,1.06
9206.00,1.06
9205.00,1.06
9204.00,1.06
9203.00,1.06
9202.00,1.07
9201.00,1.07
9200.00,1.07
9199.00,1.08
9198.00,1.08
9197.00,1.09
9196.00,1.09
9195.00,1.09
9194.00,1.10
9193.00,1.10
9192.00,1.10
9191.00,1.10
9190.00,1.11
9189.00,1.11
9188.00,1.11
9187.00,1.12
9186.00,1.12
9185.00,1.12
9184.00,1.13
9183.00,1.13
9182.00,1.14
9181.00,1.14
9180.00,1.15
9179.00,1.15
9178.00,1.16
9177.00,1.16
9176.00,1.17
9175.00,1.17
9174.00,1.18
9173.00,1.18
9172.00,1.18
9171.00,1.19
9170.00,1.19
9169.00,1.20
9168.00,1.20
9167.00,1.21
9166.00,1.21
9165.00,1.21
9164.00,1.22
9163.00,1.22
9162.00,1.22
9161.00,1.22
9160.00,1.22
9159.00,1.22
9158.00,1.22
9157.00,1.22
9156.00,1.22
9155.00,1.22
9154.00,1.22
9153.00,1.22
9152.00,1.22
9151.00,1.22
9150.00,1.22
9149.00,1.22
9148.00,1.22
9147.00,1.22
9146.00,1.21
9145.00,1.21
9144.00,1.21
9143.00,1.21
9142.00,1.20
9141.00,1.20
9140.00,1.20
9139.00,1.20
9138.00,1.20
9137.00,1.20
9136.00,1.20
9135.00,1.20
9134.00,1.20
9133.00,1.20
9132.00,1.20
9131.00,1.20
9130.00,1.20
9129.00,1.20
9128.00,1.20
9127.00,1.20
9126.00,1.19
9125.00,1.19
9124.00,1.19
9123.00,1.19
9122.00,1.18
9121.00,1.18
9120.00,1.18
9119.00,1.18
9118.00,1.18
9117.00,1.18
9116.00,1.18
9115.00,1.18
9114.00,1.18
9113.00,1.18
9112.00,1.18
9111.00,1.17
9110.00,1.17
9109.00,1.17
9108.00,1.16
9107.00,1.16
9106.00,1.16
9105.00,1.15
9104.00,1.15
9103.00,1.15
9102.00,1.15
9101.00,1.15
9100.00,1.15
9099.00,1.16
9098.00,1.16
9097.00,1.16
9096.00,1.16
9095.00,1.16
9094.00,1.15
9093.00,1.15
9092.00,1.15
9091.00,1.15
9090.00,1.14
9089.00,1.14
9088.00,1.14
9087.00,1.13
9086.00,1.13
9085.00,1.13
9084.00,1.12
9083.00,1.12
9082.00,1.11
9081.00,1.11
9080.00,1.11
9079.00,1.10
9078.00,1.10
9077.00,1.09
9076.00,1.09
9075.00,1.08
9074.00,1.08
9073.00,1.07
9072.00,1.07
9071.00,1.06
9070.00,1.06
9069.00,1.06
9068.00,1.06
9067.00,1.05
9066.00,1.05
9065.00,1.05
9064.00,1.05
9063.00,1.05
9062.00,1.05
9061.00,1.05
9060.00,1.06
9059.00,1.06
9058.00,1.06
9057.00,1.07
9056.00,1.07
9055.00,1.08
9054.00,1.08
9053.00,1.09
9052.00,1.10
9051.00,1.10
9050.00,1.11
9049.00,1.11
9048.00,1.12
9047.00,1.12
9046.00,1.13
9045.00,1.13
9044.00,1.14
9043.00,1.14
9042.00,1.15
9041.00,1.15
9040.00,1.16
9039.00,1.16
9038.00,1.17
9037.00,1.17
9036.00,1.18
9035.00,1.18
9034.00,1.19
9033.00,1.19
9032.00,1.20
9031.00,1.20
9030.00,1.20
9029.00,1.21
9028.00,1.21
9027.00,1.21
9026.00,1.22
9025.00,1.22
9024.00,1.22
9023.00,1.22
9022.00,1.22
9021.00,1.22
9020.00,1.22
9019.00,1.22
9018.00,1.22
9017.00,1.22
9016.00,1.22
9015.00,1.21
9014.00,1.21
9013.00,1.21
9012.00,1.20
9011.00,1.20
9010.00,1.19
9009.00,1.19
9008.00,1.18
9007.00,1.18
9006.00,1.17
9005.00,1.17
9004.00,1.16
9003.00,1.15
9002.00,1.14
9001.00,1.13
9000.00,1.13
8999.00,1.12
8998.00,1.11
8997.00,1.10
8996.00,1.09
8995.00,1.08
8994.00,1.08
8993.00,1.07
8992.00,1.06
8991.00,1.06
8990.00,1.05
8989.00,1.05
8988.00,1.05
8987.00,1.04
8986.00,1.04
8985.00,1.04
8984.00,1.04
8983.00,1.04
8982.00,1.04
8981.00,1.04
8980.00,1.04
8979.00,1.04
8978.00,1.04
8977.00,1.04
8976.00,1.05
8975.00,1.05
8974.00,1.05
8973.00,1.06
8972.00,1.06
8971.00,1.07
8970.00,1.07
8969.00,1.08
8968.00,1.09
8967.00,1.09
8966.00,1.10
8965.00,1.11
8964.00,1.11
8963.00,1.11
8962.00,1.12
8961.00,1.12
8960.00,1.12
8959.00,1.13
8958.00,1.13
8957.00,1.13
8956.00,1.13
8955.00,1.13
8954.00,1.13
8953.00,1.13
8952.00,1.13
8951.00,1.13
8950.00,1.14
8949.00,1.14
8948.00,1.13
8947.00,1.13
8946.00,1.13
8945.00,1.13
8944.00,1.13
8943.00,1.13
8942.00,1.13
8941.00,1.13
8940.00,1.13
8939.00,1.13
8938.00,1.13
8937.00,1.13
8936.00,1.13
8935.00,1.13
8934.00,1.13
8933.00,1.13
8932.00,1.14
8931.00,1.14
8930.00,1.14
8929.00,1.14
8928.00,1.14
8927.00,1.14
8926.00,1.14
8925.00,1.15
8924.00,1.15
8923.00,1.15
8922.00,1.15
8921.00,1.15
8920.00,1.15
8919.00,1.16
8918.00,1.16
8917.00,1.16
8916.00,1.16
8915.00,1.16
8914.00,1.16
8913.00,1.15
8912.00,1.15
8911.00,1.15
8910.00,1.14
8909.00,1.14
8908.00,1.13
8907.00,1.13
8906.00,1.12
8905.00,1.12
8904.00,1.11
8903.00,1.11
8902.00,1.11
8901.00,1.10
8900.00,1.10
8899.00,1.10
8898.00,1.10
8897.00,1.09
8896.00,1.09
8895.00,1.09
8894.00,1.09
8893.00,1.08
8892.00,1.08
8891.00,1.08
8890.00,1.07
8889.00,1.07
8888.00,1.07
8887.00,1.07
8886.00,1.07
8885.00,1.07
8884.00,1.07
8883.00,1.07
8882.00,1.07
8881.00,1.08
8880.00,1.08
8879.00,1.08
8878.00,1.08
8877.00,1.08
8876.00,1.08
8875.00,1.08
8874.00,1.08
8873.00,1.08
8872.00,1.08
8871.00,1.08
8870.00,1.08
8869.00,1.08
8868.00,1.08
8867.00,1.08
8866.00,1.08
8865.00,1.08
8864.00,1.08
8863.00,1.07
8862.00,1.07
8861.00,1.07
8860.00,1.07
8859.00,1.07
8858.00,1.07
8857.00,1.07
8856.00,1.07
8855.00,1.07
8854.00,1.07
8853.00,1.07
8852.00,1.08
8851.00,1.08
8850.00,1.08
8849.00,1.08
8848.00,1.08
8847.00,1.08
8846.00,1.09
8845.00,1.09
8844.00,1.09
8843.00,1.09
8842.00,1.09
8841.00,1.09
8840.00,1.10
8839.00,1.10
8838.00,1.10
8837.00,1.11
8836.00,1.11
8835.00,1.12
8834.00,1.12
8833.00,1.12
8832.00,1.13
8831.00,1.13
8830.00,1.13
8829.00,1.14
8828.00,1.14
8827.00,1.14
8826.00,1.14
8825.00,1.14
8824.00,1.14
8823.00,1.14
8822.00,1.14
8821.00,1.14
8820.00,1.14
8819.00,1.14
8818.00,1.14
8817.00,1.14
8816.00,1.14
8815.00,1.14
8814.00,1.14
8813.00,1.13
8812.00,1.13
8811.00,1.13
8810.00,1.12
8809.00,1.12
8808.00,1.11
8807.00,1.11
8806.00,1.11
8805.00,1.10
8804.00,1.10
8803.00,1.09
8802.00,1.09
8801.00,1.09
8800.00,1.09
8799.00,1.09
8798.00,1.09
8797.00,1.09
8796.00,1.09
8795.00,1.09
8794.00,1.09
8793.00,1.09
8792.00,1.09
8791.00,1.10
8790.00,1.10
8789.00,1.10
8788.00,1.10
8787.00,1.11
8786.00,1.11
8785.00,1.11
8784.00,1.11
8783.00,1.12
8782.00,1.12
8781.00,1.12
8780.00,1.12
8779.00,1.12
8778.00,1.12
8777.00,1.12
8776.00,1.12
8775.00,1.12
8774.00,1.12
8773.00,1.12
8772.00,1.11
8771.00,1.11
8770.00,1.11
8769.00,1.10
8768.00,1.10
8767.00,1.10
8766.00,1.09
8765.00,1.09
8764.00,1.09
8763.00,1.09
8762.00,1.09
8761.00,1.09
8760.00,1.09
8759.00,1.09
8758.00,1.10
8757.00,1.10
8756.00,1.10
8755.00,1.10
8754.00,1.11
8753.00,1.11
8752.00,1.12
8751.00,1.12
8750.00,1.12
8749.00,1.13
8748.00,1.13
8747.00,1.14
8746.00,1.14
8745.00,1.15
8744.00,1.15
8743.00,1.16
8742.00,1.16
8741.00,1.16
8740.00,1.16
8739.00,1.17
8738.00,1.17
8737.00,1.17
8736.00,1.16
8735.00,1.16
8734.00,1.16
8733.00,1.16
8732.00,1.15
8731.00,1.15
8730.00,1.15
8729.00,1.14
8728.00,1.14
8727.00,1.13
8726.00,1.13
8725.00,1.13
8724.00,1.12
8723.00,1.12
8722.00,1.12
8721.00,1.11
8720.00,1.11
8719.00,1.11
8718.00,1.11
8717.00,1.10
8716.00,1.10
8715.00,1.10
8714.00,1.10
8713.00,1.10
8712.00,1.10
8711.00,1.10
8710.00,1.10
8709.00,1.10
8708.00,1.10
8707.00,1.10
8706.00,1.10
8705.00,1.10
8704.00,1.10
8703.00,1.10
8702.00,1.10
8701.00,1.10
8700.00,1.10
8699.00,1.10
8698.00,1.10
8697.00,1.10
8696.00,1.10
8695.00,1.10
8694.00,1.10
8693.00,1.10
8692.00,1.10
8691.00,1.09
8690.00,1.09
8689.00,1.09
8688.00,1.09
8687.00,1.09
8686.00,1.09
8685.00,1.09
8684.00,1.09
8683.00,1.09
8682.00,1.10
8681.00,1.10
8680.00,1.10
8679.00,1.10
8678.00,1.10
8677.00,1.10
8676.00,1.10
8675.00,1.11
8674.00,1.11
8673.00,1.11
8672.00,1.11
8671.00,1.12
8670.00,1.12
8669.00,1.12
8668.00,1.13
8667.00,1.13
8666.00,1.13
8665.00,1.14
8664.00,1.14
8663.00,1.14
8662.00,1.14
8661.00,1.14
8660.00,1.14
8659.00,1.14
8658.00,1.13
8657.00,1.13
8656.00,1.13
8655.00,1.13
8654.00,1.12
8653.00,1.12
8652.00,1.12
8651.00,1.12
8650.00,1.11
8649.00,1.11
8648.00,1.11
8647.00,1.11
8646.00,1.10
8645.00,1.10
8644.00,1.10
8643.00,1.10
8642.00,1.10
8641.00,1.10
8640.00,1.09
8639.00,1.09
8638.00,1.09
8637.00,1.10
8636.00,1.10
8635.00,1.10
8634.00,1.10
8633.00,1.11
8632.00,1.11
8631.00,1.11
8630.00,1.12
8629.00,1.12
8628.00,1.13
8627.00,1.13
8626.00,1.13
8625.00,1.14
8624.00,1.14
8623.00,1.14
8622.00,1.14
8621.00,1.14
8620.00,1.15
8619.00,1.15
8618.00,1.15
8617.00,1.15
8616.00,1.15
8615.00,1.15
8614.00,1.14
8613.00,1.14
8612.00,1.14
8611.00,1.14
8610.00,1.14
8609.00,1.14
8608.00,1.13
8607.00,1.13
8606.00,1.13
8605.00,1.12
8604.00,1.12
8603.00,1.11
8602.00,1.11
8601.00,1.11
8600.00,1.10
8599.00,1.10
8598.00,1.10
8597.00,1.09
8596.00,1.09
8595.00,1.09
8594.00,1.09
8593.00,1.09
8592.00,1.09
8591.00,1.08
8590.00,1.08
8589.00,1.08
8588.00,1.08
8587.00,1.08
8586.00,1.08
8585.00,1.08
8584.00,1.08
8583.00,1.08
8582.00,1.08
8581.00,1.08
8580.00,1.08
8579.00,1.08
8578.00,1.08
8577.00,1.08
8576.00,1.08
8575.00,1.08
8574.00,1.08
8573.00,1.08
8572.00,1.09
8571.00,1.09
8570.00,1.09
8569.00,1.09
8568.00,1.09
8567.00,1.09
8566.00,1.10
8565.00,1.10
8564.00,1.10
8563.00,1.10
8562.00,1.10
8561.00,1.11
8560.00,1.11
8559.00,1.11
8558.00,1.11
8557.00,1.11
8556.00,1.11
8555.00,1.11
8554.00,1.11
8553.00,1.12
8552.00,1.12
8551.00,1.12
8550.00,1.12
8549.00,1.13
8548.00,1.13
8547.00,1.13
8546.00,1.14
8545.00,1.14
8544.00,1.14
8543.00,1.15
8542.00,1.15
8541.00,1.15
8540.00,1.16
8539.00,1.16
8538.00,1.16
8537.00,1.17
8536.00,1.17
8535.00,1.18
8534.00,1.18
8533.00,1.19
8532.00,1.19
8531.00,1.20
8530.00,1.20
8529.00,1.21
8528.00,1.22
8527.00,1.22
8526.00,1.23
8525.00,1.23
8524.00,1.23
8523.00,1.23
8522.00,1.24
8521.00,1.24
8520.00,1.24
8519.00,1.24
8518.00,1.24
8517.00,1.24
8516.00,1.24
8515.00,1.24
8514.00,1.24
8513.00,1.24
8512.00,1.24
8511.00,1.24
8510.00,1.24
8509.00,1.24
8508.00,1.24
8507.00,1.24
8506.00,1.23
8505.00,1.23
8504.00,1.23
8503.00,1.22
8502.00,1.22
8501.00,1.21
8500.00,1.21
8499.00,1.20
8498.00,1.20
8497.00,1.20
8496.00,1.19
8495.00,1.19
8494.00,1.19
8493.00,1.18
8492.00,1.18
8491.00,1.18
8490.00,1.17
8489.00,1.17
8488.00,1.17
8487.00,1.16
8486.00,1.16
8485.00,1.16
8484.00,1.16
8483.00,1.15
8482.00,1.15
8481.00,1.15
8480.00,1.15
8479.00,1.14
8478.00,1.14
8477.00,1.14
8476.00,1.15
8475.00,1.15
8474.00,1.15
8473.00,1.15
8472.00,1.16
8471.00,1.16
8470.00,1.16
8469.00,1.17
8468.00,1.17
8467.00,1.17
8466.00,1.18
8465.00,1.18
8464.00,1.18
8463.00,1.19
8462.00,1.19
8461.00,1.19
8460.00,1.20
8459.00,1.20
8458.00,1.20
8457.00,1.20
8456.00,1.20
8455.00,1.20
8454.00,1.20
8453.00,1.20
8452.00,1.20
8451.00,1.20
8450.00,1.20
8449.00,1.20
8448.00,1.19
8447.00,1.19
8446.00,1.19
8445.00,1.18
8444.00,1.18
8443.00,1.18
8442.00,1.17
8441.00,1.17
8440.00,1.16
8439.00,1.16
8438.00,1.15
8437.00,1.15
8436.00,1.14
8435.00,1.14
8434.00,1.14
8433.00,1.13
8432.00,1.13
8431.00,1.13
8430.00,1.13
8429.00,1.12
8428.00,1.12
8427.00,1.12
8426.00,1.12
8425.00,1.12
8424.00,1.12
8423.00,1.12
8422.00,1.12
8421.00,1.12
8420.00,1.12
8419.00,1.13
8418.00,1.13
8417.00,1.13
8416.00,1.13
8415.00,1.13
8414.00,1.14
8413.00,1.14
8412.00,1.14
8411.00,1.15
8410.00,1.15
8409.00,1.15
8408.00,1.16
8407.00,1.16
8406.00,1.17
8405.00,1.17
8404.00,1.18
8403.00,1.18
8402.00,1.19
8401.00,1.19
8400.00,1.20
8399.00,1.20
8398.00,1.21
8397.00,1.21
8396.00,1.22
8395.00,1.22
8394.00,1.22
8393.00,1.23
8392.00,1.23
8391.00,1.23
8390.00,1.24
8389.00,1.24
8388.00,1.24
8387.00,1.24
8386.00,1.25
8385.00,1.25
8384.00,1.25
8383.00,1.25
8382.00,1.25
8381.00,1.25
8380.00,1.25
8379.00,1.24
8378.00,1.24
8377.00,1.24
8376.00,1.24
8375.00,1.23
8374.00,1.23
8373.00,1.23
8372.00,1.22
8371.00,1.22
8370.00,1.21
8369.00,1.21
8368.00,1.21
8367.00,1.20
8366.00,1.20
8365.00,1.19
8364.00,1.19
8363.00,1.18
8362.00,1.18
8361.00,1.18
8360.00,1.17
8359.00,1.17
8358.00,1.16
8357.00,1.16
8356.00,1.16
8355.00,1.15
8354.00,1.15
8353.00,1.14
8352.00,1.14
8351.00,1.14
8350.00,1.14
8349.00,1.13
8348.00,1.13
8347.00,1.13
8346.00,1.13
8345.00,1.13
8344.00,1.12
8343.00,1.12
8342.00,1.12
8341.00,1.12
8340.00,1.12
8339.00,1.12
8338.00,1.12
8337.00,1.11
8336.00,1.11
8335.00,1.11
8334.00,1.11
8333.00,1.11
8332.00,1.11
8331.00,1.12
8330.00,1.12
8329.00,1.12
8328.00,1.12
8327.00,1.12
8326.00,1.12
8325.00,1.12
8324.00,1.12
8323.00,1.11
8322.00,1.11
8321.00,1.11
8320.00,1.11
8319.00,1.11
8318.00,1.11
8317.00,1.11
8316.00,1.11
8315.00,1.12
8314.00,1.12
8313.00,1.12
8312.00,1.12
8311.00,1.12
8310.00,1.12
8309.00,1.12
8308.00,1.12
8307.00,1.12
8306.00,1.12
8305.00,1.12
8304.00,1.12
8303.00,1.12
8302.00,1.12
8301.00,1.12
8300.00,1.12
8299.00,1.12
8298.00,1.12
8297.00,1.12
8296.00,1.12
8295.00,1.12
8294.00,1.12
8293.00,1.12
8292.00,1.13
8291.00,1.13
8290.00,1.13
8289.00,1.13
8288.00,1.13
8287.00,1.13
8286.00,1.13
8285.00,1.13
8284.00,1.13
8283.00,1.13
8282.00,1.13
8281.00,1.14
8280.00,1.14
8279.00,1.14
8278.00,1.14
8277.00,1.14
8276.00,1.14
8275.00,1.14
8274.00,1.14
8273.00,1.15
8272.00,1.15
8271.00,1.15
8270.00,1.15
8269.00,1.15
8268.00,1.16
8267.00,1.16
8266.00,1.16
8265.00,1.16
8264.00,1.17
8263.00,1.17
8262.00,1.17
8261.00,1.18
8260.00,1.18
8259.00,1.19
8258.00,1.19
8257.00,1.20
8256.00,1.20
8255.00,1.21
8254.00,1.21
8253.00,1.22
8252.00,1.23
8251.00,1.23
8250.00,1.24
8249.00,1.24
8248.00,1.24
8247.00,1.25
8246.00,1.25
8245.00,1.25
8244.00,1.26
8243.00,1.26
8242.00,1.26
8241.00,1.26
8240.00,1.26
8239.00,1.26
8238.00,1.26
8237.00,1.26
8236.00,1.26
8235.00,1.26
8234.00,1.25
8233.00,1.25
8232.00,1.25
8231.00,1.25
8230.00,1.24
8229.00,1.24
8228.00,1.23
8227.00,1.23
8226.00,1.22
8225.00,1.21
8224.00,1.21
8223.00,1.20
8222.00,1.20
8221.00,1.19
8220.00,1.19
8219.00,1.18
8218.00,1.18
8217.00,1.17
8216.00,1.17
8215.00,1.16
8214.00,1.16
8213.00,1.16
8212.00,1.15
8211.00,1.15
8210.00,1.15
8209.00,1.15
8208.00,1.14
8207.00,1.14
8206.00,1.14
8205.00,1.14
8204.00,1.14
8203.00,1.13
8202.00,1.13
8201.00,1.13
8200.00,1.13
8199.00,1.13
8198.00,1.13
8197.00,1.13
8196.00,1.14
8195.00,1.14
8194.00,1.14
8193.00,1.14
8192.00,1.14
8191.00,1.14
8190.00,1.14
8189.00,1.14
8188.00,1.14
8187.00,1.14
8186.00,1.14
8185.00,1.14
8184.00,1.14
8183.00,1.14
8182.00,1.14
8181.00,1.14
8180.00,1.14
8179.00,1.14
8178.00,1.14
8177.00,1.14
8176.00,1.14
8175.00,1.14
8174.00,1.14
8173.00,1.14
8172.00,1.14
8171.00,1.14
8170.00,1.14
8169.00,1.15
8168.00,1.15
8167.00,1.15
8166.00,1.15
8165.00,1.15
8164.00,1.15
8163.00,1.15
8162.00,1.15
8161.00,1.15
8160.00,1.15
8159.00,1.15
8158.00,1.15
8157.00,1.16
8156.00,1.16
8155.00,1.16
8154.00,1.16
8153.00,1.16
8152.00,1.17
8151.00,1.17
8150.00,1.17
8149.00,1.18
8148.00,1.18
8147.00,1.18
8146.00,1.18
8145.00,1.18
8144.00,1.19
8143.00,1.19
8142.00,1.19
8141.00,1.19
8140.00,1.19
8139.00,1.19
8138.00,1.19
8137.00,1.19
8136.00,1.19
8135.00,1.19
8134.00,1.19
8133.00,1.19
8132.00,1.19
8131.00,1.18
8130.00,1.18
8129.00,1.18
8128.00,1.17
8127.00,1.17
8126.00,1.17
8125.00,1.16
8124.00,1.16
8123.00,1.15
8122.00,1.15
8121.00,1.14
8120.00,1.14
8119.00,1.13
8118.00,1.13
8117.00,1.12
8116.00,1.12
8115.00,1.12
8114.00,1.11
8113.00,1.11
8112.00,1.11
8111.00,1.11
8110.00,1.11
8109.00,1.11
8108.00,1.11
8107.00,1.11
8106.00,1.11
8105.00,1.11
8104.00,1.11
8103.00,1.11
8102.00,1.11
8101.00,1.12
8100.00,1.12
8099.00,1.12
8098.00,1.12
8097.00,1.13
8096.00,1.13
8095.00,1.14
8094.00,1.14
8093.00,1.14
8092.00,1.15
8091.00,1.15
8090.00,1.15
8089.00,1.16
8088.00,1.16
8087.00,1.16
8086.00,1.16
8085.00,1.16
8084.00,1.17
8083.00,1.17
8082.00,1.17
8081.00,1.17
8080.00,1.17
8079.00,1.17
8078.00,1.17
8077.00,1.17
8076.00,1.17
8075.00,1.17
8074.00,1.17
8073.00,1.17
8072.00,1.17
8071.00,1.17
8070.00,1.17
8069.00,1.16
8068.00,1.16
8067.00,1.16
8066.00,1.16
8065.00,1.15
8064.00,1.15
8063.00,1.15
8062.00,1.14
8061.00,1.14
8060.00,1.14
8059.00,1.13
8058.00,1.13
8057.00,1.12
8056.00,1.12
8055.00,1.11
8054.00,1.11
8053.00,1.11
8052.00,1.10
8051.00,1.10
8050.00,1.09
8049.00,1.09
8048.00,1.08
8047.00,1.07
8046.00,1.07
8045.00,1.06
8044.00,1.06
8043.00,1.06
8042.00,1.05
8041.00,1.05
8040.00,1.05
8039.00,1.05
8038.00,1.05
8037.00,1.04
8036.00,1.04
8035.00,1.04
8034.00,1.05
8033.00,1.05
8032.00,1.05
8031.00,1.05
8030.00,1.06
8029.00,1.06
8028.00,1.06
8027.00,1.07
8026.00,1.07
8025.00,1.08
8024.00,1.08
8023.00,1.09
8022.00,1.09
8021.00,1.10
8020.00,1.11
8019.00,1.11
8018.00,1.12
8017.00,1.12
8016.00,1.13
8015.00,1.14
8014.00,1.14
8013.00,1.15
8012.00,1.15
8011.00,1.16
8010.00,1.16
8009.00,1.17
8008.00,1.17
8007.00,1.18
8006.00,1.18
8005.00,1.19
8004.00,1.19
8003.00,1.20
8002.00,1.20
8001.00,1.20
8000.00,1.20
7999.00,1.21
7998.00,1.21
7997.00,1.21
7996.00,1.21
7995.00,1.21
7994.00,1.22
7993.00,1.22
7992.00,1.22
7991.00,1.22
7990.00,1.22
7989.00,1.22
7988.00,1.22
7987.00,1.21
7986.00,1.21
7985.00,1.21
7984.00,1.21
7983.00,1.21
7982.00,1.21
7981.00,1.21
7980.00,1.21
7979.00,1.21
7978.00,1.20
7977.00,1.20
7976.00,1.20
7975.00,1.20
7974.00,1.20
7973.00,1.19
7972.00,1.19
7971.00,1.19
7970.00,1.19
7969.00,1.19
7968.00,1.18
7967.00,1.18
7966.00,1.18
7965.00,1.18
7964.00,1.18
7963.00,1.18
7962.00,1.18
7961.00,1.18
7960.00,1.18
7959.00,1.19
7958.00,1.19
7957.00,1.19
7956.00,1.19
7955.00,1.20
7954.00,1.20
7953.00,1.20
7952.00,1.20
7951.00,1.21
7950.00,1.21
7949.00,1.21
7948.00,1.22
7947.00,1.22
7946.00,1.22
7945.00,1.23
7944.00,1.23
7943.00,1.24
7942.00,1.24
7941.00,1.24
7940.00,1.25
7939.00,1.25
7938.00,1.25
7937.00,1.26
7936.00,1.26
7935.00,1.26
7934.00,1.26
7933.00,1.26
7932.00,1.26
7931.00,1.26
7930.00,1.26
7929.00,1.25
7928.00,1.25
7927.00,1.25
7926.00,1.25
7925.00,1.25
7924.00,1.25
7923.00,1.25
7922.00,1.25
7921.00,1.24
7920.00,1.24
7919.00,1.24
7918.00,1.24
7917.00,1.24
7916.00,1.24
7915.00,1.23
7914.00,1.23
7913.00,1.23
7912.00,1.23
7911.00,1.22
7910.00,1.22
7909.00,1.22
7908.00,1.22
7907.00,1.22
7906.00,1.22
7905.00,1.21
7904.00,1.21
7903.00,1.21
7902.00,1.21
7901.00,1.21
7900.00,1.20
7899.00,1.20
7898.00,1.20
7897.00,1.20
7896.00,1.19
7895.00,1.19
7894.00,1.19
7893.00,1.19
7892.00,1.19
7891.00,1.19
7890.00,1.18
7889.00,1.18
7888.00,1.18
7887.00,1.18
7886.00,1.18
7885.00,1.18
7884.00,1.18
7883.00,1.18
7882.00,1.18
7881.00,1.18
7880.00,1.18
7879.00,1.18
7878.00,1.19
7877.00,1.19
7876.00,1.19
7875.00,1.20
7874.00,1.20
7873.00,1.20
7872.00,1.20
7871.00,1.21
7870.00,1.21
7869.00,1.22
7868.00,1.22
7867.00,1.22
7866.00,1.23
7865.00,1.23
7864.00,1.23
7863.00,1.24
7862.00,1.24
7861.00,1.24
7860.00,1.24
7859.00,1.24
7858.00,1.25
7857.00,1.25
7856.00,1.25
7855.00,1.25
7854.00,1.25
7853.00,1.25
7852.00,1.25
7851.00,1.25
7850.00,1.25
7849.00,1.25
7848.00,1.25
7847.00,1.25
7846.00,1.24
7845.00,1.24
7844.00,1.24
7843.00,1.24
7842.00,1.24
7841.00,1.24
7840.00,1.24
7839.00,1.24
7838.00,1.24
7837.00,1.24
7836.00,1.24
7835.00,1.24
7834.00,1.24
7833.00,1.24
7832.00,1.25
7831.00,1.25
7830.00,1.25
7829.00,1.25
7828.00,1.25
7827.00,1.26
7826.00,1.26
7825.00,1.26
7824.00,1.26
7823.00,1.26
7822.00,1.27
7821.00,1.27
7820.00,1.27
7819.00,1.27
7818.00,1.27
7817.00,1.27
7816.00,1.28
7815.00,1.28
7814.00,1.28
7813.00,1.28
7812.00,1.28
7811.00,1.28
7810.00,1.28
7809.00,1.28
7808.00,1.28
7807.00,1.28
7806.00,1.27
7805.00,1.27
7804.00,1.27
7803.00,1.27
7802.00,1.27
7801.00,1.27
7800.00,1.27
7799.00,1.27
7798.00,1.27
7797.00,1.26
7796.00,1.26
7795.00,1.26
7794.00,1.26
7793.00,1.26
7792.00,1.26
7791.00,1.25
7790.00,1.25
7789.00,1.25
7788.00,1.25
7787.00,1.24
7786.00,1.24
7785.00,1.24
7784.00,1.24
7783.00,1.24
7782.00,1.24
7781.00,1.24
7780.00,1.24
7779.00,1.24
7778.00,1.23
7777.00,1.23
7776.00,1.23
7775.00,1.23
7774.00,1.23
7773.00,1.23
7772.00,1.23
7771.00,1.23
7770.00,1.23
7769.00,1.23
7768.00,1.23
7767.00,1.23
7766.00,1.23
7765.00,1.23
7764.00,1.23
7763.00,1.23
7762.00,1.23
7761.00,1.23
7760.00,1.23
7759.00,1.23
7758.00,1.22
7757.00,1.22
7756.00,1.22
7755.00,1.22
7754.00,1.22
7753.00,1.22
7752.00,1.22
7751.00,1.22
7750.00,1.21
7749.00,1.21
7748.00,1.21
7747.00,1.21
7746.00,1.21
7745.00,1.21
7744.00,1.21
7743.00,1.21
7742.00,1.20
7741.00,1.20
7740.00,1.20
7739.00,1.20
7738.00,1.20
7737.00,1.20
7736.00,1.20
7735.00,1.20
7734.00,1.20
7733.00,1.20
7732.00,1.20
7731.00,1.20
7730.00,1.21
7729.00,1.21
7728.00,1.21
7727.00,1.21
7726.00,1.21
7725.00,1.21
7724.00,1.21
7723.00,1.21
7722.00,1.21
7721.00,1.21
7720.00,1.21
7719.00,1.21
7718.00,1.21
7717.00,1.21
7716.00,1.21
7715.00,1.20
7714.00,1.20
7713.00,1.20
7712.00,1.20
7711.00,1.20
7710.00,1.20
7709.00,1.20
7708.00,1.20
7707.00,1.20
7706.00,1.19
7705.00,1.19
7704.00,1.19
7703.00,1.19
7702.00,1.19
7701.00,1.19
7700.00,1.19
7699.00,1.19
7698.00,1.19
7697.00,1.20
7696.00,1.20
7695.00,1.20
7694.00,1.20
7693.00,1.20
7692.00,1.20
7691.00,1.21
7690.00,1.21
7689.00,1.21
7688.00,1.21
7687.00,1.21
7686.00,1.21
7685.00,1.21
7684.00,1.21
7683.00,1.22
7682.00,1.22
7681.00,1.22
7680.00,1.22
7679.00,1.22
7678.00,1.22
7677.00,1.22
7676.00,1.22
7675.00,1.21
7674.00,1.21
7673.00,1.21
7672.00,1.21
7671.00,1.21
7670.00,1.21
7669.00,1.21
7668.00,1.21
7667.00,1.20
7666.00,1.20
7665.00,1.20
7664.00,1.20
7663.00,1.20
7662.00,1.20
7661.00,1.21
7660.00,1.21
7659.00,1.21
7658.00,1.21
7657.00,1.21
7656.00,1.21
7655.00,1.21
7654.00,1.21
7653.00,1.21
7652.00,1.21
7651.00,1.21
7650.00,1.21
7649.00,1.21
7648.00,1.21
7647.00,1.22
7646.00,1.22
7645.00,1.22
7644.00,1.22
7643.00,1.22
7642.00,1.22
7641.00,1.22
7640.00,1.22
7639.00,1.22
7638.00,1.22
7637.00,1.22
7636.00,1.22
7635.00,1.22
7634.00,1.22
7633.00,1.22
7632.00,1.22
7631.00,1.22
7630.00,1.22
7629.00,1.22
7628.00,1.22
7627.00,1.22
7626.00,1.22
7625.00,1.22
7624.00,1.22
7623.00,1.21
7622.00,1.21
7621.00,1.21
7620.00,1.21
7619.00,1.21
7618.00,1.21
7617.00,1.21
7616.00,1.21
7615.00,1.21
7614.00,1.21
7613.00,1.21
7612.00,1.21
7611.00,1.21
7610.00,1.20
7609.00,1.20
7608.00,1.20
7607.00,1.20
7606.00,1.20
7605.00,1.20
7604.00,1.20
7603.00,1.20
7602.00,1.20
7601.00,1.20
7600.00,1.20
7599.00,1.20
7598.00,1.20
7597.00,1.20
7596.00,1.20
7595.00,1.20
7594.00,1.20
7593.00,1.21
7592.00,1.21
7591.00,1.21
7590.00,1.21
7589.00,1.21
7588.00,1.21
7587.00,1.21
7586.00,1.22
7585.00,1.22
7584.00,1.22
7583.00,1.22
7582.00,1.23
7581.00,1.23
7580.00,1.23
7579.00,1.23
7578.00,1.23
7577.00,1.24
7576.00,1.24
7575.00,1.24
7574.00,1.24
7573.00,1.25
7572.00,1.25
7571.00,1.25
7570.00,1.25
7569.00,1.25
7568.00,1.26
7567.00,1.26
7566.00,1.26
7565.00,1.26
7564.00,1.26
7563.00,1.26
7562.00,1.26
7561.00,1.27
7560.00,1.27
7559.00,1.27
7558.00,1.27
7557.00,1.27
7556.00,1.27
7555.00,1.27
7554.00,1.27
7553.00,1.27
7552.00,1.27
7551.00,1.27
7550.00,1.26
7549.00,1.26
7548.00,1.26
7547.00,1.26
7546.00,1.26
7545.00,1.26
7544.00,1.26
7543.00,1.26
7542.00,1.26
7541.00,1.26
7540.00,1.25
7539.00,1.25
7538.00,1.25
7537.00,1.25
7536.00,1.25
7535.00,1.25
7534.00,1.25
7533.00,1.25
7532.00,1.25
7531.00,1.25
7530.00,1.25
7529.00,1.25
7528.00,1.25
7527.00,1.25
7526.00,1.25
7525.00,1.25
7524.00,1.25
7523.00,1.25
7522.00,1.25
7521.00,1.25
7520.00,1.26
7519.00,1.26
7518.00,1.26
7517.00,1.26
7516.00,1.26
7515.00,1.26
7514.00,1.26
7513.00,1.26
7512.00,1.26
7511.00,1.26
7510.00,1.27
7509.00,1.27
7508.00,1.27
7507.00,1.27
7506.00,1.28
7505.00,1.28
7504.00,1.28
7503.00,1.28
7502.00,1.29
7501.00,1.29
7500.00,1.29
7499.00,1.29
7498.00,1.30
7497.00,1.30
7496.00,1.30
7495.00,1.30
7494.00,1.30
7493.00,1.30
7492.00,1.31
7491.00,1.31
7490.00,1.31
7489.00,1.31
7488.00,1.31
7487.00,1.31
7486.00,1.31
7485.00,1.31
7484.00,1.31
7483.00,1.31
7482.00,1.31
7481.00,1.31
7480.00,1.31
7479.00,1.30
7478.00,1.30
7477.00,1.30
7476.00,1.30
7475.00,1.29
7474.00,1.29
7473.00,1.29
7472.00,1.28
7471.00,1.28
7470.00,1.28
7469.00,1.28
7468.00,1.27
7467.00,1.27
7466.00,1.27
7465.00,1.26
7464.00,1.26
7463.00,1.26
7462.00,1.26
7461.00,1.26
7460.00,1.25
7459.00,1.25
7458.00,1.25
7457.00,1.25
7456.00,1.25
7455.00,1.26
7454.00,1.26
7453.00,1.26
7452.00,1.26
7451.00,1.26
7450.00,1.26
7449.00,1.26
7448.00,1.26
7447.00,1.26
7446.00,1.27
7445.00,1.27
7444.00,1.27
7443.00,1.27
7442.00,1.27
7441.00,1.27
7440.00,1.27
7439.00,1.27
7438.00,1.27
7437.00,1.27
7436.00,1.27
7435.00,1.27
7434.00,1.27
7433.00,1.27
7432.00,1.27
7431.00,1.27
7430.00,1.27
7429.00,1.27
7428.00,1.27
7427.00,1.27
7426.00,1.27
7425.00,1.27
7424.00,1.27
7423.00,1.27
7422.00,1.27
7421.00,1.27
7420.00,1.27
7419.00,1.27
7418.00,1.27
7417.00,1.27
7416.00,1.27
7415.00,1.28
7414.00,1.28
7413.00,1.28
7412.00,1.28
7411.00,1.28
7410.00,1.28
7409.00,1.29
7408.00,1.29
7407.00,1.29
7406.00,1.29
7405.00,1.29
7404.00,1.29
7403.00,1.29
7402.00,1.30
7401.00,1.30
7400.00,1.30
7399.00,1.30
7398.00,1.30
7397.00,1.31
7396.00,1.31
7395.00,1.31
7394.00,1.31
7393.00,1.31
7392.00,1.31
7391.00,1.31
7390.00,1.31
7389.00,1.31
7388.00,1.31
7387.00,1.31
7386.00,1.31
7385.00,1.31
7384.00,1.31
7383.00,1.31
7382.00,1.31
7381.00,1.31
7380.00,1.31
7379.00,1.31
7378.00,1.31
7377.00,1.31
7376.00,1.31
7375.00,1.31
7374.00,1.31
7373.00,1.31
7372.00,1.31
7371.00,1.31
7370.00,1.30
7369.00,1.30
7368.00,1.30
7367.00,1.30
7366.00,1.30
7365.00,1.30
7364.00,1.29
7363.00,1.29
7362.00,1.29
7361.00,1.29
7360.00,1.29
7359.00,1.29
7358.00,1.29
7357.00,1.29
7356.00,1.29
7355.00,1.29
7354.00,1.29
7353.00,1.29
7352.00,1.29
7351.00,1.29
7350.00,1.29
7349.00,1.28
7348.00,1.28
7347.00,1.28
7346.00,1.28
7345.00,1.28
7344.00,1.28
7343.00,1.28
7342.00,1.28
7341.00,1.27
7340.00,1.27
7339.00,1.27
7338.00,1.27
7337.00,1.27
7336.00,1.27
7335.00,1.26
7334.00,1.26
7333.00,1.26
7332.00,1.25
7331.00,1.25
7330.00,1.24
7329.00,1.24
7328.00,1.24
7327.00,1.23
7326.00,1.23
7325.00,1.22
7324.00,1.22
7323.00,1.22
7322.00,1.21
7321.00,1.21
7320.00,1.21
7319.00,1.21
7318.00,1.20
7317.00,1.20
7316.00,1.20
7315.00,1.20
7314.00,1.19
7313.00,1.19
7312.00,1.19
7311.00,1.19
7310.00,1.19
7309.00,1.19
7308.00,1.18
7307.00,1.18
7306.00,1.18
7305.00,1.18
7304.00,1.18
7303.00,1.18
7302.00,1.18
7301.00,1.18
7300.00,1.18
7299.00,1.19
7298.00,1.19
7297.00,1.19
7296.00,1.19
7295.00,1.19
7294.00,1.19
7293.00,1.19
7292.00,1.19
7291.00,1.19
7290.00,1.19
7289.00,1.20
7288.00,1.20
7287.00,1.20
7286.00,1.20
7285.00,1.20
7284.00,1.21
7283.00,1.21
7282.00,1.21
7281.00,1.21
7280.00,1.21
7279.00,1.21
7278.00,1.21
7277.00,1.21
7276.00,1.21
7275.00,1.21
7274.00,1.21
7273.00,1.21
7272.00,1.21
7271.00,1.21
7270.00,1.21
7269.00,1.21
7268.00,1.21
7267.00,1.21
7266.00,1.21
7265.00,1.21
7264.00,1.21
7263.00,1.20
7262.00,1.20
7261.00,1.20
7260.00,1.20
7259.00,1.20
7258.00,1.20
7257.00,1.19
7256.00,1.19
7255.00,1.19
7254.00,1.19
7253.00,1.19
7252.00,1.19
7251.00,1.18
7250.00,1.18
7249.00,1.18
7248.00,1.18
7247.00,1.18
7246.00,1.18
7245.00,1.18
7244.00,1.18
7243.00,1.18
7242.00,1.18
7241.00,1.18
7240.00,1.18
7239.00,1.18
7238.00,1.17
7237.00,1.17
7236.00,1.17
7235.00,1.17
7234.00,1.17
7233.00,1.17
7232.00,1.17
7231.00,1.17
7230.00,1.17
7229.00,1.17
7228.00,1.17
7227.00,1.17
7226.00,1.17
7225.00,1.17
7224.00,1.17
7223.00,1.17
7222.00,1.17
7221.00,1.17
7220.00,1.17
7219.00,1.17
7218.00,1.17
7217.00,1.17
7216.00,1.17
7215.00,1.17
7214.00,1.17
7213.00,1.17
7212.00,1.17
7211.00,1.17
7210.00,1.17
7209.00,1.17
7208.00,1.17
7207.00,1.17
7206.00,1.17
7205.00,1.17
7204.00,1.17
7203.00,1.17
7202.00,1.17
7201.00,1.17
7200.00,1.17
7199.00,1.17
7198.00,1.17
7197.00,1.17
7196.00,1.16
7195.00,1.16
7194.00,1.16
7193.00,1.16
7192.00,1.16
7191.00,1.16
7190.00,1.16
7189.00,1.16
7188.00,1.16
7187.00,1.16
7186.00,1.16
7185.00,1.15
7184.00,1.15
7183.00,1.15
7182.00,1.15
7181.00,1.15
7180.00,1.15
7179.00,1.15
7178.00,1.15
7177.00,1.15
7176.00,1.15
7175.00,1.15
7174.00,1.15
7173.00,1.15
7172.00,1.14
7171.00,1.14
7170.00,1.14
7169.00,1.14
7168.00,1.14
7167.00,1.14
7166.00,1.14
7165.00,1.13
7164.00,1.13
7163.00,1.13
7162.00,1.13
7161.00,1.12
7160.00,1.12
7159.00,1.12
7158.00,1.12
7157.00,1.11
7156.00,1.11
7155.00,1.11
7154.00,1.11
7153.00,1.10
7152.00,1.10
7151.00,1.10
7150.00,1.09
7149.00,1.09
7148.00,1.09
7147.00,1.08
7146.00,1.08
7145.00,1.08
7144.00,1.07
7143.00,1.07
7142.00,1.07
7141.00,1.07
7140.00,1.07
7139.00,1.06
7138.00,1.06
7137.00,1.06
7136.00,1.06
7135.00,1.06
7134.00,1.06
7133.00,1.05
7132.00,1.05
7131.00,1.05
7130.00,1.05
7129.00,1.04
7128.00,1.04
7127.00,1.04
7126.00,1.04
7125.00,1.03
7124.00,1.03
7123.00,1.03
7122.00,1.03
7121.00,1.03
7120.00,1.03
7119.00,1.02
7118.00,1.02
7117.00,1.02
7116.00,1.01
7115.00,1.01
7114.00,1.01
7113.00,1.00
7112.00,1.00
7111.00,1.00
7110.00,0.99
7109.00,0.99
7108.00,0.99
7107.00,0.98
7106.00,0.98
7105.00,0.98
7104.00,0.98
7103.00,0.98
7102.00,0.98
7101.00,0.97
7100.00,0.97
7099.00,0.97
7098.00,0.97
7097.00,0.97
7096.00,0.97
7095.00,0.97
7094.00,0.97
7093.00,0.97
7092.00,0.97
7091.00,0.97
7090.00,0.97
7089.00,0.97
7088.00,0.97
7087.00,0.98
7086.00,0.98
7085.00,0.98
7084.00,0.98
7083.00,0.98
7082.00,0.99
7081.00,0.99
7080.00,0.99
7079.00,0.99
7078.00,0.99
7077.00,0.99
7076.00,0.99
7075.00,0.99
7074.00,0.99
7073.00,0.99
7072.00,0.99
7071.00,0.99
7070.00,0.99
7069.00,0.99
7068.00,0.99
7067.00,0.99
7066.00,0.99
7065.00,0.99
7064.00,0.99
7063.00,0.99
7062.00,0.99
7061.00,0.99
7060.00,0.99
7059.00,0.99
7058.00,0.99
7057.00,0.99
7056.00,0.99
7055.00,0.99
7054.00,0.99
7053.00,0.99
7052.00,0.99
7051.00,0.99
7050.00,0.99
7049.00,0.99
7048.00,0.99
7047.00,0.99
7046.00,0.99
7045.00,1.00
7044.00,1.00
7043.00,1.00
7042.00,1.00
7041.00,0.99
7040.00,0.99
7039.00,0.99
7038.00,0.99
7037.00,0.99
7036.00,0.99
7035.00,0.99
7034.00,0.99
7033.00,0.98
7032.00,0.98
7031.00,0.98
7030.00,0.98
7029.00,0.98
7028.00,0.98
7027.00,0.97
7026.00,0.97
7025.00,0.97
7024.00,0.97
7023.00,0.96
7022.00,0.96
7021.00,0.96
7020.00,0.96
7019.00,0.96
7018.00,0.95
7017.00,0.95
7016.00,0.95
7015.00,0.95
7014.00,0.95
7013.00,0.95
7012.00,0.95
7011.00,0.95
7010.00,0.95
7009.00,0.95
7008.00,0.95
7007.00,0.95
7006.00,0.95
7005.00,0.95
7004.00,0.95
7003.00,0.96
7002.00,0.96
7001.00,0.96
7000.00,0.96
6999.00,0.96
6998.00,0.96
6997.00,0.96
6996.00,0.96
6995.00,0.96
6994.00,0.96
6993.00,0.96
6992.00,0.96
6991.00,0.96
6990.00,0.96
6989.00,0.96
6988.00,0.96
6987.00,0.96
6986.00,0.96
6985.00,0.96
6984.00,0.96
6983.00,0.97
6982.00,0.97
6981.00,0.97
6980.00,0.97
6979.00,0.97
6978.00,0.97
6977.00,0.97
6976.00,0.97
6975.00,0.97
6974.00,0.97
6973.00,0.97
6972.00,0.97
6971.00,0.97
6970.00,0.97
6969.00,0.97
6968.00,0.96
6967.00,0.96
6966.00,0.96
6965.00,0.96
6964.00,0.96
6963.00,0.96
6962.00,0.96
6961.00,0.96
6960.00,0.96
6959.00,0.96
6958.00,0.96
6957.00,0.96
6956.00,0.96
6955.00,0.95
6954.00,0.95
6953.00,0.95
6952.00,0.95
6951.00,0.95
6950.00,0.95
6949.00,0.94
6948.00,0.94
6947.00,0.94
6946.00,0.94
6945.00,0.94
6944.00,0.94
6943.00,0.94
6942.00,0.93
6941.00,0.93
6940.00,0.93
6939.00,0.93
6938.00,0.93
6937.00,0.93
6936.00,0.93
6935.00,0.92
6934.00,0.92
6933.00,0.92
6932.00,0.92
6931.00,0.92
6930.00,0.92
6929.00,0.92
6928.00,0.92
6927.00,0.91
6926.00,0.91
6925.00,0.91
6924.00,0.91
6923.00,0.91
6922.00,0.91
6921.00,0.90
6920.00,0.90
6919.00,0.90
6918.00,0.90
6917.00,0.90
6916.00,0.90
6915.00,0.90
6914.00,0.90
6913.00,0.89
6912.00,0.89
6911.00,0.89
6910.00,0.89
6909.00,0.89
6908.00,0.89
6907.00,0.88
6906.00,0.88
6905.00,0.88
6904.00,0.88
6903.00,0.88
6902.00,0.88
6901.00,0.88
6900.00,0.88
6899.00,0.88
6898.00,0.88
6897.00,0.88
6896.00,0.88
6895.00,0.88
6894.00,0.88
6893.00,0.88
6892.00,0.88
6891.00,0.88
6890.00,0.88
6889.00,0.88
6888.00,0.88
6887.00,0.88
6886.00,0.88
6885.00,0.88
6884.00,0.88
6883.00,0.88
6882.00,0.88
6881.00,0.88
6880.00,0.88
6879.00,0.88
6878.00,0.88
6877.00,0.88
6876.00,0.88
6875.00,0.88
6874.00,0.88
6873.00,0.88
6872.00,0.88
6871.00,0.88
6870.00,0.88
6869.00,0.88
6868.00,0.89
6867.00,0.89
6866.00,0.89
6865.00,0.89
6864.00,0.89
6863.00,0.89
6862.00,0.89
6861.00,0.89
6860.00,0.89
6859.00,0.89
6858.00,0.89
6857.00,0.89
6856.00,0.89
6855.00,0.89
6854.00,0.89
6853.00,0.89
6852.00,0.89
6851.00,0.89
6850.00,0.90
6849.00,0.90
6848.00,0.90
6847.00,0.90
6846.00,0.90
6845.00,0.90
6844.00,0.90
6843.00,0.90
6842.00,0.90
6841.00,0.90
6840.00,0.90
6839.00,0.90
6838.00,0.90
6837.00,0.90
6836.00,0.91
6835.00,0.91
6834.00,0.91
6833.00,0.91
6832.00,0.91
6831.00,0.91
6830.00,0.92
6829.00,0.92
6828.00,0.92
6827.00,0.92
6826.00,0.92
6825.00,0.92
6824.00,0.93
6823.00,0.93
6822.00,0.93
6821.00,0.93
6820.00,0.93
6819.00,0.93
6818.00,0.93
6817.00,0.93
6816.00,0.94
6815.00,0.94
6814.00,0.94
6813.00,0.94
6812.00,0.94
6811.00,0.94
6810.00,0.94
6809.00,0.94
6808.00,0.94
6807.00,0.94
6806.00,0.94
6805.00,0.94
6804.00,0.94
6803.00,0.94
6802.00,0.94
6801.00,0.94
6800.00,0.94
6799.00,0.94
6798.00,0.94
6797.00,0.94
6796.00,0.94
6795.00,0.94
6794.00,0.95
6793.00,0.95
6792.00,0.94
6791.00,0.94
6790.00,0.94
6789.00,0.94
6788.00,0.94
6787.00,0.94
6786.00,0.94
6785.00,0.94
6784.00,0.94
6783.00,0.94
6782.00,0.94
6781.00,0.94
6780.00,0.94
6779.00,0.94
6778.00,0.93
6777.00,0.93
6776.00,0.93
6775.00,0.93
6774.00,0.93
6773.00,0.93
6772.00,0.93
6771.00,0.93
6770.00,0.92
6769.00,0.92
6768.00,0.92
6767.00,0.92
6766.00,0.92
6765.00,0.92
6764.00,0.92
6763.00,0.92
6762.00,0.92
6761.00,0.92
6760.00,0.92
6759.00,0.92
6758.00,0.92
6757.00,0.92
6756.00,0.92
6755.00,0.92
6754.00,0.92
6753.00,0.92
6752.00,0.92
6751.00,0.92
6750.00,0.93
6749.00,0.93
6748.00,0.93
6747.00,0.93
6746.00,0.93
6745.00,0.94
6744.00,0.94
6743.00,0.94
6742.00,0.94
6741.00,0.95
6740.00,0.95
6739.00,0.95
6738.00,0.95
6737.00,0.96
6736.00,0.96
6735.00,0.96
6734.00,0.96
6733.00,0.96
6732.00,0.96
6731.00,0.97
6730.00,0.97
6729.00,0.97
6728.00,0.97
6727.00,0.97
6726.00,0.97
6725.00,0.97
6724.00,0.98
6723.00,0.98
6722.00,0.98
6721.00,0.98
6720.00,0.98
6719.00,0.98
6718.00,0.98
6717.00,0.98
6716.00,0.98
6715.00,0.98
6714.00,0.98
6713.00,0.98
6712.00,0.98
6711.00,0.99
6710.00,0.99
6709.00,0.99
6708.00,0.99
6707.00,0.99
6706.00,0.99
6705.00,0.99
6704.00,0.99
6703.00,0.99
6702.00,0.99
6701.00,0.99
6700.00,0.99
6699.00,0.99
6698.00,0.99
6697.00,0.99
6696.00,0.99
6695.00,0.99
6694.00,0.99
6693.00,0.99
6692.00,0.99
6691.00,0.99
6690.00,0.99
6689.00,0.99
6688.00,0.99
6687.00,0.99
6686.00,0.99
6685.00,0.99
6684.00,0.99
6683.00,0.99
6682.00,0.99
6681.00,1.00
6680.00,1.00
6679.00,1.00
6678.00,1.00
6677.00,1.00
6676.00,1.00
6675.00,1.00
6674.00,1.00
6673.00,1.00
6672.00,1.00
6671.00,1.00
6670.00,1.00
6669.00,1.00
6668.00,1.00
6667.00,1.00
6666.00,1.00
6665.00,1.00
6664.00,1.00
6663.00,1.01
6662.00,1.01
6661.00,1.01
6660.00,1.01
6659.00,1.01
6658.00,1.01
6657.00,1.01
6656.00,1.01
6655.00,1.01
6654.00,1.01
6653.00,1.01
6652.00,1.01
6651.00,1.01
6650.00,1.02
6649.00,1.02
6648.00,1.02
6647.00,1.02
6646.00,1.02
6645.00,1.02
6644.00,1.02
6643.00,1.02
6642.00,1.02
6641.00,1.02
6640.00,1.02
6639.00,1.02
6638.00,1.02
6637.00,1.02
6636.00,1.02
6635.00,1.02
6634.00,1.02
6633.00,1.02
6632.00,1.02
6631.00,1.02
6630.00,1.02
6629.00,1.03
6628.00,1.03
6627.00,1.03
6626.00,1.03
6625.00,1.03
6624.00,1.03
6623.00,1.03
6622.00,1.03
6621.00,1.03
6620.00,1.03
6619.00,1.03
6618.00,1.03
6617.00,1.03
6616.00,1.03
6615.00,1.03
6614.00,1.03
6613.00,1.03
6612.00,1.04
6611.00,1.04
6610.00,1.04
6609.00,1.04
6608.00,1.04
6607.00,1.04
6606.00,1.04
6605.00,1.04
6604.00,1.04
6603.00,1.04
6602.00,1.04
6601.00,1.05
6600.00,1.05
6599.00,1.05
6598.00,1.05
6597.00,1.05
6596.00,1.05
6595.00,1.05
6594.00,1.06
6593.00,1.06
6592.00,1.06
6591.00,1.06
6590.00,1.06
6589.00,1.06
6588.00,1.06
6587.00,1.06
6586.00,1.06
6585.00,1.06
6584.00,1.06
6583.00,1.07
6582.00,1.07
6581.00,1.07
6580.00,1.07
6579.00,1.07
6578.00,1.07
6577.00,1.07
6576.00,1.07
6575.00,1.07
6574.00,1.07
6573.00,1.07
6572.00,1.07
6571.00,1.08
6570.00,1.08
6569.00,1.08
6568.00,1.08
6567.00,1.08
6566.00,1.08
6565.00,1.08
6564.00,1.08
6563.00,1.08
6562.00,1.08
6561.00,1.09
6560.00,1.09
6559.00,1.09
6558.00,1.09
6557.00,1.09
6556.00,1.09
6555.00,1.09
6554.00,1.10
6553.00,1.10
6552.00,1.10
6551.00,1.10
6550.00,1.10
6549.00,1.10
6548.00,1.10
6547.00,1.10
6546.00,1.10
6545.00,1.10
6544.00,1.11
6543.00,1.11
6542.00,1.11
6541.00,1.11
6540.00,1.11
6539.00,1.11
6538.00,1.11
6537.00,1.11
6536.00,1.11
6535.00,1.11
6534.00,1.11
6533.00,1.11
6532.00,1.11
6531.00,1.11
6530.00,1.11
6529.00,1.11
6528.00,1.11
6527.00,1.11
6526.00,1.11
6525.00,1.11
6524.00,1.11
6523.00,1.11
6522.00,1.11
6521.00,1.10
6520.00,1.10
6519.00,1.10
6518.00,1.10
6517.00,1.10
6516.00,1.10
6515.00,1.10
6514.00,1.10
6513.00,1.10
6512.00,1.10
6511.00,1.10
6510.00,1.10
6509.00,1.10
6508.00,1.10
6507.00,1.10
6506.00,1.10
6505.00,1.10
6504.00,1.10
6503.00,1.10
6502.00,1.10
6501.00,1.10
6500.00,1.10
6499.00,1.10
6498.00,1.10
6497.00,1.10
6496.00,1.10
6495.00,1.10
6494.00,1.11
6493.00,1.11
6492.00,1.11
6491.00,1.11
6490.00,1.11
6489.00,1.11
6488.00,1.11
6487.00,1.12
6486.00,1.12
6485.00,1.12
6484.00,1.12
6483.00,1.13
6482.00,1.13
6481.00,1.13
6480.00,1.13
6479.00,1.13
6478.00,1.14
6477.00,1.14
6476.00,1.14
6475.00,1.14
6474.00,1.14
6473.00,1.14
6472.00,1.14
6471.00,1.15
6470.00,1.15
6469.00,1.15
6468.00,1.15
6467.00,1.15
6466.00,1.15
6465.00,1.15
6464.00,1.15
6463.00,1.15
6462.00,1.15
6461.00,1.15
6460.00,1.15
6459.00,1.15
6458.00,1.15
6457.00,1.14
6456.00,1.14
6455.00,1.14
6454.00,1.14
6453.00,1.14
6452.00,1.14
6451.00,1.13
6450.00,1.13
6449.00,1.13
6448.00,1.13
6447.00,1.13
6446.00,1.13
6445.00,1.13
6444.00,1.12
6443.00,1.12
6442.00,1.12
6441.00,1.12
6440.00,1.12
6439.00,1.12
6438.00,1.12
6437.00,1.12
6436.00,1.12
6435.00,1.12
6434.00,1.12
6433.00,1.12
6432.00,1.12
6431.00,1.12
6430.00,1.12
6429.00,1.13
6428.00,1.13
6427.00,1.13
6426.00,1.13
6425.00,1.13
6424.00,1.13
6423.00,1.14
6422.00,1.14
6421.00,1.14
6420.00,1.14
6419.00,1.14
6418.00,1.14
6417.00,1.14
6416.00,1.15
6415.00,1.15
6414.00,1.15
6413.00,1.15
6412.00,1.15
6411.00,1.15
6410.00,1.15
6409.00,1.15
6408.00,1.15
6407.00,1.15
6406.00,1.15
6405.00,1.15
6404.00,1.15
6403.00,1.15
6402.00,1.15
6401.00,1.15
6400.00,1.15
6399.00,1.15
6398.00,1.15
6397.00,1.15
6396.00,1.15
6395.00,1.15
6394.00,1.15
6393.00,1.15
6392.00,1.15
6391.00,1.15
6390.00,1.15
6389.00,1.14
6388.00,1.14
6387.00,1.14
6386.00,1.14
6385.00,1.14
6384.00,1.14
6383.00,1.14
6382.00,1.14
6381.00,1.14
6380.00,1.14
6379.00,1.14
6378.00,1.14
6377.00,1.14
6376.00,1.14
6375.00,1.14
6374.00,1.14
6373.00,1.14
6372.00,1.14
6371.00,1.14
6370.00,1.14
6369.00,1.14
6368.00,1.14
6367.00,1.15
6366.00,1.15
6365.00,1.15
6364.00,1.15
6363.00,1.15
6362.00,1.15
6361.00,1.15
6360.00,1.15
6359.00,1.15
6358.00,1.15
6357.00,1.15
6356.00,1.16
6355.00,1.16
6354.00,1.16
6353.00,1.16
6352.00,1.16
6351.00,1.16
6350.00,1.16
6349.00,1.16
6348.00,1.16
6347.00,1.16
6346.00,1.16
6345.00,1.16
6344.00,1.16
6343.00,1.16
6342.00,1.16
6341.00,1.16
6340.00,1.16
6339.00,1.16
6338.00,1.16
6337.00,1.16
6336.00,1.17
6335.00,1.17
6334.00,1.17
6333.00,1.17
6332.00,1.17
6331.00,1.17
6330.00,1.17
6329.00,1.17
6328.00,1.17
6327.00,1.17
6326.00,1.17
6325.00,1.17
6324.00,1.17
6323.00,1.17
6322.00,1.17
6321.00,1.17
6320.00,1.17
6319.00,1.17
6318.00,1.17
6317.00,1.17
6316.00,1.17
6315.00,1.17
6314.00,1.17
6313.00,1.17
6312.00,1.17
6311.00,1.17
6310.00,1.17
6309.00,1.17
6308.00,1.17
6307.00,1.17
6306.00,1.17
6305.00,1.17
6304.00,1.17
6303.00,1.17
6302.00,1.17
6301.00,1.17
6300.00,1.17
6299.00,1.17
6298.00,1.17
6297.00,1.17
6296.00,1.17
6295.00,1.17
6294.00,1.17
6293.00,1.17
6292.00,1.17
6291.00,1.17
6290.00,1.17
6289.00,1.17
6288.00,1.18
6287.00,1.18
6286.00,1.18
6285.00,1.18
6284.00,1.18
6283.00,1.19
6282.00,1.19
6281.00,1.19
6280.00,1.19
6279.00,1.19
6278.00,1.19
6277.00,1.19
6276.00,1.20
6275.00,1.20
6274.00,1.20
6273.00,1.20
6272.00,1.20
6271.00,1.20
6270.00,1.20
6269.00,1.20
6268.00,1.20
6267.00,1.20
6266.00,1.20
6265.00,1.20
6264.00,1.20
6263.00,1.20
6262.00,1.20
6261.00,1.20
6260.00,1.20
6259.00,1.20
6258.00,1.20
6257.00,1.20
6256.00,1.20
6255.00,1.20
6254.00,1.19
6253.00,1.19
6252.00,1.19
6251.00,1.19
6250.00,1.19
6249.00,1.19
6248.00,1.19
6247.00,1.19
6246.00,1.19
6245.00,1.19
6244.00,1.19
6243.00,1.19
6242.00,1.19
6241.00,1.19
6240.00,1.19
6239.00,1.19
6238.00,1.19
6237.00,1.19
6236.00,1.19
6235.00,1.19
6234.00,1.19
6233.00,1.20
6232.00,1.20
6231.00,1.20
6230.00,1.20
6229.00,1.20
6228.00,1.20
6227.00,1.21
6226.00,1.21
6225.00,1.21
6224.00,1.21
6223.00,1.21
6222.00,1.22
6221.00,1.22
6220.00,1.22
6219.00,1.22
6218.00,1.22
6217.00,1.23
6216.00,1.23
6215.00,1.23
6214.00,1.23
6213.00,1.23
6212.00,1.23
6211.00,1.23
6210.00,1.23
6209.00,1.23
6208.00,1.24
6207.00,1.24
6206.00,1.24
6205.00,1.24
6204.00,1.24
6203.00,1.24
6202.00,1.24
6201.00,1.24
6200.00,1.24
6199.00,1.24
6198.00,1.24
6197.00,1.24
6196.00,1.24
6195.00,1.24
6194.00,1.24
6193.00,1.24
6192.00,1.24
6191.00,1.24
6190.00,1.24
6189.00,1.24
6188.00,1.24
6187.00,1.25
6186.00,1.25
6185.00,1.25
6184.00,1.25
6183.00,1.25
6182.00,1.25
6181.00,1.26
6180.00,1.26
6179.00,1.26
6178.00,1.26
6177.00,1.26
6176.00,1.27
6175.00,1.27
6174.00,1.27
6173.00,1.27
6172.00,1.27
6171.00,1.28
6170.00,1.28
6169.00,1.28
6168.00,1.28
6167.00,1.28
6166.00,1.28
6165.00,1.28
6164.00,1.28
6163.00,1.28
6162.00,1.28
6161.00,1.28
6160.00,1.28
6159.00,1.28
6158.00,1.28
6157.00,1.28
6156.00,1.28
6155.00,1.28
6154.00,1.28
6153.00,1.28
6152.00,1.28
6151.00,1.28
6150.00,1.28
6149.00,1.28
6148.00,1.28
6147.00,1.28
6146.00,1.28
6145.00,1.28
6144.00,1.28
6143.00,1.28
6142.00,1.28
6141.00,1.28
6140.00,1.28
6139.00,1.28
6138.00,1.28
6137.00,1.28
6136.00,1.29
6135.00,1.29
6134.00,1.29
6133.00,1.29
6132.00,1.29
6131.00,1.29
6130.00,1.29
6129.00,1.29
6128.00,1.29
6127.00,1.29
6126.00,1.29
6125.00,1.29
6124.00,1.29
6123.00,1.29
6122.00,1.29
6121.00,1.29
6120.00,1.29
6119.00,1.29
6118.00,1.29
6117.00,1.29
6116.00,1.29
6115.00,1.29
6114.00,1.29
6113.00,1.29
6112.00,1.29
6111.00,1.29
6110.00,1.29
6109.00,1.29
6108.00,1.29
6107.00,1.29
6106.00,1.30
6105.00,1.30
6104.00,1.30
6103.00,1.30
6102.00,1.30
6101.00,1.30
6100.00,1.30
6099.00,1.30
6098.00,1.30
6097.00,1.30
6096.00,1.30
6095.00,1.30
6094.00,1.30
6093.00,1.30
6092.00,1.30
6091.00,1.30
6090.00,1.30
6089.00,1.30
6088.00,1.30
6087.00,1.30
6086.00,1.30
6085.00,1.30
6084.00,1.30
6083.00,1.30
6082.00,1.30
6081.00,1.30
6080.00,1.30
6079.00,1.30
6078.00,1.30
6077.00,1.30
6076.00,1.30
6075.00,1.30
6074.00,1.30
6073.00,1.30
6072.00,1.30
6071.00,1.30
6070.00,1.30
6069.00,1.30
6068.00,1.30
6067.00,1.30
6066.00,1.30
6065.00,1.30
6064.00,1.30
6063.00,1.30
6062.00,1.30
6061.00,1.30
6060.00,1.30
6059.00,1.30
6058.00,1.30
6057.00,1.30
6056.00,1.30
6055.00,1.30
6054.00,1.30
6053.00,1.30
6052.00,1.30
6051.00,1.30
6050.00,1.30
6049.00,1.30
6048.00,1.30
6047.00,1.30
6046.00,1.30
6045.00,1.30
6044.00,1.30
6043.00,1.30
6042.00,1.30
6041.00,1.30
6040.00,1.30
6039.00,1.31
6038.00,1.31
6037.00,1.31
6036.00,1.31
6035.00,1.31
6034.00,1.31
6033.00,1.31
6032.00,1.31
6031.00,1.31
6030.00,1.31
6029.00,1.31
6028.00,1.32
6027.00,1.32
6026.00,1.32
6025.00,1.32
6024.00,1.32
6023.00,1.32
6022.00,1.32
6021.00,1.32
6020.00,1.31
6019.00,1.31
6018.00,1.31
6017.00,1.31
6016.00,1.31
6015.00,1.31
6014.00,1.31
6013.00,1.31
6012.00,1.31
6011.00,1.31
6010.00,1.31
6009.00,1.31
6008.00,1.31
6007.00,1.31
6006.00,1.30
6005.00,1.30
6004.00,1.30
6003.00,1.30
6002.00,1.30
6001.00,1.30
6000.00,1.30
5999.00,1.30
5998.00,1.30
5997.00,1.30
5996.00,1.30
5995.00,1.30
5994.00,1.30
5993.00,1.30
5992.00,1.31
5991.00,1.31
5990.00,1.31
5989.00,1.31
5988.00,1.31
5987.00,1.31
5986.00,1.31
5985.00,1.31
5984.00,1.31
5983.00,1.30
5982.00,1.30
5981.00,1.30
5980.00,1.30
5979.00,1.30
5978.00,1.30
5977.00,1.30
5976.00,1.30
5975.00,1.29
5974.00,1.29
5973.00,1.29
5972.00,1.29
5971.00,1.29
5970.00,1.28
5969.00,1.28
5968.00,1.28
5967.00,1.28
5966.00,1.27
5965.00,1.27
5964.00,1.27
5963.00,1.27
5962.00,1.26
5961.00,1.26
5960.00,1.26
5959.00,1.25
5958.00,1.25
5957.00,1.25
5956.00,1.24
5955.00,1.24
5954.00,1.24
5953.00,1.23
5952.00,1.23
5951.00,1.23
5950.00,1.23
5949.00,1.22
5948.00,1.22
5947.00,1.22
5946.00,1.22
5945.00,1.22
5944.00,1.21
5943.00,1.21
5942.00,1.21
5941.00,1.21
5940.00,1.21
5939.00,1.21
5938.00,1.21
5937.00,1.21
5936.00,1.20
5935.00,1.20
5934.00,1.21
5933.00,1.21
5932.00,1.21
5931.00,1.21
5930.00,1.21
5929.00,1.21
5928.00,1.21
5927.00,1.21
5926.00,1.21
5925.00,1.21
5924.00,1.21
5923.00,1.21
5922.00,1.21
5921.00,1.21
5920.00,1.21
5919.00,1.21
5918.00,1.21
5917.00,1.21
5916.00,1.21
5915.00,1.21
5914.00,1.21
5913.00,1.20
5912.00,1.20
5911.00,1.20
5910.00,1.20
5909.00,1.20
5908.00,1.20
5907.00,1.20
5906.00,1.20
5905.00,1.19
5904.00,1.19
5903.00,1.19
5902.00,1.19
5901.00,1.19
5900.00,1.19
5899.00,1.19
5898.00,1.19
5897.00,1.19
5896.00,1.19
5895.00,1.19
5894.00,1.19
5893.00,1.19
5892.00,1.19
5891.00,1.19
5890.00,1.20
5889.00,1.20
5888.00,1.20
5887.00,1.20
5886.00,1.20
5885.00,1.20
5884.00,1.21
5883.00,1.21
5882.00,1.21
5881.00,1.21
5880.00,1.21
5879.00,1.22
5878.00,1.22
5877.00,1.22
5876.00,1.22
5875.00,1.22
5874.00,1.22
5873.00,1.23
5872.00,1.23
5871.00,1.23
5870.00,1.23
5869.00,1.23
5868.00,1.23
5867.00,1.23
5866.00,1.23
5865.00,1.23
5864.00,1.23
5863.00,1.23
5862.00,1.23
5861.00,1.23
5860.00,1.23
5859.00,1.23
5858.00,1.23
5857.00,1.23
5856.00,1.23
5855.00,1.23
5854.00,1.23
5853.00,1.23
5852.00,1.23
5851.00,1.23
5850.00,1.23
5849.00,1.23
5848.00,1.23
5847.00,1.23
5846.00,1.23
5845.00,1.23
5844.00,1.23
5843.00,1.23
5842.00,1.23
5841.00,1.23
5840.00,1.23
5839.00,1.23
5838.00,1.23
5837.00,1.23
5836.00,1.24
5835.00,1.24
5834.00,1.24
5833.00,1.24
5832.00,1.24
5831.00,1.24
5830.00,1.24
5829.00,1.24
5828.00,1.24
5827.00,1.24
5826.00,1.24
5825.00,1.24
5824.00,1.24
5823.00,1.25
5822.00,1.25
5821.00,1.25
5820.00,1.25
5819.00,1.25
5818.00,1.25
5817.00,1.25
5816.00,1.25
5815.00,1.25
5814.00,1.25
5813.00,1.25
5812.00,1.25
5811.00,1.25
5810.00,1.25
5809.00,1.25
5808.00,1.24
5807.00,1.24
5806.00,1.24
5805.00,1.24
5804.00,1.24
5803.00,1.24
5802.00,1.24
5801.00,1.24
5800.00,1.24
5799.00,1.23
5798.00,1.23
5797.00,1.23
5796.00,1.23
5795.00,1.23
5794.00,1.23
5793.00,1.22
5792.00,1.22
5791.00,1.22
5790.00,1.22
5789.00,1.22
5788.00,1.22
5787.00,1.22
5786.00,1.21
5785.00,1.21
5784.00,1.21
5783.00,1.21
5782.00,1.21
5781.00,1.21
5780.00,1.21
5779.00,1.21
5778.00,1.21
5777.00,1.21
5776.00,1.21
5775.00,1.21
5774.00,1.21
5773.00,1.21
5772.00,1.21
5771.00,1.22
5770.00,1.22
5769.00,1.22
5768.00,1.22
5767.00,1.22
5766.00,1.22
5765.00,1.22
5764.00,1.22
5763.00,1.22
5762.00,1.23
5761.00,1.23
5760.00,1.23
5759.00,1.23
5758.00,1.23
5757.00,1.23
5756.00,1.23
5755.00,1.23
5754.00,1.24
5753.00,1.24
5752.00,1.24
5751.00,1.24
5750.00,1.24
5749.00,1.24
5748.00,1.24
5747.00,1.25
5746.00,1.25
5745.00,1.25
5744.00,1.25
5743.00,1.25
5742.00,1.25
5741.00,1.25
5740.00,1.25
5739.00,1.26
5738.00,1.26
5737.00,1.26
5736.00,1.26
5735.00,1.26
5734.00,1.26
5733.00,1.26
5732.00,1.26
5731.00,1.27
5730.00,1.27
5729.00,1.27
5728.00,1.27
5727.00,1.27
5726.00,1.27
5725.00,1.27
5724.00,1.27
5723.00,1.27
5722.00,1.27
5721.00,1.27
5720.00,1.27
5719.00,1.27
5718.00,1.27
5717.00,1.27
5716.00,1.27
5715.00,1.27
5714.00,1.27
5713.00,1.27
5712.00,1.27
5711.00,1.27
5710.00,1.27
5709.00,1.27
5708.00,1.27
5707.00,1.27
5706.00,1.27
5705.00,1.27
5704.00,1.27
5703.00,1.27
5702.00,1.27
5701.00,1.27
5700.00,1.27
5699.00,1.27
5698.00,1.27
5697.00,1.27
5696.00,1.26
5695.00,1.26
5694.00,1.26
5693.00,1.26
5692.00,1.26
5691.00,1.26
5690.00,1.26
5689.00,1.26
5688.00,1.26
5687.00,1.26
5686.00,1.26
5685.00,1.26
5684.00,1.25
5683.00,1.25
5682.00,1.25
5681.00,1.25
5680.00,1.25
5679.00,1.25
5678.00,1.25
5677.00,1.25
5676.00,1.25
5675.00,1.25
5674.00,1.25
5673.00,1.25
5672.00,1.25
5671.00,1.25
5670.00,1.25
5669.00,1.25
5668.00,1.25
5667.00,1.25
5666.00,1.25
5665.00,1.25
5664.00,1.26
5663.00,1.26
5662.00,1.26
5661.00,1.26
5660.00,1.26
5659.00,1.26
5658.00,1.26
5657.00,1.26
5656.00,1.26
5655.00,1.26
5654.00,1.26
5653.00,1.27
5652.00,1.27
5651.00,1.27
5650.00,1.27
5649.00,1.27
5648.00,1.27
5647.00,1.27
5646.00,1.27
5645.00,1.27
5644.00,1.27
5643.00,1.27
5642.00,1.27
5641.00,1.27
5640.00,1.27
5639.00,1.27
5638.00,1.27
5637.00,1.27
5636.00,1.27
5635.00,1.27
5634.00,1.27
5633.00,1.27
5632.00,1.27
5631.00,1.27
5630.00,1.27
5629.00,1.27
5628.00,1.27
5627.00,1.27
5626.00,1.27
5625.00,1.27
5624.00,1.27
5623.00,1.27
5622.00,1.28
5621.00,1.28
5620.00,1.28
5619.00,1.28
5618.00,1.28
5617.00,1.28
5616.00,1.28
5615.00,1.28
5614.00,1.28
5613.00,1.28
5612.00,1.28
5611.00,1.28
5610.00,1.28
5609.00,1.29
5608.00,1.29
5607.00,1.29
5606.00,1.29
5605.00,1.29
5604.00,1.29
5603.00,1.29
5602.00,1.30
5601.00,1.30
5600.00,1.30
5599.00,1.30
5598.00,1.30
5597.00,1.30
5596.00,1.30
5595.00,1.30
5594.00,1.30
5593.00,1.30
5592.00,1.30
5591.00,1.30
5590.00,1.30
5589.00,1.30
5588.00,1.30
5587.00,1.30
5586.00,1.30
5585.00,1.30
5584.00,1.30
5583.00,1.30
5582.00,1.30
5581.00,1.30
5580.00,1.30
5579.00,1.30
5578.00,1.30
5577.00,1.30
5576.00,1.30
5575.00,1.30
5574.00,1.30
5573.00,1.30
5572.00,1.30
5571.00,1.30
5570.00,1.30
5569.00,1.30
5568.00,1.30
5567.00,1.30
5566.00,1.30
5565.00,1.30
5564.00,1.31
5563.00,1.31
5562.00,1.31
5561.00,1.31
5560.00,1.31
5559.00,1.31
5558.00,1.31
5557.00,1.31
5556.00,1.31
5555.00,1.31
5554.00,1.31
5553.00,1.32
5552.00,1.32
5551.00,1.32
5550.00,1.32
5549.00,1.32
5548.00,1.32
5547.00,1.32
5546.00,1.32
5545.00,1.32
5544.00,1.32
5543.00,1.32
5542.00,1.32
5541.00,1.32
5540.00,1.32
5539.00,1.32
5538.00,1.32
5537.00,1.32
5536.00,1.32
5535.00,1.32
5534.00,1.32
5533.00,1.32
5532.00,1.32
5531.00,1.32
5530.00,1.32
5529.00,1.32
5528.00,1.32
5527.00,1.32
5526.00,1.32
5525.00,1.32
5524.00,1.32
5523.00,1.32
5522.00,1.31
5521.00,1.31
5520.00,1.31
5519.00,1.31
5518.00,1.31
5517.00,1.31
5516.00,1.31
5515.00,1.31
5514.00,1.31
5513.00,1.31
5512.00,1.31
5511.00,1.31
5510.00,1.31
5509.00,1.31
5508.00,1.31
5507.00,1.31
5506.00,1.31
5505.00,1.31
5504.00,1.31
5503.00,1.31
5502.00,1.31
5501.00,1.31
5500.00,1.31
5499.00,1.31
5498.00,1.31
5497.00,1.31
5496.00,1.32
5495.00,1.32
5494.00,1.32
5493.00,1.32
5492.00,1.32
5491.00,1.32
5490.00,1.32
5489.00,1.32
5488.00,1.32
5487.00,1.32
5486.00,1.32
5485.00,1.32
5484.00,1.32
5483.00,1.32
5482.00,1.32
5481.00,1.32
5480.00,1.32
5479.00,1.32
5478.00,1.32
5477.00,1.32
5476.00,1.32
5475.00,1.32
5474.00,1.32
5473.00,1.32
5472.00,1.32
5471.00,1.32
5470.00,1.32
5469.00,1.32
5468.00,1.33
5467.00,1.33
5466.00,1.33
5465.00,1.33
5464.00,1.33
5463.00,1.33
5462.00,1.33
5461.00,1.33
5460.00,1.33
5459.00,1.33
5458.00,1.34
5457.00,1.34
5456.00,1.34
5455.00,1.34
5454.00,1.34
5453.00,1.34
5452.00,1.34
5451.00,1.35
5450.00,1.35
5449.00,1.35
5448.00,1.35
5447.00,1.35
5446.00,1.35
5445.00,1.35
5444.00,1.35
5443.00,1.35
5442.00,1.35
5441.00,1.35
5440.00,1.35
5439.00,1.35
5438.00,1.35
5437.00,1.36
5436.00,1.36
5435.00,1.36
5434.00,1.36
5433.00,1.36
5432.00,1.36
5431.00,1.36
5430.00,1.36
5429.00,1.36
5428.00,1.36
5427.00,1.36
5426.00,1.36
5425.00,1.36
5424.00,1.36
5423.00,1.36
5422.00,1.36
5421.00,1.35
5420.00,1.35
5419.00,1.35
5418.00,1.35
5417.00,1.35
5416.00,1.35
5415.00,1.35
5414.00,1.35
5413.00,1.35
5412.00,1.35
5411.00,1.35
5410.00,1.35
5409.00,1.35
5408.00,1.35
5407.00,1.35
5406.00,1.35
5405.00,1.35
5404.00,1.34
5403.00,1.34
5402.00,1.34
5401.00,1.34
5400.00,1.34
5399.00,1.34
5398.00,1.34
5397.00,1.34
5396.00,1.34
5395.00,1.34
5394.00,1.34
5393.00,1.34
5392.00,1.34
5391.00,1.34
5390.00,1.34
5389.00,1.34
5388.00,1.34
5387.00,1.34
5386.00,1.34
5385.00,1.34
5384.00,1.34
5383.00,1.34
5382.00,1.34
5381.00,1.34
5380.00,1.34
5379.00,1.34
5378.00,1.34
5377.00,1.34
5376.00,1.34
5375.00,1.33
5374.00,1.33
5373.00,1.33
5372.00,1.33
5371.00,1.33
5370.00,1.33
5369.00,1.33
5368.00,1.32
5367.00,1.32
5366.00,1.32
5365.00,1.32
5364.00,1.32
5363.00,1.31
5362.00,1.31
5361.00,1.31
5360.00,1.31
5359.00,1.30
5358.00,1.30
5357.00,1.30
5356.00,1.30
5355.00,1.29
5354.00,1.29
5353.00,1.29
5352.00,1.28
5351.00,1.28
5350.00,1.28
5349.00,1.27
5348.00,1.27
5347.00,1.26
5346.00,1.26
5345.00,1.26
5344.00,1.25
5343.00,1.25
5342.00,1.25
5341.00,1.24
5340.00,1.24
5339.00,1.23
5338.00,1.23
5337.00,1.22
5336.00,1.22
5335.00,1.21
5334.00,1.20
5333.00,1.20
5332.00,1.19
5331.00,1.19
5330.00,1.18
5329.00,1.17
5328.00,1.17
5327.00,1.16
5326.00,1.15
5325.00,1.15
5324.00,1.14
5323.00,1.13
5322.00,1.13
5321.00,1.12
5320.00,1.11
5319.00,1.10
5318.00,1.10
5317.00,1.09
5316.00,1.08
5315.00,1.07
5314.00,1.06
5313.00,1.06
5312.00,1.05
5311.00,1.04
5310.00,1.03
5309.00,1.02
5308.00,1.01
5307.00,1.01
5306.00,1.00
5305.00,0.99
5304.00,0.98
5303.00,0.97
5302.00,0.96
5301.00,0.96
5300.00,0.95
5299.00,0.94
5298.00,0.93
5297.00,0.93
5296.00,0.92
5295.00,0.91
5294.00,0.90
5293.00,0.90
5292.00,0.89
5291.00,0.88
5290.00,0.88
5289.00,0.87
5288.00,0.86
5287.00,0.86
5286.00,0.85
5285.00,0.85
5284.00,0.84
5283.00,0.83
5282.00,0.83
5281.00,0.83
5280.00,0.82
5279.00,0.82
5278.00,0.81
5277.00,0.81
5276.00,0.80
5275.00,0.80
5274.00,0.79
5273.00,0.79
5272.00,0.78
5271.00,0.78
5270.00,0.78
5269.00,0.77
5268.00,0.77
5267.00,0.76
5266.00,0.76
5265.00,0.76
5264.00,0.75
5263.00,0.75
5262.00,0.75
5261.00,0.74
5260.00,0.74
5259.00,0.74
5258.00,0.73
5257.00,0.73
5256.00,0.72
5255.00,0.72
5254.00,0.72
5253.00,0.71
5252.00,0.71
5251.00,0.71
5250.00,0.70
5249.00,0.70
5248.00,0.70
5247.00,0.70
5246.00,0.69
5245.00,0.69
5244.00,0.69
5243.00,0.68
5242.00,0.68
5241.00,0.68
5240.00,0.68
5239.00,0.67
5238.00,0.67
5237.00,0.67
5236.00,0.66
5235.00,0.66
5234.00,0.66
5233.00,0.66
5232.00,0.66
5231.00,0.65
5230.00,0.65
5229.00,0.65
5228.00,0.65
5227.00,0.64
5226.00,0.64
5225.00,0.64
5224.00,0.64
5223.00,0.63
5222.00,0.63
5221.00,0.63
5220.00,0.63
5219.00,0.63
5218.00,0.62
5217.00,0.62
5216.00,0.62
5215.00,0.62
5214.00,0.62
5213.00,0.61
5212.00,0.61
5211.00,0.61
5210.00,0.61
5209.00,0.61
5208.00,0.61
5207.00,0.61
5206.00,0.61
5205.00,0.60
5204.00,0.60
5203.00,0.60
5202.00,0.60
5201.00,0.60
5200.00,0.60
5199.00,0.60
5198.00,0.60
5197.00,0.60
5196.00,0.60
5195.00,0.59
5194.00,0.59
5193.00,0.59
5192.00,0.59
5191.00,0.59
5190.00,0.59
5189.00,0.59
5188.00,0.59
5187.00,0.59
5186.00,0.59
5185.00,0.59
5184.00,0.59
5183.00,0.59
5182.00,0.59
5181.00,0.59
5180.00,0.59
5179.00,0.59
5178.00,0.59
5177.00,0.59
5176.00,0.59
5175.00,0.60
5174.00,0.60
5173.00,0.60
5172.00,0.60
5171.00,0.60
5170.00,0.60
5169.00,0.60
5168.00,0.60
5167.00,0.60
5166.00,0.60
5165.00,0.60
5164.00,0.60
5163.00,0.60
5162.00,0.60
5161.00,0.60
5160.00,0.60
5159.00,0.60
5158.00,0.60
5157.00,0.60
5156.00,0.60
5155.00,0.60
5154.00,0.60
5153.00,0.60
5152.00,0.60
5151.00,0.60
5150.00,0.60
5149.00,0.60
5148.00,0.60
5147.00,0.60
5146.00,0.60
5145.00,0.60
5144.00,0.60
5143.00,0.60
5142.00,0.60
5141.00,0.60
5140.00,0.60
5139.00,0.60
5138.00,0.60
5137.00,0.60
5136.00,0.60
5135.00,0.60
5134.00,0.60
5133.00,0.60
5132.00,0.60
5131.00,0.60
5130.00,0.60
5129.00,0.60
5128.00,0.60
5127.00,0.61
5126.00,0.61
5125.00,0.61
5124.00,0.61
5123.00,0.61
5122.00,0.61
5121.00,0.61
5120.00,0.62
5119.00,0.62
5118.00,0.62
5117.00,0.62
5116.00,0.62
5115.00,0.62
5114.00,0.62
5113.00,0.63
5112.00,0.63
5111.00,0.63
5110.00,0.63
5109.00,0.63
5108.00,0.63
5107.00,0.63
5106.00,0.64
5105.00,0.64
5104.00,0.64
5103.00,0.64
5102.00,0.64
5101.00,0.64
5100.00,0.64
5099.00,0.64
5098.00,0.65
5097.00,0.65
5096.00,0.65
5095.00,0.65
5094.00,0.65
5093.00,0.65
5092.00,0.65
5091.00,0.66
5090.00,0.66
5089.00,0.66
5088.00,0.66
5087.00,0.66
5086.00,0.67
5085.00,0.67
5084.00,0.67
5083.00,0.67
5082.00,0.67
5081.00,0.68
5080.00,0.68
5079.00,0.68
5078.00,0.68
5077.00,0.68
5076.00,0.69
5075.00,0.69
5074.00,0.69
5073.00,0.70
5072.00,0.70
5071.00,0.70
5070.00,0.70
5069.00,0.71
5068.00,0.71
5067.00,0.71
5066.00,0.71
5065.00,0.72
5064.00,0.72
5063.00,0.72
5062.00,0.72
5061.00,0.73
5060.00,0.73
5059.00,0.73
5058.00,0.73
5057.00,0.74
5056.00,0.74
5055.00,0.74
5054.00,0.74
5053.00,0.75
5052.00,0.75
5051.00,0.75
5050.00,0.75
5049.00,0.75
5048.00,0.75
5047.00,0.76
5046.00,0.76
5045.00,0.76
5044.00,0.76
5043.00,0.76
5042.00,0.76
5041.00,0.76
5040.00,0.76
5039.00,0.76
5038.00,0.76
5037.00,0.76
5036.00,0.77
5035.00,0.77
5034.00,0.77
5033.00,0.77
5032.00,0.77
5031.00,0.77
5030.00,0.77
5029.00,0.77
5028.00,0.77
5027.00,0.77
5026.00,0.77
5025.00,0.77
5024.00,0.77
5023.00,0.78
5022.00,0.78
5021.00,0.78
5020.00,0.78
5019.00,0.78
5018.00,0.78
5017.00,0.79
5016.00,0.79
5015.00,0.79
5014.00,0.79
5013.00,0.79
5012.00,0.80
5011.00,0.80
5010.00,0.80
5009.00,0.80
5008.00,0.81
5007.00,0.81
5006.00,0.81
5005.00,0.82
5004.00,0.82
5003.00,0.82
5002.00,0.82
5001.00,0.83
5000.00,0.83
4999.00,0.83
4998.00,0.83
4997.00,0.84
4996.00,0.84
4995.00,0.84
4994.00,0.84
4993.00,0.85
4992.00,0.85
4991.00,0.85
4990.00,0.85
4989.00,0.86
4988.00,0.86
4987.00,0.86
4986.00,0.86
4985.00,0.86
4984.00,0.87
4983.00,0.87
4982.00,0.87
4981.00,0.87
4980.00,0.87
4979.00,0.88
4978.00,0.88
4977.00,0.88
4976.00,0.88
4975.00,0.88
4974.00,0.88
4973.00,0.88
4972.00,0.88
4971.00,0.89
4970.00,0.89
4969.00,0.89
4968.00,0.89
4967.00,0.89
4966.00,0.89
4965.00,0.89
4964.00,0.90
4963.00,0.90
4962.00,0.90
4961.00,0.90
4960.00,0.90
4959.00,0.90
4958.00,0.90
4957.00,0.91
4956.00,0.91
4955.00,0.91
4954.00,0.91
4953.00,0.91
4952.00,0.91
4951.00,0.91
4950.00,0.92
4949.00,0.92
4948.00,0.92
4947.00,0.92
4946.00,0.92
4945.00,0.92
4944.00,0.92
4943.00,0.92
4942.00,0.92
4941.00,0.93
4940.00,0.93
4939.00,0.93
4938.00,0.93
4937.00,0.93
4936.00,0.93
4935.00,0.93
4934.00,0.93
4933.00,0.93
4932.00,0.93
4931.00,0.93
4930.00,0.93
4929.00,0.93
4928.00,0.93
4927.00,0.93
4926.00,0.93
4925.00,0.93
4924.00,0.93
4923.00,0.93
4922.00,0.93
4921.00,0.93
4920.00,0.94
4919.00,0.94
4918.00,0.94
4917.00,0.94
4916.00,0.94
4915.00,0.94
4914.00,0.95
4913.00,0.95
4912.00,0.95
4911.00,0.95
4910.00,0.96
4909.00,0.96
4908.00,0.96
4907.00,0.96
4906.00,0.97
4905.00,0.97
4904.00,0.97
4903.00,0.97
4902.00,0.97
4901.00,0.98
4900.00,0.98
4899.00,0.98
4898.00,0.98
4897.00,0.98
4896.00,0.99
4895.00,0.99
4894.00,0.99
4893.00,0.99
4892.00,0.99
4891.00,0.99
4890.00,1.00
4889.00,1.00
4888.00,1.00
4887.00,1.00
4886.00,1.00
4885.00,1.00
4884.00,1.00
4883.00,1.00
4882.00,1.00
4881.00,1.01
4880.00,1.01
4879.00,1.01
4878.00,1.01
4877.00,1.01
4876.00,1.01
4875.00,1.01
4874.00,1.02
4873.00,1.02
4872.00,1.02
4871.00,1.02
4870.00,1.02
4869.00,1.02
4868.00,1.02
4867.00,1.03
4866.00,1.03
4865.00,1.03
4864.00,1.03
4863.00,1.03
4862.00,1.03
4861.00,1.03
4860.00,1.04
4859.00,1.04
4858.00,1.04
4857.00,1.04
4856.00,1.04
4855.00,1.04
4854.00,1.05
4853.00,1.05
4852.00,1.05
4851.00,1.05
4850.00,1.05
4849.00,1.05
4848.00,1.05
4847.00,1.05
4846.00,1.05
4845.00,1.05
4844.00,1.06
4843.00,1.06
4842.00,1.06
4841.00,1.06
4840.00,1.06
4839.00,1.06
4838.00,1.06
4837.00,1.06
4836.00,1.06
4835.00,1.06
4834.00,1.06
4833.00,1.06
4832.00,1.06
4831.00,1.06
4830.00,1.06
4829.00,1.06
4828.00,1.07
4827.00,1.07
4826.00,1.07
4825.00,1.07
4824.00,1.07
4823.00,1.07
4822.00,1.07
4821.00,1.07
4820.00,1.07
4819.00,1.07
4818.00,1.08
4817.00,1.08
4816.00,1.08
4815.00,1.08
4814.00,1.08
4813.00,1.08
4812.00,1.08
4811.00,1.08
4810.00,1.09
4809.00,1.09
4808.00,1.09
4807.00,1.09
4806.00,1.09
4805.00,1.10
4804.00,1.10
4803.00,1.10
4802.00,1.10
4801.00,1.10
4800.00,1.11
4799.00,1.11
4798.00,1.11
4797.00,1.11
4796.00,1.11
4795.00,1.11
4794.00,1.12
4793.00,1.12
4792.00,1.12
4791.00,1.12
4790.00,1.12
4789.00,1.12
4788.00,1.12
4787.00,1.12
4786.00,1.13
4785.00,1.13
4784.00,1.13
4783.00,1.13
4782.00,1.13
4781.00,1.13
4780.00,1.13
4779.00,1.13
4778.00,1.13
4777.00,1.13
4776.00,1.13
4775.00,1.13
4774.00,1.13
4773.00,1.13
4772.00,1.13
4771.00,1.13
4770.00,1.13
4769.00,1.13
4768.00,1.14
4767.00,1.14
4766.00,1.14
4765.00,1.14
4764.00,1.14
4763.00,1.14
4762.00,1.15
4761.00,1.15
4760.00,1.15
4759.00,1.15
4758.00,1.15
4757.00,1.15
4756.00,1.16
4755.00,1.16
4754.00,1.16
4753.00,1.16
4752.00,1.16
4751.00,1.17
4750.00,1.17
4749.00,1.17
4748.00,1.17
4747.00,1.18
4746.00,1.18
4745.00,1.18
4744.00,1.18
4743.00,1.18
4742.00,1.19
4741.00,1.19
4740.00,1.19
4739.00,1.19
4738.00,1.20
4737.00,1.20
4736.00,1.20
4735.00,1.20
4734.00,1.21
4733.00,1.21
4732.00,1.21
4731.00,1.21
4730.00,1.22
4729.00,1.22
4728.00,1.22
4727.00,1.23
4726.00,1.23
4725.00,1.23
4724.00,1.24
4723.00,1.24
4722.00,1.25
4721.00,1.25
4720.00,1.25
4719.00,1.26
4718.00,1.26
4717.00,1.26
4716.00,1.27
4715.00,1.27
4714.00,1.27
4713.00,1.27
4712.00,1.28
4711.00,1.28
4710.00,1.28
4709.00,1.28
4708.00,1.28
4707.00,1.29
4706.00,1.29
4705.00,1.29
4704.00,1.29
4703.00,1.29
4702.00,1.29
4701.00,1.29
4700.00,1.29
4699.00,1.30
4698.00,1.30
4697.00,1.30
4696.00,1.30
4695.00,1.30
4694.00,1.30
4693.00,1.30
4692.00,1.30
4691.00,1.30
4690.00,1.30
4689.00,1.30
4688.00,1.30
4687.00,1.30
4686.00,1.30
4685.00,1.30
4684.00,1.30
4683.00,1.29
4682.00,1.29
4681.00,1.29
4680.00,1.29
4679.00,1.29
4678.00,1.29
4677.00,1.29
4676.00,1.29
4675.00,1.29
4674.00,1.29
4673.00,1.29
4672.00,1.29
4671.00,1.29
4670.00,1.29
4669.00,1.29
4668.00,1.29
4667.00,1.29
4666.00,1.29
4665.00,1.29
4664.00,1.29
4663.00,1.30
4662.00,1.30
4661.00,1.30
4660.00,1.30
4659.00,1.30
4658.00,1.30
4657.00,1.30
4656.00,1.30
4655.00,1.31
4654.00,1.31
4653.00,1.31
4652.00,1.31
4651.00,1.31
4650.00,1.32
4649.00,1.32
4648.00,1.32
4647.00,1.32
4646.00,1.32
4645.00,1.32
4644.00,1.32
4643.00,1.32
4642.00,1.33
4641.00,1.33
4640.00,1.33
4639.00,1.33
4638.00,1.33
4637.00,1.33
4636.00,1.33
4635.00,1.33
4634.00,1.33
4633.00,1.33
4632.00,1.33
4631.00,1.33
4630.00,1.33
4629.00,1.33
4628.00,1.32
4627.00,1.32
4626.00,1.32
4625.00,1.32
4624.00,1.32
4623.00,1.32
4622.00,1.32
4621.00,1.32
4620.00,1.32
4619.00,1.32
4618.00,1.32
4617.00,1.32
4616.00,1.32
4615.00,1.33
4614.00,1.33
4613.00,1.33
4612.00,1.33
4611.00,1.33
4610.00,1.33
4609.00,1.33
4608.00,1.33
4607.00,1.33
4606.00,1.33
4605.00,1.34
4604.00,1.34
4603.00,1.34
4602.00,1.34
4601.00,1.34
4600.00,1.34
4599.00,1.35
4598.00,1.35
4597.00,1.35
4596.00,1.35
4595.00,1.35
4594.00,1.35
4593.00,1.35
4592.00,1.35
4591.00,1.35
4590.00,1.35
4589.00,1.35
4588.00,1.35
4587.00,1.35
4586.00,1.35
4585.00,1.35
4584.00,1.35
4583.00,1.35
4582.00,1.35
4581.00,1.35
4580.00,1.35
4579.00,1.35
4578.00,1.35
4577.00,1.35
4576.00,1.35
4575.00,1.35
4574.00,1.35
4573.00,1.35
4572.00,1.35
4571.00,1.35
4570.00,1.35
4569.00,1.35
4568.00,1.35
4567.00,1.35
4566.00,1.35
4565.00,1.35
4564.00,1.35
4563.00,1.35
4562.00,1.35
4561.00,1.35
4560.00,1.35
4559.00,1.35
4558.00,1.35
4557.00,1.35
4556.00,1.35
4555.00,1.35
4554.00,1.35
4553.00,1.35
4552.00,1.35
4551.00,1.35
4550.00,1.35
4549.00,1.35
4548.00,1.35
4547.00,1.35
4546.00,1.35
4545.00,1.35
4544.00,1.35
4543.00,1.35
4542.00,1.35
4541.00,1.35
4540.00,1.35
4539.00,1.34
4538.00,1.34
4537.00,1.34
4536.00,1.34
4535.00,1.34
4534.00,1.34
4533.00,1.34
4532.00,1.34
4531.00,1.34
4530.00,1.34
4529.00,1.34
4528.00,1.34
4527.00,1.34
4526.00,1.34
4525.00,1.34
4524.00,1.34
4523.00,1.34
4522.00,1.34
4521.00,1.34
4520.00,1.34
4519.00,1.34
4518.00,1.34
4517.00,1.34
4516.00,1.34
4515.00,1.34
4514.00,1.34
4513.00,1.34
4512.00,1.34
4511.00,1.35
4510.00,1.35
4509.00,1.35
4508.00,1.35
4507.00,1.35
4506.00,1.35
4505.00,1.35
4504.00,1.35
4503.00,1.36
4502.00,1.36
4501.00,1.36
4500.00,1.36
4499.00,1.36
4498.00,1.36
4497.00,1.36
4496.00,1.36
4495.00,1.36
4494.00,1.36
4493.00,1.36
4492.00,1.36
4491.00,1.36
4490.00,1.36
4489.00,1.36
4488.00,1.36
4487.00,1.36
4486.00,1.36
4485.00,1.36
4484.00,1.36
4483.00,1.36
4482.00,1.35
4481.00,1.35
4480.00,1.35
4479.00,1.35
4478.00,1.34
4477.00,1.34
4476.00,1.34
4475.00,1.34
4474.00,1.33
4473.00,1.33
4472.00,1.33
4471.00,1.33
4470.00,1.32
4469.00,1.32
4468.00,1.32
4467.00,1.31
4466.00,1.31
4465.00,1.31
4464.00,1.31
4463.00,1.30
4462.00,1.30
4461.00,1.30
4460.00,1.29
4459.00,1.29
4458.00,1.29
4457.00,1.29
4456.00,1.28
4455.00,1.28
4454.00,1.28
4453.00,1.28
4452.00,1.27
4451.00,1.27
4450.00,1.27
4449.00,1.26
4448.00,1.26
4447.00,1.25
4446.00,1.25
4445.00,1.24
4444.00,1.24
4443.00,1.23
4442.00,1.23
4441.00,1.22
4440.00,1.22
4439.00,1.21
4438.00,1.21
4437.00,1.20
4436.00,1.19
4435.00,1.19
4434.00,1.18
4433.00,1.17
4432.00,1.16
4431.00,1.15
4430.00,1.15
4429.00,1.14
4428.00,1.13
4427.00,1.12
4426.00,1.12
4425.00,1.11
4424.00,1.10
4423.00,1.09
4422.00,1.09
4421.00,1.08
4420.00,1.07
4419.00,1.07
4418.00,1.06
4417.00,1.06
4416.00,1.05
4415.00,1.05
4414.00,1.04
4413.00,1.04
4412.00,1.03
4411.00,1.03
4410.00,1.03
4409.00,1.03
4408.00,1.03
4407.00,1.03
4406.00,1.03
4405.00,1.03
4404.00,1.03
4403.00,1.03
4402.00,1.03
4401.00,1.03
4400.00,1.03
4399.00,1.03
4398.00,1.04
4397.00,1.04
4396.00,1.04
4395.00,1.05
4394.00,1.05
4393.00,1.05
4392.00,1.06
4391.00,1.06
4390.00,1.06
4389.00,1.07
4388.00,1.07
4387.00,1.08
4386.00,1.08
4385.00,1.08
4384.00,1.09
4383.00,1.09
4382.00,1.09
4381.00,1.10
4380.00,1.10
4379.00,1.10
4378.00,1.10
4377.00,1.10
4376.00,1.11
4375.00,1.11
4374.00,1.11
4373.00,1.11
4372.00,1.11
4371.00,1.11
4370.00,1.11
4369.00,1.11
4368.00,1.11
4367.00,1.11
4366.00,1.11
4365.00,1.10
4364.00,1.10
4363.00,1.10
4362.00,1.10
4361.00,1.09
4360.00,1.09
4359.00,1.09
4358.00,1.09
4357.00,1.08
4356.00,1.08
4355.00,1.08
4354.00,1.07
4353.00,1.07
4352.00,1.06
4351.00,1.06
4350.00,1.06
4349.00,1.05
4348.00,1.05
4347.00,1.05
4346.00,1.04
4345.00,1.04
4344.00,1.04
4343.00,1.04
4342.00,1.04
4341.00,1.04
4340.00,1.04
4339.00,1.04
4338.00,1.04
4337.00,1.04
4336.00,1.04
4335.00,1.04
4334.00,1.05
4333.00,1.05
4332.00,1.05
4331.00,1.06
4330.00,1.06
4329.00,1.07
4328.00,1.07
4327.00,1.08
4326.00,1.08
4325.00,1.09
4324.00,1.10
4323.00,1.10
4322.00,1.11
4321.00,1.12
4320.00,1.12
4319.00,1.13
4318.00,1.14
4317.00,1.14
4316.00,1.15
4315.00,1.16
4314.00,1.16
4313.00,1.17
4312.00,1.18
4311.00,1.18
4310.00,1.19
4309.00,1.20
4308.00,1.20
4307.00,1.21
4306.00,1.21
4305.00,1.22
4304.00,1.22
4303.00,1.23
4302.00,1.23
4301.00,1.23
4300.00,1.24
4299.00,1.24
4298.00,1.24
4297.00,1.25
4296.00,1.25
4295.00,1.25
4294.00,1.25
4293.00,1.26
4292.00,1.26
4291.00,1.26
4290.00,1.26
4289.00,1.26
4288.00,1.26
4287.00,1.26
4286.00,1.27
4285.00,1.27
4284.00,1.27
4283.00,1.27
4282.00,1.27
4281.00,1.27
4280.00,1.26
4279.00,1.26
4278.00,1.26
4277.00,1.26
4276.00,1.26
4275.00,1.26
4274.00,1.25
4273.00,1.25
4272.00,1.25
4271.00,1.25
4270.00,1.24
4269.00,1.24
4268.00,1.24
4267.00,1.24
4266.00,1.23
4265.00,1.23
4264.00,1.23
4263.00,1.22
4262.00,1.22
4261.00,1.22
4260.00,1.22
4259.00,1.21
4258.00,1.21
4257.00,1.21
4256.00,1.21
4255.00,1.21
4254.00,1.21
4253.00,1.21
4252.00,1.21
4251.00,1.21
4250.00,1.21
4249.00,1.21
4248.00,1.21
4247.00,1.21
4246.00,1.21
4245.00,1.21
4244.00,1.21
4243.00,1.21
4242.00,1.22
4241.00,1.22
4240.00,1.22
4239.00,1.22
4238.00,1.23
4237.00,1.23
4236.00,1.24
4235.00,1.24
4234.00,1.24
4233.00,1.25
4232.00,1.25
4231.00,1.26
4230.00,1.26
4229.00,1.26
4228.00,1.27
4227.00,1.27
4226.00,1.27
4225.00,1.28
4224.00,1.28
4223.00,1.28
4222.00,1.29
4221.00,1.29
4220.00,1.29
4219.00,1.30
4218.00,1.30
4217.00,1.30
4216.00,1.30
4215.00,1.30
4214.00,1.31
4213.00,1.31
4212.00,1.31
4211.00,1.31
4210.00,1.31
4209.00,1.31
4208.00,1.30
4207.00,1.30
4206.00,1.30
4205.00,1.30
4204.00,1.30
4203.00,1.30
4202.00,1.30
4201.00,1.30
4200.00,1.30
4199.00,1.30
4198.00,1.30
4197.00,1.30
4196.00,1.30
4195.00,1.30
4194.00,1.30
4193.00,1.30
4192.00,1.29
4191.00,1.29
4190.00,1.29
4189.00,1.29
4188.00,1.28
4187.00,1.28
4186.00,1.28
4185.00,1.28
4184.00,1.28
4183.00,1.28
4182.00,1.27
4181.00,1.27
4180.00,1.27
4179.00,1.27
4178.00,1.27
4177.00,1.27
4176.00,1.27
4175.00,1.27
4174.00,1.26
4173.00,1.26
4172.00,1.26
4171.00,1.26
4170.00,1.26
4169.00,1.26
4168.00,1.26
4167.00,1.26
4166.00,1.26
4165.00,1.26
4164.00,1.26
4163.00,1.26
4162.00,1.26
4161.00,1.26
4160.00,1.26
4159.00,1.26
4158.00,1.26
4157.00,1.26
4156.00,1.27
4155.00,1.27
4154.00,1.27
4153.00,1.27
4152.00,1.27
4151.00,1.27
4150.00,1.27
4149.00,1.27
4148.00,1.27
4147.00,1.27
4146.00,1.27
4145.00,1.28
4144.00,1.28
4143.00,1.28
4142.00,1.28
4141.00,1.28
4140.00,1.28
4139.00,1.28
4138.00,1.28
4137.00,1.28
4136.00,1.29
4135.00,1.29
4134.00,1.29
4133.00,1.29
4132.00,1.29
4131.00,1.29
4130.00,1.29
4129.00,1.29
4128.00,1.29
4127.00,1.29
4126.00,1.29
4125.00,1.30
4124.00,1.30
4123.00,1.30
4122.00,1.30
4121.00,1.30
4120.00,1.30
4119.00,1.30
4118.00,1.30
4117.00,1.30
4116.00,1.30
4115.00,1.30
4114.00,1.30
4113.00,1.30
4112.00,1.30
4111.00,1.30
4110.00,1.29
4109.00,1.29
4108.00,1.29
4107.00,1.29
4106.00,1.29
4105.00,1.29
4104.00,1.29
4103.00,1.29
4102.00,1.29
4101.00,1.29
4100.00,1.29
4099.00,1.29
4098.00,1.28
4097.00,1.28
4096.00,1.28
4095.00,1.28
4094.00,1.28
4093.00,1.27
4092.00,1.27
4091.00,1.27
4090.00,1.27
4089.00,1.27
4088.00,1.27
4087.00,1.27
4086.00,1.27
4085.00,1.27
4084.00,1.26
4083.00,1.26
4082.00,1.26
4081.00,1.26
4080.00,1.26
4079.00,1.26
4078.00,1.26
4077.00,1.26
4076.00,1.26
4075.00,1.26
4074.00,1.26
4073.00,1.26
4072.00,1.26
4071.00,1.26
4070.00,1.26
4069.00,1.26
4068.00,1.26
4067.00,1.26
4066.00,1.27
4065.00,1.27
4064.00,1.27
4063.00,1.27
4062.00,1.27
4061.00,1.27
4060.00,1.27
4059.00,1.28
4058.00,1.28
4057.00,1.28
4056.00,1.28
4055.00,1.28
4054.00,1.28
4053.00,1.28
4052.00,1.28
4051.00,1.28
4050.00,1.28
4049.00,1.28
4048.00,1.29
4047.00,1.29
4046.00,1.29
4045.00,1.30
4044.00,1.30
4043.00,1.30
4042.00,1.30
4041.00,1.31
4040.00,1.31
4039.00,1.31
4038.00,1.31
4037.00,1.31
4036.00,1.32
4035.00,1.32
4034.00,1.32
4033.00,1.32
4032.00,1.32
4031.00,1.33
4030.00,1.33
4029.00,1.33
4028.00,1.33
4027.00,1.34
4026.00,1.34
4025.00,1.34
4024.00,1.34
4023.00,1.35
4022.00,1.35
4021.00,1.35
4020.00,1.35
4019.00,1.35
4018.00,1.35
4017.00,1.36
4016.00,1.36
4015.00,1.36
4014.00,1.36
4013.00,1.36
4012.00,1.36
4011.00,1.37
4010.00,1.37
4009.00,1.37
4008.00,1.37
4007.00,1.38
4006.00,1.38
4005.00,1.38
4004.00,1.39
4003.00,1.39
4002.00,1.39
4001.00,1.40
4000.00,1.40
