创建为新数据集,样品 1154 用户 Administrator 日期 星期二, 七月 30 2019
cm-1,%T
10000.00,3.03
9999.00,2.99
9998.00,2.96
9997.00,2.93
9996.00,2.89
9995.00,2.86
9994.00,2.82
9993.00,2.79
9992.00,2.76
9991.00,2.72
9990.00,2.69
9989.00,2.66
9988.00,2.62
9987.00,2.59
9986.00,2.56
9985.00,2.53
9984.00,2.51
9983.00,2.48
9982.00,2.45
9981.00,2.43
9980.00,2.41
9979.00,2.39
9978.00,2.37
9977.00,2.35
9976.00,2.34
9975.00,2.33
9974.00,2.31
9973.00,2.30
9972.00,2.30
9971.00,2.29
9970.00,2.29
9969.00,2.29
9968.00,2.29
9967.00,2.29
9966.00,2.30
9965.00,2.30
9964.00,2.30
9963.00,2.31
9962.00,2.31
9961.00,2.32
9960.00,2.32
9959.00,2.32
9958.00,2.33
9957.00,2.33
9956.00,2.33
9955.00,2.33
9954.00,2.33
9953.00,2.33
9952.00,2.33
9951.00,2.34
9950.00,2.35
9949.00,2.36
9948.00,2.37
9947.00,2.38
9946.00,2.40
9945.00,2.41
9944.00,2.43
9943.00,2.44
9942.00,2.46
9941.00,2.47
9940.00,2.49
9939.00,2.51
9938.00,2.53
9937.00,2.55
9936.00,2.58
9935.00,2.61
9934.00,2.64
9933.00,2.67
9932.00,2.71
9931.00,2.74
9930.00,2.77
9929.00,2.80
9928.00,2.83
9927.00,2.85
9926.00,2.87
9925.00,2.88
9924.00,2.89
9923.00,2.90
9922.00,2.90
9921.00,2.90
9920.00,2.89
9919.00,2.88
9918.00,2.87
9917.00,2.86
9916.00,2.85
9915.00,2.83
9914.00,2.82
9913.00,2.80
9912.00,2.77
9911.00,2.74
9910.00,2.71
9909.00,2.67
9908.00,2.62
9907.00,2.58
9906.00,2.52
9905.00,2.47
9904.00,2.42
9903.00,2.36
9902.00,2.31
9901.00,2.26
9900.00,2.21
9899.00,2.16
9898.00,2.12
9897.00,2.08
9896.00,2.04
9895.00,2.01
9894.00,1.98
9893.00,1.94
9892.00,1.91
9891.00,1.88
9890.00,1.85
9889.00,1.82
9888.00,1.79
9887.00,1.77
9886.00,1.74
9885.00,1.72
9884.00,1.70
9883.00,1.69
9882.00,1.68
9881.00,1.68
9880.00,1.68
9879.00,1.68
9878.00,1.68
9877.00,1.68
9876.00,1.69
9875.00,1.69
9874.00,1.69
9873.00,1.70
9872.00,1.70
9871.00,1.70
9870.00,1.70
9869.00,1.70
9868.00,1.70
9867.00,1.70
9866.00,1.70
9865.00,1.71
9864.00,1.71
9863.00,1.71
9862.00,1.71
9861.00,1.72
9860.00,1.73
9859.00,1.74
9858.00,1.74
9857.00,1.75
9856.00,1.76
9855.00,1.77
9854.00,1.78
9853.00,1.79
9852.00,1.80
9851.00,1.81
9850.00,1.82
9849.00,1.83
9848.00,1.85
9847.00,1.86
9846.00,1.88
9845.00,1.90
9844.00,1.92
9843.00,1.94
9842.00,1.95
9841.00,1.97
9840.00,1.99
9839.00,2.00
9838.00,2.01
9837.00,2.02
9836.00,2.03
9835.00,2.03
9834.00,2.03
9833.00,2.03
9832.00,2.02
9831.00,2.02
9830.00,2.01
9829.00,2.00
9828.00,2.00
9827.00,1.99
9826.00,1.98
9825.00,1.97
9824.00,1.96
9823.00,1.95
9822.00,1.93
9821.00,1.92
9820.00,1.90
9819.00,1.88
9818.00,1.86
9817.00,1.84
9816.00,1.82
9815.00,1.81
9814.00,1.79
9813.00,1.78
9812.00,1.77
9811.00,1.77
9810.00,1.77
9809.00,1.77
9808.00,1.78
9807.00,1.79
9806.00,1.80
9805.00,1.81
9804.00,1.83
9803.00,1.84
9802.00,1.86
9801.00,1.88
9800.00,1.89
9799.00,1.91
9798.00,1.93
9797.00,1.95
9796.00,1.97
9795.00,2.00
9794.00,2.02
9793.00,2.05
9792.00,2.08
9791.00,2.10
9790.00,2.13
9789.00,2.15
9788.00,2.17
9787.00,2.19
9786.00,2.21
9785.00,2.22
9784.00,2.24
9783.00,2.25
9782.00,2.25
9781.00,2.26
9780.00,2.27
9779.00,2.27
9778.00,2.28
9777.00,2.28
9776.00,2.28
9775.00,2.28
9774.00,2.27
9773.00,2.27
9772.00,2.26
9771.00,2.24
9770.00,2.23
9769.00,2.21
9768.00,2.19
9767.00,2.17
9766.00,2.15
9765.00,2.13
9764.00,2.11
9763.00,2.09
9762.00,2.08
9761.00,2.07
9760.00,2.06
9759.00,2.06
9758.00,2.05
9757.00,2.05
9756.00,2.05
9755.00,2.05
9754.00,2.05
9753.00,2.04
9752.00,2.04
9751.00,2.03
9750.00,2.03
9749.00,2.03
9748.00,2.03
9747.00,2.03
9746.00,2.03
9745.00,2.04
9744.00,2.04
9743.00,2.05
9742.00,2.07
9741.00,2.08
9740.00,2.10
9739.00,2.11
9738.00,2.12
9737.00,2.13
9736.00,2.14
9735.00,2.15
9734.00,2.15
9733.00,2.14
9732.00,2.13
9731.00,2.13
9730.00,2.12
9729.00,2.10
9728.00,2.09
9727.00,2.08
9726.00,2.07
9725.00,2.06
9724.00,2.06
9723.00,2.05
9722.00,2.05
9721.00,2.05
9720.00,2.05
9719.00,2.04
9718.00,2.04
9717.00,2.04
9716.00,2.03
9715.00,2.02
9714.00,2.02
9713.00,2.01
9712.00,1.99
9711.00,1.98
9710.00,1.97
9709.00,1.96
9708.00,1.95
9707.00,1.94
9706.00,1.93
9705.00,1.93
9704.00,1.93
9703.00,1.92
9702.00,1.92
9701.00,1.92
9700.00,1.92
9699.00,1.92
9698.00,1.91
9697.00,1.90
9696.00,1.89
9695.00,1.88
9694.00,1.87
9693.00,1.86
9692.00,1.84
9691.00,1.83
9690.00,1.82
9689.00,1.80
9688.00,1.79
9687.00,1.79
9686.00,1.78
9685.00,1.78
9684.00,1.78
9683.00,1.78
9682.00,1.78
9681.00,1.79
9680.00,1.79
9679.00,1.80
9678.00,1.80
9677.00,1.81
9676.00,1.81
9675.00,1.81
9674.00,1.82
9673.00,1.82
9672.00,1.82
9671.00,1.83
9670.00,1.84
9669.00,1.84
9668.00,1.85
9667.00,1.86
9666.00,1.87
9665.00,1.88
9664.00,1.90
9663.00,1.91
9662.00,1.92
9661.00,1.93
9660.00,1.94
9659.00,1.95
9658.00,1.96
9657.00,1.97
9656.00,1.98
9655.00,1.99
9654.00,1.99
9653.00,2.00
9652.00,2.01
9651.00,2.01
9650.00,2.02
9649.00,2.03
9648.00,2.05
9647.00,2.06
9646.00,2.07
9645.00,2.09
9644.00,2.10
9643.00,2.12
9642.00,2.13
9641.00,2.15
9640.00,2.16
9639.00,2.18
9638.00,2.19
9637.00,2.20
9636.00,2.22
9635.00,2.23
9634.00,2.24
9633.00,2.25
9632.00,2.26
9631.00,2.27
9630.00,2.28
9629.00,2.29
9628.00,2.30
9627.00,2.30
9626.00,2.31
9625.00,2.32
9624.00,2.32
9623.00,2.32
9622.00,2.33
9621.00,2.33
9620.00,2.33
9619.00,2.32
9618.00,2.32
9617.00,2.31
9616.00,2.30
9615.00,2.28
9614.00,2.27
9613.00,2.25
9612.00,2.23
9611.00,2.21
9610.00,2.19
9609.00,2.18
9608.00,2.16
9607.00,2.14
9606.00,2.13
9605.00,2.11
9604.00,2.09
9603.00,2.08
9602.00,2.07
9601.00,2.05
9600.00,2.03
9599.00,2.02
9598.00,2.00
9597.00,1.98
9596.00,1.97
9595.00,1.95
9594.00,1.94
9593.00,1.93
9592.00,1.92
9591.00,1.92
9590.00,1.93
9589.00,1.93
9588.00,1.95
9587.00,1.96
9586.00,1.98
9585.00,1.99
9584.00,2.01
9583.00,2.02
9582.00,2.04
9581.00,2.05
9580.00,2.06
9579.00,2.08
9578.00,2.09
9577.00,2.10
9576.00,2.11
9575.00,2.12
9574.00,2.13
9573.00,2.14
9572.00,2.15
9571.00,2.16
9570.00,2.16
9569.00,2.17
9568.00,2.18
9567.00,2.18
9566.00,2.18
9565.00,2.18
9564.00,2.17
9563.00,2.16
9562.00,2.15
9561.00,2.14
9560.00,2.13
9559.00,2.11
9558.00,2.10
9557.00,2.09
9556.00,2.07
9555.00,2.06
9554.00,2.04
9553.00,2.03
9552.00,2.02
9551.00,2.01
9550.00,2.00
9549.00,1.99
9548.00,1.98
9547.00,1.97
9546.00,1.97
9545.00,1.97
9544.00,1.97
9543.00,1.97
9542.00,1.98
9541.00,1.99
9540.00,1.99
9539.00,2.00
9538.00,2.01
9537.00,2.01
9536.00,2.02
9535.00,2.02
9534.00,2.03
9533.00,2.03
9532.00,2.03
9531.00,2.02
9530.00,2.02
9529.00,2.02
9528.00,2.02
9527.00,2.02
9526.00,2.02
9525.00,2.02
9524.00,2.02
9523.00,2.02
9522.00,2.02
9521.00,2.01
9520.00,2.01
9519.00,2.00
9518.00,1.99
9517.00,1.98
9516.00,1.97
9515.00,1.95
9514.00,1.93
9513.00,1.91
9512.00,1.89
9511.00,1.87
9510.00,1.84
9509.00,1.82
9508.00,1.80
9507.00,1.79
9506.00,1.77
9505.00,1.75
9504.00,1.74
9503.00,1.73
9502.00,1.72
9501.00,1.71
9500.00,1.69
9499.00,1.68
9498.00,1.67
9497.00,1.65
9496.00,1.63
9495.00,1.62
9494.00,1.60
9493.00,1.58
9492.00,1.57
9491.00,1.55
9490.00,1.54
9489.00,1.53
9488.00,1.53
9487.00,1.52
9486.00,1.52
9485.00,1.53
9484.00,1.53
9483.00,1.54
9482.00,1.56
9481.00,1.57
9480.00,1.59
9479.00,1.60
9478.00,1.62
9477.00,1.64
9476.00,1.66
9475.00,1.68
9474.00,1.69
9473.00,1.71
9472.00,1.72
9471.00,1.74
9470.00,1.76
9469.00,1.78
9468.00,1.80
9467.00,1.82
9466.00,1.84
9465.00,1.87
9464.00,1.89
9463.00,1.92
9462.00,1.94
9461.00,1.97
9460.00,1.99
9459.00,2.01
9458.00,2.03
9457.00,2.04
9456.00,2.06
9455.00,2.07
9454.00,2.08
9453.00,2.10
9452.00,2.11
9451.00,2.12
9450.00,2.14
9449.00,2.16
9448.00,2.18
9447.00,2.20
9446.00,2.22
9445.00,2.25
9444.00,2.27
9443.00,2.30
9442.00,2.32
9441.00,2.34
9440.00,2.36
9439.00,2.38
9438.00,2.39
9437.00,2.41
9436.00,2.42
9435.00,2.43
9434.00,2.45
9433.00,2.46
9432.00,2.47
9431.00,2.48
9430.00,2.49
9429.00,2.50
9428.00,2.51
9427.00,2.52
9426.00,2.52
9425.00,2.52
9424.00,2.52
9423.00,2.51
9422.00,2.50
9421.00,2.48
9420.00,2.46
9419.00,2.44
9418.00,2.42
9417.00,2.40
9416.00,2.38
9415.00,2.35
9414.00,2.33
9413.00,2.31
9412.00,2.29
9411.00,2.27
9410.00,2.26
9409.00,2.24
9408.00,2.22
9407.00,2.21
9406.00,2.19
9405.00,2.17
9404.00,2.16
9403.00,2.14
9402.00,2.12
9401.00,2.10
9400.00,2.08
9399.00,2.06
9398.00,2.04
9397.00,2.02
9396.00,2.00
9395.00,1.98
9394.00,1.96
9393.00,1.95
9392.00,1.93
9391.00,1.92
9390.00,1.91
9389.00,1.90
9388.00,1.89
9387.00,1.88
9386.00,1.86
9385.00,1.85
9384.00,1.83
9383.00,1.81
9382.00,1.79
9381.00,1.77
9380.00,1.75
9379.00,1.72
9378.00,1.70
9377.00,1.67
9376.00,1.65
9375.00,1.63
9374.00,1.61
9373.00,1.59
9372.00,1.58
9371.00,1.57
9370.00,1.56
9369.00,1.56
9368.00,1.55
9367.00,1.55
9366.00,1.55
9365.00,1.55
9364.00,1.55
9363.00,1.55
9362.00,1.56
9361.00,1.57
9360.00,1.58
9359.00,1.60
9358.00,1.62
9357.00,1.65
9356.00,1.67
9355.00,1.71
9354.00,1.74
9353.00,1.78
9352.00,1.83
9351.00,1.87
9350.00,1.92
9349.00,1.97
9348.00,2.02
9347.00,2.08
9346.00,2.13
9345.00,2.19
9344.00,2.25
9343.00,2.30
9342.00,2.36
9341.00,2.41
9340.00,2.46
9339.00,2.51
9338.00,2.55
9337.00,2.59
9336.00,2.63
9335.00,2.66
9334.00,2.68
9333.00,2.70
9332.00,2.72
9331.00,2.73
9330.00,2.74
9329.00,2.75
9328.00,2.75
9327.00,2.75
9326.00,2.75
9325.00,2.74
9324.00,2.73
9323.00,2.72
9322.00,2.70
9321.00,2.68
9320.00,2.66
9319.00,2.63
9318.00,2.61
9317.00,2.58
9316.00,2.55
9315.00,2.52
9314.00,2.48
9313.00,2.45
9312.00,2.42
9311.00,2.40
9310.00,2.37
9309.00,2.34
9308.00,2.32
9307.00,2.29
9306.00,2.27
9305.00,2.24
9304.00,2.22
9303.00,2.20
9302.00,2.18
9301.00,2.17
9300.00,2.15
9299.00,2.14
9298.00,2.12
9297.00,2.11
9296.00,2.09
9295.00,2.08
9294.00,2.07
9293.00,2.06
9292.00,2.05
9291.00,2.04
9290.00,2.03
9289.00,2.02
9288.00,2.02
9287.00,2.01
9286.00,2.00
9285.00,2.00
9284.00,1.99
9283.00,1.99
9282.00,1.99
9281.00,1.99
9280.00,1.98
9279.00,1.98
9278.00,1.98
9277.00,1.98
9276.00,1.98
9275.00,1.98
9274.00,1.98
9273.00,1.98
9272.00,1.98
9271.00,1.98
9270.00,1.98
9269.00,1.98
9268.00,1.98
9267.00,1.98
9266.00,1.98
9265.00,1.98
9264.00,1.98
9263.00,1.98
9262.00,1.98
9261.00,1.98
9260.00,1.98
9259.00,1.98
9258.00,1.98
9257.00,1.98
9256.00,1.99
9255.00,1.99
9254.00,2.00
9253.00,2.00
9252.00,2.01
9251.00,2.02
9250.00,2.03
9249.00,2.04
9248.00,2.05
9247.00,2.06
9246.00,2.07
9245.00,2.09
9244.00,2.10
9243.00,2.12
9242.00,2.13
9241.00,2.15
9240.00,2.17
9239.00,2.19
9238.00,2.21
9237.00,2.22
9236.00,2.24
9235.00,2.26
9234.00,2.29
9233.00,2.31
9232.00,2.33
9231.00,2.35
9230.00,2.37
9229.00,2.39
9228.00,2.41
9227.00,2.42
9226.00,2.44
9225.00,2.46
9224.00,2.47
9223.00,2.49
9222.00,2.50
9221.00,2.52
9220.00,2.53
9219.00,2.54
9218.00,2.55
9217.00,2.56
9216.00,2.57
9215.00,2.58
9214.00,2.59
9213.00,2.60
9212.00,2.60
9211.00,2.61
9210.00,2.62
9209.00,2.62
9208.00,2.62
9207.00,2.63
9206.00,2.63
9205.00,2.63
9204.00,2.63
9203.00,2.63
9202.00,2.62
9201.00,2.62
9200.00,2.61
9199.00,2.60
9198.00,2.59
9197.00,2.58
9196.00,2.58
9195.00,2.57
9194.00,2.56
9193.00,2.55
9192.00,2.54
9191.00,2.53
9190.00,2.51
9189.00,2.50
9188.00,2.49
9187.00,2.47
9186.00,2.46
9185.00,2.44
9184.00,2.43
9183.00,2.42
9182.00,2.40
9181.00,2.39
9180.00,2.38
9179.00,2.37
9178.00,2.36
9177.00,2.35
9176.00,2.34
9175.00,2.34
9174.00,2.34
9173.00,2.34
9172.00,2.33
9171.00,2.33
9170.00,2.33
9169.00,2.32
9168.00,2.32
9167.00,2.31
9166.00,2.30
9165.00,2.29
9164.00,2.28
9163.00,2.27
9162.00,2.26
9161.00,2.25
9160.00,2.25
9159.00,2.24
9158.00,2.24
9157.00,2.23
9156.00,2.23
9155.00,2.22
9154.00,2.22
9153.00,2.21
9152.00,2.20
9151.00,2.19
9150.00,2.18
9149.00,2.17
9148.00,2.16
9147.00,2.15
9146.00,2.15
9145.00,2.14
9144.00,2.13
9143.00,2.13
9142.00,2.12
9141.00,2.12
9140.00,2.12
9139.00,2.12
9138.00,2.12
9137.00,2.12
9136.00,2.12
9135.00,2.12
9134.00,2.12
9133.00,2.12
9132.00,2.11
9131.00,2.10
9130.00,2.10
9129.00,2.09
9128.00,2.08
9127.00,2.07
9126.00,2.07
9125.00,2.06
9124.00,2.05
9123.00,2.05
9122.00,2.04
9121.00,2.03
9120.00,2.02
9119.00,2.01
9118.00,2.01
9117.00,2.00
9116.00,1.99
9115.00,1.98
9114.00,1.98
9113.00,1.97
9112.00,1.96
9111.00,1.96
9110.00,1.95
9109.00,1.95
9108.00,1.95
9107.00,1.95
9106.00,1.95
9105.00,1.95
9104.00,1.96
9103.00,1.97
9102.00,1.97
9101.00,1.98
9100.00,2.00
9099.00,2.01
9098.00,2.02
9097.00,2.04
9096.00,2.05
9095.00,2.07
9094.00,2.08
9093.00,2.10
9092.00,2.11
9091.00,2.13
9090.00,2.14
9089.00,2.16
9088.00,2.18
9087.00,2.20
9086.00,2.22
9085.00,2.24
9084.00,2.26
9083.00,2.28
9082.00,2.29
9081.00,2.31
9080.00,2.32
9079.00,2.33
9078.00,2.34
9077.00,2.35
9076.00,2.36
9075.00,2.36
9074.00,2.36
9073.00,2.36
9072.00,2.36
9071.00,2.36
9070.00,2.35
9069.00,2.35
9068.00,2.34
9067.00,2.34
9066.00,2.33
9065.00,2.32
9064.00,2.31
9063.00,2.30
9062.00,2.29
9061.00,2.28
9060.00,2.26
9059.00,2.25
9058.00,2.23
9057.00,2.21
9056.00,2.20
9055.00,2.18
9054.00,2.16
9053.00,2.15
9052.00,2.13
9051.00,2.12
9050.00,2.10
9049.00,2.09
9048.00,2.08
9047.00,2.07
9046.00,2.06
9045.00,2.05
9044.00,2.04
9043.00,2.02
9042.00,2.01
9041.00,2.00
9040.00,1.99
9039.00,1.98
9038.00,1.97
9037.00,1.95
9036.00,1.95
9035.00,1.94
9034.00,1.94
9033.00,1.93
9032.00,1.93
9031.00,1.93
9030.00,1.93
9029.00,1.94
9028.00,1.94
9027.00,1.94
9026.00,1.94
9025.00,1.95
9024.00,1.95
9023.00,1.95
9022.00,1.95
9021.00,1.95
9020.00,1.96
9019.00,1.96
9018.00,1.97
9017.00,1.97
9016.00,1.98
9015.00,1.98
9014.00,1.99
9013.00,2.00
9012.00,2.01
9011.00,2.01
9010.00,2.01
9009.00,2.01
9008.00,2.01
9007.00,2.01
9006.00,2.00
9005.00,2.00
9004.00,1.99
9003.00,1.98
9002.00,1.97
9001.00,1.96
9000.00,1.95
8999.00,1.95
8998.00,1.95
8997.00,1.94
8996.00,1.94
8995.00,1.94
8994.00,1.94
8993.00,1.94
8992.00,1.94
8991.00,1.94
8990.00,1.94
8989.00,1.95
8988.00,1.95
8987.00,1.95
8986.00,1.96
8985.00,1.97
8984.00,1.98
8983.00,1.99
8982.00,2.00
8981.00,2.02
8980.00,2.03
8979.00,2.05
8978.00,2.08
8977.00,2.10
8976.00,2.12
8975.00,2.15
8974.00,2.17
8973.00,2.19
8972.00,2.20
8971.00,2.21
8970.00,2.23
8969.00,2.24
8968.00,2.25
8967.00,2.25
8966.00,2.26
8965.00,2.27
8964.00,2.27
8963.00,2.28
8962.00,2.28
8961.00,2.28
8960.00,2.28
8959.00,2.28
8958.00,2.28
8957.00,2.28
8956.00,2.28
8955.00,2.27
8954.00,2.27
8953.00,2.26
8952.00,2.25
8951.00,2.24
8950.00,2.22
8949.00,2.21
8948.00,2.20
8947.00,2.19
8946.00,2.18
8945.00,2.17
8944.00,2.16
8943.00,2.15
8942.00,2.15
8941.00,2.14
8940.00,2.14
8939.00,2.13
8938.00,2.13
8937.00,2.12
8936.00,2.12
8935.00,2.12
8934.00,2.12
8933.00,2.11
8932.00,2.11
8931.00,2.11
8930.00,2.12
8929.00,2.12
8928.00,2.12
8927.00,2.13
8926.00,2.13
8925.00,2.14
8924.00,2.15
8923.00,2.15
8922.00,2.16
8921.00,2.17
8920.00,2.18
8919.00,2.19
8918.00,2.20
8917.00,2.22
8916.00,2.23
8915.00,2.24
8914.00,2.25
8913.00,2.26
8912.00,2.27
8911.00,2.28
8910.00,2.29
8909.00,2.29
8908.00,2.30
8907.00,2.30
8906.00,2.31
8905.00,2.31
8904.00,2.31
8903.00,2.32
8902.00,2.32
8901.00,2.32
8900.00,2.33
8899.00,2.33
8898.00,2.34
8897.00,2.34
8896.00,2.35
8895.00,2.35
8894.00,2.36
8893.00,2.37
8892.00,2.37
8891.00,2.37
8890.00,2.37
8889.00,2.38
8888.00,2.38
8887.00,2.38
8886.00,2.38
8885.00,2.38
8884.00,2.38
8883.00,2.39
8882.00,2.39
8881.00,2.39
8880.00,2.39
8879.00,2.40
8878.00,2.40
8877.00,2.40
8876.00,2.39
8875.00,2.39
8874.00,2.38
8873.00,2.38
8872.00,2.37
8871.00,2.35
8870.00,2.34
8869.00,2.32
8868.00,2.30
8867.00,2.28
8866.00,2.26
8865.00,2.24
8864.00,2.22
8863.00,2.21
8862.00,2.19
8861.00,2.17
8860.00,2.16
8859.00,2.14
8858.00,2.12
8857.00,2.11
8856.00,2.09
8855.00,2.07
8854.00,2.06
8853.00,2.04
8852.00,2.02
8851.00,2.01
8850.00,2.00
8849.00,1.99
8848.00,1.98
8847.00,1.97
8846.00,1.96
8845.00,1.96
8844.00,1.95
8843.00,1.95
8842.00,1.95
8841.00,1.96
8840.00,1.96
8839.00,1.96
8838.00,1.97
8837.00,1.97
8836.00,1.98
8835.00,1.98
8834.00,1.99
8833.00,2.00
8832.00,2.01
8831.00,2.01
8830.00,2.02
8829.00,2.03
8828.00,2.04
8827.00,2.05
8826.00,2.06
8825.00,2.07
8824.00,2.08
8823.00,2.09
8822.00,2.10
8821.00,2.11
8820.00,2.12
8819.00,2.12
8818.00,2.13
8817.00,2.13
8816.00,2.13
8815.00,2.14
8814.00,2.14
8813.00,2.14
8812.00,2.14
8811.00,2.14
8810.00,2.14
8809.00,2.14
8808.00,2.14
8807.00,2.14
8806.00,2.14
8805.00,2.14
8804.00,2.14
8803.00,2.14
8802.00,2.13
8801.00,2.13
8800.00,2.13
8799.00,2.12
8798.00,2.11
8797.00,2.11
8796.00,2.10
8795.00,2.10
8794.00,2.09
8793.00,2.09
8792.00,2.09
8791.00,2.09
8790.00,2.09
8789.00,2.10
8788.00,2.11
8787.00,2.11
8786.00,2.12
8785.00,2.13
8784.00,2.14
8783.00,2.16
8782.00,2.17
8781.00,2.19
8780.00,2.20
8779.00,2.22
8778.00,2.23
8777.00,2.25
8776.00,2.27
8775.00,2.29
8774.00,2.30
8773.00,2.32
8772.00,2.34
8771.00,2.35
8770.00,2.37
8769.00,2.39
8768.00,2.40
8767.00,2.42
8766.00,2.43
8765.00,2.44
8764.00,2.44
8763.00,2.45
8762.00,2.45
8761.00,2.45
8760.00,2.45
8759.00,2.45
8758.00,2.45
8757.00,2.44
8756.00,2.43
8755.00,2.42
8754.00,2.41
8753.00,2.39
8752.00,2.38
8751.00,2.36
8750.00,2.34
8749.00,2.33
8748.00,2.31
8747.00,2.30
8746.00,2.29
8745.00,2.28
8744.00,2.27
8743.00,2.26
8742.00,2.25
8741.00,2.25
8740.00,2.25
8739.00,2.25
8738.00,2.25
8737.00,2.25
8736.00,2.25
8735.00,2.25
8734.00,2.25
8733.00,2.26
8732.00,2.26
8731.00,2.27
8730.00,2.27
8729.00,2.28
8728.00,2.28
8727.00,2.29
8726.00,2.30
8725.00,2.31
8724.00,2.32
8723.00,2.34
8722.00,2.35
8721.00,2.37
8720.00,2.38
8719.00,2.39
8718.00,2.40
8717.00,2.41
8716.00,2.42
8715.00,2.42
8714.00,2.43
8713.00,2.43
8712.00,2.43
8711.00,2.44
8710.00,2.44
8709.00,2.44
8708.00,2.45
8707.00,2.45
8706.00,2.46
8705.00,2.46
8704.00,2.47
8703.00,2.47
8702.00,2.48
8701.00,2.49
8700.00,2.50
8699.00,2.51
8698.00,2.52
8697.00,2.53
8696.00,2.53
8695.00,2.54
8694.00,2.55
8693.00,2.55
8692.00,2.56
8691.00,2.56
8690.00,2.57
8689.00,2.57
8688.00,2.58
8687.00,2.58
8686.00,2.58
8685.00,2.59
8684.00,2.59
8683.00,2.59
8682.00,2.59
8681.00,2.59
8680.00,2.58
8679.00,2.57
8678.00,2.57
8677.00,2.56
8676.00,2.55
8675.00,2.53
8674.00,2.52
8673.00,2.50
8672.00,2.49
8671.00,2.47
8670.00,2.45
8669.00,2.42
8668.00,2.40
8667.00,2.38
8666.00,2.35
8665.00,2.33
8664.00,2.31
8663.00,2.29
8662.00,2.27
8661.00,2.25
8660.00,2.24
8659.00,2.22
8658.00,2.21
8657.00,2.20
8656.00,2.18
8655.00,2.18
8654.00,2.17
8653.00,2.16
8652.00,2.16
8651.00,2.16
8650.00,2.16
8649.00,2.16
8648.00,2.16
8647.00,2.16
8646.00,2.17
8645.00,2.17
8644.00,2.18
8643.00,2.19
8642.00,2.20
8641.00,2.20
8640.00,2.21
8639.00,2.22
8638.00,2.23
8637.00,2.23
8636.00,2.24
8635.00,2.24
8634.00,2.24
8633.00,2.24
8632.00,2.23
8631.00,2.22
8630.00,2.22
8629.00,2.21
8628.00,2.20
8627.00,2.19
8626.00,2.17
8625.00,2.16
8624.00,2.15
8623.00,2.13
8622.00,2.12
8621.00,2.10
8620.00,2.09
8619.00,2.07
8618.00,2.05
8617.00,2.03
8616.00,2.01
8615.00,1.99
8614.00,1.97
8613.00,1.95
8612.00,1.93
8611.00,1.91
8610.00,1.89
8609.00,1.88
8608.00,1.87
8607.00,1.85
8606.00,1.84
8605.00,1.83
8604.00,1.83
8603.00,1.82
8602.00,1.82
8601.00,1.81
8600.00,1.81
8599.00,1.81
8598.00,1.81
8597.00,1.81
8596.00,1.81
8595.00,1.81
8594.00,1.82
8593.00,1.83
8592.00,1.84
8591.00,1.85
8590.00,1.86
8589.00,1.87
8588.00,1.89
8587.00,1.90
8586.00,1.92
8585.00,1.93
8584.00,1.95
8583.00,1.97
8582.00,1.98
8581.00,2.00
8580.00,2.02
8579.00,2.04
8578.00,2.05
8577.00,2.07
8576.00,2.09
8575.00,2.10
8574.00,2.12
8573.00,2.13
8572.00,2.15
8571.00,2.16
8570.00,2.18
8569.00,2.19
8568.00,2.20
8567.00,2.21
8566.00,2.21
8565.00,2.22
8564.00,2.22
8563.00,2.23
8562.00,2.23
8561.00,2.23
8560.00,2.23
8559.00,2.23
8558.00,2.23
8557.00,2.22
8556.00,2.22
8555.00,2.21
8554.00,2.20
8553.00,2.20
8552.00,2.19
8551.00,2.17
8550.00,2.16
8549.00,2.15
8548.00,2.14
8547.00,2.12
8546.00,2.11
8545.00,2.09
8544.00,2.08
8543.00,2.07
8542.00,2.05
8541.00,2.04
8540.00,2.02
8539.00,2.01
8538.00,1.99
8537.00,1.98
8536.00,1.97
8535.00,1.96
8534.00,1.95
8533.00,1.94
8532.00,1.93
8531.00,1.93
8530.00,1.93
8529.00,1.93
8528.00,1.93
8527.00,1.93
8526.00,1.94
8525.00,1.95
8524.00,1.95
8523.00,1.96
8522.00,1.97
8521.00,1.98
8520.00,1.99
8519.00,2.01
8518.00,2.02
8517.00,2.03
8516.00,2.05
8515.00,2.07
8514.00,2.09
8513.00,2.11
8512.00,2.13
8511.00,2.15
8510.00,2.18
8509.00,2.20
8508.00,2.22
8507.00,2.24
8506.00,2.26
8505.00,2.28
8504.00,2.29
8503.00,2.31
8502.00,2.32
8501.00,2.33
8500.00,2.34
8499.00,2.35
8498.00,2.36
8497.00,2.37
8496.00,2.38
8495.00,2.39
8494.00,2.39
8493.00,2.40
8492.00,2.41
8491.00,2.41
8490.00,2.41
8489.00,2.41
8488.00,2.41
8487.00,2.40
8486.00,2.39
8485.00,2.39
8484.00,2.38
8483.00,2.36
8482.00,2.35
8481.00,2.34
8480.00,2.33
8479.00,2.32
8478.00,2.30
8477.00,2.30
8476.00,2.29
8475.00,2.28
8474.00,2.27
8473.00,2.26
8472.00,2.25
8471.00,2.25
8470.00,2.24
8469.00,2.23
8468.00,2.22
8467.00,2.21
8466.00,2.21
8465.00,2.20
8464.00,2.19
8463.00,2.18
8462.00,2.18
8461.00,2.17
8460.00,2.17
8459.00,2.16
8458.00,2.16
8457.00,2.16
8456.00,2.17
8455.00,2.17
8454.00,2.17
8453.00,2.17
8452.00,2.17
8451.00,2.17
8450.00,2.16
8449.00,2.16
8448.00,2.15
8447.00,2.15
8446.00,2.14
8445.00,2.13
8444.00,2.13
8443.00,2.12
8442.00,2.12
8441.00,2.11
8440.00,2.11
8439.00,2.10
8438.00,2.10
8437.00,2.10
8436.00,2.10
8435.00,2.11
8434.00,2.11
8433.00,2.12
8432.00,2.12
8431.00,2.13
8430.00,2.13
8429.00,2.14
8428.00,2.15
8427.00,2.16
8426.00,2.17
8425.00,2.18
8424.00,2.19
8423.00,2.21
8422.00,2.23
8421.00,2.25
8420.00,2.27
8419.00,2.29
8418.00,2.32
8417.00,2.34
8416.00,2.36
8415.00,2.39
8414.00,2.41
8413.00,2.43
8412.00,2.45
8411.00,2.47
8410.00,2.49
8409.00,2.50
8408.00,2.51
8407.00,2.53
8406.00,2.54
8405.00,2.55
8404.00,2.55
8403.00,2.56
8402.00,2.57
8401.00,2.57
8400.00,2.57
8399.00,2.57
8398.00,2.57
8397.00,2.57
8396.00,2.57
8395.00,2.56
8394.00,2.56
8393.00,2.55
8392.00,2.54
8391.00,2.53
8390.00,2.52
8389.00,2.50
8388.00,2.49
8387.00,2.48
8386.00,2.47
8385.00,2.46
8384.00,2.45
8383.00,2.45
8382.00,2.44
8381.00,2.43
8380.00,2.43
8379.00,2.42
8378.00,2.42
8377.00,2.41
8376.00,2.40
8375.00,2.40
8374.00,2.39
8373.00,2.38
8372.00,2.38
8371.00,2.38
8370.00,2.37
8369.00,2.37
8368.00,2.37
8367.00,2.37
8366.00,2.37
8365.00,2.37
8364.00,2.38
8363.00,2.38
8362.00,2.39
8361.00,2.39
8360.00,2.39
8359.00,2.39
8358.00,2.38
8357.00,2.38
8356.00,2.38
8355.00,2.37
8354.00,2.37
8353.00,2.37
8352.00,2.36
8351.00,2.36
8350.00,2.36
8349.00,2.37
8348.00,2.37
8347.00,2.37
8346.00,2.37
8345.00,2.37
8344.00,2.38
8343.00,2.38
8342.00,2.38
8341.00,2.38
8340.00,2.38
8339.00,2.39
8338.00,2.39
8337.00,2.39
8336.00,2.39
8335.00,2.39
8334.00,2.40
8333.00,2.40
8332.00,2.41
8331.00,2.42
8330.00,2.43
8329.00,2.44
8328.00,2.45
8327.00,2.46
8326.00,2.47
8325.00,2.47
8324.00,2.48
8323.00,2.48
8322.00,2.49
8321.00,2.50
8320.00,2.50
8319.00,2.50
8318.00,2.51
8317.00,2.51
8316.00,2.51
8315.00,2.52
8314.00,2.52
8313.00,2.52
8312.00,2.52
8311.00,2.52
8310.00,2.51
8309.00,2.51
8308.00,2.51
8307.00,2.50
8306.00,2.49
8305.00,2.48
8304.00,2.47
8303.00,2.46
8302.00,2.44
8301.00,2.43
8300.00,2.42
8299.00,2.41
8298.00,2.39
8297.00,2.38
8296.00,2.36
8295.00,2.34
8294.00,2.32
8293.00,2.30
8292.00,2.28
8291.00,2.25
8290.00,2.23
8289.00,2.21
8288.00,2.19
8287.00,2.17
8286.00,2.14
8285.00,2.12
8284.00,2.10
8283.00,2.08
8282.00,2.06
8281.00,2.04
8280.00,2.02
8279.00,2.00
8278.00,1.98
8277.00,1.97
8276.00,1.96
8275.00,1.94
8274.00,1.93
8273.00,1.92
8272.00,1.92
8271.00,1.91
8270.00,1.91
8269.00,1.91
8268.00,1.91
8267.00,1.91
8266.00,1.92
8265.00,1.93
8264.00,1.93
8263.00,1.94
8262.00,1.95
8261.00,1.96
8260.00,1.96
8259.00,1.97
8258.00,1.98
8257.00,1.99
8256.00,2.00
8255.00,2.01
8254.00,2.02
8253.00,2.03
8252.00,2.04
8251.00,2.05
8250.00,2.05
8249.00,2.06
8248.00,2.06
8247.00,2.06
8246.00,2.06
8245.00,2.06
8244.00,2.06
8243.00,2.06
8242.00,2.06
8241.00,2.06
8240.00,2.06
8239.00,2.06
8238.00,2.06
8237.00,2.06
8236.00,2.06
8235.00,2.06
8234.00,2.06
8233.00,2.07
8232.00,2.07
8231.00,2.08
8230.00,2.09
8229.00,2.09
8228.00,2.10
8227.00,2.11
8226.00,2.11
8225.00,2.12
8224.00,2.13
8223.00,2.14
8222.00,2.16
8221.00,2.17
8220.00,2.19
8219.00,2.20
8218.00,2.22
8217.00,2.24
8216.00,2.26
8215.00,2.28
8214.00,2.30
8213.00,2.33
8212.00,2.35
8211.00,2.37
8210.00,2.39
8209.00,2.40
8208.00,2.42
8207.00,2.44
8206.00,2.45
8205.00,2.47
8204.00,2.48
8203.00,2.49
8202.00,2.50
8201.00,2.51
8200.00,2.52
8199.00,2.52
8198.00,2.53
8197.00,2.54
8196.00,2.55
8195.00,2.55
8194.00,2.56
8193.00,2.56
8192.00,2.56
8191.00,2.56
8190.00,2.56
8189.00,2.55
8188.00,2.55
8187.00,2.54
8186.00,2.53
8185.00,2.52
8184.00,2.50
8183.00,2.49
8182.00,2.48
8181.00,2.46
8180.00,2.45
8179.00,2.44
8178.00,2.43
8177.00,2.43
8176.00,2.42
8175.00,2.42
8174.00,2.42
8173.00,2.41
8172.00,2.41
8171.00,2.41
8170.00,2.41
8169.00,2.41
8168.00,2.41
8167.00,2.40
8166.00,2.40
8165.00,2.40
8164.00,2.39
8163.00,2.39
8162.00,2.39
8161.00,2.39
8160.00,2.38
8159.00,2.38
8158.00,2.38
8157.00,2.38
8156.00,2.38
8155.00,2.39
8154.00,2.39
8153.00,2.39
8152.00,2.39
8151.00,2.38
8150.00,2.38
8149.00,2.37
8148.00,2.36
8147.00,2.35
8146.00,2.34
8145.00,2.33
8144.00,2.32
8143.00,2.31
8142.00,2.30
8141.00,2.29
8140.00,2.28
8139.00,2.27
8138.00,2.26
8137.00,2.25
8136.00,2.24
8135.00,2.23
8134.00,2.22
8133.00,2.21
8132.00,2.21
8131.00,2.20
8130.00,2.19
8129.00,2.18
8128.00,2.17
8127.00,2.16
8126.00,2.16
8125.00,2.15
8124.00,2.14
8123.00,2.14
8122.00,2.14
8121.00,2.14
8120.00,2.13
8119.00,2.13
8118.00,2.13
8117.00,2.13
8116.00,2.13
8115.00,2.14
8114.00,2.14
8113.00,2.15
8112.00,2.16
8111.00,2.17
8110.00,2.18
8109.00,2.19
8108.00,2.21
8107.00,2.23
8106.00,2.25
8105.00,2.26
8104.00,2.28
8103.00,2.30
8102.00,2.32
8101.00,2.33
8100.00,2.35
8099.00,2.36
8098.00,2.37
8097.00,2.39
8096.00,2.40
8095.00,2.41
8094.00,2.42
8093.00,2.43
8092.00,2.44
8091.00,2.45
8090.00,2.46
8089.00,2.46
8088.00,2.46
8087.00,2.47
8086.00,2.47
8085.00,2.46
8084.00,2.46
8083.00,2.46
8082.00,2.45
8081.00,2.44
8080.00,2.43
8079.00,2.43
8078.00,2.42
8077.00,2.41
8076.00,2.40
8075.00,2.40
8074.00,2.39
8073.00,2.39
8072.00,2.39
8071.00,2.39
8070.00,2.39
8069.00,2.39
8068.00,2.39
8067.00,2.39
8066.00,2.39
8065.00,2.38
8064.00,2.38
8063.00,2.38
8062.00,2.38
8061.00,2.39
8060.00,2.39
8059.00,2.39
8058.00,2.39
8057.00,2.39
8056.00,2.39
8055.00,2.39
8054.00,2.40
8053.00,2.40
8052.00,2.40
8051.00,2.41
8050.00,2.41
8049.00,2.41
8048.00,2.41
8047.00,2.42
8046.00,2.42
8045.00,2.42
8044.00,2.41
8043.00,2.41
8042.00,2.41
8041.00,2.40
8040.00,2.40
8039.00,2.39
8038.00,2.39
8037.00,2.38
8036.00,2.38
8035.00,2.38
8034.00,2.37
8033.00,2.37
8032.00,2.37
8031.00,2.37
8030.00,2.36
8029.00,2.36
8028.00,2.36
8027.00,2.35
8026.00,2.35
8025.00,2.34
8024.00,2.34
8023.00,2.33
8022.00,2.32
8021.00,2.32
8020.00,2.32
8019.00,2.31
8018.00,2.32
8017.00,2.32
8016.00,2.32
8015.00,2.33
8014.00,2.33
8013.00,2.34
8012.00,2.34
8011.00,2.35
8010.00,2.35
8009.00,2.36
8008.00,2.37
8007.00,2.37
8006.00,2.38
8005.00,2.39
8004.00,2.40
8003.00,2.41
8002.00,2.42
8001.00,2.43
8000.00,2.44
7999.00,2.46
7998.00,2.47
7997.00,2.48
7996.00,2.49
7995.00,2.50
7994.00,2.51
7993.00,2.51
7992.00,2.52
7991.00,2.52
7990.00,2.53
7989.00,2.53
7988.00,2.53
7987.00,2.54
7986.00,2.54
7985.00,2.55
7984.00,2.55
7983.00,2.56
7982.00,2.56
7981.00,2.57
7980.00,2.58
7979.00,2.58
7978.00,2.59
7977.00,2.59
7976.00,2.60
7975.00,2.60
7974.00,2.60
7973.00,2.60
7972.00,2.59
7971.00,2.59
7970.00,2.59
7969.00,2.59
7968.00,2.59
7967.00,2.60
7966.00,2.60
7965.00,2.60
7964.00,2.60
7963.00,2.60
7962.00,2.60
7961.00,2.59
7960.00,2.59
7959.00,2.59
7958.00,2.58
7957.00,2.57
7956.00,2.56
7955.00,2.55
7954.00,2.54
7953.00,2.53
7952.00,2.52
7951.00,2.50
7950.00,2.49
7949.00,2.47
7948.00,2.46
7947.00,2.44
7946.00,2.43
7945.00,2.42
7944.00,2.40
7943.00,2.39
7942.00,2.38
7941.00,2.37
7940.00,2.35
7939.00,2.34
7938.00,2.34
7937.00,2.33
7936.00,2.32
7935.00,2.32
7934.00,2.31
7933.00,2.31
7932.00,2.30
7931.00,2.30
7930.00,2.30
7929.00,2.30
7928.00,2.30
7927.00,2.30
7926.00,2.30
7925.00,2.31
7924.00,2.31
7923.00,2.32
7922.00,2.33
7921.00,2.34
7920.00,2.35
7919.00,2.36
7918.00,2.38
7917.00,2.39
7916.00,2.41
7915.00,2.42
7914.00,2.44
7913.00,2.45
7912.00,2.47
7911.00,2.48
7910.00,2.49
7909.00,2.50
7908.00,2.52
7907.00,2.53
7906.00,2.54
7905.00,2.55
7904.00,2.56
7903.00,2.58
7902.00,2.59
7901.00,2.61
7900.00,2.62
7899.00,2.64
7898.00,2.65
7897.00,2.66
7896.00,2.67
7895.00,2.68
7894.00,2.69
7893.00,2.70
7892.00,2.70
7891.00,2.71
7890.00,2.71
7889.00,2.71
7888.00,2.71
7887.00,2.71
7886.00,2.70
7885.00,2.70
7884.00,2.70
7883.00,2.69
7882.00,2.69
7881.00,2.68
7880.00,2.68
7879.00,2.67
7878.00,2.66
7877.00,2.65
7876.00,2.63
7875.00,2.62
7874.00,2.61
7873.00,2.60
7872.00,2.58
7871.00,2.57
7870.00,2.56
7869.00,2.55
7868.00,2.54
7867.00,2.53
7866.00,2.52
7865.00,2.51
7864.00,2.50
7863.00,2.49
7862.00,2.48
7861.00,2.48
7860.00,2.47
7859.00,2.47
7858.00,2.46
7857.00,2.46
7856.00,2.46
7855.00,2.45
7854.00,2.45
7853.00,2.45
7852.00,2.46
7851.00,2.46
7850.00,2.46
7849.00,2.46
7848.00,2.46
7847.00,2.46
7846.00,2.46
7845.00,2.46
7844.00,2.46
7843.00,2.46
7842.00,2.46
7841.00,2.46
7840.00,2.46
7839.00,2.46
7838.00,2.46
7837.00,2.46
7836.00,2.46
7835.00,2.46
7834.00,2.46
7833.00,2.46
7832.00,2.46
7831.00,2.45
7830.00,2.45
7829.00,2.45
7828.00,2.44
7827.00,2.44
7826.00,2.44
7825.00,2.43
7824.00,2.43
7823.00,2.43
7822.00,2.43
7821.00,2.43
7820.00,2.43
7819.00,2.43
7818.00,2.43
7817.00,2.44
7816.00,2.44
7815.00,2.44
7814.00,2.44
7813.00,2.44
7812.00,2.44
7811.00,2.44
7810.00,2.44
7809.00,2.43
7808.00,2.44
7807.00,2.44
7806.00,2.44
7805.00,2.44
7804.00,2.44
7803.00,2.45
7802.00,2.45
7801.00,2.45
7800.00,2.45
7799.00,2.46
7798.00,2.46
7797.00,2.46
7796.00,2.46
7795.00,2.46
7794.00,2.47
7793.00,2.47
7792.00,2.47
7791.00,2.46
7790.00,2.46
7789.00,2.46
7788.00,2.46
7787.00,2.46
7786.00,2.46
7785.00,2.46
7784.00,2.46
7783.00,2.46
7782.00,2.46
7781.00,2.47
7780.00,2.47
7779.00,2.47
7778.00,2.47
7777.00,2.47
7776.00,2.47
7775.00,2.47
7774.00,2.47
7773.00,2.47
7772.00,2.47
7771.00,2.47
7770.00,2.48
7769.00,2.48
7768.00,2.48
7767.00,2.48
7766.00,2.48
7765.00,2.48
7764.00,2.48
7763.00,2.49
7762.00,2.49
7761.00,2.49
7760.00,2.50
7759.00,2.50
7758.00,2.50
7757.00,2.51
7756.00,2.51
7755.00,2.52
7754.00,2.52
7753.00,2.52
7752.00,2.53
7751.00,2.54
7750.00,2.54
7749.00,2.55
7748.00,2.56
7747.00,2.57
7746.00,2.58
7745.00,2.59
7744.00,2.59
7743.00,2.60
7742.00,2.61
7741.00,2.62
7740.00,2.63
7739.00,2.64
7738.00,2.64
7737.00,2.65
7736.00,2.66
7735.00,2.67
7734.00,2.67
7733.00,2.68
7732.00,2.68
7731.00,2.69
7730.00,2.69
7729.00,2.69
7728.00,2.69
7727.00,2.69
7726.00,2.69
7725.00,2.68
7724.00,2.68
7723.00,2.67
7722.00,2.66
7721.00,2.65
7720.00,2.64
7719.00,2.63
7718.00,2.63
7717.00,2.62
7716.00,2.61
7715.00,2.61
7714.00,2.60
7713.00,2.59
7712.00,2.59
7711.00,2.58
7710.00,2.57
7709.00,2.57
7708.00,2.56
7707.00,2.56
7706.00,2.55
7705.00,2.55
7704.00,2.54
7703.00,2.54
7702.00,2.53
7701.00,2.53
7700.00,2.53
7699.00,2.53
7698.00,2.54
7697.00,2.54
7696.00,2.54
7695.00,2.54
7694.00,2.54
7693.00,2.54
7692.00,2.53
7691.00,2.53
7690.00,2.52
7689.00,2.51
7688.00,2.51
7687.00,2.50
7686.00,2.49
7685.00,2.49
7684.00,2.48
7683.00,2.47
7682.00,2.47
7681.00,2.46
7680.00,2.45
7679.00,2.45
7678.00,2.44
7677.00,2.43
7676.00,2.42
7675.00,2.41
7674.00,2.41
7673.00,2.40
7672.00,2.39
7671.00,2.38
7670.00,2.37
7669.00,2.37
7668.00,2.36
7667.00,2.36
7666.00,2.36
7665.00,2.36
7664.00,2.36
7663.00,2.36
7662.00,2.36
7661.00,2.37
7660.00,2.37
7659.00,2.38
7658.00,2.38
7657.00,2.39
7656.00,2.40
7655.00,2.40
7654.00,2.41
7653.00,2.42
7652.00,2.43
7651.00,2.44
7650.00,2.45
7649.00,2.46
7648.00,2.47
7647.00,2.47
7646.00,2.48
7645.00,2.49
7644.00,2.50
7643.00,2.50
7642.00,2.51
7641.00,2.52
7640.00,2.52
7639.00,2.53
7638.00,2.53
7637.00,2.54
7636.00,2.54
7635.00,2.54
7634.00,2.54
7633.00,2.54
7632.00,2.54
7631.00,2.54
7630.00,2.53
7629.00,2.53
7628.00,2.53
7627.00,2.52
7626.00,2.52
7625.00,2.52
7624.00,2.52
7623.00,2.52
7622.00,2.52
7621.00,2.52
7620.00,2.53
7619.00,2.53
7618.00,2.53
7617.00,2.53
7616.00,2.54
7615.00,2.54
7614.00,2.54
7613.00,2.54
7612.00,2.54
7611.00,2.54
7610.00,2.54
7609.00,2.54
7608.00,2.55
7607.00,2.55
7606.00,2.55
7605.00,2.56
7604.00,2.56
7603.00,2.56
7602.00,2.56
7601.00,2.57
7600.00,2.57
7599.00,2.56
7598.00,2.56
7597.00,2.56
7596.00,2.56
7595.00,2.55
7594.00,2.55
7593.00,2.55
7592.00,2.55
7591.00,2.55
7590.00,2.55
7589.00,2.55
7588.00,2.55
7587.00,2.55
7586.00,2.56
7585.00,2.56
7584.00,2.57
7583.00,2.57
7582.00,2.58
7581.00,2.58
7580.00,2.59
7579.00,2.60
7578.00,2.60
7577.00,2.61
7576.00,2.62
7575.00,2.63
7574.00,2.64
7573.00,2.65
7572.00,2.65
7571.00,2.66
7570.00,2.67
7569.00,2.68
7568.00,2.68
7567.00,2.69
7566.00,2.69
7565.00,2.69
7564.00,2.69
7563.00,2.69
7562.00,2.69
7561.00,2.69
7560.00,2.69
7559.00,2.68
7558.00,2.68
7557.00,2.68
7556.00,2.67
7555.00,2.67
7554.00,2.67
7553.00,2.67
7552.00,2.67
7551.00,2.67
7550.00,2.67
7549.00,2.67
7548.00,2.67
7547.00,2.67
7546.00,2.67
7545.00,2.68
7544.00,2.68
7543.00,2.68
7542.00,2.68
7541.00,2.69
7540.00,2.69
7539.00,2.69
7538.00,2.70
7537.00,2.70
7536.00,2.71
7535.00,2.71
7534.00,2.72
7533.00,2.72
7532.00,2.73
7531.00,2.73
7530.00,2.73
7529.00,2.73
7528.00,2.73
7527.00,2.72
7526.00,2.72
7525.00,2.71
7524.00,2.71
7523.00,2.70
7522.00,2.69
7521.00,2.68
7520.00,2.66
7519.00,2.65
7518.00,2.64
7517.00,2.63
7516.00,2.62
7515.00,2.61
7514.00,2.59
7513.00,2.58
7512.00,2.57
7511.00,2.56
7510.00,2.54
7509.00,2.53
7508.00,2.52
7507.00,2.51
7506.00,2.50
7505.00,2.49
7504.00,2.48
7503.00,2.47
7502.00,2.46
7501.00,2.45
7500.00,2.44
7499.00,2.43
7498.00,2.43
7497.00,2.42
7496.00,2.41
7495.00,2.41
7494.00,2.40
7493.00,2.40
7492.00,2.39
7491.00,2.38
7490.00,2.38
7489.00,2.37
7488.00,2.36
7487.00,2.36
7486.00,2.35
7485.00,2.35
7484.00,2.35
7483.00,2.34
7482.00,2.34
7481.00,2.34
7480.00,2.34
7479.00,2.34
7478.00,2.34
7477.00,2.34
7476.00,2.34
7475.00,2.34
7474.00,2.34
7473.00,2.34
7472.00,2.34
7471.00,2.35
7470.00,2.35
7469.00,2.36
7468.00,2.37
7467.00,2.37
7466.00,2.38
7465.00,2.39
7464.00,2.41
7463.00,2.42
7462.00,2.43
7461.00,2.44
7460.00,2.46
7459.00,2.47
7458.00,2.48
7457.00,2.50
7456.00,2.51
7455.00,2.52
7454.00,2.53
7453.00,2.54
7452.00,2.55
7451.00,2.56
7450.00,2.57
7449.00,2.58
7448.00,2.59
7447.00,2.60
7446.00,2.60
7445.00,2.61
7444.00,2.62
7443.00,2.63
7442.00,2.63
7441.00,2.64
7440.00,2.64
7439.00,2.64
7438.00,2.64
7437.00,2.64
7436.00,2.64
7435.00,2.64
7434.00,2.63
7433.00,2.63
7432.00,2.62
7431.00,2.61
7430.00,2.61
7429.00,2.60
7428.00,2.59
7427.00,2.59
7426.00,2.58
7425.00,2.57
7424.00,2.57
7423.00,2.56
7422.00,2.55
7421.00,2.55
7420.00,2.54
7419.00,2.53
7418.00,2.52
7417.00,2.52
7416.00,2.51
7415.00,2.50
7414.00,2.50
7413.00,2.50
7412.00,2.50
7411.00,2.50
7410.00,2.50
7409.00,2.50
7408.00,2.50
7407.00,2.51
7406.00,2.51
7405.00,2.52
7404.00,2.52
7403.00,2.53
7402.00,2.54
7401.00,2.54
7400.00,2.55
7399.00,2.56
7398.00,2.56
7397.00,2.57
7396.00,2.58
7395.00,2.58
7394.00,2.59
7393.00,2.60
7392.00,2.60
7391.00,2.61
7390.00,2.61
7389.00,2.62
7388.00,2.62
7387.00,2.62
7386.00,2.63
7385.00,2.63
7384.00,2.63
7383.00,2.62
7382.00,2.62
7381.00,2.62
7380.00,2.62
7379.00,2.62
7378.00,2.61
7377.00,2.61
7376.00,2.61
7375.00,2.61
7374.00,2.61
7373.00,2.60
7372.00,2.60
7371.00,2.60
7370.00,2.60
7369.00,2.59
7368.00,2.59
7367.00,2.59
7366.00,2.58
7365.00,2.58
7364.00,2.58
7363.00,2.58
7362.00,2.58
7361.00,2.58
7360.00,2.59
7359.00,2.59
7358.00,2.59
7357.00,2.60
7356.00,2.60
7355.00,2.60
7354.00,2.60
7353.00,2.61
7352.00,2.61
7351.00,2.61
7350.00,2.61
7349.00,2.61
7348.00,2.62
7347.00,2.62
7346.00,2.62
7345.00,2.63
7344.00,2.63
7343.00,2.63
7342.00,2.64
7341.00,2.65
7340.00,2.65
7339.00,2.66
7338.00,2.67
7337.00,2.67
7336.00,2.68
7335.00,2.69
7334.00,2.69
7333.00,2.69
7332.00,2.70
7331.00,2.70
7330.00,2.71
7329.00,2.71
7328.00,2.72
7327.00,2.72
7326.00,2.73
7325.00,2.74
7324.00,2.75
7323.00,2.75
7322.00,2.76
7321.00,2.77
7320.00,2.78
7319.00,2.78
7318.00,2.79
7317.00,2.79
7316.00,2.80
7315.00,2.80
7314.00,2.80
7313.00,2.80
7312.00,2.79
7311.00,2.79
7310.00,2.78
7309.00,2.77
7308.00,2.76
7307.00,2.74
7306.00,2.73
7305.00,2.72
7304.00,2.70
7303.00,2.68
7302.00,2.67
7301.00,2.65
7300.00,2.63
7299.00,2.61
7298.00,2.59
7297.00,2.57
7296.00,2.55
7295.00,2.53
7294.00,2.50
7293.00,2.48
7292.00,2.47
7291.00,2.45
7290.00,2.43
7289.00,2.41
7288.00,2.39
7287.00,2.38
7286.00,2.36
7285.00,2.35
7284.00,2.35
7283.00,2.34
7282.00,2.34
7281.00,2.34
7280.00,2.34
7279.00,2.35
7278.00,2.35
7277.00,2.36
7276.00,2.37
7275.00,2.39
7274.00,2.40
7273.00,2.41
7272.00,2.43
7271.00,2.45
7270.00,2.47
7269.00,2.49
7268.00,2.50
7267.00,2.52
7266.00,2.54
7265.00,2.56
7264.00,2.58
7263.00,2.60
7262.00,2.61
7261.00,2.63
7260.00,2.65
7259.00,2.67
7258.00,2.69
7257.00,2.70
7256.00,2.72
7255.00,2.74
7254.00,2.75
7253.00,2.77
7252.00,2.78
7251.00,2.79
7250.00,2.80
7249.00,2.82
7248.00,2.82
7247.00,2.83
7246.00,2.84
7245.00,2.84
7244.00,2.84
7243.00,2.84
7242.00,2.84
7241.00,2.84
7240.00,2.84
7239.00,2.84
7238.00,2.83
7237.00,2.83
7236.00,2.82
7235.00,2.81
7234.00,2.80
7233.00,2.79
7232.00,2.78
7231.00,2.77
7230.00,2.76
7229.00,2.75
7228.00,2.73
7227.00,2.72
7226.00,2.70
7225.00,2.69
7224.00,2.67
7223.00,2.66
7222.00,2.64
7221.00,2.62
7220.00,2.60
7219.00,2.59
7218.00,2.57
7217.00,2.55
7216.00,2.54
7215.00,2.52
7214.00,2.51
7213.00,2.49
7212.00,2.48
7211.00,2.47
7210.00,2.46
7209.00,2.46
7208.00,2.45
7207.00,2.44
7206.00,2.44
7205.00,2.43
7204.00,2.42
7203.00,2.41
7202.00,2.40
7201.00,2.39
7200.00,2.37
7199.00,2.36
7198.00,2.34
7197.00,2.33
7196.00,2.31
7195.00,2.30
7194.00,2.29
7193.00,2.28
7192.00,2.27
7191.00,2.26
7190.00,2.25
7189.00,2.24
7188.00,2.24
7187.00,2.23
7186.00,2.22
7185.00,2.21
7184.00,2.20
7183.00,2.19
7182.00,2.18
7181.00,2.17
7180.00,2.16
7179.00,2.15
7178.00,2.15
7177.00,2.14
7176.00,2.14
7175.00,2.15
7174.00,2.15
7173.00,2.15
7172.00,2.16
7171.00,2.16
7170.00,2.17
7169.00,2.17
7168.00,2.18
7167.00,2.18
7166.00,2.18
7165.00,2.19
7164.00,2.19
7163.00,2.19
7162.00,2.19
7161.00,2.19
7160.00,2.19
7159.00,2.19
7158.00,2.18
7157.00,2.18
7156.00,2.18
7155.00,2.18
7154.00,2.17
7153.00,2.17
7152.00,2.16
7151.00,2.15
7150.00,2.14
7149.00,2.13
7148.00,2.12
7147.00,2.10
7146.00,2.09
7145.00,2.08
7144.00,2.06
7143.00,2.05
7142.00,2.03
7141.00,2.02
7140.00,2.00
7139.00,1.99
7138.00,1.98
7137.00,1.96
7136.00,1.95
7135.00,1.94
7134.00,1.93
7133.00,1.91
7132.00,1.90
7131.00,1.89
7130.00,1.88
7129.00,1.87
7128.00,1.85
7127.00,1.84
7126.00,1.83
7125.00,1.82
7124.00,1.81
7123.00,1.80
7122.00,1.79
7121.00,1.78
7120.00,1.78
7119.00,1.77
7118.00,1.76
7117.00,1.76
7116.00,1.75
7115.00,1.75
7114.00,1.74
7113.00,1.74
7112.00,1.73
7111.00,1.73
7110.00,1.72
7109.00,1.72
7108.00,1.72
7107.00,1.71
7106.00,1.71
7105.00,1.71
7104.00,1.71
7103.00,1.71
7102.00,1.71
7101.00,1.71
7100.00,1.72
7099.00,1.72
7098.00,1.73
7097.00,1.73
7096.00,1.74
7095.00,1.74
7094.00,1.74
7093.00,1.75
7092.00,1.75
7091.00,1.76
7090.00,1.76
7089.00,1.76
7088.00,1.76
7087.00,1.77
7086.00,1.77
7085.00,1.77
7084.00,1.78
7083.00,1.78
7082.00,1.78
7081.00,1.79
7080.00,1.79
7079.00,1.79
7078.00,1.78
7077.00,1.78
7076.00,1.77
7075.00,1.77
7074.00,1.76
7073.00,1.75
7072.00,1.75
7071.00,1.74
7070.00,1.73
7069.00,1.72
7068.00,1.72
7067.00,1.71
7066.00,1.70
7065.00,1.70
7064.00,1.69
7063.00,1.68
7062.00,1.67
7061.00,1.66
7060.00,1.65
7059.00,1.64
7058.00,1.63
7057.00,1.62
7056.00,1.61
7055.00,1.60
7054.00,1.59
7053.00,1.58
7052.00,1.58
7051.00,1.57
7050.00,1.57
7049.00,1.56
7048.00,1.56
7047.00,1.56
7046.00,1.55
7045.00,1.55
7044.00,1.54
7043.00,1.54
7042.00,1.53
7041.00,1.53
7040.00,1.52
7039.00,1.52
7038.00,1.51
7037.00,1.51
7036.00,1.51
7035.00,1.51
7034.00,1.51
7033.00,1.51
7032.00,1.51
7031.00,1.51
7030.00,1.51
7029.00,1.51
7028.00,1.51
7027.00,1.52
7026.00,1.52
7025.00,1.52
7024.00,1.52
7023.00,1.52
7022.00,1.52
7021.00,1.52
7020.00,1.52
7019.00,1.52
7018.00,1.53
7017.00,1.53
7016.00,1.54
7015.00,1.54
7014.00,1.55
7013.00,1.55
7012.00,1.55
7011.00,1.56
7010.00,1.56
7009.00,1.56
7008.00,1.56
7007.00,1.56
7006.00,1.56
7005.00,1.56
7004.00,1.56
7003.00,1.55
7002.00,1.55
7001.00,1.54
7000.00,1.54
6999.00,1.53
6998.00,1.52
6997.00,1.52
6996.00,1.51
6995.00,1.51
6994.00,1.50
6993.00,1.49
6992.00,1.49
6991.00,1.48
6990.00,1.47
6989.00,1.46
6988.00,1.45
6987.00,1.44
6986.00,1.43
6985.00,1.42
6984.00,1.41
6983.00,1.39
6982.00,1.39
6981.00,1.38
6980.00,1.37
6979.00,1.36
6978.00,1.36
6977.00,1.35
6976.00,1.35
6975.00,1.35
6974.00,1.35
6973.00,1.35
6972.00,1.35
6971.00,1.35
6970.00,1.35
6969.00,1.36
6968.00,1.36
6967.00,1.36
6966.00,1.36
6965.00,1.37
6964.00,1.37
6963.00,1.37
6962.00,1.38
6961.00,1.38
6960.00,1.39
6959.00,1.39
6958.00,1.40
6957.00,1.40
6956.00,1.41
6955.00,1.41
6954.00,1.42
6953.00,1.42
6952.00,1.42
6951.00,1.43
6950.00,1.43
6949.00,1.43
6948.00,1.43
6947.00,1.43
6946.00,1.42
6945.00,1.42
6944.00,1.42
6943.00,1.42
6942.00,1.42
6941.00,1.41
6940.00,1.41
6939.00,1.41
6938.00,1.40
6937.00,1.40
6936.00,1.40
6935.00,1.40
6934.00,1.39
6933.00,1.39
6932.00,1.39
6931.00,1.39
6930.00,1.39
6929.00,1.39
6928.00,1.39
6927.00,1.39
6926.00,1.39
6925.00,1.39
6924.00,1.39
6923.00,1.39
6922.00,1.39
6921.00,1.40
6920.00,1.40
6919.00,1.40
6918.00,1.40
6917.00,1.40
6916.00,1.40
6915.00,1.40
6914.00,1.41
6913.00,1.41
6912.00,1.41
6911.00,1.42
6910.00,1.43
6909.00,1.43
6908.00,1.44
6907.00,1.44
6906.00,1.45
6905.00,1.45
6904.00,1.45
6903.00,1.45
6902.00,1.46
6901.00,1.46
6900.00,1.46
6899.00,1.46
6898.00,1.47
6897.00,1.47
6896.00,1.47
6895.00,1.48
6894.00,1.48
6893.00,1.48
6892.00,1.49
6891.00,1.49
6890.00,1.49
6889.00,1.50
6888.00,1.50
6887.00,1.50
6886.00,1.50
6885.00,1.50
6884.00,1.49
6883.00,1.49
6882.00,1.48
6881.00,1.47
6880.00,1.47
6879.00,1.46
6878.00,1.45
6877.00,1.45
6876.00,1.44
6875.00,1.44
6874.00,1.43
6873.00,1.42
6872.00,1.42
6871.00,1.41
6870.00,1.40
6869.00,1.39
6868.00,1.38
6867.00,1.37
6866.00,1.37
6865.00,1.36
6864.00,1.35
6863.00,1.35
6862.00,1.34
6861.00,1.34
6860.00,1.33
6859.00,1.33
6858.00,1.33
6857.00,1.32
6856.00,1.32
6855.00,1.32
6854.00,1.32
6853.00,1.32
6852.00,1.32
6851.00,1.32
6850.00,1.32
6849.00,1.32
6848.00,1.33
6847.00,1.33
6846.00,1.33
6845.00,1.33
6844.00,1.33
6843.00,1.33
6842.00,1.34
6841.00,1.34
6840.00,1.34
6839.00,1.34
6838.00,1.33
6837.00,1.33
6836.00,1.33
6835.00,1.33
6834.00,1.33
6833.00,1.33
6832.00,1.33
6831.00,1.32
6830.00,1.32
6829.00,1.32
6828.00,1.32
6827.00,1.32
6826.00,1.33
6825.00,1.33
6824.00,1.33
6823.00,1.33
6822.00,1.33
6821.00,1.33
6820.00,1.33
6819.00,1.33
6818.00,1.33
6817.00,1.34
6816.00,1.34
6815.00,1.34
6814.00,1.34
6813.00,1.34
6812.00,1.34
6811.00,1.35
6810.00,1.35
6809.00,1.35
6808.00,1.35
6807.00,1.35
6806.00,1.36
6805.00,1.36
6804.00,1.36
6803.00,1.36
6802.00,1.36
6801.00,1.36
6800.00,1.36
6799.00,1.35
6798.00,1.35
6797.00,1.35
6796.00,1.34
6795.00,1.34
6794.00,1.34
6793.00,1.33
6792.00,1.33
6791.00,1.33
6790.00,1.33
6789.00,1.32
6788.00,1.32
6787.00,1.32
6786.00,1.32
6785.00,1.32
6784.00,1.32
6783.00,1.32
6782.00,1.32
6781.00,1.32
6780.00,1.32
6779.00,1.32
6778.00,1.32
6777.00,1.32
6776.00,1.32
6775.00,1.32
6774.00,1.32
6773.00,1.32
6772.00,1.33
6771.00,1.33
6770.00,1.34
6769.00,1.34
6768.00,1.35
6767.00,1.36
6766.00,1.37
6765.00,1.38
6764.00,1.39
6763.00,1.39
6762.00,1.40
6761.00,1.41
6760.00,1.42
6759.00,1.43
6758.00,1.44
6757.00,1.45
6756.00,1.46
6755.00,1.47
6754.00,1.48
6753.00,1.49
6752.00,1.50
6751.00,1.51
6750.00,1.52
6749.00,1.53
6748.00,1.54
6747.00,1.55
6746.00,1.56
6745.00,1.57
6744.00,1.57
6743.00,1.58
6742.00,1.58
6741.00,1.59
6740.00,1.59
6739.00,1.59
6738.00,1.60
6737.00,1.60
6736.00,1.60
6735.00,1.60
6734.00,1.60
6733.00,1.59
6732.00,1.59
6731.00,1.59
6730.00,1.59
6729.00,1.58
6728.00,1.58
6727.00,1.58
6726.00,1.57
6725.00,1.57
6724.00,1.56
6723.00,1.56
6722.00,1.55
6721.00,1.55
6720.00,1.54
6719.00,1.54
6718.00,1.54
6717.00,1.54
6716.00,1.54
6715.00,1.53
6714.00,1.53
6713.00,1.53
6712.00,1.53
6711.00,1.53
6710.00,1.53
6709.00,1.53
6708.00,1.53
6707.00,1.53
6706.00,1.54
6705.00,1.54
6704.00,1.54
6703.00,1.55
6702.00,1.55
6701.00,1.56
6700.00,1.56
6699.00,1.57
6698.00,1.58
6697.00,1.58
6696.00,1.59
6695.00,1.60
6694.00,1.60
6693.00,1.61
6692.00,1.61
6691.00,1.62
6690.00,1.62
6689.00,1.62
6688.00,1.63
6687.00,1.63
6686.00,1.63
6685.00,1.64
6684.00,1.64
6683.00,1.64
6682.00,1.65
6681.00,1.65
6680.00,1.65
6679.00,1.65
6678.00,1.65
6677.00,1.65
6676.00,1.65
6675.00,1.65
6674.00,1.65
6673.00,1.65
6672.00,1.65
6671.00,1.65
6670.00,1.65
6669.00,1.64
6668.00,1.64
6667.00,1.64
6666.00,1.64
6665.00,1.64
6664.00,1.64
6663.00,1.64
6662.00,1.64
6661.00,1.64
6660.00,1.65
6659.00,1.65
6658.00,1.65
6657.00,1.65
6656.00,1.65
6655.00,1.65
6654.00,1.66
6653.00,1.66
6652.00,1.66
6651.00,1.67
6650.00,1.67
6649.00,1.68
6648.00,1.69
6647.00,1.69
6646.00,1.70
6645.00,1.71
6644.00,1.72
6643.00,1.73
6642.00,1.73
6641.00,1.74
6640.00,1.75
6639.00,1.76
6638.00,1.77
6637.00,1.77
6636.00,1.78
6635.00,1.78
6634.00,1.79
6633.00,1.80
6632.00,1.80
6631.00,1.81
6630.00,1.82
6629.00,1.83
6628.00,1.83
6627.00,1.84
6626.00,1.84
6625.00,1.85
6624.00,1.85
6623.00,1.85
6622.00,1.86
6621.00,1.86
6620.00,1.86
6619.00,1.86
6618.00,1.87
6617.00,1.87
6616.00,1.87
6615.00,1.87
6614.00,1.87
6613.00,1.87
6612.00,1.87
6611.00,1.87
6610.00,1.87
6609.00,1.88
6608.00,1.88
6607.00,1.88
6606.00,1.88
6605.00,1.88
6604.00,1.88
6603.00,1.89
6602.00,1.89
6601.00,1.89
6600.00,1.89
6599.00,1.90
6598.00,1.90
6597.00,1.91
6596.00,1.91
6595.00,1.92
6594.00,1.92
6593.00,1.93
6592.00,1.93
6591.00,1.94
6590.00,1.94
6589.00,1.95
6588.00,1.95
6587.00,1.95
6586.00,1.96
6585.00,1.96
6584.00,1.97
6583.00,1.97
6582.00,1.97
6581.00,1.97
6580.00,1.97
6579.00,1.97
6578.00,1.97
6577.00,1.98
6576.00,1.97
6575.00,1.97
6574.00,1.97
6573.00,1.97
6572.00,1.97
6571.00,1.97
6570.00,1.97
6569.00,1.97
6568.00,1.97
6567.00,1.96
6566.00,1.96
6565.00,1.96
6564.00,1.96
6563.00,1.95
6562.00,1.95
6561.00,1.95
6560.00,1.95
6559.00,1.95
6558.00,1.95
6557.00,1.95
6556.00,1.95
6555.00,1.95
6554.00,1.95
6553.00,1.96
6552.00,1.96
6551.00,1.96
6550.00,1.96
6549.00,1.96
6548.00,1.97
6547.00,1.97
6546.00,1.97
6545.00,1.97
6544.00,1.98
6543.00,1.98
6542.00,1.99
6541.00,1.99
6540.00,2.00
6539.00,2.00
6538.00,2.01
6537.00,2.02
6536.00,2.03
6535.00,2.04
6534.00,2.04
6533.00,2.05
6532.00,2.06
6531.00,2.06
6530.00,2.07
6529.00,2.07
6528.00,2.08
6527.00,2.08
6526.00,2.09
6525.00,2.09
6524.00,2.10
6523.00,2.10
6522.00,2.11
6521.00,2.11
6520.00,2.12
6519.00,2.12
6518.00,2.13
6517.00,2.13
6516.00,2.13
6515.00,2.13
6514.00,2.13
6513.00,2.13
6512.00,2.12
6511.00,2.12
6510.00,2.12
6509.00,2.11
6508.00,2.11
6507.00,2.11
6506.00,2.10
6505.00,2.10
6504.00,2.10
6503.00,2.09
6502.00,2.09
6501.00,2.09
6500.00,2.08
6499.00,2.08
6498.00,2.08
6497.00,2.07
6496.00,2.07
6495.00,2.07
6494.00,2.07
6493.00,2.06
6492.00,2.06
6491.00,2.06
6490.00,2.06
6489.00,2.06
6488.00,2.06
6487.00,2.06
6486.00,2.06
6485.00,2.06
6484.00,2.06
6483.00,2.06
6482.00,2.06
6481.00,2.07
6480.00,2.07
6479.00,2.07
6478.00,2.07
6477.00,2.07
6476.00,2.08
6475.00,2.08
6474.00,2.08
6473.00,2.09
6472.00,2.09
6471.00,2.09
6470.00,2.10
6469.00,2.10
6468.00,2.10
6467.00,2.10
6466.00,2.10
6465.00,2.10
6464.00,2.11
6463.00,2.11
6462.00,2.11
6461.00,2.11
6460.00,2.11
6459.00,2.11
6458.00,2.11
6457.00,2.12
6456.00,2.12
6455.00,2.12
6454.00,2.12
6453.00,2.12
6452.00,2.12
6451.00,2.12
6450.00,2.12
6449.00,2.12
6448.00,2.12
6447.00,2.11
6446.00,2.11
6445.00,2.11
6444.00,2.10
6443.00,2.10
6442.00,2.10
6441.00,2.09
6440.00,2.09
6439.00,2.09
6438.00,2.09
6437.00,2.09
6436.00,2.08
6435.00,2.08
6434.00,2.08
6433.00,2.08
6432.00,2.08
6431.00,2.08
6430.00,2.07
6429.00,2.07
6428.00,2.07
6427.00,2.07
6426.00,2.07
6425.00,2.07
6424.00,2.07
6423.00,2.08
6422.00,2.08
6421.00,2.08
6420.00,2.09
6419.00,2.09
6418.00,2.10
6417.00,2.10
6416.00,2.11
6415.00,2.11
6414.00,2.12
6413.00,2.13
6412.00,2.13
6411.00,2.14
6410.00,2.14
6409.00,2.15
6408.00,2.15
6407.00,2.16
6406.00,2.16
6405.00,2.17
6404.00,2.18
6403.00,2.18
6402.00,2.19
6401.00,2.19
6400.00,2.20
6399.00,2.20
6398.00,2.21
6397.00,2.21
6396.00,2.22
6395.00,2.22
6394.00,2.23
6393.00,2.23
6392.00,2.24
6391.00,2.24
6390.00,2.24
6389.00,2.25
6388.00,2.25
6387.00,2.25
6386.00,2.26
6385.00,2.26
6384.00,2.26
6383.00,2.26
6382.00,2.27
6381.00,2.27
6380.00,2.27
6379.00,2.27
6378.00,2.27
6377.00,2.28
6376.00,2.28
6375.00,2.28
6374.00,2.28
6373.00,2.28
6372.00,2.28
6371.00,2.28
6370.00,2.27
6369.00,2.27
6368.00,2.27
6367.00,2.27
6366.00,2.27
6365.00,2.27
6364.00,2.27
6363.00,2.26
6362.00,2.26
6361.00,2.26
6360.00,2.26
6359.00,2.26
6358.00,2.26
6357.00,2.26
6356.00,2.26
6355.00,2.25
6354.00,2.25
6353.00,2.25
6352.00,2.25
6351.00,2.25
6350.00,2.25
6349.00,2.25
6348.00,2.25
6347.00,2.25
6346.00,2.25
6345.00,2.25
6344.00,2.25
6343.00,2.25
6342.00,2.25
6341.00,2.25
6340.00,2.25
6339.00,2.25
6338.00,2.26
6337.00,2.26
6336.00,2.26
6335.00,2.26
6334.00,2.26
6333.00,2.27
6332.00,2.27
6331.00,2.27
6330.00,2.27
6329.00,2.27
6328.00,2.27
6327.00,2.27
6326.00,2.27
6325.00,2.27
6324.00,2.27
6323.00,2.27
6322.00,2.27
6321.00,2.27
6320.00,2.27
6319.00,2.28
6318.00,2.28
6317.00,2.28
6316.00,2.28
6315.00,2.28
6314.00,2.28
6313.00,2.28
6312.00,2.27
6311.00,2.27
6310.00,2.27
6309.00,2.27
6308.00,2.27
6307.00,2.27
6306.00,2.27
6305.00,2.27
6304.00,2.27
6303.00,2.28
6302.00,2.28
6301.00,2.29
6300.00,2.29
6299.00,2.30
6298.00,2.31
6297.00,2.31
6296.00,2.32
6295.00,2.32
6294.00,2.33
6293.00,2.34
6292.00,2.34
6291.00,2.35
6290.00,2.36
6289.00,2.36
6288.00,2.37
6287.00,2.38
6286.00,2.39
6285.00,2.39
6284.00,2.40
6283.00,2.41
6282.00,2.42
6281.00,2.42
6280.00,2.43
6279.00,2.43
6278.00,2.44
6277.00,2.44
6276.00,2.44
6275.00,2.45
6274.00,2.45
6273.00,2.45
6272.00,2.45
6271.00,2.45
6270.00,2.46
6269.00,2.46
6268.00,2.46
6267.00,2.46
6266.00,2.46
6265.00,2.46
6264.00,2.46
6263.00,2.46
6262.00,2.46
6261.00,2.46
6260.00,2.47
6259.00,2.47
6258.00,2.47
6257.00,2.47
6256.00,2.47
6255.00,2.47
6254.00,2.47
6253.00,2.47
6252.00,2.47
6251.00,2.48
6250.00,2.48
6249.00,2.48
6248.00,2.48
6247.00,2.48
6246.00,2.49
6245.00,2.49
6244.00,2.49
6243.00,2.49
6242.00,2.50
6241.00,2.50
6240.00,2.51
6239.00,2.51
6238.00,2.52
6237.00,2.52
6236.00,2.52
6235.00,2.53
6234.00,2.53
6233.00,2.53
6232.00,2.53
6231.00,2.53
6230.00,2.53
6229.00,2.53
6228.00,2.53
6227.00,2.53
6226.00,2.53
6225.00,2.53
6224.00,2.53
6223.00,2.53
6222.00,2.53
6221.00,2.53
6220.00,2.53
6219.00,2.53
6218.00,2.53
6217.00,2.53
6216.00,2.53
6215.00,2.53
6214.00,2.52
6213.00,2.52
6212.00,2.51
6211.00,2.51
6210.00,2.50
6209.00,2.50
6208.00,2.50
6207.00,2.50
6206.00,2.49
6205.00,2.49
6204.00,2.49
6203.00,2.49
6202.00,2.49
6201.00,2.48
6200.00,2.48
6199.00,2.48
6198.00,2.48
6197.00,2.48
6196.00,2.48
6195.00,2.49
6194.00,2.49
6193.00,2.49
6192.00,2.49
6191.00,2.49
6190.00,2.49
6189.00,2.49
6188.00,2.49
6187.00,2.49
6186.00,2.50
6185.00,2.50
6184.00,2.50
6183.00,2.50
6182.00,2.51
6181.00,2.51
6180.00,2.52
6179.00,2.52
6178.00,2.52
6177.00,2.53
6176.00,2.53
6175.00,2.54
6174.00,2.54
6173.00,2.54
6172.00,2.55
6171.00,2.55
6170.00,2.55
6169.00,2.55
6168.00,2.56
6167.00,2.56
6166.00,2.56
6165.00,2.56
6164.00,2.57
6163.00,2.57
6162.00,2.57
6161.00,2.58
6160.00,2.58
6159.00,2.59
6158.00,2.59
6157.00,2.59
6156.00,2.60
6155.00,2.60
6154.00,2.60
6153.00,2.61
6152.00,2.61
6151.00,2.61
6150.00,2.62
6149.00,2.62
6148.00,2.62
6147.00,2.63
6146.00,2.63
6145.00,2.64
6144.00,2.64
6143.00,2.64
6142.00,2.65
6141.00,2.65
6140.00,2.66
6139.00,2.67
6138.00,2.67
6137.00,2.67
6136.00,2.68
6135.00,2.68
6134.00,2.69
6133.00,2.69
6132.00,2.69
6131.00,2.70
6130.00,2.70
6129.00,2.70
6128.00,2.70
6127.00,2.71
6126.00,2.71
6125.00,2.71
6124.00,2.72
6123.00,2.72
6122.00,2.72
6121.00,2.73
6120.00,2.73
6119.00,2.74
6118.00,2.74
6117.00,2.74
6116.00,2.74
6115.00,2.75
6114.00,2.75
6113.00,2.75
6112.00,2.75
6111.00,2.75
6110.00,2.75
6109.00,2.75
6108.00,2.75
6107.00,2.75
6106.00,2.75
6105.00,2.75
6104.00,2.75
6103.00,2.76
6102.00,2.76
6101.00,2.76
6100.00,2.76
6099.00,2.76
6098.00,2.76
6097.00,2.76
6096.00,2.76
6095.00,2.76
6094.00,2.76
6093.00,2.76
6092.00,2.76
6091.00,2.75
6090.00,2.75
6089.00,2.75
6088.00,2.75
6087.00,2.75
6086.00,2.75
6085.00,2.75
6084.00,2.76
6083.00,2.76
6082.00,2.76
6081.00,2.76
6080.00,2.77
6079.00,2.77
6078.00,2.77
6077.00,2.77
6076.00,2.77
6075.00,2.77
6074.00,2.77
6073.00,2.77
6072.00,2.77
6071.00,2.77
6070.00,2.78
6069.00,2.78
6068.00,2.78
6067.00,2.78
6066.00,2.79
6065.00,2.79
6064.00,2.80
6063.00,2.80
6062.00,2.80
6061.00,2.81
6060.00,2.81
6059.00,2.81
6058.00,2.81
6057.00,2.81
6056.00,2.81
6055.00,2.81
6054.00,2.81
6053.00,2.81
6052.00,2.81
6051.00,2.81
6050.00,2.81
6049.00,2.81
6048.00,2.82
6047.00,2.82
6046.00,2.82
6045.00,2.82
6044.00,2.83
6043.00,2.83
6042.00,2.83
6041.00,2.83
6040.00,2.83
6039.00,2.82
6038.00,2.82
6037.00,2.82
6036.00,2.82
6035.00,2.82
6034.00,2.82
6033.00,2.82
6032.00,2.82
6031.00,2.82
6030.00,2.82
6029.00,2.82
6028.00,2.83
6027.00,2.83
6026.00,2.83
6025.00,2.83
6024.00,2.83
6023.00,2.83
6022.00,2.82
6021.00,2.82
6020.00,2.82
6019.00,2.82
6018.00,2.81
6017.00,2.81
6016.00,2.81
6015.00,2.80
6014.00,2.80
6013.00,2.80
6012.00,2.79
6011.00,2.79
6010.00,2.79
6009.00,2.78
6008.00,2.78
6007.00,2.78
6006.00,2.78
6005.00,2.77
6004.00,2.77
6003.00,2.77
6002.00,2.77
6001.00,2.76
6000.00,2.76
5999.00,2.76
5998.00,2.76
5997.00,2.76
5996.00,2.76
5995.00,2.76
5994.00,2.75
5993.00,2.75
5992.00,2.75
5991.00,2.75
5990.00,2.75
5989.00,2.75
5988.00,2.75
5987.00,2.75
5986.00,2.75
5985.00,2.75
5984.00,2.75
5983.00,2.75
5982.00,2.75
5981.00,2.75
5980.00,2.74
5979.00,2.74
5978.00,2.74
5977.00,2.73
5976.00,2.73
5975.00,2.72
5974.00,2.72
5973.00,2.71
5972.00,2.70
5971.00,2.69
5970.00,2.69
5969.00,2.68
5968.00,2.67
5967.00,2.67
5966.00,2.66
5965.00,2.65
5964.00,2.65
5963.00,2.64
5962.00,2.64
5961.00,2.63
5960.00,2.63
5959.00,2.63
5958.00,2.62
5957.00,2.62
5956.00,2.62
5955.00,2.61
5954.00,2.61
5953.00,2.61
5952.00,2.61
5951.00,2.61
5950.00,2.61
5949.00,2.61
5948.00,2.60
5947.00,2.60
5946.00,2.60
5945.00,2.61
5944.00,2.61
5943.00,2.61
5942.00,2.61
5941.00,2.61
5940.00,2.61
5939.00,2.61
5938.00,2.61
5937.00,2.61
5936.00,2.61
5935.00,2.60
5934.00,2.60
5933.00,2.60
5932.00,2.59
5931.00,2.59
5930.00,2.59
5929.00,2.58
5928.00,2.58
5927.00,2.57
5926.00,2.57
5925.00,2.56
5924.00,2.56
5923.00,2.55
5922.00,2.55
5921.00,2.54
5920.00,2.54
5919.00,2.54
5918.00,2.53
5917.00,2.53
5916.00,2.53
5915.00,2.52
5914.00,2.52
5913.00,2.52
5912.00,2.52
5911.00,2.52
5910.00,2.52
5909.00,2.52
5908.00,2.52
5907.00,2.52
5906.00,2.52
5905.00,2.52
5904.00,2.52
5903.00,2.52
5902.00,2.53
5901.00,2.53
5900.00,2.53
5899.00,2.53
5898.00,2.54
5897.00,2.54
5896.00,2.54
5895.00,2.54
5894.00,2.55
5893.00,2.55
5892.00,2.55
5891.00,2.56
5890.00,2.56
5889.00,2.56
5888.00,2.57
5887.00,2.57
5886.00,2.57
5885.00,2.58
5884.00,2.58
5883.00,2.58
5882.00,2.59
5881.00,2.59
5880.00,2.59
5879.00,2.60
5878.00,2.60
5877.00,2.61
5876.00,2.61
5875.00,2.62
5874.00,2.62
5873.00,2.63
5872.00,2.63
5871.00,2.64
5870.00,2.64
5869.00,2.65
5868.00,2.65
5867.00,2.65
5866.00,2.66
5865.00,2.66
5864.00,2.66
5863.00,2.66
5862.00,2.66
5861.00,2.66
5860.00,2.67
5859.00,2.67
5858.00,2.67
5857.00,2.67
5856.00,2.67
5855.00,2.67
5854.00,2.66
5853.00,2.66
5852.00,2.66
5851.00,2.66
5850.00,2.65
5849.00,2.65
5848.00,2.64
5847.00,2.64
5846.00,2.63
5845.00,2.63
5844.00,2.62
5843.00,2.62
5842.00,2.62
5841.00,2.61
5840.00,2.61
5839.00,2.60
5838.00,2.60
5837.00,2.59
5836.00,2.59
5835.00,2.59
5834.00,2.58
5833.00,2.58
5832.00,2.58
5831.00,2.57
5830.00,2.57
5829.00,2.57
5828.00,2.57
5827.00,2.57
5826.00,2.57
5825.00,2.57
5824.00,2.57
5823.00,2.57
5822.00,2.58
5821.00,2.58
5820.00,2.58
5819.00,2.59
5818.00,2.59
5817.00,2.59
5816.00,2.60
5815.00,2.60
5814.00,2.61
5813.00,2.61
5812.00,2.61
5811.00,2.62
5810.00,2.63
5809.00,2.63
5808.00,2.64
5807.00,2.64
5806.00,2.65
5805.00,2.66
5804.00,2.66
5803.00,2.67
5802.00,2.67
5801.00,2.67
5800.00,2.68
5799.00,2.68
5798.00,2.68
5797.00,2.68
5796.00,2.69
5795.00,2.69
5794.00,2.69
5793.00,2.70
5792.00,2.70
5791.00,2.70
5790.00,2.70
5789.00,2.71
5788.00,2.71
5787.00,2.71
5786.00,2.71
5785.00,2.71
5784.00,2.71
5783.00,2.71
5782.00,2.71
5781.00,2.71
5780.00,2.71
5779.00,2.70
5778.00,2.70
5777.00,2.70
5776.00,2.70
5775.00,2.70
5774.00,2.70
5773.00,2.69
5772.00,2.69
5771.00,2.69
5770.00,2.69
5769.00,2.69
5768.00,2.68
5767.00,2.68
5766.00,2.68
5765.00,2.68
5764.00,2.67
5763.00,2.67
5762.00,2.67
5761.00,2.66
5760.00,2.66
5759.00,2.66
5758.00,2.66
5757.00,2.66
5756.00,2.65
5755.00,2.65
5754.00,2.65
5753.00,2.65
5752.00,2.64
5751.00,2.64
5750.00,2.64
5749.00,2.64
5748.00,2.63
5747.00,2.63
5746.00,2.63
5745.00,2.63
5744.00,2.63
5743.00,2.63
5742.00,2.63
5741.00,2.63
5740.00,2.63
5739.00,2.63
5738.00,2.63
5737.00,2.63
5736.00,2.63
5735.00,2.63
5734.00,2.63
5733.00,2.63
5732.00,2.63
5731.00,2.63
5730.00,2.63
5729.00,2.64
5728.00,2.64
5727.00,2.64
5726.00,2.65
5725.00,2.65
5724.00,2.65
5723.00,2.66
5722.00,2.66
5721.00,2.66
5720.00,2.66
5719.00,2.67
5718.00,2.67
5717.00,2.67
5716.00,2.67
5715.00,2.67
5714.00,2.67
5713.00,2.67
5712.00,2.67
5711.00,2.67
5710.00,2.67
5709.00,2.67
5708.00,2.66
5707.00,2.66
5706.00,2.66
5705.00,2.66
5704.00,2.66
5703.00,2.66
5702.00,2.65
5701.00,2.65
5700.00,2.65
5699.00,2.65
5698.00,2.65
5697.00,2.64
5696.00,2.64
5695.00,2.64
5694.00,2.64
5693.00,2.64
5692.00,2.64
5691.00,2.63
5690.00,2.63
5689.00,2.63
5688.00,2.63
5687.00,2.63
5686.00,2.63
5685.00,2.63
5684.00,2.63
5683.00,2.63
5682.00,2.63
5681.00,2.63
5680.00,2.64
5679.00,2.64
5678.00,2.64
5677.00,2.64
5676.00,2.64
5675.00,2.64
5674.00,2.64
5673.00,2.64
5672.00,2.64
5671.00,2.64
5670.00,2.64
5669.00,2.64
5668.00,2.64
5667.00,2.64
5666.00,2.64
5665.00,2.64
5664.00,2.65
5663.00,2.65
5662.00,2.65
5661.00,2.65
5660.00,2.65
5659.00,2.65
5658.00,2.65
5657.00,2.65
5656.00,2.64
5655.00,2.64
5654.00,2.64
5653.00,2.64
5652.00,2.64
5651.00,2.63
5650.00,2.63
5649.00,2.63
5648.00,2.63
5647.00,2.63
5646.00,2.63
5645.00,2.63
5644.00,2.63
5643.00,2.63
5642.00,2.63
5641.00,2.63
5640.00,2.63
5639.00,2.63
5638.00,2.63
5637.00,2.63
5636.00,2.63
5635.00,2.63
5634.00,2.63
5633.00,2.63
5632.00,2.63
5631.00,2.63
5630.00,2.64
5629.00,2.64
5628.00,2.64
5627.00,2.65
5626.00,2.65
5625.00,2.65
5624.00,2.66
5623.00,2.66
5622.00,2.66
5621.00,2.67
5620.00,2.67
5619.00,2.67
5618.00,2.68
5617.00,2.68
5616.00,2.68
5615.00,2.68
5614.00,2.69
5613.00,2.69
5612.00,2.69
5611.00,2.69
5610.00,2.69
5609.00,2.70
5608.00,2.70
5607.00,2.70
5606.00,2.70
5605.00,2.70
5604.00,2.70
5603.00,2.70
5602.00,2.70
5601.00,2.70
5600.00,2.70
5599.00,2.70
5598.00,2.70
5597.00,2.69
5596.00,2.69
5595.00,2.70
5594.00,2.70
5593.00,2.70
5592.00,2.70
5591.00,2.70
5590.00,2.70
5589.00,2.71
5588.00,2.71
5587.00,2.71
5586.00,2.72
5585.00,2.72
5584.00,2.73
5583.00,2.73
5582.00,2.74
5581.00,2.74
5580.00,2.75
5579.00,2.75
5578.00,2.76
5577.00,2.76
5576.00,2.77
5575.00,2.77
5574.00,2.78
5573.00,2.79
5572.00,2.79
5571.00,2.80
5570.00,2.81
5569.00,2.81
5568.00,2.82
5567.00,2.82
5566.00,2.83
5565.00,2.83
5564.00,2.83
5563.00,2.84
5562.00,2.84
5561.00,2.84
5560.00,2.84
5559.00,2.84
5558.00,2.85
5557.00,2.85
5556.00,2.85
5555.00,2.85
5554.00,2.85
5553.00,2.85
5552.00,2.85
5551.00,2.86
5550.00,2.86
5549.00,2.86
5548.00,2.86
5547.00,2.86
5546.00,2.86
5545.00,2.86
5544.00,2.85
5543.00,2.85
5542.00,2.85
5541.00,2.85
5540.00,2.85
5539.00,2.85
5538.00,2.85
5537.00,2.85
5536.00,2.85
5535.00,2.85
5534.00,2.85
5533.00,2.85
5532.00,2.85
5531.00,2.85
5530.00,2.84
5529.00,2.84
5528.00,2.84
5527.00,2.84
5526.00,2.84
5525.00,2.84
5524.00,2.83
5523.00,2.83
5522.00,2.83
5521.00,2.83
5520.00,2.83
5519.00,2.83
5518.00,2.83
5517.00,2.83
5516.00,2.82
5515.00,2.82
5514.00,2.82
5513.00,2.82
5512.00,2.82
5511.00,2.82
5510.00,2.82
5509.00,2.82
5508.00,2.82
5507.00,2.82
5506.00,2.82
5505.00,2.82
5504.00,2.82
5503.00,2.83
5502.00,2.83
5501.00,2.83
5500.00,2.83
5499.00,2.83
5498.00,2.83
5497.00,2.84
5496.00,2.84
5495.00,2.84
5494.00,2.85
5493.00,2.85
5492.00,2.86
5491.00,2.86
5490.00,2.86
5489.00,2.87
5488.00,2.87
5487.00,2.88
5486.00,2.88
5485.00,2.89
5484.00,2.89
5483.00,2.89
5482.00,2.90
5481.00,2.90
5480.00,2.91
5479.00,2.91
5478.00,2.92
5477.00,2.92
5476.00,2.93
5475.00,2.94
5474.00,2.94
5473.00,2.94
5472.00,2.95
5471.00,2.95
5470.00,2.96
5469.00,2.96
5468.00,2.96
5467.00,2.96
5466.00,2.96
5465.00,2.96
5464.00,2.96
5463.00,2.96
5462.00,2.96
5461.00,2.96
5460.00,2.96
5459.00,2.97
5458.00,2.97
5457.00,2.97
5456.00,2.97
5455.00,2.97
5454.00,2.97
5453.00,2.97
5452.00,2.98
5451.00,2.98
5450.00,2.98
5449.00,2.98
5448.00,2.98
5447.00,2.98
5446.00,2.98
5445.00,2.98
5444.00,2.98
5443.00,2.98
5442.00,2.98
5441.00,2.99
5440.00,2.99
5439.00,3.00
5438.00,3.00
5437.00,3.01
5436.00,3.01
5435.00,3.02
5434.00,3.02
5433.00,3.03
5432.00,3.03
5431.00,3.03
5430.00,3.03
5429.00,3.03
5428.00,3.04
5427.00,3.04
5426.00,3.04
5425.00,3.04
5424.00,3.04
5423.00,3.05
5422.00,3.05
5421.00,3.05
5420.00,3.05
5419.00,3.06
5418.00,3.06
5417.00,3.06
5416.00,3.06
5415.00,3.06
5414.00,3.06
5413.00,3.06
5412.00,3.06
5411.00,3.06
5410.00,3.06
5409.00,3.06
5408.00,3.05
5407.00,3.05
5406.00,3.05
5405.00,3.05
5404.00,3.05
5403.00,3.05
5402.00,3.05
5401.00,3.05
5400.00,3.05
5399.00,3.05
5398.00,3.05
5397.00,3.04
5396.00,3.04
5395.00,3.04
5394.00,3.03
5393.00,3.03
5392.00,3.02
5391.00,3.02
5390.00,3.01
5389.00,3.00
5388.00,3.00
5387.00,2.99
5386.00,2.98
5385.00,2.98
5384.00,2.97
5383.00,2.96
5382.00,2.95
5381.00,2.95
5380.00,2.94
5379.00,2.93
5378.00,2.92
5377.00,2.91
5376.00,2.90
5375.00,2.89
5374.00,2.88
5373.00,2.86
5372.00,2.85
5371.00,2.84
5370.00,2.83
5369.00,2.82
5368.00,2.81
5367.00,2.79
5366.00,2.78
5365.00,2.77
5364.00,2.76
5363.00,2.75
5362.00,2.74
5361.00,2.73
5360.00,2.72
5359.00,2.71
5358.00,2.70
5357.00,2.69
5356.00,2.67
5355.00,2.66
5354.00,2.65
5353.00,2.64
5352.00,2.63
5351.00,2.62
5350.00,2.61
5349.00,2.60
5348.00,2.58
5347.00,2.57
5346.00,2.56
5345.00,2.55
5344.00,2.53
5343.00,2.52
5342.00,2.51
5341.00,2.49
5340.00,2.48
5339.00,2.46
5338.00,2.45
5337.00,2.43
5336.00,2.41
5335.00,2.40
5334.00,2.38
5333.00,2.36
5332.00,2.34
5331.00,2.31
5330.00,2.29
5329.00,2.27
5328.00,2.24
5327.00,2.22
5326.00,2.19
5325.00,2.17
5324.00,2.14
5323.00,2.12
5322.00,2.09
5321.00,2.06
5320.00,2.03
5319.00,2.01
5318.00,1.98
5317.00,1.95
5316.00,1.92
5315.00,1.89
5314.00,1.86
5313.00,1.84
5312.00,1.81
5311.00,1.78
5310.00,1.76
5309.00,1.73
5308.00,1.71
5307.00,1.69
5306.00,1.66
5305.00,1.64
5304.00,1.62
5303.00,1.60
5302.00,1.59
5301.00,1.57
5300.00,1.55
5299.00,1.54
5298.00,1.52
5297.00,1.51
5296.00,1.49
5295.00,1.48
5294.00,1.47
5293.00,1.46
5292.00,1.45
5291.00,1.44
5290.00,1.43
5289.00,1.43
5288.00,1.42
5287.00,1.41
5286.00,1.40
5285.00,1.39
5284.00,1.38
5283.00,1.38
5282.00,1.37
5281.00,1.36
5280.00,1.35
5279.00,1.34
5278.00,1.33
5277.00,1.33
5276.00,1.32
5275.00,1.31
5274.00,1.30
5273.00,1.30
5272.00,1.29
5271.00,1.28
5270.00,1.28
5269.00,1.27
5268.00,1.27
5267.00,1.26
5266.00,1.26
5265.00,1.26
5264.00,1.25
5263.00,1.25
5262.00,1.24
5261.00,1.24
5260.00,1.24
5259.00,1.23
5258.00,1.23
5257.00,1.23
5256.00,1.23
5255.00,1.22
5254.00,1.22
5253.00,1.22
5252.00,1.22
5251.00,1.22
5250.00,1.22
5249.00,1.22
5248.00,1.21
5247.00,1.21
5246.00,1.21
5245.00,1.21
5244.00,1.20
5243.00,1.20
5242.00,1.19
5241.00,1.19
5240.00,1.18
5239.00,1.18
5238.00,1.17
5237.00,1.16
5236.00,1.16
5235.00,1.16
5234.00,1.15
5233.00,1.15
5232.00,1.15
5231.00,1.14
5230.00,1.14
5229.00,1.14
5228.00,1.13
5227.00,1.13
5226.00,1.13
5225.00,1.13
5224.00,1.12
5223.00,1.12
5222.00,1.12
5221.00,1.12
5220.00,1.12
5219.00,1.12
5218.00,1.12
5217.00,1.12
5216.00,1.12
5215.00,1.12
5214.00,1.13
5213.00,1.13
5212.00,1.13
5211.00,1.13
5210.00,1.13
5209.00,1.13
5208.00,1.12
5207.00,1.12
5206.00,1.12
5205.00,1.12
5204.00,1.12
5203.00,1.12
5202.00,1.11
5201.00,1.11
5200.00,1.11
5199.00,1.11
5198.00,1.11
5197.00,1.10
5196.00,1.10
5195.00,1.09
5194.00,1.09
5193.00,1.09
5192.00,1.08
5191.00,1.08
5190.00,1.07
5189.00,1.07
5188.00,1.06
5187.00,1.06
5186.00,1.06
5185.00,1.05
5184.00,1.05
5183.00,1.05
5182.00,1.05
5181.00,1.05
5180.00,1.05
5179.00,1.05
5178.00,1.05
5177.00,1.05
5176.00,1.05
5175.00,1.05
5174.00,1.05
5173.00,1.05
5172.00,1.05
5171.00,1.05
5170.00,1.05
5169.00,1.05
5168.00,1.06
5167.00,1.06
5166.00,1.06
5165.00,1.06
5164.00,1.07
5163.00,1.07
5162.00,1.07
5161.00,1.08
5160.00,1.08
5159.00,1.09
5158.00,1.09
5157.00,1.09
5156.00,1.10
5155.00,1.10
5154.00,1.11
5153.00,1.11
5152.00,1.11
5151.00,1.12
5150.00,1.12
5149.00,1.13
5148.00,1.13
5147.00,1.13
5146.00,1.14
5145.00,1.14
5144.00,1.14
5143.00,1.15
5142.00,1.15
5141.00,1.16
5140.00,1.16
5139.00,1.17
5138.00,1.17
5137.00,1.17
5136.00,1.18
5135.00,1.18
5134.00,1.18
5133.00,1.18
5132.00,1.18
5131.00,1.18
5130.00,1.18
5129.00,1.18
5128.00,1.18
5127.00,1.18
5126.00,1.18
5125.00,1.18
5124.00,1.18
5123.00,1.18
5122.00,1.18
5121.00,1.18
5120.00,1.19
5119.00,1.19
5118.00,1.19
5117.00,1.18
5116.00,1.18
5115.00,1.18
5114.00,1.18
5113.00,1.18
5112.00,1.18
5111.00,1.18
5110.00,1.18
5109.00,1.18
5108.00,1.18
5107.00,1.18
5106.00,1.19
5105.00,1.19
5104.00,1.19
5103.00,1.20
5102.00,1.20
5101.00,1.21
5100.00,1.21
5099.00,1.21
5098.00,1.22
5097.00,1.22
5096.00,1.22
5095.00,1.23
5094.00,1.23
5093.00,1.23
5092.00,1.23
5091.00,1.24
5090.00,1.24
5089.00,1.24
5088.00,1.25
5087.00,1.25
5086.00,1.25
5085.00,1.26
5084.00,1.26
5083.00,1.26
5082.00,1.26
5081.00,1.26
5080.00,1.27
5079.00,1.27
5078.00,1.26
5077.00,1.26
5076.00,1.26
5075.00,1.26
5074.00,1.26
5073.00,1.26
5072.00,1.26
5071.00,1.26
5070.00,1.26
5069.00,1.26
5068.00,1.26
5067.00,1.26
5066.00,1.26
5065.00,1.26
5064.00,1.26
5063.00,1.26
5062.00,1.26
5061.00,1.26
5060.00,1.26
5059.00,1.26
5058.00,1.26
5057.00,1.26
5056.00,1.26
5055.00,1.26
5054.00,1.26
5053.00,1.26
5052.00,1.27
5051.00,1.27
5050.00,1.27
5049.00,1.28
5048.00,1.28
5047.00,1.29
5046.00,1.30
5045.00,1.30
5044.00,1.31
5043.00,1.32
5042.00,1.32
5041.00,1.33
5040.00,1.34
5039.00,1.34
5038.00,1.35
5037.00,1.36
5036.00,1.37
5035.00,1.37
5034.00,1.38
5033.00,1.39
5032.00,1.40
5031.00,1.40
5030.00,1.41
5029.00,1.42
5028.00,1.43
5027.00,1.44
5026.00,1.44
5025.00,1.45
5024.00,1.46
5023.00,1.46
5022.00,1.47
5021.00,1.47
5020.00,1.48
5019.00,1.48
5018.00,1.48
5017.00,1.49
5016.00,1.49
5015.00,1.49
5014.00,1.49
5013.00,1.49
5012.00,1.50
5011.00,1.50
5010.00,1.50
5009.00,1.50
5008.00,1.50
5007.00,1.49
5006.00,1.49
5005.00,1.49
5004.00,1.49
5003.00,1.49
5002.00,1.49
5001.00,1.49
5000.00,1.48
4999.00,1.48
4998.00,1.48
4997.00,1.48
4996.00,1.48
4995.00,1.48
4994.00,1.48
4993.00,1.48
4992.00,1.48
4991.00,1.48
4990.00,1.49
4989.00,1.49
4988.00,1.49
4987.00,1.49
4986.00,1.49
4985.00,1.49
4984.00,1.49
4983.00,1.49
4982.00,1.49
4981.00,1.50
4980.00,1.50
4979.00,1.50
4978.00,1.51
4977.00,1.51
4976.00,1.51
4975.00,1.51
4974.00,1.52
4973.00,1.52
4972.00,1.52
4971.00,1.53
4970.00,1.53
4969.00,1.53
4968.00,1.53
4967.00,1.54
4966.00,1.54
4965.00,1.54
4964.00,1.54
4963.00,1.55
4962.00,1.55
4961.00,1.55
4960.00,1.56
4959.00,1.56
4958.00,1.57
4957.00,1.58
4956.00,1.58
4955.00,1.59
4954.00,1.59
4953.00,1.60
4952.00,1.60
4951.00,1.61
4950.00,1.61
4949.00,1.62
4948.00,1.62
4947.00,1.63
4946.00,1.63
4945.00,1.64
4944.00,1.65
4943.00,1.65
4942.00,1.66
4941.00,1.66
4940.00,1.67
4939.00,1.67
4938.00,1.68
4937.00,1.68
4936.00,1.69
4935.00,1.69
4934.00,1.69
4933.00,1.69
4932.00,1.70
4931.00,1.70
4930.00,1.70
4929.00,1.70
4928.00,1.71
4927.00,1.71
4926.00,1.71
4925.00,1.71
4924.00,1.72
4923.00,1.72
4922.00,1.73
4921.00,1.73
4920.00,1.73
4919.00,1.73
4918.00,1.74
4917.00,1.74
4916.00,1.74
4915.00,1.74
4914.00,1.75
4913.00,1.75
4912.00,1.75
4911.00,1.76
4910.00,1.76
4909.00,1.76
4908.00,1.77
4907.00,1.78
4906.00,1.78
4905.00,1.79
4904.00,1.79
4903.00,1.79
4902.00,1.80
4901.00,1.80
4900.00,1.80
4899.00,1.80
4898.00,1.81
4897.00,1.81
4896.00,1.81
4895.00,1.81
4894.00,1.81
4893.00,1.81
4892.00,1.82
4891.00,1.82
4890.00,1.82
4889.00,1.83
4888.00,1.83
4887.00,1.83
4886.00,1.83
4885.00,1.84
4884.00,1.84
4883.00,1.84
4882.00,1.84
4881.00,1.84
4880.00,1.84
4879.00,1.84
4878.00,1.84
4877.00,1.84
4876.00,1.85
4875.00,1.85
4874.00,1.85
4873.00,1.86
4872.00,1.86
4871.00,1.86
4870.00,1.87
4869.00,1.87
4868.00,1.87
4867.00,1.88
4866.00,1.88
4865.00,1.88
4864.00,1.89
4863.00,1.89
4862.00,1.89
4861.00,1.90
4860.00,1.90
4859.00,1.90
4858.00,1.91
4857.00,1.92
4856.00,1.92
4855.00,1.93
4854.00,1.93
4853.00,1.94
4852.00,1.94
4851.00,1.95
4850.00,1.96
4849.00,1.96
4848.00,1.97
4847.00,1.98
4846.00,1.98
4845.00,1.99
4844.00,2.00
4843.00,2.00
4842.00,2.01
4841.00,2.01
4840.00,2.02
4839.00,2.02
4838.00,2.03
4837.00,2.03
4836.00,2.04
4835.00,2.04
4834.00,2.05
4833.00,2.05
4832.00,2.06
4831.00,2.06
4830.00,2.07
4829.00,2.07
4828.00,2.07
4827.00,2.07
4826.00,2.08
4825.00,2.08
4824.00,2.08
4823.00,2.08
4822.00,2.08
4821.00,2.08
4820.00,2.08
4819.00,2.08
4818.00,2.08
4817.00,2.08
4816.00,2.08
4815.00,2.08
4814.00,2.08
4813.00,2.08
4812.00,2.08
4811.00,2.09
4810.00,2.09
4809.00,2.09
4808.00,2.10
4807.00,2.10
4806.00,2.11
4805.00,2.11
4804.00,2.12
4803.00,2.12
4802.00,2.13
4801.00,2.14
4800.00,2.14
4799.00,2.15
4798.00,2.16
4797.00,2.17
4796.00,2.18
4795.00,2.19
4794.00,2.20
4793.00,2.20
4792.00,2.21
4791.00,2.22
4790.00,2.23
4789.00,2.24
4788.00,2.25
4787.00,2.26
4786.00,2.26
4785.00,2.27
4784.00,2.28
4783.00,2.28
4782.00,2.29
4781.00,2.29
4780.00,2.30
4779.00,2.30
4778.00,2.31
4777.00,2.31
4776.00,2.32
4775.00,2.32
4774.00,2.32
4773.00,2.33
4772.00,2.33
4771.00,2.33
4770.00,2.33
4769.00,2.34
4768.00,2.34
4767.00,2.34
4766.00,2.35
4765.00,2.35
4764.00,2.35
4763.00,2.35
4762.00,2.36
4761.00,2.36
4760.00,2.37
4759.00,2.37
4758.00,2.37
4757.00,2.37
4756.00,2.37
4755.00,2.38
4754.00,2.38
4753.00,2.38
4752.00,2.38
4751.00,2.38
4750.00,2.38
4749.00,2.38
4748.00,2.39
4747.00,2.39
4746.00,2.39
4745.00,2.40
4744.00,2.40
4743.00,2.40
4742.00,2.40
4741.00,2.40
4740.00,2.40
4739.00,2.40
4738.00,2.40
4737.00,2.40
4736.00,2.40
4735.00,2.40
4734.00,2.40
4733.00,2.40
4732.00,2.40
4731.00,2.41
4730.00,2.41
4729.00,2.42
4728.00,2.42
4727.00,2.42
4726.00,2.43
4725.00,2.44
4724.00,2.44
4723.00,2.45
4722.00,2.45
4721.00,2.46
4720.00,2.46
4719.00,2.47
4718.00,2.47
4717.00,2.48
4716.00,2.49
4715.00,2.50
4714.00,2.51
4713.00,2.52
4712.00,2.53
4711.00,2.54
4710.00,2.55
4709.00,2.56
4708.00,2.57
4707.00,2.58
4706.00,2.59
4705.00,2.59
4704.00,2.60
4703.00,2.61
4702.00,2.62
4701.00,2.62
4700.00,2.63
4699.00,2.64
4698.00,2.64
4697.00,2.65
4696.00,2.66
4695.00,2.66
4694.00,2.67
4693.00,2.68
4692.00,2.68
4691.00,2.69
4690.00,2.70
4689.00,2.71
4688.00,2.71
4687.00,2.72
4686.00,2.72
4685.00,2.73
4684.00,2.74
4683.00,2.74
4682.00,2.75
4681.00,2.75
4680.00,2.76
4679.00,2.77
4678.00,2.77
4677.00,2.78
4676.00,2.78
4675.00,2.79
4674.00,2.79
4673.00,2.80
4672.00,2.80
4671.00,2.81
4670.00,2.81
4669.00,2.81
4668.00,2.82
4667.00,2.82
4666.00,2.82
4665.00,2.83
4664.00,2.83
4663.00,2.83
4662.00,2.83
4661.00,2.84
4660.00,2.84
4659.00,2.84
4658.00,2.84
4657.00,2.84
4656.00,2.84
4655.00,2.84
4654.00,2.84
4653.00,2.84
4652.00,2.84
4651.00,2.84
4650.00,2.84
4649.00,2.84
4648.00,2.85
4647.00,2.85
4646.00,2.85
4645.00,2.86
4644.00,2.86
4643.00,2.87
4642.00,2.87
4641.00,2.87
4640.00,2.88
4639.00,2.88
4638.00,2.88
4637.00,2.88
4636.00,2.89
4635.00,2.89
4634.00,2.89
4633.00,2.90
4632.00,2.90
4631.00,2.91
4630.00,2.91
4629.00,2.92
4628.00,2.92
4627.00,2.93
4626.00,2.94
4625.00,2.94
4624.00,2.95
4623.00,2.96
4622.00,2.96
4621.00,2.97
4620.00,2.97
4619.00,2.98
4618.00,2.98
4617.00,2.98
4616.00,2.99
4615.00,2.99
4614.00,2.99
4613.00,3.00
4612.00,3.00
4611.00,3.00
4610.00,3.01
4609.00,3.01
4608.00,3.01
4607.00,3.01
4606.00,3.01
4605.00,3.01
4604.00,3.01
4603.00,3.01
4602.00,3.01
4601.00,3.00
4600.00,3.00
4599.00,2.99
4598.00,2.99
4597.00,2.98
4596.00,2.97
4595.00,2.96
4594.00,2.96
4593.00,2.95
4592.00,2.95
4591.00,2.94
4590.00,2.94
4589.00,2.93
4588.00,2.93
4587.00,2.92
4586.00,2.92
4585.00,2.92
4584.00,2.91
4583.00,2.91
4582.00,2.91
4581.00,2.91
4580.00,2.91
4579.00,2.91
4578.00,2.91
4577.00,2.91
4576.00,2.91
4575.00,2.91
4574.00,2.92
4573.00,2.92
4572.00,2.92
4571.00,2.93
4570.00,2.93
4569.00,2.94
4568.00,2.94
4567.00,2.95
4566.00,2.95
4565.00,2.96
4564.00,2.96
4563.00,2.96
4562.00,2.96
4561.00,2.97
4560.00,2.97
4559.00,2.97
4558.00,2.97
4557.00,2.97
4556.00,2.97
4555.00,2.97
4554.00,2.97
4553.00,2.97
4552.00,2.97
4551.00,2.97
4550.00,2.97
4549.00,2.97
4548.00,2.97
4547.00,2.97
4546.00,2.97
4545.00,2.97
4544.00,2.97
4543.00,2.97
4542.00,2.97
4541.00,2.97
4540.00,2.97
4539.00,2.97
4538.00,2.97
4537.00,2.98
4536.00,2.98
4535.00,2.98
4534.00,2.99
4533.00,2.99
4532.00,3.00
4531.00,3.00
4530.00,3.01
4529.00,3.01
4528.00,3.01
4527.00,3.02
4526.00,3.02
4525.00,3.03
4524.00,3.03
4523.00,3.04
4522.00,3.04
4521.00,3.05
4520.00,3.05
4519.00,3.06
4518.00,3.06
4517.00,3.07
4516.00,3.07
4515.00,3.07
4514.00,3.07
4513.00,3.08
4512.00,3.08
4511.00,3.08
4510.00,3.08
4509.00,3.09
4508.00,3.09
4507.00,3.09
4506.00,3.09
4505.00,3.09
4504.00,3.09
4503.00,3.09
4502.00,3.09
4501.00,3.09
4500.00,3.09
4499.00,3.09
4498.00,3.09
4497.00,3.09
4496.00,3.09
4495.00,3.09
4494.00,3.09
4493.00,3.08
4492.00,3.08
4491.00,3.08
4490.00,3.08
4489.00,3.08
4488.00,3.08
4487.00,3.08
4486.00,3.08
4485.00,3.08
4484.00,3.08
4483.00,3.08
4482.00,3.08
4481.00,3.08
4480.00,3.07
4479.00,3.07
4478.00,3.07
4477.00,3.06
4476.00,3.06
4475.00,3.06
4474.00,3.05
4473.00,3.05
4472.00,3.04
4471.00,3.04
4470.00,3.03
4469.00,3.02
4468.00,3.02
4467.00,3.01
4466.00,3.00
4465.00,2.99
4464.00,2.98
4463.00,2.97
4462.00,2.96
4461.00,2.95
4460.00,2.94
4459.00,2.93
4458.00,2.92
4457.00,2.91
4456.00,2.89
4455.00,2.88
4454.00,2.86
4453.00,2.85
4452.00,2.83
4451.00,2.82
4450.00,2.80
4449.00,2.79
4448.00,2.77
4447.00,2.75
4446.00,2.74
4445.00,2.72
4444.00,2.71
4443.00,2.69
4442.00,2.67
4441.00,2.66
4440.00,2.64
4439.00,2.62
4438.00,2.61
4437.00,2.59
4436.00,2.57
4435.00,2.56
4434.00,2.54
4433.00,2.53
4432.00,2.51
4431.00,2.50
4430.00,2.49
4429.00,2.48
4428.00,2.47
4427.00,2.46
4426.00,2.45
4425.00,2.44
4424.00,2.43
4423.00,2.43
4422.00,2.42
4421.00,2.42
4420.00,2.41
4419.00,2.41
4418.00,2.40
4417.00,2.40
4416.00,2.39
4415.00,2.39
4414.00,2.39
4413.00,2.39
4412.00,2.39
4411.00,2.39
4410.00,2.40
4409.00,2.40
4408.00,2.40
4407.00,2.41
4406.00,2.41
4405.00,2.42
4404.00,2.42
4403.00,2.43
4402.00,2.44
4401.00,2.44
4400.00,2.45
4399.00,2.46
4398.00,2.47
4397.00,2.48
4396.00,2.48
4395.00,2.49
4394.00,2.50
4393.00,2.51
4392.00,2.52
4391.00,2.53
4390.00,2.54
4389.00,2.55
4388.00,2.56
4387.00,2.57
4386.00,2.58
4385.00,2.59
4384.00,2.60
4383.00,2.61
4382.00,2.61
4381.00,2.62
4380.00,2.62
4379.00,2.63
4378.00,2.63
4377.00,2.63
4376.00,2.64
4375.00,2.64
4374.00,2.63
4373.00,2.63
4372.00,2.63
4371.00,2.62
4370.00,2.61
4369.00,2.61
4368.00,2.60
4367.00,2.60
4366.00,2.59
4365.00,2.58
4364.00,2.57
4363.00,2.56
4362.00,2.55
4361.00,2.54
4360.00,2.54
4359.00,2.53
4358.00,2.52
4357.00,2.51
4356.00,2.51
4355.00,2.50
4354.00,2.50
4353.00,2.49
4352.00,2.49
4351.00,2.49
4350.00,2.49
4349.00,2.49
4348.00,2.49
4347.00,2.49
4346.00,2.50
4345.00,2.51
4344.00,2.51
4343.00,2.52
4342.00,2.53
4341.00,2.55
4340.00,2.56
4339.00,2.57
4338.00,2.58
4337.00,2.60
4336.00,2.61
4335.00,2.63
4334.00,2.64
4333.00,2.66
4332.00,2.67
4331.00,2.69
4330.00,2.70
4329.00,2.72
4328.00,2.73
4327.00,2.75
4326.00,2.76
4325.00,2.77
4324.00,2.79
4323.00,2.80
4322.00,2.81
4321.00,2.82
4320.00,2.84
4319.00,2.85
4318.00,2.85
4317.00,2.86
4316.00,2.86
4315.00,2.87
4314.00,2.87
4313.00,2.87
4312.00,2.87
4311.00,2.87
4310.00,2.87
4309.00,2.87
4308.00,2.87
4307.00,2.86
4306.00,2.86
4305.00,2.86
4304.00,2.85
4303.00,2.85
4302.00,2.84
4301.00,2.83
4300.00,2.83
4299.00,2.82
4298.00,2.81
4297.00,2.80
4296.00,2.79
4295.00,2.78
4294.00,2.77
4293.00,2.76
4292.00,2.76
4291.00,2.75
4290.00,2.75
4289.00,2.74
4288.00,2.74
4287.00,2.74
4286.00,2.74
4285.00,2.74
4284.00,2.74
4283.00,2.74
4282.00,2.74
4281.00,2.74
4280.00,2.74
4279.00,2.74
4278.00,2.75
4277.00,2.75
4276.00,2.75
4275.00,2.76
4274.00,2.77
4273.00,2.77
4272.00,2.78
4271.00,2.79
4270.00,2.80
4269.00,2.81
4268.00,2.81
4267.00,2.82
4266.00,2.83
4265.00,2.84
4264.00,2.84
4263.00,2.85
4262.00,2.85
4261.00,2.86
4260.00,2.86
4259.00,2.87
4258.00,2.87
4257.00,2.87
4256.00,2.88
4255.00,2.88
4254.00,2.89
4253.00,2.89
4252.00,2.90
4251.00,2.90
4250.00,2.90
4249.00,2.91
4248.00,2.91
4247.00,2.91
4246.00,2.92
4245.00,2.92
4244.00,2.92
4243.00,2.93
4242.00,2.93
4241.00,2.94
4240.00,2.95
4239.00,2.95
4238.00,2.96
4237.00,2.97
4236.00,2.97
4235.00,2.98
4234.00,2.98
4233.00,2.99
4232.00,2.99
4231.00,3.00
4230.00,3.00
4229.00,3.00
4228.00,3.00
4227.00,3.01
4226.00,3.01
4225.00,3.01
4224.00,3.01
4223.00,3.01
4222.00,3.01
4221.00,3.01
4220.00,3.01
4219.00,3.00
4218.00,3.00
4217.00,3.00
4216.00,3.00
4215.00,2.99
4214.00,2.99
4213.00,2.98
4212.00,2.98
4211.00,2.97
4210.00,2.97
4209.00,2.96
4208.00,2.96
4207.00,2.96
4206.00,2.96
4205.00,2.95
4204.00,2.95
4203.00,2.95
4202.00,2.96
4201.00,2.96
4200.00,2.96
4199.00,2.96
4198.00,2.97
4197.00,2.97
4196.00,2.97
4195.00,2.98
4194.00,2.98
4193.00,2.99
4192.00,2.99
4191.00,2.99
4190.00,3.00
4189.00,3.00
4188.00,3.00
4187.00,3.00
4186.00,3.00
4185.00,3.00
4184.00,3.00
4183.00,3.00
4182.00,2.99
4181.00,2.99
4180.00,2.98
4179.00,2.98
4178.00,2.97
4177.00,2.97
4176.00,2.96
4175.00,2.96
4174.00,2.95
4173.00,2.94
4172.00,2.94
4171.00,2.93
4170.00,2.92
4169.00,2.92
4168.00,2.91
4167.00,2.90
4166.00,2.89
4165.00,2.88
4164.00,2.88
4163.00,2.87
4162.00,2.86
4161.00,2.86
4160.00,2.85
4159.00,2.85
4158.00,2.84
4157.00,2.84
4156.00,2.84
4155.00,2.84
4154.00,2.84
4153.00,2.84
4152.00,2.84
4151.00,2.84
4150.00,2.84
4149.00,2.84
4148.00,2.84
4147.00,2.84
4146.00,2.84
4145.00,2.84
4144.00,2.84
4143.00,2.85
4142.00,2.85
4141.00,2.85
4140.00,2.85
4139.00,2.86
4138.00,2.86
4137.00,2.86
4136.00,2.86
4135.00,2.87
4134.00,2.87
4133.00,2.88
4132.00,2.88
4131.00,2.89
4130.00,2.90
4129.00,2.90
4128.00,2.91
4127.00,2.92
4126.00,2.92
4125.00,2.93
4124.00,2.94
4123.00,2.94
4122.00,2.95
4121.00,2.95
4120.00,2.95
4119.00,2.95
4118.00,2.95
4117.00,2.95
4116.00,2.95
4115.00,2.95
4114.00,2.95
4113.00,2.95
4112.00,2.95
4111.00,2.95
4110.00,2.95
4109.00,2.95
4108.00,2.95
4107.00,2.95
4106.00,2.94
4105.00,2.94
4104.00,2.93
4103.00,2.92
4102.00,2.91
4101.00,2.90
4100.00,2.89
4099.00,2.88
4098.00,2.87
4097.00,2.87
4096.00,2.86
4095.00,2.86
4094.00,2.86
4093.00,2.86
4092.00,2.86
4091.00,2.86
4090.00,2.86
4089.00,2.86
4088.00,2.86
4087.00,2.86
4086.00,2.86
4085.00,2.86
4084.00,2.87
4083.00,2.87
4082.00,2.88
4081.00,2.88
4080.00,2.89
4079.00,2.90
4078.00,2.91
4077.00,2.92
4076.00,2.93
4075.00,2.94
4074.00,2.95
4073.00,2.96
4072.00,2.97
4071.00,2.98
4070.00,2.99
4069.00,3.00
4068.00,3.00
4067.00,3.01
4066.00,3.02
4065.00,3.02
4064.00,3.03
4063.00,3.03
4062.00,3.04
4061.00,3.04
4060.00,3.04
4059.00,3.04
4058.00,3.04
4057.00,3.04
4056.00,3.03
4055.00,3.03
4054.00,3.02
4053.00,3.02
4052.00,3.01
4051.00,3.01
4050.00,3.01
4049.00,3.00
4048.00,3.00
4047.00,2.99
4046.00,2.98
4045.00,2.98
4044.00,2.97
4043.00,2.97
4042.00,2.96
4041.00,2.96
4040.00,2.96
4039.00,2.96
4038.00,2.96
4037.00,2.95
4036.00,2.95
4035.00,2.94
4034.00,2.94
4033.00,2.93
4032.00,2.92
4031.00,2.92
4030.00,2.92
4029.00,2.91
4028.00,2.91
4027.00,2.90
4026.00,2.89
4025.00,2.89
4024.00,2.88
4023.00,2.88
4022.00,2.88
4021.00,2.88
4020.00,2.89
4019.00,2.90
4018.00,2.91
4017.00,2.92
4016.00,2.94
4015.00,2.95
4014.00,2.97
4013.00,3.00
4012.00,3.02
4011.00,3.05
4010.00,3.09
4009.00,3.13
4008.00,3.17
4007.00,3.22
4006.00,3.26
4005.00,3.32
4004.00,3.37
4003.00,3.43
4002.00,3.49
4001.00,3.56
4000.00,3.63
