创建为新数据集,样品 1059 用户 Administrator 日期 星期二, 七月 30 2019
cm-1,%T
10000.00,2.68
9999.00,2.64
9998.00,2.59
9997.00,2.55
9996.00,2.50
9995.00,2.46
9994.00,2.42
9993.00,2.38
9992.00,2.34
9991.00,2.30
9990.00,2.27
9989.00,2.24
9988.00,2.22
9987.00,2.20
9986.00,2.17
9985.00,2.15
9984.00,2.13
9983.00,2.12
9982.00,2.10
9981.00,2.09
9980.00,2.08
9979.00,2.07
9978.00,2.06
9977.00,2.06
9976.00,2.05
9975.00,2.05
9974.00,2.05
9973.00,2.06
9972.00,2.06
9971.00,2.07
9970.00,2.08
9969.00,2.08
9968.00,2.09
9967.00,2.10
9966.00,2.10
9965.00,2.11
9964.00,2.12
9963.00,2.13
9962.00,2.13
9961.00,2.15
9960.00,2.16
9959.00,2.18
9958.00,2.20
9957.00,2.23
9956.00,2.26
9955.00,2.29
9954.00,2.32
9953.00,2.35
9952.00,2.38
9951.00,2.41
9950.00,2.44
9949.00,2.47
9948.00,2.49
9947.00,2.50
9946.00,2.52
9945.00,2.54
9944.00,2.55
9943.00,2.57
9942.00,2.59
9941.00,2.60
9940.00,2.62
9939.00,2.63
9938.00,2.64
9937.00,2.66
9936.00,2.66
9935.00,2.66
9934.00,2.66
9933.00,2.65
9932.00,2.64
9931.00,2.62
9930.00,2.59
9929.00,2.56
9928.00,2.53
9927.00,2.49
9926.00,2.45
9925.00,2.42
9924.00,2.38
9923.00,2.34
9922.00,2.31
9921.00,2.27
9920.00,2.24
9919.00,2.21
9918.00,2.17
9917.00,2.14
9916.00,2.11
9915.00,2.08
9914.00,2.04
9913.00,2.01
9912.00,1.98
9911.00,1.96
9910.00,1.93
9909.00,1.91
9908.00,1.89
9907.00,1.87
9906.00,1.85
9905.00,1.83
9904.00,1.82
9903.00,1.81
9902.00,1.80
9901.00,1.80
9900.00,1.80
9899.00,1.80
9898.00,1.80
9897.00,1.80
9896.00,1.81
9895.00,1.81
9894.00,1.82
9893.00,1.83
9892.00,1.84
9891.00,1.85
9890.00,1.86
9889.00,1.87
9888.00,1.88
9887.00,1.89
9886.00,1.90
9885.00,1.91
9884.00,1.92
9883.00,1.93
9882.00,1.94
9881.00,1.95
9880.00,1.96
9879.00,1.98
9878.00,1.99
9877.00,2.01
9876.00,2.02
9875.00,2.04
9874.00,2.05
9873.00,2.06
9872.00,2.08
9871.00,2.09
9870.00,2.09
9869.00,2.10
9868.00,2.11
9867.00,2.11
9866.00,2.11
9865.00,2.11
9864.00,2.11
9863.00,2.11
9862.00,2.11
9861.00,2.11
9860.00,2.12
9859.00,2.12
9858.00,2.12
9857.00,2.12
9856.00,2.12
9855.00,2.12
9854.00,2.12
9853.00,2.12
9852.00,2.12
9851.00,2.12
9850.00,2.11
9849.00,2.11
9848.00,2.11
9847.00,2.10
9846.00,2.10
9845.00,2.10
9844.00,2.10
9843.00,2.11
9842.00,2.11
9841.00,2.12
9840.00,2.12
9839.00,2.13
9838.00,2.14
9837.00,2.14
9836.00,2.15
9835.00,2.15
9834.00,2.15
9833.00,2.15
9832.00,2.15
9831.00,2.15
9830.00,2.15
9829.00,2.14
9828.00,2.14
9827.00,2.14
9826.00,2.13
9825.00,2.13
9824.00,2.13
9823.00,2.13
9822.00,2.12
9821.00,2.12
9820.00,2.11
9819.00,2.11
9818.00,2.10
9817.00,2.09
9816.00,2.08
9815.00,2.07
9814.00,2.06
9813.00,2.05
9812.00,2.03
9811.00,2.02
9810.00,2.01
9809.00,2.00
9808.00,1.99
9807.00,1.99
9806.00,1.98
9805.00,1.97
9804.00,1.96
9803.00,1.94
9802.00,1.93
9801.00,1.92
9800.00,1.90
9799.00,1.89
9798.00,1.87
9797.00,1.86
9796.00,1.84
9795.00,1.83
9794.00,1.82
9793.00,1.81
9792.00,1.80
9791.00,1.79
9790.00,1.78
9789.00,1.77
9788.00,1.76
9787.00,1.76
9786.00,1.75
9785.00,1.74
9784.00,1.74
9783.00,1.74
9782.00,1.73
9781.00,1.73
9780.00,1.74
9779.00,1.74
9778.00,1.75
9777.00,1.76
9776.00,1.77
9775.00,1.79
9774.00,1.80
9773.00,1.82
9772.00,1.83
9771.00,1.85
9770.00,1.86
9769.00,1.87
9768.00,1.88
9767.00,1.89
9766.00,1.90
9765.00,1.91
9764.00,1.92
9763.00,1.92
9762.00,1.92
9761.00,1.93
9760.00,1.92
9759.00,1.92
9758.00,1.91
9757.00,1.91
9756.00,1.90
9755.00,1.89
9754.00,1.87
9753.00,1.86
9752.00,1.84
9751.00,1.82
9750.00,1.81
9749.00,1.79
9748.00,1.77
9747.00,1.76
9746.00,1.74
9745.00,1.72
9744.00,1.71
9743.00,1.70
9742.00,1.69
9741.00,1.69
9740.00,1.69
9739.00,1.68
9738.00,1.69
9737.00,1.69
9736.00,1.69
9735.00,1.70
9734.00,1.72
9733.00,1.73
9732.00,1.75
9731.00,1.77
9730.00,1.79
9729.00,1.81
9728.00,1.84
9727.00,1.86
9726.00,1.89
9725.00,1.91
9724.00,1.93
9723.00,1.95
9722.00,1.97
9721.00,1.99
9720.00,2.01
9719.00,2.03
9718.00,2.05
9717.00,2.07
9716.00,2.09
9715.00,2.11
9714.00,2.12
9713.00,2.14
9712.00,2.15
9711.00,2.17
9710.00,2.18
9709.00,2.19
9708.00,2.21
9707.00,2.22
9706.00,2.22
9705.00,2.23
9704.00,2.23
9703.00,2.24
9702.00,2.24
9701.00,2.24
9700.00,2.24
9699.00,2.24
9698.00,2.24
9697.00,2.24
9696.00,2.24
9695.00,2.24
9694.00,2.24
9693.00,2.23
9692.00,2.23
9691.00,2.23
9690.00,2.22
9689.00,2.21
9688.00,2.20
9687.00,2.19
9686.00,2.18
9685.00,2.17
9684.00,2.15
9683.00,2.13
9682.00,2.11
9681.00,2.09
9680.00,2.08
9679.00,2.06
9678.00,2.04
9677.00,2.03
9676.00,2.02
9675.00,2.02
9674.00,2.01
9673.00,2.01
9672.00,2.01
9671.00,2.01
9670.00,2.01
9669.00,2.02
9668.00,2.02
9667.00,2.02
9666.00,2.02
9665.00,2.02
9664.00,2.02
9663.00,2.02
9662.00,2.02
9661.00,2.02
9660.00,2.02
9659.00,2.02
9658.00,2.02
9657.00,2.03
9656.00,2.04
9655.00,2.05
9654.00,2.06
9653.00,2.07
9652.00,2.09
9651.00,2.10
9650.00,2.10
9649.00,2.11
9648.00,2.11
9647.00,2.11
9646.00,2.11
9645.00,2.11
9644.00,2.10
9643.00,2.09
9642.00,2.08
9641.00,2.07
9640.00,2.06
9639.00,2.05
9638.00,2.04
9637.00,2.04
9636.00,2.04
9635.00,2.04
9634.00,2.04
9633.00,2.04
9632.00,2.05
9631.00,2.05
9630.00,2.05
9629.00,2.05
9628.00,2.04
9627.00,2.04
9626.00,2.03
9625.00,2.02
9624.00,2.01
9623.00,2.00
9622.00,1.99
9621.00,1.99
9620.00,1.99
9619.00,1.99
9618.00,1.99
9617.00,2.00
9616.00,2.01
9615.00,2.02
9614.00,2.04
9613.00,2.05
9612.00,2.07
9611.00,2.09
9610.00,2.10
9609.00,2.12
9608.00,2.13
9607.00,2.14
9606.00,2.14
9605.00,2.15
9604.00,2.15
9603.00,2.15
9602.00,2.16
9601.00,2.16
9600.00,2.16
9599.00,2.16
9598.00,2.16
9597.00,2.16
9596.00,2.16
9595.00,2.16
9594.00,2.15
9593.00,2.14
9592.00,2.12
9591.00,2.10
9590.00,2.08
9589.00,2.05
9588.00,2.02
9587.00,1.99
9586.00,1.96
9585.00,1.92
9584.00,1.89
9583.00,1.85
9582.00,1.82
9581.00,1.78
9580.00,1.75
9579.00,1.72
9578.00,1.69
9577.00,1.66
9576.00,1.63
9575.00,1.60
9574.00,1.57
9573.00,1.55
9572.00,1.53
9571.00,1.51
9570.00,1.49
9569.00,1.48
9568.00,1.47
9567.00,1.46
9566.00,1.46
9565.00,1.46
9564.00,1.47
9563.00,1.47
9562.00,1.48
9561.00,1.50
9560.00,1.51
9559.00,1.52
9558.00,1.53
9557.00,1.54
9556.00,1.55
9555.00,1.56
9554.00,1.56
9553.00,1.57
9552.00,1.58
9551.00,1.59
9550.00,1.60
9549.00,1.61
9548.00,1.62
9547.00,1.63
9546.00,1.64
9545.00,1.65
9544.00,1.65
9543.00,1.66
9542.00,1.66
9541.00,1.66
9540.00,1.66
9539.00,1.66
9538.00,1.66
9537.00,1.66
9536.00,1.66
9535.00,1.66
9534.00,1.65
9533.00,1.65
9532.00,1.65
9531.00,1.65
9530.00,1.65
9529.00,1.65
9528.00,1.66
9527.00,1.66
9526.00,1.67
9525.00,1.68
9524.00,1.69
9523.00,1.70
9522.00,1.70
9521.00,1.71
9520.00,1.71
9519.00,1.72
9518.00,1.72
9517.00,1.73
9516.00,1.73
9515.00,1.73
9514.00,1.74
9513.00,1.74
9512.00,1.74
9511.00,1.75
9510.00,1.76
9509.00,1.77
9508.00,1.78
9507.00,1.79
9506.00,1.80
9505.00,1.82
9504.00,1.83
9503.00,1.85
9502.00,1.87
9501.00,1.88
9500.00,1.90
9499.00,1.92
9498.00,1.93
9497.00,1.95
9496.00,1.96
9495.00,1.98
9494.00,2.00
9493.00,2.02
9492.00,2.04
9491.00,2.07
9490.00,2.09
9489.00,2.11
9488.00,2.13
9487.00,2.15
9486.00,2.16
9485.00,2.18
9484.00,2.19
9483.00,2.20
9482.00,2.21
9481.00,2.22
9480.00,2.23
9479.00,2.23
9478.00,2.23
9477.00,2.24
9476.00,2.24
9475.00,2.23
9474.00,2.23
9473.00,2.23
9472.00,2.23
9471.00,2.23
9470.00,2.22
9469.00,2.22
9468.00,2.21
9467.00,2.21
9466.00,2.20
9465.00,2.19
9464.00,2.18
9463.00,2.17
9462.00,2.17
9461.00,2.16
9460.00,2.16
9459.00,2.15
9458.00,2.14
9457.00,2.14
9456.00,2.13
9455.00,2.13
9454.00,2.12
9453.00,2.11
9452.00,2.10
9451.00,2.08
9450.00,2.07
9449.00,2.06
9448.00,2.05
9447.00,2.04
9446.00,2.02
9445.00,2.01
9444.00,2.00
9443.00,1.99
9442.00,1.97
9441.00,1.96
9440.00,1.95
9439.00,1.94
9438.00,1.92
9437.00,1.91
9436.00,1.89
9435.00,1.87
9434.00,1.86
9433.00,1.85
9432.00,1.83
9431.00,1.82
9430.00,1.82
9429.00,1.81
9428.00,1.81
9427.00,1.80
9426.00,1.81
9425.00,1.81
9424.00,1.81
9423.00,1.81
9422.00,1.82
9421.00,1.82
9420.00,1.82
9419.00,1.82
9418.00,1.82
9417.00,1.82
9416.00,1.81
9415.00,1.81
9414.00,1.81
9413.00,1.82
9412.00,1.82
9411.00,1.82
9410.00,1.83
9409.00,1.83
9408.00,1.83
9407.00,1.84
9406.00,1.84
9405.00,1.84
9404.00,1.84
9403.00,1.84
9402.00,1.83
9401.00,1.83
9400.00,1.82
9399.00,1.82
9398.00,1.81
9397.00,1.81
9396.00,1.80
9395.00,1.80
9394.00,1.80
9393.00,1.80
9392.00,1.81
9391.00,1.81
9390.00,1.81
9389.00,1.81
9388.00,1.81
9387.00,1.82
9386.00,1.82
9385.00,1.82
9384.00,1.82
9383.00,1.82
9382.00,1.82
9381.00,1.82
9380.00,1.82
9379.00,1.82
9378.00,1.82
9377.00,1.82
9376.00,1.82
9375.00,1.82
9374.00,1.82
9373.00,1.82
9372.00,1.82
9371.00,1.82
9370.00,1.81
9369.00,1.81
9368.00,1.81
9367.00,1.80
9366.00,1.80
9365.00,1.80
9364.00,1.79
9363.00,1.79
9362.00,1.79
9361.00,1.79
9360.00,1.80
9359.00,1.80
9358.00,1.81
9357.00,1.81
9356.00,1.82
9355.00,1.83
9354.00,1.84
9353.00,1.85
9352.00,1.86
9351.00,1.87
9350.00,1.88
9349.00,1.90
9348.00,1.92
9347.00,1.93
9346.00,1.95
9345.00,1.97
9344.00,1.98
9343.00,2.00
9342.00,2.01
9341.00,2.03
9340.00,2.04
9339.00,2.05
9338.00,2.05
9337.00,2.06
9336.00,2.07
9335.00,2.07
9334.00,2.07
9333.00,2.07
9332.00,2.08
9331.00,2.07
9330.00,2.07
9329.00,2.07
9328.00,2.06
9327.00,2.05
9326.00,2.04
9325.00,2.03
9324.00,2.02
9323.00,2.01
9322.00,2.00
9321.00,1.99
9320.00,1.97
9319.00,1.96
9318.00,1.95
9317.00,1.94
9316.00,1.93
9315.00,1.93
9314.00,1.93
9313.00,1.93
9312.00,1.93
9311.00,1.93
9310.00,1.93
9309.00,1.94
9308.00,1.94
9307.00,1.94
9306.00,1.94
9305.00,1.94
9304.00,1.94
9303.00,1.94
9302.00,1.95
9301.00,1.95
9300.00,1.95
9299.00,1.95
9298.00,1.95
9297.00,1.96
9296.00,1.96
9295.00,1.96
9294.00,1.97
9293.00,1.97
9292.00,1.98
9291.00,1.98
9290.00,1.98
9289.00,1.98
9288.00,1.98
9287.00,1.98
9286.00,1.98
9285.00,1.98
9284.00,1.97
9283.00,1.96
9282.00,1.96
9281.00,1.95
9280.00,1.94
9279.00,1.94
9278.00,1.93
9277.00,1.92
9276.00,1.91
9275.00,1.90
9274.00,1.89
9273.00,1.88
9272.00,1.87
9271.00,1.86
9270.00,1.85
9269.00,1.84
9268.00,1.82
9267.00,1.80
9266.00,1.78
9265.00,1.76
9264.00,1.74
9263.00,1.71
9262.00,1.69
9261.00,1.67
9260.00,1.65
9259.00,1.63
9258.00,1.62
9257.00,1.60
9256.00,1.59
9255.00,1.58
9254.00,1.57
9253.00,1.56
9252.00,1.56
9251.00,1.56
9250.00,1.56
9249.00,1.56
9248.00,1.56
9247.00,1.57
9246.00,1.57
9245.00,1.58
9244.00,1.59
9243.00,1.60
9242.00,1.62
9241.00,1.64
9240.00,1.66
9239.00,1.68
9238.00,1.71
9237.00,1.73
9236.00,1.75
9235.00,1.78
9234.00,1.80
9233.00,1.82
9232.00,1.84
9231.00,1.86
9230.00,1.88
9229.00,1.89
9228.00,1.91
9227.00,1.92
9226.00,1.93
9225.00,1.93
9224.00,1.94
9223.00,1.94
9222.00,1.93
9221.00,1.93
9220.00,1.92
9219.00,1.91
9218.00,1.90
9217.00,1.88
9216.00,1.87
9215.00,1.85
9214.00,1.83
9213.00,1.80
9212.00,1.78
9211.00,1.75
9210.00,1.73
9209.00,1.70
9208.00,1.68
9207.00,1.65
9206.00,1.62
9205.00,1.59
9204.00,1.56
9203.00,1.54
9202.00,1.51
9201.00,1.48
9200.00,1.46
9199.00,1.43
9198.00,1.42
9197.00,1.40
9196.00,1.39
9195.00,1.38
9194.00,1.37
9193.00,1.37
9192.00,1.37
9191.00,1.37
9190.00,1.37
9189.00,1.38
9188.00,1.38
9187.00,1.39
9186.00,1.40
9185.00,1.41
9184.00,1.42
9183.00,1.43
9182.00,1.45
9181.00,1.47
9180.00,1.49
9179.00,1.51
9178.00,1.53
9177.00,1.56
9176.00,1.58
9175.00,1.61
9174.00,1.63
9173.00,1.65
9172.00,1.67
9171.00,1.69
9170.00,1.70
9169.00,1.71
9168.00,1.72
9167.00,1.73
9166.00,1.74
9165.00,1.75
9164.00,1.75
9163.00,1.76
9162.00,1.76
9161.00,1.77
9160.00,1.77
9159.00,1.77
9158.00,1.77
9157.00,1.77
9156.00,1.77
9155.00,1.76
9154.00,1.76
9153.00,1.76
9152.00,1.75
9151.00,1.75
9150.00,1.75
9149.00,1.75
9148.00,1.75
9147.00,1.75
9146.00,1.75
9145.00,1.76
9144.00,1.76
9143.00,1.77
9142.00,1.78
9141.00,1.79
9140.00,1.80
9139.00,1.82
9138.00,1.83
9137.00,1.84
9136.00,1.85
9135.00,1.86
9134.00,1.88
9133.00,1.89
9132.00,1.90
9131.00,1.91
9130.00,1.92
9129.00,1.93
9128.00,1.94
9127.00,1.95
9126.00,1.96
9125.00,1.97
9124.00,1.98
9123.00,1.99
9122.00,1.99
9121.00,2.00
9120.00,2.00
9119.00,2.00
9118.00,2.00
9117.00,2.00
9116.00,2.00
9115.00,1.99
9114.00,1.99
9113.00,1.98
9112.00,1.97
9111.00,1.96
9110.00,1.95
9109.00,1.94
9108.00,1.93
9107.00,1.92
9106.00,1.90
9105.00,1.89
9104.00,1.88
9103.00,1.86
9102.00,1.85
9101.00,1.83
9100.00,1.82
9099.00,1.80
9098.00,1.79
9097.00,1.77
9096.00,1.75
9095.00,1.74
9094.00,1.72
9093.00,1.71
9092.00,1.70
9091.00,1.69
9090.00,1.69
9089.00,1.68
9088.00,1.68
9087.00,1.69
9086.00,1.69
9085.00,1.70
9084.00,1.72
9083.00,1.73
9082.00,1.75
9081.00,1.77
9080.00,1.80
9079.00,1.83
9078.00,1.85
9077.00,1.88
9076.00,1.91
9075.00,1.94
9074.00,1.98
9073.00,2.01
9072.00,2.04
9071.00,2.07
9070.00,2.10
9069.00,2.13
9068.00,2.16
9067.00,2.20
9066.00,2.23
9065.00,2.26
9064.00,2.28
9063.00,2.31
9062.00,2.33
9061.00,2.35
9060.00,2.36
9059.00,2.37
9058.00,2.38
9057.00,2.38
9056.00,2.38
9055.00,2.38
9054.00,2.37
9053.00,2.35
9052.00,2.34
9051.00,2.32
9050.00,2.30
9049.00,2.29
9048.00,2.27
9047.00,2.25
9046.00,2.23
9045.00,2.21
9044.00,2.19
9043.00,2.18
9042.00,2.16
9041.00,2.14
9040.00,2.12
9039.00,2.10
9038.00,2.08
9037.00,2.06
9036.00,2.04
9035.00,2.02
9034.00,2.00
9033.00,1.99
9032.00,1.97
9031.00,1.97
9030.00,1.96
9029.00,1.95
9028.00,1.95
9027.00,1.95
9026.00,1.96
9025.00,1.96
9024.00,1.97
9023.00,1.97
9022.00,1.98
9021.00,1.99
9020.00,2.00
9019.00,2.00
9018.00,2.01
9017.00,2.01
9016.00,2.02
9015.00,2.02
9014.00,2.03
9013.00,2.04
9012.00,2.04
9011.00,2.05
9010.00,2.05
9009.00,2.06
9008.00,2.06
9007.00,2.07
9006.00,2.07
9005.00,2.07
9004.00,2.07
9003.00,2.07
9002.00,2.06
9001.00,2.06
9000.00,2.06
8999.00,2.05
8998.00,2.04
8997.00,2.03
8996.00,2.02
8995.00,2.01
8994.00,1.99
8993.00,1.98
8992.00,1.97
8991.00,1.95
8990.00,1.94
8989.00,1.93
8988.00,1.92
8987.00,1.91
8986.00,1.90
8985.00,1.89
8984.00,1.88
8983.00,1.87
8982.00,1.86
8981.00,1.86
8980.00,1.85
8979.00,1.84
8978.00,1.83
8977.00,1.83
8976.00,1.82
8975.00,1.82
8974.00,1.81
8973.00,1.81
8972.00,1.81
8971.00,1.81
8970.00,1.81
8969.00,1.81
8968.00,1.82
8967.00,1.83
8966.00,1.83
8965.00,1.84
8964.00,1.84
8963.00,1.85
8962.00,1.85
8961.00,1.85
8960.00,1.84
8959.00,1.84
8958.00,1.84
8957.00,1.83
8956.00,1.83
8955.00,1.83
8954.00,1.83
8953.00,1.84
8952.00,1.85
8951.00,1.86
8950.00,1.87
8949.00,1.89
8948.00,1.90
8947.00,1.91
8946.00,1.93
8945.00,1.94
8944.00,1.95
8943.00,1.96
8942.00,1.97
8941.00,1.98
8940.00,1.99
8939.00,2.00
8938.00,2.01
8937.00,2.02
8936.00,2.04
8935.00,2.06
8934.00,2.08
8933.00,2.10
8932.00,2.13
8931.00,2.15
8930.00,2.18
8929.00,2.20
8928.00,2.22
8927.00,2.24
8926.00,2.26
8925.00,2.27
8924.00,2.28
8923.00,2.28
8922.00,2.29
8921.00,2.29
8920.00,2.30
8919.00,2.30
8918.00,2.30
8917.00,2.30
8916.00,2.31
8915.00,2.31
8914.00,2.31
8913.00,2.31
8912.00,2.32
8911.00,2.32
8910.00,2.31
8909.00,2.31
8908.00,2.30
8907.00,2.29
8906.00,2.28
8905.00,2.27
8904.00,2.25
8903.00,2.24
8902.00,2.22
8901.00,2.20
8900.00,2.19
8899.00,2.17
8898.00,2.16
8897.00,2.15
8896.00,2.13
8895.00,2.12
8894.00,2.11
8893.00,2.10
8892.00,2.10
8891.00,2.09
8890.00,2.08
8889.00,2.08
8888.00,2.07
8887.00,2.07
8886.00,2.06
8885.00,2.06
8884.00,2.06
8883.00,2.06
8882.00,2.05
8881.00,2.05
8880.00,2.05
8879.00,2.05
8878.00,2.05
8877.00,2.05
8876.00,2.05
8875.00,2.05
8874.00,2.04
8873.00,2.04
8872.00,2.04
8871.00,2.04
8870.00,2.04
8869.00,2.03
8868.00,2.03
8867.00,2.02
8866.00,2.01
8865.00,2.00
8864.00,1.99
8863.00,1.98
8862.00,1.96
8861.00,1.95
8860.00,1.93
8859.00,1.91
8858.00,1.89
8857.00,1.87
8856.00,1.85
8855.00,1.83
8854.00,1.81
8853.00,1.80
8852.00,1.78
8851.00,1.77
8850.00,1.76
8849.00,1.74
8848.00,1.73
8847.00,1.72
8846.00,1.71
8845.00,1.70
8844.00,1.69
8843.00,1.68
8842.00,1.66
8841.00,1.65
8840.00,1.65
8839.00,1.64
8838.00,1.63
8837.00,1.63
8836.00,1.63
8835.00,1.63
8834.00,1.63
8833.00,1.63
8832.00,1.63
8831.00,1.64
8830.00,1.65
8829.00,1.65
8828.00,1.66
8827.00,1.67
8826.00,1.67
8825.00,1.68
8824.00,1.69
8823.00,1.69
8822.00,1.70
8821.00,1.70
8820.00,1.71
8819.00,1.71
8818.00,1.72
8817.00,1.72
8816.00,1.72
8815.00,1.73
8814.00,1.73
8813.00,1.73
8812.00,1.74
8811.00,1.74
8810.00,1.74
8809.00,1.74
8808.00,1.74
8807.00,1.74
8806.00,1.74
8805.00,1.73
8804.00,1.73
8803.00,1.73
8802.00,1.72
8801.00,1.72
8800.00,1.71
8799.00,1.70
8798.00,1.70
8797.00,1.69
8796.00,1.69
8795.00,1.68
8794.00,1.68
8793.00,1.68
8792.00,1.68
8791.00,1.68
8790.00,1.69
8789.00,1.69
8788.00,1.70
8787.00,1.71
8786.00,1.73
8785.00,1.74
8784.00,1.75
8783.00,1.77
8782.00,1.79
8781.00,1.80
8780.00,1.82
8779.00,1.84
8778.00,1.86
8777.00,1.87
8776.00,1.90
8775.00,1.92
8774.00,1.94
8773.00,1.96
8772.00,1.99
8771.00,2.01
8770.00,2.03
8769.00,2.06
8768.00,2.08
8767.00,2.10
8766.00,2.13
8765.00,2.15
8764.00,2.16
8763.00,2.18
8762.00,2.19
8761.00,2.19
8760.00,2.20
8759.00,2.20
8758.00,2.20
8757.00,2.20
8756.00,2.20
8755.00,2.20
8754.00,2.20
8753.00,2.19
8752.00,2.19
8751.00,2.19
8750.00,2.18
8749.00,2.17
8748.00,2.16
8747.00,2.15
8746.00,2.13
8745.00,2.12
8744.00,2.10
8743.00,2.08
8742.00,2.06
8741.00,2.04
8740.00,2.02
8739.00,2.00
8738.00,1.98
8737.00,1.97
8736.00,1.96
8735.00,1.95
8734.00,1.94
8733.00,1.94
8732.00,1.94
8731.00,1.94
8730.00,1.94
8729.00,1.94
8728.00,1.94
8727.00,1.94
8726.00,1.95
8725.00,1.95
8724.00,1.95
8723.00,1.96
8722.00,1.97
8721.00,1.98
8720.00,1.99
8719.00,2.00
8718.00,2.02
8717.00,2.03
8716.00,2.05
8715.00,2.07
8714.00,2.08
8713.00,2.10
8712.00,2.11
8711.00,2.12
8710.00,2.14
8709.00,2.15
8708.00,2.15
8707.00,2.16
8706.00,2.16
8705.00,2.16
8704.00,2.16
8703.00,2.15
8702.00,2.15
8701.00,2.14
8700.00,2.14
8699.00,2.13
8698.00,2.12
8697.00,2.12
8696.00,2.11
8695.00,2.10
8694.00,2.09
8693.00,2.09
8692.00,2.08
8691.00,2.07
8690.00,2.06
8689.00,2.05
8688.00,2.04
8687.00,2.03
8686.00,2.02
8685.00,2.01
8684.00,2.00
8683.00,2.00
8682.00,1.99
8681.00,1.99
8680.00,1.98
8679.00,1.98
8678.00,1.98
8677.00,1.98
8676.00,1.98
8675.00,1.98
8674.00,1.97
8673.00,1.97
8672.00,1.97
8671.00,1.97
8670.00,1.96
8669.00,1.96
8668.00,1.96
8667.00,1.95
8666.00,1.95
8665.00,1.95
8664.00,1.94
8663.00,1.94
8662.00,1.94
8661.00,1.94
8660.00,1.93
8659.00,1.93
8658.00,1.93
8657.00,1.93
8656.00,1.93
8655.00,1.92
8654.00,1.92
8653.00,1.92
8652.00,1.92
8651.00,1.91
8650.00,1.91
8649.00,1.91
8648.00,1.91
8647.00,1.91
8646.00,1.91
8645.00,1.91
8644.00,1.90
8643.00,1.90
8642.00,1.90
8641.00,1.90
8640.00,1.89
8639.00,1.89
8638.00,1.88
8637.00,1.88
8636.00,1.87
8635.00,1.87
8634.00,1.86
8633.00,1.85
8632.00,1.85
8631.00,1.84
8630.00,1.83
8629.00,1.82
8628.00,1.81
8627.00,1.80
8626.00,1.79
8625.00,1.78
8624.00,1.76
8623.00,1.75
8622.00,1.74
8621.00,1.73
8620.00,1.72
8619.00,1.70
8618.00,1.70
8617.00,1.69
8616.00,1.68
8615.00,1.68
8614.00,1.67
8613.00,1.67
8612.00,1.66
8611.00,1.66
8610.00,1.66
8609.00,1.65
8608.00,1.65
8607.00,1.65
8606.00,1.65
8605.00,1.65
8604.00,1.65
8603.00,1.65
8602.00,1.66
8601.00,1.67
8600.00,1.68
8599.00,1.69
8598.00,1.70
8597.00,1.71
8596.00,1.72
8595.00,1.74
8594.00,1.75
8593.00,1.76
8592.00,1.77
8591.00,1.78
8590.00,1.78
8589.00,1.79
8588.00,1.80
8587.00,1.80
8586.00,1.81
8585.00,1.82
8584.00,1.82
8583.00,1.83
8582.00,1.84
8581.00,1.85
8580.00,1.85
8579.00,1.86
8578.00,1.86
8577.00,1.86
8576.00,1.86
8575.00,1.85
8574.00,1.85
8573.00,1.84
8572.00,1.83
8571.00,1.83
8570.00,1.82
8569.00,1.81
8568.00,1.80
8567.00,1.79
8566.00,1.78
8565.00,1.77
8564.00,1.76
8563.00,1.76
8562.00,1.75
8561.00,1.74
8560.00,1.74
8559.00,1.73
8558.00,1.73
8557.00,1.72
8556.00,1.72
8555.00,1.71
8554.00,1.71
8553.00,1.70
8552.00,1.70
8551.00,1.70
8550.00,1.70
8549.00,1.70
8548.00,1.70
8547.00,1.70
8546.00,1.71
8545.00,1.71
8544.00,1.72
8543.00,1.73
8542.00,1.74
8541.00,1.75
8540.00,1.77
8539.00,1.78
8538.00,1.79
8537.00,1.79
8536.00,1.80
8535.00,1.81
8534.00,1.82
8533.00,1.82
8532.00,1.83
8531.00,1.83
8530.00,1.83
8529.00,1.84
8528.00,1.84
8527.00,1.84
8526.00,1.85
8525.00,1.85
8524.00,1.85
8523.00,1.85
8522.00,1.84
8521.00,1.84
8520.00,1.84
8519.00,1.84
8518.00,1.83
8517.00,1.83
8516.00,1.83
8515.00,1.82
8514.00,1.82
8513.00,1.82
8512.00,1.82
8511.00,1.82
8510.00,1.82
8509.00,1.82
8508.00,1.83
8507.00,1.83
8506.00,1.84
8505.00,1.84
8504.00,1.85
8503.00,1.86
8502.00,1.87
8501.00,1.89
8500.00,1.90
8499.00,1.92
8498.00,1.93
8497.00,1.95
8496.00,1.98
8495.00,2.00
8494.00,2.02
8493.00,2.04
8492.00,2.05
8491.00,2.07
8490.00,2.08
8489.00,2.09
8488.00,2.10
8487.00,2.11
8486.00,2.11
8485.00,2.11
8484.00,2.11
8483.00,2.11
8482.00,2.10
8481.00,2.10
8480.00,2.09
8479.00,2.09
8478.00,2.08
8477.00,2.07
8476.00,2.06
8475.00,2.05
8474.00,2.03
8473.00,2.02
8472.00,2.00
8471.00,1.98
8470.00,1.96
8469.00,1.93
8468.00,1.91
8467.00,1.89
8466.00,1.86
8465.00,1.84
8464.00,1.82
8463.00,1.80
8462.00,1.78
8461.00,1.77
8460.00,1.76
8459.00,1.75
8458.00,1.74
8457.00,1.74
8456.00,1.73
8455.00,1.73
8454.00,1.73
8453.00,1.72
8452.00,1.72
8451.00,1.72
8450.00,1.72
8449.00,1.72
8448.00,1.72
8447.00,1.72
8446.00,1.72
8445.00,1.73
8444.00,1.73
8443.00,1.74
8442.00,1.74
8441.00,1.75
8440.00,1.76
8439.00,1.77
8438.00,1.78
8437.00,1.79
8436.00,1.79
8435.00,1.80
8434.00,1.81
8433.00,1.81
8432.00,1.82
8431.00,1.82
8430.00,1.82
8429.00,1.83
8428.00,1.83
8427.00,1.83
8426.00,1.83
8425.00,1.83
8424.00,1.83
8423.00,1.82
8422.00,1.82
8421.00,1.81
8420.00,1.80
8419.00,1.79
8418.00,1.78
8417.00,1.77
8416.00,1.76
8415.00,1.75
8414.00,1.74
8413.00,1.73
8412.00,1.72
8411.00,1.71
8410.00,1.70
8409.00,1.69
8408.00,1.68
8407.00,1.67
8406.00,1.66
8405.00,1.65
8404.00,1.65
8403.00,1.64
8402.00,1.64
8401.00,1.63
8400.00,1.63
8399.00,1.63
8398.00,1.63
8397.00,1.63
8396.00,1.63
8395.00,1.63
8394.00,1.63
8393.00,1.64
8392.00,1.64
8391.00,1.65
8390.00,1.65
8389.00,1.65
8388.00,1.65
8387.00,1.65
8386.00,1.65
8385.00,1.65
8384.00,1.65
8383.00,1.65
8382.00,1.65
8381.00,1.65
8380.00,1.64
8379.00,1.64
8378.00,1.64
8377.00,1.63
8376.00,1.63
8375.00,1.63
8374.00,1.62
8373.00,1.62
8372.00,1.62
8371.00,1.61
8370.00,1.61
8369.00,1.61
8368.00,1.61
8367.00,1.61
8366.00,1.61
8365.00,1.61
8364.00,1.61
8363.00,1.61
8362.00,1.61
8361.00,1.62
8360.00,1.62
8359.00,1.63
8358.00,1.64
8357.00,1.65
8356.00,1.66
8355.00,1.67
8354.00,1.68
8353.00,1.69
8352.00,1.70
8351.00,1.71
8350.00,1.72
8349.00,1.73
8348.00,1.74
8347.00,1.75
8346.00,1.76
8345.00,1.77
8344.00,1.78
8343.00,1.79
8342.00,1.80
8341.00,1.81
8340.00,1.82
8339.00,1.83
8338.00,1.84
8337.00,1.85
8336.00,1.86
8335.00,1.88
8334.00,1.89
8333.00,1.90
8332.00,1.91
8331.00,1.92
8330.00,1.93
8329.00,1.94
8328.00,1.95
8327.00,1.96
8326.00,1.97
8325.00,1.98
8324.00,1.99
8323.00,2.00
8322.00,2.00
8321.00,2.01
8320.00,2.02
8319.00,2.03
8318.00,2.04
8317.00,2.05
8316.00,2.06
8315.00,2.07
8314.00,2.08
8313.00,2.09
8312.00,2.10
8311.00,2.11
8310.00,2.12
8309.00,2.12
8308.00,2.13
8307.00,2.13
8306.00,2.13
8305.00,2.14
8304.00,2.14
8303.00,2.14
8302.00,2.14
8301.00,2.14
8300.00,2.14
8299.00,2.13
8298.00,2.13
8297.00,2.13
8296.00,2.12
8295.00,2.11
8294.00,2.10
8293.00,2.09
8292.00,2.08
8291.00,2.07
8290.00,2.05
8289.00,2.04
8288.00,2.02
8287.00,2.01
8286.00,1.99
8285.00,1.98
8284.00,1.96
8283.00,1.95
8282.00,1.93
8281.00,1.92
8280.00,1.90
8279.00,1.89
8278.00,1.88
8277.00,1.86
8276.00,1.85
8275.00,1.84
8274.00,1.84
8273.00,1.83
8272.00,1.82
8271.00,1.82
8270.00,1.82
8269.00,1.82
8268.00,1.82
8267.00,1.83
8266.00,1.83
8265.00,1.84
8264.00,1.85
8263.00,1.85
8262.00,1.86
8261.00,1.87
8260.00,1.88
8259.00,1.90
8258.00,1.91
8257.00,1.92
8256.00,1.93
8255.00,1.95
8254.00,1.96
8253.00,1.97
8252.00,1.98
8251.00,1.99
8250.00,2.00
8249.00,2.01
8248.00,2.02
8247.00,2.02
8246.00,2.03
8245.00,2.04
8244.00,2.04
8243.00,2.05
8242.00,2.06
8241.00,2.06
8240.00,2.07
8239.00,2.07
8238.00,2.07
8237.00,2.08
8236.00,2.08
8235.00,2.08
8234.00,2.08
8233.00,2.07
8232.00,2.07
8231.00,2.07
8230.00,2.06
8229.00,2.06
8228.00,2.05
8227.00,2.05
8226.00,2.05
8225.00,2.04
8224.00,2.04
8223.00,2.04
8222.00,2.04
8221.00,2.04
8220.00,2.03
8219.00,2.03
8218.00,2.03
8217.00,2.03
8216.00,2.04
8215.00,2.04
8214.00,2.04
8213.00,2.04
8212.00,2.04
8211.00,2.04
8210.00,2.04
8209.00,2.04
8208.00,2.05
8207.00,2.05
8206.00,2.05
8205.00,2.06
8204.00,2.06
8203.00,2.07
8202.00,2.08
8201.00,2.09
8200.00,2.09
8199.00,2.10
8198.00,2.11
8197.00,2.12
8196.00,2.13
8195.00,2.14
8194.00,2.15
8193.00,2.16
8192.00,2.16
8191.00,2.16
8190.00,2.16
8189.00,2.16
8188.00,2.15
8187.00,2.15
8186.00,2.14
8185.00,2.13
8184.00,2.13
8183.00,2.12
8182.00,2.11
8181.00,2.10
8180.00,2.10
8179.00,2.09
8178.00,2.08
8177.00,2.07
8176.00,2.06
8175.00,2.05
8174.00,2.03
8173.00,2.02
8172.00,2.00
8171.00,1.99
8170.00,1.97
8169.00,1.96
8168.00,1.95
8167.00,1.94
8166.00,1.93
8165.00,1.92
8164.00,1.92
8163.00,1.92
8162.00,1.92
8161.00,1.92
8160.00,1.92
8159.00,1.93
8158.00,1.93
8157.00,1.94
8156.00,1.95
8155.00,1.96
8154.00,1.97
8153.00,1.98
8152.00,1.99
8151.00,2.00
8150.00,2.02
8149.00,2.03
8148.00,2.04
8147.00,2.06
8146.00,2.08
8145.00,2.09
8144.00,2.11
8143.00,2.13
8142.00,2.14
8141.00,2.15
8140.00,2.17
8139.00,2.18
8138.00,2.19
8137.00,2.20
8136.00,2.20
8135.00,2.21
8134.00,2.21
8133.00,2.21
8132.00,2.22
8131.00,2.22
8130.00,2.22
8129.00,2.22
8128.00,2.22
8127.00,2.22
8126.00,2.22
8125.00,2.22
8124.00,2.21
8123.00,2.21
8122.00,2.20
8121.00,2.19
8120.00,2.19
8119.00,2.18
8118.00,2.17
8117.00,2.16
8116.00,2.15
8115.00,2.14
8114.00,2.13
8113.00,2.12
8112.00,2.11
8111.00,2.10
8110.00,2.09
8109.00,2.09
8108.00,2.08
8107.00,2.07
8106.00,2.07
8105.00,2.06
8104.00,2.06
8103.00,2.05
8102.00,2.04
8101.00,2.04
8100.00,2.03
8099.00,2.02
8098.00,2.01
8097.00,2.00
8096.00,1.99
8095.00,1.98
8094.00,1.96
8093.00,1.95
8092.00,1.94
8091.00,1.93
8090.00,1.92
8089.00,1.91
8088.00,1.91
8087.00,1.90
8086.00,1.89
8085.00,1.89
8084.00,1.89
8083.00,1.88
8082.00,1.88
8081.00,1.87
8080.00,1.86
8079.00,1.86
8078.00,1.85
8077.00,1.84
8076.00,1.84
8075.00,1.83
8074.00,1.83
8073.00,1.82
8072.00,1.82
8071.00,1.82
8070.00,1.82
8069.00,1.82
8068.00,1.82
8067.00,1.83
8066.00,1.83
8065.00,1.83
8064.00,1.84
8063.00,1.84
8062.00,1.84
8061.00,1.84
8060.00,1.84
8059.00,1.84
8058.00,1.84
8057.00,1.84
8056.00,1.84
8055.00,1.84
8054.00,1.84
8053.00,1.84
8052.00,1.85
8051.00,1.85
8050.00,1.86
8049.00,1.86
8048.00,1.86
8047.00,1.87
8046.00,1.87
8045.00,1.87
8044.00,1.88
8043.00,1.88
8042.00,1.88
8041.00,1.88
8040.00,1.88
8039.00,1.88
8038.00,1.88
8037.00,1.88
8036.00,1.88
8035.00,1.88
8034.00,1.89
8033.00,1.89
8032.00,1.89
8031.00,1.89
8030.00,1.90
8029.00,1.90
8028.00,1.91
8027.00,1.91
8026.00,1.91
8025.00,1.91
8024.00,1.92
8023.00,1.92
8022.00,1.92
8021.00,1.93
8020.00,1.94
8019.00,1.94
8018.00,1.95
8017.00,1.96
8016.00,1.96
8015.00,1.97
8014.00,1.98
8013.00,1.98
8012.00,1.99
8011.00,2.00
8010.00,2.00
8009.00,2.01
8008.00,2.01
8007.00,2.02
8006.00,2.02
8005.00,2.02
8004.00,2.03
8003.00,2.03
8002.00,2.03
8001.00,2.02
8000.00,2.02
7999.00,2.02
7998.00,2.02
7997.00,2.01
7996.00,2.01
7995.00,2.00
7994.00,1.99
7993.00,1.98
7992.00,1.98
7991.00,1.97
7990.00,1.96
7989.00,1.95
7988.00,1.95
7987.00,1.95
7986.00,1.94
7985.00,1.94
7984.00,1.94
7983.00,1.94
7982.00,1.94
7981.00,1.94
7980.00,1.95
7979.00,1.95
7978.00,1.95
7977.00,1.95
7976.00,1.96
7975.00,1.96
7974.00,1.97
7973.00,1.97
7972.00,1.98
7971.00,1.99
7970.00,1.99
7969.00,2.00
7968.00,2.01
7967.00,2.01
7966.00,2.02
7965.00,2.02
7964.00,2.03
7963.00,2.03
7962.00,2.04
7961.00,2.04
7960.00,2.04
7959.00,2.05
7958.00,2.05
7957.00,2.05
7956.00,2.04
7955.00,2.04
7954.00,2.04
7953.00,2.04
7952.00,2.04
7951.00,2.04
7950.00,2.04
7949.00,2.04
7948.00,2.04
7947.00,2.04
7946.00,2.05
7945.00,2.05
7944.00,2.06
7943.00,2.07
7942.00,2.07
7941.00,2.08
7940.00,2.09
7939.00,2.09
7938.00,2.10
7937.00,2.11
7936.00,2.12
7935.00,2.12
7934.00,2.13
7933.00,2.13
7932.00,2.14
7931.00,2.15
7930.00,2.16
7929.00,2.16
7928.00,2.17
7927.00,2.17
7926.00,2.18
7925.00,2.18
7924.00,2.18
7923.00,2.18
7922.00,2.18
7921.00,2.17
7920.00,2.17
7919.00,2.16
7918.00,2.15
7917.00,2.14
7916.00,2.13
7915.00,2.12
7914.00,2.11
7913.00,2.11
7912.00,2.10
7911.00,2.09
7910.00,2.08
7909.00,2.08
7908.00,2.07
7907.00,2.06
7906.00,2.05
7905.00,2.05
7904.00,2.04
7903.00,2.03
7902.00,2.03
7901.00,2.03
7900.00,2.03
7899.00,2.03
7898.00,2.03
7897.00,2.03
7896.00,2.04
7895.00,2.04
7894.00,2.05
7893.00,2.05
7892.00,2.06
7891.00,2.07
7890.00,2.07
7889.00,2.08
7888.00,2.09
7887.00,2.09
7886.00,2.10
7885.00,2.10
7884.00,2.11
7883.00,2.11
7882.00,2.12
7881.00,2.12
7880.00,2.13
7879.00,2.13
7878.00,2.14
7877.00,2.15
7876.00,2.16
7875.00,2.16
7874.00,2.17
7873.00,2.17
7872.00,2.17
7871.00,2.18
7870.00,2.18
7869.00,2.18
7868.00,2.18
7867.00,2.18
7866.00,2.18
7865.00,2.18
7864.00,2.19
7863.00,2.19
7862.00,2.19
7861.00,2.20
7860.00,2.20
7859.00,2.20
7858.00,2.21
7857.00,2.21
7856.00,2.22
7855.00,2.22
7854.00,2.22
7853.00,2.22
7852.00,2.22
7851.00,2.22
7850.00,2.23
7849.00,2.23
7848.00,2.23
7847.00,2.23
7846.00,2.23
7845.00,2.24
7844.00,2.24
7843.00,2.25
7842.00,2.25
7841.00,2.26
7840.00,2.26
7839.00,2.27
7838.00,2.27
7837.00,2.27
7836.00,2.27
7835.00,2.28
7834.00,2.28
7833.00,2.27
7832.00,2.27
7831.00,2.27
7830.00,2.27
7829.00,2.27
7828.00,2.26
7827.00,2.26
7826.00,2.26
7825.00,2.26
7824.00,2.26
7823.00,2.25
7822.00,2.25
7821.00,2.24
7820.00,2.23
7819.00,2.23
7818.00,2.22
7817.00,2.20
7816.00,2.19
7815.00,2.18
7814.00,2.17
7813.00,2.15
7812.00,2.14
7811.00,2.12
7810.00,2.11
7809.00,2.10
7808.00,2.08
7807.00,2.07
7806.00,2.06
7805.00,2.05
7804.00,2.04
7803.00,2.03
7802.00,2.02
7801.00,2.00
7800.00,1.99
7799.00,1.97
7798.00,1.96
7797.00,1.95
7796.00,1.94
7795.00,1.93
7794.00,1.92
7793.00,1.91
7792.00,1.90
7791.00,1.90
7790.00,1.89
7789.00,1.89
7788.00,1.89
7787.00,1.89
7786.00,1.88
7785.00,1.88
7784.00,1.88
7783.00,1.88
7782.00,1.88
7781.00,1.87
7780.00,1.87
7779.00,1.87
7778.00,1.87
7777.00,1.87
7776.00,1.87
7775.00,1.87
7774.00,1.88
7773.00,1.88
7772.00,1.88
7771.00,1.89
7770.00,1.89
7769.00,1.90
7768.00,1.90
7767.00,1.90
7766.00,1.90
7765.00,1.90
7764.00,1.90
7763.00,1.91
7762.00,1.91
7761.00,1.91
7760.00,1.91
7759.00,1.92
7758.00,1.92
7757.00,1.92
7756.00,1.93
7755.00,1.93
7754.00,1.94
7753.00,1.95
7752.00,1.96
7751.00,1.96
7750.00,1.97
7749.00,1.98
7748.00,1.99
7747.00,2.00
7746.00,2.02
7745.00,2.03
7744.00,2.04
7743.00,2.06
7742.00,2.07
7741.00,2.08
7740.00,2.10
7739.00,2.11
7738.00,2.12
7737.00,2.14
7736.00,2.15
7735.00,2.16
7734.00,2.17
7733.00,2.18
7732.00,2.18
7731.00,2.19
7730.00,2.20
7729.00,2.20
7728.00,2.21
7727.00,2.21
7726.00,2.22
7725.00,2.22
7724.00,2.22
7723.00,2.23
7722.00,2.23
7721.00,2.22
7720.00,2.22
7719.00,2.21
7718.00,2.21
7717.00,2.20
7716.00,2.19
7715.00,2.18
7714.00,2.17
7713.00,2.16
7712.00,2.16
7711.00,2.15
7710.00,2.15
7709.00,2.14
7708.00,2.14
7707.00,2.14
7706.00,2.14
7705.00,2.14
7704.00,2.14
7703.00,2.14
7702.00,2.14
7701.00,2.14
7700.00,2.15
7699.00,2.15
7698.00,2.15
7697.00,2.15
7696.00,2.15
7695.00,2.16
7694.00,2.16
7693.00,2.16
7692.00,2.17
7691.00,2.17
7690.00,2.18
7689.00,2.19
7688.00,2.19
7687.00,2.20
7686.00,2.20
7685.00,2.21
7684.00,2.21
7683.00,2.21
7682.00,2.21
7681.00,2.22
7680.00,2.22
7679.00,2.22
7678.00,2.22
7677.00,2.22
7676.00,2.22
7675.00,2.22
7674.00,2.21
7673.00,2.21
7672.00,2.21
7671.00,2.20
7670.00,2.20
7669.00,2.20
7668.00,2.20
7667.00,2.19
7666.00,2.19
7665.00,2.19
7664.00,2.18
7663.00,2.18
7662.00,2.18
7661.00,2.18
7660.00,2.18
7659.00,2.18
7658.00,2.17
7657.00,2.17
7656.00,2.17
7655.00,2.17
7654.00,2.16
7653.00,2.16
7652.00,2.15
7651.00,2.15
7650.00,2.15
7649.00,2.14
7648.00,2.14
7647.00,2.14
7646.00,2.14
7645.00,2.14
7644.00,2.13
7643.00,2.13
7642.00,2.13
7641.00,2.13
7640.00,2.12
7639.00,2.12
7638.00,2.12
7637.00,2.12
7636.00,2.11
7635.00,2.11
7634.00,2.11
7633.00,2.10
7632.00,2.10
7631.00,2.10
7630.00,2.10
7629.00,2.10
7628.00,2.10
7627.00,2.10
7626.00,2.10
7625.00,2.10
7624.00,2.11
7623.00,2.11
7622.00,2.11
7621.00,2.12
7620.00,2.12
7619.00,2.13
7618.00,2.13
7617.00,2.14
7616.00,2.14
7615.00,2.15
7614.00,2.16
7613.00,2.16
7612.00,2.17
7611.00,2.17
7610.00,2.18
7609.00,2.18
7608.00,2.19
7607.00,2.19
7606.00,2.19
7605.00,2.20
7604.00,2.20
7603.00,2.21
7602.00,2.21
7601.00,2.21
7600.00,2.22
7599.00,2.22
7598.00,2.22
7597.00,2.22
7596.00,2.23
7595.00,2.23
7594.00,2.23
7593.00,2.23
7592.00,2.23
7591.00,2.23
7590.00,2.24
7589.00,2.24
7588.00,2.24
7587.00,2.24
7586.00,2.24
7585.00,2.24
7584.00,2.24
7583.00,2.24
7582.00,2.25
7581.00,2.25
7580.00,2.25
7579.00,2.26
7578.00,2.26
7577.00,2.26
7576.00,2.27
7575.00,2.27
7574.00,2.27
7573.00,2.27
7572.00,2.27
7571.00,2.27
7570.00,2.27
7569.00,2.27
7568.00,2.27
7567.00,2.27
7566.00,2.26
7565.00,2.26
7564.00,2.26
7563.00,2.26
7562.00,2.25
7561.00,2.25
7560.00,2.25
7559.00,2.24
7558.00,2.24
7557.00,2.23
7556.00,2.23
7555.00,2.22
7554.00,2.21
7553.00,2.20
7552.00,2.19
7551.00,2.18
7550.00,2.18
7549.00,2.17
7548.00,2.16
7547.00,2.15
7546.00,2.15
7545.00,2.14
7544.00,2.13
7543.00,2.12
7542.00,2.11
7541.00,2.10
7540.00,2.10
7539.00,2.09
7538.00,2.08
7537.00,2.08
7536.00,2.07
7535.00,2.07
7534.00,2.06
7533.00,2.06
7532.00,2.06
7531.00,2.06
7530.00,2.06
7529.00,2.06
7528.00,2.06
7527.00,2.06
7526.00,2.07
7525.00,2.07
7524.00,2.07
7523.00,2.08
7522.00,2.08
7521.00,2.09
7520.00,2.10
7519.00,2.11
7518.00,2.11
7517.00,2.12
7516.00,2.14
7515.00,2.15
7514.00,2.16
7513.00,2.17
7512.00,2.18
7511.00,2.19
7510.00,2.19
7509.00,2.20
7508.00,2.20
7507.00,2.21
7506.00,2.21
7505.00,2.21
7504.00,2.21
7503.00,2.22
7502.00,2.21
7501.00,2.21
7500.00,2.21
7499.00,2.21
7498.00,2.21
7497.00,2.21
7496.00,2.20
7495.00,2.20
7494.00,2.20
7493.00,2.19
7492.00,2.18
7491.00,2.18
7490.00,2.17
7489.00,2.16
7488.00,2.16
7487.00,2.15
7486.00,2.15
7485.00,2.14
7484.00,2.14
7483.00,2.14
7482.00,2.14
7481.00,2.14
7480.00,2.15
7479.00,2.15
7478.00,2.16
7477.00,2.17
7476.00,2.18
7475.00,2.18
7474.00,2.19
7473.00,2.20
7472.00,2.21
7471.00,2.21
7470.00,2.22
7469.00,2.23
7468.00,2.23
7467.00,2.24
7466.00,2.25
7465.00,2.25
7464.00,2.26
7463.00,2.27
7462.00,2.27
7461.00,2.28
7460.00,2.28
7459.00,2.29
7458.00,2.29
7457.00,2.29
7456.00,2.29
7455.00,2.29
7454.00,2.28
7453.00,2.28
7452.00,2.27
7451.00,2.27
7450.00,2.26
7449.00,2.25
7448.00,2.24
7447.00,2.23
7446.00,2.23
7445.00,2.22
7444.00,2.21
7443.00,2.21
7442.00,2.21
7441.00,2.20
7440.00,2.20
7439.00,2.20
7438.00,2.19
7437.00,2.19
7436.00,2.19
7435.00,2.18
7434.00,2.18
7433.00,2.18
7432.00,2.18
7431.00,2.18
7430.00,2.18
7429.00,2.18
7428.00,2.19
7427.00,2.19
7426.00,2.20
7425.00,2.20
7424.00,2.21
7423.00,2.22
7422.00,2.22
7421.00,2.23
7420.00,2.24
7419.00,2.25
7418.00,2.26
7417.00,2.26
7416.00,2.27
7415.00,2.28
7414.00,2.29
7413.00,2.30
7412.00,2.30
7411.00,2.31
7410.00,2.32
7409.00,2.33
7408.00,2.34
7407.00,2.35
7406.00,2.35
7405.00,2.36
7404.00,2.37
7403.00,2.37
7402.00,2.37
7401.00,2.38
7400.00,2.38
7399.00,2.38
7398.00,2.38
7397.00,2.38
7396.00,2.38
7395.00,2.38
7394.00,2.38
7393.00,2.38
7392.00,2.38
7391.00,2.37
7390.00,2.37
7389.00,2.37
7388.00,2.36
7387.00,2.35
7386.00,2.34
7385.00,2.33
7384.00,2.32
7383.00,2.31
7382.00,2.30
7381.00,2.29
7380.00,2.28
7379.00,2.27
7378.00,2.27
7377.00,2.26
7376.00,2.25
7375.00,2.25
7374.00,2.25
7373.00,2.25
7372.00,2.25
7371.00,2.25
7370.00,2.25
7369.00,2.25
7368.00,2.24
7367.00,2.24
7366.00,2.24
7365.00,2.25
7364.00,2.25
7363.00,2.25
7362.00,2.25
7361.00,2.26
7360.00,2.26
7359.00,2.27
7358.00,2.27
7357.00,2.28
7356.00,2.29
7355.00,2.29
7354.00,2.30
7353.00,2.30
7352.00,2.30
7351.00,2.30
7350.00,2.30
7349.00,2.30
7348.00,2.29
7347.00,2.28
7346.00,2.28
7345.00,2.27
7344.00,2.26
7343.00,2.25
7342.00,2.24
7341.00,2.23
7340.00,2.22
7339.00,2.21
7338.00,2.21
7337.00,2.20
7336.00,2.19
7335.00,2.18
7334.00,2.17
7333.00,2.16
7332.00,2.15
7331.00,2.14
7330.00,2.13
7329.00,2.13
7328.00,2.12
7327.00,2.12
7326.00,2.12
7325.00,2.12
7324.00,2.12
7323.00,2.12
7322.00,2.13
7321.00,2.14
7320.00,2.14
7319.00,2.15
7318.00,2.16
7317.00,2.17
7316.00,2.18
7315.00,2.19
7314.00,2.19
7313.00,2.20
7312.00,2.21
7311.00,2.21
7310.00,2.22
7309.00,2.23
7308.00,2.23
7307.00,2.24
7306.00,2.25
7305.00,2.26
7304.00,2.26
7303.00,2.27
7302.00,2.28
7301.00,2.28
7300.00,2.29
7299.00,2.29
7298.00,2.29
7297.00,2.29
7296.00,2.29
7295.00,2.29
7294.00,2.29
7293.00,2.28
7292.00,2.28
7291.00,2.27
7290.00,2.27
7289.00,2.26
7288.00,2.26
7287.00,2.25
7286.00,2.25
7285.00,2.25
7284.00,2.25
7283.00,2.25
7282.00,2.25
7281.00,2.24
7280.00,2.24
7279.00,2.24
7278.00,2.24
7277.00,2.23
7276.00,2.23
7275.00,2.22
7274.00,2.22
7273.00,2.21
7272.00,2.20
7271.00,2.20
7270.00,2.19
7269.00,2.19
7268.00,2.19
7267.00,2.19
7266.00,2.19
7265.00,2.19
7264.00,2.20
7263.00,2.20
7262.00,2.20
7261.00,2.21
7260.00,2.21
7259.00,2.21
7258.00,2.21
7257.00,2.20
7256.00,2.20
7255.00,2.20
7254.00,2.19
7253.00,2.19
7252.00,2.19
7251.00,2.19
7250.00,2.19
7249.00,2.19
7248.00,2.19
7247.00,2.19
7246.00,2.19
7245.00,2.19
7244.00,2.20
7243.00,2.20
7242.00,2.20
7241.00,2.20
7240.00,2.21
7239.00,2.21
7238.00,2.21
7237.00,2.20
7236.00,2.20
7235.00,2.20
7234.00,2.20
7233.00,2.20
7232.00,2.20
7231.00,2.20
7230.00,2.20
7229.00,2.21
7228.00,2.21
7227.00,2.21
7226.00,2.21
7225.00,2.21
7224.00,2.21
7223.00,2.21
7222.00,2.21
7221.00,2.21
7220.00,2.20
7219.00,2.20
7218.00,2.19
7217.00,2.19
7216.00,2.18
7215.00,2.17
7214.00,2.16
7213.00,2.15
7212.00,2.14
7211.00,2.13
7210.00,2.12
7209.00,2.11
7208.00,2.10
7207.00,2.08
7206.00,2.07
7205.00,2.06
7204.00,2.05
7203.00,2.05
7202.00,2.04
7201.00,2.03
7200.00,2.02
7199.00,2.02
7198.00,2.01
7197.00,2.01
7196.00,2.00
7195.00,2.00
7194.00,1.99
7193.00,1.99
7192.00,1.99
7191.00,1.99
7190.00,1.99
7189.00,1.99
7188.00,1.99
7187.00,1.99
7186.00,1.99
7185.00,1.99
7184.00,1.99
7183.00,1.99
7182.00,1.99
7181.00,1.99
7180.00,1.99
7179.00,1.99
7178.00,1.98
7177.00,1.98
7176.00,1.97
7175.00,1.97
7174.00,1.96
7173.00,1.95
7172.00,1.95
7171.00,1.94
7170.00,1.93
7169.00,1.93
7168.00,1.92
7167.00,1.91
7166.00,1.90
7165.00,1.89
7164.00,1.88
7163.00,1.87
7162.00,1.86
7161.00,1.85
7160.00,1.84
7159.00,1.84
7158.00,1.83
7157.00,1.82
7156.00,1.82
7155.00,1.81
7154.00,1.81
7153.00,1.81
7152.00,1.81
7151.00,1.80
7150.00,1.80
7149.00,1.80
7148.00,1.79
7147.00,1.79
7146.00,1.78
7145.00,1.78
7144.00,1.77
7143.00,1.76
7142.00,1.75
7141.00,1.75
7140.00,1.74
7139.00,1.73
7138.00,1.72
7137.00,1.71
7136.00,1.70
7135.00,1.69
7134.00,1.68
7133.00,1.67
7132.00,1.66
7131.00,1.65
7130.00,1.64
7129.00,1.63
7128.00,1.62
7127.00,1.61
7126.00,1.60
7125.00,1.59
7124.00,1.59
7123.00,1.58
7122.00,1.58
7121.00,1.58
7120.00,1.57
7119.00,1.57
7118.00,1.57
7117.00,1.57
7116.00,1.57
7115.00,1.58
7114.00,1.58
7113.00,1.58
7112.00,1.59
7111.00,1.59
7110.00,1.60
7109.00,1.61
7108.00,1.61
7107.00,1.62
7106.00,1.62
7105.00,1.63
7104.00,1.63
7103.00,1.64
7102.00,1.64
7101.00,1.64
7100.00,1.64
7099.00,1.64
7098.00,1.64
7097.00,1.64
7096.00,1.63
7095.00,1.63
7094.00,1.62
7093.00,1.61
7092.00,1.61
7091.00,1.60
7090.00,1.60
7089.00,1.59
7088.00,1.58
7087.00,1.58
7086.00,1.57
7085.00,1.57
7084.00,1.56
7083.00,1.55
7082.00,1.55
7081.00,1.54
7080.00,1.54
7079.00,1.53
7078.00,1.52
7077.00,1.52
7076.00,1.51
7075.00,1.51
7074.00,1.51
7073.00,1.50
7072.00,1.50
7071.00,1.50
7070.00,1.50
7069.00,1.50
7068.00,1.50
7067.00,1.50
7066.00,1.51
7065.00,1.51
7064.00,1.51
7063.00,1.51
7062.00,1.51
7061.00,1.51
7060.00,1.51
7059.00,1.52
7058.00,1.52
7057.00,1.52
7056.00,1.52
7055.00,1.53
7054.00,1.53
7053.00,1.53
7052.00,1.54
7051.00,1.54
7050.00,1.54
7049.00,1.55
7048.00,1.55
7047.00,1.56
7046.00,1.57
7045.00,1.57
7044.00,1.58
7043.00,1.58
7042.00,1.59
7041.00,1.59
7040.00,1.59
7039.00,1.59
7038.00,1.59
7037.00,1.59
7036.00,1.59
7035.00,1.59
7034.00,1.59
7033.00,1.59
7032.00,1.59
7031.00,1.59
7030.00,1.59
7029.00,1.58
7028.00,1.58
7027.00,1.57
7026.00,1.57
7025.00,1.56
7024.00,1.56
7023.00,1.55
7022.00,1.54
7021.00,1.53
7020.00,1.52
7019.00,1.51
7018.00,1.50
7017.00,1.49
7016.00,1.48
7015.00,1.47
7014.00,1.46
7013.00,1.46
7012.00,1.45
7011.00,1.44
7010.00,1.44
7009.00,1.43
7008.00,1.43
7007.00,1.43
7006.00,1.42
7005.00,1.42
7004.00,1.41
7003.00,1.41
7002.00,1.40
7001.00,1.40
7000.00,1.39
6999.00,1.39
6998.00,1.38
6997.00,1.38
6996.00,1.38
6995.00,1.37
6994.00,1.37
6993.00,1.37
6992.00,1.37
6991.00,1.37
6990.00,1.37
6989.00,1.36
6988.00,1.36
6987.00,1.35
6986.00,1.35
6985.00,1.34
6984.00,1.34
6983.00,1.33
6982.00,1.32
6981.00,1.31
6980.00,1.31
6979.00,1.30
6978.00,1.29
6977.00,1.29
6976.00,1.28
6975.00,1.28
6974.00,1.28
6973.00,1.28
6972.00,1.28
6971.00,1.28
6970.00,1.28
6969.00,1.28
6968.00,1.27
6967.00,1.27
6966.00,1.27
6965.00,1.27
6964.00,1.27
6963.00,1.27
6962.00,1.27
6961.00,1.27
6960.00,1.27
6959.00,1.27
6958.00,1.27
6957.00,1.27
6956.00,1.28
6955.00,1.28
6954.00,1.28
6953.00,1.28
6952.00,1.29
6951.00,1.29
6950.00,1.29
6949.00,1.29
6948.00,1.29
6947.00,1.29
6946.00,1.29
6945.00,1.29
6944.00,1.29
6943.00,1.29
6942.00,1.29
6941.00,1.30
6940.00,1.30
6939.00,1.30
6938.00,1.31
6937.00,1.31
6936.00,1.32
6935.00,1.32
6934.00,1.33
6933.00,1.33
6932.00,1.34
6931.00,1.34
6930.00,1.35
6929.00,1.36
6928.00,1.37
6927.00,1.37
6926.00,1.38
6925.00,1.39
6924.00,1.40
6923.00,1.40
6922.00,1.41
6921.00,1.42
6920.00,1.43
6919.00,1.43
6918.00,1.44
6917.00,1.44
6916.00,1.45
6915.00,1.45
6914.00,1.45
6913.00,1.45
6912.00,1.45
6911.00,1.45
6910.00,1.45
6909.00,1.45
6908.00,1.45
6907.00,1.45
6906.00,1.45
6905.00,1.45
6904.00,1.45
6903.00,1.44
6902.00,1.44
6901.00,1.44
6900.00,1.43
6899.00,1.43
6898.00,1.43
6897.00,1.42
6896.00,1.42
6895.00,1.41
6894.00,1.41
6893.00,1.41
6892.00,1.40
6891.00,1.40
6890.00,1.40
6889.00,1.40
6888.00,1.40
6887.00,1.40
6886.00,1.39
6885.00,1.39
6884.00,1.39
6883.00,1.39
6882.00,1.39
6881.00,1.39
6880.00,1.39
6879.00,1.39
6878.00,1.39
6877.00,1.39
6876.00,1.39
6875.00,1.39
6874.00,1.39
6873.00,1.39
6872.00,1.39
6871.00,1.39
6870.00,1.39
6869.00,1.39
6868.00,1.39
6867.00,1.39
6866.00,1.38
6865.00,1.38
6864.00,1.38
6863.00,1.37
6862.00,1.37
6861.00,1.37
6860.00,1.36
6859.00,1.36
6858.00,1.36
6857.00,1.35
6856.00,1.35
6855.00,1.34
6854.00,1.34
6853.00,1.33
6852.00,1.33
6851.00,1.32
6850.00,1.32
6849.00,1.31
6848.00,1.31
6847.00,1.30
6846.00,1.30
6845.00,1.29
6844.00,1.28
6843.00,1.28
6842.00,1.27
6841.00,1.27
6840.00,1.27
6839.00,1.26
6838.00,1.26
6837.00,1.26
6836.00,1.25
6835.00,1.25
6834.00,1.25
6833.00,1.25
6832.00,1.25
6831.00,1.25
6830.00,1.25
6829.00,1.25
6828.00,1.25
6827.00,1.25
6826.00,1.25
6825.00,1.25
6824.00,1.25
6823.00,1.26
6822.00,1.26
6821.00,1.26
6820.00,1.26
6819.00,1.26
6818.00,1.27
6817.00,1.27
6816.00,1.27
6815.00,1.27
6814.00,1.28
6813.00,1.28
6812.00,1.29
6811.00,1.29
6810.00,1.30
6809.00,1.30
6808.00,1.31
6807.00,1.32
6806.00,1.32
6805.00,1.33
6804.00,1.33
6803.00,1.34
6802.00,1.35
6801.00,1.35
6800.00,1.36
6799.00,1.36
6798.00,1.37
6797.00,1.38
6796.00,1.38
6795.00,1.39
6794.00,1.40
6793.00,1.41
6792.00,1.42
6791.00,1.43
6790.00,1.44
6789.00,1.44
6788.00,1.45
6787.00,1.46
6786.00,1.46
6785.00,1.47
6784.00,1.47
6783.00,1.48
6782.00,1.48
6781.00,1.49
6780.00,1.49
6779.00,1.49
6778.00,1.49
6777.00,1.49
6776.00,1.50
6775.00,1.50
6774.00,1.50
6773.00,1.50
6772.00,1.50
6771.00,1.49
6770.00,1.49
6769.00,1.49
6768.00,1.49
6767.00,1.48
6766.00,1.48
6765.00,1.47
6764.00,1.47
6763.00,1.46
6762.00,1.46
6761.00,1.45
6760.00,1.45
6759.00,1.45
6758.00,1.45
6757.00,1.44
6756.00,1.44
6755.00,1.44
6754.00,1.44
6753.00,1.43
6752.00,1.43
6751.00,1.43
6750.00,1.43
6749.00,1.43
6748.00,1.43
6747.00,1.43
6746.00,1.44
6745.00,1.44
6744.00,1.44
6743.00,1.44
6742.00,1.44
6741.00,1.45
6740.00,1.45
6739.00,1.45
6738.00,1.46
6737.00,1.46
6736.00,1.46
6735.00,1.47
6734.00,1.47
6733.00,1.47
6732.00,1.47
6731.00,1.48
6730.00,1.48
6729.00,1.48
6728.00,1.48
6727.00,1.49
6726.00,1.49
6725.00,1.49
6724.00,1.50
6723.00,1.50
6722.00,1.50
6721.00,1.50
6720.00,1.51
6719.00,1.51
6718.00,1.51
6717.00,1.52
6716.00,1.52
6715.00,1.52
6714.00,1.53
6713.00,1.53
6712.00,1.54
6711.00,1.54
6710.00,1.55
6709.00,1.55
6708.00,1.56
6707.00,1.56
6706.00,1.56
6705.00,1.57
6704.00,1.57
6703.00,1.57
6702.00,1.58
6701.00,1.58
6700.00,1.58
6699.00,1.58
6698.00,1.58
6697.00,1.58
6696.00,1.58
6695.00,1.58
6694.00,1.58
6693.00,1.58
6692.00,1.58
6691.00,1.57
6690.00,1.57
6689.00,1.57
6688.00,1.57
6687.00,1.56
6686.00,1.56
6685.00,1.56
6684.00,1.55
6683.00,1.55
6682.00,1.55
6681.00,1.55
6680.00,1.55
6679.00,1.54
6678.00,1.54
6677.00,1.54
6676.00,1.54
6675.00,1.54
6674.00,1.54
6673.00,1.54
6672.00,1.55
6671.00,1.55
6670.00,1.55
6669.00,1.55
6668.00,1.56
6667.00,1.56
6666.00,1.56
6665.00,1.56
6664.00,1.57
6663.00,1.57
6662.00,1.57
6661.00,1.58
6660.00,1.58
6659.00,1.58
6658.00,1.59
6657.00,1.59
6656.00,1.59
6655.00,1.59
6654.00,1.59
6653.00,1.59
6652.00,1.59
6651.00,1.59
6650.00,1.59
6649.00,1.59
6648.00,1.59
6647.00,1.60
6646.00,1.60
6645.00,1.60
6644.00,1.60
6643.00,1.60
6642.00,1.60
6641.00,1.61
6640.00,1.61
6639.00,1.61
6638.00,1.61
6637.00,1.61
6636.00,1.61
6635.00,1.61
6634.00,1.61
6633.00,1.61
6632.00,1.61
6631.00,1.61
6630.00,1.62
6629.00,1.62
6628.00,1.62
6627.00,1.63
6626.00,1.63
6625.00,1.64
6624.00,1.64
6623.00,1.64
6622.00,1.65
6621.00,1.65
6620.00,1.65
6619.00,1.65
6618.00,1.65
6617.00,1.65
6616.00,1.66
6615.00,1.66
6614.00,1.66
6613.00,1.66
6612.00,1.67
6611.00,1.67
6610.00,1.67
6609.00,1.68
6608.00,1.68
6607.00,1.69
6606.00,1.69
6605.00,1.70
6604.00,1.70
6603.00,1.70
6602.00,1.70
6601.00,1.70
6600.00,1.71
6599.00,1.71
6598.00,1.71
6597.00,1.71
6596.00,1.71
6595.00,1.71
6594.00,1.71
6593.00,1.72
6592.00,1.72
6591.00,1.72
6590.00,1.73
6589.00,1.73
6588.00,1.73
6587.00,1.73
6586.00,1.73
6585.00,1.73
6584.00,1.73
6583.00,1.73
6582.00,1.73
6581.00,1.73
6580.00,1.73
6579.00,1.73
6578.00,1.73
6577.00,1.73
6576.00,1.73
6575.00,1.74
6574.00,1.74
6573.00,1.74
6572.00,1.75
6571.00,1.75
6570.00,1.75
6569.00,1.76
6568.00,1.76
6567.00,1.76
6566.00,1.76
6565.00,1.77
6564.00,1.77
6563.00,1.77
6562.00,1.77
6561.00,1.78
6560.00,1.78
6559.00,1.79
6558.00,1.79
6557.00,1.80
6556.00,1.80
6555.00,1.81
6554.00,1.81
6553.00,1.82
6552.00,1.82
6551.00,1.83
6550.00,1.83
6549.00,1.83
6548.00,1.83
6547.00,1.84
6546.00,1.84
6545.00,1.84
6544.00,1.84
6543.00,1.84
6542.00,1.84
6541.00,1.84
6540.00,1.85
6539.00,1.85
6538.00,1.85
6537.00,1.85
6536.00,1.85
6535.00,1.85
6534.00,1.85
6533.00,1.85
6532.00,1.85
6531.00,1.85
6530.00,1.85
6529.00,1.85
6528.00,1.85
6527.00,1.84
6526.00,1.84
6525.00,1.84
6524.00,1.84
6523.00,1.84
6522.00,1.84
6521.00,1.84
6520.00,1.84
6519.00,1.84
6518.00,1.84
6517.00,1.84
6516.00,1.84
6515.00,1.84
6514.00,1.84
6513.00,1.84
6512.00,1.84
6511.00,1.84
6510.00,1.85
6509.00,1.85
6508.00,1.85
6507.00,1.85
6506.00,1.85
6505.00,1.85
6504.00,1.86
6503.00,1.86
6502.00,1.86
6501.00,1.86
6500.00,1.86
6499.00,1.86
6498.00,1.86
6497.00,1.86
6496.00,1.86
6495.00,1.86
6494.00,1.86
6493.00,1.86
6492.00,1.86
6491.00,1.86
6490.00,1.86
6489.00,1.86
6488.00,1.85
6487.00,1.85
6486.00,1.85
6485.00,1.85
6484.00,1.84
6483.00,1.84
6482.00,1.84
6481.00,1.84
6480.00,1.84
6479.00,1.84
6478.00,1.84
6477.00,1.84
6476.00,1.84
6475.00,1.84
6474.00,1.84
6473.00,1.84
6472.00,1.84
6471.00,1.84
6470.00,1.84
6469.00,1.84
6468.00,1.85
6467.00,1.85
6466.00,1.85
6465.00,1.85
6464.00,1.85
6463.00,1.86
6462.00,1.86
6461.00,1.86
6460.00,1.87
6459.00,1.87
6458.00,1.88
6457.00,1.88
6456.00,1.88
6455.00,1.89
6454.00,1.89
6453.00,1.89
6452.00,1.90
6451.00,1.90
6450.00,1.90
6449.00,1.90
6448.00,1.90
6447.00,1.91
6446.00,1.91
6445.00,1.91
6444.00,1.92
6443.00,1.92
6442.00,1.93
6441.00,1.93
6440.00,1.93
6439.00,1.94
6438.00,1.94
6437.00,1.95
6436.00,1.95
6435.00,1.95
6434.00,1.95
6433.00,1.96
6432.00,1.96
6431.00,1.96
6430.00,1.96
6429.00,1.96
6428.00,1.96
6427.00,1.97
6426.00,1.97
6425.00,1.97
6424.00,1.97
6423.00,1.98
6422.00,1.98
6421.00,1.98
6420.00,1.98
6419.00,1.98
6418.00,1.99
6417.00,1.99
6416.00,1.99
6415.00,1.99
6414.00,1.99
6413.00,2.00
6412.00,2.00
6411.00,2.00
6410.00,2.00
6409.00,2.00
6408.00,2.01
6407.00,2.01
6406.00,2.01
6405.00,2.02
6404.00,2.02
6403.00,2.02
6402.00,2.03
6401.00,2.03
6400.00,2.03
6399.00,2.03
6398.00,2.03
6397.00,2.03
6396.00,2.04
6395.00,2.04
6394.00,2.04
6393.00,2.04
6392.00,2.04
6391.00,2.04
6390.00,2.04
6389.00,2.04
6388.00,2.04
6387.00,2.04
6386.00,2.03
6385.00,2.03
6384.00,2.03
6383.00,2.03
6382.00,2.03
6381.00,2.02
6380.00,2.02
6379.00,2.02
6378.00,2.02
6377.00,2.02
6376.00,2.02
6375.00,2.01
6374.00,2.01
6373.00,2.01
6372.00,2.01
6371.00,2.01
6370.00,2.00
6369.00,2.00
6368.00,2.00
6367.00,2.00
6366.00,2.00
6365.00,2.00
6364.00,2.00
6363.00,2.00
6362.00,2.00
6361.00,2.00
6360.00,2.01
6359.00,2.01
6358.00,2.02
6357.00,2.02
6356.00,2.03
6355.00,2.03
6354.00,2.03
6353.00,2.04
6352.00,2.04
6351.00,2.04
6350.00,2.05
6349.00,2.05
6348.00,2.05
6347.00,2.05
6346.00,2.06
6345.00,2.06
6344.00,2.06
6343.00,2.06
6342.00,2.07
6341.00,2.07
6340.00,2.07
6339.00,2.07
6338.00,2.07
6337.00,2.07
6336.00,2.07
6335.00,2.07
6334.00,2.07
6333.00,2.07
6332.00,2.07
6331.00,2.06
6330.00,2.06
6329.00,2.06
6328.00,2.06
6327.00,2.05
6326.00,2.05
6325.00,2.05
6324.00,2.05
6323.00,2.04
6322.00,2.04
6321.00,2.04
6320.00,2.04
6319.00,2.04
6318.00,2.04
6317.00,2.04
6316.00,2.04
6315.00,2.04
6314.00,2.03
6313.00,2.03
6312.00,2.03
6311.00,2.03
6310.00,2.03
6309.00,2.03
6308.00,2.03
6307.00,2.03
6306.00,2.03
6305.00,2.03
6304.00,2.03
6303.00,2.03
6302.00,2.03
6301.00,2.03
6300.00,2.03
6299.00,2.04
6298.00,2.04
6297.00,2.04
6296.00,2.04
6295.00,2.04
6294.00,2.05
6293.00,2.05
6292.00,2.05
6291.00,2.05
6290.00,2.06
6289.00,2.06
6288.00,2.07
6287.00,2.07
6286.00,2.08
6285.00,2.08
6284.00,2.08
6283.00,2.09
6282.00,2.09
6281.00,2.10
6280.00,2.10
6279.00,2.10
6278.00,2.11
6277.00,2.11
6276.00,2.11
6275.00,2.11
6274.00,2.11
6273.00,2.12
6272.00,2.12
6271.00,2.12
6270.00,2.12
6269.00,2.13
6268.00,2.13
6267.00,2.13
6266.00,2.13
6265.00,2.13
6264.00,2.13
6263.00,2.14
6262.00,2.14
6261.00,2.14
6260.00,2.14
6259.00,2.14
6258.00,2.14
6257.00,2.14
6256.00,2.14
6255.00,2.14
6254.00,2.14
6253.00,2.15
6252.00,2.15
6251.00,2.15
6250.00,2.15
6249.00,2.16
6248.00,2.16
6247.00,2.16
6246.00,2.17
6245.00,2.17
6244.00,2.17
6243.00,2.18
6242.00,2.18
6241.00,2.18
6240.00,2.19
6239.00,2.19
6238.00,2.19
6237.00,2.19
6236.00,2.20
6235.00,2.20
6234.00,2.20
6233.00,2.20
6232.00,2.20
6231.00,2.21
6230.00,2.21
6229.00,2.21
6228.00,2.21
6227.00,2.22
6226.00,2.22
6225.00,2.22
6224.00,2.22
6223.00,2.22
6222.00,2.22
6221.00,2.22
6220.00,2.22
6219.00,2.22
6218.00,2.22
6217.00,2.21
6216.00,2.21
6215.00,2.21
6214.00,2.20
6213.00,2.20
6212.00,2.20
6211.00,2.19
6210.00,2.19
6209.00,2.19
6208.00,2.18
6207.00,2.18
6206.00,2.18
6205.00,2.17
6204.00,2.17
6203.00,2.17
6202.00,2.16
6201.00,2.16
6200.00,2.15
6199.00,2.15
6198.00,2.14
6197.00,2.14
6196.00,2.13
6195.00,2.13
6194.00,2.13
6193.00,2.12
6192.00,2.12
6191.00,2.12
6190.00,2.11
6189.00,2.11
6188.00,2.11
6187.00,2.11
6186.00,2.11
6185.00,2.11
6184.00,2.11
6183.00,2.11
6182.00,2.12
6181.00,2.12
6180.00,2.12
6179.00,2.12
6178.00,2.12
6177.00,2.12
6176.00,2.12
6175.00,2.13
6174.00,2.13
6173.00,2.13
6172.00,2.13
6171.00,2.14
6170.00,2.14
6169.00,2.14
6168.00,2.15
6167.00,2.15
6166.00,2.16
6165.00,2.16
6164.00,2.16
6163.00,2.17
6162.00,2.17
6161.00,2.18
6160.00,2.18
6159.00,2.19
6158.00,2.19
6157.00,2.19
6156.00,2.20
6155.00,2.20
6154.00,2.20
6153.00,2.21
6152.00,2.21
6151.00,2.21
6150.00,2.22
6149.00,2.22
6148.00,2.23
6147.00,2.23
6146.00,2.23
6145.00,2.24
6144.00,2.24
6143.00,2.25
6142.00,2.25
6141.00,2.26
6140.00,2.26
6139.00,2.27
6138.00,2.27
6137.00,2.28
6136.00,2.28
6135.00,2.29
6134.00,2.29
6133.00,2.30
6132.00,2.30
6131.00,2.31
6130.00,2.31
6129.00,2.32
6128.00,2.32
6127.00,2.32
6126.00,2.33
6125.00,2.33
6124.00,2.34
6123.00,2.34
6122.00,2.35
6121.00,2.35
6120.00,2.35
6119.00,2.36
6118.00,2.36
6117.00,2.36
6116.00,2.36
6115.00,2.36
6114.00,2.36
6113.00,2.36
6112.00,2.36
6111.00,2.36
6110.00,2.36
6109.00,2.36
6108.00,2.36
6107.00,2.36
6106.00,2.36
6105.00,2.35
6104.00,2.35
6103.00,2.35
6102.00,2.35
6101.00,2.35
6100.00,2.35
6099.00,2.35
6098.00,2.34
6097.00,2.34
6096.00,2.34
6095.00,2.34
6094.00,2.34
6093.00,2.34
6092.00,2.34
6091.00,2.33
6090.00,2.33
6089.00,2.33
6088.00,2.33
6087.00,2.33
6086.00,2.33
6085.00,2.33
6084.00,2.33
6083.00,2.33
6082.00,2.33
6081.00,2.33
6080.00,2.33
6079.00,2.33
6078.00,2.33
6077.00,2.32
6076.00,2.32
6075.00,2.32
6074.00,2.32
6073.00,2.32
6072.00,2.32
6071.00,2.32
6070.00,2.32
6069.00,2.32
6068.00,2.32
6067.00,2.32
6066.00,2.32
6065.00,2.32
6064.00,2.32
6063.00,2.32
6062.00,2.32
6061.00,2.32
6060.00,2.32
6059.00,2.32
6058.00,2.32
6057.00,2.32
6056.00,2.32
6055.00,2.32
6054.00,2.32
6053.00,2.32
6052.00,2.32
6051.00,2.33
6050.00,2.33
6049.00,2.33
6048.00,2.33
6047.00,2.33
6046.00,2.33
6045.00,2.33
6044.00,2.33
6043.00,2.34
6042.00,2.34
6041.00,2.34
6040.00,2.34
6039.00,2.34
6038.00,2.34
6037.00,2.34
6036.00,2.34
6035.00,2.34
6034.00,2.35
6033.00,2.35
6032.00,2.35
6031.00,2.35
6030.00,2.36
6029.00,2.36
6028.00,2.36
6027.00,2.36
6026.00,2.36
6025.00,2.36
6024.00,2.36
6023.00,2.36
6022.00,2.36
6021.00,2.36
6020.00,2.36
6019.00,2.37
6018.00,2.37
6017.00,2.37
6016.00,2.37
6015.00,2.37
6014.00,2.36
6013.00,2.36
6012.00,2.36
6011.00,2.36
6010.00,2.36
6009.00,2.36
6008.00,2.36
6007.00,2.35
6006.00,2.35
6005.00,2.35
6004.00,2.34
6003.00,2.34
6002.00,2.33
6001.00,2.33
6000.00,2.32
5999.00,2.32
5998.00,2.32
5997.00,2.31
5996.00,2.31
5995.00,2.31
5994.00,2.30
5993.00,2.30
5992.00,2.30
5991.00,2.29
5990.00,2.29
5989.00,2.29
5988.00,2.29
5987.00,2.29
5986.00,2.29
5985.00,2.28
5984.00,2.28
5983.00,2.28
5982.00,2.28
5981.00,2.28
5980.00,2.28
5979.00,2.28
5978.00,2.28
5977.00,2.28
5976.00,2.28
5975.00,2.28
5974.00,2.28
5973.00,2.28
5972.00,2.28
5971.00,2.28
5970.00,2.29
5969.00,2.29
5968.00,2.29
5967.00,2.29
5966.00,2.29
5965.00,2.30
5964.00,2.30
5963.00,2.30
5962.00,2.30
5961.00,2.30
5960.00,2.30
5959.00,2.30
5958.00,2.30
5957.00,2.30
5956.00,2.30
5955.00,2.30
5954.00,2.30
5953.00,2.30
5952.00,2.30
5951.00,2.30
5950.00,2.31
5949.00,2.31
5948.00,2.31
5947.00,2.31
5946.00,2.31
5945.00,2.31
5944.00,2.31
5943.00,2.31
5942.00,2.31
5941.00,2.31
5940.00,2.31
5939.00,2.31
5938.00,2.31
5937.00,2.31
5936.00,2.31
5935.00,2.31
5934.00,2.30
5933.00,2.30
5932.00,2.30
5931.00,2.30
5930.00,2.30
5929.00,2.30
5928.00,2.29
5927.00,2.29
5926.00,2.29
5925.00,2.28
5924.00,2.28
5923.00,2.28
5922.00,2.27
5921.00,2.27
5920.00,2.27
5919.00,2.26
5918.00,2.26
5917.00,2.26
5916.00,2.26
5915.00,2.25
5914.00,2.25
5913.00,2.25
5912.00,2.24
5911.00,2.24
5910.00,2.24
5909.00,2.24
5908.00,2.24
5907.00,2.24
5906.00,2.24
5905.00,2.24
5904.00,2.24
5903.00,2.24
5902.00,2.25
5901.00,2.25
5900.00,2.25
5899.00,2.25
5898.00,2.26
5897.00,2.26
5896.00,2.26
5895.00,2.27
5894.00,2.27
5893.00,2.27
5892.00,2.28
5891.00,2.28
5890.00,2.29
5889.00,2.29
5888.00,2.30
5887.00,2.30
5886.00,2.31
5885.00,2.31
5884.00,2.32
5883.00,2.32
5882.00,2.32
5881.00,2.33
5880.00,2.33
5879.00,2.34
5878.00,2.34
5877.00,2.35
5876.00,2.35
5875.00,2.36
5874.00,2.36
5873.00,2.36
5872.00,2.37
5871.00,2.37
5870.00,2.37
5869.00,2.38
5868.00,2.38
5867.00,2.38
5866.00,2.38
5865.00,2.38
5864.00,2.38
5863.00,2.38
5862.00,2.38
5861.00,2.39
5860.00,2.39
5859.00,2.39
5858.00,2.39
5857.00,2.39
5856.00,2.39
5855.00,2.39
5854.00,2.39
5853.00,2.39
5852.00,2.39
5851.00,2.39
5850.00,2.38
5849.00,2.38
5848.00,2.38
5847.00,2.38
5846.00,2.37
5845.00,2.37
5844.00,2.37
5843.00,2.36
5842.00,2.36
5841.00,2.36
5840.00,2.36
5839.00,2.35
5838.00,2.35
5837.00,2.35
5836.00,2.35
5835.00,2.35
5834.00,2.34
5833.00,2.34
5832.00,2.34
5831.00,2.33
5830.00,2.33
5829.00,2.33
5828.00,2.32
5827.00,2.32
5826.00,2.32
5825.00,2.32
5824.00,2.31
5823.00,2.31
5822.00,2.31
5821.00,2.31
5820.00,2.30
5819.00,2.30
5818.00,2.30
5817.00,2.30
5816.00,2.30
5815.00,2.30
5814.00,2.29
5813.00,2.29
5812.00,2.29
5811.00,2.29
5810.00,2.29
5809.00,2.28
5808.00,2.28
5807.00,2.28
5806.00,2.28
5805.00,2.28
5804.00,2.27
5803.00,2.27
5802.00,2.27
5801.00,2.27
5800.00,2.27
5799.00,2.26
5798.00,2.26
5797.00,2.26
5796.00,2.26
5795.00,2.26
5794.00,2.26
5793.00,2.25
5792.00,2.25
5791.00,2.25
5790.00,2.25
5789.00,2.24
5788.00,2.24
5787.00,2.24
5786.00,2.23
5785.00,2.23
5784.00,2.23
5783.00,2.23
5782.00,2.22
5781.00,2.22
5780.00,2.22
5779.00,2.22
5778.00,2.22
5777.00,2.22
5776.00,2.22
5775.00,2.22
5774.00,2.22
5773.00,2.22
5772.00,2.22
5771.00,2.22
5770.00,2.22
5769.00,2.22
5768.00,2.22
5767.00,2.22
5766.00,2.22
5765.00,2.22
5764.00,2.23
5763.00,2.23
5762.00,2.23
5761.00,2.23
5760.00,2.23
5759.00,2.24
5758.00,2.24
5757.00,2.24
5756.00,2.24
5755.00,2.25
5754.00,2.25
5753.00,2.25
5752.00,2.25
5751.00,2.25
5750.00,2.26
5749.00,2.26
5748.00,2.26
5747.00,2.26
5746.00,2.26
5745.00,2.26
5744.00,2.26
5743.00,2.26
5742.00,2.26
5741.00,2.26
5740.00,2.26
5739.00,2.26
5738.00,2.26
5737.00,2.26
5736.00,2.26
5735.00,2.26
5734.00,2.26
5733.00,2.26
5732.00,2.26
5731.00,2.26
5730.00,2.26
5729.00,2.26
5728.00,2.26
5727.00,2.26
5726.00,2.26
5725.00,2.26
5724.00,2.26
5723.00,2.26
5722.00,2.26
5721.00,2.26
5720.00,2.26
5719.00,2.26
5718.00,2.26
5717.00,2.26
5716.00,2.26
5715.00,2.26
5714.00,2.26
5713.00,2.26
5712.00,2.26
5711.00,2.26
5710.00,2.26
5709.00,2.26
5708.00,2.26
5707.00,2.26
5706.00,2.26
5705.00,2.26
5704.00,2.26
5703.00,2.26
5702.00,2.26
5701.00,2.26
5700.00,2.26
5699.00,2.25
5698.00,2.25
5697.00,2.25
5696.00,2.25
5695.00,2.25
5694.00,2.25
5693.00,2.25
5692.00,2.25
5691.00,2.25
5690.00,2.25
5689.00,2.24
5688.00,2.24
5687.00,2.24
5686.00,2.24
5685.00,2.24
5684.00,2.24
5683.00,2.24
5682.00,2.24
5681.00,2.24
5680.00,2.24
5679.00,2.25
5678.00,2.25
5677.00,2.25
5676.00,2.25
5675.00,2.25
5674.00,2.26
5673.00,2.26
5672.00,2.26
5671.00,2.26
5670.00,2.27
5669.00,2.27
5668.00,2.27
5667.00,2.27
5666.00,2.27
5665.00,2.27
5664.00,2.28
5663.00,2.28
5662.00,2.28
5661.00,2.28
5660.00,2.28
5659.00,2.28
5658.00,2.28
5657.00,2.28
5656.00,2.28
5655.00,2.28
5654.00,2.28
5653.00,2.28
5652.00,2.28
5651.00,2.28
5650.00,2.28
5649.00,2.28
5648.00,2.28
5647.00,2.28
5646.00,2.28
5645.00,2.28
5644.00,2.28
5643.00,2.28
5642.00,2.28
5641.00,2.28
5640.00,2.28
5639.00,2.28
5638.00,2.28
5637.00,2.28
5636.00,2.28
5635.00,2.28
5634.00,2.28
5633.00,2.28
5632.00,2.28
5631.00,2.29
5630.00,2.29
5629.00,2.29
5628.00,2.29
5627.00,2.29
5626.00,2.29
5625.00,2.29
5624.00,2.30
5623.00,2.30
5622.00,2.30
5621.00,2.30
5620.00,2.30
5619.00,2.30
5618.00,2.30
5617.00,2.31
5616.00,2.31
5615.00,2.31
5614.00,2.31
5613.00,2.31
5612.00,2.31
5611.00,2.31
5610.00,2.31
5609.00,2.31
5608.00,2.31
5607.00,2.31
5606.00,2.31
5605.00,2.31
5604.00,2.31
5603.00,2.31
5602.00,2.31
5601.00,2.31
5600.00,2.31
5599.00,2.31
5598.00,2.31
5597.00,2.31
5596.00,2.31
5595.00,2.31
5594.00,2.30
5593.00,2.30
5592.00,2.30
5591.00,2.30
5590.00,2.30
5589.00,2.30
5588.00,2.30
5587.00,2.30
5586.00,2.30
5585.00,2.30
5584.00,2.30
5583.00,2.30
5582.00,2.30
5581.00,2.30
5580.00,2.30
5579.00,2.30
5578.00,2.30
5577.00,2.30
5576.00,2.30
5575.00,2.30
5574.00,2.30
5573.00,2.30
5572.00,2.30
5571.00,2.30
5570.00,2.30
5569.00,2.30
5568.00,2.30
5567.00,2.30
5566.00,2.30
5565.00,2.30
5564.00,2.31
5563.00,2.31
5562.00,2.31
5561.00,2.31
5560.00,2.31
5559.00,2.31
5558.00,2.31
5557.00,2.31
5556.00,2.31
5555.00,2.31
5554.00,2.31
5553.00,2.31
5552.00,2.31
5551.00,2.32
5550.00,2.32
5549.00,2.32
5548.00,2.32
5547.00,2.32
5546.00,2.32
5545.00,2.32
5544.00,2.32
5543.00,2.32
5542.00,2.32
5541.00,2.32
5540.00,2.33
5539.00,2.33
5538.00,2.33
5537.00,2.33
5536.00,2.33
5535.00,2.33
5534.00,2.33
5533.00,2.34
5532.00,2.34
5531.00,2.34
5530.00,2.34
5529.00,2.34
5528.00,2.34
5527.00,2.34
5526.00,2.34
5525.00,2.34
5524.00,2.34
5523.00,2.34
5522.00,2.35
5521.00,2.35
5520.00,2.35
5519.00,2.35
5518.00,2.36
5517.00,2.36
5516.00,2.36
5515.00,2.37
5514.00,2.37
5513.00,2.37
5512.00,2.38
5511.00,2.38
5510.00,2.38
5509.00,2.39
5508.00,2.39
5507.00,2.39
5506.00,2.40
5505.00,2.40
5504.00,2.41
5503.00,2.41
5502.00,2.42
5501.00,2.42
5500.00,2.43
5499.00,2.43
5498.00,2.44
5497.00,2.44
5496.00,2.44
5495.00,2.45
5494.00,2.45
5493.00,2.45
5492.00,2.45
5491.00,2.46
5490.00,2.46
5489.00,2.46
5488.00,2.46
5487.00,2.46
5486.00,2.46
5485.00,2.46
5484.00,2.46
5483.00,2.46
5482.00,2.46
5481.00,2.47
5480.00,2.47
5479.00,2.47
5478.00,2.47
5477.00,2.47
5476.00,2.47
5475.00,2.47
5474.00,2.47
5473.00,2.47
5472.00,2.47
5471.00,2.47
5470.00,2.47
5469.00,2.47
5468.00,2.47
5467.00,2.47
5466.00,2.47
5465.00,2.47
5464.00,2.47
5463.00,2.48
5462.00,2.48
5461.00,2.48
5460.00,2.48
5459.00,2.48
5458.00,2.49
5457.00,2.49
5456.00,2.49
5455.00,2.50
5454.00,2.50
5453.00,2.50
5452.00,2.51
5451.00,2.51
5450.00,2.51
5449.00,2.52
5448.00,2.52
5447.00,2.52
5446.00,2.52
5445.00,2.52
5444.00,2.52
5443.00,2.52
5442.00,2.53
5441.00,2.53
5440.00,2.53
5439.00,2.53
5438.00,2.53
5437.00,2.53
5436.00,2.53
5435.00,2.53
5434.00,2.53
5433.00,2.53
5432.00,2.53
5431.00,2.52
5430.00,2.52
5429.00,2.52
5428.00,2.51
5427.00,2.50
5426.00,2.50
5425.00,2.49
5424.00,2.49
5423.00,2.48
5422.00,2.47
5421.00,2.46
5420.00,2.46
5419.00,2.45
5418.00,2.44
5417.00,2.44
5416.00,2.43
5415.00,2.42
5414.00,2.41
5413.00,2.41
5412.00,2.40
5411.00,2.39
5410.00,2.38
5409.00,2.38
5408.00,2.37
5407.00,2.37
5406.00,2.36
5405.00,2.36
5404.00,2.35
5403.00,2.35
5402.00,2.35
5401.00,2.34
5400.00,2.34
5399.00,2.34
5398.00,2.34
5397.00,2.34
5396.00,2.33
5395.00,2.33
5394.00,2.33
5393.00,2.33
5392.00,2.34
5391.00,2.34
5390.00,2.34
5389.00,2.34
5388.00,2.34
5387.00,2.34
5386.00,2.34
5385.00,2.34
5384.00,2.34
5383.00,2.34
5382.00,2.34
5381.00,2.34
5380.00,2.34
5379.00,2.34
5378.00,2.34
5377.00,2.34
5376.00,2.34
5375.00,2.34
5374.00,2.34
5373.00,2.34
5372.00,2.34
5371.00,2.34
5370.00,2.34
5369.00,2.34
5368.00,2.33
5367.00,2.33
5366.00,2.33
5365.00,2.33
5364.00,2.32
5363.00,2.32
5362.00,2.32
5361.00,2.32
5360.00,2.31
5359.00,2.31
5358.00,2.31
5357.00,2.30
5356.00,2.30
5355.00,2.29
5354.00,2.29
5353.00,2.28
5352.00,2.27
5351.00,2.26
5350.00,2.25
5349.00,2.24
5348.00,2.23
5347.00,2.22
5346.00,2.21
5345.00,2.20
5344.00,2.19
5343.00,2.17
5342.00,2.16
5341.00,2.15
5340.00,2.13
5339.00,2.12
5338.00,2.10
5337.00,2.09
5336.00,2.07
5335.00,2.05
5334.00,2.03
5333.00,2.01
5332.00,1.99
5331.00,1.97
5330.00,1.95
5329.00,1.93
5328.00,1.91
5327.00,1.90
5326.00,1.88
5325.00,1.86
5324.00,1.84
5323.00,1.82
5322.00,1.80
5321.00,1.78
5320.00,1.76
5319.00,1.75
5318.00,1.73
5317.00,1.71
5316.00,1.69
5315.00,1.67
5314.00,1.65
5313.00,1.64
5312.00,1.62
5311.00,1.60
5310.00,1.58
5309.00,1.57
5308.00,1.55
5307.00,1.54
5306.00,1.53
5305.00,1.51
5304.00,1.50
5303.00,1.49
5302.00,1.47
5301.00,1.46
5300.00,1.45
5299.00,1.44
5298.00,1.43
5297.00,1.42
5296.00,1.40
5295.00,1.39
5294.00,1.38
5293.00,1.37
5292.00,1.36
5291.00,1.36
5290.00,1.35
5289.00,1.34
5288.00,1.33
5287.00,1.32
5286.00,1.31
5285.00,1.30
5284.00,1.30
5283.00,1.29
5282.00,1.28
5281.00,1.27
5280.00,1.26
5279.00,1.25
5278.00,1.24
5277.00,1.23
5276.00,1.23
5275.00,1.22
5274.00,1.21
5273.00,1.20
5272.00,1.19
5271.00,1.18
5270.00,1.18
5269.00,1.17
5268.00,1.16
5267.00,1.15
5266.00,1.15
5265.00,1.14
5264.00,1.13
5263.00,1.13
5262.00,1.12
5261.00,1.12
5260.00,1.11
5259.00,1.11
5258.00,1.10
5257.00,1.10
5256.00,1.10
5255.00,1.09
5254.00,1.09
5253.00,1.09
5252.00,1.09
5251.00,1.08
5250.00,1.08
5249.00,1.08
5248.00,1.08
5247.00,1.08
5246.00,1.08
5245.00,1.08
5244.00,1.08
5243.00,1.08
5242.00,1.08
5241.00,1.08
5240.00,1.08
5239.00,1.08
5238.00,1.08
5237.00,1.08
5236.00,1.08
5235.00,1.08
5234.00,1.08
5233.00,1.08
5232.00,1.08
5231.00,1.08
5230.00,1.08
5229.00,1.08
5228.00,1.08
5227.00,1.07
5226.00,1.07
5225.00,1.07
5224.00,1.07
5223.00,1.06
5222.00,1.06
5221.00,1.06
5220.00,1.05
5219.00,1.05
5218.00,1.05
5217.00,1.04
5216.00,1.04
5215.00,1.04
5214.00,1.03
5213.00,1.03
5212.00,1.03
5211.00,1.03
5210.00,1.02
5209.00,1.02
5208.00,1.02
5207.00,1.02
5206.00,1.01
5205.00,1.01
5204.00,1.01
5203.00,1.01
5202.00,1.01
5201.00,1.00
5200.00,1.00
5199.00,1.00
5198.00,1.00
5197.00,1.00
5196.00,1.00
5195.00,1.00
5194.00,1.00
5193.00,1.00
5192.00,1.00
5191.00,1.00
5190.00,1.00
5189.00,1.00
5188.00,1.00
5187.00,1.00
5186.00,0.99
5185.00,0.99
5184.00,0.99
5183.00,0.99
5182.00,0.99
5181.00,0.99
5180.00,0.99
5179.00,0.98
5178.00,0.98
5177.00,0.98
5176.00,0.98
5175.00,0.98
5174.00,0.98
5173.00,0.98
5172.00,0.98
5171.00,0.98
5170.00,0.98
5169.00,0.98
5168.00,0.97
5167.00,0.97
5166.00,0.97
5165.00,0.97
5164.00,0.97
5163.00,0.97
5162.00,0.97
5161.00,0.97
5160.00,0.97
5159.00,0.97
5158.00,0.97
5157.00,0.97
5156.00,0.97
5155.00,0.97
5154.00,0.97
5153.00,0.97
5152.00,0.97
5151.00,0.97
5150.00,0.97
5149.00,0.97
5148.00,0.97
5147.00,0.97
5146.00,0.97
5145.00,0.97
5144.00,0.97
5143.00,0.98
5142.00,0.97
5141.00,0.97
5140.00,0.97
5139.00,0.97
5138.00,0.97
5137.00,0.97
5136.00,0.97
5135.00,0.97
5134.00,0.97
5133.00,0.98
5132.00,0.98
5131.00,0.98
5130.00,0.98
5129.00,0.98
5128.00,0.98
5127.00,0.99
5126.00,0.99
5125.00,0.99
5124.00,0.99
5123.00,1.00
5122.00,1.00
5121.00,1.00
5120.00,1.00
5119.00,1.01
5118.00,1.01
5117.00,1.01
5116.00,1.02
5115.00,1.02
5114.00,1.02
5113.00,1.03
5112.00,1.03
5111.00,1.04
5110.00,1.04
5109.00,1.05
5108.00,1.05
5107.00,1.06
5106.00,1.06
5105.00,1.06
5104.00,1.07
5103.00,1.07
5102.00,1.08
5101.00,1.08
5100.00,1.08
5099.00,1.08
5098.00,1.09
5097.00,1.09
5096.00,1.09
5095.00,1.09
5094.00,1.09
5093.00,1.09
5092.00,1.09
5091.00,1.10
5090.00,1.10
5089.00,1.10
5088.00,1.10
5087.00,1.10
5086.00,1.10
5085.00,1.10
5084.00,1.11
5083.00,1.11
5082.00,1.11
5081.00,1.11
5080.00,1.11
5079.00,1.11
5078.00,1.11
5077.00,1.11
5076.00,1.11
5075.00,1.12
5074.00,1.12
5073.00,1.12
5072.00,1.12
5071.00,1.12
5070.00,1.13
5069.00,1.13
5068.00,1.13
5067.00,1.13
5066.00,1.13
5065.00,1.13
5064.00,1.13
5063.00,1.13
5062.00,1.13
5061.00,1.13
5060.00,1.13
5059.00,1.13
5058.00,1.13
5057.00,1.13
5056.00,1.13
5055.00,1.13
5054.00,1.13
5053.00,1.13
5052.00,1.13
5051.00,1.13
5050.00,1.13
5049.00,1.13
5048.00,1.13
5047.00,1.13
5046.00,1.13
5045.00,1.13
5044.00,1.13
5043.00,1.14
5042.00,1.14
5041.00,1.14
5040.00,1.14
5039.00,1.15
5038.00,1.15
5037.00,1.16
5036.00,1.16
5035.00,1.17
5034.00,1.17
5033.00,1.18
5032.00,1.18
5031.00,1.19
5030.00,1.19
5029.00,1.20
5028.00,1.20
5027.00,1.21
5026.00,1.22
5025.00,1.22
5024.00,1.23
5023.00,1.23
5022.00,1.24
5021.00,1.24
5020.00,1.25
5019.00,1.25
5018.00,1.26
5017.00,1.26
5016.00,1.26
5015.00,1.27
5014.00,1.27
5013.00,1.27
5012.00,1.27
5011.00,1.28
5010.00,1.28
5009.00,1.28
5008.00,1.28
5007.00,1.29
5006.00,1.29
5005.00,1.29
5004.00,1.29
5003.00,1.29
5002.00,1.29
5001.00,1.30
5000.00,1.30
4999.00,1.30
4998.00,1.30
4997.00,1.30
4996.00,1.30
4995.00,1.30
4994.00,1.30
4993.00,1.30
4992.00,1.30
4991.00,1.30
4990.00,1.30
4989.00,1.30
4988.00,1.30
4987.00,1.29
4986.00,1.29
4985.00,1.29
4984.00,1.29
4983.00,1.29
4982.00,1.29
4981.00,1.29
4980.00,1.29
4979.00,1.29
4978.00,1.29
4977.00,1.29
4976.00,1.29
4975.00,1.29
4974.00,1.29
4973.00,1.29
4972.00,1.30
4971.00,1.30
4970.00,1.30
4969.00,1.31
4968.00,1.31
4967.00,1.32
4966.00,1.32
4965.00,1.33
4964.00,1.33
4963.00,1.34
4962.00,1.35
4961.00,1.35
4960.00,1.36
4959.00,1.37
4958.00,1.38
4957.00,1.39
4956.00,1.40
4955.00,1.40
4954.00,1.41
4953.00,1.42
4952.00,1.43
4951.00,1.44
4950.00,1.45
4949.00,1.46
4948.00,1.47
4947.00,1.47
4946.00,1.48
4945.00,1.49
4944.00,1.50
4943.00,1.50
4942.00,1.51
4941.00,1.52
4940.00,1.52
4939.00,1.53
4938.00,1.54
4937.00,1.54
4936.00,1.55
4935.00,1.55
4934.00,1.56
4933.00,1.56
4932.00,1.57
4931.00,1.57
4930.00,1.57
4929.00,1.58
4928.00,1.58
4927.00,1.58
4926.00,1.59
4925.00,1.59
4924.00,1.59
4923.00,1.59
4922.00,1.59
4921.00,1.60
4920.00,1.60
4919.00,1.60
4918.00,1.60
4917.00,1.60
4916.00,1.60
4915.00,1.60
4914.00,1.60
4913.00,1.60
4912.00,1.60
4911.00,1.59
4910.00,1.59
4909.00,1.59
4908.00,1.59
4907.00,1.58
4906.00,1.58
4905.00,1.58
4904.00,1.58
4903.00,1.57
4902.00,1.57
4901.00,1.57
4900.00,1.56
4899.00,1.56
4898.00,1.56
4897.00,1.55
4896.00,1.55
4895.00,1.55
4894.00,1.54
4893.00,1.54
4892.00,1.54
4891.00,1.54
4890.00,1.54
4889.00,1.54
4888.00,1.54
4887.00,1.54
4886.00,1.54
4885.00,1.55
4884.00,1.55
4883.00,1.55
4882.00,1.55
4881.00,1.56
4880.00,1.56
4879.00,1.57
4878.00,1.57
4877.00,1.57
4876.00,1.58
4875.00,1.59
4874.00,1.59
4873.00,1.60
4872.00,1.60
4871.00,1.61
4870.00,1.62
4869.00,1.63
4868.00,1.63
4867.00,1.64
4866.00,1.65
4865.00,1.65
4864.00,1.66
4863.00,1.67
4862.00,1.67
4861.00,1.68
4860.00,1.68
4859.00,1.69
4858.00,1.70
4857.00,1.70
4856.00,1.71
4855.00,1.71
4854.00,1.72
4853.00,1.73
4852.00,1.73
4851.00,1.74
4850.00,1.74
4849.00,1.75
4848.00,1.75
4847.00,1.76
4846.00,1.76
4845.00,1.77
4844.00,1.77
4843.00,1.77
4842.00,1.78
4841.00,1.78
4840.00,1.78
4839.00,1.79
4838.00,1.79
4837.00,1.80
4836.00,1.80
4835.00,1.81
4834.00,1.81
4833.00,1.81
4832.00,1.82
4831.00,1.82
4830.00,1.82
4829.00,1.83
4828.00,1.83
4827.00,1.83
4826.00,1.84
4825.00,1.84
4824.00,1.84
4823.00,1.84
4822.00,1.85
4821.00,1.85
4820.00,1.85
4819.00,1.85
4818.00,1.86
4817.00,1.86
4816.00,1.86
4815.00,1.86
4814.00,1.87
4813.00,1.87
4812.00,1.87
4811.00,1.87
4810.00,1.87
4809.00,1.88
4808.00,1.88
4807.00,1.88
4806.00,1.88
4805.00,1.88
4804.00,1.88
4803.00,1.88
4802.00,1.88
4801.00,1.89
4800.00,1.89
4799.00,1.89
4798.00,1.89
4797.00,1.89
4796.00,1.89
4795.00,1.89
4794.00,1.89
4793.00,1.89
4792.00,1.90
4791.00,1.90
4790.00,1.90
4789.00,1.90
4788.00,1.90
4787.00,1.91
4786.00,1.91
4785.00,1.91
4784.00,1.92
4783.00,1.92
4782.00,1.93
4781.00,1.93
4780.00,1.93
4779.00,1.94
4778.00,1.94
4777.00,1.95
4776.00,1.95
4775.00,1.96
4774.00,1.96
4773.00,1.97
4772.00,1.97
4771.00,1.98
4770.00,1.98
4769.00,1.99
4768.00,1.99
4767.00,2.00
4766.00,2.00
4765.00,2.01
4764.00,2.01
4763.00,2.01
4762.00,2.02
4761.00,2.02
4760.00,2.02
4759.00,2.02
4758.00,2.03
4757.00,2.03
4756.00,2.03
4755.00,2.03
4754.00,2.03
4753.00,2.03
4752.00,2.04
4751.00,2.04
4750.00,2.04
4749.00,2.04
4748.00,2.04
4747.00,2.04
4746.00,2.04
4745.00,2.04
4744.00,2.04
4743.00,2.04
4742.00,2.04
4741.00,2.04
4740.00,2.05
4739.00,2.05
4738.00,2.05
4737.00,2.06
4736.00,2.06
4735.00,2.06
4734.00,2.07
4733.00,2.08
4732.00,2.08
4731.00,2.09
4730.00,2.09
4729.00,2.10
4728.00,2.11
4727.00,2.12
4726.00,2.12
4725.00,2.13
4724.00,2.14
4723.00,2.15
4722.00,2.15
4721.00,2.16
4720.00,2.17
4719.00,2.18
4718.00,2.18
4717.00,2.19
4716.00,2.20
4715.00,2.21
4714.00,2.21
4713.00,2.22
4712.00,2.22
4711.00,2.23
4710.00,2.23
4709.00,2.24
4708.00,2.24
4707.00,2.24
4706.00,2.25
4705.00,2.25
4704.00,2.25
4703.00,2.25
4702.00,2.26
4701.00,2.26
4700.00,2.26
4699.00,2.26
4698.00,2.26
4697.00,2.26
4696.00,2.27
4695.00,2.27
4694.00,2.27
4693.00,2.27
4692.00,2.27
4691.00,2.27
4690.00,2.27
4689.00,2.27
4688.00,2.27
4687.00,2.28
4686.00,2.28
4685.00,2.28
4684.00,2.28
4683.00,2.28
4682.00,2.29
4681.00,2.29
4680.00,2.29
4679.00,2.30
4678.00,2.30
4677.00,2.30
4676.00,2.30
4675.00,2.30
4674.00,2.30
4673.00,2.30
4672.00,2.31
4671.00,2.31
4670.00,2.31
4669.00,2.31
4668.00,2.31
4667.00,2.31
4666.00,2.32
4665.00,2.32
4664.00,2.32
4663.00,2.32
4662.00,2.32
4661.00,2.32
4660.00,2.32
4659.00,2.32
4658.00,2.32
4657.00,2.32
4656.00,2.32
4655.00,2.32
4654.00,2.32
4653.00,2.32
4652.00,2.32
4651.00,2.32
4650.00,2.33
4649.00,2.33
4648.00,2.33
4647.00,2.33
4646.00,2.33
4645.00,2.34
4644.00,2.34
4643.00,2.34
4642.00,2.34
4641.00,2.35
4640.00,2.35
4639.00,2.35
4638.00,2.36
4637.00,2.36
4636.00,2.36
4635.00,2.36
4634.00,2.37
4633.00,2.37
4632.00,2.37
4631.00,2.37
4630.00,2.38
4629.00,2.38
4628.00,2.39
4627.00,2.39
4626.00,2.39
4625.00,2.40
4624.00,2.40
4623.00,2.40
4622.00,2.41
4621.00,2.41
4620.00,2.41
4619.00,2.41
4618.00,2.42
4617.00,2.42
4616.00,2.42
4615.00,2.42
4614.00,2.43
4613.00,2.43
4612.00,2.43
4611.00,2.43
4610.00,2.44
4609.00,2.44
4608.00,2.44
4607.00,2.45
4606.00,2.45
4605.00,2.45
4604.00,2.45
4603.00,2.45
4602.00,2.45
4601.00,2.45
4600.00,2.45
4599.00,2.45
4598.00,2.45
4597.00,2.45
4596.00,2.46
4595.00,2.46
4594.00,2.46
4593.00,2.46
4592.00,2.46
4591.00,2.46
4590.00,2.46
4589.00,2.45
4588.00,2.45
4587.00,2.45
4586.00,2.45
4585.00,2.45
4584.00,2.45
4583.00,2.45
4582.00,2.45
4581.00,2.45
4580.00,2.45
4579.00,2.45
4578.00,2.45
4577.00,2.45
4576.00,2.45
4575.00,2.45
4574.00,2.45
4573.00,2.45
4572.00,2.46
4571.00,2.46
4570.00,2.46
4569.00,2.46
4568.00,2.46
4567.00,2.46
4566.00,2.46
4565.00,2.46
4564.00,2.46
4563.00,2.46
4562.00,2.46
4561.00,2.46
4560.00,2.46
4559.00,2.47
4558.00,2.47
4557.00,2.47
4556.00,2.47
4555.00,2.47
4554.00,2.47
4553.00,2.47
4552.00,2.47
4551.00,2.47
4550.00,2.47
4549.00,2.47
4548.00,2.47
4547.00,2.47
4546.00,2.47
4545.00,2.46
4544.00,2.46
4543.00,2.46
4542.00,2.46
4541.00,2.46
4540.00,2.46
4539.00,2.46
4538.00,2.46
4537.00,2.46
4536.00,2.46
4535.00,2.46
4534.00,2.46
4533.00,2.46
4532.00,2.45
4531.00,2.45
4530.00,2.45
4529.00,2.45
4528.00,2.44
4527.00,2.44
4526.00,2.44
4525.00,2.44
4524.00,2.44
4523.00,2.44
4522.00,2.44
4521.00,2.44
4520.00,2.44
4519.00,2.44
4518.00,2.44
4517.00,2.43
4516.00,2.43
4515.00,2.43
4514.00,2.43
4513.00,2.43
4512.00,2.43
4511.00,2.43
4510.00,2.43
4509.00,2.43
4508.00,2.43
4507.00,2.43
4506.00,2.43
4505.00,2.43
4504.00,2.43
4503.00,2.43
4502.00,2.43
4501.00,2.43
4500.00,2.43
4499.00,2.43
4498.00,2.44
4497.00,2.44
4496.00,2.44
4495.00,2.44
4494.00,2.44
4493.00,2.44
4492.00,2.44
4491.00,2.44
4490.00,2.45
4489.00,2.45
4488.00,2.45
4487.00,2.46
4486.00,2.46
4485.00,2.46
4484.00,2.47
4483.00,2.47
4482.00,2.47
4481.00,2.48
4480.00,2.48
4479.00,2.48
4478.00,2.49
4477.00,2.49
4476.00,2.49
4475.00,2.50
4474.00,2.50
4473.00,2.50
4472.00,2.50
4471.00,2.50
4470.00,2.50
4469.00,2.50
4468.00,2.51
4467.00,2.51
4466.00,2.50
4465.00,2.50
4464.00,2.50
4463.00,2.50
4462.00,2.50
4461.00,2.49
4460.00,2.49
4459.00,2.48
4458.00,2.47
4457.00,2.47
4456.00,2.46
4455.00,2.45
4454.00,2.45
4453.00,2.44
4452.00,2.43
4451.00,2.42
4450.00,2.41
4449.00,2.40
4448.00,2.39
4447.00,2.38
4446.00,2.37
4445.00,2.36
4444.00,2.35
4443.00,2.34
4442.00,2.33
4441.00,2.32
4440.00,2.31
4439.00,2.30
4438.00,2.29
4437.00,2.28
4436.00,2.27
4435.00,2.26
4434.00,2.25
4433.00,2.24
4432.00,2.23
4431.00,2.22
4430.00,2.21
4429.00,2.20
4428.00,2.19
4427.00,2.18
4426.00,2.17
4425.00,2.17
4424.00,2.16
4423.00,2.16
4422.00,2.15
4421.00,2.15
4420.00,2.15
4419.00,2.14
4418.00,2.14
4417.00,2.14
4416.00,2.14
4415.00,2.14
4414.00,2.14
4413.00,2.14
4412.00,2.14
4411.00,2.15
4410.00,2.15
4409.00,2.15
4408.00,2.15
4407.00,2.16
4406.00,2.16
4405.00,2.16
4404.00,2.17
4403.00,2.17
4402.00,2.18
4401.00,2.18
4400.00,2.19
4399.00,2.19
4398.00,2.20
4397.00,2.20
4396.00,2.21
4395.00,2.21
4394.00,2.21
4393.00,2.22
4392.00,2.22
4391.00,2.23
4390.00,2.23
4389.00,2.23
4388.00,2.24
4387.00,2.24
4386.00,2.24
4385.00,2.25
4384.00,2.25
4383.00,2.25
4382.00,2.25
4381.00,2.26
4380.00,2.26
4379.00,2.26
4378.00,2.26
4377.00,2.26
4376.00,2.26
4375.00,2.26
4374.00,2.26
4373.00,2.26
4372.00,2.26
4371.00,2.26
4370.00,2.26
4369.00,2.26
4368.00,2.26
4367.00,2.25
4366.00,2.25
4365.00,2.25
4364.00,2.25
4363.00,2.24
4362.00,2.24
4361.00,2.23
4360.00,2.23
4359.00,2.23
4358.00,2.22
4357.00,2.22
4356.00,2.21
4355.00,2.21
4354.00,2.20
4353.00,2.20
4352.00,2.19
4351.00,2.19
4350.00,2.18
4349.00,2.18
4348.00,2.18
4347.00,2.17
4346.00,2.17
4345.00,2.17
4344.00,2.17
4343.00,2.17
4342.00,2.17
4341.00,2.17
4340.00,2.17
4339.00,2.18
4338.00,2.18
4337.00,2.18
4336.00,2.18
4335.00,2.19
4334.00,2.19
4333.00,2.20
4332.00,2.20
4331.00,2.21
4330.00,2.21
4329.00,2.22
4328.00,2.23
4327.00,2.23
4326.00,2.24
4325.00,2.24
4324.00,2.25
4323.00,2.26
4322.00,2.26
4321.00,2.27
4320.00,2.28
4319.00,2.28
4318.00,2.29
4317.00,2.29
4316.00,2.30
4315.00,2.30
4314.00,2.31
4313.00,2.31
4312.00,2.32
4311.00,2.32
4310.00,2.33
4309.00,2.33
4308.00,2.33
4307.00,2.33
4306.00,2.34
4305.00,2.34
4304.00,2.35
4303.00,2.35
4302.00,2.36
4301.00,2.36
4300.00,2.37
4299.00,2.38
4298.00,2.38
4297.00,2.39
4296.00,2.40
4295.00,2.40
4294.00,2.41
4293.00,2.41
4292.00,2.41
4291.00,2.42
4290.00,2.42
4289.00,2.42
4288.00,2.43
4287.00,2.43
4286.00,2.44
4285.00,2.44
4284.00,2.44
4283.00,2.45
4282.00,2.45
4281.00,2.45
4280.00,2.46
4279.00,2.46
4278.00,2.46
4277.00,2.46
4276.00,2.45
4275.00,2.45
4274.00,2.44
4273.00,2.44
4272.00,2.43
4271.00,2.42
4270.00,2.42
4269.00,2.41
4268.00,2.41
4267.00,2.40
4266.00,2.40
4265.00,2.39
4264.00,2.39
4263.00,2.38
4262.00,2.37
4261.00,2.36
4260.00,2.36
4259.00,2.35
4258.00,2.34
4257.00,2.33
4256.00,2.33
4255.00,2.32
4254.00,2.32
4253.00,2.31
4252.00,2.31
4251.00,2.31
4250.00,2.31
4249.00,2.31
4248.00,2.31
4247.00,2.31
4246.00,2.31
4245.00,2.31
4244.00,2.32
4243.00,2.32
4242.00,2.32
4241.00,2.33
4240.00,2.33
4239.00,2.33
4238.00,2.33
4237.00,2.34
4236.00,2.34
4235.00,2.35
4234.00,2.35
4233.00,2.36
4232.00,2.36
4231.00,2.37
4230.00,2.37
4229.00,2.37
4228.00,2.38
4227.00,2.38
4226.00,2.38
4225.00,2.39
4224.00,2.39
4223.00,2.39
4222.00,2.39
4221.00,2.40
4220.00,2.40
4219.00,2.40
4218.00,2.40
4217.00,2.40
4216.00,2.41
4215.00,2.41
4214.00,2.41
4213.00,2.41
4212.00,2.41
4211.00,2.41
4210.00,2.41
4209.00,2.41
4208.00,2.41
4207.00,2.41
4206.00,2.41
4205.00,2.41
4204.00,2.41
4203.00,2.41
4202.00,2.41
4201.00,2.41
4200.00,2.41
4199.00,2.41
4198.00,2.41
4197.00,2.40
4196.00,2.40
4195.00,2.40
4194.00,2.39
4193.00,2.39
4192.00,2.39
4191.00,2.38
4190.00,2.38
4189.00,2.38
4188.00,2.38
4187.00,2.38
4186.00,2.38
4185.00,2.38
4184.00,2.38
4183.00,2.38
4182.00,2.38
4181.00,2.38
4180.00,2.38
4179.00,2.38
4178.00,2.38
4177.00,2.38
4176.00,2.38
4175.00,2.38
4174.00,2.38
4173.00,2.38
4172.00,2.38
4171.00,2.38
4170.00,2.38
4169.00,2.38
4168.00,2.38
4167.00,2.38
4166.00,2.38
4165.00,2.38
4164.00,2.38
4163.00,2.38
4162.00,2.38
4161.00,2.37
4160.00,2.37
4159.00,2.36
4158.00,2.36
4157.00,2.36
4156.00,2.35
4155.00,2.35
4154.00,2.34
4153.00,2.34
4152.00,2.34
4151.00,2.33
4150.00,2.33
4149.00,2.33
4148.00,2.33
4147.00,2.32
4146.00,2.32
4145.00,2.31
4144.00,2.31
4143.00,2.30
4142.00,2.30
4141.00,2.29
4140.00,2.29
4139.00,2.28
4138.00,2.28
4137.00,2.27
4136.00,2.27
4135.00,2.26
4134.00,2.26
4133.00,2.26
4132.00,2.26
4131.00,2.25
4130.00,2.25
4129.00,2.25
4128.00,2.24
4127.00,2.24
4126.00,2.23
4125.00,2.22
4124.00,2.22
4123.00,2.21
4122.00,2.21
4121.00,2.20
4120.00,2.20
4119.00,2.20
4118.00,2.19
4117.00,2.20
4116.00,2.20
4115.00,2.20
4114.00,2.20
4113.00,2.21
4112.00,2.21
4111.00,2.21
4110.00,2.22
4109.00,2.22
4108.00,2.22
4107.00,2.23
4106.00,2.23
4105.00,2.24
4104.00,2.24
4103.00,2.25
4102.00,2.25
4101.00,2.26
4100.00,2.27
4099.00,2.27
4098.00,2.28
4097.00,2.29
4096.00,2.30
4095.00,2.31
4094.00,2.32
4093.00,2.32
4092.00,2.32
4091.00,2.33
4090.00,2.33
4089.00,2.33
4088.00,2.33
4087.00,2.32
4086.00,2.32
4085.00,2.32
4084.00,2.31
4083.00,2.31
4082.00,2.30
4081.00,2.30
4080.00,2.29
4079.00,2.28
4078.00,2.27
4077.00,2.27
4076.00,2.26
4075.00,2.25
4074.00,2.24
4073.00,2.23
4072.00,2.22
4071.00,2.21
4070.00,2.20
4069.00,2.19
4068.00,2.18
4067.00,2.17
4066.00,2.16
4065.00,2.15
4064.00,2.15
4063.00,2.14
4062.00,2.13
4061.00,2.13
4060.00,2.13
4059.00,2.12
4058.00,2.12
4057.00,2.11
4056.00,2.11
4055.00,2.11
4054.00,2.11
4053.00,2.10
4052.00,2.10
4051.00,2.10
4050.00,2.10
4049.00,2.11
4048.00,2.11
4047.00,2.11
4046.00,2.11
4045.00,2.11
4044.00,2.11
4043.00,2.11
4042.00,2.11
4041.00,2.10
4040.00,2.10
4039.00,2.10
4038.00,2.09
4037.00,2.09
4036.00,2.09
4035.00,2.09
4034.00,2.10
4033.00,2.10
4032.00,2.10
4031.00,2.11
4030.00,2.12
4029.00,2.13
4028.00,2.14
4027.00,2.15
4026.00,2.16
4025.00,2.17
4024.00,2.18
4023.00,2.19
4022.00,2.20
4021.00,2.21
4020.00,2.22
4019.00,2.23
4018.00,2.24
4017.00,2.25
4016.00,2.27
4015.00,2.29
4014.00,2.30
4013.00,2.32
4012.00,2.34
4011.00,2.35
4010.00,2.37
4009.00,2.39
4008.00,2.40
4007.00,2.42
4006.00,2.43
4005.00,2.45
4004.00,2.46
4003.00,2.47
4002.00,2.48
4001.00,2.49
4000.00,2.49
