创建为新数据集,样品 1083 用户 Administrator 日期 星期二, 七月 30 2019
cm-1,%T
10000.00,2.46
9999.00,2.43
9998.00,2.41
9997.00,2.38
9996.00,2.35
9995.00,2.32
9994.00,2.29
9993.00,2.26
9992.00,2.23
9991.00,2.20
9990.00,2.17
9989.00,2.14
9988.00,2.11
9987.00,2.08
9986.00,2.05
9985.00,2.03
9984.00,2.01
9983.00,1.99
9982.00,1.97
9981.00,1.96
9980.00,1.95
9979.00,1.93
9978.00,1.92
9977.00,1.91
9976.00,1.91
9975.00,1.90
9974.00,1.89
9973.00,1.88
9972.00,1.87
9971.00,1.87
9970.00,1.87
9969.00,1.87
9968.00,1.87
9967.00,1.88
9966.00,1.89
9965.00,1.91
9964.00,1.92
9963.00,1.94
9962.00,1.95
9961.00,1.97
9960.00,1.99
9959.00,2.00
9958.00,2.02
9957.00,2.03
9956.00,2.05
9955.00,2.06
9954.00,2.06
9953.00,2.07
9952.00,2.08
9951.00,2.08
9950.00,2.09
9949.00,2.09
9948.00,2.09
9947.00,2.10
9946.00,2.10
9945.00,2.10
9944.00,2.10
9943.00,2.10
9942.00,2.10
9941.00,2.10
9940.00,2.09
9939.00,2.08
9938.00,2.07
9937.00,2.06
9936.00,2.05
9935.00,2.03
9934.00,2.02
9933.00,2.00
9932.00,1.98
9931.00,1.96
9930.00,1.93
9929.00,1.91
9928.00,1.88
9927.00,1.86
9926.00,1.83
9925.00,1.81
9924.00,1.78
9923.00,1.75
9922.00,1.72
9921.00,1.69
9920.00,1.66
9919.00,1.63
9918.00,1.60
9917.00,1.57
9916.00,1.54
9915.00,1.52
9914.00,1.49
9913.00,1.46
9912.00,1.44
9911.00,1.42
9910.00,1.40
9909.00,1.39
9908.00,1.37
9907.00,1.36
9906.00,1.35
9905.00,1.34
9904.00,1.34
9903.00,1.33
9902.00,1.33
9901.00,1.33
9900.00,1.33
9899.00,1.33
9898.00,1.34
9897.00,1.34
9896.00,1.35
9895.00,1.36
9894.00,1.38
9893.00,1.39
9892.00,1.41
9891.00,1.42
9890.00,1.44
9889.00,1.45
9888.00,1.47
9887.00,1.48
9886.00,1.49
9885.00,1.49
9884.00,1.50
9883.00,1.50
9882.00,1.50
9881.00,1.50
9880.00,1.49
9879.00,1.49
9878.00,1.49
9877.00,1.48
9876.00,1.48
9875.00,1.48
9874.00,1.48
9873.00,1.48
9872.00,1.47
9871.00,1.47
9870.00,1.47
9869.00,1.47
9868.00,1.46
9867.00,1.45
9866.00,1.44
9865.00,1.43
9864.00,1.42
9863.00,1.41
9862.00,1.39
9861.00,1.38
9860.00,1.37
9859.00,1.36
9858.00,1.35
9857.00,1.34
9856.00,1.34
9855.00,1.34
9854.00,1.34
9853.00,1.35
9852.00,1.36
9851.00,1.36
9850.00,1.37
9849.00,1.38
9848.00,1.38
9847.00,1.39
9846.00,1.39
9845.00,1.39
9844.00,1.40
9843.00,1.40
9842.00,1.41
9841.00,1.41
9840.00,1.43
9839.00,1.44
9838.00,1.47
9837.00,1.49
9836.00,1.52
9835.00,1.55
9834.00,1.59
9833.00,1.62
9832.00,1.66
9831.00,1.70
9830.00,1.73
9829.00,1.76
9828.00,1.79
9827.00,1.82
9826.00,1.84
9825.00,1.87
9824.00,1.89
9823.00,1.91
9822.00,1.93
9821.00,1.95
9820.00,1.97
9819.00,1.99
9818.00,2.01
9817.00,2.03
9816.00,2.05
9815.00,2.06
9814.00,2.08
9813.00,2.09
9812.00,2.09
9811.00,2.09
9810.00,2.09
9809.00,2.08
9808.00,2.06
9807.00,2.05
9806.00,2.02
9805.00,2.00
9804.00,1.98
9803.00,1.95
9802.00,1.93
9801.00,1.90
9800.00,1.88
9799.00,1.86
9798.00,1.84
9797.00,1.82
9796.00,1.80
9795.00,1.78
9794.00,1.76
9793.00,1.74
9792.00,1.72
9791.00,1.70
9790.00,1.67
9789.00,1.65
9788.00,1.62
9787.00,1.59
9786.00,1.56
9785.00,1.53
9784.00,1.50
9783.00,1.48
9782.00,1.45
9781.00,1.42
9780.00,1.40
9779.00,1.38
9778.00,1.35
9777.00,1.33
9776.00,1.30
9775.00,1.28
9774.00,1.26
9773.00,1.24
9772.00,1.21
9771.00,1.19
9770.00,1.17
9769.00,1.15
9768.00,1.14
9767.00,1.12
9766.00,1.10
9765.00,1.09
9764.00,1.08
9763.00,1.07
9762.00,1.07
9761.00,1.07
9760.00,1.07
9759.00,1.07
9758.00,1.08
9757.00,1.09
9756.00,1.10
9755.00,1.11
9754.00,1.12
9753.00,1.13
9752.00,1.15
9751.00,1.17
9750.00,1.18
9749.00,1.20
9748.00,1.22
9747.00,1.24
9746.00,1.26
9745.00,1.28
9744.00,1.29
9743.00,1.31
9742.00,1.32
9741.00,1.33
9740.00,1.34
9739.00,1.35
9738.00,1.35
9737.00,1.35
9736.00,1.36
9735.00,1.36
9734.00,1.36
9733.00,1.36
9732.00,1.36
9731.00,1.37
9730.00,1.37
9729.00,1.38
9728.00,1.39
9727.00,1.40
9726.00,1.41
9725.00,1.42
9724.00,1.43
9723.00,1.44
9722.00,1.45
9721.00,1.46
9720.00,1.47
9719.00,1.48
9718.00,1.50
9717.00,1.51
9716.00,1.52
9715.00,1.53
9714.00,1.55
9713.00,1.57
9712.00,1.58
9711.00,1.60
9710.00,1.62
9709.00,1.64
9708.00,1.65
9707.00,1.67
9706.00,1.68
9705.00,1.69
9704.00,1.69
9703.00,1.70
9702.00,1.70
9701.00,1.69
9700.00,1.69
9699.00,1.67
9698.00,1.66
9697.00,1.65
9696.00,1.63
9695.00,1.61
9694.00,1.60
9693.00,1.58
9692.00,1.56
9691.00,1.54
9690.00,1.52
9689.00,1.51
9688.00,1.49
9687.00,1.47
9686.00,1.46
9685.00,1.44
9684.00,1.42
9683.00,1.41
9682.00,1.39
9681.00,1.37
9680.00,1.35
9679.00,1.34
9678.00,1.32
9677.00,1.31
9676.00,1.30
9675.00,1.29
9674.00,1.29
9673.00,1.28
9672.00,1.28
9671.00,1.28
9670.00,1.29
9669.00,1.29
9668.00,1.29
9667.00,1.29
9666.00,1.30
9665.00,1.30
9664.00,1.30
9663.00,1.30
9662.00,1.30
9661.00,1.30
9660.00,1.30
9659.00,1.29
9658.00,1.29
9657.00,1.29
9656.00,1.29
9655.00,1.29
9654.00,1.30
9653.00,1.30
9652.00,1.31
9651.00,1.31
9650.00,1.32
9649.00,1.33
9648.00,1.34
9647.00,1.34
9646.00,1.35
9645.00,1.35
9644.00,1.36
9643.00,1.36
9642.00,1.36
9641.00,1.37
9640.00,1.37
9639.00,1.37
9638.00,1.37
9637.00,1.38
9636.00,1.38
9635.00,1.39
9634.00,1.40
9633.00,1.41
9632.00,1.42
9631.00,1.43
9630.00,1.44
9629.00,1.45
9628.00,1.46
9627.00,1.46
9626.00,1.47
9625.00,1.47
9624.00,1.47
9623.00,1.47
9622.00,1.47
9621.00,1.46
9620.00,1.46
9619.00,1.46
9618.00,1.45
9617.00,1.45
9616.00,1.45
9615.00,1.45
9614.00,1.45
9613.00,1.45
9612.00,1.45
9611.00,1.45
9610.00,1.45
9609.00,1.45
9608.00,1.45
9607.00,1.45
9606.00,1.44
9605.00,1.44
9604.00,1.44
9603.00,1.43
9602.00,1.43
9601.00,1.43
9600.00,1.43
9599.00,1.43
9598.00,1.43
9597.00,1.44
9596.00,1.44
9595.00,1.45
9594.00,1.45
9593.00,1.46
9592.00,1.47
9591.00,1.47
9590.00,1.48
9589.00,1.49
9588.00,1.49
9587.00,1.50
9586.00,1.50
9585.00,1.51
9584.00,1.51
9583.00,1.52
9582.00,1.52
9581.00,1.53
9580.00,1.53
9579.00,1.53
9578.00,1.54
9577.00,1.54
9576.00,1.54
9575.00,1.55
9574.00,1.55
9573.00,1.55
9572.00,1.55
9571.00,1.55
9570.00,1.56
9569.00,1.56
9568.00,1.55
9567.00,1.55
9566.00,1.55
9565.00,1.55
9564.00,1.55
9563.00,1.54
9562.00,1.54
9561.00,1.53
9560.00,1.53
9559.00,1.53
9558.00,1.52
9557.00,1.52
9556.00,1.51
9555.00,1.51
9554.00,1.51
9553.00,1.50
9552.00,1.50
9551.00,1.49
9550.00,1.49
9549.00,1.48
9548.00,1.48
9547.00,1.47
9546.00,1.46
9545.00,1.45
9544.00,1.45
9543.00,1.44
9542.00,1.43
9541.00,1.42
9540.00,1.41
9539.00,1.40
9538.00,1.40
9537.00,1.39
9536.00,1.38
9535.00,1.38
9534.00,1.38
9533.00,1.37
9532.00,1.37
9531.00,1.37
9530.00,1.37
9529.00,1.37
9528.00,1.37
9527.00,1.38
9526.00,1.38
9525.00,1.39
9524.00,1.40
9523.00,1.41
9522.00,1.42
9521.00,1.44
9520.00,1.45
9519.00,1.47
9518.00,1.50
9517.00,1.52
9516.00,1.55
9515.00,1.57
9514.00,1.60
9513.00,1.63
9512.00,1.66
9511.00,1.69
9510.00,1.72
9509.00,1.75
9508.00,1.78
9507.00,1.80
9506.00,1.83
9505.00,1.85
9504.00,1.87
9503.00,1.89
9502.00,1.91
9501.00,1.93
9500.00,1.94
9499.00,1.96
9498.00,1.97
9497.00,1.97
9496.00,1.98
9495.00,1.98
9494.00,1.98
9493.00,1.97
9492.00,1.96
9491.00,1.95
9490.00,1.94
9489.00,1.92
9488.00,1.90
9487.00,1.88
9486.00,1.86
9485.00,1.84
9484.00,1.82
9483.00,1.80
9482.00,1.78
9481.00,1.76
9480.00,1.74
9479.00,1.73
9478.00,1.71
9477.00,1.70
9476.00,1.69
9475.00,1.68
9474.00,1.67
9473.00,1.66
9472.00,1.65
9471.00,1.65
9470.00,1.65
9469.00,1.64
9468.00,1.64
9467.00,1.64
9466.00,1.65
9465.00,1.65
9464.00,1.66
9463.00,1.68
9462.00,1.69
9461.00,1.70
9460.00,1.72
9459.00,1.73
9458.00,1.75
9457.00,1.76
9456.00,1.78
9455.00,1.80
9454.00,1.81
9453.00,1.82
9452.00,1.84
9451.00,1.84
9450.00,1.85
9449.00,1.86
9448.00,1.87
9447.00,1.87
9446.00,1.87
9445.00,1.88
9444.00,1.88
9443.00,1.88
9442.00,1.89
9441.00,1.89
9440.00,1.89
9439.00,1.88
9438.00,1.88
9437.00,1.87
9436.00,1.87
9435.00,1.86
9434.00,1.85
9433.00,1.85
9432.00,1.84
9431.00,1.83
9430.00,1.82
9429.00,1.82
9428.00,1.81
9427.00,1.81
9426.00,1.80
9425.00,1.80
9424.00,1.79
9423.00,1.79
9422.00,1.79
9421.00,1.79
9420.00,1.79
9419.00,1.79
9418.00,1.80
9417.00,1.80
9416.00,1.81
9415.00,1.82
9414.00,1.83
9413.00,1.84
9412.00,1.86
9411.00,1.88
9410.00,1.90
9409.00,1.91
9408.00,1.93
9407.00,1.95
9406.00,1.97
9405.00,1.98
9404.00,1.99
9403.00,2.01
9402.00,2.02
9401.00,2.03
9400.00,2.05
9399.00,2.06
9398.00,2.07
9397.00,2.08
9396.00,2.09
9395.00,2.10
9394.00,2.10
9393.00,2.11
9392.00,2.11
9391.00,2.11
9390.00,2.11
9389.00,2.11
9388.00,2.10
9387.00,2.09
9386.00,2.07
9385.00,2.06
9384.00,2.04
9383.00,2.02
9382.00,2.00
9381.00,1.98
9380.00,1.96
9379.00,1.94
9378.00,1.92
9377.00,1.90
9376.00,1.88
9375.00,1.87
9374.00,1.85
9373.00,1.83
9372.00,1.81
9371.00,1.79
9370.00,1.76
9369.00,1.74
9368.00,1.72
9367.00,1.70
9366.00,1.68
9365.00,1.66
9364.00,1.64
9363.00,1.62
9362.00,1.61
9361.00,1.59
9360.00,1.57
9359.00,1.56
9358.00,1.55
9357.00,1.53
9356.00,1.52
9355.00,1.52
9354.00,1.51
9353.00,1.50
9352.00,1.49
9351.00,1.49
9350.00,1.48
9349.00,1.48
9348.00,1.47
9347.00,1.47
9346.00,1.47
9345.00,1.47
9344.00,1.47
9343.00,1.47
9342.00,1.48
9341.00,1.49
9340.00,1.50
9339.00,1.51
9338.00,1.52
9337.00,1.53
9336.00,1.54
9335.00,1.56
9334.00,1.57
9333.00,1.58
9332.00,1.60
9331.00,1.61
9330.00,1.63
9329.00,1.64
9328.00,1.66
9327.00,1.67
9326.00,1.68
9325.00,1.69
9324.00,1.71
9323.00,1.72
9322.00,1.73
9321.00,1.74
9320.00,1.75
9319.00,1.76
9318.00,1.77
9317.00,1.78
9316.00,1.79
9315.00,1.80
9314.00,1.81
9313.00,1.82
9312.00,1.83
9311.00,1.84
9310.00,1.85
9309.00,1.85
9308.00,1.86
9307.00,1.86
9306.00,1.87
9305.00,1.87
9304.00,1.87
9303.00,1.88
9302.00,1.88
9301.00,1.89
9300.00,1.89
9299.00,1.89
9298.00,1.90
9297.00,1.90
9296.00,1.91
9295.00,1.91
9294.00,1.91
9293.00,1.92
9292.00,1.92
9291.00,1.92
9290.00,1.92
9289.00,1.91
9288.00,1.91
9287.00,1.90
9286.00,1.90
9285.00,1.89
9284.00,1.89
9283.00,1.88
9282.00,1.88
9281.00,1.88
9280.00,1.88
9279.00,1.89
9278.00,1.89
9277.00,1.90
9276.00,1.91
9275.00,1.91
9274.00,1.92
9273.00,1.93
9272.00,1.94
9271.00,1.95
9270.00,1.95
9269.00,1.96
9268.00,1.96
9267.00,1.96
9266.00,1.96
9265.00,1.96
9264.00,1.96
9263.00,1.96
9262.00,1.95
9261.00,1.95
9260.00,1.94
9259.00,1.94
9258.00,1.93
9257.00,1.92
9256.00,1.91
9255.00,1.90
9254.00,1.89
9253.00,1.87
9252.00,1.85
9251.00,1.83
9250.00,1.81
9249.00,1.78
9248.00,1.75
9247.00,1.72
9246.00,1.69
9245.00,1.66
9244.00,1.63
9243.00,1.60
9242.00,1.58
9241.00,1.56
9240.00,1.54
9239.00,1.52
9238.00,1.50
9237.00,1.49
9236.00,1.48
9235.00,1.47
9234.00,1.47
9233.00,1.46
9232.00,1.45
9231.00,1.45
9230.00,1.44
9229.00,1.44
9228.00,1.44
9227.00,1.43
9226.00,1.43
9225.00,1.43
9224.00,1.43
9223.00,1.43
9222.00,1.44
9221.00,1.44
9220.00,1.44
9219.00,1.45
9218.00,1.45
9217.00,1.45
9216.00,1.46
9215.00,1.46
9214.00,1.46
9213.00,1.46
9212.00,1.45
9211.00,1.45
9210.00,1.45
9209.00,1.44
9208.00,1.44
9207.00,1.44
9206.00,1.44
9205.00,1.43
9204.00,1.43
9203.00,1.44
9202.00,1.44
9201.00,1.44
9200.00,1.45
9199.00,1.45
9198.00,1.46
9197.00,1.46
9196.00,1.46
9195.00,1.47
9194.00,1.47
9193.00,1.48
9192.00,1.48
9191.00,1.49
9190.00,1.50
9189.00,1.50
9188.00,1.52
9187.00,1.53
9186.00,1.54
9185.00,1.55
9184.00,1.57
9183.00,1.58
9182.00,1.60
9181.00,1.61
9180.00,1.62
9179.00,1.63
9178.00,1.64
9177.00,1.65
9176.00,1.65
9175.00,1.65
9174.00,1.65
9173.00,1.64
9172.00,1.64
9171.00,1.63
9170.00,1.63
9169.00,1.62
9168.00,1.61
9167.00,1.61
9166.00,1.60
9165.00,1.60
9164.00,1.59
9163.00,1.58
9162.00,1.56
9161.00,1.55
9160.00,1.53
9159.00,1.51
9158.00,1.49
9157.00,1.47
9156.00,1.45
9155.00,1.43
9154.00,1.41
9153.00,1.40
9152.00,1.38
9151.00,1.37
9150.00,1.36
9149.00,1.35
9148.00,1.35
9147.00,1.35
9146.00,1.35
9145.00,1.35
9144.00,1.36
9143.00,1.37
9142.00,1.38
9141.00,1.39
9140.00,1.40
9139.00,1.41
9138.00,1.43
9137.00,1.44
9136.00,1.46
9135.00,1.47
9134.00,1.49
9133.00,1.51
9132.00,1.53
9131.00,1.55
9130.00,1.57
9129.00,1.60
9128.00,1.61
9127.00,1.63
9126.00,1.65
9125.00,1.66
9124.00,1.68
9123.00,1.69
9122.00,1.69
9121.00,1.70
9120.00,1.70
9119.00,1.70
9118.00,1.71
9117.00,1.70
9116.00,1.70
9115.00,1.70
9114.00,1.70
9113.00,1.69
9112.00,1.69
9111.00,1.69
9110.00,1.69
9109.00,1.69
9108.00,1.69
9107.00,1.69
9106.00,1.69
9105.00,1.69
9104.00,1.69
9103.00,1.69
9102.00,1.69
9101.00,1.70
9100.00,1.70
9099.00,1.71
9098.00,1.72
9097.00,1.73
9096.00,1.74
9095.00,1.75
9094.00,1.77
9093.00,1.79
9092.00,1.81
9091.00,1.82
9090.00,1.84
9089.00,1.86
9088.00,1.88
9087.00,1.90
9086.00,1.91
9085.00,1.92
9084.00,1.93
9083.00,1.94
9082.00,1.94
9081.00,1.94
9080.00,1.94
9079.00,1.94
9078.00,1.94
9077.00,1.94
9076.00,1.93
9075.00,1.93
9074.00,1.92
9073.00,1.92
9072.00,1.91
9071.00,1.91
9070.00,1.90
9069.00,1.89
9068.00,1.88
9067.00,1.88
9066.00,1.87
9065.00,1.86
9064.00,1.85
9063.00,1.83
9062.00,1.82
9061.00,1.81
9060.00,1.80
9059.00,1.79
9058.00,1.79
9057.00,1.79
9056.00,1.78
9055.00,1.79
9054.00,1.79
9053.00,1.79
9052.00,1.80
9051.00,1.81
9050.00,1.82
9049.00,1.83
9048.00,1.84
9047.00,1.84
9046.00,1.85
9045.00,1.85
9044.00,1.85
9043.00,1.85
9042.00,1.85
9041.00,1.85
9040.00,1.84
9039.00,1.83
9038.00,1.83
9037.00,1.82
9036.00,1.81
9035.00,1.80
9034.00,1.80
9033.00,1.79
9032.00,1.78
9031.00,1.78
9030.00,1.77
9029.00,1.76
9028.00,1.75
9027.00,1.74
9026.00,1.73
9025.00,1.72
9024.00,1.70
9023.00,1.69
9022.00,1.67
9021.00,1.66
9020.00,1.65
9019.00,1.64
9018.00,1.64
9017.00,1.63
9016.00,1.63
9015.00,1.63
9014.00,1.63
9013.00,1.64
9012.00,1.65
9011.00,1.65
9010.00,1.66
9009.00,1.67
9008.00,1.68
9007.00,1.69
9006.00,1.70
9005.00,1.72
9004.00,1.73
9003.00,1.74
9002.00,1.76
9001.00,1.78
9000.00,1.80
8999.00,1.82
8998.00,1.84
8997.00,1.86
8996.00,1.88
8995.00,1.90
8994.00,1.93
8993.00,1.95
8992.00,1.97
8991.00,1.98
8990.00,2.00
8989.00,2.02
8988.00,2.03
8987.00,2.05
8986.00,2.06
8985.00,2.08
8984.00,2.09
8983.00,2.11
8982.00,2.12
8981.00,2.13
8980.00,2.14
8979.00,2.14
8978.00,2.15
8977.00,2.15
8976.00,2.15
8975.00,2.14
8974.00,2.14
8973.00,2.13
8972.00,2.12
8971.00,2.11
8970.00,2.10
8969.00,2.09
8968.00,2.07
8967.00,2.06
8966.00,2.05
8965.00,2.04
8964.00,2.03
8963.00,2.02
8962.00,2.01
8961.00,2.00
8960.00,1.99
8959.00,1.97
8958.00,1.96
8957.00,1.94
8956.00,1.93
8955.00,1.91
8954.00,1.90
8953.00,1.89
8952.00,1.88
8951.00,1.88
8950.00,1.87
8949.00,1.87
8948.00,1.88
8947.00,1.88
8946.00,1.89
8945.00,1.90
8944.00,1.91
8943.00,1.92
8942.00,1.93
8941.00,1.94
8940.00,1.94
8939.00,1.95
8938.00,1.96
8937.00,1.97
8936.00,1.97
8935.00,1.98
8934.00,1.99
8933.00,2.01
8932.00,2.02
8931.00,2.03
8930.00,2.05
8929.00,2.06
8928.00,2.08
8927.00,2.09
8926.00,2.10
8925.00,2.11
8924.00,2.12
8923.00,2.13
8922.00,2.13
8921.00,2.13
8920.00,2.13
8919.00,2.12
8918.00,2.12
8917.00,2.11
8916.00,2.10
8915.00,2.10
8914.00,2.09
8913.00,2.08
8912.00,2.08
8911.00,2.07
8910.00,2.06
8909.00,2.05
8908.00,2.04
8907.00,2.03
8906.00,2.02
8905.00,2.01
8904.00,1.99
8903.00,1.97
8902.00,1.96
8901.00,1.94
8900.00,1.92
8899.00,1.91
8898.00,1.89
8897.00,1.88
8896.00,1.87
8895.00,1.85
8894.00,1.84
8893.00,1.83
8892.00,1.82
8891.00,1.81
8890.00,1.79
8889.00,1.78
8888.00,1.77
8887.00,1.76
8886.00,1.75
8885.00,1.74
8884.00,1.73
8883.00,1.72
8882.00,1.72
8881.00,1.71
8880.00,1.70
8879.00,1.69
8878.00,1.68
8877.00,1.68
8876.00,1.68
8875.00,1.67
8874.00,1.67
8873.00,1.67
8872.00,1.66
8871.00,1.66
8870.00,1.65
8869.00,1.65
8868.00,1.65
8867.00,1.64
8866.00,1.64
8865.00,1.64
8864.00,1.64
8863.00,1.64
8862.00,1.63
8861.00,1.63
8860.00,1.63
8859.00,1.63
8858.00,1.62
8857.00,1.62
8856.00,1.62
8855.00,1.62
8854.00,1.61
8853.00,1.61
8852.00,1.61
8851.00,1.61
8850.00,1.61
8849.00,1.62
8848.00,1.62
8847.00,1.62
8846.00,1.62
8845.00,1.62
8844.00,1.62
8843.00,1.62
8842.00,1.63
8841.00,1.63
8840.00,1.64
8839.00,1.64
8838.00,1.65
8837.00,1.66
8836.00,1.67
8835.00,1.68
8834.00,1.69
8833.00,1.71
8832.00,1.72
8831.00,1.74
8830.00,1.76
8829.00,1.77
8828.00,1.79
8827.00,1.81
8826.00,1.82
8825.00,1.84
8824.00,1.85
8823.00,1.87
8822.00,1.88
8821.00,1.90
8820.00,1.92
8819.00,1.93
8818.00,1.95
8817.00,1.97
8816.00,1.98
8815.00,2.00
8814.00,2.01
8813.00,2.02
8812.00,2.03
8811.00,2.04
8810.00,2.05
8809.00,2.05
8808.00,2.06
8807.00,2.06
8806.00,2.06
8805.00,2.06
8804.00,2.06
8803.00,2.06
8802.00,2.06
8801.00,2.06
8800.00,2.05
8799.00,2.05
8798.00,2.04
8797.00,2.03
8796.00,2.01
8795.00,2.00
8794.00,1.98
8793.00,1.96
8792.00,1.94
8791.00,1.92
8790.00,1.90
8789.00,1.88
8788.00,1.86
8787.00,1.85
8786.00,1.83
8785.00,1.82
8784.00,1.81
8783.00,1.79
8782.00,1.78
8781.00,1.77
8780.00,1.76
8779.00,1.75
8778.00,1.75
8777.00,1.74
8776.00,1.73
8775.00,1.73
8774.00,1.72
8773.00,1.72
8772.00,1.73
8771.00,1.73
8770.00,1.74
8769.00,1.75
8768.00,1.76
8767.00,1.78
8766.00,1.79
8765.00,1.81
8764.00,1.83
8763.00,1.85
8762.00,1.87
8761.00,1.88
8760.00,1.90
8759.00,1.92
8758.00,1.93
8757.00,1.95
8756.00,1.97
8755.00,1.98
8754.00,2.00
8753.00,2.02
8752.00,2.04
8751.00,2.06
8750.00,2.07
8749.00,2.09
8748.00,2.11
8747.00,2.12
8746.00,2.13
8745.00,2.15
8744.00,2.16
8743.00,2.17
8742.00,2.17
8741.00,2.18
8740.00,2.19
8739.00,2.20
8738.00,2.21
8737.00,2.21
8736.00,2.22
8735.00,2.22
8734.00,2.22
8733.00,2.22
8732.00,2.22
8731.00,2.22
8730.00,2.21
8729.00,2.21
8728.00,2.20
8727.00,2.19
8726.00,2.18
8725.00,2.17
8724.00,2.16
8723.00,2.14
8722.00,2.13
8721.00,2.12
8720.00,2.11
8719.00,2.10
8718.00,2.09
8717.00,2.08
8716.00,2.07
8715.00,2.06
8714.00,2.04
8713.00,2.03
8712.00,2.02
8711.00,2.01
8710.00,2.00
8709.00,1.99
8708.00,1.98
8707.00,1.97
8706.00,1.96
8705.00,1.96
8704.00,1.95
8703.00,1.95
8702.00,1.94
8701.00,1.94
8700.00,1.93
8699.00,1.92
8698.00,1.91
8697.00,1.90
8696.00,1.89
8695.00,1.87
8694.00,1.86
8693.00,1.84
8692.00,1.82
8691.00,1.80
8690.00,1.78
8689.00,1.76
8688.00,1.74
8687.00,1.72
8686.00,1.70
8685.00,1.68
8684.00,1.66
8683.00,1.63
8682.00,1.61
8681.00,1.58
8680.00,1.56
8679.00,1.53
8678.00,1.51
8677.00,1.48
8676.00,1.46
8675.00,1.44
8674.00,1.43
8673.00,1.42
8672.00,1.41
8671.00,1.40
8670.00,1.40
8669.00,1.40
8668.00,1.41
8667.00,1.42
8666.00,1.43
8665.00,1.44
8664.00,1.46
8663.00,1.48
8662.00,1.49
8661.00,1.51
8660.00,1.53
8659.00,1.55
8658.00,1.58
8657.00,1.60
8656.00,1.62
8655.00,1.65
8654.00,1.67
8653.00,1.70
8652.00,1.73
8651.00,1.75
8650.00,1.77
8649.00,1.79
8648.00,1.81
8647.00,1.83
8646.00,1.84
8645.00,1.85
8644.00,1.86
8643.00,1.86
8642.00,1.86
8641.00,1.86
8640.00,1.86
8639.00,1.86
8638.00,1.86
8637.00,1.86
8636.00,1.86
8635.00,1.86
8634.00,1.87
8633.00,1.87
8632.00,1.87
8631.00,1.87
8630.00,1.87
8629.00,1.87
8628.00,1.88
8627.00,1.88
8626.00,1.88
8625.00,1.88
8624.00,1.89
8623.00,1.90
8622.00,1.90
8621.00,1.91
8620.00,1.92
8619.00,1.94
8618.00,1.95
8617.00,1.96
8616.00,1.97
8615.00,1.99
8614.00,2.00
8613.00,2.01
8612.00,2.02
8611.00,2.02
8610.00,2.03
8609.00,2.03
8608.00,2.03
8607.00,2.03
8606.00,2.03
8605.00,2.03
8604.00,2.02
8603.00,2.02
8602.00,2.01
8601.00,2.01
8600.00,2.00
8599.00,2.00
8598.00,1.99
8597.00,1.98
8596.00,1.98
8595.00,1.97
8594.00,1.96
8593.00,1.95
8592.00,1.94
8591.00,1.93
8590.00,1.92
8589.00,1.91
8588.00,1.90
8587.00,1.89
8586.00,1.88
8585.00,1.87
8584.00,1.86
8583.00,1.85
8582.00,1.84
8581.00,1.84
8580.00,1.83
8579.00,1.83
8578.00,1.82
8577.00,1.82
8576.00,1.81
8575.00,1.81
8574.00,1.81
8573.00,1.80
8572.00,1.80
8571.00,1.79
8570.00,1.79
8569.00,1.78
8568.00,1.78
8567.00,1.77
8566.00,1.76
8565.00,1.76
8564.00,1.75
8563.00,1.74
8562.00,1.74
8561.00,1.73
8560.00,1.72
8559.00,1.72
8558.00,1.71
8557.00,1.70
8556.00,1.70
8555.00,1.69
8554.00,1.68
8553.00,1.68
8552.00,1.67
8551.00,1.66
8550.00,1.65
8549.00,1.64
8548.00,1.64
8547.00,1.63
8546.00,1.62
8545.00,1.62
8544.00,1.61
8543.00,1.61
8542.00,1.60
8541.00,1.60
8540.00,1.60
8539.00,1.60
8538.00,1.60
8537.00,1.60
8536.00,1.60
8535.00,1.61
8534.00,1.62
8533.00,1.63
8532.00,1.64
8531.00,1.65
8530.00,1.66
8529.00,1.67
8528.00,1.68
8527.00,1.69
8526.00,1.70
8525.00,1.71
8524.00,1.72
8523.00,1.73
8522.00,1.74
8521.00,1.75
8520.00,1.76
8519.00,1.78
8518.00,1.79
8517.00,1.80
8516.00,1.81
8515.00,1.82
8514.00,1.83
8513.00,1.84
8512.00,1.85
8511.00,1.85
8510.00,1.85
8509.00,1.85
8508.00,1.85
8507.00,1.85
8506.00,1.85
8505.00,1.84
8504.00,1.84
8503.00,1.83
8502.00,1.83
8501.00,1.82
8500.00,1.82
8499.00,1.82
8498.00,1.81
8497.00,1.81
8496.00,1.81
8495.00,1.81
8494.00,1.81
8493.00,1.81
8492.00,1.81
8491.00,1.81
8490.00,1.80
8489.00,1.80
8488.00,1.79
8487.00,1.79
8486.00,1.78
8485.00,1.78
8484.00,1.77
8483.00,1.77
8482.00,1.77
8481.00,1.77
8480.00,1.77
8479.00,1.78
8478.00,1.78
8477.00,1.78
8476.00,1.78
8475.00,1.77
8474.00,1.77
8473.00,1.76
8472.00,1.76
8471.00,1.75
8470.00,1.74
8469.00,1.73
8468.00,1.72
8467.00,1.71
8466.00,1.71
8465.00,1.70
8464.00,1.70
8463.00,1.70
8462.00,1.70
8461.00,1.70
8460.00,1.70
8459.00,1.70
8458.00,1.70
8457.00,1.71
8456.00,1.71
8455.00,1.71
8454.00,1.71
8453.00,1.71
8452.00,1.71
8451.00,1.71
8450.00,1.72
8449.00,1.72
8448.00,1.73
8447.00,1.74
8446.00,1.75
8445.00,1.76
8444.00,1.77
8443.00,1.78
8442.00,1.79
8441.00,1.80
8440.00,1.81
8439.00,1.81
8438.00,1.82
8437.00,1.82
8436.00,1.82
8435.00,1.82
8434.00,1.82
8433.00,1.83
8432.00,1.83
8431.00,1.84
8430.00,1.84
8429.00,1.85
8428.00,1.86
8427.00,1.87
8426.00,1.88
8425.00,1.89
8424.00,1.90
8423.00,1.92
8422.00,1.93
8421.00,1.94
8420.00,1.94
8419.00,1.95
8418.00,1.96
8417.00,1.97
8416.00,1.98
8415.00,1.99
8414.00,2.00
8413.00,2.01
8412.00,2.02
8411.00,2.03
8410.00,2.04
8409.00,2.05
8408.00,2.06
8407.00,2.07
8406.00,2.07
8405.00,2.07
8404.00,2.07
8403.00,2.07
8402.00,2.06
8401.00,2.05
8400.00,2.03
8399.00,2.02
8398.00,2.00
8397.00,1.98
8396.00,1.97
8395.00,1.95
8394.00,1.93
8393.00,1.91
8392.00,1.90
8391.00,1.88
8390.00,1.86
8389.00,1.84
8388.00,1.83
8387.00,1.81
8386.00,1.79
8385.00,1.78
8384.00,1.76
8383.00,1.74
8382.00,1.73
8381.00,1.71
8380.00,1.70
8379.00,1.69
8378.00,1.68
8377.00,1.68
8376.00,1.67
8375.00,1.67
8374.00,1.68
8373.00,1.68
8372.00,1.68
8371.00,1.69
8370.00,1.70
8369.00,1.70
8368.00,1.71
8367.00,1.71
8366.00,1.72
8365.00,1.72
8364.00,1.73
8363.00,1.73
8362.00,1.73
8361.00,1.73
8360.00,1.73
8359.00,1.73
8358.00,1.73
8357.00,1.73
8356.00,1.74
8355.00,1.74
8354.00,1.74
8353.00,1.74
8352.00,1.73
8351.00,1.73
8350.00,1.73
8349.00,1.72
8348.00,1.72
8347.00,1.71
8346.00,1.70
8345.00,1.69
8344.00,1.68
8343.00,1.67
8342.00,1.66
8341.00,1.65
8340.00,1.65
8339.00,1.64
8338.00,1.64
8337.00,1.63
8336.00,1.63
8335.00,1.63
8334.00,1.64
8333.00,1.64
8332.00,1.64
8331.00,1.64
8330.00,1.65
8329.00,1.65
8328.00,1.65
8327.00,1.66
8326.00,1.67
8325.00,1.67
8324.00,1.68
8323.00,1.69
8322.00,1.70
8321.00,1.72
8320.00,1.73
8319.00,1.75
8318.00,1.76
8317.00,1.78
8316.00,1.79
8315.00,1.81
8314.00,1.82
8313.00,1.83
8312.00,1.84
8311.00,1.85
8310.00,1.86
8309.00,1.87
8308.00,1.88
8307.00,1.88
8306.00,1.89
8305.00,1.90
8304.00,1.90
8303.00,1.91
8302.00,1.91
8301.00,1.92
8300.00,1.93
8299.00,1.93
8298.00,1.94
8297.00,1.95
8296.00,1.95
8295.00,1.95
8294.00,1.96
8293.00,1.96
8292.00,1.96
8291.00,1.96
8290.00,1.96
8289.00,1.96
8288.00,1.95
8287.00,1.95
8286.00,1.95
8285.00,1.95
8284.00,1.95
8283.00,1.95
8282.00,1.95
8281.00,1.95
8280.00,1.95
8279.00,1.95
8278.00,1.95
8277.00,1.95
8276.00,1.95
8275.00,1.94
8274.00,1.94
8273.00,1.93
8272.00,1.92
8271.00,1.91
8270.00,1.90
8269.00,1.89
8268.00,1.88
8267.00,1.87
8266.00,1.86
8265.00,1.85
8264.00,1.84
8263.00,1.84
8262.00,1.83
8261.00,1.82
8260.00,1.82
8259.00,1.81
8258.00,1.81
8257.00,1.80
8256.00,1.79
8255.00,1.79
8254.00,1.78
8253.00,1.78
8252.00,1.78
8251.00,1.78
8250.00,1.78
8249.00,1.78
8248.00,1.78
8247.00,1.78
8246.00,1.78
8245.00,1.79
8244.00,1.80
8243.00,1.80
8242.00,1.81
8241.00,1.82
8240.00,1.83
8239.00,1.84
8238.00,1.85
8237.00,1.86
8236.00,1.87
8235.00,1.88
8234.00,1.89
8233.00,1.90
8232.00,1.91
8231.00,1.93
8230.00,1.94
8229.00,1.95
8228.00,1.97
8227.00,1.98
8226.00,2.00
8225.00,2.01
8224.00,2.03
8223.00,2.04
8222.00,2.05
8221.00,2.06
8220.00,2.07
8219.00,2.07
8218.00,2.08
8217.00,2.08
8216.00,2.08
8215.00,2.07
8214.00,2.07
8213.00,2.06
8212.00,2.05
8211.00,2.04
8210.00,2.03
8209.00,2.02
8208.00,2.01
8207.00,2.00
8206.00,1.99
8205.00,1.97
8204.00,1.96
8203.00,1.94
8202.00,1.93
8201.00,1.91
8200.00,1.89
8199.00,1.87
8198.00,1.85
8197.00,1.83
8196.00,1.82
8195.00,1.80
8194.00,1.79
8193.00,1.78
8192.00,1.77
8191.00,1.77
8190.00,1.76
8189.00,1.76
8188.00,1.76
8187.00,1.76
8186.00,1.76
8185.00,1.77
8184.00,1.77
8183.00,1.77
8182.00,1.77
8181.00,1.77
8180.00,1.77
8179.00,1.77
8178.00,1.77
8177.00,1.77
8176.00,1.77
8175.00,1.77
8174.00,1.76
8173.00,1.76
8172.00,1.76
8171.00,1.76
8170.00,1.76
8169.00,1.76
8168.00,1.75
8167.00,1.75
8166.00,1.75
8165.00,1.74
8164.00,1.73
8163.00,1.72
8162.00,1.71
8161.00,1.70
8160.00,1.69
8159.00,1.69
8158.00,1.68
8157.00,1.67
8156.00,1.66
8155.00,1.66
8154.00,1.65
8153.00,1.65
8152.00,1.65
8151.00,1.65
8150.00,1.65
8149.00,1.65
8148.00,1.65
8147.00,1.65
8146.00,1.65
8145.00,1.65
8144.00,1.65
8143.00,1.66
8142.00,1.66
8141.00,1.66
8140.00,1.66
8139.00,1.66
8138.00,1.67
8137.00,1.67
8136.00,1.68
8135.00,1.68
8134.00,1.69
8133.00,1.69
8132.00,1.69
8131.00,1.70
8130.00,1.70
8129.00,1.71
8128.00,1.71
8127.00,1.72
8126.00,1.72
8125.00,1.73
8124.00,1.73
8123.00,1.73
8122.00,1.74
8121.00,1.74
8120.00,1.74
8119.00,1.74
8118.00,1.74
8117.00,1.74
8116.00,1.74
8115.00,1.74
8114.00,1.74
8113.00,1.74
8112.00,1.75
8111.00,1.75
8110.00,1.75
8109.00,1.75
8108.00,1.76
8107.00,1.77
8106.00,1.77
8105.00,1.78
8104.00,1.79
8103.00,1.79
8102.00,1.80
8101.00,1.80
8100.00,1.81
8099.00,1.81
8098.00,1.82
8097.00,1.82
8096.00,1.83
8095.00,1.84
8094.00,1.84
8093.00,1.85
8092.00,1.86
8091.00,1.87
8090.00,1.88
8089.00,1.89
8088.00,1.89
8087.00,1.90
8086.00,1.91
8085.00,1.91
8084.00,1.91
8083.00,1.92
8082.00,1.92
8081.00,1.91
8080.00,1.91
8079.00,1.91
8078.00,1.90
8077.00,1.90
8076.00,1.89
8075.00,1.89
8074.00,1.88
8073.00,1.88
8072.00,1.88
8071.00,1.87
8070.00,1.87
8069.00,1.86
8068.00,1.86
8067.00,1.85
8066.00,1.84
8065.00,1.84
8064.00,1.83
8063.00,1.82
8062.00,1.82
8061.00,1.81
8060.00,1.80
8059.00,1.80
8058.00,1.79
8057.00,1.79
8056.00,1.79
8055.00,1.78
8054.00,1.78
8053.00,1.78
8052.00,1.77
8051.00,1.77
8050.00,1.77
8049.00,1.76
8048.00,1.76
8047.00,1.75
8046.00,1.75
8045.00,1.75
8044.00,1.74
8043.00,1.74
8042.00,1.74
8041.00,1.74
8040.00,1.74
8039.00,1.74
8038.00,1.74
8037.00,1.75
8036.00,1.75
8035.00,1.75
8034.00,1.75
8033.00,1.76
8032.00,1.76
8031.00,1.77
8030.00,1.77
8029.00,1.78
8028.00,1.78
8027.00,1.79
8026.00,1.80
8025.00,1.81
8024.00,1.83
8023.00,1.84
8022.00,1.85
8021.00,1.87
8020.00,1.88
8019.00,1.89
8018.00,1.90
8017.00,1.91
8016.00,1.91
8015.00,1.92
8014.00,1.92
8013.00,1.93
8012.00,1.93
8011.00,1.93
8010.00,1.93
8009.00,1.93
8008.00,1.92
8007.00,1.92
8006.00,1.92
8005.00,1.92
8004.00,1.91
8003.00,1.91
8002.00,1.90
8001.00,1.89
8000.00,1.88
7999.00,1.86
7998.00,1.85
7997.00,1.83
7996.00,1.81
7995.00,1.80
7994.00,1.78
7993.00,1.76
7992.00,1.74
7991.00,1.73
7990.00,1.71
7989.00,1.70
7988.00,1.69
7987.00,1.68
7986.00,1.67
7985.00,1.67
7984.00,1.66
7983.00,1.65
7982.00,1.65
7981.00,1.64
7980.00,1.63
7979.00,1.62
7978.00,1.61
7977.00,1.60
7976.00,1.60
7975.00,1.59
7974.00,1.59
7973.00,1.59
7972.00,1.58
7971.00,1.59
7970.00,1.59
7969.00,1.59
7968.00,1.59
7967.00,1.60
7966.00,1.60
7965.00,1.61
7964.00,1.61
7963.00,1.62
7962.00,1.62
7961.00,1.63
7960.00,1.63
7959.00,1.64
7958.00,1.64
7957.00,1.65
7956.00,1.65
7955.00,1.66
7954.00,1.67
7953.00,1.68
7952.00,1.69
7951.00,1.70
7950.00,1.71
7949.00,1.73
7948.00,1.74
7947.00,1.75
7946.00,1.76
7945.00,1.77
7944.00,1.78
7943.00,1.79
7942.00,1.80
7941.00,1.81
7940.00,1.81
7939.00,1.82
7938.00,1.83
7937.00,1.83
7936.00,1.84
7935.00,1.85
7934.00,1.85
7933.00,1.86
7932.00,1.87
7931.00,1.87
7930.00,1.88
7929.00,1.89
7928.00,1.89
7927.00,1.90
7926.00,1.90
7925.00,1.91
7924.00,1.91
7923.00,1.92
7922.00,1.92
7921.00,1.92
7920.00,1.93
7919.00,1.93
7918.00,1.94
7917.00,1.94
7916.00,1.95
7915.00,1.95
7914.00,1.96
7913.00,1.97
7912.00,1.98
7911.00,1.98
7910.00,1.99
7909.00,2.00
7908.00,2.01
7907.00,2.02
7906.00,2.03
7905.00,2.03
7904.00,2.04
7903.00,2.04
7902.00,2.05
7901.00,2.05
7900.00,2.06
7899.00,2.06
7898.00,2.07
7897.00,2.08
7896.00,2.09
7895.00,2.10
7894.00,2.10
7893.00,2.11
7892.00,2.12
7891.00,2.13
7890.00,2.14
7889.00,2.14
7888.00,2.15
7887.00,2.15
7886.00,2.16
7885.00,2.16
7884.00,2.16
7883.00,2.16
7882.00,2.16
7881.00,2.17
7880.00,2.17
7879.00,2.17
7878.00,2.18
7877.00,2.18
7876.00,2.19
7875.00,2.19
7874.00,2.20
7873.00,2.20
7872.00,2.20
7871.00,2.21
7870.00,2.21
7869.00,2.21
7868.00,2.21
7867.00,2.20
7866.00,2.20
7865.00,2.20
7864.00,2.20
7863.00,2.20
7862.00,2.19
7861.00,2.19
7860.00,2.19
7859.00,2.19
7858.00,2.18
7857.00,2.18
7856.00,2.17
7855.00,2.17
7854.00,2.16
7853.00,2.16
7852.00,2.15
7851.00,2.14
7850.00,2.13
7849.00,2.13
7848.00,2.12
7847.00,2.11
7846.00,2.09
7845.00,2.08
7844.00,2.07
7843.00,2.06
7842.00,2.05
7841.00,2.04
7840.00,2.03
7839.00,2.02
7838.00,2.02
7837.00,2.01
7836.00,2.00
7835.00,2.00
7834.00,1.99
7833.00,1.99
7832.00,1.99
7831.00,1.99
7830.00,1.99
7829.00,1.99
7828.00,1.99
7827.00,1.99
7826.00,1.99
7825.00,1.99
7824.00,1.99
7823.00,1.99
7822.00,2.00
7821.00,2.00
7820.00,2.00
7819.00,2.00
7818.00,2.01
7817.00,2.01
7816.00,2.01
7815.00,2.01
7814.00,2.02
7813.00,2.02
7812.00,2.01
7811.00,2.01
7810.00,2.01
7809.00,2.00
7808.00,1.99
7807.00,1.99
7806.00,1.98
7805.00,1.97
7804.00,1.96
7803.00,1.95
7802.00,1.94
7801.00,1.93
7800.00,1.92
7799.00,1.91
7798.00,1.91
7797.00,1.90
7796.00,1.90
7795.00,1.89
7794.00,1.89
7793.00,1.88
7792.00,1.88
7791.00,1.88
7790.00,1.87
7789.00,1.87
7788.00,1.87
7787.00,1.87
7786.00,1.88
7785.00,1.88
7784.00,1.89
7783.00,1.89
7782.00,1.90
7781.00,1.91
7780.00,1.92
7779.00,1.93
7778.00,1.94
7777.00,1.95
7776.00,1.96
7775.00,1.97
7774.00,1.98
7773.00,1.98
7772.00,1.99
7771.00,1.99
7770.00,2.00
7769.00,2.00
7768.00,2.00
7767.00,2.00
7766.00,2.00
7765.00,2.01
7764.00,2.01
7763.00,2.01
7762.00,2.01
7761.00,2.01
7760.00,2.01
7759.00,2.01
7758.00,2.00
7757.00,2.00
7756.00,2.00
7755.00,2.00
7754.00,1.99
7753.00,1.99
7752.00,1.98
7751.00,1.98
7750.00,1.98
7749.00,1.97
7748.00,1.97
7747.00,1.97
7746.00,1.96
7745.00,1.96
7744.00,1.96
7743.00,1.96
7742.00,1.96
7741.00,1.95
7740.00,1.95
7739.00,1.95
7738.00,1.95
7737.00,1.94
7736.00,1.94
7735.00,1.94
7734.00,1.94
7733.00,1.94
7732.00,1.94
7731.00,1.94
7730.00,1.93
7729.00,1.93
7728.00,1.93
7727.00,1.93
7726.00,1.93
7725.00,1.93
7724.00,1.93
7723.00,1.93
7722.00,1.93
7721.00,1.93
7720.00,1.93
7719.00,1.93
7718.00,1.94
7717.00,1.94
7716.00,1.94
7715.00,1.95
7714.00,1.95
7713.00,1.95
7712.00,1.96
7711.00,1.96
7710.00,1.96
7709.00,1.96
7708.00,1.96
7707.00,1.96
7706.00,1.96
7705.00,1.95
7704.00,1.95
7703.00,1.94
7702.00,1.94
7701.00,1.93
7700.00,1.93
7699.00,1.92
7698.00,1.92
7697.00,1.91
7696.00,1.91
7695.00,1.90
7694.00,1.89
7693.00,1.89
7692.00,1.88
7691.00,1.87
7690.00,1.87
7689.00,1.86
7688.00,1.86
7687.00,1.85
7686.00,1.85
7685.00,1.84
7684.00,1.84
7683.00,1.84
7682.00,1.84
7681.00,1.85
7680.00,1.85
7679.00,1.86
7678.00,1.87
7677.00,1.88
7676.00,1.89
7675.00,1.90
7674.00,1.92
7673.00,1.93
7672.00,1.94
7671.00,1.96
7670.00,1.97
7669.00,1.99
7668.00,2.00
7667.00,2.01
7666.00,2.02
7665.00,2.04
7664.00,2.05
7663.00,2.06
7662.00,2.08
7661.00,2.09
7660.00,2.10
7659.00,2.11
7658.00,2.12
7657.00,2.13
7656.00,2.14
7655.00,2.14
7654.00,2.15
7653.00,2.15
7652.00,2.15
7651.00,2.15
7650.00,2.15
7649.00,2.15
7648.00,2.15
7647.00,2.14
7646.00,2.14
7645.00,2.13
7644.00,2.12
7643.00,2.12
7642.00,2.11
7641.00,2.10
7640.00,2.09
7639.00,2.08
7638.00,2.07
7637.00,2.06
7636.00,2.05
7635.00,2.04
7634.00,2.03
7633.00,2.02
7632.00,2.01
7631.00,2.00
7630.00,1.99
7629.00,1.98
7628.00,1.97
7627.00,1.96
7626.00,1.95
7625.00,1.94
7624.00,1.93
7623.00,1.92
7622.00,1.91
7621.00,1.90
7620.00,1.89
7619.00,1.89
7618.00,1.88
7617.00,1.87
7616.00,1.87
7615.00,1.87
7614.00,1.86
7613.00,1.86
7612.00,1.86
7611.00,1.85
7610.00,1.85
7609.00,1.85
7608.00,1.85
7607.00,1.85
7606.00,1.84
7605.00,1.85
7604.00,1.85
7603.00,1.85
7602.00,1.85
7601.00,1.86
7600.00,1.86
7599.00,1.87
7598.00,1.88
7597.00,1.89
7596.00,1.89
7595.00,1.90
7594.00,1.91
7593.00,1.92
7592.00,1.94
7591.00,1.95
7590.00,1.96
7589.00,1.96
7588.00,1.97
7587.00,1.98
7586.00,1.99
7585.00,2.00
7584.00,2.01
7583.00,2.02
7582.00,2.03
7581.00,2.04
7580.00,2.05
7579.00,2.05
7578.00,2.06
7577.00,2.07
7576.00,2.07
7575.00,2.07
7574.00,2.08
7573.00,2.08
7572.00,2.08
7571.00,2.08
7570.00,2.08
7569.00,2.08
7568.00,2.08
7567.00,2.08
7566.00,2.08
7565.00,2.08
7564.00,2.08
7563.00,2.08
7562.00,2.07
7561.00,2.07
7560.00,2.07
7559.00,2.07
7558.00,2.07
7557.00,2.06
7556.00,2.06
7555.00,2.06
7554.00,2.05
7553.00,2.05
7552.00,2.05
7551.00,2.04
7550.00,2.04
7549.00,2.04
7548.00,2.04
7547.00,2.04
7546.00,2.04
7545.00,2.04
7544.00,2.04
7543.00,2.04
7542.00,2.04
7541.00,2.04
7540.00,2.04
7539.00,2.04
7538.00,2.04
7537.00,2.05
7536.00,2.05
7535.00,2.05
7534.00,2.06
7533.00,2.06
7532.00,2.06
7531.00,2.06
7530.00,2.07
7529.00,2.07
7528.00,2.07
7527.00,2.07
7526.00,2.07
7525.00,2.07
7524.00,2.07
7523.00,2.07
7522.00,2.07
7521.00,2.07
7520.00,2.07
7519.00,2.06
7518.00,2.06
7517.00,2.06
7516.00,2.05
7515.00,2.04
7514.00,2.04
7513.00,2.03
7512.00,2.02
7511.00,2.01
7510.00,2.00
7509.00,1.99
7508.00,1.99
7507.00,1.98
7506.00,1.97
7505.00,1.97
7504.00,1.96
7503.00,1.96
7502.00,1.96
7501.00,1.96
7500.00,1.96
7499.00,1.96
7498.00,1.96
7497.00,1.97
7496.00,1.97
7495.00,1.97
7494.00,1.98
7493.00,1.99
7492.00,1.99
7491.00,2.00
7490.00,2.01
7489.00,2.02
7488.00,2.03
7487.00,2.04
7486.00,2.05
7485.00,2.07
7484.00,2.08
7483.00,2.09
7482.00,2.10
7481.00,2.11
7480.00,2.13
7479.00,2.14
7478.00,2.14
7477.00,2.15
7476.00,2.16
7475.00,2.17
7474.00,2.17
7473.00,2.18
7472.00,2.18
7471.00,2.19
7470.00,2.19
7469.00,2.20
7468.00,2.20
7467.00,2.21
7466.00,2.21
7465.00,2.21
7464.00,2.21
7463.00,2.21
7462.00,2.21
7461.00,2.21
7460.00,2.21
7459.00,2.21
7458.00,2.21
7457.00,2.20
7456.00,2.20
7455.00,2.20
7454.00,2.20
7453.00,2.19
7452.00,2.19
7451.00,2.18
7450.00,2.17
7449.00,2.16
7448.00,2.16
7447.00,2.15
7446.00,2.14
7445.00,2.13
7444.00,2.12
7443.00,2.11
7442.00,2.10
7441.00,2.10
7440.00,2.09
7439.00,2.08
7438.00,2.08
7437.00,2.07
7436.00,2.06
7435.00,2.06
7434.00,2.05
7433.00,2.04
7432.00,2.04
7431.00,2.03
7430.00,2.02
7429.00,2.01
7428.00,2.01
7427.00,2.00
7426.00,2.00
7425.00,1.99
7424.00,1.99
7423.00,1.99
7422.00,1.99
7421.00,1.99
7420.00,1.99
7419.00,1.99
7418.00,1.99
7417.00,1.98
7416.00,1.98
7415.00,1.98
7414.00,1.98
7413.00,1.97
7412.00,1.96
7411.00,1.96
7410.00,1.95
7409.00,1.95
7408.00,1.94
7407.00,1.94
7406.00,1.93
7405.00,1.93
7404.00,1.92
7403.00,1.92
7402.00,1.92
7401.00,1.92
7400.00,1.92
7399.00,1.92
7398.00,1.91
7397.00,1.91
7396.00,1.91
7395.00,1.91
7394.00,1.91
7393.00,1.91
7392.00,1.91
7391.00,1.91
7390.00,1.90
7389.00,1.90
7388.00,1.90
7387.00,1.90
7386.00,1.90
7385.00,1.91
7384.00,1.91
7383.00,1.91
7382.00,1.92
7381.00,1.92
7380.00,1.93
7379.00,1.93
7378.00,1.94
7377.00,1.94
7376.00,1.94
7375.00,1.95
7374.00,1.95
7373.00,1.95
7372.00,1.95
7371.00,1.95
7370.00,1.95
7369.00,1.95
7368.00,1.95
7367.00,1.95
7366.00,1.95
7365.00,1.95
7364.00,1.95
7363.00,1.95
7362.00,1.95
7361.00,1.95
7360.00,1.95
7359.00,1.95
7358.00,1.95
7357.00,1.95
7356.00,1.95
7355.00,1.95
7354.00,1.94
7353.00,1.94
7352.00,1.94
7351.00,1.94
7350.00,1.94
7349.00,1.94
7348.00,1.95
7347.00,1.95
7346.00,1.95
7345.00,1.95
7344.00,1.96
7343.00,1.96
7342.00,1.96
7341.00,1.97
7340.00,1.97
7339.00,1.97
7338.00,1.98
7337.00,1.98
7336.00,1.98
7335.00,1.98
7334.00,1.99
7333.00,1.99
7332.00,1.99
7331.00,2.00
7330.00,2.00
7329.00,2.00
7328.00,2.01
7327.00,2.01
7326.00,2.01
7325.00,2.01
7324.00,2.01
7323.00,2.00
7322.00,2.00
7321.00,2.00
7320.00,2.00
7319.00,1.99
7318.00,1.99
7317.00,1.99
7316.00,1.98
7315.00,1.98
7314.00,1.98
7313.00,1.98
7312.00,1.97
7311.00,1.97
7310.00,1.97
7309.00,1.97
7308.00,1.97
7307.00,1.96
7306.00,1.96
7305.00,1.96
7304.00,1.95
7303.00,1.95
7302.00,1.95
7301.00,1.95
7300.00,1.95
7299.00,1.95
7298.00,1.95
7297.00,1.96
7296.00,1.96
7295.00,1.96
7294.00,1.97
7293.00,1.97
7292.00,1.97
7291.00,1.98
7290.00,1.98
7289.00,1.99
7288.00,1.99
7287.00,1.99
7286.00,2.00
7285.00,2.00
7284.00,2.01
7283.00,2.01
7282.00,2.02
7281.00,2.02
7280.00,2.03
7279.00,2.03
7278.00,2.04
7277.00,2.05
7276.00,2.05
7275.00,2.06
7274.00,2.06
7273.00,2.07
7272.00,2.07
7271.00,2.07
7270.00,2.07
7269.00,2.07
7268.00,2.07
7267.00,2.07
7266.00,2.07
7265.00,2.07
7264.00,2.07
7263.00,2.07
7262.00,2.07
7261.00,2.07
7260.00,2.07
7259.00,2.07
7258.00,2.07
7257.00,2.06
7256.00,2.06
7255.00,2.05
7254.00,2.05
7253.00,2.04
7252.00,2.03
7251.00,2.03
7250.00,2.02
7249.00,2.01
7248.00,2.00
7247.00,1.99
7246.00,1.98
7245.00,1.97
7244.00,1.97
7243.00,1.96
7242.00,1.95
7241.00,1.95
7240.00,1.94
7239.00,1.93
7238.00,1.92
7237.00,1.92
7236.00,1.91
7235.00,1.90
7234.00,1.90
7233.00,1.89
7232.00,1.88
7231.00,1.88
7230.00,1.87
7229.00,1.87
7228.00,1.86
7227.00,1.86
7226.00,1.86
7225.00,1.86
7224.00,1.86
7223.00,1.87
7222.00,1.87
7221.00,1.87
7220.00,1.88
7219.00,1.88
7218.00,1.88
7217.00,1.88
7216.00,1.89
7215.00,1.89
7214.00,1.89
7213.00,1.90
7212.00,1.90
7211.00,1.90
7210.00,1.91
7209.00,1.91
7208.00,1.91
7207.00,1.91
7206.00,1.91
7205.00,1.91
7204.00,1.91
7203.00,1.91
7202.00,1.90
7201.00,1.90
7200.00,1.89
7199.00,1.89
7198.00,1.88
7197.00,1.87
7196.00,1.87
7195.00,1.86
7194.00,1.85
7193.00,1.84
7192.00,1.83
7191.00,1.82
7190.00,1.81
7189.00,1.80
7188.00,1.79
7187.00,1.78
7186.00,1.77
7185.00,1.76
7184.00,1.75
7183.00,1.74
7182.00,1.73
7181.00,1.72
7180.00,1.72
7179.00,1.71
7178.00,1.71
7177.00,1.71
7176.00,1.70
7175.00,1.70
7174.00,1.70
7173.00,1.69
7172.00,1.69
7171.00,1.69
7170.00,1.69
7169.00,1.69
7168.00,1.70
7167.00,1.70
7166.00,1.70
7165.00,1.70
7164.00,1.71
7163.00,1.71
7162.00,1.71
7161.00,1.71
7160.00,1.72
7159.00,1.72
7158.00,1.72
7157.00,1.72
7156.00,1.72
7155.00,1.72
7154.00,1.72
7153.00,1.71
7152.00,1.71
7151.00,1.71
7150.00,1.70
7149.00,1.70
7148.00,1.70
7147.00,1.69
7146.00,1.69
7145.00,1.68
7144.00,1.67
7143.00,1.67
7142.00,1.66
7141.00,1.65
7140.00,1.64
7139.00,1.64
7138.00,1.63
7137.00,1.62
7136.00,1.61
7135.00,1.60
7134.00,1.60
7133.00,1.59
7132.00,1.58
7131.00,1.58
7130.00,1.57
7129.00,1.57
7128.00,1.57
7127.00,1.57
7126.00,1.57
7125.00,1.56
7124.00,1.57
7123.00,1.57
7122.00,1.57
7121.00,1.57
7120.00,1.57
7119.00,1.58
7118.00,1.58
7117.00,1.59
7116.00,1.60
7115.00,1.60
7114.00,1.61
7113.00,1.62
7112.00,1.62
7111.00,1.63
7110.00,1.64
7109.00,1.65
7108.00,1.65
7107.00,1.66
7106.00,1.67
7105.00,1.68
7104.00,1.68
7103.00,1.69
7102.00,1.69
7101.00,1.70
7100.00,1.70
7099.00,1.71
7098.00,1.71
7097.00,1.71
7096.00,1.72
7095.00,1.72
7094.00,1.72
7093.00,1.72
7092.00,1.72
7091.00,1.72
7090.00,1.72
7089.00,1.72
7088.00,1.72
7087.00,1.72
7086.00,1.72
7085.00,1.72
7084.00,1.72
7083.00,1.71
7082.00,1.71
7081.00,1.71
7080.00,1.71
7079.00,1.71
7078.00,1.71
7077.00,1.71
7076.00,1.71
7075.00,1.72
7074.00,1.72
7073.00,1.72
7072.00,1.72
7071.00,1.73
7070.00,1.73
7069.00,1.73
7068.00,1.74
7067.00,1.74
7066.00,1.74
7065.00,1.74
7064.00,1.74
7063.00,1.74
7062.00,1.73
7061.00,1.73
7060.00,1.73
7059.00,1.72
7058.00,1.72
7057.00,1.72
7056.00,1.71
7055.00,1.71
7054.00,1.71
7053.00,1.70
7052.00,1.70
7051.00,1.69
7050.00,1.69
7049.00,1.68
7048.00,1.67
7047.00,1.66
7046.00,1.65
7045.00,1.65
7044.00,1.64
7043.00,1.63
7042.00,1.62
7041.00,1.61
7040.00,1.61
7039.00,1.61
7038.00,1.60
7037.00,1.60
7036.00,1.60
7035.00,1.60
7034.00,1.60
7033.00,1.60
7032.00,1.60
7031.00,1.61
7030.00,1.61
7029.00,1.61
7028.00,1.61
7027.00,1.61
7026.00,1.61
7025.00,1.61
7024.00,1.61
7023.00,1.61
7022.00,1.62
7021.00,1.62
7020.00,1.63
7019.00,1.63
7018.00,1.64
7017.00,1.64
7016.00,1.65
7015.00,1.65
7014.00,1.65
7013.00,1.65
7012.00,1.65
7011.00,1.65
7010.00,1.65
7009.00,1.65
7008.00,1.65
7007.00,1.65
7006.00,1.65
7005.00,1.64
7004.00,1.64
7003.00,1.64
7002.00,1.64
7001.00,1.64
7000.00,1.63
6999.00,1.63
6998.00,1.63
6997.00,1.62
6996.00,1.62
6995.00,1.61
6994.00,1.61
6993.00,1.60
6992.00,1.60
6991.00,1.59
6990.00,1.58
6989.00,1.58
6988.00,1.58
6987.00,1.57
6986.00,1.57
6985.00,1.57
6984.00,1.56
6983.00,1.56
6982.00,1.56
6981.00,1.56
6980.00,1.56
6979.00,1.56
6978.00,1.56
6977.00,1.56
6976.00,1.56
6975.00,1.56
6974.00,1.56
6973.00,1.56
6972.00,1.56
6971.00,1.56
6970.00,1.57
6969.00,1.57
6968.00,1.57
6967.00,1.57
6966.00,1.57
6965.00,1.57
6964.00,1.57
6963.00,1.57
6962.00,1.57
6961.00,1.57
6960.00,1.57
6959.00,1.57
6958.00,1.56
6957.00,1.56
6956.00,1.55
6955.00,1.55
6954.00,1.54
6953.00,1.53
6952.00,1.53
6951.00,1.52
6950.00,1.51
6949.00,1.50
6948.00,1.50
6947.00,1.49
6946.00,1.48
6945.00,1.48
6944.00,1.47
6943.00,1.46
6942.00,1.46
6941.00,1.45
6940.00,1.45
6939.00,1.44
6938.00,1.44
6937.00,1.44
6936.00,1.43
6935.00,1.43
6934.00,1.43
6933.00,1.43
6932.00,1.43
6931.00,1.43
6930.00,1.43
6929.00,1.43
6928.00,1.43
6927.00,1.43
6926.00,1.43
6925.00,1.44
6924.00,1.44
6923.00,1.44
6922.00,1.45
6921.00,1.45
6920.00,1.46
6919.00,1.46
6918.00,1.47
6917.00,1.47
6916.00,1.47
6915.00,1.47
6914.00,1.48
6913.00,1.48
6912.00,1.48
6911.00,1.48
6910.00,1.48
6909.00,1.48
6908.00,1.48
6907.00,1.49
6906.00,1.49
6905.00,1.49
6904.00,1.50
6903.00,1.50
6902.00,1.51
6901.00,1.51
6900.00,1.52
6899.00,1.52
6898.00,1.53
6897.00,1.53
6896.00,1.54
6895.00,1.54
6894.00,1.55
6893.00,1.55
6892.00,1.55
6891.00,1.56
6890.00,1.56
6889.00,1.57
6888.00,1.57
6887.00,1.58
6886.00,1.58
6885.00,1.58
6884.00,1.59
6883.00,1.59
6882.00,1.60
6881.00,1.60
6880.00,1.60
6879.00,1.60
6878.00,1.60
6877.00,1.60
6876.00,1.60
6875.00,1.60
6874.00,1.59
6873.00,1.59
6872.00,1.59
6871.00,1.58
6870.00,1.58
6869.00,1.57
6868.00,1.57
6867.00,1.57
6866.00,1.56
6865.00,1.56
6864.00,1.56
6863.00,1.55
6862.00,1.55
6861.00,1.55
6860.00,1.55
6859.00,1.54
6858.00,1.54
6857.00,1.53
6856.00,1.53
6855.00,1.53
6854.00,1.52
6853.00,1.52
6852.00,1.52
6851.00,1.52
6850.00,1.52
6849.00,1.52
6848.00,1.52
6847.00,1.52
6846.00,1.52
6845.00,1.52
6844.00,1.52
6843.00,1.53
6842.00,1.53
6841.00,1.53
6840.00,1.54
6839.00,1.54
6838.00,1.54
6837.00,1.54
6836.00,1.54
6835.00,1.54
6834.00,1.54
6833.00,1.54
6832.00,1.54
6831.00,1.54
6830.00,1.54
6829.00,1.54
6828.00,1.54
6827.00,1.54
6826.00,1.54
6825.00,1.54
6824.00,1.54
6823.00,1.54
6822.00,1.54
6821.00,1.54
6820.00,1.54
6819.00,1.54
6818.00,1.54
6817.00,1.54
6816.00,1.54
6815.00,1.54
6814.00,1.54
6813.00,1.54
6812.00,1.53
6811.00,1.53
6810.00,1.54
6809.00,1.54
6808.00,1.54
6807.00,1.54
6806.00,1.54
6805.00,1.55
6804.00,1.55
6803.00,1.55
6802.00,1.56
6801.00,1.56
6800.00,1.57
6799.00,1.57
6798.00,1.57
6797.00,1.57
6796.00,1.57
6795.00,1.57
6794.00,1.57
6793.00,1.57
6792.00,1.57
6791.00,1.57
6790.00,1.57
6789.00,1.57
6788.00,1.57
6787.00,1.57
6786.00,1.57
6785.00,1.57
6784.00,1.57
6783.00,1.57
6782.00,1.57
6781.00,1.57
6780.00,1.57
6779.00,1.57
6778.00,1.56
6777.00,1.56
6776.00,1.56
6775.00,1.56
6774.00,1.56
6773.00,1.56
6772.00,1.56
6771.00,1.56
6770.00,1.56
6769.00,1.56
6768.00,1.56
6767.00,1.56
6766.00,1.56
6765.00,1.56
6764.00,1.57
6763.00,1.57
6762.00,1.57
6761.00,1.57
6760.00,1.58
6759.00,1.58
6758.00,1.59
6757.00,1.59
6756.00,1.60
6755.00,1.60
6754.00,1.61
6753.00,1.61
6752.00,1.62
6751.00,1.62
6750.00,1.62
6749.00,1.63
6748.00,1.63
6747.00,1.64
6746.00,1.64
6745.00,1.64
6744.00,1.65
6743.00,1.65
6742.00,1.66
6741.00,1.66
6740.00,1.67
6739.00,1.67
6738.00,1.67
6737.00,1.68
6736.00,1.68
6735.00,1.68
6734.00,1.69
6733.00,1.69
6732.00,1.69
6731.00,1.69
6730.00,1.69
6729.00,1.70
6728.00,1.70
6727.00,1.70
6726.00,1.71
6725.00,1.71
6724.00,1.72
6723.00,1.72
6722.00,1.72
6721.00,1.73
6720.00,1.73
6719.00,1.74
6718.00,1.74
6717.00,1.74
6716.00,1.75
6715.00,1.75
6714.00,1.75
6713.00,1.75
6712.00,1.75
6711.00,1.75
6710.00,1.75
6709.00,1.75
6708.00,1.75
6707.00,1.75
6706.00,1.75
6705.00,1.75
6704.00,1.75
6703.00,1.74
6702.00,1.74
6701.00,1.74
6700.00,1.73
6699.00,1.73
6698.00,1.73
6697.00,1.72
6696.00,1.72
6695.00,1.71
6694.00,1.71
6693.00,1.70
6692.00,1.70
6691.00,1.70
6690.00,1.69
6689.00,1.69
6688.00,1.69
6687.00,1.69
6686.00,1.68
6685.00,1.68
6684.00,1.68
6683.00,1.68
6682.00,1.69
6681.00,1.69
6680.00,1.69
6679.00,1.69
6678.00,1.70
6677.00,1.70
6676.00,1.70
6675.00,1.70
6674.00,1.71
6673.00,1.71
6672.00,1.71
6671.00,1.71
6670.00,1.71
6669.00,1.71
6668.00,1.71
6667.00,1.72
6666.00,1.72
6665.00,1.72
6664.00,1.72
6663.00,1.72
6662.00,1.72
6661.00,1.72
6660.00,1.72
6659.00,1.73
6658.00,1.73
6657.00,1.73
6656.00,1.73
6655.00,1.73
6654.00,1.73
6653.00,1.73
6652.00,1.73
6651.00,1.73
6650.00,1.73
6649.00,1.73
6648.00,1.73
6647.00,1.73
6646.00,1.73
6645.00,1.73
6644.00,1.73
6643.00,1.73
6642.00,1.73
6641.00,1.73
6640.00,1.73
6639.00,1.73
6638.00,1.73
6637.00,1.73
6636.00,1.73
6635.00,1.73
6634.00,1.73
6633.00,1.73
6632.00,1.73
6631.00,1.73
6630.00,1.73
6629.00,1.73
6628.00,1.73
6627.00,1.74
6626.00,1.74
6625.00,1.74
6624.00,1.74
6623.00,1.74
6622.00,1.74
6621.00,1.74
6620.00,1.74
6619.00,1.74
6618.00,1.74
6617.00,1.74
6616.00,1.75
6615.00,1.75
6614.00,1.75
6613.00,1.75
6612.00,1.76
6611.00,1.76
6610.00,1.76
6609.00,1.76
6608.00,1.76
6607.00,1.77
6606.00,1.77
6605.00,1.77
6604.00,1.77
6603.00,1.77
6602.00,1.78
6601.00,1.78
6600.00,1.78
6599.00,1.79
6598.00,1.79
6597.00,1.80
6596.00,1.80
6595.00,1.81
6594.00,1.82
6593.00,1.82
6592.00,1.83
6591.00,1.84
6590.00,1.85
6589.00,1.85
6588.00,1.86
6587.00,1.86
6586.00,1.87
6585.00,1.88
6584.00,1.88
6583.00,1.89
6582.00,1.89
6581.00,1.90
6580.00,1.90
6579.00,1.91
6578.00,1.91
6577.00,1.92
6576.00,1.92
6575.00,1.92
6574.00,1.92
6573.00,1.93
6572.00,1.93
6571.00,1.93
6570.00,1.93
6569.00,1.93
6568.00,1.93
6567.00,1.92
6566.00,1.92
6565.00,1.92
6564.00,1.92
6563.00,1.91
6562.00,1.91
6561.00,1.91
6560.00,1.91
6559.00,1.90
6558.00,1.90
6557.00,1.90
6556.00,1.90
6555.00,1.89
6554.00,1.89
6553.00,1.89
6552.00,1.89
6551.00,1.88
6550.00,1.88
6549.00,1.88
6548.00,1.88
6547.00,1.87
6546.00,1.87
6545.00,1.87
6544.00,1.87
6543.00,1.86
6542.00,1.86
6541.00,1.86
6540.00,1.86
6539.00,1.85
6538.00,1.85
6537.00,1.85
6536.00,1.84
6535.00,1.84
6534.00,1.84
6533.00,1.84
6532.00,1.83
6531.00,1.83
6530.00,1.82
6529.00,1.82
6528.00,1.81
6527.00,1.81
6526.00,1.81
6525.00,1.81
6524.00,1.81
6523.00,1.81
6522.00,1.81
6521.00,1.81
6520.00,1.81
6519.00,1.81
6518.00,1.81
6517.00,1.81
6516.00,1.82
6515.00,1.82
6514.00,1.82
6513.00,1.82
6512.00,1.83
6511.00,1.83
6510.00,1.83
6509.00,1.84
6508.00,1.84
6507.00,1.84
6506.00,1.85
6505.00,1.85
6504.00,1.85
6503.00,1.86
6502.00,1.86
6501.00,1.87
6500.00,1.87
6499.00,1.87
6498.00,1.88
6497.00,1.88
6496.00,1.88
6495.00,1.88
6494.00,1.89
6493.00,1.89
6492.00,1.89
6491.00,1.89
6490.00,1.89
6489.00,1.90
6488.00,1.90
6487.00,1.90
6486.00,1.91
6485.00,1.91
6484.00,1.91
6483.00,1.92
6482.00,1.92
6481.00,1.93
6480.00,1.93
6479.00,1.94
6478.00,1.94
6477.00,1.95
6476.00,1.96
6475.00,1.96
6474.00,1.97
6473.00,1.98
6472.00,1.98
6471.00,1.99
6470.00,1.99
6469.00,2.00
6468.00,2.00
6467.00,2.01
6466.00,2.01
6465.00,2.01
6464.00,2.02
6463.00,2.02
6462.00,2.02
6461.00,2.02
6460.00,2.02
6459.00,2.02
6458.00,2.02
6457.00,2.03
6456.00,2.03
6455.00,2.03
6454.00,2.03
6453.00,2.03
6452.00,2.03
6451.00,2.03
6450.00,2.03
6449.00,2.03
6448.00,2.03
6447.00,2.03
6446.00,2.03
6445.00,2.03
6444.00,2.04
6443.00,2.04
6442.00,2.04
6441.00,2.04
6440.00,2.04
6439.00,2.04
6438.00,2.05
6437.00,2.05
6436.00,2.05
6435.00,2.06
6434.00,2.06
6433.00,2.06
6432.00,2.07
6431.00,2.07
6430.00,2.07
6429.00,2.08
6428.00,2.08
6427.00,2.08
6426.00,2.08
6425.00,2.08
6424.00,2.08
6423.00,2.07
6422.00,2.07
6421.00,2.07
6420.00,2.07
6419.00,2.07
6418.00,2.07
6417.00,2.07
6416.00,2.07
6415.00,2.06
6414.00,2.06
6413.00,2.06
6412.00,2.06
6411.00,2.06
6410.00,2.05
6409.00,2.05
6408.00,2.05
6407.00,2.05
6406.00,2.05
6405.00,2.05
6404.00,2.05
6403.00,2.04
6402.00,2.04
6401.00,2.04
6400.00,2.04
6399.00,2.04
6398.00,2.04
6397.00,2.05
6396.00,2.05
6395.00,2.05
6394.00,2.05
6393.00,2.05
6392.00,2.05
6391.00,2.06
6390.00,2.06
6389.00,2.06
6388.00,2.06
6387.00,2.07
6386.00,2.07
6385.00,2.07
6384.00,2.08
6383.00,2.08
6382.00,2.08
6381.00,2.08
6380.00,2.08
6379.00,2.08
6378.00,2.09
6377.00,2.09
6376.00,2.09
6375.00,2.09
6374.00,2.10
6373.00,2.10
6372.00,2.10
6371.00,2.11
6370.00,2.11
6369.00,2.11
6368.00,2.11
6367.00,2.12
6366.00,2.12
6365.00,2.12
6364.00,2.12
6363.00,2.12
6362.00,2.12
6361.00,2.12
6360.00,2.13
6359.00,2.13
6358.00,2.13
6357.00,2.13
6356.00,2.14
6355.00,2.14
6354.00,2.14
6353.00,2.14
6352.00,2.15
6351.00,2.15
6350.00,2.15
6349.00,2.15
6348.00,2.15
6347.00,2.15
6346.00,2.15
6345.00,2.15
6344.00,2.15
6343.00,2.15
6342.00,2.15
6341.00,2.15
6340.00,2.15
6339.00,2.16
6338.00,2.16
6337.00,2.16
6336.00,2.16
6335.00,2.17
6334.00,2.17
6333.00,2.17
6332.00,2.17
6331.00,2.17
6330.00,2.17
6329.00,2.17
6328.00,2.17
6327.00,2.17
6326.00,2.17
6325.00,2.17
6324.00,2.17
6323.00,2.17
6322.00,2.17
6321.00,2.17
6320.00,2.17
6319.00,2.17
6318.00,2.17
6317.00,2.16
6316.00,2.16
6315.00,2.16
6314.00,2.16
6313.00,2.16
6312.00,2.15
6311.00,2.15
6310.00,2.15
6309.00,2.15
6308.00,2.14
6307.00,2.14
6306.00,2.14
6305.00,2.13
6304.00,2.13
6303.00,2.13
6302.00,2.13
6301.00,2.13
6300.00,2.14
6299.00,2.14
6298.00,2.14
6297.00,2.14
6296.00,2.14
6295.00,2.15
6294.00,2.15
6293.00,2.15
6292.00,2.15
6291.00,2.16
6290.00,2.16
6289.00,2.16
6288.00,2.17
6287.00,2.17
6286.00,2.17
6285.00,2.17
6284.00,2.18
6283.00,2.18
6282.00,2.18
6281.00,2.18
6280.00,2.18
6279.00,2.18
6278.00,2.18
6277.00,2.18
6276.00,2.19
6275.00,2.19
6274.00,2.19
6273.00,2.18
6272.00,2.18
6271.00,2.18
6270.00,2.18
6269.00,2.18
6268.00,2.18
6267.00,2.18
6266.00,2.18
6265.00,2.18
6264.00,2.17
6263.00,2.17
6262.00,2.17
6261.00,2.17
6260.00,2.17
6259.00,2.17
6258.00,2.17
6257.00,2.17
6256.00,2.17
6255.00,2.17
6254.00,2.18
6253.00,2.18
6252.00,2.18
6251.00,2.19
6250.00,2.19
6249.00,2.19
6248.00,2.19
6247.00,2.20
6246.00,2.20
6245.00,2.20
6244.00,2.20
6243.00,2.21
6242.00,2.21
6241.00,2.21
6240.00,2.22
6239.00,2.22
6238.00,2.23
6237.00,2.23
6236.00,2.24
6235.00,2.24
6234.00,2.25
6233.00,2.25
6232.00,2.26
6231.00,2.26
6230.00,2.26
6229.00,2.27
6228.00,2.27
6227.00,2.27
6226.00,2.27
6225.00,2.27
6224.00,2.27
6223.00,2.27
6222.00,2.27
6221.00,2.27
6220.00,2.27
6219.00,2.27
6218.00,2.27
6217.00,2.27
6216.00,2.27
6215.00,2.27
6214.00,2.27
6213.00,2.27
6212.00,2.27
6211.00,2.26
6210.00,2.26
6209.00,2.26
6208.00,2.26
6207.00,2.25
6206.00,2.25
6205.00,2.24
6204.00,2.24
6203.00,2.23
6202.00,2.23
6201.00,2.23
6200.00,2.22
6199.00,2.22
6198.00,2.22
6197.00,2.22
6196.00,2.22
6195.00,2.22
6194.00,2.21
6193.00,2.21
6192.00,2.21
6191.00,2.21
6190.00,2.21
6189.00,2.21
6188.00,2.21
6187.00,2.21
6186.00,2.21
6185.00,2.20
6184.00,2.20
6183.00,2.20
6182.00,2.20
6181.00,2.20
6180.00,2.20
6179.00,2.20
6178.00,2.19
6177.00,2.19
6176.00,2.19
6175.00,2.19
6174.00,2.19
6173.00,2.19
6172.00,2.19
6171.00,2.19
6170.00,2.19
6169.00,2.18
6168.00,2.18
6167.00,2.18
6166.00,2.18
6165.00,2.18
6164.00,2.18
6163.00,2.18
6162.00,2.19
6161.00,2.19
6160.00,2.19
6159.00,2.19
6158.00,2.19
6157.00,2.19
6156.00,2.20
6155.00,2.20
6154.00,2.20
6153.00,2.21
6152.00,2.21
6151.00,2.22
6150.00,2.22
6149.00,2.23
6148.00,2.23
6147.00,2.24
6146.00,2.25
6145.00,2.25
6144.00,2.26
6143.00,2.26
6142.00,2.26
6141.00,2.27
6140.00,2.27
6139.00,2.28
6138.00,2.28
6137.00,2.28
6136.00,2.29
6135.00,2.29
6134.00,2.29
6133.00,2.30
6132.00,2.30
6131.00,2.30
6130.00,2.30
6129.00,2.30
6128.00,2.31
6127.00,2.31
6126.00,2.31
6125.00,2.31
6124.00,2.31
6123.00,2.31
6122.00,2.31
6121.00,2.30
6120.00,2.30
6119.00,2.30
6118.00,2.30
6117.00,2.30
6116.00,2.30
6115.00,2.30
6114.00,2.30
6113.00,2.30
6112.00,2.30
6111.00,2.30
6110.00,2.30
6109.00,2.30
6108.00,2.29
6107.00,2.29
6106.00,2.29
6105.00,2.29
6104.00,2.29
6103.00,2.29
6102.00,2.29
6101.00,2.29
6100.00,2.29
6099.00,2.30
6098.00,2.30
6097.00,2.30
6096.00,2.30
6095.00,2.31
6094.00,2.31
6093.00,2.31
6092.00,2.32
6091.00,2.32
6090.00,2.32
6089.00,2.33
6088.00,2.33
6087.00,2.33
6086.00,2.33
6085.00,2.34
6084.00,2.34
6083.00,2.34
6082.00,2.34
6081.00,2.35
6080.00,2.35
6079.00,2.35
6078.00,2.35
6077.00,2.35
6076.00,2.35
6075.00,2.35
6074.00,2.35
6073.00,2.35
6072.00,2.35
6071.00,2.35
6070.00,2.35
6069.00,2.34
6068.00,2.34
6067.00,2.34
6066.00,2.34
6065.00,2.34
6064.00,2.33
6063.00,2.33
6062.00,2.33
6061.00,2.33
6060.00,2.33
6059.00,2.32
6058.00,2.32
6057.00,2.32
6056.00,2.32
6055.00,2.31
6054.00,2.31
6053.00,2.31
6052.00,2.31
6051.00,2.31
6050.00,2.31
6049.00,2.31
6048.00,2.31
6047.00,2.31
6046.00,2.31
6045.00,2.31
6044.00,2.31
6043.00,2.31
6042.00,2.31
6041.00,2.30
6040.00,2.30
6039.00,2.30
6038.00,2.30
6037.00,2.30
6036.00,2.31
6035.00,2.31
6034.00,2.31
6033.00,2.31
6032.00,2.31
6031.00,2.31
6030.00,2.31
6029.00,2.31
6028.00,2.32
6027.00,2.32
6026.00,2.32
6025.00,2.32
6024.00,2.32
6023.00,2.32
6022.00,2.32
6021.00,2.32
6020.00,2.32
6019.00,2.32
6018.00,2.33
6017.00,2.33
6016.00,2.33
6015.00,2.33
6014.00,2.33
6013.00,2.33
6012.00,2.33
6011.00,2.33
6010.00,2.33
6009.00,2.33
6008.00,2.33
6007.00,2.33
6006.00,2.33
6005.00,2.33
6004.00,2.33
6003.00,2.32
6002.00,2.32
6001.00,2.32
6000.00,2.32
5999.00,2.32
5998.00,2.32
5997.00,2.31
5996.00,2.31
5995.00,2.31
5994.00,2.31
5993.00,2.31
5992.00,2.30
5991.00,2.30
5990.00,2.30
5989.00,2.30
5988.00,2.30
5987.00,2.29
5986.00,2.29
5985.00,2.29
5984.00,2.29
5983.00,2.29
5982.00,2.29
5981.00,2.29
5980.00,2.29
5979.00,2.29
5978.00,2.29
5977.00,2.29
5976.00,2.29
5975.00,2.29
5974.00,2.28
5973.00,2.28
5972.00,2.28
5971.00,2.28
5970.00,2.29
5969.00,2.29
5968.00,2.29
5967.00,2.29
5966.00,2.29
5965.00,2.29
5964.00,2.29
5963.00,2.29
5962.00,2.29
5961.00,2.30
5960.00,2.30
5959.00,2.30
5958.00,2.30
5957.00,2.30
5956.00,2.31
5955.00,2.31
5954.00,2.31
5953.00,2.31
5952.00,2.32
5951.00,2.32
5950.00,2.32
5949.00,2.32
5948.00,2.33
5947.00,2.33
5946.00,2.34
5945.00,2.34
5944.00,2.34
5943.00,2.34
5942.00,2.35
5941.00,2.35
5940.00,2.35
5939.00,2.35
5938.00,2.36
5937.00,2.36
5936.00,2.36
5935.00,2.36
5934.00,2.36
5933.00,2.36
5932.00,2.37
5931.00,2.37
5930.00,2.37
5929.00,2.37
5928.00,2.37
5927.00,2.37
5926.00,2.37
5925.00,2.36
5924.00,2.36
5923.00,2.36
5922.00,2.36
5921.00,2.36
5920.00,2.35
5919.00,2.35
5918.00,2.35
5917.00,2.35
5916.00,2.35
5915.00,2.34
5914.00,2.34
5913.00,2.34
5912.00,2.34
5911.00,2.34
5910.00,2.33
5909.00,2.33
5908.00,2.33
5907.00,2.33
5906.00,2.32
5905.00,2.32
5904.00,2.32
5903.00,2.31
5902.00,2.31
5901.00,2.31
5900.00,2.31
5899.00,2.31
5898.00,2.31
5897.00,2.31
5896.00,2.31
5895.00,2.31
5894.00,2.31
5893.00,2.31
5892.00,2.31
5891.00,2.31
5890.00,2.31
5889.00,2.31
5888.00,2.31
5887.00,2.31
5886.00,2.31
5885.00,2.31
5884.00,2.31
5883.00,2.31
5882.00,2.31
5881.00,2.31
5880.00,2.32
5879.00,2.32
5878.00,2.32
5877.00,2.32
5876.00,2.32
5875.00,2.33
5874.00,2.33
5873.00,2.33
5872.00,2.33
5871.00,2.33
5870.00,2.33
5869.00,2.33
5868.00,2.33
5867.00,2.33
5866.00,2.33
5865.00,2.33
5864.00,2.33
5863.00,2.33
5862.00,2.33
5861.00,2.33
5860.00,2.33
5859.00,2.33
5858.00,2.33
5857.00,2.33
5856.00,2.33
5855.00,2.33
5854.00,2.33
5853.00,2.33
5852.00,2.33
5851.00,2.32
5850.00,2.32
5849.00,2.32
5848.00,2.32
5847.00,2.32
5846.00,2.32
5845.00,2.32
5844.00,2.32
5843.00,2.32
5842.00,2.33
5841.00,2.33
5840.00,2.33
5839.00,2.33
5838.00,2.33
5837.00,2.33
5836.00,2.33
5835.00,2.33
5834.00,2.33
5833.00,2.33
5832.00,2.33
5831.00,2.34
5830.00,2.34
5829.00,2.34
5828.00,2.34
5827.00,2.34
5826.00,2.34
5825.00,2.33
5824.00,2.33
5823.00,2.33
5822.00,2.33
5821.00,2.33
5820.00,2.33
5819.00,2.33
5818.00,2.33
5817.00,2.32
5816.00,2.32
5815.00,2.32
5814.00,2.32
5813.00,2.32
5812.00,2.32
5811.00,2.31
5810.00,2.31
5809.00,2.31
5808.00,2.31
5807.00,2.31
5806.00,2.31
5805.00,2.31
5804.00,2.31
5803.00,2.31
5802.00,2.31
5801.00,2.31
5800.00,2.31
5799.00,2.31
5798.00,2.31
5797.00,2.31
5796.00,2.32
5795.00,2.32
5794.00,2.32
5793.00,2.32
5792.00,2.32
5791.00,2.32
5790.00,2.33
5789.00,2.33
5788.00,2.33
5787.00,2.33
5786.00,2.34
5785.00,2.34
5784.00,2.34
5783.00,2.34
5782.00,2.35
5781.00,2.35
5780.00,2.35
5779.00,2.35
5778.00,2.36
5777.00,2.36
5776.00,2.36
5775.00,2.36
5774.00,2.36
5773.00,2.37
5772.00,2.37
5771.00,2.37
5770.00,2.37
5769.00,2.37
5768.00,2.38
5767.00,2.38
5766.00,2.38
5765.00,2.38
5764.00,2.38
5763.00,2.38
5762.00,2.39
5761.00,2.39
5760.00,2.39
5759.00,2.39
5758.00,2.39
5757.00,2.39
5756.00,2.39
5755.00,2.39
5754.00,2.39
5753.00,2.39
5752.00,2.39
5751.00,2.39
5750.00,2.39
5749.00,2.39
5748.00,2.39
5747.00,2.39
5746.00,2.39
5745.00,2.39
5744.00,2.39
5743.00,2.38
5742.00,2.38
5741.00,2.38
5740.00,2.38
5739.00,2.37
5738.00,2.37
5737.00,2.37
5736.00,2.37
5735.00,2.36
5734.00,2.36
5733.00,2.36
5732.00,2.35
5731.00,2.35
5730.00,2.35
5729.00,2.34
5728.00,2.34
5727.00,2.34
5726.00,2.34
5725.00,2.34
5724.00,2.33
5723.00,2.33
5722.00,2.33
5721.00,2.33
5720.00,2.33
5719.00,2.33
5718.00,2.33
5717.00,2.32
5716.00,2.32
5715.00,2.32
5714.00,2.32
5713.00,2.32
5712.00,2.32
5711.00,2.32
5710.00,2.32
5709.00,2.32
5708.00,2.33
5707.00,2.33
5706.00,2.33
5705.00,2.33
5704.00,2.33
5703.00,2.33
5702.00,2.33
5701.00,2.33
5700.00,2.33
5699.00,2.33
5698.00,2.33
5697.00,2.33
5696.00,2.34
5695.00,2.34
5694.00,2.34
5693.00,2.34
5692.00,2.34
5691.00,2.34
5690.00,2.34
5689.00,2.34
5688.00,2.34
5687.00,2.34
5686.00,2.34
5685.00,2.34
5684.00,2.34
5683.00,2.34
5682.00,2.34
5681.00,2.34
5680.00,2.34
5679.00,2.34
5678.00,2.34
5677.00,2.34
5676.00,2.34
5675.00,2.34
5674.00,2.34
5673.00,2.34
5672.00,2.34
5671.00,2.34
5670.00,2.33
5669.00,2.33
5668.00,2.33
5667.00,2.33
5666.00,2.33
5665.00,2.33
5664.00,2.33
5663.00,2.34
5662.00,2.34
5661.00,2.34
5660.00,2.34
5659.00,2.34
5658.00,2.34
5657.00,2.34
5656.00,2.34
5655.00,2.34
5654.00,2.34
5653.00,2.34
5652.00,2.34
5651.00,2.34
5650.00,2.34
5649.00,2.34
5648.00,2.34
5647.00,2.34
5646.00,2.34
5645.00,2.34
5644.00,2.34
5643.00,2.34
5642.00,2.33
5641.00,2.33
5640.00,2.33
5639.00,2.33
5638.00,2.33
5637.00,2.33
5636.00,2.33
5635.00,2.33
5634.00,2.32
5633.00,2.32
5632.00,2.32
5631.00,2.32
5630.00,2.32
5629.00,2.32
5628.00,2.31
5627.00,2.31
5626.00,2.31
5625.00,2.31
5624.00,2.31
5623.00,2.30
5622.00,2.30
5621.00,2.30
5620.00,2.30
5619.00,2.30
5618.00,2.29
5617.00,2.29
5616.00,2.29
5615.00,2.29
5614.00,2.29
5613.00,2.29
5612.00,2.29
5611.00,2.29
5610.00,2.29
5609.00,2.28
5608.00,2.28
5607.00,2.28
5606.00,2.28
5605.00,2.28
5604.00,2.28
5603.00,2.28
5602.00,2.28
5601.00,2.28
5600.00,2.28
5599.00,2.28
5598.00,2.28
5597.00,2.28
5596.00,2.28
5595.00,2.28
5594.00,2.28
5593.00,2.28
5592.00,2.28
5591.00,2.29
5590.00,2.29
5589.00,2.29
5588.00,2.29
5587.00,2.29
5586.00,2.29
5585.00,2.29
5584.00,2.29
5583.00,2.29
5582.00,2.29
5581.00,2.29
5580.00,2.29
5579.00,2.30
5578.00,2.30
5577.00,2.30
5576.00,2.30
5575.00,2.30
5574.00,2.30
5573.00,2.31
5572.00,2.31
5571.00,2.31
5570.00,2.31
5569.00,2.31
5568.00,2.31
5567.00,2.31
5566.00,2.31
5565.00,2.31
5564.00,2.32
5563.00,2.32
5562.00,2.32
5561.00,2.32
5560.00,2.32
5559.00,2.32
5558.00,2.33
5557.00,2.33
5556.00,2.33
5555.00,2.33
5554.00,2.33
5553.00,2.34
5552.00,2.34
5551.00,2.34
5550.00,2.34
5549.00,2.34
5548.00,2.34
5547.00,2.34
5546.00,2.35
5545.00,2.35
5544.00,2.35
5543.00,2.35
5542.00,2.35
5541.00,2.35
5540.00,2.36
5539.00,2.36
5538.00,2.36
5537.00,2.36
5536.00,2.36
5535.00,2.36
5534.00,2.36
5533.00,2.37
5532.00,2.37
5531.00,2.37
5530.00,2.37
5529.00,2.37
5528.00,2.37
5527.00,2.37
5526.00,2.38
5525.00,2.38
5524.00,2.38
5523.00,2.38
5522.00,2.38
5521.00,2.38
5520.00,2.38
5519.00,2.38
5518.00,2.39
5517.00,2.39
5516.00,2.39
5515.00,2.39
5514.00,2.39
5513.00,2.39
5512.00,2.39
5511.00,2.39
5510.00,2.39
5509.00,2.39
5508.00,2.39
5507.00,2.39
5506.00,2.38
5505.00,2.38
5504.00,2.38
5503.00,2.38
5502.00,2.38
5501.00,2.37
5500.00,2.37
5499.00,2.37
5498.00,2.37
5497.00,2.36
5496.00,2.36
5495.00,2.36
5494.00,2.36
5493.00,2.36
5492.00,2.35
5491.00,2.35
5490.00,2.35
5489.00,2.35
5488.00,2.34
5487.00,2.34
5486.00,2.34
5485.00,2.34
5484.00,2.33
5483.00,2.33
5482.00,2.33
5481.00,2.32
5480.00,2.32
5479.00,2.32
5478.00,2.32
5477.00,2.32
5476.00,2.31
5475.00,2.31
5474.00,2.31
5473.00,2.31
5472.00,2.31
5471.00,2.31
5470.00,2.31
5469.00,2.31
5468.00,2.30
5467.00,2.30
5466.00,2.30
5465.00,2.30
5464.00,2.30
5463.00,2.30
5462.00,2.29
5461.00,2.29
5460.00,2.29
5459.00,2.29
5458.00,2.29
5457.00,2.29
5456.00,2.29
5455.00,2.29
5454.00,2.29
5453.00,2.29
5452.00,2.29
5451.00,2.29
5450.00,2.29
5449.00,2.29
5448.00,2.29
5447.00,2.29
5446.00,2.28
5445.00,2.28
5444.00,2.28
5443.00,2.28
5442.00,2.28
5441.00,2.28
5440.00,2.27
5439.00,2.27
5438.00,2.27
5437.00,2.27
5436.00,2.27
5435.00,2.27
5434.00,2.27
5433.00,2.26
5432.00,2.26
5431.00,2.26
5430.00,2.26
5429.00,2.26
5428.00,2.25
5427.00,2.25
5426.00,2.25
5425.00,2.25
5424.00,2.25
5423.00,2.24
5422.00,2.24
5421.00,2.24
5420.00,2.24
5419.00,2.24
5418.00,2.24
5417.00,2.24
5416.00,2.24
5415.00,2.24
5414.00,2.23
5413.00,2.23
5412.00,2.23
5411.00,2.23
5410.00,2.23
5409.00,2.22
5408.00,2.22
5407.00,2.22
5406.00,2.22
5405.00,2.21
5404.00,2.21
5403.00,2.21
5402.00,2.21
5401.00,2.21
5400.00,2.21
5399.00,2.21
5398.00,2.21
5397.00,2.21
5396.00,2.20
5395.00,2.20
5394.00,2.20
5393.00,2.20
5392.00,2.20
5391.00,2.20
5390.00,2.20
5389.00,2.20
5388.00,2.20
5387.00,2.20
5386.00,2.20
5385.00,2.20
5384.00,2.21
5383.00,2.21
5382.00,2.21
5381.00,2.21
5380.00,2.21
5379.00,2.21
5378.00,2.21
5377.00,2.21
5376.00,2.21
5375.00,2.21
5374.00,2.21
5373.00,2.21
5372.00,2.21
5371.00,2.21
5370.00,2.21
5369.00,2.20
5368.00,2.20
5367.00,2.20
5366.00,2.20
5365.00,2.20
5364.00,2.19
5363.00,2.19
5362.00,2.19
5361.00,2.18
5360.00,2.17
5359.00,2.17
5358.00,2.16
5357.00,2.15
5356.00,2.14
5355.00,2.14
5354.00,2.13
5353.00,2.12
5352.00,2.11
5351.00,2.10
5350.00,2.09
5349.00,2.08
5348.00,2.07
5347.00,2.06
5346.00,2.05
5345.00,2.04
5344.00,2.03
5343.00,2.02
5342.00,2.01
5341.00,2.00
5340.00,1.99
5339.00,1.98
5338.00,1.97
5337.00,1.96
5336.00,1.95
5335.00,1.94
5334.00,1.93
5333.00,1.93
5332.00,1.92
5331.00,1.91
5330.00,1.91
5329.00,1.90
5328.00,1.89
5327.00,1.89
5326.00,1.88
5325.00,1.88
5324.00,1.87
5323.00,1.87
5322.00,1.86
5321.00,1.86
5320.00,1.85
5319.00,1.85
5318.00,1.84
5317.00,1.84
5316.00,1.83
5315.00,1.83
5314.00,1.82
5313.00,1.81
5312.00,1.81
5311.00,1.80
5310.00,1.79
5309.00,1.79
5308.00,1.78
5307.00,1.77
5306.00,1.76
5305.00,1.76
5304.00,1.75
5303.00,1.74
5302.00,1.73
5301.00,1.72
5300.00,1.71
5299.00,1.70
5298.00,1.69
5297.00,1.68
5296.00,1.67
5295.00,1.66
5294.00,1.65
5293.00,1.63
5292.00,1.62
5291.00,1.61
5290.00,1.60
5289.00,1.59
5288.00,1.58
5287.00,1.57
5286.00,1.56
5285.00,1.55
5284.00,1.54
5283.00,1.53
5282.00,1.52
5281.00,1.51
5280.00,1.50
5279.00,1.49
5278.00,1.49
5277.00,1.48
5276.00,1.47
5275.00,1.46
5274.00,1.45
5273.00,1.44
5272.00,1.43
5271.00,1.42
5270.00,1.41
5269.00,1.40
5268.00,1.39
5267.00,1.38
5266.00,1.37
5265.00,1.36
5264.00,1.36
5263.00,1.35
5262.00,1.34
5261.00,1.33
5260.00,1.32
5259.00,1.31
5258.00,1.30
5257.00,1.30
5256.00,1.29
5255.00,1.28
5254.00,1.27
5253.00,1.26
5252.00,1.25
5251.00,1.25
5250.00,1.24
5249.00,1.23
5248.00,1.22
5247.00,1.22
5246.00,1.21
5245.00,1.21
5244.00,1.20
5243.00,1.20
5242.00,1.19
5241.00,1.19
5240.00,1.19
5239.00,1.18
5238.00,1.18
5237.00,1.18
5236.00,1.18
5235.00,1.18
5234.00,1.18
5233.00,1.17
5232.00,1.17
5231.00,1.17
5230.00,1.17
5229.00,1.17
5228.00,1.17
5227.00,1.17
5226.00,1.17
5225.00,1.17
5224.00,1.17
5223.00,1.17
5222.00,1.17
5221.00,1.17
5220.00,1.17
5219.00,1.17
5218.00,1.17
5217.00,1.17
5216.00,1.17
5215.00,1.17
5214.00,1.17
5213.00,1.18
5212.00,1.18
5211.00,1.18
5210.00,1.18
5209.00,1.18
5208.00,1.18
5207.00,1.18
5206.00,1.18
5205.00,1.18
5204.00,1.18
5203.00,1.19
5202.00,1.19
5201.00,1.19
5200.00,1.19
5199.00,1.19
5198.00,1.19
5197.00,1.20
5196.00,1.20
5195.00,1.20
5194.00,1.20
5193.00,1.20
5192.00,1.20
5191.00,1.20
5190.00,1.20
5189.00,1.20
5188.00,1.20
5187.00,1.20
5186.00,1.20
5185.00,1.20
5184.00,1.19
5183.00,1.19
5182.00,1.19
5181.00,1.19
5180.00,1.19
5179.00,1.18
5178.00,1.18
5177.00,1.18
5176.00,1.18
5175.00,1.18
5174.00,1.18
5173.00,1.17
5172.00,1.17
5171.00,1.17
5170.00,1.17
5169.00,1.17
5168.00,1.16
5167.00,1.16
5166.00,1.16
5165.00,1.16
5164.00,1.16
5163.00,1.16
5162.00,1.16
5161.00,1.16
5160.00,1.16
5159.00,1.16
5158.00,1.16
5157.00,1.17
5156.00,1.17
5155.00,1.17
5154.00,1.17
5153.00,1.18
5152.00,1.18
5151.00,1.18
5150.00,1.18
5149.00,1.19
5148.00,1.19
5147.00,1.19
5146.00,1.19
5145.00,1.20
5144.00,1.20
5143.00,1.20
5142.00,1.20
5141.00,1.21
5140.00,1.21
5139.00,1.21
5138.00,1.21
5137.00,1.22
5136.00,1.22
5135.00,1.22
5134.00,1.22
5133.00,1.23
5132.00,1.23
5131.00,1.23
5130.00,1.23
5129.00,1.23
5128.00,1.23
5127.00,1.23
5126.00,1.23
5125.00,1.23
5124.00,1.23
5123.00,1.23
5122.00,1.23
5121.00,1.23
5120.00,1.23
5119.00,1.23
5118.00,1.24
5117.00,1.24
5116.00,1.24
5115.00,1.24
5114.00,1.24
5113.00,1.24
5112.00,1.24
5111.00,1.24
5110.00,1.24
5109.00,1.24
5108.00,1.24
5107.00,1.24
5106.00,1.24
5105.00,1.24
5104.00,1.24
5103.00,1.25
5102.00,1.25
5101.00,1.25
5100.00,1.25
5099.00,1.25
5098.00,1.25
5097.00,1.26
5096.00,1.26
5095.00,1.26
5094.00,1.26
5093.00,1.27
5092.00,1.27
5091.00,1.27
5090.00,1.27
5089.00,1.27
5088.00,1.28
5087.00,1.28
5086.00,1.28
5085.00,1.28
5084.00,1.28
5083.00,1.29
5082.00,1.29
5081.00,1.29
5080.00,1.29
5079.00,1.30
5078.00,1.30
5077.00,1.30
5076.00,1.30
5075.00,1.31
5074.00,1.31
5073.00,1.31
5072.00,1.31
5071.00,1.31
5070.00,1.31
5069.00,1.32
5068.00,1.32
5067.00,1.32
5066.00,1.33
5065.00,1.33
5064.00,1.33
5063.00,1.33
5062.00,1.34
5061.00,1.34
5060.00,1.34
5059.00,1.35
5058.00,1.35
5057.00,1.35
5056.00,1.35
5055.00,1.36
5054.00,1.36
5053.00,1.36
5052.00,1.36
5051.00,1.37
5050.00,1.37
5049.00,1.37
5048.00,1.38
5047.00,1.38
5046.00,1.38
5045.00,1.39
5044.00,1.39
5043.00,1.39
5042.00,1.39
5041.00,1.40
5040.00,1.40
5039.00,1.40
5038.00,1.40
5037.00,1.40
5036.00,1.40
5035.00,1.40
5034.00,1.40
5033.00,1.40
5032.00,1.40
5031.00,1.40
5030.00,1.40
5029.00,1.41
5028.00,1.41
5027.00,1.41
5026.00,1.41
5025.00,1.41
5024.00,1.41
5023.00,1.41
5022.00,1.42
5021.00,1.42
5020.00,1.42
5019.00,1.42
5018.00,1.42
5017.00,1.43
5016.00,1.43
5015.00,1.43
5014.00,1.43
5013.00,1.44
5012.00,1.44
5011.00,1.45
5010.00,1.45
5009.00,1.46
5008.00,1.46
5007.00,1.46
5006.00,1.47
5005.00,1.47
5004.00,1.47
5003.00,1.48
5002.00,1.48
5001.00,1.48
5000.00,1.49
4999.00,1.49
4998.00,1.50
4997.00,1.50
4996.00,1.50
4995.00,1.51
4994.00,1.51
4993.00,1.51
4992.00,1.52
4991.00,1.52
4990.00,1.52
4989.00,1.53
4988.00,1.53
4987.00,1.53
4986.00,1.54
4985.00,1.54
4984.00,1.54
4983.00,1.54
4982.00,1.55
4981.00,1.55
4980.00,1.55
4979.00,1.56
4978.00,1.56
4977.00,1.56
4976.00,1.56
4975.00,1.57
4974.00,1.57
4973.00,1.57
4972.00,1.57
4971.00,1.57
4970.00,1.57
4969.00,1.57
4968.00,1.57
4967.00,1.57
4966.00,1.57
4965.00,1.57
4964.00,1.57
4963.00,1.58
4962.00,1.58
4961.00,1.58
4960.00,1.58
4959.00,1.58
4958.00,1.58
4957.00,1.58
4956.00,1.58
4955.00,1.58
4954.00,1.58
4953.00,1.58
4952.00,1.58
4951.00,1.58
4950.00,1.58
4949.00,1.59
4948.00,1.59
4947.00,1.59
4946.00,1.59
4945.00,1.60
4944.00,1.60
4943.00,1.60
4942.00,1.61
4941.00,1.61
4940.00,1.62
4939.00,1.62
4938.00,1.62
4937.00,1.63
4936.00,1.63
4935.00,1.64
4934.00,1.64
4933.00,1.64
4932.00,1.65
4931.00,1.65
4930.00,1.66
4929.00,1.66
4928.00,1.67
4927.00,1.67
4926.00,1.67
4925.00,1.68
4924.00,1.68
4923.00,1.68
4922.00,1.68
4921.00,1.69
4920.00,1.69
4919.00,1.69
4918.00,1.69
4917.00,1.70
4916.00,1.70
4915.00,1.70
4914.00,1.70
4913.00,1.70
4912.00,1.71
4911.00,1.71
4910.00,1.71
4909.00,1.71
4908.00,1.71
4907.00,1.71
4906.00,1.72
4905.00,1.72
4904.00,1.72
4903.00,1.72
4902.00,1.72
4901.00,1.73
4900.00,1.73
4899.00,1.73
4898.00,1.73
4897.00,1.74
4896.00,1.74
4895.00,1.74
4894.00,1.74
4893.00,1.74
4892.00,1.75
4891.00,1.75
4890.00,1.75
4889.00,1.75
4888.00,1.76
4887.00,1.76
4886.00,1.76
4885.00,1.77
4884.00,1.77
4883.00,1.78
4882.00,1.78
4881.00,1.79
4880.00,1.79
4879.00,1.80
4878.00,1.80
4877.00,1.81
4876.00,1.81
4875.00,1.82
4874.00,1.82
4873.00,1.82
4872.00,1.83
4871.00,1.83
4870.00,1.83
4869.00,1.84
4868.00,1.84
4867.00,1.85
4866.00,1.85
4865.00,1.85
4864.00,1.86
4863.00,1.86
4862.00,1.86
4861.00,1.86
4860.00,1.86
4859.00,1.86
4858.00,1.86
4857.00,1.86
4856.00,1.86
4855.00,1.86
4854.00,1.86
4853.00,1.86
4852.00,1.86
4851.00,1.86
4850.00,1.86
4849.00,1.86
4848.00,1.86
4847.00,1.86
4846.00,1.86
4845.00,1.86
4844.00,1.86
4843.00,1.86
4842.00,1.86
4841.00,1.86
4840.00,1.86
4839.00,1.86
4838.00,1.86
4837.00,1.86
4836.00,1.87
4835.00,1.87
4834.00,1.87
4833.00,1.87
4832.00,1.87
4831.00,1.88
4830.00,1.88
4829.00,1.88
4828.00,1.88
4827.00,1.88
4826.00,1.89
4825.00,1.89
4824.00,1.89
4823.00,1.89
4822.00,1.90
4821.00,1.90
4820.00,1.90
4819.00,1.91
4818.00,1.91
4817.00,1.91
4816.00,1.92
4815.00,1.92
4814.00,1.92
4813.00,1.93
4812.00,1.93
4811.00,1.93
4810.00,1.94
4809.00,1.94
4808.00,1.95
4807.00,1.95
4806.00,1.96
4805.00,1.96
4804.00,1.97
4803.00,1.97
4802.00,1.98
4801.00,1.98
4800.00,1.99
4799.00,1.99
4798.00,2.00
4797.00,2.00
4796.00,2.01
4795.00,2.01
4794.00,2.01
4793.00,2.02
4792.00,2.02
4791.00,2.02
4790.00,2.03
4789.00,2.03
4788.00,2.03
4787.00,2.03
4786.00,2.04
4785.00,2.04
4784.00,2.04
4783.00,2.04
4782.00,2.05
4781.00,2.05
4780.00,2.05
4779.00,2.05
4778.00,2.05
4777.00,2.05
4776.00,2.05
4775.00,2.05
4774.00,2.05
4773.00,2.05
4772.00,2.05
4771.00,2.05
4770.00,2.05
4769.00,2.05
4768.00,2.04
4767.00,2.04
4766.00,2.04
4765.00,2.04
4764.00,2.04
4763.00,2.04
4762.00,2.04
4761.00,2.04
4760.00,2.04
4759.00,2.04
4758.00,2.04
4757.00,2.04
4756.00,2.03
4755.00,2.03
4754.00,2.03
4753.00,2.03
4752.00,2.03
4751.00,2.03
4750.00,2.03
4749.00,2.03
4748.00,2.03
4747.00,2.03
4746.00,2.04
4745.00,2.04
4744.00,2.04
4743.00,2.05
4742.00,2.05
4741.00,2.06
4740.00,2.07
4739.00,2.07
4738.00,2.08
4737.00,2.08
4736.00,2.09
4735.00,2.09
4734.00,2.10
4733.00,2.10
4732.00,2.11
4731.00,2.12
4730.00,2.12
4729.00,2.13
4728.00,2.14
4727.00,2.15
4726.00,2.15
4725.00,2.16
4724.00,2.17
4723.00,2.17
4722.00,2.18
4721.00,2.18
4720.00,2.19
4719.00,2.20
4718.00,2.20
4717.00,2.21
4716.00,2.21
4715.00,2.21
4714.00,2.22
4713.00,2.22
4712.00,2.22
4711.00,2.22
4710.00,2.23
4709.00,2.23
4708.00,2.23
4707.00,2.23
4706.00,2.24
4705.00,2.24
4704.00,2.24
4703.00,2.24
4702.00,2.24
4701.00,2.25
4700.00,2.25
4699.00,2.25
4698.00,2.25
4697.00,2.25
4696.00,2.25
4695.00,2.26
4694.00,2.26
4693.00,2.26
4692.00,2.26
4691.00,2.26
4690.00,2.26
4689.00,2.26
4688.00,2.26
4687.00,2.27
4686.00,2.27
4685.00,2.27
4684.00,2.27
4683.00,2.27
4682.00,2.27
4681.00,2.28
4680.00,2.28
4679.00,2.28
4678.00,2.28
4677.00,2.29
4676.00,2.29
4675.00,2.29
4674.00,2.29
4673.00,2.30
4672.00,2.30
4671.00,2.30
4670.00,2.30
4669.00,2.30
4668.00,2.30
4667.00,2.31
4666.00,2.31
4665.00,2.31
4664.00,2.31
4663.00,2.32
4662.00,2.32
4661.00,2.32
4660.00,2.33
4659.00,2.33
4658.00,2.34
4657.00,2.34
4656.00,2.34
4655.00,2.35
4654.00,2.35
4653.00,2.35
4652.00,2.35
4651.00,2.35
4650.00,2.35
4649.00,2.35
4648.00,2.35
4647.00,2.35
4646.00,2.36
4645.00,2.36
4644.00,2.36
4643.00,2.36
4642.00,2.36
4641.00,2.36
4640.00,2.36
4639.00,2.35
4638.00,2.35
4637.00,2.35
4636.00,2.35
4635.00,2.34
4634.00,2.34
4633.00,2.34
4632.00,2.33
4631.00,2.33
4630.00,2.32
4629.00,2.32
4628.00,2.31
4627.00,2.31
4626.00,2.31
4625.00,2.30
4624.00,2.30
4623.00,2.30
4622.00,2.30
4621.00,2.29
4620.00,2.29
4619.00,2.29
4618.00,2.29
4617.00,2.29
4616.00,2.28
4615.00,2.28
4614.00,2.28
4613.00,2.28
4612.00,2.28
4611.00,2.28
4610.00,2.28
4609.00,2.28
4608.00,2.28
4607.00,2.28
4606.00,2.28
4605.00,2.28
4604.00,2.28
4603.00,2.28
4602.00,2.28
4601.00,2.28
4600.00,2.28
4599.00,2.28
4598.00,2.28
4597.00,2.28
4596.00,2.28
4595.00,2.28
4594.00,2.27
4593.00,2.27
4592.00,2.27
4591.00,2.27
4590.00,2.27
4589.00,2.27
4588.00,2.27
4587.00,2.27
4586.00,2.27
4585.00,2.27
4584.00,2.27
4583.00,2.27
4582.00,2.27
4581.00,2.27
4580.00,2.27
4579.00,2.27
4578.00,2.27
4577.00,2.27
4576.00,2.27
4575.00,2.27
4574.00,2.27
4573.00,2.27
4572.00,2.27
4571.00,2.27
4570.00,2.27
4569.00,2.28
4568.00,2.28
4567.00,2.28
4566.00,2.28
4565.00,2.28
4564.00,2.29
4563.00,2.29
4562.00,2.29
4561.00,2.29
4560.00,2.29
4559.00,2.29
4558.00,2.29
4557.00,2.30
4556.00,2.30
4555.00,2.30
4554.00,2.30
4553.00,2.30
4552.00,2.30
4551.00,2.30
4550.00,2.30
4549.00,2.30
4548.00,2.30
4547.00,2.30
4546.00,2.30
4545.00,2.30
4544.00,2.30
4543.00,2.30
4542.00,2.30
4541.00,2.30
4540.00,2.30
4539.00,2.30
4538.00,2.30
4537.00,2.30
4536.00,2.30
4535.00,2.30
4534.00,2.30
4533.00,2.30
4532.00,2.30
4531.00,2.30
4530.00,2.30
4529.00,2.30
4528.00,2.30
4527.00,2.30
4526.00,2.30
4525.00,2.30
4524.00,2.30
4523.00,2.30
4522.00,2.30
4521.00,2.30
4520.00,2.30
4519.00,2.30
4518.00,2.30
4517.00,2.30
4516.00,2.30
4515.00,2.30
4514.00,2.30
4513.00,2.30
4512.00,2.30
4511.00,2.30
4510.00,2.30
4509.00,2.30
4508.00,2.30
4507.00,2.30
4506.00,2.31
4505.00,2.31
4504.00,2.31
4503.00,2.31
4502.00,2.31
4501.00,2.31
4500.00,2.31
4499.00,2.31
4498.00,2.31
4497.00,2.31
4496.00,2.31
4495.00,2.31
4494.00,2.31
4493.00,2.31
4492.00,2.31
4491.00,2.31
4490.00,2.31
4489.00,2.31
4488.00,2.31
4487.00,2.31
4486.00,2.31
4485.00,2.31
4484.00,2.31
4483.00,2.31
4482.00,2.30
4481.00,2.30
4480.00,2.30
4479.00,2.30
4478.00,2.29
4477.00,2.29
4476.00,2.29
4475.00,2.29
4474.00,2.29
4473.00,2.28
4472.00,2.28
4471.00,2.28
4470.00,2.29
4469.00,2.29
4468.00,2.29
4467.00,2.29
4466.00,2.29
4465.00,2.29
4464.00,2.29
4463.00,2.29
4462.00,2.29
4461.00,2.29
4460.00,2.29
4459.00,2.29
4458.00,2.29
4457.00,2.29
4456.00,2.29
4455.00,2.29
4454.00,2.29
4453.00,2.29
4452.00,2.29
4451.00,2.29
4450.00,2.29
4449.00,2.29
4448.00,2.29
4447.00,2.29
4446.00,2.29
4445.00,2.28
4444.00,2.28
4443.00,2.28
4442.00,2.28
4441.00,2.27
4440.00,2.27
4439.00,2.26
4438.00,2.26
4437.00,2.26
4436.00,2.25
4435.00,2.25
4434.00,2.24
4433.00,2.24
4432.00,2.23
4431.00,2.23
4430.00,2.22
4429.00,2.22
4428.00,2.21
4427.00,2.21
4426.00,2.20
4425.00,2.20
4424.00,2.19
4423.00,2.19
4422.00,2.18
4421.00,2.18
4420.00,2.17
4419.00,2.17
4418.00,2.16
4417.00,2.16
4416.00,2.15
4415.00,2.15
4414.00,2.15
4413.00,2.14
4412.00,2.14
4411.00,2.14
4410.00,2.14
4409.00,2.14
4408.00,2.14
4407.00,2.14
4406.00,2.14
4405.00,2.14
4404.00,2.14
4403.00,2.14
4402.00,2.14
4401.00,2.15
4400.00,2.15
4399.00,2.15
4398.00,2.15
4397.00,2.16
4396.00,2.16
4395.00,2.16
4394.00,2.17
4393.00,2.17
4392.00,2.18
4391.00,2.18
4390.00,2.19
4389.00,2.19
4388.00,2.20
4387.00,2.21
4386.00,2.21
4385.00,2.22
4384.00,2.22
4383.00,2.23
4382.00,2.23
4381.00,2.24
4380.00,2.24
4379.00,2.25
4378.00,2.25
4377.00,2.25
4376.00,2.25
4375.00,2.25
4374.00,2.26
4373.00,2.26
4372.00,2.26
4371.00,2.26
4370.00,2.26
4369.00,2.26
4368.00,2.26
4367.00,2.26
4366.00,2.25
4365.00,2.25
4364.00,2.25
4363.00,2.25
4362.00,2.25
4361.00,2.24
4360.00,2.24
4359.00,2.23
4358.00,2.23
4357.00,2.22
4356.00,2.22
4355.00,2.22
4354.00,2.21
4353.00,2.21
4352.00,2.20
4351.00,2.20
4350.00,2.20
4349.00,2.19
4348.00,2.19
4347.00,2.19
4346.00,2.18
4345.00,2.18
4344.00,2.18
4343.00,2.18
4342.00,2.18
4341.00,2.18
4340.00,2.18
4339.00,2.18
4338.00,2.18
4337.00,2.18
4336.00,2.18
4335.00,2.18
4334.00,2.19
4333.00,2.19
4332.00,2.19
4331.00,2.19
4330.00,2.19
4329.00,2.20
4328.00,2.20
4327.00,2.20
4326.00,2.20
4325.00,2.21
4324.00,2.21
4323.00,2.21
4322.00,2.22
4321.00,2.22
4320.00,2.22
4319.00,2.23
4318.00,2.23
4317.00,2.23
4316.00,2.23
4315.00,2.24
4314.00,2.24
4313.00,2.24
4312.00,2.24
4311.00,2.24
4310.00,2.25
4309.00,2.25
4308.00,2.25
4307.00,2.25
4306.00,2.26
4305.00,2.26
4304.00,2.26
4303.00,2.27
4302.00,2.27
4301.00,2.27
4300.00,2.28
4299.00,2.28
4298.00,2.28
4297.00,2.29
4296.00,2.29
4295.00,2.29
4294.00,2.30
4293.00,2.30
4292.00,2.30
4291.00,2.31
4290.00,2.31
4289.00,2.31
4288.00,2.32
4287.00,2.32
4286.00,2.32
4285.00,2.32
4284.00,2.32
4283.00,2.32
4282.00,2.32
4281.00,2.32
4280.00,2.31
4279.00,2.31
4278.00,2.31
4277.00,2.31
4276.00,2.31
4275.00,2.31
4274.00,2.31
4273.00,2.31
4272.00,2.31
4271.00,2.31
4270.00,2.31
4269.00,2.31
4268.00,2.31
4267.00,2.30
4266.00,2.30
4265.00,2.30
4264.00,2.29
4263.00,2.29
4262.00,2.29
4261.00,2.29
4260.00,2.28
4259.00,2.28
4258.00,2.28
4257.00,2.28
4256.00,2.28
4255.00,2.28
4254.00,2.28
4253.00,2.28
4252.00,2.28
4251.00,2.27
4250.00,2.27
4249.00,2.27
4248.00,2.26
4247.00,2.26
4246.00,2.26
4245.00,2.25
4244.00,2.25
4243.00,2.25
4242.00,2.25
4241.00,2.25
4240.00,2.25
4239.00,2.25
4238.00,2.25
4237.00,2.25
4236.00,2.25
4235.00,2.25
4234.00,2.25
4233.00,2.25
4232.00,2.25
4231.00,2.25
4230.00,2.25
4229.00,2.25
4228.00,2.25
4227.00,2.25
4226.00,2.25
4225.00,2.25
4224.00,2.25
4223.00,2.25
4222.00,2.25
4221.00,2.26
4220.00,2.26
4219.00,2.26
4218.00,2.26
4217.00,2.26
4216.00,2.26
4215.00,2.26
4214.00,2.26
4213.00,2.26
4212.00,2.26
4211.00,2.26
4210.00,2.26
4209.00,2.26
4208.00,2.26
4207.00,2.26
4206.00,2.27
4205.00,2.27
4204.00,2.27
4203.00,2.27
4202.00,2.27
4201.00,2.27
4200.00,2.27
4199.00,2.26
4198.00,2.26
4197.00,2.26
4196.00,2.25
4195.00,2.25
4194.00,2.25
4193.00,2.24
4192.00,2.24
4191.00,2.23
4190.00,2.22
4189.00,2.22
4188.00,2.21
4187.00,2.20
4186.00,2.20
4185.00,2.19
4184.00,2.18
4183.00,2.18
4182.00,2.17
4181.00,2.16
4180.00,2.16
4179.00,2.15
4178.00,2.14
4177.00,2.14
4176.00,2.13
4175.00,2.13
4174.00,2.13
4173.00,2.12
4172.00,2.12
4171.00,2.12
4170.00,2.12
4169.00,2.12
4168.00,2.12
4167.00,2.12
4166.00,2.12
4165.00,2.12
4164.00,2.12
4163.00,2.12
4162.00,2.13
4161.00,2.13
4160.00,2.13
4159.00,2.13
4158.00,2.14
4157.00,2.14
4156.00,2.14
4155.00,2.14
4154.00,2.15
4153.00,2.15
4152.00,2.15
4151.00,2.15
4150.00,2.15
4149.00,2.16
4148.00,2.16
4147.00,2.16
4146.00,2.16
4145.00,2.16
4144.00,2.16
4143.00,2.15
4142.00,2.15
4141.00,2.15
4140.00,2.15
4139.00,2.15
4138.00,2.15
4137.00,2.15
4136.00,2.15
4135.00,2.15
4134.00,2.14
4133.00,2.14
4132.00,2.14
4131.00,2.14
4130.00,2.14
4129.00,2.14
4128.00,2.14
4127.00,2.14
4126.00,2.14
4125.00,2.14
4124.00,2.13
4123.00,2.13
4122.00,2.13
4121.00,2.13
4120.00,2.13
4119.00,2.13
4118.00,2.13
4117.00,2.13
4116.00,2.13
4115.00,2.13
4114.00,2.13
4113.00,2.13
4112.00,2.13
4111.00,2.13
4110.00,2.13
4109.00,2.13
4108.00,2.13
4107.00,2.13
4106.00,2.13
4105.00,2.13
4104.00,2.13
4103.00,2.13
4102.00,2.13
4101.00,2.13
4100.00,2.13
4099.00,2.13
4098.00,2.13
4097.00,2.13
4096.00,2.13
4095.00,2.13
4094.00,2.13
4093.00,2.13
4092.00,2.13
4091.00,2.13
4090.00,2.13
4089.00,2.14
4088.00,2.14
4087.00,2.14
4086.00,2.14
4085.00,2.14
4084.00,2.14
4083.00,2.14
4082.00,2.14
4081.00,2.14
4080.00,2.14
4079.00,2.14
4078.00,2.14
4077.00,2.14
4076.00,2.14
4075.00,2.15
4074.00,2.15
4073.00,2.15
4072.00,2.15
4071.00,2.15
4070.00,2.15
4069.00,2.16
4068.00,2.16
4067.00,2.16
4066.00,2.16
4065.00,2.16
4064.00,2.17
4063.00,2.17
4062.00,2.18
4061.00,2.18
4060.00,2.18
4059.00,2.19
4058.00,2.19
4057.00,2.20
4056.00,2.21
4055.00,2.21
4054.00,2.22
4053.00,2.23
4052.00,2.24
4051.00,2.24
4050.00,2.25
4049.00,2.26
4048.00,2.26
4047.00,2.27
4046.00,2.28
4045.00,2.28
4044.00,2.29
4043.00,2.29
4042.00,2.30
4041.00,2.30
4040.00,2.31
4039.00,2.31
4038.00,2.31
4037.00,2.32
4036.00,2.32
4035.00,2.31
4034.00,2.31
4033.00,2.31
4032.00,2.31
4031.00,2.30
4030.00,2.30
4029.00,2.29
4028.00,2.28
4027.00,2.28
4026.00,2.27
4025.00,2.27
4024.00,2.26
4023.00,2.26
4022.00,2.25
4021.00,2.25
4020.00,2.24
4019.00,2.24
4018.00,2.24
4017.00,2.24
4016.00,2.25
4015.00,2.25
4014.00,2.25
4013.00,2.26
4012.00,2.26
4011.00,2.27
4010.00,2.28
4009.00,2.29
4008.00,2.30
4007.00,2.31
4006.00,2.33
4005.00,2.34
4004.00,2.36
4003.00,2.38
4002.00,2.40
4001.00,2.42
4000.00,2.44
