创建为新数据集,样品 1113 用户 Administrator 日期 星期二, 七月 30 2019
cm-1,%T
10000.00,3.07
9999.00,3.11
9998.00,3.16
9997.00,3.20
9996.00,3.25
9995.00,3.29
9994.00,3.32
9993.00,3.35
9992.00,3.38
9991.00,3.40
9990.00,3.41
9989.00,3.42
9988.00,3.42
9987.00,3.42
9986.00,3.40
9985.00,3.39
9984.00,3.36
9983.00,3.34
9982.00,3.31
9981.00,3.27
9980.00,3.24
9979.00,3.20
9978.00,3.15
9977.00,3.11
9976.00,3.06
9975.00,3.02
9974.00,2.97
9973.00,2.92
9972.00,2.88
9971.00,2.84
9970.00,2.79
9969.00,2.75
9968.00,2.71
9967.00,2.67
9966.00,2.63
9965.00,2.60
9964.00,2.56
9963.00,2.53
9962.00,2.50
9961.00,2.48
9960.00,2.46
9959.00,2.44
9958.00,2.42
9957.00,2.41
9956.00,2.40
9955.00,2.39
9954.00,2.38
9953.00,2.37
9952.00,2.37
9951.00,2.37
9950.00,2.36
9949.00,2.36
9948.00,2.35
9947.00,2.35
9946.00,2.34
9945.00,2.34
9944.00,2.33
9943.00,2.33
9942.00,2.33
9941.00,2.33
9940.00,2.33
9939.00,2.34
9938.00,2.35
9937.00,2.36
9936.00,2.37
9935.00,2.39
9934.00,2.40
9933.00,2.41
9932.00,2.43
9931.00,2.44
9930.00,2.44
9929.00,2.45
9928.00,2.45
9927.00,2.45
9926.00,2.45
9925.00,2.45
9924.00,2.45
9923.00,2.45
9922.00,2.45
9921.00,2.46
9920.00,2.46
9919.00,2.47
9918.00,2.47
9917.00,2.48
9916.00,2.49
9915.00,2.49
9914.00,2.49
9913.00,2.49
9912.00,2.49
9911.00,2.48
9910.00,2.47
9909.00,2.46
9908.00,2.45
9907.00,2.43
9906.00,2.42
9905.00,2.41
9904.00,2.41
9903.00,2.40
9902.00,2.40
9901.00,2.40
9900.00,2.40
9899.00,2.40
9898.00,2.40
9897.00,2.40
9896.00,2.40
9895.00,2.40
9894.00,2.39
9893.00,2.39
9892.00,2.38
9891.00,2.36
9890.00,2.35
9889.00,2.33
9888.00,2.32
9887.00,2.30
9886.00,2.29
9885.00,2.27
9884.00,2.26
9883.00,2.25
9882.00,2.23
9881.00,2.22
9880.00,2.21
9879.00,2.20
9878.00,2.18
9877.00,2.17
9876.00,2.15
9875.00,2.13
9874.00,2.11
9873.00,2.09
9872.00,2.07
9871.00,2.05
9870.00,2.03
9869.00,2.00
9868.00,1.98
9867.00,1.96
9866.00,1.94
9865.00,1.92
9864.00,1.90
9863.00,1.89
9862.00,1.87
9861.00,1.85
9860.00,1.84
9859.00,1.83
9858.00,1.81
9857.00,1.80
9856.00,1.79
9855.00,1.78
9854.00,1.76
9853.00,1.75
9852.00,1.74
9851.00,1.73
9850.00,1.73
9849.00,1.72
9848.00,1.72
9847.00,1.71
9846.00,1.71
9845.00,1.71
9844.00,1.71
9843.00,1.71
9842.00,1.72
9841.00,1.73
9840.00,1.73
9839.00,1.74
9838.00,1.75
9837.00,1.76
9836.00,1.77
9835.00,1.78
9834.00,1.79
9833.00,1.81
9832.00,1.82
9831.00,1.83
9830.00,1.84
9829.00,1.85
9828.00,1.87
9827.00,1.88
9826.00,1.90
9825.00,1.91
9824.00,1.93
9823.00,1.94
9822.00,1.95
9821.00,1.96
9820.00,1.97
9819.00,1.97
9818.00,1.98
9817.00,1.98
9816.00,1.98
9815.00,1.98
9814.00,1.98
9813.00,1.99
9812.00,1.99
9811.00,1.99
9810.00,2.00
9809.00,2.00
9808.00,2.01
9807.00,2.02
9806.00,2.03
9805.00,2.05
9804.00,2.06
9803.00,2.07
9802.00,2.08
9801.00,2.08
9800.00,2.09
9799.00,2.09
9798.00,2.10
9797.00,2.10
9796.00,2.11
9795.00,2.12
9794.00,2.13
9793.00,2.14
9792.00,2.16
9791.00,2.18
9790.00,2.20
9789.00,2.22
9788.00,2.24
9787.00,2.27
9786.00,2.29
9785.00,2.31
9784.00,2.32
9783.00,2.34
9782.00,2.35
9781.00,2.36
9780.00,2.36
9779.00,2.37
9778.00,2.37
9777.00,2.37
9776.00,2.37
9775.00,2.37
9774.00,2.38
9773.00,2.38
9772.00,2.38
9771.00,2.38
9770.00,2.38
9769.00,2.38
9768.00,2.38
9767.00,2.38
9766.00,2.37
9765.00,2.36
9764.00,2.35
9763.00,2.34
9762.00,2.33
9761.00,2.31
9760.00,2.29
9759.00,2.27
9758.00,2.26
9757.00,2.24
9756.00,2.22
9755.00,2.21
9754.00,2.20
9753.00,2.19
9752.00,2.19
9751.00,2.19
9750.00,2.20
9749.00,2.20
9748.00,2.21
9747.00,2.22
9746.00,2.24
9745.00,2.25
9744.00,2.26
9743.00,2.27
9742.00,2.27
9741.00,2.28
9740.00,2.29
9739.00,2.30
9738.00,2.31
9737.00,2.32
9736.00,2.34
9735.00,2.36
9734.00,2.37
9733.00,2.40
9732.00,2.42
9731.00,2.44
9730.00,2.46
9729.00,2.48
9728.00,2.50
9727.00,2.51
9726.00,2.51
9725.00,2.51
9724.00,2.51
9723.00,2.51
9722.00,2.50
9721.00,2.48
9720.00,2.47
9719.00,2.45
9718.00,2.44
9717.00,2.43
9716.00,2.42
9715.00,2.41
9714.00,2.40
9713.00,2.39
9712.00,2.37
9711.00,2.36
9710.00,2.34
9709.00,2.32
9708.00,2.30
9707.00,2.28
9706.00,2.26
9705.00,2.23
9704.00,2.21
9703.00,2.19
9702.00,2.17
9701.00,2.15
9700.00,2.13
9699.00,2.12
9698.00,2.11
9697.00,2.10
9696.00,2.10
9695.00,2.09
9694.00,2.09
9693.00,2.09
9692.00,2.09
9691.00,2.09
9690.00,2.09
9689.00,2.08
9688.00,2.08
9687.00,2.08
9686.00,2.07
9685.00,2.07
9684.00,2.06
9683.00,2.06
9682.00,2.05
9681.00,2.05
9680.00,2.04
9679.00,2.03
9678.00,2.02
9677.00,2.01
9676.00,2.00
9675.00,1.99
9674.00,1.97
9673.00,1.95
9672.00,1.93
9671.00,1.91
9670.00,1.89
9669.00,1.87
9668.00,1.85
9667.00,1.82
9666.00,1.79
9665.00,1.77
9664.00,1.75
9663.00,1.73
9662.00,1.70
9661.00,1.69
9660.00,1.67
9659.00,1.66
9658.00,1.65
9657.00,1.65
9656.00,1.65
9655.00,1.65
9654.00,1.66
9653.00,1.67
9652.00,1.68
9651.00,1.70
9650.00,1.72
9649.00,1.74
9648.00,1.76
9647.00,1.78
9646.00,1.81
9645.00,1.83
9644.00,1.85
9643.00,1.88
9642.00,1.90
9641.00,1.93
9640.00,1.95
9639.00,1.98
9638.00,2.00
9637.00,2.02
9636.00,2.04
9635.00,2.05
9634.00,2.07
9633.00,2.07
9632.00,2.07
9631.00,2.07
9630.00,2.06
9629.00,2.05
9628.00,2.03
9627.00,2.02
9626.00,2.00
9625.00,1.98
9624.00,1.96
9623.00,1.94
9622.00,1.92
9621.00,1.91
9620.00,1.89
9619.00,1.88
9618.00,1.86
9617.00,1.85
9616.00,1.85
9615.00,1.84
9614.00,1.83
9613.00,1.83
9612.00,1.83
9611.00,1.83
9610.00,1.83
9609.00,1.83
9608.00,1.84
9607.00,1.85
9606.00,1.86
9605.00,1.88
9604.00,1.89
9603.00,1.91
9602.00,1.93
9601.00,1.96
9600.00,1.98
9599.00,2.00
9598.00,2.02
9597.00,2.04
9596.00,2.06
9595.00,2.08
9594.00,2.09
9593.00,2.11
9592.00,2.12
9591.00,2.13
9590.00,2.14
9589.00,2.15
9588.00,2.16
9587.00,2.16
9586.00,2.17
9585.00,2.17
9584.00,2.17
9583.00,2.17
9582.00,2.17
9581.00,2.17
9580.00,2.17
9579.00,2.17
9578.00,2.17
9577.00,2.17
9576.00,2.16
9575.00,2.16
9574.00,2.16
9573.00,2.17
9572.00,2.17
9571.00,2.17
9570.00,2.18
9569.00,2.18
9568.00,2.18
9567.00,2.18
9566.00,2.18
9565.00,2.18
9564.00,2.19
9563.00,2.19
9562.00,2.19
9561.00,2.19
9560.00,2.19
9559.00,2.20
9558.00,2.20
9557.00,2.21
9556.00,2.22
9555.00,2.23
9554.00,2.24
9553.00,2.25
9552.00,2.26
9551.00,2.27
9550.00,2.28
9549.00,2.29
9548.00,2.29
9547.00,2.29
9546.00,2.30
9545.00,2.30
9544.00,2.30
9543.00,2.30
9542.00,2.30
9541.00,2.30
9540.00,2.30
9539.00,2.30
9538.00,2.30
9537.00,2.30
9536.00,2.30
9535.00,2.30
9534.00,2.29
9533.00,2.28
9532.00,2.27
9531.00,2.26
9530.00,2.25
9529.00,2.23
9528.00,2.22
9527.00,2.20
9526.00,2.19
9525.00,2.17
9524.00,2.16
9523.00,2.15
9522.00,2.14
9521.00,2.13
9520.00,2.12
9519.00,2.12
9518.00,2.11
9517.00,2.10
9516.00,2.09
9515.00,2.08
9514.00,2.07
9513.00,2.05
9512.00,2.04
9511.00,2.04
9510.00,2.03
9509.00,2.02
9508.00,2.02
9507.00,2.02
9506.00,2.02
9505.00,2.02
9504.00,2.03
9503.00,2.04
9502.00,2.05
9501.00,2.06
9500.00,2.07
9499.00,2.08
9498.00,2.09
9497.00,2.10
9496.00,2.11
9495.00,2.12
9494.00,2.12
9493.00,2.13
9492.00,2.14
9491.00,2.16
9490.00,2.17
9489.00,2.18
9488.00,2.20
9487.00,2.21
9486.00,2.23
9485.00,2.25
9484.00,2.26
9483.00,2.27
9482.00,2.28
9481.00,2.29
9480.00,2.30
9479.00,2.30
9478.00,2.30
9477.00,2.30
9476.00,2.30
9475.00,2.29
9474.00,2.28
9473.00,2.27
9472.00,2.27
9471.00,2.26
9470.00,2.25
9469.00,2.24
9468.00,2.24
9467.00,2.24
9466.00,2.23
9465.00,2.23
9464.00,2.23
9463.00,2.22
9462.00,2.22
9461.00,2.22
9460.00,2.21
9459.00,2.21
9458.00,2.21
9457.00,2.21
9456.00,2.21
9455.00,2.21
9454.00,2.22
9453.00,2.22
9452.00,2.23
9451.00,2.24
9450.00,2.25
9449.00,2.26
9448.00,2.26
9447.00,2.27
9446.00,2.27
9445.00,2.28
9444.00,2.28
9443.00,2.27
9442.00,2.27
9441.00,2.26
9440.00,2.26
9439.00,2.25
9438.00,2.24
9437.00,2.24
9436.00,2.23
9435.00,2.23
9434.00,2.23
9433.00,2.22
9432.00,2.22
9431.00,2.21
9430.00,2.21
9429.00,2.20
9428.00,2.19
9427.00,2.18
9426.00,2.17
9425.00,2.15
9424.00,2.14
9423.00,2.13
9422.00,2.12
9421.00,2.11
9420.00,2.10
9419.00,2.10
9418.00,2.09
9417.00,2.09
9416.00,2.09
9415.00,2.08
9414.00,2.07
9413.00,2.07
9412.00,2.06
9411.00,2.04
9410.00,2.03
9409.00,2.01
9408.00,1.99
9407.00,1.97
9406.00,1.95
9405.00,1.92
9404.00,1.90
9403.00,1.87
9402.00,1.84
9401.00,1.82
9400.00,1.79
9399.00,1.77
9398.00,1.74
9397.00,1.72
9396.00,1.70
9395.00,1.68
9394.00,1.66
9393.00,1.64
9392.00,1.62
9391.00,1.61
9390.00,1.59
9389.00,1.58
9388.00,1.57
9387.00,1.56
9386.00,1.55
9385.00,1.55
9384.00,1.55
9383.00,1.55
9382.00,1.56
9381.00,1.57
9380.00,1.58
9379.00,1.59
9378.00,1.61
9377.00,1.63
9376.00,1.64
9375.00,1.67
9374.00,1.69
9373.00,1.71
9372.00,1.73
9371.00,1.76
9370.00,1.78
9369.00,1.80
9368.00,1.83
9367.00,1.85
9366.00,1.87
9365.00,1.88
9364.00,1.90
9363.00,1.91
9362.00,1.92
9361.00,1.93
9360.00,1.93
9359.00,1.94
9358.00,1.94
9357.00,1.93
9356.00,1.93
9355.00,1.93
9354.00,1.92
9353.00,1.92
9352.00,1.92
9351.00,1.92
9350.00,1.92
9349.00,1.92
9348.00,1.92
9347.00,1.93
9346.00,1.93
9345.00,1.93
9344.00,1.93
9343.00,1.93
9342.00,1.93
9341.00,1.93
9340.00,1.93
9339.00,1.93
9338.00,1.93
9337.00,1.93
9336.00,1.94
9335.00,1.95
9334.00,1.96
9333.00,1.97
9332.00,1.98
9331.00,1.99
9330.00,2.01
9329.00,2.02
9328.00,2.03
9327.00,2.04
9326.00,2.04
9325.00,2.04
9324.00,2.04
9323.00,2.03
9322.00,2.03
9321.00,2.02
9320.00,2.01
9319.00,1.99
9318.00,1.98
9317.00,1.97
9316.00,1.96
9315.00,1.94
9314.00,1.93
9313.00,1.91
9312.00,1.90
9311.00,1.88
9310.00,1.87
9309.00,1.85
9308.00,1.83
9307.00,1.82
9306.00,1.80
9305.00,1.79
9304.00,1.77
9303.00,1.76
9302.00,1.75
9301.00,1.74
9300.00,1.73
9299.00,1.72
9298.00,1.71
9297.00,1.71
9296.00,1.70
9295.00,1.69
9294.00,1.69
9293.00,1.69
9292.00,1.68
9291.00,1.68
9290.00,1.69
9289.00,1.69
9288.00,1.70
9287.00,1.71
9286.00,1.71
9285.00,1.72
9284.00,1.73
9283.00,1.74
9282.00,1.75
9281.00,1.76
9280.00,1.77
9279.00,1.77
9278.00,1.78
9277.00,1.78
9276.00,1.78
9275.00,1.78
9274.00,1.78
9273.00,1.78
9272.00,1.78
9271.00,1.78
9270.00,1.78
9269.00,1.78
9268.00,1.78
9267.00,1.78
9266.00,1.78
9265.00,1.78
9264.00,1.77
9263.00,1.76
9262.00,1.75
9261.00,1.73
9260.00,1.72
9259.00,1.70
9258.00,1.69
9257.00,1.67
9256.00,1.65
9255.00,1.64
9254.00,1.63
9253.00,1.62
9252.00,1.61
9251.00,1.60
9250.00,1.60
9249.00,1.59
9248.00,1.59
9247.00,1.59
9246.00,1.59
9245.00,1.60
9244.00,1.60
9243.00,1.61
9242.00,1.62
9241.00,1.64
9240.00,1.65
9239.00,1.67
9238.00,1.69
9237.00,1.71
9236.00,1.74
9235.00,1.76
9234.00,1.79
9233.00,1.81
9232.00,1.84
9231.00,1.87
9230.00,1.89
9229.00,1.91
9228.00,1.94
9227.00,1.96
9226.00,1.98
9225.00,2.00
9224.00,2.01
9223.00,2.03
9222.00,2.04
9221.00,2.05
9220.00,2.06
9219.00,2.07
9218.00,2.07
9217.00,2.07
9216.00,2.07
9215.00,2.07
9214.00,2.06
9213.00,2.06
9212.00,2.05
9211.00,2.04
9210.00,2.03
9209.00,2.02
9208.00,2.00
9207.00,1.99
9206.00,1.98
9205.00,1.97
9204.00,1.97
9203.00,1.96
9202.00,1.96
9201.00,1.95
9200.00,1.95
9199.00,1.95
9198.00,1.95
9197.00,1.95
9196.00,1.95
9195.00,1.95
9194.00,1.95
9193.00,1.96
9192.00,1.96
9191.00,1.97
9190.00,1.98
9189.00,1.99
9188.00,2.00
9187.00,2.01
9186.00,2.02
9185.00,2.03
9184.00,2.04
9183.00,2.05
9182.00,2.06
9181.00,2.07
9180.00,2.08
9179.00,2.08
9178.00,2.09
9177.00,2.09
9176.00,2.09
9175.00,2.09
9174.00,2.09
9173.00,2.09
9172.00,2.08
9171.00,2.08
9170.00,2.07
9169.00,2.06
9168.00,2.05
9167.00,2.04
9166.00,2.02
9165.00,2.01
9164.00,2.00
9163.00,1.98
9162.00,1.97
9161.00,1.96
9160.00,1.94
9159.00,1.93
9158.00,1.92
9157.00,1.91
9156.00,1.90
9155.00,1.89
9154.00,1.88
9153.00,1.88
9152.00,1.87
9151.00,1.87
9150.00,1.87
9149.00,1.86
9148.00,1.87
9147.00,1.87
9146.00,1.87
9145.00,1.88
9144.00,1.88
9143.00,1.89
9142.00,1.89
9141.00,1.90
9140.00,1.90
9139.00,1.91
9138.00,1.91
9137.00,1.92
9136.00,1.92
9135.00,1.92
9134.00,1.92
9133.00,1.92
9132.00,1.92
9131.00,1.92
9130.00,1.92
9129.00,1.91
9128.00,1.91
9127.00,1.90
9126.00,1.89
9125.00,1.89
9124.00,1.88
9123.00,1.87
9122.00,1.86
9121.00,1.86
9120.00,1.85
9119.00,1.85
9118.00,1.84
9117.00,1.84
9116.00,1.84
9115.00,1.84
9114.00,1.84
9113.00,1.85
9112.00,1.86
9111.00,1.87
9110.00,1.88
9109.00,1.89
9108.00,1.90
9107.00,1.91
9106.00,1.93
9105.00,1.94
9104.00,1.96
9103.00,1.98
9102.00,1.99
9101.00,2.01
9100.00,2.03
9099.00,2.04
9098.00,2.06
9097.00,2.08
9096.00,2.09
9095.00,2.11
9094.00,2.12
9093.00,2.14
9092.00,2.15
9091.00,2.16
9090.00,2.18
9089.00,2.19
9088.00,2.21
9087.00,2.22
9086.00,2.24
9085.00,2.25
9084.00,2.26
9083.00,2.27
9082.00,2.28
9081.00,2.29
9080.00,2.30
9079.00,2.31
9078.00,2.31
9077.00,2.32
9076.00,2.33
9075.00,2.34
9074.00,2.35
9073.00,2.36
9072.00,2.37
9071.00,2.38
9070.00,2.38
9069.00,2.39
9068.00,2.40
9067.00,2.40
9066.00,2.41
9065.00,2.41
9064.00,2.41
9063.00,2.40
9062.00,2.40
9061.00,2.38
9060.00,2.37
9059.00,2.35
9058.00,2.33
9057.00,2.31
9056.00,2.29
9055.00,2.26
9054.00,2.24
9053.00,2.22
9052.00,2.19
9051.00,2.17
9050.00,2.15
9049.00,2.12
9048.00,2.10
9047.00,2.08
9046.00,2.06
9045.00,2.03
9044.00,2.01
9043.00,2.00
9042.00,1.98
9041.00,1.96
9040.00,1.94
9039.00,1.92
9038.00,1.91
9037.00,1.89
9036.00,1.88
9035.00,1.87
9034.00,1.87
9033.00,1.87
9032.00,1.87
9031.00,1.88
9030.00,1.89
9029.00,1.90
9028.00,1.92
9027.00,1.94
9026.00,1.96
9025.00,1.98
9024.00,2.00
9023.00,2.01
9022.00,2.03
9021.00,2.05
9020.00,2.06
9019.00,2.07
9018.00,2.08
9017.00,2.09
9016.00,2.10
9015.00,2.11
9014.00,2.12
9013.00,2.12
9012.00,2.13
9011.00,2.14
9010.00,2.15
9009.00,2.15
9008.00,2.16
9007.00,2.16
9006.00,2.17
9005.00,2.17
9004.00,2.16
9003.00,2.16
9002.00,2.15
9001.00,2.14
9000.00,2.13
8999.00,2.11
8998.00,2.10
8997.00,2.09
8996.00,2.08
8995.00,2.07
8994.00,2.07
8993.00,2.07
8992.00,2.07
8991.00,2.07
8990.00,2.07
8989.00,2.08
8988.00,2.09
8987.00,2.09
8986.00,2.10
8985.00,2.10
8984.00,2.11
8983.00,2.11
8982.00,2.12
8981.00,2.12
8980.00,2.13
8979.00,2.14
8978.00,2.15
8977.00,2.15
8976.00,2.16
8975.00,2.17
8974.00,2.18
8973.00,2.19
8972.00,2.20
8971.00,2.21
8970.00,2.22
8969.00,2.22
8968.00,2.22
8967.00,2.22
8966.00,2.22
8965.00,2.22
8964.00,2.21
8963.00,2.21
8962.00,2.20
8961.00,2.20
8960.00,2.19
8959.00,2.19
8958.00,2.18
8957.00,2.18
8956.00,2.17
8955.00,2.16
8954.00,2.16
8953.00,2.15
8952.00,2.15
8951.00,2.14
8950.00,2.14
8949.00,2.13
8948.00,2.13
8947.00,2.13
8946.00,2.13
8945.00,2.14
8944.00,2.14
8943.00,2.15
8942.00,2.16
8941.00,2.17
8940.00,2.19
8939.00,2.20
8938.00,2.21
8937.00,2.23
8936.00,2.24
8935.00,2.25
8934.00,2.26
8933.00,2.28
8932.00,2.29
8931.00,2.30
8930.00,2.31
8929.00,2.32
8928.00,2.32
8927.00,2.33
8926.00,2.34
8925.00,2.34
8924.00,2.34
8923.00,2.34
8922.00,2.34
8921.00,2.34
8920.00,2.33
8919.00,2.32
8918.00,2.30
8917.00,2.29
8916.00,2.27
8915.00,2.25
8914.00,2.22
8913.00,2.20
8912.00,2.18
8911.00,2.15
8910.00,2.13
8909.00,2.11
8908.00,2.09
8907.00,2.07
8906.00,2.04
8905.00,2.02
8904.00,2.01
8903.00,1.99
8902.00,1.97
8901.00,1.96
8900.00,1.95
8899.00,1.93
8898.00,1.93
8897.00,1.92
8896.00,1.91
8895.00,1.91
8894.00,1.91
8893.00,1.92
8892.00,1.92
8891.00,1.93
8890.00,1.94
8889.00,1.95
8888.00,1.97
8887.00,1.98
8886.00,1.99
8885.00,2.01
8884.00,2.02
8883.00,2.03
8882.00,2.05
8881.00,2.06
8880.00,2.07
8879.00,2.08
8878.00,2.09
8877.00,2.10
8876.00,2.10
8875.00,2.11
8874.00,2.12
8873.00,2.12
8872.00,2.12
8871.00,2.12
8870.00,2.11
8869.00,2.11
8868.00,2.10
8867.00,2.09
8866.00,2.07
8865.00,2.06
8864.00,2.04
8863.00,2.01
8862.00,1.99
8861.00,1.97
8860.00,1.94
8859.00,1.92
8858.00,1.89
8857.00,1.87
8856.00,1.84
8855.00,1.82
8854.00,1.79
8853.00,1.77
8852.00,1.74
8851.00,1.72
8850.00,1.69
8849.00,1.67
8848.00,1.65
8847.00,1.63
8846.00,1.62
8845.00,1.60
8844.00,1.59
8843.00,1.58
8842.00,1.58
8841.00,1.57
8840.00,1.57
8839.00,1.57
8838.00,1.58
8837.00,1.58
8836.00,1.59
8835.00,1.59
8834.00,1.60
8833.00,1.61
8832.00,1.62
8831.00,1.64
8830.00,1.65
8829.00,1.66
8828.00,1.68
8827.00,1.70
8826.00,1.72
8825.00,1.74
8824.00,1.76
8823.00,1.78
8822.00,1.81
8821.00,1.83
8820.00,1.86
8819.00,1.88
8818.00,1.90
8817.00,1.92
8816.00,1.94
8815.00,1.95
8814.00,1.97
8813.00,1.98
8812.00,2.00
8811.00,2.01
8810.00,2.03
8809.00,2.05
8808.00,2.06
8807.00,2.08
8806.00,2.10
8805.00,2.12
8804.00,2.14
8803.00,2.16
8802.00,2.17
8801.00,2.19
8800.00,2.20
8799.00,2.21
8798.00,2.22
8797.00,2.22
8796.00,2.22
8795.00,2.22
8794.00,2.22
8793.00,2.21
8792.00,2.21
8791.00,2.21
8790.00,2.20
8789.00,2.20
8788.00,2.20
8787.00,2.20
8786.00,2.19
8785.00,2.19
8784.00,2.19
8783.00,2.18
8782.00,2.17
8781.00,2.16
8780.00,2.15
8779.00,2.14
8778.00,2.13
8777.00,2.11
8776.00,2.10
8775.00,2.09
8774.00,2.08
8773.00,2.07
8772.00,2.06
8771.00,2.06
8770.00,2.05
8769.00,2.04
8768.00,2.04
8767.00,2.04
8766.00,2.03
8765.00,2.03
8764.00,2.03
8763.00,2.03
8762.00,2.03
8761.00,2.03
8760.00,2.03
8759.00,2.03
8758.00,2.03
8757.00,2.03
8756.00,2.03
8755.00,2.03
8754.00,2.04
8753.00,2.04
8752.00,2.04
8751.00,2.04
8750.00,2.04
8749.00,2.04
8748.00,2.04
8747.00,2.04
8746.00,2.04
8745.00,2.03
8744.00,2.03
8743.00,2.04
8742.00,2.04
8741.00,2.04
8740.00,2.05
8739.00,2.05
8738.00,2.06
8737.00,2.07
8736.00,2.07
8735.00,2.07
8734.00,2.07
8733.00,2.07
8732.00,2.07
8731.00,2.06
8730.00,2.06
8729.00,2.05
8728.00,2.04
8727.00,2.03
8726.00,2.03
8725.00,2.02
8724.00,2.02
8723.00,2.01
8722.00,2.01
8721.00,2.01
8720.00,2.01
8719.00,2.00
8718.00,2.00
8717.00,2.00
8716.00,2.00
8715.00,1.99
8714.00,1.98
8713.00,1.97
8712.00,1.97
8711.00,1.96
8710.00,1.95
8709.00,1.94
8708.00,1.94
8707.00,1.93
8706.00,1.93
8705.00,1.94
8704.00,1.94
8703.00,1.95
8702.00,1.95
8701.00,1.96
8700.00,1.97
8699.00,1.99
8698.00,2.00
8697.00,2.01
8696.00,2.02
8695.00,2.02
8694.00,2.03
8693.00,2.03
8692.00,2.03
8691.00,2.03
8690.00,2.03
8689.00,2.02
8688.00,2.02
8687.00,2.02
8686.00,2.02
8685.00,2.02
8684.00,2.02
8683.00,2.02
8682.00,2.01
8681.00,2.01
8680.00,2.01
8679.00,2.00
8678.00,2.00
8677.00,1.99
8676.00,1.98
8675.00,1.97
8674.00,1.97
8673.00,1.96
8672.00,1.95
8671.00,1.95
8670.00,1.94
8669.00,1.94
8668.00,1.95
8667.00,1.95
8666.00,1.96
8665.00,1.98
8664.00,1.99
8663.00,2.01
8662.00,2.02
8661.00,2.04
8660.00,2.06
8659.00,2.08
8658.00,2.09
8657.00,2.11
8656.00,2.12
8655.00,2.14
8654.00,2.15
8653.00,2.17
8652.00,2.18
8651.00,2.19
8650.00,2.20
8649.00,2.21
8648.00,2.22
8647.00,2.23
8646.00,2.24
8645.00,2.25
8644.00,2.25
8643.00,2.25
8642.00,2.25
8641.00,2.25
8640.00,2.25
8639.00,2.24
8638.00,2.23
8637.00,2.22
8636.00,2.21
8635.00,2.20
8634.00,2.19
8633.00,2.18
8632.00,2.17
8631.00,2.16
8630.00,2.14
8629.00,2.13
8628.00,2.12
8627.00,2.10
8626.00,2.09
8625.00,2.07
8624.00,2.06
8623.00,2.04
8622.00,2.03
8621.00,2.01
8620.00,2.00
8619.00,1.99
8618.00,1.97
8617.00,1.96
8616.00,1.94
8615.00,1.93
8614.00,1.91
8613.00,1.90
8612.00,1.88
8611.00,1.87
8610.00,1.85
8609.00,1.83
8608.00,1.82
8607.00,1.80
8606.00,1.79
8605.00,1.78
8604.00,1.77
8603.00,1.76
8602.00,1.75
8601.00,1.74
8600.00,1.74
8599.00,1.74
8598.00,1.74
8597.00,1.73
8596.00,1.73
8595.00,1.73
8594.00,1.73
8593.00,1.72
8592.00,1.72
8591.00,1.72
8590.00,1.72
8589.00,1.73
8588.00,1.74
8587.00,1.75
8586.00,1.76
8585.00,1.77
8584.00,1.78
8583.00,1.80
8582.00,1.82
8581.00,1.83
8580.00,1.85
8579.00,1.87
8578.00,1.88
8577.00,1.90
8576.00,1.91
8575.00,1.93
8574.00,1.94
8573.00,1.95
8572.00,1.97
8571.00,1.99
8570.00,2.01
8569.00,2.03
8568.00,2.05
8567.00,2.07
8566.00,2.10
8565.00,2.12
8564.00,2.14
8563.00,2.17
8562.00,2.19
8561.00,2.21
8560.00,2.23
8559.00,2.24
8558.00,2.25
8557.00,2.27
8556.00,2.28
8555.00,2.29
8554.00,2.29
8553.00,2.30
8552.00,2.31
8551.00,2.31
8550.00,2.32
8549.00,2.32
8548.00,2.32
8547.00,2.33
8546.00,2.33
8545.00,2.33
8544.00,2.32
8543.00,2.32
8542.00,2.31
8541.00,2.30
8540.00,2.29
8539.00,2.27
8538.00,2.26
8537.00,2.24
8536.00,2.22
8535.00,2.20
8534.00,2.18
8533.00,2.16
8532.00,2.14
8531.00,2.12
8530.00,2.10
8529.00,2.08
8528.00,2.07
8527.00,2.05
8526.00,2.03
8525.00,2.01
8524.00,1.99
8523.00,1.97
8522.00,1.95
8521.00,1.93
8520.00,1.91
8519.00,1.89
8518.00,1.88
8517.00,1.86
8516.00,1.85
8515.00,1.84
8514.00,1.83
8513.00,1.82
8512.00,1.81
8511.00,1.80
8510.00,1.80
8509.00,1.79
8508.00,1.79
8507.00,1.79
8506.00,1.78
8505.00,1.78
8504.00,1.78
8503.00,1.78
8502.00,1.79
8501.00,1.79
8500.00,1.80
8499.00,1.81
8498.00,1.82
8497.00,1.83
8496.00,1.84
8495.00,1.86
8494.00,1.87
8493.00,1.88
8492.00,1.89
8491.00,1.91
8490.00,1.92
8489.00,1.93
8488.00,1.93
8487.00,1.94
8486.00,1.95
8485.00,1.96
8484.00,1.97
8483.00,1.98
8482.00,2.00
8481.00,2.01
8480.00,2.03
8479.00,2.04
8478.00,2.06
8477.00,2.07
8476.00,2.09
8475.00,2.10
8474.00,2.11
8473.00,2.12
8472.00,2.13
8471.00,2.14
8470.00,2.15
8469.00,2.15
8468.00,2.16
8467.00,2.16
8466.00,2.17
8465.00,2.18
8464.00,2.18
8463.00,2.19
8462.00,2.20
8461.00,2.21
8460.00,2.21
8459.00,2.22
8458.00,2.23
8457.00,2.24
8456.00,2.24
8455.00,2.24
8454.00,2.24
8453.00,2.24
8452.00,2.23
8451.00,2.22
8450.00,2.22
8449.00,2.21
8448.00,2.20
8447.00,2.19
8446.00,2.18
8445.00,2.17
8444.00,2.16
8443.00,2.15
8442.00,2.14
8441.00,2.14
8440.00,2.13
8439.00,2.12
8438.00,2.12
8437.00,2.11
8436.00,2.10
8435.00,2.10
8434.00,2.09
8433.00,2.08
8432.00,2.07
8431.00,2.06
8430.00,2.06
8429.00,2.05
8428.00,2.04
8427.00,2.04
8426.00,2.03
8425.00,2.03
8424.00,2.02
8423.00,2.02
8422.00,2.02
8421.00,2.02
8420.00,2.02
8419.00,2.02
8418.00,2.03
8417.00,2.03
8416.00,2.04
8415.00,2.04
8414.00,2.04
8413.00,2.05
8412.00,2.05
8411.00,2.05
8410.00,2.05
8409.00,2.05
8408.00,2.05
8407.00,2.05
8406.00,2.05
8405.00,2.05
8404.00,2.05
8403.00,2.05
8402.00,2.05
8401.00,2.05
8400.00,2.06
8399.00,2.06
8398.00,2.06
8397.00,2.06
8396.00,2.07
8395.00,2.07
8394.00,2.07
8393.00,2.06
8392.00,2.06
8391.00,2.06
8390.00,2.06
8389.00,2.05
8388.00,2.05
8387.00,2.05
8386.00,2.05
8385.00,2.05
8384.00,2.05
8383.00,2.06
8382.00,2.06
8381.00,2.07
8380.00,2.07
8379.00,2.08
8378.00,2.09
8377.00,2.09
8376.00,2.10
8375.00,2.11
8374.00,2.11
8373.00,2.12
8372.00,2.13
8371.00,2.13
8370.00,2.14
8369.00,2.15
8368.00,2.16
8367.00,2.16
8366.00,2.17
8365.00,2.18
8364.00,2.19
8363.00,2.19
8362.00,2.20
8361.00,2.21
8360.00,2.21
8359.00,2.21
8358.00,2.22
8357.00,2.22
8356.00,2.21
8355.00,2.21
8354.00,2.20
8353.00,2.20
8352.00,2.19
8351.00,2.18
8350.00,2.17
8349.00,2.16
8348.00,2.14
8347.00,2.13
8346.00,2.11
8345.00,2.10
8344.00,2.08
8343.00,2.07
8342.00,2.06
8341.00,2.04
8340.00,2.03
8339.00,2.01
8338.00,2.00
8337.00,1.99
8336.00,1.97
8335.00,1.96
8334.00,1.95
8333.00,1.93
8332.00,1.92
8331.00,1.90
8330.00,1.89
8329.00,1.88
8328.00,1.87
8327.00,1.86
8326.00,1.85
8325.00,1.84
8324.00,1.84
8323.00,1.83
8322.00,1.83
8321.00,1.83
8320.00,1.83
8319.00,1.82
8318.00,1.82
8317.00,1.82
8316.00,1.82
8315.00,1.82
8314.00,1.82
8313.00,1.82
8312.00,1.81
8311.00,1.81
8310.00,1.81
8309.00,1.81
8308.00,1.81
8307.00,1.81
8306.00,1.82
8305.00,1.82
8304.00,1.83
8303.00,1.84
8302.00,1.84
8301.00,1.85
8300.00,1.86
8299.00,1.87
8298.00,1.88
8297.00,1.88
8296.00,1.89
8295.00,1.90
8294.00,1.90
8293.00,1.91
8292.00,1.92
8291.00,1.93
8290.00,1.94
8289.00,1.95
8288.00,1.96
8287.00,1.97
8286.00,1.98
8285.00,1.99
8284.00,2.00
8283.00,2.01
8282.00,2.02
8281.00,2.03
8280.00,2.04
8279.00,2.05
8278.00,2.06
8277.00,2.06
8276.00,2.07
8275.00,2.08
8274.00,2.09
8273.00,2.09
8272.00,2.10
8271.00,2.10
8270.00,2.11
8269.00,2.11
8268.00,2.12
8267.00,2.12
8266.00,2.13
8265.00,2.13
8264.00,2.14
8263.00,2.14
8262.00,2.15
8261.00,2.15
8260.00,2.16
8259.00,2.16
8258.00,2.17
8257.00,2.17
8256.00,2.17
8255.00,2.17
8254.00,2.17
8253.00,2.17
8252.00,2.17
8251.00,2.17
8250.00,2.17
8249.00,2.17
8248.00,2.16
8247.00,2.16
8246.00,2.16
8245.00,2.16
8244.00,2.16
8243.00,2.16
8242.00,2.16
8241.00,2.16
8240.00,2.16
8239.00,2.15
8238.00,2.15
8237.00,2.15
8236.00,2.14
8235.00,2.14
8234.00,2.13
8233.00,2.13
8232.00,2.12
8231.00,2.12
8230.00,2.12
8229.00,2.12
8228.00,2.12
8227.00,2.12
8226.00,2.13
8225.00,2.13
8224.00,2.14
8223.00,2.14
8222.00,2.15
8221.00,2.16
8220.00,2.16
8219.00,2.16
8218.00,2.17
8217.00,2.17
8216.00,2.17
8215.00,2.18
8214.00,2.18
8213.00,2.18
8212.00,2.19
8211.00,2.20
8210.00,2.20
8209.00,2.21
8208.00,2.22
8207.00,2.23
8206.00,2.24
8205.00,2.24
8204.00,2.25
8203.00,2.25
8202.00,2.25
8201.00,2.25
8200.00,2.25
8199.00,2.25
8198.00,2.24
8197.00,2.23
8196.00,2.23
8195.00,2.22
8194.00,2.21
8193.00,2.21
8192.00,2.20
8191.00,2.20
8190.00,2.19
8189.00,2.19
8188.00,2.19
8187.00,2.18
8186.00,2.18
8185.00,2.18
8184.00,2.18
8183.00,2.18
8182.00,2.17
8181.00,2.17
8180.00,2.17
8179.00,2.16
8178.00,2.16
8177.00,2.16
8176.00,2.16
8175.00,2.16
8174.00,2.16
8173.00,2.17
8172.00,2.17
8171.00,2.18
8170.00,2.18
8169.00,2.19
8168.00,2.20
8167.00,2.21
8166.00,2.22
8165.00,2.22
8164.00,2.23
8163.00,2.23
8162.00,2.24
8161.00,2.24
8160.00,2.24
8159.00,2.24
8158.00,2.24
8157.00,2.24
8156.00,2.24
8155.00,2.24
8154.00,2.24
8153.00,2.24
8152.00,2.23
8151.00,2.23
8150.00,2.23
8149.00,2.23
8148.00,2.22
8147.00,2.22
8146.00,2.22
8145.00,2.21
8144.00,2.21
8143.00,2.20
8142.00,2.20
8141.00,2.19
8140.00,2.19
8139.00,2.18
8138.00,2.18
8137.00,2.17
8136.00,2.17
8135.00,2.16
8134.00,2.16
8133.00,2.16
8132.00,2.15
8131.00,2.15
8130.00,2.15
8129.00,2.15
8128.00,2.14
8127.00,2.14
8126.00,2.14
8125.00,2.13
8124.00,2.13
8123.00,2.12
8122.00,2.12
8121.00,2.12
8120.00,2.12
8119.00,2.12
8118.00,2.12
8117.00,2.12
8116.00,2.12
8115.00,2.12
8114.00,2.12
8113.00,2.11
8112.00,2.11
8111.00,2.11
8110.00,2.11
8109.00,2.10
8108.00,2.10
8107.00,2.10
8106.00,2.10
8105.00,2.09
8104.00,2.09
8103.00,2.09
8102.00,2.09
8101.00,2.09
8100.00,2.09
8099.00,2.09
8098.00,2.09
8097.00,2.10
8096.00,2.10
8095.00,2.10
8094.00,2.10
8093.00,2.11
8092.00,2.11
8091.00,2.11
8090.00,2.11
8089.00,2.11
8088.00,2.12
8087.00,2.12
8086.00,2.12
8085.00,2.13
8084.00,2.14
8083.00,2.14
8082.00,2.15
8081.00,2.15
8080.00,2.16
8079.00,2.16
8078.00,2.17
8077.00,2.17
8076.00,2.17
8075.00,2.17
8074.00,2.17
8073.00,2.17
8072.00,2.17
8071.00,2.17
8070.00,2.17
8069.00,2.17
8068.00,2.17
8067.00,2.17
8066.00,2.17
8065.00,2.16
8064.00,2.16
8063.00,2.15
8062.00,2.15
8061.00,2.14
8060.00,2.13
8059.00,2.13
8058.00,2.12
8057.00,2.11
8056.00,2.11
8055.00,2.10
8054.00,2.10
8053.00,2.09
8052.00,2.09
8051.00,2.09
8050.00,2.08
8049.00,2.08
8048.00,2.08
8047.00,2.08
8046.00,2.08
8045.00,2.07
8044.00,2.07
8043.00,2.07
8042.00,2.07
8041.00,2.07
8040.00,2.06
8039.00,2.06
8038.00,2.06
8037.00,2.07
8036.00,2.07
8035.00,2.07
8034.00,2.08
8033.00,2.08
8032.00,2.08
8031.00,2.09
8030.00,2.09
8029.00,2.09
8028.00,2.09
8027.00,2.09
8026.00,2.09
8025.00,2.10
8024.00,2.10
8023.00,2.10
8022.00,2.10
8021.00,2.11
8020.00,2.11
8019.00,2.12
8018.00,2.13
8017.00,2.13
8016.00,2.14
8015.00,2.15
8014.00,2.16
8013.00,2.17
8012.00,2.17
8011.00,2.18
8010.00,2.19
8009.00,2.19
8008.00,2.20
8007.00,2.20
8006.00,2.21
8005.00,2.21
8004.00,2.22
8003.00,2.22
8002.00,2.23
8001.00,2.23
8000.00,2.24
7999.00,2.24
7998.00,2.24
7997.00,2.25
7996.00,2.25
7995.00,2.25
7994.00,2.25
7993.00,2.25
7992.00,2.24
7991.00,2.24
7990.00,2.24
7989.00,2.24
7988.00,2.24
7987.00,2.24
7986.00,2.24
7985.00,2.24
7984.00,2.24
7983.00,2.24
7982.00,2.25
7981.00,2.25
7980.00,2.26
7979.00,2.26
7978.00,2.27
7977.00,2.28
7976.00,2.28
7975.00,2.29
7974.00,2.30
7973.00,2.30
7972.00,2.31
7971.00,2.32
7970.00,2.32
7969.00,2.33
7968.00,2.34
7967.00,2.35
7966.00,2.35
7965.00,2.36
7964.00,2.36
7963.00,2.37
7962.00,2.37
7961.00,2.37
7960.00,2.37
7959.00,2.37
7958.00,2.37
7957.00,2.37
7956.00,2.36
7955.00,2.36
7954.00,2.35
7953.00,2.34
7952.00,2.33
7951.00,2.32
7950.00,2.31
7949.00,2.29
7948.00,2.28
7947.00,2.27
7946.00,2.26
7945.00,2.24
7944.00,2.23
7943.00,2.22
7942.00,2.21
7941.00,2.20
7940.00,2.19
7939.00,2.18
7938.00,2.17
7937.00,2.16
7936.00,2.16
7935.00,2.15
7934.00,2.15
7933.00,2.14
7932.00,2.14
7931.00,2.14
7930.00,2.14
7929.00,2.14
7928.00,2.14
7927.00,2.14
7926.00,2.14
7925.00,2.15
7924.00,2.15
7923.00,2.15
7922.00,2.16
7921.00,2.17
7920.00,2.17
7919.00,2.18
7918.00,2.19
7917.00,2.20
7916.00,2.21
7915.00,2.22
7914.00,2.23
7913.00,2.24
7912.00,2.25
7911.00,2.25
7910.00,2.26
7909.00,2.26
7908.00,2.27
7907.00,2.27
7906.00,2.27
7905.00,2.28
7904.00,2.28
7903.00,2.28
7902.00,2.28
7901.00,2.29
7900.00,2.29
7899.00,2.30
7898.00,2.30
7897.00,2.30
7896.00,2.31
7895.00,2.31
7894.00,2.31
7893.00,2.31
7892.00,2.32
7891.00,2.31
7890.00,2.31
7889.00,2.31
7888.00,2.30
7887.00,2.30
7886.00,2.29
7885.00,2.29
7884.00,2.28
7883.00,2.28
7882.00,2.27
7881.00,2.27
7880.00,2.26
7879.00,2.26
7878.00,2.26
7877.00,2.25
7876.00,2.25
7875.00,2.25
7874.00,2.24
7873.00,2.23
7872.00,2.23
7871.00,2.22
7870.00,2.21
7869.00,2.21
7868.00,2.20
7867.00,2.19
7866.00,2.19
7865.00,2.18
7864.00,2.18
7863.00,2.18
7862.00,2.18
7861.00,2.19
7860.00,2.19
7859.00,2.20
7858.00,2.21
7857.00,2.21
7856.00,2.22
7855.00,2.23
7854.00,2.24
7853.00,2.24
7852.00,2.25
7851.00,2.26
7850.00,2.26
7849.00,2.27
7848.00,2.28
7847.00,2.28
7846.00,2.29
7845.00,2.30
7844.00,2.31
7843.00,2.31
7842.00,2.32
7841.00,2.33
7840.00,2.33
7839.00,2.34
7838.00,2.34
7837.00,2.34
7836.00,2.33
7835.00,2.33
7834.00,2.33
7833.00,2.32
7832.00,2.31
7831.00,2.31
7830.00,2.30
7829.00,2.29
7828.00,2.29
7827.00,2.28
7826.00,2.28
7825.00,2.28
7824.00,2.27
7823.00,2.27
7822.00,2.27
7821.00,2.27
7820.00,2.27
7819.00,2.26
7818.00,2.26
7817.00,2.26
7816.00,2.26
7815.00,2.26
7814.00,2.26
7813.00,2.26
7812.00,2.27
7811.00,2.27
7810.00,2.28
7809.00,2.28
7808.00,2.29
7807.00,2.30
7806.00,2.31
7805.00,2.32
7804.00,2.33
7803.00,2.34
7802.00,2.35
7801.00,2.35
7800.00,2.36
7799.00,2.36
7798.00,2.37
7797.00,2.37
7796.00,2.37
7795.00,2.38
7794.00,2.38
7793.00,2.39
7792.00,2.39
7791.00,2.40
7790.00,2.40
7789.00,2.41
7788.00,2.41
7787.00,2.42
7786.00,2.42
7785.00,2.42
7784.00,2.42
7783.00,2.43
7782.00,2.43
7781.00,2.43
7780.00,2.43
7779.00,2.43
7778.00,2.43
7777.00,2.42
7776.00,2.42
7775.00,2.42
7774.00,2.42
7773.00,2.42
7772.00,2.42
7771.00,2.41
7770.00,2.41
7769.00,2.41
7768.00,2.40
7767.00,2.39
7766.00,2.39
7765.00,2.38
7764.00,2.38
7763.00,2.37
7762.00,2.36
7761.00,2.36
7760.00,2.35
7759.00,2.34
7758.00,2.33
7757.00,2.33
7756.00,2.32
7755.00,2.31
7754.00,2.30
7753.00,2.29
7752.00,2.27
7751.00,2.26
7750.00,2.25
7749.00,2.24
7748.00,2.23
7747.00,2.22
7746.00,2.21
7745.00,2.20
7744.00,2.20
7743.00,2.19
7742.00,2.18
7741.00,2.17
7740.00,2.17
7739.00,2.16
7738.00,2.15
7737.00,2.15
7736.00,2.14
7735.00,2.14
7734.00,2.13
7733.00,2.13
7732.00,2.13
7731.00,2.14
7730.00,2.14
7729.00,2.14
7728.00,2.15
7727.00,2.16
7726.00,2.17
7725.00,2.18
7724.00,2.19
7723.00,2.20
7722.00,2.21
7721.00,2.23
7720.00,2.24
7719.00,2.25
7718.00,2.26
7717.00,2.28
7716.00,2.29
7715.00,2.31
7714.00,2.32
7713.00,2.34
7712.00,2.36
7711.00,2.37
7710.00,2.39
7709.00,2.40
7708.00,2.42
7707.00,2.43
7706.00,2.44
7705.00,2.45
7704.00,2.46
7703.00,2.46
7702.00,2.46
7701.00,2.47
7700.00,2.47
7699.00,2.47
7698.00,2.47
7697.00,2.47
7696.00,2.47
7695.00,2.47
7694.00,2.46
7693.00,2.46
7692.00,2.46
7691.00,2.45
7690.00,2.45
7689.00,2.44
7688.00,2.43
7687.00,2.43
7686.00,2.42
7685.00,2.40
7684.00,2.39
7683.00,2.38
7682.00,2.37
7681.00,2.35
7680.00,2.34
7679.00,2.33
7678.00,2.32
7677.00,2.31
7676.00,2.30
7675.00,2.29
7674.00,2.28
7673.00,2.28
7672.00,2.27
7671.00,2.26
7670.00,2.26
7669.00,2.25
7668.00,2.25
7667.00,2.25
7666.00,2.24
7665.00,2.24
7664.00,2.23
7663.00,2.23
7662.00,2.23
7661.00,2.23
7660.00,2.23
7659.00,2.23
7658.00,2.23
7657.00,2.24
7656.00,2.24
7655.00,2.25
7654.00,2.26
7653.00,2.26
7652.00,2.27
7651.00,2.28
7650.00,2.29
7649.00,2.30
7648.00,2.31
7647.00,2.32
7646.00,2.32
7645.00,2.33
7644.00,2.34
7643.00,2.34
7642.00,2.35
7641.00,2.36
7640.00,2.36
7639.00,2.37
7638.00,2.37
7637.00,2.38
7636.00,2.39
7635.00,2.39
7634.00,2.40
7633.00,2.40
7632.00,2.41
7631.00,2.41
7630.00,2.41
7629.00,2.41
7628.00,2.42
7627.00,2.42
7626.00,2.42
7625.00,2.42
7624.00,2.42
7623.00,2.43
7622.00,2.43
7621.00,2.43
7620.00,2.42
7619.00,2.42
7618.00,2.42
7617.00,2.42
7616.00,2.42
7615.00,2.42
7614.00,2.42
7613.00,2.41
7612.00,2.41
7611.00,2.41
7610.00,2.40
7609.00,2.40
7608.00,2.40
7607.00,2.39
7606.00,2.39
7605.00,2.39
7604.00,2.39
7603.00,2.38
7602.00,2.38
7601.00,2.38
7600.00,2.38
7599.00,2.37
7598.00,2.37
7597.00,2.36
7596.00,2.36
7595.00,2.35
7594.00,2.35
7593.00,2.34
7592.00,2.34
7591.00,2.33
7590.00,2.33
7589.00,2.32
7588.00,2.32
7587.00,2.32
7586.00,2.31
7585.00,2.31
7584.00,2.31
7583.00,2.30
7582.00,2.30
7581.00,2.30
7580.00,2.29
7579.00,2.29
7578.00,2.29
7577.00,2.28
7576.00,2.28
7575.00,2.27
7574.00,2.27
7573.00,2.26
7572.00,2.26
7571.00,2.26
7570.00,2.26
7569.00,2.26
7568.00,2.26
7567.00,2.26
7566.00,2.26
7565.00,2.26
7564.00,2.26
7563.00,2.26
7562.00,2.26
7561.00,2.26
7560.00,2.26
7559.00,2.26
7558.00,2.26
7557.00,2.27
7556.00,2.27
7555.00,2.27
7554.00,2.27
7553.00,2.27
7552.00,2.27
7551.00,2.27
7550.00,2.27
7549.00,2.27
7548.00,2.27
7547.00,2.27
7546.00,2.27
7545.00,2.26
7544.00,2.26
7543.00,2.26
7542.00,2.25
7541.00,2.25
7540.00,2.24
7539.00,2.24
7538.00,2.23
7537.00,2.23
7536.00,2.22
7535.00,2.22
7534.00,2.21
7533.00,2.21
7532.00,2.20
7531.00,2.20
7530.00,2.20
7529.00,2.19
7528.00,2.19
7527.00,2.19
7526.00,2.19
7525.00,2.19
7524.00,2.19
7523.00,2.19
7522.00,2.19
7521.00,2.19
7520.00,2.19
7519.00,2.19
7518.00,2.19
7517.00,2.20
7516.00,2.20
7515.00,2.20
7514.00,2.21
7513.00,2.21
7512.00,2.21
7511.00,2.21
7510.00,2.21
7509.00,2.21
7508.00,2.22
7507.00,2.22
7506.00,2.22
7505.00,2.22
7504.00,2.22
7503.00,2.22
7502.00,2.22
7501.00,2.22
7500.00,2.22
7499.00,2.22
7498.00,2.22
7497.00,2.22
7496.00,2.21
7495.00,2.21
7494.00,2.21
7493.00,2.21
7492.00,2.20
7491.00,2.20
7490.00,2.20
7489.00,2.19
7488.00,2.19
7487.00,2.19
7486.00,2.18
7485.00,2.18
7484.00,2.18
7483.00,2.18
7482.00,2.18
7481.00,2.18
7480.00,2.18
7479.00,2.18
7478.00,2.18
7477.00,2.18
7476.00,2.18
7475.00,2.18
7474.00,2.18
7473.00,2.18
7472.00,2.18
7471.00,2.18
7470.00,2.18
7469.00,2.18
7468.00,2.18
7467.00,2.18
7466.00,2.19
7465.00,2.19
7464.00,2.19
7463.00,2.20
7462.00,2.20
7461.00,2.21
7460.00,2.22
7459.00,2.22
7458.00,2.23
7457.00,2.23
7456.00,2.23
7455.00,2.24
7454.00,2.24
7453.00,2.24
7452.00,2.24
7451.00,2.24
7450.00,2.24
7449.00,2.24
7448.00,2.24
7447.00,2.24
7446.00,2.24
7445.00,2.24
7444.00,2.24
7443.00,2.24
7442.00,2.24
7441.00,2.24
7440.00,2.24
7439.00,2.24
7438.00,2.24
7437.00,2.24
7436.00,2.24
7435.00,2.24
7434.00,2.23
7433.00,2.23
7432.00,2.23
7431.00,2.23
7430.00,2.23
7429.00,2.23
7428.00,2.23
7427.00,2.23
7426.00,2.24
7425.00,2.24
7424.00,2.24
7423.00,2.25
7422.00,2.26
7421.00,2.26
7420.00,2.27
7419.00,2.28
7418.00,2.28
7417.00,2.29
7416.00,2.30
7415.00,2.30
7414.00,2.31
7413.00,2.31
7412.00,2.32
7411.00,2.32
7410.00,2.32
7409.00,2.32
7408.00,2.33
7407.00,2.33
7406.00,2.33
7405.00,2.33
7404.00,2.33
7403.00,2.33
7402.00,2.34
7401.00,2.34
7400.00,2.34
7399.00,2.34
7398.00,2.34
7397.00,2.34
7396.00,2.34
7395.00,2.33
7394.00,2.33
7393.00,2.32
7392.00,2.32
7391.00,2.31
7390.00,2.31
7389.00,2.30
7388.00,2.30
7387.00,2.29
7386.00,2.29
7385.00,2.29
7384.00,2.29
7383.00,2.29
7382.00,2.29
7381.00,2.29
7380.00,2.29
7379.00,2.29
7378.00,2.29
7377.00,2.29
7376.00,2.29
7375.00,2.29
7374.00,2.29
7373.00,2.29
7372.00,2.29
7371.00,2.29
7370.00,2.29
7369.00,2.29
7368.00,2.30
7367.00,2.30
7366.00,2.30
7365.00,2.31
7364.00,2.31
7363.00,2.31
7362.00,2.31
7361.00,2.31
7360.00,2.30
7359.00,2.30
7358.00,2.30
7357.00,2.29
7356.00,2.29
7355.00,2.28
7354.00,2.27
7353.00,2.26
7352.00,2.26
7351.00,2.25
7350.00,2.24
7349.00,2.23
7348.00,2.22
7347.00,2.21
7346.00,2.20
7345.00,2.19
7344.00,2.18
7343.00,2.17
7342.00,2.16
7341.00,2.15
7340.00,2.14
7339.00,2.14
7338.00,2.13
7337.00,2.13
7336.00,2.13
7335.00,2.13
7334.00,2.13
7333.00,2.14
7332.00,2.14
7331.00,2.15
7330.00,2.16
7329.00,2.16
7328.00,2.17
7327.00,2.18
7326.00,2.19
7325.00,2.20
7324.00,2.21
7323.00,2.23
7322.00,2.24
7321.00,2.25
7320.00,2.27
7319.00,2.28
7318.00,2.30
7317.00,2.31
7316.00,2.32
7315.00,2.33
7314.00,2.34
7313.00,2.35
7312.00,2.35
7311.00,2.36
7310.00,2.36
7309.00,2.37
7308.00,2.37
7307.00,2.37
7306.00,2.38
7305.00,2.38
7304.00,2.38
7303.00,2.38
7302.00,2.39
7301.00,2.39
7300.00,2.39
7299.00,2.39
7298.00,2.39
7297.00,2.39
7296.00,2.39
7295.00,2.39
7294.00,2.39
7293.00,2.38
7292.00,2.38
7291.00,2.38
7290.00,2.37
7289.00,2.37
7288.00,2.37
7287.00,2.37
7286.00,2.37
7285.00,2.36
7284.00,2.36
7283.00,2.36
7282.00,2.36
7281.00,2.36
7280.00,2.36
7279.00,2.35
7278.00,2.35
7277.00,2.34
7276.00,2.34
7275.00,2.34
7274.00,2.33
7273.00,2.33
7272.00,2.32
7271.00,2.32
7270.00,2.32
7269.00,2.32
7268.00,2.32
7267.00,2.32
7266.00,2.32
7265.00,2.33
7264.00,2.33
7263.00,2.34
7262.00,2.35
7261.00,2.35
7260.00,2.35
7259.00,2.36
7258.00,2.36
7257.00,2.37
7256.00,2.37
7255.00,2.37
7254.00,2.38
7253.00,2.38
7252.00,2.38
7251.00,2.39
7250.00,2.39
7249.00,2.39
7248.00,2.39
7247.00,2.39
7246.00,2.40
7245.00,2.40
7244.00,2.40
7243.00,2.40
7242.00,2.39
7241.00,2.39
7240.00,2.38
7239.00,2.38
7238.00,2.37
7237.00,2.36
7236.00,2.35
7235.00,2.34
7234.00,2.33
7233.00,2.32
7232.00,2.31
7231.00,2.31
7230.00,2.30
7229.00,2.29
7228.00,2.28
7227.00,2.27
7226.00,2.27
7225.00,2.26
7224.00,2.25
7223.00,2.24
7222.00,2.24
7221.00,2.23
7220.00,2.22
7219.00,2.21
7218.00,2.21
7217.00,2.20
7216.00,2.19
7215.00,2.19
7214.00,2.18
7213.00,2.17
7212.00,2.17
7211.00,2.16
7210.00,2.16
7209.00,2.15
7208.00,2.15
7207.00,2.14
7206.00,2.14
7205.00,2.13
7204.00,2.13
7203.00,2.13
7202.00,2.12
7201.00,2.12
7200.00,2.12
7199.00,2.11
7198.00,2.11
7197.00,2.11
7196.00,2.11
7195.00,2.11
7194.00,2.10
7193.00,2.10
7192.00,2.10
7191.00,2.10
7190.00,2.10
7189.00,2.10
7188.00,2.10
7187.00,2.10
7186.00,2.10
7185.00,2.10
7184.00,2.11
7183.00,2.11
7182.00,2.11
7181.00,2.12
7180.00,2.12
7179.00,2.12
7178.00,2.12
7177.00,2.13
7176.00,2.13
7175.00,2.13
7174.00,2.13
7173.00,2.13
7172.00,2.13
7171.00,2.13
7170.00,2.13
7169.00,2.14
7168.00,2.14
7167.00,2.14
7166.00,2.14
7165.00,2.14
7164.00,2.14
7163.00,2.14
7162.00,2.14
7161.00,2.14
7160.00,2.14
7159.00,2.13
7158.00,2.13
7157.00,2.12
7156.00,2.11
7155.00,2.11
7154.00,2.10
7153.00,2.09
7152.00,2.07
7151.00,2.06
7150.00,2.05
7149.00,2.03
7148.00,2.02
7147.00,2.00
7146.00,1.99
7145.00,1.97
7144.00,1.95
7143.00,1.93
7142.00,1.91
7141.00,1.89
7140.00,1.88
7139.00,1.86
7138.00,1.84
7137.00,1.83
7136.00,1.81
7135.00,1.80
7134.00,1.79
7133.00,1.78
7132.00,1.77
7131.00,1.76
7130.00,1.76
7129.00,1.75
7128.00,1.75
7127.00,1.75
7126.00,1.75
7125.00,1.75
7124.00,1.76
7123.00,1.76
7122.00,1.77
7121.00,1.78
7120.00,1.79
7119.00,1.81
7118.00,1.82
7117.00,1.83
7116.00,1.84
7115.00,1.86
7114.00,1.87
7113.00,1.88
7112.00,1.89
7111.00,1.90
7110.00,1.90
7109.00,1.91
7108.00,1.91
7107.00,1.92
7106.00,1.92
7105.00,1.92
7104.00,1.92
7103.00,1.91
7102.00,1.91
7101.00,1.91
7100.00,1.90
7099.00,1.90
7098.00,1.89
7097.00,1.88
7096.00,1.87
7095.00,1.87
7094.00,1.86
7093.00,1.85
7092.00,1.84
7091.00,1.83
7090.00,1.82
7089.00,1.81
7088.00,1.81
7087.00,1.80
7086.00,1.79
7085.00,1.79
7084.00,1.78
7083.00,1.78
7082.00,1.78
7081.00,1.78
7080.00,1.78
7079.00,1.78
7078.00,1.78
7077.00,1.79
7076.00,1.79
7075.00,1.79
7074.00,1.79
7073.00,1.80
7072.00,1.80
7071.00,1.80
7070.00,1.80
7069.00,1.80
7068.00,1.80
7067.00,1.80
7066.00,1.80
7065.00,1.80
7064.00,1.80
7063.00,1.80
7062.00,1.80
7061.00,1.80
7060.00,1.79
7059.00,1.79
7058.00,1.79
7057.00,1.78
7056.00,1.78
7055.00,1.77
7054.00,1.77
7053.00,1.76
7052.00,1.76
7051.00,1.75
7050.00,1.75
7049.00,1.74
7048.00,1.74
7047.00,1.73
7046.00,1.73
7045.00,1.73
7044.00,1.72
7043.00,1.72
7042.00,1.72
7041.00,1.72
7040.00,1.72
7039.00,1.71
7038.00,1.71
7037.00,1.71
7036.00,1.70
7035.00,1.70
7034.00,1.70
7033.00,1.69
7032.00,1.69
7031.00,1.69
7030.00,1.69
7029.00,1.68
7028.00,1.68
7027.00,1.68
7026.00,1.67
7025.00,1.67
7024.00,1.67
7023.00,1.66
7022.00,1.66
7021.00,1.66
7020.00,1.65
7019.00,1.65
7018.00,1.65
7017.00,1.65
7016.00,1.64
7015.00,1.64
7014.00,1.64
7013.00,1.64
7012.00,1.64
7011.00,1.64
7010.00,1.64
7009.00,1.64
7008.00,1.64
7007.00,1.64
7006.00,1.64
7005.00,1.64
7004.00,1.65
7003.00,1.65
7002.00,1.65
7001.00,1.65
7000.00,1.65
6999.00,1.65
6998.00,1.66
6997.00,1.66
6996.00,1.66
6995.00,1.66
6994.00,1.67
6993.00,1.67
6992.00,1.67
6991.00,1.67
6990.00,1.67
6989.00,1.67
6988.00,1.67
6987.00,1.67
6986.00,1.67
6985.00,1.67
6984.00,1.67
6983.00,1.67
6982.00,1.67
6981.00,1.67
6980.00,1.67
6979.00,1.67
6978.00,1.67
6977.00,1.67
6976.00,1.67
6975.00,1.67
6974.00,1.67
6973.00,1.67
6972.00,1.67
6971.00,1.67
6970.00,1.67
6969.00,1.67
6968.00,1.66
6967.00,1.66
6966.00,1.66
6965.00,1.66
6964.00,1.66
6963.00,1.66
6962.00,1.66
6961.00,1.66
6960.00,1.66
6959.00,1.66
6958.00,1.65
6957.00,1.65
6956.00,1.65
6955.00,1.65
6954.00,1.64
6953.00,1.64
6952.00,1.64
6951.00,1.63
6950.00,1.63
6949.00,1.62
6948.00,1.62
6947.00,1.62
6946.00,1.62
6945.00,1.62
6944.00,1.61
6943.00,1.61
6942.00,1.61
6941.00,1.61
6940.00,1.61
6939.00,1.61
6938.00,1.61
6937.00,1.60
6936.00,1.60
6935.00,1.60
6934.00,1.59
6933.00,1.59
6932.00,1.58
6931.00,1.58
6930.00,1.58
6929.00,1.58
6928.00,1.57
6927.00,1.57
6926.00,1.57
6925.00,1.57
6924.00,1.57
6923.00,1.57
6922.00,1.57
6921.00,1.57
6920.00,1.57
6919.00,1.57
6918.00,1.57
6917.00,1.58
6916.00,1.58
6915.00,1.58
6914.00,1.58
6913.00,1.58
6912.00,1.59
6911.00,1.59
6910.00,1.59
6909.00,1.60
6908.00,1.60
6907.00,1.61
6906.00,1.61
6905.00,1.62
6904.00,1.63
6903.00,1.63
6902.00,1.63
6901.00,1.64
6900.00,1.64
6899.00,1.64
6898.00,1.64
6897.00,1.64
6896.00,1.64
6895.00,1.64
6894.00,1.64
6893.00,1.64
6892.00,1.64
6891.00,1.64
6890.00,1.64
6889.00,1.64
6888.00,1.63
6887.00,1.63
6886.00,1.63
6885.00,1.63
6884.00,1.62
6883.00,1.62
6882.00,1.62
6881.00,1.61
6880.00,1.61
6879.00,1.61
6878.00,1.60
6877.00,1.60
6876.00,1.60
6875.00,1.59
6874.00,1.59
6873.00,1.59
6872.00,1.59
6871.00,1.59
6870.00,1.59
6869.00,1.60
6868.00,1.60
6867.00,1.60
6866.00,1.61
6865.00,1.61
6864.00,1.61
6863.00,1.61
6862.00,1.62
6861.00,1.62
6860.00,1.62
6859.00,1.62
6858.00,1.63
6857.00,1.63
6856.00,1.62
6855.00,1.62
6854.00,1.62
6853.00,1.62
6852.00,1.62
6851.00,1.62
6850.00,1.62
6849.00,1.62
6848.00,1.62
6847.00,1.61
6846.00,1.61
6845.00,1.61
6844.00,1.60
6843.00,1.60
6842.00,1.60
6841.00,1.59
6840.00,1.59
6839.00,1.58
6838.00,1.58
6837.00,1.58
6836.00,1.57
6835.00,1.57
6834.00,1.56
6833.00,1.56
6832.00,1.56
6831.00,1.56
6830.00,1.56
6829.00,1.56
6828.00,1.56
6827.00,1.56
6826.00,1.56
6825.00,1.57
6824.00,1.57
6823.00,1.58
6822.00,1.58
6821.00,1.59
6820.00,1.59
6819.00,1.60
6818.00,1.60
6817.00,1.61
6816.00,1.61
6815.00,1.62
6814.00,1.62
6813.00,1.62
6812.00,1.63
6811.00,1.63
6810.00,1.64
6809.00,1.64
6808.00,1.65
6807.00,1.65
6806.00,1.66
6805.00,1.66
6804.00,1.67
6803.00,1.67
6802.00,1.68
6801.00,1.68
6800.00,1.68
6799.00,1.68
6798.00,1.68
6797.00,1.68
6796.00,1.68
6795.00,1.68
6794.00,1.68
6793.00,1.68
6792.00,1.68
6791.00,1.68
6790.00,1.68
6789.00,1.67
6788.00,1.67
6787.00,1.67
6786.00,1.67
6785.00,1.67
6784.00,1.67
6783.00,1.67
6782.00,1.67
6781.00,1.67
6780.00,1.67
6779.00,1.67
6778.00,1.67
6777.00,1.67
6776.00,1.67
6775.00,1.68
6774.00,1.68
6773.00,1.68
6772.00,1.68
6771.00,1.69
6770.00,1.69
6769.00,1.70
6768.00,1.70
6767.00,1.71
6766.00,1.71
6765.00,1.72
6764.00,1.72
6763.00,1.73
6762.00,1.74
6761.00,1.74
6760.00,1.75
6759.00,1.76
6758.00,1.76
6757.00,1.77
6756.00,1.77
6755.00,1.78
6754.00,1.78
6753.00,1.79
6752.00,1.79
6751.00,1.80
6750.00,1.80
6749.00,1.80
6748.00,1.80
6747.00,1.80
6746.00,1.80
6745.00,1.81
6744.00,1.81
6743.00,1.81
6742.00,1.81
6741.00,1.81
6740.00,1.81
6739.00,1.81
6738.00,1.81
6737.00,1.82
6736.00,1.82
6735.00,1.82
6734.00,1.82
6733.00,1.82
6732.00,1.82
6731.00,1.82
6730.00,1.82
6729.00,1.82
6728.00,1.82
6727.00,1.82
6726.00,1.82
6725.00,1.81
6724.00,1.81
6723.00,1.81
6722.00,1.81
6721.00,1.81
6720.00,1.81
6719.00,1.81
6718.00,1.81
6717.00,1.81
6716.00,1.81
6715.00,1.81
6714.00,1.80
6713.00,1.80
6712.00,1.80
6711.00,1.80
6710.00,1.79
6709.00,1.79
6708.00,1.79
6707.00,1.79
6706.00,1.79
6705.00,1.79
6704.00,1.79
6703.00,1.80
6702.00,1.80
6701.00,1.80
6700.00,1.80
6699.00,1.81
6698.00,1.81
6697.00,1.81
6696.00,1.81
6695.00,1.82
6694.00,1.82
6693.00,1.83
6692.00,1.83
6691.00,1.84
6690.00,1.84
6689.00,1.85
6688.00,1.86
6687.00,1.86
6686.00,1.87
6685.00,1.88
6684.00,1.88
6683.00,1.89
6682.00,1.90
6681.00,1.90
6680.00,1.91
6679.00,1.91
6678.00,1.92
6677.00,1.92
6676.00,1.92
6675.00,1.93
6674.00,1.93
6673.00,1.93
6672.00,1.94
6671.00,1.94
6670.00,1.94
6669.00,1.95
6668.00,1.95
6667.00,1.95
6666.00,1.95
6665.00,1.95
6664.00,1.95
6663.00,1.95
6662.00,1.95
6661.00,1.95
6660.00,1.96
6659.00,1.96
6658.00,1.96
6657.00,1.96
6656.00,1.96
6655.00,1.95
6654.00,1.95
6653.00,1.95
6652.00,1.95
6651.00,1.95
6650.00,1.95
6649.00,1.95
6648.00,1.95
6647.00,1.95
6646.00,1.95
6645.00,1.95
6644.00,1.95
6643.00,1.95
6642.00,1.94
6641.00,1.94
6640.00,1.94
6639.00,1.94
6638.00,1.93
6637.00,1.93
6636.00,1.93
6635.00,1.93
6634.00,1.93
6633.00,1.92
6632.00,1.92
6631.00,1.92
6630.00,1.92
6629.00,1.91
6628.00,1.91
6627.00,1.91
6626.00,1.90
6625.00,1.90
6624.00,1.89
6623.00,1.89
6622.00,1.88
6621.00,1.88
6620.00,1.88
6619.00,1.87
6618.00,1.87
6617.00,1.87
6616.00,1.86
6615.00,1.86
6614.00,1.86
6613.00,1.86
6612.00,1.86
6611.00,1.86
6610.00,1.86
6609.00,1.86
6608.00,1.86
6607.00,1.86
6606.00,1.87
6605.00,1.87
6604.00,1.87
6603.00,1.88
6602.00,1.88
6601.00,1.89
6600.00,1.89
6599.00,1.90
6598.00,1.91
6597.00,1.92
6596.00,1.92
6595.00,1.93
6594.00,1.94
6593.00,1.95
6592.00,1.95
6591.00,1.96
6590.00,1.97
6589.00,1.98
6588.00,1.99
6587.00,1.99
6586.00,2.00
6585.00,2.01
6584.00,2.01
6583.00,2.01
6582.00,2.02
6581.00,2.02
6580.00,2.02
6579.00,2.02
6578.00,2.02
6577.00,2.02
6576.00,2.02
6575.00,2.02
6574.00,2.02
6573.00,2.02
6572.00,2.01
6571.00,2.01
6570.00,2.01
6569.00,2.01
6568.00,2.01
6567.00,2.00
6566.00,2.00
6565.00,2.00
6564.00,1.99
6563.00,1.99
6562.00,1.98
6561.00,1.98
6560.00,1.98
6559.00,1.98
6558.00,1.98
6557.00,1.97
6556.00,1.97
6555.00,1.98
6554.00,1.98
6553.00,1.98
6552.00,1.98
6551.00,1.98
6550.00,1.99
6549.00,1.99
6548.00,1.99
6547.00,1.99
6546.00,1.99
6545.00,1.99
6544.00,1.99
6543.00,1.99
6542.00,1.99
6541.00,2.00
6540.00,2.00
6539.00,2.00
6538.00,2.00
6537.00,2.00
6536.00,2.00
6535.00,2.00
6534.00,2.00
6533.00,2.00
6532.00,2.00
6531.00,2.00
6530.00,2.00
6529.00,2.00
6528.00,2.00
6527.00,2.00
6526.00,2.00
6525.00,2.00
6524.00,2.00
6523.00,2.00
6522.00,2.00
6521.00,2.00
6520.00,2.00
6519.00,2.00
6518.00,2.01
6517.00,2.01
6516.00,2.01
6515.00,2.02
6514.00,2.02
6513.00,2.02
6512.00,2.03
6511.00,2.03
6510.00,2.04
6509.00,2.04
6508.00,2.05
6507.00,2.05
6506.00,2.06
6505.00,2.06
6504.00,2.06
6503.00,2.07
6502.00,2.07
6501.00,2.08
6500.00,2.08
6499.00,2.08
6498.00,2.09
6497.00,2.09
6496.00,2.10
6495.00,2.10
6494.00,2.11
6493.00,2.11
6492.00,2.11
6491.00,2.11
6490.00,2.12
6489.00,2.12
6488.00,2.12
6487.00,2.12
6486.00,2.13
6485.00,2.13
6484.00,2.13
6483.00,2.13
6482.00,2.13
6481.00,2.13
6480.00,2.14
6479.00,2.14
6478.00,2.14
6477.00,2.14
6476.00,2.15
6475.00,2.15
6474.00,2.15
6473.00,2.15
6472.00,2.15
6471.00,2.15
6470.00,2.15
6469.00,2.15
6468.00,2.15
6467.00,2.15
6466.00,2.15
6465.00,2.15
6464.00,2.16
6463.00,2.16
6462.00,2.16
6461.00,2.16
6460.00,2.16
6459.00,2.16
6458.00,2.16
6457.00,2.17
6456.00,2.17
6455.00,2.17
6454.00,2.17
6453.00,2.17
6452.00,2.17
6451.00,2.17
6450.00,2.17
6449.00,2.17
6448.00,2.17
6447.00,2.17
6446.00,2.17
6445.00,2.17
6444.00,2.17
6443.00,2.17
6442.00,2.18
6441.00,2.18
6440.00,2.18
6439.00,2.18
6438.00,2.18
6437.00,2.17
6436.00,2.17
6435.00,2.17
6434.00,2.17
6433.00,2.17
6432.00,2.16
6431.00,2.16
6430.00,2.16
6429.00,2.15
6428.00,2.15
6427.00,2.15
6426.00,2.15
6425.00,2.15
6424.00,2.15
6423.00,2.15
6422.00,2.15
6421.00,2.15
6420.00,2.15
6419.00,2.16
6418.00,2.16
6417.00,2.16
6416.00,2.16
6415.00,2.16
6414.00,2.16
6413.00,2.17
6412.00,2.17
6411.00,2.17
6410.00,2.17
6409.00,2.18
6408.00,2.18
6407.00,2.19
6406.00,2.19
6405.00,2.20
6404.00,2.21
6403.00,2.21
6402.00,2.22
6401.00,2.22
6400.00,2.23
6399.00,2.23
6398.00,2.23
6397.00,2.24
6396.00,2.24
6395.00,2.24
6394.00,2.24
6393.00,2.24
6392.00,2.24
6391.00,2.24
6390.00,2.24
6389.00,2.24
6388.00,2.24
6387.00,2.24
6386.00,2.24
6385.00,2.24
6384.00,2.24
6383.00,2.24
6382.00,2.24
6381.00,2.24
6380.00,2.23
6379.00,2.23
6378.00,2.23
6377.00,2.22
6376.00,2.22
6375.00,2.21
6374.00,2.21
6373.00,2.21
6372.00,2.21
6371.00,2.20
6370.00,2.20
6369.00,2.20
6368.00,2.20
6367.00,2.20
6366.00,2.20
6365.00,2.20
6364.00,2.21
6363.00,2.21
6362.00,2.21
6361.00,2.21
6360.00,2.21
6359.00,2.22
6358.00,2.22
6357.00,2.22
6356.00,2.22
6355.00,2.23
6354.00,2.23
6353.00,2.23
6352.00,2.24
6351.00,2.25
6350.00,2.25
6349.00,2.26
6348.00,2.27
6347.00,2.28
6346.00,2.28
6345.00,2.29
6344.00,2.30
6343.00,2.30
6342.00,2.31
6341.00,2.31
6340.00,2.31
6339.00,2.32
6338.00,2.32
6337.00,2.32
6336.00,2.33
6335.00,2.33
6334.00,2.33
6333.00,2.33
6332.00,2.34
6331.00,2.34
6330.00,2.34
6329.00,2.34
6328.00,2.35
6327.00,2.35
6326.00,2.35
6325.00,2.34
6324.00,2.34
6323.00,2.34
6322.00,2.33
6321.00,2.33
6320.00,2.33
6319.00,2.32
6318.00,2.32
6317.00,2.31
6316.00,2.31
6315.00,2.30
6314.00,2.30
6313.00,2.30
6312.00,2.29
6311.00,2.29
6310.00,2.29
6309.00,2.29
6308.00,2.29
6307.00,2.28
6306.00,2.28
6305.00,2.28
6304.00,2.28
6303.00,2.27
6302.00,2.27
6301.00,2.27
6300.00,2.27
6299.00,2.27
6298.00,2.27
6297.00,2.27
6296.00,2.27
6295.00,2.27
6294.00,2.27
6293.00,2.28
6292.00,2.28
6291.00,2.28
6290.00,2.29
6289.00,2.29
6288.00,2.30
6287.00,2.30
6286.00,2.30
6285.00,2.31
6284.00,2.31
6283.00,2.31
6282.00,2.31
6281.00,2.32
6280.00,2.32
6279.00,2.32
6278.00,2.32
6277.00,2.33
6276.00,2.33
6275.00,2.33
6274.00,2.33
6273.00,2.34
6272.00,2.34
6271.00,2.34
6270.00,2.34
6269.00,2.34
6268.00,2.34
6267.00,2.35
6266.00,2.35
6265.00,2.34
6264.00,2.34
6263.00,2.34
6262.00,2.34
6261.00,2.34
6260.00,2.34
6259.00,2.34
6258.00,2.34
6257.00,2.34
6256.00,2.34
6255.00,2.34
6254.00,2.34
6253.00,2.34
6252.00,2.34
6251.00,2.34
6250.00,2.34
6249.00,2.35
6248.00,2.35
6247.00,2.35
6246.00,2.35
6245.00,2.35
6244.00,2.35
6243.00,2.35
6242.00,2.35
6241.00,2.35
6240.00,2.35
6239.00,2.35
6238.00,2.35
6237.00,2.35
6236.00,2.35
6235.00,2.35
6234.00,2.35
6233.00,2.35
6232.00,2.35
6231.00,2.35
6230.00,2.35
6229.00,2.34
6228.00,2.34
6227.00,2.34
6226.00,2.34
6225.00,2.34
6224.00,2.34
6223.00,2.33
6222.00,2.33
6221.00,2.33
6220.00,2.33
6219.00,2.33
6218.00,2.33
6217.00,2.33
6216.00,2.32
6215.00,2.32
6214.00,2.32
6213.00,2.32
6212.00,2.32
6211.00,2.33
6210.00,2.33
6209.00,2.33
6208.00,2.34
6207.00,2.34
6206.00,2.34
6205.00,2.35
6204.00,2.35
6203.00,2.35
6202.00,2.36
6201.00,2.36
6200.00,2.36
6199.00,2.37
6198.00,2.37
6197.00,2.38
6196.00,2.38
6195.00,2.38
6194.00,2.39
6193.00,2.39
6192.00,2.39
6191.00,2.40
6190.00,2.40
6189.00,2.40
6188.00,2.41
6187.00,2.41
6186.00,2.41
6185.00,2.41
6184.00,2.41
6183.00,2.42
6182.00,2.42
6181.00,2.42
6180.00,2.42
6179.00,2.42
6178.00,2.42
6177.00,2.42
6176.00,2.42
6175.00,2.42
6174.00,2.42
6173.00,2.42
6172.00,2.42
6171.00,2.42
6170.00,2.42
6169.00,2.42
6168.00,2.42
6167.00,2.43
6166.00,2.43
6165.00,2.43
6164.00,2.43
6163.00,2.44
6162.00,2.44
6161.00,2.44
6160.00,2.44
6159.00,2.45
6158.00,2.45
6157.00,2.45
6156.00,2.45
6155.00,2.46
6154.00,2.46
6153.00,2.46
6152.00,2.47
6151.00,2.47
6150.00,2.48
6149.00,2.48
6148.00,2.48
6147.00,2.49
6146.00,2.49
6145.00,2.50
6144.00,2.50
6143.00,2.50
6142.00,2.51
6141.00,2.51
6140.00,2.51
6139.00,2.51
6138.00,2.51
6137.00,2.51
6136.00,2.51
6135.00,2.51
6134.00,2.51
6133.00,2.51
6132.00,2.52
6131.00,2.52
6130.00,2.52
6129.00,2.52
6128.00,2.52
6127.00,2.52
6126.00,2.53
6125.00,2.53
6124.00,2.53
6123.00,2.53
6122.00,2.53
6121.00,2.52
6120.00,2.52
6119.00,2.52
6118.00,2.52
6117.00,2.52
6116.00,2.52
6115.00,2.51
6114.00,2.51
6113.00,2.51
6112.00,2.51
6111.00,2.51
6110.00,2.51
6109.00,2.51
6108.00,2.51
6107.00,2.51
6106.00,2.51
6105.00,2.50
6104.00,2.50
6103.00,2.50
6102.00,2.50
6101.00,2.49
6100.00,2.49
6099.00,2.49
6098.00,2.48
6097.00,2.48
6096.00,2.48
6095.00,2.47
6094.00,2.47
6093.00,2.47
6092.00,2.47
6091.00,2.46
6090.00,2.46
6089.00,2.46
6088.00,2.46
6087.00,2.46
6086.00,2.46
6085.00,2.46
6084.00,2.46
6083.00,2.46
6082.00,2.45
6081.00,2.45
6080.00,2.45
6079.00,2.45
6078.00,2.45
6077.00,2.45
6076.00,2.45
6075.00,2.45
6074.00,2.45
6073.00,2.45
6072.00,2.45
6071.00,2.45
6070.00,2.46
6069.00,2.46
6068.00,2.46
6067.00,2.46
6066.00,2.46
6065.00,2.47
6064.00,2.47
6063.00,2.47
6062.00,2.47
6061.00,2.47
6060.00,2.48
6059.00,2.48
6058.00,2.48
6057.00,2.49
6056.00,2.49
6055.00,2.49
6054.00,2.50
6053.00,2.50
6052.00,2.51
6051.00,2.51
6050.00,2.52
6049.00,2.52
6048.00,2.53
6047.00,2.53
6046.00,2.54
6045.00,2.54
6044.00,2.54
6043.00,2.55
6042.00,2.55
6041.00,2.55
6040.00,2.56
6039.00,2.56
6038.00,2.56
6037.00,2.56
6036.00,2.57
6035.00,2.57
6034.00,2.57
6033.00,2.57
6032.00,2.57
6031.00,2.57
6030.00,2.57
6029.00,2.57
6028.00,2.57
6027.00,2.57
6026.00,2.57
6025.00,2.57
6024.00,2.57
6023.00,2.57
6022.00,2.57
6021.00,2.56
6020.00,2.56
6019.00,2.56
6018.00,2.56
6017.00,2.56
6016.00,2.55
6015.00,2.55
6014.00,2.55
6013.00,2.55
6012.00,2.55
6011.00,2.55
6010.00,2.55
6009.00,2.54
6008.00,2.54
6007.00,2.54
6006.00,2.54
6005.00,2.54
6004.00,2.54
6003.00,2.54
6002.00,2.53
6001.00,2.53
6000.00,2.53
5999.00,2.53
5998.00,2.53
5997.00,2.53
5996.00,2.53
5995.00,2.52
5994.00,2.52
5993.00,2.52
5992.00,2.52
5991.00,2.52
5990.00,2.52
5989.00,2.52
5988.00,2.52
5987.00,2.52
5986.00,2.52
5985.00,2.51
5984.00,2.51
5983.00,2.51
5982.00,2.51
5981.00,2.51
5980.00,2.51
5979.00,2.51
5978.00,2.51
5977.00,2.51
5976.00,2.51
5975.00,2.51
5974.00,2.50
5973.00,2.50
5972.00,2.50
5971.00,2.50
5970.00,2.50
5969.00,2.50
5968.00,2.49
5967.00,2.49
5966.00,2.49
5965.00,2.49
5964.00,2.49
5963.00,2.49
5962.00,2.49
5961.00,2.48
5960.00,2.48
5959.00,2.48
5958.00,2.48
5957.00,2.47
5956.00,2.47
5955.00,2.47
5954.00,2.46
5953.00,2.46
5952.00,2.46
5951.00,2.46
5950.00,2.45
5949.00,2.45
5948.00,2.45
5947.00,2.45
5946.00,2.44
5945.00,2.44
5944.00,2.44
5943.00,2.44
5942.00,2.44
5941.00,2.43
5940.00,2.43
5939.00,2.43
5938.00,2.43
5937.00,2.42
5936.00,2.42
5935.00,2.42
5934.00,2.42
5933.00,2.42
5932.00,2.42
5931.00,2.41
5930.00,2.42
5929.00,2.42
5928.00,2.42
5927.00,2.42
5926.00,2.42
5925.00,2.42
5924.00,2.42
5923.00,2.42
5922.00,2.42
5921.00,2.43
5920.00,2.43
5919.00,2.43
5918.00,2.43
5917.00,2.43
5916.00,2.44
5915.00,2.44
5914.00,2.44
5913.00,2.44
5912.00,2.45
5911.00,2.45
5910.00,2.45
5909.00,2.45
5908.00,2.46
5907.00,2.46
5906.00,2.46
5905.00,2.46
5904.00,2.46
5903.00,2.46
5902.00,2.46
5901.00,2.46
5900.00,2.46
5899.00,2.46
5898.00,2.45
5897.00,2.45
5896.00,2.45
5895.00,2.45
5894.00,2.45
5893.00,2.45
5892.00,2.45
5891.00,2.45
5890.00,2.45
5889.00,2.45
5888.00,2.44
5887.00,2.44
5886.00,2.44
5885.00,2.44
5884.00,2.44
5883.00,2.44
5882.00,2.44
5881.00,2.45
5880.00,2.45
5879.00,2.45
5878.00,2.45
5877.00,2.45
5876.00,2.45
5875.00,2.46
5874.00,2.46
5873.00,2.46
5872.00,2.47
5871.00,2.47
5870.00,2.47
5869.00,2.48
5868.00,2.48
5867.00,2.48
5866.00,2.48
5865.00,2.48
5864.00,2.49
5863.00,2.49
5862.00,2.49
5861.00,2.49
5860.00,2.49
5859.00,2.49
5858.00,2.49
5857.00,2.50
5856.00,2.50
5855.00,2.50
5854.00,2.50
5853.00,2.50
5852.00,2.50
5851.00,2.50
5850.00,2.50
5849.00,2.50
5848.00,2.50
5847.00,2.50
5846.00,2.49
5845.00,2.49
5844.00,2.49
5843.00,2.49
5842.00,2.49
5841.00,2.49
5840.00,2.49
5839.00,2.49
5838.00,2.49
5837.00,2.49
5836.00,2.49
5835.00,2.49
5834.00,2.48
5833.00,2.48
5832.00,2.48
5831.00,2.48
5830.00,2.48
5829.00,2.47
5828.00,2.47
5827.00,2.47
5826.00,2.47
5825.00,2.46
5824.00,2.46
5823.00,2.46
5822.00,2.46
5821.00,2.45
5820.00,2.45
5819.00,2.45
5818.00,2.45
5817.00,2.45
5816.00,2.45
5815.00,2.44
5814.00,2.44
5813.00,2.44
5812.00,2.44
5811.00,2.44
5810.00,2.44
5809.00,2.44
5808.00,2.44
5807.00,2.44
5806.00,2.44
5805.00,2.44
5804.00,2.45
5803.00,2.45
5802.00,2.45
5801.00,2.45
5800.00,2.46
5799.00,2.46
5798.00,2.46
5797.00,2.46
5796.00,2.46
5795.00,2.47
5794.00,2.47
5793.00,2.47
5792.00,2.47
5791.00,2.47
5790.00,2.47
5789.00,2.48
5788.00,2.48
5787.00,2.48
5786.00,2.48
5785.00,2.48
5784.00,2.48
5783.00,2.48
5782.00,2.48
5781.00,2.48
5780.00,2.48
5779.00,2.48
5778.00,2.48
5777.00,2.48
5776.00,2.48
5775.00,2.48
5774.00,2.48
5773.00,2.48
5772.00,2.48
5771.00,2.48
5770.00,2.49
5769.00,2.49
5768.00,2.49
5767.00,2.49
5766.00,2.49
5765.00,2.50
5764.00,2.50
5763.00,2.50
5762.00,2.51
5761.00,2.51
5760.00,2.51
5759.00,2.51
5758.00,2.52
5757.00,2.52
5756.00,2.52
5755.00,2.52
5754.00,2.53
5753.00,2.53
5752.00,2.53
5751.00,2.53
5750.00,2.53
5749.00,2.53
5748.00,2.54
5747.00,2.54
5746.00,2.54
5745.00,2.54
5744.00,2.54
5743.00,2.54
5742.00,2.54
5741.00,2.54
5740.00,2.53
5739.00,2.53
5738.00,2.53
5737.00,2.53
5736.00,2.53
5735.00,2.53
5734.00,2.52
5733.00,2.52
5732.00,2.52
5731.00,2.52
5730.00,2.52
5729.00,2.52
5728.00,2.52
5727.00,2.51
5726.00,2.51
5725.00,2.51
5724.00,2.51
5723.00,2.51
5722.00,2.51
5721.00,2.50
5720.00,2.50
5719.00,2.50
5718.00,2.50
5717.00,2.50
5716.00,2.49
5715.00,2.49
5714.00,2.49
5713.00,2.48
5712.00,2.48
5711.00,2.47
5710.00,2.47
5709.00,2.47
5708.00,2.46
5707.00,2.46
5706.00,2.46
5705.00,2.45
5704.00,2.45
5703.00,2.44
5702.00,2.44
5701.00,2.44
5700.00,2.44
5699.00,2.43
5698.00,2.43
5697.00,2.43
5696.00,2.43
5695.00,2.42
5694.00,2.42
5693.00,2.42
5692.00,2.42
5691.00,2.42
5690.00,2.42
5689.00,2.42
5688.00,2.42
5687.00,2.43
5686.00,2.43
5685.00,2.43
5684.00,2.43
5683.00,2.43
5682.00,2.43
5681.00,2.43
5680.00,2.43
5679.00,2.44
5678.00,2.44
5677.00,2.44
5676.00,2.44
5675.00,2.44
5674.00,2.44
5673.00,2.44
5672.00,2.44
5671.00,2.44
5670.00,2.44
5669.00,2.44
5668.00,2.44
5667.00,2.44
5666.00,2.44
5665.00,2.44
5664.00,2.44
5663.00,2.43
5662.00,2.43
5661.00,2.43
5660.00,2.43
5659.00,2.43
5658.00,2.43
5657.00,2.43
5656.00,2.43
5655.00,2.44
5654.00,2.44
5653.00,2.44
5652.00,2.44
5651.00,2.44
5650.00,2.44
5649.00,2.44
5648.00,2.44
5647.00,2.44
5646.00,2.44
5645.00,2.44
5644.00,2.44
5643.00,2.45
5642.00,2.45
5641.00,2.45
5640.00,2.45
5639.00,2.46
5638.00,2.46
5637.00,2.46
5636.00,2.46
5635.00,2.46
5634.00,2.47
5633.00,2.47
5632.00,2.47
5631.00,2.47
5630.00,2.47
5629.00,2.47
5628.00,2.47
5627.00,2.47
5626.00,2.47
5625.00,2.47
5624.00,2.47
5623.00,2.48
5622.00,2.48
5621.00,2.48
5620.00,2.48
5619.00,2.48
5618.00,2.48
5617.00,2.48
5616.00,2.48
5615.00,2.48
5614.00,2.49
5613.00,2.49
5612.00,2.49
5611.00,2.49
5610.00,2.49
5609.00,2.49
5608.00,2.49
5607.00,2.49
5606.00,2.49
5605.00,2.49
5604.00,2.49
5603.00,2.49
5602.00,2.49
5601.00,2.49
5600.00,2.49
5599.00,2.50
5598.00,2.50
5597.00,2.50
5596.00,2.50
5595.00,2.50
5594.00,2.50
5593.00,2.50
5592.00,2.50
5591.00,2.50
5590.00,2.50
5589.00,2.50
5588.00,2.50
5587.00,2.50
5586.00,2.51
5585.00,2.51
5584.00,2.51
5583.00,2.51
5582.00,2.52
5581.00,2.52
5580.00,2.52
5579.00,2.53
5578.00,2.53
5577.00,2.53
5576.00,2.53
5575.00,2.54
5574.00,2.54
5573.00,2.54
5572.00,2.55
5571.00,2.55
5570.00,2.55
5569.00,2.56
5568.00,2.56
5567.00,2.56
5566.00,2.57
5565.00,2.57
5564.00,2.57
5563.00,2.57
5562.00,2.57
5561.00,2.57
5560.00,2.57
5559.00,2.57
5558.00,2.57
5557.00,2.57
5556.00,2.56
5555.00,2.56
5554.00,2.56
5553.00,2.56
5552.00,2.56
5551.00,2.56
5550.00,2.55
5549.00,2.55
5548.00,2.55
5547.00,2.55
5546.00,2.55
5545.00,2.55
5544.00,2.54
5543.00,2.54
5542.00,2.54
5541.00,2.54
5540.00,2.54
5539.00,2.54
5538.00,2.54
5537.00,2.54
5536.00,2.54
5535.00,2.54
5534.00,2.54
5533.00,2.54
5532.00,2.54
5531.00,2.54
5530.00,2.54
5529.00,2.54
5528.00,2.54
5527.00,2.54
5526.00,2.54
5525.00,2.54
5524.00,2.54
5523.00,2.54
5522.00,2.54
5521.00,2.55
5520.00,2.55
5519.00,2.55
5518.00,2.55
5517.00,2.55
5516.00,2.55
5515.00,2.55
5514.00,2.56
5513.00,2.56
5512.00,2.56
5511.00,2.56
5510.00,2.56
5509.00,2.57
5508.00,2.57
5507.00,2.57
5506.00,2.57
5505.00,2.58
5504.00,2.58
5503.00,2.58
5502.00,2.59
5501.00,2.59
5500.00,2.59
5499.00,2.59
5498.00,2.60
5497.00,2.60
5496.00,2.60
5495.00,2.60
5494.00,2.61
5493.00,2.61
5492.00,2.61
5491.00,2.61
5490.00,2.61
5489.00,2.62
5488.00,2.62
5487.00,2.62
5486.00,2.62
5485.00,2.62
5484.00,2.62
5483.00,2.62
5482.00,2.62
5481.00,2.62
5480.00,2.63
5479.00,2.63
5478.00,2.63
5477.00,2.63
5476.00,2.63
5475.00,2.63
5474.00,2.63
5473.00,2.63
5472.00,2.63
5471.00,2.63
5470.00,2.63
5469.00,2.63
5468.00,2.63
5467.00,2.63
5466.00,2.63
5465.00,2.63
5464.00,2.63
5463.00,2.63
5462.00,2.63
5461.00,2.63
5460.00,2.63
5459.00,2.63
5458.00,2.63
5457.00,2.63
5456.00,2.63
5455.00,2.63
5454.00,2.63
5453.00,2.63
5452.00,2.63
5451.00,2.64
5450.00,2.64
5449.00,2.64
5448.00,2.64
5447.00,2.64
5446.00,2.64
5445.00,2.64
5444.00,2.64
5443.00,2.64
5442.00,2.64
5441.00,2.64
5440.00,2.64
5439.00,2.64
5438.00,2.64
5437.00,2.64
5436.00,2.64
5435.00,2.65
5434.00,2.65
5433.00,2.65
5432.00,2.65
5431.00,2.65
5430.00,2.65
5429.00,2.65
5428.00,2.65
5427.00,2.65
5426.00,2.66
5425.00,2.66
5424.00,2.66
5423.00,2.66
5422.00,2.66
5421.00,2.66
5420.00,2.66
5419.00,2.66
5418.00,2.66
5417.00,2.66
5416.00,2.65
5415.00,2.65
5414.00,2.65
5413.00,2.65
5412.00,2.65
5411.00,2.65
5410.00,2.64
5409.00,2.64
5408.00,2.64
5407.00,2.64
5406.00,2.63
5405.00,2.63
5404.00,2.63
5403.00,2.62
5402.00,2.62
5401.00,2.61
5400.00,2.61
5399.00,2.61
5398.00,2.60
5397.00,2.60
5396.00,2.59
5395.00,2.59
5394.00,2.58
5393.00,2.57
5392.00,2.57
5391.00,2.56
5390.00,2.56
5389.00,2.55
5388.00,2.55
5387.00,2.55
5386.00,2.54
5385.00,2.54
5384.00,2.53
5383.00,2.53
5382.00,2.53
5381.00,2.53
5380.00,2.52
5379.00,2.52
5378.00,2.52
5377.00,2.52
5376.00,2.52
5375.00,2.51
5374.00,2.51
5373.00,2.51
5372.00,2.51
5371.00,2.51
5370.00,2.50
5369.00,2.50
5368.00,2.50
5367.00,2.50
5366.00,2.49
5365.00,2.49
5364.00,2.49
5363.00,2.48
5362.00,2.48
5361.00,2.47
5360.00,2.47
5359.00,2.46
5358.00,2.46
5357.00,2.45
5356.00,2.44
5355.00,2.43
5354.00,2.43
5353.00,2.42
5352.00,2.41
5351.00,2.39
5350.00,2.38
5349.00,2.37
5348.00,2.36
5347.00,2.35
5346.00,2.33
5345.00,2.32
5344.00,2.31
5343.00,2.30
5342.00,2.28
5341.00,2.27
5340.00,2.26
5339.00,2.25
5338.00,2.24
5337.00,2.22
5336.00,2.21
5335.00,2.20
5334.00,2.19
5333.00,2.18
5332.00,2.17
5331.00,2.16
5330.00,2.14
5329.00,2.13
5328.00,2.12
5327.00,2.11
5326.00,2.10
5325.00,2.09
5324.00,2.07
5323.00,2.06
5322.00,2.05
5321.00,2.04
5320.00,2.03
5319.00,2.02
5318.00,2.01
5317.00,2.00
5316.00,1.99
5315.00,1.98
5314.00,1.96
5313.00,1.95
5312.00,1.94
5311.00,1.93
5310.00,1.91
5309.00,1.90
5308.00,1.88
5307.00,1.87
5306.00,1.85
5305.00,1.84
5304.00,1.82
5303.00,1.81
5302.00,1.79
5301.00,1.77
5300.00,1.76
5299.00,1.74
5298.00,1.73
5297.00,1.71
5296.00,1.70
5295.00,1.68
5294.00,1.67
5293.00,1.65
5292.00,1.64
5291.00,1.62
5290.00,1.60
5289.00,1.59
5288.00,1.57
5287.00,1.56
5286.00,1.55
5285.00,1.53
5284.00,1.52
5283.00,1.51
5282.00,1.49
5281.00,1.48
5280.00,1.47
5279.00,1.46
5278.00,1.45
5277.00,1.45
5276.00,1.44
5275.00,1.43
5274.00,1.42
5273.00,1.41
5272.00,1.41
5271.00,1.40
5270.00,1.39
5269.00,1.38
5268.00,1.38
5267.00,1.37
5266.00,1.37
5265.00,1.36
5264.00,1.35
5263.00,1.35
5262.00,1.34
5261.00,1.34
5260.00,1.33
5259.00,1.33
5258.00,1.32
5257.00,1.32
5256.00,1.31
5255.00,1.31
5254.00,1.30
5253.00,1.30
5252.00,1.29
5251.00,1.28
5250.00,1.28
5249.00,1.27
5248.00,1.27
5247.00,1.26
5246.00,1.26
5245.00,1.25
5244.00,1.25
5243.00,1.24
5242.00,1.24
5241.00,1.23
5240.00,1.23
5239.00,1.22
5238.00,1.22
5237.00,1.21
5236.00,1.21
5235.00,1.21
5234.00,1.20
5233.00,1.20
5232.00,1.20
5231.00,1.20
5230.00,1.19
5229.00,1.19
5228.00,1.19
5227.00,1.19
5226.00,1.19
5225.00,1.19
5224.00,1.19
5223.00,1.19
5222.00,1.19
5221.00,1.19
5220.00,1.19
5219.00,1.19
5218.00,1.19
5217.00,1.19
5216.00,1.20
5215.00,1.20
5214.00,1.20
5213.00,1.20
5212.00,1.20
5211.00,1.20
5210.00,1.20
5209.00,1.21
5208.00,1.21
5207.00,1.21
5206.00,1.21
5205.00,1.21
5204.00,1.21
5203.00,1.21
5202.00,1.21
5201.00,1.21
5200.00,1.21
5199.00,1.21
5198.00,1.21
5197.00,1.21
5196.00,1.21
5195.00,1.21
5194.00,1.21
5193.00,1.21
5192.00,1.21
5191.00,1.21
5190.00,1.21
5189.00,1.21
5188.00,1.21
5187.00,1.21
5186.00,1.21
5185.00,1.21
5184.00,1.21
5183.00,1.21
5182.00,1.21
5181.00,1.21
5180.00,1.21
5179.00,1.21
5178.00,1.20
5177.00,1.20
5176.00,1.20
5175.00,1.20
5174.00,1.20
5173.00,1.20
5172.00,1.20
5171.00,1.20
5170.00,1.19
5169.00,1.19
5168.00,1.19
5167.00,1.19
5166.00,1.19
5165.00,1.19
5164.00,1.19
5163.00,1.19
5162.00,1.19
5161.00,1.19
5160.00,1.19
5159.00,1.19
5158.00,1.19
5157.00,1.19
5156.00,1.19
5155.00,1.19
5154.00,1.19
5153.00,1.19
5152.00,1.19
5151.00,1.19
5150.00,1.20
5149.00,1.20
5148.00,1.20
5147.00,1.20
5146.00,1.21
5145.00,1.21
5144.00,1.21
5143.00,1.21
5142.00,1.21
5141.00,1.21
5140.00,1.21
5139.00,1.21
5138.00,1.21
5137.00,1.21
5136.00,1.21
5135.00,1.21
5134.00,1.21
5133.00,1.21
5132.00,1.21
5131.00,1.21
5130.00,1.21
5129.00,1.21
5128.00,1.21
5127.00,1.21
5126.00,1.20
5125.00,1.20
5124.00,1.20
5123.00,1.20
5122.00,1.20
5121.00,1.20
5120.00,1.20
5119.00,1.19
5118.00,1.19
5117.00,1.19
5116.00,1.19
5115.00,1.19
5114.00,1.20
5113.00,1.20
5112.00,1.20
5111.00,1.20
5110.00,1.20
5109.00,1.20
5108.00,1.21
5107.00,1.21
5106.00,1.21
5105.00,1.21
5104.00,1.21
5103.00,1.22
5102.00,1.22
5101.00,1.22
5100.00,1.22
5099.00,1.23
5098.00,1.23
5097.00,1.23
5096.00,1.24
5095.00,1.24
5094.00,1.25
5093.00,1.25
5092.00,1.26
5091.00,1.26
5090.00,1.27
5089.00,1.27
5088.00,1.28
5087.00,1.28
5086.00,1.29
5085.00,1.29
5084.00,1.30
5083.00,1.30
5082.00,1.31
5081.00,1.31
5080.00,1.31
5079.00,1.32
5078.00,1.32
5077.00,1.33
5076.00,1.33
5075.00,1.34
5074.00,1.34
5073.00,1.35
5072.00,1.35
5071.00,1.35
5070.00,1.36
5069.00,1.36
5068.00,1.36
5067.00,1.36
5066.00,1.37
5065.00,1.37
5064.00,1.37
5063.00,1.37
5062.00,1.37
5061.00,1.37
5060.00,1.38
5059.00,1.38
5058.00,1.38
5057.00,1.38
5056.00,1.38
5055.00,1.39
5054.00,1.39
5053.00,1.39
5052.00,1.40
5051.00,1.40
5050.00,1.40
5049.00,1.40
5048.00,1.41
5047.00,1.41
5046.00,1.41
5045.00,1.41
5044.00,1.42
5043.00,1.42
5042.00,1.42
5041.00,1.43
5040.00,1.43
5039.00,1.44
5038.00,1.44
5037.00,1.45
5036.00,1.45
5035.00,1.46
5034.00,1.46
5033.00,1.47
5032.00,1.47
5031.00,1.47
5030.00,1.48
5029.00,1.48
5028.00,1.49
5027.00,1.49
5026.00,1.50
5025.00,1.50
5024.00,1.51
5023.00,1.51
5022.00,1.52
5021.00,1.52
5020.00,1.53
5019.00,1.53
5018.00,1.54
5017.00,1.54
5016.00,1.55
5015.00,1.55
5014.00,1.55
5013.00,1.56
5012.00,1.56
5011.00,1.57
5010.00,1.57
5009.00,1.57
5008.00,1.57
5007.00,1.58
5006.00,1.58
5005.00,1.58
5004.00,1.58
5003.00,1.59
5002.00,1.59
5001.00,1.59
5000.00,1.59
4999.00,1.59
4998.00,1.59
4997.00,1.59
4996.00,1.59
4995.00,1.59
4994.00,1.60
4993.00,1.60
4992.00,1.60
4991.00,1.60
4990.00,1.60
4989.00,1.60
4988.00,1.60
4987.00,1.60
4986.00,1.61
4985.00,1.61
4984.00,1.61
4983.00,1.61
4982.00,1.61
4981.00,1.62
4980.00,1.62
4979.00,1.62
4978.00,1.62
4977.00,1.62
4976.00,1.63
4975.00,1.63
4974.00,1.64
4973.00,1.64
4972.00,1.64
4971.00,1.65
4970.00,1.65
4969.00,1.66
4968.00,1.66
4967.00,1.66
4966.00,1.66
4965.00,1.67
4964.00,1.67
4963.00,1.67
4962.00,1.68
4961.00,1.68
4960.00,1.68
4959.00,1.69
4958.00,1.69
4957.00,1.69
4956.00,1.70
4955.00,1.70
4954.00,1.70
4953.00,1.70
4952.00,1.71
4951.00,1.71
4950.00,1.71
4949.00,1.71
4948.00,1.72
4947.00,1.72
4946.00,1.72
4945.00,1.72
4944.00,1.72
4943.00,1.72
4942.00,1.73
4941.00,1.73
4940.00,1.73
4939.00,1.74
4938.00,1.74
4937.00,1.74
4936.00,1.75
4935.00,1.75
4934.00,1.76
4933.00,1.76
4932.00,1.76
4931.00,1.77
4930.00,1.77
4929.00,1.78
4928.00,1.78
4927.00,1.78
4926.00,1.79
4925.00,1.79
4924.00,1.80
4923.00,1.80
4922.00,1.80
4921.00,1.81
4920.00,1.82
4919.00,1.82
4918.00,1.83
4917.00,1.83
4916.00,1.84
4915.00,1.85
4914.00,1.85
4913.00,1.86
4912.00,1.86
4911.00,1.87
4910.00,1.87
4909.00,1.88
4908.00,1.88
4907.00,1.89
4906.00,1.89
4905.00,1.89
4904.00,1.90
4903.00,1.90
4902.00,1.91
4901.00,1.91
4900.00,1.91
4899.00,1.92
4898.00,1.92
4897.00,1.92
4896.00,1.93
4895.00,1.93
4894.00,1.93
4893.00,1.93
4892.00,1.94
4891.00,1.94
4890.00,1.94
4889.00,1.94
4888.00,1.94
4887.00,1.95
4886.00,1.95
4885.00,1.95
4884.00,1.95
4883.00,1.96
4882.00,1.96
4881.00,1.97
4880.00,1.97
4879.00,1.97
4878.00,1.98
4877.00,1.98
4876.00,1.99
4875.00,1.99
4874.00,2.00
4873.00,2.00
4872.00,2.01
4871.00,2.01
4870.00,2.01
4869.00,2.02
4868.00,2.02
4867.00,2.02
4866.00,2.02
4865.00,2.03
4864.00,2.03
4863.00,2.03
4862.00,2.04
4861.00,2.04
4860.00,2.04
4859.00,2.04
4858.00,2.04
4857.00,2.04
4856.00,2.04
4855.00,2.04
4854.00,2.04
4853.00,2.04
4852.00,2.04
4851.00,2.04
4850.00,2.05
4849.00,2.04
4848.00,2.04
4847.00,2.04
4846.00,2.04
4845.00,2.04
4844.00,2.04
4843.00,2.04
4842.00,2.05
4841.00,2.05
4840.00,2.05
4839.00,2.05
4838.00,2.05
4837.00,2.05
4836.00,2.05
4835.00,2.05
4834.00,2.05
4833.00,2.05
4832.00,2.05
4831.00,2.06
4830.00,2.06
4829.00,2.06
4828.00,2.06
4827.00,2.06
4826.00,2.06
4825.00,2.06
4824.00,2.06
4823.00,2.06
4822.00,2.07
4821.00,2.07
4820.00,2.07
4819.00,2.07
4818.00,2.07
4817.00,2.07
4816.00,2.08
4815.00,2.08
4814.00,2.08
4813.00,2.09
4812.00,2.09
4811.00,2.09
4810.00,2.10
4809.00,2.10
4808.00,2.10
4807.00,2.10
4806.00,2.11
4805.00,2.11
4804.00,2.11
4803.00,2.11
4802.00,2.12
4801.00,2.12
4800.00,2.12
4799.00,2.13
4798.00,2.13
4797.00,2.13
4796.00,2.14
4795.00,2.14
4794.00,2.14
4793.00,2.15
4792.00,2.15
4791.00,2.16
4790.00,2.16
4789.00,2.16
4788.00,2.16
4787.00,2.17
4786.00,2.17
4785.00,2.17
4784.00,2.17
4783.00,2.18
4782.00,2.18
4781.00,2.18
4780.00,2.19
4779.00,2.19
4778.00,2.20
4777.00,2.21
4776.00,2.21
4775.00,2.22
4774.00,2.23
4773.00,2.23
4772.00,2.24
4771.00,2.25
4770.00,2.25
4769.00,2.26
4768.00,2.26
4767.00,2.27
4766.00,2.27
4765.00,2.28
4764.00,2.28
4763.00,2.29
4762.00,2.29
4761.00,2.30
4760.00,2.30
4759.00,2.30
4758.00,2.31
4757.00,2.31
4756.00,2.31
4755.00,2.31
4754.00,2.32
4753.00,2.32
4752.00,2.32
4751.00,2.32
4750.00,2.32
4749.00,2.32
4748.00,2.32
4747.00,2.32
4746.00,2.32
4745.00,2.33
4744.00,2.33
4743.00,2.33
4742.00,2.33
4741.00,2.33
4740.00,2.34
4739.00,2.34
4738.00,2.34
4737.00,2.35
4736.00,2.35
4735.00,2.35
4734.00,2.36
4733.00,2.37
4732.00,2.37
4731.00,2.38
4730.00,2.38
4729.00,2.39
4728.00,2.39
4727.00,2.39
4726.00,2.40
4725.00,2.40
4724.00,2.41
4723.00,2.41
4722.00,2.41
4721.00,2.42
4720.00,2.42
4719.00,2.43
4718.00,2.43
4717.00,2.43
4716.00,2.43
4715.00,2.43
4714.00,2.43
4713.00,2.43
4712.00,2.43
4711.00,2.43
4710.00,2.43
4709.00,2.43
4708.00,2.43
4707.00,2.43
4706.00,2.43
4705.00,2.43
4704.00,2.43
4703.00,2.43
4702.00,2.43
4701.00,2.43
4700.00,2.43
4699.00,2.43
4698.00,2.43
4697.00,2.44
4696.00,2.44
4695.00,2.44
4694.00,2.44
4693.00,2.44
4692.00,2.44
4691.00,2.44
4690.00,2.44
4689.00,2.44
4688.00,2.44
4687.00,2.45
4686.00,2.45
4685.00,2.45
4684.00,2.45
4683.00,2.45
4682.00,2.45
4681.00,2.45
4680.00,2.45
4679.00,2.45
4678.00,2.45
4677.00,2.45
4676.00,2.45
4675.00,2.45
4674.00,2.45
4673.00,2.45
4672.00,2.45
4671.00,2.45
4670.00,2.45
4669.00,2.45
4668.00,2.45
4667.00,2.45
4666.00,2.45
4665.00,2.45
4664.00,2.45
4663.00,2.45
4662.00,2.45
4661.00,2.46
4660.00,2.46
4659.00,2.46
4658.00,2.46
4657.00,2.46
4656.00,2.47
4655.00,2.47
4654.00,2.47
4653.00,2.47
4652.00,2.47
4651.00,2.48
4650.00,2.48
4649.00,2.48
4648.00,2.48
4647.00,2.48
4646.00,2.48
4645.00,2.48
4644.00,2.48
4643.00,2.48
4642.00,2.48
4641.00,2.48
4640.00,2.48
4639.00,2.48
4638.00,2.48
4637.00,2.48
4636.00,2.48
4635.00,2.48
4634.00,2.48
4633.00,2.48
4632.00,2.48
4631.00,2.48
4630.00,2.48
4629.00,2.48
4628.00,2.49
4627.00,2.49
4626.00,2.49
4625.00,2.50
4624.00,2.50
4623.00,2.51
4622.00,2.51
4621.00,2.52
4620.00,2.52
4619.00,2.53
4618.00,2.53
4617.00,2.54
4616.00,2.54
4615.00,2.55
4614.00,2.56
4613.00,2.56
4612.00,2.57
4611.00,2.57
4610.00,2.58
4609.00,2.58
4608.00,2.58
4607.00,2.58
4606.00,2.59
4605.00,2.59
4604.00,2.59
4603.00,2.59
4602.00,2.59
4601.00,2.59
4600.00,2.59
4599.00,2.59
4598.00,2.59
4597.00,2.59
4596.00,2.58
4595.00,2.58
4594.00,2.58
4593.00,2.58
4592.00,2.57
4591.00,2.57
4590.00,2.57
4589.00,2.56
4588.00,2.56
4587.00,2.56
4586.00,2.55
4585.00,2.55
4584.00,2.55
4583.00,2.55
4582.00,2.55
4581.00,2.55
4580.00,2.55
4579.00,2.56
4578.00,2.56
4577.00,2.56
4576.00,2.56
4575.00,2.56
4574.00,2.57
4573.00,2.57
4572.00,2.57
4571.00,2.57
4570.00,2.58
4569.00,2.58
4568.00,2.59
4567.00,2.59
4566.00,2.59
4565.00,2.60
4564.00,2.60
4563.00,2.61
4562.00,2.61
4561.00,2.61
4560.00,2.62
4559.00,2.62
4558.00,2.62
4557.00,2.62
4556.00,2.62
4555.00,2.62
4554.00,2.62
4553.00,2.62
4552.00,2.62
4551.00,2.62
4550.00,2.62
4549.00,2.62
4548.00,2.62
4547.00,2.61
4546.00,2.61
4545.00,2.61
4544.00,2.61
4543.00,2.61
4542.00,2.61
4541.00,2.60
4540.00,2.60
4539.00,2.60
4538.00,2.60
4537.00,2.60
4536.00,2.60
4535.00,2.60
4534.00,2.60
4533.00,2.60
4532.00,2.60
4531.00,2.60
4530.00,2.60
4529.00,2.60
4528.00,2.61
4527.00,2.61
4526.00,2.61
4525.00,2.62
4524.00,2.62
4523.00,2.62
4522.00,2.63
4521.00,2.63
4520.00,2.63
4519.00,2.63
4518.00,2.64
4517.00,2.64
4516.00,2.64
4515.00,2.64
4514.00,2.64
4513.00,2.64
4512.00,2.64
4511.00,2.64
4510.00,2.64
4509.00,2.64
4508.00,2.64
4507.00,2.64
4506.00,2.64
4505.00,2.64
4504.00,2.64
4503.00,2.64
4502.00,2.64
4501.00,2.63
4500.00,2.63
4499.00,2.63
4498.00,2.63
4497.00,2.63
4496.00,2.63
4495.00,2.63
4494.00,2.62
4493.00,2.62
4492.00,2.62
4491.00,2.62
4490.00,2.62
4489.00,2.62
4488.00,2.62
4487.00,2.62
4486.00,2.62
4485.00,2.62
4484.00,2.62
4483.00,2.62
4482.00,2.62
4481.00,2.62
4480.00,2.62
4479.00,2.62
4478.00,2.62
4477.00,2.61
4476.00,2.61
4475.00,2.61
4474.00,2.61
4473.00,2.61
4472.00,2.61
4471.00,2.61
4470.00,2.60
4469.00,2.60
4468.00,2.60
4467.00,2.60
4466.00,2.59
4465.00,2.59
4464.00,2.58
4463.00,2.58
4462.00,2.58
4461.00,2.57
4460.00,2.57
4459.00,2.56
4458.00,2.56
4457.00,2.55
4456.00,2.55
4455.00,2.54
4454.00,2.54
4453.00,2.53
4452.00,2.52
4451.00,2.52
4450.00,2.51
4449.00,2.50
4448.00,2.50
4447.00,2.49
4446.00,2.48
4445.00,2.47
4444.00,2.46
4443.00,2.45
4442.00,2.44
4441.00,2.43
4440.00,2.42
4439.00,2.41
4438.00,2.40
4437.00,2.40
4436.00,2.39
4435.00,2.37
4434.00,2.36
4433.00,2.35
4432.00,2.34
4431.00,2.33
4430.00,2.32
4429.00,2.31
4428.00,2.30
4427.00,2.29
4426.00,2.28
4425.00,2.27
4424.00,2.26
4423.00,2.26
4422.00,2.25
4421.00,2.24
4420.00,2.24
4419.00,2.23
4418.00,2.23
4417.00,2.22
4416.00,2.22
4415.00,2.21
4414.00,2.21
4413.00,2.21
4412.00,2.21
4411.00,2.20
4410.00,2.20
4409.00,2.20
4408.00,2.20
4407.00,2.20
4406.00,2.21
4405.00,2.21
4404.00,2.21
4403.00,2.22
4402.00,2.22
4401.00,2.23
4400.00,2.23
4399.00,2.24
4398.00,2.24
4397.00,2.25
4396.00,2.26
4395.00,2.26
4394.00,2.27
4393.00,2.28
4392.00,2.28
4391.00,2.29
4390.00,2.29
4389.00,2.30
4388.00,2.30
4387.00,2.31
4386.00,2.31
4385.00,2.32
4384.00,2.32
4383.00,2.33
4382.00,2.33
4381.00,2.33
4380.00,2.34
4379.00,2.34
4378.00,2.34
4377.00,2.34
4376.00,2.34
4375.00,2.34
4374.00,2.33
4373.00,2.33
4372.00,2.33
4371.00,2.32
4370.00,2.32
4369.00,2.31
4368.00,2.31
4367.00,2.30
4366.00,2.30
4365.00,2.29
4364.00,2.29
4363.00,2.28
4362.00,2.28
4361.00,2.27
4360.00,2.27
4359.00,2.26
4358.00,2.26
4357.00,2.26
4356.00,2.25
4355.00,2.25
4354.00,2.25
4353.00,2.24
4352.00,2.24
4351.00,2.24
4350.00,2.24
4349.00,2.24
4348.00,2.24
4347.00,2.25
4346.00,2.25
4345.00,2.25
4344.00,2.25
4343.00,2.26
4342.00,2.26
4341.00,2.27
4340.00,2.27
4339.00,2.27
4338.00,2.28
4337.00,2.28
4336.00,2.28
4335.00,2.29
4334.00,2.29
4333.00,2.29
4332.00,2.30
4331.00,2.30
4330.00,2.31
4329.00,2.31
4328.00,2.31
4327.00,2.32
4326.00,2.32
4325.00,2.33
4324.00,2.33
4323.00,2.34
4322.00,2.34
4321.00,2.35
4320.00,2.35
4319.00,2.36
4318.00,2.37
4317.00,2.37
4316.00,2.38
4315.00,2.39
4314.00,2.40
4313.00,2.40
4312.00,2.41
4311.00,2.42
4310.00,2.43
4309.00,2.44
4308.00,2.45
4307.00,2.46
4306.00,2.46
4305.00,2.47
4304.00,2.48
4303.00,2.49
4302.00,2.49
4301.00,2.50
4300.00,2.51
4299.00,2.52
4298.00,2.52
4297.00,2.53
4296.00,2.53
4295.00,2.54
4294.00,2.54
4293.00,2.55
4292.00,2.55
4291.00,2.55
4290.00,2.55
4289.00,2.55
4288.00,2.55
4287.00,2.55
4286.00,2.55
4285.00,2.55
4284.00,2.55
4283.00,2.55
4282.00,2.55
4281.00,2.55
4280.00,2.54
4279.00,2.54
4278.00,2.54
4277.00,2.54
4276.00,2.54
4275.00,2.54
4274.00,2.54
4273.00,2.54
4272.00,2.53
4271.00,2.53
4270.00,2.53
4269.00,2.53
4268.00,2.52
4267.00,2.52
4266.00,2.52
4265.00,2.52
4264.00,2.52
4263.00,2.51
4262.00,2.51
4261.00,2.51
4260.00,2.51
4259.00,2.51
4258.00,2.51
4257.00,2.51
4256.00,2.51
4255.00,2.51
4254.00,2.51
4253.00,2.51
4252.00,2.50
4251.00,2.50
4250.00,2.50
4249.00,2.50
4248.00,2.50
4247.00,2.50
4246.00,2.50
4245.00,2.50
4244.00,2.50
4243.00,2.50
4242.00,2.50
4241.00,2.50
4240.00,2.50
4239.00,2.50
4238.00,2.50
4237.00,2.50
4236.00,2.50
4235.00,2.50
4234.00,2.50
4233.00,2.50
4232.00,2.50
4231.00,2.50
4230.00,2.50
4229.00,2.50
4228.00,2.50
4227.00,2.50
4226.00,2.50
4225.00,2.51
4224.00,2.51
4223.00,2.51
4222.00,2.51
4221.00,2.51
4220.00,2.51
4219.00,2.51
4218.00,2.51
4217.00,2.51
4216.00,2.51
4215.00,2.51
4214.00,2.51
4213.00,2.51
4212.00,2.51
4211.00,2.52
4210.00,2.52
4209.00,2.52
4208.00,2.53
4207.00,2.53
4206.00,2.54
4205.00,2.54
4204.00,2.55
4203.00,2.55
4202.00,2.55
4201.00,2.55
4200.00,2.55
4199.00,2.55
4198.00,2.56
4197.00,2.56
4196.00,2.56
4195.00,2.56
4194.00,2.56
4193.00,2.56
4192.00,2.56
4191.00,2.57
4190.00,2.57
4189.00,2.57
4188.00,2.57
4187.00,2.56
4186.00,2.56
4185.00,2.56
4184.00,2.55
4183.00,2.55
4182.00,2.54
4181.00,2.54
4180.00,2.53
4179.00,2.53
4178.00,2.52
4177.00,2.52
4176.00,2.51
4175.00,2.51
4174.00,2.50
4173.00,2.50
4172.00,2.49
4171.00,2.49
4170.00,2.48
4169.00,2.48
4168.00,2.47
4167.00,2.46
4166.00,2.46
4165.00,2.45
4164.00,2.45
4163.00,2.44
4162.00,2.44
4161.00,2.43
4160.00,2.42
4159.00,2.42
4158.00,2.41
4157.00,2.41
4156.00,2.40
4155.00,2.39
4154.00,2.39
4153.00,2.38
4152.00,2.38
4151.00,2.37
4150.00,2.37
4149.00,2.36
4148.00,2.36
4147.00,2.36
4146.00,2.35
4145.00,2.35
4144.00,2.35
4143.00,2.35
4142.00,2.35
4141.00,2.35
4140.00,2.35
4139.00,2.35
4138.00,2.34
4137.00,2.34
4136.00,2.34
4135.00,2.34
4134.00,2.34
4133.00,2.35
4132.00,2.35
4131.00,2.35
4130.00,2.35
4129.00,2.35
4128.00,2.35
4127.00,2.36
4126.00,2.36
4125.00,2.36
4124.00,2.36
4123.00,2.36
4122.00,2.36
4121.00,2.36
4120.00,2.37
4119.00,2.37
4118.00,2.37
4117.00,2.37
4116.00,2.36
4115.00,2.36
4114.00,2.36
4113.00,2.36
4112.00,2.36
4111.00,2.36
4110.00,2.36
4109.00,2.36
4108.00,2.36
4107.00,2.36
4106.00,2.37
4105.00,2.37
4104.00,2.37
4103.00,2.38
4102.00,2.38
4101.00,2.38
4100.00,2.39
4099.00,2.39
4098.00,2.39
4097.00,2.40
4096.00,2.40
4095.00,2.40
4094.00,2.40
4093.00,2.39
4092.00,2.39
4091.00,2.39
4090.00,2.39
4089.00,2.39
4088.00,2.39
4087.00,2.39
4086.00,2.39
4085.00,2.39
4084.00,2.39
4083.00,2.39
4082.00,2.38
4081.00,2.38
4080.00,2.37
4079.00,2.36
4078.00,2.36
4077.00,2.35
4076.00,2.34
4075.00,2.33
4074.00,2.32
4073.00,2.32
4072.00,2.31
4071.00,2.30
4070.00,2.30
4069.00,2.29
4068.00,2.29
4067.00,2.28
4066.00,2.28
4065.00,2.27
4064.00,2.26
4063.00,2.26
4062.00,2.25
4061.00,2.24
4060.00,2.24
4059.00,2.23
4058.00,2.23
4057.00,2.23
4056.00,2.22
4055.00,2.22
4054.00,2.22
4053.00,2.22
4052.00,2.22
4051.00,2.22
4050.00,2.22
4049.00,2.22
4048.00,2.22
4047.00,2.22
4046.00,2.22
4045.00,2.23
4044.00,2.23
4043.00,2.24
4042.00,2.25
4041.00,2.26
4040.00,2.27
4039.00,2.28
4038.00,2.29
4037.00,2.30
4036.00,2.31
4035.00,2.32
4034.00,2.33
4033.00,2.34
4032.00,2.34
4031.00,2.35
4030.00,2.35
4029.00,2.35
4028.00,2.36
4027.00,2.36
4026.00,2.36
4025.00,2.37
4024.00,2.38
4023.00,2.38
4022.00,2.39
4021.00,2.40
4020.00,2.41
4019.00,2.42
4018.00,2.42
4017.00,2.43
4016.00,2.44
4015.00,2.45
4014.00,2.47
4013.00,2.48
4012.00,2.50
4011.00,2.51
4010.00,2.53
4009.00,2.56
4008.00,2.58
4007.00,2.61
4006.00,2.63
4005.00,2.67
4004.00,2.70
4003.00,2.74
4002.00,2.77
4001.00,2.81
4000.00,2.85
