创建为新数据集,样品 1035 用户 Administrator 日期 星期二, 七月 30 2019
cm-1,%T
10000.00,2.54
9999.00,2.51
9998.00,2.49
9997.00,2.47
9996.00,2.45
9995.00,2.43
9994.00,2.41
9993.00,2.40
9992.00,2.39
9991.00,2.38
9990.00,2.36
9989.00,2.35
9988.00,2.33
9987.00,2.32
9986.00,2.30
9985.00,2.28
9984.00,2.26
9983.00,2.23
9982.00,2.21
9981.00,2.19
9980.00,2.17
9979.00,2.15
9978.00,2.13
9977.00,2.12
9976.00,2.11
9975.00,2.10
9974.00,2.10
9973.00,2.11
9972.00,2.11
9971.00,2.11
9970.00,2.12
9969.00,2.13
9968.00,2.13
9967.00,2.14
9966.00,2.15
9965.00,2.15
9964.00,2.15
9963.00,2.16
9962.00,2.16
9961.00,2.17
9960.00,2.17
9959.00,2.18
9958.00,2.19
9957.00,2.20
9956.00,2.21
9955.00,2.22
9954.00,2.23
9953.00,2.24
9952.00,2.24
9951.00,2.25
9950.00,2.25
9949.00,2.25
9948.00,2.24
9947.00,2.23
9946.00,2.21
9945.00,2.19
9944.00,2.17
9943.00,2.14
9942.00,2.12
9941.00,2.09
9940.00,2.06
9939.00,2.03
9938.00,2.00
9937.00,1.97
9936.00,1.95
9935.00,1.92
9934.00,1.89
9933.00,1.87
9932.00,1.84
9931.00,1.81
9930.00,1.78
9929.00,1.75
9928.00,1.72
9927.00,1.69
9926.00,1.66
9925.00,1.62
9924.00,1.59
9923.00,1.56
9922.00,1.54
9921.00,1.51
9920.00,1.49
9919.00,1.48
9918.00,1.47
9917.00,1.46
9916.00,1.45
9915.00,1.45
9914.00,1.45
9913.00,1.45
9912.00,1.45
9911.00,1.45
9910.00,1.46
9909.00,1.47
9908.00,1.47
9907.00,1.48
9906.00,1.50
9905.00,1.51
9904.00,1.53
9903.00,1.55
9902.00,1.57
9901.00,1.59
9900.00,1.61
9899.00,1.64
9898.00,1.66
9897.00,1.69
9896.00,1.71
9895.00,1.73
9894.00,1.76
9893.00,1.78
9892.00,1.80
9891.00,1.82
9890.00,1.83
9889.00,1.85
9888.00,1.86
9887.00,1.87
9886.00,1.88
9885.00,1.89
9884.00,1.89
9883.00,1.90
9882.00,1.91
9881.00,1.91
9880.00,1.92
9879.00,1.93
9878.00,1.94
9877.00,1.95
9876.00,1.96
9875.00,1.97
9874.00,1.98
9873.00,1.99
9872.00,2.01
9871.00,2.02
9870.00,2.03
9869.00,2.05
9868.00,2.06
9867.00,2.08
9866.00,2.09
9865.00,2.11
9864.00,2.13
9863.00,2.14
9862.00,2.16
9861.00,2.17
9860.00,2.19
9859.00,2.20
9858.00,2.22
9857.00,2.23
9856.00,2.23
9855.00,2.24
9854.00,2.24
9853.00,2.23
9852.00,2.22
9851.00,2.21
9850.00,2.20
9849.00,2.18
9848.00,2.16
9847.00,2.14
9846.00,2.11
9845.00,2.09
9844.00,2.06
9843.00,2.03
9842.00,2.00
9841.00,1.97
9840.00,1.93
9839.00,1.90
9838.00,1.86
9837.00,1.83
9836.00,1.79
9835.00,1.76
9834.00,1.72
9833.00,1.69
9832.00,1.66
9831.00,1.63
9830.00,1.61
9829.00,1.59
9828.00,1.57
9827.00,1.55
9826.00,1.54
9825.00,1.53
9824.00,1.52
9823.00,1.52
9822.00,1.52
9821.00,1.51
9820.00,1.52
9819.00,1.52
9818.00,1.52
9817.00,1.52
9816.00,1.53
9815.00,1.53
9814.00,1.54
9813.00,1.54
9812.00,1.55
9811.00,1.56
9810.00,1.57
9809.00,1.57
9808.00,1.58
9807.00,1.58
9806.00,1.59
9805.00,1.59
9804.00,1.60
9803.00,1.60
9802.00,1.60
9801.00,1.60
9800.00,1.60
9799.00,1.60
9798.00,1.59
9797.00,1.59
9796.00,1.59
9795.00,1.59
9794.00,1.58
9793.00,1.58
9792.00,1.57
9791.00,1.57
9790.00,1.56
9789.00,1.56
9788.00,1.55
9787.00,1.54
9786.00,1.53
9785.00,1.53
9784.00,1.52
9783.00,1.51
9782.00,1.50
9781.00,1.49
9780.00,1.49
9779.00,1.48
9778.00,1.48
9777.00,1.48
9776.00,1.48
9775.00,1.48
9774.00,1.48
9773.00,1.48
9772.00,1.47
9771.00,1.47
9770.00,1.47
9769.00,1.47
9768.00,1.47
9767.00,1.47
9766.00,1.47
9765.00,1.47
9764.00,1.48
9763.00,1.48
9762.00,1.48
9761.00,1.48
9760.00,1.48
9759.00,1.48
9758.00,1.48
9757.00,1.48
9756.00,1.48
9755.00,1.47
9754.00,1.47
9753.00,1.46
9752.00,1.44
9751.00,1.43
9750.00,1.41
9749.00,1.39
9748.00,1.37
9747.00,1.35
9746.00,1.33
9745.00,1.30
9744.00,1.28
9743.00,1.25
9742.00,1.23
9741.00,1.20
9740.00,1.18
9739.00,1.15
9738.00,1.13
9737.00,1.11
9736.00,1.09
9735.00,1.07
9734.00,1.05
9733.00,1.04
9732.00,1.03
9731.00,1.02
9730.00,1.01
9729.00,1.01
9728.00,1.00
9727.00,1.00
9726.00,1.00
9725.00,1.00
9724.00,1.01
9723.00,1.01
9722.00,1.01
9721.00,1.02
9720.00,1.02
9719.00,1.03
9718.00,1.04
9717.00,1.04
9716.00,1.05
9715.00,1.05
9714.00,1.06
9713.00,1.06
9712.00,1.07
9711.00,1.07
9710.00,1.06
9709.00,1.06
9708.00,1.05
9707.00,1.05
9706.00,1.04
9705.00,1.03
9704.00,1.02
9703.00,1.01
9702.00,1.00
9701.00,0.99
9700.00,0.99
9699.00,0.98
9698.00,0.98
9697.00,0.97
9696.00,0.97
9695.00,0.97
9694.00,0.98
9693.00,0.98
9692.00,0.98
9691.00,0.99
9690.00,1.00
9689.00,1.00
9688.00,1.01
9687.00,1.02
9686.00,1.04
9685.00,1.05
9684.00,1.07
9683.00,1.09
9682.00,1.11
9681.00,1.14
9680.00,1.17
9679.00,1.20
9678.00,1.23
9677.00,1.26
9676.00,1.29
9675.00,1.32
9674.00,1.35
9673.00,1.37
9672.00,1.39
9671.00,1.41
9670.00,1.42
9669.00,1.44
9668.00,1.45
9667.00,1.47
9666.00,1.49
9665.00,1.50
9664.00,1.52
9663.00,1.54
9662.00,1.55
9661.00,1.57
9660.00,1.59
9659.00,1.60
9658.00,1.61
9657.00,1.62
9656.00,1.63
9655.00,1.63
9654.00,1.63
9653.00,1.62
9652.00,1.62
9651.00,1.61
9650.00,1.60
9649.00,1.59
9648.00,1.58
9647.00,1.57
9646.00,1.56
9645.00,1.56
9644.00,1.55
9643.00,1.55
9642.00,1.54
9641.00,1.53
9640.00,1.52
9639.00,1.51
9638.00,1.49
9637.00,1.47
9636.00,1.44
9635.00,1.42
9634.00,1.39
9633.00,1.36
9632.00,1.33
9631.00,1.31
9630.00,1.28
9629.00,1.26
9628.00,1.24
9627.00,1.22
9626.00,1.21
9625.00,1.20
9624.00,1.19
9623.00,1.18
9622.00,1.18
9621.00,1.18
9620.00,1.18
9619.00,1.18
9618.00,1.18
9617.00,1.19
9616.00,1.20
9615.00,1.21
9614.00,1.22
9613.00,1.24
9612.00,1.26
9611.00,1.29
9610.00,1.31
9609.00,1.35
9608.00,1.38
9607.00,1.41
9606.00,1.45
9605.00,1.48
9604.00,1.51
9603.00,1.54
9602.00,1.57
9601.00,1.60
9600.00,1.62
9599.00,1.64
9598.00,1.65
9597.00,1.66
9596.00,1.66
9595.00,1.67
9594.00,1.67
9593.00,1.66
9592.00,1.66
9591.00,1.65
9590.00,1.63
9589.00,1.62
9588.00,1.60
9587.00,1.58
9586.00,1.56
9585.00,1.53
9584.00,1.51
9583.00,1.48
9582.00,1.46
9581.00,1.43
9580.00,1.40
9579.00,1.37
9578.00,1.35
9577.00,1.32
9576.00,1.30
9575.00,1.28
9574.00,1.26
9573.00,1.24
9572.00,1.23
9571.00,1.23
9570.00,1.23
9569.00,1.23
9568.00,1.24
9567.00,1.25
9566.00,1.27
9565.00,1.28
9564.00,1.30
9563.00,1.33
9562.00,1.35
9561.00,1.37
9560.00,1.40
9559.00,1.42
9558.00,1.45
9557.00,1.47
9556.00,1.50
9555.00,1.52
9554.00,1.54
9553.00,1.56
9552.00,1.58
9551.00,1.60
9550.00,1.61
9549.00,1.63
9548.00,1.64
9547.00,1.65
9546.00,1.66
9545.00,1.66
9544.00,1.66
9543.00,1.66
9542.00,1.65
9541.00,1.64
9540.00,1.63
9539.00,1.62
9538.00,1.60
9537.00,1.59
9536.00,1.57
9535.00,1.55
9534.00,1.53
9533.00,1.51
9532.00,1.50
9531.00,1.48
9530.00,1.46
9529.00,1.45
9528.00,1.44
9527.00,1.44
9526.00,1.43
9525.00,1.43
9524.00,1.44
9523.00,1.44
9522.00,1.45
9521.00,1.47
9520.00,1.48
9519.00,1.50
9518.00,1.51
9517.00,1.53
9516.00,1.55
9515.00,1.56
9514.00,1.58
9513.00,1.60
9512.00,1.62
9511.00,1.64
9510.00,1.65
9509.00,1.67
9508.00,1.69
9507.00,1.70
9506.00,1.72
9505.00,1.74
9504.00,1.75
9503.00,1.76
9502.00,1.77
9501.00,1.77
9500.00,1.77
9499.00,1.76
9498.00,1.75
9497.00,1.73
9496.00,1.72
9495.00,1.69
9494.00,1.67
9493.00,1.64
9492.00,1.61
9491.00,1.58
9490.00,1.55
9489.00,1.53
9488.00,1.50
9487.00,1.47
9486.00,1.45
9485.00,1.42
9484.00,1.40
9483.00,1.37
9482.00,1.35
9481.00,1.32
9480.00,1.30
9479.00,1.28
9478.00,1.26
9477.00,1.25
9476.00,1.24
9475.00,1.23
9474.00,1.23
9473.00,1.23
9472.00,1.23
9471.00,1.24
9470.00,1.24
9469.00,1.26
9468.00,1.27
9467.00,1.29
9466.00,1.30
9465.00,1.32
9464.00,1.34
9463.00,1.35
9462.00,1.37
9461.00,1.39
9460.00,1.41
9459.00,1.43
9458.00,1.45
9457.00,1.47
9456.00,1.49
9455.00,1.52
9454.00,1.54
9453.00,1.56
9452.00,1.57
9451.00,1.59
9450.00,1.60
9449.00,1.61
9448.00,1.62
9447.00,1.62
9446.00,1.62
9445.00,1.62
9444.00,1.62
9443.00,1.62
9442.00,1.61
9441.00,1.60
9440.00,1.59
9439.00,1.59
9438.00,1.58
9437.00,1.57
9436.00,1.56
9435.00,1.55
9434.00,1.53
9433.00,1.52
9432.00,1.51
9431.00,1.49
9430.00,1.47
9429.00,1.45
9428.00,1.43
9427.00,1.41
9426.00,1.39
9425.00,1.37
9424.00,1.34
9423.00,1.32
9422.00,1.30
9421.00,1.28
9420.00,1.27
9419.00,1.25
9418.00,1.23
9417.00,1.22
9416.00,1.21
9415.00,1.20
9414.00,1.19
9413.00,1.18
9412.00,1.18
9411.00,1.17
9410.00,1.17
9409.00,1.17
9408.00,1.17
9407.00,1.18
9406.00,1.18
9405.00,1.19
9404.00,1.20
9403.00,1.22
9402.00,1.23
9401.00,1.25
9400.00,1.27
9399.00,1.29
9398.00,1.31
9397.00,1.34
9396.00,1.36
9395.00,1.38
9394.00,1.41
9393.00,1.43
9392.00,1.46
9391.00,1.48
9390.00,1.51
9389.00,1.53
9388.00,1.56
9387.00,1.58
9386.00,1.60
9385.00,1.62
9384.00,1.64
9383.00,1.66
9382.00,1.67
9381.00,1.68
9380.00,1.69
9379.00,1.70
9378.00,1.70
9377.00,1.70
9376.00,1.71
9375.00,1.71
9374.00,1.70
9373.00,1.70
9372.00,1.69
9371.00,1.68
9370.00,1.68
9369.00,1.67
9368.00,1.65
9367.00,1.64
9366.00,1.63
9365.00,1.61
9364.00,1.59
9363.00,1.58
9362.00,1.56
9361.00,1.54
9360.00,1.52
9359.00,1.50
9358.00,1.48
9357.00,1.46
9356.00,1.44
9355.00,1.43
9354.00,1.41
9353.00,1.40
9352.00,1.39
9351.00,1.38
9350.00,1.37
9349.00,1.36
9348.00,1.35
9347.00,1.35
9346.00,1.35
9345.00,1.36
9344.00,1.37
9343.00,1.38
9342.00,1.39
9341.00,1.40
9340.00,1.42
9339.00,1.44
9338.00,1.46
9337.00,1.48
9336.00,1.50
9335.00,1.52
9334.00,1.54
9333.00,1.56
9332.00,1.58
9331.00,1.60
9330.00,1.62
9329.00,1.63
9328.00,1.64
9327.00,1.65
9326.00,1.66
9325.00,1.67
9324.00,1.67
9323.00,1.67
9322.00,1.67
9321.00,1.67
9320.00,1.67
9319.00,1.66
9318.00,1.65
9317.00,1.63
9316.00,1.62
9315.00,1.60
9314.00,1.59
9313.00,1.57
9312.00,1.55
9311.00,1.53
9310.00,1.50
9309.00,1.48
9308.00,1.46
9307.00,1.43
9306.00,1.41
9305.00,1.39
9304.00,1.37
9303.00,1.35
9302.00,1.33
9301.00,1.31
9300.00,1.30
9299.00,1.29
9298.00,1.28
9297.00,1.26
9296.00,1.25
9295.00,1.24
9294.00,1.23
9293.00,1.22
9292.00,1.21
9291.00,1.20
9290.00,1.18
9289.00,1.17
9288.00,1.16
9287.00,1.15
9286.00,1.15
9285.00,1.14
9284.00,1.14
9283.00,1.14
9282.00,1.14
9281.00,1.15
9280.00,1.15
9279.00,1.17
9278.00,1.18
9277.00,1.19
9276.00,1.21
9275.00,1.22
9274.00,1.24
9273.00,1.26
9272.00,1.28
9271.00,1.30
9270.00,1.32
9269.00,1.34
9268.00,1.36
9267.00,1.38
9266.00,1.41
9265.00,1.44
9264.00,1.46
9263.00,1.49
9262.00,1.52
9261.00,1.54
9260.00,1.56
9259.00,1.58
9258.00,1.59
9257.00,1.61
9256.00,1.61
9255.00,1.62
9254.00,1.62
9253.00,1.62
9252.00,1.61
9251.00,1.61
9250.00,1.60
9249.00,1.60
9248.00,1.59
9247.00,1.59
9246.00,1.58
9245.00,1.57
9244.00,1.57
9243.00,1.56
9242.00,1.55
9241.00,1.54
9240.00,1.52
9239.00,1.51
9238.00,1.49
9237.00,1.48
9236.00,1.46
9235.00,1.45
9234.00,1.43
9233.00,1.42
9232.00,1.41
9231.00,1.40
9230.00,1.39
9229.00,1.39
9228.00,1.39
9227.00,1.39
9226.00,1.38
9225.00,1.38
9224.00,1.38
9223.00,1.37
9222.00,1.36
9221.00,1.35
9220.00,1.34
9219.00,1.33
9218.00,1.32
9217.00,1.30
9216.00,1.29
9215.00,1.28
9214.00,1.27
9213.00,1.26
9212.00,1.26
9211.00,1.25
9210.00,1.25
9209.00,1.25
9208.00,1.24
9207.00,1.24
9206.00,1.24
9205.00,1.24
9204.00,1.24
9203.00,1.24
9202.00,1.24
9201.00,1.24
9200.00,1.24
9199.00,1.24
9198.00,1.24
9197.00,1.24
9196.00,1.25
9195.00,1.25
9194.00,1.26
9193.00,1.27
9192.00,1.27
9191.00,1.28
9190.00,1.29
9189.00,1.30
9188.00,1.31
9187.00,1.31
9186.00,1.32
9185.00,1.32
9184.00,1.32
9183.00,1.32
9182.00,1.32
9181.00,1.32
9180.00,1.31
9179.00,1.31
9178.00,1.31
9177.00,1.30
9176.00,1.30
9175.00,1.30
9174.00,1.30
9173.00,1.29
9172.00,1.29
9171.00,1.29
9170.00,1.29
9169.00,1.29
9168.00,1.29
9167.00,1.29
9166.00,1.29
9165.00,1.29
9164.00,1.29
9163.00,1.30
9162.00,1.30
9161.00,1.31
9160.00,1.32
9159.00,1.33
9158.00,1.34
9157.00,1.36
9156.00,1.37
9155.00,1.38
9154.00,1.40
9153.00,1.41
9152.00,1.42
9151.00,1.43
9150.00,1.45
9149.00,1.46
9148.00,1.47
9147.00,1.49
9146.00,1.50
9145.00,1.52
9144.00,1.53
9143.00,1.54
9142.00,1.56
9141.00,1.57
9140.00,1.58
9139.00,1.58
9138.00,1.59
9137.00,1.59
9136.00,1.59
9135.00,1.59
9134.00,1.59
9133.00,1.59
9132.00,1.59
9131.00,1.59
9130.00,1.59
9129.00,1.59
9128.00,1.59
9127.00,1.59
9126.00,1.59
9125.00,1.59
9124.00,1.59
9123.00,1.59
9122.00,1.58
9121.00,1.58
9120.00,1.57
9119.00,1.57
9118.00,1.56
9117.00,1.55
9116.00,1.54
9115.00,1.53
9114.00,1.53
9113.00,1.52
9112.00,1.52
9111.00,1.51
9110.00,1.51
9109.00,1.51
9108.00,1.50
9107.00,1.50
9106.00,1.49
9105.00,1.49
9104.00,1.48
9103.00,1.48
9102.00,1.47
9101.00,1.46
9100.00,1.46
9099.00,1.45
9098.00,1.44
9097.00,1.44
9096.00,1.43
9095.00,1.43
9094.00,1.42
9093.00,1.42
9092.00,1.42
9091.00,1.41
9090.00,1.41
9089.00,1.41
9088.00,1.41
9087.00,1.41
9086.00,1.41
9085.00,1.41
9084.00,1.41
9083.00,1.41
9082.00,1.41
9081.00,1.41
9080.00,1.41
9079.00,1.42
9078.00,1.42
9077.00,1.43
9076.00,1.43
9075.00,1.44
9074.00,1.44
9073.00,1.44
9072.00,1.44
9071.00,1.44
9070.00,1.44
9069.00,1.44
9068.00,1.45
9067.00,1.45
9066.00,1.45
9065.00,1.45
9064.00,1.45
9063.00,1.45
9062.00,1.44
9061.00,1.44
9060.00,1.44
9059.00,1.43
9058.00,1.43
9057.00,1.42
9056.00,1.41
9055.00,1.40
9054.00,1.39
9053.00,1.38
9052.00,1.37
9051.00,1.36
9050.00,1.35
9049.00,1.34
9048.00,1.33
9047.00,1.32
9046.00,1.32
9045.00,1.31
9044.00,1.30
9043.00,1.29
9042.00,1.28
9041.00,1.27
9040.00,1.26
9039.00,1.25
9038.00,1.24
9037.00,1.23
9036.00,1.22
9035.00,1.21
9034.00,1.20
9033.00,1.19
9032.00,1.19
9031.00,1.19
9030.00,1.18
9029.00,1.18
9028.00,1.19
9027.00,1.19
9026.00,1.19
9025.00,1.19
9024.00,1.19
9023.00,1.19
9022.00,1.19
9021.00,1.20
9020.00,1.20
9019.00,1.20
9018.00,1.21
9017.00,1.21
9016.00,1.22
9015.00,1.23
9014.00,1.24
9013.00,1.25
9012.00,1.26
9011.00,1.27
9010.00,1.29
9009.00,1.30
9008.00,1.31
9007.00,1.32
9006.00,1.32
9005.00,1.33
9004.00,1.34
9003.00,1.34
9002.00,1.35
9001.00,1.35
9000.00,1.36
8999.00,1.37
8998.00,1.37
8997.00,1.38
8996.00,1.39
8995.00,1.39
8994.00,1.40
8993.00,1.40
8992.00,1.41
8991.00,1.41
8990.00,1.42
8989.00,1.42
8988.00,1.43
8987.00,1.44
8986.00,1.44
8985.00,1.45
8984.00,1.46
8983.00,1.47
8982.00,1.48
8981.00,1.49
8980.00,1.50
8979.00,1.51
8978.00,1.52
8977.00,1.54
8976.00,1.55
8975.00,1.55
8974.00,1.56
8973.00,1.57
8972.00,1.58
8971.00,1.58
8970.00,1.59
8969.00,1.59
8968.00,1.60
8967.00,1.60
8966.00,1.61
8965.00,1.61
8964.00,1.61
8963.00,1.61
8962.00,1.61
8961.00,1.61
8960.00,1.60
8959.00,1.60
8958.00,1.59
8957.00,1.58
8956.00,1.57
8955.00,1.56
8954.00,1.55
8953.00,1.54
8952.00,1.53
8951.00,1.52
8950.00,1.51
8949.00,1.50
8948.00,1.50
8947.00,1.50
8946.00,1.50
8945.00,1.49
8944.00,1.49
8943.00,1.49
8942.00,1.49
8941.00,1.49
8940.00,1.49
8939.00,1.49
8938.00,1.49
8937.00,1.49
8936.00,1.49
8935.00,1.50
8934.00,1.51
8933.00,1.52
8932.00,1.53
8931.00,1.54
8930.00,1.55
8929.00,1.57
8928.00,1.58
8927.00,1.59
8926.00,1.61
8925.00,1.62
8924.00,1.63
8923.00,1.64
8922.00,1.65
8921.00,1.66
8920.00,1.66
8919.00,1.66
8918.00,1.67
8917.00,1.67
8916.00,1.67
8915.00,1.67
8914.00,1.68
8913.00,1.68
8912.00,1.69
8911.00,1.69
8910.00,1.70
8909.00,1.70
8908.00,1.71
8907.00,1.71
8906.00,1.71
8905.00,1.72
8904.00,1.72
8903.00,1.71
8902.00,1.71
8901.00,1.71
8900.00,1.71
8899.00,1.71
8898.00,1.71
8897.00,1.71
8896.00,1.71
8895.00,1.71
8894.00,1.71
8893.00,1.71
8892.00,1.71
8891.00,1.71
8890.00,1.71
8889.00,1.71
8888.00,1.71
8887.00,1.71
8886.00,1.70
8885.00,1.70
8884.00,1.69
8883.00,1.68
8882.00,1.67
8881.00,1.66
8880.00,1.65
8879.00,1.65
8878.00,1.64
8877.00,1.63
8876.00,1.62
8875.00,1.62
8874.00,1.61
8873.00,1.60
8872.00,1.60
8871.00,1.60
8870.00,1.59
8869.00,1.59
8868.00,1.59
8867.00,1.60
8866.00,1.60
8865.00,1.61
8864.00,1.61
8863.00,1.62
8862.00,1.63
8861.00,1.64
8860.00,1.65
8859.00,1.66
8858.00,1.67
8857.00,1.68
8856.00,1.70
8855.00,1.71
8854.00,1.73
8853.00,1.75
8852.00,1.76
8851.00,1.78
8850.00,1.79
8849.00,1.80
8848.00,1.81
8847.00,1.82
8846.00,1.83
8845.00,1.83
8844.00,1.83
8843.00,1.84
8842.00,1.83
8841.00,1.83
8840.00,1.83
8839.00,1.82
8838.00,1.82
8837.00,1.81
8836.00,1.80
8835.00,1.79
8834.00,1.78
8833.00,1.76
8832.00,1.75
8831.00,1.73
8830.00,1.71
8829.00,1.69
8828.00,1.67
8827.00,1.65
8826.00,1.63
8825.00,1.60
8824.00,1.58
8823.00,1.56
8822.00,1.54
8821.00,1.53
8820.00,1.51
8819.00,1.49
8818.00,1.48
8817.00,1.46
8816.00,1.45
8815.00,1.44
8814.00,1.43
8813.00,1.41
8812.00,1.40
8811.00,1.39
8810.00,1.38
8809.00,1.37
8808.00,1.37
8807.00,1.36
8806.00,1.36
8805.00,1.36
8804.00,1.37
8803.00,1.37
8802.00,1.38
8801.00,1.38
8800.00,1.39
8799.00,1.39
8798.00,1.40
8797.00,1.41
8796.00,1.42
8795.00,1.42
8794.00,1.43
8793.00,1.44
8792.00,1.45
8791.00,1.46
8790.00,1.47
8789.00,1.48
8788.00,1.49
8787.00,1.50
8786.00,1.51
8785.00,1.53
8784.00,1.54
8783.00,1.55
8782.00,1.56
8781.00,1.58
8780.00,1.59
8779.00,1.59
8778.00,1.60
8777.00,1.60
8776.00,1.61
8775.00,1.61
8774.00,1.61
8773.00,1.61
8772.00,1.62
8771.00,1.62
8770.00,1.62
8769.00,1.63
8768.00,1.63
8767.00,1.64
8766.00,1.64
8765.00,1.65
8764.00,1.66
8763.00,1.66
8762.00,1.67
8761.00,1.67
8760.00,1.68
8759.00,1.68
8758.00,1.68
8757.00,1.68
8756.00,1.68
8755.00,1.68
8754.00,1.67
8753.00,1.67
8752.00,1.67
8751.00,1.66
8750.00,1.66
8749.00,1.66
8748.00,1.66
8747.00,1.66
8746.00,1.65
8745.00,1.65
8744.00,1.65
8743.00,1.65
8742.00,1.65
8741.00,1.65
8740.00,1.65
8739.00,1.64
8738.00,1.64
8737.00,1.63
8736.00,1.62
8735.00,1.61
8734.00,1.60
8733.00,1.59
8732.00,1.58
8731.00,1.57
8730.00,1.57
8729.00,1.56
8728.00,1.55
8727.00,1.55
8726.00,1.54
8725.00,1.54
8724.00,1.54
8723.00,1.53
8722.00,1.53
8721.00,1.52
8720.00,1.52
8719.00,1.51
8718.00,1.50
8717.00,1.49
8716.00,1.49
8715.00,1.48
8714.00,1.47
8713.00,1.46
8712.00,1.45
8711.00,1.44
8710.00,1.44
8709.00,1.43
8708.00,1.43
8707.00,1.42
8706.00,1.42
8705.00,1.42
8704.00,1.42
8703.00,1.42
8702.00,1.42
8701.00,1.42
8700.00,1.42
8699.00,1.43
8698.00,1.43
8697.00,1.43
8696.00,1.44
8695.00,1.45
8694.00,1.45
8693.00,1.46
8692.00,1.47
8691.00,1.48
8690.00,1.49
8689.00,1.49
8688.00,1.50
8687.00,1.51
8686.00,1.52
8685.00,1.52
8684.00,1.53
8683.00,1.53
8682.00,1.54
8681.00,1.54
8680.00,1.54
8679.00,1.54
8678.00,1.54
8677.00,1.54
8676.00,1.54
8675.00,1.54
8674.00,1.54
8673.00,1.54
8672.00,1.54
8671.00,1.54
8670.00,1.54
8669.00,1.53
8668.00,1.53
8667.00,1.52
8666.00,1.51
8665.00,1.50
8664.00,1.50
8663.00,1.49
8662.00,1.48
8661.00,1.48
8660.00,1.47
8659.00,1.47
8658.00,1.48
8657.00,1.48
8656.00,1.49
8655.00,1.50
8654.00,1.51
8653.00,1.52
8652.00,1.54
8651.00,1.55
8650.00,1.57
8649.00,1.59
8648.00,1.61
8647.00,1.63
8646.00,1.64
8645.00,1.66
8644.00,1.68
8643.00,1.70
8642.00,1.72
8641.00,1.75
8640.00,1.77
8639.00,1.79
8638.00,1.81
8637.00,1.83
8636.00,1.85
8635.00,1.87
8634.00,1.89
8633.00,1.90
8632.00,1.91
8631.00,1.92
8630.00,1.92
8629.00,1.92
8628.00,1.91
8627.00,1.91
8626.00,1.89
8625.00,1.88
8624.00,1.87
8623.00,1.85
8622.00,1.83
8621.00,1.82
8620.00,1.80
8619.00,1.78
8618.00,1.75
8617.00,1.73
8616.00,1.71
8615.00,1.69
8614.00,1.66
8613.00,1.63
8612.00,1.61
8611.00,1.58
8610.00,1.55
8609.00,1.52
8608.00,1.49
8607.00,1.47
8606.00,1.44
8605.00,1.42
8604.00,1.40
8603.00,1.39
8602.00,1.37
8601.00,1.36
8600.00,1.35
8599.00,1.34
8598.00,1.33
8597.00,1.33
8596.00,1.32
8595.00,1.31
8594.00,1.31
8593.00,1.30
8592.00,1.30
8591.00,1.29
8590.00,1.29
8589.00,1.28
8588.00,1.28
8587.00,1.28
8586.00,1.28
8585.00,1.29
8584.00,1.30
8583.00,1.31
8582.00,1.32
8581.00,1.33
8580.00,1.34
8579.00,1.35
8578.00,1.36
8577.00,1.37
8576.00,1.38
8575.00,1.39
8574.00,1.40
8573.00,1.40
8572.00,1.41
8571.00,1.42
8570.00,1.43
8569.00,1.43
8568.00,1.44
8567.00,1.45
8566.00,1.46
8565.00,1.47
8564.00,1.48
8563.00,1.49
8562.00,1.50
8561.00,1.51
8560.00,1.52
8559.00,1.53
8558.00,1.53
8557.00,1.54
8556.00,1.55
8555.00,1.56
8554.00,1.57
8553.00,1.58
8552.00,1.59
8551.00,1.60
8550.00,1.61
8549.00,1.63
8548.00,1.64
8547.00,1.65
8546.00,1.66
8545.00,1.67
8544.00,1.68
8543.00,1.69
8542.00,1.70
8541.00,1.70
8540.00,1.71
8539.00,1.72
8538.00,1.72
8537.00,1.73
8536.00,1.74
8535.00,1.74
8534.00,1.74
8533.00,1.74
8532.00,1.74
8531.00,1.74
8530.00,1.73
8529.00,1.72
8528.00,1.71
8527.00,1.70
8526.00,1.69
8525.00,1.67
8524.00,1.66
8523.00,1.64
8522.00,1.62
8521.00,1.61
8520.00,1.59
8519.00,1.57
8518.00,1.56
8517.00,1.54
8516.00,1.52
8515.00,1.51
8514.00,1.49
8513.00,1.48
8512.00,1.46
8511.00,1.45
8510.00,1.43
8509.00,1.42
8508.00,1.41
8507.00,1.40
8506.00,1.39
8505.00,1.39
8504.00,1.38
8503.00,1.38
8502.00,1.38
8501.00,1.38
8500.00,1.38
8499.00,1.38
8498.00,1.39
8497.00,1.40
8496.00,1.40
8495.00,1.41
8494.00,1.42
8493.00,1.42
8492.00,1.43
8491.00,1.43
8490.00,1.44
8489.00,1.44
8488.00,1.44
8487.00,1.45
8486.00,1.45
8485.00,1.45
8484.00,1.45
8483.00,1.44
8482.00,1.44
8481.00,1.43
8480.00,1.43
8479.00,1.42
8478.00,1.42
8477.00,1.41
8476.00,1.40
8475.00,1.39
8474.00,1.39
8473.00,1.37
8472.00,1.36
8471.00,1.35
8470.00,1.34
8469.00,1.32
8468.00,1.31
8467.00,1.30
8466.00,1.29
8465.00,1.28
8464.00,1.27
8463.00,1.26
8462.00,1.26
8461.00,1.26
8460.00,1.27
8459.00,1.27
8458.00,1.28
8457.00,1.29
8456.00,1.30
8455.00,1.31
8454.00,1.32
8453.00,1.34
8452.00,1.35
8451.00,1.37
8450.00,1.38
8449.00,1.40
8448.00,1.42
8447.00,1.44
8446.00,1.46
8445.00,1.48
8444.00,1.51
8443.00,1.53
8442.00,1.56
8441.00,1.59
8440.00,1.62
8439.00,1.64
8438.00,1.67
8437.00,1.69
8436.00,1.71
8435.00,1.73
8434.00,1.74
8433.00,1.76
8432.00,1.77
8431.00,1.78
8430.00,1.79
8429.00,1.80
8428.00,1.80
8427.00,1.81
8426.00,1.81
8425.00,1.82
8424.00,1.82
8423.00,1.81
8422.00,1.81
8421.00,1.80
8420.00,1.79
8419.00,1.78
8418.00,1.76
8417.00,1.74
8416.00,1.72
8415.00,1.70
8414.00,1.68
8413.00,1.66
8412.00,1.64
8411.00,1.61
8410.00,1.59
8409.00,1.57
8408.00,1.55
8407.00,1.53
8406.00,1.51
8405.00,1.49
8404.00,1.47
8403.00,1.45
8402.00,1.43
8401.00,1.41
8400.00,1.39
8399.00,1.38
8398.00,1.36
8397.00,1.35
8396.00,1.34
8395.00,1.34
8394.00,1.33
8393.00,1.33
8392.00,1.33
8391.00,1.33
8390.00,1.33
8389.00,1.34
8388.00,1.34
8387.00,1.35
8386.00,1.36
8385.00,1.37
8384.00,1.38
8383.00,1.39
8382.00,1.40
8381.00,1.41
8380.00,1.42
8379.00,1.43
8378.00,1.45
8377.00,1.46
8376.00,1.48
8375.00,1.50
8374.00,1.52
8373.00,1.53
8372.00,1.55
8371.00,1.57
8370.00,1.58
8369.00,1.60
8368.00,1.61
8367.00,1.63
8366.00,1.64
8365.00,1.65
8364.00,1.66
8363.00,1.67
8362.00,1.68
8361.00,1.69
8360.00,1.70
8359.00,1.71
8358.00,1.72
8357.00,1.73
8356.00,1.74
8355.00,1.74
8354.00,1.75
8353.00,1.75
8352.00,1.75
8351.00,1.76
8350.00,1.76
8349.00,1.76
8348.00,1.76
8347.00,1.75
8346.00,1.75
8345.00,1.75
8344.00,1.74
8343.00,1.74
8342.00,1.74
8341.00,1.73
8340.00,1.73
8339.00,1.72
8338.00,1.72
8337.00,1.71
8336.00,1.70
8335.00,1.70
8334.00,1.69
8333.00,1.68
8332.00,1.67
8331.00,1.66
8330.00,1.64
8329.00,1.63
8328.00,1.62
8327.00,1.60
8326.00,1.59
8325.00,1.57
8324.00,1.56
8323.00,1.54
8322.00,1.53
8321.00,1.52
8320.00,1.51
8319.00,1.49
8318.00,1.48
8317.00,1.47
8316.00,1.46
8315.00,1.46
8314.00,1.45
8313.00,1.44
8312.00,1.44
8311.00,1.43
8310.00,1.43
8309.00,1.43
8308.00,1.43
8307.00,1.43
8306.00,1.43
8305.00,1.44
8304.00,1.45
8303.00,1.46
8302.00,1.48
8301.00,1.50
8300.00,1.52
8299.00,1.54
8298.00,1.56
8297.00,1.58
8296.00,1.60
8295.00,1.62
8294.00,1.65
8293.00,1.67
8292.00,1.69
8291.00,1.71
8290.00,1.73
8289.00,1.75
8288.00,1.77
8287.00,1.79
8286.00,1.81
8285.00,1.83
8284.00,1.85
8283.00,1.86
8282.00,1.87
8281.00,1.89
8280.00,1.90
8279.00,1.90
8278.00,1.90
8277.00,1.90
8276.00,1.90
8275.00,1.90
8274.00,1.89
8273.00,1.88
8272.00,1.86
8271.00,1.85
8270.00,1.83
8269.00,1.82
8268.00,1.80
8267.00,1.78
8266.00,1.77
8265.00,1.75
8264.00,1.73
8263.00,1.71
8262.00,1.69
8261.00,1.67
8260.00,1.65
8259.00,1.63
8258.00,1.61
8257.00,1.60
8256.00,1.58
8255.00,1.56
8254.00,1.54
8253.00,1.53
8252.00,1.51
8251.00,1.50
8250.00,1.49
8249.00,1.48
8248.00,1.48
8247.00,1.47
8246.00,1.47
8245.00,1.47
8244.00,1.47
8243.00,1.47
8242.00,1.47
8241.00,1.47
8240.00,1.48
8239.00,1.48
8238.00,1.48
8237.00,1.48
8236.00,1.48
8235.00,1.49
8234.00,1.49
8233.00,1.49
8232.00,1.50
8231.00,1.50
8230.00,1.50
8229.00,1.51
8228.00,1.51
8227.00,1.52
8226.00,1.52
8225.00,1.52
8224.00,1.53
8223.00,1.53
8222.00,1.53
8221.00,1.54
8220.00,1.54
8219.00,1.54
8218.00,1.55
8217.00,1.55
8216.00,1.55
8215.00,1.56
8214.00,1.57
8213.00,1.57
8212.00,1.58
8211.00,1.59
8210.00,1.59
8209.00,1.60
8208.00,1.61
8207.00,1.62
8206.00,1.63
8205.00,1.64
8204.00,1.65
8203.00,1.66
8202.00,1.67
8201.00,1.68
8200.00,1.69
8199.00,1.71
8198.00,1.72
8197.00,1.73
8196.00,1.75
8195.00,1.76
8194.00,1.78
8193.00,1.79
8192.00,1.80
8191.00,1.81
8190.00,1.82
8189.00,1.83
8188.00,1.83
8187.00,1.83
8186.00,1.84
8185.00,1.84
8184.00,1.84
8183.00,1.84
8182.00,1.84
8181.00,1.84
8180.00,1.83
8179.00,1.83
8178.00,1.83
8177.00,1.82
8176.00,1.81
8175.00,1.81
8174.00,1.80
8173.00,1.79
8172.00,1.78
8171.00,1.77
8170.00,1.75
8169.00,1.74
8168.00,1.72
8167.00,1.71
8166.00,1.69
8165.00,1.68
8164.00,1.67
8163.00,1.65
8162.00,1.64
8161.00,1.64
8160.00,1.63
8159.00,1.62
8158.00,1.62
8157.00,1.62
8156.00,1.62
8155.00,1.62
8154.00,1.62
8153.00,1.62
8152.00,1.62
8151.00,1.63
8150.00,1.64
8149.00,1.64
8148.00,1.65
8147.00,1.66
8146.00,1.66
8145.00,1.67
8144.00,1.68
8143.00,1.69
8142.00,1.70
8141.00,1.72
8140.00,1.73
8139.00,1.74
8138.00,1.76
8137.00,1.77
8136.00,1.78
8135.00,1.79
8134.00,1.80
8133.00,1.81
8132.00,1.81
8131.00,1.82
8130.00,1.83
8129.00,1.83
8128.00,1.84
8127.00,1.84
8126.00,1.84
8125.00,1.84
8124.00,1.84
8123.00,1.83
8122.00,1.83
8121.00,1.83
8120.00,1.83
8119.00,1.83
8118.00,1.82
8117.00,1.82
8116.00,1.82
8115.00,1.81
8114.00,1.81
8113.00,1.80
8112.00,1.80
8111.00,1.80
8110.00,1.79
8109.00,1.79
8108.00,1.78
8107.00,1.78
8106.00,1.77
8105.00,1.77
8104.00,1.76
8103.00,1.76
8102.00,1.75
8101.00,1.75
8100.00,1.74
8099.00,1.74
8098.00,1.74
8097.00,1.74
8096.00,1.74
8095.00,1.74
8094.00,1.74
8093.00,1.73
8092.00,1.73
8091.00,1.74
8090.00,1.74
8089.00,1.74
8088.00,1.74
8087.00,1.74
8086.00,1.74
8085.00,1.74
8084.00,1.75
8083.00,1.75
8082.00,1.76
8081.00,1.76
8080.00,1.77
8079.00,1.78
8078.00,1.79
8077.00,1.80
8076.00,1.81
8075.00,1.82
8074.00,1.83
8073.00,1.83
8072.00,1.84
8071.00,1.85
8070.00,1.85
8069.00,1.86
8068.00,1.86
8067.00,1.86
8066.00,1.86
8065.00,1.87
8064.00,1.87
8063.00,1.87
8062.00,1.86
8061.00,1.86
8060.00,1.86
8059.00,1.85
8058.00,1.85
8057.00,1.84
8056.00,1.83
8055.00,1.82
8054.00,1.81
8053.00,1.80
8052.00,1.78
8051.00,1.76
8050.00,1.74
8049.00,1.72
8048.00,1.71
8047.00,1.69
8046.00,1.67
8045.00,1.65
8044.00,1.64
8043.00,1.62
8042.00,1.61
8041.00,1.59
8040.00,1.58
8039.00,1.56
8038.00,1.55
8037.00,1.54
8036.00,1.52
8035.00,1.51
8034.00,1.50
8033.00,1.49
8032.00,1.48
8031.00,1.47
8030.00,1.46
8029.00,1.46
8028.00,1.46
8027.00,1.46
8026.00,1.46
8025.00,1.47
8024.00,1.48
8023.00,1.49
8022.00,1.50
8021.00,1.51
8020.00,1.52
8019.00,1.53
8018.00,1.53
8017.00,1.54
8016.00,1.55
8015.00,1.55
8014.00,1.56
8013.00,1.57
8012.00,1.57
8011.00,1.58
8010.00,1.59
8009.00,1.60
8008.00,1.61
8007.00,1.62
8006.00,1.63
8005.00,1.64
8004.00,1.64
8003.00,1.65
8002.00,1.65
8001.00,1.65
8000.00,1.65
7999.00,1.65
7998.00,1.64
7997.00,1.63
7996.00,1.62
7995.00,1.61
7994.00,1.61
7993.00,1.60
7992.00,1.59
7991.00,1.59
7990.00,1.58
7989.00,1.58
7988.00,1.58
7987.00,1.58
7986.00,1.58
7985.00,1.58
7984.00,1.58
7983.00,1.57
7982.00,1.57
7981.00,1.57
7980.00,1.56
7979.00,1.56
7978.00,1.56
7977.00,1.55
7976.00,1.55
7975.00,1.55
7974.00,1.55
7973.00,1.56
7972.00,1.56
7971.00,1.57
7970.00,1.58
7969.00,1.58
7968.00,1.59
7967.00,1.60
7966.00,1.61
7965.00,1.62
7964.00,1.63
7963.00,1.63
7962.00,1.64
7961.00,1.65
7960.00,1.66
7959.00,1.66
7958.00,1.67
7957.00,1.67
7956.00,1.68
7955.00,1.69
7954.00,1.69
7953.00,1.70
7952.00,1.71
7951.00,1.71
7950.00,1.72
7949.00,1.73
7948.00,1.73
7947.00,1.73
7946.00,1.74
7945.00,1.74
7944.00,1.74
7943.00,1.74
7942.00,1.73
7941.00,1.73
7940.00,1.73
7939.00,1.72
7938.00,1.71
7937.00,1.71
7936.00,1.70
7935.00,1.69
7934.00,1.69
7933.00,1.68
7932.00,1.67
7931.00,1.67
7930.00,1.67
7929.00,1.66
7928.00,1.66
7927.00,1.65
7926.00,1.65
7925.00,1.65
7924.00,1.64
7923.00,1.64
7922.00,1.64
7921.00,1.63
7920.00,1.63
7919.00,1.62
7918.00,1.62
7917.00,1.62
7916.00,1.61
7915.00,1.61
7914.00,1.61
7913.00,1.60
7912.00,1.60
7911.00,1.60
7910.00,1.60
7909.00,1.60
7908.00,1.60
7907.00,1.60
7906.00,1.60
7905.00,1.59
7904.00,1.59
7903.00,1.58
7902.00,1.57
7901.00,1.57
7900.00,1.56
7899.00,1.55
7898.00,1.54
7897.00,1.54
7896.00,1.53
7895.00,1.53
7894.00,1.53
7893.00,1.53
7892.00,1.54
7891.00,1.54
7890.00,1.55
7889.00,1.55
7888.00,1.56
7887.00,1.56
7886.00,1.57
7885.00,1.58
7884.00,1.58
7883.00,1.59
7882.00,1.59
7881.00,1.60
7880.00,1.60
7879.00,1.61
7878.00,1.61
7877.00,1.62
7876.00,1.63
7875.00,1.63
7874.00,1.64
7873.00,1.65
7872.00,1.66
7871.00,1.67
7870.00,1.67
7869.00,1.68
7868.00,1.68
7867.00,1.68
7866.00,1.68
7865.00,1.68
7864.00,1.68
7863.00,1.68
7862.00,1.68
7861.00,1.68
7860.00,1.68
7859.00,1.68
7858.00,1.68
7857.00,1.68
7856.00,1.68
7855.00,1.69
7854.00,1.69
7853.00,1.70
7852.00,1.70
7851.00,1.71
7850.00,1.72
7849.00,1.73
7848.00,1.74
7847.00,1.75
7846.00,1.76
7845.00,1.77
7844.00,1.78
7843.00,1.79
7842.00,1.80
7841.00,1.81
7840.00,1.82
7839.00,1.83
7838.00,1.84
7837.00,1.85
7836.00,1.86
7835.00,1.87
7834.00,1.88
7833.00,1.89
7832.00,1.91
7831.00,1.92
7830.00,1.93
7829.00,1.93
7828.00,1.94
7827.00,1.95
7826.00,1.95
7825.00,1.95
7824.00,1.95
7823.00,1.95
7822.00,1.95
7821.00,1.94
7820.00,1.94
7819.00,1.94
7818.00,1.93
7817.00,1.93
7816.00,1.92
7815.00,1.91
7814.00,1.91
7813.00,1.90
7812.00,1.90
7811.00,1.89
7810.00,1.89
7809.00,1.88
7808.00,1.88
7807.00,1.87
7806.00,1.86
7805.00,1.85
7804.00,1.84
7803.00,1.83
7802.00,1.83
7801.00,1.82
7800.00,1.81
7799.00,1.80
7798.00,1.80
7797.00,1.80
7796.00,1.80
7795.00,1.80
7794.00,1.80
7793.00,1.80
7792.00,1.81
7791.00,1.81
7790.00,1.82
7789.00,1.82
7788.00,1.82
7787.00,1.83
7786.00,1.83
7785.00,1.83
7784.00,1.84
7783.00,1.84
7782.00,1.85
7781.00,1.85
7780.00,1.86
7779.00,1.87
7778.00,1.88
7777.00,1.89
7776.00,1.90
7775.00,1.91
7774.00,1.92
7773.00,1.93
7772.00,1.94
7771.00,1.94
7770.00,1.95
7769.00,1.95
7768.00,1.95
7767.00,1.95
7766.00,1.95
7765.00,1.94
7764.00,1.94
7763.00,1.93
7762.00,1.92
7761.00,1.92
7760.00,1.91
7759.00,1.90
7758.00,1.90
7757.00,1.89
7756.00,1.88
7755.00,1.87
7754.00,1.87
7753.00,1.86
7752.00,1.85
7751.00,1.84
7750.00,1.83
7749.00,1.82
7748.00,1.81
7747.00,1.80
7746.00,1.79
7745.00,1.79
7744.00,1.79
7743.00,1.79
7742.00,1.79
7741.00,1.80
7740.00,1.81
7739.00,1.81
7738.00,1.82
7737.00,1.83
7736.00,1.84
7735.00,1.85
7734.00,1.87
7733.00,1.88
7732.00,1.89
7731.00,1.90
7730.00,1.92
7729.00,1.93
7728.00,1.94
7727.00,1.95
7726.00,1.97
7725.00,1.98
7724.00,1.99
7723.00,2.00
7722.00,2.02
7721.00,2.03
7720.00,2.03
7719.00,2.04
7718.00,2.04
7717.00,2.04
7716.00,2.04
7715.00,2.04
7714.00,2.04
7713.00,2.03
7712.00,2.03
7711.00,2.02
7710.00,2.02
7709.00,2.01
7708.00,2.01
7707.00,2.00
7706.00,1.99
7705.00,1.99
7704.00,1.98
7703.00,1.97
7702.00,1.96
7701.00,1.96
7700.00,1.95
7699.00,1.94
7698.00,1.93
7697.00,1.92
7696.00,1.91
7695.00,1.90
7694.00,1.89
7693.00,1.88
7692.00,1.88
7691.00,1.87
7690.00,1.87
7689.00,1.86
7688.00,1.86
7687.00,1.86
7686.00,1.85
7685.00,1.84
7684.00,1.84
7683.00,1.83
7682.00,1.82
7681.00,1.82
7680.00,1.81
7679.00,1.80
7678.00,1.79
7677.00,1.78
7676.00,1.78
7675.00,1.77
7674.00,1.76
7673.00,1.75
7672.00,1.74
7671.00,1.73
7670.00,1.72
7669.00,1.71
7668.00,1.69
7667.00,1.68
7666.00,1.67
7665.00,1.66
7664.00,1.65
7663.00,1.65
7662.00,1.64
7661.00,1.64
7660.00,1.63
7659.00,1.63
7658.00,1.64
7657.00,1.64
7656.00,1.64
7655.00,1.64
7654.00,1.65
7653.00,1.65
7652.00,1.66
7651.00,1.66
7650.00,1.67
7649.00,1.68
7648.00,1.68
7647.00,1.69
7646.00,1.70
7645.00,1.71
7644.00,1.72
7643.00,1.74
7642.00,1.75
7641.00,1.77
7640.00,1.78
7639.00,1.79
7638.00,1.80
7637.00,1.81
7636.00,1.81
7635.00,1.82
7634.00,1.82
7633.00,1.82
7632.00,1.81
7631.00,1.81
7630.00,1.80
7629.00,1.80
7628.00,1.79
7627.00,1.79
7626.00,1.78
7625.00,1.78
7624.00,1.77
7623.00,1.77
7622.00,1.77
7621.00,1.76
7620.00,1.76
7619.00,1.76
7618.00,1.75
7617.00,1.74
7616.00,1.73
7615.00,1.73
7614.00,1.72
7613.00,1.71
7612.00,1.70
7611.00,1.70
7610.00,1.70
7609.00,1.70
7608.00,1.70
7607.00,1.70
7606.00,1.71
7605.00,1.71
7604.00,1.72
7603.00,1.72
7602.00,1.73
7601.00,1.73
7600.00,1.74
7599.00,1.74
7598.00,1.74
7597.00,1.74
7596.00,1.75
7595.00,1.75
7594.00,1.75
7593.00,1.75
7592.00,1.75
7591.00,1.76
7590.00,1.76
7589.00,1.77
7588.00,1.77
7587.00,1.78
7586.00,1.78
7585.00,1.79
7584.00,1.79
7583.00,1.79
7582.00,1.79
7581.00,1.79
7580.00,1.78
7579.00,1.78
7578.00,1.78
7577.00,1.78
7576.00,1.78
7575.00,1.78
7574.00,1.78
7573.00,1.78
7572.00,1.78
7571.00,1.78
7570.00,1.78
7569.00,1.78
7568.00,1.78
7567.00,1.78
7566.00,1.77
7565.00,1.77
7564.00,1.77
7563.00,1.77
7562.00,1.76
7561.00,1.76
7560.00,1.76
7559.00,1.76
7558.00,1.76
7557.00,1.76
7556.00,1.76
7555.00,1.76
7554.00,1.77
7553.00,1.77
7552.00,1.77
7551.00,1.77
7550.00,1.77
7549.00,1.77
7548.00,1.77
7547.00,1.77
7546.00,1.76
7545.00,1.76
7544.00,1.75
7543.00,1.75
7542.00,1.75
7541.00,1.75
7540.00,1.75
7539.00,1.75
7538.00,1.75
7537.00,1.75
7536.00,1.76
7535.00,1.76
7534.00,1.77
7533.00,1.77
7532.00,1.78
7531.00,1.78
7530.00,1.78
7529.00,1.79
7528.00,1.79
7527.00,1.79
7526.00,1.79
7525.00,1.80
7524.00,1.80
7523.00,1.80
7522.00,1.81
7521.00,1.82
7520.00,1.83
7519.00,1.84
7518.00,1.85
7517.00,1.87
7516.00,1.88
7515.00,1.89
7514.00,1.90
7513.00,1.90
7512.00,1.91
7511.00,1.91
7510.00,1.91
7509.00,1.91
7508.00,1.90
7507.00,1.90
7506.00,1.89
7505.00,1.88
7504.00,1.87
7503.00,1.87
7502.00,1.86
7501.00,1.85
7500.00,1.85
7499.00,1.84
7498.00,1.84
7497.00,1.83
7496.00,1.83
7495.00,1.82
7494.00,1.82
7493.00,1.81
7492.00,1.80
7491.00,1.79
7490.00,1.79
7489.00,1.78
7488.00,1.77
7487.00,1.77
7486.00,1.76
7485.00,1.76
7484.00,1.76
7483.00,1.77
7482.00,1.77
7481.00,1.78
7480.00,1.78
7479.00,1.79
7478.00,1.80
7477.00,1.81
7476.00,1.82
7475.00,1.83
7474.00,1.84
7473.00,1.85
7472.00,1.86
7471.00,1.86
7470.00,1.87
7469.00,1.87
7468.00,1.88
7467.00,1.88
7466.00,1.88
7465.00,1.88
7464.00,1.88
7463.00,1.88
7462.00,1.88
7461.00,1.88
7460.00,1.88
7459.00,1.87
7458.00,1.87
7457.00,1.87
7456.00,1.86
7455.00,1.86
7454.00,1.85
7453.00,1.84
7452.00,1.84
7451.00,1.83
7450.00,1.82
7449.00,1.82
7448.00,1.81
7447.00,1.80
7446.00,1.80
7445.00,1.79
7444.00,1.78
7443.00,1.78
7442.00,1.77
7441.00,1.77
7440.00,1.77
7439.00,1.76
7438.00,1.76
7437.00,1.76
7436.00,1.76
7435.00,1.76
7434.00,1.76
7433.00,1.76
7432.00,1.76
7431.00,1.76
7430.00,1.76
7429.00,1.76
7428.00,1.76
7427.00,1.76
7426.00,1.76
7425.00,1.76
7424.00,1.75
7423.00,1.75
7422.00,1.74
7421.00,1.74
7420.00,1.73
7419.00,1.73
7418.00,1.72
7417.00,1.72
7416.00,1.71
7415.00,1.70
7414.00,1.70
7413.00,1.69
7412.00,1.68
7411.00,1.67
7410.00,1.67
7409.00,1.66
7408.00,1.65
7407.00,1.65
7406.00,1.64
7405.00,1.64
7404.00,1.63
7403.00,1.63
7402.00,1.63
7401.00,1.62
7400.00,1.62
7399.00,1.62
7398.00,1.62
7397.00,1.62
7396.00,1.62
7395.00,1.62
7394.00,1.62
7393.00,1.62
7392.00,1.63
7391.00,1.63
7390.00,1.63
7389.00,1.64
7388.00,1.64
7387.00,1.65
7386.00,1.65
7385.00,1.66
7384.00,1.67
7383.00,1.67
7382.00,1.68
7381.00,1.68
7380.00,1.69
7379.00,1.69
7378.00,1.69
7377.00,1.69
7376.00,1.70
7375.00,1.70
7374.00,1.70
7373.00,1.70
7372.00,1.70
7371.00,1.71
7370.00,1.71
7369.00,1.71
7368.00,1.71
7367.00,1.71
7366.00,1.71
7365.00,1.71
7364.00,1.71
7363.00,1.71
7362.00,1.71
7361.00,1.71
7360.00,1.71
7359.00,1.71
7358.00,1.70
7357.00,1.70
7356.00,1.70
7355.00,1.70
7354.00,1.70
7353.00,1.70
7352.00,1.70
7351.00,1.70
7350.00,1.70
7349.00,1.70
7348.00,1.70
7347.00,1.69
7346.00,1.69
7345.00,1.69
7344.00,1.69
7343.00,1.69
7342.00,1.69
7341.00,1.69
7340.00,1.69
7339.00,1.70
7338.00,1.70
7337.00,1.70
7336.00,1.70
7335.00,1.70
7334.00,1.70
7333.00,1.71
7332.00,1.71
7331.00,1.71
7330.00,1.71
7329.00,1.71
7328.00,1.71
7327.00,1.72
7326.00,1.72
7325.00,1.72
7324.00,1.72
7323.00,1.72
7322.00,1.72
7321.00,1.72
7320.00,1.72
7319.00,1.73
7318.00,1.73
7317.00,1.73
7316.00,1.74
7315.00,1.74
7314.00,1.75
7313.00,1.75
7312.00,1.75
7311.00,1.76
7310.00,1.76
7309.00,1.77
7308.00,1.77
7307.00,1.77
7306.00,1.77
7305.00,1.78
7304.00,1.78
7303.00,1.78
7302.00,1.78
7301.00,1.79
7300.00,1.79
7299.00,1.80
7298.00,1.80
7297.00,1.81
7296.00,1.81
7295.00,1.82
7294.00,1.82
7293.00,1.82
7292.00,1.83
7291.00,1.83
7290.00,1.83
7289.00,1.83
7288.00,1.82
7287.00,1.82
7286.00,1.82
7285.00,1.82
7284.00,1.82
7283.00,1.82
7282.00,1.82
7281.00,1.82
7280.00,1.82
7279.00,1.82
7278.00,1.82
7277.00,1.82
7276.00,1.83
7275.00,1.83
7274.00,1.83
7273.00,1.83
7272.00,1.83
7271.00,1.83
7270.00,1.83
7269.00,1.83
7268.00,1.82
7267.00,1.82
7266.00,1.82
7265.00,1.82
7264.00,1.83
7263.00,1.83
7262.00,1.83
7261.00,1.84
7260.00,1.84
7259.00,1.84
7258.00,1.84
7257.00,1.84
7256.00,1.84
7255.00,1.84
7254.00,1.84
7253.00,1.83
7252.00,1.83
7251.00,1.83
7250.00,1.83
7249.00,1.82
7248.00,1.82
7247.00,1.82
7246.00,1.81
7245.00,1.81
7244.00,1.80
7243.00,1.80
7242.00,1.79
7241.00,1.79
7240.00,1.78
7239.00,1.77
7238.00,1.76
7237.00,1.75
7236.00,1.74
7235.00,1.73
7234.00,1.72
7233.00,1.71
7232.00,1.71
7231.00,1.70
7230.00,1.69
7229.00,1.69
7228.00,1.68
7227.00,1.68
7226.00,1.67
7225.00,1.66
7224.00,1.66
7223.00,1.65
7222.00,1.64
7221.00,1.64
7220.00,1.63
7219.00,1.62
7218.00,1.62
7217.00,1.61
7216.00,1.61
7215.00,1.61
7214.00,1.61
7213.00,1.61
7212.00,1.61
7211.00,1.61
7210.00,1.61
7209.00,1.61
7208.00,1.61
7207.00,1.62
7206.00,1.62
7205.00,1.61
7204.00,1.61
7203.00,1.61
7202.00,1.61
7201.00,1.61
7200.00,1.61
7199.00,1.61
7198.00,1.61
7197.00,1.61
7196.00,1.61
7195.00,1.60
7194.00,1.60
7193.00,1.60
7192.00,1.60
7191.00,1.59
7190.00,1.59
7189.00,1.59
7188.00,1.58
7187.00,1.58
7186.00,1.58
7185.00,1.57
7184.00,1.57
7183.00,1.56
7182.00,1.56
7181.00,1.55
7180.00,1.55
7179.00,1.55
7178.00,1.55
7177.00,1.55
7176.00,1.55
7175.00,1.55
7174.00,1.55
7173.00,1.56
7172.00,1.56
7171.00,1.56
7170.00,1.57
7169.00,1.57
7168.00,1.57
7167.00,1.57
7166.00,1.58
7165.00,1.58
7164.00,1.58
7163.00,1.59
7162.00,1.59
7161.00,1.59
7160.00,1.59
7159.00,1.60
7158.00,1.60
7157.00,1.60
7156.00,1.60
7155.00,1.60
7154.00,1.60
7153.00,1.59
7152.00,1.59
7151.00,1.58
7150.00,1.57
7149.00,1.57
7148.00,1.56
7147.00,1.55
7146.00,1.53
7145.00,1.52
7144.00,1.51
7143.00,1.50
7142.00,1.50
7141.00,1.49
7140.00,1.48
7139.00,1.47
7138.00,1.46
7137.00,1.45
7136.00,1.44
7135.00,1.43
7134.00,1.42
7133.00,1.40
7132.00,1.39
7131.00,1.38
7130.00,1.37
7129.00,1.36
7128.00,1.35
7127.00,1.34
7126.00,1.33
7125.00,1.33
7124.00,1.32
7123.00,1.32
7122.00,1.32
7121.00,1.31
7120.00,1.31
7119.00,1.31
7118.00,1.31
7117.00,1.31
7116.00,1.31
7115.00,1.31
7114.00,1.31
7113.00,1.31
7112.00,1.32
7111.00,1.32
7110.00,1.32
7109.00,1.33
7108.00,1.33
7107.00,1.33
7106.00,1.34
7105.00,1.34
7104.00,1.35
7103.00,1.36
7102.00,1.36
7101.00,1.37
7100.00,1.37
7099.00,1.38
7098.00,1.38
7097.00,1.39
7096.00,1.39
7095.00,1.39
7094.00,1.40
7093.00,1.40
7092.00,1.40
7091.00,1.40
7090.00,1.40
7089.00,1.39
7088.00,1.39
7087.00,1.39
7086.00,1.38
7085.00,1.38
7084.00,1.38
7083.00,1.37
7082.00,1.37
7081.00,1.36
7080.00,1.36
7079.00,1.36
7078.00,1.36
7077.00,1.35
7076.00,1.35
7075.00,1.35
7074.00,1.35
7073.00,1.35
7072.00,1.35
7071.00,1.35
7070.00,1.35
7069.00,1.35
7068.00,1.35
7067.00,1.35
7066.00,1.35
7065.00,1.35
7064.00,1.35
7063.00,1.35
7062.00,1.35
7061.00,1.36
7060.00,1.36
7059.00,1.36
7058.00,1.36
7057.00,1.36
7056.00,1.36
7055.00,1.36
7054.00,1.36
7053.00,1.36
7052.00,1.36
7051.00,1.36
7050.00,1.36
7049.00,1.35
7048.00,1.35
7047.00,1.35
7046.00,1.34
7045.00,1.33
7044.00,1.33
7043.00,1.32
7042.00,1.32
7041.00,1.31
7040.00,1.31
7039.00,1.30
7038.00,1.30
7037.00,1.30
7036.00,1.30
7035.00,1.30
7034.00,1.30
7033.00,1.30
7032.00,1.29
7031.00,1.29
7030.00,1.29
7029.00,1.29
7028.00,1.29
7027.00,1.29
7026.00,1.29
7025.00,1.29
7024.00,1.29
7023.00,1.29
7022.00,1.29
7021.00,1.29
7020.00,1.29
7019.00,1.29
7018.00,1.29
7017.00,1.29
7016.00,1.29
7015.00,1.29
7014.00,1.28
7013.00,1.28
7012.00,1.27
7011.00,1.27
7010.00,1.26
7009.00,1.26
7008.00,1.25
7007.00,1.25
7006.00,1.24
7005.00,1.24
7004.00,1.23
7003.00,1.23
7002.00,1.23
7001.00,1.22
7000.00,1.22
6999.00,1.21
6998.00,1.20
6997.00,1.20
6996.00,1.19
6995.00,1.19
6994.00,1.18
6993.00,1.17
6992.00,1.17
6991.00,1.16
6990.00,1.16
6989.00,1.16
6988.00,1.16
6987.00,1.16
6986.00,1.16
6985.00,1.16
6984.00,1.16
6983.00,1.15
6982.00,1.15
6981.00,1.15
6980.00,1.15
6979.00,1.15
6978.00,1.14
6977.00,1.14
6976.00,1.14
6975.00,1.13
6974.00,1.13
6973.00,1.13
6972.00,1.12
6971.00,1.12
6970.00,1.12
6969.00,1.12
6968.00,1.11
6967.00,1.11
6966.00,1.11
6965.00,1.10
6964.00,1.10
6963.00,1.10
6962.00,1.09
6961.00,1.09
6960.00,1.08
6959.00,1.08
6958.00,1.07
6957.00,1.07
6956.00,1.07
6955.00,1.06
6954.00,1.06
6953.00,1.06
6952.00,1.06
6951.00,1.06
6950.00,1.06
6949.00,1.06
6948.00,1.06
6947.00,1.06
6946.00,1.06
6945.00,1.06
6944.00,1.07
6943.00,1.07
6942.00,1.07
6941.00,1.08
6940.00,1.08
6939.00,1.08
6938.00,1.09
6937.00,1.09
6936.00,1.09
6935.00,1.09
6934.00,1.09
6933.00,1.09
6932.00,1.09
6931.00,1.09
6930.00,1.09
6929.00,1.08
6928.00,1.08
6927.00,1.08
6926.00,1.08
6925.00,1.08
6924.00,1.07
6923.00,1.07
6922.00,1.07
6921.00,1.07
6920.00,1.07
6919.00,1.07
6918.00,1.07
6917.00,1.06
6916.00,1.06
6915.00,1.06
6914.00,1.06
6913.00,1.06
6912.00,1.05
6911.00,1.05
6910.00,1.05
6909.00,1.05
6908.00,1.06
6907.00,1.06
6906.00,1.07
6905.00,1.07
6904.00,1.08
6903.00,1.08
6902.00,1.09
6901.00,1.10
6900.00,1.10
6899.00,1.11
6898.00,1.12
6897.00,1.12
6896.00,1.13
6895.00,1.13
6894.00,1.14
6893.00,1.14
6892.00,1.14
6891.00,1.14
6890.00,1.15
6889.00,1.15
6888.00,1.15
6887.00,1.16
6886.00,1.16
6885.00,1.17
6884.00,1.17
6883.00,1.17
6882.00,1.18
6881.00,1.18
6880.00,1.18
6879.00,1.18
6878.00,1.18
6877.00,1.18
6876.00,1.18
6875.00,1.18
6874.00,1.18
6873.00,1.18
6872.00,1.18
6871.00,1.18
6870.00,1.17
6869.00,1.17
6868.00,1.17
6867.00,1.17
6866.00,1.17
6865.00,1.17
6864.00,1.17
6863.00,1.17
6862.00,1.16
6861.00,1.16
6860.00,1.16
6859.00,1.15
6858.00,1.15
6857.00,1.14
6856.00,1.14
6855.00,1.13
6854.00,1.13
6853.00,1.12
6852.00,1.12
6851.00,1.11
6850.00,1.10
6849.00,1.10
6848.00,1.10
6847.00,1.09
6846.00,1.09
6845.00,1.09
6844.00,1.09
6843.00,1.09
6842.00,1.09
6841.00,1.09
6840.00,1.09
6839.00,1.09
6838.00,1.08
6837.00,1.08
6836.00,1.08
6835.00,1.08
6834.00,1.08
6833.00,1.08
6832.00,1.08
6831.00,1.09
6830.00,1.09
6829.00,1.09
6828.00,1.10
6827.00,1.10
6826.00,1.11
6825.00,1.11
6824.00,1.12
6823.00,1.12
6822.00,1.13
6821.00,1.13
6820.00,1.13
6819.00,1.13
6818.00,1.13
6817.00,1.14
6816.00,1.14
6815.00,1.14
6814.00,1.14
6813.00,1.14
6812.00,1.15
6811.00,1.15
6810.00,1.16
6809.00,1.16
6808.00,1.17
6807.00,1.17
6806.00,1.18
6805.00,1.18
6804.00,1.19
6803.00,1.19
6802.00,1.19
6801.00,1.19
6800.00,1.19
6799.00,1.19
6798.00,1.19
6797.00,1.19
6796.00,1.19
6795.00,1.19
6794.00,1.20
6793.00,1.20
6792.00,1.20
6791.00,1.20
6790.00,1.21
6789.00,1.21
6788.00,1.21
6787.00,1.21
6786.00,1.21
6785.00,1.21
6784.00,1.21
6783.00,1.20
6782.00,1.20
6781.00,1.19
6780.00,1.19
6779.00,1.19
6778.00,1.18
6777.00,1.18
6776.00,1.18
6775.00,1.18
6774.00,1.18
6773.00,1.18
6772.00,1.18
6771.00,1.18
6770.00,1.18
6769.00,1.18
6768.00,1.18
6767.00,1.18
6766.00,1.18
6765.00,1.18
6764.00,1.18
6763.00,1.18
6762.00,1.18
6761.00,1.18
6760.00,1.19
6759.00,1.19
6758.00,1.19
6757.00,1.20
6756.00,1.20
6755.00,1.21
6754.00,1.21
6753.00,1.21
6752.00,1.22
6751.00,1.22
6750.00,1.22
6749.00,1.23
6748.00,1.23
6747.00,1.23
6746.00,1.23
6745.00,1.23
6744.00,1.23
6743.00,1.23
6742.00,1.23
6741.00,1.23
6740.00,1.23
6739.00,1.24
6738.00,1.24
6737.00,1.24
6736.00,1.24
6735.00,1.24
6734.00,1.24
6733.00,1.24
6732.00,1.24
6731.00,1.24
6730.00,1.25
6729.00,1.25
6728.00,1.25
6727.00,1.25
6726.00,1.25
6725.00,1.26
6724.00,1.26
6723.00,1.26
6722.00,1.27
6721.00,1.27
6720.00,1.27
6719.00,1.28
6718.00,1.28
6717.00,1.29
6716.00,1.29
6715.00,1.29
6714.00,1.30
6713.00,1.30
6712.00,1.31
6711.00,1.31
6710.00,1.32
6709.00,1.32
6708.00,1.32
6707.00,1.32
6706.00,1.32
6705.00,1.32
6704.00,1.32
6703.00,1.31
6702.00,1.31
6701.00,1.31
6700.00,1.31
6699.00,1.30
6698.00,1.30
6697.00,1.29
6696.00,1.29
6695.00,1.29
6694.00,1.28
6693.00,1.28
6692.00,1.27
6691.00,1.27
6690.00,1.27
6689.00,1.26
6688.00,1.26
6687.00,1.25
6686.00,1.24
6685.00,1.24
6684.00,1.23
6683.00,1.23
6682.00,1.22
6681.00,1.22
6680.00,1.22
6679.00,1.22
6678.00,1.21
6677.00,1.21
6676.00,1.21
6675.00,1.22
6674.00,1.22
6673.00,1.22
6672.00,1.22
6671.00,1.22
6670.00,1.23
6669.00,1.23
6668.00,1.23
6667.00,1.24
6666.00,1.24
6665.00,1.24
6664.00,1.25
6663.00,1.26
6662.00,1.26
6661.00,1.27
6660.00,1.28
6659.00,1.29
6658.00,1.29
6657.00,1.30
6656.00,1.31
6655.00,1.32
6654.00,1.33
6653.00,1.34
6652.00,1.35
6651.00,1.36
6650.00,1.36
6649.00,1.37
6648.00,1.37
6647.00,1.38
6646.00,1.38
6645.00,1.38
6644.00,1.39
6643.00,1.39
6642.00,1.39
6641.00,1.39
6640.00,1.39
6639.00,1.39
6638.00,1.39
6637.00,1.39
6636.00,1.39
6635.00,1.39
6634.00,1.39
6633.00,1.39
6632.00,1.39
6631.00,1.39
6630.00,1.39
6629.00,1.38
6628.00,1.38
6627.00,1.38
6626.00,1.38
6625.00,1.38
6624.00,1.38
6623.00,1.39
6622.00,1.39
6621.00,1.39
6620.00,1.39
6619.00,1.40
6618.00,1.40
6617.00,1.41
6616.00,1.41
6615.00,1.42
6614.00,1.42
6613.00,1.43
6612.00,1.43
6611.00,1.44
6610.00,1.44
6609.00,1.44
6608.00,1.45
6607.00,1.45
6606.00,1.45
6605.00,1.45
6604.00,1.45
6603.00,1.46
6602.00,1.46
6601.00,1.46
6600.00,1.46
6599.00,1.46
6598.00,1.46
6597.00,1.46
6596.00,1.46
6595.00,1.46
6594.00,1.46
6593.00,1.46
6592.00,1.46
6591.00,1.46
6590.00,1.46
6589.00,1.46
6588.00,1.45
6587.00,1.45
6586.00,1.45
6585.00,1.45
6584.00,1.45
6583.00,1.45
6582.00,1.45
6581.00,1.45
6580.00,1.45
6579.00,1.45
6578.00,1.45
6577.00,1.45
6576.00,1.45
6575.00,1.45
6574.00,1.45
6573.00,1.45
6572.00,1.44
6571.00,1.44
6570.00,1.44
6569.00,1.44
6568.00,1.44
6567.00,1.44
6566.00,1.44
6565.00,1.44
6564.00,1.44
6563.00,1.43
6562.00,1.43
6561.00,1.43
6560.00,1.43
6559.00,1.44
6558.00,1.44
6557.00,1.44
6556.00,1.44
6555.00,1.44
6554.00,1.45
6553.00,1.45
6552.00,1.45
6551.00,1.45
6550.00,1.45
6549.00,1.46
6548.00,1.46
6547.00,1.46
6546.00,1.46
6545.00,1.46
6544.00,1.46
6543.00,1.46
6542.00,1.46
6541.00,1.47
6540.00,1.47
6539.00,1.47
6538.00,1.48
6537.00,1.48
6536.00,1.48
6535.00,1.49
6534.00,1.49
6533.00,1.49
6532.00,1.50
6531.00,1.50
6530.00,1.50
6529.00,1.50
6528.00,1.50
6527.00,1.50
6526.00,1.50
6525.00,1.50
6524.00,1.51
6523.00,1.51
6522.00,1.51
6521.00,1.52
6520.00,1.52
6519.00,1.52
6518.00,1.53
6517.00,1.53
6516.00,1.53
6515.00,1.53
6514.00,1.53
6513.00,1.54
6512.00,1.54
6511.00,1.54
6510.00,1.54
6509.00,1.55
6508.00,1.55
6507.00,1.55
6506.00,1.55
6505.00,1.56
6504.00,1.56
6503.00,1.56
6502.00,1.56
6501.00,1.57
6500.00,1.57
6499.00,1.57
6498.00,1.57
6497.00,1.58
6496.00,1.58
6495.00,1.58
6494.00,1.58
6493.00,1.59
6492.00,1.59
6491.00,1.59
6490.00,1.59
6489.00,1.59
6488.00,1.60
6487.00,1.60
6486.00,1.59
6485.00,1.59
6484.00,1.59
6483.00,1.59
6482.00,1.58
6481.00,1.58
6480.00,1.58
6479.00,1.58
6478.00,1.57
6477.00,1.57
6476.00,1.57
6475.00,1.57
6474.00,1.56
6473.00,1.56
6472.00,1.56
6471.00,1.56
6470.00,1.56
6469.00,1.55
6468.00,1.55
6467.00,1.55
6466.00,1.55
6465.00,1.55
6464.00,1.55
6463.00,1.55
6462.00,1.55
6461.00,1.55
6460.00,1.55
6459.00,1.56
6458.00,1.56
6457.00,1.56
6456.00,1.57
6455.00,1.57
6454.00,1.58
6453.00,1.58
6452.00,1.59
6451.00,1.59
6450.00,1.59
6449.00,1.59
6448.00,1.60
6447.00,1.60
6446.00,1.60
6445.00,1.61
6444.00,1.61
6443.00,1.61
6442.00,1.61
6441.00,1.62
6440.00,1.62
6439.00,1.62
6438.00,1.62
6437.00,1.62
6436.00,1.62
6435.00,1.62
6434.00,1.62
6433.00,1.62
6432.00,1.62
6431.00,1.62
6430.00,1.61
6429.00,1.61
6428.00,1.62
6427.00,1.62
6426.00,1.62
6425.00,1.62
6424.00,1.62
6423.00,1.62
6422.00,1.62
6421.00,1.63
6420.00,1.63
6419.00,1.63
6418.00,1.63
6417.00,1.63
6416.00,1.64
6415.00,1.64
6414.00,1.64
6413.00,1.64
6412.00,1.65
6411.00,1.65
6410.00,1.65
6409.00,1.66
6408.00,1.66
6407.00,1.67
6406.00,1.67
6405.00,1.67
6404.00,1.67
6403.00,1.68
6402.00,1.68
6401.00,1.68
6400.00,1.68
6399.00,1.68
6398.00,1.68
6397.00,1.68
6396.00,1.68
6395.00,1.69
6394.00,1.69
6393.00,1.69
6392.00,1.69
6391.00,1.69
6390.00,1.69
6389.00,1.70
6388.00,1.70
6387.00,1.70
6386.00,1.71
6385.00,1.71
6384.00,1.71
6383.00,1.71
6382.00,1.72
6381.00,1.72
6380.00,1.73
6379.00,1.73
6378.00,1.74
6377.00,1.74
6376.00,1.75
6375.00,1.76
6374.00,1.76
6373.00,1.77
6372.00,1.77
6371.00,1.78
6370.00,1.78
6369.00,1.79
6368.00,1.79
6367.00,1.79
6366.00,1.79
6365.00,1.80
6364.00,1.80
6363.00,1.80
6362.00,1.80
6361.00,1.80
6360.00,1.80
6359.00,1.80
6358.00,1.80
6357.00,1.81
6356.00,1.81
6355.00,1.81
6354.00,1.80
6353.00,1.80
6352.00,1.80
6351.00,1.80
6350.00,1.79
6349.00,1.79
6348.00,1.79
6347.00,1.79
6346.00,1.78
6345.00,1.78
6344.00,1.78
6343.00,1.78
6342.00,1.79
6341.00,1.79
6340.00,1.79
6339.00,1.79
6338.00,1.79
6337.00,1.80
6336.00,1.80
6335.00,1.80
6334.00,1.81
6333.00,1.81
6332.00,1.81
6331.00,1.81
6330.00,1.81
6329.00,1.82
6328.00,1.82
6327.00,1.82
6326.00,1.82
6325.00,1.83
6324.00,1.83
6323.00,1.83
6322.00,1.84
6321.00,1.84
6320.00,1.84
6319.00,1.84
6318.00,1.85
6317.00,1.85
6316.00,1.85
6315.00,1.85
6314.00,1.85
6313.00,1.85
6312.00,1.85
6311.00,1.85
6310.00,1.85
6309.00,1.86
6308.00,1.86
6307.00,1.86
6306.00,1.86
6305.00,1.86
6304.00,1.87
6303.00,1.87
6302.00,1.87
6301.00,1.88
6300.00,1.88
6299.00,1.88
6298.00,1.88
6297.00,1.89
6296.00,1.89
6295.00,1.89
6294.00,1.89
6293.00,1.89
6292.00,1.90
6291.00,1.90
6290.00,1.90
6289.00,1.91
6288.00,1.91
6287.00,1.91
6286.00,1.91
6285.00,1.92
6284.00,1.92
6283.00,1.92
6282.00,1.92
6281.00,1.92
6280.00,1.92
6279.00,1.92
6278.00,1.92
6277.00,1.92
6276.00,1.92
6275.00,1.92
6274.00,1.92
6273.00,1.92
6272.00,1.92
6271.00,1.92
6270.00,1.91
6269.00,1.91
6268.00,1.91
6267.00,1.91
6266.00,1.91
6265.00,1.91
6264.00,1.90
6263.00,1.90
6262.00,1.90
6261.00,1.90
6260.00,1.90
6259.00,1.89
6258.00,1.89
6257.00,1.89
6256.00,1.89
6255.00,1.89
6254.00,1.89
6253.00,1.88
6252.00,1.88
6251.00,1.88
6250.00,1.88
6249.00,1.88
6248.00,1.88
6247.00,1.88
6246.00,1.88
6245.00,1.88
6244.00,1.88
6243.00,1.88
6242.00,1.89
6241.00,1.89
6240.00,1.89
6239.00,1.89
6238.00,1.89
6237.00,1.89
6236.00,1.90
6235.00,1.90
6234.00,1.90
6233.00,1.90
6232.00,1.91
6231.00,1.91
6230.00,1.92
6229.00,1.92
6228.00,1.92
6227.00,1.93
6226.00,1.93
6225.00,1.93
6224.00,1.94
6223.00,1.94
6222.00,1.94
6221.00,1.94
6220.00,1.94
6219.00,1.95
6218.00,1.95
6217.00,1.95
6216.00,1.95
6215.00,1.95
6214.00,1.95
6213.00,1.95
6212.00,1.95
6211.00,1.94
6210.00,1.94
6209.00,1.94
6208.00,1.94
6207.00,1.94
6206.00,1.93
6205.00,1.93
6204.00,1.93
6203.00,1.93
6202.00,1.93
6201.00,1.93
6200.00,1.93
6199.00,1.93
6198.00,1.93
6197.00,1.93
6196.00,1.93
6195.00,1.93
6194.00,1.94
6193.00,1.94
6192.00,1.95
6191.00,1.95
6190.00,1.96
6189.00,1.96
6188.00,1.97
6187.00,1.97
6186.00,1.98
6185.00,1.99
6184.00,2.00
6183.00,2.01
6182.00,2.01
6181.00,2.02
6180.00,2.03
6179.00,2.03
6178.00,2.04
6177.00,2.05
6176.00,2.05
6175.00,2.06
6174.00,2.06
6173.00,2.07
6172.00,2.07
6171.00,2.07
6170.00,2.07
6169.00,2.07
6168.00,2.07
6167.00,2.07
6166.00,2.07
6165.00,2.07
6164.00,2.07
6163.00,2.06
6162.00,2.06
6161.00,2.06
6160.00,2.05
6159.00,2.05
6158.00,2.05
6157.00,2.05
6156.00,2.04
6155.00,2.04
6154.00,2.03
6153.00,2.03
6152.00,2.03
6151.00,2.02
6150.00,2.02
6149.00,2.01
6148.00,2.01
6147.00,2.00
6146.00,2.00
6145.00,1.99
6144.00,1.99
6143.00,1.99
6142.00,1.98
6141.00,1.98
6140.00,1.98
6139.00,1.98
6138.00,1.98
6137.00,1.98
6136.00,1.98
6135.00,1.98
6134.00,1.98
6133.00,1.98
6132.00,1.98
6131.00,1.98
6130.00,1.98
6129.00,1.98
6128.00,1.98
6127.00,1.98
6126.00,1.98
6125.00,1.99
6124.00,1.99
6123.00,1.99
6122.00,2.00
6121.00,2.01
6120.00,2.01
6119.00,2.02
6118.00,2.03
6117.00,2.03
6116.00,2.04
6115.00,2.05
6114.00,2.05
6113.00,2.06
6112.00,2.07
6111.00,2.07
6110.00,2.08
6109.00,2.08
6108.00,2.09
6107.00,2.10
6106.00,2.10
6105.00,2.11
6104.00,2.11
6103.00,2.12
6102.00,2.13
6101.00,2.13
6100.00,2.14
6099.00,2.15
6098.00,2.15
6097.00,2.16
6096.00,2.17
6095.00,2.17
6094.00,2.18
6093.00,2.18
6092.00,2.19
6091.00,2.19
6090.00,2.19
6089.00,2.20
6088.00,2.20
6087.00,2.20
6086.00,2.20
6085.00,2.20
6084.00,2.20
6083.00,2.20
6082.00,2.20
6081.00,2.20
6080.00,2.20
6079.00,2.20
6078.00,2.20
6077.00,2.19
6076.00,2.19
6075.00,2.18
6074.00,2.18
6073.00,2.17
6072.00,2.16
6071.00,2.15
6070.00,2.15
6069.00,2.14
6068.00,2.13
6067.00,2.12
6066.00,2.12
6065.00,2.11
6064.00,2.11
6063.00,2.10
6062.00,2.10
6061.00,2.09
6060.00,2.09
6059.00,2.08
6058.00,2.08
6057.00,2.08
6056.00,2.08
6055.00,2.08
6054.00,2.08
6053.00,2.08
6052.00,2.08
6051.00,2.08
6050.00,2.08
6049.00,2.09
6048.00,2.09
6047.00,2.09
6046.00,2.10
6045.00,2.10
6044.00,2.11
6043.00,2.11
6042.00,2.12
6041.00,2.12
6040.00,2.13
6039.00,2.13
6038.00,2.13
6037.00,2.13
6036.00,2.13
6035.00,2.13
6034.00,2.14
6033.00,2.14
6032.00,2.14
6031.00,2.14
6030.00,2.14
6029.00,2.15
6028.00,2.15
6027.00,2.15
6026.00,2.14
6025.00,2.14
6024.00,2.14
6023.00,2.14
6022.00,2.14
6021.00,2.14
6020.00,2.14
6019.00,2.14
6018.00,2.14
6017.00,2.14
6016.00,2.14
6015.00,2.14
6014.00,2.14
6013.00,2.14
6012.00,2.14
6011.00,2.14
6010.00,2.15
6009.00,2.15
6008.00,2.15
6007.00,2.15
6006.00,2.15
6005.00,2.15
6004.00,2.15
6003.00,2.16
6002.00,2.16
6001.00,2.16
6000.00,2.16
5999.00,2.16
5998.00,2.16
5997.00,2.16
5996.00,2.16
5995.00,2.16
5994.00,2.16
5993.00,2.16
5992.00,2.16
5991.00,2.16
5990.00,2.15
5989.00,2.15
5988.00,2.15
5987.00,2.15
5986.00,2.14
5985.00,2.14
5984.00,2.14
5983.00,2.13
5982.00,2.13
5981.00,2.13
5980.00,2.12
5979.00,2.12
5978.00,2.12
5977.00,2.11
5976.00,2.11
5975.00,2.11
5974.00,2.11
5973.00,2.10
5972.00,2.10
5971.00,2.10
5970.00,2.09
5969.00,2.09
5968.00,2.09
5967.00,2.08
5966.00,2.08
5965.00,2.08
5964.00,2.07
5963.00,2.07
5962.00,2.07
5961.00,2.06
5960.00,2.06
5959.00,2.06
5958.00,2.05
5957.00,2.05
5956.00,2.05
5955.00,2.04
5954.00,2.04
5953.00,2.04
5952.00,2.03
5951.00,2.03
5950.00,2.03
5949.00,2.02
5948.00,2.02
5947.00,2.02
5946.00,2.02
5945.00,2.01
5944.00,2.01
5943.00,2.01
5942.00,2.01
5941.00,2.00
5940.00,2.00
5939.00,2.00
5938.00,2.00
5937.00,2.00
5936.00,2.00
5935.00,1.99
5934.00,1.99
5933.00,1.99
5932.00,1.99
5931.00,1.99
5930.00,1.98
5929.00,1.98
5928.00,1.97
5927.00,1.97
5926.00,1.97
5925.00,1.97
5924.00,1.96
5923.00,1.96
5922.00,1.96
5921.00,1.96
5920.00,1.96
5919.00,1.96
5918.00,1.95
5917.00,1.95
5916.00,1.95
5915.00,1.95
5914.00,1.95
5913.00,1.95
5912.00,1.95
5911.00,1.95
5910.00,1.95
5909.00,1.95
5908.00,1.95
5907.00,1.95
5906.00,1.96
5905.00,1.96
5904.00,1.96
5903.00,1.97
5902.00,1.98
5901.00,1.98
5900.00,1.99
5899.00,2.00
5898.00,2.01
5897.00,2.01
5896.00,2.02
5895.00,2.03
5894.00,2.03
5893.00,2.04
5892.00,2.05
5891.00,2.05
5890.00,2.06
5889.00,2.06
5888.00,2.07
5887.00,2.08
5886.00,2.08
5885.00,2.09
5884.00,2.09
5883.00,2.10
5882.00,2.10
5881.00,2.11
5880.00,2.11
5879.00,2.12
5878.00,2.12
5877.00,2.12
5876.00,2.12
5875.00,2.12
5874.00,2.13
5873.00,2.12
5872.00,2.12
5871.00,2.12
5870.00,2.12
5869.00,2.12
5868.00,2.12
5867.00,2.13
5866.00,2.13
5865.00,2.13
5864.00,2.13
5863.00,2.13
5862.00,2.13
5861.00,2.13
5860.00,2.13
5859.00,2.12
5858.00,2.12
5857.00,2.12
5856.00,2.12
5855.00,2.12
5854.00,2.11
5853.00,2.11
5852.00,2.11
5851.00,2.11
5850.00,2.11
5849.00,2.11
5848.00,2.10
5847.00,2.10
5846.00,2.10
5845.00,2.10
5844.00,2.10
5843.00,2.09
5842.00,2.09
5841.00,2.09
5840.00,2.09
5839.00,2.08
5838.00,2.08
5837.00,2.08
5836.00,2.08
5835.00,2.08
5834.00,2.08
5833.00,2.09
5832.00,2.09
5831.00,2.09
5830.00,2.09
5829.00,2.10
5828.00,2.10
5827.00,2.10
5826.00,2.10
5825.00,2.11
5824.00,2.11
5823.00,2.11
5822.00,2.12
5821.00,2.12
5820.00,2.12
5819.00,2.13
5818.00,2.13
5817.00,2.13
5816.00,2.13
5815.00,2.14
5814.00,2.14
5813.00,2.14
5812.00,2.14
5811.00,2.14
5810.00,2.14
5809.00,2.14
5808.00,2.14
5807.00,2.14
5806.00,2.14
5805.00,2.14
5804.00,2.13
5803.00,2.13
5802.00,2.13
5801.00,2.12
5800.00,2.12
5799.00,2.12
5798.00,2.11
5797.00,2.11
5796.00,2.10
5795.00,2.10
5794.00,2.10
5793.00,2.09
5792.00,2.09
5791.00,2.08
5790.00,2.08
5789.00,2.07
5788.00,2.07
5787.00,2.06
5786.00,2.06
5785.00,2.06
5784.00,2.06
5783.00,2.05
5782.00,2.05
5781.00,2.05
5780.00,2.05
5779.00,2.05
5778.00,2.04
5777.00,2.04
5776.00,2.04
5775.00,2.04
5774.00,2.04
5773.00,2.04
5772.00,2.04
5771.00,2.04
5770.00,2.04
5769.00,2.04
5768.00,2.05
5767.00,2.05
5766.00,2.05
5765.00,2.06
5764.00,2.06
5763.00,2.06
5762.00,2.07
5761.00,2.07
5760.00,2.08
5759.00,2.08
5758.00,2.08
5757.00,2.09
5756.00,2.09
5755.00,2.10
5754.00,2.10
5753.00,2.11
5752.00,2.11
5751.00,2.12
5750.00,2.13
5749.00,2.13
5748.00,2.14
5747.00,2.14
5746.00,2.15
5745.00,2.15
5744.00,2.16
5743.00,2.16
5742.00,2.16
5741.00,2.16
5740.00,2.17
5739.00,2.17
5738.00,2.17
5737.00,2.17
5736.00,2.17
5735.00,2.17
5734.00,2.18
5733.00,2.18
5732.00,2.18
5731.00,2.18
5730.00,2.18
5729.00,2.18
5728.00,2.18
5727.00,2.17
5726.00,2.17
5725.00,2.17
5724.00,2.17
5723.00,2.16
5722.00,2.16
5721.00,2.16
5720.00,2.16
5719.00,2.15
5718.00,2.15
5717.00,2.15
5716.00,2.15
5715.00,2.15
5714.00,2.14
5713.00,2.14
5712.00,2.14
5711.00,2.13
5710.00,2.13
5709.00,2.13
5708.00,2.13
5707.00,2.12
5706.00,2.12
5705.00,2.12
5704.00,2.11
5703.00,2.11
5702.00,2.11
5701.00,2.11
5700.00,2.10
5699.00,2.10
5698.00,2.10
5697.00,2.09
5696.00,2.09
5695.00,2.09
5694.00,2.08
5693.00,2.08
5692.00,2.08
5691.00,2.08
5690.00,2.07
5689.00,2.07
5688.00,2.07
5687.00,2.07
5686.00,2.07
5685.00,2.06
5684.00,2.06
5683.00,2.06
5682.00,2.06
5681.00,2.06
5680.00,2.06
5679.00,2.06
5678.00,2.06
5677.00,2.06
5676.00,2.06
5675.00,2.06
5674.00,2.06
5673.00,2.06
5672.00,2.06
5671.00,2.06
5670.00,2.06
5669.00,2.06
5668.00,2.07
5667.00,2.07
5666.00,2.07
5665.00,2.07
5664.00,2.07
5663.00,2.07
5662.00,2.07
5661.00,2.07
5660.00,2.07
5659.00,2.07
5658.00,2.08
5657.00,2.08
5656.00,2.08
5655.00,2.08
5654.00,2.08
5653.00,2.08
5652.00,2.08
5651.00,2.08
5650.00,2.08
5649.00,2.08
5648.00,2.08
5647.00,2.08
5646.00,2.09
5645.00,2.09
5644.00,2.09
5643.00,2.09
5642.00,2.09
5641.00,2.09
5640.00,2.10
5639.00,2.10
5638.00,2.10
5637.00,2.10
5636.00,2.10
5635.00,2.11
5634.00,2.11
5633.00,2.11
5632.00,2.11
5631.00,2.12
5630.00,2.12
5629.00,2.12
5628.00,2.13
5627.00,2.13
5626.00,2.13
5625.00,2.14
5624.00,2.14
5623.00,2.15
5622.00,2.15
5621.00,2.15
5620.00,2.16
5619.00,2.16
5618.00,2.16
5617.00,2.17
5616.00,2.17
5615.00,2.17
5614.00,2.18
5613.00,2.18
5612.00,2.19
5611.00,2.19
5610.00,2.20
5609.00,2.20
5608.00,2.20
5607.00,2.21
5606.00,2.21
5605.00,2.21
5604.00,2.21
5603.00,2.21
5602.00,2.21
5601.00,2.21
5600.00,2.21
5599.00,2.21
5598.00,2.21
5597.00,2.21
5596.00,2.21
5595.00,2.21
5594.00,2.21
5593.00,2.21
5592.00,2.21
5591.00,2.21
5590.00,2.20
5589.00,2.20
5588.00,2.20
5587.00,2.19
5586.00,2.19
5585.00,2.19
5584.00,2.18
5583.00,2.18
5582.00,2.17
5581.00,2.17
5580.00,2.17
5579.00,2.16
5578.00,2.16
5577.00,2.16
5576.00,2.15
5575.00,2.15
5574.00,2.15
5573.00,2.15
5572.00,2.15
5571.00,2.15
5570.00,2.15
5569.00,2.15
5568.00,2.15
5567.00,2.15
5566.00,2.15
5565.00,2.15
5564.00,2.15
5563.00,2.15
5562.00,2.16
5561.00,2.16
5560.00,2.16
5559.00,2.17
5558.00,2.17
5557.00,2.17
5556.00,2.18
5555.00,2.18
5554.00,2.18
5553.00,2.19
5552.00,2.19
5551.00,2.20
5550.00,2.20
5549.00,2.20
5548.00,2.21
5547.00,2.21
5546.00,2.21
5545.00,2.21
5544.00,2.22
5543.00,2.22
5542.00,2.22
5541.00,2.22
5540.00,2.22
5539.00,2.22
5538.00,2.22
5537.00,2.22
5536.00,2.22
5535.00,2.22
5534.00,2.23
5533.00,2.23
5532.00,2.23
5531.00,2.23
5530.00,2.23
5529.00,2.23
5528.00,2.23
5527.00,2.23
5526.00,2.23
5525.00,2.24
5524.00,2.24
5523.00,2.24
5522.00,2.24
5521.00,2.24
5520.00,2.24
5519.00,2.24
5518.00,2.25
5517.00,2.25
5516.00,2.25
5515.00,2.25
5514.00,2.25
5513.00,2.25
5512.00,2.26
5511.00,2.26
5510.00,2.26
5509.00,2.27
5508.00,2.27
5507.00,2.27
5506.00,2.27
5505.00,2.28
5504.00,2.28
5503.00,2.28
5502.00,2.28
5501.00,2.28
5500.00,2.28
5499.00,2.28
5498.00,2.28
5497.00,2.28
5496.00,2.28
5495.00,2.28
5494.00,2.29
5493.00,2.29
5492.00,2.29
5491.00,2.29
5490.00,2.29
5489.00,2.30
5488.00,2.30
5487.00,2.30
5486.00,2.30
5485.00,2.30
5484.00,2.29
5483.00,2.29
5482.00,2.29
5481.00,2.29
5480.00,2.28
5479.00,2.28
5478.00,2.28
5477.00,2.27
5476.00,2.27
5475.00,2.27
5474.00,2.26
5473.00,2.26
5472.00,2.25
5471.00,2.25
5470.00,2.24
5469.00,2.23
5468.00,2.23
5467.00,2.22
5466.00,2.21
5465.00,2.21
5464.00,2.20
5463.00,2.20
5462.00,2.19
5461.00,2.19
5460.00,2.18
5459.00,2.18
5458.00,2.18
5457.00,2.17
5456.00,2.17
5455.00,2.17
5454.00,2.17
5453.00,2.18
5452.00,2.18
5451.00,2.18
5450.00,2.18
5449.00,2.18
5448.00,2.19
5447.00,2.19
5446.00,2.19
5445.00,2.20
5444.00,2.20
5443.00,2.21
5442.00,2.21
5441.00,2.22
5440.00,2.22
5439.00,2.23
5438.00,2.23
5437.00,2.24
5436.00,2.24
5435.00,2.24
5434.00,2.25
5433.00,2.25
5432.00,2.25
5431.00,2.25
5430.00,2.25
5429.00,2.25
5428.00,2.24
5427.00,2.24
5426.00,2.24
5425.00,2.23
5424.00,2.23
5423.00,2.23
5422.00,2.22
5421.00,2.22
5420.00,2.22
5419.00,2.21
5418.00,2.21
5417.00,2.21
5416.00,2.20
5415.00,2.20
5414.00,2.20
5413.00,2.19
5412.00,2.19
5411.00,2.19
5410.00,2.18
5409.00,2.18
5408.00,2.17
5407.00,2.17
5406.00,2.17
5405.00,2.16
5404.00,2.16
5403.00,2.16
5402.00,2.16
5401.00,2.16
5400.00,2.16
5399.00,2.15
5398.00,2.15
5397.00,2.15
5396.00,2.15
5395.00,2.15
5394.00,2.15
5393.00,2.15
5392.00,2.15
5391.00,2.15
5390.00,2.15
5389.00,2.14
5388.00,2.14
5387.00,2.14
5386.00,2.14
5385.00,2.14
5384.00,2.14
5383.00,2.15
5382.00,2.15
5381.00,2.15
5380.00,2.15
5379.00,2.15
5378.00,2.16
5377.00,2.16
5376.00,2.16
5375.00,2.16
5374.00,2.16
5373.00,2.16
5372.00,2.16
5371.00,2.16
5370.00,2.16
5369.00,2.16
5368.00,2.16
5367.00,2.16
5366.00,2.15
5365.00,2.15
5364.00,2.15
5363.00,2.14
5362.00,2.14
5361.00,2.13
5360.00,2.13
5359.00,2.12
5358.00,2.11
5357.00,2.10
5356.00,2.09
5355.00,2.08
5354.00,2.07
5353.00,2.06
5352.00,2.04
5351.00,2.03
5350.00,2.02
5349.00,2.00
5348.00,1.99
5347.00,1.98
5346.00,1.96
5345.00,1.95
5344.00,1.94
5343.00,1.92
5342.00,1.91
5341.00,1.90
5340.00,1.89
5339.00,1.87
5338.00,1.86
5337.00,1.84
5336.00,1.83
5335.00,1.82
5334.00,1.80
5333.00,1.79
5332.00,1.78
5331.00,1.76
5330.00,1.75
5329.00,1.74
5328.00,1.73
5327.00,1.71
5326.00,1.70
5325.00,1.69
5324.00,1.68
5323.00,1.67
5322.00,1.65
5321.00,1.64
5320.00,1.63
5319.00,1.61
5318.00,1.60
5317.00,1.58
5316.00,1.56
5315.00,1.55
5314.00,1.53
5313.00,1.52
5312.00,1.50
5311.00,1.49
5310.00,1.47
5309.00,1.46
5308.00,1.45
5307.00,1.43
5306.00,1.42
5305.00,1.40
5304.00,1.39
5303.00,1.38
5302.00,1.36
5301.00,1.35
5300.00,1.34
5299.00,1.32
5298.00,1.31
5297.00,1.30
5296.00,1.28
5295.00,1.27
5294.00,1.26
5293.00,1.25
5292.00,1.24
5291.00,1.23
5290.00,1.22
5289.00,1.21
5288.00,1.20
5287.00,1.19
5286.00,1.18
5285.00,1.17
5284.00,1.17
5283.00,1.16
5282.00,1.15
5281.00,1.14
5280.00,1.13
5279.00,1.12
5278.00,1.12
5277.00,1.11
5276.00,1.10
5275.00,1.10
5274.00,1.09
5273.00,1.09
5272.00,1.08
5271.00,1.08
5270.00,1.07
5269.00,1.07
5268.00,1.07
5267.00,1.06
5266.00,1.06
5265.00,1.06
5264.00,1.05
5263.00,1.05
5262.00,1.05
5261.00,1.05
5260.00,1.05
5259.00,1.05
5258.00,1.05
5257.00,1.04
5256.00,1.04
5255.00,1.04
5254.00,1.04
5253.00,1.04
5252.00,1.04
5251.00,1.04
5250.00,1.04
5249.00,1.04
5248.00,1.03
5247.00,1.03
5246.00,1.03
5245.00,1.02
5244.00,1.02
5243.00,1.02
5242.00,1.01
5241.00,1.01
5240.00,1.00
5239.00,0.99
5238.00,0.99
5237.00,0.98
5236.00,0.98
5235.00,0.97
5234.00,0.97
5233.00,0.96
5232.00,0.96
5231.00,0.95
5230.00,0.95
5229.00,0.94
5228.00,0.94
5227.00,0.93
5226.00,0.93
5225.00,0.93
5224.00,0.92
5223.00,0.92
5222.00,0.92
5221.00,0.92
5220.00,0.92
5219.00,0.92
5218.00,0.92
5217.00,0.92
5216.00,0.92
5215.00,0.92
5214.00,0.92
5213.00,0.92
5212.00,0.92
5211.00,0.93
5210.00,0.93
5209.00,0.93
5208.00,0.94
5207.00,0.94
5206.00,0.95
5205.00,0.95
5204.00,0.95
5203.00,0.95
5202.00,0.95
5201.00,0.96
5200.00,0.96
5199.00,0.96
5198.00,0.96
5197.00,0.96
5196.00,0.97
5195.00,0.97
5194.00,0.97
5193.00,0.97
5192.00,0.97
5191.00,0.97
5190.00,0.98
5189.00,0.98
5188.00,0.98
5187.00,0.98
5186.00,0.98
5185.00,0.98
5184.00,0.98
5183.00,0.98
5182.00,0.98
5181.00,0.98
5180.00,0.98
5179.00,0.98
5178.00,0.98
5177.00,0.98
5176.00,0.98
5175.00,0.98
5174.00,0.98
5173.00,0.98
5172.00,0.98
5171.00,0.99
5170.00,0.99
5169.00,0.99
5168.00,0.99
5167.00,0.99
5166.00,0.99
5165.00,0.99
5164.00,1.00
5163.00,1.00
5162.00,1.00
5161.00,1.00
5160.00,1.00
5159.00,1.00
5158.00,1.01
5157.00,1.01
5156.00,1.01
5155.00,1.01
5154.00,1.01
5153.00,1.02
5152.00,1.02
5151.00,1.02
5150.00,1.02
5149.00,1.02
5148.00,1.02
5147.00,1.02
5146.00,1.02
5145.00,1.02
5144.00,1.02
5143.00,1.02
5142.00,1.02
5141.00,1.03
5140.00,1.03
5139.00,1.03
5138.00,1.03
5137.00,1.03
5136.00,1.03
5135.00,1.03
5134.00,1.03
5133.00,1.03
5132.00,1.03
5131.00,1.03
5130.00,1.03
5129.00,1.03
5128.00,1.03
5127.00,1.03
5126.00,1.03
5125.00,1.03
5124.00,1.03
5123.00,1.03
5122.00,1.03
5121.00,1.03
5120.00,1.03
5119.00,1.03
5118.00,1.03
5117.00,1.03
5116.00,1.03
5115.00,1.03
5114.00,1.03
5113.00,1.03
5112.00,1.03
5111.00,1.03
5110.00,1.03
5109.00,1.03
5108.00,1.03
5107.00,1.03
5106.00,1.03
5105.00,1.03
5104.00,1.03
5103.00,1.03
5102.00,1.04
5101.00,1.04
5100.00,1.04
5099.00,1.04
5098.00,1.04
5097.00,1.04
5096.00,1.04
5095.00,1.04
5094.00,1.04
5093.00,1.04
5092.00,1.04
5091.00,1.04
5090.00,1.04
5089.00,1.04
5088.00,1.04
5087.00,1.05
5086.00,1.05
5085.00,1.05
5084.00,1.05
5083.00,1.05
5082.00,1.05
5081.00,1.05
5080.00,1.05
5079.00,1.05
5078.00,1.05
5077.00,1.06
5076.00,1.06
5075.00,1.06
5074.00,1.06
5073.00,1.06
5072.00,1.07
5071.00,1.07
5070.00,1.08
5069.00,1.08
5068.00,1.08
5067.00,1.09
5066.00,1.09
5065.00,1.10
5064.00,1.10
5063.00,1.10
5062.00,1.11
5061.00,1.11
5060.00,1.11
5059.00,1.11
5058.00,1.12
5057.00,1.12
5056.00,1.12
5055.00,1.12
5054.00,1.13
5053.00,1.13
5052.00,1.13
5051.00,1.13
5050.00,1.14
5049.00,1.14
5048.00,1.14
5047.00,1.14
5046.00,1.14
5045.00,1.14
5044.00,1.13
5043.00,1.13
5042.00,1.13
5041.00,1.13
5040.00,1.13
5039.00,1.13
5038.00,1.13
5037.00,1.13
5036.00,1.12
5035.00,1.12
5034.00,1.12
5033.00,1.12
5032.00,1.12
5031.00,1.13
5030.00,1.13
5029.00,1.13
5028.00,1.13
5027.00,1.13
5026.00,1.13
5025.00,1.14
5024.00,1.14
5023.00,1.14
5022.00,1.14
5021.00,1.15
5020.00,1.15
5019.00,1.15
5018.00,1.15
5017.00,1.16
5016.00,1.16
5015.00,1.16
5014.00,1.17
5013.00,1.17
5012.00,1.17
5011.00,1.18
5010.00,1.18
5009.00,1.19
5008.00,1.19
5007.00,1.19
5006.00,1.20
5005.00,1.20
5004.00,1.21
5003.00,1.21
5002.00,1.21
5001.00,1.21
5000.00,1.21
4999.00,1.21
4998.00,1.21
4997.00,1.21
4996.00,1.22
4995.00,1.22
4994.00,1.22
4993.00,1.22
4992.00,1.23
4991.00,1.23
4990.00,1.23
4989.00,1.24
4988.00,1.24
4987.00,1.24
4986.00,1.25
4985.00,1.25
4984.00,1.25
4983.00,1.25
4982.00,1.25
4981.00,1.25
4980.00,1.26
4979.00,1.26
4978.00,1.26
4977.00,1.26
4976.00,1.26
4975.00,1.26
4974.00,1.27
4973.00,1.27
4972.00,1.27
4971.00,1.27
4970.00,1.28
4969.00,1.28
4968.00,1.28
4967.00,1.28
4966.00,1.28
4965.00,1.28
4964.00,1.28
4963.00,1.28
4962.00,1.28
4961.00,1.29
4960.00,1.29
4959.00,1.29
4958.00,1.29
4957.00,1.29
4956.00,1.29
4955.00,1.29
4954.00,1.29
4953.00,1.29
4952.00,1.29
4951.00,1.30
4950.00,1.30
4949.00,1.30
4948.00,1.30
4947.00,1.30
4946.00,1.30
4945.00,1.30
4944.00,1.31
4943.00,1.31
4942.00,1.31
4941.00,1.32
4940.00,1.32
4939.00,1.32
4938.00,1.33
4937.00,1.33
4936.00,1.34
4935.00,1.34
4934.00,1.34
4933.00,1.35
4932.00,1.35
4931.00,1.35
4930.00,1.36
4929.00,1.36
4928.00,1.36
4927.00,1.37
4926.00,1.37
4925.00,1.37
4924.00,1.37
4923.00,1.38
4922.00,1.38
4921.00,1.38
4920.00,1.39
4919.00,1.39
4918.00,1.39
4917.00,1.40
4916.00,1.40
4915.00,1.40
4914.00,1.40
4913.00,1.40
4912.00,1.40
4911.00,1.40
4910.00,1.40
4909.00,1.40
4908.00,1.40
4907.00,1.41
4906.00,1.41
4905.00,1.41
4904.00,1.41
4903.00,1.42
4902.00,1.42
4901.00,1.42
4900.00,1.43
4899.00,1.43
4898.00,1.43
4897.00,1.44
4896.00,1.44
4895.00,1.45
4894.00,1.45
4893.00,1.45
4892.00,1.46
4891.00,1.46
4890.00,1.46
4889.00,1.47
4888.00,1.47
4887.00,1.48
4886.00,1.48
4885.00,1.48
4884.00,1.49
4883.00,1.49
4882.00,1.49
4881.00,1.49
4880.00,1.49
4879.00,1.49
4878.00,1.49
4877.00,1.49
4876.00,1.49
4875.00,1.49
4874.00,1.49
4873.00,1.49
4872.00,1.49
4871.00,1.49
4870.00,1.49
4869.00,1.49
4868.00,1.49
4867.00,1.49
4866.00,1.49
4865.00,1.49
4864.00,1.49
4863.00,1.49
4862.00,1.49
4861.00,1.49
4860.00,1.49
4859.00,1.49
4858.00,1.49
4857.00,1.50
4856.00,1.50
4855.00,1.50
4854.00,1.50
4853.00,1.51
4852.00,1.51
4851.00,1.51
4850.00,1.51
4849.00,1.51
4848.00,1.52
4847.00,1.52
4846.00,1.52
4845.00,1.52
4844.00,1.52
4843.00,1.52
4842.00,1.52
4841.00,1.52
4840.00,1.53
4839.00,1.53
4838.00,1.53
4837.00,1.53
4836.00,1.53
4835.00,1.53
4834.00,1.53
4833.00,1.53
4832.00,1.53
4831.00,1.53
4830.00,1.53
4829.00,1.53
4828.00,1.53
4827.00,1.53
4826.00,1.53
4825.00,1.53
4824.00,1.54
4823.00,1.54
4822.00,1.54
4821.00,1.55
4820.00,1.55
4819.00,1.55
4818.00,1.56
4817.00,1.56
4816.00,1.57
4815.00,1.57
4814.00,1.58
4813.00,1.58
4812.00,1.59
4811.00,1.59
4810.00,1.60
4809.00,1.60
4808.00,1.60
4807.00,1.61
4806.00,1.61
4805.00,1.62
4804.00,1.62
4803.00,1.63
4802.00,1.63
4801.00,1.63
4800.00,1.64
4799.00,1.64
4798.00,1.64
4797.00,1.65
4796.00,1.65
4795.00,1.65
4794.00,1.66
4793.00,1.66
4792.00,1.67
4791.00,1.67
4790.00,1.68
4789.00,1.68
4788.00,1.69
4787.00,1.69
4786.00,1.69
4785.00,1.70
4784.00,1.70
4783.00,1.71
4782.00,1.71
4781.00,1.72
4780.00,1.72
4779.00,1.73
4778.00,1.73
4777.00,1.74
4776.00,1.75
4775.00,1.75
4774.00,1.76
4773.00,1.76
4772.00,1.77
4771.00,1.77
4770.00,1.78
4769.00,1.78
4768.00,1.78
4767.00,1.78
4766.00,1.78
4765.00,1.78
4764.00,1.78
4763.00,1.78
4762.00,1.77
4761.00,1.77
4760.00,1.77
4759.00,1.77
4758.00,1.77
4757.00,1.77
4756.00,1.77
4755.00,1.77
4754.00,1.77
4753.00,1.77
4752.00,1.76
4751.00,1.76
4750.00,1.76
4749.00,1.76
4748.00,1.76
4747.00,1.76
4746.00,1.76
4745.00,1.76
4744.00,1.76
4743.00,1.76
4742.00,1.77
4741.00,1.77
4740.00,1.78
4739.00,1.78
4738.00,1.79
4737.00,1.80
4736.00,1.80
4735.00,1.81
4734.00,1.82
4733.00,1.82
4732.00,1.83
4731.00,1.83
4730.00,1.84
4729.00,1.84
4728.00,1.85
4727.00,1.85
4726.00,1.86
4725.00,1.86
4724.00,1.86
4723.00,1.87
4722.00,1.87
4721.00,1.88
4720.00,1.88
4719.00,1.88
4718.00,1.88
4717.00,1.88
4716.00,1.88
4715.00,1.88
4714.00,1.88
4713.00,1.88
4712.00,1.88
4711.00,1.88
4710.00,1.88
4709.00,1.88
4708.00,1.88
4707.00,1.88
4706.00,1.88
4705.00,1.88
4704.00,1.89
4703.00,1.89
4702.00,1.89
4701.00,1.89
4700.00,1.90
4699.00,1.90
4698.00,1.90
4697.00,1.91
4696.00,1.91
4695.00,1.92
4694.00,1.92
4693.00,1.92
4692.00,1.93
4691.00,1.93
4690.00,1.94
4689.00,1.94
4688.00,1.94
4687.00,1.95
4686.00,1.95
4685.00,1.95
4684.00,1.96
4683.00,1.96
4682.00,1.96
4681.00,1.97
4680.00,1.97
4679.00,1.97
4678.00,1.97
4677.00,1.97
4676.00,1.97
4675.00,1.98
4674.00,1.98
4673.00,1.98
4672.00,1.98
4671.00,1.98
4670.00,1.98
4669.00,1.97
4668.00,1.97
4667.00,1.97
4666.00,1.97
4665.00,1.97
4664.00,1.98
4663.00,1.98
4662.00,1.98
4661.00,1.98
4660.00,1.99
4659.00,1.99
4658.00,1.99
4657.00,2.00
4656.00,2.00
4655.00,2.01
4654.00,2.01
4653.00,2.02
4652.00,2.02
4651.00,2.03
4650.00,2.03
4649.00,2.04
4648.00,2.04
4647.00,2.04
4646.00,2.05
4645.00,2.05
4644.00,2.06
4643.00,2.06
4642.00,2.07
4641.00,2.07
4640.00,2.07
4639.00,2.08
4638.00,2.08
4637.00,2.08
4636.00,2.08
4635.00,2.08
4634.00,2.08
4633.00,2.07
4632.00,2.07
4631.00,2.07
4630.00,2.07
4629.00,2.06
4628.00,2.06
4627.00,2.05
4626.00,2.05
4625.00,2.05
4624.00,2.05
4623.00,2.05
4622.00,2.05
4621.00,2.05
4620.00,2.05
4619.00,2.05
4618.00,2.05
4617.00,2.05
4616.00,2.05
4615.00,2.05
4614.00,2.06
4613.00,2.06
4612.00,2.06
4611.00,2.07
4610.00,2.07
4609.00,2.08
4608.00,2.08
4607.00,2.09
4606.00,2.09
4605.00,2.10
4604.00,2.11
4603.00,2.12
4602.00,2.12
4601.00,2.13
4600.00,2.14
4599.00,2.14
4598.00,2.15
4597.00,2.15
4596.00,2.16
4595.00,2.16
4594.00,2.16
4593.00,2.17
4592.00,2.17
4591.00,2.18
4590.00,2.18
4589.00,2.19
4588.00,2.19
4587.00,2.19
4586.00,2.19
4585.00,2.20
4584.00,2.20
4583.00,2.20
4582.00,2.20
4581.00,2.21
4580.00,2.21
4579.00,2.21
4578.00,2.21
4577.00,2.22
4576.00,2.22
4575.00,2.22
4574.00,2.22
4573.00,2.23
4572.00,2.23
4571.00,2.24
4570.00,2.24
4569.00,2.24
4568.00,2.25
4567.00,2.25
4566.00,2.25
4565.00,2.25
4564.00,2.25
4563.00,2.25
4562.00,2.25
4561.00,2.25
4560.00,2.25
4559.00,2.25
4558.00,2.25
4557.00,2.25
4556.00,2.25
4555.00,2.25
4554.00,2.25
4553.00,2.25
4552.00,2.25
4551.00,2.25
4550.00,2.25
4549.00,2.25
4548.00,2.25
4547.00,2.24
4546.00,2.24
4545.00,2.24
4544.00,2.24
4543.00,2.23
4542.00,2.23
4541.00,2.23
4540.00,2.23
4539.00,2.23
4538.00,2.22
4537.00,2.22
4536.00,2.22
4535.00,2.22
4534.00,2.22
4533.00,2.22
4532.00,2.22
4531.00,2.22
4530.00,2.22
4529.00,2.22
4528.00,2.22
4527.00,2.22
4526.00,2.22
4525.00,2.21
4524.00,2.21
4523.00,2.21
4522.00,2.21
4521.00,2.21
4520.00,2.20
4519.00,2.20
4518.00,2.20
4517.00,2.20
4516.00,2.20
4515.00,2.20
4514.00,2.20
4513.00,2.20
4512.00,2.20
4511.00,2.20
4510.00,2.20
4509.00,2.20
4508.00,2.20
4507.00,2.20
4506.00,2.20
4505.00,2.20
4504.00,2.21
4503.00,2.21
4502.00,2.21
4501.00,2.21
4500.00,2.21
4499.00,2.22
4498.00,2.22
4497.00,2.22
4496.00,2.22
4495.00,2.23
4494.00,2.23
4493.00,2.23
4492.00,2.23
4491.00,2.24
4490.00,2.24
4489.00,2.24
4488.00,2.24
4487.00,2.24
4486.00,2.24
4485.00,2.24
4484.00,2.24
4483.00,2.24
4482.00,2.24
4481.00,2.24
4480.00,2.24
4479.00,2.23
4478.00,2.23
4477.00,2.23
4476.00,2.22
4475.00,2.22
4474.00,2.21
4473.00,2.21
4472.00,2.20
4471.00,2.20
4470.00,2.19
4469.00,2.18
4468.00,2.17
4467.00,2.17
4466.00,2.16
4465.00,2.15
4464.00,2.14
4463.00,2.13
4462.00,2.12
4461.00,2.11
4460.00,2.10
4459.00,2.09
4458.00,2.08
4457.00,2.06
4456.00,2.05
4455.00,2.04
4454.00,2.03
4453.00,2.02
4452.00,2.01
4451.00,2.00
4450.00,1.99
4449.00,1.98
4448.00,1.97
4447.00,1.95
4446.00,1.94
4445.00,1.93
4444.00,1.92
4443.00,1.91
4442.00,1.90
4441.00,1.89
4440.00,1.88
4439.00,1.87
4438.00,1.86
4437.00,1.85
4436.00,1.84
4435.00,1.84
4434.00,1.83
4433.00,1.82
4432.00,1.81
4431.00,1.80
4430.00,1.79
4429.00,1.78
4428.00,1.78
4427.00,1.77
4426.00,1.76
4425.00,1.76
4424.00,1.75
4423.00,1.75
4422.00,1.74
4421.00,1.74
4420.00,1.74
4419.00,1.74
4418.00,1.73
4417.00,1.73
4416.00,1.73
4415.00,1.73
4414.00,1.73
4413.00,1.74
4412.00,1.74
4411.00,1.74
4410.00,1.75
4409.00,1.75
4408.00,1.76
4407.00,1.77
4406.00,1.77
4405.00,1.78
4404.00,1.79
4403.00,1.80
4402.00,1.81
4401.00,1.82
4400.00,1.83
4399.00,1.84
4398.00,1.85
4397.00,1.85
4396.00,1.86
4395.00,1.87
4394.00,1.88
4393.00,1.88
4392.00,1.89
4391.00,1.90
4390.00,1.90
4389.00,1.91
4388.00,1.91
4387.00,1.92
4386.00,1.92
4385.00,1.93
4384.00,1.93
4383.00,1.93
4382.00,1.93
4381.00,1.93
4380.00,1.93
4379.00,1.93
4378.00,1.93
4377.00,1.93
4376.00,1.93
4375.00,1.92
4374.00,1.92
4373.00,1.92
4372.00,1.91
4371.00,1.91
4370.00,1.91
4369.00,1.91
4368.00,1.91
4367.00,1.91
4366.00,1.90
4365.00,1.90
4364.00,1.90
4363.00,1.90
4362.00,1.90
4361.00,1.90
4360.00,1.90
4359.00,1.89
4358.00,1.89
4357.00,1.89
4356.00,1.89
4355.00,1.89
4354.00,1.88
4353.00,1.88
4352.00,1.88
4351.00,1.88
4350.00,1.87
4349.00,1.87
4348.00,1.87
4347.00,1.87
4346.00,1.87
4345.00,1.87
4344.00,1.87
4343.00,1.87
4342.00,1.87
4341.00,1.87
4340.00,1.87
4339.00,1.87
4338.00,1.86
4337.00,1.86
4336.00,1.86
4335.00,1.86
4334.00,1.86
4333.00,1.86
4332.00,1.86
4331.00,1.86
4330.00,1.86
4329.00,1.86
4328.00,1.87
4327.00,1.87
4326.00,1.88
4325.00,1.88
4324.00,1.89
4323.00,1.90
4322.00,1.90
4321.00,1.91
4320.00,1.91
4319.00,1.92
4318.00,1.93
4317.00,1.93
4316.00,1.94
4315.00,1.95
4314.00,1.95
4313.00,1.96
4312.00,1.97
4311.00,1.98
4310.00,1.98
4309.00,1.99
4308.00,2.00
4307.00,2.00
4306.00,2.01
4305.00,2.02
4304.00,2.02
4303.00,2.03
4302.00,2.03
4301.00,2.04
4300.00,2.04
4299.00,2.05
4298.00,2.05
4297.00,2.06
4296.00,2.06
4295.00,2.06
4294.00,2.06
4293.00,2.06
4292.00,2.07
4291.00,2.07
4290.00,2.07
4289.00,2.07
4288.00,2.07
4287.00,2.07
4286.00,2.07
4285.00,2.07
4284.00,2.07
4283.00,2.07
4282.00,2.07
4281.00,2.07
4280.00,2.07
4279.00,2.06
4278.00,2.06
4277.00,2.06
4276.00,2.06
4275.00,2.06
4274.00,2.06
4273.00,2.05
4272.00,2.05
4271.00,2.05
4270.00,2.04
4269.00,2.04
4268.00,2.04
4267.00,2.03
4266.00,2.03
4265.00,2.03
4264.00,2.03
4263.00,2.03
4262.00,2.03
4261.00,2.02
4260.00,2.02
4259.00,2.02
4258.00,2.02
4257.00,2.02
4256.00,2.02
4255.00,2.02
4254.00,2.02
4253.00,2.02
4252.00,2.02
4251.00,2.02
4250.00,2.02
4249.00,2.02
4248.00,2.02
4247.00,2.02
4246.00,2.02
4245.00,2.02
4244.00,2.03
4243.00,2.03
4242.00,2.03
4241.00,2.03
4240.00,2.03
4239.00,2.04
4238.00,2.04
4237.00,2.04
4236.00,2.04
4235.00,2.04
4234.00,2.04
4233.00,2.04
4232.00,2.04
4231.00,2.04
4230.00,2.04
4229.00,2.04
4228.00,2.04
4227.00,2.04
4226.00,2.04
4225.00,2.04
4224.00,2.04
4223.00,2.04
4222.00,2.03
4221.00,2.03
4220.00,2.03
4219.00,2.03
4218.00,2.03
4217.00,2.02
4216.00,2.02
4215.00,2.01
4214.00,2.01
4213.00,2.00
4212.00,2.00
4211.00,1.99
4210.00,1.98
4209.00,1.98
4208.00,1.97
4207.00,1.97
4206.00,1.96
4205.00,1.96
4204.00,1.96
4203.00,1.95
4202.00,1.95
4201.00,1.95
4200.00,1.94
4199.00,1.94
4198.00,1.94
4197.00,1.94
4196.00,1.94
4195.00,1.93
4194.00,1.93
4193.00,1.93
4192.00,1.93
4191.00,1.94
4190.00,1.94
4189.00,1.94
4188.00,1.95
4187.00,1.95
4186.00,1.96
4185.00,1.96
4184.00,1.97
4183.00,1.97
4182.00,1.98
4181.00,1.98
4180.00,1.99
4179.00,1.99
4178.00,2.00
4177.00,2.00
4176.00,2.00
4175.00,2.00
4174.00,2.01
4173.00,2.01
4172.00,2.01
4171.00,2.01
4170.00,2.02
4169.00,2.02
4168.00,2.02
4167.00,2.02
4166.00,2.02
4165.00,2.03
4164.00,2.03
4163.00,2.03
4162.00,2.03
4161.00,2.03
4160.00,2.03
4159.00,2.04
4158.00,2.04
4157.00,2.04
4156.00,2.04
4155.00,2.04
4154.00,2.04
4153.00,2.04
4152.00,2.05
4151.00,2.05
4150.00,2.05
4149.00,2.05
4148.00,2.06
4147.00,2.06
4146.00,2.06
4145.00,2.07
4144.00,2.07
4143.00,2.07
4142.00,2.07
4141.00,2.08
4140.00,2.08
4139.00,2.08
4138.00,2.08
4137.00,2.08
4136.00,2.09
4135.00,2.09
4134.00,2.08
4133.00,2.08
4132.00,2.08
4131.00,2.08
4130.00,2.08
4129.00,2.08
4128.00,2.08
4127.00,2.08
4126.00,2.08
4125.00,2.08
4124.00,2.08
4123.00,2.08
4122.00,2.08
4121.00,2.07
4120.00,2.07
4119.00,2.07
4118.00,2.07
4117.00,2.07
4116.00,2.06
4115.00,2.06
4114.00,2.06
4113.00,2.05
4112.00,2.05
4111.00,2.04
4110.00,2.04
4109.00,2.03
4108.00,2.03
4107.00,2.03
4106.00,2.03
4105.00,2.03
4104.00,2.02
4103.00,2.02
4102.00,2.02
4101.00,2.02
4100.00,2.01
4099.00,2.01
4098.00,2.01
4097.00,2.01
4096.00,2.00
4095.00,2.00
4094.00,1.99
4093.00,1.99
4092.00,1.98
4091.00,1.97
4090.00,1.97
4089.00,1.96
4088.00,1.95
4087.00,1.95
4086.00,1.94
4085.00,1.94
4084.00,1.93
4083.00,1.93
4082.00,1.92
4081.00,1.92
4080.00,1.92
4079.00,1.91
4078.00,1.91
4077.00,1.91
4076.00,1.91
4075.00,1.90
4074.00,1.90
4073.00,1.90
4072.00,1.90
4071.00,1.90
4070.00,1.90
4069.00,1.91
4068.00,1.91
4067.00,1.92
4066.00,1.93
4065.00,1.94
4064.00,1.96
4063.00,1.97
4062.00,1.98
4061.00,1.99
4060.00,2.01
4059.00,2.02
4058.00,2.03
4057.00,2.05
4056.00,2.06
4055.00,2.07
4054.00,2.08
4053.00,2.09
4052.00,2.10
4051.00,2.10
4050.00,2.11
4049.00,2.11
4048.00,2.11
4047.00,2.12
4046.00,2.12
4045.00,2.12
4044.00,2.12
4043.00,2.12
4042.00,2.12
4041.00,2.11
4040.00,2.11
4039.00,2.10
4038.00,2.09
4037.00,2.08
4036.00,2.07
4035.00,2.06
4034.00,2.05
4033.00,2.04
4032.00,2.03
4031.00,2.02
4030.00,2.01
4029.00,2.00
4028.00,2.00
4027.00,1.99
4026.00,1.99
4025.00,1.98
4024.00,1.98
4023.00,1.98
4022.00,1.99
4021.00,1.99
4020.00,1.99
4019.00,2.00
4018.00,2.00
4017.00,2.01
4016.00,2.02
4015.00,2.03
4014.00,2.05
4013.00,2.06
4012.00,2.08
4011.00,2.10
4010.00,2.12
4009.00,2.14
4008.00,2.16
4007.00,2.19
4006.00,2.21
4005.00,2.24
4004.00,2.26
4003.00,2.29
4002.00,2.31
4001.00,2.34
4000.00,2.36
