创建为新数据集,样品 987 用户 Administrator 日期 星期二, 七月 30 2019
cm-1,%T
10000.00,1.37
9999.00,1.37
9998.00,1.37
9997.00,1.37
9996.00,1.37
9995.00,1.37
9994.00,1.37
9993.00,1.37
9992.00,1.37
9991.00,1.37
9990.00,1.37
9989.00,1.38
9988.00,1.38
9987.00,1.38
9986.00,1.39
9985.00,1.39
9984.00,1.40
9983.00,1.40
9982.00,1.41
9981.00,1.42
9980.00,1.43
9979.00,1.44
9978.00,1.45
9977.00,1.46
9976.00,1.47
9975.00,1.48
9974.00,1.49
9973.00,1.50
9972.00,1.51
9971.00,1.51
9970.00,1.51
9969.00,1.51
9968.00,1.51
9967.00,1.51
9966.00,1.51
9965.00,1.51
9964.00,1.51
9963.00,1.51
9962.00,1.51
9961.00,1.50
9960.00,1.50
9959.00,1.50
9958.00,1.49
9957.00,1.49
9956.00,1.48
9955.00,1.47
9954.00,1.45
9953.00,1.44
9952.00,1.42
9951.00,1.41
9950.00,1.39
9949.00,1.37
9948.00,1.35
9947.00,1.33
9946.00,1.31
9945.00,1.30
9944.00,1.28
9943.00,1.26
9942.00,1.24
9941.00,1.23
9940.00,1.21
9939.00,1.20
9938.00,1.19
9937.00,1.17
9936.00,1.16
9935.00,1.15
9934.00,1.14
9933.00,1.13
9932.00,1.12
9931.00,1.12
9930.00,1.11
9929.00,1.10
9928.00,1.10
9927.00,1.10
9926.00,1.10
9925.00,1.10
9924.00,1.10
9923.00,1.11
9922.00,1.11
9921.00,1.12
9920.00,1.12
9919.00,1.13
9918.00,1.14
9917.00,1.15
9916.00,1.15
9915.00,1.16
9914.00,1.17
9913.00,1.17
9912.00,1.17
9911.00,1.18
9910.00,1.18
9909.00,1.18
9908.00,1.19
9907.00,1.19
9906.00,1.19
9905.00,1.19
9904.00,1.19
9903.00,1.19
9902.00,1.19
9901.00,1.19
9900.00,1.18
9899.00,1.18
9898.00,1.17
9897.00,1.17
9896.00,1.16
9895.00,1.15
9894.00,1.14
9893.00,1.13
9892.00,1.12
9891.00,1.11
9890.00,1.10
9889.00,1.09
9888.00,1.09
9887.00,1.08
9886.00,1.07
9885.00,1.06
9884.00,1.06
9883.00,1.05
9882.00,1.05
9881.00,1.04
9880.00,1.04
9879.00,1.03
9878.00,1.03
9877.00,1.02
9876.00,1.02
9875.00,1.02
9874.00,1.02
9873.00,1.02
9872.00,1.02
9871.00,1.02
9870.00,1.02
9869.00,1.02
9868.00,1.03
9867.00,1.03
9866.00,1.04
9865.00,1.04
9864.00,1.05
9863.00,1.05
9862.00,1.06
9861.00,1.06
9860.00,1.06
9859.00,1.07
9858.00,1.07
9857.00,1.07
9856.00,1.06
9855.00,1.06
9854.00,1.06
9853.00,1.05
9852.00,1.05
9851.00,1.04
9850.00,1.04
9849.00,1.03
9848.00,1.02
9847.00,1.02
9846.00,1.01
9845.00,1.00
9844.00,1.00
9843.00,0.99
9842.00,0.98
9841.00,0.98
9840.00,0.97
9839.00,0.96
9838.00,0.96
9837.00,0.95
9836.00,0.94
9835.00,0.94
9834.00,0.93
9833.00,0.93
9832.00,0.92
9831.00,0.92
9830.00,0.92
9829.00,0.92
9828.00,0.92
9827.00,0.92
9826.00,0.92
9825.00,0.93
9824.00,0.93
9823.00,0.94
9822.00,0.95
9821.00,0.95
9820.00,0.96
9819.00,0.97
9818.00,0.98
9817.00,0.99
9816.00,1.00
9815.00,1.01
9814.00,1.02
9813.00,1.03
9812.00,1.04
9811.00,1.05
9810.00,1.06
9809.00,1.07
9808.00,1.08
9807.00,1.09
9806.00,1.10
9805.00,1.11
9804.00,1.12
9803.00,1.13
9802.00,1.14
9801.00,1.14
9800.00,1.15
9799.00,1.16
9798.00,1.16
9797.00,1.16
9796.00,1.16
9795.00,1.16
9794.00,1.16
9793.00,1.16
9792.00,1.15
9791.00,1.14
9790.00,1.13
9789.00,1.12
9788.00,1.11
9787.00,1.10
9786.00,1.09
9785.00,1.08
9784.00,1.07
9783.00,1.06
9782.00,1.05
9781.00,1.04
9780.00,1.03
9779.00,1.02
9778.00,1.02
9777.00,1.01
9776.00,1.00
9775.00,0.99
9774.00,0.98
9773.00,0.98
9772.00,0.97
9771.00,0.96
9770.00,0.96
9769.00,0.96
9768.00,0.96
9767.00,0.96
9766.00,0.96
9765.00,0.97
9764.00,0.97
9763.00,0.98
9762.00,0.99
9761.00,1.00
9760.00,1.01
9759.00,1.01
9758.00,1.02
9757.00,1.03
9756.00,1.04
9755.00,1.05
9754.00,1.05
9753.00,1.06
9752.00,1.07
9751.00,1.07
9750.00,1.08
9749.00,1.08
9748.00,1.08
9747.00,1.09
9746.00,1.09
9745.00,1.09
9744.00,1.09
9743.00,1.10
9742.00,1.10
9741.00,1.09
9740.00,1.09
9739.00,1.09
9738.00,1.08
9737.00,1.08
9736.00,1.07
9735.00,1.07
9734.00,1.06
9733.00,1.05
9732.00,1.05
9731.00,1.04
9730.00,1.04
9729.00,1.03
9728.00,1.03
9727.00,1.02
9726.00,1.02
9725.00,1.02
9724.00,1.01
9723.00,1.01
9722.00,1.01
9721.00,1.01
9720.00,1.01
9719.00,1.01
9718.00,1.01
9717.00,1.01
9716.00,1.01
9715.00,1.01
9714.00,1.01
9713.00,1.01
9712.00,1.02
9711.00,1.02
9710.00,1.02
9709.00,1.03
9708.00,1.03
9707.00,1.03
9706.00,1.04
9705.00,1.04
9704.00,1.04
9703.00,1.05
9702.00,1.05
9701.00,1.05
9700.00,1.05
9699.00,1.06
9698.00,1.06
9697.00,1.06
9696.00,1.06
9695.00,1.06
9694.00,1.06
9693.00,1.05
9692.00,1.05
9691.00,1.04
9690.00,1.04
9689.00,1.03
9688.00,1.03
9687.00,1.02
9686.00,1.02
9685.00,1.02
9684.00,1.01
9683.00,1.01
9682.00,1.01
9681.00,1.01
9680.00,1.01
9679.00,1.01
9678.00,1.00
9677.00,1.00
9676.00,1.00
9675.00,1.00
9674.00,1.00
9673.00,1.00
9672.00,1.00
9671.00,1.01
9670.00,1.01
9669.00,1.01
9668.00,1.02
9667.00,1.02
9666.00,1.03
9665.00,1.04
9664.00,1.04
9663.00,1.05
9662.00,1.06
9661.00,1.07
9660.00,1.07
9659.00,1.08
9658.00,1.08
9657.00,1.09
9656.00,1.09
9655.00,1.09
9654.00,1.09
9653.00,1.09
9652.00,1.09
9651.00,1.09
9650.00,1.09
9649.00,1.09
9648.00,1.09
9647.00,1.09
9646.00,1.08
9645.00,1.08
9644.00,1.08
9643.00,1.07
9642.00,1.07
9641.00,1.06
9640.00,1.06
9639.00,1.05
9638.00,1.04
9637.00,1.04
9636.00,1.03
9635.00,1.02
9634.00,1.01
9633.00,1.00
9632.00,1.00
9631.00,0.99
9630.00,0.98
9629.00,0.98
9628.00,0.97
9627.00,0.97
9626.00,0.96
9625.00,0.96
9624.00,0.96
9623.00,0.95
9622.00,0.95
9621.00,0.95
9620.00,0.94
9619.00,0.94
9618.00,0.94
9617.00,0.94
9616.00,0.94
9615.00,0.94
9614.00,0.94
9613.00,0.94
9612.00,0.95
9611.00,0.95
9610.00,0.95
9609.00,0.96
9608.00,0.96
9607.00,0.97
9606.00,0.97
9605.00,0.98
9604.00,0.98
9603.00,0.98
9602.00,0.99
9601.00,0.99
9600.00,1.00
9599.00,1.00
9598.00,1.00
9597.00,1.01
9596.00,1.01
9595.00,1.01
9594.00,1.02
9593.00,1.02
9592.00,1.02
9591.00,1.02
9590.00,1.02
9589.00,1.01
9588.00,1.01
9587.00,1.00
9586.00,1.00
9585.00,0.99
9584.00,0.99
9583.00,0.98
9582.00,0.97
9581.00,0.97
9580.00,0.96
9579.00,0.95
9578.00,0.95
9577.00,0.94
9576.00,0.93
9575.00,0.93
9574.00,0.92
9573.00,0.92
9572.00,0.91
9571.00,0.91
9570.00,0.90
9569.00,0.90
9568.00,0.90
9567.00,0.90
9566.00,0.90
9565.00,0.90
9564.00,0.91
9563.00,0.92
9562.00,0.92
9561.00,0.93
9560.00,0.94
9559.00,0.95
9558.00,0.96
9557.00,0.96
9556.00,0.97
9555.00,0.98
9554.00,0.99
9553.00,1.00
9552.00,1.01
9551.00,1.02
9550.00,1.03
9549.00,1.04
9548.00,1.04
9547.00,1.05
9546.00,1.06
9545.00,1.07
9544.00,1.07
9543.00,1.08
9542.00,1.08
9541.00,1.08
9540.00,1.08
9539.00,1.08
9538.00,1.08
9537.00,1.08
9536.00,1.08
9535.00,1.08
9534.00,1.07
9533.00,1.07
9532.00,1.07
9531.00,1.08
9530.00,1.08
9529.00,1.08
9528.00,1.08
9527.00,1.08
9526.00,1.09
9525.00,1.09
9524.00,1.09
9523.00,1.09
9522.00,1.09
9521.00,1.09
9520.00,1.10
9519.00,1.10
9518.00,1.10
9517.00,1.11
9516.00,1.11
9515.00,1.11
9514.00,1.12
9513.00,1.12
9512.00,1.12
9511.00,1.13
9510.00,1.13
9509.00,1.12
9508.00,1.12
9507.00,1.12
9506.00,1.11
9505.00,1.10
9504.00,1.09
9503.00,1.08
9502.00,1.07
9501.00,1.06
9500.00,1.05
9499.00,1.04
9498.00,1.03
9497.00,1.02
9496.00,1.01
9495.00,0.99
9494.00,0.98
9493.00,0.97
9492.00,0.96
9491.00,0.95
9490.00,0.94
9489.00,0.93
9488.00,0.92
9487.00,0.91
9486.00,0.91
9485.00,0.90
9484.00,0.90
9483.00,0.89
9482.00,0.89
9481.00,0.89
9480.00,0.89
9479.00,0.89
9478.00,0.89
9477.00,0.89
9476.00,0.90
9475.00,0.90
9474.00,0.90
9473.00,0.91
9472.00,0.91
9471.00,0.92
9470.00,0.92
9469.00,0.93
9468.00,0.94
9467.00,0.94
9466.00,0.95
9465.00,0.95
9464.00,0.96
9463.00,0.96
9462.00,0.97
9461.00,0.97
9460.00,0.97
9459.00,0.98
9458.00,0.98
9457.00,0.98
9456.00,0.98
9455.00,0.99
9454.00,0.99
9453.00,0.99
9452.00,0.99
9451.00,1.00
9450.00,1.00
9449.00,1.00
9448.00,1.00
9447.00,1.01
9446.00,1.01
9445.00,1.01
9444.00,1.02
9443.00,1.02
9442.00,1.02
9441.00,1.03
9440.00,1.03
9439.00,1.04
9438.00,1.04
9437.00,1.05
9436.00,1.05
9435.00,1.06
9434.00,1.07
9433.00,1.07
9432.00,1.08
9431.00,1.08
9430.00,1.09
9429.00,1.09
9428.00,1.09
9427.00,1.10
9426.00,1.10
9425.00,1.10
9424.00,1.11
9423.00,1.11
9422.00,1.12
9421.00,1.12
9420.00,1.13
9419.00,1.13
9418.00,1.13
9417.00,1.14
9416.00,1.14
9415.00,1.14
9414.00,1.14
9413.00,1.14
9412.00,1.14
9411.00,1.14
9410.00,1.13
9409.00,1.13
9408.00,1.13
9407.00,1.13
9406.00,1.13
9405.00,1.12
9404.00,1.12
9403.00,1.12
9402.00,1.12
9401.00,1.12
9400.00,1.11
9399.00,1.11
9398.00,1.11
9397.00,1.10
9396.00,1.09
9395.00,1.09
9394.00,1.08
9393.00,1.07
9392.00,1.06
9391.00,1.05
9390.00,1.04
9389.00,1.03
9388.00,1.02
9387.00,1.01
9386.00,1.00
9385.00,0.99
9384.00,0.99
9383.00,0.98
9382.00,0.97
9381.00,0.96
9380.00,0.96
9379.00,0.95
9378.00,0.94
9377.00,0.94
9376.00,0.93
9375.00,0.93
9374.00,0.93
9373.00,0.93
9372.00,0.93
9371.00,0.93
9370.00,0.93
9369.00,0.93
9368.00,0.93
9367.00,0.94
9366.00,0.94
9365.00,0.95
9364.00,0.95
9363.00,0.96
9362.00,0.96
9361.00,0.97
9360.00,0.98
9359.00,0.98
9358.00,0.99
9357.00,1.00
9356.00,1.01
9355.00,1.02
9354.00,1.02
9353.00,1.03
9352.00,1.04
9351.00,1.04
9350.00,1.05
9349.00,1.05
9348.00,1.05
9347.00,1.06
9346.00,1.06
9345.00,1.06
9344.00,1.06
9343.00,1.06
9342.00,1.06
9341.00,1.07
9340.00,1.07
9339.00,1.07
9338.00,1.07
9337.00,1.07
9336.00,1.08
9335.00,1.08
9334.00,1.08
9333.00,1.08
9332.00,1.08
9331.00,1.09
9330.00,1.09
9329.00,1.09
9328.00,1.09
9327.00,1.09
9326.00,1.09
9325.00,1.09
9324.00,1.09
9323.00,1.09
9322.00,1.09
9321.00,1.10
9320.00,1.10
9319.00,1.10
9318.00,1.10
9317.00,1.11
9316.00,1.11
9315.00,1.11
9314.00,1.12
9313.00,1.12
9312.00,1.12
9311.00,1.13
9310.00,1.13
9309.00,1.13
9308.00,1.13
9307.00,1.13
9306.00,1.14
9305.00,1.14
9304.00,1.14
9303.00,1.14
9302.00,1.14
9301.00,1.15
9300.00,1.15
9299.00,1.15
9298.00,1.15
9297.00,1.15
9296.00,1.15
9295.00,1.14
9294.00,1.14
9293.00,1.14
9292.00,1.14
9291.00,1.13
9290.00,1.13
9289.00,1.12
9288.00,1.12
9287.00,1.11
9286.00,1.11
9285.00,1.10
9284.00,1.09
9283.00,1.09
9282.00,1.08
9281.00,1.07
9280.00,1.06
9279.00,1.05
9278.00,1.05
9277.00,1.04
9276.00,1.03
9275.00,1.02
9274.00,1.02
9273.00,1.01
9272.00,1.00
9271.00,1.00
9270.00,0.99
9269.00,0.99
9268.00,0.98
9267.00,0.98
9266.00,0.98
9265.00,0.97
9264.00,0.97
9263.00,0.97
9262.00,0.96
9261.00,0.96
9260.00,0.96
9259.00,0.96
9258.00,0.96
9257.00,0.96
9256.00,0.96
9255.00,0.96
9254.00,0.96
9253.00,0.96
9252.00,0.96
9251.00,0.97
9250.00,0.97
9249.00,0.97
9248.00,0.97
9247.00,0.97
9246.00,0.97
9245.00,0.97
9244.00,0.97
9243.00,0.97
9242.00,0.98
9241.00,0.98
9240.00,0.98
9239.00,0.98
9238.00,0.98
9237.00,0.98
9236.00,0.98
9235.00,0.98
9234.00,0.98
9233.00,0.98
9232.00,0.98
9231.00,0.98
9230.00,0.98
9229.00,0.98
9228.00,0.98
9227.00,0.98
9226.00,0.98
9225.00,0.98
9224.00,0.98
9223.00,0.98
9222.00,0.98
9221.00,0.98
9220.00,0.98
9219.00,0.98
9218.00,0.98
9217.00,0.98
9216.00,0.98
9215.00,0.98
9214.00,0.98
9213.00,0.98
9212.00,0.98
9211.00,0.98
9210.00,0.98
9209.00,0.98
9208.00,0.98
9207.00,0.98
9206.00,0.98
9205.00,0.98
9204.00,0.98
9203.00,0.98
9202.00,0.98
9201.00,0.98
9200.00,0.98
9199.00,0.97
9198.00,0.97
9197.00,0.97
9196.00,0.96
9195.00,0.96
9194.00,0.95
9193.00,0.95
9192.00,0.94
9191.00,0.94
9190.00,0.93
9189.00,0.93
9188.00,0.93
9187.00,0.93
9186.00,0.93
9185.00,0.93
9184.00,0.93
9183.00,0.93
9182.00,0.93
9181.00,0.93
9180.00,0.93
9179.00,0.93
9178.00,0.93
9177.00,0.94
9176.00,0.94
9175.00,0.95
9174.00,0.95
9173.00,0.96
9172.00,0.97
9171.00,0.98
9170.00,0.99
9169.00,1.00
9168.00,1.01
9167.00,1.02
9166.00,1.03
9165.00,1.04
9164.00,1.05
9163.00,1.06
9162.00,1.07
9161.00,1.07
9160.00,1.08
9159.00,1.09
9158.00,1.09
9157.00,1.10
9156.00,1.10
9155.00,1.10
9154.00,1.10
9153.00,1.11
9152.00,1.11
9151.00,1.11
9150.00,1.11
9149.00,1.10
9148.00,1.10
9147.00,1.10
9146.00,1.10
9145.00,1.09
9144.00,1.09
9143.00,1.08
9142.00,1.08
9141.00,1.08
9140.00,1.07
9139.00,1.07
9138.00,1.06
9137.00,1.06
9136.00,1.06
9135.00,1.06
9134.00,1.06
9133.00,1.06
9132.00,1.06
9131.00,1.06
9130.00,1.06
9129.00,1.06
9128.00,1.06
9127.00,1.06
9126.00,1.07
9125.00,1.07
9124.00,1.07
9123.00,1.08
9122.00,1.08
9121.00,1.09
9120.00,1.09
9119.00,1.10
9118.00,1.10
9117.00,1.11
9116.00,1.11
9115.00,1.12
9114.00,1.12
9113.00,1.12
9112.00,1.13
9111.00,1.13
9110.00,1.14
9109.00,1.14
9108.00,1.14
9107.00,1.14
9106.00,1.15
9105.00,1.15
9104.00,1.15
9103.00,1.15
9102.00,1.15
9101.00,1.15
9100.00,1.15
9099.00,1.15
9098.00,1.15
9097.00,1.14
9096.00,1.14
9095.00,1.14
9094.00,1.14
9093.00,1.14
9092.00,1.14
9091.00,1.14
9090.00,1.13
9089.00,1.13
9088.00,1.13
9087.00,1.13
9086.00,1.13
9085.00,1.13
9084.00,1.13
9083.00,1.13
9082.00,1.12
9081.00,1.12
9080.00,1.12
9079.00,1.12
9078.00,1.12
9077.00,1.12
9076.00,1.12
9075.00,1.12
9074.00,1.13
9073.00,1.13
9072.00,1.13
9071.00,1.13
9070.00,1.14
9069.00,1.14
9068.00,1.14
9067.00,1.15
9066.00,1.15
9065.00,1.15
9064.00,1.16
9063.00,1.16
9062.00,1.16
9061.00,1.16
9060.00,1.17
9059.00,1.17
9058.00,1.17
9057.00,1.17
9056.00,1.18
9055.00,1.18
9054.00,1.18
9053.00,1.18
9052.00,1.19
9051.00,1.19
9050.00,1.19
9049.00,1.19
9048.00,1.19
9047.00,1.19
9046.00,1.19
9045.00,1.19
9044.00,1.19
9043.00,1.19
9042.00,1.18
9041.00,1.18
9040.00,1.18
9039.00,1.17
9038.00,1.17
9037.00,1.17
9036.00,1.17
9035.00,1.16
9034.00,1.16
9033.00,1.16
9032.00,1.15
9031.00,1.15
9030.00,1.14
9029.00,1.14
9028.00,1.14
9027.00,1.13
9026.00,1.12
9025.00,1.12
9024.00,1.11
9023.00,1.11
9022.00,1.10
9021.00,1.10
9020.00,1.10
9019.00,1.09
9018.00,1.09
9017.00,1.09
9016.00,1.08
9015.00,1.08
9014.00,1.08
9013.00,1.08
9012.00,1.07
9011.00,1.07
9010.00,1.07
9009.00,1.06
9008.00,1.06
9007.00,1.06
9006.00,1.05
9005.00,1.05
9004.00,1.05
9003.00,1.05
9002.00,1.04
9001.00,1.04
9000.00,1.04
8999.00,1.04
8998.00,1.04
8997.00,1.03
8996.00,1.03
8995.00,1.03
8994.00,1.03
8993.00,1.03
8992.00,1.02
8991.00,1.02
8990.00,1.02
8989.00,1.02
8988.00,1.01
8987.00,1.01
8986.00,1.01
8985.00,1.01
8984.00,1.01
8983.00,1.01
8982.00,1.01
8981.00,1.01
8980.00,1.01
8979.00,1.01
8978.00,1.01
8977.00,1.02
8976.00,1.02
8975.00,1.02
8974.00,1.02
8973.00,1.02
8972.00,1.03
8971.00,1.03
8970.00,1.03
8969.00,1.04
8968.00,1.04
8967.00,1.04
8966.00,1.04
8965.00,1.05
8964.00,1.05
8963.00,1.06
8962.00,1.06
8961.00,1.06
8960.00,1.07
8959.00,1.07
8958.00,1.07
8957.00,1.08
8956.00,1.08
8955.00,1.08
8954.00,1.08
8953.00,1.09
8952.00,1.09
8951.00,1.09
8950.00,1.09
8949.00,1.09
8948.00,1.10
8947.00,1.10
8946.00,1.10
8945.00,1.10
8944.00,1.10
8943.00,1.11
8942.00,1.11
8941.00,1.11
8940.00,1.11
8939.00,1.11
8938.00,1.11
8937.00,1.12
8936.00,1.12
8935.00,1.12
8934.00,1.12
8933.00,1.12
8932.00,1.12
8931.00,1.12
8930.00,1.13
8929.00,1.13
8928.00,1.13
8927.00,1.13
8926.00,1.13
8925.00,1.13
8924.00,1.13
8923.00,1.12
8922.00,1.12
8921.00,1.12
8920.00,1.12
8919.00,1.11
8918.00,1.11
8917.00,1.10
8916.00,1.10
8915.00,1.09
8914.00,1.09
8913.00,1.08
8912.00,1.08
8911.00,1.07
8910.00,1.06
8909.00,1.06
8908.00,1.05
8907.00,1.05
8906.00,1.04
8905.00,1.04
8904.00,1.03
8903.00,1.03
8902.00,1.02
8901.00,1.02
8900.00,1.01
8899.00,1.01
8898.00,1.00
8897.00,1.00
8896.00,1.00
8895.00,0.99
8894.00,0.99
8893.00,0.99
8892.00,0.99
8891.00,0.99
8890.00,0.99
8889.00,0.99
8888.00,0.99
8887.00,0.99
8886.00,0.99
8885.00,0.99
8884.00,0.99
8883.00,0.99
8882.00,0.99
8881.00,0.99
8880.00,0.99
8879.00,0.99
8878.00,0.99
8877.00,0.99
8876.00,1.00
8875.00,1.00
8874.00,1.00
8873.00,1.01
8872.00,1.01
8871.00,1.02
8870.00,1.02
8869.00,1.03
8868.00,1.03
8867.00,1.04
8866.00,1.05
8865.00,1.05
8864.00,1.06
8863.00,1.06
8862.00,1.07
8861.00,1.08
8860.00,1.09
8859.00,1.09
8858.00,1.10
8857.00,1.11
8856.00,1.11
8855.00,1.12
8854.00,1.13
8853.00,1.13
8852.00,1.13
8851.00,1.14
8850.00,1.14
8849.00,1.14
8848.00,1.14
8847.00,1.14
8846.00,1.14
8845.00,1.13
8844.00,1.13
8843.00,1.13
8842.00,1.12
8841.00,1.12
8840.00,1.11
8839.00,1.10
8838.00,1.10
8837.00,1.09
8836.00,1.08
8835.00,1.07
8834.00,1.06
8833.00,1.05
8832.00,1.04
8831.00,1.04
8830.00,1.03
8829.00,1.02
8828.00,1.01
8827.00,1.00
8826.00,1.00
8825.00,0.99
8824.00,0.99
8823.00,0.98
8822.00,0.98
8821.00,0.97
8820.00,0.97
8819.00,0.96
8818.00,0.96
8817.00,0.96
8816.00,0.96
8815.00,0.95
8814.00,0.95
8813.00,0.95
8812.00,0.95
8811.00,0.95
8810.00,0.96
8809.00,0.96
8808.00,0.96
8807.00,0.96
8806.00,0.97
8805.00,0.97
8804.00,0.97
8803.00,0.98
8802.00,0.98
8801.00,0.99
8800.00,0.99
8799.00,0.99
8798.00,1.00
8797.00,1.00
8796.00,1.01
8795.00,1.01
8794.00,1.01
8793.00,1.02
8792.00,1.02
8791.00,1.02
8790.00,1.02
8789.00,1.03
8788.00,1.03
8787.00,1.03
8786.00,1.03
8785.00,1.03
8784.00,1.03
8783.00,1.03
8782.00,1.03
8781.00,1.03
8780.00,1.03
8779.00,1.02
8778.00,1.02
8777.00,1.02
8776.00,1.02
8775.00,1.01
8774.00,1.01
8773.00,1.01
8772.00,1.01
8771.00,1.01
8770.00,1.01
8769.00,1.00
8768.00,1.00
8767.00,1.00
8766.00,1.00
8765.00,1.01
8764.00,1.01
8763.00,1.01
8762.00,1.01
8761.00,1.01
8760.00,1.02
8759.00,1.02
8758.00,1.02
8757.00,1.02
8756.00,1.03
8755.00,1.03
8754.00,1.03
8753.00,1.03
8752.00,1.03
8751.00,1.03
8750.00,1.03
8749.00,1.03
8748.00,1.03
8747.00,1.03
8746.00,1.03
8745.00,1.03
8744.00,1.03
8743.00,1.03
8742.00,1.02
8741.00,1.02
8740.00,1.01
8739.00,1.01
8738.00,1.00
8737.00,0.99
8736.00,0.98
8735.00,0.98
8734.00,0.97
8733.00,0.96
8732.00,0.95
8731.00,0.95
8730.00,0.94
8729.00,0.94
8728.00,0.93
8727.00,0.93
8726.00,0.92
8725.00,0.92
8724.00,0.91
8723.00,0.91
8722.00,0.90
8721.00,0.90
8720.00,0.90
8719.00,0.90
8718.00,0.90
8717.00,0.90
8716.00,0.90
8715.00,0.90
8714.00,0.90
8713.00,0.91
8712.00,0.91
8711.00,0.92
8710.00,0.92
8709.00,0.93
8708.00,0.93
8707.00,0.93
8706.00,0.94
8705.00,0.94
8704.00,0.95
8703.00,0.95
8702.00,0.96
8701.00,0.96
8700.00,0.97
8699.00,0.98
8698.00,0.98
8697.00,0.99
8696.00,1.00
8695.00,1.00
8694.00,1.01
8693.00,1.01
8692.00,1.02
8691.00,1.02
8690.00,1.02
8689.00,1.03
8688.00,1.03
8687.00,1.03
8686.00,1.03
8685.00,1.03
8684.00,1.03
8683.00,1.03
8682.00,1.04
8681.00,1.04
8680.00,1.04
8679.00,1.04
8678.00,1.04
8677.00,1.04
8676.00,1.04
8675.00,1.04
8674.00,1.04
8673.00,1.03
8672.00,1.03
8671.00,1.03
8670.00,1.03
8669.00,1.03
8668.00,1.03
8667.00,1.02
8666.00,1.02
8665.00,1.02
8664.00,1.02
8663.00,1.03
8662.00,1.03
8661.00,1.03
8660.00,1.03
8659.00,1.03
8658.00,1.03
8657.00,1.04
8656.00,1.04
8655.00,1.04
8654.00,1.04
8653.00,1.04
8652.00,1.04
8651.00,1.04
8650.00,1.05
8649.00,1.05
8648.00,1.05
8647.00,1.05
8646.00,1.05
8645.00,1.05
8644.00,1.05
8643.00,1.05
8642.00,1.05
8641.00,1.05
8640.00,1.05
8639.00,1.04
8638.00,1.04
8637.00,1.04
8636.00,1.04
8635.00,1.04
8634.00,1.04
8633.00,1.03
8632.00,1.03
8631.00,1.03
8630.00,1.02
8629.00,1.02
8628.00,1.02
8627.00,1.01
8626.00,1.01
8625.00,1.01
8624.00,1.01
8623.00,1.00
8622.00,1.00
8621.00,1.00
8620.00,1.00
8619.00,1.00
8618.00,1.00
8617.00,1.00
8616.00,1.00
8615.00,1.00
8614.00,1.00
8613.00,1.00
8612.00,1.00
8611.00,1.00
8610.00,0.99
8609.00,0.99
8608.00,0.99
8607.00,0.99
8606.00,0.99
8605.00,0.99
8604.00,0.99
8603.00,0.99
8602.00,0.99
8601.00,0.99
8600.00,0.99
8599.00,0.99
8598.00,0.99
8597.00,1.00
8596.00,1.00
8595.00,1.00
8594.00,1.00
8593.00,1.00
8592.00,1.00
8591.00,1.00
8590.00,1.01
8589.00,1.01
8588.00,1.01
8587.00,1.01
8586.00,1.01
8585.00,1.02
8584.00,1.02
8583.00,1.02
8582.00,1.02
8581.00,1.03
8580.00,1.03
8579.00,1.03
8578.00,1.04
8577.00,1.04
8576.00,1.05
8575.00,1.05
8574.00,1.06
8573.00,1.06
8572.00,1.06
8571.00,1.07
8570.00,1.07
8569.00,1.07
8568.00,1.07
8567.00,1.08
8566.00,1.08
8565.00,1.08
8564.00,1.08
8563.00,1.08
8562.00,1.08
8561.00,1.07
8560.00,1.07
8559.00,1.07
8558.00,1.07
8557.00,1.07
8556.00,1.07
8555.00,1.06
8554.00,1.06
8553.00,1.06
8552.00,1.05
8551.00,1.05
8550.00,1.04
8549.00,1.03
8548.00,1.03
8547.00,1.02
8546.00,1.01
8545.00,1.00
8544.00,1.00
8543.00,0.99
8542.00,0.99
8541.00,0.98
8540.00,0.98
8539.00,0.97
8538.00,0.97
8537.00,0.96
8536.00,0.96
8535.00,0.96
8534.00,0.96
8533.00,0.96
8532.00,0.95
8531.00,0.95
8530.00,0.95
8529.00,0.95
8528.00,0.95
8527.00,0.95
8526.00,0.95
8525.00,0.95
8524.00,0.95
8523.00,0.95
8522.00,0.95
8521.00,0.96
8520.00,0.96
8519.00,0.96
8518.00,0.96
8517.00,0.97
8516.00,0.97
8515.00,0.97
8514.00,0.97
8513.00,0.98
8512.00,0.98
8511.00,0.98
8510.00,0.98
8509.00,0.98
8508.00,0.98
8507.00,0.98
8506.00,0.98
8505.00,0.98
8504.00,0.98
8503.00,0.98
8502.00,0.98
8501.00,0.99
8500.00,0.99
8499.00,0.99
8498.00,0.99
8497.00,0.98
8496.00,0.98
8495.00,0.98
8494.00,0.98
8493.00,0.98
8492.00,0.97
8491.00,0.97
8490.00,0.97
8489.00,0.96
8488.00,0.96
8487.00,0.96
8486.00,0.96
8485.00,0.95
8484.00,0.95
8483.00,0.95
8482.00,0.95
8481.00,0.95
8480.00,0.95
8479.00,0.95
8478.00,0.94
8477.00,0.94
8476.00,0.94
8475.00,0.94
8474.00,0.94
8473.00,0.94
8472.00,0.94
8471.00,0.93
8470.00,0.93
8469.00,0.93
8468.00,0.94
8467.00,0.94
8466.00,0.94
8465.00,0.94
8464.00,0.94
8463.00,0.95
8462.00,0.95
8461.00,0.95
8460.00,0.96
8459.00,0.96
8458.00,0.96
8457.00,0.96
8456.00,0.97
8455.00,0.97
8454.00,0.97
8453.00,0.97
8452.00,0.97
8451.00,0.97
8450.00,0.97
8449.00,0.97
8448.00,0.97
8447.00,0.97
8446.00,0.97
8445.00,0.97
8444.00,0.97
8443.00,0.97
8442.00,0.97
8441.00,0.97
8440.00,0.97
8439.00,0.97
8438.00,0.97
8437.00,0.97
8436.00,0.97
8435.00,0.98
8434.00,0.98
8433.00,0.98
8432.00,0.98
8431.00,0.98
8430.00,0.98
8429.00,0.98
8428.00,0.98
8427.00,0.98
8426.00,0.98
8425.00,0.98
8424.00,0.98
8423.00,0.98
8422.00,0.99
8421.00,0.99
8420.00,0.99
8419.00,0.99
8418.00,0.99
8417.00,0.99
8416.00,0.99
8415.00,0.99
8414.00,0.99
8413.00,0.99
8412.00,0.98
8411.00,0.98
8410.00,0.98
8409.00,0.98
8408.00,0.97
8407.00,0.97
8406.00,0.97
8405.00,0.97
8404.00,0.96
8403.00,0.96
8402.00,0.96
8401.00,0.96
8400.00,0.96
8399.00,0.96
8398.00,0.96
8397.00,0.96
8396.00,0.96
8395.00,0.97
8394.00,0.97
8393.00,0.97
8392.00,0.97
8391.00,0.97
8390.00,0.97
8389.00,0.98
8388.00,0.98
8387.00,0.99
8386.00,0.99
8385.00,1.00
8384.00,1.00
8383.00,1.01
8382.00,1.01
8381.00,1.02
8380.00,1.02
8379.00,1.02
8378.00,1.03
8377.00,1.03
8376.00,1.04
8375.00,1.04
8374.00,1.04
8373.00,1.04
8372.00,1.05
8371.00,1.05
8370.00,1.05
8369.00,1.05
8368.00,1.05
8367.00,1.05
8366.00,1.05
8365.00,1.06
8364.00,1.06
8363.00,1.06
8362.00,1.05
8361.00,1.05
8360.00,1.05
8359.00,1.05
8358.00,1.05
8357.00,1.05
8356.00,1.05
8355.00,1.05
8354.00,1.05
8353.00,1.05
8352.00,1.05
8351.00,1.05
8350.00,1.05
8349.00,1.05
8348.00,1.05
8347.00,1.05
8346.00,1.04
8345.00,1.04
8344.00,1.04
8343.00,1.04
8342.00,1.04
8341.00,1.04
8340.00,1.04
8339.00,1.04
8338.00,1.04
8337.00,1.04
8336.00,1.04
8335.00,1.04
8334.00,1.04
8333.00,1.04
8332.00,1.04
8331.00,1.03
8330.00,1.03
8329.00,1.02
8328.00,1.02
8327.00,1.02
8326.00,1.01
8325.00,1.01
8324.00,1.01
8323.00,1.00
8322.00,1.00
8321.00,0.99
8320.00,0.99
8319.00,0.98
8318.00,0.98
8317.00,0.98
8316.00,0.97
8315.00,0.97
8314.00,0.96
8313.00,0.96
8312.00,0.96
8311.00,0.95
8310.00,0.95
8309.00,0.95
8308.00,0.95
8307.00,0.95
8306.00,0.95
8305.00,0.95
8304.00,0.95
8303.00,0.95
8302.00,0.95
8301.00,0.95
8300.00,0.95
8299.00,0.96
8298.00,0.96
8297.00,0.96
8296.00,0.96
8295.00,0.96
8294.00,0.96
8293.00,0.96
8292.00,0.97
8291.00,0.97
8290.00,0.97
8289.00,0.97
8288.00,0.98
8287.00,0.98
8286.00,0.98
8285.00,0.98
8284.00,0.98
8283.00,0.98
8282.00,0.99
8281.00,0.99
8280.00,0.99
8279.00,0.99
8278.00,0.99
8277.00,0.99
8276.00,0.99
8275.00,0.99
8274.00,0.99
8273.00,1.00
8272.00,1.00
8271.00,1.00
8270.00,1.00
8269.00,1.00
8268.00,1.01
8267.00,1.01
8266.00,1.01
8265.00,1.01
8264.00,1.01
8263.00,1.02
8262.00,1.02
8261.00,1.02
8260.00,1.02
8259.00,1.02
8258.00,1.02
8257.00,1.02
8256.00,1.02
8255.00,1.02
8254.00,1.03
8253.00,1.03
8252.00,1.03
8251.00,1.03
8250.00,1.03
8249.00,1.03
8248.00,1.03
8247.00,1.03
8246.00,1.03
8245.00,1.03
8244.00,1.03
8243.00,1.03
8242.00,1.03
8241.00,1.03
8240.00,1.03
8239.00,1.03
8238.00,1.02
8237.00,1.02
8236.00,1.02
8235.00,1.02
8234.00,1.02
8233.00,1.01
8232.00,1.01
8231.00,1.01
8230.00,1.01
8229.00,1.01
8228.00,1.01
8227.00,1.00
8226.00,1.00
8225.00,1.00
8224.00,1.00
8223.00,1.00
8222.00,1.00
8221.00,0.99
8220.00,0.99
8219.00,0.99
8218.00,0.99
8217.00,0.99
8216.00,0.99
8215.00,0.99
8214.00,0.99
8213.00,0.99
8212.00,0.99
8211.00,1.00
8210.00,1.00
8209.00,1.00
8208.00,1.00
8207.00,1.01
8206.00,1.01
8205.00,1.01
8204.00,1.01
8203.00,1.02
8202.00,1.02
8201.00,1.02
8200.00,1.03
8199.00,1.03
8198.00,1.03
8197.00,1.04
8196.00,1.04
8195.00,1.04
8194.00,1.05
8193.00,1.05
8192.00,1.05
8191.00,1.05
8190.00,1.06
8189.00,1.06
8188.00,1.06
8187.00,1.06
8186.00,1.06
8185.00,1.06
8184.00,1.06
8183.00,1.06
8182.00,1.06
8181.00,1.05
8180.00,1.05
8179.00,1.05
8178.00,1.04
8177.00,1.04
8176.00,1.04
8175.00,1.03
8174.00,1.03
8173.00,1.02
8172.00,1.02
8171.00,1.02
8170.00,1.01
8169.00,1.01
8168.00,1.01
8167.00,1.00
8166.00,1.00
8165.00,1.00
8164.00,0.99
8163.00,0.99
8162.00,0.99
8161.00,0.99
8160.00,0.98
8159.00,0.98
8158.00,0.98
8157.00,0.98
8156.00,0.99
8155.00,0.99
8154.00,0.99
8153.00,0.99
8152.00,1.00
8151.00,1.00
8150.00,1.00
8149.00,1.01
8148.00,1.01
8147.00,1.01
8146.00,1.01
8145.00,1.02
8144.00,1.02
8143.00,1.02
8142.00,1.02
8141.00,1.02
8140.00,1.02
8139.00,1.02
8138.00,1.02
8137.00,1.02
8136.00,1.02
8135.00,1.02
8134.00,1.02
8133.00,1.02
8132.00,1.02
8131.00,1.02
8130.00,1.02
8129.00,1.01
8128.00,1.01
8127.00,1.01
8126.00,1.01
8125.00,1.01
8124.00,1.01
8123.00,1.00
8122.00,1.00
8121.00,1.00
8120.00,1.00
8119.00,1.00
8118.00,1.00
8117.00,1.01
8116.00,1.01
8115.00,1.01
8114.00,1.01
8113.00,1.01
8112.00,1.02
8111.00,1.02
8110.00,1.02
8109.00,1.02
8108.00,1.03
8107.00,1.03
8106.00,1.03
8105.00,1.04
8104.00,1.04
8103.00,1.04
8102.00,1.05
8101.00,1.05
8100.00,1.05
8099.00,1.05
8098.00,1.05
8097.00,1.06
8096.00,1.06
8095.00,1.06
8094.00,1.06
8093.00,1.06
8092.00,1.06
8091.00,1.06
8090.00,1.06
8089.00,1.06
8088.00,1.06
8087.00,1.06
8086.00,1.06
8085.00,1.06
8084.00,1.06
8083.00,1.06
8082.00,1.06
8081.00,1.06
8080.00,1.06
8079.00,1.06
8078.00,1.06
8077.00,1.06
8076.00,1.06
8075.00,1.06
8074.00,1.06
8073.00,1.06
8072.00,1.06
8071.00,1.06
8070.00,1.06
8069.00,1.06
8068.00,1.07
8067.00,1.07
8066.00,1.07
8065.00,1.07
8064.00,1.07
8063.00,1.07
8062.00,1.07
8061.00,1.08
8060.00,1.08
8059.00,1.08
8058.00,1.08
8057.00,1.08
8056.00,1.08
8055.00,1.08
8054.00,1.08
8053.00,1.08
8052.00,1.09
8051.00,1.09
8050.00,1.09
8049.00,1.09
8048.00,1.09
8047.00,1.09
8046.00,1.09
8045.00,1.09
8044.00,1.09
8043.00,1.09
8042.00,1.09
8041.00,1.09
8040.00,1.09
8039.00,1.09
8038.00,1.09
8037.00,1.08
8036.00,1.08
8035.00,1.08
8034.00,1.08
8033.00,1.08
8032.00,1.08
8031.00,1.08
8030.00,1.08
8029.00,1.08
8028.00,1.08
8027.00,1.08
8026.00,1.08
8025.00,1.08
8024.00,1.08
8023.00,1.08
8022.00,1.08
8021.00,1.08
8020.00,1.08
8019.00,1.08
8018.00,1.08
8017.00,1.08
8016.00,1.08
8015.00,1.08
8014.00,1.08
8013.00,1.08
8012.00,1.08
8011.00,1.08
8010.00,1.08
8009.00,1.08
8008.00,1.08
8007.00,1.08
8006.00,1.08
8005.00,1.08
8004.00,1.07
8003.00,1.07
8002.00,1.07
8001.00,1.07
8000.00,1.07
7999.00,1.07
7998.00,1.07
7997.00,1.08
7996.00,1.08
7995.00,1.08
7994.00,1.08
7993.00,1.08
7992.00,1.08
7991.00,1.09
7990.00,1.09
7989.00,1.09
7988.00,1.09
7987.00,1.09
7986.00,1.10
7985.00,1.10
7984.00,1.10
7983.00,1.10
7982.00,1.10
7981.00,1.10
7980.00,1.10
7979.00,1.10
7978.00,1.10
7977.00,1.10
7976.00,1.10
7975.00,1.10
7974.00,1.11
7973.00,1.11
7972.00,1.11
7971.00,1.11
7970.00,1.11
7969.00,1.11
7968.00,1.11
7967.00,1.11
7966.00,1.11
7965.00,1.11
7964.00,1.10
7963.00,1.10
7962.00,1.10
7961.00,1.10
7960.00,1.10
7959.00,1.10
7958.00,1.10
7957.00,1.10
7956.00,1.10
7955.00,1.10
7954.00,1.10
7953.00,1.10
7952.00,1.10
7951.00,1.10
7950.00,1.09
7949.00,1.09
7948.00,1.09
7947.00,1.09
7946.00,1.09
7945.00,1.09
7944.00,1.09
7943.00,1.09
7942.00,1.09
7941.00,1.09
7940.00,1.09
7939.00,1.09
7938.00,1.09
7937.00,1.09
7936.00,1.09
7935.00,1.09
7934.00,1.09
7933.00,1.09
7932.00,1.09
7931.00,1.09
7930.00,1.09
7929.00,1.09
7928.00,1.09
7927.00,1.09
7926.00,1.09
7925.00,1.09
7924.00,1.09
7923.00,1.09
7922.00,1.09
7921.00,1.09
7920.00,1.09
7919.00,1.09
7918.00,1.09
7917.00,1.09
7916.00,1.09
7915.00,1.09
7914.00,1.09
7913.00,1.09
7912.00,1.09
7911.00,1.09
7910.00,1.09
7909.00,1.09
7908.00,1.09
7907.00,1.09
7906.00,1.09
7905.00,1.09
7904.00,1.09
7903.00,1.09
7902.00,1.08
7901.00,1.08
7900.00,1.08
7899.00,1.08
7898.00,1.08
7897.00,1.08
7896.00,1.08
7895.00,1.07
7894.00,1.07
7893.00,1.07
7892.00,1.07
7891.00,1.07
7890.00,1.07
7889.00,1.07
7888.00,1.07
7887.00,1.07
7886.00,1.07
7885.00,1.07
7884.00,1.07
7883.00,1.07
7882.00,1.07
7881.00,1.07
7880.00,1.07
7879.00,1.07
7878.00,1.07
7877.00,1.08
7876.00,1.08
7875.00,1.08
7874.00,1.08
7873.00,1.08
7872.00,1.08
7871.00,1.08
7870.00,1.09
7869.00,1.09
7868.00,1.09
7867.00,1.10
7866.00,1.10
7865.00,1.10
7864.00,1.10
7863.00,1.11
7862.00,1.11
7861.00,1.11
7860.00,1.11
7859.00,1.11
7858.00,1.12
7857.00,1.12
7856.00,1.12
7855.00,1.12
7854.00,1.12
7853.00,1.13
7852.00,1.13
7851.00,1.13
7850.00,1.13
7849.00,1.14
7848.00,1.14
7847.00,1.14
7846.00,1.14
7845.00,1.14
7844.00,1.14
7843.00,1.14
7842.00,1.14
7841.00,1.14
7840.00,1.14
7839.00,1.14
7838.00,1.14
7837.00,1.14
7836.00,1.14
7835.00,1.14
7834.00,1.14
7833.00,1.14
7832.00,1.14
7831.00,1.14
7830.00,1.14
7829.00,1.14
7828.00,1.14
7827.00,1.14
7826.00,1.14
7825.00,1.14
7824.00,1.14
7823.00,1.14
7822.00,1.14
7821.00,1.14
7820.00,1.14
7819.00,1.14
7818.00,1.14
7817.00,1.14
7816.00,1.15
7815.00,1.15
7814.00,1.15
7813.00,1.15
7812.00,1.15
7811.00,1.15
7810.00,1.15
7809.00,1.16
7808.00,1.16
7807.00,1.16
7806.00,1.16
7805.00,1.16
7804.00,1.17
7803.00,1.17
7802.00,1.17
7801.00,1.17
7800.00,1.17
7799.00,1.17
7798.00,1.17
7797.00,1.17
7796.00,1.17
7795.00,1.17
7794.00,1.18
7793.00,1.18
7792.00,1.18
7791.00,1.18
7790.00,1.18
7789.00,1.18
7788.00,1.18
7787.00,1.18
7786.00,1.18
7785.00,1.18
7784.00,1.18
7783.00,1.18
7782.00,1.18
7781.00,1.17
7780.00,1.17
7779.00,1.17
7778.00,1.17
7777.00,1.17
7776.00,1.17
7775.00,1.17
7774.00,1.17
7773.00,1.17
7772.00,1.17
7771.00,1.17
7770.00,1.17
7769.00,1.17
7768.00,1.17
7767.00,1.16
7766.00,1.16
7765.00,1.16
7764.00,1.16
7763.00,1.16
7762.00,1.16
7761.00,1.16
7760.00,1.16
7759.00,1.16
7758.00,1.16
7757.00,1.16
7756.00,1.16
7755.00,1.16
7754.00,1.17
7753.00,1.17
7752.00,1.17
7751.00,1.17
7750.00,1.17
7749.00,1.17
7748.00,1.17
7747.00,1.17
7746.00,1.18
7745.00,1.18
7744.00,1.18
7743.00,1.18
7742.00,1.19
7741.00,1.19
7740.00,1.19
7739.00,1.19
7738.00,1.20
7737.00,1.20
7736.00,1.20
7735.00,1.20
7734.00,1.21
7733.00,1.21
7732.00,1.21
7731.00,1.21
7730.00,1.21
7729.00,1.21
7728.00,1.21
7727.00,1.21
7726.00,1.21
7725.00,1.21
7724.00,1.21
7723.00,1.21
7722.00,1.21
7721.00,1.21
7720.00,1.21
7719.00,1.21
7718.00,1.20
7717.00,1.20
7716.00,1.20
7715.00,1.20
7714.00,1.20
7713.00,1.19
7712.00,1.19
7711.00,1.19
7710.00,1.18
7709.00,1.18
7708.00,1.18
7707.00,1.18
7706.00,1.17
7705.00,1.17
7704.00,1.17
7703.00,1.17
7702.00,1.17
7701.00,1.16
7700.00,1.16
7699.00,1.16
7698.00,1.16
7697.00,1.15
7696.00,1.15
7695.00,1.15
7694.00,1.15
7693.00,1.14
7692.00,1.14
7691.00,1.14
7690.00,1.14
7689.00,1.14
7688.00,1.14
7687.00,1.14
7686.00,1.14
7685.00,1.14
7684.00,1.14
7683.00,1.14
7682.00,1.14
7681.00,1.14
7680.00,1.14
7679.00,1.15
7678.00,1.15
7677.00,1.15
7676.00,1.15
7675.00,1.15
7674.00,1.15
7673.00,1.15
7672.00,1.16
7671.00,1.16
7670.00,1.16
7669.00,1.16
7668.00,1.16
7667.00,1.16
7666.00,1.17
7665.00,1.17
7664.00,1.17
7663.00,1.17
7662.00,1.17
7661.00,1.17
7660.00,1.17
7659.00,1.17
7658.00,1.17
7657.00,1.17
7656.00,1.17
7655.00,1.17
7654.00,1.17
7653.00,1.17
7652.00,1.17
7651.00,1.17
7650.00,1.17
7649.00,1.17
7648.00,1.17
7647.00,1.16
7646.00,1.16
7645.00,1.16
7644.00,1.16
7643.00,1.16
7642.00,1.16
7641.00,1.16
7640.00,1.16
7639.00,1.16
7638.00,1.16
7637.00,1.16
7636.00,1.16
7635.00,1.16
7634.00,1.16
7633.00,1.16
7632.00,1.16
7631.00,1.16
7630.00,1.16
7629.00,1.16
7628.00,1.16
7627.00,1.16
7626.00,1.16
7625.00,1.16
7624.00,1.16
7623.00,1.15
7622.00,1.15
7621.00,1.15
7620.00,1.15
7619.00,1.15
7618.00,1.15
7617.00,1.15
7616.00,1.14
7615.00,1.14
7614.00,1.14
7613.00,1.14
7612.00,1.13
7611.00,1.13
7610.00,1.13
7609.00,1.13
7608.00,1.12
7607.00,1.12
7606.00,1.12
7605.00,1.12
7604.00,1.12
7603.00,1.12
7602.00,1.11
7601.00,1.11
7600.00,1.11
7599.00,1.11
7598.00,1.11
7597.00,1.11
7596.00,1.10
7595.00,1.10
7594.00,1.10
7593.00,1.10
7592.00,1.10
7591.00,1.10
7590.00,1.10
7589.00,1.11
7588.00,1.11
7587.00,1.11
7586.00,1.11
7585.00,1.12
7584.00,1.12
7583.00,1.12
7582.00,1.13
7581.00,1.13
7580.00,1.13
7579.00,1.14
7578.00,1.14
7577.00,1.14
7576.00,1.15
7575.00,1.15
7574.00,1.15
7573.00,1.16
7572.00,1.16
7571.00,1.17
7570.00,1.17
7569.00,1.17
7568.00,1.18
7567.00,1.18
7566.00,1.18
7565.00,1.18
7564.00,1.19
7563.00,1.19
7562.00,1.19
7561.00,1.19
7560.00,1.19
7559.00,1.19
7558.00,1.19
7557.00,1.19
7556.00,1.19
7555.00,1.18
7554.00,1.18
7553.00,1.18
7552.00,1.18
7551.00,1.18
7550.00,1.18
7549.00,1.17
7548.00,1.17
7547.00,1.17
7546.00,1.17
7545.00,1.17
7544.00,1.17
7543.00,1.17
7542.00,1.16
7541.00,1.16
7540.00,1.16
7539.00,1.16
7538.00,1.16
7537.00,1.16
7536.00,1.16
7535.00,1.16
7534.00,1.16
7533.00,1.15
7532.00,1.15
7531.00,1.15
7530.00,1.15
7529.00,1.15
7528.00,1.15
7527.00,1.15
7526.00,1.15
7525.00,1.15
7524.00,1.16
7523.00,1.16
7522.00,1.16
7521.00,1.16
7520.00,1.16
7519.00,1.16
7518.00,1.16
7517.00,1.16
7516.00,1.16
7515.00,1.16
7514.00,1.16
7513.00,1.16
7512.00,1.16
7511.00,1.17
7510.00,1.17
7509.00,1.17
7508.00,1.17
7507.00,1.17
7506.00,1.17
7505.00,1.17
7504.00,1.17
7503.00,1.17
7502.00,1.17
7501.00,1.17
7500.00,1.17
7499.00,1.17
7498.00,1.17
7497.00,1.17
7496.00,1.16
7495.00,1.16
7494.00,1.16
7493.00,1.16
7492.00,1.16
7491.00,1.16
7490.00,1.16
7489.00,1.15
7488.00,1.15
7487.00,1.15
7486.00,1.15
7485.00,1.15
7484.00,1.15
7483.00,1.15
7482.00,1.14
7481.00,1.14
7480.00,1.14
7479.00,1.14
7478.00,1.14
7477.00,1.14
7476.00,1.14
7475.00,1.14
7474.00,1.13
7473.00,1.13
7472.00,1.13
7471.00,1.13
7470.00,1.13
7469.00,1.12
7468.00,1.12
7467.00,1.12
7466.00,1.12
7465.00,1.11
7464.00,1.11
7463.00,1.11
7462.00,1.11
7461.00,1.10
7460.00,1.10
7459.00,1.10
7458.00,1.10
7457.00,1.09
7456.00,1.09
7455.00,1.09
7454.00,1.09
7453.00,1.08
7452.00,1.08
7451.00,1.08
7450.00,1.08
7449.00,1.08
7448.00,1.07
7447.00,1.07
7446.00,1.07
7445.00,1.07
7444.00,1.07
7443.00,1.07
7442.00,1.07
7441.00,1.07
7440.00,1.07
7439.00,1.08
7438.00,1.08
7437.00,1.08
7436.00,1.08
7435.00,1.08
7434.00,1.08
7433.00,1.08
7432.00,1.09
7431.00,1.09
7430.00,1.09
7429.00,1.09
7428.00,1.09
7427.00,1.09
7426.00,1.09
7425.00,1.09
7424.00,1.09
7423.00,1.09
7422.00,1.09
7421.00,1.09
7420.00,1.10
7419.00,1.10
7418.00,1.10
7417.00,1.10
7416.00,1.10
7415.00,1.11
7414.00,1.11
7413.00,1.11
7412.00,1.11
7411.00,1.11
7410.00,1.12
7409.00,1.12
7408.00,1.12
7407.00,1.12
7406.00,1.13
7405.00,1.13
7404.00,1.13
7403.00,1.13
7402.00,1.14
7401.00,1.14
7400.00,1.14
7399.00,1.14
7398.00,1.15
7397.00,1.15
7396.00,1.15
7395.00,1.15
7394.00,1.16
7393.00,1.16
7392.00,1.16
7391.00,1.16
7390.00,1.16
7389.00,1.16
7388.00,1.16
7387.00,1.16
7386.00,1.16
7385.00,1.16
7384.00,1.16
7383.00,1.15
7382.00,1.15
7381.00,1.15
7380.00,1.15
7379.00,1.15
7378.00,1.14
7377.00,1.14
7376.00,1.14
7375.00,1.14
7374.00,1.14
7373.00,1.14
7372.00,1.13
7371.00,1.13
7370.00,1.13
7369.00,1.13
7368.00,1.13
7367.00,1.13
7366.00,1.12
7365.00,1.12
7364.00,1.12
7363.00,1.11
7362.00,1.11
7361.00,1.11
7360.00,1.11
7359.00,1.11
7358.00,1.10
7357.00,1.10
7356.00,1.10
7355.00,1.10
7354.00,1.10
7353.00,1.10
7352.00,1.10
7351.00,1.09
7350.00,1.09
7349.00,1.09
7348.00,1.09
7347.00,1.09
7346.00,1.09
7345.00,1.08
7344.00,1.08
7343.00,1.08
7342.00,1.08
7341.00,1.08
7340.00,1.08
7339.00,1.08
7338.00,1.08
7337.00,1.09
7336.00,1.09
7335.00,1.09
7334.00,1.09
7333.00,1.09
7332.00,1.10
7331.00,1.10
7330.00,1.10
7329.00,1.10
7328.00,1.10
7327.00,1.10
7326.00,1.10
7325.00,1.10
7324.00,1.10
7323.00,1.10
7322.00,1.10
7321.00,1.10
7320.00,1.10
7319.00,1.10
7318.00,1.10
7317.00,1.10
7316.00,1.10
7315.00,1.10
7314.00,1.10
7313.00,1.10
7312.00,1.09
7311.00,1.09
7310.00,1.09
7309.00,1.09
7308.00,1.09
7307.00,1.08
7306.00,1.08
7305.00,1.08
7304.00,1.08
7303.00,1.08
7302.00,1.08
7301.00,1.08
7300.00,1.08
7299.00,1.08
7298.00,1.08
7297.00,1.08
7296.00,1.08
7295.00,1.08
7294.00,1.08
7293.00,1.08
7292.00,1.08
7291.00,1.08
7290.00,1.08
7289.00,1.08
7288.00,1.08
7287.00,1.08
7286.00,1.08
7285.00,1.08
7284.00,1.08
7283.00,1.08
7282.00,1.08
7281.00,1.07
7280.00,1.07
7279.00,1.07
7278.00,1.07
7277.00,1.07
7276.00,1.06
7275.00,1.06
7274.00,1.06
7273.00,1.06
7272.00,1.05
7271.00,1.05
7270.00,1.05
7269.00,1.05
7268.00,1.05
7267.00,1.04
7266.00,1.04
7265.00,1.04
7264.00,1.04
7263.00,1.04
7262.00,1.03
7261.00,1.03
7260.00,1.03
7259.00,1.03
7258.00,1.03
7257.00,1.03
7256.00,1.03
7255.00,1.03
7254.00,1.03
7253.00,1.03
7252.00,1.03
7251.00,1.03
7250.00,1.03
7249.00,1.03
7248.00,1.03
7247.00,1.03
7246.00,1.03
7245.00,1.03
7244.00,1.03
7243.00,1.03
7242.00,1.03
7241.00,1.03
7240.00,1.02
7239.00,1.02
7238.00,1.02
7237.00,1.02
7236.00,1.02
7235.00,1.02
7234.00,1.02
7233.00,1.02
7232.00,1.02
7231.00,1.02
7230.00,1.01
7229.00,1.01
7228.00,1.01
7227.00,1.01
7226.00,1.01
7225.00,1.01
7224.00,1.00
7223.00,1.00
7222.00,1.00
7221.00,0.99
7220.00,0.99
7219.00,0.99
7218.00,0.99
7217.00,0.98
7216.00,0.98
7215.00,0.98
7214.00,0.98
7213.00,0.98
7212.00,0.97
7211.00,0.97
7210.00,0.97
7209.00,0.97
7208.00,0.96
7207.00,0.96
7206.00,0.96
7205.00,0.95
7204.00,0.95
7203.00,0.95
7202.00,0.94
7201.00,0.94
7200.00,0.93
7199.00,0.93
7198.00,0.93
7197.00,0.93
7196.00,0.92
7195.00,0.92
7194.00,0.92
7193.00,0.92
7192.00,0.91
7191.00,0.91
7190.00,0.91
7189.00,0.90
7188.00,0.90
7187.00,0.90
7186.00,0.89
7185.00,0.89
7184.00,0.88
7183.00,0.88
7182.00,0.87
7181.00,0.87
7180.00,0.86
7179.00,0.86
7178.00,0.86
7177.00,0.85
7176.00,0.85
7175.00,0.85
7174.00,0.84
7173.00,0.84
7172.00,0.83
7171.00,0.83
7170.00,0.83
7169.00,0.82
7168.00,0.82
7167.00,0.82
7166.00,0.82
7165.00,0.81
7164.00,0.81
7163.00,0.81
7162.00,0.81
7161.00,0.81
7160.00,0.81
7159.00,0.81
7158.00,0.81
7157.00,0.81
7156.00,0.81
7155.00,0.81
7154.00,0.81
7153.00,0.81
7152.00,0.81
7151.00,0.81
7150.00,0.81
7149.00,0.81
7148.00,0.81
7147.00,0.81
7146.00,0.81
7145.00,0.81
7144.00,0.81
7143.00,0.80
7142.00,0.80
7141.00,0.80
7140.00,0.80
7139.00,0.79
7138.00,0.79
7137.00,0.79
7136.00,0.78
7135.00,0.78
7134.00,0.78
7133.00,0.77
7132.00,0.77
7131.00,0.76
7130.00,0.76
7129.00,0.76
7128.00,0.75
7127.00,0.75
7126.00,0.74
7125.00,0.74
7124.00,0.73
7123.00,0.73
7122.00,0.72
7121.00,0.72
7120.00,0.71
7119.00,0.71
7118.00,0.71
7117.00,0.70
7116.00,0.70
7115.00,0.70
7114.00,0.69
7113.00,0.69
7112.00,0.69
7111.00,0.68
7110.00,0.68
7109.00,0.68
7108.00,0.67
7107.00,0.67
7106.00,0.67
7105.00,0.66
7104.00,0.66
7103.00,0.66
7102.00,0.65
7101.00,0.65
7100.00,0.65
7099.00,0.64
7098.00,0.64
7097.00,0.63
7096.00,0.63
7095.00,0.63
7094.00,0.62
7093.00,0.62
7092.00,0.62
7091.00,0.62
7090.00,0.61
7089.00,0.61
7088.00,0.61
7087.00,0.61
7086.00,0.60
7085.00,0.60
7084.00,0.60
7083.00,0.60
7082.00,0.60
7081.00,0.60
7080.00,0.60
7079.00,0.60
7078.00,0.60
7077.00,0.60
7076.00,0.60
7075.00,0.60
7074.00,0.60
7073.00,0.60
7072.00,0.60
7071.00,0.60
7070.00,0.60
7069.00,0.60
7068.00,0.60
7067.00,0.60
7066.00,0.60
7065.00,0.60
7064.00,0.60
7063.00,0.60
7062.00,0.60
7061.00,0.59
7060.00,0.59
7059.00,0.59
7058.00,0.59
7057.00,0.59
7056.00,0.59
7055.00,0.58
7054.00,0.58
7053.00,0.58
7052.00,0.58
7051.00,0.57
7050.00,0.57
7049.00,0.57
7048.00,0.57
7047.00,0.56
7046.00,0.56
7045.00,0.56
7044.00,0.56
7043.00,0.56
7042.00,0.56
7041.00,0.56
7040.00,0.56
7039.00,0.56
7038.00,0.56
7037.00,0.56
7036.00,0.56
7035.00,0.56
7034.00,0.56
7033.00,0.56
7032.00,0.56
7031.00,0.56
7030.00,0.56
7029.00,0.56
7028.00,0.56
7027.00,0.56
7026.00,0.56
7025.00,0.56
7024.00,0.56
7023.00,0.56
7022.00,0.56
7021.00,0.56
7020.00,0.56
7019.00,0.56
7018.00,0.56
7017.00,0.56
7016.00,0.56
7015.00,0.56
7014.00,0.56
7013.00,0.56
7012.00,0.55
7011.00,0.55
7010.00,0.55
7009.00,0.55
7008.00,0.55
7007.00,0.54
7006.00,0.54
7005.00,0.54
7004.00,0.54
7003.00,0.54
7002.00,0.54
7001.00,0.54
7000.00,0.54
6999.00,0.53
6998.00,0.53
6997.00,0.53
6996.00,0.53
6995.00,0.53
6994.00,0.53
6993.00,0.53
6992.00,0.53
6991.00,0.53
6990.00,0.53
6989.00,0.53
6988.00,0.53
6987.00,0.53
6986.00,0.53
6985.00,0.53
6984.00,0.53
6983.00,0.53
6982.00,0.53
6981.00,0.54
6980.00,0.54
6979.00,0.54
6978.00,0.54
6977.00,0.54
6976.00,0.54
6975.00,0.54
6974.00,0.54
6973.00,0.54
6972.00,0.54
6971.00,0.54
6970.00,0.54
6969.00,0.54
6968.00,0.54
6967.00,0.54
6966.00,0.54
6965.00,0.54
6964.00,0.54
6963.00,0.54
6962.00,0.54
6961.00,0.54
6960.00,0.54
6959.00,0.54
6958.00,0.54
6957.00,0.54
6956.00,0.54
6955.00,0.55
6954.00,0.55
6953.00,0.55
6952.00,0.55
6951.00,0.55
6950.00,0.55
6949.00,0.55
6948.00,0.55
6947.00,0.55
6946.00,0.55
6945.00,0.55
6944.00,0.55
6943.00,0.55
6942.00,0.55
6941.00,0.55
6940.00,0.55
6939.00,0.55
6938.00,0.55
6937.00,0.55
6936.00,0.55
6935.00,0.55
6934.00,0.55
6933.00,0.55
6932.00,0.55
6931.00,0.55
6930.00,0.55
6929.00,0.55
6928.00,0.55
6927.00,0.54
6926.00,0.54
6925.00,0.54
6924.00,0.54
6923.00,0.54
6922.00,0.53
6921.00,0.53
6920.00,0.53
6919.00,0.53
6918.00,0.53
6917.00,0.53
6916.00,0.53
6915.00,0.53
6914.00,0.53
6913.00,0.53
6912.00,0.53
6911.00,0.53
6910.00,0.53
6909.00,0.53
6908.00,0.53
6907.00,0.53
6906.00,0.53
6905.00,0.53
6904.00,0.53
6903.00,0.53
6902.00,0.53
6901.00,0.54
6900.00,0.54
6899.00,0.54
6898.00,0.54
6897.00,0.55
6896.00,0.55
6895.00,0.55
6894.00,0.56
6893.00,0.56
6892.00,0.56
6891.00,0.56
6890.00,0.56
6889.00,0.57
6888.00,0.57
6887.00,0.57
6886.00,0.57
6885.00,0.57
6884.00,0.57
6883.00,0.57
6882.00,0.57
6881.00,0.56
6880.00,0.56
6879.00,0.56
6878.00,0.56
6877.00,0.56
6876.00,0.55
6875.00,0.55
6874.00,0.55
6873.00,0.54
6872.00,0.54
6871.00,0.54
6870.00,0.53
6869.00,0.53
6868.00,0.52
6867.00,0.52
6866.00,0.52
6865.00,0.51
6864.00,0.51
6863.00,0.51
6862.00,0.50
6861.00,0.50
6860.00,0.50
6859.00,0.50
6858.00,0.50
6857.00,0.50
6856.00,0.50
6855.00,0.50
6854.00,0.50
6853.00,0.50
6852.00,0.50
6851.00,0.50
6850.00,0.50
6849.00,0.50
6848.00,0.50
6847.00,0.50
6846.00,0.50
6845.00,0.51
6844.00,0.51
6843.00,0.51
6842.00,0.51
6841.00,0.51
6840.00,0.51
6839.00,0.51
6838.00,0.52
6837.00,0.52
6836.00,0.52
6835.00,0.52
6834.00,0.52
6833.00,0.52
6832.00,0.52
6831.00,0.52
6830.00,0.52
6829.00,0.52
6828.00,0.52
6827.00,0.52
6826.00,0.52
6825.00,0.52
6824.00,0.52
6823.00,0.52
6822.00,0.53
6821.00,0.53
6820.00,0.53
6819.00,0.53
6818.00,0.53
6817.00,0.53
6816.00,0.53
6815.00,0.53
6814.00,0.53
6813.00,0.53
6812.00,0.53
6811.00,0.53
6810.00,0.53
6809.00,0.53
6808.00,0.53
6807.00,0.53
6806.00,0.54
6805.00,0.54
6804.00,0.54
6803.00,0.54
6802.00,0.54
6801.00,0.54
6800.00,0.54
6799.00,0.54
6798.00,0.54
6797.00,0.54
6796.00,0.54
6795.00,0.54
6794.00,0.55
6793.00,0.55
6792.00,0.55
6791.00,0.55
6790.00,0.55
6789.00,0.55
6788.00,0.55
6787.00,0.55
6786.00,0.55
6785.00,0.56
6784.00,0.56
6783.00,0.56
6782.00,0.56
6781.00,0.56
6780.00,0.56
6779.00,0.56
6778.00,0.57
6777.00,0.57
6776.00,0.57
6775.00,0.57
6774.00,0.57
6773.00,0.57
6772.00,0.57
6771.00,0.58
6770.00,0.58
6769.00,0.58
6768.00,0.58
6767.00,0.58
6766.00,0.58
6765.00,0.58
6764.00,0.58
6763.00,0.59
6762.00,0.59
6761.00,0.59
6760.00,0.59
6759.00,0.59
6758.00,0.59
6757.00,0.59
6756.00,0.59
6755.00,0.59
6754.00,0.59
6753.00,0.58
6752.00,0.58
6751.00,0.58
6750.00,0.58
6749.00,0.58
6748.00,0.58
6747.00,0.58
6746.00,0.58
6745.00,0.57
6744.00,0.57
6743.00,0.57
6742.00,0.57
6741.00,0.57
6740.00,0.57
6739.00,0.57
6738.00,0.57
6737.00,0.57
6736.00,0.56
6735.00,0.56
6734.00,0.56
6733.00,0.56
6732.00,0.56
6731.00,0.56
6730.00,0.56
6729.00,0.57
6728.00,0.57
6727.00,0.57
6726.00,0.57
6725.00,0.57
6724.00,0.57
6723.00,0.57
6722.00,0.58
6721.00,0.58
6720.00,0.58
6719.00,0.58
6718.00,0.58
6717.00,0.58
6716.00,0.59
6715.00,0.59
6714.00,0.59
6713.00,0.59
6712.00,0.59
6711.00,0.59
6710.00,0.60
6709.00,0.60
6708.00,0.60
6707.00,0.60
6706.00,0.60
6705.00,0.60
6704.00,0.60
6703.00,0.60
6702.00,0.60
6701.00,0.60
6700.00,0.60
6699.00,0.60
6698.00,0.60
6697.00,0.60
6696.00,0.60
6695.00,0.60
6694.00,0.60
6693.00,0.60
6692.00,0.60
6691.00,0.60
6690.00,0.60
6689.00,0.60
6688.00,0.60
6687.00,0.60
6686.00,0.60
6685.00,0.60
6684.00,0.60
6683.00,0.60
6682.00,0.60
6681.00,0.60
6680.00,0.60
6679.00,0.60
6678.00,0.60
6677.00,0.60
6676.00,0.60
6675.00,0.60
6674.00,0.61
6673.00,0.61
6672.00,0.61
6671.00,0.61
6670.00,0.61
6669.00,0.60
6668.00,0.60
6667.00,0.60
6666.00,0.60
6665.00,0.60
6664.00,0.60
6663.00,0.60
6662.00,0.60
6661.00,0.60
6660.00,0.60
6659.00,0.60
6658.00,0.60
6657.00,0.60
6656.00,0.60
6655.00,0.61
6654.00,0.61
6653.00,0.61
6652.00,0.61
6651.00,0.61
6650.00,0.61
6649.00,0.61
6648.00,0.61
6647.00,0.61
6646.00,0.61
6645.00,0.61
6644.00,0.61
6643.00,0.62
6642.00,0.62
6641.00,0.62
6640.00,0.62
6639.00,0.62
6638.00,0.63
6637.00,0.63
6636.00,0.63
6635.00,0.63
6634.00,0.64
6633.00,0.64
6632.00,0.64
6631.00,0.64
6630.00,0.65
6629.00,0.65
6628.00,0.65
6627.00,0.65
6626.00,0.65
6625.00,0.65
6624.00,0.66
6623.00,0.66
6622.00,0.66
6621.00,0.66
6620.00,0.66
6619.00,0.66
6618.00,0.67
6617.00,0.67
6616.00,0.67
6615.00,0.67
6614.00,0.67
6613.00,0.67
6612.00,0.67
6611.00,0.68
6610.00,0.68
6609.00,0.68
6608.00,0.68
6607.00,0.68
6606.00,0.68
6605.00,0.68
6604.00,0.68
6603.00,0.68
6602.00,0.69
6601.00,0.69
6600.00,0.69
6599.00,0.69
6598.00,0.69
6597.00,0.69
6596.00,0.69
6595.00,0.69
6594.00,0.70
6593.00,0.70
6592.00,0.70
6591.00,0.70
6590.00,0.70
6589.00,0.70
6588.00,0.70
6587.00,0.70
6586.00,0.70
6585.00,0.70
6584.00,0.70
6583.00,0.70
6582.00,0.70
6581.00,0.70
6580.00,0.70
6579.00,0.70
6578.00,0.70
6577.00,0.70
6576.00,0.70
6575.00,0.70
6574.00,0.70
6573.00,0.70
6572.00,0.70
6571.00,0.70
6570.00,0.70
6569.00,0.70
6568.00,0.70
6567.00,0.70
6566.00,0.70
6565.00,0.70
6564.00,0.70
6563.00,0.70
6562.00,0.70
6561.00,0.70
6560.00,0.70
6559.00,0.70
6558.00,0.70
6557.00,0.71
6556.00,0.71
6555.00,0.71
6554.00,0.71
6553.00,0.71
6552.00,0.71
6551.00,0.71
6550.00,0.71
6549.00,0.71
6548.00,0.72
6547.00,0.72
6546.00,0.72
6545.00,0.72
6544.00,0.72
6543.00,0.72
6542.00,0.72
6541.00,0.72
6540.00,0.72
6539.00,0.72
6538.00,0.73
6537.00,0.73
6536.00,0.73
6535.00,0.73
6534.00,0.73
6533.00,0.74
6532.00,0.74
6531.00,0.74
6530.00,0.74
6529.00,0.74
6528.00,0.75
6527.00,0.75
6526.00,0.75
6525.00,0.75
6524.00,0.75
6523.00,0.75
6522.00,0.76
6521.00,0.76
6520.00,0.76
6519.00,0.76
6518.00,0.76
6517.00,0.76
6516.00,0.76
6515.00,0.76
6514.00,0.76
6513.00,0.76
6512.00,0.76
6511.00,0.76
6510.00,0.76
6509.00,0.76
6508.00,0.76
6507.00,0.76
6506.00,0.76
6505.00,0.76
6504.00,0.75
6503.00,0.75
6502.00,0.75
6501.00,0.75
6500.00,0.75
6499.00,0.74
6498.00,0.74
6497.00,0.74
6496.00,0.74
6495.00,0.74
6494.00,0.74
6493.00,0.74
6492.00,0.73
6491.00,0.73
6490.00,0.73
6489.00,0.73
6488.00,0.73
6487.00,0.73
6486.00,0.73
6485.00,0.74
6484.00,0.74
6483.00,0.74
6482.00,0.74
6481.00,0.74
6480.00,0.74
6479.00,0.74
6478.00,0.74
6477.00,0.74
6476.00,0.74
6475.00,0.75
6474.00,0.75
6473.00,0.75
6472.00,0.75
6471.00,0.75
6470.00,0.75
6469.00,0.75
6468.00,0.75
6467.00,0.75
6466.00,0.75
6465.00,0.75
6464.00,0.75
6463.00,0.75
6462.00,0.76
6461.00,0.76
6460.00,0.76
6459.00,0.76
6458.00,0.76
6457.00,0.76
6456.00,0.76
6455.00,0.76
6454.00,0.77
6453.00,0.77
6452.00,0.77
6451.00,0.77
6450.00,0.77
6449.00,0.78
6448.00,0.78
6447.00,0.78
6446.00,0.78
6445.00,0.78
6444.00,0.78
6443.00,0.78
6442.00,0.79
6441.00,0.79
6440.00,0.79
6439.00,0.79
6438.00,0.79
6437.00,0.79
6436.00,0.79
6435.00,0.80
6434.00,0.80
6433.00,0.80
6432.00,0.80
6431.00,0.80
6430.00,0.80
6429.00,0.80
6428.00,0.79
6427.00,0.79
6426.00,0.79
6425.00,0.79
6424.00,0.79
6423.00,0.79
6422.00,0.79
6421.00,0.79
6420.00,0.79
6419.00,0.79
6418.00,0.79
6417.00,0.79
6416.00,0.79
6415.00,0.79
6414.00,0.79
6413.00,0.79
6412.00,0.79
6411.00,0.80
6410.00,0.80
6409.00,0.80
6408.00,0.80
6407.00,0.80
6406.00,0.80
6405.00,0.80
6404.00,0.81
6403.00,0.81
6402.00,0.81
6401.00,0.81
6400.00,0.82
6399.00,0.82
6398.00,0.82
6397.00,0.82
6396.00,0.82
6395.00,0.82
6394.00,0.83
6393.00,0.83
6392.00,0.83
6391.00,0.83
6390.00,0.83
6389.00,0.83
6388.00,0.83
6387.00,0.83
6386.00,0.83
6385.00,0.83
6384.00,0.83
6383.00,0.84
6382.00,0.84
6381.00,0.84
6380.00,0.84
6379.00,0.84
6378.00,0.84
6377.00,0.84
6376.00,0.84
6375.00,0.84
6374.00,0.84
6373.00,0.84
6372.00,0.85
6371.00,0.85
6370.00,0.85
6369.00,0.85
6368.00,0.85
6367.00,0.85
6366.00,0.85
6365.00,0.85
6364.00,0.85
6363.00,0.85
6362.00,0.85
6361.00,0.85
6360.00,0.85
6359.00,0.85
6358.00,0.85
6357.00,0.85
6356.00,0.85
6355.00,0.85
6354.00,0.85
6353.00,0.85
6352.00,0.85
6351.00,0.85
6350.00,0.85
6349.00,0.85
6348.00,0.85
6347.00,0.84
6346.00,0.84
6345.00,0.84
6344.00,0.84
6343.00,0.84
6342.00,0.84
6341.00,0.84
6340.00,0.84
6339.00,0.84
6338.00,0.84
6337.00,0.84
6336.00,0.84
6335.00,0.85
6334.00,0.85
6333.00,0.85
6332.00,0.85
6331.00,0.85
6330.00,0.85
6329.00,0.86
6328.00,0.86
6327.00,0.86
6326.00,0.86
6325.00,0.87
6324.00,0.87
6323.00,0.87
6322.00,0.87
6321.00,0.88
6320.00,0.88
6319.00,0.88
6318.00,0.88
6317.00,0.88
6316.00,0.89
6315.00,0.89
6314.00,0.89
6313.00,0.89
6312.00,0.89
6311.00,0.90
6310.00,0.90
6309.00,0.90
6308.00,0.90
6307.00,0.90
6306.00,0.90
6305.00,0.90
6304.00,0.90
6303.00,0.90
6302.00,0.90
6301.00,0.90
6300.00,0.90
6299.00,0.91
6298.00,0.91
6297.00,0.91
6296.00,0.91
6295.00,0.91
6294.00,0.91
6293.00,0.91
6292.00,0.91
6291.00,0.91
6290.00,0.91
6289.00,0.91
6288.00,0.91
6287.00,0.91
6286.00,0.92
6285.00,0.92
6284.00,0.92
6283.00,0.92
6282.00,0.92
6281.00,0.92
6280.00,0.92
6279.00,0.92
6278.00,0.92
6277.00,0.92
6276.00,0.92
6275.00,0.93
6274.00,0.93
6273.00,0.93
6272.00,0.93
6271.00,0.93
6270.00,0.93
6269.00,0.93
6268.00,0.93
6267.00,0.93
6266.00,0.93
6265.00,0.93
6264.00,0.93
6263.00,0.93
6262.00,0.93
6261.00,0.93
6260.00,0.93
6259.00,0.93
6258.00,0.93
6257.00,0.93
6256.00,0.93
6255.00,0.93
6254.00,0.93
6253.00,0.93
6252.00,0.93
6251.00,0.93
6250.00,0.93
6249.00,0.93
6248.00,0.93
6247.00,0.93
6246.00,0.93
6245.00,0.93
6244.00,0.93
6243.00,0.94
6242.00,0.94
6241.00,0.94
6240.00,0.94
6239.00,0.94
6238.00,0.94
6237.00,0.94
6236.00,0.95
6235.00,0.95
6234.00,0.95
6233.00,0.95
6232.00,0.95
6231.00,0.95
6230.00,0.95
6229.00,0.96
6228.00,0.96
6227.00,0.96
6226.00,0.96
6225.00,0.96
6224.00,0.96
6223.00,0.97
6222.00,0.97
6221.00,0.97
6220.00,0.97
6219.00,0.98
6218.00,0.98
6217.00,0.98
6216.00,0.98
6215.00,0.98
6214.00,0.99
6213.00,0.99
6212.00,0.99
6211.00,0.99
6210.00,1.00
6209.00,1.00
6208.00,1.00
6207.00,1.00
6206.00,1.01
6205.00,1.01
6204.00,1.01
6203.00,1.01
6202.00,1.01
6201.00,1.01
6200.00,1.02
6199.00,1.02
6198.00,1.02
6197.00,1.02
6196.00,1.02
6195.00,1.02
6194.00,1.01
6193.00,1.01
6192.00,1.01
6191.00,1.01
6190.00,1.01
6189.00,1.01
6188.00,1.01
6187.00,1.01
6186.00,1.01
6185.00,1.01
6184.00,1.01
6183.00,1.01
6182.00,1.01
6181.00,1.01
6180.00,1.00
6179.00,1.00
6178.00,1.01
6177.00,1.01
6176.00,1.01
6175.00,1.01
6174.00,1.01
6173.00,1.01
6172.00,1.01
6171.00,1.01
6170.00,1.02
6169.00,1.02
6168.00,1.02
6167.00,1.02
6166.00,1.03
6165.00,1.03
6164.00,1.03
6163.00,1.03
6162.00,1.04
6161.00,1.04
6160.00,1.04
6159.00,1.04
6158.00,1.04
6157.00,1.05
6156.00,1.05
6155.00,1.05
6154.00,1.05
6153.00,1.06
6152.00,1.06
6151.00,1.06
6150.00,1.06
6149.00,1.06
6148.00,1.06
6147.00,1.07
6146.00,1.07
6145.00,1.07
6144.00,1.07
6143.00,1.07
6142.00,1.07
6141.00,1.07
6140.00,1.07
6139.00,1.07
6138.00,1.07
6137.00,1.07
6136.00,1.08
6135.00,1.08
6134.00,1.08
6133.00,1.08
6132.00,1.08
6131.00,1.08
6130.00,1.08
6129.00,1.08
6128.00,1.08
6127.00,1.08
6126.00,1.08
6125.00,1.08
6124.00,1.08
6123.00,1.08
6122.00,1.09
6121.00,1.09
6120.00,1.09
6119.00,1.09
6118.00,1.09
6117.00,1.09
6116.00,1.09
6115.00,1.09
6114.00,1.09
6113.00,1.09
6112.00,1.09
6111.00,1.09
6110.00,1.09
6109.00,1.09
6108.00,1.09
6107.00,1.09
6106.00,1.09
6105.00,1.09
6104.00,1.09
6103.00,1.09
6102.00,1.09
6101.00,1.09
6100.00,1.09
6099.00,1.09
6098.00,1.10
6097.00,1.10
6096.00,1.10
6095.00,1.10
6094.00,1.10
6093.00,1.10
6092.00,1.11
6091.00,1.11
6090.00,1.11
6089.00,1.11
6088.00,1.11
6087.00,1.11
6086.00,1.11
6085.00,1.12
6084.00,1.12
6083.00,1.12
6082.00,1.12
6081.00,1.12
6080.00,1.12
6079.00,1.12
6078.00,1.12
6077.00,1.12
6076.00,1.12
6075.00,1.12
6074.00,1.12
6073.00,1.12
6072.00,1.12
6071.00,1.12
6070.00,1.12
6069.00,1.12
6068.00,1.12
6067.00,1.12
6066.00,1.12
6065.00,1.12
6064.00,1.11
6063.00,1.11
6062.00,1.11
6061.00,1.11
6060.00,1.11
6059.00,1.11
6058.00,1.11
6057.00,1.11
6056.00,1.11
6055.00,1.11
6054.00,1.10
6053.00,1.10
6052.00,1.11
6051.00,1.11
6050.00,1.11
6049.00,1.11
6048.00,1.11
6047.00,1.11
6046.00,1.11
6045.00,1.11
6044.00,1.11
6043.00,1.12
6042.00,1.12
6041.00,1.12
6040.00,1.12
6039.00,1.12
6038.00,1.12
6037.00,1.13
6036.00,1.13
6035.00,1.13
6034.00,1.13
6033.00,1.13
6032.00,1.14
6031.00,1.14
6030.00,1.14
6029.00,1.14
6028.00,1.15
6027.00,1.15
6026.00,1.15
6025.00,1.15
6024.00,1.15
6023.00,1.15
6022.00,1.15
6021.00,1.16
6020.00,1.16
6019.00,1.16
6018.00,1.16
6017.00,1.16
6016.00,1.16
6015.00,1.16
6014.00,1.16
6013.00,1.16
6012.00,1.16
6011.00,1.16
6010.00,1.16
6009.00,1.16
6008.00,1.16
6007.00,1.16
6006.00,1.16
6005.00,1.16
6004.00,1.16
6003.00,1.16
6002.00,1.16
6001.00,1.16
6000.00,1.16
5999.00,1.16
5998.00,1.16
5997.00,1.15
5996.00,1.15
5995.00,1.15
5994.00,1.15
5993.00,1.15
5992.00,1.15
5991.00,1.14
5990.00,1.14
5989.00,1.14
5988.00,1.14
5987.00,1.14
5986.00,1.13
5985.00,1.13
5984.00,1.13
5983.00,1.13
5982.00,1.13
5981.00,1.12
5980.00,1.12
5979.00,1.12
5978.00,1.11
5977.00,1.11
5976.00,1.11
5975.00,1.11
5974.00,1.10
5973.00,1.10
5972.00,1.09
5971.00,1.09
5970.00,1.09
5969.00,1.08
5968.00,1.08
5967.00,1.07
5966.00,1.07
5965.00,1.06
5964.00,1.06
5963.00,1.06
5962.00,1.05
5961.00,1.05
5960.00,1.04
5959.00,1.04
5958.00,1.03
5957.00,1.03
5956.00,1.02
5955.00,1.02
5954.00,1.01
5953.00,1.01
5952.00,1.00
5951.00,1.00
5950.00,0.99
5949.00,0.99
5948.00,0.99
5947.00,0.98
5946.00,0.98
5945.00,0.98
5944.00,0.98
5943.00,0.98
5942.00,0.97
5941.00,0.97
5940.00,0.97
5939.00,0.97
5938.00,0.97
5937.00,0.97
5936.00,0.97
5935.00,0.96
5934.00,0.96
5933.00,0.96
5932.00,0.96
5931.00,0.96
5930.00,0.96
5929.00,0.96
5928.00,0.96
5927.00,0.96
5926.00,0.96
5925.00,0.96
5924.00,0.96
5923.00,0.96
5922.00,0.96
5921.00,0.95
5920.00,0.95
5919.00,0.95
5918.00,0.95
5917.00,0.95
5916.00,0.94
5915.00,0.94
5914.00,0.94
5913.00,0.94
5912.00,0.93
5911.00,0.93
5910.00,0.93
5909.00,0.93
5908.00,0.92
5907.00,0.92
5906.00,0.92
5905.00,0.92
5904.00,0.92
5903.00,0.92
5902.00,0.92
5901.00,0.92
5900.00,0.92
5899.00,0.92
5898.00,0.92
5897.00,0.92
5896.00,0.92
5895.00,0.92
5894.00,0.92
5893.00,0.93
5892.00,0.93
5891.00,0.93
5890.00,0.93
5889.00,0.94
5888.00,0.94
5887.00,0.95
5886.00,0.95
5885.00,0.95
5884.00,0.96
5883.00,0.96
5882.00,0.96
5881.00,0.97
5880.00,0.97
5879.00,0.97
5878.00,0.98
5877.00,0.98
5876.00,0.98
5875.00,0.99
5874.00,0.99
5873.00,0.99
5872.00,1.00
5871.00,1.00
5870.00,1.00
5869.00,1.00
5868.00,1.01
5867.00,1.01
5866.00,1.01
5865.00,1.01
5864.00,1.01
5863.00,1.02
5862.00,1.02
5861.00,1.02
5860.00,1.02
5859.00,1.02
5858.00,1.02
5857.00,1.02
5856.00,1.02
5855.00,1.02
5854.00,1.01
5853.00,1.01
5852.00,1.01
5851.00,1.01
5850.00,1.01
5849.00,1.01
5848.00,1.01
5847.00,1.01
5846.00,1.01
5845.00,1.00
5844.00,1.00
5843.00,1.00
5842.00,1.00
5841.00,1.00
5840.00,0.99
5839.00,0.99
5838.00,0.99
5837.00,0.99
5836.00,0.99
5835.00,0.99
5834.00,0.99
5833.00,0.99
5832.00,0.99
5831.00,0.98
5830.00,0.98
5829.00,0.98
5828.00,0.98
5827.00,0.98
5826.00,0.98
5825.00,0.98
5824.00,0.98
5823.00,0.98
5822.00,0.98
5821.00,0.98
5820.00,0.98
5819.00,0.98
5818.00,0.98
5817.00,0.98
5816.00,0.99
5815.00,0.99
5814.00,0.99
5813.00,0.99
5812.00,0.99
5811.00,0.99
5810.00,0.99
5809.00,0.99
5808.00,0.99
5807.00,0.99
5806.00,0.99
5805.00,0.99
5804.00,0.99
5803.00,0.99
5802.00,0.99
5801.00,0.99
5800.00,0.99
5799.00,0.99
5798.00,0.99
5797.00,0.99
5796.00,0.99
5795.00,0.99
5794.00,0.99
5793.00,0.99
5792.00,0.99
5791.00,0.99
5790.00,0.99
5789.00,1.00
5788.00,1.00
5787.00,1.00
5786.00,1.00
5785.00,1.00
5784.00,1.00
5783.00,1.00
5782.00,1.00
5781.00,0.99
5780.00,0.99
5779.00,0.99
5778.00,0.99
5777.00,0.99
5776.00,0.99
5775.00,0.99
5774.00,0.99
5773.00,0.99
5772.00,0.99
5771.00,0.99
5770.00,0.99
5769.00,0.99
5768.00,0.99
5767.00,0.99
5766.00,0.98
5765.00,0.98
5764.00,0.98
5763.00,0.98
5762.00,0.98
5761.00,0.99
5760.00,0.99
5759.00,0.99
5758.00,0.99
5757.00,0.99
5756.00,0.99
5755.00,0.99
5754.00,0.99
5753.00,1.00
5752.00,1.00
5751.00,1.00
5750.00,1.00
5749.00,1.01
5748.00,1.01
5747.00,1.01
5746.00,1.01
5745.00,1.02
5744.00,1.02
5743.00,1.02
5742.00,1.02
5741.00,1.03
5740.00,1.03
5739.00,1.03
5738.00,1.03
5737.00,1.03
5736.00,1.03
5735.00,1.04
5734.00,1.04
5733.00,1.04
5732.00,1.04
5731.00,1.04
5730.00,1.04
5729.00,1.04
5728.00,1.04
5727.00,1.04
5726.00,1.04
5725.00,1.04
5724.00,1.04
5723.00,1.04
5722.00,1.04
5721.00,1.03
5720.00,1.03
5719.00,1.03
5718.00,1.03
5717.00,1.03
5716.00,1.03
5715.00,1.03
5714.00,1.03
5713.00,1.03
5712.00,1.03
5711.00,1.03
5710.00,1.03
5709.00,1.03
5708.00,1.02
5707.00,1.02
5706.00,1.02
5705.00,1.02
5704.00,1.02
5703.00,1.02
5702.00,1.02
5701.00,1.02
5700.00,1.02
5699.00,1.02
5698.00,1.02
5697.00,1.02
5696.00,1.02
5695.00,1.02
5694.00,1.02
5693.00,1.01
5692.00,1.01
5691.00,1.01
5690.00,1.01
5689.00,1.01
5688.00,1.01
5687.00,1.01
5686.00,1.01
5685.00,1.01
5684.00,1.00
5683.00,1.00
5682.00,1.00
5681.00,1.00
5680.00,1.00
5679.00,1.00
5678.00,1.00
5677.00,1.00
5676.00,1.00
5675.00,1.00
5674.00,1.00
5673.00,1.00
5672.00,1.00
5671.00,1.00
5670.00,1.00
5669.00,1.00
5668.00,1.00
5667.00,1.00
5666.00,1.00
5665.00,1.00
5664.00,1.00
5663.00,1.00
5662.00,1.00
5661.00,1.00
5660.00,1.00
5659.00,1.01
5658.00,1.01
5657.00,1.01
5656.00,1.01
5655.00,1.01
5654.00,1.01
5653.00,1.01
5652.00,1.01
5651.00,1.01
5650.00,1.01
5649.00,1.02
5648.00,1.02
5647.00,1.02
5646.00,1.02
5645.00,1.02
5644.00,1.02
5643.00,1.02
5642.00,1.02
5641.00,1.02
5640.00,1.02
5639.00,1.02
5638.00,1.02
5637.00,1.02
5636.00,1.02
5635.00,1.02
5634.00,1.02
5633.00,1.02
5632.00,1.02
5631.00,1.02
5630.00,1.02
5629.00,1.02
5628.00,1.03
5627.00,1.03
5626.00,1.03
5625.00,1.03
5624.00,1.03
5623.00,1.03
5622.00,1.03
5621.00,1.04
5620.00,1.04
5619.00,1.04
5618.00,1.04
5617.00,1.05
5616.00,1.05
5615.00,1.05
5614.00,1.05
5613.00,1.06
5612.00,1.06
5611.00,1.06
5610.00,1.06
5609.00,1.07
5608.00,1.07
5607.00,1.07
5606.00,1.07
5605.00,1.08
5604.00,1.08
5603.00,1.08
5602.00,1.08
5601.00,1.08
5600.00,1.09
5599.00,1.09
5598.00,1.09
5597.00,1.09
5596.00,1.09
5595.00,1.10
5594.00,1.10
5593.00,1.10
5592.00,1.10
5591.00,1.10
5590.00,1.11
5589.00,1.11
5588.00,1.11
5587.00,1.11
5586.00,1.11
5585.00,1.12
5584.00,1.12
5583.00,1.12
5582.00,1.12
5581.00,1.12
5580.00,1.12
5579.00,1.12
5578.00,1.13
5577.00,1.13
5576.00,1.13
5575.00,1.13
5574.00,1.13
5573.00,1.13
5572.00,1.13
5571.00,1.13
5570.00,1.14
5569.00,1.14
5568.00,1.14
5567.00,1.14
5566.00,1.14
5565.00,1.14
5564.00,1.14
5563.00,1.14
5562.00,1.14
5561.00,1.14
5560.00,1.14
5559.00,1.14
5558.00,1.14
5557.00,1.14
5556.00,1.14
5555.00,1.14
5554.00,1.14
5553.00,1.14
5552.00,1.14
5551.00,1.14
5550.00,1.14
5549.00,1.14
5548.00,1.14
5547.00,1.14
5546.00,1.14
5545.00,1.14
5544.00,1.15
5543.00,1.15
5542.00,1.15
5541.00,1.15
5540.00,1.15
5539.00,1.15
5538.00,1.15
5537.00,1.15
5536.00,1.15
5535.00,1.15
5534.00,1.15
5533.00,1.15
5532.00,1.16
5531.00,1.16
5530.00,1.16
5529.00,1.16
5528.00,1.16
5527.00,1.16
5526.00,1.17
5525.00,1.17
5524.00,1.17
5523.00,1.17
5522.00,1.17
5521.00,1.17
5520.00,1.18
5519.00,1.18
5518.00,1.18
5517.00,1.18
5516.00,1.18
5515.00,1.18
5514.00,1.19
5513.00,1.19
5512.00,1.19
5511.00,1.19
5510.00,1.19
5509.00,1.19
5508.00,1.19
5507.00,1.19
5506.00,1.19
5505.00,1.19
5504.00,1.19
5503.00,1.19
5502.00,1.19
5501.00,1.19
5500.00,1.19
5499.00,1.19
5498.00,1.19
5497.00,1.19
5496.00,1.19
5495.00,1.19
5494.00,1.19
5493.00,1.19
5492.00,1.19
5491.00,1.19
5490.00,1.19
5489.00,1.19
5488.00,1.19
5487.00,1.19
5486.00,1.19
5485.00,1.19
5484.00,1.19
5483.00,1.19
5482.00,1.19
5481.00,1.19
5480.00,1.19
5479.00,1.19
5478.00,1.19
5477.00,1.20
5476.00,1.20
5475.00,1.20
5474.00,1.20
5473.00,1.20
5472.00,1.20
5471.00,1.20
5470.00,1.20
5469.00,1.21
5468.00,1.21
5467.00,1.21
5466.00,1.21
5465.00,1.21
5464.00,1.21
5463.00,1.22
5462.00,1.22
5461.00,1.22
5460.00,1.22
5459.00,1.22
5458.00,1.22
5457.00,1.22
5456.00,1.22
5455.00,1.22
5454.00,1.22
5453.00,1.22
5452.00,1.22
5451.00,1.22
5450.00,1.22
5449.00,1.22
5448.00,1.22
5447.00,1.22
5446.00,1.22
5445.00,1.22
5444.00,1.22
5443.00,1.22
5442.00,1.22
5441.00,1.22
5440.00,1.22
5439.00,1.22
5438.00,1.22
5437.00,1.22
5436.00,1.22
5435.00,1.22
5434.00,1.22
5433.00,1.22
5432.00,1.22
5431.00,1.22
5430.00,1.22
5429.00,1.22
5428.00,1.22
5427.00,1.22
5426.00,1.22
5425.00,1.22
5424.00,1.22
5423.00,1.22
5422.00,1.23
5421.00,1.23
5420.00,1.23
5419.00,1.23
5418.00,1.23
5417.00,1.23
5416.00,1.23
5415.00,1.23
5414.00,1.23
5413.00,1.23
5412.00,1.23
5411.00,1.23
5410.00,1.23
5409.00,1.23
5408.00,1.23
5407.00,1.23
5406.00,1.23
5405.00,1.23
5404.00,1.23
5403.00,1.23
5402.00,1.23
5401.00,1.23
5400.00,1.23
5399.00,1.23
5398.00,1.23
5397.00,1.23
5396.00,1.23
5395.00,1.22
5394.00,1.22
5393.00,1.22
5392.00,1.22
5391.00,1.22
5390.00,1.22
5389.00,1.22
5388.00,1.22
5387.00,1.22
5386.00,1.22
5385.00,1.21
5384.00,1.21
5383.00,1.21
5382.00,1.21
5381.00,1.21
5380.00,1.21
5379.00,1.20
5378.00,1.20
5377.00,1.20
5376.00,1.20
5375.00,1.19
5374.00,1.19
5373.00,1.19
5372.00,1.18
5371.00,1.18
5370.00,1.18
5369.00,1.17
5368.00,1.17
5367.00,1.16
5366.00,1.16
5365.00,1.15
5364.00,1.15
5363.00,1.14
5362.00,1.14
5361.00,1.13
5360.00,1.13
5359.00,1.12
5358.00,1.11
5357.00,1.11
5356.00,1.10
5355.00,1.09
5354.00,1.08
5353.00,1.08
5352.00,1.07
5351.00,1.06
5350.00,1.05
5349.00,1.04
5348.00,1.04
5347.00,1.03
5346.00,1.02
5345.00,1.01
5344.00,1.00
5343.00,0.99
5342.00,0.98
5341.00,0.97
5340.00,0.96
5339.00,0.95
5338.00,0.94
5337.00,0.93
5336.00,0.92
5335.00,0.91
5334.00,0.90
5333.00,0.89
5332.00,0.88
5331.00,0.87
5330.00,0.86
5329.00,0.85
5328.00,0.84
5327.00,0.83
5326.00,0.82
5325.00,0.81
5324.00,0.80
5323.00,0.79
5322.00,0.78
5321.00,0.77
5320.00,0.76
5319.00,0.76
5318.00,0.75
5317.00,0.74
5316.00,0.73
5315.00,0.72
5314.00,0.72
5313.00,0.71
5312.00,0.70
5311.00,0.70
5310.00,0.69
5309.00,0.68
5308.00,0.67
5307.00,0.67
5306.00,0.66
5305.00,0.65
5304.00,0.65
5303.00,0.64
5302.00,0.64
5301.00,0.63
5300.00,0.62
5299.00,0.62
5298.00,0.61
5297.00,0.61
5296.00,0.60
5295.00,0.60
5294.00,0.59
5293.00,0.59
5292.00,0.58
5291.00,0.58
5290.00,0.57
5289.00,0.57
5288.00,0.57
5287.00,0.56
5286.00,0.56
5285.00,0.55
5284.00,0.55
5283.00,0.55
5282.00,0.54
5281.00,0.54
5280.00,0.54
5279.00,0.54
5278.00,0.53
5277.00,0.53
5276.00,0.53
5275.00,0.53
5274.00,0.52
5273.00,0.52
5272.00,0.52
5271.00,0.52
5270.00,0.52
5269.00,0.52
5268.00,0.52
5267.00,0.52
5266.00,0.51
5265.00,0.51
5264.00,0.51
5263.00,0.51
5262.00,0.51
5261.00,0.51
5260.00,0.51
5259.00,0.51
5258.00,0.50
5257.00,0.50
5256.00,0.50
5255.00,0.50
5254.00,0.50
5253.00,0.50
5252.00,0.50
5251.00,0.50
5250.00,0.49
5249.00,0.49
5248.00,0.49
5247.00,0.49
5246.00,0.49
5245.00,0.49
5244.00,0.49
5243.00,0.49
5242.00,0.49
5241.00,0.48
5240.00,0.48
5239.00,0.48
5238.00,0.48
5237.00,0.48
5236.00,0.48
5235.00,0.48
5234.00,0.48
5233.00,0.48
5232.00,0.48
5231.00,0.48
5230.00,0.48
5229.00,0.48
5228.00,0.48
5227.00,0.48
5226.00,0.48
5225.00,0.48
5224.00,0.48
5223.00,0.48
5222.00,0.48
5221.00,0.48
5220.00,0.48
5219.00,0.48
5218.00,0.49
5217.00,0.49
5216.00,0.49
5215.00,0.49
5214.00,0.49
5213.00,0.49
5212.00,0.49
5211.00,0.49
5210.00,0.49
5209.00,0.49
5208.00,0.49
5207.00,0.49
5206.00,0.49
5205.00,0.49
5204.00,0.49
5203.00,0.49
5202.00,0.50
5201.00,0.50
5200.00,0.50
5199.00,0.50
5198.00,0.50
5197.00,0.50
5196.00,0.51
5195.00,0.51
5194.00,0.51
5193.00,0.51
5192.00,0.51
5191.00,0.51
5190.00,0.51
5189.00,0.52
5188.00,0.52
5187.00,0.52
5186.00,0.52
5185.00,0.52
5184.00,0.52
5183.00,0.53
5182.00,0.53
5181.00,0.53
5180.00,0.53
5179.00,0.53
5178.00,0.53
5177.00,0.53
5176.00,0.53
5175.00,0.53
5174.00,0.53
5173.00,0.53
5172.00,0.53
5171.00,0.53
5170.00,0.53
5169.00,0.53
5168.00,0.53
5167.00,0.53
5166.00,0.53
5165.00,0.52
5164.00,0.52
5163.00,0.52
5162.00,0.52
5161.00,0.52
5160.00,0.52
5159.00,0.52
5158.00,0.52
5157.00,0.52
5156.00,0.52
5155.00,0.52
5154.00,0.52
5153.00,0.52
5152.00,0.52
5151.00,0.52
5150.00,0.52
5149.00,0.52
5148.00,0.52
5147.00,0.52
5146.00,0.52
5145.00,0.52
5144.00,0.52
5143.00,0.52
5142.00,0.52
5141.00,0.52
5140.00,0.53
5139.00,0.53
5138.00,0.53
5137.00,0.53
5136.00,0.53
5135.00,0.53
5134.00,0.53
5133.00,0.53
5132.00,0.53
5131.00,0.53
5130.00,0.53
5129.00,0.53
5128.00,0.53
5127.00,0.53
5126.00,0.53
5125.00,0.53
5124.00,0.53
5123.00,0.53
5122.00,0.53
5121.00,0.53
5120.00,0.53
5119.00,0.53
5118.00,0.53
5117.00,0.53
5116.00,0.53
5115.00,0.53
5114.00,0.53
5113.00,0.53
5112.00,0.53
5111.00,0.53
5110.00,0.53
5109.00,0.53
5108.00,0.53
5107.00,0.53
5106.00,0.53
5105.00,0.53
5104.00,0.53
5103.00,0.53
5102.00,0.53
5101.00,0.53
5100.00,0.53
5099.00,0.53
5098.00,0.53
5097.00,0.53
5096.00,0.53
5095.00,0.53
5094.00,0.53
5093.00,0.53
5092.00,0.53
5091.00,0.54
5090.00,0.54
5089.00,0.54
5088.00,0.54
5087.00,0.54
5086.00,0.54
5085.00,0.55
5084.00,0.55
5083.00,0.55
5082.00,0.55
5081.00,0.55
5080.00,0.56
5079.00,0.56
5078.00,0.56
5077.00,0.56
5076.00,0.56
5075.00,0.57
5074.00,0.57
5073.00,0.57
5072.00,0.57
5071.00,0.57
5070.00,0.57
5069.00,0.58
5068.00,0.58
5067.00,0.58
5066.00,0.58
5065.00,0.58
5064.00,0.58
5063.00,0.58
5062.00,0.58
5061.00,0.58
5060.00,0.58
5059.00,0.58
5058.00,0.58
5057.00,0.58
5056.00,0.58
5055.00,0.58
5054.00,0.58
5053.00,0.58
5052.00,0.58
5051.00,0.58
5050.00,0.58
5049.00,0.57
5048.00,0.57
5047.00,0.57
5046.00,0.57
5045.00,0.57
5044.00,0.57
5043.00,0.57
5042.00,0.57
5041.00,0.57
5040.00,0.57
5039.00,0.57
5038.00,0.57
5037.00,0.57
5036.00,0.57
5035.00,0.57
5034.00,0.57
5033.00,0.58
5032.00,0.58
5031.00,0.58
5030.00,0.58
5029.00,0.58
5028.00,0.58
5027.00,0.58
5026.00,0.58
5025.00,0.58
5024.00,0.58
5023.00,0.59
5022.00,0.59
5021.00,0.59
5020.00,0.59
5019.00,0.59
5018.00,0.59
5017.00,0.60
5016.00,0.60
5015.00,0.60
5014.00,0.60
5013.00,0.60
5012.00,0.60
5011.00,0.60
5010.00,0.60
5009.00,0.61
5008.00,0.61
5007.00,0.61
5006.00,0.61
5005.00,0.61
5004.00,0.61
5003.00,0.61
5002.00,0.62
5001.00,0.62
5000.00,0.62
4999.00,0.62
4998.00,0.62
4997.00,0.62
4996.00,0.62
4995.00,0.62
4994.00,0.62
4993.00,0.62
4992.00,0.62
4991.00,0.62
4990.00,0.62
4989.00,0.63
4988.00,0.63
4987.00,0.63
4986.00,0.63
4985.00,0.63
4984.00,0.63
4983.00,0.63
4982.00,0.63
4981.00,0.64
4980.00,0.64
4979.00,0.64
4978.00,0.64
4977.00,0.64
4976.00,0.65
4975.00,0.65
4974.00,0.65
4973.00,0.65
4972.00,0.66
4971.00,0.66
4970.00,0.66
4969.00,0.67
4968.00,0.67
4967.00,0.67
4966.00,0.67
4965.00,0.67
4964.00,0.68
4963.00,0.68
4962.00,0.68
4961.00,0.68
4960.00,0.68
4959.00,0.68
4958.00,0.68
4957.00,0.68
4956.00,0.68
4955.00,0.68
4954.00,0.68
4953.00,0.68
4952.00,0.68
4951.00,0.68
4950.00,0.68
4949.00,0.68
4948.00,0.68
4947.00,0.67
4946.00,0.67
4945.00,0.67
4944.00,0.67
4943.00,0.67
4942.00,0.66
4941.00,0.66
4940.00,0.66
4939.00,0.66
4938.00,0.66
4937.00,0.66
4936.00,0.66
4935.00,0.66
4934.00,0.66
4933.00,0.66
4932.00,0.65
4931.00,0.65
4930.00,0.65
4929.00,0.65
4928.00,0.66
4927.00,0.66
4926.00,0.66
4925.00,0.66
4924.00,0.66
4923.00,0.66
4922.00,0.66
4921.00,0.66
4920.00,0.66
4919.00,0.66
4918.00,0.67
4917.00,0.67
4916.00,0.67
4915.00,0.67
4914.00,0.67
4913.00,0.67
4912.00,0.67
4911.00,0.68
4910.00,0.68
4909.00,0.68
4908.00,0.68
4907.00,0.68
4906.00,0.69
4905.00,0.69
4904.00,0.69
4903.00,0.69
4902.00,0.70
4901.00,0.70
4900.00,0.70
4899.00,0.70
4898.00,0.70
4897.00,0.71
4896.00,0.71
4895.00,0.71
4894.00,0.71
4893.00,0.72
4892.00,0.72
4891.00,0.72
4890.00,0.73
4889.00,0.73
4888.00,0.73
4887.00,0.73
4886.00,0.74
4885.00,0.74
4884.00,0.74
4883.00,0.75
4882.00,0.75
4881.00,0.75
4880.00,0.75
4879.00,0.75
4878.00,0.75
4877.00,0.76
4876.00,0.76
4875.00,0.76
4874.00,0.76
4873.00,0.76
4872.00,0.76
4871.00,0.77
4870.00,0.77
4869.00,0.77
4868.00,0.77
4867.00,0.77
4866.00,0.77
4865.00,0.77
4864.00,0.77
4863.00,0.77
4862.00,0.77
4861.00,0.77
4860.00,0.77
4859.00,0.77
4858.00,0.77
4857.00,0.77
4856.00,0.77
4855.00,0.77
4854.00,0.77
4853.00,0.77
4852.00,0.77
4851.00,0.76
4850.00,0.76
4849.00,0.76
4848.00,0.76
4847.00,0.76
4846.00,0.76
4845.00,0.76
4844.00,0.77
4843.00,0.77
4842.00,0.77
4841.00,0.77
4840.00,0.77
4839.00,0.77
4838.00,0.77
4837.00,0.77
4836.00,0.77
4835.00,0.77
4834.00,0.77
4833.00,0.77
4832.00,0.77
4831.00,0.77
4830.00,0.78
4829.00,0.78
4828.00,0.78
4827.00,0.78
4826.00,0.78
4825.00,0.78
4824.00,0.78
4823.00,0.78
4822.00,0.79
4821.00,0.79
4820.00,0.79
4819.00,0.79
4818.00,0.79
4817.00,0.79
4816.00,0.79
4815.00,0.79
4814.00,0.79
4813.00,0.80
4812.00,0.80
4811.00,0.80
4810.00,0.80
4809.00,0.80
4808.00,0.80
4807.00,0.81
4806.00,0.81
4805.00,0.81
4804.00,0.81
4803.00,0.81
4802.00,0.81
4801.00,0.81
4800.00,0.81
4799.00,0.81
4798.00,0.81
4797.00,0.81
4796.00,0.81
4795.00,0.81
4794.00,0.81
4793.00,0.81
4792.00,0.81
4791.00,0.82
4790.00,0.82
4789.00,0.81
4788.00,0.81
4787.00,0.81
4786.00,0.81
4785.00,0.81
4784.00,0.81
4783.00,0.81
4782.00,0.81
4781.00,0.81
4780.00,0.81
4779.00,0.81
4778.00,0.81
4777.00,0.82
4776.00,0.82
4775.00,0.82
4774.00,0.82
4773.00,0.82
4772.00,0.82
4771.00,0.82
4770.00,0.83
4769.00,0.83
4768.00,0.83
4767.00,0.83
4766.00,0.83
4765.00,0.84
4764.00,0.84
4763.00,0.84
4762.00,0.84
4761.00,0.85
4760.00,0.85
4759.00,0.85
4758.00,0.86
4757.00,0.86
4756.00,0.87
4755.00,0.87
4754.00,0.87
4753.00,0.88
4752.00,0.88
4751.00,0.88
4750.00,0.89
4749.00,0.89
4748.00,0.89
4747.00,0.90
4746.00,0.90
4745.00,0.91
4744.00,0.91
4743.00,0.91
4742.00,0.91
4741.00,0.92
4740.00,0.92
4739.00,0.92
4738.00,0.93
4737.00,0.93
4736.00,0.93
4735.00,0.93
4734.00,0.93
4733.00,0.94
4732.00,0.94
4731.00,0.94
4730.00,0.94
4729.00,0.94
4728.00,0.94
4727.00,0.94
4726.00,0.94
4725.00,0.94
4724.00,0.94
4723.00,0.95
4722.00,0.95
4721.00,0.95
4720.00,0.95
4719.00,0.95
4718.00,0.95
4717.00,0.95
4716.00,0.96
4715.00,0.96
4714.00,0.96
4713.00,0.96
4712.00,0.96
4711.00,0.96
4710.00,0.96
4709.00,0.97
4708.00,0.97
4707.00,0.97
4706.00,0.97
4705.00,0.98
4704.00,0.98
4703.00,0.98
4702.00,0.98
4701.00,0.99
4700.00,0.99
4699.00,0.99
4698.00,1.00
4697.00,1.00
4696.00,1.00
4695.00,1.00
4694.00,1.01
4693.00,1.01
4692.00,1.01
4691.00,1.01
4690.00,1.02
4689.00,1.02
4688.00,1.02
4687.00,1.02
4686.00,1.03
4685.00,1.03
4684.00,1.04
4683.00,1.04
4682.00,1.04
4681.00,1.05
4680.00,1.05
4679.00,1.05
4678.00,1.06
4677.00,1.06
4676.00,1.06
4675.00,1.06
4674.00,1.07
4673.00,1.07
4672.00,1.07
4671.00,1.07
4670.00,1.08
4669.00,1.08
4668.00,1.08
4667.00,1.08
4666.00,1.09
4665.00,1.09
4664.00,1.09
4663.00,1.09
4662.00,1.09
4661.00,1.09
4660.00,1.09
4659.00,1.09
4658.00,1.09
4657.00,1.09
4656.00,1.09
4655.00,1.09
4654.00,1.09
4653.00,1.09
4652.00,1.09
4651.00,1.09
4650.00,1.09
4649.00,1.09
4648.00,1.08
4647.00,1.08
4646.00,1.08
4645.00,1.08
4644.00,1.08
4643.00,1.08
4642.00,1.08
4641.00,1.08
4640.00,1.08
4639.00,1.08
4638.00,1.09
4637.00,1.09
4636.00,1.09
4635.00,1.09
4634.00,1.09
4633.00,1.09
4632.00,1.09
4631.00,1.10
4630.00,1.10
4629.00,1.10
4628.00,1.10
4627.00,1.10
4626.00,1.11
4625.00,1.11
4624.00,1.11
4623.00,1.12
4622.00,1.12
4621.00,1.12
4620.00,1.12
4619.00,1.12
4618.00,1.13
4617.00,1.13
4616.00,1.13
4615.00,1.13
4614.00,1.14
4613.00,1.14
4612.00,1.14
4611.00,1.14
4610.00,1.14
4609.00,1.14
4608.00,1.14
4607.00,1.15
4606.00,1.15
4605.00,1.15
4604.00,1.15
4603.00,1.15
4602.00,1.15
4601.00,1.15
4600.00,1.15
4599.00,1.15
4598.00,1.15
4597.00,1.15
4596.00,1.15
4595.00,1.15
4594.00,1.15
4593.00,1.15
4592.00,1.15
4591.00,1.15
4590.00,1.15
4589.00,1.15
4588.00,1.15
4587.00,1.15
4586.00,1.14
4585.00,1.15
4584.00,1.15
4583.00,1.15
4582.00,1.15
4581.00,1.15
4580.00,1.15
4579.00,1.15
4578.00,1.15
4577.00,1.15
4576.00,1.15
4575.00,1.15
4574.00,1.15
4573.00,1.16
4572.00,1.16
4571.00,1.16
4570.00,1.16
4569.00,1.16
4568.00,1.16
4567.00,1.16
4566.00,1.17
4565.00,1.17
4564.00,1.17
4563.00,1.17
4562.00,1.17
4561.00,1.17
4560.00,1.18
4559.00,1.18
4558.00,1.18
4557.00,1.18
4556.00,1.18
4555.00,1.18
4554.00,1.18
4553.00,1.19
4552.00,1.19
4551.00,1.19
4550.00,1.19
4549.00,1.19
4548.00,1.19
4547.00,1.19
4546.00,1.19
4545.00,1.19
4544.00,1.19
4543.00,1.19
4542.00,1.18
4541.00,1.18
4540.00,1.18
4539.00,1.18
4538.00,1.18
4537.00,1.18
4536.00,1.18
4535.00,1.17
4534.00,1.17
4533.00,1.17
4532.00,1.17
4531.00,1.17
4530.00,1.17
4529.00,1.17
4528.00,1.17
4527.00,1.17
4526.00,1.17
4525.00,1.17
4524.00,1.17
4523.00,1.17
4522.00,1.17
4521.00,1.17
4520.00,1.17
4519.00,1.17
4518.00,1.17
4517.00,1.18
4516.00,1.18
4515.00,1.18
4514.00,1.18
4513.00,1.19
4512.00,1.19
4511.00,1.19
4510.00,1.19
4509.00,1.19
4508.00,1.20
4507.00,1.20
4506.00,1.20
4505.00,1.20
4504.00,1.20
4503.00,1.20
4502.00,1.20
4501.00,1.20
4500.00,1.20
4499.00,1.20
4498.00,1.20
4497.00,1.20
4496.00,1.20
4495.00,1.20
4494.00,1.20
4493.00,1.20
4492.00,1.20
4491.00,1.20
4490.00,1.19
4489.00,1.19
4488.00,1.19
4487.00,1.19
4486.00,1.19
4485.00,1.18
4484.00,1.18
4483.00,1.18
4482.00,1.17
4481.00,1.17
4480.00,1.17
4479.00,1.17
4478.00,1.16
4477.00,1.16
4476.00,1.16
4475.00,1.15
4474.00,1.15
4473.00,1.15
4472.00,1.15
4471.00,1.14
4470.00,1.14
4469.00,1.13
4468.00,1.13
4467.00,1.13
4466.00,1.12
4465.00,1.12
4464.00,1.12
4463.00,1.11
4462.00,1.11
4461.00,1.10
4460.00,1.10
4459.00,1.10
4458.00,1.09
4457.00,1.09
4456.00,1.09
4455.00,1.08
4454.00,1.08
4453.00,1.07
4452.00,1.07
4451.00,1.07
4450.00,1.06
4449.00,1.06
4448.00,1.05
4447.00,1.05
4446.00,1.05
4445.00,1.04
4444.00,1.04
4443.00,1.03
4442.00,1.03
4441.00,1.03
4440.00,1.02
4439.00,1.02
4438.00,1.01
4437.00,1.01
4436.00,1.00
4435.00,1.00
4434.00,0.99
4433.00,0.99
4432.00,0.98
4431.00,0.98
4430.00,0.97
4429.00,0.96
4428.00,0.96
4427.00,0.95
4426.00,0.95
4425.00,0.94
4424.00,0.93
4423.00,0.93
4422.00,0.92
4421.00,0.92
4420.00,0.91
4419.00,0.91
4418.00,0.90
4417.00,0.90
4416.00,0.89
4415.00,0.89
4414.00,0.89
4413.00,0.88
4412.00,0.88
4411.00,0.88
4410.00,0.88
4409.00,0.88
4408.00,0.87
4407.00,0.87
4406.00,0.87
4405.00,0.87
4404.00,0.87
4403.00,0.87
4402.00,0.87
4401.00,0.88
4400.00,0.88
4399.00,0.88
4398.00,0.88
4397.00,0.89
4396.00,0.89
4395.00,0.89
4394.00,0.89
4393.00,0.90
4392.00,0.90
4391.00,0.90
4390.00,0.91
4389.00,0.91
4388.00,0.91
4387.00,0.92
4386.00,0.92
4385.00,0.92
4384.00,0.93
4383.00,0.93
4382.00,0.93
4381.00,0.93
4380.00,0.93
4379.00,0.94
4378.00,0.94
4377.00,0.94
4376.00,0.94
4375.00,0.94
4374.00,0.94
4373.00,0.95
4372.00,0.95
4371.00,0.95
4370.00,0.95
4369.00,0.95
4368.00,0.95
4367.00,0.95
4366.00,0.95
4365.00,0.95
4364.00,0.94
4363.00,0.94
4362.00,0.94
4361.00,0.94
4360.00,0.94
4359.00,0.94
4358.00,0.94
4357.00,0.94
4356.00,0.94
4355.00,0.94
4354.00,0.94
4353.00,0.93
4352.00,0.93
4351.00,0.93
4350.00,0.93
4349.00,0.93
4348.00,0.92
4347.00,0.92
4346.00,0.92
4345.00,0.92
4344.00,0.92
4343.00,0.92
4342.00,0.92
4341.00,0.92
4340.00,0.92
4339.00,0.92
4338.00,0.92
4337.00,0.92
4336.00,0.92
4335.00,0.92
4334.00,0.92
4333.00,0.92
4332.00,0.92
4331.00,0.92
4330.00,0.92
4329.00,0.92
4328.00,0.93
4327.00,0.93
4326.00,0.94
4325.00,0.94
4324.00,0.94
4323.00,0.95
4322.00,0.95
4321.00,0.96
4320.00,0.96
4319.00,0.97
4318.00,0.97
4317.00,0.98
4316.00,0.98
4315.00,0.99
4314.00,0.99
4313.00,0.99
4312.00,1.00
4311.00,1.00
4310.00,1.01
4309.00,1.01
4308.00,1.02
4307.00,1.02
4306.00,1.03
4305.00,1.03
4304.00,1.03
4303.00,1.04
4302.00,1.04
4301.00,1.04
4300.00,1.04
4299.00,1.04
4298.00,1.05
4297.00,1.05
4296.00,1.05
4295.00,1.05
4294.00,1.05
4293.00,1.05
4292.00,1.05
4291.00,1.05
4290.00,1.06
4289.00,1.06
4288.00,1.06
4287.00,1.06
4286.00,1.06
4285.00,1.06
4284.00,1.07
4283.00,1.07
4282.00,1.07
4281.00,1.07
4280.00,1.07
4279.00,1.07
4278.00,1.07
4277.00,1.07
4276.00,1.07
4275.00,1.07
4274.00,1.07
4273.00,1.07
4272.00,1.06
4271.00,1.06
4270.00,1.06
4269.00,1.06
4268.00,1.06
4267.00,1.06
4266.00,1.06
4265.00,1.06
4264.00,1.06
4263.00,1.06
4262.00,1.06
4261.00,1.06
4260.00,1.06
4259.00,1.06
4258.00,1.05
4257.00,1.05
4256.00,1.05
4255.00,1.05
4254.00,1.05
4253.00,1.05
4252.00,1.05
4251.00,1.05
4250.00,1.05
4249.00,1.05
4248.00,1.05
4247.00,1.06
4246.00,1.06
4245.00,1.06
4244.00,1.06
4243.00,1.06
4242.00,1.06
4241.00,1.06
4240.00,1.06
4239.00,1.06
4238.00,1.06
4237.00,1.06
4236.00,1.07
4235.00,1.07
4234.00,1.07
4233.00,1.07
4232.00,1.07
4231.00,1.07
4230.00,1.08
4229.00,1.08
4228.00,1.08
4227.00,1.08
4226.00,1.08
4225.00,1.08
4224.00,1.09
4223.00,1.09
4222.00,1.09
4221.00,1.09
4220.00,1.10
4219.00,1.10
4218.00,1.10
4217.00,1.10
4216.00,1.11
4215.00,1.11
4214.00,1.11
4213.00,1.11
4212.00,1.11
4211.00,1.11
4210.00,1.11
4209.00,1.12
4208.00,1.12
4207.00,1.12
4206.00,1.12
4205.00,1.12
4204.00,1.12
4203.00,1.12
4202.00,1.12
4201.00,1.12
4200.00,1.12
4199.00,1.12
4198.00,1.12
4197.00,1.12
4196.00,1.12
4195.00,1.12
4194.00,1.12
4193.00,1.11
4192.00,1.11
4191.00,1.11
4190.00,1.11
4189.00,1.11
4188.00,1.11
4187.00,1.11
4186.00,1.11
4185.00,1.11
4184.00,1.11
4183.00,1.10
4182.00,1.10
4181.00,1.10
4180.00,1.10
4179.00,1.10
4178.00,1.10
4177.00,1.10
4176.00,1.10
4175.00,1.09
4174.00,1.09
4173.00,1.09
4172.00,1.09
4171.00,1.09
4170.00,1.09
4169.00,1.09
4168.00,1.09
4167.00,1.09
4166.00,1.10
4165.00,1.10
4164.00,1.10
4163.00,1.10
4162.00,1.10
4161.00,1.10
4160.00,1.10
4159.00,1.10
4158.00,1.10
4157.00,1.10
4156.00,1.10
4155.00,1.10
4154.00,1.10
4153.00,1.10
4152.00,1.11
4151.00,1.11
4150.00,1.11
4149.00,1.11
4148.00,1.11
4147.00,1.11
4146.00,1.12
4145.00,1.12
4144.00,1.12
4143.00,1.11
4142.00,1.11
4141.00,1.11
4140.00,1.11
4139.00,1.11
4138.00,1.11
4137.00,1.10
4136.00,1.10
4135.00,1.10
4134.00,1.09
4133.00,1.09
4132.00,1.09
4131.00,1.09
4130.00,1.08
4129.00,1.08
4128.00,1.08
4127.00,1.08
4126.00,1.08
4125.00,1.07
4124.00,1.07
4123.00,1.07
4122.00,1.07
4121.00,1.06
4120.00,1.06
4119.00,1.06
4118.00,1.06
4117.00,1.06
4116.00,1.06
4115.00,1.06
4114.00,1.06
4113.00,1.06
4112.00,1.06
4111.00,1.06
4110.00,1.06
4109.00,1.06
4108.00,1.06
4107.00,1.07
4106.00,1.07
4105.00,1.07
4104.00,1.08
4103.00,1.08
4102.00,1.08
4101.00,1.09
4100.00,1.09
4099.00,1.09
4098.00,1.09
4097.00,1.10
4096.00,1.10
4095.00,1.10
4094.00,1.10
4093.00,1.10
4092.00,1.10
4091.00,1.10
4090.00,1.11
4089.00,1.11
4088.00,1.11
4087.00,1.12
4086.00,1.12
4085.00,1.12
4084.00,1.13
4083.00,1.13
4082.00,1.13
4081.00,1.14
4080.00,1.14
4079.00,1.14
4078.00,1.14
4077.00,1.14
4076.00,1.14
4075.00,1.14
4074.00,1.14
4073.00,1.14
4072.00,1.14
4071.00,1.15
4070.00,1.15
4069.00,1.15
4068.00,1.15
4067.00,1.15
4066.00,1.15
4065.00,1.15
4064.00,1.15
4063.00,1.15
4062.00,1.15
4061.00,1.15
4060.00,1.15
4059.00,1.15
4058.00,1.14
4057.00,1.14
4056.00,1.14
4055.00,1.14
4054.00,1.14
4053.00,1.14
4052.00,1.13
4051.00,1.13
4050.00,1.13
4049.00,1.13
4048.00,1.13
4047.00,1.13
4046.00,1.13
4045.00,1.13
4044.00,1.13
4043.00,1.13
4042.00,1.13
4041.00,1.13
4040.00,1.13
4039.00,1.13
4038.00,1.13
4037.00,1.13
4036.00,1.13
4035.00,1.14
4034.00,1.14
4033.00,1.14
4032.00,1.14
4031.00,1.14
4030.00,1.14
4029.00,1.15
4028.00,1.15
4027.00,1.15
4026.00,1.15
4025.00,1.16
4024.00,1.16
4023.00,1.16
4022.00,1.17
4021.00,1.17
4020.00,1.17
4019.00,1.18
4018.00,1.18
4017.00,1.18
4016.00,1.18
4015.00,1.19
4014.00,1.19
4013.00,1.19
4012.00,1.20
4011.00,1.20
4010.00,1.21
4009.00,1.21
4008.00,1.22
4007.00,1.22
4006.00,1.22
4005.00,1.23
4004.00,1.23
4003.00,1.23
4002.00,1.24
4001.00,1.24
4000.00,1.25
