创建为新数据集,样品 1051 用户 Administrator 日期 星期二, 七月 30 2019
cm-1,%T
10000.00,2.89
9999.00,2.88
9998.00,2.86
9997.00,2.85
9996.00,2.84
9995.00,2.83
9994.00,2.82
9993.00,2.82
9992.00,2.81
9991.00,2.80
9990.00,2.79
9989.00,2.79
9988.00,2.78
9987.00,2.77
9986.00,2.76
9985.00,2.75
9984.00,2.74
9983.00,2.72
9982.00,2.71
9981.00,2.69
9980.00,2.68
9979.00,2.67
9978.00,2.65
9977.00,2.64
9976.00,2.63
9975.00,2.62
9974.00,2.61
9973.00,2.60
9972.00,2.58
9971.00,2.57
9970.00,2.56
9969.00,2.55
9968.00,2.54
9967.00,2.52
9966.00,2.51
9965.00,2.50
9964.00,2.49
9963.00,2.48
9962.00,2.47
9961.00,2.46
9960.00,2.46
9959.00,2.45
9958.00,2.44
9957.00,2.44
9956.00,2.44
9955.00,2.44
9954.00,2.43
9953.00,2.43
9952.00,2.42
9951.00,2.42
9950.00,2.41
9949.00,2.40
9948.00,2.39
9947.00,2.37
9946.00,2.36
9945.00,2.34
9944.00,2.32
9943.00,2.30
9942.00,2.28
9941.00,2.26
9940.00,2.24
9939.00,2.22
9938.00,2.19
9937.00,2.16
9936.00,2.14
9935.00,2.11
9934.00,2.08
9933.00,2.04
9932.00,2.01
9931.00,1.97
9930.00,1.94
9929.00,1.90
9928.00,1.86
9927.00,1.83
9926.00,1.80
9925.00,1.76
9924.00,1.73
9923.00,1.70
9922.00,1.68
9921.00,1.65
9920.00,1.63
9919.00,1.61
9918.00,1.60
9917.00,1.58
9916.00,1.57
9915.00,1.56
9914.00,1.56
9913.00,1.55
9912.00,1.55
9911.00,1.55
9910.00,1.55
9909.00,1.56
9908.00,1.57
9907.00,1.58
9906.00,1.59
9905.00,1.61
9904.00,1.63
9903.00,1.65
9902.00,1.67
9901.00,1.69
9900.00,1.72
9899.00,1.74
9898.00,1.76
9897.00,1.79
9896.00,1.81
9895.00,1.84
9894.00,1.86
9893.00,1.88
9892.00,1.91
9891.00,1.94
9890.00,1.96
9889.00,1.98
9888.00,2.01
9887.00,2.03
9886.00,2.05
9885.00,2.06
9884.00,2.07
9883.00,2.08
9882.00,2.07
9881.00,2.07
9880.00,2.06
9879.00,2.05
9878.00,2.04
9877.00,2.03
9876.00,2.01
9875.00,2.00
9874.00,1.98
9873.00,1.97
9872.00,1.96
9871.00,1.95
9870.00,1.94
9869.00,1.93
9868.00,1.92
9867.00,1.90
9866.00,1.89
9865.00,1.87
9864.00,1.85
9863.00,1.84
9862.00,1.82
9861.00,1.80
9860.00,1.78
9859.00,1.77
9858.00,1.76
9857.00,1.76
9856.00,1.76
9855.00,1.77
9854.00,1.78
9853.00,1.80
9852.00,1.82
9851.00,1.83
9850.00,1.85
9849.00,1.87
9848.00,1.89
9847.00,1.90
9846.00,1.91
9845.00,1.92
9844.00,1.92
9843.00,1.93
9842.00,1.93
9841.00,1.94
9840.00,1.94
9839.00,1.94
9838.00,1.95
9837.00,1.95
9836.00,1.96
9835.00,1.96
9834.00,1.97
9833.00,1.97
9832.00,1.97
9831.00,1.97
9830.00,1.97
9829.00,1.96
9828.00,1.95
9827.00,1.94
9826.00,1.93
9825.00,1.92
9824.00,1.91
9823.00,1.89
9822.00,1.88
9821.00,1.88
9820.00,1.87
9819.00,1.87
9818.00,1.86
9817.00,1.86
9816.00,1.87
9815.00,1.87
9814.00,1.88
9813.00,1.88
9812.00,1.89
9811.00,1.90
9810.00,1.91
9809.00,1.92
9808.00,1.93
9807.00,1.94
9806.00,1.94
9805.00,1.95
9804.00,1.96
9803.00,1.96
9802.00,1.97
9801.00,1.97
9800.00,1.98
9799.00,1.99
9798.00,1.99
9797.00,2.00
9796.00,2.01
9795.00,2.02
9794.00,2.03
9793.00,2.04
9792.00,2.05
9791.00,2.05
9790.00,2.06
9789.00,2.06
9788.00,2.06
9787.00,2.06
9786.00,2.06
9785.00,2.06
9784.00,2.06
9783.00,2.06
9782.00,2.06
9781.00,2.06
9780.00,2.07
9779.00,2.07
9778.00,2.08
9777.00,2.09
9776.00,2.10
9775.00,2.11
9774.00,2.12
9773.00,2.13
9772.00,2.14
9771.00,2.15
9770.00,2.16
9769.00,2.17
9768.00,2.17
9767.00,2.18
9766.00,2.18
9765.00,2.18
9764.00,2.18
9763.00,2.18
9762.00,2.19
9761.00,2.19
9760.00,2.19
9759.00,2.20
9758.00,2.20
9757.00,2.21
9756.00,2.21
9755.00,2.21
9754.00,2.21
9753.00,2.21
9752.00,2.21
9751.00,2.20
9750.00,2.20
9749.00,2.19
9748.00,2.18
9747.00,2.16
9746.00,2.15
9745.00,2.14
9744.00,2.12
9743.00,2.11
9742.00,2.09
9741.00,2.08
9740.00,2.07
9739.00,2.05
9738.00,2.04
9737.00,2.02
9736.00,2.01
9735.00,1.99
9734.00,1.98
9733.00,1.96
9732.00,1.95
9731.00,1.93
9730.00,1.91
9729.00,1.89
9728.00,1.87
9727.00,1.86
9726.00,1.84
9725.00,1.82
9724.00,1.80
9723.00,1.79
9722.00,1.77
9721.00,1.75
9720.00,1.74
9719.00,1.72
9718.00,1.71
9717.00,1.70
9716.00,1.69
9715.00,1.68
9714.00,1.67
9713.00,1.66
9712.00,1.66
9711.00,1.65
9710.00,1.64
9709.00,1.64
9708.00,1.63
9707.00,1.63
9706.00,1.62
9705.00,1.62
9704.00,1.61
9703.00,1.62
9702.00,1.62
9701.00,1.62
9700.00,1.63
9699.00,1.64
9698.00,1.65
9697.00,1.66
9696.00,1.68
9695.00,1.69
9694.00,1.71
9693.00,1.73
9692.00,1.75
9691.00,1.77
9690.00,1.79
9689.00,1.80
9688.00,1.82
9687.00,1.84
9686.00,1.85
9685.00,1.87
9684.00,1.89
9683.00,1.91
9682.00,1.93
9681.00,1.96
9680.00,1.98
9679.00,2.01
9678.00,2.03
9677.00,2.06
9676.00,2.08
9675.00,2.10
9674.00,2.12
9673.00,2.14
9672.00,2.16
9671.00,2.17
9670.00,2.19
9669.00,2.20
9668.00,2.21
9667.00,2.22
9666.00,2.24
9665.00,2.25
9664.00,2.26
9663.00,2.27
9662.00,2.28
9661.00,2.28
9660.00,2.29
9659.00,2.29
9658.00,2.29
9657.00,2.29
9656.00,2.28
9655.00,2.27
9654.00,2.26
9653.00,2.25
9652.00,2.23
9651.00,2.22
9650.00,2.20
9649.00,2.18
9648.00,2.16
9647.00,2.14
9646.00,2.13
9645.00,2.11
9644.00,2.09
9643.00,2.08
9642.00,2.06
9641.00,2.05
9640.00,2.04
9639.00,2.03
9638.00,2.02
9637.00,2.01
9636.00,2.01
9635.00,2.01
9634.00,2.01
9633.00,2.02
9632.00,2.03
9631.00,2.04
9630.00,2.05
9629.00,2.07
9628.00,2.09
9627.00,2.11
9626.00,2.13
9625.00,2.16
9624.00,2.18
9623.00,2.21
9622.00,2.23
9621.00,2.26
9620.00,2.28
9619.00,2.30
9618.00,2.31
9617.00,2.33
9616.00,2.34
9615.00,2.34
9614.00,2.34
9613.00,2.34
9612.00,2.33
9611.00,2.32
9610.00,2.31
9609.00,2.30
9608.00,2.28
9607.00,2.27
9606.00,2.25
9605.00,2.23
9604.00,2.21
9603.00,2.18
9602.00,2.15
9601.00,2.12
9600.00,2.09
9599.00,2.06
9598.00,2.03
9597.00,2.00
9596.00,1.96
9595.00,1.93
9594.00,1.90
9593.00,1.88
9592.00,1.85
9591.00,1.83
9590.00,1.81
9589.00,1.80
9588.00,1.78
9587.00,1.78
9586.00,1.78
9585.00,1.78
9584.00,1.78
9583.00,1.79
9582.00,1.80
9581.00,1.81
9580.00,1.83
9579.00,1.84
9578.00,1.86
9577.00,1.87
9576.00,1.89
9575.00,1.90
9574.00,1.92
9573.00,1.94
9572.00,1.96
9571.00,1.98
9570.00,2.01
9569.00,2.03
9568.00,2.05
9567.00,2.08
9566.00,2.10
9565.00,2.12
9564.00,2.15
9563.00,2.17
9562.00,2.19
9561.00,2.21
9560.00,2.22
9559.00,2.23
9558.00,2.24
9557.00,2.24
9556.00,2.24
9555.00,2.24
9554.00,2.23
9553.00,2.22
9552.00,2.20
9551.00,2.19
9550.00,2.18
9549.00,2.17
9548.00,2.15
9547.00,2.14
9546.00,2.13
9545.00,2.12
9544.00,2.11
9543.00,2.09
9542.00,2.08
9541.00,2.06
9540.00,2.04
9539.00,2.02
9538.00,2.00
9537.00,1.98
9536.00,1.96
9535.00,1.95
9534.00,1.93
9533.00,1.92
9532.00,1.91
9531.00,1.91
9530.00,1.91
9529.00,1.91
9528.00,1.91
9527.00,1.92
9526.00,1.93
9525.00,1.94
9524.00,1.95
9523.00,1.96
9522.00,1.97
9521.00,1.99
9520.00,2.00
9519.00,2.01
9518.00,2.02
9517.00,2.03
9516.00,2.04
9515.00,2.05
9514.00,2.06
9513.00,2.07
9512.00,2.08
9511.00,2.09
9510.00,2.10
9509.00,2.10
9508.00,2.11
9507.00,2.10
9506.00,2.10
9505.00,2.09
9504.00,2.08
9503.00,2.07
9502.00,2.06
9501.00,2.05
9500.00,2.04
9499.00,2.03
9498.00,2.02
9497.00,2.01
9496.00,2.00
9495.00,1.99
9494.00,1.98
9493.00,1.97
9492.00,1.96
9491.00,1.95
9490.00,1.93
9489.00,1.92
9488.00,1.91
9487.00,1.90
9486.00,1.89
9485.00,1.89
9484.00,1.88
9483.00,1.88
9482.00,1.89
9481.00,1.89
9480.00,1.90
9479.00,1.91
9478.00,1.92
9477.00,1.93
9476.00,1.94
9475.00,1.95
9474.00,1.96
9473.00,1.97
9472.00,1.98
9471.00,1.98
9470.00,1.98
9469.00,1.98
9468.00,1.99
9467.00,1.99
9466.00,1.99
9465.00,1.99
9464.00,1.99
9463.00,1.99
9462.00,1.99
9461.00,1.99
9460.00,1.99
9459.00,1.98
9458.00,1.98
9457.00,1.97
9456.00,1.96
9455.00,1.95
9454.00,1.94
9453.00,1.93
9452.00,1.91
9451.00,1.90
9450.00,1.89
9449.00,1.88
9448.00,1.87
9447.00,1.86
9446.00,1.85
9445.00,1.85
9444.00,1.84
9443.00,1.83
9442.00,1.83
9441.00,1.82
9440.00,1.82
9439.00,1.81
9438.00,1.81
9437.00,1.80
9436.00,1.80
9435.00,1.80
9434.00,1.80
9433.00,1.80
9432.00,1.79
9431.00,1.79
9430.00,1.79
9429.00,1.79
9428.00,1.79
9427.00,1.78
9426.00,1.78
9425.00,1.78
9424.00,1.77
9423.00,1.77
9422.00,1.77
9421.00,1.77
9420.00,1.77
9419.00,1.77
9418.00,1.78
9417.00,1.78
9416.00,1.79
9415.00,1.79
9414.00,1.80
9413.00,1.81
9412.00,1.82
9411.00,1.82
9410.00,1.83
9409.00,1.83
9408.00,1.84
9407.00,1.85
9406.00,1.85
9405.00,1.86
9404.00,1.87
9403.00,1.87
9402.00,1.88
9401.00,1.88
9400.00,1.89
9399.00,1.89
9398.00,1.89
9397.00,1.90
9396.00,1.89
9395.00,1.89
9394.00,1.89
9393.00,1.88
9392.00,1.87
9391.00,1.85
9390.00,1.84
9389.00,1.82
9388.00,1.80
9387.00,1.79
9386.00,1.77
9385.00,1.75
9384.00,1.74
9383.00,1.72
9382.00,1.71
9381.00,1.70
9380.00,1.68
9379.00,1.67
9378.00,1.66
9377.00,1.65
9376.00,1.64
9375.00,1.63
9374.00,1.62
9373.00,1.61
9372.00,1.60
9371.00,1.59
9370.00,1.58
9369.00,1.57
9368.00,1.56
9367.00,1.55
9366.00,1.55
9365.00,1.54
9364.00,1.54
9363.00,1.54
9362.00,1.54
9361.00,1.54
9360.00,1.54
9359.00,1.54
9358.00,1.54
9357.00,1.54
9356.00,1.54
9355.00,1.54
9354.00,1.54
9353.00,1.54
9352.00,1.55
9351.00,1.55
9350.00,1.55
9349.00,1.56
9348.00,1.56
9347.00,1.57
9346.00,1.57
9345.00,1.58
9344.00,1.59
9343.00,1.60
9342.00,1.61
9341.00,1.62
9340.00,1.63
9339.00,1.63
9338.00,1.64
9337.00,1.64
9336.00,1.64
9335.00,1.64
9334.00,1.64
9333.00,1.64
9332.00,1.63
9331.00,1.63
9330.00,1.63
9329.00,1.62
9328.00,1.62
9327.00,1.62
9326.00,1.62
9325.00,1.62
9324.00,1.62
9323.00,1.62
9322.00,1.62
9321.00,1.63
9320.00,1.63
9319.00,1.64
9318.00,1.65
9317.00,1.66
9316.00,1.67
9315.00,1.69
9314.00,1.71
9313.00,1.73
9312.00,1.76
9311.00,1.78
9310.00,1.81
9309.00,1.85
9308.00,1.88
9307.00,1.92
9306.00,1.95
9305.00,1.99
9304.00,2.02
9303.00,2.05
9302.00,2.08
9301.00,2.11
9300.00,2.13
9299.00,2.15
9298.00,2.17
9297.00,2.19
9296.00,2.20
9295.00,2.21
9294.00,2.22
9293.00,2.23
9292.00,2.23
9291.00,2.22
9290.00,2.22
9289.00,2.21
9288.00,2.20
9287.00,2.18
9286.00,2.17
9285.00,2.15
9284.00,2.13
9283.00,2.11
9282.00,2.09
9281.00,2.06
9280.00,2.04
9279.00,2.02
9278.00,1.99
9277.00,1.97
9276.00,1.95
9275.00,1.94
9274.00,1.92
9273.00,1.90
9272.00,1.89
9271.00,1.88
9270.00,1.86
9269.00,1.85
9268.00,1.84
9267.00,1.84
9266.00,1.83
9265.00,1.82
9264.00,1.82
9263.00,1.82
9262.00,1.82
9261.00,1.82
9260.00,1.83
9259.00,1.83
9258.00,1.83
9257.00,1.84
9256.00,1.84
9255.00,1.85
9254.00,1.85
9253.00,1.86
9252.00,1.88
9251.00,1.89
9250.00,1.90
9249.00,1.91
9248.00,1.93
9247.00,1.94
9246.00,1.95
9245.00,1.96
9244.00,1.97
9243.00,1.97
9242.00,1.98
9241.00,1.98
9240.00,1.99
9239.00,1.99
9238.00,1.99
9237.00,1.99
9236.00,1.98
9235.00,1.98
9234.00,1.97
9233.00,1.97
9232.00,1.96
9231.00,1.95
9230.00,1.94
9229.00,1.93
9228.00,1.92
9227.00,1.91
9226.00,1.89
9225.00,1.87
9224.00,1.86
9223.00,1.84
9222.00,1.82
9221.00,1.80
9220.00,1.78
9219.00,1.76
9218.00,1.75
9217.00,1.74
9216.00,1.73
9215.00,1.73
9214.00,1.72
9213.00,1.72
9212.00,1.72
9211.00,1.73
9210.00,1.73
9209.00,1.74
9208.00,1.75
9207.00,1.76
9206.00,1.77
9205.00,1.78
9204.00,1.80
9203.00,1.81
9202.00,1.82
9201.00,1.84
9200.00,1.85
9199.00,1.86
9198.00,1.88
9197.00,1.89
9196.00,1.91
9195.00,1.92
9194.00,1.94
9193.00,1.95
9192.00,1.97
9191.00,1.98
9190.00,1.99
9189.00,2.00
9188.00,2.01
9187.00,2.02
9186.00,2.03
9185.00,2.04
9184.00,2.05
9183.00,2.06
9182.00,2.06
9181.00,2.07
9180.00,2.07
9179.00,2.07
9178.00,2.07
9177.00,2.07
9176.00,2.07
9175.00,2.07
9174.00,2.08
9173.00,2.08
9172.00,2.08
9171.00,2.08
9170.00,2.08
9169.00,2.09
9168.00,2.09
9167.00,2.09
9166.00,2.09
9165.00,2.09
9164.00,2.08
9163.00,2.08
9162.00,2.07
9161.00,2.06
9160.00,2.05
9159.00,2.04
9158.00,2.02
9157.00,2.01
9156.00,1.99
9155.00,1.97
9154.00,1.95
9153.00,1.94
9152.00,1.92
9151.00,1.90
9150.00,1.89
9149.00,1.87
9148.00,1.86
9147.00,1.85
9146.00,1.84
9145.00,1.82
9144.00,1.81
9143.00,1.80
9142.00,1.79
9141.00,1.79
9140.00,1.78
9139.00,1.77
9138.00,1.77
9137.00,1.76
9136.00,1.76
9135.00,1.76
9134.00,1.76
9133.00,1.76
9132.00,1.77
9131.00,1.77
9130.00,1.78
9129.00,1.78
9128.00,1.79
9127.00,1.80
9126.00,1.81
9125.00,1.82
9124.00,1.83
9123.00,1.84
9122.00,1.85
9121.00,1.85
9120.00,1.86
9119.00,1.86
9118.00,1.87
9117.00,1.87
9116.00,1.87
9115.00,1.88
9114.00,1.88
9113.00,1.88
9112.00,1.88
9111.00,1.88
9110.00,1.88
9109.00,1.88
9108.00,1.88
9107.00,1.88
9106.00,1.88
9105.00,1.88
9104.00,1.88
9103.00,1.88
9102.00,1.89
9101.00,1.90
9100.00,1.90
9099.00,1.91
9098.00,1.92
9097.00,1.93
9096.00,1.95
9095.00,1.96
9094.00,1.98
9093.00,2.00
9092.00,2.02
9091.00,2.04
9090.00,2.06
9089.00,2.08
9088.00,2.10
9087.00,2.12
9086.00,2.14
9085.00,2.16
9084.00,2.19
9083.00,2.21
9082.00,2.24
9081.00,2.27
9080.00,2.29
9079.00,2.32
9078.00,2.34
9077.00,2.37
9076.00,2.39
9075.00,2.41
9074.00,2.43
9073.00,2.45
9072.00,2.46
9071.00,2.48
9070.00,2.48
9069.00,2.49
9068.00,2.49
9067.00,2.49
9066.00,2.49
9065.00,2.49
9064.00,2.49
9063.00,2.48
9062.00,2.48
9061.00,2.47
9060.00,2.47
9059.00,2.46
9058.00,2.45
9057.00,2.44
9056.00,2.43
9055.00,2.41
9054.00,2.39
9053.00,2.37
9052.00,2.35
9051.00,2.32
9050.00,2.30
9049.00,2.27
9048.00,2.24
9047.00,2.21
9046.00,2.18
9045.00,2.16
9044.00,2.13
9043.00,2.11
9042.00,2.08
9041.00,2.06
9040.00,2.05
9039.00,2.03
9038.00,2.02
9037.00,2.00
9036.00,1.98
9035.00,1.97
9034.00,1.95
9033.00,1.94
9032.00,1.93
9031.00,1.91
9030.00,1.90
9029.00,1.89
9028.00,1.89
9027.00,1.88
9026.00,1.88
9025.00,1.88
9024.00,1.88
9023.00,1.89
9022.00,1.90
9021.00,1.90
9020.00,1.91
9019.00,1.92
9018.00,1.92
9017.00,1.93
9016.00,1.94
9015.00,1.94
9014.00,1.94
9013.00,1.94
9012.00,1.94
9011.00,1.94
9010.00,1.94
9009.00,1.95
9008.00,1.95
9007.00,1.94
9006.00,1.94
9005.00,1.94
9004.00,1.94
9003.00,1.94
9002.00,1.93
9001.00,1.93
9000.00,1.93
8999.00,1.92
8998.00,1.92
8997.00,1.91
8996.00,1.91
8995.00,1.91
8994.00,1.90
8993.00,1.90
8992.00,1.90
8991.00,1.90
8990.00,1.90
8989.00,1.91
8988.00,1.91
8987.00,1.92
8986.00,1.93
8985.00,1.94
8984.00,1.95
8983.00,1.96
8982.00,1.97
8981.00,1.99
8980.00,2.00
8979.00,2.02
8978.00,2.04
8977.00,2.06
8976.00,2.08
8975.00,2.10
8974.00,2.12
8973.00,2.14
8972.00,2.16
8971.00,2.18
8970.00,2.20
8969.00,2.22
8968.00,2.23
8967.00,2.25
8966.00,2.26
8965.00,2.28
8964.00,2.29
8963.00,2.30
8962.00,2.32
8961.00,2.33
8960.00,2.33
8959.00,2.34
8958.00,2.35
8957.00,2.35
8956.00,2.35
8955.00,2.35
8954.00,2.35
8953.00,2.34
8952.00,2.33
8951.00,2.32
8950.00,2.31
8949.00,2.29
8948.00,2.28
8947.00,2.26
8946.00,2.24
8945.00,2.23
8944.00,2.21
8943.00,2.19
8942.00,2.18
8941.00,2.16
8940.00,2.15
8939.00,2.13
8938.00,2.11
8937.00,2.10
8936.00,2.08
8935.00,2.07
8934.00,2.05
8933.00,2.04
8932.00,2.03
8931.00,2.01
8930.00,2.00
8929.00,2.00
8928.00,1.99
8927.00,1.99
8926.00,1.99
8925.00,1.99
8924.00,1.99
8923.00,2.00
8922.00,2.00
8921.00,2.01
8920.00,2.01
8919.00,2.01
8918.00,2.01
8917.00,2.01
8916.00,2.01
8915.00,2.01
8914.00,2.01
8913.00,2.00
8912.00,2.00
8911.00,1.99
8910.00,1.99
8909.00,1.99
8908.00,1.98
8907.00,1.98
8906.00,1.97
8905.00,1.97
8904.00,1.96
8903.00,1.95
8902.00,1.94
8901.00,1.93
8900.00,1.91
8899.00,1.90
8898.00,1.88
8897.00,1.87
8896.00,1.86
8895.00,1.84
8894.00,1.83
8893.00,1.83
8892.00,1.82
8891.00,1.81
8890.00,1.81
8889.00,1.80
8888.00,1.80
8887.00,1.80
8886.00,1.80
8885.00,1.81
8884.00,1.81
8883.00,1.81
8882.00,1.81
8881.00,1.82
8880.00,1.82
8879.00,1.83
8878.00,1.83
8877.00,1.84
8876.00,1.85
8875.00,1.86
8874.00,1.86
8873.00,1.87
8872.00,1.87
8871.00,1.87
8870.00,1.87
8869.00,1.87
8868.00,1.86
8867.00,1.86
8866.00,1.85
8865.00,1.85
8864.00,1.84
8863.00,1.83
8862.00,1.83
8861.00,1.82
8860.00,1.81
8859.00,1.81
8858.00,1.80
8857.00,1.79
8856.00,1.79
8855.00,1.78
8854.00,1.77
8853.00,1.77
8852.00,1.76
8851.00,1.75
8850.00,1.74
8849.00,1.73
8848.00,1.73
8847.00,1.72
8846.00,1.72
8845.00,1.72
8844.00,1.72
8843.00,1.72
8842.00,1.73
8841.00,1.74
8840.00,1.75
8839.00,1.77
8838.00,1.78
8837.00,1.80
8836.00,1.82
8835.00,1.83
8834.00,1.84
8833.00,1.86
8832.00,1.86
8831.00,1.87
8830.00,1.88
8829.00,1.88
8828.00,1.88
8827.00,1.88
8826.00,1.87
8825.00,1.87
8824.00,1.87
8823.00,1.87
8822.00,1.87
8821.00,1.87
8820.00,1.87
8819.00,1.86
8818.00,1.86
8817.00,1.86
8816.00,1.86
8815.00,1.85
8814.00,1.85
8813.00,1.84
8812.00,1.83
8811.00,1.81
8810.00,1.80
8809.00,1.79
8808.00,1.77
8807.00,1.76
8806.00,1.75
8805.00,1.74
8804.00,1.73
8803.00,1.73
8802.00,1.73
8801.00,1.73
8800.00,1.73
8799.00,1.73
8798.00,1.73
8797.00,1.73
8796.00,1.74
8795.00,1.74
8794.00,1.74
8793.00,1.75
8792.00,1.75
8791.00,1.75
8790.00,1.76
8789.00,1.76
8788.00,1.77
8787.00,1.77
8786.00,1.78
8785.00,1.79
8784.00,1.80
8783.00,1.81
8782.00,1.83
8781.00,1.84
8780.00,1.86
8779.00,1.88
8778.00,1.90
8777.00,1.92
8776.00,1.94
8775.00,1.96
8774.00,1.97
8773.00,1.99
8772.00,2.01
8771.00,2.03
8770.00,2.05
8769.00,2.06
8768.00,2.08
8767.00,2.10
8766.00,2.11
8765.00,2.13
8764.00,2.14
8763.00,2.16
8762.00,2.17
8761.00,2.19
8760.00,2.20
8759.00,2.21
8758.00,2.22
8757.00,2.23
8756.00,2.23
8755.00,2.24
8754.00,2.24
8753.00,2.24
8752.00,2.24
8751.00,2.24
8750.00,2.24
8749.00,2.23
8748.00,2.23
8747.00,2.23
8746.00,2.23
8745.00,2.22
8744.00,2.22
8743.00,2.22
8742.00,2.21
8741.00,2.21
8740.00,2.21
8739.00,2.20
8738.00,2.20
8737.00,2.20
8736.00,2.19
8735.00,2.19
8734.00,2.19
8733.00,2.19
8732.00,2.19
8731.00,2.19
8730.00,2.19
8729.00,2.19
8728.00,2.20
8727.00,2.20
8726.00,2.21
8725.00,2.22
8724.00,2.22
8723.00,2.23
8722.00,2.24
8721.00,2.25
8720.00,2.27
8719.00,2.28
8718.00,2.29
8717.00,2.30
8716.00,2.31
8715.00,2.33
8714.00,2.34
8713.00,2.35
8712.00,2.35
8711.00,2.36
8710.00,2.37
8709.00,2.37
8708.00,2.37
8707.00,2.37
8706.00,2.37
8705.00,2.37
8704.00,2.37
8703.00,2.36
8702.00,2.36
8701.00,2.35
8700.00,2.34
8699.00,2.33
8698.00,2.32
8697.00,2.31
8696.00,2.29
8695.00,2.27
8694.00,2.25
8693.00,2.23
8692.00,2.21
8691.00,2.19
8690.00,2.16
8689.00,2.14
8688.00,2.11
8687.00,2.09
8686.00,2.07
8685.00,2.05
8684.00,2.04
8683.00,2.02
8682.00,2.01
8681.00,2.00
8680.00,1.99
8679.00,1.99
8678.00,1.98
8677.00,1.98
8676.00,1.98
8675.00,1.98
8674.00,1.97
8673.00,1.97
8672.00,1.97
8671.00,1.97
8670.00,1.97
8669.00,1.97
8668.00,1.97
8667.00,1.98
8666.00,1.98
8665.00,1.98
8664.00,1.99
8663.00,1.99
8662.00,2.00
8661.00,2.01
8660.00,2.02
8659.00,2.02
8658.00,2.03
8657.00,2.03
8656.00,2.03
8655.00,2.03
8654.00,2.03
8653.00,2.03
8652.00,2.03
8651.00,2.02
8650.00,2.01
8649.00,2.01
8648.00,2.00
8647.00,1.99
8646.00,1.99
8645.00,1.98
8644.00,1.98
8643.00,1.98
8642.00,1.98
8641.00,1.98
8640.00,1.99
8639.00,1.99
8638.00,1.99
8637.00,1.99
8636.00,2.00
8635.00,2.00
8634.00,2.00
8633.00,1.99
8632.00,1.99
8631.00,1.99
8630.00,1.99
8629.00,1.99
8628.00,1.99
8627.00,1.99
8626.00,1.99
8625.00,1.99
8624.00,1.99
8623.00,1.99
8622.00,1.99
8621.00,1.98
8620.00,1.98
8619.00,1.97
8618.00,1.96
8617.00,1.95
8616.00,1.94
8615.00,1.92
8614.00,1.91
8613.00,1.89
8612.00,1.88
8611.00,1.86
8610.00,1.85
8609.00,1.83
8608.00,1.82
8607.00,1.81
8606.00,1.80
8605.00,1.79
8604.00,1.78
8603.00,1.78
8602.00,1.77
8601.00,1.77
8600.00,1.77
8599.00,1.77
8598.00,1.78
8597.00,1.78
8596.00,1.79
8595.00,1.81
8594.00,1.82
8593.00,1.84
8592.00,1.86
8591.00,1.88
8590.00,1.90
8589.00,1.92
8588.00,1.95
8587.00,1.97
8586.00,2.00
8585.00,2.02
8584.00,2.04
8583.00,2.06
8582.00,2.08
8581.00,2.10
8580.00,2.12
8579.00,2.13
8578.00,2.15
8577.00,2.16
8576.00,2.17
8575.00,2.17
8574.00,2.18
8573.00,2.18
8572.00,2.18
8571.00,2.17
8570.00,2.17
8569.00,2.16
8568.00,2.15
8567.00,2.14
8566.00,2.12
8565.00,2.11
8564.00,2.09
8563.00,2.07
8562.00,2.05
8561.00,2.03
8560.00,2.01
8559.00,2.00
8558.00,1.98
8557.00,1.96
8556.00,1.94
8555.00,1.92
8554.00,1.91
8553.00,1.89
8552.00,1.87
8551.00,1.86
8550.00,1.85
8549.00,1.84
8548.00,1.83
8547.00,1.82
8546.00,1.82
8545.00,1.82
8544.00,1.82
8543.00,1.82
8542.00,1.83
8541.00,1.83
8540.00,1.84
8539.00,1.85
8538.00,1.86
8537.00,1.87
8536.00,1.88
8535.00,1.89
8534.00,1.90
8533.00,1.91
8532.00,1.92
8531.00,1.94
8530.00,1.95
8529.00,1.97
8528.00,1.99
8527.00,2.01
8526.00,2.03
8525.00,2.05
8524.00,2.07
8523.00,2.09
8522.00,2.11
8521.00,2.13
8520.00,2.15
8519.00,2.16
8518.00,2.18
8517.00,2.19
8516.00,2.20
8515.00,2.21
8514.00,2.22
8513.00,2.23
8512.00,2.24
8511.00,2.25
8510.00,2.26
8509.00,2.27
8508.00,2.28
8507.00,2.29
8506.00,2.29
8505.00,2.30
8504.00,2.31
8503.00,2.31
8502.00,2.31
8501.00,2.31
8500.00,2.31
8499.00,2.31
8498.00,2.30
8497.00,2.29
8496.00,2.28
8495.00,2.27
8494.00,2.26
8493.00,2.25
8492.00,2.24
8491.00,2.23
8490.00,2.22
8489.00,2.21
8488.00,2.20
8487.00,2.19
8486.00,2.19
8485.00,2.18
8484.00,2.17
8483.00,2.16
8482.00,2.15
8481.00,2.14
8480.00,2.13
8479.00,2.11
8478.00,2.10
8477.00,2.09
8476.00,2.08
8475.00,2.06
8474.00,2.05
8473.00,2.04
8472.00,2.03
8471.00,2.02
8470.00,2.02
8469.00,2.01
8468.00,2.01
8467.00,2.00
8466.00,2.00
8465.00,2.00
8464.00,1.99
8463.00,1.99
8462.00,1.98
8461.00,1.98
8460.00,1.97
8459.00,1.97
8458.00,1.96
8457.00,1.96
8456.00,1.96
8455.00,1.96
8454.00,1.95
8453.00,1.96
8452.00,1.96
8451.00,1.96
8450.00,1.97
8449.00,1.98
8448.00,1.99
8447.00,2.00
8446.00,2.01
8445.00,2.02
8444.00,2.04
8443.00,2.05
8442.00,2.06
8441.00,2.07
8440.00,2.08
8439.00,2.10
8438.00,2.11
8437.00,2.12
8436.00,2.14
8435.00,2.15
8434.00,2.17
8433.00,2.19
8432.00,2.20
8431.00,2.22
8430.00,2.23
8429.00,2.25
8428.00,2.26
8427.00,2.28
8426.00,2.29
8425.00,2.30
8424.00,2.31
8423.00,2.32
8422.00,2.34
8421.00,2.35
8420.00,2.36
8419.00,2.37
8418.00,2.38
8417.00,2.39
8416.00,2.40
8415.00,2.40
8414.00,2.41
8413.00,2.41
8412.00,2.41
8411.00,2.41
8410.00,2.41
8409.00,2.41
8408.00,2.40
8407.00,2.40
8406.00,2.40
8405.00,2.39
8404.00,2.39
8403.00,2.38
8402.00,2.37
8401.00,2.37
8400.00,2.36
8399.00,2.35
8398.00,2.33
8397.00,2.32
8396.00,2.30
8395.00,2.28
8394.00,2.26
8393.00,2.23
8392.00,2.21
8391.00,2.19
8390.00,2.16
8389.00,2.14
8388.00,2.12
8387.00,2.10
8386.00,2.08
8385.00,2.07
8384.00,2.05
8383.00,2.03
8382.00,2.01
8381.00,1.99
8380.00,1.97
8379.00,1.95
8378.00,1.93
8377.00,1.91
8376.00,1.89
8375.00,1.87
8374.00,1.85
8373.00,1.83
8372.00,1.81
8371.00,1.80
8370.00,1.79
8369.00,1.78
8368.00,1.77
8367.00,1.77
8366.00,1.77
8365.00,1.77
8364.00,1.77
8363.00,1.77
8362.00,1.77
8361.00,1.77
8360.00,1.77
8359.00,1.77
8358.00,1.77
8357.00,1.78
8356.00,1.78
8355.00,1.79
8354.00,1.79
8353.00,1.80
8352.00,1.81
8351.00,1.83
8350.00,1.84
8349.00,1.86
8348.00,1.87
8347.00,1.89
8346.00,1.91
8345.00,1.92
8344.00,1.94
8343.00,1.96
8342.00,1.97
8341.00,1.99
8340.00,2.00
8339.00,2.01
8338.00,2.02
8337.00,2.04
8336.00,2.05
8335.00,2.06
8334.00,2.07
8333.00,2.09
8332.00,2.10
8331.00,2.12
8330.00,2.13
8329.00,2.15
8328.00,2.16
8327.00,2.18
8326.00,2.19
8325.00,2.21
8324.00,2.22
8323.00,2.24
8322.00,2.25
8321.00,2.27
8320.00,2.28
8319.00,2.29
8318.00,2.31
8317.00,2.32
8316.00,2.33
8315.00,2.34
8314.00,2.34
8313.00,2.35
8312.00,2.35
8311.00,2.35
8310.00,2.35
8309.00,2.35
8308.00,2.35
8307.00,2.34
8306.00,2.33
8305.00,2.33
8304.00,2.32
8303.00,2.31
8302.00,2.29
8301.00,2.28
8300.00,2.26
8299.00,2.25
8298.00,2.23
8297.00,2.21
8296.00,2.18
8295.00,2.16
8294.00,2.13
8293.00,2.10
8292.00,2.07
8291.00,2.05
8290.00,2.02
8289.00,2.00
8288.00,1.98
8287.00,1.96
8286.00,1.95
8285.00,1.93
8284.00,1.92
8283.00,1.92
8282.00,1.91
8281.00,1.91
8280.00,1.90
8279.00,1.90
8278.00,1.90
8277.00,1.90
8276.00,1.89
8275.00,1.89
8274.00,1.89
8273.00,1.90
8272.00,1.90
8271.00,1.90
8270.00,1.90
8269.00,1.91
8268.00,1.92
8267.00,1.93
8266.00,1.94
8265.00,1.95
8264.00,1.96
8263.00,1.97
8262.00,1.97
8261.00,1.98
8260.00,1.98
8259.00,1.98
8258.00,1.98
8257.00,1.98
8256.00,1.98
8255.00,1.98
8254.00,1.97
8253.00,1.97
8252.00,1.97
8251.00,1.97
8250.00,1.97
8249.00,1.97
8248.00,1.97
8247.00,1.97
8246.00,1.98
8245.00,1.98
8244.00,1.98
8243.00,1.99
8242.00,1.99
8241.00,1.99
8240.00,2.00
8239.00,2.00
8238.00,2.00
8237.00,2.01
8236.00,2.01
8235.00,2.01
8234.00,2.02
8233.00,2.02
8232.00,2.03
8231.00,2.03
8230.00,2.04
8229.00,2.04
8228.00,2.04
8227.00,2.05
8226.00,2.05
8225.00,2.05
8224.00,2.06
8223.00,2.06
8222.00,2.06
8221.00,2.06
8220.00,2.06
8219.00,2.06
8218.00,2.06
8217.00,2.05
8216.00,2.05
8215.00,2.04
8214.00,2.04
8213.00,2.04
8212.00,2.03
8211.00,2.03
8210.00,2.02
8209.00,2.02
8208.00,2.02
8207.00,2.01
8206.00,2.01
8205.00,2.01
8204.00,2.00
8203.00,2.00
8202.00,2.00
8201.00,2.00
8200.00,2.00
8199.00,2.00
8198.00,2.00
8197.00,2.00
8196.00,2.00
8195.00,2.00
8194.00,2.01
8193.00,2.01
8192.00,2.01
8191.00,2.01
8190.00,2.02
8189.00,2.02
8188.00,2.02
8187.00,2.03
8186.00,2.04
8185.00,2.04
8184.00,2.05
8183.00,2.06
8182.00,2.06
8181.00,2.07
8180.00,2.08
8179.00,2.09
8178.00,2.10
8177.00,2.11
8176.00,2.12
8175.00,2.13
8174.00,2.14
8173.00,2.15
8172.00,2.16
8171.00,2.17
8170.00,2.18
8169.00,2.19
8168.00,2.20
8167.00,2.21
8166.00,2.22
8165.00,2.23
8164.00,2.24
8163.00,2.25
8162.00,2.26
8161.00,2.27
8160.00,2.28
8159.00,2.28
8158.00,2.29
8157.00,2.29
8156.00,2.30
8155.00,2.30
8154.00,2.30
8153.00,2.30
8152.00,2.30
8151.00,2.29
8150.00,2.29
8149.00,2.29
8148.00,2.28
8147.00,2.28
8146.00,2.28
8145.00,2.28
8144.00,2.27
8143.00,2.27
8142.00,2.26
8141.00,2.26
8140.00,2.25
8139.00,2.25
8138.00,2.24
8137.00,2.23
8136.00,2.22
8135.00,2.22
8134.00,2.21
8133.00,2.20
8132.00,2.20
8131.00,2.19
8130.00,2.19
8129.00,2.19
8128.00,2.19
8127.00,2.18
8126.00,2.18
8125.00,2.18
8124.00,2.18
8123.00,2.18
8122.00,2.17
8121.00,2.17
8120.00,2.17
8119.00,2.17
8118.00,2.16
8117.00,2.16
8116.00,2.16
8115.00,2.16
8114.00,2.16
8113.00,2.16
8112.00,2.16
8111.00,2.16
8110.00,2.17
8109.00,2.17
8108.00,2.17
8107.00,2.18
8106.00,2.18
8105.00,2.18
8104.00,2.19
8103.00,2.19
8102.00,2.19
8101.00,2.20
8100.00,2.20
8099.00,2.20
8098.00,2.20
8097.00,2.21
8096.00,2.21
8095.00,2.21
8094.00,2.22
8093.00,2.22
8092.00,2.23
8091.00,2.24
8090.00,2.25
8089.00,2.25
8088.00,2.26
8087.00,2.27
8086.00,2.27
8085.00,2.28
8084.00,2.29
8083.00,2.29
8082.00,2.29
8081.00,2.30
8080.00,2.30
8079.00,2.30
8078.00,2.30
8077.00,2.30
8076.00,2.31
8075.00,2.31
8074.00,2.31
8073.00,2.31
8072.00,2.31
8071.00,2.32
8070.00,2.32
8069.00,2.32
8068.00,2.31
8067.00,2.31
8066.00,2.31
8065.00,2.30
8064.00,2.30
8063.00,2.29
8062.00,2.28
8061.00,2.28
8060.00,2.27
8059.00,2.27
8058.00,2.26
8057.00,2.25
8056.00,2.25
8055.00,2.25
8054.00,2.24
8053.00,2.24
8052.00,2.24
8051.00,2.24
8050.00,2.23
8049.00,2.23
8048.00,2.23
8047.00,2.23
8046.00,2.24
8045.00,2.24
8044.00,2.24
8043.00,2.24
8042.00,2.24
8041.00,2.24
8040.00,2.25
8039.00,2.25
8038.00,2.25
8037.00,2.25
8036.00,2.25
8035.00,2.25
8034.00,2.25
8033.00,2.25
8032.00,2.24
8031.00,2.24
8030.00,2.24
8029.00,2.24
8028.00,2.23
8027.00,2.23
8026.00,2.23
8025.00,2.22
8024.00,2.22
8023.00,2.21
8022.00,2.21
8021.00,2.20
8020.00,2.19
8019.00,2.19
8018.00,2.18
8017.00,2.17
8016.00,2.17
8015.00,2.16
8014.00,2.16
8013.00,2.15
8012.00,2.15
8011.00,2.15
8010.00,2.15
8009.00,2.15
8008.00,2.15
8007.00,2.15
8006.00,2.16
8005.00,2.16
8004.00,2.16
8003.00,2.17
8002.00,2.17
8001.00,2.18
8000.00,2.18
7999.00,2.19
7998.00,2.19
7997.00,2.20
7996.00,2.20
7995.00,2.20
7994.00,2.21
7993.00,2.21
7992.00,2.21
7991.00,2.22
7990.00,2.22
7989.00,2.23
7988.00,2.23
7987.00,2.24
7986.00,2.24
7985.00,2.25
7984.00,2.25
7983.00,2.25
7982.00,2.24
7981.00,2.24
7980.00,2.23
7979.00,2.23
7978.00,2.22
7977.00,2.20
7976.00,2.19
7975.00,2.18
7974.00,2.17
7973.00,2.16
7972.00,2.15
7971.00,2.14
7970.00,2.13
7969.00,2.12
7968.00,2.11
7967.00,2.10
7966.00,2.09
7965.00,2.09
7964.00,2.08
7963.00,2.07
7962.00,2.07
7961.00,2.06
7960.00,2.05
7959.00,2.05
7958.00,2.05
7957.00,2.05
7956.00,2.05
7955.00,2.06
7954.00,2.07
7953.00,2.08
7952.00,2.10
7951.00,2.12
7950.00,2.13
7949.00,2.15
7948.00,2.17
7947.00,2.19
7946.00,2.21
7945.00,2.23
7944.00,2.25
7943.00,2.27
7942.00,2.28
7941.00,2.30
7940.00,2.31
7939.00,2.32
7938.00,2.33
7937.00,2.34
7936.00,2.35
7935.00,2.36
7934.00,2.37
7933.00,2.38
7932.00,2.39
7931.00,2.39
7930.00,2.40
7929.00,2.40
7928.00,2.40
7927.00,2.39
7926.00,2.39
7925.00,2.38
7924.00,2.38
7923.00,2.37
7922.00,2.37
7921.00,2.36
7920.00,2.35
7919.00,2.35
7918.00,2.35
7917.00,2.35
7916.00,2.34
7915.00,2.35
7914.00,2.35
7913.00,2.35
7912.00,2.35
7911.00,2.35
7910.00,2.35
7909.00,2.35
7908.00,2.35
7907.00,2.35
7906.00,2.34
7905.00,2.34
7904.00,2.34
7903.00,2.33
7902.00,2.33
7901.00,2.32
7900.00,2.32
7899.00,2.31
7898.00,2.31
7897.00,2.30
7896.00,2.30
7895.00,2.29
7894.00,2.28
7893.00,2.28
7892.00,2.27
7891.00,2.26
7890.00,2.25
7889.00,2.24
7888.00,2.23
7887.00,2.22
7886.00,2.21
7885.00,2.20
7884.00,2.19
7883.00,2.19
7882.00,2.18
7881.00,2.18
7880.00,2.18
7879.00,2.18
7878.00,2.18
7877.00,2.19
7876.00,2.19
7875.00,2.19
7874.00,2.20
7873.00,2.20
7872.00,2.21
7871.00,2.22
7870.00,2.22
7869.00,2.23
7868.00,2.24
7867.00,2.25
7866.00,2.26
7865.00,2.27
7864.00,2.28
7863.00,2.30
7862.00,2.31
7861.00,2.32
7860.00,2.33
7859.00,2.33
7858.00,2.34
7857.00,2.34
7856.00,2.35
7855.00,2.35
7854.00,2.35
7853.00,2.35
7852.00,2.36
7851.00,2.36
7850.00,2.36
7849.00,2.37
7848.00,2.37
7847.00,2.38
7846.00,2.38
7845.00,2.39
7844.00,2.39
7843.00,2.39
7842.00,2.40
7841.00,2.40
7840.00,2.39
7839.00,2.39
7838.00,2.39
7837.00,2.38
7836.00,2.38
7835.00,2.38
7834.00,2.37
7833.00,2.37
7832.00,2.37
7831.00,2.37
7830.00,2.37
7829.00,2.37
7828.00,2.37
7827.00,2.37
7826.00,2.37
7825.00,2.36
7824.00,2.36
7823.00,2.35
7822.00,2.34
7821.00,2.33
7820.00,2.32
7819.00,2.31
7818.00,2.30
7817.00,2.29
7816.00,2.28
7815.00,2.27
7814.00,2.26
7813.00,2.26
7812.00,2.25
7811.00,2.25
7810.00,2.24
7809.00,2.24
7808.00,2.23
7807.00,2.23
7806.00,2.22
7805.00,2.21
7804.00,2.21
7803.00,2.20
7802.00,2.20
7801.00,2.20
7800.00,2.19
7799.00,2.19
7798.00,2.19
7797.00,2.19
7796.00,2.19
7795.00,2.20
7794.00,2.20
7793.00,2.20
7792.00,2.21
7791.00,2.21
7790.00,2.22
7789.00,2.22
7788.00,2.22
7787.00,2.22
7786.00,2.23
7785.00,2.23
7784.00,2.23
7783.00,2.23
7782.00,2.24
7781.00,2.24
7780.00,2.24
7779.00,2.25
7778.00,2.25
7777.00,2.26
7776.00,2.27
7775.00,2.27
7774.00,2.28
7773.00,2.29
7772.00,2.29
7771.00,2.30
7770.00,2.30
7769.00,2.31
7768.00,2.31
7767.00,2.32
7766.00,2.33
7765.00,2.33
7764.00,2.34
7763.00,2.34
7762.00,2.35
7761.00,2.35
7760.00,2.36
7759.00,2.36
7758.00,2.36
7757.00,2.37
7756.00,2.37
7755.00,2.37
7754.00,2.37
7753.00,2.36
7752.00,2.36
7751.00,2.35
7750.00,2.35
7749.00,2.34
7748.00,2.33
7747.00,2.32
7746.00,2.31
7745.00,2.30
7744.00,2.29
7743.00,2.28
7742.00,2.27
7741.00,2.26
7740.00,2.25
7739.00,2.24
7738.00,2.23
7737.00,2.23
7736.00,2.22
7735.00,2.21
7734.00,2.20
7733.00,2.20
7732.00,2.19
7731.00,2.19
7730.00,2.18
7729.00,2.18
7728.00,2.18
7727.00,2.19
7726.00,2.19
7725.00,2.20
7724.00,2.21
7723.00,2.22
7722.00,2.22
7721.00,2.23
7720.00,2.24
7719.00,2.25
7718.00,2.25
7717.00,2.26
7716.00,2.27
7715.00,2.27
7714.00,2.28
7713.00,2.29
7712.00,2.29
7711.00,2.30
7710.00,2.31
7709.00,2.32
7708.00,2.32
7707.00,2.33
7706.00,2.34
7705.00,2.34
7704.00,2.34
7703.00,2.35
7702.00,2.35
7701.00,2.35
7700.00,2.35
7699.00,2.35
7698.00,2.35
7697.00,2.34
7696.00,2.34
7695.00,2.34
7694.00,2.34
7693.00,2.34
7692.00,2.34
7691.00,2.34
7690.00,2.34
7689.00,2.34
7688.00,2.34
7687.00,2.34
7686.00,2.34
7685.00,2.34
7684.00,2.33
7683.00,2.33
7682.00,2.32
7681.00,2.32
7680.00,2.31
7679.00,2.31
7678.00,2.31
7677.00,2.30
7676.00,2.30
7675.00,2.29
7674.00,2.29
7673.00,2.28
7672.00,2.28
7671.00,2.27
7670.00,2.27
7669.00,2.26
7668.00,2.26
7667.00,2.25
7666.00,2.25
7665.00,2.24
7664.00,2.24
7663.00,2.24
7662.00,2.23
7661.00,2.23
7660.00,2.22
7659.00,2.22
7658.00,2.22
7657.00,2.22
7656.00,2.22
7655.00,2.21
7654.00,2.21
7653.00,2.21
7652.00,2.21
7651.00,2.20
7650.00,2.20
7649.00,2.20
7648.00,2.19
7647.00,2.19
7646.00,2.19
7645.00,2.19
7644.00,2.19
7643.00,2.19
7642.00,2.18
7641.00,2.18
7640.00,2.18
7639.00,2.17
7638.00,2.17
7637.00,2.17
7636.00,2.16
7635.00,2.16
7634.00,2.15
7633.00,2.15
7632.00,2.14
7631.00,2.14
7630.00,2.14
7629.00,2.13
7628.00,2.13
7627.00,2.12
7626.00,2.12
7625.00,2.12
7624.00,2.12
7623.00,2.12
7622.00,2.12
7621.00,2.12
7620.00,2.13
7619.00,2.13
7618.00,2.13
7617.00,2.14
7616.00,2.15
7615.00,2.15
7614.00,2.16
7613.00,2.17
7612.00,2.17
7611.00,2.18
7610.00,2.19
7609.00,2.20
7608.00,2.21
7607.00,2.22
7606.00,2.23
7605.00,2.25
7604.00,2.26
7603.00,2.27
7602.00,2.29
7601.00,2.30
7600.00,2.31
7599.00,2.32
7598.00,2.33
7597.00,2.34
7596.00,2.34
7595.00,2.35
7594.00,2.35
7593.00,2.36
7592.00,2.36
7591.00,2.36
7590.00,2.36
7589.00,2.36
7588.00,2.36
7587.00,2.37
7586.00,2.37
7585.00,2.37
7584.00,2.37
7583.00,2.36
7582.00,2.36
7581.00,2.36
7580.00,2.36
7579.00,2.36
7578.00,2.36
7577.00,2.36
7576.00,2.36
7575.00,2.36
7574.00,2.36
7573.00,2.36
7572.00,2.36
7571.00,2.37
7570.00,2.37
7569.00,2.38
7568.00,2.38
7567.00,2.39
7566.00,2.39
7565.00,2.40
7564.00,2.40
7563.00,2.41
7562.00,2.41
7561.00,2.42
7560.00,2.43
7559.00,2.43
7558.00,2.44
7557.00,2.44
7556.00,2.45
7555.00,2.45
7554.00,2.45
7553.00,2.45
7552.00,2.45
7551.00,2.45
7550.00,2.45
7549.00,2.45
7548.00,2.44
7547.00,2.44
7546.00,2.44
7545.00,2.43
7544.00,2.43
7543.00,2.43
7542.00,2.43
7541.00,2.42
7540.00,2.42
7539.00,2.42
7538.00,2.41
7537.00,2.41
7536.00,2.41
7535.00,2.40
7534.00,2.40
7533.00,2.40
7532.00,2.39
7531.00,2.39
7530.00,2.38
7529.00,2.38
7528.00,2.38
7527.00,2.37
7526.00,2.37
7525.00,2.37
7524.00,2.36
7523.00,2.36
7522.00,2.36
7521.00,2.36
7520.00,2.35
7519.00,2.35
7518.00,2.34
7517.00,2.34
7516.00,2.33
7515.00,2.33
7514.00,2.32
7513.00,2.31
7512.00,2.31
7511.00,2.30
7510.00,2.29
7509.00,2.28
7508.00,2.28
7507.00,2.27
7506.00,2.27
7505.00,2.26
7504.00,2.26
7503.00,2.26
7502.00,2.26
7501.00,2.26
7500.00,2.26
7499.00,2.26
7498.00,2.27
7497.00,2.27
7496.00,2.28
7495.00,2.28
7494.00,2.29
7493.00,2.30
7492.00,2.31
7491.00,2.32
7490.00,2.32
7489.00,2.33
7488.00,2.35
7487.00,2.36
7486.00,2.37
7485.00,2.39
7484.00,2.40
7483.00,2.42
7482.00,2.43
7481.00,2.45
7480.00,2.46
7479.00,2.47
7478.00,2.48
7477.00,2.49
7476.00,2.50
7475.00,2.50
7474.00,2.51
7473.00,2.51
7472.00,2.50
7471.00,2.50
7470.00,2.50
7469.00,2.49
7468.00,2.48
7467.00,2.48
7466.00,2.47
7465.00,2.46
7464.00,2.45
7463.00,2.44
7462.00,2.42
7461.00,2.41
7460.00,2.40
7459.00,2.38
7458.00,2.36
7457.00,2.35
7456.00,2.33
7455.00,2.31
7454.00,2.30
7453.00,2.28
7452.00,2.27
7451.00,2.25
7450.00,2.24
7449.00,2.23
7448.00,2.22
7447.00,2.21
7446.00,2.21
7445.00,2.20
7444.00,2.20
7443.00,2.20
7442.00,2.19
7441.00,2.20
7440.00,2.20
7439.00,2.20
7438.00,2.20
7437.00,2.21
7436.00,2.21
7435.00,2.22
7434.00,2.23
7433.00,2.24
7432.00,2.25
7431.00,2.26
7430.00,2.27
7429.00,2.28
7428.00,2.29
7427.00,2.30
7426.00,2.31
7425.00,2.32
7424.00,2.33
7423.00,2.34
7422.00,2.36
7421.00,2.37
7420.00,2.38
7419.00,2.38
7418.00,2.39
7417.00,2.40
7416.00,2.40
7415.00,2.41
7414.00,2.41
7413.00,2.42
7412.00,2.42
7411.00,2.42
7410.00,2.42
7409.00,2.42
7408.00,2.42
7407.00,2.42
7406.00,2.41
7405.00,2.41
7404.00,2.40
7403.00,2.39
7402.00,2.38
7401.00,2.38
7400.00,2.37
7399.00,2.36
7398.00,2.35
7397.00,2.34
7396.00,2.33
7395.00,2.32
7394.00,2.31
7393.00,2.30
7392.00,2.30
7391.00,2.29
7390.00,2.28
7389.00,2.27
7388.00,2.27
7387.00,2.26
7386.00,2.25
7385.00,2.24
7384.00,2.23
7383.00,2.22
7382.00,2.22
7381.00,2.21
7380.00,2.20
7379.00,2.20
7378.00,2.19
7377.00,2.19
7376.00,2.19
7375.00,2.18
7374.00,2.18
7373.00,2.18
7372.00,2.18
7371.00,2.18
7370.00,2.17
7369.00,2.17
7368.00,2.17
7367.00,2.16
7366.00,2.16
7365.00,2.15
7364.00,2.15
7363.00,2.14
7362.00,2.14
7361.00,2.14
7360.00,2.14
7359.00,2.14
7358.00,2.15
7357.00,2.15
7356.00,2.16
7355.00,2.17
7354.00,2.18
7353.00,2.19
7352.00,2.20
7351.00,2.21
7350.00,2.22
7349.00,2.23
7348.00,2.24
7347.00,2.25
7346.00,2.26
7345.00,2.27
7344.00,2.28
7343.00,2.30
7342.00,2.31
7341.00,2.32
7340.00,2.33
7339.00,2.34
7338.00,2.35
7337.00,2.36
7336.00,2.37
7335.00,2.37
7334.00,2.38
7333.00,2.38
7332.00,2.39
7331.00,2.39
7330.00,2.39
7329.00,2.39
7328.00,2.38
7327.00,2.38
7326.00,2.37
7325.00,2.37
7324.00,2.36
7323.00,2.35
7322.00,2.34
7321.00,2.33
7320.00,2.33
7319.00,2.32
7318.00,2.31
7317.00,2.30
7316.00,2.30
7315.00,2.29
7314.00,2.28
7313.00,2.28
7312.00,2.28
7311.00,2.27
7310.00,2.27
7309.00,2.27
7308.00,2.26
7307.00,2.26
7306.00,2.26
7305.00,2.26
7304.00,2.25
7303.00,2.25
7302.00,2.25
7301.00,2.25
7300.00,2.25
7299.00,2.25
7298.00,2.25
7297.00,2.25
7296.00,2.25
7295.00,2.25
7294.00,2.25
7293.00,2.25
7292.00,2.25
7291.00,2.25
7290.00,2.25
7289.00,2.25
7288.00,2.25
7287.00,2.24
7286.00,2.24
7285.00,2.24
7284.00,2.24
7283.00,2.24
7282.00,2.24
7281.00,2.24
7280.00,2.24
7279.00,2.23
7278.00,2.23
7277.00,2.23
7276.00,2.23
7275.00,2.23
7274.00,2.23
7273.00,2.22
7272.00,2.22
7271.00,2.22
7270.00,2.21
7269.00,2.21
7268.00,2.21
7267.00,2.21
7266.00,2.20
7265.00,2.20
7264.00,2.20
7263.00,2.20
7262.00,2.20
7261.00,2.20
7260.00,2.19
7259.00,2.19
7258.00,2.18
7257.00,2.18
7256.00,2.17
7255.00,2.16
7254.00,2.16
7253.00,2.15
7252.00,2.15
7251.00,2.14
7250.00,2.14
7249.00,2.13
7248.00,2.13
7247.00,2.13
7246.00,2.13
7245.00,2.13
7244.00,2.13
7243.00,2.13
7242.00,2.13
7241.00,2.13
7240.00,2.13
7239.00,2.13
7238.00,2.12
7237.00,2.12
7236.00,2.12
7235.00,2.12
7234.00,2.12
7233.00,2.11
7232.00,2.11
7231.00,2.12
7230.00,2.12
7229.00,2.12
7228.00,2.12
7227.00,2.13
7226.00,2.13
7225.00,2.13
7224.00,2.13
7223.00,2.13
7222.00,2.13
7221.00,2.12
7220.00,2.12
7219.00,2.11
7218.00,2.11
7217.00,2.10
7216.00,2.10
7215.00,2.09
7214.00,2.08
7213.00,2.07
7212.00,2.06
7211.00,2.05
7210.00,2.04
7209.00,2.03
7208.00,2.02
7207.00,2.01
7206.00,2.00
7205.00,1.98
7204.00,1.97
7203.00,1.96
7202.00,1.94
7201.00,1.92
7200.00,1.91
7199.00,1.89
7198.00,1.87
7197.00,1.85
7196.00,1.83
7195.00,1.82
7194.00,1.80
7193.00,1.78
7192.00,1.77
7191.00,1.75
7190.00,1.74
7189.00,1.72
7188.00,1.71
7187.00,1.70
7186.00,1.69
7185.00,1.67
7184.00,1.66
7183.00,1.65
7182.00,1.64
7181.00,1.63
7180.00,1.62
7179.00,1.61
7178.00,1.60
7177.00,1.60
7176.00,1.59
7175.00,1.59
7174.00,1.58
7173.00,1.58
7172.00,1.58
7171.00,1.57
7170.00,1.57
7169.00,1.57
7168.00,1.57
7167.00,1.57
7166.00,1.57
7165.00,1.56
7164.00,1.56
7163.00,1.56
7162.00,1.56
7161.00,1.55
7160.00,1.55
7159.00,1.55
7158.00,1.55
7157.00,1.55
7156.00,1.54
7155.00,1.54
7154.00,1.54
7153.00,1.54
7152.00,1.53
7151.00,1.53
7150.00,1.52
7149.00,1.52
7148.00,1.51
7147.00,1.51
7146.00,1.51
7145.00,1.50
7144.00,1.50
7143.00,1.49
7142.00,1.49
7141.00,1.49
7140.00,1.48
7139.00,1.48
7138.00,1.48
7137.00,1.48
7136.00,1.48
7135.00,1.48
7134.00,1.48
7133.00,1.48
7132.00,1.48
7131.00,1.48
7130.00,1.48
7129.00,1.48
7128.00,1.49
7127.00,1.49
7126.00,1.49
7125.00,1.49
7124.00,1.49
7123.00,1.49
7122.00,1.49
7121.00,1.49
7120.00,1.49
7119.00,1.49
7118.00,1.49
7117.00,1.49
7116.00,1.50
7115.00,1.50
7114.00,1.49
7113.00,1.49
7112.00,1.49
7111.00,1.49
7110.00,1.48
7109.00,1.47
7108.00,1.46
7107.00,1.46
7106.00,1.45
7105.00,1.44
7104.00,1.43
7103.00,1.42
7102.00,1.41
7101.00,1.40
7100.00,1.40
7099.00,1.39
7098.00,1.38
7097.00,1.37
7096.00,1.36
7095.00,1.36
7094.00,1.35
7093.00,1.34
7092.00,1.33
7091.00,1.32
7090.00,1.31
7089.00,1.30
7088.00,1.29
7087.00,1.28
7086.00,1.27
7085.00,1.26
7084.00,1.26
7083.00,1.25
7082.00,1.25
7081.00,1.25
7080.00,1.25
7079.00,1.25
7078.00,1.25
7077.00,1.25
7076.00,1.25
7075.00,1.26
7074.00,1.26
7073.00,1.26
7072.00,1.27
7071.00,1.27
7070.00,1.27
7069.00,1.27
7068.00,1.28
7067.00,1.28
7066.00,1.28
7065.00,1.28
7064.00,1.29
7063.00,1.29
7062.00,1.29
7061.00,1.29
7060.00,1.30
7059.00,1.30
7058.00,1.30
7057.00,1.30
7056.00,1.30
7055.00,1.30
7054.00,1.29
7053.00,1.29
7052.00,1.29
7051.00,1.28
7050.00,1.27
7049.00,1.27
7048.00,1.26
7047.00,1.25
7046.00,1.24
7045.00,1.23
7044.00,1.22
7043.00,1.21
7042.00,1.20
7041.00,1.19
7040.00,1.18
7039.00,1.18
7038.00,1.17
7037.00,1.17
7036.00,1.16
7035.00,1.16
7034.00,1.16
7033.00,1.15
7032.00,1.15
7031.00,1.15
7030.00,1.14
7029.00,1.14
7028.00,1.14
7027.00,1.14
7026.00,1.13
7025.00,1.14
7024.00,1.14
7023.00,1.14
7022.00,1.15
7021.00,1.15
7020.00,1.16
7019.00,1.16
7018.00,1.17
7017.00,1.18
7016.00,1.18
7015.00,1.18
7014.00,1.19
7013.00,1.19
7012.00,1.20
7011.00,1.20
7010.00,1.20
7009.00,1.20
7008.00,1.20
7007.00,1.20
7006.00,1.20
7005.00,1.19
7004.00,1.19
7003.00,1.19
7002.00,1.18
7001.00,1.18
7000.00,1.17
6999.00,1.16
6998.00,1.16
6997.00,1.15
6996.00,1.14
6995.00,1.13
6994.00,1.11
6993.00,1.10
6992.00,1.09
6991.00,1.08
6990.00,1.06
6989.00,1.05
6988.00,1.04
6987.00,1.03
6986.00,1.02
6985.00,1.00
6984.00,0.99
6983.00,0.98
6982.00,0.97
6981.00,0.97
6980.00,0.96
6979.00,0.95
6978.00,0.95
6977.00,0.95
6976.00,0.95
6975.00,0.95
6974.00,0.95
6973.00,0.95
6972.00,0.95
6971.00,0.96
6970.00,0.96
6969.00,0.96
6968.00,0.97
6967.00,0.97
6966.00,0.98
6965.00,0.99
6964.00,0.99
6963.00,1.00
6962.00,1.00
6961.00,1.01
6960.00,1.01
6959.00,1.02
6958.00,1.02
6957.00,1.03
6956.00,1.03
6955.00,1.04
6954.00,1.04
6953.00,1.04
6952.00,1.04
6951.00,1.05
6950.00,1.05
6949.00,1.05
6948.00,1.05
6947.00,1.05
6946.00,1.04
6945.00,1.04
6944.00,1.04
6943.00,1.04
6942.00,1.04
6941.00,1.04
6940.00,1.03
6939.00,1.03
6938.00,1.03
6937.00,1.03
6936.00,1.03
6935.00,1.03
6934.00,1.03
6933.00,1.02
6932.00,1.02
6931.00,1.02
6930.00,1.02
6929.00,1.02
6928.00,1.01
6927.00,1.01
6926.00,1.01
6925.00,1.01
6924.00,1.00
6923.00,1.00
6922.00,1.00
6921.00,0.99
6920.00,0.99
6919.00,0.99
6918.00,0.98
6917.00,0.98
6916.00,0.97
6915.00,0.97
6914.00,0.96
6913.00,0.96
6912.00,0.95
6911.00,0.95
6910.00,0.94
6909.00,0.94
6908.00,0.93
6907.00,0.93
6906.00,0.93
6905.00,0.92
6904.00,0.92
6903.00,0.92
6902.00,0.91
6901.00,0.91
6900.00,0.91
6899.00,0.91
6898.00,0.90
6897.00,0.90
6896.00,0.90
6895.00,0.90
6894.00,0.90
6893.00,0.90
6892.00,0.89
6891.00,0.89
6890.00,0.89
6889.00,0.89
6888.00,0.90
6887.00,0.90
6886.00,0.90
6885.00,0.90
6884.00,0.90
6883.00,0.90
6882.00,0.90
6881.00,0.90
6880.00,0.90
6879.00,0.90
6878.00,0.91
6877.00,0.91
6876.00,0.91
6875.00,0.91
6874.00,0.91
6873.00,0.91
6872.00,0.91
6871.00,0.91
6870.00,0.91
6869.00,0.91
6868.00,0.92
6867.00,0.92
6866.00,0.92
6865.00,0.92
6864.00,0.93
6863.00,0.93
6862.00,0.93
6861.00,0.93
6860.00,0.94
6859.00,0.94
6858.00,0.94
6857.00,0.94
6856.00,0.95
6855.00,0.95
6854.00,0.95
6853.00,0.96
6852.00,0.96
6851.00,0.96
6850.00,0.97
6849.00,0.97
6848.00,0.97
6847.00,0.97
6846.00,0.98
6845.00,0.98
6844.00,0.98
6843.00,0.98
6842.00,0.99
6841.00,0.99
6840.00,0.98
6839.00,0.98
6838.00,0.98
6837.00,0.98
6836.00,0.97
6835.00,0.97
6834.00,0.97
6833.00,0.96
6832.00,0.96
6831.00,0.96
6830.00,0.95
6829.00,0.95
6828.00,0.94
6827.00,0.93
6826.00,0.93
6825.00,0.92
6824.00,0.91
6823.00,0.90
6822.00,0.90
6821.00,0.89
6820.00,0.89
6819.00,0.88
6818.00,0.88
6817.00,0.87
6816.00,0.87
6815.00,0.86
6814.00,0.86
6813.00,0.86
6812.00,0.86
6811.00,0.86
6810.00,0.87
6809.00,0.87
6808.00,0.87
6807.00,0.88
6806.00,0.88
6805.00,0.89
6804.00,0.89
6803.00,0.90
6802.00,0.91
6801.00,0.91
6800.00,0.92
6799.00,0.93
6798.00,0.94
6797.00,0.95
6796.00,0.95
6795.00,0.96
6794.00,0.97
6793.00,0.97
6792.00,0.98
6791.00,0.99
6790.00,0.99
6789.00,1.00
6788.00,1.00
6787.00,1.01
6786.00,1.02
6785.00,1.02
6784.00,1.03
6783.00,1.03
6782.00,1.03
6781.00,1.04
6780.00,1.04
6779.00,1.04
6778.00,1.04
6777.00,1.04
6776.00,1.05
6775.00,1.05
6774.00,1.05
6773.00,1.06
6772.00,1.06
6771.00,1.07
6770.00,1.07
6769.00,1.08
6768.00,1.08
6767.00,1.09
6766.00,1.10
6765.00,1.10
6764.00,1.11
6763.00,1.11
6762.00,1.12
6761.00,1.12
6760.00,1.13
6759.00,1.13
6758.00,1.13
6757.00,1.14
6756.00,1.14
6755.00,1.14
6754.00,1.14
6753.00,1.15
6752.00,1.15
6751.00,1.15
6750.00,1.15
6749.00,1.15
6748.00,1.15
6747.00,1.15
6746.00,1.15
6745.00,1.15
6744.00,1.14
6743.00,1.14
6742.00,1.14
6741.00,1.13
6740.00,1.13
6739.00,1.12
6738.00,1.12
6737.00,1.12
6736.00,1.11
6735.00,1.11
6734.00,1.10
6733.00,1.10
6732.00,1.10
6731.00,1.10
6730.00,1.09
6729.00,1.09
6728.00,1.09
6727.00,1.09
6726.00,1.08
6725.00,1.08
6724.00,1.08
6723.00,1.08
6722.00,1.08
6721.00,1.07
6720.00,1.07
6719.00,1.07
6718.00,1.07
6717.00,1.07
6716.00,1.07
6715.00,1.06
6714.00,1.06
6713.00,1.06
6712.00,1.06
6711.00,1.06
6710.00,1.05
6709.00,1.05
6708.00,1.05
6707.00,1.05
6706.00,1.05
6705.00,1.05
6704.00,1.05
6703.00,1.05
6702.00,1.06
6701.00,1.06
6700.00,1.06
6699.00,1.07
6698.00,1.07
6697.00,1.08
6696.00,1.08
6695.00,1.09
6694.00,1.10
6693.00,1.10
6692.00,1.11
6691.00,1.12
6690.00,1.13
6689.00,1.14
6688.00,1.15
6687.00,1.16
6686.00,1.17
6685.00,1.18
6684.00,1.19
6683.00,1.20
6682.00,1.20
6681.00,1.21
6680.00,1.22
6679.00,1.23
6678.00,1.23
6677.00,1.24
6676.00,1.25
6675.00,1.25
6674.00,1.25
6673.00,1.26
6672.00,1.26
6671.00,1.27
6670.00,1.27
6669.00,1.27
6668.00,1.28
6667.00,1.28
6666.00,1.28
6665.00,1.29
6664.00,1.29
6663.00,1.29
6662.00,1.30
6661.00,1.30
6660.00,1.31
6659.00,1.31
6658.00,1.32
6657.00,1.32
6656.00,1.33
6655.00,1.33
6654.00,1.34
6653.00,1.34
6652.00,1.35
6651.00,1.36
6650.00,1.36
6649.00,1.37
6648.00,1.37
6647.00,1.38
6646.00,1.38
6645.00,1.39
6644.00,1.39
6643.00,1.39
6642.00,1.40
6641.00,1.40
6640.00,1.40
6639.00,1.40
6638.00,1.40
6637.00,1.39
6636.00,1.39
6635.00,1.39
6634.00,1.39
6633.00,1.39
6632.00,1.39
6631.00,1.39
6630.00,1.39
6629.00,1.39
6628.00,1.39
6627.00,1.39
6626.00,1.39
6625.00,1.39
6624.00,1.39
6623.00,1.39
6622.00,1.40
6621.00,1.40
6620.00,1.40
6619.00,1.41
6618.00,1.42
6617.00,1.42
6616.00,1.43
6615.00,1.44
6614.00,1.44
6613.00,1.45
6612.00,1.46
6611.00,1.47
6610.00,1.47
6609.00,1.48
6608.00,1.48
6607.00,1.49
6606.00,1.49
6605.00,1.49
6604.00,1.49
6603.00,1.49
6602.00,1.50
6601.00,1.50
6600.00,1.50
6599.00,1.50
6598.00,1.50
6597.00,1.49
6596.00,1.49
6595.00,1.49
6594.00,1.49
6593.00,1.48
6592.00,1.48
6591.00,1.47
6590.00,1.47
6589.00,1.46
6588.00,1.46
6587.00,1.45
6586.00,1.45
6585.00,1.45
6584.00,1.45
6583.00,1.45
6582.00,1.44
6581.00,1.44
6580.00,1.44
6579.00,1.45
6578.00,1.44
6577.00,1.44
6576.00,1.44
6575.00,1.44
6574.00,1.44
6573.00,1.44
6572.00,1.43
6571.00,1.43
6570.00,1.42
6569.00,1.42
6568.00,1.42
6567.00,1.41
6566.00,1.41
6565.00,1.41
6564.00,1.41
6563.00,1.40
6562.00,1.40
6561.00,1.40
6560.00,1.39
6559.00,1.39
6558.00,1.39
6557.00,1.39
6556.00,1.38
6555.00,1.38
6554.00,1.38
6553.00,1.38
6552.00,1.38
6551.00,1.38
6550.00,1.38
6549.00,1.38
6548.00,1.39
6547.00,1.39
6546.00,1.40
6545.00,1.40
6544.00,1.41
6543.00,1.42
6542.00,1.43
6541.00,1.43
6540.00,1.44
6539.00,1.45
6538.00,1.46
6537.00,1.46
6536.00,1.47
6535.00,1.48
6534.00,1.48
6533.00,1.49
6532.00,1.50
6531.00,1.50
6530.00,1.50
6529.00,1.50
6528.00,1.51
6527.00,1.51
6526.00,1.51
6525.00,1.51
6524.00,1.51
6523.00,1.51
6522.00,1.52
6521.00,1.52
6520.00,1.52
6519.00,1.52
6518.00,1.52
6517.00,1.52
6516.00,1.52
6515.00,1.52
6514.00,1.52
6513.00,1.53
6512.00,1.53
6511.00,1.53
6510.00,1.53
6509.00,1.54
6508.00,1.54
6507.00,1.55
6506.00,1.55
6505.00,1.56
6504.00,1.57
6503.00,1.58
6502.00,1.58
6501.00,1.59
6500.00,1.60
6499.00,1.61
6498.00,1.62
6497.00,1.62
6496.00,1.63
6495.00,1.63
6494.00,1.64
6493.00,1.64
6492.00,1.65
6491.00,1.65
6490.00,1.66
6489.00,1.66
6488.00,1.66
6487.00,1.67
6486.00,1.67
6485.00,1.67
6484.00,1.67
6483.00,1.67
6482.00,1.67
6481.00,1.67
6480.00,1.67
6479.00,1.67
6478.00,1.67
6477.00,1.67
6476.00,1.66
6475.00,1.66
6474.00,1.66
6473.00,1.66
6472.00,1.66
6471.00,1.66
6470.00,1.66
6469.00,1.66
6468.00,1.66
6467.00,1.66
6466.00,1.66
6465.00,1.66
6464.00,1.66
6463.00,1.65
6462.00,1.65
6461.00,1.65
6460.00,1.65
6459.00,1.65
6458.00,1.65
6457.00,1.65
6456.00,1.65
6455.00,1.65
6454.00,1.65
6453.00,1.66
6452.00,1.66
6451.00,1.66
6450.00,1.66
6449.00,1.67
6448.00,1.67
6447.00,1.67
6446.00,1.67
6445.00,1.67
6444.00,1.67
6443.00,1.68
6442.00,1.68
6441.00,1.68
6440.00,1.68
6439.00,1.68
6438.00,1.68
6437.00,1.68
6436.00,1.68
6435.00,1.68
6434.00,1.69
6433.00,1.69
6432.00,1.69
6431.00,1.68
6430.00,1.68
6429.00,1.68
6428.00,1.68
6427.00,1.68
6426.00,1.67
6425.00,1.67
6424.00,1.67
6423.00,1.66
6422.00,1.66
6421.00,1.65
6420.00,1.65
6419.00,1.65
6418.00,1.64
6417.00,1.64
6416.00,1.64
6415.00,1.64
6414.00,1.64
6413.00,1.64
6412.00,1.64
6411.00,1.64
6410.00,1.64
6409.00,1.64
6408.00,1.65
6407.00,1.65
6406.00,1.66
6405.00,1.66
6404.00,1.67
6403.00,1.68
6402.00,1.69
6401.00,1.70
6400.00,1.71
6399.00,1.72
6398.00,1.73
6397.00,1.74
6396.00,1.75
6395.00,1.76
6394.00,1.77
6393.00,1.79
6392.00,1.80
6391.00,1.81
6390.00,1.82
6389.00,1.83
6388.00,1.84
6387.00,1.86
6386.00,1.87
6385.00,1.88
6384.00,1.89
6383.00,1.89
6382.00,1.90
6381.00,1.91
6380.00,1.91
6379.00,1.92
6378.00,1.92
6377.00,1.92
6376.00,1.93
6375.00,1.93
6374.00,1.93
6373.00,1.93
6372.00,1.93
6371.00,1.93
6370.00,1.93
6369.00,1.93
6368.00,1.93
6367.00,1.92
6366.00,1.92
6365.00,1.92
6364.00,1.92
6363.00,1.92
6362.00,1.92
6361.00,1.92
6360.00,1.92
6359.00,1.92
6358.00,1.91
6357.00,1.91
6356.00,1.91
6355.00,1.91
6354.00,1.91
6353.00,1.91
6352.00,1.91
6351.00,1.91
6350.00,1.91
6349.00,1.91
6348.00,1.91
6347.00,1.91
6346.00,1.91
6345.00,1.91
6344.00,1.92
6343.00,1.92
6342.00,1.92
6341.00,1.92
6340.00,1.92
6339.00,1.92
6338.00,1.92
6337.00,1.92
6336.00,1.92
6335.00,1.93
6334.00,1.93
6333.00,1.93
6332.00,1.93
6331.00,1.93
6330.00,1.93
6329.00,1.94
6328.00,1.94
6327.00,1.94
6326.00,1.95
6325.00,1.95
6324.00,1.95
6323.00,1.95
6322.00,1.96
6321.00,1.96
6320.00,1.96
6319.00,1.97
6318.00,1.97
6317.00,1.97
6316.00,1.98
6315.00,1.98
6314.00,1.98
6313.00,1.99
6312.00,1.99
6311.00,1.99
6310.00,2.00
6309.00,2.00
6308.00,2.01
6307.00,2.01
6306.00,2.01
6305.00,2.02
6304.00,2.02
6303.00,2.02
6302.00,2.03
6301.00,2.03
6300.00,2.03
6299.00,2.03
6298.00,2.04
6297.00,2.04
6296.00,2.04
6295.00,2.04
6294.00,2.04
6293.00,2.04
6292.00,2.04
6291.00,2.05
6290.00,2.05
6289.00,2.05
6288.00,2.05
6287.00,2.05
6286.00,2.05
6285.00,2.05
6284.00,2.05
6283.00,2.05
6282.00,2.05
6281.00,2.05
6280.00,2.05
6279.00,2.05
6278.00,2.05
6277.00,2.05
6276.00,2.05
6275.00,2.05
6274.00,2.06
6273.00,2.06
6272.00,2.06
6271.00,2.06
6270.00,2.07
6269.00,2.07
6268.00,2.08
6267.00,2.08
6266.00,2.08
6265.00,2.09
6264.00,2.09
6263.00,2.09
6262.00,2.10
6261.00,2.10
6260.00,2.10
6259.00,2.11
6258.00,2.11
6257.00,2.12
6256.00,2.12
6255.00,2.13
6254.00,2.13
6253.00,2.13
6252.00,2.14
6251.00,2.14
6250.00,2.14
6249.00,2.15
6248.00,2.15
6247.00,2.15
6246.00,2.15
6245.00,2.15
6244.00,2.15
6243.00,2.15
6242.00,2.14
6241.00,2.14
6240.00,2.14
6239.00,2.14
6238.00,2.14
6237.00,2.14
6236.00,2.14
6235.00,2.13
6234.00,2.13
6233.00,2.13
6232.00,2.13
6231.00,2.13
6230.00,2.13
6229.00,2.12
6228.00,2.12
6227.00,2.12
6226.00,2.12
6225.00,2.12
6224.00,2.11
6223.00,2.11
6222.00,2.11
6221.00,2.12
6220.00,2.12
6219.00,2.12
6218.00,2.12
6217.00,2.12
6216.00,2.12
6215.00,2.13
6214.00,2.13
6213.00,2.13
6212.00,2.14
6211.00,2.14
6210.00,2.15
6209.00,2.16
6208.00,2.16
6207.00,2.17
6206.00,2.18
6205.00,2.18
6204.00,2.19
6203.00,2.20
6202.00,2.20
6201.00,2.21
6200.00,2.22
6199.00,2.22
6198.00,2.23
6197.00,2.24
6196.00,2.24
6195.00,2.25
6194.00,2.25
6193.00,2.26
6192.00,2.26
6191.00,2.26
6190.00,2.27
6189.00,2.27
6188.00,2.27
6187.00,2.28
6186.00,2.28
6185.00,2.28
6184.00,2.28
6183.00,2.28
6182.00,2.28
6181.00,2.28
6180.00,2.28
6179.00,2.28
6178.00,2.28
6177.00,2.28
6176.00,2.28
6175.00,2.28
6174.00,2.28
6173.00,2.28
6172.00,2.28
6171.00,2.28
6170.00,2.28
6169.00,2.28
6168.00,2.28
6167.00,2.28
6166.00,2.28
6165.00,2.28
6164.00,2.28
6163.00,2.27
6162.00,2.27
6161.00,2.27
6160.00,2.26
6159.00,2.26
6158.00,2.26
6157.00,2.26
6156.00,2.26
6155.00,2.25
6154.00,2.25
6153.00,2.25
6152.00,2.25
6151.00,2.25
6150.00,2.25
6149.00,2.25
6148.00,2.25
6147.00,2.25
6146.00,2.25
6145.00,2.26
6144.00,2.26
6143.00,2.26
6142.00,2.26
6141.00,2.26
6140.00,2.26
6139.00,2.26
6138.00,2.27
6137.00,2.27
6136.00,2.27
6135.00,2.28
6134.00,2.28
6133.00,2.29
6132.00,2.29
6131.00,2.30
6130.00,2.30
6129.00,2.31
6128.00,2.31
6127.00,2.32
6126.00,2.32
6125.00,2.32
6124.00,2.33
6123.00,2.33
6122.00,2.33
6121.00,2.33
6120.00,2.33
6119.00,2.34
6118.00,2.34
6117.00,2.34
6116.00,2.35
6115.00,2.35
6114.00,2.35
6113.00,2.36
6112.00,2.36
6111.00,2.37
6110.00,2.37
6109.00,2.37
6108.00,2.38
6107.00,2.38
6106.00,2.39
6105.00,2.39
6104.00,2.40
6103.00,2.40
6102.00,2.40
6101.00,2.40
6100.00,2.40
6099.00,2.41
6098.00,2.41
6097.00,2.41
6096.00,2.42
6095.00,2.42
6094.00,2.42
6093.00,2.42
6092.00,2.43
6091.00,2.43
6090.00,2.43
6089.00,2.43
6088.00,2.43
6087.00,2.43
6086.00,2.42
6085.00,2.42
6084.00,2.42
6083.00,2.42
6082.00,2.42
6081.00,2.42
6080.00,2.41
6079.00,2.41
6078.00,2.41
6077.00,2.41
6076.00,2.41
6075.00,2.41
6074.00,2.41
6073.00,2.41
6072.00,2.41
6071.00,2.41
6070.00,2.41
6069.00,2.41
6068.00,2.42
6067.00,2.42
6066.00,2.42
6065.00,2.42
6064.00,2.42
6063.00,2.43
6062.00,2.43
6061.00,2.43
6060.00,2.43
6059.00,2.44
6058.00,2.44
6057.00,2.44
6056.00,2.44
6055.00,2.44
6054.00,2.45
6053.00,2.45
6052.00,2.45
6051.00,2.45
6050.00,2.45
6049.00,2.45
6048.00,2.45
6047.00,2.45
6046.00,2.45
6045.00,2.45
6044.00,2.45
6043.00,2.45
6042.00,2.45
6041.00,2.45
6040.00,2.45
6039.00,2.45
6038.00,2.45
6037.00,2.45
6036.00,2.45
6035.00,2.44
6034.00,2.44
6033.00,2.44
6032.00,2.44
6031.00,2.44
6030.00,2.44
6029.00,2.44
6028.00,2.44
6027.00,2.44
6026.00,2.44
6025.00,2.44
6024.00,2.44
6023.00,2.45
6022.00,2.45
6021.00,2.45
6020.00,2.45
6019.00,2.45
6018.00,2.45
6017.00,2.45
6016.00,2.46
6015.00,2.46
6014.00,2.46
6013.00,2.46
6012.00,2.46
6011.00,2.47
6010.00,2.47
6009.00,2.47
6008.00,2.47
6007.00,2.47
6006.00,2.48
6005.00,2.48
6004.00,2.48
6003.00,2.48
6002.00,2.48
6001.00,2.48
6000.00,2.48
5999.00,2.48
5998.00,2.48
5997.00,2.48
5996.00,2.48
5995.00,2.48
5994.00,2.48
5993.00,2.48
5992.00,2.48
5991.00,2.48
5990.00,2.48
5989.00,2.48
5988.00,2.48
5987.00,2.48
5986.00,2.47
5985.00,2.47
5984.00,2.47
5983.00,2.48
5982.00,2.48
5981.00,2.48
5980.00,2.48
5979.00,2.48
5978.00,2.48
5977.00,2.48
5976.00,2.49
5975.00,2.49
5974.00,2.49
5973.00,2.49
5972.00,2.49
5971.00,2.49
5970.00,2.49
5969.00,2.49
5968.00,2.49
5967.00,2.49
5966.00,2.49
5965.00,2.49
5964.00,2.49
5963.00,2.49
5962.00,2.49
5961.00,2.48
5960.00,2.48
5959.00,2.48
5958.00,2.48
5957.00,2.47
5956.00,2.47
5955.00,2.46
5954.00,2.46
5953.00,2.45
5952.00,2.45
5951.00,2.44
5950.00,2.43
5949.00,2.43
5948.00,2.42
5947.00,2.41
5946.00,2.41
5945.00,2.40
5944.00,2.40
5943.00,2.39
5942.00,2.39
5941.00,2.38
5940.00,2.38
5939.00,2.37
5938.00,2.37
5937.00,2.36
5936.00,2.36
5935.00,2.36
5934.00,2.36
5933.00,2.35
5932.00,2.35
5931.00,2.35
5930.00,2.35
5929.00,2.35
5928.00,2.35
5927.00,2.35
5926.00,2.35
5925.00,2.36
5924.00,2.36
5923.00,2.36
5922.00,2.36
5921.00,2.37
5920.00,2.37
5919.00,2.37
5918.00,2.38
5917.00,2.38
5916.00,2.39
5915.00,2.39
5914.00,2.39
5913.00,2.40
5912.00,2.40
5911.00,2.40
5910.00,2.40
5909.00,2.40
5908.00,2.40
5907.00,2.40
5906.00,2.40
5905.00,2.40
5904.00,2.39
5903.00,2.39
5902.00,2.39
5901.00,2.39
5900.00,2.38
5899.00,2.38
5898.00,2.38
5897.00,2.38
5896.00,2.37
5895.00,2.37
5894.00,2.37
5893.00,2.37
5892.00,2.36
5891.00,2.36
5890.00,2.35
5889.00,2.35
5888.00,2.35
5887.00,2.34
5886.00,2.34
5885.00,2.34
5884.00,2.33
5883.00,2.33
5882.00,2.33
5881.00,2.33
5880.00,2.33
5879.00,2.33
5878.00,2.33
5877.00,2.34
5876.00,2.34
5875.00,2.34
5874.00,2.34
5873.00,2.34
5872.00,2.34
5871.00,2.34
5870.00,2.35
5869.00,2.35
5868.00,2.35
5867.00,2.35
5866.00,2.35
5865.00,2.35
5864.00,2.35
5863.00,2.36
5862.00,2.36
5861.00,2.36
5860.00,2.37
5859.00,2.37
5858.00,2.38
5857.00,2.38
5856.00,2.39
5855.00,2.40
5854.00,2.40
5853.00,2.41
5852.00,2.41
5851.00,2.42
5850.00,2.42
5849.00,2.43
5848.00,2.43
5847.00,2.44
5846.00,2.44
5845.00,2.44
5844.00,2.45
5843.00,2.45
5842.00,2.46
5841.00,2.46
5840.00,2.47
5839.00,2.47
5838.00,2.47
5837.00,2.48
5836.00,2.48
5835.00,2.48
5834.00,2.48
5833.00,2.48
5832.00,2.48
5831.00,2.47
5830.00,2.47
5829.00,2.47
5828.00,2.47
5827.00,2.46
5826.00,2.46
5825.00,2.45
5824.00,2.45
5823.00,2.44
5822.00,2.44
5821.00,2.44
5820.00,2.43
5819.00,2.43
5818.00,2.43
5817.00,2.42
5816.00,2.42
5815.00,2.41
5814.00,2.41
5813.00,2.41
5812.00,2.40
5811.00,2.40
5810.00,2.39
5809.00,2.39
5808.00,2.39
5807.00,2.38
5806.00,2.38
5805.00,2.38
5804.00,2.37
5803.00,2.37
5802.00,2.37
5801.00,2.37
5800.00,2.37
5799.00,2.36
5798.00,2.36
5797.00,2.36
5796.00,2.36
5795.00,2.36
5794.00,2.36
5793.00,2.36
5792.00,2.36
5791.00,2.36
5790.00,2.36
5789.00,2.36
5788.00,2.36
5787.00,2.36
5786.00,2.36
5785.00,2.36
5784.00,2.35
5783.00,2.35
5782.00,2.35
5781.00,2.35
5780.00,2.35
5779.00,2.35
5778.00,2.35
5777.00,2.35
5776.00,2.35
5775.00,2.35
5774.00,2.35
5773.00,2.35
5772.00,2.35
5771.00,2.35
5770.00,2.35
5769.00,2.35
5768.00,2.35
5767.00,2.34
5766.00,2.34
5765.00,2.34
5764.00,2.34
5763.00,2.33
5762.00,2.33
5761.00,2.33
5760.00,2.33
5759.00,2.33
5758.00,2.33
5757.00,2.33
5756.00,2.33
5755.00,2.33
5754.00,2.33
5753.00,2.34
5752.00,2.34
5751.00,2.34
5750.00,2.34
5749.00,2.34
5748.00,2.34
5747.00,2.34
5746.00,2.35
5745.00,2.35
5744.00,2.35
5743.00,2.35
5742.00,2.36
5741.00,2.36
5740.00,2.37
5739.00,2.37
5738.00,2.37
5737.00,2.38
5736.00,2.38
5735.00,2.38
5734.00,2.38
5733.00,2.39
5732.00,2.39
5731.00,2.39
5730.00,2.39
5729.00,2.40
5728.00,2.40
5727.00,2.40
5726.00,2.40
5725.00,2.40
5724.00,2.40
5723.00,2.40
5722.00,2.40
5721.00,2.40
5720.00,2.40
5719.00,2.40
5718.00,2.39
5717.00,2.39
5716.00,2.39
5715.00,2.38
5714.00,2.38
5713.00,2.38
5712.00,2.37
5711.00,2.37
5710.00,2.37
5709.00,2.36
5708.00,2.36
5707.00,2.35
5706.00,2.34
5705.00,2.34
5704.00,2.33
5703.00,2.32
5702.00,2.32
5701.00,2.31
5700.00,2.30
5699.00,2.30
5698.00,2.29
5697.00,2.28
5696.00,2.28
5695.00,2.27
5694.00,2.27
5693.00,2.26
5692.00,2.26
5691.00,2.25
5690.00,2.25
5689.00,2.25
5688.00,2.24
5687.00,2.24
5686.00,2.24
5685.00,2.23
5684.00,2.23
5683.00,2.23
5682.00,2.23
5681.00,2.23
5680.00,2.22
5679.00,2.23
5678.00,2.23
5677.00,2.23
5676.00,2.23
5675.00,2.23
5674.00,2.23
5673.00,2.23
5672.00,2.24
5671.00,2.24
5670.00,2.24
5669.00,2.25
5668.00,2.25
5667.00,2.26
5666.00,2.26
5665.00,2.27
5664.00,2.27
5663.00,2.28
5662.00,2.28
5661.00,2.29
5660.00,2.29
5659.00,2.30
5658.00,2.31
5657.00,2.31
5656.00,2.32
5655.00,2.32
5654.00,2.33
5653.00,2.33
5652.00,2.33
5651.00,2.34
5650.00,2.34
5649.00,2.34
5648.00,2.34
5647.00,2.34
5646.00,2.34
5645.00,2.34
5644.00,2.34
5643.00,2.34
5642.00,2.34
5641.00,2.34
5640.00,2.34
5639.00,2.34
5638.00,2.34
5637.00,2.33
5636.00,2.33
5635.00,2.33
5634.00,2.32
5633.00,2.32
5632.00,2.32
5631.00,2.31
5630.00,2.31
5629.00,2.31
5628.00,2.30
5627.00,2.30
5626.00,2.30
5625.00,2.30
5624.00,2.30
5623.00,2.30
5622.00,2.30
5621.00,2.30
5620.00,2.31
5619.00,2.31
5618.00,2.31
5617.00,2.31
5616.00,2.31
5615.00,2.32
5614.00,2.32
5613.00,2.32
5612.00,2.32
5611.00,2.32
5610.00,2.33
5609.00,2.33
5608.00,2.33
5607.00,2.34
5606.00,2.34
5605.00,2.35
5604.00,2.35
5603.00,2.36
5602.00,2.36
5601.00,2.37
5600.00,2.37
5599.00,2.37
5598.00,2.38
5597.00,2.38
5596.00,2.38
5595.00,2.38
5594.00,2.38
5593.00,2.38
5592.00,2.38
5591.00,2.38
5590.00,2.38
5589.00,2.38
5588.00,2.38
5587.00,2.39
5586.00,2.39
5585.00,2.39
5584.00,2.39
5583.00,2.38
5582.00,2.38
5581.00,2.38
5580.00,2.38
5579.00,2.38
5578.00,2.38
5577.00,2.38
5576.00,2.38
5575.00,2.38
5574.00,2.38
5573.00,2.38
5572.00,2.38
5571.00,2.39
5570.00,2.39
5569.00,2.39
5568.00,2.39
5567.00,2.40
5566.00,2.40
5565.00,2.40
5564.00,2.41
5563.00,2.41
5562.00,2.41
5561.00,2.42
5560.00,2.42
5559.00,2.43
5558.00,2.43
5557.00,2.43
5556.00,2.44
5555.00,2.44
5554.00,2.45
5553.00,2.45
5552.00,2.45
5551.00,2.46
5550.00,2.46
5549.00,2.46
5548.00,2.46
5547.00,2.47
5546.00,2.47
5545.00,2.47
5544.00,2.47
5543.00,2.47
5542.00,2.47
5541.00,2.47
5540.00,2.47
5539.00,2.47
5538.00,2.47
5537.00,2.47
5536.00,2.48
5535.00,2.48
5534.00,2.48
5533.00,2.48
5532.00,2.48
5531.00,2.48
5530.00,2.48
5529.00,2.49
5528.00,2.49
5527.00,2.49
5526.00,2.49
5525.00,2.50
5524.00,2.50
5523.00,2.51
5522.00,2.51
5521.00,2.51
5520.00,2.52
5519.00,2.52
5518.00,2.53
5517.00,2.53
5516.00,2.54
5515.00,2.54
5514.00,2.54
5513.00,2.55
5512.00,2.55
5511.00,2.56
5510.00,2.56
5509.00,2.56
5508.00,2.57
5507.00,2.57
5506.00,2.57
5505.00,2.58
5504.00,2.58
5503.00,2.58
5502.00,2.59
5501.00,2.59
5500.00,2.59
5499.00,2.60
5498.00,2.60
5497.00,2.60
5496.00,2.60
5495.00,2.60
5494.00,2.61
5493.00,2.61
5492.00,2.61
5491.00,2.61
5490.00,2.61
5489.00,2.62
5488.00,2.62
5487.00,2.62
5486.00,2.62
5485.00,2.62
5484.00,2.63
5483.00,2.63
5482.00,2.63
5481.00,2.63
5480.00,2.63
5479.00,2.63
5478.00,2.63
5477.00,2.63
5476.00,2.63
5475.00,2.63
5474.00,2.62
5473.00,2.62
5472.00,2.62
5471.00,2.62
5470.00,2.62
5469.00,2.62
5468.00,2.62
5467.00,2.62
5466.00,2.62
5465.00,2.62
5464.00,2.62
5463.00,2.62
5462.00,2.62
5461.00,2.62
5460.00,2.62
5459.00,2.62
5458.00,2.62
5457.00,2.63
5456.00,2.63
5455.00,2.63
5454.00,2.64
5453.00,2.64
5452.00,2.65
5451.00,2.65
5450.00,2.66
5449.00,2.66
5448.00,2.67
5447.00,2.67
5446.00,2.68
5445.00,2.69
5444.00,2.69
5443.00,2.70
5442.00,2.70
5441.00,2.70
5440.00,2.71
5439.00,2.71
5438.00,2.71
5437.00,2.71
5436.00,2.71
5435.00,2.71
5434.00,2.71
5433.00,2.71
5432.00,2.71
5431.00,2.71
5430.00,2.70
5429.00,2.70
5428.00,2.70
5427.00,2.69
5426.00,2.69
5425.00,2.68
5424.00,2.68
5423.00,2.67
5422.00,2.66
5421.00,2.65
5420.00,2.64
5419.00,2.64
5418.00,2.63
5417.00,2.62
5416.00,2.61
5415.00,2.60
5414.00,2.59
5413.00,2.58
5412.00,2.57
5411.00,2.56
5410.00,2.55
5409.00,2.54
5408.00,2.53
5407.00,2.52
5406.00,2.51
5405.00,2.51
5404.00,2.50
5403.00,2.49
5402.00,2.48
5401.00,2.47
5400.00,2.46
5399.00,2.46
5398.00,2.45
5397.00,2.44
5396.00,2.43
5395.00,2.43
5394.00,2.42
5393.00,2.41
5392.00,2.41
5391.00,2.40
5390.00,2.40
5389.00,2.40
5388.00,2.39
5387.00,2.39
5386.00,2.39
5385.00,2.39
5384.00,2.38
5383.00,2.38
5382.00,2.38
5381.00,2.37
5380.00,2.37
5379.00,2.36
5378.00,2.36
5377.00,2.35
5376.00,2.35
5375.00,2.35
5374.00,2.35
5373.00,2.34
5372.00,2.34
5371.00,2.34
5370.00,2.33
5369.00,2.33
5368.00,2.33
5367.00,2.32
5366.00,2.32
5365.00,2.32
5364.00,2.31
5363.00,2.31
5362.00,2.30
5361.00,2.29
5360.00,2.29
5359.00,2.28
5358.00,2.27
5357.00,2.26
5356.00,2.25
5355.00,2.24
5354.00,2.23
5353.00,2.22
5352.00,2.21
5351.00,2.20
5350.00,2.19
5349.00,2.17
5348.00,2.16
5347.00,2.14
5346.00,2.12
5345.00,2.11
5344.00,2.09
5343.00,2.07
5342.00,2.05
5341.00,2.03
5340.00,2.01
5339.00,1.99
5338.00,1.97
5337.00,1.94
5336.00,1.92
5335.00,1.90
5334.00,1.88
5333.00,1.85
5332.00,1.83
5331.00,1.81
5330.00,1.78
5329.00,1.76
5328.00,1.74
5327.00,1.72
5326.00,1.70
5325.00,1.68
5324.00,1.66
5323.00,1.64
5322.00,1.62
5321.00,1.60
5320.00,1.58
5319.00,1.56
5318.00,1.54
5317.00,1.53
5316.00,1.51
5315.00,1.49
5314.00,1.48
5313.00,1.46
5312.00,1.45
5311.00,1.44
5310.00,1.42
5309.00,1.41
5308.00,1.39
5307.00,1.38
5306.00,1.37
5305.00,1.36
5304.00,1.35
5303.00,1.34
5302.00,1.32
5301.00,1.32
5300.00,1.31
5299.00,1.30
5298.00,1.29
5297.00,1.28
5296.00,1.27
5295.00,1.27
5294.00,1.26
5293.00,1.25
5292.00,1.25
5291.00,1.24
5290.00,1.24
5289.00,1.23
5288.00,1.23
5287.00,1.23
5286.00,1.23
5285.00,1.23
5284.00,1.23
5283.00,1.23
5282.00,1.23
5281.00,1.23
5280.00,1.23
5279.00,1.23
5278.00,1.23
5277.00,1.23
5276.00,1.24
5275.00,1.24
5274.00,1.24
5273.00,1.24
5272.00,1.24
5271.00,1.24
5270.00,1.24
5269.00,1.25
5268.00,1.25
5267.00,1.25
5266.00,1.25
5265.00,1.25
5264.00,1.25
5263.00,1.25
5262.00,1.25
5261.00,1.25
5260.00,1.25
5259.00,1.25
5258.00,1.25
5257.00,1.24
5256.00,1.24
5255.00,1.24
5254.00,1.23
5253.00,1.23
5252.00,1.22
5251.00,1.22
5250.00,1.22
5249.00,1.21
5248.00,1.21
5247.00,1.21
5246.00,1.20
5245.00,1.20
5244.00,1.19
5243.00,1.19
5242.00,1.18
5241.00,1.18
5240.00,1.17
5239.00,1.17
5238.00,1.17
5237.00,1.16
5236.00,1.16
5235.00,1.16
5234.00,1.16
5233.00,1.16
5232.00,1.16
5231.00,1.16
5230.00,1.16
5229.00,1.16
5228.00,1.17
5227.00,1.17
5226.00,1.17
5225.00,1.17
5224.00,1.17
5223.00,1.17
5222.00,1.17
5221.00,1.17
5220.00,1.18
5219.00,1.18
5218.00,1.18
5217.00,1.18
5216.00,1.18
5215.00,1.19
5214.00,1.19
5213.00,1.19
5212.00,1.19
5211.00,1.19
5210.00,1.19
5209.00,1.18
5208.00,1.18
5207.00,1.18
5206.00,1.17
5205.00,1.17
5204.00,1.17
5203.00,1.16
5202.00,1.16
5201.00,1.15
5200.00,1.15
5199.00,1.15
5198.00,1.14
5197.00,1.14
5196.00,1.14
5195.00,1.14
5194.00,1.14
5193.00,1.13
5192.00,1.13
5191.00,1.13
5190.00,1.13
5189.00,1.13
5188.00,1.13
5187.00,1.13
5186.00,1.13
5185.00,1.13
5184.00,1.14
5183.00,1.14
5182.00,1.14
5181.00,1.15
5180.00,1.15
5179.00,1.16
5178.00,1.16
5177.00,1.17
5176.00,1.17
5175.00,1.17
5174.00,1.18
5173.00,1.18
5172.00,1.19
5171.00,1.19
5170.00,1.19
5169.00,1.20
5168.00,1.20
5167.00,1.20
5166.00,1.21
5165.00,1.21
5164.00,1.21
5163.00,1.21
5162.00,1.22
5161.00,1.22
5160.00,1.22
5159.00,1.22
5158.00,1.21
5157.00,1.21
5156.00,1.21
5155.00,1.21
5154.00,1.20
5153.00,1.20
5152.00,1.20
5151.00,1.19
5150.00,1.19
5149.00,1.19
5148.00,1.18
5147.00,1.18
5146.00,1.18
5145.00,1.18
5144.00,1.17
5143.00,1.17
5142.00,1.17
5141.00,1.17
5140.00,1.16
5139.00,1.16
5138.00,1.16
5137.00,1.16
5136.00,1.15
5135.00,1.15
5134.00,1.15
5133.00,1.15
5132.00,1.15
5131.00,1.15
5130.00,1.15
5129.00,1.15
5128.00,1.15
5127.00,1.15
5126.00,1.16
5125.00,1.16
5124.00,1.16
5123.00,1.16
5122.00,1.16
5121.00,1.16
5120.00,1.16
5119.00,1.16
5118.00,1.16
5117.00,1.16
5116.00,1.16
5115.00,1.16
5114.00,1.17
5113.00,1.17
5112.00,1.17
5111.00,1.17
5110.00,1.17
5109.00,1.17
5108.00,1.17
5107.00,1.17
5106.00,1.17
5105.00,1.17
5104.00,1.17
5103.00,1.17
5102.00,1.17
5101.00,1.17
5100.00,1.17
5099.00,1.17
5098.00,1.17
5097.00,1.17
5096.00,1.17
5095.00,1.17
5094.00,1.17
5093.00,1.18
5092.00,1.18
5091.00,1.18
5090.00,1.19
5089.00,1.19
5088.00,1.19
5087.00,1.19
5086.00,1.20
5085.00,1.20
5084.00,1.20
5083.00,1.20
5082.00,1.20
5081.00,1.21
5080.00,1.21
5079.00,1.21
5078.00,1.21
5077.00,1.21
5076.00,1.22
5075.00,1.22
5074.00,1.22
5073.00,1.23
5072.00,1.23
5071.00,1.23
5070.00,1.23
5069.00,1.23
5068.00,1.23
5067.00,1.23
5066.00,1.23
5065.00,1.23
5064.00,1.23
5063.00,1.24
5062.00,1.24
5061.00,1.24
5060.00,1.24
5059.00,1.24
5058.00,1.24
5057.00,1.25
5056.00,1.25
5055.00,1.25
5054.00,1.26
5053.00,1.26
5052.00,1.26
5051.00,1.26
5050.00,1.26
5049.00,1.26
5048.00,1.26
5047.00,1.26
5046.00,1.26
5045.00,1.26
5044.00,1.26
5043.00,1.27
5042.00,1.27
5041.00,1.27
5040.00,1.27
5039.00,1.27
5038.00,1.27
5037.00,1.27
5036.00,1.27
5035.00,1.27
5034.00,1.27
5033.00,1.27
5032.00,1.27
5031.00,1.27
5030.00,1.27
5029.00,1.27
5028.00,1.27
5027.00,1.27
5026.00,1.26
5025.00,1.26
5024.00,1.26
5023.00,1.26
5022.00,1.27
5021.00,1.27
5020.00,1.27
5019.00,1.27
5018.00,1.27
5017.00,1.27
5016.00,1.28
5015.00,1.28
5014.00,1.28
5013.00,1.28
5012.00,1.28
5011.00,1.28
5010.00,1.28
5009.00,1.28
5008.00,1.28
5007.00,1.28
5006.00,1.28
5005.00,1.28
5004.00,1.28
5003.00,1.28
5002.00,1.28
5001.00,1.28
5000.00,1.28
4999.00,1.28
4998.00,1.28
4997.00,1.28
4996.00,1.28
4995.00,1.28
4994.00,1.27
4993.00,1.27
4992.00,1.27
4991.00,1.27
4990.00,1.27
4989.00,1.27
4988.00,1.27
4987.00,1.27
4986.00,1.27
4985.00,1.27
4984.00,1.27
4983.00,1.28
4982.00,1.28
4981.00,1.28
4980.00,1.29
4979.00,1.29
4978.00,1.29
4977.00,1.30
4976.00,1.30
4975.00,1.31
4974.00,1.31
4973.00,1.32
4972.00,1.32
4971.00,1.33
4970.00,1.34
4969.00,1.34
4968.00,1.35
4967.00,1.36
4966.00,1.36
4965.00,1.37
4964.00,1.38
4963.00,1.38
4962.00,1.39
4961.00,1.40
4960.00,1.40
4959.00,1.41
4958.00,1.41
4957.00,1.42
4956.00,1.43
4955.00,1.43
4954.00,1.44
4953.00,1.45
4952.00,1.45
4951.00,1.46
4950.00,1.46
4949.00,1.47
4948.00,1.47
4947.00,1.47
4946.00,1.48
4945.00,1.48
4944.00,1.48
4943.00,1.48
4942.00,1.49
4941.00,1.49
4940.00,1.49
4939.00,1.49
4938.00,1.48
4937.00,1.48
4936.00,1.48
4935.00,1.48
4934.00,1.47
4933.00,1.47
4932.00,1.47
4931.00,1.46
4930.00,1.46
4929.00,1.45
4928.00,1.45
4927.00,1.44
4926.00,1.44
4925.00,1.43
4924.00,1.42
4923.00,1.42
4922.00,1.41
4921.00,1.41
4920.00,1.40
4919.00,1.40
4918.00,1.40
4917.00,1.39
4916.00,1.39
4915.00,1.39
4914.00,1.39
4913.00,1.39
4912.00,1.38
4911.00,1.39
4910.00,1.39
4909.00,1.39
4908.00,1.39
4907.00,1.39
4906.00,1.39
4905.00,1.39
4904.00,1.40
4903.00,1.40
4902.00,1.40
4901.00,1.40
4900.00,1.41
4899.00,1.41
4898.00,1.41
4897.00,1.42
4896.00,1.42
4895.00,1.43
4894.00,1.43
4893.00,1.44
4892.00,1.44
4891.00,1.45
4890.00,1.45
4889.00,1.45
4888.00,1.45
4887.00,1.46
4886.00,1.46
4885.00,1.46
4884.00,1.46
4883.00,1.47
4882.00,1.47
4881.00,1.47
4880.00,1.47
4879.00,1.48
4878.00,1.48
4877.00,1.48
4876.00,1.49
4875.00,1.49
4874.00,1.50
4873.00,1.50
4872.00,1.51
4871.00,1.51
4870.00,1.52
4869.00,1.52
4868.00,1.53
4867.00,1.53
4866.00,1.54
4865.00,1.54
4864.00,1.55
4863.00,1.56
4862.00,1.57
4861.00,1.57
4860.00,1.58
4859.00,1.59
4858.00,1.59
4857.00,1.60
4856.00,1.61
4855.00,1.61
4854.00,1.62
4853.00,1.63
4852.00,1.63
4851.00,1.64
4850.00,1.65
4849.00,1.65
4848.00,1.65
4847.00,1.66
4846.00,1.66
4845.00,1.66
4844.00,1.66
4843.00,1.67
4842.00,1.67
4841.00,1.67
4840.00,1.67
4839.00,1.66
4838.00,1.66
4837.00,1.66
4836.00,1.66
4835.00,1.65
4834.00,1.65
4833.00,1.65
4832.00,1.64
4831.00,1.64
4830.00,1.63
4829.00,1.63
4828.00,1.63
4827.00,1.62
4826.00,1.62
4825.00,1.62
4824.00,1.62
4823.00,1.62
4822.00,1.61
4821.00,1.61
4820.00,1.61
4819.00,1.61
4818.00,1.61
4817.00,1.61
4816.00,1.61
4815.00,1.62
4814.00,1.62
4813.00,1.62
4812.00,1.62
4811.00,1.63
4810.00,1.63
4809.00,1.64
4808.00,1.64
4807.00,1.64
4806.00,1.65
4805.00,1.65
4804.00,1.65
4803.00,1.66
4802.00,1.66
4801.00,1.66
4800.00,1.66
4799.00,1.66
4798.00,1.66
4797.00,1.66
4796.00,1.66
4795.00,1.66
4794.00,1.66
4793.00,1.66
4792.00,1.66
4791.00,1.66
4790.00,1.67
4789.00,1.67
4788.00,1.67
4787.00,1.67
4786.00,1.67
4785.00,1.67
4784.00,1.67
4783.00,1.68
4782.00,1.68
4781.00,1.68
4780.00,1.69
4779.00,1.69
4778.00,1.70
4777.00,1.70
4776.00,1.71
4775.00,1.72
4774.00,1.73
4773.00,1.74
4772.00,1.75
4771.00,1.76
4770.00,1.77
4769.00,1.78
4768.00,1.79
4767.00,1.80
4766.00,1.81
4765.00,1.82
4764.00,1.82
4763.00,1.83
4762.00,1.84
4761.00,1.85
4760.00,1.85
4759.00,1.86
4758.00,1.86
4757.00,1.87
4756.00,1.87
4755.00,1.88
4754.00,1.88
4753.00,1.88
4752.00,1.88
4751.00,1.89
4750.00,1.89
4749.00,1.89
4748.00,1.89
4747.00,1.89
4746.00,1.89
4745.00,1.90
4744.00,1.90
4743.00,1.90
4742.00,1.90
4741.00,1.91
4740.00,1.91
4739.00,1.91
4738.00,1.92
4737.00,1.92
4736.00,1.93
4735.00,1.93
4734.00,1.94
4733.00,1.95
4732.00,1.95
4731.00,1.96
4730.00,1.97
4729.00,1.97
4728.00,1.98
4727.00,1.99
4726.00,1.99
4725.00,2.00
4724.00,2.00
4723.00,2.01
4722.00,2.01
4721.00,2.01
4720.00,2.02
4719.00,2.02
4718.00,2.02
4717.00,2.02
4716.00,2.02
4715.00,2.02
4714.00,2.03
4713.00,2.03
4712.00,2.03
4711.00,2.03
4710.00,2.03
4709.00,2.03
4708.00,2.03
4707.00,2.03
4706.00,2.03
4705.00,2.02
4704.00,2.02
4703.00,2.02
4702.00,2.02
4701.00,2.03
4700.00,2.03
4699.00,2.03
4698.00,2.03
4697.00,2.04
4696.00,2.04
4695.00,2.04
4694.00,2.04
4693.00,2.05
4692.00,2.05
4691.00,2.05
4690.00,2.06
4689.00,2.06
4688.00,2.06
4687.00,2.06
4686.00,2.06
4685.00,2.07
4684.00,2.07
4683.00,2.07
4682.00,2.07
4681.00,2.07
4680.00,2.07
4679.00,2.08
4678.00,2.08
4677.00,2.08
4676.00,2.08
4675.00,2.08
4674.00,2.08
4673.00,2.08
4672.00,2.08
4671.00,2.08
4670.00,2.08
4669.00,2.08
4668.00,2.08
4667.00,2.08
4666.00,2.09
4665.00,2.09
4664.00,2.09
4663.00,2.10
4662.00,2.10
4661.00,2.11
4660.00,2.12
4659.00,2.12
4658.00,2.13
4657.00,2.14
4656.00,2.14
4655.00,2.15
4654.00,2.15
4653.00,2.16
4652.00,2.17
4651.00,2.18
4650.00,2.18
4649.00,2.19
4648.00,2.20
4647.00,2.21
4646.00,2.22
4645.00,2.23
4644.00,2.24
4643.00,2.25
4642.00,2.26
4641.00,2.27
4640.00,2.28
4639.00,2.28
4638.00,2.29
4637.00,2.29
4636.00,2.30
4635.00,2.30
4634.00,2.30
4633.00,2.30
4632.00,2.31
4631.00,2.31
4630.00,2.32
4629.00,2.32
4628.00,2.33
4627.00,2.33
4626.00,2.33
4625.00,2.34
4624.00,2.34
4623.00,2.34
4622.00,2.34
4621.00,2.34
4620.00,2.34
4619.00,2.34
4618.00,2.34
4617.00,2.34
4616.00,2.34
4615.00,2.34
4614.00,2.34
4613.00,2.34
4612.00,2.34
4611.00,2.34
4610.00,2.34
4609.00,2.35
4608.00,2.35
4607.00,2.35
4606.00,2.35
4605.00,2.35
4604.00,2.35
4603.00,2.35
4602.00,2.35
4601.00,2.35
4600.00,2.35
4599.00,2.35
4598.00,2.35
4597.00,2.35
4596.00,2.35
4595.00,2.36
4594.00,2.36
4593.00,2.36
4592.00,2.36
4591.00,2.36
4590.00,2.36
4589.00,2.37
4588.00,2.37
4587.00,2.37
4586.00,2.37
4585.00,2.37
4584.00,2.38
4583.00,2.38
4582.00,2.38
4581.00,2.39
4580.00,2.39
4579.00,2.40
4578.00,2.40
4577.00,2.41
4576.00,2.41
4575.00,2.41
4574.00,2.42
4573.00,2.42
4572.00,2.42
4571.00,2.42
4570.00,2.43
4569.00,2.43
4568.00,2.44
4567.00,2.44
4566.00,2.45
4565.00,2.45
4564.00,2.46
4563.00,2.46
4562.00,2.47
4561.00,2.48
4560.00,2.48
4559.00,2.49
4558.00,2.49
4557.00,2.50
4556.00,2.50
4555.00,2.50
4554.00,2.50
4553.00,2.50
4552.00,2.50
4551.00,2.50
4550.00,2.50
4549.00,2.50
4548.00,2.50
4547.00,2.50
4546.00,2.50
4545.00,2.50
4544.00,2.50
4543.00,2.50
4542.00,2.50
4541.00,2.50
4540.00,2.49
4539.00,2.49
4538.00,2.48
4537.00,2.48
4536.00,2.48
4535.00,2.47
4534.00,2.47
4533.00,2.46
4532.00,2.46
4531.00,2.45
4530.00,2.45
4529.00,2.45
4528.00,2.45
4527.00,2.45
4526.00,2.45
4525.00,2.45
4524.00,2.45
4523.00,2.45
4522.00,2.45
4521.00,2.45
4520.00,2.46
4519.00,2.46
4518.00,2.46
4517.00,2.46
4516.00,2.47
4515.00,2.47
4514.00,2.47
4513.00,2.48
4512.00,2.48
4511.00,2.48
4510.00,2.49
4509.00,2.49
4508.00,2.49
4507.00,2.50
4506.00,2.50
4505.00,2.50
4504.00,2.51
4503.00,2.51
4502.00,2.51
4501.00,2.51
4500.00,2.51
4499.00,2.51
4498.00,2.51
4497.00,2.51
4496.00,2.51
4495.00,2.51
4494.00,2.50
4493.00,2.50
4492.00,2.50
4491.00,2.50
4490.00,2.49
4489.00,2.49
4488.00,2.48
4487.00,2.48
4486.00,2.48
4485.00,2.47
4484.00,2.47
4483.00,2.47
4482.00,2.46
4481.00,2.46
4480.00,2.45
4479.00,2.45
4478.00,2.44
4477.00,2.44
4476.00,2.43
4475.00,2.43
4474.00,2.43
4473.00,2.42
4472.00,2.42
4471.00,2.42
4470.00,2.42
4469.00,2.41
4468.00,2.41
4467.00,2.41
4466.00,2.41
4465.00,2.41
4464.00,2.41
4463.00,2.41
4462.00,2.41
4461.00,2.41
4460.00,2.41
4459.00,2.41
4458.00,2.40
4457.00,2.40
4456.00,2.39
4455.00,2.39
4454.00,2.38
4453.00,2.38
4452.00,2.37
4451.00,2.36
4450.00,2.35
4449.00,2.35
4448.00,2.34
4447.00,2.33
4446.00,2.32
4445.00,2.31
4444.00,2.30
4443.00,2.29
4442.00,2.27
4441.00,2.26
4440.00,2.25
4439.00,2.24
4438.00,2.22
4437.00,2.21
4436.00,2.20
4435.00,2.18
4434.00,2.17
4433.00,2.16
4432.00,2.15
4431.00,2.14
4430.00,2.13
4429.00,2.12
4428.00,2.12
4427.00,2.11
4426.00,2.10
4425.00,2.09
4424.00,2.09
4423.00,2.08
4422.00,2.07
4421.00,2.06
4420.00,2.06
4419.00,2.05
4418.00,2.05
4417.00,2.04
4416.00,2.03
4415.00,2.03
4414.00,2.02
4413.00,2.02
4412.00,2.01
4411.00,2.00
4410.00,2.00
4409.00,2.00
4408.00,1.99
4407.00,1.99
4406.00,1.98
4405.00,1.98
4404.00,1.97
4403.00,1.97
4402.00,1.97
4401.00,1.96
4400.00,1.96
4399.00,1.96
4398.00,1.95
4397.00,1.95
4396.00,1.95
4395.00,1.95
4394.00,1.95
4393.00,1.95
4392.00,1.95
4391.00,1.96
4390.00,1.96
4389.00,1.96
4388.00,1.97
4387.00,1.97
4386.00,1.98
4385.00,1.99
4384.00,1.99
4383.00,2.00
4382.00,2.00
4381.00,2.01
4380.00,2.01
4379.00,2.02
4378.00,2.02
4377.00,2.03
4376.00,2.03
4375.00,2.04
4374.00,2.05
4373.00,2.06
4372.00,2.06
4371.00,2.07
4370.00,2.08
4369.00,2.08
4368.00,2.09
4367.00,2.09
4366.00,2.09
4365.00,2.10
4364.00,2.10
4363.00,2.10
4362.00,2.10
4361.00,2.10
4360.00,2.09
4359.00,2.09
4358.00,2.09
4357.00,2.08
4356.00,2.08
4355.00,2.08
4354.00,2.08
4353.00,2.08
4352.00,2.08
4351.00,2.07
4350.00,2.07
4349.00,2.07
4348.00,2.07
4347.00,2.07
4346.00,2.07
4345.00,2.07
4344.00,2.07
4343.00,2.07
4342.00,2.08
4341.00,2.08
4340.00,2.08
4339.00,2.08
4338.00,2.09
4337.00,2.09
4336.00,2.10
4335.00,2.10
4334.00,2.11
4333.00,2.12
4332.00,2.13
4331.00,2.13
4330.00,2.14
4329.00,2.15
4328.00,2.15
4327.00,2.16
4326.00,2.16
4325.00,2.17
4324.00,2.17
4323.00,2.17
4322.00,2.18
4321.00,2.18
4320.00,2.19
4319.00,2.19
4318.00,2.19
4317.00,2.20
4316.00,2.20
4315.00,2.20
4314.00,2.20
4313.00,2.21
4312.00,2.21
4311.00,2.21
4310.00,2.21
4309.00,2.21
4308.00,2.22
4307.00,2.22
4306.00,2.22
4305.00,2.22
4304.00,2.22
4303.00,2.22
4302.00,2.22
4301.00,2.23
4300.00,2.23
4299.00,2.23
4298.00,2.24
4297.00,2.24
4296.00,2.24
4295.00,2.25
4294.00,2.25
4293.00,2.25
4292.00,2.24
4291.00,2.24
4290.00,2.24
4289.00,2.24
4288.00,2.24
4287.00,2.23
4286.00,2.23
4285.00,2.23
4284.00,2.23
4283.00,2.23
4282.00,2.22
4281.00,2.22
4280.00,2.22
4279.00,2.22
4278.00,2.22
4277.00,2.21
4276.00,2.21
4275.00,2.21
4274.00,2.21
4273.00,2.20
4272.00,2.20
4271.00,2.20
4270.00,2.20
4269.00,2.19
4268.00,2.19
4267.00,2.20
4266.00,2.20
4265.00,2.20
4264.00,2.20
4263.00,2.20
4262.00,2.21
4261.00,2.21
4260.00,2.21
4259.00,2.21
4258.00,2.21
4257.00,2.21
4256.00,2.22
4255.00,2.22
4254.00,2.22
4253.00,2.23
4252.00,2.23
4251.00,2.24
4250.00,2.24
4249.00,2.24
4248.00,2.25
4247.00,2.25
4246.00,2.25
4245.00,2.25
4244.00,2.25
4243.00,2.25
4242.00,2.25
4241.00,2.25
4240.00,2.25
4239.00,2.24
4238.00,2.24
4237.00,2.24
4236.00,2.24
4235.00,2.23
4234.00,2.23
4233.00,2.23
4232.00,2.23
4231.00,2.23
4230.00,2.23
4229.00,2.22
4228.00,2.21
4227.00,2.21
4226.00,2.20
4225.00,2.19
4224.00,2.18
4223.00,2.17
4222.00,2.16
4221.00,2.15
4220.00,2.14
4219.00,2.13
4218.00,2.12
4217.00,2.12
4216.00,2.11
4215.00,2.10
4214.00,2.10
4213.00,2.09
4212.00,2.08
4211.00,2.08
4210.00,2.07
4209.00,2.06
4208.00,2.06
4207.00,2.05
4206.00,2.04
4205.00,2.03
4204.00,2.03
4203.00,2.02
4202.00,2.02
4201.00,2.02
4200.00,2.02
4199.00,2.02
4198.00,2.02
4197.00,2.02
4196.00,2.03
4195.00,2.03
4194.00,2.03
4193.00,2.04
4192.00,2.04
4191.00,2.04
4190.00,2.05
4189.00,2.05
4188.00,2.05
4187.00,2.06
4186.00,2.06
4185.00,2.07
4184.00,2.07
4183.00,2.08
4182.00,2.08
4181.00,2.09
4180.00,2.10
4179.00,2.11
4178.00,2.12
4177.00,2.12
4176.00,2.13
4175.00,2.14
4174.00,2.14
4173.00,2.15
4172.00,2.16
4171.00,2.17
4170.00,2.17
4169.00,2.18
4168.00,2.18
4167.00,2.19
4166.00,2.20
4165.00,2.20
4164.00,2.21
4163.00,2.21
4162.00,2.22
4161.00,2.22
4160.00,2.23
4159.00,2.23
4158.00,2.24
4157.00,2.24
4156.00,2.24
4155.00,2.24
4154.00,2.24
4153.00,2.24
4152.00,2.24
4151.00,2.23
4150.00,2.23
4149.00,2.22
4148.00,2.21
4147.00,2.20
4146.00,2.19
4145.00,2.18
4144.00,2.17
4143.00,2.15
4142.00,2.14
4141.00,2.13
4140.00,2.11
4139.00,2.10
4138.00,2.08
4137.00,2.07
4136.00,2.06
4135.00,2.04
4134.00,2.03
4133.00,2.02
4132.00,2.00
4131.00,1.99
4130.00,1.98
4129.00,1.96
4128.00,1.96
4127.00,1.95
4126.00,1.94
4125.00,1.94
4124.00,1.94
4123.00,1.94
4122.00,1.94
4121.00,1.94
4120.00,1.94
4119.00,1.94
4118.00,1.94
4117.00,1.94
4116.00,1.95
4115.00,1.95
4114.00,1.96
4113.00,1.97
4112.00,1.97
4111.00,1.98
4110.00,1.99
4109.00,1.99
4108.00,2.00
4107.00,2.00
4106.00,2.01
4105.00,2.01
4104.00,2.02
4103.00,2.03
4102.00,2.03
4101.00,2.04
4100.00,2.04
4099.00,2.05
4098.00,2.05
4097.00,2.05
4096.00,2.05
4095.00,2.05
4094.00,2.06
4093.00,2.06
4092.00,2.07
4091.00,2.08
4090.00,2.08
4089.00,2.09
4088.00,2.09
4087.00,2.10
4086.00,2.10
4085.00,2.11
4084.00,2.11
4083.00,2.12
4082.00,2.12
4081.00,2.13
4080.00,2.13
4079.00,2.14
4078.00,2.14
4077.00,2.14
4076.00,2.15
4075.00,2.15
4074.00,2.15
4073.00,2.16
4072.00,2.16
4071.00,2.17
4070.00,2.18
4069.00,2.18
4068.00,2.19
4067.00,2.19
4066.00,2.19
4065.00,2.19
4064.00,2.19
4063.00,2.19
4062.00,2.19
4061.00,2.20
4060.00,2.20
4059.00,2.20
4058.00,2.20
4057.00,2.20
4056.00,2.21
4055.00,2.21
4054.00,2.21
4053.00,2.21
4052.00,2.21
4051.00,2.21
4050.00,2.21
4049.00,2.22
4048.00,2.22
4047.00,2.22
4046.00,2.22
4045.00,2.22
4044.00,2.22
4043.00,2.22
4042.00,2.21
4041.00,2.21
4040.00,2.21
4039.00,2.20
4038.00,2.20
4037.00,2.19
4036.00,2.19
4035.00,2.18
4034.00,2.17
4033.00,2.16
4032.00,2.15
4031.00,2.14
4030.00,2.14
4029.00,2.13
4028.00,2.12
4027.00,2.12
4026.00,2.11
4025.00,2.11
4024.00,2.11
4023.00,2.11
4022.00,2.12
4021.00,2.12
4020.00,2.13
4019.00,2.14
4018.00,2.15
4017.00,2.17
4016.00,2.19
4015.00,2.21
4014.00,2.24
4013.00,2.27
4012.00,2.31
4011.00,2.35
4010.00,2.39
4009.00,2.44
4008.00,2.49
4007.00,2.55
4006.00,2.60
4005.00,2.66
4004.00,2.72
4003.00,2.79
4002.00,2.85
4001.00,2.92
4000.00,2.98
