创建为新数据集,样品 1080 用户 Administrator 日期 星期二, 七月 30 2019
cm-1,%T
10000.00,-0.66
9999.00,-0.40
9998.00,-0.15
9997.00,0.10
9996.00,0.35
9995.00,0.59
9994.00,0.83
9993.00,1.06
9992.00,1.28
9991.00,1.50
9990.00,1.70
9989.00,1.89
9988.00,2.07
9987.00,2.23
9986.00,2.38
9985.00,2.53
9984.00,2.66
9983.00,2.78
9982.00,2.89
9981.00,2.98
9980.00,3.07
9979.00,3.15
9978.00,3.21
9977.00,3.27
9976.00,3.31
9975.00,3.33
9974.00,3.34
9973.00,3.34
9972.00,3.33
9971.00,3.30
9970.00,3.27
9969.00,3.22
9968.00,3.16
9967.00,3.11
9966.00,3.04
9965.00,2.98
9964.00,2.92
9963.00,2.86
9962.00,2.81
9961.00,2.76
9960.00,2.71
9959.00,2.67
9958.00,2.63
9957.00,2.60
9956.00,2.57
9955.00,2.54
9954.00,2.52
9953.00,2.50
9952.00,2.48
9951.00,2.47
9950.00,2.47
9949.00,2.47
9948.00,2.47
9947.00,2.49
9946.00,2.51
9945.00,2.53
9944.00,2.57
9943.00,2.61
9942.00,2.65
9941.00,2.71
9940.00,2.77
9939.00,2.83
9938.00,2.90
9937.00,2.97
9936.00,3.04
9935.00,3.11
9934.00,3.18
9933.00,3.24
9932.00,3.30
9931.00,3.36
9930.00,3.40
9929.00,3.44
9928.00,3.48
9927.00,3.51
9926.00,3.54
9925.00,3.57
9924.00,3.59
9923.00,3.62
9922.00,3.64
9921.00,3.65
9920.00,3.67
9919.00,3.69
9918.00,3.70
9917.00,3.72
9916.00,3.73
9915.00,3.73
9914.00,3.73
9913.00,3.72
9912.00,3.70
9911.00,3.68
9910.00,3.65
9909.00,3.62
9908.00,3.58
9907.00,3.54
9906.00,3.49
9905.00,3.45
9904.00,3.40
9903.00,3.36
9902.00,3.31
9901.00,3.27
9900.00,3.22
9899.00,3.18
9898.00,3.14
9897.00,3.09
9896.00,3.05
9895.00,3.01
9894.00,2.97
9893.00,2.93
9892.00,2.90
9891.00,2.86
9890.00,2.83
9889.00,2.80
9888.00,2.77
9887.00,2.74
9886.00,2.71
9885.00,2.69
9884.00,2.66
9883.00,2.64
9882.00,2.62
9881.00,2.61
9880.00,2.60
9879.00,2.59
9878.00,2.58
9877.00,2.58
9876.00,2.58
9875.00,2.58
9874.00,2.59
9873.00,2.60
9872.00,2.60
9871.00,2.60
9870.00,2.61
9869.00,2.60
9868.00,2.59
9867.00,2.58
9866.00,2.57
9865.00,2.55
9864.00,2.52
9863.00,2.49
9862.00,2.47
9861.00,2.44
9860.00,2.41
9859.00,2.38
9858.00,2.36
9857.00,2.34
9856.00,2.31
9855.00,2.30
9854.00,2.28
9853.00,2.26
9852.00,2.24
9851.00,2.23
9850.00,2.22
9849.00,2.20
9848.00,2.19
9847.00,2.18
9846.00,2.17
9845.00,2.16
9844.00,2.15
9843.00,2.15
9842.00,2.15
9841.00,2.16
9840.00,2.16
9839.00,2.17
9838.00,2.18
9837.00,2.20
9836.00,2.22
9835.00,2.24
9834.00,2.26
9833.00,2.28
9832.00,2.30
9831.00,2.33
9830.00,2.35
9829.00,2.37
9828.00,2.40
9827.00,2.42
9826.00,2.44
9825.00,2.46
9824.00,2.47
9823.00,2.49
9822.00,2.50
9821.00,2.51
9820.00,2.52
9819.00,2.53
9818.00,2.53
9817.00,2.54
9816.00,2.55
9815.00,2.55
9814.00,2.56
9813.00,2.56
9812.00,2.57
9811.00,2.57
9810.00,2.57
9809.00,2.56
9808.00,2.55
9807.00,2.54
9806.00,2.52
9805.00,2.50
9804.00,2.48
9803.00,2.46
9802.00,2.43
9801.00,2.40
9800.00,2.37
9799.00,2.35
9798.00,2.32
9797.00,2.30
9796.00,2.28
9795.00,2.26
9794.00,2.24
9793.00,2.22
9792.00,2.21
9791.00,2.19
9790.00,2.18
9789.00,2.17
9788.00,2.16
9787.00,2.15
9786.00,2.15
9785.00,2.15
9784.00,2.15
9783.00,2.15
9782.00,2.16
9781.00,2.17
9780.00,2.19
9779.00,2.21
9778.00,2.23
9777.00,2.25
9776.00,2.28
9775.00,2.30
9774.00,2.33
9773.00,2.36
9772.00,2.38
9771.00,2.40
9770.00,2.42
9769.00,2.44
9768.00,2.45
9767.00,2.46
9766.00,2.47
9765.00,2.47
9764.00,2.46
9763.00,2.45
9762.00,2.44
9761.00,2.42
9760.00,2.40
9759.00,2.38
9758.00,2.35
9757.00,2.32
9756.00,2.29
9755.00,2.25
9754.00,2.22
9753.00,2.18
9752.00,2.14
9751.00,2.10
9750.00,2.06
9749.00,2.02
9748.00,1.99
9747.00,1.95
9746.00,1.92
9745.00,1.89
9744.00,1.86
9743.00,1.84
9742.00,1.82
9741.00,1.80
9740.00,1.79
9739.00,1.78
9738.00,1.78
9737.00,1.78
9736.00,1.78
9735.00,1.79
9734.00,1.80
9733.00,1.82
9732.00,1.83
9731.00,1.85
9730.00,1.87
9729.00,1.90
9728.00,1.93
9727.00,1.95
9726.00,1.98
9725.00,2.01
9724.00,2.04
9723.00,2.06
9722.00,2.09
9721.00,2.11
9720.00,2.13
9719.00,2.15
9718.00,2.16
9717.00,2.17
9716.00,2.18
9715.00,2.19
9714.00,2.20
9713.00,2.21
9712.00,2.22
9711.00,2.22
9710.00,2.23
9709.00,2.24
9708.00,2.24
9707.00,2.25
9706.00,2.25
9705.00,2.25
9704.00,2.25
9703.00,2.24
9702.00,2.23
9701.00,2.22
9700.00,2.21
9699.00,2.19
9698.00,2.18
9697.00,2.16
9696.00,2.14
9695.00,2.13
9694.00,2.11
9693.00,2.09
9692.00,2.08
9691.00,2.06
9690.00,2.05
9689.00,2.03
9688.00,2.01
9687.00,1.99
9686.00,1.96
9685.00,1.94
9684.00,1.90
9683.00,1.87
9682.00,1.84
9681.00,1.80
9680.00,1.77
9679.00,1.73
9678.00,1.70
9677.00,1.66
9676.00,1.63
9675.00,1.60
9674.00,1.57
9673.00,1.54
9672.00,1.51
9671.00,1.49
9670.00,1.46
9669.00,1.44
9668.00,1.42
9667.00,1.40
9666.00,1.39
9665.00,1.37
9664.00,1.36
9663.00,1.34
9662.00,1.33
9661.00,1.33
9660.00,1.32
9659.00,1.32
9658.00,1.32
9657.00,1.33
9656.00,1.34
9655.00,1.35
9654.00,1.36
9653.00,1.38
9652.00,1.40
9651.00,1.42
9650.00,1.44
9649.00,1.47
9648.00,1.49
9647.00,1.52
9646.00,1.55
9645.00,1.58
9644.00,1.61
9643.00,1.64
9642.00,1.67
9641.00,1.70
9640.00,1.73
9639.00,1.75
9638.00,1.78
9637.00,1.81
9636.00,1.84
9635.00,1.86
9634.00,1.89
9633.00,1.92
9632.00,1.95
9631.00,1.98
9630.00,2.00
9629.00,2.03
9628.00,2.06
9627.00,2.08
9626.00,2.10
9625.00,2.12
9624.00,2.13
9623.00,2.15
9622.00,2.16
9621.00,2.17
9620.00,2.18
9619.00,2.19
9618.00,2.19
9617.00,2.20
9616.00,2.20
9615.00,2.21
9614.00,2.21
9613.00,2.22
9612.00,2.22
9611.00,2.23
9610.00,2.23
9609.00,2.23
9608.00,2.23
9607.00,2.23
9606.00,2.22
9605.00,2.22
9604.00,2.21
9603.00,2.20
9602.00,2.19
9601.00,2.18
9600.00,2.16
9599.00,2.15
9598.00,2.14
9597.00,2.13
9596.00,2.12
9595.00,2.11
9594.00,2.11
9593.00,2.10
9592.00,2.10
9591.00,2.09
9590.00,2.09
9589.00,2.08
9588.00,2.08
9587.00,2.08
9586.00,2.07
9585.00,2.07
9584.00,2.07
9583.00,2.07
9582.00,2.07
9581.00,2.06
9580.00,2.06
9579.00,2.07
9578.00,2.07
9577.00,2.07
9576.00,2.07
9575.00,2.08
9574.00,2.09
9573.00,2.09
9572.00,2.10
9571.00,2.11
9570.00,2.12
9569.00,2.13
9568.00,2.15
9567.00,2.16
9566.00,2.17
9565.00,2.19
9564.00,2.20
9563.00,2.22
9562.00,2.23
9561.00,2.25
9560.00,2.26
9559.00,2.28
9558.00,2.30
9557.00,2.32
9556.00,2.34
9555.00,2.36
9554.00,2.38
9553.00,2.40
9552.00,2.42
9551.00,2.44
9550.00,2.46
9549.00,2.48
9548.00,2.50
9547.00,2.51
9546.00,2.52
9545.00,2.53
9544.00,2.53
9543.00,2.53
9542.00,2.53
9541.00,2.52
9540.00,2.51
9539.00,2.50
9538.00,2.49
9537.00,2.47
9536.00,2.46
9535.00,2.44
9534.00,2.42
9533.00,2.41
9532.00,2.38
9531.00,2.36
9530.00,2.33
9529.00,2.30
9528.00,2.27
9527.00,2.24
9526.00,2.21
9525.00,2.18
9524.00,2.15
9523.00,2.12
9522.00,2.09
9521.00,2.06
9520.00,2.04
9519.00,2.02
9518.00,2.01
9517.00,2.00
9516.00,1.99
9515.00,1.98
9514.00,1.98
9513.00,1.98
9512.00,1.97
9511.00,1.97
9510.00,1.97
9509.00,1.96
9508.00,1.96
9507.00,1.95
9506.00,1.94
9505.00,1.94
9504.00,1.93
9503.00,1.93
9502.00,1.93
9501.00,1.93
9500.00,1.92
9499.00,1.92
9498.00,1.92
9497.00,1.91
9496.00,1.91
9495.00,1.90
9494.00,1.89
9493.00,1.87
9492.00,1.86
9491.00,1.84
9490.00,1.82
9489.00,1.81
9488.00,1.79
9487.00,1.77
9486.00,1.76
9485.00,1.75
9484.00,1.74
9483.00,1.73
9482.00,1.72
9481.00,1.71
9480.00,1.70
9479.00,1.70
9478.00,1.70
9477.00,1.69
9476.00,1.69
9475.00,1.69
9474.00,1.68
9473.00,1.68
9472.00,1.69
9471.00,1.69
9470.00,1.69
9469.00,1.70
9468.00,1.71
9467.00,1.72
9466.00,1.73
9465.00,1.75
9464.00,1.76
9463.00,1.78
9462.00,1.79
9461.00,1.81
9460.00,1.82
9459.00,1.83
9458.00,1.84
9457.00,1.85
9456.00,1.85
9455.00,1.86
9454.00,1.87
9453.00,1.88
9452.00,1.88
9451.00,1.89
9450.00,1.89
9449.00,1.90
9448.00,1.90
9447.00,1.90
9446.00,1.90
9445.00,1.90
9444.00,1.90
9443.00,1.89
9442.00,1.89
9441.00,1.88
9440.00,1.87
9439.00,1.86
9438.00,1.85
9437.00,1.84
9436.00,1.83
9435.00,1.82
9434.00,1.82
9433.00,1.82
9432.00,1.81
9431.00,1.81
9430.00,1.82
9429.00,1.82
9428.00,1.82
9427.00,1.83
9426.00,1.84
9425.00,1.84
9424.00,1.85
9423.00,1.86
9422.00,1.86
9421.00,1.87
9420.00,1.88
9419.00,1.89
9418.00,1.90
9417.00,1.91
9416.00,1.93
9415.00,1.94
9414.00,1.95
9413.00,1.96
9412.00,1.97
9411.00,1.98
9410.00,1.99
9409.00,1.99
9408.00,1.99
9407.00,1.98
9406.00,1.97
9405.00,1.96
9404.00,1.94
9403.00,1.92
9402.00,1.90
9401.00,1.87
9400.00,1.85
9399.00,1.82
9398.00,1.79
9397.00,1.77
9396.00,1.75
9395.00,1.72
9394.00,1.70
9393.00,1.69
9392.00,1.67
9391.00,1.65
9390.00,1.64
9389.00,1.62
9388.00,1.61
9387.00,1.59
9386.00,1.58
9385.00,1.57
9384.00,1.56
9383.00,1.56
9382.00,1.56
9381.00,1.56
9380.00,1.57
9379.00,1.59
9378.00,1.61
9377.00,1.63
9376.00,1.65
9375.00,1.68
9374.00,1.70
9373.00,1.73
9372.00,1.76
9371.00,1.79
9370.00,1.82
9369.00,1.84
9368.00,1.87
9367.00,1.89
9366.00,1.92
9365.00,1.94
9364.00,1.96
9363.00,1.98
9362.00,2.00
9361.00,2.03
9360.00,2.05
9359.00,2.07
9358.00,2.09
9357.00,2.11
9356.00,2.13
9355.00,2.15
9354.00,2.16
9353.00,2.17
9352.00,2.18
9351.00,2.18
9350.00,2.18
9349.00,2.18
9348.00,2.18
9347.00,2.17
9346.00,2.17
9345.00,2.16
9344.00,2.15
9343.00,2.13
9342.00,2.12
9341.00,2.10
9340.00,2.08
9339.00,2.05
9338.00,2.03
9337.00,2.00
9336.00,1.97
9335.00,1.93
9334.00,1.90
9333.00,1.87
9332.00,1.83
9331.00,1.79
9330.00,1.76
9329.00,1.72
9328.00,1.69
9327.00,1.66
9326.00,1.63
9325.00,1.60
9324.00,1.57
9323.00,1.55
9322.00,1.53
9321.00,1.51
9320.00,1.50
9319.00,1.49
9318.00,1.48
9317.00,1.48
9316.00,1.48
9315.00,1.48
9314.00,1.49
9313.00,1.50
9312.00,1.52
9311.00,1.53
9310.00,1.55
9309.00,1.57
9308.00,1.59
9307.00,1.61
9306.00,1.63
9305.00,1.65
9304.00,1.68
9303.00,1.70
9302.00,1.71
9301.00,1.73
9300.00,1.74
9299.00,1.75
9298.00,1.75
9297.00,1.75
9296.00,1.75
9295.00,1.74
9294.00,1.73
9293.00,1.71
9292.00,1.69
9291.00,1.67
9290.00,1.65
9289.00,1.63
9288.00,1.60
9287.00,1.58
9286.00,1.55
9285.00,1.52
9284.00,1.50
9283.00,1.47
9282.00,1.45
9281.00,1.43
9280.00,1.40
9279.00,1.38
9278.00,1.36
9277.00,1.35
9276.00,1.33
9275.00,1.32
9274.00,1.32
9273.00,1.31
9272.00,1.32
9271.00,1.32
9270.00,1.33
9269.00,1.35
9268.00,1.37
9267.00,1.39
9266.00,1.41
9265.00,1.43
9264.00,1.46
9263.00,1.48
9262.00,1.50
9261.00,1.53
9260.00,1.55
9259.00,1.57
9258.00,1.59
9257.00,1.61
9256.00,1.63
9255.00,1.65
9254.00,1.66
9253.00,1.68
9252.00,1.69
9251.00,1.70
9250.00,1.71
9249.00,1.72
9248.00,1.73
9247.00,1.74
9246.00,1.74
9245.00,1.74
9244.00,1.74
9243.00,1.74
9242.00,1.74
9241.00,1.74
9240.00,1.74
9239.00,1.74
9238.00,1.74
9237.00,1.74
9236.00,1.74
9235.00,1.74
9234.00,1.73
9233.00,1.74
9232.00,1.74
9231.00,1.74
9230.00,1.75
9229.00,1.75
9228.00,1.76
9227.00,1.77
9226.00,1.79
9225.00,1.80
9224.00,1.82
9223.00,1.83
9222.00,1.85
9221.00,1.86
9220.00,1.88
9219.00,1.89
9218.00,1.91
9217.00,1.92
9216.00,1.93
9215.00,1.94
9214.00,1.95
9213.00,1.95
9212.00,1.96
9211.00,1.96
9210.00,1.97
9209.00,1.97
9208.00,1.97
9207.00,1.98
9206.00,1.97
9205.00,1.97
9204.00,1.97
9203.00,1.96
9202.00,1.95
9201.00,1.94
9200.00,1.92
9199.00,1.91
9198.00,1.89
9197.00,1.87
9196.00,1.85
9195.00,1.84
9194.00,1.82
9193.00,1.81
9192.00,1.80
9191.00,1.79
9190.00,1.78
9189.00,1.78
9188.00,1.78
9187.00,1.78
9186.00,1.78
9185.00,1.78
9184.00,1.79
9183.00,1.80
9182.00,1.81
9181.00,1.82
9180.00,1.83
9179.00,1.85
9178.00,1.86
9177.00,1.88
9176.00,1.90
9175.00,1.92
9174.00,1.94
9173.00,1.96
9172.00,1.98
9171.00,2.00
9170.00,2.02
9169.00,2.04
9168.00,2.05
9167.00,2.07
9166.00,2.08
9165.00,2.10
9164.00,2.11
9163.00,2.12
9162.00,2.13
9161.00,2.13
9160.00,2.14
9159.00,2.14
9158.00,2.14
9157.00,2.14
9156.00,2.14
9155.00,2.13
9154.00,2.12
9153.00,2.12
9152.00,2.11
9151.00,2.10
9150.00,2.10
9149.00,2.09
9148.00,2.09
9147.00,2.08
9146.00,2.08
9145.00,2.08
9144.00,2.08
9143.00,2.09
9142.00,2.09
9141.00,2.09
9140.00,2.09
9139.00,2.09
9138.00,2.09
9137.00,2.09
9136.00,2.09
9135.00,2.08
9134.00,2.08
9133.00,2.07
9132.00,2.07
9131.00,2.07
9130.00,2.07
9129.00,2.06
9128.00,2.06
9127.00,2.06
9126.00,2.05
9125.00,2.05
9124.00,2.04
9123.00,2.03
9122.00,2.02
9121.00,2.01
9120.00,2.00
9119.00,1.99
9118.00,1.97
9117.00,1.96
9116.00,1.94
9115.00,1.93
9114.00,1.91
9113.00,1.90
9112.00,1.88
9111.00,1.86
9110.00,1.85
9109.00,1.84
9108.00,1.83
9107.00,1.82
9106.00,1.81
9105.00,1.81
9104.00,1.81
9103.00,1.81
9102.00,1.81
9101.00,1.81
9100.00,1.81
9099.00,1.81
9098.00,1.82
9097.00,1.82
9096.00,1.83
9095.00,1.83
9094.00,1.84
9093.00,1.85
9092.00,1.85
9091.00,1.86
9090.00,1.87
9089.00,1.88
9088.00,1.89
9087.00,1.90
9086.00,1.91
9085.00,1.92
9084.00,1.93
9083.00,1.94
9082.00,1.95
9081.00,1.96
9080.00,1.97
9079.00,1.97
9078.00,1.98
9077.00,1.98
9076.00,1.98
9075.00,1.98
9074.00,1.98
9073.00,1.98
9072.00,1.98
9071.00,1.98
9070.00,1.97
9069.00,1.97
9068.00,1.97
9067.00,1.96
9066.00,1.95
9065.00,1.95
9064.00,1.94
9063.00,1.94
9062.00,1.93
9061.00,1.93
9060.00,1.92
9059.00,1.92
9058.00,1.92
9057.00,1.92
9056.00,1.92
9055.00,1.93
9054.00,1.93
9053.00,1.93
9052.00,1.94
9051.00,1.94
9050.00,1.95
9049.00,1.96
9048.00,1.96
9047.00,1.97
9046.00,1.98
9045.00,1.99
9044.00,2.01
9043.00,2.02
9042.00,2.03
9041.00,2.05
9040.00,2.06
9039.00,2.08
9038.00,2.09
9037.00,2.11
9036.00,2.12
9035.00,2.13
9034.00,2.14
9033.00,2.15
9032.00,2.15
9031.00,2.15
9030.00,2.16
9029.00,2.16
9028.00,2.16
9027.00,2.16
9026.00,2.15
9025.00,2.15
9024.00,2.15
9023.00,2.14
9022.00,2.13
9021.00,2.12
9020.00,2.11
9019.00,2.10
9018.00,2.09
9017.00,2.08
9016.00,2.06
9015.00,2.05
9014.00,2.04
9013.00,2.03
9012.00,2.02
9011.00,2.01
9010.00,2.01
9009.00,2.00
9008.00,2.00
9007.00,1.99
9006.00,1.99
9005.00,1.99
9004.00,1.99
9003.00,1.99
9002.00,1.99
9001.00,1.99
9000.00,1.99
8999.00,1.99
8998.00,1.99
8997.00,1.99
8996.00,2.00
8995.00,2.00
8994.00,2.01
8993.00,2.01
8992.00,2.02
8991.00,2.03
8990.00,2.03
8989.00,2.04
8988.00,2.05
8987.00,2.06
8986.00,2.08
8985.00,2.09
8984.00,2.10
8983.00,2.11
8982.00,2.12
8981.00,2.14
8980.00,2.15
8979.00,2.16
8978.00,2.17
8977.00,2.18
8976.00,2.19
8975.00,2.20
8974.00,2.21
8973.00,2.21
8972.00,2.22
8971.00,2.23
8970.00,2.24
8969.00,2.25
8968.00,2.26
8967.00,2.27
8966.00,2.28
8965.00,2.29
8964.00,2.30
8963.00,2.31
8962.00,2.31
8961.00,2.32
8960.00,2.32
8959.00,2.31
8958.00,2.31
8957.00,2.30
8956.00,2.29
8955.00,2.28
8954.00,2.26
8953.00,2.25
8952.00,2.23
8951.00,2.22
8950.00,2.20
8949.00,2.19
8948.00,2.17
8947.00,2.16
8946.00,2.15
8945.00,2.14
8944.00,2.13
8943.00,2.12
8942.00,2.11
8941.00,2.09
8940.00,2.08
8939.00,2.06
8938.00,2.05
8937.00,2.03
8936.00,2.02
8935.00,2.01
8934.00,2.00
8933.00,1.99
8932.00,1.98
8931.00,1.97
8930.00,1.97
8929.00,1.97
8928.00,1.97
8927.00,1.97
8926.00,1.98
8925.00,1.99
8924.00,2.00
8923.00,2.01
8922.00,2.02
8921.00,2.03
8920.00,2.04
8919.00,2.05
8918.00,2.06
8917.00,2.07
8916.00,2.08
8915.00,2.09
8914.00,2.09
8913.00,2.10
8912.00,2.10
8911.00,2.10
8910.00,2.11
8909.00,2.11
8908.00,2.11
8907.00,2.11
8906.00,2.11
8905.00,2.11
8904.00,2.10
8903.00,2.10
8902.00,2.09
8901.00,2.08
8900.00,2.07
8899.00,2.05
8898.00,2.03
8897.00,2.00
8896.00,1.98
8895.00,1.95
8894.00,1.92
8893.00,1.89
8892.00,1.86
8891.00,1.83
8890.00,1.80
8889.00,1.77
8888.00,1.75
8887.00,1.72
8886.00,1.70
8885.00,1.68
8884.00,1.65
8883.00,1.63
8882.00,1.61
8881.00,1.60
8880.00,1.58
8879.00,1.56
8878.00,1.55
8877.00,1.54
8876.00,1.53
8875.00,1.53
8874.00,1.52
8873.00,1.53
8872.00,1.53
8871.00,1.55
8870.00,1.56
8869.00,1.58
8868.00,1.59
8867.00,1.61
8866.00,1.63
8865.00,1.66
8864.00,1.68
8863.00,1.70
8862.00,1.73
8861.00,1.75
8860.00,1.78
8859.00,1.81
8858.00,1.83
8857.00,1.86
8856.00,1.89
8855.00,1.92
8854.00,1.95
8853.00,1.97
8852.00,2.00
8851.00,2.02
8850.00,2.05
8849.00,2.07
8848.00,2.09
8847.00,2.11
8846.00,2.12
8845.00,2.14
8844.00,2.16
8843.00,2.17
8842.00,2.19
8841.00,2.21
8840.00,2.22
8839.00,2.24
8838.00,2.25
8837.00,2.27
8836.00,2.28
8835.00,2.29
8834.00,2.31
8833.00,2.32
8832.00,2.33
8831.00,2.34
8830.00,2.35
8829.00,2.36
8828.00,2.37
8827.00,2.38
8826.00,2.39
8825.00,2.40
8824.00,2.42
8823.00,2.43
8822.00,2.44
8821.00,2.45
8820.00,2.46
8819.00,2.46
8818.00,2.47
8817.00,2.47
8816.00,2.47
8815.00,2.47
8814.00,2.47
8813.00,2.47
8812.00,2.47
8811.00,2.46
8810.00,2.45
8809.00,2.45
8808.00,2.44
8807.00,2.43
8806.00,2.42
8805.00,2.41
8804.00,2.39
8803.00,2.38
8802.00,2.36
8801.00,2.34
8800.00,2.32
8799.00,2.30
8798.00,2.29
8797.00,2.27
8796.00,2.25
8795.00,2.24
8794.00,2.23
8793.00,2.22
8792.00,2.21
8791.00,2.21
8790.00,2.20
8789.00,2.20
8788.00,2.19
8787.00,2.19
8786.00,2.19
8785.00,2.19
8784.00,2.19
8783.00,2.19
8782.00,2.19
8781.00,2.20
8780.00,2.21
8779.00,2.22
8778.00,2.23
8777.00,2.25
8776.00,2.27
8775.00,2.28
8774.00,2.30
8773.00,2.32
8772.00,2.34
8771.00,2.35
8770.00,2.37
8769.00,2.39
8768.00,2.40
8767.00,2.41
8766.00,2.42
8765.00,2.43
8764.00,2.43
8763.00,2.43
8762.00,2.44
8761.00,2.44
8760.00,2.44
8759.00,2.44
8758.00,2.44
8757.00,2.43
8756.00,2.43
8755.00,2.42
8754.00,2.41
8753.00,2.39
8752.00,2.38
8751.00,2.36
8750.00,2.34
8749.00,2.33
8748.00,2.31
8747.00,2.29
8746.00,2.28
8745.00,2.26
8744.00,2.24
8743.00,2.23
8742.00,2.21
8741.00,2.19
8740.00,2.16
8739.00,2.14
8738.00,2.12
8737.00,2.09
8736.00,2.07
8735.00,2.05
8734.00,2.03
8733.00,2.01
8732.00,1.99
8731.00,1.98
8730.00,1.96
8729.00,1.95
8728.00,1.94
8727.00,1.93
8726.00,1.93
8725.00,1.92
8724.00,1.91
8723.00,1.91
8722.00,1.90
8721.00,1.89
8720.00,1.88
8719.00,1.87
8718.00,1.85
8717.00,1.84
8716.00,1.83
8715.00,1.82
8714.00,1.81
8713.00,1.81
8712.00,1.81
8711.00,1.81
8710.00,1.81
8709.00,1.82
8708.00,1.82
8707.00,1.83
8706.00,1.83
8705.00,1.83
8704.00,1.84
8703.00,1.84
8702.00,1.84
8701.00,1.84
8700.00,1.85
8699.00,1.85
8698.00,1.85
8697.00,1.85
8696.00,1.85
8695.00,1.85
8694.00,1.86
8693.00,1.87
8692.00,1.88
8691.00,1.89
8690.00,1.90
8689.00,1.91
8688.00,1.92
8687.00,1.94
8686.00,1.95
8685.00,1.96
8684.00,1.98
8683.00,1.99
8682.00,2.00
8681.00,2.02
8680.00,2.03
8679.00,2.05
8678.00,2.06
8677.00,2.08
8676.00,2.09
8675.00,2.11
8674.00,2.13
8673.00,2.15
8672.00,2.16
8671.00,2.18
8670.00,2.20
8669.00,2.21
8668.00,2.23
8667.00,2.24
8666.00,2.26
8665.00,2.27
8664.00,2.28
8663.00,2.29
8662.00,2.30
8661.00,2.31
8660.00,2.32
8659.00,2.33
8658.00,2.33
8657.00,2.34
8656.00,2.34
8655.00,2.34
8654.00,2.34
8653.00,2.34
8652.00,2.34
8651.00,2.34
8650.00,2.33
8649.00,2.33
8648.00,2.32
8647.00,2.31
8646.00,2.31
8645.00,2.30
8644.00,2.29
8643.00,2.28
8642.00,2.27
8641.00,2.27
8640.00,2.26
8639.00,2.24
8638.00,2.23
8637.00,2.22
8636.00,2.21
8635.00,2.19
8634.00,2.18
8633.00,2.17
8632.00,2.15
8631.00,2.14
8630.00,2.13
8629.00,2.12
8628.00,2.11
8627.00,2.11
8626.00,2.10
8625.00,2.10
8624.00,2.10
8623.00,2.11
8622.00,2.11
8621.00,2.11
8620.00,2.12
8619.00,2.12
8618.00,2.13
8617.00,2.14
8616.00,2.14
8615.00,2.15
8614.00,2.17
8613.00,2.18
8612.00,2.19
8611.00,2.21
8610.00,2.23
8609.00,2.25
8608.00,2.27
8607.00,2.29
8606.00,2.32
8605.00,2.34
8604.00,2.36
8603.00,2.39
8602.00,2.41
8601.00,2.42
8600.00,2.44
8599.00,2.45
8598.00,2.46
8597.00,2.47
8596.00,2.47
8595.00,2.48
8594.00,2.49
8593.00,2.49
8592.00,2.49
8591.00,2.49
8590.00,2.49
8589.00,2.49
8588.00,2.49
8587.00,2.49
8586.00,2.49
8585.00,2.48
8584.00,2.47
8583.00,2.46
8582.00,2.45
8581.00,2.44
8580.00,2.43
8579.00,2.42
8578.00,2.40
8577.00,2.39
8576.00,2.38
8575.00,2.36
8574.00,2.35
8573.00,2.33
8572.00,2.32
8571.00,2.31
8570.00,2.29
8569.00,2.28
8568.00,2.27
8567.00,2.25
8566.00,2.24
8565.00,2.23
8564.00,2.21
8563.00,2.20
8562.00,2.19
8561.00,2.17
8560.00,2.16
8559.00,2.15
8558.00,2.14
8557.00,2.13
8556.00,2.12
8555.00,2.11
8554.00,2.10
8553.00,2.09
8552.00,2.08
8551.00,2.07
8550.00,2.06
8549.00,2.05
8548.00,2.04
8547.00,2.04
8546.00,2.03
8545.00,2.03
8544.00,2.03
8543.00,2.02
8542.00,2.02
8541.00,2.02
8540.00,2.02
8539.00,2.02
8538.00,2.02
8537.00,2.03
8536.00,2.03
8535.00,2.03
8534.00,2.02
8533.00,2.02
8532.00,2.02
8531.00,2.02
8530.00,2.02
8529.00,2.02
8528.00,2.03
8527.00,2.03
8526.00,2.04
8525.00,2.04
8524.00,2.04
8523.00,2.05
8522.00,2.05
8521.00,2.05
8520.00,2.05
8519.00,2.05
8518.00,2.04
8517.00,2.04
8516.00,2.04
8515.00,2.04
8514.00,2.04
8513.00,2.04
8512.00,2.04
8511.00,2.04
8510.00,2.04
8509.00,2.04
8508.00,2.04
8507.00,2.04
8506.00,2.05
8505.00,2.05
8504.00,2.05
8503.00,2.05
8502.00,2.05
8501.00,2.04
8500.00,2.04
8499.00,2.03
8498.00,2.03
8497.00,2.02
8496.00,2.02
8495.00,2.02
8494.00,2.03
8493.00,2.03
8492.00,2.04
8491.00,2.05
8490.00,2.06
8489.00,2.06
8488.00,2.07
8487.00,2.07
8486.00,2.08
8485.00,2.08
8484.00,2.08
8483.00,2.08
8482.00,2.08
8481.00,2.08
8480.00,2.08
8479.00,2.08
8478.00,2.09
8477.00,2.10
8476.00,2.10
8475.00,2.11
8474.00,2.13
8473.00,2.14
8472.00,2.15
8471.00,2.16
8470.00,2.17
8469.00,2.18
8468.00,2.18
8467.00,2.19
8466.00,2.19
8465.00,2.19
8464.00,2.19
8463.00,2.19
8462.00,2.19
8461.00,2.19
8460.00,2.19
8459.00,2.20
8458.00,2.20
8457.00,2.20
8456.00,2.21
8455.00,2.21
8454.00,2.22
8453.00,2.22
8452.00,2.22
8451.00,2.22
8450.00,2.22
8449.00,2.22
8448.00,2.22
8447.00,2.22
8446.00,2.22
8445.00,2.22
8444.00,2.23
8443.00,2.23
8442.00,2.24
8441.00,2.24
8440.00,2.25
8439.00,2.26
8438.00,2.27
8437.00,2.28
8436.00,2.30
8435.00,2.31
8434.00,2.32
8433.00,2.33
8432.00,2.34
8431.00,2.35
8430.00,2.36
8429.00,2.37
8428.00,2.38
8427.00,2.39
8426.00,2.39
8425.00,2.40
8424.00,2.41
8423.00,2.41
8422.00,2.42
8421.00,2.42
8420.00,2.42
8419.00,2.42
8418.00,2.41
8417.00,2.41
8416.00,2.40
8415.00,2.39
8414.00,2.38
8413.00,2.37
8412.00,2.36
8411.00,2.35
8410.00,2.33
8409.00,2.32
8408.00,2.31
8407.00,2.31
8406.00,2.30
8405.00,2.29
8404.00,2.29
8403.00,2.29
8402.00,2.29
8401.00,2.29
8400.00,2.29
8399.00,2.29
8398.00,2.29
8397.00,2.29
8396.00,2.30
8395.00,2.30
8394.00,2.31
8393.00,2.32
8392.00,2.33
8391.00,2.34
8390.00,2.35
8389.00,2.36
8388.00,2.38
8387.00,2.39
8386.00,2.41
8385.00,2.42
8384.00,2.43
8383.00,2.44
8382.00,2.45
8381.00,2.46
8380.00,2.47
8379.00,2.48
8378.00,2.48
8377.00,2.48
8376.00,2.49
8375.00,2.49
8374.00,2.48
8373.00,2.48
8372.00,2.48
8371.00,2.47
8370.00,2.47
8369.00,2.46
8368.00,2.45
8367.00,2.45
8366.00,2.44
8365.00,2.44
8364.00,2.43
8363.00,2.42
8362.00,2.42
8361.00,2.41
8360.00,2.40
8359.00,2.40
8358.00,2.39
8357.00,2.38
8356.00,2.38
8355.00,2.37
8354.00,2.36
8353.00,2.35
8352.00,2.34
8351.00,2.33
8350.00,2.32
8349.00,2.31
8348.00,2.31
8347.00,2.30
8346.00,2.29
8345.00,2.29
8344.00,2.29
8343.00,2.28
8342.00,2.28
8341.00,2.28
8340.00,2.27
8339.00,2.27
8338.00,2.26
8337.00,2.26
8336.00,2.25
8335.00,2.24
8334.00,2.24
8333.00,2.23
8332.00,2.23
8331.00,2.22
8330.00,2.22
8329.00,2.21
8328.00,2.21
8327.00,2.21
8326.00,2.21
8325.00,2.21
8324.00,2.21
8323.00,2.21
8322.00,2.21
8321.00,2.22
8320.00,2.22
8319.00,2.22
8318.00,2.23
8317.00,2.23
8316.00,2.23
8315.00,2.24
8314.00,2.24
8313.00,2.25
8312.00,2.25
8311.00,2.26
8310.00,2.27
8309.00,2.27
8308.00,2.28
8307.00,2.29
8306.00,2.30
8305.00,2.31
8304.00,2.32
8303.00,2.33
8302.00,2.34
8301.00,2.35
8300.00,2.36
8299.00,2.37
8298.00,2.37
8297.00,2.38
8296.00,2.38
8295.00,2.39
8294.00,2.39
8293.00,2.40
8292.00,2.40
8291.00,2.41
8290.00,2.41
8289.00,2.42
8288.00,2.43
8287.00,2.43
8286.00,2.44
8285.00,2.44
8284.00,2.44
8283.00,2.44
8282.00,2.44
8281.00,2.44
8280.00,2.43
8279.00,2.43
8278.00,2.42
8277.00,2.41
8276.00,2.40
8275.00,2.39
8274.00,2.38
8273.00,2.38
8272.00,2.37
8271.00,2.36
8270.00,2.36
8269.00,2.35
8268.00,2.34
8267.00,2.33
8266.00,2.32
8265.00,2.31
8264.00,2.30
8263.00,2.29
8262.00,2.27
8261.00,2.26
8260.00,2.24
8259.00,2.23
8258.00,2.22
8257.00,2.21
8256.00,2.20
8255.00,2.19
8254.00,2.18
8253.00,2.18
8252.00,2.18
8251.00,2.18
8250.00,2.18
8249.00,2.18
8248.00,2.18
8247.00,2.18
8246.00,2.19
8245.00,2.19
8244.00,2.20
8243.00,2.20
8242.00,2.21
8241.00,2.21
8240.00,2.22
8239.00,2.23
8238.00,2.23
8237.00,2.24
8236.00,2.25
8235.00,2.25
8234.00,2.26
8233.00,2.26
8232.00,2.27
8231.00,2.27
8230.00,2.28
8229.00,2.28
8228.00,2.28
8227.00,2.29
8226.00,2.29
8225.00,2.30
8224.00,2.30
8223.00,2.30
8222.00,2.30
8221.00,2.30
8220.00,2.29
8219.00,2.29
8218.00,2.28
8217.00,2.28
8216.00,2.27
8215.00,2.27
8214.00,2.27
8213.00,2.27
8212.00,2.26
8211.00,2.26
8210.00,2.26
8209.00,2.26
8208.00,2.26
8207.00,2.26
8206.00,2.26
8205.00,2.26
8204.00,2.26
8203.00,2.25
8202.00,2.25
8201.00,2.25
8200.00,2.25
8199.00,2.24
8198.00,2.24
8197.00,2.24
8196.00,2.24
8195.00,2.24
8194.00,2.24
8193.00,2.24
8192.00,2.24
8191.00,2.24
8190.00,2.23
8189.00,2.23
8188.00,2.23
8187.00,2.23
8186.00,2.22
8185.00,2.22
8184.00,2.21
8183.00,2.21
8182.00,2.21
8181.00,2.21
8180.00,2.21
8179.00,2.21
8178.00,2.21
8177.00,2.21
8176.00,2.22
8175.00,2.22
8174.00,2.23
8173.00,2.23
8172.00,2.24
8171.00,2.24
8170.00,2.25
8169.00,2.25
8168.00,2.26
8167.00,2.27
8166.00,2.28
8165.00,2.29
8164.00,2.30
8163.00,2.31
8162.00,2.32
8161.00,2.33
8160.00,2.34
8159.00,2.35
8158.00,2.36
8157.00,2.37
8156.00,2.38
8155.00,2.39
8154.00,2.39
8153.00,2.40
8152.00,2.40
8151.00,2.40
8150.00,2.40
8149.00,2.40
8148.00,2.40
8147.00,2.40
8146.00,2.39
8145.00,2.38
8144.00,2.38
8143.00,2.37
8142.00,2.36
8141.00,2.35
8140.00,2.34
8139.00,2.32
8138.00,2.31
8137.00,2.30
8136.00,2.29
8135.00,2.28
8134.00,2.26
8133.00,2.25
8132.00,2.24
8131.00,2.23
8130.00,2.21
8129.00,2.20
8128.00,2.18
8127.00,2.17
8126.00,2.16
8125.00,2.15
8124.00,2.14
8123.00,2.13
8122.00,2.12
8121.00,2.11
8120.00,2.11
8119.00,2.10
8118.00,2.10
8117.00,2.10
8116.00,2.10
8115.00,2.10
8114.00,2.10
8113.00,2.10
8112.00,2.10
8111.00,2.10
8110.00,2.10
8109.00,2.10
8108.00,2.10
8107.00,2.10
8106.00,2.10
8105.00,2.10
8104.00,2.10
8103.00,2.11
8102.00,2.11
8101.00,2.12
8100.00,2.13
8099.00,2.14
8098.00,2.15
8097.00,2.16
8096.00,2.16
8095.00,2.17
8094.00,2.18
8093.00,2.18
8092.00,2.19
8091.00,2.19
8090.00,2.20
8089.00,2.20
8088.00,2.20
8087.00,2.20
8086.00,2.20
8085.00,2.20
8084.00,2.20
8083.00,2.20
8082.00,2.20
8081.00,2.20
8080.00,2.19
8079.00,2.19
8078.00,2.19
8077.00,2.19
8076.00,2.18
8075.00,2.18
8074.00,2.17
8073.00,2.16
8072.00,2.16
8071.00,2.15
8070.00,2.14
8069.00,2.14
8068.00,2.13
8067.00,2.13
8066.00,2.12
8065.00,2.12
8064.00,2.11
8063.00,2.11
8062.00,2.11
8061.00,2.11
8060.00,2.11
8059.00,2.11
8058.00,2.11
8057.00,2.11
8056.00,2.11
8055.00,2.12
8054.00,2.13
8053.00,2.14
8052.00,2.14
8051.00,2.15
8050.00,2.16
8049.00,2.17
8048.00,2.18
8047.00,2.19
8046.00,2.20
8045.00,2.21
8044.00,2.21
8043.00,2.22
8042.00,2.23
8041.00,2.23
8040.00,2.23
8039.00,2.23
8038.00,2.23
8037.00,2.23
8036.00,2.22
8035.00,2.22
8034.00,2.22
8033.00,2.22
8032.00,2.22
8031.00,2.22
8030.00,2.21
8029.00,2.21
8028.00,2.20
8027.00,2.20
8026.00,2.19
8025.00,2.18
8024.00,2.18
8023.00,2.17
8022.00,2.16
8021.00,2.15
8020.00,2.15
8019.00,2.14
8018.00,2.14
8017.00,2.13
8016.00,2.13
8015.00,2.13
8014.00,2.14
8013.00,2.14
8012.00,2.15
8011.00,2.15
8010.00,2.16
8009.00,2.17
8008.00,2.17
8007.00,2.18
8006.00,2.19
8005.00,2.19
8004.00,2.20
8003.00,2.20
8002.00,2.21
8001.00,2.21
8000.00,2.22
7999.00,2.22
7998.00,2.22
7997.00,2.22
7996.00,2.23
7995.00,2.23
7994.00,2.23
7993.00,2.22
7992.00,2.22
7991.00,2.22
7990.00,2.21
7989.00,2.21
7988.00,2.20
7987.00,2.20
7986.00,2.19
7985.00,2.18
7984.00,2.18
7983.00,2.17
7982.00,2.16
7981.00,2.16
7980.00,2.15
7979.00,2.15
7978.00,2.14
7977.00,2.14
7976.00,2.13
7975.00,2.13
7974.00,2.13
7973.00,2.13
7972.00,2.13
7971.00,2.13
7970.00,2.14
7969.00,2.14
7968.00,2.15
7967.00,2.15
7966.00,2.16
7965.00,2.18
7964.00,2.19
7963.00,2.20
7962.00,2.22
7961.00,2.23
7960.00,2.25
7959.00,2.26
7958.00,2.28
7957.00,2.30
7956.00,2.31
7955.00,2.32
7954.00,2.34
7953.00,2.35
7952.00,2.37
7951.00,2.38
7950.00,2.39
7949.00,2.40
7948.00,2.41
7947.00,2.42
7946.00,2.42
7945.00,2.43
7944.00,2.44
7943.00,2.44
7942.00,2.45
7941.00,2.46
7940.00,2.46
7939.00,2.46
7938.00,2.47
7937.00,2.47
7936.00,2.47
7935.00,2.46
7934.00,2.46
7933.00,2.45
7932.00,2.45
7931.00,2.44
7930.00,2.44
7929.00,2.43
7928.00,2.42
7927.00,2.41
7926.00,2.41
7925.00,2.40
7924.00,2.39
7923.00,2.39
7922.00,2.38
7921.00,2.37
7920.00,2.36
7919.00,2.36
7918.00,2.35
7917.00,2.34
7916.00,2.33
7915.00,2.32
7914.00,2.31
7913.00,2.30
7912.00,2.29
7911.00,2.28
7910.00,2.27
7909.00,2.26
7908.00,2.26
7907.00,2.26
7906.00,2.25
7905.00,2.25
7904.00,2.25
7903.00,2.25
7902.00,2.26
7901.00,2.26
7900.00,2.26
7899.00,2.26
7898.00,2.27
7897.00,2.27
7896.00,2.28
7895.00,2.29
7894.00,2.30
7893.00,2.31
7892.00,2.33
7891.00,2.34
7890.00,2.35
7889.00,2.37
7888.00,2.38
7887.00,2.39
7886.00,2.41
7885.00,2.42
7884.00,2.43
7883.00,2.44
7882.00,2.45
7881.00,2.45
7880.00,2.46
7879.00,2.46
7878.00,2.46
7877.00,2.46
7876.00,2.46
7875.00,2.46
7874.00,2.46
7873.00,2.46
7872.00,2.46
7871.00,2.46
7870.00,2.45
7869.00,2.45
7868.00,2.45
7867.00,2.44
7866.00,2.43
7865.00,2.42
7864.00,2.42
7863.00,2.41
7862.00,2.40
7861.00,2.39
7860.00,2.38
7859.00,2.38
7858.00,2.37
7857.00,2.37
7856.00,2.37
7855.00,2.37
7854.00,2.37
7853.00,2.37
7852.00,2.37
7851.00,2.38
7850.00,2.38
7849.00,2.39
7848.00,2.39
7847.00,2.40
7846.00,2.40
7845.00,2.41
7844.00,2.41
7843.00,2.41
7842.00,2.42
7841.00,2.42
7840.00,2.43
7839.00,2.43
7838.00,2.43
7837.00,2.44
7836.00,2.44
7835.00,2.45
7834.00,2.45
7833.00,2.45
7832.00,2.46
7831.00,2.46
7830.00,2.46
7829.00,2.46
7828.00,2.46
7827.00,2.46
7826.00,2.46
7825.00,2.46
7824.00,2.46
7823.00,2.46
7822.00,2.45
7821.00,2.45
7820.00,2.45
7819.00,2.45
7818.00,2.44
7817.00,2.44
7816.00,2.44
7815.00,2.43
7814.00,2.43
7813.00,2.43
7812.00,2.42
7811.00,2.42
7810.00,2.42
7809.00,2.42
7808.00,2.42
7807.00,2.42
7806.00,2.42
7805.00,2.41
7804.00,2.41
7803.00,2.41
7802.00,2.40
7801.00,2.40
7800.00,2.39
7799.00,2.39
7798.00,2.39
7797.00,2.39
7796.00,2.39
7795.00,2.39
7794.00,2.39
7793.00,2.39
7792.00,2.39
7791.00,2.40
7790.00,2.40
7789.00,2.40
7788.00,2.40
7787.00,2.40
7786.00,2.40
7785.00,2.40
7784.00,2.40
7783.00,2.40
7782.00,2.40
7781.00,2.40
7780.00,2.40
7779.00,2.41
7778.00,2.41
7777.00,2.41
7776.00,2.41
7775.00,2.42
7774.00,2.42
7773.00,2.42
7772.00,2.42
7771.00,2.42
7770.00,2.41
7769.00,2.41
7768.00,2.41
7767.00,2.40
7766.00,2.40
7765.00,2.40
7764.00,2.40
7763.00,2.40
7762.00,2.40
7761.00,2.40
7760.00,2.40
7759.00,2.40
7758.00,2.40
7757.00,2.41
7756.00,2.41
7755.00,2.41
7754.00,2.41
7753.00,2.41
7752.00,2.42
7751.00,2.42
7750.00,2.43
7749.00,2.43
7748.00,2.44
7747.00,2.45
7746.00,2.46
7745.00,2.46
7744.00,2.47
7743.00,2.48
7742.00,2.49
7741.00,2.50
7740.00,2.51
7739.00,2.52
7738.00,2.53
7737.00,2.54
7736.00,2.54
7735.00,2.55
7734.00,2.55
7733.00,2.55
7732.00,2.56
7731.00,2.56
7730.00,2.56
7729.00,2.56
7728.00,2.56
7727.00,2.56
7726.00,2.56
7725.00,2.56
7724.00,2.55
7723.00,2.55
7722.00,2.54
7721.00,2.54
7720.00,2.53
7719.00,2.53
7718.00,2.52
7717.00,2.52
7716.00,2.51
7715.00,2.51
7714.00,2.50
7713.00,2.50
7712.00,2.49
7711.00,2.49
7710.00,2.48
7709.00,2.48
7708.00,2.48
7707.00,2.47
7706.00,2.47
7705.00,2.47
7704.00,2.46
7703.00,2.46
7702.00,2.45
7701.00,2.45
7700.00,2.45
7699.00,2.45
7698.00,2.45
7697.00,2.45
7696.00,2.45
7695.00,2.45
7694.00,2.45
7693.00,2.46
7692.00,2.46
7691.00,2.46
7690.00,2.46
7689.00,2.46
7688.00,2.46
7687.00,2.46
7686.00,2.46
7685.00,2.46
7684.00,2.46
7683.00,2.46
7682.00,2.46
7681.00,2.46
7680.00,2.47
7679.00,2.47
7678.00,2.47
7677.00,2.48
7676.00,2.48
7675.00,2.49
7674.00,2.49
7673.00,2.50
7672.00,2.50
7671.00,2.50
7670.00,2.51
7669.00,2.51
7668.00,2.51
7667.00,2.51
7666.00,2.51
7665.00,2.51
7664.00,2.51
7663.00,2.51
7662.00,2.51
7661.00,2.51
7660.00,2.51
7659.00,2.51
7658.00,2.51
7657.00,2.52
7656.00,2.52
7655.00,2.52
7654.00,2.52
7653.00,2.52
7652.00,2.52
7651.00,2.52
7650.00,2.52
7649.00,2.51
7648.00,2.51
7647.00,2.51
7646.00,2.51
7645.00,2.51
7644.00,2.51
7643.00,2.51
7642.00,2.51
7641.00,2.51
7640.00,2.52
7639.00,2.52
7638.00,2.52
7637.00,2.53
7636.00,2.53
7635.00,2.54
7634.00,2.55
7633.00,2.55
7632.00,2.56
7631.00,2.57
7630.00,2.58
7629.00,2.58
7628.00,2.59
7627.00,2.60
7626.00,2.60
7625.00,2.61
7624.00,2.61
7623.00,2.62
7622.00,2.62
7621.00,2.62
7620.00,2.62
7619.00,2.62
7618.00,2.62
7617.00,2.62
7616.00,2.62
7615.00,2.62
7614.00,2.62
7613.00,2.62
7612.00,2.62
7611.00,2.61
7610.00,2.61
7609.00,2.61
7608.00,2.60
7607.00,2.60
7606.00,2.59
7605.00,2.58
7604.00,2.58
7603.00,2.57
7602.00,2.56
7601.00,2.55
7600.00,2.54
7599.00,2.53
7598.00,2.53
7597.00,2.52
7596.00,2.51
7595.00,2.51
7594.00,2.50
7593.00,2.49
7592.00,2.49
7591.00,2.48
7590.00,2.47
7589.00,2.47
7588.00,2.46
7587.00,2.46
7586.00,2.45
7585.00,2.44
7584.00,2.43
7583.00,2.43
7582.00,2.42
7581.00,2.41
7580.00,2.40
7579.00,2.39
7578.00,2.38
7577.00,2.38
7576.00,2.37
7575.00,2.36
7574.00,2.36
7573.00,2.35
7572.00,2.35
7571.00,2.34
7570.00,2.34
7569.00,2.34
7568.00,2.34
7567.00,2.34
7566.00,2.35
7565.00,2.35
7564.00,2.36
7563.00,2.36
7562.00,2.37
7561.00,2.38
7560.00,2.39
7559.00,2.40
7558.00,2.40
7557.00,2.41
7556.00,2.42
7555.00,2.43
7554.00,2.44
7553.00,2.45
7552.00,2.45
7551.00,2.46
7550.00,2.47
7549.00,2.48
7548.00,2.49
7547.00,2.50
7546.00,2.51
7545.00,2.51
7544.00,2.52
7543.00,2.52
7542.00,2.52
7541.00,2.52
7540.00,2.51
7539.00,2.51
7538.00,2.50
7537.00,2.49
7536.00,2.48
7535.00,2.47
7534.00,2.46
7533.00,2.45
7532.00,2.43
7531.00,2.42
7530.00,2.41
7529.00,2.40
7528.00,2.39
7527.00,2.38
7526.00,2.37
7525.00,2.36
7524.00,2.35
7523.00,2.34
7522.00,2.33
7521.00,2.32
7520.00,2.31
7519.00,2.30
7518.00,2.29
7517.00,2.28
7516.00,2.27
7515.00,2.26
7514.00,2.26
7513.00,2.25
7512.00,2.25
7511.00,2.25
7510.00,2.25
7509.00,2.25
7508.00,2.25
7507.00,2.26
7506.00,2.26
7505.00,2.27
7504.00,2.27
7503.00,2.28
7502.00,2.29
7501.00,2.29
7500.00,2.30
7499.00,2.30
7498.00,2.31
7497.00,2.32
7496.00,2.32
7495.00,2.33
7494.00,2.34
7493.00,2.35
7492.00,2.36
7491.00,2.37
7490.00,2.39
7489.00,2.40
7488.00,2.41
7487.00,2.42
7486.00,2.43
7485.00,2.44
7484.00,2.45
7483.00,2.45
7482.00,2.46
7481.00,2.47
7480.00,2.47
7479.00,2.48
7478.00,2.48
7477.00,2.49
7476.00,2.49
7475.00,2.50
7474.00,2.51
7473.00,2.52
7472.00,2.53
7471.00,2.54
7470.00,2.54
7469.00,2.55
7468.00,2.56
7467.00,2.57
7466.00,2.57
7465.00,2.58
7464.00,2.58
7463.00,2.59
7462.00,2.59
7461.00,2.60
7460.00,2.60
7459.00,2.60
7458.00,2.60
7457.00,2.60
7456.00,2.61
7455.00,2.61
7454.00,2.61
7453.00,2.61
7452.00,2.61
7451.00,2.62
7450.00,2.62
7449.00,2.62
7448.00,2.62
7447.00,2.61
7446.00,2.61
7445.00,2.61
7444.00,2.60
7443.00,2.59
7442.00,2.58
7441.00,2.58
7440.00,2.57
7439.00,2.56
7438.00,2.55
7437.00,2.54
7436.00,2.54
7435.00,2.53
7434.00,2.53
7433.00,2.52
7432.00,2.52
7431.00,2.52
7430.00,2.52
7429.00,2.53
7428.00,2.53
7427.00,2.53
7426.00,2.53
7425.00,2.53
7424.00,2.53
7423.00,2.53
7422.00,2.53
7421.00,2.53
7420.00,2.53
7419.00,2.53
7418.00,2.54
7417.00,2.55
7416.00,2.55
7415.00,2.56
7414.00,2.57
7413.00,2.58
7412.00,2.59
7411.00,2.60
7410.00,2.60
7409.00,2.61
7408.00,2.61
7407.00,2.61
7406.00,2.61
7405.00,2.61
7404.00,2.61
7403.00,2.60
7402.00,2.60
7401.00,2.60
7400.00,2.59
7399.00,2.59
7398.00,2.59
7397.00,2.59
7396.00,2.58
7395.00,2.58
7394.00,2.58
7393.00,2.57
7392.00,2.57
7391.00,2.56
7390.00,2.55
7389.00,2.54
7388.00,2.53
7387.00,2.52
7386.00,2.51
7385.00,2.50
7384.00,2.49
7383.00,2.49
7382.00,2.48
7381.00,2.47
7380.00,2.47
7379.00,2.46
7378.00,2.45
7377.00,2.45
7376.00,2.44
7375.00,2.43
7374.00,2.43
7373.00,2.42
7372.00,2.41
7371.00,2.40
7370.00,2.39
7369.00,2.38
7368.00,2.38
7367.00,2.37
7366.00,2.37
7365.00,2.36
7364.00,2.36
7363.00,2.36
7362.00,2.36
7361.00,2.36
7360.00,2.36
7359.00,2.36
7358.00,2.36
7357.00,2.36
7356.00,2.36
7355.00,2.36
7354.00,2.36
7353.00,2.36
7352.00,2.36
7351.00,2.37
7350.00,2.37
7349.00,2.38
7348.00,2.39
7347.00,2.39
7346.00,2.40
7345.00,2.41
7344.00,2.42
7343.00,2.43
7342.00,2.44
7341.00,2.44
7340.00,2.45
7339.00,2.45
7338.00,2.46
7337.00,2.46
7336.00,2.46
7335.00,2.47
7334.00,2.47
7333.00,2.47
7332.00,2.48
7331.00,2.48
7330.00,2.49
7329.00,2.50
7328.00,2.50
7327.00,2.51
7326.00,2.51
7325.00,2.52
7324.00,2.52
7323.00,2.52
7322.00,2.53
7321.00,2.53
7320.00,2.53
7319.00,2.53
7318.00,2.53
7317.00,2.53
7316.00,2.53
7315.00,2.53
7314.00,2.53
7313.00,2.53
7312.00,2.53
7311.00,2.53
7310.00,2.52
7309.00,2.52
7308.00,2.52
7307.00,2.51
7306.00,2.51
7305.00,2.50
7304.00,2.49
7303.00,2.49
7302.00,2.48
7301.00,2.47
7300.00,2.47
7299.00,2.46
7298.00,2.46
7297.00,2.45
7296.00,2.45
7295.00,2.44
7294.00,2.44
7293.00,2.43
7292.00,2.43
7291.00,2.42
7290.00,2.42
7289.00,2.41
7288.00,2.41
7287.00,2.41
7286.00,2.41
7285.00,2.42
7284.00,2.42
7283.00,2.43
7282.00,2.44
7281.00,2.45
7280.00,2.46
7279.00,2.47
7278.00,2.48
7277.00,2.49
7276.00,2.50
7275.00,2.51
7274.00,2.52
7273.00,2.53
7272.00,2.55
7271.00,2.56
7270.00,2.57
7269.00,2.58
7268.00,2.59
7267.00,2.60
7266.00,2.61
7265.00,2.62
7264.00,2.63
7263.00,2.64
7262.00,2.66
7261.00,2.67
7260.00,2.67
7259.00,2.68
7258.00,2.69
7257.00,2.69
7256.00,2.70
7255.00,2.70
7254.00,2.70
7253.00,2.70
7252.00,2.70
7251.00,2.70
7250.00,2.69
7249.00,2.69
7248.00,2.69
7247.00,2.68
7246.00,2.68
7245.00,2.67
7244.00,2.67
7243.00,2.66
7242.00,2.66
7241.00,2.65
7240.00,2.64
7239.00,2.64
7238.00,2.63
7237.00,2.63
7236.00,2.62
7235.00,2.62
7234.00,2.61
7233.00,2.60
7232.00,2.60
7231.00,2.59
7230.00,2.59
7229.00,2.59
7228.00,2.58
7227.00,2.58
7226.00,2.58
7225.00,2.57
7224.00,2.57
7223.00,2.57
7222.00,2.57
7221.00,2.56
7220.00,2.56
7219.00,2.56
7218.00,2.55
7217.00,2.55
7216.00,2.54
7215.00,2.54
7214.00,2.53
7213.00,2.52
7212.00,2.51
7211.00,2.51
7210.00,2.50
7209.00,2.49
7208.00,2.48
7207.00,2.47
7206.00,2.46
7205.00,2.45
7204.00,2.44
7203.00,2.43
7202.00,2.41
7201.00,2.40
7200.00,2.39
7199.00,2.38
7198.00,2.37
7197.00,2.36
7196.00,2.35
7195.00,2.34
7194.00,2.33
7193.00,2.32
7192.00,2.31
7191.00,2.30
7190.00,2.29
7189.00,2.28
7188.00,2.27
7187.00,2.26
7186.00,2.25
7185.00,2.24
7184.00,2.23
7183.00,2.22
7182.00,2.21
7181.00,2.20
7180.00,2.20
7179.00,2.19
7178.00,2.18
7177.00,2.17
7176.00,2.16
7175.00,2.15
7174.00,2.13
7173.00,2.12
7172.00,2.11
7171.00,2.10
7170.00,2.08
7169.00,2.07
7168.00,2.06
7167.00,2.05
7166.00,2.05
7165.00,2.04
7164.00,2.04
7163.00,2.04
7162.00,2.04
7161.00,2.04
7160.00,2.04
7159.00,2.05
7158.00,2.05
7157.00,2.05
7156.00,2.06
7155.00,2.06
7154.00,2.07
7153.00,2.07
7152.00,2.08
7151.00,2.08
7150.00,2.09
7149.00,2.10
7148.00,2.11
7147.00,2.12
7146.00,2.13
7145.00,2.14
7144.00,2.16
7143.00,2.17
7142.00,2.18
7141.00,2.19
7140.00,2.20
7139.00,2.20
7138.00,2.20
7137.00,2.20
7136.00,2.20
7135.00,2.20
7134.00,2.19
7133.00,2.19
7132.00,2.18
7131.00,2.17
7130.00,2.16
7129.00,2.15
7128.00,2.14
7127.00,2.13
7126.00,2.12
7125.00,2.10
7124.00,2.09
7123.00,2.07
7122.00,2.05
7121.00,2.04
7120.00,2.02
7119.00,2.00
7118.00,1.98
7117.00,1.96
7116.00,1.94
7115.00,1.92
7114.00,1.90
7113.00,1.88
7112.00,1.87
7111.00,1.85
7110.00,1.84
7109.00,1.83
7108.00,1.82
7107.00,1.81
7106.00,1.80
7105.00,1.80
7104.00,1.79
7103.00,1.79
7102.00,1.79
7101.00,1.79
7100.00,1.79
7099.00,1.79
7098.00,1.79
7097.00,1.79
7096.00,1.80
7095.00,1.81
7094.00,1.81
7093.00,1.82
7092.00,1.83
7091.00,1.84
7090.00,1.85
7089.00,1.86
7088.00,1.87
7087.00,1.88
7086.00,1.89
7085.00,1.89
7084.00,1.90
7083.00,1.91
7082.00,1.92
7081.00,1.92
7080.00,1.93
7079.00,1.93
7078.00,1.94
7077.00,1.94
7076.00,1.95
7075.00,1.95
7074.00,1.96
7073.00,1.96
7072.00,1.96
7071.00,1.96
7070.00,1.96
7069.00,1.96
7068.00,1.95
7067.00,1.95
7066.00,1.94
7065.00,1.94
7064.00,1.93
7063.00,1.92
7062.00,1.92
7061.00,1.91
7060.00,1.90
7059.00,1.90
7058.00,1.89
7057.00,1.88
7056.00,1.87
7055.00,1.86
7054.00,1.86
7053.00,1.85
7052.00,1.84
7051.00,1.83
7050.00,1.82
7049.00,1.81
7048.00,1.81
7047.00,1.80
7046.00,1.79
7045.00,1.78
7044.00,1.77
7043.00,1.76
7042.00,1.75
7041.00,1.74
7040.00,1.73
7039.00,1.73
7038.00,1.72
7037.00,1.72
7036.00,1.72
7035.00,1.71
7034.00,1.71
7033.00,1.71
7032.00,1.70
7031.00,1.70
7030.00,1.69
7029.00,1.69
7028.00,1.68
7027.00,1.68
7026.00,1.68
7025.00,1.67
7024.00,1.67
7023.00,1.67
7022.00,1.67
7021.00,1.66
7020.00,1.66
7019.00,1.66
7018.00,1.67
7017.00,1.67
7016.00,1.67
7015.00,1.67
7014.00,1.68
7013.00,1.68
7012.00,1.68
7011.00,1.69
7010.00,1.69
7009.00,1.69
7008.00,1.69
7007.00,1.70
7006.00,1.70
7005.00,1.71
7004.00,1.71
7003.00,1.71
7002.00,1.72
7001.00,1.72
7000.00,1.72
6999.00,1.72
6998.00,1.73
6997.00,1.73
6996.00,1.73
6995.00,1.73
6994.00,1.73
6993.00,1.73
6992.00,1.73
6991.00,1.72
6990.00,1.72
6989.00,1.72
6988.00,1.72
6987.00,1.71
6986.00,1.71
6985.00,1.70
6984.00,1.70
6983.00,1.69
6982.00,1.69
6981.00,1.68
6980.00,1.68
6979.00,1.67
6978.00,1.67
6977.00,1.66
6976.00,1.66
6975.00,1.66
6974.00,1.66
6973.00,1.66
6972.00,1.66
6971.00,1.66
6970.00,1.66
6969.00,1.67
6968.00,1.67
6967.00,1.67
6966.00,1.67
6965.00,1.67
6964.00,1.68
6963.00,1.68
6962.00,1.68
6961.00,1.68
6960.00,1.69
6959.00,1.69
6958.00,1.69
6957.00,1.70
6956.00,1.70
6955.00,1.70
6954.00,1.70
6953.00,1.70
6952.00,1.70
6951.00,1.70
6950.00,1.70
6949.00,1.70
6948.00,1.69
6947.00,1.69
6946.00,1.69
6945.00,1.68
6944.00,1.68
6943.00,1.67
6942.00,1.66
6941.00,1.66
6940.00,1.65
6939.00,1.65
6938.00,1.64
6937.00,1.64
6936.00,1.63
6935.00,1.63
6934.00,1.63
6933.00,1.62
6932.00,1.62
6931.00,1.62
6930.00,1.62
6929.00,1.62
6928.00,1.61
6927.00,1.61
6926.00,1.61
6925.00,1.60
6924.00,1.60
6923.00,1.60
6922.00,1.60
6921.00,1.60
6920.00,1.59
6919.00,1.59
6918.00,1.59
6917.00,1.59
6916.00,1.59
6915.00,1.59
6914.00,1.59
6913.00,1.59
6912.00,1.59
6911.00,1.59
6910.00,1.59
6909.00,1.59
6908.00,1.59
6907.00,1.58
6906.00,1.58
6905.00,1.57
6904.00,1.57
6903.00,1.56
6902.00,1.56
6901.00,1.56
6900.00,1.55
6899.00,1.55
6898.00,1.55
6897.00,1.55
6896.00,1.55
6895.00,1.55
6894.00,1.55
6893.00,1.55
6892.00,1.55
6891.00,1.55
6890.00,1.55
6889.00,1.55
6888.00,1.55
6887.00,1.55
6886.00,1.55
6885.00,1.55
6884.00,1.55
6883.00,1.55
6882.00,1.55
6881.00,1.55
6880.00,1.55
6879.00,1.55
6878.00,1.55
6877.00,1.55
6876.00,1.56
6875.00,1.56
6874.00,1.56
6873.00,1.56
6872.00,1.56
6871.00,1.56
6870.00,1.56
6869.00,1.56
6868.00,1.56
6867.00,1.56
6866.00,1.56
6865.00,1.57
6864.00,1.57
6863.00,1.57
6862.00,1.57
6861.00,1.57
6860.00,1.57
6859.00,1.57
6858.00,1.57
6857.00,1.57
6856.00,1.57
6855.00,1.57
6854.00,1.57
6853.00,1.57
6852.00,1.57
6851.00,1.57
6850.00,1.58
6849.00,1.58
6848.00,1.58
6847.00,1.58
6846.00,1.58
6845.00,1.58
6844.00,1.58
6843.00,1.58
6842.00,1.58
6841.00,1.58
6840.00,1.58
6839.00,1.58
6838.00,1.57
6837.00,1.57
6836.00,1.57
6835.00,1.56
6834.00,1.56
6833.00,1.56
6832.00,1.55
6831.00,1.55
6830.00,1.55
6829.00,1.55
6828.00,1.55
6827.00,1.54
6826.00,1.54
6825.00,1.54
6824.00,1.54
6823.00,1.53
6822.00,1.53
6821.00,1.52
6820.00,1.52
6819.00,1.51
6818.00,1.51
6817.00,1.50
6816.00,1.50
6815.00,1.49
6814.00,1.49
6813.00,1.48
6812.00,1.48
6811.00,1.48
6810.00,1.48
6809.00,1.48
6808.00,1.48
6807.00,1.48
6806.00,1.48
6805.00,1.48
6804.00,1.48
6803.00,1.48
6802.00,1.48
6801.00,1.47
6800.00,1.47
6799.00,1.47
6798.00,1.47
6797.00,1.47
6796.00,1.46
6795.00,1.46
6794.00,1.46
6793.00,1.47
6792.00,1.47
6791.00,1.47
6790.00,1.47
6789.00,1.47
6788.00,1.48
6787.00,1.48
6786.00,1.48
6785.00,1.48
6784.00,1.49
6783.00,1.49
6782.00,1.49
6781.00,1.50
6780.00,1.50
6779.00,1.51
6778.00,1.51
6777.00,1.52
6776.00,1.53
6775.00,1.54
6774.00,1.55
6773.00,1.56
6772.00,1.57
6771.00,1.58
6770.00,1.60
6769.00,1.61
6768.00,1.62
6767.00,1.62
6766.00,1.63
6765.00,1.64
6764.00,1.65
6763.00,1.66
6762.00,1.67
6761.00,1.68
6760.00,1.68
6759.00,1.69
6758.00,1.70
6757.00,1.71
6756.00,1.71
6755.00,1.72
6754.00,1.72
6753.00,1.73
6752.00,1.73
6751.00,1.73
6750.00,1.73
6749.00,1.73
6748.00,1.73
6747.00,1.73
6746.00,1.73
6745.00,1.73
6744.00,1.73
6743.00,1.73
6742.00,1.73
6741.00,1.73
6740.00,1.73
6739.00,1.73
6738.00,1.74
6737.00,1.74
6736.00,1.74
6735.00,1.74
6734.00,1.74
6733.00,1.74
6732.00,1.73
6731.00,1.73
6730.00,1.73
6729.00,1.73
6728.00,1.73
6727.00,1.73
6726.00,1.72
6725.00,1.72
6724.00,1.72
6723.00,1.73
6722.00,1.73
6721.00,1.73
6720.00,1.73
6719.00,1.73
6718.00,1.73
6717.00,1.73
6716.00,1.73
6715.00,1.73
6714.00,1.73
6713.00,1.73
6712.00,1.73
6711.00,1.72
6710.00,1.72
6709.00,1.72
6708.00,1.73
6707.00,1.73
6706.00,1.73
6705.00,1.73
6704.00,1.74
6703.00,1.74
6702.00,1.75
6701.00,1.75
6700.00,1.76
6699.00,1.76
6698.00,1.77
6697.00,1.77
6696.00,1.78
6695.00,1.78
6694.00,1.79
6693.00,1.79
6692.00,1.80
6691.00,1.80
6690.00,1.80
6689.00,1.81
6688.00,1.81
6687.00,1.82
6686.00,1.83
6685.00,1.83
6684.00,1.84
6683.00,1.84
6682.00,1.85
6681.00,1.85
6680.00,1.86
6679.00,1.86
6678.00,1.87
6677.00,1.87
6676.00,1.88
6675.00,1.88
6674.00,1.89
6673.00,1.89
6672.00,1.89
6671.00,1.89
6670.00,1.90
6669.00,1.90
6668.00,1.90
6667.00,1.90
6666.00,1.90
6665.00,1.90
6664.00,1.90
6663.00,1.90
6662.00,1.91
6661.00,1.91
6660.00,1.91
6659.00,1.91
6658.00,1.91
6657.00,1.91
6656.00,1.91
6655.00,1.91
6654.00,1.91
6653.00,1.91
6652.00,1.91
6651.00,1.91
6650.00,1.91
6649.00,1.91
6648.00,1.91
6647.00,1.92
6646.00,1.92
6645.00,1.92
6644.00,1.92
6643.00,1.93
6642.00,1.93
6641.00,1.93
6640.00,1.94
6639.00,1.94
6638.00,1.94
6637.00,1.95
6636.00,1.95
6635.00,1.96
6634.00,1.96
6633.00,1.97
6632.00,1.97
6631.00,1.97
6630.00,1.98
6629.00,1.98
6628.00,1.98
6627.00,1.98
6626.00,1.98
6625.00,1.99
6624.00,1.99
6623.00,1.99
6622.00,1.98
6621.00,1.98
6620.00,1.98
6619.00,1.98
6618.00,1.98
6617.00,1.98
6616.00,1.98
6615.00,1.98
6614.00,1.98
6613.00,1.98
6612.00,1.98
6611.00,1.98
6610.00,1.98
6609.00,1.98
6608.00,1.98
6607.00,1.98
6606.00,1.98
6605.00,1.98
6604.00,1.98
6603.00,1.99
6602.00,1.99
6601.00,1.99
6600.00,2.00
6599.00,2.00
6598.00,2.00
6597.00,2.01
6596.00,2.02
6595.00,2.02
6594.00,2.03
6593.00,2.03
6592.00,2.04
6591.00,2.05
6590.00,2.05
6589.00,2.06
6588.00,2.06
6587.00,2.07
6586.00,2.08
6585.00,2.08
6584.00,2.09
6583.00,2.10
6582.00,2.10
6581.00,2.11
6580.00,2.11
6579.00,2.12
6578.00,2.12
6577.00,2.13
6576.00,2.14
6575.00,2.14
6574.00,2.15
6573.00,2.15
6572.00,2.16
6571.00,2.16
6570.00,2.17
6569.00,2.17
6568.00,2.17
6567.00,2.18
6566.00,2.18
6565.00,2.18
6564.00,2.18
6563.00,2.19
6562.00,2.19
6561.00,2.19
6560.00,2.19
6559.00,2.19
6558.00,2.19
6557.00,2.19
6556.00,2.19
6555.00,2.19
6554.00,2.19
6553.00,2.19
6552.00,2.18
6551.00,2.18
6550.00,2.18
6549.00,2.18
6548.00,2.17
6547.00,2.17
6546.00,2.16
6545.00,2.16
6544.00,2.15
6543.00,2.15
6542.00,2.15
6541.00,2.14
6540.00,2.14
6539.00,2.14
6538.00,2.13
6537.00,2.13
6536.00,2.13
6535.00,2.12
6534.00,2.12
6533.00,2.12
6532.00,2.12
6531.00,2.11
6530.00,2.11
6529.00,2.11
6528.00,2.11
6527.00,2.11
6526.00,2.11
6525.00,2.11
6524.00,2.11
6523.00,2.11
6522.00,2.12
6521.00,2.12
6520.00,2.12
6519.00,2.12
6518.00,2.13
6517.00,2.13
6516.00,2.13
6515.00,2.13
6514.00,2.13
6513.00,2.14
6512.00,2.14
6511.00,2.14
6510.00,2.14
6509.00,2.14
6508.00,2.15
6507.00,2.15
6506.00,2.15
6505.00,2.15
6504.00,2.15
6503.00,2.15
6502.00,2.15
6501.00,2.15
6500.00,2.15
6499.00,2.15
6498.00,2.16
6497.00,2.16
6496.00,2.16
6495.00,2.16
6494.00,2.16
6493.00,2.16
6492.00,2.17
6491.00,2.17
6490.00,2.17
6489.00,2.18
6488.00,2.18
6487.00,2.18
6486.00,2.19
6485.00,2.19
6484.00,2.19
6483.00,2.20
6482.00,2.20
6481.00,2.21
6480.00,2.21
6479.00,2.22
6478.00,2.22
6477.00,2.23
6476.00,2.23
6475.00,2.24
6474.00,2.24
6473.00,2.24
6472.00,2.25
6471.00,2.25
6470.00,2.25
6469.00,2.25
6468.00,2.25
6467.00,2.25
6466.00,2.25
6465.00,2.25
6464.00,2.25
6463.00,2.25
6462.00,2.25
6461.00,2.25
6460.00,2.24
6459.00,2.24
6458.00,2.24
6457.00,2.24
6456.00,2.23
6455.00,2.23
6454.00,2.23
6453.00,2.22
6452.00,2.22
6451.00,2.22
6450.00,2.22
6449.00,2.22
6448.00,2.22
6447.00,2.21
6446.00,2.21
6445.00,2.22
6444.00,2.22
6443.00,2.22
6442.00,2.22
6441.00,2.22
6440.00,2.22
6439.00,2.23
6438.00,2.23
6437.00,2.23
6436.00,2.24
6435.00,2.24
6434.00,2.25
6433.00,2.25
6432.00,2.26
6431.00,2.26
6430.00,2.27
6429.00,2.28
6428.00,2.28
6427.00,2.29
6426.00,2.29
6425.00,2.29
6424.00,2.30
6423.00,2.30
6422.00,2.30
6421.00,2.30
6420.00,2.30
6419.00,2.30
6418.00,2.30
6417.00,2.30
6416.00,2.30
6415.00,2.30
6414.00,2.30
6413.00,2.30
6412.00,2.30
6411.00,2.30
6410.00,2.30
6409.00,2.30
6408.00,2.31
6407.00,2.31
6406.00,2.32
6405.00,2.32
6404.00,2.33
6403.00,2.33
6402.00,2.34
6401.00,2.35
6400.00,2.35
6399.00,2.36
6398.00,2.37
6397.00,2.38
6396.00,2.39
6395.00,2.40
6394.00,2.41
6393.00,2.42
6392.00,2.43
6391.00,2.44
6390.00,2.46
6389.00,2.47
6388.00,2.48
6387.00,2.49
6386.00,2.49
6385.00,2.50
6384.00,2.51
6383.00,2.51
6382.00,2.52
6381.00,2.52
6380.00,2.52
6379.00,2.52
6378.00,2.52
6377.00,2.52
6376.00,2.52
6375.00,2.52
6374.00,2.51
6373.00,2.51
6372.00,2.51
6371.00,2.50
6370.00,2.50
6369.00,2.49
6368.00,2.49
6367.00,2.49
6366.00,2.48
6365.00,2.48
6364.00,2.47
6363.00,2.47
6362.00,2.47
6361.00,2.46
6360.00,2.46
6359.00,2.46
6358.00,2.45
6357.00,2.45
6356.00,2.44
6355.00,2.44
6354.00,2.43
6353.00,2.43
6352.00,2.42
6351.00,2.42
6350.00,2.41
6349.00,2.41
6348.00,2.41
6347.00,2.41
6346.00,2.40
6345.00,2.40
6344.00,2.40
6343.00,2.40
6342.00,2.40
6341.00,2.40
6340.00,2.40
6339.00,2.39
6338.00,2.39
6337.00,2.39
6336.00,2.39
6335.00,2.38
6334.00,2.38
6333.00,2.38
6332.00,2.38
6331.00,2.38
6330.00,2.38
6329.00,2.38
6328.00,2.39
6327.00,2.39
6326.00,2.40
6325.00,2.40
6324.00,2.41
6323.00,2.41
6322.00,2.42
6321.00,2.42
6320.00,2.43
6319.00,2.43
6318.00,2.44
6317.00,2.44
6316.00,2.44
6315.00,2.45
6314.00,2.45
6313.00,2.46
6312.00,2.46
6311.00,2.47
6310.00,2.47
6309.00,2.48
6308.00,2.48
6307.00,2.49
6306.00,2.49
6305.00,2.50
6304.00,2.50
6303.00,2.51
6302.00,2.51
6301.00,2.51
6300.00,2.52
6299.00,2.52
6298.00,2.52
6297.00,2.52
6296.00,2.52
6295.00,2.53
6294.00,2.53
6293.00,2.53
6292.00,2.53
6291.00,2.53
6290.00,2.54
6289.00,2.54
6288.00,2.54
6287.00,2.54
6286.00,2.54
6285.00,2.54
6284.00,2.55
6283.00,2.55
6282.00,2.55
6281.00,2.55
6280.00,2.55
6279.00,2.55
6278.00,2.55
6277.00,2.55
6276.00,2.55
6275.00,2.54
6274.00,2.54
6273.00,2.54
6272.00,2.54
6271.00,2.54
6270.00,2.54
6269.00,2.54
6268.00,2.54
6267.00,2.54
6266.00,2.54
6265.00,2.54
6264.00,2.54
6263.00,2.55
6262.00,2.55
6261.00,2.55
6260.00,2.55
6259.00,2.55
6258.00,2.55
6257.00,2.56
6256.00,2.56
6255.00,2.56
6254.00,2.57
6253.00,2.57
6252.00,2.58
6251.00,2.58
6250.00,2.59
6249.00,2.60
6248.00,2.60
6247.00,2.61
6246.00,2.62
6245.00,2.62
6244.00,2.63
6243.00,2.63
6242.00,2.63
6241.00,2.64
6240.00,2.64
6239.00,2.64
6238.00,2.64
6237.00,2.64
6236.00,2.64
6235.00,2.64
6234.00,2.65
6233.00,2.64
6232.00,2.64
6231.00,2.64
6230.00,2.64
6229.00,2.64
6228.00,2.63
6227.00,2.63
6226.00,2.63
6225.00,2.62
6224.00,2.62
6223.00,2.61
6222.00,2.61
6221.00,2.61
6220.00,2.60
6219.00,2.60
6218.00,2.59
6217.00,2.59
6216.00,2.59
6215.00,2.59
6214.00,2.59
6213.00,2.58
6212.00,2.58
6211.00,2.58
6210.00,2.58
6209.00,2.58
6208.00,2.58
6207.00,2.58
6206.00,2.58
6205.00,2.58
6204.00,2.58
6203.00,2.58
6202.00,2.58
6201.00,2.58
6200.00,2.58
6199.00,2.59
6198.00,2.59
6197.00,2.59
6196.00,2.59
6195.00,2.59
6194.00,2.59
6193.00,2.59
6192.00,2.60
6191.00,2.60
6190.00,2.60
6189.00,2.60
6188.00,2.60
6187.00,2.60
6186.00,2.60
6185.00,2.60
6184.00,2.60
6183.00,2.60
6182.00,2.60
6181.00,2.60
6180.00,2.60
6179.00,2.60
6178.00,2.60
6177.00,2.61
6176.00,2.61
6175.00,2.61
6174.00,2.61
6173.00,2.61
6172.00,2.62
6171.00,2.62
6170.00,2.62
6169.00,2.62
6168.00,2.62
6167.00,2.62
6166.00,2.62
6165.00,2.62
6164.00,2.62
6163.00,2.62
6162.00,2.62
6161.00,2.62
6160.00,2.62
6159.00,2.62
6158.00,2.61
6157.00,2.61
6156.00,2.61
6155.00,2.61
6154.00,2.61
6153.00,2.62
6152.00,2.62
6151.00,2.62
6150.00,2.62
6149.00,2.62
6148.00,2.62
6147.00,2.61
6146.00,2.61
6145.00,2.61
6144.00,2.61
6143.00,2.61
6142.00,2.61
6141.00,2.61
6140.00,2.61
6139.00,2.61
6138.00,2.61
6137.00,2.61
6136.00,2.61
6135.00,2.61
6134.00,2.61
6133.00,2.61
6132.00,2.62
6131.00,2.62
6130.00,2.62
6129.00,2.62
6128.00,2.62
6127.00,2.62
6126.00,2.62
6125.00,2.62
6124.00,2.62
6123.00,2.62
6122.00,2.63
6121.00,2.63
6120.00,2.63
6119.00,2.63
6118.00,2.63
6117.00,2.64
6116.00,2.64
6115.00,2.64
6114.00,2.65
6113.00,2.65
6112.00,2.66
6111.00,2.67
6110.00,2.67
6109.00,2.68
6108.00,2.69
6107.00,2.70
6106.00,2.70
6105.00,2.71
6104.00,2.72
6103.00,2.73
6102.00,2.73
6101.00,2.74
6100.00,2.75
6099.00,2.75
6098.00,2.76
6097.00,2.77
6096.00,2.77
6095.00,2.78
6094.00,2.78
6093.00,2.79
6092.00,2.80
6091.00,2.80
6090.00,2.81
6089.00,2.81
6088.00,2.82
6087.00,2.82
6086.00,2.82
6085.00,2.82
6084.00,2.82
6083.00,2.82
6082.00,2.82
6081.00,2.82
6080.00,2.82
6079.00,2.82
6078.00,2.82
6077.00,2.82
6076.00,2.82
6075.00,2.82
6074.00,2.82
6073.00,2.82
6072.00,2.82
6071.00,2.81
6070.00,2.81
6069.00,2.81
6068.00,2.81
6067.00,2.81
6066.00,2.81
6065.00,2.81
6064.00,2.80
6063.00,2.80
6062.00,2.80
6061.00,2.80
6060.00,2.80
6059.00,2.80
6058.00,2.79
6057.00,2.79
6056.00,2.79
6055.00,2.79
6054.00,2.79
6053.00,2.78
6052.00,2.78
6051.00,2.78
6050.00,2.78
6049.00,2.78
6048.00,2.78
6047.00,2.79
6046.00,2.79
6045.00,2.79
6044.00,2.79
6043.00,2.80
6042.00,2.80
6041.00,2.80
6040.00,2.81
6039.00,2.81
6038.00,2.82
6037.00,2.82
6036.00,2.83
6035.00,2.83
6034.00,2.84
6033.00,2.84
6032.00,2.85
6031.00,2.85
6030.00,2.86
6029.00,2.86
6028.00,2.87
6027.00,2.87
6026.00,2.88
6025.00,2.88
6024.00,2.88
6023.00,2.88
6022.00,2.88
6021.00,2.88
6020.00,2.88
6019.00,2.88
6018.00,2.88
6017.00,2.88
6016.00,2.88
6015.00,2.88
6014.00,2.88
6013.00,2.87
6012.00,2.87
6011.00,2.87
6010.00,2.87
6009.00,2.86
6008.00,2.86
6007.00,2.86
6006.00,2.85
6005.00,2.85
6004.00,2.85
6003.00,2.85
6002.00,2.84
6001.00,2.84
6000.00,2.84
5999.00,2.84
5998.00,2.85
5997.00,2.85
5996.00,2.85
5995.00,2.85
5994.00,2.85
5993.00,2.86
5992.00,2.86
5991.00,2.86
5990.00,2.86
5989.00,2.86
5988.00,2.86
5987.00,2.86
5986.00,2.86
5985.00,2.86
5984.00,2.86
5983.00,2.86
5982.00,2.86
5981.00,2.85
5980.00,2.85
5979.00,2.85
5978.00,2.85
5977.00,2.85
5976.00,2.85
5975.00,2.84
5974.00,2.84
5973.00,2.83
5972.00,2.83
5971.00,2.82
5970.00,2.82
5969.00,2.81
5968.00,2.81
5967.00,2.80
5966.00,2.80
5965.00,2.79
5964.00,2.79
5963.00,2.78
5962.00,2.78
5961.00,2.77
5960.00,2.77
5959.00,2.77
5958.00,2.76
5957.00,2.76
5956.00,2.76
5955.00,2.75
5954.00,2.75
5953.00,2.75
5952.00,2.74
5951.00,2.74
5950.00,2.74
5949.00,2.73
5948.00,2.73
5947.00,2.72
5946.00,2.72
5945.00,2.72
5944.00,2.71
5943.00,2.71
5942.00,2.70
5941.00,2.70
5940.00,2.70
5939.00,2.69
5938.00,2.69
5937.00,2.68
5936.00,2.68
5935.00,2.67
5934.00,2.67
5933.00,2.66
5932.00,2.66
5931.00,2.65
5930.00,2.65
5929.00,2.64
5928.00,2.64
5927.00,2.64
5926.00,2.63
5925.00,2.63
5924.00,2.63
5923.00,2.62
5922.00,2.62
5921.00,2.62
5920.00,2.61
5919.00,2.61
5918.00,2.61
5917.00,2.61
5916.00,2.61
5915.00,2.61
5914.00,2.61
5913.00,2.61
5912.00,2.61
5911.00,2.61
5910.00,2.61
5909.00,2.61
5908.00,2.61
5907.00,2.61
5906.00,2.62
5905.00,2.62
5904.00,2.62
5903.00,2.62
5902.00,2.63
5901.00,2.63
5900.00,2.63
5899.00,2.64
5898.00,2.64
5897.00,2.65
5896.00,2.65
5895.00,2.65
5894.00,2.66
5893.00,2.66
5892.00,2.67
5891.00,2.68
5890.00,2.68
5889.00,2.68
5888.00,2.69
5887.00,2.69
5886.00,2.70
5885.00,2.71
5884.00,2.71
5883.00,2.72
5882.00,2.72
5881.00,2.73
5880.00,2.73
5879.00,2.74
5878.00,2.74
5877.00,2.74
5876.00,2.74
5875.00,2.74
5874.00,2.74
5873.00,2.74
5872.00,2.74
5871.00,2.74
5870.00,2.74
5869.00,2.74
5868.00,2.74
5867.00,2.74
5866.00,2.74
5865.00,2.74
5864.00,2.74
5863.00,2.74
5862.00,2.74
5861.00,2.74
5860.00,2.74
5859.00,2.73
5858.00,2.73
5857.00,2.73
5856.00,2.73
5855.00,2.72
5854.00,2.72
5853.00,2.72
5852.00,2.72
5851.00,2.71
5850.00,2.71
5849.00,2.71
5848.00,2.71
5847.00,2.71
5846.00,2.71
5845.00,2.71
5844.00,2.71
5843.00,2.70
5842.00,2.70
5841.00,2.70
5840.00,2.70
5839.00,2.70
5838.00,2.70
5837.00,2.69
5836.00,2.69
5835.00,2.69
5834.00,2.69
5833.00,2.69
5832.00,2.68
5831.00,2.68
5830.00,2.68
5829.00,2.68
5828.00,2.68
5827.00,2.68
5826.00,2.68
5825.00,2.68
5824.00,2.68
5823.00,2.68
5822.00,2.69
5821.00,2.69
5820.00,2.69
5819.00,2.69
5818.00,2.70
5817.00,2.70
5816.00,2.70
5815.00,2.70
5814.00,2.71
5813.00,2.71
5812.00,2.71
5811.00,2.72
5810.00,2.72
5809.00,2.72
5808.00,2.73
5807.00,2.73
5806.00,2.73
5805.00,2.73
5804.00,2.74
5803.00,2.74
5802.00,2.74
5801.00,2.74
5800.00,2.75
5799.00,2.75
5798.00,2.75
5797.00,2.75
5796.00,2.75
5795.00,2.75
5794.00,2.75
5793.00,2.74
5792.00,2.74
5791.00,2.74
5790.00,2.74
5789.00,2.73
5788.00,2.73
5787.00,2.73
5786.00,2.72
5785.00,2.72
5784.00,2.72
5783.00,2.71
5782.00,2.71
5781.00,2.70
5780.00,2.70
5779.00,2.70
5778.00,2.69
5777.00,2.69
5776.00,2.69
5775.00,2.68
5774.00,2.68
5773.00,2.68
5772.00,2.67
5771.00,2.67
5770.00,2.67
5769.00,2.66
5768.00,2.66
5767.00,2.66
5766.00,2.66
5765.00,2.66
5764.00,2.66
5763.00,2.66
5762.00,2.66
5761.00,2.66
5760.00,2.66
5759.00,2.66
5758.00,2.67
5757.00,2.67
5756.00,2.67
5755.00,2.68
5754.00,2.68
5753.00,2.68
5752.00,2.68
5751.00,2.69
5750.00,2.69
5749.00,2.69
5748.00,2.69
5747.00,2.69
5746.00,2.69
5745.00,2.69
5744.00,2.69
5743.00,2.69
5742.00,2.69
5741.00,2.69
5740.00,2.69
5739.00,2.69
5738.00,2.69
5737.00,2.69
5736.00,2.69
5735.00,2.69
5734.00,2.69
5733.00,2.69
5732.00,2.69
5731.00,2.69
5730.00,2.69
5729.00,2.69
5728.00,2.69
5727.00,2.69
5726.00,2.69
5725.00,2.69
5724.00,2.69
5723.00,2.69
5722.00,2.69
5721.00,2.70
5720.00,2.70
5719.00,2.70
5718.00,2.70
5717.00,2.70
5716.00,2.70
5715.00,2.71
5714.00,2.71
5713.00,2.71
5712.00,2.71
5711.00,2.72
5710.00,2.72
5709.00,2.72
5708.00,2.72
5707.00,2.73
5706.00,2.73
5705.00,2.73
5704.00,2.73
5703.00,2.73
5702.00,2.73
5701.00,2.73
5700.00,2.73
5699.00,2.73
5698.00,2.73
5697.00,2.73
5696.00,2.72
5695.00,2.72
5694.00,2.72
5693.00,2.72
5692.00,2.72
5691.00,2.71
5690.00,2.71
5689.00,2.71
5688.00,2.71
5687.00,2.70
5686.00,2.70
5685.00,2.70
5684.00,2.69
5683.00,2.69
5682.00,2.68
5681.00,2.68
5680.00,2.68
5679.00,2.67
5678.00,2.67
5677.00,2.67
5676.00,2.66
5675.00,2.66
5674.00,2.66
5673.00,2.66
5672.00,2.66
5671.00,2.66
5670.00,2.66
5669.00,2.66
5668.00,2.66
5667.00,2.66
5666.00,2.66
5665.00,2.66
5664.00,2.65
5663.00,2.65
5662.00,2.66
5661.00,2.66
5660.00,2.66
5659.00,2.66
5658.00,2.66
5657.00,2.67
5656.00,2.67
5655.00,2.67
5654.00,2.67
5653.00,2.67
5652.00,2.67
5651.00,2.67
5650.00,2.67
5649.00,2.67
5648.00,2.67
5647.00,2.67
5646.00,2.67
5645.00,2.67
5644.00,2.67
5643.00,2.68
5642.00,2.68
5641.00,2.68
5640.00,2.68
5639.00,2.68
5638.00,2.68
5637.00,2.68
5636.00,2.68
5635.00,2.68
5634.00,2.68
5633.00,2.68
5632.00,2.68
5631.00,2.68
5630.00,2.69
5629.00,2.69
5628.00,2.69
5627.00,2.69
5626.00,2.70
5625.00,2.70
5624.00,2.71
5623.00,2.71
5622.00,2.72
5621.00,2.73
5620.00,2.73
5619.00,2.74
5618.00,2.75
5617.00,2.75
5616.00,2.76
5615.00,2.76
5614.00,2.77
5613.00,2.77
5612.00,2.78
5611.00,2.78
5610.00,2.78
5609.00,2.79
5608.00,2.79
5607.00,2.79
5606.00,2.80
5605.00,2.80
5604.00,2.80
5603.00,2.80
5602.00,2.80
5601.00,2.80
5600.00,2.80
5599.00,2.80
5598.00,2.80
5597.00,2.80
5596.00,2.80
5595.00,2.79
5594.00,2.79
5593.00,2.79
5592.00,2.78
5591.00,2.78
5590.00,2.78
5589.00,2.78
5588.00,2.77
5587.00,2.77
5586.00,2.77
5585.00,2.77
5584.00,2.77
5583.00,2.77
5582.00,2.77
5581.00,2.77
5580.00,2.77
5579.00,2.78
5578.00,2.78
5577.00,2.78
5576.00,2.78
5575.00,2.78
5574.00,2.79
5573.00,2.79
5572.00,2.79
5571.00,2.79
5570.00,2.80
5569.00,2.80
5568.00,2.80
5567.00,2.81
5566.00,2.81
5565.00,2.81
5564.00,2.81
5563.00,2.81
5562.00,2.81
5561.00,2.82
5560.00,2.82
5559.00,2.82
5558.00,2.82
5557.00,2.81
5556.00,2.81
5555.00,2.81
5554.00,2.81
5553.00,2.81
5552.00,2.81
5551.00,2.81
5550.00,2.80
5549.00,2.80
5548.00,2.80
5547.00,2.80
5546.00,2.79
5545.00,2.79
5544.00,2.79
5543.00,2.79
5542.00,2.79
5541.00,2.79
5540.00,2.79
5539.00,2.79
5538.00,2.79
5537.00,2.79
5536.00,2.79
5535.00,2.79
5534.00,2.79
5533.00,2.80
5532.00,2.80
5531.00,2.80
5530.00,2.80
5529.00,2.81
5528.00,2.81
5527.00,2.82
5526.00,2.82
5525.00,2.82
5524.00,2.83
5523.00,2.83
5522.00,2.83
5521.00,2.84
5520.00,2.84
5519.00,2.84
5518.00,2.84
5517.00,2.85
5516.00,2.85
5515.00,2.85
5514.00,2.85
5513.00,2.85
5512.00,2.85
5511.00,2.86
5510.00,2.86
5509.00,2.86
5508.00,2.86
5507.00,2.86
5506.00,2.86
5505.00,2.85
5504.00,2.85
5503.00,2.85
5502.00,2.85
5501.00,2.85
5500.00,2.85
5499.00,2.85
5498.00,2.86
5497.00,2.86
5496.00,2.86
5495.00,2.86
5494.00,2.86
5493.00,2.86
5492.00,2.86
5491.00,2.86
5490.00,2.86
5489.00,2.86
5488.00,2.86
5487.00,2.87
5486.00,2.87
5485.00,2.87
5484.00,2.87
5483.00,2.87
5482.00,2.87
5481.00,2.88
5480.00,2.88
5479.00,2.88
5478.00,2.88
5477.00,2.89
5476.00,2.89
5475.00,2.89
5474.00,2.89
5473.00,2.89
5472.00,2.90
5471.00,2.90
5470.00,2.90
5469.00,2.90
5468.00,2.91
5467.00,2.91
5466.00,2.92
5465.00,2.92
5464.00,2.92
5463.00,2.93
5462.00,2.93
5461.00,2.93
5460.00,2.93
5459.00,2.93
5458.00,2.93
5457.00,2.93
5456.00,2.93
5455.00,2.93
5454.00,2.92
5453.00,2.92
5452.00,2.92
5451.00,2.91
5450.00,2.90
5449.00,2.90
5448.00,2.89
5447.00,2.89
5446.00,2.88
5445.00,2.87
5444.00,2.86
5443.00,2.86
5442.00,2.85
5441.00,2.84
5440.00,2.83
5439.00,2.82
5438.00,2.81
5437.00,2.80
5436.00,2.79
5435.00,2.78
5434.00,2.78
5433.00,2.77
5432.00,2.76
5431.00,2.76
5430.00,2.76
5429.00,2.75
5428.00,2.75
5427.00,2.75
5426.00,2.76
5425.00,2.76
5424.00,2.76
5423.00,2.77
5422.00,2.77
5421.00,2.77
5420.00,2.78
5419.00,2.78
5418.00,2.79
5417.00,2.79
5416.00,2.79
5415.00,2.80
5414.00,2.80
5413.00,2.80
5412.00,2.81
5411.00,2.81
5410.00,2.82
5409.00,2.82
5408.00,2.83
5407.00,2.83
5406.00,2.83
5405.00,2.84
5404.00,2.84
5403.00,2.84
5402.00,2.84
5401.00,2.84
5400.00,2.84
5399.00,2.84
5398.00,2.83
5397.00,2.83
5396.00,2.82
5395.00,2.81
5394.00,2.81
5393.00,2.80
5392.00,2.80
5391.00,2.79
5390.00,2.78
5389.00,2.78
5388.00,2.77
5387.00,2.77
5386.00,2.76
5385.00,2.76
5384.00,2.75
5383.00,2.75
5382.00,2.74
5381.00,2.74
5380.00,2.73
5379.00,2.73
5378.00,2.72
5377.00,2.72
5376.00,2.71
5375.00,2.70
5374.00,2.70
5373.00,2.69
5372.00,2.69
5371.00,2.68
5370.00,2.68
5369.00,2.67
5368.00,2.67
5367.00,2.66
5366.00,2.66
5365.00,2.65
5364.00,2.65
5363.00,2.64
5362.00,2.64
5361.00,2.63
5360.00,2.62
5359.00,2.61
5358.00,2.60
5357.00,2.59
5356.00,2.58
5355.00,2.56
5354.00,2.55
5353.00,2.54
5352.00,2.52
5351.00,2.51
5350.00,2.49
5349.00,2.48
5348.00,2.46
5347.00,2.45
5346.00,2.44
5345.00,2.42
5344.00,2.40
5343.00,2.39
5342.00,2.37
5341.00,2.35
5340.00,2.34
5339.00,2.32
5338.00,2.30
5337.00,2.29
5336.00,2.27
5335.00,2.25
5334.00,2.24
5333.00,2.22
5332.00,2.21
5331.00,2.19
5330.00,2.18
5329.00,2.16
5328.00,2.15
5327.00,2.13
5326.00,2.12
5325.00,2.10
5324.00,2.09
5323.00,2.08
5322.00,2.06
5321.00,2.05
5320.00,2.03
5319.00,2.02
5318.00,2.00
5317.00,1.99
5316.00,1.97
5315.00,1.96
5314.00,1.94
5313.00,1.93
5312.00,1.91
5311.00,1.89
5310.00,1.88
5309.00,1.86
5308.00,1.84
5307.00,1.82
5306.00,1.80
5305.00,1.79
5304.00,1.77
5303.00,1.75
5302.00,1.73
5301.00,1.71
5300.00,1.69
5299.00,1.67
5298.00,1.65
5297.00,1.63
5296.00,1.61
5295.00,1.59
5294.00,1.57
5293.00,1.55
5292.00,1.54
5291.00,1.52
5290.00,1.50
5289.00,1.48
5288.00,1.47
5287.00,1.45
5286.00,1.44
5285.00,1.42
5284.00,1.41
5283.00,1.39
5282.00,1.38
5281.00,1.37
5280.00,1.36
5279.00,1.34
5278.00,1.33
5277.00,1.32
5276.00,1.31
5275.00,1.30
5274.00,1.29
5273.00,1.28
5272.00,1.27
5271.00,1.26
5270.00,1.25
5269.00,1.25
5268.00,1.24
5267.00,1.24
5266.00,1.23
5265.00,1.22
5264.00,1.22
5263.00,1.21
5262.00,1.20
5261.00,1.20
5260.00,1.19
5259.00,1.19
5258.00,1.18
5257.00,1.17
5256.00,1.17
5255.00,1.16
5254.00,1.16
5253.00,1.15
5252.00,1.14
5251.00,1.14
5250.00,1.13
5249.00,1.13
5248.00,1.12
5247.00,1.12
5246.00,1.12
5245.00,1.11
5244.00,1.11
5243.00,1.10
5242.00,1.10
5241.00,1.09
5240.00,1.09
5239.00,1.08
5238.00,1.08
5237.00,1.08
5236.00,1.07
5235.00,1.07
5234.00,1.07
5233.00,1.07
5232.00,1.06
5231.00,1.06
5230.00,1.06
5229.00,1.06
5228.00,1.06
5227.00,1.05
5226.00,1.05
5225.00,1.05
5224.00,1.05
5223.00,1.05
5222.00,1.05
5221.00,1.05
5220.00,1.04
5219.00,1.04
5218.00,1.04
5217.00,1.04
5216.00,1.04
5215.00,1.04
5214.00,1.04
5213.00,1.04
5212.00,1.03
5211.00,1.03
5210.00,1.03
5209.00,1.03
5208.00,1.03
5207.00,1.02
5206.00,1.02
5205.00,1.02
5204.00,1.02
5203.00,1.01
5202.00,1.01
5201.00,1.01
5200.00,1.01
5199.00,1.01
5198.00,1.01
5197.00,1.01
5196.00,1.00
5195.00,1.00
5194.00,1.00
5193.00,1.00
5192.00,1.00
5191.00,1.00
5190.00,1.00
5189.00,1.00
5188.00,1.00
5187.00,1.00
5186.00,1.00
5185.00,1.00
5184.00,1.00
5183.00,1.00
5182.00,1.00
5181.00,1.00
5180.00,1.00
5179.00,1.01
5178.00,1.01
5177.00,1.01
5176.00,1.01
5175.00,1.02
5174.00,1.02
5173.00,1.02
5172.00,1.02
5171.00,1.03
5170.00,1.03
5169.00,1.04
5168.00,1.04
5167.00,1.05
5166.00,1.05
5165.00,1.06
5164.00,1.06
5163.00,1.07
5162.00,1.07
5161.00,1.08
5160.00,1.08
5159.00,1.08
5158.00,1.09
5157.00,1.09
5156.00,1.09
5155.00,1.10
5154.00,1.10
5153.00,1.10
5152.00,1.10
5151.00,1.11
5150.00,1.11
5149.00,1.11
5148.00,1.11
5147.00,1.11
5146.00,1.11
5145.00,1.11
5144.00,1.11
5143.00,1.11
5142.00,1.11
5141.00,1.11
5140.00,1.10
5139.00,1.10
5138.00,1.10
5137.00,1.10
5136.00,1.09
5135.00,1.09
5134.00,1.09
5133.00,1.09
5132.00,1.09
5131.00,1.09
5130.00,1.09
5129.00,1.09
5128.00,1.09
5127.00,1.08
5126.00,1.08
5125.00,1.08
5124.00,1.08
5123.00,1.08
5122.00,1.08
5121.00,1.09
5120.00,1.09
5119.00,1.09
5118.00,1.09
5117.00,1.09
5116.00,1.10
5115.00,1.10
5114.00,1.10
5113.00,1.11
5112.00,1.11
5111.00,1.11
5110.00,1.12
5109.00,1.12
5108.00,1.12
5107.00,1.13
5106.00,1.13
5105.00,1.13
5104.00,1.14
5103.00,1.14
5102.00,1.15
5101.00,1.15
5100.00,1.15
5099.00,1.16
5098.00,1.16
5097.00,1.17
5096.00,1.17
5095.00,1.17
5094.00,1.18
5093.00,1.18
5092.00,1.18
5091.00,1.19
5090.00,1.19
5089.00,1.20
5088.00,1.20
5087.00,1.20
5086.00,1.21
5085.00,1.21
5084.00,1.22
5083.00,1.22
5082.00,1.22
5081.00,1.23
5080.00,1.23
5079.00,1.24
5078.00,1.24
5077.00,1.25
5076.00,1.25
5075.00,1.25
5074.00,1.25
5073.00,1.26
5072.00,1.26
5071.00,1.26
5070.00,1.27
5069.00,1.27
5068.00,1.27
5067.00,1.27
5066.00,1.28
5065.00,1.28
5064.00,1.28
5063.00,1.29
5062.00,1.29
5061.00,1.30
5060.00,1.30
5059.00,1.30
5058.00,1.31
5057.00,1.31
5056.00,1.31
5055.00,1.31
5054.00,1.31
5053.00,1.32
5052.00,1.32
5051.00,1.32
5050.00,1.32
5049.00,1.33
5048.00,1.33
5047.00,1.33
5046.00,1.34
5045.00,1.34
5044.00,1.34
5043.00,1.34
5042.00,1.34
5041.00,1.34
5040.00,1.34
5039.00,1.34
5038.00,1.34
5037.00,1.34
5036.00,1.34
5035.00,1.34
5034.00,1.34
5033.00,1.34
5032.00,1.34
5031.00,1.34
5030.00,1.34
5029.00,1.34
5028.00,1.34
5027.00,1.35
5026.00,1.35
5025.00,1.35
5024.00,1.35
5023.00,1.36
5022.00,1.36
5021.00,1.36
5020.00,1.37
5019.00,1.37
5018.00,1.37
5017.00,1.38
5016.00,1.38
5015.00,1.39
5014.00,1.39
5013.00,1.40
5012.00,1.40
5011.00,1.41
5010.00,1.42
5009.00,1.42
5008.00,1.43
5007.00,1.43
5006.00,1.44
5005.00,1.45
5004.00,1.45
5003.00,1.46
5002.00,1.46
5001.00,1.47
5000.00,1.47
4999.00,1.47
4998.00,1.48
4997.00,1.48
4996.00,1.48
4995.00,1.49
4994.00,1.49
4993.00,1.49
4992.00,1.50
4991.00,1.50
4990.00,1.50
4989.00,1.51
4988.00,1.51
4987.00,1.51
4986.00,1.52
4985.00,1.52
4984.00,1.53
4983.00,1.53
4982.00,1.53
4981.00,1.54
4980.00,1.54
4979.00,1.55
4978.00,1.55
4977.00,1.55
4976.00,1.55
4975.00,1.56
4974.00,1.56
4973.00,1.57
4972.00,1.57
4971.00,1.57
4970.00,1.58
4969.00,1.58
4968.00,1.58
4967.00,1.59
4966.00,1.59
4965.00,1.59
4964.00,1.59
4963.00,1.60
4962.00,1.60
4961.00,1.60
4960.00,1.60
4959.00,1.61
4958.00,1.61
4957.00,1.61
4956.00,1.61
4955.00,1.61
4954.00,1.62
4953.00,1.62
4952.00,1.62
4951.00,1.62
4950.00,1.63
4949.00,1.63
4948.00,1.63
4947.00,1.63
4946.00,1.63
4945.00,1.63
4944.00,1.64
4943.00,1.64
4942.00,1.64
4941.00,1.64
4940.00,1.64
4939.00,1.64
4938.00,1.65
4937.00,1.65
4936.00,1.65
4935.00,1.65
4934.00,1.65
4933.00,1.66
4932.00,1.66
4931.00,1.66
4930.00,1.66
4929.00,1.66
4928.00,1.67
4927.00,1.67
4926.00,1.68
4925.00,1.68
4924.00,1.68
4923.00,1.69
4922.00,1.69
4921.00,1.70
4920.00,1.71
4919.00,1.71
4918.00,1.72
4917.00,1.72
4916.00,1.73
4915.00,1.73
4914.00,1.74
4913.00,1.75
4912.00,1.75
4911.00,1.76
4910.00,1.77
4909.00,1.77
4908.00,1.78
4907.00,1.78
4906.00,1.79
4905.00,1.80
4904.00,1.80
4903.00,1.80
4902.00,1.81
4901.00,1.81
4900.00,1.81
4899.00,1.82
4898.00,1.82
4897.00,1.82
4896.00,1.83
4895.00,1.83
4894.00,1.83
4893.00,1.84
4892.00,1.84
4891.00,1.84
4890.00,1.84
4889.00,1.85
4888.00,1.85
4887.00,1.85
4886.00,1.86
4885.00,1.86
4884.00,1.86
4883.00,1.86
4882.00,1.87
4881.00,1.87
4880.00,1.87
4879.00,1.88
4878.00,1.88
4877.00,1.88
4876.00,1.89
4875.00,1.89
4874.00,1.89
4873.00,1.90
4872.00,1.90
4871.00,1.90
4870.00,1.91
4869.00,1.91
4868.00,1.91
4867.00,1.92
4866.00,1.92
4865.00,1.92
4864.00,1.93
4863.00,1.93
4862.00,1.94
4861.00,1.94
4860.00,1.94
4859.00,1.95
4858.00,1.95
4857.00,1.96
4856.00,1.96
4855.00,1.97
4854.00,1.97
4853.00,1.98
4852.00,1.99
4851.00,1.99
4850.00,2.00
4849.00,2.01
4848.00,2.02
4847.00,2.02
4846.00,2.03
4845.00,2.04
4844.00,2.05
4843.00,2.05
4842.00,2.06
4841.00,2.07
4840.00,2.08
4839.00,2.08
4838.00,2.09
4837.00,2.10
4836.00,2.10
4835.00,2.11
4834.00,2.11
4833.00,2.12
4832.00,2.12
4831.00,2.13
4830.00,2.13
4829.00,2.13
4828.00,2.14
4827.00,2.14
4826.00,2.14
4825.00,2.14
4824.00,2.14
4823.00,2.14
4822.00,2.14
4821.00,2.14
4820.00,2.14
4819.00,2.14
4818.00,2.14
4817.00,2.14
4816.00,2.14
4815.00,2.14
4814.00,2.13
4813.00,2.13
4812.00,2.13
4811.00,2.13
4810.00,2.13
4809.00,2.13
4808.00,2.13
4807.00,2.13
4806.00,2.13
4805.00,2.13
4804.00,2.13
4803.00,2.13
4802.00,2.13
4801.00,2.14
4800.00,2.14
4799.00,2.14
4798.00,2.15
4797.00,2.15
4796.00,2.15
4795.00,2.16
4794.00,2.16
4793.00,2.16
4792.00,2.17
4791.00,2.17
4790.00,2.18
4789.00,2.18
4788.00,2.19
4787.00,2.19
4786.00,2.20
4785.00,2.20
4784.00,2.21
4783.00,2.21
4782.00,2.22
4781.00,2.23
4780.00,2.23
4779.00,2.24
4778.00,2.24
4777.00,2.25
4776.00,2.25
4775.00,2.26
4774.00,2.26
4773.00,2.27
4772.00,2.27
4771.00,2.28
4770.00,2.28
4769.00,2.29
4768.00,2.30
4767.00,2.31
4766.00,2.32
4765.00,2.33
4764.00,2.33
4763.00,2.34
4762.00,2.35
4761.00,2.36
4760.00,2.37
4759.00,2.38
4758.00,2.39
4757.00,2.40
4756.00,2.41
4755.00,2.41
4754.00,2.42
4753.00,2.43
4752.00,2.44
4751.00,2.45
4750.00,2.46
4749.00,2.46
4748.00,2.47
4747.00,2.48
4746.00,2.49
4745.00,2.49
4744.00,2.50
4743.00,2.50
4742.00,2.51
4741.00,2.51
4740.00,2.51
4739.00,2.52
4738.00,2.52
4737.00,2.52
4736.00,2.53
4735.00,2.53
4734.00,2.53
4733.00,2.53
4732.00,2.54
4731.00,2.54
4730.00,2.54
4729.00,2.54
4728.00,2.54
4727.00,2.55
4726.00,2.55
4725.00,2.55
4724.00,2.56
4723.00,2.56
4722.00,2.56
4721.00,2.56
4720.00,2.57
4719.00,2.57
4718.00,2.57
4717.00,2.58
4716.00,2.58
4715.00,2.58
4714.00,2.58
4713.00,2.59
4712.00,2.59
4711.00,2.59
4710.00,2.59
4709.00,2.59
4708.00,2.59
4707.00,2.60
4706.00,2.60
4705.00,2.60
4704.00,2.60
4703.00,2.60
4702.00,2.61
4701.00,2.61
4700.00,2.61
4699.00,2.61
4698.00,2.61
4697.00,2.62
4696.00,2.62
4695.00,2.62
4694.00,2.62
4693.00,2.62
4692.00,2.62
4691.00,2.62
4690.00,2.63
4689.00,2.63
4688.00,2.63
4687.00,2.63
4686.00,2.64
4685.00,2.64
4684.00,2.65
4683.00,2.65
4682.00,2.65
4681.00,2.65
4680.00,2.66
4679.00,2.66
4678.00,2.66
4677.00,2.66
4676.00,2.66
4675.00,2.66
4674.00,2.67
4673.00,2.67
4672.00,2.67
4671.00,2.67
4670.00,2.67
4669.00,2.68
4668.00,2.68
4667.00,2.68
4666.00,2.68
4665.00,2.69
4664.00,2.69
4663.00,2.69
4662.00,2.69
4661.00,2.69
4660.00,2.70
4659.00,2.70
4658.00,2.70
4657.00,2.70
4656.00,2.70
4655.00,2.70
4654.00,2.71
4653.00,2.71
4652.00,2.71
4651.00,2.72
4650.00,2.72
4649.00,2.72
4648.00,2.73
4647.00,2.73
4646.00,2.73
4645.00,2.74
4644.00,2.74
4643.00,2.74
4642.00,2.74
4641.00,2.75
4640.00,2.75
4639.00,2.75
4638.00,2.76
4637.00,2.76
4636.00,2.76
4635.00,2.77
4634.00,2.77
4633.00,2.77
4632.00,2.78
4631.00,2.78
4630.00,2.78
4629.00,2.79
4628.00,2.79
4627.00,2.79
4626.00,2.79
4625.00,2.80
4624.00,2.80
4623.00,2.80
4622.00,2.80
4621.00,2.80
4620.00,2.80
4619.00,2.80
4618.00,2.80
4617.00,2.81
4616.00,2.81
4615.00,2.81
4614.00,2.81
4613.00,2.81
4612.00,2.81
4611.00,2.81
4610.00,2.81
4609.00,2.81
4608.00,2.81
4607.00,2.81
4606.00,2.81
4605.00,2.81
4604.00,2.81
4603.00,2.81
4602.00,2.81
4601.00,2.81
4600.00,2.81
4599.00,2.81
4598.00,2.81
4597.00,2.81
4596.00,2.82
4595.00,2.82
4594.00,2.82
4593.00,2.83
4592.00,2.83
4591.00,2.83
4590.00,2.84
4589.00,2.84
4588.00,2.84
4587.00,2.84
4586.00,2.85
4585.00,2.85
4584.00,2.85
4583.00,2.86
4582.00,2.86
4581.00,2.86
4580.00,2.87
4579.00,2.87
4578.00,2.87
4577.00,2.88
4576.00,2.88
4575.00,2.88
4574.00,2.89
4573.00,2.89
4572.00,2.89
4571.00,2.89
4570.00,2.89
4569.00,2.89
4568.00,2.89
4567.00,2.89
4566.00,2.89
4565.00,2.89
4564.00,2.88
4563.00,2.88
4562.00,2.88
4561.00,2.88
4560.00,2.87
4559.00,2.87
4558.00,2.87
4557.00,2.87
4556.00,2.86
4555.00,2.86
4554.00,2.86
4553.00,2.86
4552.00,2.85
4551.00,2.85
4550.00,2.85
4549.00,2.84
4548.00,2.84
4547.00,2.84
4546.00,2.84
4545.00,2.84
4544.00,2.84
4543.00,2.84
4542.00,2.84
4541.00,2.84
4540.00,2.84
4539.00,2.84
4538.00,2.84
4537.00,2.84
4536.00,2.84
4535.00,2.84
4534.00,2.84
4533.00,2.83
4532.00,2.83
4531.00,2.83
4530.00,2.83
4529.00,2.83
4528.00,2.83
4527.00,2.83
4526.00,2.83
4525.00,2.83
4524.00,2.83
4523.00,2.83
4522.00,2.82
4521.00,2.82
4520.00,2.82
4519.00,2.82
4518.00,2.82
4517.00,2.82
4516.00,2.82
4515.00,2.82
4514.00,2.82
4513.00,2.81
4512.00,2.81
4511.00,2.81
4510.00,2.81
4509.00,2.81
4508.00,2.81
4507.00,2.82
4506.00,2.82
4505.00,2.82
4504.00,2.83
4503.00,2.83
4502.00,2.83
4501.00,2.84
4500.00,2.84
4499.00,2.84
4498.00,2.84
4497.00,2.85
4496.00,2.85
4495.00,2.85
4494.00,2.85
4493.00,2.86
4492.00,2.86
4491.00,2.86
4490.00,2.86
4489.00,2.86
4488.00,2.87
4487.00,2.87
4486.00,2.87
4485.00,2.87
4484.00,2.88
4483.00,2.88
4482.00,2.88
4481.00,2.88
4480.00,2.89
4479.00,2.89
4478.00,2.88
4477.00,2.88
4476.00,2.88
4475.00,2.88
4474.00,2.87
4473.00,2.87
4472.00,2.87
4471.00,2.87
4470.00,2.87
4469.00,2.86
4468.00,2.86
4467.00,2.86
4466.00,2.85
4465.00,2.85
4464.00,2.84
4463.00,2.84
4462.00,2.83
4461.00,2.82
4460.00,2.81
4459.00,2.80
4458.00,2.79
4457.00,2.78
4456.00,2.77
4455.00,2.76
4454.00,2.75
4453.00,2.73
4452.00,2.72
4451.00,2.71
4450.00,2.69
4449.00,2.68
4448.00,2.67
4447.00,2.65
4446.00,2.64
4445.00,2.62
4444.00,2.61
4443.00,2.60
4442.00,2.58
4441.00,2.57
4440.00,2.55
4439.00,2.54
4438.00,2.53
4437.00,2.52
4436.00,2.50
4435.00,2.49
4434.00,2.48
4433.00,2.47
4432.00,2.46
4431.00,2.45
4430.00,2.44
4429.00,2.43
4428.00,2.41
4427.00,2.40
4426.00,2.39
4425.00,2.38
4424.00,2.37
4423.00,2.36
4422.00,2.35
4421.00,2.34
4420.00,2.33
4419.00,2.33
4418.00,2.32
4417.00,2.31
4416.00,2.30
4415.00,2.29
4414.00,2.29
4413.00,2.28
4412.00,2.27
4411.00,2.27
4410.00,2.26
4409.00,2.26
4408.00,2.25
4407.00,2.25
4406.00,2.24
4405.00,2.24
4404.00,2.24
4403.00,2.25
4402.00,2.25
4401.00,2.26
4400.00,2.26
4399.00,2.27
4398.00,2.28
4397.00,2.28
4396.00,2.29
4395.00,2.30
4394.00,2.30
4393.00,2.31
4392.00,2.32
4391.00,2.33
4390.00,2.34
4389.00,2.35
4388.00,2.35
4387.00,2.36
4386.00,2.37
4385.00,2.38
4384.00,2.39
4383.00,2.40
4382.00,2.41
4381.00,2.42
4380.00,2.43
4379.00,2.43
4378.00,2.44
4377.00,2.44
4376.00,2.44
4375.00,2.44
4374.00,2.44
4373.00,2.44
4372.00,2.44
4371.00,2.43
4370.00,2.43
4369.00,2.43
4368.00,2.42
4367.00,2.42
4366.00,2.41
4365.00,2.41
4364.00,2.40
4363.00,2.40
4362.00,2.39
4361.00,2.38
4360.00,2.37
4359.00,2.37
4358.00,2.36
4357.00,2.35
4356.00,2.34
4355.00,2.34
4354.00,2.33
4353.00,2.33
4352.00,2.32
4351.00,2.32
4350.00,2.32
4349.00,2.32
4348.00,2.32
4347.00,2.32
4346.00,2.32
4345.00,2.32
4344.00,2.32
4343.00,2.33
4342.00,2.33
4341.00,2.34
4340.00,2.35
4339.00,2.35
4338.00,2.36
4337.00,2.37
4336.00,2.38
4335.00,2.39
4334.00,2.40
4333.00,2.41
4332.00,2.42
4331.00,2.43
4330.00,2.44
4329.00,2.45
4328.00,2.46
4327.00,2.47
4326.00,2.47
4325.00,2.48
4324.00,2.49
4323.00,2.50
4322.00,2.50
4321.00,2.51
4320.00,2.52
4319.00,2.52
4318.00,2.53
4317.00,2.53
4316.00,2.54
4315.00,2.54
4314.00,2.54
4313.00,2.55
4312.00,2.55
4311.00,2.55
4310.00,2.56
4309.00,2.56
4308.00,2.56
4307.00,2.57
4306.00,2.57
4305.00,2.57
4304.00,2.58
4303.00,2.58
4302.00,2.59
4301.00,2.59
4300.00,2.60
4299.00,2.61
4298.00,2.62
4297.00,2.62
4296.00,2.63
4295.00,2.64
4294.00,2.65
4293.00,2.66
4292.00,2.67
4291.00,2.68
4290.00,2.69
4289.00,2.70
4288.00,2.71
4287.00,2.71
4286.00,2.72
4285.00,2.73
4284.00,2.73
4283.00,2.74
4282.00,2.74
4281.00,2.75
4280.00,2.75
4279.00,2.75
4278.00,2.75
4277.00,2.75
4276.00,2.74
4275.00,2.74
4274.00,2.74
4273.00,2.73
4272.00,2.73
4271.00,2.72
4270.00,2.72
4269.00,2.71
4268.00,2.70
4267.00,2.70
4266.00,2.69
4265.00,2.68
4264.00,2.68
4263.00,2.67
4262.00,2.67
4261.00,2.66
4260.00,2.66
4259.00,2.66
4258.00,2.65
4257.00,2.65
4256.00,2.65
4255.00,2.65
4254.00,2.65
4253.00,2.66
4252.00,2.66
4251.00,2.66
4250.00,2.67
4249.00,2.67
4248.00,2.68
4247.00,2.68
4246.00,2.69
4245.00,2.70
4244.00,2.70
4243.00,2.71
4242.00,2.72
4241.00,2.73
4240.00,2.74
4239.00,2.75
4238.00,2.75
4237.00,2.76
4236.00,2.77
4235.00,2.78
4234.00,2.78
4233.00,2.79
4232.00,2.80
4231.00,2.81
4230.00,2.82
4229.00,2.82
4228.00,2.83
4227.00,2.84
4226.00,2.84
4225.00,2.85
4224.00,2.85
4223.00,2.86
4222.00,2.86
4221.00,2.86
4220.00,2.87
4219.00,2.87
4218.00,2.87
4217.00,2.87
4216.00,2.87
4215.00,2.87
4214.00,2.87
4213.00,2.87
4212.00,2.87
4211.00,2.87
4210.00,2.87
4209.00,2.86
4208.00,2.86
4207.00,2.86
4206.00,2.85
4205.00,2.85
4204.00,2.84
4203.00,2.84
4202.00,2.84
4201.00,2.84
4200.00,2.84
4199.00,2.83
4198.00,2.83
4197.00,2.83
4196.00,2.83
4195.00,2.84
4194.00,2.84
4193.00,2.84
4192.00,2.84
4191.00,2.84
4190.00,2.85
4189.00,2.85
4188.00,2.85
4187.00,2.85
4186.00,2.86
4185.00,2.86
4184.00,2.86
4183.00,2.86
4182.00,2.86
4181.00,2.86
4180.00,2.86
4179.00,2.86
4178.00,2.86
4177.00,2.86
4176.00,2.86
4175.00,2.85
4174.00,2.85
4173.00,2.84
4172.00,2.83
4171.00,2.82
4170.00,2.81
4169.00,2.80
4168.00,2.79
4167.00,2.78
4166.00,2.77
4165.00,2.76
4164.00,2.75
4163.00,2.74
4162.00,2.73
4161.00,2.71
4160.00,2.70
4159.00,2.69
4158.00,2.68
4157.00,2.67
4156.00,2.66
4155.00,2.65
4154.00,2.64
4153.00,2.63
4152.00,2.62
4151.00,2.61
4150.00,2.61
4149.00,2.60
4148.00,2.60
4147.00,2.59
4146.00,2.59
4145.00,2.58
4144.00,2.58
4143.00,2.58
4142.00,2.57
4141.00,2.57
4140.00,2.57
4139.00,2.57
4138.00,2.57
4137.00,2.57
4136.00,2.57
4135.00,2.57
4134.00,2.57
4133.00,2.57
4132.00,2.57
4131.00,2.58
4130.00,2.58
4129.00,2.58
4128.00,2.58
4127.00,2.58
4126.00,2.58
4125.00,2.58
4124.00,2.59
4123.00,2.59
4122.00,2.59
4121.00,2.59
4120.00,2.59
4119.00,2.59
4118.00,2.59
4117.00,2.59
4116.00,2.59
4115.00,2.59
4114.00,2.59
4113.00,2.59
4112.00,2.59
4111.00,2.59
4110.00,2.59
4109.00,2.58
4108.00,2.57
4107.00,2.56
4106.00,2.55
4105.00,2.54
4104.00,2.53
4103.00,2.52
4102.00,2.51
4101.00,2.50
4100.00,2.49
4099.00,2.48
4098.00,2.47
4097.00,2.46
4096.00,2.45
4095.00,2.44
4094.00,2.43
4093.00,2.43
4092.00,2.42
4091.00,2.41
4090.00,2.41
4089.00,2.40
4088.00,2.40
4087.00,2.39
4086.00,2.39
4085.00,2.38
4084.00,2.38
4083.00,2.38
4082.00,2.38
4081.00,2.38
4080.00,2.38
4079.00,2.39
4078.00,2.40
4077.00,2.41
4076.00,2.42
4075.00,2.43
4074.00,2.43
4073.00,2.44
4072.00,2.45
4071.00,2.45
4070.00,2.46
4069.00,2.46
4068.00,2.47
4067.00,2.48
4066.00,2.49
4065.00,2.50
4064.00,2.50
4063.00,2.51
4062.00,2.52
4061.00,2.53
4060.00,2.54
4059.00,2.55
4058.00,2.56
4057.00,2.57
4056.00,2.58
4055.00,2.59
4054.00,2.60
4053.00,2.61
4052.00,2.62
4051.00,2.63
4050.00,2.64
4049.00,2.65
4048.00,2.66
4047.00,2.67
4046.00,2.68
4045.00,2.69
4044.00,2.70
4043.00,2.70
4042.00,2.71
4041.00,2.72
4040.00,2.72
4039.00,2.72
4038.00,2.73
4037.00,2.73
4036.00,2.73
4035.00,2.74
4034.00,2.74
4033.00,2.74
4032.00,2.74
4031.00,2.75
4030.00,2.75
4029.00,2.75
4028.00,2.76
4027.00,2.76
4026.00,2.76
4025.00,2.76
4024.00,2.77
4023.00,2.77
4022.00,2.78
4021.00,2.78
4020.00,2.79
4019.00,2.80
4018.00,2.81
4017.00,2.82
4016.00,2.83
4015.00,2.84
4014.00,2.86
4013.00,2.87
4012.00,2.88
4011.00,2.90
4010.00,2.91
4009.00,2.92
4008.00,2.94
4007.00,2.95
4006.00,2.97
4005.00,2.98
4004.00,3.00
4003.00,3.01
4002.00,3.03
4001.00,3.05
4000.00,3.07
