创建为新数据集,样品 980 用户 Administrator 日期 星期二, 七月 30 2019
cm-1,%T
10000.00,1.31
9999.00,1.31
9998.00,1.30
9997.00,1.29
9996.00,1.28
9995.00,1.27
9994.00,1.27
9993.00,1.26
9992.00,1.25
9991.00,1.25
9990.00,1.24
9989.00,1.24
9988.00,1.24
9987.00,1.24
9986.00,1.24
9985.00,1.25
9984.00,1.25
9983.00,1.26
9982.00,1.27
9981.00,1.27
9980.00,1.28
9979.00,1.29
9978.00,1.30
9977.00,1.31
9976.00,1.31
9975.00,1.32
9974.00,1.33
9973.00,1.34
9972.00,1.34
9971.00,1.35
9970.00,1.35
9969.00,1.35
9968.00,1.36
9967.00,1.36
9966.00,1.36
9965.00,1.36
9964.00,1.36
9963.00,1.35
9962.00,1.35
9961.00,1.34
9960.00,1.34
9959.00,1.33
9958.00,1.32
9957.00,1.32
9956.00,1.31
9955.00,1.30
9954.00,1.30
9953.00,1.29
9952.00,1.28
9951.00,1.28
9950.00,1.27
9949.00,1.26
9948.00,1.26
9947.00,1.25
9946.00,1.25
9945.00,1.25
9944.00,1.24
9943.00,1.24
9942.00,1.24
9941.00,1.24
9940.00,1.24
9939.00,1.25
9938.00,1.25
9937.00,1.26
9936.00,1.26
9935.00,1.27
9934.00,1.28
9933.00,1.28
9932.00,1.29
9931.00,1.30
9930.00,1.31
9929.00,1.31
9928.00,1.32
9927.00,1.32
9926.00,1.33
9925.00,1.33
9924.00,1.34
9923.00,1.34
9922.00,1.34
9921.00,1.35
9920.00,1.35
9919.00,1.36
9918.00,1.36
9917.00,1.36
9916.00,1.37
9915.00,1.37
9914.00,1.37
9913.00,1.37
9912.00,1.37
9911.00,1.37
9910.00,1.37
9909.00,1.37
9908.00,1.37
9907.00,1.37
9906.00,1.36
9905.00,1.36
9904.00,1.36
9903.00,1.36
9902.00,1.36
9901.00,1.35
9900.00,1.35
9899.00,1.36
9898.00,1.36
9897.00,1.36
9896.00,1.35
9895.00,1.35
9894.00,1.35
9893.00,1.35
9892.00,1.35
9891.00,1.34
9890.00,1.34
9889.00,1.34
9888.00,1.33
9887.00,1.33
9886.00,1.33
9885.00,1.33
9884.00,1.33
9883.00,1.33
9882.00,1.33
9881.00,1.33
9880.00,1.33
9879.00,1.33
9878.00,1.33
9877.00,1.33
9876.00,1.33
9875.00,1.32
9874.00,1.32
9873.00,1.32
9872.00,1.32
9871.00,1.31
9870.00,1.31
9869.00,1.31
9868.00,1.31
9867.00,1.31
9866.00,1.31
9865.00,1.30
9864.00,1.30
9863.00,1.30
9862.00,1.30
9861.00,1.30
9860.00,1.30
9859.00,1.30
9858.00,1.29
9857.00,1.29
9856.00,1.29
9855.00,1.29
9854.00,1.29
9853.00,1.29
9852.00,1.29
9851.00,1.29
9850.00,1.30
9849.00,1.30
9848.00,1.31
9847.00,1.31
9846.00,1.32
9845.00,1.32
9844.00,1.33
9843.00,1.33
9842.00,1.34
9841.00,1.34
9840.00,1.35
9839.00,1.35
9838.00,1.36
9837.00,1.36
9836.00,1.36
9835.00,1.37
9834.00,1.37
9833.00,1.38
9832.00,1.38
9831.00,1.39
9830.00,1.39
9829.00,1.39
9828.00,1.40
9827.00,1.40
9826.00,1.40
9825.00,1.39
9824.00,1.39
9823.00,1.39
9822.00,1.38
9821.00,1.37
9820.00,1.36
9819.00,1.35
9818.00,1.35
9817.00,1.34
9816.00,1.33
9815.00,1.32
9814.00,1.31
9813.00,1.30
9812.00,1.29
9811.00,1.29
9810.00,1.28
9809.00,1.27
9808.00,1.26
9807.00,1.25
9806.00,1.24
9805.00,1.23
9804.00,1.22
9803.00,1.22
9802.00,1.21
9801.00,1.20
9800.00,1.19
9799.00,1.19
9798.00,1.19
9797.00,1.18
9796.00,1.18
9795.00,1.18
9794.00,1.18
9793.00,1.18
9792.00,1.19
9791.00,1.19
9790.00,1.19
9789.00,1.20
9788.00,1.20
9787.00,1.20
9786.00,1.21
9785.00,1.21
9784.00,1.21
9783.00,1.21
9782.00,1.22
9781.00,1.22
9780.00,1.22
9779.00,1.22
9778.00,1.22
9777.00,1.22
9776.00,1.23
9775.00,1.23
9774.00,1.23
9773.00,1.23
9772.00,1.23
9771.00,1.23
9770.00,1.23
9769.00,1.22
9768.00,1.22
9767.00,1.22
9766.00,1.22
9765.00,1.22
9764.00,1.22
9763.00,1.22
9762.00,1.22
9761.00,1.22
9760.00,1.22
9759.00,1.22
9758.00,1.22
9757.00,1.22
9756.00,1.23
9755.00,1.23
9754.00,1.24
9753.00,1.24
9752.00,1.24
9751.00,1.25
9750.00,1.25
9749.00,1.26
9748.00,1.26
9747.00,1.26
9746.00,1.27
9745.00,1.27
9744.00,1.28
9743.00,1.28
9742.00,1.29
9741.00,1.29
9740.00,1.30
9739.00,1.30
9738.00,1.31
9737.00,1.31
9736.00,1.31
9735.00,1.32
9734.00,1.32
9733.00,1.32
9732.00,1.32
9731.00,1.32
9730.00,1.32
9729.00,1.32
9728.00,1.32
9727.00,1.32
9726.00,1.32
9725.00,1.32
9724.00,1.32
9723.00,1.32
9722.00,1.32
9721.00,1.32
9720.00,1.32
9719.00,1.32
9718.00,1.32
9717.00,1.32
9716.00,1.32
9715.00,1.32
9714.00,1.32
9713.00,1.31
9712.00,1.31
9711.00,1.30
9710.00,1.30
9709.00,1.29
9708.00,1.28
9707.00,1.28
9706.00,1.27
9705.00,1.26
9704.00,1.25
9703.00,1.25
9702.00,1.24
9701.00,1.24
9700.00,1.23
9699.00,1.22
9698.00,1.22
9697.00,1.21
9696.00,1.21
9695.00,1.20
9694.00,1.20
9693.00,1.19
9692.00,1.19
9691.00,1.18
9690.00,1.18
9689.00,1.17
9688.00,1.17
9687.00,1.16
9686.00,1.16
9685.00,1.16
9684.00,1.16
9683.00,1.15
9682.00,1.15
9681.00,1.15
9680.00,1.16
9679.00,1.16
9678.00,1.16
9677.00,1.16
9676.00,1.17
9675.00,1.17
9674.00,1.17
9673.00,1.17
9672.00,1.18
9671.00,1.18
9670.00,1.18
9669.00,1.18
9668.00,1.19
9667.00,1.19
9666.00,1.19
9665.00,1.20
9664.00,1.20
9663.00,1.21
9662.00,1.21
9661.00,1.22
9660.00,1.22
9659.00,1.23
9658.00,1.23
9657.00,1.24
9656.00,1.25
9655.00,1.25
9654.00,1.26
9653.00,1.26
9652.00,1.26
9651.00,1.27
9650.00,1.27
9649.00,1.27
9648.00,1.27
9647.00,1.27
9646.00,1.27
9645.00,1.27
9644.00,1.27
9643.00,1.27
9642.00,1.27
9641.00,1.27
9640.00,1.27
9639.00,1.27
9638.00,1.27
9637.00,1.27
9636.00,1.27
9635.00,1.27
9634.00,1.27
9633.00,1.27
9632.00,1.27
9631.00,1.26
9630.00,1.26
9629.00,1.26
9628.00,1.26
9627.00,1.25
9626.00,1.25
9625.00,1.25
9624.00,1.25
9623.00,1.24
9622.00,1.24
9621.00,1.24
9620.00,1.24
9619.00,1.24
9618.00,1.24
9617.00,1.24
9616.00,1.24
9615.00,1.24
9614.00,1.24
9613.00,1.24
9612.00,1.24
9611.00,1.23
9610.00,1.23
9609.00,1.23
9608.00,1.23
9607.00,1.23
9606.00,1.22
9605.00,1.22
9604.00,1.22
9603.00,1.22
9602.00,1.22
9601.00,1.22
9600.00,1.22
9599.00,1.22
9598.00,1.22
9597.00,1.22
9596.00,1.22
9595.00,1.22
9594.00,1.22
9593.00,1.22
9592.00,1.22
9591.00,1.22
9590.00,1.22
9589.00,1.22
9588.00,1.23
9587.00,1.23
9586.00,1.24
9585.00,1.24
9584.00,1.24
9583.00,1.25
9582.00,1.25
9581.00,1.25
9580.00,1.25
9579.00,1.25
9578.00,1.25
9577.00,1.25
9576.00,1.25
9575.00,1.24
9574.00,1.24
9573.00,1.24
9572.00,1.23
9571.00,1.23
9570.00,1.22
9569.00,1.22
9568.00,1.21
9567.00,1.20
9566.00,1.20
9565.00,1.19
9564.00,1.18
9563.00,1.17
9562.00,1.16
9561.00,1.15
9560.00,1.14
9559.00,1.13
9558.00,1.12
9557.00,1.11
9556.00,1.10
9555.00,1.10
9554.00,1.09
9553.00,1.09
9552.00,1.09
9551.00,1.09
9550.00,1.09
9549.00,1.09
9548.00,1.09
9547.00,1.09
9546.00,1.09
9545.00,1.10
9544.00,1.10
9543.00,1.11
9542.00,1.11
9541.00,1.12
9540.00,1.13
9539.00,1.13
9538.00,1.14
9537.00,1.15
9536.00,1.16
9535.00,1.16
9534.00,1.17
9533.00,1.18
9532.00,1.19
9531.00,1.19
9530.00,1.20
9529.00,1.20
9528.00,1.21
9527.00,1.21
9526.00,1.21
9525.00,1.21
9524.00,1.21
9523.00,1.21
9522.00,1.21
9521.00,1.21
9520.00,1.21
9519.00,1.21
9518.00,1.21
9517.00,1.21
9516.00,1.20
9515.00,1.20
9514.00,1.20
9513.00,1.20
9512.00,1.20
9511.00,1.19
9510.00,1.19
9509.00,1.19
9508.00,1.19
9507.00,1.19
9506.00,1.19
9505.00,1.19
9504.00,1.19
9503.00,1.19
9502.00,1.19
9501.00,1.19
9500.00,1.19
9499.00,1.19
9498.00,1.19
9497.00,1.19
9496.00,1.19
9495.00,1.18
9494.00,1.18
9493.00,1.17
9492.00,1.17
9491.00,1.16
9490.00,1.16
9489.00,1.15
9488.00,1.15
9487.00,1.14
9486.00,1.13
9485.00,1.13
9484.00,1.12
9483.00,1.11
9482.00,1.10
9481.00,1.10
9480.00,1.09
9479.00,1.08
9478.00,1.07
9477.00,1.07
9476.00,1.06
9475.00,1.06
9474.00,1.05
9473.00,1.05
9472.00,1.05
9471.00,1.05
9470.00,1.05
9469.00,1.05
9468.00,1.05
9467.00,1.05
9466.00,1.06
9465.00,1.06
9464.00,1.07
9463.00,1.08
9462.00,1.09
9461.00,1.10
9460.00,1.11
9459.00,1.12
9458.00,1.12
9457.00,1.13
9456.00,1.14
9455.00,1.15
9454.00,1.16
9453.00,1.17
9452.00,1.18
9451.00,1.19
9450.00,1.20
9449.00,1.21
9448.00,1.22
9447.00,1.23
9446.00,1.24
9445.00,1.25
9444.00,1.26
9443.00,1.27
9442.00,1.27
9441.00,1.28
9440.00,1.29
9439.00,1.29
9438.00,1.30
9437.00,1.30
9436.00,1.30
9435.00,1.31
9434.00,1.31
9433.00,1.31
9432.00,1.32
9431.00,1.32
9430.00,1.32
9429.00,1.33
9428.00,1.33
9427.00,1.34
9426.00,1.34
9425.00,1.34
9424.00,1.34
9423.00,1.34
9422.00,1.34
9421.00,1.34
9420.00,1.34
9419.00,1.34
9418.00,1.34
9417.00,1.34
9416.00,1.33
9415.00,1.33
9414.00,1.33
9413.00,1.33
9412.00,1.32
9411.00,1.32
9410.00,1.32
9409.00,1.32
9408.00,1.31
9407.00,1.31
9406.00,1.30
9405.00,1.30
9404.00,1.29
9403.00,1.29
9402.00,1.28
9401.00,1.28
9400.00,1.27
9399.00,1.26
9398.00,1.26
9397.00,1.25
9396.00,1.25
9395.00,1.24
9394.00,1.23
9393.00,1.23
9392.00,1.22
9391.00,1.22
9390.00,1.21
9389.00,1.21
9388.00,1.20
9387.00,1.20
9386.00,1.20
9385.00,1.19
9384.00,1.19
9383.00,1.19
9382.00,1.18
9381.00,1.18
9380.00,1.18
9379.00,1.18
9378.00,1.18
9377.00,1.18
9376.00,1.18
9375.00,1.18
9374.00,1.18
9373.00,1.19
9372.00,1.19
9371.00,1.20
9370.00,1.20
9369.00,1.20
9368.00,1.21
9367.00,1.22
9366.00,1.22
9365.00,1.23
9364.00,1.24
9363.00,1.24
9362.00,1.25
9361.00,1.26
9360.00,1.26
9359.00,1.27
9358.00,1.28
9357.00,1.28
9356.00,1.29
9355.00,1.30
9354.00,1.30
9353.00,1.30
9352.00,1.31
9351.00,1.31
9350.00,1.31
9349.00,1.31
9348.00,1.31
9347.00,1.31
9346.00,1.31
9345.00,1.31
9344.00,1.30
9343.00,1.30
9342.00,1.30
9341.00,1.30
9340.00,1.29
9339.00,1.29
9338.00,1.28
9337.00,1.28
9336.00,1.27
9335.00,1.27
9334.00,1.27
9333.00,1.26
9332.00,1.26
9331.00,1.26
9330.00,1.26
9329.00,1.26
9328.00,1.26
9327.00,1.26
9326.00,1.26
9325.00,1.27
9324.00,1.27
9323.00,1.28
9322.00,1.28
9321.00,1.29
9320.00,1.30
9319.00,1.30
9318.00,1.31
9317.00,1.32
9316.00,1.32
9315.00,1.33
9314.00,1.34
9313.00,1.35
9312.00,1.35
9311.00,1.36
9310.00,1.37
9309.00,1.38
9308.00,1.38
9307.00,1.39
9306.00,1.40
9305.00,1.40
9304.00,1.41
9303.00,1.41
9302.00,1.41
9301.00,1.41
9300.00,1.41
9299.00,1.41
9298.00,1.41
9297.00,1.40
9296.00,1.40
9295.00,1.39
9294.00,1.39
9293.00,1.38
9292.00,1.37
9291.00,1.37
9290.00,1.36
9289.00,1.35
9288.00,1.34
9287.00,1.34
9286.00,1.33
9285.00,1.32
9284.00,1.31
9283.00,1.30
9282.00,1.30
9281.00,1.29
9280.00,1.28
9279.00,1.27
9278.00,1.26
9277.00,1.25
9276.00,1.24
9275.00,1.23
9274.00,1.22
9273.00,1.21
9272.00,1.21
9271.00,1.20
9270.00,1.20
9269.00,1.19
9268.00,1.19
9267.00,1.19
9266.00,1.19
9265.00,1.18
9264.00,1.18
9263.00,1.18
9262.00,1.18
9261.00,1.18
9260.00,1.18
9259.00,1.19
9258.00,1.19
9257.00,1.19
9256.00,1.19
9255.00,1.19
9254.00,1.19
9253.00,1.20
9252.00,1.20
9251.00,1.21
9250.00,1.21
9249.00,1.22
9248.00,1.22
9247.00,1.23
9246.00,1.24
9245.00,1.24
9244.00,1.25
9243.00,1.25
9242.00,1.25
9241.00,1.26
9240.00,1.26
9239.00,1.26
9238.00,1.26
9237.00,1.25
9236.00,1.25
9235.00,1.25
9234.00,1.25
9233.00,1.24
9232.00,1.24
9231.00,1.23
9230.00,1.23
9229.00,1.23
9228.00,1.22
9227.00,1.22
9226.00,1.22
9225.00,1.21
9224.00,1.21
9223.00,1.21
9222.00,1.20
9221.00,1.20
9220.00,1.19
9219.00,1.19
9218.00,1.18
9217.00,1.18
9216.00,1.17
9215.00,1.17
9214.00,1.17
9213.00,1.17
9212.00,1.17
9211.00,1.17
9210.00,1.17
9209.00,1.18
9208.00,1.18
9207.00,1.18
9206.00,1.19
9205.00,1.19
9204.00,1.19
9203.00,1.20
9202.00,1.20
9201.00,1.20
9200.00,1.20
9199.00,1.21
9198.00,1.21
9197.00,1.21
9196.00,1.21
9195.00,1.21
9194.00,1.21
9193.00,1.21
9192.00,1.22
9191.00,1.22
9190.00,1.22
9189.00,1.22
9188.00,1.22
9187.00,1.23
9186.00,1.23
9185.00,1.23
9184.00,1.24
9183.00,1.24
9182.00,1.24
9181.00,1.24
9180.00,1.25
9179.00,1.25
9178.00,1.25
9177.00,1.25
9176.00,1.26
9175.00,1.26
9174.00,1.26
9173.00,1.27
9172.00,1.27
9171.00,1.27
9170.00,1.28
9169.00,1.28
9168.00,1.28
9167.00,1.29
9166.00,1.29
9165.00,1.29
9164.00,1.30
9163.00,1.30
9162.00,1.30
9161.00,1.31
9160.00,1.31
9159.00,1.31
9158.00,1.31
9157.00,1.31
9156.00,1.31
9155.00,1.32
9154.00,1.32
9153.00,1.32
9152.00,1.32
9151.00,1.32
9150.00,1.32
9149.00,1.32
9148.00,1.32
9147.00,1.32
9146.00,1.33
9145.00,1.33
9144.00,1.33
9143.00,1.33
9142.00,1.34
9141.00,1.34
9140.00,1.34
9139.00,1.34
9138.00,1.34
9137.00,1.35
9136.00,1.35
9135.00,1.35
9134.00,1.35
9133.00,1.35
9132.00,1.35
9131.00,1.35
9130.00,1.35
9129.00,1.34
9128.00,1.34
9127.00,1.34
9126.00,1.34
9125.00,1.34
9124.00,1.34
9123.00,1.35
9122.00,1.35
9121.00,1.35
9120.00,1.35
9119.00,1.35
9118.00,1.35
9117.00,1.35
9116.00,1.35
9115.00,1.34
9114.00,1.34
9113.00,1.34
9112.00,1.34
9111.00,1.34
9110.00,1.34
9109.00,1.34
9108.00,1.34
9107.00,1.34
9106.00,1.34
9105.00,1.34
9104.00,1.34
9103.00,1.33
9102.00,1.33
9101.00,1.33
9100.00,1.33
9099.00,1.32
9098.00,1.32
9097.00,1.31
9096.00,1.31
9095.00,1.30
9094.00,1.29
9093.00,1.29
9092.00,1.28
9091.00,1.28
9090.00,1.27
9089.00,1.27
9088.00,1.27
9087.00,1.26
9086.00,1.26
9085.00,1.25
9084.00,1.25
9083.00,1.24
9082.00,1.24
9081.00,1.24
9080.00,1.23
9079.00,1.23
9078.00,1.22
9077.00,1.22
9076.00,1.22
9075.00,1.21
9074.00,1.21
9073.00,1.21
9072.00,1.21
9071.00,1.21
9070.00,1.21
9069.00,1.22
9068.00,1.22
9067.00,1.22
9066.00,1.22
9065.00,1.22
9064.00,1.22
9063.00,1.23
9062.00,1.23
9061.00,1.23
9060.00,1.23
9059.00,1.24
9058.00,1.24
9057.00,1.25
9056.00,1.25
9055.00,1.26
9054.00,1.26
9053.00,1.27
9052.00,1.27
9051.00,1.28
9050.00,1.29
9049.00,1.29
9048.00,1.30
9047.00,1.30
9046.00,1.31
9045.00,1.31
9044.00,1.31
9043.00,1.32
9042.00,1.32
9041.00,1.32
9040.00,1.32
9039.00,1.32
9038.00,1.32
9037.00,1.32
9036.00,1.32
9035.00,1.32
9034.00,1.32
9033.00,1.31
9032.00,1.31
9031.00,1.31
9030.00,1.30
9029.00,1.30
9028.00,1.30
9027.00,1.29
9026.00,1.29
9025.00,1.28
9024.00,1.28
9023.00,1.28
9022.00,1.27
9021.00,1.27
9020.00,1.27
9019.00,1.26
9018.00,1.26
9017.00,1.26
9016.00,1.26
9015.00,1.26
9014.00,1.26
9013.00,1.26
9012.00,1.26
9011.00,1.26
9010.00,1.26
9009.00,1.27
9008.00,1.27
9007.00,1.27
9006.00,1.28
9005.00,1.28
9004.00,1.28
9003.00,1.29
9002.00,1.29
9001.00,1.29
9000.00,1.30
8999.00,1.30
8998.00,1.30
8997.00,1.30
8996.00,1.30
8995.00,1.30
8994.00,1.30
8993.00,1.30
8992.00,1.30
8991.00,1.30
8990.00,1.30
8989.00,1.29
8988.00,1.29
8987.00,1.29
8986.00,1.29
8985.00,1.29
8984.00,1.29
8983.00,1.29
8982.00,1.29
8981.00,1.28
8980.00,1.28
8979.00,1.28
8978.00,1.27
8977.00,1.27
8976.00,1.27
8975.00,1.26
8974.00,1.26
8973.00,1.26
8972.00,1.26
8971.00,1.26
8970.00,1.26
8969.00,1.26
8968.00,1.26
8967.00,1.26
8966.00,1.26
8965.00,1.26
8964.00,1.26
8963.00,1.27
8962.00,1.27
8961.00,1.27
8960.00,1.27
8959.00,1.27
8958.00,1.27
8957.00,1.28
8956.00,1.28
8955.00,1.28
8954.00,1.29
8953.00,1.29
8952.00,1.30
8951.00,1.30
8950.00,1.31
8949.00,1.32
8948.00,1.32
8947.00,1.33
8946.00,1.34
8945.00,1.34
8944.00,1.35
8943.00,1.36
8942.00,1.36
8941.00,1.36
8940.00,1.37
8939.00,1.37
8938.00,1.38
8937.00,1.38
8936.00,1.39
8935.00,1.39
8934.00,1.40
8933.00,1.40
8932.00,1.41
8931.00,1.41
8930.00,1.41
8929.00,1.41
8928.00,1.41
8927.00,1.41
8926.00,1.41
8925.00,1.41
8924.00,1.41
8923.00,1.40
8922.00,1.40
8921.00,1.40
8920.00,1.39
8919.00,1.39
8918.00,1.38
8917.00,1.38
8916.00,1.37
8915.00,1.37
8914.00,1.36
8913.00,1.36
8912.00,1.35
8911.00,1.34
8910.00,1.34
8909.00,1.33
8908.00,1.32
8907.00,1.32
8906.00,1.31
8905.00,1.31
8904.00,1.30
8903.00,1.30
8902.00,1.29
8901.00,1.29
8900.00,1.29
8899.00,1.29
8898.00,1.29
8897.00,1.29
8896.00,1.29
8895.00,1.29
8894.00,1.30
8893.00,1.30
8892.00,1.30
8891.00,1.30
8890.00,1.31
8889.00,1.31
8888.00,1.32
8887.00,1.32
8886.00,1.33
8885.00,1.34
8884.00,1.34
8883.00,1.35
8882.00,1.36
8881.00,1.37
8880.00,1.37
8879.00,1.38
8878.00,1.38
8877.00,1.39
8876.00,1.39
8875.00,1.39
8874.00,1.40
8873.00,1.40
8872.00,1.40
8871.00,1.40
8870.00,1.40
8869.00,1.40
8868.00,1.41
8867.00,1.41
8866.00,1.41
8865.00,1.41
8864.00,1.41
8863.00,1.40
8862.00,1.40
8861.00,1.40
8860.00,1.39
8859.00,1.39
8858.00,1.38
8857.00,1.38
8856.00,1.37
8855.00,1.37
8854.00,1.36
8853.00,1.36
8852.00,1.35
8851.00,1.35
8850.00,1.34
8849.00,1.34
8848.00,1.34
8847.00,1.33
8846.00,1.32
8845.00,1.32
8844.00,1.31
8843.00,1.31
8842.00,1.30
8841.00,1.29
8840.00,1.28
8839.00,1.27
8838.00,1.27
8837.00,1.26
8836.00,1.25
8835.00,1.25
8834.00,1.24
8833.00,1.24
8832.00,1.23
8831.00,1.23
8830.00,1.23
8829.00,1.22
8828.00,1.22
8827.00,1.21
8826.00,1.21
8825.00,1.21
8824.00,1.20
8823.00,1.20
8822.00,1.20
8821.00,1.20
8820.00,1.20
8819.00,1.20
8818.00,1.20
8817.00,1.20
8816.00,1.20
8815.00,1.20
8814.00,1.21
8813.00,1.21
8812.00,1.22
8811.00,1.22
8810.00,1.22
8809.00,1.23
8808.00,1.23
8807.00,1.24
8806.00,1.24
8805.00,1.24
8804.00,1.25
8803.00,1.25
8802.00,1.25
8801.00,1.26
8800.00,1.26
8799.00,1.26
8798.00,1.27
8797.00,1.27
8796.00,1.28
8795.00,1.28
8794.00,1.28
8793.00,1.28
8792.00,1.29
8791.00,1.29
8790.00,1.29
8789.00,1.29
8788.00,1.29
8787.00,1.29
8786.00,1.29
8785.00,1.29
8784.00,1.28
8783.00,1.28
8782.00,1.28
8781.00,1.28
8780.00,1.28
8779.00,1.28
8778.00,1.28
8777.00,1.28
8776.00,1.28
8775.00,1.28
8774.00,1.27
8773.00,1.27
8772.00,1.27
8771.00,1.27
8770.00,1.27
8769.00,1.27
8768.00,1.26
8767.00,1.26
8766.00,1.26
8765.00,1.26
8764.00,1.26
8763.00,1.26
8762.00,1.25
8761.00,1.25
8760.00,1.25
8759.00,1.25
8758.00,1.25
8757.00,1.25
8756.00,1.25
8755.00,1.25
8754.00,1.25
8753.00,1.25
8752.00,1.25
8751.00,1.25
8750.00,1.25
8749.00,1.24
8748.00,1.24
8747.00,1.24
8746.00,1.24
8745.00,1.23
8744.00,1.23
8743.00,1.23
8742.00,1.23
8741.00,1.22
8740.00,1.22
8739.00,1.21
8738.00,1.21
8737.00,1.20
8736.00,1.20
8735.00,1.19
8734.00,1.19
8733.00,1.18
8732.00,1.18
8731.00,1.17
8730.00,1.17
8729.00,1.16
8728.00,1.16
8727.00,1.16
8726.00,1.15
8725.00,1.15
8724.00,1.15
8723.00,1.15
8722.00,1.15
8721.00,1.15
8720.00,1.15
8719.00,1.15
8718.00,1.15
8717.00,1.16
8716.00,1.16
8715.00,1.16
8714.00,1.16
8713.00,1.16
8712.00,1.17
8711.00,1.17
8710.00,1.18
8709.00,1.18
8708.00,1.19
8707.00,1.19
8706.00,1.20
8705.00,1.20
8704.00,1.21
8703.00,1.21
8702.00,1.22
8701.00,1.22
8700.00,1.23
8699.00,1.23
8698.00,1.23
8697.00,1.24
8696.00,1.24
8695.00,1.24
8694.00,1.24
8693.00,1.24
8692.00,1.24
8691.00,1.25
8690.00,1.25
8689.00,1.25
8688.00,1.26
8687.00,1.26
8686.00,1.27
8685.00,1.27
8684.00,1.27
8683.00,1.28
8682.00,1.28
8681.00,1.28
8680.00,1.28
8679.00,1.28
8678.00,1.28
8677.00,1.29
8676.00,1.29
8675.00,1.29
8674.00,1.29
8673.00,1.29
8672.00,1.30
8671.00,1.30
8670.00,1.31
8669.00,1.31
8668.00,1.31
8667.00,1.32
8666.00,1.32
8665.00,1.32
8664.00,1.32
8663.00,1.33
8662.00,1.33
8661.00,1.33
8660.00,1.33
8659.00,1.33
8658.00,1.33
8657.00,1.33
8656.00,1.33
8655.00,1.32
8654.00,1.32
8653.00,1.32
8652.00,1.32
8651.00,1.32
8650.00,1.32
8649.00,1.31
8648.00,1.31
8647.00,1.31
8646.00,1.30
8645.00,1.30
8644.00,1.29
8643.00,1.29
8642.00,1.28
8641.00,1.27
8640.00,1.27
8639.00,1.26
8638.00,1.26
8637.00,1.25
8636.00,1.25
8635.00,1.25
8634.00,1.24
8633.00,1.24
8632.00,1.23
8631.00,1.23
8630.00,1.22
8629.00,1.22
8628.00,1.21
8627.00,1.21
8626.00,1.21
8625.00,1.21
8624.00,1.20
8623.00,1.20
8622.00,1.20
8621.00,1.20
8620.00,1.20
8619.00,1.20
8618.00,1.20
8617.00,1.20
8616.00,1.20
8615.00,1.21
8614.00,1.21
8613.00,1.21
8612.00,1.21
8611.00,1.21
8610.00,1.21
8609.00,1.21
8608.00,1.21
8607.00,1.22
8606.00,1.22
8605.00,1.22
8604.00,1.22
8603.00,1.22
8602.00,1.23
8601.00,1.23
8600.00,1.23
8599.00,1.23
8598.00,1.24
8597.00,1.24
8596.00,1.24
8595.00,1.24
8594.00,1.24
8593.00,1.24
8592.00,1.24
8591.00,1.24
8590.00,1.24
8589.00,1.23
8588.00,1.23
8587.00,1.23
8586.00,1.23
8585.00,1.23
8584.00,1.22
8583.00,1.22
8582.00,1.22
8581.00,1.22
8580.00,1.21
8579.00,1.21
8578.00,1.21
8577.00,1.20
8576.00,1.20
8575.00,1.19
8574.00,1.19
8573.00,1.18
8572.00,1.18
8571.00,1.17
8570.00,1.17
8569.00,1.16
8568.00,1.16
8567.00,1.15
8566.00,1.15
8565.00,1.14
8564.00,1.14
8563.00,1.14
8562.00,1.13
8561.00,1.13
8560.00,1.12
8559.00,1.12
8558.00,1.12
8557.00,1.11
8556.00,1.11
8555.00,1.10
8554.00,1.10
8553.00,1.10
8552.00,1.09
8551.00,1.09
8550.00,1.09
8549.00,1.09
8548.00,1.09
8547.00,1.09
8546.00,1.09
8545.00,1.09
8544.00,1.09
8543.00,1.09
8542.00,1.09
8541.00,1.09
8540.00,1.09
8539.00,1.09
8538.00,1.09
8537.00,1.09
8536.00,1.09
8535.00,1.10
8534.00,1.10
8533.00,1.10
8532.00,1.10
8531.00,1.10
8530.00,1.10
8529.00,1.11
8528.00,1.11
8527.00,1.11
8526.00,1.12
8525.00,1.12
8524.00,1.12
8523.00,1.12
8522.00,1.13
8521.00,1.13
8520.00,1.13
8519.00,1.13
8518.00,1.14
8517.00,1.14
8516.00,1.14
8515.00,1.14
8514.00,1.14
8513.00,1.15
8512.00,1.15
8511.00,1.15
8510.00,1.16
8509.00,1.16
8508.00,1.16
8507.00,1.17
8506.00,1.17
8505.00,1.18
8504.00,1.18
8503.00,1.19
8502.00,1.19
8501.00,1.20
8500.00,1.20
8499.00,1.20
8498.00,1.21
8497.00,1.21
8496.00,1.22
8495.00,1.22
8494.00,1.22
8493.00,1.23
8492.00,1.23
8491.00,1.23
8490.00,1.24
8489.00,1.24
8488.00,1.24
8487.00,1.24
8486.00,1.24
8485.00,1.24
8484.00,1.24
8483.00,1.24
8482.00,1.24
8481.00,1.24
8480.00,1.24
8479.00,1.23
8478.00,1.23
8477.00,1.23
8476.00,1.22
8475.00,1.22
8474.00,1.22
8473.00,1.21
8472.00,1.21
8471.00,1.21
8470.00,1.20
8469.00,1.20
8468.00,1.20
8467.00,1.19
8466.00,1.19
8465.00,1.19
8464.00,1.18
8463.00,1.18
8462.00,1.18
8461.00,1.18
8460.00,1.17
8459.00,1.17
8458.00,1.17
8457.00,1.17
8456.00,1.17
8455.00,1.17
8454.00,1.17
8453.00,1.17
8452.00,1.17
8451.00,1.17
8450.00,1.17
8449.00,1.16
8448.00,1.16
8447.00,1.16
8446.00,1.16
8445.00,1.16
8444.00,1.16
8443.00,1.16
8442.00,1.16
8441.00,1.16
8440.00,1.16
8439.00,1.16
8438.00,1.17
8437.00,1.17
8436.00,1.17
8435.00,1.16
8434.00,1.16
8433.00,1.16
8432.00,1.16
8431.00,1.16
8430.00,1.16
8429.00,1.16
8428.00,1.16
8427.00,1.16
8426.00,1.16
8425.00,1.16
8424.00,1.15
8423.00,1.15
8422.00,1.15
8421.00,1.15
8420.00,1.15
8419.00,1.15
8418.00,1.15
8417.00,1.14
8416.00,1.14
8415.00,1.14
8414.00,1.14
8413.00,1.14
8412.00,1.14
8411.00,1.13
8410.00,1.13
8409.00,1.13
8408.00,1.13
8407.00,1.13
8406.00,1.13
8405.00,1.13
8404.00,1.13
8403.00,1.13
8402.00,1.13
8401.00,1.13
8400.00,1.13
8399.00,1.13
8398.00,1.13
8397.00,1.13
8396.00,1.14
8395.00,1.14
8394.00,1.14
8393.00,1.14
8392.00,1.15
8391.00,1.15
8390.00,1.15
8389.00,1.15
8388.00,1.16
8387.00,1.16
8386.00,1.16
8385.00,1.16
8384.00,1.17
8383.00,1.17
8382.00,1.17
8381.00,1.18
8380.00,1.18
8379.00,1.19
8378.00,1.19
8377.00,1.20
8376.00,1.20
8375.00,1.20
8374.00,1.21
8373.00,1.21
8372.00,1.21
8371.00,1.22
8370.00,1.22
8369.00,1.22
8368.00,1.22
8367.00,1.23
8366.00,1.23
8365.00,1.23
8364.00,1.23
8363.00,1.23
8362.00,1.23
8361.00,1.23
8360.00,1.24
8359.00,1.24
8358.00,1.24
8357.00,1.24
8356.00,1.24
8355.00,1.24
8354.00,1.24
8353.00,1.23
8352.00,1.23
8351.00,1.23
8350.00,1.23
8349.00,1.23
8348.00,1.22
8347.00,1.22
8346.00,1.22
8345.00,1.22
8344.00,1.22
8343.00,1.22
8342.00,1.21
8341.00,1.21
8340.00,1.21
8339.00,1.21
8338.00,1.21
8337.00,1.21
8336.00,1.21
8335.00,1.21
8334.00,1.21
8333.00,1.21
8332.00,1.21
8331.00,1.21
8330.00,1.21
8329.00,1.21
8328.00,1.21
8327.00,1.21
8326.00,1.21
8325.00,1.21
8324.00,1.21
8323.00,1.21
8322.00,1.21
8321.00,1.21
8320.00,1.21
8319.00,1.21
8318.00,1.22
8317.00,1.22
8316.00,1.22
8315.00,1.22
8314.00,1.22
8313.00,1.22
8312.00,1.22
8311.00,1.22
8310.00,1.22
8309.00,1.22
8308.00,1.22
8307.00,1.22
8306.00,1.22
8305.00,1.22
8304.00,1.22
8303.00,1.22
8302.00,1.22
8301.00,1.22
8300.00,1.22
8299.00,1.23
8298.00,1.23
8297.00,1.23
8296.00,1.23
8295.00,1.23
8294.00,1.23
8293.00,1.23
8292.00,1.23
8291.00,1.23
8290.00,1.23
8289.00,1.23
8288.00,1.23
8287.00,1.23
8286.00,1.23
8285.00,1.23
8284.00,1.24
8283.00,1.24
8282.00,1.24
8281.00,1.25
8280.00,1.25
8279.00,1.26
8278.00,1.26
8277.00,1.27
8276.00,1.27
8275.00,1.28
8274.00,1.28
8273.00,1.28
8272.00,1.28
8271.00,1.29
8270.00,1.29
8269.00,1.29
8268.00,1.29
8267.00,1.29
8266.00,1.30
8265.00,1.30
8264.00,1.30
8263.00,1.30
8262.00,1.30
8261.00,1.30
8260.00,1.30
8259.00,1.30
8258.00,1.30
8257.00,1.29
8256.00,1.29
8255.00,1.28
8254.00,1.28
8253.00,1.27
8252.00,1.26
8251.00,1.25
8250.00,1.25
8249.00,1.24
8248.00,1.23
8247.00,1.22
8246.00,1.21
8245.00,1.21
8244.00,1.20
8243.00,1.19
8242.00,1.19
8241.00,1.18
8240.00,1.17
8239.00,1.17
8238.00,1.16
8237.00,1.16
8236.00,1.15
8235.00,1.15
8234.00,1.15
8233.00,1.14
8232.00,1.14
8231.00,1.14
8230.00,1.14
8229.00,1.15
8228.00,1.15
8227.00,1.15
8226.00,1.16
8225.00,1.16
8224.00,1.17
8223.00,1.17
8222.00,1.18
8221.00,1.18
8220.00,1.19
8219.00,1.20
8218.00,1.20
8217.00,1.21
8216.00,1.22
8215.00,1.22
8214.00,1.23
8213.00,1.23
8212.00,1.24
8211.00,1.24
8210.00,1.25
8209.00,1.25
8208.00,1.25
8207.00,1.26
8206.00,1.26
8205.00,1.26
8204.00,1.26
8203.00,1.26
8202.00,1.26
8201.00,1.26
8200.00,1.25
8199.00,1.25
8198.00,1.25
8197.00,1.25
8196.00,1.24
8195.00,1.24
8194.00,1.23
8193.00,1.23
8192.00,1.23
8191.00,1.22
8190.00,1.22
8189.00,1.22
8188.00,1.21
8187.00,1.21
8186.00,1.21
8185.00,1.20
8184.00,1.20
8183.00,1.20
8182.00,1.20
8181.00,1.19
8180.00,1.19
8179.00,1.19
8178.00,1.19
8177.00,1.19
8176.00,1.20
8175.00,1.20
8174.00,1.20
8173.00,1.20
8172.00,1.20
8171.00,1.21
8170.00,1.21
8169.00,1.21
8168.00,1.21
8167.00,1.22
8166.00,1.22
8165.00,1.22
8164.00,1.23
8163.00,1.23
8162.00,1.23
8161.00,1.24
8160.00,1.24
8159.00,1.24
8158.00,1.25
8157.00,1.25
8156.00,1.25
8155.00,1.25
8154.00,1.26
8153.00,1.26
8152.00,1.26
8151.00,1.26
8150.00,1.26
8149.00,1.26
8148.00,1.26
8147.00,1.26
8146.00,1.26
8145.00,1.26
8144.00,1.26
8143.00,1.26
8142.00,1.26
8141.00,1.26
8140.00,1.26
8139.00,1.26
8138.00,1.26
8137.00,1.26
8136.00,1.25
8135.00,1.25
8134.00,1.25
8133.00,1.25
8132.00,1.25
8131.00,1.25
8130.00,1.25
8129.00,1.24
8128.00,1.24
8127.00,1.24
8126.00,1.24
8125.00,1.24
8124.00,1.24
8123.00,1.24
8122.00,1.24
8121.00,1.24
8120.00,1.24
8119.00,1.24
8118.00,1.24
8117.00,1.25
8116.00,1.25
8115.00,1.25
8114.00,1.25
8113.00,1.25
8112.00,1.26
8111.00,1.26
8110.00,1.27
8109.00,1.27
8108.00,1.27
8107.00,1.28
8106.00,1.28
8105.00,1.29
8104.00,1.29
8103.00,1.30
8102.00,1.31
8101.00,1.31
8100.00,1.32
8099.00,1.32
8098.00,1.33
8097.00,1.33
8096.00,1.34
8095.00,1.34
8094.00,1.35
8093.00,1.35
8092.00,1.36
8091.00,1.36
8090.00,1.37
8089.00,1.37
8088.00,1.38
8087.00,1.38
8086.00,1.38
8085.00,1.38
8084.00,1.39
8083.00,1.39
8082.00,1.39
8081.00,1.39
8080.00,1.39
8079.00,1.39
8078.00,1.39
8077.00,1.38
8076.00,1.38
8075.00,1.38
8074.00,1.38
8073.00,1.38
8072.00,1.37
8071.00,1.37
8070.00,1.37
8069.00,1.36
8068.00,1.36
8067.00,1.36
8066.00,1.35
8065.00,1.35
8064.00,1.35
8063.00,1.34
8062.00,1.34
8061.00,1.34
8060.00,1.33
8059.00,1.33
8058.00,1.33
8057.00,1.33
8056.00,1.32
8055.00,1.32
8054.00,1.32
8053.00,1.32
8052.00,1.32
8051.00,1.31
8050.00,1.31
8049.00,1.31
8048.00,1.31
8047.00,1.31
8046.00,1.30
8045.00,1.30
8044.00,1.30
8043.00,1.30
8042.00,1.30
8041.00,1.30
8040.00,1.29
8039.00,1.29
8038.00,1.29
8037.00,1.29
8036.00,1.29
8035.00,1.29
8034.00,1.29
8033.00,1.28
8032.00,1.28
8031.00,1.28
8030.00,1.28
8029.00,1.28
8028.00,1.28
8027.00,1.28
8026.00,1.27
8025.00,1.27
8024.00,1.27
8023.00,1.27
8022.00,1.27
8021.00,1.27
8020.00,1.27
8019.00,1.28
8018.00,1.28
8017.00,1.28
8016.00,1.28
8015.00,1.29
8014.00,1.29
8013.00,1.29
8012.00,1.30
8011.00,1.30
8010.00,1.30
8009.00,1.31
8008.00,1.31
8007.00,1.31
8006.00,1.32
8005.00,1.32
8004.00,1.33
8003.00,1.33
8002.00,1.34
8001.00,1.34
8000.00,1.35
7999.00,1.35
7998.00,1.36
7997.00,1.36
7996.00,1.36
7995.00,1.37
7994.00,1.37
7993.00,1.37
7992.00,1.37
7991.00,1.37
7990.00,1.37
7989.00,1.38
7988.00,1.38
7987.00,1.38
7986.00,1.38
7985.00,1.38
7984.00,1.38
7983.00,1.38
7982.00,1.38
7981.00,1.38
7980.00,1.38
7979.00,1.38
7978.00,1.38
7977.00,1.37
7976.00,1.37
7975.00,1.37
7974.00,1.37
7973.00,1.37
7972.00,1.37
7971.00,1.37
7970.00,1.36
7969.00,1.36
7968.00,1.36
7967.00,1.36
7966.00,1.36
7965.00,1.36
7964.00,1.36
7963.00,1.35
7962.00,1.35
7961.00,1.35
7960.00,1.35
7959.00,1.35
7958.00,1.34
7957.00,1.34
7956.00,1.34
7955.00,1.33
7954.00,1.33
7953.00,1.32
7952.00,1.32
7951.00,1.32
7950.00,1.31
7949.00,1.31
7948.00,1.31
7947.00,1.30
7946.00,1.30
7945.00,1.30
7944.00,1.30
7943.00,1.30
7942.00,1.30
7941.00,1.30
7940.00,1.30
7939.00,1.30
7938.00,1.30
7937.00,1.30
7936.00,1.31
7935.00,1.31
7934.00,1.31
7933.00,1.31
7932.00,1.31
7931.00,1.32
7930.00,1.32
7929.00,1.32
7928.00,1.33
7927.00,1.33
7926.00,1.33
7925.00,1.34
7924.00,1.34
7923.00,1.34
7922.00,1.35
7921.00,1.35
7920.00,1.35
7919.00,1.35
7918.00,1.35
7917.00,1.35
7916.00,1.35
7915.00,1.35
7914.00,1.35
7913.00,1.35
7912.00,1.35
7911.00,1.35
7910.00,1.35
7909.00,1.35
7908.00,1.35
7907.00,1.34
7906.00,1.34
7905.00,1.34
7904.00,1.34
7903.00,1.34
7902.00,1.34
7901.00,1.34
7900.00,1.34
7899.00,1.34
7898.00,1.34
7897.00,1.34
7896.00,1.33
7895.00,1.33
7894.00,1.33
7893.00,1.33
7892.00,1.33
7891.00,1.33
7890.00,1.33
7889.00,1.33
7888.00,1.33
7887.00,1.33
7886.00,1.33
7885.00,1.33
7884.00,1.34
7883.00,1.34
7882.00,1.34
7881.00,1.34
7880.00,1.34
7879.00,1.34
7878.00,1.34
7877.00,1.34
7876.00,1.34
7875.00,1.34
7874.00,1.34
7873.00,1.34
7872.00,1.34
7871.00,1.34
7870.00,1.34
7869.00,1.34
7868.00,1.35
7867.00,1.35
7866.00,1.35
7865.00,1.35
7864.00,1.35
7863.00,1.35
7862.00,1.35
7861.00,1.35
7860.00,1.36
7859.00,1.36
7858.00,1.36
7857.00,1.36
7856.00,1.36
7855.00,1.36
7854.00,1.37
7853.00,1.37
7852.00,1.37
7851.00,1.37
7850.00,1.38
7849.00,1.38
7848.00,1.38
7847.00,1.38
7846.00,1.39
7845.00,1.39
7844.00,1.39
7843.00,1.39
7842.00,1.39
7841.00,1.39
7840.00,1.39
7839.00,1.40
7838.00,1.40
7837.00,1.40
7836.00,1.40
7835.00,1.40
7834.00,1.40
7833.00,1.40
7832.00,1.40
7831.00,1.40
7830.00,1.40
7829.00,1.40
7828.00,1.40
7827.00,1.40
7826.00,1.40
7825.00,1.39
7824.00,1.39
7823.00,1.39
7822.00,1.38
7821.00,1.38
7820.00,1.37
7819.00,1.37
7818.00,1.37
7817.00,1.36
7816.00,1.36
7815.00,1.36
7814.00,1.35
7813.00,1.35
7812.00,1.35
7811.00,1.34
7810.00,1.34
7809.00,1.34
7808.00,1.33
7807.00,1.33
7806.00,1.33
7805.00,1.33
7804.00,1.33
7803.00,1.33
7802.00,1.33
7801.00,1.33
7800.00,1.33
7799.00,1.33
7798.00,1.34
7797.00,1.34
7796.00,1.35
7795.00,1.36
7794.00,1.36
7793.00,1.37
7792.00,1.37
7791.00,1.38
7790.00,1.39
7789.00,1.39
7788.00,1.40
7787.00,1.40
7786.00,1.41
7785.00,1.41
7784.00,1.42
7783.00,1.42
7782.00,1.43
7781.00,1.43
7780.00,1.43
7779.00,1.44
7778.00,1.44
7777.00,1.45
7776.00,1.45
7775.00,1.45
7774.00,1.45
7773.00,1.45
7772.00,1.45
7771.00,1.45
7770.00,1.45
7769.00,1.45
7768.00,1.45
7767.00,1.44
7766.00,1.44
7765.00,1.44
7764.00,1.44
7763.00,1.43
7762.00,1.43
7761.00,1.43
7760.00,1.43
7759.00,1.42
7758.00,1.42
7757.00,1.42
7756.00,1.42
7755.00,1.42
7754.00,1.41
7753.00,1.41
7752.00,1.41
7751.00,1.41
7750.00,1.41
7749.00,1.41
7748.00,1.41
7747.00,1.41
7746.00,1.41
7745.00,1.41
7744.00,1.41
7743.00,1.41
7742.00,1.41
7741.00,1.41
7740.00,1.41
7739.00,1.41
7738.00,1.41
7737.00,1.41
7736.00,1.41
7735.00,1.41
7734.00,1.41
7733.00,1.42
7732.00,1.42
7731.00,1.42
7730.00,1.42
7729.00,1.42
7728.00,1.42
7727.00,1.42
7726.00,1.42
7725.00,1.41
7724.00,1.41
7723.00,1.41
7722.00,1.41
7721.00,1.41
7720.00,1.41
7719.00,1.41
7718.00,1.40
7717.00,1.40
7716.00,1.40
7715.00,1.40
7714.00,1.40
7713.00,1.39
7712.00,1.39
7711.00,1.39
7710.00,1.38
7709.00,1.38
7708.00,1.38
7707.00,1.38
7706.00,1.37
7705.00,1.37
7704.00,1.37
7703.00,1.37
7702.00,1.37
7701.00,1.36
7700.00,1.36
7699.00,1.36
7698.00,1.36
7697.00,1.36
7696.00,1.36
7695.00,1.36
7694.00,1.36
7693.00,1.35
7692.00,1.35
7691.00,1.35
7690.00,1.35
7689.00,1.35
7688.00,1.35
7687.00,1.36
7686.00,1.36
7685.00,1.36
7684.00,1.36
7683.00,1.36
7682.00,1.37
7681.00,1.37
7680.00,1.37
7679.00,1.37
7678.00,1.37
7677.00,1.38
7676.00,1.38
7675.00,1.38
7674.00,1.38
7673.00,1.39
7672.00,1.39
7671.00,1.39
7670.00,1.40
7669.00,1.40
7668.00,1.40
7667.00,1.41
7666.00,1.41
7665.00,1.41
7664.00,1.42
7663.00,1.42
7662.00,1.42
7661.00,1.43
7660.00,1.43
7659.00,1.43
7658.00,1.43
7657.00,1.44
7656.00,1.44
7655.00,1.44
7654.00,1.44
7653.00,1.45
7652.00,1.45
7651.00,1.45
7650.00,1.45
7649.00,1.46
7648.00,1.46
7647.00,1.46
7646.00,1.46
7645.00,1.47
7644.00,1.47
7643.00,1.47
7642.00,1.47
7641.00,1.47
7640.00,1.48
7639.00,1.48
7638.00,1.48
7637.00,1.48
7636.00,1.48
7635.00,1.48
7634.00,1.48
7633.00,1.48
7632.00,1.48
7631.00,1.48
7630.00,1.48
7629.00,1.48
7628.00,1.48
7627.00,1.48
7626.00,1.48
7625.00,1.47
7624.00,1.47
7623.00,1.47
7622.00,1.47
7621.00,1.47
7620.00,1.47
7619.00,1.46
7618.00,1.46
7617.00,1.46
7616.00,1.46
7615.00,1.45
7614.00,1.45
7613.00,1.45
7612.00,1.45
7611.00,1.45
7610.00,1.45
7609.00,1.44
7608.00,1.44
7607.00,1.44
7606.00,1.44
7605.00,1.44
7604.00,1.44
7603.00,1.44
7602.00,1.44
7601.00,1.44
7600.00,1.44
7599.00,1.44
7598.00,1.44
7597.00,1.43
7596.00,1.43
7595.00,1.43
7594.00,1.43
7593.00,1.43
7592.00,1.43
7591.00,1.43
7590.00,1.43
7589.00,1.43
7588.00,1.43
7587.00,1.43
7586.00,1.43
7585.00,1.43
7584.00,1.43
7583.00,1.43
7582.00,1.42
7581.00,1.42
7580.00,1.42
7579.00,1.42
7578.00,1.42
7577.00,1.42
7576.00,1.41
7575.00,1.41
7574.00,1.41
7573.00,1.41
7572.00,1.41
7571.00,1.41
7570.00,1.41
7569.00,1.41
7568.00,1.41
7567.00,1.41
7566.00,1.41
7565.00,1.41
7564.00,1.42
7563.00,1.42
7562.00,1.42
7561.00,1.42
7560.00,1.42
7559.00,1.42
7558.00,1.43
7557.00,1.43
7556.00,1.43
7555.00,1.43
7554.00,1.44
7553.00,1.44
7552.00,1.44
7551.00,1.45
7550.00,1.45
7549.00,1.45
7548.00,1.45
7547.00,1.45
7546.00,1.46
7545.00,1.46
7544.00,1.46
7543.00,1.45
7542.00,1.45
7541.00,1.45
7540.00,1.45
7539.00,1.45
7538.00,1.45
7537.00,1.44
7536.00,1.44
7535.00,1.44
7534.00,1.43
7533.00,1.43
7532.00,1.42
7531.00,1.42
7530.00,1.41
7529.00,1.41
7528.00,1.40
7527.00,1.40
7526.00,1.39
7525.00,1.39
7524.00,1.38
7523.00,1.38
7522.00,1.37
7521.00,1.37
7520.00,1.36
7519.00,1.36
7518.00,1.36
7517.00,1.36
7516.00,1.35
7515.00,1.35
7514.00,1.35
7513.00,1.35
7512.00,1.35
7511.00,1.35
7510.00,1.35
7509.00,1.35
7508.00,1.36
7507.00,1.36
7506.00,1.36
7505.00,1.36
7504.00,1.36
7503.00,1.37
7502.00,1.37
7501.00,1.37
7500.00,1.37
7499.00,1.38
7498.00,1.38
7497.00,1.38
7496.00,1.38
7495.00,1.38
7494.00,1.38
7493.00,1.38
7492.00,1.38
7491.00,1.38
7490.00,1.38
7489.00,1.39
7488.00,1.39
7487.00,1.39
7486.00,1.39
7485.00,1.39
7484.00,1.39
7483.00,1.39
7482.00,1.39
7481.00,1.39
7480.00,1.39
7479.00,1.39
7478.00,1.39
7477.00,1.39
7476.00,1.39
7475.00,1.39
7474.00,1.39
7473.00,1.39
7472.00,1.39
7471.00,1.39
7470.00,1.39
7469.00,1.39
7468.00,1.39
7467.00,1.39
7466.00,1.39
7465.00,1.39
7464.00,1.39
7463.00,1.39
7462.00,1.39
7461.00,1.39
7460.00,1.39
7459.00,1.39
7458.00,1.38
7457.00,1.38
7456.00,1.38
7455.00,1.38
7454.00,1.38
7453.00,1.38
7452.00,1.37
7451.00,1.37
7450.00,1.37
7449.00,1.37
7448.00,1.36
7447.00,1.36
7446.00,1.36
7445.00,1.36
7444.00,1.36
7443.00,1.35
7442.00,1.35
7441.00,1.35
7440.00,1.35
7439.00,1.34
7438.00,1.34
7437.00,1.34
7436.00,1.34
7435.00,1.33
7434.00,1.33
7433.00,1.33
7432.00,1.32
7431.00,1.32
7430.00,1.32
7429.00,1.32
7428.00,1.32
7427.00,1.31
7426.00,1.31
7425.00,1.31
7424.00,1.31
7423.00,1.31
7422.00,1.31
7421.00,1.30
7420.00,1.30
7419.00,1.30
7418.00,1.30
7417.00,1.30
7416.00,1.30
7415.00,1.29
7414.00,1.29
7413.00,1.29
7412.00,1.29
7411.00,1.29
7410.00,1.29
7409.00,1.29
7408.00,1.29
7407.00,1.29
7406.00,1.29
7405.00,1.29
7404.00,1.29
7403.00,1.29
7402.00,1.29
7401.00,1.29
7400.00,1.29
7399.00,1.29
7398.00,1.29
7397.00,1.29
7396.00,1.29
7395.00,1.29
7394.00,1.29
7393.00,1.29
7392.00,1.29
7391.00,1.29
7390.00,1.29
7389.00,1.29
7388.00,1.29
7387.00,1.29
7386.00,1.29
7385.00,1.29
7384.00,1.29
7383.00,1.29
7382.00,1.29
7381.00,1.29
7380.00,1.29
7379.00,1.29
7378.00,1.29
7377.00,1.29
7376.00,1.29
7375.00,1.29
7374.00,1.29
7373.00,1.29
7372.00,1.29
7371.00,1.29
7370.00,1.30
7369.00,1.30
7368.00,1.30
7367.00,1.30
7366.00,1.30
7365.00,1.30
7364.00,1.30
7363.00,1.30
7362.00,1.30
7361.00,1.30
7360.00,1.30
7359.00,1.30
7358.00,1.30
7357.00,1.30
7356.00,1.30
7355.00,1.30
7354.00,1.30
7353.00,1.30
7352.00,1.30
7351.00,1.30
7350.00,1.30
7349.00,1.30
7348.00,1.30
7347.00,1.30
7346.00,1.30
7345.00,1.30
7344.00,1.30
7343.00,1.30
7342.00,1.30
7341.00,1.30
7340.00,1.30
7339.00,1.30
7338.00,1.30
7337.00,1.30
7336.00,1.29
7335.00,1.29
7334.00,1.29
7333.00,1.29
7332.00,1.29
7331.00,1.29
7330.00,1.29
7329.00,1.29
7328.00,1.29
7327.00,1.29
7326.00,1.29
7325.00,1.28
7324.00,1.28
7323.00,1.28
7322.00,1.28
7321.00,1.28
7320.00,1.28
7319.00,1.27
7318.00,1.27
7317.00,1.27
7316.00,1.27
7315.00,1.26
7314.00,1.26
7313.00,1.26
7312.00,1.26
7311.00,1.25
7310.00,1.25
7309.00,1.25
7308.00,1.25
7307.00,1.25
7306.00,1.24
7305.00,1.24
7304.00,1.24
7303.00,1.24
7302.00,1.23
7301.00,1.23
7300.00,1.23
7299.00,1.23
7298.00,1.23
7297.00,1.23
7296.00,1.23
7295.00,1.23
7294.00,1.22
7293.00,1.22
7292.00,1.22
7291.00,1.22
7290.00,1.22
7289.00,1.22
7288.00,1.22
7287.00,1.22
7286.00,1.22
7285.00,1.22
7284.00,1.22
7283.00,1.22
7282.00,1.22
7281.00,1.22
7280.00,1.22
7279.00,1.23
7278.00,1.23
7277.00,1.23
7276.00,1.23
7275.00,1.23
7274.00,1.23
7273.00,1.23
7272.00,1.24
7271.00,1.24
7270.00,1.24
7269.00,1.24
7268.00,1.24
7267.00,1.24
7266.00,1.24
7265.00,1.24
7264.00,1.24
7263.00,1.24
7262.00,1.24
7261.00,1.24
7260.00,1.24
7259.00,1.24
7258.00,1.24
7257.00,1.24
7256.00,1.24
7255.00,1.23
7254.00,1.23
7253.00,1.23
7252.00,1.23
7251.00,1.22
7250.00,1.22
7249.00,1.22
7248.00,1.21
7247.00,1.21
7246.00,1.20
7245.00,1.20
7244.00,1.19
7243.00,1.19
7242.00,1.18
7241.00,1.18
7240.00,1.17
7239.00,1.17
7238.00,1.16
7237.00,1.16
7236.00,1.15
7235.00,1.15
7234.00,1.14
7233.00,1.14
7232.00,1.13
7231.00,1.12
7230.00,1.12
7229.00,1.11
7228.00,1.11
7227.00,1.10
7226.00,1.09
7225.00,1.09
7224.00,1.08
7223.00,1.08
7222.00,1.07
7221.00,1.07
7220.00,1.06
7219.00,1.06
7218.00,1.05
7217.00,1.04
7216.00,1.04
7215.00,1.03
7214.00,1.03
7213.00,1.02
7212.00,1.02
7211.00,1.01
7210.00,1.01
7209.00,1.00
7208.00,1.00
7207.00,0.99
7206.00,0.99
7205.00,0.98
7204.00,0.98
7203.00,0.97
7202.00,0.97
7201.00,0.97
7200.00,0.96
7199.00,0.96
7198.00,0.95
7197.00,0.95
7196.00,0.95
7195.00,0.94
7194.00,0.94
7193.00,0.94
7192.00,0.93
7191.00,0.93
7190.00,0.93
7189.00,0.92
7188.00,0.92
7187.00,0.92
7186.00,0.91
7185.00,0.91
7184.00,0.91
7183.00,0.91
7182.00,0.90
7181.00,0.90
7180.00,0.90
7179.00,0.89
7178.00,0.89
7177.00,0.88
7176.00,0.88
7175.00,0.87
7174.00,0.87
7173.00,0.87
7172.00,0.86
7171.00,0.86
7170.00,0.86
7169.00,0.85
7168.00,0.85
7167.00,0.85
7166.00,0.84
7165.00,0.84
7164.00,0.84
7163.00,0.84
7162.00,0.83
7161.00,0.83
7160.00,0.83
7159.00,0.82
7158.00,0.82
7157.00,0.82
7156.00,0.82
7155.00,0.82
7154.00,0.81
7153.00,0.81
7152.00,0.81
7151.00,0.81
7150.00,0.81
7149.00,0.81
7148.00,0.81
7147.00,0.81
7146.00,0.81
7145.00,0.81
7144.00,0.81
7143.00,0.81
7142.00,0.81
7141.00,0.81
7140.00,0.81
7139.00,0.81
7138.00,0.81
7137.00,0.81
7136.00,0.81
7135.00,0.81
7134.00,0.81
7133.00,0.81
7132.00,0.81
7131.00,0.81
7130.00,0.81
7129.00,0.81
7128.00,0.81
7127.00,0.80
7126.00,0.80
7125.00,0.80
7124.00,0.80
7123.00,0.80
7122.00,0.80
7121.00,0.79
7120.00,0.79
7119.00,0.79
7118.00,0.78
7117.00,0.78
7116.00,0.77
7115.00,0.77
7114.00,0.76
7113.00,0.76
7112.00,0.75
7111.00,0.75
7110.00,0.74
7109.00,0.74
7108.00,0.73
7107.00,0.73
7106.00,0.72
7105.00,0.72
7104.00,0.71
7103.00,0.71
7102.00,0.70
7101.00,0.70
7100.00,0.69
7099.00,0.69
7098.00,0.68
7097.00,0.68
7096.00,0.68
7095.00,0.67
7094.00,0.67
7093.00,0.66
7092.00,0.66
7091.00,0.65
7090.00,0.65
7089.00,0.65
7088.00,0.64
7087.00,0.64
7086.00,0.63
7085.00,0.63
7084.00,0.63
7083.00,0.62
7082.00,0.62
7081.00,0.62
7080.00,0.61
7079.00,0.61
7078.00,0.61
7077.00,0.60
7076.00,0.60
7075.00,0.60
7074.00,0.59
7073.00,0.59
7072.00,0.59
7071.00,0.59
7070.00,0.58
7069.00,0.58
7068.00,0.58
7067.00,0.58
7066.00,0.58
7065.00,0.58
7064.00,0.58
7063.00,0.58
7062.00,0.58
7061.00,0.58
7060.00,0.58
7059.00,0.58
7058.00,0.58
7057.00,0.58
7056.00,0.58
7055.00,0.58
7054.00,0.58
7053.00,0.58
7052.00,0.58
7051.00,0.58
7050.00,0.58
7049.00,0.58
7048.00,0.58
7047.00,0.58
7046.00,0.58
7045.00,0.58
7044.00,0.58
7043.00,0.57
7042.00,0.57
7041.00,0.57
7040.00,0.57
7039.00,0.56
7038.00,0.56
7037.00,0.56
7036.00,0.56
7035.00,0.55
7034.00,0.55
7033.00,0.55
7032.00,0.54
7031.00,0.54
7030.00,0.54
7029.00,0.54
7028.00,0.53
7027.00,0.53
7026.00,0.53
7025.00,0.53
7024.00,0.53
7023.00,0.53
7022.00,0.53
7021.00,0.53
7020.00,0.53
7019.00,0.53
7018.00,0.53
7017.00,0.53
7016.00,0.53
7015.00,0.53
7014.00,0.53
7013.00,0.53
7012.00,0.53
7011.00,0.53
7010.00,0.53
7009.00,0.53
7008.00,0.53
7007.00,0.53
7006.00,0.53
7005.00,0.53
7004.00,0.53
7003.00,0.53
7002.00,0.53
7001.00,0.53
7000.00,0.53
6999.00,0.54
6998.00,0.53
6997.00,0.53
6996.00,0.53
6995.00,0.53
6994.00,0.53
6993.00,0.53
6992.00,0.53
6991.00,0.53
6990.00,0.53
6989.00,0.53
6988.00,0.53
6987.00,0.53
6986.00,0.53
6985.00,0.53
6984.00,0.53
6983.00,0.53
6982.00,0.53
6981.00,0.53
6980.00,0.53
6979.00,0.53
6978.00,0.53
6977.00,0.53
6976.00,0.53
6975.00,0.53
6974.00,0.53
6973.00,0.53
6972.00,0.53
6971.00,0.53
6970.00,0.53
6969.00,0.52
6968.00,0.52
6967.00,0.52
6966.00,0.52
6965.00,0.52
6964.00,0.52
6963.00,0.52
6962.00,0.52
6961.00,0.52
6960.00,0.51
6959.00,0.51
6958.00,0.51
6957.00,0.51
6956.00,0.50
6955.00,0.50
6954.00,0.50
6953.00,0.50
6952.00,0.49
6951.00,0.49
6950.00,0.49
6949.00,0.49
6948.00,0.48
6947.00,0.48
6946.00,0.48
6945.00,0.48
6944.00,0.48
6943.00,0.47
6942.00,0.47
6941.00,0.47
6940.00,0.47
6939.00,0.47
6938.00,0.47
6937.00,0.47
6936.00,0.47
6935.00,0.47
6934.00,0.47
6933.00,0.47
6932.00,0.47
6931.00,0.47
6930.00,0.48
6929.00,0.48
6928.00,0.48
6927.00,0.48
6926.00,0.48
6925.00,0.48
6924.00,0.49
6923.00,0.49
6922.00,0.49
6921.00,0.49
6920.00,0.49
6919.00,0.50
6918.00,0.50
6917.00,0.50
6916.00,0.50
6915.00,0.51
6914.00,0.51
6913.00,0.51
6912.00,0.51
6911.00,0.51
6910.00,0.51
6909.00,0.51
6908.00,0.51
6907.00,0.51
6906.00,0.51
6905.00,0.51
6904.00,0.51
6903.00,0.51
6902.00,0.51
6901.00,0.51
6900.00,0.52
6899.00,0.52
6898.00,0.52
6897.00,0.52
6896.00,0.52
6895.00,0.52
6894.00,0.52
6893.00,0.52
6892.00,0.52
6891.00,0.52
6890.00,0.52
6889.00,0.51
6888.00,0.51
6887.00,0.51
6886.00,0.51
6885.00,0.51
6884.00,0.51
6883.00,0.51
6882.00,0.51
6881.00,0.51
6880.00,0.50
6879.00,0.50
6878.00,0.50
6877.00,0.50
6876.00,0.50
6875.00,0.50
6874.00,0.49
6873.00,0.49
6872.00,0.49
6871.00,0.49
6870.00,0.48
6869.00,0.48
6868.00,0.48
6867.00,0.48
6866.00,0.48
6865.00,0.47
6864.00,0.47
6863.00,0.47
6862.00,0.47
6861.00,0.47
6860.00,0.47
6859.00,0.47
6858.00,0.47
6857.00,0.47
6856.00,0.48
6855.00,0.48
6854.00,0.48
6853.00,0.48
6852.00,0.48
6851.00,0.49
6850.00,0.49
6849.00,0.49
6848.00,0.49
6847.00,0.49
6846.00,0.50
6845.00,0.50
6844.00,0.50
6843.00,0.50
6842.00,0.50
6841.00,0.50
6840.00,0.50
6839.00,0.50
6838.00,0.50
6837.00,0.50
6836.00,0.50
6835.00,0.50
6834.00,0.50
6833.00,0.50
6832.00,0.50
6831.00,0.50
6830.00,0.50
6829.00,0.50
6828.00,0.49
6827.00,0.49
6826.00,0.49
6825.00,0.49
6824.00,0.49
6823.00,0.48
6822.00,0.48
6821.00,0.48
6820.00,0.48
6819.00,0.48
6818.00,0.48
6817.00,0.47
6816.00,0.47
6815.00,0.47
6814.00,0.47
6813.00,0.47
6812.00,0.47
6811.00,0.47
6810.00,0.47
6809.00,0.47
6808.00,0.47
6807.00,0.47
6806.00,0.47
6805.00,0.47
6804.00,0.47
6803.00,0.48
6802.00,0.48
6801.00,0.48
6800.00,0.48
6799.00,0.48
6798.00,0.48
6797.00,0.48
6796.00,0.48
6795.00,0.48
6794.00,0.49
6793.00,0.49
6792.00,0.49
6791.00,0.50
6790.00,0.50
6789.00,0.50
6788.00,0.50
6787.00,0.51
6786.00,0.51
6785.00,0.51
6784.00,0.51
6783.00,0.51
6782.00,0.52
6781.00,0.52
6780.00,0.52
6779.00,0.52
6778.00,0.52
6777.00,0.52
6776.00,0.52
6775.00,0.52
6774.00,0.52
6773.00,0.52
6772.00,0.52
6771.00,0.52
6770.00,0.53
6769.00,0.53
6768.00,0.53
6767.00,0.53
6766.00,0.53
6765.00,0.53
6764.00,0.53
6763.00,0.52
6762.00,0.52
6761.00,0.52
6760.00,0.52
6759.00,0.52
6758.00,0.52
6757.00,0.52
6756.00,0.52
6755.00,0.52
6754.00,0.52
6753.00,0.52
6752.00,0.52
6751.00,0.52
6750.00,0.52
6749.00,0.53
6748.00,0.53
6747.00,0.53
6746.00,0.53
6745.00,0.53
6744.00,0.53
6743.00,0.52
6742.00,0.52
6741.00,0.52
6740.00,0.52
6739.00,0.52
6738.00,0.52
6737.00,0.52
6736.00,0.52
6735.00,0.52
6734.00,0.52
6733.00,0.52
6732.00,0.52
6731.00,0.52
6730.00,0.51
6729.00,0.51
6728.00,0.51
6727.00,0.51
6726.00,0.51
6725.00,0.51
6724.00,0.51
6723.00,0.51
6722.00,0.50
6721.00,0.50
6720.00,0.50
6719.00,0.50
6718.00,0.50
6717.00,0.50
6716.00,0.50
6715.00,0.50
6714.00,0.50
6713.00,0.51
6712.00,0.51
6711.00,0.51
6710.00,0.51
6709.00,0.51
6708.00,0.51
6707.00,0.51
6706.00,0.51
6705.00,0.51
6704.00,0.51
6703.00,0.52
6702.00,0.52
6701.00,0.52
6700.00,0.52
6699.00,0.52
6698.00,0.52
6697.00,0.53
6696.00,0.53
6695.00,0.53
6694.00,0.53
6693.00,0.54
6692.00,0.54
6691.00,0.54
6690.00,0.54
6689.00,0.54
6688.00,0.55
6687.00,0.55
6686.00,0.55
6685.00,0.55
6684.00,0.55
6683.00,0.56
6682.00,0.56
6681.00,0.56
6680.00,0.56
6679.00,0.57
6678.00,0.57
6677.00,0.57
6676.00,0.58
6675.00,0.58
6674.00,0.58
6673.00,0.58
6672.00,0.59
6671.00,0.59
6670.00,0.59
6669.00,0.60
6668.00,0.60
6667.00,0.60
6666.00,0.60
6665.00,0.61
6664.00,0.61
6663.00,0.61
6662.00,0.61
6661.00,0.62
6660.00,0.62
6659.00,0.62
6658.00,0.62
6657.00,0.63
6656.00,0.63
6655.00,0.63
6654.00,0.63
6653.00,0.63
6652.00,0.63
6651.00,0.63
6650.00,0.63
6649.00,0.63
6648.00,0.63
6647.00,0.63
6646.00,0.63
6645.00,0.63
6644.00,0.63
6643.00,0.63
6642.00,0.63
6641.00,0.63
6640.00,0.63
6639.00,0.63
6638.00,0.63
6637.00,0.63
6636.00,0.63
6635.00,0.63
6634.00,0.63
6633.00,0.63
6632.00,0.63
6631.00,0.63
6630.00,0.63
6629.00,0.63
6628.00,0.64
6627.00,0.64
6626.00,0.64
6625.00,0.64
6624.00,0.64
6623.00,0.64
6622.00,0.65
6621.00,0.65
6620.00,0.65
6619.00,0.65
6618.00,0.65
6617.00,0.65
6616.00,0.65
6615.00,0.66
6614.00,0.66
6613.00,0.66
6612.00,0.66
6611.00,0.66
6610.00,0.66
6609.00,0.66
6608.00,0.66
6607.00,0.66
6606.00,0.66
6605.00,0.66
6604.00,0.67
6603.00,0.67
6602.00,0.67
6601.00,0.67
6600.00,0.67
6599.00,0.67
6598.00,0.67
6597.00,0.67
6596.00,0.67
6595.00,0.67
6594.00,0.67
6593.00,0.67
6592.00,0.67
6591.00,0.68
6590.00,0.68
6589.00,0.68
6588.00,0.68
6587.00,0.68
6586.00,0.68
6585.00,0.68
6584.00,0.68
6583.00,0.68
6582.00,0.69
6581.00,0.69
6580.00,0.69
6579.00,0.69
6578.00,0.69
6577.00,0.69
6576.00,0.70
6575.00,0.70
6574.00,0.70
6573.00,0.70
6572.00,0.70
6571.00,0.71
6570.00,0.71
6569.00,0.71
6568.00,0.71
6567.00,0.71
6566.00,0.72
6565.00,0.72
6564.00,0.72
6563.00,0.72
6562.00,0.72
6561.00,0.72
6560.00,0.73
6559.00,0.73
6558.00,0.73
6557.00,0.73
6556.00,0.73
6555.00,0.73
6554.00,0.73
6553.00,0.74
6552.00,0.74
6551.00,0.74
6550.00,0.74
6549.00,0.74
6548.00,0.74
6547.00,0.74
6546.00,0.74
6545.00,0.74
6544.00,0.75
6543.00,0.75
6542.00,0.75
6541.00,0.75
6540.00,0.75
6539.00,0.75
6538.00,0.76
6537.00,0.76
6536.00,0.76
6535.00,0.77
6534.00,0.77
6533.00,0.77
6532.00,0.77
6531.00,0.78
6530.00,0.78
6529.00,0.79
6528.00,0.79
6527.00,0.79
6526.00,0.80
6525.00,0.80
6524.00,0.80
6523.00,0.81
6522.00,0.81
6521.00,0.81
6520.00,0.81
6519.00,0.82
6518.00,0.82
6517.00,0.82
6516.00,0.82
6515.00,0.82
6514.00,0.82
6513.00,0.82
6512.00,0.82
6511.00,0.82
6510.00,0.82
6509.00,0.82
6508.00,0.82
6507.00,0.82
6506.00,0.82
6505.00,0.82
6504.00,0.82
6503.00,0.82
6502.00,0.82
6501.00,0.81
6500.00,0.81
6499.00,0.81
6498.00,0.81
6497.00,0.81
6496.00,0.80
6495.00,0.80
6494.00,0.80
6493.00,0.80
6492.00,0.80
6491.00,0.80
6490.00,0.79
6489.00,0.79
6488.00,0.79
6487.00,0.79
6486.00,0.79
6485.00,0.79
6484.00,0.79
6483.00,0.78
6482.00,0.78
6481.00,0.78
6480.00,0.78
6479.00,0.78
6478.00,0.78
6477.00,0.78
6476.00,0.78
6475.00,0.78
6474.00,0.78
6473.00,0.78
6472.00,0.78
6471.00,0.78
6470.00,0.78
6469.00,0.78
6468.00,0.78
6467.00,0.78
6466.00,0.78
6465.00,0.78
6464.00,0.79
6463.00,0.79
6462.00,0.79
6461.00,0.79
6460.00,0.79
6459.00,0.79
6458.00,0.79
6457.00,0.80
6456.00,0.80
6455.00,0.80
6454.00,0.80
6453.00,0.80
6452.00,0.80
6451.00,0.80
6450.00,0.80
6449.00,0.80
6448.00,0.81
6447.00,0.81
6446.00,0.81
6445.00,0.81
6444.00,0.81
6443.00,0.81
6442.00,0.81
6441.00,0.81
6440.00,0.81
6439.00,0.82
6438.00,0.82
6437.00,0.82
6436.00,0.82
6435.00,0.82
6434.00,0.82
6433.00,0.82
6432.00,0.83
6431.00,0.83
6430.00,0.83
6429.00,0.83
6428.00,0.84
6427.00,0.84
6426.00,0.84
6425.00,0.84
6424.00,0.85
6423.00,0.85
6422.00,0.85
6421.00,0.85
6420.00,0.85
6419.00,0.86
6418.00,0.86
6417.00,0.86
6416.00,0.86
6415.00,0.86
6414.00,0.87
6413.00,0.87
6412.00,0.87
6411.00,0.87
6410.00,0.87
6409.00,0.87
6408.00,0.87
6407.00,0.87
6406.00,0.87
6405.00,0.87
6404.00,0.88
6403.00,0.88
6402.00,0.88
6401.00,0.88
6400.00,0.88
6399.00,0.88
6398.00,0.88
6397.00,0.88
6396.00,0.89
6395.00,0.89
6394.00,0.89
6393.00,0.89
6392.00,0.89
6391.00,0.89
6390.00,0.90
6389.00,0.90
6388.00,0.90
6387.00,0.90
6386.00,0.90
6385.00,0.90
6384.00,0.90
6383.00,0.90
6382.00,0.90
6381.00,0.90
6380.00,0.90
6379.00,0.91
6378.00,0.91
6377.00,0.91
6376.00,0.91
6375.00,0.91
6374.00,0.91
6373.00,0.91
6372.00,0.91
6371.00,0.91
6370.00,0.91
6369.00,0.91
6368.00,0.91
6367.00,0.92
6366.00,0.92
6365.00,0.92
6364.00,0.92
6363.00,0.93
6362.00,0.93
6361.00,0.93
6360.00,0.94
6359.00,0.94
6358.00,0.94
6357.00,0.95
6356.00,0.95
6355.00,0.95
6354.00,0.95
6353.00,0.96
6352.00,0.96
6351.00,0.96
6350.00,0.96
6349.00,0.97
6348.00,0.97
6347.00,0.97
6346.00,0.97
6345.00,0.97
6344.00,0.97
6343.00,0.97
6342.00,0.97
6341.00,0.97
6340.00,0.97
6339.00,0.97
6338.00,0.96
6337.00,0.96
6336.00,0.96
6335.00,0.96
6334.00,0.95
6333.00,0.95
6332.00,0.95
6331.00,0.95
6330.00,0.94
6329.00,0.94
6328.00,0.94
6327.00,0.94
6326.00,0.93
6325.00,0.93
6324.00,0.93
6323.00,0.93
6322.00,0.93
6321.00,0.93
6320.00,0.93
6319.00,0.93
6318.00,0.93
6317.00,0.93
6316.00,0.93
6315.00,0.93
6314.00,0.94
6313.00,0.94
6312.00,0.94
6311.00,0.95
6310.00,0.95
6309.00,0.95
6308.00,0.96
6307.00,0.96
6306.00,0.96
6305.00,0.97
6304.00,0.97
6303.00,0.97
6302.00,0.98
6301.00,0.98
6300.00,0.98
6299.00,0.99
6298.00,0.99
6297.00,0.99
6296.00,1.00
6295.00,1.00
6294.00,1.01
6293.00,1.01
6292.00,1.01
6291.00,1.02
6290.00,1.02
6289.00,1.02
6288.00,1.02
6287.00,1.03
6286.00,1.03
6285.00,1.03
6284.00,1.03
6283.00,1.04
6282.00,1.04
6281.00,1.04
6280.00,1.04
6279.00,1.05
6278.00,1.05
6277.00,1.05
6276.00,1.05
6275.00,1.05
6274.00,1.06
6273.00,1.06
6272.00,1.06
6271.00,1.06
6270.00,1.06
6269.00,1.06
6268.00,1.06
6267.00,1.06
6266.00,1.06
6265.00,1.06
6264.00,1.06
6263.00,1.06
6262.00,1.06
6261.00,1.06
6260.00,1.06
6259.00,1.06
6258.00,1.06
6257.00,1.06
6256.00,1.06
6255.00,1.06
6254.00,1.06
6253.00,1.06
6252.00,1.06
6251.00,1.06
6250.00,1.06
6249.00,1.06
6248.00,1.06
6247.00,1.06
6246.00,1.06
6245.00,1.06
6244.00,1.06
6243.00,1.06
6242.00,1.06
6241.00,1.06
6240.00,1.05
6239.00,1.05
6238.00,1.05
6237.00,1.05
6236.00,1.05
6235.00,1.05
6234.00,1.05
6233.00,1.05
6232.00,1.05
6231.00,1.05
6230.00,1.05
6229.00,1.05
6228.00,1.05
6227.00,1.05
6226.00,1.05
6225.00,1.05
6224.00,1.05
6223.00,1.05
6222.00,1.05
6221.00,1.05
6220.00,1.05
6219.00,1.05
6218.00,1.05
6217.00,1.05
6216.00,1.05
6215.00,1.05
6214.00,1.05
6213.00,1.05
6212.00,1.05
6211.00,1.06
6210.00,1.06
6209.00,1.06
6208.00,1.06
6207.00,1.07
6206.00,1.07
6205.00,1.07
6204.00,1.07
6203.00,1.08
6202.00,1.08
6201.00,1.08
6200.00,1.09
6199.00,1.09
6198.00,1.09
6197.00,1.10
6196.00,1.10
6195.00,1.10
6194.00,1.11
6193.00,1.11
6192.00,1.11
6191.00,1.12
6190.00,1.12
6189.00,1.12
6188.00,1.13
6187.00,1.13
6186.00,1.13
6185.00,1.13
6184.00,1.13
6183.00,1.14
6182.00,1.14
6181.00,1.14
6180.00,1.14
6179.00,1.14
6178.00,1.14
6177.00,1.15
6176.00,1.15
6175.00,1.15
6174.00,1.15
6173.00,1.15
6172.00,1.15
6171.00,1.15
6170.00,1.16
6169.00,1.16
6168.00,1.16
6167.00,1.16
6166.00,1.16
6165.00,1.16
6164.00,1.17
6163.00,1.17
6162.00,1.17
6161.00,1.17
6160.00,1.17
6159.00,1.18
6158.00,1.18
6157.00,1.18
6156.00,1.19
6155.00,1.19
6154.00,1.19
6153.00,1.20
6152.00,1.20
6151.00,1.20
6150.00,1.21
6149.00,1.21
6148.00,1.21
6147.00,1.22
6146.00,1.22
6145.00,1.22
6144.00,1.22
6143.00,1.22
6142.00,1.23
6141.00,1.23
6140.00,1.23
6139.00,1.23
6138.00,1.23
6137.00,1.24
6136.00,1.24
6135.00,1.24
6134.00,1.24
6133.00,1.24
6132.00,1.24
6131.00,1.24
6130.00,1.24
6129.00,1.24
6128.00,1.24
6127.00,1.24
6126.00,1.24
6125.00,1.24
6124.00,1.24
6123.00,1.24
6122.00,1.25
6121.00,1.25
6120.00,1.25
6119.00,1.25
6118.00,1.25
6117.00,1.26
6116.00,1.26
6115.00,1.26
6114.00,1.26
6113.00,1.27
6112.00,1.27
6111.00,1.27
6110.00,1.27
6109.00,1.28
6108.00,1.28
6107.00,1.29
6106.00,1.29
6105.00,1.29
6104.00,1.30
6103.00,1.30
6102.00,1.30
6101.00,1.31
6100.00,1.31
6099.00,1.31
6098.00,1.32
6097.00,1.32
6096.00,1.32
6095.00,1.32
6094.00,1.32
6093.00,1.32
6092.00,1.32
6091.00,1.32
6090.00,1.33
6089.00,1.33
6088.00,1.33
6087.00,1.33
6086.00,1.33
6085.00,1.33
6084.00,1.33
6083.00,1.33
6082.00,1.33
6081.00,1.33
6080.00,1.33
6079.00,1.33
6078.00,1.33
6077.00,1.32
6076.00,1.32
6075.00,1.32
6074.00,1.32
6073.00,1.32
6072.00,1.32
6071.00,1.32
6070.00,1.32
6069.00,1.32
6068.00,1.33
6067.00,1.33
6066.00,1.33
6065.00,1.33
6064.00,1.33
6063.00,1.33
6062.00,1.34
6061.00,1.34
6060.00,1.34
6059.00,1.34
6058.00,1.34
6057.00,1.34
6056.00,1.35
6055.00,1.35
6054.00,1.35
6053.00,1.35
6052.00,1.36
6051.00,1.36
6050.00,1.36
6049.00,1.36
6048.00,1.36
6047.00,1.37
6046.00,1.37
6045.00,1.37
6044.00,1.37
6043.00,1.37
6042.00,1.37
6041.00,1.38
6040.00,1.38
6039.00,1.38
6038.00,1.38
6037.00,1.38
6036.00,1.38
6035.00,1.38
6034.00,1.38
6033.00,1.39
6032.00,1.39
6031.00,1.39
6030.00,1.39
6029.00,1.39
6028.00,1.39
6027.00,1.39
6026.00,1.39
6025.00,1.39
6024.00,1.39
6023.00,1.39
6022.00,1.39
6021.00,1.40
6020.00,1.40
6019.00,1.40
6018.00,1.40
6017.00,1.40
6016.00,1.40
6015.00,1.40
6014.00,1.40
6013.00,1.40
6012.00,1.40
6011.00,1.40
6010.00,1.39
6009.00,1.39
6008.00,1.39
6007.00,1.39
6006.00,1.39
6005.00,1.39
6004.00,1.38
6003.00,1.38
6002.00,1.38
6001.00,1.38
6000.00,1.37
5999.00,1.37
5998.00,1.37
5997.00,1.36
5996.00,1.36
5995.00,1.36
5994.00,1.36
5993.00,1.35
5992.00,1.35
5991.00,1.35
5990.00,1.35
5989.00,1.34
5988.00,1.34
5987.00,1.34
5986.00,1.34
5985.00,1.33
5984.00,1.33
5983.00,1.33
5982.00,1.33
5981.00,1.32
5980.00,1.32
5979.00,1.32
5978.00,1.32
5977.00,1.31
5976.00,1.31
5975.00,1.31
5974.00,1.30
5973.00,1.30
5972.00,1.30
5971.00,1.29
5970.00,1.29
5969.00,1.28
5968.00,1.28
5967.00,1.27
5966.00,1.27
5965.00,1.26
5964.00,1.25
5963.00,1.24
5962.00,1.24
5961.00,1.23
5960.00,1.22
5959.00,1.21
5958.00,1.21
5957.00,1.20
5956.00,1.19
5955.00,1.18
5954.00,1.17
5953.00,1.16
5952.00,1.16
5951.00,1.15
5950.00,1.14
5949.00,1.14
5948.00,1.13
5947.00,1.12
5946.00,1.12
5945.00,1.11
5944.00,1.11
5943.00,1.10
5942.00,1.10
5941.00,1.09
5940.00,1.09
5939.00,1.09
5938.00,1.08
5937.00,1.08
5936.00,1.08
5935.00,1.08
5934.00,1.07
5933.00,1.07
5932.00,1.07
5931.00,1.07
5930.00,1.07
5929.00,1.07
5928.00,1.06
5927.00,1.06
5926.00,1.06
5925.00,1.06
5924.00,1.06
5923.00,1.06
5922.00,1.06
5921.00,1.06
5920.00,1.06
5919.00,1.06
5918.00,1.05
5917.00,1.05
5916.00,1.05
5915.00,1.05
5914.00,1.05
5913.00,1.05
5912.00,1.05
5911.00,1.05
5910.00,1.05
5909.00,1.05
5908.00,1.05
5907.00,1.04
5906.00,1.04
5905.00,1.04
5904.00,1.05
5903.00,1.05
5902.00,1.05
5901.00,1.05
5900.00,1.05
5899.00,1.05
5898.00,1.05
5897.00,1.05
5896.00,1.05
5895.00,1.05
5894.00,1.05
5893.00,1.06
5892.00,1.06
5891.00,1.06
5890.00,1.06
5889.00,1.06
5888.00,1.06
5887.00,1.07
5886.00,1.07
5885.00,1.07
5884.00,1.07
5883.00,1.07
5882.00,1.07
5881.00,1.07
5880.00,1.08
5879.00,1.08
5878.00,1.08
5877.00,1.08
5876.00,1.08
5875.00,1.08
5874.00,1.08
5873.00,1.09
5872.00,1.09
5871.00,1.09
5870.00,1.09
5869.00,1.09
5868.00,1.09
5867.00,1.10
5866.00,1.10
5865.00,1.10
5864.00,1.10
5863.00,1.10
5862.00,1.10
5861.00,1.11
5860.00,1.11
5859.00,1.11
5858.00,1.11
5857.00,1.11
5856.00,1.11
5855.00,1.11
5854.00,1.11
5853.00,1.11
5852.00,1.12
5851.00,1.12
5850.00,1.12
5849.00,1.12
5848.00,1.12
5847.00,1.12
5846.00,1.12
5845.00,1.12
5844.00,1.12
5843.00,1.12
5842.00,1.12
5841.00,1.12
5840.00,1.12
5839.00,1.12
5838.00,1.12
5837.00,1.12
5836.00,1.12
5835.00,1.12
5834.00,1.12
5833.00,1.12
5832.00,1.12
5831.00,1.12
5830.00,1.12
5829.00,1.12
5828.00,1.12
5827.00,1.12
5826.00,1.12
5825.00,1.11
5824.00,1.11
5823.00,1.11
5822.00,1.11
5821.00,1.11
5820.00,1.11
5819.00,1.11
5818.00,1.11
5817.00,1.10
5816.00,1.10
5815.00,1.10
5814.00,1.10
5813.00,1.10
5812.00,1.10
5811.00,1.10
5810.00,1.10
5809.00,1.10
5808.00,1.10
5807.00,1.10
5806.00,1.10
5805.00,1.10
5804.00,1.10
5803.00,1.10
5802.00,1.10
5801.00,1.10
5800.00,1.10
5799.00,1.10
5798.00,1.10
5797.00,1.10
5796.00,1.10
5795.00,1.10
5794.00,1.10
5793.00,1.10
5792.00,1.10
5791.00,1.10
5790.00,1.10
5789.00,1.10
5788.00,1.10
5787.00,1.10
5786.00,1.09
5785.00,1.09
5784.00,1.09
5783.00,1.09
5782.00,1.09
5781.00,1.09
5780.00,1.09
5779.00,1.09
5778.00,1.09
5777.00,1.08
5776.00,1.08
5775.00,1.08
5774.00,1.08
5773.00,1.08
5772.00,1.08
5771.00,1.08
5770.00,1.08
5769.00,1.09
5768.00,1.09
5767.00,1.09
5766.00,1.09
5765.00,1.09
5764.00,1.10
5763.00,1.10
5762.00,1.10
5761.00,1.11
5760.00,1.11
5759.00,1.11
5758.00,1.12
5757.00,1.12
5756.00,1.12
5755.00,1.13
5754.00,1.13
5753.00,1.14
5752.00,1.14
5751.00,1.14
5750.00,1.15
5749.00,1.15
5748.00,1.16
5747.00,1.16
5746.00,1.16
5745.00,1.17
5744.00,1.17
5743.00,1.17
5742.00,1.18
5741.00,1.18
5740.00,1.18
5739.00,1.18
5738.00,1.18
5737.00,1.18
5736.00,1.19
5735.00,1.19
5734.00,1.19
5733.00,1.19
5732.00,1.19
5731.00,1.19
5730.00,1.19
5729.00,1.19
5728.00,1.19
5727.00,1.19
5726.00,1.19
5725.00,1.19
5724.00,1.19
5723.00,1.19
5722.00,1.19
5721.00,1.19
5720.00,1.19
5719.00,1.18
5718.00,1.18
5717.00,1.18
5716.00,1.18
5715.00,1.18
5714.00,1.18
5713.00,1.18
5712.00,1.18
5711.00,1.18
5710.00,1.18
5709.00,1.18
5708.00,1.18
5707.00,1.18
5706.00,1.18
5705.00,1.18
5704.00,1.18
5703.00,1.18
5702.00,1.18
5701.00,1.18
5700.00,1.18
5699.00,1.18
5698.00,1.18
5697.00,1.18
5696.00,1.18
5695.00,1.18
5694.00,1.18
5693.00,1.18
5692.00,1.18
5691.00,1.18
5690.00,1.18
5689.00,1.18
5688.00,1.18
5687.00,1.18
5686.00,1.18
5685.00,1.18
5684.00,1.18
5683.00,1.18
5682.00,1.18
5681.00,1.18
5680.00,1.18
5679.00,1.18
5678.00,1.18
5677.00,1.18
5676.00,1.17
5675.00,1.17
5674.00,1.17
5673.00,1.17
5672.00,1.17
5671.00,1.17
5670.00,1.17
5669.00,1.17
5668.00,1.17
5667.00,1.17
5666.00,1.17
5665.00,1.17
5664.00,1.17
5663.00,1.17
5662.00,1.17
5661.00,1.17
5660.00,1.17
5659.00,1.17
5658.00,1.17
5657.00,1.17
5656.00,1.17
5655.00,1.17
5654.00,1.17
5653.00,1.17
5652.00,1.17
5651.00,1.17
5650.00,1.17
5649.00,1.17
5648.00,1.18
5647.00,1.18
5646.00,1.18
5645.00,1.18
5644.00,1.18
5643.00,1.19
5642.00,1.19
5641.00,1.19
5640.00,1.19
5639.00,1.19
5638.00,1.20
5637.00,1.20
5636.00,1.20
5635.00,1.21
5634.00,1.21
5633.00,1.21
5632.00,1.22
5631.00,1.22
5630.00,1.22
5629.00,1.22
5628.00,1.23
5627.00,1.23
5626.00,1.23
5625.00,1.23
5624.00,1.24
5623.00,1.24
5622.00,1.24
5621.00,1.24
5620.00,1.24
5619.00,1.24
5618.00,1.25
5617.00,1.25
5616.00,1.25
5615.00,1.25
5614.00,1.25
5613.00,1.25
5612.00,1.25
5611.00,1.25
5610.00,1.25
5609.00,1.25
5608.00,1.25
5607.00,1.25
5606.00,1.25
5605.00,1.25
5604.00,1.25
5603.00,1.25
5602.00,1.25
5601.00,1.25
5600.00,1.26
5599.00,1.26
5598.00,1.26
5597.00,1.26
5596.00,1.26
5595.00,1.26
5594.00,1.27
5593.00,1.27
5592.00,1.27
5591.00,1.27
5590.00,1.28
5589.00,1.28
5588.00,1.28
5587.00,1.28
5586.00,1.29
5585.00,1.29
5584.00,1.29
5583.00,1.30
5582.00,1.30
5581.00,1.30
5580.00,1.30
5579.00,1.31
5578.00,1.31
5577.00,1.31
5576.00,1.31
5575.00,1.31
5574.00,1.32
5573.00,1.32
5572.00,1.32
5571.00,1.32
5570.00,1.32
5569.00,1.32
5568.00,1.32
5567.00,1.32
5566.00,1.32
5565.00,1.32
5564.00,1.32
5563.00,1.32
5562.00,1.33
5561.00,1.33
5560.00,1.33
5559.00,1.33
5558.00,1.33
5557.00,1.33
5556.00,1.33
5555.00,1.33
5554.00,1.33
5553.00,1.33
5552.00,1.33
5551.00,1.34
5550.00,1.34
5549.00,1.34
5548.00,1.34
5547.00,1.34
5546.00,1.34
5545.00,1.34
5544.00,1.35
5543.00,1.35
5542.00,1.35
5541.00,1.35
5540.00,1.35
5539.00,1.36
5538.00,1.36
5537.00,1.36
5536.00,1.36
5535.00,1.36
5534.00,1.37
5533.00,1.37
5532.00,1.37
5531.00,1.37
5530.00,1.37
5529.00,1.37
5528.00,1.37
5527.00,1.38
5526.00,1.38
5525.00,1.38
5524.00,1.38
5523.00,1.38
5522.00,1.38
5521.00,1.38
5520.00,1.39
5519.00,1.39
5518.00,1.39
5517.00,1.39
5516.00,1.39
5515.00,1.39
5514.00,1.39
5513.00,1.39
5512.00,1.39
5511.00,1.39
5510.00,1.39
5509.00,1.39
5508.00,1.39
5507.00,1.39
5506.00,1.39
5505.00,1.39
5504.00,1.39
5503.00,1.39
5502.00,1.39
5501.00,1.39
5500.00,1.39
5499.00,1.39
5498.00,1.39
5497.00,1.39
5496.00,1.39
5495.00,1.39
5494.00,1.39
5493.00,1.39
5492.00,1.39
5491.00,1.40
5490.00,1.40
5489.00,1.40
5488.00,1.40
5487.00,1.40
5486.00,1.40
5485.00,1.40
5484.00,1.41
5483.00,1.41
5482.00,1.41
5481.00,1.41
5480.00,1.41
5479.00,1.41
5478.00,1.41
5477.00,1.41
5476.00,1.42
5475.00,1.42
5474.00,1.42
5473.00,1.42
5472.00,1.42
5471.00,1.42
5470.00,1.43
5469.00,1.43
5468.00,1.43
5467.00,1.43
5466.00,1.43
5465.00,1.44
5464.00,1.44
5463.00,1.44
5462.00,1.44
5461.00,1.44
5460.00,1.44
5459.00,1.44
5458.00,1.44
5457.00,1.45
5456.00,1.45
5455.00,1.45
5454.00,1.45
5453.00,1.45
5452.00,1.46
5451.00,1.46
5450.00,1.46
5449.00,1.46
5448.00,1.46
5447.00,1.46
5446.00,1.46
5445.00,1.47
5444.00,1.47
5443.00,1.47
5442.00,1.47
5441.00,1.47
5440.00,1.47
5439.00,1.48
5438.00,1.48
5437.00,1.48
5436.00,1.48
5435.00,1.48
5434.00,1.48
5433.00,1.48
5432.00,1.48
5431.00,1.48
5430.00,1.48
5429.00,1.49
5428.00,1.49
5427.00,1.49
5426.00,1.49
5425.00,1.49
5424.00,1.49
5423.00,1.49
5422.00,1.49
5421.00,1.49
5420.00,1.49
5419.00,1.49
5418.00,1.49
5417.00,1.49
5416.00,1.49
5415.00,1.49
5414.00,1.48
5413.00,1.48
5412.00,1.48
5411.00,1.48
5410.00,1.48
5409.00,1.48
5408.00,1.47
5407.00,1.47
5406.00,1.47
5405.00,1.47
5404.00,1.47
5403.00,1.46
5402.00,1.46
5401.00,1.46
5400.00,1.45
5399.00,1.45
5398.00,1.45
5397.00,1.44
5396.00,1.44
5395.00,1.43
5394.00,1.43
5393.00,1.43
5392.00,1.42
5391.00,1.42
5390.00,1.42
5389.00,1.41
5388.00,1.41
5387.00,1.41
5386.00,1.40
5385.00,1.40
5384.00,1.40
5383.00,1.40
5382.00,1.39
5381.00,1.39
5380.00,1.39
5379.00,1.38
5378.00,1.38
5377.00,1.38
5376.00,1.38
5375.00,1.37
5374.00,1.37
5373.00,1.37
5372.00,1.37
5371.00,1.36
5370.00,1.36
5369.00,1.36
5368.00,1.35
5367.00,1.35
5366.00,1.34
5365.00,1.34
5364.00,1.33
5363.00,1.32
5362.00,1.32
5361.00,1.31
5360.00,1.30
5359.00,1.29
5358.00,1.28
5357.00,1.27
5356.00,1.26
5355.00,1.25
5354.00,1.24
5353.00,1.23
5352.00,1.22
5351.00,1.21
5350.00,1.20
5349.00,1.19
5348.00,1.18
5347.00,1.16
5346.00,1.15
5345.00,1.14
5344.00,1.13
5343.00,1.11
5342.00,1.10
5341.00,1.09
5340.00,1.08
5339.00,1.07
5338.00,1.05
5337.00,1.04
5336.00,1.03
5335.00,1.02
5334.00,1.00
5333.00,0.99
5332.00,0.98
5331.00,0.97
5330.00,0.96
5329.00,0.94
5328.00,0.93
5327.00,0.92
5326.00,0.91
5325.00,0.89
5324.00,0.88
5323.00,0.87
5322.00,0.86
5321.00,0.85
5320.00,0.84
5319.00,0.83
5318.00,0.81
5317.00,0.80
5316.00,0.79
5315.00,0.78
5314.00,0.77
5313.00,0.76
5312.00,0.75
5311.00,0.74
5310.00,0.73
5309.00,0.72
5308.00,0.71
5307.00,0.70
5306.00,0.69
5305.00,0.69
5304.00,0.68
5303.00,0.67
5302.00,0.66
5301.00,0.66
5300.00,0.65
5299.00,0.65
5298.00,0.64
5297.00,0.64
5296.00,0.63
5295.00,0.63
5294.00,0.62
5293.00,0.62
5292.00,0.62
5291.00,0.61
5290.00,0.61
5289.00,0.61
5288.00,0.61
5287.00,0.61
5286.00,0.61
5285.00,0.60
5284.00,0.60
5283.00,0.60
5282.00,0.60
5281.00,0.60
5280.00,0.60
5279.00,0.60
5278.00,0.60
5277.00,0.60
5276.00,0.60
5275.00,0.60
5274.00,0.60
5273.00,0.60
5272.00,0.60
5271.00,0.60
5270.00,0.60
5269.00,0.60
5268.00,0.59
5267.00,0.59
5266.00,0.59
5265.00,0.59
5264.00,0.59
5263.00,0.59
5262.00,0.59
5261.00,0.59
5260.00,0.58
5259.00,0.58
5258.00,0.58
5257.00,0.58
5256.00,0.58
5255.00,0.58
5254.00,0.58
5253.00,0.58
5252.00,0.57
5251.00,0.57
5250.00,0.57
5249.00,0.57
5248.00,0.57
5247.00,0.57
5246.00,0.57
5245.00,0.57
5244.00,0.57
5243.00,0.57
5242.00,0.57
5241.00,0.57
5240.00,0.57
5239.00,0.57
5238.00,0.57
5237.00,0.57
5236.00,0.57
5235.00,0.57
5234.00,0.57
5233.00,0.57
5232.00,0.57
5231.00,0.57
5230.00,0.57
5229.00,0.57
5228.00,0.57
5227.00,0.56
5226.00,0.56
5225.00,0.56
5224.00,0.56
5223.00,0.56
5222.00,0.56
5221.00,0.55
5220.00,0.55
5219.00,0.55
5218.00,0.55
5217.00,0.55
5216.00,0.55
5215.00,0.55
5214.00,0.55
5213.00,0.55
5212.00,0.55
5211.00,0.55
5210.00,0.55
5209.00,0.55
5208.00,0.55
5207.00,0.55
5206.00,0.55
5205.00,0.55
5204.00,0.55
5203.00,0.55
5202.00,0.56
5201.00,0.56
5200.00,0.56
5199.00,0.56
5198.00,0.56
5197.00,0.57
5196.00,0.57
5195.00,0.57
5194.00,0.57
5193.00,0.58
5192.00,0.58
5191.00,0.58
5190.00,0.58
5189.00,0.58
5188.00,0.58
5187.00,0.59
5186.00,0.59
5185.00,0.59
5184.00,0.59
5183.00,0.59
5182.00,0.59
5181.00,0.59
5180.00,0.59
5179.00,0.59
5178.00,0.59
5177.00,0.59
5176.00,0.59
5175.00,0.59
5174.00,0.59
5173.00,0.59
5172.00,0.59
5171.00,0.59
5170.00,0.59
5169.00,0.59
5168.00,0.59
5167.00,0.59
5166.00,0.59
5165.00,0.59
5164.00,0.59
5163.00,0.59
5162.00,0.59
5161.00,0.59
5160.00,0.59
5159.00,0.59
5158.00,0.60
5157.00,0.60
5156.00,0.60
5155.00,0.60
5154.00,0.60
5153.00,0.60
5152.00,0.60
5151.00,0.60
5150.00,0.61
5149.00,0.61
5148.00,0.61
5147.00,0.61
5146.00,0.61
5145.00,0.61
5144.00,0.61
5143.00,0.61
5142.00,0.61
5141.00,0.61
5140.00,0.62
5139.00,0.62
5138.00,0.62
5137.00,0.62
5136.00,0.62
5135.00,0.62
5134.00,0.62
5133.00,0.62
5132.00,0.62
5131.00,0.62
5130.00,0.62
5129.00,0.62
5128.00,0.62
5127.00,0.63
5126.00,0.63
5125.00,0.63
5124.00,0.63
5123.00,0.63
5122.00,0.63
5121.00,0.63
5120.00,0.63
5119.00,0.63
5118.00,0.63
5117.00,0.63
5116.00,0.64
5115.00,0.64
5114.00,0.64
5113.00,0.64
5112.00,0.64
5111.00,0.64
5110.00,0.65
5109.00,0.65
5108.00,0.65
5107.00,0.65
5106.00,0.65
5105.00,0.65
5104.00,0.66
5103.00,0.66
5102.00,0.66
5101.00,0.66
5100.00,0.66
5099.00,0.66
5098.00,0.66
5097.00,0.67
5096.00,0.67
5095.00,0.67
5094.00,0.67
5093.00,0.67
5092.00,0.68
5091.00,0.68
5090.00,0.68
5089.00,0.68
5088.00,0.68
5087.00,0.68
5086.00,0.69
5085.00,0.69
5084.00,0.69
5083.00,0.69
5082.00,0.69
5081.00,0.69
5080.00,0.69
5079.00,0.69
5078.00,0.69
5077.00,0.69
5076.00,0.69
5075.00,0.69
5074.00,0.69
5073.00,0.69
5072.00,0.69
5071.00,0.69
5070.00,0.69
5069.00,0.69
5068.00,0.68
5067.00,0.68
5066.00,0.68
5065.00,0.68
5064.00,0.68
5063.00,0.68
5062.00,0.67
5061.00,0.67
5060.00,0.67
5059.00,0.67
5058.00,0.67
5057.00,0.67
5056.00,0.67
5055.00,0.67
5054.00,0.66
5053.00,0.66
5052.00,0.66
5051.00,0.66
5050.00,0.66
5049.00,0.66
5048.00,0.66
5047.00,0.66
5046.00,0.66
5045.00,0.66
5044.00,0.66
5043.00,0.66
5042.00,0.66
5041.00,0.66
5040.00,0.66
5039.00,0.67
5038.00,0.67
5037.00,0.67
5036.00,0.67
5035.00,0.67
5034.00,0.67
5033.00,0.67
5032.00,0.67
5031.00,0.68
5030.00,0.68
5029.00,0.68
5028.00,0.68
5027.00,0.68
5026.00,0.68
5025.00,0.68
5024.00,0.68
5023.00,0.69
5022.00,0.69
5021.00,0.69
5020.00,0.69
5019.00,0.69
5018.00,0.69
5017.00,0.69
5016.00,0.69
5015.00,0.69
5014.00,0.69
5013.00,0.69
5012.00,0.69
5011.00,0.69
5010.00,0.69
5009.00,0.69
5008.00,0.69
5007.00,0.69
5006.00,0.69
5005.00,0.69
5004.00,0.69
5003.00,0.69
5002.00,0.69
5001.00,0.70
5000.00,0.70
4999.00,0.70
4998.00,0.70
4997.00,0.70
4996.00,0.70
4995.00,0.70
4994.00,0.70
4993.00,0.70
4992.00,0.71
4991.00,0.71
4990.00,0.71
4989.00,0.71
4988.00,0.71
4987.00,0.72
4986.00,0.72
4985.00,0.72
4984.00,0.72
4983.00,0.73
4982.00,0.73
4981.00,0.73
4980.00,0.74
4979.00,0.74
4978.00,0.74
4977.00,0.74
4976.00,0.75
4975.00,0.75
4974.00,0.75
4973.00,0.75
4972.00,0.76
4971.00,0.76
4970.00,0.76
4969.00,0.76
4968.00,0.76
4967.00,0.76
4966.00,0.76
4965.00,0.77
4964.00,0.77
4963.00,0.77
4962.00,0.77
4961.00,0.77
4960.00,0.77
4959.00,0.77
4958.00,0.77
4957.00,0.77
4956.00,0.77
4955.00,0.77
4954.00,0.77
4953.00,0.77
4952.00,0.77
4951.00,0.77
4950.00,0.77
4949.00,0.77
4948.00,0.78
4947.00,0.78
4946.00,0.78
4945.00,0.78
4944.00,0.78
4943.00,0.78
4942.00,0.78
4941.00,0.79
4940.00,0.79
4939.00,0.79
4938.00,0.79
4937.00,0.79
4936.00,0.79
4935.00,0.80
4934.00,0.80
4933.00,0.80
4932.00,0.80
4931.00,0.80
4930.00,0.80
4929.00,0.80
4928.00,0.80
4927.00,0.80
4926.00,0.79
4925.00,0.79
4924.00,0.79
4923.00,0.79
4922.00,0.79
4921.00,0.79
4920.00,0.79
4919.00,0.78
4918.00,0.78
4917.00,0.78
4916.00,0.78
4915.00,0.78
4914.00,0.78
4913.00,0.78
4912.00,0.78
4911.00,0.77
4910.00,0.77
4909.00,0.77
4908.00,0.77
4907.00,0.77
4906.00,0.77
4905.00,0.77
4904.00,0.78
4903.00,0.78
4902.00,0.78
4901.00,0.78
4900.00,0.79
4899.00,0.79
4898.00,0.79
4897.00,0.80
4896.00,0.80
4895.00,0.80
4894.00,0.80
4893.00,0.81
4892.00,0.81
4891.00,0.81
4890.00,0.81
4889.00,0.81
4888.00,0.81
4887.00,0.81
4886.00,0.81
4885.00,0.81
4884.00,0.81
4883.00,0.81
4882.00,0.81
4881.00,0.81
4880.00,0.81
4879.00,0.81
4878.00,0.81
4877.00,0.81
4876.00,0.81
4875.00,0.81
4874.00,0.81
4873.00,0.81
4872.00,0.80
4871.00,0.80
4870.00,0.80
4869.00,0.80
4868.00,0.80
4867.00,0.80
4866.00,0.80
4865.00,0.80
4864.00,0.80
4863.00,0.80
4862.00,0.81
4861.00,0.81
4860.00,0.81
4859.00,0.81
4858.00,0.82
4857.00,0.82
4856.00,0.82
4855.00,0.82
4854.00,0.82
4853.00,0.83
4852.00,0.83
4851.00,0.83
4850.00,0.84
4849.00,0.84
4848.00,0.84
4847.00,0.85
4846.00,0.85
4845.00,0.86
4844.00,0.86
4843.00,0.86
4842.00,0.87
4841.00,0.87
4840.00,0.87
4839.00,0.87
4838.00,0.87
4837.00,0.88
4836.00,0.88
4835.00,0.88
4834.00,0.88
4833.00,0.88
4832.00,0.88
4831.00,0.88
4830.00,0.88
4829.00,0.88
4828.00,0.88
4827.00,0.88
4826.00,0.88
4825.00,0.88
4824.00,0.88
4823.00,0.88
4822.00,0.87
4821.00,0.87
4820.00,0.87
4819.00,0.87
4818.00,0.86
4817.00,0.86
4816.00,0.86
4815.00,0.86
4814.00,0.86
4813.00,0.86
4812.00,0.86
4811.00,0.85
4810.00,0.85
4809.00,0.86
4808.00,0.86
4807.00,0.86
4806.00,0.86
4805.00,0.86
4804.00,0.86
4803.00,0.86
4802.00,0.86
4801.00,0.86
4800.00,0.86
4799.00,0.87
4798.00,0.87
4797.00,0.87
4796.00,0.88
4795.00,0.88
4794.00,0.89
4793.00,0.89
4792.00,0.89
4791.00,0.90
4790.00,0.90
4789.00,0.91
4788.00,0.91
4787.00,0.91
4786.00,0.92
4785.00,0.92
4784.00,0.92
4783.00,0.93
4782.00,0.93
4781.00,0.93
4780.00,0.94
4779.00,0.94
4778.00,0.94
4777.00,0.95
4776.00,0.95
4775.00,0.95
4774.00,0.96
4773.00,0.96
4772.00,0.96
4771.00,0.97
4770.00,0.97
4769.00,0.97
4768.00,0.98
4767.00,0.98
4766.00,0.98
4765.00,0.98
4764.00,0.99
4763.00,0.99
4762.00,0.99
4761.00,0.99
4760.00,0.99
4759.00,1.00
4758.00,1.00
4757.00,1.00
4756.00,1.00
4755.00,1.01
4754.00,1.01
4753.00,1.01
4752.00,1.02
4751.00,1.02
4750.00,1.02
4749.00,1.02
4748.00,1.03
4747.00,1.03
4746.00,1.03
4745.00,1.03
4744.00,1.04
4743.00,1.04
4742.00,1.04
4741.00,1.04
4740.00,1.04
4739.00,1.04
4738.00,1.05
4737.00,1.05
4736.00,1.05
4735.00,1.05
4734.00,1.05
4733.00,1.05
4732.00,1.05
4731.00,1.05
4730.00,1.05
4729.00,1.05
4728.00,1.05
4727.00,1.04
4726.00,1.04
4725.00,1.04
4724.00,1.04
4723.00,1.04
4722.00,1.04
4721.00,1.03
4720.00,1.03
4719.00,1.03
4718.00,1.03
4717.00,1.03
4716.00,1.02
4715.00,1.02
4714.00,1.02
4713.00,1.02
4712.00,1.02
4711.00,1.02
4710.00,1.02
4709.00,1.02
4708.00,1.02
4707.00,1.02
4706.00,1.02
4705.00,1.03
4704.00,1.03
4703.00,1.03
4702.00,1.03
4701.00,1.04
4700.00,1.04
4699.00,1.04
4698.00,1.05
4697.00,1.05
4696.00,1.06
4695.00,1.06
4694.00,1.07
4693.00,1.07
4692.00,1.08
4691.00,1.08
4690.00,1.09
4689.00,1.09
4688.00,1.10
4687.00,1.10
4686.00,1.11
4685.00,1.11
4684.00,1.12
4683.00,1.12
4682.00,1.13
4681.00,1.13
4680.00,1.14
4679.00,1.14
4678.00,1.15
4677.00,1.15
4676.00,1.16
4675.00,1.16
4674.00,1.16
4673.00,1.16
4672.00,1.17
4671.00,1.17
4670.00,1.17
4669.00,1.17
4668.00,1.18
4667.00,1.18
4666.00,1.18
4665.00,1.18
4664.00,1.18
4663.00,1.18
4662.00,1.19
4661.00,1.19
4660.00,1.19
4659.00,1.19
4658.00,1.19
4657.00,1.19
4656.00,1.19
4655.00,1.19
4654.00,1.19
4653.00,1.19
4652.00,1.19
4651.00,1.19
4650.00,1.20
4649.00,1.20
4648.00,1.20
4647.00,1.20
4646.00,1.20
4645.00,1.20
4644.00,1.20
4643.00,1.20
4642.00,1.20
4641.00,1.20
4640.00,1.20
4639.00,1.20
4638.00,1.21
4637.00,1.21
4636.00,1.21
4635.00,1.21
4634.00,1.21
4633.00,1.21
4632.00,1.21
4631.00,1.21
4630.00,1.21
4629.00,1.21
4628.00,1.21
4627.00,1.21
4626.00,1.21
4625.00,1.22
4624.00,1.22
4623.00,1.22
4622.00,1.22
4621.00,1.22
4620.00,1.22
4619.00,1.22
4618.00,1.22
4617.00,1.22
4616.00,1.23
4615.00,1.23
4614.00,1.23
4613.00,1.23
4612.00,1.23
4611.00,1.23
4610.00,1.23
4609.00,1.23
4608.00,1.23
4607.00,1.23
4606.00,1.23
4605.00,1.24
4604.00,1.24
4603.00,1.24
4602.00,1.24
4601.00,1.24
4600.00,1.24
4599.00,1.24
4598.00,1.24
4597.00,1.24
4596.00,1.24
4595.00,1.24
4594.00,1.24
4593.00,1.24
4592.00,1.25
4591.00,1.25
4590.00,1.25
4589.00,1.25
4588.00,1.25
4587.00,1.25
4586.00,1.25
4585.00,1.26
4584.00,1.26
4583.00,1.26
4582.00,1.27
4581.00,1.27
4580.00,1.27
4579.00,1.28
4578.00,1.28
4577.00,1.28
4576.00,1.28
4575.00,1.28
4574.00,1.29
4573.00,1.29
4572.00,1.29
4571.00,1.29
4570.00,1.29
4569.00,1.30
4568.00,1.30
4567.00,1.30
4566.00,1.30
4565.00,1.31
4564.00,1.31
4563.00,1.31
4562.00,1.31
4561.00,1.32
4560.00,1.32
4559.00,1.32
4558.00,1.33
4557.00,1.33
4556.00,1.33
4555.00,1.33
4554.00,1.34
4553.00,1.34
4552.00,1.34
4551.00,1.34
4550.00,1.35
4549.00,1.35
4548.00,1.35
4547.00,1.35
4546.00,1.36
4545.00,1.36
4544.00,1.36
4543.00,1.36
4542.00,1.36
4541.00,1.36
4540.00,1.37
4539.00,1.37
4538.00,1.37
4537.00,1.37
4536.00,1.37
4535.00,1.37
4534.00,1.37
4533.00,1.37
4532.00,1.36
4531.00,1.36
4530.00,1.36
4529.00,1.36
4528.00,1.36
4527.00,1.36
4526.00,1.36
4525.00,1.36
4524.00,1.35
4523.00,1.35
4522.00,1.35
4521.00,1.35
4520.00,1.35
4519.00,1.35
4518.00,1.35
4517.00,1.35
4516.00,1.35
4515.00,1.35
4514.00,1.35
4513.00,1.35
4512.00,1.35
4511.00,1.35
4510.00,1.35
4509.00,1.35
4508.00,1.35
4507.00,1.35
4506.00,1.35
4505.00,1.35
4504.00,1.35
4503.00,1.35
4502.00,1.35
4501.00,1.35
4500.00,1.35
4499.00,1.35
4498.00,1.34
4497.00,1.34
4496.00,1.34
4495.00,1.34
4494.00,1.34
4493.00,1.33
4492.00,1.33
4491.00,1.33
4490.00,1.32
4489.00,1.32
4488.00,1.32
4487.00,1.32
4486.00,1.31
4485.00,1.31
4484.00,1.31
4483.00,1.30
4482.00,1.30
4481.00,1.30
4480.00,1.29
4479.00,1.29
4478.00,1.29
4477.00,1.29
4476.00,1.28
4475.00,1.28
4474.00,1.28
4473.00,1.27
4472.00,1.27
4471.00,1.27
4470.00,1.27
4469.00,1.26
4468.00,1.26
4467.00,1.26
4466.00,1.25
4465.00,1.25
4464.00,1.24
4463.00,1.24
4462.00,1.24
4461.00,1.23
4460.00,1.23
4459.00,1.23
4458.00,1.23
4457.00,1.22
4456.00,1.22
4455.00,1.22
4454.00,1.21
4453.00,1.21
4452.00,1.20
4451.00,1.20
4450.00,1.19
4449.00,1.18
4448.00,1.18
4447.00,1.17
4446.00,1.17
4445.00,1.16
4444.00,1.15
4443.00,1.15
4442.00,1.14
4441.00,1.14
4440.00,1.13
4439.00,1.13
4438.00,1.12
4437.00,1.11
4436.00,1.11
4435.00,1.10
4434.00,1.10
4433.00,1.09
4432.00,1.08
4431.00,1.08
4430.00,1.07
4429.00,1.06
4428.00,1.06
4427.00,1.06
4426.00,1.05
4425.00,1.05
4424.00,1.05
4423.00,1.04
4422.00,1.04
4421.00,1.04
4420.00,1.04
4419.00,1.04
4418.00,1.04
4417.00,1.04
4416.00,1.04
4415.00,1.04
4414.00,1.04
4413.00,1.04
4412.00,1.04
4411.00,1.04
4410.00,1.04
4409.00,1.04
4408.00,1.04
4407.00,1.04
4406.00,1.04
4405.00,1.04
4404.00,1.04
4403.00,1.04
4402.00,1.05
4401.00,1.05
4400.00,1.05
4399.00,1.05
4398.00,1.05
4397.00,1.05
4396.00,1.06
4395.00,1.06
4394.00,1.06
4393.00,1.06
4392.00,1.06
4391.00,1.06
4390.00,1.06
4389.00,1.06
4388.00,1.06
4387.00,1.07
4386.00,1.07
4385.00,1.07
4384.00,1.07
4383.00,1.08
4382.00,1.08
4381.00,1.08
4380.00,1.09
4379.00,1.09
4378.00,1.09
4377.00,1.10
4376.00,1.10
4375.00,1.10
4374.00,1.11
4373.00,1.11
4372.00,1.11
4371.00,1.11
4370.00,1.11
4369.00,1.12
4368.00,1.12
4367.00,1.12
4366.00,1.13
4365.00,1.13
4364.00,1.13
4363.00,1.14
4362.00,1.14
4361.00,1.14
4360.00,1.14
4359.00,1.15
4358.00,1.15
4357.00,1.15
4356.00,1.15
4355.00,1.15
4354.00,1.14
4353.00,1.14
4352.00,1.14
4351.00,1.14
4350.00,1.14
4349.00,1.14
4348.00,1.13
4347.00,1.13
4346.00,1.13
4345.00,1.13
4344.00,1.12
4343.00,1.12
4342.00,1.12
4341.00,1.11
4340.00,1.11
4339.00,1.11
4338.00,1.10
4337.00,1.10
4336.00,1.10
4335.00,1.09
4334.00,1.09
4333.00,1.09
4332.00,1.09
4331.00,1.09
4330.00,1.09
4329.00,1.09
4328.00,1.09
4327.00,1.09
4326.00,1.10
4325.00,1.10
4324.00,1.10
4323.00,1.11
4322.00,1.11
4321.00,1.12
4320.00,1.12
4319.00,1.13
4318.00,1.13
4317.00,1.14
4316.00,1.15
4315.00,1.15
4314.00,1.16
4313.00,1.17
4312.00,1.17
4311.00,1.18
4310.00,1.18
4309.00,1.19
4308.00,1.20
4307.00,1.20
4306.00,1.21
4305.00,1.21
4304.00,1.21
4303.00,1.22
4302.00,1.22
4301.00,1.22
4300.00,1.22
4299.00,1.22
4298.00,1.22
4297.00,1.22
4296.00,1.22
4295.00,1.22
4294.00,1.22
4293.00,1.22
4292.00,1.22
4291.00,1.21
4290.00,1.21
4289.00,1.21
4288.00,1.21
4287.00,1.20
4286.00,1.20
4285.00,1.20
4284.00,1.20
4283.00,1.19
4282.00,1.19
4281.00,1.19
4280.00,1.18
4279.00,1.18
4278.00,1.18
4277.00,1.17
4276.00,1.17
4275.00,1.16
4274.00,1.16
4273.00,1.16
4272.00,1.16
4271.00,1.16
4270.00,1.16
4269.00,1.16
4268.00,1.16
4267.00,1.16
4266.00,1.16
4265.00,1.16
4264.00,1.15
4263.00,1.15
4262.00,1.15
4261.00,1.15
4260.00,1.15
4259.00,1.15
4258.00,1.15
4257.00,1.15
4256.00,1.15
4255.00,1.15
4254.00,1.15
4253.00,1.15
4252.00,1.15
4251.00,1.16
4250.00,1.16
4249.00,1.16
4248.00,1.17
4247.00,1.17
4246.00,1.17
4245.00,1.18
4244.00,1.18
4243.00,1.18
4242.00,1.18
4241.00,1.18
4240.00,1.19
4239.00,1.19
4238.00,1.19
4237.00,1.20
4236.00,1.20
4235.00,1.21
4234.00,1.21
4233.00,1.22
4232.00,1.22
4231.00,1.22
4230.00,1.23
4229.00,1.23
4228.00,1.24
4227.00,1.24
4226.00,1.24
4225.00,1.25
4224.00,1.25
4223.00,1.25
4222.00,1.26
4221.00,1.26
4220.00,1.26
4219.00,1.27
4218.00,1.27
4217.00,1.28
4216.00,1.28
4215.00,1.28
4214.00,1.29
4213.00,1.29
4212.00,1.29
4211.00,1.30
4210.00,1.30
4209.00,1.31
4208.00,1.31
4207.00,1.31
4206.00,1.32
4205.00,1.32
4204.00,1.33
4203.00,1.33
4202.00,1.33
4201.00,1.34
4200.00,1.34
4199.00,1.35
4198.00,1.35
4197.00,1.36
4196.00,1.36
4195.00,1.37
4194.00,1.37
4193.00,1.37
4192.00,1.38
4191.00,1.38
4190.00,1.38
4189.00,1.39
4188.00,1.39
4187.00,1.39
4186.00,1.39
4185.00,1.39
4184.00,1.40
4183.00,1.40
4182.00,1.40
4181.00,1.40
4180.00,1.40
4179.00,1.40
4178.00,1.40
4177.00,1.40
4176.00,1.40
4175.00,1.40
4174.00,1.40
4173.00,1.39
4172.00,1.39
4171.00,1.38
4170.00,1.38
4169.00,1.38
4168.00,1.37
4167.00,1.37
4166.00,1.36
4165.00,1.36
4164.00,1.35
4163.00,1.35
4162.00,1.34
4161.00,1.34
4160.00,1.33
4159.00,1.33
4158.00,1.32
4157.00,1.32
4156.00,1.31
4155.00,1.31
4154.00,1.31
4153.00,1.31
4152.00,1.30
4151.00,1.30
4150.00,1.30
4149.00,1.30
4148.00,1.30
4147.00,1.31
4146.00,1.31
4145.00,1.31
4144.00,1.32
4143.00,1.32
4142.00,1.33
4141.00,1.33
4140.00,1.34
4139.00,1.35
4138.00,1.36
4137.00,1.36
4136.00,1.37
4135.00,1.38
4134.00,1.38
4133.00,1.39
4132.00,1.40
4131.00,1.40
4130.00,1.41
4129.00,1.42
4128.00,1.42
4127.00,1.42
4126.00,1.43
4125.00,1.43
4124.00,1.43
4123.00,1.43
4122.00,1.43
4121.00,1.44
4120.00,1.44
4119.00,1.43
4118.00,1.43
4117.00,1.43
4116.00,1.43
4115.00,1.43
4114.00,1.42
4113.00,1.42
4112.00,1.41
4111.00,1.41
4110.00,1.41
4109.00,1.40
4108.00,1.40
4107.00,1.40
4106.00,1.39
4105.00,1.39
4104.00,1.39
4103.00,1.39
4102.00,1.39
4101.00,1.39
4100.00,1.39
4099.00,1.39
4098.00,1.39
4097.00,1.39
4096.00,1.39
4095.00,1.39
4094.00,1.39
4093.00,1.39
4092.00,1.40
4091.00,1.40
4090.00,1.40
4089.00,1.41
4088.00,1.41
4087.00,1.42
4086.00,1.42
4085.00,1.42
4084.00,1.43
4083.00,1.43
4082.00,1.44
4081.00,1.44
4080.00,1.44
4079.00,1.45
4078.00,1.45
4077.00,1.45
4076.00,1.45
4075.00,1.45
4074.00,1.46
4073.00,1.46
4072.00,1.46
4071.00,1.46
4070.00,1.46
4069.00,1.46
4068.00,1.46
4067.00,1.46
4066.00,1.46
4065.00,1.46
4064.00,1.46
4063.00,1.46
4062.00,1.45
4061.00,1.45
4060.00,1.45
4059.00,1.45
4058.00,1.45
4057.00,1.45
4056.00,1.45
4055.00,1.44
4054.00,1.44
4053.00,1.44
4052.00,1.44
4051.00,1.44
4050.00,1.44
4049.00,1.44
4048.00,1.43
4047.00,1.43
4046.00,1.43
4045.00,1.44
4044.00,1.44
4043.00,1.44
4042.00,1.44
4041.00,1.44
4040.00,1.44
4039.00,1.44
4038.00,1.44
4037.00,1.45
4036.00,1.45
4035.00,1.45
4034.00,1.45
4033.00,1.45
4032.00,1.46
4031.00,1.46
4030.00,1.46
4029.00,1.46
4028.00,1.46
4027.00,1.47
4026.00,1.47
4025.00,1.47
4024.00,1.48
4023.00,1.48
4022.00,1.48
4021.00,1.48
4020.00,1.48
4019.00,1.48
4018.00,1.48
4017.00,1.48
4016.00,1.48
4015.00,1.48
4014.00,1.48
4013.00,1.48
4012.00,1.49
4011.00,1.49
4010.00,1.49
4009.00,1.49
4008.00,1.49
4007.00,1.49
4006.00,1.49
4005.00,1.49
4004.00,1.49
4003.00,1.49
4002.00,1.49
4001.00,1.48
4000.00,1.48
