创建为新数据集,样品 1065 用户 Administrator 日期 星期二, 七月 30 2019
cm-1,%T
10000.00,4.09
9999.00,4.01
9998.00,3.93
9997.00,3.85
9996.00,3.77
9995.00,3.69
9994.00,3.60
9993.00,3.52
9992.00,3.44
9991.00,3.35
9990.00,3.27
9989.00,3.20
9988.00,3.13
9987.00,3.06
9986.00,2.99
9985.00,2.93
9984.00,2.88
9983.00,2.83
9982.00,2.78
9981.00,2.74
9980.00,2.70
9979.00,2.65
9978.00,2.61
9977.00,2.57
9976.00,2.53
9975.00,2.49
9974.00,2.46
9973.00,2.43
9972.00,2.40
9971.00,2.38
9970.00,2.36
9969.00,2.35
9968.00,2.34
9967.00,2.34
9966.00,2.34
9965.00,2.34
9964.00,2.35
9963.00,2.36
9962.00,2.36
9961.00,2.37
9960.00,2.38
9959.00,2.39
9958.00,2.40
9957.00,2.41
9956.00,2.42
9955.00,2.43
9954.00,2.45
9953.00,2.47
9952.00,2.49
9951.00,2.52
9950.00,2.55
9949.00,2.58
9948.00,2.61
9947.00,2.64
9946.00,2.67
9945.00,2.71
9944.00,2.73
9943.00,2.76
9942.00,2.78
9941.00,2.80
9940.00,2.82
9939.00,2.83
9938.00,2.84
9937.00,2.85
9936.00,2.86
9935.00,2.87
9934.00,2.87
9933.00,2.88
9932.00,2.88
9931.00,2.87
9930.00,2.87
9929.00,2.86
9928.00,2.84
9927.00,2.82
9926.00,2.80
9925.00,2.76
9924.00,2.72
9923.00,2.68
9922.00,2.64
9921.00,2.59
9920.00,2.54
9919.00,2.49
9918.00,2.45
9917.00,2.40
9916.00,2.35
9915.00,2.31
9914.00,2.28
9913.00,2.24
9912.00,2.21
9911.00,2.18
9910.00,2.15
9909.00,2.12
9908.00,2.10
9907.00,2.08
9906.00,2.06
9905.00,2.04
9904.00,2.03
9903.00,2.02
9902.00,2.01
9901.00,2.00
9900.00,2.00
9899.00,2.01
9898.00,2.01
9897.00,2.02
9896.00,2.03
9895.00,2.04
9894.00,2.05
9893.00,2.06
9892.00,2.07
9891.00,2.08
9890.00,2.09
9889.00,2.09
9888.00,2.10
9887.00,2.10
9886.00,2.10
9885.00,2.10
9884.00,2.10
9883.00,2.10
9882.00,2.10
9881.00,2.10
9880.00,2.10
9879.00,2.10
9878.00,2.10
9877.00,2.09
9876.00,2.09
9875.00,2.09
9874.00,2.09
9873.00,2.09
9872.00,2.09
9871.00,2.09
9870.00,2.09
9869.00,2.09
9868.00,2.10
9867.00,2.11
9866.00,2.12
9865.00,2.13
9864.00,2.15
9863.00,2.16
9862.00,2.17
9861.00,2.19
9860.00,2.20
9859.00,2.22
9858.00,2.23
9857.00,2.24
9856.00,2.25
9855.00,2.27
9854.00,2.28
9853.00,2.29
9852.00,2.30
9851.00,2.30
9850.00,2.31
9849.00,2.32
9848.00,2.32
9847.00,2.32
9846.00,2.33
9845.00,2.33
9844.00,2.33
9843.00,2.33
9842.00,2.33
9841.00,2.33
9840.00,2.33
9839.00,2.34
9838.00,2.34
9837.00,2.34
9836.00,2.34
9835.00,2.35
9834.00,2.35
9833.00,2.36
9832.00,2.36
9831.00,2.36
9830.00,2.37
9829.00,2.37
9828.00,2.37
9827.00,2.37
9826.00,2.37
9825.00,2.37
9824.00,2.37
9823.00,2.38
9822.00,2.38
9821.00,2.38
9820.00,2.39
9819.00,2.39
9818.00,2.38
9817.00,2.38
9816.00,2.37
9815.00,2.36
9814.00,2.34
9813.00,2.33
9812.00,2.30
9811.00,2.28
9810.00,2.25
9809.00,2.22
9808.00,2.19
9807.00,2.15
9806.00,2.12
9805.00,2.09
9804.00,2.06
9803.00,2.03
9802.00,2.00
9801.00,1.98
9800.00,1.96
9799.00,1.94
9798.00,1.92
9797.00,1.90
9796.00,1.89
9795.00,1.87
9794.00,1.86
9793.00,1.84
9792.00,1.83
9791.00,1.82
9790.00,1.82
9789.00,1.82
9788.00,1.82
9787.00,1.82
9786.00,1.83
9785.00,1.85
9784.00,1.86
9783.00,1.88
9782.00,1.90
9781.00,1.92
9780.00,1.94
9779.00,1.96
9778.00,1.98
9777.00,1.99
9776.00,2.01
9775.00,2.02
9774.00,2.03
9773.00,2.03
9772.00,2.04
9771.00,2.04
9770.00,2.04
9769.00,2.04
9768.00,2.04
9767.00,2.05
9766.00,2.05
9765.00,2.05
9764.00,2.05
9763.00,2.06
9762.00,2.06
9761.00,2.06
9760.00,2.06
9759.00,2.06
9758.00,2.06
9757.00,2.05
9756.00,2.05
9755.00,2.05
9754.00,2.04
9753.00,2.04
9752.00,2.04
9751.00,2.05
9750.00,2.05
9749.00,2.06
9748.00,2.07
9747.00,2.08
9746.00,2.10
9745.00,2.11
9744.00,2.13
9743.00,2.14
9742.00,2.16
9741.00,2.17
9740.00,2.19
9739.00,2.20
9738.00,2.22
9737.00,2.23
9736.00,2.25
9735.00,2.26
9734.00,2.27
9733.00,2.29
9732.00,2.31
9731.00,2.32
9730.00,2.34
9729.00,2.36
9728.00,2.38
9727.00,2.39
9726.00,2.41
9725.00,2.42
9724.00,2.43
9723.00,2.44
9722.00,2.45
9721.00,2.46
9720.00,2.46
9719.00,2.47
9718.00,2.47
9717.00,2.48
9716.00,2.49
9715.00,2.50
9714.00,2.50
9713.00,2.51
9712.00,2.52
9711.00,2.52
9710.00,2.53
9709.00,2.53
9708.00,2.54
9707.00,2.54
9706.00,2.54
9705.00,2.55
9704.00,2.55
9703.00,2.54
9702.00,2.54
9701.00,2.54
9700.00,2.54
9699.00,2.55
9698.00,2.55
9697.00,2.55
9696.00,2.55
9695.00,2.55
9694.00,2.55
9693.00,2.55
9692.00,2.55
9691.00,2.55
9690.00,2.54
9689.00,2.54
9688.00,2.54
9687.00,2.53
9686.00,2.52
9685.00,2.52
9684.00,2.51
9683.00,2.50
9682.00,2.49
9681.00,2.48
9680.00,2.47
9679.00,2.46
9678.00,2.45
9677.00,2.43
9676.00,2.42
9675.00,2.41
9674.00,2.39
9673.00,2.38
9672.00,2.37
9671.00,2.35
9670.00,2.34
9669.00,2.33
9668.00,2.32
9667.00,2.31
9666.00,2.30
9665.00,2.29
9664.00,2.28
9663.00,2.27
9662.00,2.26
9661.00,2.24
9660.00,2.23
9659.00,2.22
9658.00,2.21
9657.00,2.20
9656.00,2.20
9655.00,2.19
9654.00,2.19
9653.00,2.18
9652.00,2.18
9651.00,2.18
9650.00,2.17
9649.00,2.17
9648.00,2.17
9647.00,2.17
9646.00,2.16
9645.00,2.15
9644.00,2.15
9643.00,2.14
9642.00,2.13
9641.00,2.12
9640.00,2.11
9639.00,2.10
9638.00,2.09
9637.00,2.08
9636.00,2.07
9635.00,2.06
9634.00,2.05
9633.00,2.04
9632.00,2.03
9631.00,2.02
9630.00,2.01
9629.00,1.99
9628.00,1.98
9627.00,1.96
9626.00,1.94
9625.00,1.92
9624.00,1.91
9623.00,1.89
9622.00,1.87
9621.00,1.85
9620.00,1.84
9619.00,1.83
9618.00,1.81
9617.00,1.81
9616.00,1.80
9615.00,1.79
9614.00,1.79
9613.00,1.78
9612.00,1.77
9611.00,1.77
9610.00,1.77
9609.00,1.76
9608.00,1.76
9607.00,1.77
9606.00,1.77
9605.00,1.77
9604.00,1.78
9603.00,1.79
9602.00,1.80
9601.00,1.81
9600.00,1.82
9599.00,1.84
9598.00,1.86
9597.00,1.88
9596.00,1.90
9595.00,1.92
9594.00,1.94
9593.00,1.96
9592.00,1.98
9591.00,2.00
9590.00,2.01
9589.00,2.03
9588.00,2.04
9587.00,2.06
9586.00,2.07
9585.00,2.08
9584.00,2.09
9583.00,2.10
9582.00,2.10
9581.00,2.11
9580.00,2.11
9579.00,2.11
9578.00,2.11
9577.00,2.12
9576.00,2.12
9575.00,2.12
9574.00,2.12
9573.00,2.11
9572.00,2.11
9571.00,2.11
9570.00,2.10
9569.00,2.10
9568.00,2.09
9567.00,2.08
9566.00,2.08
9565.00,2.07
9564.00,2.06
9563.00,2.05
9562.00,2.05
9561.00,2.05
9560.00,2.04
9559.00,2.04
9558.00,2.04
9557.00,2.05
9556.00,2.05
9555.00,2.06
9554.00,2.06
9553.00,2.07
9552.00,2.08
9551.00,2.08
9550.00,2.09
9549.00,2.09
9548.00,2.10
9547.00,2.10
9546.00,2.11
9545.00,2.11
9544.00,2.12
9543.00,2.13
9542.00,2.14
9541.00,2.15
9540.00,2.17
9539.00,2.19
9538.00,2.21
9537.00,2.22
9536.00,2.24
9535.00,2.26
9534.00,2.28
9533.00,2.30
9532.00,2.31
9531.00,2.32
9530.00,2.33
9529.00,2.34
9528.00,2.35
9527.00,2.36
9526.00,2.37
9525.00,2.37
9524.00,2.38
9523.00,2.39
9522.00,2.40
9521.00,2.41
9520.00,2.42
9519.00,2.43
9518.00,2.43
9517.00,2.44
9516.00,2.44
9515.00,2.44
9514.00,2.43
9513.00,2.42
9512.00,2.41
9511.00,2.39
9510.00,2.37
9509.00,2.36
9508.00,2.34
9507.00,2.31
9506.00,2.29
9505.00,2.27
9504.00,2.25
9503.00,2.23
9502.00,2.21
9501.00,2.19
9500.00,2.16
9499.00,2.14
9498.00,2.11
9497.00,2.08
9496.00,2.05
9495.00,2.01
9494.00,1.98
9493.00,1.94
9492.00,1.90
9491.00,1.86
9490.00,1.82
9489.00,1.79
9488.00,1.75
9487.00,1.71
9486.00,1.68
9485.00,1.65
9484.00,1.61
9483.00,1.58
9482.00,1.55
9481.00,1.53
9480.00,1.50
9479.00,1.48
9478.00,1.46
9477.00,1.44
9476.00,1.42
9475.00,1.40
9474.00,1.39
9473.00,1.38
9472.00,1.37
9471.00,1.37
9470.00,1.37
9469.00,1.37
9468.00,1.37
9467.00,1.38
9466.00,1.38
9465.00,1.39
9464.00,1.40
9463.00,1.41
9462.00,1.42
9461.00,1.44
9460.00,1.45
9459.00,1.47
9458.00,1.49
9457.00,1.51
9456.00,1.52
9455.00,1.54
9454.00,1.56
9453.00,1.58
9452.00,1.60
9451.00,1.61
9450.00,1.63
9449.00,1.64
9448.00,1.65
9447.00,1.67
9446.00,1.68
9445.00,1.69
9444.00,1.70
9443.00,1.70
9442.00,1.71
9441.00,1.72
9440.00,1.72
9439.00,1.72
9438.00,1.72
9437.00,1.72
9436.00,1.72
9435.00,1.71
9434.00,1.71
9433.00,1.71
9432.00,1.70
9431.00,1.70
9430.00,1.69
9429.00,1.69
9428.00,1.68
9427.00,1.68
9426.00,1.67
9425.00,1.67
9424.00,1.67
9423.00,1.66
9422.00,1.65
9421.00,1.65
9420.00,1.64
9419.00,1.64
9418.00,1.63
9417.00,1.62
9416.00,1.62
9415.00,1.62
9414.00,1.61
9413.00,1.61
9412.00,1.61
9411.00,1.62
9410.00,1.62
9409.00,1.63
9408.00,1.64
9407.00,1.64
9406.00,1.64
9405.00,1.65
9404.00,1.65
9403.00,1.64
9402.00,1.64
9401.00,1.64
9400.00,1.63
9399.00,1.63
9398.00,1.63
9397.00,1.63
9396.00,1.63
9395.00,1.63
9394.00,1.63
9393.00,1.63
9392.00,1.64
9391.00,1.65
9390.00,1.65
9389.00,1.66
9388.00,1.67
9387.00,1.67
9386.00,1.68
9385.00,1.68
9384.00,1.69
9383.00,1.69
9382.00,1.69
9381.00,1.69
9380.00,1.70
9379.00,1.70
9378.00,1.71
9377.00,1.71
9376.00,1.72
9375.00,1.73
9374.00,1.74
9373.00,1.75
9372.00,1.76
9371.00,1.77
9370.00,1.78
9369.00,1.79
9368.00,1.80
9367.00,1.80
9366.00,1.81
9365.00,1.81
9364.00,1.82
9363.00,1.82
9362.00,1.82
9361.00,1.82
9360.00,1.83
9359.00,1.83
9358.00,1.84
9357.00,1.84
9356.00,1.85
9355.00,1.86
9354.00,1.87
9353.00,1.88
9352.00,1.89
9351.00,1.91
9350.00,1.92
9349.00,1.93
9348.00,1.95
9347.00,1.96
9346.00,1.97
9345.00,1.98
9344.00,2.00
9343.00,2.01
9342.00,2.02
9341.00,2.02
9340.00,2.03
9339.00,2.04
9338.00,2.04
9337.00,2.05
9336.00,2.05
9335.00,2.06
9334.00,2.06
9333.00,2.06
9332.00,2.07
9331.00,2.07
9330.00,2.07
9329.00,2.07
9328.00,2.07
9327.00,2.07
9326.00,2.07
9325.00,2.08
9324.00,2.08
9323.00,2.09
9322.00,2.09
9321.00,2.10
9320.00,2.10
9319.00,2.10
9318.00,2.11
9317.00,2.11
9316.00,2.12
9315.00,2.13
9314.00,2.14
9313.00,2.16
9312.00,2.18
9311.00,2.20
9310.00,2.22
9309.00,2.25
9308.00,2.27
9307.00,2.30
9306.00,2.32
9305.00,2.35
9304.00,2.37
9303.00,2.39
9302.00,2.41
9301.00,2.43
9300.00,2.44
9299.00,2.45
9298.00,2.46
9297.00,2.46
9296.00,2.47
9295.00,2.47
9294.00,2.48
9293.00,2.48
9292.00,2.48
9291.00,2.49
9290.00,2.49
9289.00,2.49
9288.00,2.49
9287.00,2.48
9286.00,2.48
9285.00,2.47
9284.00,2.46
9283.00,2.45
9282.00,2.43
9281.00,2.41
9280.00,2.40
9279.00,2.38
9278.00,2.37
9277.00,2.35
9276.00,2.34
9275.00,2.32
9274.00,2.31
9273.00,2.29
9272.00,2.27
9271.00,2.26
9270.00,2.24
9269.00,2.22
9268.00,2.20
9267.00,2.18
9266.00,2.16
9265.00,2.14
9264.00,2.12
9263.00,2.10
9262.00,2.09
9261.00,2.07
9260.00,2.05
9259.00,2.03
9258.00,2.01
9257.00,1.99
9256.00,1.98
9255.00,1.96
9254.00,1.95
9253.00,1.94
9252.00,1.93
9251.00,1.92
9250.00,1.91
9249.00,1.91
9248.00,1.91
9247.00,1.92
9246.00,1.93
9245.00,1.94
9244.00,1.96
9243.00,1.98
9242.00,1.99
9241.00,2.02
9240.00,2.04
9239.00,2.06
9238.00,2.08
9237.00,2.10
9236.00,2.12
9235.00,2.14
9234.00,2.16
9233.00,2.18
9232.00,2.20
9231.00,2.22
9230.00,2.23
9229.00,2.25
9228.00,2.26
9227.00,2.26
9226.00,2.27
9225.00,2.27
9224.00,2.27
9223.00,2.27
9222.00,2.26
9221.00,2.25
9220.00,2.23
9219.00,2.21
9218.00,2.19
9217.00,2.17
9216.00,2.15
9215.00,2.13
9214.00,2.10
9213.00,2.07
9212.00,2.05
9211.00,2.03
9210.00,2.00
9209.00,1.98
9208.00,1.95
9207.00,1.93
9206.00,1.91
9205.00,1.89
9204.00,1.88
9203.00,1.86
9202.00,1.85
9201.00,1.85
9200.00,1.84
9199.00,1.84
9198.00,1.84
9197.00,1.84
9196.00,1.84
9195.00,1.85
9194.00,1.86
9193.00,1.87
9192.00,1.88
9191.00,1.89
9190.00,1.90
9189.00,1.91
9188.00,1.92
9187.00,1.94
9186.00,1.95
9185.00,1.95
9184.00,1.96
9183.00,1.97
9182.00,1.98
9181.00,1.99
9180.00,1.99
9179.00,1.99
9178.00,2.00
9177.00,2.00
9176.00,2.00
9175.00,2.00
9174.00,1.99
9173.00,1.99
9172.00,1.98
9171.00,1.97
9170.00,1.97
9169.00,1.96
9168.00,1.95
9167.00,1.94
9166.00,1.93
9165.00,1.92
9164.00,1.91
9163.00,1.91
9162.00,1.90
9161.00,1.89
9160.00,1.89
9159.00,1.88
9158.00,1.87
9157.00,1.86
9156.00,1.86
9155.00,1.85
9154.00,1.84
9153.00,1.84
9152.00,1.83
9151.00,1.83
9150.00,1.83
9149.00,1.83
9148.00,1.83
9147.00,1.83
9146.00,1.84
9145.00,1.84
9144.00,1.84
9143.00,1.84
9142.00,1.84
9141.00,1.84
9140.00,1.83
9139.00,1.83
9138.00,1.83
9137.00,1.82
9136.00,1.82
9135.00,1.81
9134.00,1.81
9133.00,1.81
9132.00,1.81
9131.00,1.81
9130.00,1.81
9129.00,1.81
9128.00,1.82
9127.00,1.82
9126.00,1.82
9125.00,1.81
9124.00,1.81
9123.00,1.80
9122.00,1.79
9121.00,1.78
9120.00,1.77
9119.00,1.76
9118.00,1.75
9117.00,1.74
9116.00,1.73
9115.00,1.72
9114.00,1.72
9113.00,1.71
9112.00,1.71
9111.00,1.71
9110.00,1.72
9109.00,1.72
9108.00,1.72
9107.00,1.72
9106.00,1.72
9105.00,1.72
9104.00,1.72
9103.00,1.72
9102.00,1.72
9101.00,1.73
9100.00,1.73
9099.00,1.74
9098.00,1.75
9097.00,1.76
9096.00,1.78
9095.00,1.80
9094.00,1.82
9093.00,1.85
9092.00,1.87
9091.00,1.90
9090.00,1.92
9089.00,1.95
9088.00,1.97
9087.00,1.99
9086.00,2.01
9085.00,2.02
9084.00,2.03
9083.00,2.04
9082.00,2.05
9081.00,2.06
9080.00,2.06
9079.00,2.07
9078.00,2.07
9077.00,2.08
9076.00,2.08
9075.00,2.09
9074.00,2.09
9073.00,2.09
9072.00,2.08
9071.00,2.08
9070.00,2.07
9069.00,2.06
9068.00,2.04
9067.00,2.03
9066.00,2.01
9065.00,1.99
9064.00,1.97
9063.00,1.95
9062.00,1.93
9061.00,1.91
9060.00,1.90
9059.00,1.89
9058.00,1.88
9057.00,1.88
9056.00,1.87
9055.00,1.87
9054.00,1.87
9053.00,1.87
9052.00,1.87
9051.00,1.87
9050.00,1.87
9049.00,1.87
9048.00,1.88
9047.00,1.88
9046.00,1.88
9045.00,1.88
9044.00,1.89
9043.00,1.89
9042.00,1.90
9041.00,1.91
9040.00,1.92
9039.00,1.93
9038.00,1.94
9037.00,1.96
9036.00,1.98
9035.00,1.99
9034.00,2.01
9033.00,2.03
9032.00,2.04
9031.00,2.05
9030.00,2.06
9029.00,2.07
9028.00,2.07
9027.00,2.08
9026.00,2.08
9025.00,2.09
9024.00,2.09
9023.00,2.10
9022.00,2.10
9021.00,2.11
9020.00,2.12
9019.00,2.14
9018.00,2.15
9017.00,2.17
9016.00,2.19
9015.00,2.20
9014.00,2.21
9013.00,2.22
9012.00,2.23
9011.00,2.23
9010.00,2.23
9009.00,2.23
9008.00,2.22
9007.00,2.22
9006.00,2.21
9005.00,2.20
9004.00,2.19
9003.00,2.18
9002.00,2.17
9001.00,2.17
9000.00,2.16
8999.00,2.15
8998.00,2.13
8997.00,2.12
8996.00,2.10
8995.00,2.08
8994.00,2.06
8993.00,2.04
8992.00,2.01
8991.00,1.98
8990.00,1.95
8989.00,1.91
8988.00,1.88
8987.00,1.85
8986.00,1.82
8985.00,1.79
8984.00,1.76
8983.00,1.73
8982.00,1.71
8981.00,1.68
8980.00,1.66
8979.00,1.64
8978.00,1.62
8977.00,1.60
8976.00,1.59
8975.00,1.57
8974.00,1.56
8973.00,1.55
8972.00,1.55
8971.00,1.54
8970.00,1.53
8969.00,1.53
8968.00,1.53
8967.00,1.53
8966.00,1.53
8965.00,1.53
8964.00,1.54
8963.00,1.55
8962.00,1.55
8961.00,1.56
8960.00,1.58
8959.00,1.59
8958.00,1.60
8957.00,1.62
8956.00,1.63
8955.00,1.65
8954.00,1.66
8953.00,1.68
8952.00,1.69
8951.00,1.70
8950.00,1.71
8949.00,1.72
8948.00,1.73
8947.00,1.73
8946.00,1.74
8945.00,1.75
8944.00,1.75
8943.00,1.76
8942.00,1.77
8941.00,1.78
8940.00,1.80
8939.00,1.81
8938.00,1.82
8937.00,1.83
8936.00,1.84
8935.00,1.85
8934.00,1.86
8933.00,1.86
8932.00,1.87
8931.00,1.87
8930.00,1.87
8929.00,1.88
8928.00,1.88
8927.00,1.88
8926.00,1.88
8925.00,1.89
8924.00,1.89
8923.00,1.89
8922.00,1.90
8921.00,1.90
8920.00,1.90
8919.00,1.90
8918.00,1.90
8917.00,1.89
8916.00,1.88
8915.00,1.87
8914.00,1.86
8913.00,1.84
8912.00,1.82
8911.00,1.80
8910.00,1.78
8909.00,1.76
8908.00,1.74
8907.00,1.73
8906.00,1.71
8905.00,1.70
8904.00,1.69
8903.00,1.68
8902.00,1.67
8901.00,1.66
8900.00,1.66
8899.00,1.66
8898.00,1.65
8897.00,1.65
8896.00,1.65
8895.00,1.65
8894.00,1.66
8893.00,1.66
8892.00,1.67
8891.00,1.67
8890.00,1.68
8889.00,1.69
8888.00,1.70
8887.00,1.72
8886.00,1.73
8885.00,1.74
8884.00,1.76
8883.00,1.77
8882.00,1.79
8881.00,1.80
8880.00,1.82
8879.00,1.83
8878.00,1.84
8877.00,1.85
8876.00,1.86
8875.00,1.86
8874.00,1.87
8873.00,1.87
8872.00,1.87
8871.00,1.87
8870.00,1.86
8869.00,1.86
8868.00,1.86
8867.00,1.85
8866.00,1.85
8865.00,1.85
8864.00,1.84
8863.00,1.84
8862.00,1.84
8861.00,1.84
8860.00,1.84
8859.00,1.85
8858.00,1.85
8857.00,1.85
8856.00,1.85
8855.00,1.85
8854.00,1.85
8853.00,1.85
8852.00,1.85
8851.00,1.85
8850.00,1.85
8849.00,1.85
8848.00,1.86
8847.00,1.86
8846.00,1.87
8845.00,1.88
8844.00,1.89
8843.00,1.91
8842.00,1.92
8841.00,1.93
8840.00,1.95
8839.00,1.96
8838.00,1.97
8837.00,1.98
8836.00,1.98
8835.00,1.99
8834.00,1.99
8833.00,1.99
8832.00,2.00
8831.00,2.00
8830.00,2.00
8829.00,2.01
8828.00,2.02
8827.00,2.03
8826.00,2.04
8825.00,2.05
8824.00,2.05
8823.00,2.06
8822.00,2.07
8821.00,2.07
8820.00,2.07
8819.00,2.07
8818.00,2.07
8817.00,2.07
8816.00,2.06
8815.00,2.06
8814.00,2.05
8813.00,2.05
8812.00,2.05
8811.00,2.05
8810.00,2.05
8809.00,2.05
8808.00,2.06
8807.00,2.07
8806.00,2.08
8805.00,2.10
8804.00,2.11
8803.00,2.12
8802.00,2.13
8801.00,2.14
8800.00,2.15
8799.00,2.16
8798.00,2.17
8797.00,2.18
8796.00,2.19
8795.00,2.19
8794.00,2.20
8793.00,2.21
8792.00,2.22
8791.00,2.23
8790.00,2.24
8789.00,2.26
8788.00,2.27
8787.00,2.28
8786.00,2.29
8785.00,2.30
8784.00,2.31
8783.00,2.31
8782.00,2.31
8781.00,2.31
8780.00,2.31
8779.00,2.30
8778.00,2.29
8777.00,2.27
8776.00,2.26
8775.00,2.24
8774.00,2.22
8773.00,2.20
8772.00,2.19
8771.00,2.17
8770.00,2.15
8769.00,2.13
8768.00,2.12
8767.00,2.10
8766.00,2.08
8765.00,2.06
8764.00,2.04
8763.00,2.02
8762.00,2.00
8761.00,1.98
8760.00,1.96
8759.00,1.94
8758.00,1.91
8757.00,1.89
8756.00,1.87
8755.00,1.85
8754.00,1.84
8753.00,1.82
8752.00,1.81
8751.00,1.81
8750.00,1.81
8749.00,1.81
8748.00,1.81
8747.00,1.81
8746.00,1.82
8745.00,1.83
8744.00,1.83
8743.00,1.84
8742.00,1.85
8741.00,1.86
8740.00,1.87
8739.00,1.88
8738.00,1.90
8737.00,1.91
8736.00,1.93
8735.00,1.95
8734.00,1.97
8733.00,2.00
8732.00,2.02
8731.00,2.04
8730.00,2.06
8729.00,2.08
8728.00,2.10
8727.00,2.12
8726.00,2.14
8725.00,2.16
8724.00,2.17
8723.00,2.18
8722.00,2.19
8721.00,2.20
8720.00,2.21
8719.00,2.21
8718.00,2.22
8717.00,2.22
8716.00,2.23
8715.00,2.23
8714.00,2.24
8713.00,2.24
8712.00,2.24
8711.00,2.24
8710.00,2.23
8709.00,2.23
8708.00,2.22
8707.00,2.22
8706.00,2.21
8705.00,2.20
8704.00,2.19
8703.00,2.17
8702.00,2.16
8701.00,2.15
8700.00,2.15
8699.00,2.14
8698.00,2.13
8697.00,2.13
8696.00,2.13
8695.00,2.13
8694.00,2.13
8693.00,2.13
8692.00,2.13
8691.00,2.13
8690.00,2.13
8689.00,2.14
8688.00,2.14
8687.00,2.14
8686.00,2.14
8685.00,2.15
8684.00,2.15
8683.00,2.15
8682.00,2.16
8681.00,2.16
8680.00,2.17
8679.00,2.18
8678.00,2.19
8677.00,2.20
8676.00,2.21
8675.00,2.22
8674.00,2.23
8673.00,2.24
8672.00,2.25
8671.00,2.26
8670.00,2.26
8669.00,2.27
8668.00,2.27
8667.00,2.27
8666.00,2.27
8665.00,2.27
8664.00,2.27
8663.00,2.27
8662.00,2.26
8661.00,2.25
8660.00,2.25
8659.00,2.24
8658.00,2.23
8657.00,2.23
8656.00,2.22
8655.00,2.21
8654.00,2.20
8653.00,2.18
8652.00,2.17
8651.00,2.15
8650.00,2.13
8649.00,2.12
8648.00,2.10
8647.00,2.08
8646.00,2.06
8645.00,2.04
8644.00,2.02
8643.00,2.00
8642.00,1.98
8641.00,1.96
8640.00,1.94
8639.00,1.92
8638.00,1.90
8637.00,1.89
8636.00,1.87
8635.00,1.86
8634.00,1.85
8633.00,1.85
8632.00,1.84
8631.00,1.84
8630.00,1.83
8629.00,1.83
8628.00,1.83
8627.00,1.84
8626.00,1.84
8625.00,1.85
8624.00,1.86
8623.00,1.87
8622.00,1.88
8621.00,1.89
8620.00,1.90
8619.00,1.91
8618.00,1.92
8617.00,1.93
8616.00,1.94
8615.00,1.95
8614.00,1.96
8613.00,1.97
8612.00,1.98
8611.00,1.99
8610.00,2.00
8609.00,2.00
8608.00,2.01
8607.00,2.01
8606.00,2.01
8605.00,2.01
8604.00,2.01
8603.00,2.01
8602.00,2.00
8601.00,2.00
8600.00,1.99
8599.00,1.98
8598.00,1.98
8597.00,1.97
8596.00,1.96
8595.00,1.95
8594.00,1.94
8593.00,1.93
8592.00,1.92
8591.00,1.91
8590.00,1.90
8589.00,1.90
8588.00,1.89
8587.00,1.88
8586.00,1.88
8585.00,1.87
8584.00,1.87
8583.00,1.86
8582.00,1.86
8581.00,1.85
8580.00,1.85
8579.00,1.85
8578.00,1.84
8577.00,1.84
8576.00,1.84
8575.00,1.84
8574.00,1.84
8573.00,1.84
8572.00,1.84
8571.00,1.85
8570.00,1.85
8569.00,1.85
8568.00,1.86
8567.00,1.86
8566.00,1.87
8565.00,1.87
8564.00,1.88
8563.00,1.89
8562.00,1.90
8561.00,1.91
8560.00,1.92
8559.00,1.93
8558.00,1.94
8557.00,1.95
8556.00,1.96
8555.00,1.97
8554.00,1.98
8553.00,2.00
8552.00,2.01
8551.00,2.02
8550.00,2.03
8549.00,2.04
8548.00,2.05
8547.00,2.06
8546.00,2.07
8545.00,2.08
8544.00,2.09
8543.00,2.10
8542.00,2.11
8541.00,2.11
8540.00,2.12
8539.00,2.12
8538.00,2.12
8537.00,2.12
8536.00,2.12
8535.00,2.12
8534.00,2.12
8533.00,2.12
8532.00,2.12
8531.00,2.12
8530.00,2.11
8529.00,2.11
8528.00,2.10
8527.00,2.10
8526.00,2.09
8525.00,2.08
8524.00,2.06
8523.00,2.05
8522.00,2.04
8521.00,2.02
8520.00,2.01
8519.00,1.99
8518.00,1.98
8517.00,1.96
8516.00,1.95
8515.00,1.94
8514.00,1.93
8513.00,1.92
8512.00,1.91
8511.00,1.90
8510.00,1.90
8509.00,1.89
8508.00,1.89
8507.00,1.89
8506.00,1.89
8505.00,1.89
8504.00,1.89
8503.00,1.89
8502.00,1.90
8501.00,1.90
8500.00,1.91
8499.00,1.92
8498.00,1.94
8497.00,1.95
8496.00,1.97
8495.00,1.98
8494.00,2.00
8493.00,2.01
8492.00,2.03
8491.00,2.05
8490.00,2.06
8489.00,2.08
8488.00,2.09
8487.00,2.11
8486.00,2.12
8485.00,2.14
8484.00,2.15
8483.00,2.16
8482.00,2.17
8481.00,2.17
8480.00,2.18
8479.00,2.18
8478.00,2.18
8477.00,2.18
8476.00,2.18
8475.00,2.18
8474.00,2.18
8473.00,2.18
8472.00,2.18
8471.00,2.17
8470.00,2.17
8469.00,2.17
8468.00,2.17
8467.00,2.16
8466.00,2.16
8465.00,2.16
8464.00,2.16
8463.00,2.15
8462.00,2.15
8461.00,2.15
8460.00,2.14
8459.00,2.14
8458.00,2.13
8457.00,2.13
8456.00,2.13
8455.00,2.13
8454.00,2.12
8453.00,2.12
8452.00,2.12
8451.00,2.11
8450.00,2.11
8449.00,2.11
8448.00,2.10
8447.00,2.10
8446.00,2.10
8445.00,2.10
8444.00,2.09
8443.00,2.09
8442.00,2.09
8441.00,2.08
8440.00,2.08
8439.00,2.08
8438.00,2.08
8437.00,2.08
8436.00,2.08
8435.00,2.08
8434.00,2.08
8433.00,2.08
8432.00,2.08
8431.00,2.08
8430.00,2.07
8429.00,2.07
8428.00,2.06
8427.00,2.06
8426.00,2.05
8425.00,2.05
8424.00,2.05
8423.00,2.04
8422.00,2.04
8421.00,2.03
8420.00,2.03
8419.00,2.03
8418.00,2.02
8417.00,2.02
8416.00,2.02
8415.00,2.01
8414.00,2.01
8413.00,2.01
8412.00,2.00
8411.00,2.00
8410.00,2.00
8409.00,1.99
8408.00,1.99
8407.00,1.99
8406.00,1.99
8405.00,1.99
8404.00,2.00
8403.00,2.01
8402.00,2.02
8401.00,2.03
8400.00,2.05
8399.00,2.06
8398.00,2.08
8397.00,2.09
8396.00,2.11
8395.00,2.12
8394.00,2.14
8393.00,2.15
8392.00,2.16
8391.00,2.17
8390.00,2.18
8389.00,2.19
8388.00,2.19
8387.00,2.20
8386.00,2.21
8385.00,2.22
8384.00,2.22
8383.00,2.22
8382.00,2.22
8381.00,2.22
8380.00,2.22
8379.00,2.22
8378.00,2.21
8377.00,2.20
8376.00,2.19
8375.00,2.17
8374.00,2.16
8373.00,2.14
8372.00,2.13
8371.00,2.11
8370.00,2.10
8369.00,2.09
8368.00,2.07
8367.00,2.06
8366.00,2.05
8365.00,2.04
8364.00,2.03
8363.00,2.03
8362.00,2.02
8361.00,2.01
8360.00,2.00
8359.00,1.99
8358.00,1.98
8357.00,1.98
8356.00,1.97
8355.00,1.98
8354.00,1.98
8353.00,1.98
8352.00,1.99
8351.00,2.00
8350.00,2.01
8349.00,2.02
8348.00,2.03
8347.00,2.04
8346.00,2.05
8345.00,2.07
8344.00,2.08
8343.00,2.09
8342.00,2.09
8341.00,2.10
8340.00,2.11
8339.00,2.12
8338.00,2.13
8337.00,2.14
8336.00,2.15
8335.00,2.16
8334.00,2.16
8333.00,2.17
8332.00,2.18
8331.00,2.19
8330.00,2.19
8329.00,2.19
8328.00,2.19
8327.00,2.19
8326.00,2.18
8325.00,2.17
8324.00,2.16
8323.00,2.15
8322.00,2.14
8321.00,2.13
8320.00,2.12
8319.00,2.11
8318.00,2.09
8317.00,2.08
8316.00,2.07
8315.00,2.05
8314.00,2.04
8313.00,2.03
8312.00,2.01
8311.00,2.00
8310.00,1.99
8309.00,1.98
8308.00,1.96
8307.00,1.95
8306.00,1.94
8305.00,1.93
8304.00,1.92
8303.00,1.91
8302.00,1.90
8301.00,1.90
8300.00,1.89
8299.00,1.89
8298.00,1.89
8297.00,1.89
8296.00,1.90
8295.00,1.90
8294.00,1.91
8293.00,1.91
8292.00,1.92
8291.00,1.93
8290.00,1.93
8289.00,1.94
8288.00,1.95
8287.00,1.96
8286.00,1.96
8285.00,1.97
8284.00,1.97
8283.00,1.98
8282.00,1.99
8281.00,1.99
8280.00,2.00
8279.00,2.00
8278.00,2.01
8277.00,2.02
8276.00,2.03
8275.00,2.04
8274.00,2.05
8273.00,2.06
8272.00,2.07
8271.00,2.07
8270.00,2.07
8269.00,2.08
8268.00,2.08
8267.00,2.07
8266.00,2.07
8265.00,2.07
8264.00,2.07
8263.00,2.07
8262.00,2.07
8261.00,2.07
8260.00,2.08
8259.00,2.08
8258.00,2.08
8257.00,2.09
8256.00,2.09
8255.00,2.10
8254.00,2.10
8253.00,2.10
8252.00,2.10
8251.00,2.10
8250.00,2.10
8249.00,2.09
8248.00,2.09
8247.00,2.08
8246.00,2.08
8245.00,2.07
8244.00,2.07
8243.00,2.07
8242.00,2.07
8241.00,2.07
8240.00,2.08
8239.00,2.08
8238.00,2.08
8237.00,2.08
8236.00,2.09
8235.00,2.08
8234.00,2.08
8233.00,2.08
8232.00,2.08
8231.00,2.07
8230.00,2.07
8229.00,2.07
8228.00,2.07
8227.00,2.07
8226.00,2.07
8225.00,2.08
8224.00,2.08
8223.00,2.09
8222.00,2.10
8221.00,2.11
8220.00,2.12
8219.00,2.13
8218.00,2.14
8217.00,2.15
8216.00,2.16
8215.00,2.17
8214.00,2.18
8213.00,2.18
8212.00,2.19
8211.00,2.20
8210.00,2.21
8209.00,2.22
8208.00,2.23
8207.00,2.24
8206.00,2.25
8205.00,2.26
8204.00,2.27
8203.00,2.28
8202.00,2.29
8201.00,2.30
8200.00,2.30
8199.00,2.30
8198.00,2.31
8197.00,2.31
8196.00,2.31
8195.00,2.30
8194.00,2.30
8193.00,2.30
8192.00,2.29
8191.00,2.28
8190.00,2.28
8189.00,2.27
8188.00,2.26
8187.00,2.25
8186.00,2.23
8185.00,2.22
8184.00,2.21
8183.00,2.20
8182.00,2.19
8181.00,2.17
8180.00,2.16
8179.00,2.15
8178.00,2.13
8177.00,2.12
8176.00,2.11
8175.00,2.10
8174.00,2.09
8173.00,2.07
8172.00,2.06
8171.00,2.05
8170.00,2.04
8169.00,2.03
8168.00,2.03
8167.00,2.02
8166.00,2.01
8165.00,2.01
8164.00,2.01
8163.00,2.01
8162.00,2.01
8161.00,2.02
8160.00,2.02
8159.00,2.03
8158.00,2.04
8157.00,2.04
8156.00,2.05
8155.00,2.06
8154.00,2.07
8153.00,2.08
8152.00,2.09
8151.00,2.10
8150.00,2.11
8149.00,2.12
8148.00,2.13
8147.00,2.14
8146.00,2.15
8145.00,2.16
8144.00,2.17
8143.00,2.18
8142.00,2.19
8141.00,2.20
8140.00,2.21
8139.00,2.22
8138.00,2.22
8137.00,2.23
8136.00,2.23
8135.00,2.23
8134.00,2.23
8133.00,2.23
8132.00,2.23
8131.00,2.23
8130.00,2.22
8129.00,2.22
8128.00,2.22
8127.00,2.21
8126.00,2.21
8125.00,2.20
8124.00,2.20
8123.00,2.19
8122.00,2.19
8121.00,2.19
8120.00,2.18
8119.00,2.18
8118.00,2.18
8117.00,2.17
8116.00,2.17
8115.00,2.17
8114.00,2.17
8113.00,2.16
8112.00,2.16
8111.00,2.16
8110.00,2.16
8109.00,2.15
8108.00,2.15
8107.00,2.15
8106.00,2.15
8105.00,2.14
8104.00,2.14
8103.00,2.14
8102.00,2.13
8101.00,2.13
8100.00,2.13
8099.00,2.12
8098.00,2.12
8097.00,2.11
8096.00,2.11
8095.00,2.11
8094.00,2.10
8093.00,2.10
8092.00,2.10
8091.00,2.09
8090.00,2.09
8089.00,2.08
8088.00,2.08
8087.00,2.07
8086.00,2.07
8085.00,2.07
8084.00,2.06
8083.00,2.06
8082.00,2.06
8081.00,2.06
8080.00,2.06
8079.00,2.07
8078.00,2.07
8077.00,2.07
8076.00,2.08
8075.00,2.08
8074.00,2.09
8073.00,2.09
8072.00,2.10
8071.00,2.11
8070.00,2.11
8069.00,2.12
8068.00,2.13
8067.00,2.13
8066.00,2.14
8065.00,2.15
8064.00,2.15
8063.00,2.16
8062.00,2.17
8061.00,2.18
8060.00,2.19
8059.00,2.19
8058.00,2.20
8057.00,2.21
8056.00,2.22
8055.00,2.23
8054.00,2.23
8053.00,2.24
8052.00,2.25
8051.00,2.26
8050.00,2.27
8049.00,2.27
8048.00,2.28
8047.00,2.28
8046.00,2.29
8045.00,2.29
8044.00,2.29
8043.00,2.29
8042.00,2.29
8041.00,2.29
8040.00,2.29
8039.00,2.29
8038.00,2.29
8037.00,2.30
8036.00,2.30
8035.00,2.30
8034.00,2.30
8033.00,2.30
8032.00,2.30
8031.00,2.30
8030.00,2.30
8029.00,2.29
8028.00,2.29
8027.00,2.29
8026.00,2.28
8025.00,2.28
8024.00,2.28
8023.00,2.27
8022.00,2.27
8021.00,2.27
8020.00,2.27
8019.00,2.27
8018.00,2.27
8017.00,2.27
8016.00,2.27
8015.00,2.27
8014.00,2.27
8013.00,2.27
8012.00,2.26
8011.00,2.26
8010.00,2.25
8009.00,2.25
8008.00,2.24
8007.00,2.23
8006.00,2.22
8005.00,2.21
8004.00,2.20
8003.00,2.19
8002.00,2.19
8001.00,2.18
8000.00,2.17
7999.00,2.17
7998.00,2.16
7997.00,2.16
7996.00,2.15
7995.00,2.14
7994.00,2.13
7993.00,2.12
7992.00,2.11
7991.00,2.11
7990.00,2.10
7989.00,2.09
7988.00,2.09
7987.00,2.08
7986.00,2.07
7985.00,2.07
7984.00,2.07
7983.00,2.07
7982.00,2.07
7981.00,2.07
7980.00,2.07
7979.00,2.08
7978.00,2.08
7977.00,2.08
7976.00,2.08
7975.00,2.08
7974.00,2.08
7973.00,2.08
7972.00,2.08
7971.00,2.08
7970.00,2.08
7969.00,2.08
7968.00,2.08
7967.00,2.09
7966.00,2.09
7965.00,2.09
7964.00,2.10
7963.00,2.10
7962.00,2.10
7961.00,2.11
7960.00,2.11
7959.00,2.12
7958.00,2.12
7957.00,2.12
7956.00,2.12
7955.00,2.12
7954.00,2.12
7953.00,2.12
7952.00,2.12
7951.00,2.12
7950.00,2.12
7949.00,2.12
7948.00,2.12
7947.00,2.13
7946.00,2.13
7945.00,2.13
7944.00,2.14
7943.00,2.14
7942.00,2.14
7941.00,2.14
7940.00,2.14
7939.00,2.14
7938.00,2.14
7937.00,2.14
7936.00,2.14
7935.00,2.14
7934.00,2.13
7933.00,2.13
7932.00,2.13
7931.00,2.14
7930.00,2.14
7929.00,2.14
7928.00,2.15
7927.00,2.15
7926.00,2.16
7925.00,2.16
7924.00,2.17
7923.00,2.17
7922.00,2.18
7921.00,2.18
7920.00,2.19
7919.00,2.20
7918.00,2.21
7917.00,2.21
7916.00,2.22
7915.00,2.23
7914.00,2.24
7913.00,2.24
7912.00,2.25
7911.00,2.25
7910.00,2.26
7909.00,2.27
7908.00,2.27
7907.00,2.28
7906.00,2.28
7905.00,2.28
7904.00,2.28
7903.00,2.29
7902.00,2.29
7901.00,2.29
7900.00,2.29
7899.00,2.29
7898.00,2.29
7897.00,2.28
7896.00,2.28
7895.00,2.28
7894.00,2.27
7893.00,2.27
7892.00,2.26
7891.00,2.26
7890.00,2.26
7889.00,2.25
7888.00,2.25
7887.00,2.25
7886.00,2.25
7885.00,2.25
7884.00,2.25
7883.00,2.25
7882.00,2.25
7881.00,2.25
7880.00,2.24
7879.00,2.24
7878.00,2.24
7877.00,2.24
7876.00,2.24
7875.00,2.24
7874.00,2.25
7873.00,2.25
7872.00,2.25
7871.00,2.25
7870.00,2.25
7869.00,2.26
7868.00,2.26
7867.00,2.26
7866.00,2.26
7865.00,2.26
7864.00,2.26
7863.00,2.26
7862.00,2.26
7861.00,2.26
7860.00,2.26
7859.00,2.26
7858.00,2.26
7857.00,2.26
7856.00,2.27
7855.00,2.27
7854.00,2.27
7853.00,2.27
7852.00,2.27
7851.00,2.28
7850.00,2.28
7849.00,2.28
7848.00,2.28
7847.00,2.28
7846.00,2.28
7845.00,2.29
7844.00,2.29
7843.00,2.29
7842.00,2.30
7841.00,2.30
7840.00,2.31
7839.00,2.31
7838.00,2.32
7837.00,2.33
7836.00,2.33
7835.00,2.34
7834.00,2.35
7833.00,2.36
7832.00,2.36
7831.00,2.37
7830.00,2.37
7829.00,2.38
7828.00,2.38
7827.00,2.39
7826.00,2.39
7825.00,2.40
7824.00,2.40
7823.00,2.40
7822.00,2.41
7821.00,2.41
7820.00,2.41
7819.00,2.41
7818.00,2.41
7817.00,2.40
7816.00,2.40
7815.00,2.39
7814.00,2.39
7813.00,2.38
7812.00,2.37
7811.00,2.36
7810.00,2.35
7809.00,2.34
7808.00,2.33
7807.00,2.32
7806.00,2.31
7805.00,2.29
7804.00,2.28
7803.00,2.27
7802.00,2.26
7801.00,2.25
7800.00,2.25
7799.00,2.24
7798.00,2.23
7797.00,2.22
7796.00,2.22
7795.00,2.21
7794.00,2.21
7793.00,2.20
7792.00,2.20
7791.00,2.20
7790.00,2.20
7789.00,2.20
7788.00,2.20
7787.00,2.21
7786.00,2.21
7785.00,2.22
7784.00,2.22
7783.00,2.23
7782.00,2.23
7781.00,2.24
7780.00,2.25
7779.00,2.25
7778.00,2.26
7777.00,2.26
7776.00,2.26
7775.00,2.27
7774.00,2.27
7773.00,2.27
7772.00,2.26
7771.00,2.26
7770.00,2.26
7769.00,2.26
7768.00,2.26
7767.00,2.25
7766.00,2.25
7765.00,2.25
7764.00,2.25
7763.00,2.25
7762.00,2.25
7761.00,2.25
7760.00,2.24
7759.00,2.24
7758.00,2.23
7757.00,2.23
7756.00,2.22
7755.00,2.21
7754.00,2.20
7753.00,2.20
7752.00,2.19
7751.00,2.19
7750.00,2.18
7749.00,2.18
7748.00,2.18
7747.00,2.18
7746.00,2.19
7745.00,2.19
7744.00,2.20
7743.00,2.20
7742.00,2.21
7741.00,2.21
7740.00,2.22
7739.00,2.22
7738.00,2.23
7737.00,2.23
7736.00,2.24
7735.00,2.24
7734.00,2.25
7733.00,2.26
7732.00,2.27
7731.00,2.29
7730.00,2.30
7729.00,2.32
7728.00,2.34
7727.00,2.35
7726.00,2.37
7725.00,2.39
7724.00,2.41
7723.00,2.42
7722.00,2.44
7721.00,2.45
7720.00,2.46
7719.00,2.47
7718.00,2.48
7717.00,2.49
7716.00,2.49
7715.00,2.50
7714.00,2.50
7713.00,2.51
7712.00,2.51
7711.00,2.52
7710.00,2.52
7709.00,2.52
7708.00,2.53
7707.00,2.53
7706.00,2.53
7705.00,2.53
7704.00,2.52
7703.00,2.52
7702.00,2.52
7701.00,2.51
7700.00,2.51
7699.00,2.50
7698.00,2.50
7697.00,2.49
7696.00,2.49
7695.00,2.48
7694.00,2.48
7693.00,2.47
7692.00,2.47
7691.00,2.47
7690.00,2.47
7689.00,2.47
7688.00,2.47
7687.00,2.47
7686.00,2.47
7685.00,2.47
7684.00,2.47
7683.00,2.47
7682.00,2.47
7681.00,2.47
7680.00,2.47
7679.00,2.47
7678.00,2.47
7677.00,2.48
7676.00,2.48
7675.00,2.48
7674.00,2.48
7673.00,2.48
7672.00,2.48
7671.00,2.49
7670.00,2.49
7669.00,2.49
7668.00,2.49
7667.00,2.49
7666.00,2.49
7665.00,2.49
7664.00,2.49
7663.00,2.49
7662.00,2.48
7661.00,2.48
7660.00,2.48
7659.00,2.47
7658.00,2.47
7657.00,2.46
7656.00,2.46
7655.00,2.45
7654.00,2.44
7653.00,2.44
7652.00,2.43
7651.00,2.42
7650.00,2.41
7649.00,2.41
7648.00,2.40
7647.00,2.39
7646.00,2.37
7645.00,2.36
7644.00,2.35
7643.00,2.34
7642.00,2.33
7641.00,2.32
7640.00,2.31
7639.00,2.30
7638.00,2.30
7637.00,2.29
7636.00,2.28
7635.00,2.28
7634.00,2.27
7633.00,2.27
7632.00,2.27
7631.00,2.27
7630.00,2.26
7629.00,2.26
7628.00,2.26
7627.00,2.26
7626.00,2.26
7625.00,2.26
7624.00,2.26
7623.00,2.26
7622.00,2.26
7621.00,2.27
7620.00,2.27
7619.00,2.28
7618.00,2.28
7617.00,2.29
7616.00,2.30
7615.00,2.30
7614.00,2.31
7613.00,2.31
7612.00,2.32
7611.00,2.32
7610.00,2.33
7609.00,2.33
7608.00,2.33
7607.00,2.34
7606.00,2.34
7605.00,2.35
7604.00,2.36
7603.00,2.37
7602.00,2.37
7601.00,2.38
7600.00,2.39
7599.00,2.40
7598.00,2.41
7597.00,2.41
7596.00,2.42
7595.00,2.43
7594.00,2.43
7593.00,2.43
7592.00,2.44
7591.00,2.44
7590.00,2.44
7589.00,2.44
7588.00,2.44
7587.00,2.44
7586.00,2.44
7585.00,2.43
7584.00,2.43
7583.00,2.42
7582.00,2.42
7581.00,2.41
7580.00,2.40
7579.00,2.39
7578.00,2.38
7577.00,2.37
7576.00,2.36
7575.00,2.35
7574.00,2.34
7573.00,2.33
7572.00,2.31
7571.00,2.30
7570.00,2.29
7569.00,2.28
7568.00,2.27
7567.00,2.26
7566.00,2.25
7565.00,2.24
7564.00,2.23
7563.00,2.22
7562.00,2.22
7561.00,2.21
7560.00,2.21
7559.00,2.20
7558.00,2.20
7557.00,2.20
7556.00,2.20
7555.00,2.20
7554.00,2.21
7553.00,2.21
7552.00,2.21
7551.00,2.22
7550.00,2.22
7549.00,2.23
7548.00,2.24
7547.00,2.24
7546.00,2.25
7545.00,2.26
7544.00,2.27
7543.00,2.28
7542.00,2.29
7541.00,2.30
7540.00,2.31
7539.00,2.32
7538.00,2.33
7537.00,2.33
7536.00,2.34
7535.00,2.36
7534.00,2.37
7533.00,2.38
7532.00,2.39
7531.00,2.40
7530.00,2.42
7529.00,2.43
7528.00,2.44
7527.00,2.45
7526.00,2.46
7525.00,2.47
7524.00,2.48
7523.00,2.49
7522.00,2.50
7521.00,2.51
7520.00,2.52
7519.00,2.52
7518.00,2.52
7517.00,2.53
7516.00,2.53
7515.00,2.53
7514.00,2.53
7513.00,2.53
7512.00,2.53
7511.00,2.53
7510.00,2.53
7509.00,2.53
7508.00,2.53
7507.00,2.52
7506.00,2.52
7505.00,2.51
7504.00,2.50
7503.00,2.49
7502.00,2.48
7501.00,2.47
7500.00,2.46
7499.00,2.45
7498.00,2.44
7497.00,2.43
7496.00,2.42
7495.00,2.41
7494.00,2.40
7493.00,2.39
7492.00,2.38
7491.00,2.38
7490.00,2.38
7489.00,2.37
7488.00,2.37
7487.00,2.37
7486.00,2.37
7485.00,2.36
7484.00,2.36
7483.00,2.36
7482.00,2.36
7481.00,2.37
7480.00,2.37
7479.00,2.37
7478.00,2.37
7477.00,2.38
7476.00,2.38
7475.00,2.39
7474.00,2.39
7473.00,2.39
7472.00,2.40
7471.00,2.40
7470.00,2.41
7469.00,2.41
7468.00,2.42
7467.00,2.42
7466.00,2.42
7465.00,2.42
7464.00,2.43
7463.00,2.43
7462.00,2.43
7461.00,2.43
7460.00,2.43
7459.00,2.44
7458.00,2.44
7457.00,2.44
7456.00,2.44
7455.00,2.45
7454.00,2.45
7453.00,2.45
7452.00,2.45
7451.00,2.45
7450.00,2.45
7449.00,2.45
7448.00,2.45
7447.00,2.45
7446.00,2.45
7445.00,2.45
7444.00,2.45
7443.00,2.45
7442.00,2.45
7441.00,2.45
7440.00,2.45
7439.00,2.45
7438.00,2.45
7437.00,2.45
7436.00,2.45
7435.00,2.44
7434.00,2.44
7433.00,2.43
7432.00,2.42
7431.00,2.42
7430.00,2.41
7429.00,2.40
7428.00,2.39
7427.00,2.39
7426.00,2.38
7425.00,2.38
7424.00,2.37
7423.00,2.37
7422.00,2.37
7421.00,2.37
7420.00,2.37
7419.00,2.37
7418.00,2.37
7417.00,2.37
7416.00,2.37
7415.00,2.37
7414.00,2.37
7413.00,2.37
7412.00,2.37
7411.00,2.38
7410.00,2.38
7409.00,2.38
7408.00,2.39
7407.00,2.39
7406.00,2.40
7405.00,2.41
7404.00,2.41
7403.00,2.42
7402.00,2.42
7401.00,2.43
7400.00,2.43
7399.00,2.43
7398.00,2.44
7397.00,2.44
7396.00,2.44
7395.00,2.44
7394.00,2.43
7393.00,2.43
7392.00,2.43
7391.00,2.42
7390.00,2.42
7389.00,2.41
7388.00,2.41
7387.00,2.40
7386.00,2.40
7385.00,2.39
7384.00,2.39
7383.00,2.38
7382.00,2.38
7381.00,2.38
7380.00,2.37
7379.00,2.37
7378.00,2.37
7377.00,2.37
7376.00,2.37
7375.00,2.37
7374.00,2.37
7373.00,2.37
7372.00,2.37
7371.00,2.37
7370.00,2.37
7369.00,2.37
7368.00,2.37
7367.00,2.37
7366.00,2.37
7365.00,2.38
7364.00,2.38
7363.00,2.38
7362.00,2.39
7361.00,2.39
7360.00,2.40
7359.00,2.40
7358.00,2.40
7357.00,2.41
7356.00,2.41
7355.00,2.41
7354.00,2.41
7353.00,2.41
7352.00,2.41
7351.00,2.40
7350.00,2.40
7349.00,2.40
7348.00,2.39
7347.00,2.39
7346.00,2.39
7345.00,2.38
7344.00,2.38
7343.00,2.37
7342.00,2.37
7341.00,2.36
7340.00,2.36
7339.00,2.35
7338.00,2.35
7337.00,2.34
7336.00,2.34
7335.00,2.33
7334.00,2.33
7333.00,2.32
7332.00,2.31
7331.00,2.30
7330.00,2.30
7329.00,2.29
7328.00,2.29
7327.00,2.28
7326.00,2.28
7325.00,2.27
7324.00,2.27
7323.00,2.27
7322.00,2.27
7321.00,2.27
7320.00,2.27
7319.00,2.27
7318.00,2.27
7317.00,2.27
7316.00,2.28
7315.00,2.28
7314.00,2.28
7313.00,2.28
7312.00,2.28
7311.00,2.29
7310.00,2.29
7309.00,2.29
7308.00,2.30
7307.00,2.30
7306.00,2.31
7305.00,2.32
7304.00,2.33
7303.00,2.34
7302.00,2.34
7301.00,2.35
7300.00,2.36
7299.00,2.37
7298.00,2.38
7297.00,2.39
7296.00,2.39
7295.00,2.40
7294.00,2.40
7293.00,2.41
7292.00,2.41
7291.00,2.41
7290.00,2.41
7289.00,2.41
7288.00,2.41
7287.00,2.41
7286.00,2.42
7285.00,2.42
7284.00,2.42
7283.00,2.42
7282.00,2.41
7281.00,2.41
7280.00,2.41
7279.00,2.40
7278.00,2.40
7277.00,2.39
7276.00,2.38
7275.00,2.38
7274.00,2.37
7273.00,2.36
7272.00,2.35
7271.00,2.34
7270.00,2.33
7269.00,2.32
7268.00,2.31
7267.00,2.30
7266.00,2.29
7265.00,2.29
7264.00,2.28
7263.00,2.28
7262.00,2.27
7261.00,2.27
7260.00,2.26
7259.00,2.26
7258.00,2.26
7257.00,2.25
7256.00,2.24
7255.00,2.24
7254.00,2.23
7253.00,2.23
7252.00,2.23
7251.00,2.22
7250.00,2.22
7249.00,2.22
7248.00,2.22
7247.00,2.22
7246.00,2.22
7245.00,2.23
7244.00,2.23
7243.00,2.23
7242.00,2.23
7241.00,2.23
7240.00,2.23
7239.00,2.23
7238.00,2.23
7237.00,2.23
7236.00,2.23
7235.00,2.23
7234.00,2.23
7233.00,2.23
7232.00,2.23
7231.00,2.24
7230.00,2.24
7229.00,2.24
7228.00,2.24
7227.00,2.25
7226.00,2.25
7225.00,2.25
7224.00,2.25
7223.00,2.25
7222.00,2.24
7221.00,2.24
7220.00,2.23
7219.00,2.23
7218.00,2.23
7217.00,2.22
7216.00,2.22
7215.00,2.21
7214.00,2.21
7213.00,2.20
7212.00,2.20
7211.00,2.19
7210.00,2.19
7209.00,2.18
7208.00,2.17
7207.00,2.16
7206.00,2.15
7205.00,2.14
7204.00,2.13
7203.00,2.12
7202.00,2.11
7201.00,2.10
7200.00,2.09
7199.00,2.08
7198.00,2.08
7197.00,2.07
7196.00,2.06
7195.00,2.06
7194.00,2.05
7193.00,2.05
7192.00,2.04
7191.00,2.04
7190.00,2.03
7189.00,2.03
7188.00,2.02
7187.00,2.01
7186.00,2.01
7185.00,2.00
7184.00,2.00
7183.00,2.00
7182.00,2.00
7181.00,2.00
7180.00,2.00
7179.00,2.00
7178.00,1.99
7177.00,1.99
7176.00,1.99
7175.00,1.99
7174.00,1.99
7173.00,1.99
7172.00,1.98
7171.00,1.98
7170.00,1.98
7169.00,1.97
7168.00,1.97
7167.00,1.96
7166.00,1.96
7165.00,1.96
7164.00,1.95
7163.00,1.95
7162.00,1.95
7161.00,1.94
7160.00,1.94
7159.00,1.94
7158.00,1.93
7157.00,1.93
7156.00,1.92
7155.00,1.92
7154.00,1.91
7153.00,1.91
7152.00,1.91
7151.00,1.91
7150.00,1.91
7149.00,1.91
7148.00,1.91
7147.00,1.91
7146.00,1.91
7145.00,1.91
7144.00,1.92
7143.00,1.92
7142.00,1.92
7141.00,1.93
7140.00,1.93
7139.00,1.94
7138.00,1.94
7137.00,1.95
7136.00,1.95
7135.00,1.96
7134.00,1.96
7133.00,1.96
7132.00,1.97
7131.00,1.97
7130.00,1.97
7129.00,1.98
7128.00,1.98
7127.00,1.98
7126.00,1.97
7125.00,1.97
7124.00,1.97
7123.00,1.96
7122.00,1.96
7121.00,1.95
7120.00,1.95
7119.00,1.94
7118.00,1.94
7117.00,1.93
7116.00,1.93
7115.00,1.92
7114.00,1.92
7113.00,1.91
7112.00,1.90
7111.00,1.90
7110.00,1.89
7109.00,1.89
7108.00,1.88
7107.00,1.87
7106.00,1.87
7105.00,1.86
7104.00,1.85
7103.00,1.85
7102.00,1.84
7101.00,1.84
7100.00,1.83
7099.00,1.83
7098.00,1.82
7097.00,1.82
7096.00,1.81
7095.00,1.81
7094.00,1.81
7093.00,1.80
7092.00,1.80
7091.00,1.79
7090.00,1.79
7089.00,1.78
7088.00,1.78
7087.00,1.77
7086.00,1.76
7085.00,1.76
7084.00,1.75
7083.00,1.74
7082.00,1.74
7081.00,1.73
7080.00,1.72
7079.00,1.72
7078.00,1.72
7077.00,1.72
7076.00,1.71
7075.00,1.71
7074.00,1.72
7073.00,1.72
7072.00,1.72
7071.00,1.72
7070.00,1.72
7069.00,1.72
7068.00,1.72
7067.00,1.72
7066.00,1.72
7065.00,1.72
7064.00,1.72
7063.00,1.72
7062.00,1.72
7061.00,1.73
7060.00,1.73
7059.00,1.73
7058.00,1.73
7057.00,1.73
7056.00,1.74
7055.00,1.74
7054.00,1.74
7053.00,1.75
7052.00,1.75
7051.00,1.75
7050.00,1.75
7049.00,1.75
7048.00,1.75
7047.00,1.75
7046.00,1.75
7045.00,1.75
7044.00,1.75
7043.00,1.75
7042.00,1.74
7041.00,1.74
7040.00,1.74
7039.00,1.74
7038.00,1.73
7037.00,1.73
7036.00,1.73
7035.00,1.73
7034.00,1.73
7033.00,1.73
7032.00,1.72
7031.00,1.72
7030.00,1.72
7029.00,1.72
7028.00,1.72
7027.00,1.71
7026.00,1.71
7025.00,1.71
7024.00,1.70
7023.00,1.70
7022.00,1.69
7021.00,1.69
7020.00,1.68
7019.00,1.68
7018.00,1.68
7017.00,1.67
7016.00,1.67
7015.00,1.66
7014.00,1.66
7013.00,1.66
7012.00,1.66
7011.00,1.65
7010.00,1.65
7009.00,1.65
7008.00,1.65
7007.00,1.64
7006.00,1.64
7005.00,1.63
7004.00,1.63
7003.00,1.63
7002.00,1.62
7001.00,1.62
7000.00,1.62
6999.00,1.61
6998.00,1.61
6997.00,1.61
6996.00,1.61
6995.00,1.61
6994.00,1.61
6993.00,1.61
6992.00,1.61
6991.00,1.61
6990.00,1.61
6989.00,1.61
6988.00,1.61
6987.00,1.61
6986.00,1.61
6985.00,1.62
6984.00,1.62
6983.00,1.62
6982.00,1.62
6981.00,1.62
6980.00,1.63
6979.00,1.63
6978.00,1.63
6977.00,1.63
6976.00,1.63
6975.00,1.63
6974.00,1.64
6973.00,1.64
6972.00,1.64
6971.00,1.64
6970.00,1.63
6969.00,1.63
6968.00,1.63
6967.00,1.63
6966.00,1.62
6965.00,1.62
6964.00,1.62
6963.00,1.61
6962.00,1.61
6961.00,1.60
6960.00,1.60
6959.00,1.59
6958.00,1.58
6957.00,1.58
6956.00,1.57
6955.00,1.57
6954.00,1.56
6953.00,1.56
6952.00,1.55
6951.00,1.55
6950.00,1.55
6949.00,1.54
6948.00,1.54
6947.00,1.54
6946.00,1.54
6945.00,1.54
6944.00,1.54
6943.00,1.54
6942.00,1.54
6941.00,1.55
6940.00,1.55
6939.00,1.55
6938.00,1.56
6937.00,1.56
6936.00,1.56
6935.00,1.57
6934.00,1.57
6933.00,1.58
6932.00,1.58
6931.00,1.59
6930.00,1.59
6929.00,1.60
6928.00,1.60
6927.00,1.61
6926.00,1.62
6925.00,1.62
6924.00,1.63
6923.00,1.63
6922.00,1.64
6921.00,1.64
6920.00,1.65
6919.00,1.65
6918.00,1.66
6917.00,1.66
6916.00,1.66
6915.00,1.67
6914.00,1.67
6913.00,1.67
6912.00,1.67
6911.00,1.67
6910.00,1.67
6909.00,1.67
6908.00,1.67
6907.00,1.67
6906.00,1.67
6905.00,1.67
6904.00,1.67
6903.00,1.67
6902.00,1.67
6901.00,1.67
6900.00,1.67
6899.00,1.67
6898.00,1.67
6897.00,1.67
6896.00,1.66
6895.00,1.66
6894.00,1.66
6893.00,1.65
6892.00,1.65
6891.00,1.64
6890.00,1.64
6889.00,1.63
6888.00,1.63
6887.00,1.62
6886.00,1.62
6885.00,1.61
6884.00,1.61
6883.00,1.60
6882.00,1.60
6881.00,1.59
6880.00,1.59
6879.00,1.58
6878.00,1.58
6877.00,1.57
6876.00,1.56
6875.00,1.56
6874.00,1.55
6873.00,1.54
6872.00,1.54
6871.00,1.53
6870.00,1.52
6869.00,1.52
6868.00,1.51
6867.00,1.51
6866.00,1.50
6865.00,1.50
6864.00,1.50
6863.00,1.50
6862.00,1.49
6861.00,1.49
6860.00,1.49
6859.00,1.49
6858.00,1.49
6857.00,1.49
6856.00,1.50
6855.00,1.50
6854.00,1.50
6853.00,1.51
6852.00,1.51
6851.00,1.52
6850.00,1.52
6849.00,1.53
6848.00,1.53
6847.00,1.54
6846.00,1.54
6845.00,1.54
6844.00,1.55
6843.00,1.55
6842.00,1.56
6841.00,1.56
6840.00,1.57
6839.00,1.57
6838.00,1.58
6837.00,1.58
6836.00,1.59
6835.00,1.59
6834.00,1.60
6833.00,1.60
6832.00,1.60
6831.00,1.60
6830.00,1.61
6829.00,1.61
6828.00,1.60
6827.00,1.60
6826.00,1.60
6825.00,1.60
6824.00,1.60
6823.00,1.60
6822.00,1.59
6821.00,1.59
6820.00,1.59
6819.00,1.59
6818.00,1.59
6817.00,1.59
6816.00,1.59
6815.00,1.59
6814.00,1.59
6813.00,1.59
6812.00,1.59
6811.00,1.59
6810.00,1.59
6809.00,1.58
6808.00,1.58
6807.00,1.58
6806.00,1.58
6805.00,1.58
6804.00,1.57
6803.00,1.57
6802.00,1.57
6801.00,1.57
6800.00,1.57
6799.00,1.57
6798.00,1.58
6797.00,1.58
6796.00,1.58
6795.00,1.58
6794.00,1.58
6793.00,1.59
6792.00,1.59
6791.00,1.59
6790.00,1.59
6789.00,1.59
6788.00,1.60
6787.00,1.60
6786.00,1.60
6785.00,1.60
6784.00,1.61
6783.00,1.61
6782.00,1.62
6781.00,1.63
6780.00,1.63
6779.00,1.64
6778.00,1.65
6777.00,1.65
6776.00,1.66
6775.00,1.67
6774.00,1.68
6773.00,1.68
6772.00,1.69
6771.00,1.70
6770.00,1.70
6769.00,1.71
6768.00,1.71
6767.00,1.72
6766.00,1.72
6765.00,1.73
6764.00,1.73
6763.00,1.74
6762.00,1.74
6761.00,1.74
6760.00,1.75
6759.00,1.75
6758.00,1.76
6757.00,1.76
6756.00,1.77
6755.00,1.77
6754.00,1.77
6753.00,1.78
6752.00,1.78
6751.00,1.78
6750.00,1.79
6749.00,1.79
6748.00,1.79
6747.00,1.80
6746.00,1.80
6745.00,1.80
6744.00,1.80
6743.00,1.80
6742.00,1.80
6741.00,1.80
6740.00,1.81
6739.00,1.81
6738.00,1.81
6737.00,1.81
6736.00,1.81
6735.00,1.82
6734.00,1.82
6733.00,1.82
6732.00,1.82
6731.00,1.82
6730.00,1.82
6729.00,1.81
6728.00,1.81
6727.00,1.81
6726.00,1.80
6725.00,1.80
6724.00,1.79
6723.00,1.79
6722.00,1.79
6721.00,1.78
6720.00,1.78
6719.00,1.78
6718.00,1.77
6717.00,1.77
6716.00,1.77
6715.00,1.77
6714.00,1.77
6713.00,1.77
6712.00,1.77
6711.00,1.77
6710.00,1.77
6709.00,1.77
6708.00,1.77
6707.00,1.77
6706.00,1.77
6705.00,1.77
6704.00,1.77
6703.00,1.78
6702.00,1.78
6701.00,1.78
6700.00,1.79
6699.00,1.79
6698.00,1.80
6697.00,1.80
6696.00,1.81
6695.00,1.82
6694.00,1.82
6693.00,1.83
6692.00,1.83
6691.00,1.84
6690.00,1.84
6689.00,1.85
6688.00,1.85
6687.00,1.86
6686.00,1.86
6685.00,1.87
6684.00,1.87
6683.00,1.88
6682.00,1.88
6681.00,1.89
6680.00,1.89
6679.00,1.89
6678.00,1.90
6677.00,1.90
6676.00,1.90
6675.00,1.91
6674.00,1.91
6673.00,1.91
6672.00,1.92
6671.00,1.92
6670.00,1.92
6669.00,1.92
6668.00,1.92
6667.00,1.92
6666.00,1.93
6665.00,1.93
6664.00,1.93
6663.00,1.93
6662.00,1.93
6661.00,1.93
6660.00,1.93
6659.00,1.93
6658.00,1.93
6657.00,1.93
6656.00,1.93
6655.00,1.93
6654.00,1.93
6653.00,1.93
6652.00,1.94
6651.00,1.94
6650.00,1.94
6649.00,1.94
6648.00,1.94
6647.00,1.94
6646.00,1.94
6645.00,1.93
6644.00,1.93
6643.00,1.93
6642.00,1.93
6641.00,1.93
6640.00,1.92
6639.00,1.92
6638.00,1.92
6637.00,1.92
6636.00,1.92
6635.00,1.92
6634.00,1.92
6633.00,1.92
6632.00,1.92
6631.00,1.92
6630.00,1.92
6629.00,1.92
6628.00,1.92
6627.00,1.91
6626.00,1.91
6625.00,1.91
6624.00,1.90
6623.00,1.90
6622.00,1.90
6621.00,1.90
6620.00,1.90
6619.00,1.90
6618.00,1.90
6617.00,1.90
6616.00,1.90
6615.00,1.91
6614.00,1.91
6613.00,1.91
6612.00,1.91
6611.00,1.91
6610.00,1.92
6609.00,1.92
6608.00,1.92
6607.00,1.92
6606.00,1.92
6605.00,1.92
6604.00,1.92
6603.00,1.92
6602.00,1.92
6601.00,1.92
6600.00,1.92
6599.00,1.92
6598.00,1.93
6597.00,1.93
6596.00,1.93
6595.00,1.93
6594.00,1.93
6593.00,1.93
6592.00,1.93
6591.00,1.93
6590.00,1.93
6589.00,1.93
6588.00,1.93
6587.00,1.93
6586.00,1.93
6585.00,1.93
6584.00,1.93
6583.00,1.93
6582.00,1.93
6581.00,1.93
6580.00,1.93
6579.00,1.93
6578.00,1.93
6577.00,1.93
6576.00,1.93
6575.00,1.93
6574.00,1.93
6573.00,1.94
6572.00,1.94
6571.00,1.95
6570.00,1.95
6569.00,1.96
6568.00,1.96
6567.00,1.97
6566.00,1.97
6565.00,1.98
6564.00,1.99
6563.00,1.99
6562.00,2.00
6561.00,2.00
6560.00,2.01
6559.00,2.01
6558.00,2.02
6557.00,2.03
6556.00,2.04
6555.00,2.04
6554.00,2.05
6553.00,2.06
6552.00,2.07
6551.00,2.08
6550.00,2.09
6549.00,2.09
6548.00,2.10
6547.00,2.11
6546.00,2.11
6545.00,2.11
6544.00,2.12
6543.00,2.12
6542.00,2.12
6541.00,2.12
6540.00,2.13
6539.00,2.13
6538.00,2.13
6537.00,2.13
6536.00,2.13
6535.00,2.12
6534.00,2.12
6533.00,2.12
6532.00,2.12
6531.00,2.11
6530.00,2.11
6529.00,2.10
6528.00,2.10
6527.00,2.09
6526.00,2.09
6525.00,2.08
6524.00,2.08
6523.00,2.07
6522.00,2.07
6521.00,2.06
6520.00,2.06
6519.00,2.05
6518.00,2.05
6517.00,2.05
6516.00,2.05
6515.00,2.05
6514.00,2.05
6513.00,2.05
6512.00,2.05
6511.00,2.05
6510.00,2.05
6509.00,2.05
6508.00,2.06
6507.00,2.06
6506.00,2.07
6505.00,2.07
6504.00,2.07
6503.00,2.08
6502.00,2.08
6501.00,2.09
6500.00,2.09
6499.00,2.09
6498.00,2.10
6497.00,2.10
6496.00,2.11
6495.00,2.11
6494.00,2.11
6493.00,2.12
6492.00,2.12
6491.00,2.12
6490.00,2.12
6489.00,2.12
6488.00,2.12
6487.00,2.11
6486.00,2.11
6485.00,2.11
6484.00,2.11
6483.00,2.10
6482.00,2.10
6481.00,2.10
6480.00,2.10
6479.00,2.09
6478.00,2.09
6477.00,2.09
6476.00,2.09
6475.00,2.09
6474.00,2.09
6473.00,2.09
6472.00,2.09
6471.00,2.09
6470.00,2.09
6469.00,2.09
6468.00,2.09
6467.00,2.09
6466.00,2.09
6465.00,2.09
6464.00,2.09
6463.00,2.09
6462.00,2.09
6461.00,2.09
6460.00,2.10
6459.00,2.10
6458.00,2.10
6457.00,2.10
6456.00,2.10
6455.00,2.10
6454.00,2.10
6453.00,2.10
6452.00,2.10
6451.00,2.10
6450.00,2.10
6449.00,2.10
6448.00,2.10
6447.00,2.10
6446.00,2.10
6445.00,2.10
6444.00,2.10
6443.00,2.10
6442.00,2.10
6441.00,2.10
6440.00,2.10
6439.00,2.10
6438.00,2.10
6437.00,2.10
6436.00,2.10
6435.00,2.10
6434.00,2.10
6433.00,2.11
6432.00,2.11
6431.00,2.11
6430.00,2.12
6429.00,2.12
6428.00,2.13
6427.00,2.14
6426.00,2.14
6425.00,2.15
6424.00,2.15
6423.00,2.16
6422.00,2.16
6421.00,2.17
6420.00,2.17
6419.00,2.17
6418.00,2.18
6417.00,2.18
6416.00,2.19
6415.00,2.19
6414.00,2.20
6413.00,2.20
6412.00,2.20
6411.00,2.21
6410.00,2.21
6409.00,2.21
6408.00,2.22
6407.00,2.22
6406.00,2.22
6405.00,2.22
6404.00,2.22
6403.00,2.22
6402.00,2.22
6401.00,2.22
6400.00,2.21
6399.00,2.21
6398.00,2.21
6397.00,2.21
6396.00,2.21
6395.00,2.21
6394.00,2.20
6393.00,2.20
6392.00,2.20
6391.00,2.20
6390.00,2.20
6389.00,2.20
6388.00,2.19
6387.00,2.19
6386.00,2.19
6385.00,2.19
6384.00,2.20
6383.00,2.20
6382.00,2.20
6381.00,2.20
6380.00,2.20
6379.00,2.20
6378.00,2.21
6377.00,2.21
6376.00,2.21
6375.00,2.22
6374.00,2.22
6373.00,2.23
6372.00,2.24
6371.00,2.24
6370.00,2.25
6369.00,2.26
6368.00,2.26
6367.00,2.27
6366.00,2.28
6365.00,2.28
6364.00,2.29
6363.00,2.30
6362.00,2.30
6361.00,2.31
6360.00,2.32
6359.00,2.32
6358.00,2.33
6357.00,2.33
6356.00,2.34
6355.00,2.34
6354.00,2.34
6353.00,2.35
6352.00,2.35
6351.00,2.36
6350.00,2.36
6349.00,2.36
6348.00,2.36
6347.00,2.37
6346.00,2.37
6345.00,2.37
6344.00,2.37
6343.00,2.37
6342.00,2.37
6341.00,2.37
6340.00,2.37
6339.00,2.37
6338.00,2.37
6337.00,2.37
6336.00,2.37
6335.00,2.37
6334.00,2.37
6333.00,2.37
6332.00,2.37
6331.00,2.36
6330.00,2.36
6329.00,2.36
6328.00,2.36
6327.00,2.36
6326.00,2.36
6325.00,2.35
6324.00,2.35
6323.00,2.35
6322.00,2.35
6321.00,2.35
6320.00,2.35
6319.00,2.35
6318.00,2.35
6317.00,2.35
6316.00,2.35
6315.00,2.35
6314.00,2.36
6313.00,2.36
6312.00,2.36
6311.00,2.36
6310.00,2.36
6309.00,2.36
6308.00,2.36
6307.00,2.36
6306.00,2.36
6305.00,2.36
6304.00,2.37
6303.00,2.37
6302.00,2.37
6301.00,2.37
6300.00,2.37
6299.00,2.36
6298.00,2.36
6297.00,2.36
6296.00,2.36
6295.00,2.35
6294.00,2.35
6293.00,2.35
6292.00,2.34
6291.00,2.34
6290.00,2.33
6289.00,2.33
6288.00,2.32
6287.00,2.32
6286.00,2.31
6285.00,2.31
6284.00,2.30
6283.00,2.29
6282.00,2.29
6281.00,2.28
6280.00,2.27
6279.00,2.27
6278.00,2.27
6277.00,2.26
6276.00,2.26
6275.00,2.26
6274.00,2.26
6273.00,2.26
6272.00,2.26
6271.00,2.26
6270.00,2.26
6269.00,2.27
6268.00,2.27
6267.00,2.27
6266.00,2.28
6265.00,2.28
6264.00,2.28
6263.00,2.29
6262.00,2.29
6261.00,2.30
6260.00,2.30
6259.00,2.31
6258.00,2.32
6257.00,2.32
6256.00,2.33
6255.00,2.34
6254.00,2.34
6253.00,2.35
6252.00,2.36
6251.00,2.37
6250.00,2.37
6249.00,2.38
6248.00,2.38
6247.00,2.39
6246.00,2.39
6245.00,2.39
6244.00,2.40
6243.00,2.40
6242.00,2.40
6241.00,2.40
6240.00,2.41
6239.00,2.41
6238.00,2.41
6237.00,2.41
6236.00,2.41
6235.00,2.41
6234.00,2.41
6233.00,2.41
6232.00,2.41
6231.00,2.41
6230.00,2.41
6229.00,2.41
6228.00,2.41
6227.00,2.41
6226.00,2.41
6225.00,2.41
6224.00,2.40
6223.00,2.40
6222.00,2.40
6221.00,2.40
6220.00,2.39
6219.00,2.39
6218.00,2.39
6217.00,2.39
6216.00,2.39
6215.00,2.39
6214.00,2.39
6213.00,2.39
6212.00,2.39
6211.00,2.40
6210.00,2.40
6209.00,2.40
6208.00,2.41
6207.00,2.41
6206.00,2.41
6205.00,2.42
6204.00,2.42
6203.00,2.43
6202.00,2.43
6201.00,2.43
6200.00,2.44
6199.00,2.44
6198.00,2.44
6197.00,2.45
6196.00,2.45
6195.00,2.46
6194.00,2.46
6193.00,2.47
6192.00,2.47
6191.00,2.48
6190.00,2.48
6189.00,2.48
6188.00,2.49
6187.00,2.49
6186.00,2.49
6185.00,2.49
6184.00,2.49
6183.00,2.49
6182.00,2.49
6181.00,2.48
6180.00,2.48
6179.00,2.48
6178.00,2.48
6177.00,2.48
6176.00,2.48
6175.00,2.48
6174.00,2.48
6173.00,2.48
6172.00,2.48
6171.00,2.48
6170.00,2.48
6169.00,2.48
6168.00,2.48
6167.00,2.48
6166.00,2.49
6165.00,2.49
6164.00,2.49
6163.00,2.49
6162.00,2.49
6161.00,2.49
6160.00,2.50
6159.00,2.50
6158.00,2.50
6157.00,2.50
6156.00,2.51
6155.00,2.51
6154.00,2.51
6153.00,2.51
6152.00,2.51
6151.00,2.52
6150.00,2.52
6149.00,2.52
6148.00,2.52
6147.00,2.52
6146.00,2.52
6145.00,2.52
6144.00,2.52
6143.00,2.52
6142.00,2.52
6141.00,2.52
6140.00,2.52
6139.00,2.52
6138.00,2.52
6137.00,2.52
6136.00,2.52
6135.00,2.52
6134.00,2.52
6133.00,2.52
6132.00,2.52
6131.00,2.52
6130.00,2.52
6129.00,2.52
6128.00,2.52
6127.00,2.52
6126.00,2.52
6125.00,2.53
6124.00,2.53
6123.00,2.53
6122.00,2.53
6121.00,2.53
6120.00,2.53
6119.00,2.53
6118.00,2.53
6117.00,2.53
6116.00,2.53
6115.00,2.53
6114.00,2.53
6113.00,2.53
6112.00,2.54
6111.00,2.54
6110.00,2.54
6109.00,2.54
6108.00,2.54
6107.00,2.54
6106.00,2.54
6105.00,2.54
6104.00,2.54
6103.00,2.54
6102.00,2.54
6101.00,2.54
6100.00,2.55
6099.00,2.55
6098.00,2.55
6097.00,2.55
6096.00,2.55
6095.00,2.55
6094.00,2.56
6093.00,2.56
6092.00,2.56
6091.00,2.56
6090.00,2.56
6089.00,2.56
6088.00,2.57
6087.00,2.57
6086.00,2.57
6085.00,2.57
6084.00,2.57
6083.00,2.57
6082.00,2.57
6081.00,2.58
6080.00,2.58
6079.00,2.58
6078.00,2.57
6077.00,2.57
6076.00,2.57
6075.00,2.57
6074.00,2.57
6073.00,2.57
6072.00,2.57
6071.00,2.57
6070.00,2.57
6069.00,2.57
6068.00,2.58
6067.00,2.58
6066.00,2.58
6065.00,2.58
6064.00,2.58
6063.00,2.58
6062.00,2.58
6061.00,2.59
6060.00,2.59
6059.00,2.59
6058.00,2.59
6057.00,2.60
6056.00,2.60
6055.00,2.60
6054.00,2.60
6053.00,2.61
6052.00,2.61
6051.00,2.61
6050.00,2.62
6049.00,2.62
6048.00,2.62
6047.00,2.63
6046.00,2.63
6045.00,2.64
6044.00,2.64
6043.00,2.64
6042.00,2.65
6041.00,2.65
6040.00,2.65
6039.00,2.66
6038.00,2.66
6037.00,2.66
6036.00,2.66
6035.00,2.66
6034.00,2.66
6033.00,2.67
6032.00,2.67
6031.00,2.67
6030.00,2.67
6029.00,2.66
6028.00,2.66
6027.00,2.66
6026.00,2.66
6025.00,2.66
6024.00,2.66
6023.00,2.65
6022.00,2.65
6021.00,2.65
6020.00,2.64
6019.00,2.64
6018.00,2.63
6017.00,2.63
6016.00,2.63
6015.00,2.62
6014.00,2.62
6013.00,2.62
6012.00,2.61
6011.00,2.61
6010.00,2.61
6009.00,2.61
6008.00,2.61
6007.00,2.60
6006.00,2.60
6005.00,2.60
6004.00,2.60
6003.00,2.60
6002.00,2.60
6001.00,2.60
6000.00,2.60
5999.00,2.60
5998.00,2.60
5997.00,2.61
5996.00,2.61
5995.00,2.61
5994.00,2.61
5993.00,2.61
5992.00,2.61
5991.00,2.61
5990.00,2.61
5989.00,2.61
5988.00,2.61
5987.00,2.61
5986.00,2.61
5985.00,2.61
5984.00,2.61
5983.00,2.60
5982.00,2.60
5981.00,2.60
5980.00,2.60
5979.00,2.60
5978.00,2.60
5977.00,2.59
5976.00,2.59
5975.00,2.59
5974.00,2.59
5973.00,2.59
5972.00,2.59
5971.00,2.58
5970.00,2.58
5969.00,2.58
5968.00,2.58
5967.00,2.58
5966.00,2.57
5965.00,2.57
5964.00,2.57
5963.00,2.57
5962.00,2.57
5961.00,2.56
5960.00,2.56
5959.00,2.56
5958.00,2.55
5957.00,2.55
5956.00,2.55
5955.00,2.54
5954.00,2.54
5953.00,2.53
5952.00,2.53
5951.00,2.52
5950.00,2.51
5949.00,2.51
5948.00,2.50
5947.00,2.50
5946.00,2.49
5945.00,2.49
5944.00,2.48
5943.00,2.48
5942.00,2.47
5941.00,2.47
5940.00,2.46
5939.00,2.46
5938.00,2.45
5937.00,2.45
5936.00,2.44
5935.00,2.44
5934.00,2.43
5933.00,2.43
5932.00,2.42
5931.00,2.42
5930.00,2.42
5929.00,2.41
5928.00,2.41
5927.00,2.41
5926.00,2.41
5925.00,2.41
5924.00,2.41
5923.00,2.41
5922.00,2.41
5921.00,2.41
5920.00,2.40
5919.00,2.40
5918.00,2.40
5917.00,2.40
5916.00,2.40
5915.00,2.40
5914.00,2.41
5913.00,2.41
5912.00,2.41
5911.00,2.41
5910.00,2.42
5909.00,2.42
5908.00,2.43
5907.00,2.43
5906.00,2.44
5905.00,2.44
5904.00,2.45
5903.00,2.46
5902.00,2.47
5901.00,2.47
5900.00,2.48
5899.00,2.49
5898.00,2.50
5897.00,2.51
5896.00,2.51
5895.00,2.52
5894.00,2.53
5893.00,2.54
5892.00,2.55
5891.00,2.55
5890.00,2.56
5889.00,2.57
5888.00,2.57
5887.00,2.58
5886.00,2.59
5885.00,2.59
5884.00,2.60
5883.00,2.60
5882.00,2.61
5881.00,2.61
5880.00,2.61
5879.00,2.62
5878.00,2.62
5877.00,2.62
5876.00,2.62
5875.00,2.62
5874.00,2.61
5873.00,2.61
5872.00,2.61
5871.00,2.60
5870.00,2.60
5869.00,2.60
5868.00,2.59
5867.00,2.59
5866.00,2.59
5865.00,2.58
5864.00,2.58
5863.00,2.58
5862.00,2.58
5861.00,2.58
5860.00,2.57
5859.00,2.57
5858.00,2.57
5857.00,2.57
5856.00,2.56
5855.00,2.56
5854.00,2.56
5853.00,2.56
5852.00,2.55
5851.00,2.55
5850.00,2.55
5849.00,2.55
5848.00,2.55
5847.00,2.55
5846.00,2.55
5845.00,2.55
5844.00,2.55
5843.00,2.55
5842.00,2.55
5841.00,2.55
5840.00,2.55
5839.00,2.55
5838.00,2.55
5837.00,2.54
5836.00,2.54
5835.00,2.54
5834.00,2.53
5833.00,2.53
5832.00,2.53
5831.00,2.53
5830.00,2.52
5829.00,2.52
5828.00,2.52
5827.00,2.52
5826.00,2.51
5825.00,2.51
5824.00,2.51
5823.00,2.51
5822.00,2.51
5821.00,2.51
5820.00,2.50
5819.00,2.50
5818.00,2.50
5817.00,2.50
5816.00,2.50
5815.00,2.50
5814.00,2.50
5813.00,2.51
5812.00,2.51
5811.00,2.51
5810.00,2.51
5809.00,2.52
5808.00,2.52
5807.00,2.52
5806.00,2.52
5805.00,2.53
5804.00,2.53
5803.00,2.53
5802.00,2.53
5801.00,2.53
5800.00,2.53
5799.00,2.53
5798.00,2.53
5797.00,2.53
5796.00,2.53
5795.00,2.53
5794.00,2.53
5793.00,2.53
5792.00,2.52
5791.00,2.52
5790.00,2.52
5789.00,2.52
5788.00,2.51
5787.00,2.51
5786.00,2.50
5785.00,2.50
5784.00,2.50
5783.00,2.49
5782.00,2.49
5781.00,2.49
5780.00,2.48
5779.00,2.48
5778.00,2.48
5777.00,2.48
5776.00,2.48
5775.00,2.48
5774.00,2.47
5773.00,2.47
5772.00,2.47
5771.00,2.47
5770.00,2.48
5769.00,2.48
5768.00,2.48
5767.00,2.48
5766.00,2.48
5765.00,2.49
5764.00,2.49
5763.00,2.49
5762.00,2.50
5761.00,2.50
5760.00,2.51
5759.00,2.51
5758.00,2.51
5757.00,2.52
5756.00,2.52
5755.00,2.52
5754.00,2.53
5753.00,2.53
5752.00,2.53
5751.00,2.54
5750.00,2.54
5749.00,2.55
5748.00,2.55
5747.00,2.55
5746.00,2.56
5745.00,2.56
5744.00,2.56
5743.00,2.56
5742.00,2.56
5741.00,2.57
5740.00,2.57
5739.00,2.57
5738.00,2.57
5737.00,2.57
5736.00,2.57
5735.00,2.57
5734.00,2.57
5733.00,2.57
5732.00,2.57
5731.00,2.57
5730.00,2.57
5729.00,2.58
5728.00,2.58
5727.00,2.58
5726.00,2.58
5725.00,2.58
5724.00,2.57
5723.00,2.57
5722.00,2.57
5721.00,2.57
5720.00,2.57
5719.00,2.57
5718.00,2.57
5717.00,2.57
5716.00,2.56
5715.00,2.56
5714.00,2.56
5713.00,2.56
5712.00,2.55
5711.00,2.55
5710.00,2.55
5709.00,2.54
5708.00,2.54
5707.00,2.53
5706.00,2.53
5705.00,2.52
5704.00,2.52
5703.00,2.51
5702.00,2.51
5701.00,2.50
5700.00,2.50
5699.00,2.49
5698.00,2.49
5697.00,2.48
5696.00,2.48
5695.00,2.47
5694.00,2.47
5693.00,2.47
5692.00,2.46
5691.00,2.46
5690.00,2.46
5689.00,2.46
5688.00,2.46
5687.00,2.46
5686.00,2.46
5685.00,2.46
5684.00,2.46
5683.00,2.46
5682.00,2.46
5681.00,2.46
5680.00,2.47
5679.00,2.47
5678.00,2.47
5677.00,2.47
5676.00,2.48
5675.00,2.48
5674.00,2.48
5673.00,2.48
5672.00,2.49
5671.00,2.49
5670.00,2.49
5669.00,2.49
5668.00,2.49
5667.00,2.50
5666.00,2.50
5665.00,2.50
5664.00,2.50
5663.00,2.50
5662.00,2.50
5661.00,2.50
5660.00,2.50
5659.00,2.50
5658.00,2.50
5657.00,2.49
5656.00,2.49
5655.00,2.49
5654.00,2.49
5653.00,2.49
5652.00,2.49
5651.00,2.49
5650.00,2.49
5649.00,2.49
5648.00,2.49
5647.00,2.49
5646.00,2.49
5645.00,2.49
5644.00,2.49
5643.00,2.49
5642.00,2.49
5641.00,2.49
5640.00,2.49
5639.00,2.49
5638.00,2.49
5637.00,2.49
5636.00,2.49
5635.00,2.50
5634.00,2.50
5633.00,2.50
5632.00,2.50
5631.00,2.50
5630.00,2.51
5629.00,2.51
5628.00,2.51
5627.00,2.51
5626.00,2.51
5625.00,2.51
5624.00,2.51
5623.00,2.51
5622.00,2.51
5621.00,2.51
5620.00,2.51
5619.00,2.51
5618.00,2.52
5617.00,2.52
5616.00,2.52
5615.00,2.52
5614.00,2.52
5613.00,2.52
5612.00,2.52
5611.00,2.52
5610.00,2.52
5609.00,2.52
5608.00,2.52
5607.00,2.52
5606.00,2.52
5605.00,2.53
5604.00,2.53
5603.00,2.53
5602.00,2.53
5601.00,2.53
5600.00,2.53
5599.00,2.53
5598.00,2.53
5597.00,2.54
5596.00,2.54
5595.00,2.54
5594.00,2.54
5593.00,2.55
5592.00,2.55
5591.00,2.55
5590.00,2.55
5589.00,2.56
5588.00,2.56
5587.00,2.56
5586.00,2.56
5585.00,2.56
5584.00,2.56
5583.00,2.57
5582.00,2.57
5581.00,2.57
5580.00,2.57
5579.00,2.57
5578.00,2.57
5577.00,2.57
5576.00,2.57
5575.00,2.57
5574.00,2.58
5573.00,2.58
5572.00,2.58
5571.00,2.58
5570.00,2.58
5569.00,2.59
5568.00,2.59
5567.00,2.59
5566.00,2.59
5565.00,2.60
5564.00,2.60
5563.00,2.60
5562.00,2.60
5561.00,2.60
5560.00,2.61
5559.00,2.61
5558.00,2.61
5557.00,2.61
5556.00,2.61
5555.00,2.62
5554.00,2.62
5553.00,2.62
5552.00,2.62
5551.00,2.62
5550.00,2.63
5549.00,2.63
5548.00,2.63
5547.00,2.63
5546.00,2.63
5545.00,2.63
5544.00,2.63
5543.00,2.63
5542.00,2.63
5541.00,2.63
5540.00,2.63
5539.00,2.62
5538.00,2.62
5537.00,2.62
5536.00,2.62
5535.00,2.62
5534.00,2.62
5533.00,2.61
5532.00,2.61
5531.00,2.61
5530.00,2.61
5529.00,2.61
5528.00,2.61
5527.00,2.60
5526.00,2.60
5525.00,2.60
5524.00,2.60
5523.00,2.60
5522.00,2.60
5521.00,2.60
5520.00,2.60
5519.00,2.60
5518.00,2.60
5517.00,2.60
5516.00,2.60
5515.00,2.60
5514.00,2.60
5513.00,2.60
5512.00,2.60
5511.00,2.60
5510.00,2.60
5509.00,2.61
5508.00,2.61
5507.00,2.61
5506.00,2.62
5505.00,2.62
5504.00,2.62
5503.00,2.62
5502.00,2.62
5501.00,2.62
5500.00,2.63
5499.00,2.63
5498.00,2.63
5497.00,2.63
5496.00,2.63
5495.00,2.63
5494.00,2.63
5493.00,2.63
5492.00,2.64
5491.00,2.64
5490.00,2.64
5489.00,2.64
5488.00,2.64
5487.00,2.65
5486.00,2.65
5485.00,2.65
5484.00,2.65
5483.00,2.65
5482.00,2.65
5481.00,2.65
5480.00,2.65
5479.00,2.65
5478.00,2.65
5477.00,2.65
5476.00,2.66
5475.00,2.66
5474.00,2.66
5473.00,2.67
5472.00,2.67
5471.00,2.68
5470.00,2.68
5469.00,2.69
5468.00,2.69
5467.00,2.69
5466.00,2.70
5465.00,2.70
5464.00,2.70
5463.00,2.71
5462.00,2.71
5461.00,2.71
5460.00,2.72
5459.00,2.72
5458.00,2.72
5457.00,2.73
5456.00,2.73
5455.00,2.74
5454.00,2.74
5453.00,2.74
5452.00,2.75
5451.00,2.75
5450.00,2.75
5449.00,2.75
5448.00,2.75
5447.00,2.76
5446.00,2.76
5445.00,2.76
5444.00,2.76
5443.00,2.76
5442.00,2.76
5441.00,2.76
5440.00,2.76
5439.00,2.75
5438.00,2.75
5437.00,2.75
5436.00,2.75
5435.00,2.75
5434.00,2.74
5433.00,2.74
5432.00,2.74
5431.00,2.73
5430.00,2.73
5429.00,2.73
5428.00,2.72
5427.00,2.72
5426.00,2.72
5425.00,2.71
5424.00,2.71
5423.00,2.71
5422.00,2.70
5421.00,2.70
5420.00,2.69
5419.00,2.69
5418.00,2.69
5417.00,2.68
5416.00,2.68
5415.00,2.68
5414.00,2.67
5413.00,2.67
5412.00,2.67
5411.00,2.66
5410.00,2.66
5409.00,2.66
5408.00,2.65
5407.00,2.65
5406.00,2.65
5405.00,2.65
5404.00,2.65
5403.00,2.64
5402.00,2.64
5401.00,2.64
5400.00,2.63
5399.00,2.63
5398.00,2.63
5397.00,2.62
5396.00,2.62
5395.00,2.61
5394.00,2.61
5393.00,2.61
5392.00,2.60
5391.00,2.60
5390.00,2.59
5389.00,2.59
5388.00,2.59
5387.00,2.58
5386.00,2.58
5385.00,2.58
5384.00,2.58
5383.00,2.57
5382.00,2.57
5381.00,2.57
5380.00,2.57
5379.00,2.57
5378.00,2.56
5377.00,2.56
5376.00,2.56
5375.00,2.56
5374.00,2.56
5373.00,2.55
5372.00,2.55
5371.00,2.55
5370.00,2.55
5369.00,2.55
5368.00,2.55
5367.00,2.55
5366.00,2.55
5365.00,2.55
5364.00,2.54
5363.00,2.54
5362.00,2.54
5361.00,2.54
5360.00,2.53
5359.00,2.53
5358.00,2.52
5357.00,2.52
5356.00,2.51
5355.00,2.50
5354.00,2.50
5353.00,2.49
5352.00,2.48
5351.00,2.47
5350.00,2.46
5349.00,2.46
5348.00,2.45
5347.00,2.44
5346.00,2.42
5345.00,2.41
5344.00,2.40
5343.00,2.39
5342.00,2.38
5341.00,2.36
5340.00,2.35
5339.00,2.33
5338.00,2.32
5337.00,2.30
5336.00,2.28
5335.00,2.27
5334.00,2.25
5333.00,2.23
5332.00,2.21
5331.00,2.20
5330.00,2.18
5329.00,2.16
5328.00,2.14
5327.00,2.12
5326.00,2.10
5325.00,2.08
5324.00,2.06
5323.00,2.04
5322.00,2.02
5321.00,2.00
5320.00,1.98
5319.00,1.95
5318.00,1.93
5317.00,1.91
5316.00,1.89
5315.00,1.87
5314.00,1.85
5313.00,1.82
5312.00,1.80
5311.00,1.78
5310.00,1.77
5309.00,1.75
5308.00,1.73
5307.00,1.71
5306.00,1.69
5305.00,1.67
5304.00,1.66
5303.00,1.64
5302.00,1.63
5301.00,1.61
5300.00,1.60
5299.00,1.58
5298.00,1.57
5297.00,1.56
5296.00,1.54
5295.00,1.53
5294.00,1.52
5293.00,1.51
5292.00,1.50
5291.00,1.49
5290.00,1.48
5289.00,1.47
5288.00,1.46
5287.00,1.45
5286.00,1.44
5285.00,1.43
5284.00,1.42
5283.00,1.41
5282.00,1.40
5281.00,1.40
5280.00,1.39
5279.00,1.38
5278.00,1.37
5277.00,1.36
5276.00,1.35
5275.00,1.34
5274.00,1.33
5273.00,1.32
5272.00,1.32
5271.00,1.31
5270.00,1.30
5269.00,1.29
5268.00,1.28
5267.00,1.27
5266.00,1.26
5265.00,1.26
5264.00,1.25
5263.00,1.24
5262.00,1.24
5261.00,1.23
5260.00,1.22
5259.00,1.22
5258.00,1.21
5257.00,1.21
5256.00,1.20
5255.00,1.20
5254.00,1.19
5253.00,1.19
5252.00,1.18
5251.00,1.18
5250.00,1.17
5249.00,1.17
5248.00,1.17
5247.00,1.16
5246.00,1.16
5245.00,1.15
5244.00,1.15
5243.00,1.15
5242.00,1.14
5241.00,1.14
5240.00,1.13
5239.00,1.13
5238.00,1.13
5237.00,1.12
5236.00,1.12
5235.00,1.11
5234.00,1.11
5233.00,1.10
5232.00,1.10
5231.00,1.09
5230.00,1.09
5229.00,1.09
5228.00,1.08
5227.00,1.08
5226.00,1.08
5225.00,1.08
5224.00,1.07
5223.00,1.07
5222.00,1.07
5221.00,1.07
5220.00,1.06
5219.00,1.06
5218.00,1.06
5217.00,1.06
5216.00,1.06
5215.00,1.06
5214.00,1.06
5213.00,1.06
5212.00,1.06
5211.00,1.06
5210.00,1.06
5209.00,1.06
5208.00,1.06
5207.00,1.06
5206.00,1.06
5205.00,1.06
5204.00,1.06
5203.00,1.06
5202.00,1.06
5201.00,1.06
5200.00,1.06
5199.00,1.06
5198.00,1.06
5197.00,1.06
5196.00,1.06
5195.00,1.06
5194.00,1.07
5193.00,1.07
5192.00,1.07
5191.00,1.07
5190.00,1.07
5189.00,1.07
5188.00,1.07
5187.00,1.07
5186.00,1.07
5185.00,1.07
5184.00,1.07
5183.00,1.07
5182.00,1.07
5181.00,1.07
5180.00,1.07
5179.00,1.07
5178.00,1.07
5177.00,1.07
5176.00,1.07
5175.00,1.08
5174.00,1.08
5173.00,1.08
5172.00,1.08
5171.00,1.08
5170.00,1.08
5169.00,1.08
5168.00,1.08
5167.00,1.08
5166.00,1.08
5165.00,1.08
5164.00,1.08
5163.00,1.08
5162.00,1.08
5161.00,1.08
5160.00,1.08
5159.00,1.08
5158.00,1.08
5157.00,1.08
5156.00,1.08
5155.00,1.08
5154.00,1.08
5153.00,1.08
5152.00,1.08
5151.00,1.08
5150.00,1.08
5149.00,1.08
5148.00,1.08
5147.00,1.09
5146.00,1.09
5145.00,1.09
5144.00,1.09
5143.00,1.09
5142.00,1.09
5141.00,1.09
5140.00,1.09
5139.00,1.09
5138.00,1.09
5137.00,1.09
5136.00,1.09
5135.00,1.10
5134.00,1.10
5133.00,1.10
5132.00,1.10
5131.00,1.11
5130.00,1.11
5129.00,1.11
5128.00,1.11
5127.00,1.12
5126.00,1.12
5125.00,1.12
5124.00,1.13
5123.00,1.13
5122.00,1.13
5121.00,1.13
5120.00,1.13
5119.00,1.13
5118.00,1.13
5117.00,1.13
5116.00,1.13
5115.00,1.14
5114.00,1.14
5113.00,1.14
5112.00,1.14
5111.00,1.14
5110.00,1.14
5109.00,1.15
5108.00,1.15
5107.00,1.15
5106.00,1.15
5105.00,1.15
5104.00,1.15
5103.00,1.15
5102.00,1.14
5101.00,1.14
5100.00,1.14
5099.00,1.14
5098.00,1.15
5097.00,1.15
5096.00,1.15
5095.00,1.15
5094.00,1.15
5093.00,1.15
5092.00,1.15
5091.00,1.16
5090.00,1.16
5089.00,1.16
5088.00,1.16
5087.00,1.16
5086.00,1.16
5085.00,1.16
5084.00,1.16
5083.00,1.16
5082.00,1.17
5081.00,1.17
5080.00,1.17
5079.00,1.17
5078.00,1.18
5077.00,1.18
5076.00,1.19
5075.00,1.19
5074.00,1.19
5073.00,1.19
5072.00,1.20
5071.00,1.20
5070.00,1.20
5069.00,1.21
5068.00,1.21
5067.00,1.21
5066.00,1.22
5065.00,1.22
5064.00,1.23
5063.00,1.23
5062.00,1.24
5061.00,1.25
5060.00,1.25
5059.00,1.26
5058.00,1.26
5057.00,1.27
5056.00,1.27
5055.00,1.28
5054.00,1.28
5053.00,1.29
5052.00,1.29
5051.00,1.30
5050.00,1.30
5049.00,1.31
5048.00,1.31
5047.00,1.32
5046.00,1.33
5045.00,1.33
5044.00,1.34
5043.00,1.34
5042.00,1.35
5041.00,1.35
5040.00,1.36
5039.00,1.36
5038.00,1.37
5037.00,1.37
5036.00,1.38
5035.00,1.38
5034.00,1.38
5033.00,1.39
5032.00,1.39
5031.00,1.39
5030.00,1.40
5029.00,1.40
5028.00,1.40
5027.00,1.41
5026.00,1.41
5025.00,1.41
5024.00,1.41
5023.00,1.42
5022.00,1.42
5021.00,1.42
5020.00,1.42
5019.00,1.42
5018.00,1.42
5017.00,1.42
5016.00,1.42
5015.00,1.42
5014.00,1.42
5013.00,1.42
5012.00,1.42
5011.00,1.42
5010.00,1.42
5009.00,1.42
5008.00,1.42
5007.00,1.42
5006.00,1.42
5005.00,1.42
5004.00,1.42
5003.00,1.42
5002.00,1.42
5001.00,1.42
5000.00,1.42
4999.00,1.42
4998.00,1.43
4997.00,1.43
4996.00,1.43
4995.00,1.43
4994.00,1.43
4993.00,1.43
4992.00,1.44
4991.00,1.44
4990.00,1.44
4989.00,1.45
4988.00,1.45
4987.00,1.46
4986.00,1.47
4985.00,1.47
4984.00,1.48
4983.00,1.49
4982.00,1.50
4981.00,1.50
4980.00,1.51
4979.00,1.52
4978.00,1.53
4977.00,1.54
4976.00,1.54
4975.00,1.55
4974.00,1.56
4973.00,1.57
4972.00,1.57
4971.00,1.58
4970.00,1.59
4969.00,1.60
4968.00,1.61
4967.00,1.62
4966.00,1.62
4965.00,1.63
4964.00,1.63
4963.00,1.64
4962.00,1.64
4961.00,1.65
4960.00,1.65
4959.00,1.65
4958.00,1.65
4957.00,1.66
4956.00,1.66
4955.00,1.66
4954.00,1.66
4953.00,1.66
4952.00,1.66
4951.00,1.66
4950.00,1.66
4949.00,1.66
4948.00,1.66
4947.00,1.66
4946.00,1.67
4945.00,1.67
4944.00,1.67
4943.00,1.67
4942.00,1.67
4941.00,1.67
4940.00,1.67
4939.00,1.67
4938.00,1.68
4937.00,1.68
4936.00,1.68
4935.00,1.68
4934.00,1.69
4933.00,1.69
4932.00,1.69
4931.00,1.70
4930.00,1.70
4929.00,1.70
4928.00,1.71
4927.00,1.71
4926.00,1.72
4925.00,1.72
4924.00,1.72
4923.00,1.73
4922.00,1.73
4921.00,1.74
4920.00,1.74
4919.00,1.74
4918.00,1.74
4917.00,1.75
4916.00,1.75
4915.00,1.75
4914.00,1.75
4913.00,1.76
4912.00,1.76
4911.00,1.76
4910.00,1.76
4909.00,1.76
4908.00,1.77
4907.00,1.77
4906.00,1.77
4905.00,1.78
4904.00,1.78
4903.00,1.78
4902.00,1.79
4901.00,1.79
4900.00,1.79
4899.00,1.80
4898.00,1.80
4897.00,1.80
4896.00,1.81
4895.00,1.81
4894.00,1.81
4893.00,1.81
4892.00,1.82
4891.00,1.82
4890.00,1.82
4889.00,1.82
4888.00,1.83
4887.00,1.83
4886.00,1.83
4885.00,1.83
4884.00,1.83
4883.00,1.84
4882.00,1.84
4881.00,1.84
4880.00,1.84
4879.00,1.84
4878.00,1.84
4877.00,1.85
4876.00,1.85
4875.00,1.85
4874.00,1.85
4873.00,1.85
4872.00,1.85
4871.00,1.85
4870.00,1.85
4869.00,1.85
4868.00,1.86
4867.00,1.86
4866.00,1.86
4865.00,1.86
4864.00,1.87
4863.00,1.87
4862.00,1.88
4861.00,1.88
4860.00,1.88
4859.00,1.89
4858.00,1.90
4857.00,1.90
4856.00,1.91
4855.00,1.91
4854.00,1.92
4853.00,1.92
4852.00,1.93
4851.00,1.94
4850.00,1.94
4849.00,1.95
4848.00,1.95
4847.00,1.96
4846.00,1.96
4845.00,1.97
4844.00,1.97
4843.00,1.98
4842.00,1.98
4841.00,1.99
4840.00,1.99
4839.00,1.99
4838.00,1.99
4837.00,2.00
4836.00,2.00
4835.00,2.00
4834.00,2.00
4833.00,2.00
4832.00,2.00
4831.00,2.00
4830.00,2.01
4829.00,2.01
4828.00,2.01
4827.00,2.01
4826.00,2.01
4825.00,2.02
4824.00,2.02
4823.00,2.02
4822.00,2.03
4821.00,2.03
4820.00,2.03
4819.00,2.04
4818.00,2.04
4817.00,2.04
4816.00,2.05
4815.00,2.05
4814.00,2.06
4813.00,2.06
4812.00,2.07
4811.00,2.08
4810.00,2.09
4809.00,2.10
4808.00,2.10
4807.00,2.11
4806.00,2.12
4805.00,2.12
4804.00,2.13
4803.00,2.14
4802.00,2.14
4801.00,2.15
4800.00,2.15
4799.00,2.16
4798.00,2.16
4797.00,2.17
4796.00,2.17
4795.00,2.18
4794.00,2.19
4793.00,2.19
4792.00,2.20
4791.00,2.20
4790.00,2.21
4789.00,2.21
4788.00,2.22
4787.00,2.22
4786.00,2.22
4785.00,2.23
4784.00,2.23
4783.00,2.24
4782.00,2.24
4781.00,2.25
4780.00,2.25
4779.00,2.26
4778.00,2.26
4777.00,2.27
4776.00,2.28
4775.00,2.28
4774.00,2.29
4773.00,2.30
4772.00,2.30
4771.00,2.31
4770.00,2.31
4769.00,2.32
4768.00,2.33
4767.00,2.33
4766.00,2.34
4765.00,2.34
4764.00,2.34
4763.00,2.35
4762.00,2.35
4761.00,2.35
4760.00,2.36
4759.00,2.36
4758.00,2.36
4757.00,2.36
4756.00,2.36
4755.00,2.36
4754.00,2.36
4753.00,2.37
4752.00,2.37
4751.00,2.37
4750.00,2.37
4749.00,2.37
4748.00,2.37
4747.00,2.37
4746.00,2.37
4745.00,2.37
4744.00,2.37
4743.00,2.37
4742.00,2.36
4741.00,2.36
4740.00,2.36
4739.00,2.36
4738.00,2.36
4737.00,2.36
4736.00,2.37
4735.00,2.37
4734.00,2.37
4733.00,2.37
4732.00,2.38
4731.00,2.38
4730.00,2.38
4729.00,2.38
4728.00,2.38
4727.00,2.38
4726.00,2.39
4725.00,2.39
4724.00,2.39
4723.00,2.39
4722.00,2.39
4721.00,2.39
4720.00,2.39
4719.00,2.39
4718.00,2.39
4717.00,2.40
4716.00,2.40
4715.00,2.40
4714.00,2.40
4713.00,2.41
4712.00,2.41
4711.00,2.41
4710.00,2.41
4709.00,2.41
4708.00,2.41
4707.00,2.42
4706.00,2.42
4705.00,2.42
4704.00,2.43
4703.00,2.43
4702.00,2.44
4701.00,2.44
4700.00,2.45
4699.00,2.46
4698.00,2.46
4697.00,2.47
4696.00,2.48
4695.00,2.49
4694.00,2.50
4693.00,2.51
4692.00,2.52
4691.00,2.52
4690.00,2.53
4689.00,2.54
4688.00,2.55
4687.00,2.56
4686.00,2.56
4685.00,2.57
4684.00,2.58
4683.00,2.59
4682.00,2.60
4681.00,2.61
4680.00,2.62
4679.00,2.62
4678.00,2.63
4677.00,2.63
4676.00,2.64
4675.00,2.64
4674.00,2.65
4673.00,2.65
4672.00,2.65
4671.00,2.65
4670.00,2.66
4669.00,2.66
4668.00,2.66
4667.00,2.66
4666.00,2.66
4665.00,2.66
4664.00,2.66
4663.00,2.67
4662.00,2.67
4661.00,2.67
4660.00,2.67
4659.00,2.67
4658.00,2.67
4657.00,2.67
4656.00,2.67
4655.00,2.67
4654.00,2.67
4653.00,2.68
4652.00,2.68
4651.00,2.68
4650.00,2.68
4649.00,2.68
4648.00,2.68
4647.00,2.69
4646.00,2.69
4645.00,2.69
4644.00,2.69
4643.00,2.69
4642.00,2.69
4641.00,2.70
4640.00,2.70
4639.00,2.70
4638.00,2.70
4637.00,2.70
4636.00,2.70
4635.00,2.70
4634.00,2.70
4633.00,2.70
4632.00,2.70
4631.00,2.70
4630.00,2.71
4629.00,2.71
4628.00,2.71
4627.00,2.71
4626.00,2.71
4625.00,2.71
4624.00,2.71
4623.00,2.71
4622.00,2.71
4621.00,2.71
4620.00,2.71
4619.00,2.71
4618.00,2.71
4617.00,2.71
4616.00,2.71
4615.00,2.71
4614.00,2.71
4613.00,2.72
4612.00,2.72
4611.00,2.72
4610.00,2.72
4609.00,2.72
4608.00,2.72
4607.00,2.72
4606.00,2.72
4605.00,2.71
4604.00,2.71
4603.00,2.71
4602.00,2.71
4601.00,2.71
4600.00,2.71
4599.00,2.71
4598.00,2.71
4597.00,2.71
4596.00,2.71
4595.00,2.71
4594.00,2.71
4593.00,2.71
4592.00,2.71
4591.00,2.71
4590.00,2.71
4589.00,2.71
4588.00,2.71
4587.00,2.71
4586.00,2.71
4585.00,2.71
4584.00,2.71
4583.00,2.71
4582.00,2.71
4581.00,2.71
4580.00,2.71
4579.00,2.72
4578.00,2.72
4577.00,2.72
4576.00,2.72
4575.00,2.72
4574.00,2.73
4573.00,2.73
4572.00,2.73
4571.00,2.73
4570.00,2.73
4569.00,2.73
4568.00,2.73
4567.00,2.73
4566.00,2.72
4565.00,2.72
4564.00,2.72
4563.00,2.72
4562.00,2.72
4561.00,2.73
4560.00,2.73
4559.00,2.73
4558.00,2.73
4557.00,2.73
4556.00,2.73
4555.00,2.74
4554.00,2.74
4553.00,2.74
4552.00,2.74
4551.00,2.74
4550.00,2.74
4549.00,2.74
4548.00,2.74
4547.00,2.74
4546.00,2.74
4545.00,2.74
4544.00,2.74
4543.00,2.74
4542.00,2.74
4541.00,2.75
4540.00,2.75
4539.00,2.75
4538.00,2.75
4537.00,2.76
4536.00,2.76
4535.00,2.76
4534.00,2.76
4533.00,2.76
4532.00,2.76
4531.00,2.76
4530.00,2.76
4529.00,2.76
4528.00,2.76
4527.00,2.76
4526.00,2.76
4525.00,2.76
4524.00,2.76
4523.00,2.76
4522.00,2.76
4521.00,2.76
4520.00,2.76
4519.00,2.76
4518.00,2.76
4517.00,2.76
4516.00,2.76
4515.00,2.76
4514.00,2.75
4513.00,2.75
4512.00,2.75
4511.00,2.75
4510.00,2.74
4509.00,2.74
4508.00,2.74
4507.00,2.73
4506.00,2.73
4505.00,2.73
4504.00,2.73
4503.00,2.73
4502.00,2.72
4501.00,2.72
4500.00,2.72
4499.00,2.72
4498.00,2.72
4497.00,2.72
4496.00,2.72
4495.00,2.72
4494.00,2.73
4493.00,2.73
4492.00,2.73
4491.00,2.73
4490.00,2.73
4489.00,2.73
4488.00,2.73
4487.00,2.73
4486.00,2.74
4485.00,2.74
4484.00,2.74
4483.00,2.74
4482.00,2.74
4481.00,2.74
4480.00,2.74
4479.00,2.74
4478.00,2.74
4477.00,2.74
4476.00,2.74
4475.00,2.74
4474.00,2.73
4473.00,2.73
4472.00,2.73
4471.00,2.72
4470.00,2.72
4469.00,2.71
4468.00,2.71
4467.00,2.70
4466.00,2.70
4465.00,2.69
4464.00,2.69
4463.00,2.68
4462.00,2.67
4461.00,2.67
4460.00,2.66
4459.00,2.66
4458.00,2.65
4457.00,2.64
4456.00,2.64
4455.00,2.63
4454.00,2.63
4453.00,2.62
4452.00,2.62
4451.00,2.61
4450.00,2.60
4449.00,2.60
4448.00,2.59
4447.00,2.58
4446.00,2.58
4445.00,2.57
4444.00,2.56
4443.00,2.56
4442.00,2.55
4441.00,2.54
4440.00,2.53
4439.00,2.53
4438.00,2.52
4437.00,2.51
4436.00,2.50
4435.00,2.49
4434.00,2.48
4433.00,2.47
4432.00,2.46
4431.00,2.45
4430.00,2.44
4429.00,2.43
4428.00,2.42
4427.00,2.41
4426.00,2.40
4425.00,2.39
4424.00,2.38
4423.00,2.37
4422.00,2.36
4421.00,2.35
4420.00,2.34
4419.00,2.34
4418.00,2.33
4417.00,2.32
4416.00,2.32
4415.00,2.31
4414.00,2.31
4413.00,2.30
4412.00,2.30
4411.00,2.30
4410.00,2.30
4409.00,2.30
4408.00,2.30
4407.00,2.30
4406.00,2.30
4405.00,2.30
4404.00,2.30
4403.00,2.30
4402.00,2.30
4401.00,2.31
4400.00,2.31
4399.00,2.32
4398.00,2.33
4397.00,2.34
4396.00,2.34
4395.00,2.35
4394.00,2.36
4393.00,2.37
4392.00,2.38
4391.00,2.39
4390.00,2.40
4389.00,2.41
4388.00,2.42
4387.00,2.43
4386.00,2.44
4385.00,2.44
4384.00,2.45
4383.00,2.46
4382.00,2.46
4381.00,2.47
4380.00,2.48
4379.00,2.48
4378.00,2.48
4377.00,2.49
4376.00,2.49
4375.00,2.49
4374.00,2.49
4373.00,2.49
4372.00,2.48
4371.00,2.48
4370.00,2.47
4369.00,2.46
4368.00,2.46
4367.00,2.45
4366.00,2.44
4365.00,2.43
4364.00,2.41
4363.00,2.40
4362.00,2.39
4361.00,2.38
4360.00,2.37
4359.00,2.36
4358.00,2.35
4357.00,2.34
4356.00,2.33
4355.00,2.32
4354.00,2.31
4353.00,2.30
4352.00,2.29
4351.00,2.28
4350.00,2.27
4349.00,2.27
4348.00,2.26
4347.00,2.26
4346.00,2.25
4345.00,2.25
4344.00,2.25
4343.00,2.25
4342.00,2.25
4341.00,2.26
4340.00,2.26
4339.00,2.26
4338.00,2.27
4337.00,2.27
4336.00,2.28
4335.00,2.29
4334.00,2.30
4333.00,2.31
4332.00,2.32
4331.00,2.33
4330.00,2.33
4329.00,2.34
4328.00,2.35
4327.00,2.37
4326.00,2.38
4325.00,2.39
4324.00,2.40
4323.00,2.41
4322.00,2.42
4321.00,2.43
4320.00,2.44
4319.00,2.45
4318.00,2.46
4317.00,2.47
4316.00,2.48
4315.00,2.49
4314.00,2.50
4313.00,2.51
4312.00,2.52
4311.00,2.53
4310.00,2.54
4309.00,2.55
4308.00,2.56
4307.00,2.56
4306.00,2.57
4305.00,2.58
4304.00,2.59
4303.00,2.59
4302.00,2.60
4301.00,2.61
4300.00,2.61
4299.00,2.62
4298.00,2.63
4297.00,2.64
4296.00,2.64
4295.00,2.65
4294.00,2.66
4293.00,2.66
4292.00,2.67
4291.00,2.67
4290.00,2.68
4289.00,2.68
4288.00,2.69
4287.00,2.69
4286.00,2.69
4285.00,2.69
4284.00,2.70
4283.00,2.70
4282.00,2.70
4281.00,2.70
4280.00,2.70
4279.00,2.70
4278.00,2.69
4277.00,2.69
4276.00,2.69
4275.00,2.69
4274.00,2.69
4273.00,2.68
4272.00,2.68
4271.00,2.67
4270.00,2.67
4269.00,2.66
4268.00,2.65
4267.00,2.64
4266.00,2.64
4265.00,2.63
4264.00,2.62
4263.00,2.61
4262.00,2.60
4261.00,2.59
4260.00,2.58
4259.00,2.58
4258.00,2.57
4257.00,2.56
4256.00,2.56
4255.00,2.56
4254.00,2.55
4253.00,2.55
4252.00,2.55
4251.00,2.55
4250.00,2.55
4249.00,2.54
4248.00,2.54
4247.00,2.54
4246.00,2.54
4245.00,2.54
4244.00,2.53
4243.00,2.53
4242.00,2.54
4241.00,2.54
4240.00,2.55
4239.00,2.55
4238.00,2.56
4237.00,2.57
4236.00,2.57
4235.00,2.58
4234.00,2.59
4233.00,2.59
4232.00,2.60
4231.00,2.60
4230.00,2.61
4229.00,2.61
4228.00,2.61
4227.00,2.62
4226.00,2.62
4225.00,2.62
4224.00,2.62
4223.00,2.63
4222.00,2.63
4221.00,2.64
4220.00,2.64
4219.00,2.64
4218.00,2.65
4217.00,2.65
4216.00,2.66
4215.00,2.66
4214.00,2.66
4213.00,2.66
4212.00,2.67
4211.00,2.66
4210.00,2.66
4209.00,2.66
4208.00,2.66
4207.00,2.65
4206.00,2.65
4205.00,2.65
4204.00,2.64
4203.00,2.64
4202.00,2.64
4201.00,2.63
4200.00,2.63
4199.00,2.63
4198.00,2.62
4197.00,2.62
4196.00,2.61
4195.00,2.61
4194.00,2.60
4193.00,2.60
4192.00,2.59
4191.00,2.59
4190.00,2.59
4189.00,2.58
4188.00,2.58
4187.00,2.57
4186.00,2.57
4185.00,2.57
4184.00,2.57
4183.00,2.57
4182.00,2.56
4181.00,2.56
4180.00,2.56
4179.00,2.57
4178.00,2.57
4177.00,2.57
4176.00,2.57
4175.00,2.57
4174.00,2.58
4173.00,2.58
4172.00,2.59
4171.00,2.59
4170.00,2.60
4169.00,2.60
4168.00,2.60
4167.00,2.61
4166.00,2.61
4165.00,2.61
4164.00,2.62
4163.00,2.62
4162.00,2.62
4161.00,2.62
4160.00,2.62
4159.00,2.62
4158.00,2.62
4157.00,2.62
4156.00,2.62
4155.00,2.62
4154.00,2.61
4153.00,2.61
4152.00,2.61
4151.00,2.61
4150.00,2.61
4149.00,2.61
4148.00,2.60
4147.00,2.60
4146.00,2.59
4145.00,2.59
4144.00,2.58
4143.00,2.58
4142.00,2.57
4141.00,2.56
4140.00,2.56
4139.00,2.55
4138.00,2.54
4137.00,2.54
4136.00,2.54
4135.00,2.53
4134.00,2.53
4133.00,2.53
4132.00,2.53
4131.00,2.52
4130.00,2.52
4129.00,2.52
4128.00,2.52
4127.00,2.51
4126.00,2.51
4125.00,2.50
4124.00,2.50
4123.00,2.50
4122.00,2.49
4121.00,2.49
4120.00,2.49
4119.00,2.49
4118.00,2.49
4117.00,2.49
4116.00,2.49
4115.00,2.49
4114.00,2.49
4113.00,2.49
4112.00,2.49
4111.00,2.48
4110.00,2.48
4109.00,2.48
4108.00,2.48
4107.00,2.48
4106.00,2.48
4105.00,2.48
4104.00,2.48
4103.00,2.48
4102.00,2.49
4101.00,2.49
4100.00,2.49
4099.00,2.49
4098.00,2.49
4097.00,2.50
4096.00,2.50
4095.00,2.50
4094.00,2.50
4093.00,2.50
4092.00,2.50
4091.00,2.51
4090.00,2.51
4089.00,2.51
4088.00,2.51
4087.00,2.51
4086.00,2.51
4085.00,2.51
4084.00,2.51
4083.00,2.51
4082.00,2.51
4081.00,2.51
4080.00,2.50
4079.00,2.50
4078.00,2.49
4077.00,2.48
4076.00,2.48
4075.00,2.47
4074.00,2.46
4073.00,2.45
4072.00,2.44
4071.00,2.43
4070.00,2.42
4069.00,2.41
4068.00,2.40
4067.00,2.39
4066.00,2.39
4065.00,2.38
4064.00,2.37
4063.00,2.36
4062.00,2.34
4061.00,2.33
4060.00,2.32
4059.00,2.31
4058.00,2.30
4057.00,2.29
4056.00,2.28
4055.00,2.27
4054.00,2.27
4053.00,2.26
4052.00,2.26
4051.00,2.25
4050.00,2.25
4049.00,2.26
4048.00,2.26
4047.00,2.26
4046.00,2.27
4045.00,2.27
4044.00,2.27
4043.00,2.28
4042.00,2.28
4041.00,2.28
4040.00,2.28
4039.00,2.29
4038.00,2.29
4037.00,2.29
4036.00,2.30
4035.00,2.31
4034.00,2.32
4033.00,2.33
4032.00,2.34
4031.00,2.36
4030.00,2.37
4029.00,2.38
4028.00,2.39
4027.00,2.40
4026.00,2.41
4025.00,2.43
4024.00,2.44
4023.00,2.45
4022.00,2.46
4021.00,2.47
4020.00,2.48
4019.00,2.50
4018.00,2.51
4017.00,2.53
4016.00,2.54
4015.00,2.56
4014.00,2.58
4013.00,2.61
4012.00,2.63
4011.00,2.65
4010.00,2.68
4009.00,2.70
4008.00,2.73
4007.00,2.75
4006.00,2.78
4005.00,2.80
4004.00,2.82
4003.00,2.85
4002.00,2.88
4001.00,2.90
4000.00,2.93
