创建为新数据集,样品 1159 用户 Administrator 日期 星期二, 七月 30 2019
cm-1,%T
10000.00,2.48
9999.00,2.47
9998.00,2.46
9997.00,2.44
9996.00,2.43
9995.00,2.42
9994.00,2.40
9993.00,2.38
9992.00,2.36
9991.00,2.34
9990.00,2.32
9989.00,2.31
9988.00,2.30
9987.00,2.29
9986.00,2.29
9985.00,2.29
9984.00,2.29
9983.00,2.30
9982.00,2.31
9981.00,2.33
9980.00,2.35
9979.00,2.36
9978.00,2.38
9977.00,2.39
9976.00,2.39
9975.00,2.40
9974.00,2.40
9973.00,2.39
9972.00,2.39
9971.00,2.38
9970.00,2.37
9969.00,2.35
9968.00,2.34
9967.00,2.33
9966.00,2.32
9965.00,2.32
9964.00,2.31
9963.00,2.31
9962.00,2.30
9961.00,2.29
9960.00,2.28
9959.00,2.27
9958.00,2.25
9957.00,2.23
9956.00,2.21
9955.00,2.19
9954.00,2.16
9953.00,2.13
9952.00,2.10
9951.00,2.07
9950.00,2.04
9949.00,2.01
9948.00,1.99
9947.00,1.97
9946.00,1.95
9945.00,1.94
9944.00,1.93
9943.00,1.92
9942.00,1.91
9941.00,1.91
9940.00,1.90
9939.00,1.89
9938.00,1.89
9937.00,1.88
9936.00,1.88
9935.00,1.88
9934.00,1.88
9933.00,1.88
9932.00,1.89
9931.00,1.89
9930.00,1.90
9929.00,1.92
9928.00,1.93
9927.00,1.95
9926.00,1.97
9925.00,1.99
9924.00,2.01
9923.00,2.03
9922.00,2.05
9921.00,2.07
9920.00,2.08
9919.00,2.09
9918.00,2.10
9917.00,2.11
9916.00,2.11
9915.00,2.12
9914.00,2.12
9913.00,2.12
9912.00,2.12
9911.00,2.11
9910.00,2.11
9909.00,2.10
9908.00,2.08
9907.00,2.07
9906.00,2.05
9905.00,2.03
9904.00,2.00
9903.00,1.98
9902.00,1.95
9901.00,1.93
9900.00,1.90
9899.00,1.87
9898.00,1.84
9897.00,1.82
9896.00,1.80
9895.00,1.77
9894.00,1.75
9893.00,1.73
9892.00,1.71
9891.00,1.69
9890.00,1.67
9889.00,1.66
9888.00,1.64
9887.00,1.62
9886.00,1.61
9885.00,1.59
9884.00,1.57
9883.00,1.56
9882.00,1.55
9881.00,1.53
9880.00,1.52
9879.00,1.51
9878.00,1.50
9877.00,1.50
9876.00,1.49
9875.00,1.49
9874.00,1.48
9873.00,1.48
9872.00,1.48
9871.00,1.47
9870.00,1.47
9869.00,1.46
9868.00,1.46
9867.00,1.45
9866.00,1.45
9865.00,1.44
9864.00,1.44
9863.00,1.44
9862.00,1.43
9861.00,1.43
9860.00,1.43
9859.00,1.44
9858.00,1.44
9857.00,1.45
9856.00,1.46
9855.00,1.47
9854.00,1.48
9853.00,1.50
9852.00,1.51
9851.00,1.53
9850.00,1.54
9849.00,1.55
9848.00,1.56
9847.00,1.57
9846.00,1.59
9845.00,1.60
9844.00,1.61
9843.00,1.61
9842.00,1.62
9841.00,1.63
9840.00,1.64
9839.00,1.65
9838.00,1.66
9837.00,1.67
9836.00,1.68
9835.00,1.68
9834.00,1.69
9833.00,1.70
9832.00,1.70
9831.00,1.70
9830.00,1.70
9829.00,1.70
9828.00,1.70
9827.00,1.69
9826.00,1.69
9825.00,1.68
9824.00,1.67
9823.00,1.67
9822.00,1.67
9821.00,1.67
9820.00,1.67
9819.00,1.67
9818.00,1.68
9817.00,1.69
9816.00,1.69
9815.00,1.70
9814.00,1.71
9813.00,1.72
9812.00,1.72
9811.00,1.73
9810.00,1.74
9809.00,1.75
9808.00,1.75
9807.00,1.76
9806.00,1.76
9805.00,1.77
9804.00,1.77
9803.00,1.77
9802.00,1.78
9801.00,1.78
9800.00,1.78
9799.00,1.79
9798.00,1.79
9797.00,1.78
9796.00,1.78
9795.00,1.77
9794.00,1.76
9793.00,1.75
9792.00,1.73
9791.00,1.72
9790.00,1.70
9789.00,1.68
9788.00,1.66
9787.00,1.64
9786.00,1.62
9785.00,1.60
9784.00,1.58
9783.00,1.57
9782.00,1.56
9781.00,1.55
9780.00,1.54
9779.00,1.54
9778.00,1.53
9777.00,1.54
9776.00,1.54
9775.00,1.54
9774.00,1.55
9773.00,1.55
9772.00,1.56
9771.00,1.57
9770.00,1.58
9769.00,1.59
9768.00,1.60
9767.00,1.61
9766.00,1.62
9765.00,1.63
9764.00,1.64
9763.00,1.66
9762.00,1.67
9761.00,1.68
9760.00,1.69
9759.00,1.70
9758.00,1.71
9757.00,1.72
9756.00,1.72
9755.00,1.73
9754.00,1.73
9753.00,1.72
9752.00,1.72
9751.00,1.71
9750.00,1.71
9749.00,1.70
9748.00,1.69
9747.00,1.68
9746.00,1.67
9745.00,1.66
9744.00,1.66
9743.00,1.65
9742.00,1.65
9741.00,1.65
9740.00,1.65
9739.00,1.65
9738.00,1.65
9737.00,1.65
9736.00,1.65
9735.00,1.66
9734.00,1.66
9733.00,1.66
9732.00,1.67
9731.00,1.67
9730.00,1.68
9729.00,1.68
9728.00,1.69
9727.00,1.69
9726.00,1.69
9725.00,1.69
9724.00,1.69
9723.00,1.69
9722.00,1.69
9721.00,1.69
9720.00,1.69
9719.00,1.68
9718.00,1.68
9717.00,1.67
9716.00,1.67
9715.00,1.66
9714.00,1.66
9713.00,1.65
9712.00,1.65
9711.00,1.65
9710.00,1.64
9709.00,1.64
9708.00,1.64
9707.00,1.64
9706.00,1.64
9705.00,1.64
9704.00,1.64
9703.00,1.65
9702.00,1.65
9701.00,1.66
9700.00,1.66
9699.00,1.67
9698.00,1.68
9697.00,1.69
9696.00,1.70
9695.00,1.71
9694.00,1.72
9693.00,1.73
9692.00,1.74
9691.00,1.75
9690.00,1.76
9689.00,1.76
9688.00,1.76
9687.00,1.77
9686.00,1.77
9685.00,1.77
9684.00,1.77
9683.00,1.77
9682.00,1.77
9681.00,1.76
9680.00,1.76
9679.00,1.76
9678.00,1.75
9677.00,1.75
9676.00,1.74
9675.00,1.73
9674.00,1.72
9673.00,1.71
9672.00,1.70
9671.00,1.69
9670.00,1.68
9669.00,1.67
9668.00,1.67
9667.00,1.66
9666.00,1.65
9665.00,1.65
9664.00,1.65
9663.00,1.65
9662.00,1.66
9661.00,1.67
9660.00,1.68
9659.00,1.69
9658.00,1.70
9657.00,1.71
9656.00,1.71
9655.00,1.72
9654.00,1.73
9653.00,1.74
9652.00,1.74
9651.00,1.75
9650.00,1.75
9649.00,1.76
9648.00,1.77
9647.00,1.78
9646.00,1.79
9645.00,1.80
9644.00,1.81
9643.00,1.83
9642.00,1.84
9641.00,1.85
9640.00,1.86
9639.00,1.87
9638.00,1.87
9637.00,1.87
9636.00,1.87
9635.00,1.87
9634.00,1.87
9633.00,1.86
9632.00,1.86
9631.00,1.85
9630.00,1.85
9629.00,1.84
9628.00,1.84
9627.00,1.83
9626.00,1.83
9625.00,1.82
9624.00,1.81
9623.00,1.81
9622.00,1.80
9621.00,1.79
9620.00,1.78
9619.00,1.77
9618.00,1.76
9617.00,1.75
9616.00,1.74
9615.00,1.73
9614.00,1.72
9613.00,1.71
9612.00,1.69
9611.00,1.68
9610.00,1.67
9609.00,1.67
9608.00,1.66
9607.00,1.65
9606.00,1.64
9605.00,1.63
9604.00,1.62
9603.00,1.62
9602.00,1.61
9601.00,1.60
9600.00,1.59
9599.00,1.58
9598.00,1.57
9597.00,1.56
9596.00,1.55
9595.00,1.54
9594.00,1.54
9593.00,1.53
9592.00,1.53
9591.00,1.53
9590.00,1.53
9589.00,1.53
9588.00,1.53
9587.00,1.54
9586.00,1.55
9585.00,1.55
9584.00,1.56
9583.00,1.56
9582.00,1.57
9581.00,1.58
9580.00,1.59
9579.00,1.60
9578.00,1.60
9577.00,1.61
9576.00,1.62
9575.00,1.63
9574.00,1.64
9573.00,1.65
9572.00,1.66
9571.00,1.68
9570.00,1.69
9569.00,1.70
9568.00,1.72
9567.00,1.73
9566.00,1.74
9565.00,1.76
9564.00,1.77
9563.00,1.78
9562.00,1.79
9561.00,1.79
9560.00,1.80
9559.00,1.80
9558.00,1.81
9557.00,1.81
9556.00,1.82
9555.00,1.82
9554.00,1.83
9553.00,1.84
9552.00,1.85
9551.00,1.86
9550.00,1.87
9549.00,1.88
9548.00,1.90
9547.00,1.91
9546.00,1.93
9545.00,1.94
9544.00,1.96
9543.00,1.97
9542.00,1.99
9541.00,1.99
9540.00,2.00
9539.00,2.01
9538.00,2.01
9537.00,2.02
9536.00,2.02
9535.00,2.02
9534.00,2.02
9533.00,2.03
9532.00,2.03
9531.00,2.03
9530.00,2.03
9529.00,2.03
9528.00,2.03
9527.00,2.03
9526.00,2.03
9525.00,2.03
9524.00,2.02
9523.00,2.02
9522.00,2.01
9521.00,2.00
9520.00,1.99
9519.00,1.98
9518.00,1.96
9517.00,1.95
9516.00,1.95
9515.00,1.94
9514.00,1.93
9513.00,1.93
9512.00,1.93
9511.00,1.93
9510.00,1.93
9509.00,1.93
9508.00,1.93
9507.00,1.94
9506.00,1.94
9505.00,1.95
9504.00,1.95
9503.00,1.96
9502.00,1.96
9501.00,1.96
9500.00,1.97
9499.00,1.97
9498.00,1.97
9497.00,1.98
9496.00,1.98
9495.00,1.98
9494.00,1.98
9493.00,1.98
9492.00,1.98
9491.00,1.98
9490.00,1.97
9489.00,1.97
9488.00,1.96
9487.00,1.96
9486.00,1.95
9485.00,1.94
9484.00,1.94
9483.00,1.93
9482.00,1.92
9481.00,1.91
9480.00,1.90
9479.00,1.89
9478.00,1.88
9477.00,1.87
9476.00,1.86
9475.00,1.85
9474.00,1.84
9473.00,1.84
9472.00,1.84
9471.00,1.84
9470.00,1.84
9469.00,1.84
9468.00,1.85
9467.00,1.86
9466.00,1.87
9465.00,1.88
9464.00,1.90
9463.00,1.91
9462.00,1.93
9461.00,1.95
9460.00,1.96
9459.00,1.98
9458.00,2.00
9457.00,2.01
9456.00,2.03
9455.00,2.05
9454.00,2.06
9453.00,2.08
9452.00,2.09
9451.00,2.11
9450.00,2.13
9449.00,2.14
9448.00,2.15
9447.00,2.16
9446.00,2.17
9445.00,2.18
9444.00,2.18
9443.00,2.18
9442.00,2.18
9441.00,2.17
9440.00,2.16
9439.00,2.15
9438.00,2.14
9437.00,2.12
9436.00,2.11
9435.00,2.09
9434.00,2.07
9433.00,2.05
9432.00,2.02
9431.00,2.00
9430.00,1.98
9429.00,1.95
9428.00,1.93
9427.00,1.90
9426.00,1.88
9425.00,1.85
9424.00,1.82
9423.00,1.79
9422.00,1.77
9421.00,1.74
9420.00,1.72
9419.00,1.70
9418.00,1.68
9417.00,1.66
9416.00,1.65
9415.00,1.64
9414.00,1.63
9413.00,1.62
9412.00,1.62
9411.00,1.62
9410.00,1.62
9409.00,1.63
9408.00,1.64
9407.00,1.66
9406.00,1.68
9405.00,1.70
9404.00,1.72
9403.00,1.74
9402.00,1.76
9401.00,1.78
9400.00,1.80
9399.00,1.83
9398.00,1.85
9397.00,1.87
9396.00,1.89
9395.00,1.91
9394.00,1.93
9393.00,1.94
9392.00,1.96
9391.00,1.97
9390.00,1.98
9389.00,1.98
9388.00,1.99
9387.00,1.99
9386.00,2.00
9385.00,1.99
9384.00,1.99
9383.00,1.98
9382.00,1.97
9381.00,1.96
9380.00,1.94
9379.00,1.93
9378.00,1.90
9377.00,1.88
9376.00,1.85
9375.00,1.83
9374.00,1.80
9373.00,1.78
9372.00,1.75
9371.00,1.73
9370.00,1.70
9369.00,1.68
9368.00,1.67
9367.00,1.65
9366.00,1.64
9365.00,1.62
9364.00,1.61
9363.00,1.60
9362.00,1.58
9361.00,1.57
9360.00,1.55
9359.00,1.54
9358.00,1.52
9357.00,1.51
9356.00,1.50
9355.00,1.49
9354.00,1.48
9353.00,1.47
9352.00,1.46
9351.00,1.46
9350.00,1.46
9349.00,1.46
9348.00,1.46
9347.00,1.46
9346.00,1.46
9345.00,1.46
9344.00,1.46
9343.00,1.46
9342.00,1.46
9341.00,1.46
9340.00,1.46
9339.00,1.46
9338.00,1.45
9337.00,1.45
9336.00,1.46
9335.00,1.46
9334.00,1.46
9333.00,1.46
9332.00,1.47
9331.00,1.47
9330.00,1.47
9329.00,1.47
9328.00,1.47
9327.00,1.47
9326.00,1.47
9325.00,1.46
9324.00,1.46
9323.00,1.45
9322.00,1.44
9321.00,1.43
9320.00,1.42
9319.00,1.41
9318.00,1.40
9317.00,1.39
9316.00,1.38
9315.00,1.37
9314.00,1.36
9313.00,1.35
9312.00,1.33
9311.00,1.32
9310.00,1.30
9309.00,1.28
9308.00,1.26
9307.00,1.24
9306.00,1.21
9305.00,1.19
9304.00,1.17
9303.00,1.15
9302.00,1.13
9301.00,1.11
9300.00,1.09
9299.00,1.07
9298.00,1.05
9297.00,1.04
9296.00,1.02
9295.00,1.01
9294.00,1.00
9293.00,0.99
9292.00,0.98
9291.00,0.96
9290.00,0.95
9289.00,0.94
9288.00,0.93
9287.00,0.93
9286.00,0.92
9285.00,0.91
9284.00,0.91
9283.00,0.91
9282.00,0.91
9281.00,0.92
9280.00,0.92
9279.00,0.93
9278.00,0.94
9277.00,0.95
9276.00,0.97
9275.00,0.98
9274.00,1.00
9273.00,1.02
9272.00,1.04
9271.00,1.06
9270.00,1.09
9269.00,1.11
9268.00,1.13
9267.00,1.15
9266.00,1.18
9265.00,1.20
9264.00,1.22
9263.00,1.25
9262.00,1.27
9261.00,1.30
9260.00,1.32
9259.00,1.34
9258.00,1.36
9257.00,1.38
9256.00,1.40
9255.00,1.42
9254.00,1.43
9253.00,1.44
9252.00,1.45
9251.00,1.45
9250.00,1.46
9249.00,1.46
9248.00,1.46
9247.00,1.46
9246.00,1.45
9245.00,1.45
9244.00,1.45
9243.00,1.45
9242.00,1.45
9241.00,1.45
9240.00,1.45
9239.00,1.45
9238.00,1.45
9237.00,1.45
9236.00,1.45
9235.00,1.45
9234.00,1.45
9233.00,1.46
9232.00,1.46
9231.00,1.47
9230.00,1.48
9229.00,1.49
9228.00,1.50
9227.00,1.52
9226.00,1.54
9225.00,1.56
9224.00,1.58
9223.00,1.60
9222.00,1.62
9221.00,1.63
9220.00,1.65
9219.00,1.66
9218.00,1.67
9217.00,1.68
9216.00,1.69
9215.00,1.70
9214.00,1.70
9213.00,1.71
9212.00,1.71
9211.00,1.71
9210.00,1.71
9209.00,1.71
9208.00,1.71
9207.00,1.71
9206.00,1.71
9205.00,1.70
9204.00,1.69
9203.00,1.68
9202.00,1.66
9201.00,1.65
9200.00,1.63
9199.00,1.62
9198.00,1.61
9197.00,1.59
9196.00,1.58
9195.00,1.57
9194.00,1.56
9193.00,1.55
9192.00,1.55
9191.00,1.54
9190.00,1.53
9189.00,1.53
9188.00,1.52
9187.00,1.52
9186.00,1.52
9185.00,1.52
9184.00,1.52
9183.00,1.52
9182.00,1.52
9181.00,1.53
9180.00,1.53
9179.00,1.53
9178.00,1.53
9177.00,1.54
9176.00,1.54
9175.00,1.54
9174.00,1.54
9173.00,1.54
9172.00,1.54
9171.00,1.54
9170.00,1.53
9169.00,1.53
9168.00,1.52
9167.00,1.52
9166.00,1.51
9165.00,1.51
9164.00,1.50
9163.00,1.50
9162.00,1.49
9161.00,1.49
9160.00,1.48
9159.00,1.47
9158.00,1.46
9157.00,1.45
9156.00,1.44
9155.00,1.42
9154.00,1.41
9153.00,1.39
9152.00,1.38
9151.00,1.37
9150.00,1.35
9149.00,1.34
9148.00,1.33
9147.00,1.32
9146.00,1.31
9145.00,1.30
9144.00,1.29
9143.00,1.29
9142.00,1.28
9141.00,1.27
9140.00,1.27
9139.00,1.26
9138.00,1.25
9137.00,1.24
9136.00,1.23
9135.00,1.22
9134.00,1.21
9133.00,1.21
9132.00,1.20
9131.00,1.20
9130.00,1.19
9129.00,1.19
9128.00,1.19
9127.00,1.20
9126.00,1.20
9125.00,1.20
9124.00,1.21
9123.00,1.21
9122.00,1.22
9121.00,1.23
9120.00,1.24
9119.00,1.26
9118.00,1.27
9117.00,1.29
9116.00,1.31
9115.00,1.33
9114.00,1.35
9113.00,1.37
9112.00,1.39
9111.00,1.42
9110.00,1.44
9109.00,1.46
9108.00,1.48
9107.00,1.50
9106.00,1.52
9105.00,1.54
9104.00,1.56
9103.00,1.57
9102.00,1.59
9101.00,1.60
9100.00,1.62
9099.00,1.64
9098.00,1.65
9097.00,1.67
9096.00,1.68
9095.00,1.70
9094.00,1.71
9093.00,1.72
9092.00,1.72
9091.00,1.72
9090.00,1.72
9089.00,1.71
9088.00,1.71
9087.00,1.70
9086.00,1.68
9085.00,1.67
9084.00,1.66
9083.00,1.65
9082.00,1.64
9081.00,1.63
9080.00,1.62
9079.00,1.61
9078.00,1.60
9077.00,1.59
9076.00,1.58
9075.00,1.57
9074.00,1.56
9073.00,1.54
9072.00,1.53
9071.00,1.52
9070.00,1.50
9069.00,1.49
9068.00,1.48
9067.00,1.47
9066.00,1.46
9065.00,1.45
9064.00,1.45
9063.00,1.44
9062.00,1.44
9061.00,1.44
9060.00,1.45
9059.00,1.45
9058.00,1.46
9057.00,1.46
9056.00,1.47
9055.00,1.48
9054.00,1.49
9053.00,1.50
9052.00,1.51
9051.00,1.52
9050.00,1.53
9049.00,1.53
9048.00,1.54
9047.00,1.55
9046.00,1.55
9045.00,1.55
9044.00,1.55
9043.00,1.54
9042.00,1.54
9041.00,1.53
9040.00,1.52
9039.00,1.50
9038.00,1.49
9037.00,1.47
9036.00,1.46
9035.00,1.45
9034.00,1.44
9033.00,1.43
9032.00,1.42
9031.00,1.41
9030.00,1.41
9029.00,1.40
9028.00,1.40
9027.00,1.39
9026.00,1.38
9025.00,1.38
9024.00,1.37
9023.00,1.37
9022.00,1.37
9021.00,1.37
9020.00,1.38
9019.00,1.39
9018.00,1.41
9017.00,1.43
9016.00,1.45
9015.00,1.48
9014.00,1.50
9013.00,1.53
9012.00,1.56
9011.00,1.59
9010.00,1.62
9009.00,1.65
9008.00,1.67
9007.00,1.69
9006.00,1.71
9005.00,1.73
9004.00,1.74
9003.00,1.75
9002.00,1.75
9001.00,1.76
9000.00,1.76
8999.00,1.76
8998.00,1.76
8997.00,1.76
8996.00,1.76
8995.00,1.75
8994.00,1.74
8993.00,1.73
8992.00,1.72
8991.00,1.70
8990.00,1.68
8989.00,1.66
8988.00,1.64
8987.00,1.62
8986.00,1.61
8985.00,1.59
8984.00,1.57
8983.00,1.55
8982.00,1.53
8981.00,1.52
8980.00,1.50
8979.00,1.49
8978.00,1.48
8977.00,1.47
8976.00,1.46
8975.00,1.46
8974.00,1.46
8973.00,1.46
8972.00,1.46
8971.00,1.47
8970.00,1.48
8969.00,1.50
8968.00,1.51
8967.00,1.53
8966.00,1.55
8965.00,1.57
8964.00,1.59
8963.00,1.61
8962.00,1.63
8961.00,1.64
8960.00,1.66
8959.00,1.67
8958.00,1.68
8957.00,1.69
8956.00,1.70
8955.00,1.71
8954.00,1.72
8953.00,1.73
8952.00,1.74
8951.00,1.76
8950.00,1.77
8949.00,1.78
8948.00,1.79
8947.00,1.80
8946.00,1.81
8945.00,1.81
8944.00,1.82
8943.00,1.82
8942.00,1.82
8941.00,1.81
8940.00,1.81
8939.00,1.80
8938.00,1.80
8937.00,1.79
8936.00,1.79
8935.00,1.79
8934.00,1.78
8933.00,1.79
8932.00,1.79
8931.00,1.80
8930.00,1.80
8929.00,1.81
8928.00,1.81
8927.00,1.82
8926.00,1.82
8925.00,1.82
8924.00,1.81
8923.00,1.81
8922.00,1.80
8921.00,1.79
8920.00,1.78
8919.00,1.77
8918.00,1.75
8917.00,1.74
8916.00,1.72
8915.00,1.71
8914.00,1.69
8913.00,1.68
8912.00,1.66
8911.00,1.65
8910.00,1.64
8909.00,1.62
8908.00,1.61
8907.00,1.60
8906.00,1.58
8905.00,1.57
8904.00,1.56
8903.00,1.54
8902.00,1.53
8901.00,1.52
8900.00,1.50
8899.00,1.49
8898.00,1.48
8897.00,1.47
8896.00,1.47
8895.00,1.46
8894.00,1.46
8893.00,1.46
8892.00,1.46
8891.00,1.46
8890.00,1.47
8889.00,1.47
8888.00,1.48
8887.00,1.49
8886.00,1.50
8885.00,1.51
8884.00,1.52
8883.00,1.54
8882.00,1.55
8881.00,1.56
8880.00,1.57
8879.00,1.59
8878.00,1.60
8877.00,1.61
8876.00,1.63
8875.00,1.64
8874.00,1.66
8873.00,1.67
8872.00,1.68
8871.00,1.70
8870.00,1.71
8869.00,1.73
8868.00,1.74
8867.00,1.75
8866.00,1.76
8865.00,1.77
8864.00,1.78
8863.00,1.79
8862.00,1.80
8861.00,1.81
8860.00,1.81
8859.00,1.82
8858.00,1.82
8857.00,1.81
8856.00,1.81
8855.00,1.80
8854.00,1.79
8853.00,1.77
8852.00,1.76
8851.00,1.75
8850.00,1.73
8849.00,1.72
8848.00,1.70
8847.00,1.69
8846.00,1.67
8845.00,1.66
8844.00,1.64
8843.00,1.63
8842.00,1.62
8841.00,1.60
8840.00,1.58
8839.00,1.57
8838.00,1.55
8837.00,1.53
8836.00,1.51
8835.00,1.49
8834.00,1.47
8833.00,1.46
8832.00,1.44
8831.00,1.43
8830.00,1.42
8829.00,1.41
8828.00,1.41
8827.00,1.40
8826.00,1.40
8825.00,1.40
8824.00,1.41
8823.00,1.41
8822.00,1.41
8821.00,1.41
8820.00,1.42
8819.00,1.42
8818.00,1.42
8817.00,1.42
8816.00,1.42
8815.00,1.43
8814.00,1.43
8813.00,1.43
8812.00,1.43
8811.00,1.43
8810.00,1.44
8809.00,1.44
8808.00,1.44
8807.00,1.45
8806.00,1.45
8805.00,1.46
8804.00,1.46
8803.00,1.47
8802.00,1.47
8801.00,1.47
8800.00,1.47
8799.00,1.47
8798.00,1.47
8797.00,1.46
8796.00,1.46
8795.00,1.45
8794.00,1.45
8793.00,1.44
8792.00,1.44
8791.00,1.44
8790.00,1.44
8789.00,1.45
8788.00,1.45
8787.00,1.46
8786.00,1.47
8785.00,1.49
8784.00,1.50
8783.00,1.52
8782.00,1.54
8781.00,1.55
8780.00,1.57
8779.00,1.59
8778.00,1.61
8777.00,1.62
8776.00,1.64
8775.00,1.65
8774.00,1.67
8773.00,1.69
8772.00,1.71
8771.00,1.73
8770.00,1.75
8769.00,1.77
8768.00,1.80
8767.00,1.82
8766.00,1.84
8765.00,1.86
8764.00,1.88
8763.00,1.90
8762.00,1.91
8761.00,1.92
8760.00,1.92
8759.00,1.92
8758.00,1.92
8757.00,1.92
8756.00,1.92
8755.00,1.91
8754.00,1.90
8753.00,1.90
8752.00,1.89
8751.00,1.88
8750.00,1.87
8749.00,1.86
8748.00,1.84
8747.00,1.83
8746.00,1.81
8745.00,1.80
8744.00,1.78
8743.00,1.76
8742.00,1.74
8741.00,1.71
8740.00,1.69
8739.00,1.67
8738.00,1.65
8737.00,1.62
8736.00,1.60
8735.00,1.58
8734.00,1.57
8733.00,1.55
8732.00,1.54
8731.00,1.53
8730.00,1.52
8729.00,1.52
8728.00,1.51
8727.00,1.50
8726.00,1.50
8725.00,1.49
8724.00,1.49
8723.00,1.49
8722.00,1.49
8721.00,1.49
8720.00,1.49
8719.00,1.49
8718.00,1.49
8717.00,1.49
8716.00,1.49
8715.00,1.49
8714.00,1.49
8713.00,1.49
8712.00,1.49
8711.00,1.49
8710.00,1.49
8709.00,1.49
8708.00,1.49
8707.00,1.48
8706.00,1.48
8705.00,1.47
8704.00,1.46
8703.00,1.45
8702.00,1.45
8701.00,1.44
8700.00,1.43
8699.00,1.43
8698.00,1.42
8697.00,1.41
8696.00,1.41
8695.00,1.41
8694.00,1.41
8693.00,1.41
8692.00,1.41
8691.00,1.41
8690.00,1.42
8689.00,1.42
8688.00,1.43
8687.00,1.44
8686.00,1.45
8685.00,1.46
8684.00,1.47
8683.00,1.49
8682.00,1.50
8681.00,1.51
8680.00,1.53
8679.00,1.54
8678.00,1.55
8677.00,1.57
8676.00,1.58
8675.00,1.60
8674.00,1.61
8673.00,1.62
8672.00,1.63
8671.00,1.64
8670.00,1.64
8669.00,1.65
8668.00,1.65
8667.00,1.65
8666.00,1.65
8665.00,1.65
8664.00,1.64
8663.00,1.64
8662.00,1.63
8661.00,1.62
8660.00,1.61
8659.00,1.60
8658.00,1.60
8657.00,1.59
8656.00,1.58
8655.00,1.57
8654.00,1.56
8653.00,1.56
8652.00,1.55
8651.00,1.54
8650.00,1.54
8649.00,1.54
8648.00,1.53
8647.00,1.53
8646.00,1.53
8645.00,1.53
8644.00,1.54
8643.00,1.54
8642.00,1.55
8641.00,1.56
8640.00,1.57
8639.00,1.58
8638.00,1.59
8637.00,1.60
8636.00,1.61
8635.00,1.63
8634.00,1.64
8633.00,1.66
8632.00,1.67
8631.00,1.69
8630.00,1.70
8629.00,1.72
8628.00,1.73
8627.00,1.75
8626.00,1.76
8625.00,1.77
8624.00,1.78
8623.00,1.79
8622.00,1.80
8621.00,1.81
8620.00,1.81
8619.00,1.81
8618.00,1.82
8617.00,1.82
8616.00,1.81
8615.00,1.81
8614.00,1.80
8613.00,1.80
8612.00,1.79
8611.00,1.78
8610.00,1.76
8609.00,1.75
8608.00,1.74
8607.00,1.72
8606.00,1.71
8605.00,1.69
8604.00,1.67
8603.00,1.65
8602.00,1.63
8601.00,1.61
8600.00,1.59
8599.00,1.57
8598.00,1.56
8597.00,1.54
8596.00,1.52
8595.00,1.51
8594.00,1.50
8593.00,1.49
8592.00,1.48
8591.00,1.47
8590.00,1.47
8589.00,1.46
8588.00,1.46
8587.00,1.46
8586.00,1.46
8585.00,1.47
8584.00,1.47
8583.00,1.47
8582.00,1.48
8581.00,1.49
8580.00,1.50
8579.00,1.51
8578.00,1.52
8577.00,1.53
8576.00,1.55
8575.00,1.56
8574.00,1.58
8573.00,1.59
8572.00,1.60
8571.00,1.61
8570.00,1.62
8569.00,1.63
8568.00,1.64
8567.00,1.65
8566.00,1.66
8565.00,1.67
8564.00,1.68
8563.00,1.69
8562.00,1.69
8561.00,1.70
8560.00,1.71
8559.00,1.72
8558.00,1.73
8557.00,1.73
8556.00,1.74
8555.00,1.75
8554.00,1.75
8553.00,1.76
8552.00,1.76
8551.00,1.76
8550.00,1.77
8549.00,1.77
8548.00,1.78
8547.00,1.78
8546.00,1.78
8545.00,1.79
8544.00,1.79
8543.00,1.80
8542.00,1.81
8541.00,1.81
8540.00,1.81
8539.00,1.82
8538.00,1.82
8537.00,1.82
8536.00,1.82
8535.00,1.82
8534.00,1.82
8533.00,1.82
8532.00,1.81
8531.00,1.80
8530.00,1.80
8529.00,1.79
8528.00,1.78
8527.00,1.78
8526.00,1.77
8525.00,1.76
8524.00,1.75
8523.00,1.74
8522.00,1.73
8521.00,1.72
8520.00,1.72
8519.00,1.71
8518.00,1.70
8517.00,1.70
8516.00,1.69
8515.00,1.68
8514.00,1.67
8513.00,1.67
8512.00,1.66
8511.00,1.65
8510.00,1.64
8509.00,1.63
8508.00,1.62
8507.00,1.61
8506.00,1.60
8505.00,1.60
8504.00,1.60
8503.00,1.59
8502.00,1.59
8501.00,1.59
8500.00,1.59
8499.00,1.59
8498.00,1.59
8497.00,1.59
8496.00,1.59
8495.00,1.58
8494.00,1.57
8493.00,1.57
8492.00,1.56
8491.00,1.55
8490.00,1.54
8489.00,1.53
8488.00,1.52
8487.00,1.51
8486.00,1.51
8485.00,1.50
8484.00,1.50
8483.00,1.50
8482.00,1.49
8481.00,1.49
8480.00,1.49
8479.00,1.49
8478.00,1.49
8477.00,1.49
8476.00,1.48
8475.00,1.48
8474.00,1.48
8473.00,1.48
8472.00,1.48
8471.00,1.48
8470.00,1.48
8469.00,1.48
8468.00,1.48
8467.00,1.48
8466.00,1.49
8465.00,1.49
8464.00,1.50
8463.00,1.51
8462.00,1.51
8461.00,1.52
8460.00,1.53
8459.00,1.53
8458.00,1.54
8457.00,1.54
8456.00,1.55
8455.00,1.55
8454.00,1.55
8453.00,1.55
8452.00,1.55
8451.00,1.55
8450.00,1.55
8449.00,1.56
8448.00,1.56
8447.00,1.56
8446.00,1.56
8445.00,1.56
8444.00,1.56
8443.00,1.57
8442.00,1.57
8441.00,1.57
8440.00,1.57
8439.00,1.57
8438.00,1.57
8437.00,1.57
8436.00,1.56
8435.00,1.56
8434.00,1.56
8433.00,1.56
8432.00,1.56
8431.00,1.57
8430.00,1.57
8429.00,1.57
8428.00,1.58
8427.00,1.58
8426.00,1.58
8425.00,1.58
8424.00,1.58
8423.00,1.58
8422.00,1.58
8421.00,1.58
8420.00,1.57
8419.00,1.57
8418.00,1.57
8417.00,1.57
8416.00,1.56
8415.00,1.56
8414.00,1.56
8413.00,1.56
8412.00,1.56
8411.00,1.55
8410.00,1.55
8409.00,1.54
8408.00,1.54
8407.00,1.53
8406.00,1.52
8405.00,1.51
8404.00,1.50
8403.00,1.49
8402.00,1.47
8401.00,1.46
8400.00,1.45
8399.00,1.44
8398.00,1.42
8397.00,1.41
8396.00,1.41
8395.00,1.40
8394.00,1.40
8393.00,1.39
8392.00,1.39
8391.00,1.39
8390.00,1.39
8389.00,1.39
8388.00,1.39
8387.00,1.39
8386.00,1.39
8385.00,1.39
8384.00,1.40
8383.00,1.41
8382.00,1.42
8381.00,1.44
8380.00,1.45
8379.00,1.46
8378.00,1.48
8377.00,1.50
8376.00,1.52
8375.00,1.54
8374.00,1.55
8373.00,1.57
8372.00,1.59
8371.00,1.61
8370.00,1.63
8369.00,1.64
8368.00,1.65
8367.00,1.66
8366.00,1.67
8365.00,1.68
8364.00,1.68
8363.00,1.69
8362.00,1.69
8361.00,1.69
8360.00,1.70
8359.00,1.70
8358.00,1.70
8357.00,1.69
8356.00,1.69
8355.00,1.69
8354.00,1.68
8353.00,1.68
8352.00,1.67
8351.00,1.67
8350.00,1.66
8349.00,1.66
8348.00,1.66
8347.00,1.66
8346.00,1.66
8345.00,1.66
8344.00,1.66
8343.00,1.66
8342.00,1.67
8341.00,1.68
8340.00,1.68
8339.00,1.69
8338.00,1.70
8337.00,1.71
8336.00,1.72
8335.00,1.72
8334.00,1.73
8333.00,1.74
8332.00,1.75
8331.00,1.76
8330.00,1.77
8329.00,1.78
8328.00,1.79
8327.00,1.79
8326.00,1.80
8325.00,1.81
8324.00,1.82
8323.00,1.82
8322.00,1.83
8321.00,1.84
8320.00,1.84
8319.00,1.85
8318.00,1.85
8317.00,1.85
8316.00,1.85
8315.00,1.85
8314.00,1.84
8313.00,1.84
8312.00,1.83
8311.00,1.83
8310.00,1.82
8309.00,1.81
8308.00,1.80
8307.00,1.79
8306.00,1.78
8305.00,1.77
8304.00,1.76
8303.00,1.75
8302.00,1.74
8301.00,1.73
8300.00,1.72
8299.00,1.71
8298.00,1.70
8297.00,1.69
8296.00,1.68
8295.00,1.66
8294.00,1.65
8293.00,1.64
8292.00,1.62
8291.00,1.61
8290.00,1.60
8289.00,1.59
8288.00,1.58
8287.00,1.58
8286.00,1.58
8285.00,1.58
8284.00,1.58
8283.00,1.59
8282.00,1.59
8281.00,1.60
8280.00,1.61
8279.00,1.62
8278.00,1.63
8277.00,1.63
8276.00,1.64
8275.00,1.65
8274.00,1.66
8273.00,1.67
8272.00,1.68
8271.00,1.70
8270.00,1.71
8269.00,1.72
8268.00,1.74
8267.00,1.75
8266.00,1.77
8265.00,1.78
8264.00,1.80
8263.00,1.82
8262.00,1.83
8261.00,1.84
8260.00,1.85
8259.00,1.86
8258.00,1.87
8257.00,1.87
8256.00,1.88
8255.00,1.88
8254.00,1.89
8253.00,1.90
8252.00,1.91
8251.00,1.91
8250.00,1.92
8249.00,1.93
8248.00,1.94
8247.00,1.95
8246.00,1.96
8245.00,1.97
8244.00,1.97
8243.00,1.98
8242.00,1.99
8241.00,1.99
8240.00,2.00
8239.00,2.01
8238.00,2.01
8237.00,2.02
8236.00,2.03
8235.00,2.03
8234.00,2.04
8233.00,2.05
8232.00,2.06
8231.00,2.07
8230.00,2.07
8229.00,2.08
8228.00,2.08
8227.00,2.08
8226.00,2.08
8225.00,2.08
8224.00,2.07
8223.00,2.07
8222.00,2.06
8221.00,2.05
8220.00,2.04
8219.00,2.03
8218.00,2.02
8217.00,2.01
8216.00,2.00
8215.00,1.99
8214.00,1.97
8213.00,1.96
8212.00,1.95
8211.00,1.93
8210.00,1.92
8209.00,1.91
8208.00,1.89
8207.00,1.88
8206.00,1.86
8205.00,1.85
8204.00,1.84
8203.00,1.82
8202.00,1.81
8201.00,1.80
8200.00,1.79
8199.00,1.78
8198.00,1.77
8197.00,1.76
8196.00,1.75
8195.00,1.75
8194.00,1.74
8193.00,1.74
8192.00,1.73
8191.00,1.73
8190.00,1.73
8189.00,1.72
8188.00,1.72
8187.00,1.71
8186.00,1.71
8185.00,1.70
8184.00,1.70
8183.00,1.69
8182.00,1.69
8181.00,1.68
8180.00,1.68
8179.00,1.67
8178.00,1.67
8177.00,1.67
8176.00,1.66
8175.00,1.66
8174.00,1.66
8173.00,1.66
8172.00,1.66
8171.00,1.66
8170.00,1.66
8169.00,1.66
8168.00,1.66
8167.00,1.66
8166.00,1.66
8165.00,1.66
8164.00,1.67
8163.00,1.67
8162.00,1.67
8161.00,1.68
8160.00,1.68
8159.00,1.69
8158.00,1.70
8157.00,1.70
8156.00,1.71
8155.00,1.72
8154.00,1.72
8153.00,1.73
8152.00,1.73
8151.00,1.74
8150.00,1.74
8149.00,1.74
8148.00,1.74
8147.00,1.74
8146.00,1.74
8145.00,1.74
8144.00,1.74
8143.00,1.74
8142.00,1.73
8141.00,1.73
8140.00,1.73
8139.00,1.73
8138.00,1.73
8137.00,1.73
8136.00,1.73
8135.00,1.73
8134.00,1.74
8133.00,1.74
8132.00,1.74
8131.00,1.75
8130.00,1.75
8129.00,1.76
8128.00,1.77
8127.00,1.78
8126.00,1.79
8125.00,1.80
8124.00,1.81
8123.00,1.82
8122.00,1.83
8121.00,1.85
8120.00,1.86
8119.00,1.87
8118.00,1.88
8117.00,1.89
8116.00,1.91
8115.00,1.92
8114.00,1.93
8113.00,1.94
8112.00,1.94
8111.00,1.95
8110.00,1.95
8109.00,1.95
8108.00,1.95
8107.00,1.95
8106.00,1.95
8105.00,1.94
8104.00,1.93
8103.00,1.92
8102.00,1.91
8101.00,1.90
8100.00,1.88
8099.00,1.87
8098.00,1.85
8097.00,1.84
8096.00,1.82
8095.00,1.81
8094.00,1.79
8093.00,1.77
8092.00,1.76
8091.00,1.74
8090.00,1.73
8089.00,1.71
8088.00,1.70
8087.00,1.69
8086.00,1.68
8085.00,1.68
8084.00,1.67
8083.00,1.67
8082.00,1.67
8081.00,1.68
8080.00,1.68
8079.00,1.69
8078.00,1.69
8077.00,1.70
8076.00,1.71
8075.00,1.71
8074.00,1.72
8073.00,1.72
8072.00,1.73
8071.00,1.74
8070.00,1.74
8069.00,1.75
8068.00,1.76
8067.00,1.76
8066.00,1.77
8065.00,1.78
8064.00,1.79
8063.00,1.80
8062.00,1.80
8061.00,1.81
8060.00,1.81
8059.00,1.81
8058.00,1.81
8057.00,1.81
8056.00,1.80
8055.00,1.79
8054.00,1.79
8053.00,1.78
8052.00,1.77
8051.00,1.76
8050.00,1.76
8049.00,1.75
8048.00,1.75
8047.00,1.75
8046.00,1.74
8045.00,1.74
8044.00,1.74
8043.00,1.74
8042.00,1.75
8041.00,1.75
8040.00,1.75
8039.00,1.75
8038.00,1.75
8037.00,1.75
8036.00,1.74
8035.00,1.74
8034.00,1.74
8033.00,1.74
8032.00,1.74
8031.00,1.74
8030.00,1.75
8029.00,1.75
8028.00,1.75
8027.00,1.76
8026.00,1.76
8025.00,1.77
8024.00,1.77
8023.00,1.78
8022.00,1.78
8021.00,1.79
8020.00,1.79
8019.00,1.79
8018.00,1.80
8017.00,1.80
8016.00,1.80
8015.00,1.80
8014.00,1.80
8013.00,1.80
8012.00,1.80
8011.00,1.80
8010.00,1.80
8009.00,1.80
8008.00,1.80
8007.00,1.81
8006.00,1.81
8005.00,1.81
8004.00,1.81
8003.00,1.81
8002.00,1.81
8001.00,1.81
8000.00,1.81
7999.00,1.81
7998.00,1.80
7997.00,1.80
7996.00,1.79
7995.00,1.79
7994.00,1.78
7993.00,1.77
7992.00,1.77
7991.00,1.76
7990.00,1.76
7989.00,1.75
7988.00,1.75
7987.00,1.75
7986.00,1.75
7985.00,1.75
7984.00,1.75
7983.00,1.75
7982.00,1.75
7981.00,1.75
7980.00,1.75
7979.00,1.76
7978.00,1.76
7977.00,1.76
7976.00,1.76
7975.00,1.77
7974.00,1.77
7973.00,1.78
7972.00,1.79
7971.00,1.80
7970.00,1.81
7969.00,1.82
7968.00,1.84
7967.00,1.85
7966.00,1.87
7965.00,1.88
7964.00,1.89
7963.00,1.90
7962.00,1.91
7961.00,1.92
7960.00,1.92
7959.00,1.92
7958.00,1.92
7957.00,1.92
7956.00,1.92
7955.00,1.91
7954.00,1.91
7953.00,1.90
7952.00,1.90
7951.00,1.89
7950.00,1.88
7949.00,1.87
7948.00,1.87
7947.00,1.86
7946.00,1.85
7945.00,1.83
7944.00,1.82
7943.00,1.81
7942.00,1.79
7941.00,1.78
7940.00,1.77
7939.00,1.76
7938.00,1.74
7937.00,1.73
7936.00,1.73
7935.00,1.72
7934.00,1.71
7933.00,1.71
7932.00,1.71
7931.00,1.71
7930.00,1.71
7929.00,1.72
7928.00,1.72
7927.00,1.73
7926.00,1.74
7925.00,1.75
7924.00,1.76
7923.00,1.77
7922.00,1.78
7921.00,1.79
7920.00,1.81
7919.00,1.82
7918.00,1.83
7917.00,1.85
7916.00,1.86
7915.00,1.87
7914.00,1.89
7913.00,1.90
7912.00,1.92
7911.00,1.93
7910.00,1.94
7909.00,1.96
7908.00,1.97
7907.00,1.98
7906.00,1.99
7905.00,2.00
7904.00,2.00
7903.00,2.01
7902.00,2.01
7901.00,2.01
7900.00,2.02
7899.00,2.02
7898.00,2.02
7897.00,2.02
7896.00,2.02
7895.00,2.01
7894.00,2.01
7893.00,2.01
7892.00,2.00
7891.00,2.00
7890.00,1.99
7889.00,1.99
7888.00,1.98
7887.00,1.97
7886.00,1.96
7885.00,1.95
7884.00,1.94
7883.00,1.94
7882.00,1.93
7881.00,1.92
7880.00,1.91
7879.00,1.91
7878.00,1.90
7877.00,1.90
7876.00,1.89
7875.00,1.89
7874.00,1.89
7873.00,1.89
7872.00,1.88
7871.00,1.88
7870.00,1.88
7869.00,1.87
7868.00,1.87
7867.00,1.87
7866.00,1.87
7865.00,1.87
7864.00,1.87
7863.00,1.87
7862.00,1.87
7861.00,1.88
7860.00,1.88
7859.00,1.88
7858.00,1.88
7857.00,1.88
7856.00,1.88
7855.00,1.88
7854.00,1.88
7853.00,1.88
7852.00,1.87
7851.00,1.87
7850.00,1.86
7849.00,1.86
7848.00,1.85
7847.00,1.84
7846.00,1.84
7845.00,1.83
7844.00,1.83
7843.00,1.82
7842.00,1.82
7841.00,1.81
7840.00,1.81
7839.00,1.81
7838.00,1.80
7837.00,1.79
7836.00,1.79
7835.00,1.78
7834.00,1.78
7833.00,1.77
7832.00,1.77
7831.00,1.77
7830.00,1.77
7829.00,1.78
7828.00,1.78
7827.00,1.79
7826.00,1.79
7825.00,1.80
7824.00,1.81
7823.00,1.81
7822.00,1.82
7821.00,1.83
7820.00,1.84
7819.00,1.85
7818.00,1.85
7817.00,1.86
7816.00,1.87
7815.00,1.88
7814.00,1.89
7813.00,1.90
7812.00,1.90
7811.00,1.91
7810.00,1.92
7809.00,1.92
7808.00,1.93
7807.00,1.93
7806.00,1.94
7805.00,1.94
7804.00,1.94
7803.00,1.93
7802.00,1.93
7801.00,1.93
7800.00,1.92
7799.00,1.92
7798.00,1.91
7797.00,1.91
7796.00,1.90
7795.00,1.90
7794.00,1.89
7793.00,1.88
7792.00,1.88
7791.00,1.87
7790.00,1.86
7789.00,1.85
7788.00,1.84
7787.00,1.83
7786.00,1.83
7785.00,1.82
7784.00,1.81
7783.00,1.80
7782.00,1.80
7781.00,1.79
7780.00,1.79
7779.00,1.79
7778.00,1.78
7777.00,1.78
7776.00,1.78
7775.00,1.78
7774.00,1.78
7773.00,1.78
7772.00,1.78
7771.00,1.78
7770.00,1.78
7769.00,1.78
7768.00,1.78
7767.00,1.78
7766.00,1.78
7765.00,1.78
7764.00,1.78
7763.00,1.79
7762.00,1.79
7761.00,1.79
7760.00,1.79
7759.00,1.79
7758.00,1.79
7757.00,1.79
7756.00,1.79
7755.00,1.79
7754.00,1.79
7753.00,1.79
7752.00,1.79
7751.00,1.79
7750.00,1.79
7749.00,1.79
7748.00,1.79
7747.00,1.80
7746.00,1.80
7745.00,1.80
7744.00,1.80
7743.00,1.81
7742.00,1.81
7741.00,1.81
7740.00,1.81
7739.00,1.81
7738.00,1.82
7737.00,1.82
7736.00,1.83
7735.00,1.83
7734.00,1.84
7733.00,1.85
7732.00,1.86
7731.00,1.87
7730.00,1.88
7729.00,1.89
7728.00,1.90
7727.00,1.91
7726.00,1.92
7725.00,1.93
7724.00,1.94
7723.00,1.94
7722.00,1.95
7721.00,1.95
7720.00,1.96
7719.00,1.96
7718.00,1.97
7717.00,1.98
7716.00,1.98
7715.00,1.99
7714.00,2.00
7713.00,2.01
7712.00,2.01
7711.00,2.02
7710.00,2.03
7709.00,2.03
7708.00,2.03
7707.00,2.03
7706.00,2.04
7705.00,2.04
7704.00,2.04
7703.00,2.04
7702.00,2.04
7701.00,2.04
7700.00,2.05
7699.00,2.05
7698.00,2.06
7697.00,2.06
7696.00,2.07
7695.00,2.08
7694.00,2.08
7693.00,2.08
7692.00,2.09
7691.00,2.09
7690.00,2.08
7689.00,2.08
7688.00,2.08
7687.00,2.07
7686.00,2.07
7685.00,2.06
7684.00,2.06
7683.00,2.05
7682.00,2.05
7681.00,2.04
7680.00,2.04
7679.00,2.03
7678.00,2.03
7677.00,2.02
7676.00,2.01
7675.00,2.01
7674.00,2.00
7673.00,1.99
7672.00,1.97
7671.00,1.96
7670.00,1.95
7669.00,1.94
7668.00,1.92
7667.00,1.91
7666.00,1.90
7665.00,1.89
7664.00,1.88
7663.00,1.88
7662.00,1.87
7661.00,1.87
7660.00,1.87
7659.00,1.87
7658.00,1.87
7657.00,1.87
7656.00,1.87
7655.00,1.87
7654.00,1.88
7653.00,1.88
7652.00,1.89
7651.00,1.89
7650.00,1.90
7649.00,1.91
7648.00,1.92
7647.00,1.92
7646.00,1.93
7645.00,1.94
7644.00,1.95
7643.00,1.96
7642.00,1.98
7641.00,1.99
7640.00,2.00
7639.00,2.01
7638.00,2.03
7637.00,2.04
7636.00,2.05
7635.00,2.06
7634.00,2.07
7633.00,2.07
7632.00,2.08
7631.00,2.09
7630.00,2.09
7629.00,2.10
7628.00,2.10
7627.00,2.11
7626.00,2.11
7625.00,2.11
7624.00,2.11
7623.00,2.11
7622.00,2.12
7621.00,2.12
7620.00,2.11
7619.00,2.11
7618.00,2.11
7617.00,2.11
7616.00,2.11
7615.00,2.10
7614.00,2.10
7613.00,2.09
7612.00,2.08
7611.00,2.07
7610.00,2.07
7609.00,2.06
7608.00,2.05
7607.00,2.04
7606.00,2.03
7605.00,2.02
7604.00,2.01
7603.00,2.00
7602.00,1.98
7601.00,1.97
7600.00,1.96
7599.00,1.94
7598.00,1.93
7597.00,1.92
7596.00,1.91
7595.00,1.89
7594.00,1.88
7593.00,1.87
7592.00,1.86
7591.00,1.85
7590.00,1.84
7589.00,1.84
7588.00,1.83
7587.00,1.83
7586.00,1.83
7585.00,1.83
7584.00,1.83
7583.00,1.83
7582.00,1.83
7581.00,1.83
7580.00,1.83
7579.00,1.84
7578.00,1.84
7577.00,1.85
7576.00,1.85
7575.00,1.86
7574.00,1.87
7573.00,1.88
7572.00,1.88
7571.00,1.89
7570.00,1.91
7569.00,1.92
7568.00,1.93
7567.00,1.94
7566.00,1.95
7565.00,1.96
7564.00,1.97
7563.00,1.98
7562.00,1.99
7561.00,1.99
7560.00,2.00
7559.00,2.00
7558.00,2.00
7557.00,2.00
7556.00,2.00
7555.00,2.00
7554.00,2.00
7553.00,2.00
7552.00,2.00
7551.00,2.00
7550.00,2.00
7549.00,2.00
7548.00,2.00
7547.00,1.99
7546.00,1.99
7545.00,1.99
7544.00,1.98
7543.00,1.98
7542.00,1.97
7541.00,1.96
7540.00,1.95
7539.00,1.94
7538.00,1.93
7537.00,1.92
7536.00,1.92
7535.00,1.91
7534.00,1.90
7533.00,1.90
7532.00,1.89
7531.00,1.89
7530.00,1.88
7529.00,1.88
7528.00,1.87
7527.00,1.87
7526.00,1.87
7525.00,1.86
7524.00,1.86
7523.00,1.85
7522.00,1.84
7521.00,1.84
7520.00,1.83
7519.00,1.82
7518.00,1.82
7517.00,1.81
7516.00,1.81
7515.00,1.80
7514.00,1.80
7513.00,1.81
7512.00,1.81
7511.00,1.81
7510.00,1.82
7509.00,1.82
7508.00,1.82
7507.00,1.83
7506.00,1.83
7505.00,1.83
7504.00,1.83
7503.00,1.84
7502.00,1.84
7501.00,1.84
7500.00,1.85
7499.00,1.85
7498.00,1.86
7497.00,1.86
7496.00,1.87
7495.00,1.88
7494.00,1.89
7493.00,1.90
7492.00,1.91
7491.00,1.92
7490.00,1.93
7489.00,1.94
7488.00,1.94
7487.00,1.95
7486.00,1.96
7485.00,1.96
7484.00,1.97
7483.00,1.97
7482.00,1.98
7481.00,1.98
7480.00,1.98
7479.00,1.99
7478.00,1.99
7477.00,1.99
7476.00,2.00
7475.00,2.00
7474.00,2.00
7473.00,2.00
7472.00,2.00
7471.00,2.00
7470.00,2.00
7469.00,2.00
7468.00,2.00
7467.00,1.99
7466.00,1.99
7465.00,1.98
7464.00,1.97
7463.00,1.97
7462.00,1.96
7461.00,1.94
7460.00,1.93
7459.00,1.92
7458.00,1.91
7457.00,1.90
7456.00,1.89
7455.00,1.88
7454.00,1.87
7453.00,1.86
7452.00,1.85
7451.00,1.84
7450.00,1.83
7449.00,1.82
7448.00,1.81
7447.00,1.81
7446.00,1.80
7445.00,1.79
7444.00,1.78
7443.00,1.78
7442.00,1.77
7441.00,1.77
7440.00,1.76
7439.00,1.76
7438.00,1.76
7437.00,1.76
7436.00,1.76
7435.00,1.77
7434.00,1.77
7433.00,1.78
7432.00,1.79
7431.00,1.79
7430.00,1.80
7429.00,1.81
7428.00,1.81
7427.00,1.82
7426.00,1.82
7425.00,1.83
7424.00,1.83
7423.00,1.84
7422.00,1.85
7421.00,1.85
7420.00,1.86
7419.00,1.87
7418.00,1.88
7417.00,1.89
7416.00,1.90
7415.00,1.91
7414.00,1.92
7413.00,1.93
7412.00,1.94
7411.00,1.95
7410.00,1.95
7409.00,1.96
7408.00,1.97
7407.00,1.97
7406.00,1.98
7405.00,1.98
7404.00,1.99
7403.00,1.99
7402.00,2.00
7401.00,2.00
7400.00,2.01
7399.00,2.01
7398.00,2.01
7397.00,2.01
7396.00,2.01
7395.00,2.01
7394.00,2.01
7393.00,2.01
7392.00,2.00
7391.00,2.00
7390.00,1.99
7389.00,1.99
7388.00,1.98
7387.00,1.98
7386.00,1.97
7385.00,1.96
7384.00,1.96
7383.00,1.95
7382.00,1.95
7381.00,1.94
7380.00,1.94
7379.00,1.93
7378.00,1.93
7377.00,1.93
7376.00,1.93
7375.00,1.93
7374.00,1.93
7373.00,1.93
7372.00,1.93
7371.00,1.94
7370.00,1.95
7369.00,1.96
7368.00,1.97
7367.00,1.98
7366.00,1.99
7365.00,2.00
7364.00,2.01
7363.00,2.03
7362.00,2.04
7361.00,2.05
7360.00,2.06
7359.00,2.07
7358.00,2.08
7357.00,2.09
7356.00,2.10
7355.00,2.11
7354.00,2.12
7353.00,2.12
7352.00,2.13
7351.00,2.14
7350.00,2.14
7349.00,2.14
7348.00,2.14
7347.00,2.14
7346.00,2.14
7345.00,2.13
7344.00,2.12
7343.00,2.11
7342.00,2.10
7341.00,2.09
7340.00,2.08
7339.00,2.06
7338.00,2.05
7337.00,2.04
7336.00,2.02
7335.00,2.01
7334.00,2.00
7333.00,1.99
7332.00,1.98
7331.00,1.97
7330.00,1.96
7329.00,1.95
7328.00,1.94
7327.00,1.93
7326.00,1.93
7325.00,1.92
7324.00,1.92
7323.00,1.92
7322.00,1.92
7321.00,1.92
7320.00,1.92
7319.00,1.92
7318.00,1.92
7317.00,1.93
7316.00,1.93
7315.00,1.94
7314.00,1.94
7313.00,1.95
7312.00,1.95
7311.00,1.96
7310.00,1.97
7309.00,1.97
7308.00,1.98
7307.00,1.99
7306.00,1.99
7305.00,2.00
7304.00,2.00
7303.00,2.00
7302.00,2.00
7301.00,2.00
7300.00,2.00
7299.00,2.00
7298.00,2.00
7297.00,2.00
7296.00,2.00
7295.00,2.00
7294.00,1.99
7293.00,1.99
7292.00,1.99
7291.00,1.99
7290.00,1.99
7289.00,2.00
7288.00,2.00
7287.00,2.00
7286.00,2.00
7285.00,2.00
7284.00,2.00
7283.00,2.00
7282.00,2.00
7281.00,2.00
7280.00,2.00
7279.00,2.00
7278.00,2.01
7277.00,2.01
7276.00,2.02
7275.00,2.02
7274.00,2.03
7273.00,2.03
7272.00,2.04
7271.00,2.04
7270.00,2.05
7269.00,2.05
7268.00,2.05
7267.00,2.05
7266.00,2.05
7265.00,2.05
7264.00,2.04
7263.00,2.04
7262.00,2.04
7261.00,2.03
7260.00,2.03
7259.00,2.02
7258.00,2.02
7257.00,2.01
7256.00,2.01
7255.00,2.00
7254.00,2.00
7253.00,1.99
7252.00,1.98
7251.00,1.97
7250.00,1.96
7249.00,1.95
7248.00,1.94
7247.00,1.93
7246.00,1.92
7245.00,1.91
7244.00,1.90
7243.00,1.89
7242.00,1.88
7241.00,1.87
7240.00,1.86
7239.00,1.86
7238.00,1.85
7237.00,1.84
7236.00,1.84
7235.00,1.83
7234.00,1.83
7233.00,1.82
7232.00,1.82
7231.00,1.81
7230.00,1.81
7229.00,1.80
7228.00,1.80
7227.00,1.80
7226.00,1.80
7225.00,1.80
7224.00,1.80
7223.00,1.80
7222.00,1.80
7221.00,1.80
7220.00,1.80
7219.00,1.80
7218.00,1.79
7217.00,1.79
7216.00,1.79
7215.00,1.79
7214.00,1.79
7213.00,1.80
7212.00,1.80
7211.00,1.80
7210.00,1.81
7209.00,1.81
7208.00,1.82
7207.00,1.82
7206.00,1.83
7205.00,1.83
7204.00,1.83
7203.00,1.83
7202.00,1.84
7201.00,1.84
7200.00,1.84
7199.00,1.84
7198.00,1.84
7197.00,1.84
7196.00,1.85
7195.00,1.85
7194.00,1.85
7193.00,1.86
7192.00,1.86
7191.00,1.87
7190.00,1.87
7189.00,1.87
7188.00,1.88
7187.00,1.88
7186.00,1.88
7185.00,1.88
7184.00,1.88
7183.00,1.88
7182.00,1.88
7181.00,1.88
7180.00,1.87
7179.00,1.87
7178.00,1.87
7177.00,1.87
7176.00,1.87
7175.00,1.87
7174.00,1.86
7173.00,1.86
7172.00,1.86
7171.00,1.85
7170.00,1.85
7169.00,1.85
7168.00,1.84
7167.00,1.84
7166.00,1.83
7165.00,1.83
7164.00,1.82
7163.00,1.82
7162.00,1.81
7161.00,1.80
7160.00,1.80
7159.00,1.79
7158.00,1.79
7157.00,1.78
7156.00,1.78
7155.00,1.77
7154.00,1.77
7153.00,1.76
7152.00,1.76
7151.00,1.75
7150.00,1.75
7149.00,1.75
7148.00,1.74
7147.00,1.74
7146.00,1.74
7145.00,1.73
7144.00,1.73
7143.00,1.72
7142.00,1.72
7141.00,1.72
7140.00,1.71
7139.00,1.71
7138.00,1.71
7137.00,1.70
7136.00,1.70
7135.00,1.69
7134.00,1.69
7133.00,1.68
7132.00,1.68
7131.00,1.67
7130.00,1.66
7129.00,1.65
7128.00,1.64
7127.00,1.63
7126.00,1.62
7125.00,1.61
7124.00,1.60
7123.00,1.59
7122.00,1.58
7121.00,1.57
7120.00,1.56
7119.00,1.55
7118.00,1.54
7117.00,1.54
7116.00,1.53
7115.00,1.52
7114.00,1.51
7113.00,1.51
7112.00,1.50
7111.00,1.49
7110.00,1.48
7109.00,1.48
7108.00,1.47
7107.00,1.46
7106.00,1.46
7105.00,1.45
7104.00,1.45
7103.00,1.44
7102.00,1.44
7101.00,1.44
7100.00,1.43
7099.00,1.43
7098.00,1.43
7097.00,1.43
7096.00,1.43
7095.00,1.43
7094.00,1.43
7093.00,1.42
7092.00,1.42
7091.00,1.42
7090.00,1.41
7089.00,1.41
7088.00,1.40
7087.00,1.40
7086.00,1.39
7085.00,1.39
7084.00,1.39
7083.00,1.38
7082.00,1.38
7081.00,1.38
7080.00,1.38
7079.00,1.38
7078.00,1.38
7077.00,1.38
7076.00,1.38
7075.00,1.38
7074.00,1.38
7073.00,1.37
7072.00,1.37
7071.00,1.37
7070.00,1.37
7069.00,1.36
7068.00,1.36
7067.00,1.36
7066.00,1.36
7065.00,1.35
7064.00,1.35
7063.00,1.35
7062.00,1.35
7061.00,1.35
7060.00,1.35
7059.00,1.35
7058.00,1.35
7057.00,1.35
7056.00,1.35
7055.00,1.34
7054.00,1.34
7053.00,1.34
7052.00,1.34
7051.00,1.34
7050.00,1.34
7049.00,1.34
7048.00,1.34
7047.00,1.34
7046.00,1.34
7045.00,1.35
7044.00,1.35
7043.00,1.35
7042.00,1.36
7041.00,1.36
7040.00,1.37
7039.00,1.37
7038.00,1.37
7037.00,1.37
7036.00,1.38
7035.00,1.38
7034.00,1.38
7033.00,1.38
7032.00,1.39
7031.00,1.39
7030.00,1.39
7029.00,1.39
7028.00,1.40
7027.00,1.40
7026.00,1.40
7025.00,1.40
7024.00,1.40
7023.00,1.40
7022.00,1.40
7021.00,1.40
7020.00,1.40
7019.00,1.40
7018.00,1.40
7017.00,1.40
7016.00,1.40
7015.00,1.40
7014.00,1.40
7013.00,1.40
7012.00,1.40
7011.00,1.40
7010.00,1.41
7009.00,1.41
7008.00,1.41
7007.00,1.42
7006.00,1.42
7005.00,1.42
7004.00,1.43
7003.00,1.43
7002.00,1.43
7001.00,1.43
7000.00,1.43
6999.00,1.43
6998.00,1.43
6997.00,1.43
6996.00,1.43
6995.00,1.43
6994.00,1.43
6993.00,1.43
6992.00,1.43
6991.00,1.43
6990.00,1.43
6989.00,1.42
6988.00,1.42
6987.00,1.42
6986.00,1.42
6985.00,1.42
6984.00,1.42
6983.00,1.41
6982.00,1.41
6981.00,1.40
6980.00,1.40
6979.00,1.39
6978.00,1.39
6977.00,1.38
6976.00,1.38
6975.00,1.37
6974.00,1.37
6973.00,1.36
6972.00,1.36
6971.00,1.35
6970.00,1.34
6969.00,1.34
6968.00,1.33
6967.00,1.33
6966.00,1.32
6965.00,1.31
6964.00,1.31
6963.00,1.30
6962.00,1.30
6961.00,1.29
6960.00,1.29
6959.00,1.28
6958.00,1.28
6957.00,1.27
6956.00,1.27
6955.00,1.26
6954.00,1.26
6953.00,1.26
6952.00,1.25
6951.00,1.25
6950.00,1.25
6949.00,1.25
6948.00,1.25
6947.00,1.25
6946.00,1.25
6945.00,1.25
6944.00,1.26
6943.00,1.26
6942.00,1.26
6941.00,1.27
6940.00,1.27
6939.00,1.27
6938.00,1.27
6937.00,1.28
6936.00,1.28
6935.00,1.28
6934.00,1.28
6933.00,1.29
6932.00,1.29
6931.00,1.29
6930.00,1.30
6929.00,1.30
6928.00,1.31
6927.00,1.31
6926.00,1.32
6925.00,1.32
6924.00,1.33
6923.00,1.33
6922.00,1.33
6921.00,1.33
6920.00,1.34
6919.00,1.34
6918.00,1.34
6917.00,1.34
6916.00,1.34
6915.00,1.34
6914.00,1.34
6913.00,1.34
6912.00,1.34
6911.00,1.34
6910.00,1.34
6909.00,1.34
6908.00,1.35
6907.00,1.35
6906.00,1.35
6905.00,1.35
6904.00,1.35
6903.00,1.34
6902.00,1.34
6901.00,1.34
6900.00,1.34
6899.00,1.34
6898.00,1.34
6897.00,1.34
6896.00,1.34
6895.00,1.34
6894.00,1.35
6893.00,1.35
6892.00,1.35
6891.00,1.35
6890.00,1.35
6889.00,1.35
6888.00,1.36
6887.00,1.36
6886.00,1.36
6885.00,1.36
6884.00,1.36
6883.00,1.36
6882.00,1.36
6881.00,1.36
6880.00,1.37
6879.00,1.37
6878.00,1.37
6877.00,1.38
6876.00,1.38
6875.00,1.38
6874.00,1.39
6873.00,1.39
6872.00,1.39
6871.00,1.39
6870.00,1.40
6869.00,1.40
6868.00,1.40
6867.00,1.40
6866.00,1.40
6865.00,1.40
6864.00,1.40
6863.00,1.40
6862.00,1.41
6861.00,1.41
6860.00,1.41
6859.00,1.42
6858.00,1.42
6857.00,1.42
6856.00,1.43
6855.00,1.43
6854.00,1.43
6853.00,1.44
6852.00,1.44
6851.00,1.44
6850.00,1.44
6849.00,1.45
6848.00,1.45
6847.00,1.45
6846.00,1.45
6845.00,1.45
6844.00,1.46
6843.00,1.46
6842.00,1.46
6841.00,1.46
6840.00,1.46
6839.00,1.46
6838.00,1.46
6837.00,1.46
6836.00,1.46
6835.00,1.46
6834.00,1.46
6833.00,1.46
6832.00,1.45
6831.00,1.45
6830.00,1.45
6829.00,1.45
6828.00,1.44
6827.00,1.44
6826.00,1.43
6825.00,1.43
6824.00,1.43
6823.00,1.42
6822.00,1.42
6821.00,1.41
6820.00,1.41
6819.00,1.41
6818.00,1.41
6817.00,1.40
6816.00,1.40
6815.00,1.40
6814.00,1.40
6813.00,1.40
6812.00,1.40
6811.00,1.40
6810.00,1.40
6809.00,1.40
6808.00,1.40
6807.00,1.40
6806.00,1.39
6805.00,1.39
6804.00,1.39
6803.00,1.39
6802.00,1.39
6801.00,1.39
6800.00,1.38
6799.00,1.38
6798.00,1.38
6797.00,1.37
6796.00,1.37
6795.00,1.37
6794.00,1.37
6793.00,1.36
6792.00,1.36
6791.00,1.36
6790.00,1.36
6789.00,1.35
6788.00,1.35
6787.00,1.35
6786.00,1.35
6785.00,1.34
6784.00,1.34
6783.00,1.34
6782.00,1.34
6781.00,1.33
6780.00,1.33
6779.00,1.33
6778.00,1.34
6777.00,1.34
6776.00,1.34
6775.00,1.34
6774.00,1.35
6773.00,1.35
6772.00,1.36
6771.00,1.36
6770.00,1.36
6769.00,1.37
6768.00,1.37
6767.00,1.37
6766.00,1.38
6765.00,1.38
6764.00,1.38
6763.00,1.38
6762.00,1.38
6761.00,1.39
6760.00,1.39
6759.00,1.39
6758.00,1.39
6757.00,1.39
6756.00,1.39
6755.00,1.39
6754.00,1.39
6753.00,1.39
6752.00,1.39
6751.00,1.39
6750.00,1.39
6749.00,1.39
6748.00,1.39
6747.00,1.39
6746.00,1.39
6745.00,1.39
6744.00,1.38
6743.00,1.38
6742.00,1.38
6741.00,1.38
6740.00,1.38
6739.00,1.39
6738.00,1.39
6737.00,1.39
6736.00,1.39
6735.00,1.39
6734.00,1.39
6733.00,1.40
6732.00,1.40
6731.00,1.40
6730.00,1.40
6729.00,1.41
6728.00,1.41
6727.00,1.41
6726.00,1.41
6725.00,1.41
6724.00,1.42
6723.00,1.42
6722.00,1.42
6721.00,1.42
6720.00,1.42
6719.00,1.43
6718.00,1.43
6717.00,1.43
6716.00,1.43
6715.00,1.44
6714.00,1.44
6713.00,1.44
6712.00,1.44
6711.00,1.44
6710.00,1.45
6709.00,1.45
6708.00,1.45
6707.00,1.45
6706.00,1.45
6705.00,1.46
6704.00,1.46
6703.00,1.46
6702.00,1.47
6701.00,1.47
6700.00,1.48
6699.00,1.48
6698.00,1.49
6697.00,1.49
6696.00,1.50
6695.00,1.51
6694.00,1.51
6693.00,1.52
6692.00,1.52
6691.00,1.53
6690.00,1.53
6689.00,1.54
6688.00,1.54
6687.00,1.55
6686.00,1.55
6685.00,1.55
6684.00,1.56
6683.00,1.56
6682.00,1.56
6681.00,1.56
6680.00,1.56
6679.00,1.56
6678.00,1.56
6677.00,1.57
6676.00,1.57
6675.00,1.57
6674.00,1.57
6673.00,1.56
6672.00,1.56
6671.00,1.56
6670.00,1.56
6669.00,1.56
6668.00,1.56
6667.00,1.55
6666.00,1.55
6665.00,1.55
6664.00,1.55
6663.00,1.54
6662.00,1.54
6661.00,1.54
6660.00,1.53
6659.00,1.53
6658.00,1.53
6657.00,1.53
6656.00,1.53
6655.00,1.53
6654.00,1.53
6653.00,1.53
6652.00,1.53
6651.00,1.54
6650.00,1.54
6649.00,1.54
6648.00,1.55
6647.00,1.55
6646.00,1.56
6645.00,1.56
6644.00,1.57
6643.00,1.58
6642.00,1.58
6641.00,1.59
6640.00,1.60
6639.00,1.61
6638.00,1.62
6637.00,1.63
6636.00,1.64
6635.00,1.65
6634.00,1.66
6633.00,1.67
6632.00,1.68
6631.00,1.69
6630.00,1.70
6629.00,1.71
6628.00,1.71
6627.00,1.72
6626.00,1.73
6625.00,1.73
6624.00,1.73
6623.00,1.74
6622.00,1.74
6621.00,1.74
6620.00,1.74
6619.00,1.74
6618.00,1.74
6617.00,1.73
6616.00,1.73
6615.00,1.73
6614.00,1.73
6613.00,1.72
6612.00,1.72
6611.00,1.72
6610.00,1.71
6609.00,1.71
6608.00,1.70
6607.00,1.70
6606.00,1.69
6605.00,1.69
6604.00,1.69
6603.00,1.68
6602.00,1.68
6601.00,1.67
6600.00,1.67
6599.00,1.67
6598.00,1.67
6597.00,1.67
6596.00,1.67
6595.00,1.66
6594.00,1.66
6593.00,1.66
6592.00,1.66
6591.00,1.66
6590.00,1.66
6589.00,1.66
6588.00,1.66
6587.00,1.66
6586.00,1.65
6585.00,1.65
6584.00,1.65
6583.00,1.64
6582.00,1.64
6581.00,1.64
6580.00,1.63
6579.00,1.63
6578.00,1.63
6577.00,1.62
6576.00,1.62
6575.00,1.62
6574.00,1.61
6573.00,1.61
6572.00,1.61
6571.00,1.60
6570.00,1.60
6569.00,1.60
6568.00,1.60
6567.00,1.60
6566.00,1.59
6565.00,1.60
6564.00,1.60
6563.00,1.60
6562.00,1.60
6561.00,1.61
6560.00,1.61
6559.00,1.62
6558.00,1.62
6557.00,1.63
6556.00,1.63
6555.00,1.64
6554.00,1.65
6553.00,1.66
6552.00,1.67
6551.00,1.67
6550.00,1.68
6549.00,1.69
6548.00,1.70
6547.00,1.71
6546.00,1.72
6545.00,1.72
6544.00,1.73
6543.00,1.74
6542.00,1.75
6541.00,1.75
6540.00,1.76
6539.00,1.77
6538.00,1.77
6537.00,1.78
6536.00,1.78
6535.00,1.78
6534.00,1.79
6533.00,1.79
6532.00,1.79
6531.00,1.79
6530.00,1.79
6529.00,1.79
6528.00,1.79
6527.00,1.79
6526.00,1.78
6525.00,1.78
6524.00,1.78
6523.00,1.78
6522.00,1.77
6521.00,1.77
6520.00,1.77
6519.00,1.76
6518.00,1.76
6517.00,1.76
6516.00,1.75
6515.00,1.75
6514.00,1.75
6513.00,1.75
6512.00,1.74
6511.00,1.74
6510.00,1.74
6509.00,1.74
6508.00,1.74
6507.00,1.74
6506.00,1.74
6505.00,1.74
6504.00,1.74
6503.00,1.74
6502.00,1.74
6501.00,1.74
6500.00,1.74
6499.00,1.75
6498.00,1.75
6497.00,1.75
6496.00,1.75
6495.00,1.76
6494.00,1.76
6493.00,1.76
6492.00,1.76
6491.00,1.76
6490.00,1.76
6489.00,1.76
6488.00,1.76
6487.00,1.76
6486.00,1.76
6485.00,1.76
6484.00,1.76
6483.00,1.76
6482.00,1.75
6481.00,1.75
6480.00,1.75
6479.00,1.75
6478.00,1.75
6477.00,1.75
6476.00,1.75
6475.00,1.75
6474.00,1.75
6473.00,1.75
6472.00,1.75
6471.00,1.75
6470.00,1.75
6469.00,1.75
6468.00,1.75
6467.00,1.75
6466.00,1.75
6465.00,1.76
6464.00,1.76
6463.00,1.77
6462.00,1.77
6461.00,1.78
6460.00,1.78
6459.00,1.79
6458.00,1.79
6457.00,1.80
6456.00,1.80
6455.00,1.81
6454.00,1.81
6453.00,1.82
6452.00,1.82
6451.00,1.83
6450.00,1.83
6449.00,1.84
6448.00,1.84
6447.00,1.84
6446.00,1.85
6445.00,1.85
6444.00,1.85
6443.00,1.86
6442.00,1.86
6441.00,1.86
6440.00,1.86
6439.00,1.86
6438.00,1.86
6437.00,1.86
6436.00,1.86
6435.00,1.86
6434.00,1.86
6433.00,1.85
6432.00,1.85
6431.00,1.85
6430.00,1.85
6429.00,1.84
6428.00,1.84
6427.00,1.84
6426.00,1.84
6425.00,1.83
6424.00,1.83
6423.00,1.83
6422.00,1.83
6421.00,1.83
6420.00,1.83
6419.00,1.83
6418.00,1.83
6417.00,1.83
6416.00,1.83
6415.00,1.83
6414.00,1.83
6413.00,1.83
6412.00,1.83
6411.00,1.84
6410.00,1.84
6409.00,1.84
6408.00,1.84
6407.00,1.85
6406.00,1.85
6405.00,1.85
6404.00,1.86
6403.00,1.86
6402.00,1.86
6401.00,1.87
6400.00,1.87
6399.00,1.88
6398.00,1.88
6397.00,1.88
6396.00,1.89
6395.00,1.89
6394.00,1.89
6393.00,1.89
6392.00,1.88
6391.00,1.88
6390.00,1.88
6389.00,1.88
6388.00,1.88
6387.00,1.88
6386.00,1.88
6385.00,1.87
6384.00,1.87
6383.00,1.87
6382.00,1.87
6381.00,1.87
6380.00,1.87
6379.00,1.87
6378.00,1.87
6377.00,1.87
6376.00,1.87
6375.00,1.87
6374.00,1.87
6373.00,1.87
6372.00,1.87
6371.00,1.87
6370.00,1.87
6369.00,1.87
6368.00,1.88
6367.00,1.88
6366.00,1.88
6365.00,1.89
6364.00,1.89
6363.00,1.90
6362.00,1.90
6361.00,1.91
6360.00,1.91
6359.00,1.92
6358.00,1.92
6357.00,1.93
6356.00,1.93
6355.00,1.94
6354.00,1.94
6353.00,1.94
6352.00,1.95
6351.00,1.95
6350.00,1.95
6349.00,1.96
6348.00,1.96
6347.00,1.96
6346.00,1.97
6345.00,1.97
6344.00,1.97
6343.00,1.97
6342.00,1.97
6341.00,1.98
6340.00,1.98
6339.00,1.98
6338.00,1.98
6337.00,1.97
6336.00,1.97
6335.00,1.97
6334.00,1.97
6333.00,1.97
6332.00,1.96
6331.00,1.96
6330.00,1.96
6329.00,1.96
6328.00,1.96
6327.00,1.96
6326.00,1.96
6325.00,1.96
6324.00,1.96
6323.00,1.95
6322.00,1.95
6321.00,1.95
6320.00,1.95
6319.00,1.95
6318.00,1.95
6317.00,1.95
6316.00,1.96
6315.00,1.96
6314.00,1.96
6313.00,1.96
6312.00,1.96
6311.00,1.97
6310.00,1.97
6309.00,1.97
6308.00,1.97
6307.00,1.98
6306.00,1.98
6305.00,1.98
6304.00,1.99
6303.00,1.99
6302.00,1.99
6301.00,1.99
6300.00,2.00
6299.00,2.00
6298.00,2.00
6297.00,2.00
6296.00,2.00
6295.00,2.01
6294.00,2.01
6293.00,2.01
6292.00,2.01
6291.00,2.01
6290.00,2.01
6289.00,2.01
6288.00,2.01
6287.00,2.00
6286.00,2.00
6285.00,2.00
6284.00,2.00
6283.00,2.00
6282.00,1.99
6281.00,1.99
6280.00,1.99
6279.00,1.98
6278.00,1.98
6277.00,1.98
6276.00,1.98
6275.00,1.98
6274.00,1.97
6273.00,1.97
6272.00,1.97
6271.00,1.97
6270.00,1.97
6269.00,1.97
6268.00,1.97
6267.00,1.97
6266.00,1.97
6265.00,1.97
6264.00,1.97
6263.00,1.97
6262.00,1.97
6261.00,1.97
6260.00,1.97
6259.00,1.97
6258.00,1.98
6257.00,1.98
6256.00,1.98
6255.00,1.99
6254.00,1.99
6253.00,1.99
6252.00,2.00
6251.00,2.00
6250.00,2.01
6249.00,2.01
6248.00,2.01
6247.00,2.02
6246.00,2.02
6245.00,2.03
6244.00,2.03
6243.00,2.04
6242.00,2.04
6241.00,2.05
6240.00,2.06
6239.00,2.06
6238.00,2.07
6237.00,2.07
6236.00,2.08
6235.00,2.08
6234.00,2.09
6233.00,2.09
6232.00,2.10
6231.00,2.10
6230.00,2.10
6229.00,2.11
6228.00,2.11
6227.00,2.11
6226.00,2.11
6225.00,2.12
6224.00,2.12
6223.00,2.12
6222.00,2.12
6221.00,2.12
6220.00,2.12
6219.00,2.12
6218.00,2.12
6217.00,2.12
6216.00,2.11
6215.00,2.11
6214.00,2.11
6213.00,2.10
6212.00,2.10
6211.00,2.09
6210.00,2.09
6209.00,2.09
6208.00,2.08
6207.00,2.08
6206.00,2.08
6205.00,2.08
6204.00,2.08
6203.00,2.07
6202.00,2.07
6201.00,2.07
6200.00,2.07
6199.00,2.07
6198.00,2.07
6197.00,2.07
6196.00,2.07
6195.00,2.07
6194.00,2.08
6193.00,2.08
6192.00,2.08
6191.00,2.09
6190.00,2.09
6189.00,2.09
6188.00,2.10
6187.00,2.11
6186.00,2.11
6185.00,2.12
6184.00,2.12
6183.00,2.13
6182.00,2.14
6181.00,2.14
6180.00,2.15
6179.00,2.16
6178.00,2.16
6177.00,2.17
6176.00,2.18
6175.00,2.19
6174.00,2.19
6173.00,2.20
6172.00,2.20
6171.00,2.21
6170.00,2.21
6169.00,2.22
6168.00,2.22
6167.00,2.23
6166.00,2.23
6165.00,2.23
6164.00,2.24
6163.00,2.24
6162.00,2.25
6161.00,2.25
6160.00,2.25
6159.00,2.26
6158.00,2.26
6157.00,2.26
6156.00,2.26
6155.00,2.26
6154.00,2.26
6153.00,2.26
6152.00,2.26
6151.00,2.26
6150.00,2.26
6149.00,2.26
6148.00,2.26
6147.00,2.26
6146.00,2.26
6145.00,2.26
6144.00,2.26
6143.00,2.26
6142.00,2.26
6141.00,2.26
6140.00,2.26
6139.00,2.26
6138.00,2.26
6137.00,2.26
6136.00,2.25
6135.00,2.25
6134.00,2.25
6133.00,2.25
6132.00,2.24
6131.00,2.24
6130.00,2.24
6129.00,2.23
6128.00,2.23
6127.00,2.23
6126.00,2.23
6125.00,2.22
6124.00,2.22
6123.00,2.22
6122.00,2.22
6121.00,2.22
6120.00,2.21
6119.00,2.21
6118.00,2.21
6117.00,2.20
6116.00,2.20
6115.00,2.20
6114.00,2.19
6113.00,2.19
6112.00,2.18
6111.00,2.18
6110.00,2.18
6109.00,2.18
6108.00,2.17
6107.00,2.17
6106.00,2.17
6105.00,2.17
6104.00,2.17
6103.00,2.17
6102.00,2.17
6101.00,2.17
6100.00,2.17
6099.00,2.17
6098.00,2.17
6097.00,2.17
6096.00,2.17
6095.00,2.17
6094.00,2.17
6093.00,2.17
6092.00,2.18
6091.00,2.18
6090.00,2.18
6089.00,2.18
6088.00,2.18
6087.00,2.18
6086.00,2.19
6085.00,2.19
6084.00,2.19
6083.00,2.19
6082.00,2.19
6081.00,2.20
6080.00,2.20
6079.00,2.20
6078.00,2.20
6077.00,2.20
6076.00,2.20
6075.00,2.20
6074.00,2.20
6073.00,2.20
6072.00,2.20
6071.00,2.20
6070.00,2.20
6069.00,2.21
6068.00,2.21
6067.00,2.21
6066.00,2.21
6065.00,2.21
6064.00,2.21
6063.00,2.22
6062.00,2.22
6061.00,2.22
6060.00,2.22
6059.00,2.22
6058.00,2.22
6057.00,2.23
6056.00,2.23
6055.00,2.23
6054.00,2.24
6053.00,2.24
6052.00,2.24
6051.00,2.24
6050.00,2.25
6049.00,2.25
6048.00,2.25
6047.00,2.26
6046.00,2.26
6045.00,2.26
6044.00,2.26
6043.00,2.27
6042.00,2.27
6041.00,2.27
6040.00,2.27
6039.00,2.27
6038.00,2.27
6037.00,2.27
6036.00,2.27
6035.00,2.27
6034.00,2.26
6033.00,2.26
6032.00,2.26
6031.00,2.26
6030.00,2.26
6029.00,2.25
6028.00,2.25
6027.00,2.25
6026.00,2.25
6025.00,2.24
6024.00,2.24
6023.00,2.24
6022.00,2.23
6021.00,2.23
6020.00,2.23
6019.00,2.22
6018.00,2.22
6017.00,2.22
6016.00,2.21
6015.00,2.21
6014.00,2.21
6013.00,2.21
6012.00,2.21
6011.00,2.21
6010.00,2.21
6009.00,2.21
6008.00,2.21
6007.00,2.21
6006.00,2.21
6005.00,2.21
6004.00,2.21
6003.00,2.21
6002.00,2.21
6001.00,2.21
6000.00,2.22
5999.00,2.22
5998.00,2.22
5997.00,2.22
5996.00,2.22
5995.00,2.22
5994.00,2.22
5993.00,2.22
5992.00,2.22
5991.00,2.23
5990.00,2.23
5989.00,2.23
5988.00,2.23
5987.00,2.23
5986.00,2.22
5985.00,2.22
5984.00,2.22
5983.00,2.22
5982.00,2.22
5981.00,2.22
5980.00,2.22
5979.00,2.22
5978.00,2.21
5977.00,2.21
5976.00,2.21
5975.00,2.21
5974.00,2.21
5973.00,2.21
5972.00,2.21
5971.00,2.21
5970.00,2.21
5969.00,2.21
5968.00,2.21
5967.00,2.21
5966.00,2.21
5965.00,2.21
5964.00,2.20
5963.00,2.20
5962.00,2.20
5961.00,2.20
5960.00,2.20
5959.00,2.20
5958.00,2.20
5957.00,2.20
5956.00,2.20
5955.00,2.20
5954.00,2.20
5953.00,2.20
5952.00,2.20
5951.00,2.20
5950.00,2.20
5949.00,2.20
5948.00,2.20
5947.00,2.21
5946.00,2.21
5945.00,2.21
5944.00,2.21
5943.00,2.21
5942.00,2.21
5941.00,2.21
5940.00,2.21
5939.00,2.21
5938.00,2.21
5937.00,2.22
5936.00,2.22
5935.00,2.23
5934.00,2.23
5933.00,2.23
5932.00,2.24
5931.00,2.24
5930.00,2.25
5929.00,2.25
5928.00,2.25
5927.00,2.26
5926.00,2.26
5925.00,2.26
5924.00,2.26
5923.00,2.26
5922.00,2.26
5921.00,2.26
5920.00,2.26
5919.00,2.26
5918.00,2.26
5917.00,2.26
5916.00,2.27
5915.00,2.27
5914.00,2.27
5913.00,2.27
5912.00,2.27
5911.00,2.27
5910.00,2.26
5909.00,2.26
5908.00,2.26
5907.00,2.26
5906.00,2.25
5905.00,2.25
5904.00,2.24
5903.00,2.24
5902.00,2.24
5901.00,2.24
5900.00,2.23
5899.00,2.23
5898.00,2.23
5897.00,2.23
5896.00,2.23
5895.00,2.23
5894.00,2.23
5893.00,2.23
5892.00,2.23
5891.00,2.23
5890.00,2.23
5889.00,2.24
5888.00,2.24
5887.00,2.24
5886.00,2.24
5885.00,2.24
5884.00,2.25
5883.00,2.25
5882.00,2.25
5881.00,2.26
5880.00,2.26
5879.00,2.27
5878.00,2.27
5877.00,2.28
5876.00,2.28
5875.00,2.29
5874.00,2.29
5873.00,2.30
5872.00,2.30
5871.00,2.30
5870.00,2.31
5869.00,2.31
5868.00,2.31
5867.00,2.32
5866.00,2.32
5865.00,2.32
5864.00,2.32
5863.00,2.32
5862.00,2.32
5861.00,2.32
5860.00,2.32
5859.00,2.32
5858.00,2.32
5857.00,2.32
5856.00,2.32
5855.00,2.32
5854.00,2.32
5853.00,2.31
5852.00,2.31
5851.00,2.31
5850.00,2.30
5849.00,2.30
5848.00,2.29
5847.00,2.29
5846.00,2.28
5845.00,2.28
5844.00,2.27
5843.00,2.26
5842.00,2.26
5841.00,2.25
5840.00,2.25
5839.00,2.25
5838.00,2.24
5837.00,2.24
5836.00,2.24
5835.00,2.23
5834.00,2.23
5833.00,2.23
5832.00,2.23
5831.00,2.23
5830.00,2.23
5829.00,2.23
5828.00,2.22
5827.00,2.22
5826.00,2.22
5825.00,2.23
5824.00,2.23
5823.00,2.23
5822.00,2.23
5821.00,2.23
5820.00,2.24
5819.00,2.24
5818.00,2.24
5817.00,2.25
5816.00,2.25
5815.00,2.25
5814.00,2.26
5813.00,2.26
5812.00,2.26
5811.00,2.26
5810.00,2.26
5809.00,2.26
5808.00,2.26
5807.00,2.26
5806.00,2.26
5805.00,2.26
5804.00,2.26
5803.00,2.26
5802.00,2.26
5801.00,2.26
5800.00,2.26
5799.00,2.26
5798.00,2.26
5797.00,2.26
5796.00,2.26
5795.00,2.25
5794.00,2.25
5793.00,2.25
5792.00,2.24
5791.00,2.24
5790.00,2.24
5789.00,2.24
5788.00,2.23
5787.00,2.23
5786.00,2.23
5785.00,2.23
5784.00,2.23
5783.00,2.23
5782.00,2.22
5781.00,2.22
5780.00,2.22
5779.00,2.22
5778.00,2.22
5777.00,2.22
5776.00,2.22
5775.00,2.22
5774.00,2.22
5773.00,2.21
5772.00,2.21
5771.00,2.21
5770.00,2.21
5769.00,2.21
5768.00,2.21
5767.00,2.21
5766.00,2.22
5765.00,2.22
5764.00,2.22
5763.00,2.22
5762.00,2.22
5761.00,2.22
5760.00,2.23
5759.00,2.23
5758.00,2.23
5757.00,2.23
5756.00,2.23
5755.00,2.24
5754.00,2.24
5753.00,2.24
5752.00,2.24
5751.00,2.24
5750.00,2.24
5749.00,2.25
5748.00,2.25
5747.00,2.25
5746.00,2.25
5745.00,2.26
5744.00,2.26
5743.00,2.26
5742.00,2.26
5741.00,2.26
5740.00,2.26
5739.00,2.26
5738.00,2.26
5737.00,2.26
5736.00,2.26
5735.00,2.26
5734.00,2.26
5733.00,2.26
5732.00,2.26
5731.00,2.26
5730.00,2.26
5729.00,2.26
5728.00,2.26
5727.00,2.26
5726.00,2.26
5725.00,2.26
5724.00,2.26
5723.00,2.25
5722.00,2.25
5721.00,2.25
5720.00,2.24
5719.00,2.24
5718.00,2.24
5717.00,2.23
5716.00,2.23
5715.00,2.22
5714.00,2.22
5713.00,2.22
5712.00,2.21
5711.00,2.21
5710.00,2.20
5709.00,2.20
5708.00,2.20
5707.00,2.19
5706.00,2.19
5705.00,2.19
5704.00,2.18
5703.00,2.18
5702.00,2.18
5701.00,2.17
5700.00,2.17
5699.00,2.17
5698.00,2.16
5697.00,2.16
5696.00,2.16
5695.00,2.16
5694.00,2.16
5693.00,2.16
5692.00,2.16
5691.00,2.16
5690.00,2.16
5689.00,2.16
5688.00,2.16
5687.00,2.16
5686.00,2.16
5685.00,2.16
5684.00,2.16
5683.00,2.16
5682.00,2.16
5681.00,2.16
5680.00,2.16
5679.00,2.16
5678.00,2.16
5677.00,2.16
5676.00,2.16
5675.00,2.16
5674.00,2.16
5673.00,2.16
5672.00,2.16
5671.00,2.16
5670.00,2.16
5669.00,2.16
5668.00,2.16
5667.00,2.16
5666.00,2.16
5665.00,2.16
5664.00,2.16
5663.00,2.17
5662.00,2.17
5661.00,2.17
5660.00,2.17
5659.00,2.17
5658.00,2.17
5657.00,2.18
5656.00,2.18
5655.00,2.18
5654.00,2.19
5653.00,2.19
5652.00,2.19
5651.00,2.20
5650.00,2.20
5649.00,2.21
5648.00,2.21
5647.00,2.21
5646.00,2.22
5645.00,2.22
5644.00,2.22
5643.00,2.23
5642.00,2.23
5641.00,2.23
5640.00,2.23
5639.00,2.23
5638.00,2.23
5637.00,2.23
5636.00,2.24
5635.00,2.24
5634.00,2.24
5633.00,2.24
5632.00,2.24
5631.00,2.24
5630.00,2.24
5629.00,2.23
5628.00,2.23
5627.00,2.23
5626.00,2.23
5625.00,2.22
5624.00,2.22
5623.00,2.21
5622.00,2.21
5621.00,2.21
5620.00,2.21
5619.00,2.20
5618.00,2.20
5617.00,2.20
5616.00,2.20
5615.00,2.20
5614.00,2.20
5613.00,2.20
5612.00,2.20
5611.00,2.20
5610.00,2.20
5609.00,2.20
5608.00,2.20
5607.00,2.20
5606.00,2.20
5605.00,2.20
5604.00,2.20
5603.00,2.20
5602.00,2.21
5601.00,2.21
5600.00,2.21
5599.00,2.21
5598.00,2.22
5597.00,2.22
5596.00,2.22
5595.00,2.22
5594.00,2.22
5593.00,2.22
5592.00,2.22
5591.00,2.22
5590.00,2.23
5589.00,2.23
5588.00,2.23
5587.00,2.23
5586.00,2.23
5585.00,2.22
5584.00,2.22
5583.00,2.22
5582.00,2.22
5581.00,2.22
5580.00,2.22
5579.00,2.21
5578.00,2.21
5577.00,2.21
5576.00,2.21
5575.00,2.20
5574.00,2.20
5573.00,2.20
5572.00,2.20
5571.00,2.20
5570.00,2.19
5569.00,2.19
5568.00,2.19
5567.00,2.19
5566.00,2.19
5565.00,2.19
5564.00,2.19
5563.00,2.18
5562.00,2.18
5561.00,2.18
5560.00,2.18
5559.00,2.18
5558.00,2.18
5557.00,2.18
5556.00,2.18
5555.00,2.18
5554.00,2.18
5553.00,2.18
5552.00,2.18
5551.00,2.18
5550.00,2.18
5549.00,2.19
5548.00,2.19
5547.00,2.19
5546.00,2.19
5545.00,2.19
5544.00,2.19
5543.00,2.20
5542.00,2.20
5541.00,2.20
5540.00,2.20
5539.00,2.20
5538.00,2.20
5537.00,2.21
5536.00,2.21
5535.00,2.21
5534.00,2.21
5533.00,2.21
5532.00,2.21
5531.00,2.21
5530.00,2.21
5529.00,2.22
5528.00,2.22
5527.00,2.22
5526.00,2.22
5525.00,2.22
5524.00,2.22
5523.00,2.22
5522.00,2.22
5521.00,2.21
5520.00,2.21
5519.00,2.21
5518.00,2.21
5517.00,2.21
5516.00,2.21
5515.00,2.20
5514.00,2.20
5513.00,2.20
5512.00,2.20
5511.00,2.20
5510.00,2.20
5509.00,2.20
5508.00,2.20
5507.00,2.20
5506.00,2.20
5505.00,2.20
5504.00,2.20
5503.00,2.20
5502.00,2.20
5501.00,2.20
5500.00,2.21
5499.00,2.21
5498.00,2.21
5497.00,2.21
5496.00,2.21
5495.00,2.21
5494.00,2.21
5493.00,2.21
5492.00,2.22
5491.00,2.22
5490.00,2.22
5489.00,2.23
5488.00,2.23
5487.00,2.23
5486.00,2.24
5485.00,2.24
5484.00,2.24
5483.00,2.24
5482.00,2.24
5481.00,2.24
5480.00,2.24
5479.00,2.24
5478.00,2.24
5477.00,2.24
5476.00,2.24
5475.00,2.24
5474.00,2.24
5473.00,2.25
5472.00,2.25
5471.00,2.25
5470.00,2.26
5469.00,2.26
5468.00,2.27
5467.00,2.27
5466.00,2.28
5465.00,2.28
5464.00,2.28
5463.00,2.29
5462.00,2.29
5461.00,2.30
5460.00,2.30
5459.00,2.30
5458.00,2.31
5457.00,2.31
5456.00,2.32
5455.00,2.32
5454.00,2.33
5453.00,2.33
5452.00,2.33
5451.00,2.33
5450.00,2.34
5449.00,2.34
5448.00,2.34
5447.00,2.34
5446.00,2.33
5445.00,2.33
5444.00,2.33
5443.00,2.32
5442.00,2.32
5441.00,2.32
5440.00,2.31
5439.00,2.31
5438.00,2.30
5437.00,2.29
5436.00,2.29
5435.00,2.28
5434.00,2.28
5433.00,2.27
5432.00,2.27
5431.00,2.26
5430.00,2.26
5429.00,2.26
5428.00,2.25
5427.00,2.25
5426.00,2.25
5425.00,2.25
5424.00,2.25
5423.00,2.25
5422.00,2.25
5421.00,2.25
5420.00,2.25
5419.00,2.25
5418.00,2.26
5417.00,2.26
5416.00,2.26
5415.00,2.26
5414.00,2.26
5413.00,2.26
5412.00,2.27
5411.00,2.27
5410.00,2.27
5409.00,2.27
5408.00,2.28
5407.00,2.28
5406.00,2.28
5405.00,2.28
5404.00,2.28
5403.00,2.29
5402.00,2.29
5401.00,2.29
5400.00,2.28
5399.00,2.28
5398.00,2.28
5397.00,2.28
5396.00,2.28
5395.00,2.28
5394.00,2.27
5393.00,2.27
5392.00,2.26
5391.00,2.26
5390.00,2.26
5389.00,2.25
5388.00,2.25
5387.00,2.24
5386.00,2.23
5385.00,2.23
5384.00,2.22
5383.00,2.21
5382.00,2.20
5381.00,2.20
5380.00,2.19
5379.00,2.18
5378.00,2.17
5377.00,2.16
5376.00,2.15
5375.00,2.14
5374.00,2.13
5373.00,2.13
5372.00,2.12
5371.00,2.11
5370.00,2.10
5369.00,2.09
5368.00,2.09
5367.00,2.08
5366.00,2.07
5365.00,2.07
5364.00,2.06
5363.00,2.06
5362.00,2.05
5361.00,2.05
5360.00,2.04
5359.00,2.04
5358.00,2.03
5357.00,2.03
5356.00,2.02
5355.00,2.02
5354.00,2.01
5353.00,2.01
5352.00,2.01
5351.00,2.00
5350.00,2.00
5349.00,1.99
5348.00,1.99
5347.00,1.98
5346.00,1.98
5345.00,1.97
5344.00,1.97
5343.00,1.96
5342.00,1.95
5341.00,1.95
5340.00,1.94
5339.00,1.93
5338.00,1.92
5337.00,1.91
5336.00,1.91
5335.00,1.90
5334.00,1.89
5333.00,1.88
5332.00,1.87
5331.00,1.87
5330.00,1.86
5329.00,1.85
5328.00,1.83
5327.00,1.82
5326.00,1.81
5325.00,1.80
5324.00,1.79
5323.00,1.78
5322.00,1.76
5321.00,1.75
5320.00,1.74
5319.00,1.73
5318.00,1.72
5317.00,1.70
5316.00,1.69
5315.00,1.68
5314.00,1.67
5313.00,1.65
5312.00,1.64
5311.00,1.62
5310.00,1.61
5309.00,1.59
5308.00,1.58
5307.00,1.56
5306.00,1.55
5305.00,1.54
5304.00,1.52
5303.00,1.51
5302.00,1.50
5301.00,1.49
5300.00,1.48
5299.00,1.47
5298.00,1.45
5297.00,1.44
5296.00,1.43
5295.00,1.42
5294.00,1.41
5293.00,1.40
5292.00,1.39
5291.00,1.38
5290.00,1.37
5289.00,1.37
5288.00,1.36
5287.00,1.35
5286.00,1.34
5285.00,1.33
5284.00,1.33
5283.00,1.32
5282.00,1.31
5281.00,1.30
5280.00,1.30
5279.00,1.29
5278.00,1.28
5277.00,1.27
5276.00,1.27
5275.00,1.26
5274.00,1.25
5273.00,1.24
5272.00,1.24
5271.00,1.23
5270.00,1.23
5269.00,1.22
5268.00,1.21
5267.00,1.21
5266.00,1.20
5265.00,1.19
5264.00,1.19
5263.00,1.18
5262.00,1.17
5261.00,1.17
5260.00,1.16
5259.00,1.15
5258.00,1.15
5257.00,1.14
5256.00,1.14
5255.00,1.13
5254.00,1.13
5253.00,1.12
5252.00,1.12
5251.00,1.12
5250.00,1.11
5249.00,1.11
5248.00,1.11
5247.00,1.10
5246.00,1.10
5245.00,1.09
5244.00,1.09
5243.00,1.08
5242.00,1.08
5241.00,1.08
5240.00,1.07
5239.00,1.07
5238.00,1.07
5237.00,1.06
5236.00,1.06
5235.00,1.06
5234.00,1.06
5233.00,1.06
5232.00,1.06
5231.00,1.06
5230.00,1.06
5229.00,1.06
5228.00,1.06
5227.00,1.06
5226.00,1.05
5225.00,1.05
5224.00,1.05
5223.00,1.05
5222.00,1.04
5221.00,1.04
5220.00,1.04
5219.00,1.04
5218.00,1.04
5217.00,1.04
5216.00,1.04
5215.00,1.04
5214.00,1.04
5213.00,1.04
5212.00,1.04
5211.00,1.03
5210.00,1.03
5209.00,1.03
5208.00,1.03
5207.00,1.03
5206.00,1.02
5205.00,1.02
5204.00,1.01
5203.00,1.01
5202.00,1.00
5201.00,1.00
5200.00,1.00
5199.00,1.00
5198.00,0.99
5197.00,0.99
5196.00,0.99
5195.00,0.98
5194.00,0.98
5193.00,0.98
5192.00,0.98
5191.00,0.97
5190.00,0.97
5189.00,0.97
5188.00,0.97
5187.00,0.96
5186.00,0.96
5185.00,0.96
5184.00,0.96
5183.00,0.96
5182.00,0.95
5181.00,0.95
5180.00,0.95
5179.00,0.95
5178.00,0.96
5177.00,0.96
5176.00,0.96
5175.00,0.96
5174.00,0.96
5173.00,0.96
5172.00,0.97
5171.00,0.97
5170.00,0.97
5169.00,0.97
5168.00,0.98
5167.00,0.98
5166.00,0.98
5165.00,0.98
5164.00,0.98
5163.00,0.99
5162.00,0.99
5161.00,0.99
5160.00,0.99
5159.00,1.00
5158.00,1.00
5157.00,1.00
5156.00,1.00
5155.00,1.00
5154.00,1.01
5153.00,1.01
5152.00,1.01
5151.00,1.01
5150.00,1.02
5149.00,1.02
5148.00,1.02
5147.00,1.02
5146.00,1.02
5145.00,1.02
5144.00,1.02
5143.00,1.03
5142.00,1.03
5141.00,1.03
5140.00,1.03
5139.00,1.04
5138.00,1.04
5137.00,1.04
5136.00,1.05
5135.00,1.05
5134.00,1.05
5133.00,1.06
5132.00,1.06
5131.00,1.07
5130.00,1.07
5129.00,1.07
5128.00,1.08
5127.00,1.08
5126.00,1.08
5125.00,1.09
5124.00,1.09
5123.00,1.09
5122.00,1.09
5121.00,1.10
5120.00,1.10
5119.00,1.10
5118.00,1.11
5117.00,1.11
5116.00,1.11
5115.00,1.11
5114.00,1.11
5113.00,1.11
5112.00,1.11
5111.00,1.11
5110.00,1.11
5109.00,1.11
5108.00,1.11
5107.00,1.11
5106.00,1.11
5105.00,1.11
5104.00,1.10
5103.00,1.10
5102.00,1.10
5101.00,1.10
5100.00,1.10
5099.00,1.10
5098.00,1.10
5097.00,1.10
5096.00,1.10
5095.00,1.10
5094.00,1.10
5093.00,1.10
5092.00,1.10
5091.00,1.10
5090.00,1.10
5089.00,1.10
5088.00,1.10
5087.00,1.10
5086.00,1.10
5085.00,1.10
5084.00,1.11
5083.00,1.11
5082.00,1.11
5081.00,1.12
5080.00,1.12
5079.00,1.12
5078.00,1.13
5077.00,1.13
5076.00,1.14
5075.00,1.14
5074.00,1.15
5073.00,1.15
5072.00,1.16
5071.00,1.16
5070.00,1.17
5069.00,1.17
5068.00,1.18
5067.00,1.18
5066.00,1.18
5065.00,1.19
5064.00,1.19
5063.00,1.19
5062.00,1.20
5061.00,1.20
5060.00,1.20
5059.00,1.21
5058.00,1.21
5057.00,1.21
5056.00,1.22
5055.00,1.22
5054.00,1.22
5053.00,1.22
5052.00,1.22
5051.00,1.22
5050.00,1.22
5049.00,1.22
5048.00,1.22
5047.00,1.22
5046.00,1.22
5045.00,1.22
5044.00,1.22
5043.00,1.22
5042.00,1.22
5041.00,1.22
5040.00,1.22
5039.00,1.22
5038.00,1.22
5037.00,1.22
5036.00,1.22
5035.00,1.22
5034.00,1.22
5033.00,1.22
5032.00,1.22
5031.00,1.22
5030.00,1.22
5029.00,1.22
5028.00,1.22
5027.00,1.22
5026.00,1.22
5025.00,1.23
5024.00,1.23
5023.00,1.24
5022.00,1.24
5021.00,1.24
5020.00,1.25
5019.00,1.26
5018.00,1.26
5017.00,1.27
5016.00,1.27
5015.00,1.28
5014.00,1.28
5013.00,1.29
5012.00,1.29
5011.00,1.30
5010.00,1.30
5009.00,1.31
5008.00,1.31
5007.00,1.32
5006.00,1.32
5005.00,1.32
5004.00,1.33
5003.00,1.33
5002.00,1.33
5001.00,1.34
5000.00,1.34
4999.00,1.34
4998.00,1.35
4997.00,1.35
4996.00,1.35
4995.00,1.35
4994.00,1.35
4993.00,1.35
4992.00,1.35
4991.00,1.35
4990.00,1.35
4989.00,1.35
4988.00,1.35
4987.00,1.36
4986.00,1.36
4985.00,1.36
4984.00,1.36
4983.00,1.37
4982.00,1.37
4981.00,1.37
4980.00,1.38
4979.00,1.38
4978.00,1.38
4977.00,1.39
4976.00,1.39
4975.00,1.39
4974.00,1.40
4973.00,1.40
4972.00,1.40
4971.00,1.40
4970.00,1.41
4969.00,1.41
4968.00,1.41
4967.00,1.42
4966.00,1.42
4965.00,1.43
4964.00,1.43
4963.00,1.44
4962.00,1.44
4961.00,1.45
4960.00,1.45
4959.00,1.45
4958.00,1.46
4957.00,1.46
4956.00,1.46
4955.00,1.47
4954.00,1.47
4953.00,1.47
4952.00,1.47
4951.00,1.47
4950.00,1.48
4949.00,1.48
4948.00,1.48
4947.00,1.49
4946.00,1.49
4945.00,1.50
4944.00,1.50
4943.00,1.50
4942.00,1.50
4941.00,1.51
4940.00,1.51
4939.00,1.51
4938.00,1.51
4937.00,1.51
4936.00,1.51
4935.00,1.51
4934.00,1.51
4933.00,1.51
4932.00,1.51
4931.00,1.51
4930.00,1.51
4929.00,1.52
4928.00,1.52
4927.00,1.52
4926.00,1.52
4925.00,1.52
4924.00,1.52
4923.00,1.53
4922.00,1.53
4921.00,1.53
4920.00,1.53
4919.00,1.53
4918.00,1.53
4917.00,1.53
4916.00,1.53
4915.00,1.53
4914.00,1.54
4913.00,1.54
4912.00,1.54
4911.00,1.54
4910.00,1.54
4909.00,1.55
4908.00,1.55
4907.00,1.55
4906.00,1.56
4905.00,1.56
4904.00,1.56
4903.00,1.57
4902.00,1.57
4901.00,1.57
4900.00,1.58
4899.00,1.58
4898.00,1.58
4897.00,1.59
4896.00,1.59
4895.00,1.59
4894.00,1.60
4893.00,1.60
4892.00,1.61
4891.00,1.61
4890.00,1.62
4889.00,1.62
4888.00,1.63
4887.00,1.63
4886.00,1.64
4885.00,1.64
4884.00,1.65
4883.00,1.66
4882.00,1.66
4881.00,1.67
4880.00,1.67
4879.00,1.68
4878.00,1.68
4877.00,1.69
4876.00,1.69
4875.00,1.70
4874.00,1.70
4873.00,1.70
4872.00,1.71
4871.00,1.71
4870.00,1.71
4869.00,1.72
4868.00,1.72
4867.00,1.72
4866.00,1.73
4865.00,1.73
4864.00,1.73
4863.00,1.73
4862.00,1.73
4861.00,1.74
4860.00,1.74
4859.00,1.74
4858.00,1.74
4857.00,1.74
4856.00,1.74
4855.00,1.74
4854.00,1.74
4853.00,1.75
4852.00,1.75
4851.00,1.75
4850.00,1.75
4849.00,1.75
4848.00,1.75
4847.00,1.75
4846.00,1.75
4845.00,1.76
4844.00,1.76
4843.00,1.76
4842.00,1.76
4841.00,1.76
4840.00,1.76
4839.00,1.77
4838.00,1.77
4837.00,1.77
4836.00,1.77
4835.00,1.77
4834.00,1.77
4833.00,1.77
4832.00,1.77
4831.00,1.77
4830.00,1.78
4829.00,1.78
4828.00,1.78
4827.00,1.78
4826.00,1.78
4825.00,1.78
4824.00,1.78
4823.00,1.79
4822.00,1.79
4821.00,1.79
4820.00,1.79
4819.00,1.80
4818.00,1.80
4817.00,1.80
4816.00,1.81
4815.00,1.81
4814.00,1.81
4813.00,1.81
4812.00,1.82
4811.00,1.82
4810.00,1.82
4809.00,1.83
4808.00,1.83
4807.00,1.84
4806.00,1.84
4805.00,1.85
4804.00,1.85
4803.00,1.86
4802.00,1.86
4801.00,1.87
4800.00,1.87
4799.00,1.88
4798.00,1.88
4797.00,1.89
4796.00,1.89
4795.00,1.89
4794.00,1.89
4793.00,1.90
4792.00,1.90
4791.00,1.90
4790.00,1.90
4789.00,1.90
4788.00,1.90
4787.00,1.90
4786.00,1.90
4785.00,1.90
4784.00,1.91
4783.00,1.91
4782.00,1.91
4781.00,1.91
4780.00,1.91
4779.00,1.91
4778.00,1.91
4777.00,1.91
4776.00,1.92
4775.00,1.92
4774.00,1.92
4773.00,1.92
4772.00,1.92
4771.00,1.93
4770.00,1.93
4769.00,1.93
4768.00,1.94
4767.00,1.94
4766.00,1.95
4765.00,1.95
4764.00,1.96
4763.00,1.96
4762.00,1.97
4761.00,1.98
4760.00,1.98
4759.00,1.99
4758.00,1.99
4757.00,2.00
4756.00,2.00
4755.00,2.00
4754.00,2.01
4753.00,2.01
4752.00,2.02
4751.00,2.02
4750.00,2.02
4749.00,2.03
4748.00,2.03
4747.00,2.04
4746.00,2.04
4745.00,2.04
4744.00,2.05
4743.00,2.05
4742.00,2.05
4741.00,2.06
4740.00,2.06
4739.00,2.06
4738.00,2.07
4737.00,2.07
4736.00,2.07
4735.00,2.08
4734.00,2.08
4733.00,2.08
4732.00,2.09
4731.00,2.09
4730.00,2.10
4729.00,2.10
4728.00,2.11
4727.00,2.11
4726.00,2.12
4725.00,2.12
4724.00,2.13
4723.00,2.13
4722.00,2.13
4721.00,2.14
4720.00,2.14
4719.00,2.15
4718.00,2.15
4717.00,2.16
4716.00,2.16
4715.00,2.16
4714.00,2.17
4713.00,2.17
4712.00,2.18
4711.00,2.18
4710.00,2.18
4709.00,2.19
4708.00,2.19
4707.00,2.19
4706.00,2.20
4705.00,2.20
4704.00,2.20
4703.00,2.20
4702.00,2.20
4701.00,2.20
4700.00,2.20
4699.00,2.21
4698.00,2.21
4697.00,2.21
4696.00,2.21
4695.00,2.21
4694.00,2.22
4693.00,2.22
4692.00,2.22
4691.00,2.22
4690.00,2.23
4689.00,2.23
4688.00,2.23
4687.00,2.23
4686.00,2.23
4685.00,2.23
4684.00,2.23
4683.00,2.23
4682.00,2.23
4681.00,2.23
4680.00,2.23
4679.00,2.23
4678.00,2.23
4677.00,2.23
4676.00,2.23
4675.00,2.23
4674.00,2.23
4673.00,2.23
4672.00,2.23
4671.00,2.23
4670.00,2.23
4669.00,2.23
4668.00,2.23
4667.00,2.23
4666.00,2.23
4665.00,2.23
4664.00,2.24
4663.00,2.24
4662.00,2.24
4661.00,2.24
4660.00,2.24
4659.00,2.24
4658.00,2.24
4657.00,2.24
4656.00,2.25
4655.00,2.25
4654.00,2.25
4653.00,2.25
4652.00,2.26
4651.00,2.26
4650.00,2.26
4649.00,2.26
4648.00,2.27
4647.00,2.27
4646.00,2.27
4645.00,2.28
4644.00,2.28
4643.00,2.28
4642.00,2.28
4641.00,2.28
4640.00,2.29
4639.00,2.29
4638.00,2.29
4637.00,2.29
4636.00,2.29
4635.00,2.29
4634.00,2.30
4633.00,2.30
4632.00,2.30
4631.00,2.30
4630.00,2.31
4629.00,2.31
4628.00,2.31
4627.00,2.31
4626.00,2.31
4625.00,2.32
4624.00,2.32
4623.00,2.32
4622.00,2.32
4621.00,2.32
4620.00,2.32
4619.00,2.32
4618.00,2.32
4617.00,2.32
4616.00,2.33
4615.00,2.33
4614.00,2.33
4613.00,2.33
4612.00,2.33
4611.00,2.33
4610.00,2.33
4609.00,2.33
4608.00,2.33
4607.00,2.33
4606.00,2.33
4605.00,2.33
4604.00,2.33
4603.00,2.33
4602.00,2.33
4601.00,2.33
4600.00,2.33
4599.00,2.33
4598.00,2.33
4597.00,2.33
4596.00,2.33
4595.00,2.33
4594.00,2.33
4593.00,2.33
4592.00,2.33
4591.00,2.33
4590.00,2.33
4589.00,2.33
4588.00,2.33
4587.00,2.33
4586.00,2.33
4585.00,2.34
4584.00,2.34
4583.00,2.34
4582.00,2.35
4581.00,2.35
4580.00,2.36
4579.00,2.36
4578.00,2.36
4577.00,2.37
4576.00,2.37
4575.00,2.37
4574.00,2.37
4573.00,2.37
4572.00,2.37
4571.00,2.37
4570.00,2.37
4569.00,2.37
4568.00,2.38
4567.00,2.38
4566.00,2.38
4565.00,2.38
4564.00,2.38
4563.00,2.37
4562.00,2.37
4561.00,2.37
4560.00,2.37
4559.00,2.37
4558.00,2.37
4557.00,2.36
4556.00,2.36
4555.00,2.36
4554.00,2.36
4553.00,2.35
4552.00,2.35
4551.00,2.35
4550.00,2.35
4549.00,2.35
4548.00,2.35
4547.00,2.36
4546.00,2.36
4545.00,2.36
4544.00,2.36
4543.00,2.36
4542.00,2.37
4541.00,2.37
4540.00,2.37
4539.00,2.37
4538.00,2.38
4537.00,2.38
4536.00,2.38
4535.00,2.39
4534.00,2.39
4533.00,2.39
4532.00,2.40
4531.00,2.40
4530.00,2.40
4529.00,2.41
4528.00,2.41
4527.00,2.41
4526.00,2.41
4525.00,2.42
4524.00,2.42
4523.00,2.42
4522.00,2.41
4521.00,2.41
4520.00,2.41
4519.00,2.41
4518.00,2.41
4517.00,2.41
4516.00,2.40
4515.00,2.40
4514.00,2.40
4513.00,2.40
4512.00,2.40
4511.00,2.40
4510.00,2.39
4509.00,2.39
4508.00,2.39
4507.00,2.39
4506.00,2.38
4505.00,2.38
4504.00,2.38
4503.00,2.38
4502.00,2.37
4501.00,2.37
4500.00,2.37
4499.00,2.37
4498.00,2.36
4497.00,2.36
4496.00,2.36
4495.00,2.36
4494.00,2.36
4493.00,2.37
4492.00,2.37
4491.00,2.37
4490.00,2.37
4489.00,2.37
4488.00,2.37
4487.00,2.37
4486.00,2.38
4485.00,2.38
4484.00,2.38
4483.00,2.38
4482.00,2.38
4481.00,2.38
4480.00,2.39
4479.00,2.39
4478.00,2.39
4477.00,2.40
4476.00,2.40
4475.00,2.40
4474.00,2.40
4473.00,2.41
4472.00,2.41
4471.00,2.41
4470.00,2.41
4469.00,2.41
4468.00,2.41
4467.00,2.41
4466.00,2.41
4465.00,2.41
4464.00,2.40
4463.00,2.40
4462.00,2.40
4461.00,2.39
4460.00,2.39
4459.00,2.39
4458.00,2.38
4457.00,2.38
4456.00,2.37
4455.00,2.37
4454.00,2.36
4453.00,2.36
4452.00,2.35
4451.00,2.34
4450.00,2.34
4449.00,2.33
4448.00,2.32
4447.00,2.31
4446.00,2.30
4445.00,2.30
4444.00,2.29
4443.00,2.28
4442.00,2.27
4441.00,2.26
4440.00,2.25
4439.00,2.25
4438.00,2.24
4437.00,2.23
4436.00,2.22
4435.00,2.22
4434.00,2.21
4433.00,2.21
4432.00,2.20
4431.00,2.19
4430.00,2.18
4429.00,2.18
4428.00,2.17
4427.00,2.16
4426.00,2.16
4425.00,2.15
4424.00,2.15
4423.00,2.14
4422.00,2.14
4421.00,2.13
4420.00,2.13
4419.00,2.13
4418.00,2.12
4417.00,2.12
4416.00,2.11
4415.00,2.11
4414.00,2.10
4413.00,2.10
4412.00,2.09
4411.00,2.09
4410.00,2.08
4409.00,2.08
4408.00,2.08
4407.00,2.07
4406.00,2.07
4405.00,2.07
4404.00,2.07
4403.00,2.07
4402.00,2.07
4401.00,2.08
4400.00,2.08
4399.00,2.08
4398.00,2.08
4397.00,2.08
4396.00,2.08
4395.00,2.08
4394.00,2.09
4393.00,2.09
4392.00,2.09
4391.00,2.10
4390.00,2.10
4389.00,2.11
4388.00,2.12
4387.00,2.12
4386.00,2.13
4385.00,2.14
4384.00,2.15
4383.00,2.16
4382.00,2.17
4381.00,2.17
4380.00,2.18
4379.00,2.19
4378.00,2.19
4377.00,2.19
4376.00,2.20
4375.00,2.20
4374.00,2.21
4373.00,2.21
4372.00,2.21
4371.00,2.22
4370.00,2.22
4369.00,2.22
4368.00,2.22
4367.00,2.22
4366.00,2.22
4365.00,2.22
4364.00,2.22
4363.00,2.22
4362.00,2.21
4361.00,2.21
4360.00,2.20
4359.00,2.20
4358.00,2.19
4357.00,2.18
4356.00,2.17
4355.00,2.16
4354.00,2.16
4353.00,2.15
4352.00,2.14
4351.00,2.13
4350.00,2.13
4349.00,2.12
4348.00,2.11
4347.00,2.11
4346.00,2.10
4345.00,2.10
4344.00,2.10
4343.00,2.10
4342.00,2.10
4341.00,2.10
4340.00,2.10
4339.00,2.10
4338.00,2.10
4337.00,2.10
4336.00,2.11
4335.00,2.11
4334.00,2.12
4333.00,2.13
4332.00,2.14
4331.00,2.14
4330.00,2.15
4329.00,2.16
4328.00,2.17
4327.00,2.18
4326.00,2.19
4325.00,2.20
4324.00,2.21
4323.00,2.22
4322.00,2.23
4321.00,2.23
4320.00,2.24
4319.00,2.25
4318.00,2.26
4317.00,2.26
4316.00,2.27
4315.00,2.27
4314.00,2.28
4313.00,2.28
4312.00,2.28
4311.00,2.29
4310.00,2.29
4309.00,2.29
4308.00,2.29
4307.00,2.29
4306.00,2.30
4305.00,2.30
4304.00,2.30
4303.00,2.30
4302.00,2.30
4301.00,2.31
4300.00,2.31
4299.00,2.31
4298.00,2.31
4297.00,2.31
4296.00,2.31
4295.00,2.31
4294.00,2.31
4293.00,2.30
4292.00,2.30
4291.00,2.30
4290.00,2.30
4289.00,2.30
4288.00,2.30
4287.00,2.30
4286.00,2.30
4285.00,2.30
4284.00,2.30
4283.00,2.30
4282.00,2.30
4281.00,2.29
4280.00,2.29
4279.00,2.29
4278.00,2.28
4277.00,2.28
4276.00,2.27
4275.00,2.27
4274.00,2.26
4273.00,2.26
4272.00,2.25
4271.00,2.24
4270.00,2.24
4269.00,2.23
4268.00,2.23
4267.00,2.23
4266.00,2.22
4265.00,2.22
4264.00,2.22
4263.00,2.21
4262.00,2.21
4261.00,2.21
4260.00,2.20
4259.00,2.20
4258.00,2.20
4257.00,2.19
4256.00,2.19
4255.00,2.19
4254.00,2.19
4253.00,2.19
4252.00,2.19
4251.00,2.19
4250.00,2.20
4249.00,2.20
4248.00,2.20
4247.00,2.20
4246.00,2.21
4245.00,2.21
4244.00,2.22
4243.00,2.22
4242.00,2.23
4241.00,2.23
4240.00,2.24
4239.00,2.24
4238.00,2.24
4237.00,2.25
4236.00,2.25
4235.00,2.26
4234.00,2.26
4233.00,2.27
4232.00,2.27
4231.00,2.28
4230.00,2.28
4229.00,2.29
4228.00,2.29
4227.00,2.30
4226.00,2.30
4225.00,2.30
4224.00,2.31
4223.00,2.31
4222.00,2.31
4221.00,2.31
4220.00,2.31
4219.00,2.32
4218.00,2.31
4217.00,2.31
4216.00,2.31
4215.00,2.31
4214.00,2.31
4213.00,2.30
4212.00,2.30
4211.00,2.30
4210.00,2.30
4209.00,2.29
4208.00,2.29
4207.00,2.28
4206.00,2.28
4205.00,2.27
4204.00,2.26
4203.00,2.26
4202.00,2.25
4201.00,2.24
4200.00,2.24
4199.00,2.23
4198.00,2.23
4197.00,2.22
4196.00,2.22
4195.00,2.22
4194.00,2.22
4193.00,2.22
4192.00,2.21
4191.00,2.21
4190.00,2.21
4189.00,2.21
4188.00,2.21
4187.00,2.21
4186.00,2.21
4185.00,2.22
4184.00,2.22
4183.00,2.23
4182.00,2.23
4181.00,2.24
4180.00,2.25
4179.00,2.26
4178.00,2.27
4177.00,2.27
4176.00,2.28
4175.00,2.29
4174.00,2.30
4173.00,2.30
4172.00,2.31
4171.00,2.31
4170.00,2.31
4169.00,2.31
4168.00,2.32
4167.00,2.32
4166.00,2.32
4165.00,2.32
4164.00,2.32
4163.00,2.32
4162.00,2.32
4161.00,2.32
4160.00,2.32
4159.00,2.32
4158.00,2.31
4157.00,2.31
4156.00,2.30
4155.00,2.29
4154.00,2.28
4153.00,2.27
4152.00,2.26
4151.00,2.26
4150.00,2.25
4149.00,2.24
4148.00,2.23
4147.00,2.22
4146.00,2.21
4145.00,2.20
4144.00,2.20
4143.00,2.19
4142.00,2.18
4141.00,2.17
4140.00,2.16
4139.00,2.15
4138.00,2.14
4137.00,2.13
4136.00,2.13
4135.00,2.12
4134.00,2.11
4133.00,2.11
4132.00,2.10
4131.00,2.10
4130.00,2.09
4129.00,2.09
4128.00,2.09
4127.00,2.08
4126.00,2.08
4125.00,2.08
4124.00,2.08
4123.00,2.08
4122.00,2.08
4121.00,2.08
4120.00,2.08
4119.00,2.08
4118.00,2.08
4117.00,2.09
4116.00,2.09
4115.00,2.10
4114.00,2.11
4113.00,2.12
4112.00,2.13
4111.00,2.14
4110.00,2.15
4109.00,2.16
4108.00,2.17
4107.00,2.18
4106.00,2.19
4105.00,2.20
4104.00,2.21
4103.00,2.22
4102.00,2.23
4101.00,2.24
4100.00,2.25
4099.00,2.26
4098.00,2.27
4097.00,2.28
4096.00,2.28
4095.00,2.29
4094.00,2.30
4093.00,2.31
4092.00,2.32
4091.00,2.32
4090.00,2.33
4089.00,2.33
4088.00,2.33
4087.00,2.34
4086.00,2.34
4085.00,2.34
4084.00,2.34
4083.00,2.34
4082.00,2.34
4081.00,2.34
4080.00,2.34
4079.00,2.34
4078.00,2.34
4077.00,2.34
4076.00,2.34
4075.00,2.34
4074.00,2.33
4073.00,2.33
4072.00,2.33
4071.00,2.33
4070.00,2.32
4069.00,2.32
4068.00,2.31
4067.00,2.30
4066.00,2.29
4065.00,2.29
4064.00,2.28
4063.00,2.27
4062.00,2.26
4061.00,2.25
4060.00,2.24
4059.00,2.23
4058.00,2.22
4057.00,2.21
4056.00,2.20
4055.00,2.19
4054.00,2.18
4053.00,2.17
4052.00,2.16
4051.00,2.15
4050.00,2.14
4049.00,2.13
4048.00,2.12
4047.00,2.12
4046.00,2.11
4045.00,2.11
4044.00,2.10
4043.00,2.10
4042.00,2.10
4041.00,2.09
4040.00,2.09
4039.00,2.09
4038.00,2.10
4037.00,2.10
4036.00,2.10
4035.00,2.10
4034.00,2.11
4033.00,2.11
4032.00,2.12
4031.00,2.12
4030.00,2.13
4029.00,2.13
4028.00,2.14
4027.00,2.14
4026.00,2.15
4025.00,2.16
4024.00,2.16
4023.00,2.17
4022.00,2.18
4021.00,2.19
4020.00,2.19
4019.00,2.20
4018.00,2.20
4017.00,2.21
4016.00,2.21
4015.00,2.22
4014.00,2.23
4013.00,2.24
4012.00,2.24
4011.00,2.25
4010.00,2.26
4009.00,2.27
4008.00,2.29
4007.00,2.30
4006.00,2.30
4005.00,2.31
4004.00,2.32
4003.00,2.33
4002.00,2.34
4001.00,2.35
4000.00,2.36
