创建为新数据集,样品 1135 用户 Administrator 日期 星期二, 七月 30 2019
cm-1,%T
10000.00,2.18
9999.00,2.22
9998.00,2.26
9997.00,2.30
9996.00,2.33
9995.00,2.37
9994.00,2.40
9993.00,2.43
9992.00,2.46
9991.00,2.49
9990.00,2.52
9989.00,2.54
9988.00,2.56
9987.00,2.58
9986.00,2.60
9985.00,2.62
9984.00,2.63
9983.00,2.64
9982.00,2.65
9981.00,2.65
9980.00,2.65
9979.00,2.65
9978.00,2.64
9977.00,2.63
9976.00,2.61
9975.00,2.59
9974.00,2.56
9973.00,2.54
9972.00,2.51
9971.00,2.47
9970.00,2.44
9969.00,2.40
9968.00,2.37
9967.00,2.33
9966.00,2.29
9965.00,2.26
9964.00,2.22
9963.00,2.18
9962.00,2.14
9961.00,2.10
9960.00,2.06
9959.00,2.02
9958.00,1.99
9957.00,1.95
9956.00,1.91
9955.00,1.88
9954.00,1.85
9953.00,1.81
9952.00,1.78
9951.00,1.75
9950.00,1.73
9949.00,1.70
9948.00,1.67
9947.00,1.65
9946.00,1.63
9945.00,1.60
9944.00,1.57
9943.00,1.55
9942.00,1.52
9941.00,1.50
9940.00,1.47
9939.00,1.45
9938.00,1.42
9937.00,1.40
9936.00,1.38
9935.00,1.36
9934.00,1.34
9933.00,1.32
9932.00,1.31
9931.00,1.30
9930.00,1.28
9929.00,1.27
9928.00,1.26
9927.00,1.26
9926.00,1.25
9925.00,1.25
9924.00,1.24
9923.00,1.24
9922.00,1.24
9921.00,1.25
9920.00,1.26
9919.00,1.27
9918.00,1.29
9917.00,1.31
9916.00,1.34
9915.00,1.36
9914.00,1.39
9913.00,1.42
9912.00,1.45
9911.00,1.49
9910.00,1.52
9909.00,1.55
9908.00,1.58
9907.00,1.61
9906.00,1.64
9905.00,1.66
9904.00,1.69
9903.00,1.71
9902.00,1.73
9901.00,1.75
9900.00,1.77
9899.00,1.78
9898.00,1.80
9897.00,1.81
9896.00,1.82
9895.00,1.82
9894.00,1.82
9893.00,1.82
9892.00,1.82
9891.00,1.81
9890.00,1.80
9889.00,1.78
9888.00,1.77
9887.00,1.75
9886.00,1.74
9885.00,1.72
9884.00,1.70
9883.00,1.69
9882.00,1.67
9881.00,1.66
9880.00,1.65
9879.00,1.64
9878.00,1.63
9877.00,1.62
9876.00,1.62
9875.00,1.62
9874.00,1.62
9873.00,1.62
9872.00,1.62
9871.00,1.63
9870.00,1.64
9869.00,1.66
9868.00,1.67
9867.00,1.69
9866.00,1.70
9865.00,1.72
9864.00,1.74
9863.00,1.76
9862.00,1.77
9861.00,1.79
9860.00,1.79
9859.00,1.80
9858.00,1.80
9857.00,1.80
9856.00,1.80
9855.00,1.79
9854.00,1.78
9853.00,1.77
9852.00,1.76
9851.00,1.74
9850.00,1.72
9849.00,1.71
9848.00,1.69
9847.00,1.67
9846.00,1.66
9845.00,1.64
9844.00,1.62
9843.00,1.60
9842.00,1.58
9841.00,1.57
9840.00,1.55
9839.00,1.53
9838.00,1.52
9837.00,1.51
9836.00,1.50
9835.00,1.49
9834.00,1.49
9833.00,1.49
9832.00,1.49
9831.00,1.50
9830.00,1.50
9829.00,1.51
9828.00,1.53
9827.00,1.54
9826.00,1.56
9825.00,1.58
9824.00,1.60
9823.00,1.61
9822.00,1.63
9821.00,1.64
9820.00,1.65
9819.00,1.66
9818.00,1.66
9817.00,1.67
9816.00,1.67
9815.00,1.66
9814.00,1.66
9813.00,1.65
9812.00,1.65
9811.00,1.64
9810.00,1.63
9809.00,1.63
9808.00,1.62
9807.00,1.61
9806.00,1.61
9805.00,1.60
9804.00,1.60
9803.00,1.59
9802.00,1.59
9801.00,1.58
9800.00,1.57
9799.00,1.57
9798.00,1.56
9797.00,1.55
9796.00,1.54
9795.00,1.53
9794.00,1.53
9793.00,1.53
9792.00,1.53
9791.00,1.53
9790.00,1.54
9789.00,1.55
9788.00,1.56
9787.00,1.57
9786.00,1.59
9785.00,1.60
9784.00,1.62
9783.00,1.63
9782.00,1.64
9781.00,1.65
9780.00,1.66
9779.00,1.67
9778.00,1.67
9777.00,1.67
9776.00,1.67
9775.00,1.67
9774.00,1.67
9773.00,1.67
9772.00,1.67
9771.00,1.66
9770.00,1.66
9769.00,1.66
9768.00,1.66
9767.00,1.65
9766.00,1.65
9765.00,1.64
9764.00,1.64
9763.00,1.63
9762.00,1.62
9761.00,1.61
9760.00,1.60
9759.00,1.59
9758.00,1.58
9757.00,1.57
9756.00,1.56
9755.00,1.56
9754.00,1.55
9753.00,1.54
9752.00,1.54
9751.00,1.54
9750.00,1.54
9749.00,1.55
9748.00,1.56
9747.00,1.57
9746.00,1.58
9745.00,1.59
9744.00,1.60
9743.00,1.62
9742.00,1.63
9741.00,1.65
9740.00,1.67
9739.00,1.68
9738.00,1.70
9737.00,1.72
9736.00,1.73
9735.00,1.75
9734.00,1.76
9733.00,1.78
9732.00,1.79
9731.00,1.81
9730.00,1.82
9729.00,1.83
9728.00,1.83
9727.00,1.84
9726.00,1.84
9725.00,1.85
9724.00,1.84
9723.00,1.84
9722.00,1.83
9721.00,1.82
9720.00,1.81
9719.00,1.80
9718.00,1.79
9717.00,1.77
9716.00,1.76
9715.00,1.74
9714.00,1.73
9713.00,1.71
9712.00,1.69
9711.00,1.68
9710.00,1.66
9709.00,1.63
9708.00,1.61
9707.00,1.59
9706.00,1.56
9705.00,1.54
9704.00,1.52
9703.00,1.50
9702.00,1.48
9701.00,1.46
9700.00,1.44
9699.00,1.42
9698.00,1.41
9697.00,1.40
9696.00,1.39
9695.00,1.39
9694.00,1.39
9693.00,1.39
9692.00,1.39
9691.00,1.39
9690.00,1.39
9689.00,1.40
9688.00,1.40
9687.00,1.41
9686.00,1.41
9685.00,1.41
9684.00,1.42
9683.00,1.43
9682.00,1.43
9681.00,1.44
9680.00,1.46
9679.00,1.47
9678.00,1.48
9677.00,1.49
9676.00,1.51
9675.00,1.52
9674.00,1.54
9673.00,1.55
9672.00,1.57
9671.00,1.58
9670.00,1.59
9669.00,1.59
9668.00,1.59
9667.00,1.59
9666.00,1.59
9665.00,1.58
9664.00,1.58
9663.00,1.56
9662.00,1.55
9661.00,1.54
9660.00,1.52
9659.00,1.51
9658.00,1.49
9657.00,1.47
9656.00,1.46
9655.00,1.44
9654.00,1.42
9653.00,1.40
9652.00,1.38
9651.00,1.35
9650.00,1.33
9649.00,1.31
9648.00,1.29
9647.00,1.26
9646.00,1.24
9645.00,1.22
9644.00,1.20
9643.00,1.18
9642.00,1.16
9641.00,1.15
9640.00,1.13
9639.00,1.13
9638.00,1.12
9637.00,1.12
9636.00,1.12
9635.00,1.13
9634.00,1.13
9633.00,1.14
9632.00,1.16
9631.00,1.17
9630.00,1.19
9629.00,1.21
9628.00,1.22
9627.00,1.24
9626.00,1.26
9625.00,1.28
9624.00,1.30
9623.00,1.32
9622.00,1.33
9621.00,1.35
9620.00,1.36
9619.00,1.38
9618.00,1.39
9617.00,1.40
9616.00,1.41
9615.00,1.43
9614.00,1.44
9613.00,1.44
9612.00,1.45
9611.00,1.45
9610.00,1.45
9609.00,1.45
9608.00,1.45
9607.00,1.44
9606.00,1.43
9605.00,1.42
9604.00,1.40
9603.00,1.38
9602.00,1.36
9601.00,1.35
9600.00,1.33
9599.00,1.31
9598.00,1.29
9597.00,1.28
9596.00,1.27
9595.00,1.26
9594.00,1.25
9593.00,1.24
9592.00,1.23
9591.00,1.23
9590.00,1.22
9589.00,1.21
9588.00,1.20
9587.00,1.19
9586.00,1.19
9585.00,1.18
9584.00,1.18
9583.00,1.17
9582.00,1.17
9581.00,1.17
9580.00,1.17
9579.00,1.18
9578.00,1.18
9577.00,1.19
9576.00,1.19
9575.00,1.20
9574.00,1.21
9573.00,1.21
9572.00,1.22
9571.00,1.22
9570.00,1.23
9569.00,1.23
9568.00,1.23
9567.00,1.23
9566.00,1.23
9565.00,1.23
9564.00,1.23
9563.00,1.23
9562.00,1.23
9561.00,1.23
9560.00,1.22
9559.00,1.22
9558.00,1.21
9557.00,1.20
9556.00,1.20
9555.00,1.19
9554.00,1.19
9553.00,1.18
9552.00,1.18
9551.00,1.17
9550.00,1.17
9549.00,1.17
9548.00,1.17
9547.00,1.17
9546.00,1.16
9545.00,1.16
9544.00,1.16
9543.00,1.16
9542.00,1.16
9541.00,1.16
9540.00,1.15
9539.00,1.15
9538.00,1.15
9537.00,1.15
9536.00,1.15
9535.00,1.16
9534.00,1.16
9533.00,1.17
9532.00,1.18
9531.00,1.18
9530.00,1.19
9529.00,1.20
9528.00,1.20
9527.00,1.21
9526.00,1.21
9525.00,1.21
9524.00,1.22
9523.00,1.22
9522.00,1.22
9521.00,1.23
9520.00,1.23
9519.00,1.24
9518.00,1.25
9517.00,1.25
9516.00,1.26
9515.00,1.27
9514.00,1.28
9513.00,1.29
9512.00,1.30
9511.00,1.32
9510.00,1.33
9509.00,1.34
9508.00,1.36
9507.00,1.37
9506.00,1.38
9505.00,1.40
9504.00,1.41
9503.00,1.43
9502.00,1.45
9501.00,1.47
9500.00,1.49
9499.00,1.51
9498.00,1.53
9497.00,1.55
9496.00,1.58
9495.00,1.60
9494.00,1.62
9493.00,1.64
9492.00,1.66
9491.00,1.68
9490.00,1.71
9489.00,1.72
9488.00,1.74
9487.00,1.76
9486.00,1.77
9485.00,1.79
9484.00,1.80
9483.00,1.80
9482.00,1.81
9481.00,1.81
9480.00,1.81
9479.00,1.81
9478.00,1.81
9477.00,1.81
9476.00,1.80
9475.00,1.79
9474.00,1.78
9473.00,1.77
9472.00,1.75
9471.00,1.73
9470.00,1.71
9469.00,1.68
9468.00,1.66
9467.00,1.63
9466.00,1.60
9465.00,1.57
9464.00,1.53
9463.00,1.50
9462.00,1.47
9461.00,1.43
9460.00,1.40
9459.00,1.37
9458.00,1.34
9457.00,1.31
9456.00,1.29
9455.00,1.26
9454.00,1.24
9453.00,1.22
9452.00,1.20
9451.00,1.18
9450.00,1.17
9449.00,1.15
9448.00,1.14
9447.00,1.13
9446.00,1.12
9445.00,1.11
9444.00,1.10
9443.00,1.10
9442.00,1.09
9441.00,1.09
9440.00,1.09
9439.00,1.08
9438.00,1.08
9437.00,1.08
9436.00,1.08
9435.00,1.08
9434.00,1.08
9433.00,1.08
9432.00,1.07
9431.00,1.07
9430.00,1.07
9429.00,1.07
9428.00,1.07
9427.00,1.07
9426.00,1.07
9425.00,1.06
9424.00,1.06
9423.00,1.06
9422.00,1.06
9421.00,1.06
9420.00,1.06
9419.00,1.06
9418.00,1.06
9417.00,1.06
9416.00,1.07
9415.00,1.07
9414.00,1.08
9413.00,1.08
9412.00,1.09
9411.00,1.10
9410.00,1.11
9409.00,1.12
9408.00,1.13
9407.00,1.14
9406.00,1.15
9405.00,1.16
9404.00,1.18
9403.00,1.19
9402.00,1.21
9401.00,1.22
9400.00,1.23
9399.00,1.25
9398.00,1.26
9397.00,1.27
9396.00,1.28
9395.00,1.29
9394.00,1.30
9393.00,1.31
9392.00,1.31
9391.00,1.32
9390.00,1.32
9389.00,1.32
9388.00,1.33
9387.00,1.33
9386.00,1.33
9385.00,1.33
9384.00,1.33
9383.00,1.32
9382.00,1.32
9381.00,1.31
9380.00,1.30
9379.00,1.29
9378.00,1.28
9377.00,1.27
9376.00,1.25
9375.00,1.23
9374.00,1.22
9373.00,1.20
9372.00,1.18
9371.00,1.16
9370.00,1.15
9369.00,1.13
9368.00,1.11
9367.00,1.10
9366.00,1.09
9365.00,1.07
9364.00,1.06
9363.00,1.05
9362.00,1.04
9361.00,1.02
9360.00,1.01
9359.00,0.99
9358.00,0.98
9357.00,0.97
9356.00,0.96
9355.00,0.95
9354.00,0.95
9353.00,0.94
9352.00,0.94
9351.00,0.93
9350.00,0.93
9349.00,0.93
9348.00,0.94
9347.00,0.94
9346.00,0.95
9345.00,0.96
9344.00,0.97
9343.00,0.98
9342.00,1.00
9341.00,1.01
9340.00,1.02
9339.00,1.04
9338.00,1.05
9337.00,1.06
9336.00,1.08
9335.00,1.09
9334.00,1.10
9333.00,1.12
9332.00,1.13
9331.00,1.14
9330.00,1.16
9329.00,1.17
9328.00,1.18
9327.00,1.19
9326.00,1.20
9325.00,1.22
9324.00,1.23
9323.00,1.24
9322.00,1.25
9321.00,1.26
9320.00,1.26
9319.00,1.27
9318.00,1.27
9317.00,1.26
9316.00,1.26
9315.00,1.25
9314.00,1.24
9313.00,1.24
9312.00,1.23
9311.00,1.22
9310.00,1.21
9309.00,1.21
9308.00,1.20
9307.00,1.20
9306.00,1.20
9305.00,1.20
9304.00,1.19
9303.00,1.19
9302.00,1.19
9301.00,1.19
9300.00,1.19
9299.00,1.18
9298.00,1.18
9297.00,1.17
9296.00,1.17
9295.00,1.17
9294.00,1.16
9293.00,1.16
9292.00,1.17
9291.00,1.17
9290.00,1.18
9289.00,1.18
9288.00,1.19
9287.00,1.20
9286.00,1.22
9285.00,1.23
9284.00,1.24
9283.00,1.26
9282.00,1.27
9281.00,1.29
9280.00,1.30
9279.00,1.31
9278.00,1.33
9277.00,1.35
9276.00,1.36
9275.00,1.38
9274.00,1.40
9273.00,1.42
9272.00,1.45
9271.00,1.47
9270.00,1.49
9269.00,1.52
9268.00,1.54
9267.00,1.56
9266.00,1.58
9265.00,1.60
9264.00,1.61
9263.00,1.62
9262.00,1.63
9261.00,1.64
9260.00,1.65
9259.00,1.65
9258.00,1.65
9257.00,1.65
9256.00,1.65
9255.00,1.65
9254.00,1.65
9253.00,1.64
9252.00,1.64
9251.00,1.63
9250.00,1.63
9249.00,1.62
9248.00,1.61
9247.00,1.60
9246.00,1.58
9245.00,1.57
9244.00,1.55
9243.00,1.53
9242.00,1.52
9241.00,1.50
9240.00,1.48
9239.00,1.46
9238.00,1.45
9237.00,1.43
9236.00,1.42
9235.00,1.41
9234.00,1.40
9233.00,1.39
9232.00,1.38
9231.00,1.38
9230.00,1.38
9229.00,1.38
9228.00,1.38
9227.00,1.38
9226.00,1.38
9225.00,1.38
9224.00,1.38
9223.00,1.39
9222.00,1.39
9221.00,1.39
9220.00,1.39
9219.00,1.39
9218.00,1.38
9217.00,1.38
9216.00,1.38
9215.00,1.38
9214.00,1.38
9213.00,1.37
9212.00,1.37
9211.00,1.37
9210.00,1.37
9209.00,1.36
9208.00,1.36
9207.00,1.36
9206.00,1.36
9205.00,1.35
9204.00,1.34
9203.00,1.34
9202.00,1.33
9201.00,1.32
9200.00,1.31
9199.00,1.30
9198.00,1.29
9197.00,1.28
9196.00,1.28
9195.00,1.28
9194.00,1.28
9193.00,1.28
9192.00,1.29
9191.00,1.30
9190.00,1.32
9189.00,1.33
9188.00,1.35
9187.00,1.38
9186.00,1.40
9185.00,1.43
9184.00,1.45
9183.00,1.48
9182.00,1.50
9181.00,1.53
9180.00,1.55
9179.00,1.58
9178.00,1.60
9177.00,1.63
9176.00,1.65
9175.00,1.68
9174.00,1.70
9173.00,1.72
9172.00,1.74
9171.00,1.75
9170.00,1.76
9169.00,1.77
9168.00,1.78
9167.00,1.78
9166.00,1.78
9165.00,1.78
9164.00,1.77
9163.00,1.77
9162.00,1.75
9161.00,1.74
9160.00,1.73
9159.00,1.71
9158.00,1.69
9157.00,1.67
9156.00,1.65
9155.00,1.63
9154.00,1.62
9153.00,1.60
9152.00,1.57
9151.00,1.55
9150.00,1.53
9149.00,1.51
9148.00,1.49
9147.00,1.46
9146.00,1.44
9145.00,1.42
9144.00,1.40
9143.00,1.38
9142.00,1.36
9141.00,1.35
9140.00,1.33
9139.00,1.31
9138.00,1.29
9137.00,1.28
9136.00,1.26
9135.00,1.24
9134.00,1.22
9133.00,1.20
9132.00,1.19
9131.00,1.17
9130.00,1.15
9129.00,1.13
9128.00,1.11
9127.00,1.09
9126.00,1.08
9125.00,1.06
9124.00,1.05
9123.00,1.04
9122.00,1.03
9121.00,1.02
9120.00,1.02
9119.00,1.01
9118.00,1.01
9117.00,1.01
9116.00,1.01
9115.00,1.01
9114.00,1.00
9113.00,1.00
9112.00,1.01
9111.00,1.01
9110.00,1.00
9109.00,1.00
9108.00,1.00
9107.00,1.00
9106.00,1.00
9105.00,1.00
9104.00,0.99
9103.00,0.99
9102.00,0.99
9101.00,0.98
9100.00,0.98
9099.00,0.97
9098.00,0.96
9097.00,0.95
9096.00,0.94
9095.00,0.93
9094.00,0.92
9093.00,0.91
9092.00,0.89
9091.00,0.88
9090.00,0.87
9089.00,0.86
9088.00,0.85
9087.00,0.84
9086.00,0.83
9085.00,0.83
9084.00,0.83
9083.00,0.83
9082.00,0.83
9081.00,0.84
9080.00,0.85
9079.00,0.86
9078.00,0.87
9077.00,0.88
9076.00,0.89
9075.00,0.91
9074.00,0.93
9073.00,0.95
9072.00,0.96
9071.00,0.98
9070.00,1.00
9069.00,1.03
9068.00,1.05
9067.00,1.07
9066.00,1.10
9065.00,1.12
9064.00,1.14
9063.00,1.16
9062.00,1.18
9061.00,1.20
9060.00,1.22
9059.00,1.23
9058.00,1.25
9057.00,1.26
9056.00,1.27
9055.00,1.28
9054.00,1.28
9053.00,1.29
9052.00,1.29
9051.00,1.29
9050.00,1.30
9049.00,1.30
9048.00,1.29
9047.00,1.29
9046.00,1.29
9045.00,1.29
9044.00,1.28
9043.00,1.28
9042.00,1.28
9041.00,1.27
9040.00,1.27
9039.00,1.26
9038.00,1.26
9037.00,1.25
9036.00,1.25
9035.00,1.24
9034.00,1.24
9033.00,1.23
9032.00,1.23
9031.00,1.22
9030.00,1.22
9029.00,1.22
9028.00,1.22
9027.00,1.22
9026.00,1.22
9025.00,1.22
9024.00,1.22
9023.00,1.23
9022.00,1.23
9021.00,1.23
9020.00,1.23
9019.00,1.23
9018.00,1.23
9017.00,1.23
9016.00,1.23
9015.00,1.23
9014.00,1.23
9013.00,1.23
9012.00,1.22
9011.00,1.22
9010.00,1.22
9009.00,1.22
9008.00,1.21
9007.00,1.21
9006.00,1.21
9005.00,1.21
9004.00,1.21
9003.00,1.22
9002.00,1.22
9001.00,1.22
9000.00,1.22
8999.00,1.23
8998.00,1.23
8997.00,1.23
8996.00,1.23
8995.00,1.23
8994.00,1.24
8993.00,1.24
8992.00,1.25
8991.00,1.26
8990.00,1.27
8989.00,1.28
8988.00,1.29
8987.00,1.30
8986.00,1.31
8985.00,1.31
8984.00,1.32
8983.00,1.33
8982.00,1.33
8981.00,1.33
8980.00,1.34
8979.00,1.33
8978.00,1.33
8977.00,1.32
8976.00,1.32
8975.00,1.31
8974.00,1.30
8973.00,1.29
8972.00,1.28
8971.00,1.28
8970.00,1.27
8969.00,1.27
8968.00,1.26
8967.00,1.25
8966.00,1.25
8965.00,1.24
8964.00,1.22
8963.00,1.21
8962.00,1.20
8961.00,1.18
8960.00,1.17
8959.00,1.15
8958.00,1.14
8957.00,1.12
8956.00,1.11
8955.00,1.10
8954.00,1.09
8953.00,1.09
8952.00,1.08
8951.00,1.08
8950.00,1.08
8949.00,1.08
8948.00,1.07
8947.00,1.07
8946.00,1.06
8945.00,1.05
8944.00,1.04
8943.00,1.03
8942.00,1.02
8941.00,1.01
8940.00,1.00
8939.00,0.99
8938.00,0.98
8937.00,0.97
8936.00,0.97
8935.00,0.97
8934.00,0.98
8933.00,0.98
8932.00,0.99
8931.00,1.00
8930.00,1.02
8929.00,1.03
8928.00,1.04
8927.00,1.06
8926.00,1.07
8925.00,1.08
8924.00,1.09
8923.00,1.11
8922.00,1.12
8921.00,1.13
8920.00,1.15
8919.00,1.17
8918.00,1.19
8917.00,1.21
8916.00,1.23
8915.00,1.25
8914.00,1.28
8913.00,1.30
8912.00,1.32
8911.00,1.34
8910.00,1.35
8909.00,1.37
8908.00,1.38
8907.00,1.38
8906.00,1.38
8905.00,1.38
8904.00,1.38
8903.00,1.38
8902.00,1.37
8901.00,1.36
8900.00,1.35
8899.00,1.34
8898.00,1.33
8897.00,1.32
8896.00,1.31
8895.00,1.30
8894.00,1.28
8893.00,1.27
8892.00,1.26
8891.00,1.25
8890.00,1.23
8889.00,1.22
8888.00,1.20
8887.00,1.18
8886.00,1.17
8885.00,1.15
8884.00,1.14
8883.00,1.12
8882.00,1.11
8881.00,1.10
8880.00,1.09
8879.00,1.08
8878.00,1.07
8877.00,1.07
8876.00,1.07
8875.00,1.07
8874.00,1.07
8873.00,1.08
8872.00,1.09
8871.00,1.09
8870.00,1.10
8869.00,1.11
8868.00,1.13
8867.00,1.14
8866.00,1.15
8865.00,1.17
8864.00,1.18
8863.00,1.20
8862.00,1.21
8861.00,1.23
8860.00,1.25
8859.00,1.26
8858.00,1.28
8857.00,1.30
8856.00,1.31
8855.00,1.32
8854.00,1.34
8853.00,1.35
8852.00,1.36
8851.00,1.37
8850.00,1.38
8849.00,1.38
8848.00,1.38
8847.00,1.38
8846.00,1.38
8845.00,1.37
8844.00,1.36
8843.00,1.35
8842.00,1.34
8841.00,1.32
8840.00,1.31
8839.00,1.28
8838.00,1.26
8837.00,1.24
8836.00,1.21
8835.00,1.19
8834.00,1.16
8833.00,1.14
8832.00,1.12
8831.00,1.10
8830.00,1.08
8829.00,1.07
8828.00,1.06
8827.00,1.05
8826.00,1.05
8825.00,1.05
8824.00,1.05
8823.00,1.06
8822.00,1.06
8821.00,1.07
8820.00,1.08
8819.00,1.10
8818.00,1.11
8817.00,1.13
8816.00,1.14
8815.00,1.16
8814.00,1.19
8813.00,1.21
8812.00,1.24
8811.00,1.27
8810.00,1.30
8809.00,1.33
8808.00,1.37
8807.00,1.40
8806.00,1.43
8805.00,1.46
8804.00,1.48
8803.00,1.50
8802.00,1.52
8801.00,1.53
8800.00,1.53
8799.00,1.54
8798.00,1.54
8797.00,1.54
8796.00,1.54
8795.00,1.53
8794.00,1.53
8793.00,1.53
8792.00,1.52
8791.00,1.52
8790.00,1.52
8789.00,1.51
8788.00,1.50
8787.00,1.49
8786.00,1.48
8785.00,1.47
8784.00,1.45
8783.00,1.44
8782.00,1.42
8781.00,1.40
8780.00,1.38
8779.00,1.37
8778.00,1.35
8777.00,1.34
8776.00,1.32
8775.00,1.31
8774.00,1.31
8773.00,1.30
8772.00,1.29
8771.00,1.29
8770.00,1.28
8769.00,1.28
8768.00,1.28
8767.00,1.27
8766.00,1.27
8765.00,1.26
8764.00,1.26
8763.00,1.25
8762.00,1.25
8761.00,1.25
8760.00,1.24
8759.00,1.25
8758.00,1.25
8757.00,1.25
8756.00,1.26
8755.00,1.27
8754.00,1.28
8753.00,1.29
8752.00,1.30
8751.00,1.31
8750.00,1.32
8749.00,1.34
8748.00,1.35
8747.00,1.36
8746.00,1.37
8745.00,1.38
8744.00,1.39
8743.00,1.39
8742.00,1.40
8741.00,1.41
8740.00,1.41
8739.00,1.42
8738.00,1.42
8737.00,1.42
8736.00,1.42
8735.00,1.42
8734.00,1.42
8733.00,1.42
8732.00,1.41
8731.00,1.41
8730.00,1.40
8729.00,1.39
8728.00,1.38
8727.00,1.37
8726.00,1.35
8725.00,1.34
8724.00,1.33
8723.00,1.31
8722.00,1.30
8721.00,1.29
8720.00,1.27
8719.00,1.26
8718.00,1.25
8717.00,1.24
8716.00,1.22
8715.00,1.21
8714.00,1.20
8713.00,1.20
8712.00,1.20
8711.00,1.19
8710.00,1.20
8709.00,1.20
8708.00,1.21
8707.00,1.22
8706.00,1.23
8705.00,1.24
8704.00,1.25
8703.00,1.26
8702.00,1.28
8701.00,1.29
8700.00,1.31
8699.00,1.32
8698.00,1.33
8697.00,1.34
8696.00,1.36
8695.00,1.37
8694.00,1.38
8693.00,1.39
8692.00,1.40
8691.00,1.41
8690.00,1.42
8689.00,1.43
8688.00,1.43
8687.00,1.43
8686.00,1.44
8685.00,1.43
8684.00,1.43
8683.00,1.42
8682.00,1.41
8681.00,1.40
8680.00,1.38
8679.00,1.36
8678.00,1.34
8677.00,1.32
8676.00,1.30
8675.00,1.28
8674.00,1.26
8673.00,1.24
8672.00,1.22
8671.00,1.19
8670.00,1.17
8669.00,1.16
8668.00,1.14
8667.00,1.12
8666.00,1.10
8665.00,1.09
8664.00,1.08
8663.00,1.07
8662.00,1.06
8661.00,1.05
8660.00,1.04
8659.00,1.03
8658.00,1.03
8657.00,1.02
8656.00,1.02
8655.00,1.02
8654.00,1.02
8653.00,1.02
8652.00,1.03
8651.00,1.04
8650.00,1.04
8649.00,1.05
8648.00,1.07
8647.00,1.08
8646.00,1.09
8645.00,1.10
8644.00,1.11
8643.00,1.12
8642.00,1.12
8641.00,1.13
8640.00,1.13
8639.00,1.14
8638.00,1.14
8637.00,1.14
8636.00,1.14
8635.00,1.15
8634.00,1.15
8633.00,1.15
8632.00,1.16
8631.00,1.17
8630.00,1.17
8629.00,1.18
8628.00,1.19
8627.00,1.21
8626.00,1.22
8625.00,1.23
8624.00,1.24
8623.00,1.26
8622.00,1.27
8621.00,1.28
8620.00,1.29
8619.00,1.29
8618.00,1.30
8617.00,1.32
8616.00,1.33
8615.00,1.34
8614.00,1.35
8613.00,1.37
8612.00,1.38
8611.00,1.39
8610.00,1.41
8609.00,1.42
8608.00,1.43
8607.00,1.44
8606.00,1.45
8605.00,1.46
8604.00,1.47
8603.00,1.48
8602.00,1.49
8601.00,1.49
8600.00,1.49
8599.00,1.49
8598.00,1.49
8597.00,1.49
8596.00,1.49
8595.00,1.48
8594.00,1.48
8593.00,1.48
8592.00,1.48
8591.00,1.47
8590.00,1.47
8589.00,1.47
8588.00,1.48
8587.00,1.48
8586.00,1.48
8585.00,1.48
8584.00,1.48
8583.00,1.49
8582.00,1.49
8581.00,1.49
8580.00,1.49
8579.00,1.49
8578.00,1.48
8577.00,1.48
8576.00,1.47
8575.00,1.47
8574.00,1.46
8573.00,1.46
8572.00,1.45
8571.00,1.45
8570.00,1.45
8569.00,1.44
8568.00,1.44
8567.00,1.44
8566.00,1.43
8565.00,1.43
8564.00,1.42
8563.00,1.42
8562.00,1.41
8561.00,1.40
8560.00,1.39
8559.00,1.38
8558.00,1.37
8557.00,1.36
8556.00,1.35
8555.00,1.34
8554.00,1.32
8553.00,1.31
8552.00,1.30
8551.00,1.29
8550.00,1.28
8549.00,1.27
8548.00,1.27
8547.00,1.26
8546.00,1.25
8545.00,1.25
8544.00,1.24
8543.00,1.24
8542.00,1.23
8541.00,1.23
8540.00,1.22
8539.00,1.22
8538.00,1.21
8537.00,1.21
8536.00,1.20
8535.00,1.20
8534.00,1.20
8533.00,1.19
8532.00,1.19
8531.00,1.19
8530.00,1.19
8529.00,1.19
8528.00,1.19
8527.00,1.20
8526.00,1.20
8525.00,1.20
8524.00,1.21
8523.00,1.22
8522.00,1.22
8521.00,1.23
8520.00,1.24
8519.00,1.24
8518.00,1.25
8517.00,1.26
8516.00,1.26
8515.00,1.27
8514.00,1.28
8513.00,1.29
8512.00,1.29
8511.00,1.30
8510.00,1.31
8509.00,1.32
8508.00,1.33
8507.00,1.34
8506.00,1.35
8505.00,1.36
8504.00,1.37
8503.00,1.38
8502.00,1.39
8501.00,1.40
8500.00,1.42
8499.00,1.42
8498.00,1.43
8497.00,1.44
8496.00,1.45
8495.00,1.45
8494.00,1.46
8493.00,1.46
8492.00,1.46
8491.00,1.47
8490.00,1.47
8489.00,1.48
8488.00,1.49
8487.00,1.49
8486.00,1.50
8485.00,1.50
8484.00,1.51
8483.00,1.51
8482.00,1.51
8481.00,1.51
8480.00,1.51
8479.00,1.50
8478.00,1.50
8477.00,1.49
8476.00,1.48
8475.00,1.47
8474.00,1.46
8473.00,1.45
8472.00,1.44
8471.00,1.43
8470.00,1.42
8469.00,1.41
8468.00,1.40
8467.00,1.39
8466.00,1.38
8465.00,1.37
8464.00,1.36
8463.00,1.35
8462.00,1.33
8461.00,1.31
8460.00,1.30
8459.00,1.28
8458.00,1.26
8457.00,1.24
8456.00,1.22
8455.00,1.20
8454.00,1.18
8453.00,1.17
8452.00,1.16
8451.00,1.15
8450.00,1.15
8449.00,1.14
8448.00,1.14
8447.00,1.14
8446.00,1.14
8445.00,1.14
8444.00,1.14
8443.00,1.14
8442.00,1.14
8441.00,1.14
8440.00,1.15
8439.00,1.15
8438.00,1.16
8437.00,1.17
8436.00,1.18
8435.00,1.20
8434.00,1.21
8433.00,1.23
8432.00,1.25
8431.00,1.28
8430.00,1.30
8429.00,1.32
8428.00,1.35
8427.00,1.37
8426.00,1.39
8425.00,1.41
8424.00,1.42
8423.00,1.44
8422.00,1.45
8421.00,1.46
8420.00,1.47
8419.00,1.48
8418.00,1.48
8417.00,1.48
8416.00,1.49
8415.00,1.48
8414.00,1.48
8413.00,1.48
8412.00,1.48
8411.00,1.47
8410.00,1.47
8409.00,1.46
8408.00,1.45
8407.00,1.44
8406.00,1.44
8405.00,1.43
8404.00,1.42
8403.00,1.41
8402.00,1.40
8401.00,1.39
8400.00,1.38
8399.00,1.37
8398.00,1.36
8397.00,1.36
8396.00,1.35
8395.00,1.35
8394.00,1.35
8393.00,1.35
8392.00,1.35
8391.00,1.35
8390.00,1.35
8389.00,1.36
8388.00,1.36
8387.00,1.37
8386.00,1.37
8385.00,1.38
8384.00,1.39
8383.00,1.39
8382.00,1.40
8381.00,1.40
8380.00,1.40
8379.00,1.41
8378.00,1.41
8377.00,1.41
8376.00,1.41
8375.00,1.41
8374.00,1.41
8373.00,1.40
8372.00,1.40
8371.00,1.40
8370.00,1.39
8369.00,1.39
8368.00,1.38
8367.00,1.38
8366.00,1.37
8365.00,1.37
8364.00,1.37
8363.00,1.36
8362.00,1.36
8361.00,1.36
8360.00,1.36
8359.00,1.36
8358.00,1.36
8357.00,1.36
8356.00,1.36
8355.00,1.36
8354.00,1.37
8353.00,1.37
8352.00,1.38
8351.00,1.38
8350.00,1.39
8349.00,1.39
8348.00,1.40
8347.00,1.40
8346.00,1.41
8345.00,1.41
8344.00,1.42
8343.00,1.43
8342.00,1.44
8341.00,1.45
8340.00,1.46
8339.00,1.47
8338.00,1.48
8337.00,1.49
8336.00,1.49
8335.00,1.50
8334.00,1.50
8333.00,1.50
8332.00,1.50
8331.00,1.50
8330.00,1.49
8329.00,1.49
8328.00,1.48
8327.00,1.47
8326.00,1.46
8325.00,1.45
8324.00,1.44
8323.00,1.43
8322.00,1.42
8321.00,1.41
8320.00,1.40
8319.00,1.39
8318.00,1.38
8317.00,1.37
8316.00,1.36
8315.00,1.35
8314.00,1.33
8313.00,1.32
8312.00,1.30
8311.00,1.29
8310.00,1.27
8309.00,1.26
8308.00,1.25
8307.00,1.23
8306.00,1.22
8305.00,1.22
8304.00,1.21
8303.00,1.21
8302.00,1.20
8301.00,1.20
8300.00,1.20
8299.00,1.21
8298.00,1.21
8297.00,1.21
8296.00,1.21
8295.00,1.21
8294.00,1.21
8293.00,1.22
8292.00,1.22
8291.00,1.22
8290.00,1.22
8289.00,1.22
8288.00,1.22
8287.00,1.22
8286.00,1.23
8285.00,1.23
8284.00,1.24
8283.00,1.25
8282.00,1.25
8281.00,1.26
8280.00,1.27
8279.00,1.28
8278.00,1.29
8277.00,1.29
8276.00,1.30
8275.00,1.30
8274.00,1.30
8273.00,1.30
8272.00,1.31
8271.00,1.31
8270.00,1.31
8269.00,1.31
8268.00,1.31
8267.00,1.31
8266.00,1.32
8265.00,1.32
8264.00,1.32
8263.00,1.32
8262.00,1.32
8261.00,1.32
8260.00,1.32
8259.00,1.32
8258.00,1.32
8257.00,1.32
8256.00,1.31
8255.00,1.30
8254.00,1.30
8253.00,1.29
8252.00,1.28
8251.00,1.28
8250.00,1.27
8249.00,1.27
8248.00,1.27
8247.00,1.27
8246.00,1.27
8245.00,1.27
8244.00,1.27
8243.00,1.27
8242.00,1.27
8241.00,1.27
8240.00,1.27
8239.00,1.27
8238.00,1.27
8237.00,1.27
8236.00,1.27
8235.00,1.27
8234.00,1.28
8233.00,1.28
8232.00,1.29
8231.00,1.30
8230.00,1.31
8229.00,1.32
8228.00,1.33
8227.00,1.34
8226.00,1.35
8225.00,1.36
8224.00,1.36
8223.00,1.37
8222.00,1.37
8221.00,1.38
8220.00,1.38
8219.00,1.39
8218.00,1.39
8217.00,1.39
8216.00,1.39
8215.00,1.39
8214.00,1.40
8213.00,1.40
8212.00,1.39
8211.00,1.39
8210.00,1.39
8209.00,1.38
8208.00,1.37
8207.00,1.36
8206.00,1.35
8205.00,1.33
8204.00,1.32
8203.00,1.30
8202.00,1.28
8201.00,1.27
8200.00,1.25
8199.00,1.23
8198.00,1.21
8197.00,1.19
8196.00,1.18
8195.00,1.16
8194.00,1.14
8193.00,1.12
8192.00,1.10
8191.00,1.09
8190.00,1.07
8189.00,1.06
8188.00,1.04
8187.00,1.03
8186.00,1.02
8185.00,1.01
8184.00,1.00
8183.00,1.00
8182.00,0.99
8181.00,0.99
8180.00,0.98
8179.00,0.98
8178.00,0.98
8177.00,0.98
8176.00,0.98
8175.00,0.98
8174.00,0.98
8173.00,0.99
8172.00,0.99
8171.00,1.00
8170.00,1.01
8169.00,1.02
8168.00,1.03
8167.00,1.04
8166.00,1.05
8165.00,1.06
8164.00,1.07
8163.00,1.08
8162.00,1.09
8161.00,1.10
8160.00,1.11
8159.00,1.11
8158.00,1.12
8157.00,1.12
8156.00,1.13
8155.00,1.13
8154.00,1.13
8153.00,1.14
8152.00,1.14
8151.00,1.15
8150.00,1.15
8149.00,1.16
8148.00,1.16
8147.00,1.16
8146.00,1.16
8145.00,1.16
8144.00,1.16
8143.00,1.15
8142.00,1.14
8141.00,1.13
8140.00,1.12
8139.00,1.11
8138.00,1.09
8137.00,1.08
8136.00,1.06
8135.00,1.05
8134.00,1.03
8133.00,1.02
8132.00,1.01
8131.00,1.00
8130.00,0.99
8129.00,0.98
8128.00,0.97
8127.00,0.96
8126.00,0.95
8125.00,0.95
8124.00,0.94
8123.00,0.93
8122.00,0.92
8121.00,0.91
8120.00,0.91
8119.00,0.90
8118.00,0.90
8117.00,0.91
8116.00,0.91
8115.00,0.92
8114.00,0.93
8113.00,0.94
8112.00,0.96
8111.00,0.97
8110.00,0.99
8109.00,1.01
8108.00,1.03
8107.00,1.05
8106.00,1.07
8105.00,1.09
8104.00,1.10
8103.00,1.12
8102.00,1.14
8101.00,1.15
8100.00,1.16
8099.00,1.18
8098.00,1.19
8097.00,1.21
8096.00,1.22
8095.00,1.24
8094.00,1.25
8093.00,1.26
8092.00,1.28
8091.00,1.29
8090.00,1.30
8089.00,1.30
8088.00,1.31
8087.00,1.31
8086.00,1.31
8085.00,1.32
8084.00,1.32
8083.00,1.31
8082.00,1.31
8081.00,1.31
8080.00,1.31
8079.00,1.31
8078.00,1.31
8077.00,1.30
8076.00,1.30
8075.00,1.30
8074.00,1.30
8073.00,1.31
8072.00,1.31
8071.00,1.31
8070.00,1.31
8069.00,1.31
8068.00,1.30
8067.00,1.30
8066.00,1.29
8065.00,1.29
8064.00,1.28
8063.00,1.27
8062.00,1.27
8061.00,1.26
8060.00,1.26
8059.00,1.25
8058.00,1.25
8057.00,1.24
8056.00,1.24
8055.00,1.24
8054.00,1.24
8053.00,1.24
8052.00,1.24
8051.00,1.24
8050.00,1.24
8049.00,1.24
8048.00,1.23
8047.00,1.23
8046.00,1.23
8045.00,1.22
8044.00,1.22
8043.00,1.22
8042.00,1.22
8041.00,1.22
8040.00,1.23
8039.00,1.23
8038.00,1.24
8037.00,1.25
8036.00,1.26
8035.00,1.27
8034.00,1.28
8033.00,1.29
8032.00,1.30
8031.00,1.31
8030.00,1.31
8029.00,1.32
8028.00,1.32
8027.00,1.32
8026.00,1.32
8025.00,1.32
8024.00,1.32
8023.00,1.32
8022.00,1.32
8021.00,1.32
8020.00,1.32
8019.00,1.32
8018.00,1.32
8017.00,1.31
8016.00,1.31
8015.00,1.31
8014.00,1.30
8013.00,1.30
8012.00,1.29
8011.00,1.28
8010.00,1.27
8009.00,1.26
8008.00,1.25
8007.00,1.23
8006.00,1.22
8005.00,1.21
8004.00,1.19
8003.00,1.18
8002.00,1.17
8001.00,1.16
8000.00,1.15
7999.00,1.14
7998.00,1.13
7997.00,1.12
7996.00,1.11
7995.00,1.10
7994.00,1.09
7993.00,1.09
7992.00,1.08
7991.00,1.08
7990.00,1.08
7989.00,1.08
7988.00,1.08
7987.00,1.08
7986.00,1.08
7985.00,1.08
7984.00,1.08
7983.00,1.08
7982.00,1.09
7981.00,1.10
7980.00,1.11
7979.00,1.12
7978.00,1.13
7977.00,1.14
7976.00,1.15
7975.00,1.17
7974.00,1.18
7973.00,1.20
7972.00,1.22
7971.00,1.23
7970.00,1.25
7969.00,1.26
7968.00,1.28
7967.00,1.29
7966.00,1.30
7965.00,1.31
7964.00,1.32
7963.00,1.32
7962.00,1.33
7961.00,1.34
7960.00,1.34
7959.00,1.34
7958.00,1.35
7957.00,1.35
7956.00,1.36
7955.00,1.36
7954.00,1.37
7953.00,1.37
7952.00,1.37
7951.00,1.37
7950.00,1.37
7949.00,1.36
7948.00,1.36
7947.00,1.36
7946.00,1.35
7945.00,1.35
7944.00,1.34
7943.00,1.34
7942.00,1.34
7941.00,1.33
7940.00,1.33
7939.00,1.33
7938.00,1.32
7937.00,1.32
7936.00,1.32
7935.00,1.32
7934.00,1.33
7933.00,1.33
7932.00,1.33
7931.00,1.34
7930.00,1.34
7929.00,1.35
7928.00,1.36
7927.00,1.36
7926.00,1.37
7925.00,1.38
7924.00,1.39
7923.00,1.40
7922.00,1.41
7921.00,1.42
7920.00,1.42
7919.00,1.43
7918.00,1.44
7917.00,1.46
7916.00,1.47
7915.00,1.48
7914.00,1.49
7913.00,1.51
7912.00,1.52
7911.00,1.54
7910.00,1.55
7909.00,1.56
7908.00,1.58
7907.00,1.59
7906.00,1.59
7905.00,1.60
7904.00,1.61
7903.00,1.61
7902.00,1.62
7901.00,1.62
7900.00,1.62
7899.00,1.62
7898.00,1.62
7897.00,1.63
7896.00,1.63
7895.00,1.63
7894.00,1.63
7893.00,1.63
7892.00,1.63
7891.00,1.63
7890.00,1.63
7889.00,1.63
7888.00,1.62
7887.00,1.62
7886.00,1.61
7885.00,1.60
7884.00,1.60
7883.00,1.59
7882.00,1.58
7881.00,1.58
7880.00,1.57
7879.00,1.57
7878.00,1.57
7877.00,1.57
7876.00,1.56
7875.00,1.56
7874.00,1.56
7873.00,1.56
7872.00,1.56
7871.00,1.55
7870.00,1.55
7869.00,1.55
7868.00,1.55
7867.00,1.54
7866.00,1.54
7865.00,1.54
7864.00,1.54
7863.00,1.53
7862.00,1.53
7861.00,1.53
7860.00,1.52
7859.00,1.52
7858.00,1.51
7857.00,1.50
7856.00,1.49
7855.00,1.48
7854.00,1.47
7853.00,1.46
7852.00,1.44
7851.00,1.43
7850.00,1.41
7849.00,1.40
7848.00,1.38
7847.00,1.37
7846.00,1.36
7845.00,1.34
7844.00,1.33
7843.00,1.32
7842.00,1.30
7841.00,1.29
7840.00,1.28
7839.00,1.27
7838.00,1.26
7837.00,1.25
7836.00,1.25
7835.00,1.24
7834.00,1.24
7833.00,1.24
7832.00,1.24
7831.00,1.24
7830.00,1.24
7829.00,1.24
7828.00,1.25
7827.00,1.25
7826.00,1.25
7825.00,1.26
7824.00,1.26
7823.00,1.27
7822.00,1.28
7821.00,1.28
7820.00,1.29
7819.00,1.30
7818.00,1.31
7817.00,1.32
7816.00,1.33
7815.00,1.33
7814.00,1.34
7813.00,1.34
7812.00,1.35
7811.00,1.35
7810.00,1.36
7809.00,1.36
7808.00,1.36
7807.00,1.36
7806.00,1.36
7805.00,1.36
7804.00,1.37
7803.00,1.37
7802.00,1.37
7801.00,1.38
7800.00,1.38
7799.00,1.38
7798.00,1.39
7797.00,1.39
7796.00,1.39
7795.00,1.39
7794.00,1.39
7793.00,1.38
7792.00,1.38
7791.00,1.37
7790.00,1.36
7789.00,1.36
7788.00,1.35
7787.00,1.34
7786.00,1.33
7785.00,1.32
7784.00,1.31
7783.00,1.30
7782.00,1.29
7781.00,1.28
7780.00,1.27
7779.00,1.26
7778.00,1.25
7777.00,1.24
7776.00,1.23
7775.00,1.22
7774.00,1.21
7773.00,1.20
7772.00,1.20
7771.00,1.19
7770.00,1.18
7769.00,1.18
7768.00,1.17
7767.00,1.16
7766.00,1.16
7765.00,1.16
7764.00,1.15
7763.00,1.15
7762.00,1.15
7761.00,1.15
7760.00,1.15
7759.00,1.16
7758.00,1.16
7757.00,1.17
7756.00,1.18
7755.00,1.18
7754.00,1.19
7753.00,1.19
7752.00,1.20
7751.00,1.20
7750.00,1.20
7749.00,1.20
7748.00,1.20
7747.00,1.20
7746.00,1.20
7745.00,1.20
7744.00,1.20
7743.00,1.20
7742.00,1.20
7741.00,1.20
7740.00,1.21
7739.00,1.21
7738.00,1.21
7737.00,1.21
7736.00,1.22
7735.00,1.22
7734.00,1.22
7733.00,1.22
7732.00,1.22
7731.00,1.22
7730.00,1.22
7729.00,1.22
7728.00,1.23
7727.00,1.23
7726.00,1.24
7725.00,1.24
7724.00,1.25
7723.00,1.26
7722.00,1.27
7721.00,1.28
7720.00,1.29
7719.00,1.31
7718.00,1.32
7717.00,1.32
7716.00,1.33
7715.00,1.34
7714.00,1.36
7713.00,1.37
7712.00,1.38
7711.00,1.39
7710.00,1.40
7709.00,1.41
7708.00,1.43
7707.00,1.44
7706.00,1.46
7705.00,1.47
7704.00,1.49
7703.00,1.50
7702.00,1.52
7701.00,1.53
7700.00,1.55
7699.00,1.56
7698.00,1.57
7697.00,1.57
7696.00,1.58
7695.00,1.59
7694.00,1.59
7693.00,1.60
7692.00,1.60
7691.00,1.61
7690.00,1.61
7689.00,1.61
7688.00,1.61
7687.00,1.61
7686.00,1.60
7685.00,1.60
7684.00,1.59
7683.00,1.58
7682.00,1.57
7681.00,1.55
7680.00,1.54
7679.00,1.52
7678.00,1.50
7677.00,1.48
7676.00,1.46
7675.00,1.44
7674.00,1.42
7673.00,1.40
7672.00,1.37
7671.00,1.35
7670.00,1.33
7669.00,1.31
7668.00,1.30
7667.00,1.28
7666.00,1.26
7665.00,1.25
7664.00,1.24
7663.00,1.23
7662.00,1.22
7661.00,1.22
7660.00,1.21
7659.00,1.21
7658.00,1.22
7657.00,1.22
7656.00,1.22
7655.00,1.23
7654.00,1.24
7653.00,1.24
7652.00,1.26
7651.00,1.27
7650.00,1.28
7649.00,1.30
7648.00,1.31
7647.00,1.33
7646.00,1.35
7645.00,1.36
7644.00,1.38
7643.00,1.40
7642.00,1.42
7641.00,1.43
7640.00,1.45
7639.00,1.46
7638.00,1.48
7637.00,1.49
7636.00,1.49
7635.00,1.50
7634.00,1.51
7633.00,1.51
7632.00,1.51
7631.00,1.51
7630.00,1.51
7629.00,1.51
7628.00,1.52
7627.00,1.52
7626.00,1.52
7625.00,1.51
7624.00,1.51
7623.00,1.51
7622.00,1.50
7621.00,1.50
7620.00,1.50
7619.00,1.49
7618.00,1.49
7617.00,1.48
7616.00,1.48
7615.00,1.48
7614.00,1.47
7613.00,1.47
7612.00,1.47
7611.00,1.47
7610.00,1.47
7609.00,1.47
7608.00,1.47
7607.00,1.48
7606.00,1.48
7605.00,1.48
7604.00,1.48
7603.00,1.49
7602.00,1.49
7601.00,1.49
7600.00,1.49
7599.00,1.49
7598.00,1.49
7597.00,1.50
7596.00,1.50
7595.00,1.50
7594.00,1.50
7593.00,1.51
7592.00,1.51
7591.00,1.51
7590.00,1.51
7589.00,1.51
7588.00,1.51
7587.00,1.51
7586.00,1.51
7585.00,1.51
7584.00,1.51
7583.00,1.50
7582.00,1.50
7581.00,1.50
7580.00,1.50
7579.00,1.49
7578.00,1.49
7577.00,1.49
7576.00,1.48
7575.00,1.48
7574.00,1.48
7573.00,1.48
7572.00,1.48
7571.00,1.48
7570.00,1.47
7569.00,1.47
7568.00,1.47
7567.00,1.47
7566.00,1.46
7565.00,1.46
7564.00,1.45
7563.00,1.45
7562.00,1.45
7561.00,1.44
7560.00,1.44
7559.00,1.44
7558.00,1.44
7557.00,1.44
7556.00,1.44
7555.00,1.44
7554.00,1.44
7553.00,1.44
7552.00,1.45
7551.00,1.45
7550.00,1.45
7549.00,1.45
7548.00,1.45
7547.00,1.45
7546.00,1.45
7545.00,1.45
7544.00,1.45
7543.00,1.45
7542.00,1.45
7541.00,1.45
7540.00,1.45
7539.00,1.45
7538.00,1.45
7537.00,1.46
7536.00,1.46
7535.00,1.46
7534.00,1.46
7533.00,1.46
7532.00,1.47
7531.00,1.47
7530.00,1.46
7529.00,1.46
7528.00,1.46
7527.00,1.45
7526.00,1.45
7525.00,1.44
7524.00,1.44
7523.00,1.43
7522.00,1.43
7521.00,1.43
7520.00,1.42
7519.00,1.42
7518.00,1.42
7517.00,1.42
7516.00,1.42
7515.00,1.41
7514.00,1.41
7513.00,1.41
7512.00,1.41
7511.00,1.41
7510.00,1.40
7509.00,1.40
7508.00,1.40
7507.00,1.39
7506.00,1.39
7505.00,1.38
7504.00,1.38
7503.00,1.38
7502.00,1.38
7501.00,1.38
7500.00,1.38
7499.00,1.38
7498.00,1.38
7497.00,1.39
7496.00,1.39
7495.00,1.39
7494.00,1.39
7493.00,1.40
7492.00,1.40
7491.00,1.40
7490.00,1.40
7489.00,1.41
7488.00,1.41
7487.00,1.41
7486.00,1.42
7485.00,1.42
7484.00,1.42
7483.00,1.43
7482.00,1.43
7481.00,1.43
7480.00,1.44
7479.00,1.44
7478.00,1.45
7477.00,1.45
7476.00,1.46
7475.00,1.46
7474.00,1.47
7473.00,1.47
7472.00,1.48
7471.00,1.48
7470.00,1.48
7469.00,1.48
7468.00,1.48
7467.00,1.49
7466.00,1.49
7465.00,1.49
7464.00,1.49
7463.00,1.49
7462.00,1.49
7461.00,1.49
7460.00,1.49
7459.00,1.49
7458.00,1.49
7457.00,1.49
7456.00,1.49
7455.00,1.49
7454.00,1.49
7453.00,1.49
7452.00,1.49
7451.00,1.49
7450.00,1.49
7449.00,1.49
7448.00,1.49
7447.00,1.48
7446.00,1.48
7445.00,1.48
7444.00,1.48
7443.00,1.48
7442.00,1.47
7441.00,1.47
7440.00,1.47
7439.00,1.47
7438.00,1.46
7437.00,1.46
7436.00,1.46
7435.00,1.45
7434.00,1.45
7433.00,1.45
7432.00,1.44
7431.00,1.44
7430.00,1.43
7429.00,1.43
7428.00,1.42
7427.00,1.42
7426.00,1.42
7425.00,1.41
7424.00,1.41
7423.00,1.41
7422.00,1.41
7421.00,1.41
7420.00,1.41
7419.00,1.40
7418.00,1.40
7417.00,1.40
7416.00,1.40
7415.00,1.40
7414.00,1.40
7413.00,1.40
7412.00,1.40
7411.00,1.40
7410.00,1.40
7409.00,1.40
7408.00,1.40
7407.00,1.41
7406.00,1.41
7405.00,1.41
7404.00,1.42
7403.00,1.42
7402.00,1.43
7401.00,1.43
7400.00,1.44
7399.00,1.44
7398.00,1.44
7397.00,1.45
7396.00,1.45
7395.00,1.45
7394.00,1.45
7393.00,1.46
7392.00,1.46
7391.00,1.46
7390.00,1.46
7389.00,1.46
7388.00,1.46
7387.00,1.46
7386.00,1.46
7385.00,1.46
7384.00,1.46
7383.00,1.46
7382.00,1.47
7381.00,1.47
7380.00,1.47
7379.00,1.47
7378.00,1.47
7377.00,1.47
7376.00,1.47
7375.00,1.47
7374.00,1.47
7373.00,1.47
7372.00,1.48
7371.00,1.48
7370.00,1.48
7369.00,1.49
7368.00,1.49
7367.00,1.50
7366.00,1.51
7365.00,1.52
7364.00,1.53
7363.00,1.54
7362.00,1.56
7361.00,1.57
7360.00,1.58
7359.00,1.59
7358.00,1.60
7357.00,1.60
7356.00,1.61
7355.00,1.62
7354.00,1.62
7353.00,1.62
7352.00,1.63
7351.00,1.63
7350.00,1.63
7349.00,1.63
7348.00,1.63
7347.00,1.63
7346.00,1.63
7345.00,1.63
7344.00,1.62
7343.00,1.62
7342.00,1.61
7341.00,1.59
7340.00,1.58
7339.00,1.56
7338.00,1.55
7337.00,1.53
7336.00,1.51
7335.00,1.49
7334.00,1.47
7333.00,1.46
7332.00,1.44
7331.00,1.43
7330.00,1.42
7329.00,1.41
7328.00,1.40
7327.00,1.39
7326.00,1.39
7325.00,1.38
7324.00,1.37
7323.00,1.37
7322.00,1.37
7321.00,1.36
7320.00,1.36
7319.00,1.36
7318.00,1.36
7317.00,1.36
7316.00,1.37
7315.00,1.37
7314.00,1.38
7313.00,1.39
7312.00,1.39
7311.00,1.40
7310.00,1.41
7309.00,1.42
7308.00,1.43
7307.00,1.44
7306.00,1.45
7305.00,1.45
7304.00,1.46
7303.00,1.46
7302.00,1.46
7301.00,1.47
7300.00,1.47
7299.00,1.47
7298.00,1.47
7297.00,1.47
7296.00,1.48
7295.00,1.48
7294.00,1.48
7293.00,1.49
7292.00,1.49
7291.00,1.50
7290.00,1.50
7289.00,1.50
7288.00,1.51
7287.00,1.51
7286.00,1.51
7285.00,1.52
7284.00,1.52
7283.00,1.52
7282.00,1.52
7281.00,1.53
7280.00,1.53
7279.00,1.53
7278.00,1.53
7277.00,1.54
7276.00,1.54
7275.00,1.54
7274.00,1.54
7273.00,1.55
7272.00,1.55
7271.00,1.55
7270.00,1.55
7269.00,1.56
7268.00,1.56
7267.00,1.56
7266.00,1.56
7265.00,1.56
7264.00,1.56
7263.00,1.56
7262.00,1.55
7261.00,1.55
7260.00,1.56
7259.00,1.56
7258.00,1.56
7257.00,1.56
7256.00,1.56
7255.00,1.56
7254.00,1.56
7253.00,1.56
7252.00,1.56
7251.00,1.56
7250.00,1.56
7249.00,1.56
7248.00,1.56
7247.00,1.56
7246.00,1.56
7245.00,1.56
7244.00,1.56
7243.00,1.55
7242.00,1.55
7241.00,1.54
7240.00,1.54
7239.00,1.53
7238.00,1.53
7237.00,1.52
7236.00,1.52
7235.00,1.51
7234.00,1.50
7233.00,1.50
7232.00,1.49
7231.00,1.48
7230.00,1.47
7229.00,1.46
7228.00,1.46
7227.00,1.45
7226.00,1.45
7225.00,1.45
7224.00,1.45
7223.00,1.44
7222.00,1.44
7221.00,1.44
7220.00,1.44
7219.00,1.44
7218.00,1.44
7217.00,1.44
7216.00,1.44
7215.00,1.44
7214.00,1.44
7213.00,1.43
7212.00,1.43
7211.00,1.43
7210.00,1.43
7209.00,1.43
7208.00,1.43
7207.00,1.44
7206.00,1.44
7205.00,1.44
7204.00,1.44
7203.00,1.44
7202.00,1.45
7201.00,1.45
7200.00,1.45
7199.00,1.45
7198.00,1.45
7197.00,1.46
7196.00,1.46
7195.00,1.46
7194.00,1.46
7193.00,1.46
7192.00,1.46
7191.00,1.47
7190.00,1.47
7189.00,1.48
7188.00,1.48
7187.00,1.48
7186.00,1.49
7185.00,1.50
7184.00,1.50
7183.00,1.51
7182.00,1.51
7181.00,1.52
7180.00,1.52
7179.00,1.52
7178.00,1.53
7177.00,1.53
7176.00,1.53
7175.00,1.53
7174.00,1.53
7173.00,1.53
7172.00,1.52
7171.00,1.52
7170.00,1.52
7169.00,1.51
7168.00,1.51
7167.00,1.51
7166.00,1.50
7165.00,1.50
7164.00,1.49
7163.00,1.49
7162.00,1.48
7161.00,1.48
7160.00,1.48
7159.00,1.47
7158.00,1.47
7157.00,1.46
7156.00,1.46
7155.00,1.45
7154.00,1.45
7153.00,1.44
7152.00,1.44
7151.00,1.44
7150.00,1.43
7149.00,1.43
7148.00,1.43
7147.00,1.42
7146.00,1.42
7145.00,1.42
7144.00,1.42
7143.00,1.42
7142.00,1.42
7141.00,1.43
7140.00,1.43
7139.00,1.43
7138.00,1.43
7137.00,1.43
7136.00,1.43
7135.00,1.43
7134.00,1.43
7133.00,1.43
7132.00,1.43
7131.00,1.43
7130.00,1.43
7129.00,1.43
7128.00,1.44
7127.00,1.44
7126.00,1.44
7125.00,1.44
7124.00,1.44
7123.00,1.44
7122.00,1.44
7121.00,1.44
7120.00,1.44
7119.00,1.44
7118.00,1.44
7117.00,1.44
7116.00,1.44
7115.00,1.44
7114.00,1.44
7113.00,1.44
7112.00,1.44
7111.00,1.43
7110.00,1.43
7109.00,1.43
7108.00,1.43
7107.00,1.42
7106.00,1.42
7105.00,1.41
7104.00,1.40
7103.00,1.40
7102.00,1.39
7101.00,1.39
7100.00,1.38
7099.00,1.38
7098.00,1.37
7097.00,1.36
7096.00,1.36
7095.00,1.35
7094.00,1.34
7093.00,1.33
7092.00,1.32
7091.00,1.32
7090.00,1.31
7089.00,1.30
7088.00,1.29
7087.00,1.28
7086.00,1.28
7085.00,1.27
7084.00,1.26
7083.00,1.26
7082.00,1.25
7081.00,1.25
7080.00,1.24
7079.00,1.24
7078.00,1.24
7077.00,1.24
7076.00,1.24
7075.00,1.24
7074.00,1.24
7073.00,1.24
7072.00,1.24
7071.00,1.24
7070.00,1.24
7069.00,1.25
7068.00,1.25
7067.00,1.26
7066.00,1.26
7065.00,1.27
7064.00,1.27
7063.00,1.28
7062.00,1.28
7061.00,1.29
7060.00,1.29
7059.00,1.30
7058.00,1.30
7057.00,1.31
7056.00,1.31
7055.00,1.31
7054.00,1.32
7053.00,1.32
7052.00,1.33
7051.00,1.34
7050.00,1.34
7049.00,1.35
7048.00,1.35
7047.00,1.36
7046.00,1.36
7045.00,1.36
7044.00,1.36
7043.00,1.37
7042.00,1.37
7041.00,1.37
7040.00,1.37
7039.00,1.37
7038.00,1.38
7037.00,1.38
7036.00,1.38
7035.00,1.38
7034.00,1.39
7033.00,1.39
7032.00,1.39
7031.00,1.39
7030.00,1.39
7029.00,1.39
7028.00,1.39
7027.00,1.39
7026.00,1.39
7025.00,1.39
7024.00,1.39
7023.00,1.38
7022.00,1.38
7021.00,1.37
7020.00,1.37
7019.00,1.37
7018.00,1.37
7017.00,1.36
7016.00,1.36
7015.00,1.36
7014.00,1.36
7013.00,1.35
7012.00,1.35
7011.00,1.35
7010.00,1.34
7009.00,1.34
7008.00,1.33
7007.00,1.33
7006.00,1.33
7005.00,1.33
7004.00,1.33
7003.00,1.33
7002.00,1.33
7001.00,1.33
7000.00,1.33
6999.00,1.33
6998.00,1.34
6997.00,1.34
6996.00,1.35
6995.00,1.35
6994.00,1.35
6993.00,1.35
6992.00,1.35
6991.00,1.35
6990.00,1.35
6989.00,1.35
6988.00,1.35
6987.00,1.35
6986.00,1.35
6985.00,1.35
6984.00,1.35
6983.00,1.35
6982.00,1.35
6981.00,1.35
6980.00,1.35
6979.00,1.34
6978.00,1.34
6977.00,1.33
6976.00,1.33
6975.00,1.32
6974.00,1.31
6973.00,1.30
6972.00,1.29
6971.00,1.28
6970.00,1.27
6969.00,1.27
6968.00,1.26
6967.00,1.25
6966.00,1.24
6965.00,1.24
6964.00,1.24
6963.00,1.23
6962.00,1.23
6961.00,1.23
6960.00,1.22
6959.00,1.22
6958.00,1.22
6957.00,1.22
6956.00,1.22
6955.00,1.22
6954.00,1.22
6953.00,1.23
6952.00,1.23
6951.00,1.24
6950.00,1.24
6949.00,1.25
6948.00,1.26
6947.00,1.27
6946.00,1.28
6945.00,1.28
6944.00,1.29
6943.00,1.30
6942.00,1.31
6941.00,1.32
6940.00,1.33
6939.00,1.34
6938.00,1.34
6937.00,1.35
6936.00,1.36
6935.00,1.37
6934.00,1.37
6933.00,1.38
6932.00,1.39
6931.00,1.39
6930.00,1.40
6929.00,1.40
6928.00,1.41
6927.00,1.41
6926.00,1.41
6925.00,1.41
6924.00,1.41
6923.00,1.41
6922.00,1.41
6921.00,1.41
6920.00,1.41
6919.00,1.40
6918.00,1.40
6917.00,1.40
6916.00,1.39
6915.00,1.39
6914.00,1.39
6913.00,1.38
6912.00,1.38
6911.00,1.38
6910.00,1.37
6909.00,1.36
6908.00,1.36
6907.00,1.35
6906.00,1.34
6905.00,1.34
6904.00,1.33
6903.00,1.32
6902.00,1.32
6901.00,1.31
6900.00,1.31
6899.00,1.30
6898.00,1.30
6897.00,1.30
6896.00,1.30
6895.00,1.29
6894.00,1.29
6893.00,1.29
6892.00,1.29
6891.00,1.29
6890.00,1.28
6889.00,1.28
6888.00,1.28
6887.00,1.28
6886.00,1.27
6885.00,1.27
6884.00,1.27
6883.00,1.27
6882.00,1.27
6881.00,1.27
6880.00,1.27
6879.00,1.27
6878.00,1.27
6877.00,1.27
6876.00,1.27
6875.00,1.27
6874.00,1.27
6873.00,1.27
6872.00,1.27
6871.00,1.27
6870.00,1.26
6869.00,1.26
6868.00,1.26
6867.00,1.26
6866.00,1.26
6865.00,1.26
6864.00,1.26
6863.00,1.26
6862.00,1.26
6861.00,1.27
6860.00,1.27
6859.00,1.27
6858.00,1.27
6857.00,1.28
6856.00,1.28
6855.00,1.28
6854.00,1.29
6853.00,1.29
6852.00,1.29
6851.00,1.29
6850.00,1.29
6849.00,1.29
6848.00,1.29
6847.00,1.30
6846.00,1.30
6845.00,1.30
6844.00,1.30
6843.00,1.30
6842.00,1.30
6841.00,1.30
6840.00,1.30
6839.00,1.30
6838.00,1.30
6837.00,1.30
6836.00,1.30
6835.00,1.30
6834.00,1.30
6833.00,1.30
6832.00,1.30
6831.00,1.30
6830.00,1.30
6829.00,1.30
6828.00,1.30
6827.00,1.30
6826.00,1.31
6825.00,1.31
6824.00,1.31
6823.00,1.31
6822.00,1.31
6821.00,1.32
6820.00,1.32
6819.00,1.32
6818.00,1.32
6817.00,1.32
6816.00,1.33
6815.00,1.33
6814.00,1.33
6813.00,1.33
6812.00,1.34
6811.00,1.34
6810.00,1.34
6809.00,1.34
6808.00,1.34
6807.00,1.35
6806.00,1.35
6805.00,1.35
6804.00,1.35
6803.00,1.35
6802.00,1.35
6801.00,1.35
6800.00,1.35
6799.00,1.35
6798.00,1.35
6797.00,1.35
6796.00,1.35
6795.00,1.35
6794.00,1.35
6793.00,1.35
6792.00,1.35
6791.00,1.34
6790.00,1.34
6789.00,1.34
6788.00,1.34
6787.00,1.35
6786.00,1.35
6785.00,1.35
6784.00,1.35
6783.00,1.35
6782.00,1.35
6781.00,1.35
6780.00,1.35
6779.00,1.35
6778.00,1.36
6777.00,1.36
6776.00,1.36
6775.00,1.36
6774.00,1.37
6773.00,1.37
6772.00,1.37
6771.00,1.37
6770.00,1.37
6769.00,1.37
6768.00,1.38
6767.00,1.38
6766.00,1.38
6765.00,1.38
6764.00,1.38
6763.00,1.38
6762.00,1.38
6761.00,1.37
6760.00,1.37
6759.00,1.37
6758.00,1.37
6757.00,1.37
6756.00,1.36
6755.00,1.36
6754.00,1.36
6753.00,1.36
6752.00,1.36
6751.00,1.36
6750.00,1.35
6749.00,1.35
6748.00,1.35
6747.00,1.35
6746.00,1.35
6745.00,1.35
6744.00,1.35
6743.00,1.35
6742.00,1.35
6741.00,1.35
6740.00,1.36
6739.00,1.36
6738.00,1.36
6737.00,1.37
6736.00,1.37
6735.00,1.37
6734.00,1.38
6733.00,1.38
6732.00,1.38
6731.00,1.39
6730.00,1.39
6729.00,1.39
6728.00,1.39
6727.00,1.39
6726.00,1.39
6725.00,1.39
6724.00,1.39
6723.00,1.39
6722.00,1.39
6721.00,1.39
6720.00,1.39
6719.00,1.39
6718.00,1.38
6717.00,1.38
6716.00,1.38
6715.00,1.37
6714.00,1.36
6713.00,1.36
6712.00,1.35
6711.00,1.35
6710.00,1.34
6709.00,1.33
6708.00,1.33
6707.00,1.32
6706.00,1.32
6705.00,1.31
6704.00,1.31
6703.00,1.30
6702.00,1.30
6701.00,1.30
6700.00,1.29
6699.00,1.29
6698.00,1.29
6697.00,1.29
6696.00,1.28
6695.00,1.28
6694.00,1.28
6693.00,1.28
6692.00,1.29
6691.00,1.29
6690.00,1.29
6689.00,1.29
6688.00,1.30
6687.00,1.30
6686.00,1.31
6685.00,1.31
6684.00,1.32
6683.00,1.32
6682.00,1.33
6681.00,1.33
6680.00,1.34
6679.00,1.34
6678.00,1.35
6677.00,1.36
6676.00,1.36
6675.00,1.37
6674.00,1.38
6673.00,1.38
6672.00,1.39
6671.00,1.40
6670.00,1.40
6669.00,1.41
6668.00,1.41
6667.00,1.42
6666.00,1.42
6665.00,1.43
6664.00,1.43
6663.00,1.43
6662.00,1.44
6661.00,1.44
6660.00,1.45
6659.00,1.46
6658.00,1.46
6657.00,1.47
6656.00,1.48
6655.00,1.48
6654.00,1.49
6653.00,1.49
6652.00,1.50
6651.00,1.50
6650.00,1.51
6649.00,1.51
6648.00,1.51
6647.00,1.52
6646.00,1.52
6645.00,1.52
6644.00,1.52
6643.00,1.52
6642.00,1.52
6641.00,1.53
6640.00,1.53
6639.00,1.53
6638.00,1.53
6637.00,1.53
6636.00,1.53
6635.00,1.53
6634.00,1.53
6633.00,1.53
6632.00,1.52
6631.00,1.52
6630.00,1.51
6629.00,1.50
6628.00,1.49
6627.00,1.49
6626.00,1.48
6625.00,1.47
6624.00,1.47
6623.00,1.46
6622.00,1.45
6621.00,1.45
6620.00,1.44
6619.00,1.44
6618.00,1.43
6617.00,1.43
6616.00,1.43
6615.00,1.42
6614.00,1.42
6613.00,1.42
6612.00,1.41
6611.00,1.41
6610.00,1.41
6609.00,1.40
6608.00,1.40
6607.00,1.40
6606.00,1.40
6605.00,1.41
6604.00,1.41
6603.00,1.41
6602.00,1.42
6601.00,1.42
6600.00,1.43
6599.00,1.43
6598.00,1.44
6597.00,1.45
6596.00,1.45
6595.00,1.46
6594.00,1.46
6593.00,1.47
6592.00,1.47
6591.00,1.48
6590.00,1.48
6589.00,1.48
6588.00,1.49
6587.00,1.49
6586.00,1.50
6585.00,1.51
6584.00,1.51
6583.00,1.52
6582.00,1.52
6581.00,1.52
6580.00,1.53
6579.00,1.53
6578.00,1.53
6577.00,1.54
6576.00,1.54
6575.00,1.54
6574.00,1.54
6573.00,1.55
6572.00,1.55
6571.00,1.55
6570.00,1.55
6569.00,1.56
6568.00,1.56
6567.00,1.56
6566.00,1.56
6565.00,1.57
6564.00,1.57
6563.00,1.57
6562.00,1.57
6561.00,1.57
6560.00,1.57
6559.00,1.57
6558.00,1.57
6557.00,1.57
6556.00,1.57
6555.00,1.57
6554.00,1.57
6553.00,1.57
6552.00,1.57
6551.00,1.57
6550.00,1.57
6549.00,1.57
6548.00,1.57
6547.00,1.57
6546.00,1.56
6545.00,1.56
6544.00,1.56
6543.00,1.56
6542.00,1.56
6541.00,1.56
6540.00,1.56
6539.00,1.56
6538.00,1.56
6537.00,1.55
6536.00,1.55
6535.00,1.55
6534.00,1.55
6533.00,1.55
6532.00,1.55
6531.00,1.55
6530.00,1.55
6529.00,1.55
6528.00,1.55
6527.00,1.55
6526.00,1.55
6525.00,1.55
6524.00,1.55
6523.00,1.55
6522.00,1.55
6521.00,1.56
6520.00,1.56
6519.00,1.56
6518.00,1.56
6517.00,1.56
6516.00,1.56
6515.00,1.56
6514.00,1.56
6513.00,1.56
6512.00,1.55
6511.00,1.55
6510.00,1.55
6509.00,1.55
6508.00,1.55
6507.00,1.54
6506.00,1.54
6505.00,1.54
6504.00,1.54
6503.00,1.53
6502.00,1.53
6501.00,1.53
6500.00,1.52
6499.00,1.52
6498.00,1.51
6497.00,1.51
6496.00,1.50
6495.00,1.50
6494.00,1.49
6493.00,1.49
6492.00,1.48
6491.00,1.48
6490.00,1.47
6489.00,1.47
6488.00,1.47
6487.00,1.46
6486.00,1.46
6485.00,1.46
6484.00,1.46
6483.00,1.46
6482.00,1.46
6481.00,1.46
6480.00,1.46
6479.00,1.46
6478.00,1.46
6477.00,1.46
6476.00,1.46
6475.00,1.47
6474.00,1.47
6473.00,1.47
6472.00,1.48
6471.00,1.48
6470.00,1.49
6469.00,1.49
6468.00,1.49
6467.00,1.49
6466.00,1.50
6465.00,1.50
6464.00,1.50
6463.00,1.50
6462.00,1.51
6461.00,1.51
6460.00,1.51
6459.00,1.51
6458.00,1.51
6457.00,1.51
6456.00,1.50
6455.00,1.50
6454.00,1.50
6453.00,1.50
6452.00,1.49
6451.00,1.49
6450.00,1.49
6449.00,1.49
6448.00,1.48
6447.00,1.48
6446.00,1.48
6445.00,1.48
6444.00,1.48
6443.00,1.48
6442.00,1.48
6441.00,1.48
6440.00,1.48
6439.00,1.48
6438.00,1.49
6437.00,1.49
6436.00,1.49
6435.00,1.50
6434.00,1.50
6433.00,1.51
6432.00,1.52
6431.00,1.52
6430.00,1.53
6429.00,1.54
6428.00,1.55
6427.00,1.55
6426.00,1.56
6425.00,1.57
6424.00,1.58
6423.00,1.58
6422.00,1.59
6421.00,1.60
6420.00,1.60
6419.00,1.61
6418.00,1.61
6417.00,1.62
6416.00,1.62
6415.00,1.63
6414.00,1.63
6413.00,1.63
6412.00,1.63
6411.00,1.63
6410.00,1.63
6409.00,1.63
6408.00,1.63
6407.00,1.62
6406.00,1.62
6405.00,1.62
6404.00,1.62
6403.00,1.61
6402.00,1.61
6401.00,1.61
6400.00,1.61
6399.00,1.60
6398.00,1.60
6397.00,1.60
6396.00,1.59
6395.00,1.59
6394.00,1.59
6393.00,1.58
6392.00,1.58
6391.00,1.57
6390.00,1.57
6389.00,1.57
6388.00,1.56
6387.00,1.56
6386.00,1.56
6385.00,1.55
6384.00,1.55
6383.00,1.55
6382.00,1.55
6381.00,1.55
6380.00,1.55
6379.00,1.55
6378.00,1.55
6377.00,1.55
6376.00,1.55
6375.00,1.55
6374.00,1.55
6373.00,1.54
6372.00,1.54
6371.00,1.54
6370.00,1.54
6369.00,1.54
6368.00,1.54
6367.00,1.54
6366.00,1.54
6365.00,1.54
6364.00,1.54
6363.00,1.54
6362.00,1.55
6361.00,1.55
6360.00,1.55
6359.00,1.56
6358.00,1.56
6357.00,1.56
6356.00,1.57
6355.00,1.57
6354.00,1.58
6353.00,1.58
6352.00,1.59
6351.00,1.59
6350.00,1.60
6349.00,1.60
6348.00,1.61
6347.00,1.62
6346.00,1.62
6345.00,1.63
6344.00,1.64
6343.00,1.65
6342.00,1.65
6341.00,1.66
6340.00,1.66
6339.00,1.67
6338.00,1.67
6337.00,1.68
6336.00,1.68
6335.00,1.68
6334.00,1.68
6333.00,1.69
6332.00,1.69
6331.00,1.69
6330.00,1.69
6329.00,1.69
6328.00,1.69
6327.00,1.69
6326.00,1.69
6325.00,1.69
6324.00,1.68
6323.00,1.68
6322.00,1.68
6321.00,1.67
6320.00,1.67
6319.00,1.67
6318.00,1.66
6317.00,1.66
6316.00,1.66
6315.00,1.65
6314.00,1.65
6313.00,1.65
6312.00,1.65
6311.00,1.65
6310.00,1.65
6309.00,1.65
6308.00,1.65
6307.00,1.65
6306.00,1.65
6305.00,1.65
6304.00,1.65
6303.00,1.65
6302.00,1.65
6301.00,1.65
6300.00,1.65
6299.00,1.65
6298.00,1.65
6297.00,1.65
6296.00,1.66
6295.00,1.66
6294.00,1.66
6293.00,1.66
6292.00,1.66
6291.00,1.66
6290.00,1.66
6289.00,1.66
6288.00,1.67
6287.00,1.67
6286.00,1.67
6285.00,1.67
6284.00,1.67
6283.00,1.67
6282.00,1.67
6281.00,1.67
6280.00,1.67
6279.00,1.67
6278.00,1.67
6277.00,1.67
6276.00,1.67
6275.00,1.67
6274.00,1.67
6273.00,1.67
6272.00,1.67
6271.00,1.67
6270.00,1.67
6269.00,1.67
6268.00,1.67
6267.00,1.67
6266.00,1.67
6265.00,1.67
6264.00,1.67
6263.00,1.67
6262.00,1.67
6261.00,1.66
6260.00,1.66
6259.00,1.66
6258.00,1.66
6257.00,1.66
6256.00,1.66
6255.00,1.66
6254.00,1.66
6253.00,1.66
6252.00,1.66
6251.00,1.66
6250.00,1.66
6249.00,1.66
6248.00,1.66
6247.00,1.66
6246.00,1.66
6245.00,1.66
6244.00,1.66
6243.00,1.66
6242.00,1.67
6241.00,1.67
6240.00,1.67
6239.00,1.67
6238.00,1.67
6237.00,1.67
6236.00,1.68
6235.00,1.68
6234.00,1.68
6233.00,1.68
6232.00,1.68
6231.00,1.68
6230.00,1.68
6229.00,1.69
6228.00,1.69
6227.00,1.69
6226.00,1.69
6225.00,1.69
6224.00,1.69
6223.00,1.69
6222.00,1.69
6221.00,1.69
6220.00,1.69
6219.00,1.68
6218.00,1.68
6217.00,1.68
6216.00,1.67
6215.00,1.67
6214.00,1.67
6213.00,1.66
6212.00,1.66
6211.00,1.66
6210.00,1.65
6209.00,1.65
6208.00,1.65
6207.00,1.64
6206.00,1.64
6205.00,1.64
6204.00,1.64
6203.00,1.64
6202.00,1.64
6201.00,1.64
6200.00,1.64
6199.00,1.64
6198.00,1.64
6197.00,1.64
6196.00,1.65
6195.00,1.65
6194.00,1.66
6193.00,1.66
6192.00,1.66
6191.00,1.67
6190.00,1.68
6189.00,1.68
6188.00,1.69
6187.00,1.70
6186.00,1.70
6185.00,1.71
6184.00,1.71
6183.00,1.72
6182.00,1.73
6181.00,1.73
6180.00,1.74
6179.00,1.74
6178.00,1.75
6177.00,1.76
6176.00,1.76
6175.00,1.76
6174.00,1.77
6173.00,1.77
6172.00,1.77
6171.00,1.77
6170.00,1.77
6169.00,1.77
6168.00,1.77
6167.00,1.77
6166.00,1.77
6165.00,1.77
6164.00,1.77
6163.00,1.77
6162.00,1.77
6161.00,1.77
6160.00,1.77
6159.00,1.76
6158.00,1.76
6157.00,1.76
6156.00,1.76
6155.00,1.76
6154.00,1.76
6153.00,1.76
6152.00,1.76
6151.00,1.76
6150.00,1.76
6149.00,1.75
6148.00,1.75
6147.00,1.75
6146.00,1.75
6145.00,1.75
6144.00,1.75
6143.00,1.75
6142.00,1.75
6141.00,1.75
6140.00,1.75
6139.00,1.75
6138.00,1.75
6137.00,1.75
6136.00,1.75
6135.00,1.75
6134.00,1.75
6133.00,1.75
6132.00,1.75
6131.00,1.75
6130.00,1.75
6129.00,1.75
6128.00,1.75
6127.00,1.75
6126.00,1.75
6125.00,1.75
6124.00,1.75
6123.00,1.75
6122.00,1.75
6121.00,1.75
6120.00,1.75
6119.00,1.75
6118.00,1.75
6117.00,1.75
6116.00,1.75
6115.00,1.75
6114.00,1.75
6113.00,1.75
6112.00,1.76
6111.00,1.76
6110.00,1.76
6109.00,1.76
6108.00,1.77
6107.00,1.77
6106.00,1.78
6105.00,1.78
6104.00,1.78
6103.00,1.79
6102.00,1.79
6101.00,1.80
6100.00,1.80
6099.00,1.80
6098.00,1.81
6097.00,1.81
6096.00,1.82
6095.00,1.82
6094.00,1.82
6093.00,1.83
6092.00,1.83
6091.00,1.83
6090.00,1.84
6089.00,1.84
6088.00,1.84
6087.00,1.84
6086.00,1.84
6085.00,1.84
6084.00,1.84
6083.00,1.84
6082.00,1.84
6081.00,1.83
6080.00,1.83
6079.00,1.83
6078.00,1.83
6077.00,1.82
6076.00,1.82
6075.00,1.82
6074.00,1.82
6073.00,1.82
6072.00,1.81
6071.00,1.81
6070.00,1.81
6069.00,1.81
6068.00,1.81
6067.00,1.81
6066.00,1.81
6065.00,1.80
6064.00,1.80
6063.00,1.80
6062.00,1.80
6061.00,1.80
6060.00,1.80
6059.00,1.80
6058.00,1.80
6057.00,1.80
6056.00,1.80
6055.00,1.80
6054.00,1.80
6053.00,1.80
6052.00,1.81
6051.00,1.81
6050.00,1.81
6049.00,1.81
6048.00,1.81
6047.00,1.81
6046.00,1.81
6045.00,1.81
6044.00,1.81
6043.00,1.81
6042.00,1.81
6041.00,1.81
6040.00,1.81
6039.00,1.81
6038.00,1.81
6037.00,1.81
6036.00,1.81
6035.00,1.81
6034.00,1.81
6033.00,1.81
6032.00,1.80
6031.00,1.80
6030.00,1.80
6029.00,1.80
6028.00,1.80
6027.00,1.79
6026.00,1.79
6025.00,1.79
6024.00,1.79
6023.00,1.79
6022.00,1.79
6021.00,1.78
6020.00,1.78
6019.00,1.78
6018.00,1.77
6017.00,1.77
6016.00,1.76
6015.00,1.76
6014.00,1.76
6013.00,1.76
6012.00,1.75
6011.00,1.75
6010.00,1.75
6009.00,1.75
6008.00,1.75
6007.00,1.75
6006.00,1.75
6005.00,1.75
6004.00,1.75
6003.00,1.76
6002.00,1.76
6001.00,1.76
6000.00,1.76
5999.00,1.76
5998.00,1.77
5997.00,1.77
5996.00,1.77
5995.00,1.77
5994.00,1.77
5993.00,1.78
5992.00,1.78
5991.00,1.78
5990.00,1.79
5989.00,1.79
5988.00,1.79
5987.00,1.80
5986.00,1.80
5985.00,1.80
5984.00,1.80
5983.00,1.81
5982.00,1.81
5981.00,1.81
5980.00,1.81
5979.00,1.81
5978.00,1.81
5977.00,1.81
5976.00,1.81
5975.00,1.81
5974.00,1.81
5973.00,1.81
5972.00,1.81
5971.00,1.82
5970.00,1.82
5969.00,1.82
5968.00,1.82
5967.00,1.83
5966.00,1.83
5965.00,1.83
5964.00,1.83
5963.00,1.83
5962.00,1.83
5961.00,1.83
5960.00,1.84
5959.00,1.84
5958.00,1.84
5957.00,1.84
5956.00,1.84
5955.00,1.84
5954.00,1.84
5953.00,1.84
5952.00,1.85
5951.00,1.85
5950.00,1.85
5949.00,1.85
5948.00,1.86
5947.00,1.86
5946.00,1.86
5945.00,1.86
5944.00,1.86
5943.00,1.86
5942.00,1.86
5941.00,1.86
5940.00,1.86
5939.00,1.86
5938.00,1.86
5937.00,1.86
5936.00,1.87
5935.00,1.87
5934.00,1.87
5933.00,1.87
5932.00,1.87
5931.00,1.87
5930.00,1.87
5929.00,1.87
5928.00,1.88
5927.00,1.88
5926.00,1.88
5925.00,1.88
5924.00,1.88
5923.00,1.88
5922.00,1.88
5921.00,1.88
5920.00,1.88
5919.00,1.88
5918.00,1.88
5917.00,1.88
5916.00,1.88
5915.00,1.88
5914.00,1.88
5913.00,1.88
5912.00,1.88
5911.00,1.88
5910.00,1.88
5909.00,1.88
5908.00,1.88
5907.00,1.88
5906.00,1.88
5905.00,1.88
5904.00,1.88
5903.00,1.88
5902.00,1.87
5901.00,1.87
5900.00,1.87
5899.00,1.87
5898.00,1.87
5897.00,1.87
5896.00,1.86
5895.00,1.86
5894.00,1.86
5893.00,1.86
5892.00,1.86
5891.00,1.85
5890.00,1.85
5889.00,1.85
5888.00,1.85
5887.00,1.85
5886.00,1.85
5885.00,1.84
5884.00,1.84
5883.00,1.84
5882.00,1.84
5881.00,1.84
5880.00,1.84
5879.00,1.83
5878.00,1.83
5877.00,1.83
5876.00,1.83
5875.00,1.83
5874.00,1.83
5873.00,1.83
5872.00,1.83
5871.00,1.83
5870.00,1.83
5869.00,1.83
5868.00,1.83
5867.00,1.83
5866.00,1.83
5865.00,1.83
5864.00,1.83
5863.00,1.83
5862.00,1.83
5861.00,1.83
5860.00,1.83
5859.00,1.82
5858.00,1.82
5857.00,1.82
5856.00,1.83
5855.00,1.83
5854.00,1.83
5853.00,1.83
5852.00,1.83
5851.00,1.83
5850.00,1.83
5849.00,1.83
5848.00,1.83
5847.00,1.84
5846.00,1.84
5845.00,1.84
5844.00,1.84
5843.00,1.85
5842.00,1.85
5841.00,1.85
5840.00,1.85
5839.00,1.85
5838.00,1.86
5837.00,1.86
5836.00,1.86
5835.00,1.87
5834.00,1.87
5833.00,1.87
5832.00,1.88
5831.00,1.88
5830.00,1.88
5829.00,1.89
5828.00,1.89
5827.00,1.89
5826.00,1.90
5825.00,1.90
5824.00,1.90
5823.00,1.90
5822.00,1.90
5821.00,1.90
5820.00,1.90
5819.00,1.90
5818.00,1.90
5817.00,1.90
5816.00,1.90
5815.00,1.90
5814.00,1.90
5813.00,1.90
5812.00,1.90
5811.00,1.89
5810.00,1.89
5809.00,1.89
5808.00,1.89
5807.00,1.88
5806.00,1.88
5805.00,1.88
5804.00,1.87
5803.00,1.87
5802.00,1.86
5801.00,1.86
5800.00,1.85
5799.00,1.85
5798.00,1.84
5797.00,1.84
5796.00,1.83
5795.00,1.83
5794.00,1.83
5793.00,1.82
5792.00,1.82
5791.00,1.82
5790.00,1.81
5789.00,1.81
5788.00,1.80
5787.00,1.80
5786.00,1.80
5785.00,1.80
5784.00,1.79
5783.00,1.79
5782.00,1.79
5781.00,1.79
5780.00,1.79
5779.00,1.78
5778.00,1.78
5777.00,1.78
5776.00,1.78
5775.00,1.79
5774.00,1.79
5773.00,1.79
5772.00,1.79
5771.00,1.80
5770.00,1.80
5769.00,1.80
5768.00,1.81
5767.00,1.81
5766.00,1.81
5765.00,1.82
5764.00,1.82
5763.00,1.83
5762.00,1.83
5761.00,1.83
5760.00,1.84
5759.00,1.84
5758.00,1.84
5757.00,1.85
5756.00,1.85
5755.00,1.85
5754.00,1.86
5753.00,1.86
5752.00,1.86
5751.00,1.87
5750.00,1.87
5749.00,1.87
5748.00,1.88
5747.00,1.88
5746.00,1.88
5745.00,1.88
5744.00,1.88
5743.00,1.88
5742.00,1.88
5741.00,1.88
5740.00,1.88
5739.00,1.87
5738.00,1.87
5737.00,1.87
5736.00,1.87
5735.00,1.87
5734.00,1.87
5733.00,1.87
5732.00,1.87
5731.00,1.87
5730.00,1.87
5729.00,1.87
5728.00,1.87
5727.00,1.87
5726.00,1.87
5725.00,1.87
5724.00,1.87
5723.00,1.86
5722.00,1.86
5721.00,1.86
5720.00,1.86
5719.00,1.86
5718.00,1.86
5717.00,1.86
5716.00,1.86
5715.00,1.86
5714.00,1.86
5713.00,1.86
5712.00,1.87
5711.00,1.87
5710.00,1.87
5709.00,1.87
5708.00,1.87
5707.00,1.87
5706.00,1.87
5705.00,1.87
5704.00,1.87
5703.00,1.87
5702.00,1.87
5701.00,1.87
5700.00,1.87
5699.00,1.87
5698.00,1.87
5697.00,1.87
5696.00,1.88
5695.00,1.88
5694.00,1.88
5693.00,1.88
5692.00,1.88
5691.00,1.88
5690.00,1.88
5689.00,1.88
5688.00,1.88
5687.00,1.88
5686.00,1.87
5685.00,1.87
5684.00,1.87
5683.00,1.87
5682.00,1.87
5681.00,1.87
5680.00,1.87
5679.00,1.87
5678.00,1.87
5677.00,1.87
5676.00,1.87
5675.00,1.87
5674.00,1.87
5673.00,1.87
5672.00,1.86
5671.00,1.86
5670.00,1.86
5669.00,1.86
5668.00,1.86
5667.00,1.86
5666.00,1.86
5665.00,1.86
5664.00,1.86
5663.00,1.86
5662.00,1.86
5661.00,1.86
5660.00,1.86
5659.00,1.86
5658.00,1.86
5657.00,1.86
5656.00,1.86
5655.00,1.86
5654.00,1.86
5653.00,1.86
5652.00,1.86
5651.00,1.86
5650.00,1.86
5649.00,1.86
5648.00,1.86
5647.00,1.86
5646.00,1.86
5645.00,1.86
5644.00,1.86
5643.00,1.86
5642.00,1.86
5641.00,1.86
5640.00,1.86
5639.00,1.86
5638.00,1.86
5637.00,1.87
5636.00,1.87
5635.00,1.87
5634.00,1.87
5633.00,1.87
5632.00,1.87
5631.00,1.87
5630.00,1.87
5629.00,1.87
5628.00,1.87
5627.00,1.88
5626.00,1.88
5625.00,1.88
5624.00,1.88
5623.00,1.88
5622.00,1.88
5621.00,1.88
5620.00,1.88
5619.00,1.88
5618.00,1.88
5617.00,1.88
5616.00,1.88
5615.00,1.88
5614.00,1.88
5613.00,1.88
5612.00,1.88
5611.00,1.88
5610.00,1.88
5609.00,1.88
5608.00,1.88
5607.00,1.88
5606.00,1.88
5605.00,1.88
5604.00,1.88
5603.00,1.88
5602.00,1.88
5601.00,1.88
5600.00,1.88
5599.00,1.87
5598.00,1.87
5597.00,1.87
5596.00,1.87
5595.00,1.87
5594.00,1.86
5593.00,1.86
5592.00,1.86
5591.00,1.86
5590.00,1.86
5589.00,1.86
5588.00,1.86
5587.00,1.86
5586.00,1.86
5585.00,1.85
5584.00,1.85
5583.00,1.85
5582.00,1.86
5581.00,1.86
5580.00,1.86
5579.00,1.86
5578.00,1.86
5577.00,1.86
5576.00,1.86
5575.00,1.86
5574.00,1.86
5573.00,1.86
5572.00,1.86
5571.00,1.86
5570.00,1.87
5569.00,1.87
5568.00,1.87
5567.00,1.87
5566.00,1.87
5565.00,1.87
5564.00,1.87
5563.00,1.87
5562.00,1.88
5561.00,1.88
5560.00,1.88
5559.00,1.88
5558.00,1.88
5557.00,1.88
5556.00,1.88
5555.00,1.88
5554.00,1.88
5553.00,1.88
5552.00,1.88
5551.00,1.88
5550.00,1.88
5549.00,1.88
5548.00,1.88
5547.00,1.88
5546.00,1.88
5545.00,1.88
5544.00,1.89
5543.00,1.89
5542.00,1.89
5541.00,1.89
5540.00,1.89
5539.00,1.90
5538.00,1.90
5537.00,1.90
5536.00,1.90
5535.00,1.91
5534.00,1.91
5533.00,1.91
5532.00,1.92
5531.00,1.92
5530.00,1.93
5529.00,1.93
5528.00,1.93
5527.00,1.93
5526.00,1.94
5525.00,1.94
5524.00,1.94
5523.00,1.94
5522.00,1.94
5521.00,1.94
5520.00,1.94
5519.00,1.94
5518.00,1.93
5517.00,1.93
5516.00,1.93
5515.00,1.93
5514.00,1.93
5513.00,1.92
5512.00,1.92
5511.00,1.92
5510.00,1.91
5509.00,1.91
5508.00,1.91
5507.00,1.90
5506.00,1.90
5505.00,1.89
5504.00,1.89
5503.00,1.89
5502.00,1.88
5501.00,1.88
5500.00,1.88
5499.00,1.87
5498.00,1.87
5497.00,1.87
5496.00,1.87
5495.00,1.87
5494.00,1.87
5493.00,1.87
5492.00,1.87
5491.00,1.87
5490.00,1.87
5489.00,1.88
5488.00,1.88
5487.00,1.88
5486.00,1.89
5485.00,1.89
5484.00,1.89
5483.00,1.90
5482.00,1.90
5481.00,1.90
5480.00,1.91
5479.00,1.91
5478.00,1.91
5477.00,1.92
5476.00,1.92
5475.00,1.93
5474.00,1.93
5473.00,1.93
5472.00,1.94
5471.00,1.94
5470.00,1.95
5469.00,1.95
5468.00,1.95
5467.00,1.96
5466.00,1.96
5465.00,1.96
5464.00,1.96
5463.00,1.96
5462.00,1.97
5461.00,1.97
5460.00,1.97
5459.00,1.97
5458.00,1.97
5457.00,1.97
5456.00,1.97
5455.00,1.97
5454.00,1.97
5453.00,1.97
5452.00,1.97
5451.00,1.97
5450.00,1.97
5449.00,1.97
5448.00,1.97
5447.00,1.97
5446.00,1.97
5445.00,1.97
5444.00,1.96
5443.00,1.96
5442.00,1.96
5441.00,1.96
5440.00,1.96
5439.00,1.96
5438.00,1.96
5437.00,1.96
5436.00,1.96
5435.00,1.96
5434.00,1.96
5433.00,1.97
5432.00,1.97
5431.00,1.97
5430.00,1.97
5429.00,1.98
5428.00,1.98
5427.00,1.98
5426.00,1.99
5425.00,1.99
5424.00,1.99
5423.00,1.99
5422.00,2.00
5421.00,2.00
5420.00,2.00
5419.00,2.01
5418.00,2.01
5417.00,2.02
5416.00,2.02
5415.00,2.02
5414.00,2.03
5413.00,2.03
5412.00,2.03
5411.00,2.04
5410.00,2.04
5409.00,2.04
5408.00,2.04
5407.00,2.04
5406.00,2.03
5405.00,2.03
5404.00,2.03
5403.00,2.03
5402.00,2.02
5401.00,2.02
5400.00,2.02
5399.00,2.01
5398.00,2.01
5397.00,2.01
5396.00,2.00
5395.00,2.00
5394.00,1.99
5393.00,1.99
5392.00,1.98
5391.00,1.98
5390.00,1.97
5389.00,1.96
5388.00,1.96
5387.00,1.95
5386.00,1.94
5385.00,1.94
5384.00,1.93
5383.00,1.92
5382.00,1.92
5381.00,1.92
5380.00,1.91
5379.00,1.91
5378.00,1.90
5377.00,1.90
5376.00,1.89
5375.00,1.89
5374.00,1.88
5373.00,1.88
5372.00,1.88
5371.00,1.87
5370.00,1.87
5369.00,1.86
5368.00,1.86
5367.00,1.86
5366.00,1.85
5365.00,1.85
5364.00,1.85
5363.00,1.85
5362.00,1.84
5361.00,1.84
5360.00,1.84
5359.00,1.84
5358.00,1.84
5357.00,1.84
5356.00,1.84
5355.00,1.83
5354.00,1.83
5353.00,1.83
5352.00,1.83
5351.00,1.83
5350.00,1.83
5349.00,1.82
5348.00,1.82
5347.00,1.82
5346.00,1.82
5345.00,1.82
5344.00,1.82
5343.00,1.81
5342.00,1.81
5341.00,1.81
5340.00,1.81
5339.00,1.81
5338.00,1.80
5337.00,1.80
5336.00,1.80
5335.00,1.79
5334.00,1.78
5333.00,1.78
5332.00,1.77
5331.00,1.77
5330.00,1.76
5329.00,1.75
5328.00,1.75
5327.00,1.74
5326.00,1.73
5325.00,1.72
5324.00,1.72
5323.00,1.71
5322.00,1.70
5321.00,1.69
5320.00,1.68
5319.00,1.68
5318.00,1.67
5317.00,1.66
5316.00,1.65
5315.00,1.64
5314.00,1.64
5313.00,1.63
5312.00,1.62
5311.00,1.61
5310.00,1.60
5309.00,1.59
5308.00,1.59
5307.00,1.58
5306.00,1.58
5305.00,1.57
5304.00,1.57
5303.00,1.56
5302.00,1.56
5301.00,1.55
5300.00,1.55
5299.00,1.54
5298.00,1.54
5297.00,1.54
5296.00,1.53
5295.00,1.53
5294.00,1.52
5293.00,1.52
5292.00,1.52
5291.00,1.51
5290.00,1.51
5289.00,1.50
5288.00,1.50
5287.00,1.49
5286.00,1.49
5285.00,1.49
5284.00,1.48
5283.00,1.48
5282.00,1.47
5281.00,1.46
5280.00,1.45
5279.00,1.45
5278.00,1.44
5277.00,1.43
5276.00,1.42
5275.00,1.41
5274.00,1.41
5273.00,1.40
5272.00,1.39
5271.00,1.38
5270.00,1.38
5269.00,1.37
5268.00,1.36
5267.00,1.36
5266.00,1.35
5265.00,1.34
5264.00,1.34
5263.00,1.33
5262.00,1.33
5261.00,1.32
5260.00,1.32
5259.00,1.31
5258.00,1.31
5257.00,1.30
5256.00,1.30
5255.00,1.29
5254.00,1.29
5253.00,1.29
5252.00,1.28
5251.00,1.28
5250.00,1.28
5249.00,1.27
5248.00,1.27
5247.00,1.27
5246.00,1.26
5245.00,1.26
5244.00,1.25
5243.00,1.25
5242.00,1.24
5241.00,1.24
5240.00,1.23
5239.00,1.23
5238.00,1.22
5237.00,1.22
5236.00,1.22
5235.00,1.21
5234.00,1.21
5233.00,1.20
5232.00,1.20
5231.00,1.20
5230.00,1.19
5229.00,1.19
5228.00,1.19
5227.00,1.19
5226.00,1.18
5225.00,1.18
5224.00,1.18
5223.00,1.18
5222.00,1.18
5221.00,1.17
5220.00,1.17
5219.00,1.17
5218.00,1.17
5217.00,1.17
5216.00,1.17
5215.00,1.16
5214.00,1.16
5213.00,1.16
5212.00,1.16
5211.00,1.16
5210.00,1.16
5209.00,1.16
5208.00,1.15
5207.00,1.15
5206.00,1.15
5205.00,1.14
5204.00,1.14
5203.00,1.14
5202.00,1.13
5201.00,1.13
5200.00,1.12
5199.00,1.12
5198.00,1.11
5197.00,1.11
5196.00,1.10
5195.00,1.10
5194.00,1.10
5193.00,1.09
5192.00,1.09
5191.00,1.09
5190.00,1.08
5189.00,1.08
5188.00,1.08
5187.00,1.08
5186.00,1.08
5185.00,1.07
5184.00,1.07
5183.00,1.07
5182.00,1.07
5181.00,1.07
5180.00,1.07
5179.00,1.07
5178.00,1.07
5177.00,1.07
5176.00,1.07
5175.00,1.07
5174.00,1.07
5173.00,1.07
5172.00,1.08
5171.00,1.08
5170.00,1.08
5169.00,1.08
5168.00,1.08
5167.00,1.08
5166.00,1.09
5165.00,1.09
5164.00,1.09
5163.00,1.09
5162.00,1.09
5161.00,1.10
5160.00,1.10
5159.00,1.10
5158.00,1.11
5157.00,1.11
5156.00,1.11
5155.00,1.11
5154.00,1.12
5153.00,1.12
5152.00,1.12
5151.00,1.13
5150.00,1.13
5149.00,1.13
5148.00,1.13
5147.00,1.14
5146.00,1.14
5145.00,1.14
5144.00,1.14
5143.00,1.14
5142.00,1.15
5141.00,1.15
5140.00,1.15
5139.00,1.15
5138.00,1.15
5137.00,1.15
5136.00,1.15
5135.00,1.16
5134.00,1.16
5133.00,1.16
5132.00,1.16
5131.00,1.16
5130.00,1.15
5129.00,1.15
5128.00,1.16
5127.00,1.16
5126.00,1.16
5125.00,1.16
5124.00,1.16
5123.00,1.16
5122.00,1.16
5121.00,1.16
5120.00,1.16
5119.00,1.16
5118.00,1.16
5117.00,1.16
5116.00,1.16
5115.00,1.16
5114.00,1.16
5113.00,1.16
5112.00,1.16
5111.00,1.16
5110.00,1.16
5109.00,1.16
5108.00,1.17
5107.00,1.17
5106.00,1.17
5105.00,1.17
5104.00,1.18
5103.00,1.18
5102.00,1.18
5101.00,1.18
5100.00,1.19
5099.00,1.19
5098.00,1.19
5097.00,1.19
5096.00,1.20
5095.00,1.20
5094.00,1.20
5093.00,1.21
5092.00,1.21
5091.00,1.22
5090.00,1.23
5089.00,1.23
5088.00,1.24
5087.00,1.24
5086.00,1.25
5085.00,1.25
5084.00,1.26
5083.00,1.26
5082.00,1.27
5081.00,1.27
5080.00,1.27
5079.00,1.28
5078.00,1.28
5077.00,1.29
5076.00,1.29
5075.00,1.30
5074.00,1.30
5073.00,1.31
5072.00,1.31
5071.00,1.32
5070.00,1.32
5069.00,1.32
5068.00,1.33
5067.00,1.33
5066.00,1.33
5065.00,1.34
5064.00,1.34
5063.00,1.34
5062.00,1.34
5061.00,1.35
5060.00,1.35
5059.00,1.35
5058.00,1.35
5057.00,1.35
5056.00,1.35
5055.00,1.35
5054.00,1.36
5053.00,1.36
5052.00,1.36
5051.00,1.36
5050.00,1.36
5049.00,1.35
5048.00,1.35
5047.00,1.35
5046.00,1.35
5045.00,1.35
5044.00,1.34
5043.00,1.34
5042.00,1.34
5041.00,1.34
5040.00,1.33
5039.00,1.33
5038.00,1.33
5037.00,1.33
5036.00,1.33
5035.00,1.33
5034.00,1.33
5033.00,1.33
5032.00,1.33
5031.00,1.33
5030.00,1.33
5029.00,1.33
5028.00,1.33
5027.00,1.33
5026.00,1.33
5025.00,1.34
5024.00,1.34
5023.00,1.34
5022.00,1.35
5021.00,1.35
5020.00,1.35
5019.00,1.36
5018.00,1.36
5017.00,1.37
5016.00,1.37
5015.00,1.38
5014.00,1.38
5013.00,1.38
5012.00,1.38
5011.00,1.39
5010.00,1.39
5009.00,1.39
5008.00,1.39
5007.00,1.39
5006.00,1.39
5005.00,1.39
5004.00,1.39
5003.00,1.39
5002.00,1.39
5001.00,1.39
5000.00,1.39
4999.00,1.39
4998.00,1.39
4997.00,1.39
4996.00,1.39
4995.00,1.39
4994.00,1.39
4993.00,1.39
4992.00,1.39
4991.00,1.40
4990.00,1.40
4989.00,1.40
4988.00,1.40
4987.00,1.40
4986.00,1.40
4985.00,1.40
4984.00,1.41
4983.00,1.41
4982.00,1.42
4981.00,1.42
4980.00,1.43
4979.00,1.43
4978.00,1.44
4977.00,1.44
4976.00,1.45
4975.00,1.45
4974.00,1.46
4973.00,1.46
4972.00,1.47
4971.00,1.47
4970.00,1.48
4969.00,1.48
4968.00,1.49
4967.00,1.49
4966.00,1.50
4965.00,1.50
4964.00,1.51
4963.00,1.51
4962.00,1.52
4961.00,1.52
4960.00,1.53
4959.00,1.53
4958.00,1.54
4957.00,1.54
4956.00,1.54
4955.00,1.54
4954.00,1.55
4953.00,1.55
4952.00,1.55
4951.00,1.55
4950.00,1.55
4949.00,1.55
4948.00,1.55
4947.00,1.55
4946.00,1.55
4945.00,1.55
4944.00,1.55
4943.00,1.55
4942.00,1.54
4941.00,1.54
4940.00,1.54
4939.00,1.54
4938.00,1.54
4937.00,1.53
4936.00,1.53
4935.00,1.53
4934.00,1.53
4933.00,1.53
4932.00,1.53
4931.00,1.53
4930.00,1.53
4929.00,1.53
4928.00,1.53
4927.00,1.53
4926.00,1.53
4925.00,1.53
4924.00,1.54
4923.00,1.54
4922.00,1.55
4921.00,1.55
4920.00,1.56
4919.00,1.56
4918.00,1.57
4917.00,1.57
4916.00,1.58
4915.00,1.59
4914.00,1.59
4913.00,1.60
4912.00,1.60
4911.00,1.61
4910.00,1.62
4909.00,1.62
4908.00,1.63
4907.00,1.64
4906.00,1.64
4905.00,1.65
4904.00,1.66
4903.00,1.66
4902.00,1.67
4901.00,1.67
4900.00,1.68
4899.00,1.68
4898.00,1.69
4897.00,1.69
4896.00,1.70
4895.00,1.70
4894.00,1.70
4893.00,1.70
4892.00,1.71
4891.00,1.71
4890.00,1.71
4889.00,1.71
4888.00,1.72
4887.00,1.72
4886.00,1.72
4885.00,1.72
4884.00,1.72
4883.00,1.72
4882.00,1.72
4881.00,1.71
4880.00,1.71
4879.00,1.71
4878.00,1.71
4877.00,1.71
4876.00,1.71
4875.00,1.71
4874.00,1.71
4873.00,1.70
4872.00,1.70
4871.00,1.70
4870.00,1.70
4869.00,1.70
4868.00,1.70
4867.00,1.70
4866.00,1.70
4865.00,1.70
4864.00,1.71
4863.00,1.71
4862.00,1.71
4861.00,1.71
4860.00,1.72
4859.00,1.72
4858.00,1.72
4857.00,1.73
4856.00,1.73
4855.00,1.74
4854.00,1.74
4853.00,1.74
4852.00,1.75
4851.00,1.75
4850.00,1.76
4849.00,1.76
4848.00,1.76
4847.00,1.77
4846.00,1.77
4845.00,1.77
4844.00,1.77
4843.00,1.77
4842.00,1.78
4841.00,1.78
4840.00,1.78
4839.00,1.78
4838.00,1.78
4837.00,1.78
4836.00,1.79
4835.00,1.79
4834.00,1.79
4833.00,1.79
4832.00,1.78
4831.00,1.78
4830.00,1.78
4829.00,1.78
4828.00,1.78
4827.00,1.78
4826.00,1.78
4825.00,1.78
4824.00,1.78
4823.00,1.78
4822.00,1.78
4821.00,1.78
4820.00,1.79
4819.00,1.79
4818.00,1.79
4817.00,1.79
4816.00,1.79
4815.00,1.80
4814.00,1.80
4813.00,1.80
4812.00,1.81
4811.00,1.81
4810.00,1.81
4809.00,1.81
4808.00,1.81
4807.00,1.81
4806.00,1.81
4805.00,1.82
4804.00,1.82
4803.00,1.82
4802.00,1.82
4801.00,1.82
4800.00,1.82
4799.00,1.82
4798.00,1.82
4797.00,1.82
4796.00,1.82
4795.00,1.82
4794.00,1.82
4793.00,1.82
4792.00,1.82
4791.00,1.82
4790.00,1.82
4789.00,1.82
4788.00,1.82
4787.00,1.82
4786.00,1.82
4785.00,1.82
4784.00,1.82
4783.00,1.82
4782.00,1.82
4781.00,1.82
4780.00,1.82
4779.00,1.83
4778.00,1.83
4777.00,1.83
4776.00,1.84
4775.00,1.84
4774.00,1.85
4773.00,1.85
4772.00,1.86
4771.00,1.86
4770.00,1.87
4769.00,1.87
4768.00,1.88
4767.00,1.88
4766.00,1.89
4765.00,1.89
4764.00,1.90
4763.00,1.90
4762.00,1.90
4761.00,1.91
4760.00,1.91
4759.00,1.92
4758.00,1.92
4757.00,1.92
4756.00,1.92
4755.00,1.93
4754.00,1.93
4753.00,1.93
4752.00,1.93
4751.00,1.93
4750.00,1.93
4749.00,1.93
4748.00,1.93
4747.00,1.93
4746.00,1.93
4745.00,1.92
4744.00,1.92
4743.00,1.92
4742.00,1.92
4741.00,1.92
4740.00,1.92
4739.00,1.92
4738.00,1.92
4737.00,1.93
4736.00,1.93
4735.00,1.93
4734.00,1.93
4733.00,1.93
4732.00,1.93
4731.00,1.93
4730.00,1.93
4729.00,1.94
4728.00,1.94
4727.00,1.94
4726.00,1.95
4725.00,1.95
4724.00,1.95
4723.00,1.95
4722.00,1.95
4721.00,1.96
4720.00,1.96
4719.00,1.96
4718.00,1.96
4717.00,1.96
4716.00,1.96
4715.00,1.96
4714.00,1.96
4713.00,1.96
4712.00,1.96
4711.00,1.97
4710.00,1.97
4709.00,1.97
4708.00,1.97
4707.00,1.97
4706.00,1.98
4705.00,1.98
4704.00,1.98
4703.00,1.98
4702.00,1.99
4701.00,1.99
4700.00,1.99
4699.00,1.99
4698.00,1.99
4697.00,2.00
4696.00,2.00
4695.00,2.00
4694.00,2.00
4693.00,2.01
4692.00,2.01
4691.00,2.01
4690.00,2.01
4689.00,2.02
4688.00,2.02
4687.00,2.02
4686.00,2.02
4685.00,2.03
4684.00,2.03
4683.00,2.03
4682.00,2.03
4681.00,2.03
4680.00,2.03
4679.00,2.02
4678.00,2.02
4677.00,2.02
4676.00,2.02
4675.00,2.02
4674.00,2.01
4673.00,2.01
4672.00,2.01
4671.00,2.01
4670.00,2.01
4669.00,2.01
4668.00,2.01
4667.00,2.01
4666.00,2.01
4665.00,2.01
4664.00,2.00
4663.00,2.00
4662.00,2.00
4661.00,2.00
4660.00,2.00
4659.00,2.00
4658.00,2.00
4657.00,2.00
4656.00,2.00
4655.00,2.00
4654.00,2.00
4653.00,2.00
4652.00,2.00
4651.00,2.00
4650.00,2.00
4649.00,2.00
4648.00,2.00
4647.00,2.00
4646.00,2.00
4645.00,2.00
4644.00,2.01
4643.00,2.01
4642.00,2.01
4641.00,2.01
4640.00,2.01
4639.00,2.01
4638.00,2.01
4637.00,2.01
4636.00,2.01
4635.00,2.01
4634.00,2.01
4633.00,2.01
4632.00,2.01
4631.00,2.01
4630.00,2.02
4629.00,2.02
4628.00,2.02
4627.00,2.02
4626.00,2.02
4625.00,2.02
4624.00,2.02
4623.00,2.02
4622.00,2.02
4621.00,2.02
4620.00,2.02
4619.00,2.02
4618.00,2.02
4617.00,2.02
4616.00,2.02
4615.00,2.02
4614.00,2.02
4613.00,2.02
4612.00,2.02
4611.00,2.02
4610.00,2.03
4609.00,2.03
4608.00,2.03
4607.00,2.03
4606.00,2.03
4605.00,2.03
4604.00,2.03
4603.00,2.03
4602.00,2.03
4601.00,2.03
4600.00,2.03
4599.00,2.03
4598.00,2.03
4597.00,2.03
4596.00,2.03
4595.00,2.03
4594.00,2.03
4593.00,2.03
4592.00,2.03
4591.00,2.03
4590.00,2.03
4589.00,2.03
4588.00,2.03
4587.00,2.03
4586.00,2.03
4585.00,2.03
4584.00,2.03
4583.00,2.03
4582.00,2.03
4581.00,2.02
4580.00,2.02
4579.00,2.02
4578.00,2.02
4577.00,2.03
4576.00,2.03
4575.00,2.03
4574.00,2.03
4573.00,2.03
4572.00,2.03
4571.00,2.03
4570.00,2.03
4569.00,2.03
4568.00,2.03
4567.00,2.04
4566.00,2.04
4565.00,2.04
4564.00,2.04
4563.00,2.04
4562.00,2.05
4561.00,2.05
4560.00,2.05
4559.00,2.05
4558.00,2.05
4557.00,2.05
4556.00,2.06
4555.00,2.06
4554.00,2.06
4553.00,2.06
4552.00,2.06
4551.00,2.06
4550.00,2.06
4549.00,2.06
4548.00,2.06
4547.00,2.07
4546.00,2.07
4545.00,2.07
4544.00,2.07
4543.00,2.07
4542.00,2.07
4541.00,2.07
4540.00,2.07
4539.00,2.07
4538.00,2.07
4537.00,2.07
4536.00,2.07
4535.00,2.07
4534.00,2.07
4533.00,2.07
4532.00,2.07
4531.00,2.07
4530.00,2.07
4529.00,2.07
4528.00,2.07
4527.00,2.07
4526.00,2.07
4525.00,2.07
4524.00,2.07
4523.00,2.07
4522.00,2.07
4521.00,2.07
4520.00,2.06
4519.00,2.06
4518.00,2.06
4517.00,2.06
4516.00,2.06
4515.00,2.06
4514.00,2.06
4513.00,2.06
4512.00,2.06
4511.00,2.06
4510.00,2.05
4509.00,2.05
4508.00,2.05
4507.00,2.05
4506.00,2.05
4505.00,2.05
4504.00,2.05
4503.00,2.05
4502.00,2.05
4501.00,2.05
4500.00,2.05
4499.00,2.05
4498.00,2.05
4497.00,2.05
4496.00,2.05
4495.00,2.06
4494.00,2.06
4493.00,2.06
4492.00,2.06
4491.00,2.06
4490.00,2.06
4489.00,2.06
4488.00,2.06
4487.00,2.07
4486.00,2.07
4485.00,2.07
4484.00,2.07
4483.00,2.07
4482.00,2.07
4481.00,2.07
4480.00,2.07
4479.00,2.07
4478.00,2.08
4477.00,2.08
4476.00,2.08
4475.00,2.08
4474.00,2.08
4473.00,2.08
4472.00,2.08
4471.00,2.08
4470.00,2.08
4469.00,2.08
4468.00,2.08
4467.00,2.08
4466.00,2.08
4465.00,2.08
4464.00,2.08
4463.00,2.08
4462.00,2.08
4461.00,2.08
4460.00,2.08
4459.00,2.08
4458.00,2.08
4457.00,2.08
4456.00,2.08
4455.00,2.08
4454.00,2.08
4453.00,2.08
4452.00,2.07
4451.00,2.07
4450.00,2.07
4449.00,2.07
4448.00,2.06
4447.00,2.06
4446.00,2.06
4445.00,2.05
4444.00,2.05
4443.00,2.04
4442.00,2.04
4441.00,2.04
4440.00,2.03
4439.00,2.03
4438.00,2.03
4437.00,2.02
4436.00,2.02
4435.00,2.02
4434.00,2.01
4433.00,2.01
4432.00,2.00
4431.00,2.00
4430.00,1.99
4429.00,1.99
4428.00,1.98
4427.00,1.97
4426.00,1.97
4425.00,1.96
4424.00,1.95
4423.00,1.95
4422.00,1.94
4421.00,1.94
4420.00,1.93
4419.00,1.92
4418.00,1.92
4417.00,1.91
4416.00,1.91
4415.00,1.91
4414.00,1.90
4413.00,1.90
4412.00,1.89
4411.00,1.89
4410.00,1.88
4409.00,1.88
4408.00,1.87
4407.00,1.87
4406.00,1.87
4405.00,1.87
4404.00,1.87
4403.00,1.87
4402.00,1.87
4401.00,1.87
4400.00,1.87
4399.00,1.88
4398.00,1.88
4397.00,1.89
4396.00,1.89
4395.00,1.89
4394.00,1.90
4393.00,1.90
4392.00,1.91
4391.00,1.91
4390.00,1.91
4389.00,1.92
4388.00,1.92
4387.00,1.92
4386.00,1.93
4385.00,1.93
4384.00,1.93
4383.00,1.94
4382.00,1.94
4381.00,1.95
4380.00,1.95
4379.00,1.95
4378.00,1.95
4377.00,1.95
4376.00,1.95
4375.00,1.95
4374.00,1.95
4373.00,1.95
4372.00,1.94
4371.00,1.94
4370.00,1.94
4369.00,1.93
4368.00,1.93
4367.00,1.93
4366.00,1.93
4365.00,1.92
4364.00,1.92
4363.00,1.92
4362.00,1.92
4361.00,1.91
4360.00,1.91
4359.00,1.91
4358.00,1.91
4357.00,1.90
4356.00,1.90
4355.00,1.90
4354.00,1.89
4353.00,1.89
4352.00,1.89
4351.00,1.89
4350.00,1.89
4349.00,1.88
4348.00,1.88
4347.00,1.88
4346.00,1.88
4345.00,1.88
4344.00,1.88
4343.00,1.88
4342.00,1.88
4341.00,1.88
4340.00,1.88
4339.00,1.88
4338.00,1.88
4337.00,1.89
4336.00,1.89
4335.00,1.89
4334.00,1.89
4333.00,1.89
4332.00,1.89
4331.00,1.90
4330.00,1.90
4329.00,1.90
4328.00,1.91
4327.00,1.91
4326.00,1.91
4325.00,1.92
4324.00,1.92
4323.00,1.92
4322.00,1.92
4321.00,1.93
4320.00,1.93
4319.00,1.93
4318.00,1.94
4317.00,1.94
4316.00,1.95
4315.00,1.95
4314.00,1.96
4313.00,1.96
4312.00,1.97
4311.00,1.98
4310.00,1.98
4309.00,1.99
4308.00,1.99
4307.00,2.00
4306.00,2.00
4305.00,2.00
4304.00,2.01
4303.00,2.01
4302.00,2.01
4301.00,2.01
4300.00,2.02
4299.00,2.02
4298.00,2.02
4297.00,2.03
4296.00,2.03
4295.00,2.03
4294.00,2.03
4293.00,2.03
4292.00,2.03
4291.00,2.03
4290.00,2.03
4289.00,2.03
4288.00,2.03
4287.00,2.03
4286.00,2.02
4285.00,2.02
4284.00,2.02
4283.00,2.02
4282.00,2.01
4281.00,2.01
4280.00,2.01
4279.00,2.00
4278.00,2.00
4277.00,2.00
4276.00,2.00
4275.00,1.99
4274.00,1.99
4273.00,1.98
4272.00,1.98
4271.00,1.97
4270.00,1.97
4269.00,1.97
4268.00,1.96
4267.00,1.96
4266.00,1.96
4265.00,1.96
4264.00,1.96
4263.00,1.95
4262.00,1.95
4261.00,1.95
4260.00,1.95
4259.00,1.95
4258.00,1.95
4257.00,1.96
4256.00,1.96
4255.00,1.96
4254.00,1.96
4253.00,1.96
4252.00,1.96
4251.00,1.97
4250.00,1.97
4249.00,1.97
4248.00,1.98
4247.00,1.98
4246.00,1.99
4245.00,1.99
4244.00,1.99
4243.00,2.00
4242.00,2.00
4241.00,2.00
4240.00,2.00
4239.00,2.00
4238.00,2.01
4237.00,2.01
4236.00,2.01
4235.00,2.01
4234.00,2.01
4233.00,2.00
4232.00,2.00
4231.00,2.00
4230.00,1.99
4229.00,1.99
4228.00,1.98
4227.00,1.98
4226.00,1.97
4225.00,1.96
4224.00,1.96
4223.00,1.95
4222.00,1.94
4221.00,1.94
4220.00,1.93
4219.00,1.92
4218.00,1.92
4217.00,1.91
4216.00,1.91
4215.00,1.90
4214.00,1.90
4213.00,1.89
4212.00,1.89
4211.00,1.89
4210.00,1.88
4209.00,1.88
4208.00,1.88
4207.00,1.88
4206.00,1.88
4205.00,1.89
4204.00,1.89
4203.00,1.89
4202.00,1.89
4201.00,1.90
4200.00,1.90
4199.00,1.90
4198.00,1.91
4197.00,1.91
4196.00,1.91
4195.00,1.92
4194.00,1.92
4193.00,1.92
4192.00,1.93
4191.00,1.93
4190.00,1.93
4189.00,1.93
4188.00,1.93
4187.00,1.93
4186.00,1.93
4185.00,1.93
4184.00,1.93
4183.00,1.93
4182.00,1.93
4181.00,1.93
4180.00,1.92
4179.00,1.92
4178.00,1.92
4177.00,1.91
4176.00,1.91
4175.00,1.91
4174.00,1.90
4173.00,1.90
4172.00,1.90
4171.00,1.89
4170.00,1.89
4169.00,1.89
4168.00,1.88
4167.00,1.88
4166.00,1.88
4165.00,1.88
4164.00,1.87
4163.00,1.87
4162.00,1.87
4161.00,1.87
4160.00,1.87
4159.00,1.87
4158.00,1.86
4157.00,1.86
4156.00,1.86
4155.00,1.86
4154.00,1.85
4153.00,1.85
4152.00,1.85
4151.00,1.84
4150.00,1.84
4149.00,1.84
4148.00,1.83
4147.00,1.83
4146.00,1.82
4145.00,1.82
4144.00,1.81
4143.00,1.81
4142.00,1.81
4141.00,1.80
4140.00,1.80
4139.00,1.79
4138.00,1.78
4137.00,1.78
4136.00,1.77
4135.00,1.77
4134.00,1.76
4133.00,1.76
4132.00,1.76
4131.00,1.75
4130.00,1.75
4129.00,1.75
4128.00,1.75
4127.00,1.75
4126.00,1.75
4125.00,1.75
4124.00,1.75
4123.00,1.76
4122.00,1.76
4121.00,1.76
4120.00,1.76
4119.00,1.77
4118.00,1.77
4117.00,1.78
4116.00,1.78
4115.00,1.78
4114.00,1.78
4113.00,1.78
4112.00,1.78
4111.00,1.78
4110.00,1.78
4109.00,1.78
4108.00,1.78
4107.00,1.78
4106.00,1.78
4105.00,1.78
4104.00,1.78
4103.00,1.77
4102.00,1.77
4101.00,1.77
4100.00,1.76
4099.00,1.76
4098.00,1.75
4097.00,1.74
4096.00,1.73
4095.00,1.73
4094.00,1.72
4093.00,1.71
4092.00,1.70
4091.00,1.69
4090.00,1.68
4089.00,1.67
4088.00,1.67
4087.00,1.66
4086.00,1.65
4085.00,1.64
4084.00,1.63
4083.00,1.63
4082.00,1.62
4081.00,1.61
4080.00,1.61
4079.00,1.60
4078.00,1.59
4077.00,1.59
4076.00,1.58
4075.00,1.58
4074.00,1.58
4073.00,1.57
4072.00,1.57
4071.00,1.57
4070.00,1.57
4069.00,1.57
4068.00,1.57
4067.00,1.58
4066.00,1.58
4065.00,1.58
4064.00,1.59
4063.00,1.59
4062.00,1.59
4061.00,1.60
4060.00,1.60
4059.00,1.61
4058.00,1.62
4057.00,1.62
4056.00,1.63
4055.00,1.64
4054.00,1.64
4053.00,1.65
4052.00,1.65
4051.00,1.65
4050.00,1.66
4049.00,1.66
4048.00,1.66
4047.00,1.67
4046.00,1.67
4045.00,1.67
4044.00,1.67
4043.00,1.67
4042.00,1.66
4041.00,1.66
4040.00,1.66
4039.00,1.66
4038.00,1.66
4037.00,1.66
4036.00,1.65
4035.00,1.65
4034.00,1.65
4033.00,1.64
4032.00,1.64
4031.00,1.64
4030.00,1.63
4029.00,1.63
4028.00,1.63
4027.00,1.64
4026.00,1.64
4025.00,1.64
4024.00,1.65
4023.00,1.66
4022.00,1.66
4021.00,1.67
4020.00,1.68
4019.00,1.69
4018.00,1.70
4017.00,1.71
4016.00,1.73
4015.00,1.74
4014.00,1.76
4013.00,1.78
4012.00,1.80
4011.00,1.82
4010.00,1.84
4009.00,1.87
4008.00,1.90
4007.00,1.93
4006.00,1.96
4005.00,1.99
4004.00,2.02
4003.00,2.05
4002.00,2.07
4001.00,2.10
4000.00,2.13
